timestamp,ch1,ch2,ch3,ch4,ch5,ch6,ch7,ch8,noise
0.005,14,-6,16,11,-2,-1,0,1,0.0
0.01,12,3,-11,-10,-1,1,-2,5,0.0
0.015,5,2,9,5,-3,-2,-3,-2,0.0
0.02,5,33,-11,0,2,4,14,5,0.0
0.025,-3,13,-14,-11,-1,-1,-5,-4,0.0
0.03,-4,1,3,-7,-5,-7,-18,-4,0.0
0.035,-2,-29,9,5,-3,-4,0,-1,0.0
0.04,-5,0,-3,0,1,-1,-4,-4,0.0
0.045,-5,-22,-9,-3,0,1,15,7,0.0
0.05,-8,-22,-20,-4,1,5,3,1,0.0
0.055,26,13,-2,-7,-1,-3,-9,-4,0.0
0.06,-31,17,8,1,1,-3,2,-10,0.0
0.065,-23,-9,-13,-5,0,-1,-2,-2,0.0
0.07,-1,-18,-1,11,2,0,0,3,0.0
0.075,-2,6,-14,-21,-7,-4,-3,-4,0.0
0.08,12,-16,20,-15,-4,-3,-2,-2,0.0
0.085,9,3,3,7,-1,-1,-6,0,0.0
0.09,-16,63,16,0,-4,1,2,-1,0.0
0.095,8,-15,-2,15,3,0,2,7,0.0
0.1,17,-22,-28,-25,-7,-4,-10,-5,0.0
0.105,-25,-4,10,-6,-3,-2,-3,-5,0.0
0.11,11,37,30,39,4,1,5,-1,0.0
0.115,-5,10,-14,-36,-8,-3,0,0,0.0
0.12,12,9,-12,4,0,2,-2,7,0.0
0.125,13,73,16,2,-2,-4,-3,-1,0.0
0.13,-6,-13,-43,1,-5,-4,-1,0,0.0
0.135,5,19,27,32,5,4,2,-2,0.0
0.14,-3,-5,2,-7,0,-1,0,-2,0.0
0.145,-3,-32,-33,-76,-15,-8,-5,-3,0.0
0.15,-1,9,17,-2,3,1,1,3,0.0
0.155,-2,-5,-10,-5,-1,-1,-2,2,0.0
0.16,2,2,5,18,1,1,1,2,0.0
0.165,0,12,34,55,5,0,-1,-2,0.0
0.17,8,-3,-15,-56,-6,-7,-7,-5,0.0
0.17500000000000002,-10,-47,-4,2,4,2,3,-1,0.0
0.18,-15,-13,3,7,3,1,-3,-6,0.0
0.185,-11,-50,-14,7,2,4,0,0,0.0
0.19,1,-42,14,20,0,-1,-2,1,0.0
0.195,2,11,1,30,5,1,-1,0,0.0
0.2,1,-14,-26,-46,-12,-8,-5,-3,0.0
0.20500000000000002,-16,-40,-1,-26,0,0,6,-3,0.0
0.21,-3,23,33,24,3,0,1,0,0.0
0.215,4,14,-7,-14,-7,-4,-4,-2,0.0
0.22,4,33,-11,24,1,-1,0,1,0.0
0.225,-2,-2,3,6,0,2,-1,1,0.0
0.23,-3,3,1,-4,-1,-1,-1,-2,0.0
0.23500000000000001,3,16,22,1,-1,-4,-3,-2,0.0
0.24,0,-45,-3,-7,-3,1,0,-1,0.0
0.245,-1,-1,-5,4,0,-2,-4,1,0.0
0.25,4,10,-4,-1,-2,-1,-2,-3,0.0
0.255,-5,16,-2,-7,-3,4,0,-2,0.0
0.26,-1,65,-4,-6,-4,-4,0,-4,0.0
0.265,-10,14,-17,-2,0,4,0,2,0.0
0.27,-2,5,4,11,0,-2,-1,0,0.0
0.275,-5,-28,-24,-17,-6,-8,-6,-3,0.0
0.28,0,4,21,0,1,0,-1,-3,0.0
0.28500000000000003,8,-6,-4,17,0,-2,0,-1,0.0
0.29,-8,-23,-38,-20,-3,2,1,-2,0.0
0.295,-15,-30,-3,-9,-1,2,3,1,0.0
0.3,-2,-29,0,2,-1,0,3,2,0.0
0.305,10,20,14,6,-1,-8,-13,-6,0.0
0.31,-3,-52,-5,7,-3,1,0,0,0.0
0.315,-5,9,-2,-5,-1,-2,16,-2,0.0
0.32,4,36,-7,0,0,0,-10,4,0.0
0.325,-8,15,-16,-4,-1,-4,-9,-5,0.0
0.33,3,-10,16,1,-5,-2,-4,1,0.0
0.335,-4,37,26,11,5,7,4,-1,0.0
0.34,17,20,21,-9,-6,-4,18,11,0.0
0.34500000000000003,-11,19,-8,-7,-1,0,14,-2,0.0
0.35000000000000003,-3,23,-5,-3,-8,-14,-62,-30,0.0
0.355,-3,-39,-20,-12,-4,2,0,-1,0.0
0.36,3,-2,-24,2,-2,-4,-1,-1,0.0
0.365,-1,-5,6,0,1,8,33,18,0.0
0.37,-2,25,7,2,1,5,73,-1,0.0
0.375,2,-8,8,4,-5,-17,-100,-30,0.0
0.38,-4,9,-9,-5,-2,-3,1,3,0.0
0.385,4,49,37,4,0,-3,2,-3,0.0
0.39,-7,19,-12,-1,1,0,-1,7,0.0
0.395,4,12,-17,-9,-2,1,29,7,0.0
0.4,-5,-13,-7,-3,0,2,-10,-5,0.0
0.405,1,3,3,0,1,2,3,-1,0.0
0.41000000000000003,8,2,12,3,2,8,70,17,0.0
0.41500000000000004,-6,-3,24,3,-5,-17,-96,-36,0.0
0.42,-2,5,-31,-8,1,2,36,1,0.0
0.425,-5,-61,-21,0,-4,-4,-25,-3,0.0
0.43,1,30,-6,-11,-2,0,-15,-2,0.0
0.435,8,21,27,5,3,10,53,24,0.0
0.44,1,-35,-29,-1,-3,-5,32,2,0.0
0.445,-1,25,4,-1,-2,-3,-82,-18,0.0
0.45,-3,-42,-12,-2,-4,2,11,19,0.0
0.455,0,17,24,-4,-5,-2,29,1,0.0
0.46,-10,-22,31,15,1,-10,-63,-22,0.0
0.465,8,-33,-6,1,7,13,79,37,0.0
0.47000000000000003,-4,15,-11,-5,2,2,37,1,0.0
0.47500000000000003,-13,-11,15,1,-8,-29,-46,-51,0.0
0.48,0,-14,23,1,1,3,68,5,0.0
0.485,0,1,-9,-12,-5,-8,5,-5,0.0
0.49,9,-14,-3,0,2,9,27,23,0.0
0.495,21,0,-15,-3,1,8,37,32,0.0
0.5,-41,-22,5,-1,-1,-1,-39,-29,0.0
0.505,4,-4,46,12,-6,-9,-14,-12,0.0
0.51,-11,-18,-37,-3,-1,-1,-30,-1,0.0
0.515,18,18,-19,-8,-2,-4,0,18,0.0
0.52,-31,-31,-21,-8,6,7,-24,-11,0.0
0.525,-28,-17,-35,-11,-8,-4,8,-24,0.0
0.53,12,15,19,5,-2,-7,-20,-8,0.0
0.535,2,-6,-13,1,-1,1,-1,9,0.0
0.54,18,16,9,2,1,4,11,20,0.0
0.545,-5,-2,13,8,3,3,4,1,0.0
0.55,-13,-41,9,-8,-3,-9,-32,-23,0.0
0.555,1,-51,-27,-10,0,10,24,13,0.0
0.56,-2,8,26,0,-4,-1,-3,1,0.0
0.5650000000000001,2,1,8,5,-1,-5,-5,-9,0.0
0.5700000000000001,0,-10,0,4,-1,-5,-22,-6,0.0
0.5750000000000001,-2,4,-12,8,1,2,21,9,0.0
0.58,6,8,-9,4,0,1,-1,3,0.0
0.585,4,-17,-1,-23,-9,-5,-9,0,0.0
0.59,0,17,10,-31,2,-6,-5,-2,0.0
0.595,-30,-1,-12,-1,3,8,13,-6,0.0
0.6,5,-17,7,10,-3,-3,-11,-1,0.0
0.605,10,26,-8,18,4,0,3,6,0.0
0.61,-2,25,51,9,0,-1,-4,-3,0.0
0.615,-13,6,6,-7,-5,-4,3,-5,0.0
0.62,15,-35,-12,-2,0,-1,-6,3,0.0
0.625,-4,-1,0,0,1,-4,-2,1,0.0
0.63,6,-47,-12,4,-4,1,-4,9,0.0
0.635,-3,-3,-20,-6,-3,-1,-1,-2,0.0
0.64,6,22,0,-1,-3,-2,2,3,0.0
0.645,16,28,14,-2,0,2,3,4,0.0
0.65,-19,23,-21,6,-1,-4,-9,-7,0.0
0.655,7,11,23,7,1,1,2,0,0.0
0.66,1,-1,-9,-9,-2,0,2,3,0.0
0.665,3,-4,-16,-6,-3,-2,0,1,0.0
0.67,7,21,1,0,0,8,45,13,0.0
0.675,-4,6,17,3,-4,-5,-62,-17,0.0
0.68,-19,10,14,-11,-5,-10,-33,-36,0.0
0.685,-4,-17,8,2,0,-2,3,2,0.0
0.6900000000000001,7,9,7,6,1,1,-3,3,0.0
0.6950000000000001,0,27,-29,-7,1,4,31,8,0.0
0.7000000000000001,31,3,29,-2,-1,1,7,23,0.0
0.705,-39,-7,-25,-7,2,4,-5,-14,0.0
0.71,-6,2,13,-2,-8,-7,2,-13,0.0
0.715,10,2,-11,4,4,-1,-16,7,0.0
0.72,3,-29,-35,-10,-4,0,-1,3,0.0
0.725,12,-13,-6,0,1,3,12,11,0.0
0.73,1,6,4,3,-1,-2,-5,1,0.0
0.735,-12,-29,0,-3,-3,-1,6,-5,0.0
0.74,1,13,-8,3,1,3,6,7,0.0
0.745,11,11,41,5,-3,-4,-2,3,0.0
0.75,-7,6,-22,-5,1,-2,-12,-8,0.0
0.755,-14,-10,2,-5,-3,-4,0,-11,0.0
0.76,3,5,13,1,2,2,7,3,0.0
0.765,0,0,-16,-2,-2,-1,-1,-7,0.0
0.77,12,4,7,6,-2,-1,-10,11,0.0
0.775,6,17,15,-4,2,3,31,6,0.0
0.78,-47,38,5,4,-2,-3,-13,-28,0.0
0.785,11,-21,-5,2,-8,-10,-47,-12,0.0
0.79,10,22,-17,-9,-5,-4,-1,7,0.0
0.795,3,4,47,-2,-4,-5,6,6,0.0
0.8,0,8,-10,-8,1,4,17,6,0.0
0.805,8,-8,-7,-4,1,1,6,-1,0.0
0.81,-18,-40,9,8,2,5,-4,-9,0.0
0.8150000000000001,5,-10,-23,-6,-5,1,10,8,0.0
0.8200000000000001,32,6,19,10,-2,-5,-16,-7,0.0
0.8250000000000001,-50,-5,16,-3,0,2,6,16,0.0
0.8300000000000001,-17,4,13,-6,-8,-10,-45,-65,0.0
0.835,4,-54,-39,-7,-2,5,52,17,0.0
0.84,19,9,30,2,-3,-8,-38,6,0.0
0.845,-5,-19,-17,6,0,-2,15,-6,0.0
0.85,-8,32,21,2,1,0,16,18,0.0
0.855,-7,1,-24,-3,0,0,-11,-8,0.0
0.86,4,-4,22,1,-1,1,18,2,0.0
0.865,16,-7,-14,-2,-3,1,8,8,0.0
0.87,-21,-11,7,4,2,1,-4,-1,0.0
0.875,12,13,0,-6,-3,-5,-19,-13,0.0
0.88,8,6,-23,4,3,3,13,20,0.0
0.885,-21,21,17,-4,-4,-2,-12,-19,0.0
0.89,16,29,-23,1,-2,0,17,17,0.0
0.895,-3,19,18,6,2,-3,-26,-11,0.0
0.9,-11,27,4,-1,-4,-4,4,1,0.0
0.905,-12,-56,21,1,-3,-2,-11,-14,0.0
0.91,-8,-17,-47,-17,-8,-6,-4,-18,0.0
0.915,12,-1,29,16,2,2,11,6,0.0
0.92,-4,18,19,-14,1,-1,-2,1,0.0
0.925,11,-74,-48,-19,-3,0,9,2,0.0
0.93,15,6,9,-1,3,0,3,22,0.0
0.935,-16,-1,11,8,0,-2,-13,-11,0.0
0.9400000000000001,-11,-25,-26,2,1,-1,7,-6,0.0
0.9450000000000001,3,11,14,4,4,5,3,11,0.0
0.9500000000000001,6,2,-6,2,-3,-2,-9,-2,0.0
0.9550000000000001,-14,-14,-11,5,0,-1,0,2,0.0
0.96,-16,-63,-30,-22,-9,-3,-1,-8,0.0
0.965,16,45,10,-7,0,-1,3,8,0.0
0.97,-9,-21,38,13,1,-2,-11,-28,0.0
0.975,8,37,-16,-9,-1,-2,3,6,0.0
0.98,-2,5,4,6,1,1,9,4,0.0
0.985,3,9,-14,1,-1,-2,-3,-2,0.0
0.99,4,-4,12,1,2,2,1,8,0.0
0.995,7,38,-13,-2,-1,-1,-5,1,0.0
1.0,-13,-42,-9,6,0,1,-3,-7,0.0
1.0050000000000001,-9,-7,-1,-3,0,2,-2,-5,0.0
1.01,11,40,5,7,-2,-1,1,7,0.0
1.0150000000000001,18,12,16,-8,-5,-3,1,5,0.0
1.02,-46,-39,-46,-10,-5,-4,-10,-29,0.0
1.025,2,14,22,10,3,0,4,8,0.0
1.03,5,-31,-9,-3,-5,-4,-4,-2,0.0
1.035,-7,-33,-5,-4,0,-1,-3,-2,0.0
1.04,18,31,14,6,4,2,5,5,0.0
1.045,16,22,-11,-1,-2,-4,2,26,0.0
1.05,-16,-10,-5,-2,-1,-4,-9,-20,0.0
1.055,-7,8,9,0,1,1,1,-3,0.0
1.06,9,19,6,1,-2,-1,-2,4,0.0
1.065,-1,32,0,4,-3,-1,-4,-15,0.0
1.07,9,-2,11,-17,-1,-2,0,17,0.0
1.075,-16,-15,13,1,0,-1,-2,-12,0.0
1.08,9,5,3,-7,-2,3,1,6,0.0
1.085,-27,-52,-35,-17,-3,0,-1,-9,0.0
1.09,6,-4,7,9,2,4,4,5,0.0
1.095,-3,1,9,6,-1,-1,-2,-1,0.0
1.1,2,2,-2,-3,-4,-6,-2,2,0.0
1.105,10,0,3,3,0,-1,0,-2,0.0
1.11,-11,-44,-19,5,1,3,0,0,0.0
1.115,-8,-6,-12,-13,-4,-3,-4,-7,0.0
1.12,6,15,13,5,0,0,-1,3,0.0
1.125,1,-9,12,3,-2,-2,-2,-3,0.0
1.1300000000000001,-8,-2,2,14,1,1,1,0,0.0
1.135,5,5,-3,17,0,0,-1,4,0.0
1.1400000000000001,-6,-3,-28,-92,-20,-11,-8,-8,0.0
1.145,-2,0,13,12,5,2,1,1,0.0
1.1500000000000001,-10,-2,-6,-19,-2,-2,-2,-4,0.0
1.155,6,6,10,17,-3,-1,0,4,0.0
1.16,5,18,9,33,2,1,2,2,0.0
1.165,-6,-13,-18,-18,1,0,-2,-7,0.0
1.17,-2,6,-12,-1,-3,-3,-1,-1,0.0
1.175,-8,-12,-18,-2,1,2,-2,-3,0.0
1.18,6,57,36,34,3,-3,-3,-3,0.0
1.185,4,78,9,12,0,2,-1,0,0.0
1.19,-4,16,15,-29,-7,-5,-5,-6,0.0
1.195,-5,-18,-37,-55,-13,-9,-5,-5,0.0
1.2,-7,24,20,-20,-1,-2,0,-4,0.0
1.205,-3,-3,12,18,2,1,0,0,0.0
1.21,1,3,11,25,6,2,3,3,0.0
1.215,1,11,-5,20,1,-2,-1,1,0.0
1.22,5,-6,-8,9,1,-2,-2,3,0.0
1.225,1,-1,0,-6,-5,-1,2,-1,0.0
1.23,-12,0,-15,1,2,4,0,0,0.0
1.235,9,-2,14,7,-5,-6,-5,4,0.0
1.24,-2,-50,-16,-19,-2,5,5,7,0.0
1.245,-12,5,4,-3,-4,-4,-1,-1,0.0
1.25,1,-16,5,-6,-4,-4,-3,-19,0.0
1.2550000000000001,1,3,-4,27,4,1,1,2,0.0
1.26,-6,-24,18,-6,0,-3,-3,-3,0.0
1.2650000000000001,11,18,6,-11,-5,-2,0,4,0.0
1.27,10,9,-16,-10,-2,-1,4,8,0.0
1.2750000000000001,-1,6,4,-1,1,0,-2,-4,0.0
1.28,-10,-4,-7,32,5,3,1,-3,0.0
1.285,-1,0,22,-6,-3,-8,-7,-11,0.0
1.29,6,8,-4,18,5,1,1,3,0.0
1.295,-3,-28,29,51,5,1,1,2,0.0
1.3,8,54,-8,-53,-3,1,0,4,0.0
1.305,-5,-12,-4,-25,-6,-4,-5,-4,0.0
1.31,-6,11,9,-2,-3,-4,-4,3,0.0
1.315,1,8,8,5,4,-1,2,1,0.0
1.32,-4,0,15,51,4,1,-2,-2,0.0
1.325,5,4,-12,2,9,6,12,1,0.0
1.33,-17,-43,14,4,-4,-3,-22,-7,0.0
1.335,31,9,-19,-22,-4,-1,2,7,0.0
1.34,-52,-30,4,-1,-10,-10,-12,-39,0.0
1.345,-11,-7,-5,-2,-4,-3,-3,-16,0.0
1.35,7,-13,-6,1,3,0,6,9,0.0
1.355,-3,-3,-4,-21,-4,-2,-2,0,0.0
1.36,14,6,4,24,1,1,2,8,0.0
1.365,-3,-13,-12,-35,-3,1,-3,6,0.0
1.37,0,38,9,9,1,-3,-3,-4,0.0
1.375,-2,50,67,7,2,3,2,-3,0.0
1.3800000000000001,30,-10,0,63,-1,-1,4,7,0.0
1.385,-43,-9,18,-20,-6,-3,-4,-4,0.0
1.3900000000000001,3,-13,-40,-99,-17,-6,-3,-1,0.0
1.395,0,2,7,1,5,2,1,-1,0.0
1.4000000000000001,23,21,3,26,3,2,1,9,0.0
1.405,-16,54,-3,54,2,0,-4,2,0.0
1.41,2,16,-4,59,6,4,6,0,0.0
1.415,-11,-22,-21,3,4,0,-3,-2,0.0
1.42,-5,-18,-2,-87,-14,-8,-4,-4,0.0
1.425,16,-14,-15,-35,-10,-5,10,8,0.0
1.43,-19,-3,3,5,0,-5,-5,-21,0.0
1.435,-23,-21,-11,15,8,6,-10,-3,0.0
1.44,1,-5,-1,30,5,1,4,8,0.0
1.445,21,4,10,5,-2,-4,-8,1,0.0
1.45,1,1,-6,-9,-2,-1,13,3,0.0
1.455,-10,-39,-40,-9,-10,-5,2,-2,0.0
1.46,-7,34,-5,-17,-1,-2,-5,-1,0.0
1.465,14,9,2,-9,-9,-14,0,2,0.0
1.47,-28,-61,6,19,13,17,5,-4,0.0
1.475,2,7,-11,-16,-6,-6,-3,-2,0.0
1.48,18,18,1,20,3,3,-2,5,0.0
1.485,4,-42,-22,36,5,0,-6,-6,0.0
1.49,-32,-36,-5,-87,-29,-19,-15,-8,0.0
1.495,9,2,-4,-24,-4,-2,-1,1,0.0
1.5,-17,-36,-6,12,6,5,10,1,0.0
1.5050000000000001,23,10,22,44,10,7,-4,2,0.0
1.51,32,23,13,33,5,1,-1,8,0.0
1.5150000000000001,-37,-26,-17,-20,-3,-2,4,-7,0.0
1.52,9,11,4,-14,-6,-6,-4,0,0.0
1.5250000000000001,-5,0,-11,3,1,4,-1,-3,0.0
1.53,-12,7,-11,3,-3,-3,-1,-3,0.0
1.5350000000000001,6,19,10,-19,-5,-6,0,-1,0.0
1.54,16,2,7,15,7,6,1,4,0.0
1.545,6,-14,-30,-21,-6,-4,-7,-1,0.0
1.55,12,29,1,-1,-1,-3,-1,-4,0.0
1.555,-28,-29,9,7,2,-1,0,-5,0.0
1.56,-14,-17,-10,-11,-2,0,-2,-3,0.0
1.565,2,-19,-13,-9,-1,1,1,1,0.0
1.57,28,-3,3,14,0,0,2,9,0.0
1.575,13,20,-16,-1,-2,-1,-5,-1,0.0
1.58,-8,-16,7,-14,-2,0,-3,-2,0.0
1.585,-24,-7,18,-1,-1,0,-2,-5,0.0
1.59,1,-3,6,16,-1,-1,0,-4,0.0
1.595,5,14,11,-5,-3,-2,-3,0,0.0
1.6,-7,-18,-16,-7,-2,-2,0,-5,0.0
1.605,0,-1,7,0,-3,1,-1,2,0.0
1.61,-10,5,5,1,-2,-3,-3,1,0.0
1.615,5,22,6,0,1,1,-1,-7,0.0
1.62,-7,15,-1,-10,-6,-1,-2,0,0.0
1.625,-11,-1,-7,-1,-1,-3,0,-1,0.0
1.6300000000000001,11,1,8,3,0,2,1,8,0.0
1.635,-6,-15,-10,-9,-4,-2,-4,-12,0.0
1.6400000000000001,0,2,2,3,0,-4,-3,1,0.0
1.645,-7,9,12,-1,-1,-1,2,1,0.0
1.6500000000000001,2,4,16,2,0,1,0,2,0.0
1.655,1,-2,2,-4,-5,-3,-3,-9,0.0
1.6600000000000001,-9,6,3,-2,-4,-4,-9,0,0.0
1.665,8,23,38,8,3,1,0,0,0.0
1.67,3,-35,-87,-19,-6,-4,-6,1,0.0
1.675,3,18,17,2,0,-1,6,7,0.0
1.68,-13,-14,-8,-5,-2,1,4,-3,0.0
1.685,9,15,26,5,-1,-1,-2,0,0.0
1.69,-2,7,12,10,3,3,14,2,0.0
1.695,-4,-13,3,-5,-2,-1,-4,1,0.0
1.7,5,-4,2,-6,-2,-2,-17,-2,0.0
1.705,-1,42,-8,1,-3,-3,-1,-5,0.0
1.71,4,53,23,-4,-4,1,-12,-3,0.0
1.715,1,-13,-33,-11,-7,-3,8,3,0.0
1.72,5,6,12,3,8,5,12,3,0.0
1.725,5,-7,22,1,-3,-6,-7,-8,0.0
1.73,-15,29,17,6,2,1,5,-1,0.0
1.735,5,7,12,11,0,0,-1,5,0.0
1.74,-8,-11,-5,-18,-7,-6,-7,-9,0.0
1.745,0,-28,-13,-14,-1,-1,0,0,0.0
1.75,8,-30,-11,3,1,-2,-1,-2,0.0
1.7550000000000001,-1,-13,-34,-3,-1,-1,-5,2,0.0
1.76,-4,11,19,11,-2,-2,-1,-3,0.0
1.7650000000000001,-11,-17,-35,-8,1,3,4,0,0.0
1.77,5,9,7,25,3,-2,2,4,0.0
1.7750000000000001,-11,-24,-28,-29,-5,-4,-6,-3,0.0
1.78,-11,-12,-2,-1,-6,-1,2,-9,0.0
1.7850000000000001,14,40,11,2,-3,-3,0,5,0.0
1.79,1,-18,21,10,4,1,-4,-3,0.0
1.795,-8,-34,-11,9,1,-2,-2,-3,0.0
1.8,15,27,23,1,-1,-4,0,2,0.0
1.805,0,6,-24,-1,-2,3,3,10,0.0
1.81,-14,6,11,-1,-2,-2,-4,-8,0.0
1.815,21,44,22,14,1,-4,-2,0,0.0
1.82,-12,-54,-37,-26,-5,1,3,5,0.0
1.825,-7,-15,-18,-16,-4,-3,-9,-4,0.0
1.83,2,-9,-14,-12,-1,2,5,1,0.0
1.835,8,30,10,3,-2,-1,1,5,0.0
1.84,-5,6,-11,17,1,0,-2,-5,0.0
1.845,-3,-18,5,5,0,0,2,0,0.0
1.85,-1,3,-5,-10,-5,-3,-6,0,0.0
1.855,-5,-11,4,-2,-3,-2,-4,-7,0.0
1.86,-3,7,13,-1,2,-1,-1,-3,0.0
1.865,-14,-29,5,-8,-3,-2,-2,-2,0.0
1.87,-6,46,-19,-5,0,-2,-1,-1,0.0
1.875,1,-71,19,1,2,1,-3,2,0.0
1.8800000000000001,-4,-4,-35,-5,2,6,3,4,0.0
1.885,6,53,0,-2,-4,-5,-5,-2,0.0
1.8900000000000001,-11,12,-10,4,6,6,3,-5,0.0
1.895,-4,9,-28,-7,-6,0,1,4,0.0
1.9000000000000001,-6,-6,-1,1,-3,-3,-2,-2,0.0
1.905,4,-20,8,25,4,1,2,5,0.0
1.9100000000000001,-7,-8,1,-9,-5,-5,-2,-11,0.0
1.915,-3,-3,9,-30,0,2,0,-2,0.0
1.92,7,10,10,3,-1,-4,-1,0,0.0
1.925,-2,-4,0,2,0,-2,0,0,0.0
1.93,0,-15,15,9,1,-1,-2,3,0.0
1.935,-4,8,20,9,1,-1,0,-3,0.0
1.94,2,2,-18,-8,-5,-4,-2,-1,0.0
1.945,-1,-2,3,-1,-1,0,-1,2,0.0
1.95,7,-6,-5,-7,-6,-6,-2,-1,0.0
1.955,4,0,39,4,-2,-1,-2,-5,0.0
1.96,-20,17,-24,1,-2,2,2,9,0.0
1.965,4,26,1,-6,-3,0,-3,-5,0.0
1.97,3,-16,-12,-8,-8,-5,-4,2,0.0
1.975,-1,-10,13,16,2,0,-1,-2,0.0
1.98,1,-13,-47,-30,-10,-6,-1,-2,0.0
1.985,-9,-22,-15,-21,-3,-2,1,-4,0.0
1.99,3,1,14,-4,0,-1,-4,-2,0.0
1.995,-7,37,9,11,2,3,2,2,0.0
2.0,6,15,27,19,3,1,-1,-5,0.0
2.005,-6,-13,0,2,-2,-2,0,-5,0.0
2.0100000000000002,1,-29,-5,-8,2,0,1,5,0.0
2.015,2,45,13,9,3,2,0,-1,0.0
2.02,3,-2,31,-2,-1,0,-1,-2,0.0
2.025,-6,-37,-11,8,3,-2,-4,-6,0.0
2.0300000000000002,2,10,15,8,-9,-6,-1,-1,0.0
2.035,-7,21,-10,-13,-4,-3,-2,-8,0.0
2.04,-3,-13,13,-4,1,1,0,-6,0.0
2.045,5,3,13,1,4,4,2,17,0.0
2.05,0,-3,-21,5,-5,-4,-7,-6,0.0
2.055,0,18,2,-5,-6,-7,-5,-3,0.0
2.06,7,-2,3,-2,-4,-3,-1,1,0.0
2.065,-3,-1,1,2,0,0,0,-6,0.0
2.07,-1,-6,6,-3,1,1,0,6,0.0
2.075,-7,17,4,2,-1,-2,-3,-2,0.0
2.08,3,38,-14,-4,-1,-2,-2,-2,0.0
2.085,2,19,35,-3,-5,-2,-1,-1,0.0
2.09,-12,-3,5,0,3,3,3,-2,0.0
2.095,0,-35,-15,-9,-2,1,1,-3,0.0
2.1,6,0,14,8,-1,-2,-1,2,0.0
2.105,-10,-19,-12,-3,-3,2,0,-3,0.0
2.11,3,11,11,-5,-3,-5,-3,-4,0.0
2.115,-6,-24,-20,2,2,1,1,-1,0.0
2.12,-13,-68,11,6,0,0,-4,0,0.0
2.125,-3,-3,-15,-8,-6,-3,-1,-2,0.0
2.13,-2,-10,-5,-1,0,2,-1,-5,0.0
2.1350000000000002,4,-4,-10,-2,-1,-3,-1,3,0.0
2.14,-8,-32,8,2,1,1,-1,-2,0.0
2.145,-2,-3,-3,-1,2,-2,-2,-5,0.0
2.15,1,1,-3,-2,1,1,-1,2,0.0
2.1550000000000002,0,-6,-13,-3,-2,-1,-1,0,0.0
2.16,-1,-4,-5,-12,-4,-4,-3,-4,0.0
2.165,1,7,2,0,-1,-4,-2,-4,0.0
2.17,-7,8,2,3,1,1,1,-1,0.0
2.1750000000000003,1,24,0,-2,0,2,2,1,0.0
2.18,-1,13,7,-4,-4,-2,-1,1,0.0
2.185,1,2,-3,-4,-1,0,-4,-1,0.0
2.19,0,5,-7,32,1,1,1,-1,0.0
2.195,1,-10,15,11,0,-1,-1,-3,0.0
2.2,0,16,-3,-54,-7,-5,-4,-3,0.0
2.205,-11,-30,-6,-24,-8,-4,-2,-4,0.0
2.21,13,37,14,-1,3,-3,-5,-2,0.0
2.215,-16,3,2,33,1,5,4,1,0.0
2.22,-5,8,-3,26,5,2,3,0,0.0
2.225,-1,-30,3,29,3,3,0,1,0.0
2.23,-1,-2,0,-16,-4,-5,-4,-3,0.0
2.235,8,4,-4,-10,-3,-5,-4,0,0.0
2.24,-1,1,-6,-54,-12,-5,-2,-3,0.0
2.245,1,9,-13,-25,0,0,-2,-4,0.0
2.25,-1,8,-14,11,2,2,5,1,0.0
2.255,4,-8,25,4,1,0,-1,-1,0.0
2.2600000000000002,0,4,-8,21,1,0,-2,-2,0.0
2.265,9,1,-2,29,3,2,2,3,0.0
2.27,24,-7,-4,-17,0,1,-1,3,0.0
2.275,-54,-30,-22,-51,-17,-8,-7,-10,0.0
2.2800000000000002,-18,6,18,24,7,-1,0,-2,0.0
2.285,-1,10,7,1,-1,-1,-2,-3,0.0
2.29,1,-13,-6,-28,-2,-2,-2,1,0.0
2.295,23,9,10,11,2,2,4,4,0.0
2.3000000000000003,15,-6,10,13,1,0,-3,1,0.0
2.305,-18,22,-13,-7,-4,-2,0,-2,0.0
2.31,-6,-12,11,28,1,2,2,-1,0.0
2.315,8,-4,-12,-48,-9,-7,-5,-3,0.0
2.32,-1,-23,8,27,1,6,1,2,0.0
2.325,2,-30,1,-29,-8,-6,-5,-3,0.0
2.33,-9,0,-12,2,-5,-2,-3,-3,0.0
2.335,-2,-23,13,8,-1,0,3,2,0.0
2.34,11,-3,-19,-8,-4,-3,-2,2,0.0
2.345,33,13,18,30,10,5,2,5,0.0
2.35,-52,-35,-30,13,-1,-5,-4,-7,0.0
2.355,-53,-3,5,15,3,-1,-3,-4,0.0
2.36,2,-11,-47,-87,-20,-11,-3,-8,0.0
2.365,17,21,18,65,8,4,3,5,0.0
2.37,34,26,40,81,15,9,3,8,0.0
2.375,7,14,11,89,2,1,-2,-4,0.0
2.38,-41,-89,-87,-75,-59,-34,-23,-25,0.0
2.3850000000000002,-26,-22,47,89,8,3,4,-2,0.0
2.39,9,22,33,73,8,2,0,1,0.0
2.395,5,13,22,51,19,8,3,4,0.0
2.4,3,34,26,44,24,15,7,6,0.0
2.4050000000000002,6,-39,-25,-59,-11,-8,-5,-6,0.0
2.41,11,-6,1,-31,-2,0,2,5,0.0
2.415,18,2,-14,-36,1,0,0,-1,0.0
2.42,3,28,34,12,7,1,-3,0,0.0
2.4250000000000003,5,39,-25,-59,-12,-6,-4,-2,0.0
2.43,-22,-8,-10,-67,-8,-5,-3,-5,0.0
2.435,6,-10,-14,-32,-9,-6,-2,-4,0.0
2.44,4,-1,8,11,9,6,4,4,0.0
2.445,-12,7,2,18,3,1,-1,-1,0.0
2.45,-5,-17,-16,-29,-9,-4,-3,-4,0.0
2.455,6,-1,-5,-19,-7,-1,-3,0,0.0
2.46,10,10,14,55,12,5,2,3,0.0
2.465,-8,0,-16,-19,-14,-6,-4,0,0.0
2.47,-7,-27,24,-46,-12,-12,-5,-8,0.0
2.475,-5,-24,-35,-13,8,4,4,-3,0.0
2.48,9,38,40,42,12,5,4,4,0.0
2.485,-12,-33,-44,15,-1,0,-2,-2,0.0
2.49,-3,-41,-4,-37,-10,-3,-5,0,0.0
2.495,5,-14,2,1,-6,-3,-4,0,0.0
2.5,-4,2,11,13,4,3,1,0,0.0
2.505,-4,7,10,11,7,3,3,1,0.0
2.5100000000000002,17,40,-20,-19,-8,-3,-1,-2,0.0
2.515,7,13,5,0,0,-2,-2,-2,0.0
2.52,-22,7,2,20,5,3,5,3,0.0
2.525,23,6,8,30,8,8,8,7,0.0
2.5300000000000002,-7,-12,12,38,-1,-2,-9,46,0.0
2.535,10,17,-10,-24,-16,-12,-12,12,0.0
2.54,-14,43,14,18,-2,-5,-5,-75,0.0
2.545,-4,-5,22,19,5,-2,3,-9,0.0
2.5500000000000003,17,5,-1,28,10,7,13,6,0.0
2.555,19,39,2,8,3,3,5,25,0.0
2.56,5,4,-4,1,-4,0,-4,23,0.0
2.565,2,10,-3,-45,-4,1,0,2,0.0
2.57,-7,0,-7,0,-4,-1,-1,-16,0.0
2.575,-6,-6,9,3,-1,-3,-3,-4,0.0
2.58,0,-27,-27,-26,-3,-6,-3,-1,0.0
2.585,-3,11,9,-20,-2,1,0,-6,0.0
2.59,-11,-3,1,-3,-3,-6,-3,-6,0.0
2.595,-5,15,1,3,0,-3,0,-11,0.0
2.6,20,19,24,43,6,3,5,18,0.0
2.605,-9,-21,5,-26,-9,-7,-5,3,0.0
2.61,-9,-16,-4,-36,-8,-6,-5,-18,0.0
2.615,3,4,15,17,4,1,3,-4,0.0
2.62,7,27,-16,-18,-3,3,0,12,0.0
2.625,-10,7,-21,8,-2,-4,-8,3,0.0
2.63,-6,14,-6,1,-1,3,2,-17,0.0
2.6350000000000002,-3,-14,2,-5,-4,0,0,-8,0.0
2.64,1,-33,7,-4,0,-1,-3,12,0.0
2.645,3,25,-1,-6,-3,-6,-7,5,0.0
2.65,1,-1,-14,20,5,5,5,-2,0.0
2.6550000000000002,2,-18,-13,38,4,3,0,14,0.0
2.66,-26,-85,-24,-80,-15,-9,-8,-44,0.0
2.665,-4,14,22,17,-3,-3,-2,-5,0.0
2.67,0,-6,-7,-15,-2,-5,-5,-3,0.0
2.6750000000000003,-4,12,28,6,1,6,5,-6,0.0
2.68,10,30,6,22,2,0,3,18,0.0
2.685,-2,-7,-7,0,0,-1,-5,-5,0.0
2.69,2,5,-10,-5,0,-4,-3,-5,0.0
2.695,-22,-44,-5,-32,-6,1,-2,-3,0.0
2.7,4,34,11,9,2,-1,-3,6,0.0
2.705,5,37,6,-12,3,2,3,-5,0.0
2.71,2,-1,-36,19,3,1,2,13,0.0
2.715,-3,7,-11,2,3,-1,-2,-3,0.0
2.72,-2,-19,-61,-9,-7,-6,-5,-14,0.0
2.725,-2,12,5,0,2,1,1,0,0.0
2.73,3,13,33,10,2,3,0,0,0.0
2.735,1,-11,-10,-30,-7,-6,-4,-3,0.0
2.74,7,4,20,23,-1,3,1,10,0.0
2.745,-4,-21,-23,-11,0,1,1,-3,0.0
2.75,-12,-14,-21,-13,-5,-3,-3,-1,0.0
2.755,-3,6,-6,-8,-5,-4,-7,-2,0.0
2.7600000000000002,-1,10,41,4,-1,-4,-4,-26,0.0
2.765,1,-9,0,24,4,2,1,36,0.0
2.77,-2,6,49,48,3,0,-3,-23,0.0
2.775,-18,-57,-41,-53,-8,-7,-5,-9,0.0
2.7800000000000002,-10,9,6,-40,-6,-2,0,9,0.0
2.785,-1,0,20,29,5,0,2,-2,0.0
2.79,-4,7,-10,-75,-8,-3,-1,4,0.0
2.795,9,-6,13,41,3,2,2,6,0.0
2.8000000000000003,4,-7,1,19,2,-2,0,7,0.0
2.805,-15,-40,-10,-18,-9,-1,-2,-15,0.0
2.81,5,4,15,26,-1,-1,-2,7,0.0
2.815,-1,7,-8,-2,-3,-4,-4,-11,0.0
2.82,-3,-3,-2,-16,-1,-1,0,9,0.0
2.825,-3,8,1,-4,0,-3,-2,-6,0.0
2.83,0,-9,-13,8,1,0,-2,-2,0.0
2.835,-3,-5,-2,-9,-2,-1,-2,-5,0.0
2.84,-3,8,8,23,4,4,0,6,0.0
2.845,-6,-2,-1,-8,-5,-1,-3,-6,0.0
2.85,-2,-3,-18,-19,-10,-5,-3,-1,0.0
2.855,1,10,23,-1,2,-1,1,2,0.0
2.86,-6,-32,-4,10,-4,-2,3,8,0.0
2.865,1,0,-8,-5,-2,-3,-2,-8,0.0
2.87,-2,-8,14,8,4,2,0,-1,0.0
2.875,8,15,-11,31,5,3,1,6,0.0
2.88,4,-7,8,26,4,2,3,10,0.0
2.8850000000000002,0,-15,-15,-72,-13,-7,-7,-2,0.0
2.89,-12,-22,-10,-24,-3,-3,-3,-14,0.0
2.895,7,23,16,21,2,1,1,-1,0.0
2.9,-2,8,-1,21,4,3,1,1,0.0
2.9050000000000002,5,2,-1,30,0,2,3,1,0.0
2.91,6,7,-11,9,0,-1,1,9,0.0
2.915,-6,-20,9,-15,-5,2,1,-8,0.0
2.92,-2,1,2,-10,-2,1,-1,0,0.0
2.9250000000000003,2,11,0,-6,-2,-3,0,4,0.0
2.93,-1,10,-14,1,4,-1,-2,-2,0.0
2.935,1,39,3,-9,-6,-3,-2,-2,0.0
2.94,0,6,8,-11,-5,1,-1,0,0.0
2.945,-5,29,-12,11,4,0,-1,-5,0.0
2.95,-2,-7,0,-17,-3,0,2,0,0.0
2.955,-1,-12,-17,-23,-4,-3,-1,-1,0.0
2.96,-8,-24,14,-12,-3,-4,-6,-1,0.0
2.965,-6,-10,-3,-1,3,2,-2,-4,0.0
2.97,-3,-11,12,37,5,-1,1,-3,0.0
2.975,1,-24,-19,1,-4,-3,1,4,0.0
2.98,-3,-10,-3,-13,-3,-2,-2,-6,0.0
2.985,-7,-21,7,-1,1,1,0,-6,0.0
2.99,-3,-3,16,-4,-2,-1,-4,4,0.0
2.995,1,25,7,10,2,-1,-1,0,0.0
3.0,3,-1,-7,1,4,-2,-3,0,0.0
3.005,-2,8,-9,-3,-7,-4,-1,-3,0.0
3.0100000000000002,3,23,-4,-9,0,3,1,1,0.0
3.015,-3,33,2,-2,-2,-4,-2,-5,0.0
3.02,1,-12,-15,-8,-6,-5,-4,1,0.0
3.025,2,-11,3,-2,-2,-1,-2,1,0.0
3.0300000000000002,-1,-8,-6,-4,-4,-3,-1,1,0.0
3.035,-4,0,11,7,6,6,2,-2,0.0
3.04,7,22,-18,-12,0,-1,0,0,0.0
3.045,-10,-27,-3,-3,-7,-3,-3,-2,0.0
3.0500000000000003,3,0,7,36,4,1,-1,3,0.0
3.055,-3,-21,-20,-30,-10,-7,-2,-3,0.0
3.06,-2,16,8,-15,-2,-1,-1,-3,0.0
3.065,2,8,3,5,5,2,-1,-2,0.0
3.0700000000000003,0,3,-1,-5,-2,-3,0,-3,0.0
3.075,0,-9,14,19,0,-1,-2,2,0.0
3.08,-5,-1,-10,11,1,3,2,0,0.0
3.085,-2,-11,-12,-14,-3,0,-1,1,0.0
3.09,3,-8,3,11,0,0,-1,0,0.0
3.095,-4,-10,-2,6,2,1,-2,-5,0.0
3.1,2,-16,-1,-4,-1,-2,-2,-5,0.0
3.105,2,1,9,4,-5,-2,-1,-1,0.0
3.11,-1,6,-9,-15,-3,0,0,0,0.0
3.115,0,8,12,-9,-5,-4,-3,1,0.0
3.12,0,14,8,-2,3,2,-1,0,0.0
3.125,-11,-6,2,15,3,2,0,-3,0.0
3.13,-4,21,9,-22,-4,-3,-1,-6,0.0
3.1350000000000002,0,-4,15,-2,-8,-2,0,1,0.0
3.14,-3,19,-4,21,3,1,2,2,0.0
3.145,7,5,-18,-12,-4,-4,-5,-1,0.0
3.15,-1,2,-2,-9,-2,1,2,-1,0.0
3.1550000000000002,-1,8,4,6,4,0,-2,-1,0.0
3.16,5,-4,12,3,-6,-4,-1,1,0.0
3.165,1,14,-3,-3,-6,-3,-2,1,0.0
3.17,-8,-13,-4,0,0,1,-3,0,0.0
3.1750000000000003,2,-3,9,-4,-2,-1,-4,-1,0.0
3.18,-1,30,-38,-13,-8,0,-4,-8,0.0
3.185,-3,24,23,-5,-2,-8,0,-7,0.0
3.19,-1,-13,10,7,1,0,0,2,0.0
3.1950000000000003,-6,-19,-8,-5,2,1,2,3,0.0
3.2,-1,-20,5,-1,-1,-1,0,1,0.0
3.205,3,-11,3,3,1,1,-3,-3,0.0
3.21,-6,-3,-12,6,2,-2,0,-3,0.0
3.215,-3,9,-7,0,-2,0,1,1,0.0
3.22,-4,-24,17,-1,-1,-1,-2,-3,0.0
3.225,0,-19,-35,-1,-3,-3,-1,1,0.0
3.23,6,11,-13,-4,-7,-7,-3,-2,0.0
3.235,-3,14,5,-8,4,2,0,-3,0.0
3.24,-9,-24,0,-11,-9,-6,-4,-2,0.0
3.245,-1,-4,20,11,8,4,2,1,0.0
3.25,-2,0,5,-4,-2,0,0,-1,0.0
3.255,-4,-3,-23,8,0,-1,2,4,0.0
3.2600000000000002,5,18,15,9,3,-1,-2,0,0.0
3.265,-16,-25,-18,-17,-7,-5,-4,-12,0.0
3.27,5,-1,0,-7,-1,-3,-2,-3,0.0
3.275,-7,-1,5,-9,0,2,0,0,0.0
3.2800000000000002,9,21,14,15,1,-2,0,6,0.0
3.285,-6,-11,17,16,3,4,4,1,0.0
3.29,-5,-10,-3,-22,-3,-3,-4,-4,0.0
3.295,5,7,-25,8,-2,-3,0,-1,0.0
3.3000000000000003,-1,-33,-16,-16,-2,0,-2,0,0.0
3.305,9,33,-6,12,-1,0,-2,1,0.0
3.31,-4,-5,-6,4,0,0,0,3,0.0
3.315,3,-22,-1,-5,-3,-4,-4,-2,0.0
3.3200000000000003,-3,12,-4,-5,2,0,2,3,0.0
3.325,12,5,-3,-6,-3,-4,3,11,0.0
3.33,-15,-22,-4,2,1,2,-2,-4,0.0
3.335,-14,-6,16,10,-3,-5,-4,-18,0.0
3.34,-2,25,-6,-14,-4,-2,1,-3,0.0
3.345,8,6,8,-3,3,1,2,-1,0.0
3.35,5,-1,-2,-5,0,1,2,12,0.0
3.355,5,-17,3,4,-3,-2,-4,2,0.0
3.36,1,-4,6,4,0,0,-1,-3,0.0
3.365,-4,-15,0,-6,0,0,-3,-1,0.0
3.37,5,18,-8,6,-3,-2,0,-4,0.0
3.375,7,35,-30,-3,-1,-3,-2,-4,0.0
3.38,-2,-14,18,9,-9,-3,-3,-6,0.0
3.3850000000000002,-1,13,0,-20,-8,-4,-3,0,0.0
3.39,0,2,6,2,1,0,-2,-3,0.0
3.395,-1,-9,16,8,4,0,-1,-2,0.0
3.4,-8,-11,-19,-31,-2,-5,-4,-1,0.0
3.4050000000000002,-1,-16,8,6,0,-4,-3,-5,0.0
3.41,0,26,18,6,-1,-1,0,-2,0.0
3.415,4,-5,-15,-7,-1,1,1,7,0.0
3.42,-3,2,8,14,4,3,0,-1,0.0
3.4250000000000003,-3,14,3,2,-3,-2,-2,-6,0.0
3.43,0,-56,-23,-5,-4,2,3,2,0.0
3.435,-7,-48,21,2,-1,-3,-1,1,0.0
3.44,-3,11,-40,5,1,-2,-1,-2,0.0
3.4450000000000003,5,-2,9,-4,-1,-2,-2,3,0.0
3.45,-8,-4,6,-3,1,1,-1,-4,0.0
3.455,-3,23,19,0,-4,-7,-3,-5,0.0
3.46,-4,-6,12,-3,0,1,1,0,0.0
3.465,1,4,0,2,-6,0,1,3,0.0
3.47,-3,-3,5,4,2,-1,-2,-2,0.0
3.475,1,-23,3,21,-3,-1,-3,0,0.0
3.48,-4,16,11,-23,3,-1,1,-2,0.0
3.485,1,5,-20,-9,-3,-1,-2,-1,0.0
3.49,1,22,23,3,-2,-2,-3,-4,0.0
3.495,2,-1,-4,-1,-2,-1,0,2,0.0
3.5,13,-5,-1,20,3,3,1,0,0.0
3.505,0,-9,-6,0,-4,-4,-3,-5,0.0
3.5100000000000002,-42,3,-10,-14,0,-3,-1,-5,0.0
3.515,14,8,7,-7,0,0,0,3,0.0
3.52,-5,-12,-3,7,-1,1,-1,0,0.0
3.525,2,38,14,-13,2,-2,-3,-2,0.0
3.5300000000000002,11,-12,-26,0,-1,0,0,2,0.0
3.535,1,-3,7,-5,-2,-1,-2,-1,0.0
3.54,-14,-8,-12,-5,-4,-5,-1,-2,0.0
3.545,-7,-14,-5,8,4,1,2,-3,0.0
3.5500000000000003,2,-1,21,2,-3,-3,-3,-1,0.0
3.555,-5,-10,-7,-6,-1,2,2,3,0.0
3.56,12,-33,16,3,-6,-4,-6,-1,0.0
3.565,-14,-29,0,-2,1,-2,-2,-1,0.0
3.5700000000000003,-7,-19,-1,-4,-2,0,2,-1,0.0
3.575,5,4,12,-4,-1,1,-2,-2,0.0
3.58,-3,8,-6,-6,-4,-4,-3,-3,0.0
3.585,-4,1,-1,-4,-3,0,-1,-1,0.0
3.59,16,-7,-14,1,1,1,-1,-1,0.0
3.595,-8,10,3,-2,-6,-2,1,-1,0.0
3.6,-5,7,-10,-1,-2,-2,-2,-1,0.0
3.605,4,-10,-1,0,-2,-2,-1,1,0.0
3.61,10,16,-15,-12,-3,-3,-3,1,0.0
3.615,-10,4,-5,-9,0,-1,-1,-1,0.0
3.62,-3,7,8,17,6,3,-1,1,0.0
3.625,21,-4,-31,-5,-4,-5,-2,-4,0.0
3.63,-41,-51,11,11,-3,-2,2,-5,0.0
3.6350000000000002,-6,-8,-21,-7,-2,0,-1,-1,0.0
3.64,7,-8,0,-8,-1,4,2,-3,0.0
3.645,1,-8,16,19,3,-5,-5,-1,0.0
3.65,4,36,-6,-23,-8,-1,-5,-2,0.0
3.6550000000000002,-8,-18,-24,-9,-1,-3,-2,0,0.0
3.66,0,10,9,9,0,-5,0,-1,0.0
3.665,-1,8,-2,7,3,5,0,-1,0.0
3.67,9,0,-1,4,1,-2,-1,2,0.0
3.6750000000000003,-7,-22,2,6,0,3,1,-2,0.0
3.68,-4,31,12,-5,-2,1,2,3,0.0
3.685,-6,8,-1,-10,-2,0,1,-1,0.0
3.69,7,4,6,8,-5,-5,0,1,0.0
3.6950000000000003,2,15,6,-27,0,-1,-6,-8,0.0
3.7,-9,-24,8,1,-9,-4,-1,-1,0.0
3.705,-9,-26,7,3,1,0,0,-2,0.0
3.71,0,-17,-5,6,0,2,0,-2,0.0
3.715,2,4,1,-8,-2,-2,0,-1,0.0
3.72,0,-8,-6,-7,-1,-3,-2,-1,0.0
3.725,-3,4,2,0,0,0,-2,-4,0.0
3.73,7,8,2,3,-1,-4,-4,0,0.0
3.735,-5,-22,18,10,1,-2,-4,-3,0.0
3.74,-12,25,-3,-17,1,6,3,-3,0.0
3.745,1,7,-5,-25,-16,-6,-1,2,0.0
3.75,3,-12,2,9,5,-3,-3,-2,0.0
3.755,-7,-16,2,21,1,-3,-1,-1,0.0
3.7600000000000002,5,7,1,8,1,-5,-2,-4,0.0
3.765,2,16,1,10,1,0,1,-3,0.0
3.77,2,-9,19,0,-5,-1,1,0,0.0
3.775,2,12,-31,-22,-2,-2,-2,-1,0.0
3.7800000000000002,0,-19,-2,-10,-6,0,-3,0,0.0
3.785,0,11,5,4,3,1,-1,1,0.0
3.79,0,9,-18,-4,-1,-3,-3,-1,0.0
3.795,-3,-3,9,19,3,3,5,-1,0.0
3.8000000000000003,-6,-4,4,5,-1,-4,-2,-3,0.0
3.805,-2,-9,-12,-20,-4,-3,-1,1,0.0
3.81,-4,-1,0,-8,-5,0,-1,-3,0.0
3.815,5,6,-4,-1,-1,1,-1,0,0.0
3.8200000000000003,3,-26,0,5,-2,-3,-5,0,0.0
3.825,-4,32,9,2,-3,0,1,4,0.0
3.83,-7,16,-10,2,3,0,1,-4,0.0
3.835,0,-9,-1,-11,-5,-3,-1,1,0.0
3.84,8,16,9,24,8,1,-1,1,0.0
3.845,2,15,-9,-11,-5,-2,-2,-3,0.0
3.85,2,16,-8,-16,-5,0,-2,0,0.0
3.855,2,21,5,13,3,-2,-2,1,0.0
3.86,-6,-11,-19,-10,-1,-2,-1,0,0.0
3.865,-4,-21,-3,7,4,2,0,1,0.0
3.87,0,2,4,21,4,0,0,-1,0.0
3.875,1,5,-1,-15,-3,-4,-4,-2,0.0
3.88,-4,-21,-2,-7,-7,-3,0,-1,0.0
3.8850000000000002,-1,1,10,-1,1,1,-1,-1,0.0
3.89,0,-16,-3,12,-3,-1,-3,3,0.0
3.895,-1,-9,8,-6,-2,-4,-3,1,0.0
3.9,6,32,-5,4,-2,-1,-1,2,0.0
3.9050000000000002,-11,-8,13,4,3,0,-3,-5,0.0
3.91,5,-23,-29,-9,-1,-5,-4,-2,0.0
3.915,-11,5,6,1,-3,0,1,-1,0.0
3.92,0,19,4,-8,-4,-2,-2,-1,0.0
3.9250000000000003,4,-23,-9,1,-4,-3,0,0,0.0
3.93,1,11,12,0,1,-1,1,0,0.0
3.935,-1,3,12,-2,-3,-3,-3,-2,0.0
3.94,-6,-23,-28,4,0,0,-2,-2,0.0
3.9450000000000003,6,-12,-9,-9,2,-2,-3,1,0.0
3.95,-11,-7,8,-16,-2,0,1,-4,0.0
3.955,1,10,-1,-8,-5,-2,-1,1,0.0
3.96,-3,1,14,3,1,-2,-3,-4,0.0
3.9650000000000003,1,-12,-12,5,-1,-1,0,1,0.0
3.97,3,22,8,-1,0,0,0,-1,0.0
3.975,-2,-6,-9,4,4,2,-1,-4,0.0
3.98,2,6,21,13,-1,-1,0,1,0.0
3.985,-5,-19,-27,-11,-6,-2,-2,-4,0.0
3.99,1,6,11,-26,-6,-1,-1,0,0.0
3.995,0,5,12,9,-2,-4,-4,0,0.0
4.0,-9,-3,-11,-2,-3,-2,-2,-3,0.0
4.005,-7,81,-4,6,0,2,2,-1,0.0
4.01,-1,12,4,6,1,-2,-2,1,0.0
4.015,-2,-14,-7,6,1,-1,-3,-2,0.0
4.0200000000000005,6,6,12,-5,-5,-4,-2,0,0.0
4.025,-1,-17,-6,-2,-3,-5,-4,-3,0.0
4.03,-4,-17,-2,-5,0,-1,-1,-3,0.0
4.035,-5,-7,-6,-2,2,-3,1,-1,0.0
4.04,-3,-1,3,0,3,0,0,1,0.0
4.045,2,6,16,7,0,1,-2,-1,0.0
4.05,0,8,-11,16,2,0,-2,-3,0.0
4.055,-2,-8,-7,-19,-12,0,-2,-2,0.0
4.0600000000000005,-3,-4,-2,-7,-2,-2,-1,-1,0.0
4.065,-2,-7,12,6,2,2,1,-3,0.0
4.07,-1,-21,11,-3,-1,-2,0,-2,0.0
4.075,6,-1,-25,1,-1,-2,0,0,0.0
4.08,-5,-2,-8,-8,-2,2,0,-1,0.0
4.085,1,12,18,8,-4,-2,-3,1,0.0
4.09,4,33,-2,-3,-3,-2,1,0,0.0
4.095,1,24,1,0,-1,0,-1,1,0.0
4.1,-5,-15,-13,-5,-1,1,1,-1,0.0
4.105,0,-15,4,4,6,-1,0,0,0.0
4.11,-1,-9,13,2,-3,0,-1,-1,0.0
4.115,-6,-15,9,-1,-3,-1,-3,-2,0.0
4.12,2,6,-14,-9,-2,-2,-1,0,0.0
4.125,-4,-5,-5,-2,1,1,0,0,0.0
4.13,0,-14,-9,5,1,-4,-3,1,0.0
4.135,5,6,-6,-13,-6,-3,-2,1,0.0
4.14,-6,24,6,4,6,3,1,-2,0.0
4.1450000000000005,-4,-11,8,4,-4,-2,-1,-1,0.0
4.15,8,26,12,-3,-5,0,-1,0,0.0
4.155,-2,1,12,2,2,0,-1,-4,0.0
4.16,1,-4,9,-10,-6,-3,-4,0,0.0
4.165,0,0,-4,4,-2,-3,-1,-3,0.0
4.17,-3,5,-3,2,5,1,-2,-2,0.0
4.175,2,-9,10,14,-1,2,-1,0,0.0
4.18,-5,-16,-2,-12,0,-2,0,1,0.0
4.1850000000000005,-4,-10,-11,-2,-3,-2,-1,-3,0.0
4.19,-8,-18,-3,-27,-7,-1,-2,-2,0.0
4.195,1,-14,12,43,8,3,2,1,0.0
4.2,0,-10,-15,-35,-5,-5,-5,-4,0.0
4.205,-1,-8,4,-22,-7,-6,-4,-2,0.0
4.21,2,20,-12,6,2,1,2,1,0.0
4.215,-10,1,7,-30,-12,-4,-2,-2,0.0
4.22,0,13,28,24,5,3,0,1,0.0
4.225,0,-15,4,25,3,3,2,-1,0.0
4.23,-6,-9,-3,-12,0,-3,-2,-3,0.0
4.235,7,-12,1,23,10,0,-1,3,0.0
4.24,-6,-16,-20,7,-4,-2,-2,0,0.0
4.245,-1,-21,-7,-8,-4,-1,-1,1,0.0
4.25,3,-7,17,10,-4,-1,-1,0,0.0
4.255,-13,-46,-12,-45,-8,-3,0,-3,0.0
4.26,2,5,10,-1,-4,0,-1,-2,0.0
4.265,0,5,1,-7,-3,1,1,1,0.0
4.2700000000000005,1,-3,25,22,4,0,1,0,0.0
4.275,-7,8,-28,-33,5,-2,-5,-4,0.0
4.28,2,-4,10,11,-11,-5,-3,-1,0.0
4.285,-1,12,3,-3,1,-2,1,0,0.0
4.29,-3,-17,-13,-11,-3,-3,-4,-2,0.0
4.295,0,46,1,26,0,2,1,0,0.0
4.3,1,6,-8,-4,1,1,2,-2,0.0
4.305,-5,-3,7,-6,-5,-2,-4,-1,0.0
4.3100000000000005,-8,-13,-4,9,1,2,-1,-1,0.0
4.315,0,4,-3,-3,-3,-4,-3,1,0.0
4.32,9,6,-7,25,4,-2,-1,-3,0.0
4.325,2,26,-2,1,-2,-6,-2,0,0.0
4.33,-11,1,-19,-43,0,4,0,-3,0.0
4.335,-8,-9,15,17,-10,-1,-2,-1,0.0
4.34,-4,-4,8,1,1,-1,-1,-1,0.0
4.345,9,13,-8,3,5,1,-3,-1,0.0
4.3500000000000005,3,-6,-7,3,0,1,0,-1,0.0
4.355,3,-14,14,-1,-4,-2,-1,-3,0.0
4.36,-2,8,-5,-6,-3,-3,-3,-2,0.0
4.365,5,4,-8,-7,-3,-4,-3,0,0.0
4.37,-11,-27,-17,-1,0,0,-3,-2,0.0
4.375,6,13,26,5,1,1,1,-2,0.0
4.38,2,-14,-49,-13,-8,-3,-2,2,0.0
4.385,-5,-8,-8,-8,-3,-2,-1,-1,0.0
4.39,4,25,8,11,-4,-4,0,-1,0.0
4.3950000000000005,-2,-10,-5,9,7,0,0,0,0.0
4.4,-4,-7,-9,-22,-1,-1,-2,-1,0.0
4.405,0,14,-9,-6,1,-4,-4,-2,0.0
4.41,-12,-18,2,-6,-3,0,1,-5,0.0
4.415,5,10,-25,-8,1,-2,0,-1,0.0
4.42,0,5,16,7,4,2,0,-3,0.0
4.425,1,-12,-2,3,-5,-1,-2,-3,0.0
4.43,6,2,0,4,-3,-3,-2,3,0.0
4.4350000000000005,-5,6,-3,4,0,-1,-2,1,0.0
4.44,-24,-35,26,2,-2,-4,-5,-20,0.0
4.445,1,-19,-16,-14,-3,-1,-1,5,0.0
4.45,9,3,8,11,1,-1,-1,3,0.0
4.455,-6,-16,2,-7,-4,1,2,3,0.0
4.46,-3,3,-4,6,0,0,-2,-12,0.0
4.465,9,1,4,4,1,2,3,12,0.0
4.47,-17,31,3,-1,-2,-2,0,-5,0.0
4.4750000000000005,-3,-19,1,1,0,-2,-5,-6,0.0
4.48,4,10,3,-4,0,-1,-1,5,0.0
4.485,-4,10,3,-5,-3,1,1,-3,0.0
4.49,13,12,7,13,1,-2,-1,8,0.0
4.495,3,16,2,-4,-1,-2,-2,-1,0.0
4.5,0,-13,-13,-5,-3,0,0,1,0.0
4.505,-8,-2,5,-16,2,2,1,1,0.0
4.51,-2,-17,-29,-5,-5,-2,-4,-2,0.0
4.515,-4,11,6,0,-2,-2,-2,-5,0.0
4.5200000000000005,8,0,1,-3,0,-2,0,7,0.0
4.525,-2,3,7,21,5,-1,0,-4,0.0
4.53,-17,-28,2,-12,2,0,-1,-9,0.0
4.535,-6,-16,-22,1,0,0,-2,-1,0.0
4.54,13,16,14,4,-2,0,2,8,0.0
4.545,3,-12,20,4,-6,-5,-4,-5,0.0
4.55,1,-34,-38,-9,-5,-3,-2,2,0.0
4.555,-7,1,-8,-8,-3,-1,-2,2,0.0
4.5600000000000005,0,8,7,3,1,2,-1,1,0.0
4.565,-9,-8,-2,4,-2,-1,-1,-5,0.0
4.57,9,5,7,1,-1,-2,-1,0,0.0
4.575,5,8,-6,-5,-1,-3,0,1,0.0
4.58,-1,-5,7,1,0,0,0,-1,0.0
4.585,-8,-7,-5,-10,-1,0,-3,-3,0.0
4.59,1,19,10,5,1,0,1,3,0.0
4.595,-2,2,-1,-2,-1,-1,2,0,0.0
4.6000000000000005,-3,7,-2,3,3,0,-2,-1,0.0
4.605,2,-2,-2,-1,-1,-4,0,-3,0.0
4.61,-2,2,20,-1,-2,-2,-2,-4,0.0
4.615,-3,-5,16,6,1,-3,-4,-3,0.0
4.62,-12,-52,-17,-6,-3,2,0,-2,0.0
4.625,-4,-6,-10,10,3,2,-1,0,0.0
4.63,-1,-6,6,-6,-10,-2,-2,-2,0.0
4.635,-2,-16,22,4,-1,-3,-2,-3,0.0
4.64,2,23,-2,-9,-3,-4,-2,3,0.0
4.6450000000000005,-20,-32,23,8,1,2,0,-3,0.0
4.65,-1,14,12,3,-4,-4,-3,-3,0.0
4.655,-2,2,-1,6,1,1,0,-1,0.0
4.66,-3,-7,-5,-5,-1,-3,1,0,0.0
4.665,-3,-20,-5,-5,-4,-4,-4,0,0.0
4.67,-3,-49,-5,3,2,1,1,0,0.0
4.675,0,7,-6,-7,-5,-4,-3,2,0.0
4.68,0,12,12,10,0,-1,-2,-2,0.0
4.6850000000000005,1,12,-10,-3,-1,-1,0,-1,0.0
4.69,6,2,3,-4,0,-3,-4,4,0.0
4.695,-6,6,-13,-6,-5,-2,-2,-2,0.0
4.7,-13,-32,-4,6,4,2,2,-3,0.0
4.705,8,-23,-10,4,-2,-2,-2,0,0.0
4.71,-6,1,-15,-13,-2,0,0,-5,0.0
4.715,14,19,15,2,-1,-3,-1,11,0.0
4.72,3,26,7,6,3,-2,-2,0,0.0
4.7250000000000005,-9,-37,-26,-13,-9,-4,-4,-14,0.0
4.73,-3,-10,-44,-5,-3,0,2,0,0.0
4.735,-4,-26,-3,7,1,2,1,0,0.0
4.74,7,13,0,-2,-2,-3,1,3,0.0
4.745,23,30,8,-4,0,-3,-2,7,0.0
4.75,-17,21,-1,6,1,2,3,-5,0.0
4.755,2,-5,-13,-8,-5,-3,-6,-11,0.0
4.76,7,1,-2,3,1,1,-1,5,0.0
4.765,-4,19,-13,-6,-2,0,-1,1,0.0
4.7700000000000005,30,28,8,-4,1,-3,-2,12,0.0
4.775,-30,-14,6,19,6,4,4,-2,0.0
4.78,12,26,3,-13,-4,-6,-9,-28,0.0
4.785,-5,15,6,-4,-1,2,4,10,0.0
4.79,1,-24,35,6,-1,-6,-8,-10,0.0
4.795,-4,-14,-4,1,-1,-1,0,-6,0.0
4.8,15,-13,9,-3,-4,-1,0,31,0.0
4.805,1,47,16,4,-2,-1,-1,0,0.0
4.8100000000000005,1,11,-9,1,1,-4,-3,-10,0.0
4.815,-6,21,11,-3,0,2,-1,-4,0.0
4.82,-5,16,-10,-14,-3,-2,-4,-6,0.0
4.825,11,13,5,3,4,1,5,7,0.0
4.83,-9,0,18,7,1,3,0,5,0.0
4.835,10,-8,-28,-13,-3,-6,-3,-3,0.0
4.84,6,-78,-1,0,-2,-2,0,6,0.0
4.845,-20,38,-17,-4,0,1,4,-2,0.0
4.8500000000000005,-6,-2,-10,0,-4,-6,-14,-11,0.0
4.855,3,10,30,4,2,0,-1,2,0.0
4.86,-7,7,14,3,-6,0,-2,-3,0.0
4.865,-5,-13,9,0,0,-1,-2,-6,0.0
4.87,-2,-22,3,1,-3,-1,1,-1,0.0
4.875,13,39,-7,-8,2,-2,0,3,0.0
4.88,-14,15,2,11,-1,-2,-1,-3,0.0
4.885,-1,-13,2,-3,-2,0,0,-7,0.0
4.89,3,32,1,-5,-1,-1,1,3,0.0
4.8950000000000005,-11,-35,-10,-5,3,0,-3,-1,0.0
4.9,-9,3,-8,-1,-2,-1,1,-5,0.0
4.905,-6,-22,-7,-2,0,0,-4,-3,0.0
4.91,3,-9,-2,6,2,-1,1,4,0.0
4.915,-9,0,-9,-7,-4,-1,-3,-9,0.0
4.92,1,2,-5,3,-1,-2,-2,-3,0.0
4.925,3,-6,-1,11,1,1,-2,3,0.0
4.93,-16,-8,-3,-34,-6,-1,-1,1,0.0
4.9350000000000005,12,13,16,4,-2,-2,-1,-1,0.0
4.94,-3,55,0,-2,-2,-1,0,-3,0.0
4.945,-5,-10,-12,-7,-1,-1,-2,-4,0.0
4.95,1,27,18,17,6,4,4,-1,0.0
4.955,1,-13,-12,-6,-7,0,2,4,0.0
4.96,-3,-24,1,-2,1,-3,-3,-7,0.0
4.965,-1,-7,10,1,-2,-3,-2,3,0.0
4.97,-19,52,3,9,-2,-2,-2,-23,0.0
4.9750000000000005,9,31,-3,-17,-5,-3,-3,10,0.0
4.98,-5,10,27,9,1,0,-1,-3,0.0
4.985,-1,0,-27,-13,-6,-3,-1,-4,0.0
4.99,2,-1,0,-1,-4,0,0,2,0.0
4.995,-1,-5,4,6,-1,-2,-1,-3,0.0
5.0,13,1,0,-1,2,0,1,9,0.0
5.005,-18,-30,5,3,-1,0,-4,-7,0.0
5.01,4,-13,10,-1,0,-3,-1,2,0.0
5.015,-6,13,-26,3,0,1,-1,1,0.0
5.0200000000000005,1,-13,-15,-3,-4,-4,0,3,0.0
5.025,-4,-27,-39,-43,-9,-4,-2,-2,0.0
5.03,3,-12,36,11,1,-1,-1,-2,0.0
5.035,-14,-19,-3,1,-3,-3,-2,-2,0.0
5.04,-4,22,8,-11,1,0,-2,-2,0.0
5.045,1,18,11,8,0,0,1,0,0.0
5.05,2,-1,-7,1,-1,0,1,5,0.0
5.055,-13,-10,-3,5,0,0,-2,-15,0.0
5.0600000000000005,-4,-10,-5,-1,-2,-1,-2,-3,0.0
5.065,1,-17,20,15,0,0,-2,-1,0.0
5.07,0,-15,-23,-12,-4,-4,0,5,0.0
5.075,16,6,7,-5,-3,0,0,4,0.0
5.08,-6,31,-24,-5,-7,-3,0,-2,0.0
5.085,1,2,8,-45,-8,-6,-7,-17,0.0
5.09,7,0,-10,15,0,2,3,14,0.0
5.095,-15,-18,10,3,0,0,-4,-17,0.0
5.1000000000000005,-4,-34,1,3,0,0,-2,3,0.0
5.105,8,2,12,16,-3,-3,1,5,0.0
5.11,-3,-33,-16,0,-1,-2,1,-8,0.0
5.115,1,6,4,-11,-2,-1,-1,1,0.0
5.12,-3,-11,-2,-2,5,2,0,-3,0.0
5.125,-3,-21,5,26,4,5,1,0,0.0
5.13,-11,-14,-17,-7,-2,-1,-2,-5,0.0
5.135,8,2,-15,-2,0,-2,2,8,0.0
5.14,5,-6,2,-13,-4,-3,-1,-4,0.0
5.1450000000000005,1,11,8,8,2,-1,0,5,0.0
5.15,-4,3,-11,-21,-6,-3,-7,-8,0.0
5.155,-4,-7,21,25,6,2,-1,2,0.0
5.16,-7,6,-53,-76,-13,-4,0,-7,0.0
5.165,8,27,8,23,4,1,1,5,0.0
5.17,5,10,28,10,-3,-2,-1,-4,0.0
5.175,-3,15,8,17,1,3,2,1,0.0
5.18,1,-44,-11,-5,-7,-4,-5,-2,0.0
5.1850000000000005,-6,27,10,-6,-3,-2,-1,-9,0.0
5.19,-3,-1,-18,-9,2,-2,-1,11,0.0
5.195,7,-16,24,45,5,2,-1,2,0.0
5.2,-10,5,21,36,7,3,5,1,0.0
5.205,10,-16,-17,32,-5,2,-3,-3,0.0
5.21,-25,-50,-73,-88,-35,-17,-10,-14,0.0
5.215,0,3,9,29,-6,-2,-5,-9,0.0
5.22,6,7,24,61,4,2,1,6,0.0
5.2250000000000005,4,24,10,17,6,0,1,2,0.0
5.23,5,20,16,53,16,11,4,6,0.0
5.235,0,-12,-45,-47,-7,-5,-3,2,0.0
5.24,22,15,0,28,7,4,3,14,0.0
5.245,-33,-20,10,-35,-14,-10,-4,-19,0.0
5.25,10,5,32,24,0,0,0,2,0.0
5.255,-11,11,-9,6,4,1,3,-1,0.0
5.26,12,-6,14,-24,-5,-9,-8,3,0.0
5.265,-23,4,-14,27,9,8,7,0,0.0
5.2700000000000005,6,-22,-45,-98,-21,-9,-8,6,0.0
5.275,1,-4,7,23,-2,2,4,0,0.0
5.28,-16,8,-2,17,0,0,2,6,0.0
5.285,17,7,4,59,6,1,-2,12,0.0
5.29,-10,30,-13,-62,-4,0,0,-13,0.0
5.295,25,-22,2,-27,-1,-2,3,19,0.0
5.3,-22,-9,7,22,3,4,0,-23,0.0
5.305,3,-1,-5,5,0,-3,1,21,0.0
5.3100000000000005,-6,-23,-33,-18,-8,-6,-6,-16,0.0
5.315,22,6,-1,-4,-5,-4,-4,10,0.0
5.32,10,9,12,-1,-4,-1,1,3,0.0
5.325,-25,-42,4,-4,2,-2,-2,-3,0.0
5.33,-23,-13,24,78,11,1,-1,-17,0.0
5.335,-17,20,-13,-22,-6,-1,-1,-1,0.0
5.34,-3,-10,-3,-12,-3,-4,-2,-1,0.0
5.345,24,7,-2,-20,-8,-4,-7,-16,0.0
5.3500000000000005,-8,-27,17,34,14,9,7,7,0.0
5.355,-20,-31,-2,-13,-8,-5,-5,-15,0.0
5.36,5,6,8,4,1,-1,3,8,0.0
5.365,1,-15,0,-20,-3,-1,0,-1,0.0
5.37,0,1,16,44,-1,-3,-4,3,0.0
5.375,6,25,5,-20,-1,-2,-2,-6,0.0
5.38,-6,-1,-14,3,1,2,0,-1,0.0
5.385,0,-12,4,-24,-6,-7,-6,-5,0.0
5.39,1,6,-1,2,2,0,0,2,0.0
5.3950000000000005,11,12,6,11,6,1,0,11,0.0
5.4,-15,-3,16,24,1,1,1,-4,0.0
5.405,-25,4,-7,-13,-2,-1,0,-7,0.0
5.41,16,8,13,17,3,2,-1,-3,0.0
5.415,1,11,-17,-11,0,-6,-3,0,0.0
5.42,-23,-4,-17,-21,1,6,0,-13,0.0
5.425,22,10,-9,-1,-2,-1,-1,8,0.0
5.43,1,35,-1,4,-3,2,4,7,0.0
5.4350000000000005,2,-8,12,2,-3,-3,-1,1,0.0
5.44,-1,34,15,15,-4,-4,-1,-1,0.0
5.445,-9,-3,-21,-46,-8,-7,-6,-8,0.0
5.45,11,-1,21,8,2,0,2,7,0.0
5.455,-15,-17,-2,7,-2,0,-3,-29,0.0
5.46,10,10,-15,-13,-2,-3,-2,12,0.0
5.465,21,13,-1,20,3,3,6,21,0.0
5.47,-29,4,14,-3,-2,-4,-6,-20,0.0
5.4750000000000005,4,-4,7,2,-3,-2,-4,-13,0.0
5.48,-1,-10,-4,1,-2,0,2,2,0.0
5.485,-2,-4,-12,-10,-2,-4,-5,-6,0.0
5.49,7,0,7,3,4,0,-2,10,0.0
5.495,-7,3,17,10,-1,1,3,6,0.0
5.5,1,-19,-8,-21,-3,-2,-5,-9,0.0
5.505,8,0,-43,-15,-6,-1,3,7,0.0
5.51,-1,2,98,18,-1,-5,-4,-4,0.0
5.515,2,-4,-37,-11,1,-1,2,5,0.0
5.5200000000000005,-22,-9,2,-1,-4,-3,-6,-19,0.0
5.525,24,-3,-3,10,3,4,12,13,0.0
5.53,-17,-1,-33,-2,0,3,4,-1,0.0
5.535,-16,-10,4,0,-2,-3,-17,-7,0.0
5.54,45,7,9,20,3,0,3,19,0.0
5.545,-22,27,5,11,2,4,1,11,0.0
5.55,8,4,-15,-23,-6,-2,13,-15,0.0
5.555,3,-1,-18,-15,1,-1,-24,4,0.0
5.5600000000000005,-1,-6,-4,28,1,-1,14,1,0.0
5.565,5,2,13,-14,-8,-13,-5,7,0.0
5.57,14,23,12,21,8,6,-10,7,0.0
5.575,-22,-38,1,15,5,9,17,-8,0.0
5.58,-7,-29,-63,-98,-21,-17,-5,-6,0.0
5.585,-1,4,10,29,6,3,-19,-14,0.0
5.59,4,-6,14,-15,-9,-8,6,16,0.0
5.595,-29,-8,12,-1,-4,-1,-1,-38,0.0
5.6000000000000005,24,12,5,39,7,5,-2,22,0.0
5.605,-30,-20,-7,-5,-1,-1,6,-26,0.0
5.61,21,-4,-2,2,-1,-3,-12,-3,0.0
5.615,-34,-4,36,32,0,-3,-2,-11,0.0
5.62,-1,21,22,-19,-1,0,1,-1,0.0
5.625,5,23,26,8,1,4,-2,-5,0.0
5.63,-14,-34,-98,-83,-24,-10,-9,-2,0.0
5.635,32,20,10,14,2,-1,6,26,0.0
5.64,-25,-7,14,31,3,1,-4,-24,0.0
5.6450000000000005,3,-11,3,0,8,9,0,11,0.0
5.65,-7,-21,17,2,-1,0,-3,-15,0.0
5.655,-1,51,-32,-31,-7,-4,7,4,0.0
5.66,-3,-18,3,18,1,-3,-10,-7,0.0
5.665,4,-2,4,16,1,1,-2,-11,0.0
5.67,3,16,-4,15,10,5,7,11,0.0
5.675,12,-7,-21,-18,-2,0,1,6,0.0
5.68,15,2,60,80,10,3,-2,5,0.0
5.6850000000000005,-19,-33,-8,-9,-11,-8,-4,-9,0.0
5.69,-10,-30,-35,-53,-12,-12,-8,-6,0.0
5.695,1,-14,15,12,-6,-6,-2,-2,0.0
5.7,20,1,-34,-56,-3,0,2,15,0.0
5.705,3,11,21,30,6,2,6,6,0.0
5.71,-13,13,2,39,10,6,-3,-7,0.0
5.715,14,7,-4,21,4,5,3,11,0.0
5.72,-14,-2,-7,-8,0,-2,-7,-5,0.0
5.7250000000000005,0,6,22,-28,-8,-7,-6,-12,0.0
5.73,4,27,6,36,6,5,8,12,0.0
5.735,1,7,11,56,10,4,1,7,0.0
5.74,5,7,-4,-3,-8,-3,-2,2,0.0
5.745,-29,13,17,18,-1,-1,-1,-23,0.0
5.75,67,12,17,58,2,4,12,34,0.0
5.755,-58,-23,13,-77,-16,-12,-20,-45,0.0
5.76,-30,-1,-19,42,9,1,-3,-19,0.0
5.765,4,-14,-17,-61,-14,-9,-9,-7,0.0
5.7700000000000005,19,8,20,4,7,5,10,26,0.0
5.775,22,-5,-52,21,5,4,2,10,0.0
5.78,-2,-61,-16,-49,-7,-5,-6,1,0.0
5.785,8,11,16,68,9,2,4,13,0.0
5.79,-15,-16,-54,-76,-17,-10,-7,-23,0.0
5.795,-1,-45,-21,-25,-9,-8,0,10,0.0
5.8,-30,-9,7,14,1,2,-3,-16,0.0
5.805,12,-12,-17,11,1,1,4,21,0.0
5.8100000000000005,45,18,31,52,11,1,-3,-5,0.0
5.815,-37,15,13,9,2,4,1,-7,0.0
5.82,-2,1,-1,-6,-11,-7,-1,-8,0.0
5.825,3,16,2,-5,5,6,8,5,0.0
5.83,-23,6,29,73,3,1,2,0,0.0
5.835,20,-19,-53,-100,-24,-16,-8,2,0.0
5.84,2,17,21,19,1,-3,-32,-6,0.0
5.845,0,1,-7,-11,-3,-1,10,6,0.0
5.8500000000000005,-19,-14,4,18,4,4,7,-5,0.0
5.855,8,2,-3,-7,0,2,26,6,0.0
5.86,-4,9,-2,-12,-5,-4,-15,-9,0.0
5.865,8,-7,-22,20,0,-6,-49,-8,0.0
5.87,-5,27,7,-16,5,2,12,-5,0.0
5.875,5,47,35,49,5,4,0,12,0.0
5.88,10,10,33,33,-1,5,19,-3,0.0
5.885,-11,-50,-24,55,5,1,16,3,0.0
5.89,17,-34,-77,-96,-27,-14,-23,3,0.0
5.8950000000000005,-85,-19,22,10,-2,0,18,-18,0.0
5.9,13,12,15,42,7,2,-18,3,0.0
5.905,15,10,2,8,3,6,-3,12,0.0
5.91,9,23,29,33,8,1,-2,-11,0.0
5.915,17,-1,5,28,6,2,-1,4,0.0
5.92,6,-20,2,-17,-2,0,12,8,0.0
5.925,6,1,-32,-94,-12,-2,16,4,0.0
5.93,-28,23,36,18,0,-1,-30,-19,0.0
5.9350000000000005,35,-3,-21,-28,-1,1,13,11,0.0
5.94,-31,-7,4,-15,-7,-5,-10,-6,0.0
5.945,15,6,11,20,1,-3,-3,-2,0.0
5.95,-7,-7,-47,-63,-11,-1,9,5,0.0
5.955,-21,20,32,55,5,-1,-19,-10,0.0
5.96,-27,26,-15,-38,-3,-1,14,-3,0.0
5.965,10,2,9,3,2,-1,7,3,0.0
5.97,20,-19,39,59,3,5,24,5,0.0
5.9750000000000005,7,-24,-38,-62,-13,-10,-64,-11,0.0
5.98,-72,-31,-27,-8,-8,-7,1,-12,0.0
5.985,-17,-7,13,-5,-2,-3,-1,-7,0.0
5.99,-6,3,16,43,8,4,9,11,0.0
5.995,52,11,16,29,3,1,8,6,0.0
6.0,25,15,-6,-10,-2,0,4,2,0.0
6.005,-9,52,5,-7,-2,-2,-7,-4,0.0
6.01,1,1,-9,21,9,4,2,-2,0.0
6.015000000000001,10,-11,-11,22,2,3,5,9,0.0
6.0200000000000005,56,-13,-18,-68,-15,-5,-8,5,0.0
6.025,-106,-32,0,-1,-6,-8,2,-37,0.0
6.03,9,4,2,-13,0,-6,-8,4,0.0
6.035,-2,14,31,22,6,0,2,-10,0.0
6.04,22,0,-18,38,6,9,14,15,0.0
6.045,39,-18,-12,-44,-7,-2,-5,6,0.0
6.05,-34,-23,0,-15,-7,-2,-8,-2,0.0
6.055,7,8,36,18,-4,-4,-4,-18,0.0
6.0600000000000005,23,-4,-25,17,4,-1,4,1,0.0
6.065,0,12,7,4,1,-1,-1,-4,0.0
6.07,-21,-1,1,-3,-3,-2,-9,-4,0.0
6.075,19,0,-22,0,3,3,11,17,0.0
6.08,-3,-5,8,-17,-4,-4,4,0,0.0
6.085,12,1,1,27,1,0,-5,-9,0.0
6.09,14,1,-11,-19,-7,-2,-8,1,0.0
6.095,-43,-27,-7,-20,-6,-6,-17,-18,0.0
6.1000000000000005,-12,-17,7,-21,-8,-5,-11,-11,0.0
6.105,-18,-4,3,-35,-8,-2,5,3,0.0
6.11,34,7,1,16,3,1,4,2,0.0
6.115,-9,-1,3,19,4,7,8,10,0.0
6.12,29,23,-7,25,6,3,3,5,0.0
6.125,-64,-22,13,17,0,-5,-4,-8,0.0
6.13,-33,5,12,-5,-3,-7,-4,-16,0.0
6.135,22,-4,-17,-15,-3,0,6,9,0.0
6.140000000000001,13,-9,26,14,-1,3,5,9,0.0
6.1450000000000005,51,9,-22,-2,-1,5,2,28,0.0
6.15,-10,6,22,-14,-5,-5,-9,-17,0.0
6.155,-71,-23,-6,-6,-4,-7,-6,-30,0.0
6.16,6,-3,10,-5,0,0,2,9,0.0
6.165,3,-10,2,-7,-7,-6,-4,-10,0.0
6.17,-2,8,-9,12,-1,0,3,21,0.0
6.175,30,8,11,0,-1,2,4,6,0.0
6.18,-9,-3,1,-2,-4,-4,-4,-5,0.0
6.1850000000000005,9,-1,8,5,2,4,-2,3,0.0
6.19,-11,-35,2,9,-7,-3,-5,-4,0.0
6.195,12,8,13,-9,-2,-2,3,7,0.0
6.2,-23,-19,-12,-1,3,0,0,-7,0.0
6.205,5,24,-1,3,3,-1,0,-6,0.0
6.21,-12,-12,-19,-1,-1,1,-9,-5,0.0
6.215,20,15,-7,5,0,-1,3,9,0.0
6.22,0,38,-25,-14,1,-1,0,-6,0.0
6.2250000000000005,-5,5,4,4,0,0,3,-5,0.0
6.23,3,-36,-25,-17,-8,-6,-4,-10,0.0
6.235,40,4,16,4,2,2,6,29,0.0
6.24,-61,-27,-26,-6,-2,2,-1,-24,0.0
6.245,21,-20,-11,-9,-7,-5,-8,-13,0.0
6.25,-4,-3,-29,-7,2,2,1,9,0.0
6.255,4,5,21,18,-4,-5,4,-2,0.0
6.26,16,-6,-9,-22,2,2,-4,12,0.0
6.265000000000001,4,12,-12,5,-2,-1,3,15,0.0
6.2700000000000005,-26,14,8,17,4,3,0,-16,0.0
6.275,26,-3,-30,-35,-7,-3,-3,11,0.0
6.28,-29,-17,49,22,-2,-4,0,-6,0.0
6.285,-4,-15,-40,-2,11,9,3,-1,0.0
6.29,13,-14,-5,-13,-8,-5,-3,6,0.0
6.295,-11,3,-7,35,8,4,6,-3,0.0
6.3,33,-1,-19,-30,-6,-5,-4,7,0.0
6.305,-45,-13,-15,-35,-9,-4,2,8,0.0
6.3100000000000005,-12,21,14,17,-7,-8,-8,-32,0.0
6.315,4,-4,21,2,2,-2,-4,-3,0.0
6.32,7,9,8,30,5,2,3,9,0.0
6.325,46,11,-28,24,2,2,0,16,0.0
6.33,3,30,69,1,1,-3,3,4,0.0
6.335,-33,1,-22,31,7,-1,3,-15,0.0
6.34,5,-14,-10,-13,-14,-7,-23,-6,0.0
6.345,-15,-5,42,-62,-14,-11,-5,-23,0.0
6.3500000000000005,-9,2,-17,0,4,2,4,13,0.0
6.355,-2,-23,-5,6,-3,-3,-1,-8,0.0
6.36,8,22,1,47,16,8,14,25,0.0
6.365,-14,-19,-4,28,-1,-2,-8,-32,0.0
6.37,7,-54,2,35,2,2,1,7,0.0
6.375,-5,-26,-21,-93,-12,-3,-8,2,0.0
6.38,-25,-3,16,-29,-4,-1,-1,-10,0.0
6.385,5,8,17,37,-2,-5,-1,11,0.0
6.390000000000001,8,-4,-38,-50,0,-2,1,-1,0.0
6.3950000000000005,-3,-4,18,25,6,2,-2,-2,0.0
6.4,-1,21,-3,-8,-1,-2,1,-4,0.0
6.405,7,4,10,2,-1,0,0,5,0.0
6.41,4,24,-13,26,5,3,2,2,0.0
6.415,-3,-21,-15,-25,-1,1,-3,-2,0.0
6.42,-6,5,-9,-17,-16,-9,-4,-10,0.0
6.425,11,12,-8,15,8,3,1,6,0.0
6.43,-4,-11,21,-12,-7,-6,-3,-5,0.0
6.4350000000000005,-10,16,-1,-16,-4,-4,-4,-3,0.0
6.44,7,4,23,26,11,3,5,1,0.0
6.445,3,-8,-27,-1,-1,0,-1,0,0.0
6.45,-5,8,-7,-11,-2,-1,-3,1,0.0
6.455,1,-2,12,-17,-7,-3,0,-5,0.0
6.46,-2,-19,-29,1,0,0,1,-1,0.0
6.465,0,20,12,-5,-2,-1,-3,2,0.0
6.47,-4,-2,29,-10,0,1,-1,3,0.0
6.4750000000000005,2,28,-40,31,3,4,-3,1,0.0
6.48,14,-4,-8,4,-1,-2,2,1,0.0
6.485,-11,-76,65,-32,-10,-9,-10,-22,0.0
6.49,8,-23,-20,-1,-2,1,7,32,0.0
6.495,-12,-49,-17,40,-4,1,0,-14,0.0
6.5,7,31,-8,-28,2,2,2,3,0.0
6.505,16,82,18,16,1,3,1,8,0.0
6.51,11,10,29,4,0,-6,-6,-10,0.0
6.515000000000001,25,26,-5,-5,0,-1,7,16,0.0
6.5200000000000005,-42,19,-16,2,-2,-4,-4,-14,0.0
6.525,-4,5,-26,11,1,0,-2,-15,0.0
6.53,0,21,6,-11,-3,0,-2,0,0.0
6.535,28,27,24,-2,-3,-3,4,29,0.0
6.54,-10,-7,-14,-10,-2,-1,1,-14,0.0
6.545,-12,-6,-1,-3,0,-4,-20,0,0.0
6.55,-9,-1,-9,-4,-2,-1,10,-8,0.0
6.555,-8,-22,12,-2,-1,-2,-13,-2,0.0
6.5600000000000005,11,-49,5,15,-3,-6,-9,13,0.0
6.565,2,-6,-22,-5,-3,-2,5,5,0.0
6.57,-25,-84,-60,4,7,12,10,6,0.0
6.575,5,106,95,7,-4,-6,-3,-13,0.0
6.58,-7,-76,-11,-41,-13,-3,-1,4,0.0
6.585,-7,-22,-16,-18,-2,-9,-6,-25,0.0
6.59,-13,-27,-51,19,4,5,3,-10,0.0
6.595,-12,-66,-55,15,0,0,1,3,0.0
6.6000000000000005,9,10,1,-13,-1,2,0,5,0.0
6.605,22,37,38,13,1,-2,0,7,0.0
6.61,3,-12,5,-18,-8,-4,-4,-2,0.0
6.615,-11,-4,15,0,5,1,-3,-12,0.0
6.62,12,-2,-15,15,3,-1,3,-1,0.0
6.625,-15,-33,-15,-1,-1,2,7,13,0.0
6.63,2,36,32,-1,-1,-7,-8,-8,0.0
6.635,-21,-32,-9,-5,-1,0,1,-8,0.0
6.640000000000001,16,7,-5,7,0,-1,-1,4,0.0
6.6450000000000005,-19,-52,-27,-3,1,3,4,-5,0.0
6.65,0,6,-3,-2,-6,-2,-5,-2,0.0
6.655,0,-14,27,-11,0,-2,-4,-3,0.0
6.66,-9,10,4,10,1,2,2,-6,0.0
6.665,8,10,-3,-1,-1,3,4,3,0.0
6.67,9,-9,-5,-9,-1,3,1,12,0.0
6.675,-25,-15,-2,-5,-7,-7,-4,-13,0.0
6.68,4,58,17,0,0,-1,-4,-4,0.0
6.6850000000000005,5,-19,22,-3,-2,-1,1,8,0.0
6.69,-3,28,-4,-1,0,-3,-4,-5,0.0
6.695,6,36,22,3,2,0,1,7,0.0
6.7,-9,-1,9,9,0,1,1,-8,0.0
6.705,6,9,-5,-7,-3,-2,-2,0,0.0
6.71,2,15,47,8,1,-2,-2,-1,0.0
6.715,-7,-24,-69,-17,-6,-3,-5,-5,0.0
6.72,0,16,43,15,2,-2,-1,-3,0.0
6.7250000000000005,0,3,-9,2,3,2,5,1,0.0
6.73,-24,-20,10,0,-3,-4,-3,-4,0.0
6.735,9,2,-4,-3,-4,-2,-4,-7,0.0
6.74,-9,-38,10,3,4,3,1,-2,0.0
6.745,1,17,18,2,-2,-1,0,-1,0.0
6.75,14,32,-1,2,1,-2,-4,-1,0.0
6.755,18,-37,-2,-6,-3,-1,2,13,0.0
6.76,-50,8,-23,-10,-3,-5,-3,-32,0.0
6.765000000000001,7,-34,13,1,-8,-4,-2,0,0.0
6.7700000000000005,21,20,17,3,2,1,1,24,0.0
6.775,-40,-23,12,-2,-7,-6,-9,-41,0.0
6.78,30,2,7,-1,-5,-4,-1,20,0.0
6.785,1,-24,11,5,4,1,0,0,0.0
6.79,-17,-6,-13,-8,-7,-5,-6,1,0.0
6.795,26,40,8,1,1,1,5,19,0.0
6.8,-28,-70,12,1,5,3,0,-7,0.0
6.805,-12,7,-19,-2,-1,0,-1,2,0.0
6.8100000000000005,25,1,-2,-2,-1,-4,-3,-8,0.0
6.815,-5,-26,6,-1,-3,3,1,4,0.0
6.82,19,34,-7,1,0,-4,-4,3,0.0
6.825,-14,-31,0,1,-3,-1,-3,-3,0.0
6.83,12,-15,-52,-10,-2,0,0,-10,0.0
6.835,-52,27,27,4,3,0,-2,2,0.0
6.84,19,15,30,-1,-2,-4,-4,-2,0.0
6.845,1,25,-45,3,2,2,3,-1,0.0
6.8500000000000005,-5,33,45,5,-3,1,0,-3,0.0
6.855,19,8,-60,-16,-4,-3,-1,10,0.0
6.86,20,0,4,5,3,4,6,27,0.0
6.865,-19,48,11,2,-3,-5,-8,-31,0.0
6.87,-10,11,31,5,0,-1,2,-4,0.0
6.875,10,-9,-27,-8,-2,-1,2,4,0.0
6.88,-22,10,15,-5,-5,-2,-5,-8,0.0
6.885,13,-11,10,-2,-4,0,3,13,0.0
6.890000000000001,-6,-32,-16,-1,-3,-2,-2,-6,0.0
6.8950000000000005,-3,6,14,0,1,2,-3,-4,0.0
6.9,3,-50,-16,-2,1,3,3,6,0.0
6.905,-10,23,26,1,0,-3,-5,-10,0.0
6.91,-6,7,-9,-1,-4,-1,2,17,0.0
6.915,-6,16,-29,-6,-5,-6,-7,-38,0.0
6.92,21,28,-7,-2,-3,-2,4,5,0.0
6.925,-21,-24,19,-3,-5,-4,-8,-11,0.0
6.93,6,8,10,1,2,-1,-4,0,0.0
6.9350000000000005,12,27,26,6,0,-2,1,8,0.0
6.94,-5,-54,-26,1,-3,1,0,2,0.0
6.945,-5,5,9,-1,0,0,3,-2,0.0
6.95,-15,-2,-55,-4,-4,-3,-3,-10,0.0
6.955,13,11,22,3,2,1,0,6,0.0
6.96,-5,12,-6,-17,-2,-5,-3,-10,0.0
6.965,15,53,-25,-2,5,5,6,16,0.0
6.97,-23,-50,-30,-8,-7,-4,-5,-7,0.0
6.9750000000000005,10,7,20,8,7,2,3,8,0.0
6.98,-9,19,-19,1,-8,-4,-3,3,0.0
6.985,3,0,20,8,0,0,-2,-14,0.0
6.99,8,15,7,3,5,2,2,1,0.0
6.995,-9,-17,-21,-14,-10,-8,-7,-10,0.0
7.0,-8,-48,-10,2,3,1,1,8,0.0
7.005,-8,-19,-11,7,2,-2,-5,-21,0.0
7.01,9,23,7,-6,2,-1,1,-1,0.0
7.015000000000001,-4,9,8,-9,0,-2,0,6,0.0
7.0200000000000005,-4,40,-44,7,-4,-4,-6,-8,0.0
7.025,5,-15,-35,-40,-7,-4,2,12,0.0
7.03,-11,-6,-2,7,0,-2,-4,-18,0.0
7.035,-4,0,12,1,2,1,2,4,0.0
7.04,31,22,14,-4,0,-1,0,3,0.0
7.045,-43,4,9,11,-1,-5,-5,-5,0.0
7.05,12,49,-30,-3,5,5,4,7,0.0
7.055,-21,-34,-20,-1,-4,0,-2,-5,0.0
7.0600000000000005,15,-7,0,-1,-1,-1,1,12,0.0
7.065,9,53,29,-3,0,0,-1,10,0.0
7.07,-12,-79,2,-1,-7,-2,-7,-15,0.0
7.075,-3,9,16,11,5,3,1,1,0.0
7.08,-6,-6,-22,1,-4,-1,1,-7,0.0
7.085,22,14,29,-4,-1,-1,1,20,0.0
7.09,-4,18,-7,-1,-3,-5,-1,0,0.0
7.095,8,-33,-19,1,1,2,2,-2,0.0
7.1000000000000005,-13,0,26,0,-1,-4,-6,-4,0.0
7.105,1,-24,-5,0,-2,0,-3,-24,0.0
7.11,1,-4,8,-2,-2,-1,-2,3,0.0
7.115,7,-5,6,1,-3,-1,1,3,0.0
7.12,-12,14,19,8,3,1,1,0,0.0
7.125,-1,-46,-20,-14,-3,-1,-3,10,0.0
7.13,12,13,28,15,3,-2,0,1,0.0
7.135,-19,-36,-36,-16,0,0,-4,-12,0.0
7.140000000000001,2,-27,-11,-35,-14,-5,-2,2,0.0
7.1450000000000005,-19,-15,-13,4,2,4,2,0,0.0
7.15,35,5,19,4,0,-1,1,9,0.0
7.155,-36,17,11,6,1,-1,-3,0,0.0
7.16,6,7,20,15,7,0,-1,-5,0.0
7.165,-4,-59,-17,17,-2,1,-1,7,0.0
7.17,-6,4,16,-17,-4,-2,0,0,0.0
7.175,-2,15,-21,-11,-5,-5,-6,-23,0.0
7.18,-1,5,6,12,4,1,2,2,0.0
7.1850000000000005,19,26,6,0,-4,-6,-4,6,0.0
7.19,-13,-3,22,20,8,3,3,-1,0.0
7.195,23,16,13,1,-5,-2,-1,10,0.0
7.2,-18,-1,1,-8,-4,-3,-6,-23,0.0
7.205,13,2,-15,1,2,1,2,6,0.0
7.21,-12,-2,5,5,-1,-3,-3,-7,0.0
7.215,11,19,5,-11,-1,-2,2,3,0.0
7.22,4,1,-2,-7,-3,-3,-7,4,0.0
7.2250000000000005,-5,45,-3,19,5,7,11,9,0.0
7.23,-6,-13,0,-1,-2,-3,-6,-22,0.0
7.235,-15,-1,0,-15,-9,-8,-14,-5,0.0
7.24,19,18,22,14,5,0,2,5,0.0
7.245,-7,-25,17,-17,-9,-9,-10,-8,0.0
7.25,-7,-43,-23,0,0,1,7,11,0.0
7.255,4,-7,9,31,3,1,4,-6,0.0
7.26,-7,-5,3,-10,1,4,11,9,0.0
7.265000000000001,7,-13,6,-10,-1,1,-12,-8,0.0
7.2700000000000005,6,-27,-9,-14,-9,-7,-5,13,0.0
7.275,4,-7,3,5,-1,2,0,4,0.0
7.28,-8,1,-2,1,-1,-4,-3,1,0.0
7.285,-1,-16,-11,11,3,1,9,2,0.0
7.29,-16,39,8,-19,-3,1,-2,-5,0.0
7.295,3,0,-18,0,2,0,-2,8,0.0
7.3,1,-11,-3,7,-3,-3,1,-7,0.0
7.305,-17,-21,-21,-6,0,0,1,1,0.0
7.3100000000000005,2,-11,7,9,-4,-3,-11,-13,0.0
7.315,4,-5,3,-6,0,-1,5,7,0.0
7.32,-10,7,8,20,1,1,-5,-9,0.0
7.325,13,13,8,-6,-7,-6,-4,0,0.0
7.33,-3,11,-9,-34,-7,-3,-2,0,0.0
7.335,1,14,-24,-11,2,4,6,-1,0.0
7.34,0,33,20,4,-3,-4,-6,-5,0.0
7.345,0,58,-15,10,0,0,1,-2,0.0
7.3500000000000005,-12,-40,9,31,2,3,4,2,0.0
7.355,13,7,-10,-4,-2,-3,-1,5,0.0
7.36,-12,12,-6,-13,-3,-2,-4,-10,0.0
7.365,1,3,14,7,-2,-3,0,2,0.0
7.37,-1,5,-7,-6,1,1,0,-5,0.0
7.375,9,7,7,6,1,0,0,-1,0.0
7.38,-10,1,-5,-22,-3,1,-1,3,0.0
7.385,3,-40,6,-13,-2,-2,1,0,0.0
7.390000000000001,2,25,-17,-7,0,0,0,-1,0.0
7.3950000000000005,2,-2,24,11,-2,-1,-1,4,0.0
7.4,-8,-22,12,9,-2,0,-1,-8,0.0
7.405,1,2,-33,-16,-5,-2,-2,-3,0.0
7.41,4,2,1,-1,-3,-4,-2,6,0.0
7.415,-16,11,17,2,2,0,-3,-27,0.0
7.42,11,29,-8,-1,-3,0,0,3,0.0
7.425,3,8,-4,-8,-1,-5,-6,0,0.0
7.43,-2,-12,3,0,-4,1,-1,6,0.0
7.4350000000000005,-2,-5,-21,-2,-2,-1,2,5,0.0
7.44,-3,-16,-1,-5,-1,2,0,-2,0.0
7.445,4,-9,6,3,-1,-1,-1,-4,0.0
7.45,4,13,-2,1,1,-1,1,-2,0.0
7.455,-4,2,11,-3,1,1,-2,1,0.0
7.46,11,46,-7,2,2,0,2,7,0.0
7.465,-32,-34,8,-2,-4,-5,-12,-24,0.0
7.47,5,-20,2,2,0,1,0,7,0.0
7.4750000000000005,-5,16,10,14,-2,-2,-2,-10,0.0
7.48,2,-8,-17,-32,-5,-3,-3,-3,0.0
7.485,4,11,1,-25,-5,-2,0,4,0.0
7.49,-9,-10,4,-1,6,0,0,1,0.0
7.495,-6,-22,-6,0,-6,-4,-2,4,0.0
7.5,2,-22,-10,13,6,2,0,1,0.0
7.505,10,24,11,9,0,1,0,0,0.0
7.51,-8,1,-7,-8,-3,0,0,-8,0.0
7.515000000000001,6,-17,-8,1,-1,-3,1,9,0.0
7.5200000000000005,-3,-14,3,2,-2,-2,-3,-6,0.0
7.525,14,-8,1,1,2,2,4,23,0.0
7.53,-29,-11,-7,-3,-5,-6,-10,-28,0.0
7.535,8,-1,-21,-5,3,-1,0,5,0.0
7.54,-11,-14,9,-1,-5,-3,-3,-2,0.0
7.545,10,15,9,2,0,0,2,5,0.0
7.55,-5,-11,-3,2,1,0,1,2,0.0
7.555,-8,5,10,-6,-2,-1,-2,-2,0.0
7.5600000000000005,7,12,1,2,-1,-1,-4,-4,0.0
7.565,-2,22,0,0,-1,1,2,1,0.0
7.57,-7,-14,-21,-5,-3,-2,-1,0,0.0
7.575,1,-73,-1,-9,4,0,-2,-2,0.0
7.58,-12,9,31,9,-5,-1,0,-1,0.0
7.585,3,17,7,2,-2,-2,-2,-6,0.0
7.59,1,4,-16,3,-2,-3,-2,0,0.0
7.595,9,15,10,-5,2,0,-2,3,0.0
7.6000000000000005,-4,-2,-17,-3,-4,-4,0,-4,0.0
7.605,-9,-12,-2,0,3,2,1,-4,0.0
7.61,11,3,-5,-6,-2,-1,1,4,0.0
7.615,-11,20,13,2,-2,-2,-2,0,0.0
7.62,-3,-6,-13,-7,-3,-4,-8,-7,0.0
7.625,-2,13,-2,1,-1,-1,-1,-3,0.0
7.63,2,-10,21,0,1,1,-3,-4,0.0
7.635,4,23,-9,-7,-4,-2,1,6,0.0
7.640000000000001,-9,-23,1,3,-1,1,2,-2,0.0
7.6450000000000005,1,-16,10,3,0,-1,-3,0,0.0
7.65,5,-3,-38,-9,-5,-3,-1,1,0.0
7.655,-13,-12,10,2,-5,-3,0,-8,0.0
7.66,6,2,0,-2,-1,-2,0,8,0.0
7.665,-14,-11,-4,-3,-2,-1,-3,-28,0.0
7.67,4,12,12,4,1,-3,-1,3,0.0
7.675,2,37,5,-3,-1,-2,-2,-3,0.0
7.68,2,-3,-12,-4,0,0,0,0,0.0
7.6850000000000005,1,-5,6,3,-2,-2,-1,6,0.0
7.69,-5,22,18,-2,-1,2,-1,-3,0.0
7.695,5,0,-2,-4,-2,-3,-3,-2,0.0
7.7,-17,22,-6,0,4,4,4,-5,0.0
7.705,15,-7,1,3,-3,-3,0,13,0.0
7.71,-24,3,-13,-10,-4,-3,-7,-27,0.0
7.715,10,-17,3,20,0,1,2,17,0.0
7.72,-6,-19,10,-20,-3,-6,-4,-6,0.0
7.7250000000000005,-16,17,-29,-7,6,6,5,-2,0.0
7.73,6,14,-1,-1,-3,1,2,9,0.0
7.735,-1,3,-3,-2,-4,-3,-1,-2,0.0
7.74,1,-9,-7,17,-2,-5,-5,-7,0.0
7.745,1,-18,12,5,2,2,1,1,0.0
7.75,8,-4,9,-4,-1,-2,-1,3,0.0
7.755,-3,6,-2,7,3,3,-1,1,0.0
7.76,2,2,-9,-22,-7,-3,-2,-2,0.0
7.765000000000001,-5,-23,-1,-8,-3,-4,-2,1,0.0
7.7700000000000005,2,9,-3,5,3,2,2,1,0.0
7.775,-3,-16,0,7,0,-1,0,-4,0.0
7.78,2,6,2,33,7,5,2,7,0.0
7.785,16,10,19,20,1,0,1,6,0.0
7.79,-17,1,-14,-27,-8,-4,-6,-5,0.0
7.795,-5,-25,-7,-24,-7,-5,-4,-12,0.0
7.8,2,-5,-7,-61,-13,-5,1,2,0.0
7.805000000000001,11,-5,20,7,4,2,-1,5,0.0
7.8100000000000005,7,40,34,27,3,-1,0,-11,0.0
7.815,2,-12,-4,18,3,1,1,6,0.0
7.82,11,12,-8,4,4,-2,-5,-10,0.0
7.825,-20,10,20,4,-3,-1,-2,-7,0.0
7.83,5,-1,-6,-14,-2,-1,0,10,0.0
7.835,-3,-9,2,-2,3,-1,0,-5,0.0
7.84,1,23,-2,5,-3,0,1,-1,0.0
7.845,-6,-24,-14,-6,-2,-3,-1,3,0.0
7.8500000000000005,0,-8,3,4,3,1,1,0,0.0
7.855,-6,1,-1,-5,-1,0,-2,-4,0.0
7.86,-2,-28,21,17,3,1,1,1,0.0
7.865,12,5,-16,-7,-5,-2,-3,6,0.0
7.87,-13,-8,-1,-8,0,0,3,9,0.0
7.875,22,9,-3,-4,-5,-2,-2,-3,0.0
7.88,-31,-21,-5,5,-2,-1,-2,-14,0.0
7.885,1,-11,-11,-12,-4,-4,-6,-5,0.0
7.890000000000001,13,-2,5,11,4,2,3,8,0.0
7.8950000000000005,-1,27,-1,-5,-3,-1,1,9,0.0
7.9,3,-4,-17,-1,2,0,-1,3,0.0
7.905,-2,-69,10,16,1,-1,3,-2,0.0
7.91,-6,-9,6,-9,-10,-6,-6,0,0.0
7.915,-3,-19,-23,-45,-5,0,-4,-6,0.0
7.92,-7,-15,-17,-13,-1,2,2,0,0.0
7.925,-3,26,32,12,-1,-3,-2,-5,0.0
7.930000000000001,10,-3,-5,24,5,1,1,-1,0.0
7.9350000000000005,-10,14,13,-7,-3,-3,-1,-7,0.0
7.94,15,-11,8,10,2,-1,-2,8,0.0
7.945,-29,0,-17,-11,0,2,-1,-7,0.0
7.95,5,-1,2,10,-2,-2,-7,-8,0.0
7.955,0,23,15,3,-2,1,1,2,0.0
7.96,11,19,-13,-1,4,2,2,14,0.0
7.965,-19,-43,0,16,0,-4,-10,-40,0.0
7.97,-2,6,-29,-76,-11,-6,-1,0,0.0
7.9750000000000005,-6,-3,11,25,0,-2,-3,0,0.0
7.98,14,-25,5,-8,-3,-2,0,0,0.0
7.985,11,22,2,1,-1,-2,3,19,0.0
7.99,-6,-29,14,23,4,2,5,9,0.0
7.995,-10,-31,-4,9,-2,-2,-10,-29,0.0
8.0,-10,5,-2,-4,1,1,1,3,0.0
8.005,-1,12,-14,-19,-9,-4,-3,-1,0.0
8.01,22,6,15,21,2,4,1,13,0.0
8.015,-26,0,-1,-5,3,0,3,4,0.0
8.02,18,-9,-4,-8,-7,-6,-2,-5,0.0
8.025,-1,4,-5,-5,1,3,2,3,0.0
8.03,-10,-46,-45,-9,-2,0,-3,-7,0.0
8.035,11,0,25,11,1,3,3,8,0.0
8.040000000000001,-6,21,18,14,-3,-4,-4,-5,0.0
8.045,-12,-3,-25,-12,4,5,3,2,0.0
8.05,-1,-11,10,11,-5,-3,-3,-1,0.0
8.055,13,13,-11,-13,-2,-1,2,10,0.0
8.06,-24,-17,-11,-22,-3,-2,-6,-18,0.0
8.065,-6,-21,8,-1,-1,-2,2,1,0.0
8.07,3,5,16,10,-1,-5,-5,-11,0.0
8.075,3,-46,12,9,3,1,2,6,0.0
8.08,-9,4,-10,12,-3,0,-3,-6,0.0
8.085,17,-10,6,-3,-3,-2,1,20,0.0
8.09,-17,18,-3,-4,-4,-3,-3,-18,0.0
8.095,2,-45,-24,-9,-5,-1,-3,-1,0.0
8.1,2,6,1,-9,-1,-4,-2,2,0.0
8.105,-1,28,-17,-2,0,1,-2,-8,0.0
8.11,-5,13,18,2,0,2,3,6,0.0
8.115,4,27,2,1,1,-1,1,1,0.0
8.120000000000001,3,1,-22,28,-1,3,3,0,0.0
8.125,0,0,-18,-14,-2,0,-4,3,0.0
8.13,-4,-2,-9,-48,-8,-5,-5,-3,0.0
8.135,-4,-4,11,5,1,0,0,-4,0.0
8.14,-2,0,15,-1,0,-1,1,5,0.0
8.145,-4,-28,4,14,1,-6,-3,-8,0.0
8.15,-2,28,-5,12,5,3,1,4,0.0
8.155,-2,15,-13,-3,-5,-6,-3,-4,0.0
8.16,0,-2,7,4,5,2,1,4,0.0
8.165000000000001,-2,-3,14,-2,-4,-3,-4,-3,0.0
8.17,0,5,15,6,-2,-4,0,-5,0.0
8.175,-3,-27,-26,0,4,1,-1,3,0.0
8.18,-8,0,16,10,0,0,-2,-4,0.0
8.185,3,22,-29,-36,-12,-5,-4,-3,0.0
8.19,4,27,0,4,3,0,-2,-1,0.0
8.195,-9,-16,-1,9,-1,-1,0,1,0.0
8.2,0,-13,13,12,-3,0,1,2,0.0
8.205,1,4,-25,-17,-2,-3,-2,-3,0.0
8.21,1,-15,33,16,2,-2,0,0,0.0
8.215,-4,1,-15,-33,-9,-8,-5,-8,0.0
8.22,-2,2,9,4,6,1,3,0,0.0
8.225,1,-22,-19,13,-2,2,2,3,0.0
8.23,4,17,-9,1,-1,0,-1,4,0.0
8.235,4,37,4,24,6,2,0,-1,0.0
8.24,-12,-10,-23,-18,-5,-2,-4,0,0.0
8.245000000000001,-3,-1,25,5,-2,-2,-1,-1,0.0
8.25,2,-15,-36,-2,1,4,2,3,0.0
8.255,3,13,32,8,-4,-6,-4,-4,0.0
8.26,-1,38,62,36,4,-2,-1,-1,0.0
8.265,-5,-4,-53,-83,-21,-13,-8,-12,0.0
8.27,0,-8,-1,19,2,5,4,8,0.0
8.275,-4,9,-9,0,-3,-2,-1,3,0.0
8.28,0,-12,-10,-7,2,0,0,4,0.0
8.285,-2,26,29,45,7,1,1,1,0.0
8.290000000000001,-7,-26,-14,-29,-5,-2,-4,-7,0.0
8.295,0,-27,-15,-16,-2,-1,0,-1,0.0
8.3,0,9,25,20,-1,-3,-4,-2,0.0
8.305,2,14,-11,-1,2,2,-1,-1,0.0
8.31,15,10,-10,-12,-7,-6,2,3,0.0
8.315,-19,-47,22,-1,-1,0,2,-11,0.0
8.32,3,31,-7,-2,-1,0,-7,-1,0.0
8.325,-2,15,2,5,-2,-2,-12,-14,0.0
8.33,3,-2,19,19,0,-3,-2,2,0.0
8.335,3,-3,4,-12,-1,0,2,4,0.0
8.34,-5,-23,0,-17,-4,1,4,-4,0.0
8.345,26,4,-22,-31,-4,-1,3,23,0.0
8.35,-36,-4,24,2,-5,-1,-4,-36,0.0
8.355,16,23,4,19,2,-2,-1,3,0.0
8.36,-4,-11,-16,-20,-3,-3,2,1,0.0
8.365,-2,7,3,17,7,2,2,3,0.0
8.370000000000001,-3,-10,-5,5,5,3,2,5,0.0
8.375,1,30,-6,-5,0,3,-1,1,0.0
8.38,2,5,1,-4,-8,-7,-3,-5,0.0
8.385,-1,-3,8,24,2,-2,1,4,0.0
8.39,-8,-48,-4,-9,4,7,3,4,0.0
8.395,-8,4,-36,-14,-8,-3,-3,-5,0.0
8.4,-2,-6,-3,15,3,1,1,4,0.0
8.405,-6,-5,13,5,-1,0,-2,-5,0.0
8.41,12,15,11,12,-2,-4,-2,0,0.0
8.415000000000001,-5,41,-18,-13,0,-1,-5,-1,0.0
8.42,-1,-4,-1,-16,-5,-4,-3,-4,0.0
8.425,-14,-5,12,18,-5,-1,0,-9,0.0
8.43,-8,0,7,-2,3,-2,1,-4,0.0
8.435,6,-12,5,8,-3,-1,-5,3,0.0
8.44,11,6,-20,-42,-7,-1,-2,2,0.0
8.445,26,23,11,34,3,1,5,13,0.0
8.45,-29,9,-2,-21,-4,-5,-5,-10,0.0
8.455,11,16,30,13,1,-1,12,-2,0.0
8.46,-34,-51,-57,-14,-2,-4,-21,-23,0.0
8.465,-10,-2,10,-8,2,-1,-1,-4,0.0
8.47,27,3,-9,12,0,1,3,16,0.0
8.475,1,-5,11,7,-1,-2,3,7,0.0
8.48,2,2,23,6,0,2,4,5,0.0
8.485,50,4,-31,-3,6,7,36,29,0.0
8.49,-58,-5,8,-2,-8,-9,-12,-34,0.0
8.495000000000001,1,-8,-1,17,1,-3,-70,-23,0.0
8.5,11,15,-14,-41,-8,-7,9,14,0.0
8.505,-14,-7,14,-18,1,2,-1,0,0.0
8.51,55,95,52,10,0,-4,20,16,0.0
8.515,-26,-4,-38,-6,-1,2,10,-6,0.0
8.52,53,25,41,47,6,4,0,19,0.0
8.525,-53,-41,-52,-50,-9,-4,6,-16,0.0
8.53,-2,9,-3,-27,-7,-7,-20,-9,0.0
8.535,0,16,3,1,0,4,16,20,0.0
8.540000000000001,7,6,20,26,4,0,5,-10,0.0
8.545,-9,16,20,19,0,-2,-20,-6,0.0
8.55,5,-31,-33,-19,-4,4,11,10,0.0
8.555,1,24,11,-19,-6,-10,-6,-3,0.0
8.56,12,-28,-20,5,4,10,32,18,0.0
8.565,-56,-12,23,7,-3,-2,-6,-24,0.0
8.57,-16,-20,-44,3,-2,-8,-75,-18,0.0
8.575000000000001,18,-3,9,-2,-3,1,20,15,0.0
8.58,12,7,-12,-11,-5,-4,-4,-4,0.0
8.585,92,47,21,5,2,0,5,4,0.0
8.59,-79,13,-13,1,-1,2,10,-9,0.0
8.595,5,-50,-8,-7,2,-2,4,-7,0.0
8.6,15,-3,-12,-1,1,-1,-4,-1,0.0
8.605,23,-23,-9,3,-2,-4,-10,1,0.0
8.61,37,-3,14,6,-1,2,8,14,0.0
8.615,-9,-21,-8,-13,1,4,5,1,0.0
8.620000000000001,-38,12,14,1,-4,-2,-2,-10,0.0
8.625,11,8,4,4,-2,-4,-12,3,0.0
8.63,4,1,-10,1,0,2,6,4,0.0
8.635,-21,19,-6,-2,-8,-3,2,-7,0.0
8.64,8,-13,-10,-5,0,0,-10,0,0.0
8.645,-32,-25,-18,-4,-6,-3,-6,-5,0.0
8.65,20,-8,2,6,2,-2,10,8,0.0
8.655,3,15,14,-4,-1,0,0,-1,0.0
8.66,7,-1,-3,-1,-3,-5,-7,-3,0.0
8.665000000000001,-25,-22,4,6,-1,1,-2,-7,0.0
8.67,-3,8,-13,-10,-2,-1,4,1,0.0
8.675,-7,1,9,-1,0,-1,1,-1,0.0
8.68,-8,-24,-1,21,7,-3,-4,-4,0.0
8.685,5,11,8,-7,-1,0,-3,1,0.0
8.69,1,-17,26,-28,-20,-7,-2,-3,0.0
8.695,5,-12,11,6,1,0,-4,-2,0.0
8.700000000000001,-13,14,-14,-21,1,3,-1,-1,0.0
8.705,13,14,13,24,3,-2,-2,2,0.0
8.71,8,-19,-2,-1,6,3,3,-1,0.0
8.715,-29,33,12,37,9,0,-2,-4,0.0
8.72,-19,-102,-41,-20,-20,-8,-5,-9,0.0
8.725,9,21,32,1,4,-1,-5,-1,0.0
8.73,15,-12,-14,26,2,0,5,6,0.0
8.735,5,33,17,18,3,1,2,1,0.0
8.74,0,35,30,41,13,4,-2,2,0.0
8.745000000000001,-3,41,-10,-6,-6,-8,-7,-4,0.0
8.75,-2,17,13,-10,-1,-1,1,-1,0.0
8.755,11,-17,-9,2,-1,4,1,2,0.0
8.76,0,18,4,-15,-4,-5,-8,0,0.0
8.765,-19,-24,23,20,16,6,2,-2,0.0
8.77,0,-42,-68,-25,-22,-10,-3,1,0.0
8.775,5,-10,-3,-39,-7,-3,-1,0,0.0
8.78,3,56,-39,-26,-9,-4,-2,-2,0.0
8.785,-4,-9,9,-2,-8,-3,0,0,0.0
8.790000000000001,22,18,30,32,20,7,0,2,0.0
8.795,-31,-36,-18,-10,-4,-2,-4,-5,0.0
8.8,2,-10,19,-1,1,2,-1,0,0.0
8.805,-3,-16,-4,22,1,-2,-2,-2,0.0
8.81,-38,0,-25,-48,-12,-8,-2,-7,0.0
8.815,4,-74,-26,-7,-2,1,0,2,0.0
8.82,-4,25,50,25,7,0,2,-3,0.0
8.825000000000001,-4,-5,-17,26,5,0,2,-3,0.0
8.83,19,11,40,1,-9,-1,0,5,0.0
8.835,-6,-54,-75,-31,-6,-2,1,0,0.0
8.84,-7,1,20,-14,1,0,-2,-1,0.0
8.845,10,39,-3,-8,-8,2,1,0,0.0
8.85,16,-24,-27,8,5,-2,-2,-2,0.0
8.855,-20,5,31,39,10,3,-1,-7,0.0
8.86,-5,-5,-30,-34,-11,-4,-2,-2,0.0
8.865,-1,-15,12,-18,-1,0,0,-2,0.0
8.870000000000001,13,14,-8,8,12,6,1,1,0.0
8.875,8,5,11,5,-22,-9,-4,1,0.0
8.88,-2,-8,-16,8,8,4,2,-2,0.0
8.885,-2,10,1,-49,-8,-3,2,-5,0.0
8.89,-59,3,-18,31,9,4,-1,-3,0.0
8.895,13,18,9,-1,-1,-4,-1,-2,0.0
8.9,-6,-82,15,-1,0,-3,-3,-3,0.0
8.905,-4,25,-5,2,-14,-5,-4,0,0.0
8.91,22,-4,18,26,3,-2,-1,1,0.0
8.915000000000001,7,19,-2,-25,1,-2,-3,-1,0.0
8.92,-8,-3,4,16,1,-2,0,-4,0.0
8.925,-6,-35,-5,-16,1,3,2,-1,0.0
8.93,-20,11,5,-3,-10,-1,-2,0,0.0
8.935,13,33,16,3,0,-1,0,0,0.0
8.94,11,23,8,-7,-3,-3,-5,0,0.0
8.945,-7,-17,-34,-4,6,1,-2,2,0.0
8.950000000000001,9,-10,19,0,-9,-5,-3,-3,0.0
8.955,-3,33,7,1,10,5,-1,-4,0.0
8.96,-2,28,5,7,-6,-6,-2,2,0.0
8.965,-3,39,-31,-14,-17,-7,-2,-1,0.0
8.97,4,-10,-19,-47,-5,1,3,3,0.0
8.975,8,11,15,-5,-7,-5,-5,-2,0.0
8.98,-6,-4,4,12,2,1,-3,-2,0.0
8.985,-2,-1,8,14,5,2,-3,0,0.0
8.99,23,15,18,17,5,-1,0,0,0.0
8.995000000000001,-25,-9,-3,4,-2,-2,-1,-3,0.0
9.0,-19,-14,-22,-14,2,4,1,-1,0.0
9.005,-13,-30,-1,11,-2,-2,0,-4,0.0
9.01,6,-34,-14,1,6,4,3,4,0.0
9.015,14,15,3,5,2,-2,-3,1,0.0
9.02,1,20,15,11,-8,4,1,1,0.0
9.025,5,10,-7,-41,-11,-4,-3,-1,0.0
9.03,-1,81,-24,3,3,1,4,2,0.0
9.035,-5,-13,2,4,3,-2,-2,-1,0.0
9.040000000000001,2,29,8,14,5,1,2,-1,0.0
9.045,6,-6,-7,5,3,1,-3,-1,0.0
9.05,-3,-28,10,-1,-4,-1,-3,-4,0.0
9.055,1,-14,-3,-3,0,-2,-1,-2,0.0
9.06,0,14,-10,-6,-3,-3,-2,-3,0.0
9.065,-10,0,13,8,10,5,1,-2,0.0
9.07,3,-5,4,-4,-6,-4,-2,-1,0.0
9.075000000000001,5,-9,-42,-8,-9,-3,-4,5,0.0
9.08,-9,-13,4,-10,-8,-1,-3,-3,0.0
9.085,-13,56,16,-1,4,1,1,-4,0.0
9.09,-7,-13,18,10,0,-2,-3,-1,0.0
9.095,9,17,17,-2,1,1,2,-1,0.0
9.1,4,1,-1,-7,-6,-6,-3,0,0.0
9.105,14,-11,24,28,4,0,-3,0,0.0
9.11,-9,37,-38,-28,-8,-3,-3,-5,0.0
9.115,-7,-8,3,-15,-4,-1,1,1,0.0
9.120000000000001,4,-13,-6,0,-3,-5,0,-1,0.0
9.125,1,-31,20,4,-2,-3,-1,0,0.0
9.13,3,7,14,8,4,-2,-2,-2,0.0
9.135,-22,-37,-27,-3,1,2,2,-3,0.0
9.14,-4,4,-3,3,-2,-1,0,-1,0.0
9.145,16,-3,35,4,-2,-2,-1,4,0.0
9.15,-22,-2,-43,-5,-1,-4,-4,-7,0.0
9.155,3,13,10,-3,-9,-3,0,-1,0.0
9.16,6,-49,-22,-15,9,1,-1,3,0.0
9.165000000000001,-14,3,-20,3,-11,-7,-4,1,0.0
9.17,10,-25,33,6,1,0,2,-1,0.0
9.175,6,19,5,6,3,1,-2,-1,0.0
9.18,2,-7,35,1,1,0,-2,-2,0.0
9.185,-2,-24,-59,-13,-7,0,1,2,0.0
9.19,-2,-15,10,0,3,2,-3,-4,0.0
9.195,1,9,19,5,-4,-4,-3,-4,0.0
9.200000000000001,4,1,-2,-2,-6,-2,-2,3,0.0
9.205,0,5,-10,-9,-2,-3,-2,-3,0.0
9.21,23,12,6,6,-2,-1,-1,4,0.0
9.215,-12,-63,2,-1,3,1,0,-4,0.0
9.22,2,5,-18,-10,-20,-8,-3,-6,0.0
9.225,-32,-27,13,3,4,-2,0,-5,0.0
9.23,12,1,16,1,-1,0,2,4,0.0
9.235,19,1,-4,3,6,3,1,4,0.0
9.24,15,25,16,5,7,2,-2,-1,0.0
9.245000000000001,-12,-39,-11,6,-4,2,1,-1,0.0
9.25,-3,56,14,-1,-3,0,1,1,0.0
9.255,10,-3,14,1,-4,-3,0,1,0.0
9.26,-32,-13,-50,0,0,-1,-3,-4,0.0
9.265,25,2,11,-4,3,0,0,6,0.0
9.27,-20,-15,-4,2,0,-1,0,1,0.0
9.275,-6,-57,-22,-7,-9,-10,-10,-13,0.0
9.28,-4,-7,19,-1,5,6,5,-5,0.0
9.285,23,-10,2,-6,-4,-7,-4,17,0.0
9.290000000000001,14,-76,-30,-7,6,8,6,27,0.0
9.295,-73,25,60,10,3,-2,-9,-53,0.0
9.3,9,48,24,9,-7,-10,-12,-33,0.0
9.305,9,57,-4,-11,-2,1,1,3,0.0
9.31,-15,-33,-9,8,3,4,3,-5,0.0
9.315,23,42,31,-4,4,6,8,33,0.0
9.32,-7,-24,17,19,-1,-5,0,10,0.0
9.325000000000001,1,-49,31,-15,6,0,-5,-35,0.0
9.33,5,43,-64,-16,-21,-6,1,64,0.0
9.335,-37,7,-63,8,-7,-5,-9,-69,0.0
9.34,-10,-51,-26,-32,-6,-8,-5,-26,0.0
9.345,14,17,10,18,2,0,9,51,0.0
9.35,4,-2,8,2,3,-4,-9,-5,0.0
9.355,27,-44,-25,1,-1,3,3,-3,0.0
9.36,-6,54,88,10,-1,-2,-1,8,0.0
9.365,-33,-22,-64,-23,-4,2,2,-29,0.0
9.370000000000001,18,-3,1,4,-1,-6,-4,13,0.0
9.375,13,31,33,4,-2,2,8,40,0.0
9.38,-6,16,-84,-17,-10,-8,-4,-3,0.0
9.385,-24,-18,27,7,-1,4,1,-9,0.0
9.39,0,-47,-16,-2,-3,-5,-2,-18,0.0
9.395,37,25,-2,-3,8,0,-1,19,0.0
9.4,-13,27,-46,2,1,6,4,5,0.0
9.405,-23,-72,-37,-15,-5,-1,-5,-6,0.0
9.41,17,36,85,2,-4,-4,-5,-11,0.0
9.415000000000001,-37,-19,-10,-5,-4,-2,-2,-5,0.0
9.42,45,12,35,15,13,13,12,37,0.0
9.425,-31,-3,-41,-11,-10,-9,-9,4,0.0
9.43,-27,-48,73,10,-2,-6,-1,-39,0.0
9.435,33,3,-42,-14,-3,-5,-1,34,0.0
9.44,-42,6,34,3,1,2,-6,-15,0.0
9.445,9,79,39,16,-7,-5,-4,-2,0.0
9.450000000000001,36,10,-42,-15,-5,-4,-1,12,0.0
9.455,-31,-52,16,3,-2,-6,-9,-1,0.0
9.46,-8,-22,-40,-15,-7,-11,-8,-17,0.0
9.465,34,13,60,5,11,6,4,0,0.0
9.47,-29,-58,-69,-17,-4,7,6,-6,0.0
9.475,-9,2,-44,-14,0,4,5,22,0.0
9.48,-2,23,106,18,2,0,-2,-7,0.0
9.485,4,-21,-3,0,-2,-3,3,-6,0.0
9.49,12,77,41,19,4,-1,-3,-15,0.0
9.495000000000001,26,53,-4,9,-1,0,-2,5,0.0
9.5,-2,26,-77,-23,-6,0,2,8,0.0
9.505,-7,-5,-29,-5,-4,-7,-3,-8,0.0
9.51,-22,-13,76,7,0,-2,-4,-25,0.0
9.515,-11,-79,-35,-11,-6,1,0,0,0.0
9.52,-3,-5,-71,-14,-8,-3,-4,-4,0.0
9.525,12,23,0,1,1,4,1,13,0.0
9.53,-10,14,-34,-3,-1,-2,-5,-8,0.0
9.535,8,20,-5,-8,-2,-1,2,2,0.0
9.540000000000001,-1,-65,24,10,0,0,2,1,0.0
9.545,-1,-8,46,4,-4,-6,-8,-5,0.0
9.55,-8,0,-22,-1,5,1,0,-3,0.0
9.555,18,46,32,5,1,-2,-3,-7,0.0
9.56,9,-86,-64,-23,-3,6,5,21,0.0
9.565,-5,51,27,8,2,0,-2,-11,0.0
9.57,1,35,11,0,-3,-1,2,7,0.0
9.575000000000001,2,21,20,11,0,-4,0,-3,0.0
9.58,20,116,24,24,10,-2,-5,-3,0.0
9.585,-1,53,-102,-38,-4,3,2,6,0.0
9.59,8,40,50,3,-8,-5,-4,-6,0.0
9.595,-2,9,-14,-22,-5,-1,2,-5,0.0
9.6,-34,-14,41,6,1,-3,-2,-3,0.0
9.605,11,-7,11,12,7,0,-2,0,0.0
9.61,-10,-8,-10,1,4,2,3,0,0.0
9.615,5,18,17,4,-2,-4,-3,-5,0.0
9.620000000000001,8,-17,11,3,7,2,0,-2,0.0
9.625,2,0,10,9,-2,-3,-4,2,0.0
9.63,-9,-17,-9,-15,-4,-3,-2,4,0.0
9.635,-6,37,38,10,1,-2,-2,-8,0.0
9.64,1,-6,-29,-17,-11,-7,-2,-2,0.0
9.645,-4,41,27,14,0,0,1,-2,0.0
9.65,-2,-23,15,-7,0,0,-4,-7,0.0
9.655,-4,-1,8,0,-2,0,-4,0,0.0
9.66,8,20,-34,-6,0,-2,-1,7,0.0
9.665000000000001,-6,2,-28,4,-1,-2,-4,0,0.0
9.67,-10,0,4,19,12,8,1,-3,0.0
9.675,-9,-3,-25,-22,-12,3,4,-2,0.0
9.68,-2,-1,55,-30,-20,-8,1,1,0.0
9.685,8,-8,-15,-1,1,-2,-1,-4,0.0
9.69,0,-38,-34,-1,3,-2,-2,1,0.0
9.695,1,-22,-11,9,8,0,-2,1,0.0
9.700000000000001,2,4,55,19,3,1,-1,-2,0.0
9.705,1,-3,16,-5,-3,-1,-2,-5,0.0
9.71,-5,-18,-22,-7,8,0,-3,-1,0.0
9.715,-9,3,26,0,-33,-9,-4,-6,0.0
9.72,9,7,-17,-15,-2,-1,0,4,0.0
9.725,3,-11,-3,-3,-3,-4,-2,4,0.0
9.73,-10,45,-26,4,8,4,2,-4,0.0
9.735,-9,-53,-4,11,13,5,0,1,0.0
9.74,-1,-16,-20,33,4,2,0,0,0.0
9.745000000000001,12,-3,4,-11,4,0,-3,-1,0.0
9.75,-5,3,1,-61,-37,-10,-2,-2,0.0
9.755,-29,-57,-56,-1,5,-2,-5,-3,0.0
9.76,-11,3,6,-2,3,0,-3,-2,0.0
9.765,-3,-1,-3,21,7,1,0,-1,0.0
9.77,13,11,8,13,0,-2,-1,1,0.0
9.775,11,14,28,-10,-3,-1,1,-1,0.0
9.78,0,0,35,12,1,0,2,0,0.0
9.785,-5,-90,11,6,-1,-1,-3,-1,0.0
9.790000000000001,-7,-5,-40,-10,-4,-1,2,1,0.0
9.795,0,-22,22,-7,-2,-1,-1,-3,0.0
9.8,-2,-3,21,5,1,0,1,4,0.0
9.805,-7,17,-5,-10,-6,-4,-4,-3,0.0
9.81,3,-3,23,10,-1,-3,-1,-1,0.0
9.815,13,14,-9,9,6,-2,-1,1,0.0
9.82,-4,-18,-22,-8,-3,0,-3,-1,0.0
9.825000000000001,-8,-9,-11,-11,-5,3,3,1,0.0
9.83,-4,-24,9,13,0,-2,-4,0,0.0
9.835,0,3,10,-1,1,-1,-2,1,0.0
9.84,2,39,-6,-9,-4,-1,0,1,0.0
9.845,-19,-31,-33,-9,-9,-4,-2,-2,0.0
9.85,3,9,43,43,13,1,-1,-2,0.0
9.855,7,35,7,-37,-11,-3,-1,-1,0.0
9.86,-7,-8,26,-5,-1,2,-1,-2,0.0
9.865,13,-8,16,5,1,-2,-2,0,0.0
9.870000000000001,-30,-12,7,-2,0,-2,-2,-3,0.0
9.875,2,-9,-26,12,4,1,1,2,0.0
9.88,5,-23,17,3,-3,-3,-1,-4,0.0
9.885,3,25,18,2,-1,0,1,-1,0.0
9.89,13,17,4,2,-3,-1,-2,-2,0.0
9.895,-1,33,40,-14,-10,-7,-4,-2,0.0
9.9,-7,-95,-19,-38,-6,1,-1,1,0.0
9.905,-3,34,11,3,-1,-3,-4,-5,0.0
9.91,-2,-18,-25,0,-3,-2,-1,-1,0.0
9.915000000000001,4,2,11,16,6,0,-1,-3,0.0
9.92,-4,7,-6,6,0,-2,1,-1,0.0
9.925,-2,17,8,4,-1,-1,2,1,0.0
9.93,5,-8,6,-5,-2,1,-1,-1,0.0
9.935,-3,2,-2,0,-3,-3,-3,0,0.0
9.94,9,26,-24,1,2,-1,-2,-2,0.0
9.945,1,9,-5,0,-4,3,2,0,0.0
9.950000000000001,5,43,-30,-9,-5,-6,-2,-1,0.0
9.955,-9,-20,-15,0,6,3,1,0,0.0
9.96,-12,-15,-41,-2,-10,-8,-6,-10,0.0
9.965,-4,34,26,-8,-1,-3,0,-5,0.0
9.97,16,2,1,-7,-5,1,-1,1,0.0
9.975,-22,-9,1,1,5,2,3,4,0.0
9.98,-5,20,18,9,2,-1,-2,-1,0.0
9.985,1,-2,-28,-5,-1,-2,-3,1,0.0
9.99,2,-20,21,-3,-1,0,-1,-2,0.0
9.995000000000001,10,10,13,2,-1,-3,-2,-1,0.0
10.0,-7,-13,-50,2,0,1,-1,-1,0.0
10.005,-6,-28,58,6,0,0,0,-5,0.0
10.01,-3,-8,-6,-8,1,1,-2,-1,0.0
10.015,2,-4,11,9,-3,-2,-1,0,0.0
10.02,-4,-7,-36,-7,-2,0,0,2,0.0
10.025,3,-4,0,-1,-2,-2,1,-2,0.0
10.03,-3,4,7,0,0,-1,0,-1,0.0
10.035,-1,14,-1,1,-2,1,0,-5,0.0
10.040000000000001,3,5,23,5,2,0,-1,0,0.0
10.045,1,-11,-25,-4,-3,-3,-2,2,0.0
10.05,-10,-25,-8,-1,-1,5,3,-2,0.0
10.055,6,-1,-4,-1,-4,-7,-2,-1,0.0
10.06,5,92,17,4,0,2,0,-6,0.0
10.065,-4,36,-38,-10,-4,-1,-1,2,0.0
10.07,5,36,2,-8,-6,-4,-3,-2,0.0
10.075000000000001,-2,-20,21,6,0,-4,-3,10,0.0
10.08,-9,21,15,-1,3,7,2,-8,0.0
10.085,9,5,37,8,-3,-4,-1,1,0.0
10.09,-11,-22,-12,-7,2,5,0,-3,0.0
10.095,-4,-18,7,-2,0,0,3,2,0.0
10.1,0,3,0,-1,-2,-6,-3,2,0.0
10.105,-4,0,13,8,1,1,-2,-3,0.0
10.11,-2,8,-2,2,3,1,2,1,0.0
10.115,-7,17,-9,2,0,0,-2,-7,0.0
10.120000000000001,3,-13,16,0,-5,-3,-2,2,0.0
10.125,-5,-51,-6,-4,3,4,2,-7,0.0
10.13,-1,4,14,0,-7,-8,-4,-1,0.0
10.135,5,-20,20,2,-1,2,1,-5,0.0
10.14,-3,6,-7,-11,-6,-4,-3,-1,0.0
10.145,5,34,46,6,-1,-4,-5,2,0.0
10.15,5,18,28,8,4,2,-1,0,0.0
10.155,3,4,-72,-26,1,-2,-2,-6,0.0
10.16,1,4,38,19,0,-1,-1,-4,0.0
10.165000000000001,-11,6,3,-19,-6,-2,2,18,0.0
10.17,0,48,60,19,7,-1,-5,-17,0.0
10.175,15,76,-48,-5,-5,-1,0,7,0.0
10.18,-4,21,14,6,4,2,5,16,0.0
10.185,-16,-22,-42,-5,-1,-1,-3,-8,0.0
10.19,0,-17,-27,-2,-3,-3,0,4,0.0
10.195,2,19,38,6,1,-3,-4,-9,0.0
10.200000000000001,-5,-46,-23,-4,-1,3,2,3,0.0
10.205,5,-1,1,6,-3,-2,-1,-2,0.0
10.21,-1,10,-13,-7,-1,-1,-2,-2,0.0
10.215,-2,26,10,2,0,0,-2,2,0.0
10.22,4,-52,-6,-5,-5,-5,-1,-1,0.0
10.225,-10,7,-19,-6,-2,2,-1,-3,0.0
10.23,-2,-36,-20,0,-5,-4,-2,-4,0.0
10.235,-9,-11,13,-3,1,4,1,0,0.0
10.24,-3,-19,3,3,-1,-3,-4,-6,0.0
10.245000000000001,8,14,-16,-3,-1,-3,-4,-4,0.0
10.25,1,-9,11,2,-4,-6,-3,1,0.0
10.255,-3,-24,4,1,-1,2,0,1,0.0
10.26,2,4,-36,-8,-6,-4,-3,-2,0.0
10.265,-3,-79,-58,-8,3,4,-1,-1,0.0
10.27,-1,18,17,-2,-4,-5,0,5,0.0
10.275,-3,-48,-50,-3,-1,-4,-1,-3,0.0
10.28,0,-8,17,2,-5,-3,-4,-5,0.0
10.285,5,4,-7,3,0,-1,0,4,0.0
10.290000000000001,-9,-14,-41,-7,-5,2,0,2,0.0
10.295,-4,-9,25,2,-2,-2,-3,-9,0.0
10.3,3,19,-7,-4,3,0,-1,2,0.0
10.305,4,16,22,0,-1,0,2,0,0.0
10.31,-9,-18,4,1,-1,0,1,-1,0.0
10.315,1,8,5,-5,-3,-2,-2,0,0.0
10.32,-3,38,14,6,2,-1,-1,-5,0.0
10.325000000000001,2,13,49,11,3,0,-2,-2,0.0
10.33,-11,-14,0,-9,-2,-1,-2,-3,0.0
10.335,-1,-9,-10,2,-1,-2,-3,2,0.0
10.34,-3,-17,-3,-7,0,2,0,-1,0.0
10.345,-1,33,14,3,-2,0,-1,-3,0.0
10.35,4,8,-40,-8,-3,-3,1,3,0.0
10.355,-14,-30,-4,1,-2,-4,-1,-3,0.0
10.36,-1,-11,-7,-2,0,0,1,1,0.0
10.365,1,19,-3,-5,-3,-5,-2,-3,0.0
10.370000000000001,1,-2,-26,-6,0,0,1,-1,0.0
10.375,2,11,14,3,-1,0,1,-1,0.0
10.38,-1,-12,-11,-3,-4,-2,-3,-3,0.0
10.385,-3,-15,-6,0,-4,-3,-1,0,0.0
10.39,2,28,6,-6,-1,-2,-1,-2,0.0
10.395,-7,-9,-7,-2,0,2,-2,1,0.0
10.4,-6,-17,19,10,7,2,0,-7,0.0
10.405,-9,16,-4,-4,-6,-1,-2,-3,0.0
10.41,3,-4,25,0,1,-1,-4,-1,0.0
10.415000000000001,1,-41,-19,-3,-4,-3,-5,-1,0.0
10.42,-9,-11,8,2,-1,0,0,-1,0.0
10.425,0,-20,5,7,0,-4,-2,0,0.0
10.43,-7,-36,-32,0,1,1,2,-1,0.0
10.435,8,26,15,-3,-5,-3,-3,0,0.0
10.44,-1,-4,1,0,-1,0,-1,-1,0.0
10.445,-3,-22,-6,-9,-2,1,0,-4,0.0
10.450000000000001,-6,25,4,5,0,-2,0,-5,0.0
10.455,-6,0,-19,-3,-1,-1,-2,-2,0.0
10.46,7,40,-2,1,-2,-3,-1,1,0.0
10.465,-1,-7,-10,-6,-2,-4,-3,-2,0.0
10.47,6,1,13,-3,-2,-3,-2,3,0.0
10.475,-5,7,10,-3,2,5,2,-3,0.0
10.48,2,-35,-9,-6,-4,-5,-2,0,0.0
10.485,2,31,-1,3,-1,-3,-3,-2,0.0
10.49,-14,-22,2,3,-1,5,0,0,0.0
10.495000000000001,-7,-42,-23,-1,-3,-6,-5,-2,0.0
10.5,-9,-29,4,-3,-3,1,-1,0,0.0
10.505,1,-19,4,-3,-1,-4,0,1,0.0
10.51,11,-78,-21,3,-5,-2,1,7,0.0
10.515,12,27,40,3,-2,-2,1,8,0.0
10.52,-14,-8,-61,-14,-2,-3,-3,-9,0.0
10.525,-3,1,-5,-1,0,-1,-2,2,0.0
10.53,5,30,30,5,1,-4,-3,-2,0.0
10.535,-1,33,38,4,0,0,-1,-3,0.0
10.540000000000001,-5,-11,-17,-6,-6,1,-1,5,0.0
10.545,1,1,2,2,-1,0,-1,-1,0.0
10.55,3,3,-5,-6,0,1,-4,-3,0.0
10.555,-4,24,-12,-7,0,-3,0,0,0.0
10.56,26,27,29,5,-1,-3,0,10,0.0
10.565,-26,-11,-18,-1,-1,1,0,-9,0.0
10.57,-1,33,-28,-9,0,-1,-4,1,0.0
10.575000000000001,-1,-6,-8,-3,-5,0,-1,0,0.0
10.58,0,-8,18,3,1,1,-1,-1,0.0
10.585,11,6,1,-5,-2,0,2,5,0.0
10.59,-2,1,5,1,0,-4,0,-4,0.0
10.595,-2,-1,-19,-2,1,-2,-1,-4,0.0
10.6,-3,17,-3,-4,0,-1,-2,-1,0.0
10.605,0,-42,6,0,-2,-2,-1,-1,0.0
10.61,-11,9,-20,-7,-3,-4,-5,-5,0.0
10.615,-1,1,7,-2,0,2,-2,-2,0.0
10.620000000000001,5,18,5,3,0,-4,-4,-4,0.0
10.625,0,26,-13,-4,-2,2,-1,-6,0.0
10.63,-2,11,18,3,-2,0,1,0,0.0
10.635,2,-12,29,11,0,-1,0,2,0.0
10.64,5,64,-32,-13,0,1,-1,0,0.0
10.645,-4,5,6,-7,-3,-2,-2,-2,0.0
10.65,5,-10,2,1,-1,-2,0,1,0.0
10.655,-5,-33,-5,-3,-3,2,1,1,0.0
10.66,-2,-20,20,2,-1,-2,-3,-5,0.0
10.665000000000001,-1,-4,-6,2,3,1,0,5,0.0
10.67,-3,-9,-9,-5,-2,0,-3,0,0.0
10.675,-4,10,-3,-3,1,-1,1,-3,0.0
10.68,-2,-12,2,2,-3,-2,1,0,0.0
10.685,-8,-23,-25,-6,-4,-4,-2,-3,0.0
10.69,4,-12,12,-1,-3,-2,-4,-2,0.0
10.695,-1,71,13,-1,2,-4,-3,-1,0.0
10.700000000000001,-33,-73,-9,-1,-3,-1,-5,-12,0.0
10.705,-5,1,19,9,2,1,1,-2,0.0
10.71,-1,20,4,1,1,1,1,-5,0.0
10.715,8,20,-25,-4,-2,-1,-2,-1,0.0
10.72,5,25,30,1,-2,-4,-1,4,0.0
10.725,11,-3,10,0,3,-2,-5,-2,0.0
10.73,-10,-2,2,3,-1,2,2,-2,0.0
10.735,-10,-34,-54,-16,-7,-3,-1,-2,0.0
10.74,4,-15,3,-2,-1,1,3,4,0.0
10.745000000000001,-3,-18,2,5,-1,-1,1,-2,0.0
10.75,11,3,-6,-4,-2,-2,-2,2,0.0
10.755,1,-5,9,5,1,1,0,0,0.0
10.76,1,5,-2,-3,-2,-1,-2,-3,0.0
10.765,4,25,-10,-6,-3,-5,-2,2,0.0
10.77,-2,-66,35,7,9,4,4,3,0.0
10.775,-13,-10,-64,-6,-4,-3,-2,-4,0.0
10.78,5,2,13,2,0,-3,-2,-1,0.0
10.785,2,7,-11,-6,-3,0,-2,-2,0.0
10.790000000000001,-1,27,14,-4,-3,-4,-1,-1,0.0
10.795,6,-18,22,4,-5,-3,-3,-2,0.0
10.8,-12,-26,-7,2,3,4,3,1,0.0
10.805,4,7,-2,2,1,0,1,-1,0.0
10.81,2,7,-13,-5,-5,-3,-2,0,0.0
10.815,-2,16,10,-1,2,-1,-1,-2,0.0
10.82,5,31,5,3,-2,-1,-1,-1,0.0
10.825000000000001,-9,-40,-31,-9,-6,-5,-4,-4,0.0
10.83,-4,-16,-15,-4,1,-2,-1,-2,0.0
10.835,0,-24,20,1,-1,2,0,-1,0.0
10.84,-1,-12,0,0,1,-1,-1,1,0.0
10.845,-1,1,6,3,0,-1,0,0,0.0
10.85,1,29,1,4,2,-1,-4,-3,0.0
10.855,-8,-39,-22,-6,-6,-4,-1,2,0.0
10.86,5,38,-5,-2,-1,-3,1,2,0.0
10.865,-21,11,33,2,0,-1,1,-8,0.0
10.870000000000001,0,-3,22,-11,-6,-5,-5,0,0.0
10.875,-4,5,32,6,-3,0,0,0,0.0
10.88,4,18,-4,-4,-5,-3,-4,-1,0.0
10.885,2,-16,0,2,2,1,1,0,0.0
10.89,-3,-8,-7,1,-5,-2,-2,-1,0.0
10.895,0,3,11,0,2,-1,0,-2,0.0
10.9,-7,-10,11,-1,0,0,-1,1,0.0
10.905,3,18,11,2,-2,-3,-2,-4,0.0
10.91,-3,5,-9,0,-1,-1,-1,4,0.0
10.915000000000001,0,0,4,-2,-1,-1,-1,-5,0.0
10.92,-2,-19,-18,-3,-3,-1,-3,2,0.0
10.925,3,3,4,-2,-1,-1,-1,0,0.0
10.93,2,24,-7,0,1,-1,-1,-3,0.0
10.935,-2,10,7,-2,1,0,0,0,0.0
10.94,0,5,4,1,3,1,-2,-4,0.0
10.945,3,18,-8,7,1,-1,-2,2,0.0
10.950000000000001,-7,-9,18,16,8,7,4,-2,0.0
10.955,-2,-1,-15,-15,-7,-4,0,3,0.0
10.96,-5,31,22,-15,-8,-4,-5,-7,0.0
10.965,4,-36,-28,-9,-5,-1,-1,6,0.0
10.97,-2,-11,19,2,-1,-2,-1,-6,0.0
10.975,3,10,25,17,4,1,-3,2,0.0
10.98,-3,8,-2,34,7,2,1,-2,0.0
10.985,7,20,12,23,5,3,0,1,0.0
10.99,-9,-24,-35,-93,-22,-11,-6,-6,0.0
10.995000000000001,5,-37,5,6,3,0,0,0,0.0
11.0,8,-14,-6,3,-3,-2,1,6,0.0
11.005,-21,5,10,-2,1,-1,1,-13,0.0
11.01,6,-7,-20,23,3,1,-6,2,0.0
11.015,-4,0,3,-10,-4,-2,-1,-2,0.0
11.02,18,-14,-7,7,-3,-1,0,8,0.0
11.025,-13,4,-7,-18,0,2,9,4,0.0
11.03,5,34,-9,0,-1,-1,12,-9,0.0
11.035,7,37,3,-10,-6,-9,-45,-5,0.0
11.040000000000001,-19,-12,0,9,2,7,9,-3,0.0
11.045,6,0,-8,-9,-4,-1,-2,2,0.0
11.05,-2,0,2,5,0,0,4,1,0.0
11.055,0,-27,2,45,11,7,15,6,0.0
11.06,-9,-4,18,-19,-4,-5,-9,-10,0.0
11.065,2,34,-28,-64,-15,-8,-8,-2,0.0
11.07,-4,0,-24,-2,-2,1,2,3,0.0
11.075000000000001,-3,-47,-20,14,2,0,6,2,0.0
11.08,-9,-7,-10,-11,-4,-5,-10,-17,0.0
11.085,4,0,17,25,2,3,4,1,0.0
11.09,3,-21,-1,-12,-10,-6,-10,0,0.0
11.095,1,-31,-5,0,0,2,4,4,0.0
11.1,1,-8,8,-12,-2,-3,0,0,0.0
11.105,11,-3,-7,11,1,2,2,5,0.0
11.11,-31,-14,14,9,2,-2,-10,-24,0.0
11.115,-1,9,0,-8,-4,-4,4,-4,0.0
11.120000000000001,-4,-1,-8,-7,-1,-2,2,7,0.0
11.125,11,14,11,7,1,-1,-8,-3,0.0
11.13,4,23,1,10,4,4,-1,-1,0.0
11.135,-15,-4,-9,-14,-3,-2,1,-8,0.0
11.14,6,17,4,3,2,1,1,-3,0.0
11.145,-6,-22,3,10,-1,-3,0,4,0.0
11.15,3,21,-7,0,4,2,1,6,0.0
11.155,-5,6,24,25,-5,-3,-3,-8,0.0
11.16,6,-27,-32,-68,-9,-5,-3,2,0.0
11.165000000000001,-1,-29,19,14,1,0,1,1,0.0
11.17,-2,48,-24,2,-1,-3,2,1,0.0
11.175,4,7,30,-5,0,-1,2,-1,0.0
11.18,2,11,12,27,3,1,-1,2,0.0
11.185,4,10,0,-4,2,-1,-2,-1,0.0
11.19,-8,39,18,20,6,3,2,1,0.0
11.195,5,37,-10,-3,0,-1,-2,0,0.0
11.200000000000001,-7,-27,-23,-14,-7,-6,-3,-3,0.0
11.205,-10,-20,1,-10,-2,1,-1,-6,0.0
11.21,6,-15,1,-8,-6,-4,-2,6,0.0
11.215,-1,17,-13,24,7,4,5,3,0.0
11.22,-4,-5,-7,-53,-15,-9,-8,-10,0.0
11.225,-4,47,-3,24,10,4,2,-1,0.0
11.23,3,-16,21,18,0,-2,-2,4,0.0
11.235,-5,3,-12,-42,-8,-4,-1,-5,0.0
11.24,2,-1,-8,37,6,3,-1,0,0.0
11.245000000000001,-6,-32,13,29,1,1,-2,-3,0.0
11.25,-9,-46,-45,-58,-10,-3,-3,-4,0.0
11.255,6,17,9,-12,1,-3,-2,-1,0.0
11.26,-6,1,14,63,10,5,4,2,0.0
11.265,4,5,11,-1,-3,-2,-3,0,0.0
11.27,-13,-66,-26,-25,-6,-1,1,-4,0.0
11.275,-10,-29,5,-51,-8,-3,-4,-2,0.0
11.28,1,14,17,40,6,3,0,3,0.0
11.285,-1,2,-4,-1,-3,-7,-3,-4,0.0
11.290000000000001,14,26,23,75,10,5,2,5,0.0
11.295,5,27,22,95,11,7,2,4,0.0
11.3,-18,-37,-28,-92,-23,-7,-5,-11,0.0
11.305,-1,5,-30,-42,-16,-6,-2,-1,0.0
11.31,6,3,0,-7,-9,-5,-2,3,0.0
11.315,1,7,-14,26,5,4,4,3,0.0
11.32,11,37,53,86,14,7,1,4,0.0
11.325000000000001,2,-11,-30,-78,-10,-1,-3,-4,0.0
11.33,-3,8,-16,-29,-6,-10,-7,-8,0.0
11.335,5,25,37,20,-2,0,2,0,0.0
11.34,1,-18,-43,3,-4,-3,0,-3,0.0
11.345,-9,-27,-7,-60,-5,-2,-5,3,0.0
11.35,7,17,62,112,8,7,3,6,0.0
11.355,-8,-24,-41,-87,-3,-3,-4,-10,0.0
11.36,5,21,27,30,4,-1,1,7,0.0
11.365,-4,3,0,9,-1,-1,0,-2,0.0
11.370000000000001,2,-15,-29,-14,-3,1,-4,0,0.0
11.375,-9,50,11,34,1,1,1,4,0.0
11.38,-12,-20,-1,-15,-13,-8,-5,-10,0.0
11.385,9,29,39,121,9,13,8,-1,0.0
11.39,1,-19,-85,-100,-18,-10,-8,1,0.0
11.395,-7,-77,-26,-94,-13,-20,-12,-10,0.0
11.4,-8,13,16,62,22,3,5,10,0.0
11.405,-12,4,45,107,15,-6,-8,-17,0.0
11.41,3,13,-21,-10,-5,2,5,6,0.0
11.415000000000001,3,0,-12,-15,-12,0,-4,0,0.0
11.42,14,13,-2,-25,-4,-3,-1,7,0.0
11.425,2,-65,-48,-28,-10,1,1,5,0.0
11.43,6,20,53,57,12,4,3,0,0.0
11.435,-29,-51,-20,-11,0,-3,-6,-3,0.0
11.44,-10,46,-39,-60,-13,-2,-2,-8,0.0
11.445,3,-28,32,-3,-3,-7,-5,0,0.0
11.450000000000001,13,-24,-21,-24,6,2,1,6,0.0
11.455,-10,16,54,45,2,1,5,5,0.0
11.46,13,19,23,42,9,7,3,-5,0.0
11.465,-5,-1,-22,-32,-12,-13,-11,-8,0.0
11.47,-7,-2,7,-21,0,-3,-1,-3,0.0
11.475,16,7,28,5,-10,-1,-2,4,0.0
11.48,3,-9,31,88,22,10,8,9,0.0
11.485,16,31,-49,-42,-12,-5,-1,12,0.0
11.49,-43,4,71,80,9,3,0,-18,0.0
11.495000000000001,21,4,-38,19,-1,-1,-3,4,0.0
11.5,-31,-37,-58,-75,-13,-6,-5,-16,0.0
11.505,34,11,-2,22,10,3,6,19,0.0
11.51,1,45,27,-12,-1,1,0,1,0.0
11.515,26,2,-47,-29,1,3,3,10,0.0
11.52,48,30,43,13,0,-4,2,13,0.0
11.525,-38,-57,19,-6,1,6,9,16,0.0
11.53,-64,-57,-38,-22,-15,-15,-23,-65,0.0
11.535,24,18,14,11,2,5,31,13,0.0
11.540000000000001,3,-6,18,-11,-3,-6,-29,-5,0.0
11.545,32,22,-9,-4,3,1,-7,30,0.0
11.55,16,0,11,-11,2,18,106,51,0.0
11.555,-14,-16,5,15,-2,-12,-101,12,0.0
11.56,9,-23,-26,-18,-6,-9,15,-45,0.0
11.565,-46,6,36,26,0,-4,16,-43,0.0
11.57,-5,-25,-6,-30,-5,-11,-61,32,0.0
11.575000000000001,-6,16,-2,-18,-3,12,79,3,0.0
11.58,-5,-28,-55,-32,-6,-1,-7,21,0.0
11.585,0,24,37,14,5,1,-25,-7,0.0
11.59,13,8,-17,49,7,-1,-1,-34,0.0
11.595,0,10,-1,123,23,10,6,5,0.0
11.6,-27,-56,-36,-104,-45,-20,-11,-6,0.0
11.605,-3,14,12,54,5,4,19,-2,0.0
11.61,10,-15,17,33,-2,-3,-11,3,0.0
11.615,-2,7,29,7,-1,-2,-11,-13,0.0
11.620000000000001,22,16,12,55,16,7,14,12,0.0
11.625,-35,3,-6,-21,-2,0,1,2,0.0
11.63,23,18,29,-23,0,1,-9,4,0.0
11.635,-30,-4,-8,-12,1,-1,-3,-24,0.0
11.64,14,12,14,1,-3,-1,9,24,0.0
11.645,-2,-10,-15,-35,-8,-3,3,-13,0.0
11.65,32,-25,0,0,1,-2,-19,5,0.0
11.655,-18,-4,-9,-23,-5,-1,24,-3,0.0
11.66,-9,-3,-2,0,3,-2,-23,-15,0.0
11.665000000000001,13,10,-8,-10,-2,-5,-41,-8,0.0
11.67,-14,-6,-17,6,-4,-2,14,0,0.0
11.675,-1,-19,-13,-14,-5,0,3,-1,0.0
11.68,-6,17,29,3,1,4,13,6,0.0
11.685,2,-2,-12,9,3,-3,7,-5,0.0
11.69,-3,10,12,5,-3,0,-6,-2,0.0
11.695,4,-4,-3,-17,-6,-4,-4,-2,0.0
11.700000000000001,-8,13,1,16,4,1,-6,-5,0.0
11.705,-9,6,-7,-6,3,1,4,-1,0.0
11.71,1,-17,18,-5,-5,-2,-3,-2,0.0
11.715,1,-3,-31,-11,-4,-3,-9,0,0.0
11.72,-14,-3,8,18,6,3,6,-6,0.0
11.725,6,2,-14,-27,-8,-4,-3,-1,0.0
11.73,3,16,18,-2,0,0,0,5,0.0
11.735,0,6,2,2,0,-2,2,-3,0.0
11.74,-4,-31,-4,6,4,2,-14,-6,0.0
11.745000000000001,5,-23,8,3,-1,-2,4,2,0.0
11.75,-3,41,-16,5,-3,-2,37,5,0.0
11.755,-3,-7,1,-11,-6,-7,-69,-16,0.0
11.76,0,3,-8,-1,0,-2,10,4,0.0
11.765,3,-20,7,5,-1,-1,-5,-5,0.0
11.77,6,0,-8,-9,-4,-3,0,0,0.0
11.775,-16,-16,-18,1,6,6,19,1,0.0
11.78,3,-2,12,2,-1,0,0,0,0.0
11.785,-1,22,-17,-2,-2,-2,1,-4,0.0
11.790000000000001,-1,18,5,-5,-3,-2,-8,-1,0.0
11.795,1,11,22,1,-2,0,3,0,0.0
11.8,-4,3,-12,-4,-2,0,-7,-5,0.0
11.805,8,9,-11,-4,-2,1,8,6,0.0
11.81,-6,-8,-8,-1,0,-1,-10,-2,0.0
11.815,-2,11,15,-2,0,-3,1,-6,0.0
11.82,-2,8,2,-2,-2,-2,5,1,0.0
11.825000000000001,9,-16,-8,-1,-1,0,0,3,0.0
11.83,-33,-7,12,9,3,5,-3,-3,0.0
11.835,12,-10,2,-7,-6,-4,0,-5,0.0
11.84,0,-7,13,2,0,1,2,2,0.0
11.845,-3,1,-10,2,0,0,-2,-4,0.0
11.85,7,18,-5,-5,-1,1,-8,2,0.0
11.855,-5,-3,-3,-2,-3,-1,8,1,0.0
11.86,11,-55,-8,1,0,3,3,9,0.0
11.865,-10,-2,18,2,-3,-2,-6,-7,0.0
11.870000000000001,8,-52,-17,-1,0,-2,-2,2,0.0
11.875,-4,4,13,3,-1,-1,2,-6,0.0
11.88,-11,9,-2,-6,-4,-4,-4,0,0.0
11.885,6,-3,-3,1,-1,1,-2,3,0.0
11.89,1,18,21,2,-2,-3,-4,-7,0.0
11.895,3,-5,-17,-4,-2,-1,2,4,0.0
11.9,3,10,17,6,3,1,1,4,0.0
11.905,-9,30,-18,-12,-3,-3,-1,-10,0.0
11.91,14,59,63,8,2,-1,-5,-1,0.0
11.915000000000001,-6,2,-34,9,1,3,3,7,0.0
11.92,-9,-15,-103,-37,-16,-5,-5,-13,0.0
11.925,-3,-1,29,-1,-1,0,2,-4,0.0
11.93,-11,-26,-19,0,0,0,0,2,0.0
11.935,10,42,30,10,2,-4,-4,-11,0.0
11.94,-10,30,33,13,4,2,3,2,0.0
11.945,4,-15,-3,3,1,0,2,0,0.0
11.950000000000001,51,21,-70,-12,-1,2,7,33,0.0
11.955,-80,-14,27,-3,-2,-3,-6,-47,0.0
11.96,10,3,-2,0,-2,-3,-2,-2,0.0
11.965,8,16,62,0,-2,1,1,3,0.0
11.97,-11,-23,-3,-4,-1,-3,-1,4,0.0
11.975,39,3,32,4,-2,1,5,10,0.0
11.98,-11,9,-13,-13,-4,-2,-2,29,0.0
11.985,-13,-13,14,-1,-4,-6,-11,-32,0.0
11.99,-3,-1,-1,5,-2,-2,-4,-4,0.0
11.995000000000001,9,-15,-11,-5,-4,-2,-1,-2,0.0
12.0,5,25,30,8,3,1,8,13,0.0
12.005,19,32,2,4,0,-1,2,14,0.0
12.01,-28,-33,-20,-5,0,2,1,-15,0.0
12.015,-4,-15,-18,-7,-6,-4,-5,-13,0.0
12.02,6,-12,19,5,4,2,-1,-10,0.0
12.025,-11,0,-38,-7,-5,-5,1,9,0.0
12.030000000000001,9,-1,27,20,1,-1,-7,-31,0.0
12.035,-3,-22,-77,-24,-3,-2,7,30,0.0
12.040000000000001,-5,-5,-4,-16,-8,-7,-11,-16,0.0
12.045,-6,-47,-36,-2,-1,0,-1,-5,0.0
12.05,-10,-4,10,-4,-2,-2,0,-6,0.0
12.055,16,2,15,8,0,0,1,14,0.0
12.06,-14,-15,-8,6,3,3,2,-12,0.0
12.065,3,3,-19,-6,-3,-2,2,16,0.0
12.07,-12,-20,-8,-4,-1,-3,-4,-9,0.0
12.075000000000001,-3,21,4,2,-3,-1,-1,-3,0.0
12.08,2,-2,-3,-3,-1,-2,-4,-11,0.0
12.085,3,-1,10,3,0,4,2,5,0.0
12.09,-5,19,37,5,-1,0,-1,0,0.0
12.095,0,-63,-23,-7,-1,-3,-5,-2,0.0
12.1,6,-34,2,1,0,0,1,3,0.0
12.105,-6,20,2,4,2,6,3,-2,0.0
12.11,-4,28,-43,-12,-3,-4,-2,-1,0.0
12.115,9,-2,22,-3,0,0,-2,6,0.0
12.120000000000001,23,15,8,8,-1,1,4,17,0.0
12.125,-44,-20,-9,-6,-3,-5,-4,-14,0.0
12.13,-3,-2,-2,-4,0,-1,1,4,0.0
12.135,11,19,35,3,-2,-5,-7,-2,0.0
12.14,0,10,-3,-2,3,0,0,1,0.0
12.145,-2,-19,17,2,0,-3,-3,-8,0.0
12.15,6,1,-3,-2,-2,-2,-1,6,0.0
12.155000000000001,-4,12,0,2,-3,0,-1,5,0.0
12.16,-9,-5,11,3,-3,-4,-6,-11,0.0
12.165000000000001,12,-24,-8,-2,2,-1,-3,3,0.0
12.17,-12,-33,-1,-2,-3,0,-2,-5,0.0
12.175,1,7,-6,-4,-1,-3,0,-2,0.0
12.18,-11,4,3,-1,-2,-2,-2,-9,0.0
12.185,1,9,6,-1,-1,-2,0,2,0.0
12.19,6,2,-1,-3,-1,-2,-2,5,0.0
12.195,-11,0,11,-1,2,3,1,-6,0.0
12.200000000000001,0,5,-2,-1,-2,-1,-3,-5,0.0
12.205,4,-2,-9,-1,1,1,1,3,0.0
12.21,32,10,15,2,0,-1,0,16,0.0
12.215,-75,-52,-60,-21,-8,-1,-3,-30,0.0
12.22,0,-1,27,6,-2,-2,-1,-7,0.0
12.225,10,-35,12,2,-2,-4,-2,2,0.0
12.23,-8,19,7,-2,-3,-1,-2,-3,0.0
12.235,20,21,13,6,4,1,2,11,0.0
12.24,-6,-7,-14,-2,-3,-3,-1,-2,0.0
12.245000000000001,-9,-10,-5,-7,-2,-2,-2,-6,0.0
12.25,6,-1,5,-1,3,1,0,0,0.0
12.255,5,16,18,8,3,-1,-2,3,0.0
12.26,-7,-1,-10,-6,-3,-3,-2,-7,0.0
12.265,6,28,-3,1,0,-1,1,8,0.0
12.27,-11,-11,-10,-6,-4,-3,-5,-10,0.0
12.275,11,16,9,2,0,-2,-1,3,0.0
12.280000000000001,-5,-2,1,0,1,0,0,-2,0.0
12.285,0,8,-8,-3,-2,-1,-1,1,0.0
12.290000000000001,-11,-6,-3,0,-1,0,-1,-4,0.0
12.295,0,-27,9,3,-2,-2,-3,-4,0.0
12.3,4,11,-12,0,-2,-3,-1,5,0.0
12.305,0,-34,5,3,-1,-1,0,6,0.0
12.31,-53,-28,6,-7,-9,-7,-13,-49,0.0
12.315,26,7,11,1,-1,0,-1,7,0.0
12.32,-4,3,12,5,7,0,1,0,0.0
12.325000000000001,30,27,75,4,0,3,4,19,0.0
12.33,-13,-21,-72,-16,-6,-5,-2,5,0.0
12.335,-10,-15,-7,-2,-1,-3,-3,-18,0.0
12.34,0,8,41,2,-2,-1,-1,3,0.0
12.345,3,-26,5,9,5,4,1,-7,0.0
12.35,13,24,26,8,2,-1,5,17,0.0
12.355,-1,47,-1,-5,-6,-4,-3,2,0.0
12.36,1,-12,-27,-3,-5,-2,-1,1,0.0
12.365,-14,-1,-15,-4,-2,-3,-3,-6,0.0
12.370000000000001,4,3,3,0,0,1,-1,3,0.0
12.375,0,-8,-11,-1,3,-1,0,2,0.0
12.38,0,0,3,-1,-3,0,-2,-2,0.0
12.385,-10,17,-30,-6,-2,-2,-1,-3,0.0
12.39,1,-7,13,1,-1,0,2,-1,0.0
12.395,2,8,7,-4,0,0,0,3,0.0
12.4,-1,-11,-8,0,-3,-3,-4,-3,0.0
12.405000000000001,-9,-31,-17,-2,-2,-2,-2,-6,0.0
12.41,4,0,0,-4,3,1,0,-1,0.0
12.415000000000001,5,7,7,3,1,0,3,14,0.0
12.42,-8,21,-9,-7,-2,1,0,-6,0.0
12.425,-10,-24,-15,-2,-4,-3,-2,-4,0.0
12.43,9,2,10,2,-1,-1,-1,2,0.0
12.435,2,-6,-3,-1,-2,-5,-3,0,0.0
12.44,-8,-21,-16,-1,-1,1,-2,-4,0.0
12.445,-1,26,13,0,1,-2,-3,-4,0.0
12.450000000000001,4,10,-6,-3,-2,-1,-2,1,0.0
12.455,-5,0,11,5,0,1,2,0,0.0
12.46,0,3,-21,-1,0,-3,1,11,0.0
12.465,-19,-17,-18,-15,-10,-9,-15,-40,0.0
12.47,2,36,-17,0,-1,-1,1,4,0.0
12.475,-5,-17,-3,-3,-4,-1,-2,-3,0.0
12.48,13,5,18,1,2,-1,-1,8,0.0
12.485,-1,21,-7,2,0,-1,2,7,0.0
12.49,-8,-23,-1,-1,-1,-1,-3,-5,0.0
12.495000000000001,11,4,2,-4,1,-1,0,1,0.0
12.5,-3,18,-8,-5,-1,2,2,-6,0.0
12.505,6,-7,14,8,-1,-2,1,5,0.0
12.51,7,46,12,-1,-3,-1,0,2,0.0
12.515,-2,-10,-34,-9,-4,-2,-3,2,0.0
12.52,-1,-7,21,-3,-3,-4,-4,-7,0.0
12.525,-1,6,-7,-1,1,1,-2,1,0.0
12.530000000000001,6,-15,19,5,2,1,1,7,0.0
12.535,0,-3,4,4,-2,-3,-1,-1,0.0
12.540000000000001,-7,6,-22,-5,0,-1,-1,-5,0.0
12.545,4,12,-4,-4,0,0,3,2,0.0
12.55,-4,-20,-2,-1,-1,1,-2,-1,0.0
12.555,-4,-5,1,0,5,3,0,-1,0.0
12.56,-16,-22,28,7,-3,-3,-1,-11,0.0
12.565,8,12,5,-6,-2,-2,1,15,0.0
12.57,-2,-10,-1,-3,-1,-3,-2,0,0.0
12.575000000000001,-6,5,7,0,-4,0,-1,-1,0.0
12.58,5,-12,16,3,2,3,1,1,0.0
12.585,-2,35,-6,0,-4,-2,-2,-1,0.0
12.59,-11,-40,-4,-7,-3,-2,-4,-4,0.0
12.595,3,1,-1,3,-4,-3,-1,1,0.0
12.6,-1,-7,16,1,0,1,1,-1,0.0
12.605,-8,-25,-64,-10,-1,-3,0,5,0.0
12.61,-5,-17,13,-1,-7,-6,-8,-18,0.0
12.615,3,22,10,-2,-1,1,1,1,0.0
12.620000000000001,-2,-4,-23,-6,-3,-1,-3,-1,0.0
12.625,2,-8,7,3,0,-1,0,-1,0.0
12.63,0,-4,3,2,2,-1,3,4,0.0
12.635,-3,-7,-5,-2,0,-1,-3,-1,0.0
12.64,5,10,-5,-1,-1,-1,-2,1,0.0
12.645,-8,7,11,0,0,2,2,-2,0.0
12.65,-2,0,-2,5,3,4,-1,1,0.0
12.655000000000001,4,-8,-12,-4,-4,-3,-1,-4,0.0
12.66,-1,4,4,-3,-1,-3,-1,2,0.0
12.665000000000001,1,-3,7,-1,0,2,-2,0,0.0
12.67,1,14,-1,-2,0,-1,0,-1,0.0
12.675,-5,11,-2,1,0,-1,-1,-3,0.0
12.68,2,2,2,0,-2,-2,-1,1,0.0
12.685,1,-5,3,1,-1,-1,-2,-1,0.0
12.69,-2,10,-2,-7,-4,-2,-3,1,0.0
12.695,0,-9,5,-4,-3,-1,1,-1,0.0
12.700000000000001,2,1,-11,-1,0,-4,-4,-3,0.0
12.705,-9,12,7,2,1,4,2,-3,0.0
12.71,8,16,10,5,-1,2,0,0,0.0
12.715,-1,13,-45,-5,-4,-2,-2,1,0.0
12.72,2,-2,-6,-2,-2,-2,-1,4,0.0
12.725,1,-13,11,0,1,-1,0,0,0.0
12.73,-19,-24,3,-1,0,-3,-2,-1,0.0
12.735,7,-14,12,1,-1,-1,-1,-2,0.0
12.74,-2,-1,-17,-2,-1,-1,-1,-4,0.0
12.745000000000001,12,27,7,-2,-2,-1,-2,2,0.0
12.75,0,-2,-5,-1,-2,1,2,7,0.0
12.755,-7,-9,12,0,-1,-1,0,-2,0.0
12.76,-5,-3,2,0,-3,-1,-1,-3,0.0
12.765,1,-2,9,1,-1,-2,0,1,0.0
12.77,-4,-3,-19,-2,-3,-3,-3,-4,0.0
12.775,-5,-11,5,-1,2,2,1,1,0.0
12.780000000000001,1,-2,-2,-2,-1,0,-2,-1,0.0
12.785,-5,-15,-2,-1,-4,-1,-2,-2,0.0
12.790000000000001,-4,-4,-2,2,-1,0,-2,-2,0.0
12.795,-8,-25,-64,-10,-1,-3,0,5,0.0
12.8,-5,-17,13,-1,-7,-6,-8,-18,0.0
12.805,3,22,10,-2,-1,1,1,1,0.0
12.81,-2,-4,-23,-6,-3,-1,-3,-1,0.0
12.815,2,-8,7,3,0,-1,0,-1,0.0
12.82,0,-4,3,2,2,-1,3,4,0.0
12.825000000000001,-5,21,3,-3,-4,-3,0,3,0.0
12.83,2,14,-1,-3,-3,-4,0,-1,0.0
12.835,-6,-35,-45,-9,-2,-5,-4,-5,0.0
12.84,7,15,25,0,1,-2,-3,1,0.0
12.845,-12,-9,-3,1,-2,-3,-3,-4,0.0
12.85,2,3,-3,-3,-1,1,1,5,0.0
12.855,2,14,12,1,-1,-1,-3,-3,0.0
12.86,2,8,-6,-1,-5,-2,2,1,0.0
12.865,-6,-1,4,0,1,0,-3,-5,0.0
12.870000000000001,-2,-3,3,1,-3,-3,-1,-1,0.0
12.875,5,8,5,0,-2,-1,-2,1,0.0
12.88,2,9,3,6,3,-1,-1,3,0.0
12.885,-13,0,39,9,0,1,3,6,0.0
12.89,-19,-12,-3,-7,-9,-6,-12,-28,0.0
12.895,5,8,5,1,-1,0,1,1,0.0
12.9,-1,-6,-23,-4,-5,-4,-2,-1,0.0
12.905000000000001,8,-13,-6,-1,0,0,2,9,0.0
12.91,4,10,1,-1,0,0,2,4,0.0
12.915000000000001,-10,-4,-2,-2,1,-1,-4,-6,0.0
12.92,-10,-10,19,6,3,2,1,-4,0.0
12.925,-1,-5,-50,-1,4,2,0,-2,0.0
12.93,-1,7,2,-7,-3,-1,2,2,0.0
12.935,2,-13,1,-3,-2,-1,-2,2,0.0
12.94,-2,3,-6,-3,0,-4,-5,-9,0.0
12.945,2,-16,11,1,0,-1,-3,-8,0.0
12.950000000000001,-2,18,-6,3,1,0,0,6,0.0
12.955,7,7,-8,0,-3,-2,-1,4,0.0
12.96,-6,-4,11,-1,-3,0,-2,-1,0.0
12.965,-1,-1,8,-6,-6,-3,-1,-6,0.0
12.97,9,-4,-6,1,1,-1,-2,1,0.0
12.975,-1,16,10,2,-1,4,1,-1,0.0
12.98,-9,8,14,-2,-7,-5,-1,-3,0.0
12.985,-4,0,-8,-6,-3,-2,-3,-9,0.0
12.99,11,-20,-8,0,0,-1,1,5,0.0
12.995000000000001,-9,-29,-33,-2,-3,-1,2,-4,0.0
13.0,0,-3,12,2,1,0,0,1,0.0
13.005,3,9,-3,-1,0,-1,-1,2,0.0
13.01,-4,5,6,1,2,-3,-1,-3,0.0
13.015,2,22,11,-2,-4,-4,-3,-3,0.0
13.02,8,16,-16,1,-2,-1,0,-1,0.0
13.025,2,34,20,4,-3,-2,1,9,0.0
13.030000000000001,-11,-6,-9,-8,-5,-1,-6,-14,0.0
13.035,-4,7,9,-3,-1,0,-2,1,0.0
13.040000000000001,15,7,-7,-1,0,-2,1,8,0.0
13.045,2,14,12,1,-1,-1,-3,-3,0.0
13.05,2,8,-6,-1,-5,-2,2,1,0.0
13.055,-6,-1,4,0,1,0,-3,-5,0.0
13.06,-2,-3,3,1,-3,-3,-1,-1,0.0
13.065,5,8,5,0,-2,-1,-2,1,0.0
13.07,2,9,3,6,3,-1,-1,3,0.0
13.075000000000001,-7,3,5,-1,1,-1,0,-7,0.0
13.08,-9,-7,8,2,-1,-2,-2,-18,0.0
13.085,-1,4,-6,0,0,0,-1,2,0.0
13.09,-3,-11,-8,-4,-3,-3,-1,-2,0.0
13.095,2,-12,-5,2,-1,0,-1,4,0.0
13.1,4,5,1,2,-1,0,3,9,0.0
13.105,-11,-26,-9,-2,-2,-3,-4,-7,0.0
13.11,4,7,-2,1,2,0,-2,0,0.0
13.115,-5,-4,-32,-3,-2,0,0,-2,0.0
13.120000000000001,0,-9,20,5,1,0,-1,6,0.0
13.125,-3,-6,-9,-5,-5,3,2,0,0.0
13.13,-1,-16,-9,-4,-2,0,0,0,0.0
13.135,3,3,1,-1,0,-1,-3,0,0.0
13.14,4,-5,15,-4,-4,-3,-1,1,0.0
13.145,1,4,11,3,1,-2,0,-2,0.0
13.15,-7,-13,-1,-1,-1,-2,-3,-4,0.0
13.155000000000001,1,-13,4,-3,-1,-2,-2,-7,0.0
13.16,2,6,-2,-2,-1,1,1,3,0.0
13.165000000000001,-8,-34,2,2,0,-1,-3,-1,0.0
13.17,-5,8,-4,-3,-3,2,0,-3,0.0
13.175,2,6,8,-4,0,-3,-1,-3,0.0
13.18,-1,-2,-5,2,0,0,2,2,0.0
13.185,-7,-6,-9,-2,1,-3,-1,-1,0.0
13.19,2,-26,26,8,1,0,-3,-3,0.0
13.195,-2,14,-6,-6,-3,-1,-2,2,0.0
13.200000000000001,0,-6,-31,-5,-4,0,-1,1,0.0
13.205,4,15,17,-1,-1,-3,-1,-1,0.0
13.21,-3,1,-5,-2,-1,-1,-1,0,0.0
13.215,2,-1,13,-3,0,0,-1,-7,0.0
13.22,5,19,2,1,1,-2,-1,4,0.0
13.225,0,91,-27,-7,-4,-2,1,-4,0.0
13.23,-6,4,-3,-7,-5,-3,0,6,0.0
13.235,-4,-6,16,4,0,-3,-1,-2,0.0
13.24,5,12,-27,-5,0,-3,-1,1,0.0
13.245000000000001,-2,-17,8,-4,2,-1,-1,-3,0.0
13.25,-2,4,-1,1,-1,2,1,1,0.0
13.255,-6,3,-8,-3,-4,-3,-4,-6,0.0
13.26,0,-8,12,2,-3,-2,-1,2,0.0
13.265,0,-7,9,0,2,1,-1,1,0.0
13.27,-1,0,-22,-3,-2,-2,0,-2,0.0
13.275,-2,-10,12,0,0,-2,-1,1,0.0
13.280000000000001,-3,28,13,2,1,-1,0,-3,0.0
13.285,1,-12,-13,-8,-3,-3,-3,0,0.0
13.290000000000001,-3,35,3,-2,1,0,-1,-3,0.0
13.295,-3,-2,0,0,2,-1,0,1,0.0
13.3,-3,-2,11,2,-3,-1,-2,-7,0.0
13.305,4,12,-5,-1,-2,-1,1,0,0.0
13.31,-2,-10,5,-2,-4,-3,-3,-3,0.0
13.315,10,3,-9,-2,-4,0,-2,5,0.0
13.32,-11,-10,0,-12,0,3,0,-1,0.0
13.325000000000001,-1,-18,12,3,-2,-2,-2,-3,0.0
13.33,0,18,12,5,0,0,-1,-2,0.0
13.335,5,42,-26,-8,-8,-3,2,3,0.0
13.34,1,-13,1,2,-1,-1,-2,0,0.0
13.345,2,-7,16,2,1,1,-3,-1,0.0
13.35,-2,3,-5,-5,-1,-2,-1,-5,0.0
13.355,-1,-24,6,3,1,0,-1,-2,0.0
13.36,4,10,24,5,2,3,1,7,0.0
13.365,-10,-6,-57,-14,-6,-5,-5,-12,0.0
13.370000000000001,2,-4,24,-1,0,-1,-1,3,0.0
13.375,-6,-28,-8,-4,0,-2,-2,-1,0.0
13.38,1,-19,-3,-3,-5,0,-1,-2,0.0
13.385,2,6,11,4,3,2,2,3,0.0
13.39,0,8,-21,-5,0,-2,-2,-2,0.0
13.395,-9,-13,-4,-1,-1,1,-1,-5,0.0
13.4,3,6,1,0,0,-4,-1,5,0.0
13.405000000000001,-5,-16,9,3,-5,-5,-4,-10,0.0
13.41,-7,-40,1,1,2,3,-2,0,0.0
13.415000000000001,-6,4,17,1,-1,-1,0,-1,0.0
13.42,-2,-10,-11,-3,-1,-3,-3,-5,0.0
13.425,-4,-35,16,5,3,2,1,3,0.0
13.43,-2,-13,-18,-3,-3,-3,-4,-6,0.0
13.435,3,-1,-2,0,1,-3,-3,-3,0.0
13.44,-4,-11,-13,-4,-3,-3,1,-2,0.0
13.445,1,-30,3,3,-2,0,-1,1,0.0
13.450000000000001,3,15,14,-1,-2,-2,-2,0,0.0
13.455,-6,-4,-25,-1,0,1,-1,1,0.0
13.46,-7,-9,4,-1,-4,-4,-5,-13,0.0
13.465,10,27,15,0,-2,-1,1,12,0.0
13.47,-10,14,-22,-4,-2,-2,-1,-16,0.0
13.475,4,-1,5,3,-2,-1,-3,6,0.0
13.48,-8,-11,-6,3,3,1,1,-3,0.0
13.485,2,-38,6,1,0,-1,1,9,0.0
13.49,-6,5,-2,-8,-4,-1,-1,-1,0.0
13.495000000000001,2,-7,10,2,-3,-3,-2,-4,0.0
13.5,0,2,-5,-3,2,2,1,0,0.0
13.505,14,15,2,-1,0,-3,0,3,0.0
13.51,-15,-5,-3,4,3,-2,0,0,0.0
13.515,3,-6,-1,-1,0,0,-1,-2,0.0
13.52,8,-4,-23,0,-2,0,0,8,0.0
13.525,-11,14,2,-1,-2,-3,-3,-11,0.0
13.530000000000001,7,-26,8,2,1,2,2,6,0.0
13.535,-4,-1,-13,-9,1,-3,0,-2,0.0
13.540000000000001,-6,-6,13,6,0,-1,-1,-2,0.0
13.545,-5,9,-12,-3,0,0,2,0,0.0
13.55,-1,-31,9,1,-1,-3,-3,7,0.0
13.555,-3,15,8,-1,-2,0,-1,-4,0.0
13.56,-4,-15,-19,-4,0,-1,-1,-1,0.0
13.565,-3,-7,10,-1,-2,-2,-4,-4,0.0
13.57,2,2,-6,-1,-1,1,-1,-2,0.0
13.575000000000001,4,2,5,-2,-2,-1,-1,2,0.0
13.58,-8,-1,5,0,1,-1,1,-2,0.0
13.585,-3,4,-10,-2,-3,-1,-2,-1,0.0
13.59,1,5,0,3,-3,-5,-2,-2,0.0
13.595,-3,5,-7,0,-2,-3,-1,-1,0.0
13.6,4,-28,24,4,-3,-1,-1,2,0.0
13.605,-22,3,23,-3,2,1,-2,-13,0.0
13.61,1,1,-38,-1,-3,-2,-2,0,0.0
13.615,5,-37,25,4,1,2,1,6,0.0
13.620000000000001,-20,-18,-24,-4,-6,-4,-7,-20,0.0
13.625,16,16,8,1,0,0,-1,5,0.0
13.63,3,20,2,-5,-5,-2,0,6,0.0
13.635,-5,-3,3,1,-2,0,0,-3,0.0
13.64,9,32,0,-1,1,-3,-1,5,0.0
13.645,-11,15,-8,-2,-1,2,2,-5,0.0
13.65,-2,0,-6,-3,-4,-2,-2,-3,0.0
13.655000000000001,4,-3,-18,-4,0,-1,-2,9,0.0
13.66,-7,19,6,-3,-1,-1,-4,-9,0.0
13.665000000000001,4,4,-11,-2,-3,-5,-1,0,0.0
13.67,5,0,14,-1,0,-1,0,1,0.0
13.675,-1,15,-1,-1,1,-3,0,-6,0.0
13.68,1,2,-7,-2,-3,0,2,3,0.0
13.685,1,3,-9,-3,-4,-3,-3,-1,0.0
13.69,0,-4,9,1,2,2,2,0,0.0
13.695,0,40,-15,-4,-2,-1,-2,-2,0.0
13.700000000000001,-2,12,12,-2,-3,0,0,0,0.0
13.705,6,-26,9,1,0,-3,-2,2,0.0
13.71,-1,14,3,-3,-2,-3,-1,0,0.0
13.715,-2,-4,7,1,-2,0,-2,-3,0.0
13.72,3,61,-11,-5,1,0,0,4,0.0
13.725,-2,-3,-4,-1,-4,-2,-2,1,0.0
13.73,12,-5,2,-7,-6,-2,0,-1,0.0
13.735,-9,15,7,-2,-1,0,-1,-2,0.0
13.74,4,-27,-18,-3,0,1,0,2,0.0
13.745000000000001,-15,-6,-1,-3,-4,-2,-5,-14,0.0
13.75,0,-5,6,2,3,0,-2,-3,0.0
13.755,2,1,9,2,-3,-2,0,1,0.0
13.76,2,-9,5,2,0,-2,0,2,0.0
13.765,-1,-1,-10,0,-2,-1,1,-1,0.0
13.77,-5,-12,4,3,1,0,-1,-1,0.0
13.775,-2,-22,13,4,0,0,0,-2,0.0
13.780000000000001,-20,-23,-24,-8,-1,0,1,1,0.0
13.785,3,3,7,0,-4,-4,-6,-8,0.0
13.790000000000001,-9,-16,-13,2,0,3,1,-1,0.0
13.795,-4,-17,-1,-1,2,1,0,-3,0.0
13.8,8,-5,9,5,-4,-2,-2,1,0.0
13.805,3,8,2,3,0,1,1,5,0.0
13.81,-3,24,-5,-5,-2,0,-1,-3,0.0
13.815,-1,-4,-7,-1,-3,-2,-4,0,0.0
13.82,-5,26,3,1,2,0,-3,-2,0.0
13.825000000000001,3,-22,-24,-5,-2,0,1,2,0.0
13.83,2,27,-5,-2,1,-1,-1,-2,0.0
13.835,-2,1,-6,-6,-6,-4,0,-2,0.0
13.84,2,-4,6,-2,3,1,-1,-2,0.0
13.845,0,0,8,4,-1,-1,0,5,0.0
13.85,2,7,3,-2,-1,0,-1,-2,0.0
13.855,-3,-8,-12,-3,-1,-1,0,-3,0.0
13.86,8,-18,12,6,-2,-1,-2,1,0.0
13.865,-16,-3,-14,-3,3,1,2,-6,0.0
13.870000000000001,-5,-46,4,1,-1,1,0,0,0.0
13.875,7,-4,7,0,0,-2,-3,-4,0.0
13.88,1,22,1,-8,-3,-1,1,-3,0.0
13.885,-1,4,3,3,1,1,0,4,0.0
13.89,-8,-32,10,2,-3,-3,-3,-3,0.0
13.895,1,-7,1,0,-3,-5,1,4,0.0
13.9,-3,26,4,-3,0,2,1,-11,0.0
13.905000000000001,7,-7,18,-2,2,-2,0,2,0.0
13.91,-9,-10,-54,-12,-6,-3,-4,-3,0.0
13.915000000000001,5,12,2,0,1,0,0,0,0.0
13.92,-12,-6,3,2,-3,-3,-2,4,0.0
13.925,7,8,8,-3,-4,-4,-4,-5,0.0
13.93,3,6,12,2,0,-3,-2,-1,0.0
13.935,-1,-12,-12,-3,0,1,0,1,0.0
13.94,7,-10,-3,-3,-1,-2,2,7,0.0
13.945,-12,-7,4,8,1,0,-3,-6,0.0
13.950000000000001,4,24,2,-1,-3,-2,-1,0,0.0
13.955,-6,24,-9,-13,-6,0,-1,3,0.0
13.96,3,-4,4,-2,-4,-3,-3,-1,0.0
13.965,2,4,-4,-2,-5,-3,0,3,0.0
13.97,3,21,10,-4,-3,-4,-2,-2,0.0
13.975,3,11,17,2,1,-2,-2,-5,0.0
13.98,-6,5,-9,1,0,-2,-1,-4,0.0
13.985,4,6,-3,-1,-2,0,0,10,0.0
13.99,-6,-12,-18,-4,-1,-1,-3,-9,0.0
13.995000000000001,-14,-15,8,3,-2,-2,-1,-10,0.0
14.0,-9,-38,-11,1,-3,-2,-4,-1,0.0
14.005,4,-1,-2,-4,-2,-1,0,6,0.0
14.01,1,9,11,4,2,2,1,2,0.0
14.015,-3,-18,-3,2,2,1,-2,-3,0.0
14.02,-1,5,17,4,-2,1,3,-4,0.0
14.025,-4,-11,-22,-10,-3,-2,-1,-3,0.0
14.030000000000001,-2,-19,13,2,-3,0,-1,-1,0.0
14.035,-3,-1,-15,-1,0,-2,1,0,0.0
14.040000000000001,3,5,13,-2,0,-2,-2,0,0.0
14.045,1,2,1,0,0,0,0,-1,0.0
14.05,-3,9,-3,-3,-1,-4,-3,-1,0.0
14.055,4,-22,-13,0,-4,-3,-1,2,0.0
14.06,-10,-50,-2,2,1,2,1,-3,0.0
14.065,5,25,8,-1,-1,-2,-2,3,0.0
14.07,-13,-12,-20,-2,-5,-2,-2,-10,0.0
14.075000000000001,4,2,6,-2,-3,-1,-1,5,0.0
14.08,-4,13,-5,-1,0,-2,-4,-9,0.0
14.085,-1,-2,-1,-1,-2,0,-2,-4,0.0
14.09,-8,0,5,2,-1,0,2,1,0.0
14.095,-1,3,22,6,0,-1,-1,-4,0.0
14.1,5,16,3,-3,-2,0,-2,0,0.0
14.105,-8,11,-4,-1,1,0,-1,-5,0.0
14.11,5,-5,1,-3,-1,-2,-1,5,0.0
14.115,1,7,-6,-3,1,0,-1,-2,0.0
14.120000000000001,-8,-3,-29,-4,-1,-2,2,11,0.0
14.125,-12,-10,12,1,-5,-6,-9,-36,0.0
14.13,4,-12,2,1,2,3,1,5,0.0
14.135,-1,5,-10,-4,-4,-3,-1,-5,0.0
14.14,14,6,13,3,1,1,2,10,0.0
14.145,-11,-21,-15,-3,3,0,-2,-1,0.0
14.15,-1,9,4,-2,-1,0,2,-3,0.0
14.155000000000001,-1,10,-18,-8,-3,0,-2,0,0.0
14.16,-2,4,-10,-7,-7,-5,-6,-9,0.0
14.165000000000001,-8,-4,2,0,-1,1,2,5,0.0
14.17,5,14,11,-1,0,-1,-4,-2,0.0
14.175,-3,-4,-2,1,-1,2,-2,2,0.0
14.18,3,-20,14,2,-4,-4,-2,-2,0.0
14.185,8,4,-9,-5,-5,-3,-2,3,0.0
14.19,-2,10,2,0,1,-1,1,-1,0.0
14.195,-6,-36,19,9,0,0,-3,2,0.0
14.200000000000001,-3,-5,-21,-11,-4,-3,-2,-6,0.0
14.205,0,-2,14,2,-2,-3,-1,-2,0.0
14.21,2,2,4,1,-2,-2,0,6,0.0
14.215,1,6,-3,-1,2,0,0,-3,0.0
14.22,-9,6,6,3,0,-2,-3,-8,0.0
14.225,9,-1,-18,-4,-3,1,1,9,0.0
14.23,-5,-5,7,1,3,0,-4,-4,0.0
14.235,-9,0,-6,1,0,0,1,-5,0.0
14.24,1,-4,-34,-10,-5,1,0,3,0.0
14.245000000000001,-2,-2,17,4,1,2,2,4,0.0
14.25,-12,-12,17,0,-2,-3,-5,-14,0.0
14.255,3,-1,-45,-12,-4,-2,-1,1,0.0
14.26,-2,-32,19,7,2,1,-1,-1,0.0
14.265,-3,6,3,0,-2,-2,2,-2,0.0
14.27,9,8,5,-1,1,0,1,7,0.0
14.275,-5,-9,5,0,-2,-1,-1,0,0.0
14.280000000000001,5,22,9,1,-2,-1,-1,-3,0.0
14.285,6,-22,-21,-4,0,-2,1,6,0.0
14.290000000000001,-3,-7,-11,3,-3,0,0,-2,0.0
14.295,5,29,20,-3,-3,-3,-2,-2,0.0
14.3,-11,-6,-15,1,1,1,0,1,0.0
14.305,3,18,10,-4,-1,2,0,6,0.0
14.31,-2,-1,-3,-2,-2,-4,-2,0,0.0
14.315,0,2,5,-3,-3,-1,-1,-4,0.0
14.32,0,-7,7,1,0,2,0,2,0.0
14.325000000000001,-2,-28,-7,0,0,0,-3,-3,0.0
14.33,15,54,-5,2,-2,-1,0,4,0.0
14.335,-19,12,-23,-8,-4,0,2,-2,0.0
14.34,2,21,8,-1,-4,-3,-3,2,0.0
14.345,-3,-2,-8,-2,0,1,-1,-5,0.0
14.35,4,-21,5,-1,-2,-2,-1,-2,0.0
14.355,-1,-14,6,6,6,-1,0,5,0.0
14.36,1,24,15,2,2,0,0,-3,0.0
14.365,-5,-18,-17,-6,-4,-2,-4,-3,0.0
14.370000000000001,1,4,7,-7,-2,0,-1,1,0.0
14.375,7,-3,-11,1,-1,-1,-3,-1,0.0
14.38,-13,-2,7,0,1,1,1,-4,0.0
14.385,1,12,11,4,3,0,-2,0,0.0
14.39,-7,-20,-4,-4,-2,-2,-1,-2,0.0
14.395,1,-9,9,2,-2,-3,-1,-1,0.0
14.4,4,-17,3,1,-1,-2,-3,0,0.0
14.405000000000001,4,1,-24,-4,-1,-1,-1,-1,0.0
14.41,-19,-43,-1,5,0,3,0,-1,0.0
14.415000000000001,-5,-6,6,-1,-1,-1,-3,-4,0.0
14.42,-4,-11,-2,-2,-3,-3,-1,1,0.0
14.425,-1,-8,-2,-2,-2,-4,-1,-1,0.0
14.43,-3,-10,-4,-2,0,1,2,-2,0.0
14.435,-4,-2,6,1,-3,-3,-3,-1,0.0
14.44,11,-5,-10,-7,-1,-1,-1,-5,0.0
14.445,0,19,18,-3,-6,-2,0,3,0.0
14.450000000000001,0,1,1,-2,-4,-4,-5,-1,0.0
14.455,4,3,2,-3,-1,-2,-1,0,0.0
14.46,8,15,-17,-3,1,0,-1,3,0.0
14.465,-5,45,48,7,0,-4,-3,-8,0.0
14.47,-3,-19,-100,-12,-2,3,0,3,0.0
14.475,0,34,19,-4,-1,-1,-1,-2,0.0
14.48,-4,1,32,2,-3,-2,-2,-4,0.0
14.485,-4,-3,-1,1,-1,1,2,2,0.0
14.49,-4,8,18,3,-1,-2,0,-4,0.0
14.495000000000001,-5,-56,-4,-2,-2,0,-3,-1,0.0
14.5,0,-11,-11,2,-3,-2,0,-1,0.0
14.505,-2,-31,-4,2,0,-1,-2,3,0.0
14.51,11,12,19,-2,1,-1,0,14,0.0
14.515,-14,17,-5,2,-2,-2,0,-13,0.0
14.52,-3,-1,0,-1,0,-1,-1,1,0.0
14.525,-5,-7,-3,-2,-4,-3,-2,-2,0.0
14.530000000000001,3,-5,2,-2,-4,-4,-1,2,0.0
14.535,12,15,4,-4,-2,-1,0,3,0.0
14.540000000000001,-12,-3,-1,1,5,1,-1,-6,0.0
14.545,-1,8,-1,0,-1,1,-1,-1,0.0
14.55,-2,22,12,-2,1,0,0,-7,0.0
14.555,-3,-40,-36,-7,-2,0,1,3,0.0
14.56,-1,-37,28,1,-4,-5,-3,-3,0.0
14.565,-3,-1,-19,-4,-2,-1,-2,0,0.0
14.57,-8,-4,20,3,-2,0,0,-4,0.0
14.575000000000001,0,0,4,0,-1,-1,0,-3,0.0
14.58,-4,-47,3,4,0,1,2,4,0.0
14.585,-3,-20,20,1,1,1,-1,2,0.0
14.59,-14,-8,-2,-4,-4,-4,-4,-13,0.0
14.595,-7,-12,-3,1,0,-1,-2,0,0.0
14.6,1,0,-16,-6,-2,-2,-4,1,0.0
14.605,4,11,10,0,-6,0,1,2,0.0
14.61,1,6,-9,-2,-2,-1,2,0,0.0
14.615,2,10,4,2,-1,-1,-1,-1,0.0
14.620000000000001,-6,22,-1,-2,-3,-1,-3,-2,0.0
14.625,0,5,-13,-4,-2,-2,-1,-2,0.0
14.63,8,-23,-7,0,0,-2,-2,4,0.0
14.635,-11,10,2,-1,3,5,5,4,0.0
14.64,-4,27,-10,-8,-6,-6,-8,-30,0.0
14.645,5,-34,-2,-2,1,-3,-1,3,0.0
14.65,0,-15,-33,-2,-2,1,0,0,0.0
14.655000000000001,7,0,26,2,-1,-2,-2,3,0.0
14.66,0,3,-14,-2,1,-1,-1,6,0.0
14.665000000000001,-6,13,2,1,2,-2,-2,-6,0.0
14.67,-3,4,6,-2,-2,-2,-2,-4,0.0
14.675,7,-16,-6,-2,0,-1,1,4,0.0
14.68,-7,7,-22,-5,-2,-2,2,8,0.0
14.685,-2,-11,10,1,0,-1,-3,-8,0.0
14.69,6,7,14,4,-1,0,0,7,0.0
14.695,0,22,-1,-3,-3,-4,-3,-4,0.0
14.700000000000001,-4,-12,4,3,-4,2,2,1,0.0
14.705,4,6,-14,-2,-2,-2,-1,2,0.0
14.71,-2,6,2,-4,-3,0,-2,-6,0.0
14.715,1,5,-1,1,1,-1,-2,4,0.0
14.72,6,20,-8,-4,0,-2,0,2,0.0
14.725,-6,9,4,-3,-1,-1,-4,-4,0.0
14.73,-1,-29,-11,-2,4,0,-3,2,0.0
14.735,3,-15,-14,-3,-5,-3,-3,-2,0.0
14.74,-4,-11,12,2,1,0,2,1,0.0
14.745000000000001,-2,-14,-16,0,-3,0,-3,-3,0.0
14.75,1,10,4,0,1,-2,-1,-5,0.0
14.755,-10,-13,-7,2,-3,2,1,-2,0.0
14.76,3,3,7,6,-1,-2,-3,2,0.0
14.765,-3,1,13,0,-1,0,0,2,0.0
14.77,0,11,-6,-2,-4,-3,-2,0,0.0
14.775,-2,5,3,-1,0,-5,-5,-11,0.0
14.780000000000001,1,4,4,0,-1,2,0,-1,0.0
14.785,-4,8,3,0,-1,0,0,1,0.0
14.790000000000001,-4,-2,7,0,0,1,0,-4,0.0
14.795,5,32,9,1,1,0,-1,2,0.0
14.8,4,36,-8,-7,-3,-4,-1,-2,0.0
14.805,2,1,-9,-4,-2,-5,-2,5,0.0
14.81,-7,3,13,1,2,1,0,-6,0.0
14.815,-3,-55,0,-1,-2,-1,-3,-3,0.0
14.82,3,1,13,0,-1,-2,-2,-1,0.0
14.825000000000001,-4,-7,-14,-1,0,2,1,0,0.0
14.83,0,8,7,-1,-3,-3,-2,1,0.0
14.835,-2,-2,17,1,-1,2,1,-3,0.0
14.84,5,-14,-12,-3,-2,1,-1,7,0.0
14.845,-11,11,12,-4,-2,-1,-2,-10,0.0
14.85,-3,-21,-10,-1,-5,-3,-2,-1,0.0
14.855,3,7,2,-2,-3,-2,-1,0,0.0
14.86,-1,-4,-7,-1,-2,1,-1,2,0.0
14.865,1,-15,-4,-2,0,-2,-1,2,0.0
14.870000000000001,-11,-59,1,-1,-2,-1,-4,0,0.0
14.875,-9,-3,6,-1,2,3,2,-3,0.0
14.88,2,-7,-5,-2,-6,-6,-4,-1,0.0
14.885,-6,-2,1,1,-1,0,0,-1,0.0
14.89,3,17,15,1,-2,-4,-2,-1,0.0
14.895,0,2,-13,-4,-2,-1,0,1,0.0
14.9,-6,-19,2,-1,4,1,-1,-4,0.0
14.905000000000001,2,9,6,1,-1,1,2,-6,0.0
14.91,12,-15,-20,-4,-5,-2,1,8,0.0
14.915000000000001,3,12,11,-1,-2,-3,0,2,0.0
14.92,-10,-1,22,3,2,0,0,-6,0.0
14.925,1,-3,-66,-12,-3,1,1,4,0.0
14.93,0,22,21,3,-1,0,-1,-3,0.0
14.935,-1,-10,-12,-3,-1,-3,-1,0,0.0
14.94,1,10,2,3,-1,0,0,1,0.0
14.945,4,4,2,5,1,-3,-2,-1,0.0
14.950000000000001,-3,-5,8,-6,-3,0,0,0,0.0
14.955,-11,-29,-10,1,-2,-2,-1,-2,0.0
14.96,5,-1,-5,-2,-1,-2,-1,-3,0.0
14.965,0,5,11,0,-1,-2,-5,1,0.0
14.97,0,15,-5,-2,-2,-1,2,-1,0.0
14.975,9,12,-3,-1,0,0,-2,1,0.0
14.98,-8,15,-9,-3,1,1,1,1,0.0
14.985,-6,10,17,0,-1,-3,-1,-6,0.0
14.99,-1,15,-5,5,3,1,0,4,0.0
14.995000000000001,-13,-12,-29,-9,-7,-5,-5,-19,0.0
15.0,1,-9,1,0,4,1,1,0,0.0
15.005,-2,33,-11,-1,-1,1,2,1,0.0
15.01,-2,9,-6,-2,0,-1,-2,-1,0.0
15.015,3,-5,19,3,-1,-4,-1,1,0.0
15.02,-6,15,0,3,1,0,1,5,0.0
15.025,-3,-19,-28,-3,-1,-2,-3,-3,0.0
15.030000000000001,-2,10,8,-2,-1,0,-1,-2,0.0
15.035,0,24,-11,-5,-2,-2,-1,0,0.0
15.040000000000001,-1,-15,2,-3,-3,0,0,-4,0.0
15.045,-1,-16,7,2,-1,0,-1,2,0.0
15.05,14,39,28,8,3,0,-2,2,0.0
15.055,-16,47,-29,-11,0,-2,-3,-12,0.0
15.06,6,20,14,-7,-5,-2,-1,0,0.0
15.065,-3,-5,-1,-1,-4,-2,-1,1,0.0
15.07,0,-7,0,-5,-3,-1,-3,-7,0.0
15.075000000000001,0,-20,9,6,-1,1,2,6,0.0
15.08,-3,-9,-10,-3,-3,-1,0,-1,0.0
15.085,3,6,10,2,-3,-2,-2,-2,0.0
15.09,7,-1,-33,-11,0,-4,0,-2,0.0
15.095,5,-9,21,6,1,3,1,10,0.0
15.1,-27,-15,-7,-6,-6,-4,-5,-36,0.0
15.105,0,-2,18,0,2,2,4,17,0.0
15.11,-20,-41,12,-1,-6,-8,-10,-23,0.0
15.115,1,-10,-18,-1,0,0,2,3,0.0
15.120000000000001,9,3,6,-2,-1,-1,-1,8,0.0
15.125,2,9,0,-2,-1,-1,-2,-1,0.0
15.13,-7,-7,-2,0,0,0,0,-2,0.0
15.135,-5,-28,8,2,2,2,-1,-1,0.0
15.14,15,34,6,7,-3,-5,-4,6,0.0
15.145,-2,20,12,-5,-1,-2,-2,-7,0.0
15.15,-1,-2,-22,-4,-4,0,1,8,0.0
15.155000000000001,1,-5,10,-2,-1,-2,-1,-5,0.0
15.16,2,-11,-10,1,-1,0,1,4,0.0
15.165000000000001,-9,-22,4,5,4,1,0,-6,0.0
15.17,-7,2,7,7,-1,-1,-1,-5,0.0
15.175,8,29,4,-1,0,-1,-2,0,0.0
15.18,-2,0,-9,-5,-2,-1,0,1,0.0
15.185,4,-10,1,1,-2,-2,-2,-2,0.0
15.19,-13,12,19,-7,-4,-5,-6,-11,0.0
15.195,1,-16,6,-6,-1,0,-2,0,0.0
15.200000000000001,-11,-5,-8,-1,0,1,-1,3,0.0
15.205,1,-19,23,4,-2,0,0,0,0.0
15.21,-1,11,-9,1,-1,2,1,6,0.0
15.215,-1,-4,-1,-1,-3,-1,-2,-3,0.0
15.22,7,0,15,-1,-3,-5,-5,-1,0.0
15.225,0,-15,-8,-3,-2,-1,-1,1,0.0
15.23,-9,-5,2,-1,1,-3,0,7,0.0
15.235,-1,2,-13,-2,-5,-2,-4,-4,0.0
15.24,4,-7,-12,-3,1,1,1,1,0.0
15.245000000000001,-3,-17,-7,0,0,1,-3,-4,0.0
15.25,-5,-53,-6,-2,-2,2,2,3,0.0
15.255,-5,9,5,0,0,-1,-1,0,0.0
15.26,-1,-16,0,1,-1,-2,-3,0,0.0
15.265,-4,5,-8,-4,-1,-2,-1,-3,0.0
15.27,-1,-9,3,2,2,3,-1,-7,0.0
15.275,1,-24,0,1,-4,-1,2,6,0.0
15.280000000000001,-17,-5,-14,-5,-7,-5,-5,-17,0.0
15.285,3,-9,-9,-2,-3,-3,-2,-1,0.0
15.290000000000001,5,22,1,-1,-1,0,0,1,0.0
15.295,2,-20,8,4,-1,0,0,-2,0.0
15.3,3,10,0,-1,1,-2,-2,6,0.0
15.305,-2,30,-5,-2,-4,-4,-2,-5,0.0
15.31,3,17,6,2,-1,0,0,-3,0.0
15.315,-2,-3,-18,-4,-3,-2,-3,1,0.0
15.32,-1,-9,1,1,2,3,2,1,0.0
15.325000000000001,-2,8,1,-4,-3,0,1,-2,0.0
15.33,4,2,-1,2,-2,-2,-2,1,0.0
15.335,-1,28,-1,-3,1,0,0,0,0.0
15.34,8,4,-8,0,-3,1,2,6,0.0
15.345,-10,1,-2,-2,0,0,-5,-10,0.0
15.35,2,-20,-10,1,-1,-2,1,7,0.0
15.355,-8,-1,11,-3,-1,-2,-1,-5,0.0
15.36,1,4,-12,2,-1,-2,-3,1,0.0
15.365,1,6,4,-11,-1,0,0,0,0.0
15.370000000000001,-1,0,0,0,1,0,-2,-3,0.0
15.375,-8,55,-10,2,2,1,0,-1,0.0
15.38,-1,3,11,-5,1,1,0,1,0.0
15.385,-1,-19,-15,1,1,1,-2,-1,0.0
15.39,1,8,-2,-2,-3,-2,-2,-2,0.0
15.395,9,-3,1,1,-2,-3,0,1,0.0
15.4,-3,1,-11,-5,-3,-2,-1,0,0.0
15.405000000000001,7,4,13,6,-1,-2,-2,6,0.0
15.41,-2,-16,-17,-7,-1,0,0,-3,0.0
15.415000000000001,2,-20,5,0,0,0,-2,-2,0.0
15.42,-3,-18,6,0,-1,0,2,-3,0.0
15.425,0,-1,1,-1,-2,-1,-1,0,0.0
15.43,9,10,14,1,0,0,0,3,0.0
15.435,-11,-30,1,3,-1,0,-1,-5,0.0
15.44,-2,21,-9,-6,-1,1,1,-3,0.0
15.445,-1,10,2,0,-1,-2,0,1,0.0
15.450000000000001,-6,-2,-5,0,1,0,-1,-4,0.0
15.455,-6,-5,-5,2,-3,1,2,-1,0.0
15.46,3,-6,5,0,0,-4,-3,-4,0.0
15.465,1,51,-9,-2,-2,-5,-1,-1,0.0
15.47,-11,-13,-5,-1,2,0,-3,-4,0.0
15.475,15,40,24,3,1,-1,-1,5,0.0
15.48,-26,-12,-34,-2,-4,-2,-5,-15,0.0
15.485000000000001,15,27,-10,-4,-1,-1,2,4,0.0
15.49,-6,17,-1,-2,-1,-3,-1,-3,0.0
15.495000000000001,1,3,1,0,1,-2,-1,1,0.0
15.5,0,-15,3,4,1,1,0,7,0.0
15.505,-6,-25,1,-1,-4,-1,-2,-4,0.0
15.51,-4,-20,7,1,-2,-1,-2,0,0.0
15.515,-1,-7,1,-3,-1,-2,-1,-3,0.0
15.52,8,-1,6,-2,-2,-2,-2,2,0.0
15.525,-9,-13,-7,-5,-1,0,-4,-1,0.0
15.530000000000001,6,14,6,3,-4,-1,1,2,0.0
15.535,-5,1,3,-1,-3,-5,-5,-5,0.0
15.540000000000001,-4,-8,4,-1,2,2,3,1,0.0
15.545,2,-10,0,1,-2,-4,0,3,0.0
15.55,0,-12,-1,4,0,-1,-5,-3,0.0
15.555,3,46,-12,-7,-1,0,-1,3,0.0
15.56,-5,-5,21,5,-3,-2,-2,-5,0.0
15.565,-3,-28,-35,-3,-2,-1,-2,-1,0.0
15.57,6,9,16,-5,-5,-2,-1,2,0.0
15.575000000000001,-10,-51,-9,-3,1,0,-2,-1,0.0
15.58,5,-22,8,3,3,1,-1,1,0.0
15.585,-6,5,6,-3,-1,3,0,2,0.0
15.59,1,4,-6,-4,-4,-2,-3,-3,0.0
15.595,1,4,2,0,-2,-1,0,1,0.0
15.6,-5,15,14,3,0,-2,0,-5,0.0
15.605,0,-11,2,4,1,-2,-1,-4,0.0
15.610000000000001,-3,-6,-31,-7,-1,-2,-1,-1,0.0
15.615,-2,-19,0,-1,-3,0,-2,1,0.0
15.620000000000001,-1,5,8,-1,-3,-2,-3,1,0.0
15.625,7,13,10,1,1,-2,0,2,0.0
15.63,-12,9,4,2,2,0,-2,-7,0.0
15.635,5,13,-6,-3,-7,-2,0,-1,0.0
15.64,3,-45,-10,-7,-4,-2,0,1,0.0
15.645,-3,-9,4,0,-4,-3,-4,-2,0.0
15.65,0,14,15,1,-3,-1,2,3,0.0
15.655000000000001,-15,-37,-7,-5,-3,-5,-8,-15,0.0
15.66,8,12,-6,-6,-3,-3,-2,0,0.0
15.665000000000001,-6,-7,13,2,-1,0,0,-4,0.0
15.67,7,4,-13,-4,-1,0,-1,-1,0.0
15.675,-8,-34,7,3,1,-1,0,-1,0.0
15.68,-11,-2,2,-1,4,3,1,-1,0.0
15.685,5,3,13,-1,-3,1,1,-2,0.0
15.69,1,4,-10,-5,-4,-4,-4,-1,0.0
15.695,7,-8,-23,2,1,1,1,8,0.0
15.700000000000001,-5,15,1,-4,-3,-4,-5,-8,0.0
15.705,-2,15,9,-2,2,1,0,-1,0.0
15.71,0,-7,-9,-1,-5,-2,-1,0,0.0
15.715,3,14,-1,-4,0,-3,-1,-2,0.0
15.72,1,11,6,3,0,0,-1,2,0.0
15.725,-1,21,-26,-4,2,-3,-2,-4,0.0
15.73,-14,-16,9,2,0,3,1,-5,0.0
15.735000000000001,1,27,1,-3,-3,-2,-2,0,0.0
15.74,4,30,-2,1,-3,-1,0,0,0.0
15.745000000000001,-6,-16,0,1,-1,0,-3,-4,0.0
15.75,-6,-66,-26,1,1,0,0,1,0.0
15.755,-8,-6,7,0,1,1,3,0,0.0
15.76,-1,-3,-1,-1,-3,-1,-1,6,0.0
15.765,-4,-28,4,1,-1,0,-2,-2,0.0
15.77,11,24,0,1,-1,-1,2,7,0.0
15.775,-10,13,20,1,-1,-1,-1,-8,0.0
15.780000000000001,8,-12,0,-3,-4,-3,-1,-1,0.0
15.785,-2,6,11,-1,0,1,0,-2,0.0
15.790000000000001,4,2,-4,-4,0,-1,-3,1,0.0
15.795,-1,6,10,0,-4,-2,-2,0,0.0
15.8,-4,-17,-10,0,-1,-1,0,-1,0.0
15.805,1,6,-3,-3,-4,-4,-3,0,0.0
15.81,-5,12,13,3,1,5,2,-5,0.0
15.815,-1,7,-17,-2,-2,-3,0,-1,0.0
15.82,-4,48,14,0,1,0,-2,-1,0.0
15.825000000000001,-1,0,-16,-5,-6,-2,1,2,0.0
15.83,-2,3,1,-7,0,-3,-3,-3,0.0
15.835,2,-5,-4,-3,-1,1,-1,0,0.0
15.84,-4,-13,-4,-2,0,2,1,3,0.0
15.845,5,-51,-5,-3,0,-3,-2,8,0.0
15.85,-13,-8,-5,1,0,0,-1,-9,0.0
15.855,6,1,-9,-2,-2,-1,0,4,0.0
15.860000000000001,6,-1,-5,-4,-4,0,0,1,0.0
15.865,-10,-29,13,3,-2,0,0,-5,0.0
15.870000000000001,-1,-3,9,-2,-2,-2,-2,1,0.0
15.875,-2,-27,14,3,4,2,-1,-4,0.0
15.88,-3,-3,24,1,1,-2,-2,-2,0.0
15.885,-1,15,-28,-6,-4,-2,-3,-1,0.0
15.89,-5,0,-9,-1,-3,-3,0,-1,0.0
15.895,0,1,-4,-2,0,-2,-3,0,0.0
15.9,4,5,12,4,1,-2,-3,-2,0.0
15.905000000000001,-1,56,-4,-6,0,1,1,0,0.0
15.91,4,3,9,-2,-1,-2,-1,0,0.0
15.915000000000001,5,-14,-8,-1,-2,-4,-3,1,0.0
15.92,-6,-43,-8,3,-2,-2,-1,-1,0.0
15.925,5,-24,-10,0,-1,-3,-2,-4,0.0
15.93,8,21,-7,-5,-2,-3,-2,3,0.0
15.935,-17,-37,9,2,0,4,3,0,0.0
15.94,-1,-3,-13,-3,-5,-1,-1,-2,0.0
15.945,-4,-1,9,-1,-2,0,-3,-3,0.0
15.950000000000001,2,2,19,3,-2,-4,-4,-1,0.0
15.955,19,68,-6,-4,-2,1,2,1,0.0
15.96,-10,14,-8,-3,2,1,0,-1,0.0
15.965,-9,2,18,0,-7,-4,-5,-9,0.0
15.97,8,-5,-19,-1,-2,-1,-2,0,0.0
15.975,-3,1,10,1,-2,-2,-1,-3,0.0
15.98,6,-9,-3,0,-2,0,3,4,0.0
15.985000000000001,-2,15,0,-2,0,-2,-1,1,0.0
15.99,-5,-4,8,-2,-2,-2,0,-3,0.0
15.995000000000001,0,-7,-4,0,-1,-2,0,1,0.0
16.0,-2,9,2,-2,-2,-3,-2,-4,0.0
16.005,-5,34,-5,0,1,1,1,-3,0.0
16.01,-5,13,-26,-4,0,3,-1,1,0.0
16.015,-7,-20,-11,-6,-3,-2,-4,-3,0.0
16.02,2,6,1,-1,-2,-2,-3,-2,0.0
16.025,3,-1,8,-1,-1,-2,-2,1,0.0
16.03,7,29,21,3,1,0,0,2,0.0
16.035,-11,-8,-22,-4,1,0,-1,-1,0.0
16.04,0,-12,-9,-6,-6,-5,-3,-2,0.0
16.045,-6,-24,5,5,4,3,3,1,0.0
16.05,2,14,0,-3,-6,-3,-2,0,0.0
16.055,0,-12,11,2,-2,-3,1,-1,0.0
16.06,2,0,-2,-3,-1,-2,-2,-3,0.0
16.065,-4,-9,-9,0,-2,2,0,-2,0.0
16.07,-3,-22,-1,-3,-1,-3,-1,-1,0.0
16.075,1,8,8,-1,-4,-3,0,-1,0.0
16.080000000000002,-2,21,-17,-8,-3,-2,0,0,0.0
16.085,1,-3,7,2,-3,-1,-1,1,0.0
16.09,-2,-23,2,-5,-2,-2,-2,-3,0.0
16.095,1,43,-9,3,-2,-1,-1,-2,0.0
16.1,2,13,25,3,0,3,-2,-1,0.0
16.105,-7,-32,-8,-4,2,0,1,-3,0.0
16.11,-3,10,17,-1,-1,-2,-1,2,0.0
16.115000000000002,-2,-20,-18,-6,-3,0,-1,-1,0.0
16.12,-1,-2,-1,-2,0,-1,-2,-1,0.0
16.125,12,8,1,2,-1,-2,1,8,0.0
16.13,-18,-27,5,-1,0,-1,-3,-15,0.0
16.135,0,-7,-9,-1,1,-2,-4,-3,0.0
16.14,-1,-5,-1,4,0,0,-2,-1,0.0
16.145,5,4,-20,-7,-2,-3,0,2,0.0
16.15,5,5,-9,-1,3,2,2,4,0.0
16.155,-3,2,3,-3,-5,-2,0,1,0.0
16.16,-2,-4,-5,0,-1,-1,-2,-3,0.0
16.165,-2,-15,18,2,1,-1,-1,-1,0.0
16.17,1,-4,-10,1,-4,-2,1,-2,0.0
16.175,-2,4,10,-2,0,-1,-1,-5,0.0
16.18,-2,-18,-12,-8,-2,0,0,1,0.0
16.185,-7,1,6,0,1,-1,-2,-1,0.0
16.19,-1,-5,-3,-2,-1,-2,-1,-1,0.0
16.195,-4,-14,-1,2,1,-2,0,-1,0.0
16.2,-3,-49,1,-1,-4,-4,-4,-4,0.0
16.205000000000002,0,-22,-6,0,-4,-2,-4,-1,0.0
16.21,-10,-6,-9,-1,2,4,3,-3,0.0
16.215,-3,-10,7,1,9,1,1,0,0.0
16.22,-3,-3,-3,1,-1,-1,0,-1,0.0
16.225,-3,19,-18,-3,-1,-1,-1,-3,0.0
16.23,1,5,11,1,-4,-3,-3,1,0.0
16.235,-5,2,9,-4,-5,-5,-4,-3,0.0
16.240000000000002,-5,11,-9,-2,1,1,0,-1,0.0
16.245,-1,16,9,1,-1,-1,1,-1,0.0
16.25,7,17,0,-3,1,-1,-2,3,0.0
16.255,0,5,-1,-2,-1,0,0,-2,0.0
16.26,-7,2,5,1,3,0,-3,-2,0.0
16.265,8,12,0,-1,-4,-2,1,-2,0.0
16.27,2,-5,10,-1,-4,-2,-1,5,0.0
16.275,-9,-3,5,-3,-3,-3,-4,-11,0.0
16.28,2,12,-10,-2,-2,-1,-2,5,0.0
16.285,1,1,24,1,0,-1,-2,-3,0.0
16.29,-8,10,-24,-6,2,1,-2,-3,0.0
16.295,3,4,14,0,-6,-2,-2,2,0.0
16.3,1,3,14,-1,1,0,1,1,0.0
16.305,-6,-10,-9,-4,0,1,2,2,0.0
16.31,-2,-4,13,1,-2,-4,-2,-3,0.0
16.315,5,9,-7,0,-2,-1,-1,1,0.0
16.32,-3,17,-7,-2,-1,1,-1,-1,0.0
16.325,-8,-15,-6,-1,-3,-1,-1,0,0.0
16.330000000000002,0,1,0,2,-1,-2,-2,-3,0.0
16.335,1,8,-10,-2,1,0,-1,3,0.0
16.34,-3,-20,19,2,-1,-1,-1,-3,0.0
16.345,0,12,-14,-2,1,2,-1,1,0.0
16.35,-1,13,8,-4,-6,-7,-8,-10,0.0
16.355,-14,-58,1,1,-1,2,3,1,0.0
16.36,-10,1,-12,-4,-4,-1,0,0,0.0
16.365000000000002,0,5,4,0,0,-3,-3,-2,0.0
16.37,1,-3,3,6,0,-1,0,2,0.0
16.375,4,-8,-6,-2,0,-4,-2,0,0.0
16.38,2,2,-7,-2,-2,-2,-1,0,0.0
16.385,-6,-21,3,-2,-1,-2,-1,-1,0.0
16.39,5,56,3,-4,0,3,2,0,0.0
16.395,2,-2,-3,-3,-8,-4,-2,3,0.0
16.4,2,-5,-7,-2,-3,-3,0,2,0.0
16.405,-3,2,-2,-2,0,-2,0,-1,0.0
16.41,-1,-25,-1,-1,-2,-3,0,-2,0.0
16.415,4,1,1,2,3,0,-1,5,0.0
16.42,-5,5,-2,-1,1,0,-1,-4,0.0
16.425,-2,-11,3,-1,-3,-1,-3,-2,0.0
16.43,-4,-18,-6,0,-2,-2,-2,0,0.0
16.435,0,3,-1,-2,0,0,0,-1,0.0
16.44,7,0,11,1,0,-4,-4,0,0.0
16.445,-14,-26,-8,-1,0,5,1,-2,0.0
16.45,0,-4,-8,1,0,0,-1,-6,0.0
16.455000000000002,8,54,-5,-7,-7,-3,-1,3,0.0
16.46,0,1,-2,-1,-1,-1,1,-1,0.0
16.465,8,11,18,0,-2,-4,-3,0,0.0
16.47,-6,2,-53,-8,-1,3,0,-1,0.0
16.475,-7,-28,19,2,2,1,0,-3,0.0
16.48,8,18,-60,-10,-3,-1,-2,2,0.0
16.485,0,-1,18,-3,-2,-2,-1,-2,0.0
16.490000000000002,-4,-25,6,2,-1,-1,1,4,0.0
16.495,6,10,-2,0,3,-1,0,-3,0.0
16.5,-1,10,0,-2,-4,-2,-2,-3,0.0
16.505,0,13,-4,2,-3,-3,-1,-2,0.0
16.51,-2,-37,-6,-2,-1,-2,0,3,0.0
16.515,-11,-10,0,-1,0,-2,-1,-3,0.0
16.52,-1,-14,8,4,-1,-1,0,-1,0.0
16.525,-2,12,1,0,1,0,-1,-3,0.0
16.53,-7,-12,16,1,1,0,0,-2,0.0
16.535,3,11,7,0,-1,-2,-2,2,0.0
16.54,-4,-18,-9,-3,-4,-2,0,0,0.0
16.545,2,2,-2,0,-4,-4,-1,-2,0.0
16.55,6,11,0,-1,-3,-2,-2,2,0.0
16.555,-8,3,-18,0,0,0,-2,-2,0.0
16.56,-9,-32,18,0,-2,-2,-3,-1,0.0
16.565,2,-6,-8,-5,-3,0,0,1,0.0
16.57,1,48,-26,-4,-3,-5,-4,-2,0.0
16.575,-3,2,18,1,1,2,0,-4,0.0
16.580000000000002,-1,-7,10,-2,-3,-3,-2,1,0.0
16.585,-2,-1,-1,-1,-1,0,-1,1,0.0
16.59,1,-33,-1,-2,-1,0,-1,-3,0.0
16.595,2,8,-6,1,0,-1,-1,4,0.0
16.6,-11,11,-3,-3,-3,-1,-3,-11,0.0
16.605,1,-6,3,0,0,0,-2,-2,0.0
16.61,3,17,14,-1,-1,-1,0,1,0.0
16.615000000000002,5,0,-13,-3,-1,-2,-4,1,0.0
16.62,0,11,17,-2,2,1,3,0,0.0
16.625,-6,-11,-31,-3,-2,-1,-2,-2,0.0
16.63,0,-7,6,0,-1,-1,0,-4,0.0
16.635,-2,-16,7,1,-1,-1,-2,-5,0.0
16.64,0,-35,-9,0,4,1,-2,-2,0.0
16.645,-5,7,1,3,-1,-2,-4,-4,0.0
16.65,-2,-19,-6,-6,-1,2,-1,1,0.0
16.655,-3,-3,9,-1,-2,-1,-1,-2,0.0
16.66,1,-5,8,1,1,-3,0,0,0.0
16.665,-2,11,-3,-4,5,0,-1,2,0.0
16.67,-3,2,18,1,-4,-1,0,-1,0.0
16.675,-5,-44,-12,1,1,1,0,-1,0.0
16.68,-7,11,2,-2,-1,3,0,0,0.0
16.685,0,-5,11,-2,-2,-3,-3,-8,0.0
16.69,1,5,7,-2,-1,-2,-1,-1,0.0
16.695,1,12,1,-3,-4,-2,-4,0,0.0
16.7,6,11,0,3,0,2,-1,3,0.0
16.705000000000002,-3,7,2,-3,1,0,1,1,0.0
16.71,-11,-33,-21,-3,-1,-2,-3,-3,0.0
16.715,-4,-1,-7,0,-2,0,1,-4,0.0
16.72,4,2,5,3,-2,-5,-5,-3,0.0
16.725,2,28,3,-1,-3,1,0,-1,0.0
16.73,2,5,6,0,-1,-2,-1,1,0.0
16.735,-5,16,-4,0,-1,-2,-2,-2,0.0
16.740000000000002,-4,-4,0,-2,-2,-4,-2,-1,0.0
16.745,-11,-23,-18,1,-2,-1,-2,0,0.0
16.75,7,-21,3,2,-1,-3,0,0,0.0
16.755,4,38,11,-5,-2,-2,-2,0,0.0
16.76,-4,-14,0,1,2,2,1,-1,0.0
16.765,3,1,5,1,-3,-1,1,3,0.0
16.77,-9,3,-1,1,0,0,0,-4,0.0
16.775,2,-17,-4,-3,-1,-3,-5,-1,0.0
16.78,-4,1,1,-1,0,0,1,0,0.0
16.785,0,-27,-2,2,1,-1,-3,-1,0.0
16.79,3,6,14,-1,-1,-1,1,1,0.0
16.795,2,7,-1,-7,-1,1,2,1,0.0
16.8,-2,-14,-3,-2,-5,-3,0,-2,0.0
16.805,1,-7,-4,0,-1,-1,-1,1,0.0
16.81,-2,10,1,1,0,1,-1,-2,0.0
16.815,0,-1,-1,-1,-2,-4,-2,-3,0.0
16.82,0,-17,-20,-5,1,1,0,1,0.0
16.825,-9,-15,11,-2,-3,-2,0,0,0.0
16.830000000000002,-3,0,10,0,0,-1,0,-1,0.0
16.835,4,2,-12,-3,-5,-3,-3,-5,0.0
16.84,3,64,-1,0,1,0,-3,-1,0.0
16.845,-6,-21,-11,-1,-2,-2,0,-1,0.0
16.85,-3,16,-10,-4,-1,1,0,2,0.0
16.855,-6,-14,6,3,0,1,0,0,0.0
16.86,-3,2,7,-2,-3,-3,-1,-5,0.0
16.865000000000002,7,15,4,-4,-2,-2,-2,1,0.0
16.87,8,5,5,0,1,-2,-3,1,0.0
16.875,-12,-2,-11,0,0,0,2,-2,0.0
16.88,0,-14,1,-1,0,1,-4,-2,0.0
16.885,3,20,18,-3,-3,-2,1,-1,0.0
16.89,-7,-31,-9,1,0,-2,-1,0,0.0
16.895,0,8,11,-2,-1,-1,-3,1,0.0
16.9,8,15,6,5,-2,-2,-1,7,0.0
16.905,-15,48,-4,-9,1,1,0,-13,0.0
16.91,4,1,12,-1,-3,-1,-3,0,0.0
16.915,-2,-22,-10,-1,2,1,0,0,0.0
16.92,4,2,-2,-4,-5,-7,-2,-1,0.0
16.925,-1,-54,18,6,6,4,0,-1,0.0
16.93,-7,10,-2,-2,-7,-4,-2,-7,0.0
16.935,-4,-29,-19,-1,-1,-1,0,2,0.0
16.94,3,18,-11,-4,-1,0,0,2,0.0
16.945,6,-2,-2,-2,-4,-2,-2,2,0.0
16.95,0,3,-4,-3,-1,-1,-1,-4,0.0
16.955000000000002,4,9,19,4,-3,-4,-3,5,0.0
16.96,-12,-13,6,1,-1,-1,-1,-4,0.0
16.965,8,13,-14,-6,-4,-2,-1,1,0.0
16.97,2,3,-2,-2,1,0,-1,1,0.0
16.975,-6,19,-13,-5,-2,1,2,-1,0.0
16.98,0,20,2,-4,-4,-1,-2,-5,0.0
16.985,3,23,-19,-4,-4,-2,-1,0,0.0
16.990000000000002,1,-16,-2,1,1,-2,0,3,0.0
16.995,6,2,-2,-2,-1,-2,-2,2,0.0
17.0,-14,-20,17,7,2,1,0,-4,0.0
17.005,2,-39,-4,0,-5,-5,-4,0,0.0
17.01,-5,31,-7,-1,-1,1,-1,-4,0.0
17.015,-5,-3,8,-1,1,-1,-2,-6,0.0
17.02,-4,-10,6,-2,0,0,-2,-3,0.0
17.025,3,-5,-5,-3,1,-1,-1,-3,0.0
17.03,-6,-20,-7,-2,-2,-1,-3,7,0.0
17.035,-3,-54,-7,-2,-3,1,1,0,0.0
17.04,0,14,-4,-1,-3,-2,-1,3,0.0
17.045,2,28,-7,-1,3,1,-1,3,0.0
17.05,-5,-1,3,0,-2,0,0,-6,0.0
17.055,-2,0,14,-3,-1,1,0,-6,0.0
17.06,12,2,2,-6,-4,-4,-1,3,0.0
17.065,-11,-19,-3,4,0,0,0,-1,0.0
17.07,0,-34,11,5,1,-3,-1,-3,0.0
17.075,-6,17,2,-4,-3,0,0,-2,0.0
17.080000000000002,-8,-7,3,3,0,-1,-2,-4,0.0
17.085,-2,-3,18,-1,-2,0,0,0,0.0
17.09,2,7,-25,-7,-3,-1,-1,0,0.0
17.095,2,2,13,3,-1,-2,0,-2,0.0
17.1,1,-22,-22,-3,-3,-2,-1,1,0.0
17.105,-1,-14,-17,-3,-3,-3,-2,-1,0.0
17.11,-2,-5,1,-2,0,-1,0,0,0.0
17.115000000000002,-3,-15,10,3,2,-1,-1,-2,0.0
17.12,-2,-11,-31,-3,-1,2,1,1,0.0
17.125,-1,-8,17,4,-2,-2,-1,1,0.0
17.13,4,1,-12,-5,-6,-4,-1,-5,0.0
17.135,-1,0,-3,1,0,0,1,0,0.0
17.14,-4,-12,7,1,-3,-2,-1,-1,0.0
17.145,4,-1,1,3,2,0,0,1,0.0
17.150000000000002,-5,4,3,-2,-1,-1,-1,-2,0.0
17.155,-2,8,12,5,0,-2,-2,-4,0.0
17.16,7,18,2,-7,-2,0,-2,0,0.0
17.165,-4,-1,9,3,1,0,-2,-2,0.0
17.17,-1,-49,-10,-3,-4,-3,1,2,0.0
17.175,2,2,-3,0,-4,-2,-2,-1,0.0
17.18,0,-16,2,-1,-2,-2,-2,-2,0.0
17.185,-2,6,-17,-5,-1,-1,-1,2,0.0
17.19,-2,16,24,1,0,2,1,-3,0.0
17.195,-1,-27,-29,-1,-1,-2,0,3,0.0
17.2,-15,7,6,-1,-1,-2,-1,-10,0.0
17.205000000000002,9,16,11,-2,0,-3,-2,-2,0.0
17.21,1,37,-9,-4,-2,-2,-2,4,0.0
17.215,2,3,7,-3,-1,-1,-2,1,0.0
17.22,5,-11,6,6,0,-2,-2,2,0.0
17.225,-12,9,8,-6,0,1,2,-4,0.0
17.23,5,-10,-17,-1,-3,-3,-4,-4,0.0
17.235,0,14,-2,-2,-2,-1,0,-2,0.0
17.240000000000002,0,-5,1,-1,-1,-2,-1,1,0.0
17.245,2,1,-2,-3,-1,-2,-4,-1,0.0
17.25,-3,-27,-3,2,0,2,-1,1,0.0
17.255,-2,8,1,-5,-3,-3,-3,-1,0.0
17.26,-7,-18,6,0,4,2,1,1,0.0
17.265,0,-17,-20,-2,-4,-3,-3,-5,0.0
17.27,-5,27,-2,0,0,2,-1,-3,0.0
17.275000000000002,1,4,-1,-1,-1,-1,-1,2,0.0
17.28,-14,6,8,0,0,-1,-1,-7,0.0
17.285,4,-14,-11,-1,-3,-4,-3,-1,0.0
17.29,-2,-17,19,4,0,0,0,2,0.0
17.295,0,-17,-25,-6,1,-3,-2,-2,0.0
17.3,-8,4,-1,2,-1,1,0,0,0.0
17.305,-5,4,10,0,-3,-1,-1,-1,0.0
17.31,-3,5,-9,-3,0,-1,-1,-3,0.0
17.315,1,5,7,0,0,-2,-1,0,0.0
17.32,5,-4,-8,-2,-4,-2,-3,1,0.0
17.325,-3,2,-12,0,0,0,-1,-2,0.0
17.330000000000002,2,6,14,1,2,-4,-4,-4,0.0
17.335,-15,6,1,0,0,3,2,-3,0.0
17.34,-1,-31,-8,-3,-4,-2,-2,0,0.0
17.345,4,15,8,5,1,0,-1,-1,0.0
17.35,6,5,32,-2,2,0,4,5,0.0
17.355,-9,-15,-50,-10,-8,-4,-6,-12,0.0
17.36,3,2,4,-3,-1,-3,-2,2,0.0
17.365000000000002,-2,5,6,1,-2,-1,0,0,0.0
17.37,2,0,-13,-4,-3,-4,-2,0,0.0
17.375,3,-2,14,3,1,-1,-1,-1,0.0
17.38,-2,-6,-5,0,-1,1,-1,1,0.0
17.385,1,-3,0,-4,-1,-1,-1,-4,0.0
17.39,-3,5,-13,0,-1,-2,1,-1,0.0
17.395,1,11,20,0,-1,-1,0,1,0.0
17.400000000000002,0,8,-15,-5,-1,-3,-1,-2,0.0
17.405,-7,-3,4,0,1,2,0,-1,0.0
17.41,-3,-1,2,-5,-3,2,-2,-2,0.0
17.415,-13,-6,-21,1,0,-2,-2,-1,0.0
17.42,15,10,5,1,0,-1,0,5,0.0
17.425,-14,2,0,-1,-2,-1,-2,-6,0.0
17.43,-1,-8,7,-2,-3,-1,-1,4,0.0
17.435,6,9,5,0,-3,-2,1,3,0.0
17.44,-1,9,1,-5,-4,-1,-1,1,0.0
17.445,4,-19,-10,-2,-2,0,1,4,0.0
17.45,2,57,-6,0,-3,-3,-2,-3,0.0
17.455000000000002,13,26,24,1,-1,-2,-3,4,0.0
17.46,-19,-16,-37,0,4,2,1,0,0.0
17.465,2,5,13,1,-5,-3,-2,-3,0.0
17.47,0,-8,20,4,-1,-3,-2,-4,0.0
17.475,-3,-11,0,-2,1,2,1,-1,0.0
17.48,3,10,5,0,-2,-3,-3,-2,0.0
17.485,3,-3,-12,-4,0,-2,-1,4,0.0
17.490000000000002,-21,-34,-7,5,3,5,0,-4,0.0
17.495,-3,-6,-3,-3,-5,-2,-2,-5,0.0
17.5,-4,-21,12,4,0,1,-3,-3,0.0
17.505,-13,2,3,5,-2,-1,1,-3,0.0
17.51,15,19,0,-2,-2,-4,-3,-1,0.0
17.515,-6,-1,-2,-5,-1,2,1,3,0.0
17.52,-4,-15,6,-1,-1,-1,-3,-5,0.0
17.525000000000002,4,-5,-34,-8,-2,-3,-3,-2,0.0
17.53,-8,-39,13,5,4,0,0,-5,0.0
17.535,-3,22,1,-4,1,1,-1,-2,0.0
17.54,-6,0,-13,-1,0,1,1,-3,0.0
17.545,4,-6,15,1,-1,-1,-2,-2,0.0
17.55,1,29,-1,-1,-1,1,-2,-1,0.0
17.555,-1,-20,5,2,-2,-2,-1,-3,0.0
17.56,-2,9,10,0,0,3,1,-3,0.0
17.565,-1,-10,4,1,0,-1,1,1,0.0
17.57,-5,-22,-4,-4,-2,-3,-2,-5,0.0
17.575,2,-5,7,-3,1,0,-4,2,0.0
17.580000000000002,2,18,-2,1,-2,-6,-2,1,0.0
17.585,2,25,11,0,1,-2,-1,2,0.0
17.59,-6,-18,0,-3,-3,-5,-3,-8,0.0
17.595,0,9,-22,1,-1,0,-2,1,0.0
17.6,-7,-21,-2,-5,0,-1,0,-2,0.0
17.605,8,23,20,0,-2,-1,-2,2,0.0
17.61,5,15,-24,-6,2,1,1,3,0.0
17.615000000000002,-4,-8,11,-3,-5,-4,-2,-3,0.0
17.62,1,-2,8,1,-1,0,1,-3,0.0
17.625,-1,-7,-19,-3,-2,-1,0,0,0.0
17.63,3,13,6,-2,-1,-2,-2,2,0.0
17.635,-1,-22,10,5,0,-2,1,0,0.0
17.64,-3,-7,3,-6,-1,-3,-4,-4,0.0
17.645,-6,-13,-16,-7,-1,0,0,-2,0.0
17.650000000000002,-5,-7,-3,-1,-6,-2,-2,-1,0.0
17.655,7,15,-3,-1,-2,-1,-2,-2,0.0
17.66,1,9,4,3,-4,-1,0,4,0.0
17.665,2,9,23,-3,-5,-3,0,-6,0.0
17.67,-7,15,-45,-8,-2,0,1,3,0.0
17.675,-9,-18,4,2,-2,1,-2,0,0.0
17.68,11,18,5,-4,-1,-5,-3,0,0.0
17.685,-4,-17,-7,5,-1,1,-3,-3,0.0
17.69,0,5,4,0,1,-1,2,0,0.0
17.695,2,4,14,0,0,-1,-2,-1,0.0
17.7,-1,58,-23,-5,-2,-1,0,1,0.0
17.705000000000002,-4,-16,-14,-3,2,0,0,-1,0.0
17.71,-1,-12,19,-1,-4,-2,-1,0,0.0
17.715,4,2,4,0,1,-1,2,2,0.0
17.72,-9,-19,-8,2,2,0,-1,-7,0.0
17.725,-2,7,3,-2,-2,-3,-2,0,0.0
17.73,-2,1,-13,-1,-2,0,-1,4,0.0
17.735,-5,-36,-18,-5,-1,-1,-2,-3,0.0
17.740000000000002,6,9,19,4,3,1,1,9,0.0
17.745,-7,-13,-18,-6,-8,-6,-5,-9,0.0
17.75,6,3,5,-5,0,-1,-2,-1,0.0
