0.01,0,1,4,2,1,1,3,2
0.015,2,3,1,1,1,2,2,1
0.02,1,1,1,5,4,2,1,2
0.025,0,0,3,6,2,2,2,0
0.03,1,2,1,2,5,1,4,1
0.035,1,2,2,4,3,2,2,1
0.04,0,1,0,1,2,1,2,1
0.045,1,2,3,2,1,1,0,2
0.05,1,0,5,5,2,0,1,1
0.055,1,1,11,0,5,3,3,3
0.06,1,1,10,1,1,1,1,1
0.065,1,1,3,0,1,0,1,0
0.07,3,0,3,5,1,3,4,3
0.075,0,2,11,9,5,2,2,1
0.08,2,1,5,4,4,2,1,2
0.085,2,4,7,4,0,1,1,1
0.09,2,1,4,2,0,1,2,2
0.095,0,1,3,1,3,3,1,2
0.1,2,0,3,4,0,1,1,2
0.105,1,2,1,5,0,0,0,0
0.11,0,2,5,9,2,2,1,1
0.115,3,2,1,3,3,1,2,1
0.12,2,3,6,8,8,3,5,0
0.125,1,1,2,4,3,1,1,1
0.13,2,3,8,1,2,1,0,2
0.135,1,1,9,3,3,1,1,2
0.14,1,5,7,3,3,5,2,2
0.145,0,1,8,3,3,1,2,2
0.15,0,3,16,2,2,1,0,0
0.155,0,1,4,3,3,1,1,1
0.16,3,1,1,1,1,2,1,2
0.165,0,1,3,1,1,4,3,0
0.17,1,1,0,2,2,2,1,3
0.175,3,2,2,4,6,5,3,1
0.18,1,0,3,2,2,2,1,1
0.185,2,2,6,7,8,3,4,3
0.19,0,2,4,0,0,1,0,1
0.195,0,2,7,2,1,3,2,2
0.2,2,1,2,3,0,1,1,2
0.205,1,0,0,8,4,2,0,1
0.21,3,8,1,1,3,4,2,4
0.215,1,2,7,1,3,1,2,1
0.22,3,4,14,0,4,3,2,3
0.225,2,0,1,0,3,1,1,1
0.23,1,3,4,4,5,3,1,1
0.235,2,5,2,2,5,6,4,3
0.24,1,3,4,4,3,0,1,0
0.245,2,3,5,0,2,2,1,0
0.25,0,1,1,4,1,1,1,2
0.255,1,1,3,1,7,2,2,1
0.26,0,1,2,3,2,3,0,1
0.265,2,1,4,0,0,1,2,1
0.27,1,1,3,0,4,0,1,1
0.275,1,2,2,4,2,2,3,1
0.28,1,2,4,4,2,1,0,1
0.285,0,2,3,6,2,2,0,1
0.29,0,5,11,4,2,2,2,1
0.295,2,1,4,3,1,0,1,2
0.3,1,3,1,0,0,3,1,0
0.305,2,3,1,4,3,2,2,2
0.31,1,0,4,5,6,3,1,1
0.315,1,3,6,2,1,1,1,1
0.32,0,1,7,1,2,3,0,2
0.325,2,2,4,1,1,2,1,1
0.33,2,2,2,5,6,1,4,4
0.335,1,2,2,3,2,0,0,4
0.34,2,2,3,15,4,1,0,2
0.345,1,1,4,8,3,1,4,2
0.35,2,1,2,3,1,1,2,0
0.355,1,2,1,4,1,1,0,1
0.36,0,0,2,8,1,5,3,3
0.365,2,1,10,2,1,2,2,1
0.37,0,4,6,3,1,1,1,2
0.375,1,1,3,4,5,3,1,2
0.38,2,4,2,3,2,0,2,1
0.385,3,4,3,1,2,5,4,4
0.39,1,0,3,3,6,0,2,1
0.395,1,0,3,1,0,7,4,2
0.4,0,1,6,1,1,3,3,0
0.405,0,2,0,3,1,4,1,0
0.41,3,8,14,8,2,1,0,2
0.415,2,3,2,5,6,1,1,1
0.42,1,2,2,2,4,4,4,2
0.425,1,1,1,7,3,1,0,3
0.43,0,1,2,1,5,2,1,2
0.435,1,3,3,1,1,2,2,1
0.44,2,4,1,2,3,2,2,3
0.445,1,1,6,6,0,0,0,0
0.45,1,0,3,8,2,2,1,1
0.455,2,0,3,14,1,1,0,1
0.46,2,1,10,5,2,1,0,1
0.465,2,3,10,5,2,3,2,1
0.47,1,1,9,3,1,1,1,1
0.475,1,1,1,2,3,0,1,0
0.48,1,1,6,3,1,2,1,1
0.485,1,1,1,1,0,2,2,1
0.49,2,1,2,1,1,1,1,0
0.495,1,0,7,6,1,2,2,0
0.5,3,6,4,13,7,3,4,3
0.505,0,2,12,4,0,0,1,3
0.51,0,1,2,1,2,1,1,1
0.515,0,1,2,3,0,2,0,1
0.52,2,1,1,4,2,1,0,1
0.525,2,0,4,0,4,2,3,3
0.53,2,1,10,6,2,4,5,3
0.535,2,3,3,12,2,1,0,2
0.54,1,1,2,8,3,1,0,0
0.545,2,0,1,0,1,0,0,0
0.55,2,2,13,13,0,1,0,0
0.555,1,2,2,3,3,2,4,2
0.56,0,0,7,10,5,1,2,1
0.565,2,2,11,6,1,0,0,1
0.57,5,3,9,5,2,2,1,0
0.575,2,1,3,3,2,2,2,1
0.58,2,0,3,0,4,1,1,0
0.585,1,1,9,10,3,1,3,2
0.59,2,1,2,5,2,1,1,0
0.595,1,2,6,3,2,1,1,0
0.6,0,3,2,3,7,1,2,1
0.605,1,1,0,6,5,1,0,2
0.61,4,2,4,9,5,2,1,4
0.615,0,1,4,1,3,4,2,1
0.62,0,0,7,0,3,3,3,0
0.625,2,5,7,2,3,3,3,3
0.63,2,2,6,1,0,1,2,2
0.635,0,0,4,1,2,2,0,1
0.64,1,1,7,4,1,4,3,2
0.645,3,2,4,6,7,2,1,1
0.65,1,0,4,9,3,0,0,1
0.655,2,1,9,14,4,3,1,0
0.66,1,3,2,1,3,2,3,3
0.665,0,1,2,0,2,2,1,0
0.67,0,4,15,18,1,0,2,2
0.675,3,3,16,14,1,1,1,3
0.68,1,2,7,8,12,4,3,0
0.685,2,2,2,2,1,0,0,2
0.69,1,1,1,2,3,0,2,1
0.695,1,0,8,12,0,3,1,1
0.7,1,2,4,9,3,4,1,2
0.705,1,0,1,8,1,3,2,1
0.71,2,3,2,6,4,1,2,0
0.715,0,3,2,12,6,1,2,3
0.72,2,0,1,11,8,1,1,1
0.725,2,3,3,1,1,2,1,1
0.73,0,0,5,5,9,4,1,1
0.735,1,1,1,2,1,2,2,0
0.74,0,1,2,8,5,5,3,2
0.745,0,1,4,11,3,4,1,3
0.75,2,2,16,7,2,1,3,2
0.755,1,2,2,6,0,1,2,0
0.76,1,2,8,3,2,1,0,3
0.765,1,0,4,1,0,0,1,1
0.77,0,1,2,9,0,1,1,2
0.775,0,0,1,2,1,5,3,1
0.78,2,1,1,6,1,1,4,2
0.785,1,4,5,0,2,4,4,2
0.79,0,2,12,1,1,1,0,0
0.795,2,1,7,8,2,2,1,1
0.8,4,6,7,6,4,4,4,2
0.805,1,0,10,10,3,1,1,2
0.81,2,3,6,9,1,2,3,2
0.815,2,0,3,10,9,1,2,2
0.82,2,2,0,4,2,3,1,0
0.825,2,1,2,6,6,5,0,1
0.83,1,1,0,2,9,3,0,0
0.835,3,0,3,1,1,6,4,1
0.84,1,1,5,3,0,1,3,1
0.845,4,4,3,6,2,5,3,4
0.85,1,0,6,1,0,2,0,4
0.855,1,0,2,3,3,0,0,2
0.86,0,1,2,4,2,4,1,0
0.865,1,0,13,6,2,1,1,0
0.87,0,1,1,5,2,3,3,2
0.875,1,3,5,11,5,1,2,1
0.88,2,0,4,3,4,1,0,2
0.885,2,1,9,6,1,1,1,0
0.89,2,1,13,4,6,0,3,2
0.895,2,3,5,0,1,1,1,1
0.9,1,1,1,4,1,0,1,1
0.905,1,3,6,13,4,2,3,2
0.91,1,3,4,3,7,6,1,3
0.915,1,2,2,3,2,1,2,2
0.92,0,1,4,2,2,2,0,1
0.925,0,2,15,1,4,0,2,1
0.93,2,2,5,3,1,1,2,2
0.935,2,8,17,6,5,1,1,3
0.94,2,0,0,4,0,2,1,1
0.945,1,1,3,7,0,3,2,1
0.95,1,0,0,0,7,3,0,0
0.955,1,0,8,2,5,3,1,1
0.96,3,1,8,1,1,3,2,2
0.965,1,0,1,6,1,1,0,0
0.97,0,2,4,4,0,0,1,0
0.975,2,3,1,2,1,3,2,3
0.98,1,1,7,7,6,3,1,3
0.985,1,7,27,9,2,0,1,2
0.99,3,4,6,4,2,2,1,2
0.995,0,2,3,1,2,1,2,1
1,0,2,1,1,5,4,5,3
1.005,4,4,0,3,3,1,0,1
1.01,1,3,4,4,7,8,2,1
1.015,1,3,4,2,4,1,1,1
1.02,4,1,0,7,1,2,2,3
1.025,0,5,11,2,11,4,3,2
1.03,2,1,4,3,1,3,2,3
1.035,1,3,9,3,3,4,4,1
1.04,0,0,1,0,2,2,3,1
1.045,0,0,2,1,0,2,1,0
1.05,1,1,1,0,0,1,1,1
1.055,1,0,6,4,2,3,3,3
1.06,1,2,1,8,2,0,0,0
1.065,2,1,5,10,1,1,1,0
1.07,1,3,5,6,0,1,0,1
1.075,1,2,6,11,1,0,1,1
1.08,2,4,5,7,6,4,5,1
1.085,2,2,15,11,3,0,1,1
1.09,1,4,11,3,5,7,2,4
1.095,1,1,0,3,0,3,2,1
1.1,0,4,3,1,2,3,0,1
1.105,1,3,10,3,3,1,4,1
1.11,1,5,4,2,2,3,1,1
1.115,2,3,1,1,2,1,1,2
1.12,1,2,3,5,2,2,2,1
1.125,0,0,0,5,0,3,2,1
1.13,2,1,2,2,2,1,2,3
1.135,2,4,3,4,0,2,1,0
1.14,1,1,3,2,3,4,1,1
1.145,1,2,0,5,2,5,2,3
1.15,3,2,5,2,3,0,2,4
1.155,3,1,0,2,6,1,2,1
1.16,0,3,7,7,1,2,2,1
1.165,2,1,5,3,2,3,1,1
1.17,0,0,1,0,0,4,2,1
1.175,0,2,6,2,2,2,1,2
1.18,5,5,13,4,1,1,2,1
1.185,2,1,7,1,6,0,1,2
1.19,1,2,1,1,0,3,3,1
1.195,0,3,2,0,0,3,2,0
1.2,0,1,7,2,2,2,0,1
1.205,2,0,7,5,2,1,1,1
1.21,2,1,1,2,2,3,1,1
1.215,3,5,4,0,4,4,4,4
1.22,1,0,5,0,6,3,2,3
1.225,1,2,4,5,0,2,1,3
1.23,2,2,0,4,1,2,3,0
1.235,2,2,3,2,0,1,0,1
1.24,2,2,8,5,5,2,2,1
1.245,0,5,18,10,2,3,0,2
1.25,3,2,9,1,2,2,3,1
1.255,1,1,3,3,2,2,2,2
1.26,0,1,6,2,1,0,0,0
1.265,0,1,6,4,3,2,2,2
1.27,2,3,7,10,7,0,1,0
1.275,0,2,2,2,2,5,3,3
1.28,1,3,0,1,4,3,1,1
1.285,1,1,3,8,3,3,2,2
1.29,1,1,4,1,2,4,4,1
1.295,4,2,10,9,1,1,0,1
1.3,2,1,6,7,2,0,1,1
1.305,2,1,5,4,1,2,1,1
1.31,3,1,3,2,1,2,2,1
1.315,1,7,14,8,2,0,0,0
1.32,1,0,4,7,1,2,0,0
1.325,1,5,13,7,5,0,2,1
1.33,1,2,5,2,2,4,3,1
1.335,1,1,6,2,1,1,1,2
1.34,3,3,2,2,2,1,0,0
1.345,1,1,17,15,1,1,2,3
1.35,0,4,9,8,0,1,2,0
1.355,1,1,5,4,4,2,2,2
1.36,2,1,4,14,2,1,0,0
1.365,3,0,8,14,6,5,4,3
1.37,1,0,1,1,4,3,2,0
1.375,2,0,5,1,3,3,2,2
1.38,1,0,5,4,1,2,2,2
1.385,1,1,3,2,3,2,1,0
1.39,2,6,13,2,3,4,1,2
1.395,0,0,6,6,2,0,0,0
1.4,2,2,12,17,9,7,3,1
1.405,2,2,15,2,3,2,1,1
1.41,1,1,4,2,1,2,3,1
1.415,0,1,1,10,2,2,1,1
1.42,1,1,3,2,2,1,2,1
1.425,1,1,5,1,2,1,3,0
1.43,0,4,2,2,0,3,1,1
1.435,3,5,0,3,3,4,2,3
1.44,1,1,0,2,4,0,0,1
1.445,2,1,3,11,2,2,0,0
1.45,2,1,2,8,6,7,5,3
1.455,2,1,1,1,1,1,2,2
1.46,0,1,7,0,2,1,1,0
1.465,1,1,0,6,3,2,3,2
1.47,2,1,10,3,1,1,0,2
1.475,3,2,18,15,0,3,3,0
1.48,2,0,2,2,2,3,3,1
1.485,1,1,17,4,5,0,4,3
1.49,1,2,1,3,2,3,1,2
1.495,0,1,3,4,0,4,3,2
1.5,0,1,5,2,1,2,1,1
1.505,2,4,12,6,1,3,4,1
1.51,1,2,2,0,2,1,2,0
1.515,1,1,7,8,4,4,1,1
1.52,1,4,3,0,2,1,2,1
1.525,3,2,0,0,5,6,1,2
1.53,1,1,2,3,3,1,2,0
1.535,1,2,5,19,3,3,3,1
1.54,0,1,3,3,1,2,1,3
1.545,0,3,15,13,5,3,2,1
1.55,2,2,5,7,2,1,1,2
1.555,3,1,7,5,1,0,1,0
1.56,1,3,13,11,0,2,0,2
1.565,3,3,18,21,1,2,1,2
1.57,1,3,17,8,6,1,2,2
1.575,6,12,21,17,13,8,5,4
1.58,4,1,5,5,1,0,2,5
1.585,2,3,5,2,3,0,1,0
1.59,3,5,25,27,7,0,2,3
1.595,2,1,4,23,3,1,1,0
1.6,6,10,32,1,10,3,3,3
1.605,2,6,9,8,2,1,2,2
1.61,1,2,8,5,3,1,1,1
1.615,0,0,19,3,0,2,5,2
1.62,0,4,19,1,1,1,0,1
1.625,0,1,2,2,1,2,2,2
1.63,2,3,8,1,0,1,2,1
1.635,1,0,11,6,2,1,0,0
1.64,6,1,2,6,2,5,3,1
1.645,3,2,3,3,2,1,1,1
1.65,3,2,9,18,6,3,3,3
1.655,1,1,1,11,0,3,0,0
1.66,2,1,1,3,0,0,2,1
1.665,0,3,2,4,2,1,0,1
1.67,0,1,10,5,2,2,2,0
1.675,2,1,4,9,1,2,0,1
1.68,3,4,22,23,10,4,1,1
1.685,1,1,2,5,1,3,3,1
1.69,1,1,0,5,1,4,3,3
1.695,2,4,3,3,2,1,2,5
1.7,2,1,7,4,2,1,1,1
1.705,1,1,2,2,5,1,1,1
1.71,1,11,15,5,1,2,0,1
1.715,23,5,9,3,3,2,1,0
1.72,26,20,13,9,8,5,8,9
1.725,1,3,7,7,0,1,1,2
1.73,2,1,9,9,0,0,1,0
1.735,1,8,2,2,1,1,2,1
1.74,10,12,5,0,1,1,2,8
1.745,6,10,4,2,8,5,1,1
1.75,13,2,2,1,3,4,5,11
1.755,8,5,6,2,1,1,2,1
1.76,7,2,3,4,0,1,2,4
1.765,3,6,3,3,5,6,5,1
1.77,7,3,9,3,4,4,3,3
1.775,6,6,3,2,5,4,2,1
1.78,4,2,7,4,5,1,1,2
1.785,6,6,7,3,1,5,2,2
1.79,7,14,13,8,8,0,4,4
1.795,7,2,6,9,4,4,1,2
1.8,5,4,10,5,6,2,3,2
1.805,6,4,7,3,6,1,1,3
1.81,2,0,5,6,1,2,1,2
1.815,2,3,1,3,0,2,1,0
1.82,0,1,2,0,2,0,1,2
1.825,4,4,13,14,1,4,2,2
1.83,2,1,6,5,6,4,1,1
1.835,2,3,7,2,5,3,2,3
1.84,3,6,7,6,5,2,4,1
1.845,5,2,1,8,2,1,2,1
1.85,4,8,6,2,3,1,2,1
1.855,5,1,2,9,4,0,1,2
1.86,2,2,2,3,2,5,2,2
1.865,6,5,4,2,2,1,0,1
1.87,6,2,9,1,0,1,0,0
1.875,1,5,0,6,3,1,1,0
1.88,1,2,4,9,3,1,3,0
1.885,5,4,11,5,4,3,3,3
1.89,2,1,2,7,1,1,0,0
1.895,3,1,5,10,1,2,2,1
1.9,2,0,4,12,2,1,1,1
1.905,4,10,4,2,2,1,2,1
1.91,5,3,3,0,0,4,1,1
1.915,2,3,3,2,5,3,2,0
1.92,5,6,19,8,5,7,5,4
1.925,2,2,1,6,0,0,0,2
1.93,1,1,10,6,0,3,1,1
1.935,4,6,4,7,2,4,2,2
1.94,4,4,3,12,10,5,4,4
1.945,2,5,1,1,3,7,4,3
1.95,6,2,2,10,0,1,1,0
1.955,12,4,0,5,4,2,3,4
1.96,2,8,6,2,1,1,2,2
1.965,1,3,2,7,2,3,2,2
1.97,0,3,6,2,1,0,1,1
1.975,5,0,5,3,5,1,2,0
1.98,3,2,2,5,2,0,1,1
1.985,1,1,14,1,3,1,2,3
1.99,3,5,2,0,6,3,3,4
1.995,2,0,0,6,7,5,4,3
2,2,1,2,5,1,2,0,2
2.005,1,2,0,4,2,3,2,1
2.01,3,2,0,1,2,3,1,2
2.015,3,1,6,4,3,3,0,1
2.02,3,1,1,3,4,3,2,1
2.025,2,5,7,3,5,1,2,1
2.03,0,4,0,9,4,1,1,1
2.035,4,5,13,15,6,5,4,4
2.04,2,2,6,11,3,4,3,2
2.045,3,1,7,9,1,3,2,1
2.05,1,2,2,0,1,1,1,0
2.055,1,2,3,4,3,6,2,2
2.06,2,1,5,6,1,1,0,0
2.065,2,3,7,5,2,0,0,1
2.07,2,2,10,5,6,3,2,3
2.075,1,2,4,10,2,3,3,1
2.08,0,1,2,3,2,1,0,0
2.085,1,1,9,2,4,5,0,1
2.09,0,0,4,0,3,0,1,0
2.095,2,1,8,7,1,2,0,1
2.1,1,1,4,0,3,3,1,0
2.105,2,0,5,0,3,4,1,0
2.11,3,5,11,4,7,9,7,2
2.115,2,1,1,3,1,0,1,3
2.12,2,2,2,2,6,5,2,1
2.125,1,1,2,7,3,1,1,1
2.13,1,1,2,4,1,1,1,1
2.135,3,1,2,0,4,3,1,2
2.14,0,5,10,3,3,2,2,2
2.145,2,2,1,8,0,2,0,1
2.15,4,1,6,4,7,4,1,3
2.155,4,1,7,9,11,2,3,1
2.16,3,1,4,2,7,3,3,3
2.165,3,3,5,8,2,3,3,3
2.17,3,0,4,8,7,4,2,2
2.175,1,1,8,1,0,1,1,2
2.18,1,1,1,0,6,2,1,1
2.185,2,3,2,2,1,1,1,0
2.19,1,1,3,0,1,3,2,1
2.195,2,0,0,4,1,0,1,1
2.2,5,6,9,3,9,7,6,5
2.205,0,1,5,5,1,1,3,0
2.21,1,1,1,5,2,3,1,2
2.215,1,1,1,2,7,5,2,2
2.22,3,2,4,5,2,1,2,0
2.225,1,1,1,4,2,1,1,2
2.23,3,5,1,1,3,0,1,3
2.235,1,1,8,6,1,0,0,0
2.24,3,2,10,12,2,1,2,3
2.245,4,1,15,9,4,3,4,1
2.25,0,0,0,1,2,0,0,0
2.255,0,1,3,3,2,3,4,0
2.26,1,1,3,1,2,2,1,2
2.265,1,3,3,9,1,2,0,3
2.27,1,2,0,2,0,0,2,1
2.275,1,2,4,1,3,4,4,4
2.28,1,1,2,7,2,0,3,1
2.285,0,1,8,10,3,0,0,1
2.29,1,3,2,5,4,1,3,3
2.295,3,4,1,1,2,1,1,2
2.3,1,0,5,6,5,5,3,2
2.305,2,2,5,2,3,1,2,0
2.31,1,2,2,12,1,0,2,0
2.315,2,1,2,9,0,1,1,1
2.32,0,2,6,15,5,2,2,4
2.325,0,1,6,3,0,4,3,2
2.33,1,0,0,5,4,2,0,1
2.335,1,0,1,7,0,0,1,1
2.34,4,4,2,10,1,1,1,0
2.345,0,0,2,6,0,1,2,1
2.35,1,1,2,0,1,2,1,1
2.355,1,4,4,3,5,6,4,3
2.36,0,1,4,5,1,0,2,0
2.365,5,1,5,2,1,3,5,1
2.37,0,7,4,8,5,1,3,3
2.375,1,2,2,6,0,4,4,3
2.38,4,4,6,1,4,3,3,2
2.385,0,0,4,12,3,4,3,3
2.39,0,1,3,0,1,3,1,1
2.395,2,4,7,3,1,1,0,3
2.4,0,1,0,2,1,0,2,1
2.405,1,2,2,6,1,2,3,0
2.41,4,2,2,3,0,3,3,3
2.415,0,2,4,1,2,2,1,0
2.42,2,1,9,15,4,1,1,1
2.425,2,3,1,6,1,0,1,2
2.43,0,0,8,4,2,1,0,0
2.435,3,1,1,8,2,1,1,1
2.44,1,1,2,6,2,1,1,2
2.445,0,0,2,2,1,1,1,0
2.45,2,1,0,1,2,2,1,1
2.455,2,2,3,3,2,0,1,1
2.46,1,1,3,1,1,6,2,2
2.465,0,0,0,4,0,2,3,0
2.47,2,0,5,7,1,1,0,0
2.475,0,1,1,4,4,1,0,2
2.48,0,4,7,1,1,3,1,2
2.485,4,3,2,10,11,8,4,2
2.49,1,0,1,4,1,1,0,1
2.495,0,1,2,2,0,0,2,1
2.5,2,1,5,3,1,3,0,1
2.505,0,1,6,0,2,2,1,2
2.51,2,0,7,3,0,3,1,2
2.515,3,4,3,3,6,8,6,3
2.52,1,1,3,2,0,2,1,1
2.525,1,4,3,4,4,4,3,4
2.53,0,1,2,4,0,4,1,0
2.535,1,3,8,2,2,0,0,0
2.54,3,4,16,3,1,1,0,0
2.545,1,1,1,5,0,3,3,2
2.55,1,3,0,8,1,0,1,1
2.555,3,1,2,6,6,3,0,1
2.56,1,2,9,2,5,1,2,1
2.565,1,1,0,2,2,2,0,0
2.57,1,1,3,1,0,1,1,1
2.575,2,3,20,4,0,2,0,1
2.58,3,1,4,0,1,2,3,0
2.585,2,2,0,2,1,1,1,0
2.59,1,2,2,8,4,2,3,2
2.595,0,0,8,5,2,4,2,0
2.6,1,1,3,1,1,1,2,0
2.605,0,1,1,1,1,2,1,0
2.61,3,4,5,3,2,0,1,2
2.615,0,2,2,8,6,4,2,1
2.62,1,4,15,3,7,1,1,0
2.625,1,1,1,6,2,1,0,1
2.63,2,0,2,12,0,1,1,1
2.635,2,5,20,15,1,1,1,0
2.64,1,5,28,10,2,3,1,3
2.645,3,3,4,3,6,1,2,2
2.65,3,2,2,3,1,2,2,2
2.655,2,2,2,3,2,0,0,2
2.66,1,1,4,1,2,4,0,2
2.665,2,0,6,6,3,3,0,0
2.67,0,1,6,9,6,4,3,2
2.675,1,1,0,0,1,3,1,0
2.68,0,1,5,2,1,2,0,1
2.685,1,2,2,1,2,3,2,1
2.69,1,0,2,4,3,1,5,0
2.695,0,1,0,5,5,1,1,0
2.7,2,4,3,2,1,3,1,3
2.705,1,2,3,0,1,0,0,0
2.71,2,1,5,5,3,3,1,1
2.715,1,2,7,2,1,1,0,2
2.72,1,3,14,4,1,2,0,0
2.725,2,2,9,5,2,2,1,1
2.73,0,2,1,4,3,2,1,2
2.735,1,1,2,4,3,4,3,2
2.74,1,1,8,5,0,1,0,0
2.745,0,1,2,5,0,3,2,1
2.75,0,2,4,1,4,1,2,1
2.755,2,3,4,1,3,1,2,0
2.76,0,1,2,2,1,3,3,2
2.765,1,0,1,3,1,1,2,2
2.77,3,0,2,4,2,2,0,0
2.775,0,1,0,5,1,0,2,1
2.78,1,1,3,3,3,2,3,2
2.785,3,2,5,0,1,1,1,0
2.79,0,0,5,0,0,3,0,0
2.795,0,1,4,1,4,1,3,3
2.8,0,2,5,1,2,2,0,1
2.805,1,3,4,6,1,1,1,0
2.81,1,4,3,3,0,3,3,2
2.815,0,1,9,2,1,2,1,1
2.82,1,1,6,1,1,1,1,1
2.825,2,0,2,6,5,4,3,1
2.83,2,1,2,2,0,1,0,1
2.835,3,0,1,6,4,3,2,1
2.84,1,2,3,2,0,1,0,0
2.845,0,1,4,3,5,0,1,0
2.85,2,5,2,8,11,0,1,1
2.855,1,1,7,0,1,4,1,1
2.86,1,1,0,4,1,4,2,2
2.865,1,1,0,4,0,3,2,0
2.87,1,2,8,3,0,2,2,2
2.875,2,0,1,2,2,1,1,1
2.88,1,2,1,2,2,0,1,1
2.885,1,0,3,1,0,1,0,3
2.89,0,0,2,1,1,5,2,1
2.895,1,1,1,0,4,5,2,2
2.9,1,0,0,7,3,1,1,0
2.905,0,2,6,11,8,1,1,1
2.91,1,1,12,0,0,2,1,2
2.915,2,3,1,4,3,4,3,1
2.92,2,3,4,5,3,4,1,0
2.925,0,1,1,1,3,3,1,2
2.93,1,1,3,2,2,1,4,1
2.935,0,0,2,1,1,3,2,1
2.94,0,1,2,4,4,1,1,2
2.945,1,1,1,1,0,1,1,0
2.95,2,3,6,2,2,2,1,1
2.955,0,2,7,5,4,1,0,0
2.96,1,4,2,4,5,4,1,3
2.965,2,1,4,2,0,1,0,1
2.97,3,1,9,4,1,4,1,3
2.975,1,1,6,3,2,2,1,2
2.98,1,1,7,5,3,3,2,1
2.985,0,2,7,2,2,2,2,0
2.99,0,1,3,0,0,1,1,1
2.995,1,3,1,6,2,2,1,0
3,2,2,4,8,1,1,1,1
3.005,4,3,1,1,3,3,2,3
3.01,1,0,4,5,3,1,1,1
3.015,0,0,0,3,0,3,3,1
3.02,1,0,2,12,2,1,0,0
3.025,3,0,3,4,2,0,2,0
3.03,1,2,2,2,2,3,1,2
3.035,2,1,8,0,3,5,3,2
3.04,0,1,1,1,0,0,2,0
3.045,0,1,5,4,1,0,2,0
3.05,0,1,7,3,3,0,1,1
3.055,4,0,15,10,2,5,4,1
3.06,1,1,9,1,2,1,2,2
3.065,1,2,0,2,1,6,3,1
3.07,1,0,4,9,5,1,1,0
3.075,1,2,2,3,0,1,2,1
3.08,2,3,21,17,3,5,4,1
3.085,2,1,2,6,3,5,2,2
3.09,0,1,2,2,2,3,4,0
3.095,1,3,5,5,1,2,1,1
3.1,3,0,1,0,2,2,1,0
3.105,2,3,1,4,2,2,0,0
3.11,2,4,6,1,2,0,0,0
3.115,0,0,6,0,5,2,2,0
3.12,1,3,7,1,6,7,4,0
3.125,0,1,1,5,2,2,1,1
3.13,2,3,4,7,1,2,0,1
3.135,2,0,1,4,0,1,1,2
3.14,0,1,4,0,1,0,1,1
3.145,1,1,2,3,1,2,2,0
3.15,0,2,2,8,3,1,1,1
3.155,1,3,14,3,0,1,1,1
3.16,1,2,11,5,0,1,0,1
3.165,1,5,12,5,4,5,1,1
3.17,1,2,1,4,1,4,2,1
3.175,2,3,0,3,4,6,3,1
3.18,1,4,3,2,0,1,3,2
3.185,1,1,18,12,3,1,0,3
3.19,0,0,14,19,5,4,0,2
3.195,2,1,1,0,1,0,3,1
3.2,0,0,1,3,3,1,1,1
3.205,1,0,6,2,3,0,0,1
3.21,2,5,8,2,3,2,4,2
3.215,1,2,5,2,5,3,0,1
3.22,0,4,1,2,0,1,2,0
3.225,2,2,3,3,0,3,0,0
3.23,0,0,2,3,0,1,1,1
3.235,0,1,3,12,2,1,1,2
3.24,2,0,0,5,6,1,1,3
3.245,4,3,6,7,10,2,2,1
3.25,1,0,4,5,4,0,2,1
3.255,3,1,3,2,1,3,2,1
3.26,2,3,19,18,14,5,4,2
3.265,0,0,2,3,3,5,2,1
3.27,1,3,4,0,0,0,1,2
3.275,1,1,9,3,1,2,5,3
3.28,2,0,4,4,4,6,1,3
3.285,1,0,0,2,2,3,3,1
3.29,2,2,2,3,4,0,0,2
3.295,1,0,1,4,6,3,3,0
3.3,1,3,6,6,1,2,1,0
3.305,1,1,7,3,1,3,1,2
3.31,3,3,4,3,4,3,3,2
3.315,2,3,3,6,6,5,3,1
3.32,2,0,4,4,1,1,0,1
3.325,0,3,5,8,1,1,0,1
3.33,0,3,14,17,5,1,0,0
3.335,2,3,2,3,1,1,2,1
3.34,1,2,9,1,1,3,3,3
3.345,0,0,2,0,2,1,1,2
3.35,0,1,0,3,0,0,1,0
3.355,0,0,0,0,1,1,3,0
3.36,1,3,2,7,6,1,1,0
3.365,1,1,5,2,1,2,0,1
3.37,1,0,2,4,6,2,3,3
3.375,1,4,1,0,1,4,2,0
3.38,1,3,2,3,1,0,0,0
3.385,0,4,10,0,1,0,1,0
3.39,3,2,19,2,4,1,1,2
3.395,1,3,9,4,5,1,1,3
3.4,1,5,8,6,2,1,0,1
3.405,1,3,8,4,3,3,3,2
3.41,0,4,19,3,2,3,2,2
3.415,1,2,2,5,1,1,0,1
3.42,1,1,1,8,1,3,2,1
3.425,1,2,2,7,0,2,3,0
3.43,1,1,2,4,2,2,2,1
3.435,0,0,5,2,1,6,2,1
3.44,2,2,4,2,5,3,3,2
3.445,1,1,3,3,1,0,0,0
3.45,2,1,1,3,0,0,2,0
3.455,3,2,3,6,2,1,2,0
3.46,2,1,1,2,0,0,1,1
3.465,3,5,1,1,5,8,4,3
3.47,1,1,4,5,2,0,0,1
3.475,1,2,1,6,3,1,1,0
3.48,3,4,11,10,3,3,3,1
3.485,1,1,0,3,5,3,4,1
3.49,1,0,1,6,6,3,1,1
3.495,1,4,1,3,1,1,0,0
3.5,1,1,2,3,3,5,3,2
3.505,2,3,12,6,3,1,2,1
3.51,1,1,3,1,3,0,0,1
3.515,1,1,6,0,0,1,0,0
3.52,1,2,7,1,2,1,1,1
3.525,1,1,5,3,2,1,1,0
3.53,1,1,9,9,1,5,2,2
3.535,1,3,6,4,1,2,2,3
3.54,1,0,3,4,0,1,2,1
3.545,2,2,6,8,4,5,0,2
3.55,0,0,2,1,0,2,1,0
3.555,0,0,2,4,1,1,1,0
3.56,1,1,3,6,4,2,2,3
3.565,2,1,4,2,1,2,0,1
3.57,0,0,2,1,2,1,1,0
3.575,0,0,6,10,1,3,2,1
3.58,3,1,7,13,2,0,1,1
3.585,1,2,5,6,2,3,0,1
3.59,1,3,5,8,7,4,2,4
3.595,0,1,15,7,5,1,1,1
3.6,1,1,1,7,0,1,1,1
3.605,1,1,2,4,4,2,2,0
3.61,2,0,5,10,2,1,0,1
3.615,3,2,1,9,6,1,2,1
3.62,0,1,3,7,7,11,5,2
3.625,1,1,5,3,1,1,1,1
3.63,1,2,2,2,3,0,2,1
3.635,2,3,4,6,1,4,3,0
3.64,2,0,0,2,2,4,0,0
3.645,1,1,6,0,3,2,0,4
3.65,1,2,3,3,2,0,3,4
3.655,1,1,3,5,0,4,1,2
3.66,1,4,1,3,1,1,1,0
3.665,1,0,1,0,1,0,0,1
3.67,2,2,1,1,0,2,1,0
3.675,0,1,2,2,3,1,2,2
3.68,0,1,3,3,1,1,0,2
3.685,0,2,1,1,1,2,0,0
3.69,1,2,16,16,4,1,0,1
3.695,2,4,7,9,1,1,1,2
3.7,1,2,1,7,2,1,1,3
3.705,1,3,4,4,4,1,3,1
3.71,2,1,12,1,4,3,2,1
3.715,1,4,28,7,2,1,1,1
3.72,0,1,1,6,4,2,0,1
3.725,1,0,1,9,1,0,2,2
3.73,2,2,1,0,2,3,2,2
3.735,1,2,5,0,0,2,2,1
3.74,3,2,1,0,3,2,2,1
3.745,2,0,8,13,7,3,3,3
3.75,1,1,1,3,3,5,1,2
3.755,1,3,2,11,2,1,1,0
3.76,2,1,4,15,3,2,1,0
3.765,3,1,1,3,1,2,2,1
3.77,0,0,1,2,4,1,0,0
3.775,1,2,1,6,1,0,2,0
3.78,0,0,5,9,0,2,1,1
3.785,1,2,2,4,0,0,1,1
3.79,0,1,2,6,0,1,1,1
3.795,1,0,3,8,7,3,2,2
3.8,1,0,7,6,1,1,1,0
3.805,1,3,3,7,1,3,1,1
3.81,1,2,3,4,4,2,1,1
3.815,1,3,3,0,1,2,1,2
3.82,1,3,0,3,5,0,2,2
3.825,2,1,4,2,4,1,0,1
3.83,2,1,1,6,3,0,2,3
3.835,0,3,4,1,1,1,2,1
3.84,1,4,3,2,3,2,0,2
3.845,0,1,4,8,3,0,2,1
3.85,1,2,3,5,1,3,3,0
3.855,4,2,0,2,7,1,3,2
3.86,1,1,1,1,7,2,2,2
3.865,1,0,2,1,6,1,1,1
3.87,0,2,7,6,0,1,1,3
3.875,1,1,6,5,4,4,1,1
3.88,2,2,0,4,4,1,1,0
3.885,3,3,0,6,4,1,1,1
3.89,2,2,5,3,1,1,2,1
3.895,0,2,6,0,1,0,2,0
3.9,3,1,4,1,3,4,2,2
3.905,1,1,8,1,0,3,1,1
3.91,2,0,1,2,1,0,1,0
3.915,0,3,8,10,6,1,0,0
3.92,0,1,5,2,1,1,2,1
3.925,3,1,5,1,0,0,1,2
3.93,1,1,3,6,1,2,1,2
3.935,2,2,0,6,0,1,1,3
3.94,2,4,11,5,5,1,3,0
3.945,0,1,0,2,0,2,0,1
3.95,1,4,1,2,2,2,1,1
3.955,2,1,2,6,0,0,1,1
3.96,0,1,1,4,2,2,1,0
3.965,1,6,6,2,2,1,1,1
3.97,1,2,6,5,6,3,1,3
3.975,2,2,1,4,3,2,4,1
3.98,0,1,1,2,6,0,0,1
3.985,0,0,0,1,0,3,0,1
3.99,2,2,1,1,2,3,1,1
3.995,2,2,1,0,1,0,1,1
4,2,2,5,2,4,3,2,0
4.005,1,3,6,3,1,1,3,1
4.01,3,1,5,4,6,6,2,3
4.015,0,0,3,1,2,3,0,1
4.02,1,2,6,2,3,4,4,1
4.025,3,1,15,9,0,1,2,1
4.03,1,3,3,2,5,1,1,1
4.035,0,1,1,1,1,0,1,0
4.04,0,1,4,3,3,5,2,1
4.045,0,3,1,1,0,2,2,1
4.05,5,4,1,1,3,2,5,2
4.055,2,0,3,5,4,5,3,3
4.06,0,1,1,2,1,1,2,1
4.065,1,1,2,4,4,1,2,2
4.07,0,0,2,2,5,1,1,0
4.075,1,2,2,2,3,0,1,1
4.08,3,4,0,7,1,1,3,2
4.085,1,2,20,13,1,4,1,1
4.09,0,3,2,6,3,3,2,2
4.095,0,2,2,3,5,1,2,0
4.1,0,0,1,3,0,1,1,1
4.105,2,1,11,9,1,3,2,4
4.11,2,1,7,10,9,2,1,0
4.115,0,1,3,1,1,6,1,1
4.12,2,3,1,2,0,0,1,1
4.125,2,0,9,1,1,0,1,1
4.13,3,4,3,1,2,2,2,4
4.135,0,1,6,2,3,4,0,0
4.14,1,1,1,2,0,1,2,2
4.145,1,5,9,4,5,1,0,0
4.15,1,1,3,4,2,1,1,1
4.155,2,3,3,5,9,2,2,0
4.16,0,0,0,0,3,1,2,2
4.165,2,0,5,3,1,1,0,2
4.17,1,1,0,3,2,2,3,2
4.175,0,2,4,1,2,1,2,1
4.18,2,3,0,1,5,5,4,3
4.185,1,1,2,0,0,3,0,0
4.19,1,0,5,5,4,2,3,1
4.195,2,2,3,3,1,2,4,0
4.2,1,3,6,9,4,1,2,1
4.205,2,2,0,2,1,1,1,1
4.21,3,0,1,1,1,2,1,0
4.215,1,2,3,0,1,4,1,0
4.22,1,0,7,1,1,4,2,2
4.225,2,2,3,3,2,2,1,1
4.23,0,6,2,2,0,1,0,1
4.235,2,1,1,3,5,1,1,2
4.24,4,3,16,2,3,5,5,5
4.245,0,1,6,4,4,0,1,0
4.25,0,1,3,3,1,0,1,1
4.255,2,0,3,5,6,2,2,1
4.26,0,2,1,1,1,2,4,2
4.265,1,2,3,3,2,0,1,1
4.27,1,1,3,2,3,0,0,2
4.275,0,2,1,3,3,6,5,2
4.28,2,2,3,5,5,2,1,1
4.285,1,2,3,1,1,1,3,1
4.29,1,1,4,5,4,1,2,1
4.295,3,0,1,0,2,1,3,3
4.3,0,1,3,5,4,2,2,0
4.305,1,2,9,1,0,2,1,1
4.31,3,0,1,4,5,6,3,3
4.315,2,7,6,2,7,2,1,2
4.32,1,2,11,0,2,3,2,1
4.325,4,1,2,0,2,0,1,2
4.33,2,3,6,5,3,3,2,1
4.335,0,0,2,4,3,5,3,0
4.34,1,2,1,1,3,1,1,1
4.345,2,1,4,7,7,3,3,2
4.35,1,1,2,2,0,0,2,1
4.355,2,3,1,2,3,2,2,1
4.36,1,2,5,5,1,0,1,1
4.365,1,1,3,0,2,4,3,1
4.37,1,0,0,3,4,3,5,1
4.375,1,1,3,3,3,1,1,1
4.38,2,1,0,2,3,1,1,1
4.385,1,1,2,3,5,3,2,3
4.39,2,2,1,5,4,3,4,2
4.395,0,1,7,1,2,1,1,0
4.4,2,2,5,2,1,2,1,0
4.405,1,0,3,2,1,1,3,2
4.41,3,4,12,8,5,4,3,6
4.415,3,0,10,12,3,0,2,5
4.42,1,0,1,1,0,1,1,1
4.425,0,0,7,6,1,0,1,2
4.43,0,1,1,7,5,4,2,2
4.435,3,2,1,3,4,4,2,2
4.44,1,0,2,0,1,0,0,2
4.445,1,2,2,1,0,1,1,0
4.45,1,0,0,5,1,2,2,2
4.455,1,3,1,1,4,3,6,4
4.46,1,1,0,2,2,1,4,7
4.465,1,2,2,2,2,1,2,3
4.47,2,1,4,5,1,1,0,3
4.475,1,1,1,1,2,4,1,1
4.48,1,4,2,4,3,1,3,2
4.485,1,3,1,3,0,1,0,1
4.49,1,2,5,4,5,4,4,3
4.495,3,0,8,9,4,2,2,1
4.5,1,0,4,7,1,0,1,2
4.505,1,3,5,4,1,0,3,2
4.51,2,1,6,11,0,4,0,1
4.515,1,2,5,9,8,5,1,2
4.52,1,2,3,10,19,5,3,2
4.525,0,1,0,0,0,3,2,1
4.53,0,1,2,2,4,2,1,1
4.535,2,1,7,8,2,4,0,1
4.54,3,5,8,5,7,0,2,3
4.545,3,0,4,2,5,1,5,3
4.55,1,2,14,9,2,3,3,1
4.555,2,1,13,8,7,2,0,0
4.56,3,4,0,2,3,0,3,6
4.565,2,1,0,1,4,2,1,4
4.57,1,3,8,2,7,3,2,3
4.575,0,1,3,3,1,1,1,1
4.58,2,1,1,0,1,1,2,3
4.585,3,3,5,4,0,1,1,2
4.59,3,2,1,0,6,3,3,1
4.595,1,0,1,2,2,3,2,0
4.6,0,2,5,8,2,2,4,3
4.605,2,2,1,1,3,2,2,4
4.61,0,1,13,6,2,1,1,1
4.615,2,1,5,9,1,3,2,1
4.62,5,4,2,8,7,1,5,7
4.625,0,3,13,13,3,2,1,0
4.63,2,2,6,10,1,4,1,2
4.635,2,0,2,1,1,3,3,1
4.64,1,2,4,5,1,2,3,0
4.645,1,3,2,3,0,6,6,3
4.65,4,0,8,2,2,2,5,3
4.655,0,3,1,2,3,2,0,1
4.66,0,1,3,11,9,5,2,1
4.665,3,3,2,7,1,0,1,1
4.67,1,1,3,4,1,0,4,3
4.675,2,3,3,0,4,5,3,2
4.68,0,2,4,2,4,3,0,1
4.685,3,5,2,0,2,0,0,2
4.69,0,0,4,3,1,1,3,2
4.695,3,0,8,8,3,4,4,2
4.7,0,0,7,1,2,1,2,3
4.705,2,0,3,7,1,4,3,0
4.71,0,3,2,1,1,2,1,2
4.715,3,0,4,8,4,2,0,2
4.72,1,2,13,26,12,2,2,2
4.725,1,2,1,4,8,1,2,3
4.73,0,0,7,10,10,4,3,2
4.735,3,3,5,8,3,1,1,2
4.74,1,3,5,15,6,2,1,1
4.745,0,1,0,8,9,1,0,1
4.75,5,7,5,8,8,7,6,3
4.755,2,1,6,9,1,2,1,2
4.76,2,1,11,8,4,4,4,4
4.765,1,0,14,16,5,2,2,1
4.77,1,1,7,15,3,2,1,2
4.775,1,4,9,10,0,2,3,5
4.78,1,1,5,3,8,3,1,0
4.785,1,0,1,3,4,3,0,2
4.79,2,0,5,8,1,0,1,0
4.795,2,4,0,21,13,9,7,3
4.8,0,1,6,1,7,10,4,1
4.805,1,2,1,6,5,4,3,2
4.81,0,1,3,2,3,3,0,1
4.815,1,2,2,6,7,2,3,0
4.82,3,2,1,3,5,9,4,4
4.825,1,0,1,3,4,0,1,0
4.83,3,5,2,7,4,2,1,2
4.835,0,0,6,4,0,6,5,3
4.84,2,4,4,4,2,3,2,1
4.845,2,2,2,0,0,0,1,1
4.85,3,1,3,5,2,1,1,0
4.855,1,1,7,3,3,1,0,0
4.86,0,3,10,0,0,0,4,0
4.865,0,0,4,3,0,1,2,2
4.87,0,1,7,0,0,4,3,2
4.875,3,6,16,1,3,2,0,4
4.88,0,2,5,3,2,2,2,1
4.885,3,1,0,4,5,0,0,1
4.89,1,2,11,6,3,3,3,0
4.895,1,1,5,1,1,2,0,1
4.9,1,1,2,4,1,6,2,1
4.905,3,1,1,2,1,1,1,2
4.91,1,2,2,1,5,6,5,2
4.915,1,1,1,2,2,3,1,1
4.92,2,1,1,2,1,0,2,2
4.925,0,0,4,8,9,1,0,1
4.93,3,3,5,4,0,2,1,2
4.935,3,1,3,2,0,2,0,0
4.94,1,1,4,1,0,3,1,2
4.945,1,2,0,3,2,1,1,0
4.95,1,1,2,3,2,1,2,3
4.955,0,2,2,3,8,0,2,1
4.96,1,1,1,2,5,3,2,2
4.965,1,0,4,0,2,5,3,1
4.97,1,2,11,1,0,2,2,2
4.975,1,2,2,5,2,1,3,2
4.98,1,3,0,3,2,1,2,1
4.985,2,0,3,1,4,1,1,1
4.99,3,2,4,2,1,1,1,1
4.995,1,1,1,0,5,1,2,2
5,0,0,1,3,4,0,1,2
5.005,2,4,8,2,2,1,0,2
5.01,0,1,1,1,4,2,0,2
5.015,2,0,6,5,5,4,4,2
5.02,1,3,10,3,6,2,1,1
5.025,2,0,2,1,1,2,1,2
5.03,2,3,10,8,6,1,1,1
5.035,1,0,0,4,2,3,1,2
5.04,2,2,1,1,1,2,4,1
5.045,1,2,2,1,2,0,0,2
5.05,1,1,0,4,2,1,2,1
5.055,1,1,2,1,5,2,4,1
5.06,0,1,1,3,1,1,3,1
5.065,1,1,0,2,0,0,2,0
5.07,2,0,4,1,0,3,1,0
5.075,1,1,7,2,1,4,3,1
5.08,1,3,1,0,2,0,1,2
5.085,1,2,1,1,3,0,0,0
5.09,2,1,0,0,0,3,0,0
5.095,0,3,3,1,1,2,2,3
5.1,1,3,3,1,5,5,1,0
5.105,0,3,0,1,6,1,1,0
5.11,1,1,3,3,3,2,0,0
5.115,2,0,2,1,2,3,1,1
5.12,3,1,3,5,3,4,2,0
5.125,1,2,5,1,3,3,2,3
5.13,1,2,3,1,1,1,0,0
5.135,1,1,2,6,10,2,1,1
5.14,0,1,0,2,2,2,1,1
5.145,0,0,4,3,0,3,5,2
5.15,1,2,1,3,2,2,0,1
5.155,3,1,2,0,2,1,1,2
5.16,3,2,1,1,2,1,1,1
5.165,1,1,2,3,3,2,1,1
5.17,1,1,1,1,1,1,2,1
5.175,3,2,8,2,1,2,1,1
5.18,1,2,0,4,5,3,1,3
5.185,2,1,1,2,2,1,2,0
5.19,1,1,2,2,2,0,1,1
5.195,0,0,3,6,4,1,1,0
5.2,1,2,2,2,3,1,2,1
5.205,1,1,2,1,1,1,2,1
5.21,1,1,0,3,6,1,3,2
5.215,1,1,3,0,1,5,2,2
5.22,1,0,0,3,3,3,3,1
5.225,1,1,0,3,1,1,0,4
5.23,1,0,1,1,3,3,2,2
5.235,0,1,1,6,5,1,2,0
5.24,3,1,1,0,7,5,4,2
5.245,1,0,5,4,3,3,2,1
5.25,3,2,1,4,2,3,0,2
5.255,3,0,0,6,6,5,4,0
5.26,0,1,1,3,1,2,1,1
5.265,2,2,0,2,1,1,1,0
5.27,1,0,1,2,6,3,3,2
5.275,2,2,3,2,3,6,3,1
5.28,2,1,3,1,4,3,0,0
5.285,1,3,0,3,0,5,4,1
5.29,0,2,5,1,1,1,1,1
5.295,0,0,0,1,1,3,0,2
5.3,0,0,0,1,5,4,0,1
5.305,0,1,2,0,1,2,4,1
5.31,2,0,1,2,1,0,0,0
5.315,1,0,0,8,8,3,2,2
5.32,1,2,2,1,1,2,1,0
5.325,0,0,3,1,2,1,1,1
5.33,1,1,0,3,4,0,1,0
5.335,3,2,2,5,5,0,0,1
5.34,1,1,2,6,8,3,2,1
5.345,0,0,1,2,3,4,3,3
5.35,2,0,3,1,1,1,3,2
5.355,2,0,1,1,1,0,1,2
5.36,2,1,0,1,2,3,2,1
5.365,0,2,1,1,1,3,1,0
5.37,0,2,3,2,3,2,1,1
5.375,2,1,2,2,0,2,1,2
5.38,2,2,0,2,3,2,0,0
5.385,1,1,7,4,5,0,0,1
5.39,0,1,2,1,1,4,2,3
5.395,2,2,1,3,1,2,2,0
5.4,0,1,0,3,3,8,4,3
5.405,2,2,4,2,1,0,1,1
5.41,0,1,6,5,5,1,1,0
5.415,1,2,2,1,2,1,0,2
5.42,1,2,2,0,0,1,2,0
5.425,0,0,1,2,2,1,0,2
5.43,0,1,6,6,0,1,0,0
5.435,2,4,23,19,6,4,2,2
5.44,2,3,0,4,0,3,2,1
5.445,2,1,5,4,2,2,2,0
5.45,3,1,10,11,4,4,3,3
5.455,2,0,2,6,7,5,5,3
5.46,0,0,3,3,3,2,2,1
5.465,1,0,1,4,4,3,3,1
5.47,2,1,4,5,0,2,3,0
5.475,0,1,5,1,2,2,1,1
5.48,2,2,8,1,5,6,3,3
5.485,1,2,2,10,5,0,1,1
5.49,0,1,2,3,3,1,1,0
5.495,1,1,6,9,1,1,2,2
5.5,0,1,19,11,2,2,1,1
5.505,0,2,6,3,2,0,1,0
5.51,2,5,18,12,1,5,5,5
5.515,1,2,4,12,3,0,0,0
5.52,0,1,10,1,1,2,2,0
5.525,0,0,7,2,3,2,2,1
5.53,1,1,11,11,1,2,3,0
5.535,1,1,2,4,0,2,3,1
5.54,2,2,3,2,0,1,1,1
5.545,0,0,5,4,3,2,1,3
5.55,3,2,7,3,6,1,1,1
5.555,0,0,1,1,1,1,2,1
5.56,1,3,2,7,6,3,0,2
5.565,4,2,1,1,0,2,2,4
5.57,0,2,3,7,1,1,0,0
5.575,0,0,4,6,5,1,1,2
5.58,1,0,4,4,1,3,0,1
5.585,2,2,6,4,4,2,3,3
5.59,0,1,3,1,2,2,0,1
5.595,1,3,3,2,0,1,1,2
5.6,0,0,1,0,2,2,3,1
5.605,0,2,0,1,7,4,2,0
5.61,2,0,2,1,3,0,1,0
5.615,2,3,4,2,2,4,1,1
5.62,1,2,7,3,3,3,3,3
5.625,3,0,3,4,4,6,5,2
5.63,1,2,8,0,4,8,3,2
5.635,0,0,4,5,2,2,1,2
5.64,1,0,1,3,2,2,0,1
5.645,1,3,4,6,5,4,1,1
5.65,1,0,1,3,0,3,1,1
5.655,3,3,1,4,8,4,2,2
5.66,1,0,0,3,1,1,1,0
5.665,2,3,1,2,1,3,2,1
5.67,1,0,3,5,2,2,3,1
5.675,0,1,1,1,0,0,1,2
5.68,2,3,2,0,5,1,2,2
5.685,1,2,2,7,6,3,2,1
5.69,0,0,2,2,2,2,1,2
5.695,0,1,0,1,0,1,2,1
5.7,2,1,0,2,0,4,2,2
5.705,1,1,2,5,6,1,0,1
5.71,1,1,2,0,1,1,3,1
5.715,0,0,1,2,1,1,0,0
5.72,0,0,3,1,0,4,2,1
5.725,0,1,0,1,2,1,1,1
5.73,1,2,2,1,5,2,2,3
5.735,3,0,1,0,0,5,3,2
5.74,1,3,1,1,4,1,3,2
5.745,2,1,2,2,2,1,3,3
5.75,1,2,0,4,2,2,1,2
5.755,2,5,4,2,0,3,3,0
5.76,1,1,1,4,0,3,3,2
5.765,2,0,1,1,1,2,3,1
5.77,1,2,0,0,4,8,4,1
5.775,1,1,1,1,3,7,2,1
5.78,1,2,5,7,7,1,3,1
5.785,1,0,1,3,2,2,0,2
5.79,1,2,2,4,2,3,1,2
5.795,0,1,2,5,1,5,3,3
5.8,1,2,0,3,2,0,1,3
5.805,0,1,3,1,1,0,0,0
5.81,3,3,12,7,3,3,0,0
5.815,3,2,0,0,3,3,4,1
5.82,2,1,1,2,2,1,2,1
5.825,1,1,1,2,3,2,3,1
5.83,1,0,2,0,0,1,0,2
5.835,1,1,2,2,0,1,1,1
5.84,1,0,0,3,1,2,1,2
5.845,0,2,1,4,4,3,1,0
5.85,1,1,1,2,2,0,2,1
5.855,0,1,1,2,1,0,1,0
5.86,2,3,1,12,6,4,3,1
5.865,0,0,6,2,0,2,3,2
5.87,1,2,1,4,4,0,3,1
5.875,0,2,3,2,0,4,3,4
5.88,0,1,1,2,0,1,2,1
5.885,1,2,1,7,5,3,0,3
5.89,1,1,5,7,3,2,4,1
5.895,1,1,3,12,12,2,2,1
5.9,1,1,1,1,1,3,4,1
5.905,0,1,2,4,3,2,1,0
5.91,1,3,2,6,1,0,0,0
5.915,4,4,3,12,7,3,1,3
5.92,1,1,1,1,4,2,1,2
5.925,0,1,0,2,2,0,0,1
5.93,1,2,1,7,3,6,2,2
5.935,2,1,3,1,1,1,0,0
5.94,0,0,4,1,1,3,3,1
5.945,1,3,1,0,3,3,0,2
5.95,1,1,0,2,8,6,3,1
5.955,1,1,3,4,3,3,2,1
5.96,2,1,2,2,1,0,1,0
5.965,1,0,1,2,1,4,3,1
5.97,3,0,0,1,0,6,0,2
5.975,1,2,1,4,2,1,1,0
5.98,1,2,3,6,4,5,0,3
5.985,1,2,3,4,1,1,1,1
5.99,0,0,1,2,4,3,1,1
5.995,1,1,1,1,6,4,2,0
6,1,1,0,1,1,3,2,2
6.005,2,2,5,6,2,1,0,2
6.01,1,0,4,4,3,4,1,1
6.015,1,0,0,1,2,2,0,0
6.02,0,1,0,2,0,3,2,0
6.025,2,1,3,8,5,3,0,0
6.03,1,2,3,6,5,0,2,1
6.035,2,1,3,4,1,3,1,0
6.04,0,3,2,7,1,4,0,0
6.045,1,0,2,0,2,0,2,0
6.05,3,2,1,3,4,3,2,3
6.055,0,2,2,1,1,0,3,2
6.06,0,1,2,1,3,2,2,2
6.065,1,2,2,7,4,3,1,1
6.07,1,2,3,1,0,0,2,0
6.075,1,1,1,3,11,6,3,1
6.08,1,3,4,4,7,4,3,2
6.085,3,3,13,6,4,0,2,2
6.09,1,2,1,5,4,3,1,2
6.095,0,2,0,3,8,4,2,3
6.1,0,0,2,5,1,2,1,1
6.105,1,0,4,4,2,2,1,3
6.11,0,1,6,14,2,3,0,1
6.115,2,0,1,1,1,3,3,2
6.12,2,0,1,4,1,2,1,0
6.125,0,1,0,2,4,4,2,3
6.13,1,2,7,3,1,0,0,0
6.135,0,2,1,2,1,0,2,2
6.14,2,1,0,0,1,5,5,5
6.145,1,2,3,5,4,1,0,1
6.15,1,4,2,5,6,1,1,1
6.155,0,2,3,1,2,1,3,1
6.16,2,2,2,6,1,2,1,0
6.165,4,7,14,18,7,1,4,4
6.17,0,1,7,8,4,1,1,1
6.175,3,4,6,0,5,3,2,1
6.18,4,3,7,7,3,0,1,1
6.185,1,3,1,3,1,1,1,1
6.19,0,3,6,10,7,1,5,4
6.195,2,2,8,5,3,1,3,4
6.2,1,3,16,13,5,2,3,3
6.205,2,5,4,1,4,1,2,0
6.21,1,1,7,12,3,4,1,2
6.215,3,3,0,8,2,0,1,2
6.22,1,1,4,6,1,2,2,1
6.225,2,2,3,2,2,8,5,4
6.23,0,2,3,2,3,6,1,3
6.235,2,2,3,1,1,2,0,1
6.24,2,1,1,7,2,0,1,1
6.245,0,1,0,0,3,4,2,1
6.25,2,3,0,2,2,1,0,2
6.255,1,2,7,12,4,2,1,1
6.26,1,0,5,0,1,3,3,1
6.265,2,1,1,2,4,2,4,2
6.27,1,0,2,1,3,4,2,2
6.275,2,5,8,5,1,1,1,1
6.28,0,1,2,5,5,1,1,1
6.285,1,1,7,1,5,2,1,1
6.29,5,5,4,2,4,3,5,3
6.295,1,2,5,1,1,3,3,3
6.3,1,2,3,2,2,2,0,0
6.305,4,1,0,3,5,0,0,1
6.31,3,1,3,5,8,3,2,3
6.315,1,0,3,9,7,1,1,2
6.32,1,3,4,4,7,1,0,1
6.325,1,0,0,0,5,0,1,2
6.33,1,2,3,2,1,0,2,3
6.335,0,3,1,2,2,2,1,1
6.34,1,1,4,6,4,0,1,2
6.345,1,1,2,4,2,2,1,0
6.35,1,1,0,0,0,0,1,0
6.355,1,1,2,3,1,0,1,3
6.36,1,0,5,7,2,0,1,1
6.365,2,0,2,5,4,3,2,1
6.37,0,0,4,6,1,1,1,0
6.375,2,0,3,9,8,3,3,3
6.38,1,0,3,1,3,5,2,2
6.385,1,3,1,2,0,4,3,1
6.39,1,1,0,1,0,0,1,0
6.395,1,1,1,1,1,0,1,1
6.4,2,2,2,3,5,3,1,1
6.405,1,1,1,2,3,1,2,2
6.41,1,2,3,6,4,2,2,1
6.415,3,1,0,0,1,3,0,1
6.42,2,1,2,5,7,1,2,1
6.425,1,1,2,4,7,3,1,2
6.43,0,2,1,6,2,4,4,0
6.435,1,1,2,2,0,1,1,1
6.44,0,0,5,7,2,0,0,2
6.445,1,3,1,4,5,8,4,1
6.45,0,2,0,6,1,3,3,2
6.455,2,1,1,2,1,2,1,0
6.46,2,1,0,3,3,5,4,2
6.465,2,0,3,3,0,0,0,1
6.47,3,2,1,1,2,2,3,2
6.475,2,3,2,8,2,1,2,1
6.48,0,3,5,5,2,4,3,0
6.485,4,3,6,12,7,0,2,1
6.49,2,2,3,3,3,4,0,2
6.495,0,2,0,2,1,1,2,2
6.5,2,1,1,5,1,0,2,2
6.505,0,2,1,6,2,2,1,2
6.51,5,3,4,6,6,5,5,4
6.515,0,3,4,2,6,4,4,3
6.52,2,1,6,10,1,1,1,1
6.525,3,3,1,2,4,3,1,0
6.53,2,1,2,1,1,0,0,1
6.535,1,3,15,5,1,1,0,1
6.54,1,3,13,12,3,1,1,0
6.545,4,7,10,16,5,1,0,2
6.55,1,1,3,1,2,0,1,1
6.555,1,3,2,1,1,1,3,0
6.56,1,0,7,8,2,1,3,1
6.565,2,2,5,6,3,3,2,2
6.57,1,1,2,1,3,2,1,0
6.575,1,2,3,2,3,0,0,1
6.58,3,5,0,1,5,2,3,3
6.585,1,1,0,1,2,2,0,0
6.59,0,2,11,7,1,2,0,2
6.595,1,1,9,11,1,1,2,0
6.6,5,4,9,11,2,5,0,1
6.605,2,0,3,6,6,2,1,1
6.61,1,1,1,0,4,5,1,3
6.615,0,1,1,1,1,0,2,0
6.62,2,1,1,4,2,1,1,0
6.625,1,1,1,4,1,1,0,2
6.63,2,1,0,6,5,4,2,1
6.635,2,2,11,11,3,3,2,2
6.64,2,4,16,18,5,1,2,2
6.645,3,4,8,4,1,1,0,0
6.65,2,0,1,5,3,2,3,1
6.655,1,0,2,4,1,2,1,1
6.66,0,0,1,0,4,2,2,2
6.665,0,1,1,3,1,1,4,4
6.67,2,0,1,5,1,2,1,0
6.675,2,2,1,11,5,2,0,2
6.68,4,1,1,6,3,5,1,2
6.685,1,0,0,2,0,0,2,1
6.69,0,2,1,4,3,5,2,0
6.695,1,0,0,0,0,1,2,0
6.7,0,1,1,3,4,6,2,2
6.705,1,1,1,5,5,4,3,1
6.71,0,1,2,4,2,2,2,1
6.715,3,3,13,3,5,2,4,3
6.72,2,1,3,0,1,0,1,1
6.725,1,0,1,5,1,2,0,2
6.73,2,2,3,2,3,3,1,1
6.735,1,2,2,13,7,2,0,1
6.74,1,0,6,3,3,0,1,2
6.745,1,2,9,10,0,1,3,2
6.75,1,1,4,11,3,0,0,2
6.755,0,0,14,2,1,2,0,0
6.76,0,0,5,9,1,0,3,1
6.765,2,1,1,2,2,0,1,2
6.77,1,4,6,3,4,4,3,4
6.775,1,2,4,3,1,5,3,0
6.78,3,2,3,5,1,4,6,1
6.785,0,2,8,7,1,0,2,1
6.79,1,2,6,7,2,1,1,1
6.795,1,1,2,2,2,5,1,0
6.8,1,0,5,8,1,1,0,2
6.805,0,4,10,0,3,4,1,1
6.81,3,3,0,8,1,3,3,0
6.815,1,4,4,2,1,4,1,1
6.82,3,1,6,11,2,3,1,1
6.825,1,2,2,6,1,4,3,5
6.83,1,0,3,11,3,1,1,0
6.835,0,1,6,8,6,1,0,2
6.84,4,4,4,8,1,2,0,0
6.845,2,2,1,1,2,1,1,2
6.85,0,1,3,4,2,6,6,3
6.855,2,1,1,1,1,1,2,3
6.86,0,1,4,5,2,1,2,2
6.865,1,1,5,5,3,2,0,2
6.87,2,4,3,1,3,0,1,4
6.875,3,4,10,14,4,2,1,1
6.88,2,2,6,2,5,3,5,3
6.885,0,0,9,6,1,2,0,0
6.89,1,0,5,2,1,3,1,0
6.895,0,1,3,8,1,3,2,1
6.9,2,4,4,16,7,5,4,3
6.905,1,1,2,6,2,3,1,1
6.91,3,2,1,10,1,1,1,2
6.915,0,1,1,3,4,1,0,1
6.92,1,0,10,16,2,2,3,2
6.925,3,6,9,23,11,1,2,0
6.93,1,2,4,2,2,3,2,1
6.935,2,1,2,2,2,0,1,1
6.94,1,0,1,1,1,3,1,2
6.945,0,1,5,3,1,3,1,2
6.95,3,1,0,4,3,2,2,2
6.955,2,3,1,6,8,5,3,3
6.96,2,4,4,5,0,1,0,1
6.965,1,1,6,5,1,2,0,1
6.97,2,2,6,14,4,1,0,3
6.975,2,2,8,3,2,3,1,1
6.98,1,2,4,6,4,0,0,1
6.985,3,1,11,15,3,2,2,1
6.99,1,0,2,7,1,0,1,1
6.995,1,0,3,0,0,0,0,0
7,2,2,1,1,1,1,1,1
7.005,1,2,1,4,1,1,1,0
7.01,0,0,0,3,2,4,4,3
7.015,0,2,1,12,6,3,2,2
7.02,0,1,5,4,0,0,1,3
7.025,0,1,2,3,0,2,1,1
7.03,0,2,6,18,4,6,2,1
7.035,3,6,1,8,7,6,5,4
7.04,1,1,1,3,2,1,1,2
7.045,1,1,0,0,1,1,1,2
7.05,0,0,3,2,2,4,3,2
7.055,1,1,2,4,2,1,1,2
7.06,1,1,1,8,6,2,2,0
7.065,1,1,0,8,2,4,3,2
7.07,1,0,1,10,2,1,2,2
7.075,2,2,3,4,3,1,1,0
7.08,3,2,4,3,3,6,3,3
7.085,2,1,0,4,1,1,2,3
7.09,1,2,2,4,0,0,2,2
7.095,1,2,6,8,7,4,5,3
7.1,0,1,2,4,3,0,3,2
7.105,2,2,6,10,10,9,3,2
7.11,4,2,2,1,10,8,5,4
7.115,1,1,7,5,3,1,1,1
7.12,2,2,6,1,7,4,4,3
7.125,1,1,3,8,6,5,3,2
7.13,0,0,1,2,1,1,1,1
7.135,2,1,1,2,1,0,1,0
7.14,0,1,3,1,1,3,2,0
7.145,1,0,2,5,0,1,0,0
7.15,1,2,4,3,1,0,0,0
7.155,2,1,0,4,0,2,1,0
7.16,1,0,2,5,1,2,1,0
7.165,1,1,0,1,4,3,4,1
7.17,1,0,3,8,2,1,0,2
7.175,1,0,5,6,2,4,3,2
7.18,0,1,2,0,1,1,1,1
7.185,1,0,1,2,3,1,1,3
7.19,2,1,4,1,1,2,1,1
7.195,0,0,5,1,2,3,1,2
7.2,2,1,1,1,5,3,2,3
7.205,3,2,2,0,1,3,2,0
7.21,2,2,2,0,0,1,3,1
7.215,1,0,6,11,6,3,0,0
7.22,4,4,5,28,14,2,4,2
7.225,2,2,4,1,0,6,3,1
7.23,0,1,5,7,1,1,0,1
7.235,1,1,5,11,2,0,1,1
7.24,2,1,1,3,2,2,2,2
7.245,3,1,2,6,5,4,2,3
7.25,3,0,1,1,4,2,4,2
7.255,1,1,3,4,5,1,0,0
7.26,2,2,0,5,7,4,3,0
7.265,2,2,0,2,3,0,1,1
7.27,0,2,0,1,0,3,3,1
7.275,0,2,4,4,1,1,1,0
7.28,0,0,1,3,4,2,1,2
7.285,1,1,2,4,6,4,3,3
7.29,1,1,1,1,5,4,1,0
7.295,0,1,1,3,3,1,1,1
7.3,1,0,1,3,1,5,2,0
7.305,4,2,4,1,0,2,3,3
7.31,0,0,2,3,3,1,2,1
7.315,1,4,3,6,0,3,2,1
7.32,1,0,1,4,0,2,2,1
7.325,1,1,0,0,3,3,2,0
7.33,2,4,2,2,6,1,1,3
7.335,1,0,1,1,1,2,2,1
7.34,0,0,2,4,0,2,3,0
7.345,2,3,3,8,0,0,1,1
7.35,2,0,0,2,1,1,0,1
7.355,1,1,3,8,4,3,1,3
7.36,0,1,1,2,0,3,2,2
7.365,0,0,1,0,1,0,1,1
7.37,2,2,1,2,1,3,1,3
7.375,1,1,2,3,4,1,3,2
7.38,0,2,0,0,2,1,2,1
7.385,0,0,1,4,0,0,0,1
7.39,1,1,3,4,1,3,0,0
7.395,2,0,0,6,1,2,2,0
7.4,4,4,0,1,3,3,0,1
7.405,1,1,2,1,2,0,0,1
7.41,2,2,0,2,3,6,4,3
7.415,0,1,1,0,1,1,1,1
7.42,1,1,0,2,5,2,4,2
7.425,1,1,0,0,5,2,3,1
7.43,1,0,5,5,1,0,0,1
7.435,1,2,0,4,2,1,0,1
7.44,1,0,2,10,1,0,1,1
7.445,2,2,1,3,0,5,1,3
7.45,1,0,1,3,3,3,2,1
7.455,2,1,2,0,3,3,0,1
7.46,1,1,1,5,0,1,1,0
7.465,1,0,2,1,1,4,2,0
7.47,1,1,0,1,6,1,2,3
7.475,2,2,2,0,5,1,0,0
7.48,3,1,2,4,3,1,1,1
7.485,1,2,3,2,4,4,1,1
7.49,3,2,3,4,2,5,2,0
7.495,1,1,1,1,0,1,0,0
7.5,2,1,0,0,1,1,1,0
7.505,1,0,1,3,1,2,0,1
7.51,1,2,4,8,1,4,3,1
7.515,1,3,1,5,1,4,2,1
7.52,2,2,3,10,4,4,1,1
7.525,1,1,2,3,3,5,3,3
7.53,2,1,1,4,1,1,2,1
7.535,2,2,1,3,1,4,0,1
7.54,0,1,1,5,1,0,1,1
7.545,1,0,2,4,0,1,0,1
7.55,0,0,2,2,2,1,1,0
7.555,1,1,6,6,2,1,3,0
7.56,1,1,1,2,2,5,5,3
7.565,0,0,1,3,4,0,1,0
7.57,1,1,0,4,0,2,1,2
7.575,2,2,0,5,0,2,1,0
7.58,1,1,1,2,1,0,1,0
7.585,0,1,0,5,2,1,2,2
7.59,1,2,2,6,5,5,3,2
7.595,1,1,1,1,2,1,2,1
7.6,1,2,3,4,1,0,2,0
7.605,1,2,0,1,1,1,0,1
7.61,0,3,1,0,1,3,1,0
7.615,0,2,2,1,5,4,3,3
7.62,0,3,0,1,1,0,0,1
7.625,2,2,2,2,7,5,4,2
7.63,1,0,3,1,4,3,2,0
7.635,2,3,1,5,3,2,0,2
7.64,2,2,0,1,3,1,0,0
7.645,2,1,1,4,6,4,3,3
7.65,1,2,0,2,1,3,1,1
7.655,1,1,1,2,3,0,0,2
7.66,1,0,1,1,1,0,1,2
7.665,2,3,1,1,3,3,1,1
7.67,1,3,6,2,2,0,0,2
7.675,0,1,0,1,0,4,0,1
7.68,2,0,4,5,6,3,2,1
7.685,0,1,2,1,0,1,2,0
7.69,0,1,1,2,6,5,3,1
7.695,0,1,4,7,0,3,2,1
7.7,2,2,2,1,2,0,3,1
7.705,1,1,2,5,6,2,3,4
7.71,2,2,1,1,2,3,2,2
7.715,1,0,1,4,1,1,2,1
7.72,1,0,0,0,2,1,0,0
7.725,4,3,2,5,3,1,0,0
7.73,1,1,1,4,1,0,1,2
7.735,1,1,1,1,4,2,2,2
7.74,1,2,0,4,5,1,2,2
7.745,0,3,3,7,6,1,1,1
7.75,1,2,3,5,3,4,3,1
7.755,1,3,1,3,4,3,2,2
7.76,1,2,0,0,5,3,5,1
7.765,2,2,2,3,1,1,1,0
7.77,2,2,2,0,1,2,2,0
7.775,2,2,1,4,1,4,1,1
7.78,1,2,1,3,3,1,0,1
7.785,1,1,2,1,2,1,4,1
7.79,1,2,0,3,4,2,2,1
7.795,1,0,0,0,1,0,1,1
7.8,0,1,2,0,3,2,0,1
7.805,1,3,1,6,1,3,2,1
7.81,2,1,0,4,3,2,2,2
7.815,2,2,1,2,2,1,2,0
7.82,2,0,3,1,0,1,0,1
7.825,0,3,2,5,0,1,0,1
7.83,1,1,0,2,8,2,3,1
7.835,1,0,1,0,2,1,2,1
7.84,0,1,1,2,2,1,0,1
7.845,3,2,1,0,0,3,1,0
7.85,0,1,1,2,1,4,2,1
7.855,2,1,0,2,5,2,0,1
7.86,0,1,1,3,7,3,3,3
7.865,0,2,4,6,1,3,0,1
7.87,0,1,2,1,2,0,1,0
7.875,1,1,0,2,1,0,2,3
7.88,2,2,1,1,5,3,2,2
7.885,3,1,0,1,4,2,1,2
7.89,1,2,1,1,1,0,2,1
7.895,2,2,1,1,2,5,1,3
7.9,2,1,2,7,3,3,1,0
7.905,2,0,2,1,3,1,1,1
7.91,2,3,2,1,3,4,0,0
7.915,1,0,2,1,0,1,1,1
7.92,1,2,0,1,4,4,4,2
7.925,1,1,0,0,6,2,0,0
7.93,1,1,0,2,5,0,1,0
7.935,0,1,2,1,0,1,1,1
7.94,1,1,0,1,1,2,1,1
7.945,0,1,3,6,1,4,2,1
7.95,1,1,1,1,3,2,3,2
7.955,1,2,2,0,2,1,2,2
7.96,3,1,1,2,4,4,3,2
7.965,1,2,0,7,5,6,3,0
7.97,0,1,1,1,5,1,1,1
7.975,1,2,1,2,1,1,3,1
7.98,0,0,2,2,1,3,0,0
7.985,0,1,1,1,3,5,3,2
7.99,2,1,1,2,2,1,2,0
7.995,1,2,1,1,2,1,2,2
8,1,1,1,0,2,0,1,2
8.005,0,1,1,2,2,4,1,1
8.01,1,0,1,3,2,4,2,1
8.015,3,1,1,2,3,3,1,1
8.02,0,1,1,0,0,1,2,1
8.025,1,2,0,6,4,1,2,2
8.03,0,2,2,2,5,2,2,2
8.035,1,3,0,2,3,2,3,1
8.04,0,1,0,2,5,0,1,0
8.045,1,1,1,1,1,2,2,2
8.05,0,3,2,0,6,3,2,0
8.055,0,0,3,7,9,3,3,3
8.06,1,3,2,1,2,2,2,2
8.065,2,1,1,5,1,2,1,1
8.07,0,1,2,3,2,0,4,1
8.075,0,2,2,2,4,1,1,0
8.08,2,1,1,2,2,0,1,1
8.085,1,2,2,1,3,3,1,1
8.09,1,1,2,3,2,1,0,2
8.095,1,0,2,3,1,1,1,1
8.1,1,2,1,1,2,2,4,3
8.105,1,0,1,1,1,1,3,0
8.11,1,2,5,1,2,1,0,1
8.115,2,1,1,4,0,3,4,2
8.12,1,1,4,5,4,5,1,1
8.125,2,1,0,1,3,0,3,0
8.13,2,1,1,0,2,2,1,1
8.135,1,1,3,5,1,4,1,1
8.14,1,1,1,3,0,1,0,2
8.145,2,1,1,4,5,4,3,2
8.15,1,2,1,2,2,1,1,1
8.155,2,1,2,0,0,1,0,0
8.16,2,3,0,2,3,3,3,0
8.165,2,0,1,1,2,0,1,1
8.17,1,1,6,11,3,1,2,3
8.175,1,0,2,5,3,4,3,2
8.18,3,2,5,5,1,3,2,1
8.185,1,2,1,4,1,2,1,2
8.19,0,1,1,3,3,7,3,0
8.195,1,3,1,2,1,4,2,1
8.2,1,4,6,10,7,3,3,4
8.205,0,2,4,4,1,0,1,1
8.21,1,1,3,4,4,3,0,0
8.215,2,0,3,1,2,4,3,1
8.22,1,0,3,1,0,0,1,1
8.225,2,3,1,6,4,1,2,2
8.23,0,0,3,11,3,1,2,0
8.235,1,0,0,8,3,3,1,2
8.24,1,0,3,4,0,1,0,1
8.245,1,2,17,6,0,4,2,3
8.25,0,1,2,0,3,1,2,2
8.255,3,2,2,1,1,1,2,3
8.26,1,1,1,5,2,1,2,0
8.265,3,4,6,9,6,2,3,1
8.27,0,1,7,2,1,2,0,0
8.275,3,5,15,10,4,4,3,2
8.28,0,1,0,4,2,1,1,1
8.285,1,2,4,5,2,2,3,3
8.29,1,0,6,4,1,2,1,0
8.295,0,0,9,1,1,4,1,1
8.3,1,1,2,10,3,1,0,2
8.305,0,1,12,4,0,0,1,0
8.31,5,5,19,15,7,7,5,6
8.315,0,1,3,2,1,3,1,3
8.32,2,1,2,4,4,3,3,0
8.325,0,1,1,3,0,1,0,0
8.33,0,1,2,1,3,0,0,0
8.335,1,1,4,2,2,1,0,1
8.34,2,1,2,5,6,2,3,3
8.345,0,1,3,2,2,1,2,1
8.35,2,1,4,4,3,3,1,0
8.355,0,0,5,4,3,2,1,0
8.36,3,3,1,9,5,6,4,2
8.365,1,0,4,1,1,1,3,3
8.37,1,2,5,7,3,1,2,2
8.375,1,1,3,6,3,2,1,1
8.38,0,1,3,2,1,1,0,0
8.385,2,0,3,2,2,1,0,2
8.39,1,0,2,2,2,2,1,1
8.395,1,1,0,0,5,4,3,2
8.4,1,0,2,2,0,2,2,2
8.405,0,1,5,3,0,0,1,1
8.41,2,2,1,7,1,2,3,3
8.415,0,1,1,4,5,6,4,2
8.42,2,1,2,6,2,0,2,1
8.425,0,3,7,2,2,2,2,1
8.43,1,1,0,3,3,1,2,2
8.435,1,1,3,2,1,1,0,1
8.44,0,1,2,4,1,1,1,2
8.445,2,0,2,3,1,2,2,1
8.45,2,2,2,3,2,0,1,0
8.455,1,2,5,7,2,4,3,2
8.46,2,0,2,5,5,0,1,1
8.465,2,2,1,2,3,3,1,2
8.47,0,0,2,2,0,4,0,0
8.475,1,2,3,7,3,5,3,2
8.48,1,2,5,7,5,1,0,0
8.485,1,1,1,3,0,0,0,0
8.49,2,0,1,2,2,3,1,1
8.495,2,5,1,1,5,3,4,5
8.5,1,0,2,1,1,3,3,1
8.505,2,1,8,4,4,1,1,1
8.51,0,2,1,4,4,4,2,0
8.515,1,2,11,13,2,2,2,2
8.52,1,0,5,3,1,3,1,1
8.525,0,2,4,4,0,3,1,2
8.53,1,0,1,3,1,0,2,0
8.535,1,1,0,2,2,3,1,1
8.54,2,1,3,4,4,2,4,1
8.545,0,0,1,0,1,1,3,2
8.55,2,2,0,0,1,4,1,3
8.555,0,1,3,1,1,3,0,1
8.56,1,3,4,0,4,1,0,1
8.565,3,0,1,7,4,0,0,2
8.57,1,1,3,6,3,0,2,0
8.575,3,0,0,3,1,1,1,0
8.58,2,1,4,6,3,1,0,3
8.585,1,1,0,4,4,4,3,3
8.59,1,1,2,7,1,1,0,1
8.595,1,4,7,3,3,3,1,1
8.6,1,1,2,1,1,2,2,1
8.605,1,0,1,3,2,4,0,0
8.61,2,0,2,4,1,3,1,1
8.615,1,2,4,2,2,4,0,2
8.62,0,4,7,7,5,4,4,3
8.625,1,2,1,3,2,3,1,0
8.63,0,1,1,6,1,3,1,2
8.635,1,0,1,5,3,1,0,2
8.64,2,0,1,3,0,1,1,2
8.645,0,0,2,3,5,7,5,3
8.65,1,0,5,1,0,2,1,0
8.655,3,0,1,4,1,0,0,2
8.66,0,1,4,4,0,2,1,1
8.665,1,2,0,3,2,2,1,2
8.67,2,3,2,4,2,5,3,2
8.675,1,1,5,7,2,2,2,0
8.68,0,2,1,1,2,1,1,0
8.685,1,1,3,3,2,2,2,3
8.69,3,3,3,3,1,1,2,2
8.695,1,0,4,4,2,0,1,1
8.7,0,2,0,4,0,2,0,0
8.705,3,1,1,2,1,1,0,3
8.71,2,1,3,1,0,0,2,1
8.715,2,0,1,3,1,3,2,1
8.72,1,0,3,4,0,1,2,1
8.725,0,4,1,1,2,0,2,0
8.73,1,2,3,3,4,7,4,3
8.735,1,0,1,6,4,7,4,1
8.74,1,2,2,10,1,0,2,1
8.745,1,3,2,0,1,1,0,1
8.75,1,1,1,4,4,5,2,2
8.755,2,2,0,4,4,4,3,3
8.76,0,1,0,5,1,1,1,0
8.765,0,0,2,3,4,4,2,0
8.77,1,1,0,0,3,0,1,2
8.775,0,1,1,1,4,6,4,1
8.78,3,0,1,2,0,2,3,1
8.785,1,0,3,4,1,1,1,1
8.79,1,3,4,4,2,3,2,1
8.795,0,0,1,1,3,2,3,1
8.8,2,2,2,0,5,2,1,1
8.805,2,1,4,4,3,4,3,0
8.81,1,0,1,0,3,3,1,1
8.815,2,1,0,2,2,1,1,2
8.82,0,2,1,1,1,2,2,1
8.825,2,0,5,4,1,1,1,1
8.83,1,2,3,0,2,4,1,2
8.835,2,5,2,3,4,0,2,2
8.84,1,1,1,2,2,2,0,1
8.845,2,3,0,6,5,4,3,1
8.85,0,1,5,12,2,2,0,2
8.855,2,0,0,1,1,1,0,1
8.86,0,1,0,2,1,2,1,1
8.865,0,1,6,4,4,2,4,1
8.87,0,0,1,2,2,0,0,0
8.875,0,2,3,1,1,2,2,2
8.88,1,2,8,9,3,0,0,1
8.885,2,2,11,11,6,2,2,2
8.89,1,1,1,4,2,2,0,0
8.895,1,0,1,1,3,1,2,1
8.9,1,1,4,2,3,0,1,0
8.905,1,0,8,11,4,2,2,0
8.91,2,3,3,4,1,2,2,1
8.915,1,1,3,7,6,4,3,3
8.92,1,3,3,4,3,0,1,2
8.925,1,2,4,2,2,1,2,1
8.93,1,2,2,1,1,1,2,1
8.935,2,2,1,1,2,3,1,0
8.94,2,2,6,8,4,2,2,0
8.945,2,2,3,1,3,0,2,1
8.95,0,0,2,4,2,2,0,0
8.955,2,2,2,2,2,4,3,1
8.96,0,1,1,3,4,3,2,3
8.965,2,1,2,2,1,2,2,1
8.97,0,1,5,7,3,0,1,1
8.975,1,1,4,3,1,3,0,2
8.98,2,1,4,5,2,1,0,2
8.985,1,5,1,1,3,4,3,3
8.99,1,0,0,3,4,5,1,1
8.995,1,0,2,6,0,2,2,0
9,1,3,5,11,2,2,1,2
9.005,1,0,0,2,3,2,3,3
9.01,2,2,2,5,0,2,4,4
9.015,1,1,0,4,1,3,0,2
9.02,1,3,2,3,0,3,3,1
9.025,0,2,2,2,3,1,1,1
9.03,0,2,4,5,0,1,1,2
9.035,3,4,10,5,6,3,2,3
9.04,2,3,0,8,1,1,2,0
9.045,1,1,3,3,2,1,1,1
9.05,0,1,4,8,2,1,1,1
9.055,1,4,12,17,2,7,4,4
9.06,3,1,3,5,0,1,1,0
9.065,2,1,3,3,1,4,2,1
9.07,1,1,0,1,1,3,0,3
9.075,1,0,2,11,0,1,1,0
9.08,0,1,4,0,0,3,2,0
9.085,3,2,5,6,3,4,4,0
9.09,0,3,7,11,3,3,1,1
9.095,1,1,2,4,0,2,0,2
9.1,2,1,1,1,1,0,0,0
9.105,0,2,4,3,2,3,2,2
9.11,1,0,3,4,1,1,0,1
9.115,2,1,0,4,3,1,3,2
9.12,0,2,1,0,1,2,1,2
9.125,1,0,2,2,2,3,0,1
9.13,2,2,3,3,1,2,1,1
9.135,2,2,1,6,5,3,3,3
9.14,1,1,2,3,1,1,0,1
9.145,1,1,3,4,2,1,1,1
9.15,2,2,1,9,0,2,3,2
9.155,2,2,10,18,4,0,2,0
9.16,1,2,5,5,1,2,1,2
9.165,0,1,2,1,2,1,1,1
9.17,1,0,2,1,2,2,2,1
9.175,0,0,2,0,1,1,2,0
9.18,0,2,2,1,6,3,1,1
9.185,2,3,3,5,4,3,2,1
9.19,1,3,1,4,4,1,1,0
9.195,0,2,1,6,3,3,2,0
9.2,1,0,4,3,2,1,1,1
9.205,2,2,0,4,2,2,0,3
9.21,2,2,1,2,0,3,3,2
9.215,1,1,2,1,2,3,2,0
9.22,2,3,4,4,4,2,3,2
9.225,1,1,2,4,0,3,1,1
9.23,3,2,0,4,2,3,2,0
9.235,1,0,1,3,3,2,3,2
9.24,0,2,2,4,2,1,1,1
9.245,3,0,4,7,4,3,2,2
9.25,2,1,1,5,0,1,1,0
9.255,2,2,1,4,1,2,2,0
9.26,1,2,1,4,1,2,0,1
9.265,0,1,2,5,2,2,0,1
9.27,0,1,2,5,1,1,0,2
9.275,1,2,1,3,5,6,3,3
9.28,1,1,1,1,1,3,0,1
9.285,2,3,0,6,3,6,4,3
9.29,1,0,3,1,5,3,3,0
9.295,1,2,0,5,3,2,2,1
9.3,2,2,3,1,2,2,2,1
9.305,2,2,1,4,1,1,1,1
9.31,2,0,5,7,4,2,2,0
9.315,0,1,2,6,1,0,0,0
9.32,1,1,2,3,1,2,0,1
9.325,2,1,4,1,3,2,2,1
9.33,1,2,2,8,5,3,4,4
9.335,1,1,2,2,2,3,0,0
9.34,2,2,1,1,1,4,1,3
9.345,0,1,1,1,1,1,1,1
9.35,1,2,0,0,3,2,0,2
9.355,1,2,3,2,1,3,1,0
9.36,1,1,1,4,5,1,1,1
9.365,1,3,2,3,3,4,2,1
9.37,2,1,1,1,6,3,4,2
9.375,3,1,1,1,1,2,2,1
9.38,2,3,7,6,0,0,0,2
9.385,1,1,1,1,1,2,2,1
9.39,4,3,6,7,3,2,2,2
9.395,0,0,0,3,1,3,1,1
9.4,1,1,0,1,4,2,3,2
9.405,0,2,1,0,1,1,1,2
9.41,0,1,4,5,3,0,1,1
9.415,1,1,0,1,2,1,1,1
9.42,1,0,0,2,1,3,1,0
9.425,2,1,2,11,0,2,2,1
9.43,1,2,4,2,3,3,5,1
9.435,2,2,2,4,3,1,0,1
9.44,1,0,3,3,3,2,0,0
9.445,0,1,3,3,2,1,0,0
9.45,1,1,1,2,3,2,2,1
9.455,1,1,1,3,1,0,2,1
9.46,2,3,6,11,8,6,6,2
9.465,2,2,0,4,1,0,0,2
9.47,0,0,2,3,3,3,2,0
9.475,0,2,1,1,1,2,0,2
9.48,1,1,1,0,1,1,1,0
9.485,2,2,0,1,3,6,3,2
9.49,0,3,1,1,2,0,1,1
9.495,0,1,2,1,2,0,0,0
9.5,1,1,1,3,2,4,3,1
9.505,1,2,1,3,5,4,3,1
9.51,2,1,2,0,1,1,2,2
9.515,1,1,2,0,5,5,4,1
9.52,3,2,7,6,1,2,2,1
9.525,1,0,1,6,6,2,3,2
9.53,2,3,1,2,1,2,1,0
9.535,1,2,1,2,0,1,1,1
9.54,0,1,2,1,4,2,3,0
9.545,1,3,2,3,1,2,3,4
9.55,0,0,0,0,4,2,2,0
9.555,3,2,2,1,4,3,3,3
9.56,0,1,4,3,3,2,2,0
9.565,1,1,5,6,3,3,1,1
9.57,1,1,1,4,3,2,0,1
9.575,0,1,1,2,2,3,0,1
9.58,1,1,2,4,0,2,1,0
9.585,2,2,3,1,0,3,1,3
9.59,1,2,3,6,1,1,0,2
9.595,2,0,5,4,4,0,0,1
9.6,2,3,0,1,1,2,5,3
9.605,0,1,5,2,5,6,2,2
9.61,2,1,2,2,3,0,0,1
9.615,2,1,3,5,9,3,1,1
9.62,2,0,1,3,2,2,1,2
9.625,1,1,0,1,4,2,1,3
9.63,0,1,7,7,2,0,1,3
9.635,2,2,3,4,2,5,2,0
9.64,2,2,1,2,1,2,1,0
9.645,1,1,3,1,1,1,1,0
9.65,0,0,4,6,7,4,3,1
9.655,1,1,3,2,0,4,0,1
9.66,1,3,2,1,2,1,2,1
9.665,2,1,1,6,3,0,1,2
9.67,1,2,4,0,3,4,4,0
9.675,0,1,4,4,3,1,1,0
9.68,2,0,3,4,6,1,1,0
9.685,1,2,4,3,1,0,1,1
9.69,2,1,3,3,0,1,1,1
9.695,1,1,4,1,1,2,1,2
9.7,0,0,1,6,1,1,0,2
9.705,1,1,4,7,3,0,1,0
9.71,1,0,1,1,5,3,2,1
9.715,2,3,0,2,3,5,5,1
9.72,1,2,2,2,3,1,2,2
9.725,1,1,0,2,0,0,1,1
9.73,2,1,1,1,2,1,2,2
9.735,1,2,1,2,4,3,1,4
9.74,1,0,4,4,3,3,4,1
9.745,1,2,2,4,1,1,2,0
9.75,1,3,6,12,3,1,0,2
9.755,0,1,2,3,1,0,0,0
9.76,1,0,4,1,1,1,1,0
9.765,2,2,1,7,1,1,2,0
9.77,0,0,3,4,3,1,0,2
9.775,0,1,0,5,5,2,0,2
9.78,0,5,5,3,3,1,2,2
9.785,0,1,1,0,0,0,1,0
9.79,0,2,1,4,1,1,2,1
9.795,2,2,3,3,1,2,2,2
9.8,2,2,1,1,2,3,2,3
9.805,1,0,3,4,5,2,0,2
9.81,1,1,1,4,1,2,1,2
9.815,1,3,1,2,1,2,2,1
9.82,0,2,3,6,2,3,1,3
9.825,1,2,11,5,0,0,1,1
9.83,1,1,2,1,0,0,0,2
9.835,1,1,2,1,1,0,0,1
9.84,0,1,5,4,5,4,4,2
9.845,1,0,3,2,1,0,2,1
9.85,0,2,2,1,1,3,0,0
9.855,1,2,1,0,1,1,1,1
9.86,3,1,1,0,5,2,3,3
9.865,1,0,1,1,0,0,2,2
9.87,2,0,4,0,1,3,1,0
9.875,0,1,1,1,0,3,4,0
9.88,3,2,0,1,2,1,2,1
9.885,3,0,2,3,4,4,3,1
9.89,2,2,7,8,1,1,2,2
9.895,0,0,2,5,1,1,0,1
9.9,3,1,7,5,2,2,3,1
9.905,1,2,3,1,0,0,1,1
9.91,1,2,3,10,3,4,3,3
9.915,0,0,2,2,0,1,1,0
9.92,2,2,0,0,1,0,0,1
9.925,2,0,4,6,5,0,2,1
9.93,2,1,7,1,5,4,3,2
9.935,3,2,2,5,3,2,0,4
9.94,1,1,1,5,1,2,2,1
9.945,1,2,1,6,4,5,5,3
9.95,1,1,0,3,0,1,1,1
9.955,5,3,3,0,4,4,2,5
9.96,0,1,3,8,3,1,1,1
9.965,1,2,10,13,2,1,0,0
9.97,0,2,10,12,4,1,1,1
9.975,1,1,8,11,2,2,2,0
9.98,3,2,2,4,4,2,1,2
9.985,0,1,7,3,2,1,0,1
9.99,2,0,0,3,2,1,0,4
9.995,1,1,4,2,1,0,0,0
10,1,3,5,5,1,0,0,2
10.005,1,3,1,2,5,2,2,1
10.01,2,2,2,3,3,2,1,2
10.015,2,0,0,1,1,1,3,1
10.02,3,0,0,3,1,1,3,3
10.025,2,1,3,2,2,0,1,2
10.03,1,3,0,2,2,0,1,0
10.035,1,1,2,3,2,2,2,2
10.04,0,1,2,3,4,2,1,1
10.045,0,1,4,4,3,4,2,1
10.05,2,2,1,4,1,3,3,2
10.055,0,0,2,0,4,1,0,2
10.06,1,1,4,4,1,2,2,1
10.065,0,2,1,5,3,4,2,1
10.07,2,4,1,4,2,0,1,1
10.075,1,0,2,3,5,3,3,1
10.08,0,0,5,2,1,1,1,2
10.085,0,1,1,1,2,2,2,0
10.09,1,1,6,6,2,3,1,0
10.095,1,3,9,10,3,2,2,0
10.1,2,2,0,1,4,1,1,2
10.105,1,2,0,4,0,1,3,1
10.11,1,3,3,4,2,1,4,1
10.115,2,3,2,0,3,2,2,2
10.12,1,3,1,7,2,1,1,1
10.125,2,0,2,2,1,1,0,0
10.13,3,2,2,4,1,1,2,1
10.135,0,2,3,2,2,1,2,1
10.14,2,3,6,4,0,2,3,0
10.145,1,0,12,12,3,5,2,1
10.15,1,2,2,1,0,3,1,1
10.155,2,3,9,5,1,3,1,3
10.16,2,1,7,5,1,5,3,0
10.165,1,0,5,6,1,1,2,1
10.17,3,0,1,5,2,3,2,3
10.175,1,0,2,5,3,3,1,1
10.18,0,0,1,6,2,0,0,0
10.185,2,5,6,6,5,2,2,1
10.19,1,1,2,0,1,1,1,0
10.195,0,1,5,1,0,0,0,0
10.2,1,1,7,1,2,2,3,1
10.205,1,1,5,2,4,2,1,3
10.21,2,3,9,4,0,3,2,1
10.215,1,1,3,5,1,1,1,1
10.22,0,1,2,3,2,2,0,0
10.225,0,3,4,3,1,1,2,2
10.23,0,2,5,0,2,2,4,2
10.235,1,1,1,3,3,1,0,1
10.24,1,1,7,3,4,3,2,1
10.245,2,0,5,9,5,4,4,1
10.25,1,1,3,6,2,5,3,2
10.255,2,1,1,0,1,1,0,1
10.26,1,1,3,7,1,5,2,1
10.265,3,1,0,1,3,3,2,2
10.27,1,1,3,0,1,1,1,0
10.275,1,0,2,4,4,3,1,1
10.28,1,2,1,1,2,0,2,0
10.285,1,1,5,6,2,1,1,1
10.29,3,2,4,5,3,0,0,0
10.295,3,3,0,3,3,2,1,2
10.3,2,0,0,7,1,1,2,2
10.305,2,1,6,6,4,5,3,2
10.31,1,0,0,1,2,5,0,1
10.315,1,2,1,2,1,1,1,2
10.32,1,1,4,2,1,1,0,1
10.325,2,1,3,1,1,2,1,0
10.33,0,3,5,1,3,4,3,1
10.335,0,1,0,8,1,1,1,0
10.34,1,0,0,0,0,1,2,2
10.345,0,0,2,7,1,2,3,1
10.35,2,2,3,3,3,2,0,2
10.355,1,2,8,16,1,0,2,2
10.36,3,4,15,15,5,4,4,3
10.365,2,0,2,1,2,1,1,0
10.37,1,0,6,6,2,6,1,1
10.375,1,1,3,2,3,1,1,0
10.38,1,4,5,1,1,1,1,2
10.385,1,1,0,5,3,1,0,1
10.39,0,0,1,2,0,1,3,2
10.395,2,1,4,2,3,2,2,1
10.4,1,1,1,12,2,4,5,1
10.405,2,0,2,0,4,1,1,0
10.41,2,1,0,11,2,4,1,0
10.415,2,2,1,2,1,1,0,0
10.42,1,2,0,0,1,1,0,3
10.425,2,2,1,2,0,1,1,1
10.43,1,3,6,10,3,2,0,3
10.435,2,2,2,2,4,4,4,2
10.44,2,2,1,1,3,0,3,1
10.445,1,3,0,3,1,1,2,2
10.45,0,1,4,3,0,2,2,2
10.455,0,1,4,2,1,0,1,1
10.46,1,1,6,4,2,1,0,1
10.465,1,1,0,1,4,5,3,1
10.47,4,0,5,5,4,3,0,2
10.475,0,1,1,0,4,2,1,1
10.48,2,1,0,1,2,3,4,0
10.485,1,4,5,2,3,2,1,0
10.49,2,0,3,0,4,2,2,3
10.495,2,3,0,3,4,4,1,1
10.5,1,1,2,4,1,2,1,1
10.505,2,2,1,5,4,4,2,2
10.51,2,1,0,6,4,3,1,1
10.515,0,1,4,1,3,3,3,1
10.52,0,3,4,4,1,0,1,1
10.525,5,2,5,1,2,4,2,1
10.53,0,1,1,6,3,2,2,1
10.535,3,0,3,6,2,1,1,1
10.54,0,0,1,2,1,2,0,2
10.545,2,1,5,3,6,5,3,3
10.55,2,1,4,3,1,2,1,2
10.555,2,5,7,10,2,4,2,2
10.56,0,1,1,9,3,1,1,0
10.565,1,1,3,3,3,1,3,0
10.57,2,1,5,8,1,0,1,2
10.575,1,3,4,8,6,5,4,3
10.58,2,3,3,3,2,3,2,3
10.585,0,0,6,8,2,1,2,2
10.59,1,1,0,1,1,2,1,2
10.595,2,1,4,7,3,1,1,1
10.6,4,4,0,0,2,0,1,0
10.605,1,2,4,5,2,2,0,1
10.61,2,2,6,6,1,3,2,2
10.615,2,1,6,25,6,1,1,2
10.62,1,1,6,5,0,1,1,0
10.625,1,1,0,0,0,1,1,1
10.63,1,1,2,0,2,4,2,4
10.635,1,0,8,3,1,1,0,1
10.64,0,0,2,3,2,0,0,1
10.645,3,3,0,3,3,0,0,3
10.65,2,0,2,3,2,3,3,3
10.655,0,2,3,7,0,2,1,0
10.66,3,4,5,5,3,3,3,3
10.665,1,1,1,3,2,1,2,0
10.67,1,2,2,3,0,2,0,0
10.675,1,0,1,2,2,1,0,0
10.68,1,0,1,1,1,2,1,1
10.685,2,2,1,9,2,5,2,0
10.69,1,2,1,4,2,1,0,0
10.695,1,0,0,3,3,1,1,2
10.7,2,1,5,4,0,2,2,0
10.705,0,0,4,1,3,3,1,0
10.71,0,2,2,2,6,6,5,2
10.715,1,3,0,7,1,0,1,1
10.72,1,1,1,11,2,0,2,0
10.725,2,2,1,4,3,0,1,0
10.73,1,0,3,3,0,1,1,2
10.735,0,0,3,2,5,3,3,3
10.74,3,4,1,2,5,2,1,0
10.745,1,1,2,4,3,4,1,2
10.75,2,1,1,3,2,3,2,1
10.755,3,2,2,7,0,5,1,3
10.76,1,1,4,4,2,2,1,2
10.765,0,2,0,6,0,1,0,0
10.77,2,3,4,16,7,4,3,0
10.775,1,2,1,1,1,2,1,3
10.78,1,1,4,0,2,3,3,1
10.785,2,2,0,1,4,5,3,3
10.79,0,2,2,1,1,2,4,1
10.795,1,0,2,2,0,2,0,1
10.8,0,1,2,5,1,1,1,3
10.805,2,2,3,18,4,4,4,4
10.81,3,0,1,0,3,0,4,2
10.815,2,1,1,0,1,2,1,1
10.82,0,0,6,4,2,2,2,0
10.825,2,4,6,2,2,0,1,1
10.83,1,0,2,3,0,3,2,2
10.835,2,1,5,2,2,3,0,1
10.84,3,1,1,5,1,4,4,1
10.845,0,1,0,7,4,1,0,0
10.85,1,4,1,3,0,1,1,1
10.855,1,1,2,3,0,1,1,0
10.86,1,0,1,4,1,1,1,0
10.865,1,0,2,1,3,3,2,1
10.87,1,1,3,2,1,1,0,0
10.875,1,2,2,4,3,2,2,2
10.88,1,3,2,7,4,2,2,2
10.885,1,0,2,1,1,4,2,0
10.89,1,2,1,5,3,1,0,1
10.895,2,3,4,5,2,2,0,1
10.9,1,1,2,2,2,0,0,1
10.905,1,1,2,3,1,1,1,1
10.91,2,0,0,6,2,2,0,3
10.915,1,0,3,0,3,0,1,0
10.92,3,2,1,7,1,1,2,2
10.925,1,0,2,0,1,2,0,0
10.93,2,1,3,9,3,0,2,0
10.935,2,0,2,15,8,2,2,2
10.94,1,1,2,4,0,1,2,1
10.945,0,1,1,5,0,1,0,2
10.95,1,2,2,7,4,1,0,1
10.955,1,4,4,13,8,2,2,1
10.96,0,0,4,1,1,5,3,1
10.965,2,2,3,1,1,3,0,2
10.97,0,2,1,5,1,0,1,0
10.975,1,1,1,5,1,3,3,2
10.98,2,1,2,0,2,2,0,1
10.985,1,1,2,5,0,0,1,0
10.99,0,1,4,0,3,4,5,2
10.995,1,0,2,7,3,1,1,1
11,3,0,1,5,3,1,2,2
11.005,0,2,1,4,4,1,1,1
11.01,1,4,6,1,0,2,3,0
11.015,1,0,8,7,1,5,4,2
11.02,2,3,3,1,2,1,2,1
11.025,2,0,5,4,1,1,0,0
11.03,3,3,3,1,2,3,2,3
11.035,1,1,2,3,0,2,1,1
11.04,3,3,3,6,0,4,4,2
11.045,1,1,4,2,3,3,2,2
11.05,1,1,3,8,6,1,1,1
11.055,2,1,2,5,2,1,0,0
11.06,0,0,9,18,4,3,0,1
11.065,3,3,5,8,1,3,4,2
11.07,1,2,2,1,5,0,0,0
11.075,2,0,2,1,1,1,1,1
11.08,0,3,1,4,1,1,4,1
11.085,1,2,4,4,3,3,1,0
11.09,1,0,0,1,2,1,2,0
11.095,1,1,2,3,3,3,2,1
11.1,2,0,2,3,2,2,0,1
11.105,3,1,1,1,1,0,1,1
11.11,2,1,1,2,4,2,1,1
11.115,0,1,4,5,2,2,1,1
11.12,0,1,2,8,1,3,4,3
11.125,1,1,2,0,1,0,1,1
11.13,3,4,9,10,4,2,1,2
11.135,0,2,2,2,2,3,1,1
11.14,4,6,7,8,6,9,4,4
11.145,0,0,3,2,1,3,0,1
11.15,2,1,1,6,0,2,1,0
11.155,1,2,1,2,1,4,1,2
11.16,1,1,0,5,4,3,0,1
11.165,0,1,3,9,7,4,4,2
11.17,2,2,2,4,5,5,4,2
11.175,1,3,9,5,2,2,1,0
11.18,0,1,1,5,1,1,0,1
11.185,1,2,5,2,0,2,3,2
11.19,0,0,1,3,0,3,1,1
11.195,1,0,2,5,6,2,2,0
11.2,2,3,8,10,4,8,0,1
11.205,0,0,1,2,1,1,0,1
11.21,2,2,2,3,2,4,0,1
11.215,2,3,2,1,1,1,1,1
11.22,2,1,2,5,1,1,1,2
11.225,0,1,1,4,1,1,1,2
11.23,1,0,0,1,4,2,2,1
11.235,1,4,0,3,1,3,2,2
11.24,1,1,9,17,4,1,2,0
11.245,2,3,1,3,4,3,3,3
11.25,1,0,0,0,0,4,1,0
11.255,0,2,5,8,0,0,2,0
11.26,0,1,3,2,3,3,4,1
11.265,0,2,1,0,4,1,3,0
11.27,1,0,1,1,1,2,3,1
11.275,2,2,3,5,2,1,1,0
11.28,1,1,1,4,4,1,0,1
11.285,1,0,5,2,2,1,3,2
11.29,0,1,1,1,3,1,2,0
11.295,1,4,1,4,4,0,1,2
11.3,2,2,0,1,1,3,4,2
11.305,1,0,6,3,2,1,3,0
11.31,2,2,4,0,1,3,1,1
11.315,2,1,0,6,2,2,2,2
11.32,2,2,4,6,3,2,3,2
11.325,1,3,0,10,2,1,2,1
11.33,0,2,1,4,2,1,0,3
11.335,1,0,3,3,1,5,5,2
11.34,1,1,3,3,0,5,3,1
11.345,0,1,0,5,0,3,3,1
11.35,3,0,1,4,5,3,5,1
11.355,0,2,2,2,1,3,0,2
11.36,1,0,0,3,3,4,1,2
11.365,2,2,1,2,0,0,1,2
11.37,0,0,2,0,0,2,1,1
11.375,3,3,1,2,6,2,3,3
11.38,2,1,4,3,2,0,2,1
11.385,1,0,2,4,1,0,0,1
11.39,0,1,1,3,3,3,1,0
11.395,1,1,1,1,0,3,4,0
11.4,1,1,4,3,4,0,0,1
11.405,2,0,0,7,6,1,1,1
11.41,0,2,0,6,2,2,2,1
11.415,3,2,1,3,3,3,1,1
11.42,0,2,2,3,2,4,2,1
11.425,2,2,2,0,1,4,1,1
11.43,1,0,2,2,4,2,2,1
11.435,1,0,1,1,1,1,1,1
11.44,3,1,3,1,1,1,1,2
11.445,3,3,1,5,3,4,3,2
11.45,2,2,2,2,1,0,2,1
11.455,1,0,4,1,1,1,2,1
11.46,1,1,1,5,1,1,1,1
11.465,3,0,1,8,3,0,1,0
11.47,0,2,5,10,3,0,1,1
11.475,0,1,2,4,3,1,2,1
11.48,1,2,5,9,5,5,4,3
11.485,1,1,1,3,3,5,1,0
11.49,0,1,2,0,3,5,2,1
11.495,1,1,2,4,2,2,3,2
11.5,1,1,1,6,4,1,3,1
11.505,1,1,4,5,2,0,1,1
11.51,2,0,1,3,0,5,2,2
11.515,2,2,1,12,3,1,2,2
11.52,0,2,1,8,0,0,2,1
11.525,2,3,1,2,4,2,4,2
11.53,2,1,3,3,2,1,0,1
11.535,1,1,1,7,5,5,3,3
11.54,0,0,8,0,1,2,1,1
11.545,0,1,3,5,1,2,3,3
11.55,2,4,1,2,1,1,2,2
11.555,0,2,1,1,2,4,3,2
11.56,1,1,0,1,2,1,1,0
11.565,1,1,0,2,1,1,1,1
11.57,1,1,4,0,5,5,4,3
11.575,1,2,2,4,4,3,2,0
11.58,0,0,1,3,2,2,2,2
11.585,0,1,2,4,5,4,1,0
11.59,1,3,2,2,2,3,0,0
11.595,1,1,6,2,1,4,2,1
11.6,0,1,4,3,3,5,6,3
11.605,2,0,1,2,0,3,0,0
11.61,0,0,3,4,4,1,3,2
11.615,2,1,5,4,0,3,3,0
11.62,2,2,1,0,5,3,3,3
11.625,2,1,3,2,6,5,3,0
11.63,2,1,3,0,5,3,3,1
11.635,1,2,3,0,1,0,0,0
11.64,2,0,1,1,3,1,1,2
11.645,2,2,4,7,9,7,6,4
11.65,1,1,3,5,3,2,1,0
11.655,0,1,3,3,2,1,1,0
11.66,1,2,1,1,4,1,1,0
11.665,1,1,2,2,6,5,1,0
11.67,2,1,1,2,4,5,2,3
11.675,2,2,3,8,4,4,2,1
11.68,1,1,1,1,2,4,0,1
11.685,1,1,3,4,2,2,1,1
11.69,1,2,2,7,4,1,1,0
11.695,3,2,4,4,4,2,1,2
11.7,2,1,1,1,0,1,0,1
11.705,2,1,3,2,0,1,1,1
11.71,0,2,4,1,1,2,4,1
11.715,0,0,3,2,5,3,0,2
11.72,1,2,10,9,3,1,3,1
11.725,0,1,1,1,1,0,0,2
11.73,2,2,0,3,0,3,1,3
11.735,3,1,1,3,8,3,2,2
11.74,0,0,2,4,4,1,1,2
11.745,0,1,3,5,3,0,0,1
11.75,1,0,2,1,0,1,1,0
11.755,1,0,0,0,4,1,2,0
11.76,0,2,2,5,2,3,2,3
11.765,1,0,3,4,5,2,2,1
11.77,2,1,4,2,2,3,2,2
11.775,2,0,3,0,1,2,0,1
11.78,2,2,1,5,2,2,0,1
11.785,2,1,1,1,2,3,1,3
11.79,1,1,2,0,1,5,2,0
11.795,1,2,4,0,1,5,4,3
11.8,1,1,2,1,3,2,1,1
11.805,2,2,5,6,4,1,0,1
11.81,0,1,1,1,0,2,3,1
11.815,2,0,1,1,0,0,1,2
11.82,0,0,1,1,1,4,2,0
11.825,1,0,3,7,6,5,1,1
11.83,0,1,1,1,5,5,4,0
11.835,1,0,2,1,1,1,1,2
11.84,2,1,0,0,4,1,1,1
11.845,1,2,3,3,4,2,0,2
11.85,0,1,3,2,3,0,3,1
11.855,0,0,0,4,3,5,3,2
11.86,1,0,1,3,2,2,0,1
11.865,0,1,2,5,0,0,0,0
11.87,2,1,1,2,3,1,3,0
11.875,0,2,4,1,0,1,2,2
11.88,1,3,1,1,7,6,4,3
11.885,2,1,3,3,3,2,4,0
11.89,2,1,2,4,2,2,1,1
11.895,1,0,4,2,3,2,1,1
11.9,1,1,2,3,2,0,1,0
11.905,1,2,3,5,0,0,1,1
11.91,2,0,0,5,1,2,4,3
11.915,3,3,2,2,0,2,3,1
11.92,2,1,1,1,2,6,3,2
11.925,0,1,1,5,6,2,2,2
11.93,1,0,0,1,5,5,6,1
11.935,1,1,1,0,0,3,3,3
11.94,1,3,3,7,6,3,1,1
11.945,2,2,2,3,0,2,2,1
11.95,1,2,1,0,6,8,4,3
11.955,1,2,1,3,4,1,3,1
11.96,0,0,6,3,0,1,2,1
11.965,1,3,1,5,2,0,1,2
11.97,2,1,1,0,2,1,1,2
11.975,1,2,0,3,5,3,3,2
11.98,1,0,0,2,2,3,4,2
11.985,1,1,4,6,6,3,1,2
11.99,0,2,2,2,1,2,3,0
11.995,2,0,1,3,4,3,1,1
12,0,1,0,0,3,0,1,0
12.005,0,1,3,6,6,2,0,0
12.01,0,2,2,0,4,3,4,2
12.015,3,2,0,0,5,0,1,3
12.02,2,0,1,1,4,2,3,1
12.025,1,2,1,1,2,1,1,2
12.03,2,1,1,0,1,1,0,2
12.035,1,1,1,3,2,5,1,1
12.04,1,3,0,0,3,3,1,0
12.045,2,2,1,2,3,3,3,3
12.05,2,0,2,4,3,3,2,3
12.055,1,0,0,1,1,1,2,1
12.06,1,1,1,1,2,0,2,2
12.065,1,0,2,2,2,3,1,0
12.07,0,1,1,0,1,0,2,1
12.075,2,2,1,1,0,5,3,1
12.08,1,0,2,3,2,2,0,1
12.085,1,1,1,4,6,7,3,2
12.09,3,1,3,7,3,1,3,3
12.095,1,0,0,2,0,2,0,2
12.1,1,1,2,1,1,2,2,3
12.105,1,1,3,1,3,1,1,0
12.11,1,0,2,1,1,1,2,0
12.115,2,2,2,0,4,5,3,1
12.12,2,3,3,0,0,4,1,0
12.125,1,1,2,1,1,1,3,1
12.13,0,3,2,0,0,0,0,1
12.135,2,1,2,3,2,1,0,2
12.14,3,1,0,2,3,2,2,2
12.145,1,1,1,1,1,1,2,0
12.15,1,1,2,5,6,3,4,0
12.155,0,0,1,2,1,2,2,0
12.16,1,3,2,1,2,4,3,0
12.165,2,0,0,6,4,5,2,3
12.17,1,1,1,2,0,3,2,2
12.175,2,2,3,7,12,1,3,3
12.18,0,0,0,2,1,3,4,3
12.185,0,3,0,3,2,2,2,1
12.19,1,3,3,0,2,0,0,0
12.195,2,1,0,1,1,3,3,2
12.2,2,2,3,6,10,8,6,4
12.205,0,1,1,2,3,4,1,1
12.21,0,1,1,3,1,0,1,1
12.215,1,2,3,5,2,0,2,1
12.22,0,0,1,3,3,3,3,3
12.225,2,3,2,5,2,1,1,3
12.23,2,2,1,1,0,2,0,2
12.235,0,0,2,2,0,0,2,1
12.24,1,2,0,1,1,1,1,2
12.245,2,2,0,1,1,2,2,0
12.25,0,1,3,3,5,2,2,1
12.255,1,0,0,1,2,1,6,1
12.26,1,0,1,7,6,0,0,0
12.265,1,1,4,11,10,9,8,6
12.27,0,3,2,5,16,12,12,6
12.275,0,1,1,9,17,14,16,7
12.28,2,1,0,4,2,1,1,2
12.285,2,2,3,3,5,3,3,0
12.29,2,1,3,4,2,0,3,1
12.295,2,2,2,8,14,10,11,6
12.3,1,2,2,1,0,0,0,0
12.305,1,1,3,5,0,1,0,1
12.31,1,1,1,2,0,2,1,2
12.315,1,2,5,7,7,6,4,4
12.32,2,1,0,0,7,7,7,2
12.325,0,0,3,0,6,8,6,3
12.33,1,1,3,10,4,3,3,4
12.335,0,2,4,5,1,5,0,1
12.34,3,4,2,10,10,6,5,4
12.345,3,2,2,4,2,4,1,3
12.35,3,0,2,3,0,3,4,0
12.355,1,0,1,0,1,2,3,2
12.36,1,0,3,1,7,6,3,3
12.365,1,1,1,4,4,2,2,1
12.37,2,2,1,4,2,3,3,4
12.375,1,2,0,3,9,6,5,5
12.38,1,1,3,2,3,6,5,3
12.385,2,1,2,4,1,2,5,1
12.39,1,0,2,1,6,2,1,0
12.395,1,2,4,2,2,3,1,1
12.4,0,1,2,9,1,1,2,0
12.405,2,2,5,8,4,1,5,1
12.41,2,2,3,4,4,3,4,0
12.415,0,1,1,1,3,1,1,0
12.42,3,1,3,5,5,0,2,0
12.425,1,1,0,3,7,2,2,2
12.43,0,1,5,14,2,1,3,3
12.435,1,1,1,6,0,4,4,1
12.44,1,1,3,7,1,1,2,1
12.445,0,2,3,2,2,5,4,1
12.45,0,1,3,10,9,5,6,2
12.455,1,3,2,6,5,2,4,3
12.46,1,2,1,2,9,6,4,3
12.465,1,0,1,0,1,3,0,1
12.47,3,1,2,4,6,5,5,3
12.475,1,0,0,0,5,1,2,2
12.48,1,0,3,2,3,3,0,1
12.485,1,3,0,8,2,2,1,4
12.49,2,4,6,9,6,7,4,2
12.495,2,2,1,5,1,2,0,1
12.5,1,1,2,6,9,6,6,5
12.505,1,1,1,7,9,4,4,4
12.51,1,2,3,1,2,1,2,3
12.515,0,0,2,1,4,3,5,2
12.52,2,1,8,11,12,7,3,2
12.525,0,1,0,5,2,2,2,0
12.53,1,2,3,11,10,7,5,3
12.535,2,2,0,1,12,7,7,4
12.54,1,2,0,1,1,2,0,2
12.545,0,1,0,6,7,5,4,2
12.55,0,1,3,15,1,6,4,2
12.555,2,4,6,18,9,5,4,3
12.56,2,1,0,1,9,0,3,0
12.565,2,0,1,1,3,3,2,2
12.57,1,0,0,3,3,2,2,1
12.575,2,0,0,5,6,7,7,3
12.58,1,1,0,1,7,8,7,4
12.585,1,1,0,4,2,2,3,1
12.59,1,1,2,9,2,4,3,0
12.595,0,2,3,2,5,4,3,3
12.6,2,3,1,2,6,7,4,3
12.605,1,1,3,0,1,2,4,1
12.61,3,1,1,1,0,7,4,2
12.615,1,2,2,3,2,5,2,1
12.62,2,2,2,1,6,4,6,3
12.625,0,0,1,2,4,1,5,0
12.63,1,2,1,1,3,9,12,7
12.635,0,0,1,6,5,4,7,10
12.64,2,0,1,7,1,1,7,2
12.645,4,2,2,9,2,1,2,3
12.65,1,1,3,2,3,3,1,0
12.655,0,1,2,0,2,1,2,2
12.66,1,1,2,6,0,1,1,1
12.665,2,2,2,5,3,0,2,1
12.67,2,0,1,2,0,1,2,1
12.675,0,0,1,4,1,9,4,3
12.68,2,6,5,4,1,1,1,1
12.685,2,1,2,14,3,1,0,3
12.69,0,2,7,23,16,7,5,3
12.695,2,0,1,2,11,11,6,3
12.7,0,2,1,1,7,10,5,2
12.705,3,0,1,7,7,5,3,2
12.71,1,3,1,2,1,1,2,1
12.715,1,3,2,4,12,8,10,7
12.72,1,1,0,2,1,1,4,1
12.725,0,3,5,16,4,2,1,0
12.73,2,0,4,10,5,3,5,1
12.735,3,2,5,5,8,8,1,4
12.74,1,1,1,0,1,3,13,1
12.745,3,2,1,1,5,6,18,3
12.75,2,1,0,6,1,2,9,1
12.755,4,2,1,2,5,11,17,1
12.76,3,2,3,8,1,9,16,2
12.765,2,2,3,7,7,19,57,7
12.77,1,1,3,7,2,17,34,7
12.775,0,1,0,4,10,4,28,1
12.78,1,2,2,1,1,0,8,5
12.785,1,1,3,8,10,15,22,5
12.79,2,3,3,7,6,6,32,0
12.795,0,1,4,1,6,2,1,2
12.8,1,1,1,7,2,0,9,0
12.805,3,2,0,2,2,0,7,2
12.81,2,1,4,7,8,4,3,2
12.815,0,1,3,1,5,7,8,1
12.82,1,1,1,1,8,9,5,2
12.825,2,2,1,1,0,4,11,0
12.83,1,0,3,8,3,4,6,4
12.835,4,5,5,0,1,4,18,6
12.84,1,1,2,1,1,1,0,1
12.845,2,1,2,4,4,0,2,0
12.85,1,1,0,5,1,1,3,2
12.855,1,3,2,3,1,1,5,3
12.86,1,0,2,5,0,4,9,1
12.865,3,5,3,2,4,3,8,0
12.87,5,3,4,2,1,4,13,7
12.875,2,2,1,2,11,16,15,6
12.88,1,1,2,1,12,12,19,4
12.885,0,1,2,3,8,0,1,2
12.89,3,5,2,3,3,4,4,2
12.895,1,0,2,6,2,1,7,1
12.9,1,3,5,12,9,6,10,5
12.905,1,1,3,8,4,6,1,3
12.91,0,1,2,4,1,5,1,3
12.915,2,1,1,8,4,4,11,4
12.92,0,1,4,12,3,2,14,4
12.925,1,0,6,18,2,3,11,0
12.93,1,4,8,24,6,4,0,0
12.935,1,1,2,6,10,10,1,2
12.94,2,3,2,16,15,14,4,6
12.945,2,2,2,4,3,6,19,0
12.95,3,4,3,7,1,1,8,2
12.955,1,3,2,4,2,3,12,5
12.96,1,0,1,2,4,5,13,2
12.965,1,0,3,2,1,3,10,0
12.97,0,2,1,10,3,4,2,3
12.975,0,0,2,3,5,6,3,0
12.98,1,1,1,1,0,5,28,4
12.985,0,2,2,4,1,5,2,0
12.99,2,1,1,2,4,3,5,1
12.995,1,2,1,1,0,3,2,3
13,4,4,2,3,7,7,14,6
13.005,1,2,5,1,0,8,20,5
13.01,1,2,4,2,15,9,22,3
13.015,2,1,1,1,2,1,0,1
13.02,3,2,1,6,7,11,31,9
13.025,0,0,4,14,10,1,12,0
13.03,1,1,1,9,1,4,6,1
13.035,3,1,4,8,3,8,14,0
13.04,0,1,1,3,3,5,3,2
13.045,0,0,2,3,7,6,13,4
13.05,2,2,3,0,1,1,8,2
13.055,2,2,2,3,5,4,4,2
13.06,3,3,4,6,3,2,17,2
13.065,2,3,5,17,7,3,6,4
13.07,2,3,1,1,5,5,8,1
13.075,1,3,8,15,8,8,6,2
13.08,1,1,4,16,8,3,0,0
13.085,1,0,2,6,7,3,0,1
13.09,2,2,1,1,6,2,3,3
13.095,1,1,2,2,7,7,7,3
13.1,1,0,1,1,3,2,1,2
13.105,1,1,2,9,3,3,3,0
13.11,1,0,0,6,1,2,23,4
13.115,1,4,2,3,4,2,19,4
13.12,0,1,0,9,16,12,15,6
13.125,1,1,2,13,18,13,14,6
13.13,2,2,0,1,3,6,1,3
13.135,1,1,0,3,8,0,10,3
13.14,3,2,3,7,2,1,2,1
13.145,3,1,3,10,15,10,8,3
13.15,1,1,1,10,17,5,4,1
13.155,3,2,2,12,15,3,1,1
13.16,1,1,6,3,18,5,0,0
13.165,1,2,3,7,8,5,1,3
13.17,1,1,3,9,4,0,3,2
13.175,2,1,0,2,7,8,3,2
13.18,2,2,3,6,11,6,7,2
13.185,0,1,1,4,9,3,2,2
13.19,3,2,3,1,1,4,3,1
13.195,1,1,3,4,3,3,1,0
13.2,1,3,1,3,5,4,4,3
13.205,0,1,1,2,2,1,4,1
13.21,1,1,4,15,8,4,1,1
13.215,1,1,1,1,5,4,4,3
13.22,0,1,1,2,9,4,6,1
13.225,1,1,0,9,1,1,3,1
13.23,1,2,2,1,0,4,2,0
13.235,1,0,4,3,3,5,6,5
13.24,4,3,6,12,0,2,4,1
13.245,1,2,6,6,9,3,1,1
13.25,1,3,7,9,5,0,1,2
13.255,1,3,1,11,10,1,0,1
13.26,1,1,2,11,20,9,8,3
13.265,1,0,4,3,8,10,6,3
13.27,1,1,2,6,10,4,0,1
13.275,1,2,2,5,12,6,0,1
13.28,1,1,1,0,6,2,2,2
13.285,2,1,4,13,7,7,5,3
13.29,2,1,5,7,4,2,0,1
13.295,0,3,2,3,6,7,0,0
13.3,3,1,1,5,13,7,6,5
13.305,1,1,2,2,2,1,2,1
13.31,0,3,1,6,2,1,3,0
13.315,0,1,1,0,1,2,0,1
13.32,0,1,2,7,2,0,0,1
13.325,2,3,2,6,4,2,5,4
13.33,2,1,0,6,0,3,2,3
13.335,1,2,5,8,8,4,3,3
13.34,1,1,2,11,6,3,3,0
13.345,1,2,4,16,11,5,1,1
13.35,0,3,3,13,6,4,1,1
13.355,0,3,1,5,1,2,0,0
13.36,2,2,3,3,1,2,1,2
13.365,1,4,1,4,3,3,3,0
13.37,2,0,3,1,1,0,0,2
13.375,2,3,2,3,3,2,2,1
13.38,1,0,1,3,9,9,6,4
13.385,0,1,1,5,6,10,6,1
13.39,0,1,3,2,2,1,4,3
13.395,1,2,1,8,6,5,5,1
13.4,1,1,0,0,3,2,1,1
13.405,2,2,2,0,0,2,4,3
13.41,1,0,0,0,5,3,4,2
13.415,1,0,2,5,10,8,5,4
13.42,0,1,2,2,5,5,5,0
13.425,0,1,4,2,2,4,2,1
13.43,2,3,2,7,4,1,2,1
13.435,0,1,0,1,1,4,2,2
13.44,2,1,1,4,4,4,4,2
13.445,2,0,2,3,4,7,5,3
13.45,0,1,1,5,1,2,0,2
13.455,1,5,1,2,0,0,0,0
13.46,3,8,6,14,6,2,4,3
13.465,3,1,3,3,1,5,0,1
13.47,0,7,3,6,7,0,0,0
13.475,4,4,2,3,2,2,1,2
13.48,1,2,0,0,0,4,2,0
13.485,0,3,2,1,2,5,1,1
13.49,2,0,1,4,11,6,3,1
13.495,2,3,1,1,2,4,1,0
13.5,2,1,2,1,3,0,3,1
13.505,4,1,1,1,1,2,0,0
13.51,2,1,1,3,6,0,1,0
13.515,2,2,3,6,5,2,2,2
13.52,2,4,3,3,2,3,1,1
13.525,1,0,1,1,3,3,1,0
13.53,1,3,1,0,3,0,0,1
13.535,1,1,0,2,4,1,1,0
13.54,1,3,1,1,3,2,1,1
13.545,1,1,3,10,9,5,3,3
13.55,2,3,1,0,1,5,2,2
13.555,1,1,0,1,3,3,1,2
13.56,1,1,0,2,2,2,2,1
13.565,2,1,1,1,1,5,1,0
13.57,1,4,2,4,2,1,0,1
13.575,0,2,1,0,2,1,1,1
13.58,1,1,2,0,0,3,1,0
13.585,1,1,3,4,4,1,0,1
13.59,1,3,0,4,3,1,3,2
13.595,0,0,2,1,3,1,1,2
13.6,1,1,2,4,8,4,4,1
13.605,1,3,0,1,2,3,1,2
13.61,1,1,3,2,0,5,0,0
13.615,0,0,0,1,3,1,1,0
13.62,3,1,1,3,3,3,0,3
13.625,1,1,1,0,4,6,5,2
13.63,0,1,1,0,1,1,0,0
13.635,1,2,1,2,5,4,5,2
13.64,1,0,0,1,1,1,2,2
13.645,0,1,0,0,1,2,2,2
13.65,2,0,2,1,8,4,3,4
13.655,3,2,3,19,10,7,7,4
13.66,0,0,2,5,4,3,3,5
13.665,2,3,2,1,0,2,0,0
13.67,3,4,0,5,0,3,2,0
13.675,0,1,2,5,2,0,2,0
13.68,1,2,1,5,10,8,6,5
13.685,1,1,3,2,3,3,2,1
13.69,1,0,1,4,7,6,2,3
13.695,1,1,0,11,6,8,5,1
13.7,2,1,6,15,11,7,7,5
13.705,0,0,2,5,4,3,4,1
13.71,2,0,0,7,5,5,6,3
13.715,0,0,2,5,10,7,5,2
13.72,3,4,1,4,2,3,2,3
13.725,1,2,4,6,6,5,6,4
13.73,2,1,3,13,14,3,6,2
13.735,2,3,4,18,13,5,4,4
13.74,0,0,1,1,3,2,2,1
13.745,2,2,1,3,4,6,6,3
13.75,0,4,4,2,0,2,4,1
13.755,2,1,1,14,8,2,4,0
13.76,2,2,0,1,4,7,9,0
13.765,2,0,1,2,3,3,4,0
13.77,1,0,2,6,8,6,3,1
13.775,4,1,2,4,1,1,3,1
13.78,2,0,0,5,1,4,6,1
13.785,1,2,0,1,3,5,7,7
13.79,1,0,6,19,0,7,13,7
13.795,0,0,0,1,6,2,6,1
13.8,2,1,0,2,1,2,3,0
13.805,1,0,0,3,2,1,11,1
13.81,2,2,0,4,3,4,7,5
13.815,1,3,1,3,2,2,3,3
13.82,1,0,3,7,4,3,3,5
13.825,1,1,1,3,5,4,0,4
13.83,1,0,0,8,5,5,8,5
13.835,2,2,8,33,10,5,3,0
13.84,2,1,1,2,7,2,2,3
13.845,1,2,2,0,3,2,4,1
13.85,1,0,3,7,5,2,3,1
13.855,0,1,2,8,2,2,3,2
13.86,2,0,2,3,7,4,2,3
13.865,3,3,0,10,6,0,0,1
13.87,1,1,1,3,7,9,9,3
13.875,1,1,0,6,6,3,7,1
13.88,1,3,4,7,2,3,0,2
13.885,1,0,1,1,1,1,2,2
13.89,0,1,1,4,3,4,2,2
13.895,2,2,2,10,5,2,1,2
13.9,0,3,2,1,1,2,2,2
13.905,0,2,3,1,3,2,2,6
13.91,1,0,2,7,3,1,5,3
13.915,1,1,2,4,3,6,4,4
13.92,0,1,0,3,2,1,2,0
13.925,1,2,7,7,3,4,3,1
13.93,3,1,0,0,6,4,3,1
13.935,2,0,0,7,4,0,2,0
13.94,1,3,9,4,3,3,14,5
13.945,5,2,4,9,2,3,16,3
13.95,1,1,1,10,1,2,3,1
13.955,0,1,4,5,3,5,16,1
13.96,2,1,1,2,5,4,9,4
13.965,1,0,4,4,3,12,54,3
13.97,3,1,1,6,8,8,38,6
13.975,1,0,3,9,7,3,7,24
13.98,2,1,2,6,7,3,12,15
13.985,2,3,11,26,7,2,9,11
13.99,1,1,2,7,8,2,6,6
13.995,2,1,4,16,11,10,2,2
14,4,1,3,11,3,0,6,9
14.005,2,3,0,2,10,4,16,5
14.01,0,2,1,8,4,2,21,1
14.015,1,1,1,1,5,9,15,1
14.02,5,3,6,16,9,5,6,3
14.025,3,2,3,6,3,1,11,3
14.03,1,1,1,6,15,7,2,11
14.035,1,3,2,7,19,10,21,10
14.04,3,3,3,4,9,11,9,9
14.045,2,1,3,13,14,2,13,6
14.05,0,1,3,5,5,1,2,2
14.055,2,1,1,7,8,8,12,2
14.06,0,2,5,26,3,4,2,1
14.065,0,1,3,9,7,5,7,1
14.07,1,3,7,3,7,3,4,0
14.075,2,2,4,3,1,2,2,1
14.08,2,0,6,3,2,2,1,1
14.085,3,1,1,0,4,6,6,8
14.09,0,0,0,2,4,3,8,3
14.095,3,1,0,2,1,4,2,0
14.1,1,1,1,8,0,3,6,0
14.105,0,1,3,2,2,1,1,0
14.11,0,2,2,1,2,1,4,1
14.115,3,1,3,4,2,0,7,1
14.12,1,1,1,5,6,3,7,5
14.125,1,2,3,1,1,3,5,3
14.13,1,2,1,1,1,1,5,1
14.135,0,0,0,4,4,4,0,0
14.14,2,1,0,1,3,1,2,0
14.145,1,2,2,5,5,6,5,4
14.15,1,0,1,4,6,2,1,2
14.155,1,0,0,4,12,3,6,3
14.16,2,3,1,0,3,2,1,1
14.165,1,1,2,1,0,1,1,1
14.17,2,1,1,2,2,1,1,1
14.175,1,3,2,2,8,5,3,1
14.18,2,2,1,2,3,2,2,2
14.185,1,2,0,2,0,2,0,2
14.19,2,3,2,3,2,0,1,1
14.195,0,1,1,1,3,5,3,2
14.2,0,1,1,0,4,4,1,0
14.205,0,2,2,0,1,2,2,2
14.21,1,0,0,6,6,1,0,1
14.215,1,1,0,2,0,2,1,1
14.22,0,1,1,2,4,0,2,0
14.225,2,0,0,0,1,1,3,2
14.23,3,3,1,2,0,2,2,0
14.235,2,4,2,0,1,0,1,1
14.24,0,2,1,3,4,4,1,3
14.245,1,0,2,4,12,4,3,2
14.25,0,0,0,1,7,4,1,3
14.255,2,1,1,1,1,0,3,3
14.26,1,0,4,3,10,3,1,0
14.265,2,1,1,2,4,4,2,1
14.27,2,2,4,5,3,2,1,0
14.275,2,2,2,3,14,12,6,3
14.28,4,4,1,8,5,1,2,1
14.285,0,2,3,2,4,2,0,1
14.29,4,7,1,4,8,7,1,2
14.295,2,3,5,7,1,1,5,2
14.3,2,1,1,2,9,4,4,3
14.305,0,1,1,1,3,2,0,1
14.31,1,2,2,5,2,0,1,1
14.315,0,0,2,2,3,1,3,2
14.32,1,2,0,4,12,6,4,2
14.325,2,1,1,2,2,0,2,1
14.33,0,1,1,1,1,2,2,1
14.335,2,1,1,4,0,2,0,1
14.34,2,0,0,2,5,1,1,2
14.345,0,1,2,8,5,3,5,2
14.35,3,1,1,2,3,1,1,1
14.355,1,0,0,1,2,3,0,1
14.36,0,2,1,0,4,0,0,1
14.365,1,2,2,1,4,2,0,1
14.37,2,1,4,4,0,2,0,0
14.375,0,1,2,6,3,1,2,2
14.38,1,1,1,2,3,4,5,4
14.385,1,0,1,1,3,6,5,2
14.39,1,2,1,2,0,2,1,3
14.395,3,3,0,0,0,2,1,1
14.4,2,2,2,3,4,2,0,1
14.405,1,2,3,4,4,2,2,1
14.41,3,3,1,2,7,6,5,3
14.415,2,1,5,2,4,4,3,0
14.42,2,0,1,0,5,3,2,0
14.425,2,2,1,1,0,0,0,1
14.43,1,2,1,1,2,1,0,2
14.435,1,1,3,4,5,2,0,0
14.44,2,0,2,3,1,1,2,0
14.445,3,2,5,5,6,3,4,2
14.45,1,0,5,5,7,3,5,3
14.455,3,1,4,2,4,0,2,1
14.46,2,3,1,1,0,1,2,1
14.465,2,1,1,0,2,1,0,1
14.47,1,1,2,2,1,0,2,0
14.475,1,4,1,3,0,0,0,2
14.48,1,3,2,1,5,5,4,0
14.485,1,4,1,3,2,2,1,1
14.49,1,1,0,4,1,3,1,4
14.495,1,0,1,0,5,4,3,2
14.5,0,0,4,1,4,1,2,3
14.505,1,4,3,2,0,0,0,1
14.51,1,1,2,1,1,3,0,1
14.515,1,2,0,0,2,1,1,2
14.52,0,2,6,3,4,1,1,2
14.525,2,15,1,3,1,4,2,1
14.53,1,16,16,8,6,3,0,3
14.535,1,5,18,4,3,1,1,1
14.54,15,43,44,12,7,3,6,8
14.545,1,4,3,2,2,0,1,3
14.55,1,20,16,3,4,3,1,2
14.555,0,4,5,2,1,0,0,1
14.56,6,14,18,4,2,2,2,1
14.565,3,10,11,0,0,3,3,2
14.57,0,6,9,0,0,2,5,2
14.575,2,0,4,3,5,3,2,1
14.58,1,4,10,2,3,2,3,1
14.585,1,5,1,3,4,3,3,2
14.59,1,6,1,0,13,6,6,2
14.595,3,5,12,6,1,2,0,0
14.6,1,2,3,2,3,5,0,0
14.605,3,4,7,5,8,5,4,2
14.61,4,7,10,0,2,0,1,3
14.615,0,2,1,3,6,4,3,3
14.62,0,0,2,1,2,1,1,1
14.625,1,2,2,1,3,1,1,1
14.63,3,6,4,0,0,1,0,3
14.635,1,3,6,4,3,0,2,0
14.64,2,6,8,5,5,0,0,1
14.645,1,1,0,1,4,0,0,0
14.65,3,5,9,7,3,1,2,1
14.655,2,0,4,1,4,5,1,2
14.66,1,0,4,2,8,1,1,1
14.665,0,0,1,3,12,5,1,1
14.67,2,5,4,1,2,4,2,1
14.675,0,1,8,4,3,3,3,0
14.68,0,2,12,5,1,3,3,2
14.685,2,4,0,4,6,4,2,2
14.69,0,1,2,2,0,2,4,4
14.695,4,3,7,6,9,7,5,5
14.7,1,1,3,5,2,0,1,2
14.705,1,3,4,5,2,2,3,0
14.71,1,1,3,0,1,2,3,2
14.715,1,0,1,4,7,2,3,2
14.72,0,0,1,3,6,3,0,0
14.725,1,5,2,1,2,1,1,1
14.73,1,2,9,9,5,6,7,3
14.735,0,1,2,6,2,1,5,2
14.74,3,2,8,7,3,2,1,2
14.745,1,2,4,1,6,3,4,4
14.75,2,0,1,5,7,2,1,2
