0.01,1,1,2,3,4,4,3,1
0.015,1,2,0,3,4,0,1,2
0.02,0,0,1,1,2,5,4,2
0.025,0,1,1,1,3,0,4,2
0.03,2,1,1,1,3,2,0,1
0.035,2,1,1,1,1,2,1,2
0.04,1,2,2,3,5,8,2,2
0.045,1,1,1,1,1,2,1,1
0.05,0,1,1,1,2,5,2,1
0.055,0,1,1,1,3,2,1,1
0.06,3,1,2,2,6,5,1,3
0.065,1,0,1,0,1,3,1,0
0.07,2,2,1,2,1,1,1,2
0.075,1,3,2,6,8,5,6,4
0.08,1,1,0,3,3,1,6,2
0.085,3,0,1,3,5,5,1,3
0.09,2,3,2,1,5,2,2,2
0.095,0,1,1,3,3,6,1,2
0.1,0,1,2,3,3,8,3,4
0.105,0,0,2,0,11,11,3,1
0.11,1,1,1,4,14,12,6,3
0.115,1,1,2,2,3,3,2,1
0.12,0,3,2,3,7,6,2,1
0.125,1,2,1,3,4,2,3,1
0.13,1,1,2,3,7,4,5,3
0.135,2,2,1,1,4,6,0,1
0.14,0,1,1,0,18,9,2,0
0.145,1,2,1,5,24,23,1,0
0.15,0,1,1,2,4,3,0,2
0.155,2,2,0,1,5,2,1,1
0.16,2,2,2,4,7,9,4,2
0.165,1,1,1,6,8,4,3,3
0.17,1,0,1,2,3,2,1,1
0.175,1,2,2,3,2,2,2,2
0.18,1,2,2,2,1,0,1,0
0.185,0,2,2,3,2,0,2,1
0.19,2,0,3,1,1,2,0,1
0.195,2,1,2,1,5,3,1,2
0.2,1,1,1,2,6,8,1,2
0.205,0,1,1,3,4,2,0,1
0.21,2,2,1,0,1,1,0,1
0.215,3,2,1,1,5,4,0,0
0.22,1,2,1,3,1,3,3,1
0.225,3,2,1,1,3,1,1,1
0.23,1,2,0,1,3,1,2,1
0.235,2,0,1,3,12,10,3,2
0.24,2,3,1,0,13,4,2,1
0.245,0,1,2,1,3,3,1,1
0.25,1,0,2,2,2,2,2,0
0.255,0,1,0,2,2,9,1,1
0.26,1,2,2,4,10,13,4,1
0.265,1,0,2,4,7,7,4,3
0.27,1,2,2,2,0,2,3,2
0.275,1,1,0,1,4,0,2,1
0.28,1,1,2,1,2,3,3,1
0.285,2,1,1,1,1,1,3,2
0.29,1,1,0,2,7,7,3,1
0.295,2,2,0,1,8,7,1,1
0.3,1,1,1,0,3,3,3,1
0.305,1,1,1,1,6,5,2,0
0.31,1,0,0,3,9,5,0,1
0.315,1,3,3,1,5,8,3,2
0.32,2,1,3,4,8,4,3,1
0.325,0,2,0,4,2,4,2,2
0.33,0,1,2,3,11,6,4,0
0.335,0,1,0,1,4,6,2,0
0.34,2,0,1,2,6,5,3,2
0.345,0,0,2,0,4,2,1,0
0.35,2,2,1,0,1,0,1,0
0.355,2,2,0,0,3,1,1,0
0.36,1,1,0,0,1,1,0,1
0.365,3,3,0,5,11,9,7,3
0.37,0,3,1,0,10,5,1,1
0.375,1,1,1,3,7,9,2,1
0.38,2,1,2,1,1,1,1,1
0.385,1,1,1,3,6,6,2,2
0.39,3,0,2,1,7,3,1,0
0.395,0,1,1,4,5,5,3,1
0.4,2,1,1,0,3,4,3,2
0.405,2,1,3,5,14,5,1,0
0.41,0,1,1,2,1,3,2,2
0.415,0,0,0,0,3,0,3,1
0.42,1,0,2,2,1,1,2,2
0.425,0,4,2,0,3,1,1,2
0.43,0,1,1,2,5,0,1,1
0.435,1,0,2,2,4,7,2,0
0.44,1,0,0,3,4,3,2,1
0.445,3,0,2,3,3,6,2,1
0.45,1,1,1,4,11,12,6,1
0.455,1,1,0,1,0,4,2,0
0.46,1,0,0,2,1,0,1,1
0.465,2,1,1,1,0,2,3,2
0.47,1,0,1,3,6,5,3,2
0.475,1,1,0,1,3,0,1,2
0.48,1,2,1,2,1,3,3,1
0.485,0,0,2,0,3,3,2,0
0.49,2,0,1,1,9,13,4,2
0.495,2,1,1,1,1,8,1,4
0.5,1,0,1,3,1,5,0,0
0.505,1,0,0,1,6,5,3,1
0.51,2,1,1,0,2,1,0,1
0.515,3,1,4,1,3,1,2,1
0.52,1,2,2,3,3,1,3,4
0.525,0,0,1,1,0,2,1,0
0.53,0,1,1,2,4,5,5,1
0.535,0,1,0,2,4,4,4,0
0.54,0,2,1,1,4,1,0,2
0.545,0,0,2,1,2,0,0,3
0.55,1,1,2,3,5,0,1,2
0.555,2,1,0,3,0,11,6,2
0.56,2,1,0,5,3,8,6,3
0.565,0,3,1,1,2,3,2,2
0.57,2,1,1,1,6,7,1,0
0.575,1,2,0,4,12,11,2,2
0.58,1,1,0,5,4,2,5,3
0.585,3,2,3,0,2,2,1,1
0.59,1,0,1,3,2,4,1,0
0.595,1,2,3,2,3,4,1,1
0.6,2,1,2,1,0,2,1,1
0.605,2,2,0,1,3,0,1,1
0.61,4,2,1,3,0,2,1,2
0.615,1,2,2,1,2,1,1,1
0.62,1,1,0,1,2,0,0,0
0.625,1,1,2,3,1,1,3,2
0.63,0,1,1,2,4,4,1,2
0.635,0,1,1,1,3,3,1,2
0.64,1,2,3,2,0,3,1,1
0.645,1,0,2,2,4,5,1,0
0.65,0,1,2,3,4,4,3,2
0.655,1,1,2,0,1,1,1,0
0.66,2,3,1,3,3,1,3,3
0.665,2,0,1,3,14,10,1,0
0.67,1,0,0,3,15,9,0,0
0.675,0,1,1,2,1,2,2,2
0.68,1,0,1,0,2,2,2,0
0.685,2,1,1,2,3,1,1,0
0.69,1,1,1,4,11,8,3,2
0.695,2,1,1,3,3,2,4,1
0.7,1,0,1,2,4,1,2,0
0.705,0,1,0,2,4,1,0,0
0.71,1,0,2,1,3,3,2,2
0.715,0,1,1,3,4,5,2,2
0.72,0,2,3,4,5,2,2,3
0.725,0,1,1,4,1,3,0,1
0.73,1,0,1,0,3,3,1,1
0.735,2,1,3,1,4,3,2,1
0.74,3,2,0,6,2,4,4,4
0.745,0,0,0,1,2,0,1,2
0.75,1,2,0,1,1,0,3,2
0.755,0,0,3,0,1,4,3,1
0.76,2,2,1,3,3,6,4,1
0.765,1,0,2,0,0,2,2,2
0.77,1,1,0,3,6,3,3,1
0.775,1,1,1,3,6,15,7,3
0.78,0,1,2,2,9,18,2,1
0.785,1,0,0,1,1,1,2,1
0.79,1,0,1,0,5,5,3,2
0.795,2,2,1,1,0,0,0,0
0.8,1,2,1,5,8,6,4,1
0.805,2,2,1,1,1,4,2,1
0.81,1,3,1,1,13,6,0,0
0.815,1,3,1,1,3,1,1,1
0.82,1,1,0,1,3,2,1,0
0.825,0,1,1,2,2,4,1,1
0.83,2,1,2,1,4,5,3,2
0.835,0,2,1,2,1,0,2,1
0.84,0,1,1,1,10,10,1,2
0.845,1,1,0,2,7,5,1,2
0.85,0,1,1,1,2,1,1,0
0.855,0,2,0,3,1,1,1,0
0.86,1,1,1,2,3,3,3,1
0.865,3,2,0,4,8,6,3,3
0.87,1,2,1,1,4,1,1,1
0.875,1,1,2,1,1,5,1,0
0.88,1,2,0,2,1,5,1,1
0.885,0,2,1,2,3,2,3,1
0.89,0,2,1,0,1,5,1,0
0.895,1,0,0,1,0,4,1,1
0.9,1,1,1,0,2,3,1,1
0.905,1,0,2,3,4,4,2,1
0.91,1,1,3,4,8,4,1,1
0.915,0,1,1,2,2,3,1,1
0.92,2,0,1,0,1,0,0,0
0.925,1,0,1,0,2,3,1,1
0.93,2,3,1,3,6,3,3,1
0.935,1,1,0,3,3,3,1,2
0.94,0,1,1,2,2,1,1,1
0.945,0,2,0,2,1,3,1,0
0.95,0,2,3,2,3,1,3,2
0.955,1,0,1,0,2,0,0,2
0.96,0,1,3,0,5,2,2,2
0.965,1,0,2,1,3,4,1,0
0.97,1,1,2,1,2,0,0,2
0.975,1,1,2,4,5,3,4,2
0.98,1,2,1,1,2,3,1,1
0.985,2,1,1,2,6,8,3,1
0.99,1,1,1,1,0,2,1,2
0.995,0,0,0,1,2,0,2,1
1,1,0,2,4,3,2,3,3
1.005,2,1,1,3,4,5,2,1
1.01,2,0,3,1,1,1,1,2
1.015,0,0,2,2,4,6,2,0
1.02,0,1,0,4,6,3,3,1
1.025,1,1,1,1,1,1,1,1
1.03,2,2,1,0,0,1,1,0
1.035,1,2,2,3,6,5,2,3
1.04,2,1,1,2,0,0,1,1
1.045,1,0,0,2,1,1,2,0
1.05,2,2,2,0,2,3,0,1
1.055,2,2,1,0,1,1,2,1
1.06,2,3,2,1,2,1,0,1
1.065,2,1,1,3,7,3,2,2
1.07,1,2,2,2,2,3,2,1
1.075,2,2,1,1,5,4,1,2
1.08,0,1,1,1,6,10,2,2
1.085,1,1,2,2,2,7,2,4
1.09,0,1,1,1,0,3,2,0
1.095,2,1,1,1,3,3,2,1
1.1,2,1,1,1,2,4,1,1
1.105,1,1,2,5,6,9,4,1
1.11,1,0,1,4,4,9,2,0
1.115,1,2,1,1,0,0,1,1
1.12,1,1,2,2,0,0,3,0
1.125,1,2,2,2,3,6,2,0
1.13,1,1,2,4,3,2,1,1
1.135,1,0,1,1,3,3,2,3
1.14,1,3,4,2,2,2,1,0
1.145,3,1,2,1,2,1,1,1
1.15,0,1,1,2,3,1,0,1
1.155,1,2,1,1,2,1,0,0
1.16,2,1,0,0,2,0,3,1
1.165,1,2,2,1,2,3,2,2
1.17,3,0,1,5,5,1,1,1
1.175,2,1,1,2,4,7,4,2
1.18,1,1,2,2,1,3,1,0
1.185,2,2,0,5,7,7,6,0
1.19,3,1,1,3,3,6,1,2
1.195,1,1,3,1,0,2,2,1
1.2,1,0,1,3,5,4,3,2
1.205,0,3,1,3,5,4,5,1
1.21,1,2,3,1,4,3,2,1
1.215,1,1,2,2,3,3,2,1
1.22,2,2,0,3,4,5,4,0
1.225,1,1,1,0,1,2,2,1
1.23,0,1,1,0,2,2,1,1
1.235,1,1,1,2,7,4,4,3
1.24,2,1,3,3,4,3,2,4
1.245,1,1,1,4,3,3,1,3
1.25,1,0,1,2,3,0,2,2
1.255,1,1,0,1,3,5,1,0
1.26,2,1,0,3,5,1,4,2
1.265,1,1,1,2,1,5,0,1
1.27,2,4,2,5,5,3,5,3
1.275,1,1,2,1,5,1,1,1
1.28,1,1,0,2,2,3,1,0
1.285,2,1,2,3,4,0,1,1
1.29,1,0,0,0,5,3,2,1
1.295,1,2,0,2,2,1,1,1
1.3,1,2,0,0,0,5,0,1
1.305,0,1,1,3,4,2,3,3
1.31,0,2,1,0,0,4,2,1
1.315,1,2,3,1,6,9,3,1
1.32,1,0,0,1,0,1,1,1
1.325,2,1,1,1,0,2,2,0
1.33,2,0,2,3,1,1,3,1
1.335,1,2,1,2,5,8,2,1
1.34,1,0,2,1,0,1,1,4
1.345,3,2,2,1,2,2,2,0
1.35,0,0,1,1,3,7,1,3
1.355,0,1,1,1,4,2,1,2
1.36,1,1,3,3,2,1,1,1
1.365,2,0,1,1,1,1,1,1
1.37,2,2,2,1,3,4,1,0
1.375,2,2,1,2,6,2,2,1
1.38,1,0,0,3,6,3,1,1
1.385,1,0,1,1,2,0,0,1
1.39,3,2,2,0,4,0,2,2
1.395,1,1,2,1,1,1,2,2
1.4,1,2,1,2,7,5,3,0
1.405,2,1,2,2,0,2,1,1
1.41,1,1,1,1,0,2,2,0
1.415,3,2,2,3,4,4,4,2
1.42,3,1,1,0,2,6,2,3
1.425,0,2,2,0,1,0,0,1
1.43,1,0,1,3,3,1,2,1
1.435,1,0,1,1,1,1,2,0
1.44,1,1,1,3,0,2,2,0
1.445,0,2,0,5,4,3,4,5
1.45,1,2,1,0,3,5,2,1
1.455,3,1,0,3,4,7,0,1
1.46,1,1,2,0,2,3,0,0
1.465,2,0,3,2,1,0,2,0
1.47,0,1,1,4,3,3,1,1
1.475,1,2,1,2,3,3,3,2
1.48,2,0,0,1,1,0,0,0
1.485,1,1,1,1,3,4,4,1
1.49,1,2,2,1,2,5,3,1
1.495,0,2,2,2,1,5,3,3
1.5,2,1,1,1,1,1,1,1
1.505,0,3,2,0,1,1,0,0
1.51,1,1,1,2,1,3,1,0
1.515,0,0,0,0,1,2,1,1
1.52,0,2,1,4,2,1,4,2
1.525,2,1,1,0,2,0,1,2
1.53,1,2,1,4,5,2,2,2
1.535,2,0,0,3,1,3,0,0
1.54,0,1,1,2,1,2,1,0
1.545,2,2,2,0,1,2,0,1
1.55,1,1,1,2,0,4,0,1
1.555,3,2,3,2,7,4,4,4
1.56,3,1,1,3,5,3,2,3
1.565,0,1,1,1,0,3,3,1
1.57,0,1,0,0,1,1,1,0
1.575,1,1,1,1,0,1,0,0
1.58,1,0,2,1,2,3,2,1
1.585,3,1,1,3,0,0,1,1
1.59,1,0,0,2,3,3,0,2
1.595,1,0,1,1,2,0,2,0
1.6,1,0,2,2,0,2,0,0
1.605,0,3,0,3,10,9,3,2
1.61,3,2,1,0,1,3,2,2
1.615,1,1,0,1,5,1,2,0
1.62,0,3,2,2,0,4,2,0
1.625,0,2,1,2,2,2,1,2
1.63,0,0,1,0,2,3,2,1
1.635,1,2,3,1,2,0,1,1
1.64,1,1,1,3,3,1,1,1
1.645,1,1,0,3,3,2,2,0
1.65,3,2,2,2,0,1,1,1
1.655,0,0,1,4,9,6,7,3
1.66,2,1,0,3,5,4,3,0
1.665,0,0,1,2,1,4,1,2
1.67,1,2,3,3,1,4,2,0
1.675,2,2,0,1,2,1,1,1
1.68,3,2,2,3,5,3,3,1
1.685,0,1,0,1,0,1,0,1
1.69,1,1,0,1,2,4,1,1
1.695,1,2,2,3,4,2,2,3
1.7,0,1,0,2,3,3,5,2
1.705,1,1,1,1,1,1,1,0
1.71,0,0,3,3,2,1,1,1
1.715,1,0,0,1,2,2,3,2
1.72,0,1,0,4,6,3,3,0
1.725,2,0,2,1,1,2,4,2
1.73,1,2,1,2,4,5,2,2
1.735,2,1,1,1,2,1,3,1
1.74,1,1,1,0,3,6,1,2
1.745,2,2,1,1,3,1,1,1
1.75,3,1,1,0,0,2,3,2
1.755,2,1,1,3,4,3,3,2
1.76,2,0,1,2,2,3,1,1
1.765,0,1,1,0,4,1,2,1
1.77,0,2,1,2,3,3,3,1
1.775,1,1,1,1,1,3,0,2
1.78,3,1,3,1,2,2,1,0
1.785,0,2,1,1,1,1,3,1
1.79,1,1,0,1,3,4,0,0
1.795,0,0,2,0,1,4,0,2
1.8,2,1,2,4,5,8,4,4
1.805,2,1,0,1,1,1,0,0
1.81,1,1,0,0,3,2,1,2
1.815,1,2,0,1,4,2,1,0
1.82,1,2,1,1,3,4,1,0
1.825,1,1,0,1,3,1,1,1
1.83,0,1,1,0,1,2,0,1
1.835,2,1,2,3,2,0,0,1
1.84,0,1,0,0,4,3,0,1
1.845,2,1,1,2,3,3,1,1
1.85,0,0,2,0,2,1,3,1
1.855,1,2,1,1,1,2,2,0
1.86,0,2,3,3,0,2,1,0
1.865,0,1,3,1,4,3,2,2
1.87,3,0,1,1,0,0,1,1
1.875,2,2,0,1,4,3,1,0
1.88,2,3,2,2,0,3,1,1
1.885,0,1,2,1,4,0,1,1
1.89,0,1,1,3,2,0,1,1
1.895,1,3,3,3,1,3,3,2
1.9,2,2,3,4,1,2,0,2
1.905,1,0,3,4,5,3,4,2
1.91,2,1,2,1,3,2,0,1
1.915,1,0,1,3,3,4,2,2
1.92,1,0,2,0,3,3,0,1
1.925,1,2,2,2,2,2,1,2
1.93,1,0,0,1,3,0,2,4
1.935,1,1,2,0,3,2,0,0
1.94,2,3,1,3,3,3,1,1
1.945,1,2,1,1,1,1,0,0
1.95,2,0,0,0,2,3,2,2
1.955,1,1,2,1,1,3,2,3
1.96,2,1,2,3,2,4,3,2
1.965,0,1,2,0,2,2,0,0
1.97,2,2,1,1,1,0,0,0
1.975,0,1,1,3,3,0,2,1
1.98,0,0,2,1,1,2,1,1
1.985,1,0,2,0,1,2,3,1
1.99,0,0,2,1,1,2,0,1
1.995,1,2,0,3,1,1,1,0
2,3,1,2,3,5,1,2,3
2.005,1,2,1,0,3,1,3,2
2.01,1,1,1,1,3,1,1,1
2.015,1,2,2,2,2,4,1,3
2.02,1,1,2,1,5,0,1,2
2.025,1,3,0,3,3,4,0,2
2.03,3,1,1,1,3,2,2,0
2.035,1,2,0,0,2,5,1,1
2.04,1,2,1,1,6,1,1,1
2.045,0,0,2,1,1,0,1,1
2.05,0,1,2,1,2,1,0,1
2.055,2,1,2,3,1,1,1,1
2.06,1,1,3,3,4,2,2,4
2.065,1,1,1,0,2,0,2,0
2.07,3,1,1,3,7,7,1,2
2.075,0,1,1,0,1,3,1,0
2.08,1,1,1,0,0,3,3,0
2.085,0,2,1,0,1,0,1,1
2.09,1,0,3,2,1,1,1,1
2.095,2,1,1,1,1,1,1,3
2.1,3,3,0,2,4,3,2,2
2.105,1,1,2,2,0,1,1,1
2.11,1,1,2,3,4,6,2,3
2.115,1,0,2,1,1,3,1,0
2.12,1,1,3,1,0,4,1,1
2.125,1,0,4,4,7,6,5,5
2.13,0,0,1,3,6,6,6,1
2.135,3,2,0,0,2,5,0,0
2.14,1,0,2,1,2,0,0,1
2.145,0,3,1,0,0,2,1,1
2.15,1,0,1,4,8,6,5,5
2.155,0,1,1,3,5,1,1,1
2.16,2,2,0,0,4,2,2,2
2.165,2,2,1,3,3,1,3,0
2.17,3,3,1,2,5,5,4,0
2.175,1,2,2,1,3,1,1,2
2.18,2,1,1,1,0,0,0,2
2.185,0,0,3,1,3,1,2,1
2.19,0,2,1,3,3,2,3,1
2.195,3,1,3,0,2,1,0,0
2.2,1,2,1,2,3,3,2,3
2.205,2,1,2,0,1,1,0,1
2.21,2,0,3,3,2,1,4,2
2.215,0,1,1,3,6,2,3,2
2.22,3,2,1,1,2,0,2,2
2.225,0,1,1,1,1,0,2,0
2.23,2,3,1,0,1,1,0,1
2.235,1,0,1,1,4,2,2,1
2.24,0,4,2,1,5,5,3,2
2.245,1,2,2,1,2,4,1,0
2.25,1,1,0,4,3,0,2,1
2.255,2,2,1,2,4,4,3,2
2.26,0,1,1,1,0,2,2,0
2.265,2,0,1,5,8,3,3,1
2.27,0,0,0,2,1,1,1,2
2.275,1,1,1,2,1,1,0,0
2.28,2,0,1,3,5,4,5,3
2.285,1,3,4,4,8,3,3,2
2.29,1,0,0,1,1,0,0,0
2.295,1,0,2,1,1,3,2,1
2.3,0,0,2,5,7,3,3,1
2.305,0,2,1,2,0,1,3,0
2.31,0,0,1,3,5,4,0,1
2.315,3,1,3,1,1,4,1,1
2.32,0,0,2,0,1,0,2,2
2.325,1,1,2,2,5,5,2,2
2.33,0,2,2,2,6,2,2,1
2.335,2,4,0,1,0,1,1,0
2.34,1,0,1,0,0,3,1,2
2.345,1,0,0,2,3,2,5,2
2.35,0,2,4,4,1,0,3,1
2.355,0,2,1,5,8,0,4,1
2.36,1,1,1,0,2,0,1,1
2.365,1,1,0,0,1,2,3,2
2.37,0,1,0,1,4,3,3,2
2.375,0,0,2,4,6,4,4,3
2.38,2,2,0,0,3,2,2,0
2.385,1,3,2,1,1,3,1,2
2.39,2,1,1,1,3,4,5,2
2.395,2,2,2,3,3,3,2,0
2.4,0,0,0,5,9,9,7,3
2.405,2,0,1,0,1,1,0,0
2.41,0,2,1,1,0,0,1,2
2.415,1,2,1,2,1,4,2,1
2.42,1,0,1,2,6,6,4,2
2.425,0,0,2,1,3,1,0,1
2.43,0,1,1,0,2,1,2,2
2.435,2,2,2,5,5,0,3,1
2.44,1,2,3,1,2,0,0,0
2.445,2,2,1,1,4,1,1,0
2.45,2,1,2,1,0,1,1,1
2.455,0,0,0,0,1,2,1,1
2.46,1,2,1,2,6,2,3,2
2.465,0,0,2,3,4,1,0,2
2.47,1,1,2,2,0,2,1,1
2.475,2,1,1,2,1,2,2,1
2.48,2,2,2,1,1,1,1,0
2.485,0,2,0,1,2,2,3,1
2.49,2,2,0,0,0,0,0,1
2.495,0,1,1,1,1,0,1,1
2.5,1,3,1,3,7,6,4,3
2.505,2,2,2,0,1,2,0,1
2.51,1,2,1,2,1,2,1,0
2.515,1,1,1,0,1,1,3,2
2.52,1,0,2,5,2,2,1,1
2.525,1,2,2,2,1,2,2,0
2.53,1,0,0,2,2,1,1,1
2.535,1,1,2,1,0,0,0,1
2.54,1,1,0,2,3,4,3,1
2.545,1,1,0,1,0,0,1,0
2.55,0,0,2,4,6,3,4,4
2.555,2,0,1,3,1,3,0,0
2.56,1,0,1,1,0,0,0,1
2.565,1,1,2,2,2,0,1,1
2.57,0,3,0,1,1,4,2,1
2.575,1,3,1,0,2,2,3,3
2.58,1,0,1,0,1,1,0,0
2.585,2,1,0,2,4,3,3,1
2.59,2,1,1,2,1,2,1,0
2.595,1,0,0,0,3,4,1,2
2.6,1,2,1,1,0,1,1,1
2.605,1,1,2,1,3,1,1,2
2.61,1,0,3,0,3,2,1,4
2.615,2,1,0,2,3,2,3,1
2.62,1,2,1,3,2,2,3,2
2.625,0,1,0,2,2,1,3,2
2.63,1,1,0,0,0,1,0,1
2.635,1,2,1,2,1,3,0,0
2.64,0,0,2,3,4,4,4,3
2.645,2,0,2,1,0,2,1,0
2.65,2,0,1,2,2,1,1,2
2.655,2,0,1,1,1,3,1,1
2.66,2,1,2,1,1,2,0,2
2.665,1,2,2,3,1,1,2,0
2.67,1,1,0,2,2,0,1,0
2.675,1,2,4,2,3,1,1,1
2.68,1,4,2,0,3,2,0,0
2.685,2,1,1,3,5,3,2,3
2.69,1,0,2,2,1,5,1,1
2.695,1,2,0,2,1,0,2,1
2.7,2,0,1,0,1,1,1,1
2.705,2,1,1,0,2,3,2,2
2.71,1,0,0,1,1,0,2,0
2.715,1,2,4,2,1,1,1,0
2.72,0,0,0,0,0,3,0,0
2.725,0,0,3,1,2,3,2,1
2.73,1,2,2,1,1,1,1,4
2.735,0,0,0,1,2,1,1,3
2.74,2,2,3,3,1,0,0,2
2.745,1,0,1,1,2,1,1,1
2.75,1,3,3,4,6,6,3,0
2.755,0,1,1,1,1,1,2,1
2.76,1,1,2,1,1,1,0,0
2.765,2,1,1,1,0,1,1,1
2.77,2,2,1,1,2,1,3,1
2.775,3,1,0,0,2,1,1,1
2.78,0,0,2,5,2,1,3,1
2.785,1,2,1,0,1,1,0,0
2.79,0,1,2,3,2,4,2,0
2.795,0,1,2,1,1,0,1,0
2.8,0,1,0,2,1,0,3,2
2.805,0,1,3,4,1,1,1,1
2.81,1,2,1,1,2,1,1,1
2.815,1,3,2,3,5,4,3,2
2.82,0,3,0,1,3,2,0,0
2.825,1,2,2,1,2,1,0,0
2.83,1,0,2,2,1,2,1,1
2.835,2,0,2,3,1,2,1,0
2.84,2,1,0,1,4,1,3,1
2.845,0,1,1,4,4,3,2,1
2.85,1,1,1,1,1,0,3,1
2.855,1,2,1,0,0,4,1,0
2.86,0,2,1,1,1,1,1,0
2.865,1,2,0,2,0,2,2,0
2.87,2,1,1,4,3,4,2,3
2.875,1,1,1,0,0,1,1,0
2.88,1,1,2,1,3,1,2,1
2.885,1,1,3,3,2,4,1,2
2.89,1,0,1,0,2,0,0,0
2.895,2,0,2,1,1,1,0,1
2.9,1,0,2,1,1,4,0,0
2.905,1,1,2,2,0,0,0,2
2.91,2,2,3,3,4,5,3,3
2.915,1,1,1,2,3,2,3,0
2.92,1,1,1,1,0,0,2,1
2.925,10,9,11,9,8,9,9,9
2.93,2,1,3,0,2,0,1,1
2.935,1,1,0,1,3,2,2,0
2.94,0,1,1,1,1,2,1,2
2.945,3,3,2,5,6,4,4,4
2.95,2,4,4,3,4,5,4,5
2.955,3,3,0,1,1,0,2,2
2.96,1,1,5,6,2,1,1,1
2.965,1,3,5,3,1,0,0,1
2.97,1,2,0,1,2,2,4,0
2.975,1,1,0,2,6,3,1,2
2.98,2,0,0,2,2,3,0,1
2.985,1,1,1,2,1,2,0,1
2.99,1,0,3,6,3,1,1,1
2.995,0,2,2,2,3,0,1,0
3,1,1,0,0,2,0,1,1
3.005,0,0,2,2,2,1,1,1
3.01,2,2,3,3,0,3,1,0
3.015,1,3,0,2,1,2,4,2
3.02,2,4,1,0,2,3,4,2
3.025,1,3,1,0,2,0,0,0
3.03,1,1,1,1,0,1,1,1
3.035,2,1,3,6,4,5,3,4
3.04,1,3,4,3,0,1,1,2
3.045,2,1,0,1,2,1,2,2
3.05,1,1,1,1,0,2,0,2
3.055,1,1,1,1,3,6,4,1
3.06,2,1,4,3,4,2,2,2
3.065,0,1,1,0,4,2,4,3
3.07,1,1,0,1,3,1,2,4
3.075,1,1,0,1,2,1,2,0
3.08,1,1,1,0,0,1,2,0
3.085,2,2,0,0,0,2,3,1
3.09,2,1,0,0,4,0,3,1
3.095,0,2,3,5,3,3,3,4
3.1,2,1,2,1,1,0,1,0
3.105,0,0,3,4,4,2,0,0
3.11,2,1,1,1,1,1,2,3
3.115,2,5,4,4,3,1,2,1
3.12,1,0,0,0,1,1,0,0
3.125,1,0,1,0,3,0,0,0
3.13,1,2,1,2,1,1,0,2
3.135,2,1,2,1,3,1,1,1
3.14,1,1,1,6,1,1,0,1
3.145,3,1,1,0,1,2,0,0
3.15,2,0,0,1,2,4,1,0
3.155,2,0,1,2,1,1,1,0
3.16,0,0,1,2,2,0,2,0
3.165,0,2,4,4,2,0,1,1
3.17,2,5,4,4,1,2,1,2
3.175,0,1,1,1,1,0,0,2
3.18,1,2,4,2,2,4,4,3
3.185,0,1,2,1,0,0,1,1
3.19,1,0,2,0,0,2,0,2
3.195,2,3,2,1,2,2,1,2
3.2,1,0,2,2,0,3,1,1
3.205,1,3,1,1,4,1,2,1
3.21,0,2,1,3,0,3,3,0
3.215,0,1,1,1,3,3,0,2
3.22,1,6,1,2,1,5,3,2
3.225,2,2,0,1,2,0,1,0
3.23,1,0,1,1,1,2,0,1
3.235,0,1,1,1,1,0,2,0
3.24,0,2,1,2,2,1,1,1
3.245,2,0,1,3,4,3,1,2
3.25,1,3,0,3,4,2,2,2
3.255,0,3,4,4,2,1,1,3
3.26,0,0,4,5,3,3,2,0
3.265,1,2,2,2,1,1,2,4
3.27,1,1,1,2,2,3,1,0
3.275,1,3,1,1,0,0,1,1
3.28,3,5,0,1,2,2,1,1
3.285,2,1,3,1,1,0,0,1
3.29,0,1,1,1,3,4,3,3
3.295,2,1,1,0,1,1,1,1
3.3,1,1,1,0,0,1,1,2
3.305,2,0,2,1,1,4,3,1
3.31,2,3,0,1,1,1,5,2
3.315,2,1,2,2,3,2,1,1
3.32,1,1,3,0,2,3,1,0
3.325,1,0,2,2,3,3,4,4
3.33,2,2,1,0,0,2,2,3
3.335,2,1,3,1,2,0,2,2
3.34,2,1,2,1,0,1,1,1
3.345,0,2,2,3,4,3,3,2
3.35,0,1,1,0,4,3,1,2
3.355,0,1,2,2,1,1,1,1
3.36,1,0,2,3,1,1,0,0
3.365,1,2,2,3,0,1,1,1
3.37,2,1,5,6,3,3,2,3
3.375,3,1,0,1,4,4,2,4
3.38,0,1,0,2,1,2,2,0
3.385,1,0,2,1,1,0,2,0
3.39,2,2,4,3,2,0,1,1
3.395,1,0,0,1,4,2,2,1
3.4,2,2,0,1,2,3,2,4
3.405,0,1,1,3,3,3,0,1
3.41,1,1,1,2,0,3,2,1
3.415,2,2,6,6,3,1,0,1
3.42,2,2,2,2,1,0,2,1
3.425,1,0,1,2,4,1,1,0
3.43,0,1,4,4,2,1,0,0
3.435,2,1,2,1,2,0,0,0
3.44,1,3,2,2,1,0,2,2
3.445,0,2,4,7,3,0,1,1
3.45,2,1,0,0,0,3,2,1
3.455,0,1,2,2,3,4,3,1
3.46,1,0,3,2,1,2,0,0
3.465,2,2,2,5,3,0,2,0
3.47,2,2,2,3,3,2,1,2
3.475,0,0,0,0,1,1,3,1
3.48,0,1,0,0,3,3,1,1
3.485,1,1,2,4,4,4,5,2
3.49,0,1,1,1,2,0,1,2
3.495,0,2,2,1,3,0,2,0
3.5,0,0,1,2,1,3,1,2
3.505,0,1,1,1,2,1,1,2
3.51,1,1,2,5,1,2,3,0
3.515,1,3,3,5,4,1,2,1
3.52,1,1,0,2,0,0,0,0
3.525,2,2,2,1,3,4,4,5
3.53,2,3,2,2,0,1,1,1
3.535,2,0,0,0,3,0,0,2
3.54,1,1,1,0,1,2,1,1
3.545,1,2,2,2,0,0,1,1
3.55,1,0,2,3,5,2,2,3
3.555,1,0,0,0,0,0,0,0
3.56,1,0,4,3,2,1,1,1
3.565,2,2,1,2,1,2,1,0
3.57,1,1,4,2,2,0,0,0
3.575,0,0,1,1,2,2,2,1
3.58,2,0,1,0,3,3,5,2
3.585,1,0,3,3,2,0,1,0
3.59,1,0,1,4,1,3,2,0
3.595,2,2,0,1,0,5,3,1
3.6,2,2,0,2,2,1,1,0
3.605,1,0,2,1,0,1,1,1
3.61,1,2,2,3,2,1,2,2
3.615,1,1,2,2,2,6,3,1
3.62,1,2,1,1,2,0,0,1
3.625,2,0,0,1,3,3,2,1
3.63,2,2,6,8,1,4,2,1
3.635,0,0,1,0,0,1,3,2
3.64,2,2,3,2,2,0,0,0
3.645,1,1,1,3,1,2,1,1
3.65,2,2,1,0,4,1,2,3
3.655,0,3,0,1,1,0,0,0
3.66,3,1,1,3,1,2,1,2
3.665,0,0,0,0,2,1,0,2
3.67,1,2,0,0,3,2,1,1
3.675,2,1,1,2,2,2,1,2
3.68,2,0,2,3,3,2,4,1
3.685,2,1,1,1,2,4,1,1
3.69,0,2,2,1,1,1,0,1
3.695,1,2,1,2,6,5,2,3
3.7,1,1,1,2,1,1,2,1
3.705,1,2,3,4,4,1,3,2
3.71,0,1,1,1,1,1,3,1
3.715,1,1,1,1,3,4,2,3
3.72,0,1,2,2,0,0,0,1
3.725,0,1,2,1,2,1,0,1
3.73,0,2,0,2,2,6,4,1
3.735,2,1,1,1,2,2,1,1
3.74,1,1,3,4,2,0,1,1
3.745,0,2,1,1,3,4,4,1
3.75,2,0,1,2,1,1,1,0
3.755,1,1,1,2,3,4,3,3
3.76,1,0,0,1,2,1,0,1
3.765,2,1,2,2,1,1,0,1
3.77,0,2,1,1,0,4,3,1
3.775,2,3,5,7,4,3,1,2
3.78,2,0,0,2,1,1,1,0
3.785,2,3,3,3,1,0,0,0
3.79,1,0,1,1,2,1,1,0
3.795,1,0,2,2,2,4,2,3
3.8,1,1,1,1,0,2,1,0
3.805,2,1,4,5,2,1,2,1
3.81,0,1,6,7,5,1,2,1
3.815,1,0,2,2,3,2,2,1
3.82,1,4,3,2,1,5,3,3
3.825,2,1,0,2,2,1,2,1
3.83,2,0,3,5,1,3,3,2
3.835,1,2,2,1,5,1,1,2
3.84,1,1,1,0,0,1,1,1
3.845,2,4,8,7,2,0,1,2
3.85,0,1,6,8,4,1,0,0
3.855,2,4,11,12,5,3,2,1
3.86,3,0,4,5,3,3,4,4
3.865,1,4,5,8,1,2,0,1
3.87,3,5,6,5,3,3,3,1
3.875,1,2,0,1,0,0,1,0
3.88,1,1,0,1,1,3,1,1
3.885,2,3,7,6,2,4,1,3
3.89,1,0,0,1,1,2,0,1
3.895,2,2,2,2,1,3,0,1
3.9,1,3,7,4,4,2,0,1
3.905,1,3,2,4,2,1,1,2
3.91,3,3,1,1,0,3,2,4
3.915,2,5,0,2,2,4,1,1
3.92,1,5,1,7,4,2,1,3
3.925,6,4,1,0,5,2,1,3
3.93,2,2,1,14,9,3,1,1
3.935,0,3,3,8,4,0,1,0
3.94,0,4,4,9,3,5,2,1
3.945,1,0,1,4,1,3,2,2
3.95,2,2,1,3,0,0,2,3
3.955,1,1,4,13,4,2,3,1
3.96,2,6,2,5,1,5,4,3
3.965,1,2,6,6,4,1,2,0
3.97,0,2,2,3,7,3,3,1
3.975,0,1,1,3,1,1,2,1
3.98,3,5,1,2,4,4,3,2
3.985,0,3,2,3,0,0,1,1
3.99,1,3,6,8,2,0,3,1
3.995,2,1,1,4,3,5,4,3
4,2,3,3,0,0,1,4,2
4.005,1,5,3,2,1,0,1,0
4.01,2,1,0,5,3,0,3,2
4.015,3,1,1,1,1,3,1,2
4.02,2,3,0,1,2,0,1,1
4.025,0,2,2,3,2,1,1,1
4.03,0,0,5,8,3,4,2,0
4.035,2,2,3,3,1,1,1,2
4.04,0,1,3,2,1,1,1,1
4.045,1,1,0,2,1,0,0,0
4.05,2,3,2,3,4,3,2,1
4.055,0,0,1,1,3,1,2,1
4.06,1,0,2,1,1,1,2,1
4.065,3,2,1,2,2,1,1,2
4.07,1,0,2,0,3,1,1,1
4.075,0,2,0,3,1,0,3,1
4.08,2,0,3,2,2,3,3,1
4.085,0,0,3,3,2,1,1,0
4.09,0,1,1,2,0,2,1,1
4.095,2,2,1,1,3,3,0,1
4.1,1,2,1,0,1,0,0,1
4.105,0,1,0,0,1,4,1,2
4.11,2,2,1,2,1,1,1,0
4.115,1,0,1,1,3,1,0,1
4.12,2,3,2,2,1,2,2,2
4.125,0,0,3,4,5,3,1,1
4.13,1,2,1,3,3,0,1,1
4.135,1,0,1,2,2,1,1,2
4.14,1,0,2,2,3,2,1,1
4.145,0,1,3,3,3,2,2,3
4.15,1,2,1,1,1,1,0,1
4.155,1,2,2,1,2,1,1,2
4.16,1,1,0,1,1,1,1,1
4.165,0,1,1,2,1,0,0,0
4.17,1,2,0,3,2,3,4,2
4.175,0,1,3,4,3,1,1,3
4.18,1,2,0,2,0,0,3,0
4.185,2,2,1,0,1,0,0,1
4.19,1,0,1,1,1,0,0,2
4.195,3,0,3,4,3,3,4,2
4.2,1,2,1,3,1,1,2,0
4.205,2,0,1,1,0,1,0,2
4.21,1,1,0,4,2,1,0,1
4.215,1,1,1,1,0,1,2,1
4.22,1,3,0,0,1,0,1,0
4.225,1,2,2,0,2,3,2,1
4.23,3,1,1,0,2,0,1,3
4.235,1,1,2,4,1,0,1,0
4.24,4,2,0,1,3,0,2,1
4.245,0,1,4,3,2,1,1,2
4.25,1,1,2,2,4,3,4,3
4.255,1,0,1,2,2,1,1,3
4.26,1,2,3,5,2,1,2,1
4.265,2,1,0,1,3,4,2,1
4.27,1,2,2,2,1,0,1,1
4.275,2,2,3,3,3,0,1,2
4.28,2,1,2,3,1,1,0,1
4.285,2,1,1,1,3,0,0,1
4.29,0,2,1,2,0,0,1,1
4.295,0,1,0,1,1,1,0,1
4.3,2,2,2,0,3,4,1,3
4.305,1,1,1,0,1,2,0,0
4.31,1,1,1,1,4,4,2,2
4.315,2,2,2,3,1,2,1,2
4.32,1,2,1,0,0,1,0,0
4.325,3,0,1,0,3,2,2,3
4.33,1,0,1,0,1,0,2,2
4.335,0,2,0,2,0,2,0,1
4.34,0,1,2,1,4,2,3,2
4.345,1,2,2,4,1,1,0,0
4.35,1,1,0,5,3,3,2,1
4.355,2,1,2,1,3,3,3,2
4.36,1,1,0,0,3,2,1,1
4.365,1,1,2,3,1,2,2,0
4.37,2,2,0,3,0,0,1,0
4.375,2,1,1,2,1,1,1,1
4.38,2,1,2,2,3,1,1,1
4.385,0,2,0,0,0,3,2,2
4.39,1,0,3,3,1,2,0,0
4.395,1,1,0,2,3,3,2,3
4.4,1,1,2,0,1,1,1,1
4.405,3,2,0,1,2,0,2,2
4.41,3,2,2,3,1,1,1,0
4.415,2,2,2,1,1,0,1,1
4.42,1,2,2,1,2,3,0,1
4.425,2,0,0,0,0,2,2,0
4.43,0,2,1,2,0,1,1,1
4.435,2,2,0,1,4,5,4,1
4.44,1,1,3,2,1,1,1,1
4.445,0,1,1,1,2,0,1,0
4.45,3,1,3,3,4,3,4,2
4.455,1,0,2,3,4,1,1,1
4.46,0,0,1,1,0,2,1,1
4.465,1,2,1,2,3,1,1,1
4.47,2,1,3,2,1,3,0,1
4.475,1,1,2,1,2,2,0,1
4.48,3,0,2,1,3,5,3,3
4.485,1,2,0,1,2,2,1,1
4.49,1,1,1,0,4,1,3,1
4.495,1,2,1,4,0,1,1,1
4.5,0,1,1,0,1,2,2,2
4.505,1,1,2,1,3,3,2,1
4.51,2,2,2,0,2,2,1,0
4.515,1,0,2,2,3,4,2,2
4.52,0,1,2,2,2,1,0,1
4.525,1,3,1,2,2,2,4,2
4.53,1,0,1,1,1,1,1,0
4.535,1,2,0,1,0,1,2,0
4.54,2,0,0,3,2,2,3,2
4.545,1,0,1,1,0,3,0,1
4.55,1,1,1,3,2,1,1,0
4.555,2,1,0,2,2,1,1,1
4.56,1,1,1,2,1,0,2,0
4.565,2,2,1,1,0,2,1,1
4.57,3,0,0,0,0,1,1,2
4.575,2,2,2,1,1,1,1,1
4.58,1,3,0,0,0,0,0,1
4.585,1,1,3,2,1,3,3,3
4.59,0,1,1,0,3,1,1,1
4.595,1,1,4,0,1,0,0,1
4.6,1,2,3,2,3,3,1,1
4.605,1,0,1,1,2,2,2,1
4.61,1,1,0,0,0,0,0,1
4.615,1,2,1,2,1,1,1,1
4.62,1,1,1,0,1,0,0,1
4.625,2,2,0,2,2,2,2,1
4.63,1,0,1,2,2,3,4,1
4.635,2,3,1,0,1,0,1,0
4.64,1,1,0,3,2,1,0,1
4.645,3,1,2,1,0,1,0,1
4.65,1,2,2,2,1,0,0,1
4.655,0,1,0,0,3,4,3,2
4.66,0,1,4,1,2,3,3,1
4.665,0,0,1,3,3,1,0,1
4.67,0,1,1,1,2,0,1,1
4.675,2,1,2,4,1,0,2,0
4.68,2,0,1,2,2,1,3,0
4.685,1,1,2,1,3,4,4,2
4.69,2,3,1,2,2,1,1,1
4.695,0,0,0,3,2,2,1,2
4.7,1,1,0,1,3,2,1,1
4.705,0,1,3,0,1,0,0,1
4.71,1,0,2,3,1,1,3,1
4.715,1,0,2,0,1,2,3,0
4.72,0,2,1,0,2,0,0,1
4.725,1,1,0,1,3,1,2,1
4.73,1,2,1,1,2,0,1,2
4.735,1,1,4,1,3,2,2,2
4.74,1,1,1,1,0,2,1,0
4.745,0,1,2,0,3,1,2,0
4.75,1,1,0,2,1,2,0,1
4.755,1,2,1,2,0,0,1,1
4.76,1,2,1,0,1,3,2,0
4.765,0,3,1,1,0,0,2,0
4.77,2,1,3,2,1,4,1,2
4.775,2,2,0,3,1,1,2,1
4.78,0,0,0,1,2,1,2,1
4.785,2,3,0,0,1,2,2,0
4.79,1,2,1,0,2,1,0,0
4.795,1,1,0,1,4,5,3,2
4.8,1,1,0,0,1,2,3,0
4.805,2,1,2,1,1,0,1,1
4.81,1,1,3,1,3,0,3,0
4.815,0,1,1,2,1,2,0,1
4.82,3,2,1,3,4,0,3,2
4.825,0,0,0,1,1,2,0,1
4.83,1,1,1,2,4,2,2,1
4.835,0,1,1,2,1,0,2,2
4.84,2,1,1,0,2,3,2,1
4.845,1,4,1,4,2,0,1,2
4.85,1,1,1,4,1,2,3,2
4.855,0,1,1,0,1,1,1,1
4.86,2,1,2,1,4,5,3,2
4.865,1,2,2,2,1,3,0,1
4.87,3,3,0,1,1,1,2,2
4.875,1,1,0,1,3,2,1,0
4.88,0,1,3,5,2,1,3,2
4.885,0,0,0,1,0,5,1,1
4.89,1,2,1,1,0,4,4,1
4.895,2,0,2,3,2,1,1,1
4.9,1,2,0,3,1,0,0,0
4.905,0,1,2,5,3,1,1,2
4.91,0,0,1,3,4,4,2,2
4.915,1,3,2,1,0,2,1,2
4.92,0,1,2,3,2,0,1,2
4.925,1,0,0,1,1,1,0,1
4.93,2,0,2,0,3,3,3,4
4.935,2,2,2,0,1,1,1,2
4.94,2,1,2,1,2,1,1,0
4.945,3,0,1,0,2,2,1,1
4.95,1,3,2,2,1,2,1,1
4.955,0,2,1,2,3,2,3,1
4.96,2,1,0,0,0,1,0,2
4.965,0,1,1,0,1,1,0,0
4.97,1,0,1,2,1,1,2,1
4.975,1,2,0,1,1,0,1,0
4.98,2,2,2,1,1,0,1,1
4.985,2,3,2,3,4,3,4,2
4.99,0,2,0,3,2,2,3,2
4.995,2,2,2,1,1,1,0,1
5,0,2,2,4,0,2,0,0
5.005,1,3,0,2,1,3,1,2
5.01,1,0,2,1,0,1,0,1
5.015,3,1,1,1,1,1,1,1
5.02,1,1,1,1,2,1,0,0
5.025,2,0,2,2,2,0,2,1
5.03,2,1,1,4,5,1,1,1
5.035,1,1,0,3,4,3,3,3
5.04,1,0,1,0,4,1,1,0
5.045,2,3,0,2,1,3,0,0
5.05,0,1,0,1,2,4,1,2
5.055,1,0,0,1,1,0,1,1
5.06,2,1,0,2,3,3,2,2
5.065,0,1,0,2,1,3,1,0
5.07,0,1,2,1,1,0,0,1
5.075,2,2,1,1,1,2,1,2
5.08,2,2,1,3,2,2,0,1
5.085,3,1,2,0,1,5,2,2
5.09,3,2,2,2,2,3,0,1
5.095,1,0,0,0,1,0,1,0
5.1,2,1,1,2,2,2,2,0
5.105,2,1,2,0,2,0,1,2
5.11,1,3,1,3,3,2,3,3
5.115,0,0,2,1,1,3,2,0
5.12,0,1,1,0,1,1,0,1
5.125,0,1,1,3,1,1,0,1
5.13,1,2,2,1,1,1,2,2
5.135,1,1,1,1,3,1,3,1
5.14,1,0,1,1,2,2,2,2
5.145,1,2,1,1,1,2,1,1
5.15,1,2,0,2,2,2,1,0
5.155,0,0,1,1,3,1,1,2
5.16,1,1,1,1,2,2,1,0
5.165,1,0,0,0,1,0,1,1
5.17,1,0,2,0,0,3,1,1
5.175,2,2,2,2,1,0,2,1
5.18,2,2,1,2,2,0,1,1
5.185,1,1,3,1,0,2,2,1
5.19,2,3,1,1,1,1,2,2
5.195,0,1,1,3,5,3,3,2
5.2,0,2,0,2,6,5,2,1
5.205,0,0,0,0,1,1,1,1
5.21,1,0,2,3,5,0,3,1
5.215,1,0,0,2,0,3,2,0
5.22,1,1,2,4,4,3,4,3
5.225,0,4,2,2,3,0,4,1
5.23,1,2,2,1,0,0,0,1
5.235,1,2,1,1,1,1,1,1
5.24,0,0,2,2,1,0,1,1
5.245,2,1,2,1,0,3,1,1
5.25,0,2,0,0,2,1,0,0
5.255,0,2,1,2,1,2,0,2
5.26,2,0,1,2,2,3,2,1
5.265,0,0,2,1,2,0,0,1
5.27,1,2,1,1,1,0,1,0
5.275,3,1,2,1,1,0,0,1
5.28,0,2,2,2,3,3,2,1
5.285,1,0,2,1,1,0,4,0
5.29,2,3,1,2,1,1,1,2
5.295,1,1,0,0,1,1,1,0
5.3,1,1,2,1,1,2,1,1
5.305,3,2,2,2,3,4,3,2
5.31,0,0,0,2,1,1,0,1
5.315,2,1,2,1,0,1,2,2
5.32,5,2,1,0,0,1,1,1
5.325,0,0,1,2,1,1,1,1
5.33,2,3,1,1,1,1,0,1
5.335,0,1,1,2,3,3,3,1
5.34,1,1,1,1,1,1,3,1
5.345,2,1,0,3,2,1,1,1
5.35,2,0,1,1,0,0,3,1
5.355,1,1,1,1,1,2,1,1
5.36,1,1,2,2,2,2,2,3
5.365,1,2,0,2,3,2,2,1
5.37,1,0,1,2,3,1,4,2
5.375,2,3,1,0,1,1,0,1
5.38,1,0,2,0,2,5,1,0
5.385,1,2,2,0,1,2,2,0
5.39,1,1,1,1,1,0,0,1
5.395,1,2,1,1,0,0,1,0
5.4,0,1,1,2,4,3,2,2
5.405,1,1,1,1,1,1,0,2
5.41,1,0,0,1,4,3,2,0
5.415,1,2,1,0,2,0,0,1
5.42,2,2,0,1,2,4,3,2
5.425,1,0,1,1,1,1,0,0
5.43,0,0,1,1,0,2,2,1
5.435,1,0,2,2,2,1,4,0
5.44,0,3,3,1,0,1,1,1
5.445,0,1,2,1,3,1,1,2
5.45,1,3,2,3,1,2,1,1
5.455,0,0,1,2,3,2,4,2
5.46,1,2,1,1,1,2,3,1
5.465,0,2,0,2,4,8,4,3
5.47,1,0,2,1,2,4,3,1
5.475,2,2,1,1,3,2,1,1
5.48,0,1,0,3,3,2,2,0
5.485,1,1,1,0,2,1,0,1
5.49,3,1,2,2,5,4,4,3
5.495,2,2,2,3,3,1,1,2
5.5,0,1,3,1,2,4,1,1
5.505,0,2,2,3,3,4,4,2
5.51,2,2,2,1,0,3,3,2
5.515,2,1,1,2,1,1,0,0
5.52,2,0,1,1,1,2,0,2
5.525,3,0,0,0,1,1,0,0
5.53,0,0,0,0,2,0,0,2
5.535,2,0,2,2,3,0,3,0
5.54,2,1,0,2,2,1,4,0
5.545,0,1,1,0,3,1,2,1
5.55,1,2,0,0,0,1,1,1
5.555,1,1,0,0,0,1,1,2
5.56,1,1,1,1,3,3,1,0
5.565,2,1,1,0,3,0,0,2
5.57,0,1,3,0,0,1,1,1
5.575,2,0,1,3,5,3,3,1
5.58,1,2,2,1,3,3,1,1
5.585,2,0,1,3,1,0,1,0
5.59,0,2,3,4,2,3,2,1
5.595,1,0,1,1,1,1,1,1
5.6,2,0,1,1,0,0,1,2
5.605,3,2,2,0,0,3,1,1
5.61,3,0,0,2,1,3,2,2
5.615,1,0,1,2,0,0,1,3
5.62,0,1,1,0,2,0,0,2
5.625,0,1,1,1,0,2,1,3
5.63,0,1,1,2,3,3,1,1
5.635,0,2,2,1,2,1,1,0
5.64,2,1,1,0,0,2,2,1
5.645,2,4,1,1,2,1,1,2
5.65,2,2,0,1,1,4,2,2
5.655,1,2,1,1,2,2,1,0
5.66,0,1,1,1,0,0,1,2
5.665,1,1,1,1,1,1,1,1
5.67,2,0,0,0,1,1,2,1
5.675,1,2,1,2,1,1,2,3
5.68,3,2,2,3,3,1,2,3
5.685,0,1,2,2,2,0,2,0
5.69,2,2,0,1,1,0,2,0
5.695,2,0,1,1,1,1,0,0
5.7,1,0,1,3,2,1,0,2
5.705,1,2,0,2,4,1,3,4
5.71,2,0,2,1,2,0,1,2
5.715,2,3,1,1,3,1,3,1
5.72,2,1,0,0,0,0,2,0
5.725,1,1,1,1,2,3,1,1
5.73,1,2,1,1,2,0,1,0
5.735,3,2,2,0,3,2,0,2
5.74,1,1,1,1,1,1,1,1
5.745,3,2,0,4,3,2,4,2
5.75,0,1,3,1,2,2,2,2
5.755,0,0,0,1,1,3,1,1
5.76,1,1,0,1,2,3,1,1
5.765,2,1,2,0,1,2,0,2
5.77,0,1,2,2,0,1,1,0
5.775,1,1,1,1,1,1,1,0
5.78,1,1,2,1,3,2,2,1
5.785,0,1,0,3,3,1,0,1
5.79,2,2,1,0,3,0,0,2
5.795,1,0,1,0,0,3,2,0
5.8,2,1,1,0,2,2,1,2
5.805,0,0,3,2,3,3,0,1
5.81,3,3,1,3,3,1,2,1
5.815,1,1,1,2,6,6,5,3
5.82,1,3,1,1,2,5,2,2
5.825,2,1,0,0,2,1,1,1
5.83,0,1,0,1,2,0,1,1
5.835,2,1,1,3,4,4,3,1
5.84,2,0,0,0,0,2,1,0
5.845,2,3,1,0,1,3,2,1
5.85,0,0,2,1,1,0,1,1
5.855,3,1,0,1,1,1,1,1
5.86,2,1,1,1,2,1,1,1
5.865,1,2,2,2,3,2,2,0
5.87,2,2,1,4,4,4,5,1
5.875,0,1,1,2,1,2,0,2
5.88,0,1,1,1,0,0,0,2
5.885,1,0,2,0,0,3,1,1
5.89,0,1,1,2,3,3,3,2
5.895,4,1,3,0,3,0,1,1
5.9,3,2,1,2,2,3,4,2
5.905,2,3,3,3,5,5,4,2
5.91,2,1,0,1,2,0,1,1
5.915,0,2,3,2,2,2,2,1
5.92,1,2,0,0,2,1,2,0
5.925,0,1,1,1,2,4,5,1
5.93,1,1,1,2,4,2,4,2
5.935,1,1,1,2,0,0,1,1
5.94,1,0,2,2,2,3,1,2
5.945,1,1,2,0,0,0,0,1
5.95,2,2,1,1,0,0,0,1
5.955,1,1,0,1,1,1,0,1
5.96,3,1,1,2,2,2,2,1
5.965,1,1,0,1,1,1,2,1
5.97,0,0,1,3,2,3,0,2
5.975,1,2,0,1,3,5,2,2
5.98,2,1,1,3,4,2,3,3
5.985,2,1,1,2,2,1,2,2
5.99,0,0,1,2,5,3,2,0
5.995,1,0,1,2,2,0,1,0
6,1,0,2,2,0,1,0,1
6.005,1,0,1,3,5,2,1,3
6.01,2,1,1,2,7,8,7,4
6.015,2,2,1,1,3,4,3,0
6.02,1,0,2,1,1,1,1,0
6.025,1,2,1,1,0,2,1,0
6.03,2,3,2,1,3,2,1,3
6.035,1,2,1,2,5,3,2,2
6.04,2,1,1,2,1,1,2,2
6.045,2,2,0,1,1,2,0,2
6.05,2,1,1,4,4,2,4,0
6.055,1,1,3,1,2,3,4,2
6.06,0,2,4,1,0,0,2,1
6.065,0,2,1,2,1,0,1,1
6.07,0,0,1,0,2,1,0,1
6.075,2,1,1,2,2,2,2,1
6.08,0,0,1,0,0,1,2,0
6.085,1,0,1,1,1,1,2,0
6.09,2,1,2,0,2,4,3,1
6.095,3,1,2,2,3,3,3,2
6.1,0,2,1,0,3,5,1,3
6.105,1,0,0,1,2,1,1,1
6.11,1,0,0,1,2,3,1,1
6.115,2,1,1,3,1,1,1,1
6.12,2,1,1,1,3,2,3,3
6.125,0,1,2,2,1,1,0,2
6.13,2,1,1,3,2,1,2,2
6.135,1,0,1,1,0,2,0,2
6.14,0,0,1,1,1,4,4,1
6.145,2,0,1,1,3,2,3,1
6.15,2,1,1,1,2,3,1,1
6.155,1,0,0,1,1,1,2,3
6.16,1,1,1,2,1,1,3,1
6.165,1,1,1,0,2,1,1,2
6.17,1,2,1,1,1,2,3,0
6.175,2,1,1,2,2,0,0,0
6.18,2,1,1,1,2,0,0,0
6.185,0,1,2,3,4,4,3,3
6.19,0,1,0,1,1,0,1,2
6.195,0,3,0,1,2,2,2,1
6.2,3,1,2,0,2,1,1,0
6.205,1,2,2,1,4,2,4,1
6.21,4,1,0,0,3,1,1,0
6.215,2,1,2,0,2,4,3,2
6.22,1,1,2,1,0,1,1,0
6.225,0,1,1,2,2,3,1,1
6.23,1,2,1,4,5,7,4,3
6.235,1,2,2,4,4,2,2,1
6.24,1,1,1,2,1,2,0,1
6.245,2,2,1,0,1,2,2,0
6.25,2,2,1,1,0,1,1,1
6.255,0,2,1,3,1,1,2,2
6.26,2,2,0,1,0,1,1,0
6.265,0,1,1,2,2,4,0,2
6.27,2,0,1,1,0,4,0,1
6.275,0,1,1,0,0,3,1,2
6.28,1,3,2,1,2,0,0,1
6.285,2,1,0,1,1,2,0,1
6.29,2,1,0,0,2,2,1,1
6.295,0,0,1,1,1,1,1,0
6.3,2,2,3,4,4,4,5,1
6.305,1,1,1,3,7,3,3,2
6.31,3,1,4,5,4,3,4,3
6.315,1,0,0,1,3,2,2,0
6.32,1,0,1,1,2,2,2,2
6.325,0,1,2,4,6,7,7,5
6.33,2,1,1,1,4,4,5,3
6.335,4,1,2,1,2,3,3,3
6.34,3,3,2,2,0,0,1,3
6.345,1,1,1,2,3,2,2,2
6.35,0,1,2,5,8,5,5,4
6.355,1,1,1,1,5,4,4,1
6.36,1,2,1,1,2,0,1,0
6.365,1,1,2,1,1,0,3,0
6.37,1,1,2,1,3,4,3,2
6.375,0,1,1,0,4,1,3,1
6.38,1,0,0,2,4,2,3,2
6.385,1,0,0,2,0,3,6,1
6.39,0,1,1,1,0,0,2,0
6.395,2,2,1,2,0,2,1,3
6.4,2,1,2,2,1,1,0,0
6.405,1,2,0,2,4,3,3,3
6.41,1,0,1,1,2,4,3,1
6.415,0,1,1,1,0,0,0,1
6.42,1,2,4,2,2,1,1,2
6.425,4,2,0,1,2,1,2,0
6.43,1,1,0,1,0,2,3,2
6.435,2,1,0,3,4,4,2,1
6.44,0,0,1,1,2,2,1,0
6.445,2,2,2,2,3,4,4,1
6.45,0,2,1,1,0,1,0,1
6.455,2,1,2,2,3,1,2,1
6.46,0,1,1,0,3,4,3,1
6.465,1,1,3,1,1,1,1,0
6.47,1,1,1,1,3,1,1,0
6.475,1,3,3,2,3,1,1,0
6.48,3,1,1,1,1,2,1,0
6.485,1,1,1,2,3,2,3,2
6.49,0,1,1,4,4,4,5,4
6.495,2,0,0,1,1,1,1,0
6.5,1,0,1,1,0,1,0,2
6.505,1,1,2,0,1,2,2,2
6.51,0,0,2,1,0,1,2,1
6.515,1,2,1,0,2,5,3,1
6.52,0,1,1,1,1,3,1,1
6.525,2,3,2,1,2,1,2,2
6.53,2,0,0,2,2,2,0,0
6.535,1,0,1,1,5,1,0,1
6.54,2,1,0,1,4,3,1,2
6.545,1,1,1,2,1,1,1,1
6.55,2,2,2,2,3,3,1,2
6.555,2,3,2,0,1,1,0,2
6.56,1,0,1,1,6,5,4,2
6.565,2,2,1,1,1,3,2,1
6.57,1,1,0,2,4,2,0,1
6.575,0,1,3,3,1,2,1,1
6.58,1,1,1,2,2,2,2,2
6.585,1,1,3,2,2,1,1,0
6.59,0,1,2,2,3,4,3,3
6.595,4,2,2,2,5,4,3,1
6.6,0,0,2,1,2,1,3,1
6.605,1,0,0,3,1,2,1,1
6.61,4,1,2,1,2,3,5,1
6.615,1,2,1,0,2,3,1,1
6.62,1,1,1,1,6,1,3,1
6.625,0,2,2,2,2,2,3,2
6.63,1,1,1,0,0,1,0,2
6.635,0,1,1,1,3,0,0,1
6.64,0,1,2,2,3,1,1,0
6.645,1,1,1,3,3,4,3,3
6.65,1,2,2,3,4,5,2,0
6.655,1,1,1,2,1,4,1,0
6.66,1,0,3,3,1,2,3,4
6.665,0,1,1,0,1,3,2,1
6.67,1,1,1,1,2,1,1,0
6.675,1,0,0,1,2,2,1,1
6.68,1,2,2,1,2,2,1,1
6.685,2,1,3,3,7,9,5,2
6.69,0,1,2,2,3,1,3,1
6.695,1,1,1,0,3,3,3,2
6.7,3,3,0,2,0,0,0,1
6.705,3,2,1,1,0,1,2,2
6.71,2,0,1,0,2,4,2,0
6.715,1,2,2,4,5,6,6,4
6.72,1,1,2,3,0,0,3,1
6.725,1,1,0,0,1,1,0,1
6.73,0,1,0,0,4,2,2,2
6.735,1,1,1,3,4,6,2,2
6.74,2,2,2,0,2,3,1,2
6.745,1,1,2,1,1,0,2,1
6.75,0,1,2,1,2,1,0,1
6.755,4,1,0,1,0,0,2,1
6.76,1,0,2,1,1,3,2,0
6.765,1,1,3,4,3,2,0,0
6.77,2,2,2,2,4,3,4,3
6.775,2,1,1,1,0,3,1,0
6.78,2,0,1,1,0,0,0,0
6.785,1,2,1,2,3,4,2,1
6.79,2,2,0,1,0,3,4,0
6.795,1,1,2,1,1,1,3,1
6.8,3,1,1,0,0,2,2,1
6.805,1,1,2,4,4,5,4,2
6.81,1,0,0,2,5,4,6,1
6.815,1,2,0,2,1,1,1,3
6.82,0,2,3,3,7,3,4,2
6.825,1,1,1,3,5,1,3,2
6.83,0,0,1,2,1,6,4,2
6.835,1,0,3,1,2,1,0,3
6.84,3,1,1,1,1,0,0,2
6.845,2,2,0,0,4,3,1,3
6.85,1,0,0,2,1,1,0,0
6.855,2,2,0,2,3,0,2,1
6.86,0,2,1,1,2,1,1,1
6.865,1,1,1,1,1,2,0,2
6.87,1,1,2,2,6,8,5,3
6.875,0,1,2,3,4,4,0,0
6.88,2,1,1,3,4,2,3,1
6.885,2,1,0,0,3,4,2,1
6.89,0,1,2,3,3,2,2,1
6.895,0,1,2,3,3,1,2,1
6.9,1,1,1,5,11,7,4,2
6.905,1,0,0,1,1,3,1,1
6.91,2,2,1,1,2,2,4,2
6.915,0,1,1,1,2,5,3,1
6.92,1,4,3,3,2,0,1,1
6.925,2,1,1,0,0,2,1,2
6.93,1,1,1,3,1,2,2,1
6.935,2,1,0,1,4,4,3,3
6.94,1,1,1,4,2,2,0,2
6.945,1,2,3,1,1,1,1,1
6.95,2,0,1,1,0,0,1,1
6.955,0,1,1,1,2,2,2,1
6.96,2,2,2,4,3,1,1,0
6.965,1,1,1,5,5,4,4,2
6.97,1,2,1,0,7,0,2,2
6.975,1,0,1,3,1,3,1,2
6.98,0,1,0,0,2,0,2,3
6.985,0,0,2,1,1,7,3,1
6.99,1,0,1,3,4,1,3,3
6.995,2,2,3,1,6,6,7,2
7,1,2,3,2,4,5,1,1
7.005,2,2,3,8,9,7,6,4
7.01,1,0,0,0,4,4,4,1
7.015,2,0,2,1,1,2,0,1
7.02,0,0,0,1,6,4,5,2
7.025,0,2,0,7,5,1,1,0
7.03,0,1,3,1,12,9,5,4
7.035,1,1,2,2,3,6,2,2
7.04,0,1,4,11,22,14,7,2
7.045,0,2,1,5,1,7,2,0
7.05,7,7,1,9,6,2,6,5
7.055,2,0,0,3,2,3,0,1
7.06,1,0,1,8,0,2,0,0
7.065,1,0,2,6,7,6,3,4
7.07,1,0,0,2,3,1,1,0
7.075,2,3,1,4,1,0,1,1
7.08,2,3,1,3,6,4,5,2
7.085,0,1,2,1,3,2,1,1
7.09,0,1,1,5,3,3,0,0
7.095,4,2,3,2,2,0,1,3
7.1,0,0,2,2,5,5,1,2
7.105,4,2,0,3,0,2,0,2
7.11,1,1,1,3,1,3,1,1
7.115,1,1,0,3,3,1,0,1
7.12,2,2,1,1,6,8,5,2
7.125,1,1,1,2,2,1,2,0
7.13,4,3,5,6,2,1,3,2
7.135,1,1,1,2,1,1,0,1
7.14,0,1,1,0,5,4,2,1
7.145,2,3,3,0,1,3,0,1
7.15,0,1,2,6,3,3,2,2
7.155,3,2,2,3,4,2,0,1
7.16,2,1,0,2,1,1,1,1
7.165,2,0,0,1,5,1,2,1
7.17,0,2,1,1,2,2,0,2
7.175,1,2,1,1,6,6,5,3
7.18,3,1,3,1,3,0,0,1
7.185,2,1,1,6,3,2,0,2
7.19,0,0,1,2,0,2,2,2
7.195,1,2,2,2,3,4,2,2
7.2,1,2,1,2,0,1,2,0
7.205,2,3,4,5,1,2,1,2
7.21,9,9,10,8,4,15,10,9
7.215,1,2,2,0,4,3,3,2
7.22,2,1,0,0,2,0,1,1
7.225,6,7,9,9,9,8,7,6
7.23,4,4,3,2,0,2,3,3
7.235,3,4,0,3,2,1,0,1
7.24,1,3,1,0,2,0,1,0
7.245,1,2,1,4,3,3,2,2
7.25,1,0,1,3,3,2,2,1
7.255,2,3,3,4,6,5,4,5
7.26,0,3,2,7,6,0,0,1
7.265,2,1,0,1,3,1,0,2
7.27,2,2,3,4,1,1,2,1
7.275,2,1,1,1,3,5,3,0
7.28,1,0,1,4,0,1,0,1
7.285,3,4,2,0,1,1,0,1
7.29,1,1,1,1,0,0,2,1
7.295,0,1,3,2,0,1,2,1
7.3,2,1,2,2,6,2,2,2
7.305,2,2,1,4,1,4,2,2
7.31,0,3,3,2,7,5,6,2
7.315,3,1,3,0,2,2,0,1
7.32,2,0,2,6,5,4,5,3
7.325,0,1,0,1,2,3,2,0
7.33,1,0,0,1,1,3,1,0
7.335,2,2,2,4,0,0,2,2
7.34,1,0,1,4,6,4,4,2
7.345,1,0,1,6,5,2,1,0
7.35,0,0,0,1,3,0,1,1
7.355,2,1,1,1,0,2,1,1
7.36,2,2,1,2,3,2,2,2
7.365,0,1,3,0,0,0,1,1
7.37,1,2,2,5,6,4,5,4
7.375,1,2,1,1,3,4,2,1
7.38,1,1,0,1,1,3,1,2
7.385,0,2,2,2,1,1,5,4
7.39,2,0,0,2,7,4,6,1
7.395,2,1,0,2,1,2,1,1
7.4,1,1,1,1,2,3,2,2
7.405,3,2,2,0,2,4,2,1
7.41,1,1,3,5,9,7,9,3
7.415,0,0,1,1,2,4,4,2
7.42,2,3,1,2,4,2,2,1
7.425,0,2,0,0,0,4,1,1
7.43,1,0,0,2,5,2,1,3
7.435,2,2,1,4,5,3,5,0
7.44,0,0,0,0,0,6,10,5
7.445,5,2,0,3,4,11,16,5
7.45,2,3,2,4,4,1,3,6
7.455,1,0,1,2,6,6,3,1
7.46,0,1,0,1,4,4,1,2
7.465,1,2,2,3,4,8,11,5
7.47,1,1,1,3,5,6,3,3
7.475,0,0,3,1,3,1,3,3
7.48,7,1,0,0,1,1,5,2
7.485,10,2,1,1,3,3,5,5
7.49,2,3,1,2,3,1,1,2
7.495,2,2,1,2,3,2,1,1
7.5,1,1,1,0,4,4,3,1
7.505,3,1,3,4,8,5,4,1
7.51,1,1,1,1,0,1,2,1
7.515,2,1,1,0,1,1,3,1
7.52,1,2,2,4,8,3,3,3
7.525,2,0,0,1,1,2,1,1
7.53,5,1,1,2,3,2,4,4
7.535,0,0,0,1,2,1,0,1
7.54,8,2,2,1,0,1,1,4
7.545,4,2,3,5,8,5,4,1
7.55,3,1,0,3,6,6,8,1
7.555,24,3,2,1,4,2,2,6
7.56,19,5,4,4,5,0,12,9
7.565,8,1,1,0,2,4,1,3
7.57,6,2,3,1,3,4,2,4
7.575,5,1,4,3,4,6,8,7
7.58,18,1,2,1,2,2,6,3
7.585,7,1,1,1,1,3,1,6
7.59,5,1,1,2,2,4,2,0
7.595,1,2,0,3,5,7,7,4
7.6,10,1,2,0,2,1,7,1
7.605,4,3,3,2,4,4,1,4
7.61,3,0,0,1,2,5,11,12
7.615,0,1,0,1,3,0,2,1
7.62,2,3,3,3,4,4,3,0
7.625,2,1,1,1,2,5,4,4
7.63,7,3,1,0,0,3,8,9
7.635,0,2,1,2,4,7,8,7
7.64,3,3,1,2,3,6,7,1
7.645,8,3,3,0,2,3,1,5
7.65,5,2,0,4,5,1,0,1
7.655,3,2,0,1,2,1,1,0
7.66,2,2,4,1,5,2,13,1
7.665,1,2,2,4,1,9,10,1
7.67,2,3,1,4,5,2,5,15
7.675,13,1,1,1,1,5,0,30
7.68,4,1,3,3,6,6,16,12
7.685,4,0,3,2,4,5,1,3
7.69,13,0,0,1,1,4,2,5
7.695,14,2,3,3,3,4,2,18
7.7,1,4,0,1,0,4,0,5
7.705,4,3,2,2,2,2,4,3
7.71,2,5,3,2,4,4,9,15
7.715,9,1,0,3,7,5,6,8
7.72,2,2,2,4,2,3,1,5
7.725,10,2,1,1,1,2,3,8
7.73,2,1,2,3,3,4,2,5
7.735,15,4,3,2,2,4,1,8
7.74,3,1,1,1,5,5,11,3
7.745,2,1,1,3,4,7,20,3
7.75,6,1,2,2,0,0,3,8
7.755,2,2,2,3,2,6,10,8
7.76,16,2,1,2,1,2,2,3
7.765,13,1,1,1,3,3,8,15
7.77,2,2,1,1,2,1,1,0
7.775,4,0,1,3,1,1,7,4
7.78,2,0,0,1,3,0,2,2
7.785,2,0,0,1,3,6,10,6
7.79,7,2,0,3,7,4,6,6
7.795,7,2,1,0,2,2,5,3
7.8,5,3,3,0,1,0,3,4
7.805,2,0,2,3,8,7,14,13
7.81,1,0,0,2,4,5,18,2
7.815,5,1,0,0,0,1,2,14
7.82,1,1,1,3,2,2,5,3
7.825,8,0,1,1,1,1,5,12
7.83,10,3,4,3,5,3,3,6
7.835,2,3,2,1,1,2,3,9
7.84,10,1,2,5,9,2,1,1
7.845,13,1,0,0,0,3,7,6
7.85,8,2,2,2,0,3,2,23
7.855,8,3,2,2,2,2,1,5
7.86,8,3,0,0,4,1,2,12
7.865,6,1,0,2,2,3,1,7
7.87,1,0,0,1,6,2,0,2
7.875,0,4,2,1,2,3,6,5
7.88,23,2,2,2,4,9,13,6
7.885,11,4,2,2,2,4,2,8
7.89,1,0,1,0,0,2,6,10
7.895,1,1,1,2,3,4,3,8
7.9,6,0,2,3,2,2,1,1
7.905,19,6,5,5,3,5,8,8
7.91,4,1,3,2,5,4,8,22
7.915,2,2,1,2,2,1,1,1
7.92,5,0,2,2,2,6,9,5
7.925,5,1,2,4,3,5,6,4
7.93,2,2,1,3,2,2,1,5
7.935,1,3,2,0,0,2,1,5
7.94,18,1,0,2,5,0,7,7
7.945,10,3,3,1,1,2,0,3
7.95,15,0,1,3,5,8,10,1
7.955,27,0,1,3,5,5,9,4
7.96,13,3,2,1,4,8,11,15
7.965,0,2,2,3,7,3,1,17
7.97,10,3,1,0,3,2,0,1
7.975,10,4,4,2,1,3,8,26
7.98,6,1,2,1,1,0,1,3
7.985,2,1,0,2,3,0,5,1
7.99,1,1,1,2,2,4,4,10
7.995,0,3,1,4,4,5,10,2
8,10,2,3,3,3,4,3,1
8.005,5,0,2,1,2,2,2,20
8.01,4,2,2,2,6,6,3,6
8.015,3,0,0,1,3,4,8,1
8.02,1,0,1,2,3,5,6,0
8.025,4,2,1,3,4,3,5,0
8.03,5,3,3,4,8,2,7,3
8.035,6,1,3,3,6,5,3,11
8.04,14,1,0,2,7,6,11,2
8.045,1,3,1,2,3,3,2,3
8.05,8,1,1,1,5,3,3,0
8.055,7,1,1,1,0,1,1,4
8.06,7,2,1,0,5,2,7,2
8.065,11,3,3,5,1,4,4,1
8.07,2,1,0,3,3,3,4,10
8.075,2,0,0,1,3,0,1,8
8.08,12,0,1,2,0,2,1,8
8.085,18,2,1,1,2,2,1,5
8.09,6,4,3,1,1,1,3,12
8.095,7,1,0,1,3,4,1,2
8.1,12,0,0,1,2,4,1,1
8.105,4,0,2,3,2,3,6,17
8.11,7,2,3,3,6,6,6,3
8.115,1,1,1,1,1,2,2,9
8.12,0,1,2,2,3,1,1,2
8.125,17,3,2,0,1,2,1,2
8.13,11,2,1,4,3,2,7,7
8.135,1,2,1,1,1,3,5,6
8.14,4,1,0,0,1,2,3,11
8.145,14,3,2,1,0,2,3,1
8.15,0,1,1,2,1,2,2,2
8.155,4,2,3,4,4,5,3,9
8.16,28,2,0,0,2,2,1,23
8.165,20,2,1,2,0,5,5,18
8.17,2,3,1,0,3,4,10,6
8.175,6,0,1,2,4,1,2,1
8.18,3,5,4,1,0,1,9,15
8.185,0,0,1,1,1,1,1,7
8.19,3,2,3,5,9,5,8,2
8.195,2,1,1,1,3,2,2,1
8.2,14,1,0,1,5,1,4,5
8.205,3,2,0,2,0,0,1,5
8.21,12,2,0,2,3,4,6,9
8.215,6,0,0,0,1,0,4,7
8.22,13,2,1,3,5,6,1,12
8.225,12,1,1,1,0,2,4,5
8.23,9,1,0,0,1,1,1,8
8.235,4,2,0,2,3,2,1,2
8.24,6,0,2,0,3,1,0,1
8.245,1,0,1,1,3,1,5,4
8.25,7,3,0,0,2,4,2,6
8.255,16,1,2,0,1,1,3,6
8.26,6,1,2,5,6,4,3,1
8.265,8,2,3,2,5,2,0,2
8.27,9,3,0,1,3,2,4,4
8.275,4,2,2,0,2,3,2,1
8.28,1,1,1,2,1,1,2,1
8.285,13,1,0,1,4,3,5,6
8.29,1,2,2,3,4,4,3,6
8.295,2,2,1,0,0,0,3,1
8.3,3,0,1,0,1,1,3,11
8.305,3,2,0,1,1,4,1,3
8.31,1,2,0,0,0,5,2,16
8.315,0,2,1,1,1,3,0,3
8.32,3,1,0,0,0,3,1,1
8.325,9,1,2,4,7,7,6,6
8.33,4,1,0,0,2,5,3,4
8.335,5,1,1,3,4,2,1,9
8.34,1,1,0,1,0,1,2,7
8.345,5,1,1,2,3,1,0,6
8.35,7,1,2,0,3,3,3,6
8.355,2,1,2,1,2,1,2,1
8.36,4,2,2,0,1,2,0,6
8.365,3,2,3,0,2,5,4,3
8.37,1,0,1,1,1,2,1,1
8.375,4,0,0,0,1,2,2,2
8.38,0,1,1,1,3,4,4,3
8.385,3,2,0,1,3,0,1,0
8.39,6,1,2,0,0,2,1,4
8.395,2,1,2,0,2,1,2,2
8.4,2,1,1,2,3,2,2,5
8.405,5,3,1,0,2,2,2,23
8.41,4,1,2,0,1,2,1,3
8.415,8,1,2,3,1,2,1,3
8.42,1,0,2,0,1,0,2,4
8.425,5,0,1,0,1,1,2,4
8.43,1,2,1,3,1,2,0,2
8.435,1,2,0,2,2,1,0,1
8.44,5,2,2,0,1,2,0,3
8.445,5,3,2,2,3,3,5,8
8.45,6,1,1,1,3,1,0,6
8.455,0,1,2,1,1,1,1,3
8.46,3,2,1,0,1,2,1,3
8.465,3,2,1,0,3,1,0,7
8.47,1,1,1,0,1,2,2,2
8.475,1,0,0,3,0,1,0,1
8.48,2,0,3,6,3,2,4,3
8.485,1,1,3,4,5,4,2,2
8.49,4,3,2,1,1,0,2,1
8.495,0,2,0,0,2,1,0,0
8.5,1,1,0,4,2,1,0,2
8.505,1,1,8,14,4,0,1,2
8.51,0,1,1,1,2,2,3,0
8.515,0,1,1,1,0,0,2,3
8.52,1,0,1,3,2,3,2,2
8.525,1,3,3,9,0,0,1,1
8.53,1,2,0,1,1,2,4,2
8.535,0,2,2,1,3,0,1,0
8.54,1,0,3,8,2,0,1,0
8.545,2,9,4,8,6,2,4,2
8.55,1,0,2,5,5,0,2,1
8.555,1,1,7,5,7,1,2,1
8.56,0,2,2,3,6,1,2,2
8.565,3,3,12,8,6,4,1,2
8.57,0,1,4,7,0,2,3,2
8.575,1,1,9,6,3,2,1,1
8.58,2,2,2,5,0,2,1,2
8.585,0,0,5,3,4,0,2,1
8.59,2,2,1,5,4,4,2,0
8.595,2,1,5,1,3,2,1,0
8.6,2,4,3,4,0,1,1,1
8.605,0,3,5,4,3,5,2,1
8.61,1,3,8,2,2,0,0,1
8.615,1,2,1,2,7,3,2,3
8.62,2,1,2,2,4,0,1,0
8.625,1,2,2,3,3,3,2,0
8.63,0,3,2,3,0,2,2,3
8.635,1,1,1,5,5,0,0,2
8.64,3,2,2,3,4,3,5,4
8.645,1,2,5,2,1,1,1,4
8.65,0,2,3,0,9,6,4,6
8.655,2,3,2,3,6,3,5,4
8.66,4,2,4,3,6,4,4,2
8.665,3,1,1,3,0,4,2,1
8.67,2,0,2,2,6,2,1,1
8.675,3,1,1,4,1,1,1,1
8.68,3,3,7,4,6,1,1,1
8.685,2,2,4,3,6,6,4,2
8.69,2,0,3,0,1,0,1,2
8.695,1,6,13,8,4,4,4,1
8.7,0,1,2,11,6,0,2,0
8.705,2,1,1,3,0,1,1,1
8.71,2,0,5,1,1,2,1,1
8.715,4,2,5,1,2,3,3,4
8.72,1,3,5,0,6,3,2,1
8.725,1,0,0,3,4,1,1,0
8.73,0,0,1,4,1,2,1,1
8.735,2,2,5,5,0,1,1,0
8.74,0,0,1,2,0,2,2,2
8.745,3,3,6,3,5,4,2,2
8.75,1,1,2,1,4,4,3,0
8.755,1,1,6,5,2,1,2,2
8.76,2,8,2,1,3,5,1,0
8.765,0,0,6,4,2,1,3,0
8.77,2,0,1,4,1,2,1,2
8.775,1,1,4,5,8,3,2,0
8.78,0,2,3,1,0,1,1,1
8.785,0,1,2,0,1,2,2,1
8.79,3,2,3,1,3,0,1,1
8.795,1,1,4,5,1,1,1,0
8.8,1,1,6,2,3,3,1,1
8.805,2,2,0,6,3,2,0,0
8.81,0,1,0,0,0,3,0,1
8.815,1,1,2,3,2,1,2,3
8.82,1,0,0,1,1,3,4,3
8.825,1,1,2,7,5,3,0,3
8.83,0,1,2,1,0,4,0,0
8.835,0,1,1,2,0,2,3,0
8.84,1,3,1,5,1,1,3,3
8.845,1,3,9,0,2,4,2,0
8.85,3,0,0,1,0,0,1,2
8.855,2,1,2,2,2,0,2,1
8.86,1,2,1,1,1,0,0,0
8.865,3,0,0,1,3,1,4,1
8.87,1,1,0,4,4,1,0,1
8.875,1,3,3,1,2,4,4,0
8.88,1,1,4,0,2,4,0,1
8.885,4,5,4,0,0,2,0,1
8.89,1,2,0,4,3,2,2,1
8.895,1,0,1,2,0,4,2,3
8.9,1,1,2,1,0,1,1,2
8.905,0,1,0,2,0,0,0,2
8.91,0,2,1,5,3,1,1,1
8.915,0,2,3,0,3,1,1,1
8.92,2,2,0,0,2,1,2,1
8.925,0,2,2,5,4,3,2,1
8.93,3,1,2,2,1,4,1,2
8.935,1,0,1,2,2,0,1,1
8.94,1,1,1,0,1,1,1,1
8.945,2,3,5,1,0,0,2,1
8.95,1,2,4,2,4,2,2,2
8.955,2,3,1,0,3,3,3,1
8.96,2,0,1,1,0,1,1,1
8.965,0,1,0,8,7,8,7,2
8.97,1,4,0,5,6,6,4,1
8.975,0,1,1,2,4,5,4,1
8.98,2,3,3,1,2,2,1,0
8.985,1,2,0,0,1,0,1,1
8.99,1,2,3,3,7,8,6,3
8.995,3,2,1,3,4,4,1,2
9,0,1,2,5,5,5,4,2
9.005,1,1,1,0,1,1,2,2
9.01,1,1,3,5,4,1,1,3
9.015,1,3,1,2,3,4,3,0
9.02,0,0,4,5,7,7,4,4
9.025,2,0,2,0,0,2,0,1
9.03,1,3,1,2,3,2,1,0
9.035,2,1,1,1,0,4,2,2
9.04,1,2,5,3,4,1,1,1
9.045,1,1,1,4,3,3,1,3
9.05,3,1,0,3,3,3,2,3
9.055,2,1,4,16,8,0,1,1
9.06,0,2,1,3,2,0,1,0
9.065,3,6,1,5,1,1,0,1
9.07,0,1,2,1,2,0,0,1
9.075,1,1,1,2,2,1,1,2
9.08,1,8,3,2,4,5,2,2
9.085,0,0,1,1,4,0,1,1
9.09,1,1,2,4,2,2,0,1
9.095,2,2,8,2,1,1,3,1
9.1,1,0,1,1,2,2,2,1
9.105,0,1,1,2,1,1,0,1
9.11,1,1,1,2,2,0,1,1
9.115,0,0,1,3,1,3,2,2
9.12,1,4,1,1,2,0,1,1
9.125,0,2,2,1,1,2,1,2
9.13,1,0,2,2,0,2,2,2
9.135,2,2,2,2,6,4,4,2
9.14,0,2,3,2,6,5,4,2
9.145,4,1,1,3,2,2,3,1
9.15,0,1,1,3,9,6,4,3
9.155,0,1,0,1,1,3,0,1
9.16,3,0,1,3,0,2,1,1
9.165,2,3,6,8,13,11,0,4
9.17,1,1,0,1,4,8,1,2
9.175,2,1,0,2,1,3,2,2
9.18,1,1,3,2,5,1,0,1
9.185,1,2,0,2,2,5,2,2
9.19,1,1,2,1,3,3,0,0
9.195,1,3,2,1,4,3,0,0
9.2,0,0,3,3,2,3,6,3
9.205,0,0,0,3,5,1,1,1
9.21,0,1,0,3,0,5,1,2
9.215,0,1,1,0,6,7,4,2
9.22,0,2,1,3,1,3,0,0
9.225,3,1,1,3,5,1,3,1
9.23,2,1,1,7,13,15,5,3
9.235,1,2,3,1,3,4,0,1
9.24,0,1,1,6,6,5,6,2
9.245,0,0,1,1,4,2,1,0
9.25,3,3,5,4,5,2,3,4
9.255,3,2,2,3,6,7,4,1
9.26,1,2,0,3,10,9,1,1
9.265,1,1,1,6,11,14,2,1
9.27,1,0,1,4,1,0,0,1
9.275,1,1,0,5,2,1,0,1
9.28,1,1,1,0,4,4,0,1
9.285,2,4,5,5,2,5,1,0
9.29,1,1,2,1,5,8,4,3
9.295,0,3,9,1,5,6,1,0
9.3,1,0,0,5,6,5,2,1
9.305,0,1,0,3,6,3,1,0
9.31,2,3,2,1,1,1,3,2
9.315,0,2,1,2,2,5,1,3
9.32,1,2,3,5,4,6,4,4
9.325,0,1,0,4,2,1,2,1
9.33,0,1,1,6,2,2,2,0
9.335,2,0,0,4,25,21,4,3
9.34,2,1,2,2,10,17,2,0
9.345,0,1,3,4,2,5,1,2
9.35,3,3,3,3,9,11,4,2
9.355,0,2,3,9,7,4,3,1
9.36,2,0,1,6,6,4,2,1
9.365,0,1,1,2,4,1,0,1
9.37,1,1,0,1,0,1,3,0
9.375,1,1,1,4,4,0,1,2
9.38,1,2,2,4,1,2,0,2
9.385,2,1,2,1,4,1,2,1
9.39,1,1,1,3,4,4,5,2
9.395,2,3,2,4,12,8,1,2
9.4,1,1,1,2,4,3,2,3
9.405,1,1,0,1,11,12,5,2
9.41,0,0,0,1,1,1,0,1
9.415,0,2,2,1,1,3,1,2
9.42,0,1,1,4,5,4,3,1
9.425,3,1,1,4,4,2,1,1
9.43,1,1,1,4,1,5,4,3
9.435,2,3,4,6,0,0,2,1
9.44,4,1,2,2,1,3,0,0
9.445,1,0,2,0,1,2,3,1
9.45,1,2,2,4,6,3,2,2
9.455,1,0,1,3,2,3,1,2
9.46,1,4,3,7,6,5,3,3
9.465,2,2,1,1,1,1,1,2
9.47,1,3,1,3,8,11,5,2
9.475,1,0,2,0,2,1,4,0
9.48,3,2,2,1,1,3,1,1
9.485,2,0,0,2,1,1,2,1
9.49,1,0,1,1,1,1,1,0
9.495,2,0,2,3,4,6,2,0
9.5,1,0,1,2,4,9,3,1
9.505,0,1,2,5,13,5,2,2
9.51,0,1,1,2,3,3,2,1
9.515,1,3,4,6,1,2,5,2
9.52,1,0,2,0,1,3,0,4
9.525,1,1,2,1,1,1,2,1
9.53,0,3,1,0,3,3,0,0
9.535,0,1,1,4,0,0,0,1
9.54,2,0,2,3,1,3,3,2
9.545,1,2,0,0,2,2,2,3
9.55,1,0,1,3,9,10,3,0
9.555,3,0,1,6,8,3,3,2
9.56,0,1,2,3,1,3,2,2
9.565,2,3,2,5,10,7,4,2
9.57,0,1,0,1,2,3,0,0
9.575,0,2,2,5,1,3,0,1
9.58,1,1,0,1,0,4,2,2
9.585,0,0,1,1,2,1,0,1
9.59,2,2,0,1,4,6,4,1
9.595,2,0,1,1,0,2,1,0
9.6,0,3,0,3,1,1,0,0
9.605,3,1,0,1,4,3,0,1
9.61,2,2,2,4,5,4,3,2
9.615,1,1,2,3,0,1,1,1
9.62,1,1,0,1,1,2,2,1
9.625,0,1,1,0,4,2,2,1
9.63,1,1,3,5,3,4,2,1
9.635,2,2,2,4,6,2,2,3
9.64,2,2,3,4,1,3,0,0
9.645,2,0,0,3,4,1,1,0
9.65,1,1,1,2,3,2,3,1
9.655,2,3,2,0,0,0,3,2
9.66,0,0,0,0,5,5,0,1
9.665,2,2,2,0,3,6,2,1
9.67,0,1,3,7,2,2,0,0
9.675,2,1,3,3,5,2,1,1
9.68,2,2,0,0,3,5,4,2
9.685,1,3,3,0,0,2,2,2
9.69,1,0,0,0,3,0,1,1
9.695,0,0,1,2,2,1,1,1
9.7,1,1,2,2,2,0,1,0
9.705,1,1,0,1,3,4,4,3
9.71,1,2,0,0,1,1,0,0
9.715,0,0,1,1,1,0,0,0
9.72,1,0,1,1,3,3,1,2
9.725,0,1,1,3,1,3,0,1
9.73,1,1,2,2,2,2,2,1
9.735,1,1,1,2,10,10,4,2
9.74,2,2,1,3,7,9,2,0
9.745,0,1,1,1,0,0,1,1
9.75,1,1,0,2,1,3,0,2
