0.01,1,3,2,7,7,0,0,1
0.015,4,0,1,1,1,2,1,2
0.02,2,2,2,6,2,5,5,0
0.025,0,2,1,1,2,0,0,0
0.03,1,1,2,10,2,1,0,2
0.035,0,2,6,12,7,2,3,0
0.04,1,1,1,0,2,1,1,2
0.045,1,0,1,3,2,1,0,2
0.05,0,2,1,1,4,4,1,2
0.055,1,3,0,4,1,2,1,0
0.06,2,2,8,3,3,2,2,2
0.065,1,3,9,9,7,2,4,2
0.07,2,1,1,3,6,4,3,1
0.075,0,0,0,7,4,2,1,1
0.08,1,0,2,2,1,4,3,1
0.085,0,4,1,0,3,2,3,2
0.09,0,1,3,2,2,3,1,1
0.095,1,0,1,0,4,1,2,3
0.1,2,4,2,0,5,7,4,2
0.105,0,1,2,7,2,4,4,1
0.11,1,2,5,6,0,1,0,2
0.115,0,0,1,2,2,5,3,1
0.12,0,1,6,6,5,2,0,3
0.125,0,1,3,6,2,3,2,1
0.13,1,1,2,2,2,2,0,1
0.135,0,1,2,6,3,1,0,2
0.14,1,2,3,2,5,3,4,2
0.145,2,1,2,3,4,1,2,2
0.15,1,2,4,5,4,5,2,2
0.155,1,3,1,6,11,8,7,2
0.16,2,1,4,3,3,3,2,1
0.165,2,0,1,4,10,3,3,2
0.17,1,1,2,1,3,0,0,2
0.175,0,1,1,8,1,1,0,1
0.18,0,2,1,4,7,0,1,1
0.185,3,1,2,0,4,2,1,3
0.19,1,1,2,6,1,1,1,0
0.195,1,0,1,1,1,0,1,0
0.2,2,0,0,2,4,1,0,3
0.205,0,1,0,0,5,6,5,3
0.21,1,2,4,0,1,2,1,1
0.215,0,2,0,1,2,2,2,1
0.22,2,0,2,3,0,2,0,0
0.225,1,1,1,3,1,3,1,1
0.23,1,1,2,2,0,1,2,1
0.235,2,2,14,3,2,0,2,2
0.24,1,0,0,0,2,4,3,1
0.245,2,2,4,2,5,1,2,2
0.25,1,1,3,9,7,3,4,2
0.255,0,1,2,5,1,1,1,1
0.26,1,1,2,2,1,0,1,1
0.265,1,1,1,2,4,2,0,2
0.27,1,1,1,2,4,4,2,1
0.275,0,1,1,1,1,3,2,0
0.28,2,0,0,1,0,0,0,2
0.285,0,1,1,3,1,2,2,2
0.29,2,0,0,3,2,2,1,1
0.295,0,2,1,3,5,1,0,0
0.3,0,2,3,2,0,0,1,1
0.305,2,1,1,0,2,4,0,0
0.31,1,1,1,4,1,3,5,1
0.315,0,0,1,2,1,5,2,0
0.32,1,0,3,6,4,0,1,1
0.325,0,2,8,6,3,3,1,0
0.33,0,1,7,5,5,1,3,2
0.335,1,2,7,2,0,5,3,5
0.34,0,3,0,2,0,2,3,1
0.345,1,1,0,1,3,0,2,2
0.35,2,1,3,4,0,2,1,0
0.355,1,1,1,4,2,1,2,2
0.36,2,0,0,2,1,5,2,4
0.365,0,3,1,4,2,0,1,2
0.37,2,2,4,1,3,0,3,1
0.375,1,0,4,3,2,0,1,2
0.38,4,0,3,4,3,4,3,2
0.385,3,0,0,7,4,2,4,2
0.39,1,1,0,7,2,1,2,1
0.395,0,2,2,4,3,2,1,2
0.4,0,2,1,5,1,3,2,1
0.405,2,1,0,0,2,3,1,1
0.41,0,0,0,1,4,2,4,2
0.415,1,2,2,0,0,2,4,2
0.42,0,1,0,2,1,0,1,0
0.425,1,2,3,2,4,3,1,2
0.43,0,1,6,2,1,2,0,1
0.435,2,3,2,2,2,2,2,2
0.44,2,1,3,5,3,0,1,1
0.445,1,0,3,9,2,2,3,3
0.45,2,2,5,8,6,2,2,1
0.455,1,1,7,1,4,3,3,1
0.46,1,2,7,4,5,5,2,2
0.465,3,2,2,8,0,2,2,2
0.47,1,2,3,1,1,0,1,3
0.475,0,0,1,1,1,0,3,1
0.48,0,2,1,0,5,4,4,4
0.485,2,1,1,4,0,2,2,1
0.49,1,1,1,1,1,2,0,1
0.495,2,1,7,4,2,2,1,2
0.5,2,1,1,0,0,1,1,2
0.505,2,1,1,1,2,1,1,1
0.51,1,1,1,0,0,2,0,1
0.515,0,1,1,0,4,0,2,1
0.52,1,0,0,3,0,2,4,2
0.525,0,2,1,6,9,4,3,3
0.53,0,0,0,8,6,1,1,3
0.535,1,1,1,2,1,0,1,1
0.54,0,1,0,5,3,2,1,2
0.545,1,0,0,7,6,3,3,2
0.55,2,0,3,4,3,2,3,4
0.555,0,2,2,10,8,4,3,1
0.56,1,2,14,10,1,2,1,2
0.565,0,2,0,6,6,0,1,0
0.57,0,2,2,7,6,2,3,1
0.575,2,0,2,6,1,0,1,1
0.58,2,3,3,5,2,1,0,1
0.585,2,1,1,2,3,2,2,3
0.59,1,0,9,4,2,3,3,2
0.595,1,0,2,1,1,1,2,2
0.6,2,1,0,5,5,4,3,1
0.605,0,2,2,3,3,5,3,0
0.61,1,1,3,0,2,3,1,0
0.615,1,0,0,5,0,1,1,2
0.62,2,3,5,9,3,4,3,2
0.625,1,0,0,1,1,1,4,2
0.63,2,1,1,5,4,3,0,2
0.635,2,3,6,3,2,1,0,1
0.64,1,1,4,6,2,2,4,3
0.645,0,0,1,1,2,3,1,1
0.65,2,1,2,4,1,2,0,0
0.655,0,2,4,8,6,1,1,1
0.66,2,1,8,7,1,2,3,2
0.665,0,3,1,2,3,1,2,0
0.67,2,0,1,4,8,3,2,1
0.675,3,1,2,1,1,1,3,1
0.68,0,0,0,6,0,1,1,0
0.685,1,2,0,1,1,0,0,1
0.69,0,1,5,7,4,0,2,0
0.695,1,0,3,3,2,4,0,1
0.7,0,0,2,0,2,2,1,1
0.705,1,1,3,5,4,2,1,1
0.71,2,2,1,2,3,0,1,2
0.715,0,0,2,1,0,2,2,1
0.72,0,0,1,3,1,0,0,1
0.725,1,1,2,4,2,0,1,2
0.73,2,1,3,6,8,2,4,3
0.735,1,0,2,2,5,2,1,1
0.74,1,2,1,1,2,1,2,3
0.745,1,2,2,2,2,1,2,1
0.75,3,2,3,0,1,3,2,2
0.755,0,1,3,6,4,2,2,2
0.76,1,0,0,5,1,1,1,2
0.765,2,1,0,6,5,2,2,2
0.77,0,1,0,1,0,0,2,0
0.775,3,3,6,5,3,3,1,3
0.78,1,1,0,3,0,0,1,2
0.785,1,2,3,2,3,3,1,1
0.79,0,1,2,3,5,2,2,1
0.795,0,1,2,0,3,1,1,3
0.8,1,1,2,6,4,2,1,1
0.805,1,1,0,3,2,0,1,2
0.81,2,0,2,5,1,3,1,1
0.815,0,1,1,0,2,4,3,2
0.82,0,1,2,4,5,3,1,2
0.825,1,1,1,6,1,1,0,1
0.83,3,1,1,5,3,0,1,1
0.835,0,1,0,3,3,1,1,1
0.84,2,2,3,1,1,2,1,1
0.845,0,1,5,6,6,3,3,3
0.85,1,0,1,1,1,3,4,2
0.855,1,0,3,2,3,1,1,1
0.86,0,3,1,1,1,3,3,1
0.865,1,1,2,6,3,0,1,0
0.87,1,3,2,2,2,0,1,3
0.875,2,0,2,2,3,3,4,2
0.88,1,2,3,10,0,1,1,0
0.885,1,0,0,0,1,0,1,0
0.89,2,2,1,2,4,1,2,2
0.895,3,1,1,1,5,2,2,2
0.9,0,0,0,2,0,1,2,1
0.905,1,1,1,1,2,1,2,1
0.91,1,0,3,1,3,2,2,1
0.915,0,1,1,0,0,3,0,1
0.92,3,1,1,0,3,1,2,2
0.925,0,4,4,6,5,1,0,1
0.93,0,1,0,1,3,2,0,0
0.935,0,2,0,1,1,1,2,0
0.94,3,0,1,1,1,0,2,2
0.945,0,1,0,1,1,2,1,2
0.95,1,2,1,5,5,3,1,3
0.955,4,2,0,1,1,2,2,3
0.96,1,0,7,3,3,0,2,1
0.965,1,2,1,4,4,0,1,0
0.97,0,1,2,5,5,1,0,1
0.975,1,0,1,1,2,3,2,0
0.98,1,3,2,10,8,2,4,2
0.985,1,0,0,0,3,6,3,3
0.99,1,1,1,0,2,0,0,2
0.995,2,1,3,2,2,3,3,0
1,0,1,1,5,2,1,2,1
1.005,1,1,2,1,3,5,3,0
1.01,0,1,8,6,1,1,2,2
1.015,3,3,1,1,1,2,1,2
1.02,1,0,2,3,2,1,1,1
1.025,2,3,5,7,3,2,1,2
1.03,0,0,2,3,3,4,2,1
1.035,1,1,3,8,1,1,1,1
1.04,1,0,1,1,1,1,1,1
1.045,1,0,2,3,4,2,4,4
1.05,0,0,1,3,2,2,1,0
1.055,1,0,3,7,3,0,2,1
1.06,2,3,2,1,2,4,2,1
1.065,1,3,3,2,3,1,2,2
1.07,2,0,2,0,0,0,1,1
1.075,2,2,5,5,3,2,2,2
1.08,1,0,0,2,1,0,1,1
1.085,1,2,0,3,5,1,1,3
1.09,0,2,2,7,1,1,2,1
1.095,0,0,0,5,1,1,1,0
1.1,0,1,1,2,4,0,1,0
1.105,1,1,4,5,3,0,2,1
1.11,3,2,0,0,4,2,2,2
1.115,0,1,5,4,2,3,3,2
1.12,1,1,1,1,0,1,1,2
1.125,2,1,3,1,2,1,2,1
1.13,1,0,0,2,2,2,1,0
1.135,0,1,3,2,2,2,0,1
1.14,1,0,2,1,0,1,0,3
1.145,0,3,2,5,2,1,3,1
1.15,2,1,0,1,2,3,1,2
1.155,1,1,1,2,0,2,0,1
1.16,1,1,0,2,0,1,0,3
1.165,4,1,1,0,3,0,1,2
1.17,2,0,2,1,1,2,1,2
1.175,1,2,1,1,4,2,1,0
1.18,0,2,3,2,6,3,2,1
1.185,0,1,2,1,1,1,1,1
1.19,0,1,4,11,3,1,1,1
1.195,3,0,0,1,1,1,1,1
1.2,2,1,2,1,1,0,1,1
1.205,3,0,2,0,3,4,1,1
1.21,0,1,0,3,2,0,0,0
1.215,1,3,3,2,3,1,1,1
1.22,1,2,0,1,1,0,0,1
1.225,1,1,3,1,0,1,0,2
1.23,0,0,1,3,0,1,2,0
1.235,2,3,1,0,2,2,3,2
1.24,0,2,1,2,3,2,0,0
1.245,2,0,2,3,1,1,1,2
1.25,0,2,0,0,4,3,2,2
1.255,2,0,0,0,4,4,0,0
1.26,1,2,1,2,2,4,1,2
1.265,0,2,0,1,1,1,1,2
1.27,3,1,1,2,7,1,1,2
1.275,1,3,2,3,1,0,1,2
1.28,3,2,0,1,1,2,2,2
1.285,1,2,4,11,2,1,5,3
1.29,1,2,0,2,4,2,2,1
1.295,1,1,1,1,0,2,0,1
1.3,1,0,1,1,2,1,0,1
1.305,2,1,1,1,1,2,3,0
1.31,2,0,2,2,0,1,2,3
1.315,2,2,1,2,6,4,3,0
1.32,0,2,0,3,8,4,1,2
1.325,2,3,1,5,5,2,1,2
1.33,2,0,2,6,4,3,1,2
1.335,1,2,1,2,4,3,1,0
1.34,1,0,2,0,1,1,0,1
1.345,1,0,1,4,0,2,1,2
1.35,3,1,1,1,4,2,1,2
1.355,0,1,1,6,3,4,3,2
1.36,0,1,2,1,0,2,0,2
1.365,1,1,1,1,3,1,1,0
1.37,0,2,1,3,0,0,2,1
1.375,2,0,5,3,3,1,2,3
1.38,1,1,2,6,7,6,4,1
1.385,0,1,0,1,2,1,2,2
1.39,0,2,1,2,0,0,0,0
1.395,1,3,2,0,5,2,2,1
1.4,1,1,5,1,0,0,0,1
1.405,2,3,0,1,3,1,3,2
1.41,1,1,2,6,6,4,2,3
1.415,1,0,1,3,1,1,0,0
1.42,1,1,3,8,8,1,2,1
1.425,2,0,0,1,3,3,3,2
1.43,2,0,1,0,2,1,0,0
1.435,3,3,1,4,2,0,1,0
1.44,2,2,0,1,0,0,0,1
1.445,1,0,2,5,2,2,2,1
1.45,1,2,4,10,7,2,2,2
1.455,3,0,3,2,5,4,2,3
1.46,2,1,1,3,1,6,1,1
1.465,0,1,3,5,5,1,1,1
1.47,1,3,1,2,3,2,2,1
1.475,0,1,0,1,3,1,0,2
1.48,1,1,0,1,3,2,2,4
1.485,2,2,1,1,5,1,2,1
1.49,2,1,2,4,3,3,2,1
1.495,1,1,0,1,3,2,2,3
1.5,2,2,1,2,1,0,1,1
1.505,1,0,3,1,5,0,2,3
1.51,1,1,0,4,0,2,3,2
1.515,1,1,1,6,1,1,1,0
1.52,2,2,1,4,1,4,2,1
1.525,1,1,0,2,1,0,1,2
1.53,2,2,2,0,2,2,0,1
1.535,1,0,0,0,4,3,1,2
1.54,2,1,3,3,4,4,1,3
1.545,1,3,2,2,1,1,2,0
1.55,1,1,1,2,0,1,2,0
1.555,2,3,1,2,3,2,2,2
1.56,0,1,1,1,0,0,1,1
1.565,0,0,0,0,2,1,0,0
1.57,0,1,3,2,1,2,1,2
1.575,2,1,2,2,0,1,1,2
1.58,0,0,0,0,1,3,2,1
1.585,0,1,1,2,4,1,1,0
1.59,1,1,3,2,3,2,0,1
1.595,0,2,1,1,3,2,0,2
1.6,0,0,2,3,4,0,0,1
1.605,1,1,2,6,4,2,2,3
1.61,1,2,1,1,4,1,0,0
1.615,2,1,3,4,1,1,1,0
1.62,0,2,2,1,3,1,0,1
1.625,2,2,2,3,1,3,1,0
1.63,1,1,2,5,3,0,1,0
1.635,1,2,2,7,3,3,2,1
1.64,2,1,1,0,0,0,1,1
1.645,2,2,1,1,1,0,2,1
1.65,0,0,0,0,3,2,0,1
1.655,2,0,0,3,6,0,3,2
1.66,2,1,0,6,2,3,2,2
1.665,1,0,0,5,3,2,0,1
1.67,2,3,3,1,0,2,2,3
1.675,2,2,3,5,1,0,0,2
1.68,1,1,0,1,1,2,1,1
1.685,0,3,3,1,3,3,3,2
1.69,2,1,1,4,1,2,3,0
1.695,1,1,2,0,0,4,2,2
1.7,0,2,2,5,7,1,1,2
1.705,2,1,2,1,2,0,1,2
1.71,1,0,2,4,1,2,3,0
1.715,2,3,1,0,3,0,0,1
1.72,1,1,1,3,1,2,2,2
1.725,2,0,1,1,1,1,0,2
1.73,3,2,0,1,3,2,0,2
1.735,2,2,0,1,5,2,1,2
1.74,2,1,1,0,3,1,1,1
1.745,1,1,1,6,4,3,4,2
1.75,1,1,2,2,0,2,1,0
1.755,1,1,1,1,2,2,0,1
1.76,0,0,2,2,2,3,1,2
1.765,1,1,0,1,3,3,2,2
1.77,1,2,2,2,1,1,1,0
1.775,3,2,1,2,1,3,1,1
1.78,1,4,1,2,4,0,2,0
1.785,0,1,1,1,2,1,2,0
1.79,2,2,1,2,3,4,4,3
1.795,1,0,0,2,1,2,1,0
1.8,2,3,2,2,0,1,3,5
1.805,0,1,1,3,3,4,1,1
1.81,0,2,0,0,0,1,4,2
1.815,1,2,1,2,6,1,2,1
1.82,1,1,3,1,1,1,1,1
1.825,2,1,6,2,5,1,1,1
1.83,1,1,1,4,1,0,1,1
1.835,1,1,1,1,1,3,1,0
1.84,1,1,1,4,4,3,3,1
1.845,2,0,1,3,3,1,2,0
1.85,3,1,0,2,1,3,0,1
1.855,2,1,2,1,4,0,2,0
1.86,1,0,2,3,0,1,1,0
1.865,3,0,0,2,1,1,0,4
1.87,0,1,3,2,2,0,1,1
1.875,2,1,1,0,1,0,0,0
1.88,0,2,0,0,2,4,3,0
1.885,0,0,2,0,3,0,2,2
1.89,0,1,0,2,2,1,1,1
1.895,1,2,1,2,0,0,1,0
1.9,1,0,2,2,1,2,0,1
1.905,2,2,1,3,2,2,3,1
1.91,0,1,3,10,6,1,1,1
1.915,0,1,1,2,1,3,0,2
1.92,2,1,2,3,2,4,1,1
1.925,0,2,3,9,2,1,1,2
1.93,2,1,1,7,1,3,2,1
1.935,1,0,1,4,5,1,3,2
1.94,0,0,1,2,5,1,1,0
1.945,1,1,1,5,2,0,0,1
1.95,1,3,1,1,0,2,0,0
1.955,3,2,1,0,0,6,2,2
1.96,0,3,1,1,4,3,2,3
1.965,1,0,1,1,3,1,2,1
1.97,2,1,0,3,3,3,1,1
1.975,0,0,3,2,3,2,3,3
1.98,1,2,1,2,0,1,1,1
1.985,0,0,1,1,0,2,3,0
1.99,1,0,3,4,0,0,2,0
1.995,1,2,0,2,0,1,1,1
2,2,2,0,0,1,1,1,1
2.005,1,2,3,7,4,1,2,2
2.01,0,1,1,3,2,1,1,0
2.015,0,1,2,1,1,2,1,2
2.02,1,1,3,3,6,0,1,1
2.025,2,1,1,2,1,2,1,1
2.03,1,2,1,2,4,2,3,3
2.035,3,1,0,1,0,0,0,3
2.04,2,2,2,9,2,2,2,2
2.045,2,3,0,1,0,1,2,0
2.05,1,0,1,1,1,1,0,1
2.055,0,0,1,2,0,1,1,2
2.06,0,1,0,3,1,2,0,1
2.065,1,0,2,2,1,3,1,2
2.07,0,3,1,5,1,0,1,1
2.075,2,1,1,1,0,2,2,1
2.08,3,1,0,1,2,2,0,2
2.085,0,0,0,1,2,2,0,2
2.09,1,1,2,2,3,2,1,1
2.095,0,2,2,2,1,1,1,0
2.1,0,0,1,0,2,1,1,0
2.105,0,1,0,1,1,0,1,0
2.11,2,1,3,2,2,3,3,1
2.115,2,2,4,12,6,0,0,2
2.12,1,1,1,1,1,1,2,1
2.125,1,0,1,3,2,2,1,2
2.13,0,1,1,1,1,1,1,0
2.135,0,1,1,3,0,4,3,3
2.14,1,2,0,2,6,4,4,3
2.145,1,3,2,3,2,1,1,0
2.15,1,1,1,0,1,0,3,1
2.155,1,1,2,0,2,1,1,1
2.16,1,2,1,1,0,2,2,4
2.165,1,2,3,4,6,1,0,1
2.17,0,1,0,1,2,3,3,3
2.175,1,1,1,1,3,3,3,0
2.18,1,1,1,4,4,0,1,1
2.185,2,1,3,1,3,1,2,1
2.19,1,1,2,4,3,1,0,1
2.195,0,0,2,4,1,2,1,2
2.2,1,1,1,4,2,2,2,0
2.205,0,1,0,3,1,1,1,2
2.21,0,1,1,5,6,4,3,3
2.215,1,2,1,0,1,0,1,2
2.22,1,0,1,2,0,1,0,0
2.225,1,1,1,0,0,1,1,1
2.23,3,0,0,1,2,5,2,0
2.235,1,0,3,0,2,3,1,0
2.24,1,3,3,5,2,0,0,0
2.245,2,1,1,2,1,2,1,2
2.25,4,2,2,1,1,1,3,3
2.255,1,2,1,4,3,1,2,2
2.26,0,1,0,0,0,1,1,1
2.265,2,0,0,1,2,2,0,2
2.27,2,1,1,4,2,1,2,0
2.275,0,1,2,1,2,0,1,1
2.28,0,2,1,1,0,0,1,1
2.285,2,3,2,2,3,2,0,1
2.29,2,2,2,0,1,3,2,2
2.295,0,0,1,2,0,2,1,2
2.3,2,3,3,9,4,1,2,4
2.305,1,2,1,3,2,2,2,1
2.31,1,0,0,3,1,1,0,1
2.315,0,0,1,2,1,0,0,0
2.32,0,2,0,1,6,3,0,2
2.325,0,3,2,8,4,0,0,2
2.33,2,0,1,1,1,2,0,1
2.335,0,1,1,0,2,5,2,1
2.34,2,1,4,4,1,0,1,1
2.345,2,3,2,0,2,3,1,1
2.35,0,1,2,2,5,2,1,1
2.355,2,1,2,4,5,1,1,3
2.36,1,2,0,0,0,0,0,1
2.365,4,3,2,0,1,3,1,4
2.37,1,0,2,3,1,1,1,1
2.375,3,2,0,3,3,2,2,0
2.38,2,2,3,2,1,0,0,0
2.385,2,1,1,2,3,2,2,2
2.39,3,1,1,3,0,1,1,2
2.395,2,1,1,2,0,1,2,1
2.4,2,2,0,5,2,1,0,2
2.405,0,1,1,2,2,2,3,0
2.41,1,1,2,1,1,0,0,1
2.415,0,0,1,2,1,0,3,1
2.42,1,1,1,0,4,2,1,2
2.425,1,2,1,4,1,1,1,1
2.43,1,2,0,4,3,2,2,2
2.435,0,0,2,0,2,0,1,1
2.44,1,2,2,1,1,2,1,2
2.445,1,2,5,9,2,2,2,0
2.45,1,1,1,2,1,4,2,0
2.455,1,1,0,2,2,1,0,1
2.46,3,1,1,0,1,0,1,2
2.465,0,1,0,0,3,4,2,1
2.47,0,1,1,2,2,0,1,1
2.475,0,0,1,2,5,4,1,0
2.48,1,1,1,3,3,0,2,1
2.485,0,0,0,4,2,1,0,0
2.49,0,1,0,2,4,2,2,2
2.495,2,2,0,1,1,1,1,2
2.5,1,0,1,3,1,2,2,1
2.505,4,0,2,6,1,1,1,1
2.51,0,3,3,4,3,3,2,0
2.515,2,1,1,3,2,1,0,2
2.52,1,0,2,1,1,0,1,2
2.525,2,1,1,0,2,1,3,4
2.53,0,0,2,5,1,5,2,1
2.535,2,3,7,6,0,1,3,3
2.54,0,1,2,2,0,0,0,0
2.545,0,2,3,0,3,0,2,1
2.55,2,2,2,6,2,0,1,1
2.555,0,0,1,3,1,2,0,1
2.56,1,1,2,6,6,6,2,5
2.565,1,1,2,2,3,2,2,0
2.57,1,1,3,3,2,3,2,3
2.575,0,0,0,1,1,0,2,1
2.58,1,2,2,2,1,0,2,1
2.585,1,1,0,1,4,5,1,0
2.59,2,1,3,0,1,2,1,1
2.595,2,1,2,0,5,5,1,2
2.6,0,1,1,2,3,1,1,0
2.605,2,2,9,3,1,1,2,3
2.61,2,1,3,1,1,1,0,5
2.615,2,1,2,2,3,1,0,0
2.62,2,1,4,3,1,1,0,2
2.625,1,2,2,4,7,3,2,0
2.63,2,1,1,0,3,1,0,1
2.635,2,1,7,7,1,2,4,3
2.64,0,1,10,5,1,3,1,2
2.645,0,0,1,0,4,1,0,0
2.65,1,1,2,4,1,0,0,2
2.655,2,1,2,5,3,2,4,1
2.66,0,1,3,2,0,2,0,1
2.665,1,2,1,2,2,1,2,4
2.67,1,1,0,1,0,2,1,2
2.675,3,1,1,1,3,1,1,3
2.68,2,4,6,6,5,6,6,2
2.685,1,1,1,3,0,1,1,1
2.69,3,1,2,2,0,0,0,3
2.695,1,2,4,0,2,0,1,1
2.7,0,1,0,1,2,1,1,0
2.705,0,1,2,4,1,3,0,1
2.71,2,3,2,6,3,3,4,4
2.715,1,1,3,1,0,2,1,1
2.72,2,2,8,7,3,2,1,1
2.725,1,2,0,2,2,0,0,0
2.73,1,2,2,0,1,1,1,1
2.735,2,2,1,5,1,0,2,1
2.74,2,3,5,4,0,4,1,0
2.745,4,1,5,13,5,2,2,2
2.75,1,3,1,2,1,1,1,1
2.755,2,2,2,2,3,3,4,2
2.76,2,3,8,10,0,2,1,2
2.765,0,2,1,3,1,1,0,0
2.77,1,1,2,3,4,2,0,1
2.775,4,2,1,3,0,3,2,3
2.78,2,2,0,1,1,1,1,2
2.785,0,0,2,4,0,2,1,1
2.79,1,2,6,5,8,0,0,0
2.795,0,0,0,2,0,1,1,1
2.8,3,4,0,2,2,0,3,3
2.805,0,2,1,2,1,0,2,1
2.81,1,3,1,1,2,1,0,0
2.815,1,1,4,4,3,2,1,1
2.82,0,1,3,3,1,2,2,0
2.825,1,0,1,1,4,2,2,2
2.83,0,0,2,6,6,0,2,0
2.835,1,2,2,7,6,3,1,0
2.84,1,1,3,3,0,0,0,0
2.845,3,1,7,6,1,0,0,2
2.85,0,2,2,2,5,3,3,2
2.855,1,2,0,8,5,4,3,1
2.86,0,1,0,2,1,2,2,1
2.865,1,1,1,3,2,0,0,0
2.87,2,0,1,5,4,2,0,2
2.875,1,0,1,5,5,2,2,3
2.88,2,0,0,2,0,2,2,1
2.885,3,2,4,6,6,3,3,2
2.89,2,3,2,6,5,3,1,0
2.895,2,2,2,2,2,1,1,0
2.9,1,2,4,6,0,2,0,2
2.905,1,0,5,7,0,0,0,1
2.91,1,0,0,1,3,2,2,1
2.915,1,3,9,8,3,0,2,4
2.92,1,0,4,3,1,0,1,1
2.925,2,1,4,4,4,2,3,2
2.93,1,1,0,7,2,3,2,0
2.935,2,0,4,3,2,2,2,2
2.94,4,2,1,4,5,1,1,1
2.945,1,1,4,4,0,1,0,1
2.95,1,2,3,4,1,2,0,0
2.955,2,1,3,1,4,5,1,1
2.96,1,3,3,5,1,2,2,1
2.965,1,1,1,0,3,1,3,2
2.97,0,1,3,2,1,0,1,1
2.975,2,1,1,6,2,2,0,1
2.98,1,0,1,4,2,2,4,1
2.985,0,0,1,1,1,2,2,0
2.99,3,2,9,9,4,3,4,4
2.995,0,3,2,3,3,3,1,2
3,0,2,3,0,5,4,1,3
3.005,1,2,1,1,2,2,0,1
3.01,0,0,1,7,0,1,2,1
3.015,2,1,0,0,1,2,2,3
3.02,1,2,2,4,0,1,1,2
3.025,1,2,2,2,0,1,2,0
3.03,1,1,4,1,6,3,0,1
3.035,1,1,2,6,4,2,3,2
3.04,2,0,1,4,3,2,1,1
3.045,2,2,2,4,1,1,0,1
3.05,0,1,4,5,6,2,1,0
3.055,2,2,5,11,5,2,1,2
3.06,0,0,2,2,0,3,2,0
3.065,2,1,3,2,4,2,2,0
3.07,2,1,0,0,0,2,1,2
3.075,1,1,1,2,4,1,2,1
3.08,1,2,5,2,0,0,1,0
3.085,1,3,16,9,2,2,1,1
3.09,1,1,1,2,2,2,1,1
3.095,4,0,0,0,1,4,2,3
3.1,1,1,1,0,0,2,0,1
3.105,1,0,2,2,0,0,0,0
3.11,1,3,7,0,0,2,1,0
3.115,1,1,0,2,0,2,1,0
3.12,3,0,1,2,2,1,0,2
3.125,2,3,1,1,3,3,2,1
3.13,2,1,1,0,4,1,1,1
3.135,1,1,0,1,4,2,1,2
3.14,2,2,7,6,1,3,0,3
3.145,0,2,0,2,1,0,3,1
3.15,1,2,4,4,6,5,2,1
3.155,0,0,1,4,1,0,0,1
3.16,1,2,2,10,5,3,3,0
3.165,2,1,1,6,5,5,2,2
3.17,2,0,2,1,0,1,1,1
3.175,2,0,1,4,0,2,1,2
3.18,0,2,3,8,2,0,2,1
3.185,1,0,2,4,4,2,1,5
3.19,0,1,2,2,0,1,1,2
3.195,0,2,3,3,5,2,0,2
3.2,0,2,0,3,0,2,2,2
3.205,1,2,1,1,3,5,1,1
3.21,0,1,2,4,4,3,4,1
3.215,0,1,2,7,0,0,2,3
3.22,3,1,0,2,0,4,2,3
3.225,1,1,3,2,0,3,3,3
3.23,1,1,0,1,2,1,1,1
3.235,0,0,1,1,2,4,2,0
3.24,1,0,0,3,1,1,1,1
3.245,2,2,1,3,4,2,1,3
3.25,0,1,0,6,7,2,2,0
3.255,3,1,2,4,0,2,1,1
3.26,0,1,2,0,0,1,0,1
3.265,4,3,5,3,1,3,1,3
3.27,1,2,4,2,3,1,1,1
3.275,0,1,0,0,6,2,3,1
3.28,0,1,0,4,3,2,2,0
3.285,1,0,8,2,3,2,3,1
3.29,1,3,2,5,1,1,1,3
3.295,1,2,2,4,2,1,4,1
3.3,1,0,0,2,3,3,1,1
3.305,0,1,2,1,1,1,1,0
3.31,0,3,2,6,5,2,4,2
3.315,0,4,4,1,3,2,3,1
3.32,0,1,0,2,2,2,1,2
3.325,4,0,1,6,0,0,2,0
3.33,3,0,0,3,1,2,1,2
3.335,1,1,1,0,2,3,1,2
3.34,0,2,3,2,1,1,3,1
3.345,0,1,1,1,3,4,1,2
3.35,1,3,2,3,3,1,2,1
3.355,0,4,2,7,2,1,1,1
3.36,2,3,7,3,4,6,2,2
3.365,1,2,2,2,1,3,2,0
3.37,2,1,3,10,5,0,2,1
3.375,2,2,4,12,5,2,1,1
3.38,2,2,1,3,1,1,0,2
3.385,1,0,1,3,2,2,0,1
3.39,1,1,0,2,3,2,1,0
3.395,1,2,11,5,2,1,3,1
3.4,2,0,1,0,4,2,2,2
3.405,0,2,0,3,4,1,1,1
3.41,2,1,6,5,2,3,1,3
3.415,2,1,1,3,3,0,2,1
3.42,0,1,2,2,4,2,0,1
3.425,2,1,2,1,1,4,2,1
3.43,0,3,2,4,4,0,1,1
3.435,0,0,2,1,1,3,2,2
3.44,1,3,2,3,4,3,1,2
3.445,0,2,1,4,2,2,0,0
3.45,0,1,9,6,2,3,3,1
3.455,2,0,1,4,2,1,1,1
3.46,0,0,5,0,0,0,0,1
3.465,1,0,1,1,2,2,2,2
3.47,1,1,1,5,1,2,0,1
3.475,2,2,1,1,1,1,1,2
3.48,2,2,0,1,1,3,3,1
3.485,1,2,2,2,4,1,2,2
3.49,1,1,2,3,2,0,2,2
3.495,0,2,4,1,2,1,2,1
3.5,0,1,3,2,2,2,2,1
3.505,1,0,7,7,5,6,3,3
3.51,2,1,1,0,3,1,0,1
3.515,3,0,3,4,1,2,0,1
3.52,1,3,2,5,0,3,1,2
3.525,1,1,2,3,4,1,1,1
3.53,2,1,3,2,2,1,0,1
3.535,0,1,7,5,1,2,1,1
3.54,3,0,1,2,2,0,0,1
3.545,1,1,1,1,1,1,1,1
3.55,2,1,0,2,2,4,4,0
3.555,1,3,3,1,2,2,1,3
3.56,1,1,3,3,3,2,2,1
3.565,2,1,1,2,1,3,0,1
3.57,0,2,3,2,2,2,1,1
3.575,0,1,0,3,2,2,3,3
3.58,1,1,4,2,4,3,3,2
3.585,2,2,1,3,1,0,0,1
3.59,1,2,1,0,5,2,2,3
3.595,1,0,0,2,7,2,1,0
3.6,0,1,0,0,3,1,2,1
3.605,1,1,5,3,1,1,0,2
3.61,1,1,1,1,2,3,1,2
3.615,0,0,0,0,1,0,1,1
3.62,2,1,0,3,1,1,0,1
3.625,2,2,1,3,1,2,2,0
3.63,1,2,1,1,2,0,1,2
3.635,1,1,1,4,1,3,1,0
3.64,2,0,3,2,1,0,2,0
3.645,1,1,2,6,3,1,1,2
3.65,0,1,1,1,3,0,1,0
3.655,2,0,2,1,4,4,2,1
3.66,0,1,1,0,3,1,3,1
3.665,0,1,2,1,2,2,0,1
3.67,1,2,1,4,2,0,0,2
3.675,1,1,2,6,4,2,0,0
3.68,1,2,1,7,6,2,0,0
3.685,3,0,1,4,0,1,2,1
3.69,2,3,4,5,0,0,1,2
3.695,1,1,1,2,4,2,1,2
3.7,1,1,2,2,2,0,2,0
3.705,1,2,0,1,4,4,2,1
3.71,1,1,0,5,1,6,2,1
3.715,0,2,2,7,2,2,2,2
3.72,1,1,1,1,3,2,1,3
3.725,2,1,2,1,0,3,1,1
3.73,1,1,2,1,1,2,1,1
3.735,2,1,1,0,3,1,0,1
3.74,0,2,3,2,2,2,1,1
3.745,1,0,2,1,1,1,0,3
3.75,1,2,0,0,3,0,1,1
3.755,2,1,0,4,1,0,0,1
3.76,1,1,2,8,1,2,2,1
3.765,1,1,4,4,4,1,1,0
3.77,1,1,1,1,1,4,1,0
3.775,1,0,1,2,4,3,1,1
3.78,0,0,0,3,1,2,3,1
3.785,0,3,3,5,2,1,1,1
3.79,2,2,6,2,0,0,1,2
3.795,1,1,1,4,2,2,1,1
3.8,1,2,5,4,4,3,2,2
3.805,1,1,0,2,2,1,0,1
3.81,0,1,0,3,5,2,2,1
3.815,1,1,1,1,1,2,3,3
3.82,2,1,6,8,1,3,1,2
3.825,0,1,0,2,1,2,1,1
3.83,1,2,1,1,1,2,0,1
3.835,2,1,2,6,4,0,0,1
3.84,0,1,2,5,2,1,1,2
3.845,0,3,2,2,3,0,1,1
3.85,1,0,2,1,3,0,0,2
3.855,0,3,1,2,0,4,4,0
3.86,2,1,0,4,0,1,2,2
3.865,1,0,2,1,1,0,0,2
3.87,0,2,2,3,2,2,1,1
3.875,1,0,4,2,0,0,0,1
3.88,1,2,0,2,4,2,3,2
3.885,1,1,2,4,4,5,1,0
3.89,2,0,1,1,3,0,1,1
3.895,0,2,5,6,1,0,0,2
3.9,1,0,0,2,2,2,1,1
3.905,2,1,1,1,5,1,0,1
3.91,1,2,0,1,1,2,3,2
3.915,3,4,7,6,5,2,3,1
3.92,1,0,0,1,2,0,0,0
3.925,1,1,1,3,5,4,1,2
3.93,1,0,0,5,1,1,1,2
3.935,1,1,2,2,1,1,0,1
3.94,1,1,2,1,1,1,0,2
3.945,1,1,1,2,1,1,1,0
3.95,1,1,4,7,2,1,1,0
3.955,1,0,0,6,1,1,0,0
3.96,2,0,1,1,3,3,3,3
3.965,1,0,0,1,5,2,1,2
3.97,1,2,0,1,2,2,1,2
3.975,1,0,2,5,5,1,0,1
3.98,2,2,0,2,2,2,3,3
3.985,0,1,0,5,1,1,1,0
3.99,0,0,2,1,0,2,0,0
3.995,1,2,7,0,2,1,2,0
4,1,1,0,3,3,3,1,1
4.005,1,2,1,2,3,3,0,2
4.01,1,0,2,3,0,2,0,0
4.015,0,1,2,7,5,2,1,2
4.02,1,0,3,5,1,4,3,1
4.025,1,2,2,1,1,1,0,2
4.03,2,0,2,3,3,2,2,1
4.035,2,1,2,1,2,2,2,3
4.04,1,1,3,1,2,1,1,1
4.045,1,1,3,7,1,1,2,1
4.05,1,1,0,5,2,1,0,2
4.055,0,0,3,7,4,1,1,1
4.06,1,1,0,3,0,1,1,1
4.065,2,1,0,6,3,3,0,0
4.07,1,3,3,0,2,3,3,0
4.075,2,1,2,2,1,1,1,1
4.08,0,2,2,2,1,0,1,2
4.085,2,1,1,5,1,0,1,1
4.09,0,2,2,7,6,3,2,1
4.095,0,1,4,3,0,3,3,1
4.1,0,1,1,2,3,1,1,1
4.105,1,2,1,1,3,3,1,3
4.11,2,1,1,4,3,4,3,1
4.115,2,1,3,5,1,1,1,0
4.12,3,0,3,6,1,1,1,1
4.125,1,1,4,2,3,4,2,0
4.13,2,1,4,4,2,1,1,1
4.135,0,0,0,2,1,3,4,2
4.14,0,1,1,4,2,0,0,0
4.145,3,1,2,3,1,1,2,1
4.15,1,2,4,6,1,1,2,0
4.155,0,2,1,1,1,3,0,1
4.16,0,0,1,3,2,0,1,1
4.165,2,1,0,1,1,2,2,1
4.17,0,0,0,1,4,4,1,2
4.175,2,3,1,0,1,1,1,1
4.18,1,3,1,5,3,0,2,2
4.185,0,1,4,8,1,1,1,0
4.19,1,2,0,3,4,0,1,2
4.195,2,1,4,3,5,1,2,1
4.2,3,0,4,3,1,1,0,1
4.205,2,1,1,2,4,2,3,1
4.21,0,1,2,2,2,1,1,1
4.215,1,1,6,4,1,1,0,3
4.22,2,2,5,5,0,1,3,2
4.225,0,1,1,1,1,2,3,0
4.23,1,0,0,0,0,1,2,3
4.235,1,3,3,2,1,0,0,1
4.24,0,1,1,4,0,3,2,4
4.245,1,2,1,1,3,0,1,2
4.25,0,0,0,3,2,1,3,0
4.255,3,2,5,5,0,0,0,2
4.26,2,0,0,5,1,1,1,1
4.265,1,4,1,2,3,1,1,2
4.27,2,1,0,4,1,2,4,2
4.275,1,1,2,1,2,0,0,0
4.28,2,1,1,0,2,2,2,2
4.285,2,2,1,2,0,1,1,0
4.29,3,1,1,1,2,1,0,0
4.295,0,0,7,5,1,2,2,0
4.3,3,0,1,3,3,2,2,2
4.305,0,0,0,2,3,2,2,2
4.31,1,2,1,3,2,1,1,1
4.315,0,0,0,6,3,2,1,1
4.32,0,2,1,1,0,0,2,1
4.325,1,0,1,0,1,1,1,1
4.33,3,0,1,2,1,1,0,1
4.335,0,1,1,1,2,2,2,0
4.34,1,0,0,1,1,3,2,0
4.345,1,2,2,4,7,1,1,1
4.35,1,2,1,4,3,0,1,0
4.355,3,0,0,3,2,3,4,2
4.36,1,1,3,0,0,4,2,0
4.365,0,1,3,1,0,1,0,1
4.37,0,1,1,2,0,5,4,1
4.375,3,3,0,2,3,3,1,1
4.38,0,1,3,3,0,2,3,2
4.385,3,0,3,1,2,3,3,2
4.39,2,1,5,6,2,0,1,1
4.395,1,2,0,2,1,1,0,3
4.4,0,0,1,1,0,1,0,2
4.405,2,3,1,7,6,2,1,0
4.41,1,2,2,0,1,3,2,2
4.415,1,1,0,3,1,1,1,0
4.42,2,1,0,0,2,0,1,1
4.425,2,1,5,3,2,1,4,3
4.43,1,2,0,2,6,5,3,1
4.435,1,2,1,3,4,1,2,2
4.44,1,1,1,3,3,1,1,1
4.445,1,0,0,1,2,0,2,1
4.45,0,2,0,3,0,1,1,2
4.455,1,0,4,5,2,2,1,2
4.46,1,2,1,3,3,1,1,0
4.465,0,1,2,1,0,2,0,1
4.47,2,2,0,3,2,3,3,3
4.475,1,0,1,0,1,1,2,1
4.48,1,2,1,2,1,0,2,1
4.485,2,1,1,1,0,2,2,1
4.49,0,0,1,0,1,1,1,1
4.495,0,1,2,3,1,0,2,1
4.5,3,2,3,7,5,2,3,3
4.505,0,2,0,3,1,2,2,3
4.51,1,1,1,4,2,2,1,2
4.515,1,3,2,7,1,1,0,2
4.52,2,0,1,1,0,1,0,0
4.525,1,0,1,0,2,1,2,2
4.53,3,1,0,1,6,2,1,0
4.535,1,1,0,2,4,3,1,0
4.54,0,2,7,4,0,0,1,1
4.545,1,0,1,2,1,0,1,0
4.55,0,1,3,3,3,2,2,1
4.555,0,1,2,4,1,1,2,0
4.56,0,1,1,0,5,2,2,2
4.565,0,2,2,2,2,3,1,3
4.57,2,2,0,1,2,2,0,2
4.575,3,1,2,2,3,2,1,0
4.58,1,2,1,7,2,1,1,1
4.585,2,0,8,6,5,3,2,2
4.59,2,4,2,4,2,4,4,2
4.595,1,1,1,0,0,0,0,1
4.6,2,0,2,5,2,1,1,2
4.605,0,2,1,2,2,1,2,0
4.61,0,2,1,7,4,3,1,0
4.615,1,0,2,0,4,1,2,2
4.62,2,1,0,0,3,4,1,1
4.625,0,1,1,3,4,0,2,0
4.63,2,0,3,0,3,3,2,1
4.635,0,1,1,0,3,2,1,1
4.64,2,2,1,2,2,0,1,1
4.645,1,0,2,1,3,1,0,1
4.65,0,2,3,3,1,2,0,0
4.655,2,3,1,3,1,1,0,2
4.66,3,0,1,2,4,3,3,2
4.665,1,0,0,7,3,3,1,0
4.67,0,1,0,7,7,0,2,3
4.675,1,1,1,3,5,2,0,0
4.68,2,0,1,1,3,2,3,2
4.685,2,0,0,2,1,0,1,2
4.69,2,4,2,3,5,0,2,1
4.695,1,1,1,1,3,3,2,0
4.7,1,2,1,5,0,0,1,1
4.705,2,0,1,2,1,1,0,2
4.71,0,0,1,2,2,1,1,1
4.715,1,2,2,1,0,1,1,1
4.72,1,3,1,1,0,1,1,1
4.725,2,2,0,2,2,2,2,1
4.73,3,1,3,6,1,2,1,1
4.735,1,1,2,1,2,2,1,1
4.74,2,1,1,3,3,3,1,3
4.745,1,0,4,6,3,1,2,1
4.75,1,0,1,1,1,1,0,0
4.755,1,2,0,0,1,1,2,1
4.76,1,0,0,2,0,1,0,0
4.765,2,1,6,3,1,1,1,3
4.77,1,1,5,4,5,4,2,1
4.775,1,1,1,4,4,1,1,0
4.78,1,2,1,2,1,1,1,2
4.785,1,1,0,0,3,3,0,2
4.79,2,2,0,1,1,0,1,1
4.795,1,3,2,2,3,2,3,4
4.8,1,0,2,1,2,3,2,1
4.805,1,3,3,2,1,2,0,1
4.81,2,0,1,2,0,3,1,0
4.815,3,2,1,2,0,0,0,0
4.82,0,0,0,1,0,3,1,1
4.825,1,1,3,3,3,1,2,3
4.83,1,2,1,2,0,2,0,1
4.835,1,0,1,1,1,2,0,1
4.84,2,1,2,1,0,1,0,1
4.845,1,2,2,1,2,2,1,3
4.85,2,1,2,4,5,4,2,4
4.855,1,1,2,6,4,3,1,0
4.86,1,1,2,3,1,3,2,2
4.865,2,0,3,1,2,2,2,0
4.87,3,0,1,0,3,1,1,1
4.875,1,2,0,3,0,1,1,1
4.88,0,1,0,1,1,2,1,2
4.885,2,2,2,4,3,1,2,1
4.89,0,2,2,1,3,1,1,1
4.895,1,1,0,2,1,0,1,3
4.9,2,2,1,4,0,0,1,1
4.905,1,1,0,0,1,2,1,1
4.91,1,0,1,5,2,2,4,0
4.915,1,0,1,1,2,4,1,2
4.92,0,3,1,3,1,2,2,1
4.925,1,0,3,2,1,1,1,0
4.93,0,2,0,1,2,0,2,1
4.935,1,2,2,4,2,2,2,1
4.94,2,2,2,1,5,2,3,3
4.945,2,3,1,0,2,2,0,0
4.95,0,1,0,2,1,2,1,1
4.955,0,0,0,0,0,3,2,2
4.96,3,3,12,8,4,3,2,3
4.965,2,2,1,1,3,0,0,2
4.97,0,1,3,2,2,1,1,1
4.975,2,2,2,2,1,1,1,1
4.98,1,1,2,3,6,1,1,0
4.985,2,1,6,4,3,3,2,1
4.99,2,1,0,1,2,1,2,2
4.995,1,1,1,1,0,1,1,0
5,1,2,3,0,1,3,1,2
5.005,0,1,1,2,2,2,0,0
5.01,2,1,3,1,0,3,1,4
5.015,0,2,3,2,1,2,1,1
5.02,1,0,1,0,2,3,2,3
5.025,1,0,1,1,3,3,1,0
5.03,2,1,3,3,2,1,0,0
5.035,2,2,1,3,1,2,0,1
5.04,1,0,1,1,4,2,2,1
5.045,1,2,1,0,3,3,3,1
5.05,2,2,2,1,2,2,2,0
5.055,0,1,3,4,2,1,3,1
5.06,1,1,3,8,2,0,0,0
5.065,1,1,2,4,1,2,3,3
5.07,2,2,1,4,2,1,2,1
5.075,0,1,3,1,2,1,0,1
5.08,2,0,2,3,1,1,1,1
5.085,2,1,2,0,3,2,2,0
5.09,0,1,4,2,1,1,1,1
5.095,2,1,3,0,1,1,2,0
5.1,1,1,1,3,1,3,2,1
5.105,0,2,0,1,0,2,1,1
5.11,0,2,1,0,2,0,0,1
5.115,2,0,1,1,2,2,2,1
5.12,1,1,2,2,0,4,0,0
5.125,1,2,0,0,3,5,4,1
5.13,1,2,3,5,6,2,2,2
5.135,1,1,3,1,1,2,1,2
5.14,2,1,3,4,1,4,1,0
5.145,1,1,0,0,2,2,0,1
5.15,1,2,2,3,1,2,1,4
5.155,0,2,2,1,3,2,1,1
5.16,2,2,2,3,1,1,0,0
5.165,1,0,1,0,1,5,1,1
5.17,1,0,1,4,2,2,1,0
5.175,3,1,1,2,0,2,4,1
5.18,1,2,1,3,1,2,1,1
5.185,2,1,1,3,4,3,2,3
5.19,1,1,1,3,1,0,1,2
5.195,2,1,3,3,4,1,3,2
5.2,0,1,2,1,3,5,3,1
5.205,1,0,2,4,1,0,2,1
5.21,3,1,0,4,1,0,1,1
5.215,2,2,2,8,4,3,0,0
5.22,1,3,1,0,2,1,1,3
5.225,1,1,1,3,4,1,0,1
5.23,1,0,3,2,3,1,2,1
5.235,1,3,0,1,1,0,1,1
5.24,2,2,2,1,1,2,2,1
5.245,0,1,1,1,0,3,1,1
5.25,1,1,1,1,1,0,2,0
5.255,0,0,1,1,0,1,1,1
5.26,1,2,1,1,1,1,0,1
5.265,2,1,1,6,2,0,2,2
5.27,2,1,1,1,2,4,1,3
5.275,2,0,1,2,0,1,2,0
5.28,0,0,2,2,1,2,4,2
5.285,0,0,2,3,8,4,0,1
5.29,1,0,1,2,0,1,1,2
5.295,1,3,1,1,1,1,1,3
5.3,0,0,2,0,1,1,1,2
5.305,0,3,1,2,1,1,3,1
5.31,0,2,2,2,4,1,1,1
5.315,1,0,0,2,0,0,1,1
5.32,1,1,0,2,1,1,0,0
5.325,1,2,1,3,0,3,2,3
5.33,2,3,3,0,3,0,1,0
5.335,1,0,4,5,1,3,0,2
5.34,0,1,0,3,0,0,1,0
5.345,2,2,2,3,3,0,0,0
5.35,2,1,0,1,1,3,1,0
5.355,0,1,1,6,3,1,1,2
5.36,1,2,2,2,2,2,3,0
5.365,1,0,1,2,1,1,2,3
5.37,0,3,0,1,1,0,1,3
5.375,1,1,1,3,1,1,2,1
5.38,1,4,4,1,5,0,2,0
5.385,1,1,0,0,1,2,1,0
5.39,1,1,2,2,3,0,2,1
5.395,2,3,2,3,3,1,3,0
5.4,1,0,1,1,1,4,1,1
5.405,3,2,3,4,1,2,0,0
5.41,1,0,2,7,3,3,2,3
5.415,2,0,1,1,2,3,1,2
5.42,2,1,0,1,3,3,2,1
5.425,0,1,0,4,4,1,0,0
5.43,0,0,1,3,1,1,0,1
5.435,0,1,0,1,1,1,1,3
5.44,3,1,3,3,2,1,2,2
5.445,2,2,1,1,4,3,1,1
5.45,1,3,1,1,3,3,3,1
5.455,0,1,1,1,1,0,1,1
5.46,1,1,1,3,1,1,1,1
5.465,2,2,1,3,3,2,3,2
5.47,2,3,2,1,0,1,2,0
5.475,2,2,1,3,1,2,0,3
5.48,2,1,1,4,1,2,2,2
5.485,0,1,1,1,0,1,1,0
5.49,1,1,0,1,1,1,1,0
5.495,2,1,0,2,3,0,2,2
5.5,1,1,0,0,2,5,3,1
5.505,2,1,0,4,4,2,0,0
5.51,3,1,1,1,1,1,0,1
5.515,0,3,4,2,3,4,0,1
5.52,0,2,2,1,2,3,4,1
5.525,1,1,2,3,0,1,1,0
5.53,0,1,0,1,0,0,2,2
5.535,2,2,1,2,1,0,1,0
5.54,1,1,2,7,3,2,3,1
5.545,1,2,0,2,0,3,1,1
5.55,1,1,4,8,4,3,1,2
5.555,2,1,1,1,1,0,3,2
5.56,2,1,1,2,4,2,0,2
5.565,3,2,0,0,2,1,0,1
5.57,1,1,1,3,3,1,4,1
5.575,1,1,2,2,1,3,4,0
5.58,1,1,1,1,2,1,2,1
5.585,2,2,1,2,2,1,0,1
5.59,0,1,1,3,1,0,2,1
5.595,1,0,1,1,1,1,1,1
5.6,2,1,2,1,3,3,2,4
5.605,2,2,2,6,7,2,2,4
5.61,2,1,1,6,4,1,1,1
5.615,1,1,2,5,2,2,1,1
5.62,3,1,1,4,2,2,1,2
5.625,1,0,1,4,3,3,0,1
5.63,1,2,1,1,1,3,1,0
5.635,1,1,1,3,2,1,1,1
5.64,0,1,0,1,1,2,2,1
5.645,0,3,2,1,0,0,1,0
5.65,0,3,1,2,1,1,2,0
5.655,0,1,3,4,3,0,1,1
5.66,0,1,2,3,3,1,0,3
5.665,1,0,0,2,0,3,2,1
5.67,0,1,0,3,3,2,2,0
5.675,2,2,1,2,2,1,0,1
5.68,1,2,2,5,2,1,1,2
5.685,3,0,0,2,2,2,0,0
5.69,1,0,5,4,1,0,0,0
5.695,2,2,1,1,0,2,2,3
5.7,2,0,1,1,2,1,1,1
5.705,1,1,1,3,0,2,0,2
5.71,1,0,0,1,3,0,1,2
5.715,2,0,3,5,2,1,2,3
5.72,2,0,2,3,2,0,2,1
5.725,2,1,1,3,1,4,2,0
5.73,0,1,0,1,1,3,1,1
5.735,0,2,2,2,3,2,1,0
5.74,1,1,0,1,2,0,1,2
5.745,0,2,1,3,4,1,1,2
5.75,2,0,1,0,1,1,2,2
5.755,0,1,2,4,4,0,1,1
5.76,2,2,2,2,1,1,1,0
5.765,0,2,1,3,0,2,3,2
5.77,2,1,2,0,2,0,0,2
5.775,0,3,1,1,2,2,4,1
5.78,1,0,0,1,1,2,1,1
5.785,0,1,5,1,1,2,3,1
5.79,2,1,1,3,1,2,1,2
5.795,1,0,0,1,3,1,1,0
5.8,0,2,1,2,4,2,3,1
5.805,0,1,0,3,2,1,0,0
5.81,3,3,0,4,0,2,3,1
5.815,0,0,1,0,3,1,0,1
5.82,1,1,3,8,3,0,1,3
5.825,1,0,0,1,1,0,1,1
5.83,1,2,2,1,2,2,1,0
5.835,2,1,1,1,2,2,3,1
5.84,0,0,2,0,1,1,1,0
5.845,0,1,1,1,2,2,2,1
5.85,1,2,1,2,2,0,1,2
5.855,0,1,0,2,1,3,1,2
5.86,2,2,1,1,1,0,1,0
5.865,1,2,3,9,0,2,2,1
5.87,2,1,1,0,2,2,0,2
5.875,1,1,2,3,1,3,3,2
5.88,1,1,0,0,0,3,1,2
5.885,2,2,0,2,2,0,0,1
5.89,1,0,3,1,2,2,0,0
5.895,1,2,2,0,2,1,1,1
5.9,0,1,2,0,3,2,1,2
5.905,3,2,3,7,7,5,4,4
5.91,0,0,1,1,5,5,2,0
5.915,2,1,1,1,1,3,1,0
5.92,0,1,0,4,1,1,0,0
5.925,2,0,1,2,1,2,0,0
5.93,1,4,2,5,5,4,4,1
5.935,0,0,2,2,1,0,0,3
5.94,1,2,2,2,2,0,1,1
5.945,1,1,1,2,0,0,1,2
5.95,2,1,1,0,2,5,3,2
5.955,1,0,0,3,0,0,2,1
5.96,2,2,1,1,0,2,2,0
5.965,0,0,1,2,0,0,0,1
5.97,0,1,2,3,3,1,2,0
5.975,1,3,4,3,2,2,1,2
5.98,0,1,1,3,3,2,0,1
5.985,0,1,0,1,1,5,3,1
5.99,1,2,2,5,2,0,0,1
5.995,1,0,1,1,2,1,1,2
6,1,1,2,2,2,2,2,2
6.005,2,1,1,0,1,1,1,2
6.01,2,3,4,6,7,0,2,4
6.015,1,2,1,1,1,2,1,1
6.02,1,1,0,1,1,2,1,1
6.025,1,0,1,1,1,1,3,1
6.03,2,1,1,5,2,2,1,1
6.035,3,1,1,4,5,1,2,2
6.04,1,0,1,1,0,1,1,2
6.045,1,2,0,3,2,1,1,1
6.05,0,1,0,1,1,3,0,1
6.055,3,1,2,1,3,2,1,1
6.06,2,2,1,3,1,3,2,0
6.065,2,2,2,6,3,3,1,1
6.07,1,1,3,0,0,2,4,4
6.075,0,1,2,1,1,0,2,1
6.08,1,1,1,0,1,2,0,1
6.085,2,1,1,1,1,0,1,1
6.09,1,1,1,0,3,1,2,1
6.095,3,2,2,4,2,3,1,4
6.1,2,1,0,2,3,1,2,1
6.105,1,0,1,3,3,4,2,1
6.11,0,0,2,3,0,0,1,1
6.115,1,1,2,3,3,2,0,1
6.12,3,1,1,1,1,1,1,1
6.125,2,0,0,5,2,1,2,0
6.13,0,1,1,2,0,1,3,2
6.135,0,1,3,5,1,1,0,0
6.14,1,0,2,4,0,0,3,2
6.145,0,1,2,7,1,1,1,2
6.15,1,0,0,0,1,3,2,2
6.155,2,1,0,0,2,2,1,1
6.16,1,2,0,1,3,0,1,0
6.165,0,2,3,0,2,0,0,1
6.17,2,1,0,5,2,1,0,2
6.175,1,1,2,0,1,2,2,3
6.18,1,1,2,2,3,2,1,1
6.185,1,0,1,1,1,0,1,1
6.19,2,2,2,0,3,0,1,0
6.195,0,1,1,0,1,1,1,1
6.2,1,3,1,4,5,5,1,3
6.205,1,1,1,2,4,1,2,1
6.21,2,0,1,3,1,2,2,2
6.215,3,1,0,1,5,3,2,1
6.22,0,1,1,1,1,3,1,0
6.225,1,0,1,3,1,1,2,1
6.23,2,3,4,4,6,1,3,3
6.235,2,2,1,3,3,3,2,1
6.24,2,3,1,2,0,3,4,2
6.245,1,2,3,10,6,2,1,0
6.25,1,0,0,0,0,1,0,0
6.255,0,1,0,0,2,3,0,0
6.26,0,2,2,3,4,1,2,1
6.265,3,3,2,0,1,2,2,2
6.27,1,1,0,0,2,1,2,0
6.275,0,0,0,4,3,3,2,2
6.28,1,0,1,0,0,0,2,0
6.285,1,3,1,0,1,1,1,1
6.29,1,0,0,0,1,1,0,1
6.295,1,0,1,2,2,0,0,0
6.3,2,1,0,1,1,2,1,0
6.305,1,1,1,1,2,4,2,1
6.31,1,1,2,1,0,1,1,2
6.315,1,0,2,1,2,1,0,0
6.32,2,1,2,2,1,2,1,1
6.325,1,1,0,0,1,1,3,0
6.33,1,0,3,3,4,4,1,1
6.335,2,4,2,3,3,2,2,2
6.34,1,2,1,2,2,3,2,2
6.345,2,2,2,2,4,0,2,1
6.35,0,3,0,0,2,4,0,1
6.355,2,2,1,2,3,3,2,1
6.36,1,0,2,2,2,2,2,0
6.365,1,1,1,3,3,0,1,1
6.37,2,2,1,10,2,2,1,0
6.375,0,1,1,1,0,0,1,1
6.38,1,2,0,5,3,3,3,1
6.385,1,1,0,1,1,1,2,1
6.39,2,0,1,3,1,2,1,0
6.395,0,1,1,1,3,4,1,1
6.4,2,1,2,1,3,1,0,0
6.405,0,1,2,1,1,3,1,0
6.41,0,2,2,0,1,1,1,1
6.415,0,0,1,3,2,2,2,0
6.42,0,2,1,2,1,1,1,0
6.425,0,1,0,1,1,2,1,3
6.43,1,3,1,0,3,2,1,1
6.435,1,0,2,2,2,1,1,2
6.44,2,1,1,1,1,0,0,1
6.445,1,2,1,2,2,2,1,2
6.45,2,0,1,3,3,2,2,1
6.455,1,2,2,7,2,1,1,1
6.46,1,1,1,1,2,0,1,1
6.465,2,1,2,1,1,3,1,4
6.47,3,2,0,2,2,3,0,3
6.475,2,2,2,2,1,3,3,1
6.48,0,3,1,0,5,3,1,2
6.485,0,2,2,3,1,1,0,2
6.49,1,0,1,0,3,1,1,1
6.495,1,1,0,1,3,1,1,2
6.5,1,1,2,2,1,2,4,1
6.505,3,1,1,1,5,5,5,0
6.51,0,2,0,5,0,1,1,1
6.515,3,1,2,4,2,4,2,2
6.52,1,3,1,1,2,0,1,1
6.525,0,3,0,7,1,1,1,3
6.53,2,0,3,3,2,3,0,1
6.535,1,0,1,1,5,3,2,1
6.54,4,0,1,2,3,0,3,0
6.545,1,2,4,6,6,2,0,1
6.55,1,1,0,2,1,1,1,0
6.555,1,2,2,1,2,1,0,0
6.56,2,3,0,2,1,3,1,1
6.565,0,0,1,3,2,2,1,3
6.57,1,2,2,7,2,0,1,0
6.575,2,1,2,4,1,1,2,2
6.58,0,0,1,1,4,0,0,1
6.585,0,0,2,2,2,3,2,1
6.59,1,1,1,1,3,1,1,1
6.595,4,0,0,0,2,0,2,2
6.6,2,0,0,3,3,3,0,2
6.605,1,0,1,1,1,1,1,1
6.61,2,2,1,1,1,1,2,2
6.615,1,1,4,6,3,0,1,2
6.62,1,1,3,4,2,1,2,1
6.625,1,3,1,1,1,0,0,1
6.63,1,1,0,5,1,2,1,1
6.635,1,2,1,0,2,2,1,1
6.64,1,2,0,1,3,2,0,0
6.645,2,2,1,3,4,2,0,2
6.65,2,1,1,2,2,2,2,3
6.655,3,3,1,4,0,1,0,1
6.66,2,4,1,5,2,3,2,1
6.665,1,2,2,2,0,3,2,1
6.67,2,1,1,3,2,2,2,2
6.675,0,1,1,1,3,1,0,2
6.68,2,0,0,1,0,2,0,1
6.685,1,0,1,1,4,3,3,0
6.69,0,0,2,0,2,2,1,1
6.695,1,1,2,1,3,4,0,1
6.7,2,1,1,1,1,1,2,3
6.705,0,1,4,6,1,2,0,1
6.71,2,1,2,1,1,1,0,2
6.715,0,2,0,1,1,3,2,1
6.72,1,1,1,3,1,0,0,1
6.725,2,0,1,2,1,0,2,1
6.73,0,2,2,2,1,1,1,0
6.735,1,2,2,5,5,1,0,0
6.74,0,1,1,0,1,3,1,2
6.745,0,1,1,5,0,1,1,1
6.75,1,0,3,7,1,1,2,0
6.755,1,2,1,1,0,1,1,0
6.76,1,1,2,2,3,1,1,1
6.765,1,0,0,0,1,2,2,0
6.77,1,2,3,0,4,0,3,3
6.775,0,1,1,1,3,5,2,3
6.78,0,2,1,1,0,1,1,1
6.785,2,2,1,1,1,1,2,2
6.79,2,0,2,6,8,3,2,1
6.795,1,2,3,0,0,0,0,0
6.8,1,0,0,0,1,1,1,1
6.805,1,1,0,2,0,0,1,0
6.81,2,2,2,0,2,3,3,1
6.815,1,2,1,1,3,3,1,2
6.82,0,1,2,4,3,2,3,2
6.825,0,2,2,12,5,1,2,1
6.83,1,1,1,2,2,0,2,0
6.835,2,2,2,3,0,0,1,2
6.84,2,1,1,2,0,1,0,1
6.845,0,2,1,3,1,0,0,2
6.85,1,1,2,1,0,1,1,0
6.855,1,0,1,2,2,2,3,0
6.86,1,1,1,1,2,1,2,1
6.865,1,2,1,1,1,0,1,2
6.87,1,1,1,1,1,2,3,0
6.875,0,0,1,1,2,3,1,2
6.88,1,1,1,2,1,1,1,1
6.885,2,1,1,1,0,3,3,0
6.89,1,0,1,0,1,1,1,0
6.895,2,1,4,3,2,4,4,2
6.9,0,1,0,0,1,1,2,0
6.905,0,1,3,7,3,4,1,2
6.91,0,2,1,3,1,0,0,0
6.915,2,2,1,1,1,2,2,2
6.92,1,3,2,1,0,0,3,0
6.925,0,1,1,4,4,1,2,2
6.93,1,2,1,2,0,2,2,2
6.935,0,2,1,3,2,0,0,1
6.94,1,1,1,2,1,2,0,0
6.945,2,0,0,1,0,0,0,2
6.95,1,1,1,2,4,3,1,2
6.955,1,0,2,2,4,2,2,3
6.96,2,1,1,2,1,1,0,1
6.965,0,1,0,1,1,2,2,1
6.97,0,0,3,3,3,4,1,0
6.975,1,2,1,4,0,0,1,1
6.98,1,2,3,3,4,2,0,3
6.985,1,1,1,1,1,3,2,1
6.99,1,1,1,4,1,2,2,2
6.995,0,2,0,1,3,1,2,0
7,1,0,1,0,2,2,0,1
7.005,2,1,1,0,2,3,1,0
7.01,2,2,1,4,0,3,2,2
7.015,2,0,2,4,4,1,2,2
7.02,1,2,2,1,1,0,3,2
7.025,3,1,2,2,2,4,2,2
7.03,0,0,1,2,1,2,2,1
7.035,0,2,2,1,1,0,1,1
7.04,2,2,0,1,5,2,0,3
7.045,1,1,3,1,1,1,2,0
7.05,1,0,1,0,2,1,0,1
7.055,1,0,1,1,2,2,2,1
7.06,0,1,2,5,3,3,0,0
7.065,1,2,1,0,0,1,1,0
7.07,2,1,1,1,0,1,1,3
7.075,2,1,0,4,3,1,1,1
7.08,1,2,1,0,1,3,1,2
7.085,2,0,3,4,1,3,0,1
7.09,2,2,1,1,2,2,3,3
7.095,3,0,1,1,2,0,1,0
7.1,1,2,0,2,2,1,1,1
7.105,0,1,1,1,0,3,0,1
7.11,1,2,1,1,2,1,2,1
7.115,2,1,2,1,1,0,1,3
7.12,0,1,1,2,3,5,0,1
7.125,0,2,1,5,0,2,1,2
7.13,3,2,2,8,3,1,2,1
7.135,1,0,2,2,1,1,1,2
7.14,2,0,2,0,0,2,1,0
7.145,2,0,0,1,3,1,2,2
7.15,1,2,2,0,1,2,1,1
7.155,0,2,0,1,1,0,0,1
7.16,0,1,1,1,3,1,2,1
7.165,3,2,2,5,5,2,2,3
7.17,0,0,0,4,2,2,0,1
7.175,2,1,0,3,0,4,1,1
7.18,1,1,2,0,2,1,2,2
7.185,1,1,3,2,0,0,1,1
7.19,1,1,0,0,3,2,3,2
7.195,1,2,3,1,1,3,2,0
7.2,2,1,0,0,1,1,0,2
7.205,1,2,1,2,0,0,2,0
7.21,1,2,1,4,2,1,1,1
7.215,0,1,2,8,6,2,4,4
7.22,3,4,3,3,2,1,3,1
7.225,1,0,0,0,3,5,2,0
7.23,2,2,1,5,4,1,1,0
7.235,0,1,0,1,2,2,1,1
7.24,1,1,1,0,0,1,2,4
7.245,1,1,1,3,1,2,0,1
7.25,2,2,4,8,5,2,3,0
7.255,2,0,3,0,2,0,1,2
7.26,2,1,1,1,4,1,2,1
7.265,1,2,2,2,1,0,1,2
7.27,1,0,1,1,1,4,1,2
7.275,0,1,2,1,1,1,1,1
7.28,1,2,0,2,1,2,2,1
7.285,0,3,2,5,1,2,2,1
7.29,1,3,5,9,6,2,1,1
7.295,0,4,2,2,1,2,3,1
7.3,1,0,1,1,3,1,0,0
7.305,2,2,2,2,3,0,3,2
7.31,1,2,0,3,1,0,2,2
7.315,2,1,1,1,1,1,0,2
7.32,2,1,1,0,3,2,0,1
7.325,1,1,2,5,1,3,1,1
7.33,1,0,1,0,1,0,0,0
7.335,2,2,0,1,0,0,1,0
7.34,1,1,1,1,3,0,0,2
7.345,0,1,2,6,1,3,2,2
7.35,1,3,0,4,1,3,1,1
7.355,1,1,1,1,1,0,0,0
7.36,1,2,2,3,3,1,1,1
7.365,2,0,1,0,1,5,3,2
7.37,0,1,0,2,1,1,0,1
7.375,1,1,2,0,4,3,2,1
7.38,1,2,3,0,0,2,2,1
7.385,0,1,0,3,1,3,3,0
7.39,2,1,1,2,1,0,0,2
7.395,1,2,1,0,1,1,1,0
7.4,0,1,2,2,3,4,1,2
7.405,2,3,3,6,2,2,0,0
7.41,2,2,0,4,2,2,3,2
7.415,0,3,0,2,1,2,0,0
7.42,0,2,0,2,0,1,2,1
7.425,2,0,1,1,2,0,2,2
7.43,2,2,0,0,0,2,2,0
7.435,2,2,1,0,0,1,1,2
7.44,1,1,0,1,1,2,0,1
7.445,1,1,2,4,2,2,0,0
7.45,1,0,1,3,2,4,1,2
7.455,3,2,2,1,4,5,0,1
7.46,3,2,2,1,3,0,0,1
7.465,1,2,2,2,3,4,0,0
7.47,1,1,0,5,6,6,0,1
7.475,1,2,0,1,3,4,3,1
7.48,2,0,4,7,1,0,1,2
7.485,1,1,0,3,1,1,2,2
7.49,3,1,1,0,0,0,2,3
7.495,0,0,0,1,2,1,0,0
7.5,1,0,2,6,3,4,3,1
7.505,1,1,1,6,4,0,0,1
7.51,1,2,2,1,4,2,2,2
7.515,1,0,3,2,2,1,1,0
7.52,1,2,1,1,0,4,1,2
7.525,1,0,2,3,4,3,1,1
7.53,1,2,2,3,4,0,2,1
7.535,0,1,1,4,1,1,3,1
7.54,2,4,1,1,5,3,3,2
7.545,2,2,1,4,5,1,0,1
7.55,1,1,2,3,1,3,0,0
7.555,1,2,1,3,0,2,0,3
7.56,1,2,3,13,8,2,2,3
7.565,1,2,2,4,2,1,1,3
7.57,1,2,1,0,1,1,0,0
7.575,0,1,2,4,1,1,1,0
7.58,1,1,1,3,1,0,0,2
7.585,1,0,3,2,5,0,2,1
7.59,1,1,1,2,3,3,3,2
7.595,2,2,1,4,5,2,3,0
7.6,1,1,1,1,3,1,0,1
7.605,1,1,0,1,4,0,1,2
7.61,2,3,1,1,1,0,0,2
7.615,3,2,1,1,1,1,0,1
7.62,1,1,3,0,2,2,2,2
7.625,3,1,2,3,2,0,0,1
7.63,0,1,0,4,4,4,2,2
7.635,1,0,1,9,1,1,1,2
7.64,1,1,2,2,1,3,0,0
7.645,0,1,0,2,1,2,1,2
7.65,1,2,1,4,4,3,3,2
7.655,0,1,2,0,2,1,1,0
7.66,0,1,1,3,3,1,0,1
7.665,0,2,3,3,1,2,2,0
7.67,2,1,3,3,1,1,1,1
7.675,1,0,1,0,1,0,0,1
7.68,1,0,3,1,0,2,0,2
7.685,3,2,1,2,1,2,3,2
7.69,2,2,2,5,3,1,1,1
7.695,1,1,2,2,0,1,0,0
7.7,1,2,0,2,5,1,0,0
7.705,0,1,2,5,2,3,2,1
7.71,0,0,3,2,0,2,0,1
7.715,0,1,1,0,0,5,1,2
7.72,2,1,1,2,6,1,1,1
7.725,1,0,1,2,2,1,1,0
7.73,2,0,1,1,0,1,2,1
7.735,0,0,2,3,4,0,1,0
7.74,1,0,1,1,1,2,1,0
7.745,1,1,2,1,4,1,1,2
7.75,1,2,2,2,0,5,1,1
7.755,1,2,3,3,2,3,0,0
7.76,2,3,3,4,6,4,1,1
7.765,1,1,0,1,1,0,1,0
7.77,2,2,0,3,0,1,1,1
7.775,2,1,0,3,1,2,3,1
7.78,0,0,2,7,1,2,2,1
7.785,0,1,1,1,1,2,2,1
7.79,0,2,1,1,5,1,2,0
7.795,2,0,0,0,1,0,1,1
7.8,2,1,1,3,2,2,1,1
7.805,1,0,0,1,1,1,2,1
7.81,0,0,0,2,1,3,1,2
7.815,2,1,3,5,4,1,3,4
7.82,0,0,1,1,0,1,0,3
7.825,0,2,1,0,2,1,2,0
7.83,1,0,1,0,0,3,0,1
7.835,3,2,3,0,1,3,0,1
7.84,2,0,0,0,2,4,2,1
7.845,0,2,1,6,3,0,1,0
7.85,1,2,4,5,1,1,1,1
7.855,2,1,0,4,1,4,4,1
7.86,2,1,1,5,5,0,0,1
7.865,2,1,0,2,2,1,1,0
7.87,1,1,1,1,4,2,1,0
7.875,2,1,0,1,5,3,4,4
7.88,0,3,2,0,1,3,1,1
7.885,0,2,1,3,1,1,1,1
7.89,1,0,1,1,2,3,2,1
7.895,1,2,1,1,0,0,2,1
7.9,3,1,1,2,6,2,2,0
7.905,1,2,1,2,1,2,2,0
7.91,2,2,3,6,5,1,0,0
7.915,1,0,0,1,0,3,0,0
7.92,1,3,2,0,1,0,3,1
7.925,1,1,1,1,1,1,2,1
7.93,2,1,1,6,2,3,2,2
7.935,0,2,4,13,6,3,0,1
7.94,2,1,0,2,1,1,2,1
7.945,2,1,1,3,0,3,0,0
7.95,1,0,0,0,0,2,0,1
7.955,1,1,1,3,3,0,0,2
7.96,0,2,1,1,0,0,0,1
7.965,0,2,2,1,2,0,2,2
7.97,2,1,0,2,1,2,2,0
7.975,1,2,2,3,2,0,0,2
7.98,1,0,0,1,5,1,0,0
7.985,2,1,3,3,4,1,2,1
7.99,1,2,3,5,2,4,1,2
7.995,1,0,1,0,0,0,1,1
8,2,1,0,3,1,3,2,1
8.005,1,0,3,5,4,4,0,1
8.01,2,3,2,5,1,2,2,1
8.015,0,1,0,3,1,1,0,1
8.02,1,0,0,3,1,1,0,0
8.025,1,2,1,2,2,1,2,3
8.03,0,2,1,2,5,3,1,1
8.035,2,3,1,3,1,0,1,1
8.04,1,1,2,4,5,1,2,3
8.045,1,0,0,1,1,2,2,0
8.05,1,1,1,1,1,1,1,3
8.055,1,4,1,1,0,1,0,1
8.06,1,2,2,1,1,1,1,1
8.065,0,2,1,4,3,0,1,2
8.07,1,1,2,2,1,2,2,0
8.075,0,2,0,0,1,1,2,1
8.08,2,1,1,1,0,1,1,0
8.085,1,1,1,2,2,2,0,1
8.09,1,1,1,4,1,3,3,2
8.095,2,3,3,6,3,5,1,2
8.1,2,2,0,3,1,2,3,2
8.105,2,0,1,2,0,2,2,1
8.11,2,1,0,3,2,1,1,0
8.115,1,1,2,8,4,1,1,1
8.12,1,0,2,3,2,1,1,1
8.125,2,2,2,1,2,0,1,2
8.13,1,0,1,1,1,1,0,3
8.135,1,0,0,3,0,2,2,0
8.14,2,1,1,3,5,2,0,0
8.145,0,0,0,1,1,2,0,0
8.15,2,1,2,2,0,0,2,2
8.155,1,2,1,1,3,0,1,1
8.16,1,1,1,2,0,0,0,0
8.165,2,2,1,3,1,2,1,2
8.17,2,0,2,7,1,1,2,1
8.175,2,0,0,0,3,0,2,0
8.18,0,0,2,2,3,2,2,1
8.185,1,1,0,0,1,4,3,1
8.19,1,2,1,1,3,1,0,0
8.195,3,1,2,1,2,1,2,1
8.2,0,1,3,12,3,1,0,0
8.205,1,0,1,1,2,3,0,1
8.21,1,1,1,1,3,3,3,3
8.215,1,0,0,1,2,1,1,1
8.22,2,1,1,2,0,0,2,1
8.225,0,1,2,1,1,0,2,0
8.23,1,2,0,5,4,1,1,2
8.235,0,1,0,1,3,1,0,1
8.24,1,2,1,2,1,3,1,0
8.245,1,2,5,8,1,3,1,2
8.25,1,1,2,3,1,4,4,2
8.255,1,0,3,2,2,1,2,1
8.26,1,1,1,0,1,1,0,2
8.265,2,3,0,2,1,3,4,0
8.27,0,0,0,1,1,0,2,1
8.275,0,0,2,6,1,1,0,2
8.28,1,0,1,2,2,3,0,0
8.285,1,1,0,6,2,3,1,1
8.29,3,1,0,2,0,1,1,2
8.295,0,4,0,1,3,2,2,1
8.3,3,3,3,2,0,1,1,3
8.305,2,0,3,3,0,1,1,1
8.31,2,1,0,1,0,0,1,1
8.315,2,1,1,1,2,1,2,1
8.32,3,2,0,3,1,0,2,1
8.325,1,0,0,0,1,0,1,2
8.33,1,1,1,1,3,0,0,0
8.335,2,3,0,2,3,1,2,1
8.34,0,1,0,2,0,2,0,0
8.345,2,2,1,1,3,4,1,2
8.35,1,0,1,1,2,1,1,0
8.355,1,1,2,1,2,3,2,3
8.36,2,1,2,3,3,0,0,3
8.365,4,1,0,0,3,1,0,1
8.37,1,1,3,1,2,3,2,0
8.375,0,1,1,1,2,0,1,0
8.38,0,1,1,2,4,4,3,1
8.385,1,2,0,0,1,3,0,0
8.39,2,2,1,4,0,1,2,0
8.395,1,1,1,0,1,1,0,1
8.4,1,1,2,6,2,2,2,2
8.405,1,2,0,1,4,0,1,1
8.41,1,1,0,4,2,3,1,0
8.415,1,1,2,3,1,0,0,0
8.42,1,0,1,3,1,2,0,0
8.425,1,1,3,4,1,1,0,1
8.43,0,0,1,3,3,1,0,0
8.435,1,2,2,5,1,2,1,0
8.44,1,1,0,1,3,3,2,1
8.445,0,1,0,1,1,2,2,2
8.45,1,1,2,3,2,0,2,4
8.455,1,0,0,1,4,0,0,1
8.46,1,3,2,1,3,1,0,1
8.465,0,0,2,1,1,1,1,3
8.47,2,1,0,0,2,3,1,0
8.475,2,2,1,1,2,1,3,4
8.48,1,0,0,0,0,1,1,0
8.485,0,1,1,3,2,1,1,2
8.49,1,1,1,4,2,0,1,3
8.495,2,2,0,2,1,2,1,2
8.5,1,2,2,1,1,3,2,2
8.505,2,1,1,5,5,3,2,2
8.51,3,3,0,1,0,0,0,1
8.515,2,0,2,0,1,0,1,1
8.52,0,0,1,2,2,4,3,2
8.525,2,0,2,0,1,1,1,0
8.53,2,3,1,1,2,1,3,2
8.535,2,0,3,6,2,3,1,2
8.54,1,4,1,2,0,2,1,3
8.545,1,3,3,8,3,1,1,3
8.55,2,0,1,1,0,1,1,0
8.555,0,0,0,3,3,4,1,1
8.56,2,0,2,8,3,4,3,1
8.565,1,1,1,3,2,0,2,0
8.57,1,3,3,3,6,2,3,2
8.575,2,1,1,0,1,2,1,0
8.58,2,1,2,1,1,0,1,1
8.585,1,1,0,0,0,1,1,0
8.59,0,0,2,2,3,2,3,0
8.595,1,0,1,3,1,2,4,1
8.6,0,0,1,2,3,1,1,0
8.605,2,3,1,0,4,2,1,3
8.61,1,1,1,1,1,1,1,1
8.615,1,2,1,1,5,6,2,2
8.62,2,0,3,0,1,2,2,1
8.625,2,2,1,1,0,2,1,3
8.63,1,1,2,3,4,5,3,2
8.635,2,2,2,0,3,0,1,0
8.64,2,1,1,1,3,2,2,2
8.645,2,2,0,3,0,1,1,0
8.65,2,1,1,2,1,1,2,2
8.655,1,2,3,9,5,4,0,0
8.66,2,2,1,0,1,3,2,0
8.665,1,1,2,1,7,0,3,1
8.67,2,1,4,2,1,0,0,1
8.675,1,2,1,2,3,3,2,1
8.68,1,2,1,2,0,2,0,2
8.685,0,0,1,2,2,3,1,1
8.69,1,2,1,2,0,2,2,3
8.695,1,2,2,2,4,1,2,1
8.7,1,0,2,1,2,3,1,1
8.705,1,1,1,2,1,1,1,1
8.71,0,0,0,1,1,1,1,1
8.715,1,1,1,3,3,0,2,2
8.72,1,2,2,5,5,0,2,2
8.725,1,1,1,2,0,2,3,1
8.73,3,2,1,1,2,1,0,2
8.735,2,1,0,1,1,3,2,1
8.74,2,1,1,6,3,4,1,1
8.745,1,1,2,9,9,5,1,0
8.75,2,2,3,2,2,1,2,2
8.755,0,1,0,3,4,2,1,0
8.76,2,2,1,1,1,1,0,0
8.765,0,0,2,0,1,2,1,2
8.77,1,1,1,3,5,3,1,3
8.775,1,1,2,3,7,3,3,1
8.78,1,0,2,4,1,2,1,1
8.785,0,1,2,0,1,0,1,1
8.79,0,2,1,0,1,1,1,1
8.795,0,1,2,0,1,1,0,0
8.8,0,0,1,1,5,5,4,2
8.805,2,2,2,3,0,1,2,2
8.81,1,4,2,3,2,1,0,0
8.815,2,1,1,3,1,0,0,0
8.82,4,3,1,3,6,2,1,2
8.825,0,1,1,2,3,0,3,1
8.83,0,0,4,3,4,1,3,1
8.835,1,2,2,5,0,0,1,1
8.84,2,0,0,1,0,0,1,1
8.845,1,2,1,1,3,4,2,1
8.85,3,0,1,2,1,2,1,1
8.855,2,2,2,1,5,4,2,1
8.86,1,0,2,2,2,1,1,1
8.865,1,1,1,2,0,3,2,1
8.87,1,0,2,5,1,1,0,2
8.875,1,1,3,4,2,2,0,0
8.88,1,2,1,2,2,0,1,2
8.885,2,2,2,1,1,1,1,0
8.89,0,1,2,1,1,2,1,2
8.895,1,2,0,4,3,2,0,2
8.9,0,0,0,0,2,1,1,1
8.905,1,1,2,3,4,1,2,2
8.91,2,0,2,3,2,2,3,2
8.915,1,1,0,2,2,1,1,1
8.92,1,2,3,0,1,1,1,0
8.925,1,0,2,4,3,3,0,1
8.93,2,1,0,2,5,1,1,0
8.935,1,2,1,1,3,2,2,2
8.94,2,1,1,5,0,0,0,0
8.945,1,2,2,1,2,1,0,1
8.95,2,3,1,0,3,4,2,2
8.955,1,0,1,1,1,2,2,0
8.96,1,1,1,1,2,2,0,0
8.965,1,0,2,2,1,2,1,2
8.97,2,3,1,0,2,2,2,1
8.975,0,1,1,0,0,4,1,1
8.98,2,1,4,3,7,5,2,1
8.985,1,2,1,5,4,1,0,0
8.99,1,0,1,2,2,0,3,2
8.995,1,0,2,2,1,1,2,2
9,2,2,3,4,5,1,2,2
9.005,0,2,0,3,2,1,2,1
9.01,1,1,1,1,2,0,0,1
9.015,1,2,1,4,4,1,0,2
9.02,3,1,1,2,1,0,1,0
9.025,1,3,1,2,1,1,0,3
9.03,0,2,2,2,3,2,2,2
9.035,2,1,2,0,2,2,2,1
9.04,0,1,1,0,3,1,0,0
9.045,2,2,0,1,3,1,2,0
9.05,1,1,0,1,4,1,3,2
9.055,1,2,0,1,3,4,1,1
9.06,1,2,1,4,5,1,0,1
9.065,0,1,0,2,2,2,0,0
9.07,1,1,3,1,1,0,0,1
9.075,0,2,0,0,2,2,3,0
9.08,0,2,1,0,2,2,3,0
9.085,0,0,2,0,2,1,1,0
9.09,1,0,1,5,4,1,1,1
9.095,1,1,0,1,1,1,1,3
9.1,2,0,1,1,2,4,2,1
9.105,2,2,1,0,5,4,2,3
9.11,0,2,4,2,3,1,1,0
9.115,1,0,0,2,3,3,3,2
9.12,0,2,2,1,0,1,0,1
9.125,0,1,3,1,2,1,1,0
9.13,0,2,1,3,3,2,2,1
9.135,1,0,2,3,3,4,5,2
9.14,1,2,0,3,1,2,1,0
9.145,2,0,0,1,0,3,1,0
9.15,2,2,2,2,1,1,0,3
9.155,0,1,2,2,3,2,3,2
9.16,3,1,2,3,0,0,0,1
9.165,3,1,2,7,6,0,1,1
9.17,1,0,1,1,1,2,2,1
9.175,3,1,2,0,0,0,2,2
9.18,0,2,0,0,2,2,2,3
9.185,2,0,1,1,4,1,1,1
9.19,2,0,0,2,3,2,0,1
9.195,0,1,2,5,3,0,0,1
9.2,1,2,1,2,5,4,1,1
9.205,0,0,0,1,2,1,3,1
9.21,0,2,2,2,1,1,2,1
9.215,0,2,0,0,1,2,0,1
9.22,0,1,3,3,1,1,1,1
9.225,1,0,2,0,2,5,4,1
9.23,0,1,0,3,2,0,1,1
9.235,1,0,0,3,0,3,2,1
9.24,1,1,0,3,2,2,0,2
9.245,2,1,2,7,0,2,4,2
9.25,0,1,0,0,1,2,1,1
9.255,3,4,3,1,1,4,5,2
9.26,0,2,3,2,1,0,1,1
9.265,1,2,1,1,1,1,0,1
9.27,1,2,0,1,3,3,2,0
9.275,1,0,1,2,1,2,1,1
9.28,2,1,2,2,7,3,2,4
9.285,1,0,1,3,1,0,1,2
9.29,2,1,1,4,0,1,0,0
9.295,0,2,0,1,0,1,1,3
9.3,2,1,0,0,0,4,2,1
9.305,1,0,0,1,6,1,1,1
9.31,1,2,3,4,0,1,0,0
9.315,3,2,3,8,4,3,0,2
9.32,0,2,1,0,2,3,1,1
9.325,0,2,2,0,2,0,2,1
9.33,2,1,1,1,2,2,2,3
9.335,2,1,0,1,1,3,1,1
9.34,1,1,1,1,2,1,1,1
9.345,2,2,2,2,4,0,1,2
9.35,2,1,2,1,3,1,2,0
9.355,1,2,1,0,1,0,0,2
9.36,1,1,0,4,4,4,5,4
9.365,1,0,1,0,5,3,0,1
9.37,1,1,1,3,1,1,0,1
9.375,1,1,3,4,3,2,2,1
9.38,1,1,0,4,4,1,1,1
9.385,2,2,4,8,1,1,1,2
9.39,1,1,2,1,1,1,2,1
9.395,1,0,3,2,1,4,4,1
9.4,0,0,1,2,1,1,1,0
9.405,1,1,1,1,2,2,1,1
9.41,1,0,0,0,3,2,1,2
9.415,3,1,1,3,0,1,0,2
9.42,0,1,3,2,1,1,2,1
9.425,0,0,1,1,1,2,0,1
9.43,0,1,1,2,1,2,1,1
9.435,1,1,0,1,3,3,1,0
9.44,2,0,1,4,6,4,4,2
9.445,2,2,3,2,3,1,0,1
9.45,2,1,1,7,1,1,1,2
9.455,1,1,2,4,1,0,0,1
9.46,2,3,0,3,3,3,2,1
9.465,2,0,1,3,2,2,2,1
9.47,0,0,0,6,1,1,0,0
9.475,0,1,1,4,2,3,1,0
9.48,4,0,3,5,1,1,0,1
9.485,3,1,1,1,3,2,2,2
9.49,1,2,2,1,4,4,1,2
9.495,1,2,0,1,2,2,1,2
9.5,1,1,2,7,4,0,1,2
9.505,1,1,0,0,2,1,0,1
9.51,1,1,3,2,0,3,1,1
9.515,0,0,0,0,2,0,2,3
9.52,2,0,1,3,3,4,3,2
9.525,1,1,0,1,0,1,2,1
9.53,1,3,3,8,3,0,1,2
9.535,0,2,2,1,3,5,2,2
9.54,1,3,2,0,0,4,4,1
9.545,1,1,2,0,2,1,1,2
9.55,2,0,1,2,3,1,0,0
9.555,3,2,3,5,3,2,4,1
9.56,3,1,0,3,0,1,0,2
9.565,1,2,2,5,3,2,0,1
9.57,1,0,1,1,0,3,0,1
9.575,0,1,0,1,2,0,1,1
9.58,1,1,2,1,4,4,2,1
9.585,1,1,3,2,4,4,2,1
9.59,2,0,2,2,2,1,2,3
9.595,0,2,2,4,3,4,2,2
9.6,1,2,1,1,2,1,0,1
9.605,1,2,0,1,2,0,1,1
9.61,0,1,3,1,0,0,0,1
9.615,1,0,1,5,2,1,1,1
9.62,1,2,0,3,5,2,4,1
9.625,2,1,0,3,1,0,4,0
9.63,0,2,3,5,2,1,1,0
9.635,2,1,1,3,0,1,1,3
9.64,2,0,3,4,0,3,3,0
9.645,1,1,2,2,1,1,1,1
9.65,1,0,0,4,2,1,1,1
9.655,1,1,3,9,3,2,1,0
9.66,4,2,1,2,1,1,0,1
9.665,0,0,2,1,0,4,2,1
9.67,2,1,2,2,2,3,1,3
9.675,0,0,2,1,4,3,1,1
9.68,0,2,1,0,2,2,2,2
9.685,2,2,1,0,3,0,1,2
9.69,1,3,3,8,4,2,2,1
9.695,1,0,0,1,0,1,1,1
9.7,0,1,2,1,0,3,1,3
9.705,1,2,1,3,2,1,0,2
9.71,0,2,1,2,3,5,4,2
9.715,1,2,2,3,3,3,0,1
9.72,0,1,1,2,0,1,0,1
9.725,1,1,1,1,2,0,0,0
9.73,2,2,0,1,1,1,1,2
9.735,2,1,1,6,4,3,3,4
9.74,2,2,0,3,0,1,4,3
9.745,0,2,2,6,5,3,0,1
9.75,0,0,1,2,4,3,0,1
9.755,0,2,0,4,1,1,0,0
9.76,1,2,0,1,1,0,1,0
9.765,2,2,0,1,4,5,4,3
9.77,1,2,1,2,1,5,1,1
9.775,2,0,2,1,0,1,1,1
9.78,1,0,1,3,1,1,1,1
9.785,1,2,2,3,2,4,1,1
9.79,0,0,0,1,4,1,0,0
9.795,1,2,2,2,4,3,1,2
9.8,2,0,1,1,2,2,4,1
9.805,4,1,0,3,0,0,1,1
9.81,2,1,1,0,3,3,3,1
9.815,1,0,0,2,2,1,2,0
9.82,1,2,1,2,0,0,2,0
9.825,0,1,3,2,2,1,0,1
9.83,1,3,0,0,4,0,2,1
9.835,2,2,4,7,5,1,4,3
9.84,0,2,2,1,4,2,2,1
9.845,1,0,0,4,6,1,2,0
9.85,2,2,0,3,2,1,2,0
9.855,0,2,0,0,0,2,1,2
9.86,1,0,3,1,1,3,3,1
9.865,0,1,1,0,1,2,0,2
9.87,2,2,1,4,5,1,0,1
9.875,2,1,0,0,1,0,0,1
9.88,1,0,0,4,4,2,1,1
9.885,3,1,1,1,2,0,2,1
9.89,1,1,1,2,1,1,3,1
9.895,1,1,0,3,2,1,1,0
9.9,2,1,2,2,7,5,3,1
9.905,2,2,0,1,1,1,2,3
9.91,0,0,0,2,2,1,1,0
9.915,0,3,1,2,0,1,3,2
9.92,1,1,1,3,2,1,0,1
9.925,1,0,1,1,2,4,2,1
9.93,1,2,3,1,3,1,1,1
9.935,2,2,2,1,5,1,0,2
9.94,2,1,1,1,2,1,0,1
9.945,0,1,1,1,1,2,1,2
9.95,1,0,2,6,1,1,4,1
9.955,1,0,1,1,2,0,0,1
9.96,2,0,5,4,3,0,3,1
9.965,0,2,1,2,0,3,3,0
9.97,0,2,1,0,2,2,1,1
9.975,1,1,1,1,1,3,1,0
9.98,1,1,0,0,3,1,2,1
9.985,1,1,1,1,4,2,2,1
9.99,1,0,4,1,4,2,3,0
9.995,2,1,1,0,2,1,2,0
10,1,2,2,0,2,3,1,1
10.005,1,1,2,3,2,4,1,0
10.01,1,2,2,2,6,4,4,2
10.015,1,2,2,1,1,2,3,2
10.02,0,1,2,2,2,0,0,1
10.025,2,0,0,1,2,2,2,2
10.03,0,1,2,6,1,0,1,2
10.035,1,0,1,3,1,1,0,2
10.04,1,3,1,2,3,2,1,2
10.045,0,2,2,0,0,2,1,0
10.05,3,3,0,4,4,0,1,2
10.055,2,1,1,2,2,2,3,3
10.06,1,1,3,3,6,1,2,1
10.065,0,2,1,1,1,3,1,1
10.07,1,2,2,1,1,4,2,1
10.075,1,1,1,2,1,0,0,1
10.08,1,0,3,6,2,1,2,3
10.085,1,0,1,1,4,1,2,1
10.09,1,0,1,1,3,2,1,0
10.095,2,2,1,3,0,2,2,1
10.1,0,2,0,0,0,2,3,1
10.105,1,1,1,6,2,2,2,1
10.11,1,1,0,1,1,1,0,1
10.115,0,0,1,1,1,0,2,2
10.12,0,1,1,2,2,0,2,2
10.125,2,4,3,1,4,1,2,2
10.13,2,2,1,2,2,3,2,2
10.135,1,0,0,3,2,1,3,1
10.14,2,0,2,7,3,3,1,1
10.145,0,2,0,1,3,3,0,1
10.15,1,1,1,2,1,1,2,1
10.155,1,2,2,4,3,2,2,2
10.16,0,1,2,1,2,3,1,2
10.165,1,0,1,3,4,3,3,1
10.17,0,0,2,3,0,3,1,2
10.175,2,1,2,6,3,0,3,1
10.18,2,0,1,2,2,1,0,1
10.185,2,3,1,2,4,3,3,2
10.19,2,0,1,0,3,0,0,0
10.195,2,2,3,0,3,1,0,1
10.2,0,1,2,0,7,1,0,1
10.205,1,1,2,6,3,0,0,1
10.21,0,1,1,3,1,2,1,2
10.215,1,0,3,3,4,1,2,3
10.22,2,0,1,1,2,1,2,1
10.225,1,0,1,1,2,1,0,2
10.23,3,2,1,1,2,1,0,0
10.235,0,1,1,2,1,1,1,1
10.24,0,2,1,2,2,3,2,1
10.245,0,1,1,3,5,2,0,1
10.25,1,1,3,8,2,4,1,2
10.255,1,1,1,1,1,0,1,1
10.26,1,1,1,1,0,0,1,0
10.265,1,0,0,0,2,5,3,2
10.27,1,0,3,1,2,2,2,2
10.275,0,2,0,0,2,0,0,1
10.28,0,1,0,1,1,1,1,1
10.285,1,3,3,4,2,2,2,1
10.29,2,1,1,0,3,1,1,1
10.295,0,1,0,1,1,0,1,1
10.3,0,2,2,3,5,1,2,2
10.305,2,3,1,0,2,3,1,0
10.31,1,2,2,1,4,4,2,2
10.315,1,1,2,1,1,2,2,0
10.32,0,1,1,3,2,2,1,1
10.325,2,1,0,3,5,1,1,1
10.33,2,1,2,4,1,2,1,2
10.335,0,0,2,3,2,1,1,1
10.34,1,2,1,0,0,2,1,2
10.345,1,0,0,4,2,1,1,0
10.35,1,2,0,2,9,2,2,3
10.355,1,2,1,0,0,0,0,1
10.36,2,2,2,6,1,1,1,0
10.365,1,1,1,1,3,3,1,0
10.37,1,0,1,2,1,1,0,0
10.375,2,1,0,2,4,1,3,1
10.38,1,0,2,1,4,3,2,2
10.385,0,1,1,1,2,1,2,2
10.39,1,0,2,1,1,0,1,0
10.395,1,1,1,3,4,4,2,1
10.4,3,1,1,1,2,0,1,0
10.405,1,2,4,5,4,4,4,2
10.41,1,1,0,2,2,1,2,1
10.415,1,1,3,6,4,1,0,2
10.42,1,3,0,1,0,1,1,0
10.425,3,0,1,0,2,1,1,2
10.43,1,2,2,1,2,0,1,0
10.435,2,2,0,1,2,0,1,3
10.44,0,1,2,5,6,0,1,1
10.445,1,1,2,2,2,2,1,1
10.45,1,2,2,5,1,3,3,2
10.455,0,0,0,0,3,2,2,1
10.46,1,1,0,4,4,3,1,0
10.465,0,2,1,7,3,1,1,1
10.47,1,0,1,0,1,2,1,1
10.475,3,2,3,1,0,1,1,2
10.48,2,2,1,2,3,1,3,1
10.485,0,1,2,6,3,2,0,1
10.49,1,2,1,3,1,2,0,0
10.495,2,2,2,2,1,1,2,2
10.5,2,2,0,0,4,0,1,2
10.505,1,1,1,1,0,0,2,3
10.51,2,2,1,5,2,1,2,1
10.515,2,0,5,8,5,2,1,1
10.52,1,1,1,0,1,3,2,3
10.525,1,0,1,3,1,2,2,1
10.53,2,0,1,3,5,2,0,1
10.535,0,1,0,3,1,1,1,1
10.54,1,0,1,1,1,1,2,1
10.545,1,0,1,2,2,0,1,2
10.55,1,1,3,2,2,0,2,1
10.555,0,2,1,4,1,3,3,1
10.56,1,1,0,0,0,1,0,0
10.565,1,2,1,1,1,0,2,0
10.57,1,1,1,1,1,2,0,2
10.575,3,1,0,3,3,0,3,2
10.58,0,1,2,3,4,5,1,1
10.585,2,2,1,1,0,1,1,3
10.59,1,1,2,0,1,1,0,2
10.595,0,1,1,1,0,0,2,1
10.6,2,0,2,2,1,1,3,1
10.605,2,0,2,4,5,1,1,1
10.61,1,2,2,3,7,7,3,2
10.615,1,0,1,3,1,1,1,1
10.62,0,2,1,3,0,2,0,1
10.625,2,0,2,2,0,0,2,2
10.63,0,1,0,1,0,1,1,0
10.635,1,1,1,1,3,1,0,1
10.64,1,2,1,1,1,1,1,1
10.645,1,0,1,1,1,3,2,1
10.65,2,2,1,2,3,1,2,1
10.655,0,1,2,1,1,1,1,1
10.66,1,0,1,0,1,2,1,0
10.665,3,1,1,2,1,0,0,1
10.67,1,0,2,5,3,1,0,1
10.675,1,2,1,2,2,1,2,0
10.68,0,1,0,4,3,1,2,3
10.685,1,2,2,7,5,3,3,1
10.69,1,0,1,1,0,2,1,1
10.695,0,0,1,0,3,4,2,2
10.7,1,3,0,0,0,2,1,1
10.705,3,3,2,2,2,1,1,1
10.71,2,1,2,4,3,2,1,1
10.715,2,2,1,2,0,1,0,0
10.72,1,2,1,3,3,3,0,2
10.725,1,0,1,1,3,2,1,1
10.73,1,1,1,0,0,2,2,1
10.735,1,1,1,4,1,1,1,1
10.74,1,2,4,5,3,3,2,1
10.745,0,1,1,5,5,2,2,0
10.75,0,0,0,1,1,0,1,1
10.755,2,1,2,1,6,8,5,2
10.76,4,0,1,0,2,1,2,1
10.765,0,2,0,2,2,0,1,2
10.77,2,3,2,5,3,0,1,2
10.775,0,2,2,3,1,1,0,1
10.78,0,1,1,0,0,1,0,1
10.785,1,1,2,2,2,4,3,1
10.79,0,1,1,3,0,2,0,0
10.795,1,2,2,3,2,0,1,1
10.8,1,2,1,1,1,1,0,0
10.805,0,1,4,4,2,2,2,3
10.81,1,3,1,0,2,1,2,0
10.815,2,2,2,1,0,0,1,2
10.82,0,2,2,2,5,1,2,0
10.825,0,2,0,3,0,2,0,0
10.83,1,1,1,3,2,5,2,1
10.835,0,2,0,1,2,0,2,2
10.84,1,1,2,4,2,4,1,0
10.845,2,1,3,2,1,0,2,1
10.85,1,1,1,2,1,3,2,1
10.855,0,1,2,5,7,2,2,1
10.86,0,2,0,2,1,2,1,1
10.865,2,1,0,2,1,1,0,0
10.87,2,1,2,1,2,1,1,0
10.875,1,1,0,2,1,2,0,1
10.88,0,1,3,4,0,2,1,2
10.885,2,1,0,0,2,2,0,2
10.89,2,0,3,1,3,1,1,2
10.895,1,0,1,1,2,2,2,1
10.9,1,0,1,4,2,1,1,1
10.905,1,0,2,4,1,3,3,1
10.91,0,1,0,2,3,2,2,0
10.915,1,1,1,0,2,4,2,1
10.92,2,1,0,0,1,0,1,3
10.925,2,1,2,2,2,4,2,1
10.93,1,0,2,2,2,2,1,2
10.935,1,1,1,3,1,1,1,0
10.94,0,2,2,4,1,0,1,0
10.945,2,1,1,5,2,1,1,0
10.95,1,1,1,0,0,1,1,1
10.955,1,2,2,1,1,2,2,1
10.96,1,0,1,2,2,3,1,2
10.965,1,1,1,2,0,0,1,0
10.97,1,1,1,3,4,1,0,1
10.975,2,3,1,2,2,1,0,3
10.98,1,2,0,3,1,3,2,0
10.985,0,2,1,3,7,2,2,2
10.99,0,0,3,3,2,3,3,3
10.995,1,3,2,1,0,1,2,1
11,2,1,1,2,2,2,1,2
11.005,1,1,0,0,4,6,0,1
11.01,0,3,1,1,1,4,1,0
11.015,3,0,1,2,1,1,2,1
11.02,2,1,2,1,2,0,0,1
11.025,0,0,1,2,1,1,1,1
11.03,0,2,1,4,6,4,3,2
11.035,3,1,2,0,2,0,1,1
11.04,0,1,3,6,2,0,0,1
11.045,1,1,0,1,1,1,1,1
11.05,2,2,0,3,0,2,2,1
11.055,0,1,1,2,1,2,2,2
11.06,1,2,1,1,1,3,3,1
11.065,1,0,4,3,1,1,0,2
11.07,1,0,1,2,4,2,0,1
11.075,0,1,2,4,0,2,1,1
11.08,1,0,0,1,4,3,2,2
11.085,1,1,2,0,1,1,0,0
11.09,2,1,2,0,3,1,2,0
11.095,2,1,1,2,2,1,0,1
11.1,3,0,1,0,1,1,2,1
11.105,1,1,3,6,6,4,1,0
11.11,0,0,2,2,1,3,2,2
11.115,1,1,1,0,1,1,0,2
11.12,1,5,1,3,2,2,0,1
11.125,1,0,1,2,5,0,2,3
11.13,3,1,2,3,0,0,1,1
11.135,2,1,1,3,2,0,2,3
11.14,1,1,0,1,0,2,1,0
11.145,1,3,1,5,3,0,2,1
11.15,0,1,2,4,4,1,1,3
11.155,0,2,2,0,2,3,4,2
11.16,2,0,0,0,0,0,1,1
11.165,2,2,1,3,2,1,1,2
11.17,3,2,1,0,1,1,2,2
11.175,0,2,2,1,2,2,3,1
11.18,0,1,3,4,2,2,2,2
11.185,2,1,1,2,0,3,3,1
11.19,3,2,0,0,1,2,1,1
11.195,2,0,0,1,1,1,2,1
11.2,1,1,2,2,3,0,1,2
11.205,2,1,0,2,1,0,2,1
11.21,2,3,3,7,8,4,1,0
11.215,1,2,1,2,1,0,2,1
11.22,0,2,1,1,2,3,1,1
11.225,3,1,1,1,2,4,3,1
11.23,1,2,0,0,3,2,0,0
11.235,1,2,1,5,0,0,0,1
11.24,3,2,3,11,6,2,3,2
11.245,1,1,2,4,5,6,4,1
11.25,0,0,1,1,3,1,1,0
11.255,0,1,1,1,1,0,1,1
11.26,0,2,1,1,0,2,1,3
11.265,2,0,0,2,3,4,1,2
11.27,0,1,2,2,2,2,1,0
11.275,1,1,1,1,1,0,3,1
11.28,1,1,0,0,1,1,1,0
11.285,1,0,2,4,4,0,0,2
11.29,2,2,2,3,1,0,1,0
11.295,0,1,2,5,3,1,1,1
11.3,1,1,0,0,0,2,3,1
11.305,1,1,0,3,2,0,0,2
11.31,1,3,3,4,2,1,1,1
11.315,2,2,2,1,4,1,3,1
11.32,3,2,1,6,0,2,1,1
11.325,1,2,2,2,1,3,1,0
11.33,1,0,1,4,7,6,4,3
11.335,0,1,0,1,3,5,2,3
11.34,1,1,2,4,4,4,3,1
11.345,0,1,0,0,2,2,1,1
11.35,2,2,0,3,4,4,2,1
11.355,1,1,1,3,0,2,0,1
11.36,2,2,1,0,3,1,2,2
11.365,2,2,1,1,2,0,0,1
11.37,3,2,1,1,4,0,1,1
11.375,0,1,2,2,1,2,0,1
11.38,2,3,0,1,2,0,0,2
11.385,0,0,3,2,1,2,1,1
11.39,1,2,2,2,0,2,1,2
11.395,1,2,1,1,2,1,2,1
11.4,0,2,1,2,2,1,0,2
11.405,0,2,1,1,1,2,1,0
11.41,3,0,0,3,2,0,0,0
11.415,1,0,2,6,4,1,2,0
11.42,2,0,0,1,4,3,3,0
11.425,0,1,1,1,2,0,1,2
11.43,2,1,2,3,2,2,3,2
11.435,1,2,1,1,1,0,2,1
11.44,2,0,0,1,4,3,3,1
11.445,2,3,1,1,5,4,1,1
11.45,1,1,0,0,3,3,0,1
11.455,0,1,1,3,1,1,1,1
11.46,0,0,3,5,3,3,1,2
11.465,1,1,0,2,2,1,0,2
11.47,0,3,1,1,1,2,1,0
11.475,1,1,0,0,3,2,1,1
11.48,1,0,0,1,1,2,2,0
11.485,0,0,1,1,4,0,2,1
11.49,1,1,0,0,2,3,1,1
11.495,3,3,2,4,1,1,2,2
11.5,1,2,3,2,0,1,3,0
11.505,1,1,0,3,2,1,3,1
11.51,1,0,1,4,2,1,1,2
11.515,0,1,0,2,2,4,1,3
11.52,1,0,2,1,1,3,2,2
11.525,0,1,1,0,3,0,1,0
11.53,0,1,1,2,1,2,1,0
11.535,2,2,0,1,2,2,2,2
11.54,1,0,1,1,2,1,0,1
11.545,4,1,1,3,4,4,4,2
11.55,2,1,3,2,2,2,2,4
11.555,0,1,2,1,3,2,3,1
11.56,1,2,0,4,1,1,0,1
11.565,0,3,2,2,1,1,1,0
11.57,1,2,2,2,4,1,2,1
11.575,2,1,1,1,3,4,5,3
11.58,2,1,3,6,1,2,1,1
11.585,1,0,1,2,0,0,1,1
11.59,1,1,0,0,5,2,1,1
11.595,0,1,2,1,1,0,2,1
11.6,0,1,0,0,2,1,0,1
11.605,1,2,2,0,4,5,1,3
11.61,1,3,3,1,3,2,0,1
11.615,2,2,0,0,2,1,2,0
11.62,2,2,0,1,1,2,2,2
11.625,1,0,1,1,3,2,2,2
11.63,1,2,2,2,1,1,2,1
11.635,1,2,3,3,1,3,3,2
11.64,2,1,2,3,7,0,2,1
11.645,1,0,1,3,0,4,4,3
11.65,1,2,1,3,4,3,2,1
11.655,2,1,1,0,1,1,1,0
11.66,1,1,2,3,2,0,0,1
11.665,1,1,1,4,4,4,3,1
11.67,1,2,2,4,2,0,1,0
11.675,2,1,2,0,2,1,2,4
11.68,1,1,0,0,1,1,1,1
11.685,2,2,3,0,1,1,0,1
11.69,1,0,0,1,1,3,3,1
11.695,0,0,0,1,3,1,2,1
11.7,0,1,1,4,3,0,2,3
11.705,1,1,0,1,2,0,3,1
11.71,2,1,0,2,1,2,2,2
11.715,1,3,4,3,1,0,1,0
11.72,1,2,0,1,2,1,2,1
11.725,3,1,4,4,6,4,4,1
11.73,0,1,3,4,2,0,1,1
11.735,1,0,1,2,1,1,0,1
11.74,0,0,2,3,1,1,2,2
11.745,1,2,1,4,0,0,0,0
11.75,1,1,1,0,1,0,2,0
11.755,1,1,1,2,4,4,3,3
11.76,1,0,1,0,5,4,2,0
11.765,0,1,0,1,3,3,0,0
11.77,1,2,0,0,3,0,1,1
11.775,2,2,1,3,3,1,2,1
11.78,1,1,1,0,2,3,4,2
11.785,1,4,3,4,2,1,1,0
11.79,0,2,2,2,1,0,1,1
11.795,1,1,1,1,0,0,0,1
11.8,2,1,4,0,2,4,2,2
11.805,1,2,4,3,5,5,3,2
11.81,2,2,2,1,1,0,0,0
11.815,1,2,1,0,1,2,0,1
11.82,0,2,1,2,0,1,1,1
11.825,1,1,1,0,3,2,2,2
11.83,1,0,3,1,2,3,1,1
11.835,2,0,1,1,2,1,0,1
11.84,1,1,1,3,0,2,1,0
11.845,1,2,1,2,1,1,1,0
11.85,0,2,0,3,4,1,2,2
11.855,3,2,2,0,3,4,1,0
11.86,1,0,0,3,2,1,1,2
11.865,1,1,0,2,2,1,0,2
11.87,1,1,1,2,3,2,2,0
11.875,0,1,1,1,2,1,3,2
11.88,3,4,2,2,1,1,2,1
11.885,0,0,1,1,0,1,0,1
11.89,1,1,0,0,2,3,2,1
11.895,1,1,0,3,2,1,0,2
11.9,3,1,3,5,5,3,2,0
11.905,0,0,2,0,0,3,1,2
11.91,0,3,4,2,0,1,0,1
11.915,2,1,2,0,2,1,0,1
11.92,2,0,0,0,2,0,0,2
11.925,2,0,0,1,2,3,3,0
11.93,0,1,1,4,5,2,2,1
11.935,0,1,1,0,1,2,2,1
11.94,2,2,1,5,0,2,0,2
11.945,2,2,3,5,0,0,1,0
11.95,3,0,1,3,1,3,1,0
11.955,1,1,1,3,0,3,0,0
11.96,1,1,0,3,0,1,2,0
11.965,1,1,1,2,1,5,3,3
11.97,1,1,2,7,3,4,3,4
11.975,5,2,2,0,2,1,2,0
11.98,2,1,0,4,4,5,1,1
11.985,3,2,0,1,1,1,1,1
11.99,1,0,1,4,1,1,1,1
11.995,2,1,2,10,1,3,2,2
12,0,1,1,1,1,2,1,0
12.005,1,1,2,2,1,0,1,1
12.01,0,0,0,3,0,2,1,1
12.015,0,3,2,2,0,3,1,2
12.02,2,0,1,2,0,0,1,1
12.025,0,2,1,1,1,1,0,0
12.03,1,2,3,4,4,1,1,0
12.035,1,1,1,1,3,2,1,2
12.04,0,1,4,4,4,5,4,2
12.045,1,0,1,0,4,1,1,0
12.05,2,1,0,2,2,4,1,1
12.055,1,2,0,4,2,1,1,0
12.06,1,1,0,5,3,2,2,2
12.065,1,2,4,11,4,0,3,1
12.07,3,2,2,1,1,2,2,2
12.075,2,0,1,3,2,2,0,2
12.08,1,2,1,3,1,1,1,0
12.085,1,1,1,2,5,2,2,0
12.09,2,0,0,0,2,1,1,1
12.095,1,1,3,1,2,2,1,0
12.1,3,2,2,1,0,0,1,2
12.105,2,2,0,1,2,4,3,2
12.11,1,1,1,2,1,2,1,1
12.115,1,0,1,2,2,3,2,0
12.12,1,1,1,2,1,1,1,1
12.125,2,2,3,5,4,2,4,3
12.13,2,0,1,2,0,2,1,1
12.135,1,1,1,0,1,0,1,0
12.14,1,1,2,1,1,1,2,1
12.145,0,1,0,3,5,2,1,1
12.15,1,2,1,2,2,0,1,1
12.155,1,0,1,1,0,0,0,1
12.16,1,1,1,1,2,2,1,1
12.165,0,0,1,3,2,1,1,0
12.17,2,1,2,4,2,3,2,1
12.175,1,2,1,1,3,1,1,0
12.18,0,2,1,10,4,2,1,2
12.185,1,2,1,0,1,3,1,1
12.19,1,2,2,0,2,1,0,1
12.195,1,2,1,1,0,2,2,2
12.2,0,1,1,2,0,2,2,1
12.205,1,3,1,2,2,1,0,1
12.21,0,0,2,2,0,1,0,0
12.215,0,2,1,2,1,0,0,1
12.22,1,0,0,0,1,2,4,1
12.225,2,1,1,2,1,0,1,1
12.23,2,1,1,2,1,0,1,2
12.235,2,3,2,2,3,2,3,1
12.24,2,2,3,7,6,2,2,2
12.245,1,1,1,4,7,1,1,1
12.25,1,2,2,1,3,2,1,1
12.255,1,0,0,4,1,1,0,0
12.26,2,0,1,4,2,1,2,1
12.265,0,2,7,3,1,0,1,1
12.27,0,2,3,0,1,0,2,2
12.275,1,1,0,1,1,0,1,1
12.28,1,4,1,0,0,2,1,0
12.285,1,1,0,8,5,2,1,2
12.29,0,1,1,0,0,1,0,1
12.295,1,1,4,0,2,1,1,2
12.3,4,0,7,3,1,1,2,1
12.305,0,1,3,1,2,1,0,1
12.31,3,3,13,10,5,3,3,2
12.315,3,1,3,1,1,2,1,1
12.32,2,2,5,10,3,0,0,3
12.325,1,0,3,0,1,2,0,0
12.33,1,1,0,0,2,2,2,0
12.335,0,1,2,0,0,0,0,0
12.34,1,2,0,5,1,1,1,1
12.345,1,0,2,2,2,0,2,0
12.35,2,1,3,1,2,1,1,1
12.355,1,2,2,2,3,3,2,2
12.36,0,0,1,0,3,3,2,2
12.365,0,1,1,5,3,1,0,1
12.37,1,3,13,2,1,0,1,1
12.375,1,1,5,0,1,1,1,2
12.38,1,1,2,6,1,0,2,0
12.385,1,3,9,1,4,5,2,2
12.39,0,0,10,5,4,2,0,1
12.395,1,1,0,1,0,0,1,1
12.4,2,2,7,4,1,2,1,2
12.405,0,1,3,2,1,1,2,2
12.41,2,1,1,1,2,3,1,1
12.415,1,3,3,3,1,1,0,1
12.42,0,1,1,2,2,1,4,3
12.425,2,1,1,4,3,2,3,1
12.43,2,0,2,1,3,3,1,1
12.435,1,1,3,1,1,3,1,1
12.44,2,1,0,2,2,3,2,1
12.445,0,3,1,2,0,0,0,3
12.45,1,1,1,2,5,1,2,1
12.455,0,2,0,1,2,2,4,1
12.46,2,1,1,3,1,0,0,2
12.465,0,1,0,1,4,3,3,1
12.47,2,1,1,3,0,1,1,0
12.475,1,0,3,6,3,1,3,1
12.48,2,3,1,4,3,5,2,3
12.485,1,1,4,5,3,0,1,1
12.49,1,1,0,0,2,1,1,1
12.495,2,0,0,1,1,1,1,3
12.5,1,2,1,2,4,1,0,0
12.505,2,3,7,0,2,4,1,2
12.51,1,2,1,4,2,0,1,1
12.515,0,1,1,1,3,2,1,1
12.52,2,1,3,2,2,1,2,2
12.525,1,1,4,1,2,2,1,2
12.53,1,1,3,1,5,2,2,3
12.535,1,3,8,2,2,1,0,1
12.54,2,0,1,9,2,0,2,1
12.545,1,3,1,2,3,1,2,0
12.55,1,0,4,3,0,1,1,2
12.555,2,1,4,0,3,3,2,1
12.56,1,1,1,2,2,1,1,1
12.565,1,2,8,0,1,3,0,1
12.57,2,2,4,4,2,1,2,3
12.575,3,1,2,1,0,1,0,2
12.58,0,3,4,1,2,0,0,2
12.585,1,1,3,0,1,1,1,1
12.59,0,2,5,2,6,3,2,1
12.595,1,0,3,1,4,1,0,1
12.6,2,0,2,2,1,2,1,0
12.605,2,1,2,4,2,1,0,1
12.61,0,0,3,1,3,1,0,1
12.615,2,1,4,5,3,3,2,3
12.62,0,0,4,8,4,2,0,1
12.625,1,2,0,0,3,1,3,2
12.63,2,1,0,1,1,1,1,2
12.635,3,1,1,1,2,1,2,0
12.64,1,2,1,2,1,2,2,2
12.645,2,0,2,4,5,4,3,1
12.65,0,1,3,4,3,3,0,0
12.655,0,2,3,2,0,2,3,1
12.66,2,4,1,0,1,1,1,2
12.665,1,0,2,1,1,2,1,1
12.67,1,2,3,3,2,5,2,2
12.675,3,1,1,6,4,1,2,1
12.68,1,1,5,3,0,1,1,1
12.685,1,3,1,1,0,1,2,1
12.69,1,2,0,0,2,1,0,1
12.695,1,1,3,0,3,1,2,2
12.7,2,1,5,5,1,1,1,1
12.705,2,2,0,9,5,0,1,1
12.71,0,2,5,0,0,1,1,0
12.715,1,0,1,1,1,2,1,1
12.72,2,1,4,6,2,1,1,3
12.725,1,1,3,3,2,3,0,1
12.73,1,1,3,4,0,0,2,2
12.735,1,3,10,9,4,1,1,2
12.74,1,1,4,2,0,1,1,0
12.745,2,2,2,2,1,1,2,1
12.75,3,3,3,1,1,1,2,1
12.755,2,1,4,4,4,1,1,0
12.76,1,2,2,1,2,1,0,1
12.765,1,1,1,1,3,0,1,1
12.77,1,1,4,4,1,2,3,0
12.775,0,2,3,4,2,1,1,0
12.78,2,1,2,0,4,1,1,0
12.785,2,5,14,10,4,4,3,1
12.79,1,0,4,1,0,1,0,1
12.795,2,2,3,1,0,0,1,1
12.8,0,1,5,2,1,0,0,0
12.805,1,1,1,2,4,1,2,1
12.81,1,1,5,2,3,0,1,0
12.815,1,0,5,0,0,1,1,1
12.82,3,2,11,8,3,1,1,1
12.825,0,0,4,4,1,1,1,3
12.83,1,1,1,7,2,1,2,2
12.835,1,1,15,7,1,1,0,1
12.84,0,3,2,0,1,1,2,1
12.845,3,0,6,4,1,3,2,2
12.85,2,4,5,1,3,4,1,3
12.855,0,2,4,1,0,0,2,0
12.86,1,0,5,4,0,1,2,1
12.865,1,2,2,1,1,0,1,0
12.87,2,4,16,24,11,4,1,1
12.875,2,1,1,3,0,1,3,3
12.88,2,9,19,2,2,0,1,1
12.885,4,15,0,3,2,3,1,3
12.89,2,2,8,2,4,1,1,2
12.895,1,2,11,5,2,2,2,1
12.9,1,2,5,5,1,1,0,0
12.905,0,1,22,8,1,0,2,1
12.91,1,1,14,10,2,0,0,1
12.915,1,1,23,9,1,1,0,0
12.92,1,3,5,3,3,1,0,1
12.925,1,0,2,3,1,0,0,1
12.93,1,2,1,5,3,3,0,0
12.935,0,8,3,9,2,0,1,2
12.94,3,9,14,9,6,1,3,1
12.945,1,0,3,4,0,1,3,3
12.95,2,1,9,10,3,1,2,1
12.955,2,6,9,7,1,4,2,2
12.96,1,6,6,2,0,2,3,3
12.965,1,3,13,16,2,1,1,1
12.97,2,6,18,9,0,3,2,1
12.975,3,6,31,12,3,1,2,2
12.98,3,3,2,4,4,6,6,5
12.985,2,6,28,12,0,0,0,0
12.99,3,8,31,19,4,3,2,1
12.995,4,9,36,5,1,2,0,2
13,0,1,16,14,0,1,0,1
13.005,4,8,4,4,4,3,0,2
13.01,1,2,9,8,1,2,1,0
13.015,3,3,15,6,1,0,1,0
13.02,4,7,19,1,2,0,1,2
13.025,1,2,11,8,1,0,1,1
13.03,4,4,6,11,4,2,3,3
13.035,1,1,12,2,1,1,1,1
13.04,1,3,9,3,2,1,0,0
13.045,1,1,9,4,1,0,0,1
13.05,1,3,10,15,1,1,0,0
13.055,2,11,27,7,1,0,1,1
13.06,3,14,29,13,5,4,3,3
13.065,4,3,13,18,4,3,2,3
13.07,3,6,12,14,3,4,2,3
13.075,1,1,3,2,1,5,2,1
13.08,1,4,25,12,1,1,0,1
13.085,2,1,15,11,8,3,3,1
13.09,2,7,12,5,2,2,0,2
13.095,2,1,2,5,2,1,1,1
13.1,0,4,35,4,1,2,0,0
13.105,4,5,12,15,5,3,1,2
13.11,8,10,32,28,7,4,4,7
13.115,1,7,2,12,4,1,2,1
13.12,2,5,22,9,4,1,0,0
13.125,1,6,10,4,1,1,0,0
13.13,1,5,20,18,1,1,2,0
13.135,4,5,13,17,6,2,0,2
13.14,5,13,2,16,3,1,1,2
13.145,1,12,4,3,1,1,1,1
13.15,2,7,26,3,1,2,1,1
13.155,2,14,49,7,1,1,2,3
13.16,1,9,29,9,5,4,3,1
13.165,6,16,32,24,8,4,3,5
13.17,1,10,16,15,1,1,2,1
13.175,2,4,30,7,5,3,2,2
13.18,3,9,8,1,1,0,0,1
13.185,5,15,19,14,2,1,2,3
13.19,3,3,9,2,1,1,1,0
13.195,3,0,5,11,7,4,2,1
13.2,3,1,3,3,4,1,0,2
13.205,1,2,22,7,3,0,0,1
13.21,1,2,7,1,1,1,0,1
13.215,1,7,26,20,1,2,1,1
13.22,3,11,21,7,2,4,3,1
13.225,1,4,29,6,0,3,1,2
13.23,8,23,42,6,6,4,2,6
13.235,0,1,4,15,2,3,2,0
13.24,3,7,29,10,1,1,2,1
13.245,1,2,5,8,1,2,1,1
13.25,1,5,24,6,1,0,0,0
13.255,0,8,6,10,0,1,2,0
13.26,9,31,56,35,7,1,3,4
13.265,2,6,2,2,0,1,1,0
13.27,3,15,10,0,0,3,1,4
13.275,6,4,4,6,4,3,3,2
13.28,2,14,36,13,1,1,3,0
13.285,3,22,42,9,0,1,2,0
13.29,3,13,29,3,5,4,3,1
13.295,3,1,4,10,1,0,0,1
13.3,2,9,26,6,1,2,0,2
13.305,3,9,7,5,0,3,1,9
13.31,6,1,1,2,3,1,2,10
13.315,2,9,20,5,2,2,0,2
13.32,2,0,13,11,2,2,4,2
13.325,2,5,1,14,7,2,1,2
13.33,4,4,1,6,0,1,1,3
13.335,1,3,1,2,1,0,1,1
13.34,1,0,8,10,6,2,2,1
13.345,1,1,5,0,4,3,4,2
13.35,1,4,21,9,10,6,7,4
13.355,0,1,1,10,2,2,5,0
13.36,1,0,11,6,0,0,1,1
13.365,0,1,3,7,2,2,2,3
13.37,1,3,2,3,1,5,4,0
13.375,0,1,3,1,5,10,8,3
13.38,0,1,8,1,4,3,2,2
13.385,1,2,3,1,0,4,5,1
13.39,1,1,6,3,1,0,0,2
13.395,0,3,1,0,1,3,4,2
13.4,0,1,0,0,1,3,7,2
13.405,1,1,6,6,5,1,2,2
13.41,4,2,16,16,3,2,1,4
13.415,0,4,5,3,3,5,2,0
13.42,1,1,6,3,4,6,5,3
13.425,2,2,13,19,4,1,1,0
13.43,2,1,22,12,4,4,3,2
13.435,2,1,1,10,2,0,2,2
13.44,2,5,27,8,2,3,5,2
13.445,4,4,21,3,3,2,1,2
13.45,1,0,9,12,4,1,1,2
13.455,1,2,2,1,1,1,1,0
13.46,2,1,14,0,5,4,4,4
13.465,1,0,3,1,3,2,3,1
13.47,1,2,7,6,1,1,2,1
13.475,2,2,7,9,1,1,2,0
13.48,0,3,11,0,4,3,1,3
13.485,1,1,3,9,0,1,1,1
13.49,1,0,7,0,0,1,1,2
13.495,0,4,20,14,1,0,1,1
13.5,2,6,25,15,6,2,4,3
13.505,0,5,11,3,3,2,4,1
13.51,1,5,11,1,1,4,2,1
13.515,0,2,7,6,2,1,1,1
13.52,1,0,9,2,3,4,3,3
13.525,1,1,20,9,3,3,3,2
13.53,1,1,9,0,1,1,0,1
13.535,0,3,3,3,2,0,1,0
13.54,0,4,21,4,2,1,1,0
13.545,1,6,17,2,1,0,1,0
13.55,1,3,3,4,4,5,2,2
13.555,3,3,20,6,3,1,1,1
13.56,4,2,4,1,1,2,3,0
13.565,0,1,12,1,1,1,1,1
13.57,2,0,10,5,0,0,2,2
13.575,0,4,1,4,1,0,1,1
13.58,1,3,15,13,0,0,1,2
13.585,2,3,7,18,1,2,1,0
13.59,5,6,21,21,4,3,4,3
13.595,2,10,6,0,0,0,1,2
13.6,0,2,2,3,2,0,0,0
13.605,1,0,11,10,3,4,3,1
13.61,2,2,9,5,2,1,1,0
13.615,0,1,8,5,2,1,1,1
13.62,2,3,2,1,5,1,1,0
13.625,1,2,8,9,0,2,2,1
13.63,1,1,2,3,0,0,1,0
13.635,4,5,19,19,7,6,3,7
13.64,2,0,4,1,3,1,4,3
13.645,1,1,6,2,3,2,3,1
13.65,2,4,21,4,1,1,1,3
13.655,5,1,1,1,1,1,1,11
13.66,4,3,10,7,2,4,4,8
13.665,1,1,10,2,0,0,1,0
13.67,0,2,8,2,3,0,3,0
13.675,2,1,1,2,1,2,1,0
13.68,3,5,13,9,1,2,3,5
13.685,1,4,10,7,0,1,1,4
13.69,0,0,9,4,4,4,5,3
13.695,3,2,16,2,4,1,2,3
13.7,0,0,6,1,9,7,6,3
13.705,7,1,12,6,0,1,1,2
13.71,8,2,8,2,1,0,2,0
13.715,1,0,15,3,5,6,3,3
13.72,3,2,13,1,8,4,6,6
13.725,1,3,7,11,1,0,1,0
13.73,2,2,8,10,3,0,2,1
13.735,1,2,2,7,3,3,4,0
13.74,1,3,3,3,4,2,2,3
13.745,4,1,8,3,0,2,0,5
13.75,0,2,1,7,4,4,3,6
13.755,2,0,2,3,5,2,4,9
13.76,3,2,8,7,4,6,3,3
13.765,1,4,3,2,5,2,2,2
13.77,3,2,3,13,2,2,3,1
13.775,0,3,24,19,8,3,1,3
13.78,1,0,9,7,5,4,3,2
13.785,2,3,12,9,1,2,2,3
13.79,3,0,11,1,5,8,5,1
13.795,2,2,11,4,4,1,0,4
13.8,3,0,12,5,1,2,0,1
13.805,3,5,9,7,4,4,2,3
13.81,2,6,20,8,4,4,3,1
13.815,0,3,16,7,0,2,2,0
13.82,1,1,2,0,0,1,1,1
13.825,0,4,18,4,1,2,1,1
13.83,1,1,14,1,1,0,1,0
13.835,2,6,16,10,5,4,5,1
13.84,1,1,4,1,2,2,2,2
13.845,1,0,5,2,2,1,1,2
13.85,4,2,1,2,2,2,2,5
13.855,4,2,5,2,2,3,3,4
13.86,4,0,1,5,1,1,2,8
13.865,2,1,14,5,3,2,5,4
13.87,2,3,1,12,6,4,6,3
13.875,0,0,13,9,3,1,1,3
13.88,3,6,25,14,6,1,1,2
13.885,0,4,11,11,6,3,5,0
13.89,1,3,5,4,2,4,2,5
13.895,0,5,24,9,2,1,1,1
13.9,1,6,24,5,1,1,2,2
13.905,0,2,10,10,3,2,3,5
13.91,3,6,44,30,7,3,3,2
13.915,2,2,7,7,1,1,0,1
13.92,2,4,2,13,5,4,3,5
13.925,2,1,13,9,4,4,3,2
13.93,1,2,5,4,5,0,0,4
13.935,4,3,4,2,5,2,2,1
13.94,0,4,4,4,1,1,0,1
13.945,0,5,20,16,4,4,3,2
13.95,0,0,20,7,0,1,2,1
13.955,3,3,20,3,1,0,0,3
13.96,2,0,13,6,3,2,2,1
13.965,2,3,2,5,3,4,3,2
13.97,2,1,10,4,3,0,1,2
13.975,2,1,7,5,8,7,6,4
13.98,4,2,8,6,4,5,3,2
13.985,2,0,8,7,5,3,4,1
13.99,1,0,9,3,1,2,0,1
13.995,0,1,4,6,0,1,1,2
14,1,1,1,0,2,0,2,1
14.005,1,0,2,0,5,5,6,1
14.01,3,1,4,1,3,2,1,1
14.015,2,1,1,2,1,1,0,1
14.02,0,2,5,3,3,1,1,0
14.025,0,2,16,8,1,1,1,1
14.03,5,5,6,2,5,5,2,2
14.035,2,5,24,8,2,4,2,3
14.04,1,1,6,4,2,1,1,0
14.045,0,0,6,3,0,1,2,0
14.05,1,1,7,0,0,1,1,2
14.055,1,0,25,4,1,1,0,0
14.06,1,1,1,2,4,1,3,2
14.065,1,3,3,6,1,3,3,1
14.07,1,2,12,11,1,0,2,0
14.075,0,2,27,8,4,1,0,0
14.08,3,4,4,7,0,4,2,0
14.085,3,2,6,11,4,0,1,2
14.09,3,0,2,1,0,3,2,5
14.095,0,0,2,3,3,2,2,2
14.1,1,0,5,2,1,0,0,2
14.105,0,3,4,1,5,3,4,1
14.11,0,2,11,5,2,1,1,1
14.115,3,6,26,8,4,3,2,1
14.12,2,0,6,3,2,3,0,4
14.125,1,3,1,1,4,2,5,1
14.13,1,2,5,2,2,2,2,1
14.135,1,1,11,4,0,1,0,1
14.14,2,0,4,2,1,3,0,0
14.145,1,1,8,6,4,3,1,4
14.15,2,2,6,2,5,6,6,2
14.155,0,3,27,14,9,2,1,2
14.16,1,1,5,2,4,0,2,0
14.165,0,1,12,4,4,3,2,1
14.17,2,2,2,7,2,3,1,0
14.175,3,1,14,7,1,0,1,0
14.18,0,2,22,15,5,3,5,1
14.185,2,1,6,3,5,3,1,0
14.19,0,2,4,3,1,1,0,0
14.195,3,1,3,9,4,2,1,5
14.2,1,2,1,5,1,1,2,1
14.205,1,2,3,5,1,4,2,2
14.21,0,0,7,1,3,1,2,0
14.215,1,5,15,8,4,1,0,0
14.22,4,7,28,12,4,2,4,5
14.225,0,0,8,1,1,2,1,1
14.23,0,3,5,0,1,0,1,1
14.235,0,1,6,4,1,0,0,0
14.24,1,2,16,7,1,3,1,2
14.245,1,1,6,2,2,0,2,2
14.25,4,5,19,13,5,2,3,3
14.255,2,4,4,3,1,2,3,1
14.26,1,0,3,1,1,1,1,1
14.265,2,1,7,2,5,1,3,1
14.27,0,2,9,4,0,0,0,1
14.275,3,2,10,2,7,4,1,7
14.28,1,2,14,0,4,3,3,1
14.285,1,1,2,5,2,4,2,2
14.29,2,3,18,9,5,4,2,3
14.295,1,2,5,4,1,0,2,1
14.3,0,3,11,10,3,4,2,0
14.305,1,0,8,6,0,2,2,1
14.31,3,4,5,6,3,4,3,3
14.315,2,5,12,5,3,1,1,0
14.32,1,0,2,2,0,1,0,1
14.325,2,2,4,1,2,3,3,1
14.33,1,0,9,6,1,0,1,0
14.335,3,1,10,7,3,4,2,0
14.34,2,2,2,1,3,2,2,4
14.345,1,0,8,7,0,2,0,1
14.35,0,3,12,5,4,1,2,2
14.355,0,1,4,1,3,3,1,1
14.36,0,3,38,13,1,2,2,1
14.365,6,2,13,1,1,1,2,5
14.37,0,1,3,5,1,2,4,3
14.375,1,4,12,11,2,4,2,1
14.38,1,0,1,4,1,2,1,1
14.385,0,4,4,5,4,3,3,3
14.39,2,3,20,11,3,4,3,1
14.395,3,1,5,1,3,1,3,0
14.4,3,0,6,1,6,7,2,1
14.405,2,2,8,2,1,2,1,2
14.41,1,1,4,3,2,0,2,0
14.415,1,0,6,1,1,0,0,0
14.42,0,0,4,1,0,1,1,0
14.425,1,3,12,2,0,1,2,0
14.43,1,0,2,2,2,4,4,2
14.435,2,1,10,4,0,1,0,0
14.44,1,1,12,10,0,2,3,1
14.445,1,1,9,9,2,1,2,0
14.45,3,7,26,16,4,3,3,3
14.455,0,2,1,3,1,1,1,2
14.46,3,7,2,2,6,2,2,3
14.465,2,3,23,9,2,1,1,1
14.47,3,4,25,9,3,2,1,0
14.475,2,1,0,11,0,1,0,1
14.48,1,0,30,21,4,3,1,1
14.485,2,4,5,8,2,1,1,0
14.49,6,9,49,21,5,4,2,5
14.495,3,1,3,4,0,0,1,1
14.5,0,4,17,13,3,0,2,0
14.505,1,1,8,4,1,1,0,0
14.51,0,0,15,2,0,1,1,1
14.515,1,3,1,3,3,2,2,1
14.52,2,1,7,5,1,0,0,0
14.525,4,5,1,11,5,2,1,0
14.53,1,1,20,8,3,3,1,1
14.535,3,3,11,6,4,3,3,1
14.54,0,1,0,6,0,1,4,2
14.545,2,1,19,12,1,6,2,2
14.55,2,1,9,14,3,4,2,2
14.555,2,5,3,4,1,2,0,4
14.56,2,3,4,1,0,0,0,2
14.565,1,3,3,5,0,2,2,2
14.57,0,0,18,2,0,0,1,2
14.575,1,3,13,4,4,2,0,2
14.58,1,2,5,2,0,0,1,1
14.585,2,2,16,11,5,7,5,2
14.59,1,2,14,13,0,3,2,2
14.595,1,3,25,14,5,4,2,2
14.6,2,2,8,5,4,4,3,1
14.605,3,3,2,3,0,2,1,1
14.61,1,2,12,10,0,2,4,2
14.615,3,2,1,1,1,0,0,3
14.62,3,4,18,12,9,3,3,2
14.625,1,1,4,3,0,3,2,2
14.63,0,3,4,1,2,0,1,1
14.635,1,0,12,4,1,0,0,1
14.64,0,2,0,4,0,1,1,1
14.645,4,6,21,6,8,2,3,3
14.65,1,0,3,2,1,2,1,1
14.655,1,1,4,3,1,2,1,1
14.66,2,0,6,4,1,2,1,3
14.665,0,2,17,3,2,1,1,3
14.67,1,1,8,2,5,0,1,1
14.675,1,2,10,4,1,2,1,1
14.68,3,0,10,10,5,4,5,1
14.685,0,3,4,4,2,1,1,0
14.69,2,3,12,13,1,0,1,1
14.695,1,1,6,7,2,2,0,0
14.7,1,0,7,6,1,2,1,0
14.705,1,1,5,2,1,4,2,0
14.71,2,3,14,17,4,4,3,3
14.715,1,5,3,4,3,1,3,2
14.72,1,2,3,4,0,3,0,2
14.725,0,2,16,5,4,2,0,0
14.73,0,4,24,11,1,0,0,1
14.735,0,1,6,4,1,1,2,3
14.74,3,4,6,2,3,1,1,2
14.745,1,1,11,4,2,0,1,1
14.75,4,3,13,7,1,3,4,0
14.755,1,2,5,1,2,2,1,0
14.76,0,1,6,1,1,1,0,1
14.765,0,2,10,1,2,2,0,0
14.77,2,1,4,2,2,2,2,5
14.775,2,7,6,3,1,0,2,0
14.78,1,1,1,1,2,0,1,2
14.785,2,1,10,3,0,2,1,1
14.79,3,3,0,7,1,0,1,2
14.795,1,0,9,4,0,0,2,1
14.8,2,0,15,5,1,1,1,0
14.805,3,4,17,17,4,4,1,2
14.81,1,1,6,1,1,2,0,3
14.815,1,1,4,2,0,2,2,1
14.82,2,1,1,0,2,1,1,0
14.825,1,2,11,2,2,1,1,2
14.83,0,2,14,13,1,0,1,1
14.835,2,2,4,20,7,4,1,2
14.84,1,0,0,0,0,1,2,1
14.845,1,3,4,2,2,2,2,0
14.85,2,4,10,2,0,0,2,1
14.855,1,1,5,6,0,0,2,1
14.86,2,1,4,1,1,4,2,0
14.865,2,0,9,7,1,1,0,1
14.87,0,1,11,4,3,0,2,0
14.875,1,3,10,1,4,2,1,1
14.88,0,2,5,4,5,1,2,2
14.885,2,0,10,4,3,4,2,1
14.89,2,0,8,4,2,1,1,1
14.895,2,1,5,1,1,1,0,0
14.9,2,1,5,1,1,1,0,1
14.905,1,4,9,3,3,1,1,0
14.91,0,2,6,4,2,1,0,2
14.915,0,0,8,5,0,3,0,2
14.92,3,3,16,6,1,0,0,1
14.925,0,1,8,2,2,3,1,2
14.93,1,2,4,1,5,2,3,1
14.935,1,2,14,6,1,1,1,1
14.94,1,2,8,6,2,3,3,2
14.945,1,1,10,2,2,5,3,1
14.95,4,2,29,2,0,1,1,2
14.955,1,1,1,1,2,2,2,1
14.96,1,2,14,6,4,2,2,1
14.965,2,2,10,6,4,4,2,3
14.97,1,1,15,3,2,0,1,1
14.975,4,0,1,1,3,1,3,2
14.98,0,3,1,2,4,2,0,1
14.985,0,1,2,7,2,3,2,1
14.99,1,2,3,4,1,2,1,1
14.995,3,2,2,2,1,1,2,2
15,1,1,3,1,3,1,2,0
