31.505,1,2,4,4,3,7,2,1
31.51,1,3,1,1,0,5,1,2
31.515,2,3,4,2,1,1,1,1
31.52,1,1,2,1,4,5,2,3
31.525,0,1,2,3,10,9,4,4
31.53,2,1,10,4,1,6,1,1
31.535,2,0,0,5,9,9,6,2
31.54,1,0,7,0,0,0,3,1
31.545,3,0,7,4,3,2,2,0
31.55,1,2,5,6,4,7,4,1
31.555,1,0,4,2,1,1,2,0
31.56,4,5,10,14,6,1,3,3
31.565,1,3,4,3,0,2,1,0
31.57,0,1,2,1,4,2,1,2
31.575,1,1,3,0,2,1,1,0
31.58,1,1,3,3,1,5,0,0
31.585,0,0,13,6,1,5,0,2
31.59,2,4,7,2,0,4,2,3
31.595,1,0,1,6,7,4,3,3
31.6,0,1,2,1,4,5,1,0
31.605,2,2,2,5,3,2,3,1
31.61,0,1,5,7,3,3,3,1
31.615,1,2,1,2,6,2,3,2
31.62,0,1,9,2,1,4,4,2
31.625,0,1,4,10,10,11,6,1
31.63,1,1,1,2,2,11,1,1
31.635,2,2,2,5,12,5,4,1
31.64,1,1,0,2,3,6,1,1
31.645,1,0,10,7,5,1,1,2
31.65,1,1,5,0,4,9,3,0
31.655,1,4,1,7,10,3,4,3
31.66,1,4,2,1,1,3,2,0
31.665,2,4,3,0,4,5,2,0
31.67,2,1,6,3,2,2,0,2
31.675,1,3,1,3,3,5,0,1
31.68,1,0,1,2,4,2,0,1
31.685,2,0,6,2,5,3,3,3
31.69,1,5,6,6,3,17,4,1
31.695,2,3,5,2,3,16,1,2
31.7,0,1,3,1,3,5,1,1
31.705,2,2,2,1,1,2,1,1
31.71,1,1,0,3,2,4,3,2
31.715,1,3,5,6,10,9,5,1
31.72,0,1,9,0,3,2,3,1
31.725,0,2,7,2,9,5,3,2
31.73,1,2,4,3,3,1,1,1
31.735,2,1,0,6,6,1,3,0
31.74,1,1,2,1,1,2,3,1
31.745,0,1,4,2,7,4,2,1
31.75,1,2,2,1,3,1,1,0
31.755,2,1,0,1,2,4,1,1
31.76,1,0,2,1,2,7,0,1
31.765,1,3,1,0,2,2,1,0
31.77,1,1,1,3,2,1,0,2
31.775,1,3,6,2,2,5,3,1
31.78,1,1,8,2,3,1,3,1
31.785,1,0,2,5,1,4,2,1
31.79,1,1,5,0,6,3,3,1
31.795,3,2,4,10,10,14,6,2
31.8,2,1,2,2,7,6,5,3
31.805,1,0,0,4,10,10,4,1
31.81,1,2,3,3,2,1,0,0
31.815,1,1,11,2,2,1,2,1
31.82,1,2,3,7,15,11,8,6
31.825,1,3,1,2,3,5,3,1
31.83,1,1,2,2,2,5,3,1
31.835,0,1,2,4,0,1,1,1
31.84,2,5,11,5,5,3,1,0
31.845,2,2,9,8,7,4,0,1
31.85,2,2,2,0,2,6,5,3
31.855,1,0,5,2,3,5,2,0
31.86,1,0,3,2,5,2,1,0
31.865,0,2,1,2,2,0,3,2
31.87,2,4,9,0,2,6,1,1
31.875,2,2,1,4,1,5,1,2
31.88,0,3,0,2,1,10,5,4
31.885,1,2,4,1,5,1,0,0
31.89,2,1,2,1,8,9,2,3
31.895,0,1,3,3,4,2,2,1
31.9,2,1,4,5,1,1,3,2
31.905,2,1,5,1,7,9,5,2
31.91,2,2,10,10,6,1,3,1
31.915,0,1,7,3,2,1,2,1
31.92,1,4,1,3,5,4,3,1
31.925,2,1,0,0,1,3,3,1
31.93,1,1,4,0,2,0,1,2
31.935,0,1,2,7,6,2,2,0
31.94,1,2,5,12,3,1,1,1
31.945,1,2,6,3,5,5,3,3
31.95,2,0,1,2,3,4,1,0
31.955,0,0,1,1,1,3,2,1
31.96,2,1,7,6,5,4,3,1
31.965,4,3,9,4,3,2,0,3
31.97,2,4,8,6,6,10,6,2
31.975,2,3,4,0,6,3,4,3
31.98,2,0,7,5,7,1,2,2
31.985,1,2,8,3,4,0,1,2
31.99,2,1,9,5,1,2,1,0
31.995,1,1,5,1,0,0,0,0
32,0,1,5,1,0,2,0,1
32.005,1,1,2,0,1,4,0,1
32.01,3,3,1,3,4,3,2,1
32.015,1,0,3,4,2,2,2,1
32.02,0,1,1,2,2,11,5,1
32.025,0,0,1,0,5,6,3,3
32.03,1,3,1,5,7,5,4,2
32.035,2,2,1,2,1,1,1,1
32.04,2,1,2,1,0,3,2,4
32.045,3,5,7,10,6,4,1,1
32.05,1,2,3,1,7,4,1,0
32.055,1,2,1,1,5,10,1,1
32.06,1,0,0,3,4,6,2,0
32.065,2,2,5,1,3,1,2,3
32.07,1,1,9,10,2,0,2,0
32.075,2,4,19,19,3,7,1,1
32.08,0,1,1,1,2,6,0,0
32.085,1,0,1,0,2,6,1,0
32.09,1,0,4,1,4,2,2,1
32.095,3,5,15,2,3,3,3,4
32.1,0,1,4,7,4,1,0,2
32.105,0,3,12,11,0,1,0,0
32.11,1,1,3,1,5,1,2,2
32.115,0,0,6,2,2,2,2,1
32.12,1,1,4,1,0,5,3,1
32.125,2,1,6,5,9,5,2,2
32.13,2,3,1,5,6,1,3,3
32.135,1,1,4,4,0,2,1,2
32.14,2,2,0,0,6,4,1,2
32.145,1,0,2,3,3,3,2,1
32.15,1,1,11,9,4,7,4,3
32.155,0,0,7,7,5,6,1,0
32.16,0,2,3,5,2,5,2,1
32.165,0,1,4,3,1,3,0,2
32.17,4,4,10,8,6,8,4,3
32.175,1,0,10,1,7,0,1,1
32.18,0,0,1,5,5,2,3,1
32.185,1,1,3,3,2,2,3,2
32.19,0,1,3,1,1,4,1,0
32.195,0,1,4,1,2,6,4,1
32.2,1,4,12,10,1,2,4,2
32.205,0,2,4,1,7,1,2,1
32.21,1,2,4,3,7,1,2,0
32.215,0,0,2,2,2,4,1,1
32.22,0,1,4,2,7,14,4,3
32.225,1,4,4,5,4,6,1,3
32.23,0,1,6,3,1,3,2,1
32.235,1,3,5,3,1,3,1,1
32.24,3,0,1,1,8,11,0,0
32.245,1,1,2,4,1,8,1,1
32.25,3,3,1,4,3,4,2,0
32.255,1,1,1,1,1,2,1,0
32.26,1,1,4,3,3,7,5,4
32.265,5,7,24,23,13,10,6,4
32.27,0,1,1,4,1,6,1,2
32.275,3,0,10,4,1,2,1,3
32.28,2,0,3,3,5,5,0,1
32.285,1,2,3,4,0,1,1,0
32.29,2,4,14,10,4,7,4,2
32.295,2,2,4,0,5,6,4,2
32.3,0,2,2,2,1,2,1,0
32.305,1,0,8,4,4,1,1,1
32.31,0,1,4,3,3,4,2,3
32.315,2,2,3,3,7,4,0,1
32.32,2,2,13,9,1,3,1,2
32.325,1,0,5,3,1,5,1,3
32.33,0,0,2,3,0,6,0,2
32.335,1,0,1,1,9,1,2,2
32.34,2,1,5,5,5,5,3,1
32.345,1,1,3,1,0,2,1,1
32.35,2,1,1,2,4,2,0,1
32.355,1,3,0,5,3,6,4,1
32.36,0,2,3,3,2,1,2,0
32.365,0,1,5,2,3,7,2,0
32.37,0,1,4,8,5,6,1,1
32.375,1,3,3,6,2,1,1,3
32.38,3,2,4,0,1,9,2,2
32.385,0,0,1,3,2,4,3,0
32.39,1,1,1,4,3,3,2,0
32.395,1,0,5,2,5,8,1,0
32.4,2,2,0,1,1,5,1,0
32.405,2,1,5,2,5,3,3,3
32.41,2,2,2,1,0,1,1,2
32.415,2,1,5,4,4,7,6,2
32.42,1,1,2,1,3,1,2,4
32.425,0,1,0,1,2,1,1,1
32.43,1,1,4,1,2,0,1,0
32.435,2,3,12,3,3,5,5,3
32.44,1,3,5,1,3,6,3,1
32.445,1,7,11,4,1,2,0,3
32.45,2,2,5,2,1,4,1,1
32.455,1,2,5,2,11,7,4,1
32.46,2,2,3,1,8,3,2,1
32.465,2,0,4,1,3,5,4,2
32.47,0,0,3,3,2,8,6,2
32.475,0,2,11,1,1,7,3,1
32.48,1,3,5,3,1,1,1,0
32.485,1,1,9,6,5,4,3,2
32.49,1,1,5,4,1,4,1,0
32.495,1,3,5,1,3,1,4,2
32.5,1,1,1,2,4,1,0,0
32.505,1,0,5,4,4,1,1,1
32.51,1,1,3,1,2,3,1,2
32.515,2,3,9,8,5,9,2,1
32.52,0,2,2,4,2,7,1,1
32.525,2,3,3,4,9,7,0,1
32.53,0,1,3,6,7,6,2,0
32.535,2,2,3,5,4,3,3,1
32.54,1,1,3,5,6,6,3,3
32.545,3,0,6,1,7,9,3,3
32.55,2,4,13,9,7,4,2,1
32.555,3,0,1,2,1,0,1,1
32.56,0,2,1,2,2,1,1,0
32.565,1,1,8,0,5,11,2,1
32.57,1,0,1,0,1,15,0,2
32.575,2,1,11,3,1,8,4,2
32.58,3,1,10,5,5,3,2,2
32.585,2,2,2,2,4,2,2,2
32.59,3,3,1,1,2,9,4,3
32.595,1,1,9,9,7,2,1,1
32.6,2,2,11,6,2,6,0,1
32.605,0,3,4,9,3,11,0,2
32.61,0,0,4,3,8,1,2,0
32.615,0,0,10,4,1,0,1,1
32.62,1,3,5,4,4,5,2,1
32.625,0,0,1,0,3,0,0,3
32.63,0,2,6,4,10,5,2,2
32.635,1,0,4,2,2,1,2,1
32.64,1,1,6,3,7,2,0,1
32.645,2,1,1,7,6,4,0,3
32.65,1,3,5,4,2,3,2,1
32.655,2,1,1,1,3,3,4,2
32.66,1,1,1,1,2,3,0,2
32.665,2,0,1,5,1,1,1,1
32.67,2,0,2,2,3,2,3,1
32.675,4,4,6,7,0,1,1,0
32.68,1,0,2,1,1,2,1,1
32.685,0,2,1,3,3,8,4,2
32.69,1,1,1,2,1,0,3,1
32.695,1,1,6,8,3,2,2,1
32.7,3,5,4,0,2,3,1,0
32.705,3,1,6,6,0,2,1,1
32.71,3,2,10,9,2,1,1,1
32.715,1,1,5,2,2,7,4,1
32.72,2,1,4,0,1,1,0,0
32.725,1,0,6,3,4,5,1,1
32.73,2,3,5,0,1,6,2,2
32.735,1,1,1,3,1,10,2,0
32.74,1,3,3,4,5,7,1,2
32.745,1,2,0,4,0,1,1,1
32.75,2,1,2,1,0,4,0,0
32.755,0,2,7,4,3,1,3,3
32.76,2,0,4,3,4,15,2,2
32.765,1,0,1,1,1,10,2,0
32.77,1,2,3,2,2,3,0,0
32.775,1,1,2,3,4,7,2,1
32.78,0,2,3,3,1,7,5,2
32.785,0,1,6,6,7,5,1,2
32.79,1,3,2,2,4,5,1,1
32.795,2,0,9,3,1,5,3,2
32.8,3,6,8,4,1,3,1,1
32.805,1,3,0,5,6,3,2,0
32.81,2,3,1,1,5,2,4,1
32.815,1,1,4,1,4,2,1,0
32.82,3,3,7,5,4,0,2,2
32.825,1,2,2,0,4,4,4,2
32.83,0,1,4,0,12,1,3,1
32.835,1,1,4,1,8,4,1,2
32.84,1,1,3,2,1,1,2,2
32.845,3,3,2,3,1,6,3,0
32.85,0,2,9,0,2,4,3,1
32.855,0,0,3,3,2,0,0,1
32.86,2,0,7,10,5,1,1,3
32.865,0,3,12,5,3,2,4,1
32.87,1,0,6,4,1,9,6,4
32.875,2,2,0,2,1,5,1,4
32.88,0,1,5,2,7,3,3,0
32.885,2,2,10,6,2,5,1,2
32.89,2,2,0,2,3,4,1,2
32.895,0,2,7,2,1,2,2,0
32.9,0,3,2,0,0,4,3,0
32.905,2,4,3,0,3,3,4,0
32.91,1,1,6,1,4,0,2,2
32.915,1,5,6,1,1,0,1,3
32.92,3,1,6,1,4,5,2,1
32.925,0,0,7,5,6,3,4,2
32.93,2,4,11,7,0,2,1,2
32.935,2,0,1,3,1,5,0,1
32.94,0,0,1,3,3,1,1,1
32.945,0,2,2,3,2,2,2,2
32.95,1,1,3,1,2,9,4,2
32.955,1,5,6,2,12,7,4,1
32.96,0,1,4,0,4,7,4,0
32.965,1,3,6,2,4,7,2,2
32.97,0,1,1,4,6,3,5,2
32.975,2,1,9,2,6,5,1,0
32.98,2,2,3,1,3,4,2,1
32.985,3,1,3,6,1,1,0,1
32.99,2,1,2,3,3,6,3,1
32.995,0,0,4,1,4,3,3,2
33,1,0,3,2,2,0,1,1
33.005,1,0,1,1,1,3,2,0
33.01,1,1,6,5,2,3,1,1
33.015,2,0,8,3,3,1,2,1
33.02,1,1,0,5,3,4,2,3
33.025,1,2,1,2,4,2,3,3
33.03,2,0,12,7,8,5,2,4
33.035,0,2,6,1,3,2,0,0
33.04,1,0,1,3,5,5,4,1
33.045,0,1,2,1,0,3,0,2
33.05,1,1,1,0,0,5,0,1
33.055,3,1,6,4,3,6,1,2
33.06,1,1,1,1,1,0,1,3
33.065,1,1,1,1,0,3,1,3
33.07,1,1,6,4,2,2,3,2
33.075,0,2,3,4,3,0,2,1
33.08,4,1,4,1,1,5,2,1
33.085,3,2,10,2,4,0,2,2
33.09,2,1,1,1,2,1,1,0
33.095,0,2,3,0,5,4,2,4
33.1,1,3,3,0,3,5,0,0
33.105,0,2,2,1,1,5,1,2
33.11,2,4,5,0,1,8,2,1
33.115,1,1,4,3,2,0,0,1
33.12,1,1,4,4,3,7,3,3
33.125,0,3,1,1,11,1,3,0
33.13,2,0,2,0,5,0,3,0
33.135,1,2,1,2,2,3,1,1
33.14,1,2,1,1,2,1,1,2
33.145,3,2,2,2,1,4,4,2
33.15,1,1,3,3,4,1,3,1
33.155,1,0,4,3,1,0,3,2
33.16,0,2,6,7,5,1,0,1
33.165,0,0,3,0,4,3,0,0
33.17,0,1,0,1,6,0,2,1
33.175,1,0,4,5,0,5,2,1
33.18,1,2,9,1,5,0,1,0
33.185,2,2,6,5,2,5,1,1
33.19,1,1,3,1,1,3,0,0
33.195,0,1,1,3,2,3,3,1
33.2,2,1,1,4,6,10,6,3
33.205,3,3,6,0,0,6,0,2
33.21,1,3,2,2,1,0,0,0
33.215,3,1,1,4,1,8,2,2
33.22,0,0,4,1,1,2,2,1
33.225,1,1,3,3,2,3,3,3
33.23,2,0,4,2,5,3,3,2
33.235,1,1,7,3,5,0,3,1
33.24,0,0,1,2,1,0,0,1
33.245,0,0,1,0,0,2,2,0
33.25,1,1,1,3,1,4,1,4
33.255,1,2,6,2,1,1,0,2
33.26,2,1,1,2,2,5,2,0
33.265,1,0,0,1,3,5,1,2
33.27,0,2,5,0,2,3,1,0
33.275,4,3,4,4,5,1,1,2
33.28,1,1,2,0,2,1,3,0
33.285,0,3,1,0,1,3,1,2
33.29,0,1,0,1,4,5,3,1
33.295,1,3,6,4,1,1,0,1
33.3,1,2,5,3,1,3,0,1
33.305,3,1,7,7,3,0,0,1
33.31,4,3,0,2,3,3,3,5
33.315,3,0,1,1,1,2,0,3
33.32,7,1,10,4,4,4,4,6
33.325,1,2,14,0,3,0,3,2
33.33,1,4,10,2,1,1,1,2
33.335,0,1,3,0,3,0,0,2
33.34,5,1,8,2,2,2,1,3
33.345,0,3,8,2,1,1,2,1
33.35,4,1,6,2,1,3,0,3
33.355,4,6,24,18,4,4,1,5
33.36,0,9,33,29,8,6,5,3
33.365,2,0,13,1,1,0,3,5
33.37,1,5,27,18,5,6,4,4
33.375,2,2,5,5,3,3,2,3
33.38,1,5,26,21,7,3,4,1
33.385,4,2,6,16,4,4,4,4
33.39,1,2,9,15,3,3,0,0
33.395,6,10,42,33,10,7,2,5
33.4,2,0,5,5,1,1,4,2
33.405,3,0,2,7,2,1,3,6
33.41,4,6,46,22,3,3,4,3
33.415,1,7,45,30,9,2,2,5
33.42,3,1,51,22,3,0,1,2
33.425,2,0,68,35,8,5,1,0
33.43,0,2,28,3,0,5,2,0
33.435,1,6,35,24,3,1,1,1
33.44,7,7,34,4,4,2,0,7
33.445,1,5,6,21,7,5,4,2
33.45,3,1,24,7,3,0,0,4
33.455,1,6,12,23,9,8,5,2
33.46,5,9,9,26,9,7,3,1
33.465,4,11,3,25,0,2,0,1
33.47,2,3,15,9,1,0,1,1
33.475,6,7,0,0,5,6,3,4
33.48,2,10,47,10,9,1,0,0
33.485,3,11,41,9,2,7,1,0
33.49,8,7,19,4,15,15,9,8
33.495,1,5,12,25,7,0,0,0
33.5,5,7,6,14,5,4,3,4
33.505,7,24,49,2,6,1,1,4
33.51,13,43,124,34,10,2,4,8
33.515,2,3,71,45,4,2,2,2
33.52,9,18,40,30,16,9,6,7
33.525,1,1,33,32,8,2,1,0
33.53,8,17,20,4,8,7,3,4
33.535,0,1,58,45,5,4,3,0
33.54,1,1,34,10,1,6,3,2
33.545,3,3,79,90,3,1,1,4
33.55,8,2,78,86,4,11,4,7
33.555,0,6,41,45,14,4,0,1
33.56,6,6,16,23,3,5,4,3
33.565,3,1,38,27,2,4,3,7
33.57,9,2,82,49,1,7,4,12
33.575,2,0,31,49,1,2,2,0
33.58,3,5,34,84,7,2,1,4
33.585,2,2,0,26,9,5,4,3
33.59,3,4,3,1,3,3,1,3
33.595,0,6,6,38,0,0,1,0
33.6,13,29,10,33,13,12,7,11
33.605,21,39,50,50,38,21,14,14
33.61,7,25,113,72,19,4,2,3
33.615,2,11,123,128,19,0,2,0
33.62,2,13,59,36,18,1,3,1
33.625,4,14,88,82,1,3,1,3
33.63,0,8,16,29,3,0,0,1
33.635,10,21,14,35,18,14,10,7
33.64,8,5,77,61,2,6,6,4
33.645,21,26,3,26,28,19,15,15
33.65,22,50,78,18,21,10,10,13
33.655,2,21,107,113,28,3,4,3
33.66,3,25,32,14,17,3,3,3
33.665,14,14,36,68,22,25,16,12
33.67,12,29,53,54,6,11,8,7
33.675,7,1,81,46,10,14,8,5
33.68,2,8,4,47,1,5,1,2
33.685,3,8,92,53,3,8,8,2
33.69,13,30,79,58,16,7,7,7
33.695,21,26,37,41,30,11,14,17
33.7,31,81,80,73,48,20,19,18
33.705,2,6,43,49,6,7,3,1
33.71,19,48,106,128,31,19,14,11
33.715,30,48,50,67,36,30,19,27
33.72,6,25,26,37,28,1,0,2
33.725,7,24,10,2,4,3,3,5
33.73,18,54,79,39,22,16,9,9
33.735,19,58,25,58,22,2,4,7
33.74,72,113,59,63,91,55,40,40
33.745,33,73,2,46,58,27,19,23
33.75,2,45,97,81,13,0,1,5
33.755,1,3,98,81,10,1,2,2
33.76,12,10,25,51,27,4,2,3
33.765,18,25,63,105,15,12,8,12
33.77,21,59,86,23,27,25,15,14
33.775,13,13,4,90,15,4,6,10
33.78,32,57,88,68,9,2,8,24
33.785,13,44,66,16,6,10,3,10
33.79,12,78,25,61,41,30,16,19
33.795,25,46,73,54,71,42,20,8
33.8,42,91,2,35,23,30,24,42
33.805,23,71,100,115,41,29,17,14
33.81,9,7,61,24,3,10,5,8
33.815,17,63,118,7,21,27,21,15
33.82,14,43,97,96,48,16,11,10
33.825,19,11,34,28,27,13,12,12
33.83,37,111,128,128,95,43,26,18
33.835,7,38,102,60,47,21,14,4
33.84,30,34,92,77,33,18,14,24
33.845,16,48,35,52,63,23,15,16
33.85,3,28,60,41,36,11,11,6
33.855,22,67,4,80,2,17,3,15
33.86,31,55,109,59,32,5,10,17
33.865,34,128,34,10,18,10,12,19
33.87,42,116,116,13,36,23,21,25
33.875,26,79,76,37,15,3,10,16
33.88,7,7,67,9,21,13,5,11
33.885,13,27,24,47,9,6,5,1
33.89,71,89,116,110,76,43,33,48
33.895,5,5,21,32,9,16,3,0
33.9,37,70,127,81,52,42,28,30
33.905,57,106,85,59,97,45,31,33
33.91,27,62,61,107,44,27,14,6
33.915,53,82,40,73,52,43,34,36
33.92,20,2,40,18,3,12,8,14
33.925,25,96,95,52,40,28,21,19
33.93,23,45,94,60,72,40,30,10
33.935,20,11,32,6,13,22,12,5
33.94,1,19,51,41,23,3,5,4
33.945,16,69,45,32,17,3,2,7
33.95,23,21,7,25,48,21,20,18
33.955,1,1,28,39,11,1,2,3
33.96,33,89,128,1,1,16,16,28
33.965,11,56,29,75,17,6,2,4
33.97,20,43,20,59,0,4,4,15
33.975,27,60,103,0,18,7,9,15
33.98,11,3,113,68,5,17,9,7
33.985,3,24,18,31,5,13,6,2
33.99,10,42,10,40,2,5,5,2
33.995,6,5,16,19,15,12,10,7
34,20,31,39,47,3,4,6,14
34.005,7,19,45,64,3,1,2,2
34.01,8,52,21,15,3,8,9,6
34.015,2,11,23,46,14,1,0,3
34.02,1,4,51,1,4,1,1,3
34.025,22,83,127,44,15,10,4,10
34.03,22,41,64,30,34,18,12,18
34.035,15,27,44,62,35,17,11,7
34.04,39,79,118,29,33,24,23,27
34.045,28,61,18,42,11,11,11,16
34.05,2,26,94,14,3,1,1,2
34.055,4,21,2,39,7,14,6,4
34.06,3,5,45,38,19,3,4,3
34.065,11,2,55,67,9,12,16,10
34.07,4,16,12,33,15,6,4,2
34.075,8,31,23,10,5,0,0,2
34.08,6,18,31,22,17,11,9,1
34.085,5,15,13,19,2,2,0,2
34.09,5,23,27,28,13,9,8,7
34.095,1,8,0,10,11,13,11,1
34.1,3,12,50,24,5,5,3,2
34.105,1,1,5,45,18,10,9,7
34.11,8,24,60,53,27,21,19,8
34.115,0,10,75,26,2,7,7,3
34.12,4,33,49,25,11,7,6,2
34.125,2,11,18,14,0,5,1,5
34.13,10,14,6,16,4,2,0,4
34.135,16,12,10,3,1,7,6,13
34.14,15,7,10,5,3,2,1,8
34.145,14,4,5,13,3,0,3,9
34.15,3,10,19,14,1,1,1,6
34.155,5,2,29,5,6,4,6,8
34.16,1,3,15,22,10,5,4,8
34.165,7,3,26,16,4,3,6,7
34.17,5,5,0,3,4,2,3,2
34.175,2,9,8,14,2,0,5,9
34.18,12,5,56,41,1,1,5,0
34.185,0,4,8,16,0,2,2,3
34.19,1,3,10,14,5,3,0,3
34.195,4,9,34,18,4,2,3,5
34.2,8,1,24,0,6,3,4,1
34.205,4,3,11,6,3,4,2,3
34.21,6,4,5,10,8,5,5,4
34.215,1,3,28,3,9,10,6,1
34.22,6,12,4,1,0,2,5,3
34.225,3,13,18,26,8,5,2,0
34.23,1,1,17,2,0,4,1,3
34.235,3,3,5,6,5,5,6,11
34.24,12,0,3,1,4,1,3,0
34.245,12,7,10,2,1,0,3,5
34.25,0,9,9,9,2,1,2,9
34.255,4,4,7,9,3,5,2,22
34.26,14,3,5,11,2,7,8,9
34.265,22,5,5,7,2,3,27,2
34.27,5,9,13,7,7,8,47,1
34.275,5,1,4,2,4,9,30,9
34.28,32,3,11,12,1,3,4,1
34.285,41,2,3,2,1,0,9,8
34.29,7,15,11,2,3,2,3,16
34.295,0,6,4,8,3,1,4,4
34.3,6,4,5,2,1,16,8,0
34.305,10,2,8,1,4,19,20,4
34.31,3,0,3,3,1,3,4,1
34.315,13,2,1,1,6,6,6,4
34.32,22,8,8,7,6,5,4,1
34.325,12,2,2,1,5,10,13,3
34.33,16,5,0,3,6,2,5,18
34.335,8,1,6,2,0,1,1,15
34.34,11,1,1,2,1,0,4,26
34.345,27,4,3,1,0,4,12,9
34.35,7,5,0,2,0,1,0,3
34.355,9,0,2,6,6,4,8,10
34.36,2,3,8,6,2,1,10,4
34.365,6,7,14,2,1,2,7,0
34.37,13,9,24,6,2,1,5,16
34.375,13,3,1,1,3,1,4,13
34.38,0,4,9,3,1,1,3,4
34.385,4,12,20,1,3,3,4,8
34.39,11,13,21,1,3,5,4,16
34.395,12,2,10,4,4,0,3,11
34.4,3,1,9,3,2,1,3,3
34.405,1,8,13,1,2,3,2,3
34.41,1,4,21,1,4,3,3,4
34.415,5,9,31,3,4,2,3,1
34.42,2,7,12,5,2,1,1,1
34.425,38,2,3,2,0,1,2,23
34.43,8,6,3,1,2,1,4,4
34.435,5,2,12,2,1,3,3,9
34.44,14,7,19,6,1,4,1,8
34.445,14,8,34,2,2,3,6,4
34.45,4,12,45,8,4,1,2,5
34.455,8,6,6,3,0,2,5,2
34.46,9,10,4,1,2,1,2,3
34.465,7,8,14,1,1,4,6,1
34.47,6,2,9,5,6,2,2,2
34.475,4,11,13,2,0,3,1,5
34.48,2,2,13,1,2,1,1,1
34.485,1,2,1,2,4,2,1,5
34.49,5,24,17,1,3,2,3,2
34.495,0,7,3,8,3,2,1,2
34.5,3,7,7,3,3,1,2,0
34.505,2,3,3,5,4,1,2,1
34.51,7,7,11,7,1,1,2,4
34.515,7,10,10,1,2,5,6,9
34.52,3,11,20,6,2,1,1,1
34.525,12,11,44,15,11,7,6,1
34.53,0,16,20,6,13,7,4,2
34.535,0,3,12,1,7,2,1,1
34.54,6,1,12,2,0,4,4,2
34.545,6,3,8,0,3,1,2,2
34.55,3,12,19,3,6,1,0,2
34.555,4,5,5,2,5,2,2,0
34.56,5,1,2,1,3,2,3,0
34.565,1,1,4,0,1,3,1,2
34.57,4,0,4,2,1,3,5,4
34.575,4,3,22,1,1,4,1,1
34.58,1,2,8,0,3,3,2,3
34.585,1,3,2,2,5,3,3,3
34.59,2,4,6,0,1,0,1,0
34.595,0,2,2,2,1,1,1,3
34.6,0,0,3,1,0,3,4,2
34.605,1,0,16,2,2,1,3,2
34.61,1,5,20,1,2,2,1,1
34.615,0,2,13,16,9,5,5,3
34.62,3,0,5,1,0,2,1,3
34.625,0,12,27,8,2,3,2,3
34.63,0,2,1,8,2,3,3,3
34.635,1,7,17,9,1,1,0,3
34.64,3,12,32,13,4,2,1,2
34.645,3,0,5,3,1,3,2,1
34.65,1,2,5,3,0,1,2,0
34.655,4,6,14,1,0,2,1,1
34.66,1,1,8,5,1,1,2,0
34.665,3,5,13,2,1,0,0,1
34.67,2,1,3,1,1,2,2,2
34.675,0,2,4,2,2,2,0,0
34.68,1,2,1,4,7,6,4,0
34.685,1,1,3,1,1,3,0,3
34.69,1,0,6,5,2,1,0,0
34.695,2,2,6,5,2,3,2,2
34.7,5,11,5,1,2,0,2,3
34.705,1,1,0,1,3,4,2,2
34.71,0,3,7,2,1,3,2,3
34.715,1,1,3,5,2,1,0,3
34.72,3,2,2,4,4,4,4,1
34.725,1,3,8,3,2,0,1,2
34.73,2,2,7,2,0,2,1,0
34.735,5,4,3,2,1,2,0,1
34.74,1,0,2,0,2,2,1,3
34.745,3,0,5,1,0,1,2,3
34.75,3,1,2,2,4,1,0,2
34.755,1,0,0,2,1,3,0,1
34.76,0,1,0,2,5,9,2,3
34.765,1,1,4,2,1,6,0,3
34.77,1,2,3,4,3,1,0,1
34.775,5,2,2,1,4,1,15,4
34.78,1,4,12,9,1,1,8,10
34.785,8,3,4,2,3,2,19,16
34.79,0,4,10,9,10,6,6,2
34.795,5,12,1,13,11,7,3,4
34.8,0,2,11,3,1,1,11,2
34.805,1,9,12,2,2,6,6,3
34.81,2,3,4,10,1,13,6,2
34.815,5,2,14,4,3,6,3,3
34.82,0,2,3,1,2,3,1,3
34.825,2,3,5,2,5,3,2,0
34.83,2,2,21,36,8,12,7,4
34.835,1,3,20,18,6,4,1,0
34.84,1,2,2,13,4,2,0,5
34.845,2,1,15,3,4,1,4,2
34.85,1,3,16,20,8,2,3,8
34.855,3,2,13,7,1,1,3,3
34.86,4,0,4,0,9,3,2,6
34.865,2,3,20,28,5,4,4,1
34.87,3,8,14,6,1,3,4,5
34.875,1,5,23,23,5,1,2,1
34.88,5,11,3,0,6,2,1,1
34.885,5,7,2,13,6,3,4,2
34.89,0,0,23,14,2,2,2,1
34.895,1,1,5,13,7,2,4,1
34.9,6,10,1,2,10,12,5,5
34.905,7,12,56,21,5,12,2,4
34.91,1,4,69,51,9,2,1,2
34.915,4,3,9,5,10,1,1,0
34.92,16,24,63,43,17,13,9,11
34.925,4,13,53,79,13,1,0,0
34.93,5,13,40,70,17,5,4,0
34.935,16,28,2,79,20,19,11,9
34.94,1,1,5,90,9,4,2,1
34.945,13,25,104,27,12,15,10,8
34.95,7,3,73,24,6,2,2,7
34.955,2,3,55,64,2,2,3,2
34.96,3,2,9,12,4,3,2,2
34.965,10,23,58,76,31,16,7,7
34.97,7,15,68,57,4,10,5,5
34.975,10,7,59,28,5,2,2,13
34.98,2,6,11,3,3,2,1,5
34.985,7,6,31,24,2,6,5,10
34.99,0,9,109,106,16,3,0,2
34.995,27,45,102,71,44,27,18,21
35,18,21,70,32,11,13,8,17
35.005,13,21,15,11,30,29,13,10
35.01,16,33,56,77,11,12,11,10
35.015,7,4,15,42,10,4,2,5
35.02,7,14,47,33,5,4,0,5
35.025,8,35,104,56,10,10,4,1
35.03,15,33,13,26,28,17,11,11
35.035,5,15,39,80,3,2,2,0
35.04,5,20,35,37,19,11,7,1
35.045,12,4,63,94,1,6,7,15
35.05,6,20,37,84,2,10,6,2
35.055,13,28,71,42,27,15,7,8
35.06,20,59,114,52,27,15,13,13
35.065,20,54,98,47,27,13,9,7
35.07,11,33,22,74,5,4,3,6
35.075,5,10,10,37,3,8,9,4
35.08,6,11,90,30,10,11,7,3
35.085,21,19,93,31,18,24,18,21
35.09,6,32,87,64,22,6,4,7
35.095,45,78,118,95,45,33,23,24
35.1,9,0,47,27,4,5,7,10
35.105,6,20,57,33,14,7,3,3
35.11,7,8,73,67,16,10,4,9
35.115,20,36,31,18,17,11,6,12
35.12,8,17,22,31,10,0,2,4
35.125,2,15,106,99,16,2,2,2
35.13,9,38,116,24,0,4,0,4
35.135,4,18,60,25,15,14,7,3
35.14,19,44,33,103,20,19,14,13
35.145,23,5,49,13,13,12,7,22
35.15,15,55,91,82,24,10,12,11
35.155,10,42,84,34,11,10,9,4
35.16,2,2,65,102,19,6,3,3
35.165,16,28,54,110,24,12,5,10
35.17,6,36,59,64,26,3,3,4
35.175,7,5,56,54,8,14,4,4
35.18,26,76,84,21,17,4,6,16
35.185,30,59,12,52,19,18,16,20
35.19,9,35,28,0,15,12,9,5
35.195,20,49,25,64,24,20,11,10
35.2,1,2,72,90,3,14,10,0
35.205,10,12,13,11,1,1,5,4
35.21,0,5,28,35,12,8,1,0
35.215,5,33,78,90,0,17,14,12
35.22,12,22,99,18,11,10,5,7
35.225,18,50,62,45,6,6,6,10
35.23,29,76,127,127,34,13,12,17
35.235,18,19,21,48,37,10,8,11
35.24,11,24,32,17,7,5,4,6
35.245,6,1,53,60,16,8,6,6
35.25,21,49,70,81,34,13,9,12
35.255,25,46,82,83,46,31,21,17
35.26,18,35,23,47,17,26,20,11
35.265,7,6,26,43,2,1,0,10
35.27,4,13,66,11,21,18,8,3
35.275,12,17,51,35,21,17,10,9
35.28,3,23,76,11,3,0,3,3
35.285,12,5,2,35,28,12,6,14
35.29,1,16,68,64,23,9,5,3
35.295,10,6,39,63,21,8,8,18
35.3,23,33,29,17,36,24,16,17
35.305,8,26,86,32,10,10,4,4
35.31,7,22,54,60,5,8,4,5
35.315,8,29,65,81,19,4,12,8
35.32,2,12,20,4,7,9,4,7
35.325,4,1,3,76,13,3,3,1
35.33,15,34,59,53,42,25,14,15
35.335,20,19,3,17,5,7,6,21
35.34,10,15,16,51,23,11,10,9
35.345,6,32,89,51,31,21,15,9
35.35,11,24,102,30,13,4,6,6
35.355,10,31,6,4,22,11,5,6
35.36,3,4,15,16,19,3,3,7
35.365,1,11,39,17,6,8,3,6
35.37,8,4,66,45,6,2,3,3
35.375,10,9,25,40,4,3,2,9
35.38,2,11,87,86,6,3,0,3
35.385,7,0,43,49,1,6,5,7
35.39,0,18,5,16,14,4,3,7
35.395,19,39,43,11,22,18,13,8
35.4,4,11,15,0,6,13,10,7
35.405,5,16,11,47,2,3,2,2
35.41,7,35,51,31,20,16,13,6
35.415,10,27,96,111,34,15,7,5
35.42,4,7,32,9,2,0,1,7
35.425,9,36,62,51,44,11,7,6
35.43,15,23,52,41,12,15,11,10
35.435,5,15,65,10,4,0,2,2
35.44,8,10,96,41,5,7,5,1
35.445,18,31,114,105,30,15,13,16
35.45,10,0,61,52,3,7,5,11
35.455,1,13,91,13,3,1,1,4
35.46,22,46,96,85,19,5,6,9
35.465,22,14,1,12,3,2,0,10
35.47,3,6,14,50,9,2,2,2
35.475,6,18,30,27,10,5,3,6
35.48,2,24,31,20,2,1,2,8
35.485,5,4,29,3,10,10,6,13
35.49,16,21,10,69,8,9,9,14
35.495,18,31,63,36,14,8,8,13
35.5,6,1,2,39,2,4,2,8
35.505,10,2,47,43,6,9,10,9
35.51,3,9,13,10,2,12,9,2
35.515,11,22,14,23,6,8,6,6
35.52,5,6,2,2,9,6,5,7
35.525,9,20,35,7,1,3,2,6
35.53,4,9,12,23,8,4,1,7
35.535,1,1,2,16,1,5,2,2
35.54,15,17,58,43,13,8,8,9
35.545,14,11,74,75,15,9,8,4
35.55,0,4,44,46,10,5,2,0
35.555,3,1,39,8,3,4,4,3
35.56,7,9,31,30,3,10,2,3
35.565,11,8,9,2,12,11,1,7
35.57,23,6,19,31,15,8,6,16
35.575,1,2,3,28,10,1,1,1
35.58,12,7,12,1,2,2,1,8
35.585,10,14,27,17,6,7,6,1
35.59,11,2,18,5,2,3,0,7
35.595,2,11,10,8,1,3,0,4
35.6,13,4,2,10,7,4,1,3
35.605,8,10,15,13,3,11,7,5
35.61,0,2,11,8,4,2,3,2
35.615,1,2,5,3,5,3,1,1
35.62,3,5,5,3,2,6,0,0
35.625,2,4,4,0,2,2,3,7
35.63,12,2,10,8,2,6,4,18
35.635,8,6,14,10,0,6,1,1
35.64,21,4,2,8,16,4,5,11
35.645,7,1,0,1,1,8,3,3
35.65,7,0,3,2,0,3,1,10
35.655,22,1,2,3,2,1,4,2
35.66,9,2,4,1,3,1,0,4
35.665,15,10,8,5,8,6,0,2
35.67,3,4,2,3,3,0,6,3
35.675,21,1,5,2,2,3,2,4
35.68,15,0,1,2,1,3,1,0
35.685,3,2,12,6,4,6,2,9
35.69,2,5,6,4,4,6,14,2
35.695,11,9,9,1,0,7,4,4
35.7,8,8,7,5,3,4,2,11
35.705,6,0,4,2,0,1,3,3
35.71,9,4,5,3,1,20,0,2
35.715,1,2,0,1,6,18,0,5
35.72,4,2,1,1,4,4,1,0
35.725,9,4,0,2,0,5,4,4
35.73,5,0,1,2,4,1,4,2
35.735,1,8,6,6,7,9,5,6
35.74,1,0,0,3,4,2,1,16
35.745,6,3,7,2,2,4,7,3
35.75,6,4,3,0,2,4,0,5
35.755,4,1,1,0,1,2,2,7
35.76,10,3,4,1,1,3,3,7
35.765,13,1,5,2,1,5,2,2
35.77,6,6,5,3,6,1,1,2
35.775,6,4,5,1,1,5,2,3
35.78,9,9,8,1,1,1,1,6
35.785,8,0,4,3,3,3,6,20
35.79,10,4,10,1,2,2,0,1
35.795,7,8,21,4,6,4,3,4
35.8,5,9,9,1,1,4,4,2
35.805,2,4,8,1,1,3,4,7
35.81,1,2,7,0,1,2,1,6
35.815,2,0,4,1,2,5,1,3
35.82,3,1,4,3,3,1,2,6
35.825,1,1,4,2,3,2,0,1
35.83,1,1,4,0,2,1,2,2
35.835,2,5,2,0,2,1,1,1
35.84,1,1,5,4,5,10,3,2
35.845,2,1,7,1,1,0,2,3
35.85,1,12,16,5,2,13,4,4
35.855,0,6,7,1,5,10,2,2
35.86,13,13,19,4,2,7,1,16
35.865,2,6,50,7,5,6,4,5
35.87,10,19,24,1,4,5,4,6
35.875,2,24,54,6,1,0,1,3
35.88,2,14,53,12,4,5,3,1
35.885,2,5,14,3,2,1,1,2
35.89,0,17,1,3,9,6,3,2
35.895,10,26,63,16,10,3,6,6
35.9,6,16,5,3,3,3,0,1
35.905,2,2,26,4,3,3,1,6
35.91,2,3,9,2,5,9,5,2
35.915,1,9,8,0,6,3,3,4
35.92,4,6,15,11,2,3,1,1
35.925,0,8,18,7,3,2,1,3
35.93,2,14,6,2,4,4,2,1
35.935,4,0,2,1,6,9,2,4
35.94,2,4,20,3,0,7,4,0
35.945,1,14,26,5,10,4,4,0
35.95,4,8,28,4,4,1,1,0
35.955,5,9,0,1,0,1,0,3
35.96,1,5,16,6,1,6,2,0
35.965,2,1,6,1,6,6,4,1
35.97,3,1,14,7,3,3,3,2
35.975,7,0,12,1,4,7,1,8
35.98,7,8,4,0,7,7,3,9
35.985,5,4,6,5,1,5,3,2
35.99,1,4,9,3,1,1,2,2
35.995,2,5,33,8,5,3,4,0
36,6,9,18,0,0,1,2,4
36.005,3,5,21,1,3,3,2,4
36.01,5,1,0,2,5,5,2,3
36.015,5,5,21,5,4,6,4,5
36.02,6,1,6,0,1,2,4,8
36.025,3,1,6,3,2,0,0,4
36.03,3,5,1,3,5,2,2,2
36.035,2,6,2,1,3,9,4,4
36.04,3,19,10,1,3,9,2,3
36.045,2,1,14,1,1,2,3,1
36.05,0,4,12,3,3,3,3,2
36.055,1,5,15,2,1,2,2,2
36.06,1,3,10,1,0,4,1,2
36.065,1,1,1,2,7,1,2,1
36.07,1,0,4,1,1,2,1,1
36.075,1,9,9,0,1,2,4,0
36.08,1,2,4,2,5,0,1,2
36.085,3,6,3,2,3,0,2,2
36.09,1,2,10,3,5,1,2,0
36.095,0,2,2,2,1,0,2,0
36.1,2,5,3,1,0,2,1,0
36.105,3,2,1,1,3,3,1,1
36.11,1,2,4,1,6,3,4,2
36.115,1,1,7,10,0,2,0,1
36.12,2,1,12,17,3,2,2,4
36.125,2,8,6,2,0,2,1,1
36.13,0,0,1,2,1,1,1,0
36.135,1,0,2,0,2,2,2,4
36.14,3,2,6,4,1,0,5,16
36.145,4,3,1,2,6,0,5,14
36.15,8,2,4,5,4,9,4,19
36.155,2,1,0,4,0,7,6,4
36.16,1,2,1,4,6,2,2,2
36.165,1,8,12,7,2,4,0,6
36.17,3,0,3,1,5,6,2,0
36.175,2,2,4,23,5,8,3,1
36.18,2,5,3,1,9,4,3,3
36.185,4,5,32,34,5,3,6,1
36.19,0,2,3,2,5,9,1,1
36.195,3,5,5,10,5,6,1,2
36.2,1,5,24,37,12,2,2,3
36.205,2,0,23,5,7,6,1,2
36.21,2,5,6,7,3,0,1,2
36.215,1,0,21,23,2,1,2,1
36.22,1,3,18,18,1,1,4,6
36.225,2,2,13,15,1,1,0,1
36.23,5,7,6,40,9,6,4,1
36.235,1,2,2,18,0,4,1,3
36.24,9,1,12,2,2,1,4,14
36.245,2,2,16,7,2,2,4,2
36.25,4,3,18,21,3,4,3,6
36.255,3,1,7,10,1,1,0,4
36.26,5,9,18,28,15,5,4,4
36.265,12,22,60,25,14,6,4,9
36.27,12,26,98,53,14,6,3,7
36.275,4,11,50,34,7,2,1,1
36.28,3,9,37,21,10,2,2,2
36.285,7,7,49,56,10,10,7,7
36.29,11,9,37,14,14,12,8,10
36.295,1,2,1,50,2,2,1,1
36.3,2,8,2,19,6,1,4,3
36.305,6,5,13,20,2,1,0,7
36.31,4,11,41,20,2,0,6,1
36.315,18,22,56,20,10,12,12,16
36.32,10,10,26,11,5,10,9,12
36.325,10,31,80,18,7,1,1,4
36.33,8,19,31,4,9,4,6,4
36.335,2,4,36,38,4,6,7,3
36.34,2,2,6,9,0,6,3,3
36.345,10,29,89,8,2,4,2,8
36.35,27,56,73,12,18,16,16,17
36.355,6,14,8,18,5,9,8,4
36.36,10,11,9,33,17,11,9,9
36.365,5,27,87,67,24,8,4,4
36.37,15,20,46,55,28,19,13,10
36.375,6,1,9,16,8,3,0,4
36.38,2,0,40,4,6,3,2,0
36.385,5,0,106,55,0,7,5,3
36.39,18,36,36,1,3,14,11,11
36.395,25,33,74,23,15,16,11,20
36.4,7,11,38,9,8,6,6,5
36.405,10,0,57,103,17,5,6,4
36.41,7,20,59,14,2,7,5,3
36.415,2,15,44,51,6,8,4,5
36.42,14,25,21,26,16,12,9,10
36.425,4,1,18,2,9,0,2,3
36.43,14,27,62,100,8,1,6,12
36.435,10,37,53,74,6,7,7,5
36.44,2,10,35,71,8,5,4,3
36.445,4,17,12,37,7,5,0,1
36.45,30,74,127,88,38,26,17,17
36.455,3,10,9,0,2,10,6,3
36.46,12,2,40,29,19,4,4,9
36.465,7,32,59,18,7,9,6,5
36.47,3,13,38,1,9,1,1,0
36.475,9,18,56,95,22,7,3,2
36.48,1,13,50,61,1,8,4,2
36.485,5,23,32,96,2,6,1,6
36.49,16,33,1,23,18,5,6,8
36.495,17,46,39,32,27,13,9,12
36.5,39,93,95,83,73,39,23,24
36.505,2,18,69,11,4,1,4,3
36.51,28,46,81,99,33,18,12,14
36.515,25,33,20,13,29,20,14,16
36.52,15,21,29,45,25,18,11,11
36.525,23,43,67,15,24,20,14,19
36.53,10,27,121,52,5,21,13,11
36.535,13,29,13,19,18,1,5,11
36.54,35,88,91,3,39,19,16,23
36.545,4,5,74,38,0,1,4,5
36.55,4,5,28,1,29,21,8,4
36.555,22,37,12,3,35,19,15,15
36.56,6,11,103,54,2,0,3,4
36.565,8,21,30,79,10,8,4,6
36.57,16,8,77,73,15,31,20,11
36.575,38,62,14,50,45,43,31,26
36.58,8,29,50,65,5,3,2,3
36.585,4,4,39,62,8,1,3,1
36.59,9,15,72,32,13,13,7,2
36.595,3,8,112,14,11,2,1,3
36.6,4,20,11,44,10,4,3,0
36.605,37,95,125,69,37,17,15,21
36.61,24,47,20,86,23,29,20,15
36.615,17,35,70,68,26,20,12,10
36.62,13,39,32,29,4,11,8,8
36.625,34,76,40,28,16,6,11,19
36.63,2,21,85,127,36,19,7,1
36.635,28,59,128,128,77,39,22,14
36.64,5,12,47,101,30,16,3,2
36.645,9,6,23,38,13,5,1,0
36.65,17,25,35,9,10,15,11,19
36.655,6,2,40,6,0,9,9,1
36.66,14,25,25,20,2,4,4,9
36.665,12,14,50,9,4,9,1,3
36.67,19,48,50,25,18,21,16,11
36.675,4,14,20,12,21,22,14,3
36.68,17,80,96,60,23,13,11,12
36.685,28,62,40,8,15,26,18,19
36.69,17,49,58,50,20,18,10,10
36.695,6,7,58,81,20,1,1,2
36.7,13,34,50,40,39,4,1,3
36.705,6,51,127,83,2,9,5,3
36.71,4,38,50,25,4,8,6,3
36.715,7,7,71,9,5,12,9,7
36.72,17,43,8,39,34,18,10,11
36.725,19,43,23,68,19,8,7,12
36.73,18,41,20,66,24,16,13,10
36.735,26,69,127,38,22,21,14,9
36.74,12,60,92,14,5,13,8,8
36.745,4,7,66,71,20,3,3,1
36.75,10,13,108,74,20,0,1,11
36.755,16,25,17,8,9,5,0,8
36.76,2,25,9,15,4,28,14,5
36.765,19,21,8,60,37,32,18,16
36.77,24,72,92,27,28,16,11,14
36.775,33,65,98,36,28,24,17,22
36.78,16,25,34,16,23,8,7,9
36.785,3,6,9,53,17,10,3,2
36.79,14,29,93,94,39,25,9,8
36.795,0,5,66,9,3,4,4,1
36.8,15,31,48,39,18,12,11,9
36.805,12,28,39,11,9,4,4,5
36.81,17,38,60,3,25,25,18,14
36.815,14,27,31,43,9,9,4,8
36.82,14,26,7,19,33,20,13,11
36.825,10,29,89,19,17,6,8,3
36.83,4,39,77,56,1,3,0,1
36.835,17,27,11,10,4,12,9,11
36.84,15,29,45,36,11,7,8,13
36.845,5,16,5,36,15,1,3,5
36.85,4,1,4,25,3,5,3,2
36.855,9,17,8,24,16,9,8,9
36.86,20,45,36,83,44,13,12,10
36.865,9,25,73,1,2,6,3,1
36.87,4,17,35,13,8,6,1,0
36.875,2,1,12,11,4,1,2,0
36.88,3,13,7,2,1,2,0,1
36.885,15,29,46,42,13,11,7,7
36.89,12,26,24,51,19,13,8,7
36.895,7,16,40,3,3,0,0,5
36.9,4,22,19,18,11,8,4,6
36.905,5,11,40,89,17,4,2,3
36.91,3,11,6,60,4,1,2,0
36.915,6,12,4,9,5,4,3,6
36.92,4,8,30,99,13,3,1,0
36.925,1,2,10,20,4,4,0,1
36.93,8,11,22,54,5,4,1,4
36.935,4,3,15,26,1,1,1,2
36.94,7,7,10,51,15,9,11,1
36.945,2,6,3,22,5,0,3,19
36.95,4,12,26,47,18,12,23,19
36.955,2,10,12,30,1,0,4,6
36.96,1,3,12,9,1,1,0,1
36.965,4,27,70,36,19,14,7,1
36.97,14,17,33,8,10,13,12,5
36.975,7,15,13,26,7,2,4,7
36.98,9,7,3,16,5,6,9,8
36.985,2,10,5,50,4,5,7,4
36.99,9,0,18,45,11,8,7,5
36.995,8,6,12,36,10,5,9,2
37,7,6,7,0,7,9,4,8
37.005,0,6,33,23,0,2,2,1
37.01,6,6,2,16,4,3,3,7
37.015,2,6,13,9,1,0,1,1
37.02,3,3,14,14,1,0,3,2
37.025,7,4,13,14,9,7,6,8
37.03,4,20,99,69,9,4,5,9
37.035,4,14,48,81,24,12,8,6
37.04,2,1,31,18,4,3,2,5
37.045,6,4,4,14,6,3,4,3
37.05,31,0,1,14,1,1,1,22
37.055,0,11,9,14,7,5,3,12
37.06,4,3,1,4,4,2,0,1
37.065,0,7,16,16,5,5,1,1
37.07,9,2,36,24,0,2,1,6
37.075,5,2,2,15,3,2,2,2
37.08,12,6,22,24,3,3,5,5
37.085,4,6,7,0,3,2,1,10
37.09,10,7,6,10,0,3,2,7
37.095,13,3,8,13,8,0,2,8
37.1,6,20,7,5,6,3,3,1
37.105,11,3,14,12,6,4,2,5
37.11,5,4,7,11,9,5,3,1
37.115,6,8,12,6,4,2,2,0
37.12,21,4,13,3,3,0,0,9
37.125,3,3,8,6,5,2,1,11
37.13,7,2,18,19,6,4,3,7
37.135,31,0,20,10,4,1,2,5
37.14,38,0,12,1,5,2,2,8
37.145,7,13,21,8,5,3,4,0
37.15,3,3,2,4,2,1,1,8
37.155,3,3,0,2,2,3,1,1
37.16,12,1,4,7,2,1,0,0
37.165,12,3,2,5,4,3,3,4
37.17,1,7,10,4,1,1,3,9
37.175,3,17,26,2,2,2,2,1
37.18,9,5,7,2,3,3,1,4
37.185,9,1,3,3,4,2,1,10
37.19,2,2,5,5,2,5,2,1
37.195,12,2,2,2,2,1,3,5
37.2,12,1,5,12,0,1,3,8
37.205,0,4,5,26,6,3,4,4
37.21,2,7,14,2,2,2,1,2
37.215,9,0,11,3,0,2,0,0
37.22,8,3,0,7,3,1,1,3
37.225,9,2,21,5,2,2,1,9
37.23,1,8,17,13,3,4,2,3
37.235,4,3,5,1,6,1,6,5
37.24,16,2,5,2,2,2,1,4
37.245,3,1,11,7,3,3,3,1
37.25,7,7,7,4,6,6,5,11
37.255,2,13,19,8,6,7,5,4
37.26,2,0,19,4,3,5,2,1
37.265,2,1,8,2,2,2,2,0
37.27,4,1,16,2,2,3,0,2
37.275,7,3,7,3,2,1,2,3
37.28,0,2,16,11,2,5,1,1
37.285,1,5,2,3,1,1,2,3
37.29,4,5,18,4,6,5,2,1
37.295,1,6,10,1,3,1,2,3
37.3,3,1,12,1,0,1,3,1
37.305,0,5,0,2,1,1,1,1
37.31,3,7,15,8,2,2,1,1
37.315,0,1,1,5,3,1,0,2
37.32,6,3,5,1,1,3,1,4
37.325,4,4,6,2,4,2,3,3
37.33,1,6,9,1,3,1,2,1
37.335,4,2,8,3,2,3,1,4
37.34,4,4,5,4,2,1,1,0
37.345,1,1,4,1,0,2,1,0
37.35,0,0,2,5,3,2,1,3
37.355,11,2,0,0,2,3,1,1
37.36,5,4,2,2,2,1,1,6
37.365,1,2,16,0,3,3,0,1
37.37,1,6,14,5,3,3,0,1
37.375,2,0,8,1,1,1,1,1
37.38,3,0,1,6,4,4,1,2
37.385,0,3,5,1,0,4,1,1
37.39,2,2,4,1,3,1,2,2
37.395,4,1,6,2,1,1,1,0
37.4,3,2,4,2,2,0,3,5
37.405,1,6,3,1,3,2,1,1
37.41,1,4,15,1,2,3,3,4
37.415,6,6,9,21,6,5,3,3
37.42,1,2,0,4,0,4,3,4
37.425,0,4,4,0,3,1,1,3
37.43,1,5,3,4,1,1,1,2
37.435,2,1,1,8,2,2,3,0
37.44,2,4,3,1,0,2,3,1
37.445,1,4,7,5,0,3,2,0
37.45,2,5,3,3,5,3,4,3
37.455,1,2,9,8,0,2,2,2
37.46,0,1,4,11,7,4,4,2
37.465,1,3,5,0,1,2,0,2
37.47,0,1,6,1,1,1,0,2
37.475,0,1,1,1,1,1,1,0
37.48,1,2,2,8,0,0,0,1
37.485,6,1,7,1,5,3,4,0
37.49,2,4,22,14,1,2,0,0
37.495,1,1,9,7,5,3,2,1
37.5,0,4,2,26,4,2,2,0
37.505,3,8,31,38,8,0,2,4
37.51,0,6,43,23,4,0,0,1
37.515,2,5,12,12,4,5,2,2
37.52,4,7,13,23,8,3,2,3
37.525,0,2,17,8,2,3,5,3
37.53,2,2,12,2,2,3,3,1
37.535,1,7,30,10,0,1,2,1
37.54,1,4,13,2,2,2,3,1
37.545,5,9,7,4,6,3,2,4
37.55,1,0,5,13,1,3,2,1
37.555,4,5,2,2,1,0,1,2
37.56,2,5,10,4,5,3,1,4
37.565,2,1,37,1,4,2,3,3
37.57,6,7,16,0,5,5,8,16
37.575,2,5,22,12,3,5,5,3
37.58,3,4,3,2,4,1,1,1
37.585,6,9,29,10,10,4,4,21
37.59,3,1,4,11,2,3,8,17
37.595,0,4,15,9,8,4,6,8
37.6,11,5,20,17,6,5,16,38
37.605,2,1,12,12,1,1,4,3
37.61,4,3,0,1,5,4,4,10
37.615,2,2,4,9,1,2,6,11
37.62,3,0,5,13,0,2,4,7
37.625,1,3,13,13,8,3,1,4
37.63,7,6,17,17,6,3,5,10
37.635,1,1,2,13,9,4,1,2
37.64,3,4,9,6,2,4,4,6
37.645,7,12,30,17,2,4,2,8
37.65,2,0,18,2,1,0,4,2
37.655,4,3,6,6,7,7,4,8
37.66,0,2,0,8,4,2,2,3
37.665,3,4,16,0,0,0,1,0
37.67,1,3,3,2,2,4,4,6
37.675,3,3,14,1,0,1,0,2
37.68,0,2,8,29,5,1,3,4
37.685,2,2,34,11,0,3,2,4
37.69,1,1,0,7,5,1,2,4
37.695,1,1,16,3,7,4,4,3
37.7,1,1,2,1,0,4,2,4
37.705,0,2,1,17,6,8,5,1
37.71,2,5,25,17,0,6,2,3
37.715,1,3,29,16,5,2,2,0
37.72,5,10,20,16,4,8,6,4
37.725,1,5,29,23,3,3,5,4
37.73,0,7,59,22,4,3,1,2
37.735,1,4,22,0,2,0,1,1
37.74,5,9,19,8,0,2,4,2
37.745,6,7,17,18,10,6,4,6
37.75,1,1,1,3,0,0,3,1
37.755,2,2,2,10,4,4,3,2
37.76,3,6,10,27,0,3,1,3
37.765,1,6,14,43,4,4,8,1
37.77,4,8,7,14,10,5,6,6
37.775,4,12,54,33,8,2,1,2
37.78,2,2,1,11,7,4,3,1
37.785,2,10,8,2,16,8,3,1
37.79,3,2,52,79,5,8,8,4
37.795,11,21,63,87,21,14,8,9
37.8,3,4,0,14,2,1,1,1
37.805,2,1,14,34,3,1,1,1
37.81,0,2,11,6,4,1,1,5
37.815,14,31,77,77,20,15,10,11
37.82,13,16,47,13,8,9,7,10
37.825,0,6,57,36,10,2,1,1
37.83,5,2,5,30,3,1,5,3
37.835,13,24,62,73,28,17,10,10
37.84,1,7,38,32,2,1,0,0
37.845,11,24,95,68,21,11,8,8
37.85,4,20,79,60,23,3,1,3
37.855,4,17,80,90,33,9,7,3
37.86,3,5,50,62,8,5,2,1
37.865,37,48,29,71,53,39,26,29
37.87,5,7,38,62,13,1,2,4
37.875,17,43,78,128,50,21,12,11
37.88,21,46,57,22,20,20,12,13
37.885,33,44,85,74,46,35,23,27
37.89,21,21,55,15,17,10,9,19
37.895,3,28,62,3,12,2,1,1
37.9,38,50,20,37,34,36,22,29
37.905,29,42,10,4,41,41,28,28
37.91,37,66,85,62,44,31,25,30
37.915,22,57,65,54,17,15,15,11
37.92,1,14,77,68,15,4,5,7
37.925,23,18,30,76,1,21,13,21
37.93,25,28,67,53,12,23,13,18
37.935,28,74,127,127,47,25,18,16
37.94,10,5,62,62,34,17,7,6
37.945,14,53,46,5,11,6,8,11
37.95,7,17,9,128,48,25,14,10
37.955,18,27,56,108,40,25,19,19
37.96,29,44,31,20,23,20,13,19
37.965,18,65,94,127,35,5,5,11
37.97,8,19,31,52,3,11,7,3
37.975,3,20,59,76,10,5,4,2
37.98,18,34,84,85,45,25,14,14
37.985,51,81,51,49,69,45,31,44
37.99,18,21,70,5,21,24,16,25
37.995,2,21,107,65,11,3,0,4
38,8,13,32,61,24,18,9,9
38.005,9,3,8,38,38,20,11,8
38.01,27,56,65,71,32,18,15,10
38.015,9,29,16,58,27,14,10,6
38.02,12,19,51,128,5,19,11,13
38.025,28,106,125,53,41,9,8,8
38.03,12,20,6,81,20,14,1,4
38.035,15,52,69,78,57,40,22,11
38.04,2,53,46,100,20,0,2,10
38.045,12,69,127,1,3,19,11,11
38.05,10,34,40,30,8,15,13,6
38.055,14,2,49,104,70,18,7,7
38.06,2,14,45,15,18,25,19,19
38.065,12,6,88,59,11,12,8,6
38.07,29,58,49,24,57,36,25,21
38.075,28,76,122,127,56,19,13,23
38.08,67,71,22,114,56,33,28,41
38.085,37,87,117,40,44,37,26,31
38.09,24,2,30,109,52,30,20,17
38.095,24,52,94,127,71,39,22,13
38.1,20,35,84,42,24,11,14,20
38.105,26,54,2,5,27,25,16,17
38.11,12,40,41,68,17,24,14,9
38.115,15,48,24,29,21,0,7,10
38.12,25,41,69,97,21,16,11,12
38.125,16,57,39,53,33,26,21,6
38.13,29,105,85,42,31,25,19,14
38.135,25,55,8,37,14,25,17,23
38.14,38,30,16,19,50,51,32,30
38.145,0,25,61,8,7,2,0,5
38.15,18,19,80,13,28,18,11,13
38.155,19,40,77,91,35,29,24,10
38.16,20,38,65,128,70,24,13,16
38.165,7,2,36,52,13,2,1,3
38.17,16,87,87,122,43,14,5,10
38.175,3,9,78,45,14,6,2,6
38.18,28,7,95,127,32,7,9,23
38.185,1,2,32,27,7,14,6,0
38.19,5,13,56,50,7,18,8,1
38.195,2,54,59,5,16,2,1,6
38.2,28,63,44,77,58,28,19,18
38.205,39,90,49,6,49,45,29,24
38.21,19,36,74,54,31,9,8,14
38.215,8,13,30,44,23,10,8,13
38.22,4,20,69,52,21,13,3,5
38.225,33,70,114,44,45,15,15,17
38.23,8,33,63,52,14,2,4,7
38.235,19,35,37,17,10,3,1,9
38.24,34,27,17,95,58,29,25,24
38.245,11,9,22,5,11,16,8,7
38.25,37,72,45,50,47,37,27,28
38.255,3,8,14,35,34,6,2,1
38.26,37,28,7,7,18,14,15,26
38.265,54,89,72,104,52,41,30,40
38.27,32,59,127,102,56,23,16,18
38.275,4,12,45,19,21,5,4,0
38.28,2,8,33,73,15,6,2,2
38.285,6,19,21,25,1,8,6,0
38.29,13,34,48,18,3,2,0,7
38.295,11,42,56,69,44,22,15,12
38.3,12,13,41,61,26,14,11,9
38.305,20,15,89,46,6,14,13,14
38.31,25,52,35,27,17,14,13,21
38.315,22,37,85,11,18,12,10,9
38.32,9,11,100,18,15,1,4,9
38.325,18,37,69,16,1,4,6,16
38.33,6,34,61,14,12,9,4,0
38.335,9,26,106,52,8,8,3,2
38.34,6,35,7,40,16,1,7,7
38.345,9,5,16,42,23,3,8,8
38.35,9,3,47,51,12,8,6,10
38.355,20,33,40,36,26,19,15,11
38.36,12,25,2,17,17,21,14,7
38.365,20,31,18,21,26,18,15,15
38.37,14,47,24,21,22,11,12,12
38.375,5,20,29,18,2,1,3,3
38.38,3,13,18,3,0,1,2,3
38.385,1,7,47,31,3,6,5,6
38.39,8,20,5,23,5,9,9,1
38.395,4,31,43,10,11,0,0,9
38.4,16,43,10,5,11,5,6,9
38.405,13,24,4,27,18,7,6,10
38.41,4,3,72,70,9,5,6,3
38.415,11,25,2,5,5,8,8,6
38.42,8,8,56,40,8,3,4,8
38.425,7,8,42,66,17,6,4,9
38.43,1,10,20,8,2,1,0,1
38.435,3,13,17,1,0,2,6,3
38.44,4,3,15,10,1,0,1,2
38.445,2,0,54,12,8,6,6,1
38.45,4,4,19,38,2,2,1,4
38.455,3,9,9,14,2,4,1,1
38.46,3,16,21,24,5,8,10,7
38.465,3,5,21,17,0,2,5,2
38.47,4,5,6,14,9,3,3,3
38.475,11,21,1,2,11,11,6,11
38.48,4,14,11,34,9,5,4,6
38.485,4,2,8,2,5,4,2,1
38.49,22,25,28,45,11,11,9,23
38.495,14,10,50,51,11,3,3,10
38.5,4,6,30,5,0,0,2,2
38.505,10,8,61,47,3,2,0,9
38.51,2,1,22,8,3,2,4,5
38.515,2,1,16,15,9,9,2,0
38.52,6,5,5,4,4,4,3,6
38.525,4,5,9,15,1,3,2,4
38.53,1,1,0,6,2,1,0,5
38.535,11,1,21,13,3,6,5,20
38.54,6,1,20,16,3,3,2,17
38.545,12,8,8,1,7,0,2,12
38.55,9,9,21,6,10,4,4,1
38.555,13,7,1,9,2,3,1,3
38.56,19,11,1,9,8,9,5,7
38.565,32,2,1,1,0,2,0,0
38.57,4,8,5,14,4,1,3,5
38.575,8,23,24,7,4,3,5,4
38.58,19,4,5,1,2,2,1,1
38.585,11,5,17,1,4,1,2,6
38.59,1,1,3,1,2,1,1,0
38.595,4,7,10,4,2,0,1,1
38.6,5,1,4,3,3,4,4,7
38.605,14,5,21,15,7,2,2,4
38.61,9,0,8,13,5,2,2,3
38.615,1,5,3,3,3,2,1,6
38.62,11,1,12,3,2,0,3,11
38.625,4,2,23,4,3,9,5,3
38.63,4,5,1,14,3,7,0,6
38.635,2,6,12,1,0,3,1,3
38.64,8,0,6,2,3,1,1,9
38.645,20,1,0,2,1,3,5,4
38.65,13,1,3,2,4,11,5,6
38.655,7,4,13,6,7,2,3,1
38.66,5,6,11,7,0,3,1,7
38.665,11,3,11,4,1,3,8,8
38.67,2,1,7,4,3,2,10,1
38.675,4,2,3,4,4,1,1,4
38.68,4,2,1,1,6,3,6,5
38.685,1,10,10,6,1,1,3,0
38.69,1,7,8,6,4,4,5,4
38.695,7,2,1,3,4,4,3,4
38.7,1,1,1,0,3,3,2,0
38.705,1,0,7,2,6,4,3,3
38.71,1,1,9,2,0,3,4,2
38.715,2,7,4,3,6,5,2,3
38.72,7,1,16,3,1,2,2,5
38.725,11,6,31,0,2,2,1,11
38.73,6,10,22,2,3,1,3,10
38.735,2,8,28,23,3,3,3,4
38.74,5,0,9,8,2,3,3,9
38.745,5,4,40,4,2,1,2,0
38.75,10,0,7,8,2,1,1,1
38.755,12,6,0,3,3,5,5,1
38.76,4,0,9,8,12,4,2,0
38.765,0,4,17,6,7,0,5,4
38.77,6,28,28,7,1,1,4,8
38.775,5,2,9,1,5,1,0,2
38.78,4,0,1,7,4,10,3,1
38.785,5,10,25,8,5,7,2,0
38.79,2,5,4,0,4,1,1,3
38.795,1,1,1,6,1,1,1,0
38.8,1,8,14,3,1,0,0,1
38.805,4,1,5,6,2,6,0,3
38.81,6,0,4,4,6,4,2,5
38.815,1,3,8,6,0,0,1,0
38.82,0,3,8,11,5,3,4,2
38.825,0,5,6,1,3,1,0,2
38.83,3,2,8,4,5,2,2,1
38.835,0,1,10,1,0,3,0,2
38.84,1,2,1,3,2,4,1,2
38.845,5,12,16,3,1,4,3,5
38.85,3,13,15,4,1,1,1,1
38.855,5,4,14,2,3,3,2,3
38.86,1,3,2,0,5,6,5,2
38.865,2,2,5,1,7,0,1,3
38.87,1,6,3,1,1,6,2,6
38.875,0,3,5,2,2,1,1,0
38.88,3,6,3,2,2,2,3,1
38.885,6,2,3,3,1,3,4,6
38.89,4,4,16,5,3,3,5,2
38.895,0,6,8,1,1,1,2,1
38.9,4,14,26,3,2,2,1,3
38.905,2,2,3,4,1,2,0,1
38.91,1,1,1,7,3,3,1,1
38.915,1,0,2,5,2,1,4,4
38.92,1,2,4,1,3,2,2,1
38.925,3,3,23,1,1,4,1,1
38.93,7,9,3,6,2,6,4,0
38.935,2,6,1,5,3,2,0,0
38.94,1,3,8,5,4,0,1,0
38.945,2,4,5,7,7,4,5,2
38.95,1,0,3,1,4,6,4,2
38.955,2,3,12,2,1,0,2,1
38.96,1,4,8,10,8,3,1,2
38.965,1,2,8,2,0,1,0,1
38.97,2,1,9,1,2,2,0,3
38.975,4,8,14,5,7,6,5,2
38.98,0,2,3,1,4,6,2,5
38.985,0,2,6,1,0,0,2,2
38.99,1,1,2,0,3,4,3,2
38.995,1,1,4,0,1,15,2,1
39,1,1,1,2,4,13,2,0
39.005,2,0,6,1,1,2,0,0
39.01,0,1,2,2,2,2,2,0
39.015,0,2,1,6,5,4,4,4
39.02,2,3,12,5,3,7,3,3
39.025,1,3,0,2,7,0,2,1
39.03,2,3,4,1,1,1,1,1
39.035,1,1,3,2,3,2,3,0
39.04,0,2,0,4,6,0,3,0
39.045,1,2,7,1,2,1,2,1
39.05,0,1,11,3,4,7,5,1
39.055,2,4,7,3,15,8,1,3
39.06,0,3,4,3,7,3,1,0
39.065,3,3,10,4,2,4,0,2
39.07,1,0,13,9,2,3,3,2
39.075,3,5,17,3,2,8,4,2
39.08,3,5,0,10,5,3,5,2
39.085,0,2,5,7,1,3,3,3
39.09,3,1,4,6,7,1,1,3
39.095,0,2,34,15,0,1,4,3
39.1,3,3,17,16,5,3,2,0
39.105,2,3,5,2,3,2,3,1
39.11,0,1,2,10,7,4,0,1
39.115,1,1,13,1,3,2,2,2
39.12,2,2,9,4,6,5,2,4
39.125,2,4,14,9,3,2,2,2
39.13,9,19,42,35,17,11,7,8
39.135,2,6,32,29,9,3,1,3
39.14,1,0,11,7,3,2,1,1
39.145,2,0,1,9,6,1,1,1
39.15,1,2,6,9,6,4,1,1
39.155,3,7,19,23,4,6,7,3
39.16,3,4,27,13,2,1,1,0
39.165,12,7,8,16,7,7,1,14
39.17,11,23,54,60,19,11,7,8
39.175,2,1,5,24,2,1,1,2
39.18,4,21,72,46,22,15,12,0
39.185,0,18,66,8,16,9,5,0
39.19,4,16,84,31,11,2,1,2
39.195,5,10,81,67,4,0,1,4
39.2,16,26,79,11,17,11,9,10
39.205,0,1,36,68,6,5,4,3
39.21,7,11,25,82,11,4,3,7
39.215,3,3,48,63,1,2,0,5
39.22,10,7,34,80,23,12,6,10
39.225,13,9,45,22,14,12,9,13
39.23,13,10,44,47,24,21,13,11
39.235,7,6,25,75,1,2,1,7
39.24,7,36,41,3,27,25,13,1
39.245,32,44,96,62,25,29,22,25
39.25,0,10,34,9,21,9,5,1
39.255,26,39,58,77,16,22,13,16
39.26,3,1,115,127,0,12,9,1
39.265,0,12,18,41,4,0,4,7
39.27,8,21,11,31,1,4,2,3
39.275,9,7,62,28,5,2,0,7
39.28,4,4,33,60,24,8,4,3
39.285,20,28,3,53,6,7,7,14
39.29,24,56,2,13,25,22,14,12
39.295,1,12,27,3,7,10,2,3
39.3,36,74,112,128,97,52,31,24
39.305,6,21,14,74,12,4,1,2
39.31,2,0,56,9,18,12,7,1
39.315,16,34,26,72,8,9,16,9
39.32,30,35,94,78,11,18,13,19
39.325,2,2,63,101,20,10,3,3
39.33,37,70,60,29,52,37,23,28
39.335,63,116,94,53,87,60,46,45
39.34,11,12,68,65,9,4,1,9
39.345,3,27,53,36,21,19,11,1
39.35,25,7,89,128,65,37,22,22
39.355,11,5,4,67,52,16,9,6
39.36,3,3,37,14,2,7,4,8
39.365,27,22,19,6,19,18,14,35
39.37,10,18,10,39,3,15,9,2
39.375,14,54,127,113,32,14,17,9
39.38,8,11,41,31,13,9,4,12
39.385,47,75,80,19,19,14,10,22
39.39,5,6,6,62,8,3,4,8
39.395,3,19,73,6,3,11,5,5
39.4,19,36,19,40,13,3,5,13
39.405,27,50,75,81,28,22,17,29
39.41,29,63,38,46,54,37,27,23
39.415,24,63,115,19,22,12,11,17
39.42,15,34,75,63,14,0,1,9
39.425,23,39,36,25,8,17,13,19
39.43,8,8,5,56,8,12,9,13
39.435,9,27,76,68,36,24,18,9
39.44,3,11,23,18,4,7,9,3
39.445,14,25,55,34,3,2,5,5
39.45,5,7,11,52,1,1,3,5
39.455,17,41,56,31,20,8,5,9
39.46,11,23,69,91,4,9,2,9
39.465,11,18,8,41,3,11,5,1
39.47,4,9,9,47,4,9,9,6
39.475,18,35,47,16,6,10,12,13
39.48,17,0,30,19,11,12,8,16
39.485,6,4,26,38,28,19,9,8
39.49,6,10,0,78,28,11,4,0
39.495,2,39,85,42,23,5,1,3
39.5,16,2,17,12,26,3,8,21
39.505,36,29,36,13,5,20,21,33
39.51,10,33,69,49,31,28,20,13
39.515,3,13,75,41,18,9,7,3
39.52,1,13,66,61,22,8,5,2
39.525,4,1,21,58,16,12,8,5
39.53,13,43,100,73,22,14,7,8
39.535,22,52,63,5,31,12,11,16
39.54,17,56,106,35,28,5,10,10
39.545,29,59,89,81,26,9,12,24
39.55,1,3,4,6,2,6,7,3
39.555,9,18,63,31,9,7,7,7
39.56,26,64,127,106,46,22,15,14
39.565,27,36,51,116,30,31,21,19
39.57,7,18,78,90,36,15,8,4
39.575,2,5,9,54,14,9,7,4
39.58,10,29,16,36,18,9,5,5
39.585,20,25,23,4,23,23,17,18
39.59,1,6,8,4,6,3,1,7
39.595,11,43,78,32,14,5,3,7
39.6,25,79,60,43,35,18,13,15
39.605,10,4,59,10,11,5,1,7
39.61,4,9,17,1,5,1,1,2
39.615,5,19,51,16,5,2,1,1
39.62,3,5,9,12,1,2,0,3
39.625,2,2,3,3,5,2,2,7
39.63,5,9,64,40,14,5,2,1
39.635,4,1,49,14,3,5,6,4
39.64,6,4,41,32,4,2,0,5
39.645,9,15,98,93,30,6,6,4
39.65,1,9,14,19,5,1,0,4
39.655,1,9,40,42,2,7,6,1
39.66,2,1,15,27,16,2,4,3
39.665,5,27,33,35,12,6,6,4
39.67,1,0,9,42,1,2,0,0
39.675,7,17,37,12,1,1,2,6
39.68,9,8,26,42,13,8,2,8
39.685,0,4,4,26,3,3,5,2
39.69,12,11,50,23,1,3,5,9
39.695,10,23,35,18,13,8,9,10
39.7,10,30,21,7,10,4,2,3
39.705,4,20,48,7,1,4,3,2
39.71,2,1,11,3,2,2,5,4
39.715,6,15,40,11,11,11,6,6
39.72,10,16,55,19,10,4,6,8
39.725,3,7,28,40,10,3,3,4
39.73,3,8,9,14,4,6,1,0
39.735,8,3,24,1,6,4,3,1
39.74,1,6,31,38,7,3,4,1
39.745,7,23,13,17,4,2,7,3
39.75,4,7,55,28,4,1,6,5
39.755,6,13,4,5,4,6,0,6
39.76,1,9,25,8,5,2,1,1
39.765,4,11,18,4,6,6,2,1
39.77,5,7,24,21,3,4,2,3
39.775,0,3,17,13,5,3,6,1
39.78,5,10,15,5,0,3,5,3
39.785,1,1,13,0,2,0,5,4
39.79,2,1,3,3,5,1,0,3
39.795,1,1,12,5,3,0,1,0
39.8,1,1,8,1,2,1,1,1
39.805,0,3,2,7,3,2,8,2
39.81,4,9,7,8,3,3,1,1
39.815,3,8,0,4,2,3,1,2
39.82,0,2,8,6,3,1,2,2
39.825,3,5,17,15,4,2,1,4
39.83,8,5,49,16,1,1,2,5
39.835,3,0,29,5,4,1,4,2
39.84,3,5,34,22,4,4,0,6
39.845,2,4,3,4,1,3,3,0
39.85,0,0,12,18,1,3,2,1
39.855,2,7,6,8,4,4,1,4
39.86,12,3,17,2,8,7,8,14
39.865,1,1,3,12,7,6,3,1
39.87,1,11,13,6,3,6,7,3
39.875,2,2,12,8,3,1,1,1
39.88,3,2,10,10,1,1,3,2
39.885,3,3,1,3,5,4,1,3
39.89,0,5,14,1,1,1,2,1
39.895,1,0,2,1,2,2,1,1
39.9,0,2,5,4,1,1,1,1
39.905,6,9,9,1,1,0,0,4
39.91,3,2,7,3,4,3,2,2
39.915,0,4,6,1,0,3,1,1
39.92,2,3,9,6,1,0,5,1
39.925,3,2,7,4,2,2,0,0
39.93,0,2,22,17,2,1,2,3
39.935,17,3,18,17,6,2,4,14
39.94,2,8,19,9,4,6,2,7
39.945,3,9,5,3,1,1,2,3
39.95,17,3,13,10,1,1,5,5
39.955,20,12,7,11,4,5,3,1
39.96,15,1,4,1,4,4,4,23
39.965,4,0,4,1,2,2,1,3
39.97,3,5,15,1,3,4,10,3
39.975,7,11,27,10,8,1,2,3
39.98,4,0,7,10,3,3,3,7
39.985,0,2,3,2,2,1,0,0
39.99,2,0,6,4,4,5,5,4
39.995,2,1,6,1,1,2,3,5
40,2,11,15,35,2,4,1,2
40.005,8,4,12,43,10,6,3,1
40.01,1,7,18,20,4,6,3,1
40.015,2,2,9,7,1,2,1,1
40.02,1,2,10,7,4,0,1,3
40.025,2,2,10,14,1,0,0,2
40.03,1,0,1,1,4,0,2,3
40.035,0,5,11,7,6,4,2,2
40.04,1,1,6,1,2,2,1,3
40.045,2,11,29,3,4,0,1,0
40.05,3,5,0,5,1,3,3,1
40.055,2,6,2,5,4,2,1,1
40.06,2,1,1,4,1,2,3,4
40.065,3,3,7,1,1,2,0,2
40.07,0,3,8,1,5,2,3,2
40.075,1,4,5,4,0,2,2,3
40.08,2,1,1,5,1,2,1,2
40.085,1,2,15,2,3,2,4,0
40.09,1,5,13,1,5,3,1,3
40.095,3,1,2,1,5,4,2,0
40.1,2,3,4,1,0,3,0,2
40.105,0,2,10,7,1,1,4,1
40.11,1,1,17,13,5,2,2,1
40.115,3,3,18,2,3,2,0,2
40.12,3,11,28,7,3,5,2,4
40.125,0,3,8,8,1,5,2,0
40.13,1,2,2,1,0,1,3,1
40.135,1,2,2,1,5,1,2,4
40.14,2,11,7,5,4,5,3,4
40.145,2,3,3,4,1,2,1,0
40.15,1,1,2,5,2,4,3,2
40.155,7,16,7,7,2,1,2,5
40.16,2,3,8,2,3,4,2,3
40.165,2,2,9,3,0,1,1,3
40.17,2,4,14,5,1,1,1,3
40.175,1,3,13,3,1,1,1,0
40.18,3,2,13,7,1,2,3,3
40.185,0,2,4,10,2,3,4,2
40.19,0,3,3,2,2,2,0,2
40.195,1,2,8,4,1,2,0,0
40.2,1,1,3,5,4,2,1,0
40.205,2,7,15,14,4,4,4,3
40.21,2,5,3,4,4,2,3,1
40.215,2,2,28,8,1,2,1,0
40.22,2,2,13,1,4,3,1,1
40.225,2,0,2,1,1,2,3,3
40.23,1,1,4,11,6,3,2,1
40.235,2,4,1,0,1,1,2,2
40.24,1,4,1,4,1,0,2,1
40.245,0,1,0,11,3,3,2,4
40.25,1,3,24,20,13,3,3,1
40.255,1,2,2,7,1,1,1,1
40.26,0,5,9,3,5,3,1,1
40.265,4,9,10,7,12,4,0,3
40.27,1,3,4,16,1,5,3,2
40.275,1,0,4,16,0,2,3,0
40.28,0,2,1,7,1,1,1,1
40.285,1,1,9,3,4,2,0,1
40.29,2,2,25,17,2,0,5,3
40.295,5,11,90,54,14,9,1,3
40.3,2,8,16,13,3,1,1,1
40.305,1,1,10,24,4,2,1,2
40.31,3,1,8,21,3,2,1,1
40.315,3,5,18,3,4,3,2,1
40.32,7,11,39,19,10,9,4,6
40.325,3,5,15,18,1,1,3,1
40.33,1,1,35,15,3,1,2,1
40.335,5,7,1,22,5,5,6,5
40.34,4,12,19,23,0,6,8,4
40.345,2,5,14,27,2,1,1,1
40.35,4,3,30,69,9,6,0,3
40.355,1,1,1,31,14,2,2,2
40.36,4,7,19,12,16,5,6,4
40.365,5,14,23,34,23,8,0,2
40.37,9,17,61,82,38,14,6,7
40.375,7,18,70,48,20,10,5,6
40.38,6,6,31,65,18,8,4,4
40.385,5,11,49,84,1,4,4,3
40.39,8,17,2,8,18,4,5,6
40.395,30,52,33,12,52,23,21,21
40.4,12,12,64,16,19,17,10,9
40.405,1,5,15,64,3,1,1,0
40.41,5,22,67,68,20,4,3,2
40.415,2,2,83,92,1,2,1,1
40.42,11,23,68,69,27,9,8,8
40.425,7,15,2,83,7,8,4,5
40.43,12,28,88,12,15,17,6,9
40.435,15,16,25,57,26,25,12,12
40.44,4,10,17,48,8,3,5,4
40.445,1,6,24,45,0,5,2,1
40.45,10,9,25,91,29,17,9,9
40.455,18,19,102,42,27,19,13,15
40.46,36,62,2,43,41,31,24,29
40.465,2,6,15,54,8,8,4,3
40.47,24,21,44,106,46,32,18,18
40.475,11,10,25,85,46,30,16,8
40.48,17,21,3,36,21,9,7,11
40.485,8,19,6,15,12,4,6,5
40.49,2,13,80,36,5,2,2,3
40.495,25,48,106,77,40,24,18,17
40.5,22,25,81,114,17,18,16,14
40.505,3,1,9,42,8,2,0,0
40.51,13,17,69,111,29,23,10,11
40.515,15,17,49,41,43,24,13,13
40.52,10,18,40,50,35,10,6,7
40.525,7,5,5,57,7,12,7,6
40.53,11,25,45,58,36,22,15,10
40.535,6,5,85,33,31,11,6,2
40.54,4,24,90,72,3,9,6,3
40.545,7,27,89,95,11,12,5,3
40.55,10,13,42,86,14,23,7,7
40.555,1,25,76,69,21,13,3,0
40.56,5,15,1,29,2,3,1,8
40.565,8,51,91,87,17,7,5,7
40.57,13,9,11,46,12,16,9,11
40.575,21,38,101,108,47,30,17,15
40.58,19,48,25,66,41,25,16,11
40.585,11,43,127,39,23,1,0,8
40.59,20,51,66,33,38,14,11,10
40.595,9,2,24,1,2,7,9,11
40.6,28,47,68,22,53,32,26,25
40.605,41,92,124,33,63,28,21,30
40.61,19,25,119,59,39,7,6,17
40.615,20,30,54,62,3,21,14,13
40.62,35,69,128,79,39,34,26,25
40.625,19,40,74,30,24,16,11,14
40.63,17,41,65,59,15,14,9,15
40.635,12,23,109,51,20,9,7,10
40.64,18,33,38,34,30,20,12,13
40.645,16,36,53,34,11,11,6,8
40.65,1,8,43,2,7,11,5,2
40.655,13,11,97,63,7,3,1,12
40.66,5,17,67,22,7,5,1,2
40.665,3,8,23,79,4,8,5,7
40.67,26,26,54,11,32,31,18,29
40.675,8,12,50,93,20,14,7,9
40.68,3,2,43,85,39,11,3,4
40.685,18,31,63,19,2,17,10,13
40.69,1,9,46,12,9,0,5,2
40.695,4,14,91,25,1,1,2,2
40.7,5,15,46,60,2,3,2,1
40.705,30,54,100,109,47,36,24,20
40.71,5,1,30,27,3,3,1,1
40.715,7,19,86,74,17,9,6,4
40.72,25,31,42,22,4,12,10,18
40.725,8,32,56,10,14,6,7,8
40.73,6,19,92,30,16,8,3,2
40.735,8,11,15,95,20,13,7,6
40.74,3,9,38,19,11,5,0,3
40.745,11,20,14,52,8,9,7,9
40.75,7,4,11,15,14,7,1,5
40.755,2,31,113,13,1,6,0,2
40.76,17,4,44,57,27,17,13,14
40.765,13,12,26,52,29,16,11,10
40.77,16,21,55,21,0,11,12,12
40.775,3,1,41,33,14,14,7,1
40.78,7,18,34,8,5,3,1,4
40.785,8,26,15,11,1,1,1,4
40.79,3,13,40,73,14,17,7,3
40.795,20,33,31,39,46,33,17,14
40.8,7,6,23,46,25,10,7,3
40.805,7,10,58,21,9,14,8,8
40.81,8,8,71,76,13,4,5,10
40.815,4,11,71,83,21,5,1,3
40.82,2,9,49,21,3,4,4,3
40.825,7,4,25,46,1,4,3,1
40.83,1,9,31,18,0,2,1,2
40.835,14,18,9,24,5,8,9,8
40.84,3,8,9,14,5,1,1,2
40.845,10,24,40,14,3,7,2,5
40.85,3,4,23,8,11,8,4,2
40.855,11,21,18,33,22,12,7,8
40.86,13,34,51,64,32,20,12,7
40.865,7,8,25,14,7,8,6,6
40.87,4,6,42,10,5,9,5,0
40.875,4,20,42,68,1,8,3,2
40.88,15,31,66,46,18,11,6,7
40.885,9,9,25,33,20,12,3,6
40.89,5,2,32,21,12,1,1,7
40.895,1,25,60,4,12,1,3,6
40.9,2,1,38,18,2,2,3,2
40.905,9,36,61,54,4,1,2,5
40.91,8,28,87,56,23,11,7,2
40.915,1,19,55,2,5,3,4,3
40.92,5,12,5,26,11,8,5,5
40.925,11,35,69,43,21,14,9,8
40.93,2,2,15,21,3,1,1,1
40.935,1,4,24,16,2,1,1,1
40.94,2,5,1,5,1,1,1,3
40.945,1,15,63,32,12,2,2,1
40.95,4,5,1,6,10,3,4,4
40.955,2,8,26,6,1,3,2,1
40.96,1,5,36,10,0,3,0,0
40.965,2,4,52,19,4,10,5,4
40.97,1,8,40,27,0,3,3,2
40.975,8,18,9,1,1,8,6,6
40.98,7,2,17,13,7,2,0,5
40.985,1,19,11,18,4,4,1,3
40.99,3,5,6,21,2,1,0,1
40.995,7,18,51,5,6,2,3,4
41,4,2,25,15,4,0,3,2
41.005,5,12,16,0,0,3,2,2
41.01,3,5,25,14,0,0,3,3
41.015,5,4,14,4,1,2,1,7
41.02,6,2,18,4,1,2,3,6
41.025,5,10,1,6,7,2,10,6
41.03,2,6,28,5,0,1,3,1
41.035,3,0,7,2,3,2,3,3
41.04,4,2,18,8,4,3,1,5
41.045,4,22,23,6,12,6,1,2
41.05,12,6,16,12,12,5,4,2
41.055,11,1,9,3,5,1,0,0
41.06,3,9,30,41,7,5,4,3
41.065,2,0,4,2,2,3,6,1
41.07,7,10,14,3,4,7,3,3
41.075,8,6,5,5,6,1,4,3
41.08,3,4,12,7,2,2,5,0
41.085,1,5,24,40,10,5,6,6
41.09,1,1,8,7,3,3,2,2
41.095,9,2,8,0,5,2,2,1
41.1,5,3,3,13,5,5,6,3
41.105,3,1,8,10,4,2,5,3
41.11,6,3,13,10,8,2,4,2
41.115,2,1,8,6,2,1,2,4
41.12,2,6,11,9,2,1,1,1
41.125,1,3,7,9,2,3,4,0
41.13,7,1,1,1,3,4,5,6
41.135,1,2,5,2,1,3,4,3
41.14,8,1,3,6,3,4,2,8
41.145,0,1,22,20,1,1,0,3
41.15,0,2,1,4,2,1,1,2
41.155,0,1,6,23,4,1,2,1
41.16,2,3,5,5,2,2,4,2
41.165,4,1,4,6,3,1,1,1
41.17,3,1,2,6,3,3,1,2
41.175,1,1,2,7,3,7,1,1
41.18,2,2,4,4,8,4,5,2
41.185,14,4,8,8,3,2,5,19
41.19,1,1,8,4,3,2,0,5
41.195,10,1,4,1,1,1,0,1
41.2,1,1,3,3,0,1,1,2
41.205,2,1,2,2,3,3,0,3
41.21,3,1,1,0,1,2,2,3
41.215,2,1,3,2,2,2,0,20
41.22,4,4,5,0,1,1,2,1
41.225,2,0,0,0,5,0,1,1
41.23,10,0,4,2,2,1,5,2
41.235,11,1,11,4,6,4,3,9
41.24,3,1,10,3,3,2,2,3
41.245,0,2,0,1,2,2,1,0
41.25,5,2,1,1,5,4,4,7
41.255,0,1,2,5,3,4,3,5
41.26,4,1,6,1,0,0,1,5
41.265,1,0,2,2,2,0,2,1
41.27,1,0,6,6,4,0,4,2
41.275,4,0,0,3,3,1,4,7
41.28,10,2,3,5,8,4,5,13
41.285,1,0,5,4,0,1,1,0
41.29,0,3,0,4,2,1,1,5
41.295,2,1,11,13,2,1,0,4
41.3,5,1,2,2,5,0,3,0
41.305,0,3,8,10,5,5,5,2
41.31,1,1,1,2,3,3,2,3
41.315,4,2,1,0,2,2,4,3
41.32,1,0,1,5,2,2,1,1
41.325,5,0,1,0,1,1,1,4
41.33,3,3,3,2,2,2,4,2
41.335,0,2,2,0,1,2,2,3
41.34,0,2,5,1,1,1,0,3
41.345,4,1,5,1,2,1,1,0
41.35,2,1,1,2,3,3,1,4
41.355,2,0,9,2,1,1,0,2
41.36,1,2,10,2,0,2,1,1
41.365,4,3,2,6,1,0,0,2
41.37,0,4,3,1,1,1,1,0
41.375,2,2,0,1,1,1,0,2
41.38,2,2,2,4,5,2,1,2
41.385,2,1,1,3,1,4,2,2
41.39,2,3,3,2,1,1,3,4
41.395,0,2,0,8,1,4,1,2
41.4,0,2,0,9,4,6,2,3
41.405,2,3,2,6,2,1,5,2
41.41,2,3,1,6,3,1,2,3
41.415,3,4,13,19,11,5,1,2
41.42,0,2,2,1,4,0,1,1
41.425,3,8,3,2,3,1,1,0
41.43,1,0,3,1,1,1,3,0
41.435,3,2,3,1,4,4,4,3
41.44,0,4,6,1,1,3,2,1
41.445,1,4,7,1,3,1,1,1
41.45,2,6,5,3,8,3,2,4
41.455,1,3,1,1,5,3,3,1
41.46,1,5,1,2,1,2,1,1
41.465,3,1,6,2,3,2,1,0
41.47,0,0,7,5,2,2,4,5
41.475,1,0,2,3,1,4,0,0
41.48,2,1,1,1,2,4,3,2
41.485,1,1,0,1,3,0,1,1
41.49,0,0,11,3,0,2,1,0
41.495,5,4,26,16,7,3,2,3
41.5,2,4,3,3,2,1,2,3
41.505,0,1,4,3,1,2,0,2
41.51,0,1,1,4,3,4,4,2
41.515,0,2,9,7,2,3,0,2
41.52,2,5,5,1,5,2,1,1
41.525,2,1,2,2,2,0,1,3
41.53,0,3,3,2,1,2,0,0
41.535,1,2,2,2,2,3,3,2
41.54,1,1,1,2,6,7,5,2
41.545,2,1,0,2,1,2,4,2
41.55,1,3,0,2,0,0,0,0
41.555,1,1,2,1,4,4,4,2
41.56,2,3,2,0,4,1,2,1
41.565,1,1,2,0,1,1,0,2
41.57,4,1,8,1,2,1,1,2
41.575,1,3,0,1,0,3,3,1
41.58,0,2,4,0,0,1,1,3
41.585,6,5,2,4,6,5,3,4
41.59,2,2,7,2,2,4,5,2
41.595,4,3,5,10,3,1,1,2
41.6,0,2,0,1,1,1,0,0
41.605,0,1,1,1,2,2,3,3
41.61,4,4,2,9,6,1,2,1
41.615,0,3,13,8,1,4,0,1
41.62,0,0,0,2,4,2,2,0
41.625,1,0,1,5,3,3,5,3
41.63,1,2,3,0,0,1,1,0
41.635,2,2,2,3,6,4,1,3
41.64,2,5,8,6,1,4,4,4
41.645,0,1,12,3,9,5,4,1
41.65,1,1,2,10,4,0,4,1
41.655,1,4,8,4,5,3,2,0
41.66,8,9,6,18,11,8,6,6
41.665,0,4,13,7,1,1,2,0
41.67,0,3,33,23,5,2,0,1
41.675,5,7,42,41,4,1,1,4
41.68,5,7,4,18,6,1,1,2
41.685,3,7,26,29,9,4,1,3
41.69,13,21,5,0,16,14,10,10
41.695,2,4,11,23,0,1,1,2
41.7,3,6,1,5,8,7,5,3
41.705,4,10,12,18,6,2,2,4
41.71,4,8,55,35,14,5,2,1
41.715,9,12,15,14,9,10,9,10
41.72,0,2,24,19,3,3,0,1
41.725,7,16,39,62,18,10,7,6
41.73,10,18,12,45,20,7,6,7
41.735,10,19,37,37,20,13,6,6
41.74,13,17,16,47,23,18,11,12
41.745,6,6,72,37,18,11,10,8
41.75,6,9,75,61,12,7,3,3
41.755,11,13,46,13,20,12,10,9
41.76,2,8,23,31,13,3,0,1
41.765,4,39,82,75,19,7,4,1
41.77,0,11,5,71,4,2,1,4
41.775,6,7,22,26,21,9,4,4
41.78,11,30,77,47,38,15,10,8
41.785,18,36,93,81,33,16,9,10
41.79,15,25,69,3,20,7,6,13
41.795,16,13,11,63,17,16,12,11
41.8,35,42,6,58,52,40,28,28
41.805,17,34,25,25,29,23,13,10
41.81,11,11,43,15,2,1,1,7
41.815,28,51,44,72,59,37,22,21
41.82,42,65,90,128,91,59,34,32
41.825,33,66,46,49,67,38,21,21
41.83,6,16,51,47,24,10,8,8
41.835,26,37,52,41,33,23,16,17
41.84,26,27,42,19,39,25,16,20
41.845,4,1,53,38,14,2,1,3
41.85,17,23,23,3,55,31,18,12
41.855,6,14,82,60,4,2,1,1
41.86,25,33,24,82,36,33,18,14
41.865,36,55,17,40,60,51,31,26
41.87,32,9,67,27,42,42,26,25
41.875,22,17,31,23,22,19,14,13
41.88,12,24,25,39,26,5,7,9
41.885,13,65,66,3,5,6,4,0
41.89,2,15,90,96,23,1,0,1
41.895,16,34,45,39,21,6,3,5
41.9,23,25,47,9,41,18,13,15
41.905,24,47,80,53,27,22,19,20
41.91,9,46,127,127,25,0,9,1
41.915,11,38,18,104,22,8,5,4
41.92,3,8,77,55,1,5,3,2
41.925,11,12,55,74,29,16,10,10
41.93,35,11,74,60,25,23,19,29
41.935,21,7,30,9,33,31,17,19
41.94,36,99,85,4,41,37,26,21
41.945,16,16,42,31,13,14,12,18
41.95,35,47,52,55,37,38,33,24
41.955,23,0,16,56,37,25,13,16
41.96,12,11,16,40,8,3,6,6
41.965,13,26,37,11,6,9,4,10
41.97,19,42,28,15,6,16,12,11
41.975,20,29,23,48,29,13,9,8
41.98,8,18,4,126,4,8,6,8
41.985,5,16,20,65,8,10,7,0
41.99,10,43,39,70,7,6,1,3
41.995,20,26,38,38,22,14,8,7
42,11,15,62,20,13,5,7,9
42.005,15,12,11,60,20,20,8,6
42.01,1,4,37,67,12,1,6,2
42.015,11,50,17,47,4,4,1,4
42.02,9,13,18,41,3,9,7,5
42.025,32,51,0,41,47,36,15,21
42.03,18,36,32,6,9,10,8,12
42.035,18,19,19,29,8,10,8,11
42.04,30,30,39,34,46,33,23,24
42.045,30,42,94,32,37,23,15,23
42.05,45,73,128,76,50,40,27,36
42.055,9,0,85,104,52,14,8,6
42.06,5,6,71,56,29,9,2,1
42.065,10,5,3,44,14,12,7,5
42.07,36,34,48,32,34,32,23,27
42.075,27,26,39,85,33,23,20,20
42.08,22,53,71,105,48,16,11,8
42.085,48,101,128,128,80,48,34,31
42.09,2,11,4,53,17,8,5,3
42.095,23,41,109,109,28,20,13,15
42.1,5,16,58,58,4,2,5,4
42.105,5,18,92,117,36,15,8,5
42.11,2,18,75,36,8,7,4,1
42.115,6,20,1,2,14,9,8,8
42.12,3,7,48,15,1,3,1,0
42.125,10,3,58,17,19,11,4,6
42.13,13,2,11,36,36,27,15,9
42.135,17,54,29,28,20,8,8,11
42.14,18,15,34,2,20,17,14,13
42.145,5,13,10,3,10,8,6,6
42.15,1,8,14,13,10,4,5,2
42.155,13,32,29,4,9,3,4,5
42.16,6,3,35,21,5,2,4,3
42.165,30,70,71,61,36,24,17,20
42.17,28,66,58,14,25,21,20,17
42.175,8,5,14,27,6,6,4,5
42.18,1,11,46,0,9,7,6,1
42.185,13,48,95,2,2,2,2,4
42.19,2,1,9,12,16,4,0,2
42.195,1,5,63,42,5,1,0,1
42.2,5,3,15,27,15,10,3,4
42.205,0,9,33,52,12,1,3,4
42.21,6,9,29,40,8,6,6,5
42.215,19,37,56,40,24,18,12,13
42.22,6,5,7,18,7,10,7,4
42.225,4,4,39,4,3,1,0,1
42.23,21,38,26,48,36,35,22,17
42.235,3,11,17,14,20,6,1,2
42.24,9,34,127,59,21,7,6,5
42.245,2,9,33,17,3,4,3,2
42.25,0,11,15,9,3,7,3,1
42.255,0,13,128,98,14,1,0,2
42.26,18,40,32,1,23,20,14,13
42.265,5,11,62,8,2,1,1,0
42.27,2,2,22,4,3,3,3,4
42.275,1,9,17,26,12,6,5,2
42.28,3,6,11,27,8,7,1,0
42.285,1,9,1,10,0,3,5,2
42.29,3,4,26,34,0,2,1,3
42.295,5,0,12,9,0,3,0,3
42.3,3,4,23,33,3,1,0,2
42.305,5,9,34,24,14,9,7,4
42.31,1,4,2,14,0,1,0,2
42.315,4,25,4,0,0,3,0,2
42.32,1,4,18,11,10,4,2,4
42.325,2,2,11,23,8,1,1,3
42.33,4,4,7,1,4,0,2,3
42.335,2,7,13,14,1,0,1,3
42.34,0,4,9,3,3,3,2,1
42.345,2,1,16,13,3,5,10,3
42.35,3,1,16,6,0,3,4,3
42.355,4,0,1,10,1,1,3,1
42.36,1,7,5,2,3,2,1,7
42.365,2,5,1,13,8,4,8,5
42.37,0,7,12,2,4,4,4,4
42.375,2,0,15,20,9,2,1,1
42.38,2,1,2,4,1,1,0,1
42.385,2,7,7,4,5,0,1,3
42.39,2,3,14,0,2,0,1,0
42.395,1,3,10,3,1,1,0,0
42.4,1,2,9,1,4,2,4,3
42.405,1,6,2,6,6,2,2,2
42.41,1,5,4,10,1,2,1,3
42.415,4,0,1,5,1,1,1,6
42.42,0,2,9,18,3,2,2,0
42.425,2,9,42,32,7,4,2,1
42.43,10,1,1,2,1,2,3,3
42.435,4,3,9,5,0,1,3,6
42.44,4,1,0,2,3,2,1,1
42.445,9,10,12,12,0,2,1,1
42.45,3,6,15,13,0,1,0,4
42.455,2,10,54,47,9,6,5,6
42.46,0,3,2,1,1,1,0,1
42.465,3,1,3,4,0,2,0,3
42.47,7,2,4,4,4,1,2,12
42.475,6,1,11,10,1,0,2,8
42.48,0,2,2,1,2,3,3,1
42.485,15,4,5,7,3,8,2,7
42.49,13,3,8,3,3,1,2,1
42.495,4,3,6,3,0,1,0,2
42.5,1,13,5,3,1,0,1,2
42.505,8,11,9,7,1,1,0,1
42.51,2,1,7,8,2,5,2,1
42.515,5,0,2,0,5,5,6,9
42.52,1,2,1,2,4,3,4,1
42.525,1,3,1,0,4,5,4,0
42.53,2,2,6,2,1,1,0,1
42.535,7,7,5,1,1,2,4,2
42.54,13,4,4,2,1,2,2,2
42.545,1,2,1,2,1,1,1,4
42.55,1,5,13,4,3,1,0,1
42.555,4,3,3,3,2,1,1,0
42.56,4,1,7,6,2,4,4,0
42.565,1,3,6,2,0,1,3,2
42.57,4,4,6,3,1,0,0,1
42.575,3,1,2,3,2,1,1,3
42.58,2,4,2,2,1,1,4,3
42.585,2,1,2,5,0,1,3,2
42.59,1,1,1,7,4,0,3,0
42.595,3,0,0,1,1,1,2,6
42.6,0,4,5,4,1,2,0,1
42.605,0,11,9,2,3,3,0,2
42.61,1,0,5,0,3,4,2,1
42.615,4,0,0,2,6,2,2,1
42.62,1,1,7,4,1,2,1,0
42.625,1,7,18,16,6,2,3,1
42.63,2,4,3,6,5,2,2,1
42.635,4,3,0,7,0,1,0,4
42.64,6,0,6,3,5,3,2,10
42.645,0,0,3,5,2,1,3,0
42.65,2,1,1,2,0,1,1,1
42.655,2,1,1,1,1,3,1,1
42.66,2,3,11,3,3,1,1,0
42.665,2,1,1,1,4,0,5,3
42.67,0,2,1,0,1,2,0,1
42.675,2,1,11,1,2,1,1,0
42.68,1,3,2,3,1,2,1,1
42.685,4,3,4,5,3,6,6,4
42.69,1,1,2,3,1,2,2,2
42.695,4,2,7,2,2,3,3,2
42.7,0,2,1,0,1,1,0,0
42.705,0,3,7,10,4,2,2,0
42.71,3,4,2,0,2,1,4,2
42.715,1,0,1,2,0,1,3,2
42.72,1,2,6,4,2,1,1,1
42.725,2,4,7,4,5,0,3,3
42.73,2,3,0,4,3,5,2,0
42.735,3,2,4,1,1,2,0,1
42.74,0,3,6,4,4,5,5,2
42.745,1,0,7,8,3,0,1,2
42.75,1,3,3,6,8,0,0,2
42.755,2,9,7,3,7,5,3,3
42.76,0,2,1,5,7,3,1,1
42.765,1,2,10,7,4,1,2,1
42.77,2,1,4,1,1,0,1,2
42.775,1,3,5,0,1,2,4,1
42.78,1,1,7,9,8,4,1,2
42.785,0,3,1,1,6,5,3,2
42.79,0,3,2,4,2,2,1,2
42.795,2,1,6,5,0,2,2,1
42.8,1,1,3,1,1,0,1,1
42.805,1,1,1,0,3,2,1,0
42.81,1,2,5,2,0,0,1,3
42.815,0,2,2,2,4,3,3,4
42.82,4,3,2,4,2,4,2,2
42.825,1,1,6,9,1,3,2,2
42.83,1,2,4,2,1,0,2,1
42.835,2,1,7,2,3,3,3,0
42.84,1,0,1,4,0,0,0,0
42.845,1,2,2,2,2,1,1,0
42.85,0,2,2,2,1,2,1,2
42.855,1,2,15,8,3,5,1,1
42.86,3,6,7,3,2,4,4,0
42.865,2,4,4,4,1,2,1,0
42.87,1,0,1,1,4,2,1,1
42.875,0,2,5,1,1,0,3,0
42.88,1,3,3,5,7,3,3,0
42.885,1,4,23,18,6,1,2,2
42.89,0,0,6,1,4,1,0,1
42.895,4,2,3,4,4,1,2,3
42.9,2,2,11,2,2,1,0,1
42.905,1,1,6,4,0,4,3,2
42.91,0,1,4,2,3,2,0,2
42.915,0,2,4,4,0,1,2,0
42.92,0,4,12,2,1,3,2,3
42.925,1,4,14,9,4,1,0,0
42.93,1,1,2,0,4,5,6,4
42.935,1,1,5,2,1,4,0,2
42.94,2,0,12,16,1,1,1,1
42.945,2,1,6,15,2,2,0,0
42.95,5,5,3,1,11,5,4,5
42.955,2,1,11,4,2,3,1,1
42.96,1,2,11,1,1,1,0,1
42.965,3,5,43,39,1,2,2,1
42.97,7,12,69,71,12,6,3,5
42.975,4,4,90,48,1,3,5,5
42.98,5,5,54,9,7,9,6,5
42.985,1,0,0,9,1,1,1,1
42.99,1,8,68,53,5,6,1,1
42.995,2,2,4,36,5,8,1,1
43,9,11,16,10,12,7,3,6
43.005,14,20,2,15,23,12,8,9
43.01,5,9,2,2,2,3,0,7
43.015,10,5,19,8,7,0,2,11
43.02,13,33,105,95,20,13,9,11
43.025,6,34,116,102,43,19,8,5
43.03,18,0,19,27,11,8,4,17
43.035,8,6,9,22,4,6,8,7
43.04,11,13,48,27,13,11,7,11
43.045,5,16,6,24,7,5,3,4
43.05,4,16,46,49,8,0,1,2
43.055,9,16,6,20,21,12,10,7
43.06,14,20,37,6,16,15,12,11
43.065,24,43,68,23,29,21,11,15
43.07,28,47,36,41,50,32,21,18
43.075,8,8,80,63,9,4,4,4
43.08,20,31,36,49,20,20,14,15
43.085,20,33,42,20,21,15,10,14
43.09,24,51,112,15,25,12,9,15
43.095,4,8,55,67,3,2,1,3
43.1,27,45,53,91,67,45,26,21
43.105,27,64,82,105,68,47,30,17
43.11,23,45,54,64,43,29,18,19
43.115,24,39,12,2,26,16,14,20
43.12,12,4,100,121,27,9,2,10
43.125,25,58,60,84,48,28,17,17
43.13,10,27,2,91,10,8,2,6
43.135,18,36,91,128,43,21,12,14
43.14,25,30,80,63,34,30,18,19
43.145,19,23,45,11,18,23,16,15
43.15,4,14,102,91,26,12,6,3
43.155,22,25,78,33,11,6,4,9
43.16,21,60,110,88,27,12,10,12
43.165,5,10,39,75,15,3,2,0
43.17,23,50,86,68,24,12,10,15
43.175,5,7,68,60,36,12,4,5
43.18,29,82,73,48,43,27,21,19
43.185,14,37,76,37,18,1,2,9
43.19,2,2,41,11,8,5,1,2
43.195,19,29,109,51,29,5,5,18
43.2,4,10,82,90,34,6,0,1
43.205,5,4,16,20,3,7,4,5
43.21,2,19,98,119,32,7,2,3
43.215,4,10,5,63,23,5,3,2
43.22,27,61,57,59,35,33,23,14
43.225,45,82,47,34,63,44,32,31
43.23,5,7,5,60,12,6,1,5
43.235,20,4,77,96,41,31,19,17
43.24,30,16,18,88,68,53,31,24
43.245,14,25,21,24,32,23,21,13
43.25,13,8,15,10,7,14,7,9
43.255,24,44,42,13,14,12,13,10
43.26,5,4,14,112,12,2,0,3
43.265,4,6,0,17,1,0,4,2
43.27,4,3,48,3,13,1,1,5
43.275,4,18,40,15,11,7,3,2
43.28,18,22,81,50,23,19,12,13
43.285,4,14,0,6,0,9,5,6
43.29,1,12,36,88,16,2,1,2
43.295,8,25,78,11,2,1,2,4
43.3,13,19,55,38,30,13,8,11
43.305,23,34,19,22,40,22,12,16
43.31,11,40,45,37,2,1,2,9
43.315,17,9,31,51,20,19,13,18
43.32,5,3,47,104,15,12,7,4
43.325,12,15,99,122,46,27,14,12
43.33,20,21,12,56,30,22,14,21
43.335,6,14,31,43,13,3,2,4
43.34,4,16,13,53,9,1,1,0
43.345,10,1,19,17,4,8,5,7
43.35,8,29,128,66,0,6,4,0
43.355,25,35,27,23,37,24,17,18
43.36,14,29,95,85,31,21,14,10
43.365,18,17,50,35,33,19,15,21
43.37,10,11,0,74,21,7,1,9
43.375,6,3,128,128,49,12,2,9
43.38,9,7,65,93,21,6,4,3
43.385,5,8,8,62,25,7,3,9
43.39,5,6,6,25,23,16,13,5
43.395,12,23,22,71,25,12,9,9
43.4,10,6,124,89,11,8,8,4
43.405,20,24,22,56,16,22,16,14
43.41,10,25,79,75,11,10,7,6
43.415,3,16,56,55,1,4,1,5
43.42,11,38,50,43,3,1,4,9
43.425,5,0,23,14,3,2,2,0
43.43,4,6,21,68,8,7,7,3
43.435,19,42,97,86,38,21,12,15
43.44,23,21,72,22,38,37,23,24
43.445,4,4,35,14,9,0,1,0
43.45,6,15,64,81,20,7,8,3
43.455,4,1,22,13,8,8,3,3
43.46,1,15,16,16,2,9,3,4
43.465,6,16,11,15,2,2,10,4
43.47,5,1,77,33,18,6,3,5
43.475,0,19,20,37,0,3,2,3
43.48,4,3,61,1,2,6,3,3
43.485,2,4,2,23,5,1,2,2
43.49,2,17,33,7,2,3,0,2
43.495,1,7,14,4,4,0,1,1
43.5,0,2,20,34,1,3,4,2
43.505,1,12,34,19,7,4,3,4
43.51,3,6,21,10,3,1,1,3
43.515,2,10,7,11,5,4,3,1
43.52,10,30,28,39,12,8,5,6
43.525,4,19,18,27,3,0,3,1
43.53,12,23,7,8,13,18,8,10
43.535,0,3,0,14,2,0,4,3
43.54,2,2,22,7,13,10,7,5
43.545,2,15,36,15,5,4,0,1
43.55,1,7,13,19,8,5,5,0
43.555,8,6,9,11,7,4,0,0
43.56,1,3,2,1,2,0,0,1
43.565,0,8,19,9,0,1,1,5
43.57,2,5,6,3,1,1,0,0
43.575,1,7,15,18,9,7,6,2
43.58,1,6,14,7,1,4,2,5
43.585,4,4,13,4,4,1,1,0
43.59,17,2,15,7,6,5,1,16
43.595,20,3,5,3,0,2,4,20
43.6,2,0,0,6,2,4,0,1
43.605,4,1,9,5,1,1,2,3
43.61,13,2,6,10,1,3,4,2
43.615,3,3,2,3,1,2,4,11
43.62,2,6,8,13,11,9,7,0
43.625,12,6,15,4,2,1,4,6
43.63,23,3,0,2,4,5,1,7
43.635,10,0,3,0,2,3,3,5
43.64,6,2,10,2,3,2,0,5
43.645,8,6,19,27,6,1,3,12
43.65,11,8,17,45,14,4,4,2
43.655,5,5,4,6,0,3,3,0
43.66,1,0,3,6,0,4,3,2
43.665,1,4,0,3,7,6,7,4
43.67,5,1,8,13,1,2,2,6
43.675,4,0,6,6,2,5,2,2
43.68,2,4,4,3,1,0,2,2
43.685,2,3,17,6,1,2,2,2
43.69,2,2,3,5,2,1,1,9
43.695,13,5,4,10,7,3,3,0
43.7,2,2,2,4,3,0,1,0
43.705,7,3,1,6,1,2,2,3
43.71,6,0,2,4,2,2,0,6
43.715,1,3,3,1,2,2,2,5
43.72,4,3,0,2,2,4,2,5
43.725,5,0,11,8,2,1,2,5
43.73,1,5,25,24,4,1,4,2
43.735,0,3,2,3,2,5,1,2
43.74,4,3,6,2,1,6,0,2
43.745,1,3,4,9,1,3,0,1
43.75,3,1,9,19,6,1,2,4
43.755,4,0,1,12,2,3,5,3
43.76,2,1,8,4,2,4,2,1
43.765,7,3,1,2,5,4,3,8
43.77,0,1,5,8,4,4,2,3
43.775,1,1,2,1,4,3,1,0
43.78,1,3,4,1,6,6,5,4
43.785,2,1,8,5,4,4,2,3
43.79,3,0,4,0,0,4,2,4
43.795,0,3,6,1,3,3,2,3
43.8,1,3,6,4,2,1,1,1
43.805,3,0,9,0,0,0,1,2
43.81,0,9,5,1,4,2,2,0
43.815,5,3,3,0,3,5,1,5
43.82,2,1,3,0,2,2,0,3
43.825,3,7,3,5,5,4,4,3
43.83,3,1,10,0,3,2,2,1
43.835,2,2,1,3,1,5,4,0
43.84,3,5,3,2,1,2,1,1
43.845,1,2,2,6,3,2,2,0
43.85,0,1,4,2,7,2,2,1
43.855,0,0,0,4,5,1,1,1
43.86,1,3,1,4,4,2,1,2
43.865,2,2,5,2,1,2,1,1
43.87,1,1,4,2,6,3,6,1
43.875,0,0,2,3,3,0,2,0
43.88,1,2,2,4,3,2,0,0
43.885,1,0,2,6,6,3,1,1
43.89,6,4,4,8,2,0,1,4
43.895,0,2,8,2,2,2,1,2
43.9,1,2,9,5,0,4,0,0
43.905,2,2,4,0,5,3,2,3
43.91,2,1,6,0,2,1,1,1
43.915,1,3,5,1,6,2,2,1
43.92,2,1,1,0,2,1,4,3
43.925,0,2,3,3,1,3,0,1
43.93,2,1,5,0,4,2,2,4
43.935,2,4,1,2,5,6,3,1
43.94,1,0,1,2,6,2,0,1
43.945,0,0,8,7,3,2,1,0
43.95,1,1,14,11,1,2,0,1
43.955,1,0,3,6,2,2,3,0
43.96,0,0,1,0,2,5,1,0
43.965,0,1,6,1,5,2,3,1
43.97,1,2,2,8,4,0,0,1
43.975,2,4,9,16,6,2,1,1
43.98,1,0,8,2,2,2,3,3
43.985,2,1,4,8,4,3,2,3
43.99,2,2,3,4,2,0,1,1
43.995,1,1,1,4,2,2,1,1
44,2,4,16,8,6,2,1,1
44.005,1,0,0,0,1,4,1,1
44.01,2,4,2,5,2,1,3,4
44.015,2,2,6,1,2,1,0,0
44.02,0,0,2,3,4,0,1,3
44.025,2,2,15,5,2,0,2,0
44.03,2,4,0,8,2,1,0,2
44.035,3,1,8,7,2,0,1,2
44.04,1,1,5,1,2,3,4,2
44.045,1,1,1,3,1,1,2,1
44.05,1,4,12,8,6,1,4,2
44.055,1,3,11,11,1,1,2,0
44.06,3,0,16,4,9,11,4,3
44.065,3,6,16,15,7,2,3,3
44.07,1,1,2,4,3,4,3,1
44.075,2,2,7,10,5,7,7,1
44.08,1,1,6,1,1,1,2,2
44.085,1,1,1,12,6,4,1,2
44.09,1,1,8,5,8,4,3,4
44.095,1,4,4,9,7,7,7,2
44.1,2,3,1,7,9,14,6,0
44.105,1,3,12,10,3,0,1,0
44.11,2,2,12,1,0,1,0,0
44.115,2,10,7,5,4,3,4,4
44.12,1,1,2,7,8,6,4,1
44.125,2,2,3,1,1,1,2,1
44.13,1,1,0,2,7,1,0,1
44.135,1,3,3,5,8,2,5,2
44.14,2,2,6,10,4,4,2,1
44.145,1,8,2,12,6,1,1,1
44.15,2,3,6,16,8,5,4,0
44.155,2,1,4,12,7,2,1,1
44.16,0,2,0,7,1,1,2,2
44.165,0,1,18,14,7,3,0,0
44.17,2,6,19,14,9,3,4,3
44.175,1,3,3,5,3,3,2,4
44.18,2,2,6,5,2,3,2,0
44.185,0,2,3,3,5,2,1,1
44.19,1,3,0,4,1,1,2,0
44.195,1,2,9,11,2,3,1,0
44.2,0,1,6,9,5,8,4,2
44.205,0,4,14,7,1,3,2,2
44.21,3,4,13,6,0,2,1,0
44.215,0,2,4,0,3,1,1,0
44.22,2,2,0,4,2,12,4,1
44.225,1,2,2,2,4,12,0,0
44.23,2,3,3,7,8,9,2,2
44.235,2,5,12,17,10,6,4,1
44.24,2,3,13,28,9,8,1,3
44.245,4,6,26,7,4,6,6,5
44.25,1,1,15,3,3,5,4,2
44.255,2,0,6,7,0,0,0,1
44.26,3,3,4,15,6,8,2,1
44.265,2,6,40,18,6,4,0,1
44.27,7,13,70,49,14,2,2,6
44.275,3,2,1,5,1,5,4,2
44.28,0,4,16,10,1,1,1,1
44.285,1,1,7,15,2,4,1,1
44.29,5,6,34,32,8,6,4,7
44.295,1,4,19,12,0,2,2,2
44.3,6,17,42,18,7,0,1,2
44.305,3,4,8,15,1,2,1,2
44.31,0,1,24,26,5,3,2,0
44.315,1,0,21,14,7,1,3,1
44.32,1,5,38,13,2,1,6,2
44.325,5,10,34,0,6,2,0,2
44.33,3,17,36,2,8,2,2,1
44.335,0,4,29,21,4,0,0,2
44.34,3,2,35,24,3,1,4,3
44.345,11,11,29,24,1,5,5,8
44.35,6,1,63,105,9,4,8,8
44.355,5,6,82,73,17,2,1,3
44.36,15,29,1,37,20,11,8,10
44.365,4,21,14,12,20,6,6,5
44.37,1,2,35,20,0,6,2,2
44.375,6,4,33,78,27,13,5,3
44.38,7,4,13,52,44,10,11,8
44.385,4,1,44,94,10,2,2,3
44.39,11,18,39,29,18,10,5,8
44.395,8,19,23,13,23,7,7,5
44.4,1,12,45,86,33,6,4,2
44.405,10,16,92,127,30,14,4,10
44.41,33,47,102,128,39,29,19,26
44.415,10,11,25,78,26,7,5,6
44.42,4,2,7,66,24,5,1,4
44.425,33,75,61,56,36,35,22,18
44.43,26,42,48,22,29,44,28,22
44.435,1,0,62,9,5,1,0,1
44.44,3,26,1,33,33,9,4,4
44.445,3,3,5,8,22,8,2,3
44.45,42,71,74,10,53,44,29,29
44.455,27,61,106,88,56,26,18,19
44.46,23,40,126,91,48,20,18,23
44.465,4,5,63,7,19,15,10,9
44.47,8,15,76,64,19,2,5,5
44.475,5,15,1,33,12,2,5,4
44.48,9,3,22,8,12,5,2,8
44.485,32,45,88,43,21,17,12,25
44.49,20,27,12,10,26,21,14,16
44.495,0,5,127,114,19,3,0,2
44.5,21,41,118,119,56,22,18,18
44.505,7,18,48,42,10,7,4,4
44.51,5,29,18,16,10,2,2,1
44.515,8,31,47,14,8,5,3,3
44.52,11,23,36,8,11,9,4,5
44.525,18,38,60,6,3,4,6,7
44.53,16,56,95,3,16,7,8,10
44.535,2,2,19,60,25,10,4,2
44.54,5,1,19,41,31,15,8,2
44.545,15,25,10,97,46,18,12,11
44.55,2,16,54,21,2,3,2,3
44.555,15,4,7,12,27,19,10,11
44.56,10,1,43,4,7,7,6,7
44.565,37,62,68,75,33,31,19,23
44.57,22,47,90,39,23,18,15,13
44.575,2,0,33,4,9,5,3,6
44.58,1,18,74,79,15,1,1,3
44.585,16,44,44,18,1,14,9,7
44.59,13,18,32,3,15,14,9,5
44.595,0,2,27,6,5,6,6,4
44.6,21,41,73,73,16,19,15,14
44.605,22,42,25,10,26,20,13,17
44.61,6,15,31,9,2,6,2,3
44.615,2,9,21,11,2,2,2,0
44.62,10,11,25,62,17,8,7,7
44.625,16,19,96,82,43,17,12,13
44.63,8,19,28,78,22,1,2,3
44.635,13,22,19,36,28,12,10,7
44.64,14,40,3,56,11,7,7,5
44.645,0,10,18,41,14,4,2,0
44.65,11,27,41,44,14,6,5,5
44.655,6,3,19,2,19,6,1,4
44.66,8,2,4,81,3,7,3,6
44.665,4,8,47,11,1,8,4,2
44.67,5,9,34,14,1,1,2,5
44.675,1,11,13,46,7,4,1,3
44.68,9,16,5,19,6,9,2,4
44.685,3,2,30,22,2,1,1,1
44.69,5,21,49,29,18,1,2,2
44.695,4,9,3,29,7,2,3,3
44.7,16,18,1,32,3,4,5,14
44.705,18,41,88,91,33,8,4,10
44.71,30,61,71,50,48,26,22,21
44.715,1,1,10,29,17,4,2,2
44.72,7,12,21,21,13,9,5,4
44.725,13,18,15,63,4,10,9,9
44.73,16,28,13,4,16,14,9,12
44.735,8,3,12,2,14,10,7,4
44.74,2,3,2,12,4,4,5,3
44.745,5,5,4,4,5,1,2,3
44.75,9,10,4,24,17,15,9,7
44.755,11,14,7,9,5,4,6,9
44.76,1,9,36,24,4,4,1,2
44.765,4,12,27,23,3,2,4,2
44.77,1,1,55,6,6,7,6,1
44.775,3,15,52,17,8,3,7,3
44.78,8,22,32,4,0,4,5,4
44.785,4,3,23,12,4,6,6,1
44.79,2,8,14,13,6,1,1,2
44.795,5,7,14,15,6,8,1,1
44.8,0,3,0,27,1,5,3,0
44.805,11,19,1,35,7,14,11,9
44.81,3,5,3,8,12,9,6,3
44.815,6,9,22,17,2,2,0,6
44.82,22,1,33,21,3,2,2,21
44.825,3,0,6,11,11,7,1,2
44.83,0,1,1,11,5,7,9,1
44.835,2,8,15,1,8,12,3,1
44.84,8,3,0,4,9,7,3,9
44.845,2,3,1,11,7,0,4,4
44.85,5,2,6,6,3,4,3,3
44.855,4,10,16,15,9,4,8,9
44.86,8,4,11,6,6,14,0,16
44.865,13,7,15,14,6,5,2,14
44.87,10,3,12,3,1,3,3,2
44.875,1,0,9,1,10,1,2,0
44.88,1,1,1,1,2,1,2,10
44.885,11,2,3,4,2,4,4,2
44.89,1,1,2,6,10,1,5,3
44.895,2,4,10,2,1,4,4,2
44.9,6,1,2,2,0,0,4,4
44.905,2,0,3,7,0,1,0,3
44.91,6,1,3,0,2,5,4,6
44.915,17,1,11,6,2,0,3,2
44.92,2,1,3,7,1,1,3,4
44.925,11,1,9,8,1,1,1,9
44.93,1,4,29,31,11,6,2,5
44.935,13,4,11,5,2,1,2,1
44.94,4,1,1,4,0,3,0,4
44.945,0,2,3,4,2,8,1,2
44.95,5,2,6,9,3,1,1,3
44.955,6,3,6,0,1,3,2,2
44.96,0,3,2,4,2,2,1,3
44.965,1,3,10,7,2,2,1,4
44.97,6,0,7,3,2,6,2,2
44.975,5,0,0,2,1,1,2,3
44.98,3,1,5,5,4,3,0,0
44.985,4,1,0,1,0,1,1,2
44.99,3,1,4,1,0,1,1,1
44.995,3,2,11,3,1,6,3,1
45,3,6,10,3,9,1,3,0
45.005,1,3,15,4,1,4,3,3
45.01,1,2,6,6,2,1,0,3
45.015,2,2,1,9,4,5,4,1
45.02,3,3,3,2,0,3,1,0
45.025,2,1,4,3,2,1,0,5
45.03,1,2,4,4,2,3,1,0
45.035,4,1,1,4,1,0,2,2
45.04,2,1,8,6,1,2,2,4
45.045,0,2,17,18,4,4,4,2
45.05,2,1,3,1,3,1,1,1
45.055,2,1,5,4,1,3,0,0
45.06,3,2,0,1,3,1,1,1
45.065,4,0,6,14,6,3,2,1
45.07,3,3,22,1,1,1,2,3
45.075,2,4,17,20,11,4,5,4
45.08,0,0,7,7,4,2,1,1
45.085,6,7,8,9,0,2,6,1
45.09,1,3,0,6,5,3,0,3
45.095,1,3,13,11,2,5,3,0
45.1,0,1,14,4,4,7,2,0
45.105,0,2,8,2,0,5,2,1
45.11,2,3,28,9,1,2,2,0
45.115,3,4,3,2,1,4,1,1
45.12,1,3,6,3,2,4,2,1
45.125,2,2,4,2,1,5,3,3
45.13,1,1,6,1,0,1,1,2
45.135,1,5,4,1,1,2,1,2
45.14,1,2,2,4,6,2,4,1
45.145,1,0,3,0,1,3,2,0
45.15,0,3,3,10,2,2,0,2
45.155,2,1,1,1,3,2,0,1
45.16,1,2,4,1,3,2,1,2
45.165,0,2,2,4,4,6,1,1
45.17,3,2,12,2,0,1,0,4
45.175,0,0,6,2,0,4,3,0
45.18,2,2,5,7,9,1,2,1
45.185,1,1,7,3,4,2,1,2
45.19,2,1,7,3,0,2,2,2
45.195,2,1,2,1,5,2,0,2
45.2,2,0,1,1,2,4,2,2
45.205,2,2,2,2,3,4,5,0
45.21,1,2,3,2,3,1,3,0
45.215,1,1,2,2,1,3,2,1
45.22,1,3,6,5,7,3,3,1
45.225,0,2,14,3,3,3,0,3
45.23,0,4,17,3,5,7,2,2
45.235,1,0,1,1,1,4,1,2
45.24,2,2,15,4,2,3,2,1
45.245,2,4,10,9,3,4,4,2
45.25,0,2,12,6,6,5,4,2
45.255,0,3,9,2,0,1,0,1
45.26,2,2,0,0,0,3,1,1
45.265,0,2,3,1,1,1,1,3
45.27,1,4,4,4,0,4,1,1
45.275,4,3,1,2,0,1,0,0
45.28,0,0,6,0,1,3,3,1
45.285,2,2,7,4,5,3,3,2
45.29,0,2,2,0,5,3,4,3
45.295,1,2,3,1,1,0,0,1
45.3,1,3,1,0,0,4,3,2
45.305,0,0,1,3,1,1,1,2
45.31,2,2,1,3,5,5,2,2
45.315,1,1,2,1,4,4,2,1
45.32,1,0,0,1,2,2,0,1
45.325,0,1,8,2,1,4,2,0
45.33,0,0,6,2,3,3,1,2
45.335,2,1,3,3,4,0,0,1
45.34,0,4,12,8,8,3,2,2
45.345,4,3,14,2,6,0,1,3
45.35,1,5,25,12,0,2,4,2
45.355,2,2,8,8,1,3,1,2
45.36,2,2,14,6,1,2,2,1
45.365,3,4,23,1,3,8,1,1
45.37,1,3,15,1,8,3,2,2
45.375,2,4,2,0,1,7,1,1
45.38,2,0,1,0,5,2,0,2
45.385,0,0,1,0,3,2,2,1
45.39,3,2,7,2,1,4,3,1
45.395,0,0,1,14,2,13,4,3
45.4,2,1,6,16,4,8,0,2
45.405,3,3,2,4,0,0,0,0
45.41,2,1,4,3,4,2,0,0
45.415,1,1,2,2,6,1,1,0
45.42,4,4,2,5,16,8,5,4
45.425,2,1,5,9,3,2,3,2
45.43,0,1,11,17,3,0,0,1
45.435,9,9,19,12,6,2,4,9
45.44,4,0,14,21,2,3,2,4
45.445,2,7,13,33,12,2,5,1
45.45,3,7,5,6,9,3,1,2
45.455,7,0,14,32,3,0,1,7
45.46,32,15,24,66,19,9,5,29
45.465,15,22,7,82,33,17,9,9
45.47,7,10,57,27,20,10,6,5
45.475,13,30,48,92,28,15,11,9
45.48,17,32,22,45,40,28,17,13
45.485,4,5,109,86,15,5,3,7
45.49,13,30,92,25,9,9,9,11
45.495,10,3,20,59,6,5,6,6
45.5,24,28,21,33,6,8,1,19
45.505,5,10,43,64,8,2,2,4
45.51,11,23,47,16,17,9,2,6
45.515,17,29,70,23,7,6,3,14
45.52,4,24,63,2,1,2,1,1
45.525,16,9,78,26,9,20,15,12
45.53,20,20,27,48,6,16,14,14
45.535,20,10,27,72,10,7,5,21
45.54,8,4,8,127,30,16,12,9
45.545,7,21,13,128,27,12,5,7
45.55,14,12,31,107,24,9,4,11
45.555,8,3,96,95,30,15,9,11
45.56,14,19,73,39,27,16,11,15
45.565,4,0,16,53,1,4,3,3
45.57,19,15,5,23,12,22,16,14
45.575,18,26,48,22,21,14,8,9
45.58,14,26,53,34,19,11,7,10
45.585,7,3,128,62,19,22,12,8
45.59,8,37,127,113,22,7,0,5
45.595,30,59,99,50,21,9,13,16
45.6,9,32,119,51,21,5,0,1
45.605,16,41,74,36,27,12,10,11
45.61,4,17,62,94,36,4,2,3
45.615,15,26,84,48,31,15,14,12
45.62,36,73,20,8,43,23,20,24
45.625,4,12,16,89,30,23,11,5
45.63,10,22,5,44,34,21,14,8
45.635,43,69,5,10,77,49,33,32
45.64,20,27,60,55,28,16,10,16
45.645,4,30,117,120,22,3,1,2
45.65,11,4,92,2,26,3,4,8
45.655,5,4,48,41,6,2,1,1
45.66,2,17,13,13,0,5,0,4
45.665,6,6,94,68,1,4,4,4
45.67,9,19,43,14,6,16,8,4
45.675,5,10,4,10,16,2,0,3
45.68,2,4,14,1,1,4,1,5
45.685,10,14,43,11,19,7,6,9
45.69,26,50,106,45,16,23,16,19
45.695,23,39,57,12,9,8,9,14
45.7,29,67,44,14,22,17,15,19
45.705,18,48,13,37,42,22,16,14
45.71,1,22,64,26,10,7,10,1
45.715,7,24,41,38,5,4,5,6
45.72,8,19,8,8,14,4,5,5
45.725,4,16,51,15,26,1,1,2
45.73,3,9,121,100,20,4,2,0
45.735,10,6,107,30,18,15,10,9
45.74,15,25,2,0,10,13,12,9
45.745,3,3,78,67,1,6,1,0
45.75,9,21,45,40,1,0,1,3
45.755,1,12,53,42,9,4,3,2
45.76,4,8,28,36,7,16,12,6
45.765,9,24,51,71,45,5,0,4
45.77,12,38,25,8,2,9,8,8
45.775,18,50,4,9,30,19,9,13
45.78,11,10,24,30,21,12,6,8
45.785,1,10,33,11,6,6,4,1
45.79,7,18,8,12,1,1,2,3
45.795,29,49,46,73,9,21,17,19
45.8,12,19,11,45,18,18,12,11
45.805,2,12,77,32,11,3,2,3
45.81,3,15,84,17,8,3,0,1
45.815,1,12,54,9,5,5,2,1
45.82,1,5,26,83,28,8,3,2
45.825,15,34,15,36,10,15,14,11
45.83,2,8,72,12,4,3,2,4
45.835,7,3,32,53,1,6,8,4
45.84,5,28,73,84,6,7,3,3
45.845,13,17,3,17,8,13,11,11
45.85,6,30,92,64,5,2,5,1
45.855,3,27,25,18,9,2,2,2
45.86,6,12,74,60,13,3,2,5
45.865,5,20,14,17,0,5,1,6
45.87,11,11,122,97,5,4,6,9
45.875,13,27,52,26,17,8,8,7
45.88,12,24,47,7,8,9,9,9
45.885,11,32,20,13,4,2,0,4
45.89,3,7,23,1,6,2,2,1
45.895,12,27,33,37,3,14,10,5
45.9,22,53,58,18,42,22,15,14
45.905,5,10,43,15,22,3,2,2
45.91,9,34,28,34,3,5,5,5
45.915,4,29,9,96,8,2,1,1
45.92,2,5,10,1,1,1,2,3
45.925,4,5,2,10,12,1,0,3
45.93,15,33,84,103,29,15,10,10
45.935,2,16,77,85,10,2,5,1
45.94,7,3,3,51,20,17,12,5
45.945,23,64,77,81,53,21,15,15
45.95,12,37,90,71,37,10,7,6
45.955,2,12,4,16,8,1,3,1
45.96,1,12,34,26,6,8,4,4
45.965,6,13,26,15,5,0,2,8
45.97,6,6,69,50,11,6,3,2
45.975,16,28,35,20,23,17,13,12
45.98,17,37,22,28,26,12,6,8
45.985,5,3,7,15,10,9,7,6
45.99,1,8,31,82,22,12,8,7
45.995,6,4,17,3,4,3,0,1
46,7,9,15,5,20,14,8,8
46.005,8,8,48,23,4,9,9,8
46.01,9,22,40,7,8,1,2,3
46.015,1,12,5,37,3,1,1,1
46.02,10,26,11,13,18,16,10,10
46.025,3,7,32,42,5,2,1,1
46.03,1,2,13,17,4,1,1,2
46.035,1,0,29,32,1,4,2,0
46.04,1,1,6,11,4,2,1,0
46.045,2,16,20,2,2,4,0,1
46.05,2,6,22,39,5,3,0,1
46.055,10,1,3,5,1,1,1,10
46.06,3,15,12,33,8,2,1,1
46.065,3,7,3,14,7,0,1,0
46.07,0,13,15,14,2,6,3,1
46.075,2,9,3,26,12,7,6,1
46.08,6,15,2,11,8,9,5,3
46.085,2,0,16,29,3,2,1,1
46.09,5,11,27,41,10,5,4,4
46.095,4,3,22,16,0,12,5,2
46.1,12,7,32,33,7,5,3,9
46.105,4,3,4,41,8,5,4,1
46.11,9,1,1,18,3,10,6,13
46.115,1,4,5,16,1,6,2,1
46.12,4,7,6,18,1,6,5,2
46.125,1,2,8,11,7,2,4,2
46.13,3,3,13,22,5,4,9,5
46.135,3,2,4,12,8,5,3,1
46.14,1,0,1,0,6,0,0,0
46.145,3,7,19,7,2,1,3,2
46.15,3,1,12,17,1,3,2,3
46.155,0,4,3,3,2,0,1,1
46.16,5,1,2,9,2,9,1,5
46.165,14,3,3,11,1,5,1,5
46.17,7,4,4,3,6,2,6,14
46.175,6,2,6,8,9,1,1,3
46.18,4,1,4,5,1,9,2,6
46.185,5,1,6,1,1,0,2,8
46.19,15,2,7,11,4,3,2,5
46.195,20,1,4,6,3,2,3,6
46.2,7,4,15,1,7,4,4,2
46.205,11,3,14,4,6,5,1,5
46.21,6,0,4,2,2,6,5,7
46.215,10,1,6,0,0,8,6,8
46.22,13,7,4,16,9,8,17,7
46.225,3,0,4,32,11,10,14,2
46.23,2,7,6,6,1,1,5,5
46.235,10,4,6,6,1,3,2,10
46.24,9,4,2,2,3,0,2,10
46.245,1,1,4,3,2,0,8,4
46.25,7,3,3,5,6,2,1,5
46.255,6,0,1,2,0,1,2,2
46.26,9,5,6,8,2,1,0,3
46.265,3,1,0,4,1,5,4,4
46.27,4,2,1,3,7,4,1,6
46.275,16,5,3,4,3,1,3,18
46.28,6,0,15,6,2,1,5,3
46.285,2,3,1,0,4,0,3,4
46.29,7,4,2,2,2,1,5,4
46.295,5,7,4,1,3,1,1,2
46.3,1,8,13,1,5,2,0,4
46.305,0,6,18,13,7,7,4,5
46.31,4,10,13,1,5,1,1,2
46.315,2,0,6,4,1,2,4,3
46.32,6,4,7,0,4,1,8,2
46.325,0,5,6,12,8,4,3,0
46.33,3,3,14,0,4,1,2,1
46.335,18,4,15,11,8,7,7,9
46.34,1,3,1,3,1,0,2,0
46.345,4,1,9,2,2,0,0,3
46.35,8,2,2,1,1,0,2,7
46.355,6,2,10,2,1,0,1,2
46.36,0,2,9,6,5,3,1,1
46.365,3,1,6,0,0,1,3,1
46.37,0,2,4,1,1,0,1,2
46.375,3,0,0,1,6,2,2,1
46.38,1,2,3,3,8,5,1,4
46.385,2,2,3,1,3,1,3,5
46.39,1,1,5,9,5,4,3,1
46.395,1,1,10,0,2,1,0,1
46.4,1,5,14,4,1,0,1,2
46.405,0,5,12,6,1,1,1,1
46.41,4,4,5,1,3,0,1,1
46.415,0,0,2,3,4,6,3,2
46.42,0,1,6,1,1,4,3,1
46.425,1,0,6,7,2,2,3,3
46.43,3,4,0,11,2,1,2,0
46.435,1,1,8,5,1,2,1,1
46.44,0,1,2,0,1,3,4,1
46.445,0,1,2,4,1,1,1,0
46.45,2,2,9,8,2,2,0,1
46.455,1,4,7,2,4,3,1,3
46.46,2,1,1,3,1,2,4,2
46.465,2,2,5,2,0,1,2,2
46.47,1,0,6,0,2,2,1,2
46.475,2,0,1,5,4,1,2,3
46.48,1,2,2,4,9,5,0,1
46.485,0,2,4,4,3,3,1,2
46.49,4,6,6,0,1,1,0,0
46.495,0,0,2,2,1,1,1,0
46.5,3,5,3,3,1,2,3,2
46.505,1,0,2,4,3,2,0,1
46.51,2,6,3,4,1,1,1,1
46.515,2,2,2,0,7,1,1,1
46.52,1,2,5,0,5,0,1,0
46.525,3,2,0,2,2,0,0,2
46.53,1,1,1,5,5,4,5,4
46.535,1,6,3,0,4,4,2,3
46.54,2,2,4,2,1,0,1,1
46.545,2,1,2,0,0,0,1,3
46.55,0,1,1,4,0,1,2,2
46.555,1,1,3,3,1,4,2,2
46.56,1,1,4,4,4,4,4,2
46.565,2,1,4,1,4,3,3,2
46.57,0,0,12,1,3,1,0,0
46.575,2,1,2,2,6,5,4,3
46.58,1,1,3,1,6,4,0,0
46.585,2,5,7,2,1,0,1,0
46.59,1,2,12,6,2,2,0,1
46.595,1,1,7,3,2,4,1,1
46.6,2,5,2,8,7,1,2,2
46.605,0,0,3,1,3,0,0,0
46.61,1,2,3,1,4,4,3,3
46.615,2,2,2,2,0,1,3,0
46.62,1,2,12,5,2,6,1,1
46.625,4,6,28,11,2,2,1,1
46.63,1,3,3,4,1,6,0,1
46.635,2,0,1,0,1,3,2,1
46.64,1,1,0,0,3,5,1,1
46.645,1,0,15,15,4,11,1,1
46.65,3,5,23,21,6,2,3,2
46.655,2,3,7,11,0,3,3,5
46.66,0,1,1,15,7,3,3,2
46.665,2,5,13,9,1,1,1,1
46.67,2,6,32,31,9,8,2,4
46.675,3,5,9,4,0,1,2,1
46.68,4,0,14,10,8,2,0,0
46.685,3,4,41,32,13,0,0,1
46.69,17,28,30,57,25,20,11,12
46.695,7,15,23,30,2,5,1,3
46.7,9,13,23,3,4,3,4,4
46.705,0,4,20,16,5,3,3,0
46.71,8,15,24,25,15,10,6,7
46.715,6,8,19,17,6,6,2,6
46.72,4,6,14,6,11,7,6,3
46.725,1,1,6,2,4,0,1,2
46.73,2,0,1,10,8,0,3,0
46.735,2,3,12,15,10,4,3,4
46.74,7,10,26,47,16,8,6,7
46.745,8,16,8,6,8,8,8,7
46.75,2,3,3,12,3,2,1,0
46.755,6,14,9,1,8,6,10,4
46.76,2,3,2,24,1,4,17,4
46.765,2,8,17,0,1,0,2,0
46.77,1,0,5,32,9,5,4,2
46.775,16,23,25,32,24,16,11,13
46.78,10,18,18,2,16,7,2,6
46.785,9,4,8,16,1,4,4,8
46.79,9,12,28,34,7,8,6,3
46.795,1,4,42,30,3,0,4,1
46.8,7,3,9,1,11,7,5,6
46.805,5,1,4,2,2,2,4,6
46.81,4,2,24,9,3,5,9,3
46.815,1,0,1,2,3,2,0,3
46.82,1,0,2,14,5,5,9,0
46.825,8,19,72,72,15,11,6,5
46.83,9,16,10,22,9,4,4,5
46.835,16,20,45,47,20,11,8,13
46.84,2,3,6,20,5,2,1,1
46.845,2,4,2,13,8,5,7,3
46.85,2,1,1,1,1,1,0,1
46.855,7,17,7,0,13,8,13,6
46.86,4,6,6,45,0,2,7,5
46.865,7,10,18,53,9,5,0,6
46.87,9,11,56,25,9,3,2,9
46.875,6,10,63,17,5,2,1,4
46.88,6,9,3,44,9,13,14,7
46.885,5,9,15,51,16,10,6,5
46.89,4,7,60,68,7,1,0,0
46.895,12,29,78,33,19,12,10,6
46.9,13,30,63,25,25,10,7,9
46.905,8,15,29,46,10,11,8,8
46.91,11,14,36,57,21,12,7,7
46.915,18,34,76,67,27,14,10,12
46.92,1,2,31,73,13,2,1,1
46.925,1,3,8,36,4,3,2,1
46.93,3,18,82,117,19,3,2,3
46.935,13,18,116,128,27,6,1,17
46.94,8,9,101,95,5,7,7,12
46.945,14,7,17,42,7,0,2,12
46.95,7,17,65,91,24,10,5,7
46.955,8,17,65,49,17,8,5,6
46.96,11,25,44,53,12,12,9,7
46.965,10,27,6,0,20,19,10,5
46.97,9,17,60,113,25,13,6,9
46.975,9,25,15,71,26,18,11,5
46.98,1,5,10,26,3,2,4,0
46.985,1,5,28,64,12,1,3,3
46.99,1,12,33,27,10,4,2,1
46.995,2,1,8,69,8,2,2,0
47,3,2,64,64,14,4,2,1
47.005,8,28,125,30,13,2,1,1
47.01,12,27,50,10,16,12,7,5
47.015,19,57,99,85,31,9,8,11
47.02,41,81,80,94,74,37,25,27
47.025,13,18,3,63,31,14,8,10
47.03,29,61,93,110,52,35,17,22
47.035,23,43,26,29,37,33,14,16
47.04,10,14,83,63,30,15,8,6
47.045,11,12,30,22,17,24,18,10
47.05,36,62,19,23,50,46,33,27
47.055,26,45,45,75,39,25,16,22
47.06,15,37,58,32,40,16,12,13
47.065,0,26,65,31,14,11,5,2
47.07,6,14,29,94,10,0,3,2
47.075,15,25,102,70,27,14,7,11
47.08,13,25,60,60,33,14,9,6
47.085,8,4,28,23,7,14,8,5
47.09,17,17,51,32,33,24,17,13
47.095,35,71,31,22,50,34,25,26
47.1,10,34,44,13,31,8,6,4
47.105,29,52,51,54,26,21,19,22
47.11,6,19,56,43,2,5,5,1
47.115,4,21,110,78,15,8,7,4
47.12,7,4,80,32,10,1,2,1
47.125,17,10,48,17,18,14,11,11
47.13,12,44,86,82,36,30,20,11
47.135,1,20,92,112,11,15,9,7
47.14,32,34,48,53,29,39,26,18
47.145,28,62,68,74,1,11,12,20
47.15,6,25,65,63,13,3,3,8
47.155,14,20,25,8,17,13,13,13
47.16,13,35,75,63,2,5,0,12
47.165,8,34,103,1,14,13,9,10
47.17,10,14,79,91,21,11,4,7
47.175,27,67,69,46,32,27,23,19
47.18,28,82,32,122,43,24,19,20
47.185,52,102,61,95,58,37,29,36
47.19,5,1,22,1,1,4,4,6
47.195,26,54,54,17,35,20,14,19
47.2,3,3,54,17,18,4,1,2
47.205,4,20,33,42,20,1,1,1
47.21,21,26,31,81,25,12,9,13
47.215,6,2,35,31,16,10,3,1
47.22,8,18,9,54,29,12,4,3
47.225,7,35,72,4,3,2,4,5
47.23,7,4,19,90,19,11,5,5
47.235,0,10,61,11,6,5,3,1
47.24,0,5,19,53,30,13,8,1
47.245,4,14,31,64,10,5,4,6
47.25,18,50,127,87,35,14,12,12
47.255,3,25,48,83,14,13,3,9
47.26,19,14,70,37,12,14,12,17
47.265,4,8,6,20,0,1,3,1
47.27,28,47,106,44,17,14,14,18
47.275,6,13,88,60,21,16,7,1
47.28,1,7,100,42,9,7,3,2
47.285,12,35,32,11,0,1,4,3
47.29,0,49,35,80,9,7,4,4
47.295,3,9,10,50,8,2,1,8
47.3,3,6,57,44,15,8,1,3
47.305,20,60,127,69,45,23,10,13
47.31,14,29,12,11,7,30,20,11
47.315,1,8,56,8,4,3,1,2
47.32,5,1,2,19,22,17,7,7
47.325,6,5,41,25,8,4,1,5
47.33,16,18,32,72,58,21,15,10
47.335,28,58,83,41,29,21,14,15
47.34,10,29,61,45,26,11,9,6
47.345,13,26,69,36,28,12,8,8
47.35,14,17,53,34,6,1,4,11
47.355,16,32,74,44,24,17,9,12
47.36,2,27,4,38,6,2,1,2
47.365,1,7,58,49,3,1,2,3
47.37,11,19,19,7,11,9,4,10
47.375,5,0,98,60,6,5,2,5
47.38,8,28,95,45,16,1,5,7
47.385,5,16,10,54,15,2,4,1
47.39,10,49,73,47,19,15,11,4
47.395,7,6,59,12,19,12,10,7
47.4,5,6,33,33,4,4,0,3
47.405,2,16,73,128,23,10,5,2
47.41,5,12,17,32,17,7,2,2
47.415,7,26,54,47,16,7,6,4
47.42,7,17,2,17,7,3,5,3
47.425,9,14,33,6,5,6,7,7
47.43,0,0,37,31,2,1,3,1
47.435,0,2,22,24,1,1,2,0
47.44,2,13,22,4,7,2,1,1
47.445,2,5,14,23,4,2,6,4
47.45,6,13,18,15,6,5,0,4
47.455,1,5,3,13,7,0,3,1
47.46,5,27,38,34,6,4,4,2
47.465,11,1,21,29,21,13,10,8
47.47,4,3,9,4,2,2,1,3
47.475,0,3,8,1,8,4,5,1
47.48,4,10,69,21,10,3,5,2
47.485,1,2,37,17,2,2,2,0
47.49,3,2,30,35,6,0,1,1
47.495,5,4,14,1,2,2,2,7
47.5,18,8,7,3,6,2,2,21
47.505,0,6,13,8,1,4,3,1
47.51,3,6,8,2,2,0,1,0
47.515,2,6,13,2,4,0,2,0
47.52,1,10,16,5,2,5,5,1
47.525,2,3,4,1,0,3,1,3
47.53,4,7,15,7,2,6,6,3
47.535,3,0,8,11,2,1,1,4
47.54,0,6,6,8,4,1,3,2
47.545,6,4,7,9,10,4,5,6
47.55,2,4,9,1,5,5,2,3
47.555,10,4,10,10,7,9,5,14
47.56,1,0,0,7,4,7,2,3
47.565,0,5,11,6,2,1,1,1
47.57,2,5,14,1,4,1,2,0
47.575,11,9,12,7,5,4,0,4
47.58,15,3,10,1,2,6,1,15
47.585,4,7,22,7,0,8,1,5
47.59,1,2,7,5,1,1,0,0
47.595,4,2,3,4,2,1,1,3
47.6,11,7,5,3,5,1,4,3
47.605,3,2,7,2,7,9,4,1
47.61,0,0,4,5,6,3,1,2
47.615,4,0,5,8,3,4,2,0
47.62,0,1,1,4,4,3,0,1
47.625,2,4,1,1,1,2,1,2
47.63,4,1,1,4,11,5,6,3
47.635,4,2,5,7,1,2,0,3
47.64,1,1,1,5,3,3,4,4
47.645,2,3,4,0,0,1,1,5
47.65,5,1,0,4,3,2,3,5
47.655,1,2,6,4,5,3,4,3
47.66,1,7,2,2,6,3,3,4
47.665,2,10,5,3,3,1,1,1
47.67,9,5,8,6,1,2,1,8
47.675,27,10,10,9,1,1,3,16
47.68,1,1,3,2,4,4,3,5
47.685,1,5,2,1,5,6,4,1
47.69,3,2,2,1,5,3,4,1
47.695,11,6,1,0,1,2,1,7
47.7,5,1,1,0,3,5,3,4
47.705,14,8,7,1,1,1,2,3
47.71,7,2,0,1,1,1,2,1
47.715,5,2,4,4,6,4,5,1
47.72,8,1,5,3,6,5,6,11
47.725,4,2,2,0,1,0,1,3
47.73,5,5,4,4,0,0,1,1
47.735,14,1,1,2,1,0,2,15
47.74,5,0,2,1,5,5,7,9
47.745,2,2,2,0,1,1,0,0
47.75,2,8,5,0,1,1,0,2
47.755,5,1,3,3,1,3,0,8
47.76,0,1,4,2,1,2,1,1
47.765,0,1,1,3,6,6,2,0
47.77,7,4,5,3,1,1,2,5
47.775,10,0,6,4,1,2,2,4
47.78,2,1,5,2,4,2,3,1
47.785,4,3,1,1,2,0,3,3
47.79,0,4,1,1,5,2,3,2
47.795,2,2,2,0,2,2,2,1
47.8,0,0,0,3,2,2,1,3
47.805,8,1,2,0,1,1,1,4
47.81,11,2,4,3,2,2,2,16
47.815,1,1,2,3,3,2,3,2
47.82,9,3,0,3,4,2,1,10
47.825,1,1,0,0,2,3,2,7
47.83,3,0,2,1,1,1,3,0
47.835,11,2,1,3,3,9,5,11
47.84,1,0,1,4,3,8,1,1
47.845,1,2,1,1,5,3,1,4
47.85,0,1,4,5,1,5,5,4
47.855,3,1,0,4,2,3,0,1
47.86,2,3,0,0,2,5,1,0
47.865,2,6,1,3,2,2,0,1
47.87,1,0,1,2,3,1,0,0
47.875,5,4,4,2,1,2,3,1
47.88,0,3,3,0,3,3,0,5
47.885,1,1,4,12,2,0,5,2
47.89,1,2,12,12,4,5,3,2
47.895,2,3,10,2,1,3,3,1
47.9,3,2,17,4,2,1,1,1
47.905,2,0,2,1,5,5,2,0
47.91,2,7,3,2,5,7,4,1
47.915,1,2,2,3,0,2,1,0
47.92,2,2,4,3,1,0,0,2
47.925,5,0,5,5,2,0,2,3
47.93,3,2,5,1,4,6,3,0
47.935,1,4,4,0,2,1,0,1
47.94,4,8,0,1,0,2,2,4
47.945,0,0,6,5,2,2,1,3
47.95,4,8,6,0,1,1,1,1
47.955,1,2,3,2,0,2,2,1
47.96,1,2,2,0,0,2,2,2
47.965,3,2,1,3,3,1,2,0
47.97,11,0,7,0,2,2,1,7
47.975,1,1,2,1,1,1,2,0
47.98,2,2,1,2,3,0,2,3
47.985,6,0,3,4,1,2,3,1
47.99,4,1,1,0,4,4,3,2
47.995,1,2,5,5,7,2,2,1
48,4,1,1,0,2,2,1,2
48.005,3,1,1,1,2,3,1,0
48.01,1,1,0,4,3,3,4,0
48.015,3,2,4,4,4,4,2,1
48.02,1,0,1,5,9,5,6,2
48.025,0,2,3,0,5,3,0,1
48.03,3,1,5,1,7,1,1,0
48.035,4,1,0,0,1,0,4,3
48.04,1,0,0,2,2,3,1,1
48.045,2,5,4,4,2,2,2,2
48.05,1,1,3,1,1,0,1,2
48.055,1,1,4,1,2,1,0,0
48.06,1,1,1,3,5,1,2,2
48.065,2,1,0,0,2,0,0,1
48.07,1,2,4,1,2,7,2,1
48.075,0,1,1,0,3,1,2,2
48.08,0,2,2,1,2,1,0,1
48.085,2,1,4,6,1,10,4,1
48.09,2,3,2,3,6,9,1,1
48.095,1,3,5,4,2,2,2,1
48.1,0,1,20,22,5,4,1,1
48.105,2,4,10,12,5,2,2,0
48.11,1,2,15,19,1,0,2,0
48.115,3,4,5,2,5,2,2,2
48.12,1,4,13,6,0,1,3,2
48.125,2,3,23,23,8,9,3,4
48.13,4,8,29,23,4,8,3,2
48.135,4,3,28,13,3,4,0,2
48.14,1,3,23,24,1,2,3,5
48.145,8,18,68,52,14,1,3,3
48.15,1,2,6,24,5,4,2,0
48.155,4,0,7,3,3,4,3,6
48.16,4,8,72,44,5,13,5,8
48.165,1,14,70,59,8,4,3,1
48.17,3,4,45,6,4,4,1,2
48.175,0,4,15,20,5,1,0,4
48.18,8,13,47,18,1,5,3,6
48.185,6,9,59,6,3,9,5,3
48.19,4,9,36,35,14,10,5,1
48.195,7,12,38,13,3,2,0,5
48.2,16,31,92,82,23,15,6,9
48.205,12,31,118,36,23,8,1,9
48.21,5,10,4,48,6,1,6,5
48.215,1,11,10,2,5,2,2,2
48.22,25,43,104,39,19,7,9,20
48.225,7,19,62,25,11,6,5,7
48.23,10,4,35,2,4,11,9,9
48.235,14,16,33,11,7,7,4,10
48.24,2,8,14,31,6,1,1,1
48.245,2,12,86,72,13,1,2,2
48.25,0,5,46,36,11,9,2,2
48.255,17,25,14,15,27,19,13,11
48.26,17,33,36,69,8,17,15,11
48.265,10,24,31,57,6,6,8,5
48.27,13,29,96,89,25,18,11,11
48.275,2,13,18,34,6,5,5,1
48.28,5,2,94,13,4,3,2,4
48.285,17,20,3,17,8,6,3,10
48.29,1,16,44,50,10,5,2,7
48.295,25,62,44,48,55,30,19,18
48.3,9,29,68,97,45,14,9,4
48.305,17,9,23,1,2,12,13,12
48.31,14,24,96,5,15,19,18,12
48.315,34,82,127,87,51,41,36,22
48.32,33,47,24,3,45,44,28,20
48.325,5,13,50,21,13,11,6,1
48.33,11,42,122,93,18,10,7,4
48.335,15,37,59,70,38,14,4,9
48.34,24,23,51,72,14,25,16,16
48.345,1,31,82,10,18,3,2,2
48.35,9,7,39,57,11,12,9,7
48.355,37,73,69,98,48,43,30,26
48.36,25,60,99,88,52,22,15,17
48.365,18,18,53,15,32,12,11,16
48.37,2,10,91,75,8,14,12,4
48.375,22,35,24,3,20,24,16,16
48.38,20,51,89,54,35,23,14,11
48.385,24,27,48,69,22,4,3,19
48.39,16,17,7,34,39,29,13,14
48.395,10,42,126,127,53,34,20,6
48.4,3,11,43,44,26,16,16,1
48.405,3,7,9,6,10,3,0,3
48.41,18,39,88,81,32,13,9,17
48.415,32,40,22,60,41,23,17,28
48.42,1,0,6,22,2,1,5,1
48.425,1,3,51,30,4,3,0,0
48.43,11,12,29,26,12,6,3,9
48.435,4,7,56,119,14,0,1,1
48.44,7,22,113,6,16,15,11,13
48.445,1,1,2,18,12,11,12,8
48.45,5,4,62,44,3,5,4,4
48.455,2,22,107,27,3,1,3,2
48.46,5,5,22,12,4,1,1,9
48.465,18,48,66,18,15,10,12,13
48.47,21,33,74,44,21,12,12,20
48.475,0,4,49,16,3,1,2,4
48.48,7,13,46,64,15,7,4,1
48.485,7,13,2,7,7,8,4,9
48.49,20,44,54,28,25,19,12,20
48.495,13,14,19,21,16,2,13,9
48.5,20,26,4,48,14,11,9,15
48.505,3,1,20,16,13,9,5,6
48.51,8,45,35,57,13,8,8,6
48.515,27,73,15,12,34,34,22,14
48.52,22,38,70,85,26,33,24,16
48.525,3,32,19,31,12,0,2,2
48.53,5,17,51,35,4,0,2,1
48.535,3,22,29,8,7,4,5,0
48.54,8,11,19,34,0,8,6,8
48.545,5,7,68,34,9,7,0,1
48.55,37,80,96,54,56,28,20,30
48.555,7,1,50,41,5,15,11,2
48.56,9,26,106,60,19,8,4,4
48.565,4,31,10,76,5,1,4,2
48.57,6,8,62,7,11,10,7,6
48.575,15,46,78,36,17,11,7,7
48.58,16,18,16,42,33,26,8,16
48.585,11,8,51,44,1,14,7,6
48.59,16,41,62,44,8,4,5,9
48.595,2,6,53,51,18,12,8,0
48.6,7,8,75,1,3,5,2,4
48.605,11,5,16,60,14,10,5,11
48.61,10,21,5,11,12,8,5,9
48.615,2,3,11,43,14,4,3,3
48.62,32,73,47,17,27,26,22,18
48.625,16,10,70,56,15,23,17,11
48.63,5,1,2,37,7,12,6,4
48.635,13,26,23,20,8,12,6,7
48.64,14,23,65,37,25,15,12,16
48.645,1,13,23,47,2,4,2,1
48.65,1,8,20,48,20,11,5,3
48.655,3,17,69,105,12,8,3,1
48.66,6,10,36,1,8,9,6,7
48.665,8,30,65,40,8,5,3,4
48.67,8,15,76,93,13,2,4,1
48.675,6,32,17,63,3,7,5,4
48.68,14,2,30,84,17,5,3,18
48.685,8,17,23,47,15,7,3,6
48.69,17,31,82,45,19,14,10,12
48.695,7,29,23,25,19,10,5,0
48.7,5,5,10,4,5,9,5,4
48.705,6,6,29,20,2,5,5,2
48.71,5,4,17,0,13,8,5,8
48.715,3,4,4,4,5,0,1,3
48.72,17,29,95,16,10,11,9,11
48.725,18,33,110,70,28,16,13,14
48.73,3,6,42,63,5,5,4,3
48.735,8,9,29,35,16,10,8,11
48.74,20,28,101,37,28,18,15,17
48.745,9,10,25,30,13,1,1,6
48.75,5,13,8,14,16,9,10,8
48.755,3,9,13,52,11,9,4,4
48.76,9,38,38,29,2,2,1,2
48.765,1,5,33,6,7,4,4,1
48.77,6,11,20,3,6,1,2,0
48.775,9,13,8,11,8,1,2,6
48.78,21,36,77,28,18,19,12,11
48.785,11,12,6,21,14,9,14,6
48.79,2,18,4,11,7,7,6,1
48.795,0,14,34,24,8,3,4,2
48.8,6,15,1,3,8,8,6,4
48.805,0,1,16,5,2,4,6,2
48.81,7,13,16,9,3,7,10,9
48.815,7,16,29,28,3,5,4,3
48.82,13,13,23,6,9,6,7,15
48.825,11,1,14,16,4,6,3,2
48.83,1,9,20,8,3,8,3,0
48.835,0,5,2,26,4,7,1,1
48.84,6,28,115,107,22,11,7,3
48.845,3,4,9,19,4,0,1,4
48.85,10,5,4,14,3,3,2,8
48.855,1,4,0,10,2,2,1,1
48.86,0,6,21,41,5,2,1,3
48.865,2,5,28,30,5,3,2,0
48.87,17,18,16,12,15,11,10,15
48.875,3,5,6,10,0,1,2,5
48.88,4,0,9,11,2,1,3,5
48.885,1,1,2,10,1,3,2,1
48.89,2,6,15,12,4,2,1,4
48.895,5,8,1,7,1,1,0,0
48.9,1,2,3,2,2,4,4,0
48.905,1,2,12,11,2,2,1,3
48.91,1,7,1,5,3,1,0,0
48.915,1,1,9,18,5,3,2,4
48.92,1,2,3,14,2,3,3,1
48.925,1,5,1,3,1,1,1,1
48.93,2,3,0,4,3,0,2,1
48.935,6,2,11,13,2,2,1,2
48.94,1,4,4,2,7,1,1,1
48.945,4,5,22,11,5,3,1,1
48.95,3,2,13,1,0,7,4,2
48.955,3,1,1,2,6,3,3,2
48.96,2,1,6,17,1,0,4,4
48.965,3,0,26,30,4,0,1,7
48.97,2,11,3,1,1,9,5,2
48.975,3,3,3,6,5,17,2,2
48.98,2,5,10,1,1,2,0,2
48.985,4,2,2,6,3,1,3,2
48.99,2,0,2,1,2,2,1,1
48.995,5,1,1,7,2,5,3,3
49,6,3,12,9,2,4,1,5
49.005,4,2,12,1,0,1,1,7
49.01,3,4,2,2,10,5,4,0
49.015,2,7,0,5,1,6,0,2
49.02,13,2,0,2,3,1,1,12
49.025,4,3,2,2,5,2,2,3
49.03,7,4,13,2,2,3,2,3
49.035,8,3,2,4,0,1,0,1
49.04,13,7,6,6,5,9,8,5
49.045,1,1,0,1,7,3,2,1
49.05,0,2,3,3,0,2,0,2
49.055,1,1,5,4,5,1,1,1
49.06,9,3,8,5,1,0,0,8
49.065,4,7,1,3,8,5,7,3
49.07,4,9,7,3,4,1,2,6
49.075,5,2,6,6,1,7,1,2
49.08,0,1,3,2,3,0,0,2
49.085,1,1,6,6,2,4,4,3
49.09,1,5,3,3,4,5,2,5
49.095,2,5,4,1,0,3,2,1
49.1,5,0,3,4,2,0,3,1
49.105,2,7,5,1,3,1,1,2
49.11,5,1,0,1,3,0,1,0
49.115,2,0,4,0,0,2,1,5
49.12,9,1,0,1,0,0,2,11
49.125,1,3,5,2,4,5,3,2
49.13,0,3,9,2,0,0,2,2
49.135,4,1,4,5,6,0,1,3
49.14,4,3,0,5,1,2,1,1
49.145,4,1,1,1,0,4,1,3
49.15,3,13,6,3,5,3,1,1
49.155,0,3,6,1,10,2,1,1
49.16,3,3,16,3,2,3,1,0
49.165,6,3,3,1,0,3,3,7
49.17,1,4,9,6,6,3,3,2
49.175,2,17,21,5,0,3,2,2
49.18,0,4,23,17,2,5,1,1
49.185,3,8,34,26,6,0,0,2
49.19,2,1,10,10,4,3,2,3
49.195,1,5,4,0,1,2,3,3
49.2,0,6,1,3,6,5,3,1
49.205,0,4,14,10,4,5,4,0
49.21,1,1,6,2,3,1,1,0
49.215,0,3,14,6,0,1,2,1
49.22,1,1,8,4,4,5,3,1
49.225,4,1,10,6,1,2,4,2
49.23,10,5,2,8,0,2,2,12
49.235,4,1,23,17,2,3,2,13
49.24,14,3,7,0,2,1,3,12
49.245,0,3,3,5,3,2,3,1
49.25,1,2,13,7,1,2,0,1
49.255,5,2,8,1,2,4,0,4
49.26,4,2,5,2,1,0,1,1
49.265,2,5,7,4,3,3,0,1
49.27,5,2,6,6,3,1,1,5
49.275,0,1,14,5,2,2,0,3
49.28,2,2,5,3,0,0,0,0
49.285,0,2,14,7,1,4,2,1
49.29,2,2,15,1,1,2,2,0
49.295,7,8,9,2,3,3,3,1
49.3,3,3,5,7,4,4,1,4
49.305,0,3,5,1,1,0,2,1
49.31,2,2,1,2,2,1,0,3
49.315,4,2,1,1,5,3,2,2
49.32,0,1,1,1,3,3,1,1
49.325,1,3,9,1,4,1,2,1
49.33,2,3,2,1,0,1,3,4
49.335,3,1,4,0,1,0,1,1
49.34,3,2,6,2,3,3,2,2
49.345,1,2,5,8,4,3,3,2
49.35,1,2,0,6,0,0,0,2
49.355,0,1,2,1,1,2,1,1
49.36,3,2,2,0,2,0,1,0
49.365,4,5,14,6,2,6,4,3
49.37,0,0,4,1,2,0,3,2
49.375,1,3,8,5,0,0,1,3
49.38,2,0,11,7,0,3,1,0
49.385,1,2,4,1,1,1,3,0
49.39,2,3,3,2,7,2,0,0
49.395,1,7,11,1,1,3,1,2
49.4,1,1,12,10,3,2,3,2
49.405,1,4,4,4,5,2,2,2
49.41,3,2,5,4,1,4,3,3
49.415,2,0,2,2,2,2,2,1
49.42,2,1,1,6,1,2,2,1
49.425,3,1,2,1,0,1,1,1
49.43,1,2,5,1,3,1,1,0
49.435,7,5,4,6,7,3,4,9
49.44,6,3,3,1,4,2,5,8
49.445,1,1,5,2,1,1,0,0
49.45,1,0,2,3,4,1,0,0
49.455,1,2,7,4,8,4,2,2
49.46,4,0,7,1,0,1,2,3
49.465,0,1,6,7,6,1,2,0
49.47,4,3,0,4,1,5,0,1
49.475,2,3,2,4,2,3,3,1
49.48,1,3,6,0,7,1,3,2
49.485,0,4,1,1,6,15,5,0
49.49,1,0,20,13,7,6,2,4
49.495,4,7,11,9,7,3,1,1
49.5,1,6,9,1,5,1,1,0
49.505,3,8,27,19,7,2,0,4
49.51,2,4,15,10,5,9,5,2
49.515,1,4,0,10,6,0,2,1
49.52,2,2,14,1,4,2,3,3
49.525,4,3,19,4,1,3,4,2
49.53,2,3,4,1,7,5,0,0
49.535,2,0,7,5,9,2,3,3
49.54,1,1,1,11,3,2,1,4
49.545,1,1,2,1,4,1,3,2
49.55,2,4,9,12,2,4,4,3
49.555,3,3,2,4,6,1,2,1
49.56,1,5,10,11,1,4,1,2
49.565,2,7,5,12,5,6,0,1
49.57,1,0,19,21,3,1,0,2
49.575,0,0,5,1,1,3,2,1
49.58,4,7,7,10,4,4,4,4
49.585,1,0,41,13,1,2,0,1
49.59,7,14,6,29,10,9,4,5
49.595,1,4,11,36,5,5,1,0
49.6,3,4,30,5,0,0,0,2
49.605,3,7,14,21,5,1,1,2
49.61,4,4,24,20,1,8,4,5
49.615,5,6,5,5,5,1,1,2
49.62,4,2,22,4,3,0,1,7
49.625,14,18,72,16,11,9,9,11
49.63,28,48,67,34,31,19,11,22
49.635,1,5,11,3,8,0,1,1
49.64,8,2,31,26,2,1,1,7
49.645,9,7,5,0,8,5,4,12
49.65,15,31,83,32,16,10,8,12
49.655,1,4,3,5,1,2,2,2
49.66,18,41,90,41,26,22,19,14
49.665,5,17,32,4,6,8,4,6
49.67,0,1,2,17,5,3,2,0
49.675,14,28,39,53,13,14,9,9
49.68,1,15,85,91,1,4,1,2
49.685,12,33,78,99,22,12,9,7
49.69,8,6,43,88,7,3,5,6
49.695,17,40,45,75,39,21,13,11
49.7,21,36,28,12,43,24,16,17
49.705,2,0,23,15,1,1,5,0
49.71,18,24,35,83,49,25,9,16
49.715,23,39,54,6,36,22,10,19
49.72,37,62,58,8,56,27,21,29
49.725,2,12,64,31,6,3,4,5
49.73,16,32,83,93,37,14,10,12
49.735,2,27,76,19,38,1,1,2
49.74,4,6,43,96,2,5,7,4
49.745,1,6,61,127,11,2,1,4
49.75,15,9,43,106,19,13,12,10
49.755,7,9,69,0,20,17,11,4
49.76,36,75,48,71,30,31,21,19
49.765,3,4,103,60,41,5,2,10
49.77,6,6,73,32,11,1,1,13
49.775,18,27,52,20,69,28,17,4
49.78,19,13,22,12,47,13,6,16
49.785,34,76,77,55,22,16,13,19
49.79,39,71,118,71,56,24,22,19
49.795,31,48,100,127,48,15,15,24
49.8,30,35,52,55,36,20,12,19
49.805,39,75,52,54,51,24,16,20
49.81,15,15,44,46,1,0,1,2
49.815,21,61,93,24,55,28,22,11
49.82,6,25,83,101,6,18,3,20
49.825,0,33,108,103,35,13,4,23
49.83,2,25,27,10,33,10,3,9
49.835,18,23,27,50,9,7,5,11
49.84,3,26,36,46,23,5,4,0
49.845,1,9,122,94,40,16,3,4
49.85,6,3,18,10,24,6,3,1
49.855,2,22,108,94,3,4,0,2
49.86,12,39,74,23,18,9,2,1
49.865,19,38,122,71,45,15,14,23
49.87,11,16,12,19,6,2,6,13
49.875,7,50,61,81,35,4,4,3
49.88,12,49,19,15,29,20,9,7
49.885,6,48,72,28,0,1,1,0
49.89,11,6,34,69,10,3,3,7
49.895,7,1,20,42,0,9,4,9
49.9,14,49,19,66,28,20,11,10
49.905,9,8,7,10,0,2,6,5
49.91,22,44,37,2,28,24,14,13
49.915,10,19,7,67,13,3,6,8
49.92,7,20,35,12,15,3,6,6
49.925,3,37,29,13,8,11,12,1
49.93,3,37,93,23,10,4,3,3
49.935,5,0,27,21,1,7,7,5
49.94,7,42,5,21,22,19,10,4
49.945,12,42,127,12,14,7,8,5
49.95,11,18,18,16,4,5,2,7
49.955,20,16,66,25,23,23,18,14
49.96,1,30,7,56,11,2,4,2
49.965,14,32,10,10,25,12,3,10
49.97,7,30,4,24,3,3,4,0
49.975,4,33,51,55,15,14,9,1
49.98,12,21,86,67,32,3,2,13
49.985,6,35,78,124,23,6,0,8
49.99,0,14,12,49,1,1,3,3
49.995,4,13,12,5,0,6,3,2
50,20,43,57,35,27,16,11,8
50.005,1,6,13,57,18,6,1,4
50.01,12,32,76,92,15,5,2,8
50.015,35,33,31,10,41,27,16,33
50.02,5,5,91,81,6,5,9,6
50.025,33,65,112,70,38,21,14,17
50.03,14,33,19,37,21,8,6,8
50.035,3,17,36,24,13,9,2,3
50.04,1,8,51,65,15,6,1,1
50.045,1,10,42,16,4,8,4,3
50.05,8,7,10,48,1,9,7,8
50.055,7,3,39,14,6,3,4,4
50.06,9,34,69,44,3,6,5,10
50.065,4,12,12,46,11,3,2,3
50.07,3,11,47,9,5,2,1,3
50.075,1,4,23,12,4,5,5,3
50.08,1,17,1,12,3,11,7,0
50.085,2,8,46,26,1,14,4,2
50.09,9,22,69,24,15,10,8,10
50.095,1,10,19,9,6,2,4,2
50.1,2,2,1,8,1,1,2,5
50.105,0,8,38,8,3,10,10,1
50.11,7,20,42,35,7,8,10,7
50.115,10,17,48,32,18,9,10,9
50.12,4,14,58,10,0,7,1,3
50.125,10,0,13,4,3,6,4,12
50.13,4,17,36,32,6,4,3,3
50.135,3,0,0,22,1,1,2,2
50.14,5,5,22,5,1,2,3,7
50.145,2,6,1,11,7,9,6,7
50.15,6,8,7,28,3,3,1,2
50.155,0,2,18,56,6,3,2,0
50.16,2,4,16,18,1,7,4,2
50.165,4,5,15,28,10,6,1,7
50.17,8,10,7,19,3,1,1,4
50.175,3,1,18,7,4,4,3,1
50.18,7,23,22,8,3,9,6,9
50.185,2,8,7,5,2,7,1,4
50.19,4,2,5,13,12,4,6,7
50.195,1,5,11,12,4,0,2,1
50.2,0,2,14,8,5,4,2,1
50.205,6,8,8,1,0,5,0,1
50.21,10,10,9,18,13,9,10,15
50.215,5,3,5,1,1,3,0,1
50.22,1,6,13,11,1,2,0,0
50.225,13,2,0,9,1,3,2,3
50.23,16,4,3,5,3,2,1,12
50.235,16,8,2,0,7,0,2,2
50.24,8,12,6,4,4,1,1,2
50.245,5,3,1,0,5,1,1,1
50.25,1,47,2,3,3,8,4,0
50.255,10,35,11,5,6,0,2,2
50.26,17,5,2,3,4,3,1,1
50.265,4,45,0,3,5,7,5,2
50.27,0,24,11,9,7,7,3,3
50.275,7,28,7,11,6,4,2,1
50.28,6,26,15,23,2,6,3,4
50.285,15,16,17,13,2,6,1,6
50.29,34,5,26,13,9,6,6,24
50.295,10,2,19,13,3,3,1,1
50.3,0,7,1,0,8,4,1,0
50.305,7,24,22,3,2,6,3,1
50.31,2,44,45,5,2,4,4,3
50.315,18,9,44,21,2,7,7,10
50.32,0,16,5,4,15,2,3,4
50.325,7,14,20,3,5,2,0,6
50.33,6,11,13,5,1,2,1,3
50.335,1,2,2,9,4,5,0,1
50.34,1,11,2,6,6,3,3,4
50.345,2,44,29,4,9,5,5,2
50.35,4,40,17,2,2,6,3,3
50.355,2,6,9,3,3,3,1,2
50.36,2,2,3,1,0,5,0,5
50.365,1,11,6,0,7,3,4,0
50.37,2,14,19,9,1,3,1,1
50.375,2,9,3,19,5,0,0,1
50.38,2,2,21,6,0,6,2,2
50.385,9,3,30,0,1,5,4,6
50.39,3,7,7,1,1,2,0,3
50.395,2,6,8,5,3,1,2,1
50.4,3,1,1,3,2,5,4,3
50.405,4,10,9,20,4,3,3,5
50.41,2,12,34,38,11,5,2,0
50.415,7,10,18,5,4,6,4,1
50.42,5,0,5,2,1,6,5,4
50.425,7,16,14,6,4,13,8,6
50.43,5,14,6,14,1,8,5,4
50.435,1,1,1,1,4,1,1,0
50.44,1,1,9,5,4,1,0,0
50.445,4,12,3,4,7,5,4,2
50.45,2,10,6,3,4,2,2,1
50.455,4,0,2,3,1,1,1,1
50.46,3,3,1,4,3,1,0,1
50.465,1,9,6,10,5,1,1,3
50.47,0,3,6,4,1,5,4,3
50.475,0,3,3,4,2,1,0,1
50.48,4,2,14,6,2,0,1,2
50.485,1,6,19,10,5,1,4,0
50.49,0,3,3,3,0,3,0,1
50.495,2,0,7,9,2,5,4,0
50.5,0,1,8,1,0,7,3,1
50.505,1,7,12,3,3,2,3,0
50.51,0,17,22,8,0,4,1,0
50.515,1,1,26,20,4,4,1,3
50.52,4,1,16,3,0,1,1,3
50.525,3,1,1,2,4,3,1,0
50.53,0,9,9,5,5,2,1,2
50.535,1,3,0,4,1,2,2,3
50.54,0,3,13,3,4,2,2,2
50.545,2,0,4,3,0,2,0,2
50.55,1,4,5,1,4,10,2,4
50.555,1,1,1,1,12,6,0,1
50.56,1,6,13,1,1,0,1,1
50.565,1,4,1,0,2,2,0,1
50.57,2,3,2,4,3,1,5,3
50.575,1,3,2,2,1,13,2,0
50.58,1,1,2,3,0,9,1,0
50.585,2,5,7,5,0,1,2,1
50.59,1,3,4,2,3,0,5,2
50.595,2,3,11,3,2,0,2,0
50.6,2,2,11,4,1,4,1,3
50.605,2,3,1,1,8,2,4,2
50.61,1,7,20,6,3,6,6,2
50.615,2,4,13,2,3,3,4,0
50.62,9,5,2,2,5,4,4,2
50.625,4,4,9,4,1,3,1,2
50.63,1,11,23,5,1,1,0,1
50.635,0,6,11,2,6,1,2,0
50.64,1,0,5,2,2,2,0,0
50.645,0,0,4,2,0,3,3,1
50.65,2,2,3,2,3,1,2,2
50.655,2,3,7,3,0,3,2,0
50.66,0,3,20,11,5,3,0,3
50.665,2,2,1,1,1,3,1,2
50.67,2,4,3,2,1,1,2,1
50.675,2,1,4,2,3,4,5,2
50.68,2,0,3,1,2,1,1,2
50.685,1,1,2,1,3,3,2,1
50.69,2,5,5,1,1,1,0,2
50.695,2,1,2,2,6,5,3,2
50.7,2,2,1,3,5,7,3,2
50.705,1,1,5,5,2,1,3,1
50.71,1,2,11,6,3,2,4,1
50.715,4,6,28,13,0,1,4,2
50.72,1,1,6,5,0,1,0,1
50.725,1,0,2,8,2,1,1,0
50.73,1,1,7,2,2,10,2,2
50.735,1,4,27,10,5,9,0,0
50.74,1,4,2,1,2,3,0,1
50.745,2,3,8,2,1,1,1,2
50.75,0,1,6,4,5,0,3,1
50.755,3,6,3,3,2,4,2,5
50.76,0,0,1,3,2,3,0,1
50.765,3,1,10,9,10,0,0,2
50.77,2,0,10,7,3,1,2,7
50.775,2,4,8,5,3,0,1,1
50.78,0,1,1,4,2,2,2,2
50.785,2,4,11,2,5,8,4,4
50.79,2,1,9,15,5,6,2,3
50.795,2,4,1,11,4,6,1,1
50.8,0,0,18,8,4,4,0,1
50.805,1,2,15,18,1,5,2,2
50.81,0,0,8,20,2,2,5,0
50.815,5,5,9,16,5,3,5,3
50.82,2,2,22,27,1,7,5,1
50.825,9,16,36,2,8,3,2,2
50.83,5,10,22,21,3,10,8,17
50.835,9,15,69,38,11,13,17,8
50.84,7,7,43,36,6,5,2,6
50.845,2,10,37,73,4,0,1,4
50.85,5,0,61,95,11,3,3,10
50.855,2,12,20,58,21,10,11,1
50.86,12,22,0,55,18,11,8,4
50.865,16,16,53,8,9,13,13,10
50.87,17,23,30,28,13,13,8,11
50.875,7,11,22,23,3,3,1,1
50.88,4,10,51,17,5,9,6,1
50.885,31,46,102,119,47,37,25,20
50.89,57,86,75,88,90,69,45,35
50.895,7,46,110,51,39,20,13,4
50.9,5,9,27,48,5,3,0,3
50.905,5,2,8,62,8,5,3,9
50.91,18,20,32,106,17,9,2,13
50.915,17,1,50,62,2,11,16,18
50.92,40,24,21,29,18,19,13,36
50.925,2,7,4,50,9,4,5,4
50.93,38,27,10,11,21,19,14,34
50.935,13,7,30,65,28,7,3,9
50.94,2,2,54,104,18,1,4,2
50.945,23,41,62,92,32,25,18,16
50.95,5,4,78,64,1,6,3,7
50.955,11,35,51,45,18,5,1,5
50.96,12,4,21,18,8,5,0,11
50.965,15,23,66,74,19,13,9,13
50.97,6,26,58,80,28,15,7,0
50.975,12,47,68,69,38,13,7,8
50.98,10,28,9,55,6,5,8,3
50.985,13,22,126,56,21,5,2,10
50.99,4,7,21,58,13,15,14,3
50.995,16,31,64,1,27,18,13,13
51,8,16,31,11,4,4,4,4
51.005,6,2,103,62,10,3,2,1
51.01,6,5,10,4,8,0,1,4
51.015,2,10,8,18,5,8,4,3
51.02,2,2,57,34,15,3,1,1
51.025,8,3,73,48,25,9,3,7
51.03,2,14,66,13,22,8,5,4
51.035,15,27,8,35,17,16,11,10
51.04,30,40,19,93,7,5,9,18
51.045,8,15,19,93,11,11,2,1
51.05,16,20,35,13,21,24,13,13
51.055,24,56,127,34,30,19,14,14
51.06,5,7,7,7,3,0,0,4
51.065,17,41,47,105,38,16,11,8
51.07,20,42,4,21,19,13,11,13
51.075,12,12,65,125,2,15,10,5
51.08,4,10,63,3,2,2,0,5
51.085,4,2,30,67,9,4,5,5
51.09,3,10,27,1,6,6,4,3
51.095,13,11,19,10,16,4,3,12
51.1,19,22,21,54,18,7,4,13
51.105,7,13,14,23,2,7,5,7
51.11,13,12,26,6,0,5,3,13
51.115,12,2,15,53,0,3,2,15
51.12,0,6,101,102,11,1,5,2
51.125,15,24,46,27,18,22,12,10
51.13,4,5,34,79,7,4,0,1
51.135,7,34,51,63,26,12,7,6
51.14,4,25,5,9,1,7,3,3
51.145,8,23,49,111,39,19,11,5
51.15,18,53,77,25,14,11,7,18
51.155,19,1,63,7,4,3,1,35
51.16,51,2,27,54,9,2,5,40
51.165,6,3,25,44,5,9,1,19
51.17,30,26,24,29,29,21,8,16
51.175,2,4,47,21,8,4,1,0
51.18,4,11,31,20,6,13,14,16
51.185,19,35,89,111,26,11,8,18
51.19,25,50,18,50,36,20,18,19
51.195,6,22,2,15,9,9,6,8
51.2,0,2,53,0,15,15,13,12
51.205,17,37,4,17,10,13,12,8
51.21,6,7,40,121,15,23,18,5
51.215,7,9,30,14,3,0,2,6
51.22,5,10,8,5,2,1,1,2
51.225,2,19,51,36,12,8,3,4
51.23,1,26,47,3,1,0,1,3
51.235,5,3,27,6,1,3,3,3
51.24,1,0,30,54,3,1,0,0
51.245,12,22,56,79,18,6,1,0
51.25,15,45,45,30,33,18,15,8
51.255,2,5,24,4,1,7,4,6
51.26,20,57,128,58,40,27,19,16
51.265,6,38,123,19,1,0,1,7
51.27,25,66,70,8,34,25,22,17
51.275,10,33,83,82,10,11,8,7
51.28,0,10,28,48,8,4,1,1
51.285,20,70,122,101,36,8,7,8
51.29,10,15,70,85,39,18,8,6
51.295,11,14,2,21,6,8,8,10
51.3,2,0,10,25,16,9,6,2
51.305,21,17,45,32,12,17,14,17
51.31,25,44,78,30,31,27,15,17
51.315,22,57,100,42,42,26,20,17
51.32,11,24,28,19,7,7,6,9
51.325,15,42,116,66,32,15,12,8
51.33,20,40,34,54,40,22,12,15
51.335,1,6,22,60,12,6,1,0
51.34,1,16,37,45,8,3,1,2
51.345,6,16,20,27,1,5,6,5
51.35,15,33,17,6,11,9,5,7
51.355,6,14,43,81,37,13,6,7
51.36,8,41,47,6,8,5,8,5
51.365,1,1,57,14,9,7,2,3
51.37,7,29,29,31,2,1,8,5
51.375,1,16,38,66,12,11,2,6
51.38,7,15,9,12,1,2,1,2
51.385,2,7,49,17,2,10,7,2
51.39,1,10,58,31,0,10,4,3
51.395,4,13,21,9,7,4,3,3
51.4,4,9,37,5,1,1,1,3
51.405,10,24,6,9,10,14,5,10
51.41,7,7,18,31,13,9,3,8
51.415,5,16,28,5,6,10,4,4
51.42,11,9,32,20,13,9,6,8
51.425,3,1,18,5,7,4,3,2
51.43,3,4,38,20,2,7,4,4
51.435,4,1,34,8,1,1,0,3
51.44,13,9,0,9,10,10,9,11
51.445,12,29,26,32,14,18,9,10
51.45,1,0,9,13,0,15,2,2
51.455,1,1,8,7,1,2,4,0
51.46,6,6,8,1,1,2,1,6
51.465,3,2,5,11,3,2,1,6
51.47,2,7,18,4,2,5,1,0
51.475,1,9,2,15,2,1,1,1
51.48,9,12,6,8,1,2,1,8
51.485,1,1,3,1,2,1,1,3
51.49,1,1,0,10,0,1,0,3
51.495,3,1,17,23,8,1,1,1
51.5,3,1,2,5,5,9,3,3
51.505,1,1,1,3,5,8,6,1
51.51,2,2,4,0,3,4,5,2
51.515,1,1,13,5,5,1,0,0
51.52,3,1,9,3,8,3,5,5
51.525,0,0,6,2,1,4,0,1
51.53,0,2,5,1,4,1,2,1
51.535,1,3,0,0,4,1,4,1
51.54,1,0,7,6,4,3,3,2
51.545,12,3,2,3,1,2,1,2
51.55,6,8,5,3,1,1,1,2
51.555,9,15,8,2,2,6,5,2
51.56,15,15,3,0,10,4,1,8
51.565,11,18,7,6,4,5,3,8
51.57,2,9,2,4,1,5,0,4
51.575,16,8,2,5,0,1,2,11
51.58,4,17,2,0,0,2,2,0
51.585,2,5,1,10,6,0,1,7
51.59,5,1,1,1,5,2,1,12
51.595,16,7,4,1,6,5,6,9
51.6,3,3,4,1,1,3,16,2
51.605,13,0,0,11,4,1,16,17
51.61,21,5,19,13,1,5,3,18
51.615,10,1,6,2,3,7,6,4
51.62,1,4,0,4,1,10,1,7
51.625,5,1,1,0,4,3,8,2
51.63,2,0,1,1,1,2,8,6
51.635,1,5,2,3,3,3,8,0
51.64,18,7,0,1,1,1,2,22
51.645,5,8,2,2,1,2,1,1
51.65,2,4,6,4,8,5,8,6
51.655,14,10,6,5,0,1,3,10
51.66,6,6,3,3,3,2,2,4
51.665,10,7,4,3,6,0,3,3
51.67,5,10,1,1,1,1,1,5
51.675,4,2,5,2,2,2,1,3
51.68,2,0,1,2,6,4,2,0
51.685,8,3,4,2,6,2,3,7
51.69,5,2,1,2,1,3,1,2
51.695,2,1,1,1,5,3,3,1
51.7,4,2,1,1,3,4,2,2
51.705,5,3,4,6,4,4,5,3
51.71,1,1,6,2,2,3,1,3
51.715,3,7,4,4,4,2,2,4
51.72,2,4,1,3,1,3,2,1
51.725,5,3,4,2,3,0,3,7
51.73,1,5,8,3,1,2,1,1
51.735,4,3,11,6,0,0,1,5
51.74,3,4,7,1,1,2,0,3
51.745,0,2,0,8,2,4,5,2
51.75,6,6,27,17,4,5,3,7
51.755,11,2,6,4,2,6,5,14
51.76,1,3,9,8,6,17,8,4
51.765,2,0,6,6,5,3,1,4
51.77,5,2,13,7,1,5,2,7
51.775,2,3,23,6,5,0,3,1
51.78,3,4,9,7,4,5,3,3
51.785,4,1,4,1,3,1,1,5
51.79,0,3,5,1,3,2,0,2
51.795,6,1,1,1,2,2,1,6
51.8,2,4,1,3,3,2,4,0
51.805,7,2,7,6,4,4,2,0
51.81,13,4,3,4,1,1,0,4
51.815,1,1,1,4,0,1,1,1
51.82,3,1,4,5,2,6,3,1
51.825,3,1,3,0,2,1,4,7
51.83,4,4,6,1,4,1,1,1
51.835,2,1,1,1,0,1,1,4
51.84,3,2,2,5,4,6,1,0
51.845,4,1,8,1,1,0,1,3
51.85,1,1,2,8,3,3,1,2
51.855,0,3,3,0,2,1,0,1
51.86,1,1,1,3,1,1,2,1
51.865,5,2,2,0,2,5,3,4
51.87,1,1,1,3,1,2,0,3
51.875,0,0,2,6,5,2,3,4
51.88,2,1,2,1,3,1,0,1
51.885,4,1,2,9,4,5,5,2
51.89,5,2,14,10,6,3,1,2
51.895,6,11,47,36,7,6,4,3
51.9,1,0,8,3,3,2,3,3
51.905,4,3,13,4,12,0,2,4
51.91,1,2,11,8,5,1,2,1
51.915,2,0,2,5,9,0,2,3
51.92,0,3,9,7,2,3,1,1
51.925,1,4,2,2,3,5,4,4
51.93,2,2,6,8,3,0,2,2
51.935,1,1,7,3,5,6,2,1
51.94,3,3,8,12,1,7,3,3
51.945,3,4,20,18,6,2,0,5
51.95,4,10,38,32,11,6,2,4
51.955,1,3,25,18,7,3,0,1
51.96,3,3,36,22,1,3,3,3
51.965,5,0,25,25,8,1,2,3
51.97,5,6,27,24,4,4,4,4
51.975,5,4,5,3,0,6,2,6
51.98,2,8,33,31,7,3,3,1
51.985,13,16,71,57,17,3,7,16
51.99,6,12,44,20,6,2,2,8
51.995,12,0,13,6,3,2,2,15
52,0,0,12,18,4,1,2,2
52.005,4,5,14,11,6,3,3,5
52.01,4,9,5,3,9,4,4,2
52.015,4,1,15,8,8,8,2,7
52.02,0,5,14,18,8,8,1,2
52.025,0,2,6,9,13,3,2,0
52.03,3,3,14,1,2,2,1,4
52.035,7,7,34,18,8,1,2,4
52.04,5,7,59,40,15,8,8,5
52.045,3,2,10,3,6,8,2,5
52.05,5,4,13,6,10,2,3,5
52.055,2,1,5,3,3,1,0,3
52.06,1,7,37,22,5,4,2,0
52.065,2,12,55,19,10,1,4,2
52.07,1,10,32,3,6,4,0,3
52.075,2,1,50,4,6,6,1,2
52.08,5,17,42,39,16,5,1,3
52.085,1,4,38,24,8,6,1,3
52.09,13,7,24,20,2,2,1,16
52.095,2,0,8,3,1,1,0,2
52.1,6,13,20,5,7,3,0,2
52.105,10,12,3,23,6,7,4,8
52.11,5,4,7,42,11,4,2,5
52.115,1,2,6,50,11,3,3,3
52.12,11,6,3,43,8,2,3,12
52.125,0,5,37,25,9,0,1,1
52.13,1,1,12,43,2,0,2,1
52.135,1,1,6,5,5,1,0,1
52.14,3,5,66,15,16,3,1,3
52.145,0,3,25,8,7,5,1,2
52.15,5,11,46,51,12,11,2,1
52.155,2,8,45,67,19,4,3,3
52.16,8,5,14,3,2,5,2,2
52.165,7,9,18,0,7,4,3,5
52.17,7,17,22,12,9,9,4,5
52.175,6,15,57,60,10,7,4,1
52.18,10,22,35,53,19,10,9,10
52.185,8,14,22,5,7,5,3,4
52.19,7,23,71,52,26,16,11,4
52.195,0,1,11,14,1,1,3,2
52.2,6,6,61,84,12,3,4,3
52.205,8,11,82,87,21,10,6,6
52.21,8,11,19,51,9,11,8,8
52.215,14,13,11,17,14,11,7,10
52.22,4,5,4,10,11,0,2,3
52.225,3,3,52,110,7,1,1,1
52.23,0,4,6,57,12,5,1,0
52.235,2,3,2,10,7,5,1,2
52.24,1,7,34,49,11,7,1,1
52.245,5,9,16,2,7,2,3,2
52.25,8,17,61,122,26,13,10,7
52.255,3,6,48,96,13,2,1,1
52.26,6,17,8,49,8,5,5,3
52.265,3,5,6,2,2,3,2,3
52.27,3,14,60,34,8,2,1,1
52.275,0,6,33,18,8,1,2,1
52.28,1,4,11,11,9,8,2,0
52.285,6,5,20,9,2,5,8,5
52.29,4,16,77,98,1,1,4,1
52.295,6,11,6,41,5,5,3,4
52.3,0,2,19,4,4,9,5,3
52.305,0,7,27,12,2,1,1,0
52.31,3,2,3,41,10,9,9,6
52.315,4,8,14,25,6,2,4,3
52.32,4,6,42,22,2,3,2,1
52.325,0,1,20,37,1,5,1,3
52.33,1,2,64,84,3,4,3,0
52.335,5,1,25,40,3,8,2,5
52.34,14,24,57,7,17,5,5,9
52.345,5,6,53,81,7,6,3,5
52.35,6,15,15,4,3,9,8,2
52.355,2,5,43,40,3,1,2,2
52.36,6,13,24,12,1,3,1,1
52.365,5,12,52,45,10,2,1,1
52.37,5,11,31,34,12,15,9,3
52.375,7,18,83,75,26,14,6,5
52.38,5,12,34,41,1,4,3,4
52.385,6,4,6,11,7,0,1,6
52.39,4,6,14,34,5,4,3,6
52.395,3,4,53,26,6,4,4,2
52.4,11,22,58,2,9,11,4,7
52.405,12,29,64,24,15,7,6,6
52.41,1,5,6,21,3,4,1,1
52.415,5,7,49,61,11,8,3,3
52.42,5,6,56,4,12,6,3,3
52.425,8,23,16,32,11,7,5,4
52.43,11,23,9,0,20,16,9,10
52.435,3,7,30,64,15,4,0,4
52.44,8,9,44,68,10,7,5,2
52.445,1,4,34,10,2,1,2,2
52.45,5,3,10,1,3,0,2,8
52.455,5,7,8,7,15,11,9,2
52.46,1,3,18,20,2,2,0,1
52.465,7,10,37,10,4,1,1,2
52.47,6,2,25,22,1,5,3,4
52.475,1,5,30,31,2,4,1,2
52.48,1,5,37,30,10,1,0,1
52.485,11,19,16,31,11,9,10,8
52.49,12,30,47,38,12,9,7,7
52.495,17,32,69,73,25,15,8,11
52.5,6,15,85,80,23,10,5,2
52.505,1,2,25,10,0,6,3,5
52.51,5,3,19,17,2,6,1,7
52.515,3,7,27,7,4,6,2,3
52.52,7,19,50,66,1,8,2,3
52.525,4,16,70,67,13,1,3,0
52.53,6,8,26,18,5,15,7,5
52.535,0,4,45,32,2,10,1,1
52.54,6,9,14,19,5,6,2,7
52.545,5,12,26,29,0,2,0,0
52.55,0,8,0,13,3,2,0,2
52.555,1,8,17,6,0,2,0,1
52.56,0,1,16,23,0,5,2,0
52.565,5,5,13,25,4,2,4,6
52.57,5,12,33,32,11,5,3,2
52.575,3,11,43,23,4,5,1,3
52.58,3,4,15,25,10,3,2,4
52.585,4,0,0,10,5,2,3,1
52.59,3,9,37,6,3,0,0,0
52.595,2,5,38,30,7,1,0,1
52.6,7,14,39,29,6,4,1,4
52.605,8,18,44,34,22,16,8,10
52.61,0,0,5,9,6,5,2,0
52.615,1,6,7,18,3,6,3,3
52.62,3,1,6,10,11,5,1,2
52.625,0,5,11,23,6,1,0,1
52.63,0,3,2,16,6,4,6,1
52.635,0,2,3,18,8,4,6,4
52.64,4,4,18,33,7,11,3,2
52.645,2,1,5,8,1,5,0,1
52.65,2,9,2,3,4,5,4,2
52.655,0,2,2,3,2,0,2,2
52.66,5,2,7,3,0,4,4,5
52.665,8,5,15,11,1,1,2,7
52.67,11,1,1,8,1,0,1,11
52.675,1,3,13,4,2,15,3,2
52.68,2,4,7,8,3,14,0,2
52.685,2,1,4,8,9,11,1,1
52.69,2,1,3,10,5,9,3,2
52.695,1,3,7,7,20,12,7,2
52.7,3,4,27,6,6,36,8,1
52.705,6,7,17,13,16,19,8,5
52.71,3,5,18,16,7,9,3,3
52.715,9,9,31,34,27,45,16,9
52.72,3,3,2,0,7,24,1,2
52.725,0,0,7,13,10,11,8,0
52.73,1,1,3,3,14,18,6,1
52.735,0,2,3,4,7,1,1,2
52.74,4,2,2,0,19,33,11,2
52.745,5,1,4,8,12,3,6,4
52.75,1,2,1,5,5,7,3,0
52.755,1,1,1,3,3,9,1,1
52.76,3,1,2,2,1,7,2,2
52.765,3,1,2,1,1,6,3,3
52.77,1,0,5,6,6,0,1,1
52.775,4,1,1,1,4,16,3,2
52.78,16,2,1,2,2,8,2,2
52.785,6,4,5,3,5,12,6,2
52.79,0,2,4,3,8,0,3,1
52.795,2,2,2,2,2,13,3,1
52.8,2,1,4,4,6,10,0,0
52.805,2,2,0,0,5,3,3,1
52.81,1,2,4,5,3,4,3,1
52.815,0,1,1,1,1,5,3,1
52.82,2,1,0,1,1,9,2,0
52.825,4,1,3,4,3,1,1,4
52.83,2,2,0,2,7,9,2,0
52.835,4,1,1,3,1,10,2,1
52.84,0,3,3,3,7,4,1,0
52.845,1,0,0,0,2,1,0,2
52.85,1,0,2,2,1,1,2,2
52.855,2,4,3,3,2,9,2,2
52.86,1,2,2,1,8,0,3,1
52.865,1,0,2,5,7,0,1,1
52.87,2,0,0,4,5,1,0,0
52.875,2,1,1,1,3,6,2,1
52.88,4,7,22,14,1,13,7,5
52.885,11,1,2,2,3,16,3,9
52.89,2,1,4,3,2,1,1,1
52.895,1,0,3,10,1,3,0,4
52.9,4,5,6,5,3,6,1,2
52.905,0,1,2,3,1,9,3,0
52.91,1,0,3,1,1,0,1,2
52.915,6,10,5,1,0,9,2,5
52.92,5,0,1,1,6,5,2,5
52.925,4,12,13,4,14,4,4,2
52.93,4,1,4,1,5,10,3,0
52.935,1,3,3,6,3,9,3,3
52.94,6,2,4,2,11,2,1,6
52.945,2,1,2,1,0,1,1,2
52.95,1,4,3,5,2,4,1,2
52.955,0,0,4,1,0,1,2,1
52.96,2,2,3,6,2,4,1,2
52.965,4,2,12,13,5,8,3,4
52.97,1,2,3,0,10,4,3,6
52.975,0,1,1,5,2,1,0,1
52.98,1,1,3,3,0,1,1,3
52.985,0,1,2,3,4,1,1,1
52.99,2,0,3,0,1,3,2,1
52.995,1,3,10,6,6,2,4,3
53,1,1,2,2,1,6,4,2
53.005,3,1,5,2,1,4,0,2
53.01,0,1,9,9,2,1,1,0
53.015,1,0,3,4,1,1,1,0
53.02,3,3,2,4,4,24,6,5
53.025,2,1,1,1,18,13,3,2
53.03,1,0,1,2,0,2,1,1
53.035,1,0,2,0,6,0,2,2
53.04,2,1,2,2,2,3,2,2
53.045,1,1,3,4,1,13,4,3
53.05,0,2,3,2,2,4,5,1
53.055,1,1,0,0,5,3,1,2
53.06,1,3,0,5,3,3,1,2
53.065,1,0,1,6,7,1,1,2
53.07,2,1,2,4,10,2,2,2
53.075,2,4,0,2,1,5,1,3
53.08,2,0,2,2,0,4,3,2
53.085,4,0,2,3,5,4,4,0
53.09,2,3,15,5,4,1,1,0
53.095,1,2,2,0,5,2,1,1
53.1,2,1,2,3,0,1,1,0
53.105,1,2,11,0,4,5,5,1
53.11,2,4,4,2,4,15,3,3
53.115,0,0,2,3,10,16,1,1
53.12,2,2,2,0,5,4,4,0
53.125,1,0,1,2,5,6,1,0
53.13,3,2,2,1,5,12,5,3
53.135,2,2,5,10,6,2,3,1
53.14,1,0,2,1,4,1,1,3
53.145,1,2,7,1,1,3,1,1
53.15,0,1,2,6,7,6,5,2
53.155,2,1,3,0,3,5,4,1
53.16,0,1,2,2,3,3,1,0
53.165,1,0,6,0,4,4,1,1
53.17,1,2,4,3,4,0,2,3
53.175,1,2,7,6,4,3,1,1
53.18,1,1,7,9,22,1,1,2
53.185,2,4,9,6,5,1,0,1
53.19,1,0,11,4,7,2,2,0
53.195,1,0,6,1,1,13,4,1
53.2,1,0,12,7,5,5,0,1
53.205,1,2,1,2,5,3,1,0
53.21,0,1,0,8,4,2,2,2
53.215,1,4,16,0,11,17,6,2
53.22,2,9,38,7,4,9,0,3
53.225,1,3,4,2,0,7,0,1
53.23,1,1,11,3,1,10,4,1
53.235,0,4,30,13,1,9,1,2
53.24,1,1,56,4,1,5,0,0
53.245,4,2,4,15,4,3,6,9
53.25,1,2,22,36,8,11,4,0
53.255,9,21,47,33,7,0,2,6
53.26,4,8,43,3,11,2,3,4
53.265,6,2,5,28,3,3,4,3
53.27,4,12,57,43,1,5,4,2
53.275,9,17,21,7,6,11,7,8
53.28,10,43,43,56,26,22,14,6
53.285,6,10,35,18,7,4,4,7
53.29,5,9,39,1,11,11,5,5
53.295,9,22,68,2,17,5,4,5
53.3,5,9,17,123,15,15,7,4
53.305,14,31,76,102,31,16,8,8
53.31,6,14,84,40,8,3,1,5
53.315,4,7,30,15,2,4,5,3
53.32,0,2,39,6,6,8,3,0
53.325,3,15,37,54,1,5,1,2
53.33,4,16,23,23,4,4,1,4
53.335,7,2,38,66,2,1,0,8
53.34,5,19,43,53,4,5,5,3
53.345,2,1,48,106,16,9,4,0
53.35,13,18,102,83,12,9,7,9
53.355,12,8,25,50,2,8,8,9
53.36,7,11,82,58,3,3,3,4
53.365,3,3,80,99,6,4,6,2
53.37,30,46,61,7,29,17,13,19
53.375,25,49,5,127,21,13,16,19
53.38,10,21,81,123,50,17,8,10
53.385,31,49,40,111,10,18,18,19
53.39,28,44,108,71,36,27,17,19
53.395,22,23,77,66,26,28,14,21
53.4,33,69,127,127,59,39,20,24
53.405,15,77,91,121,57,21,11,6
53.41,3,23,24,11,7,6,2,7
53.415,21,41,65,37,32,31,19,16
53.42,26,34,14,55,19,22,16,21
53.425,23,43,13,12,39,19,16,14
53.43,17,7,112,3,27,2,7,7
53.435,5,15,106,128,5,9,1,5
53.44,10,19,59,19,8,0,7,14
53.445,6,29,8,6,2,8,6,4
53.45,19,32,16,46,3,2,0,14
53.455,7,11,17,2,19,10,7,8
53.46,5,4,8,123,33,21,11,1
53.465,10,39,82,91,16,3,5,8
53.47,15,31,36,107,17,11,5,5
53.475,33,62,44,82,49,33,23,25
53.48,4,27,42,33,34,9,7,6
53.485,14,38,34,3,1,14,10,12
53.49,6,0,31,13,0,2,4,9
53.495,3,3,46,26,12,5,3,4
53.5,7,3,20,55,11,10,7,7
53.505,28,58,75,72,70,49,25,22
53.51,13,39,32,39,6,7,11,6
53.515,32,63,31,15,34,33,23,21
53.52,2,3,0,5,7,1,1,1
53.525,33,83,112,127,79,51,38,24
53.53,55,103,77,15,86,54,37,37
53.535,37,73,65,40,21,22,20,25
53.54,7,6,59,101,9,3,6,4
53.545,21,52,50,102,51,33,24,19
53.55,10,16,24,10,22,2,3,7
53.555,7,23,63,28,3,1,2,2
53.56,10,44,87,20,5,6,0,6
53.565,31,56,45,25,56,41,26,22
53.57,2,5,25,18,22,8,5,2
53.575,18,53,109,27,1,10,10,14
53.58,16,37,1,40,20,16,9,11
53.585,28,60,26,70,49,48,26,21
53.59,24,33,10,57,46,42,23,16
53.595,11,17,40,102,15,4,8,9
53.6,33,66,24,114,21,29,19,19
53.605,17,13,20,61,6,19,19,15
53.61,15,49,114,97,26,5,3,9
53.615,29,58,5,46,36,28,20,19
53.62,13,23,35,3,13,9,5,8
53.625,7,33,39,7,8,7,4,1
53.63,34,85,106,92,23,23,13,21
53.635,17,39,58,45,30,19,12,15
53.64,3,6,25,6,5,10,5,1
53.645,17,40,45,35,27,24,14,13
53.65,7,29,50,61,14,5,3,2
53.655,6,10,32,24,18,11,7,4
53.66,15,42,92,32,42,10,9,9
53.665,4,2,47,34,4,6,1,6
53.67,17,31,65,44,29,10,7,10
53.675,9,30,78,56,9,6,1,1
53.68,10,30,52,54,23,8,8,5
53.685,12,41,105,13,16,2,0,4
53.69,5,18,60,73,18,1,0,1
53.695,0,7,29,12,15,10,0,2
53.7,2,9,3,17,1,3,0,2
53.705,17,33,12,8,20,3,3,10
53.71,10,17,6,7,2,11,6,8
53.715,11,33,37,22,34,17,4,7
53.72,7,9,14,46,5,7,2,3
53.725,8,32,100,15,12,5,2,6
53.73,11,14,2,7,4,4,4,8
53.735,1,1,5,26,0,1,3,4
53.74,11,26,41,15,10,0,1,5
53.745,3,7,16,48,2,7,3,2
53.75,3,6,46,26,1,3,0,4
53.755,6,18,21,33,19,9,4,4
53.76,6,14,22,44,10,5,2,4
53.765,7,23,29,23,11,11,5,5
53.77,4,15,43,45,0,3,1,2
53.775,8,15,31,49,10,3,3,6
53.78,26,43,60,35,28,20,18,18
53.785,2,4,0,11,8,5,4,5
53.79,2,8,36,1,6,1,0,1
53.795,0,0,13,13,3,10,5,2
53.8,9,14,27,15,6,11,7,6
53.805,3,7,34,57,3,2,1,3
53.81,10,14,8,21,32,0,4,8
53.815,1,1,24,37,20,4,4,1
53.82,1,0,34,17,2,3,1,2
53.825,2,13,28,2,7,7,6,1
53.83,8,4,30,16,1,0,2,10
53.835,4,10,27,14,13,4,2,2
53.84,3,4,68,32,16,7,1,1
53.845,3,1,18,16,3,2,1,3
53.85,15,12,20,13,12,4,1,14
53.855,26,2,36,19,10,7,1,22
53.86,7,17,15,24,2,3,0,13
53.865,4,7,43,19,2,2,1,1
53.87,0,3,10,19,1,5,3,0
53.875,5,0,13,4,2,2,2,6
53.88,2,1,0,1,5,2,0,3
53.885,3,0,11,14,7,4,1,5
53.89,3,6,6,1,4,9,1,3
53.895,2,4,1,4,4,5,2,4
53.9,2,3,7,11,3,6,3,2
53.905,1,9,41,19,14,2,2,1
53.91,7,0,7,4,12,8,3,1
53.915,6,5,6,1,1,1,5,4
53.92,1,2,8,5,4,7,4,4
53.925,6,1,4,11,7,13,3,4
53.93,3,4,17,4,7,11,4,1
53.935,1,4,5,6,7,12,4,8
53.94,7,1,1,1,7,9,5,5
53.945,9,4,6,5,1,3,5,2
53.95,5,2,0,5,12,6,4,3
53.955,9,3,2,5,7,9,2,1
53.96,15,1,6,3,1,6,1,9
53.965,4,3,5,7,0,1,2,1
53.97,2,0,2,3,3,1,1,9
53.975,3,1,0,1,1,3,1,11
53.98,3,1,2,3,5,2,2,2
53.985,6,2,8,9,1,7,3,10
53.99,3,2,19,13,4,13,5,4
53.995,4,1,13,1,2,9,2,3
54,1,4,19,5,8,3,0,0
54.005,3,3,1,0,8,2,2,3
54.01,4,1,3,3,2,7,3,0
54.015,4,2,8,9,7,1,3,3
54.02,5,3,5,2,5,1,0,10
54.025,6,2,7,7,4,1,0,8
54.03,0,1,2,0,1,2,1,1
54.035,2,0,2,4,3,4,3,3
54.04,0,4,1,1,2,6,2,2
54.045,4,1,1,2,2,2,1,2
54.05,0,1,5,0,3,2,4,3
54.055,1,6,13,1,0,2,0,2
54.06,3,1,7,1,1,1,1,2
54.065,3,2,6,5,1,1,1,3
54.07,1,6,15,5,2,4,2,1
54.075,5,9,22,6,2,6,2,1
54.08,1,1,2,3,6,5,2,0
54.085,2,1,1,0,1,1,2,3
54.09,2,2,14,2,2,4,1,0
54.095,3,0,6,5,11,5,2,3
54.1,1,2,2,5,9,0,3,2
54.105,1,0,1,5,2,4,1,0
54.11,3,5,1,10,9,10,4,3
54.115,1,2,2,0,7,5,3,3
54.12,2,3,2,5,1,9,5,2
54.125,1,1,3,5,1,4,1,1
54.13,1,1,4,6,1,2,1,2
54.135,1,4,10,6,7,7,5,5
54.14,1,1,11,0,4,2,1,3
54.145,2,3,10,4,5,9,0,1
54.15,2,7,19,10,5,6,3,2
54.155,1,5,17,4,3,4,1,1
54.16,0,1,1,2,5,1,0,0
54.165,2,2,6,4,1,1,1,2
54.17,2,5,14,1,3,6,2,2
54.175,0,0,12,15,1,1,0,1
54.18,1,1,9,11,2,5,4,1
54.185,2,3,2,19,6,3,4,1
54.19,2,0,7,4,1,4,4,3
54.195,2,2,5,2,4,3,3,2
54.2,2,2,6,5,2,2,1,1
54.205,1,1,1,7,3,2,3,1
54.21,1,1,1,0,0,1,1,0
54.215,1,1,2,0,2,2,1,1
54.22,1,2,7,4,3,1,1,1
54.225,2,1,1,2,3,6,0,2
54.23,2,0,0,4,1,2,4,2
54.235,2,0,2,0,3,6,1,1
54.24,4,1,10,12,1,2,2,2
54.245,0,1,4,0,2,3,1,0
54.25,1,1,3,1,4,8,2,2
54.255,1,2,2,1,3,1,2,1
54.26,0,2,1,1,5,4,4,0
54.265,2,1,0,1,3,6,2,1
54.27,0,2,1,3,0,2,1,0
54.275,1,3,6,6,1,4,1,2
54.28,3,7,32,30,15,7,6,5
54.285,3,4,2,10,3,3,2,2
54.29,0,1,6,3,6,4,2,1
54.295,1,2,3,1,1,2,0,1
54.3,0,2,12,14,1,0,0,2
54.305,0,1,2,3,3,2,1,2
54.31,1,3,2,7,3,4,0,0
54.315,0,1,5,2,0,8,3,2
54.32,2,2,2,2,3,6,0,2
54.325,1,2,6,5,7,4,3,2
54.33,1,3,2,2,2,9,3,0
54.335,1,2,7,5,2,5,0,1
54.34,1,1,4,1,0,6,2,3
54.345,1,0,2,4,4,6,3,2
54.35,0,1,1,6,4,4,1,1
54.355,0,1,5,7,0,7,1,1
54.36,1,2,2,2,4,7,1,1
54.365,1,2,1,7,2,0,0,1
54.37,1,5,7,2,2,3,0,1
54.375,1,1,4,2,3,0,2,2
54.38,2,0,2,2,6,1,3,2
54.385,1,1,0,1,4,0,1,3
54.39,3,1,3,3,2,1,0,1
54.395,1,1,1,1,2,1,1,1
54.4,1,1,5,8,4,3,2,1
54.405,2,2,5,4,5,2,3,2
54.41,2,2,0,0,0,3,0,1
54.415,2,2,3,2,5,4,0,1
54.42,1,0,8,6,2,5,0,0
54.425,0,1,10,4,8,4,2,1
54.43,3,3,0,4,4,2,4,3
54.435,2,1,4,1,1,1,0,2
54.44,0,1,2,1,0,2,0,2
54.445,1,2,1,3,3,1,1,1
54.45,1,4,2,3,4,13,4,3
54.455,1,1,4,3,15,15,2,1
54.46,1,1,4,2,4,4,2,0
54.465,2,0,2,1,3,4,2,2
54.47,1,2,1,3,4,6,1,0
54.475,2,0,5,2,0,6,4,2
54.48,1,1,12,4,10,1,2,1
54.485,0,2,1,3,6,5,0,0
54.49,3,3,3,3,3,1,2,1
54.495,3,0,10,1,1,2,1,0
54.5,2,1,3,0,5,3,2,5
54.505,1,2,1,8,6,5,4,2
54.51,1,5,14,20,6,3,1,0
54.515,3,9,25,5,1,7,3,3
54.52,0,4,19,5,2,3,2,0
54.525,1,4,9,8,0,1,1,0
54.53,0,1,13,28,0,6,0,0
54.535,1,6,1,21,7,6,5,3
54.54,5,7,27,21,4,7,5,4
54.545,1,1,1,10,1,1,2,1
54.55,4,9,26,15,9,10,4,3
54.555,1,7,21,9,6,10,6,3
54.56,4,9,37,13,1,10,3,4
54.565,1,0,11,6,4,6,3,0
54.57,5,4,2,13,5,0,2,7
54.575,1,1,2,4,4,1,1,1
54.58,7,14,15,9,20,11,9,6
54.585,9,23,49,22,12,10,10,7
54.59,1,7,15,32,2,6,1,1
54.595,2,8,22,16,3,3,1,0
54.6,3,8,54,46,9,2,5,2
54.605,11,6,28,25,12,2,4,9
54.61,8,1,4,38,3,4,0,10
54.615,5,13,78,64,11,2,1,2
54.62,2,11,68,76,6,0,1,3
54.625,2,3,47,90,8,0,0,1
54.63,1,5,63,53,14,1,2,4
54.635,3,11,9,18,9,5,8,1
54.64,5,19,44,19,9,3,5,5
54.645,13,9,26,79,9,4,4,8
54.65,1,3,6,42,10,8,5,2
54.655,15,19,23,24,8,14,13,13
54.66,25,51,109,55,30,24,16,17
54.665,25,55,64,81,41,27,19,18
54.67,1,1,47,16,3,1,3,1
54.675,10,17,38,48,9,7,8,9
54.68,2,2,49,48,16,2,1,0
54.685,17,34,52,58,43,25,15,14
54.69,3,8,8,45,11,7,3,4
54.695,12,12,97,11,1,3,3,9
54.7,1,15,87,61,13,1,1,2
54.705,12,39,5,86,0,5,8,8
54.71,27,59,77,71,44,32,23,20
54.715,10,25,102,120,46,19,11,8
54.72,17,33,33,111,59,32,20,14
54.725,19,12,16,68,29,11,6,14
54.73,12,69,10,33,19,21,22,3
54.735,20,39,52,58,31,16,13,14
54.74,3,1,86,110,26,15,11,4
54.745,17,41,11,12,13,14,10,7
54.75,9,18,95,70,8,3,2,2
54.755,6,16,103,113,3,5,3,5
54.76,1,2,55,60,5,12,2,2
54.765,16,18,44,60,15,11,9,11
54.77,12,6,17,43,12,12,7,14
54.775,12,9,38,14,21,14,11,17
54.78,7,23,75,52,16,1,2,5
54.785,37,69,60,30,34,36,24,23
54.79,44,63,41,1,25,32,25,27
54.795,27,55,84,66,40,26,21,17
54.8,1,1,51,71,2,4,5,2
54.805,20,35,68,66,4,9,10,11
54.81,11,26,25,44,12,3,2,3
54.815,5,7,13,34,0,3,1,1
54.82,5,25,20,49,13,6,3,0
54.825,12,13,27,91,18,8,8,7
54.83,11,37,33,53,7,9,6,4
54.835,12,37,83,58,10,5,2,5
54.84,14,29,99,114,24,15,8,10
54.845,13,50,111,105,33,13,5,9
54.85,3,19,71,81,22,4,3,0
54.855,13,34,64,84,41,20,12,12
54.86,8,15,47,47,2,7,2,4
54.865,15,45,127,80,26,13,10,5
54.87,7,16,18,27,16,3,1,2
54.875,3,1,30,6,11,9,8,4
54.88,5,19,63,14,4,6,6,1
54.885,14,14,55,42,6,16,8,13
54.89,19,19,52,6,35,25,15,15
54.895,16,23,30,13,21,19,11,10
54.9,8,8,19,5,14,11,4,5
54.905,5,26,28,42,21,13,7,1
54.91,14,37,1,50,11,2,3,8
54.915,3,3,41,28,1,3,2,2
54.92,15,18,28,33,19,11,7,12
54.925,5,1,4,21,5,6,1,2
54.93,22,48,87,30,5,1,9,17
54.935,5,15,70,127,23,11,1,8
54.94,4,19,105,113,35,14,5,3
54.945,2,10,58,2,9,4,2,1
54.95,19,32,59,18,16,12,11,13
54.955,7,4,7,7,1,4,2,2
54.96,5,11,46,53,24,13,6,7
54.965,2,14,38,54,4,2,1,0
54.97,8,40,127,127,42,17,7,5
54.975,14,13,94,79,2,23,13,8
54.98,7,9,46,39,1,2,1,6
54.985,15,33,90,28,29,27,16,10
54.99,3,9,37,6,3,8,5,3
54.995,17,27,86,51,24,23,16,14
55,6,12,65,24,3,7,8,6
55.005,3,4,61,26,0,2,6,1
55.01,1,10,18,22,17,5,0,3
55.015,3,1,20,46,14,4,2,6
55.02,11,42,57,52,25,20,13,8
55.025,1,5,113,37,2,17,11,0
55.03,10,9,29,72,1,9,5,7
55.035,6,4,37,51,3,4,4,3
55.04,1,1,7,9,7,3,2,1
55.045,18,40,97,7,15,13,10,12
55.05,3,19,33,45,15,4,5,4
55.055,0,1,54,58,4,2,2,1
55.06,18,54,64,68,38,21,16,14
55.065,4,1,26,21,3,1,4,4
55.07,6,11,12,33,10,8,6,7
55.075,1,5,16,1,4,3,2,1
55.08,5,9,4,41,10,1,3,1
55.085,0,3,5,36,3,7,6,3
55.09,8,24,82,27,6,3,4,7
55.095,6,11,20,23,2,1,0,7
55.1,17,3,17,6,6,5,4,13
55.105,9,29,48,20,15,11,7,5
55.11,4,4,64,61,8,5,1,3
55.115,10,12,30,44,21,15,8,11
55.12,4,16,93,40,8,2,7,2
55.125,4,18,39,4,3,3,4,1
55.13,3,16,9,30,2,12,4,0
55.135,2,12,25,36,2,12,4,4
55.14,18,16,1,45,16,12,7,14
55.145,19,9,26,0,10,6,8,19
55.15,2,9,4,20,7,2,0,1
55.155,6,10,21,28,8,2,2,2
55.16,4,3,1,5,6,1,3,6
55.165,4,3,20,17,5,5,1,4
55.17,8,19,20,39,4,3,6,6
55.175,6,20,38,5,6,8,5,2
55.18,2,15,1,9,13,11,4,3
55.185,7,16,16,2,13,12,7,1
55.19,10,16,25,18,8,5,8,8
55.195,3,6,19,21,6,4,4,3
55.2,3,5,1,19,4,7,2,4
55.205,2,6,2,9,3,3,0,3
55.21,3,1,22,30,3,8,4,1
55.215,6,8,33,14,12,5,7,6
55.22,11,17,37,25,11,11,5,6
55.225,5,15,3,24,3,10,2,3
55.23,2,9,4,23,10,13,1,1
55.235,0,7,6,17,1,0,5,2
55.24,0,0,5,20,4,2,1,0
55.245,3,2,8,1,1,3,0,2
55.25,3,0,1,3,2,9,1,3
55.255,6,11,12,2,6,7,3,6
55.26,1,4,4,30,4,5,2,0
55.265,0,1,12,4,1,0,2,0
55.27,2,5,0,0,4,3,3,1
55.275,1,0,5,8,3,0,2,0
55.28,2,1,11,1,4,4,3,2
55.285,3,3,16,19,6,1,0,1
55.29,5,10,20,33,10,6,4,3
55.295,2,6,14,6,4,0,2,1
55.3,2,11,19,5,0,1,1,3
55.305,2,7,13,6,4,1,1,1
55.31,2,1,13,14,5,8,3,2
55.315,1,4,6,3,6,8,5,2
55.32,1,1,13,7,3,3,3,3
55.325,1,1,4,4,3,2,0,1
55.33,0,2,9,0,6,7,0,4
55.335,1,2,1,1,7,8,0,1
55.34,2,3,11,3,2,4,3,0
55.345,0,4,2,5,2,5,4,2
55.35,1,1,0,6,3,3,0,0
55.355,4,7,14,5,4,3,3,1
55.36,1,2,16,3,2,5,1,1
55.365,1,4,3,2,1,3,1,1
55.37,1,1,3,1,4,4,4,1
55.375,0,3,1,8,8,2,4,0
55.38,0,1,3,4,1,4,3,0
55.385,2,4,5,18,8,6,3,1
55.39,2,0,1,1,5,3,3,2
55.395,2,3,4,1,1,6,3,3
55.4,1,1,6,1,1,0,0,2
55.405,0,1,1,1,1,2,1,0
55.41,1,2,4,0,2,1,0,2
55.415,3,6,14,3,5,3,3,1
55.42,5,4,3,1,1,0,2,4
55.425,16,5,8,0,3,6,0,5
55.43,2,5,1,3,2,13,3,3
55.435,4,6,5,4,2,5,3,2
55.44,0,3,0,1,4,0,1,0
55.445,4,1,1,1,3,3,2,0
55.45,1,5,0,4,2,2,1,1
55.455,0,1,1,2,2,5,3,0
55.46,7,3,5,5,5,2,2,7
55.465,16,3,1,3,3,2,4,21
55.47,1,2,1,1,0,4,2,0
55.475,1,4,5,7,4,10,7,1
55.48,7,6,1,3,0,9,5,5
55.485,8,0,6,1,11,3,2,6
55.49,3,1,6,2,2,3,5,1
55.495,5,0,1,3,2,4,1,3
55.5,2,5,9,3,7,5,0,3
55.505,5,2,4,4,0,7,1,8
55.51,3,5,9,6,5,3,2,8
55.515,4,3,0,1,7,4,4,1
55.52,6,2,5,3,0,3,3,2
55.525,0,0,6,3,1,4,1,1
55.53,0,0,1,3,8,6,3,1
55.535,4,6,9,3,2,1,2,3
55.54,0,0,6,4,3,7,1,0
55.545,0,3,8,9,2,11,4,1
55.55,1,0,0,3,4,1,3,1
55.555,1,0,2,1,0,0,2,3
55.56,1,0,6,2,0,3,2,3
55.565,2,2,2,3,1,1,2,2
55.57,1,6,5,0,12,3,1,2
55.575,0,1,7,7,18,3,5,2
55.58,1,1,1,2,3,4,2,2
55.585,0,1,3,5,5,0,1,2
55.59,2,1,4,1,0,3,1,0
55.595,1,3,1,3,3,2,3,3
55.6,0,1,7,0,8,6,0,1
55.605,0,3,5,6,4,7,3,1
55.61,3,1,8,10,6,3,4,3
55.615,1,1,0,2,5,1,2,1
55.62,1,4,7,3,4,3,3,1
55.625,0,1,5,2,2,0,2,1
55.63,1,1,1,2,3,5,1,2
55.635,1,1,4,1,1,3,1,1
55.64,3,1,3,0,2,2,3,1
55.645,3,1,1,2,0,2,1,2
55.65,0,7,11,3,5,1,0,3
55.655,1,5,13,0,2,2,2,1
