0.005,0.0,0.0,0.0,0.0,-2.0,-2.0,-2.0,-2.0,0.3807373046875,0.69708251953125,-0.6025390625,-0.07763671875,-0.3544921875,-0.90771484375,-0.25830078125,-0.625,1.25,0.9375
0.01,0.0,0.0,0.0,0.0,-2.0,-2.0,-2.0,-2.0,0.3807373046875,0.69708251953125,-0.6025390625,-0.07763671875,-0.3544921875,-0.90771484375,-0.25830078125,-0.625,1.25,0.9375
0.015,-1.0,-2.0,-1.0,-2.0,0.0,-1.0,3.0,-2.0,0.3807373046875,0.69708251953125,-0.6025390625,-0.07763671875,-0.3544921875,-0.90771484375,-0.25830078125,-0.625,1.25,0.9375
0.02,-1.0,-2.0,-1.0,-2.0,0.0,-1.0,3.0,-2.0,0.3807373046875,0.69708251953125,-0.6025390625,-0.07763671875,-0.3544921875,-0.90771484375,-0.25830078125,-0.625,1.25,0.9375
0.025,-1.0,-2.0,-1.0,-2.0,0.0,-1.0,3.0,-2.0,0.38104248046875,0.69708251953125,-0.60235595703125,-0.07763671875,-0.3623046875,-0.91259765625,-0.25634765625,-1.5,1.8125,0.5
0.030000000000000002,-1.0,-2.0,-1.0,-2.0,0.0,-1.0,3.0,-2.0,0.38104248046875,0.69708251953125,-0.60235595703125,-0.07763671875,-0.3623046875,-0.91259765625,-0.25634765625,-1.5,1.8125,0.5
0.035,-1.0,-1.0,-1.0,-2.0,3.0,10.0,5.0,-1.0,0.38104248046875,0.69708251953125,-0.60235595703125,-0.07763671875,-0.3623046875,-0.91259765625,-0.25634765625,-1.5,1.8125,0.5
0.04,-1.0,-1.0,-1.0,-2.0,3.0,10.0,5.0,-1.0,0.38104248046875,0.69708251953125,-0.60235595703125,-0.07763671875,-0.3623046875,-0.91259765625,-0.25634765625,-1.5,1.8125,0.5
0.045,-1.0,-1.0,-2.0,-2.0,-3.0,-7.0,-1.0,-1.0,0.38134765625,0.6971435546875,-0.60205078125,-0.077880859375,-0.35986328125,-0.92138671875,-0.26513671875,-1.25,2.625,0.3125
0.049999999999999996,-1.0,-1.0,-2.0,-2.0,-3.0,-7.0,-1.0,-1.0,0.38134765625,0.6971435546875,-0.60205078125,-0.077880859375,-0.35986328125,-0.92138671875,-0.26513671875,-1.25,2.625,0.3125
0.05499999999999999,-1.0,-1.0,-2.0,-2.0,-3.0,-7.0,-1.0,-1.0,0.38134765625,0.6971435546875,-0.60205078125,-0.077880859375,-0.35986328125,-0.92138671875,-0.26513671875,-1.25,2.625,0.3125
0.05999999999999999,-1.0,-1.0,-2.0,-2.0,-3.0,-7.0,-1.0,-1.0,0.38134765625,0.6971435546875,-0.60205078125,-0.077880859375,-0.35986328125,-0.92138671875,-0.26513671875,-1.25,2.625,0.3125
0.06499999999999999,0.0,-2.0,-2.0,-4.0,-5.0,-7.0,-2.0,1.0,0.38134765625,0.6971435546875,-0.60205078125,-0.077880859375,-0.35986328125,-0.92138671875,-0.26513671875,-1.25,2.625,0.3125
0.06999999999999999,0.0,-2.0,-2.0,-4.0,-5.0,-7.0,-2.0,1.0,0.38134765625,0.6971435546875,-0.60205078125,-0.077880859375,-0.35986328125,-0.92138671875,-0.26513671875,-1.25,2.625,0.3125
0.075,-2.0,-1.0,-1.0,1.0,-1.0,-2.0,-2.0,-1.0,0.3817138671875,0.6971435546875,-0.601806640625,-0.078125,-0.3583984375,-0.91748046875,-0.2568359375,-1.4375,3.1875,0.4375
0.08,-2.0,-1.0,-1.0,1.0,-1.0,-2.0,-2.0,-1.0,0.3817138671875,0.6971435546875,-0.601806640625,-0.078125,-0.3583984375,-0.91748046875,-0.2568359375,-1.4375,3.1875,0.4375
0.085,-2.0,-1.0,-1.0,1.0,-1.0,-2.0,-2.0,-1.0,0.3817138671875,0.6971435546875,-0.601806640625,-0.078125,-0.3583984375,-0.91748046875,-0.2568359375,-1.4375,3.1875,0.4375
0.09000000000000001,-2.0,-1.0,-1.0,1.0,-1.0,-2.0,-2.0,-1.0,0.3817138671875,0.6971435546875,-0.601806640625,-0.078125,-0.3583984375,-0.91748046875,-0.2568359375,-1.4375,3.1875,0.4375
0.09500000000000001,-1.0,-1.0,-1.0,0.0,-1.0,8.0,-4.0,-1.0,0.3817138671875,0.6971435546875,-0.601806640625,-0.078125,-0.3583984375,-0.91748046875,-0.2568359375,-1.4375,3.1875,0.4375
0.10000000000000002,-1.0,-1.0,-1.0,0.0,-1.0,8.0,-4.0,-1.0,0.38214111328125,0.69720458984375,-0.60137939453125,-0.07830810546875,-0.3662109375,-0.91357421875,-0.2626953125,-2.1875,3.25,0.0625
0.10500000000000002,-1.0,-1.0,-1.0,0.0,-1.0,8.0,-4.0,-1.0,0.38214111328125,0.69720458984375,-0.60137939453125,-0.07830810546875,-0.3662109375,-0.91357421875,-0.2626953125,-2.1875,3.25,0.0625
0.11000000000000003,-3.0,-3.0,0.0,-1.0,-5.0,-7.0,-4.0,-1.0,0.38214111328125,0.69720458984375,-0.60137939453125,-0.07830810546875,-0.3662109375,-0.91357421875,-0.2626953125,-2.1875,3.25,0.0625
0.11500000000000003,-3.0,-3.0,0.0,-1.0,-5.0,-7.0,-4.0,-1.0,0.38214111328125,0.69720458984375,-0.60137939453125,-0.07830810546875,-0.3662109375,-0.91357421875,-0.2626953125,-2.1875,3.25,0.0625
0.12000000000000004,-1.0,-1.0,-1.0,-1.0,-1.0,-3.0,-3.0,-1.0,0.38214111328125,0.69720458984375,-0.60137939453125,-0.07830810546875,-0.3662109375,-0.91357421875,-0.2626953125,-2.1875,3.25,0.0625
0.12500000000000003,-1.0,-1.0,-1.0,-1.0,-1.0,-3.0,-3.0,-1.0,0.38250732421875,0.6973876953125,-0.60101318359375,-0.07843017578125,-0.36572265625,-0.92041015625,-0.26806640625,-2.375,2.8125,0.25
0.13000000000000003,-1.0,-1.0,-1.0,-1.0,-1.0,-3.0,-3.0,-1.0,0.38250732421875,0.6973876953125,-0.60101318359375,-0.07843017578125,-0.36572265625,-0.92041015625,-0.26806640625,-2.375,2.8125,0.25
0.13500000000000004,-1.0,-1.0,-1.0,-1.0,-1.0,-3.0,-3.0,-1.0,0.38250732421875,0.6973876953125,-0.60101318359375,-0.07843017578125,-0.36572265625,-0.92041015625,-0.26806640625,-2.375,2.8125,0.25
0.14000000000000004,-2.0,-1.0,0.0,-2.0,-1.0,-5.0,1.0,-2.0,0.38250732421875,0.6973876953125,-0.60101318359375,-0.07843017578125,-0.36572265625,-0.92041015625,-0.26806640625,-2.375,2.8125,0.25
0.14500000000000005,-2.0,-1.0,0.0,-2.0,-1.0,-5.0,1.0,-2.0,0.38250732421875,0.6973876953125,-0.60101318359375,-0.07843017578125,-0.36572265625,-0.92041015625,-0.26806640625,-2.375,2.8125,0.25
0.15000000000000005,-1.0,-1.0,0.0,0.0,0.0,0.0,0.0,-2.0,0.3828125,0.697509765625,-0.60064697265625,-0.07843017578125,-0.3671875,-0.92138671875,-0.26806640625,-2.5,2.0,0.1875
0.15500000000000005,-1.0,-1.0,0.0,0.0,0.0,0.0,0.0,-2.0,0.3828125,0.697509765625,-0.60064697265625,-0.07843017578125,-0.3671875,-0.92138671875,-0.26806640625,-2.5,2.0,0.1875
0.16000000000000006,-1.0,-1.0,0.0,0.0,0.0,0.0,0.0,-2.0,0.3828125,0.697509765625,-0.60064697265625,-0.07843017578125,-0.3671875,-0.92138671875,-0.26806640625,-2.5,2.0,0.1875
0.16500000000000006,-1.0,-1.0,0.0,0.0,0.0,0.0,0.0,-2.0,0.3828125,0.697509765625,-0.60064697265625,-0.07843017578125,-0.3671875,-0.92138671875,-0.26806640625,-2.5,2.0,0.1875
0.17000000000000007,-1.0,-1.0,-3.0,-1.0,-2.0,-1.0,0.0,0.0,0.3828125,0.697509765625,-0.60064697265625,-0.07843017578125,-0.3671875,-0.92138671875,-0.26806640625,-2.5,2.0,0.1875
0.17500000000000007,-1.0,-1.0,-3.0,-1.0,-2.0,-1.0,0.0,0.0,0.3828125,0.697509765625,-0.60064697265625,-0.07843017578125,-0.3671875,-0.92138671875,-0.26806640625,-2.5,2.0,0.1875
0.18000000000000008,-1.0,-1.0,-3.0,-1.0,-2.0,-1.0,0.0,0.0,0.38299560546875,0.69769287109375,-0.60028076171875,-0.07830810546875,-0.36376953125,-0.9208984375,-0.267578125,-2.75,1.25,0.125
0.18500000000000008,-1.0,-1.0,-3.0,-1.0,-2.0,-1.0,0.0,0.0,0.38299560546875,0.69769287109375,-0.60028076171875,-0.07830810546875,-0.36376953125,-0.9208984375,-0.267578125,-2.75,1.25,0.125
0.19000000000000009,-1.0,-1.0,-3.0,-1.0,-2.0,-1.0,0.0,0.0,0.38299560546875,0.69769287109375,-0.60028076171875,-0.07830810546875,-0.36376953125,-0.9208984375,-0.267578125,-2.75,1.25,0.125
0.1950000000000001,-1.0,-1.0,-3.0,-1.0,-2.0,-1.0,0.0,0.0,0.38299560546875,0.69769287109375,-0.60028076171875,-0.07830810546875,-0.36376953125,-0.9208984375,-0.267578125,-2.75,1.25,0.125
0.2000000000000001,0.0,-1.0,-1.0,0.0,-1.0,-1.0,5.0,-3.0,0.383056640625,0.697998046875,-0.59991455078125,-0.078125,-0.36279296875,-0.9228515625,-0.27392578125,-2.8125,0.1875,0.0
0.2050000000000001,0.0,-1.0,-1.0,0.0,-1.0,-1.0,5.0,-3.0,0.383056640625,0.697998046875,-0.59991455078125,-0.078125,-0.36279296875,-0.9228515625,-0.27392578125,-2.8125,0.1875,0.0
0.2100000000000001,0.0,-1.0,-1.0,0.0,-1.0,-1.0,5.0,-3.0,0.383056640625,0.697998046875,-0.59991455078125,-0.078125,-0.36279296875,-0.9228515625,-0.27392578125,-2.8125,0.1875,0.0
0.2150000000000001,0.0,-1.0,-1.0,0.0,-1.0,-1.0,5.0,-3.0,0.383056640625,0.697998046875,-0.59991455078125,-0.078125,-0.36279296875,-0.9228515625,-0.27392578125,-2.8125,0.1875,0.0
0.2200000000000001,-2.0,-1.0,-1.0,-3.0,0.0,7.0,2.0,-1.0,0.383056640625,0.697998046875,-0.59991455078125,-0.078125,-0.36279296875,-0.9228515625,-0.27392578125,-2.8125,0.1875,0.0
0.22500000000000012,-2.0,-1.0,-1.0,-3.0,0.0,7.0,2.0,-1.0,0.383056640625,0.697998046875,-0.59991455078125,-0.078125,-0.36279296875,-0.9228515625,-0.27392578125,-2.8125,0.1875,0.0
0.23000000000000012,0.0,0.0,-1.0,-1.0,-5.0,0.0,-1.0,0.0,0.383056640625,0.6981201171875,-0.59979248046875,-0.07794189453125,-0.35986328125,-0.92138671875,-0.271484375,-1.9375,-0.4375,0.1875
0.23500000000000013,0.0,0.0,-1.0,-1.0,-5.0,0.0,-1.0,0.0,0.383056640625,0.6981201171875,-0.59979248046875,-0.07794189453125,-0.35986328125,-0.92138671875,-0.271484375,-1.9375,-0.4375,0.1875
0.24000000000000013,0.0,0.0,-1.0,-1.0,-5.0,0.0,-1.0,0.0,0.383056640625,0.6981201171875,-0.59979248046875,-0.07794189453125,-0.35986328125,-0.92138671875,-0.271484375,-1.9375,-0.4375,0.1875
0.24500000000000013,0.0,0.0,-1.0,-1.0,-5.0,0.0,-1.0,0.0,0.383056640625,0.6981201171875,-0.59979248046875,-0.07794189453125,-0.35986328125,-0.92138671875,-0.271484375,-1.9375,-0.4375,0.1875
0.2500000000000001,-2.0,-1.0,0.0,2.0,3.0,3.0,-1.0,-2.0,0.383056640625,0.6981201171875,-0.59979248046875,-0.07794189453125,-0.35986328125,-0.92138671875,-0.271484375,-1.9375,-0.4375,0.1875
0.2550000000000001,-2.0,-1.0,0.0,2.0,3.0,3.0,-1.0,-2.0,0.383056640625,0.6981201171875,-0.59979248046875,-0.07794189453125,-0.35986328125,-0.92138671875,-0.271484375,-1.9375,-0.4375,0.1875
0.2600000000000001,-2.0,-1.0,0.0,2.0,3.0,3.0,-1.0,-2.0,0.383056640625,0.6981201171875,-0.59979248046875,-0.07794189453125,-0.3603515625,-0.91552734375,-0.27392578125,-0.4375,-0.9375,0.6875
0.2650000000000001,-2.0,-1.0,0.0,2.0,3.0,3.0,-1.0,-2.0,0.383056640625,0.6981201171875,-0.59979248046875,-0.07794189453125,-0.3603515625,-0.91552734375,-0.27392578125,-0.4375,-0.9375,0.6875
0.27000000000000013,-1.0,-2.0,0.0,-2.0,-2.0,-1.0,-4.0,-2.0,0.383056640625,0.6981201171875,-0.59979248046875,-0.07794189453125,-0.3603515625,-0.91552734375,-0.27392578125,-0.4375,-0.9375,0.6875
0.27500000000000013,-1.0,-2.0,0.0,-2.0,-2.0,-1.0,-4.0,-2.0,0.383056640625,0.6981201171875,-0.59979248046875,-0.07794189453125,-0.3603515625,-0.91552734375,-0.27392578125,-0.4375,-0.9375,0.6875
0.28000000000000014,-1.0,-1.0,0.0,0.0,-1.0,-2.0,-1.0,0.0,0.3831787109375,0.6981201171875,-0.59979248046875,-0.07757568359375,-0.359375,-0.9150390625,-0.27099609375,-0.9375,-1.1875,1.5
0.28500000000000014,-1.0,-1.0,0.0,0.0,-1.0,-2.0,-1.0,0.0,0.3831787109375,0.6981201171875,-0.59979248046875,-0.07757568359375,-0.359375,-0.9150390625,-0.27099609375,-0.9375,-1.1875,1.5
0.29000000000000015,-1.0,-1.0,0.0,0.0,-1.0,-2.0,-1.0,0.0,0.3831787109375,0.6981201171875,-0.59979248046875,-0.07757568359375,-0.359375,-0.9150390625,-0.27099609375,-0.9375,-1.1875,1.5
0.29500000000000015,0.0,-1.0,-1.0,-1.0,-3.0,-5.0,0.0,-1.0,0.3831787109375,0.6981201171875,-0.59979248046875,-0.07757568359375,-0.359375,-0.9150390625,-0.27099609375,-0.9375,-1.1875,1.5
0.30000000000000016,0.0,-1.0,-1.0,-1.0,-3.0,-5.0,0.0,-1.0,0.3831787109375,0.6981201171875,-0.59979248046875,-0.07757568359375,-0.359375,-0.9150390625,-0.27099609375,-0.9375,-1.1875,1.5
0.30500000000000016,0.0,-1.0,-1.0,-1.0,-3.0,-5.0,0.0,-1.0,0.3831787109375,0.6981201171875,-0.59979248046875,-0.07757568359375,-0.359375,-0.9150390625,-0.27099609375,-0.9375,-1.1875,1.5
0.31000000000000016,-1.0,1.0,0.0,0.0,0.0,-1.0,0.0,0.0,0.38323974609375,0.6981201171875,-0.59979248046875,-0.0770263671875,-0.36572265625,-0.92041015625,-0.2705078125,-1.75,-1.5625,1.9375
0.31500000000000017,-1.0,1.0,0.0,0.0,0.0,-1.0,0.0,0.0,0.38323974609375,0.6981201171875,-0.59979248046875,-0.0770263671875,-0.36572265625,-0.92041015625,-0.2705078125,-1.75,-1.5625,1.9375
0.3200000000000002,-1.0,1.0,0.0,0.0,0.0,-1.0,0.0,0.0,0.38323974609375,0.6981201171875,-0.59979248046875,-0.0770263671875,-0.36572265625,-0.92041015625,-0.2705078125,-1.75,-1.5625,1.9375
0.3250000000000002,-1.0,1.0,-2.0,-3.0,-3.0,-1.0,1.0,-2.0,0.38323974609375,0.6981201171875,-0.59979248046875,-0.0770263671875,-0.36572265625,-0.92041015625,-0.2705078125,-1.75,-1.5625,1.9375
0.3300000000000002,-2.0,-2.0,-2.0,0.0,-1.0,1.0,-2.0,-1.0,0.38323974609375,0.6981201171875,-0.59979248046875,-0.0770263671875,-0.36572265625,-0.92041015625,-0.2705078125,-1.75,-1.5625,1.9375
0.3350000000000002,-2.0,-2.0,-2.0,0.0,-1.0,1.0,-2.0,-1.0,0.38336181640625,0.6981201171875,-0.599853515625,-0.07659912109375,-0.36279296875,-0.9150390625,-0.2666015625,-1.375,-1.375,1.8125
0.3400000000000002,-2.0,-2.0,-2.0,0.0,-1.0,1.0,-2.0,-1.0,0.38336181640625,0.6981201171875,-0.599853515625,-0.07659912109375,-0.36279296875,-0.9150390625,-0.2666015625,-1.375,-1.375,1.8125
0.3450000000000002,-1.0,-2.0,-1.0,-2.0,-1.0,-2.0,-1.0,-1.0,0.38336181640625,0.6981201171875,-0.599853515625,-0.07659912109375,-0.36279296875,-0.9150390625,-0.2666015625,-1.375,-1.375,1.8125
0.3500000000000002,0.0,0.0,-2.0,-2.0,0.0,-4.0,-4.0,-1.0,0.38336181640625,0.6981201171875,-0.599853515625,-0.07659912109375,-0.36279296875,-0.9150390625,-0.2666015625,-1.375,-1.375,1.8125
0.3550000000000002,1.0,0.0,-2.0,1.0,3.0,8.0,1.0,0.0,0.38348388671875,0.6981201171875,-0.59979248046875,-0.07623291015625,-0.3642578125,-0.912109375,-0.271484375,-1.25,-0.9375,1.4375
0.3600000000000002,1.0,0.0,-2.0,1.0,3.0,8.0,1.0,0.0,0.38348388671875,0.6981201171875,-0.59979248046875,-0.07623291015625,-0.3642578125,-0.912109375,-0.271484375,-1.25,-0.9375,1.4375
0.3650000000000002,1.0,0.0,-2.0,1.0,3.0,8.0,1.0,0.0,0.38348388671875,0.6981201171875,-0.59979248046875,-0.07623291015625,-0.3642578125,-0.912109375,-0.271484375,-1.25,-0.9375,1.4375
0.3700000000000002,-2.0,-1.0,-1.0,-1.0,0.0,2.0,1.0,0.0,0.38348388671875,0.6981201171875,-0.59979248046875,-0.07623291015625,-0.3642578125,-0.912109375,-0.271484375,-1.25,-0.9375,1.4375
0.3750000000000002,-2.0,-1.0,-1.0,-1.0,0.0,2.0,1.0,0.0,0.38348388671875,0.6981201171875,-0.59979248046875,-0.07623291015625,-0.3642578125,-0.912109375,-0.271484375,-1.25,-0.9375,1.4375
0.3800000000000002,-2.0,-2.0,-2.0,0.0,-2.0,-3.0,-6.0,-2.0,0.38348388671875,0.6981201171875,-0.59979248046875,-0.07623291015625,-0.3642578125,-0.912109375,-0.271484375,-1.25,-0.9375,1.4375
0.38500000000000023,-3.0,0.0,-2.0,-2.0,-3.0,-11.0,-2.0,-3.0,0.383544921875,0.69805908203125,-0.59979248046875,-0.07598876953125,-0.3603515625,-0.90673828125,-0.2626953125,-1.0,-0.5,1.1875
0.39000000000000024,-3.0,0.0,-2.0,-2.0,-3.0,-11.0,-2.0,-3.0,0.383544921875,0.69805908203125,-0.59979248046875,-0.07598876953125,-0.3603515625,-0.90673828125,-0.2626953125,-1.0,-0.5,1.1875
0.39500000000000024,0.0,0.0,0.0,-3.0,-2.0,-15.0,-5.0,-2.0,0.383544921875,0.69805908203125,-0.59979248046875,-0.07598876953125,-0.3603515625,-0.90673828125,-0.2626953125,-1.0,-0.5,1.1875
0.40000000000000024,-1.0,-1.0,-1.0,0.0,-3.0,-3.0,-2.0,-2.0,0.383544921875,0.69805908203125,-0.59979248046875,-0.07598876953125,-0.3603515625,-0.90673828125,-0.2626953125,-1.0,-0.5,1.1875
0.40500000000000025,-1.0,-1.0,-1.0,0.0,-3.0,-3.0,-2.0,-2.0,0.383544921875,0.69805908203125,-0.59979248046875,-0.07598876953125,-0.3603515625,-0.90673828125,-0.2626953125,-1.0,-0.5,1.1875
0.41000000000000025,-2.0,-2.0,-2.0,-3.0,-2.0,-7.0,-3.0,-3.0,0.38372802734375,0.6981201171875,-0.59967041015625,-0.07568359375,-0.3603515625,-0.90771484375,-0.265625,-1.9375,0.0625,1.3125
0.41500000000000026,-3.0,-2.0,-4.0,-3.0,-5.0,-7.0,-4.0,0.0,0.38372802734375,0.6981201171875,-0.59967041015625,-0.07568359375,-0.3603515625,-0.90771484375,-0.265625,-1.9375,0.0625,1.3125
0.42000000000000026,-1.0,-1.0,-2.0,0.0,3.0,1.0,0.0,-1.0,0.38372802734375,0.6981201171875,-0.59967041015625,-0.07568359375,-0.3603515625,-0.90771484375,-0.265625,-1.9375,0.0625,1.3125
0.42500000000000027,1.0,-1.0,-1.0,0.0,-1.0,-2.0,3.0,0.0,0.38397216796875,0.6983642578125,-0.5992431640625,-0.075439453125,-0.35888671875,-0.90869140625,-0.27001953125,-3.5625,0.75,1.1875
0.43000000000000027,1.0,-1.0,-1.0,0.0,-1.0,-2.0,3.0,0.0,0.38397216796875,0.6983642578125,-0.5992431640625,-0.075439453125,-0.35888671875,-0.90869140625,-0.27001953125,-3.5625,0.75,1.1875
0.4350000000000003,1.0,-1.0,-1.0,0.0,-1.0,-2.0,3.0,0.0,0.38397216796875,0.6983642578125,-0.5992431640625,-0.075439453125,-0.35888671875,-0.90869140625,-0.27001953125,-3.5625,0.75,1.1875
0.4400000000000003,-2.0,0.0,0.0,-1.0,-1.0,4.0,1.0,1.0,0.38397216796875,0.6983642578125,-0.5992431640625,-0.075439453125,-0.35888671875,-0.90869140625,-0.27001953125,-3.5625,0.75,1.1875
0.4450000000000003,-3.0,-1.0,0.0,0.0,-1.0,-10.0,-5.0,-1.0,0.38427734375,0.69866943359375,-0.5987548828125,-0.07525634765625,-0.35888671875,-0.9111328125,-0.275390625,-3.8125,1.1875,1.0625
0.4500000000000003,-3.0,-1.0,0.0,0.0,-1.0,-10.0,-5.0,-1.0,0.38427734375,0.69866943359375,-0.5987548828125,-0.07525634765625,-0.35888671875,-0.9111328125,-0.275390625,-3.8125,1.1875,1.0625
0.4550000000000003,-3.0,-1.0,0.0,0.0,-1.0,-10.0,-5.0,-1.0,0.38427734375,0.69866943359375,-0.5987548828125,-0.07525634765625,-0.35888671875,-0.9111328125,-0.275390625,-3.8125,1.1875,1.0625
0.4600000000000003,-1.0,-2.0,1.0,0.0,1.0,-4.0,0.0,-1.0,0.38427734375,0.69866943359375,-0.5987548828125,-0.07525634765625,-0.35888671875,-0.9111328125,-0.275390625,-3.8125,1.1875,1.0625
0.4650000000000003,-2.0,-1.0,-1.0,-1.0,-4.0,-3.0,2.0,0.0,0.38427734375,0.69866943359375,-0.5987548828125,-0.07525634765625,-0.35888671875,-0.9111328125,-0.275390625,-3.8125,1.1875,1.0625
0.4700000000000003,-2.0,-1.0,-1.0,-1.0,-4.0,-3.0,2.0,0.0,0.3846435546875,0.69891357421875,-0.59820556640625,-0.0751953125,-0.35546875,-0.91357421875,-0.2802734375,-3.0625,1.875,1.375
0.4750000000000003,-2.0,-1.0,-1.0,-1.0,-4.0,-3.0,2.0,0.0,0.3846435546875,0.69891357421875,-0.59820556640625,-0.0751953125,-0.35546875,-0.91357421875,-0.2802734375,-3.0625,1.875,1.375
0.4800000000000003,-2.0,-1.0,1.0,-1.0,-1.0,-7.0,-3.0,-3.0,0.3846435546875,0.69891357421875,-0.59820556640625,-0.0751953125,-0.35546875,-0.91357421875,-0.2802734375,-3.0625,1.875,1.375
0.4850000000000003,-1.0,0.0,-2.0,0.0,0.0,5.0,-3.0,-2.0,0.3846435546875,0.69891357421875,-0.59820556640625,-0.0751953125,-0.35546875,-0.91357421875,-0.2802734375,-3.0625,1.875,1.375
0.4900000000000003,-1.0,0.0,-2.0,0.0,0.0,5.0,-3.0,-2.0,0.3846435546875,0.69891357421875,-0.59820556640625,-0.0751953125,-0.35546875,-0.91357421875,-0.2802734375,-3.0625,1.875,1.375
0.49500000000000033,-1.0,0.0,-2.0,0.0,0.0,5.0,-3.0,-2.0,0.3851318359375,0.69891357421875,-0.597900390625,-0.0751953125,-0.36328125,-0.912109375,-0.26904296875,-2.3125,2.375,1.75
0.5000000000000003,0.0,0.0,-3.0,-2.0,-2.0,-2.0,-6.0,0.0,0.3851318359375,0.69891357421875,-0.597900390625,-0.0751953125,-0.36328125,-0.912109375,-0.26904296875,-2.3125,2.375,1.75
0.5050000000000003,0.0,-2.0,-3.0,-2.0,-3.0,-6.0,2.0,-1.0,0.3851318359375,0.69891357421875,-0.597900390625,-0.0751953125,-0.36328125,-0.912109375,-0.26904296875,-2.3125,2.375,1.75
0.5100000000000003,1.0,-1.0,-1.0,-1.0,-1.0,2.0,3.0,0.0,0.3856201171875,0.698974609375,-0.5975341796875,-0.07513427734375,-0.36376953125,-0.91015625,-0.27294921875,-2.4375,2.4375,1.75
0.5150000000000003,1.0,-1.0,-1.0,-1.0,-1.0,2.0,3.0,0.0,0.3856201171875,0.698974609375,-0.5975341796875,-0.07513427734375,-0.36376953125,-0.91015625,-0.27294921875,-2.4375,2.4375,1.75
0.5200000000000004,1.0,-1.0,-1.0,-1.0,-1.0,2.0,3.0,0.0,0.3856201171875,0.698974609375,-0.5975341796875,-0.07513427734375,-0.36376953125,-0.91015625,-0.27294921875,-2.4375,2.4375,1.75
0.5250000000000004,1.0,-1.0,-1.0,-1.0,-1.0,2.0,3.0,0.0,0.3856201171875,0.698974609375,-0.5975341796875,-0.07513427734375,-0.36376953125,-0.91015625,-0.27294921875,-2.4375,2.4375,1.75
0.5300000000000004,-2.0,-1.0,-2.0,0.0,2.0,-8.0,2.0,-1.0,0.38604736328125,0.69903564453125,-0.59722900390625,-0.0750732421875,-0.36474609375,-0.91455078125,-0.26904296875,-2.75,2.4375,1.8125
0.5350000000000004,-2.0,-1.0,-2.0,0.0,2.0,-8.0,2.0,-1.0,0.38604736328125,0.69903564453125,-0.59722900390625,-0.0750732421875,-0.36474609375,-0.91455078125,-0.26904296875,-2.75,2.4375,1.8125
0.5400000000000004,-2.0,-1.0,-2.0,0.0,2.0,-8.0,2.0,-1.0,0.38604736328125,0.69903564453125,-0.59722900390625,-0.0750732421875,-0.36474609375,-0.91455078125,-0.26904296875,-2.75,2.4375,1.8125
0.5450000000000004,-2.0,0.0,0.0,0.0,-3.0,-3.0,-4.0,-3.0,0.38653564453125,0.69903564453125,-0.59686279296875,-0.074951171875,-0.3681640625,-0.91357421875,-0.27685546875,-2.25,2.0625,1.875
0.5500000000000004,-2.0,0.0,0.0,0.0,-3.0,-3.0,-4.0,-3.0,0.38653564453125,0.69903564453125,-0.59686279296875,-0.074951171875,-0.3681640625,-0.91357421875,-0.27685546875,-2.25,2.0625,1.875
0.5550000000000004,-2.0,0.0,0.0,0.0,-3.0,-3.0,-4.0,-3.0,0.38653564453125,0.69903564453125,-0.59686279296875,-0.074951171875,-0.3681640625,-0.91357421875,-0.27685546875,-2.25,2.0625,1.875
0.5600000000000004,-1.0,-3.0,-2.0,-2.0,-1.0,-5.0,-4.0,0.0,0.38653564453125,0.69903564453125,-0.59686279296875,-0.074951171875,-0.3681640625,-0.91357421875,-0.27685546875,-2.25,2.0625,1.875
0.5650000000000004,-1.0,-3.0,-2.0,-2.0,-1.0,-5.0,-4.0,0.0,0.38653564453125,0.69903564453125,-0.59686279296875,-0.074951171875,-0.3681640625,-0.91357421875,-0.27685546875,-2.25,2.0625,1.875
0.5700000000000004,0.0,-2.0,-2.0,-3.0,-3.0,-2.0,0.0,-2.0,0.38702392578125,0.69903564453125,-0.59661865234375,-0.07476806640625,-0.37451171875,-0.91015625,-0.279296875,-1.875,1.875,1.875
0.5750000000000004,0.0,-2.0,-2.0,-3.0,-3.0,-2.0,0.0,-2.0,0.38702392578125,0.69903564453125,-0.59661865234375,-0.07476806640625,-0.37451171875,-0.91015625,-0.279296875,-1.875,1.875,1.875
0.5800000000000004,0.0,-2.0,-2.0,-3.0,-3.0,-2.0,0.0,-2.0,0.38702392578125,0.69903564453125,-0.59661865234375,-0.07476806640625,-0.37451171875,-0.91015625,-0.279296875,-1.875,1.875,1.875
0.5850000000000004,0.0,-2.0,-2.0,-3.0,-3.0,-2.0,0.0,-2.0,0.38702392578125,0.69903564453125,-0.59661865234375,-0.07476806640625,-0.37451171875,-0.91015625,-0.279296875,-1.875,1.875,1.875
0.5900000000000004,-1.0,-1.0,-1.0,-2.0,-11.0,1.0,-2.0,-2.0,0.38702392578125,0.69903564453125,-0.59661865234375,-0.07476806640625,-0.37451171875,-0.91015625,-0.279296875,-1.875,1.875,1.875
0.5950000000000004,-1.0,-1.0,-2.0,1.0,-2.0,-2.0,-4.0,-1.0,0.387451171875,0.698974609375,-0.59637451171875,-0.07464599609375,-0.37451171875,-0.908203125,-0.27685546875,-1.625,1.6875,1.5
0.6000000000000004,-1.0,-1.0,-2.0,1.0,-2.0,-2.0,-4.0,-1.0,0.387451171875,0.698974609375,-0.59637451171875,-0.07464599609375,-0.37451171875,-0.908203125,-0.27685546875,-1.625,1.6875,1.5
0.6050000000000004,-1.0,0.0,2.0,1.0,7.0,4.0,-1.0,-1.0,0.387451171875,0.698974609375,-0.59637451171875,-0.07464599609375,-0.37451171875,-0.908203125,-0.27685546875,-1.625,1.6875,1.5
0.6100000000000004,-1.0,0.0,2.0,1.0,7.0,4.0,-1.0,-1.0,0.387451171875,0.698974609375,-0.59637451171875,-0.07464599609375,-0.37451171875,-0.908203125,-0.27685546875,-1.625,1.6875,1.5
0.6150000000000004,-1.0,0.0,2.0,1.0,7.0,4.0,-1.0,-1.0,0.3878173828125,0.69903564453125,-0.59613037109375,-0.07464599609375,-0.37158203125,-0.9052734375,-0.28564453125,-1.3125,1.75,0.8125
0.6200000000000004,-1.0,0.0,2.0,1.0,7.0,4.0,-1.0,-1.0,0.3878173828125,0.69903564453125,-0.59613037109375,-0.07464599609375,-0.37158203125,-0.9052734375,-0.28564453125,-1.3125,1.75,0.8125
0.6250000000000004,-1.0,1.0,-1.0,-5.0,-15.0,-13.0,-1.0,-3.0,0.3878173828125,0.69903564453125,-0.59613037109375,-0.07464599609375,-0.37158203125,-0.9052734375,-0.28564453125,-1.3125,1.75,0.8125
0.6300000000000004,-1.0,1.0,-1.0,-5.0,-15.0,-13.0,-1.0,-3.0,0.3878173828125,0.69903564453125,-0.59613037109375,-0.07464599609375,-0.37158203125,-0.9052734375,-0.28564453125,-1.3125,1.75,0.8125
0.6350000000000005,-1.0,-2.0,-3.0,0.0,1.0,0.0,0.0,-1.0,0.38812255859375,0.69903564453125,-0.59588623046875,-0.07470703125,-0.37060546875,-0.904296875,-0.28369140625,-0.9375,1.8125,0.3125
0.6400000000000005,-1.0,-2.0,-3.0,0.0,1.0,0.0,0.0,-1.0,0.38812255859375,0.69903564453125,-0.59588623046875,-0.07470703125,-0.37060546875,-0.904296875,-0.28369140625,-0.9375,1.8125,0.3125
0.6450000000000005,-1.0,-2.0,-3.0,0.0,1.0,0.0,0.0,-1.0,0.38812255859375,0.69903564453125,-0.59588623046875,-0.07470703125,-0.37060546875,-0.904296875,-0.28369140625,-0.9375,1.8125,0.3125
0.6500000000000005,-1.0,-2.0,-3.0,0.0,1.0,0.0,0.0,-1.0,0.38812255859375,0.69903564453125,-0.59588623046875,-0.07470703125,-0.37060546875,-0.904296875,-0.28369140625,-0.9375,1.8125,0.3125
0.6550000000000005,-1.0,-3.0,-2.0,-3.0,1.0,-3.0,-2.0,-1.0,0.38812255859375,0.69903564453125,-0.59588623046875,-0.07470703125,-0.37060546875,-0.904296875,-0.28369140625,-0.9375,1.8125,0.3125
0.6600000000000005,-1.0,-3.0,-2.0,-3.0,1.0,-3.0,-2.0,-1.0,0.3883056640625,0.69903564453125,-0.59576416015625,-0.07489013671875,-0.36572265625,-0.9091796875,-0.27734375,-0.5,1.9375,0.0
0.6650000000000005,-1.0,-3.0,-2.0,-3.0,1.0,-3.0,-2.0,-1.0,0.3883056640625,0.69903564453125,-0.59576416015625,-0.07489013671875,-0.36572265625,-0.9091796875,-0.27734375,-0.5,1.9375,0.0
0.6700000000000005,-1.0,-1.0,-1.0,-1.0,-3.0,-2.0,-1.0,-2.0,0.3883056640625,0.69903564453125,-0.59576416015625,-0.07489013671875,-0.36572265625,-0.9091796875,-0.27734375,-0.5,1.9375,0.0
0.6750000000000005,-1.0,-1.0,-1.0,-1.0,-3.0,-2.0,-1.0,-2.0,0.3883056640625,0.69903564453125,-0.59576416015625,-0.07489013671875,-0.36572265625,-0.9091796875,-0.27734375,-0.5,1.9375,0.0
0.6800000000000005,-1.0,0.0,-3.0,-1.0,-2.0,-2.0,4.0,0.0,0.3883056640625,0.69903564453125,-0.59576416015625,-0.07489013671875,-0.36572265625,-0.9091796875,-0.27734375,-0.5,1.9375,0.0
0.6850000000000005,-1.0,0.0,-3.0,-1.0,-2.0,-2.0,4.0,0.0,0.38848876953125,0.69903564453125,-0.59564208984375,-0.07501220703125,-0.3642578125,-0.90673828125,-0.28515625,-0.4375,1.375,0.1875
0.6900000000000005,-1.0,0.0,-3.0,-1.0,-2.0,-2.0,4.0,0.0,0.38848876953125,0.69903564453125,-0.59564208984375,-0.07501220703125,-0.3642578125,-0.90673828125,-0.28515625,-0.4375,1.375,0.1875
0.6950000000000005,-1.0,0.0,-3.0,-1.0,-2.0,-2.0,4.0,0.0,0.38848876953125,0.69903564453125,-0.59564208984375,-0.07501220703125,-0.3642578125,-0.90673828125,-0.28515625,-0.4375,1.375,0.1875
0.7000000000000005,-2.0,0.0,-2.0,-1.0,1.0,6.0,2.0,-1.0,0.38848876953125,0.69903564453125,-0.59564208984375,-0.07501220703125,-0.3642578125,-0.90673828125,-0.28515625,-0.4375,1.375,0.1875
0.7050000000000005,-2.0,0.0,-2.0,-1.0,1.0,6.0,2.0,-1.0,0.38848876953125,0.69903564453125,-0.59564208984375,-0.07501220703125,-0.3642578125,-0.90673828125,-0.28515625,-0.4375,1.375,0.1875
0.7100000000000005,-2.0,0.0,-1.0,0.0,3.0,0.0,-5.0,0.0,0.38848876953125,0.69903564453125,-0.59564208984375,-0.07501220703125,-0.3642578125,-0.90673828125,-0.28515625,-0.4375,1.375,0.1875
0.7150000000000005,-2.0,0.0,-1.0,0.0,3.0,0.0,-5.0,0.0,0.388671875,0.698974609375,-0.5955810546875,-0.0750732421875,-0.3671875,-0.912109375,-0.28271484375,-0.375,1.125,0.4375
0.7200000000000005,-2.0,0.0,-1.0,0.0,3.0,0.0,-5.0,0.0,0.388671875,0.698974609375,-0.5955810546875,-0.0750732421875,-0.3671875,-0.912109375,-0.28271484375,-0.375,1.125,0.4375
0.7250000000000005,-2.0,0.0,-1.0,0.0,3.0,0.0,-5.0,0.0,0.388671875,0.698974609375,-0.5955810546875,-0.0750732421875,-0.3671875,-0.912109375,-0.28271484375,-0.375,1.125,0.4375
0.7300000000000005,-1.0,-2.0,-1.0,-3.0,-4.0,-5.0,0.0,-1.0,0.388671875,0.698974609375,-0.5955810546875,-0.0750732421875,-0.3671875,-0.912109375,-0.28271484375,-0.375,1.125,0.4375
0.7350000000000005,-1.0,-2.0,-1.0,-3.0,-4.0,-5.0,0.0,-1.0,0.388671875,0.698974609375,-0.5955810546875,-0.0750732421875,-0.3671875,-0.912109375,-0.28271484375,-0.375,1.125,0.4375
0.7400000000000005,-1.0,-2.0,-1.0,-3.0,-4.0,-5.0,0.0,-1.0,0.388671875,0.698974609375,-0.5955810546875,-0.0750732421875,-0.3671875,-0.912109375,-0.28271484375,-0.375,1.125,0.4375
0.7450000000000006,-1.0,-2.0,-1.0,-3.0,-4.0,-5.0,0.0,-1.0,0.388671875,0.698974609375,-0.5955810546875,-0.0750732421875,-0.3671875,-0.912109375,-0.28271484375,-0.375,1.125,0.4375
0.7500000000000006,-1.0,-2.0,-1.0,-3.0,-4.0,-5.0,0.0,-1.0,0.388671875,0.698974609375,-0.5955810546875,-0.0750732421875,-0.3671875,-0.912109375,-0.28271484375,-0.375,1.125,0.4375
0.7550000000000006,-2.0,-2.0,-1.0,1.0,0.0,1.0,-4.0,-2.0,0.38885498046875,0.69891357421875,-0.595458984375,-0.07513427734375,-0.3701171875,-0.91357421875,-0.27490234375,-0.8125,1.375,0.5625
0.7600000000000006,-2.0,-2.0,-1.0,1.0,0.0,1.0,-4.0,-2.0,0.38885498046875,0.69891357421875,-0.595458984375,-0.07513427734375,-0.3701171875,-0.91357421875,-0.27490234375,-0.8125,1.375,0.5625
0.7650000000000006,0.0,-2.0,0.0,0.0,0.0,1.0,2.0,-1.0,0.3890380859375,0.69903564453125,-0.59527587890625,-0.0751953125,-0.3662109375,-0.9091796875,-0.28125,-1.3125,1.4375,0.0
0.7700000000000006,0.0,-2.0,0.0,0.0,0.0,1.0,2.0,-1.0,0.3890380859375,0.69903564453125,-0.59527587890625,-0.0751953125,-0.3662109375,-0.9091796875,-0.28125,-1.3125,1.4375,0.0
0.7750000000000006,0.0,-2.0,0.0,0.0,0.0,1.0,2.0,-1.0,0.3890380859375,0.69903564453125,-0.59527587890625,-0.0751953125,-0.3662109375,-0.9091796875,-0.28125,-1.3125,1.4375,0.0
0.7800000000000006,0.0,-1.0,-2.0,-1.0,-6.0,-9.0,-3.0,0.0,0.3890380859375,0.69903564453125,-0.59527587890625,-0.0751953125,-0.3662109375,-0.9091796875,-0.28125,-1.3125,1.4375,0.0
0.7850000000000006,0.0,-1.0,-2.0,-1.0,-6.0,-9.0,-3.0,0.0,0.3890380859375,0.69903564453125,-0.59527587890625,-0.0751953125,-0.3662109375,-0.9091796875,-0.28125,-1.3125,1.4375,0.0
0.7900000000000006,0.0,-1.0,-2.0,-1.0,-6.0,-9.0,-3.0,0.0,0.3890380859375,0.69903564453125,-0.59527587890625,-0.0751953125,-0.3662109375,-0.9091796875,-0.28125,-1.3125,1.4375,0.0
0.7950000000000006,-1.0,-1.0,-2.0,0.0,1.0,-2.0,0.0,-3.0,0.38916015625,0.69915771484375,-0.59503173828125,-0.0751953125,-0.369140625,-0.90966796875,-0.28515625,-1.8125,1.0,0.0
0.8000000000000006,-1.0,-1.0,-2.0,0.0,1.0,-2.0,0.0,-3.0,0.38916015625,0.69915771484375,-0.59503173828125,-0.0751953125,-0.369140625,-0.90966796875,-0.28515625,-1.8125,1.0,0.0
0.8050000000000006,-1.0,-1.0,-2.0,0.0,1.0,-2.0,0.0,-3.0,0.38916015625,0.69915771484375,-0.59503173828125,-0.0751953125,-0.369140625,-0.90966796875,-0.28515625,-1.8125,1.0,0.0
0.8100000000000006,-1.0,-1.0,-2.0,0.0,1.0,-2.0,0.0,-3.0,0.38916015625,0.69915771484375,-0.59503173828125,-0.0751953125,-0.369140625,-0.90966796875,-0.28515625,-1.8125,1.0,0.0
0.8150000000000006,1.0,1.0,-1.0,0.0,3.0,10.0,0.0,-1.0,0.38916015625,0.69915771484375,-0.59503173828125,-0.0751953125,-0.369140625,-0.90966796875,-0.28515625,-1.8125,1.0,0.0
0.8200000000000006,1.0,1.0,-1.0,0.0,3.0,10.0,0.0,-1.0,0.3892822265625,0.69927978515625,-0.59478759765625,-0.07525634765625,-0.36376953125,-0.90771484375,-0.2880859375,-1.25,1.0625,0.125
0.8250000000000006,1.0,1.0,-1.0,0.0,3.0,10.0,0.0,-1.0,0.3892822265625,0.69927978515625,-0.59478759765625,-0.07525634765625,-0.36376953125,-0.90771484375,-0.2880859375,-1.25,1.0625,0.125
0.8300000000000006,-1.0,-1.0,-1.0,0.0,2.0,-7.0,-7.0,-3.0,0.3892822265625,0.69927978515625,-0.59478759765625,-0.07525634765625,-0.36376953125,-0.90771484375,-0.2880859375,-1.25,1.0625,0.125
0.8350000000000006,-1.0,-1.0,-1.0,0.0,2.0,-7.0,-7.0,-3.0,0.3892822265625,0.69927978515625,-0.59478759765625,-0.07525634765625,-0.36376953125,-0.90771484375,-0.2880859375,-1.25,1.0625,0.125
0.8400000000000006,-1.0,-2.0,-2.0,-3.0,-5.0,-8.0,-3.0,0.0,0.3892822265625,0.69927978515625,-0.59478759765625,-0.07525634765625,-0.36376953125,-0.90771484375,-0.2880859375,-1.25,1.0625,0.125
0.8450000000000006,-1.0,-2.0,-2.0,-3.0,-5.0,-8.0,-3.0,0.0,0.389404296875,0.6993408203125,-0.5946044921875,-0.07525634765625,-0.3623046875,-0.908203125,-0.28369140625,-1.1875,0.9375,0.3125
0.8500000000000006,-1.0,-2.0,-2.0,-3.0,-5.0,-8.0,-3.0,0.0,0.389404296875,0.6993408203125,-0.5946044921875,-0.07525634765625,-0.3623046875,-0.908203125,-0.28369140625,-1.1875,0.9375,0.3125
0.8550000000000006,-1.0,-2.0,-2.0,-3.0,-5.0,-8.0,-3.0,0.0,0.389404296875,0.6993408203125,-0.5946044921875,-0.07525634765625,-0.3623046875,-0.908203125,-0.28369140625,-1.1875,0.9375,0.3125
0.8600000000000007,1.0,-1.0,0.0,-2.0,4.0,20.0,1.0,0.0,0.389404296875,0.6993408203125,-0.5946044921875,-0.07525634765625,-0.3623046875,-0.908203125,-0.28369140625,-1.1875,0.9375,0.3125
0.8650000000000007,1.0,-1.0,0.0,-2.0,4.0,20.0,1.0,0.0,0.389404296875,0.6993408203125,-0.5946044921875,-0.07525634765625,-0.3623046875,-0.908203125,-0.28369140625,-1.1875,0.9375,0.3125
0.8700000000000007,-2.0,-1.0,-1.0,-2.0,-5.0,-1.0,-5.0,-2.0,0.38958740234375,0.69927978515625,-0.5946044921875,-0.0751953125,-0.36572265625,-0.91162109375,-0.27978515625,-0.8125,0.625,1.125
0.8750000000000007,-2.0,-1.0,-1.0,-2.0,-5.0,-1.0,-5.0,-2.0,0.38958740234375,0.69927978515625,-0.5946044921875,-0.0751953125,-0.36572265625,-0.91162109375,-0.27978515625,-0.8125,0.625,1.125
0.8800000000000007,-2.0,-1.0,-1.0,-2.0,-5.0,-1.0,-5.0,-2.0,0.38958740234375,0.69927978515625,-0.5946044921875,-0.0751953125,-0.36572265625,-0.91162109375,-0.27978515625,-0.8125,0.625,1.125
0.8850000000000007,-2.0,-1.0,-1.0,-2.0,-5.0,-1.0,-5.0,-2.0,0.38958740234375,0.69927978515625,-0.5946044921875,-0.0751953125,-0.36572265625,-0.91162109375,-0.27978515625,-0.8125,0.625,1.125
0.8900000000000007,-1.0,-1.0,-2.0,-1.0,5.0,-3.0,-1.0,-2.0,0.38958740234375,0.69927978515625,-0.5946044921875,-0.0751953125,-0.36572265625,-0.91162109375,-0.27978515625,-0.8125,0.625,1.125
0.8950000000000007,-1.0,-1.0,-2.0,-1.0,5.0,-3.0,-1.0,-2.0,0.389892578125,0.6993408203125,-0.5943603515625,-0.074951171875,-0.37060546875,-0.9052734375,-0.2890625,-1.4375,0.5625,1.25
0.9000000000000007,-1.0,-1.0,-2.0,-1.0,5.0,-3.0,-1.0,-2.0,0.389892578125,0.6993408203125,-0.5943603515625,-0.074951171875,-0.37060546875,-0.9052734375,-0.2890625,-1.4375,0.5625,1.25
0.9050000000000007,-1.0,-2.0,-2.0,-2.0,-4.0,-8.0,-6.0,-2.0,0.389892578125,0.6993408203125,-0.5943603515625,-0.074951171875,-0.37060546875,-0.9052734375,-0.2890625,-1.4375,0.5625,1.25
0.9100000000000007,-1.0,-2.0,-2.0,-2.0,-4.0,-8.0,-6.0,-2.0,0.389892578125,0.6993408203125,-0.5943603515625,-0.074951171875,-0.37060546875,-0.9052734375,-0.2890625,-1.4375,0.5625,1.25
0.9150000000000007,0.0,-1.0,0.0,1.0,-1.0,11.0,5.0,3.0,0.39013671875,0.69940185546875,-0.59417724609375,-0.07476806640625,-0.37060546875,-0.90673828125,-0.28564453125,-1.8125,0.6875,1.0
0.9200000000000007,0.0,-1.0,0.0,1.0,-1.0,11.0,5.0,3.0,0.39013671875,0.69940185546875,-0.59417724609375,-0.07476806640625,-0.37060546875,-0.90673828125,-0.28564453125,-1.8125,0.6875,1.0
0.9250000000000007,0.0,-1.0,0.0,1.0,-1.0,11.0,5.0,3.0,0.39013671875,0.69940185546875,-0.59417724609375,-0.07476806640625,-0.37060546875,-0.90673828125,-0.28564453125,-1.8125,0.6875,1.0
0.9300000000000007,-2.0,-1.0,-2.0,-2.0,0.0,-6.0,-1.0,-1.0,0.39013671875,0.69940185546875,-0.59417724609375,-0.07476806640625,-0.37060546875,-0.90673828125,-0.28564453125,-1.8125,0.6875,1.0
0.9350000000000007,-2.0,-1.0,-2.0,-2.0,0.0,-6.0,-1.0,-1.0,0.39013671875,0.69940185546875,-0.59417724609375,-0.07476806640625,-0.37060546875,-0.90673828125,-0.28564453125,-1.8125,0.6875,1.0
0.9400000000000007,-1.0,-2.0,-2.0,-3.0,-4.0,-7.0,-7.0,-2.0,0.39031982421875,0.6993408203125,-0.59405517578125,-0.07476806640625,-0.3662109375,-0.908203125,-0.28369140625,-0.9375,0.8125,1.0
0.9450000000000007,-1.0,-2.0,-2.0,-3.0,-4.0,-7.0,-7.0,-2.0,0.39031982421875,0.6993408203125,-0.59405517578125,-0.07476806640625,-0.3662109375,-0.908203125,-0.28369140625,-0.9375,0.8125,1.0
0.9500000000000007,-1.0,-1.0,0.0,1.0,-3.0,-7.0,-1.0,0.0,0.39031982421875,0.6993408203125,-0.59405517578125,-0.07476806640625,-0.3662109375,-0.908203125,-0.28369140625,-0.9375,0.8125,1.0
0.9550000000000007,-1.0,-1.0,0.0,1.0,-3.0,-7.0,-1.0,0.0,0.39031982421875,0.6993408203125,-0.59405517578125,-0.07476806640625,-0.3662109375,-0.908203125,-0.28369140625,-0.9375,0.8125,1.0
0.9600000000000007,0.0,-1.0,-1.0,-2.0,-1.0,3.0,3.0,-1.0,0.390625,0.6993408203125,-0.59393310546875,-0.07470703125,-0.3681640625,-0.9091796875,-0.283203125,-1.0625,1.125,1.25
0.9650000000000007,0.0,-1.0,-1.0,-2.0,-1.0,3.0,3.0,-1.0,0.390625,0.6993408203125,-0.59393310546875,-0.07470703125,-0.3681640625,-0.9091796875,-0.283203125,-1.0625,1.125,1.25
0.9700000000000008,-1.0,0.0,0.0,0.0,-6.0,-5.0,-1.0,-3.0,0.390625,0.6993408203125,-0.59393310546875,-0.07470703125,-0.3681640625,-0.9091796875,-0.283203125,-1.0625,1.125,1.25
0.9750000000000008,-2.0,-3.0,-4.0,-1.0,-2.0,-8.0,-7.0,-3.0,0.390625,0.6993408203125,-0.59393310546875,-0.07470703125,-0.3681640625,-0.9091796875,-0.283203125,-1.0625,1.125,1.25
0.9800000000000008,0.0,1.0,-1.0,-4.0,-8.0,9.0,0.0,0.0,0.390625,0.6993408203125,-0.59393310546875,-0.07470703125,-0.3681640625,-0.9091796875,-0.283203125,-1.0625,1.125,1.25
0.9850000000000008,0.0,1.0,-1.0,-4.0,-8.0,9.0,0.0,0.0,0.390869140625,0.69927978515625,-0.59381103515625,-0.07452392578125,-0.373046875,-0.90576171875,-0.28564453125,-1.25,1.0,1.1875
0.9900000000000008,0.0,1.0,-1.0,-4.0,-8.0,9.0,0.0,0.0,0.390869140625,0.69927978515625,-0.59381103515625,-0.07452392578125,-0.373046875,-0.90576171875,-0.28564453125,-1.25,1.0,1.1875
0.9950000000000008,0.0,-2.0,-1.0,-1.0,3.0,6.0,0.0,-1.0,0.390869140625,0.69927978515625,-0.59381103515625,-0.07452392578125,-0.373046875,-0.90576171875,-0.28564453125,-1.25,1.0,1.1875
1.0000000000000007,-2.0,-2.0,-2.0,1.0,0.0,-2.0,-1.0,-1.0,0.390869140625,0.69927978515625,-0.59381103515625,-0.07452392578125,-0.373046875,-0.90576171875,-0.28564453125,-1.25,1.0,1.1875
1.0050000000000006,0.0,-3.0,0.0,-1.0,-1.0,-4.0,-1.0,-2.0,0.390869140625,0.69927978515625,-0.59381103515625,-0.07452392578125,-0.373046875,-0.90576171875,-0.28564453125,-1.25,1.0,1.1875
1.0100000000000005,0.0,-3.0,0.0,-1.0,-1.0,-4.0,-1.0,-2.0,0.390869140625,0.69927978515625,-0.59381103515625,-0.07452392578125,-0.3720703125,-0.90966796875,-0.279296875,-0.875,0.6875,0.75
1.0150000000000003,0.0,-3.0,0.0,-1.0,-1.0,-4.0,-1.0,-2.0,0.390869140625,0.69927978515625,-0.59381103515625,-0.07452392578125,-0.3720703125,-0.90966796875,-0.279296875,-0.875,0.6875,0.75
1.0200000000000002,-1.0,-1.0,-1.0,-2.0,1.0,1.0,0.0,0.0,0.390869140625,0.69927978515625,-0.59381103515625,-0.07452392578125,-0.3720703125,-0.90966796875,-0.279296875,-0.875,0.6875,0.75
1.0250000000000001,-2.0,-1.0,-2.0,-2.0,-2.0,-6.0,-4.0,-2.0,0.390869140625,0.69927978515625,-0.59381103515625,-0.07452392578125,-0.3720703125,-0.90966796875,-0.279296875,-0.875,0.6875,0.75
1.03,-2.0,-1.0,-1.0,-1.0,8.0,8.0,0.0,-2.0,0.390869140625,0.69927978515625,-0.59381103515625,-0.07452392578125,-0.3720703125,-0.90966796875,-0.279296875,-0.875,0.6875,0.75
1.035,-2.0,-1.0,-1.0,-1.0,8.0,8.0,0.0,-2.0,0.390869140625,0.69927978515625,-0.59381103515625,-0.07452392578125,-0.3720703125,-0.90966796875,-0.279296875,-0.875,0.6875,0.75
1.0399999999999998,1.0,0.0,0.0,-1.0,0.0,4.0,1.0,1.0,0.390869140625,0.69927978515625,-0.5938720703125,-0.07452392578125,-0.3740234375,-0.90673828125,-0.28076171875,-0.625,0.4375,0.3125
1.0449999999999997,1.0,0.0,0.0,-1.0,0.0,4.0,1.0,1.0,0.390869140625,0.69927978515625,-0.5938720703125,-0.07452392578125,-0.3740234375,-0.90673828125,-0.28076171875,-0.625,0.4375,0.3125
1.0499999999999996,-2.0,-2.0,-2.0,-2.0,-4.0,-11.0,-5.0,-1.0,0.390869140625,0.69927978515625,-0.5938720703125,-0.07452392578125,-0.3740234375,-0.90673828125,-0.28076171875,-0.625,0.4375,0.3125
1.0549999999999995,-2.0,-2.0,-2.0,-2.0,-4.0,-11.0,-5.0,-1.0,0.390869140625,0.69927978515625,-0.5938720703125,-0.07452392578125,-0.3740234375,-0.90673828125,-0.28076171875,-0.625,0.4375,0.3125
1.0599999999999994,-2.0,-2.0,-2.0,-2.0,-4.0,-11.0,-5.0,-1.0,0.390869140625,0.69927978515625,-0.5938720703125,-0.07452392578125,-0.3720703125,-0.904296875,-0.28515625,-0.6875,0.125,0.125
1.0649999999999993,-1.0,-2.0,-1.0,0.0,0.0,0.0,-3.0,-3.0,0.390869140625,0.69927978515625,-0.5938720703125,-0.07452392578125,-0.3720703125,-0.904296875,-0.28515625,-0.6875,0.125,0.125
1.0699999999999992,-1.0,-2.0,-1.0,0.0,0.0,0.0,-3.0,-3.0,0.390869140625,0.69927978515625,-0.5938720703125,-0.07452392578125,-0.3720703125,-0.904296875,-0.28515625,-0.6875,0.125,0.125
1.074999999999999,0.0,-1.0,-2.0,-3.0,-2.0,-4.0,2.0,0.0,0.390869140625,0.69927978515625,-0.5938720703125,-0.07452392578125,-0.3720703125,-0.904296875,-0.28515625,-0.6875,0.125,0.125
1.079999999999999,0.0,-1.0,-2.0,-3.0,-2.0,-4.0,2.0,0.0,0.39093017578125,0.6993408203125,-0.59375,-0.074462890625,-0.36767578125,-0.9111328125,-0.28662109375,-1.125,0.125,0.1875
1.0849999999999989,0.0,-1.0,-2.0,-3.0,-2.0,-4.0,2.0,0.0,0.39093017578125,0.6993408203125,-0.59375,-0.074462890625,-0.36767578125,-0.9111328125,-0.28662109375,-1.125,0.125,0.1875
1.0899999999999987,-1.0,-2.0,-1.0,1.0,0.0,5.0,0.0,-1.0,0.39093017578125,0.6993408203125,-0.59375,-0.074462890625,-0.36767578125,-0.9111328125,-0.28662109375,-1.125,0.125,0.1875
1.0949999999999986,-1.0,-2.0,-1.0,1.0,0.0,5.0,0.0,-1.0,0.39093017578125,0.6993408203125,-0.59375,-0.074462890625,-0.36767578125,-0.9111328125,-0.28662109375,-1.125,0.125,0.1875
1.0999999999999985,-2.0,-1.0,0.0,-1.0,-1.0,-3.0,-6.0,-2.0,0.39093017578125,0.6993408203125,-0.59375,-0.074462890625,-0.3671875,-0.90185546875,-0.28662109375,-0.1875,0.0,0.0625
1.1049999999999984,1.0,-1.0,-1.0,-1.0,-1.0,-2.0,4.0,0.0,0.39093017578125,0.6993408203125,-0.59375,-0.074462890625,-0.3671875,-0.90185546875,-0.28662109375,-0.1875,0.0,0.0625
1.1099999999999983,1.0,-1.0,-1.0,-1.0,-1.0,-2.0,4.0,0.0,0.39093017578125,0.6993408203125,-0.59375,-0.074462890625,-0.3671875,-0.90185546875,-0.28662109375,-0.1875,0.0,0.0625
1.1149999999999982,0.0,-2.0,-2.0,0.0,0.0,4.0,-1.0,-1.0,0.39093017578125,0.6993408203125,-0.59375,-0.074462890625,-0.3671875,-0.90185546875,-0.28662109375,-0.1875,0.0,0.0625
1.119999999999998,-3.0,-3.0,-1.0,-2.0,-3.0,-8.0,-1.0,-2.0,0.39093017578125,0.6993408203125,-0.59375,-0.074462890625,-0.3671875,-0.90185546875,-0.28662109375,-0.1875,0.0,0.0625
1.124999999999998,-3.0,-3.0,-1.0,-2.0,-3.0,-8.0,-1.0,-2.0,0.39093017578125,0.6993408203125,-0.59375,-0.074462890625,-0.3681640625,-0.89794921875,-0.28857421875,-0.5625,-0.0625,0.4375
1.129999999999998,-3.0,-3.0,-1.0,-2.0,-3.0,-8.0,-1.0,-2.0,0.39093017578125,0.6993408203125,-0.59375,-0.074462890625,-0.3681640625,-0.89794921875,-0.28857421875,-0.5625,-0.0625,0.4375
1.1349999999999978,-1.0,-1.0,3.0,1.0,3.0,6.0,2.0,3.0,0.39093017578125,0.6993408203125,-0.59375,-0.074462890625,-0.3681640625,-0.89794921875,-0.28857421875,-0.5625,-0.0625,0.4375
1.1399999999999977,-2.0,-1.0,-1.0,0.0,-5.0,-7.0,-2.0,-1.0,0.39093017578125,0.6993408203125,-0.59375,-0.074462890625,-0.3681640625,-0.89794921875,-0.28857421875,-0.5625,-0.0625,0.4375
1.1449999999999976,-2.0,-1.0,-1.0,0.0,-5.0,-7.0,-2.0,-1.0,0.39093017578125,0.6993408203125,-0.59375,-0.074462890625,-0.36865234375,-0.9091796875,-0.29052734375,-1.0,0.0,0.0625
1.1499999999999975,-2.0,-1.0,-1.0,0.0,-5.0,-7.0,-2.0,-1.0,0.39093017578125,0.6993408203125,-0.59375,-0.074462890625,-0.36865234375,-0.9091796875,-0.29052734375,-1.0,0.0,0.0625
1.1549999999999974,-2.0,-1.0,-1.0,0.0,-5.0,-7.0,-2.0,-1.0,0.39093017578125,0.6993408203125,-0.59375,-0.074462890625,-0.36865234375,-0.9091796875,-0.29052734375,-1.0,0.0,0.0625
1.1599999999999973,-1.0,-2.0,-3.0,-3.0,-3.0,-3.0,-5.0,-3.0,0.39093017578125,0.6993408203125,-0.59375,-0.074462890625,-0.36865234375,-0.9091796875,-0.29052734375,-1.0,0.0,0.0625
1.1649999999999971,-1.0,-2.0,-3.0,-3.0,-3.0,-3.0,-5.0,-3.0,0.39093017578125,0.6993408203125,-0.59375,-0.074462890625,-0.36865234375,-0.9091796875,-0.29052734375,-1.0,0.0,0.0625
1.169999999999997,-1.0,0.0,1.0,-3.0,-8.0,1.0,1.0,-1.0,0.39093017578125,0.6993408203125,-0.59375,-0.074462890625,-0.36474609375,-0.90966796875,-0.29345703125,-0.375,-0.0625,-0.25
1.174999999999997,-1.0,0.0,1.0,-3.0,-8.0,1.0,1.0,-1.0,0.39093017578125,0.6993408203125,-0.59375,-0.074462890625,-0.36474609375,-0.90966796875,-0.29345703125,-0.375,-0.0625,-0.25
1.1799999999999968,-1.0,0.0,1.0,-3.0,-8.0,1.0,1.0,-1.0,0.39093017578125,0.6993408203125,-0.59375,-0.074462890625,-0.36474609375,-0.90966796875,-0.29345703125,-0.375,-0.0625,-0.25
1.1849999999999967,-1.0,-1.0,-1.0,-1.0,4.0,5.0,6.0,0.0,0.39093017578125,0.6993408203125,-0.59375,-0.074462890625,-0.36474609375,-0.90869140625,-0.2880859375,0.5625,-0.25,-0.4375
1.1899999999999966,-1.0,-1.0,-1.0,-1.0,4.0,5.0,6.0,0.0,0.39093017578125,0.6993408203125,-0.59375,-0.074462890625,-0.36474609375,-0.90869140625,-0.2880859375,0.5625,-0.25,-0.4375
1.1949999999999965,-1.0,0.0,-1.0,0.0,-2.0,-4.0,-6.0,-2.0,0.39093017578125,0.6993408203125,-0.59375,-0.074462890625,-0.36474609375,-0.90869140625,-0.2880859375,0.5625,-0.25,-0.4375
1.1999999999999964,-1.0,0.0,-1.0,0.0,-2.0,-4.0,-6.0,-2.0,0.39093017578125,0.6993408203125,-0.59375,-0.074462890625,-0.36474609375,-0.90869140625,-0.2880859375,0.5625,-0.25,-0.4375
1.2049999999999963,0.0,-2.0,-2.0,-2.0,-2.0,-8.0,-2.0,-1.0,0.39093017578125,0.6993408203125,-0.59375,-0.074462890625,-0.36376953125,-0.90673828125,-0.28369140625,0.3125,-0.4375,-0.25
1.2099999999999962,0.0,-2.0,-2.0,-2.0,-2.0,-8.0,-2.0,-1.0,0.39093017578125,0.6993408203125,-0.59375,-0.074462890625,-0.36376953125,-0.90673828125,-0.28369140625,0.3125,-0.4375,-0.25
1.214999999999996,0.0,-2.0,-2.0,-2.0,-2.0,-8.0,-2.0,-1.0,0.39093017578125,0.6993408203125,-0.59375,-0.074462890625,-0.36376953125,-0.90673828125,-0.28369140625,0.3125,-0.4375,-0.25
1.219999999999996,0.0,-2.0,-2.0,-2.0,-2.0,-8.0,-2.0,-1.0,0.39093017578125,0.6993408203125,-0.59375,-0.074462890625,-0.36376953125,-0.90673828125,-0.28369140625,0.3125,-0.4375,-0.25
1.2249999999999959,-2.0,-1.0,-2.0,-2.0,-2.0,-1.0,-2.0,0.0,0.39093017578125,0.6993408203125,-0.59375,-0.074462890625,-0.36376953125,-0.90673828125,-0.28369140625,0.3125,-0.4375,-0.25
1.2299999999999958,-2.0,-1.0,-2.0,-2.0,-2.0,-1.0,-2.0,0.0,0.39093017578125,0.6993408203125,-0.59375,-0.074462890625,-0.36376953125,-0.90673828125,-0.28369140625,0.3125,-0.4375,-0.25
1.2349999999999957,-2.0,-2.0,-1.0,-1.0,4.0,4.0,-2.0,0.0,0.39093017578125,0.6993408203125,-0.59381103515625,-0.074462890625,-0.3681640625,-0.912109375,-0.28564453125,0.125,-0.625,0.3125
1.2399999999999956,-2.0,-2.0,-1.0,-1.0,4.0,4.0,-2.0,0.0,0.39093017578125,0.6993408203125,-0.59381103515625,-0.074462890625,-0.3681640625,-0.912109375,-0.28564453125,0.125,-0.625,0.3125
1.2449999999999954,-2.0,-2.0,-1.0,-1.0,4.0,4.0,-2.0,0.0,0.39093017578125,0.6993408203125,-0.59381103515625,-0.074462890625,-0.3681640625,-0.912109375,-0.28564453125,0.125,-0.625,0.3125
1.2499999999999953,-2.0,-1.0,-2.0,-1.0,1.0,-4.0,-3.0,-3.0,0.39093017578125,0.6993408203125,-0.59381103515625,-0.074462890625,-0.3681640625,-0.912109375,-0.28564453125,0.125,-0.625,0.3125
1.2549999999999952,-3.0,-1.0,-1.0,-2.0,-2.0,-3.0,0.0,0.0,0.39093017578125,0.6993408203125,-0.59381103515625,-0.074462890625,-0.3681640625,-0.912109375,-0.28564453125,0.125,-0.625,0.3125
1.2599999999999951,-3.0,-1.0,-1.0,-2.0,-2.0,-3.0,0.0,0.0,0.39093017578125,0.69927978515625,-0.59381103515625,-0.074462890625,-0.37255859375,-0.9013671875,-0.2841796875,0.375,-0.625,0.5625
1.264999999999995,-3.0,-1.0,-1.0,-2.0,-2.0,-3.0,0.0,0.0,0.39093017578125,0.69927978515625,-0.59381103515625,-0.074462890625,-0.37255859375,-0.9013671875,-0.2841796875,0.375,-0.625,0.5625
1.269999999999995,-1.0,-1.0,-1.0,0.0,0.0,-7.0,-4.0,-2.0,0.39093017578125,0.69927978515625,-0.59381103515625,-0.074462890625,-0.37255859375,-0.9013671875,-0.2841796875,0.375,-0.625,0.5625
1.2749999999999948,-1.0,-1.0,-1.0,0.0,0.0,-7.0,-4.0,-2.0,0.39093017578125,0.69927978515625,-0.59381103515625,-0.074462890625,-0.37255859375,-0.9013671875,-0.2841796875,0.375,-0.625,0.5625
1.2799999999999947,-1.0,1.0,0.0,-1.0,0.0,0.0,-4.0,-2.0,0.39093017578125,0.69927978515625,-0.59381103515625,-0.074462890625,-0.37451171875,-0.90185546875,-0.287109375,0.3125,-0.3125,0.5625
1.2849999999999946,-1.0,1.0,0.0,-1.0,0.0,0.0,-4.0,-2.0,0.39093017578125,0.69927978515625,-0.59381103515625,-0.074462890625,-0.37451171875,-0.90185546875,-0.287109375,0.3125,-0.3125,0.5625
1.2899999999999945,-1.0,1.0,0.0,-1.0,0.0,0.0,-4.0,-2.0,0.39093017578125,0.69927978515625,-0.59381103515625,-0.074462890625,-0.37451171875,-0.90185546875,-0.287109375,0.3125,-0.3125,0.5625
1.2949999999999944,-1.0,1.0,0.0,-1.0,0.0,0.0,-4.0,-2.0,0.39093017578125,0.69927978515625,-0.59381103515625,-0.074462890625,-0.37451171875,-0.90185546875,-0.287109375,0.3125,-0.3125,0.5625
1.2999999999999943,0.0,0.0,0.0,1.0,2.0,4.0,3.0,1.0,0.39093017578125,0.69927978515625,-0.59381103515625,-0.074462890625,-0.37451171875,-0.90185546875,-0.287109375,0.3125,-0.3125,0.5625
1.3049999999999942,0.0,0.0,0.0,1.0,2.0,4.0,3.0,1.0,0.39093017578125,0.69927978515625,-0.59381103515625,-0.074462890625,-0.37451171875,-0.90185546875,-0.287109375,0.3125,-0.3125,0.5625
1.309999999999994,-4.0,-3.0,-1.0,-3.0,-2.0,-8.0,-5.0,-3.0,0.39093017578125,0.69927978515625,-0.59381103515625,-0.07440185546875,-0.37890625,-0.908203125,-0.28515625,0.5,0.125,0.4375
1.314999999999994,-4.0,-3.0,-1.0,-3.0,-2.0,-8.0,-5.0,-3.0,0.39093017578125,0.69927978515625,-0.59381103515625,-0.07440185546875,-0.37890625,-0.908203125,-0.28515625,0.5,0.125,0.4375
1.3199999999999938,-4.0,-3.0,-1.0,-3.0,-2.0,-8.0,-5.0,-3.0,0.39093017578125,0.69927978515625,-0.59381103515625,-0.07440185546875,-0.37890625,-0.908203125,-0.28515625,0.5,0.125,0.4375
1.3249999999999937,-4.0,-3.0,-1.0,-3.0,-2.0,-8.0,-5.0,-3.0,0.39093017578125,0.69927978515625,-0.59381103515625,-0.07440185546875,-0.37890625,-0.908203125,-0.28515625,0.5,0.125,0.4375
1.3299999999999936,2.0,-1.0,-1.0,-2.0,2.0,0.0,1.0,0.0,0.39093017578125,0.69927978515625,-0.59381103515625,-0.07440185546875,-0.37890625,-0.908203125,-0.28515625,0.5,0.125,0.4375
1.3349999999999935,2.0,-1.0,-1.0,-2.0,2.0,0.0,1.0,0.0,0.39093017578125,0.69927978515625,-0.59381103515625,-0.07440185546875,-0.37890625,-0.908203125,-0.28515625,0.5,0.125,0.4375
1.3399999999999934,2.0,-1.0,-1.0,-2.0,2.0,0.0,1.0,0.0,0.39093017578125,0.69927978515625,-0.59381103515625,-0.07440185546875,-0.37890625,-0.908203125,-0.28515625,0.5,0.125,0.4375
1.3449999999999933,2.0,-1.0,-1.0,-2.0,2.0,0.0,1.0,0.0,0.39093017578125,0.69927978515625,-0.59381103515625,-0.07440185546875,-0.37939453125,-0.904296875,-0.28662109375,0.4375,0.3125,0.4375
1.3499999999999932,-1.0,-2.0,0.0,0.0,5.0,0.0,0.0,0.0,0.39093017578125,0.69927978515625,-0.59381103515625,-0.07440185546875,-0.37939453125,-0.904296875,-0.28662109375,0.4375,0.3125,0.4375
1.354999999999993,-3.0,-2.0,-3.0,-1.0,-2.0,3.0,-1.0,-1.0,0.39093017578125,0.69927978515625,-0.59381103515625,-0.07440185546875,-0.37939453125,-0.904296875,-0.28662109375,0.4375,0.3125,0.4375
1.359999999999993,-3.0,-2.0,-3.0,-1.0,-2.0,3.0,-1.0,-1.0,0.39093017578125,0.69921875,-0.5938720703125,-0.07440185546875,-0.37451171875,-0.90869140625,-0.2822265625,-0.5,0.4375,0.4375
1.3649999999999929,-3.0,-2.0,-3.0,-1.0,-2.0,3.0,-1.0,-1.0,0.39093017578125,0.69921875,-0.5938720703125,-0.07440185546875,-0.37451171875,-0.90869140625,-0.2822265625,-0.5,0.4375,0.4375
1.3699999999999928,-3.0,-2.0,-3.0,-1.0,-2.0,3.0,-1.0,-1.0,0.39093017578125,0.69921875,-0.5938720703125,-0.07440185546875,-0.37451171875,-0.90869140625,-0.2822265625,-0.5,0.4375,0.4375
1.3749999999999927,-1.0,-1.0,0.0,0.0,-2.0,-5.0,2.0,-1.0,0.39093017578125,0.69921875,-0.5938720703125,-0.07440185546875,-0.37451171875,-0.90869140625,-0.2822265625,-0.5,0.4375,0.4375
1.3799999999999926,-1.0,-1.0,0.0,0.0,-2.0,-5.0,2.0,-1.0,0.39093017578125,0.69921875,-0.5938720703125,-0.07440185546875,-0.37451171875,-0.90869140625,-0.2822265625,-0.5,0.4375,0.4375
1.3849999999999925,1.0,-2.0,0.0,-3.0,0.0,2.0,2.0,0.0,0.39111328125,0.69921875,-0.59381103515625,-0.07415771484375,-0.3798828125,-0.90625,-0.27490234375,-1.5,0.4375,0.5625
1.3899999999999924,1.0,-2.0,0.0,-3.0,0.0,2.0,2.0,0.0,0.39111328125,0.69921875,-0.59381103515625,-0.07415771484375,-0.3798828125,-0.90625,-0.27490234375,-1.5,0.4375,0.5625
1.3949999999999922,1.0,-2.0,0.0,-3.0,0.0,2.0,2.0,0.0,0.39111328125,0.69921875,-0.59381103515625,-0.07415771484375,-0.3798828125,-0.90625,-0.27490234375,-1.5,0.4375,0.5625
1.3999999999999921,1.0,-2.0,0.0,-3.0,0.0,2.0,2.0,0.0,0.39111328125,0.69921875,-0.59381103515625,-0.07415771484375,-0.3798828125,-0.90625,-0.27490234375,-1.5,0.4375,0.5625
1.404999999999992,0.0,-1.0,-3.0,-3.0,-13.0,4.0,-2.0,-2.0,0.39111328125,0.69921875,-0.59381103515625,-0.07415771484375,-0.3798828125,-0.90625,-0.27490234375,-1.5,0.4375,0.5625
1.409999999999992,-1.0,0.0,-2.0,-1.0,1.0,-3.0,-2.0,0.0,0.39111328125,0.69921875,-0.59381103515625,-0.07415771484375,-0.3798828125,-0.90625,-0.27490234375,-1.5,0.4375,0.5625
1.4149999999999918,-1.0,0.0,-2.0,-1.0,1.0,-3.0,-2.0,0.0,0.39111328125,0.69921875,-0.59381103515625,-0.07415771484375,-0.3759765625,-0.90869140625,-0.28662109375,-0.9375,0.375,0.375
1.4199999999999917,-1.0,0.0,-2.0,-1.0,1.0,-3.0,-2.0,0.0,0.39111328125,0.69921875,-0.59381103515625,-0.07415771484375,-0.3759765625,-0.90869140625,-0.28662109375,-0.9375,0.375,0.375
1.4249999999999916,-1.0,-1.0,1.0,1.0,3.0,4.0,0.0,-1.0,0.39111328125,0.69921875,-0.59381103515625,-0.07415771484375,-0.3759765625,-0.90869140625,-0.28662109375,-0.9375,0.375,0.375
1.4299999999999915,-1.0,-1.0,1.0,1.0,3.0,4.0,0.0,-1.0,0.39111328125,0.69921875,-0.59381103515625,-0.07415771484375,-0.3759765625,-0.90869140625,-0.28662109375,-0.9375,0.375,0.375
1.4349999999999914,0.0,-1.0,0.0,1.0,0.0,6.0,1.0,0.0,0.39111328125,0.69915771484375,-0.59381103515625,-0.07415771484375,-0.3701171875,-0.90185546875,-0.28662109375,-0.3125,0.625,0.375
1.4399999999999913,0.0,-1.0,0.0,1.0,0.0,6.0,1.0,0.0,0.39111328125,0.69915771484375,-0.59381103515625,-0.07415771484375,-0.3701171875,-0.90185546875,-0.28662109375,-0.3125,0.625,0.375
1.4449999999999912,0.0,-1.0,0.0,1.0,0.0,6.0,1.0,0.0,0.39111328125,0.69915771484375,-0.59381103515625,-0.07415771484375,-0.3701171875,-0.90185546875,-0.28662109375,-0.3125,0.625,0.375
1.449999999999991,0.0,-1.0,0.0,1.0,0.0,6.0,1.0,0.0,0.39111328125,0.69915771484375,-0.59381103515625,-0.07415771484375,-0.3701171875,-0.90185546875,-0.28662109375,-0.3125,0.625,0.375
1.454999999999991,1.0,-1.0,-1.0,-1.0,-4.0,-8.0,-3.0,-3.0,0.39111328125,0.69915771484375,-0.59381103515625,-0.07415771484375,-0.3701171875,-0.90185546875,-0.28662109375,-0.3125,0.625,0.375
1.4599999999999909,1.0,-1.0,-1.0,-1.0,-4.0,-8.0,-3.0,-3.0,0.39111328125,0.69915771484375,-0.59381103515625,-0.07415771484375,-0.3701171875,-0.90185546875,-0.28662109375,-0.3125,0.625,0.375
1.4649999999999908,-1.0,0.0,-1.0,-2.0,1.0,-3.0,3.0,1.0,0.39111328125,0.69915771484375,-0.5938720703125,-0.07415771484375,-0.37109375,-0.90673828125,-0.28857421875,-0.5625,0.625,0.4375
1.4699999999999906,-1.0,0.0,-1.0,-2.0,1.0,-3.0,3.0,1.0,0.39111328125,0.69915771484375,-0.5938720703125,-0.07415771484375,-0.37109375,-0.90673828125,-0.28857421875,-0.5625,0.625,0.4375
1.4749999999999905,-1.0,0.0,-1.0,-2.0,1.0,-3.0,3.0,1.0,0.39111328125,0.69915771484375,-0.5938720703125,-0.07415771484375,-0.37109375,-0.90673828125,-0.28857421875,-0.5625,0.625,0.4375
1.4799999999999904,-1.0,0.0,-1.0,-2.0,1.0,-3.0,3.0,1.0,0.39111328125,0.69915771484375,-0.5938720703125,-0.07415771484375,-0.37109375,-0.90673828125,-0.28857421875,-0.5625,0.625,0.4375
1.4849999999999903,-3.0,-1.0,-1.0,1.0,0.0,-5.0,1.0,0.0,0.39111328125,0.69915771484375,-0.5938720703125,-0.07415771484375,-0.37109375,-0.90673828125,-0.28857421875,-0.5625,0.625,0.4375
1.4899999999999902,-1.0,-1.0,-1.0,-2.0,-1.0,-4.0,-1.0,-1.0,0.39111328125,0.69915771484375,-0.5938720703125,-0.07415771484375,-0.3681640625,-0.90380859375,-0.2880859375,-0.4375,0.375,0.375
1.4949999999999901,-1.0,-1.0,-1.0,-2.0,-1.0,-4.0,-1.0,-1.0,0.39111328125,0.69915771484375,-0.5938720703125,-0.07415771484375,-0.3681640625,-0.90380859375,-0.2880859375,-0.4375,0.375,0.375
1.49999999999999,-1.0,-1.0,-1.0,-2.0,-1.0,-4.0,-1.0,-1.0,0.39111328125,0.69915771484375,-0.5938720703125,-0.07415771484375,-0.3681640625,-0.90380859375,-0.2880859375,-0.4375,0.375,0.375
1.50499999999999,-1.0,0.0,-1.0,-2.0,0.0,0.0,-4.0,-2.0,0.39111328125,0.69915771484375,-0.5938720703125,-0.07415771484375,-0.3681640625,-0.90380859375,-0.2880859375,-0.4375,0.375,0.375
1.5099999999999898,-2.0,-1.0,-1.0,-2.0,-3.0,-5.0,-7.0,-1.0,0.39111328125,0.69915771484375,-0.5938720703125,-0.07415771484375,-0.3701171875,-0.90283203125,-0.28662109375,-0.3125,0.1875,0.3125
1.5149999999999897,-2.0,-1.0,-1.0,-2.0,-3.0,-5.0,-7.0,-1.0,0.39111328125,0.69915771484375,-0.5938720703125,-0.07415771484375,-0.3701171875,-0.90283203125,-0.28662109375,-0.3125,0.1875,0.3125
1.5199999999999896,-2.0,-1.0,-1.0,-2.0,-3.0,-5.0,-7.0,-1.0,0.39111328125,0.69915771484375,-0.5938720703125,-0.07415771484375,-0.3701171875,-0.90283203125,-0.28662109375,-0.3125,0.1875,0.3125
1.5249999999999895,-2.0,-1.0,-1.0,-2.0,-3.0,-5.0,-7.0,-1.0,0.39111328125,0.69915771484375,-0.5938720703125,-0.07415771484375,-0.3701171875,-0.90283203125,-0.28662109375,-0.3125,0.1875,0.3125
1.5299999999999894,-2.0,-1.0,0.0,-1.0,-4.0,-20.0,2.0,-2.0,0.39111328125,0.69915771484375,-0.5938720703125,-0.07415771484375,-0.3701171875,-0.90283203125,-0.28662109375,-0.3125,0.1875,0.3125
1.5349999999999893,0.0,0.0,-3.0,-3.0,-12.0,-3.0,-1.0,-2.0,0.39111328125,0.69915771484375,-0.5938720703125,-0.07415771484375,-0.3701171875,-0.90283203125,-0.28662109375,-0.3125,0.1875,0.3125
1.5399999999999892,0.0,0.0,-3.0,-3.0,-12.0,-3.0,-1.0,-2.0,0.39111328125,0.69915771484375,-0.5938720703125,-0.07415771484375,-0.36669921875,-0.90283203125,-0.29248046875,0.625,-0.3125,0.0
1.544999999999989,0.0,0.0,-3.0,-3.0,-12.0,-3.0,-1.0,-2.0,0.39111328125,0.69915771484375,-0.5938720703125,-0.07415771484375,-0.36669921875,-0.90283203125,-0.29248046875,0.625,-0.3125,0.0
1.549999999999989,-1.0,-2.0,-3.0,1.0,2.0,-12.0,0.0,0.0,0.39111328125,0.69915771484375,-0.5938720703125,-0.07415771484375,-0.36669921875,-0.90283203125,-0.29248046875,0.625,-0.3125,0.0
1.5549999999999888,-2.0,-2.0,-1.0,-1.0,5.0,5.0,1.0,-1.0,0.39111328125,0.69915771484375,-0.5938720703125,-0.07415771484375,-0.36669921875,-0.90283203125,-0.29248046875,0.625,-0.3125,0.0
1.5599999999999887,-2.0,-2.0,-1.0,-1.0,5.0,5.0,1.0,-1.0,0.39111328125,0.69915771484375,-0.5938720703125,-0.07415771484375,-0.36669921875,-0.90283203125,-0.29248046875,0.625,-0.3125,0.0
1.5649999999999886,-2.0,-2.0,-1.0,-1.0,5.0,5.0,1.0,-1.0,0.39111328125,0.69915771484375,-0.5938720703125,-0.07415771484375,-0.365234375,-0.908203125,-0.2841796875,0.8125,-0.9375,-0.3125
1.5699999999999885,-2.0,0.0,0.0,-2.0,-5.0,2.0,-7.0,-2.0,0.39111328125,0.69915771484375,-0.5938720703125,-0.07415771484375,-0.365234375,-0.908203125,-0.2841796875,0.8125,-0.9375,-0.3125
1.5749999999999884,-2.0,0.0,0.0,-2.0,-5.0,2.0,-7.0,-2.0,0.39111328125,0.69915771484375,-0.5938720703125,-0.07415771484375,-0.365234375,-0.908203125,-0.2841796875,0.8125,-0.9375,-0.3125
1.5799999999999883,1.0,-2.0,0.0,-3.0,4.0,2.0,-2.0,-1.0,0.39093017578125,0.69903564453125,-0.59417724609375,-0.0740966796875,-0.37158203125,-0.90771484375,-0.291015625,1.9375,-1.625,-0.3125
1.5849999999999882,1.0,-2.0,0.0,-3.0,4.0,2.0,-2.0,-1.0,0.39093017578125,0.69903564453125,-0.59417724609375,-0.0740966796875,-0.37158203125,-0.90771484375,-0.291015625,1.9375,-1.625,-0.3125
1.589999999999988,1.0,-2.0,0.0,-3.0,4.0,2.0,-2.0,-1.0,0.39093017578125,0.69903564453125,-0.59417724609375,-0.0740966796875,-0.37158203125,-0.90771484375,-0.291015625,1.9375,-1.625,-0.3125
1.594999999999988,-2.0,-2.0,-2.0,2.0,6.0,7.0,4.0,-1.0,0.39093017578125,0.69903564453125,-0.59417724609375,-0.0740966796875,-0.37158203125,-0.90771484375,-0.291015625,1.9375,-1.625,-0.3125
1.5999999999999879,-2.0,-2.0,-2.0,2.0,6.0,7.0,4.0,-1.0,0.39093017578125,0.69903564453125,-0.59417724609375,-0.0740966796875,-0.37158203125,-0.90771484375,-0.291015625,1.9375,-1.625,-0.3125
1.6049999999999878,0.0,-1.0,-1.0,1.0,-7.0,-10.0,-6.0,-1.0,0.39093017578125,0.69903564453125,-0.59417724609375,-0.0740966796875,-0.37158203125,-0.90771484375,-0.291015625,1.9375,-1.625,-0.3125
1.6099999999999877,-3.0,-1.0,-1.0,-3.0,1.0,-8.0,-3.0,-3.0,0.390625,0.69879150390625,-0.59466552734375,-0.07391357421875,-0.3798828125,-0.90380859375,-0.28369140625,2.125,-2.375,-0.8125
1.6149999999999876,-3.0,-1.0,-1.0,-3.0,1.0,-8.0,-3.0,-3.0,0.390625,0.69879150390625,-0.59466552734375,-0.07391357421875,-0.3798828125,-0.90380859375,-0.28369140625,2.125,-2.375,-0.8125
1.6199999999999875,-1.0,-1.0,-1.0,-3.0,-5.0,-11.0,-4.0,-2.0,0.390625,0.69879150390625,-0.59466552734375,-0.07391357421875,-0.3798828125,-0.90380859375,-0.28369140625,2.125,-2.375,-0.8125
1.6249999999999873,-1.0,-1.0,-1.0,-3.0,-5.0,-11.0,-4.0,-2.0,0.39019775390625,0.69873046875,-0.59503173828125,-0.07373046875,-0.3798828125,-0.90283203125,-0.28955078125,1.6875,-2.9375,-1.4375
1.6299999999999872,-1.0,-1.0,-1.0,-3.0,-5.0,-11.0,-4.0,-2.0,0.39019775390625,0.69873046875,-0.59503173828125,-0.07373046875,-0.3798828125,-0.90283203125,-0.28955078125,1.6875,-2.9375,-1.4375
1.6349999999999871,-1.0,-1.0,-1.0,-3.0,-5.0,-11.0,-4.0,-2.0,0.39019775390625,0.69873046875,-0.59503173828125,-0.07373046875,-0.3798828125,-0.90283203125,-0.28955078125,1.6875,-2.9375,-1.4375
1.639999999999987,-2.0,-2.0,-1.0,-6.0,-13.0,-4.0,-2.0,-2.0,0.3896484375,0.69866943359375,-0.59552001953125,-0.07354736328125,-0.37255859375,-0.90283203125,-0.287109375,2.0,-3.5625,-1.75
1.644999999999987,-2.0,-2.0,-1.0,-6.0,-13.0,-4.0,-2.0,-2.0,0.3896484375,0.69866943359375,-0.59552001953125,-0.07354736328125,-0.37255859375,-0.90283203125,-0.287109375,2.0,-3.5625,-1.75
1.6499999999999868,-1.0,-1.0,-4.0,0.0,-3.0,0.0,0.0,-1.0,0.3896484375,0.69866943359375,-0.59552001953125,-0.07354736328125,-0.37255859375,-0.90283203125,-0.287109375,2.0,-3.5625,-1.75
1.6549999999999867,-1.0,-1.0,-4.0,0.0,-3.0,0.0,0.0,-1.0,0.3896484375,0.69866943359375,-0.59552001953125,-0.07354736328125,-0.37255859375,-0.90283203125,-0.287109375,2.0,-3.5625,-1.75
1.6599999999999866,1.0,0.0,-1.0,1.0,0.0,11.0,-2.0,0.0,0.3896484375,0.69866943359375,-0.59552001953125,-0.07354736328125,-0.37255859375,-0.90283203125,-0.287109375,2.0,-3.5625,-1.75
1.6649999999999865,1.0,0.0,-1.0,1.0,0.0,11.0,-2.0,0.0,0.38909912109375,0.698486328125,-0.5960693359375,-0.07330322265625,-0.37744140625,-0.90966796875,-0.27685546875,2.25,-3.5625,-1.1875
1.6699999999999864,1.0,0.0,-1.0,1.0,0.0,11.0,-2.0,0.0,0.38909912109375,0.698486328125,-0.5960693359375,-0.07330322265625,-0.37744140625,-0.90966796875,-0.27685546875,2.25,-3.5625,-1.1875
1.6749999999999863,0.0,0.0,0.0,1.0,5.0,-4.0,0.0,-1.0,0.38909912109375,0.698486328125,-0.5960693359375,-0.07330322265625,-0.37744140625,-0.90966796875,-0.27685546875,2.25,-3.5625,-1.1875
1.6799999999999862,-1.0,-2.0,-2.0,-2.0,-8.0,-6.0,0.0,-1.0,0.38909912109375,0.698486328125,-0.5960693359375,-0.07330322265625,-0.37744140625,-0.90966796875,-0.27685546875,2.25,-3.5625,-1.1875
1.684999999999986,0.0,-2.0,0.0,-1.0,5.0,13.0,5.0,0.0,0.38861083984375,0.69830322265625,-0.5966796875,-0.07305908203125,-0.37841796875,-0.9111328125,-0.2783203125,2.1875,-3.6875,-1.0625
1.689999999999986,0.0,-2.0,0.0,-1.0,5.0,13.0,5.0,0.0,0.38861083984375,0.69830322265625,-0.5966796875,-0.07305908203125,-0.37841796875,-0.9111328125,-0.2783203125,2.1875,-3.6875,-1.0625
1.6949999999999859,-1.0,-3.0,-1.0,1.0,8.0,-6.0,-4.0,-3.0,0.38861083984375,0.69830322265625,-0.5966796875,-0.07305908203125,-0.37841796875,-0.9111328125,-0.2783203125,2.1875,-3.6875,-1.0625
1.6999999999999857,-1.0,-2.0,0.0,-3.0,-3.0,-1.0,1.0,-2.0,0.38861083984375,0.69830322265625,-0.5966796875,-0.07305908203125,-0.37841796875,-0.9111328125,-0.2783203125,2.1875,-3.6875,-1.0625
1.7049999999999856,-1.0,-2.0,0.0,-3.0,-3.0,-1.0,1.0,-2.0,0.38812255859375,0.6981201171875,-0.59716796875,-0.07281494140625,-0.37646484375,-0.9072265625,-0.28076171875,2.1875,-3.5625,-1.0625
1.7099999999999855,-1.0,-2.0,0.0,-3.0,-3.0,-1.0,1.0,-2.0,0.38812255859375,0.6981201171875,-0.59716796875,-0.07281494140625,-0.37646484375,-0.9072265625,-0.28076171875,2.1875,-3.5625,-1.0625
1.7149999999999854,-1.0,-2.0,0.0,-3.0,-3.0,-1.0,1.0,-2.0,0.38812255859375,0.6981201171875,-0.59716796875,-0.07281494140625,-0.37646484375,-0.9072265625,-0.28076171875,2.1875,-3.5625,-1.0625
1.7199999999999853,-1.0,-2.0,0.0,-3.0,-3.0,-1.0,1.0,-2.0,0.38812255859375,0.6981201171875,-0.59716796875,-0.07281494140625,-0.37646484375,-0.9072265625,-0.28076171875,2.1875,-3.5625,-1.0625
1.7249999999999852,-1.0,-1.0,1.0,-3.0,-4.0,-7.0,-3.0,-1.0,0.38812255859375,0.6981201171875,-0.59716796875,-0.07281494140625,-0.37646484375,-0.9072265625,-0.28076171875,2.1875,-3.5625,-1.0625
1.729999999999985,-1.0,-1.0,1.0,-3.0,-4.0,-7.0,-3.0,-1.0,0.38763427734375,0.69793701171875,-0.5977783203125,-0.07257080078125,-0.37841796875,-0.90673828125,-0.27490234375,2.4375,-3.625,-0.875
1.734999999999985,-1.0,-1.0,1.0,-3.0,-4.0,-7.0,-3.0,-1.0,0.38763427734375,0.69793701171875,-0.5977783203125,-0.07257080078125,-0.37841796875,-0.90673828125,-0.27490234375,2.4375,-3.625,-0.875
1.739999999999985,-1.0,-1.0,1.0,-3.0,-4.0,-7.0,-3.0,-1.0,0.38763427734375,0.69793701171875,-0.5977783203125,-0.07257080078125,-0.37841796875,-0.90673828125,-0.27490234375,2.4375,-3.625,-0.875
1.7449999999999848,0.0,-1.0,-1.0,-3.0,-3.0,-1.0,0.0,-1.0,0.38763427734375,0.69793701171875,-0.5977783203125,-0.07257080078125,-0.37841796875,-0.90673828125,-0.27490234375,2.4375,-3.625,-0.875
1.7499999999999847,-2.0,-1.0,-1.0,0.0,0.0,-7.0,-3.0,-3.0,0.38763427734375,0.69793701171875,-0.5977783203125,-0.07257080078125,-0.37841796875,-0.90673828125,-0.27490234375,2.4375,-3.625,-0.875
1.7549999999999846,-2.0,-1.0,-1.0,0.0,0.0,-7.0,-3.0,-3.0,0.38763427734375,0.69793701171875,-0.5977783203125,-0.07257080078125,-0.37841796875,-0.90673828125,-0.27490234375,2.4375,-3.625,-0.875
1.7599999999999845,-2.0,-1.0,-1.0,0.0,0.0,-7.0,-3.0,-3.0,0.38720703125,0.69781494140625,-0.59820556640625,-0.07232666015625,-0.3720703125,-0.90673828125,-0.2763671875,1.4375,-3.125,-0.625
1.7649999999999844,0.0,0.0,0.0,1.0,-4.0,7.0,-1.0,-1.0,0.38720703125,0.69781494140625,-0.59820556640625,-0.07232666015625,-0.3720703125,-0.90673828125,-0.2763671875,1.4375,-3.125,-0.625
1.7699999999999843,0.0,0.0,0.0,1.0,-4.0,7.0,-1.0,-1.0,0.38720703125,0.69781494140625,-0.59820556640625,-0.07232666015625,-0.3720703125,-0.90673828125,-0.2763671875,1.4375,-3.125,-0.625
1.7749999999999841,-2.0,0.0,-1.0,-1.0,1.0,5.0,-4.0,-1.0,0.3868408203125,0.69775390625,-0.59857177734375,-0.07208251953125,-0.36865234375,-0.90771484375,-0.26806640625,0.5625,-2.625,-0.5625
1.779999999999984,-2.0,0.0,-1.0,-1.0,1.0,5.0,-4.0,-1.0,0.3868408203125,0.69775390625,-0.59857177734375,-0.07208251953125,-0.36865234375,-0.90771484375,-0.26806640625,0.5625,-2.625,-0.5625
1.784999999999984,-2.0,-1.0,-1.0,0.0,-3.0,-1.0,1.0,0.0,0.3868408203125,0.69775390625,-0.59857177734375,-0.07208251953125,-0.36865234375,-0.90771484375,-0.26806640625,0.5625,-2.625,-0.5625
1.7899999999999838,-2.0,-1.0,-1.0,0.0,-3.0,-1.0,1.0,0.0,0.3868408203125,0.69775390625,-0.59857177734375,-0.07208251953125,-0.36865234375,-0.90771484375,-0.26806640625,0.5625,-2.625,-0.5625
1.7949999999999837,-1.0,-2.0,-2.0,-1.0,-4.0,-9.0,-3.0,-3.0,0.386474609375,0.69769287109375,-0.598876953125,-0.072021484375,-0.36669921875,-0.90625,-0.263671875,0.375,-2.125,-0.875
1.7999999999999836,-1.0,-2.0,-2.0,-1.0,-4.0,-9.0,-3.0,-3.0,0.386474609375,0.69769287109375,-0.598876953125,-0.072021484375,-0.36669921875,-0.90625,-0.263671875,0.375,-2.125,-0.875
1.8049999999999835,-1.0,-2.0,-2.0,-1.0,-4.0,-9.0,-3.0,-3.0,0.386474609375,0.69769287109375,-0.598876953125,-0.072021484375,-0.36669921875,-0.90625,-0.263671875,0.375,-2.125,-0.875
1.8099999999999834,-2.0,0.0,0.0,1.0,4.0,8.0,2.0,1.0,0.386474609375,0.69769287109375,-0.598876953125,-0.072021484375,-0.36669921875,-0.90625,-0.263671875,0.375,-2.125,-0.875
1.8149999999999833,-2.0,0.0,0.0,1.0,4.0,8.0,2.0,1.0,0.386474609375,0.69769287109375,-0.598876953125,-0.072021484375,-0.36669921875,-0.90625,-0.263671875,0.375,-2.125,-0.875
1.8199999999999832,-1.0,-3.0,-2.0,-3.0,0.0,-4.0,-2.0,1.0,0.386474609375,0.69769287109375,-0.598876953125,-0.072021484375,-0.36669921875,-0.90625,-0.263671875,0.375,-2.125,-0.875
1.824999999999983,-1.0,-3.0,-2.0,-3.0,0.0,-4.0,-2.0,1.0,0.386474609375,0.69769287109375,-0.598876953125,-0.072021484375,-0.36669921875,-0.90625,-0.263671875,0.375,-2.125,-0.875
1.829999999999983,0.0,-1.0,-2.0,-2.0,-2.0,-5.0,-3.0,-1.0,0.3861083984375,0.6976318359375,-0.59918212890625,-0.07196044921875,-0.36572265625,-0.90576171875,-0.26904296875,1.125,-1.75,-0.8125
1.8349999999999829,0.0,-1.0,-2.0,-2.0,-2.0,-5.0,-3.0,-1.0,0.3861083984375,0.6976318359375,-0.59918212890625,-0.07196044921875,-0.36572265625,-0.90576171875,-0.26904296875,1.125,-1.75,-0.8125
1.8399999999999828,0.0,-2.0,-2.0,-5.0,-12.0,-5.0,-2.0,-1.0,0.3858642578125,0.6976318359375,-0.599365234375,-0.072021484375,-0.36328125,-0.90283203125,-0.27392578125,1.0,-1.25,-1.0
1.8449999999999827,0.0,-2.0,-2.0,-5.0,-12.0,-5.0,-2.0,-1.0,0.3858642578125,0.6976318359375,-0.599365234375,-0.072021484375,-0.36328125,-0.90283203125,-0.27392578125,1.0,-1.25,-1.0
1.8499999999999825,0.0,-2.0,-2.0,-5.0,-12.0,-5.0,-2.0,-1.0,0.3858642578125,0.6976318359375,-0.599365234375,-0.072021484375,-0.36328125,-0.90283203125,-0.27392578125,1.0,-1.25,-1.0
1.8549999999999824,0.0,-2.0,-2.0,-5.0,-12.0,-5.0,-2.0,-1.0,0.3858642578125,0.6976318359375,-0.599365234375,-0.072021484375,-0.36328125,-0.90283203125,-0.27392578125,1.0,-1.25,-1.0
1.8599999999999823,0.0,-1.0,-2.0,1.0,-1.0,-6.0,2.0,0.0,0.3858642578125,0.6976318359375,-0.599365234375,-0.072021484375,-0.36328125,-0.90283203125,-0.27392578125,1.0,-1.25,-1.0
1.8649999999999822,0.0,-1.0,-2.0,1.0,-1.0,-6.0,2.0,0.0,0.3858642578125,0.6976318359375,-0.599365234375,-0.072021484375,-0.36328125,-0.90283203125,-0.27392578125,1.0,-1.25,-1.0
1.8699999999999821,0.0,-2.0,0.0,-1.0,8.0,1.0,-1.0,-2.0,0.3856201171875,0.69757080078125,-0.59954833984375,-0.07208251953125,-0.37109375,-0.90478515625,-0.26953125,0.625,-0.8125,-1.3125
1.874999999999982,0.0,-2.0,0.0,-1.0,8.0,1.0,-1.0,-2.0,0.3856201171875,0.69757080078125,-0.59954833984375,-0.07208251953125,-0.37109375,-0.90478515625,-0.26953125,0.625,-0.8125,-1.3125
1.879999999999982,0.0,-2.0,0.0,-1.0,8.0,1.0,-1.0,-2.0,0.3856201171875,0.69757080078125,-0.59954833984375,-0.07208251953125,-0.37109375,-0.90478515625,-0.26953125,0.625,-0.8125,-1.3125
1.8849999999999818,0.0,-2.0,0.0,-1.0,8.0,1.0,-1.0,-2.0,0.3856201171875,0.69757080078125,-0.59954833984375,-0.07208251953125,-0.37109375,-0.90478515625,-0.26953125,0.625,-0.8125,-1.3125
1.8899999999999817,-2.0,-1.0,0.0,1.0,3.0,-1.0,-1.0,1.0,0.3856201171875,0.69757080078125,-0.59954833984375,-0.07208251953125,-0.37109375,-0.90478515625,-0.26953125,0.625,-0.8125,-1.3125
1.8949999999999816,-2.0,-1.0,0.0,1.0,3.0,-1.0,-1.0,1.0,0.3856201171875,0.69757080078125,-0.59954833984375,-0.07208251953125,-0.37109375,-0.90478515625,-0.26953125,0.625,-0.8125,-1.3125
1.8999999999999815,-2.0,-1.0,0.0,1.0,3.0,-1.0,-1.0,1.0,0.38531494140625,0.69757080078125,-0.5997314453125,-0.072265625,-0.36474609375,-0.90966796875,-0.265625,0.375,-0.5625,-1.5
1.9049999999999814,0.0,-2.0,-1.0,1.0,1.0,0.0,-5.0,-2.0,0.38531494140625,0.69757080078125,-0.5997314453125,-0.072265625,-0.36474609375,-0.90966796875,-0.265625,0.375,-0.5625,-1.5
1.9099999999999813,0.0,-2.0,-1.0,1.0,1.0,0.0,-5.0,-2.0,0.38531494140625,0.69757080078125,-0.5997314453125,-0.072265625,-0.36474609375,-0.90966796875,-0.265625,0.375,-0.5625,-1.5
1.9149999999999812,-2.0,-2.0,-2.0,-3.0,-11.0,2.0,1.0,-2.0,0.38531494140625,0.69757080078125,-0.5997314453125,-0.072265625,-0.36474609375,-0.90966796875,-0.265625,0.375,-0.5625,-1.5
1.919999999999981,-2.0,-2.0,-2.0,-3.0,-11.0,2.0,1.0,-2.0,0.385009765625,0.69757080078125,-0.599853515625,-0.072509765625,-0.36572265625,-0.9169921875,-0.271484375,1.0,-0.3125,-1.6875
1.924999999999981,-2.0,-2.0,-2.0,-3.0,-11.0,2.0,1.0,-2.0,0.385009765625,0.69757080078125,-0.599853515625,-0.072509765625,-0.36572265625,-0.9169921875,-0.271484375,1.0,-0.3125,-1.6875
1.9299999999999808,-2.0,-2.0,-2.0,-3.0,-11.0,2.0,1.0,-2.0,0.385009765625,0.69757080078125,-0.599853515625,-0.072509765625,-0.36572265625,-0.9169921875,-0.271484375,1.0,-0.3125,-1.6875
1.9349999999999807,-1.0,-2.0,-3.0,-1.0,-5.0,-2.0,-2.0,1.0,0.385009765625,0.69757080078125,-0.599853515625,-0.072509765625,-0.36572265625,-0.9169921875,-0.271484375,1.0,-0.3125,-1.6875
1.9399999999999806,-1.0,-2.0,-3.0,-1.0,-5.0,-2.0,-2.0,1.0,0.385009765625,0.69757080078125,-0.599853515625,-0.072509765625,-0.36572265625,-0.9169921875,-0.271484375,1.0,-0.3125,-1.6875
1.9449999999999805,-1.0,0.0,0.0,0.0,7.0,0.0,0.0,0.0,0.385009765625,0.69757080078125,-0.599853515625,-0.072509765625,-0.36572265625,-0.9169921875,-0.271484375,1.0,-0.3125,-1.6875
1.9499999999999804,-1.0,0.0,0.0,0.0,7.0,0.0,0.0,0.0,0.38482666015625,0.6973876953125,-0.60015869140625,-0.07281494140625,-0.37255859375,-0.91162109375,-0.27001953125,2.125,0.0625,-1.6875
1.9549999999999803,-1.0,0.0,0.0,0.0,7.0,0.0,0.0,0.0,0.38482666015625,0.6973876953125,-0.60015869140625,-0.07281494140625,-0.37255859375,-0.91162109375,-0.27001953125,2.125,0.0625,-1.6875
1.9599999999999802,-1.0,0.0,0.0,0.0,7.0,0.0,0.0,0.0,0.38482666015625,0.6973876953125,-0.60015869140625,-0.07281494140625,-0.37255859375,-0.91162109375,-0.27001953125,2.125,0.0625,-1.6875
1.96499999999998,-1.0,-1.0,0.0,-3.0,-3.0,-4.0,0.0,-1.0,0.38482666015625,0.6973876953125,-0.60015869140625,-0.07281494140625,-0.37255859375,-0.91162109375,-0.27001953125,2.125,0.0625,-1.6875
1.96999999999998,-1.0,-1.0,0.0,-3.0,-3.0,-4.0,0.0,-1.0,0.38482666015625,0.6973876953125,-0.60015869140625,-0.07281494140625,-0.37255859375,-0.91162109375,-0.27001953125,2.125,0.0625,-1.6875
1.9749999999999799,-2.0,-1.0,-3.0,0.0,0.0,3.0,0.0,-1.0,0.3846435546875,0.69732666015625,-0.60040283203125,-0.072998046875,-0.37451171875,-0.912109375,-0.2705078125,1.5625,0.0,-1.625
1.9799999999999798,-2.0,-1.0,-3.0,0.0,0.0,3.0,0.0,-1.0,0.3846435546875,0.69732666015625,-0.60040283203125,-0.072998046875,-0.37451171875,-0.912109375,-0.2705078125,1.5625,0.0,-1.625
1.9849999999999797,-1.0,0.0,-3.0,0.0,4.0,4.0,-2.0,-1.0,0.3846435546875,0.69732666015625,-0.60040283203125,-0.072998046875,-0.37451171875,-0.912109375,-0.2705078125,1.5625,0.0,-1.625
1.9899999999999796,-1.0,0.0,-3.0,0.0,4.0,4.0,-2.0,-1.0,0.3846435546875,0.69732666015625,-0.60040283203125,-0.072998046875,-0.37451171875,-0.912109375,-0.2705078125,1.5625,0.0,-1.625
1.9949999999999795,-1.0,0.0,-3.0,0.0,4.0,4.0,-2.0,-1.0,0.3846435546875,0.69732666015625,-0.60040283203125,-0.072998046875,-0.37451171875,-0.912109375,-0.2705078125,1.5625,0.0,-1.625
1.9999999999999793,-1.0,-1.0,-3.0,-4.0,-7.0,-5.0,-2.0,-1.0,0.38446044921875,0.69720458984375,-0.6005859375,-0.07318115234375,-0.37548828125,-0.90576171875,-0.26123046875,0.8125,0.0,-1.5625
2.0049999999999795,-1.0,-1.0,-3.0,-4.0,-7.0,-5.0,-2.0,-1.0,0.38446044921875,0.69720458984375,-0.6005859375,-0.07318115234375,-0.37548828125,-0.90576171875,-0.26123046875,0.8125,0.0,-1.5625
2.0099999999999794,-1.0,-1.0,-3.0,-4.0,-7.0,-5.0,-2.0,-1.0,0.38446044921875,0.69720458984375,-0.6005859375,-0.07318115234375,-0.37548828125,-0.90576171875,-0.26123046875,0.8125,0.0,-1.5625
2.0149999999999793,-2.0,-2.0,-1.0,-1.0,0.0,-10.0,-1.0,-2.0,0.38446044921875,0.69720458984375,-0.6005859375,-0.07318115234375,-0.37548828125,-0.90576171875,-0.26123046875,0.8125,0.0,-1.5625
2.019999999999979,-2.0,-2.0,-1.0,-1.0,0.0,-10.0,-1.0,-2.0,0.38446044921875,0.69720458984375,-0.6005859375,-0.07318115234375,-0.37548828125,-0.90576171875,-0.26123046875,0.8125,0.0,-1.5625
2.024999999999979,-2.0,-2.0,-1.0,-1.0,0.0,-10.0,-1.0,-2.0,0.38433837890625,0.69720458984375,-0.60064697265625,-0.07330322265625,-0.37451171875,-0.91455078125,-0.2705078125,0.1875,0.125,-1.3125
2.029999999999979,-1.0,-1.0,-1.0,-3.0,-4.0,4.0,5.0,-1.0,0.38433837890625,0.69720458984375,-0.60064697265625,-0.07330322265625,-0.37451171875,-0.91455078125,-0.2705078125,0.1875,0.125,-1.3125
2.034999999999979,-1.0,-1.0,-1.0,-3.0,-4.0,4.0,5.0,-1.0,0.38433837890625,0.69720458984375,-0.60064697265625,-0.07330322265625,-0.37451171875,-0.91455078125,-0.2705078125,0.1875,0.125,-1.3125
2.0399999999999787,-1.0,-1.0,-1.0,-3.0,-4.0,4.0,5.0,-1.0,0.38433837890625,0.69720458984375,-0.60064697265625,-0.07330322265625,-0.37451171875,-0.91455078125,-0.2705078125,0.1875,0.125,-1.3125
2.0449999999999786,-2.0,0.0,-1.0,-2.0,0.0,5.0,-2.0,-2.0,0.38433837890625,0.69720458984375,-0.60064697265625,-0.07330322265625,-0.37451171875,-0.91455078125,-0.2705078125,0.1875,0.125,-1.3125
2.0499999999999785,-2.0,0.0,-1.0,-2.0,0.0,5.0,-2.0,-2.0,0.38433837890625,0.69720458984375,-0.60064697265625,-0.07330322265625,-0.37451171875,-0.91455078125,-0.2705078125,0.1875,0.125,-1.3125
2.0549999999999784,0.0,-1.0,0.0,-1.0,4.0,5.0,-2.0,-1.0,0.38421630859375,0.69720458984375,-0.6007080078125,-0.07342529296875,-0.3720703125,-0.91552734375,-0.2666015625,0.125,0.1875,-1.1875
2.0599999999999783,0.0,-1.0,0.0,-1.0,4.0,5.0,-2.0,-1.0,0.38421630859375,0.69720458984375,-0.6007080078125,-0.07342529296875,-0.3720703125,-0.91552734375,-0.2666015625,0.125,0.1875,-1.1875
2.064999999999978,0.0,-1.0,0.0,-1.0,4.0,5.0,-2.0,-1.0,0.38421630859375,0.69720458984375,-0.6007080078125,-0.07342529296875,-0.3720703125,-0.91552734375,-0.2666015625,0.125,0.1875,-1.1875
2.069999999999978,-1.0,-2.0,0.0,1.0,-4.0,-5.0,-3.0,-3.0,0.38421630859375,0.69720458984375,-0.6007080078125,-0.07342529296875,-0.3701171875,-0.919921875,-0.2705078125,0.0625,0.0,-0.8125
2.074999999999978,-1.0,0.0,0.0,-1.0,3.0,1.0,1.0,2.0,0.38421630859375,0.69720458984375,-0.6007080078125,-0.07342529296875,-0.3701171875,-0.919921875,-0.2705078125,0.0625,0.0,-0.8125
2.079999999999978,-1.0,0.0,0.0,-1.0,3.0,1.0,1.0,2.0,0.38421630859375,0.69720458984375,-0.6007080078125,-0.07342529296875,-0.3701171875,-0.919921875,-0.2705078125,0.0625,0.0,-0.8125
2.0849999999999778,-1.0,1.0,-2.0,1.0,-2.0,-1.0,-3.0,0.0,0.38421630859375,0.69720458984375,-0.6007080078125,-0.07342529296875,-0.3701171875,-0.919921875,-0.2705078125,0.0625,0.0,-0.8125
2.0899999999999777,-1.0,1.0,-2.0,1.0,-2.0,-1.0,-3.0,0.0,0.38421630859375,0.69720458984375,-0.6007080078125,-0.07342529296875,-0.3701171875,-0.919921875,-0.2705078125,0.0625,0.0,-0.8125
2.0949999999999775,-1.0,-2.0,-1.0,0.0,-5.0,-7.0,-2.0,0.0,0.38421630859375,0.69720458984375,-0.60076904296875,-0.07342529296875,-0.37109375,-0.9140625,-0.26806640625,0.25,-0.5,-0.4375
2.0999999999999774,-1.0,-2.0,-1.0,0.0,-5.0,-7.0,-2.0,0.0,0.38421630859375,0.69720458984375,-0.60076904296875,-0.07342529296875,-0.37109375,-0.9140625,-0.26806640625,0.25,-0.5,-0.4375
2.1049999999999773,-1.0,-2.0,-1.0,0.0,-5.0,-7.0,-2.0,0.0,0.38421630859375,0.69720458984375,-0.60076904296875,-0.07342529296875,-0.37109375,-0.9140625,-0.26806640625,0.25,-0.5,-0.4375
2.1099999999999772,-1.0,-1.0,-1.0,1.0,-1.0,-6.0,1.0,-3.0,0.38421630859375,0.69720458984375,-0.60076904296875,-0.07342529296875,-0.37109375,-0.9140625,-0.26806640625,0.25,-0.5,-0.4375
2.114999999999977,-1.0,-1.0,-1.0,1.0,-1.0,-6.0,1.0,-3.0,0.38421630859375,0.6971435546875,-0.60076904296875,-0.07342529296875,-0.36669921875,-0.91162109375,-0.2666015625,-1.0,-0.375,-0.1875
2.119999999999977,-2.0,0.0,-1.0,-3.0,-3.0,3.0,1.0,0.0,0.38421630859375,0.6971435546875,-0.60076904296875,-0.07342529296875,-0.36669921875,-0.91162109375,-0.2666015625,-1.0,-0.375,-0.1875
2.124999999999977,-2.0,-1.0,-3.0,1.0,0.0,-1.0,-3.0,-3.0,0.38421630859375,0.6971435546875,-0.60076904296875,-0.07342529296875,-0.36669921875,-0.91162109375,-0.2666015625,-1.0,-0.375,-0.1875
2.129999999999977,-2.0,-1.0,-3.0,1.0,0.0,-1.0,-3.0,-3.0,0.38421630859375,0.6971435546875,-0.60076904296875,-0.07342529296875,-0.36669921875,-0.91162109375,-0.2666015625,-1.0,-0.375,-0.1875
2.1349999999999767,0.0,-1.0,0.0,-1.0,6.0,4.0,0.0,-4.0,0.38421630859375,0.697265625,-0.60064697265625,-0.07330322265625,-0.369140625,-0.91357421875,-0.2734375,-1.0625,-0.375,-0.125
2.1399999999999766,0.0,-1.0,0.0,-1.0,6.0,4.0,0.0,-4.0,0.38421630859375,0.697265625,-0.60064697265625,-0.07330322265625,-0.369140625,-0.91357421875,-0.2734375,-1.0625,-0.375,-0.125
2.1449999999999765,0.0,-1.0,-2.0,-3.0,-10.0,-3.0,-3.0,0.0,0.38421630859375,0.697265625,-0.60064697265625,-0.07330322265625,-0.369140625,-0.91357421875,-0.2734375,-1.0625,-0.375,-0.125
2.1499999999999764,-1.0,-1.0,0.0,0.0,1.0,3.0,-1.0,2.0,0.38421630859375,0.697265625,-0.60064697265625,-0.07330322265625,-0.369140625,-0.91357421875,-0.2734375,-1.0625,-0.375,-0.125
2.1549999999999763,-1.0,-1.0,-1.0,-5.0,-3.0,-5.0,-5.0,-1.0,0.38421630859375,0.697265625,-0.6007080078125,-0.07330322265625,-0.36376953125,-0.9140625,-0.2626953125,0.0625,-0.25,-0.1875
2.159999999999976,-1.0,-1.0,-1.0,-5.0,-3.0,-5.0,-5.0,-1.0,0.38421630859375,0.697265625,-0.6007080078125,-0.07330322265625,-0.36376953125,-0.9140625,-0.2626953125,0.0625,-0.25,-0.1875
2.164999999999976,-1.0,-1.0,-1.0,-5.0,-3.0,-5.0,-5.0,-1.0,0.38421630859375,0.697265625,-0.6007080078125,-0.07330322265625,-0.36376953125,-0.9140625,-0.2626953125,0.0625,-0.25,-0.1875
2.169999999999976,-1.0,-1.0,-2.0,-1.0,-11.0,-3.0,4.0,-2.0,0.38421630859375,0.697265625,-0.6007080078125,-0.07330322265625,-0.36376953125,-0.9140625,-0.2626953125,0.0625,-0.25,-0.1875
2.174999999999976,-1.0,-1.0,-2.0,-1.0,-11.0,-3.0,4.0,-2.0,0.38421630859375,0.697265625,-0.6007080078125,-0.07330322265625,-0.36376953125,-0.9140625,-0.2626953125,0.0625,-0.25,-0.1875
2.1799999999999757,-2.0,-3.0,-2.0,0.0,-2.0,-7.0,0.0,1.0,0.3841552734375,0.697265625,-0.6007080078125,-0.07330322265625,-0.36181640625,-0.91259765625,-0.2666015625,0.125,-0.0625,0.0
2.1849999999999756,-1.0,-1.0,-1.0,1.0,2.0,0.0,-4.0,0.0,0.3841552734375,0.697265625,-0.6007080078125,-0.07330322265625,-0.36181640625,-0.91259765625,-0.2666015625,0.125,-0.0625,0.0
2.1899999999999755,0.0,-2.0,-3.0,-3.0,-1.0,-3.0,-1.0,-2.0,0.3841552734375,0.697265625,-0.6007080078125,-0.07330322265625,-0.361328125,-0.91455078125,-0.27294921875,-0.375,0.125,0.625
2.1949999999999754,0.0,-2.0,-3.0,-3.0,-1.0,-3.0,-1.0,-2.0,0.3841552734375,0.697265625,-0.6007080078125,-0.07330322265625,-0.361328125,-0.91455078125,-0.27294921875,-0.375,0.125,0.625
2.1999999999999753,-2.0,-2.0,-1.0,-1.0,-5.0,-4.0,0.0,1.0,0.3841552734375,0.697265625,-0.6007080078125,-0.07330322265625,-0.361328125,-0.91455078125,-0.27294921875,-0.375,0.125,0.625
2.204999999999975,-2.0,-2.0,-1.0,-1.0,-5.0,-4.0,0.0,1.0,0.3841552734375,0.697265625,-0.6007080078125,-0.07330322265625,-0.361328125,-0.91455078125,-0.27294921875,-0.375,0.125,0.625
2.209999999999975,-2.0,-2.0,-1.0,-1.0,-5.0,-4.0,0.0,1.0,0.3841552734375,0.697265625,-0.6007080078125,-0.07330322265625,-0.36669921875,-0.912109375,-0.27197265625,0.3125,0.25,0.9375
2.214999999999975,-2.0,-1.0,0.0,-3.0,3.0,7.0,1.0,1.0,0.3841552734375,0.697265625,-0.6007080078125,-0.07330322265625,-0.36669921875,-0.912109375,-0.27197265625,0.3125,0.25,0.9375
2.219999999999975,-2.0,-1.0,0.0,-3.0,3.0,7.0,1.0,1.0,0.3841552734375,0.697265625,-0.6007080078125,-0.07330322265625,-0.36669921875,-0.912109375,-0.27197265625,0.3125,0.25,0.9375
2.2249999999999748,-3.0,-2.0,-1.0,-1.0,3.0,12.0,0.0,-1.0,0.3841552734375,0.697265625,-0.6007080078125,-0.07330322265625,-0.36669921875,-0.912109375,-0.27197265625,0.3125,0.25,0.9375
2.2299999999999747,-3.0,-2.0,-1.0,-1.0,3.0,12.0,0.0,-1.0,0.3841552734375,0.697265625,-0.6007080078125,-0.07330322265625,-0.36669921875,-0.912109375,-0.27197265625,0.3125,0.25,0.9375
2.2349999999999746,0.0,-2.0,0.0,0.0,1.0,1.0,-2.0,-1.0,0.38433837890625,0.69708251953125,-0.60076904296875,-0.0731201171875,-0.375,-0.908203125,-0.26220703125,-0.1875,0.125,1.125
2.2399999999999745,0.0,-2.0,0.0,0.0,1.0,1.0,-2.0,-1.0,0.38433837890625,0.69708251953125,-0.60076904296875,-0.0731201171875,-0.375,-0.908203125,-0.26220703125,-0.1875,0.125,1.125
2.2449999999999743,0.0,-2.0,0.0,0.0,1.0,1.0,-2.0,-1.0,0.38433837890625,0.69708251953125,-0.60076904296875,-0.0731201171875,-0.375,-0.908203125,-0.26220703125,-0.1875,0.125,1.125
2.2499999999999742,0.0,-2.0,0.0,0.0,1.0,1.0,-2.0,-1.0,0.38433837890625,0.69708251953125,-0.60076904296875,-0.0731201171875,-0.375,-0.908203125,-0.26220703125,-0.1875,0.125,1.125
2.254999999999974,0.0,0.0,0.0,-1.0,-4.0,-6.0,-2.0,-1.0,0.38433837890625,0.69708251953125,-0.600830078125,-0.0731201171875,-0.37890625,-0.9150390625,-0.26611328125,-0.1875,0.0,0.8125
2.259999999999974,0.0,0.0,0.0,-1.0,-4.0,-6.0,-2.0,-1.0,0.38433837890625,0.69708251953125,-0.600830078125,-0.0731201171875,-0.37890625,-0.9150390625,-0.26611328125,-0.1875,0.0,0.8125
2.264999999999974,1.0,0.0,-1.0,-1.0,2.0,-3.0,-1.0,-1.0,0.38433837890625,0.69708251953125,-0.600830078125,-0.0731201171875,-0.37890625,-0.9150390625,-0.26611328125,-0.1875,0.0,0.8125
2.269999999999974,1.0,0.0,-1.0,-1.0,2.0,-3.0,-1.0,-1.0,0.38433837890625,0.69708251953125,-0.600830078125,-0.0731201171875,-0.37890625,-0.9150390625,-0.26611328125,-0.1875,0.0,0.8125
2.2749999999999737,-1.0,-1.0,-1.0,-2.0,-2.0,-5.0,-1.0,1.0,0.38433837890625,0.697021484375,-0.600830078125,-0.0731201171875,-0.3740234375,-0.90625,-0.25927734375,0.125,0.125,0.5
2.2799999999999736,-1.0,-1.0,-1.0,-2.0,-2.0,-5.0,-1.0,1.0,0.38433837890625,0.697021484375,-0.600830078125,-0.0731201171875,-0.3740234375,-0.90625,-0.25927734375,0.125,0.125,0.5
2.2849999999999735,-1.0,-1.0,-1.0,-2.0,-2.0,-5.0,-1.0,1.0,0.38433837890625,0.697021484375,-0.600830078125,-0.0731201171875,-0.3740234375,-0.90625,-0.25927734375,0.125,0.125,0.5
2.2899999999999734,-1.0,-1.0,1.0,-1.0,-3.0,3.0,0.0,-1.0,0.38433837890625,0.697021484375,-0.600830078125,-0.0731201171875,-0.3740234375,-0.90625,-0.25927734375,0.125,0.125,0.5
2.2949999999999733,-1.0,-1.0,1.0,-1.0,-3.0,3.0,0.0,-1.0,0.38433837890625,0.697021484375,-0.600830078125,-0.0731201171875,-0.3740234375,-0.90625,-0.25927734375,0.125,0.125,0.5
2.299999999999973,-1.0,-1.0,1.0,-1.0,-3.0,3.0,0.0,-1.0,0.3843994140625,0.697021484375,-0.600830078125,-0.07305908203125,-0.3779296875,-0.90966796875,-0.27294921875,-0.25,0.1875,0.0625
2.304999999999973,-2.0,-2.0,-3.0,-4.0,-1.0,-12.0,-6.0,-3.0,0.3843994140625,0.697021484375,-0.600830078125,-0.07305908203125,-0.3779296875,-0.90966796875,-0.27294921875,-0.25,0.1875,0.0625
2.309999999999973,-2.0,-2.0,-3.0,-4.0,-1.0,-12.0,-6.0,-3.0,0.3843994140625,0.697021484375,-0.600830078125,-0.07305908203125,-0.3779296875,-0.90966796875,-0.27294921875,-0.25,0.1875,0.0625
2.314999999999973,-1.0,-1.0,-1.0,-2.0,2.0,2.0,1.0,0.0,0.3843994140625,0.697021484375,-0.600830078125,-0.07305908203125,-0.3779296875,-0.90966796875,-0.27294921875,-0.25,0.1875,0.0625
2.3199999999999728,-2.0,-2.0,0.0,0.0,0.0,-1.0,2.0,-2.0,0.3843994140625,0.697021484375,-0.600830078125,-0.07305908203125,-0.3779296875,-0.90966796875,-0.27294921875,-0.25,0.1875,0.0625
2.3249999999999726,0.0,-1.0,0.0,0.0,-3.0,2.0,-4.0,-1.0,0.3843994140625,0.697021484375,-0.60089111328125,-0.07305908203125,-0.37353515625,-0.90966796875,-0.2705078125,0.0,0.1875,-0.0625
2.3299999999999725,0.0,-1.0,0.0,0.0,-3.0,2.0,-4.0,-1.0,0.3843994140625,0.697021484375,-0.60089111328125,-0.07305908203125,-0.37353515625,-0.90966796875,-0.2705078125,0.0,0.1875,-0.0625
2.3349999999999724,0.0,-1.0,0.0,0.0,-3.0,2.0,-4.0,-1.0,0.3843994140625,0.697021484375,-0.60089111328125,-0.07305908203125,-0.37353515625,-0.90966796875,-0.2705078125,0.0,0.1875,-0.0625
2.3399999999999723,0.0,-1.0,-2.0,-2.0,1.0,-1.0,0.0,-3.0,0.3843994140625,0.697021484375,-0.60089111328125,-0.07305908203125,-0.37353515625,-0.91064453125,-0.2666015625,-0.1875,0.3125,0.1875
2.344999999999972,0.0,-1.0,-2.0,-2.0,1.0,-1.0,0.0,-3.0,0.3843994140625,0.697021484375,-0.60089111328125,-0.07305908203125,-0.37353515625,-0.91064453125,-0.2666015625,-0.1875,0.3125,0.1875
2.349999999999972,0.0,-1.0,-2.0,-2.0,1.0,-1.0,0.0,-3.0,0.3843994140625,0.697021484375,-0.60089111328125,-0.07305908203125,-0.37353515625,-0.91064453125,-0.2666015625,-0.1875,0.3125,0.1875
2.354999999999972,-2.0,-1.0,-2.0,8.0,-11.0,-5.0,-4.0,-1.0,0.3843994140625,0.697021484375,-0.60089111328125,-0.07305908203125,-0.37353515625,-0.91064453125,-0.2666015625,-0.1875,0.3125,0.1875
2.359999999999972,-2.0,-1.0,-2.0,8.0,-11.0,-5.0,-4.0,-1.0,0.3843994140625,0.697021484375,-0.60089111328125,-0.07305908203125,-0.37353515625,-0.91064453125,-0.2666015625,-0.1875,0.3125,0.1875
2.364999999999972,-1.0,0.0,0.0,0.0,2.0,23.0,3.0,1.0,0.3843994140625,0.697021484375,-0.60089111328125,-0.07305908203125,-0.37109375,-0.91455078125,-0.26806640625,-1.0,0.5625,0.6875
2.3699999999999717,-1.0,0.0,0.0,0.0,2.0,23.0,3.0,1.0,0.3843994140625,0.697021484375,-0.60089111328125,-0.07305908203125,-0.37109375,-0.91455078125,-0.26806640625,-1.0,0.5625,0.6875
2.3749999999999716,-1.0,0.0,0.0,0.0,2.0,23.0,3.0,1.0,0.3843994140625,0.697021484375,-0.60089111328125,-0.07305908203125,-0.37109375,-0.91455078125,-0.26806640625,-1.0,0.5625,0.6875
2.3799999999999715,-1.0,0.0,0.0,0.0,2.0,23.0,3.0,1.0,0.3843994140625,0.697021484375,-0.60089111328125,-0.07305908203125,-0.37109375,-0.91455078125,-0.26806640625,-1.0,0.5625,0.6875
2.3849999999999714,0.0,0.0,-1.0,3.0,-1.0,1.0,-2.0,-1.0,0.3843994140625,0.69696044921875,-0.60089111328125,-0.072998046875,-0.37744140625,-0.90771484375,-0.26318359375,-0.0625,0.5,0.6875
2.3899999999999713,-1.0,-3.0,-1.0,-2.0,-3.0,-10.0,-7.0,-1.0,0.3843994140625,0.69696044921875,-0.60089111328125,-0.072998046875,-0.37744140625,-0.90771484375,-0.26318359375,-0.0625,0.5,0.6875
2.394999999999971,-1.0,-3.0,-1.0,-2.0,-3.0,-10.0,-7.0,-1.0,0.3843994140625,0.69696044921875,-0.60089111328125,-0.072998046875,-0.37744140625,-0.90771484375,-0.26318359375,-0.0625,0.5,0.6875
2.399999999999971,-1.0,-3.0,-1.0,-2.0,-3.0,-10.0,-7.0,-1.0,0.3843994140625,0.69696044921875,-0.60089111328125,-0.072998046875,-0.37744140625,-0.90771484375,-0.26318359375,-0.0625,0.5,0.6875
2.404999999999971,-2.0,-1.0,-1.0,1.0,-4.0,-6.0,5.0,-1.0,0.3843994140625,0.69696044921875,-0.60089111328125,-0.072998046875,-0.37744140625,-0.90771484375,-0.26318359375,-0.0625,0.5,0.6875
2.409999999999971,-2.0,-1.0,-1.0,1.0,-4.0,-6.0,5.0,-1.0,0.3843994140625,0.69696044921875,-0.60089111328125,-0.072998046875,-0.37744140625,-0.90771484375,-0.26318359375,-0.0625,0.5,0.6875
2.4149999999999707,-1.0,-2.0,-1.0,-2.0,-1.0,6.0,1.0,-1.0,0.3843994140625,0.69696044921875,-0.6009521484375,-0.072998046875,-0.375,-0.90966796875,-0.267578125,-0.375,0.75,0.3125
2.4199999999999706,-1.0,-2.0,-1.0,-2.0,-1.0,6.0,1.0,-1.0,0.3843994140625,0.69696044921875,-0.6009521484375,-0.072998046875,-0.375,-0.90966796875,-0.267578125,-0.375,0.75,0.3125
2.4249999999999705,-1.0,-2.0,-1.0,-2.0,-1.0,6.0,1.0,-1.0,0.3843994140625,0.69696044921875,-0.6009521484375,-0.072998046875,-0.375,-0.90966796875,-0.267578125,-0.375,0.75,0.3125
2.4299999999999704,-1.0,-2.0,-1.0,-2.0,-1.0,6.0,1.0,-1.0,0.3843994140625,0.69696044921875,-0.6009521484375,-0.072998046875,-0.375,-0.90966796875,-0.267578125,-0.375,0.75,0.3125
2.4349999999999703,-1.0,0.0,-2.0,-3.0,3.0,-1.0,-1.0,0.0,0.3843994140625,0.69696044921875,-0.6009521484375,-0.072998046875,-0.375,-0.90966796875,-0.267578125,-0.375,0.75,0.3125
2.43999999999997,-1.0,0.0,-2.0,-3.0,3.0,-1.0,-1.0,0.0,0.3843994140625,0.69696044921875,-0.6009521484375,-0.072998046875,-0.375,-0.90966796875,-0.267578125,-0.375,0.75,0.3125
2.44499999999997,0.0,0.0,-1.0,-3.0,-2.0,-11.0,-3.0,-3.0,0.3843994140625,0.69696044921875,-0.6009521484375,-0.072998046875,-0.3740234375,-0.90625,-0.263671875,-0.875,0.8125,0.0
2.44999999999997,0.0,0.0,-1.0,-3.0,-2.0,-11.0,-3.0,-3.0,0.3843994140625,0.69696044921875,-0.6009521484375,-0.072998046875,-0.3740234375,-0.90625,-0.263671875,-0.875,0.8125,0.0
2.45499999999997,0.0,0.0,-1.0,-3.0,-2.0,-11.0,-3.0,-3.0,0.3843994140625,0.69696044921875,-0.6009521484375,-0.072998046875,-0.3740234375,-0.90625,-0.263671875,-0.875,0.8125,0.0
2.4599999999999698,0.0,0.0,-1.0,-3.0,-2.0,-11.0,-3.0,-3.0,0.3843994140625,0.69696044921875,-0.6009521484375,-0.072998046875,-0.3740234375,-0.90625,-0.263671875,-0.875,0.8125,0.0
2.4649999999999697,-1.0,1.0,1.0,0.0,-2.0,-5.0,-1.0,-1.0,0.38446044921875,0.697021484375,-0.60089111328125,-0.072998046875,-0.373046875,-0.9150390625,-0.26513671875,-1.125,0.6875,-0.3125
2.4699999999999696,-1.0,1.0,1.0,0.0,-2.0,-5.0,-1.0,-1.0,0.38446044921875,0.697021484375,-0.60089111328125,-0.072998046875,-0.373046875,-0.9150390625,-0.26513671875,-1.125,0.6875,-0.3125
2.4749999999999694,-1.0,1.0,1.0,0.0,-2.0,-5.0,-1.0,-1.0,0.38446044921875,0.697021484375,-0.60089111328125,-0.072998046875,-0.373046875,-0.9150390625,-0.26513671875,-1.125,0.6875,-0.3125
2.4799999999999693,2.0,-2.0,-1.0,-2.0,7.0,5.0,-2.0,-1.0,0.38446044921875,0.697021484375,-0.60089111328125,-0.072998046875,-0.373046875,-0.9150390625,-0.26513671875,-1.125,0.6875,-0.3125
2.4849999999999692,2.0,-2.0,-1.0,-2.0,7.0,5.0,-2.0,-1.0,0.38446044921875,0.697021484375,-0.60089111328125,-0.072998046875,-0.373046875,-0.9150390625,-0.26513671875,-1.125,0.6875,-0.3125
2.489999999999969,2.0,-2.0,-1.0,-2.0,7.0,5.0,-2.0,-1.0,0.38446044921875,0.697021484375,-0.60089111328125,-0.072998046875,-0.373046875,-0.9150390625,-0.26513671875,-1.125,0.6875,-0.3125
2.494999999999969,-3.0,-2.0,-3.0,-2.0,0.0,-5.0,-1.0,-2.0,0.384521484375,0.69708251953125,-0.60076904296875,-0.072998046875,-0.3701171875,-0.90771484375,-0.263671875,-1.1875,0.6875,-0.375
2.499999999999969,-3.0,-2.0,-3.0,-2.0,0.0,-5.0,-1.0,-2.0,0.384521484375,0.69708251953125,-0.60076904296875,-0.072998046875,-0.3701171875,-0.90771484375,-0.263671875,-1.1875,0.6875,-0.375
2.504999999999969,-3.0,-2.0,-3.0,-2.0,0.0,-5.0,-1.0,-2.0,0.384521484375,0.69708251953125,-0.60076904296875,-0.072998046875,-0.3701171875,-0.90771484375,-0.263671875,-1.1875,0.6875,-0.375
2.5099999999999687,-2.0,-1.0,-2.0,1.0,0.0,-1.0,-3.0,0.0,0.384521484375,0.69708251953125,-0.60076904296875,-0.072998046875,-0.3701171875,-0.90771484375,-0.263671875,-1.1875,0.6875,-0.375
2.5149999999999686,-2.0,-1.0,-2.0,1.0,0.0,-1.0,-3.0,0.0,0.384521484375,0.69708251953125,-0.60076904296875,-0.072998046875,-0.3701171875,-0.90771484375,-0.263671875,-1.1875,0.6875,-0.375
2.5199999999999685,-2.0,-1.0,-2.0,1.0,0.0,-1.0,-3.0,0.0,0.384521484375,0.69708251953125,-0.60076904296875,-0.072998046875,-0.3701171875,-0.90771484375,-0.263671875,-1.1875,0.6875,-0.375
2.5249999999999684,0.0,-2.0,-1.0,2.0,2.0,-4.0,1.0,0.0,0.384521484375,0.697021484375,-0.60076904296875,-0.072998046875,-0.3681640625,-0.904296875,-0.2646484375,-0.75,0.6875,-0.1875
2.5299999999999683,0.0,-2.0,-1.0,2.0,2.0,-4.0,1.0,0.0,0.384521484375,0.697021484375,-0.60076904296875,-0.072998046875,-0.3681640625,-0.904296875,-0.2646484375,-0.75,0.6875,-0.1875
2.534999999999968,0.0,-2.0,-1.0,2.0,2.0,-4.0,1.0,0.0,0.384521484375,0.697021484375,-0.60076904296875,-0.072998046875,-0.3681640625,-0.904296875,-0.2646484375,-0.75,0.6875,-0.1875
2.539999999999968,0.0,-2.0,-1.0,2.0,2.0,-4.0,1.0,0.0,0.384521484375,0.697021484375,-0.60076904296875,-0.072998046875,-0.3681640625,-0.904296875,-0.2646484375,-0.75,0.6875,-0.1875
2.544999999999968,-2.0,-2.0,-2.0,-8.0,-11.0,-8.0,-1.0,-1.0,0.38446044921875,0.697021484375,-0.60076904296875,-0.072998046875,-0.3662109375,-0.91455078125,-0.2646484375,-0.75,0.625,-0.125
2.549999999999968,-2.0,-2.0,-2.0,-8.0,-11.0,-8.0,-1.0,-1.0,0.38446044921875,0.697021484375,-0.60076904296875,-0.072998046875,-0.3662109375,-0.91455078125,-0.2646484375,-0.75,0.625,-0.125
2.5549999999999677,-2.0,-2.0,-2.0,-8.0,-11.0,-8.0,-1.0,-1.0,0.38446044921875,0.697021484375,-0.60076904296875,-0.072998046875,-0.3662109375,-0.91455078125,-0.2646484375,-0.75,0.625,-0.125
2.5599999999999676,-2.0,-2.0,-2.0,-8.0,-11.0,-8.0,-1.0,-1.0,0.38446044921875,0.697021484375,-0.60076904296875,-0.072998046875,-0.3662109375,-0.91455078125,-0.2646484375,-0.75,0.625,-0.125
2.5649999999999675,-2.0,-2.0,-2.0,-8.0,-11.0,-8.0,-1.0,-1.0,0.38446044921875,0.697021484375,-0.60076904296875,-0.072998046875,-0.3662109375,-0.91455078125,-0.2646484375,-0.75,0.625,-0.125
2.5699999999999674,-2.0,-2.0,-2.0,-8.0,-11.0,-8.0,-1.0,-1.0,0.38446044921875,0.697021484375,-0.60076904296875,-0.072998046875,-0.3662109375,-0.91455078125,-0.2646484375,-0.75,0.625,-0.125
2.5749999999999673,0.0,-1.0,-2.0,0.0,1.0,-8.0,-4.0,-2.0,0.38446044921875,0.697021484375,-0.600830078125,-0.072998046875,-0.36474609375,-0.9091796875,-0.265625,-0.75,0.5,-0.25
2.579999999999967,0.0,-1.0,-2.0,0.0,1.0,-8.0,-4.0,-2.0,0.38446044921875,0.697021484375,-0.600830078125,-0.072998046875,-0.36474609375,-0.9091796875,-0.265625,-0.75,0.5,-0.25
2.584999999999967,0.0,-1.0,-2.0,0.0,1.0,-8.0,-4.0,-2.0,0.38446044921875,0.697021484375,-0.600830078125,-0.072998046875,-0.36474609375,-0.9091796875,-0.265625,-0.75,0.5,-0.25
2.589999999999967,0.0,-1.0,-2.0,0.0,1.0,-8.0,-4.0,-2.0,0.38446044921875,0.697021484375,-0.600830078125,-0.072998046875,-0.36474609375,-0.9091796875,-0.265625,-0.75,0.5,-0.25
2.594999999999967,-2.0,-1.0,-2.0,-2.0,-5.0,-6.0,-1.0,-2.0,0.38446044921875,0.697021484375,-0.600830078125,-0.072998046875,-0.36474609375,-0.9091796875,-0.265625,-0.75,0.5,-0.25
2.599999999999967,-2.0,-1.0,-2.0,-2.0,-5.0,-6.0,-1.0,-2.0,0.38446044921875,0.697021484375,-0.600830078125,-0.072998046875,-0.36474609375,-0.9091796875,-0.265625,-0.75,0.5,-0.25
2.6049999999999667,-2.0,-1.0,-2.0,-2.0,-5.0,-6.0,-1.0,-2.0,0.38446044921875,0.697021484375,-0.600830078125,-0.072998046875,-0.36474609375,-0.9091796875,-0.265625,-0.75,0.5,-0.25
2.6099999999999666,-2.0,-1.0,-2.0,-2.0,-5.0,-6.0,-1.0,-2.0,0.38446044921875,0.697021484375,-0.600830078125,-0.072998046875,-0.36474609375,-0.9091796875,-0.265625,-0.75,0.5,-0.25
2.6149999999999665,-1.0,-2.0,0.0,-2.0,3.0,2.0,-4.0,0.0,0.38446044921875,0.697021484375,-0.600830078125,-0.072998046875,-0.3671875,-0.912109375,-0.26513671875,-0.6875,0.625,0.1875
2.6199999999999664,-1.0,-2.0,0.0,-2.0,3.0,2.0,-4.0,0.0,0.38446044921875,0.697021484375,-0.600830078125,-0.072998046875,-0.3671875,-0.912109375,-0.26513671875,-0.6875,0.625,0.1875
2.6249999999999662,-1.0,0.0,0.0,-2.0,5.0,3.0,1.0,0.0,0.38446044921875,0.697021484375,-0.600830078125,-0.072998046875,-0.3740234375,-0.90771484375,-0.27392578125,-0.8125,0.6875,0.1875
2.629999999999966,-1.0,0.0,0.0,-2.0,5.0,3.0,1.0,0.0,0.38446044921875,0.697021484375,-0.600830078125,-0.072998046875,-0.3740234375,-0.90771484375,-0.27392578125,-0.8125,0.6875,0.1875
2.634999999999966,-1.0,0.0,0.0,-2.0,5.0,3.0,1.0,0.0,0.38446044921875,0.697021484375,-0.600830078125,-0.072998046875,-0.3740234375,-0.90771484375,-0.27392578125,-0.8125,0.6875,0.1875
2.639999999999966,0.0,0.0,1.0,-2.0,2.0,6.0,1.0,-1.0,0.38446044921875,0.697021484375,-0.600830078125,-0.072998046875,-0.3740234375,-0.90771484375,-0.27392578125,-0.8125,0.6875,0.1875
2.644999999999966,0.0,0.0,1.0,-2.0,2.0,6.0,1.0,-1.0,0.38446044921875,0.697021484375,-0.600830078125,-0.072998046875,-0.3740234375,-0.90771484375,-0.27392578125,-0.8125,0.6875,0.1875
2.6499999999999657,-1.0,0.0,-3.0,-3.0,-1.0,0.0,-1.0,-1.0,0.384521484375,0.697021484375,-0.600830078125,-0.072998046875,-0.3759765625,-0.90966796875,-0.27099609375,-0.8125,0.75,0.25
2.6549999999999656,-1.0,0.0,-3.0,-3.0,-1.0,0.0,-1.0,-1.0,0.384521484375,0.697021484375,-0.600830078125,-0.072998046875,-0.3759765625,-0.90966796875,-0.27099609375,-0.8125,0.75,0.25
2.6599999999999655,-1.0,0.0,-3.0,-3.0,-1.0,0.0,-1.0,-1.0,0.384521484375,0.697021484375,-0.600830078125,-0.072998046875,-0.3759765625,-0.90966796875,-0.27099609375,-0.8125,0.75,0.25
2.6649999999999654,-1.0,0.0,-3.0,-3.0,-1.0,0.0,-1.0,-1.0,0.384521484375,0.697021484375,-0.600830078125,-0.072998046875,-0.3759765625,-0.90966796875,-0.27099609375,-0.8125,0.75,0.25
2.6699999999999653,-1.0,-1.0,-3.0,2.0,0.0,-5.0,-2.0,0.0,0.384521484375,0.697021484375,-0.600830078125,-0.072998046875,-0.3759765625,-0.90966796875,-0.27099609375,-0.8125,0.75,0.25
2.674999999999965,-2.0,-1.0,-1.0,1.0,1.0,0.0,3.0,-1.0,0.384521484375,0.69696044921875,-0.600830078125,-0.072998046875,-0.3740234375,-0.90869140625,-0.271484375,-0.75,0.875,0.125
2.679999999999965,-2.0,-1.0,-1.0,1.0,1.0,0.0,3.0,-1.0,0.384521484375,0.69696044921875,-0.600830078125,-0.072998046875,-0.3740234375,-0.90869140625,-0.271484375,-0.75,0.875,0.125
2.684999999999965,-2.0,-1.0,-1.0,1.0,1.0,0.0,3.0,-1.0,0.384521484375,0.69696044921875,-0.600830078125,-0.072998046875,-0.3740234375,-0.90869140625,-0.271484375,-0.75,0.875,0.125
2.689999999999965,-2.0,-1.0,-1.0,1.0,1.0,0.0,3.0,-1.0,0.384521484375,0.69696044921875,-0.600830078125,-0.072998046875,-0.3740234375,-0.90869140625,-0.271484375,-0.75,0.875,0.125
2.6949999999999648,-1.0,-2.0,-1.0,-3.0,-3.0,-7.0,2.0,-3.0,0.384521484375,0.69696044921875,-0.600830078125,-0.072998046875,-0.36962890625,-0.90869140625,-0.2666015625,-0.8125,0.9375,0.25
2.6999999999999647,-1.0,-2.0,-1.0,-3.0,-3.0,-7.0,2.0,-3.0,0.384521484375,0.69696044921875,-0.600830078125,-0.072998046875,-0.36962890625,-0.90869140625,-0.2666015625,-0.8125,0.9375,0.25
2.7049999999999645,-1.0,-2.0,-1.0,-3.0,-3.0,-7.0,2.0,-3.0,0.384521484375,0.69696044921875,-0.600830078125,-0.072998046875,-0.36962890625,-0.90869140625,-0.2666015625,-0.8125,0.9375,0.25
2.7099999999999644,-2.0,-2.0,-2.0,-3.0,1.0,-4.0,-2.0,-1.0,0.384521484375,0.69696044921875,-0.600830078125,-0.072998046875,-0.36962890625,-0.90869140625,-0.2666015625,-0.8125,0.9375,0.25
2.7149999999999643,-2.0,-2.0,-2.0,-3.0,1.0,-4.0,-2.0,-1.0,0.384521484375,0.69696044921875,-0.600830078125,-0.072998046875,-0.36962890625,-0.90869140625,-0.2666015625,-0.8125,0.9375,0.25
2.7199999999999642,0.0,-2.0,0.0,-1.0,-8.0,11.0,1.0,0.0,0.38470458984375,0.697021484375,-0.60064697265625,-0.07293701171875,-0.369140625,-0.9091796875,-0.2744140625,-1.0,1.0,0.4375
2.724999999999964,0.0,-2.0,0.0,-1.0,-8.0,11.0,1.0,0.0,0.38470458984375,0.697021484375,-0.60064697265625,-0.07293701171875,-0.369140625,-0.9091796875,-0.2744140625,-1.0,1.0,0.4375
2.729999999999964,0.0,-2.0,0.0,-1.0,-8.0,11.0,1.0,0.0,0.38470458984375,0.697021484375,-0.60064697265625,-0.07293701171875,-0.369140625,-0.9091796875,-0.2744140625,-1.0,1.0,0.4375
2.734999999999964,-2.0,0.0,-2.0,0.0,4.0,3.0,-5.0,-2.0,0.38470458984375,0.697021484375,-0.60064697265625,-0.07293701171875,-0.369140625,-0.9091796875,-0.2744140625,-1.0,1.0,0.4375
2.739999999999964,-2.0,-3.0,-1.0,-2.0,1.0,-5.0,-3.0,-2.0,0.38470458984375,0.697021484375,-0.60064697265625,-0.07293701171875,-0.3759765625,-0.9052734375,-0.275390625,-0.9375,0.875,0.625
2.7449999999999637,-2.0,-3.0,-1.0,-2.0,1.0,-5.0,-3.0,-2.0,0.38470458984375,0.697021484375,-0.60064697265625,-0.07293701171875,-0.3759765625,-0.9052734375,-0.275390625,-0.9375,0.875,0.625
2.7499999999999636,-2.0,-3.0,-1.0,-2.0,1.0,-5.0,-3.0,-2.0,0.38470458984375,0.697021484375,-0.60064697265625,-0.07293701171875,-0.3759765625,-0.9052734375,-0.275390625,-0.9375,0.875,0.625
2.7549999999999635,-2.0,-3.0,-1.0,-2.0,1.0,-5.0,-3.0,-2.0,0.38470458984375,0.697021484375,-0.60064697265625,-0.07293701171875,-0.3759765625,-0.9052734375,-0.275390625,-0.9375,0.875,0.625
2.7599999999999634,-1.0,0.0,-1.0,0.0,-3.0,-3.0,-3.0,0.0,0.38470458984375,0.697021484375,-0.60064697265625,-0.07293701171875,-0.3759765625,-0.9052734375,-0.275390625,-0.9375,0.875,0.625
2.7649999999999633,-1.0,-1.0,-1.0,-2.0,-5.0,2.0,-1.0,1.0,0.38494873046875,0.69708251953125,-0.60052490234375,-0.07275390625,-0.37744140625,-0.90869140625,-0.2724609375,-1.25,0.6875,0.625
2.769999999999963,-1.0,-1.0,-1.0,-2.0,-5.0,2.0,-1.0,1.0,0.38494873046875,0.69708251953125,-0.60052490234375,-0.07275390625,-0.37744140625,-0.90869140625,-0.2724609375,-1.25,0.6875,0.625
2.774999999999963,0.0,-1.0,-2.0,1.0,8.0,-2.0,-4.0,-2.0,0.38494873046875,0.69708251953125,-0.60052490234375,-0.07275390625,-0.37744140625,-0.90869140625,-0.2724609375,-1.25,0.6875,0.625
2.779999999999963,0.0,-1.0,-2.0,1.0,8.0,-2.0,-4.0,-2.0,0.38494873046875,0.69708251953125,-0.60052490234375,-0.07275390625,-0.37744140625,-0.90869140625,-0.2724609375,-1.25,0.6875,0.625
2.784999999999963,-1.0,1.0,0.0,0.0,3.0,3.0,1.0,1.0,0.3851318359375,0.69708251953125,-0.600341796875,-0.07269287109375,-0.373046875,-0.9130859375,-0.27001953125,-1.25,0.75,0.75
2.7899999999999627,-1.0,1.0,0.0,0.0,3.0,3.0,1.0,1.0,0.3851318359375,0.69708251953125,-0.600341796875,-0.07269287109375,-0.373046875,-0.9130859375,-0.27001953125,-1.25,0.75,0.75
2.7949999999999626,-1.0,-1.0,-4.0,-2.0,-3.0,-2.0,0.0,-2.0,0.3851318359375,0.69708251953125,-0.600341796875,-0.07269287109375,-0.373046875,-0.9130859375,-0.27001953125,-1.25,0.75,0.75
2.7999999999999625,-1.0,-1.0,-4.0,-2.0,-3.0,-2.0,0.0,-2.0,0.3851318359375,0.69708251953125,-0.60040283203125,-0.07269287109375,-0.37255859375,-0.912109375,-0.27197265625,-0.6875,0.5625,0.9375
2.8049999999999624,-1.0,-1.0,-4.0,-2.0,-3.0,-2.0,0.0,-2.0,0.3851318359375,0.69708251953125,-0.60040283203125,-0.07269287109375,-0.37255859375,-0.912109375,-0.27197265625,-0.6875,0.5625,0.9375
2.8099999999999623,-2.0,-1.0,-1.0,-1.0,-6.0,-4.0,-1.0,0.0,0.3851318359375,0.69708251953125,-0.60040283203125,-0.07269287109375,-0.37255859375,-0.912109375,-0.27197265625,-0.6875,0.5625,0.9375
2.814999999999962,-2.0,-1.0,-1.0,-1.0,-6.0,-4.0,-1.0,0.0,0.3851318359375,0.69708251953125,-0.60040283203125,-0.07269287109375,-0.37255859375,-0.912109375,-0.27197265625,-0.6875,0.5625,0.9375
2.819999999999962,-3.0,-2.0,-2.0,-2.0,0.0,5.0,-5.0,-2.0,0.3853759765625,0.697021484375,-0.60028076171875,-0.072509765625,-0.37353515625,-0.90771484375,-0.27490234375,-0.625,0.5,1.0
2.824999999999962,-3.0,-2.0,-2.0,-2.0,0.0,5.0,-5.0,-2.0,0.3853759765625,0.697021484375,-0.60028076171875,-0.072509765625,-0.37353515625,-0.90771484375,-0.27490234375,-0.625,0.5,1.0
2.829999999999962,-2.0,-2.0,-1.0,0.0,-5.0,3.0,-2.0,0.0,0.3853759765625,0.697021484375,-0.60028076171875,-0.072509765625,-0.37353515625,-0.90771484375,-0.27490234375,-0.625,0.5,1.0
2.8349999999999618,-2.0,-2.0,-1.0,0.0,-5.0,3.0,-2.0,0.0,0.3853759765625,0.697021484375,-0.60028076171875,-0.072509765625,-0.37353515625,-0.90771484375,-0.27490234375,-0.625,0.5,1.0
2.8399999999999617,0.0,-2.0,-2.0,-2.0,-3.0,-14.0,-10.0,-2.0,0.38555908203125,0.697021484375,-0.6002197265625,-0.0723876953125,-0.37158203125,-0.90869140625,-0.2666015625,-1.0625,0.375,1.125
2.8449999999999616,0.0,-2.0,-2.0,-2.0,-3.0,-14.0,-10.0,-2.0,0.38555908203125,0.697021484375,-0.6002197265625,-0.0723876953125,-0.37158203125,-0.90869140625,-0.2666015625,-1.0625,0.375,1.125
2.8499999999999615,0.0,-2.0,-2.0,-2.0,-3.0,-14.0,-10.0,-2.0,0.38555908203125,0.697021484375,-0.6002197265625,-0.0723876953125,-0.37158203125,-0.90869140625,-0.2666015625,-1.0625,0.375,1.125
2.8549999999999613,-1.0,1.0,-1.0,-1.0,2.0,7.0,1.0,0.0,0.38555908203125,0.697021484375,-0.6002197265625,-0.0723876953125,-0.37158203125,-0.90869140625,-0.2666015625,-1.0625,0.375,1.125
2.8599999999999612,-1.0,1.0,-1.0,-1.0,2.0,7.0,1.0,0.0,0.38555908203125,0.697021484375,-0.6002197265625,-0.0723876953125,-0.37158203125,-0.90869140625,-0.2666015625,-1.0625,0.375,1.125
2.864999999999961,-1.0,1.0,-1.0,1.0,-2.0,-4.0,-3.0,0.0,0.3857421875,0.69696044921875,-0.60015869140625,-0.072265625,-0.37060546875,-0.9150390625,-0.2705078125,-1.0,0.5,1.1875
2.869999999999961,-1.0,1.0,-1.0,1.0,-2.0,-4.0,-3.0,0.0,0.3857421875,0.69696044921875,-0.60015869140625,-0.072265625,-0.37060546875,-0.9150390625,-0.2705078125,-1.0,0.5,1.1875
2.874999999999961,-1.0,1.0,-1.0,1.0,-2.0,-4.0,-3.0,0.0,0.3857421875,0.69696044921875,-0.60015869140625,-0.072265625,-0.37060546875,-0.9150390625,-0.2705078125,-1.0,0.5,1.1875
2.879999999999961,0.0,0.0,1.0,2.0,4.0,11.0,3.0,0.0,0.385986328125,0.6968994140625,-0.60009765625,-0.0721435546875,-0.36962890625,-0.90771484375,-0.2705078125,-0.5,0.625,1.4375
2.8849999999999607,0.0,0.0,1.0,2.0,4.0,11.0,3.0,0.0,0.385986328125,0.6968994140625,-0.60009765625,-0.0721435546875,-0.36962890625,-0.90771484375,-0.2705078125,-0.5,0.625,1.4375
2.8899999999999606,0.0,0.0,1.0,2.0,4.0,11.0,3.0,0.0,0.385986328125,0.6968994140625,-0.60009765625,-0.0721435546875,-0.36962890625,-0.90771484375,-0.2705078125,-0.5,0.625,1.4375
2.8949999999999605,-3.0,0.0,-2.0,-2.0,-2.0,-7.0,0.0,-1.0,0.385986328125,0.6968994140625,-0.60009765625,-0.0721435546875,-0.36962890625,-0.90771484375,-0.2705078125,-0.5,0.625,1.4375
2.8999999999999604,0.0,-3.0,-1.0,2.0,5.0,0.0,1.0,1.0,0.385986328125,0.6968994140625,-0.60009765625,-0.0721435546875,-0.36962890625,-0.90771484375,-0.2705078125,-0.5,0.625,1.4375
2.9049999999999603,0.0,-3.0,-1.0,2.0,5.0,0.0,1.0,1.0,0.385986328125,0.6968994140625,-0.60009765625,-0.0721435546875,-0.36962890625,-0.90771484375,-0.2705078125,-0.5,0.625,1.4375
2.90999999999996,0.0,-3.0,-1.0,2.0,5.0,0.0,1.0,1.0,0.385986328125,0.6968994140625,-0.60009765625,-0.0721435546875,-0.36962890625,-0.90771484375,-0.2705078125,-0.5,0.625,1.4375
2.91499999999996,-1.0,-2.0,-2.0,2.0,1.0,-3.0,3.0,1.0,0.38623046875,0.69677734375,-0.60003662109375,-0.072021484375,-0.37255859375,-0.9091796875,-0.26611328125,-0.8125,0.75,1.375
2.91999999999996,-1.0,-2.0,-2.0,2.0,1.0,-3.0,3.0,1.0,0.38623046875,0.69677734375,-0.60003662109375,-0.072021484375,-0.37255859375,-0.9091796875,-0.26611328125,-0.8125,0.75,1.375
2.92499999999996,-2.0,-1.0,-1.0,0.0,-2.0,-1.0,-4.0,-3.0,0.38653564453125,0.69671630859375,-0.5999755859375,-0.0718994140625,-0.375,-0.90673828125,-0.2666015625,-1.0625,1.0,1.25
2.9299999999999597,-2.0,-1.0,-1.0,0.0,-2.0,-1.0,-4.0,-3.0,0.38653564453125,0.69671630859375,-0.5999755859375,-0.0718994140625,-0.375,-0.90673828125,-0.2666015625,-1.0625,1.0,1.25
2.9349999999999596,-2.0,-1.0,-1.0,0.0,-2.0,-1.0,-4.0,-3.0,0.38653564453125,0.69671630859375,-0.5999755859375,-0.0718994140625,-0.375,-0.90673828125,-0.2666015625,-1.0625,1.0,1.25
2.9399999999999595,-2.0,-1.0,-1.0,0.0,-2.0,-1.0,-4.0,-3.0,0.38653564453125,0.69671630859375,-0.5999755859375,-0.0718994140625,-0.375,-0.90673828125,-0.2666015625,-1.0625,1.0,1.25
2.9449999999999594,-3.0,-2.0,-1.0,-1.0,-3.0,9.0,3.0,1.0,0.38677978515625,0.69677734375,-0.59979248046875,-0.07183837890625,-0.37451171875,-0.90966796875,-0.26904296875,-1.5625,1.375,1.0
2.9499999999999593,0.0,-2.0,-1.0,-1.0,-1.0,2.0,2.0,0.0,0.38677978515625,0.69677734375,-0.59979248046875,-0.07183837890625,-0.37451171875,-0.90966796875,-0.26904296875,-1.5625,1.375,1.0
2.954999999999959,0.0,-2.0,-1.0,-1.0,-1.0,2.0,2.0,0.0,0.38677978515625,0.69677734375,-0.59979248046875,-0.07183837890625,-0.37451171875,-0.90966796875,-0.26904296875,-1.5625,1.375,1.0
2.959999999999959,0.0,-2.0,-2.0,-2.0,-2.0,-7.0,-5.0,-3.0,0.38677978515625,0.69677734375,-0.59979248046875,-0.07183837890625,-0.37451171875,-0.90966796875,-0.26904296875,-1.5625,1.375,1.0
2.964999999999959,0.0,-2.0,-2.0,-2.0,-2.0,-7.0,-5.0,-3.0,0.38677978515625,0.69677734375,-0.59979248046875,-0.07183837890625,-0.37451171875,-0.90966796875,-0.26904296875,-1.5625,1.375,1.0
2.969999999999959,0.0,0.0,-1.0,-1.0,1.0,4.0,0.0,0.0,0.38714599609375,0.69677734375,-0.59954833984375,-0.07177734375,-0.37060546875,-0.90234375,-0.26953125,-1.4375,1.625,1.1875
2.974999999999959,0.0,0.0,-1.0,-1.0,1.0,4.0,0.0,0.0,0.38714599609375,0.69677734375,-0.59954833984375,-0.07177734375,-0.37060546875,-0.90234375,-0.26953125,-1.4375,1.625,1.1875
2.9799999999999587,0.0,0.0,-1.0,-1.0,1.0,4.0,0.0,0.0,0.38714599609375,0.69677734375,-0.59954833984375,-0.07177734375,-0.37060546875,-0.90234375,-0.26953125,-1.4375,1.625,1.1875
2.9849999999999586,0.0,0.0,-1.0,-1.0,1.0,4.0,0.0,0.0,0.38714599609375,0.69677734375,-0.59954833984375,-0.07177734375,-0.37060546875,-0.90234375,-0.26953125,-1.4375,1.625,1.1875
2.9899999999999585,1.0,0.0,0.0,-3.0,-4.0,-4.0,1.0,-1.0,0.38714599609375,0.69677734375,-0.59954833984375,-0.07177734375,-0.37060546875,-0.90234375,-0.26953125,-1.4375,1.625,1.1875
2.9949999999999584,1.0,0.0,0.0,-3.0,-4.0,-4.0,1.0,-1.0,0.38714599609375,0.69677734375,-0.59954833984375,-0.07177734375,-0.37060546875,-0.90234375,-0.26953125,-1.4375,1.625,1.1875
2.9999999999999583,1.0,0.0,0.0,-3.0,-4.0,-4.0,1.0,-1.0,0.38714599609375,0.69677734375,-0.59954833984375,-0.07177734375,-0.37060546875,-0.90234375,-0.26953125,-1.4375,1.625,1.1875
3.004999999999958,1.0,0.0,0.0,-3.0,-4.0,-4.0,1.0,-1.0,0.38714599609375,0.69677734375,-0.59954833984375,-0.07177734375,-0.37060546875,-0.90234375,-0.26953125,-1.4375,1.625,1.1875
3.009999999999958,1.0,0.0,-3.0,-1.0,-4.0,-4.0,0.0,0.0,0.38751220703125,0.69671630859375,-0.599365234375,-0.07171630859375,-0.38037109375,-0.908203125,-0.2685546875,-1.5625,1.625,1.3125
3.014999999999958,1.0,0.0,-3.0,-1.0,-4.0,-4.0,0.0,0.0,0.38751220703125,0.69671630859375,-0.599365234375,-0.07171630859375,-0.38037109375,-0.908203125,-0.2685546875,-1.5625,1.625,1.3125
3.019999999999958,-4.0,-2.0,-1.0,-2.0,-3.0,-2.0,-3.0,-3.0,0.3878173828125,0.69683837890625,-0.59906005859375,-0.0716552734375,-0.3740234375,-0.9072265625,-0.26953125,-2.25,1.6875,0.875
3.0249999999999577,-4.0,-2.0,-1.0,-2.0,-3.0,-2.0,-3.0,-3.0,0.3878173828125,0.69683837890625,-0.59906005859375,-0.0716552734375,-0.3740234375,-0.9072265625,-0.26953125,-2.25,1.6875,0.875
3.0299999999999576,-2.0,-2.0,0.0,-1.0,1.0,-2.0,7.0,-1.0,0.3878173828125,0.69683837890625,-0.59906005859375,-0.0716552734375,-0.3740234375,-0.9072265625,-0.26953125,-2.25,1.6875,0.875
3.0349999999999575,-2.0,-2.0,0.0,-1.0,1.0,-2.0,7.0,-1.0,0.3878173828125,0.69683837890625,-0.59906005859375,-0.0716552734375,-0.3740234375,-0.9072265625,-0.26953125,-2.25,1.6875,0.875
3.0399999999999574,-2.0,-2.0,0.0,-1.0,1.0,-2.0,7.0,-1.0,0.3878173828125,0.69683837890625,-0.59906005859375,-0.0716552734375,-0.3740234375,-0.9072265625,-0.26953125,-2.25,1.6875,0.875
3.0449999999999573,-2.0,-2.0,0.0,-1.0,1.0,-2.0,7.0,-1.0,0.3878173828125,0.69683837890625,-0.59906005859375,-0.0716552734375,-0.3740234375,-0.9072265625,-0.26953125,-2.25,1.6875,0.875
3.049999999999957,0.0,-2.0,-2.0,-4.0,-4.0,-7.0,-2.0,-1.0,0.38812255859375,0.69696044921875,-0.5987548828125,-0.071533203125,-0.3779296875,-0.90478515625,-0.279296875,-2.125,1.6875,0.75
3.054999999999957,0.0,-2.0,-2.0,-4.0,-1.0,4.0,-2.0,-2.0,0.38812255859375,0.69696044921875,-0.5987548828125,-0.071533203125,-0.3779296875,-0.90478515625,-0.279296875,-2.125,1.6875,0.75
3.059999999999957,0.0,-2.0,-2.0,-4.0,-1.0,4.0,-2.0,-2.0,0.38812255859375,0.69696044921875,-0.5987548828125,-0.071533203125,-0.3779296875,-0.90478515625,-0.279296875,-2.125,1.6875,0.75
3.064999999999957,0.0,-2.0,-2.0,-4.0,-1.0,4.0,-2.0,-2.0,0.38812255859375,0.69696044921875,-0.5987548828125,-0.071533203125,-0.3779296875,-0.90478515625,-0.279296875,-2.125,1.6875,0.75
3.0699999999999568,-2.0,-1.0,0.0,-1.0,2.0,2.0,2.0,-2.0,0.38812255859375,0.69696044921875,-0.5987548828125,-0.071533203125,-0.3779296875,-0.90478515625,-0.279296875,-2.125,1.6875,0.75
3.0749999999999567,-2.0,-1.0,0.0,-1.0,2.0,2.0,2.0,-2.0,0.38812255859375,0.69696044921875,-0.5987548828125,-0.071533203125,-0.3779296875,-0.90478515625,-0.279296875,-2.125,1.6875,0.75
3.0799999999999566,-1.0,-1.0,-3.0,-14.0,-4.0,-3.0,-5.0,-2.0,0.38848876953125,0.69696044921875,-0.59857177734375,-0.0714111328125,-0.3818359375,-0.9033203125,-0.27197265625,-1.5625,1.3125,0.875
3.0849999999999564,-1.0,-1.0,-3.0,-14.0,-4.0,-3.0,-5.0,-2.0,0.38848876953125,0.69696044921875,-0.59857177734375,-0.0714111328125,-0.3818359375,-0.9033203125,-0.27197265625,-1.5625,1.3125,0.875
3.0899999999999563,-1.0,-1.0,-3.0,-14.0,-4.0,-3.0,-5.0,-2.0,0.38848876953125,0.69696044921875,-0.59857177734375,-0.0714111328125,-0.3818359375,-0.9033203125,-0.27197265625,-1.5625,1.3125,0.875
3.0949999999999562,-1.0,1.0,-3.0,-1.0,-3.0,-4.0,-5.0,-2.0,0.38848876953125,0.69696044921875,-0.59857177734375,-0.0714111328125,-0.3818359375,-0.9033203125,-0.27197265625,-1.5625,1.3125,0.875
3.099999999999956,-1.0,1.0,-3.0,-1.0,-3.0,-4.0,-5.0,-2.0,0.38848876953125,0.69696044921875,-0.59857177734375,-0.0714111328125,-0.3818359375,-0.9033203125,-0.27197265625,-1.5625,1.3125,0.875
3.104999999999956,-1.0,1.0,-3.0,-1.0,-3.0,-4.0,-5.0,-2.0,0.38848876953125,0.69696044921875,-0.59857177734375,-0.0714111328125,-0.3818359375,-0.9033203125,-0.27197265625,-1.5625,1.3125,0.875
3.109999999999956,-2.0,-1.0,-1.0,1.0,0.0,5.0,1.0,0.0,0.3887939453125,0.697021484375,-0.59820556640625,-0.0712890625,-0.38037109375,-0.90380859375,-0.2802734375,-2.0,1.375,0.8125
3.114999999999956,-2.0,-3.0,-1.0,-2.0,-1.0,9.0,-2.0,-1.0,0.3887939453125,0.697021484375,-0.59820556640625,-0.0712890625,-0.38037109375,-0.90380859375,-0.2802734375,-2.0,1.375,0.8125
3.1199999999999557,-2.0,-3.0,-1.0,-2.0,-1.0,9.0,-2.0,-1.0,0.3887939453125,0.697021484375,-0.59820556640625,-0.0712890625,-0.38037109375,-0.90380859375,-0.2802734375,-2.0,1.375,0.8125
3.1249999999999556,-2.0,-3.0,-1.0,-2.0,-1.0,9.0,-2.0,-1.0,0.3887939453125,0.697021484375,-0.59820556640625,-0.0712890625,-0.38037109375,-0.90380859375,-0.2802734375,-2.0,1.375,0.8125
3.1299999999999555,0.0,-1.0,1.0,1.0,1.0,-2.0,0.0,0.0,0.3890380859375,0.69708251953125,-0.5980224609375,-0.0711669921875,-0.38330078125,-0.90576171875,-0.2744140625,-1.625,1.125,0.4375
3.1349999999999554,0.0,-1.0,1.0,1.0,1.0,-2.0,0.0,0.0,0.3890380859375,0.69708251953125,-0.5980224609375,-0.0711669921875,-0.38330078125,-0.90576171875,-0.2744140625,-1.625,1.125,0.4375
3.1399999999999553,0.0,-1.0,1.0,1.0,1.0,-2.0,0.0,0.0,0.3890380859375,0.69708251953125,-0.5980224609375,-0.0711669921875,-0.38330078125,-0.90576171875,-0.2744140625,-1.625,1.125,0.4375
3.144999999999955,0.0,0.0,-2.0,2.0,-2.0,-7.0,-1.0,-1.0,0.3890380859375,0.69708251953125,-0.5980224609375,-0.0711669921875,-0.38330078125,-0.90576171875,-0.2744140625,-1.625,1.125,0.4375
3.149999999999955,0.0,0.0,-2.0,2.0,-2.0,-7.0,-1.0,-1.0,0.3890380859375,0.69708251953125,-0.5980224609375,-0.0711669921875,-0.38330078125,-0.90576171875,-0.2744140625,-1.625,1.125,0.4375
3.154999999999955,0.0,-1.0,1.0,-1.0,5.0,0.0,-2.0,-3.0,0.3890380859375,0.697021484375,-0.59808349609375,-0.0711669921875,-0.39208984375,-0.9091796875,-0.27734375,-0.9375,0.875,0.125
3.159999999999955,0.0,-1.0,1.0,-1.0,5.0,0.0,-2.0,-3.0,0.3890380859375,0.697021484375,-0.59808349609375,-0.0711669921875,-0.39208984375,-0.9091796875,-0.27734375,-0.9375,0.875,0.125
3.1649999999999547,0.0,-1.0,1.0,-1.0,5.0,0.0,-2.0,-3.0,0.3890380859375,0.697021484375,-0.59808349609375,-0.0711669921875,-0.39208984375,-0.9091796875,-0.27734375,-0.9375,0.875,0.125
3.1699999999999546,0.0,-1.0,1.0,-1.0,5.0,0.0,-2.0,-3.0,0.3890380859375,0.697021484375,-0.59808349609375,-0.0711669921875,-0.39208984375,-0.9091796875,-0.27734375,-0.9375,0.875,0.125
3.1749999999999545,-1.0,-2.0,-1.0,1.0,1.0,-5.0,-3.0,0.0,0.38916015625,0.6971435546875,-0.597900390625,-0.07110595703125,-0.38330078125,-0.900390625,-0.27880859375,-1.25,0.6875,-0.4375
3.1799999999999544,-1.0,-2.0,-1.0,1.0,1.0,-5.0,-3.0,0.0,0.38916015625,0.6971435546875,-0.597900390625,-0.07110595703125,-0.38330078125,-0.900390625,-0.27880859375,-1.25,0.6875,-0.4375
3.1849999999999543,-3.0,0.0,-3.0,0.0,0.0,0.0,-1.0,-2.0,0.38916015625,0.6971435546875,-0.597900390625,-0.07110595703125,-0.38330078125,-0.900390625,-0.27880859375,-1.25,0.6875,-0.4375
3.189999999999954,-3.0,0.0,-3.0,0.0,0.0,0.0,-1.0,-2.0,0.38916015625,0.6971435546875,-0.597900390625,-0.07110595703125,-0.38330078125,-0.900390625,-0.27880859375,-1.25,0.6875,-0.4375
3.194999999999954,1.0,-1.0,1.0,0.0,-2.0,-1.0,-2.0,-2.0,0.38916015625,0.6971435546875,-0.597900390625,-0.07110595703125,-0.38330078125,-0.900390625,-0.27880859375,-1.25,0.6875,-0.4375
3.199999999999954,1.0,-1.0,1.0,0.0,-2.0,-1.0,-2.0,-2.0,0.38916015625,0.6971435546875,-0.597900390625,-0.07110595703125,-0.38330078125,-0.900390625,-0.27880859375,-1.25,0.6875,-0.4375
3.204999999999954,-2.0,-1.0,0.0,1.0,2.0,10.0,1.0,-2.0,0.38922119140625,0.6973876953125,-0.59759521484375,-0.07098388671875,-0.37939453125,-0.908203125,-0.2822265625,-2.1875,0.375,-0.25
3.209999999999954,-2.0,-1.0,0.0,1.0,2.0,10.0,1.0,-2.0,0.38922119140625,0.6973876953125,-0.59759521484375,-0.07098388671875,-0.37939453125,-0.908203125,-0.2822265625,-2.1875,0.375,-0.25
3.2149999999999537,-2.0,-1.0,0.0,1.0,2.0,10.0,1.0,-2.0,0.38922119140625,0.6973876953125,-0.59759521484375,-0.07098388671875,-0.37939453125,-0.908203125,-0.2822265625,-2.1875,0.375,-0.25
3.2199999999999536,-2.0,-1.0,0.0,1.0,2.0,10.0,1.0,-2.0,0.38922119140625,0.6973876953125,-0.59759521484375,-0.07098388671875,-0.37939453125,-0.908203125,-0.2822265625,-2.1875,0.375,-0.25
3.2249999999999535,-1.0,0.0,-1.0,-1.0,-3.0,-10.0,-2.0,0.0,0.38922119140625,0.6973876953125,-0.59759521484375,-0.07098388671875,-0.37939453125,-0.908203125,-0.2822265625,-2.1875,0.375,-0.25
3.2299999999999534,-1.0,0.0,-1.0,-1.0,-3.0,-10.0,-2.0,0.0,0.38922119140625,0.6973876953125,-0.59759521484375,-0.07098388671875,-0.37939453125,-0.908203125,-0.2822265625,-2.1875,0.375,-0.25
3.2349999999999532,-1.0,0.0,-1.0,-1.0,-3.0,-10.0,-2.0,0.0,0.3892822265625,0.697509765625,-0.59735107421875,-0.07086181640625,-0.376953125,-0.90966796875,-0.2841796875,-1.75,0.25,0.125
3.239999999999953,1.0,-1.0,0.0,-1.0,-1.0,-3.0,-1.0,-1.0,0.3892822265625,0.697509765625,-0.59735107421875,-0.07086181640625,-0.376953125,-0.90966796875,-0.2841796875,-1.75,0.25,0.125
3.244999999999953,1.0,-1.0,0.0,-1.0,-1.0,-3.0,-1.0,-1.0,0.3892822265625,0.697509765625,-0.59735107421875,-0.07086181640625,-0.376953125,-0.90966796875,-0.2841796875,-1.75,0.25,0.125
3.249999999999953,1.0,-1.0,0.0,-1.0,-1.0,-3.0,-1.0,-1.0,0.3892822265625,0.697509765625,-0.59735107421875,-0.07086181640625,-0.376953125,-0.90966796875,-0.2841796875,-1.75,0.25,0.125
3.254999999999953,-2.0,-2.0,0.0,-2.0,3.0,4.0,1.0,0.0,0.389404296875,0.6976318359375,-0.59722900390625,-0.07080078125,-0.37109375,-0.9072265625,-0.283203125,-1.0625,0.25,0.5
3.2599999999999527,-2.0,-2.0,0.0,-2.0,3.0,4.0,1.0,0.0,0.389404296875,0.6976318359375,-0.59722900390625,-0.07080078125,-0.37109375,-0.9072265625,-0.283203125,-1.0625,0.25,0.5
3.2649999999999526,0.0,-3.0,-3.0,-1.0,1.0,-8.0,-1.0,0.0,0.389404296875,0.6976318359375,-0.59722900390625,-0.07080078125,-0.37109375,-0.9072265625,-0.283203125,-1.0625,0.25,0.5
3.2699999999999525,0.0,-1.0,-1.0,2.0,6.0,3.0,5.0,-1.0,0.389404296875,0.6976318359375,-0.59722900390625,-0.07080078125,-0.37109375,-0.9072265625,-0.283203125,-1.0625,0.25,0.5
