0.005,0.0,0.0,0.0,7.0,2.0,-6.0,0.0,1.0,0.67572021484375,0.37811279296875,-0.58441162109375,-0.24267578125,-0.62744140625,-0.7880859375,-0.205078125,-0.9375,1.0625,0.1875
0.01,0.0,0.0,0.0,7.0,2.0,-6.0,0.0,1.0,0.67572021484375,0.37811279296875,-0.58441162109375,-0.24267578125,-0.62744140625,-0.7880859375,-0.205078125,-0.9375,1.0625,0.1875
0.015,17.0,5.0,-1.0,14.0,-1.0,5.0,3.0,0.0,0.67572021484375,0.37811279296875,-0.58441162109375,-0.24267578125,-0.62744140625,-0.7880859375,-0.205078125,-0.9375,1.0625,0.1875
0.02,17.0,5.0,-1.0,14.0,-1.0,5.0,3.0,0.0,0.67572021484375,0.37811279296875,-0.58441162109375,-0.24267578125,-0.62744140625,-0.7880859375,-0.205078125,-0.9375,1.0625,0.1875
0.025,17.0,5.0,-1.0,14.0,-1.0,5.0,3.0,0.0,0.6759033203125,0.37799072265625,-0.58428955078125,-0.24267578125,-0.625,-0.78369140625,-0.20703125,0.0625,1.0625,0.1875
0.030000000000000002,17.0,5.0,-1.0,14.0,-1.0,5.0,3.0,0.0,0.6759033203125,0.37799072265625,-0.58428955078125,-0.24267578125,-0.625,-0.78369140625,-0.20703125,0.0625,1.0625,0.1875
0.035,-2.0,1.0,1.0,-11.0,2.0,11.0,3.0,0.0,0.6759033203125,0.37799072265625,-0.58428955078125,-0.24267578125,-0.625,-0.78369140625,-0.20703125,0.0625,1.0625,0.1875
0.04,-2.0,1.0,1.0,-11.0,2.0,11.0,3.0,0.0,0.6759033203125,0.37799072265625,-0.58428955078125,-0.24267578125,-0.625,-0.78369140625,-0.20703125,0.0625,1.0625,0.1875
0.045,-12.0,-1.0,-1.0,7.0,2.0,7.0,0.0,1.0,0.6759033203125,0.37799072265625,-0.58428955078125,-0.24267578125,-0.625,-0.78369140625,-0.20703125,0.0625,1.0625,0.1875
0.049999999999999996,-12.0,-1.0,-1.0,7.0,2.0,7.0,0.0,1.0,0.6759033203125,0.37799072265625,-0.58428955078125,-0.24267578125,-0.625,-0.78369140625,-0.20703125,0.0625,1.0625,0.1875
0.05499999999999999,-12.0,-1.0,-1.0,7.0,2.0,7.0,0.0,1.0,0.676025390625,0.3780517578125,-0.5841064453125,-0.2425537109375,-0.62255859375,-0.78759765625,-0.20458984375,-1.3125,0.8125,0.3125
0.05999999999999999,-12.0,-1.0,-1.0,7.0,2.0,7.0,0.0,1.0,0.676025390625,0.3780517578125,-0.5841064453125,-0.2425537109375,-0.62255859375,-0.78759765625,-0.20458984375,-1.3125,0.8125,0.3125
0.06499999999999999,1.0,-2.0,-3.0,-9.0,-4.0,-8.0,-10.0,-1.0,0.676025390625,0.3780517578125,-0.5841064453125,-0.2425537109375,-0.62255859375,-0.78759765625,-0.20458984375,-1.3125,0.8125,0.3125
0.06999999999999999,1.0,-2.0,-3.0,-9.0,-4.0,-8.0,-10.0,-1.0,0.676025390625,0.3780517578125,-0.5841064453125,-0.2425537109375,-0.62255859375,-0.78759765625,-0.20458984375,-1.3125,0.8125,0.3125
0.075,0.0,-1.0,-3.0,-3.0,-2.0,-5.0,0.0,-1.0,0.67620849609375,0.3780517578125,-0.583984375,-0.24237060546875,-0.6240234375,-0.787109375,-0.208984375,-1.0625,0.625,0.3125
0.08,0.0,-1.0,-3.0,-3.0,-2.0,-5.0,0.0,-1.0,0.67620849609375,0.3780517578125,-0.583984375,-0.24237060546875,-0.6240234375,-0.787109375,-0.208984375,-1.0625,0.625,0.3125
0.085,0.0,-1.0,-3.0,-3.0,-2.0,-5.0,0.0,-1.0,0.67620849609375,0.3780517578125,-0.583984375,-0.24237060546875,-0.6240234375,-0.787109375,-0.208984375,-1.0625,0.625,0.3125
0.09000000000000001,0.0,-1.0,-3.0,-3.0,-2.0,-5.0,0.0,-1.0,0.67620849609375,0.3780517578125,-0.583984375,-0.24237060546875,-0.6240234375,-0.787109375,-0.208984375,-1.0625,0.625,0.3125
0.09500000000000001,-7.0,-4.0,-1.0,2.0,0.0,34.0,1.0,1.0,0.67620849609375,0.3780517578125,-0.583984375,-0.24237060546875,-0.6240234375,-0.787109375,-0.208984375,-1.0625,0.625,0.3125
0.10000000000000002,-7.0,-4.0,-1.0,2.0,0.0,34.0,1.0,1.0,0.67620849609375,0.3780517578125,-0.583984375,-0.24237060546875,-0.62255859375,-0.7939453125,-0.20703125,-0.375,0.5,0.625
0.10500000000000002,-7.0,-4.0,-1.0,2.0,0.0,34.0,1.0,1.0,0.67620849609375,0.3780517578125,-0.583984375,-0.24237060546875,-0.62255859375,-0.7939453125,-0.20703125,-0.375,0.5,0.625
0.11000000000000003,-7.0,-4.0,-1.0,2.0,0.0,34.0,1.0,1.0,0.67620849609375,0.3780517578125,-0.583984375,-0.24237060546875,-0.62255859375,-0.7939453125,-0.20703125,-0.375,0.5,0.625
0.11500000000000003,-7.0,-4.0,-1.0,2.0,0.0,34.0,1.0,1.0,0.67620849609375,0.3780517578125,-0.583984375,-0.24237060546875,-0.62255859375,-0.7939453125,-0.20703125,-0.375,0.5,0.625
0.12000000000000004,-7.0,-4.0,-1.0,2.0,0.0,34.0,1.0,1.0,0.67620849609375,0.3780517578125,-0.583984375,-0.24237060546875,-0.62255859375,-0.7939453125,-0.20703125,-0.375,0.5,0.625
0.12500000000000003,6.0,0.0,0.0,-6.0,0.0,-14.0,1.0,-1.0,0.67620849609375,0.3780517578125,-0.583984375,-0.24237060546875,-0.62255859375,-0.7939453125,-0.20703125,-0.375,0.5,0.625
0.13000000000000003,6.0,0.0,0.0,-6.0,0.0,-14.0,1.0,-1.0,0.67620849609375,0.3780517578125,-0.583984375,-0.24237060546875,-0.62646484375,-0.783203125,-0.19677734375,0.625,0.5625,0.6875
0.13500000000000004,6.0,0.0,0.0,-6.0,0.0,-14.0,1.0,-1.0,0.67620849609375,0.3780517578125,-0.583984375,-0.24237060546875,-0.62646484375,-0.783203125,-0.19677734375,0.625,0.5625,0.6875
0.14000000000000004,-15.0,-14.0,-6.0,-39.0,-5.0,3.0,1.0,0.0,0.67620849609375,0.3780517578125,-0.583984375,-0.24237060546875,-0.62646484375,-0.783203125,-0.19677734375,0.625,0.5625,0.6875
0.14500000000000005,-15.0,-14.0,-6.0,-39.0,-5.0,3.0,1.0,0.0,0.67620849609375,0.3780517578125,-0.583984375,-0.24237060546875,-0.62646484375,-0.783203125,-0.19677734375,0.625,0.5625,0.6875
0.15000000000000005,-6.0,-2.0,-2.0,-4.0,-3.0,-4.0,-5.0,-2.0,0.67620849609375,0.3780517578125,-0.583984375,-0.24237060546875,-0.62646484375,-0.783203125,-0.19677734375,0.625,0.5625,0.6875
0.15500000000000005,-6.0,-2.0,-2.0,-4.0,-3.0,-4.0,-5.0,-2.0,0.67620849609375,0.3780517578125,-0.58404541015625,-0.24237060546875,-0.62255859375,-0.78466796875,-0.1962890625,0.0625,0.625,0.625
0.16000000000000006,-6.0,-2.0,-2.0,-4.0,-3.0,-4.0,-5.0,-2.0,0.67620849609375,0.3780517578125,-0.58404541015625,-0.24237060546875,-0.62255859375,-0.78466796875,-0.1962890625,0.0625,0.625,0.625
0.16500000000000006,-6.0,-2.0,-2.0,-4.0,-3.0,-4.0,-5.0,-2.0,0.67620849609375,0.3780517578125,-0.58404541015625,-0.24237060546875,-0.62255859375,-0.78466796875,-0.1962890625,0.0625,0.625,0.625
0.17000000000000007,-1.0,3.0,-1.0,12.0,-7.0,-9.0,-3.0,-2.0,0.67620849609375,0.3780517578125,-0.58404541015625,-0.24237060546875,-0.62255859375,-0.78466796875,-0.1962890625,0.0625,0.625,0.625
0.17500000000000007,-10.0,0.0,-5.0,-7.0,-4.0,-9.0,1.0,1.0,0.67620849609375,0.3780517578125,-0.58404541015625,-0.24237060546875,-0.62255859375,-0.78466796875,-0.1962890625,0.0625,0.625,0.625
0.18000000000000008,-10.0,0.0,-5.0,-7.0,-4.0,-9.0,1.0,1.0,0.6761474609375,0.37799072265625,-0.58404541015625,-0.24237060546875,-0.62548828125,-0.78564453125,-0.1962890625,-0.9375,0.5625,0.4375
0.18500000000000008,-10.0,0.0,-5.0,-7.0,-4.0,-9.0,1.0,1.0,0.6761474609375,0.37799072265625,-0.58404541015625,-0.24237060546875,-0.62548828125,-0.78564453125,-0.1962890625,-0.9375,0.5625,0.4375
0.19000000000000009,-10.0,0.0,-5.0,-7.0,-4.0,-9.0,1.0,1.0,0.6761474609375,0.37799072265625,-0.58404541015625,-0.24237060546875,-0.62548828125,-0.78564453125,-0.1962890625,-0.9375,0.5625,0.4375
0.1950000000000001,0.0,1.0,-1.0,12.0,1.0,-8.0,2.0,0.0,0.6761474609375,0.37799072265625,-0.58404541015625,-0.24237060546875,-0.62548828125,-0.78564453125,-0.1962890625,-0.9375,0.5625,0.4375
0.2000000000000001,-3.0,1.0,4.0,9.0,1.0,-17.0,0.0,-1.0,0.6761474609375,0.37799072265625,-0.58404541015625,-0.24237060546875,-0.62548828125,-0.78564453125,-0.1962890625,-0.9375,0.5625,0.4375
0.2050000000000001,-3.0,1.0,4.0,9.0,1.0,-17.0,0.0,-1.0,0.6761474609375,0.37799072265625,-0.58404541015625,-0.24237060546875,-0.62548828125,-0.78564453125,-0.1962890625,-0.9375,0.5625,0.4375
0.2100000000000001,-3.0,1.0,4.0,9.0,1.0,-17.0,0.0,-1.0,0.6761474609375,0.37799072265625,-0.58404541015625,-0.24237060546875,-0.62548828125,-0.78564453125,-0.1962890625,-0.9375,0.5625,0.4375
0.2150000000000001,-3.0,1.0,4.0,9.0,1.0,-17.0,0.0,-1.0,0.67626953125,0.37799072265625,-0.583984375,-0.24237060546875,-0.62255859375,-0.78564453125,-0.19677734375,-0.75,1.0,0.1875
0.2200000000000001,-2.0,-2.0,-3.0,-4.0,1.0,8.0,-4.0,-1.0,0.67626953125,0.37799072265625,-0.583984375,-0.24237060546875,-0.62255859375,-0.78564453125,-0.19677734375,-0.75,1.0,0.1875
0.22500000000000012,-2.0,-2.0,-3.0,-4.0,1.0,8.0,-4.0,-1.0,0.67626953125,0.37799072265625,-0.583984375,-0.24237060546875,-0.62255859375,-0.78564453125,-0.19677734375,-0.75,1.0,0.1875
0.23000000000000012,-2.0,-2.0,-3.0,-4.0,1.0,8.0,-4.0,-1.0,0.67626953125,0.37799072265625,-0.583984375,-0.24237060546875,-0.62255859375,-0.78564453125,-0.19677734375,-0.75,1.0,0.1875
0.23500000000000013,2.0,-4.0,-3.0,11.0,-3.0,-14.0,-4.0,-3.0,0.6763916015625,0.3779296875,-0.5838623046875,-0.242431640625,-0.619140625,-0.79150390625,-0.20458984375,-0.0625,1.0625,0.0
0.24000000000000013,2.0,-4.0,-3.0,11.0,-3.0,-14.0,-4.0,-3.0,0.6763916015625,0.3779296875,-0.5838623046875,-0.242431640625,-0.619140625,-0.79150390625,-0.20458984375,-0.0625,1.0625,0.0
0.24500000000000013,2.0,-4.0,-3.0,11.0,-3.0,-14.0,-4.0,-3.0,0.6763916015625,0.3779296875,-0.5838623046875,-0.242431640625,-0.619140625,-0.79150390625,-0.20458984375,-0.0625,1.0625,0.0
0.2500000000000001,-6.0,-3.0,0.0,4.0,2.0,11.0,3.0,0.0,0.6763916015625,0.3779296875,-0.5838623046875,-0.242431640625,-0.619140625,-0.79150390625,-0.20458984375,-0.0625,1.0625,0.0
0.2550000000000001,21.0,-16.0,-1.0,5.0,-2.0,-14.0,-7.0,-5.0,0.6763916015625,0.3779296875,-0.5838623046875,-0.242431640625,-0.619140625,-0.79150390625,-0.20458984375,-0.0625,1.0625,0.0
0.2600000000000001,21.0,-16.0,-1.0,5.0,-2.0,-14.0,-7.0,-5.0,0.6763916015625,0.3779296875,-0.5838623046875,-0.24249267578125,-0.6220703125,-0.78662109375,-0.19970703125,-0.375,0.8125,-0.1875
0.2650000000000001,21.0,-16.0,-1.0,5.0,-2.0,-14.0,-7.0,-5.0,0.6763916015625,0.3779296875,-0.5838623046875,-0.24249267578125,-0.6220703125,-0.78662109375,-0.19970703125,-0.375,0.8125,-0.1875
0.27000000000000013,21.0,-16.0,-1.0,5.0,-2.0,-14.0,-7.0,-5.0,0.6763916015625,0.3779296875,-0.5838623046875,-0.24249267578125,-0.6220703125,-0.78662109375,-0.19970703125,-0.375,0.8125,-0.1875
0.27500000000000013,21.0,-16.0,-1.0,5.0,-2.0,-14.0,-7.0,-5.0,0.6763916015625,0.3779296875,-0.5838623046875,-0.24249267578125,-0.6220703125,-0.78662109375,-0.19970703125,-0.375,0.8125,-0.1875
0.28000000000000014,20.0,-1.0,-6.0,8.0,-1.0,-10.0,-2.0,-2.0,0.6763916015625,0.3779296875,-0.5838623046875,-0.24249267578125,-0.6220703125,-0.78662109375,-0.19970703125,-0.375,0.8125,-0.1875
0.28500000000000014,-7.0,2.0,0.0,3.0,2.0,4.0,1.0,2.0,0.6763916015625,0.3779296875,-0.5838623046875,-0.24249267578125,-0.6220703125,-0.78662109375,-0.19970703125,-0.375,0.8125,-0.1875
0.29000000000000015,-7.0,2.0,0.0,3.0,2.0,4.0,1.0,2.0,0.676513671875,0.37799072265625,-0.5836181640625,-0.24249267578125,-0.61962890625,-0.79345703125,-0.20751953125,-0.8125,1.1875,-0.1875
0.29500000000000015,-7.0,2.0,0.0,3.0,2.0,4.0,1.0,2.0,0.676513671875,0.37799072265625,-0.5836181640625,-0.24249267578125,-0.61962890625,-0.79345703125,-0.20751953125,-0.8125,1.1875,-0.1875
0.30000000000000016,18.0,1.0,1.0,21.0,3.0,-10.0,-2.0,1.0,0.676513671875,0.37799072265625,-0.5836181640625,-0.24249267578125,-0.61962890625,-0.79345703125,-0.20751953125,-0.8125,1.1875,-0.1875
0.30500000000000016,18.0,1.0,1.0,21.0,3.0,-10.0,-2.0,1.0,0.676513671875,0.37799072265625,-0.5836181640625,-0.24249267578125,-0.61962890625,-0.79345703125,-0.20751953125,-0.8125,1.1875,-0.1875
0.31000000000000016,-6.0,1.0,0.0,-26.0,-2.0,8.0,-3.0,-3.0,0.676513671875,0.37799072265625,-0.5836181640625,-0.24249267578125,-0.62353515625,-0.78466796875,-0.2041015625,0.375,0.875,-0.0625
0.31500000000000017,-6.0,1.0,0.0,-26.0,-2.0,8.0,-3.0,-3.0,0.676513671875,0.37799072265625,-0.5836181640625,-0.24249267578125,-0.62353515625,-0.78466796875,-0.2041015625,0.375,0.875,-0.0625
0.3200000000000002,-6.0,1.0,0.0,-26.0,-2.0,8.0,-3.0,-3.0,0.676513671875,0.37799072265625,-0.5836181640625,-0.24249267578125,-0.62353515625,-0.78466796875,-0.2041015625,0.375,0.875,-0.0625
0.3250000000000002,-14.0,1.0,1.0,31.0,-2.0,4.0,-1.0,1.0,0.676513671875,0.37799072265625,-0.5836181640625,-0.24249267578125,-0.62353515625,-0.78466796875,-0.2041015625,0.375,0.875,-0.0625
0.3300000000000002,2.0,3.0,-1.0,3.0,-3.0,-5.0,-4.0,-2.0,0.676513671875,0.37799072265625,-0.58367919921875,-0.24249267578125,-0.62255859375,-0.79296875,-0.19970703125,-0.5625,0.75,0.3125
0.3350000000000002,2.0,3.0,-1.0,3.0,-3.0,-5.0,-4.0,-2.0,0.676513671875,0.37799072265625,-0.58367919921875,-0.24249267578125,-0.62255859375,-0.79296875,-0.19970703125,-0.5625,0.75,0.3125
0.3400000000000002,2.0,3.0,-1.0,3.0,-3.0,-5.0,-4.0,-2.0,0.676513671875,0.37799072265625,-0.58367919921875,-0.24249267578125,-0.62255859375,-0.79296875,-0.19970703125,-0.5625,0.75,0.3125
0.3450000000000002,3.0,-1.0,-2.0,4.0,-2.0,-13.0,-1.0,0.0,0.676513671875,0.37799072265625,-0.58367919921875,-0.24249267578125,-0.62255859375,-0.79296875,-0.19970703125,-0.5625,0.75,0.3125
0.3500000000000002,1.0,4.0,-2.0,-25.0,-1.0,10.0,4.0,2.0,0.676513671875,0.37799072265625,-0.58367919921875,-0.24249267578125,-0.62255859375,-0.79296875,-0.19970703125,-0.5625,0.75,0.3125
0.3550000000000002,1.0,4.0,-2.0,-25.0,-1.0,10.0,4.0,2.0,0.67645263671875,0.37799072265625,-0.58367919921875,-0.24249267578125,-0.626953125,-0.78662109375,-0.197265625,-0.25,0.5625,0.6875
0.3600000000000002,1.0,4.0,-2.0,-25.0,-1.0,10.0,4.0,2.0,0.67645263671875,0.37799072265625,-0.58367919921875,-0.24249267578125,-0.626953125,-0.78662109375,-0.197265625,-0.25,0.5625,0.6875
0.3650000000000002,7.0,0.0,2.0,-7.0,-3.0,-6.0,-10.0,-4.0,0.67645263671875,0.37799072265625,-0.58367919921875,-0.24249267578125,-0.626953125,-0.78662109375,-0.197265625,-0.25,0.5625,0.6875
0.3700000000000002,7.0,0.0,2.0,-7.0,-3.0,-6.0,-10.0,-4.0,0.67645263671875,0.37799072265625,-0.58367919921875,-0.24249267578125,-0.626953125,-0.78662109375,-0.197265625,-0.25,0.5625,0.6875
0.3750000000000002,-5.0,2.0,-1.0,-1.0,1.0,-10.0,4.0,-1.0,0.67645263671875,0.37799072265625,-0.58367919921875,-0.24249267578125,-0.626953125,-0.78662109375,-0.197265625,-0.25,0.5625,0.6875
0.3800000000000002,-5.0,2.0,-1.0,-1.0,1.0,-10.0,4.0,-1.0,0.67645263671875,0.37799072265625,-0.58367919921875,-0.24249267578125,-0.6240234375,-0.79296875,-0.2021484375,-0.5,0.75,0.625
0.38500000000000023,-5.0,2.0,-1.0,-1.0,1.0,-10.0,4.0,-1.0,0.67645263671875,0.37799072265625,-0.58367919921875,-0.24249267578125,-0.6240234375,-0.79296875,-0.2021484375,-0.5,0.75,0.625
0.39000000000000024,-5.0,-1.0,-4.0,8.0,-6.0,-6.0,-4.0,-2.0,0.67645263671875,0.37799072265625,-0.58367919921875,-0.24249267578125,-0.6240234375,-0.79296875,-0.2021484375,-0.5,0.75,0.625
0.39500000000000024,-5.0,-1.0,-4.0,8.0,-6.0,-6.0,-4.0,-2.0,0.67645263671875,0.37799072265625,-0.58367919921875,-0.24249267578125,-0.6240234375,-0.79296875,-0.2021484375,-0.5,0.75,0.625
0.40000000000000024,-5.0,-1.0,-4.0,8.0,-6.0,-6.0,-4.0,-2.0,0.67645263671875,0.37799072265625,-0.58367919921875,-0.24249267578125,-0.62109375,-0.7861328125,-0.203125,-0.375,0.5625,0.5
0.40500000000000025,7.0,-1.0,-3.0,7.0,-1.0,-2.0,-4.0,-3.0,0.67645263671875,0.37799072265625,-0.58367919921875,-0.24249267578125,-0.62109375,-0.7861328125,-0.203125,-0.375,0.5625,0.5
0.41000000000000025,7.0,-1.0,-3.0,7.0,-1.0,-2.0,-4.0,-3.0,0.67645263671875,0.37799072265625,-0.58367919921875,-0.24249267578125,-0.62109375,-0.7861328125,-0.203125,-0.375,0.5625,0.5
0.41500000000000026,-3.0,-4.0,0.0,-1.0,1.0,-20.0,4.0,1.0,0.67645263671875,0.37799072265625,-0.58367919921875,-0.24249267578125,-0.62109375,-0.7861328125,-0.203125,-0.375,0.5625,0.5
0.42000000000000026,-3.0,-4.0,0.0,-1.0,1.0,-20.0,4.0,1.0,0.67645263671875,0.37799072265625,-0.58367919921875,-0.24249267578125,-0.62109375,-0.7861328125,-0.203125,-0.375,0.5625,0.5
0.42500000000000027,-3.0,-4.0,0.0,-1.0,1.0,-20.0,4.0,1.0,0.67645263671875,0.3779296875,-0.583740234375,-0.24249267578125,-0.62451171875,-0.78515625,-0.19189453125,0.0625,0.8125,0.25
0.43000000000000027,-3.0,-4.0,0.0,-1.0,1.0,-20.0,4.0,1.0,0.67645263671875,0.3779296875,-0.583740234375,-0.24249267578125,-0.62451171875,-0.78515625,-0.19189453125,0.0625,0.8125,0.25
0.4350000000000003,-3.0,-4.0,0.0,-1.0,1.0,-20.0,4.0,1.0,0.67645263671875,0.3779296875,-0.583740234375,-0.24249267578125,-0.62451171875,-0.78515625,-0.19189453125,0.0625,0.8125,0.25
0.4400000000000003,2.0,1.0,4.0,15.0,3.0,4.0,10.0,4.0,0.67645263671875,0.3779296875,-0.583740234375,-0.24249267578125,-0.62451171875,-0.78515625,-0.19189453125,0.0625,0.8125,0.25
0.4450000000000003,-1.0,0.0,-3.0,5.0,-3.0,-4.0,-14.0,-6.0,0.67645263671875,0.3779296875,-0.583740234375,-0.24249267578125,-0.62939453125,-0.787109375,-0.19873046875,0.25,0.9375,-0.0625
0.4500000000000003,-1.0,0.0,-3.0,5.0,-3.0,-4.0,-14.0,-6.0,0.67645263671875,0.3779296875,-0.583740234375,-0.24249267578125,-0.62939453125,-0.787109375,-0.19873046875,0.25,0.9375,-0.0625
0.4550000000000003,1.0,-4.0,-4.0,-25.0,-3.0,9.0,1.0,1.0,0.67645263671875,0.3779296875,-0.583740234375,-0.24249267578125,-0.62939453125,-0.787109375,-0.19873046875,0.25,0.9375,-0.0625
0.4600000000000003,1.0,-4.0,-4.0,-25.0,-3.0,9.0,1.0,1.0,0.67645263671875,0.3779296875,-0.58380126953125,-0.24249267578125,-0.6279296875,-0.78564453125,-0.19677734375,0.625,0.75,-0.1875
0.4650000000000003,1.0,-4.0,-4.0,-25.0,-3.0,9.0,1.0,1.0,0.67645263671875,0.3779296875,-0.58380126953125,-0.24249267578125,-0.6279296875,-0.78564453125,-0.19677734375,0.625,0.75,-0.1875
0.4700000000000003,-3.0,-3.0,2.0,10.0,0.0,-2.0,4.0,2.0,0.67645263671875,0.3779296875,-0.58380126953125,-0.24249267578125,-0.6279296875,-0.78564453125,-0.19677734375,0.625,0.75,-0.1875
0.4750000000000003,-1.0,2.0,2.0,10.0,-2.0,-1.0,-4.0,-3.0,0.67645263671875,0.3779296875,-0.58380126953125,-0.24249267578125,-0.6279296875,-0.78564453125,-0.19677734375,0.625,0.75,-0.1875
0.4800000000000003,-1.0,2.0,2.0,10.0,-2.0,-1.0,-4.0,-3.0,0.67645263671875,0.3779296875,-0.58380126953125,-0.24249267578125,-0.6279296875,-0.78564453125,-0.19677734375,0.625,0.75,-0.1875
0.4850000000000003,-1.0,2.0,2.0,10.0,-2.0,-1.0,-4.0,-3.0,0.676513671875,0.37786865234375,-0.58367919921875,-0.2425537109375,-0.625,-0.78076171875,-0.20166015625,-0.125,1.0,-0.3125
0.4900000000000003,8.0,0.0,-3.0,-5.0,-1.0,-3.0,0.0,-1.0,0.676513671875,0.37786865234375,-0.58367919921875,-0.2425537109375,-0.625,-0.78076171875,-0.20166015625,-0.125,1.0,-0.3125
0.49500000000000033,8.0,0.0,-3.0,-5.0,-1.0,-3.0,0.0,-1.0,0.676513671875,0.37786865234375,-0.58367919921875,-0.2425537109375,-0.625,-0.78076171875,-0.20166015625,-0.125,1.0,-0.3125
0.5000000000000003,-14.0,-1.0,-3.0,5.0,-4.0,-23.0,-3.0,-3.0,0.676513671875,0.37786865234375,-0.58367919921875,-0.2425537109375,-0.625,-0.78076171875,-0.20166015625,-0.125,1.0,-0.3125
0.5050000000000003,-6.0,-1.0,-3.0,-1.0,1.0,30.0,6.0,1.0,0.676513671875,0.3778076171875,-0.583740234375,-0.24249267578125,-0.6279296875,-0.78564453125,-0.19970703125,-0.5625,0.9375,-0.3125
0.5100000000000003,-6.0,-1.0,-3.0,-1.0,1.0,30.0,6.0,1.0,0.676513671875,0.3778076171875,-0.583740234375,-0.24249267578125,-0.6279296875,-0.78564453125,-0.19970703125,-0.5625,0.9375,-0.3125
0.5150000000000003,-6.0,-1.0,-3.0,-1.0,1.0,30.0,6.0,1.0,0.676513671875,0.3778076171875,-0.583740234375,-0.24249267578125,-0.6279296875,-0.78564453125,-0.19970703125,-0.5625,0.9375,-0.3125
0.5200000000000004,-3.0,5.0,-4.0,-45.0,-6.0,-10.0,-2.0,-3.0,0.676513671875,0.3778076171875,-0.583740234375,-0.24249267578125,-0.6279296875,-0.78564453125,-0.19970703125,-0.5625,0.9375,-0.3125
0.5250000000000004,-3.0,5.0,-4.0,-45.0,-6.0,-10.0,-2.0,-3.0,0.676513671875,0.3778076171875,-0.583740234375,-0.2425537109375,-0.626953125,-0.79296875,-0.19873046875,-0.0625,0.8125,-0.1875
0.5300000000000004,-3.0,5.0,-4.0,-45.0,-6.0,-10.0,-2.0,-3.0,0.676513671875,0.3778076171875,-0.583740234375,-0.2425537109375,-0.626953125,-0.79296875,-0.19873046875,-0.0625,0.8125,-0.1875
0.5350000000000004,-1.0,-1.0,0.0,0.0,2.0,5.0,-2.0,-1.0,0.676513671875,0.3778076171875,-0.583740234375,-0.2425537109375,-0.626953125,-0.79296875,-0.19873046875,-0.0625,0.8125,-0.1875
0.5400000000000004,-1.0,-1.0,0.0,0.0,2.0,5.0,-2.0,-1.0,0.676513671875,0.3778076171875,-0.583740234375,-0.2425537109375,-0.626953125,-0.79296875,-0.19873046875,-0.0625,0.8125,-0.1875
0.5450000000000004,-6.0,-3.0,0.0,-5.0,-4.0,-7.0,-3.0,-1.0,0.676513671875,0.3778076171875,-0.583740234375,-0.2425537109375,-0.626953125,-0.79296875,-0.19873046875,-0.0625,0.8125,-0.1875
0.5500000000000004,-6.0,-3.0,0.0,-5.0,-4.0,-7.0,-3.0,-1.0,0.676513671875,0.3778076171875,-0.583740234375,-0.24249267578125,-0.62451171875,-0.78173828125,-0.20068359375,0.5,0.8125,-0.5625
0.5550000000000004,-6.0,-3.0,0.0,-5.0,-4.0,-7.0,-3.0,-1.0,0.676513671875,0.3778076171875,-0.583740234375,-0.24249267578125,-0.62451171875,-0.78173828125,-0.20068359375,0.5,0.8125,-0.5625
0.5600000000000004,5.0,-1.0,-3.0,-11.0,-3.0,-2.0,2.0,-1.0,0.676513671875,0.3778076171875,-0.583740234375,-0.24249267578125,-0.62451171875,-0.78173828125,-0.20068359375,0.5,0.8125,-0.5625
0.5650000000000004,5.0,-1.0,-3.0,-11.0,-3.0,-2.0,2.0,-1.0,0.676513671875,0.3778076171875,-0.583740234375,-0.24249267578125,-0.62451171875,-0.78173828125,-0.20068359375,0.5,0.8125,-0.5625
0.5700000000000004,4.0,-7.0,-6.0,14.0,-4.0,-22.0,0.0,0.0,0.676513671875,0.3778076171875,-0.58380126953125,-0.24249267578125,-0.625,-0.7802734375,-0.2021484375,0.0625,0.875,-0.125
0.5750000000000004,4.0,-7.0,-6.0,14.0,-4.0,-22.0,0.0,0.0,0.6766357421875,0.37786865234375,-0.5836181640625,-0.24237060546875,-0.62451171875,-0.7861328125,-0.20263671875,-1.375,0.6875,-0.1875
0.5800000000000004,4.0,-7.0,-6.0,14.0,-4.0,-22.0,0.0,0.0,0.6766357421875,0.37786865234375,-0.5836181640625,-0.24237060546875,-0.62451171875,-0.7861328125,-0.20263671875,-1.375,0.6875,-0.1875
0.5850000000000004,2.0,0.0,-3.0,-6.0,4.0,-7.0,1.0,-1.0,0.6766357421875,0.37786865234375,-0.5836181640625,-0.24237060546875,-0.62451171875,-0.7861328125,-0.20263671875,-1.375,0.6875,-0.1875
0.5900000000000004,2.0,0.0,-3.0,-6.0,4.0,-7.0,1.0,-1.0,0.6766357421875,0.37786865234375,-0.5836181640625,-0.24237060546875,-0.62451171875,-0.7861328125,-0.20263671875,-1.375,0.6875,-0.1875
0.5950000000000004,-2.0,5.0,3.0,3.0,-1.0,-3.0,0.0,0.0,0.6766357421875,0.37786865234375,-0.5836181640625,-0.24237060546875,-0.62451171875,-0.7861328125,-0.20263671875,-1.375,0.6875,-0.1875
0.6000000000000004,-2.0,5.0,3.0,3.0,-1.0,-3.0,0.0,0.0,0.6766357421875,0.37786865234375,-0.5836181640625,-0.24237060546875,-0.62451171875,-0.7861328125,-0.20263671875,-1.375,0.6875,-0.1875
0.6050000000000004,-2.0,5.0,3.0,3.0,-1.0,-3.0,0.0,0.0,0.6766357421875,0.37799072265625,-0.58355712890625,-0.2423095703125,-0.625,-0.794921875,-0.2060546875,-1.1875,0.125,-0.3125
0.6100000000000004,-2.0,5.0,3.0,3.0,-1.0,-3.0,0.0,0.0,0.6766357421875,0.37799072265625,-0.58355712890625,-0.2423095703125,-0.625,-0.794921875,-0.2060546875,-1.1875,0.125,-0.3125
0.6150000000000004,2.0,1.0,-2.0,11.0,-3.0,2.0,-4.0,-3.0,0.6766357421875,0.37799072265625,-0.58355712890625,-0.2423095703125,-0.625,-0.794921875,-0.2060546875,-1.1875,0.125,-0.3125
0.6200000000000004,2.0,1.0,-2.0,11.0,-3.0,2.0,-4.0,-3.0,0.6766357421875,0.37799072265625,-0.58355712890625,-0.2423095703125,-0.625,-0.794921875,-0.2060546875,-1.1875,0.125,-0.3125
0.6250000000000004,18.0,-5.0,1.0,3.0,-1.0,-7.0,-1.0,-2.0,0.6766357421875,0.37799072265625,-0.58355712890625,-0.2423095703125,-0.62939453125,-0.7900390625,-0.20166015625,-0.0625,0.1875,-0.6875
0.6300000000000004,18.0,-5.0,1.0,3.0,-1.0,-7.0,-1.0,-2.0,0.6766357421875,0.37799072265625,-0.58355712890625,-0.2423095703125,-0.62939453125,-0.7900390625,-0.20166015625,-0.0625,0.1875,-0.6875
0.6350000000000005,18.0,-5.0,1.0,3.0,-1.0,-7.0,-1.0,-2.0,0.6766357421875,0.37799072265625,-0.58355712890625,-0.2423095703125,-0.62939453125,-0.7900390625,-0.20166015625,-0.0625,0.1875,-0.6875
0.6400000000000005,18.0,-5.0,1.0,3.0,-1.0,-7.0,-1.0,-2.0,0.6766357421875,0.37799072265625,-0.58355712890625,-0.2423095703125,-0.62939453125,-0.7900390625,-0.20166015625,-0.0625,0.1875,-0.6875
0.6450000000000005,8.0,-3.0,-3.0,0.0,-1.0,6.0,-1.0,-2.0,0.6766357421875,0.37799072265625,-0.58355712890625,-0.2423095703125,-0.62939453125,-0.7900390625,-0.20166015625,-0.0625,0.1875,-0.6875
0.6500000000000005,8.0,-3.0,-3.0,0.0,-1.0,6.0,-1.0,-2.0,0.6766357421875,0.37799072265625,-0.58355712890625,-0.2423095703125,-0.62939453125,-0.7900390625,-0.20166015625,-0.0625,0.1875,-0.6875
0.6550000000000005,8.0,-3.0,-3.0,0.0,-1.0,6.0,-1.0,-2.0,0.6766357421875,0.37799072265625,-0.5836181640625,-0.2423095703125,-0.6201171875,-0.7841796875,-0.20166015625,0.0,-0.0625,-0.25
0.6600000000000005,8.0,-3.0,-3.0,0.0,-1.0,6.0,-1.0,-2.0,0.6766357421875,0.37799072265625,-0.5836181640625,-0.2423095703125,-0.6201171875,-0.7841796875,-0.20166015625,0.0,-0.0625,-0.25
0.6650000000000005,21.0,-2.0,-4.0,6.0,0.0,-8.0,-5.0,-6.0,0.6766357421875,0.37799072265625,-0.5836181640625,-0.2423095703125,-0.6201171875,-0.7841796875,-0.20166015625,0.0,-0.0625,-0.25
0.6700000000000005,21.0,-2.0,-4.0,6.0,0.0,-8.0,-5.0,-6.0,0.6766357421875,0.37799072265625,-0.5836181640625,-0.2423095703125,-0.6201171875,-0.7841796875,-0.20166015625,0.0,-0.0625,-0.25
0.6750000000000005,1.0,0.0,0.0,-34.0,-5.0,-18.0,4.0,1.0,0.6766357421875,0.37799072265625,-0.5836181640625,-0.2423095703125,-0.6201171875,-0.7841796875,-0.20166015625,0.0,-0.0625,-0.25
0.6800000000000005,1.0,0.0,0.0,-34.0,-5.0,-18.0,4.0,1.0,0.6766357421875,0.37799072265625,-0.5836181640625,-0.2423095703125,-0.6201171875,-0.7841796875,-0.20166015625,0.0,-0.0625,-0.25
0.6850000000000005,1.0,0.0,0.0,-34.0,-5.0,-18.0,4.0,1.0,0.6766357421875,0.37799072265625,-0.5836181640625,-0.2423095703125,-0.61865234375,-0.78466796875,-0.19580078125,0.0625,-0.125,-0.875
0.6900000000000005,1.0,0.0,0.0,-34.0,-5.0,-18.0,4.0,1.0,0.6766357421875,0.37799072265625,-0.5836181640625,-0.2423095703125,-0.61865234375,-0.78466796875,-0.19580078125,0.0625,-0.125,-0.875
0.6950000000000005,-13.0,0.0,-4.0,-23.0,-2.0,14.0,1.0,3.0,0.6766357421875,0.37799072265625,-0.5836181640625,-0.2423095703125,-0.61865234375,-0.78466796875,-0.19580078125,0.0625,-0.125,-0.875
0.7000000000000005,-13.0,0.0,-4.0,-23.0,-2.0,14.0,1.0,3.0,0.6766357421875,0.37799072265625,-0.5836181640625,-0.2423095703125,-0.61865234375,-0.78466796875,-0.19580078125,0.0625,-0.125,-0.875
0.7050000000000005,8.0,1.0,1.0,-38.0,0.0,8.0,-2.0,-2.0,0.67657470703125,0.37799072265625,-0.5836181640625,-0.2423095703125,-0.61962890625,-0.79052734375,-0.2021484375,-0.25,-0.3125,-0.8125
0.7100000000000005,8.0,1.0,1.0,-38.0,0.0,8.0,-2.0,-2.0,0.67657470703125,0.37799072265625,-0.5836181640625,-0.2423095703125,-0.61962890625,-0.79052734375,-0.2021484375,-0.25,-0.3125,-0.8125
0.7150000000000005,8.0,1.0,1.0,-38.0,0.0,8.0,-2.0,-2.0,0.67657470703125,0.37799072265625,-0.5836181640625,-0.2423095703125,-0.61962890625,-0.79052734375,-0.2021484375,-0.25,-0.3125,-0.8125
0.7200000000000005,8.0,1.0,1.0,-38.0,0.0,8.0,-2.0,-2.0,0.67657470703125,0.37799072265625,-0.5836181640625,-0.2423095703125,-0.61962890625,-0.79052734375,-0.2021484375,-0.25,-0.3125,-0.8125
0.7250000000000005,-8.0,-2.0,-4.0,26.0,-3.0,-2.0,1.0,1.0,0.67657470703125,0.37799072265625,-0.5836181640625,-0.2423095703125,-0.61962890625,-0.79052734375,-0.2021484375,-0.25,-0.3125,-0.8125
0.7300000000000005,-8.0,-2.0,-4.0,26.0,-3.0,-2.0,1.0,1.0,0.67645263671875,0.378173828125,-0.5836181640625,-0.242431640625,-0.62353515625,-0.79443359375,-0.1982421875,-0.5,-0.1875,-1.1875
0.7350000000000005,-8.0,-2.0,-4.0,26.0,-3.0,-2.0,1.0,1.0,0.67645263671875,0.378173828125,-0.5836181640625,-0.242431640625,-0.62353515625,-0.79443359375,-0.1982421875,-0.5,-0.1875,-1.1875
0.7400000000000005,-8.0,-2.0,-4.0,26.0,-3.0,-2.0,1.0,1.0,0.67645263671875,0.378173828125,-0.5836181640625,-0.242431640625,-0.62353515625,-0.79443359375,-0.1982421875,-0.5,-0.1875,-1.1875
0.7450000000000006,8.0,-3.0,-2.0,-11.0,-4.0,-1.0,-1.0,-1.0,0.67645263671875,0.378173828125,-0.5836181640625,-0.242431640625,-0.62353515625,-0.79443359375,-0.1982421875,-0.5,-0.1875,-1.1875
0.7500000000000006,-11.0,-4.0,1.0,14.0,6.0,12.0,0.0,1.0,0.67645263671875,0.378173828125,-0.5836181640625,-0.242431640625,-0.62353515625,-0.79443359375,-0.1982421875,-0.5,-0.1875,-1.1875
0.7550000000000006,-11.0,-4.0,1.0,14.0,6.0,12.0,0.0,1.0,0.67645263671875,0.378173828125,-0.5836181640625,-0.242431640625,-0.62353515625,-0.79443359375,-0.1982421875,-0.5,-0.1875,-1.1875
0.7600000000000006,-11.0,-4.0,1.0,14.0,6.0,12.0,0.0,1.0,0.67645263671875,0.378173828125,-0.5836181640625,-0.242431640625,-0.62060546875,-0.7919921875,-0.20068359375,0.0,-0.3125,-0.6875
0.7650000000000006,-11.0,-4.0,1.0,14.0,6.0,12.0,0.0,1.0,0.67645263671875,0.378173828125,-0.5836181640625,-0.242431640625,-0.62060546875,-0.7919921875,-0.20068359375,0.0,-0.3125,-0.6875
0.7700000000000006,-1.0,1.0,0.0,4.0,-1.0,-7.0,0.0,-1.0,0.67645263671875,0.378173828125,-0.5836181640625,-0.242431640625,-0.62060546875,-0.7919921875,-0.20068359375,0.0,-0.3125,-0.6875
0.7750000000000006,-1.0,1.0,0.0,4.0,-1.0,-7.0,0.0,-1.0,0.67645263671875,0.378173828125,-0.5836181640625,-0.242431640625,-0.62060546875,-0.7919921875,-0.20068359375,0.0,-0.3125,-0.6875
0.7800000000000006,-9.0,-2.0,-3.0,-21.0,-6.0,9.0,-5.0,-5.0,0.67645263671875,0.378173828125,-0.58367919921875,-0.242431640625,-0.62109375,-0.7880859375,-0.20166015625,-0.1875,-0.125,-0.8125
0.7850000000000006,-9.0,-2.0,-3.0,-21.0,-6.0,9.0,-5.0,-5.0,0.67645263671875,0.378173828125,-0.58367919921875,-0.242431640625,-0.62109375,-0.7880859375,-0.20166015625,-0.1875,-0.125,-0.8125
0.7900000000000006,-9.0,-2.0,-3.0,-21.0,-6.0,9.0,-5.0,-5.0,0.67645263671875,0.378173828125,-0.58367919921875,-0.242431640625,-0.62109375,-0.7880859375,-0.20166015625,-0.1875,-0.125,-0.8125
0.7950000000000006,-9.0,-2.0,-3.0,-21.0,-6.0,9.0,-5.0,-5.0,0.67645263671875,0.378173828125,-0.58367919921875,-0.242431640625,-0.62109375,-0.7880859375,-0.20166015625,-0.1875,-0.125,-0.8125
0.8000000000000006,0.0,-4.0,0.0,8.0,4.0,-5.0,0.0,0.0,0.67645263671875,0.378173828125,-0.58367919921875,-0.242431640625,-0.62109375,-0.7880859375,-0.20166015625,-0.1875,-0.125,-0.8125
0.8050000000000006,0.0,-4.0,0.0,8.0,4.0,-5.0,0.0,0.0,0.67645263671875,0.378173828125,-0.58367919921875,-0.242431640625,-0.62109375,-0.7880859375,-0.20166015625,-0.1875,-0.125,-0.8125
0.8100000000000006,0.0,-4.0,0.0,8.0,4.0,-5.0,0.0,0.0,0.6763916015625,0.378173828125,-0.58367919921875,-0.24249267578125,-0.61669921875,-0.794921875,-0.193359375,0.0,-0.1875,-0.375
0.8150000000000006,0.0,-4.0,0.0,8.0,4.0,-5.0,0.0,0.0,0.6763916015625,0.378173828125,-0.58367919921875,-0.24249267578125,-0.61669921875,-0.794921875,-0.193359375,0.0,-0.1875,-0.375
0.8200000000000006,-7.0,-6.0,0.0,16.0,-4.0,-18.0,-3.0,-4.0,0.6763916015625,0.378173828125,-0.58367919921875,-0.24249267578125,-0.61669921875,-0.794921875,-0.193359375,0.0,-0.1875,-0.375
0.8250000000000006,-7.0,-6.0,0.0,16.0,-4.0,-18.0,-3.0,-4.0,0.6763916015625,0.378173828125,-0.58367919921875,-0.24249267578125,-0.61669921875,-0.794921875,-0.193359375,0.0,-0.1875,-0.375
0.8300000000000006,-7.0,0.0,-3.0,15.0,-2.0,6.0,4.0,-1.0,0.6763916015625,0.378173828125,-0.58367919921875,-0.24249267578125,-0.61669921875,-0.794921875,-0.193359375,0.0,-0.1875,-0.375
0.8350000000000006,-7.0,0.0,-3.0,15.0,-2.0,6.0,4.0,-1.0,0.6763916015625,0.378173828125,-0.58367919921875,-0.24249267578125,-0.61669921875,-0.794921875,-0.193359375,0.0,-0.1875,-0.375
0.8400000000000006,-7.0,0.0,-3.0,15.0,-2.0,6.0,4.0,-1.0,0.6763916015625,0.37811279296875,-0.58367919921875,-0.24249267578125,-0.6220703125,-0.79443359375,-0.1943359375,0.375,-0.0625,-0.3125
0.8450000000000006,-7.0,0.0,-3.0,15.0,-2.0,6.0,4.0,-1.0,0.6763916015625,0.37811279296875,-0.58367919921875,-0.24249267578125,-0.6220703125,-0.79443359375,-0.1943359375,0.375,-0.0625,-0.3125
0.8500000000000006,-1.0,4.0,-2.0,-6.0,-4.0,4.0,-1.0,-1.0,0.6763916015625,0.37811279296875,-0.58367919921875,-0.24249267578125,-0.6220703125,-0.79443359375,-0.1943359375,0.375,-0.0625,-0.3125
0.8550000000000006,-1.0,4.0,-2.0,-6.0,-4.0,4.0,-1.0,-1.0,0.6763916015625,0.37811279296875,-0.58367919921875,-0.24249267578125,-0.6220703125,-0.79443359375,-0.1943359375,0.375,-0.0625,-0.3125
0.8600000000000007,0.0,0.0,1.0,20.0,1.0,2.0,-6.0,-3.0,0.67633056640625,0.378173828125,-0.583740234375,-0.24249267578125,-0.61865234375,-0.79638671875,-0.19873046875,-0.5,0.1875,0.25
0.8650000000000007,0.0,0.0,1.0,20.0,1.0,2.0,-6.0,-3.0,0.67633056640625,0.378173828125,-0.583740234375,-0.24249267578125,-0.61865234375,-0.79638671875,-0.19873046875,-0.5,0.1875,0.25
0.8700000000000007,0.0,0.0,1.0,20.0,1.0,2.0,-6.0,-3.0,0.67633056640625,0.378173828125,-0.583740234375,-0.24249267578125,-0.61865234375,-0.79638671875,-0.19873046875,-0.5,0.1875,0.25
0.8750000000000007,3.0,-1.0,-3.0,-16.0,-6.0,10.0,3.0,2.0,0.67633056640625,0.378173828125,-0.583740234375,-0.24249267578125,-0.61865234375,-0.79638671875,-0.19873046875,-0.5,0.1875,0.25
0.8800000000000007,3.0,-1.0,-3.0,-16.0,-6.0,10.0,3.0,2.0,0.67633056640625,0.378173828125,-0.583740234375,-0.24249267578125,-0.61865234375,-0.79638671875,-0.19873046875,-0.5,0.1875,0.25
0.8850000000000007,-7.0,0.0,4.0,26.0,2.0,-9.0,-2.0,0.0,0.67633056640625,0.378173828125,-0.583740234375,-0.24249267578125,-0.61865234375,-0.79638671875,-0.19873046875,-0.5,0.1875,0.25
0.8900000000000007,1.0,0.0,-1.0,-8.0,0.0,9.0,-2.0,-3.0,0.67633056640625,0.378173828125,-0.583740234375,-0.24249267578125,-0.61865234375,-0.79248046875,-0.19677734375,0.75,0.25,-0.0625
0.8950000000000007,1.0,0.0,-1.0,-8.0,0.0,9.0,-2.0,-3.0,0.67633056640625,0.378173828125,-0.583740234375,-0.24249267578125,-0.61865234375,-0.79248046875,-0.19677734375,0.75,0.25,-0.0625
0.9000000000000007,1.0,0.0,-1.0,-8.0,0.0,9.0,-2.0,-3.0,0.67633056640625,0.378173828125,-0.583740234375,-0.24249267578125,-0.61865234375,-0.79248046875,-0.19677734375,0.75,0.25,-0.0625
0.9050000000000007,-4.0,-1.0,-2.0,13.0,-2.0,2.0,0.0,1.0,0.67633056640625,0.378173828125,-0.583740234375,-0.24249267578125,-0.61865234375,-0.79248046875,-0.19677734375,0.75,0.25,-0.0625
0.9100000000000007,-4.0,-1.0,-2.0,13.0,-2.0,2.0,0.0,1.0,0.67620849609375,0.3779296875,-0.58392333984375,-0.24273681640625,-0.6201171875,-0.77978515625,-0.1923828125,1.5625,0.125,-0.1875
0.9150000000000007,1.0,3.0,0.0,-4.0,-1.0,46.0,0.0,0.0,0.67620849609375,0.3779296875,-0.58392333984375,-0.24273681640625,-0.6201171875,-0.77978515625,-0.1923828125,1.5625,0.125,-0.1875
0.9200000000000007,1.0,3.0,0.0,-4.0,-1.0,46.0,0.0,0.0,0.67620849609375,0.3779296875,-0.58392333984375,-0.24273681640625,-0.6201171875,-0.77978515625,-0.1923828125,1.5625,0.125,-0.1875
0.9250000000000007,0.0,0.0,1.0,2.0,0.0,-3.0,-1.0,-3.0,0.67620849609375,0.3779296875,-0.58392333984375,-0.24273681640625,-0.62353515625,-0.7900390625,-0.20703125,0.625,0.0625,-0.5625
0.9300000000000007,0.0,0.0,1.0,2.0,0.0,-3.0,-1.0,-3.0,0.67620849609375,0.3779296875,-0.58392333984375,-0.24273681640625,-0.62353515625,-0.7900390625,-0.20703125,0.625,0.0625,-0.5625
0.9350000000000007,0.0,0.0,1.0,2.0,0.0,-3.0,-1.0,-3.0,0.67620849609375,0.3779296875,-0.58392333984375,-0.24273681640625,-0.62353515625,-0.7900390625,-0.20703125,0.625,0.0625,-0.5625
0.9400000000000007,-22.0,-4.0,0.0,12.0,-2.0,-29.0,-4.0,-1.0,0.67620849609375,0.3779296875,-0.58392333984375,-0.24273681640625,-0.62353515625,-0.7900390625,-0.20703125,0.625,0.0625,-0.5625
0.9450000000000007,-22.0,-4.0,0.0,12.0,-2.0,-29.0,-4.0,-1.0,0.67620849609375,0.3779296875,-0.58392333984375,-0.24273681640625,-0.62353515625,-0.7900390625,-0.20703125,0.625,0.0625,-0.5625
0.9500000000000007,1.0,-3.0,-7.0,1.0,-3.0,14.0,0.0,-1.0,0.67620849609375,0.3779296875,-0.58392333984375,-0.24273681640625,-0.6279296875,-0.7900390625,-0.19970703125,0.125,0.5625,-0.3125
0.9550000000000007,2.0,1.0,0.0,4.0,2.0,-5.0,-5.0,-3.0,0.67620849609375,0.3779296875,-0.58392333984375,-0.24273681640625,-0.6279296875,-0.7900390625,-0.19970703125,0.125,0.5625,-0.3125
0.9600000000000007,-1.0,0.0,-2.0,-10.0,-7.0,-15.0,-1.0,-1.0,0.67620849609375,0.3779296875,-0.58392333984375,-0.24273681640625,-0.6279296875,-0.7900390625,-0.19970703125,0.125,0.5625,-0.3125
0.9650000000000007,8.0,-5.0,-3.0,-5.0,-2.0,2.0,-2.0,-7.0,0.67620849609375,0.3779296875,-0.58392333984375,-0.24273681640625,-0.6279296875,-0.7900390625,-0.19970703125,0.125,0.5625,-0.3125
0.9700000000000008,8.0,-5.0,-3.0,-5.0,-2.0,2.0,-2.0,-7.0,0.67620849609375,0.3779296875,-0.58392333984375,-0.24273681640625,-0.6279296875,-0.7900390625,-0.19970703125,0.125,0.5625,-0.3125
0.9750000000000008,8.0,-5.0,-3.0,-5.0,-2.0,2.0,-2.0,-7.0,0.6761474609375,0.3779296875,-0.58392333984375,-0.24298095703125,-0.6162109375,-0.79638671875,-0.20751953125,1.0,0.3125,-0.75
0.9800000000000008,8.0,-5.0,-3.0,-5.0,-2.0,2.0,-2.0,-7.0,0.6761474609375,0.3779296875,-0.58392333984375,-0.24298095703125,-0.6162109375,-0.79638671875,-0.20751953125,1.0,0.3125,-0.75
0.9850000000000008,7.0,-4.0,0.0,7.0,5.0,-1.0,-1.0,1.0,0.6761474609375,0.3779296875,-0.58392333984375,-0.24298095703125,-0.6162109375,-0.79638671875,-0.20751953125,1.0,0.3125,-0.75
0.9900000000000008,-6.0,3.0,0.0,-11.0,-2.0,-15.0,-3.0,0.0,0.6761474609375,0.3779296875,-0.58392333984375,-0.24298095703125,-0.61962890625,-0.7802734375,-0.1953125,0.5625,0.375,0.125
0.9950000000000008,-6.0,3.0,0.0,-11.0,-2.0,-15.0,-3.0,0.0,0.6761474609375,0.3779296875,-0.58392333984375,-0.24298095703125,-0.61962890625,-0.7802734375,-0.1953125,0.5625,0.375,0.125
1.0000000000000007,-6.0,3.0,0.0,-11.0,-2.0,-15.0,-3.0,0.0,0.6761474609375,0.3779296875,-0.58392333984375,-0.24298095703125,-0.61962890625,-0.7802734375,-0.1953125,0.5625,0.375,0.125
1.0050000000000006,-6.0,3.0,0.0,-11.0,-2.0,-15.0,-3.0,0.0,0.6761474609375,0.3779296875,-0.58392333984375,-0.24298095703125,-0.61962890625,-0.7802734375,-0.1953125,0.5625,0.375,0.125
1.0100000000000005,5.0,-16.0,-6.0,-38.0,-8.0,-39.0,2.0,-1.0,0.6761474609375,0.3779296875,-0.58392333984375,-0.24298095703125,-0.61962890625,-0.7802734375,-0.1953125,0.5625,0.375,0.125
1.0150000000000003,-1.0,3.0,2.0,8.0,8.0,11.0,4.0,0.0,0.67608642578125,0.37786865234375,-0.58392333984375,-0.24298095703125,-0.62353515625,-0.7861328125,-0.1962890625,-0.1875,0.1875,0.0
1.0200000000000002,-1.0,3.0,2.0,8.0,8.0,11.0,4.0,0.0,0.67608642578125,0.37786865234375,-0.58392333984375,-0.24298095703125,-0.62353515625,-0.7861328125,-0.1962890625,-0.1875,0.1875,0.0
1.0250000000000001,-1.0,3.0,-3.0,12.0,-1.0,-5.0,-5.0,-1.0,0.67608642578125,0.37786865234375,-0.58392333984375,-0.24298095703125,-0.62353515625,-0.7861328125,-0.1962890625,-0.1875,0.1875,0.0
1.03,-1.0,3.0,-3.0,12.0,-1.0,-5.0,-5.0,-1.0,0.67608642578125,0.37786865234375,-0.58392333984375,-0.24298095703125,-0.62353515625,-0.7861328125,-0.1962890625,-0.1875,0.1875,0.0
1.035,-7.0,-2.0,2.0,-13.0,-2.0,2.0,0.0,1.0,0.67608642578125,0.37786865234375,-0.58392333984375,-0.24298095703125,-0.62353515625,-0.7861328125,-0.1962890625,-0.1875,0.1875,0.0
1.0399999999999998,-7.0,-2.0,2.0,-13.0,-2.0,2.0,0.0,1.0,0.67608642578125,0.37786865234375,-0.583984375,-0.24298095703125,-0.62451171875,-0.78857421875,-0.19189453125,-0.4375,0.1875,0.0
1.0449999999999997,-7.0,-2.0,2.0,-13.0,-2.0,2.0,0.0,1.0,0.67608642578125,0.37786865234375,-0.583984375,-0.24298095703125,-0.62451171875,-0.78857421875,-0.19189453125,-0.4375,0.1875,0.0
1.0499999999999996,10.0,-4.0,-8.0,32.0,-5.0,-4.0,-4.0,-3.0,0.67608642578125,0.37786865234375,-0.583984375,-0.24298095703125,-0.62451171875,-0.78857421875,-0.19189453125,-0.4375,0.1875,0.0
1.0549999999999995,10.0,-4.0,-8.0,32.0,-5.0,-4.0,-4.0,-3.0,0.67608642578125,0.37786865234375,-0.583984375,-0.24298095703125,-0.62451171875,-0.78857421875,-0.19189453125,-0.4375,0.1875,0.0
1.0599999999999994,-1.0,1.0,-1.0,13.0,4.0,11.0,0.0,0.0,0.67608642578125,0.37786865234375,-0.583984375,-0.24298095703125,-0.62451171875,-0.78857421875,-0.19189453125,-0.4375,0.1875,0.0
1.0649999999999993,-1.0,1.0,-1.0,13.0,4.0,11.0,0.0,0.0,0.67608642578125,0.37786865234375,-0.583984375,-0.24298095703125,-0.626953125,-0.79248046875,-0.2021484375,-0.25,0.0625,-0.0625
1.0699999999999992,-1.0,1.0,-1.0,13.0,4.0,11.0,0.0,0.0,0.67608642578125,0.37786865234375,-0.583984375,-0.24298095703125,-0.626953125,-0.79248046875,-0.2021484375,-0.25,0.0625,-0.0625
1.074999999999999,25.0,3.0,0.0,-14.0,2.0,-1.0,-4.0,-1.0,0.67608642578125,0.37786865234375,-0.583984375,-0.24298095703125,-0.626953125,-0.79248046875,-0.2021484375,-0.25,0.0625,-0.0625
1.079999999999999,25.0,3.0,0.0,-14.0,2.0,-1.0,-4.0,-1.0,0.67608642578125,0.37786865234375,-0.583984375,-0.24298095703125,-0.626953125,-0.79248046875,-0.2021484375,-0.25,0.0625,-0.0625
1.0849999999999989,-9.0,-2.0,-4.0,7.0,-6.0,-8.0,-2.0,-3.0,0.67608642578125,0.37786865234375,-0.583984375,-0.24298095703125,-0.626953125,-0.79248046875,-0.2021484375,-0.25,0.0625,-0.0625
1.0899999999999987,-9.0,-2.0,-4.0,7.0,-6.0,-8.0,-2.0,-3.0,0.676025390625,0.37774658203125,-0.5841064453125,-0.24310302734375,-0.62158203125,-0.78564453125,-0.19873046875,1.0,-0.0625,-0.0625
1.0949999999999986,2.0,-1.0,-1.0,-33.0,-1.0,-8.0,-1.0,0.0,0.676025390625,0.37774658203125,-0.5841064453125,-0.24310302734375,-0.62158203125,-0.78564453125,-0.19873046875,1.0,-0.0625,-0.0625
1.0999999999999985,2.0,-1.0,-1.0,-33.0,-1.0,-8.0,-1.0,0.0,0.676025390625,0.37774658203125,-0.5841064453125,-0.24310302734375,-0.62158203125,-0.78564453125,-0.19873046875,1.0,-0.0625,-0.0625
1.1049999999999984,2.0,-1.0,-1.0,-33.0,-1.0,-8.0,-1.0,0.0,0.676025390625,0.377685546875,-0.58416748046875,-0.24310302734375,-0.62890625,-0.78466796875,-0.19775390625,-0.0625,0.0,0.0
1.1099999999999983,8.0,5.0,0.0,6.0,-2.0,-9.0,-3.0,-2.0,0.676025390625,0.377685546875,-0.58416748046875,-0.24310302734375,-0.62890625,-0.78466796875,-0.19775390625,-0.0625,0.0,0.0
1.1149999999999982,-2.0,-4.0,0.0,-3.0,4.0,23.0,-2.0,1.0,0.676025390625,0.377685546875,-0.58416748046875,-0.24310302734375,-0.62890625,-0.78466796875,-0.19775390625,-0.0625,0.0,0.0
1.119999999999998,-2.0,-4.0,0.0,-3.0,4.0,23.0,-2.0,1.0,0.676025390625,0.377685546875,-0.58416748046875,-0.24310302734375,-0.62890625,-0.78466796875,-0.19775390625,-0.0625,0.0,0.0
1.124999999999998,-2.0,-4.0,0.0,-3.0,4.0,23.0,-2.0,1.0,0.67596435546875,0.377685546875,-0.58416748046875,-0.24310302734375,-0.6201171875,-0.79296875,-0.19140625,-0.5,-0.3125,-0.3125
1.129999999999998,-2.0,-4.0,0.0,-3.0,4.0,23.0,-2.0,1.0,0.67596435546875,0.377685546875,-0.58416748046875,-0.24310302734375,-0.6201171875,-0.79296875,-0.19140625,-0.5,-0.3125,-0.3125
1.1349999999999978,-17.0,6.0,3.0,-6.0,1.0,8.0,3.0,0.0,0.67596435546875,0.377685546875,-0.58416748046875,-0.24310302734375,-0.6201171875,-0.79296875,-0.19140625,-0.5,-0.3125,-0.3125
1.1399999999999977,-17.0,6.0,3.0,-6.0,1.0,8.0,3.0,0.0,0.67596435546875,0.377685546875,-0.58416748046875,-0.24310302734375,-0.6201171875,-0.79296875,-0.19140625,-0.5,-0.3125,-0.3125
1.1449999999999976,7.0,2.0,-1.0,6.0,-6.0,-11.0,-3.0,-4.0,0.67596435546875,0.377685546875,-0.58416748046875,-0.2431640625,-0.62060546875,-0.7958984375,-0.19775390625,0.4375,-0.4375,-0.4375
1.1499999999999975,7.0,2.0,-1.0,6.0,-6.0,-11.0,-3.0,-4.0,0.67596435546875,0.377685546875,-0.58416748046875,-0.2431640625,-0.62060546875,-0.7958984375,-0.19775390625,0.4375,-0.4375,-0.4375
1.1549999999999974,7.0,2.0,-1.0,6.0,-6.0,-11.0,-3.0,-4.0,0.67596435546875,0.377685546875,-0.58416748046875,-0.2431640625,-0.62060546875,-0.7958984375,-0.19775390625,0.4375,-0.4375,-0.4375
1.1599999999999973,-7.0,0.0,2.0,-8.0,3.0,3.0,1.0,0.0,0.67584228515625,0.3775634765625,-0.58441162109375,-0.2432861328125,-0.62255859375,-0.78173828125,-0.1953125,1.4375,-0.375,-0.4375
1.1649999999999971,-7.0,0.0,2.0,-8.0,3.0,3.0,1.0,0.0,0.67584228515625,0.3775634765625,-0.58441162109375,-0.2432861328125,-0.62255859375,-0.78173828125,-0.1953125,1.4375,-0.375,-0.4375
1.169999999999997,-6.0,-11.0,-3.0,5.0,-1.0,2.0,1.0,-2.0,0.67584228515625,0.3775634765625,-0.58441162109375,-0.2432861328125,-0.62255859375,-0.78173828125,-0.1953125,1.4375,-0.375,-0.4375
1.174999999999997,-6.0,-11.0,-3.0,5.0,-1.0,2.0,1.0,-2.0,0.67584228515625,0.3775634765625,-0.58441162109375,-0.2432861328125,-0.62255859375,-0.78173828125,-0.1953125,1.4375,-0.375,-0.4375
1.1799999999999968,16.0,-2.0,-3.0,-8.0,0.0,-1.0,1.0,0.0,0.67584228515625,0.3775634765625,-0.58441162109375,-0.2432861328125,-0.62255859375,-0.78173828125,-0.1953125,1.4375,-0.375,-0.4375
1.1849999999999967,16.0,-2.0,-3.0,-8.0,0.0,-1.0,1.0,0.0,0.67584228515625,0.3775634765625,-0.58441162109375,-0.2432861328125,-0.62255859375,-0.78173828125,-0.1953125,1.4375,-0.375,-0.4375
1.1899999999999966,16.0,-2.0,-3.0,-8.0,0.0,-1.0,1.0,0.0,0.67584228515625,0.37750244140625,-0.58441162109375,-0.2432861328125,-0.63330078125,-0.78466796875,-0.19775390625,-0.125,-0.3125,-0.25
1.1949999999999965,16.0,-2.0,-3.0,-8.0,0.0,-1.0,1.0,0.0,0.67584228515625,0.37750244140625,-0.58441162109375,-0.2432861328125,-0.63330078125,-0.78466796875,-0.19775390625,-0.125,-0.3125,-0.25
1.1999999999999964,-11.0,6.0,1.0,1.0,0.0,1.0,-2.0,-2.0,0.67584228515625,0.37750244140625,-0.58441162109375,-0.2432861328125,-0.63330078125,-0.78466796875,-0.19775390625,-0.125,-0.3125,-0.25
1.2049999999999963,-11.0,6.0,1.0,1.0,0.0,1.0,-2.0,-2.0,0.67584228515625,0.37750244140625,-0.58441162109375,-0.2432861328125,-0.63330078125,-0.78466796875,-0.19775390625,-0.125,-0.3125,-0.25
1.2099999999999962,2.0,0.0,-5.0,-44.0,-6.0,-21.0,-1.0,1.0,0.67578125,0.377685546875,-0.5843505859375,-0.24322509765625,-0.61669921875,-0.7880859375,-0.1953125,-1.25,0.0625,-0.375
1.214999999999996,2.0,0.0,-5.0,-44.0,-6.0,-21.0,-1.0,1.0,0.67578125,0.377685546875,-0.5843505859375,-0.24322509765625,-0.61669921875,-0.7880859375,-0.1953125,-1.25,0.0625,-0.375
1.219999999999996,2.0,0.0,-5.0,-44.0,-6.0,-21.0,-1.0,1.0,0.67578125,0.377685546875,-0.5843505859375,-0.24322509765625,-0.61669921875,-0.7880859375,-0.1953125,-1.25,0.0625,-0.375
1.2249999999999959,2.0,0.0,-5.0,-44.0,-6.0,-21.0,-1.0,1.0,0.67578125,0.377685546875,-0.5843505859375,-0.24322509765625,-0.61669921875,-0.7880859375,-0.1953125,-1.25,0.0625,-0.375
1.2299999999999958,-10.0,-2.0,0.0,12.0,0.0,-1.0,0.0,0.0,0.67578125,0.377685546875,-0.5843505859375,-0.24322509765625,-0.61669921875,-0.7880859375,-0.1953125,-1.25,0.0625,-0.375
1.2349999999999957,-10.0,-2.0,0.0,12.0,0.0,-1.0,0.0,0.0,0.67578125,0.377685546875,-0.5843505859375,-0.24322509765625,-0.61669921875,-0.7880859375,-0.1953125,-1.25,0.0625,-0.375
1.2399999999999956,-10.0,-2.0,0.0,12.0,0.0,-1.0,0.0,0.0,0.67578125,0.37762451171875,-0.58441162109375,-0.24322509765625,-0.62451171875,-0.78857421875,-0.19873046875,0.0625,0.5,-0.25
1.2449999999999954,-10.0,-2.0,0.0,12.0,0.0,-1.0,0.0,0.0,0.67578125,0.37762451171875,-0.58441162109375,-0.24322509765625,-0.62451171875,-0.78857421875,-0.19873046875,0.0625,0.5,-0.25
1.2499999999999953,12.0,-5.0,-9.0,-9.0,-5.0,6.0,-4.0,-3.0,0.67578125,0.37762451171875,-0.58441162109375,-0.24322509765625,-0.62451171875,-0.78857421875,-0.19873046875,0.0625,0.5,-0.25
1.2549999999999952,12.0,-5.0,-9.0,-9.0,-5.0,6.0,-4.0,-3.0,0.67578125,0.37762451171875,-0.58441162109375,-0.24322509765625,-0.62451171875,-0.78857421875,-0.19873046875,0.0625,0.5,-0.25
1.2599999999999951,-3.0,-3.0,-5.0,3.0,-5.0,-11.0,-5.0,-5.0,0.67578125,0.37762451171875,-0.58441162109375,-0.24322509765625,-0.62451171875,-0.78857421875,-0.19873046875,0.0625,0.5,-0.25
1.264999999999995,-3.0,-3.0,-5.0,3.0,-5.0,-11.0,-5.0,-5.0,0.67578125,0.37762451171875,-0.58441162109375,-0.24322509765625,-0.62451171875,-0.78662109375,-0.19921875,0.0,0.8125,0.0
1.269999999999995,-3.0,-3.0,-5.0,3.0,-5.0,-11.0,-5.0,-5.0,0.67578125,0.37762451171875,-0.58441162109375,-0.24322509765625,-0.62451171875,-0.78662109375,-0.19921875,0.0,0.8125,0.0
1.2749999999999948,-3.0,7.0,3.0,5.0,1.0,5.0,-1.0,-1.0,0.67578125,0.37762451171875,-0.58441162109375,-0.24322509765625,-0.62451171875,-0.78662109375,-0.19921875,0.0,0.8125,0.0
1.2799999999999947,-3.0,7.0,3.0,5.0,1.0,5.0,-1.0,-1.0,0.67578125,0.37762451171875,-0.58441162109375,-0.24322509765625,-0.62451171875,-0.78662109375,-0.19921875,0.0,0.8125,0.0
1.2849999999999946,-3.0,7.0,3.0,5.0,1.0,5.0,-1.0,-1.0,0.67578125,0.37762451171875,-0.58441162109375,-0.24322509765625,-0.62451171875,-0.78662109375,-0.19921875,0.0,0.8125,0.0
1.2899999999999945,-6.0,-3.0,-3.0,8.0,-7.0,-12.0,-1.0,0.0,0.67584228515625,0.37750244140625,-0.5843505859375,-0.24334716796875,-0.6240234375,-0.78955078125,-0.1953125,0.125,1.0625,0.0625
1.2949999999999944,-6.0,-3.0,-3.0,8.0,-7.0,-12.0,-1.0,0.0,0.67584228515625,0.37750244140625,-0.5843505859375,-0.24334716796875,-0.6240234375,-0.78955078125,-0.1953125,0.125,1.0625,0.0625
1.2999999999999943,-6.0,-3.0,-3.0,8.0,-7.0,-12.0,-1.0,0.0,0.67584228515625,0.37750244140625,-0.5843505859375,-0.24334716796875,-0.6240234375,-0.78955078125,-0.1953125,0.125,1.0625,0.0625
1.3049999999999942,-6.0,-3.0,-3.0,8.0,-7.0,-12.0,-1.0,0.0,0.67584228515625,0.37750244140625,-0.5843505859375,-0.24334716796875,-0.6240234375,-0.78955078125,-0.1953125,0.125,1.0625,0.0625
1.309999999999994,-2.0,-1.0,5.0,6.0,2.0,11.0,-3.0,-1.0,0.67584228515625,0.37750244140625,-0.5843505859375,-0.24334716796875,-0.6240234375,-0.78955078125,-0.1953125,0.125,1.0625,0.0625
1.314999999999994,-2.0,-1.0,5.0,6.0,2.0,11.0,-3.0,-1.0,0.67584228515625,0.37750244140625,-0.58441162109375,-0.24334716796875,-0.626953125,-0.787109375,-0.197265625,-0.75,0.5625,0.25
1.3199999999999938,-2.0,-1.0,5.0,6.0,2.0,11.0,-3.0,-1.0,0.67584228515625,0.37750244140625,-0.58441162109375,-0.24334716796875,-0.626953125,-0.787109375,-0.197265625,-0.75,0.5625,0.25
1.3249999999999937,-5.0,0.0,-2.0,15.0,-5.0,-5.0,-1.0,-3.0,0.67584228515625,0.37750244140625,-0.58441162109375,-0.24334716796875,-0.626953125,-0.787109375,-0.197265625,-0.75,0.5625,0.25
1.3299999999999936,-5.0,0.0,-2.0,15.0,-5.0,-5.0,-1.0,-3.0,0.67584228515625,0.37750244140625,-0.58441162109375,-0.24334716796875,-0.626953125,-0.787109375,-0.197265625,-0.75,0.5625,0.25
1.3349999999999935,-2.0,-4.0,1.0,6.0,-1.0,-4.0,2.0,-2.0,0.67584228515625,0.37750244140625,-0.58441162109375,-0.24334716796875,-0.626953125,-0.787109375,-0.197265625,-0.75,0.5625,0.25
1.3399999999999934,-2.0,-4.0,1.0,6.0,-1.0,-4.0,2.0,-2.0,0.67584228515625,0.37750244140625,-0.58441162109375,-0.24334716796875,-0.626953125,-0.787109375,-0.197265625,-0.75,0.5625,0.25
1.3449999999999933,-2.0,-4.0,1.0,6.0,-1.0,-4.0,2.0,-2.0,0.67578125,0.37750244140625,-0.58441162109375,-0.24334716796875,-0.62451171875,-0.79345703125,-0.189453125,-0.75,0.625,0.3125
1.3499999999999932,-2.0,-4.0,1.0,6.0,-1.0,-4.0,2.0,-2.0,0.67578125,0.37750244140625,-0.58441162109375,-0.24334716796875,-0.62451171875,-0.79345703125,-0.189453125,-0.75,0.625,0.3125
1.354999999999993,2.0,-1.0,1.0,0.0,3.0,7.0,1.0,-1.0,0.67578125,0.37750244140625,-0.58441162109375,-0.24334716796875,-0.62451171875,-0.79345703125,-0.189453125,-0.75,0.625,0.3125
1.359999999999993,2.0,-1.0,1.0,0.0,3.0,7.0,1.0,-1.0,0.67578125,0.37750244140625,-0.58441162109375,-0.24334716796875,-0.62451171875,-0.79345703125,-0.189453125,-0.75,0.625,0.3125
1.3649999999999929,3.0,0.0,-3.0,-8.0,-1.0,-3.0,-2.0,-1.0,0.67578125,0.37750244140625,-0.58441162109375,-0.24334716796875,-0.62451171875,-0.79345703125,-0.189453125,-0.75,0.625,0.3125
1.3699999999999928,3.0,0.0,-3.0,-8.0,-1.0,-3.0,-2.0,-1.0,0.67578125,0.37750244140625,-0.58441162109375,-0.24334716796875,-0.62255859375,-0.78955078125,-0.2041015625,0.4375,0.375,0.1875
1.3749999999999927,3.0,0.0,-3.0,-8.0,-1.0,-3.0,-2.0,-1.0,0.67578125,0.37750244140625,-0.58441162109375,-0.24334716796875,-0.62255859375,-0.78955078125,-0.2041015625,0.4375,0.375,0.1875
1.3799999999999926,3.0,0.0,-3.0,-8.0,-1.0,-3.0,-2.0,-1.0,0.67578125,0.37750244140625,-0.58441162109375,-0.24334716796875,-0.62255859375,-0.78955078125,-0.2041015625,0.4375,0.375,0.1875
1.3849999999999925,-3.0,3.0,0.0,2.0,-2.0,-3.0,-1.0,0.0,0.67578125,0.37750244140625,-0.58441162109375,-0.24334716796875,-0.62255859375,-0.78955078125,-0.2041015625,0.4375,0.375,0.1875
1.3899999999999924,-3.0,3.0,0.0,2.0,-2.0,-3.0,-1.0,0.0,0.67578125,0.37750244140625,-0.58441162109375,-0.24334716796875,-0.62255859375,-0.78955078125,-0.2041015625,0.4375,0.375,0.1875
1.3949999999999922,-23.0,-4.0,-5.0,-50.0,-3.0,7.0,-3.0,-2.0,0.67578125,0.37750244140625,-0.58441162109375,-0.24334716796875,-0.62158203125,-0.78662109375,-0.2021484375,0.125,0.375,-0.3125
1.3999999999999921,-23.0,-4.0,-5.0,-50.0,-3.0,7.0,-3.0,-2.0,0.67578125,0.37750244140625,-0.58441162109375,-0.24334716796875,-0.62158203125,-0.78662109375,-0.2021484375,0.125,0.375,-0.3125
1.404999999999992,-3.0,-3.0,2.0,10.0,1.0,-5.0,5.0,3.0,0.67578125,0.37750244140625,-0.58441162109375,-0.24334716796875,-0.62158203125,-0.78662109375,-0.2021484375,0.125,0.375,-0.3125
1.409999999999992,-3.0,-3.0,2.0,10.0,1.0,-5.0,5.0,3.0,0.67578125,0.37750244140625,-0.58441162109375,-0.24334716796875,-0.62158203125,-0.78662109375,-0.2021484375,0.125,0.375,-0.3125
1.4149999999999918,8.0,0.0,2.0,18.0,3.0,3.0,-1.0,-2.0,0.67578125,0.37750244140625,-0.58441162109375,-0.24334716796875,-0.62158203125,-0.78662109375,-0.2021484375,0.125,0.375,-0.3125
1.4199999999999917,8.0,0.0,2.0,18.0,3.0,3.0,-1.0,-2.0,0.67578125,0.37750244140625,-0.58441162109375,-0.24334716796875,-0.62158203125,-0.78662109375,-0.2021484375,0.125,0.375,-0.3125
1.4249999999999916,8.0,0.0,2.0,18.0,3.0,3.0,-1.0,-2.0,0.67578125,0.37750244140625,-0.58447265625,-0.24334716796875,-0.61767578125,-0.7861328125,-0.19677734375,0.1875,0.0625,-0.875
1.4299999999999915,8.0,0.0,2.0,18.0,3.0,3.0,-1.0,-2.0,0.67578125,0.37750244140625,-0.58447265625,-0.24334716796875,-0.61767578125,-0.7861328125,-0.19677734375,0.1875,0.0625,-0.875
1.4349999999999914,-8.0,-2.0,-1.0,-8.0,-3.0,-6.0,-3.0,-5.0,0.67578125,0.37750244140625,-0.58447265625,-0.24334716796875,-0.61767578125,-0.7861328125,-0.19677734375,0.1875,0.0625,-0.875
1.4399999999999913,-8.0,-2.0,-1.0,-8.0,-3.0,-6.0,-3.0,-5.0,0.67578125,0.37750244140625,-0.58447265625,-0.24334716796875,-0.61767578125,-0.7861328125,-0.19677734375,0.1875,0.0625,-0.875
1.4449999999999912,-2.0,-4.0,-2.0,7.0,1.0,2.0,3.0,2.0,0.67578125,0.37750244140625,-0.58447265625,-0.24334716796875,-0.61767578125,-0.7861328125,-0.19677734375,0.1875,0.0625,-0.875
1.449999999999991,-2.0,-4.0,-2.0,7.0,1.0,2.0,3.0,2.0,0.67578125,0.37744140625,-0.58447265625,-0.24334716796875,-0.6220703125,-0.79150390625,-0.19677734375,-0.125,0.1875,-0.6875
1.454999999999991,-2.0,-4.0,-2.0,7.0,1.0,2.0,3.0,2.0,0.67578125,0.37744140625,-0.58447265625,-0.24334716796875,-0.6220703125,-0.79150390625,-0.19677734375,-0.125,0.1875,-0.6875
1.4599999999999909,-2.0,-4.0,-2.0,7.0,1.0,2.0,3.0,2.0,0.67578125,0.37744140625,-0.58447265625,-0.24334716796875,-0.6220703125,-0.79150390625,-0.19677734375,-0.125,0.1875,-0.6875
1.4649999999999908,-13.0,-2.0,-2.0,-14.0,2.0,8.0,0.0,-1.0,0.67578125,0.37744140625,-0.58447265625,-0.24334716796875,-0.6220703125,-0.79150390625,-0.19677734375,-0.125,0.1875,-0.6875
1.4699999999999906,-12.0,-2.0,0.0,14.0,-1.0,1.0,2.0,-1.0,0.67578125,0.37744140625,-0.58447265625,-0.24334716796875,-0.6220703125,-0.79150390625,-0.19677734375,-0.125,0.1875,-0.6875
1.4749999999999905,-12.0,-2.0,0.0,14.0,-1.0,1.0,2.0,-1.0,0.6756591796875,0.37750244140625,-0.58453369140625,-0.2435302734375,-0.6220703125,-0.7919921875,-0.1953125,0.3125,0.0625,-1.0625
1.4799999999999904,9.0,-2.0,-3.0,-4.0,-3.0,-2.0,-4.0,-1.0,0.6756591796875,0.37750244140625,-0.58453369140625,-0.2435302734375,-0.6220703125,-0.7919921875,-0.1953125,0.3125,0.0625,-1.0625
1.4849999999999903,9.0,-2.0,-3.0,-4.0,-3.0,-2.0,-4.0,-1.0,0.6756591796875,0.37750244140625,-0.58453369140625,-0.2435302734375,-0.6220703125,-0.7919921875,-0.1953125,0.3125,0.0625,-1.0625
1.4899999999999902,7.0,-12.0,0.0,-9.0,4.0,6.0,7.0,1.0,0.6756591796875,0.37750244140625,-0.58453369140625,-0.2435302734375,-0.6220703125,-0.7919921875,-0.1953125,0.3125,0.0625,-1.0625
1.4949999999999901,7.0,-12.0,0.0,-9.0,4.0,6.0,7.0,1.0,0.6756591796875,0.37750244140625,-0.58453369140625,-0.2435302734375,-0.6220703125,-0.791015625,-0.19580078125,0.5625,0.125,-0.75
1.49999999999999,7.0,-12.0,0.0,-9.0,4.0,6.0,7.0,1.0,0.6756591796875,0.37750244140625,-0.58453369140625,-0.2435302734375,-0.6220703125,-0.791015625,-0.19580078125,0.5625,0.125,-0.75
1.50499999999999,-14.0,-1.0,-2.0,-11.0,-4.0,-6.0,0.0,-1.0,0.6756591796875,0.37750244140625,-0.58453369140625,-0.2435302734375,-0.6220703125,-0.791015625,-0.19580078125,0.5625,0.125,-0.75
1.5099999999999898,-14.0,-1.0,-2.0,-11.0,-4.0,-6.0,0.0,-1.0,0.6756591796875,0.37750244140625,-0.58453369140625,-0.2435302734375,-0.6220703125,-0.791015625,-0.19580078125,0.5625,0.125,-0.75
1.5149999999999897,1.0,4.0,2.0,5.0,-1.0,-1.0,-5.0,-2.0,0.675537109375,0.3775634765625,-0.5845947265625,-0.24365234375,-0.6240234375,-0.7890625,-0.193359375,-0.0625,-0.125,-1.0625
1.5199999999999896,1.0,4.0,2.0,5.0,-1.0,-1.0,-5.0,-2.0,0.675537109375,0.3775634765625,-0.5845947265625,-0.24365234375,-0.6240234375,-0.7890625,-0.193359375,-0.0625,-0.125,-1.0625
1.5249999999999895,1.0,4.0,2.0,5.0,-1.0,-1.0,-5.0,-2.0,0.675537109375,0.3775634765625,-0.5845947265625,-0.24365234375,-0.6240234375,-0.7890625,-0.193359375,-0.0625,-0.125,-1.0625
1.5299999999999894,3.0,4.0,-2.0,1.0,3.0,1.0,-4.0,-3.0,0.675537109375,0.3775634765625,-0.5845947265625,-0.24365234375,-0.6240234375,-0.7890625,-0.193359375,-0.0625,-0.125,-1.0625
1.5349999999999893,3.0,4.0,-2.0,1.0,3.0,1.0,-4.0,-3.0,0.67547607421875,0.3775634765625,-0.5845947265625,-0.24365234375,-0.61767578125,-0.79443359375,-0.20166015625,-0.4375,-0.4375,-1.0
1.5399999999999892,3.0,4.0,-2.0,1.0,3.0,1.0,-4.0,-3.0,0.67547607421875,0.3775634765625,-0.5845947265625,-0.24365234375,-0.61767578125,-0.79443359375,-0.20166015625,-0.4375,-0.4375,-1.0
1.544999999999989,-2.0,0.0,-1.0,-3.0,-1.0,2.0,3.0,-1.0,0.67547607421875,0.3775634765625,-0.5845947265625,-0.24365234375,-0.61767578125,-0.79443359375,-0.20166015625,-0.4375,-0.4375,-1.0
1.549999999999989,-1.0,-2.0,-4.0,4.0,-2.0,0.0,-4.0,-2.0,0.67547607421875,0.3775634765625,-0.5845947265625,-0.24365234375,-0.61767578125,-0.79443359375,-0.20166015625,-0.4375,-0.4375,-1.0
1.5549999999999888,-1.0,-2.0,-4.0,4.0,-2.0,0.0,-4.0,-2.0,0.67523193359375,0.37774658203125,-0.58465576171875,-0.243896484375,-0.61279296875,-0.79638671875,-0.193359375,0.375,-0.5,-1.1875
1.5599999999999887,-3.0,-1.0,1.0,5.0,1.0,-4.0,-2.0,0.0,0.67523193359375,0.37774658203125,-0.58465576171875,-0.243896484375,-0.61279296875,-0.79638671875,-0.193359375,0.375,-0.5,-1.1875
1.5649999999999886,-3.0,-1.0,1.0,5.0,1.0,-4.0,-2.0,0.0,0.67523193359375,0.37774658203125,-0.58465576171875,-0.243896484375,-0.61279296875,-0.79638671875,-0.193359375,0.375,-0.5,-1.1875
1.5699999999999885,3.0,2.0,-2.0,-5.0,-1.0,9.0,2.0,2.0,0.675048828125,0.3778076171875,-0.58477783203125,-0.24407958984375,-0.61962890625,-0.7900390625,-0.1962890625,0.8125,-0.75,-1.1875
1.5749999999999884,3.0,2.0,-2.0,-5.0,-1.0,9.0,2.0,2.0,0.675048828125,0.3778076171875,-0.58477783203125,-0.24407958984375,-0.61962890625,-0.7900390625,-0.1962890625,0.8125,-0.75,-1.1875
1.5799999999999883,3.0,2.0,-2.0,-5.0,-1.0,9.0,2.0,2.0,0.675048828125,0.3778076171875,-0.58477783203125,-0.24407958984375,-0.61962890625,-0.7900390625,-0.1962890625,0.8125,-0.75,-1.1875
1.5849999999999882,1.0,-8.0,1.0,12.0,-3.0,-2.0,-1.0,0.0,0.675048828125,0.3778076171875,-0.58477783203125,-0.24407958984375,-0.61962890625,-0.7900390625,-0.1962890625,0.8125,-0.75,-1.1875
1.589999999999988,1.0,-8.0,1.0,12.0,-3.0,-2.0,-1.0,0.0,0.6748046875,0.37786865234375,-0.5849609375,-0.24420166015625,-0.6259765625,-0.7919921875,-0.19677734375,0.375,-0.875,-1.375
1.594999999999988,1.0,-8.0,1.0,12.0,-3.0,-2.0,-1.0,0.0,0.6748046875,0.37786865234375,-0.5849609375,-0.24420166015625,-0.6259765625,-0.7919921875,-0.19677734375,0.375,-0.875,-1.375
1.5999999999999879,-2.0,-2.0,-1.0,-8.0,0.0,17.0,-2.0,2.0,0.6748046875,0.37786865234375,-0.5849609375,-0.24420166015625,-0.6259765625,-0.7919921875,-0.19677734375,0.375,-0.875,-1.375
1.6049999999999878,-2.0,-2.0,-1.0,-8.0,0.0,17.0,-2.0,2.0,0.6748046875,0.37786865234375,-0.5849609375,-0.24420166015625,-0.6259765625,-0.7919921875,-0.19677734375,0.375,-0.875,-1.375
1.6099999999999877,12.0,2.0,-1.0,4.0,-3.0,-15.0,-2.0,-2.0,0.6748046875,0.37786865234375,-0.5849609375,-0.24420166015625,-0.6259765625,-0.7919921875,-0.19677734375,0.375,-0.875,-1.375
1.6149999999999876,12.0,2.0,-1.0,4.0,-3.0,-15.0,-2.0,-2.0,0.67462158203125,0.3780517578125,-0.5849609375,-0.24444580078125,-0.6162109375,-0.7958984375,-0.2001953125,0.5625,-0.6875,-1.625
1.6199999999999875,-10.0,-2.0,1.0,3.0,-2.0,-2.0,-7.0,-1.0,0.67462158203125,0.3780517578125,-0.5849609375,-0.24444580078125,-0.6162109375,-0.7958984375,-0.2001953125,0.5625,-0.6875,-1.625
1.6249999999999873,-10.0,-2.0,1.0,3.0,-2.0,-2.0,-7.0,-1.0,0.67462158203125,0.3780517578125,-0.5849609375,-0.24444580078125,-0.6162109375,-0.7958984375,-0.2001953125,0.5625,-0.6875,-1.625
1.6299999999999872,-11.0,2.0,-1.0,10.0,-3.0,-1.0,0.0,0.0,0.67425537109375,0.37811279296875,-0.585205078125,-0.24481201171875,-0.619140625,-0.79638671875,-0.18798828125,1.4375,-0.5625,-1.5
1.6349999999999871,-11.0,2.0,-1.0,10.0,-3.0,-1.0,0.0,0.0,0.67425537109375,0.37811279296875,-0.585205078125,-0.24481201171875,-0.619140625,-0.79638671875,-0.18798828125,1.4375,-0.5625,-1.5
1.639999999999987,-11.0,2.0,-1.0,10.0,-3.0,-1.0,0.0,0.0,0.67425537109375,0.37811279296875,-0.585205078125,-0.24481201171875,-0.619140625,-0.79638671875,-0.18798828125,1.4375,-0.5625,-1.5
1.644999999999987,-3.0,-1.0,-2.0,-7.0,-1.0,23.0,-2.0,-1.0,0.67425537109375,0.37811279296875,-0.585205078125,-0.24481201171875,-0.619140625,-0.79638671875,-0.18798828125,1.4375,-0.5625,-1.5
1.6499999999999868,-3.0,-1.0,-2.0,-7.0,-1.0,23.0,-2.0,-1.0,0.67401123046875,0.37799072265625,-0.58544921875,-0.2451171875,-0.623046875,-0.79296875,-0.1943359375,2.0625,-0.875,-1.25
1.6549999999999867,-3.0,-1.0,-2.0,-7.0,-1.0,23.0,-2.0,-1.0,0.67401123046875,0.37799072265625,-0.58544921875,-0.2451171875,-0.623046875,-0.79296875,-0.1943359375,2.0625,-0.875,-1.25
1.6599999999999866,0.0,1.0,0.0,-32.0,-3.0,5.0,2.0,-1.0,0.67401123046875,0.37799072265625,-0.58544921875,-0.2451171875,-0.623046875,-0.79296875,-0.1943359375,2.0625,-0.875,-1.25
1.6649999999999865,0.0,1.0,0.0,-32.0,-3.0,5.0,2.0,-1.0,0.67401123046875,0.37799072265625,-0.58544921875,-0.2451171875,-0.623046875,-0.79296875,-0.1943359375,2.0625,-0.875,-1.25
1.6699999999999864,-3.0,-4.0,-4.0,-7.0,-5.0,-21.0,-1.0,-1.0,0.67401123046875,0.37799072265625,-0.58544921875,-0.2451171875,-0.623046875,-0.79296875,-0.1943359375,2.0625,-0.875,-1.25
1.6749999999999863,-3.0,-4.0,-4.0,-7.0,-5.0,-21.0,-1.0,-1.0,0.6737060546875,0.37799072265625,-0.58563232421875,-0.245361328125,-0.62353515625,-0.79052734375,-0.19482421875,1.6875,-1.0,-1.375
1.6799999999999862,-3.0,-4.0,-4.0,-7.0,-5.0,-21.0,-1.0,-1.0,0.6737060546875,0.37799072265625,-0.58563232421875,-0.245361328125,-0.62353515625,-0.79052734375,-0.19482421875,1.6875,-1.0,-1.375
1.684999999999986,-3.0,-5.0,3.0,26.0,1.0,4.0,-4.0,-1.0,0.6737060546875,0.37799072265625,-0.58563232421875,-0.245361328125,-0.62353515625,-0.79052734375,-0.19482421875,1.6875,-1.0,-1.375
1.689999999999986,-3.0,-5.0,3.0,26.0,1.0,4.0,-4.0,-1.0,0.6737060546875,0.37799072265625,-0.58563232421875,-0.245361328125,-0.62353515625,-0.79052734375,-0.19482421875,1.6875,-1.0,-1.375
1.6949999999999859,17.0,0.0,-4.0,-8.0,-5.0,-12.0,-7.0,-8.0,0.6737060546875,0.37799072265625,-0.58563232421875,-0.245361328125,-0.61865234375,-0.79296875,-0.1943359375,0.0625,-0.4375,-1.0
1.6999999999999857,17.0,0.0,-4.0,-8.0,-5.0,-12.0,-7.0,-8.0,0.6737060546875,0.37799072265625,-0.58563232421875,-0.245361328125,-0.61865234375,-0.79296875,-0.1943359375,0.0625,-0.4375,-1.0
1.7049999999999856,-7.0,1.0,2.0,-4.0,3.0,-4.0,0.0,-1.0,0.6737060546875,0.37799072265625,-0.58563232421875,-0.245361328125,-0.61865234375,-0.79296875,-0.1943359375,0.0625,-0.4375,-1.0
1.7099999999999855,-7.0,1.0,2.0,-4.0,3.0,-4.0,0.0,-1.0,0.6737060546875,0.37799072265625,-0.585693359375,-0.24542236328125,-0.615234375,-0.7939453125,-0.19189453125,-0.1875,0.0625,-0.1875
1.7149999999999854,-7.0,1.0,2.0,-4.0,3.0,-4.0,0.0,-1.0,0.6737060546875,0.37799072265625,-0.585693359375,-0.24542236328125,-0.615234375,-0.7939453125,-0.19189453125,-0.1875,0.0625,-0.1875
1.7199999999999853,-7.0,1.0,2.0,-4.0,3.0,-4.0,0.0,-1.0,0.6737060546875,0.37799072265625,-0.585693359375,-0.24542236328125,-0.615234375,-0.7939453125,-0.19189453125,-0.1875,0.0625,-0.1875
1.7249999999999852,-3.0,-2.0,-4.0,-49.0,-9.0,-7.0,-4.0,1.0,0.6737060546875,0.37799072265625,-0.585693359375,-0.24542236328125,-0.615234375,-0.7939453125,-0.19189453125,-0.1875,0.0625,-0.1875
1.729999999999985,-3.0,-2.0,-4.0,-49.0,-9.0,-7.0,-4.0,1.0,0.6737060546875,0.37799072265625,-0.585693359375,-0.24542236328125,-0.615234375,-0.7939453125,-0.19189453125,-0.1875,0.0625,-0.1875
1.734999999999985,-3.0,-2.0,-4.0,-49.0,-9.0,-7.0,-4.0,1.0,0.6737060546875,0.37799072265625,-0.585693359375,-0.24542236328125,-0.6220703125,-0.794921875,-0.189453125,0.3125,0.5,0.25
1.739999999999985,-3.0,-2.0,-4.0,-49.0,-9.0,-7.0,-4.0,1.0,0.6737060546875,0.37799072265625,-0.585693359375,-0.24542236328125,-0.6220703125,-0.794921875,-0.189453125,0.3125,0.5,0.25
1.7449999999999848,-9.0,0.0,1.0,-3.0,3.0,12.0,4.0,-1.0,0.6737060546875,0.37799072265625,-0.585693359375,-0.24542236328125,-0.6220703125,-0.794921875,-0.189453125,0.3125,0.5,0.25
1.7499999999999847,-9.0,0.0,1.0,-3.0,3.0,12.0,4.0,-1.0,0.6737060546875,0.37799072265625,-0.585693359375,-0.24542236328125,-0.6220703125,-0.794921875,-0.189453125,0.3125,0.5,0.25
1.7549999999999846,-7.0,1.0,-2.0,12.0,0.0,0.0,1.0,4.0,0.6737060546875,0.37799072265625,-0.585693359375,-0.24542236328125,-0.6220703125,-0.794921875,-0.189453125,0.3125,0.5,0.25
1.7599999999999845,-7.0,1.0,-2.0,12.0,0.0,0.0,1.0,4.0,0.67364501953125,0.37799072265625,-0.585693359375,-0.24542236328125,-0.61962890625,-0.7900390625,-0.18798828125,0.0,0.4375,0.8125
1.7649999999999844,-7.0,1.0,-2.0,12.0,0.0,0.0,1.0,4.0,0.67364501953125,0.37799072265625,-0.585693359375,-0.24542236328125,-0.61962890625,-0.7900390625,-0.18798828125,0.0,0.4375,0.8125
1.7699999999999843,5.0,1.0,-4.0,7.0,-2.0,-9.0,-1.0,-1.0,0.67364501953125,0.37799072265625,-0.585693359375,-0.24542236328125,-0.61962890625,-0.7900390625,-0.18798828125,0.0,0.4375,0.8125
1.7749999999999841,-17.0,2.0,3.0,16.0,0.0,-4.0,0.0,1.0,0.67364501953125,0.37799072265625,-0.585693359375,-0.24542236328125,-0.61962890625,-0.7900390625,-0.18798828125,0.0,0.4375,0.8125
1.779999999999984,-17.0,2.0,3.0,16.0,0.0,-4.0,0.0,1.0,0.67364501953125,0.3779296875,-0.58575439453125,-0.24542236328125,-0.6171875,-0.79150390625,-0.19482421875,0.4375,0.375,0.75
1.784999999999984,-17.0,2.0,3.0,16.0,0.0,-4.0,0.0,1.0,0.67364501953125,0.3779296875,-0.58575439453125,-0.24542236328125,-0.6171875,-0.79150390625,-0.19482421875,0.4375,0.375,0.75
1.7899999999999838,6.0,0.0,-6.0,3.0,-3.0,-7.0,3.0,-2.0,0.67364501953125,0.3779296875,-0.58575439453125,-0.24542236328125,-0.6171875,-0.79150390625,-0.19482421875,0.4375,0.375,0.75
1.7949999999999837,6.0,0.0,-6.0,3.0,-3.0,-7.0,3.0,-2.0,0.67364501953125,0.3779296875,-0.58575439453125,-0.24542236328125,-0.6171875,-0.79150390625,-0.19482421875,0.4375,0.375,0.75
1.7999999999999836,-9.0,-3.0,-2.0,4.0,0.0,31.0,-2.0,-1.0,0.67364501953125,0.3779296875,-0.58575439453125,-0.24542236328125,-0.6171875,-0.79150390625,-0.19482421875,0.4375,0.375,0.75
1.8049999999999835,-9.0,-3.0,-2.0,4.0,0.0,31.0,-2.0,-1.0,0.67364501953125,0.3779296875,-0.58575439453125,-0.24542236328125,-0.6171875,-0.79150390625,-0.19482421875,0.4375,0.375,0.75
1.8099999999999834,-9.0,-3.0,-2.0,4.0,0.0,31.0,-2.0,-1.0,0.67364501953125,0.3779296875,-0.58575439453125,-0.24542236328125,-0.62060546875,-0.7958984375,-0.1875,0.0,0.3125,0.3125
1.8149999999999833,-9.0,-3.0,-2.0,4.0,0.0,31.0,-2.0,-1.0,0.67364501953125,0.3779296875,-0.58575439453125,-0.24542236328125,-0.62060546875,-0.7958984375,-0.1875,0.0,0.3125,0.3125
1.8199999999999832,9.0,5.0,1.0,-4.0,-2.0,-9.0,-1.0,-1.0,0.67364501953125,0.3779296875,-0.58575439453125,-0.24542236328125,-0.62060546875,-0.7958984375,-0.1875,0.0,0.3125,0.3125
1.824999999999983,9.0,5.0,1.0,-4.0,-2.0,-9.0,-1.0,-1.0,0.67364501953125,0.3779296875,-0.58575439453125,-0.24542236328125,-0.62060546875,-0.7958984375,-0.1875,0.0,0.3125,0.3125
1.829999999999983,6.0,0.0,1.0,13.0,3.0,-4.0,3.0,3.0,0.67364501953125,0.3779296875,-0.58575439453125,-0.24542236328125,-0.61376953125,-0.7900390625,-0.19140625,-0.0625,0.0625,0.125
1.8349999999999829,6.0,0.0,1.0,13.0,3.0,-4.0,3.0,3.0,0.67364501953125,0.3779296875,-0.58575439453125,-0.24542236328125,-0.61376953125,-0.7900390625,-0.19140625,-0.0625,0.0625,0.125
1.8399999999999828,6.0,0.0,1.0,13.0,3.0,-4.0,3.0,3.0,0.67364501953125,0.3779296875,-0.58575439453125,-0.24542236328125,-0.61376953125,-0.7900390625,-0.19140625,-0.0625,0.0625,0.125
1.8449999999999827,6.0,0.0,1.0,13.0,3.0,-4.0,3.0,3.0,0.67364501953125,0.3779296875,-0.58575439453125,-0.24542236328125,-0.61376953125,-0.7900390625,-0.19140625,-0.0625,0.0625,0.125
1.8499999999999825,-3.0,2.0,3.0,41.0,2.0,-6.0,0.0,-4.0,0.67364501953125,0.3779296875,-0.58575439453125,-0.24542236328125,-0.61376953125,-0.7900390625,-0.19140625,-0.0625,0.0625,0.125
1.8549999999999824,-3.0,2.0,3.0,41.0,2.0,-6.0,0.0,-4.0,0.67364501953125,0.3779296875,-0.58575439453125,-0.24542236328125,-0.61376953125,-0.7900390625,-0.19140625,-0.0625,0.0625,0.125
1.8599999999999823,-3.0,2.0,3.0,41.0,2.0,-6.0,0.0,-4.0,0.67364501953125,0.3779296875,-0.58575439453125,-0.24542236328125,-0.619140625,-0.7978515625,-0.18896484375,-0.625,0.0625,0.3125
1.8649999999999822,-3.0,2.0,3.0,41.0,2.0,-6.0,0.0,-4.0,0.67364501953125,0.3779296875,-0.58575439453125,-0.24542236328125,-0.619140625,-0.7978515625,-0.18896484375,-0.625,0.0625,0.3125
1.8699999999999821,-19.0,-3.0,-2.0,6.0,1.0,-1.0,1.0,0.0,0.67364501953125,0.3779296875,-0.58575439453125,-0.24542236328125,-0.619140625,-0.7978515625,-0.18896484375,-0.625,0.0625,0.3125
1.874999999999982,-19.0,-3.0,-2.0,6.0,1.0,-1.0,1.0,0.0,0.67364501953125,0.3779296875,-0.58575439453125,-0.24542236328125,-0.619140625,-0.7978515625,-0.18896484375,-0.625,0.0625,0.3125
1.879999999999982,-1.0,-16.0,-4.0,1.0,-6.0,-9.0,-4.0,-2.0,0.67364501953125,0.3779296875,-0.58575439453125,-0.24542236328125,-0.619140625,-0.7978515625,-0.18896484375,-0.625,0.0625,0.3125
1.8849999999999818,-1.0,-16.0,-4.0,1.0,-6.0,-9.0,-4.0,-2.0,0.673583984375,0.3779296875,-0.5858154296875,-0.2454833984375,-0.61962890625,-0.79296875,-0.1884765625,0.0625,0.25,-0.3125
1.8899999999999817,-1.0,-16.0,-4.0,1.0,-6.0,-9.0,-4.0,-2.0,0.673583984375,0.3779296875,-0.5858154296875,-0.2454833984375,-0.61962890625,-0.79296875,-0.1884765625,0.0625,0.25,-0.3125
1.8949999999999816,-5.0,-2.0,-2.0,14.0,0.0,-1.0,-1.0,-1.0,0.673583984375,0.3779296875,-0.5858154296875,-0.2454833984375,-0.61962890625,-0.79296875,-0.1884765625,0.0625,0.25,-0.3125
1.8999999999999815,-5.0,-2.0,-2.0,14.0,0.0,-1.0,-1.0,-1.0,0.673583984375,0.3779296875,-0.5858154296875,-0.2454833984375,-0.61962890625,-0.79296875,-0.1884765625,0.0625,0.25,-0.3125
1.9049999999999814,-5.0,-2.0,-2.0,14.0,0.0,-1.0,-1.0,-1.0,0.673583984375,0.3779296875,-0.5858154296875,-0.2454833984375,-0.61962890625,-0.79296875,-0.1884765625,0.0625,0.25,-0.3125
1.9099999999999813,3.0,4.0,-1.0,-2.0,0.0,2.0,4.0,0.0,0.673583984375,0.3779296875,-0.5858154296875,-0.2454833984375,-0.623046875,-0.7919921875,-0.19140625,-0.0625,0.0,-0.0625
1.9149999999999812,3.0,4.0,-1.0,-2.0,0.0,2.0,4.0,0.0,0.673583984375,0.3779296875,-0.5858154296875,-0.2454833984375,-0.623046875,-0.7919921875,-0.19140625,-0.0625,0.0,-0.0625
1.919999999999981,3.0,4.0,-1.0,-2.0,0.0,2.0,4.0,0.0,0.673583984375,0.3779296875,-0.5858154296875,-0.2454833984375,-0.623046875,-0.7919921875,-0.19140625,-0.0625,0.0,-0.0625
1.924999999999981,0.0,-2.0,1.0,15.0,1.0,5.0,-3.0,-2.0,0.673583984375,0.3779296875,-0.5858154296875,-0.2454833984375,-0.623046875,-0.7919921875,-0.19140625,-0.0625,0.0,-0.0625
1.9299999999999808,0.0,-2.0,1.0,15.0,1.0,5.0,-3.0,-2.0,0.673583984375,0.3779296875,-0.5858154296875,-0.2454833984375,-0.623046875,-0.7919921875,-0.19140625,-0.0625,0.0,-0.0625
1.9349999999999807,-5.0,0.0,-3.0,-3.0,-2.0,-32.0,-4.0,-2.0,0.673583984375,0.3779296875,-0.5858154296875,-0.2454833984375,-0.623046875,-0.7919921875,-0.19140625,-0.0625,0.0,-0.0625
1.9399999999999806,-5.0,0.0,-3.0,-3.0,-2.0,-32.0,-4.0,-2.0,0.673583984375,0.3779296875,-0.5858154296875,-0.24542236328125,-0.62451171875,-0.7890625,-0.19189453125,0.5,-0.125,-0.3125
1.9449999999999805,-3.0,-2.0,-3.0,-9.0,0.0,8.0,-1.0,0.0,0.673583984375,0.3779296875,-0.5858154296875,-0.24542236328125,-0.62451171875,-0.7890625,-0.19189453125,0.5,-0.125,-0.3125
1.9499999999999804,-3.0,-2.0,-3.0,-9.0,0.0,8.0,-1.0,0.0,0.673583984375,0.3779296875,-0.5858154296875,-0.24542236328125,-0.62451171875,-0.7890625,-0.19189453125,0.5,-0.125,-0.3125
1.9549999999999803,3.0,0.0,-1.0,-12.0,-5.0,-15.0,-3.0,-2.0,0.673583984375,0.3779296875,-0.5858154296875,-0.24542236328125,-0.62451171875,-0.7890625,-0.19189453125,0.5,-0.125,-0.3125
1.9599999999999802,3.0,0.0,-1.0,-12.0,-5.0,-15.0,-3.0,-2.0,0.673583984375,0.3779296875,-0.5858154296875,-0.24542236328125,-0.62451171875,-0.7890625,-0.19189453125,0.5,-0.125,-0.3125
1.96499999999998,3.0,0.0,-1.0,-12.0,-5.0,-15.0,-3.0,-2.0,0.673583984375,0.37786865234375,-0.58587646484375,-0.24542236328125,-0.6181640625,-0.79052734375,-0.189453125,0.4375,0.1875,-0.25
1.96999999999998,3.0,0.0,-1.0,-12.0,-5.0,-15.0,-3.0,-2.0,0.673583984375,0.37786865234375,-0.58587646484375,-0.24542236328125,-0.6181640625,-0.79052734375,-0.189453125,0.4375,0.1875,-0.25
1.9749999999999799,0.0,-1.0,1.0,1.0,0.0,3.0,-2.0,-2.0,0.673583984375,0.37786865234375,-0.58587646484375,-0.24542236328125,-0.6181640625,-0.79052734375,-0.189453125,0.4375,0.1875,-0.25
1.9799999999999798,0.0,-1.0,1.0,1.0,0.0,3.0,-2.0,-2.0,0.673583984375,0.37786865234375,-0.58587646484375,-0.24542236328125,-0.6181640625,-0.79052734375,-0.189453125,0.4375,0.1875,-0.25
1.9849999999999797,1.0,3.0,1.0,17.0,-1.0,-3.0,-7.0,-2.0,0.673583984375,0.37786865234375,-0.58587646484375,-0.2454833984375,-0.62060546875,-0.79541015625,-0.1865234375,-0.25,0.8125,-0.375
1.9899999999999796,1.0,3.0,1.0,17.0,-1.0,-3.0,-7.0,-2.0,0.673583984375,0.37786865234375,-0.58587646484375,-0.2454833984375,-0.62060546875,-0.79541015625,-0.1865234375,-0.25,0.8125,-0.375
1.9949999999999795,1.0,3.0,1.0,17.0,-1.0,-3.0,-7.0,-2.0,0.673583984375,0.37786865234375,-0.58587646484375,-0.2454833984375,-0.62060546875,-0.79541015625,-0.1865234375,-0.25,0.8125,-0.375
1.9999999999999793,1.0,3.0,1.0,17.0,-1.0,-3.0,-7.0,-2.0,0.673583984375,0.37786865234375,-0.58587646484375,-0.2454833984375,-0.62060546875,-0.79541015625,-0.1865234375,-0.25,0.8125,-0.375
2.0049999999999795,11.0,1.0,0.0,-16.0,1.0,7.0,3.0,2.0,0.673583984375,0.37786865234375,-0.58587646484375,-0.2454833984375,-0.62060546875,-0.79541015625,-0.1865234375,-0.25,0.8125,-0.375
2.0099999999999794,11.0,1.0,0.0,-16.0,1.0,7.0,3.0,2.0,0.673583984375,0.37786865234375,-0.58587646484375,-0.2454833984375,-0.62060546875,-0.79541015625,-0.1865234375,-0.25,0.8125,-0.375
2.0149999999999793,-2.0,-2.0,-4.0,-8.0,-2.0,2.0,-3.0,-2.0,0.67364501953125,0.37774658203125,-0.5858154296875,-0.24554443359375,-0.62109375,-0.79541015625,-0.18798828125,-0.125,1.3125,0.375
2.019999999999979,-18.0,-2.0,2.0,22.0,0.0,-9.0,-4.0,1.0,0.67364501953125,0.37774658203125,-0.5858154296875,-0.24554443359375,-0.62109375,-0.79541015625,-0.18798828125,-0.125,1.3125,0.375
2.024999999999979,-18.0,-2.0,2.0,22.0,0.0,-9.0,-4.0,1.0,0.67364501953125,0.37774658203125,-0.5858154296875,-0.24554443359375,-0.62109375,-0.79541015625,-0.18798828125,-0.125,1.3125,0.375
2.029999999999979,3.0,-2.0,-3.0,-3.0,0.0,2.0,-3.0,0.0,0.67364501953125,0.37774658203125,-0.5858154296875,-0.24554443359375,-0.62109375,-0.79541015625,-0.18798828125,-0.125,1.3125,0.375
2.034999999999979,3.0,-2.0,-3.0,-3.0,0.0,2.0,-3.0,0.0,0.67376708984375,0.377685546875,-0.58575439453125,-0.24554443359375,-0.619140625,-0.79345703125,-0.18994140625,-0.8125,1.1875,0.375
2.0399999999999787,-3.0,0.0,-2.0,-6.0,-3.0,-20.0,-2.0,0.0,0.67376708984375,0.377685546875,-0.58575439453125,-0.24554443359375,-0.619140625,-0.79345703125,-0.18994140625,-0.8125,1.1875,0.375
2.0449999999999786,2.0,-3.0,-1.0,-6.0,-2.0,8.0,1.0,-2.0,0.67376708984375,0.377685546875,-0.58575439453125,-0.24554443359375,-0.619140625,-0.79345703125,-0.18994140625,-0.8125,1.1875,0.375
2.0499999999999785,2.0,-3.0,-1.0,-6.0,-2.0,8.0,1.0,-2.0,0.67376708984375,0.377685546875,-0.58575439453125,-0.24554443359375,-0.619140625,-0.79345703125,-0.18994140625,-0.8125,1.1875,0.375
2.0549999999999784,-5.0,0.0,0.0,4.0,6.0,16.0,4.0,0.0,0.67401123046875,0.37762451171875,-0.5855712890625,-0.24542236328125,-0.619140625,-0.79248046875,-0.18994140625,-1.25,1.625,0.9375
2.0599999999999783,-5.0,0.0,0.0,4.0,6.0,16.0,4.0,0.0,0.67401123046875,0.37762451171875,-0.5855712890625,-0.24542236328125,-0.619140625,-0.79248046875,-0.18994140625,-1.25,1.625,0.9375
2.064999999999978,-5.0,0.0,0.0,4.0,6.0,16.0,4.0,0.0,0.67401123046875,0.37762451171875,-0.5855712890625,-0.24542236328125,-0.619140625,-0.79248046875,-0.18994140625,-1.25,1.625,0.9375
2.069999999999978,4.0,-4.0,-2.0,12.0,-3.0,-20.0,-13.0,-7.0,0.67401123046875,0.37762451171875,-0.5855712890625,-0.24542236328125,-0.619140625,-0.79248046875,-0.18994140625,-1.25,1.625,0.9375
2.074999999999978,-6.0,-2.0,-1.0,-39.0,-9.0,-17.0,-2.0,-3.0,0.67401123046875,0.37762451171875,-0.5855712890625,-0.24542236328125,-0.619140625,-0.79248046875,-0.18994140625,-1.25,1.625,0.9375
2.079999999999978,5.0,2.0,-2.0,-16.0,6.0,26.0,-3.0,-1.0,0.67413330078125,0.3775634765625,-0.58544921875,-0.24542236328125,-0.6162109375,-0.7998046875,-0.19091796875,-0.6875,1.3125,0.6875
2.0849999999999778,1.0,-14.0,-1.0,6.0,1.0,8.0,-1.0,0.0,0.67413330078125,0.3775634765625,-0.58544921875,-0.24542236328125,-0.6162109375,-0.7998046875,-0.19091796875,-0.6875,1.3125,0.6875
2.0899999999999777,-3.0,-3.0,1.0,-6.0,-6.0,-13.0,-1.0,0.0,0.67413330078125,0.3775634765625,-0.58544921875,-0.24542236328125,-0.6162109375,-0.7998046875,-0.19091796875,-0.6875,1.3125,0.6875
2.0949999999999775,-3.0,-3.0,1.0,-6.0,-6.0,-13.0,-1.0,0.0,0.67413330078125,0.3775634765625,-0.58544921875,-0.24542236328125,-0.6162109375,-0.7998046875,-0.19091796875,-0.6875,1.3125,0.6875
2.0999999999999774,-3.0,-3.0,1.0,-6.0,-6.0,-13.0,-1.0,0.0,0.6741943359375,0.37738037109375,-0.58544921875,-0.24560546875,-0.6181640625,-0.79638671875,-0.18505859375,0.1875,1.5,0.4375
2.1049999999999773,23.0,3.0,-1.0,-7.0,-2.0,-4.0,-1.0,-2.0,0.6741943359375,0.37738037109375,-0.58544921875,-0.24560546875,-0.6181640625,-0.79638671875,-0.18505859375,0.1875,1.5,0.4375
2.1099999999999772,23.0,3.0,-1.0,-7.0,-2.0,-4.0,-1.0,-2.0,0.6741943359375,0.37738037109375,-0.58544921875,-0.24560546875,-0.6181640625,-0.79638671875,-0.18505859375,0.1875,1.5,0.4375
2.114999999999977,23.0,3.0,-1.0,-7.0,-2.0,-4.0,-1.0,-2.0,0.6741943359375,0.37738037109375,-0.58544921875,-0.24560546875,-0.6181640625,-0.79638671875,-0.18505859375,0.1875,1.5,0.4375
2.119999999999977,-2.0,-1.0,0.0,4.0,1.0,2.0,0.0,-3.0,0.6741943359375,0.37738037109375,-0.58544921875,-0.24560546875,-0.6181640625,-0.79638671875,-0.18505859375,0.1875,1.5,0.4375
2.124999999999977,-2.0,-1.0,0.0,4.0,1.0,2.0,0.0,-3.0,0.67431640625,0.3773193359375,-0.58526611328125,-0.24566650390625,-0.61669921875,-0.79052734375,-0.1943359375,-0.375,1.375,0.1875
2.129999999999977,-2.0,-1.0,0.0,4.0,1.0,2.0,0.0,-3.0,0.67431640625,0.3773193359375,-0.58526611328125,-0.24566650390625,-0.61669921875,-0.79052734375,-0.1943359375,-0.375,1.375,0.1875
2.1349999999999767,-2.0,-1.0,0.0,4.0,1.0,2.0,0.0,-3.0,0.67431640625,0.3773193359375,-0.58526611328125,-0.24566650390625,-0.61669921875,-0.79052734375,-0.1943359375,-0.375,1.375,0.1875
2.1399999999999766,-2.0,1.0,-3.0,8.0,-1.0,-8.0,0.0,0.0,0.67431640625,0.3773193359375,-0.58526611328125,-0.24566650390625,-0.61669921875,-0.79052734375,-0.1943359375,-0.375,1.375,0.1875
2.1449999999999765,-1.0,1.0,-1.0,-52.0,-6.0,5.0,-2.0,-2.0,0.6744384765625,0.37713623046875,-0.585205078125,-0.2457275390625,-0.62109375,-0.7861328125,-0.1923828125,0.0,1.0625,0.125
2.1499999999999764,-1.0,1.0,-1.0,-52.0,-6.0,5.0,-2.0,-2.0,0.6744384765625,0.37713623046875,-0.585205078125,-0.2457275390625,-0.62109375,-0.7861328125,-0.1923828125,0.0,1.0625,0.125
2.1549999999999763,-1.0,1.0,-1.0,-52.0,-6.0,5.0,-2.0,-2.0,0.6744384765625,0.37713623046875,-0.585205078125,-0.2457275390625,-0.62109375,-0.7861328125,-0.1923828125,0.0,1.0625,0.125
2.159999999999976,-3.0,-3.0,0.0,22.0,4.0,32.0,2.0,-1.0,0.6744384765625,0.37713623046875,-0.585205078125,-0.2457275390625,-0.62109375,-0.7861328125,-0.1923828125,0.0,1.0625,0.125
2.164999999999976,-3.0,-3.0,0.0,22.0,4.0,32.0,2.0,-1.0,0.674560546875,0.37713623046875,-0.5850830078125,-0.2457275390625,-0.619140625,-0.7919921875,-0.19384765625,-0.5625,1.0625,-0.0625
2.169999999999976,-3.0,-3.0,0.0,22.0,4.0,32.0,2.0,-1.0,0.674560546875,0.37713623046875,-0.5850830078125,-0.2457275390625,-0.619140625,-0.7919921875,-0.19384765625,-0.5625,1.0625,-0.0625
2.174999999999976,-5.0,2.0,0.0,2.0,0.0,5.0,-5.0,-3.0,0.674560546875,0.37713623046875,-0.5850830078125,-0.2457275390625,-0.619140625,-0.7919921875,-0.19384765625,-0.5625,1.0625,-0.0625
2.1799999999999757,-5.0,2.0,0.0,2.0,0.0,5.0,-5.0,-3.0,0.674560546875,0.37713623046875,-0.5850830078125,-0.2457275390625,-0.619140625,-0.7919921875,-0.19384765625,-0.5625,1.0625,-0.0625
2.1849999999999756,0.0,0.0,-4.0,-1.0,-9.0,-14.0,1.0,-1.0,0.674560546875,0.37713623046875,-0.5850830078125,-0.2457275390625,-0.619140625,-0.7919921875,-0.19384765625,-0.5625,1.0625,-0.0625
2.1899999999999755,0.0,0.0,-4.0,-1.0,-9.0,-14.0,1.0,-1.0,0.67449951171875,0.37713623046875,-0.58514404296875,-0.2457275390625,-0.619140625,-0.79296875,-0.19091796875,-0.9375,0.8125,-0.1875
2.1949999999999754,0.0,0.0,-4.0,-1.0,-9.0,-14.0,1.0,-1.0,0.67449951171875,0.37713623046875,-0.58514404296875,-0.2457275390625,-0.619140625,-0.79296875,-0.19091796875,-0.9375,0.8125,-0.1875
2.1999999999999753,0.0,0.0,-4.0,-1.0,-9.0,-14.0,1.0,-1.0,0.67449951171875,0.37713623046875,-0.58514404296875,-0.2457275390625,-0.619140625,-0.79296875,-0.19091796875,-0.9375,0.8125,-0.1875
2.204999999999975,12.0,-10.0,1.0,11.0,2.0,-6.0,-4.0,-5.0,0.67449951171875,0.37713623046875,-0.58514404296875,-0.2457275390625,-0.619140625,-0.79296875,-0.19091796875,-0.9375,0.8125,-0.1875
2.209999999999975,12.0,-10.0,1.0,11.0,2.0,-6.0,-4.0,-5.0,0.67449951171875,0.37713623046875,-0.58514404296875,-0.2457275390625,-0.619140625,-0.79296875,-0.19091796875,-0.9375,0.8125,-0.1875
2.214999999999975,2.0,-2.0,-5.0,-39.0,-6.0,-12.0,0.0,0.0,0.67449951171875,0.37713623046875,-0.58514404296875,-0.2457275390625,-0.62158203125,-0.79541015625,-0.1953125,0.3125,0.75,-0.375
2.219999999999975,2.0,-2.0,-5.0,-39.0,-6.0,-12.0,0.0,0.0,0.67449951171875,0.37713623046875,-0.58514404296875,-0.2457275390625,-0.62158203125,-0.79541015625,-0.1953125,0.3125,0.75,-0.375
2.2249999999999748,-4.0,-1.0,0.0,-2.0,2.0,4.0,0.0,1.0,0.67449951171875,0.37713623046875,-0.58514404296875,-0.2457275390625,-0.62158203125,-0.79541015625,-0.1953125,0.3125,0.75,-0.375
2.2299999999999747,4.0,0.0,3.0,23.0,2.0,0.0,1.0,0.0,0.67449951171875,0.37713623046875,-0.58514404296875,-0.2457275390625,-0.62158203125,-0.79541015625,-0.1953125,0.3125,0.75,-0.375
2.2349999999999746,4.0,0.0,3.0,23.0,2.0,0.0,1.0,0.0,0.674560546875,0.37689208984375,-0.585205078125,-0.245849609375,-0.6240234375,-0.78369140625,-0.19580078125,1.0625,0.5625,0.0
2.2399999999999745,4.0,0.0,3.0,23.0,2.0,0.0,1.0,0.0,0.674560546875,0.37689208984375,-0.585205078125,-0.245849609375,-0.6240234375,-0.78369140625,-0.19580078125,1.0625,0.5625,0.0
2.2449999999999743,-8.0,-2.0,-6.0,-5.0,-4.0,-4.0,-2.0,-2.0,0.674560546875,0.37689208984375,-0.585205078125,-0.245849609375,-0.6240234375,-0.78369140625,-0.19580078125,1.0625,0.5625,0.0
2.2499999999999742,-17.0,2.0,-2.0,-2.0,-3.0,-23.0,-1.0,-2.0,0.674560546875,0.37689208984375,-0.585205078125,-0.245849609375,-0.62060546875,-0.78369140625,-0.19482421875,-0.8125,0.875,0.0625
2.254999999999974,-17.0,2.0,-2.0,-2.0,-3.0,-23.0,-1.0,-2.0,0.674560546875,0.37689208984375,-0.585205078125,-0.245849609375,-0.62060546875,-0.78369140625,-0.19482421875,-0.8125,0.875,0.0625
2.259999999999974,-17.0,2.0,-2.0,-2.0,-3.0,-23.0,-1.0,-2.0,0.674560546875,0.37689208984375,-0.585205078125,-0.245849609375,-0.62060546875,-0.78369140625,-0.19482421875,-0.8125,0.875,0.0625
2.264999999999974,-4.0,2.0,1.0,-3.0,8.0,30.0,5.0,3.0,0.674560546875,0.37689208984375,-0.585205078125,-0.245849609375,-0.62060546875,-0.78369140625,-0.19482421875,-0.8125,0.875,0.0625
2.269999999999974,-4.0,2.0,1.0,-3.0,8.0,30.0,5.0,3.0,0.674560546875,0.37689208984375,-0.585205078125,-0.245849609375,-0.62060546875,-0.78369140625,-0.19482421875,-0.8125,0.875,0.0625
2.2749999999999737,-4.0,2.0,1.0,-3.0,8.0,30.0,5.0,3.0,0.674560546875,0.37689208984375,-0.585205078125,-0.245849609375,-0.62060546875,-0.78369140625,-0.19482421875,-0.8125,0.875,0.0625
2.2799999999999736,1.0,-5.0,-3.0,22.0,-9.0,-13.0,-2.0,0.0,0.6746826171875,0.37701416015625,-0.58502197265625,-0.2457275390625,-0.6220703125,-0.7939453125,-0.19921875,-1.625,0.875,-0.0625
2.2849999999999735,1.0,-5.0,-3.0,22.0,-9.0,-13.0,-2.0,0.0,0.6746826171875,0.37701416015625,-0.58502197265625,-0.2457275390625,-0.6220703125,-0.7939453125,-0.19921875,-1.625,0.875,-0.0625
2.2899999999999734,4.0,-1.0,-1.0,0.0,-1.0,0.0,-7.0,-2.0,0.6746826171875,0.37701416015625,-0.58502197265625,-0.2457275390625,-0.6220703125,-0.7939453125,-0.19921875,-1.625,0.875,-0.0625
2.2949999999999733,4.0,-1.0,-1.0,0.0,-1.0,0.0,-7.0,-2.0,0.6746826171875,0.37701416015625,-0.58502197265625,-0.2457275390625,-0.6220703125,-0.7939453125,-0.19921875,-1.625,0.875,-0.0625
2.299999999999973,4.0,-1.0,-1.0,0.0,-1.0,0.0,-7.0,-2.0,0.6746826171875,0.37701416015625,-0.58502197265625,-0.2457275390625,-0.619140625,-0.80126953125,-0.18994140625,-0.0625,0.875,-0.0625
2.304999999999973,-6.0,2.0,-6.0,-9.0,-2.0,-9.0,-4.0,-1.0,0.6746826171875,0.37701416015625,-0.58502197265625,-0.2457275390625,-0.619140625,-0.80126953125,-0.18994140625,-0.0625,0.875,-0.0625
2.309999999999973,-6.0,2.0,-6.0,-9.0,-2.0,-9.0,-4.0,-1.0,0.6746826171875,0.37701416015625,-0.58502197265625,-0.2457275390625,-0.619140625,-0.80126953125,-0.18994140625,-0.0625,0.875,-0.0625
2.314999999999973,0.0,-1.0,-2.0,-9.0,1.0,-1.0,5.0,2.0,0.6746826171875,0.37701416015625,-0.5850830078125,-0.2457275390625,-0.61474609375,-0.791015625,-0.18896484375,0.75,0.875,-0.3125
2.3199999999999728,0.0,-1.0,-2.0,-9.0,1.0,-1.0,5.0,2.0,0.6746826171875,0.37701416015625,-0.5850830078125,-0.2457275390625,-0.61474609375,-0.791015625,-0.18896484375,0.75,0.875,-0.3125
2.3249999999999726,0.0,-1.0,-2.0,-9.0,1.0,-1.0,5.0,2.0,0.6746826171875,0.37701416015625,-0.5850830078125,-0.2457275390625,-0.61474609375,-0.791015625,-0.18896484375,0.75,0.875,-0.3125
2.3299999999999725,-15.0,2.0,3.0,7.0,-1.0,-8.0,1.0,-1.0,0.6746826171875,0.37701416015625,-0.5850830078125,-0.2457275390625,-0.61474609375,-0.791015625,-0.18896484375,0.75,0.875,-0.3125
2.3349999999999724,-15.0,2.0,3.0,7.0,-1.0,-8.0,1.0,-1.0,0.6746826171875,0.37701416015625,-0.5850830078125,-0.2457275390625,-0.61474609375,-0.791015625,-0.18896484375,0.75,0.875,-0.3125
2.3399999999999723,6.0,0.0,-4.0,-21.0,-2.0,0.0,-3.0,-2.0,0.67462158203125,0.37701416015625,-0.5850830078125,-0.2457275390625,-0.6181640625,-0.7919921875,-0.193359375,-0.875,0.875,0.125
2.344999999999972,6.0,0.0,-4.0,-21.0,-2.0,0.0,-3.0,-2.0,0.67462158203125,0.37701416015625,-0.5850830078125,-0.2457275390625,-0.6181640625,-0.7919921875,-0.193359375,-0.875,0.875,0.125
2.349999999999972,6.0,0.0,-4.0,-21.0,-2.0,0.0,-3.0,-2.0,0.67462158203125,0.37701416015625,-0.5850830078125,-0.2457275390625,-0.6181640625,-0.7919921875,-0.193359375,-0.875,0.875,0.125
2.354999999999972,6.0,0.0,-4.0,-21.0,-2.0,0.0,-3.0,-2.0,0.67462158203125,0.37701416015625,-0.5850830078125,-0.2457275390625,-0.6181640625,-0.7919921875,-0.193359375,-0.875,0.875,0.125
2.359999999999972,6.0,0.0,-4.0,-21.0,-2.0,0.0,-3.0,-2.0,0.67462158203125,0.37701416015625,-0.5850830078125,-0.2457275390625,-0.6181640625,-0.7919921875,-0.193359375,-0.875,0.875,0.125
2.364999999999972,6.0,0.0,-4.0,-21.0,-2.0,0.0,-3.0,-2.0,0.67462158203125,0.37701416015625,-0.5850830078125,-0.2457275390625,-0.6181640625,-0.7919921875,-0.193359375,-0.875,0.875,0.125
2.3699999999999717,-1.0,0.0,0.0,5.0,1.0,-10.0,0.0,0.0,0.67462158203125,0.37701416015625,-0.5850830078125,-0.24578857421875,-0.6181640625,-0.79833984375,-0.19140625,-0.6875,0.875,0.1875
2.3749999999999716,-1.0,0.0,0.0,5.0,1.0,-10.0,0.0,0.0,0.67462158203125,0.37701416015625,-0.5850830078125,-0.24578857421875,-0.6181640625,-0.79833984375,-0.19140625,-0.6875,0.875,0.1875
2.3799999999999715,-3.0,1.0,0.0,-4.0,2.0,21.0,-2.0,0.0,0.67462158203125,0.37701416015625,-0.5850830078125,-0.24578857421875,-0.6181640625,-0.79833984375,-0.19140625,-0.6875,0.875,0.1875
2.3849999999999714,-3.0,1.0,0.0,-4.0,2.0,21.0,-2.0,0.0,0.67462158203125,0.37701416015625,-0.5850830078125,-0.24578857421875,-0.6181640625,-0.79833984375,-0.19140625,-0.6875,0.875,0.1875
2.3899999999999713,1.0,-1.0,-3.0,-19.0,0.0,6.0,0.0,-1.0,0.67462158203125,0.37701416015625,-0.5850830078125,-0.24578857421875,-0.62060546875,-0.79638671875,-0.19189453125,0.3125,0.8125,0.0
2.394999999999971,1.0,-1.0,-3.0,-19.0,0.0,6.0,0.0,-1.0,0.67462158203125,0.37701416015625,-0.5850830078125,-0.24578857421875,-0.62060546875,-0.79638671875,-0.19189453125,0.3125,0.8125,0.0
2.399999999999971,1.0,-1.0,-3.0,-19.0,0.0,6.0,0.0,-1.0,0.67462158203125,0.37701416015625,-0.5850830078125,-0.24578857421875,-0.62060546875,-0.79638671875,-0.19189453125,0.3125,0.8125,0.0
2.404999999999971,1.0,-1.0,-3.0,-19.0,0.0,6.0,0.0,-1.0,0.67462158203125,0.37701416015625,-0.5850830078125,-0.24578857421875,-0.62060546875,-0.79638671875,-0.19189453125,0.3125,0.8125,0.0
2.409999999999971,1.0,-13.0,0.0,12.0,-3.0,-11.0,-2.0,-3.0,0.67462158203125,0.37701416015625,-0.5850830078125,-0.24578857421875,-0.62060546875,-0.79638671875,-0.19189453125,0.3125,0.8125,0.0
2.4149999999999707,1.0,-13.0,0.0,12.0,-3.0,-11.0,-2.0,-3.0,0.67462158203125,0.37701416015625,-0.5850830078125,-0.24578857421875,-0.62060546875,-0.79638671875,-0.19189453125,0.3125,0.8125,0.0
2.4199999999999706,-15.0,-4.0,-2.0,14.0,2.0,4.0,-1.0,-3.0,0.67462158203125,0.37701416015625,-0.58514404296875,-0.24578857421875,-0.62548828125,-0.7919921875,-0.19775390625,-0.0625,0.75,-0.3125
2.4249999999999705,-15.0,-4.0,-2.0,14.0,2.0,4.0,-1.0,-3.0,0.67462158203125,0.37701416015625,-0.58514404296875,-0.24578857421875,-0.62548828125,-0.7919921875,-0.19775390625,-0.0625,0.75,-0.3125
2.4299999999999704,-15.0,-4.0,-2.0,14.0,2.0,4.0,-1.0,-3.0,0.67462158203125,0.37701416015625,-0.58514404296875,-0.24578857421875,-0.62548828125,-0.7919921875,-0.19775390625,-0.0625,0.75,-0.3125
2.4349999999999703,-15.0,-4.0,-2.0,14.0,2.0,4.0,-1.0,-3.0,0.67462158203125,0.37701416015625,-0.58514404296875,-0.24578857421875,-0.62548828125,-0.7919921875,-0.19775390625,-0.0625,0.75,-0.3125
2.43999999999997,0.0,-1.0,1.0,-2.0,-2.0,-10.0,-3.0,0.0,0.67462158203125,0.37701416015625,-0.58514404296875,-0.24578857421875,-0.62548828125,-0.7919921875,-0.19775390625,-0.0625,0.75,-0.3125
2.44499999999997,0.0,-1.0,1.0,-2.0,-2.0,-10.0,-3.0,0.0,0.67462158203125,0.37701416015625,-0.58514404296875,-0.24578857421875,-0.62548828125,-0.7919921875,-0.19775390625,-0.0625,0.75,-0.3125
2.44999999999997,0.0,-1.0,1.0,-2.0,-2.0,-10.0,-3.0,0.0,0.67462158203125,0.376953125,-0.58514404296875,-0.2457275390625,-0.62451171875,-0.78857421875,-0.20068359375,-0.5625,0.75,-0.5625
2.45499999999997,0.0,-1.0,1.0,-2.0,-2.0,-10.0,-3.0,0.0,0.67462158203125,0.376953125,-0.58514404296875,-0.2457275390625,-0.62451171875,-0.78857421875,-0.20068359375,-0.5625,0.75,-0.5625
2.4599999999999698,20.0,2.0,-2.0,-9.0,-4.0,-5.0,-6.0,-6.0,0.67462158203125,0.376953125,-0.58514404296875,-0.2457275390625,-0.62451171875,-0.78857421875,-0.20068359375,-0.5625,0.75,-0.5625
2.4649999999999697,20.0,2.0,-2.0,-9.0,-4.0,-5.0,-6.0,-6.0,0.67462158203125,0.376953125,-0.58514404296875,-0.2457275390625,-0.62451171875,-0.78857421875,-0.20068359375,-0.5625,0.75,-0.5625
2.4699999999999696,3.0,3.0,3.0,2.0,1.0,3.0,-2.0,0.0,0.67462158203125,0.376953125,-0.58514404296875,-0.2457275390625,-0.62158203125,-0.79296875,-0.19482421875,-0.1875,0.6875,-0.375
2.4749999999999694,3.0,3.0,3.0,2.0,1.0,3.0,-2.0,0.0,0.67462158203125,0.376953125,-0.58514404296875,-0.2457275390625,-0.62158203125,-0.79296875,-0.19482421875,-0.1875,0.6875,-0.375
2.4799999999999693,3.0,3.0,3.0,2.0,1.0,3.0,-2.0,0.0,0.67462158203125,0.376953125,-0.58514404296875,-0.2457275390625,-0.62158203125,-0.79296875,-0.19482421875,-0.1875,0.6875,-0.375
2.4849999999999692,3.0,3.0,3.0,2.0,1.0,3.0,-2.0,0.0,0.67462158203125,0.376953125,-0.58514404296875,-0.2457275390625,-0.62158203125,-0.79296875,-0.19482421875,-0.1875,0.6875,-0.375
2.489999999999969,-4.0,3.0,0.0,-9.0,-2.0,19.0,0.0,-1.0,0.67462158203125,0.376953125,-0.58514404296875,-0.2457275390625,-0.62158203125,-0.79296875,-0.19482421875,-0.1875,0.6875,-0.375
2.494999999999969,-4.0,3.0,0.0,-9.0,-2.0,19.0,0.0,-1.0,0.67462158203125,0.376953125,-0.58514404296875,-0.2457275390625,-0.62158203125,-0.79296875,-0.19482421875,-0.1875,0.6875,-0.375
2.499999999999969,-4.0,3.0,0.0,-9.0,-2.0,19.0,0.0,-1.0,0.67462158203125,0.376953125,-0.58514404296875,-0.2457275390625,-0.62158203125,-0.79296875,-0.19482421875,-0.1875,0.6875,-0.375
2.504999999999969,-4.0,3.0,0.0,-9.0,-2.0,19.0,0.0,-1.0,0.67462158203125,0.376953125,-0.58514404296875,-0.2457275390625,-0.62158203125,-0.79296875,-0.19482421875,-0.1875,0.6875,-0.375
2.5099999999999687,-2.0,-2.0,1.0,4.0,3.0,26.0,1.0,-2.0,0.67462158203125,0.376953125,-0.58514404296875,-0.24578857421875,-0.6171875,-0.7939453125,-0.19140625,0.0,0.6875,-0.25
2.5149999999999686,-2.0,-2.0,1.0,4.0,3.0,26.0,1.0,-2.0,0.67462158203125,0.376953125,-0.58514404296875,-0.24578857421875,-0.6171875,-0.7939453125,-0.19140625,0.0,0.6875,-0.25
2.5199999999999685,1.0,-9.0,-2.0,9.0,-3.0,-8.0,-1.0,1.0,0.67462158203125,0.376953125,-0.58514404296875,-0.24578857421875,-0.6171875,-0.7939453125,-0.19140625,0.0,0.6875,-0.25
2.5249999999999684,1.0,-9.0,-2.0,9.0,-3.0,-8.0,-1.0,1.0,0.67462158203125,0.376953125,-0.58514404296875,-0.24578857421875,-0.6171875,-0.7939453125,-0.19140625,0.0,0.6875,-0.25
2.5299999999999683,1.0,-9.0,-2.0,9.0,-3.0,-8.0,-1.0,1.0,0.67462158203125,0.376953125,-0.58514404296875,-0.24578857421875,-0.6181640625,-0.79345703125,-0.20166015625,-0.1875,0.8125,-0.3125
2.534999999999968,1.0,-9.0,-2.0,9.0,-3.0,-8.0,-1.0,1.0,0.67462158203125,0.376953125,-0.58514404296875,-0.24578857421875,-0.6181640625,-0.79345703125,-0.20166015625,-0.1875,0.8125,-0.3125
2.539999999999968,0.0,2.0,-1.0,-1.0,1.0,2.0,-1.0,-4.0,0.67462158203125,0.376953125,-0.58514404296875,-0.24578857421875,-0.6181640625,-0.79345703125,-0.20166015625,-0.1875,0.8125,-0.3125
2.544999999999968,0.0,2.0,-1.0,-1.0,1.0,2.0,-1.0,-4.0,0.67462158203125,0.376953125,-0.58514404296875,-0.24578857421875,-0.6181640625,-0.79345703125,-0.20166015625,-0.1875,0.8125,-0.3125
2.549999999999968,8.0,2.0,1.0,-24.0,-1.0,-6.0,-1.0,0.0,0.674560546875,0.376953125,-0.58514404296875,-0.24578857421875,-0.62060546875,-0.7978515625,-0.19189453125,-0.1875,0.5625,-0.125
2.5549999999999677,8.0,2.0,1.0,-24.0,-1.0,-6.0,-1.0,0.0,0.674560546875,0.376953125,-0.58514404296875,-0.24578857421875,-0.62060546875,-0.7978515625,-0.19189453125,-0.1875,0.5625,-0.125
2.5599999999999676,8.0,2.0,1.0,-24.0,-1.0,-6.0,-1.0,0.0,0.674560546875,0.376953125,-0.58514404296875,-0.24578857421875,-0.62060546875,-0.7978515625,-0.19189453125,-0.1875,0.5625,-0.125
2.5649999999999675,8.0,2.0,1.0,-24.0,-1.0,-6.0,-1.0,0.0,0.674560546875,0.376953125,-0.58514404296875,-0.24578857421875,-0.62060546875,-0.7978515625,-0.19189453125,-0.1875,0.5625,-0.125
2.5699999999999674,-27.0,-2.0,2.0,-1.0,2.0,-1.0,4.0,2.0,0.674560546875,0.376953125,-0.58514404296875,-0.24578857421875,-0.62060546875,-0.7978515625,-0.19189453125,-0.1875,0.5625,-0.125
2.5749999999999673,-27.0,-2.0,2.0,-1.0,2.0,-1.0,4.0,2.0,0.674560546875,0.376953125,-0.58514404296875,-0.24578857421875,-0.62060546875,-0.7978515625,-0.19189453125,-0.1875,0.5625,-0.125
2.579999999999967,2.0,-1.0,1.0,1.0,-2.0,-6.0,-5.0,-4.0,0.674560546875,0.376953125,-0.585205078125,-0.24578857421875,-0.62109375,-0.7958984375,-0.19091796875,0.0625,0.1875,0.125
2.584999999999967,2.0,-1.0,1.0,1.0,-2.0,-6.0,-5.0,-4.0,0.674560546875,0.376953125,-0.585205078125,-0.24578857421875,-0.62109375,-0.7958984375,-0.19091796875,0.0625,0.1875,0.125
2.589999999999967,2.0,-1.0,1.0,1.0,-2.0,-6.0,-5.0,-4.0,0.674560546875,0.376953125,-0.585205078125,-0.24578857421875,-0.62109375,-0.7958984375,-0.19091796875,0.0625,0.1875,0.125
2.594999999999967,2.0,-1.0,1.0,1.0,-2.0,-6.0,-5.0,-4.0,0.674560546875,0.376953125,-0.585205078125,-0.24578857421875,-0.62109375,-0.7958984375,-0.19091796875,0.0625,0.1875,0.125
2.599999999999967,0.0,-2.0,-9.0,-42.0,-8.0,-18.0,-3.0,-1.0,0.674560546875,0.376953125,-0.585205078125,-0.24578857421875,-0.62109375,-0.7958984375,-0.19091796875,0.0625,0.1875,0.125
2.6049999999999667,0.0,-2.0,-9.0,-42.0,-8.0,-18.0,-3.0,-1.0,0.674560546875,0.376953125,-0.585205078125,-0.24578857421875,-0.62109375,-0.7958984375,-0.19091796875,0.0625,0.1875,0.125
2.6099999999999666,0.0,-2.0,-9.0,-42.0,-8.0,-18.0,-3.0,-1.0,0.674560546875,0.376953125,-0.585205078125,-0.24578857421875,-0.6181640625,-0.79052734375,-0.19677734375,-0.3125,-0.1875,-0.1875
2.6149999999999665,2.0,4.0,-1.0,-6.0,5.0,0.0,2.0,1.0,0.674560546875,0.376953125,-0.585205078125,-0.24578857421875,-0.6181640625,-0.79052734375,-0.19677734375,-0.3125,-0.1875,-0.1875
2.6199999999999664,2.0,4.0,-1.0,-6.0,5.0,0.0,2.0,1.0,0.674560546875,0.376953125,-0.585205078125,-0.24578857421875,-0.6181640625,-0.79052734375,-0.19677734375,-0.3125,-0.1875,-0.1875
2.6249999999999662,5.0,-6.0,1.0,33.0,1.0,-1.0,-3.0,-3.0,0.674560546875,0.376953125,-0.585205078125,-0.24578857421875,-0.6181640625,-0.7900390625,-0.193359375,-0.3125,-0.375,-0.3125
2.629999999999966,5.0,-6.0,1.0,33.0,1.0,-1.0,-3.0,-3.0,0.674560546875,0.376953125,-0.585205078125,-0.24578857421875,-0.6181640625,-0.7900390625,-0.193359375,-0.3125,-0.375,-0.3125
2.634999999999966,5.0,-6.0,1.0,33.0,1.0,-1.0,-3.0,-3.0,0.674560546875,0.376953125,-0.585205078125,-0.24578857421875,-0.6181640625,-0.7900390625,-0.193359375,-0.3125,-0.375,-0.3125
2.639999999999966,3.0,-2.0,-3.0,6.0,-2.0,-9.0,-3.0,-2.0,0.674560546875,0.376953125,-0.585205078125,-0.24578857421875,-0.6181640625,-0.7900390625,-0.193359375,-0.3125,-0.375,-0.3125
2.644999999999966,3.0,-2.0,-3.0,6.0,-2.0,-9.0,-3.0,-2.0,0.674560546875,0.376953125,-0.585205078125,-0.24578857421875,-0.6181640625,-0.7900390625,-0.193359375,-0.3125,-0.375,-0.3125
2.6499999999999657,-5.0,-1.0,-1.0,14.0,-1.0,-6.0,1.0,0.0,0.674560546875,0.376953125,-0.585205078125,-0.24578857421875,-0.62451171875,-0.79541015625,-0.1884765625,0.0,-0.625,-0.5
2.6549999999999656,-5.0,-1.0,-1.0,14.0,-1.0,-6.0,1.0,0.0,0.674560546875,0.376953125,-0.585205078125,-0.24578857421875,-0.62451171875,-0.79541015625,-0.1884765625,0.0,-0.625,-0.5
2.6599999999999655,-5.0,-1.0,-1.0,14.0,-1.0,-6.0,1.0,0.0,0.674560546875,0.376953125,-0.585205078125,-0.24578857421875,-0.62451171875,-0.79541015625,-0.1884765625,0.0,-0.625,-0.5
2.6649999999999654,-3.0,-2.0,1.0,-4.0,0.0,1.0,-1.0,-2.0,0.674560546875,0.376953125,-0.585205078125,-0.24578857421875,-0.62451171875,-0.79541015625,-0.1884765625,0.0,-0.625,-0.5
2.6699999999999653,-3.0,-2.0,1.0,-4.0,0.0,1.0,-1.0,-2.0,0.674560546875,0.376953125,-0.585205078125,-0.24578857421875,-0.62451171875,-0.79541015625,-0.1884765625,0.0,-0.625,-0.5
2.674999999999965,-5.0,0.0,0.0,9.0,1.0,-1.0,0.0,0.0,0.67431640625,0.37701416015625,-0.5853271484375,-0.2459716796875,-0.6171875,-0.7900390625,-0.19140625,0.5,-0.4375,-1.1875
2.679999999999965,-5.0,0.0,0.0,9.0,1.0,-1.0,0.0,0.0,0.67431640625,0.37701416015625,-0.5853271484375,-0.2459716796875,-0.6171875,-0.7900390625,-0.19140625,0.5,-0.4375,-1.1875
2.684999999999965,6.0,1.0,2.0,5.0,2.0,5.0,0.0,2.0,0.67431640625,0.37701416015625,-0.5853271484375,-0.2459716796875,-0.6171875,-0.7900390625,-0.19140625,0.5,-0.4375,-1.1875
2.689999999999965,6.0,1.0,2.0,5.0,2.0,5.0,0.0,2.0,0.67431640625,0.37701416015625,-0.5853271484375,-0.2459716796875,-0.6171875,-0.7900390625,-0.19140625,0.5,-0.4375,-1.1875
2.6949999999999648,6.0,1.0,2.0,5.0,2.0,5.0,0.0,2.0,0.67431640625,0.37701416015625,-0.5853271484375,-0.2459716796875,-0.6171875,-0.7900390625,-0.19140625,0.5,-0.4375,-1.1875
2.6999999999999647,-9.0,-1.0,-5.0,-2.0,-1.0,-6.0,-2.0,-3.0,0.67413330078125,0.3770751953125,-0.58538818359375,-0.24627685546875,-0.6171875,-0.79248046875,-0.19140625,0.6875,-0.0625,-1.4375
2.7049999999999645,-9.0,-1.0,-5.0,-2.0,-1.0,-6.0,-2.0,-3.0,0.67413330078125,0.3770751953125,-0.58538818359375,-0.24627685546875,-0.6171875,-0.79248046875,-0.19140625,0.6875,-0.0625,-1.4375
2.7099999999999644,-5.0,4.0,0.0,5.0,-3.0,-16.0,-9.0,-2.0,0.67413330078125,0.3770751953125,-0.58538818359375,-0.24627685546875,-0.6171875,-0.79248046875,-0.19140625,0.6875,-0.0625,-1.4375
2.7149999999999643,-5.0,4.0,0.0,5.0,-3.0,-16.0,-9.0,-2.0,0.67413330078125,0.3770751953125,-0.58538818359375,-0.24627685546875,-0.6171875,-0.79248046875,-0.19140625,0.6875,-0.0625,-1.4375
2.7199999999999642,5.0,4.0,-1.0,21.0,3.0,32.0,0.0,-1.0,0.674072265625,0.3773193359375,-0.58526611328125,-0.246337890625,-0.61767578125,-0.79345703125,-0.197265625,-0.4375,-0.0625,-1.5
2.724999999999964,5.0,4.0,-1.0,21.0,3.0,32.0,0.0,-1.0,0.674072265625,0.3773193359375,-0.58526611328125,-0.246337890625,-0.61767578125,-0.79345703125,-0.197265625,-0.4375,-0.0625,-1.5
2.729999999999964,5.0,4.0,-1.0,21.0,3.0,32.0,0.0,-1.0,0.674072265625,0.3773193359375,-0.58526611328125,-0.246337890625,-0.61767578125,-0.79345703125,-0.197265625,-0.4375,-0.0625,-1.5
2.734999999999964,0.0,0.0,-1.0,-4.0,-1.0,-11.0,-6.0,-1.0,0.674072265625,0.3773193359375,-0.58526611328125,-0.246337890625,-0.61767578125,-0.79345703125,-0.197265625,-0.4375,-0.0625,-1.5
2.739999999999964,0.0,0.0,-1.0,-4.0,-1.0,-11.0,-6.0,-1.0,0.674072265625,0.3773193359375,-0.58526611328125,-0.246337890625,-0.61767578125,-0.79345703125,-0.197265625,-0.4375,-0.0625,-1.5
2.7449999999999637,0.0,0.0,-1.0,-4.0,-1.0,-11.0,-6.0,-1.0,0.674072265625,0.37725830078125,-0.5853271484375,-0.246337890625,-0.62451171875,-0.7900390625,-0.19091796875,-0.875,-0.125,-0.75
2.7499999999999636,1.0,-3.0,-1.0,-2.0,-4.0,-2.0,-3.0,-3.0,0.674072265625,0.37725830078125,-0.5853271484375,-0.246337890625,-0.62451171875,-0.7900390625,-0.19091796875,-0.875,-0.125,-0.75
2.7549999999999635,5.0,0.0,-3.0,-5.0,-2.0,0.0,1.0,-3.0,0.674072265625,0.37725830078125,-0.5853271484375,-0.246337890625,-0.62451171875,-0.7900390625,-0.19091796875,-0.875,-0.125,-0.75
2.7599999999999634,-5.0,-6.0,-7.0,17.0,-6.0,-2.0,4.0,-1.0,0.674072265625,0.37725830078125,-0.5853271484375,-0.246337890625,-0.62451171875,-0.7900390625,-0.19091796875,-0.875,-0.125,-0.75
2.7649999999999633,-5.0,-6.0,-7.0,17.0,-6.0,-2.0,4.0,-1.0,0.67401123046875,0.37725830078125,-0.5853271484375,-0.246337890625,-0.62255859375,-0.79638671875,-0.18798828125,-0.375,0.1875,0.125
2.769999999999963,-5.0,-6.0,-7.0,17.0,-6.0,-2.0,4.0,-1.0,0.67401123046875,0.37725830078125,-0.5853271484375,-0.246337890625,-0.62255859375,-0.79638671875,-0.18798828125,-0.375,0.1875,0.125
2.774999999999963,-5.0,-6.0,-7.0,17.0,-6.0,-2.0,4.0,-1.0,0.67401123046875,0.37725830078125,-0.5853271484375,-0.246337890625,-0.62255859375,-0.79638671875,-0.18798828125,-0.375,0.1875,0.125
2.779999999999963,12.0,-4.0,-3.0,-3.0,-2.0,-14.0,1.0,-2.0,0.67401123046875,0.37725830078125,-0.5853271484375,-0.246337890625,-0.62255859375,-0.79638671875,-0.18798828125,-0.375,0.1875,0.125
2.784999999999963,12.0,-4.0,-3.0,-3.0,-2.0,-14.0,1.0,-2.0,0.67401123046875,0.37725830078125,-0.5853271484375,-0.246337890625,-0.62255859375,-0.79638671875,-0.18798828125,-0.375,0.1875,0.125
2.7899999999999627,3.0,1.0,3.0,-8.0,0.0,0.0,2.0,2.0,0.67401123046875,0.37725830078125,-0.5853271484375,-0.246337890625,-0.62255859375,-0.79638671875,-0.18798828125,-0.375,0.1875,0.125
2.7949999999999626,3.0,1.0,3.0,-8.0,0.0,0.0,2.0,2.0,0.67401123046875,0.37725830078125,-0.5853271484375,-0.246337890625,-0.62255859375,-0.7978515625,-0.19677734375,0.625,0.5,0.3125
2.7999999999999625,3.0,1.0,3.0,-8.0,0.0,0.0,2.0,2.0,0.67401123046875,0.37725830078125,-0.5853271484375,-0.246337890625,-0.62255859375,-0.7978515625,-0.19677734375,0.625,0.5,0.3125
2.8049999999999624,-4.0,2.0,-3.0,-8.0,-3.0,-30.0,-8.0,-3.0,0.67401123046875,0.37725830078125,-0.5853271484375,-0.246337890625,-0.62255859375,-0.7978515625,-0.19677734375,0.625,0.5,0.3125
2.8099999999999623,-4.0,2.0,-3.0,-8.0,-3.0,-30.0,-8.0,-3.0,0.67401123046875,0.37725830078125,-0.58538818359375,-0.246337890625,-0.611328125,-0.7861328125,-0.193359375,0.0625,0.625,0.4375
2.814999999999962,0.0,1.0,0.0,6.0,4.0,0.0,0.0,-1.0,0.67401123046875,0.37725830078125,-0.58538818359375,-0.246337890625,-0.611328125,-0.7861328125,-0.193359375,0.0625,0.625,0.4375
2.819999999999962,2.0,1.0,-2.0,-54.0,-5.0,-3.0,-3.0,-1.0,0.67401123046875,0.37725830078125,-0.58538818359375,-0.246337890625,-0.611328125,-0.7861328125,-0.193359375,0.0625,0.625,0.4375
2.824999999999962,2.0,1.0,-2.0,-54.0,-5.0,-3.0,-3.0,-1.0,0.67401123046875,0.37725830078125,-0.58538818359375,-0.246337890625,-0.619140625,-0.7861328125,-0.19287109375,-0.4375,0.625,0.0625
2.829999999999962,2.0,1.0,-2.0,-54.0,-5.0,-3.0,-3.0,-1.0,0.67401123046875,0.37725830078125,-0.58538818359375,-0.246337890625,-0.619140625,-0.7861328125,-0.19287109375,-0.4375,0.625,0.0625
2.8349999999999618,2.0,1.0,-2.0,-54.0,-5.0,-3.0,-3.0,-1.0,0.67401123046875,0.37725830078125,-0.58538818359375,-0.246337890625,-0.619140625,-0.7861328125,-0.19287109375,-0.4375,0.625,0.0625
2.8399999999999617,2.0,1.0,-2.0,-54.0,-5.0,-3.0,-3.0,-1.0,0.67401123046875,0.37725830078125,-0.58538818359375,-0.246337890625,-0.619140625,-0.7861328125,-0.19287109375,-0.4375,0.625,0.0625
2.8449999999999616,-2.0,-5.0,-7.0,-22.0,-9.0,-3.0,-4.0,0.0,0.67401123046875,0.37725830078125,-0.58538818359375,-0.246337890625,-0.619140625,-0.7861328125,-0.19287109375,-0.4375,0.625,0.0625
2.8499999999999615,11.0,-5.0,-4.0,7.0,2.0,5.0,4.0,-1.0,0.67401123046875,0.37725830078125,-0.58538818359375,-0.246337890625,-0.6142578125,-0.79296875,-0.19775390625,-0.75,0.625,-0.4375
2.8549999999999613,11.0,-5.0,-4.0,7.0,2.0,5.0,4.0,-1.0,0.67401123046875,0.37725830078125,-0.58538818359375,-0.246337890625,-0.6142578125,-0.79296875,-0.19775390625,-0.75,0.625,-0.4375
2.8599999999999612,11.0,-5.0,-4.0,7.0,2.0,5.0,4.0,-1.0,0.67401123046875,0.37725830078125,-0.58538818359375,-0.246337890625,-0.6142578125,-0.79296875,-0.19775390625,-0.75,0.625,-0.4375
2.864999999999961,6.0,0.0,0.0,-11.0,-1.0,-6.0,-3.0,0.0,0.67401123046875,0.37725830078125,-0.58538818359375,-0.246337890625,-0.6142578125,-0.79296875,-0.19775390625,-0.75,0.625,-0.4375
2.869999999999961,-4.0,0.0,2.0,1.0,2.0,7.0,-1.0,-3.0,0.67401123046875,0.37725830078125,-0.58538818359375,-0.246337890625,-0.6142578125,-0.79296875,-0.19775390625,-0.75,0.625,-0.4375
2.874999999999961,-4.0,0.0,2.0,1.0,2.0,7.0,-1.0,-3.0,0.67401123046875,0.37725830078125,-0.58538818359375,-0.246337890625,-0.6201171875,-0.79296875,-0.19677734375,-0.125,0.8125,-0.75
2.879999999999961,-4.0,-2.0,-2.0,9.0,-1.0,3.0,3.0,1.0,0.67401123046875,0.37725830078125,-0.58538818359375,-0.246337890625,-0.6201171875,-0.79296875,-0.19677734375,-0.125,0.8125,-0.75
2.8849999999999607,-4.0,-2.0,-2.0,9.0,-1.0,3.0,3.0,1.0,0.67401123046875,0.37725830078125,-0.58538818359375,-0.246337890625,-0.6201171875,-0.79296875,-0.19677734375,-0.125,0.8125,-0.75
2.8899999999999606,-4.0,-2.0,-2.0,9.0,-1.0,3.0,3.0,1.0,0.67401123046875,0.37725830078125,-0.58538818359375,-0.246337890625,-0.6201171875,-0.79296875,-0.19677734375,-0.125,0.8125,-0.75
2.8949999999999605,-4.0,-2.0,-2.0,9.0,-1.0,3.0,3.0,1.0,0.67401123046875,0.37725830078125,-0.58538818359375,-0.246337890625,-0.6201171875,-0.79296875,-0.19677734375,-0.125,0.8125,-0.75
2.8999999999999604,-1.0,-1.0,2.0,12.0,1.0,7.0,4.0,-2.0,0.67401123046875,0.37725830078125,-0.58538818359375,-0.246337890625,-0.62158203125,-0.7919921875,-0.193359375,0.0,0.375,-0.75
2.9049999999999603,-1.0,-14.0,-2.0,7.0,-3.0,-6.0,-1.0,0.0,0.67401123046875,0.37725830078125,-0.58538818359375,-0.246337890625,-0.62158203125,-0.7919921875,-0.193359375,0.0,0.375,-0.75
2.90999999999996,-1.0,-14.0,-2.0,7.0,-3.0,-6.0,-1.0,0.0,0.67401123046875,0.37725830078125,-0.58538818359375,-0.246337890625,-0.62158203125,-0.7919921875,-0.193359375,0.0,0.375,-0.75
2.91499999999996,-8.0,-6.0,-8.0,24.0,-5.0,-16.0,-3.0,-4.0,0.67401123046875,0.37725830078125,-0.58538818359375,-0.246337890625,-0.62451171875,-0.794921875,-0.19287109375,0.0,-0.3125,-0.8125
2.91999999999996,-8.0,-6.0,-8.0,24.0,-5.0,-16.0,-3.0,-4.0,0.67401123046875,0.37725830078125,-0.58538818359375,-0.246337890625,-0.62451171875,-0.794921875,-0.19287109375,0.0,-0.3125,-0.8125
2.92499999999996,-8.0,-6.0,-8.0,24.0,-5.0,-16.0,-3.0,-4.0,0.67401123046875,0.37725830078125,-0.58538818359375,-0.246337890625,-0.62451171875,-0.794921875,-0.19287109375,0.0,-0.3125,-0.8125
2.9299999999999597,-8.0,-6.0,-8.0,24.0,-5.0,-16.0,-3.0,-4.0,0.67401123046875,0.37725830078125,-0.58538818359375,-0.246337890625,-0.62451171875,-0.794921875,-0.19287109375,0.0,-0.3125,-0.8125
2.9349999999999596,-6.0,-1.0,3.0,-12.0,-1.0,-3.0,-2.0,0.0,0.67401123046875,0.37725830078125,-0.58538818359375,-0.246337890625,-0.62451171875,-0.794921875,-0.19287109375,0.0,-0.3125,-0.8125
2.9399999999999595,-6.0,-1.0,3.0,-12.0,-1.0,-3.0,-2.0,0.0,0.67401123046875,0.37725830078125,-0.58538818359375,-0.24639892578125,-0.62255859375,-0.8076171875,-0.1953125,-0.8125,-0.875,-0.9375
2.9449999999999594,-6.0,-1.0,3.0,-12.0,-1.0,-3.0,-2.0,0.0,0.67401123046875,0.37725830078125,-0.58538818359375,-0.24639892578125,-0.62255859375,-0.8076171875,-0.1953125,-0.8125,-0.875,-0.9375
2.9499999999999593,-6.0,-1.0,3.0,-12.0,-1.0,-3.0,-2.0,0.0,0.67401123046875,0.37725830078125,-0.58538818359375,-0.24639892578125,-0.62255859375,-0.8076171875,-0.1953125,-0.8125,-0.875,-0.9375
2.954999999999959,1.0,0.0,-2.0,-7.0,-3.0,2.0,-3.0,-3.0,0.67401123046875,0.37725830078125,-0.58538818359375,-0.24639892578125,-0.62255859375,-0.8076171875,-0.1953125,-0.8125,-0.875,-0.9375
2.959999999999959,1.0,0.0,-2.0,-7.0,-3.0,2.0,-3.0,-3.0,0.67401123046875,0.37725830078125,-0.58538818359375,-0.24639892578125,-0.62255859375,-0.8076171875,-0.1953125,-0.8125,-0.875,-0.9375
2.964999999999959,0.0,2.0,0.0,0.0,1.0,0.0,2.0,1.0,0.67401123046875,0.37725830078125,-0.58544921875,-0.24639892578125,-0.61669921875,-0.79150390625,-0.19189453125,0.4375,-0.9375,-0.6875
2.969999999999959,0.0,2.0,0.0,0.0,1.0,0.0,2.0,1.0,0.67401123046875,0.37725830078125,-0.58544921875,-0.24639892578125,-0.61669921875,-0.79150390625,-0.19189453125,0.4375,-0.9375,-0.6875
2.974999999999959,0.0,2.0,0.0,0.0,1.0,0.0,2.0,1.0,0.67401123046875,0.37725830078125,-0.58544921875,-0.24639892578125,-0.61669921875,-0.79150390625,-0.19189453125,0.4375,-0.9375,-0.6875
2.9799999999999587,-16.0,-4.0,-11.0,-55.0,-10.0,4.0,-3.0,-3.0,0.67401123046875,0.37725830078125,-0.58544921875,-0.24639892578125,-0.61669921875,-0.79150390625,-0.19189453125,0.4375,-0.9375,-0.6875
2.9849999999999586,-16.0,-4.0,-11.0,-55.0,-10.0,4.0,-3.0,-3.0,0.67401123046875,0.37725830078125,-0.58544921875,-0.24639892578125,-0.61669921875,-0.79150390625,-0.19189453125,0.4375,-0.9375,-0.6875
2.9899999999999585,-4.0,-3.0,-3.0,-9.0,-3.0,0.0,-7.0,-3.0,0.67401123046875,0.37725830078125,-0.58544921875,-0.24639892578125,-0.61669921875,-0.79150390625,-0.19189453125,0.4375,-0.9375,-0.6875
2.9949999999999584,-4.0,-3.0,-3.0,-9.0,-3.0,0.0,-7.0,-3.0,0.6739501953125,0.37725830078125,-0.58544921875,-0.24639892578125,-0.6103515625,-0.7919921875,-0.1923828125,0.75,-0.3125,-0.8125
2.9999999999999583,-4.0,-3.0,-3.0,-9.0,-3.0,0.0,-7.0,-3.0,0.6739501953125,0.37725830078125,-0.58544921875,-0.24639892578125,-0.6103515625,-0.7919921875,-0.1923828125,0.75,-0.3125,-0.8125
3.004999999999958,-4.0,-3.0,-3.0,-9.0,-3.0,0.0,-7.0,-3.0,0.6739501953125,0.37725830078125,-0.58544921875,-0.24639892578125,-0.6103515625,-0.7919921875,-0.1923828125,0.75,-0.3125,-0.8125
3.009999999999958,-4.0,-3.0,-3.0,-9.0,-3.0,0.0,-7.0,-3.0,0.6739501953125,0.37725830078125,-0.58544921875,-0.24639892578125,-0.6103515625,-0.7919921875,-0.1923828125,0.75,-0.3125,-0.8125
3.014999999999958,-7.0,-15.0,0.0,2.0,-2.0,7.0,-1.0,-1.0,0.6739501953125,0.37725830078125,-0.58544921875,-0.24639892578125,-0.6103515625,-0.7919921875,-0.1923828125,0.75,-0.3125,-0.8125
3.019999999999958,-7.0,-15.0,0.0,2.0,-2.0,7.0,-1.0,-1.0,0.6739501953125,0.37725830078125,-0.58544921875,-0.24639892578125,-0.6103515625,-0.7919921875,-0.1923828125,0.75,-0.3125,-0.8125
3.0249999999999577,-7.0,-15.0,0.0,2.0,-2.0,7.0,-1.0,-1.0,0.6739501953125,0.37725830078125,-0.58544921875,-0.24639892578125,-0.61669921875,-0.79443359375,-0.19482421875,-0.125,0.0625,-0.5625
3.0299999999999576,23.0,1.0,-1.0,-3.0,0.0,0.0,0.0,-6.0,0.6739501953125,0.37725830078125,-0.58544921875,-0.24639892578125,-0.61669921875,-0.79443359375,-0.19482421875,-0.125,0.0625,-0.5625
3.0349999999999575,23.0,1.0,-1.0,-3.0,0.0,0.0,0.0,-6.0,0.6739501953125,0.37725830078125,-0.58544921875,-0.24639892578125,-0.61669921875,-0.79443359375,-0.19482421875,-0.125,0.0625,-0.5625
3.0399999999999574,23.0,1.0,-1.0,-3.0,0.0,0.0,0.0,-6.0,0.6739501953125,0.37725830078125,-0.58544921875,-0.24639892578125,-0.61669921875,-0.79443359375,-0.19482421875,-0.125,0.0625,-0.5625
3.0449999999999573,3.0,4.0,2.0,-1.0,3.0,9.0,-2.0,-2.0,0.6739501953125,0.377197265625,-0.58544921875,-0.24639892578125,-0.61767578125,-0.796875,-0.1875,-0.5,0.3125,-0.5625
3.049999999999957,3.0,4.0,2.0,-1.0,3.0,9.0,-2.0,-2.0,0.6739501953125,0.377197265625,-0.58544921875,-0.24639892578125,-0.61767578125,-0.796875,-0.1875,-0.5,0.3125,-0.5625
3.054999999999957,3.0,4.0,2.0,-1.0,3.0,9.0,-2.0,-2.0,0.6739501953125,0.377197265625,-0.58544921875,-0.24639892578125,-0.61767578125,-0.796875,-0.1875,-0.5,0.3125,-0.5625
3.059999999999957,-5.0,1.0,4.0,-19.0,7.0,-1.0,6.0,2.0,0.6739501953125,0.377197265625,-0.58544921875,-0.24639892578125,-0.61767578125,-0.796875,-0.1875,-0.5,0.3125,-0.5625
3.064999999999957,-5.0,1.0,4.0,-19.0,7.0,-1.0,6.0,2.0,0.6739501953125,0.377197265625,-0.58544921875,-0.24639892578125,-0.61767578125,-0.796875,-0.1875,-0.5,0.3125,-0.5625
3.0699999999999568,-2.0,0.0,-1.0,-1.0,-1.0,-12.0,2.0,-1.0,0.6739501953125,0.377197265625,-0.58544921875,-0.24639892578125,-0.61767578125,-0.796875,-0.1875,-0.5,0.3125,-0.5625
3.0749999999999567,-2.0,0.0,-1.0,-1.0,-1.0,-12.0,2.0,-1.0,0.6739501953125,0.377197265625,-0.58551025390625,-0.2464599609375,-0.615234375,-0.79833984375,-0.18798828125,-0.1875,0.25,-0.625
3.0799999999999566,-2.0,0.0,-1.0,-1.0,-1.0,-12.0,2.0,-1.0,0.6739501953125,0.377197265625,-0.58551025390625,-0.2464599609375,-0.615234375,-0.79833984375,-0.18798828125,-0.1875,0.25,-0.625
3.0849999999999564,-2.0,0.0,-1.0,-1.0,-1.0,-12.0,2.0,-1.0,0.6739501953125,0.377197265625,-0.58551025390625,-0.2464599609375,-0.615234375,-0.79833984375,-0.18798828125,-0.1875,0.25,-0.625
3.0899999999999563,0.0,3.0,4.0,12.0,7.0,33.0,2.0,1.0,0.6739501953125,0.377197265625,-0.58551025390625,-0.2464599609375,-0.615234375,-0.79833984375,-0.18798828125,-0.1875,0.25,-0.625
3.0949999999999562,0.0,3.0,4.0,12.0,7.0,33.0,2.0,1.0,0.6739501953125,0.377197265625,-0.58551025390625,-0.2464599609375,-0.615234375,-0.79833984375,-0.18798828125,-0.1875,0.25,-0.625
3.099999999999956,-3.0,2.0,-2.0,-8.0,-3.0,0.0,-5.0,-1.0,0.6739501953125,0.377197265625,-0.58551025390625,-0.2464599609375,-0.615234375,-0.79833984375,-0.18798828125,-0.1875,0.25,-0.625
3.104999999999956,-3.0,2.0,-2.0,-8.0,-3.0,0.0,-5.0,-1.0,0.67388916015625,0.377197265625,-0.58551025390625,-0.2464599609375,-0.62060546875,-0.79736328125,-0.1953125,-0.5625,0.125,-0.1875
3.109999999999956,3.0,-3.0,0.0,19.0,-2.0,-8.0,0.0,-3.0,0.67388916015625,0.377197265625,-0.58551025390625,-0.2464599609375,-0.62060546875,-0.79736328125,-0.1953125,-0.5625,0.125,-0.1875
3.114999999999956,3.0,-3.0,0.0,19.0,-2.0,-8.0,0.0,-3.0,0.67388916015625,0.377197265625,-0.58551025390625,-0.2464599609375,-0.62060546875,-0.79736328125,-0.1953125,-0.5625,0.125,-0.1875
3.1199999999999557,1.0,-1.0,-3.0,-3.0,-2.0,-1.0,-1.0,-1.0,0.67388916015625,0.37725830078125,-0.58551025390625,-0.2464599609375,-0.61181640625,-0.79833984375,-0.1904296875,0.0,0.5,0.0625
3.1249999999999556,1.0,-1.0,-3.0,-3.0,-2.0,-1.0,-1.0,-1.0,0.67388916015625,0.37725830078125,-0.58551025390625,-0.2464599609375,-0.61181640625,-0.79833984375,-0.1904296875,0.0,0.5,0.0625
3.1299999999999555,1.0,-1.0,-3.0,-3.0,-2.0,-1.0,-1.0,-1.0,0.67388916015625,0.37725830078125,-0.58551025390625,-0.2464599609375,-0.61181640625,-0.79833984375,-0.1904296875,0.0,0.5,0.0625
3.1349999999999554,1.0,-1.0,-3.0,-3.0,-2.0,-1.0,-1.0,-1.0,0.67388916015625,0.37725830078125,-0.58551025390625,-0.2464599609375,-0.61181640625,-0.79833984375,-0.1904296875,0.0,0.5,0.0625
3.1399999999999553,-4.0,-13.0,-2.0,-4.0,-1.0,-19.0,-5.0,2.0,0.67388916015625,0.37725830078125,-0.58551025390625,-0.2464599609375,-0.61181640625,-0.79833984375,-0.1904296875,0.0,0.5,0.0625
3.144999999999955,-4.0,-13.0,-2.0,-4.0,-1.0,-19.0,-5.0,2.0,0.67388916015625,0.37725830078125,-0.58551025390625,-0.2464599609375,-0.61181640625,-0.79833984375,-0.1904296875,0.0,0.5,0.0625
3.149999999999955,13.0,2.0,1.0,-3.0,2.0,-2.0,-1.0,1.0,0.67388916015625,0.377197265625,-0.58551025390625,-0.2464599609375,-0.61474609375,-0.79296875,-0.185546875,0.0,0.4375,0.1875
3.154999999999955,13.0,2.0,1.0,-3.0,2.0,-2.0,-1.0,1.0,0.67388916015625,0.377197265625,-0.58551025390625,-0.2464599609375,-0.61474609375,-0.79296875,-0.185546875,0.0,0.4375,0.1875
3.159999999999955,13.0,2.0,1.0,-3.0,2.0,-2.0,-1.0,1.0,0.67388916015625,0.377197265625,-0.58551025390625,-0.2464599609375,-0.61474609375,-0.79296875,-0.185546875,0.0,0.4375,0.1875
3.1649999999999547,13.0,2.0,1.0,-3.0,2.0,-2.0,-1.0,1.0,0.67388916015625,0.377197265625,-0.58551025390625,-0.2464599609375,-0.61474609375,-0.79296875,-0.185546875,0.0,0.4375,0.1875
3.1699999999999546,3.0,4.0,-2.0,1.0,-4.0,-2.0,-4.0,-4.0,0.67388916015625,0.377197265625,-0.58551025390625,-0.2464599609375,-0.61474609375,-0.79296875,-0.185546875,0.0,0.4375,0.1875
3.1749999999999545,3.0,4.0,-2.0,1.0,-4.0,-2.0,-4.0,-4.0,0.67388916015625,0.377197265625,-0.58551025390625,-0.2464599609375,-0.61474609375,-0.79296875,-0.185546875,0.0,0.4375,0.1875
3.1799999999999544,2.0,-2.0,3.0,12.0,4.0,15.0,4.0,1.0,0.673828125,0.377197265625,-0.58551025390625,-0.24652099609375,-0.60986328125,-0.7958984375,-0.18896484375,0.25,0.8125,0.0625
3.1849999999999543,2.0,-2.0,3.0,12.0,4.0,15.0,4.0,1.0,0.673828125,0.377197265625,-0.58551025390625,-0.24652099609375,-0.60986328125,-0.7958984375,-0.18896484375,0.25,0.8125,0.0625
3.189999999999954,-7.0,-1.0,-3.0,-2.0,-3.0,-9.0,0.0,0.0,0.673828125,0.377197265625,-0.58551025390625,-0.24652099609375,-0.60986328125,-0.7958984375,-0.18896484375,0.25,0.8125,0.0625
3.194999999999954,-7.0,-1.0,-3.0,-2.0,-3.0,-9.0,0.0,0.0,0.673828125,0.377197265625,-0.58551025390625,-0.24652099609375,-0.60986328125,-0.7958984375,-0.18896484375,0.25,0.8125,0.0625
3.199999999999954,4.0,-1.0,-1.0,-1.0,-1.0,-3.0,-3.0,-3.0,0.673828125,0.377197265625,-0.5855712890625,-0.24652099609375,-0.6171875,-0.7958984375,-0.189453125,0.125,0.75,0.0625
3.204999999999954,4.0,-1.0,-1.0,-1.0,-1.0,-3.0,-3.0,-3.0,0.673828125,0.377197265625,-0.5855712890625,-0.24652099609375,-0.6171875,-0.7958984375,-0.189453125,0.125,0.75,0.0625
3.209999999999954,4.0,-1.0,-1.0,-1.0,-1.0,-3.0,-3.0,-3.0,0.673828125,0.377197265625,-0.5855712890625,-0.24652099609375,-0.6171875,-0.7958984375,-0.189453125,0.125,0.75,0.0625
3.2149999999999537,-1.0,-3.0,-1.0,-3.0,0.0,-5.0,-2.0,-1.0,0.673828125,0.377197265625,-0.5855712890625,-0.24652099609375,-0.6171875,-0.7958984375,-0.189453125,0.125,0.75,0.0625
3.2199999999999536,-2.0,0.0,0.0,11.0,-4.0,-8.0,-4.0,-2.0,0.673828125,0.377197265625,-0.5855712890625,-0.24652099609375,-0.6171875,-0.7958984375,-0.189453125,0.125,0.75,0.0625
3.2249999999999535,5.0,1.0,-3.0,12.0,0.0,3.0,-1.0,-3.0,0.673828125,0.377197265625,-0.5855712890625,-0.24652099609375,-0.6171875,-0.7958984375,-0.189453125,0.125,0.75,0.0625
3.2299999999999534,5.0,1.0,-3.0,12.0,0.0,3.0,-1.0,-3.0,0.673828125,0.377197265625,-0.5855712890625,-0.24652099609375,-0.61865234375,-0.79541015625,-0.19091796875,-0.625,0.6875,-0.25
3.2349999999999532,4.0,4.0,1.0,-19.0,0.0,-1.0,-4.0,-2.0,0.673828125,0.377197265625,-0.5855712890625,-0.24652099609375,-0.61865234375,-0.79541015625,-0.19091796875,-0.625,0.6875,-0.25
3.239999999999953,-3.0,-13.0,-6.0,13.0,-4.0,0.0,0.0,0.0,0.673828125,0.377197265625,-0.5855712890625,-0.24652099609375,-0.61865234375,-0.79541015625,-0.19091796875,-0.625,0.6875,-0.25
3.244999999999953,-3.0,-13.0,-6.0,13.0,-4.0,0.0,0.0,0.0,0.673828125,0.377197265625,-0.5855712890625,-0.24652099609375,-0.61865234375,-0.79541015625,-0.19091796875,-0.625,0.6875,-0.25
3.249999999999953,-8.0,0.0,0.0,-9.0,-2.0,-2.0,0.0,0.0,0.673828125,0.377197265625,-0.5855712890625,-0.24652099609375,-0.62353515625,-0.794921875,-0.19580078125,-0.375,0.75,-0.25
3.254999999999953,-2.0,4.0,0.0,-2.0,2.0,-15.0,1.0,0.0,0.673828125,0.377197265625,-0.5855712890625,-0.24652099609375,-0.62353515625,-0.794921875,-0.19580078125,-0.375,0.75,-0.25
3.2599999999999527,-12.0,-2.0,0.0,-6.0,6.0,31.0,1.0,1.0,0.673828125,0.377197265625,-0.5855712890625,-0.24652099609375,-0.625,-0.78857421875,-0.19140625,-0.5,0.5,-0.3125
