0.005,-1.0,-8.0,-16.0,-1.0,2.0,0.0,-2.0,-2.0,-0.0408935546875,-0.42803955078125,-0.857666015625,-0.2822265625,-0.173828125,0.7412109375,0.615234375,2.6875,-3.0,-1.0625
0.01,-1.0,-8.0,-16.0,-1.0,2.0,0.0,-2.0,-2.0,-0.04132080078125,-0.4283447265625,-0.85736083984375,-0.282470703125,-0.1796875,0.748046875,0.6171875,2.4375,-2.75,-0.3125
0.015,0.0,6.0,5.0,-10.0,-7.0,-3.0,0.0,-2.0,-0.04132080078125,-0.4283447265625,-0.85736083984375,-0.282470703125,-0.1796875,0.748046875,0.6171875,2.4375,-2.75,-0.3125
0.02,-1.0,-8.0,-11.0,1.0,1.0,0.0,-1.0,0.0,-0.04180908203125,-0.42852783203125,-0.85723876953125,-0.2825927734375,-0.173828125,0.7548828125,0.6171875,1.75,-3.0625,0.5
0.025,-1.0,-4.0,-5.0,-1.0,2.0,-2.0,0.0,-1.0,-0.04229736328125,-0.4287109375,-0.85711669921875,-0.28271484375,-0.17431640625,0.74755859375,0.6220703125,1.9375,-2.5625,0.8125
0.030000000000000002,-3.0,1.0,2.0,0.0,-3.0,-4.0,0.0,-2.0,-0.04229736328125,-0.4287109375,-0.85711669921875,-0.28271484375,-0.17431640625,0.74755859375,0.6220703125,1.9375,-2.5625,0.8125
0.035,1.0,-6.0,1.0,4.0,-2.0,-2.0,-1.0,-1.0,-0.04229736328125,-0.4287109375,-0.85711669921875,-0.28271484375,-0.17431640625,0.74755859375,0.6220703125,1.9375,-2.5625,0.8125
0.04,1.0,-6.0,1.0,4.0,-2.0,-2.0,-1.0,-1.0,-0.0426025390625,-0.42926025390625,-0.8568115234375,-0.28265380859375,-0.1767578125,0.74462890625,0.61279296875,3.75,-1.0625,0.8125
0.045,-1.0,6.0,-1.0,-3.0,-2.0,-2.0,-2.0,-1.0,-0.0426025390625,-0.42926025390625,-0.8568115234375,-0.28265380859375,-0.1767578125,0.74462890625,0.61279296875,3.75,-1.0625,0.8125
0.049999999999999996,0.0,-5.0,5.0,9.0,4.0,1.0,1.0,-1.0,-0.0428466796875,-0.43023681640625,-0.85638427734375,-0.28240966796875,-0.1884765625,0.74951171875,0.61572265625,6.3125,-0.0625,2.0
0.05499999999999999,0.0,-5.0,5.0,9.0,4.0,1.0,1.0,-1.0,-0.0428466796875,-0.43023681640625,-0.85638427734375,-0.28240966796875,-0.1884765625,0.74951171875,0.61572265625,6.3125,-0.0625,2.0
0.05999999999999999,2.0,-7.0,-23.0,1.0,-9.0,0.0,1.0,0.0,-0.04351806640625,-0.43133544921875,-0.8558349609375,-0.28216552734375,-0.19091796875,0.76220703125,0.61669921875,7.4375,-2.1875,2.8125
0.06499999999999999,2.0,-7.0,-23.0,1.0,-9.0,0.0,1.0,0.0,-0.04449462890625,-0.4326171875,-0.855224609375,-0.2821044921875,-0.1875,0.76904296875,0.60693359375,8.25,-3.5625,2.5
0.06999999999999999,-3.0,-12.0,-6.0,1.0,12.0,0.0,2.0,-1.0,-0.04449462890625,-0.4326171875,-0.855224609375,-0.2821044921875,-0.1875,0.76904296875,0.60693359375,8.25,-3.5625,2.5
0.075,-2.0,-2.0,-2.0,-2.0,-11.0,-2.0,-1.0,-1.0,-0.04449462890625,-0.4326171875,-0.855224609375,-0.2821044921875,-0.1875,0.76904296875,0.60693359375,8.25,-3.5625,2.5
0.08,0.0,-3.0,-2.0,7.0,-8.0,-3.0,-3.0,-1.0,-0.04534912109375,-0.43359375,-0.85467529296875,-0.281982421875,-0.18505859375,0.76953125,0.59814453125,6.3125,-3.6875,2.3125
0.085,1.0,-2.0,7.0,0.0,7.0,-1.0,-3.0,-1.0,-0.04595947265625,-0.43438720703125,-0.85430908203125,-0.28179931640625,-0.185546875,0.76708984375,0.58447265625,4.0,-2.75,2.75
0.09000000000000001,-3.0,-6.0,-4.0,-1.0,-3.0,-1.0,-2.0,-2.0,-0.04638671875,-0.4345703125,-0.854248046875,-0.2816162109375,-0.18359375,0.7666015625,0.59765625,0.6875,-2.25,2.75
0.09500000000000001,-3.0,-6.0,-4.0,-1.0,-3.0,-1.0,-2.0,-2.0,-0.04638671875,-0.4345703125,-0.854248046875,-0.2816162109375,-0.18359375,0.7666015625,0.59765625,0.6875,-2.25,2.75
0.10000000000000002,-2.0,3.0,-5.0,-5.0,-10.0,-4.0,-3.0,0.0,-0.04638671875,-0.4345703125,-0.854248046875,-0.2816162109375,-0.18359375,0.7666015625,0.59765625,0.6875,-2.25,2.75
0.10500000000000002,-1.0,1.0,11.0,15.0,5.0,0.0,-1.0,-2.0,-0.0467529296875,-0.43438720703125,-0.85430908203125,-0.28173828125,-0.17529296875,0.755859375,0.609375,-0.375,-2.75,1.25
0.11000000000000003,-2.0,-3.0,8.0,4.0,-14.0,2.0,0.0,-3.0,-0.0467529296875,-0.43438720703125,-0.85430908203125,-0.28173828125,-0.17529296875,0.755859375,0.609375,-0.375,-2.75,1.25
0.11500000000000003,2.0,5.0,18.0,-1.0,2.0,1.0,0.0,0.0,-0.047119140625,-0.43450927734375,-0.8541259765625,-0.281982421875,-0.17724609375,0.771484375,0.6123046875,0.9375,-3.1875,0.0
0.12000000000000004,-2.0,-15.0,-22.0,-6.0,-9.0,-4.0,-1.0,0.0,-0.047119140625,-0.43450927734375,-0.8541259765625,-0.281982421875,-0.17724609375,0.771484375,0.6123046875,0.9375,-3.1875,0.0
0.12500000000000003,-1.0,4.0,-9.0,-8.0,-2.0,0.0,2.0,0.0,-0.047119140625,-0.43450927734375,-0.8541259765625,-0.281982421875,-0.17724609375,0.771484375,0.6123046875,0.9375,-3.1875,0.0
0.13000000000000003,-1.0,4.0,-9.0,-8.0,-2.0,0.0,2.0,0.0,-0.04718017578125,-0.43426513671875,-0.8541259765625,-0.282470703125,-0.18115234375,0.76318359375,0.6064453125,-1.5,-2.875,-1.3125
0.13500000000000004,0.0,-4.0,-5.0,-6.0,11.0,1.0,-3.0,0.0,-0.04718017578125,-0.43426513671875,-0.8541259765625,-0.282470703125,-0.18115234375,0.76318359375,0.6064453125,-1.5,-2.875,-1.3125
0.14000000000000004,-1.0,4.0,-1.0,-7.0,4.0,-3.0,-3.0,-1.0,-0.04718017578125,-0.43426513671875,-0.8541259765625,-0.282470703125,-0.18115234375,0.76318359375,0.6064453125,-1.5,-2.875,-1.3125
0.14500000000000005,-1.0,4.0,-1.0,-7.0,4.0,-3.0,-3.0,-1.0,-0.047119140625,-0.433837890625,-0.85418701171875,-0.282958984375,-0.181640625,0.75341796875,0.6181640625,-2.0625,-2.125,-1.4375
0.15000000000000005,-1.0,-6.0,0.0,2.0,-8.0,0.0,0.0,-2.0,-0.047119140625,-0.433837890625,-0.85418701171875,-0.282958984375,-0.181640625,0.75341796875,0.6181640625,-2.0625,-2.125,-1.4375
0.15500000000000005,-1.0,1.0,2.0,-1.0,1.0,-1.0,-2.0,-2.0,-0.04718017578125,-0.4337158203125,-0.8541259765625,-0.28326416015625,-0.18310546875,0.7451171875,0.61962890625,0.4375,-2.125,0.125
0.16000000000000006,-3.0,-13.0,-25.0,-7.0,-5.0,-2.0,-1.0,-3.0,-0.0474853515625,-0.4339599609375,-0.85394287109375,-0.28338623046875,-0.1796875,0.76123046875,0.60546875,1.9375,-2.0625,0.5
0.16500000000000006,0.0,6.0,16.0,24.0,34.0,5.0,2.0,0.0,-0.0474853515625,-0.4339599609375,-0.85394287109375,-0.28338623046875,-0.1796875,0.76123046875,0.60546875,1.9375,-2.0625,0.5
0.17000000000000007,-1.0,2.0,15.0,-1.0,-10.0,-3.0,-2.0,-1.0,-0.0474853515625,-0.4339599609375,-0.85394287109375,-0.28338623046875,-0.1796875,0.76123046875,0.60546875,1.9375,-2.0625,0.5
0.17500000000000007,-1.0,2.0,15.0,-1.0,-10.0,-3.0,-2.0,-1.0,-0.0477294921875,-0.43426513671875,-0.85369873046875,-0.28363037109375,-0.1826171875,0.76953125,0.6044921875,1.375,-2.3125,-0.1875
0.18000000000000008,0.0,-5.0,-7.0,1.0,-8.0,-1.0,-1.0,0.0,-0.0477294921875,-0.43426513671875,-0.85369873046875,-0.28363037109375,-0.1826171875,0.76953125,0.6044921875,1.375,-2.3125,-0.1875
0.18500000000000008,0.0,-5.0,-7.0,1.0,-8.0,-1.0,-1.0,0.0,-0.04779052734375,-0.4342041015625,-0.85357666015625,-0.2840576171875,-0.18310546875,0.76318359375,0.60009765625,-0.5625,-2.75,-1.0
0.19000000000000009,0.0,-8.0,-6.0,-7.0,-4.0,0.0,0.0,1.0,-0.04779052734375,-0.4342041015625,-0.85357666015625,-0.2840576171875,-0.18310546875,0.76318359375,0.60009765625,-0.5625,-2.75,-1.0
0.1950000000000001,-1.0,5.0,-6.0,-6.0,-2.0,-2.0,0.0,-1.0,-0.04791259765625,-0.43377685546875,-0.8536376953125,-0.284423828125,-0.177734375,0.75634765625,0.60693359375,-2.5,-2.75,-0.625
0.2000000000000001,-2.0,4.0,10.0,2.0,15.0,-1.0,0.0,0.0,-0.04791259765625,-0.43377685546875,-0.8536376953125,-0.284423828125,-0.177734375,0.75634765625,0.60693359375,-2.5,-2.75,-0.625
0.2050000000000001,-2.0,4.0,10.0,2.0,15.0,-1.0,0.0,0.0,-0.04791259765625,-0.43377685546875,-0.8536376953125,-0.284423828125,-0.177734375,0.75634765625,0.60693359375,-2.5,-2.75,-0.625
0.2100000000000001,-2.0,0.0,-7.0,3.0,7.0,1.0,-1.0,0.0,-0.04803466796875,-0.43353271484375,-0.8536376953125,-0.28485107421875,-0.17529296875,0.74169921875,0.6162109375,-0.25,-2.75,-0.6875
0.2150000000000001,0.0,0.0,-2.0,-9.0,-4.0,-1.0,-1.0,-2.0,-0.04833984375,-0.43377685546875,-0.8533935546875,-0.28515625,-0.18115234375,0.755859375,0.6064453125,2.25,-2.75,-0.3125
0.2200000000000001,-1.0,-1.0,-15.0,-15.0,1.0,-4.0,-2.0,-1.0,-0.04833984375,-0.43377685546875,-0.8533935546875,-0.28515625,-0.18115234375,0.755859375,0.6064453125,2.25,-2.75,-0.3125
0.22500000000000012,0.0,-9.0,9.0,-4.0,-4.0,-3.0,-2.0,-4.0,-0.048583984375,-0.433837890625,-0.853271484375,-0.28546142578125,-0.1796875,0.76123046875,0.6083984375,0.5,-2.6875,-0.3125
0.23000000000000012,0.0,2.0,8.0,-2.0,-3.0,0.0,1.0,-1.0,-0.048583984375,-0.433837890625,-0.853271484375,-0.28546142578125,-0.1796875,0.76123046875,0.6083984375,0.5,-2.6875,-0.3125
0.23500000000000013,0.0,2.0,8.0,-2.0,-3.0,0.0,1.0,-1.0,-0.048828125,-0.43377685546875,-0.85321044921875,-0.28570556640625,-0.17431640625,0.75732421875,0.60986328125,-0.0625,-2.25,-0.125
0.24000000000000013,0.0,-5.0,0.0,4.0,-2.0,0.0,0.0,0.0,-0.048828125,-0.43377685546875,-0.85321044921875,-0.28570556640625,-0.17431640625,0.75732421875,0.60986328125,-0.0625,-2.25,-0.125
0.24500000000000013,0.0,-5.0,0.0,4.0,-2.0,0.0,0.0,0.0,-0.048828125,-0.43359375,-0.85321044921875,-0.28594970703125,-0.1748046875,0.755859375,0.61376953125,-0.625,-1.5625,-0.5
0.2500000000000001,-2.0,4.0,-4.0,-6.0,-6.0,0.0,-3.0,-1.0,-0.048828125,-0.43359375,-0.85321044921875,-0.28594970703125,-0.1748046875,0.755859375,0.61376953125,-0.625,-1.5625,-0.5
0.2550000000000001,-3.0,-7.0,9.0,3.0,-2.0,-2.0,0.0,-1.0,-0.048828125,-0.43359375,-0.85321044921875,-0.28594970703125,-0.1748046875,0.755859375,0.61376953125,-0.625,-1.5625,-0.5
0.2600000000000001,-3.0,-7.0,9.0,3.0,-2.0,-2.0,0.0,-1.0,-0.048828125,-0.43359375,-0.85321044921875,-0.28594970703125,-0.1748046875,0.755859375,0.61376953125,-0.625,-1.5625,-0.5
0.2650000000000001,0.0,7.0,8.0,-9.0,-3.0,-2.0,-1.0,1.0,-0.048828125,-0.43341064453125,-0.8531494140625,-0.28631591796875,-0.17529296875,0.75634765625,0.6181640625,-0.375,-1.625,-1.125
0.27000000000000013,0.0,-2.0,3.0,1.0,1.0,2.0,0.0,0.0,-0.048828125,-0.43341064453125,-0.8531494140625,-0.28631591796875,-0.17529296875,0.75634765625,0.6181640625,-0.375,-1.625,-1.125
0.27500000000000013,0.0,-2.0,3.0,1.0,1.0,2.0,0.0,0.0,-0.04876708984375,-0.43328857421875,-0.85308837890625,-0.28668212890625,-0.1748046875,0.7548828125,0.61572265625,-0.4375,-1.625,-1.375
0.28000000000000014,-3.0,-7.0,-5.0,1.0,-2.0,-1.0,-2.0,-2.0,-0.0487060546875,-0.43310546875,-0.85308837890625,-0.28704833984375,-0.17138671875,0.7568359375,0.61767578125,-1.0,-1.0625,-1.5
0.28500000000000014,-1.0,5.0,-6.0,-5.0,-2.0,-2.0,-1.0,-1.0,-0.0487060546875,-0.43310546875,-0.85308837890625,-0.28704833984375,-0.17138671875,0.7568359375,0.61767578125,-1.0,-1.0625,-1.5
0.29000000000000015,-1.0,-1.0,1.0,4.0,-1.0,-3.0,0.0,-2.0,-0.0487060546875,-0.43310546875,-0.85308837890625,-0.28704833984375,-0.17138671875,0.7568359375,0.61767578125,-1.0,-1.0625,-1.5
0.29500000000000015,-1.0,-1.0,1.0,4.0,-1.0,-3.0,0.0,-2.0,-0.04852294921875,-0.4329833984375,-0.85302734375,-0.28741455078125,-0.18212890625,0.748046875,0.61865234375,-0.25,-0.875,-1.125
0.30000000000000016,-2.0,2.0,8.0,16.0,3.0,-1.0,-2.0,0.0,-0.04852294921875,-0.4329833984375,-0.85302734375,-0.28741455078125,-0.18212890625,0.748046875,0.61865234375,-0.25,-0.875,-1.125
0.30500000000000016,0.0,8.0,0.0,0.0,-1.0,1.0,-1.0,-1.0,-0.04852294921875,-0.4329833984375,-0.85302734375,-0.28741455078125,-0.18212890625,0.748046875,0.61865234375,-0.25,-0.875,-1.125
0.31000000000000016,0.0,8.0,0.0,0.0,-1.0,1.0,-1.0,-1.0,-0.0484619140625,-0.43292236328125,-0.85302734375,-0.28741455078125,-0.1767578125,0.75341796875,0.619140625,-0.3125,-0.9375,-0.8125
0.31500000000000017,0.0,8.0,0.0,0.0,-1.0,1.0,-1.0,-1.0,-0.0484619140625,-0.43292236328125,-0.85302734375,-0.28741455078125,-0.1767578125,0.75341796875,0.619140625,-0.3125,-0.9375,-0.8125
0.3200000000000002,-2.0,-11.0,-6.0,-5.0,-1.0,-3.0,-1.0,-2.0,-0.0484619140625,-0.43292236328125,-0.85302734375,-0.28741455078125,-0.1767578125,0.75341796875,0.619140625,-0.3125,-0.9375,-0.8125
0.3250000000000002,-4.0,-6.0,-9.0,-10.0,1.0,0.0,-1.0,0.0,-0.04840087890625,-0.43292236328125,-0.85302734375,-0.28741455078125,-0.1875,0.74609375,0.61279296875,-0.5,-0.75,-0.8125
0.3300000000000002,-4.0,-6.0,-9.0,-10.0,1.0,0.0,-1.0,0.0,-0.04833984375,-0.4327392578125,-0.85308837890625,-0.28765869140625,-0.17919921875,0.7529296875,0.6103515625,-1.4375,-1.4375,-0.4375
0.3350000000000002,-3.0,2.0,-1.0,6.0,4.0,-1.0,0.0,-3.0,-0.04833984375,-0.4327392578125,-0.85308837890625,-0.28765869140625,-0.17919921875,0.7529296875,0.6103515625,-1.4375,-1.4375,-0.4375
0.3400000000000002,1.0,1.0,4.0,-11.0,0.0,-1.0,-1.0,-1.0,-0.04833984375,-0.4327392578125,-0.85308837890625,-0.28765869140625,-0.17919921875,0.7529296875,0.6103515625,-1.4375,-1.4375,-0.4375
0.3450000000000002,1.0,1.0,4.0,-11.0,0.0,-1.0,-1.0,-1.0,-0.0484619140625,-0.43243408203125,-0.8531494140625,-0.28802490234375,-0.17626953125,0.75732421875,0.607421875,-1.8125,-2.375,-0.5625
0.3500000000000002,1.0,1.0,4.0,-11.0,0.0,-1.0,-1.0,-1.0,-0.0484619140625,-0.43243408203125,-0.8531494140625,-0.28802490234375,-0.17626953125,0.75732421875,0.607421875,-1.8125,-2.375,-0.5625
0.3550000000000002,-3.0,-2.0,-2.0,-2.0,-5.0,-2.0,-3.0,-2.0,-0.048583984375,-0.43206787109375,-0.8531494140625,-0.2884521484375,-0.17138671875,0.75927734375,0.60986328125,-2.125,-2.625,-1.375
0.3600000000000002,-2.0,-4.0,-3.0,-4.0,0.0,1.0,-1.0,1.0,-0.048583984375,-0.43206787109375,-0.8531494140625,-0.2884521484375,-0.17138671875,0.75927734375,0.60986328125,-2.125,-2.625,-1.375
0.3650000000000002,-2.0,-1.0,-5.0,12.0,-6.0,-2.0,0.0,-2.0,-0.04864501953125,-0.43170166015625,-0.8531494140625,-0.2889404296875,-0.1748046875,0.7587890625,0.61865234375,-1.75,-2.5625,-1.8125
0.3700000000000002,-4.0,-2.0,8.0,-7.0,-1.0,-4.0,-4.0,0.0,-0.04864501953125,-0.43170166015625,-0.8531494140625,-0.2889404296875,-0.1748046875,0.7587890625,0.61865234375,-1.75,-2.5625,-1.8125
0.3750000000000002,-4.0,-2.0,8.0,-7.0,-1.0,-4.0,-4.0,0.0,-0.04876708984375,-0.43157958984375,-0.85302734375,-0.28948974609375,-0.1748046875,0.75634765625,0.611328125,-0.4375,-2.875,-2.0
0.3800000000000002,-3.0,1.0,-4.0,-4.0,8.0,-1.0,1.0,-3.0,-0.04876708984375,-0.43157958984375,-0.85302734375,-0.28948974609375,-0.1748046875,0.75634765625,0.611328125,-0.4375,-2.875,-2.0
0.38500000000000023,0.0,5.0,3.0,0.0,0.0,-1.0,1.0,0.0,-0.049072265625,-0.4317626953125,-0.85272216796875,-0.2900390625,-0.17138671875,0.759765625,0.61083984375,1.3125,-2.9375,-2.25
0.39000000000000024,0.0,-6.0,-2.0,-6.0,-5.0,-1.0,0.0,0.0,-0.049072265625,-0.4317626953125,-0.85272216796875,-0.2900390625,-0.17138671875,0.759765625,0.61083984375,1.3125,-2.9375,-2.25
0.39500000000000024,3.0,3.0,-6.0,-9.0,2.0,1.0,0.0,-1.0,-0.049072265625,-0.4317626953125,-0.85272216796875,-0.2900390625,-0.17138671875,0.759765625,0.61083984375,1.3125,-2.9375,-2.25
0.40000000000000024,-1.0,-7.0,-3.0,10.0,-1.0,0.0,0.0,-2.0,-0.04931640625,-0.43182373046875,-0.85247802734375,-0.29071044921875,-0.173828125,0.763671875,0.61279296875,0.625,-3.375,-2.5625
0.40500000000000025,-3.0,-8.0,-5.0,-1.0,-3.0,0.0,-1.0,-3.0,-0.04931640625,-0.43182373046875,-0.85247802734375,-0.29071044921875,-0.173828125,0.763671875,0.61279296875,0.625,-3.375,-2.5625
0.41000000000000025,-3.0,-8.0,-5.0,-1.0,-3.0,0.0,-1.0,-3.0,-0.04931640625,-0.43182373046875,-0.85247802734375,-0.29071044921875,-0.173828125,0.763671875,0.61279296875,0.625,-3.375,-2.5625
0.41500000000000026,-3.0,-8.0,-5.0,-1.0,-3.0,0.0,-1.0,-3.0,-0.04931640625,-0.43182373046875,-0.85247802734375,-0.29071044921875,-0.173828125,0.763671875,0.61279296875,0.625,-3.375,-2.5625
0.42000000000000026,0.0,3.0,9.0,4.0,0.0,-2.0,-1.0,-2.0,-0.05010986328125,-0.43145751953125,-0.85223388671875,-0.2918701171875,-0.1640625,0.7470703125,0.60595703125,0.125,-4.0,-1.8125
0.42500000000000027,-1.0,-8.0,-8.0,-8.0,-4.0,-4.0,-2.0,-1.0,-0.0506591796875,-0.43145751953125,-0.8519287109375,-0.29248046875,-0.1640625,0.75439453125,0.607421875,1.25,-4.25,-2.0
0.43000000000000027,0.0,-12.0,-8.0,3.0,1.0,0.0,-1.0,-2.0,-0.0506591796875,-0.43145751953125,-0.8519287109375,-0.29248046875,-0.1640625,0.75439453125,0.607421875,1.25,-4.25,-2.0
0.4350000000000003,0.0,-12.0,-8.0,3.0,1.0,0.0,-1.0,-2.0,-0.05120849609375,-0.43145751953125,-0.85174560546875,-0.29296875,-0.16455078125,0.75732421875,0.60546875,0.5,-4.125,-1.5625
0.4400000000000003,-1.0,2.0,11.0,-3.0,-1.0,1.0,-2.0,-1.0,-0.05120849609375,-0.43145751953125,-0.85174560546875,-0.29296875,-0.16455078125,0.75732421875,0.60546875,0.5,-4.125,-1.5625
0.4450000000000003,0.0,-6.0,-5.0,-2.0,-1.0,0.0,-1.0,-1.0,-0.05120849609375,-0.43145751953125,-0.85174560546875,-0.29296875,-0.16455078125,0.75732421875,0.60546875,0.5,-4.125,-1.5625
0.4500000000000003,-3.0,0.0,-3.0,-9.0,-1.0,-3.0,2.0,-2.0,-0.0517578125,-0.43145751953125,-0.8515625,-0.29339599609375,-0.16552734375,0.7607421875,0.60595703125,0.4375,-4.25,-0.9375
0.4550000000000003,0.0,-3.0,-3.0,2.0,-1.0,0.0,-1.0,1.0,-0.0523681640625,-0.4315185546875,-0.85137939453125,-0.29388427734375,-0.16845703125,0.7578125,0.60498046875,1.0625,-4.3125,-0.8125
0.4600000000000003,-1.0,-2.0,-1.0,-2.0,-4.0,0.0,0.0,-1.0,-0.0523681640625,-0.4315185546875,-0.85137939453125,-0.29388427734375,-0.16845703125,0.7578125,0.60498046875,1.0625,-4.3125,-0.8125
0.4650000000000003,-1.0,-2.0,-1.0,-2.0,-4.0,0.0,0.0,-1.0,-0.0523681640625,-0.4315185546875,-0.85137939453125,-0.29388427734375,-0.16845703125,0.7578125,0.60498046875,1.0625,-4.3125,-0.8125
0.4700000000000003,2.0,-4.0,-1.0,3.0,-1.0,-1.0,-1.0,-1.0,-0.05303955078125,-0.43157958984375,-0.8511962890625,-0.294189453125,-0.16943359375,0.75537109375,0.6064453125,1.3125,-4.3125,0.0625
0.4750000000000003,2.0,-4.0,-1.0,3.0,-1.0,-1.0,-1.0,-1.0,-0.05303955078125,-0.43157958984375,-0.8511962890625,-0.294189453125,-0.16943359375,0.75537109375,0.6064453125,1.3125,-4.3125,0.0625
0.4800000000000003,-1.0,-1.0,-13.0,-2.0,-3.0,-1.0,-3.0,-2.0,-0.05364990234375,-0.4317626953125,-0.8509521484375,-0.29443359375,-0.166015625,0.7666015625,0.60400390625,1.625,-3.75,0.125
0.4850000000000003,-1.0,3.0,-1.0,3.0,1.0,-1.0,-2.0,0.0,-0.05364990234375,-0.4317626953125,-0.8509521484375,-0.29443359375,-0.166015625,0.7666015625,0.60400390625,1.625,-3.75,0.125
0.4900000000000003,-1.0,3.0,-1.0,3.0,1.0,-1.0,-2.0,0.0,-0.0540771484375,-0.43206787109375,-0.8507080078125,-0.294677734375,-0.169921875,0.76416015625,0.6064453125,2.0625,-2.8125,-0.1875
0.49500000000000033,-2.0,-1.0,-7.0,-1.0,-3.0,-1.0,0.0,0.0,-0.0540771484375,-0.43206787109375,-0.8507080078125,-0.294677734375,-0.169921875,0.76416015625,0.6064453125,2.0625,-2.8125,-0.1875
0.5000000000000003,-2.0,1.0,3.0,-1.0,-1.0,-1.0,-2.0,-2.0,-0.0543212890625,-0.43218994140625,-0.85052490234375,-0.29486083984375,-0.17822265625,0.75830078125,0.609375,1.25,-2.125,0.1875
0.5050000000000003,0.0,0.0,2.0,2.0,0.0,0.0,-2.0,0.0,-0.0545654296875,-0.432373046875,-0.85040283203125,-0.294921875,-0.17041015625,0.75732421875,0.60888671875,1.125,-1.625,0.625
0.5100000000000003,-2.0,-4.0,-6.0,-3.0,-2.0,0.0,-1.0,0.0,-0.0545654296875,-0.432373046875,-0.85040283203125,-0.294921875,-0.17041015625,0.75732421875,0.60888671875,1.125,-1.625,0.625
0.5150000000000003,-2.0,-4.0,-6.0,-3.0,-2.0,0.0,-1.0,0.0,-0.0545654296875,-0.432373046875,-0.85040283203125,-0.294921875,-0.17041015625,0.75732421875,0.60888671875,1.125,-1.625,0.625
0.5200000000000004,-2.0,-1.0,12.0,1.0,1.0,0.0,-1.0,0.0,-0.0548095703125,-0.43267822265625,-0.85028076171875,-0.2947998046875,-0.1669921875,0.76904296875,0.61083984375,1.9375,-0.875,0.8125
0.5250000000000004,-2.0,-1.0,12.0,1.0,1.0,0.0,-1.0,0.0,-0.0548095703125,-0.43267822265625,-0.85028076171875,-0.2947998046875,-0.1630859375,0.77392578125,0.61474609375,0.75,0.4375,0.875
0.5300000000000004,-1.0,-9.0,-14.0,-4.0,-1.0,-2.0,0.0,0.0,-0.05474853515625,-0.4327392578125,-0.850341796875,-0.2945556640625,-0.1650390625,0.77880859375,0.61279296875,-1.0,0.6875,1.25
0.5350000000000004,-3.0,-4.0,-6.0,-4.0,-1.0,-1.0,0.0,-2.0,-0.05474853515625,-0.4327392578125,-0.850341796875,-0.2945556640625,-0.1650390625,0.77880859375,0.61279296875,-1.0,0.6875,1.25
0.5400000000000004,-3.0,-4.0,-6.0,-4.0,-1.0,-1.0,0.0,-2.0,-0.0543212890625,-0.432861328125,-0.8504638671875,-0.29412841796875,-0.15478515625,0.7568359375,0.60302734375,-0.625,3.5625,1.0625
0.5450000000000004,1.0,5.0,1.0,3.0,-1.0,-1.0,-1.0,-2.0,-0.0543212890625,-0.432861328125,-0.8504638671875,-0.29412841796875,-0.15478515625,0.7568359375,0.60302734375,-0.625,3.5625,1.0625
0.5500000000000004,0.0,1.0,-1.0,-4.0,-1.0,-3.0,-2.0,-2.0,-0.05364990234375,-0.43316650390625,-0.85052490234375,-0.2935791015625,-0.17431640625,0.751953125,0.611328125,0.875,4.5625,1.75
0.5550000000000004,-1.0,0.0,0.0,-2.0,-1.0,-2.0,0.0,-2.0,-0.05364990234375,-0.43316650390625,-0.85052490234375,-0.2935791015625,-0.17431640625,0.751953125,0.611328125,0.875,4.5625,1.75
0.5600000000000004,-2.0,0.0,1.0,4.0,-2.0,-3.0,-1.0,0.0,-0.05322265625,-0.4337158203125,-0.85052490234375,-0.2928466796875,-0.1708984375,0.765625,0.59716796875,1.125,4.3125,2.5
0.5650000000000004,-2.0,0.0,1.0,4.0,-2.0,-3.0,-1.0,0.0,-0.05322265625,-0.4337158203125,-0.85052490234375,-0.2928466796875,-0.1708984375,0.765625,0.59716796875,1.125,4.3125,2.5
0.5700000000000004,1.0,3.0,5.0,2.0,-1.0,-1.0,-1.0,-3.0,-0.052734375,-0.43389892578125,-0.85064697265625,-0.292236328125,-0.16650390625,0.759765625,0.5986328125,-0.8125,3.9375,2.25
0.5750000000000004,-1.0,1.0,2.0,-2.0,-2.0,-1.0,-1.0,-1.0,-0.052734375,-0.43389892578125,-0.85064697265625,-0.292236328125,-0.16650390625,0.759765625,0.5986328125,-0.8125,3.9375,2.25
0.5800000000000004,-1.0,1.0,2.0,-2.0,-2.0,-1.0,-1.0,-1.0,-0.05218505859375,-0.4339599609375,-0.85089111328125,-0.2916259765625,-0.1611328125,0.74755859375,0.59716796875,-1.0625,4.0625,2.0625
0.5850000000000004,1.0,1.0,3.0,-1.0,0.0,-1.0,0.0,0.0,-0.05218505859375,-0.4339599609375,-0.85089111328125,-0.2916259765625,-0.1611328125,0.74755859375,0.59716796875,-1.0625,4.0625,2.0625
0.5900000000000004,-1.0,-1.0,0.0,-1.0,-2.0,-2.0,-1.0,-1.0,-0.05218505859375,-0.4339599609375,-0.85089111328125,-0.2916259765625,-0.1611328125,0.74755859375,0.59716796875,-1.0625,4.0625,2.0625
0.5950000000000004,-1.0,-1.0,0.0,-1.0,-2.0,-2.0,-1.0,-1.0,-0.051513671875,-0.4342041015625,-0.85101318359375,-0.29107666015625,-0.16455078125,0.74462890625,0.603515625,0.125,4.9375,1.4375
0.6000000000000004,-1.0,-2.0,-5.0,-2.0,-2.0,-1.0,-1.0,0.0,-0.051513671875,-0.4342041015625,-0.85101318359375,-0.29107666015625,-0.16455078125,0.74462890625,0.603515625,0.125,4.9375,1.4375
0.6050000000000004,-1.0,-4.0,-8.0,-2.0,-2.0,1.0,-2.0,-1.0,-0.05078125,-0.4346923828125,-0.85101318359375,-0.29046630859375,-0.17822265625,0.74365234375,0.609375,2.0,5.3125,1.75
0.6100000000000004,-1.0,-4.0,-8.0,-2.0,-2.0,1.0,-2.0,-1.0,-0.05047607421875,-0.435546875,-0.85076904296875,-0.28985595703125,-0.18359375,0.75146484375,0.6083984375,4.6875,3.4375,2.8125
0.6150000000000004,-1.0,-2.0,1.0,-1.0,2.0,0.0,1.0,0.0,-0.05047607421875,-0.435546875,-0.85076904296875,-0.28985595703125,-0.18359375,0.75146484375,0.6083984375,4.6875,3.4375,2.8125
0.6200000000000004,-1.0,-2.0,1.0,-1.0,2.0,0.0,1.0,0.0,-0.0506591796875,-0.43658447265625,-0.8504638671875,-0.28924560546875,-0.18359375,0.751953125,0.6064453125,6.75,1.5,3.5625
0.6250000000000004,-2.0,-3.0,-9.0,-9.0,-4.0,-3.0,0.0,-5.0,-0.0506591796875,-0.43658447265625,-0.8504638671875,-0.28924560546875,-0.18359375,0.751953125,0.6064453125,6.75,1.5,3.5625
0.6300000000000004,-2.0,-3.0,-9.0,-9.0,-4.0,-3.0,0.0,-5.0,-0.05126953125,-0.43798828125,-0.849853515625,-0.28875732421875,-0.1806640625,0.75439453125,0.6044921875,10.125,-0.5,3.5625
0.6350000000000005,1.0,3.0,-5.0,-1.0,-1.0,2.0,0.0,0.0,-0.0523681640625,-0.43994140625,-0.848876953125,-0.2884521484375,-0.177734375,0.76708984375,0.6083984375,14.25,-2.125,2.8125
0.6400000000000005,-2.0,10.0,30.0,-1.0,-3.0,-3.0,-1.0,-4.0,-0.0523681640625,-0.43994140625,-0.848876953125,-0.2884521484375,-0.177734375,0.76708984375,0.6083984375,14.25,-2.125,2.8125
0.6450000000000005,-2.0,10.0,30.0,-1.0,-3.0,-3.0,-1.0,-4.0,-0.0523681640625,-0.43994140625,-0.848876953125,-0.2884521484375,-0.177734375,0.76708984375,0.6083984375,14.25,-2.125,2.8125
0.6500000000000005,-2.0,10.0,30.0,-1.0,-3.0,-3.0,-1.0,-4.0,-0.0523681640625,-0.43994140625,-0.848876953125,-0.2884521484375,-0.177734375,0.76708984375,0.6083984375,14.25,-2.125,2.8125
0.6550000000000005,-2.0,-4.0,-4.0,-4.0,-2.0,-2.0,3.0,1.0,-0.05523681640625,-0.44403076171875,-0.8468017578125,-0.287841796875,-0.18359375,0.78125,0.59814453125,14.0,-4.8125,4.375
0.6600000000000005,1.0,-2.0,-4.0,4.0,1.0,-1.0,-2.0,0.0,-0.056884765625,-0.44573974609375,-0.84588623046875,-0.28753662109375,-0.17431640625,0.775390625,0.60009765625,14.1875,-5.5,4.375
0.6650000000000005,1.0,-2.0,-4.0,4.0,1.0,-1.0,-2.0,0.0,-0.056884765625,-0.44573974609375,-0.84588623046875,-0.28753662109375,-0.17431640625,0.775390625,0.60009765625,14.1875,-5.5,4.375
0.6700000000000005,0.0,8.0,12.0,1.0,-1.0,0.0,-2.0,1.0,-0.058837890625,-0.44757080078125,-0.8448486328125,-0.28729248046875,-0.1767578125,0.7734375,0.6025390625,16.1875,-6.625,5.0
0.6750000000000005,-2.0,-6.0,-3.0,-2.0,0.0,-1.0,1.0,-1.0,-0.058837890625,-0.44757080078125,-0.8448486328125,-0.28729248046875,-0.1767578125,0.7734375,0.6025390625,16.1875,-6.625,5.0
0.6800000000000005,-1.0,6.0,-8.0,-5.0,-2.0,0.0,0.0,-1.0,-0.06103515625,-0.44970703125,-0.8436279296875,-0.2869873046875,-0.16259765625,0.7763671875,0.59130859375,17.9375,-7.1875,5.125
0.6850000000000005,-2.0,1.0,3.0,-3.0,-3.0,-2.0,-1.0,-1.0,-0.06103515625,-0.44970703125,-0.8436279296875,-0.2869873046875,-0.16259765625,0.7763671875,0.59130859375,17.9375,-7.1875,5.125
0.6900000000000005,-2.0,1.0,3.0,-3.0,-3.0,-2.0,-1.0,-1.0,-0.0631103515625,-0.45166015625,-0.842529296875,-0.28680419921875,-0.1650390625,0.79443359375,0.56884765625,14.875,-7.125,4.4375
0.6950000000000005,-2.0,1.0,3.0,-3.0,-3.0,-2.0,-1.0,-1.0,-0.0631103515625,-0.45166015625,-0.842529296875,-0.28680419921875,-0.1650390625,0.79443359375,0.56884765625,14.875,-7.125,4.4375
0.7000000000000005,-2.0,1.0,3.0,-3.0,-3.0,-2.0,-1.0,-1.0,-0.0631103515625,-0.45166015625,-0.842529296875,-0.28680419921875,-0.1650390625,0.79443359375,0.56884765625,14.875,-7.125,4.4375
0.7050000000000005,-4.0,-12.0,-2.0,-2.0,-1.0,0.0,0.0,0.0,-0.06463623046875,-0.45294189453125,-0.84161376953125,-0.287109375,-0.1640625,0.79541015625,0.576171875,10.875,-7.1875,1.3125
0.7100000000000005,-5.0,-11.0,-5.0,-3.0,-2.0,-3.0,-4.0,-2.0,-0.06573486328125,-0.45391845703125,-0.84088134765625,-0.28753662109375,-0.17236328125,0.7841796875,0.55615234375,7.4375,-6.125,0.4375
0.7150000000000005,-2.0,1.0,-8.0,-2.0,-2.0,0.0,-4.0,-1.0,-0.06573486328125,-0.45391845703125,-0.84088134765625,-0.28753662109375,-0.17236328125,0.7841796875,0.55615234375,7.4375,-6.125,0.4375
0.7200000000000005,-2.0,1.0,-8.0,-2.0,-2.0,0.0,-4.0,-1.0,-0.06573486328125,-0.45391845703125,-0.84088134765625,-0.28753662109375,-0.17236328125,0.7841796875,0.55615234375,7.4375,-6.125,0.4375
0.7250000000000005,4.0,5.0,1.0,0.0,4.0,7.0,13.0,5.0,-0.06634521484375,-0.45440673828125,-0.84033203125,-0.28814697265625,-0.17431640625,0.794921875,0.548828125,3.25,-5.3125,-1.1875
0.7300000000000005,-5.0,1.0,-8.0,-2.0,-2.0,-2.0,0.0,-1.0,-0.066650390625,-0.45428466796875,-0.840087890625,-0.28900146484375,-0.16552734375,0.80908203125,0.54736328125,-1.8125,-4.9375,-2.8125
0.7350000000000005,-2.0,4.0,-2.0,1.0,-1.0,-1.0,-1.0,-2.0,-0.066162109375,-0.452880859375,-0.84033203125,-0.290771484375,-0.18115234375,0.7861328125,0.5634765625,-9.375,-5.9375,-7.0625
0.7400000000000005,-3.0,-3.0,3.0,-5.0,-1.0,-6.0,-2.0,-2.0,-0.066162109375,-0.452880859375,-0.84033203125,-0.290771484375,-0.18115234375,0.7861328125,0.5634765625,-9.375,-5.9375,-7.0625
0.7450000000000006,-2.0,-10.0,-15.0,-3.0,0.0,-2.0,-4.0,1.0,-0.066162109375,-0.452880859375,-0.84033203125,-0.290771484375,-0.18115234375,0.7861328125,0.5634765625,-9.375,-5.9375,-7.0625
0.7500000000000006,-2.0,-10.0,-15.0,-3.0,0.0,-2.0,-4.0,1.0,-0.066162109375,-0.452880859375,-0.84033203125,-0.290771484375,-0.18115234375,0.7861328125,0.5634765625,-9.375,-5.9375,-7.0625
0.7550000000000006,-1.0,-11.0,-9.0,-3.0,0.0,-1.0,-1.0,-2.0,-0.0648193359375,-0.44970703125,-0.8408203125,-0.29449462890625,-0.1982421875,0.76416015625,0.580078125,-7.5,-6.1875,-5.75
0.7600000000000006,1.0,9.0,-7.0,-2.0,-3.0,-2.0,3.0,-1.0,-0.0648193359375,-0.44970703125,-0.8408203125,-0.29449462890625,-0.1982421875,0.76416015625,0.580078125,-7.5,-6.1875,-5.75
0.7650000000000006,1.0,9.0,-7.0,-2.0,-3.0,-2.0,3.0,-1.0,-0.065185546875,-0.44891357421875,-0.84075927734375,-0.2957763671875,-0.1806640625,0.76904296875,0.58740234375,-2.75,-7.6875,-3.625
0.7700000000000006,-7.0,-8.0,6.0,-1.0,-5.0,-14.0,-11.0,-7.0,-0.065185546875,-0.44891357421875,-0.84075927734375,-0.2957763671875,-0.1806640625,0.76904296875,0.58740234375,-2.75,-7.6875,-3.625
0.7750000000000006,-7.0,-8.0,6.0,-1.0,-5.0,-14.0,-11.0,-7.0,-0.065185546875,-0.44891357421875,-0.84075927734375,-0.2957763671875,-0.1806640625,0.76904296875,0.58740234375,-2.75,-7.6875,-3.625
0.7800000000000006,1.0,13.0,12.0,-1.0,0.0,-3.0,-2.0,2.0,-0.06585693359375,-0.44879150390625,-0.8404541015625,-0.296630859375,-0.16796875,0.79638671875,0.57666015625,0.4375,-6.3125,-2.125
0.7850000000000006,0.0,-1.0,-12.0,10.0,-4.0,-4.0,-2.0,-3.0,-0.06658935546875,-0.44879150390625,-0.8402099609375,-0.29718017578125,-0.14990234375,0.818359375,0.56298828125,-0.8125,-5.1875,-1.625
0.7900000000000006,-3.0,-7.0,0.0,-7.0,-1.0,-6.0,7.0,-2.0,-0.06658935546875,-0.44879150390625,-0.8402099609375,-0.29718017578125,-0.14990234375,0.818359375,0.56298828125,-0.8125,-5.1875,-1.625
0.7950000000000006,-3.0,-7.0,0.0,-7.0,-1.0,-6.0,7.0,-2.0,-0.06689453125,-0.44775390625,-0.8404541015625,-0.29791259765625,-0.13720703125,0.81494140625,0.578125,-7.375,-4.4375,-3.375
0.8000000000000006,-2.0,0.0,4.0,11.0,-5.0,0.0,-4.0,-4.0,-0.06689453125,-0.44775390625,-0.8404541015625,-0.29791259765625,-0.13720703125,0.81494140625,0.578125,-7.375,-4.4375,-3.375
0.8050000000000006,-2.0,0.0,4.0,11.0,-5.0,0.0,-4.0,-4.0,-0.06689453125,-0.44775390625,-0.8404541015625,-0.29791259765625,-0.13720703125,0.81494140625,0.578125,-7.375,-4.4375,-3.375
0.8100000000000006,-4.0,3.0,6.0,-10.0,-25.0,-14.0,-12.0,-4.0,-0.0665283203125,-0.444580078125,-0.84173583984375,-0.29925537109375,-0.1513671875,0.7900390625,0.57763671875,-10.4375,-3.1875,-2.3125
0.8150000000000006,-1.0,3.0,-2.0,-12.0,-10.0,2.0,0.0,1.0,-0.0665283203125,-0.444580078125,-0.84173583984375,-0.29925537109375,-0.1513671875,0.7900390625,0.57763671875,-10.4375,-3.1875,-2.3125
0.8200000000000006,-1.0,3.0,-2.0,-12.0,-10.0,2.0,0.0,1.0,-0.06610107421875,-0.44342041015625,-0.84210205078125,-0.29986572265625,-0.1669921875,0.763671875,0.58349609375,-7.375,-2.0625,-2.0
0.8250000000000006,-1.0,3.0,-2.0,-12.0,-10.0,2.0,0.0,1.0,-0.06610107421875,-0.44342041015625,-0.84210205078125,-0.29986572265625,-0.1669921875,0.763671875,0.58349609375,-7.375,-2.0625,-2.0
0.8300000000000006,-1.0,3.0,-2.0,-12.0,-10.0,2.0,0.0,1.0,-0.06610107421875,-0.44342041015625,-0.84210205078125,-0.29986572265625,-0.1669921875,0.763671875,0.58349609375,-7.375,-2.0625,-2.0
0.8350000000000006,0.0,2.0,6.0,-3.0,-1.0,4.0,1.0,1.0,-0.0665283203125,-0.4429931640625,-0.84222412109375,-0.30023193359375,-0.15234375,0.7822265625,0.591796875,-1.9375,-3.75,-0.25
0.8400000000000006,2.0,4.0,5.0,-1.0,5.0,0.0,8.0,3.0,-0.0672607421875,-0.44293212890625,-0.842041015625,-0.30072021484375,-0.14697265625,0.78076171875,0.58544921875,0.5,-4.75,-1.125
0.8450000000000006,-2.0,7.0,3.0,-7.0,-13.0,-6.0,-5.0,-2.0,-0.06781005859375,-0.44244384765625,-0.8419189453125,-0.30145263671875,-0.15087890625,0.76318359375,0.59423828125,-0.5625,-5.5,-2.125
0.8500000000000006,-2.0,7.0,3.0,-7.0,-13.0,-6.0,-5.0,-2.0,-0.06781005859375,-0.44244384765625,-0.8419189453125,-0.30145263671875,-0.15087890625,0.76318359375,0.59423828125,-0.5625,-5.5,-2.125
0.8550000000000006,-2.0,7.0,3.0,-7.0,-13.0,-6.0,-5.0,-2.0,-0.06781005859375,-0.44244384765625,-0.8419189453125,-0.30145263671875,-0.15087890625,0.76318359375,0.59423828125,-0.5625,-5.5,-2.125
0.8600000000000007,1.0,17.0,25.0,0.0,-4.0,2.0,0.0,0.0,-0.06884765625,-0.44195556640625,-0.84197998046875,-0.3018798828125,-0.14013671875,0.7705078125,0.58544921875,-0.125,-1.9375,0.4375
0.8650000000000007,1.0,17.0,25.0,0.0,-4.0,2.0,0.0,0.0,-0.06884765625,-0.44195556640625,-0.84197998046875,-0.3018798828125,-0.14013671875,0.7705078125,0.58544921875,-0.125,-1.9375,0.4375
0.8700000000000007,-1.0,-8.0,-7.0,-5.0,-1.0,3.0,-1.0,-2.0,-0.06884765625,-0.44195556640625,-0.84197998046875,-0.3018798828125,-0.14013671875,0.7705078125,0.58544921875,-0.125,-1.9375,0.4375
0.8750000000000007,-1.0,-8.0,-6.0,-3.0,-3.0,-1.0,-3.0,-2.0,-0.0684814453125,-0.4420166015625,-0.84259033203125,-0.30010986328125,-0.15478515625,0.79296875,0.5732421875,-5.375,2.125,1.8125
0.8800000000000007,-1.0,-8.0,-6.0,-3.0,-3.0,-1.0,-3.0,-2.0,-0.0684814453125,-0.4420166015625,-0.84259033203125,-0.30010986328125,-0.15478515625,0.79296875,0.5732421875,-5.375,2.125,1.8125
0.8850000000000007,-1.0,-8.0,-6.0,-3.0,-3.0,-1.0,-3.0,-2.0,-0.0684814453125,-0.4420166015625,-0.84259033203125,-0.30010986328125,-0.15478515625,0.79296875,0.5732421875,-5.375,2.125,1.8125
0.8900000000000007,2.0,5.0,-4.0,-1.0,0.0,0.0,-1.0,0.0,-0.0679931640625,-0.441650390625,-0.8428955078125,-0.2999267578125,-0.15576171875,0.765625,0.5771484375,-3.6875,1.4375,0.6875
0.8950000000000007,5.0,10.0,10.0,20.0,7.0,4.0,3.0,8.0,-0.0677490234375,-0.44158935546875,-0.84295654296875,-0.2998046875,-0.15283203125,0.767578125,0.57666015625,-1.5625,1.3125,0.25
0.9000000000000007,9.0,-4.0,3.0,8.0,46.0,3.0,-3.0,-1.0,-0.0677490234375,-0.44158935546875,-0.84295654296875,-0.2998046875,-0.15283203125,0.767578125,0.57666015625,-1.5625,1.3125,0.25
0.9050000000000007,9.0,-4.0,3.0,8.0,46.0,3.0,-3.0,-1.0,-0.0672607421875,-0.44134521484375,-0.8431396484375,-0.2999267578125,-0.17138671875,0.7783203125,0.595703125,-2.625,0.6875,-0.125
0.9100000000000007,-1.0,4.0,-5.0,-1.0,-9.0,0.0,-3.0,-1.0,-0.0670166015625,-0.44140625,-0.84320068359375,-0.29974365234375,-0.1728515625,0.7841796875,0.591796875,-0.8125,0.875,1.4375
0.9150000000000007,-14.0,4.0,6.0,-18.0,-21.0,-5.0,5.0,-2.0,-0.0670166015625,-0.44140625,-0.84320068359375,-0.29974365234375,-0.1728515625,0.7841796875,0.591796875,-0.8125,0.875,1.4375
0.9200000000000007,-7.0,-7.0,-1.0,-2.0,-7.0,-5.0,-6.0,-6.0,-0.06671142578125,-0.4407958984375,-0.84356689453125,-0.2996826171875,-0.17578125,0.794921875,0.5869140625,-5.625,-0.6875,1.625
0.9250000000000007,-2.0,3.0,-27.0,-3.0,-5.0,-3.0,0.0,3.0,-0.06671142578125,-0.4407958984375,-0.84356689453125,-0.2996826171875,-0.17578125,0.794921875,0.5869140625,-5.625,-0.6875,1.625
0.9300000000000007,-2.0,3.0,-27.0,-3.0,-5.0,-3.0,0.0,3.0,-0.0657958984375,-0.43914794921875,-0.8443603515625,-0.300048828125,-0.16748046875,0.7685546875,0.58544921875,-12.375,0.0,-1.1875
0.9350000000000007,-5.0,-9.0,-14.0,-12.0,-24.0,-5.0,0.0,-2.0,-0.0657958984375,-0.43914794921875,-0.8443603515625,-0.300048828125,-0.16748046875,0.7685546875,0.58544921875,-12.375,0.0,-1.1875
0.9400000000000007,6.0,4.0,2.0,4.0,-2.0,0.0,-1.0,1.0,-0.0657958984375,-0.43914794921875,-0.8443603515625,-0.300048828125,-0.16748046875,0.7685546875,0.58544921875,-12.375,0.0,-1.1875
0.9450000000000007,-10.0,0.0,8.0,-2.0,-17.0,-1.0,-1.0,-2.0,-0.0645751953125,-0.43707275390625,-0.84527587890625,-0.3006591796875,-0.16162109375,0.72900390625,0.64013671875,-10.875,1.1875,-2.5625
0.9500000000000007,-4.0,-6.0,0.0,0.0,1.0,-2.0,-1.0,-3.0,-0.0643310546875,-0.43621826171875,-0.8455810546875,-0.301025390625,-0.15478515625,0.7734375,0.6328125,-4.125,-0.875,-1.75
0.9550000000000007,5.0,-6.0,-11.0,-1.0,-4.0,-1.0,2.0,-3.0,-0.0643310546875,-0.43621826171875,-0.8455810546875,-0.301025390625,-0.15478515625,0.7734375,0.6328125,-4.125,-0.875,-1.75
0.9600000000000007,5.0,-6.0,-11.0,-1.0,-4.0,-1.0,2.0,-3.0,-0.0643310546875,-0.43621826171875,-0.8455810546875,-0.301025390625,-0.15478515625,0.7734375,0.6328125,-4.125,-0.875,-1.75
0.9650000000000007,4.0,5.0,0.0,6.0,43.0,0.0,1.0,0.0,-0.064208984375,-0.43548583984375,-0.84588623046875,-0.30133056640625,-0.16015625,0.81689453125,0.5986328125,-7.375,-1.9375,-1.1875
0.9700000000000008,-7.0,-11.0,-35.0,-17.0,-9.0,-5.0,-3.0,-1.0,-0.06341552734375,-0.43267822265625,-0.84722900390625,-0.30181884765625,-0.16162109375,0.7880859375,0.59912109375,-20.125,-2.0,-0.8125
0.9750000000000008,-3.0,9.0,12.0,1.0,6.0,-6.0,-3.0,-5.0,-0.06341552734375,-0.43267822265625,-0.84722900390625,-0.30181884765625,-0.16162109375,0.7880859375,0.59912109375,-20.125,-2.0,-0.8125
0.9800000000000008,-2.0,-6.0,4.0,-5.0,-5.0,-1.0,0.0,1.0,-0.06146240234375,-0.42950439453125,-0.848876953125,-0.30218505859375,-0.1591796875,0.7197265625,0.61962890625,-21.3125,3.3125,-1.75
0.9850000000000008,-6.0,-10.0,-4.0,-10.0,-51.0,-3.0,-2.0,1.0,-0.06146240234375,-0.42950439453125,-0.848876953125,-0.30218505859375,-0.1591796875,0.7197265625,0.61962890625,-21.3125,3.3125,-1.75
0.9900000000000008,-2.0,-3.0,3.0,0.0,3.0,-4.0,-2.0,-2.0,-0.05999755859375,-0.42755126953125,-0.84979248046875,-0.30255126953125,-0.18212890625,0.7275390625,0.62890625,-12.6875,2.25,-1.625
0.9950000000000008,-1.0,-1.0,16.0,2.0,-2.0,-1.0,0.0,-1.0,-0.05975341796875,-0.4263916015625,-0.850341796875,-0.30279541015625,-0.16259765625,0.77587890625,0.62744140625,-8.25,-1.75,-0.0625
1.0000000000000007,-4.0,-4.0,-9.0,-23.0,-7.0,2.0,1.0,-1.0,-0.05975341796875,-0.4263916015625,-0.850341796875,-0.30279541015625,-0.16259765625,0.77587890625,0.62744140625,-8.25,-1.75,-0.0625
1.0050000000000006,-2.0,-8.0,-3.0,16.0,-8.0,-2.0,-4.0,0.0,-0.05950927734375,-0.4248046875,-0.85101318359375,-0.3031005859375,-0.150390625,0.76611328125,0.60888671875,-11.625,-1.9375,-0.875
1.0100000000000005,-6.0,3.0,40.0,31.0,-41.0,1.0,2.0,-3.0,-0.05950927734375,-0.4248046875,-0.85101318359375,-0.3031005859375,-0.150390625,0.76611328125,0.60888671875,-11.625,-1.9375,-0.875
1.0150000000000003,-6.0,3.0,40.0,31.0,-41.0,1.0,2.0,-3.0,-0.05950927734375,-0.4248046875,-0.85101318359375,-0.3031005859375,-0.150390625,0.76611328125,0.60888671875,-11.625,-1.9375,-0.875
1.0200000000000002,0.0,-2.0,12.0,16.0,3.0,11.0,8.0,2.0,-0.05908203125,-0.42266845703125,-0.85198974609375,-0.30352783203125,-0.16796875,0.759765625,0.62939453125,-14.1875,-3.0,0.0
1.0250000000000001,3.0,0.0,-11.0,-25.0,-15.0,0.0,-3.0,2.0,-0.05908203125,-0.42266845703125,-0.85198974609375,-0.30352783203125,-0.16796875,0.759765625,0.62939453125,-14.1875,-3.0,0.0
1.03,-5.0,-8.0,-10.0,-17.0,-38.0,-8.0,-11.0,12.0,-0.05859375,-0.42095947265625,-0.852783203125,-0.3037109375,-0.16845703125,0.73876953125,0.61083984375,-12.0,-1.5625,0.4375
1.035,-5.0,-8.0,-10.0,-17.0,-38.0,-8.0,-11.0,12.0,-0.05859375,-0.42095947265625,-0.852783203125,-0.3037109375,-0.16845703125,0.73876953125,0.61083984375,-12.0,-1.5625,0.4375
1.0399999999999998,1.0,6.0,1.0,-30.0,-79.0,1.0,9.0,-3.0,-0.05859375,-0.42095947265625,-0.852783203125,-0.3037109375,-0.16845703125,0.73876953125,0.61083984375,-12.0,-1.5625,0.4375
1.0449999999999997,1.0,6.0,1.0,-30.0,-79.0,1.0,9.0,-3.0,-0.0572509765625,-0.41796875,-0.85418701171875,-0.30413818359375,-0.16259765625,0.70751953125,0.6455078125,-18.4375,0.25,-1.1875
1.0499999999999996,-6.0,-3.0,7.0,14.0,36.0,-6.0,-29.0,-6.0,-0.0572509765625,-0.41796875,-0.85418701171875,-0.30413818359375,-0.16259765625,0.70751953125,0.6455078125,-18.4375,0.25,-1.1875
1.0549999999999995,-6.0,-3.0,7.0,14.0,36.0,-6.0,-29.0,-6.0,-0.057373046875,-0.41583251953125,-0.85504150390625,-0.3046875,-0.1552734375,0.74560546875,0.67333984375,-11.125,-4.6875,-0.0625
1.0599999999999994,2.0,-10.0,-19.0,-1.0,-43.0,-15.0,0.0,7.0,-0.057373046875,-0.41583251953125,-0.85504150390625,-0.3046875,-0.1552734375,0.74560546875,0.67333984375,-11.125,-4.6875,-0.0625
1.0649999999999993,-5.0,-4.0,-2.0,-3.0,27.0,3.0,8.0,11.0,-0.057861328125,-0.41436767578125,-0.85540771484375,-0.3055419921875,-0.13671875,0.73486328125,0.65771484375,-6.75,-6.1875,-2.75
1.0699999999999992,-5.0,-4.0,-2.0,-3.0,27.0,3.0,8.0,11.0,-0.057861328125,-0.41436767578125,-0.85540771484375,-0.3055419921875,-0.13671875,0.73486328125,0.65771484375,-6.75,-6.1875,-2.75
1.074999999999999,0.0,-2.0,-11.0,-20.0,-16.0,-9.0,0.0,-8.0,-0.05828857421875,-0.410400390625,-0.85699462890625,-0.3062744140625,-0.1318359375,0.7177734375,0.6484375,-10.9375,-2.625,0.625
1.079999999999999,3.0,5.0,-2.0,-7.0,2.0,2.0,1.0,-7.0,-0.05810546875,-0.408935546875,-0.85772705078125,-0.30633544921875,-0.1669921875,0.7412109375,0.64208984375,-10.5,-2.5625,1.5625
1.0849999999999989,-3.0,-3.0,-4.0,36.0,44.0,-5.0,-2.0,-2.0,-0.05810546875,-0.408935546875,-0.85772705078125,-0.30633544921875,-0.1669921875,0.7412109375,0.64208984375,-10.5,-2.5625,1.5625
1.0899999999999987,-3.0,-3.0,-4.0,36.0,44.0,-5.0,-2.0,-2.0,-0.05810546875,-0.408935546875,-0.85772705078125,-0.30633544921875,-0.1669921875,0.7412109375,0.64208984375,-10.5,-2.5625,1.5625
1.0949999999999986,5.0,1.0,-2.0,15.0,-9.0,-1.0,1.0,-9.0,-0.05804443359375,-0.4063720703125,-0.8587646484375,-0.306884765625,-0.158203125,0.69921875,0.666015625,-13.5625,-5.6875,0.75
1.0999999999999985,5.0,1.0,-2.0,15.0,-9.0,-1.0,1.0,-9.0,-0.05902099609375,-0.40435791015625,-0.859375,-0.3074951171875,-0.150390625,0.7099609375,0.66748046875,-8.625,-9.5625,1.375
1.1049999999999984,8.0,22.0,22.0,4.0,18.0,12.0,6.0,8.0,-0.0604248046875,-0.40350341796875,-0.859375,-0.30841064453125,-0.13671875,0.68994140625,0.65966796875,-0.625,-10.0,-0.9375
1.1099999999999983,8.0,22.0,22.0,4.0,18.0,12.0,6.0,8.0,-0.0604248046875,-0.40350341796875,-0.859375,-0.30841064453125,-0.13671875,0.68994140625,0.65966796875,-0.625,-10.0,-0.9375
1.1149999999999982,8.0,22.0,22.0,4.0,18.0,12.0,6.0,8.0,-0.0604248046875,-0.40350341796875,-0.859375,-0.30841064453125,-0.13671875,0.68994140625,0.65966796875,-0.625,-10.0,-0.9375
1.119999999999998,2.0,-6.0,-7.0,-1.0,0.0,0.0,29.0,-3.0,-0.06207275390625,-0.40386962890625,-0.85888671875,-0.3089599609375,-0.14453125,0.7275390625,0.65087890625,5.0,-9.25,0.0625
1.124999999999998,0.0,-3.0,-7.0,-11.0,-34.0,-11.0,0.0,-15.0,-0.06341552734375,-0.40460205078125,-0.85833740234375,-0.309326171875,-0.1640625,0.74267578125,0.64697265625,5.6875,-7.75,1.125
1.129999999999998,-2.0,-2.0,0.0,-34.0,-4.0,-2.0,22.0,-6.0,-0.06451416015625,-0.40460205078125,-0.85809326171875,-0.3096923828125,-0.1748046875,0.73046875,0.646484375,1.6875,-8.0625,2.125
1.1349999999999978,-2.0,-2.0,0.0,-34.0,-4.0,-2.0,22.0,-6.0,-0.06451416015625,-0.40460205078125,-0.85809326171875,-0.3096923828125,-0.1748046875,0.73046875,0.646484375,1.6875,-8.0625,2.125
1.1399999999999977,-2.0,3.0,9.0,24.0,17.0,-1.0,2.0,-1.0,-0.0660400390625,-0.40460205078125,-0.85772705078125,-0.310302734375,-0.16162109375,0.72705078125,0.650390625,3.0,-10.4375,1.25
1.1449999999999976,-1.0,-5.0,12.0,26.0,21.0,0.0,-18.0,-4.0,-0.06817626953125,-0.4049072265625,-0.85711669921875,-0.3111572265625,-0.14306640625,0.72412109375,0.64599609375,6.0,-12.6875,0.0625
1.1499999999999975,-2.0,-3.0,-5.0,9.0,9.0,-1.0,-5.0,0.0,-0.06817626953125,-0.4049072265625,-0.85711669921875,-0.3111572265625,-0.14306640625,0.72412109375,0.64599609375,6.0,-12.6875,0.0625
1.1549999999999974,0.0,-11.0,-18.0,15.0,8.0,2.0,-14.0,-1.0,-0.0697021484375,-0.4052734375,-0.85675048828125,-0.3115234375,-0.134765625,0.70947265625,0.646484375,5.6875,-7.8125,1.25
1.1599999999999973,0.0,-11.0,-18.0,15.0,8.0,2.0,-14.0,-1.0,-0.0697021484375,-0.4052734375,-0.85675048828125,-0.3115234375,-0.134765625,0.70947265625,0.646484375,5.6875,-7.8125,1.25
1.1649999999999971,4.0,3.0,3.0,3.0,9.0,-1.0,2.0,0.0,-0.0697021484375,-0.4052734375,-0.85675048828125,-0.3115234375,-0.134765625,0.70947265625,0.646484375,5.6875,-7.8125,1.25
1.169999999999997,2.0,0.0,-3.0,-4.0,38.0,3.0,12.0,44.0,-0.0703125,-0.40594482421875,-0.8564453125,-0.311279296875,-0.1513671875,0.7158203125,0.63232421875,4.875,-2.625,2.75
1.174999999999997,-2.0,-4.0,-10.0,-27.0,-28.0,-15.0,-6.0,4.0,-0.0703125,-0.40594482421875,-0.8564453125,-0.311279296875,-0.1513671875,0.7158203125,0.63232421875,4.875,-2.625,2.75
1.1799999999999968,-3.0,-4.0,3.0,21.0,44.0,3.0,0.0,-5.0,-0.07080078125,-0.40692138671875,-0.85595703125,-0.31121826171875,-0.1650390625,0.73583984375,0.64794921875,6.25,-2.5,2.0
1.1849999999999967,-3.0,-4.0,3.0,21.0,44.0,3.0,0.0,-5.0,-0.07080078125,-0.40692138671875,-0.85595703125,-0.31121826171875,-0.1650390625,0.73583984375,0.64794921875,6.25,-2.5,2.0
1.1899999999999966,2.0,2.0,4.0,47.0,72.0,6.0,3.0,7.0,-0.07122802734375,-0.4073486328125,-0.8555908203125,-0.31146240234375,-0.16357421875,0.72265625,0.6435546875,3.875,-3.625,1.0
1.1949999999999965,-6.0,6.0,44.0,-34.0,-32.0,-5.0,2.0,-6.0,-0.07122802734375,-0.4073486328125,-0.8555908203125,-0.31146240234375,-0.16357421875,0.72265625,0.6435546875,3.875,-3.625,1.0
1.1999999999999964,2.0,4.0,-8.0,7.0,-43.0,2.0,3.0,-3.0,-0.07196044921875,-0.40753173828125,-0.8553466796875,-0.31182861328125,-0.1455078125,0.72265625,0.64697265625,3.0,-5.125,0.125
1.2049999999999963,2.0,4.0,-8.0,7.0,-43.0,2.0,3.0,-3.0,-0.07232666015625,-0.4075927734375,-0.8551025390625,-0.3123779296875,-0.14404296875,0.7109375,0.64306640625,1.875,-3.5,-1.25
1.2099999999999962,-4.0,-4.0,-6.0,-1.0,-25.0,-1.0,-4.0,-11.0,-0.07232666015625,-0.4075927734375,-0.8551025390625,-0.3123779296875,-0.14404296875,0.7109375,0.64306640625,1.875,-3.5,-1.25
1.214999999999996,-4.0,-4.0,-6.0,-1.0,-25.0,-1.0,-4.0,-11.0,-0.07232666015625,-0.4075927734375,-0.8551025390625,-0.3123779296875,-0.14404296875,0.7109375,0.64306640625,1.875,-3.5,-1.25
1.219999999999996,-4.0,-4.0,-6.0,-1.0,-25.0,-1.0,-4.0,-11.0,-0.07232666015625,-0.4075927734375,-0.8551025390625,-0.3123779296875,-0.14404296875,0.7109375,0.64306640625,1.875,-3.5,-1.25
1.2249999999999959,0.0,0.0,-9.0,-5.0,-24.0,-3.0,-6.0,2.0,-0.07232666015625,-0.4080810546875,-0.854736328125,-0.3126220703125,-0.1494140625,0.72705078125,0.64892578125,3.3125,-1.125,-1.0625
1.2299999999999958,0.0,0.0,-9.0,-5.0,-24.0,-3.0,-6.0,2.0,-0.07220458984375,-0.40887451171875,-0.85430908203125,-0.3128662109375,-0.15771484375,0.734375,0.6435546875,4.5625,0.125,-1.25
1.2349999999999957,-4.0,-7.0,-10.0,-41.0,-37.0,-16.0,-2.0,-4.0,-0.07220458984375,-0.40887451171875,-0.85430908203125,-0.3128662109375,-0.15771484375,0.734375,0.6435546875,4.5625,0.125,-1.25
1.2399999999999956,-4.0,-7.0,-10.0,-41.0,-37.0,-16.0,-2.0,-4.0,-0.072021484375,-0.40936279296875,-0.85400390625,-0.31317138671875,-0.1552734375,0.73779296875,0.63671875,2.0625,-0.1875,-1.375
1.2449999999999954,-4.0,-7.0,-10.0,-41.0,-37.0,-16.0,-2.0,-4.0,-0.072021484375,-0.40936279296875,-0.85400390625,-0.31317138671875,-0.1552734375,0.73779296875,0.63671875,2.0625,-0.1875,-1.375
1.2499999999999953,-4.0,-12.0,1.0,-16.0,-12.0,-7.0,-6.0,-10.0,-0.07183837890625,-0.40997314453125,-0.85357666015625,-0.31341552734375,-0.150390625,0.7412109375,0.6328125,2.5625,0.3125,-1.75
1.2549999999999952,0.0,4.0,-3.0,21.0,52.0,3.0,3.0,-17.0,-0.07159423828125,-0.41046142578125,-0.853271484375,-0.313720703125,-0.1533203125,0.73583984375,0.634765625,2.0625,0.3125,-2.125
1.2599999999999951,-7.0,-5.0,-10.0,-4.0,9.0,-5.0,-1.0,-7.0,-0.07159423828125,-0.41046142578125,-0.853271484375,-0.313720703125,-0.1533203125,0.73583984375,0.634765625,2.0625,0.3125,-2.125
1.264999999999995,-7.0,-5.0,-10.0,-4.0,9.0,-5.0,-1.0,-7.0,-0.07159423828125,-0.41046142578125,-0.853271484375,-0.313720703125,-0.1533203125,0.73583984375,0.634765625,2.0625,0.3125,-2.125
1.269999999999995,-7.0,-5.0,-10.0,-4.0,9.0,-5.0,-1.0,-7.0,-0.07110595703125,-0.41094970703125,-0.85308837890625,-0.31378173828125,-0.1474609375,0.7353515625,0.63525390625,1.25,2.25,-1.375
1.2749999999999948,-7.0,-5.0,-10.0,-4.0,9.0,-5.0,-1.0,-7.0,-0.07110595703125,-0.41094970703125,-0.85308837890625,-0.31378173828125,-0.1474609375,0.7353515625,0.63525390625,1.25,2.25,-1.375
1.2799999999999947,-1.0,1.0,8.0,8.0,25.0,-2.0,-4.0,1.0,-0.06976318359375,-0.412109375,-0.852783203125,-0.3133544921875,-0.1494140625,0.73583984375,0.63671875,3.375,3.8125,-0.75
1.2849999999999946,-2.0,2.0,-5.0,-4.0,-34.0,-3.0,0.0,-8.0,-0.06976318359375,-0.412109375,-0.852783203125,-0.3133544921875,-0.1494140625,0.73583984375,0.63671875,3.375,3.8125,-0.75
1.2899999999999945,-2.0,2.0,-5.0,-4.0,-34.0,-3.0,0.0,-8.0,-0.069091796875,-0.41278076171875,-0.85247802734375,-0.3133544921875,-0.14892578125,0.73095703125,0.63720703125,3.0,3.875,-1.6875
1.2949999999999944,-4.0,-6.0,-15.0,-23.0,-38.0,-9.0,-7.0,1.0,-0.069091796875,-0.41278076171875,-0.85247802734375,-0.3133544921875,-0.14892578125,0.73095703125,0.63720703125,3.0,3.875,-1.6875
1.2999999999999943,-1.0,4.0,10.0,10.0,11.0,-1.0,5.0,5.0,-0.0684814453125,-0.413330078125,-0.852294921875,-0.313232421875,-0.14990234375,0.73876953125,0.642578125,2.125,3.625,-1.1875
1.3049999999999942,-3.0,2.0,-1.0,17.0,29.0,6.0,1.0,5.0,-0.06768798828125,-0.4136962890625,-0.8521728515625,-0.313232421875,-0.1474609375,0.72509765625,0.642578125,1.3125,4.0,-1.8125
1.309999999999994,-1.0,2.0,9.0,23.0,39.0,6.0,2.0,6.0,-0.06768798828125,-0.4136962890625,-0.8521728515625,-0.313232421875,-0.1474609375,0.72509765625,0.642578125,1.3125,4.0,-1.8125
1.314999999999994,0.0,3.0,3.0,19.0,45.0,2.0,1.0,5.0,-0.0670166015625,-0.41412353515625,-0.85198974609375,-0.31341552734375,-0.15576171875,0.72802734375,0.64501953125,1.75,3.25,-2.1875
1.3199999999999938,-2.0,-8.0,-6.0,-27.0,-22.0,-6.0,-1.0,4.0,-0.0665283203125,-0.41473388671875,-0.8516845703125,-0.31353759765625,-0.15087890625,0.724609375,0.65087890625,4.3125,3.0,-2.3125
1.3249999999999937,0.0,-4.0,-22.0,9.0,63.0,8.0,2.0,-2.0,-0.0665283203125,-0.41473388671875,-0.8516845703125,-0.31353759765625,-0.15087890625,0.724609375,0.65087890625,4.3125,3.0,-2.3125
1.3299999999999936,2.0,-1.0,2.0,7.0,27.0,0.0,-3.0,9.0,-0.0665283203125,-0.41473388671875,-0.8516845703125,-0.31353759765625,-0.15087890625,0.724609375,0.65087890625,4.3125,3.0,-2.3125
1.3349999999999935,2.0,-1.0,2.0,7.0,27.0,0.0,-3.0,9.0,-0.0660400390625,-0.4154052734375,-0.851318359375,-0.313720703125,-0.1552734375,0.744140625,0.64990234375,3.6875,2.5,-2.4375
1.3399999999999934,2.0,-1.0,2.0,7.0,27.0,0.0,-3.0,9.0,-0.0660400390625,-0.4154052734375,-0.851318359375,-0.313720703125,-0.1552734375,0.744140625,0.64990234375,3.6875,2.5,-2.4375
1.3449999999999933,0.0,5.0,13.0,6.0,-7.0,-4.0,-2.0,6.0,-0.06561279296875,-0.4156494140625,-0.85113525390625,-0.31396484375,-0.15771484375,0.73779296875,0.646484375,1.125,1.6875,-2.3125
1.3499999999999932,2.0,1.0,7.0,32.0,57.0,16.0,6.0,6.0,-0.0654296875,-0.41583251953125,-0.8509521484375,-0.3143310546875,-0.15283203125,0.73828125,0.66015625,2.0625,0.3125,-2.25
1.354999999999993,2.0,1.0,7.0,32.0,57.0,16.0,6.0,6.0,-0.0654296875,-0.41583251953125,-0.8509521484375,-0.3143310546875,-0.15283203125,0.73828125,0.66015625,2.0625,0.3125,-2.25
1.359999999999993,-3.0,10.0,6.0,-7.0,22.0,-2.0,-1.0,0.0,-0.0654296875,-0.41583251953125,-0.8509521484375,-0.3143310546875,-0.15283203125,0.73828125,0.66015625,2.0625,0.3125,-2.25
1.3649999999999929,1.0,-5.0,-11.0,-7.0,5.0,0.0,-4.0,-8.0,-0.06524658203125,-0.4161376953125,-0.8507080078125,-0.31463623046875,-0.14794921875,0.736328125,0.64697265625,2.3125,0.75,-2.5625
1.3699999999999928,1.0,-5.0,-11.0,-7.0,5.0,0.0,-4.0,-8.0,-0.06524658203125,-0.4161376953125,-0.8507080078125,-0.31463623046875,-0.14794921875,0.736328125,0.64697265625,2.3125,0.75,-2.5625
1.3749999999999927,-3.0,-5.0,-3.0,1.0,-10.0,-3.0,-3.0,-3.0,-0.06451416015625,-0.416748046875,-0.8502197265625,-0.31524658203125,-0.1630859375,0.736328125,0.6337890625,1.125,0.625,-2.3125
1.3799999999999926,0.0,7.0,-4.0,2.0,-22.0,-1.0,-4.0,-5.0,-0.06451416015625,-0.416748046875,-0.8502197265625,-0.31524658203125,-0.1630859375,0.736328125,0.6337890625,1.125,0.625,-2.3125
1.3849999999999925,0.0,7.0,-4.0,2.0,-22.0,-1.0,-4.0,-5.0,-0.06451416015625,-0.416748046875,-0.8502197265625,-0.31524658203125,-0.1630859375,0.736328125,0.6337890625,1.125,0.625,-2.3125
1.3899999999999924,1.0,2.0,-1.0,-3.0,-13.0,3.0,1.0,2.0,-0.06451416015625,-0.416748046875,-0.8502197265625,-0.31524658203125,-0.1630859375,0.736328125,0.6337890625,1.125,0.625,-2.3125
1.3949999999999922,-2.0,-3.0,-8.0,-10.0,-7.0,-5.0,-4.0,-2.0,-0.06439208984375,-0.41693115234375,-0.85003662109375,-0.31549072265625,-0.16015625,0.74267578125,0.64453125,1.3125,-0.0625,-1.375
1.3999999999999921,-3.0,0.0,-8.0,-5.0,-38.0,1.0,-1.0,-3.0,-0.0645751953125,-0.417236328125,-0.84979248046875,-0.31573486328125,-0.1552734375,0.75244140625,0.63818359375,2.125,-1.0625,-1.3125
1.404999999999992,-2.0,-4.0,-4.0,-12.0,-30.0,-4.0,-5.0,-1.0,-0.0645751953125,-0.41741943359375,-0.849609375,-0.3160400390625,-0.158203125,0.74560546875,0.6357421875,0.8125,-0.9375,-1.8125
1.409999999999992,0.0,2.0,4.0,-8.0,9.0,-6.0,-1.0,0.0,-0.0645751953125,-0.41741943359375,-0.849609375,-0.3160400390625,-0.158203125,0.74560546875,0.6357421875,0.8125,-0.9375,-1.8125
1.4149999999999918,-4.0,-3.0,0.0,-1.0,-13.0,-4.0,0.0,-1.0,-0.0645751953125,-0.41741943359375,-0.849609375,-0.3160400390625,-0.158203125,0.74560546875,0.6357421875,0.8125,-0.9375,-1.8125
1.4199999999999917,1.0,4.0,1.0,18.0,16.0,-3.0,0.0,-5.0,-0.06475830078125,-0.41754150390625,-0.84930419921875,-0.31658935546875,-0.15576171875,0.744140625,0.63818359375,-0.1875,-1.5,-0.875
1.4249999999999916,-6.0,0.0,6.0,-10.0,-5.0,-3.0,0.0,-1.0,-0.06475830078125,-0.41754150390625,-0.84930419921875,-0.31658935546875,-0.15576171875,0.744140625,0.63818359375,-0.1875,-1.5,-0.875
1.4299999999999915,-1.0,-1.0,2.0,-13.0,-20.0,-2.0,0.0,4.0,-0.06500244140625,-0.41766357421875,-0.84912109375,-0.31689453125,-0.1572265625,0.74658203125,0.6328125,1.0,-2.0,-1.125
1.4349999999999914,-1.0,-1.0,2.0,-13.0,-20.0,-2.0,0.0,4.0,-0.06500244140625,-0.41766357421875,-0.84912109375,-0.31689453125,-0.1572265625,0.74658203125,0.6328125,1.0,-2.0,-1.125
1.4399999999999913,2.0,6.0,2.0,1.0,37.0,4.0,-2.0,2.0,-0.06500244140625,-0.41766357421875,-0.84912109375,-0.31689453125,-0.1572265625,0.74658203125,0.6328125,1.0,-2.0,-1.125
1.4449999999999912,-2.0,-7.0,-5.0,-24.0,-16.0,0.0,-1.0,-2.0,-0.065185546875,-0.417724609375,-0.84893798828125,-0.3172607421875,-0.1640625,0.73876953125,0.63330078125,1.0625,-2.125,-1.125
1.449999999999991,0.0,-5.0,-4.0,3.0,-14.0,-2.0,1.0,-2.0,-0.06536865234375,-0.41778564453125,-0.84881591796875,-0.31744384765625,-0.15576171875,0.7431640625,0.6298828125,0.5625,-1.5,-0.5625
1.454999999999991,-3.0,-8.0,-9.0,5.0,18.0,1.0,-2.0,-4.0,-0.06561279296875,-0.41790771484375,-0.8487548828125,-0.3175048828125,-0.15478515625,0.7451171875,0.62353515625,0.375,-1.25,0.125
1.4599999999999909,-3.0,-8.0,-9.0,5.0,18.0,1.0,-2.0,-4.0,-0.06561279296875,-0.41790771484375,-0.8487548828125,-0.3175048828125,-0.15478515625,0.7451171875,0.62353515625,0.375,-1.25,0.125
1.4649999999999908,-1.0,4.0,-8.0,9.0,33.0,-1.0,-2.0,-1.0,-0.0657958984375,-0.41790771484375,-0.84869384765625,-0.317626953125,-0.1591796875,0.73681640625,0.63330078125,0.6875,-1.625,0.1875
1.4699999999999906,-1.0,4.0,-8.0,9.0,33.0,-1.0,-2.0,-1.0,-0.0657958984375,-0.41790771484375,-0.84869384765625,-0.317626953125,-0.1591796875,0.73681640625,0.63330078125,0.6875,-1.625,0.1875
1.4749999999999905,1.0,0.0,16.0,6.0,-5.0,0.0,-1.0,2.0,-0.066162109375,-0.41839599609375,-0.848388671875,-0.31768798828125,-0.15234375,0.75146484375,0.62255859375,2.8125,-1.5625,-0.1875
1.4799999999999904,2.0,14.0,2.0,-14.0,-9.0,-2.0,-2.0,-1.0,-0.066162109375,-0.41839599609375,-0.848388671875,-0.31768798828125,-0.15234375,0.75146484375,0.62255859375,2.8125,-1.5625,-0.1875
1.4849999999999903,3.0,2.0,10.0,35.0,55.0,18.0,7.0,2.0,-0.066162109375,-0.41839599609375,-0.848388671875,-0.31768798828125,-0.15234375,0.75146484375,0.62255859375,2.8125,-1.5625,-0.1875
1.4899999999999902,3.0,2.0,10.0,35.0,55.0,18.0,7.0,2.0,-0.0662841796875,-0.41839599609375,-0.8482666015625,-0.3179931640625,-0.15869140625,0.7470703125,0.6298828125,-0.1875,-1.6875,-1.4375
1.4949999999999901,-2.0,-7.0,-9.0,1.0,-20.0,-4.0,0.0,-3.0,-0.0662841796875,-0.41839599609375,-0.8482666015625,-0.3179931640625,-0.15869140625,0.7470703125,0.6298828125,-0.1875,-1.6875,-1.4375
1.49999999999999,-1.0,2.0,-15.0,-9.0,-21.0,-7.0,-3.0,0.0,-0.0662841796875,-0.41839599609375,-0.8482666015625,-0.3179931640625,-0.15869140625,0.7470703125,0.6298828125,-0.1875,-1.6875,-1.4375
1.50499999999999,-1.0,-3.0,2.0,-3.0,16.0,-2.0,-2.0,-7.0,-0.066162109375,-0.4183349609375,-0.84820556640625,-0.31829833984375,-0.15966796875,0.74072265625,0.630859375,-0.5,-0.75,-1.25
1.5099999999999898,-3.0,-9.0,-19.0,-24.0,-12.0,-6.0,-3.0,-2.0,-0.066162109375,-0.4183349609375,-0.84820556640625,-0.31829833984375,-0.1552734375,0.73486328125,0.6298828125,-0.25,0.875,-1.0
1.5149999999999897,-3.0,-4.0,5.0,-13.0,-45.0,-9.0,-3.0,-2.0,-0.0660400390625,-0.41864013671875,-0.8480224609375,-0.318359375,-0.16845703125,0.73779296875,0.62890625,1.75,0.375,-0.0625
1.5199999999999896,-1.0,3.0,6.0,10.0,7.0,0.0,0.0,-1.0,-0.0660400390625,-0.41864013671875,-0.8480224609375,-0.318359375,-0.16845703125,0.73779296875,0.62890625,1.75,0.375,-0.0625
1.5249999999999895,-1.0,-4.0,7.0,-16.0,-36.0,-4.0,1.0,-2.0,-0.06610107421875,-0.41900634765625,-0.84783935546875,-0.318359375,-0.16650390625,0.74853515625,0.63427734375,2.125,-0.5625,0.125
1.5299999999999894,-5.0,3.0,1.0,-9.0,-9.0,-8.0,-5.0,-2.0,-0.06610107421875,-0.41900634765625,-0.84783935546875,-0.318359375,-0.16650390625,0.74853515625,0.63427734375,2.125,-0.5625,0.125
1.5349999999999893,-5.0,3.0,1.0,-9.0,-9.0,-8.0,-5.0,-2.0,-0.06610107421875,-0.41900634765625,-0.8477783203125,-0.318359375,-0.15673828125,0.74169921875,0.62939453125,0.75,-0.5625,0.1875
1.5399999999999892,-1.0,-2.0,-1.0,-11.0,8.0,0.0,1.0,0.0,-0.06610107421875,-0.41900634765625,-0.8477783203125,-0.318359375,-0.15673828125,0.74169921875,0.62939453125,0.75,-0.5625,0.1875
1.544999999999989,-1.0,-2.0,-1.0,-11.0,8.0,0.0,1.0,0.0,-0.06622314453125,-0.4193115234375,-0.84765625,-0.3184814453125,-0.16259765625,0.74365234375,0.6240234375,1.4375,-1.125,-0.1875
1.549999999999989,-2.0,4.0,0.0,-2.0,28.0,-2.0,-2.0,-2.0,-0.06622314453125,-0.4193115234375,-0.84759521484375,-0.3184814453125,-0.16162109375,0.74365234375,0.625,0.5625,-0.875,0.125
1.5549999999999888,-2.0,-1.0,-7.0,-3.0,-15.0,-2.0,-3.0,0.0,-0.06622314453125,-0.4193115234375,-0.84759521484375,-0.3184814453125,-0.16162109375,0.74365234375,0.625,0.5625,-0.875,0.125
1.5599999999999887,-2.0,-1.0,-7.0,-3.0,-15.0,-2.0,-3.0,0.0,-0.06622314453125,-0.4193115234375,-0.84759521484375,-0.31854248046875,-0.15625,0.73583984375,0.62841796875,0.375,-0.625,-0.4375
1.5649999999999886,-2.0,-1.0,-7.0,-3.0,-15.0,-2.0,-3.0,0.0,-0.06622314453125,-0.4193115234375,-0.84759521484375,-0.31854248046875,-0.15625,0.73583984375,0.62841796875,0.375,-0.625,-0.4375
1.5699999999999885,1.0,4.0,-2.0,-7.0,-24.0,-2.0,-2.0,-1.0,-0.06622314453125,-0.4193115234375,-0.84759521484375,-0.31854248046875,-0.15625,0.73583984375,0.62841796875,0.375,-0.625,-0.4375
1.5749999999999884,1.0,4.0,-2.0,-7.0,-24.0,-2.0,-2.0,-1.0,-0.06622314453125,-0.4193115234375,-0.84759521484375,-0.31854248046875,-0.15625,0.73583984375,0.62841796875,0.375,-0.625,-0.4375
1.5799999999999883,-1.0,-7.0,-4.0,2.0,13.0,1.0,-1.0,-2.0,-0.066162109375,-0.4193115234375,-0.84759521484375,-0.31854248046875,-0.16650390625,0.7392578125,0.62890625,0.1875,-0.375,-0.375
1.5849999999999882,-1.0,-7.0,-4.0,2.0,13.0,1.0,-1.0,-2.0,-0.066162109375,-0.4193115234375,-0.84759521484375,-0.31854248046875,-0.16259765625,0.7431640625,0.6318359375,0.3125,-0.0625,-0.4375
1.589999999999988,-1.0,0.0,-2.0,3.0,-8.0,-2.0,0.0,1.0,-0.06610107421875,-0.4193115234375,-0.84759521484375,-0.31854248046875,-0.16455078125,0.736328125,0.630859375,-0.9375,0.0625,-0.75
1.594999999999988,2.0,-14.0,-5.0,35.0,45.0,8.0,2.0,-3.0,-0.06585693359375,-0.4190673828125,-0.84765625,-0.31884765625,-0.1611328125,0.73681640625,0.63623046875,-1.5625,-0.125,-1.4375
1.5999999999999879,0.0,1.0,2.0,-18.0,-24.0,-2.0,-2.0,-1.0,-0.06585693359375,-0.4190673828125,-0.84765625,-0.31884765625,-0.1611328125,0.73681640625,0.63623046875,-1.5625,-0.125,-1.4375
1.6049999999999878,0.0,1.0,2.0,-18.0,-24.0,-2.0,-2.0,-1.0,-0.06585693359375,-0.4190673828125,-0.84765625,-0.31884765625,-0.1611328125,0.73681640625,0.63623046875,-1.5625,-0.125,-1.4375
1.6099999999999877,1.0,1.0,4.0,0.0,-25.0,0.0,0.0,2.0,-0.065673828125,-0.419189453125,-0.847412109375,-0.3193359375,-0.1640625,0.7421875,0.6318359375,0.625,-0.625,-2.75
1.6149999999999876,1.0,1.0,4.0,0.0,-25.0,0.0,0.0,2.0,-0.06524658203125,-0.4193115234375,-0.84716796875,-0.3199462890625,-0.1650390625,0.7431640625,0.62744140625,-0.0625,0.1875,-4.3125
1.6199999999999875,0.0,0.0,-2.0,-21.0,-22.0,-4.0,-3.0,-1.0,-0.06524658203125,-0.4193115234375,-0.84716796875,-0.3199462890625,-0.1650390625,0.7431640625,0.62744140625,-0.0625,0.1875,-4.3125
1.6249999999999873,1.0,1.0,-8.0,-1.0,10.0,4.0,1.0,-1.0,-0.06463623046875,-0.41925048828125,-0.84698486328125,-0.320556640625,-0.17041015625,0.74267578125,0.6298828125,-1.25,0.6875,-4.0
1.6299999999999872,2.0,1.0,1.0,10.0,20.0,2.0,0.0,0.0,-0.06463623046875,-0.41925048828125,-0.84698486328125,-0.320556640625,-0.17041015625,0.74267578125,0.6298828125,-1.25,0.6875,-4.0
1.6349999999999871,0.0,3.0,14.0,36.0,64.0,8.0,0.0,-1.0,-0.06463623046875,-0.41925048828125,-0.84698486328125,-0.320556640625,-0.17041015625,0.74267578125,0.6298828125,-1.25,0.6875,-4.0
1.639999999999987,-3.0,-1.0,20.0,-12.0,-24.0,-5.0,-1.0,-2.0,-0.0640869140625,-0.41937255859375,-0.8466796875,-0.32122802734375,-0.1767578125,0.7373046875,0.62939453125,0.125,0.4375,-4.0625
1.644999999999987,-1.0,2.0,1.0,6.0,14.0,1.0,0.0,-1.0,-0.06378173828125,-0.419677734375,-0.846435546875,-0.3216552734375,-0.18115234375,0.7470703125,0.63037109375,0.875,-0.1875,-2.4375
1.6499999999999868,-2.0,-6.0,-11.0,-9.0,-12.0,-4.0,-3.0,-4.0,-0.06378173828125,-0.4197998046875,-0.84619140625,-0.3221435546875,-0.17333984375,0.74267578125,0.63916015625,1.5,-1.4375,-2.4375
1.6549999999999867,0.0,13.0,7.0,-4.0,6.0,-3.0,-1.0,-5.0,-0.06378173828125,-0.4197998046875,-0.84619140625,-0.3221435546875,-0.17333984375,0.74267578125,0.63916015625,1.5,-1.4375,-2.4375
1.6599999999999866,0.0,13.0,7.0,-4.0,6.0,-3.0,-1.0,-5.0,-0.06402587890625,-0.41998291015625,-0.84588623046875,-0.32269287109375,-0.17236328125,0.7421875,0.630859375,1.875,-2.8125,-1.9375
1.6649999999999865,0.0,13.0,7.0,-4.0,6.0,-3.0,-1.0,-5.0,-0.06402587890625,-0.41998291015625,-0.84588623046875,-0.32269287109375,-0.17236328125,0.7421875,0.630859375,1.875,-2.8125,-1.9375
1.6699999999999864,-1.0,-13.0,-17.0,-19.0,-36.0,-3.0,0.0,1.0,-0.0643310546875,-0.4200439453125,-0.8455810546875,-0.32318115234375,-0.16796875,0.74609375,0.64111328125,1.75,-3.0,-1.875
1.6749999999999863,-1.0,1.0,12.0,-8.0,-2.0,-1.0,0.0,-1.0,-0.06463623046875,-0.420166015625,-0.84539794921875,-0.3236083984375,-0.171875,0.74462890625,0.63525390625,1.5,-2.9375,-1.125
1.6799999999999862,1.0,7.0,3.0,0.0,13.0,1.0,-1.0,-1.0,-0.06463623046875,-0.420166015625,-0.84539794921875,-0.3236083984375,-0.171875,0.74462890625,0.63525390625,1.5,-2.9375,-1.125
1.684999999999986,1.0,7.0,3.0,0.0,13.0,1.0,-1.0,-1.0,-0.06494140625,-0.420166015625,-0.84527587890625,-0.3238525390625,-0.17138671875,0.7451171875,0.63232421875,0.875,-2.375,-0.125
1.689999999999986,1.0,7.0,3.0,0.0,13.0,1.0,-1.0,-1.0,-0.06494140625,-0.420166015625,-0.84527587890625,-0.3238525390625,-0.17138671875,0.7451171875,0.63232421875,0.875,-2.375,-0.125
1.6949999999999859,-3.0,-6.0,1.0,11.0,23.0,-2.0,-3.0,-1.0,-0.065185546875,-0.42010498046875,-0.84521484375,-0.323974609375,-0.1669921875,0.7412109375,0.625,-0.125,-1.875,0.1875
1.6999999999999857,-3.0,-6.0,1.0,11.0,23.0,-2.0,-3.0,-1.0,-0.0653076171875,-0.42010498046875,-0.84515380859375,-0.3240966796875,-0.173828125,0.744140625,0.63525390625,0.375,-1.875,0.25
1.7049999999999856,-2.0,-7.0,-14.0,8.0,-6.0,1.0,-2.0,-1.0,-0.0653076171875,-0.42010498046875,-0.84515380859375,-0.3240966796875,-0.173828125,0.744140625,0.63525390625,0.375,-1.875,0.25
1.7099999999999855,0.0,-9.0,-9.0,4.0,8.0,-2.0,-2.0,-2.0,-0.0653076171875,-0.42010498046875,-0.84515380859375,-0.3240966796875,-0.173828125,0.744140625,0.63525390625,0.375,-1.875,0.25
1.7149999999999854,-1.0,2.0,-6.0,-5.0,-20.0,-2.0,1.0,-1.0,-0.0657958984375,-0.420166015625,-0.844970703125,-0.32440185546875,-0.173828125,0.74755859375,0.63232421875,0.5,-2.125,0.5
1.7199999999999853,-2.0,-1.0,-4.0,-9.0,-5.0,-5.0,-1.0,-1.0,-0.0657958984375,-0.420166015625,-0.844970703125,-0.32440185546875,-0.173828125,0.74755859375,0.63232421875,0.5,-2.125,0.5
1.7249999999999852,-2.0,-1.0,-4.0,-9.0,-5.0,-5.0,-1.0,-1.0,-0.06610107421875,-0.42022705078125,-0.8448486328125,-0.3245849609375,-0.16845703125,0.7412109375,0.62353515625,1.125,-2.125,0.125
1.729999999999985,-4.0,0.0,12.0,7.0,27.0,5.0,0.0,-1.0,-0.06610107421875,-0.42022705078125,-0.8448486328125,-0.3245849609375,-0.16845703125,0.7412109375,0.62353515625,1.125,-2.125,0.125
1.734999999999985,-1.0,2.0,10.0,-17.0,-31.0,-4.0,-4.0,-2.0,-0.06610107421875,-0.42022705078125,-0.8448486328125,-0.3245849609375,-0.16845703125,0.7412109375,0.62353515625,1.125,-2.125,0.125
1.739999999999985,-1.0,2.0,10.0,-17.0,-31.0,-4.0,-4.0,-2.0,-0.06610107421875,-0.42022705078125,-0.8448486328125,-0.3245849609375,-0.16845703125,0.7412109375,0.62353515625,1.125,-2.125,0.125
1.7449999999999848,0.0,-14.0,-19.0,-6.0,-10.0,-2.0,-1.0,0.0,-0.06640625,-0.42041015625,-0.84466552734375,-0.3248291015625,-0.1708984375,0.73779296875,0.62451171875,0.5,-1.3125,0.0
1.7499999999999847,0.0,-3.0,-5.0,12.0,-4.0,-2.0,-2.0,-2.0,-0.06640625,-0.42041015625,-0.84466552734375,-0.3248291015625,-0.166015625,0.7412109375,0.62841796875,-0.5625,-0.6875,-0.125
1.7549999999999846,0.0,-3.0,-5.0,12.0,-4.0,-2.0,-2.0,-2.0,-0.06640625,-0.42041015625,-0.84466552734375,-0.3248291015625,-0.166015625,0.7412109375,0.62841796875,-0.5625,-0.6875,-0.125
1.7599999999999845,0.0,-3.0,-5.0,12.0,-4.0,-2.0,-2.0,-2.0,-0.06640625,-0.42041015625,-0.84466552734375,-0.3248291015625,-0.166015625,0.7412109375,0.62841796875,-0.5625,-0.6875,-0.125
1.7649999999999844,-1.0,-1.0,2.0,-2.0,6.0,0.0,0.0,0.0,-0.06634521484375,-0.42041015625,-0.84466552734375,-0.3248291015625,-0.1689453125,0.73193359375,0.63427734375,0.8125,-0.8125,-0.3125
1.7699999999999843,-1.0,1.0,-8.0,11.0,10.0,1.0,-2.0,-2.0,-0.06634521484375,-0.42041015625,-0.84466552734375,-0.3248291015625,-0.1689453125,0.73193359375,0.63427734375,0.8125,-0.8125,-0.3125
1.7749999999999841,-2.0,-5.0,-4.0,12.0,30.0,-1.0,-1.0,0.0,-0.06640625,-0.420654296875,-0.844482421875,-0.32501220703125,-0.171875,0.75,0.6259765625,1.375,-1.0,-0.4375
1.779999999999984,-2.0,-2.0,-11.0,-23.0,-34.0,-9.0,-4.0,-4.0,-0.06640625,-0.42071533203125,-0.8443603515625,-0.3251953125,-0.173828125,0.740234375,0.619140625,0.125,-1.125,-0.625
1.784999999999984,0.0,-5.0,-4.0,-1.0,1.0,3.0,-1.0,0.0,-0.06640625,-0.42071533203125,-0.8443603515625,-0.3251953125,-0.173828125,0.740234375,0.619140625,0.125,-1.125,-0.625
1.7899999999999838,0.0,-5.0,-4.0,-1.0,1.0,3.0,-1.0,0.0,-0.06646728515625,-0.4208984375,-0.84417724609375,-0.32537841796875,-0.16748046875,0.74658203125,0.62451171875,1.125,-0.8125,-0.625
1.7949999999999837,0.0,-1.0,16.0,15.0,21.0,-1.0,-1.0,-2.0,-0.06646728515625,-0.4208984375,-0.84417724609375,-0.32537841796875,-0.16748046875,0.74658203125,0.62451171875,1.125,-0.8125,-0.625
1.7999999999999836,0.0,9.0,7.0,-4.0,-37.0,-4.0,-2.0,-2.0,-0.06658935546875,-0.42120361328125,-0.843994140625,-0.3255615234375,-0.171875,0.74609375,0.62109375,1.4375,-1.25,-0.5625
1.8049999999999835,-1.0,6.0,13.0,-2.0,-1.0,-2.0,-1.0,-1.0,-0.0665283203125,-0.42120361328125,-0.84393310546875,-0.3255615234375,-0.1708984375,0.7470703125,0.6298828125,0.875,-0.75,-0.75
1.8099999999999834,-1.0,6.0,13.0,-2.0,-1.0,-2.0,-1.0,-1.0,-0.0665283203125,-0.42120361328125,-0.84393310546875,-0.3255615234375,-0.1708984375,0.7470703125,0.6298828125,0.875,-0.75,-0.75
1.8149999999999833,-2.0,-10.0,-18.0,-5.0,-31.0,0.0,-2.0,0.0,-0.06646728515625,-0.42132568359375,-0.84381103515625,-0.32574462890625,-0.17724609375,0.7392578125,0.63330078125,1.125,-0.4375,-0.5
1.8199999999999832,-2.0,0.0,21.0,-16.0,-14.0,-3.0,-4.0,-3.0,-0.06640625,-0.42156982421875,-0.8436279296875,-0.325927734375,-0.1767578125,0.75048828125,0.6357421875,1.6875,-0.625,-0.625
1.824999999999983,-4.0,-13.0,-14.0,-17.0,-6.0,-6.0,0.0,-1.0,-0.06640625,-0.42156982421875,-0.8436279296875,-0.325927734375,-0.1767578125,0.75048828125,0.6357421875,1.6875,-0.625,-0.625
1.829999999999983,-4.0,-13.0,-14.0,-17.0,-6.0,-6.0,0.0,-1.0,-0.06640625,-0.42156982421875,-0.8436279296875,-0.32598876953125,-0.17578125,0.7490234375,0.62890625,0.625,-0.6875,-0.25
1.8349999999999829,0.0,0.0,0.0,-11.0,1.0,1.0,-2.0,0.0,-0.06640625,-0.42156982421875,-0.8436279296875,-0.32598876953125,-0.17578125,0.7490234375,0.62890625,0.625,-0.6875,-0.25
1.8399999999999828,-1.0,4.0,-16.0,-10.0,-15.0,-1.0,-1.0,-1.0,-0.06634521484375,-0.42156982421875,-0.8436279296875,-0.32598876953125,-0.177734375,0.7314453125,0.63232421875,0.5625,0.25,-0.8125
1.8449999999999827,-1.0,0.0,-8.0,11.0,11.0,0.0,0.0,-2.0,-0.06634521484375,-0.42156982421875,-0.8436279296875,-0.32598876953125,-0.177734375,0.7314453125,0.63232421875,0.5625,0.25,-0.8125
1.8499999999999825,0.0,-3.0,-8.0,-16.0,-9.0,0.0,-1.0,-1.0,-0.06610107421875,-0.42169189453125,-0.84356689453125,-0.32611083984375,-0.18701171875,0.74267578125,0.63525390625,1.0,-0.125,0.125
1.8549999999999824,0.0,-3.0,-8.0,-16.0,-9.0,0.0,-1.0,-1.0,-0.06610107421875,-0.42169189453125,-0.84356689453125,-0.32611083984375,-0.18701171875,0.74267578125,0.63525390625,1.0,-0.125,0.125
1.8599999999999823,0.0,11.0,10.0,8.0,18.0,2.0,0.0,0.0,-0.06610107421875,-0.42169189453125,-0.84356689453125,-0.32611083984375,-0.18701171875,0.74267578125,0.63525390625,1.0,-0.125,0.125
1.8649999999999822,0.0,11.0,10.0,8.0,18.0,2.0,0.0,0.0,-0.0660400390625,-0.421875,-0.84344482421875,-0.326171875,-0.18408203125,0.74169921875,0.6298828125,1.0,-0.5625,0.25
1.8699999999999821,-2.0,-20.0,-25.0,11.0,1.0,-1.0,-3.0,-2.0,-0.0660400390625,-0.4217529296875,-0.8433837890625,-0.32635498046875,-0.17919921875,0.75146484375,0.6357421875,-0.3125,-1.375,-0.0625
1.874999999999982,-2.0,-20.0,-25.0,11.0,1.0,-1.0,-3.0,-2.0,-0.0660400390625,-0.4217529296875,-0.8433837890625,-0.32635498046875,-0.17919921875,0.75146484375,0.6357421875,-0.3125,-1.375,-0.0625
1.879999999999982,3.0,6.0,5.0,2.0,-1.0,4.0,2.0,1.0,-0.06591796875,-0.421630859375,-0.84332275390625,-0.32672119140625,-0.1728515625,0.7333984375,0.630859375,-0.1875,-1.125,-1.5
1.8849999999999818,-3.0,-7.0,-19.0,14.0,7.0,-3.0,-2.0,-1.0,-0.06591796875,-0.421630859375,-0.8431396484375,-0.3272705078125,-0.18115234375,0.73974609375,0.634765625,0.6875,-2.0,-1.9375
1.8899999999999817,-1.0,-2.0,-1.0,-1.0,8.0,1.0,0.0,-1.0,-0.06591796875,-0.421630859375,-0.8431396484375,-0.3272705078125,-0.18115234375,0.73974609375,0.634765625,0.6875,-2.0,-1.9375
1.8949999999999816,-1.0,-2.0,-1.0,-1.0,8.0,1.0,0.0,-1.0,-0.06585693359375,-0.421630859375,-0.8428955078125,-0.32781982421875,-0.1826171875,0.7412109375,0.63427734375,0.6875,-2.125,-2.3125
1.8999999999999815,1.0,3.0,0.0,-7.0,-20.0,1.0,0.0,-1.0,-0.06585693359375,-0.421630859375,-0.8428955078125,-0.32781982421875,-0.1826171875,0.7412109375,0.63427734375,0.6875,-2.125,-2.3125
1.9049999999999814,-2.0,4.0,1.0,-12.0,-28.0,-2.0,-1.0,-2.0,-0.06597900390625,-0.421630859375,-0.84271240234375,-0.32843017578125,-0.17822265625,0.73876953125,0.6318359375,0.9375,-2.5625,-2.4375
1.9099999999999813,-1.0,-7.0,-4.0,-5.0,-8.0,0.0,1.0,0.0,-0.06597900390625,-0.421630859375,-0.84271240234375,-0.32843017578125,-0.17822265625,0.73876953125,0.6318359375,0.9375,-2.5625,-2.4375
1.9149999999999812,-2.0,0.0,3.0,-3.0,10.0,-4.0,-2.0,-1.0,-0.0660400390625,-0.42169189453125,-0.84234619140625,-0.32916259765625,-0.177734375,0.7421875,0.62744140625,1.25,-2.5625,-3.1875
1.919999999999981,-1.0,-7.0,-8.0,-18.0,-2.0,-2.0,0.0,0.0,-0.066162109375,-0.42169189453125,-0.84210205078125,-0.32989501953125,-0.171875,0.74853515625,0.62353515625,-0.125,-2.9375,-3.4375
1.924999999999981,-1.0,1.0,9.0,-5.0,-6.0,2.0,0.0,0.0,-0.06610107421875,-0.42138671875,-0.8419189453125,-0.33074951171875,-0.17333984375,0.7431640625,0.62158203125,-1.6875,-3.0,-3.9375
1.9299999999999808,-1.0,1.0,9.0,-5.0,-6.0,2.0,0.0,0.0,-0.06610107421875,-0.42138671875,-0.8419189453125,-0.33074951171875,-0.17333984375,0.7431640625,0.62158203125,-1.6875,-3.0,-3.9375
1.9349999999999807,-1.0,-2.0,-6.0,-2.0,-15.0,-1.0,1.0,-1.0,-0.066162109375,-0.42132568359375,-0.84161376953125,-0.33154296875,-0.1728515625,0.7451171875,0.6181640625,-0.5,-2.8125,-4.0625
1.9399999999999806,3.0,18.0,37.0,19.0,73.0,5.0,0.0,-1.0,-0.0662841796875,-0.4212646484375,-0.84136962890625,-0.33221435546875,-0.16796875,0.75634765625,0.62353515625,-0.4375,-2.6875,-3.4375
1.9449999999999805,3.0,18.0,37.0,19.0,73.0,5.0,0.0,-1.0,-0.0662841796875,-0.4212646484375,-0.84136962890625,-0.33221435546875,-0.16796875,0.75634765625,0.62353515625,-0.4375,-2.6875,-3.4375
1.9499999999999804,-1.0,-8.0,-7.0,2.0,-9.0,-1.0,-2.0,-1.0,-0.06640625,-0.42120361328125,-0.84112548828125,-0.3328857421875,-0.16650390625,0.75927734375,0.62109375,-1.0,-2.4375,-3.75
1.9549999999999803,-1.0,-2.0,-2.0,2.0,-31.0,-1.0,-1.0,-3.0,-0.06634521484375,-0.42108154296875,-0.84088134765625,-0.33355712890625,-0.17431640625,0.74169921875,0.6142578125,-1.0,-1.9375,-3.4375
1.9599999999999802,-1.0,4.0,3.0,9.0,12.0,1.0,1.0,-2.0,-0.0665283203125,-0.42144775390625,-0.84051513671875,-0.33404541015625,-0.17431640625,0.7509765625,0.61181640625,1.4375,-2.1875,-2.375
1.96499999999998,-1.0,4.0,3.0,9.0,12.0,1.0,1.0,-2.0,-0.0665283203125,-0.42144775390625,-0.84051513671875,-0.33404541015625,-0.17431640625,0.7509765625,0.61181640625,1.4375,-2.1875,-2.375
1.96999999999998,0.0,1.0,-6.0,-7.0,21.0,-2.0,-2.0,-1.0,-0.0665283203125,-0.42144775390625,-0.84051513671875,-0.33404541015625,-0.17431640625,0.7509765625,0.61181640625,1.4375,-2.1875,-2.375
1.9749999999999799,0.0,1.0,-6.0,-7.0,21.0,-2.0,-2.0,-1.0,-0.06683349609375,-0.4217529296875,-0.8402099609375,-0.3343505859375,-0.18017578125,0.7568359375,0.60693359375,1.125,-2.5,-1.0
1.9799999999999798,-3.0,-9.0,-14.0,-6.0,-31.0,-1.0,0.0,-1.0,-0.0672607421875,-0.42193603515625,-0.84002685546875,-0.33453369140625,-0.17333984375,0.7529296875,0.61328125,0.9375,-2.875,-0.1875
1.9849999999999797,-1.0,-4.0,10.0,0.0,6.0,-1.0,-2.0,1.0,-0.06781005859375,-0.42218017578125,-0.83978271484375,-0.334716796875,-0.1767578125,0.7607421875,0.61962890625,1.75,-3.0,0.0625
1.9899999999999796,-1.0,-4.0,10.0,0.0,6.0,-1.0,-2.0,1.0,-0.06781005859375,-0.42218017578125,-0.83978271484375,-0.334716796875,-0.1767578125,0.7607421875,0.61962890625,1.75,-3.0,0.0625
1.9949999999999795,1.0,-2.0,-8.0,15.0,9.0,1.0,0.0,1.0,-0.0682373046875,-0.42230224609375,-0.839599609375,-0.33489990234375,-0.17236328125,0.755859375,0.62646484375,1.3125,-2.6875,0.1875
1.9999999999999793,-3.0,0.0,-6.0,-9.0,-13.0,-3.0,-2.0,-3.0,-0.068603515625,-0.42218017578125,-0.83953857421875,-0.3350830078125,-0.17431640625,0.740234375,0.63818359375,1.0625,-2.875,0.3125
2.0049999999999795,1.0,10.0,14.0,9.0,16.0,-1.0,-1.0,-3.0,-0.068603515625,-0.42218017578125,-0.83953857421875,-0.3350830078125,-0.17431640625,0.740234375,0.63818359375,1.0625,-2.875,0.3125
2.0099999999999794,-2.0,-3.0,8.0,3.0,20.0,-2.0,-1.0,0.0,-0.06915283203125,-0.42242431640625,-0.83935546875,-0.33526611328125,-0.16943359375,0.74462890625,0.63525390625,3.0,-2.625,0.25
2.0149999999999793,-2.0,-3.0,8.0,3.0,20.0,-2.0,-1.0,0.0,-0.06915283203125,-0.42242431640625,-0.83935546875,-0.33526611328125,-0.16943359375,0.74462890625,0.63525390625,3.0,-2.625,0.25
2.019999999999979,1.0,1.0,-8.0,-3.0,-15.0,-3.0,-3.0,1.0,-0.06964111328125,-0.4227294921875,-0.83905029296875,-0.33538818359375,-0.171875,0.751953125,0.62744140625,2.9375,-2.375,0.0
2.024999999999979,-2.0,-4.0,-4.0,-12.0,-28.0,-3.0,-3.0,-1.0,-0.06964111328125,-0.4227294921875,-0.83905029296875,-0.33538818359375,-0.171875,0.751953125,0.62744140625,2.9375,-2.375,0.0
2.029999999999979,-2.0,-4.0,-4.0,-12.0,-28.0,-3.0,-3.0,-1.0,-0.06964111328125,-0.4227294921875,-0.83905029296875,-0.33538818359375,-0.171875,0.751953125,0.62744140625,2.9375,-2.375,0.0
2.034999999999979,2.0,2.0,-3.0,4.0,-9.0,0.0,0.0,-2.0,-0.06988525390625,-0.422607421875,-0.83905029296875,-0.33563232421875,-0.16943359375,0.7529296875,0.63037109375,-0.0625,-2.125,-0.3125
2.0399999999999787,2.0,2.0,-3.0,4.0,-9.0,0.0,0.0,-2.0,-0.06988525390625,-0.422607421875,-0.83905029296875,-0.33563232421875,-0.16943359375,0.7529296875,0.63037109375,-0.0625,-2.125,-0.3125
2.0449999999999786,2.0,2.0,-3.0,4.0,-9.0,0.0,0.0,-2.0,-0.06988525390625,-0.422607421875,-0.83905029296875,-0.33563232421875,-0.16943359375,0.7529296875,0.63037109375,-0.0625,-2.125,-0.3125
2.0499999999999785,2.0,2.0,-3.0,4.0,-9.0,0.0,0.0,-2.0,-0.07000732421875,-0.42236328125,-0.8389892578125,-0.3359375,-0.16357421875,0.74365234375,0.626953125,-0.9375,-1.9375,-1.125
2.0549999999999784,-1.0,1.0,18.0,8.0,30.0,0.0,0.0,-1.0,-0.0701904296875,-0.42205810546875,-0.83905029296875,-0.33624267578125,-0.16064453125,0.74560546875,0.6279296875,-1.25,-2.0,-1.0
2.0599999999999783,-3.0,-2.0,-10.0,-2.0,1.0,-1.0,0.0,-2.0,-0.0701904296875,-0.42205810546875,-0.83905029296875,-0.33624267578125,-0.16064453125,0.74560546875,0.6279296875,-1.25,-2.0,-1.0
2.064999999999978,1.0,3.0,-6.0,13.0,7.0,3.0,-1.0,0.0,-0.0703125,-0.421875,-0.83892822265625,-0.33660888671875,-0.15771484375,0.7353515625,0.6259765625,-0.0625,-1.4375,-2.0
2.069999999999978,1.0,3.0,-6.0,13.0,7.0,3.0,-1.0,0.0,-0.0703125,-0.421875,-0.83892822265625,-0.33660888671875,-0.15771484375,0.7353515625,0.6259765625,-0.0625,-1.4375,-2.0
2.074999999999978,-1.0,1.0,1.0,-3.0,10.0,-1.0,0.0,-2.0,-0.0703125,-0.421875,-0.83892822265625,-0.33660888671875,-0.15771484375,0.7353515625,0.6259765625,-0.0625,-1.4375,-2.0
2.079999999999978,-2.0,-9.0,-8.0,-13.0,-25.0,-1.0,0.0,1.0,-0.0704345703125,-0.4219970703125,-0.83868408203125,-0.337158203125,-0.17333984375,0.76318359375,0.62158203125,-0.75,-1.625,-1.1875
2.0849999999999778,-2.0,-9.0,-8.0,-13.0,-25.0,-1.0,0.0,1.0,-0.0704345703125,-0.4219970703125,-0.83868408203125,-0.337158203125,-0.17333984375,0.76318359375,0.62158203125,-0.75,-1.625,-1.1875
2.0899999999999777,-1.0,-2.0,-10.0,-10.0,-21.0,-4.0,0.0,-2.0,-0.07049560546875,-0.4217529296875,-0.83868408203125,-0.33746337890625,-0.177734375,0.7646484375,0.626953125,-2.0625,-1.875,-0.625
2.0949999999999775,-1.0,-2.0,-10.0,-10.0,-21.0,-4.0,0.0,-2.0,-0.07049560546875,-0.4217529296875,-0.83868408203125,-0.33746337890625,-0.177734375,0.7646484375,0.626953125,-2.0625,-1.875,-0.625
2.0999999999999774,-3.0,-8.0,12.0,6.0,-7.0,-1.0,-1.0,-1.0,-0.07049560546875,-0.4217529296875,-0.83868408203125,-0.33746337890625,-0.177734375,0.7646484375,0.626953125,-2.0625,-1.875,-0.625
2.1049999999999773,-1.0,4.0,-9.0,0.0,20.0,1.0,-1.0,0.0,-0.070556640625,-0.42144775390625,-0.8387451171875,-0.337646484375,-0.17919921875,0.7587890625,0.634765625,-1.9375,-1.9375,-0.125
2.1099999999999772,-1.0,-1.0,-5.0,12.0,15.0,0.0,-1.0,-2.0,-0.070556640625,-0.42108154296875,-0.83880615234375,-0.337890625,-0.185546875,0.76318359375,0.64892578125,-1.625,-2.0,0.125
2.114999999999977,-1.0,-1.0,-5.0,12.0,15.0,0.0,-1.0,-2.0,-0.070556640625,-0.42108154296875,-0.83880615234375,-0.337890625,-0.185546875,0.76318359375,0.64892578125,-1.625,-2.0,0.125
2.119999999999977,-1.0,-1.0,-5.0,12.0,15.0,0.0,-1.0,-2.0,-0.07037353515625,-0.4205322265625,-0.83905029296875,-0.338134765625,-0.19677734375,0.75390625,0.650390625,-2.875,-1.75,0.5625
2.124999999999977,0.0,6.0,-25.0,-5.0,-4.0,-1.0,-1.0,1.0,-0.070068359375,-0.41973876953125,-0.83941650390625,-0.3382568359375,-0.19482421875,0.74267578125,0.65380859375,-4.1875,-1.4375,1.5
2.129999999999977,-3.0,-2.0,7.0,3.0,1.0,-1.0,-2.0,-2.0,-0.06988525390625,-0.4188232421875,-0.83990478515625,-0.33819580078125,-0.18798828125,0.73828125,0.6533203125,-4.625,-1.375,2.1875
2.1349999999999767,-2.0,2.0,-3.0,-11.0,15.0,-2.0,-1.0,-1.0,-0.06988525390625,-0.4188232421875,-0.83990478515625,-0.33819580078125,-0.18798828125,0.73828125,0.6533203125,-4.625,-1.375,2.1875
2.1399999999999766,-2.0,2.0,-3.0,-11.0,15.0,-2.0,-1.0,-1.0,-0.06988525390625,-0.4188232421875,-0.83990478515625,-0.33819580078125,-0.18798828125,0.73828125,0.6533203125,-4.625,-1.375,2.1875
2.1449999999999765,-2.0,2.0,-3.0,-11.0,15.0,-2.0,-1.0,-1.0,-0.06964111328125,-0.41790771484375,-0.84039306640625,-0.33819580078125,-0.18505859375,0.72802734375,0.65087890625,-4.6875,-1.3125,2.0
2.1499999999999764,-2.0,1.0,7.0,16.0,-4.0,3.0,0.0,0.0,-0.069580078125,-0.4169921875,-0.8408203125,-0.3382568359375,-0.17822265625,0.72216796875,0.63720703125,-4.6875,-1.875,1.8125
2.1549999999999763,0.0,1.0,-14.0,7.0,16.0,2.0,0.0,1.0,-0.0697021484375,-0.416259765625,-0.841064453125,-0.33843994140625,-0.17333984375,0.71630859375,0.63037109375,-3.25,-2.9375,1.0
2.159999999999976,0.0,1.0,-14.0,7.0,16.0,2.0,0.0,1.0,-0.0697021484375,-0.416259765625,-0.841064453125,-0.33843994140625,-0.17333984375,0.71630859375,0.63037109375,-3.25,-2.9375,1.0
2.164999999999976,0.0,6.0,10.0,6.0,0.0,0.0,-1.0,0.0,-0.0697021484375,-0.416259765625,-0.841064453125,-0.33843994140625,-0.17333984375,0.71630859375,0.63037109375,-3.25,-2.9375,1.0
2.169999999999976,-3.0,-2.0,-8.0,18.0,30.0,-2.0,-2.0,-1.0,-0.0699462890625,-0.415771484375,-0.84112548828125,-0.33880615234375,-0.17626953125,0.7158203125,0.6162109375,-2.1875,-4.125,0.125
2.174999999999976,-2.0,-4.0,-11.0,-6.0,15.0,-3.0,0.0,-2.0,-0.07049560546875,-0.41552734375,-0.841064453125,-0.33929443359375,-0.173828125,0.72216796875,0.61181640625,-0.8125,-5.125,-0.3125
2.1799999999999757,0.0,-5.0,-1.0,-11.0,7.0,-2.0,0.0,-1.0,-0.071044921875,-0.415283203125,-0.8408203125,-0.34002685546875,-0.17138671875,0.72021484375,0.60546875,-0.625,-5.875,-1.8125
2.1849999999999756,0.0,-5.0,-1.0,-11.0,7.0,-2.0,0.0,-1.0,-0.071044921875,-0.415283203125,-0.8408203125,-0.34002685546875,-0.17138671875,0.72021484375,0.60546875,-0.625,-5.875,-1.8125
2.1899999999999755,0.0,-5.0,-1.0,-11.0,7.0,-2.0,0.0,-1.0,-0.071044921875,-0.415283203125,-0.8408203125,-0.34002685546875,-0.17138671875,0.72021484375,0.60546875,-0.625,-5.875,-1.8125
2.1949999999999754,-2.0,-5.0,2.0,-15.0,3.0,-1.0,-1.0,-2.0,-0.071044921875,-0.415283203125,-0.8408203125,-0.34002685546875,-0.17138671875,0.72021484375,0.60546875,-0.625,-5.875,-1.8125
2.1999999999999753,0.0,-9.0,-13.0,-7.0,-39.0,-3.0,0.0,0.0,-0.07232666015625,-0.41534423828125,-0.83990478515625,-0.34185791015625,-0.1650390625,0.7333984375,0.60693359375,1.375,-5.8125,-4.1875
2.204999999999975,-2.0,-1.0,3.0,28.0,22.0,6.0,2.0,0.0,-0.07232666015625,-0.41534423828125,-0.83990478515625,-0.34185791015625,-0.1650390625,0.7333984375,0.60693359375,1.375,-5.8125,-4.1875
2.209999999999975,0.0,-1.0,5.0,5.0,-4.0,0.0,0.0,0.0,-0.07281494140625,-0.4156494140625,-0.83929443359375,-0.3428955078125,-0.17236328125,0.7412109375,0.60107421875,1.3125,-5.1875,-4.6875
2.214999999999975,1.0,1.0,8.0,17.0,23.0,5.0,0.0,-1.0,-0.0732421875,-0.416015625,-0.83868408203125,-0.3438720703125,-0.17529296875,0.73681640625,0.60107421875,1.9375,-5.0,-4.4375
2.219999999999975,0.0,-9.0,-10.0,-12.0,-11.0,-5.0,-3.0,-1.0,-0.07366943359375,-0.41668701171875,-0.8380126953125,-0.3447265625,-0.17041015625,0.74267578125,0.607421875,3.875,-3.6875,-4.1875
2.2249999999999748,-4.0,0.0,-3.0,-3.0,-9.0,-3.0,-3.0,-1.0,-0.07366943359375,-0.41668701171875,-0.8380126953125,-0.3447265625,-0.17041015625,0.74267578125,0.607421875,3.875,-3.6875,-4.1875
2.2299999999999747,-4.0,0.0,-3.0,-3.0,-9.0,-3.0,-3.0,-1.0,-0.073974609375,-0.41748046875,-0.8372802734375,-0.34539794921875,-0.17333984375,0.73974609375,0.6025390625,4.25,-2.6875,-3.8125
2.2349999999999746,-4.0,0.0,-3.0,-3.0,-9.0,-3.0,-3.0,-1.0,-0.073974609375,-0.41748046875,-0.8372802734375,-0.34539794921875,-0.17333984375,0.73974609375,0.6025390625,4.25,-2.6875,-3.8125
2.2399999999999745,1.0,-1.0,5.0,1.0,-22.0,0.0,-1.0,0.0,-0.073974609375,-0.41748046875,-0.8372802734375,-0.34539794921875,-0.17333984375,0.73974609375,0.6025390625,4.25,-2.6875,-3.8125
2.2449999999999743,-1.0,3.0,0.0,-3.0,-25.0,-1.0,1.0,-1.0,-0.07415771484375,-0.41839599609375,-0.836669921875,-0.3458251953125,-0.17578125,0.732421875,0.60400390625,5.0,-1.3125,-2.5
2.2499999999999742,0.0,-14.0,-8.0,-6.0,2.0,-1.0,-1.0,0.0,-0.0743408203125,-0.419189453125,-0.836181640625,-0.34588623046875,-0.16455078125,0.7314453125,0.61083984375,4.8125,-0.0625,-0.8125
2.254999999999974,0.0,-14.0,-8.0,-6.0,2.0,-1.0,-1.0,0.0,-0.0743408203125,-0.419189453125,-0.836181640625,-0.34588623046875,-0.16455078125,0.7314453125,0.61083984375,4.8125,-0.0625,-0.8125
2.259999999999974,-1.0,-5.0,-5.0,-20.0,-21.0,-6.0,-2.0,-2.0,-0.07452392578125,-0.42022705078125,-0.83575439453125,-0.3455810546875,-0.15966796875,0.73291015625,0.60986328125,6.25,1.625,0.4375
2.264999999999974,-1.0,-5.0,-5.0,-20.0,-21.0,-6.0,-2.0,-2.0,-0.07452392578125,-0.42022705078125,-0.83575439453125,-0.3455810546875,-0.15966796875,0.73291015625,0.60986328125,6.25,1.625,0.4375
2.269999999999974,-1.0,-5.0,-5.0,-20.0,-21.0,-6.0,-2.0,-2.0,-0.07452392578125,-0.42022705078125,-0.83575439453125,-0.3455810546875,-0.15966796875,0.73291015625,0.60986328125,6.25,1.625,0.4375
2.2749999999999737,-2.0,-10.0,-12.0,-7.0,5.0,-5.0,-3.0,-1.0,-0.07470703125,-0.42138671875,-0.83538818359375,-0.3450927734375,-0.15869140625,0.748046875,0.6318359375,7.1875,3.0,1.25
2.2799999999999736,-3.0,8.0,2.0,-4.0,12.0,-3.0,-1.0,-2.0,-0.07470703125,-0.4229736328125,-0.8348388671875,-0.34442138671875,-0.16259765625,0.81787109375,0.66162109375,8.0,4.75,0.4375
2.2849999999999735,0.0,-6.0,-11.0,-13.0,-17.0,-2.0,-2.0,-1.0,-0.07470703125,-0.4229736328125,-0.8348388671875,-0.34442138671875,-0.16259765625,0.81787109375,0.66162109375,8.0,4.75,0.4375
2.2899999999999734,0.0,-6.0,-11.0,-13.0,-17.0,-2.0,-2.0,-1.0,-0.07470703125,-0.4229736328125,-0.8348388671875,-0.34442138671875,-0.16259765625,0.81787109375,0.66162109375,8.0,4.75,0.4375
2.2949999999999733,-4.0,-2.0,17.0,-12.0,-20.0,-6.0,-2.0,0.0,-0.07391357421875,-0.4239501953125,-0.8345947265625,-0.34405517578125,-0.17529296875,0.83154296875,0.662109375,2.5,6.5625,-1.8125
2.299999999999973,-1.0,3.0,-10.0,5.0,29.0,0.0,-1.0,-2.0,-0.07208251953125,-0.42315673828125,-0.83514404296875,-0.34405517578125,-0.20263671875,0.7197265625,0.6689453125,-5.5625,6.5,-0.875
2.304999999999973,-2.0,0.0,-1.0,-16.0,-30.0,-5.0,-2.0,-1.0,-0.07086181640625,-0.42236328125,-0.83599853515625,-0.34320068359375,-0.1865234375,0.70361328125,0.66845703125,-3.4375,6.5,4.6875
2.309999999999973,-2.0,0.0,-1.0,-16.0,-30.0,-5.0,-2.0,-1.0,-0.07086181640625,-0.42236328125,-0.83599853515625,-0.34320068359375,-0.1865234375,0.70361328125,0.66845703125,-3.4375,6.5,4.6875
2.314999999999973,0.0,8.0,13.0,-1.0,-30.0,-5.0,-4.0,-3.0,-0.07049560546875,-0.42236328125,-0.8365478515625,-0.3419189453125,-0.17138671875,0.73974609375,0.615234375,-1.8125,4.75,6.625
2.3199999999999728,-1.0,-4.0,13.0,19.0,1.0,0.0,0.0,-2.0,-0.07012939453125,-0.42120361328125,-0.83758544921875,-0.3408203125,-0.16455078125,0.74755859375,0.609375,-9.625,2.4375,6.3125
2.3249999999999726,-2.0,1.0,6.0,-10.0,1.0,-2.0,-2.0,-1.0,-0.06988525390625,-0.419921875,-0.83868408203125,-0.33990478515625,-0.1484375,0.74267578125,0.6201171875,-9.5,2.0,5.625
2.3299999999999725,-2.0,10.0,3.0,-5.0,-6.0,1.0,-3.0,-1.0,-0.06988525390625,-0.419921875,-0.83868408203125,-0.33990478515625,-0.1484375,0.74267578125,0.6201171875,-9.5,2.0,5.625
2.3349999999999724,-2.0,10.0,3.0,-5.0,-6.0,1.0,-3.0,-1.0,-0.06988525390625,-0.419921875,-0.83868408203125,-0.33990478515625,-0.1484375,0.74267578125,0.6201171875,-9.5,2.0,5.625
2.3399999999999723,-1.0,-5.0,-15.0,-11.0,9.0,0.0,0.0,-1.0,-0.0697021484375,-0.41998291015625,-0.8389892578125,-0.3389892578125,-0.17236328125,0.76416015625,0.62158203125,1.25,1.5,1.0
2.344999999999972,-1.0,-5.0,-15.0,-11.0,9.0,0.0,0.0,-1.0,-0.0697021484375,-0.41998291015625,-0.8389892578125,-0.3389892578125,-0.17236328125,0.76416015625,0.62158203125,1.25,1.5,1.0
2.349999999999972,0.0,-3.0,4.0,6.0,12.0,-1.0,-1.0,-1.0,-0.06976318359375,-0.42071533203125,-0.8387451171875,-0.33868408203125,-0.173828125,0.744140625,0.62548828125,4.0625,1.5,1.0
2.354999999999972,-1.0,3.0,8.0,-1.0,-9.0,-2.0,-1.0,1.0,-0.06976318359375,-0.42071533203125,-0.8387451171875,-0.33868408203125,-0.173828125,0.744140625,0.62548828125,4.0625,1.5,1.0
2.359999999999972,2.0,-5.0,11.0,9.0,1.0,0.0,1.0,0.0,-0.06976318359375,-0.42144775390625,-0.83856201171875,-0.33819580078125,-0.1787109375,0.7333984375,0.625,4.6875,1.75,2.375
2.364999999999972,2.0,-5.0,11.0,9.0,1.0,0.0,1.0,0.0,-0.0697021484375,-0.421875,-0.83868408203125,-0.33746337890625,-0.177734375,0.7255859375,0.6171875,2.3125,2.1875,4.25
2.3699999999999717,-1.0,2.0,12.0,-6.0,-3.0,-1.0,-3.0,-1.0,-0.0697021484375,-0.421875,-0.83868408203125,-0.33746337890625,-0.177734375,0.7255859375,0.6171875,2.3125,2.1875,4.25
2.3749999999999716,-1.0,2.0,12.0,-6.0,-3.0,-1.0,-3.0,-1.0,-0.0697021484375,-0.421875,-0.83868408203125,-0.33746337890625,-0.177734375,0.7255859375,0.6171875,2.3125,2.1875,4.25
2.3799999999999715,-1.0,5.0,-3.0,6.0,-13.0,0.0,-1.0,0.0,-0.069580078125,-0.42138671875,-0.83978271484375,-0.3353271484375,-0.1640625,0.71044921875,0.61328125,-2.25,2.75,6.75
2.3849999999999714,-2.0,1.0,1.0,4.0,9.0,1.0,1.0,0.0,-0.069580078125,-0.42138671875,-0.83978271484375,-0.3353271484375,-0.1640625,0.71044921875,0.61328125,-2.25,2.75,6.75
2.3899999999999713,-2.0,1.0,1.0,4.0,9.0,1.0,1.0,0.0,-0.069580078125,-0.42138671875,-0.83978271484375,-0.3353271484375,-0.1640625,0.71044921875,0.61328125,-2.25,2.75,6.75
2.394999999999971,1.0,10.0,12.0,11.0,3.0,2.0,-1.0,1.0,-0.069580078125,-0.4212646484375,-0.84033203125,-0.3341064453125,-0.16796875,0.7109375,0.60498046875,-1.3125,2.3125,7.6875
2.399999999999971,1.0,10.0,12.0,11.0,3.0,2.0,-1.0,1.0,-0.069580078125,-0.4212646484375,-0.84033203125,-0.3341064453125,-0.16796875,0.7109375,0.60498046875,-1.3125,2.3125,7.6875
2.404999999999971,1.0,10.0,12.0,11.0,3.0,2.0,-1.0,1.0,-0.069580078125,-0.4212646484375,-0.84033203125,-0.3341064453125,-0.16796875,0.7109375,0.60498046875,-1.3125,2.3125,7.6875
2.409999999999971,1.0,4.0,14.0,15.0,8.0,3.0,0.0,0.0,-0.0701904296875,-0.42254638671875,-0.8404541015625,-0.33209228515625,-0.18310546875,0.736328125,0.5849609375,4.0625,0.5625,5.875
2.4149999999999707,1.0,4.0,14.0,15.0,8.0,3.0,0.0,0.0,-0.0701904296875,-0.42254638671875,-0.8404541015625,-0.33209228515625,-0.18310546875,0.736328125,0.5849609375,4.0625,0.5625,5.875
2.4199999999999706,-4.0,-16.0,-36.0,-3.0,8.0,0.0,-1.0,-1.0,-0.0709228515625,-0.42401123046875,-0.83984375,-0.33160400390625,-0.185546875,0.7763671875,0.60009765625,7.375,-1.0,3.6875
2.4249999999999705,-2.0,3.0,-18.0,-9.0,1.0,-4.0,-2.0,-2.0,-0.0709228515625,-0.42401123046875,-0.83984375,-0.33160400390625,-0.185546875,0.7763671875,0.60009765625,7.375,-1.0,3.6875
2.4299999999999704,-1.0,3.0,24.0,-6.0,-12.0,1.0,2.0,1.0,-0.07177734375,-0.4259033203125,-0.83880615234375,-0.3316650390625,-0.193359375,0.85693359375,0.6484375,10.25,-2.3125,-0.625
2.4349999999999703,0.0,2.0,-10.0,-4.0,15.0,2.0,-1.0,1.0,-0.07177734375,-0.4259033203125,-0.83880615234375,-0.3316650390625,-0.193359375,0.85693359375,0.6484375,10.25,-2.3125,-0.625
2.43999999999997,-1.0,6.0,19.0,-2.0,15.0,-2.0,-1.0,-3.0,-0.0716552734375,-0.4268798828125,-0.83782958984375,-0.332763671875,-0.2177734375,0.810546875,0.63623046875,4.75,-3.0,-5.5
2.44499999999997,2.0,1.0,-6.0,4.0,13.0,2.0,2.0,2.0,-0.07061767578125,-0.42578125,-0.83807373046875,-0.33392333984375,-0.21337890625,0.69091796875,0.68505859375,-2.1875,-1.3125,-3.625
2.44999999999997,1.0,7.0,-1.0,-3.0,-5.0,0.0,-3.0,1.0,-0.07061767578125,-0.42578125,-0.83807373046875,-0.33392333984375,-0.21337890625,0.69091796875,0.68505859375,-2.1875,-1.3125,-3.625
2.45499999999997,-2.0,-9.0,-24.0,-6.0,-16.0,-3.0,-1.0,-4.0,-0.0703125,-0.42559814453125,-0.838134765625,-0.33404541015625,-0.19091796875,0.7060546875,0.6845703125,3.6875,0.4375,0.5
2.4599999999999698,-2.0,-2.0,16.0,0.0,-5.0,-1.0,-3.0,-1.0,-0.0703125,-0.42559814453125,-0.838134765625,-0.33404541015625,-0.19091796875,0.7060546875,0.6845703125,3.6875,0.4375,0.5
2.4649999999999697,-2.0,-12.0,-11.0,1.0,-24.0,-5.0,-2.0,-2.0,-0.07025146484375,-0.425537109375,-0.838134765625,-0.3341064453125,-0.1865234375,0.7490234375,0.6416015625,-0.125,0.4375,0.875
2.4699999999999696,-2.0,-12.0,-11.0,1.0,-24.0,-5.0,-2.0,-2.0,-0.07025146484375,-0.425537109375,-0.838134765625,-0.3341064453125,-0.1865234375,0.7490234375,0.6416015625,-0.125,0.4375,0.875
2.4749999999999694,2.0,-3.0,-2.0,3.0,7.0,0.0,-3.0,-2.0,-0.06854248046875,-0.42218017578125,-0.83990478515625,-0.334228515625,-0.154296875,0.724609375,0.64697265625,-9.5625,2.1875,-0.375
2.4799999999999693,0.0,-2.0,-1.0,-13.0,-15.0,-4.0,-3.0,-1.0,-0.06854248046875,-0.42218017578125,-0.83990478515625,-0.334228515625,-0.154296875,0.724609375,0.64697265625,-9.5625,2.1875,-0.375
2.4849999999999692,-4.0,-9.0,-9.0,2.0,5.0,1.0,2.0,0.0,-0.0677490234375,-0.421875,-0.84014892578125,-0.334228515625,-0.16357421875,0.75439453125,0.62744140625,-4.125,3.5,-1.9375
2.489999999999969,-4.0,-9.0,-9.0,2.0,5.0,1.0,2.0,0.0,-0.0677490234375,-0.421875,-0.84014892578125,-0.334228515625,-0.16357421875,0.75439453125,0.62744140625,-4.125,3.5,-1.9375
2.494999999999969,-3.0,-3.0,5.0,8.0,3.0,1.0,1.0,-1.0,-0.0677490234375,-0.421875,-0.84014892578125,-0.334228515625,-0.16357421875,0.75439453125,0.62744140625,-4.125,3.5,-1.9375
2.499999999999969,-1.0,-5.0,-12.0,17.0,38.0,7.0,2.0,0.0,-0.06646728515625,-0.42254638671875,-0.839599609375,-0.33502197265625,-0.17529296875,0.7431640625,0.603515625,0.1875,1.4375,-4.3125
2.504999999999969,-1.0,-5.0,-12.0,17.0,38.0,7.0,2.0,0.0,-0.06646728515625,-0.42254638671875,-0.839599609375,-0.33502197265625,-0.17529296875,0.7431640625,0.603515625,0.1875,1.4375,-4.3125
2.5099999999999687,0.0,-1.0,-12.0,-15.0,-19.0,-3.0,-2.0,-2.0,-0.06622314453125,-0.42291259765625,-0.83917236328125,-0.3355712890625,-0.18115234375,0.7470703125,0.583984375,-0.1875,-0.4375,-3.8125
2.5149999999999686,0.0,-1.0,-12.0,-15.0,-19.0,-3.0,-2.0,-2.0,-0.06622314453125,-0.42291259765625,-0.83917236328125,-0.3355712890625,-0.18115234375,0.7470703125,0.583984375,-0.1875,-0.4375,-3.8125
2.5199999999999685,1.0,2.0,-4.0,-1.0,1.0,2.0,0.0,0.0,-0.066162109375,-0.4227294921875,-0.8389892578125,-0.33624267578125,-0.18408203125,0.72509765625,0.583984375,-2.0625,-2.9375,-2.6875
2.5249999999999684,-3.0,-5.0,-38.0,-3.0,-13.0,-3.0,-1.0,-1.0,-0.06646728515625,-0.422607421875,-0.83880615234375,-0.33685302734375,-0.1826171875,0.724609375,0.5830078125,-1.4375,-4.375,-1.5
2.5299999999999683,-2.0,-7.0,13.0,-6.0,1.0,-1.0,-1.0,-3.0,-0.06646728515625,-0.422607421875,-0.83880615234375,-0.33685302734375,-0.1826171875,0.724609375,0.5830078125,-1.4375,-4.375,-1.5
2.534999999999968,-1.0,0.0,0.0,-14.0,-4.0,-1.0,1.0,-2.0,-0.06646728515625,-0.422607421875,-0.83880615234375,-0.33685302734375,-0.1826171875,0.724609375,0.5830078125,-1.4375,-4.375,-1.5
2.539999999999968,0.0,-5.0,-20.0,-3.0,-2.0,-5.0,-3.0,-1.0,-0.06719970703125,-0.42279052734375,-0.8385009765625,-0.33734130859375,-0.18017578125,0.73193359375,0.5810546875,1.0,-5.3125,-0.8125
2.544999999999968,-2.0,3.0,4.0,-11.0,-21.0,-4.0,-1.0,0.0,-0.06805419921875,-0.4229736328125,-0.83807373046875,-0.337890625,-0.17822265625,0.74072265625,0.6015625,2.5,-5.8125,-0.9375
2.549999999999968,-2.0,3.0,4.0,-11.0,-21.0,-4.0,-1.0,0.0,-0.06805419921875,-0.4229736328125,-0.83807373046875,-0.337890625,-0.17822265625,0.74072265625,0.6015625,2.5,-5.8125,-0.9375
2.5549999999999677,-5.0,-5.0,4.0,6.0,22.0,-1.0,-2.0,-1.0,-0.06903076171875,-0.42376708984375,-0.83740234375,-0.33843994140625,-0.1748046875,0.75830078125,0.60400390625,5.5,-5.3125,-1.875
2.5599999999999676,-5.0,-5.0,4.0,6.0,22.0,-1.0,-2.0,-1.0,-0.06903076171875,-0.42376708984375,-0.83740234375,-0.33843994140625,-0.1748046875,0.75830078125,0.60400390625,5.5,-5.3125,-1.875
2.5649999999999675,-2.0,-8.0,-8.0,12.0,44.0,0.0,-1.0,1.0,-0.06903076171875,-0.42376708984375,-0.83740234375,-0.33843994140625,-0.1748046875,0.75830078125,0.60400390625,5.5,-5.3125,-1.875
2.5699999999999674,-1.0,0.0,4.0,2.0,-5.0,-3.0,1.0,-1.0,-0.070556640625,-0.4259033203125,-0.8355712890625,-0.33990478515625,-0.17138671875,0.818359375,0.64794921875,6.0625,-3.0,-5.3125
2.5749999999999673,0.0,2.0,8.0,-8.0,-24.0,-3.0,-3.0,0.0,-0.07012939453125,-0.42584228515625,-0.835205078125,-0.3409423828125,-0.18017578125,0.78515625,0.65966796875,0.125,-0.75,-6.3125
2.579999999999967,-2.0,-10.0,-18.0,-6.0,-33.0,-2.0,0.0,-1.0,-0.07012939453125,-0.42584228515625,-0.835205078125,-0.3409423828125,-0.18017578125,0.78515625,0.65966796875,0.125,-0.75,-6.3125
2.584999999999967,-1.0,2.0,-1.0,-2.0,-38.0,-3.0,0.0,0.0,-0.0693359375,-0.42510986328125,-0.83544921875,-0.341552734375,-0.17529296875,0.72998046875,0.662109375,-3.125,1.25,-4.125
2.589999999999967,-1.0,1.0,0.0,-6.0,-9.0,0.0,-3.0,-2.0,-0.0687255859375,-0.4246826171875,-0.83575439453125,-0.3414306640625,-0.17333984375,0.72412109375,0.64697265625,-1.5625,2.9375,0.375
2.594999999999967,-1.0,1.0,0.0,-6.0,-9.0,0.0,-3.0,-2.0,-0.0687255859375,-0.4246826171875,-0.83575439453125,-0.3414306640625,-0.17333984375,0.72412109375,0.64697265625,-1.5625,2.9375,0.375
2.599999999999967,-2.0,4.0,-9.0,-11.0,-8.0,-3.0,-3.0,-3.0,-0.06829833984375,-0.4244384765625,-0.83612060546875,-0.3408203125,-0.17236328125,0.75341796875,0.6337890625,-2.375,3.375,2.4375
2.6049999999999667,-2.0,4.0,-9.0,-11.0,-8.0,-3.0,-3.0,-3.0,-0.06829833984375,-0.4244384765625,-0.83612060546875,-0.3408203125,-0.17236328125,0.75341796875,0.6337890625,-2.375,3.375,2.4375
2.6099999999999666,-1.0,-7.0,14.0,-6.0,-1.0,-3.0,-3.0,-2.0,-0.06829833984375,-0.4244384765625,-0.83612060546875,-0.3408203125,-0.17236328125,0.75341796875,0.6337890625,-2.375,3.375,2.4375
2.6149999999999665,-1.0,-10.0,-5.0,-13.0,-32.0,-4.0,-1.0,-2.0,-0.06787109375,-0.42388916015625,-0.83673095703125,-0.34014892578125,-0.17822265625,0.76220703125,0.62548828125,-5.4375,2.6875,3.6875
2.6199999999999664,-1.0,-10.0,-5.0,-13.0,-32.0,-4.0,-1.0,-2.0,-0.06787109375,-0.42388916015625,-0.83673095703125,-0.34014892578125,-0.17822265625,0.76220703125,0.62548828125,-5.4375,2.6875,3.6875
2.6249999999999662,-2.0,-23.0,8.0,-4.0,-15.0,-1.0,-1.0,-4.0,-0.06744384765625,-0.42333984375,-0.83734130859375,-0.33941650390625,-0.18310546875,0.75634765625,0.62353515625,-5.125,2.4375,4.0
2.629999999999966,-2.0,-23.0,8.0,-4.0,-15.0,-1.0,-1.0,-4.0,-0.06744384765625,-0.42333984375,-0.83734130859375,-0.33941650390625,-0.18310546875,0.75634765625,0.62353515625,-5.125,2.4375,4.0
2.634999999999966,-2.0,-23.0,8.0,-4.0,-15.0,-1.0,-1.0,-4.0,-0.06744384765625,-0.42333984375,-0.83734130859375,-0.33941650390625,-0.18310546875,0.75634765625,0.62353515625,-5.125,2.4375,4.0
2.639999999999966,-2.0,-4.0,-2.0,-7.0,1.0,-2.0,-1.0,0.0,-0.06732177734375,-0.42333984375,-0.83758544921875,-0.3388671875,-0.18798828125,0.75,0.6162109375,-1.1875,1.0,3.75
2.644999999999966,0.0,3.0,-6.0,-6.0,-25.0,-1.0,0.0,1.0,-0.0679931640625,-0.42364501953125,-0.837646484375,-0.33819580078125,-0.189453125,0.73486328125,0.6015625,0.625,-2.625,3.625
2.6499999999999657,1.0,-4.0,0.0,2.0,2.0,2.0,0.0,1.0,-0.0679931640625,-0.42364501953125,-0.837646484375,-0.33819580078125,-0.189453125,0.73486328125,0.6015625,0.625,-2.625,3.625
2.6549999999999656,-3.0,2.0,-14.0,-5.0,-2.0,-2.0,-2.0,0.0,-0.0687255859375,-0.42352294921875,-0.83770751953125,-0.33807373046875,-0.1826171875,0.7236328125,0.60205078125,0.5625,-4.1875,3.5
2.6599999999999655,-2.0,-2.0,3.0,-3.0,6.0,-4.0,0.0,-1.0,-0.0697021484375,-0.42333984375,-0.83770751953125,-0.33795166015625,-0.171875,0.728515625,0.6083984375,0.8125,-5.25,3.375
2.6649999999999654,0.0,-3.0,-7.0,2.0,-3.0,2.0,1.0,-1.0,-0.0706787109375,-0.42327880859375,-0.83770751953125,-0.33795166015625,-0.166015625,0.724609375,0.60693359375,1.75,-5.3125,2.75
2.6699999999999653,0.0,-3.0,-7.0,2.0,-3.0,2.0,1.0,-1.0,-0.0706787109375,-0.42327880859375,-0.83770751953125,-0.33795166015625,-0.166015625,0.724609375,0.60693359375,1.75,-5.3125,2.75
2.674999999999965,-1.0,1.0,-2.0,7.0,-7.0,-1.0,-2.0,2.0,-0.0706787109375,-0.42327880859375,-0.83770751953125,-0.33795166015625,-0.166015625,0.724609375,0.60693359375,1.75,-5.3125,2.75
2.679999999999965,-1.0,1.0,-2.0,7.0,-7.0,-1.0,-2.0,2.0,-0.0706787109375,-0.42327880859375,-0.83770751953125,-0.33795166015625,-0.166015625,0.724609375,0.60693359375,1.75,-5.3125,2.75
2.684999999999965,-2.0,-3.0,-2.0,32.0,12.0,-1.0,-1.0,-3.0,-0.07275390625,-0.4237060546875,-0.83746337890625,-0.33758544921875,-0.154296875,0.74267578125,0.6123046875,4.875,-3.75,3.4375
2.689999999999965,-1.0,7.0,1.0,-8.0,5.0,-2.0,-1.0,0.0,-0.07275390625,-0.4237060546875,-0.83746337890625,-0.33758544921875,-0.154296875,0.74267578125,0.6123046875,4.875,-3.75,3.4375
2.6949999999999648,0.0,-2.0,0.0,-12.0,6.0,-3.0,-1.0,1.0,-0.07391357421875,-0.42431640625,-0.83721923828125,-0.337158203125,-0.1416015625,0.7626953125,0.61767578125,4.9375,-2.5,3.0
2.6999999999999647,0.0,-2.0,0.0,-12.0,6.0,-3.0,-1.0,1.0,-0.07391357421875,-0.42431640625,-0.83721923828125,-0.337158203125,-0.1416015625,0.7626953125,0.61767578125,4.9375,-2.5,3.0
2.7049999999999645,0.0,-2.0,0.0,-12.0,6.0,-3.0,-1.0,1.0,-0.07391357421875,-0.42431640625,-0.83721923828125,-0.337158203125,-0.1416015625,0.7626953125,0.61767578125,4.9375,-2.5,3.0
2.7099999999999644,-2.0,4.0,2.0,8.0,18.0,-4.0,-3.0,-3.0,-0.074951171875,-0.4244384765625,-0.83734130859375,-0.33648681640625,-0.11279296875,0.75634765625,0.64013671875,3.5,-1.0625,3.1875
2.7149999999999643,1.0,-7.0,-4.0,-8.0,-10.0,-1.0,-2.0,-2.0,-0.0762939453125,-0.42474365234375,-0.83746337890625,-0.33551025390625,-0.08984375,0.79345703125,0.67333984375,5.0,0.125,4.125
2.7199999999999642,-1.0,-2.0,2.0,1.0,2.0,-1.0,-2.0,0.0,-0.0762939453125,-0.42474365234375,-0.83746337890625,-0.33551025390625,-0.08984375,0.79345703125,0.67333984375,5.0,0.125,4.125
2.724999999999964,-1.0,-2.0,2.0,1.0,2.0,-1.0,-2.0,0.0,-0.077392578125,-0.4254150390625,-0.83740234375,-0.33447265625,-0.09716796875,0.86865234375,0.68505859375,4.6875,1.8125,2.9375
2.729999999999964,-6.0,-8.0,0.0,-2.0,-3.0,-28.0,-54.0,-16.0,-0.07733154296875,-0.425048828125,-0.83782958984375,-0.33392333984375,-0.14208984375,0.79443359375,0.6513671875,-2.625,1.9375,2.5625
2.734999999999964,-29.0,-26.0,-16.0,16.0,24.0,-42.0,-37.0,-44.0,-0.07781982421875,-0.4229736328125,-0.8394775390625,-0.332275390625,-0.11767578125,0.712890625,0.701171875,-6.5,0.5,11.6875
2.739999999999964,-29.0,-26.0,-16.0,16.0,24.0,-42.0,-37.0,-44.0,-0.08160400390625,-0.4239501953125,-0.83978271484375,-0.329345703125,-0.11962890625,0.84912109375,0.6416015625,9.5625,-7.8125,21.4375
2.7449999999999637,-31.0,-11.0,-13.0,14.0,19.0,-55.0,-108.0,-68.0,-0.08160400390625,-0.4239501953125,-0.83978271484375,-0.329345703125,-0.11962890625,0.84912109375,0.6416015625,9.5625,-7.8125,21.4375
2.7499999999999636,3.0,-2.0,-5.0,23.0,19.0,-27.0,-3.0,25.0,-0.0838623046875,-0.42181396484375,-0.84185791015625,-0.3262939453125,-0.0810546875,0.7041015625,0.5546875,-11.1875,-4.9375,22.875
2.7549999999999635,3.0,-2.0,-5.0,23.0,19.0,-27.0,-3.0,25.0,-0.0838623046875,-0.42181396484375,-0.84185791015625,-0.3262939453125,-0.0810546875,0.7041015625,0.5546875,-11.1875,-4.9375,22.875
2.7599999999999634,-11.0,-10.0,9.0,10.0,-40.0,14.0,-42.0,-11.0,-0.0838623046875,-0.42181396484375,-0.84185791015625,-0.3262939453125,-0.0810546875,0.7041015625,0.5546875,-11.1875,-4.9375,22.875
2.7649999999999633,-11.0,16.0,15.0,-7.0,-20.0,30.0,75.0,-77.0,-0.0855712890625,-0.41912841796875,-0.844482421875,-0.32244873046875,-0.0439453125,0.77978515625,0.60986328125,-16.25,0.5,24.25
2.769999999999963,-11.0,16.0,15.0,-7.0,-20.0,30.0,75.0,-77.0,-0.0855712890625,-0.41912841796875,-0.844482421875,-0.32244873046875,-0.0439453125,0.77978515625,0.60986328125,-16.25,0.5,24.25
2.774999999999963,56.0,25.0,30.0,24.0,25.0,6.0,7.0,44.0,-0.086181640625,-0.41650390625,-0.84759521484375,-0.31744384765625,-0.03515625,0.748046875,0.54638671875,-20.9375,8.6875,28.1875
2.779999999999963,-18.0,2.0,-13.0,-45.0,-36.0,-2.0,-95.0,-69.0,-0.086181640625,-0.41650390625,-0.84759521484375,-0.31744384765625,-0.03515625,0.748046875,0.54638671875,-20.9375,8.6875,28.1875
2.784999999999963,-18.0,2.0,-13.0,-45.0,-36.0,-2.0,-95.0,-69.0,-0.0850830078125,-0.41424560546875,-0.85089111328125,-0.3118896484375,-0.07763671875,0.83154296875,0.521484375,-27.75,16.875,28.8125
2.7899999999999627,-45.0,-33.0,-25.0,4.0,12.0,43.0,-61.0,57.0,-0.0850830078125,-0.41424560546875,-0.85089111328125,-0.3118896484375,-0.07763671875,0.83154296875,0.521484375,-27.75,16.875,28.8125
2.7949999999999626,-45.0,-33.0,-25.0,4.0,12.0,43.0,-61.0,57.0,-0.0850830078125,-0.41424560546875,-0.85089111328125,-0.3118896484375,-0.07763671875,0.83154296875,0.521484375,-27.75,16.875,28.8125
2.7999999999999625,-4.0,-8.0,-11.0,-34.0,-6.0,-28.0,-81.0,28.0,-0.08074951171875,-0.4122314453125,-0.852783203125,-0.31048583984375,-0.46826171875,0.5361328125,0.7421875,-6.6875,6.6875,21.4375
2.8049999999999624,27.0,9.0,-3.0,-28.0,1.0,43.0,19.0,76.0,-0.08074951171875,-0.4122314453125,-0.852783203125,-0.31048583984375,-0.46826171875,0.5361328125,0.7421875,-6.6875,6.6875,21.4375
2.8099999999999623,27.0,9.0,-3.0,-28.0,1.0,43.0,19.0,76.0,-0.08074951171875,-0.4122314453125,-0.852783203125,-0.31048583984375,-0.46826171875,0.5361328125,0.7421875,-6.6875,6.6875,21.4375
2.814999999999962,-15.0,7.0,21.0,41.0,24.0,27.0,64.0,-34.0,-0.0958251953125,-0.4149169921875,-0.8453369140625,-0.32281494140625,0.18115234375,0.74560546875,0.70263671875,97.875,-63.1875,5.0
2.819999999999962,-15.0,7.0,21.0,41.0,24.0,27.0,64.0,-34.0,-0.0958251953125,-0.4149169921875,-0.8453369140625,-0.32281494140625,0.18115234375,0.74560546875,0.70263671875,97.875,-63.1875,5.0
2.824999999999962,-15.0,7.0,21.0,41.0,24.0,27.0,64.0,-34.0,-0.0958251953125,-0.4149169921875,-0.8453369140625,-0.32281494140625,0.18115234375,0.74560546875,0.70263671875,97.875,-63.1875,5.0
2.829999999999962,15.0,12.0,13.0,-12.0,-55.0,-3.0,5.0,-7.0,-0.10333251953125,-0.423828125,-0.84149169921875,-0.31884765625,-0.01171875,1.40380859375,0.48388671875,33.5,-9.6875,16.0625
2.8349999999999618,-7.0,4.0,11.0,5.0,28.0,-3.0,-30.0,-31.0,-0.0986328125,-0.41168212890625,-0.84918212890625,-0.31585693359375,-0.30810546875,0.91015625,0.63671875,-91.375,2.75,35.0625
2.8399999999999617,-7.0,4.0,11.0,5.0,28.0,-3.0,-30.0,-31.0,-0.0986328125,-0.41168212890625,-0.84918212890625,-0.31585693359375,-0.30810546875,0.91015625,0.63671875,-91.375,2.75,35.0625
2.8449999999999616,-7.0,4.0,11.0,5.0,28.0,-3.0,-30.0,-31.0,-0.0986328125,-0.41168212890625,-0.84918212890625,-0.31585693359375,-0.30810546875,0.91015625,0.63671875,-91.375,2.75,35.0625
2.8499999999999615,37.0,-17.0,-28.0,-41.0,-84.0,-16.0,17.0,37.0,-0.09503173828125,-0.4093017578125,-0.85479736328125,-0.30462646484375,-0.1806640625,0.9208984375,0.533203125,42.75,8.6875,-0.125
2.8549999999999613,5.0,11.0,47.0,98.0,92.0,33.0,42.0,13.0,-0.09161376953125,-0.40582275390625,-0.85540771484375,-0.30859375,-0.1826171875,0.81103515625,0.6044921875,-32.125,-2.875,-20.125
2.8599999999999612,5.0,11.0,47.0,98.0,92.0,33.0,42.0,13.0,-0.09161376953125,-0.40582275390625,-0.85540771484375,-0.30859375,-0.1826171875,0.81103515625,0.6044921875,-32.125,-2.875,-20.125
2.864999999999961,5.0,11.0,47.0,98.0,92.0,33.0,42.0,13.0,-0.09161376953125,-0.40582275390625,-0.85540771484375,-0.30859375,-0.1826171875,0.81103515625,0.6044921875,-32.125,-2.875,-20.125
2.869999999999961,5.0,9.0,17.0,17.0,-20.0,18.0,36.0,-7.0,-0.0870361328125,-0.39715576171875,-0.85845947265625,-0.312744140625,-0.1416015625,0.55419921875,0.73486328125,-47.875,-2.3125,-17.6875
2.874999999999961,-61.0,-42.0,-34.0,8.0,10.0,-24.0,36.0,-12.0,-0.084228515625,-0.39361572265625,-0.859375,-0.3155517578125,-0.14794921875,0.4765625,0.74169921875,-10.5625,-0.25,-12.8125
2.879999999999961,-6.0,-2.0,-16.0,-128.0,-128.0,-40.0,-27.0,-1.0,-0.08502197265625,-0.39678955078125,-0.8570556640625,-0.31756591796875,-0.10791015625,0.6015625,0.70849609375,29.5625,-3.8125,-12.6875
2.8849999999999607,-6.0,-2.0,-16.0,-128.0,-128.0,-40.0,-27.0,-1.0,-0.08502197265625,-0.39678955078125,-0.8570556640625,-0.31756591796875,-0.10791015625,0.6015625,0.70849609375,29.5625,-3.8125,-12.6875
2.8899999999999606,-6.0,-2.0,-16.0,-128.0,-128.0,-40.0,-27.0,-1.0,-0.08502197265625,-0.39678955078125,-0.8570556640625,-0.31756591796875,-0.10791015625,0.6015625,0.70849609375,29.5625,-3.8125,-12.6875
2.8949999999999605,-2.0,4.0,27.0,12.0,46.0,3.0,9.0,-8.0,-0.08502197265625,-0.39678955078125,-0.8570556640625,-0.31756591796875,-0.10791015625,0.6015625,0.70849609375,29.5625,-3.8125,-12.6875
2.8999999999999604,3.0,5.0,-4.0,-30.0,-60.0,-8.0,-35.0,-40.0,-0.0894775390625,-0.40325927734375,-0.8489990234375,-0.32965087890625,-0.0419921875,0.54638671875,0.7216796875,18.5625,-16.0,-26.1875
2.9049999999999603,-4.0,-1.0,2.0,7.0,-18.0,6.0,17.0,1.0,-0.0894775390625,-0.40325927734375,-0.8489990234375,-0.32965087890625,-0.0419921875,0.54638671875,0.7216796875,18.5625,-16.0,-26.1875
2.90999999999996,-4.0,-1.0,2.0,7.0,-18.0,6.0,17.0,1.0,-0.0894775390625,-0.40325927734375,-0.8489990234375,-0.32965087890625,-0.0419921875,0.54638671875,0.7216796875,18.5625,-16.0,-26.1875
2.91499999999996,11.0,-15.0,-8.0,11.0,45.0,13.0,-3.0,4.0,-0.0894775390625,-0.40325927734375,-0.8489990234375,-0.32965087890625,-0.0419921875,0.54638671875,0.7216796875,18.5625,-16.0,-26.1875
2.91999999999996,-5.0,-8.0,-17.0,-30.0,-53.0,-9.0,-3.0,-4.0,-0.1007080078125,-0.42242431640625,-0.8387451171875,-0.32867431640625,-0.09423828125,1.0380859375,0.40966796875,42.5,3.875,-2.625
2.92499999999996,6.0,10.0,-2.0,1.0,-6.0,3.0,-3.0,2.0,-0.1007080078125,-0.42242431640625,-0.8387451171875,-0.32867431640625,-0.09423828125,1.0380859375,0.40966796875,42.5,3.875,-2.625
2.9299999999999597,6.0,10.0,-2.0,1.0,-6.0,3.0,-3.0,2.0,-0.1007080078125,-0.42242431640625,-0.8387451171875,-0.32867431640625,-0.09423828125,1.0380859375,0.40966796875,42.5,3.875,-2.625
2.9349999999999596,6.0,10.0,-2.0,1.0,-6.0,3.0,-3.0,2.0,-0.1007080078125,-0.42242431640625,-0.8387451171875,-0.32867431640625,-0.09423828125,1.0380859375,0.40966796875,42.5,3.875,-2.625
2.9399999999999595,6.0,10.0,-2.0,1.0,-6.0,3.0,-3.0,2.0,-0.1007080078125,-0.42242431640625,-0.8387451171875,-0.32867431640625,-0.09423828125,1.0380859375,0.40966796875,42.5,3.875,-2.625
2.9449999999999594,-4.0,-2.0,13.0,-17.0,-35.0,-9.0,0.0,0.0,-0.0894775390625,-0.41375732421875,-0.84295654296875,-0.33221435546875,-0.08349609375,0.6318359375,0.615234375,-56.75,9.375,-9.3125
2.9499999999999593,-8.0,-6.0,-24.0,-23.0,-25.0,-10.0,-3.0,2.0,-0.08599853515625,-0.41070556640625,-0.84429931640625,-0.33343505859375,-0.11572265625,0.59326171875,0.6259765625,-19.0625,9.25,-9.5625
2.954999999999959,-4.0,-1.0,-8.0,0.0,1.0,-12.0,-22.0,-15.0,-0.08599853515625,-0.41070556640625,-0.84429931640625,-0.33343505859375,-0.11572265625,0.59326171875,0.6259765625,-19.0625,9.25,-9.5625
2.959999999999959,-4.0,-1.0,-8.0,0.0,1.0,-12.0,-22.0,-15.0,-0.08599853515625,-0.41070556640625,-0.84429931640625,-0.33343505859375,-0.11572265625,0.59326171875,0.6259765625,-19.0625,9.25,-9.5625
2.964999999999959,-4.0,-1.0,-8.0,0.0,1.0,-12.0,-22.0,-15.0,-0.08599853515625,-0.41070556640625,-0.84429931640625,-0.33343505859375,-0.11572265625,0.59326171875,0.6259765625,-19.0625,9.25,-9.5625
2.969999999999959,2.0,-9.0,-15.0,6.0,1.0,9.0,-2.0,1.0,-0.08709716796875,-0.41986083984375,-0.83990478515625,-0.3328857421875,-0.12451171875,0.833984375,0.60986328125,30.5,-0.5,-3.0625
2.974999999999959,-13.0,-6.0,3.0,-15.0,-10.0,-39.0,-35.0,-28.0,-0.08856201171875,-0.42242431640625,-0.83868408203125,-0.332275390625,-0.06689453125,0.87255859375,0.59375,11.875,1.5,-1.75
2.9799999999999587,-13.0,-6.0,3.0,-15.0,-10.0,-39.0,-35.0,-28.0,-0.08856201171875,-0.42242431640625,-0.83868408203125,-0.332275390625,-0.06689453125,0.87255859375,0.59375,11.875,1.5,-1.75
2.9849999999999586,-13.0,-6.0,3.0,-15.0,-10.0,-39.0,-35.0,-28.0,-0.08856201171875,-0.42242431640625,-0.83868408203125,-0.332275390625,-0.06689453125,0.87255859375,0.59375,11.875,1.5,-1.75
2.9899999999999585,-11.0,-9.0,-3.0,-10.0,-8.0,-50.0,-66.0,1.0,-0.08697509765625,-0.421630859375,-0.83984375,-0.33074951171875,-0.08642578125,0.81640625,0.5986328125,-12.875,12.0625,3.125
2.9949999999999584,-11.0,-9.0,-3.0,-10.0,-8.0,-50.0,-66.0,1.0,-0.084716796875,-0.41912841796875,-0.8424072265625,-0.328125,-0.056640625,0.74658203125,0.646484375,-19.875,17.125,9.4375
2.9999999999999583,-14.0,-24.0,-22.0,-2.0,-34.0,-48.0,-111.0,-37.0,-0.0828857421875,-0.41717529296875,-0.84466552734375,-0.3251953125,-0.0458984375,0.6806640625,0.6337890625,-13.8125,17.125,11.125
3.004999999999958,-14.0,-24.0,-22.0,-2.0,-34.0,-48.0,-111.0,-37.0,-0.0828857421875,-0.41717529296875,-0.84466552734375,-0.3251953125,-0.0458984375,0.6806640625,0.6337890625,-13.8125,17.125,11.125
3.009999999999958,36.0,5.0,-13.0,20.0,22.0,10.0,38.0,50.0,-0.08038330078125,-0.41595458984375,-0.84588623046875,-0.32415771484375,-0.1416015625,0.673828125,0.6962890625,-6.0625,12.875,2.9375
3.014999999999958,36.0,5.0,-13.0,20.0,22.0,10.0,38.0,50.0,-0.08038330078125,-0.41595458984375,-0.84588623046875,-0.32415771484375,-0.1416015625,0.673828125,0.6962890625,-6.0625,12.875,2.9375
3.019999999999958,-56.0,-6.0,16.0,23.0,49.0,10.0,-16.0,-95.0,-0.08038330078125,-0.41595458984375,-0.84588623046875,-0.32415771484375,-0.1416015625,0.673828125,0.6962890625,-6.0625,12.875,2.9375
3.0249999999999577,-15.0,-7.0,-4.0,-5.0,-23.0,-8.0,-85.0,-45.0,-0.0797119140625,-0.416259765625,-0.8460693359375,-0.32354736328125,-0.1513671875,0.71630859375,0.6796875,3.625,5.125,2.8125
3.0299999999999576,19.0,0.0,-5.0,-28.0,12.0,95.0,81.0,89.0,-0.08001708984375,-0.41204833984375,-0.84832763671875,-0.32281494140625,-0.12841796875,0.66015625,0.64208984375,-20.875,-6.625,10.9375
3.0349999999999575,19.0,0.0,-5.0,-28.0,12.0,95.0,81.0,89.0,-0.08001708984375,-0.41204833984375,-0.84832763671875,-0.32281494140625,-0.12841796875,0.66015625,0.64208984375,-20.875,-6.625,10.9375
3.0399999999999574,-96.0,-20.0,-19.0,-49.0,-51.0,-14.0,-52.0,-128.0,-0.077392578125,-0.405029296875,-0.85076904296875,-0.325927734375,-0.4287109375,0.5380859375,0.74267578125,-32.6875,-19.25,3.875
3.0449999999999573,-10.0,-6.0,-16.0,0.0,6.0,-96.0,-35.0,-91.0,-0.0802001953125,-0.4024658203125,-0.849853515625,-0.33074951171875,-0.39013671875,0.5947265625,0.71533203125,2.0,-41.8125,-2.625
3.049999999999957,43.0,9.0,8.0,45.0,3.0,8.0,8.0,62.0,-0.0802001953125,-0.4024658203125,-0.849853515625,-0.33074951171875,-0.39013671875,0.5947265625,0.71533203125,2.0,-41.8125,-2.625
3.054999999999957,-13.0,-10.0,-11.0,-12.0,-16.0,-71.0,-52.0,-62.0,-0.09307861328125,-0.4146728515625,-0.84307861328125,-0.3297119140625,0.2265625,1.07275390625,0.55908203125,81.75,-25.25,-4.5625
3.059999999999957,-13.0,-10.0,-11.0,-12.0,-16.0,-71.0,-52.0,-62.0,-0.09307861328125,-0.4146728515625,-0.84307861328125,-0.3297119140625,0.2265625,1.07275390625,0.55908203125,81.75,-25.25,-4.5625
3.064999999999957,29.0,16.0,30.0,40.0,72.0,37.0,44.0,48.0,-0.09234619140625,-0.4140625,-0.84503173828125,-0.32574462890625,-0.11669921875,1.16796875,0.58642578125,-28.5,12.125,18.25
3.0699999999999568,0.0,-23.0,-10.0,-17.0,-33.0,-2.0,0.0,-10.0,-0.09234619140625,-0.4140625,-0.84503173828125,-0.32574462890625,-0.11669921875,1.16796875,0.58642578125,-28.5,12.125,18.25
3.0749999999999567,15.0,11.0,12.0,-17.0,-32.0,-39.0,-39.0,-2.0,-0.08642578125,-0.40142822265625,-0.85235595703125,-0.32391357421875,-0.1533203125,0.669921875,0.66162109375,-85.375,11.4375,17.625
3.0799999999999566,15.0,11.0,12.0,-17.0,-32.0,-39.0,-39.0,-2.0,-0.08642578125,-0.40142822265625,-0.85235595703125,-0.32391357421875,-0.1533203125,0.669921875,0.66162109375,-85.375,11.4375,17.625
3.0849999999999564,15.0,11.0,12.0,-17.0,-32.0,-39.0,-39.0,-2.0,-0.08642578125,-0.40142822265625,-0.85235595703125,-0.32391357421875,-0.1533203125,0.669921875,0.66162109375,-85.375,11.4375,17.625
3.0899999999999563,1.0,10.0,-16.0,-2.0,-6.0,22.0,0.0,22.0,-0.08642578125,-0.40142822265625,-0.85235595703125,-0.32391357421875,-0.1533203125,0.669921875,0.66162109375,-85.375,11.4375,17.625
3.0949999999999562,107.0,-21.0,-10.0,47.0,87.0,15.0,47.0,28.0,-0.08428955078125,-0.3961181640625,-0.85687255859375,-0.319091796875,0.01025390625,0.5283203125,0.673828125,-28.25,19.625,25.0625
3.099999999999956,-14.0,2.0,40.0,29.0,51.0,26.0,43.0,-8.0,-0.08544921875,-0.40618896484375,-0.8543701171875,-0.31280517578125,-0.169921875,0.90478515625,0.54833984375,14.8125,-0.4375,4.6875
3.104999999999956,-14.0,2.0,40.0,29.0,51.0,26.0,43.0,-8.0,-0.08544921875,-0.40618896484375,-0.8543701171875,-0.31280517578125,-0.169921875,0.90478515625,0.54833984375,14.8125,-0.4375,4.6875
3.109999999999956,30.0,-11.0,-23.0,-84.0,-49.0,-37.0,-55.0,-28.0,-0.0855712890625,-0.40313720703125,-0.85455322265625,-0.31622314453125,-0.15380859375,0.76416015625,0.56884765625,-22.25,-16.75,-12.8125
3.114999999999956,2.0,-15.0,-41.0,-121.0,-111.0,-52.0,-70.0,-27.0,-0.0850830078125,-0.39715576171875,-0.85614013671875,-0.31964111328125,-0.08642578125,0.52734375,0.69970703125,-24.5,-14.25,-11.4375
3.1199999999999557,70.0,-3.0,15.0,30.0,34.0,15.0,39.0,28.0,-0.08392333984375,-0.394287109375,-0.85699462890625,-0.32122802734375,-0.10107421875,0.52734375,0.748046875,-5.4375,-1.6875,-6.375
3.1249999999999556,38.0,-12.0,27.0,127.0,114.0,28.0,12.0,4.0,-0.08392333984375,-0.394287109375,-0.85699462890625,-0.32122802734375,-0.10107421875,0.52734375,0.748046875,-5.4375,-1.6875,-6.375
3.1299999999999555,38.0,-12.0,27.0,127.0,114.0,28.0,12.0,4.0,-0.08392333984375,-0.394287109375,-0.85699462890625,-0.32122802734375,-0.10107421875,0.52734375,0.748046875,-5.4375,-1.6875,-6.375
3.1349999999999554,-23.0,7.0,-6.0,-9.0,-24.0,-10.0,-19.0,-18.0,-0.08392333984375,-0.394287109375,-0.85699462890625,-0.32122802734375,-0.10107421875,0.52734375,0.748046875,-5.4375,-1.6875,-6.375
3.1399999999999553,-23.0,7.0,-6.0,-9.0,-24.0,-10.0,-19.0,-18.0,-0.08392333984375,-0.394287109375,-0.85699462890625,-0.32122802734375,-0.10107421875,0.52734375,0.748046875,-5.4375,-1.6875,-6.375
3.144999999999955,-14.0,-10.0,-5.0,-19.0,12.0,-1.0,28.0,11.0,-0.0858154296875,-0.3978271484375,-0.852294921875,-0.32879638671875,-0.15380859375,0.6416015625,0.81298828125,4.5625,-15.25,-13.4375
3.149999999999955,-14.0,-10.0,-5.0,-19.0,12.0,-1.0,28.0,11.0,-0.0858154296875,-0.3978271484375,-0.852294921875,-0.32879638671875,-0.15380859375,0.6416015625,0.81298828125,4.5625,-15.25,-13.4375
3.154999999999955,13.0,3.0,27.0,74.0,106.0,29.0,5.0,11.0,-0.0966796875,-0.40728759765625,-0.84625244140625,-0.3297119140625,0.099609375,0.7705078125,0.55712890625,44.5625,-7.8125,-1.125
3.159999999999955,13.0,3.0,27.0,74.0,106.0,29.0,5.0,11.0,-0.0966796875,-0.40728759765625,-0.84625244140625,-0.3297119140625,0.099609375,0.7705078125,0.55712890625,44.5625,-7.8125,-1.125
3.1649999999999547,-5.0,4.0,-1.0,50.0,104.0,6.0,-12.0,10.0,-0.09735107421875,-0.412109375,-0.8441162109375,-0.3289794921875,-0.07373046875,0.97216796875,0.50732421875,13.1875,7.1875,-5.0
3.1699999999999546,-5.0,4.0,-1.0,50.0,104.0,6.0,-12.0,10.0,-0.09735107421875,-0.412109375,-0.8441162109375,-0.3289794921875,-0.07373046875,0.97216796875,0.50732421875,13.1875,7.1875,-5.0
3.1749999999999545,-5.0,4.0,-1.0,50.0,104.0,6.0,-12.0,10.0,-0.09735107421875,-0.412109375,-0.8441162109375,-0.3289794921875,-0.07373046875,0.97216796875,0.50732421875,13.1875,7.1875,-5.0
3.1799999999999544,-5.0,4.0,-1.0,50.0,104.0,6.0,-12.0,10.0,-0.09735107421875,-0.412109375,-0.8441162109375,-0.3289794921875,-0.07373046875,0.97216796875,0.50732421875,13.1875,7.1875,-5.0
3.1849999999999543,-5.0,-9.0,-15.0,-1.0,-43.0,2.0,8.0,16.0,-0.092529296875,-0.4097900390625,-0.84515380859375,-0.33062744140625,-0.23095703125,0.7939453125,0.5537109375,-30.5,9.375,-10.0
3.189999999999954,3.0,1.0,-6.0,-27.0,-56.0,0.0,10.0,-9.0,-0.08856201171875,-0.4066162109375,-0.8463134765625,-0.33258056640625,-0.2109375,0.68896484375,0.63134765625,-25.125,4.875,-10.0
3.194999999999954,3.0,1.0,-6.0,-27.0,-56.0,0.0,10.0,-9.0,-0.08856201171875,-0.4066162109375,-0.8463134765625,-0.33258056640625,-0.2109375,0.68896484375,0.63134765625,-25.125,4.875,-10.0
3.199999999999954,3.0,1.0,-6.0,-27.0,-56.0,0.0,10.0,-9.0,-0.08856201171875,-0.4066162109375,-0.8463134765625,-0.33258056640625,-0.2109375,0.68896484375,0.63134765625,-25.125,4.875,-10.0
3.204999999999954,8.0,14.0,0.0,-29.0,-46.0,-2.0,12.0,11.0,-0.08746337890625,-0.40887451171875,-0.84515380859375,-0.33306884765625,-0.18017578125,0.7890625,0.59033203125,6.75,0.25,2.1875
3.209999999999954,-11.0,-12.0,-23.0,-2.0,-21.0,-8.0,-18.0,-17.0,-0.08868408203125,-0.41015625,-0.84454345703125,-0.332763671875,-0.11376953125,0.78662109375,0.6318359375,7.5,-2.9375,1.75
3.2149999999999537,8.0,-7.0,-7.0,-10.0,-29.0,-5.0,37.0,15.0,-0.09027099609375,-0.4114990234375,-0.84381103515625,-0.33245849609375,-0.0908203125,0.78662109375,0.64111328125,9.9375,-3.4375,1.0625
3.2199999999999536,-7.0,-11.0,-19.0,11.0,12.0,-10.0,-46.0,-8.0,-0.09027099609375,-0.4114990234375,-0.84381103515625,-0.33245849609375,-0.0908203125,0.78662109375,0.64111328125,9.9375,-3.4375,1.0625
3.2249999999999535,-13.0,-2.0,-3.0,1.0,-5.0,-29.0,-50.0,-40.0,-0.090087890625,-0.41180419921875,-0.8443603515625,-0.33087158203125,-0.0478515625,0.75439453125,0.57666015625,-3.125,8.25,4.125
3.2299999999999534,14.0,3.0,1.0,-8.0,8.0,-1.0,42.0,42.0,-0.090087890625,-0.41180419921875,-0.8443603515625,-0.33087158203125,-0.0478515625,0.75439453125,0.57666015625,-3.125,8.25,4.125
3.2349999999999532,-8.0,-7.0,-13.0,1.0,-5.0,33.0,67.0,-7.0,-0.08740234375,-0.41009521484375,-0.8468017578125,-0.32733154296875,-0.0390625,0.73193359375,0.6015625,-18.8125,22.6875,12.25
