0.005,-7.0,-9.0,-13.0,4.0,3.0,-2.0,1.0,-1.0,-0.244140625,-0.41802978515625,-0.71807861328125,-0.50018310546875,-0.1708984375,0.72412109375,0.61865234375,-28.0,-2.0,27.5
0.01,-14.0,-8.0,2.0,-2.0,4.0,-1.0,0.0,-2.0,-0.244140625,-0.41802978515625,-0.71807861328125,-0.50018310546875,-0.1708984375,0.72412109375,0.61865234375,-28.0,-2.0,27.5
0.015,-12.0,-4.0,-3.0,-2.0,2.0,-1.0,-3.0,0.0,-0.2423095703125,-0.41290283203125,-0.7216796875,-0.50006103515625,-0.0615234375,0.662109375,0.59765625,-24.6875,-1.5,14.0
0.02,-12.0,-4.0,-3.0,-2.0,2.0,-1.0,-3.0,0.0,-0.23931884765625,-0.41162109375,-0.72308349609375,-0.50054931640625,-0.296875,0.53271484375,0.45361328125,-11.8125,0.4375,11.5625
0.025,-12.0,-4.0,-3.0,-2.0,2.0,-1.0,-3.0,0.0,-0.23931884765625,-0.41162109375,-0.72308349609375,-0.50054931640625,-0.296875,0.53271484375,0.45361328125,-11.8125,0.4375,11.5625
0.030000000000000002,5.0,0.0,-3.0,0.0,22.0,1.0,-1.0,-1.0,-0.2376708984375,-0.4112548828125,-0.72332763671875,-0.50128173828125,-0.38720703125,0.533203125,0.35595703125,-7.5,-8.9375,14.625
0.035,-4.0,-3.0,3.0,-2.0,-12.0,-1.0,1.0,-1.0,-0.2376708984375,-0.4112548828125,-0.72332763671875,-0.50128173828125,-0.38720703125,0.533203125,0.35595703125,-7.5,-8.9375,14.625
0.04,-4.0,-3.0,3.0,-2.0,-12.0,-1.0,1.0,-1.0,-0.2376708984375,-0.4112548828125,-0.72332763671875,-0.50128173828125,-0.38720703125,0.533203125,0.35595703125,-7.5,-8.9375,14.625
0.045,-9.0,5.0,5.0,-8.0,-6.0,-4.0,-4.0,-2.0,-0.239013671875,-0.41162109375,-0.7230224609375,-0.50079345703125,-0.28515625,0.5400390625,0.3388671875,5.8125,-13.0625,17.8125
0.049999999999999996,-9.0,5.0,5.0,-8.0,-6.0,-4.0,-4.0,-2.0,-0.239013671875,-0.41162109375,-0.7230224609375,-0.50079345703125,-0.28515625,0.5400390625,0.3388671875,5.8125,-13.0625,17.8125
0.05499999999999999,-1.0,14.0,-6.0,-8.0,-4.0,-2.0,-2.0,-2.0,-0.24981689453125,-0.4180908203125,-0.71795654296875,-0.4974365234375,-0.02197265625,0.72216796875,0.3818359375,41.5625,-15.25,4.0
0.05999999999999999,-1.0,14.0,-6.0,-8.0,-4.0,-2.0,-2.0,-2.0,-0.24981689453125,-0.4180908203125,-0.71795654296875,-0.4974365234375,-0.02197265625,0.72216796875,0.3818359375,41.5625,-15.25,4.0
0.06499999999999999,21.0,3.0,21.0,-4.0,-22.0,0.0,-1.0,3.0,-0.25579833984375,-0.423095703125,-0.71368408203125,-0.49639892578125,0.06689453125,0.85107421875,0.4189453125,44.0,-9.8125,-7.9375
0.06999999999999999,21.0,3.0,21.0,-4.0,-22.0,0.0,-1.0,3.0,-0.25579833984375,-0.423095703125,-0.71368408203125,-0.49639892578125,0.06689453125,0.85107421875,0.4189453125,44.0,-9.8125,-7.9375
0.075,17.0,3.0,13.0,1.0,-16.0,1.0,0.0,2.0,-0.259033203125,-0.427734375,-0.70977783203125,-0.4962158203125,0.0634765625,0.88671875,0.451171875,34.1875,-1.375,-16.625
0.08,-13.0,-4.0,2.0,0.0,7.0,0.0,-1.0,-2.0,-0.26025390625,-0.4320068359375,-0.70654296875,-0.49652099609375,0.064453125,0.89697265625,0.4931640625,27.625,6.0,-21.875
0.085,-13.0,-4.0,2.0,0.0,7.0,0.0,-1.0,-2.0,-0.26025390625,-0.4320068359375,-0.70654296875,-0.49652099609375,0.064453125,0.89697265625,0.4931640625,27.625,6.0,-21.875
0.09000000000000001,1.0,-2.0,-9.0,4.0,9.0,1.0,-1.0,-4.0,-0.26025390625,-0.43597412109375,-0.70367431640625,-0.4970703125,0.08251953125,0.91162109375,0.5361328125,24.0,11.0625,-25.4375
0.09500000000000001,1.0,-2.0,-9.0,4.0,9.0,1.0,-1.0,-4.0,-0.26025390625,-0.43597412109375,-0.70367431640625,-0.4970703125,0.08251953125,0.91162109375,0.5361328125,24.0,11.0625,-25.4375
0.10000000000000002,4.0,7.0,-4.0,0.0,8.0,0.0,-2.0,0.0,-0.26025390625,-0.43597412109375,-0.70367431640625,-0.4970703125,0.08251953125,0.91162109375,0.5361328125,24.0,11.0625,-25.4375
0.10500000000000002,4.0,7.0,-4.0,0.0,8.0,0.0,-2.0,0.0,-0.259521484375,-0.44073486328125,-0.7005615234375,-0.49774169921875,0.04931640625,0.927734375,0.54052734375,26.25,14.75,-28.625
0.11000000000000003,-6.0,-1.0,8.0,7.0,9.0,1.0,0.0,0.0,-0.2586669921875,-0.4461669921875,-0.69708251953125,-0.49822998046875,0.00341796875,0.9775390625,0.5107421875,26.4375,15.8125,-28.0
0.11500000000000003,-10.0,-5.0,-17.0,-13.0,-26.0,-3.0,-3.0,-2.0,-0.25738525390625,-0.4508056640625,-0.69439697265625,-0.49847412109375,-0.03466796875,1.0009765625,0.47607421875,18.6875,15.5,-23.25
0.12000000000000004,7.0,6.0,0.0,1.0,-17.0,0.0,-1.0,0.0,-0.25738525390625,-0.4508056640625,-0.69439697265625,-0.49847412109375,-0.03466796875,1.0009765625,0.47607421875,18.6875,15.5,-23.25
0.12500000000000003,-10.0,-3.0,3.0,5.0,4.0,1.0,0.0,-1.0,-0.255615234375,-0.4541015625,-0.69281005859375,-0.49859619140625,-0.06884765625,1.0078125,0.46533203125,8.5,14.75,-17.3125
0.13000000000000003,2.0,2.0,2.0,-3.0,4.0,3.0,0.0,-2.0,-0.2535400390625,-0.4564208984375,-0.692138671875,-0.4984130859375,-0.08642578125,0.97021484375,0.46630859375,2.9375,15.0625,-11.75
0.13500000000000004,0.0,-4.0,1.0,14.0,-1.0,-3.0,-2.0,-5.0,-0.25164794921875,-0.45806884765625,-0.69219970703125,-0.49786376953125,-0.099609375,0.9423828125,0.46240234375,0.6875,14.25,-6.0
0.14000000000000004,3.0,0.0,0.0,-4.0,-11.0,-2.0,-2.0,-1.0,-0.25164794921875,-0.45806884765625,-0.69219970703125,-0.49786376953125,-0.099609375,0.9423828125,0.46240234375,0.6875,14.25,-6.0
0.14500000000000005,3.0,0.0,0.0,-4.0,-11.0,-2.0,-2.0,-1.0,-0.24993896484375,-0.4588623046875,-0.69293212890625,-0.4969482421875,-0.1083984375,0.9423828125,0.474609375,-3.125,12.375,-0.4375
0.15000000000000005,2.0,-11.0,-10.0,-5.0,0.0,-1.0,-1.0,-1.0,-0.24993896484375,-0.4588623046875,-0.69293212890625,-0.4969482421875,-0.1083984375,0.9423828125,0.474609375,-3.125,12.375,-0.4375
0.15500000000000005,-6.0,0.0,-1.0,-12.0,-31.0,-2.0,0.0,0.0,-0.24993896484375,-0.4588623046875,-0.69293212890625,-0.4969482421875,-0.1083984375,0.9423828125,0.474609375,-3.125,12.375,-0.4375
0.16000000000000006,-2.0,4.0,8.0,10.0,21.0,1.0,0.0,0.0,-0.24871826171875,-0.45880126953125,-0.69427490234375,-0.49566650390625,-0.1025390625,0.92626953125,0.474609375,-5.4375,10.375,5.125
0.16500000000000006,-2.0,2.0,9.0,10.0,-7.0,-4.0,-3.0,-1.0,-0.247802734375,-0.45794677734375,-0.6964111328125,-0.49395751953125,-0.0810546875,0.90478515625,0.490234375,-8.1875,9.6875,9.75
0.17000000000000007,-2.0,2.0,9.0,10.0,-7.0,-4.0,-3.0,-1.0,-0.247802734375,-0.45794677734375,-0.6964111328125,-0.49395751953125,-0.0810546875,0.90478515625,0.490234375,-8.1875,9.6875,9.75
0.17500000000000007,-1.0,-4.0,5.0,-3.0,-5.0,-2.0,-1.0,-1.0,-0.24713134765625,-0.45697021484375,-0.69891357421875,-0.49163818359375,-0.07080078125,0.8955078125,0.48779296875,-7.8125,10.8125,13.8125
0.18000000000000008,-1.0,-4.0,5.0,-3.0,-5.0,-2.0,-1.0,-1.0,-0.24688720703125,-0.45660400390625,-0.7010498046875,-0.48907470703125,-0.0791015625,0.8896484375,0.466796875,-4.0,10.5625,14.75
0.18500000000000008,-11.0,-8.0,3.0,-3.0,-33.0,-3.0,-1.0,-1.0,-0.24688720703125,-0.45660400390625,-0.7010498046875,-0.48907470703125,-0.0791015625,0.8896484375,0.466796875,-4.0,10.5625,14.75
0.19000000000000009,4.0,-6.0,0.0,-7.0,-28.0,-2.0,0.0,0.0,-0.24688720703125,-0.45660400390625,-0.7010498046875,-0.48907470703125,-0.0791015625,0.8896484375,0.466796875,-4.0,10.5625,14.75
0.1950000000000001,-5.0,5.0,2.0,19.0,18.0,-1.0,-2.0,-1.0,-0.2471923828125,-0.456787109375,-0.70263671875,-0.48638916015625,-0.08544921875,0.9072265625,0.4384765625,-0.875,8.6875,14.8125
0.2000000000000001,0.0,-12.0,-4.0,-3.0,3.0,-5.0,-2.0,0.0,-0.24774169921875,-0.45654296875,-0.70428466796875,-0.48406982421875,-0.0849609375,0.91455078125,0.42236328125,-4.0625,5.5625,14.8125
0.2050000000000001,2.0,2.0,4.0,-3.0,11.0,1.0,1.0,0.0,-0.24774169921875,-0.45654296875,-0.70428466796875,-0.48406982421875,-0.0849609375,0.91455078125,0.42236328125,-4.0625,5.5625,14.8125
0.2100000000000001,1.0,1.0,-8.0,-4.0,6.0,-2.0,-3.0,-1.0,-0.24755859375,-0.455322265625,-0.7061767578125,-0.4825439453125,-0.09375,0.89208984375,0.4443359375,-9.75,3.8125,13.125
0.2150000000000001,2.0,0.0,-7.0,-1.0,-3.0,-1.0,-1.0,-1.0,-0.24713134765625,-0.45379638671875,-0.70819091796875,-0.481201171875,-0.0966796875,0.85888671875,0.46337890625,-9.8125,3.375,12.5625
0.2200000000000001,2.0,4.0,4.0,2.0,7.0,1.0,0.0,2.0,-0.24713134765625,-0.45379638671875,-0.70819091796875,-0.481201171875,-0.0966796875,0.85888671875,0.46337890625,-9.8125,3.375,12.5625
0.22500000000000012,2.0,4.0,4.0,2.0,7.0,1.0,0.0,2.0,-0.24713134765625,-0.45379638671875,-0.70819091796875,-0.481201171875,-0.0966796875,0.85888671875,0.46337890625,-9.8125,3.375,12.5625
0.23000000000000012,2.0,4.0,4.0,2.0,7.0,1.0,0.0,2.0,-0.24713134765625,-0.45379638671875,-0.70819091796875,-0.481201171875,-0.0966796875,0.85888671875,0.46337890625,-9.8125,3.375,12.5625
0.23500000000000013,-6.0,-7.0,-12.0,-9.0,-1.0,-3.0,-1.0,-4.0,-0.24713134765625,-0.45379638671875,-0.70819091796875,-0.481201171875,-0.0966796875,0.85888671875,0.46337890625,-9.8125,3.375,12.5625
0.24000000000000013,-2.0,-11.0,-6.0,-9.0,4.0,-3.0,-1.0,-2.0,-0.24676513671875,-0.45263671875,-0.70989990234375,-0.47991943359375,-0.11376953125,0.8427734375,0.48486328125,-6.1875,3.3125,12.75
0.24500000000000013,-3.0,-13.0,-13.0,-16.0,-6.0,-3.0,0.0,0.0,-0.247314453125,-0.45111083984375,-0.71234130859375,-0.47747802734375,-0.1123046875,0.8388671875,0.47607421875,-0.5,-0.4375,11.8125
0.2500000000000001,-3.0,-13.0,-13.0,-16.0,-6.0,-3.0,0.0,0.0,-0.247314453125,-0.45111083984375,-0.71234130859375,-0.47747802734375,-0.1123046875,0.8388671875,0.47607421875,-0.5,-0.4375,11.8125
0.2550000000000001,0.0,3.0,-1.0,-1.0,1.0,1.0,1.0,-2.0,-0.247314453125,-0.45111083984375,-0.71234130859375,-0.47747802734375,-0.1123046875,0.8388671875,0.47607421875,-0.5,-0.4375,11.8125
0.2600000000000001,3.0,-2.0,-1.0,9.0,10.0,4.0,1.0,0.0,-0.25042724609375,-0.45068359375,-0.71258544921875,-0.47589111328125,-0.07080078125,0.87451171875,0.4462890625,5.375,-7.5,6.9375
0.2650000000000001,17.0,6.0,4.0,1.0,7.0,-2.0,-2.0,1.0,-0.25372314453125,-0.4501953125,-0.71185302734375,-0.47576904296875,-0.0078125,0.86474609375,0.4501953125,8.75,-13.6875,3.875
0.27000000000000013,17.0,6.0,4.0,1.0,7.0,-2.0,-2.0,1.0,-0.25372314453125,-0.4501953125,-0.71185302734375,-0.47576904296875,-0.0078125,0.86474609375,0.4501953125,8.75,-13.6875,3.875
0.27500000000000013,-10.0,-9.0,-11.0,-10.0,-12.0,-1.0,-2.0,-3.0,-0.25372314453125,-0.4501953125,-0.71185302734375,-0.47576904296875,-0.0078125,0.86474609375,0.4501953125,8.75,-13.6875,3.875
0.28000000000000014,-10.0,-9.0,-11.0,-10.0,-12.0,-1.0,-2.0,-3.0,-0.258056640625,-0.4495849609375,-0.71063232421875,-0.475830078125,0.05322265625,0.8876953125,0.49072265625,14.0625,-17.5,1.625
0.28500000000000014,5.0,5.0,11.0,-5.0,-4.0,-3.0,-1.0,1.0,-0.2630615234375,-0.448486328125,-0.7098388671875,-0.475341796875,0.130859375,0.9248046875,0.5400390625,15.4375,-17.0,2.75
0.29000000000000015,-5.0,-1.0,-9.0,0.0,-4.0,-2.0,-7.0,-25.0,-0.2630615234375,-0.448486328125,-0.7098388671875,-0.475341796875,0.130859375,0.9248046875,0.5400390625,15.4375,-17.0,2.75
0.29500000000000015,-6.0,-5.0,-4.0,5.0,4.0,-4.0,-2.0,-2.0,-0.26849365234375,-0.44683837890625,-0.70989990234375,-0.47369384765625,0.20654296875,1.02001953125,0.5556640625,12.6875,-14.1875,7.0625
0.30000000000000016,2.0,6.0,-2.0,3.0,8.0,2.0,1.0,1.0,-0.2724609375,-0.44427490234375,-0.7110595703125,-0.47210693359375,0.18798828125,1.10302734375,0.576171875,0.125,-9.875,9.375
0.30500000000000016,2.0,6.0,-2.0,3.0,8.0,2.0,1.0,1.0,-0.2724609375,-0.44427490234375,-0.7110595703125,-0.47210693359375,0.18798828125,1.10302734375,0.576171875,0.125,-9.875,9.375
0.31000000000000016,-5.0,-1.0,-4.0,-6.0,10.0,0.0,-2.0,2.0,-0.2742919921875,-0.44146728515625,-0.7117919921875,-0.47265625,0.1142578125,1.14404296875,0.5791015625,-9.875,-10.375,-0.5625
0.31500000000000017,2.0,-2.0,-1.0,-4.0,-14.0,-2.0,-1.0,4.0,-0.2720947265625,-0.43798828125,-0.7135009765625,-0.4744873046875,-0.04052734375,1.1533203125,0.59326171875,-28.5,-2.625,-2.875
0.3200000000000002,-3.0,-1.0,1.0,-12.0,-26.0,-5.0,-4.0,0.0,-0.27294921875,-0.43243408203125,-0.71405029296875,-0.478271484375,0.1171875,0.8916015625,0.47607421875,-28.5,-22.5,-11.9375
0.3250000000000002,-3.0,-1.0,1.0,-12.0,-26.0,-5.0,-4.0,0.0,-0.27294921875,-0.43243408203125,-0.71405029296875,-0.478271484375,0.1171875,0.8916015625,0.47607421875,-28.5,-22.5,-11.9375
0.3300000000000002,0.0,-4.0,0.0,-6.0,-17.0,-1.0,0.0,2.0,-0.2752685546875,-0.4315185546875,-0.71112060546875,-0.48211669921875,-0.0654296875,0.78125,0.44189453125,5.0625,-27.5,-13.9375
0.3350000000000002,6.0,8.0,-1.0,-9.0,4.0,-5.0,3.0,18.0,-0.28125,-0.43511962890625,-0.70556640625,-0.48358154296875,-0.23388671875,0.70166015625,0.3955078125,44.3125,-34.125,1.25
0.3400000000000002,0.0,-2.0,2.0,2.0,-1.0,1.0,-2.0,-7.0,-0.28125,-0.43511962890625,-0.70556640625,-0.48358154296875,-0.23388671875,0.70166015625,0.3955078125,44.3125,-34.125,1.25
0.3450000000000002,0.0,2.0,4.0,3.0,5.0,-1.0,-1.0,0.0,-0.28851318359375,-0.44110107421875,-0.700439453125,-0.4813232421875,-0.32421875,0.75439453125,0.37255859375,60.6875,-25.0625,22.6875
0.3500000000000002,0.0,2.0,4.0,3.0,5.0,-1.0,-1.0,0.0,-0.28851318359375,-0.44110107421875,-0.700439453125,-0.4813232421875,-0.32421875,0.75439453125,0.37255859375,60.6875,-25.0625,22.6875
0.3550000000000002,6.0,0.0,-16.0,-21.0,-22.0,-3.0,-2.0,-4.0,-0.29400634765625,-0.44622802734375,-0.69683837890625,-0.47845458984375,-0.35400390625,0.8017578125,0.33984375,46.875,-17.125,28.1875
0.3600000000000002,6.0,0.0,-16.0,-21.0,-22.0,-3.0,-2.0,-4.0,-0.29400634765625,-0.44622802734375,-0.69683837890625,-0.47845458984375,-0.35400390625,0.8017578125,0.33984375,46.875,-17.125,28.1875
0.3650000000000002,-4.0,1.0,-3.0,4.0,17.0,-2.0,1.0,-4.0,-0.29400634765625,-0.44622802734375,-0.69683837890625,-0.47845458984375,-0.35400390625,0.8017578125,0.33984375,46.875,-17.125,28.1875
0.3700000000000002,-2.0,-12.0,-33.0,-12.0,18.0,-3.0,-1.0,-4.0,-0.2957763671875,-0.448486328125,-0.6961669921875,-0.4761962890625,-0.4033203125,0.783203125,0.33056640625,17.25,-8.0,32.625
0.3750000000000002,1.0,4.0,4.0,5.0,-2.0,-1.0,0.0,1.0,-0.2957763671875,-0.448486328125,-0.6961669921875,-0.4761962890625,-0.4033203125,0.783203125,0.33056640625,17.25,-8.0,32.625
0.3800000000000002,1.0,4.0,4.0,5.0,-2.0,-1.0,0.0,1.0,-0.2957763671875,-0.448486328125,-0.6961669921875,-0.4761962890625,-0.4033203125,0.783203125,0.33056640625,17.25,-8.0,32.625
0.38500000000000023,-7.0,-17.0,15.0,3.0,7.0,0.0,1.0,-4.0,-0.2926025390625,-0.44696044921875,-0.6990966796875,-0.47540283203125,-0.48583984375,0.71337890625,0.36767578125,-19.0625,1.375,35.625
0.39000000000000024,-6.0,-3.0,-6.0,5.0,10.0,4.0,-1.0,-3.0,-0.2926025390625,-0.44696044921875,-0.6990966796875,-0.47540283203125,-0.48583984375,0.71337890625,0.36767578125,-19.0625,1.375,35.625
0.39500000000000024,-6.0,-3.0,-6.0,5.0,10.0,4.0,-1.0,-3.0,-0.28619384765625,-0.4429931640625,-0.7047119140625,-0.47467041015625,-0.47216796875,0.71923828125,0.42138671875,-42.1875,12.125,37.3125
0.40000000000000024,-3.0,0.0,-10.0,5.0,13.0,2.0,0.0,-1.0,-0.28619384765625,-0.4429931640625,-0.7047119140625,-0.47467041015625,-0.47216796875,0.71923828125,0.42138671875,-42.1875,12.125,37.3125
0.40500000000000025,-3.0,0.0,-10.0,5.0,13.0,2.0,0.0,-1.0,-0.28619384765625,-0.4429931640625,-0.7047119140625,-0.47467041015625,-0.47216796875,0.71923828125,0.42138671875,-42.1875,12.125,37.3125
0.41000000000000025,-1.0,6.0,11.0,12.0,28.0,1.0,0.0,0.0,-0.2762451171875,-0.42620849609375,-0.71917724609375,-0.47430419921875,-0.16015625,0.53515625,0.35546875,-64.3125,4.0,30.75
0.41500000000000026,-1.0,6.0,11.0,12.0,28.0,1.0,0.0,0.0,-0.2762451171875,-0.42620849609375,-0.71917724609375,-0.47430419921875,-0.16015625,0.53515625,0.35546875,-64.3125,4.0,30.75
0.42000000000000026,0.0,-4.0,-18.0,-16.0,-7.0,-1.0,3.0,24.0,-0.270263671875,-0.41943359375,-0.72625732421875,-0.47296142578125,-0.43701171875,0.4462890625,0.24267578125,-13.5,-7.75,38.4375
0.42500000000000027,-5.0,1.0,-23.0,-2.0,2.0,-3.0,-1.0,2.0,-0.270263671875,-0.41943359375,-0.72625732421875,-0.47296142578125,-0.43701171875,0.4462890625,0.24267578125,-13.5,-7.75,38.4375
0.43000000000000027,-9.0,-2.0,-1.0,0.0,-6.0,0.0,-1.0,-1.0,-0.27459716796875,-0.423583984375,-0.72491455078125,-0.4688720703125,-0.30029296875,0.5126953125,0.20263671875,33.5,-9.5,35.3125
0.4350000000000003,6.0,0.0,-18.0,8.0,-3.0,2.0,0.0,-2.0,-0.28338623046875,-0.430419921875,-0.7205810546875,-0.46405029296875,-0.07373046875,0.72802734375,0.271484375,62.75,-16.0,23.6875
0.4400000000000003,3.0,11.0,27.0,-8.0,-5.0,-1.0,-2.0,-4.0,-0.29461669921875,-0.43450927734375,-0.71697998046875,-0.458740234375,0.30126953125,0.9287109375,0.38525390625,59.0,-19.125,16.25
0.4450000000000003,3.0,11.0,27.0,-8.0,-5.0,-1.0,-2.0,-4.0,-0.29461669921875,-0.43450927734375,-0.71697998046875,-0.458740234375,0.30126953125,0.9287109375,0.38525390625,59.0,-19.125,16.25
0.4500000000000003,5.0,1.0,19.0,3.0,-11.0,-3.0,-1.0,-7.0,-0.3017578125,-0.43499755859375,-0.71636962890625,-0.45452880859375,0.52099609375,0.970703125,0.5625,35.125,-4.0,2.125
0.4550000000000003,2.0,-2.0,1.0,-3.0,-5.0,-2.0,-4.0,5.0,-0.3017578125,-0.43499755859375,-0.71636962890625,-0.45452880859375,0.52099609375,0.970703125,0.5625,35.125,-4.0,2.125
0.4600000000000003,2.0,-2.0,1.0,-3.0,-5.0,-2.0,-4.0,5.0,-0.3017578125,-0.43499755859375,-0.71636962890625,-0.45452880859375,0.52099609375,0.970703125,0.5625,35.125,-4.0,2.125
0.4650000000000003,2.0,-2.0,1.0,-3.0,-5.0,-2.0,-4.0,5.0,-0.3033447265625,-0.4349365234375,-0.71746826171875,-0.4517822265625,0.5078125,1.0234375,0.6591796875,16.125,16.125,-11.0
0.4700000000000003,4.0,5.0,-7.0,-1.0,-1.0,-2.0,0.0,-4.0,-0.30047607421875,-0.4366455078125,-0.7186279296875,-0.4503173828125,0.3857421875,1.046875,0.64892578125,7.875,31.875,-22.875
0.4750000000000003,0.0,13.0,20.0,10.0,25.0,2.0,0.0,-8.0,-0.30047607421875,-0.4366455078125,-0.7186279296875,-0.4503173828125,0.3857421875,1.046875,0.64892578125,7.875,31.875,-22.875
0.4800000000000003,2.0,-8.0,-10.0,-2.0,-8.0,-2.0,0.0,0.0,-0.30047607421875,-0.4366455078125,-0.7186279296875,-0.4503173828125,0.3857421875,1.046875,0.64892578125,7.875,31.875,-22.875
0.4850000000000003,-5.0,-13.0,-38.0,-19.0,-22.0,-2.0,-1.0,-2.0,-0.29510498046875,-0.4383544921875,-0.72039794921875,-0.4493408203125,0.34765625,1.16259765625,0.66015625,-4.0,41.4375,-27.5625
0.4900000000000003,-5.0,-13.0,-38.0,-19.0,-22.0,-2.0,-1.0,-2.0,-0.29510498046875,-0.4383544921875,-0.72039794921875,-0.4493408203125,0.34765625,1.16259765625,0.66015625,-4.0,41.4375,-27.5625
0.49500000000000033,3.0,-4.0,20.0,1.0,13.0,2.0,-1.0,1.0,-0.29510498046875,-0.4383544921875,-0.72039794921875,-0.4493408203125,0.34765625,1.16259765625,0.66015625,-4.0,41.4375,-27.5625
0.5000000000000003,1.0,-1.0,2.0,6.0,6.0,1.0,0.0,2.0,-0.28668212890625,-0.4453125,-0.7198486328125,-0.4488525390625,0.15673828125,1.04443359375,0.4482421875,6.25,24.1875,-30.9375
0.5050000000000003,-2.0,-1.0,-12.0,14.0,49.0,-2.0,-2.0,-3.0,-0.28668212890625,-0.4453125,-0.7198486328125,-0.4488525390625,0.15673828125,1.04443359375,0.4482421875,6.25,24.1875,-30.9375
0.5100000000000003,-2.0,-1.0,-12.0,14.0,49.0,-2.0,-2.0,-3.0,-0.2847900390625,-0.4481201171875,-0.7178955078125,-0.45037841796875,0.10791015625,1.107421875,0.39208984375,-0.0625,11.3125,-27.375
0.5150000000000003,-2.0,-1.0,-12.0,14.0,49.0,-2.0,-2.0,-3.0,-0.2847900390625,-0.4481201171875,-0.7178955078125,-0.45037841796875,0.10791015625,1.107421875,0.39208984375,-0.0625,11.3125,-27.375
0.5200000000000004,-2.0,-1.0,-12.0,14.0,49.0,-2.0,-2.0,-3.0,-0.2847900390625,-0.4481201171875,-0.7178955078125,-0.45037841796875,0.10791015625,1.107421875,0.39208984375,-0.0625,11.3125,-27.375
0.5250000000000004,-6.0,-6.0,-6.0,-5.0,-22.0,-1.0,-3.0,-16.0,-0.27734375,-0.44659423828125,-0.7183837890625,-0.45574951171875,0.029296875,0.9365234375,0.43408203125,-27.25,8.3125,-18.1875
0.5300000000000004,-3.0,6.0,-3.0,3.0,-1.0,0.0,0.0,4.0,-0.27734375,-0.44659423828125,-0.7183837890625,-0.45574951171875,0.029296875,0.9365234375,0.43408203125,-27.25,8.3125,-18.1875
0.5350000000000004,-3.0,6.0,-3.0,3.0,-1.0,0.0,0.0,4.0,-0.27734375,-0.44659423828125,-0.7183837890625,-0.45574951171875,0.029296875,0.9365234375,0.43408203125,-27.25,8.3125,-18.1875
0.5400000000000004,-4.0,-9.0,-17.0,-8.0,-5.0,-2.0,-1.0,-4.0,-0.27410888671875,-0.44537353515625,-0.719482421875,-0.4571533203125,-0.00439453125,0.876953125,0.45947265625,-17.5625,8.625,-9.8125
0.5450000000000004,-1.0,13.0,12.0,-3.0,-3.0,-3.0,0.0,1.0,-0.2734375,-0.4454345703125,-0.719482421875,-0.45745849609375,-0.0234375,0.8955078125,0.45556640625,-2.1875,1.625,-2.3125
0.5500000000000004,0.0,-9.0,-13.0,-5.0,-24.0,-5.0,0.0,2.0,-0.27532958984375,-0.4454345703125,-0.7186279296875,-0.4576416015625,0.00048828125,0.9052734375,0.44677734375,6.1875,-9.0,0.875
0.5550000000000004,-1.0,1.0,-4.0,6.0,-13.0,3.0,1.0,4.0,-0.27532958984375,-0.4454345703125,-0.7186279296875,-0.4576416015625,0.00048828125,0.9052734375,0.44677734375,6.1875,-9.0,0.875
0.5600000000000004,-1.0,1.0,-4.0,6.0,-13.0,3.0,1.0,4.0,-0.27532958984375,-0.4454345703125,-0.7186279296875,-0.4576416015625,0.00048828125,0.9052734375,0.44677734375,6.1875,-9.0,0.875
0.5650000000000004,1.0,8.0,10.0,1.0,-15.0,0.0,-1.0,2.0,-0.2774658203125,-0.44451904296875,-0.71820068359375,-0.45794677734375,0.02099609375,0.90478515625,0.44775390625,1.875,-12.0625,2.625
0.5700000000000004,6.0,3.0,-9.0,3.0,-24.0,-1.0,-2.0,0.0,-0.27935791015625,-0.44342041015625,-0.71807861328125,-0.45806884765625,0.00244140625,0.8701171875,0.41552734375,-1.1875,-10.75,5.1875
0.5750000000000004,-2.0,0.0,-1.0,1.0,-3.0,-2.0,-1.0,-1.0,-0.28070068359375,-0.44207763671875,-0.71820068359375,-0.45831298828125,-0.046875,0.8232421875,0.42431640625,-1.9375,-11.0625,7.6875
0.5800000000000004,-2.0,0.0,-1.0,1.0,-3.0,-2.0,-1.0,-1.0,-0.28070068359375,-0.44207763671875,-0.71820068359375,-0.45831298828125,-0.046875,0.8232421875,0.42431640625,-1.9375,-11.0625,7.6875
0.5850000000000004,0.0,2.0,-2.0,6.0,26.0,1.0,1.0,-5.0,-0.282470703125,-0.44085693359375,-0.71832275390625,-0.45831298828125,-0.06005859375,0.8291015625,0.43115234375,-0.1875,-12.125,10.75
0.5900000000000004,-4.0,1.0,5.0,-4.0,1.0,0.0,-3.0,-1.0,-0.2843017578125,-0.43988037109375,-0.71844482421875,-0.45782470703125,-0.0400390625,0.8564453125,0.43212890625,1.3125,-10.0,11.1875
0.5950000000000004,-8.0,0.0,5.0,-5.0,1.0,-1.0,-4.0,-7.0,-0.28570556640625,-0.43896484375,-0.7186279296875,-0.45758056640625,-0.03759765625,0.85693359375,0.41943359375,-0.9375,-9.0,9.5625
0.6000000000000004,-8.0,0.0,5.0,-5.0,1.0,-1.0,-4.0,-7.0,-0.28570556640625,-0.43896484375,-0.7186279296875,-0.45758056640625,-0.03759765625,0.85693359375,0.41943359375,-0.9375,-9.0,9.5625
0.6050000000000004,2.0,9.0,16.0,9.0,-9.0,-3.0,-1.0,4.0,-0.28570556640625,-0.43896484375,-0.7186279296875,-0.45758056640625,-0.03759765625,0.85693359375,0.41943359375,-0.9375,-9.0,9.5625
0.6100000000000004,-6.0,10.0,27.0,-13.0,9.0,1.0,0.0,0.0,-0.28668212890625,-0.43743896484375,-0.71905517578125,-0.457763671875,-0.02587890625,0.845703125,0.45947265625,-3.3125,-8.875,7.625
0.6150000000000004,-6.0,10.0,27.0,-13.0,9.0,1.0,0.0,0.0,-0.28668212890625,-0.43743896484375,-0.71905517578125,-0.457763671875,-0.02587890625,0.845703125,0.45947265625,-3.3125,-8.875,7.625
0.6200000000000004,1.0,-7.0,-7.0,-5.0,-13.0,1.0,-1.0,2.0,-0.28857421875,-0.43597412109375,-0.719482421875,-0.45733642578125,0.00341796875,0.83154296875,0.44384765625,2.8125,-4.4375,3.9375
0.6250000000000004,-1.0,-3.0,-5.0,-5.0,1.0,-3.0,-2.0,-2.0,-0.28857421875,-0.43597412109375,-0.719482421875,-0.45733642578125,0.00341796875,0.83154296875,0.44384765625,2.8125,-4.4375,3.9375
0.6300000000000004,-2.0,-9.0,-37.0,-3.0,-4.0,-1.0,-2.0,1.0,-0.2894287109375,-0.43585205078125,-0.71923828125,-0.45721435546875,0.0126953125,0.84130859375,0.43603515625,3.125,-4.0625,2.4375
0.6350000000000005,-3.0,-10.0,8.0,-1.0,6.0,-4.0,-2.0,-1.0,-0.29022216796875,-0.4354248046875,-0.71923828125,-0.4571533203125,0.0390625,0.86572265625,0.4384765625,0.5625,-3.6875,1.625
0.6400000000000005,-9.0,-4.0,2.0,-6.0,8.0,1.0,-1.0,-11.0,-0.29034423828125,-0.43475341796875,-0.719482421875,-0.457275390625,0.05126953125,0.87255859375,0.43994140625,-3.5625,-1.1875,-0.25
0.6450000000000005,-9.0,-4.0,2.0,-6.0,8.0,1.0,-1.0,-11.0,-0.29034423828125,-0.43475341796875,-0.719482421875,-0.457275390625,0.05126953125,0.87255859375,0.43994140625,-3.5625,-1.1875,-0.25
0.6500000000000005,1.0,-14.0,-6.0,16.0,40.0,0.0,-2.0,3.0,-0.29034423828125,-0.43475341796875,-0.719482421875,-0.457275390625,0.05126953125,0.87255859375,0.43994140625,-3.5625,-1.1875,-0.25
0.6550000000000005,-2.0,-3.0,12.0,1.0,0.0,-2.0,1.0,5.0,-0.289794921875,-0.434326171875,-0.71978759765625,-0.45758056640625,0.0322265625,0.86669921875,0.44775390625,-4.3125,1.25,-1.9375
0.6600000000000005,5.0,4.0,1.0,24.0,4.0,1.0,1.0,-1.0,-0.289794921875,-0.434326171875,-0.71978759765625,-0.45758056640625,0.0322265625,0.86669921875,0.44775390625,-4.3125,1.25,-1.9375
0.6650000000000005,-2.0,4.0,9.0,-5.0,9.0,0.0,-2.0,-2.0,-0.28948974609375,-0.43438720703125,-0.71978759765625,-0.457763671875,0.017578125,0.8544921875,0.43994140625,-0.5625,0.875,-1.8125
0.6700000000000005,5.0,10.0,19.0,-1.0,3.0,1.0,0.0,2.0,-0.28948974609375,-0.43438720703125,-0.71978759765625,-0.457763671875,0.017578125,0.8544921875,0.43994140625,-0.5625,0.875,-1.8125
0.6750000000000005,-1.0,-9.0,-3.0,-5.0,-16.0,-4.0,-3.0,1.0,-0.28973388671875,-0.43438720703125,-0.7196044921875,-0.45782470703125,0.02783203125,0.86865234375,0.44580078125,1.1875,-1.3125,-0.75
0.6800000000000005,-1.0,-9.0,-3.0,-5.0,-16.0,-4.0,-3.0,1.0,-0.28973388671875,-0.43438720703125,-0.7196044921875,-0.45782470703125,0.02783203125,0.86865234375,0.44580078125,1.1875,-1.3125,-0.75
0.6850000000000005,4.0,-5.0,0.0,-2.0,-6.0,-2.0,-1.0,-4.0,-0.29010009765625,-0.43450927734375,-0.71954345703125,-0.4576416015625,0.0380859375,0.876953125,0.4482421875,1.875,0.0,0.0625
0.6900000000000005,-3.0,-4.0,-22.0,-7.0,-14.0,-2.0,-2.0,-3.0,-0.29010009765625,-0.43450927734375,-0.71954345703125,-0.4576416015625,0.017578125,0.8837890625,0.44287109375,-0.5,0.0,-0.75
0.6950000000000005,2.0,1.0,-1.0,0.0,-15.0,0.0,-1.0,2.0,-0.29010009765625,-0.43450927734375,-0.71954345703125,-0.4576416015625,0.017578125,0.8837890625,0.44287109375,-0.5,0.0,-0.75
0.7000000000000005,-6.0,15.0,17.0,3.0,-7.0,-1.0,1.0,-1.0,-0.28948974609375,-0.4342041015625,-0.71990966796875,-0.45770263671875,0.015625,0.8828125,0.462890625,-3.1875,1.6875,0.0
0.7050000000000005,-1.0,-4.0,-10.0,-6.0,-14.0,4.0,1.0,-2.0,-0.2886962890625,-0.43341064453125,-0.720703125,-0.45770263671875,0.0244140625,0.8701171875,0.47607421875,-5.6875,2.6875,1.3125
0.7100000000000005,1.0,0.0,-11.0,5.0,1.0,-3.0,-1.0,-1.0,-0.2880859375,-0.4327392578125,-0.7215576171875,-0.4573974609375,0.02783203125,0.87109375,0.47119140625,-4.8125,3.4375,2.3125
0.7150000000000005,-1.0,-7.0,14.0,-2.0,-3.0,3.0,-2.0,-1.0,-0.287841796875,-0.43255615234375,-0.72198486328125,-0.45709228515625,0.02783203125,0.87158203125,0.45361328125,-1.6875,1.875,1.625
0.7200000000000005,-2.0,6.0,8.0,-11.0,-20.0,-1.0,-2.0,-3.0,-0.287841796875,-0.43255615234375,-0.72198486328125,-0.45709228515625,0.02783203125,0.87158203125,0.45361328125,-1.6875,1.875,1.625
0.7250000000000005,-2.0,6.0,8.0,-11.0,-20.0,-1.0,-2.0,-3.0,-0.287841796875,-0.43255615234375,-0.72198486328125,-0.45709228515625,0.02783203125,0.87158203125,0.45361328125,-1.6875,1.875,1.625
0.7300000000000005,0.0,-8.0,-9.0,10.0,21.0,5.0,1.0,1.0,-0.287841796875,-0.432373046875,-0.72222900390625,-0.4569091796875,0.03076171875,0.8857421875,0.45849609375,-1.1875,1.0,1.0
0.7350000000000005,-1.0,-5.0,-3.0,9.0,6.0,0.0,0.0,-1.0,-0.287841796875,-0.432373046875,-0.72222900390625,-0.4569091796875,0.03076171875,0.8857421875,0.45849609375,-1.1875,1.0,1.0
0.7400000000000005,-1.0,-5.0,-3.0,9.0,6.0,0.0,0.0,-1.0,-0.287841796875,-0.432373046875,-0.72222900390625,-0.4569091796875,0.03076171875,0.8857421875,0.45849609375,-1.1875,1.0,1.0
0.7450000000000006,0.0,9.0,14.0,-3.0,-14.0,-4.0,-1.0,0.0,-0.2872314453125,-0.431640625,-0.72308349609375,-0.45654296875,0.025390625,0.8603515625,0.44384765625,-3.6875,1.875,1.4375
0.7500000000000006,-1.0,-7.0,-6.0,-5.0,-3.0,-1.0,-3.0,-2.0,-0.28704833984375,-0.43133544921875,-0.723388671875,-0.45648193359375,0.0185546875,0.84326171875,0.44580078125,-2.0625,0.5625,0.875
0.7550000000000006,-2.0,-3.0,-2.0,2.0,0.0,1.0,-2.0,0.0,-0.28704833984375,-0.43133544921875,-0.723388671875,-0.45648193359375,0.0185546875,0.84326171875,0.44580078125,-2.0625,0.5625,0.875
0.7600000000000006,-2.0,-3.0,-2.0,2.0,0.0,1.0,-2.0,0.0,-0.28704833984375,-0.43133544921875,-0.723388671875,-0.45648193359375,0.0185546875,0.84326171875,0.44580078125,-2.0625,0.5625,0.875
0.7650000000000006,-2.0,-3.0,-2.0,2.0,0.0,1.0,-2.0,0.0,-0.28704833984375,-0.43133544921875,-0.723388671875,-0.45648193359375,0.0185546875,0.84326171875,0.44580078125,-2.0625,0.5625,0.875
0.7700000000000006,-2.0,-1.0,12.0,-5.0,4.0,-4.0,-2.0,0.0,-0.2867431640625,-0.4310302734375,-0.72357177734375,-0.4566650390625,0.009765625,0.8466796875,0.458984375,-2.125,-0.125,0.25
0.7750000000000006,1.0,-1.0,4.0,7.0,26.0,-1.0,-3.0,0.0,-0.28607177734375,-0.4306640625,-0.723876953125,-0.4569091796875,0.00927734375,0.853515625,0.458984375,-3.8125,1.3125,-0.8125
0.7800000000000006,-1.0,-13.0,-10.0,-7.0,-10.0,-1.0,-1.0,-1.0,-0.2847900390625,-0.43035888671875,-0.724365234375,-0.457275390625,-0.0009765625,0.84521484375,0.46240234375,-5.375,3.5625,-1.6875
0.7850000000000006,12.0,9.0,5.0,-1.0,28.0,4.0,1.0,-1.0,-0.2847900390625,-0.43035888671875,-0.724365234375,-0.457275390625,-0.0009765625,0.84521484375,0.46240234375,-5.375,3.5625,-1.6875
0.7900000000000006,12.0,9.0,5.0,-1.0,28.0,4.0,1.0,-1.0,-0.2847900390625,-0.43035888671875,-0.724365234375,-0.457275390625,-0.0009765625,0.84521484375,0.46240234375,-5.375,3.5625,-1.6875
0.7950000000000006,-2.0,-2.0,3.0,-4.0,-12.0,-2.0,-2.0,-1.0,-0.28338623046875,-0.43035888671875,-0.72467041015625,-0.45770263671875,-0.015625,0.82763671875,0.4658203125,-3.5,4.1875,-2.5
0.8000000000000006,-4.0,-6.0,-4.0,-9.0,-9.0,-2.0,2.0,-1.0,-0.28265380859375,-0.4306640625,-0.72442626953125,-0.45819091796875,-0.01513671875,0.81591796875,0.45458984375,0.5625,1.1875,-3.3125
0.8050000000000006,-4.0,-6.0,-4.0,-9.0,-9.0,-2.0,2.0,-1.0,-0.28265380859375,-0.4306640625,-0.72442626953125,-0.45819091796875,-0.01513671875,0.81591796875,0.45458984375,0.5625,1.1875,-3.3125
0.8100000000000006,-3.0,5.0,0.0,-1.0,-16.0,-1.0,0.0,-1.0,-0.28265380859375,-0.4306640625,-0.72442626953125,-0.45819091796875,-0.01513671875,0.81591796875,0.45458984375,0.5625,1.1875,-3.3125
0.8150000000000006,-2.0,-4.0,19.0,9.0,-4.0,0.0,-1.0,0.0,-0.28204345703125,-0.43096923828125,-0.72412109375,-0.45880126953125,-0.00048828125,0.8515625,0.4677734375,0.3125,1.0625,-4.375
0.8200000000000006,-5.0,2.0,23.0,15.0,-3.0,-2.0,-2.0,-2.0,-0.280517578125,-0.43048095703125,-0.724365234375,-0.459716796875,-0.0126953125,0.85693359375,0.4873046875,-6.4375,2.1875,-4.75
0.8250000000000006,-5.0,2.0,23.0,15.0,-3.0,-2.0,-2.0,-2.0,-0.280517578125,-0.43048095703125,-0.724365234375,-0.459716796875,-0.0126953125,0.85693359375,0.4873046875,-6.4375,2.1875,-4.75
0.8300000000000006,-7.0,5.0,-3.0,-5.0,-25.0,0.0,-1.0,0.0,-0.27850341796875,-0.429931640625,-0.7247314453125,-0.46099853515625,-0.037109375,0.8310546875,0.48193359375,-8.5625,2.9375,-5.9375
0.8350000000000006,1.0,-2.0,-4.0,2.0,8.0,3.0,0.0,0.0,-0.27630615234375,-0.4295654296875,-0.7247314453125,-0.462646484375,-0.068359375,0.82373046875,0.45751953125,-9.1875,1.75,-7.3125
0.8400000000000006,1.0,-2.0,-4.0,2.0,8.0,3.0,0.0,0.0,-0.27630615234375,-0.4295654296875,-0.7247314453125,-0.462646484375,-0.068359375,0.82373046875,0.45751953125,-9.1875,1.75,-7.3125
0.8450000000000006,2.0,-1.0,-5.0,-5.0,-20.0,-3.0,-3.0,-2.0,-0.2735595703125,-0.42864990234375,-0.7252197265625,-0.46435546875,-0.0810546875,0.83203125,0.45947265625,-15.1875,2.8125,-6.1875
0.8500000000000006,0.0,5.0,47.0,9.0,8.0,2.0,0.0,1.0,-0.27130126953125,-0.4281005859375,-0.72552490234375,-0.46563720703125,-0.05126953125,0.853515625,0.3896484375,-16.125,3.5625,-6.4375
0.8550000000000006,-8.0,-21.0,-24.0,-8.0,-3.0,-4.0,-2.0,-3.0,-0.27130126953125,-0.4281005859375,-0.72552490234375,-0.46563720703125,-0.05126953125,0.853515625,0.3896484375,-16.125,3.5625,-6.4375
0.8600000000000007,-1.0,-5.0,-7.0,6.0,-5.0,-1.0,0.0,-1.0,-0.26934814453125,-0.4293212890625,-0.72430419921875,-0.467529296875,-0.1103515625,0.875,0.32861328125,-10.0625,1.3125,-11.75
0.8650000000000007,0.0,4.0,2.0,1.0,-6.0,-1.0,-1.0,1.0,-0.26934814453125,-0.4293212890625,-0.72430419921875,-0.467529296875,-0.1103515625,0.875,0.32861328125,-10.0625,1.3125,-11.75
0.8700000000000007,-4.0,-6.0,-5.0,-12.0,-2.0,-3.0,-5.0,-25.0,-0.2672119140625,-0.43023681640625,-0.722900390625,-0.4700927734375,-0.1259765625,0.890625,0.3466796875,-11.625,-1.0,-14.5
0.8750000000000007,-4.0,4.0,4.0,10.0,22.0,-1.0,-2.0,3.0,-0.2672119140625,-0.43023681640625,-0.722900390625,-0.4700927734375,-0.1259765625,0.890625,0.3466796875,-11.625,-1.0,-14.5
0.8800000000000007,6.0,1.0,-8.0,-1.0,3.0,1.0,-1.0,5.0,-0.26519775390625,-0.43017578125,-0.7227783203125,-0.47149658203125,-0.03076171875,0.83935546875,0.37255859375,-13.5,3.875,-10.5
0.8850000000000007,6.0,1.0,-8.0,-1.0,3.0,1.0,-1.0,5.0,-0.26519775390625,-0.43017578125,-0.7227783203125,-0.47149658203125,-0.03076171875,0.83935546875,0.37255859375,-13.5,3.875,-10.5
0.8900000000000007,-8.0,-4.0,4.0,-7.0,-11.0,-4.0,-3.0,1.0,-0.26507568359375,-0.4315185546875,-0.721435546875,-0.47235107421875,0.13232421875,0.875,0.42236328125,3.125,5.3125,-19.0
0.8950000000000007,-8.0,-4.0,4.0,-7.0,-11.0,-4.0,-3.0,1.0,-0.26507568359375,-0.4315185546875,-0.721435546875,-0.47235107421875,0.13232421875,0.875,0.42236328125,3.125,5.3125,-19.0
0.9000000000000007,0.0,-2.0,-35.0,2.0,-17.0,-3.0,0.0,1.0,-0.26507568359375,-0.4315185546875,-0.721435546875,-0.47235107421875,0.13232421875,0.875,0.42236328125,3.125,5.3125,-19.0
0.9050000000000007,0.0,-2.0,-35.0,2.0,-17.0,-3.0,0.0,1.0,-0.26507568359375,-0.4315185546875,-0.721435546875,-0.47235107421875,0.13232421875,0.875,0.42236328125,3.125,5.3125,-19.0
0.9100000000000007,-5.0,-6.0,-4.0,-8.0,-2.0,-5.0,-5.0,-4.0,-0.27093505859375,-0.44207763671875,-0.71392822265625,-0.47076416015625,0.10791015625,0.9677734375,0.41796875,37.1875,3.625,-17.0
0.9150000000000007,2.0,-4.0,-4.0,-3.0,2.0,-1.0,-1.0,1.0,-0.27093505859375,-0.44207763671875,-0.71392822265625,-0.47076416015625,0.10791015625,0.9677734375,0.41796875,37.1875,3.625,-17.0
0.9200000000000007,3.0,-8.0,-1.0,-1.0,5.0,-1.0,1.0,4.0,-0.2730712890625,-0.446533203125,-0.7109375,-0.46978759765625,0.140625,1.01611328125,0.462890625,29.8125,6.8125,-16.8125
0.9250000000000007,3.0,-8.0,-1.0,-1.0,5.0,-1.0,1.0,4.0,-0.2730712890625,-0.446533203125,-0.7109375,-0.46978759765625,0.140625,1.01611328125,0.462890625,29.8125,6.8125,-16.8125
0.9300000000000007,5.0,-1.0,1.0,6.0,14.0,0.0,1.0,3.0,-0.274658203125,-0.4505615234375,-0.70867919921875,-0.46844482421875,0.10302734375,1.0263671875,0.4150390625,22.75,8.25,-11.75
0.9350000000000007,5.0,-1.0,1.0,6.0,14.0,0.0,1.0,3.0,-0.274658203125,-0.4505615234375,-0.70867919921875,-0.46844482421875,0.10302734375,1.0263671875,0.4150390625,22.75,8.25,-11.75
0.9400000000000007,-8.0,-1.0,-1.0,-12.0,-20.0,-4.0,-3.0,0.0,-0.274658203125,-0.4505615234375,-0.70867919921875,-0.46844482421875,0.10302734375,1.0263671875,0.4150390625,22.75,8.25,-11.75
0.9450000000000007,-3.0,-4.0,0.0,-11.0,-6.0,-3.0,-1.0,-2.0,-0.2772216796875,-0.45465087890625,-0.7056884765625,-0.46746826171875,0.05126953125,1.017578125,0.43798828125,7.8125,-1.0,-7.6875
0.9500000000000007,5.0,0.0,-4.0,3.0,14.0,0.0,0.0,-1.0,-0.2772216796875,-0.45465087890625,-0.7056884765625,-0.46746826171875,0.05126953125,1.017578125,0.43798828125,7.8125,-1.0,-7.6875
0.9550000000000007,0.0,4.0,12.0,3.0,-4.0,0.0,-1.0,-1.0,-0.2772216796875,-0.45465087890625,-0.7056884765625,-0.46746826171875,0.05126953125,1.017578125,0.43798828125,7.8125,-1.0,-7.6875
0.9600000000000007,-2.0,-6.0,-21.0,-11.0,-32.0,-5.0,-1.0,-1.0,-0.27825927734375,-0.4560546875,-0.70428466796875,-0.46759033203125,0.0390625,0.98046875,0.46240234375,11.6875,-0.6875,-8.6875
0.9650000000000007,1.0,4.0,-4.0,11.0,39.0,5.0,1.0,2.0,-0.27911376953125,-0.4591064453125,-0.701904296875,-0.46771240234375,-0.013671875,0.978515625,0.5068359375,23.875,1.3125,-11.1875
0.9700000000000008,-2.0,-3.0,5.0,7.0,-4.0,0.0,-1.0,-2.0,-0.2794189453125,-0.46331787109375,-0.698486328125,-0.46844482421875,-0.0908203125,0.93017578125,0.5458984375,33.375,1.9375,-15.1875
0.9750000000000008,-2.0,-3.0,5.0,7.0,-4.0,0.0,-1.0,-2.0,-0.2794189453125,-0.46331787109375,-0.698486328125,-0.46844482421875,-0.0908203125,0.93017578125,0.5458984375,33.375,1.9375,-15.1875
0.9800000000000008,1.0,-3.0,-2.0,-1.0,-9.0,-3.0,0.0,0.0,-0.2794189453125,-0.46331787109375,-0.698486328125,-0.46844482421875,-0.0908203125,0.93017578125,0.5458984375,33.375,1.9375,-15.1875
0.9850000000000008,3.0,-2.0,-18.0,10.0,6.0,2.0,1.0,1.0,-0.27850341796875,-0.4674072265625,-0.6951904296875,-0.4698486328125,-0.203125,0.89892578125,0.56396484375,30.875,1.5,-13.75
0.9900000000000008,-4.0,3.0,28.0,-15.0,-5.0,-2.0,-1.0,-2.0,-0.2764892578125,-0.46942138671875,-0.693115234375,-0.47216796875,-0.248046875,0.83740234375,0.58203125,17.75,-0.8125,-11.0
0.9950000000000008,0.0,7.0,10.0,-7.0,4.0,-2.0,-4.0,-1.0,-0.2764892578125,-0.46942138671875,-0.693115234375,-0.47216796875,-0.248046875,0.83740234375,0.58203125,17.75,-0.8125,-11.0
1.0000000000000007,-2.0,-11.0,-12.0,0.0,9.0,0.0,-1.0,-2.0,-0.27398681640625,-0.46954345703125,-0.6922607421875,-0.47479248046875,-0.22119140625,0.77099609375,0.58935546875,7.25,-1.625,-9.125
1.0050000000000006,-1.0,-17.0,20.0,-2.0,-18.0,-2.0,-2.0,0.0,-0.27398681640625,-0.46954345703125,-0.6922607421875,-0.47479248046875,-0.22119140625,0.77099609375,0.58935546875,7.25,-1.625,-9.125
1.0100000000000005,-2.0,-10.0,29.0,-14.0,-19.0,-2.0,-1.0,-3.0,-0.2708740234375,-0.46966552734375,-0.69183349609375,-0.47698974609375,-0.2861328125,0.72607421875,0.5302734375,2.625,0.5,-3.875
1.0150000000000003,2.0,15.0,18.0,8.0,9.0,2.0,0.0,1.0,-0.2677001953125,-0.46893310546875,-0.6925048828125,-0.478515625,-0.56689453125,0.259765625,0.34326171875,-1.875,-7.0,22.375
1.0200000000000002,2.0,15.0,18.0,8.0,9.0,2.0,0.0,1.0,-0.2677001953125,-0.46893310546875,-0.6925048828125,-0.478515625,-0.56689453125,0.259765625,0.34326171875,-1.875,-7.0,22.375
1.0250000000000001,-2.0,-7.0,-14.0,1.0,-1.0,1.0,2.0,-1.0,-0.26251220703125,-0.46563720703125,-0.697021484375,-0.47802734375,-0.85986328125,0.58154296875,0.2470703125,-40.0625,-4.25,56.625
1.03,1.0,-2.0,1.0,-6.0,-22.0,-1.0,5.0,29.0,-0.26251220703125,-0.46563720703125,-0.697021484375,-0.47802734375,-0.85986328125,0.58154296875,0.2470703125,-40.0625,-4.25,56.625
1.035,-4.0,5.0,23.0,-2.0,-28.0,-3.0,-1.0,-13.0,-0.26544189453125,-0.46282958984375,-0.69439697265625,-0.4830322265625,-0.08837890625,0.74169921875,0.50634765625,5.625,-36.625,-13.625
1.0399999999999998,-3.0,-8.0,-8.0,-11.0,-13.0,-1.0,0.0,2.0,-0.26544189453125,-0.46282958984375,-0.69439697265625,-0.4830322265625,-0.08837890625,0.74169921875,0.50634765625,5.625,-36.625,-13.625
1.0449999999999997,6.0,8.0,0.0,5.0,2.0,2.0,0.0,-2.0,-0.270751953125,-0.45703125,-0.6962890625,-0.48284912109375,0.73046875,1.14404296875,0.37158203125,-43.3125,-8.0625,-8.25
1.0499999999999996,-2.0,4.0,4.0,8.0,0.0,0.0,-1.0,-1.0,-0.270751953125,-0.45703125,-0.6962890625,-0.48284912109375,0.73046875,1.14404296875,0.37158203125,-43.3125,-8.0625,-8.25
1.0549999999999995,-5.0,4.0,0.0,-8.0,-13.0,-5.0,-3.0,-3.0,-0.262451171875,-0.44793701171875,-0.70220947265625,-0.4873046875,0.2333984375,0.9931640625,0.42431640625,-87.625,14.8125,-28.4375
1.0599999999999994,0.0,-6.0,-36.0,3.0,34.0,3.0,-3.0,-6.0,-0.2567138671875,-0.4439697265625,-0.70330810546875,-0.492431640625,-0.1728515625,0.396484375,0.37451171875,-32.625,-3.375,-17.9375
1.0649999999999993,-6.0,-15.0,4.0,-4.0,-6.0,-2.0,-1.0,-6.0,-0.2608642578125,-0.4503173828125,-0.69866943359375,-0.4910888671875,-0.0029296875,0.912109375,0.38134765625,45.5,-0.125,-11.1875
1.0699999999999992,-6.0,-15.0,4.0,-4.0,-6.0,-2.0,-1.0,-6.0,-0.2608642578125,-0.4503173828125,-0.69866943359375,-0.4910888671875,-0.0029296875,0.912109375,0.38134765625,45.5,-0.125,-11.1875
1.074999999999999,0.0,9.0,16.0,10.0,-4.0,-4.0,-2.0,-1.0,-0.26214599609375,-0.4561767578125,-0.695068359375,-0.49005126953125,-0.16259765625,0.953125,0.38818359375,32.1875,5.875,-6.9375
1.079999999999999,2.0,13.0,45.0,5.0,3.0,-1.0,1.0,0.0,-0.26214599609375,-0.4561767578125,-0.695068359375,-0.49005126953125,-0.16259765625,0.953125,0.38818359375,32.1875,5.875,-6.9375
1.0849999999999989,0.0,3.0,-22.0,-5.0,-2.0,-1.0,1.0,0.0,-0.26123046875,-0.458251953125,-0.69427490234375,-0.48980712890625,-0.14013671875,0.9052734375,0.4384765625,7.375,7.0,-3.375
1.0899999999999987,0.0,-9.0,-16.0,3.0,16.0,1.0,0.0,-2.0,-0.259765625,-0.45947265625,-0.693115234375,-0.49102783203125,-0.13134765625,1.05322265625,0.384765625,-6.625,2.6875,-12.3125
1.0949999999999986,0.0,-9.0,-16.0,3.0,16.0,1.0,0.0,-2.0,-0.259765625,-0.45947265625,-0.693115234375,-0.49102783203125,-0.13134765625,1.05322265625,0.384765625,-6.625,2.6875,-12.3125
1.0999999999999985,-4.0,7.0,6.0,-10.0,7.0,-3.0,-1.0,3.0,-0.2576904296875,-0.45794677734375,-0.6937255859375,-0.49267578125,-0.11962890625,0.94287109375,0.39794921875,-21.0625,-0.5625,-6.875
1.1049999999999984,0.0,-7.0,5.0,6.0,5.0,-3.0,-3.0,2.0,-0.2576904296875,-0.45794677734375,-0.6937255859375,-0.49267578125,-0.11962890625,0.94287109375,0.39794921875,-21.0625,-0.5625,-6.875
1.1099999999999983,0.0,9.0,15.0,6.0,1.0,-1.0,0.0,-3.0,-0.2576904296875,-0.45794677734375,-0.6937255859375,-0.49267578125,-0.11962890625,0.94287109375,0.39794921875,-21.0625,-0.5625,-6.875
1.1149999999999982,-3.0,-5.0,-8.0,-3.0,-18.0,0.0,1.0,-3.0,-0.25701904296875,-0.4561767578125,-0.69403076171875,-0.4942626953125,-0.02587890625,0.85693359375,0.42724609375,-12.5,-4.125,-9.0
1.119999999999998,0.0,-2.0,23.0,9.0,14.0,3.0,2.0,3.0,-0.25836181640625,-0.45709228515625,-0.6932373046875,-0.4937744140625,0.0,0.91064453125,0.40478515625,6.75,-0.0625,-4.0
1.124999999999998,-1.0,-11.0,-19.0,-16.0,-28.0,3.0,0.0,-1.0,-0.26025390625,-0.4595947265625,-0.69158935546875,-0.4927978515625,-0.06884765625,0.96484375,0.40185546875,16.1875,-0.0625,-1.5
1.129999999999998,-2.0,20.0,21.0,1.0,2.0,1.0,-3.0,-1.0,-0.26025390625,-0.4595947265625,-0.69158935546875,-0.4927978515625,-0.06884765625,0.96484375,0.40185546875,16.1875,-0.0625,-1.5
1.1349999999999978,3.0,-10.0,14.0,-5.0,-14.0,-3.0,-2.0,0.0,-0.26251220703125,-0.46136474609375,-0.689697265625,-0.4925537109375,-0.09375,0.95068359375,0.41796875,15.875,-5.9375,-1.5
1.1399999999999977,3.0,-10.0,14.0,-5.0,-14.0,-3.0,-2.0,0.0,-0.26251220703125,-0.46136474609375,-0.689697265625,-0.4925537109375,-0.09375,0.95068359375,0.41796875,15.875,-5.9375,-1.5
1.1449999999999976,0.0,-4.0,-23.0,0.0,-1.0,-2.0,0.0,0.0,-0.26483154296875,-0.46258544921875,-0.687744140625,-0.492919921875,-0.10595703125,0.9140625,0.45751953125,17.125,-10.0625,-2.0
1.1499999999999975,1.0,-2.0,4.0,-7.0,-6.0,0.0,-3.0,-2.0,-0.26702880859375,-0.463623046875,-0.68603515625,-0.49310302734375,-0.10107421875,0.8837890625,0.48193359375,18.4375,-8.875,-0.4375
1.1549999999999974,-2.0,1.0,2.0,8.0,24.0,2.0,-1.0,-1.0,-0.26702880859375,-0.463623046875,-0.68603515625,-0.49310302734375,-0.10107421875,0.8837890625,0.48193359375,18.4375,-8.875,-0.4375
1.1599999999999973,-2.0,1.0,2.0,8.0,24.0,2.0,-1.0,-1.0,-0.26702880859375,-0.463623046875,-0.68603515625,-0.49310302734375,-0.10107421875,0.8837890625,0.48193359375,18.4375,-8.875,-0.4375
1.1649999999999971,1.0,0.0,-7.0,6.0,10.0,-1.0,-2.0,-1.0,-0.26702880859375,-0.463623046875,-0.68603515625,-0.49310302734375,-0.10107421875,0.8837890625,0.48193359375,18.4375,-8.875,-0.4375
1.169999999999997,4.0,-13.0,11.0,-3.0,-13.0,-2.0,0.0,1.0,-0.26873779296875,-0.46435546875,-0.68505859375,-0.49285888671875,-0.115234375,0.89794921875,0.48046875,14.3125,-5.8125,3.3125
1.174999999999997,-2.0,6.0,-18.0,-4.0,9.0,-4.0,-4.0,-2.0,-0.26873779296875,-0.46435546875,-0.68505859375,-0.49285888671875,-0.115234375,0.89794921875,0.48046875,14.3125,-5.8125,3.3125
1.1799999999999968,-3.0,1.0,3.0,-3.0,-11.0,-1.0,0.0,1.0,-0.2685546875,-0.4638671875,-0.685302734375,-0.4931640625,-0.16552734375,0.92041015625,0.47021484375,-4.625,0.0,2.5625
1.1849999999999967,-1.0,6.0,8.0,8.0,4.0,3.0,1.0,1.0,-0.2685546875,-0.4638671875,-0.685302734375,-0.4931640625,-0.16552734375,0.92041015625,0.47021484375,-4.625,0.0,2.5625
1.1899999999999966,-1.0,6.0,8.0,8.0,4.0,3.0,1.0,1.0,-0.2685546875,-0.4638671875,-0.685302734375,-0.4931640625,-0.16552734375,0.92041015625,0.47021484375,-4.625,0.0,2.5625
1.1949999999999965,-2.0,-9.0,-11.0,-1.0,-2.0,1.0,0.0,-2.0,-0.266357421875,-0.46282958984375,-0.68634033203125,-0.49383544921875,-0.17041015625,0.92724609375,0.4716796875,-12.3125,3.5625,0.875
1.1999999999999964,-3.0,-5.0,-14.0,-1.0,-2.0,-3.0,-2.0,0.0,-0.264404296875,-0.46221923828125,-0.6873779296875,-0.49407958984375,-0.09375,0.96630859375,0.4384765625,-12.9375,6.6875,-2.875
1.2049999999999963,-3.0,3.0,9.0,5.0,-5.0,-1.0,-2.0,0.0,-0.2615966796875,-0.4619140625,-0.68878173828125,-0.49383544921875,-0.03955078125,0.96826171875,0.41796875,-15.875,14.625,-6.0
1.2099999999999962,-3.0,3.0,9.0,5.0,-5.0,-1.0,-2.0,0.0,-0.2615966796875,-0.4619140625,-0.68878173828125,-0.49383544921875,-0.03955078125,0.96826171875,0.41796875,-15.875,14.625,-6.0
1.214999999999996,-1.0,-15.0,7.0,-20.0,-17.0,-4.0,-2.0,-2.0,-0.25732421875,-0.46185302734375,-0.6907958984375,-0.49334716796875,-0.05712890625,0.8916015625,0.404296875,-19.5,21.875,-6.4375
1.219999999999996,-4.0,-9.0,-13.0,-10.0,-20.0,-1.0,-2.0,-3.0,-0.25274658203125,-0.46142578125,-0.6929931640625,-0.4930419921875,-0.08349609375,0.8046875,0.435546875,-17.875,21.5625,-4.75
1.2249999999999959,1.0,-1.0,-35.0,-3.0,3.0,0.0,0.0,-1.0,-0.25274658203125,-0.46142578125,-0.6929931640625,-0.4930419921875,-0.08349609375,0.8046875,0.435546875,-17.875,21.5625,-4.75
1.2299999999999958,2.0,-1.0,17.0,-8.0,-14.0,-1.0,0.0,-2.0,-0.2484130859375,-0.4605712890625,-0.69561767578125,-0.4923095703125,-0.10546875,0.7978515625,0.47412109375,-17.4375,20.875,0.4375
1.2349999999999957,2.0,-1.0,17.0,-8.0,-14.0,-1.0,0.0,-2.0,-0.2484130859375,-0.4605712890625,-0.69561767578125,-0.4923095703125,-0.10546875,0.7978515625,0.47412109375,-17.4375,20.875,0.4375
1.2399999999999956,0.0,-3.0,-7.0,5.0,6.0,-1.0,-1.0,0.0,-0.2447509765625,-0.46002197265625,-0.69744873046875,-0.49200439453125,-0.1376953125,0.76220703125,0.39794921875,-16.5625,14.875,0.0625
1.2449999999999954,0.0,-3.0,-7.0,5.0,6.0,-1.0,-1.0,0.0,-0.2447509765625,-0.46002197265625,-0.69744873046875,-0.49200439453125,-0.1376953125,0.76220703125,0.39794921875,-16.5625,14.875,0.0625
1.2499999999999953,-4.0,3.0,-14.0,-9.0,-18.0,-2.0,-2.0,0.0,-0.24188232421875,-0.45794677734375,-0.69970703125,-0.49224853515625,-0.12646484375,0.6376953125,0.4169921875,-17.875,7.3125,3.4375
1.2549999999999952,-2.0,-10.0,-7.0,8.0,40.0,3.0,1.0,0.0,-0.24188232421875,-0.45794677734375,-0.69970703125,-0.49224853515625,-0.12646484375,0.6376953125,0.4169921875,-17.875,7.3125,3.4375
1.2599999999999951,0.0,6.0,6.0,-4.0,-16.0,-4.0,-2.0,-2.0,-0.2403564453125,-0.4556884765625,-0.70233154296875,-0.49139404296875,-0.11572265625,0.61328125,0.48095703125,-9.6875,5.6875,12.375
1.264999999999995,0.0,4.0,-3.0,-9.0,-8.0,-6.0,-3.0,-1.0,-0.2403564453125,-0.4556884765625,-0.70233154296875,-0.49139404296875,-0.11572265625,0.61328125,0.48095703125,-9.6875,5.6875,12.375
1.269999999999995,-6.0,-3.0,-4.0,0.0,2.0,-1.0,-2.0,-2.0,-0.24072265625,-0.4554443359375,-0.703857421875,-0.48919677734375,-0.0869140625,0.76953125,0.46044921875,2.0,6.1875,14.125
1.2749999999999948,2.0,14.0,19.0,-3.0,-5.0,1.0,-2.0,1.0,-0.24041748046875,-0.4559326171875,-0.7044677734375,-0.488037109375,-0.099609375,0.96533203125,0.412109375,-5.1875,6.1875,3.4375
1.2799999999999947,-1.0,8.0,61.0,6.0,0.0,0.0,0.0,1.0,-0.23779296875,-0.4544677734375,-0.70562744140625,-0.48907470703125,-0.12109375,0.9970703125,0.41748046875,-25.4375,4.4375,-5.875
1.2849999999999946,-4.0,3.0,0.0,3.0,-1.0,-2.0,-1.0,-1.0,-0.23779296875,-0.4544677734375,-0.70562744140625,-0.48907470703125,-0.12109375,0.9970703125,0.41748046875,-25.4375,4.4375,-5.875
1.2899999999999945,-4.0,3.0,0.0,3.0,-1.0,-2.0,-1.0,-1.0,-0.23779296875,-0.4544677734375,-0.70562744140625,-0.48907470703125,-0.12109375,0.9970703125,0.41748046875,-25.4375,4.4375,-5.875
1.2949999999999944,2.0,0.0,-11.0,5.0,13.0,1.0,1.0,-1.0,-0.23394775390625,-0.45068359375,-0.70782470703125,-0.49114990234375,-0.0888671875,0.8251953125,0.49658203125,-32.375,3.3125,-8.1875
1.2999999999999943,2.0,0.0,-11.0,5.0,13.0,1.0,1.0,-1.0,-0.23394775390625,-0.45068359375,-0.70782470703125,-0.49114990234375,-0.0888671875,0.8251953125,0.49658203125,-32.375,3.3125,-8.1875
1.3049999999999942,-1.0,-5.0,-1.0,1.0,4.0,-4.0,1.0,0.0,-0.231689453125,-0.44891357421875,-0.70880126953125,-0.49249267578125,-0.0869140625,0.7998046875,0.55078125,-11.875,3.6875,-7.25
1.309999999999994,-1.0,-10.0,2.0,-2.0,-6.0,-2.0,0.0,-2.0,-0.23089599609375,-0.45074462890625,-0.70672607421875,-0.49407958984375,-0.17626953125,0.8740234375,0.5107421875,9.5,-0.5,-13.3125
1.314999999999994,0.0,13.0,59.0,2.0,19.0,1.0,1.0,-1.0,-0.23004150390625,-0.45147705078125,-0.70513916015625,-0.49609375,-0.19775390625,0.82177734375,0.51220703125,5.0625,-4.0625,-11.0
1.3199999999999938,0.0,0.0,-26.0,-1.0,-16.0,0.0,-1.0,-1.0,-0.23004150390625,-0.45147705078125,-0.70513916015625,-0.49609375,-0.19775390625,0.82177734375,0.51220703125,5.0625,-4.0625,-11.0
1.3249999999999937,1.0,4.0,38.0,-7.0,4.0,-2.0,-1.0,0.0,-0.23052978515625,-0.44976806640625,-0.7052001953125,-0.49737548828125,-0.16259765625,0.63720703125,0.48291015625,-0.0625,-11.4375,2.8125
1.3299999999999936,12.0,9.0,-12.0,3.0,-6.0,2.0,1.0,0.0,-0.23052978515625,-0.44976806640625,-0.7052001953125,-0.49737548828125,-0.16259765625,0.63720703125,0.48291015625,-0.0625,-11.4375,2.8125
1.3349999999999935,-3.0,-22.0,-40.0,-15.0,-25.0,-4.0,-1.0,-1.0,-0.234130859375,-0.4482421875,-0.7049560546875,-0.49737548828125,-0.0703125,0.83935546875,0.50244140625,6.25,-17.8125,8.0625
1.3399999999999934,2.0,10.0,2.0,0.0,6.0,2.0,1.0,-1.0,-0.2366943359375,-0.44573974609375,-0.7054443359375,-0.4976806640625,-0.03955078125,1.0390625,0.45947265625,-12.375,-15.375,4.375
1.3449999999999933,2.0,10.0,2.0,0.0,6.0,2.0,1.0,-1.0,-0.2366943359375,-0.44573974609375,-0.7054443359375,-0.4976806640625,-0.03955078125,1.0390625,0.45947265625,-12.375,-15.375,4.375
1.3499999999999932,-5.0,-15.0,-26.0,3.0,-9.0,-5.0,-2.0,-2.0,-0.23583984375,-0.44097900390625,-0.70721435546875,-0.4998779296875,-0.068359375,0.97314453125,0.49560546875,-33.375,-12.0625,-2.9375
1.354999999999993,-2.0,0.0,6.0,-4.0,-2.0,-2.0,-2.0,-1.0,-0.23541259765625,-0.43817138671875,-0.70770263671875,-0.5018310546875,-0.08740234375,0.83447265625,0.49267578125,-16.375,-9.9375,-4.625
1.359999999999993,-2.0,-12.0,-21.0,4.0,15.0,0.0,-1.0,0.0,-0.2371826171875,-0.43988037109375,-0.70489501953125,-0.50341796875,-0.16259765625,0.85498046875,0.41943359375,12.0625,-12.5,-9.1875
1.3649999999999929,1.0,18.0,8.0,-4.0,-17.0,-4.0,-3.0,-3.0,-0.2371826171875,-0.43988037109375,-0.70489501953125,-0.50341796875,-0.16259765625,0.85498046875,0.41943359375,12.0625,-12.5,-9.1875
1.3699999999999928,1.0,18.0,8.0,-4.0,-17.0,-4.0,-3.0,-3.0,-0.2371826171875,-0.43988037109375,-0.70489501953125,-0.50341796875,-0.16259765625,0.85498046875,0.41943359375,12.0625,-12.5,-9.1875
1.3749999999999927,1.0,18.0,8.0,-4.0,-17.0,-4.0,-3.0,-3.0,-0.2371826171875,-0.43988037109375,-0.70489501953125,-0.50341796875,-0.16259765625,0.85498046875,0.41943359375,12.0625,-12.5,-9.1875
1.3799999999999926,-6.0,-14.0,-11.0,-3.0,-12.0,-3.0,-1.0,-3.0,-0.2371826171875,-0.43988037109375,-0.70489501953125,-0.50341796875,-0.16259765625,0.85498046875,0.41943359375,12.0625,-12.5,-9.1875
1.3849999999999925,-3.0,-5.0,-20.0,3.0,-4.0,-2.0,-1.0,-2.0,-0.240234375,-0.442138671875,-0.70166015625,-0.5045166015625,-0.14111328125,0.89990234375,0.439453125,20.0,-14.4375,-7.625
1.3899999999999924,-2.0,-4.0,-21.0,-11.0,-15.0,-3.0,-1.0,-2.0,-0.2431640625,-0.4443359375,-0.69927978515625,-0.50457763671875,-0.1064453125,0.93505859375,0.431640625,17.3125,-9.375,-3.375
1.3949999999999922,-1.0,-3.0,-30.0,-17.0,14.0,-3.0,-3.0,-2.0,-0.244140625,-0.4451904296875,-0.69720458984375,-0.50616455078125,-0.1376953125,0.876953125,0.4794921875,-0.125,-3.875,-4.9375
1.3999999999999921,-1.0,13.0,36.0,9.0,-1.0,1.0,0.0,0.0,-0.244140625,-0.4451904296875,-0.69720458984375,-0.50616455078125,-0.1376953125,0.876953125,0.4794921875,-0.125,-3.875,-4.9375
1.404999999999992,-3.0,-4.0,-11.0,-9.0,-22.0,-2.0,-1.0,0.0,-0.244873046875,-0.44537353515625,-0.69647216796875,-0.50665283203125,-0.12890625,0.82080078125,0.4990234375,6.5,-5.1875,-0.8125
1.409999999999992,-3.0,-4.0,-11.0,-9.0,-22.0,-2.0,-1.0,0.0,-0.244873046875,-0.44537353515625,-0.69647216796875,-0.50665283203125,-0.12890625,0.82080078125,0.4990234375,6.5,-5.1875,-0.8125
1.4149999999999918,-2.0,10.0,-10.0,21.0,26.0,0.0,0.0,0.0,-0.2467041015625,-0.44683837890625,-0.69500732421875,-0.50653076171875,-0.10009765625,0.8818359375,0.46875,14.125,-4.8125,-2.125
1.4199999999999917,-2.0,-5.0,-10.0,-6.0,-12.0,0.0,-2.0,0.0,-0.2467041015625,-0.44683837890625,-0.69500732421875,-0.50653076171875,-0.10009765625,0.8818359375,0.46875,14.125,-4.8125,-2.125
1.4249999999999916,-2.0,-5.0,-10.0,-6.0,-12.0,0.0,-2.0,0.0,-0.24774169921875,-0.44842529296875,-0.69378662109375,-0.50634765625,-0.12353515625,0.908203125,0.44921875,10.0,-1.5625,-1.625
1.4299999999999915,0.0,0.0,0.0,-11.0,-15.0,-3.0,-2.0,-1.0,-0.24774169921875,-0.44842529296875,-0.69378662109375,-0.50634765625,-0.12353515625,0.908203125,0.44921875,10.0,-1.5625,-1.625
1.4349999999999914,-2.0,-1.0,9.0,-5.0,4.0,-4.0,-3.0,-2.0,-0.247802734375,-0.44873046875,-0.693359375,-0.50653076171875,-0.14697265625,0.84033203125,0.47021484375,2.9375,-1.625,0.25
1.4399999999999913,-2.0,-1.0,9.0,-5.0,4.0,-4.0,-3.0,-2.0,-0.247802734375,-0.44873046875,-0.693359375,-0.50653076171875,-0.14697265625,0.84033203125,0.47021484375,2.9375,-1.625,0.25
1.4449999999999912,0.0,-1.0,2.0,-9.0,-23.0,0.0,1.0,-2.0,-0.2486572265625,-0.4490966796875,-0.69287109375,-0.5064697265625,-0.1142578125,0.85107421875,0.49072265625,7.0625,-2.75,0.75
1.449999999999991,0.0,-1.0,2.0,-9.0,-23.0,0.0,1.0,-2.0,-0.2486572265625,-0.4490966796875,-0.69287109375,-0.5064697265625,-0.1142578125,0.85107421875,0.49072265625,7.0625,-2.75,0.75
1.454999999999991,0.0,-2.0,-13.0,9.0,22.0,5.0,1.0,0.0,-0.2486572265625,-0.4490966796875,-0.69287109375,-0.5064697265625,-0.1142578125,0.85107421875,0.49072265625,7.0625,-2.75,0.75
1.4599999999999909,-1.0,2.0,-8.0,-9.0,-24.0,-4.0,-1.0,0.0,-0.2508544921875,-0.45343017578125,-0.6898193359375,-0.5057373046875,-0.13720703125,0.9130859375,0.40185546875,8.5,0.125,-3.5
1.4649999999999908,-1.0,2.0,-8.0,-9.0,-24.0,-4.0,-1.0,0.0,-0.2508544921875,-0.45343017578125,-0.6898193359375,-0.5057373046875,-0.13720703125,0.9130859375,0.40185546875,8.5,0.125,-3.5
1.4699999999999906,2.0,2.0,-2.0,14.0,-3.0,1.0,0.0,1.0,-0.25164794921875,-0.45428466796875,-0.6888427734375,-0.505859375,-0.11572265625,0.8251953125,0.43505859375,8.1875,-2.5625,-2.125
1.4749999999999905,2.0,2.0,-2.0,14.0,-3.0,1.0,0.0,1.0,-0.25164794921875,-0.45428466796875,-0.6888427734375,-0.505859375,-0.11572265625,0.8251953125,0.43505859375,8.1875,-2.5625,-2.125
1.4799999999999904,-1.0,-3.0,-3.0,0.0,22.0,4.0,0.0,-1.0,-0.25335693359375,-0.4561767578125,-0.6873779296875,-0.50537109375,-0.1005859375,0.82177734375,0.443359375,18.1875,-1.9375,-0.5625
1.4849999999999903,0.0,-3.0,-47.0,3.0,13.0,2.0,0.0,0.0,-0.2550048828125,-0.4586181640625,-0.68560791015625,-0.504638671875,-0.1162109375,0.8798828125,0.43408203125,19.3125,-0.1875,-1.375
1.4899999999999902,0.0,-3.0,-47.0,3.0,13.0,2.0,0.0,0.0,-0.2550048828125,-0.4586181640625,-0.68560791015625,-0.504638671875,-0.1162109375,0.8798828125,0.43408203125,19.3125,-0.1875,-1.375
1.4949999999999901,-4.0,-2.0,43.0,1.0,-6.0,-4.0,-2.0,-2.0,-0.2550048828125,-0.4586181640625,-0.68560791015625,-0.504638671875,-0.1162109375,0.8798828125,0.43408203125,19.3125,-0.1875,-1.375
1.49999999999999,-4.0,-2.0,43.0,1.0,-6.0,-4.0,-2.0,-2.0,-0.2550048828125,-0.4586181640625,-0.68560791015625,-0.504638671875,-0.1162109375,0.8798828125,0.43408203125,19.3125,-0.1875,-1.375
1.50499999999999,-3.0,11.0,-6.0,-14.0,-12.0,-3.0,-1.0,-1.0,-0.255126953125,-0.45953369140625,-0.68536376953125,-0.50408935546875,-0.119140625,0.8837890625,0.5283203125,3.8125,1.8125,1.125
1.5099999999999898,-1.0,0.0,-38.0,-10.0,9.0,-2.0,-1.0,-2.0,-0.25494384765625,-0.4593505859375,-0.68597412109375,-0.50360107421875,-0.09619140625,0.88134765625,0.52099609375,2.625,3.5625,2.4375
1.5149999999999897,-1.0,0.0,-38.0,-10.0,9.0,-2.0,-1.0,-2.0,-0.25494384765625,-0.4593505859375,-0.68646240234375,-0.50286865234375,-0.13037109375,0.857421875,0.47607421875,2.3125,2.375,5.5625
1.5199999999999896,-1.0,0.0,-38.0,-10.0,9.0,-2.0,-1.0,-2.0,-0.25494384765625,-0.4593505859375,-0.68646240234375,-0.50286865234375,-0.13037109375,0.857421875,0.47607421875,2.3125,2.375,5.5625
1.5249999999999895,-5.0,-9.0,-6.0,-11.0,-25.0,-5.0,-3.0,-3.0,-0.25531005859375,-0.4593505859375,-0.6864013671875,-0.50274658203125,-0.1845703125,0.80224609375,0.42041015625,2.6875,-3.8125,6.625
1.5299999999999894,1.0,-4.0,4.0,-3.0,-17.0,-1.0,0.0,0.0,-0.25531005859375,-0.4593505859375,-0.6864013671875,-0.50274658203125,-0.1845703125,0.80224609375,0.42041015625,2.6875,-3.8125,6.625
1.5349999999999893,-3.0,-2.0,0.0,0.0,6.0,-3.0,-2.0,0.0,-0.25677490234375,-0.4583740234375,-0.6861572265625,-0.50323486328125,-0.2509765625,0.63330078125,0.33984375,1.5,-15.5625,13.25
1.5399999999999892,-3.0,-2.0,0.0,0.0,6.0,-3.0,-2.0,0.0,-0.25677490234375,-0.4583740234375,-0.6861572265625,-0.50323486328125,-0.2509765625,0.63330078125,0.33984375,1.5,-15.5625,13.25
1.544999999999989,0.0,4.0,3.0,-5.0,-7.0,0.0,1.0,2.0,-0.26263427734375,-0.4490966796875,-0.6907958984375,-0.5023193359375,0.05078125,0.90625,0.53857421875,-1.75,-21.0,15.4375
1.549999999999989,0.0,-9.0,24.0,-2.0,-3.0,-2.0,5.0,28.0,-0.26263427734375,-0.4490966796875,-0.6907958984375,-0.5023193359375,0.05078125,0.90625,0.53857421875,-1.75,-21.0,15.4375
1.5549999999999888,0.0,-9.0,24.0,-2.0,-3.0,-2.0,5.0,28.0,-0.26263427734375,-0.4490966796875,-0.6907958984375,-0.5023193359375,0.05078125,0.90625,0.53857421875,-1.75,-21.0,15.4375
1.5599999999999887,-5.0,6.0,-2.0,-2.0,-3.0,-2.0,-5.0,-14.0,-0.26593017578125,-0.4447021484375,-0.692626953125,-0.5018310546875,0.052734375,1.05322265625,0.46533203125,-26.5625,0.8125,-5.75
1.5649999999999886,0.0,19.0,0.0,3.0,3.0,0.0,-2.0,-6.0,-0.26593017578125,-0.4447021484375,-0.692626953125,-0.5018310546875,0.052734375,1.05322265625,0.46533203125,-26.5625,0.8125,-5.75
1.5699999999999885,0.0,19.0,0.0,3.0,3.0,0.0,-2.0,-6.0,-0.26409912109375,-0.44183349609375,-0.692626953125,-0.50543212890625,-0.087890625,0.75732421875,0.4853515625,-17.25,-10.5625,-13.4375
1.5749999999999884,0.0,-5.0,-9.0,-11.0,1.0,0.0,-4.0,-6.0,-0.26409912109375,-0.44183349609375,-0.692626953125,-0.50543212890625,-0.087890625,0.75732421875,0.4853515625,-17.25,-10.5625,-13.4375
1.5799999999999883,1.0,5.0,-28.0,-7.0,-7.0,2.0,2.0,0.0,-0.2674560546875,-0.44549560546875,-0.68902587890625,-0.50531005859375,-0.126953125,0.7431640625,0.4130859375,35.125,-9.4375,-3.5
1.5849999999999882,1.0,-4.0,-17.0,2.0,8.0,-1.0,0.0,-4.0,-0.2674560546875,-0.44549560546875,-0.68902587890625,-0.50531005859375,-0.126953125,0.7431640625,0.4130859375,35.125,-9.4375,-3.5
1.589999999999988,1.0,-4.0,-17.0,2.0,8.0,-1.0,0.0,-4.0,-0.27252197265625,-0.45068359375,-0.68487548828125,-0.50360107421875,-0.19189453125,0.86669921875,0.31640625,41.0,-11.4375,6.9375
1.594999999999988,-3.0,-7.0,-1.0,5.0,-10.0,-4.0,1.0,0.0,-0.27252197265625,-0.45068359375,-0.68487548828125,-0.50360107421875,-0.19189453125,0.86669921875,0.31640625,41.0,-11.4375,6.9375
1.5999999999999879,0.0,7.0,-9.0,5.0,0.0,3.0,1.0,-4.0,-0.27569580078125,-0.45196533203125,-0.6829833984375,-0.50335693359375,-0.15771484375,0.88623046875,0.38916015625,16.625,-13.6875,6.5
1.6049999999999878,0.0,7.0,-9.0,5.0,0.0,3.0,1.0,-4.0,-0.27569580078125,-0.45196533203125,-0.6829833984375,-0.50335693359375,-0.15771484375,0.88623046875,0.38916015625,16.625,-13.6875,6.5
1.6099999999999877,-2.0,-8.0,-12.0,-7.0,-10.0,-3.0,-3.0,-1.0,-0.27569580078125,-0.45196533203125,-0.6829833984375,-0.50335693359375,-0.15771484375,0.88623046875,0.38916015625,16.625,-13.6875,6.5
1.6149999999999876,-1.0,1.0,31.0,3.0,14.0,-1.0,0.0,4.0,-0.2784423828125,-0.4488525390625,-0.68267822265625,-0.50506591796875,-0.11962890625,0.90380859375,0.439453125,-7.375,-13.375,5.0
1.6199999999999875,-1.0,-4.0,-29.0,-8.0,-8.0,-4.0,-3.0,-2.0,-0.2784423828125,-0.4488525390625,-0.68267822265625,-0.50506591796875,-0.11962890625,0.90380859375,0.439453125,-7.375,-13.375,5.0
1.6249999999999873,-1.0,-4.0,-29.0,-8.0,-8.0,-4.0,-3.0,-2.0,-0.27911376953125,-0.44744873046875,-0.68267822265625,-0.50592041015625,-0.10009765625,0.88232421875,0.4052734375,-7.0625,-10.125,2.5
1.6299999999999872,-1.0,-1.0,8.0,15.0,0.0,0.0,-1.0,3.0,-0.27911376953125,-0.44744873046875,-0.68267822265625,-0.50592041015625,-0.10009765625,0.88232421875,0.4052734375,-7.0625,-10.125,2.5
1.6349999999999871,-1.0,-1.0,8.0,15.0,0.0,0.0,-1.0,3.0,-0.27911376953125,-0.44744873046875,-0.68267822265625,-0.50592041015625,-0.10009765625,0.88232421875,0.4052734375,-7.0625,-10.125,2.5
1.639999999999987,-1.0,-1.0,8.0,15.0,0.0,0.0,-1.0,3.0,-0.27911376953125,-0.44744873046875,-0.68267822265625,-0.50592041015625,-0.10009765625,0.88232421875,0.4052734375,-7.0625,-10.125,2.5
1.644999999999987,-3.0,0.0,31.0,-3.0,8.0,0.0,-2.0,2.0,-0.27960205078125,-0.4468994140625,-0.68267822265625,-0.506103515625,-0.09912109375,0.87109375,0.41357421875,3.75,-1.125,2.3125
1.6499999999999868,-1.0,3.0,29.0,-3.0,-8.0,0.0,-2.0,4.0,-0.27960205078125,-0.4468994140625,-0.68267822265625,-0.506103515625,-0.09912109375,0.87109375,0.41357421875,3.75,-1.125,2.3125
1.6549999999999867,0.0,17.0,-8.0,0.0,-3.0,-1.0,-2.0,-2.0,-0.2796630859375,-0.44781494140625,-0.68206787109375,-0.506103515625,-0.08837890625,0.91748046875,0.4228515625,3.5,0.9375,-2.3125
1.6599999999999866,0.0,17.0,-8.0,0.0,-3.0,-1.0,-2.0,-2.0,-0.2796630859375,-0.44781494140625,-0.68206787109375,-0.506103515625,-0.08837890625,0.91748046875,0.4228515625,3.5,0.9375,-2.3125
1.6649999999999865,0.0,-7.0,-11.0,-4.0,-4.0,1.0,0.0,-3.0,-0.2769775390625,-0.44830322265625,-0.68194580078125,-0.50732421875,-0.119140625,0.88037109375,0.4697265625,-2.125,3.75,-4.8125
1.6699999999999864,-2.0,3.0,-1.0,-4.0,6.0,-2.0,-2.0,-1.0,-0.2769775390625,-0.44830322265625,-0.68194580078125,-0.50732421875,-0.119140625,0.88037109375,0.4697265625,-2.125,3.75,-4.8125
1.6749999999999863,-3.0,-13.0,-32.0,-14.0,-23.0,-1.0,0.0,1.0,-0.27532958984375,-0.448974609375,-0.68182373046875,-0.5078125,-0.12744140625,0.873046875,0.482421875,0.3125,5.9375,-4.5625
1.6799999999999862,-1.0,-5.0,-24.0,-13.0,0.0,-4.0,-2.0,-2.0,-0.27532958984375,-0.448974609375,-0.68182373046875,-0.5078125,-0.12744140625,0.873046875,0.482421875,0.3125,5.9375,-4.5625
1.684999999999986,-1.0,-5.0,-24.0,-13.0,0.0,-4.0,-2.0,-2.0,-0.27532958984375,-0.448974609375,-0.68182373046875,-0.5078125,-0.12744140625,0.873046875,0.482421875,0.3125,5.9375,-4.5625
1.689999999999986,0.0,-2.0,-5.0,8.0,2.0,-3.0,-2.0,-1.0,-0.27178955078125,-0.4500732421875,-0.68206787109375,-0.5084228515625,-0.12744140625,0.8818359375,0.48388671875,-2.75,6.0,-3.875
1.6949999999999859,-1.0,3.0,7.0,0.0,-5.0,-2.0,-1.0,-1.0,-0.27178955078125,-0.4500732421875,-0.68206787109375,-0.5084228515625,-0.12744140625,0.8818359375,0.48388671875,-2.75,6.0,-3.875
1.6999999999999857,2.0,-2.0,0.0,-3.0,-1.0,-2.0,-1.0,0.0,-0.27178955078125,-0.4500732421875,-0.68206787109375,-0.5084228515625,-0.12744140625,0.8818359375,0.48388671875,-2.75,6.0,-3.875
1.7049999999999856,2.0,-2.0,0.0,-3.0,-1.0,-2.0,-1.0,0.0,-0.26983642578125,-0.449462890625,-0.68255615234375,-0.50927734375,-0.111328125,0.88916015625,0.48388671875,-8.6875,3.875,-4.5625
1.7099999999999855,-3.0,-8.0,23.0,0.0,5.0,1.0,-1.0,-2.0,-0.26763916015625,-0.4478759765625,-0.68359375,-0.51043701171875,-0.10205078125,0.87255859375,0.47705078125,-15.3125,2.375,-4.0
1.7149999999999854,-3.0,-8.0,23.0,0.0,5.0,1.0,-1.0,-2.0,-0.26544189453125,-0.445556640625,-0.68511962890625,-0.5115966796875,-0.087890625,0.84619140625,0.48046875,-19.0,1.375,-2.4375
1.7199999999999853,-3.0,-8.0,23.0,0.0,5.0,1.0,-1.0,-2.0,-0.26544189453125,-0.445556640625,-0.68511962890625,-0.5115966796875,-0.087890625,0.84619140625,0.48046875,-19.0,1.375,-2.4375
1.7249999999999852,3.0,10.0,-9.0,5.0,-1.0,0.0,-1.0,1.0,-0.26544189453125,-0.445556640625,-0.68511962890625,-0.5115966796875,-0.087890625,0.84619140625,0.48046875,-19.0,1.375,-2.4375
1.729999999999985,3.0,10.0,-9.0,5.0,-1.0,0.0,-1.0,1.0,-0.26544189453125,-0.445556640625,-0.68511962890625,-0.5115966796875,-0.087890625,0.84619140625,0.48046875,-19.0,1.375,-2.4375
1.734999999999985,3.0,10.0,-9.0,5.0,-1.0,0.0,-1.0,1.0,-0.26544189453125,-0.445556640625,-0.68511962890625,-0.5115966796875,-0.087890625,0.84619140625,0.48046875,-19.0,1.375,-2.4375
1.739999999999985,-3.0,-6.0,8.0,7.0,-22.0,1.0,1.0,-1.0,-0.2625732421875,-0.44195556640625,-0.6876220703125,-0.512939453125,-0.08349609375,0.86669921875,0.46337890625,-12.75,0.4375,-0.625
1.7449999999999848,-3.0,-6.0,8.0,7.0,-22.0,1.0,1.0,-1.0,-0.2618408203125,-0.44049072265625,-0.688232421875,-0.513671875,-0.0830078125,0.8828125,0.45556640625,-12.0625,-2.25,-1.1875
1.7499999999999847,-3.0,-6.0,8.0,7.0,-22.0,1.0,1.0,-1.0,-0.2618408203125,-0.44049072265625,-0.688232421875,-0.513671875,-0.0830078125,0.8828125,0.45556640625,-12.0625,-2.25,-1.1875
1.7549999999999846,-1.0,12.0,3.0,-3.0,5.0,-1.0,0.0,-1.0,-0.2618408203125,-0.44049072265625,-0.688232421875,-0.513671875,-0.0830078125,0.8828125,0.45556640625,-12.0625,-2.25,-1.1875
1.7599999999999845,-1.0,0.0,-22.0,-6.0,-6.0,-2.0,-3.0,-1.0,-0.260498046875,-0.43804931640625,-0.689453125,-0.51483154296875,-0.07080078125,0.87451171875,0.43505859375,-11.125,0.5,-2.0
1.7649999999999844,-1.0,0.0,-22.0,-6.0,-6.0,-2.0,-3.0,-1.0,-0.259765625,-0.4375,-0.6898193359375,-0.51513671875,-0.0927734375,0.85498046875,0.43896484375,-7.6875,0.5625,-1.1875
1.7699999999999843,-2.0,-11.0,0.0,5.0,6.0,-1.0,1.0,-1.0,-0.259765625,-0.4375,-0.6898193359375,-0.51513671875,-0.0927734375,0.85498046875,0.43896484375,-7.6875,0.5625,-1.1875
1.7749999999999841,-2.0,-11.0,0.0,5.0,6.0,-1.0,1.0,-1.0,-0.259765625,-0.4375,-0.6898193359375,-0.51513671875,-0.0927734375,0.85498046875,0.43896484375,-7.6875,0.5625,-1.1875
1.779999999999984,-2.0,-11.0,0.0,5.0,6.0,-1.0,1.0,-1.0,-0.259765625,-0.4375,-0.6898193359375,-0.51513671875,-0.0927734375,0.85498046875,0.43896484375,-7.6875,0.5625,-1.1875
1.784999999999984,0.0,-2.0,-5.0,-6.0,-26.0,1.0,0.0,0.0,-0.2603759765625,-0.43731689453125,-0.6893310546875,-0.515625,-0.07421875,0.87890625,0.4580078125,-0.375,-2.75,-1.5
1.7899999999999838,-7.0,-3.0,20.0,-8.0,-13.0,-2.0,-1.0,-1.0,-0.2603759765625,-0.43731689453125,-0.6893310546875,-0.515625,-0.07421875,0.87890625,0.4580078125,-0.375,-2.75,-1.5
1.7949999999999837,-7.0,-3.0,20.0,-8.0,-13.0,-2.0,-1.0,-1.0,-0.2603759765625,-0.43731689453125,-0.6893310546875,-0.515625,-0.07421875,0.87890625,0.4580078125,-0.375,-2.75,-1.5
1.7999999999999836,-1.0,0.0,-16.0,-23.0,-52.0,-11.0,-4.0,-5.0,-0.2608642578125,-0.4371337890625,-0.6893310546875,-0.51556396484375,-0.0634765625,0.86279296875,0.45703125,-0.4375,-1.5625,0.125
1.8049999999999835,-8.0,2.0,2.0,-23.0,-30.0,-9.0,5.0,18.0,-0.26129150390625,-0.43682861328125,-0.689453125,-0.51544189453125,-0.078125,0.87060546875,0.46337890625,-1.1875,-1.8125,1.5625
1.8099999999999834,-2.0,2.0,7.0,-9.0,-18.0,-7.0,-3.0,1.0,-0.26190185546875,-0.4366455078125,-0.6893310546875,-0.515380859375,-0.08349609375,0.88525390625,0.45166015625,-0.9375,-3.0625,1.1875
1.8149999999999833,-4.0,-13.0,5.0,8.0,23.0,6.0,1.0,-1.0,-0.261962890625,-0.43572998046875,-0.6898193359375,-0.51556396484375,-0.06787109375,0.8525390625,0.4736328125,-4.8125,-1.9375,1.25
1.8199999999999832,0.0,15.0,30.0,19.0,43.0,5.0,-1.0,-2.0,-0.261962890625,-0.43572998046875,-0.6898193359375,-0.51556396484375,-0.06787109375,0.8525390625,0.4736328125,-4.8125,-1.9375,1.25
1.824999999999983,-3.0,-5.0,-17.0,9.0,22.0,-2.0,-2.0,-4.0,-0.26251220703125,-0.43572998046875,-0.68963623046875,-0.51544189453125,-0.08447265625,0.84912109375,0.47314453125,2.5,-2.1875,1.25
1.829999999999983,-3.0,-5.0,-17.0,9.0,22.0,-2.0,-2.0,-4.0,-0.26251220703125,-0.43572998046875,-0.68963623046875,-0.51544189453125,-0.08447265625,0.84912109375,0.47314453125,2.5,-2.1875,1.25
1.8349999999999829,4.0,6.0,1.0,-18.0,-33.0,-1.0,-4.0,-2.0,-0.26348876953125,-0.43585205078125,-0.68939208984375,-0.5152587890625,-0.10009765625,0.86083984375,0.44921875,2.5625,-3.9375,2.9375
1.8399999999999828,4.0,6.0,1.0,-18.0,-33.0,-1.0,-4.0,-2.0,-0.26434326171875,-0.4351806640625,-0.68927001953125,-0.51556396484375,-0.1083984375,0.87060546875,0.4560546875,-1.8125,-7.25,3.0625
1.8449999999999827,2.0,-2.0,15.0,13.0,-10.0,3.0,-3.0,-4.0,-0.26495361328125,-0.43389892578125,-0.68927001953125,-0.5162353515625,-0.08642578125,0.84521484375,0.4736328125,-3.9375,-8.3125,1.375
1.8499999999999825,7.0,-1.0,4.0,60.0,48.0,12.0,8.0,8.0,-0.26495361328125,-0.43389892578125,-0.68927001953125,-0.5162353515625,-0.08642578125,0.84521484375,0.4736328125,-3.9375,-8.3125,1.375
1.8549999999999824,-11.0,-15.0,-10.0,-43.0,-100.0,-11.0,2.0,-13.0,-0.2666015625,-0.4334716796875,-0.688720703125,-0.51654052734375,-0.08154296875,0.83935546875,0.478515625,4.6875,-9.4375,2.0625
1.8599999999999823,-11.0,-15.0,-10.0,-43.0,-100.0,-11.0,2.0,-13.0,-0.2666015625,-0.4334716796875,-0.688720703125,-0.51654052734375,-0.08154296875,0.83935546875,0.478515625,4.6875,-9.4375,2.0625
1.8649999999999822,6.0,2.0,8.0,-6.0,-43.0,-3.0,0.0,-3.0,-0.2705078125,-0.4344482421875,-0.68670654296875,-0.51641845703125,-0.10107421875,0.86865234375,0.4765625,12.5,-8.5,4.0
1.8699999999999821,17.0,10.0,44.0,20.0,105.0,2.0,-1.0,5.0,-0.2705078125,-0.4344482421875,-0.68670654296875,-0.51641845703125,-0.10107421875,0.86865234375,0.4765625,12.5,-8.5,4.0
1.874999999999982,16.0,1.0,15.0,13.0,34.0,8.0,4.0,9.0,-0.27227783203125,-0.43438720703125,-0.686279296875,-0.51605224609375,-0.0869140625,0.9140625,0.451171875,4.0,-7.4375,5.4375
1.879999999999982,16.0,1.0,15.0,13.0,34.0,8.0,4.0,9.0,-0.27227783203125,-0.43438720703125,-0.686279296875,-0.51605224609375,-0.0869140625,0.9140625,0.451171875,4.0,-7.4375,5.4375
1.8849999999999818,-4.0,0.0,8.0,58.0,94.0,18.0,0.0,-12.0,-0.27325439453125,-0.43365478515625,-0.6859130859375,-0.5166015625,-0.076171875,0.88134765625,0.47412109375,-0.125,-7.875,0.375
1.8899999999999817,-2.0,4.0,3.0,-2.0,-11.0,-6.0,2.0,6.0,-0.27325439453125,-0.43365478515625,-0.6859130859375,-0.5166015625,-0.076171875,0.88134765625,0.47412109375,-0.125,-7.875,0.375
1.8949999999999816,-6.0,-6.0,-20.0,-10.0,-12.0,-2.0,0.0,2.0,-0.27374267578125,-0.43304443359375,-0.6856689453125,-0.5172119140625,-0.06591796875,0.84130859375,0.46826171875,-0.6875,-5.5,-1.1875
1.8999999999999815,-6.0,-6.0,-20.0,-10.0,-12.0,-2.0,0.0,2.0,-0.2735595703125,-0.432861328125,-0.685546875,-0.517578125,-0.0849609375,0.8310546875,0.46142578125,-0.6875,-1.625,-1.25
1.9049999999999814,-3.0,-7.0,-36.0,-9.0,-22.0,-7.0,0.0,-2.0,-0.27349853515625,-0.43310546875,-0.6854248046875,-0.51763916015625,-0.10595703125,0.8515625,0.451171875,0.1875,-0.5625,1.0
1.9099999999999813,-15.0,-7.0,3.0,-21.0,-11.0,-1.0,-1.0,-5.0,-0.27362060546875,-0.43310546875,-0.68511962890625,-0.5179443359375,-0.09033203125,0.87890625,0.4638671875,0.0,-2.375,-0.625
1.9149999999999812,-2.0,-17.0,-5.0,-4.0,-23.0,6.0,5.0,4.0,-0.27362060546875,-0.43310546875,-0.68511962890625,-0.5179443359375,-0.09033203125,0.87890625,0.4638671875,0.0,-2.375,-0.625
1.919999999999981,-2.0,-17.0,-5.0,-4.0,-23.0,6.0,5.0,4.0,-0.27362060546875,-0.43310546875,-0.68511962890625,-0.5179443359375,-0.09033203125,0.87890625,0.4638671875,0.0,-2.375,-0.625
1.924999999999981,-2.0,-17.0,-5.0,-4.0,-23.0,6.0,5.0,4.0,-0.27362060546875,-0.43310546875,-0.68511962890625,-0.5179443359375,-0.09033203125,0.87890625,0.4638671875,0.0,-2.375,-0.625
1.9299999999999808,0.0,-4.0,6.0,8.0,-1.0,-3.0,1.0,3.0,-0.27362060546875,-0.43280029296875,-0.68499755859375,-0.518310546875,-0.07568359375,0.87353515625,0.4560546875,-2.625,-2.125,-1.375
1.9349999999999807,0.0,-4.0,6.0,8.0,-1.0,-3.0,1.0,3.0,-0.27301025390625,-0.4320068359375,-0.68548583984375,-0.51873779296875,-0.078125,0.85986328125,0.46728515625,-7.125,-0.5,-0.3125
1.9399999999999806,-9.0,1.0,-5.0,3.0,25.0,1.0,0.0,-1.0,-0.2724609375,-0.4312744140625,-0.68603515625,-0.51885986328125,-0.06591796875,0.84912109375,0.4736328125,-5.5,0.875,0.8125
1.9449999999999805,-9.0,1.0,-5.0,3.0,25.0,1.0,0.0,-1.0,-0.2724609375,-0.4312744140625,-0.68603515625,-0.51885986328125,-0.06591796875,0.84912109375,0.4736328125,-5.5,0.875,0.8125
1.9499999999999804,-9.0,1.0,-5.0,3.0,25.0,1.0,0.0,-1.0,-0.2724609375,-0.4312744140625,-0.68603515625,-0.51885986328125,-0.06591796875,0.84912109375,0.4736328125,-5.5,0.875,0.8125
1.9549999999999803,2.0,0.0,-10.0,34.0,74.0,8.0,9.0,37.0,-0.27239990234375,-0.431640625,-0.68621826171875,-0.51837158203125,-0.0673828125,0.84326171875,0.45556640625,1.0625,2.75,1.125
1.9599999999999802,-11.0,-4.0,-11.0,-27.0,-41.0,-8.0,-4.0,-14.0,-0.27203369140625,-0.4320068359375,-0.6861572265625,-0.51837158203125,-0.0927734375,0.8408203125,0.4599609375,0.3125,1.6875,-0.3125
1.96499999999998,15.0,7.0,30.0,31.0,-10.0,11.0,-4.0,10.0,-0.27215576171875,-0.43231201171875,-0.6856689453125,-0.5186767578125,-0.09326171875,0.8583984375,0.45703125,1.9375,-1.6875,-1.4375
1.96999999999998,15.0,7.0,30.0,31.0,-10.0,11.0,-4.0,10.0,-0.27215576171875,-0.43231201171875,-0.6856689453125,-0.5186767578125,-0.09326171875,0.8583984375,0.45703125,1.9375,-1.6875,-1.4375
1.9749999999999799,-1.0,-1.0,4.0,5.0,2.0,-1.0,-2.0,-6.0,-0.27215576171875,-0.43231201171875,-0.6856689453125,-0.5186767578125,-0.09326171875,0.8583984375,0.45703125,1.9375,-1.6875,-1.4375
1.9799999999999798,6.0,1.0,-23.0,-25.0,-37.0,-6.0,0.0,-1.0,-0.27191162109375,-0.43182373046875,-0.6854248046875,-0.51953125,-0.0712890625,0.861328125,0.48046875,-4.0625,-0.6875,-2.125
1.9849999999999797,-1.0,7.0,33.0,6.0,4.0,0.0,-2.0,-2.0,-0.27191162109375,-0.43182373046875,-0.6854248046875,-0.51953125,-0.0712890625,0.861328125,0.48046875,-4.0625,-0.6875,-2.125
1.9899999999999796,-1.0,7.0,33.0,6.0,4.0,0.0,-2.0,-2.0,-0.271484375,-0.431396484375,-0.68548583984375,-0.52001953125,-0.08740234375,0.8427734375,0.4873046875,-2.5625,-1.125,-1.25
1.9949999999999795,-1.0,7.0,33.0,6.0,4.0,0.0,-2.0,-2.0,-0.271484375,-0.431396484375,-0.68548583984375,-0.52001953125,-0.08740234375,0.8427734375,0.4873046875,-2.5625,-1.125,-1.25
1.9999999999999793,2.0,3.0,-6.0,6.0,-9.0,-9.0,-3.0,-3.0,-0.27166748046875,-0.4317626953125,-0.68511962890625,-0.52008056640625,-0.08837890625,0.8486328125,0.470703125,3.0625,-0.875,-0.875
2.0049999999999795,1.0,-2.0,-13.0,8.0,18.0,8.0,0.0,-2.0,-0.27227783203125,-0.4322509765625,-0.68450927734375,-0.5201416015625,-0.0810546875,0.87109375,0.45703125,4.0,-2.4375,-0.9375
2.0099999999999794,2.0,13.0,10.0,-14.0,-33.0,-2.0,-7.0,3.0,-0.27227783203125,-0.4322509765625,-0.68450927734375,-0.5201416015625,-0.0810546875,0.87109375,0.45703125,4.0,-2.4375,-0.9375
2.0149999999999793,2.0,13.0,10.0,-14.0,-33.0,-2.0,-7.0,3.0,-0.2724609375,-0.432373046875,-0.68414306640625,-0.52044677734375,-0.07568359375,0.87451171875,0.45849609375,0.4375,-1.625,-2.125
2.019999999999979,6.0,1.0,10.0,15.0,34.0,3.0,3.0,4.0,-0.2724609375,-0.432373046875,-0.68414306640625,-0.52044677734375,-0.07568359375,0.87451171875,0.45849609375,0.4375,-1.625,-2.125
2.024999999999979,-4.0,0.0,-12.0,-5.0,-8.0,-3.0,-1.0,0.0,-0.2724609375,-0.432373046875,-0.683837890625,-0.52093505859375,-0.0859375,0.86474609375,0.46533203125,-0.5625,-1.9375,-2.375
2.029999999999979,2.0,10.0,15.0,-3.0,-10.0,3.0,7.0,20.0,-0.27264404296875,-0.4322509765625,-0.6834716796875,-0.5213623046875,-0.0849609375,0.85595703125,0.4716796875,0.625,-3.0,-1.75
2.034999999999979,-1.0,-1.0,-39.0,5.0,15.0,-1.0,1.0,1.0,-0.27264404296875,-0.4322509765625,-0.6834716796875,-0.5213623046875,-0.0849609375,0.85595703125,0.4716796875,0.625,-3.0,-1.75
2.0399999999999787,-1.0,-1.0,-39.0,5.0,15.0,-1.0,1.0,1.0,-0.27264404296875,-0.4322509765625,-0.6834716796875,-0.5213623046875,-0.0849609375,0.85595703125,0.4716796875,0.625,-3.0,-1.75
2.0449999999999786,-1.0,-1.0,-39.0,5.0,15.0,-1.0,1.0,1.0,-0.27264404296875,-0.4322509765625,-0.6834716796875,-0.5213623046875,-0.0849609375,0.85595703125,0.4716796875,0.625,-3.0,-1.75
2.0499999999999785,0.0,-5.0,-1.0,-11.0,-4.0,3.0,-2.0,-13.0,-0.273193359375,-0.4322509765625,-0.68292236328125,-0.521728515625,-0.07861328125,0.859375,0.47998046875,3.125,-4.0,-1.5
2.0549999999999784,-1.0,7.0,-4.0,4.0,-1.0,3.0,1.0,-2.0,-0.27386474609375,-0.432373046875,-0.682373046875,-0.52197265625,-0.07421875,0.86572265625,0.47314453125,3.625,-3.8125,-1.375
2.0599999999999783,-1.0,7.0,-4.0,4.0,-1.0,3.0,1.0,-2.0,-0.27386474609375,-0.432373046875,-0.682373046875,-0.52197265625,-0.07421875,0.86572265625,0.47314453125,3.625,-3.8125,-1.375
2.064999999999978,0.0,-7.0,-10.0,-12.0,-44.0,-5.0,-6.0,-7.0,-0.27386474609375,-0.432373046875,-0.682373046875,-0.52197265625,-0.07421875,0.86572265625,0.47314453125,3.625,-3.8125,-1.375
2.069999999999978,-2.0,-5.0,-3.0,-6.0,5.0,-3.0,-3.0,-27.0,-0.27435302734375,-0.43243408203125,-0.6820068359375,-0.522216796875,-0.07958984375,0.8642578125,0.453125,1.0625,-2.875,-0.6875
2.074999999999978,-6.0,-2.0,10.0,-3.0,14.0,-4.0,-3.0,-7.0,-0.27447509765625,-0.43218994140625,-0.681884765625,-0.5224609375,-0.08056640625,0.85986328125,0.45751953125,-1.0625,-2.25,-0.375
2.079999999999978,0.0,-4.0,-15.0,0.0,-7.0,0.0,1.0,0.0,-0.274658203125,-0.43206787109375,-0.68170166015625,-0.522705078125,-0.08447265625,0.86279296875,0.4677734375,0.0,-2.25,-0.4375
2.0849999999999778,-3.0,-9.0,-1.0,-21.0,-28.0,-10.0,-3.0,3.0,-0.2750244140625,-0.43206787109375,-0.681396484375,-0.52294921875,-0.08447265625,0.8603515625,0.46630859375,1.375,-2.875,-0.6875
2.0899999999999777,-3.0,-9.0,-1.0,-21.0,-28.0,-10.0,-3.0,3.0,-0.2750244140625,-0.43206787109375,-0.681396484375,-0.52294921875,-0.08447265625,0.8603515625,0.46630859375,1.375,-2.875,-0.6875
2.0949999999999775,-3.0,-9.0,-1.0,-21.0,-28.0,-10.0,-3.0,3.0,-0.2750244140625,-0.43206787109375,-0.681396484375,-0.52294921875,-0.08447265625,0.8603515625,0.46630859375,1.375,-2.875,-0.6875
2.0999999999999774,-3.0,-9.0,-1.0,-21.0,-28.0,-10.0,-3.0,3.0,-0.2750244140625,-0.43206787109375,-0.681396484375,-0.52294921875,-0.08447265625,0.8603515625,0.46630859375,1.375,-2.875,-0.6875
2.1049999999999773,-1.0,3.0,24.0,6.0,15.0,-1.0,0.0,4.0,-0.2750244140625,-0.43206787109375,-0.681396484375,-0.52294921875,-0.08447265625,0.8603515625,0.46630859375,1.375,-2.875,-0.6875
2.1099999999999772,1.0,2.0,5.0,2.0,8.0,-1.0,1.0,4.0,-0.27545166015625,-0.4326171875,-0.68072509765625,-0.523193359375,-0.08740234375,0.86328125,0.4736328125,1.1875,-0.875,-1.0
2.114999999999977,15.0,0.0,3.0,2.0,17.0,-2.0,-7.0,-2.0,-0.275390625,-0.43255615234375,-0.68060302734375,-0.5234375,-0.0888671875,0.87109375,0.474609375,0.0625,-1.125,-0.5
2.119999999999977,-5.0,-7.0,-61.0,5.0,13.0,7.0,2.0,3.0,-0.27532958984375,-0.43243408203125,-0.6805419921875,-0.52362060546875,-0.09130859375,0.859375,0.470703125,-0.75,-1.125,-0.125
2.124999999999977,0.0,2.0,5.0,0.0,7.0,0.0,1.0,5.0,-0.27532958984375,-0.43243408203125,-0.6805419921875,-0.52362060546875,-0.09130859375,0.859375,0.470703125,-0.75,-1.125,-0.125
2.129999999999977,1.0,-4.0,-3.0,-2.0,1.0,2.0,-1.0,4.0,-0.27557373046875,-0.4326171875,-0.68023681640625,-0.52374267578125,-0.08544921875,0.85986328125,0.47314453125,2.6875,-1.625,-0.375
2.1349999999999767,1.0,-4.0,-3.0,-2.0,1.0,2.0,-1.0,4.0,-0.27557373046875,-0.4326171875,-0.68023681640625,-0.52374267578125,-0.08544921875,0.85986328125,0.47314453125,2.6875,-1.625,-0.375
2.1399999999999766,1.0,-4.0,-3.0,-2.0,1.0,2.0,-1.0,4.0,-0.2760009765625,-0.43304443359375,-0.67987060546875,-0.52362060546875,-0.08935546875,0.865234375,0.46044921875,3.5,-0.9375,0.3125
2.1449999999999765,1.0,-4.0,-3.0,-2.0,1.0,2.0,-1.0,4.0,-0.2760009765625,-0.43304443359375,-0.67987060546875,-0.52362060546875,-0.08935546875,0.865234375,0.46044921875,3.5,-0.9375,0.3125
2.1499999999999764,-5.0,-8.0,-4.0,10.0,26.0,4.0,1.0,-4.0,-0.27618408203125,-0.4329833984375,-0.67974853515625,-0.52374267578125,-0.08837890625,0.8662109375,0.4638671875,0.25,-1.6875,0.5
2.1549999999999763,0.0,-2.0,5.0,20.0,-8.0,5.0,-1.0,-1.0,-0.2769775390625,-0.43292236328125,-0.67938232421875,-0.52386474609375,-0.08154296875,0.8603515625,0.47607421875,2.5,-2.0625,0.1875
2.159999999999976,-13.0,-6.0,16.0,-6.0,4.0,-4.0,-6.0,-18.0,-0.27716064453125,-0.43304443359375,-0.67919921875,-0.52386474609375,-0.09228515625,0.86572265625,0.46923828125,1.875,-1.0625,0.75
2.164999999999976,-13.0,-6.0,16.0,-6.0,4.0,-4.0,-6.0,-18.0,-0.27716064453125,-0.43304443359375,-0.67919921875,-0.52386474609375,-0.09228515625,0.86572265625,0.46923828125,1.875,-1.0625,0.75
2.169999999999976,-6.0,-7.0,-8.0,-8.0,-14.0,-2.0,1.0,3.0,-0.2772216796875,-0.43304443359375,-0.67919921875,-0.5238037109375,-0.09130859375,0.859375,0.47021484375,0.6875,-0.6875,1.1875
2.174999999999976,-6.0,-7.0,-8.0,-8.0,-14.0,-2.0,1.0,3.0,-0.2772216796875,-0.43304443359375,-0.67919921875,-0.5238037109375,-0.09130859375,0.859375,0.47021484375,0.6875,-0.6875,1.1875
2.1799999999999757,-6.0,-7.0,-17.0,-3.0,16.0,-1.0,-4.0,1.0,-0.27752685546875,-0.43316650390625,-0.6790771484375,-0.52374267578125,-0.09130859375,0.86328125,0.4619140625,1.875,-1.375,1.1875
2.1849999999999756,11.0,2.0,1.0,-2.0,-6.0,-3.0,1.0,6.0,-0.27777099609375,-0.43310546875,-0.67889404296875,-0.52392578125,-0.08935546875,0.865234375,0.46435546875,0.625,-2.3125,0.25
2.1899999999999755,-4.0,-4.0,-7.0,-12.0,-16.0,0.0,0.0,4.0,-0.27777099609375,-0.43310546875,-0.67889404296875,-0.52392578125,-0.08935546875,0.865234375,0.46435546875,0.625,-2.3125,0.25
2.1949999999999754,0.0,-1.0,81.0,21.0,-2.0,-3.0,0.0,-2.0,-0.2779541015625,-0.432861328125,-0.67877197265625,-0.524169921875,-0.080078125,0.85888671875,0.46923828125,0.125,-2.3125,0.0625
2.1999999999999753,0.0,-1.0,81.0,21.0,-2.0,-3.0,0.0,-2.0,-0.2779541015625,-0.432861328125,-0.67877197265625,-0.524169921875,-0.080078125,0.85888671875,0.46923828125,0.125,-2.3125,0.0625
2.204999999999975,0.0,-1.0,81.0,21.0,-2.0,-3.0,0.0,-2.0,-0.278076171875,-0.43267822265625,-0.67877197265625,-0.52423095703125,-0.07666015625,0.8623046875,0.4677734375,-0.1875,-1.5,0.1875
2.209999999999975,7.0,-3.0,-31.0,-2.0,-9.0,3.0,1.0,3.0,-0.2783203125,-0.43292236328125,-0.67852783203125,-0.5242919921875,-0.08837890625,0.857421875,0.46484375,2.375,-1.1875,0.1875
2.214999999999975,-11.0,-8.0,-1.0,-17.0,-6.0,-5.0,-2.0,-15.0,-0.2783203125,-0.43292236328125,-0.67852783203125,-0.5242919921875,-0.08837890625,0.857421875,0.46484375,2.375,-1.1875,0.1875
2.219999999999975,-2.0,1.0,-3.0,33.0,29.0,2.0,1.0,5.0,-0.2783203125,-0.43292236328125,-0.67852783203125,-0.5242919921875,-0.08837890625,0.857421875,0.46484375,2.375,-1.1875,0.1875
2.2249999999999748,-2.0,1.0,-3.0,33.0,29.0,2.0,1.0,5.0,-0.278564453125,-0.43304443359375,-0.67822265625,-0.52435302734375,-0.0859375,0.8583984375,0.4677734375,2.5,-1.625,0.0625
2.2299999999999747,-2.0,1.0,-3.0,33.0,29.0,2.0,1.0,5.0,-0.278564453125,-0.43304443359375,-0.67822265625,-0.52435302734375,-0.0859375,0.8583984375,0.4677734375,2.5,-1.625,0.0625
2.2349999999999746,4.0,14.0,-3.0,-5.0,-14.0,2.0,0.0,-10.0,-0.278564453125,-0.43304443359375,-0.67822265625,-0.52435302734375,-0.0859375,0.8583984375,0.4677734375,2.5,-1.625,0.0625
2.2399999999999745,0.0,13.0,19.0,-28.0,14.0,-6.0,-41.0,-39.0,-0.27899169921875,-0.43304443359375,-0.677978515625,-0.52447509765625,-0.08544921875,0.880859375,0.45849609375,0.9375,-2.5,0.375
2.2449999999999743,0.0,13.0,19.0,-28.0,14.0,-6.0,-41.0,-39.0,-0.27899169921875,-0.43304443359375,-0.677978515625,-0.52447509765625,-0.08544921875,0.880859375,0.45849609375,0.9375,-2.5,0.375
2.2499999999999742,1.0,9.0,-28.0,23.0,47.0,25.0,-17.0,-19.0,-0.27899169921875,-0.4327392578125,-0.677978515625,-0.52471923828125,-0.0830078125,0.87353515625,0.46484375,-1.625,-2.125,-0.125
2.254999999999974,1.0,9.0,-28.0,23.0,47.0,25.0,-17.0,-19.0,-0.27899169921875,-0.4327392578125,-0.677978515625,-0.52471923828125,-0.0830078125,0.87353515625,0.46484375,-1.625,-2.125,-0.125
2.259999999999974,11.0,10.0,31.0,24.0,-30.0,-5.0,36.0,44.0,-0.28125,-0.4310302734375,-0.67755126953125,-0.5255126953125,-0.0986328125,0.89453125,0.46826171875,1.25,-12.875,5.5625
2.264999999999974,6.0,-6.0,7.0,27.0,31.0,8.0,1.0,-21.0,-0.283935546875,-0.429443359375,-0.67730712890625,-0.525634765625,-0.08154296875,0.89697265625,0.44580078125,0.25,-16.4375,8.8125
2.269999999999974,6.0,-6.0,7.0,27.0,31.0,8.0,1.0,-21.0,-0.283935546875,-0.429443359375,-0.67730712890625,-0.525634765625,-0.08154296875,0.89697265625,0.44580078125,0.25,-16.4375,8.8125
2.2749999999999737,6.0,-6.0,7.0,27.0,31.0,8.0,1.0,-21.0,-0.283935546875,-0.429443359375,-0.67730712890625,-0.525634765625,-0.08154296875,0.89697265625,0.44580078125,0.25,-16.4375,8.8125
2.2799999999999736,6.0,-6.0,7.0,27.0,31.0,8.0,1.0,-21.0,-0.283935546875,-0.429443359375,-0.67730712890625,-0.525634765625,-0.08154296875,0.89697265625,0.44580078125,0.25,-16.4375,8.8125
2.2849999999999735,6.0,-6.0,7.0,27.0,31.0,8.0,1.0,-21.0,-0.283935546875,-0.429443359375,-0.67730712890625,-0.525634765625,-0.08154296875,0.89697265625,0.44580078125,0.25,-16.4375,8.8125
2.2899999999999734,6.0,-6.0,7.0,27.0,31.0,8.0,1.0,-21.0,-0.283935546875,-0.429443359375,-0.67730712890625,-0.525634765625,-0.08154296875,0.89697265625,0.44580078125,0.25,-16.4375,8.8125
2.2949999999999733,6.0,-6.0,7.0,27.0,31.0,8.0,1.0,-21.0,-0.283935546875,-0.429443359375,-0.67730712890625,-0.525634765625,-0.08154296875,0.89697265625,0.44580078125,0.25,-16.4375,8.8125
2.299999999999973,6.0,-6.0,7.0,27.0,31.0,8.0,1.0,-21.0,-0.283935546875,-0.429443359375,-0.67730712890625,-0.525634765625,-0.08154296875,0.89697265625,0.44580078125,0.25,-16.4375,8.8125
2.304999999999973,6.0,-6.0,7.0,27.0,31.0,8.0,1.0,-21.0,-0.283935546875,-0.429443359375,-0.67730712890625,-0.525634765625,-0.08154296875,0.89697265625,0.44580078125,0.25,-16.4375,8.8125
2.309999999999973,-3.0,-14.0,-18.0,-58.0,-99.0,-48.0,16.0,18.0,-0.283935546875,-0.429443359375,-0.67730712890625,-0.525634765625,-0.08154296875,0.89697265625,0.44580078125,0.25,-16.4375,8.8125
2.314999999999973,-3.0,-14.0,-18.0,-58.0,-99.0,-48.0,16.0,18.0,-0.28411865234375,-0.42669677734375,-0.67816162109375,-0.52667236328125,-0.04541015625,0.77294921875,0.53125,-6.875,-9.375,2.875
2.3199999999999728,0.0,-13.0,-9.0,10.0,7.0,18.0,9.0,15.0,-0.28411865234375,-0.42669677734375,-0.67816162109375,-0.52667236328125,-0.04541015625,0.77294921875,0.53125,-6.875,-9.375,2.875
2.3249999999999726,0.0,-13.0,-9.0,10.0,7.0,18.0,9.0,15.0,-0.28411865234375,-0.42669677734375,-0.67816162109375,-0.52667236328125,-0.04541015625,0.77294921875,0.53125,-6.875,-9.375,2.875
2.3299999999999725,0.0,-13.0,-9.0,10.0,7.0,18.0,9.0,15.0,-0.28411865234375,-0.42669677734375,-0.67816162109375,-0.52667236328125,-0.04541015625,0.77294921875,0.53125,-6.875,-9.375,2.875
2.3349999999999724,0.0,-13.0,-9.0,10.0,7.0,18.0,9.0,15.0,-0.28411865234375,-0.42669677734375,-0.67816162109375,-0.52667236328125,-0.04541015625,0.77294921875,0.53125,-6.875,-9.375,2.875
2.3399999999999723,0.0,-3.0,0.0,47.0,56.0,31.0,9.0,-5.0,-0.2874755859375,-0.4267578125,-0.6771240234375,-0.52618408203125,-0.04150390625,0.8203125,0.47509765625,16.0,-12.625,5.9375
2.344999999999972,-1.0,3.0,8.0,-14.0,-29.0,-14.0,40.0,16.0,-0.29876708984375,-0.42340087890625,-0.67041015625,-0.53118896484375,-0.00244140625,0.8466796875,0.48291015625,-3.1875,-10.3125,-4.25
2.349999999999972,2.0,15.0,-13.0,70.0,64.0,-18.0,1.0,4.0,-0.3004150390625,-0.42303466796875,-0.66949462890625,-0.53167724609375,-0.04638671875,0.81201171875,0.45947265625,7.5,-5.125,1.375
2.354999999999972,1.0,1.0,-4.0,-16.0,3.0,-10.0,-11.0,-1.0,-0.30230712890625,-0.42388916015625,-0.66827392578125,-0.53155517578125,-0.0361328125,0.892578125,0.41943359375,9.6875,-6.1875,-0.9375
2.359999999999972,1.0,1.0,-4.0,-16.0,3.0,-10.0,-11.0,-1.0,-0.30230712890625,-0.42352294921875,-0.66802978515625,-0.53204345703125,-0.06689453125,0.90380859375,0.45068359375,-2.8125,-3.625,-0.75
2.364999999999972,0.0,-6.0,-16.0,-24.0,-4.0,-3.0,-51.0,-30.0,-0.30206298828125,-0.4228515625,-0.6685791015625,-0.53204345703125,-0.04052734375,0.869140625,0.46484375,-3.625,0.3125,1.9375
2.3699999999999717,0.0,-6.0,-16.0,-24.0,-4.0,-3.0,-51.0,-30.0,-0.30206298828125,-0.4228515625,-0.6685791015625,-0.53204345703125,-0.04052734375,0.869140625,0.46484375,-3.625,0.3125,1.9375
2.3749999999999716,6.0,-5.0,2.0,13.0,80.0,11.0,21.0,34.0,-0.30206298828125,-0.4228515625,-0.6685791015625,-0.53204345703125,-0.04052734375,0.869140625,0.46484375,-3.625,0.3125,1.9375
2.3799999999999715,6.0,-5.0,2.0,13.0,80.0,11.0,21.0,34.0,-0.30206298828125,-0.4228515625,-0.6685791015625,-0.53204345703125,-0.04052734375,0.869140625,0.46484375,-3.625,0.3125,1.9375
2.3849999999999714,6.0,-5.0,2.0,13.0,80.0,11.0,21.0,34.0,-0.30206298828125,-0.4228515625,-0.6685791015625,-0.53204345703125,-0.04052734375,0.869140625,0.46484375,-3.625,0.3125,1.9375
2.3899999999999713,-7.0,3.0,34.0,0.0,24.0,2.0,62.0,3.0,-0.30206298828125,-0.4228515625,-0.6685791015625,-0.53204345703125,-0.04052734375,0.869140625,0.46484375,-3.625,0.3125,1.9375
2.394999999999971,-7.0,3.0,34.0,0.0,24.0,2.0,62.0,3.0,-0.30206298828125,-0.4228515625,-0.6685791015625,-0.53204345703125,-0.04052734375,0.869140625,0.46484375,-3.625,0.3125,1.9375
2.399999999999971,-4.0,6.0,7.0,15.0,-12.0,-1.0,-8.0,-7.0,-0.302001953125,-0.4227294921875,-0.66900634765625,-0.53167724609375,-0.025390625,0.86767578125,0.4345703125,-2.1875,1.8125,1.25
2.404999999999971,-3.0,-5.0,-5.0,36.0,-19.0,-3.0,-3.0,19.0,-0.30133056640625,-0.422607421875,-0.6688232421875,-0.53240966796875,-0.06103515625,0.841796875,0.47265625,-1.25,-0.25,-3.625
2.409999999999971,-6.0,-7.0,8.0,-7.0,-41.0,-8.0,4.0,-4.0,-0.30133056640625,-0.422607421875,-0.6688232421875,-0.53240966796875,-0.06103515625,0.841796875,0.47265625,-1.25,-0.25,-3.625
2.4149999999999707,1.0,4.0,3.0,14.0,4.0,3.0,13.0,9.0,-0.30133056640625,-0.422607421875,-0.6688232421875,-0.53240966796875,-0.06103515625,0.841796875,0.47265625,-1.25,-0.25,-3.625
2.4199999999999706,3.0,7.0,11.0,12.0,16.0,4.0,13.0,3.0,-0.29962158203125,-0.4305419921875,-0.66680908203125,-0.52947998046875,-0.0498046875,0.90087890625,0.38330078125,0.5625,14.5,-1.8125
2.4249999999999705,3.0,7.0,11.0,12.0,16.0,4.0,13.0,3.0,-0.29962158203125,-0.4305419921875,-0.66680908203125,-0.52947998046875,-0.0498046875,0.90087890625,0.38330078125,0.5625,14.5,-1.8125
2.4299999999999704,3.0,7.0,11.0,12.0,16.0,4.0,13.0,3.0,-0.29962158203125,-0.4305419921875,-0.66680908203125,-0.52947998046875,-0.0498046875,0.90087890625,0.38330078125,0.5625,14.5,-1.8125
2.4349999999999703,-1.0,-8.0,17.0,1.0,-13.0,6.0,24.0,-1.0,-0.29736328125,-0.431396484375,-0.66754150390625,-0.52911376953125,-0.068359375,0.89990234375,0.42333984375,-6.9375,12.875,-3.1875
2.43999999999997,0.0,1.0,4.0,11.0,39.0,8.0,-2.0,-1.0,-0.2952880859375,-0.43206787109375,-0.668212890625,-0.52886962890625,-0.05908203125,0.8642578125,0.4462890625,-4.875,11.625,-3.25
2.44499999999997,-5.0,1.0,5.0,-4.0,7.0,5.0,-1.0,-2.0,-0.2916259765625,-0.43548583984375,-0.66949462890625,-0.5264892578125,-0.06396484375,0.9091796875,0.3974609375,-5.25,18.0625,-1.375
2.44999999999997,-5.0,1.0,5.0,-4.0,7.0,5.0,-1.0,-2.0,-0.2916259765625,-0.43548583984375,-0.66949462890625,-0.5264892578125,-0.06396484375,0.9091796875,0.3974609375,-5.25,18.0625,-1.375
2.45499999999997,2.0,-4.0,-9.0,-11.0,-24.0,7.0,26.0,27.0,-0.2916259765625,-0.43548583984375,-0.66949462890625,-0.5264892578125,-0.06396484375,0.9091796875,0.3974609375,-5.25,18.0625,-1.375
2.4599999999999698,2.0,-4.0,-9.0,-11.0,-24.0,7.0,26.0,27.0,-0.28759765625,-0.436767578125,-0.6715087890625,-0.52508544921875,-0.08544921875,0.91650390625,0.357421875,-17.125,25.125,-0.125
2.4649999999999697,2.0,-4.0,-9.0,-11.0,-24.0,7.0,26.0,27.0,-0.28759765625,-0.436767578125,-0.6715087890625,-0.52508544921875,-0.08544921875,0.91650390625,0.357421875,-17.125,25.125,-0.125
2.4699999999999696,12.0,6.0,-4.0,0.0,3.0,4.0,6.0,11.0,-0.281494140625,-0.4365234375,-0.6744384765625,-0.5247802734375,-0.11669921875,0.8701171875,0.41015625,-28.6875,27.0,-2.5
2.4749999999999694,-12.0,-4.0,18.0,-14.0,-22.0,-17.0,-7.0,-29.0,-0.27630615234375,-0.434814453125,-0.67681884765625,-0.5260009765625,-0.13623046875,0.8603515625,0.48388671875,-28.6875,14.0,-4.1875
2.4799999999999693,8.0,-3.0,-4.0,-16.0,-32.0,-19.0,-3.0,-4.0,-0.27630615234375,-0.434814453125,-0.67681884765625,-0.5260009765625,-0.13623046875,0.8603515625,0.48388671875,-28.6875,14.0,-4.1875
2.4849999999999692,24.0,9.0,24.0,64.0,29.0,13.0,11.0,6.0,-0.27362060546875,-0.43243408203125,-0.67803955078125,-0.52777099609375,-0.12939453125,0.9150390625,0.58251953125,-17.5625,-0.1875,-3.75
2.489999999999969,-13.0,-14.0,-6.0,25.0,97.0,12.0,4.0,-4.0,-0.2725830078125,-0.43048095703125,-0.67919921875,-0.52838134765625,-0.08544921875,0.7353515625,0.5,-8.9375,-1.625,2.5
2.494999999999969,-10.0,9.0,-10.0,-12.0,9.0,1.0,-12.0,-15.0,-0.2725830078125,-0.43048095703125,-0.67919921875,-0.52838134765625,-0.08544921875,0.7353515625,0.5,-8.9375,-1.625,2.5
2.499999999999969,-10.0,9.0,-10.0,-12.0,9.0,1.0,-12.0,-15.0,-0.2725830078125,-0.43048095703125,-0.67919921875,-0.52838134765625,-0.08544921875,0.7353515625,0.5,-8.9375,-1.625,2.5
2.504999999999969,-19.0,-6.0,-9.0,-25.0,-22.0,-19.0,0.0,1.0,-0.27069091796875,-0.4288330078125,-0.68072509765625,-0.5286865234375,-0.10791015625,0.76904296875,0.55078125,-9.0,3.625,3.125
2.5099999999999687,4.0,6.0,16.0,-12.0,-45.0,-20.0,-18.0,-2.0,-0.2720947265625,-0.4300537109375,-0.68017578125,-0.52764892578125,-0.1083984375,0.8828125,0.4873046875,12.0,-0.875,5.4375
2.5149999999999686,3.0,6.0,3.0,-1.0,-88.0,-14.0,0.0,-14.0,-0.27392578125,-0.4302978515625,-0.6796875,-0.52716064453125,-0.03662109375,0.95703125,0.45556640625,4.0,-4.375,1.1875
2.5199999999999685,3.0,6.0,3.0,-1.0,-88.0,-14.0,0.0,-14.0,-0.27227783203125,-0.4278564453125,-0.6805419921875,-0.52899169921875,-0.09033203125,0.8583984375,0.47607421875,-19.75,-4.5625,-4.1875
2.5249999999999684,-9.0,1.0,-3.0,-6.0,-60.0,-7.0,-25.0,1.0,-0.27227783203125,-0.4278564453125,-0.6805419921875,-0.52899169921875,-0.09033203125,0.8583984375,0.47607421875,-19.75,-4.5625,-4.1875
2.5299999999999683,-1.0,-3.0,-13.0,10.0,-68.0,3.0,-18.0,-8.0,-0.2716064453125,-0.426513671875,-0.6810302734375,-0.52978515625,-0.09716796875,0.771484375,0.48095703125,-6.75,-3.375,0.3125
2.534999999999968,2.0,-22.0,-10.0,-43.0,-60.0,-13.0,-24.0,-24.0,-0.27294921875,-0.42767333984375,-0.67999267578125,-0.52947998046875,-0.09814453125,0.83544921875,0.47021484375,11.875,-3.25,0.625
2.539999999999968,2.0,-22.0,-10.0,-43.0,-60.0,-13.0,-24.0,-24.0,-0.27447509765625,-0.42926025390625,-0.67864990234375,-0.52911376953125,-0.10498046875,0.90087890625,0.4521484375,12.0,-3.5,-0.3125
2.544999999999968,10.0,14.0,18.0,24.0,69.0,22.0,32.0,64.0,-0.27447509765625,-0.42926025390625,-0.67864990234375,-0.52911376953125,-0.10498046875,0.90087890625,0.4521484375,12.0,-3.5,-0.3125
2.549999999999968,7.0,13.0,12.0,10.0,-14.0,15.0,-35.0,-11.0,-0.27447509765625,-0.42926025390625,-0.67864990234375,-0.52911376953125,-0.10498046875,0.90087890625,0.4521484375,12.0,-3.5,-0.3125
2.5549999999999677,7.0,13.0,12.0,10.0,-14.0,15.0,-35.0,-11.0,-0.27447509765625,-0.42926025390625,-0.67864990234375,-0.52911376953125,-0.10498046875,0.90087890625,0.4521484375,12.0,-3.5,-0.3125
2.5599999999999676,12.0,-2.0,-8.0,-14.0,19.0,-2.0,25.0,22.0,-0.27410888671875,-0.4267578125,-0.679443359375,-0.5302734375,-0.0947265625,0.8251953125,0.4931640625,-12.5625,-3.625,2.375
2.5649999999999675,8.0,-3.0,-4.0,5.0,-24.0,-12.0,9.0,43.0,-0.27410888671875,-0.4267578125,-0.679443359375,-0.5302734375,-0.0947265625,0.8251953125,0.4931640625,-12.5625,-3.625,2.375
2.5699999999999674,8.0,-3.0,-4.0,5.0,-24.0,-12.0,9.0,43.0,-0.27410888671875,-0.4267578125,-0.679443359375,-0.5302734375,-0.0947265625,0.8251953125,0.4931640625,-12.5625,-3.625,2.375
2.5749999999999673,4.0,8.0,-9.0,-24.0,-77.0,16.0,49.0,-9.0,-0.27435302734375,-0.4251708984375,-0.679443359375,-0.53143310546875,-0.099609375,0.806640625,0.525390625,-2.8125,-9.25,0.1875
2.579999999999967,4.0,8.0,-9.0,-24.0,-77.0,16.0,49.0,-9.0,-0.27435302734375,-0.4251708984375,-0.679443359375,-0.53143310546875,-0.099609375,0.806640625,0.525390625,-2.8125,-9.25,0.1875
2.584999999999967,-10.0,-1.0,-20.0,0.0,19.0,10.0,-4.0,-41.0,-0.276123046875,-0.42462158203125,-0.67864990234375,-0.53192138671875,-0.0703125,0.85400390625,0.55712890625,9.375,-10.4375,0.375
2.589999999999967,-24.0,10.0,13.0,32.0,30.0,21.0,-10.0,-29.0,-0.27947998046875,-0.42578125,-0.67730712890625,-0.53106689453125,-0.044921875,0.89111328125,0.4658203125,17.6875,-8.5625,3.5625
2.594999999999967,-24.0,10.0,13.0,32.0,30.0,21.0,-10.0,-29.0,-0.27947998046875,-0.42578125,-0.67730712890625,-0.53106689453125,-0.044921875,0.89111328125,0.4658203125,17.6875,-8.5625,3.5625
2.599999999999967,-24.0,10.0,13.0,32.0,30.0,21.0,-10.0,-29.0,-0.27947998046875,-0.42578125,-0.67730712890625,-0.53106689453125,-0.044921875,0.89111328125,0.4658203125,17.6875,-8.5625,3.5625
2.6049999999999667,5.0,1.0,16.0,-42.0,-50.0,-44.0,103.0,9.0,-0.27947998046875,-0.42578125,-0.67730712890625,-0.53106689453125,-0.044921875,0.89111328125,0.4658203125,17.6875,-8.5625,3.5625
2.6099999999999666,-6.0,-2.0,-2.0,32.0,101.0,7.0,-51.0,-59.0,-0.281494140625,-0.4261474609375,-0.6766357421875,-0.530517578125,-0.10205078125,0.947265625,0.431640625,4.6875,-7.5625,6.0625
2.6149999999999665,-4.0,-13.0,-42.0,-91.0,-115.0,-52.0,13.0,-21.0,-0.28302001953125,-0.42449951171875,-0.67681884765625,-0.53076171875,-0.12939453125,0.90380859375,0.41552734375,-7.4375,-13.875,9.3125
2.6199999999999664,-4.0,-13.0,-42.0,-91.0,-115.0,-52.0,13.0,-21.0,-0.28302001953125,-0.42449951171875,-0.67681884765625,-0.53076171875,-0.12939453125,0.90380859375,0.41552734375,-7.4375,-13.875,9.3125
2.6249999999999662,-4.0,-13.0,-42.0,-91.0,-115.0,-52.0,13.0,-21.0,-0.28302001953125,-0.42449951171875,-0.67681884765625,-0.53076171875,-0.12939453125,0.90380859375,0.41552734375,-7.4375,-13.875,9.3125
2.629999999999966,-4.0,16.0,4.0,-23.0,-49.0,1.0,43.0,21.0,-0.28302001953125,-0.42449951171875,-0.67681884765625,-0.53076171875,-0.12939453125,0.90380859375,0.41552734375,-7.4375,-13.875,9.3125
2.634999999999966,-21.0,-25.0,-14.0,-41.0,-2.0,-8.0,-14.0,-17.0,-0.284912109375,-0.42144775390625,-0.67657470703125,-0.53253173828125,-0.044921875,0.78515625,0.51171875,-3.6875,-20.625,1.25
2.639999999999966,-21.0,-25.0,-14.0,-41.0,-2.0,-8.0,-14.0,-17.0,-0.284912109375,-0.42144775390625,-0.67657470703125,-0.53253173828125,-0.044921875,0.78515625,0.51171875,-3.6875,-20.625,1.25
2.644999999999966,-21.0,-25.0,-14.0,-41.0,-2.0,-8.0,-14.0,-17.0,-0.284912109375,-0.42144775390625,-0.67657470703125,-0.53253173828125,-0.044921875,0.78515625,0.51171875,-3.6875,-20.625,1.25
2.6499999999999657,-21.0,-25.0,-14.0,-41.0,-2.0,-8.0,-14.0,-17.0,-0.284912109375,-0.42144775390625,-0.67657470703125,-0.53253173828125,-0.044921875,0.78515625,0.51171875,-3.6875,-20.625,1.25
2.6549999999999656,39.0,13.0,18.0,50.0,93.0,89.0,94.0,75.0,-0.2890625,-0.42156982421875,-0.67230224609375,-0.5355224609375,-0.10595703125,0.849609375,0.44384765625,9.375,-6.6875,-7.5625
2.6599999999999655,39.0,13.0,18.0,50.0,93.0,89.0,94.0,75.0,-0.2890625,-0.42156982421875,-0.67230224609375,-0.5355224609375,-0.10595703125,0.849609375,0.44384765625,9.375,-6.6875,-7.5625
2.6649999999999654,39.0,13.0,18.0,50.0,93.0,89.0,94.0,75.0,-0.2890625,-0.42156982421875,-0.67230224609375,-0.5355224609375,-0.10595703125,0.849609375,0.44384765625,9.375,-6.6875,-7.5625
2.6699999999999653,10.0,5.0,6.0,2.0,-44.0,51.0,-31.0,51.0,-0.2890625,-0.42156982421875,-0.67230224609375,-0.5355224609375,-0.10595703125,0.849609375,0.44384765625,9.375,-6.6875,-7.5625
2.674999999999965,5.0,12.0,39.0,92.0,107.0,-20.0,-32.0,9.0,-0.28955078125,-0.4215087890625,-0.67156982421875,-0.5362548828125,-0.1337890625,0.9208984375,0.4462890625,-1.8125,-7.375,0.1875
2.679999999999965,7.0,3.0,-10.0,-54.0,-62.0,-13.0,52.0,10.0,-0.28955078125,-0.4215087890625,-0.67156982421875,-0.5362548828125,-0.1337890625,0.9208984375,0.4462890625,-1.8125,-7.375,0.1875
2.684999999999965,7.0,3.0,-10.0,-54.0,-62.0,-13.0,52.0,10.0,-0.29107666015625,-0.42022705078125,-0.6712646484375,-0.536865234375,-0.01318359375,0.8583984375,0.49267578125,13.625,-3.4375,0.1875
2.689999999999965,7.0,3.0,-10.0,-54.0,-62.0,-13.0,52.0,10.0,-0.29107666015625,-0.42022705078125,-0.6712646484375,-0.536865234375,-0.01318359375,0.8583984375,0.49267578125,13.625,-3.4375,0.1875
2.6949999999999648,7.0,3.0,-10.0,-54.0,-62.0,-13.0,52.0,10.0,-0.29107666015625,-0.42022705078125,-0.6712646484375,-0.536865234375,-0.01318359375,0.8583984375,0.49267578125,13.625,-3.4375,0.1875
2.6999999999999647,-5.0,5.0,17.0,77.0,6.0,-5.0,-44.0,-41.0,-0.29107666015625,-0.42022705078125,-0.6712646484375,-0.536865234375,-0.01318359375,0.8583984375,0.49267578125,13.625,-3.4375,0.1875
2.7049999999999645,4.0,1.0,-8.0,56.0,53.0,20.0,48.0,27.0,-0.29095458984375,-0.422119140625,-0.67095947265625,-0.5357666015625,-0.111328125,0.8154296875,0.47119140625,0.0,1.25,-3.625
2.7099999999999644,4.0,1.0,-8.0,56.0,53.0,20.0,48.0,27.0,-0.29095458984375,-0.422119140625,-0.67095947265625,-0.5357666015625,-0.111328125,0.8154296875,0.47119140625,0.0,1.25,-3.625
2.7149999999999643,4.0,1.0,-8.0,56.0,53.0,20.0,48.0,27.0,-0.29095458984375,-0.422119140625,-0.67095947265625,-0.5357666015625,-0.111328125,0.8154296875,0.47119140625,0.0,1.25,-3.625
2.7199999999999642,4.0,1.0,-8.0,56.0,53.0,20.0,48.0,27.0,-0.2918701171875,-0.42266845703125,-0.66986083984375,-0.5362548828125,-0.0791015625,0.89208984375,0.478515625,6.8125,-5.4375,-3.1875
2.724999999999964,4.0,1.0,-8.0,56.0,53.0,20.0,48.0,27.0,-0.2918701171875,-0.42266845703125,-0.66986083984375,-0.5362548828125,-0.0791015625,0.89208984375,0.478515625,6.8125,-5.4375,-3.1875
2.729999999999964,0.0,3.0,-4.0,14.0,-82.0,-21.0,-9.0,-36.0,-0.2918701171875,-0.42266845703125,-0.66986083984375,-0.5362548828125,-0.0791015625,0.89208984375,0.478515625,6.8125,-5.4375,-3.1875
2.734999999999964,-15.0,-17.0,-29.0,-87.0,-20.0,-19.0,-54.0,-10.0,-0.294189453125,-0.42303466796875,-0.6693115234375,-0.535400390625,-0.0625,0.8818359375,0.45361328125,9.125,1.0,0.3125
2.739999999999964,-3.0,3.0,22.0,1.0,-3.0,-13.0,8.0,0.0,-0.294189453125,-0.42303466796875,-0.6693115234375,-0.535400390625,-0.0625,0.8818359375,0.45361328125,9.125,1.0,0.3125
2.7449999999999637,-3.0,3.0,22.0,1.0,-3.0,-13.0,8.0,0.0,-0.29364013671875,-0.4228515625,-0.66851806640625,-0.53680419921875,-0.0576171875,0.85693359375,0.46923828125,10.0625,0.875,-2.6875
2.7499999999999636,1.0,1.0,-9.0,-12.0,-15.0,-9.0,5.0,3.0,-0.29364013671875,-0.4228515625,-0.66851806640625,-0.53680419921875,-0.0576171875,0.85693359375,0.46923828125,10.0625,0.875,-2.6875
2.7549999999999635,1.0,1.0,-9.0,-12.0,-15.0,-9.0,5.0,3.0,-0.29364013671875,-0.4228515625,-0.66851806640625,-0.53680419921875,-0.0576171875,0.85693359375,0.46923828125,10.0625,0.875,-2.6875
2.7599999999999634,0.0,-1.0,-16.0,-21.0,-39.0,-13.0,-2.0,0.0,-0.293701171875,-0.42401123046875,-0.66796875,-0.53656005859375,-0.0791015625,0.880859375,0.44921875,5.1875,2.375,-1.75
2.7649999999999633,3.0,12.0,0.0,20.0,30.0,-3.0,2.0,5.0,-0.291748046875,-0.4261474609375,-0.6676025390625,-0.53643798828125,-0.03515625,0.8603515625,0.40380859375,4.25,9.625,-5.75
2.769999999999963,3.0,12.0,0.0,20.0,30.0,-3.0,2.0,5.0,-0.291748046875,-0.4261474609375,-0.6676025390625,-0.53643798828125,-0.03515625,0.8603515625,0.40380859375,4.25,9.625,-5.75
2.774999999999963,-1.0,-8.0,-12.0,-4.0,5.0,-1.0,2.0,-1.0,-0.291748046875,-0.4261474609375,-0.6676025390625,-0.53643798828125,-0.03515625,0.8603515625,0.40380859375,4.25,9.625,-5.75
2.779999999999963,-2.0,-2.0,-8.0,-17.0,-12.0,0.0,-5.0,-9.0,-0.28912353515625,-0.4283447265625,-0.66839599609375,-0.53509521484375,-0.0341796875,0.8955078125,0.365234375,-6.0,22.125,-5.0625
2.784999999999963,0.0,13.0,4.0,-1.0,-6.0,-2.0,2.0,-1.0,-0.28912353515625,-0.4283447265625,-0.66839599609375,-0.53509521484375,-0.0341796875,0.8955078125,0.365234375,-6.0,22.125,-5.0625
2.7899999999999627,0.0,-11.0,-18.0,-1.0,11.0,3.0,1.0,3.0,-0.28466796875,-0.43023681640625,-0.66973876953125,-0.53424072265625,-0.11767578125,0.87158203125,0.373046875,-13.8125,25.375,-4.25
2.7949999999999626,0.0,-11.0,-18.0,-1.0,11.0,3.0,1.0,3.0,-0.280517578125,-0.43194580078125,-0.6710205078125,-0.53350830078125,-0.11083984375,0.85107421875,0.43798828125,-9.1875,23.75,-4.375
2.7999999999999625,-7.0,-2.0,1.0,-12.0,-3.0,-7.0,-3.0,-5.0,-0.27783203125,-0.43365478515625,-0.67169189453125,-0.53265380859375,-0.06982421875,0.84375,0.4775390625,-0.4375,19.5625,-5.125
2.8049999999999624,-7.0,-2.0,1.0,-12.0,-3.0,-7.0,-3.0,-5.0,-0.27783203125,-0.43365478515625,-0.67169189453125,-0.53265380859375,-0.06982421875,0.84375,0.4775390625,-0.4375,19.5625,-5.125
2.8099999999999623,-7.0,0.0,-8.0,-7.0,-11.0,-5.0,-2.0,-3.0,-0.27783203125,-0.43365478515625,-0.67169189453125,-0.53265380859375,-0.06982421875,0.84375,0.4775390625,-0.4375,19.5625,-5.125
2.814999999999962,6.0,-6.0,-18.0,-21.0,-2.0,-6.0,4.0,3.0,-0.27783203125,-0.43365478515625,-0.67169189453125,-0.53265380859375,-0.06982421875,0.84375,0.4775390625,-0.4375,19.5625,-5.125
2.819999999999962,8.0,8.0,2.0,24.0,50.0,22.0,-2.0,-9.0,-0.27557373046875,-0.43499755859375,-0.6722412109375,-0.53204345703125,-0.09521484375,0.86767578125,0.529296875,2.0625,15.625,-3.375
2.824999999999962,-8.0,-16.0,9.0,-20.0,-58.0,-2.0,15.0,-15.0,-0.27362060546875,-0.43450927734375,-0.673095703125,-0.5323486328125,-0.138671875,0.93212890625,0.564453125,-6.6875,5.4375,-0.5
2.829999999999962,-8.0,-16.0,9.0,-20.0,-58.0,-2.0,15.0,-15.0,-0.27178955078125,-0.43206787109375,-0.67413330078125,-0.533935546875,-0.16455078125,0.884765625,0.58203125,-14.1875,-4.3125,0.625
2.8349999999999618,-6.0,3.0,3.0,-11.0,-87.0,-16.0,-37.0,-25.0,-0.27178955078125,-0.43206787109375,-0.67413330078125,-0.533935546875,-0.16455078125,0.884765625,0.58203125,-14.1875,-4.3125,0.625
2.8399999999999617,6.0,7.0,5.0,-19.0,-56.0,-7.0,2.0,8.0,-0.27374267578125,-0.42877197265625,-0.67510986328125,-0.534423828125,-0.1220703125,0.86865234375,0.5419921875,-6.1875,-18.0,13.0625
2.8449999999999616,-15.0,6.0,9.0,16.0,74.0,17.0,-9.0,-2.0,-0.27484130859375,-0.4271240234375,-0.67535400390625,-0.53485107421875,-0.05517578125,0.7666015625,0.51220703125,1.125,-8.875,3.125
2.8499999999999615,-15.0,6.0,9.0,16.0,74.0,17.0,-9.0,-2.0,-0.27484130859375,-0.4271240234375,-0.67535400390625,-0.53485107421875,-0.05517578125,0.7666015625,0.51220703125,1.125,-8.875,3.125
2.8549999999999613,-18.0,-8.0,-29.0,-16.0,2.0,-11.0,0.0,-4.0,-0.27484130859375,-0.4271240234375,-0.67535400390625,-0.53485107421875,-0.05517578125,0.7666015625,0.51220703125,1.125,-8.875,3.125
2.8599999999999612,12.0,6.0,13.0,62.0,83.0,37.0,7.0,12.0,-0.2789306640625,-0.43017578125,-0.6732177734375,-0.532958984375,-0.11962890625,0.90576171875,0.37060546875,-1.0,-2.9375,0.4375
2.864999999999961,8.0,3.0,6.0,-1.0,-3.0,14.0,2.0,-13.0,-0.2789306640625,-0.43017578125,-0.6732177734375,-0.532958984375,-0.11962890625,0.90576171875,0.37060546875,-1.0,-2.9375,0.4375
2.869999999999961,6.0,9.0,12.0,-14.0,-29.0,-7.0,-25.0,-14.0,-0.2779541015625,-0.4293212890625,-0.67401123046875,-0.53314208984375,-0.0859375,0.9013671875,0.42919921875,-8.0,1.4375,1.375
2.874999999999961,1.0,-18.0,-24.0,-22.0,-16.0,-7.0,-2.0,-35.0,-0.2779541015625,-0.4293212890625,-0.67401123046875,-0.53314208984375,-0.0859375,0.9013671875,0.42919921875,-8.0,1.4375,1.375
2.879999999999961,1.0,-18.0,-24.0,-22.0,-16.0,-7.0,-2.0,-35.0,-0.2779541015625,-0.4293212890625,-0.67401123046875,-0.53314208984375,-0.0859375,0.9013671875,0.42919921875,-8.0,1.4375,1.375
2.8849999999999607,-4.0,-3.0,-9.0,-25.0,-55.0,-21.0,-17.0,-30.0,-0.27618408203125,-0.427490234375,-0.6756591796875,-0.533447265625,-0.10791015625,0.82373046875,0.48681640625,-15.125,2.3125,4.25
2.8899999999999606,-4.0,-3.0,-9.0,-25.0,-55.0,-21.0,-17.0,-30.0,-0.27618408203125,-0.427490234375,-0.6756591796875,-0.533447265625,-0.10791015625,0.82373046875,0.48681640625,-15.125,2.3125,4.25
2.8949999999999605,-4.0,-3.0,-9.0,-25.0,-55.0,-21.0,-17.0,-30.0,-0.27734375,-0.42718505859375,-0.67584228515625,-0.5328369140625,-0.060546875,0.802734375,0.5068359375,7.0625,-3.0,5.4375
2.8999999999999604,-7.0,-7.0,9.0,2.0,-41.0,7.0,3.0,4.0,-0.27734375,-0.42718505859375,-0.67584228515625,-0.5328369140625,-0.060546875,0.802734375,0.5068359375,7.0625,-3.0,5.4375
2.9049999999999603,-1.0,2.0,5.0,-9.0,-21.0,-15.0,-24.0,-1.0,-0.279541015625,-0.42816162109375,-0.67535400390625,-0.5316162109375,-0.02001953125,0.87744140625,0.482421875,13.75,-1.3125,3.5
2.90999999999996,-1.0,2.0,5.0,-9.0,-21.0,-15.0,-24.0,-1.0,-0.279541015625,-0.42816162109375,-0.67535400390625,-0.5316162109375,-0.02001953125,0.87744140625,0.482421875,13.75,-1.3125,3.5
2.91499999999996,-4.0,-12.0,-6.0,-22.0,-77.0,-11.0,-31.0,1.0,-0.27996826171875,-0.42889404296875,-0.675048828125,-0.53106689453125,-0.0693359375,0.8720703125,0.4580078125,4.875,1.5625,0.5625
2.91999999999996,-4.0,-12.0,-6.0,-22.0,-77.0,-11.0,-31.0,1.0,-0.27996826171875,-0.42889404296875,-0.675048828125,-0.53106689453125,-0.0693359375,0.8720703125,0.4580078125,4.875,1.5625,0.5625
2.92499999999996,4.0,4.0,-3.0,29.0,81.0,12.0,-16.0,-5.0,-0.27886962890625,-0.42840576171875,-0.6754150390625,-0.5316162109375,-0.1123046875,0.857421875,0.48974609375,-5.8125,1.0,-0.8125
2.9299999999999597,4.0,3.0,-7.0,-37.0,-54.0,-13.0,-35.0,-20.0,-0.27886962890625,-0.42840576171875,-0.6754150390625,-0.5316162109375,-0.1123046875,0.857421875,0.48974609375,-5.8125,1.0,-0.8125
2.9349999999999596,-3.0,6.0,13.0,29.0,0.0,16.0,-28.0,-40.0,-0.2789306640625,-0.4276123046875,-0.67547607421875,-0.53216552734375,-0.09716796875,0.86572265625,0.4658203125,-4.375,-4.6875,0.5
2.9399999999999595,-3.0,6.0,13.0,29.0,0.0,16.0,-28.0,-40.0,-0.2789306640625,-0.4276123046875,-0.67547607421875,-0.53216552734375,-0.09716796875,0.86572265625,0.4658203125,-4.375,-4.6875,0.5
2.9449999999999594,-5.0,-11.0,16.0,-16.0,-23.0,5.0,-13.0,-9.0,-0.27935791015625,-0.42626953125,-0.67529296875,-0.53326416015625,-0.09814453125,0.845703125,0.50390625,-2.8125,-9.375,-0.0625
2.9499999999999593,-5.0,-11.0,16.0,-16.0,-23.0,5.0,-13.0,-9.0,-0.27935791015625,-0.42626953125,-0.67529296875,-0.53326416015625,-0.09814453125,0.845703125,0.50390625,-2.8125,-9.375,-0.0625
2.954999999999959,-5.0,-11.0,16.0,-16.0,-23.0,5.0,-13.0,-9.0,-0.27935791015625,-0.42626953125,-0.67529296875,-0.53326416015625,-0.09814453125,0.845703125,0.50390625,-2.8125,-9.375,-0.0625
2.959999999999959,-5.0,-11.0,16.0,-16.0,-23.0,5.0,-13.0,-9.0,-0.27935791015625,-0.42626953125,-0.67529296875,-0.53326416015625,-0.09814453125,0.845703125,0.50390625,-2.8125,-9.375,-0.0625
2.964999999999959,3.0,7.0,4.0,-50.0,-73.0,-3.0,25.0,44.0,-0.2808837890625,-0.425048828125,-0.6748046875,-0.5340576171875,-0.0888671875,0.849609375,0.47509765625,0.25,-12.9375,2.125
2.969999999999959,28.0,-8.0,-4.0,-58.0,32.0,-26.0,36.0,89.0,-0.2808837890625,-0.425048828125,-0.6748046875,-0.5340576171875,-0.0888671875,0.849609375,0.47509765625,0.25,-12.9375,2.125
2.974999999999959,28.0,-8.0,-4.0,-58.0,32.0,-26.0,36.0,89.0,-0.2808837890625,-0.425048828125,-0.6748046875,-0.5340576171875,-0.0888671875,0.849609375,0.47509765625,0.25,-12.9375,2.125
2.9799999999999587,6.0,2.0,-1.0,-67.0,3.0,52.0,6.0,-4.0,-0.2808837890625,-0.425048828125,-0.6748046875,-0.5340576171875,-0.0888671875,0.849609375,0.47509765625,0.25,-12.9375,2.125
2.9849999999999586,3.0,-5.0,14.0,16.0,56.0,-11.0,-61.0,3.0,-0.28411865234375,-0.4234619140625,-0.6724853515625,-0.5364990234375,-0.138671875,0.93603515625,0.46337890625,6.5,-18.0625,2.0625
2.9899999999999585,3.0,-5.0,14.0,16.0,56.0,-11.0,-61.0,3.0,-0.28411865234375,-0.4234619140625,-0.6724853515625,-0.5364990234375,-0.138671875,0.93603515625,0.46337890625,6.5,-18.0625,2.0625
2.9949999999999584,1.0,14.0,14.0,66.0,127.0,38.0,2.0,6.0,-0.28411865234375,-0.4234619140625,-0.6724853515625,-0.5364990234375,-0.138671875,0.93603515625,0.46337890625,6.5,-18.0625,2.0625
2.9999999999999583,-3.0,-12.0,-9.0,-5.0,-64.0,1.0,40.0,-3.0,-0.28936767578125,-0.41815185546875,-0.67132568359375,-0.539306640625,-0.07080078125,0.90380859375,0.466796875,-0.625,-4.6875,-0.1875
3.004999999999958,-1.0,5.0,-7.0,-23.0,0.0,-4.0,-18.0,-5.0,-0.28936767578125,-0.41815185546875,-0.67132568359375,-0.539306640625,-0.07080078125,0.90380859375,0.466796875,-0.625,-4.6875,-0.1875
3.009999999999958,0.0,4.0,3.0,28.0,40.0,26.0,-19.0,47.0,-0.2886962890625,-0.41632080078125,-0.67193603515625,-0.54034423828125,-0.05859375,0.8232421875,0.50634765625,-9.5,-4.375,-0.75
3.014999999999958,-9.0,-8.0,3.0,-19.0,-81.0,-26.0,-15.0,-21.0,-0.2891845703125,-0.41632080078125,-0.6719970703125,-0.53997802734375,-0.0478515625,0.8203125,0.4970703125,4.375,-0.375,2.0625
3.019999999999958,-1.0,4.0,5.0,1.0,58.0,26.0,11.0,-5.0,-0.28997802734375,-0.4176025390625,-0.67156982421875,-0.53912353515625,-0.07373046875,0.841796875,0.455078125,9.125,1.5625,2.6875
3.0249999999999577,4.0,-6.0,-1.0,23.0,-39.0,16.0,1.0,-11.0,-0.289794921875,-0.41815185546875,-0.67108154296875,-0.53936767578125,-0.09912109375,0.880859375,0.4716796875,1.75,-0.5,-1.75
3.0299999999999576,-14.0,3.0,-7.0,-1.0,10.0,-25.0,-32.0,-19.0,-0.289794921875,-0.41815185546875,-0.67108154296875,-0.53936767578125,-0.09912109375,0.880859375,0.4716796875,1.75,-0.5,-1.75
3.0349999999999575,-14.0,3.0,-7.0,-1.0,10.0,-25.0,-32.0,-19.0,-0.289794921875,-0.41815185546875,-0.67108154296875,-0.53936767578125,-0.09912109375,0.880859375,0.4716796875,1.75,-0.5,-1.75
3.0399999999999574,-7.0,10.0,6.0,-2.0,-19.0,-61.0,2.0,4.0,-0.28948974609375,-0.41802978515625,-0.6712646484375,-0.5394287109375,-0.07177734375,0.8681640625,0.46533203125,-3.0,0.5625,0.375
3.0449999999999573,-5.0,-6.0,-7.0,4.0,6.0,11.0,26.0,-7.0,-0.28948974609375,-0.41802978515625,-0.6712646484375,-0.5394287109375,-0.07177734375,0.8681640625,0.46533203125,-3.0,0.5625,0.375
3.049999999999957,2.0,1.0,-3.0,8.0,24.0,17.0,1.0,-13.0,-0.2891845703125,-0.4173583984375,-0.67181396484375,-0.5394287109375,-0.06298828125,0.845703125,0.4755859375,-4.4375,0.0,2.25
3.054999999999957,-3.0,5.0,4.0,9.0,19.0,4.0,-4.0,2.0,-0.28961181640625,-0.41748046875,-0.6715087890625,-0.53948974609375,-0.05078125,0.83349609375,0.5009765625,4.6875,-1.375,-0.75
3.059999999999957,2.0,3.0,22.0,0.0,17.0,8.0,-4.0,-3.0,-0.28961181640625,-0.41748046875,-0.6715087890625,-0.53948974609375,-0.05078125,0.83349609375,0.5009765625,4.6875,-1.375,-0.75
3.064999999999957,2.0,3.0,22.0,0.0,17.0,8.0,-4.0,-3.0,-0.28961181640625,-0.41748046875,-0.6715087890625,-0.53948974609375,-0.05078125,0.83349609375,0.5009765625,4.6875,-1.375,-0.75
3.0699999999999568,1.0,1.0,-5.0,2.0,1.0,5.0,0.0,-7.0,-0.29034423828125,-0.4185791015625,-0.670654296875,-0.53924560546875,-0.05419921875,0.85986328125,0.5078125,11.0,-0.0625,-2.375
3.0749999999999567,-1.0,-4.0,-29.0,-16.0,1.0,14.0,0.0,0.0,-0.29058837890625,-0.41949462890625,-0.66998291015625,-0.53924560546875,-0.06689453125,0.81640625,0.482421875,8.3125,0.625,-2.4375
3.0799999999999566,-1.0,-4.0,-29.0,-16.0,1.0,14.0,0.0,0.0,-0.29095458984375,-0.4212646484375,-0.6693115234375,-0.53851318359375,-0.0732421875,0.86376953125,0.474609375,11.0625,4.3125,-1.0
3.0849999999999564,-1.0,-4.0,-29.0,-16.0,1.0,14.0,0.0,0.0,-0.29095458984375,-0.4212646484375,-0.6693115234375,-0.53851318359375,-0.0732421875,0.86376953125,0.474609375,11.0625,4.3125,-1.0
3.0899999999999563,2.0,-3.0,8.0,1.0,-6.0,2.0,3.0,1.0,-0.29095458984375,-0.4212646484375,-0.6693115234375,-0.53851318359375,-0.0732421875,0.86376953125,0.474609375,11.0625,4.3125,-1.0
3.0949999999999562,2.0,-3.0,8.0,1.0,-6.0,2.0,3.0,1.0,-0.29107666015625,-0.423583984375,-0.66925048828125,-0.53668212890625,-0.05126953125,0.87451171875,0.39208984375,7.5,11.1875,2.75
3.099999999999956,3.0,6.0,14.0,13.0,13.0,-3.0,0.0,0.0,-0.29107666015625,-0.423583984375,-0.66925048828125,-0.53668212890625,-0.05126953125,0.87451171875,0.39208984375,7.5,11.1875,2.75
3.104999999999956,-3.0,6.0,2.0,5.0,8.0,1.0,0.0,0.0,-0.28936767578125,-0.42510986328125,-0.67022705078125,-0.5352783203125,-0.06298828125,0.880859375,0.3701171875,-5.6875,15.8125,1.375
3.109999999999956,-3.0,6.0,2.0,5.0,8.0,1.0,0.0,0.0,-0.28692626953125,-0.426513671875,-0.6712646484375,-0.53411865234375,-0.064453125,0.87158203125,0.400390625,-6.9375,18.1875,-1.0625
3.114999999999956,0.0,-1.0,-5.0,1.0,-1.0,35.0,-1.0,-2.0,-0.28692626953125,-0.426513671875,-0.6712646484375,-0.53411865234375,-0.064453125,0.87158203125,0.400390625,-6.9375,18.1875,-1.0625
3.1199999999999557,-4.0,-6.0,24.0,8.0,5.0,2.0,-1.0,-1.0,-0.28399658203125,-0.42779541015625,-0.67218017578125,-0.53350830078125,-0.068359375,0.86962890625,0.4404296875,-6.9375,18.1875,-4.8125
3.1249999999999556,4.0,0.0,-6.0,-2.0,-18.0,5.0,-2.0,5.0,-0.2802734375,-0.42889404296875,-0.6732177734375,-0.53326416015625,-0.072265625,0.86328125,0.45849609375,-9.8125,19.9375,-7.0625
3.1299999999999555,7.0,4.0,4.0,28.0,24.0,3.0,6.0,-1.0,-0.2802734375,-0.42889404296875,-0.6732177734375,-0.53326416015625,-0.072265625,0.86328125,0.45849609375,-9.8125,19.9375,-7.0625
3.1349999999999554,0.0,-5.0,-9.0,-1.0,5.0,-15.0,-8.0,-11.0,-0.2762451171875,-0.42999267578125,-0.67425537109375,-0.533203125,-0.07958984375,0.84814453125,0.484375,-9.5,21.0,-8.375
3.1399999999999553,-2.0,-2.0,1.0,26.0,14.0,-15.0,-9.0,-11.0,-0.2762451171875,-0.42999267578125,-0.67425537109375,-0.533203125,-0.07958984375,0.84814453125,0.484375,-9.5,21.0,-8.375
3.144999999999955,1.0,-1.0,3.0,16.0,-4.0,14.0,46.0,20.0,-0.2724609375,-0.42999267578125,-0.67486572265625,-0.53436279296875,-0.16796875,0.85009765625,0.55419921875,-9.75,10.875,-7.1875
3.149999999999955,-4.0,-6.0,14.0,-22.0,-18.0,-1.0,-5.0,15.0,-0.27142333984375,-0.4295654296875,-0.67498779296875,-0.53509521484375,-0.166015625,0.84765625,0.5478515625,-1.1875,-1.1875,0.1875
3.154999999999955,-6.0,-13.0,-14.0,-31.0,-5.0,-9.0,-5.0,2.0,-0.27142333984375,-0.4295654296875,-0.67498779296875,-0.53509521484375,-0.166015625,0.84765625,0.5478515625,-1.1875,-1.1875,0.1875
3.159999999999955,2.0,14.0,9.0,9.0,-11.0,23.0,-4.0,0.0,-0.27142333984375,-0.4295654296875,-0.67498779296875,-0.53509521484375,-0.166015625,0.84765625,0.5478515625,-1.1875,-1.1875,0.1875
3.1649999999999547,2.0,14.0,9.0,9.0,-11.0,23.0,-4.0,0.0,-0.272705078125,-0.42779541015625,-0.675048828125,-0.53570556640625,-0.09033203125,0.88525390625,0.56640625,0.125,-11.3125,3.625
3.1699999999999546,2.0,14.0,9.0,9.0,-11.0,23.0,-4.0,0.0,-0.272705078125,-0.42779541015625,-0.675048828125,-0.53570556640625,-0.09033203125,0.88525390625,0.56640625,0.125,-11.3125,3.625
3.1749999999999545,1.0,1.0,12.0,-14.0,-5.0,1.0,-4.0,-7.0,-0.272705078125,-0.42779541015625,-0.675048828125,-0.53570556640625,-0.09033203125,0.88525390625,0.56640625,0.125,-11.3125,3.625
3.1799999999999544,-1.0,-4.0,-23.0,10.0,72.0,-13.0,13.0,23.0,-0.275146484375,-0.42724609375,-0.67474365234375,-0.5352783203125,-0.04541015625,0.81982421875,0.50048828125,9.5,-9.1875,5.3125
3.1849999999999543,-1.0,-4.0,-23.0,10.0,72.0,-13.0,13.0,23.0,-0.2769775390625,-0.42767333984375,-0.6744384765625,-0.534423828125,-0.07470703125,0.90576171875,0.4404296875,5.8125,-4.1875,5.3125
3.189999999999954,-2.0,-4.0,-3.0,-9.0,-6.0,7.0,-7.0,-6.0,-0.2769775390625,-0.42767333984375,-0.6744384765625,-0.534423828125,-0.07470703125,0.90576171875,0.4404296875,5.8125,-4.1875,5.3125
3.194999999999954,-9.0,-6.0,-12.0,7.0,6.0,-11.0,-22.0,-13.0,-0.2769775390625,-0.42767333984375,-0.6744384765625,-0.534423828125,-0.07470703125,0.90576171875,0.4404296875,5.8125,-4.1875,5.3125
3.199999999999954,-9.0,-6.0,-12.0,7.0,6.0,-11.0,-22.0,-13.0,-0.2769775390625,-0.42767333984375,-0.6744384765625,-0.534423828125,-0.07470703125,0.90576171875,0.4404296875,5.8125,-4.1875,5.3125
3.204999999999954,12.0,4.0,-8.0,-19.0,-27.0,-1.0,-7.0,-8.0,-0.27783203125,-0.42779541015625,-0.674072265625,-0.53436279296875,-0.1005859375,0.9248046875,0.39208984375,-3.0,-4.3125,1.875
3.209999999999954,19.0,6.0,8.0,47.0,15.0,17.0,58.0,33.0,-0.27655029296875,-0.425537109375,-0.674560546875,-0.5362548828125,-0.134765625,0.8427734375,0.48828125,-15.875,-7.625,-2.25
3.2149999999999537,-10.0,5.0,16.0,12.0,-19.0,-43.0,-16.0,-14.0,-0.2769775390625,-0.42413330078125,-0.67437744140625,-0.53729248046875,-0.09765625,0.79150390625,0.49951171875,-1.875,-9.1875,0.25
3.2199999999999536,-3.0,-7.0,-10.0,28.0,-6.0,-13.0,-17.0,44.0,-0.2769775390625,-0.42413330078125,-0.67437744140625,-0.53729248046875,-0.09765625,0.79150390625,0.49951171875,-1.875,-9.1875,0.25
3.2249999999999535,-4.0,10.0,8.0,61.0,81.0,28.0,59.0,19.0,-0.27911376953125,-0.4234619140625,-0.6737060546875,-0.53759765625,-0.09228515625,0.8798828125,0.5068359375,6.0625,-12.625,3.8125
3.2299999999999534,-4.0,10.0,8.0,61.0,81.0,28.0,59.0,19.0,-0.27911376953125,-0.4234619140625,-0.6737060546875,-0.53759765625,-0.09228515625,0.8798828125,0.5068359375,6.0625,-12.625,3.8125
