0.005,-3.0,-3.0,-3.0,-18.0,2.0,0.0,-2.0,-6.0,0.5223388671875,-0.31439208984375,0.37109375,-0.70050048828125,0.01171875,-0.9794921875,0.27734375,-22.6875,6.3125,40.6875
0.01,1.0,-2.0,-6.0,2.0,1.0,-9.0,-2.0,1.0,0.5223388671875,-0.31439208984375,0.37109375,-0.70050048828125,0.01171875,-0.9794921875,0.27734375,-22.6875,6.3125,40.6875
0.015,1.0,-2.0,-6.0,2.0,1.0,-9.0,-2.0,1.0,0.5223388671875,-0.31439208984375,0.37109375,-0.70050048828125,0.01171875,-0.9794921875,0.27734375,-22.6875,6.3125,40.6875
0.02,1.0,-2.0,-6.0,2.0,1.0,-9.0,-2.0,1.0,0.5225830078125,-0.31829833984375,0.3673095703125,-0.700439453125,0.04052734375,-1.00048828125,0.29052734375,-18.5,5.9375,33.5625
0.025,1.0,-2.0,-6.0,2.0,1.0,-9.0,-2.0,1.0,0.5225830078125,-0.31829833984375,0.3673095703125,-0.700439453125,0.04052734375,-1.00048828125,0.29052734375,-18.5,5.9375,33.5625
0.030000000000000002,-2.0,-2.0,-2.0,2.0,-7.0,20.0,2.0,-1.0,0.5225830078125,-0.31829833984375,0.3673095703125,-0.700439453125,0.04052734375,-1.00048828125,0.29052734375,-18.5,5.9375,33.5625
0.035,-2.0,-2.0,-2.0,2.0,-7.0,20.0,2.0,-1.0,0.5225830078125,-0.31829833984375,0.3673095703125,-0.700439453125,0.04052734375,-1.00048828125,0.29052734375,-18.5,5.9375,33.5625
0.04,-2.0,0.0,2.0,3.0,-5.0,-1.0,0.0,-1.0,0.5220947265625,-0.32049560546875,0.364990234375,-0.7010498046875,0.05126953125,-0.97900390625,0.30615234375,-8.75,3.875,26.25
0.045,-2.0,0.0,2.0,3.0,-5.0,-1.0,0.0,-1.0,0.5220947265625,-0.32049560546875,0.364990234375,-0.7010498046875,0.05126953125,-0.97900390625,0.30615234375,-8.75,3.875,26.25
0.049999999999999996,-2.0,0.0,2.0,3.0,-5.0,-1.0,0.0,-1.0,0.5220947265625,-0.32049560546875,0.364990234375,-0.7010498046875,0.05126953125,-0.97900390625,0.30615234375,-8.75,3.875,26.25
0.05499999999999999,-2.0,0.0,2.0,3.0,-5.0,-1.0,0.0,-1.0,0.5220947265625,-0.32049560546875,0.364990234375,-0.7010498046875,0.05126953125,-0.97900390625,0.30615234375,-8.75,3.875,26.25
0.05999999999999999,-1.0,0.0,0.0,5.0,-2.0,0.0,-2.0,-1.0,0.5220947265625,-0.32049560546875,0.364990234375,-0.7010498046875,0.05126953125,-0.97900390625,0.30615234375,-8.75,3.875,26.25
0.06499999999999999,-1.0,0.0,0.0,5.0,-2.0,0.0,-2.0,-1.0,0.5220947265625,-0.32049560546875,0.364990234375,-0.7010498046875,0.05126953125,-0.97900390625,0.30615234375,-8.75,3.875,26.25
0.06999999999999999,-4.0,0.0,1.0,-15.0,-3.0,0.0,1.0,-1.0,0.52130126953125,-0.32110595703125,0.3636474609375,-0.70208740234375,0.0390625,-0.93017578125,0.3115234375,-2.3125,0.625,18.25
0.075,-4.0,0.0,1.0,-15.0,-3.0,0.0,1.0,-1.0,0.52130126953125,-0.32110595703125,0.3636474609375,-0.70208740234375,0.0390625,-0.93017578125,0.3115234375,-2.3125,0.625,18.25
0.08,-4.0,0.0,1.0,-15.0,-3.0,0.0,1.0,-1.0,0.52130126953125,-0.32110595703125,0.3636474609375,-0.70208740234375,0.0390625,-0.93017578125,0.3115234375,-2.3125,0.625,18.25
0.085,-4.0,0.0,1.0,-15.0,-3.0,0.0,1.0,-1.0,0.52130126953125,-0.32110595703125,0.3636474609375,-0.70208740234375,0.0390625,-0.93017578125,0.3115234375,-2.3125,0.625,18.25
0.09000000000000001,-2.0,-3.0,-4.0,9.0,-7.0,-5.0,-1.0,1.0,0.52130126953125,-0.32110595703125,0.3636474609375,-0.70208740234375,0.0390625,-0.93017578125,0.3115234375,-2.3125,0.625,18.25
0.09500000000000001,-2.0,-3.0,-4.0,9.0,-7.0,-5.0,-1.0,1.0,0.52130126953125,-0.32110595703125,0.3636474609375,-0.70208740234375,0.0390625,-0.93017578125,0.3115234375,-2.3125,0.625,18.25
0.10000000000000002,-2.0,-3.0,-4.0,9.0,-7.0,-5.0,-1.0,1.0,0.52130126953125,-0.32110595703125,0.3636474609375,-0.70208740234375,0.0390625,-0.93017578125,0.3115234375,-2.3125,0.625,18.25
0.10500000000000002,-2.0,-3.0,-4.0,9.0,-7.0,-5.0,-1.0,1.0,0.52130126953125,-0.32110595703125,0.3636474609375,-0.70208740234375,0.0390625,-0.93017578125,0.3115234375,-2.3125,0.625,18.25
0.11000000000000003,-1.0,-2.0,-3.0,5.0,7.0,9.0,1.0,1.0,0.521484375,-0.320556640625,0.36260986328125,-0.7027587890625,0.02001953125,-0.91748046875,0.3076171875,-4.375,-4.9375,9.375
0.11500000000000003,-5.0,-4.0,-10.0,-23.0,-16.0,-16.0,-5.0,-1.0,0.521484375,-0.320556640625,0.36260986328125,-0.7027587890625,0.02001953125,-0.91748046875,0.3076171875,-4.375,-4.9375,9.375
0.12000000000000004,1.0,0.0,1.0,1.0,1.0,-1.0,-2.0,-1.0,0.5223388671875,-0.3189697265625,0.36212158203125,-0.70306396484375,0.00146484375,-0.92529296875,0.28759765625,-3.3125,-9.0,0.875
0.12500000000000003,1.0,0.0,1.0,1.0,1.0,-1.0,-2.0,-1.0,0.5223388671875,-0.3189697265625,0.36212158203125,-0.70306396484375,0.00146484375,-0.92529296875,0.28759765625,-3.3125,-9.0,0.875
0.13000000000000003,1.0,0.0,1.0,1.0,1.0,-1.0,-2.0,-1.0,0.5223388671875,-0.3189697265625,0.36212158203125,-0.70306396484375,0.00146484375,-0.92529296875,0.28759765625,-3.3125,-9.0,0.875
0.13500000000000004,-2.0,-1.0,0.0,3.0,4.0,8.0,4.0,-2.0,0.5223388671875,-0.3189697265625,0.36212158203125,-0.70306396484375,0.00146484375,-0.92529296875,0.28759765625,-3.3125,-9.0,0.875
0.14000000000000004,-2.0,-1.0,0.0,3.0,4.0,8.0,4.0,-2.0,0.5223388671875,-0.3189697265625,0.36212158203125,-0.70306396484375,0.00146484375,-0.92529296875,0.28759765625,-3.3125,-9.0,0.875
0.14500000000000005,-2.0,-2.0,-2.0,9.0,-6.0,-25.0,-6.0,-2.0,0.5233154296875,-0.3162841796875,0.3623046875,-0.70343017578125,-0.02880859375,-0.9326171875,0.2626953125,1.6875,-12.0625,-7.375
0.15000000000000005,-2.0,-2.0,-2.0,9.0,-6.0,-25.0,-6.0,-2.0,0.5233154296875,-0.3162841796875,0.3623046875,-0.70343017578125,-0.02880859375,-0.9326171875,0.2626953125,1.6875,-12.0625,-7.375
0.15500000000000005,-1.0,-2.0,0.0,-9.0,-1.0,-14.0,-1.0,1.0,0.5233154296875,-0.3162841796875,0.3623046875,-0.70343017578125,-0.02880859375,-0.9326171875,0.2626953125,1.6875,-12.0625,-7.375
0.16000000000000006,-2.0,-1.0,-2.0,8.0,-6.0,6.0,3.0,-1.0,0.5233154296875,-0.3162841796875,0.3623046875,-0.70343017578125,-0.02880859375,-0.9326171875,0.2626953125,1.6875,-12.0625,-7.375
0.16500000000000006,-2.0,-1.0,-2.0,8.0,-6.0,6.0,3.0,-1.0,0.52447509765625,-0.31298828125,0.36328125,-0.70355224609375,-0.05712890625,-0.94189453125,0.2265625,5.8125,-13.0625,-15.5625
0.17000000000000007,-2.0,-1.0,-2.0,8.0,-6.0,6.0,3.0,-1.0,0.52447509765625,-0.31298828125,0.36328125,-0.70355224609375,-0.05712890625,-0.94189453125,0.2265625,5.8125,-13.0625,-15.5625
0.17500000000000007,-6.0,-4.0,-5.0,-15.0,0.0,6.0,0.0,-4.0,0.52447509765625,-0.31298828125,0.36328125,-0.70355224609375,-0.05712890625,-0.94189453125,0.2265625,5.8125,-13.0625,-15.5625
0.18000000000000008,-6.0,-4.0,-5.0,-15.0,0.0,6.0,0.0,-4.0,0.52447509765625,-0.31298828125,0.36328125,-0.70355224609375,-0.05712890625,-0.94189453125,0.2265625,5.8125,-13.0625,-15.5625
0.18500000000000008,3.0,1.0,-1.0,8.0,4.0,4.0,-1.0,-1.0,0.5263671875,-0.309814453125,0.36468505859375,-0.70281982421875,-0.06982421875,-0.95068359375,0.1875,3.4375,-11.8125,-21.375
0.19000000000000009,3.0,1.0,-1.0,8.0,4.0,4.0,-1.0,-1.0,0.5263671875,-0.309814453125,0.36468505859375,-0.70281982421875,-0.06982421875,-0.95068359375,0.1875,3.4375,-11.8125,-21.375
0.1950000000000001,-2.0,1.0,0.0,0.0,-5.0,-9.0,-4.0,0.0,0.5263671875,-0.309814453125,0.36468505859375,-0.70281982421875,-0.06982421875,-0.95068359375,0.1875,3.4375,-11.8125,-21.375
0.2000000000000001,-2.0,1.0,0.0,0.0,-5.0,-9.0,-4.0,0.0,0.5263671875,-0.309814453125,0.36468505859375,-0.70281982421875,-0.06982421875,-0.95068359375,0.1875,3.4375,-11.8125,-21.375
0.2050000000000001,1.0,-1.0,-8.0,-29.0,0.0,11.0,1.0,-1.0,0.52862548828125,-0.30694580078125,0.3662109375,-0.70159912109375,-0.06494140625,-0.986328125,0.1826171875,0.625,-10.25,-22.875
0.2100000000000001,1.0,-1.0,-8.0,-29.0,0.0,11.0,1.0,-1.0,0.52862548828125,-0.30694580078125,0.3662109375,-0.70159912109375,-0.06494140625,-0.986328125,0.1826171875,0.625,-10.25,-22.875
0.2150000000000001,1.0,-1.0,-8.0,-29.0,0.0,11.0,1.0,-1.0,0.52862548828125,-0.30694580078125,0.3662109375,-0.70159912109375,-0.06494140625,-0.986328125,0.1826171875,0.625,-10.25,-22.875
0.2200000000000001,0.0,0.0,0.0,-9.0,0.0,-1.0,-1.0,-2.0,0.52862548828125,-0.30694580078125,0.3662109375,-0.70159912109375,-0.06494140625,-0.986328125,0.1826171875,0.625,-10.25,-22.875
0.22500000000000012,0.0,-3.0,2.0,20.0,4.0,18.0,4.0,1.0,0.53082275390625,-0.30450439453125,0.36700439453125,-0.70062255859375,-0.064453125,-0.9921875,0.18408203125,-0.0625,-10.875,-18.5
0.23000000000000012,0.0,-3.0,2.0,20.0,4.0,18.0,4.0,1.0,0.53082275390625,-0.30450439453125,0.36700439453125,-0.70062255859375,-0.064453125,-0.9921875,0.18408203125,-0.0625,-10.875,-18.5
0.23500000000000013,0.0,-3.0,2.0,20.0,4.0,18.0,4.0,1.0,0.53082275390625,-0.30450439453125,0.36700439453125,-0.70062255859375,-0.064453125,-0.9921875,0.18408203125,-0.0625,-10.875,-18.5
0.24000000000000013,2.0,0.0,2.0,11.0,2.0,7.0,-1.0,2.0,0.53082275390625,-0.30450439453125,0.36700439453125,-0.70062255859375,-0.064453125,-0.9921875,0.18408203125,-0.0625,-10.875,-18.5
0.24500000000000013,-3.0,0.0,3.0,-1.0,-3.0,2.0,0.0,-2.0,0.53082275390625,-0.30450439453125,0.36700439453125,-0.70062255859375,-0.064453125,-0.9921875,0.18408203125,-0.0625,-10.875,-18.5
0.2500000000000001,-3.0,0.0,3.0,-1.0,-3.0,2.0,0.0,-2.0,0.5333251953125,-0.30316162109375,0.3665771484375,-0.699462890625,-0.07275390625,-1.00341796875,0.18310546875,-6.625,-11.0,-11.9375
0.2550000000000001,-3.0,0.0,3.0,-1.0,-3.0,2.0,0.0,-2.0,0.5333251953125,-0.30316162109375,0.3665771484375,-0.699462890625,-0.07275390625,-1.00341796875,0.18310546875,-6.625,-11.0,-11.9375
0.2600000000000001,0.0,-2.0,3.0,18.0,-3.0,-15.0,-3.0,0.0,0.5333251953125,-0.30316162109375,0.3665771484375,-0.699462890625,-0.07275390625,-1.00341796875,0.18310546875,-6.625,-11.0,-11.9375
0.2650000000000001,0.0,-2.0,3.0,18.0,-3.0,-15.0,-3.0,0.0,0.5333251953125,-0.30316162109375,0.3665771484375,-0.699462890625,-0.07275390625,-1.00341796875,0.18310546875,-6.625,-11.0,-11.9375
0.27000000000000013,-2.0,-1.0,-2.0,-15.0,3.0,4.0,0.0,-2.0,0.5361328125,-0.30291748046875,0.3651123046875,-0.69818115234375,-0.06640625,-1.013671875,0.19091796875,-13.0625,-9.8125,-4.3125
0.27500000000000013,-2.0,-1.0,-2.0,-15.0,3.0,4.0,0.0,-2.0,0.5361328125,-0.30291748046875,0.3651123046875,-0.69818115234375,-0.06640625,-1.013671875,0.19091796875,-13.0625,-9.8125,-4.3125
0.28000000000000014,-2.0,-2.0,-5.0,-23.0,-16.0,-12.0,-2.0,-3.0,0.5361328125,-0.30291748046875,0.3651123046875,-0.69818115234375,-0.06640625,-1.013671875,0.19091796875,-13.0625,-9.8125,-4.3125
0.28500000000000014,-3.0,-4.0,-5.0,-10.0,-4.0,-12.0,-3.0,-3.0,0.5361328125,-0.30291748046875,0.3651123046875,-0.69818115234375,-0.06640625,-1.013671875,0.19091796875,-13.0625,-9.8125,-4.3125
0.29000000000000015,-3.0,-4.0,-5.0,-10.0,-4.0,-12.0,-3.0,-3.0,0.5384521484375,-0.303466796875,0.362548828125,-0.697509765625,-0.05029296875,-1.01806640625,0.224609375,-15.5625,-9.625,5.125
0.29500000000000015,-3.0,-4.0,-5.0,-10.0,-4.0,-12.0,-3.0,-3.0,0.5384521484375,-0.303466796875,0.362548828125,-0.697509765625,-0.05029296875,-1.01806640625,0.224609375,-15.5625,-9.625,5.125
0.30000000000000016,0.0,2.0,1.0,11.0,4.0,7.0,-1.0,0.0,0.5384521484375,-0.303466796875,0.362548828125,-0.697509765625,-0.05029296875,-1.01806640625,0.224609375,-15.5625,-9.625,5.125
0.30500000000000016,-3.0,-1.0,3.0,4.0,-1.0,-14.0,-4.0,-4.0,0.54058837890625,-0.304443359375,0.3590087890625,-0.697265625,-0.0283203125,-1.01611328125,0.2392578125,-17.1875,-11.0625,13.625
0.31000000000000016,-3.0,-1.0,3.0,4.0,-1.0,-14.0,-4.0,-4.0,0.54058837890625,-0.304443359375,0.3590087890625,-0.697265625,-0.0283203125,-1.01611328125,0.2392578125,-17.1875,-11.0625,13.625
0.31500000000000017,-3.0,-1.0,3.0,4.0,-1.0,-14.0,-4.0,-4.0,0.54058837890625,-0.304443359375,0.3590087890625,-0.697265625,-0.0283203125,-1.01611328125,0.2392578125,-17.1875,-11.0625,13.625
0.3200000000000002,-1.0,-1.0,0.0,6.0,7.0,12.0,4.0,-2.0,0.54058837890625,-0.304443359375,0.3590087890625,-0.697265625,-0.0283203125,-1.01611328125,0.2392578125,-17.1875,-11.0625,13.625
0.3250000000000002,-1.0,-1.0,0.0,6.0,7.0,12.0,4.0,-2.0,0.54058837890625,-0.304443359375,0.3590087890625,-0.697265625,-0.0283203125,-1.01611328125,0.2392578125,-17.1875,-11.0625,13.625
0.3300000000000002,-2.0,-1.0,-1.0,-17.0,-9.0,-3.0,-2.0,-1.0,0.54058837890625,-0.304443359375,0.3590087890625,-0.697265625,-0.0283203125,-1.01611328125,0.2392578125,-17.1875,-11.0625,13.625
0.3350000000000002,0.0,1.0,2.0,7.0,0.0,-10.0,-4.0,0.0,0.54217529296875,-0.30572509765625,0.35528564453125,-0.6973876953125,-0.0146484375,-1.02099609375,0.2607421875,-17.1875,-9.25,18.0625
0.3400000000000002,0.0,1.0,2.0,7.0,0.0,-10.0,-4.0,0.0,0.54217529296875,-0.30572509765625,0.35528564453125,-0.6973876953125,-0.0146484375,-1.02099609375,0.2607421875,-17.1875,-9.25,18.0625
0.3450000000000002,0.0,1.0,2.0,7.0,0.0,-10.0,-4.0,0.0,0.54217529296875,-0.30572509765625,0.35528564453125,-0.6973876953125,-0.0146484375,-1.02099609375,0.2607421875,-17.1875,-9.25,18.0625
0.3500000000000002,1.0,-3.0,-3.0,-12.0,1.0,11.0,0.0,-2.0,0.54217529296875,-0.30572509765625,0.35528564453125,-0.6973876953125,-0.0146484375,-1.02099609375,0.2607421875,-17.1875,-9.25,18.0625
0.3550000000000002,1.0,-3.0,-3.0,-12.0,1.0,11.0,0.0,-2.0,0.54217529296875,-0.30572509765625,0.35528564453125,-0.6973876953125,-0.0146484375,-1.02099609375,0.2607421875,-17.1875,-9.25,18.0625
0.3600000000000002,-1.0,1.0,-2.0,-3.0,-6.0,-27.0,-4.0,1.0,0.54327392578125,-0.3072509765625,0.3524169921875,-0.69732666015625,-0.00146484375,-1.03271484375,0.267578125,-15.0625,-4.25,17.6875
0.3650000000000002,1.0,3.0,3.0,-2.0,1.0,5.0,-1.0,-2.0,0.54327392578125,-0.3072509765625,0.3524169921875,-0.69732666015625,-0.00146484375,-1.03271484375,0.267578125,-15.0625,-4.25,17.6875
0.3700000000000002,1.0,3.0,3.0,-2.0,1.0,5.0,-1.0,-2.0,0.54327392578125,-0.3072509765625,0.3524169921875,-0.69732666015625,-0.00146484375,-1.03271484375,0.267578125,-15.0625,-4.25,17.6875
0.3750000000000002,0.0,-3.0,-10.0,-24.0,1.0,-1.0,-2.0,1.0,0.54364013671875,-0.3084716796875,0.350341796875,-0.697509765625,0.0009765625,-1.046875,0.28857421875,-10.625,-1.625,15.5625
0.3800000000000002,0.0,-3.0,-10.0,-24.0,1.0,-1.0,-2.0,1.0,0.54364013671875,-0.3084716796875,0.350341796875,-0.697509765625,0.0009765625,-1.046875,0.28857421875,-10.625,-1.625,15.5625
0.38500000000000023,0.0,-3.0,-10.0,-24.0,1.0,-1.0,-2.0,1.0,0.54364013671875,-0.3084716796875,0.350341796875,-0.697509765625,0.0009765625,-1.046875,0.28857421875,-10.625,-1.625,15.5625
0.39000000000000024,-4.0,-1.0,-6.0,-11.0,7.0,2.0,-1.0,-1.0,0.54364013671875,-0.3084716796875,0.350341796875,-0.697509765625,0.0009765625,-1.046875,0.28857421875,-10.625,-1.625,15.5625
0.39500000000000024,-3.0,-3.0,-1.0,17.0,-2.0,3.0,0.0,0.0,0.54327392578125,-0.3092041015625,0.348876953125,-0.6982421875,0.0078125,-1.013671875,0.2861328125,-4.3125,-1.125,14.1875
0.40000000000000024,-3.0,-3.0,-1.0,17.0,-2.0,3.0,0.0,0.0,0.54327392578125,-0.3092041015625,0.348876953125,-0.6982421875,0.0078125,-1.013671875,0.2861328125,-4.3125,-1.125,14.1875
0.40500000000000025,-3.0,-3.0,-1.0,17.0,-2.0,3.0,0.0,0.0,0.54327392578125,-0.3092041015625,0.348876953125,-0.6982421875,0.0078125,-1.013671875,0.2861328125,-4.3125,-1.125,14.1875
0.41000000000000025,-3.0,-3.0,-1.0,17.0,-2.0,3.0,0.0,0.0,0.54327392578125,-0.3092041015625,0.348876953125,-0.6982421875,0.0078125,-1.013671875,0.2861328125,-4.3125,-1.125,14.1875
0.41500000000000026,-1.0,-2.0,-3.0,1.0,-3.0,2.0,1.0,-2.0,0.54327392578125,-0.3092041015625,0.348876953125,-0.6982421875,0.0078125,-1.013671875,0.2861328125,-4.3125,-1.125,14.1875
0.42000000000000026,-1.0,-2.0,-3.0,1.0,-3.0,2.0,1.0,-2.0,0.54327392578125,-0.3092041015625,0.348876953125,-0.6982421875,0.0078125,-1.013671875,0.2861328125,-4.3125,-1.125,14.1875
0.42500000000000027,-2.0,-2.0,0.0,13.0,5.0,6.0,3.0,1.0,0.542236328125,-0.30914306640625,0.347900390625,-0.69952392578125,0.0068359375,-0.97021484375,0.29931640625,0.9375,-2.1875,12.4375
0.43000000000000027,-2.0,-2.0,0.0,13.0,5.0,6.0,3.0,1.0,0.542236328125,-0.30914306640625,0.347900390625,-0.69952392578125,0.0068359375,-0.97021484375,0.29931640625,0.9375,-2.1875,12.4375
0.4350000000000003,-2.0,-2.0,0.0,13.0,5.0,6.0,3.0,1.0,0.542236328125,-0.30914306640625,0.347900390625,-0.69952392578125,0.0068359375,-0.97021484375,0.29931640625,0.9375,-2.1875,12.4375
0.4400000000000003,-2.0,-4.0,-1.0,4.0,2.0,-6.0,-5.0,-1.0,0.542236328125,-0.30914306640625,0.347900390625,-0.69952392578125,0.0068359375,-0.97021484375,0.29931640625,0.9375,-2.1875,12.4375
0.4450000000000003,-2.0,-1.0,1.0,-12.0,-7.0,5.0,-1.0,-2.0,0.5418701171875,-0.3087158203125,0.34674072265625,-0.7005615234375,0.01171875,-0.9560546875,0.283203125,-1.125,-5.1875,10.625
0.4500000000000003,-2.0,-1.0,1.0,-12.0,-7.0,5.0,-1.0,-2.0,0.5418701171875,-0.3087158203125,0.34674072265625,-0.7005615234375,0.01171875,-0.9560546875,0.283203125,-1.125,-5.1875,10.625
0.4550000000000003,-2.0,-1.0,1.0,-12.0,-7.0,5.0,-1.0,-2.0,0.5418701171875,-0.3087158203125,0.34674072265625,-0.7005615234375,0.01171875,-0.9560546875,0.283203125,-1.125,-5.1875,10.625
0.4600000000000003,1.0,0.0,-2.0,-6.0,-4.0,-1.0,-2.0,-2.0,0.5418701171875,-0.3087158203125,0.34674072265625,-0.7005615234375,0.01171875,-0.9560546875,0.283203125,-1.125,-5.1875,10.625
0.4650000000000003,1.0,0.0,-2.0,-6.0,-4.0,-1.0,-2.0,-2.0,0.5418701171875,-0.3087158203125,0.34674072265625,-0.7005615234375,0.01171875,-0.9560546875,0.283203125,-1.125,-5.1875,10.625
0.4700000000000003,-2.0,-2.0,-4.0,-10.0,4.0,-3.0,-1.0,-3.0,0.54168701171875,-0.307861328125,0.34588623046875,-0.7015380859375,0.01171875,-0.95263671875,0.2646484375,0.6875,-6.4375,7.6875
0.4750000000000003,-2.0,-2.0,-4.0,-10.0,4.0,-3.0,-1.0,-3.0,0.54168701171875,-0.307861328125,0.34588623046875,-0.7015380859375,0.01171875,-0.95263671875,0.2646484375,0.6875,-6.4375,7.6875
0.4800000000000003,-2.0,-2.0,-4.0,-10.0,4.0,-3.0,-1.0,-3.0,0.54168701171875,-0.307861328125,0.34588623046875,-0.7015380859375,0.01171875,-0.95263671875,0.2646484375,0.6875,-6.4375,7.6875
0.4850000000000003,-2.0,-2.0,-4.0,-10.0,4.0,-3.0,-1.0,-3.0,0.54168701171875,-0.307861328125,0.34588623046875,-0.7015380859375,0.01171875,-0.95263671875,0.2646484375,0.6875,-6.4375,7.6875
0.4900000000000003,-1.0,-1.0,-1.0,-15.0,-1.0,11.0,3.0,0.0,0.54168701171875,-0.307861328125,0.34588623046875,-0.7015380859375,0.01171875,-0.95263671875,0.2646484375,0.6875,-6.4375,7.6875
0.49500000000000033,-1.0,-1.0,-1.0,-15.0,-1.0,11.0,3.0,0.0,0.54168701171875,-0.307861328125,0.34588623046875,-0.7015380859375,0.01171875,-0.95263671875,0.2646484375,0.6875,-6.4375,7.6875
0.5000000000000003,-1.0,0.0,-1.0,7.0,-12.0,-8.0,1.0,-1.0,0.54144287109375,-0.30670166015625,0.34564208984375,-0.70233154296875,0.00439453125,-0.94775390625,0.23681640625,4.125,-5.0625,3.25
0.5050000000000003,-1.0,0.0,-1.0,7.0,-12.0,-8.0,1.0,-1.0,0.54144287109375,-0.30670166015625,0.34564208984375,-0.70233154296875,0.00439453125,-0.94775390625,0.23681640625,4.125,-5.0625,3.25
0.5100000000000003,-1.0,-1.0,2.0,-15.0,-5.0,11.0,0.0,-2.0,0.54144287109375,-0.30670166015625,0.34564208984375,-0.70233154296875,0.00439453125,-0.94775390625,0.23681640625,4.125,-5.0625,3.25
0.5150000000000003,-1.0,-1.0,2.0,-15.0,-5.0,11.0,0.0,-2.0,0.54144287109375,-0.30670166015625,0.34564208984375,-0.70233154296875,0.00439453125,-0.94775390625,0.23681640625,4.125,-5.0625,3.25
0.5200000000000004,1.0,-1.0,-6.0,-24.0,-5.0,-26.0,-8.0,-5.0,0.54119873046875,-0.3050537109375,0.3463134765625,-0.70294189453125,0.0048828125,-0.9462890625,0.21337890625,8.0,-4.3125,-2.125
0.5250000000000004,1.0,-1.0,-6.0,-24.0,-5.0,-26.0,-8.0,-5.0,0.54119873046875,-0.3050537109375,0.3463134765625,-0.70294189453125,0.0048828125,-0.9462890625,0.21337890625,8.0,-4.3125,-2.125
0.5300000000000004,1.0,-1.0,-6.0,-24.0,-5.0,-26.0,-8.0,-5.0,0.54119873046875,-0.3050537109375,0.3463134765625,-0.70294189453125,0.0048828125,-0.9462890625,0.21337890625,8.0,-4.3125,-2.125
0.5350000000000004,1.0,-1.0,-6.0,-24.0,-5.0,-26.0,-8.0,-5.0,0.54119873046875,-0.3050537109375,0.3463134765625,-0.70294189453125,0.0048828125,-0.9462890625,0.21337890625,8.0,-4.3125,-2.125
0.5400000000000004,1.0,-3.0,-2.0,8.0,0.0,-3.0,0.0,2.0,0.54119873046875,-0.3050537109375,0.3463134765625,-0.70294189453125,0.0048828125,-0.9462890625,0.21337890625,8.0,-4.3125,-2.125
0.5450000000000004,1.0,-3.0,-2.0,8.0,0.0,-3.0,0.0,2.0,0.54119873046875,-0.3050537109375,0.3463134765625,-0.70294189453125,0.0048828125,-0.9462890625,0.21337890625,8.0,-4.3125,-2.125
0.5500000000000004,-2.0,1.0,2.0,12.0,-1.0,19.0,3.0,1.0,0.541259765625,-0.3031005859375,0.34759521484375,-0.703125,-0.00048828125,-0.9521484375,0.185546875,8.9375,-3.75,-7.5625
0.5550000000000004,-2.0,1.0,2.0,12.0,-1.0,19.0,3.0,1.0,0.541259765625,-0.3031005859375,0.34759521484375,-0.703125,-0.00048828125,-0.9521484375,0.185546875,8.9375,-3.75,-7.5625
0.5600000000000004,-2.0,1.0,2.0,12.0,-1.0,19.0,3.0,1.0,0.541259765625,-0.3031005859375,0.34759521484375,-0.703125,-0.00048828125,-0.9521484375,0.185546875,8.9375,-3.75,-7.5625
0.5650000000000004,-2.0,1.0,2.0,12.0,-1.0,19.0,3.0,1.0,0.541259765625,-0.3031005859375,0.34759521484375,-0.703125,-0.00048828125,-0.9521484375,0.185546875,8.9375,-3.75,-7.5625
0.5700000000000004,-1.0,-2.0,0.0,11.0,2.0,-1.0,1.0,-1.0,0.541259765625,-0.3031005859375,0.34759521484375,-0.703125,-0.00048828125,-0.9521484375,0.185546875,8.9375,-3.75,-7.5625
0.5750000000000004,-1.0,-2.0,0.0,11.0,2.0,-1.0,1.0,-1.0,0.541259765625,-0.3031005859375,0.34759521484375,-0.703125,-0.00048828125,-0.9521484375,0.185546875,8.9375,-3.75,-7.5625
0.5800000000000004,-1.0,1.0,2.0,12.0,6.0,10.0,4.0,1.0,0.54156494140625,-0.30108642578125,0.3492431640625,-0.70294189453125,-0.00244140625,-0.95849609375,0.1708984375,9.0625,-2.625,-11.1875
0.5850000000000004,-1.0,1.0,2.0,12.0,6.0,10.0,4.0,1.0,0.54156494140625,-0.30108642578125,0.3492431640625,-0.70294189453125,-0.00244140625,-0.95849609375,0.1708984375,9.0625,-2.625,-11.1875
0.5900000000000004,-1.0,1.0,2.0,12.0,6.0,10.0,4.0,1.0,0.54156494140625,-0.30108642578125,0.3492431640625,-0.70294189453125,-0.00244140625,-0.95849609375,0.1708984375,9.0625,-2.625,-11.1875
0.5950000000000004,-1.0,1.0,2.0,12.0,6.0,10.0,4.0,1.0,0.54156494140625,-0.30108642578125,0.3492431640625,-0.70294189453125,-0.00244140625,-0.95849609375,0.1708984375,9.0625,-2.625,-11.1875
0.6000000000000004,-2.0,-3.0,-7.0,-23.0,-9.0,-5.0,-3.0,-2.0,0.54229736328125,-0.29925537109375,0.3511962890625,-0.7021484375,0.0,-0.98046875,0.1630859375,6.375,-1.1875,-13.8125
0.6050000000000004,-2.0,-4.0,-1.0,-6.0,-3.0,8.0,-2.0,-2.0,0.54229736328125,-0.29925537109375,0.3511962890625,-0.7021484375,0.0,-0.98046875,0.1630859375,6.375,-1.1875,-13.8125
0.6100000000000004,-2.0,-4.0,-1.0,-6.0,-3.0,8.0,-2.0,-2.0,0.54229736328125,-0.29925537109375,0.3511962890625,-0.7021484375,0.0,-0.98046875,0.1630859375,6.375,-1.1875,-13.8125
0.6150000000000004,-2.0,-4.0,-1.0,-6.0,-3.0,8.0,-2.0,-2.0,0.54229736328125,-0.29925537109375,0.3511962890625,-0.7021484375,0.0,-0.98046875,0.1630859375,6.375,-1.1875,-13.8125
0.6200000000000004,0.0,0.0,4.0,29.0,4.0,-14.0,-1.0,0.0,0.54229736328125,-0.29925537109375,0.3511962890625,-0.7021484375,0.0,-0.98046875,0.1630859375,6.375,-1.1875,-13.8125
0.6250000000000004,0.0,0.0,4.0,29.0,4.0,-14.0,-1.0,0.0,0.54229736328125,-0.29925537109375,0.3511962890625,-0.7021484375,0.0,-0.98046875,0.1630859375,6.375,-1.1875,-13.8125
0.6300000000000004,0.0,-1.0,-4.0,7.0,5.0,3.0,-5.0,-1.0,0.54345703125,-0.2974853515625,0.3533935546875,-0.700927734375,-0.00537109375,-0.99169921875,0.16015625,4.25,-0.3125,-16.6875
0.6350000000000005,0.0,-1.0,-4.0,7.0,5.0,3.0,-5.0,-1.0,0.54345703125,-0.2974853515625,0.3533935546875,-0.700927734375,-0.00537109375,-0.99169921875,0.16015625,4.25,-0.3125,-16.6875
0.6400000000000005,0.0,-1.0,-4.0,7.0,5.0,3.0,-5.0,-1.0,0.54345703125,-0.2974853515625,0.3533935546875,-0.700927734375,-0.00537109375,-0.99169921875,0.16015625,4.25,-0.3125,-16.6875
0.6450000000000005,0.0,-1.0,-4.0,7.0,5.0,3.0,-5.0,-1.0,0.54345703125,-0.2974853515625,0.3533935546875,-0.700927734375,-0.00537109375,-0.99169921875,0.16015625,4.25,-0.3125,-16.6875
0.6500000000000005,-2.0,-3.0,-1.0,-6.0,-9.0,-20.0,-9.0,-3.0,0.54345703125,-0.2974853515625,0.3533935546875,-0.700927734375,-0.00537109375,-0.99169921875,0.16015625,4.25,-0.3125,-16.6875
0.6550000000000005,-2.0,-3.0,-1.0,-6.0,-9.0,-20.0,-9.0,-3.0,0.54345703125,-0.2974853515625,0.3533935546875,-0.700927734375,-0.00537109375,-0.99169921875,0.16015625,4.25,-0.3125,-16.6875
0.6600000000000005,0.0,0.0,1.0,-4.0,-4.0,3.0,3.0,0.0,0.5450439453125,-0.29595947265625,0.3553466796875,-0.6993408203125,-0.0166015625,-0.994140625,0.1591796875,0.125,-0.8125,-17.875
0.6650000000000005,0.0,0.0,1.0,-4.0,-4.0,3.0,3.0,0.0,0.5450439453125,-0.29595947265625,0.3553466796875,-0.6993408203125,-0.0166015625,-0.994140625,0.1591796875,0.125,-0.8125,-17.875
0.6700000000000005,0.0,0.0,1.0,-4.0,-4.0,3.0,3.0,0.0,0.5450439453125,-0.29595947265625,0.3553466796875,-0.6993408203125,-0.0166015625,-0.994140625,0.1591796875,0.125,-0.8125,-17.875
0.6750000000000005,0.0,0.0,1.0,-4.0,-4.0,3.0,3.0,0.0,0.5450439453125,-0.29595947265625,0.3553466796875,-0.6993408203125,-0.0166015625,-0.994140625,0.1591796875,0.125,-0.8125,-17.875
0.6800000000000005,-1.0,-3.0,-3.0,-4.0,0.0,-8.0,-4.0,-2.0,0.546875,-0.2945556640625,0.35687255859375,-0.69775390625,-0.03125,-0.99853515625,0.16943359375,-2.4375,-1.8125,-17.5
0.6850000000000005,-1.0,-3.0,-3.0,-4.0,0.0,-8.0,-4.0,-2.0,0.546875,-0.2945556640625,0.35687255859375,-0.69775390625,-0.03125,-0.99853515625,0.16943359375,-2.4375,-1.8125,-17.5
0.6900000000000005,-1.0,-3.0,-3.0,-4.0,0.0,-8.0,-4.0,-2.0,0.546875,-0.2945556640625,0.35687255859375,-0.69775390625,-0.03125,-0.99853515625,0.16943359375,-2.4375,-1.8125,-17.5
0.6950000000000005,-1.0,-3.0,-3.0,-4.0,0.0,-8.0,-4.0,-2.0,0.546875,-0.2945556640625,0.35687255859375,-0.69775390625,-0.03125,-0.99853515625,0.16943359375,-2.4375,-1.8125,-17.5
0.7000000000000005,-1.0,-2.0,-2.0,-6.0,1.0,8.0,-2.0,0.0,0.546875,-0.2945556640625,0.35687255859375,-0.69775390625,-0.03125,-0.99853515625,0.16943359375,-2.4375,-1.8125,-17.5
0.7050000000000005,-1.0,-2.0,-2.0,-6.0,1.0,8.0,-2.0,0.0,0.546875,-0.2945556640625,0.35687255859375,-0.69775390625,-0.03125,-0.99853515625,0.16943359375,-2.4375,-1.8125,-17.5
0.7100000000000005,-2.0,-2.0,0.0,7.0,3.0,3.0,-3.0,-6.0,0.54864501953125,-0.29327392578125,0.35797119140625,-0.6962890625,-0.04736328125,-0.970703125,0.18115234375,-4.1875,-3.5,-16.5625
0.7150000000000005,-2.0,-2.0,0.0,7.0,3.0,3.0,-3.0,-6.0,0.54864501953125,-0.29327392578125,0.35797119140625,-0.6962890625,-0.04736328125,-0.970703125,0.18115234375,-4.1875,-3.5,-16.5625
0.7200000000000005,-2.0,-2.0,0.0,7.0,3.0,3.0,-3.0,-6.0,0.54864501953125,-0.29327392578125,0.35797119140625,-0.6962890625,-0.04736328125,-0.970703125,0.18115234375,-4.1875,-3.5,-16.5625
0.7250000000000005,-2.0,-3.0,-2.0,-1.0,4.0,-3.0,2.0,0.0,0.54864501953125,-0.29327392578125,0.35797119140625,-0.6962890625,-0.04736328125,-0.970703125,0.18115234375,-4.1875,-3.5,-16.5625
0.7300000000000005,-3.0,-3.0,-2.0,0.0,-5.0,3.0,-1.0,-1.0,0.55084228515625,-0.29241943359375,0.3583984375,-0.6947021484375,-0.06005859375,-0.97900390625,0.19580078125,-9.375,-4.75,-14.875
0.7350000000000005,-3.0,-3.0,-2.0,0.0,-5.0,3.0,-1.0,-1.0,0.55084228515625,-0.29241943359375,0.3583984375,-0.6947021484375,-0.06005859375,-0.97900390625,0.19580078125,-9.375,-4.75,-14.875
0.7400000000000005,-3.0,-3.0,-2.0,0.0,-5.0,3.0,-1.0,-1.0,0.55084228515625,-0.29241943359375,0.3583984375,-0.6947021484375,-0.06005859375,-0.97900390625,0.19580078125,-9.375,-4.75,-14.875
0.7450000000000006,1.0,-2.0,-4.0,0.0,10.0,-3.0,-2.0,2.0,0.55084228515625,-0.29241943359375,0.3583984375,-0.6947021484375,-0.06005859375,-0.97900390625,0.19580078125,-9.375,-4.75,-14.875
0.7500000000000006,1.0,-2.0,-4.0,0.0,10.0,-3.0,-2.0,2.0,0.55322265625,-0.29180908203125,0.35858154296875,-0.6929931640625,-0.07958984375,-1.01953125,0.20263671875,-11.6875,-5.0,-15.1875
0.7550000000000006,1.0,0.0,-3.0,-9.0,-7.0,-7.0,-2.0,0.0,0.55322265625,-0.29180908203125,0.35858154296875,-0.6929931640625,-0.07958984375,-1.01953125,0.20263671875,-11.6875,-5.0,-15.1875
0.7600000000000006,1.0,0.0,-3.0,-9.0,-7.0,-7.0,-2.0,0.0,0.55322265625,-0.29180908203125,0.35858154296875,-0.6929931640625,-0.07958984375,-1.01953125,0.20263671875,-11.6875,-5.0,-15.1875
0.7650000000000006,-1.0,1.0,-2.0,2.0,-3.0,-10.0,-2.0,-1.0,0.55322265625,-0.29180908203125,0.35858154296875,-0.6929931640625,-0.07958984375,-1.01953125,0.20263671875,-11.6875,-5.0,-15.1875
0.7700000000000006,-1.0,1.0,-2.0,2.0,-3.0,-10.0,-2.0,-1.0,0.55322265625,-0.29180908203125,0.35858154296875,-0.6929931640625,-0.07958984375,-1.01953125,0.20263671875,-11.6875,-5.0,-15.1875
0.7750000000000006,-1.0,1.0,-2.0,2.0,-3.0,-10.0,-2.0,-1.0,0.5546875,-0.29144287109375,0.35888671875,-0.6917724609375,-0.095703125,-1.015625,0.23681640625,-9.375,-3.0,-13.4375
0.7800000000000006,-2.0,-2.0,0.0,4.0,-2.0,-8.0,-3.0,-1.0,0.5546875,-0.29144287109375,0.35888671875,-0.6917724609375,-0.095703125,-1.015625,0.23681640625,-9.375,-3.0,-13.4375
0.7850000000000006,-2.0,-2.0,0.0,4.0,-2.0,-8.0,-3.0,-1.0,0.5546875,-0.29144287109375,0.35888671875,-0.6917724609375,-0.095703125,-1.015625,0.23681640625,-9.375,-3.0,-13.4375
0.7900000000000006,-2.0,-1.0,-2.0,4.0,4.0,7.0,2.0,1.0,0.5546875,-0.29144287109375,0.35888671875,-0.6917724609375,-0.095703125,-1.015625,0.23681640625,-9.375,-3.0,-13.4375
0.7950000000000006,-2.0,-1.0,-2.0,4.0,4.0,7.0,2.0,1.0,0.5546875,-0.29144287109375,0.35888671875,-0.6917724609375,-0.095703125,-1.015625,0.23681640625,-9.375,-3.0,-13.4375
0.8000000000000006,0.0,1.0,4.0,8.0,-1.0,-4.0,1.0,1.0,0.5552978515625,-0.29144287109375,0.35882568359375,-0.69134521484375,-0.10205078125,-1.00732421875,0.27001953125,-7.5625,-1.9375,-8.5
0.8050000000000006,0.0,1.0,4.0,8.0,-1.0,-4.0,1.0,1.0,0.5552978515625,-0.29144287109375,0.35882568359375,-0.69134521484375,-0.10205078125,-1.00732421875,0.27001953125,-7.5625,-1.9375,-8.5
0.8100000000000006,0.0,1.0,4.0,8.0,-1.0,-4.0,1.0,1.0,0.5552978515625,-0.29144287109375,0.35882568359375,-0.69134521484375,-0.10205078125,-1.00732421875,0.27001953125,-7.5625,-1.9375,-8.5
0.8150000000000006,-2.0,-1.0,-1.0,-8.0,-7.0,2.0,1.0,0.0,0.5552978515625,-0.29144287109375,0.35882568359375,-0.69134521484375,-0.10205078125,-1.00732421875,0.27001953125,-7.5625,-1.9375,-8.5
0.8200000000000006,-1.0,-1.0,-7.0,-18.0,3.0,5.0,-2.0,1.0,0.55517578125,-0.2921142578125,0.358154296875,-0.6915283203125,-0.099609375,-1.02734375,0.3095703125,-7.625,-1.125,-0.875
0.8250000000000006,-1.0,-1.0,-7.0,-18.0,3.0,5.0,-2.0,1.0,0.55517578125,-0.2921142578125,0.358154296875,-0.6915283203125,-0.099609375,-1.02734375,0.3095703125,-7.625,-1.125,-0.875
0.8300000000000006,-1.0,1.0,3.0,2.0,-3.0,-16.0,3.0,1.0,0.55517578125,-0.2921142578125,0.358154296875,-0.6915283203125,-0.099609375,-1.02734375,0.3095703125,-7.625,-1.125,-0.875
0.8350000000000006,-1.0,-2.0,-3.0,8.0,-1.0,14.0,1.0,-1.0,0.5543212890625,-0.29302978515625,0.35723876953125,-0.6922607421875,-0.07470703125,-1.03759765625,0.3173828125,-3.75,0.25,5.0
0.8400000000000006,-2.0,-1.0,-4.0,-4.0,-1.0,1.0,1.0,-2.0,0.5543212890625,-0.29302978515625,0.35723876953125,-0.6922607421875,-0.07470703125,-1.03759765625,0.3173828125,-3.75,0.25,5.0
0.8450000000000006,-2.0,-1.0,-4.0,-4.0,-1.0,1.0,1.0,-2.0,0.5543212890625,-0.29302978515625,0.35723876953125,-0.6922607421875,-0.07470703125,-1.03759765625,0.3173828125,-3.75,0.25,5.0
0.8500000000000006,-2.0,0.0,-1.0,-11.0,-4.0,7.0,2.0,0.0,0.5543212890625,-0.29302978515625,0.35723876953125,-0.6922607421875,-0.07470703125,-1.03759765625,0.3173828125,-3.75,0.25,5.0
0.8550000000000006,-2.0,0.0,-1.0,-11.0,-4.0,7.0,2.0,0.0,0.5543212890625,-0.29302978515625,0.35723876953125,-0.6922607421875,-0.07470703125,-1.03759765625,0.3173828125,-3.75,0.25,5.0
0.8600000000000007,0.0,-1.0,-1.0,-5.0,-6.0,-22.0,-6.0,-1.0,0.5531005859375,-0.294189453125,0.3560791015625,-0.693359375,-0.0693359375,-1.01171875,0.3095703125,-2.1875,0.75,8.5
0.8650000000000007,0.0,-1.0,-1.0,-5.0,-6.0,-22.0,-6.0,-1.0,0.5531005859375,-0.294189453125,0.3560791015625,-0.693359375,-0.0693359375,-1.01171875,0.3095703125,-2.1875,0.75,8.5
0.8700000000000007,0.0,-1.0,-1.0,-5.0,-6.0,-22.0,-6.0,-1.0,0.5531005859375,-0.294189453125,0.3560791015625,-0.693359375,-0.0693359375,-1.01171875,0.3095703125,-2.1875,0.75,8.5
0.8750000000000007,-1.0,-3.0,-2.0,-15.0,-12.0,1.0,2.0,-2.0,0.5531005859375,-0.294189453125,0.3560791015625,-0.693359375,-0.0693359375,-1.01171875,0.3095703125,-2.1875,0.75,8.5
0.8800000000000007,-1.0,-3.0,-2.0,-15.0,-12.0,1.0,2.0,-2.0,0.5531005859375,-0.294189453125,0.3560791015625,-0.693359375,-0.0693359375,-1.01171875,0.3095703125,-2.1875,0.75,8.5
0.8850000000000007,-1.0,-3.0,-2.0,-15.0,-12.0,1.0,2.0,-2.0,0.5521240234375,-0.2955322265625,0.35467529296875,-0.69427490234375,-0.06494140625,-1.0068359375,0.28955078125,-2.875,0.8125,10.5
0.8900000000000007,0.0,1.0,3.0,6.0,0.0,2.0,-3.0,-1.0,0.5521240234375,-0.2955322265625,0.35467529296875,-0.69427490234375,-0.06494140625,-1.0068359375,0.28955078125,-2.875,0.8125,10.5
0.8950000000000007,0.0,1.0,3.0,6.0,0.0,2.0,-3.0,-1.0,0.5521240234375,-0.2955322265625,0.35467529296875,-0.69427490234375,-0.06494140625,-1.0068359375,0.28955078125,-2.875,0.8125,10.5
0.9000000000000007,1.0,-1.0,-2.0,3.0,6.0,5.0,1.0,-2.0,0.5513916015625,-0.296875,0.35321044921875,-0.69500732421875,-0.0625,-1.005859375,0.26220703125,-2.8125,0.125,9.9375
0.9050000000000007,1.0,-1.0,-2.0,3.0,6.0,5.0,1.0,-2.0,0.5513916015625,-0.296875,0.35321044921875,-0.69500732421875,-0.0625,-1.005859375,0.26220703125,-2.8125,0.125,9.9375
0.9100000000000007,1.0,-1.0,-2.0,3.0,6.0,5.0,1.0,-2.0,0.5513916015625,-0.296875,0.35321044921875,-0.69500732421875,-0.0625,-1.005859375,0.26220703125,-2.8125,0.125,9.9375
0.9150000000000007,1.0,0.0,-2.0,-5.0,-4.0,-11.0,-4.0,0.0,0.5513916015625,-0.296875,0.35321044921875,-0.69500732421875,-0.0625,-1.005859375,0.26220703125,-2.8125,0.125,9.9375
0.9200000000000007,-3.0,-2.0,-2.0,2.0,2.0,1.0,1.0,-2.0,0.5513916015625,-0.296875,0.35321044921875,-0.69500732421875,-0.0625,-1.005859375,0.26220703125,-2.8125,0.125,9.9375
0.9250000000000007,-3.0,-2.0,-2.0,2.0,2.0,1.0,1.0,-2.0,0.5506591796875,-0.2974853515625,0.35223388671875,-0.69586181640625,-0.04248046875,-1.02294921875,0.24072265625,1.6875,-0.5625,8.0
0.9300000000000007,0.0,0.0,-1.0,-13.0,2.0,-1.0,-2.0,-1.0,0.5506591796875,-0.2974853515625,0.35223388671875,-0.69586181640625,-0.04248046875,-1.02294921875,0.24072265625,1.6875,-0.5625,8.0
0.9350000000000007,0.0,0.0,-1.0,-13.0,2.0,-1.0,-2.0,-1.0,0.5506591796875,-0.2974853515625,0.35223388671875,-0.69586181640625,-0.04248046875,-1.02294921875,0.24072265625,1.6875,-0.5625,8.0
0.9400000000000007,0.0,0.0,-1.0,-13.0,2.0,-1.0,-2.0,-1.0,0.5506591796875,-0.2974853515625,0.35223388671875,-0.69586181640625,-0.04248046875,-1.02294921875,0.24072265625,1.6875,-0.5625,8.0
0.9450000000000007,1.0,-2.0,-1.0,4.0,-5.0,-15.0,-2.0,-1.0,0.549560546875,-0.29766845703125,0.3516845703125,-0.6968994140625,-0.02685546875,-1.01611328125,0.21728515625,6.9375,-0.8125,6.75
0.9500000000000007,1.0,-2.0,-1.0,4.0,-5.0,-15.0,-2.0,-1.0,0.549560546875,-0.29766845703125,0.3516845703125,-0.6968994140625,-0.02685546875,-1.01611328125,0.21728515625,6.9375,-0.8125,6.75
0.9550000000000007,-3.0,-2.0,-1.0,10.0,2.0,13.0,1.0,0.0,0.549560546875,-0.29766845703125,0.3516845703125,-0.6968994140625,-0.02685546875,-1.01611328125,0.21728515625,6.9375,-0.8125,6.75
0.9600000000000007,-3.0,-2.0,-1.0,10.0,2.0,13.0,1.0,0.0,0.549560546875,-0.29766845703125,0.3516845703125,-0.6968994140625,-0.02685546875,-1.01611328125,0.21728515625,6.9375,-0.8125,6.75
0.9650000000000007,0.0,0.0,6.0,7.0,4.0,2.0,-4.0,-3.0,0.549560546875,-0.29766845703125,0.3516845703125,-0.6968994140625,-0.02685546875,-1.01611328125,0.21728515625,6.9375,-0.8125,6.75
0.9700000000000008,-3.0,-2.0,-4.0,-6.0,-13.0,3.0,3.0,0.0,0.54852294921875,-0.2977294921875,0.35125732421875,-0.69793701171875,-0.01708984375,-1.00146484375,0.20166015625,8.4375,-0.625,6.75
0.9750000000000008,-3.0,-2.0,-4.0,-6.0,-13.0,3.0,3.0,0.0,0.54852294921875,-0.2977294921875,0.35125732421875,-0.69793701171875,-0.01708984375,-1.00146484375,0.20166015625,8.4375,-0.625,6.75
0.9800000000000008,-3.0,-2.0,-4.0,-6.0,-13.0,3.0,3.0,0.0,0.54852294921875,-0.2977294921875,0.35125732421875,-0.69793701171875,-0.01708984375,-1.00146484375,0.20166015625,8.4375,-0.625,6.75
0.9850000000000008,-3.0,-2.0,-4.0,-6.0,-13.0,3.0,3.0,0.0,0.54852294921875,-0.2977294921875,0.35125732421875,-0.69793701171875,-0.01708984375,-1.00146484375,0.20166015625,8.4375,-0.625,6.75
0.9900000000000008,-2.0,-3.0,-5.0,0.0,0.0,-1.0,-7.0,-3.0,0.54852294921875,-0.2977294921875,0.35125732421875,-0.69793701171875,-0.01708984375,-1.00146484375,0.20166015625,8.4375,-0.625,6.75
0.9950000000000008,0.0,0.0,2.0,5.0,7.0,-9.0,-1.0,1.0,0.5477294921875,-0.29791259765625,0.3509521484375,-0.6986083984375,-0.01318359375,-1.00244140625,0.19775390625,6.4375,0.5,5.75
1.0000000000000007,0.0,0.0,2.0,5.0,7.0,-9.0,-1.0,1.0,0.5477294921875,-0.29791259765625,0.3509521484375,-0.6986083984375,-0.01318359375,-1.00244140625,0.19775390625,6.4375,0.5,5.75
1.0050000000000006,0.0,0.0,2.0,5.0,7.0,-9.0,-1.0,1.0,0.5477294921875,-0.29791259765625,0.3509521484375,-0.6986083984375,-0.01318359375,-1.00244140625,0.19775390625,6.4375,0.5,5.75
1.0100000000000005,0.0,1.0,1.0,7.0,-5.0,8.0,3.0,-1.0,0.5477294921875,-0.29791259765625,0.3509521484375,-0.6986083984375,-0.01318359375,-1.00244140625,0.19775390625,6.4375,0.5,5.75
1.0150000000000003,0.0,1.0,1.0,7.0,-5.0,8.0,3.0,-1.0,0.54718017578125,-0.2982177734375,0.3505859375,-0.69915771484375,-0.0068359375,-1.00830078125,0.19189453125,5.25,0.625,6.125
1.0200000000000002,-2.0,-5.0,-6.0,4.0,-8.0,-4.0,-3.0,-2.0,0.54718017578125,-0.2982177734375,0.3505859375,-0.69915771484375,-0.0068359375,-1.00830078125,0.19189453125,5.25,0.625,6.125
1.0250000000000001,-2.0,-5.0,-6.0,4.0,-8.0,-4.0,-3.0,-2.0,0.54718017578125,-0.2982177734375,0.3505859375,-0.69915771484375,-0.0068359375,-1.00830078125,0.19189453125,5.25,0.625,6.125
1.03,0.0,-4.0,-10.0,-15.0,3.0,9.0,1.0,0.0,0.54718017578125,-0.2982177734375,0.3505859375,-0.69915771484375,-0.0068359375,-1.00830078125,0.19189453125,5.25,0.625,6.125
1.035,0.0,-4.0,-10.0,-15.0,3.0,9.0,1.0,0.0,0.54718017578125,-0.2982177734375,0.3505859375,-0.69915771484375,-0.0068359375,-1.00830078125,0.19189453125,5.25,0.625,6.125
1.0399999999999998,0.0,0.0,5.0,3.0,3.0,-9.0,-2.0,-2.0,0.5467529296875,-0.2987060546875,0.35003662109375,-0.699462890625,-0.00634765625,-0.99658203125,0.1923828125,3.125,1.0,7.25
1.0449999999999997,0.0,0.0,5.0,3.0,3.0,-9.0,-2.0,-2.0,0.5467529296875,-0.2987060546875,0.35003662109375,-0.699462890625,-0.00634765625,-0.99658203125,0.1923828125,3.125,1.0,7.25
1.0499999999999996,0.0,0.0,5.0,3.0,3.0,-9.0,-2.0,-2.0,0.5467529296875,-0.2987060546875,0.35003662109375,-0.699462890625,-0.00634765625,-0.99658203125,0.1923828125,3.125,1.0,7.25
1.0549999999999995,0.0,0.0,5.0,3.0,3.0,-9.0,-2.0,-2.0,0.5467529296875,-0.2987060546875,0.35003662109375,-0.699462890625,-0.00634765625,-0.99658203125,0.1923828125,3.125,1.0,7.25
1.0599999999999994,-1.0,0.0,2.0,16.0,3.0,4.0,-1.0,-1.0,0.5467529296875,-0.2987060546875,0.35003662109375,-0.699462890625,-0.00634765625,-0.99658203125,0.1923828125,3.125,1.0,7.25
1.0649999999999993,-1.0,0.0,2.0,16.0,3.0,4.0,-1.0,-1.0,0.5467529296875,-0.2987060546875,0.35003662109375,-0.699462890625,-0.00634765625,-0.99658203125,0.1923828125,3.125,1.0,7.25
1.0699999999999992,-2.0,-1.0,-2.0,3.0,1.0,-5.0,-3.0,-2.0,0.54608154296875,-0.299560546875,0.34930419921875,-0.7000732421875,-0.01318359375,-0.98046875,0.20263671875,3.125,1.6875,9.75
1.074999999999999,-2.0,-1.0,-2.0,3.0,1.0,-5.0,-3.0,-2.0,0.54608154296875,-0.299560546875,0.34930419921875,-0.7000732421875,-0.01318359375,-0.98046875,0.20263671875,3.125,1.6875,9.75
1.079999999999999,-2.0,-1.0,-2.0,3.0,1.0,-5.0,-3.0,-2.0,0.54608154296875,-0.299560546875,0.34930419921875,-0.7000732421875,-0.01318359375,-0.98046875,0.20263671875,3.125,1.6875,9.75
1.0849999999999989,-2.0,-1.0,-2.0,3.0,1.0,-5.0,-3.0,-2.0,0.54608154296875,-0.299560546875,0.34930419921875,-0.7000732421875,-0.01318359375,-0.98046875,0.20263671875,3.125,1.6875,9.75
1.0899999999999987,1.0,1.0,1.0,0.0,-6.0,-7.0,-4.0,0.0,0.54608154296875,-0.299560546875,0.34930419921875,-0.7000732421875,-0.01318359375,-0.98046875,0.20263671875,3.125,1.6875,9.75
1.0949999999999986,1.0,1.0,1.0,0.0,-6.0,-7.0,-4.0,0.0,0.54608154296875,-0.299560546875,0.34930419921875,-0.7000732421875,-0.01318359375,-0.98046875,0.20263671875,3.125,1.6875,9.75
1.0999999999999985,-2.0,-1.0,0.0,3.0,6.0,7.0,7.0,-1.0,0.54522705078125,-0.30072021484375,0.34820556640625,-0.70074462890625,-0.03076171875,-0.96484375,0.2109375,2.125,1.9375,11.5
1.1049999999999984,-2.0,-1.0,0.0,3.0,6.0,7.0,7.0,-1.0,0.54522705078125,-0.30072021484375,0.34820556640625,-0.70074462890625,-0.03076171875,-0.96484375,0.2109375,2.125,1.9375,11.5
1.1099999999999983,1.0,0.0,2.0,2.0,0.0,10.0,0.0,0.0,0.54522705078125,-0.30072021484375,0.34820556640625,-0.70074462890625,-0.03076171875,-0.96484375,0.2109375,2.125,1.9375,11.5
1.1149999999999982,1.0,0.0,2.0,2.0,0.0,10.0,0.0,0.0,0.54522705078125,-0.30072021484375,0.34820556640625,-0.70074462890625,-0.03076171875,-0.96484375,0.2109375,2.125,1.9375,11.5
1.119999999999998,0.0,-1.0,-2.0,-3.0,-3.0,-10.0,-3.0,0.0,0.54425048828125,-0.30206298828125,0.34710693359375,-0.70147705078125,-0.0400390625,-0.96435546875,0.21337890625,2.1875,2.5625,11.75
1.124999999999998,0.0,-1.0,-2.0,-3.0,-3.0,-10.0,-3.0,0.0,0.54425048828125,-0.30206298828125,0.34710693359375,-0.70147705078125,-0.0400390625,-0.96435546875,0.21337890625,2.1875,2.5625,11.75
1.129999999999998,0.0,-1.0,-2.0,-3.0,-3.0,-10.0,-3.0,0.0,0.54425048828125,-0.30206298828125,0.34710693359375,-0.70147705078125,-0.0400390625,-0.96435546875,0.21337890625,2.1875,2.5625,11.75
1.1349999999999978,0.0,-1.0,-2.0,-3.0,-3.0,-10.0,-3.0,0.0,0.54425048828125,-0.30206298828125,0.34710693359375,-0.70147705078125,-0.0400390625,-0.96435546875,0.21337890625,2.1875,2.5625,11.75
1.1399999999999977,-1.0,1.0,5.0,14.0,3.0,0.0,-1.0,0.0,0.54425048828125,-0.30206298828125,0.34710693359375,-0.70147705078125,-0.0400390625,-0.96435546875,0.21337890625,2.1875,2.5625,11.75
1.1449999999999976,-1.0,1.0,5.0,14.0,3.0,0.0,-1.0,0.0,0.54425048828125,-0.30206298828125,0.34710693359375,-0.70147705078125,-0.0400390625,-0.96435546875,0.21337890625,2.1875,2.5625,11.75
1.1499999999999975,-3.0,-1.0,-2.0,-5.0,-3.0,7.0,1.0,-1.0,0.54315185546875,-0.3033447265625,0.3460693359375,-0.7022705078125,-0.05078125,-0.9609375,0.2177734375,2.8125,2.625,11.75
1.1549999999999974,-3.0,-1.0,-2.0,-5.0,-3.0,7.0,1.0,-1.0,0.54315185546875,-0.3033447265625,0.3460693359375,-0.7022705078125,-0.05078125,-0.9609375,0.2177734375,2.8125,2.625,11.75
1.1599999999999973,-3.0,-1.0,-2.0,-5.0,-3.0,7.0,1.0,-1.0,0.54315185546875,-0.3033447265625,0.3460693359375,-0.7022705078125,-0.05078125,-0.9609375,0.2177734375,2.8125,2.625,11.75
1.1649999999999971,-1.0,-2.0,-2.0,-4.0,-1.0,9.0,0.0,-4.0,0.54315185546875,-0.3033447265625,0.3460693359375,-0.7022705078125,-0.05078125,-0.9609375,0.2177734375,2.8125,2.625,11.75
1.169999999999997,-1.0,-2.0,-2.0,-4.0,-1.0,9.0,0.0,-4.0,0.54315185546875,-0.3033447265625,0.3460693359375,-0.7022705078125,-0.05078125,-0.9609375,0.2177734375,2.8125,2.625,11.75
1.174999999999997,-2.0,-2.0,-3.0,-2.0,-1.0,-3.0,-4.0,-2.0,0.54217529296875,-0.3045654296875,0.34521484375,-0.70294189453125,-0.05322265625,-0.9638671875,0.2236328125,2.3125,3.0,10.375
1.1799999999999968,-2.0,-2.0,-3.0,-2.0,-1.0,-3.0,-4.0,-2.0,0.54217529296875,-0.3045654296875,0.34521484375,-0.70294189453125,-0.05322265625,-0.9638671875,0.2236328125,2.3125,3.0,10.375
1.1849999999999967,0.0,-1.0,0.0,-8.0,-5.0,-7.0,-4.0,-2.0,0.54217529296875,-0.3045654296875,0.34521484375,-0.70294189453125,-0.05322265625,-0.9638671875,0.2236328125,2.3125,3.0,10.375
1.1899999999999966,0.0,-1.0,0.0,-8.0,-5.0,-7.0,-4.0,-2.0,0.54217529296875,-0.3045654296875,0.34521484375,-0.70294189453125,-0.05322265625,-0.9638671875,0.2236328125,2.3125,3.0,10.375
1.1949999999999965,0.0,-1.0,-1.0,1.0,-3.0,-9.0,-2.0,-3.0,0.54119873046875,-0.305419921875,0.34442138671875,-0.7037353515625,-0.05224609375,-0.9560546875,0.2216796875,3.3125,1.6875,9.3125
1.1999999999999964,0.0,-1.0,-1.0,1.0,-3.0,-9.0,-2.0,-3.0,0.54119873046875,-0.305419921875,0.34442138671875,-0.7037353515625,-0.05224609375,-0.9560546875,0.2216796875,3.3125,1.6875,9.3125
1.2049999999999963,0.0,-1.0,-1.0,1.0,-3.0,-9.0,-2.0,-3.0,0.54119873046875,-0.305419921875,0.34442138671875,-0.7037353515625,-0.05224609375,-0.9560546875,0.2216796875,3.3125,1.6875,9.3125
1.2099999999999962,0.0,-1.0,-1.0,1.0,-3.0,-9.0,-2.0,-3.0,0.54119873046875,-0.305419921875,0.34442138671875,-0.7037353515625,-0.05224609375,-0.9560546875,0.2216796875,3.3125,1.6875,9.3125
1.214999999999996,-1.0,-2.0,-1.0,-6.0,3.0,-5.0,-1.0,0.0,0.54119873046875,-0.305419921875,0.34442138671875,-0.7037353515625,-0.05224609375,-0.9560546875,0.2216796875,3.3125,1.6875,9.3125
1.219999999999996,-1.0,-2.0,-1.0,-6.0,3.0,-5.0,-1.0,0.0,0.54119873046875,-0.305419921875,0.34442138671875,-0.7037353515625,-0.05224609375,-0.9560546875,0.2216796875,3.3125,1.6875,9.3125
1.2249999999999959,-1.0,0.0,-2.0,-6.0,-1.0,2.0,-1.0,-2.0,0.54034423828125,-0.3060302734375,0.34381103515625,-0.70440673828125,-0.0478515625,-0.953125,0.2138671875,3.8125,1.0625,7.9375
1.2299999999999958,-1.0,0.0,-2.0,-6.0,-1.0,2.0,-1.0,-2.0,0.54034423828125,-0.3060302734375,0.34381103515625,-0.70440673828125,-0.0478515625,-0.953125,0.2138671875,3.8125,1.0625,7.9375
1.2349999999999957,-1.0,0.0,-2.0,-6.0,-1.0,2.0,-1.0,-2.0,0.54034423828125,-0.3060302734375,0.34381103515625,-0.70440673828125,-0.0478515625,-0.953125,0.2138671875,3.8125,1.0625,7.9375
1.2399999999999956,-1.0,0.0,-2.0,-6.0,-1.0,2.0,-1.0,-2.0,0.54034423828125,-0.3060302734375,0.34381103515625,-0.70440673828125,-0.0478515625,-0.953125,0.2138671875,3.8125,1.0625,7.9375
1.2449999999999954,-1.0,-2.0,-5.0,-4.0,-14.0,-39.0,-6.0,-3.0,0.54034423828125,-0.3060302734375,0.34381103515625,-0.70440673828125,-0.0478515625,-0.953125,0.2138671875,3.8125,1.0625,7.9375
1.2499999999999953,-1.0,-2.0,-5.0,-4.0,-14.0,-39.0,-6.0,-3.0,0.54034423828125,-0.3060302734375,0.34381103515625,-0.70440673828125,-0.0478515625,-0.953125,0.2138671875,3.8125,1.0625,7.9375
1.2549999999999952,-2.0,-1.0,0.0,-10.0,-1.0,7.0,-1.0,0.0,0.53961181640625,-0.30645751953125,0.34332275390625,-0.70501708984375,-0.0478515625,-0.9462890625,0.21142578125,3.8125,0.625,6.375
1.2599999999999951,-2.0,-1.0,0.0,-10.0,-1.0,7.0,-1.0,0.0,0.53961181640625,-0.30645751953125,0.34332275390625,-0.70501708984375,-0.0478515625,-0.9462890625,0.21142578125,3.8125,0.625,6.375
1.264999999999995,-2.0,-2.0,-2.0,-2.0,1.0,19.0,0.0,-3.0,0.53961181640625,-0.30645751953125,0.34332275390625,-0.70501708984375,-0.0478515625,-0.9462890625,0.21142578125,3.8125,0.625,6.375
1.269999999999995,-2.0,-2.0,-2.0,-2.0,1.0,19.0,0.0,-3.0,0.53961181640625,-0.30645751953125,0.34332275390625,-0.70501708984375,-0.0478515625,-0.9462890625,0.21142578125,3.8125,0.625,6.375
1.2749999999999948,-4.0,-4.0,-19.0,6.0,-5.0,-10.0,-7.0,-3.0,0.539306640625,-0.306884765625,0.343017578125,-0.7052001953125,-0.04443359375,-0.96435546875,0.19921875,2.75,1.25,4.6875
1.2799999999999947,-4.0,-4.0,-19.0,6.0,-5.0,-10.0,-7.0,-3.0,0.539306640625,-0.306884765625,0.343017578125,-0.7052001953125,-0.04443359375,-0.96435546875,0.19921875,2.75,1.25,4.6875
1.2849999999999946,-4.0,-4.0,-19.0,6.0,-5.0,-10.0,-7.0,-3.0,0.539306640625,-0.306884765625,0.343017578125,-0.7052001953125,-0.04443359375,-0.96435546875,0.19921875,2.75,1.25,4.6875
1.2899999999999945,-4.0,-4.0,-19.0,6.0,-5.0,-10.0,-7.0,-3.0,0.539306640625,-0.306884765625,0.343017578125,-0.7052001953125,-0.04443359375,-0.96435546875,0.19921875,2.75,1.25,4.6875
1.2949999999999944,-1.0,-2.0,-2.0,0.0,-6.0,9.0,2.0,1.0,0.539306640625,-0.306884765625,0.343017578125,-0.7052001953125,-0.04443359375,-0.96435546875,0.19921875,2.75,1.25,4.6875
1.2999999999999943,-1.0,-2.0,-2.0,0.0,-6.0,9.0,2.0,1.0,0.539306640625,-0.306884765625,0.343017578125,-0.7052001953125,-0.04443359375,-0.96435546875,0.19921875,2.75,1.25,4.6875
1.3049999999999942,-1.0,-2.0,-2.0,0.0,-6.0,9.0,2.0,1.0,0.539306640625,-0.306884765625,0.343017578125,-0.7052001953125,-0.04443359375,-0.96435546875,0.19921875,2.75,1.25,4.6875
1.309999999999994,1.0,2.0,5.0,4.0,-2.0,2.0,0.0,-1.0,0.53936767578125,-0.307373046875,0.34320068359375,-0.70489501953125,-0.044921875,-0.98291015625,0.19384765625,0.375,3.1875,1.5625
1.314999999999994,1.0,2.0,5.0,4.0,-2.0,2.0,0.0,-1.0,0.53936767578125,-0.307373046875,0.34320068359375,-0.70489501953125,-0.044921875,-0.98291015625,0.19384765625,0.375,3.1875,1.5625
1.3199999999999938,1.0,2.0,5.0,4.0,-2.0,2.0,0.0,-1.0,0.53936767578125,-0.307373046875,0.34320068359375,-0.70489501953125,-0.044921875,-0.98291015625,0.19384765625,0.375,3.1875,1.5625
1.3249999999999937,-2.0,-1.0,-3.0,1.0,1.0,-16.0,-4.0,1.0,0.53936767578125,-0.307373046875,0.34320068359375,-0.70489501953125,-0.044921875,-0.98291015625,0.19384765625,0.375,3.1875,1.5625
1.3299999999999936,-2.0,-1.0,-3.0,1.0,1.0,-16.0,-4.0,1.0,0.5391845703125,-0.3074951171875,0.3438720703125,-0.70458984375,-0.03857421875,-0.97119140625,0.193359375,3.3125,3.625,-1.1875
1.3349999999999935,-1.0,-1.0,3.0,2.0,2.0,7.0,1.0,-1.0,0.5391845703125,-0.3074951171875,0.3438720703125,-0.70458984375,-0.03857421875,-0.97119140625,0.193359375,3.3125,3.625,-1.1875
1.3399999999999934,-1.0,-1.0,3.0,2.0,2.0,7.0,1.0,-1.0,0.5391845703125,-0.3074951171875,0.3438720703125,-0.70458984375,-0.03857421875,-0.97119140625,0.193359375,3.3125,3.625,-1.1875
1.3449999999999933,-1.0,-1.0,0.0,-1.0,1.0,1.0,2.0,1.0,0.5391845703125,-0.3074951171875,0.3438720703125,-0.70458984375,-0.03857421875,-0.97119140625,0.193359375,3.3125,3.625,-1.1875
1.3499999999999932,-1.0,-1.0,0.0,-1.0,1.0,1.0,2.0,1.0,0.53924560546875,-0.3074951171875,0.3447265625,-0.70416259765625,-0.04248046875,-0.970703125,0.19140625,2.3125,3.25,-3.375
1.354999999999993,-1.0,-3.0,-2.0,-18.0,-15.0,4.0,-2.0,-1.0,0.53924560546875,-0.3074951171875,0.3447265625,-0.70416259765625,-0.04248046875,-0.970703125,0.19140625,2.3125,3.25,-3.375
1.359999999999993,-1.0,-3.0,-2.0,-18.0,-15.0,4.0,-2.0,-1.0,0.53924560546875,-0.3074951171875,0.3447265625,-0.70416259765625,-0.04248046875,-0.970703125,0.19140625,2.3125,3.25,-3.375
1.3649999999999929,0.0,1.0,1.0,2.0,4.0,-12.0,0.0,-1.0,0.53924560546875,-0.3074951171875,0.3447265625,-0.70416259765625,-0.04248046875,-0.970703125,0.19140625,2.3125,3.25,-3.375
1.3699999999999928,0.0,1.0,1.0,2.0,4.0,-12.0,0.0,-1.0,0.53924560546875,-0.3074951171875,0.3447265625,-0.70416259765625,-0.04248046875,-0.970703125,0.19140625,2.3125,3.25,-3.375
1.3749999999999927,-2.0,-2.0,0.0,-3.0,-5.0,17.0,2.0,-1.0,0.5399169921875,-0.307373046875,0.345458984375,-0.70330810546875,-0.03662109375,-0.9716796875,0.19921875,-1.75,2.375,-4.4375
1.3799999999999926,-2.0,-2.0,0.0,-3.0,-5.0,17.0,2.0,-1.0,0.5399169921875,-0.307373046875,0.345458984375,-0.70330810546875,-0.03662109375,-0.9716796875,0.19921875,-1.75,2.375,-4.4375
1.3849999999999925,1.0,1.0,0.0,-1.0,-2.0,-4.0,-3.0,0.0,0.5399169921875,-0.307373046875,0.345458984375,-0.70330810546875,-0.03662109375,-0.9716796875,0.19921875,-1.75,2.375,-4.4375
1.3899999999999924,1.0,1.0,0.0,-1.0,-2.0,-4.0,-3.0,0.0,0.5399169921875,-0.307373046875,0.345458984375,-0.70330810546875,-0.03662109375,-0.9716796875,0.19921875,-1.75,2.375,-4.4375
1.3949999999999922,-1.0,-1.0,-3.0,-18.0,-1.0,-10.0,0.0,0.0,0.5408935546875,-0.307373046875,0.34600830078125,-0.70233154296875,-0.0380859375,-0.98876953125,0.20654296875,-4.6875,1.6875,-4.5
1.3999999999999921,0.0,-1.0,-1.0,3.0,4.0,9.0,1.0,0.0,0.5408935546875,-0.307373046875,0.34600830078125,-0.70233154296875,-0.0380859375,-0.98876953125,0.20654296875,-4.6875,1.6875,-4.5
1.404999999999992,0.0,-1.0,-1.0,3.0,4.0,9.0,1.0,0.0,0.5408935546875,-0.307373046875,0.34600830078125,-0.70233154296875,-0.0380859375,-0.98876953125,0.20654296875,-4.6875,1.6875,-4.5
1.409999999999992,0.0,-1.0,1.0,10.0,8.0,3.0,3.0,-1.0,0.5416259765625,-0.30731201171875,0.3465576171875,-0.7015380859375,-0.0400390625,-1.0009765625,0.22265625,-3.625,1.375,-4.1875
1.4149999999999918,0.0,-1.0,1.0,10.0,8.0,3.0,3.0,-1.0,0.5416259765625,-0.30731201171875,0.3465576171875,-0.7015380859375,-0.0400390625,-1.0009765625,0.22265625,-3.625,1.375,-4.1875
1.4199999999999917,-1.0,-3.0,-2.0,-1.0,7.0,7.0,-2.0,-2.0,0.5416259765625,-0.30731201171875,0.3465576171875,-0.7015380859375,-0.0400390625,-1.0009765625,0.22265625,-3.625,1.375,-4.1875
1.4249999999999916,-1.0,-3.0,-2.0,-1.0,7.0,7.0,-2.0,-2.0,0.5416259765625,-0.30731201171875,0.3465576171875,-0.7015380859375,-0.0400390625,-1.0009765625,0.22265625,-3.625,1.375,-4.1875
1.4299999999999915,-2.0,-3.0,-8.0,-15.0,-3.0,-5.0,0.0,-1.0,0.5421142578125,-0.30718994140625,0.34686279296875,-0.7010498046875,-0.05224609375,-0.9892578125,0.2216796875,-2.4375,0.5,-3.3125
1.4349999999999914,-2.0,-3.0,-8.0,-15.0,-3.0,-5.0,0.0,-1.0,0.5421142578125,-0.30718994140625,0.34686279296875,-0.7010498046875,-0.05224609375,-0.9892578125,0.2216796875,-2.4375,0.5,-3.3125
1.4399999999999913,-2.0,-3.0,-8.0,-15.0,-3.0,-5.0,0.0,-1.0,0.5421142578125,-0.30718994140625,0.34686279296875,-0.7010498046875,-0.05224609375,-0.9892578125,0.2216796875,-2.4375,0.5,-3.3125
1.4449999999999912,-2.0,-1.0,0.0,6.0,0.0,-19.0,-1.0,0.0,0.5421142578125,-0.30718994140625,0.34686279296875,-0.7010498046875,-0.05224609375,-0.9892578125,0.2216796875,-2.4375,0.5,-3.3125
1.449999999999991,-2.0,-1.0,0.0,6.0,0.0,-19.0,-1.0,0.0,0.5421142578125,-0.30718994140625,0.34686279296875,-0.7010498046875,-0.05224609375,-0.9892578125,0.2216796875,-2.4375,0.5,-3.3125
1.454999999999991,0.0,0.0,1.0,1.0,1.0,-3.0,-2.0,-2.0,0.542724609375,-0.30706787109375,0.34686279296875,-0.70062255859375,-0.06201171875,-0.998046875,0.2255859375,-3.5625,-1.1875,-2.75
1.4599999999999909,0.0,-1.0,-4.0,5.0,-6.0,28.0,3.0,1.0,0.542724609375,-0.30706787109375,0.34686279296875,-0.70062255859375,-0.06201171875,-0.998046875,0.2255859375,-3.5625,-1.1875,-2.75
1.4649999999999908,0.0,-1.0,-4.0,5.0,-6.0,28.0,3.0,1.0,0.542724609375,-0.30706787109375,0.34686279296875,-0.70062255859375,-0.06201171875,-0.998046875,0.2255859375,-3.5625,-1.1875,-2.75
1.4699999999999906,0.0,-1.0,-2.0,-18.0,-2.0,-26.0,-4.0,-1.0,0.54315185546875,-0.3067626953125,0.3468017578125,-0.700439453125,-0.06689453125,-0.998046875,0.2333984375,-2.4375,-2.0625,-2.6875
1.4749999999999905,0.0,-1.0,-2.0,-18.0,-2.0,-26.0,-4.0,-1.0,0.54315185546875,-0.3067626953125,0.3468017578125,-0.700439453125,-0.06689453125,-0.998046875,0.2333984375,-2.4375,-2.0625,-2.6875
1.4799999999999904,0.0,-1.0,-2.0,-18.0,-2.0,-26.0,-4.0,-1.0,0.54315185546875,-0.3067626953125,0.3468017578125,-0.700439453125,-0.06689453125,-0.998046875,0.2333984375,-2.4375,-2.0625,-2.6875
1.4849999999999903,-3.0,0.0,3.0,-5.0,-1.0,6.0,0.0,-1.0,0.54315185546875,-0.3067626953125,0.3468017578125,-0.700439453125,-0.06689453125,-0.998046875,0.2333984375,-2.4375,-2.0625,-2.6875
1.4899999999999902,-3.0,0.0,3.0,-5.0,-1.0,6.0,0.0,-1.0,0.54315185546875,-0.3067626953125,0.3468017578125,-0.700439453125,-0.06689453125,-0.998046875,0.2333984375,-2.4375,-2.0625,-2.6875
1.4949999999999901,-1.0,-2.0,-4.0,-7.0,-9.0,-4.0,-1.0,-1.0,0.54345703125,-0.3065185546875,0.34661865234375,-0.70037841796875,-0.0791015625,-0.99267578125,0.234375,-1.75,-2.5,-2.5625
1.49999999999999,1.0,-1.0,4.0,15.0,7.0,6.0,-1.0,-2.0,0.54345703125,-0.3065185546875,0.34661865234375,-0.70037841796875,-0.0791015625,-0.99267578125,0.234375,-1.75,-2.5,-2.5625
1.50499999999999,1.0,-1.0,4.0,15.0,7.0,6.0,-1.0,-2.0,0.54345703125,-0.3065185546875,0.34661865234375,-0.70037841796875,-0.0791015625,-0.99267578125,0.234375,-1.75,-2.5,-2.5625
1.5099999999999898,-3.0,-4.0,-5.0,-10.0,-6.0,-16.0,-5.0,-3.0,0.54345703125,-0.3065185546875,0.34661865234375,-0.70037841796875,-0.0791015625,-0.99267578125,0.234375,-1.75,-2.5,-2.5625
1.5149999999999897,-3.0,-4.0,-5.0,-10.0,-6.0,-16.0,-5.0,-3.0,0.54345703125,-0.3065185546875,0.34661865234375,-0.70037841796875,-0.0791015625,-0.99267578125,0.234375,-1.75,-2.5,-2.5625
1.5199999999999896,-2.0,-1.0,1.0,5.0,9.0,13.0,0.0,0.0,0.5435791015625,-0.3060302734375,0.346435546875,-0.70062255859375,-0.07958984375,-0.984375,0.23974609375,-0.1875,-3.5,-2.25
1.5249999999999895,0.0,-2.0,0.0,2.0,1.0,-6.0,-3.0,-2.0,0.5435791015625,-0.3060302734375,0.346435546875,-0.70062255859375,-0.07958984375,-0.984375,0.23974609375,-0.1875,-3.5,-2.25
1.5299999999999894,0.0,-2.0,0.0,2.0,1.0,-6.0,-3.0,-2.0,0.5435791015625,-0.3060302734375,0.346435546875,-0.70062255859375,-0.07958984375,-0.984375,0.23974609375,-0.1875,-3.5,-2.25
1.5349999999999893,-1.0,-1.0,-1.0,3.0,3.0,1.0,-1.0,1.0,0.54364013671875,-0.30560302734375,0.3460693359375,-0.700927734375,-0.07861328125,-0.98583984375,0.23095703125,0.3125,-4.0625,-1.4375
1.5399999999999892,-1.0,-1.0,-1.0,3.0,3.0,1.0,-1.0,1.0,0.54364013671875,-0.30560302734375,0.3460693359375,-0.700927734375,-0.07861328125,-0.98583984375,0.23095703125,0.3125,-4.0625,-1.4375
1.544999999999989,-1.0,-1.0,-1.0,3.0,3.0,1.0,-1.0,1.0,0.54364013671875,-0.30560302734375,0.3460693359375,-0.700927734375,-0.07861328125,-0.98583984375,0.23095703125,0.3125,-4.0625,-1.4375
1.549999999999989,-1.0,-1.0,-7.0,-17.0,-3.0,16.0,1.0,-1.0,0.54364013671875,-0.30560302734375,0.3460693359375,-0.700927734375,-0.07861328125,-0.98583984375,0.23095703125,0.3125,-4.0625,-1.4375
1.5549999999999888,-1.0,-1.0,-7.0,-17.0,-3.0,16.0,1.0,-1.0,0.54364013671875,-0.30560302734375,0.3460693359375,-0.700927734375,-0.07861328125,-0.98583984375,0.23095703125,0.3125,-4.0625,-1.4375
1.5599999999999887,-2.0,-3.0,2.0,8.0,-3.0,8.0,2.0,1.0,0.543701171875,-0.30511474609375,0.34588623046875,-0.701171875,-0.07470703125,-0.98974609375,0.23095703125,0.9375,-3.4375,-1.4375
1.5649999999999886,-2.0,-3.0,2.0,8.0,-3.0,8.0,2.0,1.0,0.543701171875,-0.30511474609375,0.34588623046875,-0.701171875,-0.07470703125,-0.98974609375,0.23095703125,0.9375,-3.4375,-1.4375
1.5699999999999885,-2.0,-3.0,2.0,8.0,-3.0,8.0,2.0,1.0,0.543701171875,-0.30511474609375,0.34588623046875,-0.701171875,-0.07470703125,-0.98974609375,0.23095703125,0.9375,-3.4375,-1.4375
1.5749999999999884,-1.0,-1.0,0.0,-9.0,-8.0,-34.0,-4.0,0.0,0.543701171875,-0.30511474609375,0.34588623046875,-0.701171875,-0.07470703125,-0.98974609375,0.23095703125,0.9375,-3.4375,-1.4375
1.5799999999999883,-1.0,-1.0,0.0,-9.0,-8.0,-34.0,-4.0,0.0,0.543701171875,-0.30511474609375,0.34588623046875,-0.701171875,-0.07470703125,-0.98974609375,0.23095703125,0.9375,-3.4375,-1.4375
1.5849999999999882,-2.0,1.0,2.0,-1.0,-2.0,5.0,0.0,-2.0,0.5435791015625,-0.30474853515625,0.34576416015625,-0.7015380859375,-0.06982421875,-0.98876953125,0.23046875,1.75,-2.625,-1.375
1.589999999999988,-2.0,1.0,2.0,-1.0,-2.0,5.0,0.0,-2.0,0.5435791015625,-0.30474853515625,0.34576416015625,-0.7015380859375,-0.06982421875,-0.98876953125,0.23046875,1.75,-2.625,-1.375
1.594999999999988,0.0,-1.0,-2.0,9.0,-7.0,-6.0,0.0,-2.0,0.54339599609375,-0.304443359375,0.345703125,-0.7017822265625,-0.0712890625,-0.98583984375,0.22314453125,2.1875,-1.8125,-1.3125
1.5999999999999879,0.0,-1.0,-2.0,9.0,-7.0,-6.0,0.0,-2.0,0.54339599609375,-0.304443359375,0.345703125,-0.7017822265625,-0.0712890625,-0.98583984375,0.22314453125,2.1875,-1.8125,-1.3125
1.6049999999999878,0.0,-1.0,-2.0,9.0,-7.0,-6.0,0.0,-2.0,0.54339599609375,-0.304443359375,0.345703125,-0.7017822265625,-0.0712890625,-0.98583984375,0.22314453125,2.1875,-1.8125,-1.3125
1.6099999999999877,0.0,-1.0,-2.0,9.0,-7.0,-6.0,0.0,-2.0,0.54339599609375,-0.304443359375,0.345703125,-0.7017822265625,-0.0712890625,-0.98583984375,0.22314453125,2.1875,-1.8125,-1.3125
1.6149999999999876,-2.0,-2.0,-3.0,-19.0,7.0,5.0,-3.0,-1.0,0.54339599609375,-0.304443359375,0.345703125,-0.7017822265625,-0.0712890625,-0.98583984375,0.22314453125,2.1875,-1.8125,-1.3125
1.6199999999999875,-2.0,-2.0,-3.0,-19.0,7.0,5.0,-3.0,-1.0,0.54339599609375,-0.304443359375,0.345703125,-0.7017822265625,-0.0712890625,-0.98583984375,0.22314453125,2.1875,-1.8125,-1.3125
1.6249999999999873,-1.0,-2.0,-3.0,-18.0,-1.0,10.0,1.0,-1.0,0.54339599609375,-0.30426025390625,0.345703125,-0.701904296875,-0.068359375,-0.994140625,0.22412109375,1.0625,-1.1875,-1.0625
1.6299999999999872,-1.0,-2.0,-3.0,-18.0,-1.0,10.0,1.0,-1.0,0.54339599609375,-0.30426025390625,0.345703125,-0.701904296875,-0.068359375,-0.994140625,0.22412109375,1.0625,-1.1875,-1.0625
1.6349999999999871,-1.0,-2.0,-3.0,-18.0,-1.0,10.0,1.0,-1.0,0.54339599609375,-0.30426025390625,0.345703125,-0.701904296875,-0.068359375,-0.994140625,0.22412109375,1.0625,-1.1875,-1.0625
1.639999999999987,0.0,-1.0,0.0,15.0,-2.0,9.0,-1.0,0.0,0.54339599609375,-0.30426025390625,0.345703125,-0.701904296875,-0.068359375,-0.994140625,0.22412109375,1.0625,-1.1875,-1.0625
1.644999999999987,0.0,-1.0,0.0,15.0,-2.0,9.0,-1.0,0.0,0.54339599609375,-0.30426025390625,0.345703125,-0.701904296875,-0.068359375,-0.994140625,0.22412109375,1.0625,-1.1875,-1.0625
1.6499999999999868,0.0,-1.0,0.0,15.0,-2.0,9.0,-1.0,0.0,0.54302978515625,-0.30401611328125,0.345703125,-0.7022705078125,-0.06591796875,-0.990234375,0.2265625,3.125,-1.125,-0.5625
1.6549999999999867,-2.0,0.0,1.0,-6.0,5.0,3.0,1.0,1.0,0.54302978515625,-0.30401611328125,0.345703125,-0.7022705078125,-0.06591796875,-0.990234375,0.2265625,3.125,-1.125,-0.5625
1.6599999999999866,-2.0,0.0,1.0,-6.0,5.0,3.0,1.0,1.0,0.54302978515625,-0.30401611328125,0.345703125,-0.7022705078125,-0.06591796875,-0.990234375,0.2265625,3.125,-1.125,-0.5625
1.6649999999999865,-2.0,0.0,1.0,-6.0,5.0,3.0,1.0,1.0,0.54302978515625,-0.30401611328125,0.345703125,-0.7022705078125,-0.06591796875,-0.990234375,0.2265625,3.125,-1.125,-0.5625
1.6699999999999864,-2.0,0.0,1.0,-6.0,5.0,3.0,1.0,1.0,0.54302978515625,-0.30401611328125,0.345703125,-0.7022705078125,-0.06591796875,-0.990234375,0.2265625,3.125,-1.125,-0.5625
1.6749999999999863,0.0,0.0,0.0,-2.0,-3.0,-11.0,-5.0,-2.0,0.542724609375,-0.3038330078125,0.34576416015625,-0.7025146484375,-0.060546875,-0.98583984375,0.22119140625,2.9375,-0.625,-0.25
1.6799999999999862,0.0,0.0,0.0,-2.0,-3.0,-11.0,-5.0,-2.0,0.542724609375,-0.3038330078125,0.34576416015625,-0.7025146484375,-0.060546875,-0.98583984375,0.22119140625,2.9375,-0.625,-0.25
1.684999999999986,0.0,0.0,0.0,-2.0,-3.0,-11.0,-5.0,-2.0,0.542724609375,-0.3038330078125,0.34576416015625,-0.7025146484375,-0.060546875,-0.98583984375,0.22119140625,2.9375,-0.625,-0.25
1.689999999999986,0.0,-3.0,-3.0,4.0,-1.0,-13.0,-4.0,-2.0,0.542724609375,-0.3038330078125,0.34576416015625,-0.7025146484375,-0.060546875,-0.98583984375,0.22119140625,2.9375,-0.625,-0.25
1.6949999999999859,0.0,-3.0,-3.0,4.0,-1.0,-13.0,-4.0,-2.0,0.542724609375,-0.3038330078125,0.34576416015625,-0.7025146484375,-0.060546875,-0.98583984375,0.22119140625,2.9375,-0.625,-0.25
1.6999999999999857,0.0,-3.0,-3.0,4.0,-1.0,-13.0,-4.0,-2.0,0.54254150390625,-0.3038330078125,0.345703125,-0.7027587890625,-0.0546875,-0.98828125,0.2197265625,2.25,-0.25,0.6875
1.7049999999999856,-3.0,-2.0,-1.0,4.0,0.0,-8.0,-2.0,-1.0,0.54254150390625,-0.3038330078125,0.345703125,-0.7027587890625,-0.0546875,-0.98828125,0.2197265625,2.25,-0.25,0.6875
1.7099999999999855,-3.0,-2.0,-1.0,4.0,0.0,-8.0,-2.0,-1.0,0.54254150390625,-0.3038330078125,0.345703125,-0.7027587890625,-0.0546875,-0.98828125,0.2197265625,2.25,-0.25,0.6875
1.7149999999999854,-3.0,-2.0,-1.0,4.0,0.0,-8.0,-2.0,-1.0,0.54254150390625,-0.3038330078125,0.345703125,-0.7027587890625,-0.0546875,-0.98828125,0.2197265625,2.25,-0.25,0.6875
1.7199999999999853,0.0,0.0,1.0,-3.0,12.0,16.0,3.0,0.0,0.54254150390625,-0.3038330078125,0.345703125,-0.7027587890625,-0.0546875,-0.98828125,0.2197265625,2.25,-0.25,0.6875
1.7249999999999852,0.0,0.0,1.0,-3.0,12.0,16.0,3.0,0.0,0.54254150390625,-0.3038330078125,0.345703125,-0.7027587890625,-0.0546875,-0.98828125,0.2197265625,2.25,-0.25,0.6875
1.729999999999985,-2.0,0.0,2.0,13.0,2.0,-10.0,0.0,-2.0,0.54217529296875,-0.303955078125,0.3455810546875,-0.7030029296875,-0.0654296875,-0.98388671875,0.22119140625,2.125,0.0625,0.9375
1.734999999999985,-2.0,0.0,2.0,13.0,2.0,-10.0,0.0,-2.0,0.54217529296875,-0.303955078125,0.3455810546875,-0.7030029296875,-0.0654296875,-0.98388671875,0.22119140625,2.125,0.0625,0.9375
1.739999999999985,-2.0,0.0,2.0,13.0,2.0,-10.0,0.0,-2.0,0.54217529296875,-0.303955078125,0.3455810546875,-0.7030029296875,-0.0654296875,-0.98388671875,0.22119140625,2.125,0.0625,0.9375
1.7449999999999848,-2.0,0.0,2.0,13.0,2.0,-10.0,0.0,-2.0,0.54217529296875,-0.303955078125,0.3455810546875,-0.7030029296875,-0.0654296875,-0.98388671875,0.22119140625,2.125,0.0625,0.9375
1.7499999999999847,-2.0,0.0,0.0,-6.0,-6.0,1.0,-2.0,-2.0,0.5421142578125,-0.3040771484375,0.345458984375,-0.70306396484375,-0.0625,-0.99072265625,0.21630859375,1.125,0.0625,0.75
1.7549999999999846,-2.0,0.0,0.0,-6.0,-6.0,1.0,-2.0,-2.0,0.5421142578125,-0.3040771484375,0.345458984375,-0.70306396484375,-0.0625,-0.99072265625,0.21630859375,1.125,0.0625,0.75
1.7599999999999845,-2.0,0.0,0.0,-6.0,-6.0,1.0,-2.0,-2.0,0.5421142578125,-0.3040771484375,0.345458984375,-0.70306396484375,-0.0625,-0.99072265625,0.21630859375,1.125,0.0625,0.75
1.7649999999999844,-2.0,0.0,0.0,-6.0,-6.0,1.0,-2.0,-2.0,0.5421142578125,-0.3040771484375,0.345458984375,-0.70306396484375,-0.0625,-0.99072265625,0.21630859375,1.125,0.0625,0.75
1.7699999999999843,-1.0,-2.0,1.0,-7.0,-4.0,2.0,0.0,-1.0,0.5421142578125,-0.3040771484375,0.345458984375,-0.70306396484375,-0.0625,-0.99072265625,0.21630859375,1.125,0.0625,0.75
1.7749999999999841,-1.0,-2.0,1.0,-7.0,-4.0,2.0,0.0,-1.0,0.5421142578125,-0.3040771484375,0.345458984375,-0.70306396484375,-0.0625,-0.99072265625,0.21630859375,1.125,0.0625,0.75
1.779999999999984,-2.0,-2.0,-3.0,-5.0,-6.0,0.0,-1.0,-2.0,0.5418701171875,-0.3040771484375,0.3453369140625,-0.70330810546875,-0.0576171875,-0.9755859375,0.22412109375,1.75,-0.375,1.0
1.784999999999984,-2.0,-2.0,-3.0,-5.0,-6.0,0.0,-1.0,-2.0,0.5418701171875,-0.3040771484375,0.3453369140625,-0.70330810546875,-0.0576171875,-0.9755859375,0.22412109375,1.75,-0.375,1.0
1.7899999999999838,-2.0,-2.0,-3.0,-5.0,-6.0,0.0,-1.0,-2.0,0.5418701171875,-0.3040771484375,0.3453369140625,-0.70330810546875,-0.0576171875,-0.9755859375,0.22412109375,1.75,-0.375,1.0
1.7949999999999837,-2.0,-2.0,-3.0,-5.0,-6.0,0.0,-1.0,-2.0,0.5418701171875,-0.3040771484375,0.3453369140625,-0.70330810546875,-0.0576171875,-0.9755859375,0.22412109375,1.75,-0.375,1.0
1.7999999999999836,-2.0,1.0,-3.0,10.0,-5.0,-5.0,-1.0,-1.0,0.5418701171875,-0.3040771484375,0.3453369140625,-0.70330810546875,-0.0576171875,-0.9755859375,0.22412109375,1.75,-0.375,1.0
1.8049999999999835,-2.0,1.0,-3.0,10.0,-5.0,-5.0,-1.0,-1.0,0.5418701171875,-0.3040771484375,0.3453369140625,-0.70330810546875,-0.0576171875,-0.9755859375,0.22412109375,1.75,-0.375,1.0
1.8099999999999834,-1.0,-3.0,-2.0,-11.0,-4.0,2.0,1.0,-2.0,0.541748046875,-0.3040771484375,0.34503173828125,-0.70355224609375,-0.06103515625,-0.97314453125,0.220703125,1.25,-1.5,1.625
1.8149999999999833,-1.0,-3.0,-2.0,-11.0,-4.0,2.0,1.0,-2.0,0.541748046875,-0.3040771484375,0.34503173828125,-0.70355224609375,-0.06103515625,-0.97314453125,0.220703125,1.25,-1.5,1.625
1.8199999999999832,-1.0,-3.0,-2.0,-11.0,-4.0,2.0,1.0,-2.0,0.541748046875,-0.3040771484375,0.34503173828125,-0.70355224609375,-0.06103515625,-0.97314453125,0.220703125,1.25,-1.5,1.625
1.824999999999983,-1.0,-3.0,-2.0,-11.0,-4.0,2.0,1.0,-2.0,0.541748046875,-0.3040771484375,0.34503173828125,-0.70355224609375,-0.06103515625,-0.97314453125,0.220703125,1.25,-1.5,1.625
1.829999999999983,-2.0,-1.0,1.0,-5.0,-3.0,-4.0,-1.0,-1.0,0.54168701171875,-0.3040771484375,0.34454345703125,-0.703857421875,-0.060546875,-0.97802734375,0.22216796875,0.5,-2.1875,2.0625
1.8349999999999829,-2.0,-4.0,-6.0,-8.0,0.0,19.0,5.0,-3.0,0.54168701171875,-0.3040771484375,0.34454345703125,-0.703857421875,-0.060546875,-0.97802734375,0.22216796875,0.5,-2.1875,2.0625
1.8399999999999828,-2.0,-4.0,-6.0,-8.0,0.0,19.0,5.0,-3.0,0.54168701171875,-0.3040771484375,0.34454345703125,-0.703857421875,-0.060546875,-0.97802734375,0.22216796875,0.5,-2.1875,2.0625
1.8449999999999827,-2.0,-4.0,-6.0,-8.0,0.0,19.0,5.0,-3.0,0.54168701171875,-0.3040771484375,0.34454345703125,-0.703857421875,-0.060546875,-0.97802734375,0.22216796875,0.5,-2.1875,2.0625
1.8499999999999825,1.0,-1.0,-2.0,-2.0,0.0,-16.0,-2.0,-2.0,0.54168701171875,-0.3040771484375,0.34454345703125,-0.703857421875,-0.060546875,-0.97802734375,0.22216796875,0.5,-2.1875,2.0625
1.8549999999999824,1.0,-1.0,-2.0,-2.0,0.0,-16.0,-2.0,-2.0,0.54168701171875,-0.3040771484375,0.34454345703125,-0.703857421875,-0.060546875,-0.97802734375,0.22216796875,0.5,-2.1875,2.0625
1.8599999999999823,-1.0,0.0,-5.0,15.0,-6.0,-16.0,-6.0,1.0,0.5418701171875,-0.303955078125,0.34405517578125,-0.7039794921875,-0.0546875,-0.98486328125,0.21435546875,0.25,-2.4375,1.75
1.8649999999999822,-1.0,0.0,-5.0,15.0,-6.0,-16.0,-6.0,1.0,0.5418701171875,-0.303955078125,0.34405517578125,-0.7039794921875,-0.0546875,-0.98486328125,0.21435546875,0.25,-2.4375,1.75
1.8699999999999821,-1.0,0.0,-5.0,15.0,-6.0,-16.0,-6.0,1.0,0.5418701171875,-0.303955078125,0.34405517578125,-0.7039794921875,-0.0546875,-0.98486328125,0.21435546875,0.25,-2.4375,1.75
1.874999999999982,-2.0,0.0,2.0,13.0,-12.0,13.0,4.0,0.0,0.5418701171875,-0.303955078125,0.34405517578125,-0.7039794921875,-0.0546875,-0.98486328125,0.21435546875,0.25,-2.4375,1.75
1.879999999999982,-2.0,0.0,2.0,13.0,-12.0,13.0,4.0,0.0,0.5418701171875,-0.303955078125,0.34405517578125,-0.7039794921875,-0.0546875,-0.98486328125,0.21435546875,0.25,-2.4375,1.75
1.8849999999999818,1.0,3.0,7.0,16.0,5.0,-2.0,-1.0,0.0,0.5419921875,-0.30377197265625,0.3436279296875,-0.7042236328125,-0.05712890625,-0.98193359375,0.2265625,0.1875,-2.8125,1.125
1.8899999999999817,1.0,3.0,7.0,16.0,5.0,-2.0,-1.0,0.0,0.5419921875,-0.30377197265625,0.3436279296875,-0.7042236328125,-0.05712890625,-0.98193359375,0.2265625,0.1875,-2.8125,1.125
1.8949999999999816,1.0,3.0,7.0,16.0,5.0,-2.0,-1.0,0.0,0.5419921875,-0.30377197265625,0.3436279296875,-0.7042236328125,-0.05712890625,-0.98193359375,0.2265625,0.1875,-2.8125,1.125
1.8999999999999815,-2.0,-4.0,-4.0,-3.0,1.0,2.0,-2.0,-4.0,0.5419921875,-0.30377197265625,0.3436279296875,-0.7042236328125,-0.05712890625,-0.98193359375,0.2265625,0.1875,-2.8125,1.125
1.9049999999999814,-1.0,0.0,2.0,-1.0,-3.0,-8.0,0.0,-1.0,0.54205322265625,-0.30340576171875,0.34332275390625,-0.7044677734375,-0.0537109375,-0.97216796875,0.21923828125,0.875,-3.0,0.625
1.9099999999999813,-1.0,0.0,2.0,-1.0,-3.0,-8.0,0.0,-1.0,0.54205322265625,-0.30340576171875,0.34332275390625,-0.7044677734375,-0.0537109375,-0.97216796875,0.21923828125,0.875,-3.0,0.625
1.9149999999999812,-1.0,-3.0,-3.0,-18.0,-5.0,-2.0,-2.0,-1.0,0.54205322265625,-0.30340576171875,0.34332275390625,-0.7044677734375,-0.0537109375,-0.97216796875,0.21923828125,0.875,-3.0,0.625
1.919999999999981,-1.0,-3.0,-3.0,-18.0,-5.0,-2.0,-2.0,-1.0,0.54205322265625,-0.30340576171875,0.34332275390625,-0.7044677734375,-0.0537109375,-0.97216796875,0.21923828125,0.875,-3.0,0.625
1.924999999999981,0.0,-1.0,-6.0,-13.0,-2.0,3.0,-2.0,1.0,0.5421142578125,-0.30303955078125,0.343017578125,-0.7047119140625,-0.05126953125,-0.97216796875,0.21923828125,1.5625,-3.0625,0.375
1.9299999999999808,0.0,-1.0,-6.0,-13.0,-2.0,3.0,-2.0,1.0,0.5421142578125,-0.30303955078125,0.343017578125,-0.7047119140625,-0.05126953125,-0.97216796875,0.21923828125,1.5625,-3.0625,0.375
1.9349999999999807,-1.0,-1.0,2.0,3.0,-8.0,-3.0,-1.0,-3.0,0.5421142578125,-0.30303955078125,0.343017578125,-0.7047119140625,-0.05126953125,-0.97216796875,0.21923828125,1.5625,-3.0625,0.375
1.9399999999999806,-1.0,-1.0,2.0,3.0,-8.0,-3.0,-1.0,-3.0,0.5421142578125,-0.30303955078125,0.343017578125,-0.7047119140625,-0.05126953125,-0.97216796875,0.21923828125,1.5625,-3.0625,0.375
1.9449999999999805,-3.0,-3.0,-9.0,-26.0,-2.0,-7.0,-3.0,0.0,0.542236328125,-0.30255126953125,0.3427734375,-0.7049560546875,-0.05126953125,-0.97314453125,0.22412109375,0.9375,-3.4375,0.125
1.9499999999999804,-3.0,-3.0,-9.0,-26.0,-2.0,-7.0,-3.0,0.0,0.542236328125,-0.30255126953125,0.3427734375,-0.7049560546875,-0.05126953125,-0.97314453125,0.22412109375,0.9375,-3.4375,0.125
1.9549999999999803,-3.0,-3.0,-9.0,-26.0,-2.0,-7.0,-3.0,0.0,0.542236328125,-0.30255126953125,0.3427734375,-0.7049560546875,-0.05126953125,-0.97314453125,0.22412109375,0.9375,-3.4375,0.125
1.9599999999999802,-3.0,-3.0,-9.0,-26.0,-2.0,-7.0,-3.0,0.0,0.542236328125,-0.30255126953125,0.3427734375,-0.7049560546875,-0.05126953125,-0.97314453125,0.22412109375,0.9375,-3.4375,0.125
1.96499999999998,-1.0,-1.0,-9.0,-21.0,-2.0,-14.0,-3.0,-4.0,0.54248046875,-0.3021240234375,0.342529296875,-0.705078125,-0.04833984375,-0.97802734375,0.224609375,0.25,-3.0,0.125
1.96999999999998,-1.0,-1.0,-9.0,-21.0,-2.0,-14.0,-3.0,-4.0,0.54248046875,-0.3021240234375,0.342529296875,-0.705078125,-0.04833984375,-0.97802734375,0.224609375,0.25,-3.0,0.125
1.9749999999999799,-1.0,-2.0,-3.0,-17.0,10.0,-1.0,-2.0,-2.0,0.54248046875,-0.3021240234375,0.342529296875,-0.705078125,-0.04833984375,-0.97802734375,0.224609375,0.25,-3.0,0.125
1.9799999999999798,-1.0,-1.0,2.0,7.0,2.0,9.0,2.0,1.0,0.54266357421875,-0.3017578125,0.3424072265625,-0.70513916015625,-0.05029296875,-0.9755859375,0.23291015625,-0.4375,-2.1875,-0.8125
1.9849999999999797,-1.0,-1.0,2.0,7.0,2.0,9.0,2.0,1.0,0.54266357421875,-0.3017578125,0.3424072265625,-0.70513916015625,-0.05029296875,-0.9755859375,0.23291015625,-0.4375,-2.1875,-0.8125
1.9899999999999796,-1.0,-1.0,2.0,7.0,2.0,9.0,2.0,1.0,0.54266357421875,-0.3017578125,0.3424072265625,-0.70513916015625,-0.05029296875,-0.9755859375,0.23291015625,-0.4375,-2.1875,-0.8125
1.9949999999999795,-1.0,-1.0,2.0,7.0,2.0,9.0,2.0,1.0,0.54266357421875,-0.3017578125,0.3424072265625,-0.70513916015625,-0.05029296875,-0.9755859375,0.23291015625,-0.4375,-2.1875,-0.8125
1.9999999999999793,1.0,-1.0,0.0,4.0,-5.0,1.0,1.0,-1.0,0.54266357421875,-0.3017578125,0.3424072265625,-0.70513916015625,-0.05029296875,-0.9755859375,0.23291015625,-0.4375,-2.1875,-0.8125
2.0049999999999795,0.0,-1.0,-1.0,-11.0,1.0,-26.0,-3.0,-1.0,0.54266357421875,-0.30126953125,0.34246826171875,-0.705322265625,-0.04736328125,-0.970703125,0.2333984375,1.625,-2.1875,-0.9375
2.0099999999999794,0.0,-1.0,-1.0,-11.0,1.0,-26.0,-3.0,-1.0,0.54266357421875,-0.30126953125,0.34246826171875,-0.705322265625,-0.04736328125,-0.970703125,0.2333984375,1.625,-2.1875,-0.9375
2.0149999999999793,0.0,-1.0,-1.0,-11.0,1.0,-26.0,-3.0,-1.0,0.54266357421875,-0.30126953125,0.34246826171875,-0.705322265625,-0.04736328125,-0.970703125,0.2333984375,1.625,-2.1875,-0.9375
2.019999999999979,0.0,-1.0,-1.0,-11.0,1.0,-26.0,-3.0,-1.0,0.54266357421875,-0.30126953125,0.34246826171875,-0.705322265625,-0.04736328125,-0.970703125,0.2333984375,1.625,-2.1875,-0.9375
2.024999999999979,-2.0,-1.0,-2.0,13.0,9.0,5.0,-1.0,-1.0,0.54266357421875,-0.30126953125,0.34246826171875,-0.705322265625,-0.04736328125,-0.970703125,0.2333984375,1.625,-2.1875,-0.9375
2.029999999999979,-3.0,-2.0,2.0,9.0,0.0,12.0,-2.0,-2.0,0.5428466796875,-0.30072021484375,0.342529296875,-0.70538330078125,-0.04931640625,-0.978515625,0.23583984375,0.0,-2.375,-2.0
2.034999999999979,-3.0,-2.0,2.0,9.0,0.0,12.0,-2.0,-2.0,0.5428466796875,-0.30072021484375,0.342529296875,-0.70538330078125,-0.04931640625,-0.978515625,0.23583984375,0.0,-2.375,-2.0
2.0399999999999787,1.0,-2.0,-2.0,1.0,-4.0,-14.0,-3.0,0.0,0.5428466796875,-0.30072021484375,0.342529296875,-0.70538330078125,-0.04931640625,-0.978515625,0.23583984375,0.0,-2.375,-2.0
2.0449999999999786,1.0,-2.0,-2.0,1.0,-4.0,-14.0,-3.0,0.0,0.5428466796875,-0.30072021484375,0.342529296875,-0.70538330078125,-0.04931640625,-0.978515625,0.23583984375,0.0,-2.375,-2.0
2.0499999999999785,1.0,-2.0,-2.0,1.0,-4.0,-14.0,-3.0,0.0,0.54315185546875,-0.30010986328125,0.34259033203125,-0.70538330078125,-0.04541015625,-0.98779296875,0.23046875,0.0,-2.8125,-2.375
2.0549999999999784,-3.0,0.0,0.0,13.0,3.0,5.0,-2.0,0.0,0.54315185546875,-0.30010986328125,0.34259033203125,-0.70538330078125,-0.04541015625,-0.98779296875,0.23046875,0.0,-2.8125,-2.375
2.0599999999999783,-3.0,0.0,0.0,13.0,3.0,5.0,-2.0,0.0,0.54315185546875,-0.30010986328125,0.34259033203125,-0.70538330078125,-0.04541015625,-0.98779296875,0.23046875,0.0,-2.8125,-2.375
2.064999999999978,-1.0,-2.0,-3.0,-5.0,2.0,4.0,1.0,-2.0,0.54315185546875,-0.30010986328125,0.34259033203125,-0.70538330078125,-0.04541015625,-0.98779296875,0.23046875,0.0,-2.8125,-2.375
2.069999999999978,-1.0,-2.0,-3.0,-5.0,2.0,4.0,1.0,-2.0,0.54315185546875,-0.30010986328125,0.34259033203125,-0.70538330078125,-0.04541015625,-0.98779296875,0.23046875,0.0,-2.8125,-2.375
2.074999999999978,1.0,-1.0,1.0,-1.0,-16.0,-23.0,-5.0,-2.0,0.54351806640625,-0.2994384765625,0.34271240234375,-0.705322265625,-0.05078125,-0.990234375,0.23193359375,-0.0625,-2.9375,-3.3125
2.079999999999978,1.0,-1.0,1.0,-1.0,-16.0,-23.0,-5.0,-2.0,0.54351806640625,-0.2994384765625,0.34271240234375,-0.705322265625,-0.05078125,-0.990234375,0.23193359375,-0.0625,-2.9375,-3.3125
2.0849999999999778,1.0,-1.0,1.0,-1.0,-16.0,-23.0,-5.0,-2.0,0.54351806640625,-0.2994384765625,0.34271240234375,-0.705322265625,-0.05078125,-0.990234375,0.23193359375,-0.0625,-2.9375,-3.3125
2.0899999999999777,1.0,0.0,-2.0,1.0,2.0,6.0,1.0,-1.0,0.54376220703125,-0.29876708984375,0.34295654296875,-0.705322265625,-0.0478515625,-0.98681640625,0.23876953125,0.4375,-2.4375,-3.375
2.0949999999999775,1.0,0.0,-2.0,1.0,2.0,6.0,1.0,-1.0,0.54376220703125,-0.29876708984375,0.34295654296875,-0.705322265625,-0.0478515625,-0.98681640625,0.23876953125,0.4375,-2.4375,-3.375
2.0999999999999774,1.0,0.0,1.0,3.0,-2.0,-3.0,-4.0,-1.0,0.54376220703125,-0.29876708984375,0.34295654296875,-0.705322265625,-0.0478515625,-0.98681640625,0.23876953125,0.4375,-2.4375,-3.375
2.1049999999999773,1.0,0.0,1.0,3.0,-2.0,-3.0,-4.0,-1.0,0.54376220703125,-0.29876708984375,0.34295654296875,-0.705322265625,-0.0478515625,-0.98681640625,0.23876953125,0.4375,-2.4375,-3.375
2.1099999999999772,0.0,-2.0,-1.0,5.0,4.0,1.0,-2.0,-1.0,0.5440673828125,-0.2982177734375,0.3431396484375,-0.7052001953125,-0.0439453125,-0.986328125,0.2373046875,-0.5,-2.0625,-3.0
2.114999999999977,0.0,-2.0,-1.0,5.0,4.0,1.0,-2.0,-1.0,0.5440673828125,-0.2982177734375,0.3431396484375,-0.7052001953125,-0.0439453125,-0.986328125,0.2373046875,-0.5,-2.0625,-3.0
2.119999999999977,0.0,-2.0,-1.0,5.0,4.0,1.0,-2.0,-1.0,0.5440673828125,-0.2982177734375,0.3431396484375,-0.7052001953125,-0.0439453125,-0.986328125,0.2373046875,-0.5,-2.0625,-3.0
2.124999999999977,-3.0,-3.0,-2.0,-7.0,-4.0,-4.0,-2.0,0.0,0.5440673828125,-0.2982177734375,0.3431396484375,-0.7052001953125,-0.0439453125,-0.986328125,0.2373046875,-0.5,-2.0625,-3.0
2.129999999999977,-3.0,-3.0,-2.0,-7.0,-4.0,-4.0,-2.0,0.0,0.5440673828125,-0.2982177734375,0.3431396484375,-0.7052001953125,-0.0439453125,-0.986328125,0.2373046875,-0.5,-2.0625,-3.0
2.1349999999999767,-3.0,-3.0,-2.0,-7.0,-4.0,-4.0,-2.0,0.0,0.5443115234375,-0.2978515625,0.34320068359375,-0.70513916015625,-0.04931640625,-0.98974609375,0.23583984375,-0.375,-1.75,-2.125
2.1399999999999766,1.0,-2.0,2.0,8.0,0.0,8.0,2.0,-1.0,0.5443115234375,-0.2978515625,0.34320068359375,-0.70513916015625,-0.04931640625,-0.98974609375,0.23583984375,-0.375,-1.75,-2.125
2.1449999999999765,1.0,-2.0,2.0,8.0,0.0,8.0,2.0,-1.0,0.5443115234375,-0.2978515625,0.34320068359375,-0.70513916015625,-0.04931640625,-0.98974609375,0.23583984375,-0.375,-1.75,-2.125
2.1499999999999764,1.0,-2.0,2.0,8.0,0.0,8.0,2.0,-1.0,0.5443115234375,-0.2978515625,0.34320068359375,-0.70513916015625,-0.04931640625,-0.98974609375,0.23583984375,-0.375,-1.75,-2.125
2.1549999999999763,-3.0,0.0,-1.0,-2.0,-10.0,13.0,4.0,-2.0,0.5443115234375,-0.29754638671875,0.3431396484375,-0.705322265625,-0.05224609375,-0.9873046875,0.23828125,0.5,-1.625,-0.875
2.159999999999976,0.0,-2.0,3.0,7.0,-2.0,-1.0,-2.0,-2.0,0.5443115234375,-0.29754638671875,0.3431396484375,-0.705322265625,-0.05224609375,-0.9873046875,0.23828125,0.5,-1.625,-0.875
2.164999999999976,0.0,-2.0,3.0,7.0,-2.0,-1.0,-2.0,-2.0,0.5443115234375,-0.29754638671875,0.3431396484375,-0.705322265625,-0.05224609375,-0.9873046875,0.23828125,0.5,-1.625,-0.875
2.169999999999976,0.0,-2.0,3.0,7.0,-2.0,-1.0,-2.0,-2.0,0.5443115234375,-0.29742431640625,0.34307861328125,-0.70538330078125,-0.056640625,-0.98388671875,0.232421875,0.4375,-1.25,-0.5625
2.174999999999976,-2.0,-4.0,-2.0,-9.0,3.0,1.0,1.0,0.0,0.5443115234375,-0.29742431640625,0.34307861328125,-0.70538330078125,-0.056640625,-0.98388671875,0.232421875,0.4375,-1.25,-0.5625
2.1799999999999757,-2.0,-4.0,-2.0,-9.0,3.0,1.0,1.0,0.0,0.5443115234375,-0.29742431640625,0.34307861328125,-0.70538330078125,-0.056640625,-0.98388671875,0.232421875,0.4375,-1.25,-0.5625
2.1849999999999756,-2.0,-4.0,-2.0,-9.0,3.0,1.0,1.0,0.0,0.5443115234375,-0.29742431640625,0.34307861328125,-0.70538330078125,-0.056640625,-0.98388671875,0.232421875,0.4375,-1.25,-0.5625
2.1899999999999755,-2.0,-1.0,-6.0,-17.0,2.0,-3.0,-3.0,-1.0,0.5443115234375,-0.29742431640625,0.34307861328125,-0.70538330078125,-0.056640625,-0.98388671875,0.232421875,0.4375,-1.25,-0.5625
2.1949999999999754,-2.0,-1.0,-6.0,-17.0,2.0,-3.0,-3.0,-1.0,0.5443115234375,-0.29742431640625,0.34307861328125,-0.70538330078125,-0.056640625,-0.98388671875,0.232421875,0.4375,-1.25,-0.5625
2.1999999999999753,-4.0,-2.0,3.0,4.0,2.0,2.0,-1.0,0.0,0.544189453125,-0.2972412109375,0.34295654296875,-0.70562744140625,-0.0576171875,-0.97607421875,0.23974609375,0.625,-1.125,-0.1875
2.204999999999975,-4.0,-2.0,3.0,4.0,2.0,2.0,-1.0,0.0,0.544189453125,-0.2972412109375,0.34295654296875,-0.70562744140625,-0.0576171875,-0.97607421875,0.23974609375,0.625,-1.125,-0.1875
2.209999999999975,-4.0,-2.0,3.0,4.0,2.0,2.0,-1.0,0.0,0.544189453125,-0.2972412109375,0.34295654296875,-0.70562744140625,-0.0576171875,-0.97607421875,0.23974609375,0.625,-1.125,-0.1875
2.214999999999975,-4.0,-2.0,3.0,4.0,2.0,2.0,-1.0,0.0,0.544189453125,-0.2972412109375,0.34295654296875,-0.70562744140625,-0.0576171875,-0.97607421875,0.23974609375,0.625,-1.125,-0.1875
2.219999999999975,-2.0,-5.0,-4.0,4.0,-6.0,-5.0,-6.0,-2.0,0.544189453125,-0.29730224609375,0.34295654296875,-0.70562744140625,-0.05419921875,-0.98095703125,0.236328125,-0.5,-1.0,0.1875
2.2249999999999748,-2.0,-5.0,-4.0,4.0,-6.0,-5.0,-6.0,-2.0,0.544189453125,-0.29730224609375,0.34295654296875,-0.70562744140625,-0.05419921875,-0.98095703125,0.236328125,-0.5,-1.0,0.1875
2.2299999999999747,-2.0,-5.0,-4.0,4.0,-6.0,-5.0,-6.0,-2.0,0.544189453125,-0.29730224609375,0.34295654296875,-0.70562744140625,-0.05419921875,-0.98095703125,0.236328125,-0.5,-1.0,0.1875
2.2349999999999746,0.0,-2.0,-2.0,-1.0,-2.0,-7.0,1.0,0.0,0.544189453125,-0.29730224609375,0.34295654296875,-0.70562744140625,-0.05419921875,-0.98095703125,0.236328125,-0.5,-1.0,0.1875
2.2399999999999745,0.0,-2.0,-2.0,-1.0,-2.0,-7.0,1.0,0.0,0.544189453125,-0.29730224609375,0.34295654296875,-0.70562744140625,-0.05419921875,-0.98095703125,0.236328125,-0.5,-1.0,0.1875
2.2449999999999743,0.0,-2.0,-2.0,-1.0,-2.0,-7.0,1.0,0.0,0.544189453125,-0.29730224609375,0.34295654296875,-0.70562744140625,-0.05419921875,-0.98095703125,0.236328125,-0.5,-1.0,0.1875
2.2499999999999742,0.0,-2.0,-2.0,-1.0,-2.0,-7.0,1.0,0.0,0.544189453125,-0.29730224609375,0.34295654296875,-0.70562744140625,-0.05419921875,-0.98095703125,0.236328125,-0.5,-1.0,0.1875
2.254999999999974,0.0,-2.0,-2.0,-1.0,-2.0,-7.0,1.0,0.0,0.54437255859375,-0.29742431640625,0.34271240234375,-0.70550537109375,-0.05126953125,-0.98779296875,0.22900390625,-1.5,-0.6875,0.75
2.259999999999974,-1.0,1.0,-1.0,2.0,2.0,-4.0,-1.0,-2.0,0.54437255859375,-0.29742431640625,0.34271240234375,-0.70550537109375,-0.05126953125,-0.98779296875,0.22900390625,-1.5,-0.6875,0.75
2.264999999999974,-2.0,-1.0,-1.0,0.0,-13.0,-15.0,-4.0,-4.0,0.54437255859375,-0.29742431640625,0.34271240234375,-0.70550537109375,-0.05126953125,-0.98779296875,0.22900390625,-1.5,-0.6875,0.75
2.269999999999974,-2.0,-1.0,-1.0,0.0,-13.0,-15.0,-4.0,-4.0,0.54437255859375,-0.29742431640625,0.34271240234375,-0.70550537109375,-0.05126953125,-0.98779296875,0.22900390625,-1.5,-0.6875,0.75
2.2749999999999737,0.0,0.0,-6.0,-15.0,-2.0,22.0,0.0,-2.0,0.54437255859375,-0.29742431640625,0.3426513671875,-0.70550537109375,-0.04736328125,-0.974609375,0.23046875,0.875,0.0,0.8125
2.2799999999999736,0.0,0.0,-6.0,-15.0,-2.0,22.0,0.0,-2.0,0.54437255859375,-0.29742431640625,0.3426513671875,-0.70550537109375,-0.04736328125,-0.974609375,0.23046875,0.875,0.0,0.8125
2.2849999999999735,0.0,0.0,-6.0,-15.0,-2.0,22.0,0.0,-2.0,0.54437255859375,-0.29742431640625,0.3426513671875,-0.70550537109375,-0.04736328125,-0.974609375,0.23046875,0.875,0.0,0.8125
2.2899999999999734,0.0,0.0,-6.0,-15.0,-2.0,22.0,0.0,-2.0,0.54437255859375,-0.29742431640625,0.3426513671875,-0.70550537109375,-0.04736328125,-0.974609375,0.23046875,0.875,0.0,0.8125
2.2949999999999733,0.0,0.0,-6.0,-15.0,-2.0,22.0,0.0,-2.0,0.54437255859375,-0.29742431640625,0.3426513671875,-0.70550537109375,-0.04736328125,-0.974609375,0.23046875,0.875,0.0,0.8125
2.299999999999973,0.0,2.0,3.0,-1.0,-1.0,1.0,1.0,-1.0,0.54437255859375,-0.29742431640625,0.3426513671875,-0.70556640625,-0.05126953125,-0.98046875,0.2333984375,0.625,0.4375,0.4375
2.304999999999973,0.0,2.0,3.0,-1.0,-1.0,1.0,1.0,-1.0,0.54437255859375,-0.29742431640625,0.3426513671875,-0.70556640625,-0.05126953125,-0.98046875,0.2333984375,0.625,0.4375,0.4375
2.309999999999973,0.0,2.0,3.0,-1.0,-1.0,1.0,1.0,-1.0,0.54437255859375,-0.29742431640625,0.3426513671875,-0.70556640625,-0.05126953125,-0.98046875,0.2333984375,0.625,0.4375,0.4375
2.314999999999973,-1.0,-2.0,-2.0,2.0,0.0,0.0,-1.0,-2.0,0.54437255859375,-0.29742431640625,0.3426513671875,-0.70556640625,-0.05126953125,-0.98046875,0.2333984375,0.625,0.4375,0.4375
2.3199999999999728,-1.0,-2.0,-2.0,2.0,0.0,0.0,-1.0,-2.0,0.54437255859375,-0.29742431640625,0.3426513671875,-0.70556640625,-0.05126953125,-0.98046875,0.2333984375,0.625,0.4375,0.4375
2.3249999999999726,-1.0,-2.0,-2.0,2.0,0.0,0.0,-1.0,-2.0,0.54437255859375,-0.29742431640625,0.3426513671875,-0.70550537109375,-0.04931640625,-0.97998046875,0.2265625,0.25,0.375,-0.0625
2.3299999999999725,0.0,-2.0,0.0,-4.0,4.0,0.0,-4.0,-3.0,0.54437255859375,-0.29742431640625,0.3426513671875,-0.70550537109375,-0.04931640625,-0.97998046875,0.2265625,0.25,0.375,-0.0625
2.3349999999999724,0.0,-2.0,0.0,-4.0,4.0,0.0,-4.0,-3.0,0.54437255859375,-0.29742431640625,0.3426513671875,-0.70550537109375,-0.04931640625,-0.97998046875,0.2265625,0.25,0.375,-0.0625
2.3399999999999723,0.0,-2.0,0.0,-4.0,4.0,0.0,-4.0,-3.0,0.54437255859375,-0.29742431640625,0.3426513671875,-0.70550537109375,-0.04931640625,-0.97998046875,0.2265625,0.25,0.375,-0.0625
2.344999999999972,0.0,-1.0,-5.0,3.0,0.0,-1.0,-1.0,-1.0,0.54437255859375,-0.29742431640625,0.3426513671875,-0.70550537109375,-0.04931640625,-0.97998046875,0.2265625,0.25,0.375,-0.0625
2.349999999999972,0.0,-1.0,-5.0,3.0,0.0,-1.0,-1.0,-1.0,0.54437255859375,-0.29742431640625,0.3426513671875,-0.70550537109375,-0.04931640625,-0.97998046875,0.2265625,0.25,0.375,-0.0625
2.354999999999972,-1.0,1.0,-3.0,-12.0,-17.0,-14.0,0.0,1.0,0.54437255859375,-0.29742431640625,0.3426513671875,-0.70550537109375,-0.04736328125,-0.98193359375,0.22509765625,0.4375,0.3125,0.375
2.359999999999972,-1.0,1.0,-3.0,-12.0,-17.0,-14.0,0.0,1.0,0.54437255859375,-0.29742431640625,0.3426513671875,-0.70550537109375,-0.04736328125,-0.98193359375,0.22509765625,0.4375,0.3125,0.375
2.364999999999972,-1.0,1.0,-3.0,-12.0,-17.0,-14.0,0.0,1.0,0.54437255859375,-0.29742431640625,0.3426513671875,-0.70550537109375,-0.04736328125,-0.98193359375,0.22509765625,0.4375,0.3125,0.375
2.3699999999999717,-1.0,1.0,-3.0,-12.0,-17.0,-14.0,0.0,1.0,0.54437255859375,-0.29742431640625,0.3426513671875,-0.70550537109375,-0.04736328125,-0.98193359375,0.22509765625,0.4375,0.3125,0.375
2.3749999999999716,0.0,-1.0,-4.0,-12.0,-1.0,-25.0,-5.0,-3.0,0.54437255859375,-0.2974853515625,0.3426513671875,-0.70550537109375,-0.05517578125,-0.982421875,0.22119140625,-0.1875,-0.0625,-0.1875
2.3799999999999715,0.0,-1.0,-4.0,-12.0,-1.0,-25.0,-5.0,-3.0,0.54437255859375,-0.2974853515625,0.3426513671875,-0.70550537109375,-0.05517578125,-0.982421875,0.22119140625,-0.1875,-0.0625,-0.1875
2.3849999999999714,0.0,-1.0,-4.0,-12.0,-1.0,-25.0,-5.0,-3.0,0.54437255859375,-0.2974853515625,0.3426513671875,-0.70550537109375,-0.05517578125,-0.982421875,0.22119140625,-0.1875,-0.0625,-0.1875
2.3899999999999713,0.0,-1.0,-4.0,-12.0,-1.0,-25.0,-5.0,-3.0,0.54437255859375,-0.2974853515625,0.3426513671875,-0.70550537109375,-0.05517578125,-0.982421875,0.22119140625,-0.1875,-0.0625,-0.1875
2.394999999999971,1.0,0.0,-1.0,-1.0,4.0,11.0,5.0,1.0,0.54437255859375,-0.2974853515625,0.3426513671875,-0.70550537109375,-0.05517578125,-0.982421875,0.22119140625,-0.1875,-0.0625,-0.1875
2.399999999999971,1.0,0.0,-1.0,-1.0,4.0,11.0,5.0,1.0,0.54437255859375,-0.2974853515625,0.3426513671875,-0.70550537109375,-0.05517578125,-0.982421875,0.22119140625,-0.1875,-0.0625,-0.1875
2.404999999999971,0.0,0.0,2.0,10.0,7.0,-1.0,-3.0,-2.0,0.54443359375,-0.2974853515625,0.3426513671875,-0.70550537109375,-0.04443359375,-0.9833984375,0.22216796875,0.9375,-0.5,-0.75
2.409999999999971,0.0,0.0,2.0,10.0,7.0,-1.0,-3.0,-2.0,0.54443359375,-0.2974853515625,0.3426513671875,-0.70550537109375,-0.04443359375,-0.9833984375,0.22216796875,0.9375,-0.5,-0.75
2.4149999999999707,0.0,0.0,2.0,10.0,7.0,-1.0,-3.0,-2.0,0.54443359375,-0.2974853515625,0.3426513671875,-0.70550537109375,-0.04443359375,-0.9833984375,0.22216796875,0.9375,-0.5,-0.75
2.4199999999999706,-1.0,-3.0,-2.0,-1.0,4.0,-21.0,-8.0,-1.0,0.54443359375,-0.2974853515625,0.3426513671875,-0.70550537109375,-0.04443359375,-0.9833984375,0.22216796875,0.9375,-0.5,-0.75
2.4249999999999705,-1.0,-3.0,-2.0,-1.0,4.0,-21.0,-8.0,-1.0,0.54443359375,-0.2974853515625,0.3426513671875,-0.70550537109375,-0.04443359375,-0.9833984375,0.22216796875,0.9375,-0.5,-0.75
2.4299999999999704,-1.0,-3.0,-2.0,-1.0,4.0,-21.0,-8.0,-1.0,0.5445556640625,-0.29730224609375,0.3427734375,-0.70538330078125,-0.0419921875,-0.978515625,0.228515625,-0.0625,-0.375,-1.375
2.4349999999999703,0.0,-2.0,1.0,0.0,-1.0,11.0,2.0,3.0,0.5445556640625,-0.29730224609375,0.3427734375,-0.70538330078125,-0.0419921875,-0.978515625,0.228515625,-0.0625,-0.375,-1.375
2.43999999999997,0.0,-2.0,1.0,0.0,-1.0,11.0,2.0,3.0,0.5445556640625,-0.29730224609375,0.3427734375,-0.70538330078125,-0.0419921875,-0.978515625,0.228515625,-0.0625,-0.375,-1.375
2.44499999999997,0.0,-2.0,1.0,0.0,-1.0,11.0,2.0,3.0,0.5445556640625,-0.29730224609375,0.3427734375,-0.70538330078125,-0.0419921875,-0.978515625,0.228515625,-0.0625,-0.375,-1.375
2.44999999999997,0.0,-2.0,1.0,0.0,-1.0,11.0,2.0,3.0,0.5445556640625,-0.29730224609375,0.3427734375,-0.70538330078125,-0.0419921875,-0.978515625,0.228515625,-0.0625,-0.375,-1.375
2.45499999999997,-1.0,-1.0,-3.0,-1.0,5.0,15.0,1.0,-1.0,0.5445556640625,-0.29730224609375,0.3427734375,-0.70538330078125,-0.0419921875,-0.978515625,0.228515625,-0.0625,-0.375,-1.375
2.4599999999999698,-1.0,-4.0,-5.0,-1.0,16.0,15.0,2.0,-2.0,0.5445556640625,-0.29730224609375,0.3427734375,-0.70538330078125,-0.0498046875,-0.9853515625,0.2236328125,-0.625,-0.5625,-0.75
2.4649999999999697,-1.0,-4.0,-5.0,-1.0,16.0,15.0,2.0,-2.0,0.5445556640625,-0.29730224609375,0.3427734375,-0.70538330078125,-0.0498046875,-0.9853515625,0.2236328125,-0.625,-0.5625,-0.75
2.4699999999999696,0.0,0.0,-1.0,-7.0,-3.0,-14.0,-1.0,1.0,0.5445556640625,-0.29730224609375,0.3427734375,-0.70538330078125,-0.0498046875,-0.9853515625,0.2236328125,-0.625,-0.5625,-0.75
2.4749999999999694,0.0,0.0,-1.0,-7.0,-3.0,-14.0,-1.0,1.0,0.5445556640625,-0.29730224609375,0.3427734375,-0.70538330078125,-0.0498046875,-0.9853515625,0.2236328125,-0.625,-0.5625,-0.75
2.4799999999999693,-2.0,1.0,1.0,10.0,2.0,-19.0,-2.0,-1.0,0.54461669921875,-0.29730224609375,0.3427734375,-0.70538330078125,-0.044921875,-0.98974609375,0.22021484375,-1.0,-0.5,-0.5625
2.4849999999999692,0.0,0.0,1.0,-1.0,0.0,13.0,4.0,1.0,0.54461669921875,-0.29730224609375,0.3427734375,-0.70538330078125,-0.044921875,-0.98974609375,0.22021484375,-1.0,-0.5,-0.5625
2.489999999999969,0.0,0.0,1.0,-1.0,0.0,13.0,4.0,1.0,0.54461669921875,-0.29730224609375,0.3427734375,-0.70538330078125,-0.044921875,-0.98974609375,0.22021484375,-1.0,-0.5,-0.5625
2.494999999999969,0.0,0.0,1.0,-1.0,0.0,13.0,4.0,1.0,0.54461669921875,-0.29730224609375,0.3427734375,-0.70538330078125,-0.044921875,-0.98974609375,0.22021484375,-1.0,-0.5,-0.5625
2.499999999999969,-1.0,-4.0,-4.0,1.0,-4.0,-6.0,-2.0,-5.0,0.54461669921875,-0.29730224609375,0.3427734375,-0.70538330078125,-0.044921875,-0.98974609375,0.22021484375,-1.0,-0.5,-0.5625
2.504999999999969,-1.0,-4.0,-4.0,1.0,-4.0,-6.0,-2.0,-5.0,0.54461669921875,-0.29730224609375,0.3427734375,-0.70538330078125,-0.044921875,-0.98974609375,0.22021484375,-1.0,-0.5,-0.5625
2.5099999999999687,-1.0,-4.0,-4.0,1.0,-4.0,-6.0,-2.0,-5.0,0.54461669921875,-0.29730224609375,0.3427734375,-0.70538330078125,-0.044921875,-0.98974609375,0.22021484375,-1.0,-0.5,-0.5625
2.5149999999999686,1.0,-3.0,-2.0,1.0,-4.0,10.0,1.0,-1.0,0.54461669921875,-0.29730224609375,0.3427734375,-0.705322265625,-0.0478515625,-0.9775390625,0.220703125,0.6875,-0.6875,-0.5
2.5199999999999685,-1.0,0.0,-1.0,-5.0,-13.0,-27.0,-7.0,-3.0,0.54461669921875,-0.29730224609375,0.3427734375,-0.705322265625,-0.0478515625,-0.9775390625,0.220703125,0.6875,-0.6875,-0.5
2.5249999999999684,-2.0,0.0,3.0,4.0,-4.0,-5.0,-1.0,-1.0,0.54461669921875,-0.29736328125,0.3427734375,-0.705322265625,-0.04736328125,-0.9794921875,0.22509765625,-0.3125,-0.3125,-0.375
2.5299999999999683,-2.0,0.0,3.0,4.0,-4.0,-5.0,-1.0,-1.0,0.54461669921875,-0.29736328125,0.3427734375,-0.705322265625,-0.04736328125,-0.9794921875,0.22509765625,-0.3125,-0.3125,-0.375
2.534999999999968,-1.0,-1.0,1.0,3.0,-4.0,8.0,1.0,1.0,0.54461669921875,-0.29736328125,0.3427734375,-0.705322265625,-0.04736328125,-0.9794921875,0.22509765625,-0.3125,-0.3125,-0.375
2.539999999999968,-1.0,-1.0,1.0,3.0,-4.0,8.0,1.0,1.0,0.54461669921875,-0.29736328125,0.3427734375,-0.705322265625,-0.04736328125,-0.9794921875,0.22509765625,-0.3125,-0.3125,-0.375
2.544999999999968,-1.0,-4.0,-2.0,4.0,-13.0,-20.0,-3.0,-2.0,0.5447998046875,-0.2974853515625,0.34259033203125,-0.7052001953125,-0.05517578125,-0.98486328125,0.22900390625,-1.4375,-0.25,0.125
2.549999999999968,-1.0,-4.0,-2.0,4.0,-13.0,-20.0,-3.0,-2.0,0.5447998046875,-0.2974853515625,0.34259033203125,-0.7052001953125,-0.05517578125,-0.98486328125,0.22900390625,-1.4375,-0.25,0.125
2.5549999999999677,-1.0,-4.0,-2.0,4.0,-13.0,-20.0,-3.0,-2.0,0.5447998046875,-0.2974853515625,0.34259033203125,-0.7052001953125,-0.05517578125,-0.98486328125,0.22900390625,-1.4375,-0.25,0.125
2.5599999999999676,0.0,-2.0,-1.0,3.0,2.0,11.0,1.0,0.0,0.5447998046875,-0.2974853515625,0.34259033203125,-0.7052001953125,-0.05517578125,-0.98486328125,0.22900390625,-1.4375,-0.25,0.125
2.5649999999999675,0.0,0.0,0.0,3.0,9.0,16.0,3.0,-1.0,0.5447998046875,-0.29754638671875,0.342529296875,-0.7052001953125,-0.056640625,-0.9814453125,0.22705078125,0.0625,0.25,-0.25
2.5699999999999674,0.0,0.0,0.0,3.0,9.0,16.0,3.0,-1.0,0.5447998046875,-0.29754638671875,0.342529296875,-0.7052001953125,-0.056640625,-0.9814453125,0.22705078125,0.0625,0.25,-0.25
2.5749999999999673,0.0,0.0,0.0,3.0,9.0,16.0,3.0,-1.0,0.5447998046875,-0.29754638671875,0.342529296875,-0.7052001953125,-0.056640625,-0.9814453125,0.22705078125,0.0625,0.25,-0.25
2.579999999999967,-3.0,-1.0,-1.0,-5.0,-9.0,-12.0,-3.0,-2.0,0.5447998046875,-0.29754638671875,0.342529296875,-0.7052001953125,-0.056640625,-0.9814453125,0.22705078125,0.0625,0.25,-0.25
2.584999999999967,1.0,0.0,1.0,11.0,0.0,6.0,1.0,-3.0,0.5447998046875,-0.29754638671875,0.342529296875,-0.70526123046875,-0.05126953125,-0.97607421875,0.228515625,0.4375,-0.1875,-0.5
2.589999999999967,1.0,0.0,1.0,11.0,0.0,6.0,1.0,-3.0,0.5447998046875,-0.29754638671875,0.342529296875,-0.70526123046875,-0.05126953125,-0.97607421875,0.228515625,0.4375,-0.1875,-0.5
2.594999999999967,-1.0,0.0,1.0,0.0,5.0,9.0,2.0,-1.0,0.5447998046875,-0.29754638671875,0.342529296875,-0.70526123046875,-0.05126953125,-0.97607421875,0.228515625,0.4375,-0.1875,-0.5
2.599999999999967,-1.0,0.0,1.0,0.0,5.0,9.0,2.0,-1.0,0.5447998046875,-0.29754638671875,0.342529296875,-0.70526123046875,-0.05126953125,-0.97607421875,0.228515625,0.4375,-0.1875,-0.5
2.6049999999999667,-1.0,0.0,1.0,0.0,5.0,9.0,2.0,-1.0,0.5447998046875,-0.29754638671875,0.342529296875,-0.7052001953125,-0.04541015625,-0.98828125,0.23046875,-0.1875,-0.25,-0.125
2.6099999999999666,-3.0,-5.0,-12.0,-12.0,-6.0,4.0,-1.0,-4.0,0.5447998046875,-0.29754638671875,0.342529296875,-0.7052001953125,-0.04541015625,-0.98828125,0.23046875,-0.1875,-0.25,-0.125
2.6149999999999665,-3.0,-5.0,-12.0,-12.0,-6.0,4.0,-1.0,-4.0,0.5447998046875,-0.29754638671875,0.342529296875,-0.7052001953125,-0.04541015625,-0.98828125,0.23046875,-0.1875,-0.25,-0.125
2.6199999999999664,0.0,0.0,-2.0,1.0,3.0,-17.0,-3.0,0.0,0.5447998046875,-0.29754638671875,0.342529296875,-0.7052001953125,-0.04541015625,-0.98828125,0.23046875,-0.1875,-0.25,-0.125
2.6249999999999662,0.0,0.0,-2.0,1.0,3.0,-17.0,-3.0,0.0,0.5447998046875,-0.29754638671875,0.342529296875,-0.7052001953125,-0.04541015625,-0.98828125,0.23046875,-0.1875,-0.25,-0.125
2.629999999999966,0.0,0.0,3.0,6.0,-4.0,-6.0,-1.0,-1.0,0.5447998046875,-0.29754638671875,0.342529296875,-0.7052001953125,-0.0498046875,-0.98681640625,0.22900390625,-0.4375,-0.4375,0.25
2.634999999999966,0.0,0.0,3.0,6.0,-4.0,-6.0,-1.0,-1.0,0.5447998046875,-0.29754638671875,0.342529296875,-0.7052001953125,-0.0498046875,-0.98681640625,0.22900390625,-0.4375,-0.4375,0.25
2.639999999999966,0.0,0.0,3.0,6.0,-4.0,-6.0,-1.0,-1.0,0.5447998046875,-0.29754638671875,0.342529296875,-0.7052001953125,-0.0498046875,-0.98681640625,0.22900390625,-0.4375,-0.4375,0.25
2.644999999999966,-3.0,-2.0,-3.0,-8.0,0.0,2.0,-2.0,-1.0,0.5447998046875,-0.29754638671875,0.342529296875,-0.7052001953125,-0.05322265625,-0.9833984375,0.2294921875,0.3125,-0.125,-0.0625
2.6499999999999657,-1.0,-2.0,1.0,1.0,-4.0,-11.0,-4.0,-3.0,0.5447998046875,-0.29754638671875,0.342529296875,-0.7052001953125,-0.05322265625,-0.9833984375,0.2294921875,0.3125,-0.125,-0.0625
2.6549999999999656,-1.0,-1.0,-2.0,-5.0,8.0,-3.0,-3.0,0.0,0.5447998046875,-0.29754638671875,0.342529296875,-0.7052001953125,-0.05322265625,-0.9833984375,0.2294921875,0.3125,-0.125,-0.0625
2.6599999999999655,0.0,0.0,-1.0,0.0,3.0,18.0,2.0,0.0,0.5447998046875,-0.29754638671875,0.342529296875,-0.7052001953125,-0.05322265625,-0.9833984375,0.2294921875,0.3125,-0.125,-0.0625
2.6649999999999654,0.0,0.0,-1.0,0.0,3.0,18.0,2.0,0.0,0.5447998046875,-0.29754638671875,0.342529296875,-0.7052001953125,-0.05322265625,-0.9833984375,0.2294921875,0.3125,-0.125,-0.0625
2.6699999999999653,-3.0,-2.0,-2.0,2.0,-2.0,-27.0,-9.0,1.0,0.5447998046875,-0.29754638671875,0.342529296875,-0.7052001953125,-0.0478515625,-0.9853515625,0.22216796875,-0.1875,-0.0625,0.125
2.674999999999965,-3.0,-2.0,-2.0,2.0,-2.0,-27.0,-9.0,1.0,0.5447998046875,-0.29754638671875,0.342529296875,-0.7052001953125,-0.0478515625,-0.9853515625,0.22216796875,-0.1875,-0.0625,0.125
2.679999999999965,-3.0,-2.0,-2.0,2.0,-2.0,-27.0,-9.0,1.0,0.5447998046875,-0.29754638671875,0.342529296875,-0.7052001953125,-0.0478515625,-0.9853515625,0.22216796875,-0.1875,-0.0625,0.125
2.684999999999965,0.0,0.0,1.0,7.0,1.0,2.0,1.0,0.0,0.5447998046875,-0.29754638671875,0.342529296875,-0.7052001953125,-0.0478515625,-0.9853515625,0.22216796875,-0.1875,-0.0625,0.125
2.689999999999965,0.0,0.0,1.0,7.0,1.0,2.0,1.0,0.0,0.5447998046875,-0.29754638671875,0.342529296875,-0.7052001953125,-0.0478515625,-0.9853515625,0.22216796875,-0.1875,-0.0625,0.125
2.6949999999999648,-4.0,-3.0,-3.0,0.0,1.0,5.0,2.0,-1.0,0.5447998046875,-0.297607421875,0.342529296875,-0.7052001953125,-0.052734375,-0.98681640625,0.22509765625,-0.125,-0.3125,-0.4375
2.6999999999999647,-4.0,-3.0,-3.0,0.0,1.0,5.0,2.0,-1.0,0.5447998046875,-0.297607421875,0.342529296875,-0.7052001953125,-0.052734375,-0.98681640625,0.22509765625,-0.125,-0.3125,-0.4375
2.7049999999999645,-4.0,-3.0,-3.0,0.0,1.0,5.0,2.0,-1.0,0.5447998046875,-0.297607421875,0.342529296875,-0.7052001953125,-0.052734375,-0.98681640625,0.22509765625,-0.125,-0.3125,-0.4375
2.7099999999999644,-2.0,-2.0,0.0,1.0,-7.0,0.0,-2.0,-3.0,0.54486083984375,-0.297607421875,0.342529296875,-0.7052001953125,-0.044921875,-0.986328125,0.228515625,0.125,-0.375,-0.375
2.7149999999999643,-1.0,0.0,-1.0,9.0,-1.0,-11.0,-5.0,-1.0,0.54486083984375,-0.297607421875,0.342529296875,-0.7052001953125,-0.044921875,-0.986328125,0.228515625,0.125,-0.375,-0.375
2.7199999999999642,2.0,1.0,3.0,0.0,2.0,-11.0,-2.0,-1.0,0.54486083984375,-0.297607421875,0.342529296875,-0.7052001953125,-0.044921875,-0.986328125,0.228515625,0.125,-0.375,-0.375
2.724999999999964,-1.0,-4.0,-1.0,1.0,10.0,1.0,0.0,-1.0,0.54486083984375,-0.297607421875,0.34246826171875,-0.7052001953125,-0.05029296875,-0.984375,0.22705078125,0.8125,0.1875,-0.375
2.729999999999964,-1.0,-4.0,-1.0,1.0,10.0,1.0,0.0,-1.0,0.54486083984375,-0.297607421875,0.34246826171875,-0.7052001953125,-0.05029296875,-0.984375,0.22705078125,0.8125,0.1875,-0.375
2.734999999999964,-1.0,-4.0,-1.0,1.0,10.0,1.0,0.0,-1.0,0.54486083984375,-0.297607421875,0.34246826171875,-0.7052001953125,-0.05029296875,-0.984375,0.22705078125,0.8125,0.1875,-0.375
2.739999999999964,-1.0,-4.0,-1.0,1.0,10.0,1.0,0.0,-1.0,0.54486083984375,-0.297607421875,0.34246826171875,-0.7052001953125,-0.05029296875,-0.984375,0.22705078125,0.8125,0.1875,-0.375
2.7449999999999637,-4.0,-4.0,-5.0,-23.0,-7.0,-3.0,2.0,0.0,0.54486083984375,-0.297607421875,0.34246826171875,-0.7052001953125,-0.05029296875,-0.984375,0.22705078125,0.8125,0.1875,-0.375
2.7499999999999636,-4.0,-4.0,-5.0,-23.0,-7.0,-3.0,2.0,0.0,0.54486083984375,-0.297607421875,0.34246826171875,-0.7052001953125,-0.05029296875,-0.984375,0.22705078125,0.8125,0.1875,-0.375
2.7549999999999635,-3.0,2.0,-4.0,-8.0,-5.0,-24.0,-6.0,0.0,0.54486083984375,-0.297607421875,0.34246826171875,-0.7052001953125,-0.052734375,-0.9892578125,0.22802734375,-0.3125,0.25,-0.75
2.7599999999999634,-3.0,2.0,-4.0,-8.0,-5.0,-24.0,-6.0,0.0,0.54486083984375,-0.297607421875,0.34246826171875,-0.7052001953125,-0.052734375,-0.9892578125,0.22802734375,-0.3125,0.25,-0.75
2.7649999999999633,-3.0,2.0,-4.0,-8.0,-5.0,-24.0,-6.0,0.0,0.54486083984375,-0.297607421875,0.34246826171875,-0.7052001953125,-0.052734375,-0.9892578125,0.22802734375,-0.3125,0.25,-0.75
2.769999999999963,-3.0,2.0,-4.0,-8.0,-5.0,-24.0,-6.0,0.0,0.54486083984375,-0.297607421875,0.34246826171875,-0.7052001953125,-0.052734375,-0.9892578125,0.22802734375,-0.3125,0.25,-0.75
2.774999999999963,0.0,-1.0,0.0,1.0,-4.0,7.0,-2.0,-1.0,0.54486083984375,-0.297607421875,0.34246826171875,-0.7052001953125,-0.04833984375,-0.974609375,0.2294921875,0.75,0.0625,-0.75
2.779999999999963,0.0,-1.0,0.0,1.0,-4.0,7.0,-2.0,-1.0,0.54486083984375,-0.297607421875,0.34246826171875,-0.7052001953125,-0.04833984375,-0.974609375,0.2294921875,0.75,0.0625,-0.75
2.784999999999963,0.0,0.0,0.0,3.0,-5.0,14.0,3.0,-1.0,0.54486083984375,-0.297607421875,0.34246826171875,-0.7052001953125,-0.04833984375,-0.974609375,0.2294921875,0.75,0.0625,-0.75
2.7899999999999627,0.0,0.0,0.0,3.0,-5.0,14.0,3.0,-1.0,0.54486083984375,-0.297607421875,0.34246826171875,-0.7052001953125,-0.04833984375,-0.974609375,0.2294921875,0.75,0.0625,-0.75
2.7949999999999626,0.0,0.0,0.0,3.0,-5.0,14.0,3.0,-1.0,0.54486083984375,-0.297607421875,0.34246826171875,-0.7052001953125,-0.04833984375,-0.974609375,0.2294921875,0.75,0.0625,-0.75
2.7999999999999625,0.0,0.0,0.0,3.0,-5.0,14.0,3.0,-1.0,0.54486083984375,-0.297607421875,0.34246826171875,-0.7052001953125,-0.04833984375,-0.974609375,0.2294921875,0.75,0.0625,-0.75
2.8049999999999624,-2.0,-2.0,-1.0,1.0,4.0,-5.0,-1.0,-1.0,0.54486083984375,-0.297607421875,0.34246826171875,-0.7052001953125,-0.04638671875,-0.97802734375,0.2314453125,0.25,-0.8125,0.4375
2.8099999999999623,-2.0,-2.0,-1.0,1.0,4.0,-5.0,-1.0,-1.0,0.54486083984375,-0.297607421875,0.34246826171875,-0.7052001953125,-0.04638671875,-0.97802734375,0.2314453125,0.25,-0.8125,0.4375
2.814999999999962,-2.0,-2.0,-1.0,1.0,4.0,-5.0,-1.0,-1.0,0.54486083984375,-0.297607421875,0.34246826171875,-0.7052001953125,-0.04638671875,-0.97802734375,0.2314453125,0.25,-0.8125,0.4375
2.819999999999962,0.0,-2.0,0.0,17.0,6.0,1.0,1.0,1.0,0.54486083984375,-0.297607421875,0.34246826171875,-0.7052001953125,-0.04638671875,-0.97802734375,0.2314453125,0.25,-0.8125,0.4375
2.824999999999962,0.0,-2.0,0.0,17.0,6.0,1.0,1.0,1.0,0.54486083984375,-0.297607421875,0.34246826171875,-0.7052001953125,-0.04638671875,-0.97802734375,0.2314453125,0.25,-0.8125,0.4375
2.829999999999962,0.0,-2.0,0.0,17.0,6.0,1.0,1.0,1.0,0.54486083984375,-0.297607421875,0.34246826171875,-0.7052001953125,-0.04638671875,-0.97802734375,0.2314453125,0.25,-0.8125,0.4375
2.8349999999999618,0.0,0.0,0.0,5.0,5.0,8.0,-1.0,-3.0,0.5450439453125,-0.297607421875,0.34222412109375,-0.70513916015625,-0.04833984375,-0.98876953125,0.2216796875,-0.5625,-1.0625,0.5625
2.8399999999999617,0.0,0.0,0.0,5.0,5.0,8.0,-1.0,-3.0,0.5450439453125,-0.297607421875,0.34222412109375,-0.70513916015625,-0.04833984375,-0.98876953125,0.2216796875,-0.5625,-1.0625,0.5625
2.8449999999999616,0.0,0.0,0.0,5.0,5.0,8.0,-1.0,-3.0,0.5450439453125,-0.297607421875,0.34222412109375,-0.70513916015625,-0.04833984375,-0.98876953125,0.2216796875,-0.5625,-1.0625,0.5625
2.8499999999999615,0.0,0.0,0.0,5.0,5.0,8.0,-1.0,-3.0,0.5450439453125,-0.297607421875,0.34222412109375,-0.70513916015625,-0.04833984375,-0.98876953125,0.2216796875,-0.5625,-1.0625,0.5625
2.8549999999999613,-1.0,-1.0,-4.0,-9.0,-1.0,-4.0,-1.0,-2.0,0.5450439453125,-0.29766845703125,0.34222412109375,-0.70513916015625,-0.0478515625,-0.99462890625,0.22509765625,0.1875,-0.8125,-0.5625
2.8599999999999612,-1.0,-1.0,-4.0,-9.0,-1.0,-4.0,-1.0,-2.0,0.5450439453125,-0.29766845703125,0.34222412109375,-0.70513916015625,-0.0478515625,-0.99462890625,0.22509765625,0.1875,-0.8125,-0.5625
2.864999999999961,1.0,-3.0,0.0,-2.0,-4.0,18.0,0.0,-1.0,0.5450439453125,-0.29766845703125,0.34222412109375,-0.70513916015625,-0.0478515625,-0.99462890625,0.22509765625,0.1875,-0.8125,-0.5625
2.869999999999961,1.0,-3.0,0.0,-2.0,-4.0,18.0,0.0,-1.0,0.5450439453125,-0.29766845703125,0.34222412109375,-0.70513916015625,-0.0478515625,-0.99462890625,0.22509765625,0.1875,-0.8125,-0.5625
2.874999999999961,1.0,-3.0,0.0,-2.0,-4.0,18.0,0.0,-1.0,0.5450439453125,-0.29766845703125,0.34222412109375,-0.70513916015625,-0.0478515625,-0.99462890625,0.22509765625,0.1875,-0.8125,-0.5625
2.879999999999961,1.0,-3.0,0.0,-2.0,-4.0,18.0,0.0,-1.0,0.5450439453125,-0.29766845703125,0.34222412109375,-0.70513916015625,-0.0478515625,-0.99462890625,0.22509765625,0.1875,-0.8125,-0.5625
2.8849999999999607,-1.0,-1.0,1.0,12.0,0.0,5.0,-2.0,-2.0,0.54486083984375,-0.29742431640625,0.3424072265625,-0.70526123046875,-0.052734375,-0.99072265625,0.224609375,2.4375,-0.25,-1.25
2.8899999999999606,-1.0,-1.0,1.0,12.0,0.0,5.0,-2.0,-2.0,0.54486083984375,-0.29742431640625,0.3424072265625,-0.70526123046875,-0.052734375,-0.99072265625,0.224609375,2.4375,-0.25,-1.25
2.8949999999999605,-1.0,-1.0,1.0,12.0,0.0,5.0,-2.0,-2.0,0.54486083984375,-0.29742431640625,0.3424072265625,-0.70526123046875,-0.052734375,-0.99072265625,0.224609375,2.4375,-0.25,-1.25
2.8999999999999604,-1.0,-1.0,1.0,12.0,0.0,5.0,-2.0,-2.0,0.54486083984375,-0.29742431640625,0.3424072265625,-0.70526123046875,-0.052734375,-0.99072265625,0.224609375,2.4375,-0.25,-1.25
2.9049999999999603,-2.0,-2.0,-1.0,-6.0,1.0,6.0,-1.0,-2.0,0.54486083984375,-0.29742431640625,0.3424072265625,-0.70526123046875,-0.052734375,-0.99072265625,0.224609375,2.4375,-0.25,-1.25
2.90999999999996,-2.0,-2.0,-1.0,-6.0,1.0,6.0,-1.0,-2.0,0.54486083984375,-0.29742431640625,0.3424072265625,-0.70526123046875,-0.052734375,-0.99072265625,0.224609375,2.4375,-0.25,-1.25
2.91499999999996,-2.0,-1.0,-3.0,-12.0,-16.0,-7.0,3.0,0.0,0.5447998046875,-0.2972412109375,0.34259033203125,-0.705322265625,-0.05029296875,-0.970703125,0.22412109375,1.375,-0.5,-1.5
2.91999999999996,-2.0,-1.0,-3.0,-12.0,-16.0,-7.0,3.0,0.0,0.5447998046875,-0.2972412109375,0.34259033203125,-0.705322265625,-0.05029296875,-0.970703125,0.22412109375,1.375,-0.5,-1.5
2.92499999999996,-2.0,-1.0,-3.0,-12.0,-16.0,-7.0,3.0,0.0,0.5447998046875,-0.2972412109375,0.34259033203125,-0.705322265625,-0.05029296875,-0.970703125,0.22412109375,1.375,-0.5,-1.5
2.9299999999999597,-2.0,-1.0,-3.0,-12.0,-16.0,-7.0,3.0,0.0,0.5447998046875,-0.2972412109375,0.34259033203125,-0.705322265625,-0.05029296875,-0.970703125,0.22412109375,1.375,-0.5,-1.5
2.9349999999999596,-2.0,-1.0,-1.0,-4.0,-2.0,-8.0,-2.0,0.0,0.5447998046875,-0.2972412109375,0.34259033203125,-0.705322265625,-0.04931640625,-0.98193359375,0.2275390625,0.4375,-0.875,-0.5625
2.9399999999999595,-2.0,-1.0,-1.0,-4.0,-2.0,-8.0,-2.0,0.0,0.5447998046875,-0.2972412109375,0.34259033203125,-0.705322265625,-0.04931640625,-0.98193359375,0.2275390625,0.4375,-0.875,-0.5625
2.9449999999999594,0.0,-1.0,-10.0,-28.0,-6.0,-6.0,-1.0,-2.0,0.5447998046875,-0.2972412109375,0.34259033203125,-0.705322265625,-0.04931640625,-0.98193359375,0.2275390625,0.4375,-0.875,-0.5625
2.9499999999999593,0.0,-1.0,-10.0,-28.0,-6.0,-6.0,-1.0,-2.0,0.5447998046875,-0.2972412109375,0.34259033203125,-0.705322265625,-0.04931640625,-0.98193359375,0.2275390625,0.4375,-0.875,-0.5625
2.954999999999959,0.0,-1.0,-10.0,-28.0,-6.0,-6.0,-1.0,-2.0,0.5447998046875,-0.2972412109375,0.34259033203125,-0.705322265625,-0.04931640625,-0.98193359375,0.2275390625,0.4375,-0.875,-0.5625
2.959999999999959,0.0,-1.0,-10.0,-28.0,-6.0,-6.0,-1.0,-2.0,0.5447998046875,-0.2972412109375,0.34259033203125,-0.705322265625,-0.04931640625,-0.98193359375,0.2275390625,0.4375,-0.875,-0.5625
2.964999999999959,-3.0,-1.0,-1.0,4.0,2.0,4.0,1.0,-2.0,0.5447998046875,-0.2972412109375,0.34259033203125,-0.705322265625,-0.044921875,-0.98681640625,0.2314453125,0.25,-0.75,-0.125
2.969999999999959,-3.0,-1.0,-1.0,4.0,2.0,4.0,1.0,-2.0,0.5447998046875,-0.2972412109375,0.34259033203125,-0.705322265625,-0.044921875,-0.98681640625,0.2314453125,0.25,-0.75,-0.125
2.974999999999959,-3.0,-1.0,-1.0,4.0,2.0,4.0,1.0,-2.0,0.5447998046875,-0.2972412109375,0.34259033203125,-0.705322265625,-0.044921875,-0.98681640625,0.2314453125,0.25,-0.75,-0.125
2.9799999999999587,-3.0,-1.0,-1.0,4.0,2.0,4.0,1.0,-2.0,0.5447998046875,-0.2972412109375,0.34259033203125,-0.705322265625,-0.044921875,-0.98681640625,0.2314453125,0.25,-0.75,-0.125
2.9849999999999586,-3.0,-2.0,-2.0,7.0,0.0,-11.0,-6.0,-2.0,0.5447998046875,-0.2972412109375,0.34259033203125,-0.705322265625,-0.044921875,-0.98681640625,0.2314453125,0.25,-0.75,-0.125
2.9899999999999585,-3.0,-2.0,-2.0,7.0,0.0,-11.0,-6.0,-2.0,0.5447998046875,-0.2972412109375,0.34259033203125,-0.705322265625,-0.044921875,-0.98681640625,0.2314453125,0.25,-0.75,-0.125
2.9949999999999584,1.0,-1.0,2.0,9.0,3.0,1.0,-2.0,0.0,0.5447998046875,-0.2972412109375,0.34259033203125,-0.705322265625,-0.04638671875,-0.98095703125,0.22314453125,0.875,-0.4375,0.375
2.9999999999999583,1.0,-1.0,2.0,9.0,3.0,1.0,-2.0,0.0,0.5447998046875,-0.2972412109375,0.34259033203125,-0.705322265625,-0.04638671875,-0.98095703125,0.22314453125,0.875,-0.4375,0.375
3.004999999999958,1.0,-1.0,2.0,9.0,3.0,1.0,-2.0,0.0,0.5447998046875,-0.2972412109375,0.34259033203125,-0.705322265625,-0.04638671875,-0.98095703125,0.22314453125,0.875,-0.4375,0.375
3.009999999999958,1.0,-1.0,2.0,9.0,3.0,1.0,-2.0,0.0,0.5447998046875,-0.2972412109375,0.34259033203125,-0.705322265625,-0.04638671875,-0.98095703125,0.22314453125,0.875,-0.4375,0.375
3.014999999999958,0.0,0.0,-1.0,3.0,-1.0,15.0,4.0,2.0,0.544677734375,-0.29730224609375,0.34246826171875,-0.70550537109375,-0.04833984375,-0.98046875,0.2294921875,0.9375,-0.25,1.0625
3.019999999999958,-2.0,-3.0,0.0,14.0,-7.0,0.0,1.0,-2.0,0.544677734375,-0.29730224609375,0.34246826171875,-0.70550537109375,-0.04833984375,-0.98046875,0.2294921875,0.9375,-0.25,1.0625
3.0249999999999577,-2.0,-3.0,0.0,14.0,-7.0,0.0,1.0,-2.0,0.544677734375,-0.29730224609375,0.34246826171875,-0.70550537109375,-0.04833984375,-0.98046875,0.2294921875,0.9375,-0.25,1.0625
3.0299999999999576,-2.0,-3.0,0.0,14.0,-7.0,0.0,1.0,-2.0,0.544677734375,-0.29730224609375,0.34246826171875,-0.70550537109375,-0.04833984375,-0.98046875,0.2294921875,0.9375,-0.25,1.0625
3.0349999999999575,-2.0,-3.0,0.0,14.0,-7.0,0.0,1.0,-2.0,0.544677734375,-0.29730224609375,0.34246826171875,-0.70550537109375,-0.04833984375,-0.98046875,0.2294921875,0.9375,-0.25,1.0625
3.0399999999999574,0.0,-1.0,2.0,11.0,4.0,2.0,1.0,1.0,0.54473876953125,-0.2974853515625,0.3421630859375,-0.7054443359375,-0.052734375,-0.98583984375,0.22412109375,-0.75,-0.3125,1.0625
3.0449999999999573,0.0,-1.0,2.0,11.0,4.0,2.0,1.0,1.0,0.54473876953125,-0.2974853515625,0.3421630859375,-0.7054443359375,-0.052734375,-0.98583984375,0.22412109375,-0.75,-0.3125,1.0625
3.049999999999957,0.0,-1.0,2.0,11.0,4.0,2.0,1.0,1.0,0.54473876953125,-0.2974853515625,0.3421630859375,-0.7054443359375,-0.052734375,-0.98583984375,0.22412109375,-0.75,-0.3125,1.0625
3.054999999999957,-1.0,-3.0,-2.0,-11.0,-13.0,5.0,1.0,-1.0,0.54473876953125,-0.2974853515625,0.3421630859375,-0.7054443359375,-0.052734375,-0.98583984375,0.22412109375,-0.75,-0.3125,1.0625
3.059999999999957,-1.0,-3.0,-2.0,-11.0,-13.0,5.0,1.0,-1.0,0.54473876953125,-0.2974853515625,0.3421630859375,-0.7054443359375,-0.052734375,-0.98583984375,0.22412109375,-0.75,-0.3125,1.0625
3.064999999999957,-1.0,-3.0,-2.0,-11.0,-13.0,5.0,1.0,-1.0,0.5447998046875,-0.297607421875,0.34197998046875,-0.70550537109375,-0.04931640625,-0.994140625,0.2314453125,-0.5,-0.3125,1.1875
3.0699999999999568,-1.0,-1.0,0.0,-6.0,0.0,-14.0,-6.0,-1.0,0.5447998046875,-0.297607421875,0.34197998046875,-0.70550537109375,-0.04931640625,-0.994140625,0.2314453125,-0.5,-0.3125,1.1875
3.0749999999999567,-1.0,-1.0,0.0,-6.0,0.0,-14.0,-6.0,-1.0,0.5447998046875,-0.297607421875,0.34197998046875,-0.70550537109375,-0.04931640625,-0.994140625,0.2314453125,-0.5,-0.3125,1.1875
3.0799999999999566,-1.0,-1.0,0.0,-6.0,0.0,-14.0,-6.0,-1.0,0.5447998046875,-0.297607421875,0.34197998046875,-0.70550537109375,-0.04931640625,-0.994140625,0.2314453125,-0.5,-0.3125,1.1875
3.0849999999999564,-1.0,-3.0,-4.0,-2.0,1.0,-4.0,-3.0,-2.0,0.54461669921875,-0.297607421875,0.341796875,-0.7056884765625,-0.04541015625,-0.98291015625,0.23291015625,0.875,-0.375,1.5
3.0899999999999563,-1.0,-3.0,-4.0,-2.0,1.0,-4.0,-3.0,-2.0,0.54461669921875,-0.297607421875,0.341796875,-0.7056884765625,-0.04541015625,-0.98291015625,0.23291015625,0.875,-0.375,1.5
3.0949999999999562,1.0,-1.0,0.0,-3.0,1.0,10.0,3.0,1.0,0.54461669921875,-0.297607421875,0.341796875,-0.7056884765625,-0.04541015625,-0.98291015625,0.23291015625,0.875,-0.375,1.5
3.099999999999956,1.0,-1.0,0.0,-3.0,1.0,10.0,3.0,1.0,0.54461669921875,-0.297607421875,0.341796875,-0.7056884765625,-0.04541015625,-0.98291015625,0.23291015625,0.875,-0.375,1.5
3.104999999999956,1.0,-1.0,0.0,-3.0,1.0,10.0,3.0,1.0,0.54461669921875,-0.297607421875,0.341796875,-0.7056884765625,-0.04541015625,-0.98291015625,0.23291015625,0.875,-0.375,1.5
3.109999999999956,-2.0,-3.0,-1.0,-15.0,0.0,5.0,-2.0,-3.0,0.54449462890625,-0.29766845703125,0.3416748046875,-0.70587158203125,-0.046875,-0.9814453125,0.2333984375,0.6875,-0.5,1.4375
3.114999999999956,-1.0,-2.0,-2.0,-3.0,5.0,2.0,0.0,-1.0,0.54449462890625,-0.29766845703125,0.3416748046875,-0.70587158203125,-0.046875,-0.9814453125,0.2333984375,0.6875,-0.5,1.4375
3.1199999999999557,-1.0,-2.0,-2.0,-3.0,5.0,2.0,0.0,-1.0,0.54449462890625,-0.29766845703125,0.3416748046875,-0.70587158203125,-0.046875,-0.9814453125,0.2333984375,0.6875,-0.5,1.4375
3.1249999999999556,-1.0,-2.0,-2.0,-3.0,5.0,2.0,0.0,-1.0,0.54449462890625,-0.29766845703125,0.3416748046875,-0.70587158203125,-0.046875,-0.9814453125,0.2333984375,0.6875,-0.5,1.4375
3.1299999999999555,-1.0,-2.0,-2.0,-3.0,5.0,2.0,0.0,-1.0,0.54449462890625,-0.29766845703125,0.3416748046875,-0.70587158203125,-0.046875,-0.9814453125,0.2333984375,0.6875,-0.5,1.4375
3.1349999999999554,-2.0,0.0,0.0,18.0,-5.0,-18.0,0.0,-1.0,0.54443359375,-0.29766845703125,0.3414306640625,-0.70599365234375,-0.0498046875,-0.97998046875,0.2294921875,0.3125,-0.5625,1.3125
3.1399999999999553,-1.0,-2.0,-1.0,-3.0,1.0,9.0,-3.0,-2.0,0.54443359375,-0.29766845703125,0.3414306640625,-0.70599365234375,-0.0498046875,-0.97998046875,0.2294921875,0.3125,-0.5625,1.3125
3.144999999999955,-1.0,-2.0,-1.0,-3.0,1.0,9.0,-3.0,-2.0,0.54443359375,-0.29766845703125,0.3414306640625,-0.70599365234375,-0.0498046875,-0.97998046875,0.2294921875,0.3125,-0.5625,1.3125
3.149999999999955,-1.0,-2.0,-1.0,-3.0,1.0,9.0,-3.0,-2.0,0.54443359375,-0.29766845703125,0.3414306640625,-0.70599365234375,-0.0498046875,-0.97998046875,0.2294921875,0.3125,-0.5625,1.3125
3.154999999999955,-1.0,-1.0,-2.0,14.0,-1.0,13.0,1.0,0.0,0.54443359375,-0.2977294921875,0.3414306640625,-0.70599365234375,-0.048828125,-0.98291015625,0.2265625,0.375,-0.3125,0.6875
3.159999999999955,-1.0,-3.0,-1.0,15.0,-5.0,-32.0,-8.0,-5.0,0.54443359375,-0.2977294921875,0.3414306640625,-0.70599365234375,-0.048828125,-0.98291015625,0.2265625,0.375,-0.3125,0.6875
3.1649999999999547,-1.0,-3.0,-1.0,15.0,-5.0,-32.0,-8.0,-5.0,0.54443359375,-0.2977294921875,0.3414306640625,-0.70599365234375,-0.048828125,-0.98291015625,0.2265625,0.375,-0.3125,0.6875
3.1699999999999546,-1.0,-3.0,-1.0,15.0,-5.0,-32.0,-8.0,-5.0,0.54443359375,-0.2977294921875,0.3414306640625,-0.70599365234375,-0.048828125,-0.98291015625,0.2265625,0.375,-0.3125,0.6875
3.1749999999999545,-2.0,-3.0,-2.0,10.0,-5.0,2.0,-1.0,-1.0,0.54443359375,-0.2977294921875,0.3414306640625,-0.70599365234375,-0.0458984375,-0.978515625,0.22802734375,0.6875,-0.375,0.25
3.1799999999999544,-2.0,-3.0,-2.0,10.0,-5.0,2.0,-1.0,-1.0,0.54443359375,-0.2977294921875,0.3414306640625,-0.70599365234375,-0.0458984375,-0.978515625,0.22802734375,0.6875,-0.375,0.25
3.1849999999999543,-3.0,-3.0,-3.0,-3.0,-7.0,0.0,1.0,-2.0,0.54443359375,-0.2977294921875,0.3414306640625,-0.70599365234375,-0.0458984375,-0.978515625,0.22802734375,0.6875,-0.375,0.25
3.189999999999954,-3.0,-3.0,-3.0,-3.0,-7.0,0.0,1.0,-2.0,0.54443359375,-0.2977294921875,0.3414306640625,-0.70599365234375,-0.04931640625,-0.98291015625,0.228515625,0.25,-0.3125,0.125
3.194999999999954,-1.0,0.0,-6.0,-30.0,1.0,2.0,2.0,0.0,0.54443359375,-0.2977294921875,0.3414306640625,-0.70599365234375,-0.04931640625,-0.98291015625,0.228515625,0.25,-0.3125,0.125
3.199999999999954,-1.0,0.0,-6.0,-30.0,1.0,2.0,2.0,0.0,0.54443359375,-0.2977294921875,0.3414306640625,-0.70599365234375,-0.04931640625,-0.98291015625,0.228515625,0.25,-0.3125,0.125
3.204999999999954,-1.0,0.0,-6.0,-30.0,1.0,2.0,2.0,0.0,0.54443359375,-0.2977294921875,0.3414306640625,-0.70599365234375,-0.04931640625,-0.98291015625,0.228515625,0.25,-0.3125,0.125
3.209999999999954,0.0,0.0,2.0,10.0,2.0,3.0,0.0,-1.0,0.54443359375,-0.2977294921875,0.3414306640625,-0.70599365234375,-0.05029296875,-0.9814453125,0.23046875,0.125,0.0625,-0.1875
3.2149999999999537,0.0,0.0,2.0,10.0,2.0,3.0,0.0,-1.0,0.54443359375,-0.2977294921875,0.3414306640625,-0.70599365234375,-0.05029296875,-0.9814453125,0.23046875,0.125,0.0625,-0.1875
3.2199999999999536,0.0,1.0,1.0,5.0,-1.0,0.0,-3.0,0.0,0.54443359375,-0.2977294921875,0.3414306640625,-0.70599365234375,-0.05029296875,-0.9814453125,0.23046875,0.125,0.0625,-0.1875
3.2249999999999535,0.0,1.0,1.0,5.0,-1.0,0.0,-3.0,0.0,0.54443359375,-0.2977294921875,0.3414306640625,-0.70599365234375,-0.05029296875,-0.9814453125,0.23046875,0.125,0.0625,-0.1875
3.2299999999999534,0.0,1.0,1.0,5.0,-1.0,0.0,-3.0,0.0,0.54443359375,-0.2977294921875,0.3414306640625,-0.70599365234375,-0.05029296875,-0.9814453125,0.23046875,0.125,0.0625,-0.1875
3.2349999999999532,-3.0,0.0,-2.0,-5.0,-5.0,2.0,-1.0,-1.0,0.5443115234375,-0.29754638671875,0.34149169921875,-0.70611572265625,-0.05126953125,-0.9833984375,0.23388671875,1.25,-0.4375,-0.5
3.239999999999953,-3.0,0.0,-2.0,-5.0,-5.0,2.0,-1.0,-1.0,0.5443115234375,-0.29754638671875,0.34149169921875,-0.70611572265625,-0.05126953125,-0.9833984375,0.23388671875,1.25,-0.4375,-0.5
3.244999999999953,-3.0,0.0,-2.0,-5.0,-5.0,2.0,-1.0,-1.0,0.5443115234375,-0.29754638671875,0.34149169921875,-0.70611572265625,-0.05126953125,-0.9833984375,0.23388671875,1.25,-0.4375,-0.5
3.249999999999953,-1.0,-2.0,-1.0,3.0,2.0,1.0,-1.0,-2.0,0.5443115234375,-0.29754638671875,0.34149169921875,-0.70611572265625,-0.05126953125,-0.9833984375,0.23388671875,1.25,-0.4375,-0.5
3.254999999999953,-1.0,-2.0,-1.0,3.0,2.0,1.0,-1.0,-2.0,0.5443115234375,-0.29754638671875,0.34149169921875,-0.70611572265625,-0.05126953125,-0.9833984375,0.23388671875,1.25,-0.4375,-0.5
3.2599999999999527,-1.0,-2.0,-1.0,3.0,2.0,1.0,-1.0,-2.0,0.5443115234375,-0.29754638671875,0.34149169921875,-0.70611572265625,-0.052734375,-0.97216796875,0.23388671875,0.6875,-0.4375,-0.6875
3.2649999999999526,-1.0,-1.0,-2.0,4.0,-3.0,-11.0,-3.0,-1.0,0.5443115234375,-0.29754638671875,0.34149169921875,-0.70611572265625,-0.052734375,-0.97216796875,0.23388671875,0.6875,-0.4375,-0.6875
3.2699999999999525,-1.0,-1.0,-2.0,4.0,-3.0,-11.0,-3.0,-1.0,0.5443115234375,-0.29754638671875,0.34149169921875,-0.70611572265625,-0.052734375,-0.97216796875,0.23388671875,0.6875,-0.4375,-0.6875
3.2749999999999524,-1.0,-1.0,-2.0,4.0,-3.0,-11.0,-3.0,-1.0,0.5443115234375,-0.29754638671875,0.34149169921875,-0.70611572265625,-0.052734375,-0.97216796875,0.23388671875,0.6875,-0.4375,-0.6875
