1.000000000000000021e-02,1.000000000000000000e+00,2.000000000000000000e+00,8.000000000000000000e+00,1.000000000000000000e+00,-1.000000000000000000e+01,-4.000000000000000000e+00,-4.000000000000000000e+00,0.000000000000000000e+00,2.830810546875000000e-01,4.486083984375000000e-01,-7.122192382812500000e-01,-4.597778320312500000e-01,-4.736328125000000000e-02,-9.428710937500000000e-01,4.902343750000000000e-01,3.375000000000000000e+00,1.437500000000000000e+00,-5.000000000000000000e+00
1.499999999999999944e-02,0.000000000000000000e+00,-4.000000000000000000e+00,-6.000000000000000000e+00,-7.000000000000000000e+00,-5.000000000000000000e+00,-1.700000000000000000e+01,2.000000000000000000e+00,-2.000000000000000000e+00,2.830810546875000000e-01,4.486083984375000000e-01,-7.122192382812500000e-01,-4.597778320312500000e-01,-4.736328125000000000e-02,-9.428710937500000000e-01,4.902343750000000000e-01,3.375000000000000000e+00,1.437500000000000000e+00,-5.000000000000000000e+00
2.000000000000000042e-02,0.000000000000000000e+00,-4.000000000000000000e+00,-6.000000000000000000e+00,-7.000000000000000000e+00,-5.000000000000000000e+00,-1.700000000000000000e+01,2.000000000000000000e+00,-2.000000000000000000e+00,2.830810546875000000e-01,4.486083984375000000e-01,-7.122192382812500000e-01,-4.597778320312500000e-01,-4.736328125000000000e-02,-9.428710937500000000e-01,4.902343750000000000e-01,3.375000000000000000e+00,1.437500000000000000e+00,-5.000000000000000000e+00
2.500000000000000139e-02,1.000000000000000000e+00,1.000000000000000000e+00,2.000000000000000000e+00,-1.500000000000000000e+01,2.000000000000000000e+00,-3.000000000000000000e+00,1.000000000000000000e+00,0.000000000000000000e+00,2.830810546875000000e-01,4.486083984375000000e-01,-7.122192382812500000e-01,-4.597778320312500000e-01,-4.736328125000000000e-02,-9.428710937500000000e-01,4.902343750000000000e-01,3.375000000000000000e+00,1.437500000000000000e+00,-5.000000000000000000e+00
2.999999999999999889e-02,1.000000000000000000e+00,1.000000000000000000e+00,2.000000000000000000e+00,-1.500000000000000000e+01,2.000000000000000000e+00,-3.000000000000000000e+00,1.000000000000000000e+00,0.000000000000000000e+00,2.830810546875000000e-01,4.486083984375000000e-01,-7.122192382812500000e-01,-4.597778320312500000e-01,-4.736328125000000000e-02,-9.428710937500000000e-01,4.902343750000000000e-01,3.375000000000000000e+00,1.437500000000000000e+00,-5.000000000000000000e+00
3.500000000000000333e-02,1.000000000000000000e+00,1.000000000000000000e+00,2.000000000000000000e+00,-1.500000000000000000e+01,2.000000000000000000e+00,-3.000000000000000000e+00,1.000000000000000000e+00,0.000000000000000000e+00,2.828979492187500000e-01,4.477539062500000000e-01,-7.125854492187500000e-01,-4.601440429687500000e-01,-4.638671875000000000e-02,-9.492187500000000000e-01,4.877929687500000000e-01,4.062500000000000000e+00,3.125000000000000000e-01,-3.250000000000000000e+00
4.000000000000000083e-02,1.000000000000000000e+00,1.000000000000000000e+00,2.000000000000000000e+00,-1.500000000000000000e+01,2.000000000000000000e+00,-3.000000000000000000e+00,1.000000000000000000e+00,0.000000000000000000e+00,2.828979492187500000e-01,4.477539062500000000e-01,-7.125854492187500000e-01,-4.601440429687500000e-01,-4.638671875000000000e-02,-9.492187500000000000e-01,4.877929687500000000e-01,4.062500000000000000e+00,3.125000000000000000e-01,-3.250000000000000000e+00
4.499999999999999833e-02,-4.000000000000000000e+00,-3.000000000000000000e+00,-2.000000000000000000e+00,-1.100000000000000000e+01,4.000000000000000000e+00,-4.000000000000000000e+00,-3.000000000000000000e+00,-3.000000000000000000e+00,2.828979492187500000e-01,4.477539062500000000e-01,-7.125854492187500000e-01,-4.601440429687500000e-01,-4.638671875000000000e-02,-9.492187500000000000e-01,4.877929687500000000e-01,4.062500000000000000e+00,3.125000000000000000e-01,-3.250000000000000000e+00
4.999999999999989869e-02,-4.000000000000000000e+00,-3.000000000000000000e+00,-2.000000000000000000e+00,-1.100000000000000000e+01,4.000000000000000000e+00,-4.000000000000000000e+00,-3.000000000000000000e+00,-3.000000000000000000e+00,2.828979492187500000e-01,4.477539062500000000e-01,-7.125854492187500000e-01,-4.601440429687500000e-01,-4.638671875000000000e-02,-9.492187500000000000e-01,4.877929687500000000e-01,4.062500000000000000e+00,3.125000000000000000e-01,-3.250000000000000000e+00
5.499999999999990313e-02,-2.000000000000000000e+00,-4.000000000000000000e+00,-5.000000000000000000e+00,3.000000000000000000e+00,1.000000000000000000e+00,-3.000000000000000000e+00,-3.000000000000000000e+00,-3.000000000000000000e+00,2.829589843750000000e-01,4.466552734375000000e-01,-7.133178710937500000e-01,-4.600830078125000000e-01,-5.175781250000000000e-02,-9.331054687500000000e-01,4.702148437500000000e-01,5.187500000000000000e+00,-1.250000000000000000e-01,5.000000000000000000e-01
5.999999999999990064e-02,0.000000000000000000e+00,2.000000000000000000e+00,1.000000000000000000e+00,-1.300000000000000000e+01,-1.000000000000000000e+00,-4.000000000000000000e+00,-4.000000000000000000e+00,0.000000000000000000e+00,2.829589843750000000e-01,4.466552734375000000e-01,-7.133178710937500000e-01,-4.600830078125000000e-01,-5.175781250000000000e-02,-9.331054687500000000e-01,4.702148437500000000e-01,5.187500000000000000e+00,-1.250000000000000000e-01,5.000000000000000000e-01
6.499999999999990508e-02,0.000000000000000000e+00,2.000000000000000000e+00,1.000000000000000000e+00,-1.300000000000000000e+01,-1.000000000000000000e+00,-4.000000000000000000e+00,-4.000000000000000000e+00,0.000000000000000000e+00,2.829589843750000000e-01,4.466552734375000000e-01,-7.133178710937500000e-01,-4.600830078125000000e-01,-5.175781250000000000e-02,-9.331054687500000000e-01,4.702148437500000000e-01,5.187500000000000000e+00,-1.250000000000000000e-01,5.000000000000000000e-01
6.999999999999989564e-02,2.000000000000000000e+00,1.000000000000000000e+00,1.000000000000000000e+00,2.500000000000000000e+01,-1.000000000000000000e+00,-1.600000000000000000e+01,-5.000000000000000000e+00,2.000000000000000000e+00,2.829589843750000000e-01,4.466552734375000000e-01,-7.133178710937500000e-01,-4.600830078125000000e-01,-5.175781250000000000e-02,-9.331054687500000000e-01,4.702148437500000000e-01,5.187500000000000000e+00,-1.250000000000000000e-01,5.000000000000000000e-01
7.499999999999999722e-02,2.000000000000000000e+00,1.000000000000000000e+00,1.000000000000000000e+00,2.500000000000000000e+01,-1.000000000000000000e+00,-1.600000000000000000e+01,-5.000000000000000000e+00,2.000000000000000000e+00,2.829589843750000000e-01,4.466552734375000000e-01,-7.133178710937500000e-01,-4.600830078125000000e-01,-5.175781250000000000e-02,-9.331054687500000000e-01,4.702148437500000000e-01,5.187500000000000000e+00,-1.250000000000000000e-01,5.000000000000000000e-01
8.000000000000000167e-02,2.000000000000000000e+00,1.000000000000000000e+00,1.000000000000000000e+00,2.500000000000000000e+01,-1.000000000000000000e+00,-1.600000000000000000e+01,-5.000000000000000000e+00,2.000000000000000000e+00,2.833251953125000000e-01,4.453125000000000000e-01,-7.144775390625000000e-01,-4.594116210937500000e-01,-5.615234375000000000e-02,-9.218750000000000000e-01,4.575195312500000000e-01,6.125000000000000000e+00,-5.625000000000000000e-01,5.000000000000000000e+00
8.500000000000000611e-02,2.000000000000000000e+00,1.000000000000000000e+00,1.000000000000000000e+00,2.500000000000000000e+01,-1.000000000000000000e+00,-1.600000000000000000e+01,-5.000000000000000000e+00,2.000000000000000000e+00,2.833251953125000000e-01,4.453125000000000000e-01,-7.144775390625000000e-01,-4.594116210937500000e-01,-5.615234375000000000e-02,-9.218750000000000000e-01,4.575195312500000000e-01,6.125000000000000000e+00,-5.625000000000000000e-01,5.000000000000000000e+00
8.999999999999999667e-02,-3.000000000000000000e+00,-3.000000000000000000e+00,-7.000000000000000000e+00,6.000000000000000000e+00,-7.000000000000000000e+00,1.100000000000000000e+01,1.000000000000000000e+00,-1.000000000000000000e+00,2.833251953125000000e-01,4.453125000000000000e-01,-7.144775390625000000e-01,-4.594116210937500000e-01,-5.615234375000000000e-02,-9.218750000000000000e-01,4.575195312500000000e-01,6.125000000000000000e+00,-5.625000000000000000e-01,5.000000000000000000e+00
9.500000000000000111e-02,-3.000000000000000000e+00,-3.000000000000000000e+00,-7.000000000000000000e+00,6.000000000000000000e+00,-7.000000000000000000e+00,1.100000000000000000e+01,1.000000000000000000e+00,-1.000000000000000000e+00,2.833251953125000000e-01,4.453125000000000000e-01,-7.144775390625000000e-01,-4.594116210937500000e-01,-5.615234375000000000e-02,-9.218750000000000000e-01,4.575195312500000000e-01,6.125000000000000000e+00,-5.625000000000000000e-01,5.000000000000000000e+00
1.000000000000000056e-01,-3.000000000000000000e+00,-1.000000000000000000e+00,-8.000000000000000000e+00,-8.000000000000000000e+00,6.000000000000000000e+00,-4.000000000000000000e+00,2.000000000000000000e+00,0.000000000000000000e+00,2.833251953125000000e-01,4.453125000000000000e-01,-7.144775390625000000e-01,-4.594116210937500000e-01,-5.615234375000000000e-02,-9.218750000000000000e-01,4.575195312500000000e-01,6.125000000000000000e+00,-5.625000000000000000e-01,5.000000000000000000e+00
1.049999999999999961e-01,-3.000000000000000000e+00,-1.000000000000000000e+00,-8.000000000000000000e+00,-8.000000000000000000e+00,6.000000000000000000e+00,-4.000000000000000000e+00,2.000000000000000000e+00,0.000000000000000000e+00,2.833251953125000000e-01,4.453125000000000000e-01,-7.144775390625000000e-01,-4.594116210937500000e-01,-5.615234375000000000e-02,-9.218750000000000000e-01,4.575195312500000000e-01,6.125000000000000000e+00,-5.625000000000000000e-01,5.000000000000000000e+00
1.100000000000000006e-01,-3.000000000000000000e+00,-1.000000000000000000e+00,-8.000000000000000000e+00,-8.000000000000000000e+00,6.000000000000000000e+00,-4.000000000000000000e+00,2.000000000000000000e+00,0.000000000000000000e+00,2.841796875000000000e-01,4.441528320312500000e-01,-7.156372070312500000e-01,-4.581298828125000000e-01,-5.615234375000000000e-02,-9.096679687500000000e-01,4.467773437500000000e-01,3.562500000000000000e+00,-2.500000000000000000e-01,8.625000000000000000e+00
1.150000000000000050e-01,-3.000000000000000000e+00,-1.000000000000000000e+00,-8.000000000000000000e+00,-8.000000000000000000e+00,6.000000000000000000e+00,-4.000000000000000000e+00,2.000000000000000000e+00,0.000000000000000000e+00,2.841796875000000000e-01,4.441528320312500000e-01,-7.156372070312500000e-01,-4.581298828125000000e-01,-5.615234375000000000e-02,-9.096679687500000000e-01,4.467773437500000000e-01,3.562500000000000000e+00,-2.500000000000000000e-01,8.625000000000000000e+00
1.199999999999999956e-01,-1.000000000000000000e+00,1.000000000000000000e+00,-3.000000000000000000e+00,-1.000000000000000000e+01,-1.200000000000000000e+01,-6.000000000000000000e+00,-1.000000000000000000e+00,0.000000000000000000e+00,2.841796875000000000e-01,4.441528320312500000e-01,-7.156372070312500000e-01,-4.581298828125000000e-01,-5.615234375000000000e-02,-9.096679687500000000e-01,4.467773437500000000e-01,3.562500000000000000e+00,-2.500000000000000000e-01,8.625000000000000000e+00
1.250000000000000000e-01,-1.000000000000000000e+00,1.000000000000000000e+00,-3.000000000000000000e+00,-1.000000000000000000e+01,-1.200000000000000000e+01,-6.000000000000000000e+00,-1.000000000000000000e+00,0.000000000000000000e+00,2.841796875000000000e-01,4.441528320312500000e-01,-7.156372070312500000e-01,-4.581298828125000000e-01,-5.615234375000000000e-02,-9.096679687500000000e-01,4.467773437500000000e-01,3.562500000000000000e+00,-2.500000000000000000e-01,8.625000000000000000e+00
1.300000000000000044e-01,-1.000000000000000000e+00,1.000000000000000000e+00,2.000000000000000000e+00,5.000000000000000000e+00,6.000000000000000000e+00,-1.600000000000000000e+01,4.000000000000000000e+00,2.000000000000000000e+00,2.852783203125000000e-01,4.427490234375000000e-01,-7.169799804687500000e-01,-4.567260742187500000e-01,-3.808593750000000000e-02,-9.194335937500000000e-01,4.458007812500000000e-01,4.375000000000000000e+00,1.125000000000000000e+00,1.231250000000000000e+01
1.350000000000000089e-01,-1.000000000000000000e+00,1.000000000000000000e+00,2.000000000000000000e+00,5.000000000000000000e+00,6.000000000000000000e+00,-1.600000000000000000e+01,4.000000000000000000e+00,2.000000000000000000e+00,2.852783203125000000e-01,4.427490234375000000e-01,-7.169799804687500000e-01,-4.567260742187500000e-01,-3.808593750000000000e-02,-9.194335937500000000e-01,4.458007812500000000e-01,4.375000000000000000e+00,1.125000000000000000e+00,1.231250000000000000e+01
1.400000000000000133e-01,-1.000000000000000000e+00,1.000000000000000000e+00,2.000000000000000000e+00,5.000000000000000000e+00,6.000000000000000000e+00,-1.600000000000000000e+01,4.000000000000000000e+00,2.000000000000000000e+00,2.852783203125000000e-01,4.427490234375000000e-01,-7.169799804687500000e-01,-4.567260742187500000e-01,-3.808593750000000000e-02,-9.194335937500000000e-01,4.458007812500000000e-01,4.375000000000000000e+00,1.125000000000000000e+00,1.231250000000000000e+01
1.449999999999999900e-01,-1.000000000000000000e+00,1.000000000000000000e+00,2.000000000000000000e+00,5.000000000000000000e+00,6.000000000000000000e+00,-1.600000000000000000e+01,4.000000000000000000e+00,2.000000000000000000e+00,2.852783203125000000e-01,4.427490234375000000e-01,-7.169799804687500000e-01,-4.567260742187500000e-01,-3.808593750000000000e-02,-9.194335937500000000e-01,4.458007812500000000e-01,4.375000000000000000e+00,1.125000000000000000e+00,1.231250000000000000e+01
1.499999999999999944e-01,-1.000000000000000000e+00,1.000000000000000000e+00,2.000000000000000000e+00,5.000000000000000000e+00,6.000000000000000000e+00,-1.600000000000000000e+01,4.000000000000000000e+00,2.000000000000000000e+00,2.852783203125000000e-01,4.427490234375000000e-01,-7.169799804687500000e-01,-4.567260742187500000e-01,-3.808593750000000000e-02,-9.194335937500000000e-01,4.458007812500000000e-01,4.375000000000000000e+00,1.125000000000000000e+00,1.231250000000000000e+01
1.549999999999999989e-01,-1.000000000000000000e+00,1.000000000000000000e+00,2.000000000000000000e+00,5.000000000000000000e+00,6.000000000000000000e+00,-1.600000000000000000e+01,4.000000000000000000e+00,2.000000000000000000e+00,2.852783203125000000e-01,4.427490234375000000e-01,-7.169799804687500000e-01,-4.567260742187500000e-01,-3.808593750000000000e-02,-9.194335937500000000e-01,4.458007812500000000e-01,4.375000000000000000e+00,1.125000000000000000e+00,1.231250000000000000e+01
1.600000000000000033e-01,2.000000000000000000e+00,2.000000000000000000e+00,3.000000000000000000e+00,-3.000000000000000000e+00,-4.000000000000000000e+00,2.000000000000000000e+00,-2.000000000000000000e+00,-1.000000000000000000e+00,2.865600585937500000e-01,4.406738281250000000e-01,-7.186889648437500000e-01,-4.551391601562500000e-01,-3.027343750000000000e-02,-8.935546875000000000e-01,4.526367187500000000e-01,6.625000000000000000e+00,3.375000000000000000e+00,1.631250000000000000e+01
1.650000000000000078e-01,-5.000000000000000000e+00,-2.000000000000000000e+00,0.000000000000000000e+00,-7.000000000000000000e+00,-7.000000000000000000e+00,-1.400000000000000000e+01,-7.000000000000000000e+00,-5.000000000000000000e+00,2.865600585937500000e-01,4.406738281250000000e-01,-7.186889648437500000e-01,-4.551391601562500000e-01,-3.027343750000000000e-02,-8.935546875000000000e-01,4.526367187500000000e-01,6.625000000000000000e+00,3.375000000000000000e+00,1.631250000000000000e+01
1.700000000000000122e-01,-5.000000000000000000e+00,-2.000000000000000000e+00,0.000000000000000000e+00,-7.000000000000000000e+00,-7.000000000000000000e+00,-1.400000000000000000e+01,-7.000000000000000000e+00,-5.000000000000000000e+00,2.865600585937500000e-01,4.406738281250000000e-01,-7.186889648437500000e-01,-4.551391601562500000e-01,-3.027343750000000000e-02,-8.935546875000000000e-01,4.526367187500000000e-01,6.625000000000000000e+00,3.375000000000000000e+00,1.631250000000000000e+01
1.749999999999999889e-01,-1.000000000000000000e+00,-2.000000000000000000e+00,1.000000000000000000e+00,-3.000000000000000000e+00,0.000000000000000000e+00,1.100000000000000000e+01,1.000000000000000000e+00,-1.000000000000000000e+00,2.865600585937500000e-01,4.406738281250000000e-01,-7.186889648437500000e-01,-4.551391601562500000e-01,-3.027343750000000000e-02,-8.935546875000000000e-01,4.526367187500000000e-01,6.625000000000000000e+00,3.375000000000000000e+00,1.631250000000000000e+01
1.799999999999999933e-01,-1.000000000000000000e+00,-2.000000000000000000e+00,1.000000000000000000e+00,-3.000000000000000000e+00,0.000000000000000000e+00,1.100000000000000000e+01,1.000000000000000000e+00,-1.000000000000000000e+00,2.865600585937500000e-01,4.406738281250000000e-01,-7.186889648437500000e-01,-4.551391601562500000e-01,-3.027343750000000000e-02,-8.935546875000000000e-01,4.526367187500000000e-01,6.625000000000000000e+00,3.375000000000000000e+00,1.631250000000000000e+01
1.849999999999999978e-01,-1.000000000000000000e+00,-2.000000000000000000e+00,1.000000000000000000e+00,-3.000000000000000000e+00,0.000000000000000000e+00,1.100000000000000000e+01,1.000000000000000000e+00,-1.000000000000000000e+00,2.883300781250000000e-01,4.384155273437500000e-01,-7.205200195312500000e-01,-4.533691406250000000e-01,-2.783203125000000000e-02,-8.930664062500000000e-01,4.594726562500000000e-01,5.750000000000000000e+00,5.312500000000000000e+00,1.975000000000000000e+01
1.900000000000000022e-01,-1.000000000000000000e+00,-2.000000000000000000e+00,1.000000000000000000e+00,-3.000000000000000000e+00,0.000000000000000000e+00,1.100000000000000000e+01,1.000000000000000000e+00,-1.000000000000000000e+00,2.883300781250000000e-01,4.384155273437500000e-01,-7.205200195312500000e-01,-4.533691406250000000e-01,-2.783203125000000000e-02,-8.930664062500000000e-01,4.594726562500000000e-01,5.750000000000000000e+00,5.312500000000000000e+00,1.975000000000000000e+01
1.950000000000000899e-01,3.000000000000000000e+00,-1.000000000000000000e+00,8.000000000000000000e+00,4.000000000000000000e+01,1.100000000000000000e+01,2.900000000000000000e+01,4.000000000000000000e+00,0.000000000000000000e+00,2.883300781250000000e-01,4.384155273437500000e-01,-7.205200195312500000e-01,-4.533691406250000000e-01,-2.783203125000000000e-02,-8.930664062500000000e-01,4.594726562500000000e-01,5.750000000000000000e+00,5.312500000000000000e+00,1.975000000000000000e+01
2.000000000000000944e-01,3.000000000000000000e+00,-1.000000000000000000e+00,8.000000000000000000e+00,4.000000000000000000e+01,1.100000000000000000e+01,2.900000000000000000e+01,4.000000000000000000e+00,0.000000000000000000e+00,2.883300781250000000e-01,4.384155273437500000e-01,-7.205200195312500000e-01,-4.533691406250000000e-01,-2.783203125000000000e-02,-8.930664062500000000e-01,4.594726562500000000e-01,5.750000000000000000e+00,5.312500000000000000e+00,1.975000000000000000e+01
2.050000000000000988e-01,0.000000000000000000e+00,-1.000000000000000000e+00,-5.000000000000000000e+00,-1.300000000000000000e+01,4.000000000000000000e+00,-5.000000000000000000e+00,2.000000000000000000e+00,0.000000000000000000e+00,2.905883789062500000e-01,4.361572265625000000e-01,-7.222900390625000000e-01,-4.512329101562500000e-01,-3.320312500000000000e-02,-8.789062500000000000e-01,4.589843750000000000e-01,3.562500000000000000e+00,6.687500000000000000e+00,2.218750000000000000e+01
2.100000000000001033e-01,0.000000000000000000e+00,-1.000000000000000000e+00,-5.000000000000000000e+00,-1.300000000000000000e+01,4.000000000000000000e+00,-5.000000000000000000e+00,2.000000000000000000e+00,0.000000000000000000e+00,2.905883789062500000e-01,4.361572265625000000e-01,-7.222900390625000000e-01,-4.512329101562500000e-01,-3.320312500000000000e-02,-8.789062500000000000e-01,4.589843750000000000e-01,3.562500000000000000e+00,6.687500000000000000e+00,2.218750000000000000e+01
2.150000000000001077e-01,0.000000000000000000e+00,-1.000000000000000000e+00,-5.000000000000000000e+00,-1.300000000000000000e+01,4.000000000000000000e+00,-5.000000000000000000e+00,2.000000000000000000e+00,0.000000000000000000e+00,2.905883789062500000e-01,4.361572265625000000e-01,-7.222900390625000000e-01,-4.512329101562500000e-01,-3.320312500000000000e-02,-8.789062500000000000e-01,4.589843750000000000e-01,3.562500000000000000e+00,6.687500000000000000e+00,2.218750000000000000e+01
2.200000000000001121e-01,0.000000000000000000e+00,-1.000000000000000000e+00,-5.000000000000000000e+00,-1.300000000000000000e+01,4.000000000000000000e+00,-5.000000000000000000e+00,2.000000000000000000e+00,0.000000000000000000e+00,2.905883789062500000e-01,4.361572265625000000e-01,-7.222900390625000000e-01,-4.512329101562500000e-01,-3.320312500000000000e-02,-8.789062500000000000e-01,4.589843750000000000e-01,3.562500000000000000e+00,6.687500000000000000e+00,2.218750000000000000e+01
2.250000000000000888e-01,-8.000000000000000000e+00,-4.000000000000000000e+00,-1.000000000000000000e+00,-8.000000000000000000e+00,8.000000000000000000e+00,0.000000000000000000e+00,-7.000000000000000000e+00,-6.000000000000000000e+00,2.905883789062500000e-01,4.361572265625000000e-01,-7.222900390625000000e-01,-4.512329101562500000e-01,-3.320312500000000000e-02,-8.789062500000000000e-01,4.589843750000000000e-01,3.562500000000000000e+00,6.687500000000000000e+00,2.218750000000000000e+01
2.300000000000000933e-01,-8.000000000000000000e+00,-4.000000000000000000e+00,-1.000000000000000000e+00,-8.000000000000000000e+00,8.000000000000000000e+00,0.000000000000000000e+00,-7.000000000000000000e+00,-6.000000000000000000e+00,2.905883789062500000e-01,4.361572265625000000e-01,-7.222900390625000000e-01,-4.512329101562500000e-01,-3.320312500000000000e-02,-8.789062500000000000e-01,4.589843750000000000e-01,3.562500000000000000e+00,6.687500000000000000e+00,2.218750000000000000e+01
2.350000000000000977e-01,-8.000000000000000000e+00,-4.000000000000000000e+00,-1.000000000000000000e+00,-8.000000000000000000e+00,8.000000000000000000e+00,0.000000000000000000e+00,-7.000000000000000000e+00,-6.000000000000000000e+00,2.930908203125000000e-01,4.342041015625000000e-01,-7.238769531250000000e-01,-4.490356445312500000e-01,-3.173828125000000000e-02,-8.764648437500000000e-01,4.526367187500000000e-01,1.000000000000000000e+00,7.375000000000000000e+00,2.268750000000000000e+01
2.400000000000001021e-01,-8.000000000000000000e+00,-4.000000000000000000e+00,-1.000000000000000000e+00,-8.000000000000000000e+00,8.000000000000000000e+00,0.000000000000000000e+00,-7.000000000000000000e+00,-6.000000000000000000e+00,2.930908203125000000e-01,4.342041015625000000e-01,-7.238769531250000000e-01,-4.490356445312500000e-01,-3.173828125000000000e-02,-8.764648437500000000e-01,4.526367187500000000e-01,1.000000000000000000e+00,7.375000000000000000e+00,2.268750000000000000e+01
2.450000000000001066e-01,1.000000000000000000e+00,-1.000000000000000000e+00,0.000000000000000000e+00,-6.000000000000000000e+00,-2.200000000000000000e+01,-2.900000000000000000e+01,-5.000000000000000000e+00,1.000000000000000000e+00,2.930908203125000000e-01,4.342041015625000000e-01,-7.238769531250000000e-01,-4.490356445312500000e-01,-3.173828125000000000e-02,-8.764648437500000000e-01,4.526367187500000000e-01,1.000000000000000000e+00,7.375000000000000000e+00,2.268750000000000000e+01
2.500000000000001110e-01,1.000000000000000000e+00,-1.000000000000000000e+00,0.000000000000000000e+00,-6.000000000000000000e+00,-2.200000000000000000e+01,-2.900000000000000000e+01,-5.000000000000000000e+00,1.000000000000000000e+00,2.930908203125000000e-01,4.342041015625000000e-01,-7.238769531250000000e-01,-4.490356445312500000e-01,-3.173828125000000000e-02,-8.764648437500000000e-01,4.526367187500000000e-01,1.000000000000000000e+00,7.375000000000000000e+00,2.268750000000000000e+01
2.550000000000001155e-01,3.000000000000000000e+00,0.000000000000000000e+00,-2.000000000000000000e+00,-6.000000000000000000e+00,7.000000000000000000e+00,2.400000000000000000e+01,3.000000000000000000e+00,2.000000000000000000e+00,2.930908203125000000e-01,4.342041015625000000e-01,-7.238769531250000000e-01,-4.490356445312500000e-01,-3.173828125000000000e-02,-8.764648437500000000e-01,4.526367187500000000e-01,1.000000000000000000e+00,7.375000000000000000e+00,2.268750000000000000e+01
2.600000000000001199e-01,3.000000000000000000e+00,0.000000000000000000e+00,-2.000000000000000000e+00,-6.000000000000000000e+00,7.000000000000000000e+00,2.400000000000000000e+01,3.000000000000000000e+00,2.000000000000000000e+00,2.930908203125000000e-01,4.342041015625000000e-01,-7.238769531250000000e-01,-4.490356445312500000e-01,-3.173828125000000000e-02,-8.764648437500000000e-01,4.526367187500000000e-01,1.000000000000000000e+00,7.375000000000000000e+00,2.268750000000000000e+01
2.650000000000001243e-01,3.000000000000000000e+00,0.000000000000000000e+00,-2.000000000000000000e+00,-6.000000000000000000e+00,7.000000000000000000e+00,2.400000000000000000e+01,3.000000000000000000e+00,2.000000000000000000e+00,2.957153320312500000e-01,4.321899414062500000e-01,-7.252197265625000000e-01,-4.470214843750000000e-01,-3.076171875000000000e-02,-8.979492187500000000e-01,4.545898437500000000e-01,1.437500000000000000e+00,9.187500000000000000e+00,2.250000000000000000e+01
2.700000000000000733e-01,-4.000000000000000000e+00,-2.000000000000000000e+00,3.000000000000000000e+00,7.000000000000000000e+00,4.000000000000000000e+00,6.000000000000000000e+00,-3.000000000000000000e+00,-3.000000000000000000e+00,2.957153320312500000e-01,4.321899414062500000e-01,-7.252197265625000000e-01,-4.470214843750000000e-01,-3.076171875000000000e-02,-8.979492187500000000e-01,4.545898437500000000e-01,1.437500000000000000e+00,9.187500000000000000e+00,2.250000000000000000e+01
2.750000000000000777e-01,-4.000000000000000000e+00,-2.000000000000000000e+00,3.000000000000000000e+00,7.000000000000000000e+00,4.000000000000000000e+00,6.000000000000000000e+00,-3.000000000000000000e+00,-3.000000000000000000e+00,2.957153320312500000e-01,4.321899414062500000e-01,-7.252197265625000000e-01,-4.470214843750000000e-01,-3.076171875000000000e-02,-8.979492187500000000e-01,4.545898437500000000e-01,1.437500000000000000e+00,9.187500000000000000e+00,2.250000000000000000e+01
2.800000000000000822e-01,-4.000000000000000000e+00,-2.000000000000000000e+00,3.000000000000000000e+00,7.000000000000000000e+00,4.000000000000000000e+00,6.000000000000000000e+00,-3.000000000000000000e+00,-3.000000000000000000e+00,2.957153320312500000e-01,4.321899414062500000e-01,-7.252197265625000000e-01,-4.470214843750000000e-01,-3.076171875000000000e-02,-8.979492187500000000e-01,4.545898437500000000e-01,1.437500000000000000e+00,9.187500000000000000e+00,2.250000000000000000e+01
2.850000000000000866e-01,0.000000000000000000e+00,-3.000000000000000000e+00,-2.000000000000000000e+00,1.900000000000000000e+01,-3.000000000000000000e+00,6.000000000000000000e+00,-4.000000000000000000e+00,0.000000000000000000e+00,2.984619140625000000e-01,4.300537109375000000e-01,-7.263183593750000000e-01,-4.454956054687500000e-01,-4.101562500000000000e-02,-9.082031250000000000e-01,4.560546875000000000e-01,2.312500000000000000e+00,1.143750000000000000e+01,2.050000000000000000e+01
2.900000000000000910e-01,0.000000000000000000e+00,-3.000000000000000000e+00,-2.000000000000000000e+00,1.900000000000000000e+01,-3.000000000000000000e+00,6.000000000000000000e+00,-4.000000000000000000e+00,0.000000000000000000e+00,2.984619140625000000e-01,4.300537109375000000e-01,-7.263183593750000000e-01,-4.454956054687500000e-01,-4.101562500000000000e-02,-9.082031250000000000e-01,4.560546875000000000e-01,2.312500000000000000e+00,1.143750000000000000e+01,2.050000000000000000e+01
2.950000000000000955e-01,0.000000000000000000e+00,-3.000000000000000000e+00,-2.000000000000000000e+00,1.900000000000000000e+01,-3.000000000000000000e+00,6.000000000000000000e+00,-4.000000000000000000e+00,0.000000000000000000e+00,2.984619140625000000e-01,4.300537109375000000e-01,-7.263183593750000000e-01,-4.454956054687500000e-01,-4.101562500000000000e-02,-9.082031250000000000e-01,4.560546875000000000e-01,2.312500000000000000e+00,1.143750000000000000e+01,2.050000000000000000e+01
3.000000000000000999e-01,-2.000000000000000000e+00,-5.000000000000000000e+00,-1.000000000000000000e+00,1.800000000000000000e+01,-4.000000000000000000e+00,-7.000000000000000000e+00,-7.000000000000000000e+00,-5.000000000000000000e+00,2.984619140625000000e-01,4.300537109375000000e-01,-7.263183593750000000e-01,-4.454956054687500000e-01,-4.101562500000000000e-02,-9.082031250000000000e-01,4.560546875000000000e-01,2.312500000000000000e+00,1.143750000000000000e+01,2.050000000000000000e+01
3.050000000000001044e-01,-2.000000000000000000e+00,-5.000000000000000000e+00,-1.000000000000000000e+00,1.800000000000000000e+01,-4.000000000000000000e+00,-7.000000000000000000e+00,-7.000000000000000000e+00,-5.000000000000000000e+00,3.010864257812500000e-01,4.277343750000000000e-01,-7.274780273437500000e-01,-4.440307617187500000e-01,-4.589843750000000000e-02,-9.233398437500000000e-01,4.560546875000000000e-01,4.125000000000000000e+00,1.168750000000000000e+01,2.006250000000000000e+01
3.100000000000001088e-01,-2.000000000000000000e+00,-5.000000000000000000e+00,-1.000000000000000000e+00,1.800000000000000000e+01,-4.000000000000000000e+00,-7.000000000000000000e+00,-7.000000000000000000e+00,-5.000000000000000000e+00,3.010864257812500000e-01,4.277343750000000000e-01,-7.274780273437500000e-01,-4.440307617187500000e-01,-4.589843750000000000e-02,-9.233398437500000000e-01,4.560546875000000000e-01,4.125000000000000000e+00,1.168750000000000000e+01,2.006250000000000000e+01
3.150000000000001132e-01,0.000000000000000000e+00,2.000000000000000000e+00,3.000000000000000000e+00,2.000000000000000000e+01,1.500000000000000000e+01,-1.000000000000000000e+00,0.000000000000000000e+00,1.000000000000000000e+00,3.010864257812500000e-01,4.277343750000000000e-01,-7.274780273437500000e-01,-4.440307617187500000e-01,-4.589843750000000000e-02,-9.233398437500000000e-01,4.560546875000000000e-01,4.125000000000000000e+00,1.168750000000000000e+01,2.006250000000000000e+01
3.200000000000001732e-01,0.000000000000000000e+00,2.000000000000000000e+00,3.000000000000000000e+00,2.000000000000000000e+01,1.500000000000000000e+01,-1.000000000000000000e+00,0.000000000000000000e+00,1.000000000000000000e+00,3.010864257812500000e-01,4.277343750000000000e-01,-7.274780273437500000e-01,-4.440307617187500000e-01,-4.589843750000000000e-02,-9.233398437500000000e-01,4.560546875000000000e-01,4.125000000000000000e+00,1.168750000000000000e+01,2.006250000000000000e+01
3.250000000000001776e-01,0.000000000000000000e+00,2.000000000000000000e+00,3.000000000000000000e+00,2.000000000000000000e+01,1.500000000000000000e+01,-1.000000000000000000e+00,0.000000000000000000e+00,1.000000000000000000e+00,3.010864257812500000e-01,4.277343750000000000e-01,-7.274780273437500000e-01,-4.440307617187500000e-01,-4.589843750000000000e-02,-9.233398437500000000e-01,4.560546875000000000e-01,4.125000000000000000e+00,1.168750000000000000e+01,2.006250000000000000e+01
3.300000000000001821e-01,-2.000000000000000000e+00,2.000000000000000000e+00,2.000000000000000000e+00,8.000000000000000000e+00,1.000000000000000000e+00,-1.000000000000000000e+00,-3.000000000000000000e+00,0.000000000000000000e+00,3.035888671875000000e-01,4.259033203125000000e-01,-7.283325195312500000e-01,-4.426879882812500000e-01,-4.003906250000000000e-02,-9.135742187500000000e-01,4.580078125000000000e-01,1.375000000000000000e+00,1.125000000000000000e+01,1.906250000000000000e+01
3.350000000000001865e-01,-2.000000000000000000e+00,0.000000000000000000e+00,3.000000000000000000e+00,-1.000000000000000000e+00,-1.400000000000000000e+01,-2.600000000000000000e+01,-8.000000000000000000e+00,-3.000000000000000000e+00,3.035888671875000000e-01,4.259033203125000000e-01,-7.283325195312500000e-01,-4.426879882812500000e-01,-4.003906250000000000e-02,-9.135742187500000000e-01,4.580078125000000000e-01,1.375000000000000000e+00,1.125000000000000000e+01,1.906250000000000000e+01
3.400000000000001910e-01,-2.000000000000000000e+00,0.000000000000000000e+00,3.000000000000000000e+00,-1.000000000000000000e+00,-1.400000000000000000e+01,-2.600000000000000000e+01,-8.000000000000000000e+00,-3.000000000000000000e+00,3.035888671875000000e-01,4.259033203125000000e-01,-7.283325195312500000e-01,-4.426879882812500000e-01,-4.003906250000000000e-02,-9.135742187500000000e-01,4.580078125000000000e-01,1.375000000000000000e+00,1.125000000000000000e+01,1.906250000000000000e+01
3.450000000000001954e-01,1.000000000000000000e+00,2.000000000000000000e+00,0.000000000000000000e+00,-1.100000000000000000e+01,2.000000000000000000e+00,2.400000000000000000e+01,3.000000000000000000e+00,-1.000000000000000000e+00,3.035888671875000000e-01,4.259033203125000000e-01,-7.283325195312500000e-01,-4.426879882812500000e-01,-4.003906250000000000e-02,-9.135742187500000000e-01,4.580078125000000000e-01,1.375000000000000000e+00,1.125000000000000000e+01,1.906250000000000000e+01
3.500000000000001998e-01,1.000000000000000000e+00,2.000000000000000000e+00,0.000000000000000000e+00,-1.100000000000000000e+01,2.000000000000000000e+00,2.400000000000000000e+01,3.000000000000000000e+00,-1.000000000000000000e+00,3.063964843750000000e-01,4.247436523437500000e-01,-7.286987304687500000e-01,-4.413452148437500000e-01,-2.978515625000000000e-02,-9.208984375000000000e-01,4.487304687500000000e-01,-2.937500000000000000e+00,1.193750000000000000e+01,1.800000000000000000e+01
3.550000000000002043e-01,1.000000000000000000e+00,2.000000000000000000e+00,0.000000000000000000e+00,-1.100000000000000000e+01,2.000000000000000000e+00,2.400000000000000000e+01,3.000000000000000000e+00,-1.000000000000000000e+00,3.063964843750000000e-01,4.247436523437500000e-01,-7.286987304687500000e-01,-4.413452148437500000e-01,-2.978515625000000000e-02,-9.208984375000000000e-01,4.487304687500000000e-01,-2.937500000000000000e+00,1.193750000000000000e+01,1.800000000000000000e+01
3.600000000000002087e-01,-1.000000000000000000e+00,-2.000000000000000000e+00,-4.000000000000000000e+00,3.000000000000000000e+00,9.000000000000000000e+00,6.000000000000000000e+00,9.000000000000000000e+00,1.000000000000000000e+00,3.063964843750000000e-01,4.247436523437500000e-01,-7.286987304687500000e-01,-4.413452148437500000e-01,-2.978515625000000000e-02,-9.208984375000000000e-01,4.487304687500000000e-01,-2.937500000000000000e+00,1.193750000000000000e+01,1.800000000000000000e+01
3.650000000000002132e-01,-3.000000000000000000e+00,0.000000000000000000e+00,-1.000000000000000000e+00,-4.000000000000000000e+00,-2.000000000000000000e+00,-1.000000000000000000e+00,2.000000000000000000e+00,-6.000000000000000000e+00,3.063964843750000000e-01,4.247436523437500000e-01,-7.286987304687500000e-01,-4.413452148437500000e-01,-2.978515625000000000e-02,-9.208984375000000000e-01,4.487304687500000000e-01,-2.937500000000000000e+00,1.193750000000000000e+01,1.800000000000000000e+01
3.700000000000002176e-01,-3.000000000000000000e+00,0.000000000000000000e+00,-1.000000000000000000e+00,-4.000000000000000000e+00,-2.000000000000000000e+00,-1.000000000000000000e+00,2.000000000000000000e+00,-6.000000000000000000e+00,3.091430664062500000e-01,4.240722656250000000e-01,-7.285766601562500000e-01,-4.402465820312500000e-01,-2.490234375000000000e-02,-9.335937500000000000e-01,4.575195312500000000e-01,-5.312500000000000000e+00,1.243750000000000000e+01,1.568750000000000000e+01
3.750000000000002220e-01,-3.000000000000000000e+00,0.000000000000000000e+00,-1.000000000000000000e+00,-4.000000000000000000e+00,-2.000000000000000000e+00,-1.000000000000000000e+00,2.000000000000000000e+00,-6.000000000000000000e+00,3.091430664062500000e-01,4.240722656250000000e-01,-7.285766601562500000e-01,-4.402465820312500000e-01,-2.490234375000000000e-02,-9.335937500000000000e-01,4.575195312500000000e-01,-5.312500000000000000e+00,1.243750000000000000e+01,1.568750000000000000e+01
3.800000000000002265e-01,-3.000000000000000000e+00,0.000000000000000000e+00,-1.000000000000000000e+00,-4.000000000000000000e+00,-2.000000000000000000e+00,-1.000000000000000000e+00,2.000000000000000000e+00,-6.000000000000000000e+00,3.091430664062500000e-01,4.240722656250000000e-01,-7.285766601562500000e-01,-4.402465820312500000e-01,-2.490234375000000000e-02,-9.335937500000000000e-01,4.575195312500000000e-01,-5.312500000000000000e+00,1.243750000000000000e+01,1.568750000000000000e+01
3.850000000000001754e-01,-3.000000000000000000e+00,0.000000000000000000e+00,-1.000000000000000000e+00,-4.000000000000000000e+00,-2.000000000000000000e+00,-1.000000000000000000e+00,2.000000000000000000e+00,-6.000000000000000000e+00,3.091430664062500000e-01,4.240722656250000000e-01,-7.285766601562500000e-01,-4.402465820312500000e-01,-2.490234375000000000e-02,-9.335937500000000000e-01,4.575195312500000000e-01,-5.312500000000000000e+00,1.243750000000000000e+01,1.568750000000000000e+01
3.900000000000001799e-01,0.000000000000000000e+00,-2.000000000000000000e+00,-3.000000000000000000e+00,-1.200000000000000000e+01,-2.000000000000000000e+00,-1.700000000000000000e+01,3.000000000000000000e+00,2.000000000000000000e+00,3.091430664062500000e-01,4.240722656250000000e-01,-7.285766601562500000e-01,-4.402465820312500000e-01,-2.490234375000000000e-02,-9.335937500000000000e-01,4.575195312500000000e-01,-5.312500000000000000e+00,1.243750000000000000e+01,1.568750000000000000e+01
3.950000000000001843e-01,0.000000000000000000e+00,-2.000000000000000000e+00,-3.000000000000000000e+00,-1.200000000000000000e+01,-2.000000000000000000e+00,-1.700000000000000000e+01,3.000000000000000000e+00,2.000000000000000000e+00,3.091430664062500000e-01,4.240722656250000000e-01,-7.285766601562500000e-01,-4.402465820312500000e-01,-2.490234375000000000e-02,-9.335937500000000000e-01,4.575195312500000000e-01,-5.312500000000000000e+00,1.243750000000000000e+01,1.568750000000000000e+01
4.000000000000001887e-01,0.000000000000000000e+00,-2.000000000000000000e+00,-3.000000000000000000e+00,-1.200000000000000000e+01,-2.000000000000000000e+00,-1.700000000000000000e+01,3.000000000000000000e+00,2.000000000000000000e+00,3.115844726562500000e-01,4.232177734375000000e-01,-7.285156250000000000e-01,-4.394531250000000000e-01,-3.125000000000000000e-02,-9.321289062500000000e-01,4.682617187500000000e-01,-4.062500000000000000e+00,1.225000000000000000e+01,1.375000000000000000e+01
4.050000000000001932e-01,0.000000000000000000e+00,-2.000000000000000000e+00,-3.000000000000000000e+00,-1.200000000000000000e+01,-2.000000000000000000e+00,-1.700000000000000000e+01,3.000000000000000000e+00,2.000000000000000000e+00,3.115844726562500000e-01,4.232177734375000000e-01,-7.285156250000000000e-01,-4.394531250000000000e-01,-3.125000000000000000e-02,-9.321289062500000000e-01,4.682617187500000000e-01,-4.062500000000000000e+00,1.225000000000000000e+01,1.375000000000000000e+01
4.100000000000001976e-01,2.000000000000000000e+00,-2.000000000000000000e+00,-5.000000000000000000e+00,-2.600000000000000000e+01,1.000000000000000000e+00,1.200000000000000000e+01,8.000000000000000000e+00,-1.000000000000000000e+00,3.115844726562500000e-01,4.232177734375000000e-01,-7.285156250000000000e-01,-4.394531250000000000e-01,-3.125000000000000000e-02,-9.321289062500000000e-01,4.682617187500000000e-01,-4.062500000000000000e+00,1.225000000000000000e+01,1.375000000000000000e+01
4.150000000000002021e-01,0.000000000000000000e+00,0.000000000000000000e+00,1.000000000000000000e+00,1.700000000000000000e+01,0.000000000000000000e+00,-1.700000000000000000e+01,-3.000000000000000000e+00,-1.000000000000000000e+00,3.115844726562500000e-01,4.232177734375000000e-01,-7.285156250000000000e-01,-4.394531250000000000e-01,-3.125000000000000000e-02,-9.321289062500000000e-01,4.682617187500000000e-01,-4.062500000000000000e+00,1.225000000000000000e+01,1.375000000000000000e+01
4.200000000000002065e-01,-4.000000000000000000e+00,-3.000000000000000000e+00,-2.000000000000000000e+00,-1.900000000000000000e+01,0.000000000000000000e+00,1.500000000000000000e+01,0.000000000000000000e+00,-3.000000000000000000e+00,3.137817382812500000e-01,4.221191406250000000e-01,-7.285156250000000000e-01,-4.389038085937500000e-01,-5.371093750000000000e-02,-9.208984375000000000e-01,4.760742187500000000e-01,-3.250000000000000000e+00,1.162500000000000000e+01,1.193750000000000000e+01
4.250000000000002109e-01,-4.000000000000000000e+00,-3.000000000000000000e+00,-2.000000000000000000e+00,-1.900000000000000000e+01,0.000000000000000000e+00,1.500000000000000000e+01,0.000000000000000000e+00,-3.000000000000000000e+00,3.137817382812500000e-01,4.221191406250000000e-01,-7.285156250000000000e-01,-4.389038085937500000e-01,-5.371093750000000000e-02,-9.208984375000000000e-01,4.760742187500000000e-01,-3.250000000000000000e+00,1.162500000000000000e+01,1.193750000000000000e+01
4.300000000000002154e-01,-4.000000000000000000e+00,-3.000000000000000000e+00,-2.000000000000000000e+00,-1.900000000000000000e+01,0.000000000000000000e+00,1.500000000000000000e+01,0.000000000000000000e+00,-3.000000000000000000e+00,3.137817382812500000e-01,4.221191406250000000e-01,-7.285156250000000000e-01,-4.389038085937500000e-01,-5.371093750000000000e-02,-9.208984375000000000e-01,4.760742187500000000e-01,-3.250000000000000000e+00,1.162500000000000000e+01,1.193750000000000000e+01
4.350000000000002753e-01,-1.000000000000000000e+00,-3.000000000000000000e+00,4.000000000000000000e+00,5.000000000000000000e+00,-2.000000000000000000e+00,1.400000000000000000e+01,1.000000000000000000e+00,0.000000000000000000e+00,3.137817382812500000e-01,4.221191406250000000e-01,-7.285156250000000000e-01,-4.389038085937500000e-01,-5.371093750000000000e-02,-9.208984375000000000e-01,4.760742187500000000e-01,-3.250000000000000000e+00,1.162500000000000000e+01,1.193750000000000000e+01
4.400000000000002798e-01,-1.000000000000000000e+00,-3.000000000000000000e+00,4.000000000000000000e+00,5.000000000000000000e+00,-2.000000000000000000e+00,1.400000000000000000e+01,1.000000000000000000e+00,0.000000000000000000e+00,3.137817382812500000e-01,4.221191406250000000e-01,-7.285156250000000000e-01,-4.389038085937500000e-01,-5.371093750000000000e-02,-9.208984375000000000e-01,4.760742187500000000e-01,-3.250000000000000000e+00,1.162500000000000000e+01,1.193750000000000000e+01
4.450000000000002842e-01,-1.000000000000000000e+00,-3.000000000000000000e+00,4.000000000000000000e+00,5.000000000000000000e+00,-2.000000000000000000e+00,1.400000000000000000e+01,1.000000000000000000e+00,0.000000000000000000e+00,3.162841796875000000e-01,4.215698242187500000e-01,-7.282714843750000000e-01,-4.380493164062500000e-01,-7.470703125000000000e-02,-9.072265625000000000e-01,4.501953125000000000e-01,-5.687500000000000000e+00,1.081250000000000000e+01,1.106250000000000000e+01
4.500000000000002887e-01,-1.000000000000000000e+00,-3.000000000000000000e+00,4.000000000000000000e+00,5.000000000000000000e+00,-2.000000000000000000e+00,1.400000000000000000e+01,1.000000000000000000e+00,0.000000000000000000e+00,3.162841796875000000e-01,4.215698242187500000e-01,-7.282714843750000000e-01,-4.380493164062500000e-01,-7.470703125000000000e-02,-9.072265625000000000e-01,4.501953125000000000e-01,-5.687500000000000000e+00,1.081250000000000000e+01,1.106250000000000000e+01
4.550000000000002931e-01,3.000000000000000000e+00,-1.000000000000000000e+00,5.000000000000000000e+00,1.000000000000000000e+01,2.000000000000000000e+01,7.000000000000000000e+00,0.000000000000000000e+00,1.000000000000000000e+00,3.162841796875000000e-01,4.215698242187500000e-01,-7.282714843750000000e-01,-4.380493164062500000e-01,-7.470703125000000000e-02,-9.072265625000000000e-01,4.501953125000000000e-01,-5.687500000000000000e+00,1.081250000000000000e+01,1.106250000000000000e+01
4.600000000000002975e-01,3.000000000000000000e+00,2.000000000000000000e+00,-2.000000000000000000e+00,-9.000000000000000000e+00,-2.000000000000000000e+00,0.000000000000000000e+00,7.000000000000000000e+00,3.000000000000000000e+00,3.162841796875000000e-01,4.215698242187500000e-01,-7.282714843750000000e-01,-4.380493164062500000e-01,-7.470703125000000000e-02,-9.072265625000000000e-01,4.501953125000000000e-01,-5.687500000000000000e+00,1.081250000000000000e+01,1.106250000000000000e+01
4.650000000000003020e-01,3.000000000000000000e+00,2.000000000000000000e+00,-2.000000000000000000e+00,-9.000000000000000000e+00,-2.000000000000000000e+00,0.000000000000000000e+00,7.000000000000000000e+00,3.000000000000000000e+00,3.162841796875000000e-01,4.215698242187500000e-01,-7.282714843750000000e-01,-4.380493164062500000e-01,-7.470703125000000000e-02,-9.072265625000000000e-01,4.501953125000000000e-01,-5.687500000000000000e+00,1.081250000000000000e+01,1.106250000000000000e+01
4.700000000000003064e-01,3.000000000000000000e+00,2.000000000000000000e+00,-2.000000000000000000e+00,-9.000000000000000000e+00,-2.000000000000000000e+00,0.000000000000000000e+00,7.000000000000000000e+00,3.000000000000000000e+00,3.187255859375000000e-01,4.211425781250000000e-01,-7.279052734375000000e-01,-4.373168945312500000e-01,-8.935546875000000000e-02,-8.798828125000000000e-01,4.335937500000000000e-01,-6.687500000000000000e+00,1.037500000000000000e+01,9.125000000000000000e+00
4.750000000000003109e-01,3.000000000000000000e+00,2.000000000000000000e+00,-2.000000000000000000e+00,-9.000000000000000000e+00,-2.000000000000000000e+00,0.000000000000000000e+00,7.000000000000000000e+00,3.000000000000000000e+00,3.187255859375000000e-01,4.211425781250000000e-01,-7.279052734375000000e-01,-4.373168945312500000e-01,-8.935546875000000000e-02,-8.798828125000000000e-01,4.335937500000000000e-01,-6.687500000000000000e+00,1.037500000000000000e+01,9.125000000000000000e+00
4.800000000000003153e-01,3.000000000000000000e+00,2.000000000000000000e+00,-2.000000000000000000e+00,-9.000000000000000000e+00,-2.000000000000000000e+00,0.000000000000000000e+00,7.000000000000000000e+00,3.000000000000000000e+00,3.187255859375000000e-01,4.211425781250000000e-01,-7.279052734375000000e-01,-4.373168945312500000e-01,-8.935546875000000000e-02,-8.798828125000000000e-01,4.335937500000000000e-01,-6.687500000000000000e+00,1.037500000000000000e+01,9.125000000000000000e+00
4.850000000000003197e-01,3.000000000000000000e+00,2.000000000000000000e+00,-2.000000000000000000e+00,-9.000000000000000000e+00,-2.000000000000000000e+00,0.000000000000000000e+00,7.000000000000000000e+00,3.000000000000000000e+00,3.187255859375000000e-01,4.211425781250000000e-01,-7.279052734375000000e-01,-4.373168945312500000e-01,-8.935546875000000000e-02,-8.798828125000000000e-01,4.335937500000000000e-01,-6.687500000000000000e+00,1.037500000000000000e+01,9.125000000000000000e+00
4.900000000000003242e-01,3.000000000000000000e+00,2.000000000000000000e+00,-2.000000000000000000e+00,-9.000000000000000000e+00,-2.000000000000000000e+00,0.000000000000000000e+00,7.000000000000000000e+00,3.000000000000000000e+00,3.187255859375000000e-01,4.211425781250000000e-01,-7.279052734375000000e-01,-4.373168945312500000e-01,-8.935546875000000000e-02,-8.798828125000000000e-01,4.335937500000000000e-01,-6.687500000000000000e+00,1.037500000000000000e+01,9.125000000000000000e+00
4.950000000000002731e-01,-1.000000000000000000e+00,-2.000000000000000000e+00,-5.000000000000000000e+00,-3.000000000000000000e+00,-1.200000000000000000e+01,-6.000000000000000000e+00,-1.200000000000000000e+01,-3.000000000000000000e+00,3.211669921875000000e-01,4.208374023437500000e-01,-7.273559570312500000e-01,-4.367675781250000000e-01,-1.088867187500000000e-01,-8.803710937500000000e-01,4.174804687500000000e-01,-6.312500000000000000e+00,1.025000000000000000e+01,6.812500000000000000e+00
5.000000000000003331e-01,-6.000000000000000000e+00,-4.000000000000000000e+00,-6.000000000000000000e+00,-1.900000000000000000e+01,-1.000000000000000000e+00,6.000000000000000000e+00,9.000000000000000000e+00,-2.000000000000000000e+00,3.211669921875000000e-01,4.208374023437500000e-01,-7.273559570312500000e-01,-4.367675781250000000e-01,-1.088867187500000000e-01,-8.803710937500000000e-01,4.174804687500000000e-01,-6.312500000000000000e+00,1.025000000000000000e+01,6.812500000000000000e+00
5.050000000000003375e-01,-2.000000000000000000e+00,-2.000000000000000000e+00,-6.000000000000000000e+00,9.000000000000000000e+00,-1.200000000000000000e+01,-1.700000000000000000e+01,-3.000000000000000000e+00,-4.000000000000000000e+00,3.211669921875000000e-01,4.208374023437500000e-01,-7.273559570312500000e-01,-4.367675781250000000e-01,-1.088867187500000000e-01,-8.803710937500000000e-01,4.174804687500000000e-01,-6.312500000000000000e+00,1.025000000000000000e+01,6.812500000000000000e+00
5.100000000000003419e-01,-2.000000000000000000e+00,-2.000000000000000000e+00,-6.000000000000000000e+00,9.000000000000000000e+00,-1.200000000000000000e+01,-1.700000000000000000e+01,-3.000000000000000000e+00,-4.000000000000000000e+00,3.236083984375000000e-01,4.205932617187500000e-01,-7.266235351562500000e-01,-4.363403320312500000e-01,-1.147460937500000000e-01,-8.676757812500000000e-01,3.979492187500000000e-01,-6.000000000000000000e+00,1.018750000000000000e+01,5.062500000000000000e+00
5.150000000000003464e-01,3.000000000000000000e+00,-3.000000000000000000e+00,-5.000000000000000000e+00,2.700000000000000000e+01,-9.000000000000000000e+00,2.400000000000000000e+01,5.000000000000000000e+00,0.000000000000000000e+00,3.236083984375000000e-01,4.205932617187500000e-01,-7.266235351562500000e-01,-4.363403320312500000e-01,-1.147460937500000000e-01,-8.676757812500000000e-01,3.979492187500000000e-01,-6.000000000000000000e+00,1.018750000000000000e+01,5.062500000000000000e+00
5.200000000000003508e-01,3.000000000000000000e+00,-3.000000000000000000e+00,-5.000000000000000000e+00,2.700000000000000000e+01,-9.000000000000000000e+00,2.400000000000000000e+01,5.000000000000000000e+00,0.000000000000000000e+00,3.236083984375000000e-01,4.205932617187500000e-01,-7.266235351562500000e-01,-4.363403320312500000e-01,-1.147460937500000000e-01,-8.676757812500000000e-01,3.979492187500000000e-01,-6.000000000000000000e+00,1.018750000000000000e+01,5.062500000000000000e+00
5.250000000000003553e-01,3.000000000000000000e+00,-1.000000000000000000e+00,0.000000000000000000e+00,1.200000000000000000e+01,4.000000000000000000e+00,-3.000000000000000000e+00,1.000000000000000000e+00,1.000000000000000000e+00,3.236083984375000000e-01,4.205932617187500000e-01,-7.266235351562500000e-01,-4.363403320312500000e-01,-1.147460937500000000e-01,-8.676757812500000000e-01,3.979492187500000000e-01,-6.000000000000000000e+00,1.018750000000000000e+01,5.062500000000000000e+00
5.300000000000003597e-01,3.000000000000000000e+00,-1.000000000000000000e+00,0.000000000000000000e+00,1.200000000000000000e+01,4.000000000000000000e+00,-3.000000000000000000e+00,1.000000000000000000e+00,1.000000000000000000e+00,3.236083984375000000e-01,4.205932617187500000e-01,-7.266235351562500000e-01,-4.363403320312500000e-01,-1.147460937500000000e-01,-8.676757812500000000e-01,3.979492187500000000e-01,-6.000000000000000000e+00,1.018750000000000000e+01,5.062500000000000000e+00
5.350000000000003642e-01,3.000000000000000000e+00,-1.000000000000000000e+00,0.000000000000000000e+00,1.200000000000000000e+01,4.000000000000000000e+00,-3.000000000000000000e+00,1.000000000000000000e+00,1.000000000000000000e+00,3.261108398437500000e-01,4.207153320312500000e-01,-7.257080078125000000e-01,-4.358520507812500000e-01,-1.118164062500000000e-01,-8.500976562500000000e-01,3.818359375000000000e-01,-8.312500000000000000e+00,1.031250000000000000e+01,4.875000000000000000e+00
5.400000000000003686e-01,3.000000000000000000e+00,-1.000000000000000000e+00,0.000000000000000000e+00,1.200000000000000000e+01,4.000000000000000000e+00,-3.000000000000000000e+00,1.000000000000000000e+00,1.000000000000000000e+00,3.261108398437500000e-01,4.207153320312500000e-01,-7.257080078125000000e-01,-4.358520507812500000e-01,-1.118164062500000000e-01,-8.500976562500000000e-01,3.818359375000000000e-01,-8.312500000000000000e+00,1.031250000000000000e+01,4.875000000000000000e+00
5.450000000000003730e-01,4.000000000000000000e+00,1.000000000000000000e+00,-2.000000000000000000e+00,-3.000000000000000000e+00,1.000000000000000000e+00,2.000000000000000000e+00,2.000000000000000000e+00,2.000000000000000000e+00,3.261108398437500000e-01,4.207153320312500000e-01,-7.257080078125000000e-01,-4.358520507812500000e-01,-1.118164062500000000e-01,-8.500976562500000000e-01,3.818359375000000000e-01,-8.312500000000000000e+00,1.031250000000000000e+01,4.875000000000000000e+00
5.500000000000003775e-01,4.000000000000000000e+00,1.000000000000000000e+00,-2.000000000000000000e+00,-3.000000000000000000e+00,1.000000000000000000e+00,2.000000000000000000e+00,2.000000000000000000e+00,2.000000000000000000e+00,3.261108398437500000e-01,4.207153320312500000e-01,-7.257080078125000000e-01,-4.358520507812500000e-01,-1.118164062500000000e-01,-8.500976562500000000e-01,3.818359375000000000e-01,-8.312500000000000000e+00,1.031250000000000000e+01,4.875000000000000000e+00
5.550000000000003819e-01,-2.000000000000000000e+00,-5.000000000000000000e+00,-1.300000000000000000e+01,8.000000000000000000e+00,-9.000000000000000000e+00,-1.000000000000000000e+01,-6.000000000000000000e+00,-1.000000000000000000e+00,3.289794921875000000e-01,4.213867187500000000e-01,-7.245483398437500000e-01,-4.349975585937500000e-01,-1.225585937500000000e-01,-8.496093750000000000e-01,3.583984375000000000e-01,-1.150000000000000000e+01,9.312500000000000000e+00,5.250000000000000000e+00
5.600000000000003864e-01,-2.000000000000000000e+00,-5.000000000000000000e+00,-1.300000000000000000e+01,8.000000000000000000e+00,-9.000000000000000000e+00,-1.000000000000000000e+01,-6.000000000000000000e+00,-1.000000000000000000e+00,3.289794921875000000e-01,4.213867187500000000e-01,-7.245483398437500000e-01,-4.349975585937500000e-01,-1.225585937500000000e-01,-8.496093750000000000e-01,3.583984375000000000e-01,-1.150000000000000000e+01,9.312500000000000000e+00,5.250000000000000000e+00
5.650000000000003908e-01,-2.000000000000000000e+00,-5.000000000000000000e+00,-1.300000000000000000e+01,8.000000000000000000e+00,-9.000000000000000000e+00,-1.000000000000000000e+01,-6.000000000000000000e+00,-1.000000000000000000e+00,3.289794921875000000e-01,4.213867187500000000e-01,-7.245483398437500000e-01,-4.349975585937500000e-01,-1.225585937500000000e-01,-8.496093750000000000e-01,3.583984375000000000e-01,-1.150000000000000000e+01,9.312500000000000000e+00,5.250000000000000000e+00
5.700000000000003952e-01,-3.000000000000000000e+00,-2.000000000000000000e+00,2.000000000000000000e+00,-3.000000000000000000e+00,4.000000000000000000e+00,-3.100000000000000000e+01,-7.000000000000000000e+00,-3.000000000000000000e+00,3.289794921875000000e-01,4.213867187500000000e-01,-7.245483398437500000e-01,-4.349975585937500000e-01,-1.225585937500000000e-01,-8.496093750000000000e-01,3.583984375000000000e-01,-1.150000000000000000e+01,9.312500000000000000e+00,5.250000000000000000e+00
5.750000000000003997e-01,-3.000000000000000000e+00,-2.000000000000000000e+00,2.000000000000000000e+00,-3.000000000000000000e+00,4.000000000000000000e+00,-3.100000000000000000e+01,-7.000000000000000000e+00,-3.000000000000000000e+00,3.289794921875000000e-01,4.213867187500000000e-01,-7.245483398437500000e-01,-4.349975585937500000e-01,-1.225585937500000000e-01,-8.496093750000000000e-01,3.583984375000000000e-01,-1.150000000000000000e+01,9.312500000000000000e+00,5.250000000000000000e+00
5.800000000000004041e-01,4.000000000000000000e+00,3.000000000000000000e+00,3.000000000000000000e+00,-3.000000000000000000e+00,-2.000000000000000000e+00,6.000000000000000000e+00,3.000000000000000000e+00,3.000000000000000000e+00,3.319702148437500000e-01,4.225463867187500000e-01,-7.232055664062500000e-01,-4.338378906250000000e-01,-1.450195312500000000e-01,-8.583984375000000000e-01,3.549804687500000000e-01,-1.475000000000000000e+01,7.750000000000000000e+00,4.187500000000000000e+00
5.850000000000004086e-01,4.000000000000000000e+00,3.000000000000000000e+00,3.000000000000000000e+00,-3.000000000000000000e+00,-2.000000000000000000e+00,6.000000000000000000e+00,3.000000000000000000e+00,3.000000000000000000e+00,3.319702148437500000e-01,4.225463867187500000e-01,-7.232055664062500000e-01,-4.338378906250000000e-01,-1.450195312500000000e-01,-8.583984375000000000e-01,3.549804687500000000e-01,-1.475000000000000000e+01,7.750000000000000000e+00,4.187500000000000000e+00
5.900000000000004130e-01,-3.000000000000000000e+00,-1.000000000000000000e+00,0.000000000000000000e+00,-1.100000000000000000e+01,-5.000000000000000000e+00,2.000000000000000000e+00,-2.000000000000000000e+00,-3.000000000000000000e+00,3.319702148437500000e-01,4.225463867187500000e-01,-7.232055664062500000e-01,-4.338378906250000000e-01,-1.450195312500000000e-01,-8.583984375000000000e-01,3.549804687500000000e-01,-1.475000000000000000e+01,7.750000000000000000e+00,4.187500000000000000e+00
5.950000000000004174e-01,-3.000000000000000000e+00,-1.000000000000000000e+00,0.000000000000000000e+00,-1.100000000000000000e+01,-5.000000000000000000e+00,2.000000000000000000e+00,-2.000000000000000000e+00,-3.000000000000000000e+00,3.319702148437500000e-01,4.225463867187500000e-01,-7.232055664062500000e-01,-4.338378906250000000e-01,-1.450195312500000000e-01,-8.583984375000000000e-01,3.549804687500000000e-01,-1.475000000000000000e+01,7.750000000000000000e+00,4.187500000000000000e+00
6.000000000000004219e-01,-3.000000000000000000e+00,-1.000000000000000000e+00,0.000000000000000000e+00,-1.100000000000000000e+01,-5.000000000000000000e+00,2.000000000000000000e+00,-2.000000000000000000e+00,-3.000000000000000000e+00,3.350219726562500000e-01,4.243164062500000000e-01,-7.214355468750000000e-01,-4.327392578125000000e-01,-1.606445312500000000e-01,-8.730468750000000000e-01,3.486328125000000000e-01,-1.775000000000000000e+01,7.062500000000000000e+00,1.187500000000000000e+00
6.050000000000004263e-01,-3.000000000000000000e+00,-1.000000000000000000e+00,0.000000000000000000e+00,-1.100000000000000000e+01,-5.000000000000000000e+00,2.000000000000000000e+00,-2.000000000000000000e+00,-3.000000000000000000e+00,3.350219726562500000e-01,4.243164062500000000e-01,-7.214355468750000000e-01,-4.327392578125000000e-01,-1.606445312500000000e-01,-8.730468750000000000e-01,3.486328125000000000e-01,-1.775000000000000000e+01,7.062500000000000000e+00,1.187500000000000000e+00
6.100000000000004308e-01,-1.000000000000000000e+00,1.000000000000000000e+00,8.000000000000000000e+00,3.000000000000000000e+00,5.000000000000000000e+00,-2.000000000000000000e+00,-1.000000000000000000e+01,-3.000000000000000000e+00,3.350219726562500000e-01,4.243164062500000000e-01,-7.214355468750000000e-01,-4.327392578125000000e-01,-1.606445312500000000e-01,-8.730468750000000000e-01,3.486328125000000000e-01,-1.775000000000000000e+01,7.062500000000000000e+00,1.187500000000000000e+00
6.150000000000004352e-01,-1.000000000000000000e+00,1.000000000000000000e+00,8.000000000000000000e+00,3.000000000000000000e+00,5.000000000000000000e+00,-2.000000000000000000e+00,-1.000000000000000000e+01,-3.000000000000000000e+00,3.350219726562500000e-01,4.243164062500000000e-01,-7.214355468750000000e-01,-4.327392578125000000e-01,-1.606445312500000000e-01,-8.730468750000000000e-01,3.486328125000000000e-01,-1.775000000000000000e+01,7.062500000000000000e+00,1.187500000000000000e+00
6.200000000000004396e-01,-3.000000000000000000e+00,2.000000000000000000e+00,6.000000000000000000e+00,2.000000000000000000e+01,-1.900000000000000000e+01,-2.000000000000000000e+00,-1.000000000000000000e+00,3.000000000000000000e+00,3.377075195312500000e-01,4.262084960937500000e-01,-7.196044921875000000e-01,-4.318237304687500000e-01,-1.884765625000000000e-01,-8.955078125000000000e-01,3.671875000000000000e-01,-1.856250000000000000e+01,5.312500000000000000e+00,-2.562500000000000000e+00
6.250000000000004441e-01,-3.000000000000000000e+00,2.000000000000000000e+00,6.000000000000000000e+00,2.000000000000000000e+01,-1.900000000000000000e+01,-2.000000000000000000e+00,-1.000000000000000000e+00,3.000000000000000000e+00,3.377075195312500000e-01,4.262084960937500000e-01,-7.196044921875000000e-01,-4.318237304687500000e-01,-1.884765625000000000e-01,-8.955078125000000000e-01,3.671875000000000000e-01,-1.856250000000000000e+01,5.312500000000000000e+00,-2.562500000000000000e+00
6.300000000000004485e-01,-3.000000000000000000e+00,2.000000000000000000e+00,6.000000000000000000e+00,2.000000000000000000e+01,-1.900000000000000000e+01,-2.000000000000000000e+00,-1.000000000000000000e+00,3.000000000000000000e+00,3.377075195312500000e-01,4.262084960937500000e-01,-7.196044921875000000e-01,-4.318237304687500000e-01,-1.884765625000000000e-01,-8.955078125000000000e-01,3.671875000000000000e-01,-1.856250000000000000e+01,5.312500000000000000e+00,-2.562500000000000000e+00
6.350000000000004530e-01,-3.000000000000000000e+00,2.000000000000000000e+00,6.000000000000000000e+00,2.000000000000000000e+01,-1.900000000000000000e+01,-2.000000000000000000e+00,-1.000000000000000000e+00,3.000000000000000000e+00,3.377075195312500000e-01,4.262084960937500000e-01,-7.196044921875000000e-01,-4.318237304687500000e-01,-1.884765625000000000e-01,-8.955078125000000000e-01,3.671875000000000000e-01,-1.856250000000000000e+01,5.312500000000000000e+00,-2.562500000000000000e+00
6.400000000000004574e-01,0.000000000000000000e+00,-3.000000000000000000e+00,-1.100000000000000000e+01,-1.500000000000000000e+01,0.000000000000000000e+00,-2.000000000000000000e+00,-4.000000000000000000e+00,-3.000000000000000000e+00,3.377075195312500000e-01,4.262084960937500000e-01,-7.196044921875000000e-01,-4.318237304687500000e-01,-1.884765625000000000e-01,-8.955078125000000000e-01,3.671875000000000000e-01,-1.856250000000000000e+01,5.312500000000000000e+00,-2.562500000000000000e+00
6.450000000000004619e-01,0.000000000000000000e+00,-3.000000000000000000e+00,-1.100000000000000000e+01,-1.500000000000000000e+01,0.000000000000000000e+00,-2.000000000000000000e+00,-4.000000000000000000e+00,-3.000000000000000000e+00,3.377075195312500000e-01,4.262084960937500000e-01,-7.196044921875000000e-01,-4.318237304687500000e-01,-1.884765625000000000e-01,-8.955078125000000000e-01,3.671875000000000000e-01,-1.856250000000000000e+01,5.312500000000000000e+00,-2.562500000000000000e+00
6.500000000000004663e-01,0.000000000000000000e+00,-3.000000000000000000e+00,-1.100000000000000000e+01,-1.500000000000000000e+01,0.000000000000000000e+00,-2.000000000000000000e+00,-4.000000000000000000e+00,-3.000000000000000000e+00,3.398437500000000000e-01,4.282226562500000000e-01,-7.178344726562500000e-01,-4.311523437500000000e-01,-2.187500000000000000e-01,-8.984375000000000000e-01,3.950195312500000000e-01,-1.906250000000000000e+01,2.687500000000000000e+00,-6.875000000000000000e+00
6.550000000000004707e-01,0.000000000000000000e+00,-3.000000000000000000e+00,-1.100000000000000000e+01,-1.500000000000000000e+01,0.000000000000000000e+00,-2.000000000000000000e+00,-4.000000000000000000e+00,-3.000000000000000000e+00,3.398437500000000000e-01,4.282226562500000000e-01,-7.178344726562500000e-01,-4.311523437500000000e-01,-2.187500000000000000e-01,-8.984375000000000000e-01,3.950195312500000000e-01,-1.906250000000000000e+01,2.687500000000000000e+00,-6.875000000000000000e+00
6.600000000000004752e-01,-4.000000000000000000e+00,-2.000000000000000000e+00,-3.000000000000000000e+00,-1.200000000000000000e+01,-1.000000000000000000e+00,-2.600000000000000000e+01,-4.000000000000000000e+00,-1.000000000000000000e+00,3.398437500000000000e-01,4.282226562500000000e-01,-7.178344726562500000e-01,-4.311523437500000000e-01,-2.187500000000000000e-01,-8.984375000000000000e-01,3.950195312500000000e-01,-1.906250000000000000e+01,2.687500000000000000e+00,-6.875000000000000000e+00
6.650000000000004796e-01,4.000000000000000000e+00,0.000000000000000000e+00,-4.000000000000000000e+00,-2.000000000000000000e+00,1.000000000000000000e+00,1.000000000000000000e+00,-8.000000000000000000e+00,-3.000000000000000000e+00,3.398437500000000000e-01,4.282226562500000000e-01,-7.178344726562500000e-01,-4.311523437500000000e-01,-2.187500000000000000e-01,-8.984375000000000000e-01,3.950195312500000000e-01,-1.906250000000000000e+01,2.687500000000000000e+00,-6.875000000000000000e+00
6.700000000000004841e-01,4.000000000000000000e+00,0.000000000000000000e+00,-4.000000000000000000e+00,-2.000000000000000000e+00,1.000000000000000000e+00,1.000000000000000000e+00,-8.000000000000000000e+00,-3.000000000000000000e+00,3.398437500000000000e-01,4.282226562500000000e-01,-7.178344726562500000e-01,-4.311523437500000000e-01,-2.187500000000000000e-01,-8.984375000000000000e-01,3.950195312500000000e-01,-1.906250000000000000e+01,2.687500000000000000e+00,-6.875000000000000000e+00
6.750000000000004885e-01,4.000000000000000000e+00,0.000000000000000000e+00,-4.000000000000000000e+00,-2.000000000000000000e+00,1.000000000000000000e+00,1.000000000000000000e+00,-8.000000000000000000e+00,-3.000000000000000000e+00,3.398437500000000000e-01,4.282226562500000000e-01,-7.178344726562500000e-01,-4.311523437500000000e-01,-2.187500000000000000e-01,-8.984375000000000000e-01,3.950195312500000000e-01,-1.906250000000000000e+01,2.687500000000000000e+00,-6.875000000000000000e+00
6.800000000000004929e-01,4.000000000000000000e+00,0.000000000000000000e+00,-4.000000000000000000e+00,-2.000000000000000000e+00,1.000000000000000000e+00,1.000000000000000000e+00,-8.000000000000000000e+00,-3.000000000000000000e+00,3.398437500000000000e-01,4.282226562500000000e-01,-7.178344726562500000e-01,-4.311523437500000000e-01,-2.187500000000000000e-01,-8.984375000000000000e-01,3.950195312500000000e-01,-1.906250000000000000e+01,2.687500000000000000e+00,-6.875000000000000000e+00
6.850000000000004974e-01,4.000000000000000000e+00,0.000000000000000000e+00,-4.000000000000000000e+00,-2.000000000000000000e+00,1.000000000000000000e+00,1.000000000000000000e+00,-8.000000000000000000e+00,-3.000000000000000000e+00,3.398437500000000000e-01,4.282226562500000000e-01,-7.178344726562500000e-01,-4.311523437500000000e-01,-2.187500000000000000e-01,-8.984375000000000000e-01,3.950195312500000000e-01,-1.906250000000000000e+01,2.687500000000000000e+00,-6.875000000000000000e+00
6.900000000000005018e-01,-4.000000000000000000e+00,-1.000000000000000000e+00,-3.000000000000000000e+00,-1.000000000000000000e+00,9.000000000000000000e+00,2.400000000000000000e+01,1.100000000000000000e+01,-1.000000000000000000e+00,3.410644531250000000e-01,4.306030273437500000e-01,-7.162475585937500000e-01,-4.304809570312500000e-01,-2.290039062500000000e-01,-9.189453125000000000e-01,4.248046875000000000e-01,-1.962500000000000000e+01,-2.187500000000000000e+00,-9.750000000000000000e+00
6.950000000000005063e-01,-4.000000000000000000e+00,-1.000000000000000000e+00,-3.000000000000000000e+00,-1.000000000000000000e+00,9.000000000000000000e+00,2.400000000000000000e+01,1.100000000000000000e+01,-1.000000000000000000e+00,3.410644531250000000e-01,4.306030273437500000e-01,-7.162475585937500000e-01,-4.304809570312500000e-01,-2.290039062500000000e-01,-9.189453125000000000e-01,4.248046875000000000e-01,-1.962500000000000000e+01,-2.187500000000000000e+00,-9.750000000000000000e+00
7.000000000000005107e-01,8.000000000000000000e+00,0.000000000000000000e+00,5.000000000000000000e+00,-3.000000000000000000e+00,-2.000000000000000000e+00,4.000000000000000000e+00,1.000000000000000000e+00,4.000000000000000000e+00,3.413696289062500000e-01,4.330444335937500000e-01,-7.150878906250000000e-01,-4.296875000000000000e-01,-2.338867187500000000e-01,-9.326171875000000000e-01,4.492187500000000000e-01,-1.831250000000000000e+01,-7.625000000000000000e+00,-1.118750000000000000e+01
7.050000000000005151e-01,8.000000000000000000e+00,0.000000000000000000e+00,5.000000000000000000e+00,-3.000000000000000000e+00,-2.000000000000000000e+00,4.000000000000000000e+00,1.000000000000000000e+00,4.000000000000000000e+00,3.413696289062500000e-01,4.330444335937500000e-01,-7.150878906250000000e-01,-4.296875000000000000e-01,-2.338867187500000000e-01,-9.326171875000000000e-01,4.492187500000000000e-01,-1.831250000000000000e+01,-7.625000000000000000e+00,-1.118750000000000000e+01
7.100000000000005196e-01,8.000000000000000000e+00,0.000000000000000000e+00,5.000000000000000000e+00,-3.000000000000000000e+00,-2.000000000000000000e+00,4.000000000000000000e+00,1.000000000000000000e+00,4.000000000000000000e+00,3.413696289062500000e-01,4.330444335937500000e-01,-7.150878906250000000e-01,-4.296875000000000000e-01,-2.338867187500000000e-01,-9.326171875000000000e-01,4.492187500000000000e-01,-1.831250000000000000e+01,-7.625000000000000000e+00,-1.118750000000000000e+01
7.150000000000005240e-01,8.000000000000000000e+00,0.000000000000000000e+00,5.000000000000000000e+00,-3.000000000000000000e+00,-2.000000000000000000e+00,4.000000000000000000e+00,1.000000000000000000e+00,4.000000000000000000e+00,3.413696289062500000e-01,4.330444335937500000e-01,-7.150878906250000000e-01,-4.296875000000000000e-01,-2.338867187500000000e-01,-9.326171875000000000e-01,4.492187500000000000e-01,-1.831250000000000000e+01,-7.625000000000000000e+00,-1.118750000000000000e+01
7.200000000000005285e-01,-2.000000000000000000e+00,-2.000000000000000000e+00,-3.000000000000000000e+00,-1.300000000000000000e+01,0.000000000000000000e+00,7.000000000000000000e+00,3.000000000000000000e+00,0.000000000000000000e+00,3.413696289062500000e-01,4.330444335937500000e-01,-7.150878906250000000e-01,-4.296875000000000000e-01,-2.338867187500000000e-01,-9.326171875000000000e-01,4.492187500000000000e-01,-1.831250000000000000e+01,-7.625000000000000000e+00,-1.118750000000000000e+01
7.250000000000005329e-01,-2.000000000000000000e+00,-2.000000000000000000e+00,-3.000000000000000000e+00,-1.300000000000000000e+01,0.000000000000000000e+00,7.000000000000000000e+00,3.000000000000000000e+00,0.000000000000000000e+00,3.408813476562500000e-01,4.359741210937500000e-01,-7.142333984375000000e-01,-4.284667968750000000e-01,-2.285156250000000000e-01,-9.506835937500000000e-01,4.521484375000000000e-01,-1.862500000000000000e+01,-1.306250000000000000e+01,-1.106250000000000000e+01
7.300000000000005373e-01,-2.000000000000000000e+00,-2.000000000000000000e+00,-3.000000000000000000e+00,-1.300000000000000000e+01,0.000000000000000000e+00,7.000000000000000000e+00,3.000000000000000000e+00,0.000000000000000000e+00,3.408813476562500000e-01,4.359741210937500000e-01,-7.142333984375000000e-01,-4.284667968750000000e-01,-2.285156250000000000e-01,-9.506835937500000000e-01,4.521484375000000000e-01,-1.862500000000000000e+01,-1.306250000000000000e+01,-1.106250000000000000e+01
7.350000000000005418e-01,-1.000000000000000000e+00,0.000000000000000000e+00,-4.000000000000000000e+00,-1.000000000000000000e+00,5.000000000000000000e+00,9.000000000000000000e+00,2.000000000000000000e+00,1.000000000000000000e+00,3.408813476562500000e-01,4.359741210937500000e-01,-7.142333984375000000e-01,-4.284667968750000000e-01,-2.285156250000000000e-01,-9.506835937500000000e-01,4.521484375000000000e-01,-1.862500000000000000e+01,-1.306250000000000000e+01,-1.106250000000000000e+01
7.400000000000005462e-01,-1.000000000000000000e+00,0.000000000000000000e+00,-4.000000000000000000e+00,-1.000000000000000000e+00,5.000000000000000000e+00,9.000000000000000000e+00,2.000000000000000000e+00,1.000000000000000000e+00,3.408813476562500000e-01,4.359741210937500000e-01,-7.142333984375000000e-01,-4.284667968750000000e-01,-2.285156250000000000e-01,-9.506835937500000000e-01,4.521484375000000000e-01,-1.862500000000000000e+01,-1.306250000000000000e+01,-1.106250000000000000e+01
7.450000000000005507e-01,-3.000000000000000000e+00,-3.000000000000000000e+00,-2.000000000000000000e+00,-6.000000000000000000e+00,8.000000000000000000e+00,-1.100000000000000000e+01,-4.000000000000000000e+00,-2.000000000000000000e+00,3.408813476562500000e-01,4.359741210937500000e-01,-7.142333984375000000e-01,-4.284667968750000000e-01,-2.285156250000000000e-01,-9.506835937500000000e-01,4.521484375000000000e-01,-1.862500000000000000e+01,-1.306250000000000000e+01,-1.106250000000000000e+01
7.500000000000005551e-01,-3.000000000000000000e+00,-3.000000000000000000e+00,-2.000000000000000000e+00,-6.000000000000000000e+00,8.000000000000000000e+00,-1.100000000000000000e+01,-4.000000000000000000e+00,-2.000000000000000000e+00,3.408813476562500000e-01,4.359741210937500000e-01,-7.142333984375000000e-01,-4.284667968750000000e-01,-2.285156250000000000e-01,-9.506835937500000000e-01,4.521484375000000000e-01,-1.862500000000000000e+01,-1.306250000000000000e+01,-1.106250000000000000e+01
7.550000000000005596e-01,-3.000000000000000000e+00,-3.000000000000000000e+00,-2.000000000000000000e+00,-6.000000000000000000e+00,8.000000000000000000e+00,-1.100000000000000000e+01,-4.000000000000000000e+00,-2.000000000000000000e+00,3.408813476562500000e-01,4.359741210937500000e-01,-7.142333984375000000e-01,-4.284667968750000000e-01,-2.285156250000000000e-01,-9.506835937500000000e-01,4.521484375000000000e-01,-1.862500000000000000e+01,-1.306250000000000000e+01,-1.106250000000000000e+01
7.600000000000005640e-01,-3.000000000000000000e+00,-3.000000000000000000e+00,-2.000000000000000000e+00,-6.000000000000000000e+00,8.000000000000000000e+00,-1.100000000000000000e+01,-4.000000000000000000e+00,-2.000000000000000000e+00,3.397216796875000000e-01,4.388427734375000000e-01,-7.139892578125000000e-01,-4.269409179687500000e-01,-2.250976562500000000e-01,-9.516601562500000000e-01,4.555664062500000000e-01,-1.637500000000000000e+01,-1.781250000000000000e+01,-1.012500000000000000e+01
7.650000000000005684e-01,-3.000000000000000000e+00,-3.000000000000000000e+00,-2.000000000000000000e+00,-6.000000000000000000e+00,8.000000000000000000e+00,-1.100000000000000000e+01,-4.000000000000000000e+00,-2.000000000000000000e+00,3.397216796875000000e-01,4.388427734375000000e-01,-7.139892578125000000e-01,-4.269409179687500000e-01,-2.250976562500000000e-01,-9.516601562500000000e-01,4.555664062500000000e-01,-1.637500000000000000e+01,-1.781250000000000000e+01,-1.012500000000000000e+01
7.700000000000005729e-01,-3.000000000000000000e+00,-3.000000000000000000e+00,-2.000000000000000000e+00,-6.000000000000000000e+00,8.000000000000000000e+00,-1.100000000000000000e+01,-4.000000000000000000e+00,-2.000000000000000000e+00,3.397216796875000000e-01,4.388427734375000000e-01,-7.139892578125000000e-01,-4.269409179687500000e-01,-2.250976562500000000e-01,-9.516601562500000000e-01,4.555664062500000000e-01,-1.637500000000000000e+01,-1.781250000000000000e+01,-1.012500000000000000e+01
7.750000000000005773e-01,-3.000000000000000000e+00,-3.000000000000000000e+00,-2.000000000000000000e+00,-6.000000000000000000e+00,8.000000000000000000e+00,-1.100000000000000000e+01,-4.000000000000000000e+00,-2.000000000000000000e+00,3.397216796875000000e-01,4.388427734375000000e-01,-7.139892578125000000e-01,-4.269409179687500000e-01,-2.250976562500000000e-01,-9.516601562500000000e-01,4.555664062500000000e-01,-1.637500000000000000e+01,-1.781250000000000000e+01,-1.012500000000000000e+01
7.800000000000005818e-01,-2.000000000000000000e+00,0.000000000000000000e+00,-1.000000000000000000e+00,7.000000000000000000e+00,-1.000000000000000000e+00,4.000000000000000000e+00,-1.000000000000000000e+00,0.000000000000000000e+00,3.380126953125000000e-01,4.417114257812500000e-01,-7.141723632812500000e-01,-4.249877929687500000e-01,-2.036132812500000000e-01,-9.355468750000000000e-01,4.458007812500000000e-01,-1.456250000000000000e+01,-2.150000000000000000e+01,-7.625000000000000000e+00
7.850000000000005862e-01,-2.000000000000000000e+00,0.000000000000000000e+00,-1.000000000000000000e+00,7.000000000000000000e+00,-1.000000000000000000e+00,4.000000000000000000e+00,-1.000000000000000000e+00,0.000000000000000000e+00,3.380126953125000000e-01,4.417114257812500000e-01,-7.141723632812500000e-01,-4.249877929687500000e-01,-2.036132812500000000e-01,-9.355468750000000000e-01,4.458007812500000000e-01,-1.456250000000000000e+01,-2.150000000000000000e+01,-7.625000000000000000e+00
7.900000000000005906e-01,-2.000000000000000000e+00,0.000000000000000000e+00,-1.000000000000000000e+00,7.000000000000000000e+00,-1.000000000000000000e+00,4.000000000000000000e+00,-1.000000000000000000e+00,0.000000000000000000e+00,3.380126953125000000e-01,4.417114257812500000e-01,-7.141723632812500000e-01,-4.249877929687500000e-01,-2.036132812500000000e-01,-9.355468750000000000e-01,4.458007812500000000e-01,-1.456250000000000000e+01,-2.150000000000000000e+01,-7.625000000000000000e+00
7.950000000000005951e-01,-2.000000000000000000e+00,0.000000000000000000e+00,-1.000000000000000000e+00,7.000000000000000000e+00,-1.000000000000000000e+00,4.000000000000000000e+00,-1.000000000000000000e+00,0.000000000000000000e+00,3.380126953125000000e-01,4.417114257812500000e-01,-7.141723632812500000e-01,-4.249877929687500000e-01,-2.036132812500000000e-01,-9.355468750000000000e-01,4.458007812500000000e-01,-1.456250000000000000e+01,-2.150000000000000000e+01,-7.625000000000000000e+00
8.000000000000005995e-01,-5.000000000000000000e+00,-4.000000000000000000e+00,-3.000000000000000000e+00,-1.200000000000000000e+01,1.000000000000000000e+00,1.500000000000000000e+01,6.000000000000000000e+00,0.000000000000000000e+00,3.380126953125000000e-01,4.417114257812500000e-01,-7.141723632812500000e-01,-4.249877929687500000e-01,-2.036132812500000000e-01,-9.355468750000000000e-01,4.458007812500000000e-01,-1.456250000000000000e+01,-2.150000000000000000e+01,-7.625000000000000000e+00
8.050000000000006040e-01,-5.000000000000000000e+00,-4.000000000000000000e+00,-3.000000000000000000e+00,-1.200000000000000000e+01,1.000000000000000000e+00,1.500000000000000000e+01,6.000000000000000000e+00,0.000000000000000000e+00,3.363037109375000000e-01,4.443969726562500000e-01,-7.145996093750000000e-01,-4.227905273437500000e-01,-1.928710937500000000e-01,-9.003906250000000000e-01,4.248046875000000000e-01,-1.343750000000000000e+01,-2.187500000000000000e+01,-5.375000000000000000e+00
8.100000000000006084e-01,-5.000000000000000000e+00,-4.000000000000000000e+00,-3.000000000000000000e+00,-1.200000000000000000e+01,1.000000000000000000e+00,1.500000000000000000e+01,6.000000000000000000e+00,0.000000000000000000e+00,3.363037109375000000e-01,4.443969726562500000e-01,-7.145996093750000000e-01,-4.227905273437500000e-01,-1.928710937500000000e-01,-9.003906250000000000e-01,4.248046875000000000e-01,-1.343750000000000000e+01,-2.187500000000000000e+01,-5.375000000000000000e+00
8.150000000000006128e-01,6.000000000000000000e+00,1.000000000000000000e+00,3.000000000000000000e+00,-6.000000000000000000e+00,-3.000000000000000000e+00,1.700000000000000000e+01,3.000000000000000000e+00,3.000000000000000000e+00,3.363037109375000000e-01,4.443969726562500000e-01,-7.145996093750000000e-01,-4.227905273437500000e-01,-1.928710937500000000e-01,-9.003906250000000000e-01,4.248046875000000000e-01,-1.343750000000000000e+01,-2.187500000000000000e+01,-5.375000000000000000e+00
8.200000000000006173e-01,6.000000000000000000e+00,1.000000000000000000e+00,3.000000000000000000e+00,-6.000000000000000000e+00,-3.000000000000000000e+00,1.700000000000000000e+01,3.000000000000000000e+00,3.000000000000000000e+00,3.363037109375000000e-01,4.443969726562500000e-01,-7.145996093750000000e-01,-4.227905273437500000e-01,-1.928710937500000000e-01,-9.003906250000000000e-01,4.248046875000000000e-01,-1.343750000000000000e+01,-2.187500000000000000e+01,-5.375000000000000000e+00
8.250000000000006217e-01,-6.000000000000000000e+00,0.000000000000000000e+00,3.000000000000000000e+00,-5.000000000000000000e+00,3.000000000000000000e+00,-1.500000000000000000e+01,-8.000000000000000000e+00,-2.000000000000000000e+00,3.363037109375000000e-01,4.443969726562500000e-01,-7.145996093750000000e-01,-4.227905273437500000e-01,-1.928710937500000000e-01,-9.003906250000000000e-01,4.248046875000000000e-01,-1.343750000000000000e+01,-2.187500000000000000e+01,-5.375000000000000000e+00
8.300000000000006262e-01,-6.000000000000000000e+00,0.000000000000000000e+00,3.000000000000000000e+00,-5.000000000000000000e+00,3.000000000000000000e+00,-1.500000000000000000e+01,-8.000000000000000000e+00,-2.000000000000000000e+00,3.363037109375000000e-01,4.443969726562500000e-01,-7.145996093750000000e-01,-4.227905273437500000e-01,-1.928710937500000000e-01,-9.003906250000000000e-01,4.248046875000000000e-01,-1.343750000000000000e+01,-2.187500000000000000e+01,-5.375000000000000000e+00
8.350000000000006306e-01,-6.000000000000000000e+00,0.000000000000000000e+00,3.000000000000000000e+00,-5.000000000000000000e+00,3.000000000000000000e+00,-1.500000000000000000e+01,-8.000000000000000000e+00,-2.000000000000000000e+00,3.352661132812500000e-01,4.474487304687500000e-01,-7.147216796875000000e-01,-4.201660156250000000e-01,-1.879882812500000000e-01,-8.818359375000000000e-01,3.857421875000000000e-01,-1.662500000000000000e+01,-2.087500000000000000e+01,-3.250000000000000000e+00
8.400000000000006350e-01,-6.000000000000000000e+00,0.000000000000000000e+00,3.000000000000000000e+00,-5.000000000000000000e+00,3.000000000000000000e+00,-1.500000000000000000e+01,-8.000000000000000000e+00,-2.000000000000000000e+00,3.352661132812500000e-01,4.474487304687500000e-01,-7.147216796875000000e-01,-4.201660156250000000e-01,-1.879882812500000000e-01,-8.818359375000000000e-01,3.857421875000000000e-01,-1.662500000000000000e+01,-2.087500000000000000e+01,-3.250000000000000000e+00
8.450000000000006395e-01,-1.000000000000000000e+00,-3.000000000000000000e+00,-1.800000000000000000e+01,-5.100000000000000000e+01,-1.800000000000000000e+01,-5.400000000000000000e+01,-4.000000000000000000e+00,-1.000000000000000000e+00,3.352661132812500000e-01,4.474487304687500000e-01,-7.147216796875000000e-01,-4.201660156250000000e-01,-1.879882812500000000e-01,-8.818359375000000000e-01,3.857421875000000000e-01,-1.662500000000000000e+01,-2.087500000000000000e+01,-3.250000000000000000e+00
8.500000000000006439e-01,-1.000000000000000000e+00,-3.000000000000000000e+00,-1.800000000000000000e+01,-5.100000000000000000e+01,-1.800000000000000000e+01,-5.400000000000000000e+01,-4.000000000000000000e+00,-1.000000000000000000e+00,3.352661132812500000e-01,4.474487304687500000e-01,-7.147216796875000000e-01,-4.201660156250000000e-01,-1.879882812500000000e-01,-8.818359375000000000e-01,3.857421875000000000e-01,-1.662500000000000000e+01,-2.087500000000000000e+01,-3.250000000000000000e+00
8.550000000000006484e-01,-1.000000000000000000e+00,-3.000000000000000000e+00,-1.800000000000000000e+01,-5.100000000000000000e+01,-1.800000000000000000e+01,-5.400000000000000000e+01,-4.000000000000000000e+00,-1.000000000000000000e+00,3.352661132812500000e-01,4.474487304687500000e-01,-7.147216796875000000e-01,-4.201660156250000000e-01,-1.879882812500000000e-01,-8.818359375000000000e-01,3.857421875000000000e-01,-1.662500000000000000e+01,-2.087500000000000000e+01,-3.250000000000000000e+00
8.600000000000006528e-01,-2.000000000000000000e+00,-2.000000000000000000e+00,-2.000000000000000000e+00,8.000000000000000000e+00,1.000000000000000000e+01,2.200000000000000000e+01,8.000000000000000000e+00,-1.000000000000000000e+00,3.348388671875000000e-01,4.508056640625000000e-01,-7.143554687500000000e-01,-4.175415039062500000e-01,-1.899414062500000000e-01,-8.945312500000000000e-01,3.637695312500000000e-01,-1.912500000000000000e+01,-1.806250000000000000e+01,-3.687500000000000000e+00
8.650000000000006573e-01,-2.000000000000000000e+00,-2.000000000000000000e+00,-2.000000000000000000e+00,8.000000000000000000e+00,1.000000000000000000e+01,2.200000000000000000e+01,8.000000000000000000e+00,-1.000000000000000000e+00,3.348388671875000000e-01,4.508056640625000000e-01,-7.143554687500000000e-01,-4.175415039062500000e-01,-1.899414062500000000e-01,-8.945312500000000000e-01,3.637695312500000000e-01,-1.912500000000000000e+01,-1.806250000000000000e+01,-3.687500000000000000e+00
8.700000000000006617e-01,-2.000000000000000000e+00,-2.000000000000000000e+00,-2.000000000000000000e+00,8.000000000000000000e+00,1.000000000000000000e+01,2.200000000000000000e+01,8.000000000000000000e+00,-1.000000000000000000e+00,3.348388671875000000e-01,4.508056640625000000e-01,-7.143554687500000000e-01,-4.175415039062500000e-01,-1.899414062500000000e-01,-8.945312500000000000e-01,3.637695312500000000e-01,-1.912500000000000000e+01,-1.806250000000000000e+01,-3.687500000000000000e+00
8.750000000000006661e-01,1.000000000000000000e+00,0.000000000000000000e+00,-2.000000000000000000e+00,-1.000000000000000000e+01,-6.000000000000000000e+00,1.300000000000000000e+01,-4.000000000000000000e+00,-2.000000000000000000e+00,3.348388671875000000e-01,4.508056640625000000e-01,-7.143554687500000000e-01,-4.175415039062500000e-01,-1.899414062500000000e-01,-8.945312500000000000e-01,3.637695312500000000e-01,-1.912500000000000000e+01,-1.806250000000000000e+01,-3.687500000000000000e+00
8.800000000000006706e-01,-1.000000000000000000e+00,-1.000000000000000000e+00,1.000000000000000000e+00,0.000000000000000000e+00,1.400000000000000000e+01,-2.000000000000000000e+00,0.000000000000000000e+00,-1.000000000000000000e+00,3.348388671875000000e-01,4.508056640625000000e-01,-7.143554687500000000e-01,-4.175415039062500000e-01,-1.899414062500000000e-01,-8.945312500000000000e-01,3.637695312500000000e-01,-1.912500000000000000e+01,-1.806250000000000000e+01,-3.687500000000000000e+00
8.850000000000006750e-01,-1.000000000000000000e+00,-1.000000000000000000e+00,1.000000000000000000e+00,0.000000000000000000e+00,1.400000000000000000e+01,-2.000000000000000000e+00,0.000000000000000000e+00,-1.000000000000000000e+00,3.345947265625000000e-01,4.541015625000000000e-01,-7.135620117187500000e-01,-4.155883789062500000e-01,-1.821289062500000000e-01,-8.920898437500000000e-01,3.471679687500000000e-01,-1.862500000000000000e+01,-1.462500000000000000e+01,-6.375000000000000000e+00
8.900000000000006795e-01,-1.000000000000000000e+00,-1.000000000000000000e+00,1.000000000000000000e+00,0.000000000000000000e+00,1.400000000000000000e+01,-2.000000000000000000e+00,0.000000000000000000e+00,-1.000000000000000000e+00,3.345947265625000000e-01,4.541015625000000000e-01,-7.135620117187500000e-01,-4.155883789062500000e-01,-1.821289062500000000e-01,-8.920898437500000000e-01,3.471679687500000000e-01,-1.862500000000000000e+01,-1.462500000000000000e+01,-6.375000000000000000e+00
8.950000000000006839e-01,-1.000000000000000000e+00,-1.000000000000000000e+00,1.000000000000000000e+00,0.000000000000000000e+00,1.400000000000000000e+01,-2.000000000000000000e+00,0.000000000000000000e+00,-1.000000000000000000e+00,3.345947265625000000e-01,4.541015625000000000e-01,-7.135620117187500000e-01,-4.155883789062500000e-01,-1.821289062500000000e-01,-8.920898437500000000e-01,3.471679687500000000e-01,-1.862500000000000000e+01,-1.462500000000000000e+01,-6.375000000000000000e+00
9.000000000000006883e-01,6.000000000000000000e+00,1.000000000000000000e+00,4.000000000000000000e+00,1.800000000000000000e+01,-1.000000000000000000e+00,6.000000000000000000e+00,-4.000000000000000000e+00,-1.000000000000000000e+00,3.345947265625000000e-01,4.541015625000000000e-01,-7.135620117187500000e-01,-4.155883789062500000e-01,-1.821289062500000000e-01,-8.920898437500000000e-01,3.471679687500000000e-01,-1.862500000000000000e+01,-1.462500000000000000e+01,-6.375000000000000000e+00
9.050000000000008038e-01,3.000000000000000000e+00,1.000000000000000000e+00,2.000000000000000000e+00,1.300000000000000000e+01,-8.000000000000000000e+00,-7.000000000000000000e+00,-7.000000000000000000e+00,-3.000000000000000000e+00,3.345947265625000000e-01,4.541015625000000000e-01,-7.135620117187500000e-01,-4.155883789062500000e-01,-1.821289062500000000e-01,-8.920898437500000000e-01,3.471679687500000000e-01,-1.862500000000000000e+01,-1.462500000000000000e+01,-6.375000000000000000e+00
9.100000000000008082e-01,3.000000000000000000e+00,1.000000000000000000e+00,2.000000000000000000e+00,1.300000000000000000e+01,-8.000000000000000000e+00,-7.000000000000000000e+00,-7.000000000000000000e+00,-3.000000000000000000e+00,3.345947265625000000e-01,4.541015625000000000e-01,-7.135620117187500000e-01,-4.155883789062500000e-01,-1.821289062500000000e-01,-8.920898437500000000e-01,3.471679687500000000e-01,-1.862500000000000000e+01,-1.462500000000000000e+01,-6.375000000000000000e+00
9.150000000000008127e-01,3.000000000000000000e+00,1.000000000000000000e+00,2.000000000000000000e+00,1.300000000000000000e+01,-8.000000000000000000e+00,-7.000000000000000000e+00,-7.000000000000000000e+00,-3.000000000000000000e+00,3.345336914062500000e-01,4.575805664062500000e-01,-7.124023437500000000e-01,-4.137573242187500000e-01,-1.718750000000000000e-01,-8.940429687500000000e-01,3.417968750000000000e-01,-2.068750000000000000e+01,-1.318750000000000000e+01,-7.125000000000000000e+00
9.200000000000008171e-01,1.000000000000000000e+00,-3.000000000000000000e+00,-5.000000000000000000e+00,-8.000000000000000000e+00,0.000000000000000000e+00,1.000000000000000000e+01,-4.000000000000000000e+00,-2.000000000000000000e+00,3.345336914062500000e-01,4.575805664062500000e-01,-7.124023437500000000e-01,-4.137573242187500000e-01,-1.718750000000000000e-01,-8.940429687500000000e-01,3.417968750000000000e-01,-2.068750000000000000e+01,-1.318750000000000000e+01,-7.125000000000000000e+00
9.250000000000008216e-01,-1.000000000000000000e+00,-2.000000000000000000e+00,4.000000000000000000e+00,1.300000000000000000e+01,2.000000000000000000e+00,2.100000000000000000e+01,3.000000000000000000e+00,0.000000000000000000e+00,3.345336914062500000e-01,4.575805664062500000e-01,-7.124023437500000000e-01,-4.137573242187500000e-01,-1.718750000000000000e-01,-8.940429687500000000e-01,3.417968750000000000e-01,-2.068750000000000000e+01,-1.318750000000000000e+01,-7.125000000000000000e+00
9.300000000000008260e-01,-1.000000000000000000e+00,-2.000000000000000000e+00,4.000000000000000000e+00,1.300000000000000000e+01,2.000000000000000000e+00,2.100000000000000000e+01,3.000000000000000000e+00,0.000000000000000000e+00,3.348999023437500000e-01,4.613037109375000000e-01,-7.108764648437500000e-01,-4.119262695312500000e-01,-1.655273437500000000e-01,-8.974609375000000000e-01,3.393554687500000000e-01,-2.368750000000000000e+01,-1.125000000000000000e+01,-7.250000000000000000e+00
9.350000000000008304e-01,-1.000000000000000000e+00,-2.000000000000000000e+00,4.000000000000000000e+00,1.300000000000000000e+01,2.000000000000000000e+00,2.100000000000000000e+01,3.000000000000000000e+00,0.000000000000000000e+00,3.348999023437500000e-01,4.613037109375000000e-01,-7.108764648437500000e-01,-4.119262695312500000e-01,-1.655273437500000000e-01,-8.974609375000000000e-01,3.393554687500000000e-01,-2.368750000000000000e+01,-1.125000000000000000e+01,-7.250000000000000000e+00
9.400000000000008349e-01,-1.000000000000000000e+00,-2.000000000000000000e+00,4.000000000000000000e+00,1.300000000000000000e+01,2.000000000000000000e+00,2.100000000000000000e+01,3.000000000000000000e+00,0.000000000000000000e+00,3.348999023437500000e-01,4.613037109375000000e-01,-7.108764648437500000e-01,-4.119262695312500000e-01,-1.655273437500000000e-01,-8.974609375000000000e-01,3.393554687500000000e-01,-2.368750000000000000e+01,-1.125000000000000000e+01,-7.250000000000000000e+00
9.450000000000008393e-01,-4.000000000000000000e+00,-1.000000000000000000e+00,1.000000000000000000e+00,-6.000000000000000000e+00,1.000000000000000000e+00,-5.000000000000000000e+00,-1.000000000000000000e+00,-3.000000000000000000e+00,3.348999023437500000e-01,4.613037109375000000e-01,-7.108764648437500000e-01,-4.119262695312500000e-01,-1.655273437500000000e-01,-8.974609375000000000e-01,3.393554687500000000e-01,-2.368750000000000000e+01,-1.125000000000000000e+01,-7.250000000000000000e+00
9.500000000000008438e-01,-4.000000000000000000e+00,-1.000000000000000000e+00,1.000000000000000000e+00,-6.000000000000000000e+00,1.000000000000000000e+00,-5.000000000000000000e+00,-1.000000000000000000e+00,-3.000000000000000000e+00,3.353881835937500000e-01,4.652099609375000000e-01,-7.092285156250000000e-01,-4.100341796875000000e-01,-1.713867187500000000e-01,-9.013671875000000000e-01,3.461914062500000000e-01,-2.612500000000000000e+01,-1.050000000000000000e+01,-7.812500000000000000e+00
9.550000000000008482e-01,-2.000000000000000000e+00,-1.000000000000000000e+00,-2.000000000000000000e+00,9.000000000000000000e+00,-1.000000000000000000e+00,7.000000000000000000e+00,1.800000000000000000e+01,0.000000000000000000e+00,3.353881835937500000e-01,4.652099609375000000e-01,-7.092285156250000000e-01,-4.100341796875000000e-01,-1.713867187500000000e-01,-9.013671875000000000e-01,3.461914062500000000e-01,-2.612500000000000000e+01,-1.050000000000000000e+01,-7.812500000000000000e+00
9.600000000000008527e-01,-2.000000000000000000e+00,-1.000000000000000000e+00,-2.000000000000000000e+00,9.000000000000000000e+00,-1.000000000000000000e+00,7.000000000000000000e+00,1.800000000000000000e+01,0.000000000000000000e+00,3.353881835937500000e-01,4.652099609375000000e-01,-7.092285156250000000e-01,-4.100341796875000000e-01,-1.713867187500000000e-01,-9.013671875000000000e-01,3.461914062500000000e-01,-2.612500000000000000e+01,-1.050000000000000000e+01,-7.812500000000000000e+00
9.650000000000007461e-01,3.000000000000000000e+00,-1.000000000000000000e+00,0.000000000000000000e+00,-9.000000000000000000e+00,-1.200000000000000000e+01,-1.300000000000000000e+01,-1.700000000000000000e+01,-5.000000000000000000e+00,3.353881835937500000e-01,4.652099609375000000e-01,-7.092285156250000000e-01,-4.100341796875000000e-01,-1.713867187500000000e-01,-9.013671875000000000e-01,3.461914062500000000e-01,-2.612500000000000000e+01,-1.050000000000000000e+01,-7.812500000000000000e+00
9.700000000000007505e-01,-1.000000000000000000e+00,-2.000000000000000000e+00,-8.000000000000000000e+00,-1.200000000000000000e+01,7.000000000000000000e+00,-3.000000000000000000e+00,4.000000000000000000e+00,-2.000000000000000000e+00,3.356933593750000000e-01,4.692382812500000000e-01,-7.074584960937500000e-01,-4.082641601562500000e-01,-1.577148437500000000e-01,-9.375000000000000000e-01,3.422851562500000000e-01,-2.587500000000000000e+01,-1.131250000000000000e+01,-8.125000000000000000e+00
9.750000000000007550e-01,-1.000000000000000000e+00,-2.000000000000000000e+00,-8.000000000000000000e+00,-1.200000000000000000e+01,7.000000000000000000e+00,-3.000000000000000000e+00,4.000000000000000000e+00,-2.000000000000000000e+00,3.356933593750000000e-01,4.692382812500000000e-01,-7.074584960937500000e-01,-4.082641601562500000e-01,-1.577148437500000000e-01,-9.375000000000000000e-01,3.422851562500000000e-01,-2.587500000000000000e+01,-1.131250000000000000e+01,-8.125000000000000000e+00
9.800000000000007594e-01,-1.000000000000000000e+00,-2.000000000000000000e+00,-8.000000000000000000e+00,-1.200000000000000000e+01,7.000000000000000000e+00,-3.000000000000000000e+00,4.000000000000000000e+00,-2.000000000000000000e+00,3.356933593750000000e-01,4.692382812500000000e-01,-7.074584960937500000e-01,-4.082641601562500000e-01,-1.577148437500000000e-01,-9.375000000000000000e-01,3.422851562500000000e-01,-2.587500000000000000e+01,-1.131250000000000000e+01,-8.125000000000000000e+00
9.850000000000007638e-01,-1.000000000000000000e+00,-2.000000000000000000e+00,-8.000000000000000000e+00,-1.200000000000000000e+01,7.000000000000000000e+00,-3.000000000000000000e+00,4.000000000000000000e+00,-2.000000000000000000e+00,3.356933593750000000e-01,4.692382812500000000e-01,-7.074584960937500000e-01,-4.082641601562500000e-01,-1.577148437500000000e-01,-9.375000000000000000e-01,3.422851562500000000e-01,-2.587500000000000000e+01,-1.131250000000000000e+01,-8.125000000000000000e+00
9.900000000000007683e-01,-1.000000000000000000e+00,-2.000000000000000000e+00,-8.000000000000000000e+00,-1.200000000000000000e+01,7.000000000000000000e+00,-3.000000000000000000e+00,4.000000000000000000e+00,-2.000000000000000000e+00,3.356933593750000000e-01,4.692382812500000000e-01,-7.074584960937500000e-01,-4.082641601562500000e-01,-1.577148437500000000e-01,-9.375000000000000000e-01,3.422851562500000000e-01,-2.587500000000000000e+01,-1.131250000000000000e+01,-8.125000000000000000e+00
9.950000000000007727e-01,-3.000000000000000000e+00,-5.000000000000000000e+00,-1.300000000000000000e+01,-2.200000000000000000e+01,-1.000000000000000000e+01,-4.000000000000000000e+00,-9.000000000000000000e+00,-4.000000000000000000e+00,3.357543945312500000e-01,4.727783203125000000e-01,-7.059936523437500000e-01,-4.066162109375000000e-01,-1.469726562500000000e-01,-9.375000000000000000e-01,3.383789062500000000e-01,-2.225000000000000000e+01,-1.081250000000000000e+01,-7.312500000000000000e+00
1.000000000000000888e+00,-3.000000000000000000e+00,-5.000000000000000000e+00,-1.300000000000000000e+01,-2.200000000000000000e+01,-1.000000000000000000e+01,-4.000000000000000000e+00,-9.000000000000000000e+00,-4.000000000000000000e+00,3.357543945312500000e-01,4.727783203125000000e-01,-7.059936523437500000e-01,-4.066162109375000000e-01,-1.469726562500000000e-01,-9.375000000000000000e-01,3.383789062500000000e-01,-2.225000000000000000e+01,-1.081250000000000000e+01,-7.312500000000000000e+00
1.005000000000000560e+00,-5.000000000000000000e+00,-2.000000000000000000e+00,-9.000000000000000000e+00,-1.100000000000000000e+01,5.000000000000000000e+00,5.200000000000000000e+01,5.000000000000000000e+00,-5.000000000000000000e+00,3.357543945312500000e-01,4.727783203125000000e-01,-7.059936523437500000e-01,-4.066162109375000000e-01,-1.469726562500000000e-01,-9.375000000000000000e-01,3.383789062500000000e-01,-2.225000000000000000e+01,-1.081250000000000000e+01,-7.312500000000000000e+00
1.010000000000000453e+00,-5.000000000000000000e+00,-2.000000000000000000e+00,-9.000000000000000000e+00,-1.100000000000000000e+01,5.000000000000000000e+00,5.200000000000000000e+01,5.000000000000000000e+00,-5.000000000000000000e+00,3.357543945312500000e-01,4.727783203125000000e-01,-7.059936523437500000e-01,-4.066162109375000000e-01,-1.469726562500000000e-01,-9.375000000000000000e-01,3.383789062500000000e-01,-2.225000000000000000e+01,-1.081250000000000000e+01,-7.312500000000000000e+00
1.015000000000000346e+00,1.000000000000000000e+00,2.000000000000000000e+00,5.000000000000000000e+00,0.000000000000000000e+00,-7.000000000000000000e+00,-4.000000000000000000e+01,-8.000000000000000000e+00,0.000000000000000000e+00,3.358154296875000000e-01,4.760742187500000000e-01,-7.045898437500000000e-01,-4.051513671875000000e-01,-1.240234375000000000e-01,-9.379882812500000000e-01,3.349609375000000000e-01,-2.156250000000000000e+01,-9.500000000000000000e+00,-6.062500000000000000e+00
1.020000000000000240e+00,-2.000000000000000000e+00,0.000000000000000000e+00,8.000000000000000000e+00,1.000000000000000000e+01,-2.000000000000000000e+00,3.000000000000000000e+00,-5.000000000000000000e+00,-1.000000000000000000e+00,3.358154296875000000e-01,4.760742187500000000e-01,-7.045898437500000000e-01,-4.051513671875000000e-01,-1.240234375000000000e-01,-9.379882812500000000e-01,3.349609375000000000e-01,-2.156250000000000000e+01,-9.500000000000000000e+00,-6.062500000000000000e+00
1.024999999999999911e+00,-3.000000000000000000e+00,-2.000000000000000000e+00,-5.000000000000000000e+00,7.000000000000000000e+00,1.000000000000000000e+00,1.200000000000000000e+01,1.600000000000000000e+01,-2.000000000000000000e+00,3.358154296875000000e-01,4.760742187500000000e-01,-7.045898437500000000e-01,-4.051513671875000000e-01,-1.240234375000000000e-01,-9.379882812500000000e-01,3.349609375000000000e-01,-2.156250000000000000e+01,-9.500000000000000000e+00,-6.062500000000000000e+00
1.030000000000000027e+00,-3.000000000000000000e+00,-2.000000000000000000e+00,-5.000000000000000000e+00,7.000000000000000000e+00,1.000000000000000000e+00,1.200000000000000000e+01,1.600000000000000000e+01,-2.000000000000000000e+00,3.358154296875000000e-01,4.760742187500000000e-01,-7.045898437500000000e-01,-4.051513671875000000e-01,-1.240234375000000000e-01,-9.379882812500000000e-01,3.349609375000000000e-01,-2.156250000000000000e+01,-9.500000000000000000e+00,-6.062500000000000000e+00
1.034999999999999920e+00,-3.000000000000000000e+00,-2.000000000000000000e+00,-5.000000000000000000e+00,7.000000000000000000e+00,1.000000000000000000e+00,1.200000000000000000e+01,1.600000000000000000e+01,-2.000000000000000000e+00,3.358154296875000000e-01,4.760742187500000000e-01,-7.045898437500000000e-01,-4.051513671875000000e-01,-1.240234375000000000e-01,-9.379882812500000000e-01,3.349609375000000000e-01,-2.156250000000000000e+01,-9.500000000000000000e+00,-6.062500000000000000e+00
1.039999999999999813e+00,-3.000000000000000000e+00,-2.000000000000000000e+00,-5.000000000000000000e+00,7.000000000000000000e+00,1.000000000000000000e+00,1.200000000000000000e+01,1.600000000000000000e+01,-2.000000000000000000e+00,3.358154296875000000e-01,4.760742187500000000e-01,-7.045898437500000000e-01,-4.051513671875000000e-01,-1.240234375000000000e-01,-9.379882812500000000e-01,3.349609375000000000e-01,-2.156250000000000000e+01,-9.500000000000000000e+00,-6.062500000000000000e+00
1.044999999999999707e+00,-1.000000000000000000e+00,1.000000000000000000e+00,-1.000000000000000000e+00,-1.000000000000000000e+00,-1.000000000000000000e+00,-2.000000000000000000e+00,-4.000000000000000000e+00,-2.000000000000000000e+00,3.359375000000000000e-01,4.791259765625000000e-01,-7.034912109375000000e-01,-4.033203125000000000e-01,-1.132812500000000000e-01,-9.555664062500000000e-01,3.315429687500000000e-01,-2.000000000000000000e+01,-9.937500000000000000e+00,-2.500000000000000000e+00
1.049999999999999600e+00,-1.000000000000000000e+00,-1.000000000000000000e+00,6.000000000000000000e+00,1.600000000000000000e+01,-6.000000000000000000e+00,-6.000000000000000000e+00,-6.000000000000000000e+00,1.000000000000000000e+00,3.363647460937500000e-01,4.819335937500000000e-01,-7.025756835937500000e-01,-4.012451171875000000e-01,-9.472656250000000000e-02,-9.394531250000000000e-01,3.188476562500000000e-01,-1.956250000000000000e+01,-9.000000000000000000e+00,1.625000000000000000e+00
1.054999999999999494e+00,-1.000000000000000000e+00,-1.000000000000000000e+00,6.000000000000000000e+00,1.600000000000000000e+01,-6.000000000000000000e+00,-6.000000000000000000e+00,-6.000000000000000000e+00,1.000000000000000000e+00,3.363647460937500000e-01,4.819335937500000000e-01,-7.025756835937500000e-01,-4.012451171875000000e-01,-9.472656250000000000e-02,-9.394531250000000000e-01,3.188476562500000000e-01,-1.956250000000000000e+01,-9.000000000000000000e+00,1.625000000000000000e+00
1.059999999999999387e+00,-1.000000000000000000e+00,-1.000000000000000000e+00,6.000000000000000000e+00,1.600000000000000000e+01,-6.000000000000000000e+00,-6.000000000000000000e+00,-6.000000000000000000e+00,1.000000000000000000e+00,3.363647460937500000e-01,4.819335937500000000e-01,-7.025756835937500000e-01,-4.012451171875000000e-01,-9.472656250000000000e-02,-9.394531250000000000e-01,3.188476562500000000e-01,-1.956250000000000000e+01,-9.000000000000000000e+00,1.625000000000000000e+00
1.064999999999999281e+00,-1.000000000000000000e+00,-1.000000000000000000e+00,0.000000000000000000e+00,8.000000000000000000e+00,6.000000000000000000e+00,-5.000000000000000000e+00,-6.000000000000000000e+00,-1.000000000000000000e+00,3.363647460937500000e-01,4.819335937500000000e-01,-7.025756835937500000e-01,-4.012451171875000000e-01,-9.472656250000000000e-02,-9.394531250000000000e-01,3.188476562500000000e-01,-1.956250000000000000e+01,-9.000000000000000000e+00,1.625000000000000000e+00
1.069999999999999174e+00,-1.000000000000000000e+00,-1.000000000000000000e+00,0.000000000000000000e+00,8.000000000000000000e+00,6.000000000000000000e+00,-5.000000000000000000e+00,-6.000000000000000000e+00,-1.000000000000000000e+00,3.363647460937500000e-01,4.819335937500000000e-01,-7.025756835937500000e-01,-4.012451171875000000e-01,-9.472656250000000000e-02,-9.394531250000000000e-01,3.188476562500000000e-01,-1.956250000000000000e+01,-9.000000000000000000e+00,1.625000000000000000e+00
1.074999999999999067e+00,0.000000000000000000e+00,0.000000000000000000e+00,-1.000000000000000000e+00,-1.100000000000000000e+01,-2.000000000000000000e+00,-3.000000000000000000e+00,1.000000000000000000e+00,0.000000000000000000e+00,3.373413085937500000e-01,4.846191406250000000e-01,-7.016601562500000000e-01,-3.987426757812500000e-01,-8.886718750000000000e-02,-9.477539062500000000e-01,2.993164062500000000e-01,-2.025000000000000000e+01,-7.375000000000000000e+00,5.187500000000000000e+00
1.079999999999998961e+00,3.000000000000000000e+00,-3.000000000000000000e+00,-4.000000000000000000e+00,-8.000000000000000000e+00,-4.000000000000000000e+00,6.000000000000000000e+00,-2.000000000000000000e+00,-1.000000000000000000e+00,3.373413085937500000e-01,4.846191406250000000e-01,-7.016601562500000000e-01,-3.987426757812500000e-01,-8.886718750000000000e-02,-9.477539062500000000e-01,2.993164062500000000e-01,-2.025000000000000000e+01,-7.375000000000000000e+00,5.187500000000000000e+00
1.084999999999998854e+00,3.000000000000000000e+00,-3.000000000000000000e+00,-4.000000000000000000e+00,-8.000000000000000000e+00,-4.000000000000000000e+00,6.000000000000000000e+00,-2.000000000000000000e+00,-1.000000000000000000e+00,3.373413085937500000e-01,4.846191406250000000e-01,-7.016601562500000000e-01,-3.987426757812500000e-01,-8.886718750000000000e-02,-9.477539062500000000e-01,2.993164062500000000e-01,-2.025000000000000000e+01,-7.375000000000000000e+00,5.187500000000000000e+00
1.089999999999998748e+00,3.000000000000000000e+00,1.000000000000000000e+00,2.000000000000000000e+00,8.000000000000000000e+00,0.000000000000000000e+00,-2.400000000000000000e+01,-3.000000000000000000e+00,-1.000000000000000000e+00,3.373413085937500000e-01,4.846191406250000000e-01,-7.016601562500000000e-01,-3.987426757812500000e-01,-8.886718750000000000e-02,-9.477539062500000000e-01,2.993164062500000000e-01,-2.025000000000000000e+01,-7.375000000000000000e+00,5.187500000000000000e+00
1.094999999999998641e+00,0.000000000000000000e+00,-3.000000000000000000e+00,-7.000000000000000000e+00,-7.000000000000000000e+00,-6.000000000000000000e+00,2.200000000000000000e+01,1.000000000000000000e+00,1.000000000000000000e+00,3.373413085937500000e-01,4.846191406250000000e-01,-7.016601562500000000e-01,-3.987426757812500000e-01,-8.886718750000000000e-02,-9.477539062500000000e-01,2.993164062500000000e-01,-2.025000000000000000e+01,-7.375000000000000000e+00,5.187500000000000000e+00
1.099999999999998312e+00,0.000000000000000000e+00,-3.000000000000000000e+00,-7.000000000000000000e+00,-7.000000000000000000e+00,-6.000000000000000000e+00,2.200000000000000000e+01,1.000000000000000000e+00,1.000000000000000000e+00,3.386840820312500000e-01,4.872436523437500000e-01,-7.006225585937500000e-01,-3.962402343750000000e-01,-7.861328125000000000e-02,-9.843750000000000000e-01,2.949218750000000000e-01,-2.081250000000000000e+01,-5.375000000000000000e+00,7.125000000000000000e+00
1.104999999999998428e+00,-5.000000000000000000e+00,-2.000000000000000000e+00,0.000000000000000000e+00,-2.000000000000000000e+00,4.000000000000000000e+00,-8.000000000000000000e+00,-2.000000000000000000e+00,-3.000000000000000000e+00,3.386840820312500000e-01,4.872436523437500000e-01,-7.006225585937500000e-01,-3.962402343750000000e-01,-7.861328125000000000e-02,-9.843750000000000000e-01,2.949218750000000000e-01,-2.081250000000000000e+01,-5.375000000000000000e+00,7.125000000000000000e+00
1.109999999999998321e+00,-5.000000000000000000e+00,-2.000000000000000000e+00,0.000000000000000000e+00,-2.000000000000000000e+00,4.000000000000000000e+00,-8.000000000000000000e+00,-2.000000000000000000e+00,-3.000000000000000000e+00,3.386840820312500000e-01,4.872436523437500000e-01,-7.006225585937500000e-01,-3.962402343750000000e-01,-7.861328125000000000e-02,-9.843750000000000000e-01,2.949218750000000000e-01,-2.081250000000000000e+01,-5.375000000000000000e+00,7.125000000000000000e+00
1.114999999999998215e+00,0.000000000000000000e+00,-3.000000000000000000e+00,-7.000000000000000000e+00,-1.300000000000000000e+01,-1.300000000000000000e+01,1.800000000000000000e+01,5.000000000000000000e+00,-3.000000000000000000e+00,3.386840820312500000e-01,4.872436523437500000e-01,-7.006225585937500000e-01,-3.962402343750000000e-01,-7.861328125000000000e-02,-9.843750000000000000e-01,2.949218750000000000e-01,-2.081250000000000000e+01,-5.375000000000000000e+00,7.125000000000000000e+00
1.119999999999998108e+00,-1.000000000000000000e+00,0.000000000000000000e+00,6.000000000000000000e+00,1.100000000000000000e+01,-9.000000000000000000e+00,-2.500000000000000000e+01,1.000000000000000000e+00,-2.000000000000000000e+00,3.399658203125000000e-01,4.898681640625000000e-01,-6.994628906250000000e-01,-3.939819335937500000e-01,-6.787109375000000000e-02,-1.012207031250000000e+00,3.007812500000000000e-01,-2.050000000000000000e+01,-4.250000000000000000e+00,6.750000000000000000e+00
1.124999999999998002e+00,-1.000000000000000000e+00,0.000000000000000000e+00,6.000000000000000000e+00,1.100000000000000000e+01,-9.000000000000000000e+00,-2.500000000000000000e+01,1.000000000000000000e+00,-2.000000000000000000e+00,3.399658203125000000e-01,4.898681640625000000e-01,-6.994628906250000000e-01,-3.939819335937500000e-01,-6.787109375000000000e-02,-1.012207031250000000e+00,3.007812500000000000e-01,-2.050000000000000000e+01,-4.250000000000000000e+00,6.750000000000000000e+00
1.129999999999997895e+00,-1.000000000000000000e+00,0.000000000000000000e+00,6.000000000000000000e+00,1.100000000000000000e+01,-9.000000000000000000e+00,-2.500000000000000000e+01,1.000000000000000000e+00,-2.000000000000000000e+00,3.399658203125000000e-01,4.898681640625000000e-01,-6.994628906250000000e-01,-3.939819335937500000e-01,-6.787109375000000000e-02,-1.012207031250000000e+00,3.007812500000000000e-01,-2.050000000000000000e+01,-4.250000000000000000e+00,6.750000000000000000e+00
1.134999999999997788e+00,0.000000000000000000e+00,1.000000000000000000e+00,-5.000000000000000000e+00,8.000000000000000000e+00,1.000000000000000000e+00,1.000000000000000000e+01,-1.000000000000000000e+00,-1.000000000000000000e+00,3.399658203125000000e-01,4.898681640625000000e-01,-6.994628906250000000e-01,-3.939819335937500000e-01,-6.787109375000000000e-02,-1.012207031250000000e+00,3.007812500000000000e-01,-2.050000000000000000e+01,-4.250000000000000000e+00,6.750000000000000000e+00
1.139999999999997682e+00,-3.000000000000000000e+00,-4.000000000000000000e+00,-5.000000000000000000e+00,-1.600000000000000000e+01,-1.400000000000000000e+01,0.000000000000000000e+00,2.000000000000000000e+00,-2.000000000000000000e+00,3.408203125000000000e-01,4.923095703125000000e-01,-6.983642578125000000e-01,-3.921508789062500000e-01,-4.443359375000000000e-02,-1.024414062500000000e+00,3.110351562500000000e-01,-1.881250000000000000e+01,-4.250000000000000000e+00,5.875000000000000000e+00
1.144999999999997575e+00,-3.000000000000000000e+00,-4.000000000000000000e+00,-5.000000000000000000e+00,-1.600000000000000000e+01,-1.400000000000000000e+01,0.000000000000000000e+00,2.000000000000000000e+00,-2.000000000000000000e+00,3.408203125000000000e-01,4.923095703125000000e-01,-6.983642578125000000e-01,-3.921508789062500000e-01,-4.443359375000000000e-02,-1.024414062500000000e+00,3.110351562500000000e-01,-1.881250000000000000e+01,-4.250000000000000000e+00,5.875000000000000000e+00
1.149999999999997691e+00,-2.000000000000000000e+00,-4.000000000000000000e+00,-1.200000000000000000e+01,-6.000000000000000000e+00,-1.100000000000000000e+01,-2.000000000000000000e+01,0.000000000000000000e+00,-3.000000000000000000e+00,3.408203125000000000e-01,4.923095703125000000e-01,-6.983642578125000000e-01,-3.921508789062500000e-01,-4.443359375000000000e-02,-1.024414062500000000e+00,3.110351562500000000e-01,-1.881250000000000000e+01,-4.250000000000000000e+00,5.875000000000000000e+00
1.154999999999997362e+00,-3.000000000000000000e+00,-2.000000000000000000e+00,-1.000000000000000000e+00,5.000000000000000000e+00,4.000000000000000000e+00,-1.200000000000000000e+01,-9.000000000000000000e+00,-2.000000000000000000e+00,3.408203125000000000e-01,4.923095703125000000e-01,-6.983642578125000000e-01,-3.921508789062500000e-01,-4.443359375000000000e-02,-1.024414062500000000e+00,3.110351562500000000e-01,-1.881250000000000000e+01,-4.250000000000000000e+00,5.875000000000000000e+00
1.159999999999997256e+00,0.000000000000000000e+00,0.000000000000000000e+00,-1.000000000000000000e+00,2.000000000000000000e+00,-1.000000000000000000e+01,-9.000000000000000000e+00,-1.300000000000000000e+01,0.000000000000000000e+00,3.408203125000000000e-01,4.923095703125000000e-01,-6.983642578125000000e-01,-3.921508789062500000e-01,-4.443359375000000000e-02,-1.024414062500000000e+00,3.110351562500000000e-01,-1.881250000000000000e+01,-4.250000000000000000e+00,5.875000000000000000e+00
1.164999999999997149e+00,0.000000000000000000e+00,0.000000000000000000e+00,-1.000000000000000000e+00,2.000000000000000000e+00,-1.000000000000000000e+01,-9.000000000000000000e+00,-1.300000000000000000e+01,0.000000000000000000e+00,3.408203125000000000e-01,4.923095703125000000e-01,-6.983642578125000000e-01,-3.921508789062500000e-01,-4.443359375000000000e-02,-1.024414062500000000e+00,3.110351562500000000e-01,-1.881250000000000000e+01,-4.250000000000000000e+00,5.875000000000000000e+00
1.169999999999997042e+00,0.000000000000000000e+00,0.000000000000000000e+00,-1.000000000000000000e+00,2.000000000000000000e+00,-1.000000000000000000e+01,-9.000000000000000000e+00,-1.300000000000000000e+01,0.000000000000000000e+00,3.412475585937500000e-01,4.947509765625000000e-01,-6.973266601562500000e-01,-3.906250000000000000e-01,-2.587890625000000000e-02,-1.008300781250000000e+00,3.188476562500000000e-01,-1.881250000000000000e+01,-4.625000000000000000e+00,4.937500000000000000e+00
1.174999999999996936e+00,0.000000000000000000e+00,1.000000000000000000e+00,7.000000000000000000e+00,7.000000000000000000e+00,2.000000000000000000e+00,-3.000000000000000000e+01,-8.000000000000000000e+00,4.000000000000000000e+00,3.412475585937500000e-01,4.947509765625000000e-01,-6.973266601562500000e-01,-3.906250000000000000e-01,-2.587890625000000000e-02,-1.008300781250000000e+00,3.188476562500000000e-01,-1.881250000000000000e+01,-4.625000000000000000e+00,4.937500000000000000e+00
1.179999999999996829e+00,0.000000000000000000e+00,1.000000000000000000e+00,7.000000000000000000e+00,7.000000000000000000e+00,2.000000000000000000e+00,-3.000000000000000000e+01,-8.000000000000000000e+00,4.000000000000000000e+00,3.412475585937500000e-01,4.947509765625000000e-01,-6.973266601562500000e-01,-3.906250000000000000e-01,-2.587890625000000000e-02,-1.008300781250000000e+00,3.188476562500000000e-01,-1.881250000000000000e+01,-4.625000000000000000e+00,4.937500000000000000e+00
1.184999999999996723e+00,1.000000000000000000e+00,-1.000000000000000000e+00,-4.000000000000000000e+00,7.000000000000000000e+00,1.000000000000000000e+00,-7.000000000000000000e+00,-4.000000000000000000e+00,-1.000000000000000000e+00,3.412475585937500000e-01,4.967651367187500000e-01,-6.965942382812500000e-01,-3.893432617187500000e-01,-2.343750000000000000e-02,-9.936523437500000000e-01,3.281250000000000000e-01,-1.543750000000000000e+01,-5.187500000000000000e+00,4.062500000000000000e+00
1.189999999999996616e+00,1.000000000000000000e+00,-1.000000000000000000e+00,-4.000000000000000000e+00,7.000000000000000000e+00,1.000000000000000000e+00,-7.000000000000000000e+00,-4.000000000000000000e+00,-1.000000000000000000e+00,3.412475585937500000e-01,4.967651367187500000e-01,-6.965942382812500000e-01,-3.893432617187500000e-01,-2.343750000000000000e-02,-9.936523437500000000e-01,3.281250000000000000e-01,-1.543750000000000000e+01,-5.187500000000000000e+00,4.062500000000000000e+00
1.194999999999996509e+00,-2.000000000000000000e+00,0.000000000000000000e+00,2.000000000000000000e+00,-9.000000000000000000e+00,-5.000000000000000000e+00,-1.600000000000000000e+01,-7.000000000000000000e+00,-3.000000000000000000e+00,3.412475585937500000e-01,4.967651367187500000e-01,-6.965942382812500000e-01,-3.893432617187500000e-01,-2.343750000000000000e-02,-9.936523437500000000e-01,3.281250000000000000e-01,-1.543750000000000000e+01,-5.187500000000000000e+00,4.062500000000000000e+00
1.199999999999996403e+00,-2.000000000000000000e+00,0.000000000000000000e+00,2.000000000000000000e+00,-9.000000000000000000e+00,-5.000000000000000000e+00,-1.600000000000000000e+01,-7.000000000000000000e+00,-3.000000000000000000e+00,3.412475585937500000e-01,4.967651367187500000e-01,-6.965942382812500000e-01,-3.893432617187500000e-01,-2.343750000000000000e-02,-9.936523437500000000e-01,3.281250000000000000e-01,-1.543750000000000000e+01,-5.187500000000000000e+00,4.062500000000000000e+00
1.204999999999996296e+00,-2.000000000000000000e+00,2.000000000000000000e+00,4.000000000000000000e+00,-2.200000000000000000e+01,-2.000000000000000000e+00,1.100000000000000000e+01,1.100000000000000000e+01,1.000000000000000000e+00,3.408203125000000000e-01,4.981689453125000000e-01,-6.964111328125000000e-01,-3.882446289062500000e-01,-3.369140625000000000e-02,-9.868164062500000000e-01,3.432617187500000000e-01,-1.187500000000000000e+01,-6.125000000000000000e+00,3.812500000000000000e+00
1.209999999999996190e+00,-2.000000000000000000e+00,2.000000000000000000e+00,4.000000000000000000e+00,-2.200000000000000000e+01,-2.000000000000000000e+00,1.100000000000000000e+01,1.100000000000000000e+01,1.000000000000000000e+00,3.408203125000000000e-01,4.981689453125000000e-01,-6.964111328125000000e-01,-3.882446289062500000e-01,-3.369140625000000000e-02,-9.868164062500000000e-01,3.432617187500000000e-01,-1.187500000000000000e+01,-6.125000000000000000e+00,3.812500000000000000e+00
1.214999999999996083e+00,-2.000000000000000000e+00,2.000000000000000000e+00,4.000000000000000000e+00,-2.200000000000000000e+01,-2.000000000000000000e+00,1.100000000000000000e+01,1.100000000000000000e+01,1.000000000000000000e+00,3.408203125000000000e-01,4.981689453125000000e-01,-6.964111328125000000e-01,-3.882446289062500000e-01,-3.369140625000000000e-02,-9.868164062500000000e-01,3.432617187500000000e-01,-1.187500000000000000e+01,-6.125000000000000000e+00,3.812500000000000000e+00
1.219999999999995977e+00,-4.000000000000000000e+00,-7.000000000000000000e+00,-2.100000000000000000e+01,3.000000000000000000e+00,1.000000000000000000e+00,0.000000000000000000e+00,-1.200000000000000000e+01,-3.000000000000000000e+00,3.408203125000000000e-01,4.981689453125000000e-01,-6.964111328125000000e-01,-3.882446289062500000e-01,-3.369140625000000000e-02,-9.868164062500000000e-01,3.432617187500000000e-01,-1.187500000000000000e+01,-6.125000000000000000e+00,3.812500000000000000e+00
1.224999999999996092e+00,-2.000000000000000000e+00,-1.000000000000000000e+00,-9.000000000000000000e+00,-1.000000000000000000e+01,1.700000000000000000e+01,1.300000000000000000e+01,7.000000000000000000e+00,1.000000000000000000e+00,3.408203125000000000e-01,4.981689453125000000e-01,-6.964111328125000000e-01,-3.882446289062500000e-01,-3.369140625000000000e-02,-9.868164062500000000e-01,3.432617187500000000e-01,-1.187500000000000000e+01,-6.125000000000000000e+00,3.812500000000000000e+00
1.229999999999995763e+00,-2.000000000000000000e+00,-1.000000000000000000e+00,-9.000000000000000000e+00,-1.000000000000000000e+01,1.700000000000000000e+01,1.300000000000000000e+01,7.000000000000000000e+00,1.000000000000000000e+00,3.398437500000000000e-01,4.992065429687500000e-01,-6.965942382812500000e-01,-3.873291015625000000e-01,-3.320312500000000000e-02,-9.750976562500000000e-01,3.378906250000000000e-01,-7.687500000000000000e+00,-7.750000000000000000e+00,3.000000000000000000e+00
1.234999999999995657e+00,-2.000000000000000000e+00,-1.000000000000000000e+00,-9.000000000000000000e+00,-1.000000000000000000e+01,1.700000000000000000e+01,1.300000000000000000e+01,7.000000000000000000e+00,1.000000000000000000e+00,3.398437500000000000e-01,4.992065429687500000e-01,-6.965942382812500000e-01,-3.873291015625000000e-01,-3.320312500000000000e-02,-9.750976562500000000e-01,3.378906250000000000e-01,-7.687500000000000000e+00,-7.750000000000000000e+00,3.000000000000000000e+00
1.239999999999995550e+00,1.000000000000000000e+00,0.000000000000000000e+00,2.000000000000000000e+00,7.000000000000000000e+00,0.000000000000000000e+00,-4.000000000000000000e+00,-4.000000000000000000e+00,-1.000000000000000000e+00,3.398437500000000000e-01,4.992065429687500000e-01,-6.965942382812500000e-01,-3.873291015625000000e-01,-3.320312500000000000e-02,-9.750976562500000000e-01,3.378906250000000000e-01,-7.687500000000000000e+00,-7.750000000000000000e+00,3.000000000000000000e+00
