1.000000000000000021e-02,2.000000000000000000e+00,1.000000000000000000e+00,-6.000000000000000000e+00,-1.300000000000000000e+01,4.000000000000000000e+00,5.000000000000000000e+00,5.000000000000000000e+00,0.000000000000000000e+00,-3.541870117187500000e-01,-5.090942382812500000e-01,6.171264648437500000e-01,4.842529296875000000e-01,5.810546875000000000e-02,-9.819335937500000000e-01,2.431640625000000000e-01,-6.250000000000000000e-01,-3.500000000000000000e+00,-1.125000000000000000e+00
1.499999999999999944e-02,2.000000000000000000e+00,1.000000000000000000e+00,-6.000000000000000000e+00,-1.300000000000000000e+01,4.000000000000000000e+00,5.000000000000000000e+00,5.000000000000000000e+00,0.000000000000000000e+00,-3.541870117187500000e-01,-5.090942382812500000e-01,6.171264648437500000e-01,4.842529296875000000e-01,5.810546875000000000e-02,-9.819335937500000000e-01,2.431640625000000000e-01,-6.250000000000000000e-01,-3.500000000000000000e+00,-1.125000000000000000e+00
2.000000000000000042e-02,2.000000000000000000e+00,1.000000000000000000e+00,-6.000000000000000000e+00,-1.300000000000000000e+01,4.000000000000000000e+00,5.000000000000000000e+00,5.000000000000000000e+00,0.000000000000000000e+00,-3.539428710937500000e-01,-5.093383789062500000e-01,6.172485351562500000e-01,4.840087890625000000e-01,5.908203125000000000e-02,-9.858398437500000000e-01,2.377929687500000000e-01,-6.875000000000000000e-01,-2.312500000000000000e+00,-1.250000000000000000e-01
2.500000000000000139e-02,2.000000000000000000e+00,1.000000000000000000e+00,-6.000000000000000000e+00,-1.300000000000000000e+01,4.000000000000000000e+00,5.000000000000000000e+00,5.000000000000000000e+00,0.000000000000000000e+00,-3.539428710937500000e-01,-5.093383789062500000e-01,6.172485351562500000e-01,4.840087890625000000e-01,5.908203125000000000e-02,-9.858398437500000000e-01,2.377929687500000000e-01,-6.875000000000000000e-01,-2.312500000000000000e+00,-1.250000000000000000e-01
2.999999999999999889e-02,-1.000000000000000000e+00,1.000000000000000000e+00,-2.000000000000000000e+00,-5.000000000000000000e+00,0.000000000000000000e+00,-2.000000000000000000e+00,-2.000000000000000000e+00,-3.000000000000000000e+00,-3.539428710937500000e-01,-5.093383789062500000e-01,6.172485351562500000e-01,4.840087890625000000e-01,5.908203125000000000e-02,-9.858398437500000000e-01,2.377929687500000000e-01,-6.875000000000000000e-01,-2.312500000000000000e+00,-1.250000000000000000e-01
3.500000000000000333e-02,-1.000000000000000000e+00,1.000000000000000000e+00,-2.000000000000000000e+00,-5.000000000000000000e+00,0.000000000000000000e+00,-2.000000000000000000e+00,-2.000000000000000000e+00,-3.000000000000000000e+00,-3.539428710937500000e-01,-5.093383789062500000e-01,6.172485351562500000e-01,4.840087890625000000e-01,5.908203125000000000e-02,-9.858398437500000000e-01,2.377929687500000000e-01,-6.875000000000000000e-01,-2.312500000000000000e+00,-1.250000000000000000e-01
4.000000000000000083e-02,-3.000000000000000000e+00,-2.000000000000000000e+00,4.000000000000000000e+00,1.400000000000000000e+01,2.000000000000000000e+00,-4.000000000000000000e+00,-4.000000000000000000e+00,0.000000000000000000e+00,-3.538208007812500000e-01,-5.095825195312500000e-01,6.172485351562500000e-01,4.838256835937500000e-01,5.664062500000000000e-02,-9.877929687500000000e-01,2.407226562500000000e-01,-1.062500000000000000e+00,-1.625000000000000000e+00,-6.250000000000000000e-02
4.499999999999999833e-02,-3.000000000000000000e+00,-2.000000000000000000e+00,4.000000000000000000e+00,1.400000000000000000e+01,2.000000000000000000e+00,-4.000000000000000000e+00,-4.000000000000000000e+00,0.000000000000000000e+00,-3.538208007812500000e-01,-5.095825195312500000e-01,6.172485351562500000e-01,4.838256835937500000e-01,5.664062500000000000e-02,-9.877929687500000000e-01,2.407226562500000000e-01,-1.062500000000000000e+00,-1.625000000000000000e+00,-6.250000000000000000e-02
4.999999999999989869e-02,-3.000000000000000000e+00,-2.000000000000000000e+00,4.000000000000000000e+00,1.400000000000000000e+01,2.000000000000000000e+00,-4.000000000000000000e+00,-4.000000000000000000e+00,0.000000000000000000e+00,-3.538208007812500000e-01,-5.095825195312500000e-01,6.172485351562500000e-01,4.838256835937500000e-01,5.664062500000000000e-02,-9.877929687500000000e-01,2.407226562500000000e-01,-1.062500000000000000e+00,-1.625000000000000000e+00,-6.250000000000000000e-02
5.499999999999990313e-02,-3.000000000000000000e+00,-2.000000000000000000e+00,4.000000000000000000e+00,1.400000000000000000e+01,2.000000000000000000e+00,-4.000000000000000000e+00,-4.000000000000000000e+00,0.000000000000000000e+00,-3.538208007812500000e-01,-5.095825195312500000e-01,6.172485351562500000e-01,4.838256835937500000e-01,5.664062500000000000e-02,-9.877929687500000000e-01,2.407226562500000000e-01,-1.062500000000000000e+00,-1.625000000000000000e+00,-6.250000000000000000e-02
5.999999999999990064e-02,-3.000000000000000000e+00,-1.000000000000000000e+00,-2.000000000000000000e+00,-1.200000000000000000e+01,-2.000000000000000000e+00,1.000000000000000000e+00,1.000000000000000000e+00,-2.000000000000000000e+00,-3.538208007812500000e-01,-5.095825195312500000e-01,6.172485351562500000e-01,4.838256835937500000e-01,5.664062500000000000e-02,-9.877929687500000000e-01,2.407226562500000000e-01,-1.062500000000000000e+00,-1.625000000000000000e+00,-6.250000000000000000e-02
6.499999999999990508e-02,-3.000000000000000000e+00,-1.000000000000000000e+00,-2.000000000000000000e+00,-1.200000000000000000e+01,-2.000000000000000000e+00,1.000000000000000000e+00,1.000000000000000000e+00,-2.000000000000000000e+00,-3.535766601562500000e-01,-5.096435546875000000e-01,6.174316406250000000e-01,4.837646484375000000e-01,6.298828125000000000e-02,-9.897460937500000000e-01,2.353515625000000000e-01,5.625000000000000000e-01,-1.625000000000000000e+00,2.500000000000000000e-01
6.999999999999989564e-02,-3.000000000000000000e+00,-1.000000000000000000e+00,-2.000000000000000000e+00,-1.200000000000000000e+01,-2.000000000000000000e+00,1.000000000000000000e+00,1.000000000000000000e+00,-2.000000000000000000e+00,-3.535766601562500000e-01,-5.096435546875000000e-01,6.174316406250000000e-01,4.837646484375000000e-01,6.298828125000000000e-02,-9.897460937500000000e-01,2.353515625000000000e-01,5.625000000000000000e-01,-1.625000000000000000e+00,2.500000000000000000e-01
7.499999999999999722e-02,-1.000000000000000000e+00,-3.000000000000000000e+00,-1.200000000000000000e+01,-2.000000000000000000e+01,4.000000000000000000e+00,-5.000000000000000000e+00,-5.000000000000000000e+00,-2.000000000000000000e+00,-3.535766601562500000e-01,-5.096435546875000000e-01,6.174316406250000000e-01,4.837646484375000000e-01,6.298828125000000000e-02,-9.897460937500000000e-01,2.353515625000000000e-01,5.625000000000000000e-01,-1.625000000000000000e+00,2.500000000000000000e-01
8.000000000000000167e-02,-1.000000000000000000e+00,-3.000000000000000000e+00,-1.200000000000000000e+01,-2.000000000000000000e+01,4.000000000000000000e+00,-5.000000000000000000e+00,-5.000000000000000000e+00,-2.000000000000000000e+00,-3.535766601562500000e-01,-5.096435546875000000e-01,6.174316406250000000e-01,4.837646484375000000e-01,6.298828125000000000e-02,-9.897460937500000000e-01,2.353515625000000000e-01,5.625000000000000000e-01,-1.625000000000000000e+00,2.500000000000000000e-01
8.500000000000000611e-02,0.000000000000000000e+00,0.000000000000000000e+00,1.000000000000000000e+00,2.000000000000000000e+00,-1.200000000000000000e+01,-2.000000000000000000e+00,4.000000000000000000e+00,0.000000000000000000e+00,-3.535766601562500000e-01,-5.096435546875000000e-01,6.174316406250000000e-01,4.837646484375000000e-01,6.298828125000000000e-02,-9.897460937500000000e-01,2.353515625000000000e-01,5.625000000000000000e-01,-1.625000000000000000e+00,2.500000000000000000e-01
8.999999999999999667e-02,0.000000000000000000e+00,0.000000000000000000e+00,1.000000000000000000e+00,2.000000000000000000e+00,-1.200000000000000000e+01,-2.000000000000000000e+00,4.000000000000000000e+00,0.000000000000000000e+00,-3.535766601562500000e-01,-5.096435546875000000e-01,6.174316406250000000e-01,4.837646484375000000e-01,6.298828125000000000e-02,-9.897460937500000000e-01,2.353515625000000000e-01,5.625000000000000000e-01,-1.625000000000000000e+00,2.500000000000000000e-01
9.500000000000000111e-02,0.000000000000000000e+00,0.000000000000000000e+00,1.000000000000000000e+00,2.000000000000000000e+00,-1.200000000000000000e+01,-2.000000000000000000e+00,4.000000000000000000e+00,0.000000000000000000e+00,-3.535766601562500000e-01,-5.096435546875000000e-01,6.174316406250000000e-01,4.837646484375000000e-01,6.298828125000000000e-02,-9.897460937500000000e-01,2.353515625000000000e-01,5.625000000000000000e-01,-1.625000000000000000e+00,2.500000000000000000e-01
1.000000000000000056e-01,0.000000000000000000e+00,0.000000000000000000e+00,1.000000000000000000e+00,2.000000000000000000e+00,-1.200000000000000000e+01,-2.000000000000000000e+00,4.000000000000000000e+00,0.000000000000000000e+00,-3.535766601562500000e-01,-5.096435546875000000e-01,6.174316406250000000e-01,4.837646484375000000e-01,6.298828125000000000e-02,-9.897460937500000000e-01,2.353515625000000000e-01,5.625000000000000000e-01,-1.625000000000000000e+00,2.500000000000000000e-01
1.049999999999999961e-01,-3.000000000000000000e+00,-1.000000000000000000e+00,6.000000000000000000e+00,-3.000000000000000000e+00,2.000000000000000000e+00,3.000000000000000000e+00,-7.000000000000000000e+00,-5.000000000000000000e+00,-3.533935546875000000e-01,-5.097045898437500000e-01,6.175537109375000000e-01,4.836425781250000000e-01,6.396484375000000000e-02,-9.916992187500000000e-01,2.412109375000000000e-01,3.125000000000000000e-01,-1.500000000000000000e+00,3.125000000000000000e-01
1.100000000000000006e-01,-3.000000000000000000e+00,-1.000000000000000000e+00,6.000000000000000000e+00,-3.000000000000000000e+00,2.000000000000000000e+00,3.000000000000000000e+00,-7.000000000000000000e+00,-5.000000000000000000e+00,-3.533935546875000000e-01,-5.097045898437500000e-01,6.175537109375000000e-01,4.836425781250000000e-01,6.396484375000000000e-02,-9.916992187500000000e-01,2.412109375000000000e-01,3.125000000000000000e-01,-1.500000000000000000e+00,3.125000000000000000e-01
1.150000000000000050e-01,0.000000000000000000e+00,0.000000000000000000e+00,9.000000000000000000e+00,3.300000000000000000e+01,1.100000000000000000e+01,5.000000000000000000e+00,-3.000000000000000000e+00,1.000000000000000000e+00,-3.533935546875000000e-01,-5.097045898437500000e-01,6.175537109375000000e-01,4.836425781250000000e-01,6.396484375000000000e-02,-9.916992187500000000e-01,2.412109375000000000e-01,3.125000000000000000e-01,-1.500000000000000000e+00,3.125000000000000000e-01
1.199999999999999956e-01,0.000000000000000000e+00,0.000000000000000000e+00,9.000000000000000000e+00,3.300000000000000000e+01,1.100000000000000000e+01,5.000000000000000000e+00,-3.000000000000000000e+00,1.000000000000000000e+00,-3.536376953125000000e-01,-5.099487304687500000e-01,6.175537109375000000e-01,4.832153320312500000e-01,6.542968750000000000e-02,-9.980468750000000000e-01,2.387695312500000000e-01,-3.125000000000000000e+00,-8.750000000000000000e-01,2.312500000000000000e+00
1.250000000000000000e-01,0.000000000000000000e+00,0.000000000000000000e+00,9.000000000000000000e+00,3.300000000000000000e+01,1.100000000000000000e+01,5.000000000000000000e+00,-3.000000000000000000e+00,1.000000000000000000e+00,-3.536376953125000000e-01,-5.099487304687500000e-01,6.175537109375000000e-01,4.832153320312500000e-01,6.542968750000000000e-02,-9.980468750000000000e-01,2.387695312500000000e-01,-3.125000000000000000e+00,-8.750000000000000000e-01,2.312500000000000000e+00
1.300000000000000044e-01,0.000000000000000000e+00,0.000000000000000000e+00,9.000000000000000000e+00,3.300000000000000000e+01,1.100000000000000000e+01,5.000000000000000000e+00,-3.000000000000000000e+00,1.000000000000000000e+00,-3.536376953125000000e-01,-5.099487304687500000e-01,6.175537109375000000e-01,4.832153320312500000e-01,6.542968750000000000e-02,-9.980468750000000000e-01,2.387695312500000000e-01,-3.125000000000000000e+00,-8.750000000000000000e-01,2.312500000000000000e+00
1.350000000000000089e-01,-2.000000000000000000e+00,-1.000000000000000000e+00,3.000000000000000000e+00,2.500000000000000000e+01,4.000000000000000000e+00,-1.000000000000000000e+00,-1.000000000000000000e+00,-2.000000000000000000e+00,-3.536376953125000000e-01,-5.099487304687500000e-01,6.175537109375000000e-01,4.832153320312500000e-01,6.542968750000000000e-02,-9.980468750000000000e-01,2.387695312500000000e-01,-3.125000000000000000e+00,-8.750000000000000000e-01,2.312500000000000000e+00
1.400000000000000133e-01,-2.000000000000000000e+00,-1.000000000000000000e+00,3.000000000000000000e+00,2.500000000000000000e+01,4.000000000000000000e+00,-1.000000000000000000e+00,-1.000000000000000000e+00,-2.000000000000000000e+00,-3.536376953125000000e-01,-5.099487304687500000e-01,6.175537109375000000e-01,4.832153320312500000e-01,6.542968750000000000e-02,-9.980468750000000000e-01,2.387695312500000000e-01,-3.125000000000000000e+00,-8.750000000000000000e-01,2.312500000000000000e+00
1.449999999999999900e-01,-2.000000000000000000e+00,-1.000000000000000000e+00,3.000000000000000000e+00,2.500000000000000000e+01,4.000000000000000000e+00,-1.000000000000000000e+00,-1.000000000000000000e+00,-2.000000000000000000e+00,-3.537597656250000000e-01,-5.099487304687500000e-01,6.177978515625000000e-01,4.828491210937500000e-01,5.468750000000000000e-02,-9.907226562500000000e-01,2.456054687500000000e-01,-1.000000000000000000e+00,-1.250000000000000000e+00,2.187500000000000000e+00
1.499999999999999944e-01,-1.000000000000000000e+00,-2.000000000000000000e+00,-4.000000000000000000e+00,-3.000000000000000000e+00,5.000000000000000000e+00,-2.000000000000000000e+00,2.000000000000000000e+00,0.000000000000000000e+00,-3.537597656250000000e-01,-5.099487304687500000e-01,6.177978515625000000e-01,4.828491210937500000e-01,5.468750000000000000e-02,-9.907226562500000000e-01,2.456054687500000000e-01,-1.000000000000000000e+00,-1.250000000000000000e+00,2.187500000000000000e+00
1.549999999999999989e-01,-1.000000000000000000e+00,-2.000000000000000000e+00,-4.000000000000000000e+00,-3.000000000000000000e+00,5.000000000000000000e+00,-2.000000000000000000e+00,2.000000000000000000e+00,0.000000000000000000e+00,-3.537597656250000000e-01,-5.099487304687500000e-01,6.177978515625000000e-01,4.828491210937500000e-01,5.468750000000000000e-02,-9.907226562500000000e-01,2.456054687500000000e-01,-1.000000000000000000e+00,-1.250000000000000000e+00,2.187500000000000000e+00
1.600000000000000033e-01,-1.000000000000000000e+00,-2.000000000000000000e+00,-4.000000000000000000e+00,-3.000000000000000000e+00,5.000000000000000000e+00,-2.000000000000000000e+00,2.000000000000000000e+00,0.000000000000000000e+00,-3.537597656250000000e-01,-5.099487304687500000e-01,6.177978515625000000e-01,4.828491210937500000e-01,5.468750000000000000e-02,-9.907226562500000000e-01,2.456054687500000000e-01,-1.000000000000000000e+00,-1.250000000000000000e+00,2.187500000000000000e+00
1.650000000000000078e-01,-2.000000000000000000e+00,-3.000000000000000000e+00,-4.000000000000000000e+00,-8.000000000000000000e+00,5.000000000000000000e+00,3.000000000000000000e+00,-3.000000000000000000e+00,-2.000000000000000000e+00,-3.537597656250000000e-01,-5.099487304687500000e-01,6.177978515625000000e-01,4.828491210937500000e-01,5.468750000000000000e-02,-9.907226562500000000e-01,2.456054687500000000e-01,-1.000000000000000000e+00,-1.250000000000000000e+00,2.187500000000000000e+00
1.700000000000000122e-01,-2.000000000000000000e+00,-3.000000000000000000e+00,-4.000000000000000000e+00,-8.000000000000000000e+00,5.000000000000000000e+00,3.000000000000000000e+00,-3.000000000000000000e+00,-2.000000000000000000e+00,-3.537597656250000000e-01,-5.099487304687500000e-01,6.177978515625000000e-01,4.828491210937500000e-01,5.468750000000000000e-02,-9.907226562500000000e-01,2.456054687500000000e-01,-1.000000000000000000e+00,-1.250000000000000000e+00,2.187500000000000000e+00
1.749999999999999889e-01,-2.000000000000000000e+00,-3.000000000000000000e+00,-4.000000000000000000e+00,-8.000000000000000000e+00,5.000000000000000000e+00,3.000000000000000000e+00,-3.000000000000000000e+00,-2.000000000000000000e+00,-3.535156250000000000e-01,-5.097045898437500000e-01,6.181640625000000000e-01,4.827270507812500000e-01,5.761718750000000000e-02,-9.926757812500000000e-01,2.377929687500000000e-01,2.125000000000000000e+00,-1.375000000000000000e+00,1.312500000000000000e+00
1.799999999999999933e-01,-2.000000000000000000e+00,-3.000000000000000000e+00,-4.000000000000000000e+00,-8.000000000000000000e+00,5.000000000000000000e+00,3.000000000000000000e+00,-3.000000000000000000e+00,-2.000000000000000000e+00,-3.535156250000000000e-01,-5.097045898437500000e-01,6.181640625000000000e-01,4.827270507812500000e-01,5.761718750000000000e-02,-9.926757812500000000e-01,2.377929687500000000e-01,2.125000000000000000e+00,-1.375000000000000000e+00,1.312500000000000000e+00
1.849999999999999978e-01,-1.000000000000000000e+00,0.000000000000000000e+00,-2.000000000000000000e+00,-1.000000000000000000e+00,0.000000000000000000e+00,-2.000000000000000000e+00,-1.000000000000000000e+00,0.000000000000000000e+00,-3.535156250000000000e-01,-5.097045898437500000e-01,6.181640625000000000e-01,4.827270507812500000e-01,5.761718750000000000e-02,-9.926757812500000000e-01,2.377929687500000000e-01,2.125000000000000000e+00,-1.375000000000000000e+00,1.312500000000000000e+00
1.900000000000000022e-01,-1.000000000000000000e+00,0.000000000000000000e+00,-2.000000000000000000e+00,-1.000000000000000000e+00,0.000000000000000000e+00,-2.000000000000000000e+00,-1.000000000000000000e+00,0.000000000000000000e+00,-3.535156250000000000e-01,-5.097045898437500000e-01,6.181640625000000000e-01,4.827270507812500000e-01,5.761718750000000000e-02,-9.926757812500000000e-01,2.377929687500000000e-01,2.125000000000000000e+00,-1.375000000000000000e+00,1.312500000000000000e+00
1.950000000000000899e-01,-1.000000000000000000e+00,-4.000000000000000000e+00,1.000000000000000000e+00,0.000000000000000000e+00,-1.000000000000000000e+00,-2.000000000000000000e+00,1.000000000000000000e+00,-1.000000000000000000e+00,-3.532714843750000000e-01,-5.095214843750000000e-01,6.184692382812500000e-01,4.827880859375000000e-01,5.908203125000000000e-02,-9.809570312500000000e-01,2.387695312500000000e-01,2.062500000000000000e+00,-8.125000000000000000e-01,3.125000000000000000e-01
2.000000000000000944e-01,-1.000000000000000000e+00,-4.000000000000000000e+00,1.000000000000000000e+00,0.000000000000000000e+00,-1.000000000000000000e+00,-2.000000000000000000e+00,1.000000000000000000e+00,-1.000000000000000000e+00,-3.532714843750000000e-01,-5.095214843750000000e-01,6.184692382812500000e-01,4.827880859375000000e-01,5.908203125000000000e-02,-9.809570312500000000e-01,2.387695312500000000e-01,2.062500000000000000e+00,-8.125000000000000000e-01,3.125000000000000000e-01
2.050000000000000988e-01,-1.000000000000000000e+00,-4.000000000000000000e+00,1.000000000000000000e+00,0.000000000000000000e+00,-1.000000000000000000e+00,-2.000000000000000000e+00,1.000000000000000000e+00,-1.000000000000000000e+00,-3.532714843750000000e-01,-5.095214843750000000e-01,6.184692382812500000e-01,4.827880859375000000e-01,5.908203125000000000e-02,-9.809570312500000000e-01,2.387695312500000000e-01,2.062500000000000000e+00,-8.125000000000000000e-01,3.125000000000000000e-01
2.100000000000001033e-01,-1.000000000000000000e+00,-4.000000000000000000e+00,1.000000000000000000e+00,0.000000000000000000e+00,-1.000000000000000000e+00,-2.000000000000000000e+00,1.000000000000000000e+00,-1.000000000000000000e+00,-3.532714843750000000e-01,-5.095214843750000000e-01,6.184692382812500000e-01,4.827880859375000000e-01,5.908203125000000000e-02,-9.809570312500000000e-01,2.387695312500000000e-01,2.062500000000000000e+00,-8.125000000000000000e-01,3.125000000000000000e-01
2.150000000000001077e-01,-1.000000000000000000e+00,-5.000000000000000000e+00,-1.100000000000000000e+01,-1.400000000000000000e+01,-1.800000000000000000e+01,-4.000000000000000000e+00,-4.000000000000000000e+00,-1.000000000000000000e+00,-3.532714843750000000e-01,-5.095214843750000000e-01,6.184692382812500000e-01,4.827880859375000000e-01,5.908203125000000000e-02,-9.809570312500000000e-01,2.387695312500000000e-01,2.062500000000000000e+00,-8.125000000000000000e-01,3.125000000000000000e-01
2.200000000000001121e-01,-1.000000000000000000e+00,-5.000000000000000000e+00,-1.100000000000000000e+01,-1.400000000000000000e+01,-1.800000000000000000e+01,-4.000000000000000000e+00,-4.000000000000000000e+00,-1.000000000000000000e+00,-3.532714843750000000e-01,-5.095214843750000000e-01,6.184692382812500000e-01,4.827880859375000000e-01,5.908203125000000000e-02,-9.809570312500000000e-01,2.387695312500000000e-01,2.062500000000000000e+00,-8.125000000000000000e-01,3.125000000000000000e-01
2.250000000000000888e-01,-1.000000000000000000e+00,-5.000000000000000000e+00,-1.100000000000000000e+01,-1.400000000000000000e+01,-1.800000000000000000e+01,-4.000000000000000000e+00,-4.000000000000000000e+00,-1.000000000000000000e+00,-3.532714843750000000e-01,-5.095214843750000000e-01,6.184692382812500000e-01,4.827880859375000000e-01,5.078125000000000000e-02,-9.780273437500000000e-01,2.392578125000000000e-01,-5.000000000000000000e-01,-8.125000000000000000e-01,-1.250000000000000000e-01
2.300000000000000933e-01,-1.000000000000000000e+00,-5.000000000000000000e+00,-1.100000000000000000e+01,-1.400000000000000000e+01,-1.800000000000000000e+01,-4.000000000000000000e+00,-4.000000000000000000e+00,-1.000000000000000000e+00,-3.532714843750000000e-01,-5.095214843750000000e-01,6.184692382812500000e-01,4.827880859375000000e-01,5.078125000000000000e-02,-9.780273437500000000e-01,2.392578125000000000e-01,-5.000000000000000000e-01,-8.125000000000000000e-01,-1.250000000000000000e-01
2.350000000000000977e-01,0.000000000000000000e+00,1.000000000000000000e+00,7.000000000000000000e+00,5.100000000000000000e+01,-3.000000000000000000e+00,-5.000000000000000000e+00,6.000000000000000000e+00,-1.000000000000000000e+00,-3.532714843750000000e-01,-5.095214843750000000e-01,6.184692382812500000e-01,4.827880859375000000e-01,5.078125000000000000e-02,-9.780273437500000000e-01,2.392578125000000000e-01,-5.000000000000000000e-01,-8.125000000000000000e-01,-1.250000000000000000e-01
2.400000000000001021e-01,0.000000000000000000e+00,1.000000000000000000e+00,7.000000000000000000e+00,5.100000000000000000e+01,-3.000000000000000000e+00,-5.000000000000000000e+00,6.000000000000000000e+00,-1.000000000000000000e+00,-3.532714843750000000e-01,-5.095214843750000000e-01,6.184692382812500000e-01,4.827880859375000000e-01,5.078125000000000000e-02,-9.780273437500000000e-01,2.392578125000000000e-01,-5.000000000000000000e-01,-8.125000000000000000e-01,-1.250000000000000000e-01
2.450000000000001066e-01,2.000000000000000000e+00,1.000000000000000000e+00,5.000000000000000000e+00,-7.000000000000000000e+00,4.000000000000000000e+00,4.000000000000000000e+00,5.000000000000000000e+00,0.000000000000000000e+00,-3.532714843750000000e-01,-5.095214843750000000e-01,6.184692382812500000e-01,4.827880859375000000e-01,5.078125000000000000e-02,-9.780273437500000000e-01,2.392578125000000000e-01,-5.000000000000000000e-01,-8.125000000000000000e-01,-1.250000000000000000e-01
2.500000000000001110e-01,2.000000000000000000e+00,1.000000000000000000e+00,5.000000000000000000e+00,-7.000000000000000000e+00,4.000000000000000000e+00,4.000000000000000000e+00,5.000000000000000000e+00,0.000000000000000000e+00,-3.532714843750000000e-01,-5.095214843750000000e-01,6.184692382812500000e-01,4.827880859375000000e-01,5.078125000000000000e-02,-9.780273437500000000e-01,2.392578125000000000e-01,-5.000000000000000000e-01,-8.125000000000000000e-01,-1.250000000000000000e-01
2.550000000000001155e-01,2.000000000000000000e+00,1.000000000000000000e+00,5.000000000000000000e+00,-7.000000000000000000e+00,4.000000000000000000e+00,4.000000000000000000e+00,5.000000000000000000e+00,0.000000000000000000e+00,-3.534545898437500000e-01,-5.097656250000000000e-01,6.184082031250000000e-01,4.824829101562500000e-01,5.224609375000000000e-02,-9.775390625000000000e-01,2.358398437500000000e-01,-2.687500000000000000e+00,-1.000000000000000000e+00,8.125000000000000000e-01
2.600000000000001199e-01,2.000000000000000000e+00,1.000000000000000000e+00,5.000000000000000000e+00,-7.000000000000000000e+00,4.000000000000000000e+00,4.000000000000000000e+00,5.000000000000000000e+00,0.000000000000000000e+00,-3.534545898437500000e-01,-5.097656250000000000e-01,6.184082031250000000e-01,4.824829101562500000e-01,5.224609375000000000e-02,-9.775390625000000000e-01,2.358398437500000000e-01,-2.687500000000000000e+00,-1.000000000000000000e+00,8.125000000000000000e-01
2.650000000000001243e-01,-1.000000000000000000e+00,1.000000000000000000e+00,2.000000000000000000e+00,4.000000000000000000e+00,-5.000000000000000000e+00,-1.000000000000000000e+00,-8.000000000000000000e+00,-1.000000000000000000e+00,-3.534545898437500000e-01,-5.097656250000000000e-01,6.184082031250000000e-01,4.824829101562500000e-01,5.224609375000000000e-02,-9.775390625000000000e-01,2.358398437500000000e-01,-2.687500000000000000e+00,-1.000000000000000000e+00,8.125000000000000000e-01
2.700000000000000733e-01,-1.000000000000000000e+00,1.000000000000000000e+00,2.000000000000000000e+00,4.000000000000000000e+00,-5.000000000000000000e+00,-1.000000000000000000e+00,-8.000000000000000000e+00,-1.000000000000000000e+00,-3.534545898437500000e-01,-5.097656250000000000e-01,6.184082031250000000e-01,4.824829101562500000e-01,5.224609375000000000e-02,-9.775390625000000000e-01,2.358398437500000000e-01,-2.687500000000000000e+00,-1.000000000000000000e+00,8.125000000000000000e-01
2.750000000000000777e-01,-5.000000000000000000e+00,-3.000000000000000000e+00,-4.000000000000000000e+00,-6.000000000000000000e+00,-1.500000000000000000e+01,3.000000000000000000e+00,-1.000000000000000000e+00,-2.000000000000000000e+00,-3.536987304687500000e-01,-5.099487304687500000e-01,6.184082031250000000e-01,4.821166992187500000e-01,4.443359375000000000e-02,-9.687500000000000000e-01,2.255859375000000000e-01,-1.812500000000000000e+00,-1.062500000000000000e+00,1.000000000000000000e+00
2.800000000000000822e-01,-5.000000000000000000e+00,-3.000000000000000000e+00,-4.000000000000000000e+00,-6.000000000000000000e+00,-1.500000000000000000e+01,3.000000000000000000e+00,-1.000000000000000000e+00,-2.000000000000000000e+00,-3.536987304687500000e-01,-5.099487304687500000e-01,6.184082031250000000e-01,4.821166992187500000e-01,4.443359375000000000e-02,-9.687500000000000000e-01,2.255859375000000000e-01,-1.812500000000000000e+00,-1.062500000000000000e+00,1.000000000000000000e+00
2.850000000000000866e-01,-5.000000000000000000e+00,-3.000000000000000000e+00,-4.000000000000000000e+00,-6.000000000000000000e+00,-1.500000000000000000e+01,3.000000000000000000e+00,-1.000000000000000000e+00,-2.000000000000000000e+00,-3.536987304687500000e-01,-5.099487304687500000e-01,6.184082031250000000e-01,4.821166992187500000e-01,4.443359375000000000e-02,-9.687500000000000000e-01,2.255859375000000000e-01,-1.812500000000000000e+00,-1.062500000000000000e+00,1.000000000000000000e+00
2.900000000000000910e-01,-5.000000000000000000e+00,-3.000000000000000000e+00,-4.000000000000000000e+00,-6.000000000000000000e+00,-1.500000000000000000e+01,3.000000000000000000e+00,-1.000000000000000000e+00,-2.000000000000000000e+00,-3.536987304687500000e-01,-5.099487304687500000e-01,6.184082031250000000e-01,4.821166992187500000e-01,4.443359375000000000e-02,-9.687500000000000000e-01,2.255859375000000000e-01,-1.812500000000000000e+00,-1.062500000000000000e+00,1.000000000000000000e+00
2.950000000000000955e-01,-2.000000000000000000e+00,-3.000000000000000000e+00,-2.000000000000000000e+00,-1.200000000000000000e+01,2.000000000000000000e+00,7.000000000000000000e+00,-7.000000000000000000e+00,-3.000000000000000000e+00,-3.536987304687500000e-01,-5.099487304687500000e-01,6.184082031250000000e-01,4.821166992187500000e-01,4.443359375000000000e-02,-9.687500000000000000e-01,2.255859375000000000e-01,-1.812500000000000000e+00,-1.062500000000000000e+00,1.000000000000000000e+00
3.000000000000000999e-01,-2.000000000000000000e+00,-3.000000000000000000e+00,-2.000000000000000000e+00,-1.200000000000000000e+01,2.000000000000000000e+00,7.000000000000000000e+00,-7.000000000000000000e+00,-3.000000000000000000e+00,-3.536987304687500000e-01,-5.099487304687500000e-01,6.184082031250000000e-01,4.821166992187500000e-01,4.443359375000000000e-02,-9.687500000000000000e-01,2.255859375000000000e-01,-1.812500000000000000e+00,-1.062500000000000000e+00,1.000000000000000000e+00
3.050000000000001044e-01,-2.000000000000000000e+00,-3.000000000000000000e+00,-2.000000000000000000e+00,-1.200000000000000000e+01,2.000000000000000000e+00,7.000000000000000000e+00,-7.000000000000000000e+00,-3.000000000000000000e+00,-3.537597656250000000e-01,-5.099487304687500000e-01,6.185913085937500000e-01,4.817504882812500000e-01,4.638671875000000000e-02,-9.750976562500000000e-01,2.221679687500000000e-01,-1.875000000000000000e-01,-1.062500000000000000e+00,1.250000000000000000e+00
3.100000000000001088e-01,-2.000000000000000000e+00,-3.000000000000000000e+00,-2.000000000000000000e+00,-1.200000000000000000e+01,2.000000000000000000e+00,7.000000000000000000e+00,-7.000000000000000000e+00,-3.000000000000000000e+00,-3.537597656250000000e-01,-5.099487304687500000e-01,6.185913085937500000e-01,4.817504882812500000e-01,4.638671875000000000e-02,-9.750976562500000000e-01,2.221679687500000000e-01,-1.875000000000000000e-01,-1.062500000000000000e+00,1.250000000000000000e+00
3.150000000000001132e-01,0.000000000000000000e+00,4.000000000000000000e+00,7.000000000000000000e+00,3.300000000000000000e+01,2.000000000000000000e+00,-6.000000000000000000e+00,2.000000000000000000e+00,1.000000000000000000e+00,-3.537597656250000000e-01,-5.099487304687500000e-01,6.185913085937500000e-01,4.817504882812500000e-01,4.638671875000000000e-02,-9.750976562500000000e-01,2.221679687500000000e-01,-1.875000000000000000e-01,-1.062500000000000000e+00,1.250000000000000000e+00
3.200000000000001732e-01,0.000000000000000000e+00,4.000000000000000000e+00,7.000000000000000000e+00,3.300000000000000000e+01,2.000000000000000000e+00,-6.000000000000000000e+00,2.000000000000000000e+00,1.000000000000000000e+00,-3.537597656250000000e-01,-5.099487304687500000e-01,6.185913085937500000e-01,4.817504882812500000e-01,4.638671875000000000e-02,-9.750976562500000000e-01,2.221679687500000000e-01,-1.875000000000000000e-01,-1.062500000000000000e+00,1.250000000000000000e+00
3.250000000000001776e-01,0.000000000000000000e+00,0.000000000000000000e+00,1.000000000000000000e+00,3.000000000000000000e+00,6.000000000000000000e+00,8.000000000000000000e+00,9.000000000000000000e+00,-2.000000000000000000e+00,-3.537597656250000000e-01,-5.099487304687500000e-01,6.185913085937500000e-01,4.817504882812500000e-01,4.638671875000000000e-02,-9.750976562500000000e-01,2.221679687500000000e-01,-1.875000000000000000e-01,-1.062500000000000000e+00,1.250000000000000000e+00
3.300000000000001821e-01,0.000000000000000000e+00,0.000000000000000000e+00,1.000000000000000000e+00,3.000000000000000000e+00,6.000000000000000000e+00,8.000000000000000000e+00,9.000000000000000000e+00,-2.000000000000000000e+00,-3.541870117187500000e-01,-5.101928710937500000e-01,6.184082031250000000e-01,4.814453125000000000e-01,4.492187500000000000e-02,-9.838867187500000000e-01,2.216796875000000000e-01,-2.375000000000000000e+00,-1.250000000000000000e-01,8.125000000000000000e-01
3.350000000000001865e-01,0.000000000000000000e+00,0.000000000000000000e+00,1.000000000000000000e+00,3.000000000000000000e+00,6.000000000000000000e+00,8.000000000000000000e+00,9.000000000000000000e+00,-2.000000000000000000e+00,-3.541870117187500000e-01,-5.101928710937500000e-01,6.184082031250000000e-01,4.814453125000000000e-01,4.492187500000000000e-02,-9.838867187500000000e-01,2.216796875000000000e-01,-2.375000000000000000e+00,-1.250000000000000000e-01,8.125000000000000000e-01
3.400000000000001910e-01,-1.000000000000000000e+00,0.000000000000000000e+00,6.000000000000000000e+00,1.800000000000000000e+01,-1.000000000000000000e+00,-4.000000000000000000e+00,-2.000000000000000000e+00,-2.000000000000000000e+00,-3.541870117187500000e-01,-5.101928710937500000e-01,6.184082031250000000e-01,4.814453125000000000e-01,4.492187500000000000e-02,-9.838867187500000000e-01,2.216796875000000000e-01,-2.375000000000000000e+00,-1.250000000000000000e-01,8.125000000000000000e-01
3.450000000000001954e-01,0.000000000000000000e+00,-2.000000000000000000e+00,-6.000000000000000000e+00,-7.000000000000000000e+00,3.000000000000000000e+00,-3.000000000000000000e+00,0.000000000000000000e+00,2.000000000000000000e+00,-3.544921875000000000e-01,-5.102539062500000000e-01,6.182861328125000000e-01,4.813232421875000000e-01,5.419921875000000000e-02,-9.741210937500000000e-01,2.241210937500000000e-01,-1.437500000000000000e+00,1.000000000000000000e+00,6.875000000000000000e-01
3.500000000000001998e-01,0.000000000000000000e+00,-2.000000000000000000e+00,-6.000000000000000000e+00,-7.000000000000000000e+00,3.000000000000000000e+00,-3.000000000000000000e+00,0.000000000000000000e+00,2.000000000000000000e+00,-3.544921875000000000e-01,-5.102539062500000000e-01,6.182861328125000000e-01,4.813232421875000000e-01,5.419921875000000000e-02,-9.741210937500000000e-01,2.241210937500000000e-01,-1.437500000000000000e+00,1.000000000000000000e+00,6.875000000000000000e-01
3.550000000000002043e-01,0.000000000000000000e+00,-2.000000000000000000e+00,-6.000000000000000000e+00,-7.000000000000000000e+00,3.000000000000000000e+00,-3.000000000000000000e+00,0.000000000000000000e+00,2.000000000000000000e+00,-3.544921875000000000e-01,-5.102539062500000000e-01,6.182861328125000000e-01,4.813232421875000000e-01,5.419921875000000000e-02,-9.741210937500000000e-01,2.241210937500000000e-01,-1.437500000000000000e+00,1.000000000000000000e+00,6.875000000000000000e-01
3.600000000000002087e-01,0.000000000000000000e+00,0.000000000000000000e+00,-3.000000000000000000e+00,-7.000000000000000000e+00,0.000000000000000000e+00,1.000000000000000000e+00,6.000000000000000000e+00,0.000000000000000000e+00,-3.544921875000000000e-01,-5.102539062500000000e-01,6.182861328125000000e-01,4.813232421875000000e-01,5.419921875000000000e-02,-9.741210937500000000e-01,2.241210937500000000e-01,-1.437500000000000000e+00,1.000000000000000000e+00,6.875000000000000000e-01
3.650000000000002132e-01,-1.000000000000000000e+00,0.000000000000000000e+00,-1.000000000000000000e+00,-1.100000000000000000e+01,3.000000000000000000e+00,-3.000000000000000000e+00,2.000000000000000000e+00,0.000000000000000000e+00,-3.544921875000000000e-01,-5.102539062500000000e-01,6.182861328125000000e-01,4.813232421875000000e-01,5.419921875000000000e-02,-9.741210937500000000e-01,2.241210937500000000e-01,-1.437500000000000000e+00,1.000000000000000000e+00,6.875000000000000000e-01
3.700000000000002176e-01,-1.000000000000000000e+00,0.000000000000000000e+00,-1.000000000000000000e+00,-1.100000000000000000e+01,3.000000000000000000e+00,-3.000000000000000000e+00,2.000000000000000000e+00,0.000000000000000000e+00,-3.544921875000000000e-01,-5.100097656250000000e-01,6.185302734375000000e-01,4.813232421875000000e-01,4.541015625000000000e-02,-9.653320312500000000e-01,2.207031250000000000e-01,2.000000000000000000e+00,1.250000000000000000e-01,8.125000000000000000e-01
3.750000000000002220e-01,0.000000000000000000e+00,-1.000000000000000000e+00,-9.000000000000000000e+00,-1.600000000000000000e+01,0.000000000000000000e+00,1.000000000000000000e+00,-1.000000000000000000e+01,-2.000000000000000000e+00,-3.544921875000000000e-01,-5.100097656250000000e-01,6.185302734375000000e-01,4.813232421875000000e-01,4.541015625000000000e-02,-9.653320312500000000e-01,2.207031250000000000e-01,2.000000000000000000e+00,1.250000000000000000e-01,8.125000000000000000e-01
3.800000000000002265e-01,0.000000000000000000e+00,-1.000000000000000000e+00,-9.000000000000000000e+00,-1.600000000000000000e+01,0.000000000000000000e+00,1.000000000000000000e+00,-1.000000000000000000e+01,-2.000000000000000000e+00,-3.544921875000000000e-01,-5.100097656250000000e-01,6.185302734375000000e-01,4.813232421875000000e-01,4.541015625000000000e-02,-9.653320312500000000e-01,2.207031250000000000e-01,2.000000000000000000e+00,1.250000000000000000e-01,8.125000000000000000e-01
3.850000000000001754e-01,0.000000000000000000e+00,0.000000000000000000e+00,-1.900000000000000000e+01,-6.200000000000000000e+01,-1.900000000000000000e+01,-7.000000000000000000e+00,2.000000000000000000e+00,4.000000000000000000e+00,-3.544921875000000000e-01,-5.100097656250000000e-01,6.185302734375000000e-01,4.813232421875000000e-01,4.541015625000000000e-02,-9.653320312500000000e-01,2.207031250000000000e-01,2.000000000000000000e+00,1.250000000000000000e-01,8.125000000000000000e-01
3.900000000000001799e-01,0.000000000000000000e+00,0.000000000000000000e+00,-1.900000000000000000e+01,-6.200000000000000000e+01,-1.900000000000000000e+01,-7.000000000000000000e+00,2.000000000000000000e+00,4.000000000000000000e+00,-3.544921875000000000e-01,-5.100097656250000000e-01,6.185302734375000000e-01,4.813232421875000000e-01,4.541015625000000000e-02,-9.653320312500000000e-01,2.207031250000000000e-01,2.000000000000000000e+00,1.250000000000000000e-01,8.125000000000000000e-01
3.950000000000001843e-01,0.000000000000000000e+00,0.000000000000000000e+00,-1.900000000000000000e+01,-6.200000000000000000e+01,-1.900000000000000000e+01,-7.000000000000000000e+00,2.000000000000000000e+00,4.000000000000000000e+00,-3.542480468750000000e-01,-5.095825195312500000e-01,6.189575195312500000e-01,4.813842773437500000e-01,4.296875000000000000e-02,-9.599609375000000000e-01,2.211914062500000000e-01,3.750000000000000000e+00,-6.875000000000000000e-01,5.625000000000000000e-01
4.000000000000001887e-01,0.000000000000000000e+00,0.000000000000000000e+00,-1.900000000000000000e+01,-6.200000000000000000e+01,-1.900000000000000000e+01,-7.000000000000000000e+00,2.000000000000000000e+00,4.000000000000000000e+00,-3.542480468750000000e-01,-5.095825195312500000e-01,6.189575195312500000e-01,4.813842773437500000e-01,4.296875000000000000e-02,-9.599609375000000000e-01,2.211914062500000000e-01,3.750000000000000000e+00,-6.875000000000000000e-01,5.625000000000000000e-01
4.050000000000001932e-01,-3.000000000000000000e+00,-5.000000000000000000e+00,0.000000000000000000e+00,1.700000000000000000e+01,5.000000000000000000e+00,-7.000000000000000000e+00,-1.000000000000000000e+00,-1.000000000000000000e+00,-3.542480468750000000e-01,-5.095825195312500000e-01,6.189575195312500000e-01,4.813842773437500000e-01,4.296875000000000000e-02,-9.599609375000000000e-01,2.211914062500000000e-01,3.750000000000000000e+00,-6.875000000000000000e-01,5.625000000000000000e-01
4.100000000000001976e-01,0.000000000000000000e+00,1.000000000000000000e+00,4.000000000000000000e+00,1.700000000000000000e+01,3.000000000000000000e+00,-9.000000000000000000e+00,2.100000000000000000e+01,-2.000000000000000000e+00,-3.542480468750000000e-01,-5.095825195312500000e-01,6.189575195312500000e-01,4.813842773437500000e-01,4.296875000000000000e-02,-9.599609375000000000e-01,2.211914062500000000e-01,3.750000000000000000e+00,-6.875000000000000000e-01,5.625000000000000000e-01
4.150000000000002021e-01,0.000000000000000000e+00,1.000000000000000000e+00,4.000000000000000000e+00,1.700000000000000000e+01,3.000000000000000000e+00,-9.000000000000000000e+00,2.100000000000000000e+01,-2.000000000000000000e+00,-3.542480468750000000e-01,-5.095825195312500000e-01,6.189575195312500000e-01,4.813232421875000000e-01,4.052734375000000000e-02,-9.721679687500000000e-01,2.250976562500000000e-01,3.750000000000000000e-01,5.625000000000000000e-01,6.250000000000000000e-02
4.200000000000002065e-01,0.000000000000000000e+00,1.000000000000000000e+00,4.000000000000000000e+00,1.700000000000000000e+01,3.000000000000000000e+00,-9.000000000000000000e+00,2.100000000000000000e+01,-2.000000000000000000e+00,-3.542480468750000000e-01,-5.095825195312500000e-01,6.189575195312500000e-01,4.813232421875000000e-01,4.052734375000000000e-02,-9.721679687500000000e-01,2.250976562500000000e-01,3.750000000000000000e-01,5.625000000000000000e-01,6.250000000000000000e-02
4.250000000000002109e-01,2.000000000000000000e+00,0.000000000000000000e+00,-4.000000000000000000e+00,-1.000000000000000000e+00,-1.000000000000000000e+00,6.000000000000000000e+00,-8.000000000000000000e+00,-1.000000000000000000e+00,-3.542480468750000000e-01,-5.095825195312500000e-01,6.189575195312500000e-01,4.813232421875000000e-01,4.052734375000000000e-02,-9.721679687500000000e-01,2.250976562500000000e-01,3.750000000000000000e-01,5.625000000000000000e-01,6.250000000000000000e-02
4.300000000000002154e-01,-2.000000000000000000e+00,0.000000000000000000e+00,-1.000000000000000000e+00,-4.300000000000000000e+01,-8.000000000000000000e+00,-7.000000000000000000e+00,-1.000000000000000000e+01,-5.000000000000000000e+00,-3.542480468750000000e-01,-5.095825195312500000e-01,6.189575195312500000e-01,4.813232421875000000e-01,4.052734375000000000e-02,-9.721679687500000000e-01,2.250976562500000000e-01,3.750000000000000000e-01,5.625000000000000000e-01,6.250000000000000000e-02
4.350000000000002753e-01,-2.000000000000000000e+00,0.000000000000000000e+00,-1.000000000000000000e+00,-4.300000000000000000e+01,-8.000000000000000000e+00,-7.000000000000000000e+00,-1.000000000000000000e+01,-5.000000000000000000e+00,-3.542480468750000000e-01,-5.095825195312500000e-01,6.189575195312500000e-01,4.813232421875000000e-01,4.052734375000000000e-02,-9.721679687500000000e-01,2.250976562500000000e-01,3.750000000000000000e-01,5.625000000000000000e-01,6.250000000000000000e-02
4.400000000000002798e-01,-2.000000000000000000e+00,0.000000000000000000e+00,-1.000000000000000000e+00,-4.300000000000000000e+01,-8.000000000000000000e+00,-7.000000000000000000e+00,-1.000000000000000000e+01,-5.000000000000000000e+00,-3.541259765625000000e-01,-5.092773437500000000e-01,6.192626953125000000e-01,4.813842773437500000e-01,4.785156250000000000e-02,-9.614257812500000000e-01,2.153320312500000000e-01,3.250000000000000000e+00,-3.125000000000000000e-01,6.250000000000000000e-01
4.450000000000002842e-01,-3.000000000000000000e+00,-5.000000000000000000e+00,1.000000000000000000e+00,-5.000000000000000000e+00,-1.400000000000000000e+01,-1.600000000000000000e+01,-9.000000000000000000e+00,0.000000000000000000e+00,-3.541259765625000000e-01,-5.092773437500000000e-01,6.192626953125000000e-01,4.813842773437500000e-01,4.785156250000000000e-02,-9.614257812500000000e-01,2.153320312500000000e-01,3.250000000000000000e+00,-3.125000000000000000e-01,6.250000000000000000e-01
4.500000000000002887e-01,-3.000000000000000000e+00,-5.000000000000000000e+00,1.000000000000000000e+00,-5.000000000000000000e+00,-1.400000000000000000e+01,-1.600000000000000000e+01,-9.000000000000000000e+00,0.000000000000000000e+00,-3.541259765625000000e-01,-5.092773437500000000e-01,6.192626953125000000e-01,4.813842773437500000e-01,4.785156250000000000e-02,-9.614257812500000000e-01,2.153320312500000000e-01,3.250000000000000000e+00,-3.125000000000000000e-01,6.250000000000000000e-01
4.550000000000002931e-01,0.000000000000000000e+00,1.000000000000000000e+00,2.000000000000000000e+00,1.100000000000000000e+01,4.000000000000000000e+00,-1.000000000000000000e+00,-2.700000000000000000e+01,-2.000000000000000000e+00,-3.541259765625000000e-01,-5.092773437500000000e-01,6.192626953125000000e-01,4.813842773437500000e-01,4.785156250000000000e-02,-9.614257812500000000e-01,2.153320312500000000e-01,3.250000000000000000e+00,-3.125000000000000000e-01,6.250000000000000000e-01
4.600000000000002975e-01,0.000000000000000000e+00,1.000000000000000000e+00,2.000000000000000000e+00,1.100000000000000000e+01,4.000000000000000000e+00,-1.000000000000000000e+00,-2.700000000000000000e+01,-2.000000000000000000e+00,-3.542480468750000000e-01,-5.087890625000000000e-01,6.194458007812500000e-01,4.815673828125000000e-01,4.931640625000000000e-02,-9.687500000000000000e-01,2.241210937500000000e-01,2.625000000000000000e+00,2.062500000000000000e+00,8.125000000000000000e-01
4.650000000000003020e-01,0.000000000000000000e+00,1.000000000000000000e+00,2.000000000000000000e+00,1.100000000000000000e+01,4.000000000000000000e+00,-1.000000000000000000e+00,-2.700000000000000000e+01,-2.000000000000000000e+00,-3.542480468750000000e-01,-5.087890625000000000e-01,6.194458007812500000e-01,4.815673828125000000e-01,4.931640625000000000e-02,-9.687500000000000000e-01,2.241210937500000000e-01,2.625000000000000000e+00,2.062500000000000000e+00,8.125000000000000000e-01
4.700000000000003064e-01,1.000000000000000000e+00,-1.000000000000000000e+00,-7.000000000000000000e+00,-7.000000000000000000e+00,0.000000000000000000e+00,-2.000000000000000000e+00,-8.000000000000000000e+00,1.000000000000000000e+00,-3.542480468750000000e-01,-5.087890625000000000e-01,6.194458007812500000e-01,4.815673828125000000e-01,4.931640625000000000e-02,-9.687500000000000000e-01,2.241210937500000000e-01,2.625000000000000000e+00,2.062500000000000000e+00,8.125000000000000000e-01
4.750000000000003109e-01,1.000000000000000000e+00,-1.000000000000000000e+00,-7.000000000000000000e+00,-7.000000000000000000e+00,0.000000000000000000e+00,-2.000000000000000000e+00,-8.000000000000000000e+00,1.000000000000000000e+00,-3.542480468750000000e-01,-5.087890625000000000e-01,6.194458007812500000e-01,4.815673828125000000e-01,4.931640625000000000e-02,-9.687500000000000000e-01,2.241210937500000000e-01,2.625000000000000000e+00,2.062500000000000000e+00,8.125000000000000000e-01
4.800000000000003153e-01,-3.000000000000000000e+00,-3.000000000000000000e+00,-2.000000000000000000e+00,-1.500000000000000000e+01,-7.000000000000000000e+00,-3.200000000000000000e+01,-7.000000000000000000e+00,-4.000000000000000000e+00,-3.543701171875000000e-01,-5.079956054687500000e-01,6.198120117187500000e-01,4.818725585937500000e-01,4.492187500000000000e-02,-9.462890625000000000e-01,2.270507812500000000e-01,4.250000000000000000e+00,2.500000000000000000e+00,2.000000000000000000e+00
4.850000000000003197e-01,-3.000000000000000000e+00,-3.000000000000000000e+00,-2.000000000000000000e+00,-1.500000000000000000e+01,-7.000000000000000000e+00,-3.200000000000000000e+01,-7.000000000000000000e+00,-4.000000000000000000e+00,-3.543701171875000000e-01,-5.079956054687500000e-01,6.198120117187500000e-01,4.818725585937500000e-01,4.492187500000000000e-02,-9.462890625000000000e-01,2.270507812500000000e-01,4.250000000000000000e+00,2.500000000000000000e+00,2.000000000000000000e+00
4.900000000000003242e-01,0.000000000000000000e+00,0.000000000000000000e+00,3.000000000000000000e+00,5.000000000000000000e+00,6.000000000000000000e+00,1.100000000000000000e+01,-2.000000000000000000e+00,-2.000000000000000000e+00,-3.543701171875000000e-01,-5.079956054687500000e-01,6.198120117187500000e-01,4.818725585937500000e-01,4.492187500000000000e-02,-9.462890625000000000e-01,2.270507812500000000e-01,4.250000000000000000e+00,2.500000000000000000e+00,2.000000000000000000e+00
4.950000000000002731e-01,1.000000000000000000e+00,-5.000000000000000000e+00,-1.500000000000000000e+01,-9.000000000000000000e+00,-3.000000000000000000e+00,1.400000000000000000e+01,0.000000000000000000e+00,-2.000000000000000000e+00,-3.549194335937500000e-01,-5.074462890625000000e-01,6.196899414062500000e-01,4.821166992187500000e-01,5.175781250000000000e-02,-9.667968750000000000e-01,2.309570312500000000e-01,5.625000000000000000e-01,4.437500000000000000e+00,1.375000000000000000e+00
5.000000000000003331e-01,1.000000000000000000e+00,-5.000000000000000000e+00,-1.500000000000000000e+01,-9.000000000000000000e+00,-3.000000000000000000e+00,1.400000000000000000e+01,0.000000000000000000e+00,-2.000000000000000000e+00,-3.549194335937500000e-01,-5.074462890625000000e-01,6.196899414062500000e-01,4.821166992187500000e-01,5.175781250000000000e-02,-9.667968750000000000e-01,2.309570312500000000e-01,5.625000000000000000e-01,4.437500000000000000e+00,1.375000000000000000e+00
5.050000000000003375e-01,1.000000000000000000e+00,-5.000000000000000000e+00,-1.500000000000000000e+01,-9.000000000000000000e+00,-3.000000000000000000e+00,1.400000000000000000e+01,0.000000000000000000e+00,-2.000000000000000000e+00,-3.549194335937500000e-01,-5.074462890625000000e-01,6.196899414062500000e-01,4.821166992187500000e-01,5.175781250000000000e-02,-9.667968750000000000e-01,2.309570312500000000e-01,5.625000000000000000e-01,4.437500000000000000e+00,1.375000000000000000e+00
5.100000000000003419e-01,-4.000000000000000000e+00,2.000000000000000000e+00,8.000000000000000000e+00,3.800000000000000000e+01,9.000000000000000000e+00,9.000000000000000000e+00,-4.000000000000000000e+00,-3.000000000000000000e+00,-3.549194335937500000e-01,-5.074462890625000000e-01,6.196899414062500000e-01,4.821166992187500000e-01,5.175781250000000000e-02,-9.667968750000000000e-01,2.309570312500000000e-01,5.625000000000000000e-01,4.437500000000000000e+00,1.375000000000000000e+00
5.150000000000003464e-01,-4.000000000000000000e+00,2.000000000000000000e+00,8.000000000000000000e+00,3.800000000000000000e+01,9.000000000000000000e+00,9.000000000000000000e+00,-4.000000000000000000e+00,-3.000000000000000000e+00,-3.554687500000000000e-01,-5.072631835937500000e-01,6.192016601562500000e-01,4.826049804687500000e-01,6.250000000000000000e-02,-9.970703125000000000e-01,2.309570312500000000e-01,-6.875000000000000000e-01,5.125000000000000000e+00,-1.875000000000000000e-01
5.200000000000003508e-01,-4.000000000000000000e+00,2.000000000000000000e+00,8.000000000000000000e+00,3.800000000000000000e+01,9.000000000000000000e+00,9.000000000000000000e+00,-4.000000000000000000e+00,-3.000000000000000000e+00,-3.554687500000000000e-01,-5.072631835937500000e-01,6.192016601562500000e-01,4.826049804687500000e-01,6.250000000000000000e-02,-9.970703125000000000e-01,2.309570312500000000e-01,-6.875000000000000000e-01,5.125000000000000000e+00,-1.875000000000000000e-01
5.250000000000003553e-01,1.000000000000000000e+00,0.000000000000000000e+00,-4.000000000000000000e+00,-2.600000000000000000e+01,-1.000000000000000000e+00,3.000000000000000000e+00,-1.000000000000000000e+00,-1.000000000000000000e+00,-3.554687500000000000e-01,-5.072631835937500000e-01,6.192016601562500000e-01,4.826049804687500000e-01,6.250000000000000000e-02,-9.970703125000000000e-01,2.309570312500000000e-01,-6.875000000000000000e-01,5.125000000000000000e+00,-1.875000000000000000e-01
5.300000000000003597e-01,1.000000000000000000e+00,0.000000000000000000e+00,-4.000000000000000000e+00,-2.600000000000000000e+01,-1.000000000000000000e+00,3.000000000000000000e+00,-1.000000000000000000e+00,-1.000000000000000000e+00,-3.554687500000000000e-01,-5.072631835937500000e-01,6.192016601562500000e-01,4.826049804687500000e-01,6.250000000000000000e-02,-9.970703125000000000e-01,2.309570312500000000e-01,-6.875000000000000000e-01,5.125000000000000000e+00,-1.875000000000000000e-01
5.350000000000003642e-01,-2.000000000000000000e+00,-4.000000000000000000e+00,-7.000000000000000000e+00,1.000000000000000000e+00,-1.200000000000000000e+01,-7.000000000000000000e+00,-5.000000000000000000e+00,-3.000000000000000000e+00,-3.555908203125000000e-01,-5.068969726562500000e-01,6.189575195312500000e-01,4.831542968750000000e-01,6.201171875000000000e-02,-1.014160156250000000e+00,2.329101562500000000e-01,1.937500000000000000e+00,3.625000000000000000e+00,-9.375000000000000000e-01
5.400000000000003686e-01,-2.000000000000000000e+00,-4.000000000000000000e+00,-7.000000000000000000e+00,1.000000000000000000e+00,-1.200000000000000000e+01,-7.000000000000000000e+00,-5.000000000000000000e+00,-3.000000000000000000e+00,-3.555908203125000000e-01,-5.068969726562500000e-01,6.189575195312500000e-01,4.831542968750000000e-01,6.201171875000000000e-02,-1.014160156250000000e+00,2.329101562500000000e-01,1.937500000000000000e+00,3.625000000000000000e+00,-9.375000000000000000e-01
5.450000000000003730e-01,-2.000000000000000000e+00,-4.000000000000000000e+00,-7.000000000000000000e+00,1.000000000000000000e+00,-1.200000000000000000e+01,-7.000000000000000000e+00,-5.000000000000000000e+00,-3.000000000000000000e+00,-3.555908203125000000e-01,-5.068969726562500000e-01,6.189575195312500000e-01,4.831542968750000000e-01,6.201171875000000000e-02,-1.014160156250000000e+00,2.329101562500000000e-01,1.937500000000000000e+00,3.625000000000000000e+00,-9.375000000000000000e-01
5.500000000000003775e-01,-1.000000000000000000e+00,0.000000000000000000e+00,1.000000000000000000e+01,1.900000000000000000e+01,-5.000000000000000000e+00,-5.000000000000000000e+00,-2.300000000000000000e+01,0.000000000000000000e+00,-3.555908203125000000e-01,-5.068969726562500000e-01,6.189575195312500000e-01,4.831542968750000000e-01,6.201171875000000000e-02,-1.014160156250000000e+00,2.329101562500000000e-01,1.937500000000000000e+00,3.625000000000000000e+00,-9.375000000000000000e-01
5.550000000000003819e-01,-1.000000000000000000e+00,0.000000000000000000e+00,1.000000000000000000e+01,1.900000000000000000e+01,-5.000000000000000000e+00,-5.000000000000000000e+00,-2.300000000000000000e+01,0.000000000000000000e+00,-3.555908203125000000e-01,-5.068969726562500000e-01,6.189575195312500000e-01,4.831542968750000000e-01,6.201171875000000000e-02,-1.014160156250000000e+00,2.329101562500000000e-01,1.937500000000000000e+00,3.625000000000000000e+00,-9.375000000000000000e-01
5.600000000000003864e-01,-4.000000000000000000e+00,-6.000000000000000000e+00,1.300000000000000000e+01,4.300000000000000000e+01,-2.000000000000000000e+00,-1.900000000000000000e+01,1.000000000000000000e+01,-2.000000000000000000e+00,-3.556518554687500000e-01,-5.066528320312500000e-01,6.187744140625000000e-01,4.836425781250000000e-01,5.273437500000000000e-02,-1.011718750000000000e+00,2.348632812500000000e-01,1.812500000000000000e+00,2.875000000000000000e+00,-1.437500000000000000e+00
5.650000000000003908e-01,-2.000000000000000000e+00,-1.000000000000000000e+00,-7.000000000000000000e+00,-1.300000000000000000e+01,-1.000000000000000000e+00,-1.600000000000000000e+01,-1.000000000000000000e+00,-2.000000000000000000e+00,-3.556518554687500000e-01,-5.066528320312500000e-01,6.187744140625000000e-01,4.836425781250000000e-01,5.273437500000000000e-02,-1.011718750000000000e+00,2.348632812500000000e-01,1.812500000000000000e+00,2.875000000000000000e+00,-1.437500000000000000e+00
5.700000000000003952e-01,-4.000000000000000000e+00,-1.000000000000000000e+00,-5.000000000000000000e+00,1.100000000000000000e+01,1.000000000000000000e+00,2.500000000000000000e+01,-2.000000000000000000e+00,-3.000000000000000000e+00,-3.556518554687500000e-01,-5.066528320312500000e-01,6.187744140625000000e-01,4.836425781250000000e-01,5.273437500000000000e-02,-1.011718750000000000e+00,2.348632812500000000e-01,1.812500000000000000e+00,2.875000000000000000e+00,-1.437500000000000000e+00
5.750000000000003997e-01,-4.000000000000000000e+00,-1.000000000000000000e+00,-5.000000000000000000e+00,1.100000000000000000e+01,1.000000000000000000e+00,2.500000000000000000e+01,-2.000000000000000000e+00,-3.000000000000000000e+00,-3.556518554687500000e-01,-5.066528320312500000e-01,6.187744140625000000e-01,4.836425781250000000e-01,5.273437500000000000e-02,-1.011718750000000000e+00,2.348632812500000000e-01,1.812500000000000000e+00,2.875000000000000000e+00,-1.437500000000000000e+00
5.800000000000004041e-01,-4.000000000000000000e+00,-1.000000000000000000e+00,-5.000000000000000000e+00,1.100000000000000000e+01,1.000000000000000000e+00,2.500000000000000000e+01,-2.000000000000000000e+00,-3.000000000000000000e+00,-3.562011718750000000e-01,-5.066528320312500000e-01,6.182250976562500000e-01,4.839477539062500000e-01,4.248046875000000000e-02,-1.017089843750000000e+00,2.373046875000000000e-01,-2.125000000000000000e+00,3.687500000000000000e+00,-1.812500000000000000e+00
5.850000000000004086e-01,-2.000000000000000000e+00,2.000000000000000000e+00,8.000000000000000000e+00,1.400000000000000000e+01,-5.000000000000000000e+00,-1.800000000000000000e+01,-5.000000000000000000e+00,1.000000000000000000e+00,-3.562011718750000000e-01,-5.066528320312500000e-01,6.182250976562500000e-01,4.839477539062500000e-01,4.248046875000000000e-02,-1.017089843750000000e+00,2.373046875000000000e-01,-2.125000000000000000e+00,3.687500000000000000e+00,-1.812500000000000000e+00
5.900000000000004130e-01,-2.000000000000000000e+00,2.000000000000000000e+00,8.000000000000000000e+00,1.400000000000000000e+01,-5.000000000000000000e+00,-1.800000000000000000e+01,-5.000000000000000000e+00,1.000000000000000000e+00,-3.562011718750000000e-01,-5.066528320312500000e-01,6.182250976562500000e-01,4.839477539062500000e-01,4.248046875000000000e-02,-1.017089843750000000e+00,2.373046875000000000e-01,-2.125000000000000000e+00,3.687500000000000000e+00,-1.812500000000000000e+00
5.950000000000004174e-01,-2.000000000000000000e+00,-3.000000000000000000e+00,-1.100000000000000000e+01,-5.000000000000000000e+00,4.000000000000000000e+00,3.000000000000000000e+00,3.000000000000000000e+00,-2.000000000000000000e+00,-3.564453125000000000e-01,-5.065307617187500000e-01,6.177978515625000000e-01,4.844360351562500000e-01,3.564453125000000000e-02,-1.025390625000000000e+00,2.495117187500000000e-01,-1.062500000000000000e+00,3.250000000000000000e+00,-3.062500000000000000e+00
6.000000000000004219e-01,-2.000000000000000000e+00,-3.000000000000000000e+00,-1.100000000000000000e+01,-5.000000000000000000e+00,4.000000000000000000e+00,3.000000000000000000e+00,3.000000000000000000e+00,-2.000000000000000000e+00,-3.564453125000000000e-01,-5.065307617187500000e-01,6.177978515625000000e-01,4.844360351562500000e-01,3.564453125000000000e-02,-1.025390625000000000e+00,2.495117187500000000e-01,-1.062500000000000000e+00,3.250000000000000000e+00,-3.062500000000000000e+00
6.050000000000004263e-01,-4.000000000000000000e+00,-4.000000000000000000e+00,-1.100000000000000000e+01,-1.400000000000000000e+01,-8.000000000000000000e+00,1.100000000000000000e+01,-1.000000000000000000e+00,-8.000000000000000000e+00,-3.564453125000000000e-01,-5.065307617187500000e-01,6.177978515625000000e-01,4.844360351562500000e-01,3.564453125000000000e-02,-1.025390625000000000e+00,2.495117187500000000e-01,-1.062500000000000000e+00,3.250000000000000000e+00,-3.062500000000000000e+00
6.100000000000004308e-01,-4.000000000000000000e+00,-4.000000000000000000e+00,-1.100000000000000000e+01,-1.400000000000000000e+01,-8.000000000000000000e+00,1.100000000000000000e+01,-1.000000000000000000e+00,-8.000000000000000000e+00,-3.564453125000000000e-01,-5.065307617187500000e-01,6.177978515625000000e-01,4.844360351562500000e-01,3.564453125000000000e-02,-1.025390625000000000e+00,2.495117187500000000e-01,-1.062500000000000000e+00,3.250000000000000000e+00,-3.062500000000000000e+00
6.150000000000004352e-01,0.000000000000000000e+00,0.000000000000000000e+00,6.000000000000000000e+00,8.000000000000000000e+00,-3.000000000000000000e+00,-1.400000000000000000e+01,-1.700000000000000000e+01,1.000000000000000000e+00,-3.563842773437500000e-01,-5.062866210937500000e-01,6.176757812500000000e-01,4.848632812500000000e-01,2.832031250000000000e-02,-1.015625000000000000e+00,2.568359375000000000e-01,6.875000000000000000e-01,1.375000000000000000e+00,-3.375000000000000000e+00
6.200000000000004396e-01,1.000000000000000000e+00,0.000000000000000000e+00,5.000000000000000000e+00,-1.900000000000000000e+01,6.000000000000000000e+00,-8.000000000000000000e+00,6.000000000000000000e+00,2.000000000000000000e+00,-3.563842773437500000e-01,-5.062866210937500000e-01,6.176757812500000000e-01,4.848632812500000000e-01,2.832031250000000000e-02,-1.015625000000000000e+00,2.568359375000000000e-01,6.875000000000000000e-01,1.375000000000000000e+00,-3.375000000000000000e+00
6.250000000000004441e-01,1.000000000000000000e+00,0.000000000000000000e+00,5.000000000000000000e+00,-1.900000000000000000e+01,6.000000000000000000e+00,-8.000000000000000000e+00,6.000000000000000000e+00,2.000000000000000000e+00,-3.563842773437500000e-01,-5.062866210937500000e-01,6.176757812500000000e-01,4.848632812500000000e-01,2.832031250000000000e-02,-1.015625000000000000e+00,2.568359375000000000e-01,6.875000000000000000e-01,1.375000000000000000e+00,-3.375000000000000000e+00
6.300000000000004485e-01,0.000000000000000000e+00,-1.000000000000000000e+00,6.000000000000000000e+00,1.500000000000000000e+01,2.000000000000000000e+00,-8.000000000000000000e+00,-1.000000000000000000e+01,-2.000000000000000000e+00,-3.563842773437500000e-01,-5.062866210937500000e-01,6.176757812500000000e-01,4.848632812500000000e-01,2.832031250000000000e-02,-1.015625000000000000e+00,2.568359375000000000e-01,6.875000000000000000e-01,1.375000000000000000e+00,-3.375000000000000000e+00
6.350000000000004530e-01,0.000000000000000000e+00,-1.000000000000000000e+00,6.000000000000000000e+00,1.500000000000000000e+01,2.000000000000000000e+00,-8.000000000000000000e+00,-1.000000000000000000e+01,-2.000000000000000000e+00,-3.563842773437500000e-01,-5.062866210937500000e-01,6.176757812500000000e-01,4.848632812500000000e-01,2.832031250000000000e-02,-1.015625000000000000e+00,2.568359375000000000e-01,6.875000000000000000e-01,1.375000000000000000e+00,-3.375000000000000000e+00
6.400000000000004574e-01,0.000000000000000000e+00,-1.000000000000000000e+00,6.000000000000000000e+00,1.500000000000000000e+01,2.000000000000000000e+00,-8.000000000000000000e+00,-1.000000000000000000e+01,-2.000000000000000000e+00,-3.562011718750000000e-01,-5.062255859375000000e-01,6.177368164062500000e-01,4.850463867187500000e-01,2.001953125000000000e-02,-1.010742187500000000e+00,2.519531250000000000e-01,8.125000000000000000e-01,-6.875000000000000000e-01,-3.250000000000000000e+00
6.450000000000004619e-01,0.000000000000000000e+00,-1.000000000000000000e+00,6.000000000000000000e+00,1.500000000000000000e+01,2.000000000000000000e+00,-8.000000000000000000e+00,-1.000000000000000000e+01,-2.000000000000000000e+00,-3.562011718750000000e-01,-5.062255859375000000e-01,6.177368164062500000e-01,4.850463867187500000e-01,2.001953125000000000e-02,-1.010742187500000000e+00,2.519531250000000000e-01,8.125000000000000000e-01,-6.875000000000000000e-01,-3.250000000000000000e+00
6.500000000000004663e-01,-1.000000000000000000e+00,-4.000000000000000000e+00,-2.700000000000000000e+01,-8.100000000000000000e+01,-8.000000000000000000e+00,1.400000000000000000e+01,1.800000000000000000e+01,-1.000000000000000000e+00,-3.562011718750000000e-01,-5.062255859375000000e-01,6.177368164062500000e-01,4.850463867187500000e-01,2.001953125000000000e-02,-1.010742187500000000e+00,2.519531250000000000e-01,8.125000000000000000e-01,-6.875000000000000000e-01,-3.250000000000000000e+00
6.550000000000004707e-01,-1.000000000000000000e+00,-4.000000000000000000e+00,-2.700000000000000000e+01,-8.100000000000000000e+01,-8.000000000000000000e+00,1.400000000000000000e+01,1.800000000000000000e+01,-1.000000000000000000e+00,-3.562011718750000000e-01,-5.062255859375000000e-01,6.177368164062500000e-01,4.850463867187500000e-01,2.001953125000000000e-02,-1.010742187500000000e+00,2.519531250000000000e-01,8.125000000000000000e-01,-6.875000000000000000e-01,-3.250000000000000000e+00
6.600000000000004752e-01,1.000000000000000000e+00,3.000000000000000000e+00,3.000000000000000000e+00,4.000000000000000000e+00,-3.000000000000000000e+00,-6.000000000000000000e+00,1.100000000000000000e+01,-1.000000000000000000e+00,-3.560791015625000000e-01,-5.064697265625000000e-01,6.176757812500000000e-01,4.848632812500000000e-01,2.539062500000000000e-02,-1.000488281250000000e+00,2.548828125000000000e-01,-2.187500000000000000e+00,-2.062500000000000000e+00,-2.187500000000000000e+00
6.650000000000004796e-01,1.000000000000000000e+00,3.000000000000000000e+00,3.000000000000000000e+00,4.000000000000000000e+00,-3.000000000000000000e+00,-6.000000000000000000e+00,1.100000000000000000e+01,-1.000000000000000000e+00,-3.560791015625000000e-01,-5.064697265625000000e-01,6.176757812500000000e-01,4.848632812500000000e-01,2.539062500000000000e-02,-1.000488281250000000e+00,2.548828125000000000e-01,-2.187500000000000000e+00,-2.062500000000000000e+00,-2.187500000000000000e+00
6.700000000000004841e-01,1.000000000000000000e+00,3.000000000000000000e+00,3.000000000000000000e+00,4.000000000000000000e+00,-3.000000000000000000e+00,-6.000000000000000000e+00,1.100000000000000000e+01,-1.000000000000000000e+00,-3.560791015625000000e-01,-5.064697265625000000e-01,6.176757812500000000e-01,4.848632812500000000e-01,2.539062500000000000e-02,-1.000488281250000000e+00,2.548828125000000000e-01,-2.187500000000000000e+00,-2.062500000000000000e+00,-2.187500000000000000e+00
6.750000000000004885e-01,1.000000000000000000e+00,3.000000000000000000e+00,3.000000000000000000e+00,4.000000000000000000e+00,-3.000000000000000000e+00,-6.000000000000000000e+00,1.100000000000000000e+01,-1.000000000000000000e+00,-3.560791015625000000e-01,-5.064697265625000000e-01,6.176757812500000000e-01,4.848632812500000000e-01,2.539062500000000000e-02,-1.000488281250000000e+00,2.548828125000000000e-01,-2.187500000000000000e+00,-2.062500000000000000e+00,-2.187500000000000000e+00
6.800000000000004929e-01,-8.000000000000000000e+00,-3.000000000000000000e+00,7.000000000000000000e+00,5.000000000000000000e+01,-8.000000000000000000e+00,2.000000000000000000e+00,1.100000000000000000e+01,-3.000000000000000000e+00,-3.560791015625000000e-01,-5.064697265625000000e-01,6.176757812500000000e-01,4.848632812500000000e-01,2.539062500000000000e-02,-1.000488281250000000e+00,2.548828125000000000e-01,-2.187500000000000000e+00,-2.062500000000000000e+00,-2.187500000000000000e+00
6.850000000000004974e-01,-8.000000000000000000e+00,-3.000000000000000000e+00,7.000000000000000000e+00,5.000000000000000000e+01,-8.000000000000000000e+00,2.000000000000000000e+00,1.100000000000000000e+01,-3.000000000000000000e+00,-3.560791015625000000e-01,-5.064697265625000000e-01,6.176757812500000000e-01,4.848632812500000000e-01,2.539062500000000000e-02,-1.000488281250000000e+00,2.548828125000000000e-01,-2.187500000000000000e+00,-2.062500000000000000e+00,-2.187500000000000000e+00
6.900000000000005018e-01,4.000000000000000000e+00,0.000000000000000000e+00,-8.000000000000000000e+00,-4.000000000000000000e+01,1.000000000000000000e+00,3.000000000000000000e+00,1.000000000000000000e+00,5.000000000000000000e+00,-3.554687500000000000e-01,-5.067749023437500000e-01,6.181030273437500000e-01,4.845581054687500000e-01,4.052734375000000000e-02,-9.912109375000000000e-01,2.451171875000000000e-01,6.875000000000000000e-01,-4.875000000000000000e+00,-8.750000000000000000e-01
6.950000000000005063e-01,4.000000000000000000e+00,0.000000000000000000e+00,-8.000000000000000000e+00,-4.000000000000000000e+01,1.000000000000000000e+00,3.000000000000000000e+00,1.000000000000000000e+00,5.000000000000000000e+00,-3.554687500000000000e-01,-5.067749023437500000e-01,6.181030273437500000e-01,4.845581054687500000e-01,4.052734375000000000e-02,-9.912109375000000000e-01,2.451171875000000000e-01,6.875000000000000000e-01,-4.875000000000000000e+00,-8.750000000000000000e-01
7.000000000000005107e-01,4.000000000000000000e+00,0.000000000000000000e+00,-8.000000000000000000e+00,-4.000000000000000000e+01,1.000000000000000000e+00,3.000000000000000000e+00,1.000000000000000000e+00,5.000000000000000000e+00,-3.554687500000000000e-01,-5.067749023437500000e-01,6.181030273437500000e-01,4.845581054687500000e-01,4.052734375000000000e-02,-9.912109375000000000e-01,2.451171875000000000e-01,6.875000000000000000e-01,-4.875000000000000000e+00,-8.750000000000000000e-01
7.050000000000005151e-01,4.000000000000000000e+00,0.000000000000000000e+00,-8.000000000000000000e+00,-4.000000000000000000e+01,1.000000000000000000e+00,3.000000000000000000e+00,1.000000000000000000e+00,5.000000000000000000e+00,-3.554687500000000000e-01,-5.067749023437500000e-01,6.181030273437500000e-01,4.845581054687500000e-01,4.052734375000000000e-02,-9.912109375000000000e-01,2.451171875000000000e-01,6.875000000000000000e-01,-4.875000000000000000e+00,-8.750000000000000000e-01
7.100000000000005196e-01,-1.000000000000000000e+00,-1.000000000000000000e+00,-6.000000000000000000e+00,-5.100000000000000000e+01,-3.000000000000000000e+00,-1.000000000000000000e+00,-4.000000000000000000e+00,-2.000000000000000000e+00,-3.554687500000000000e-01,-5.067749023437500000e-01,6.181030273437500000e-01,4.845581054687500000e-01,4.052734375000000000e-02,-9.912109375000000000e-01,2.451171875000000000e-01,6.875000000000000000e-01,-4.875000000000000000e+00,-8.750000000000000000e-01
7.150000000000005240e-01,-1.000000000000000000e+00,-1.000000000000000000e+00,-6.000000000000000000e+00,-5.100000000000000000e+01,-3.000000000000000000e+00,-1.000000000000000000e+00,-4.000000000000000000e+00,-2.000000000000000000e+00,-3.551025390625000000e-01,-5.072021484375000000e-01,6.184692382812500000e-01,4.838867187500000000e-01,4.833984375000000000e-02,-9.858398437500000000e-01,2.343750000000000000e-01,-6.875000000000000000e-01,-5.125000000000000000e+00,1.000000000000000000e+00
7.200000000000005285e-01,-1.000000000000000000e+00,-1.000000000000000000e+00,-6.000000000000000000e+00,-5.100000000000000000e+01,-3.000000000000000000e+00,-1.000000000000000000e+00,-4.000000000000000000e+00,-2.000000000000000000e+00,-3.551025390625000000e-01,-5.072021484375000000e-01,6.184692382812500000e-01,4.838867187500000000e-01,4.833984375000000000e-02,-9.858398437500000000e-01,2.343750000000000000e-01,-6.875000000000000000e-01,-5.125000000000000000e+00,1.000000000000000000e+00
7.250000000000005329e-01,2.000000000000000000e+00,-1.000000000000000000e+00,-2.000000000000000000e+00,-5.000000000000000000e+00,9.000000000000000000e+00,2.000000000000000000e+01,-2.000000000000000000e+00,2.000000000000000000e+00,-3.551025390625000000e-01,-5.072021484375000000e-01,6.184692382812500000e-01,4.838867187500000000e-01,4.833984375000000000e-02,-9.858398437500000000e-01,2.343750000000000000e-01,-6.875000000000000000e-01,-5.125000000000000000e+00,1.000000000000000000e+00
7.300000000000005373e-01,2.000000000000000000e+00,-1.000000000000000000e+00,-2.000000000000000000e+00,-5.000000000000000000e+00,9.000000000000000000e+00,2.000000000000000000e+01,-2.000000000000000000e+00,2.000000000000000000e+00,-3.551025390625000000e-01,-5.072021484375000000e-01,6.184692382812500000e-01,4.838867187500000000e-01,4.833984375000000000e-02,-9.858398437500000000e-01,2.343750000000000000e-01,-6.875000000000000000e-01,-5.125000000000000000e+00,1.000000000000000000e+00
7.350000000000005418e-01,1.000000000000000000e+00,4.000000000000000000e+00,5.000000000000000000e+00,2.800000000000000000e+01,6.000000000000000000e+00,-5.000000000000000000e+00,0.000000000000000000e+00,0.000000000000000000e+00,-3.551025390625000000e-01,-5.072021484375000000e-01,6.184692382812500000e-01,4.838867187500000000e-01,4.833984375000000000e-02,-9.858398437500000000e-01,2.343750000000000000e-01,-6.875000000000000000e-01,-5.125000000000000000e+00,1.000000000000000000e+00
7.400000000000005462e-01,1.000000000000000000e+00,4.000000000000000000e+00,5.000000000000000000e+00,2.800000000000000000e+01,6.000000000000000000e+00,-5.000000000000000000e+00,0.000000000000000000e+00,0.000000000000000000e+00,-3.551025390625000000e-01,-5.072021484375000000e-01,6.184692382812500000e-01,4.838867187500000000e-01,4.833984375000000000e-02,-9.858398437500000000e-01,2.343750000000000000e-01,-6.875000000000000000e-01,-5.125000000000000000e+00,1.000000000000000000e+00
7.450000000000005507e-01,1.000000000000000000e+00,4.000000000000000000e+00,5.000000000000000000e+00,2.800000000000000000e+01,6.000000000000000000e+00,-5.000000000000000000e+00,0.000000000000000000e+00,0.000000000000000000e+00,-3.549194335937500000e-01,-5.076293945312500000e-01,6.188354492187500000e-01,4.830932617187500000e-01,4.589843750000000000e-02,-9.746093750000000000e-01,2.392578125000000000e-01,-2.062500000000000000e+00,-5.187500000000000000e+00,2.000000000000000000e+00
7.500000000000005551e-01,1.000000000000000000e+00,4.000000000000000000e+00,5.000000000000000000e+00,2.800000000000000000e+01,6.000000000000000000e+00,-5.000000000000000000e+00,0.000000000000000000e+00,0.000000000000000000e+00,-3.549194335937500000e-01,-5.076293945312500000e-01,6.188354492187500000e-01,4.830932617187500000e-01,4.589843750000000000e-02,-9.746093750000000000e-01,2.392578125000000000e-01,-2.062500000000000000e+00,-5.187500000000000000e+00,2.000000000000000000e+00
7.550000000000005596e-01,-1.000000000000000000e+00,-2.000000000000000000e+00,3.000000000000000000e+00,-1.000000000000000000e+00,-1.300000000000000000e+01,-6.000000000000000000e+00,-4.000000000000000000e+00,-4.000000000000000000e+00,-3.549194335937500000e-01,-5.076293945312500000e-01,6.188354492187500000e-01,4.830932617187500000e-01,4.589843750000000000e-02,-9.746093750000000000e-01,2.392578125000000000e-01,-2.062500000000000000e+00,-5.187500000000000000e+00,2.000000000000000000e+00
7.600000000000005640e-01,-1.000000000000000000e+00,-2.000000000000000000e+00,3.000000000000000000e+00,-1.000000000000000000e+00,-1.300000000000000000e+01,-6.000000000000000000e+00,-4.000000000000000000e+00,-4.000000000000000000e+00,-3.549194335937500000e-01,-5.076293945312500000e-01,6.188354492187500000e-01,4.830932617187500000e-01,4.589843750000000000e-02,-9.746093750000000000e-01,2.392578125000000000e-01,-2.062500000000000000e+00,-5.187500000000000000e+00,2.000000000000000000e+00
7.650000000000005684e-01,-1.000000000000000000e+00,-2.000000000000000000e+00,-9.000000000000000000e+00,-5.100000000000000000e+01,4.000000000000000000e+00,4.000000000000000000e+00,1.800000000000000000e+01,0.000000000000000000e+00,-3.549194335937500000e-01,-5.082397460937500000e-01,6.190795898437500000e-01,4.821777343750000000e-01,5.224609375000000000e-02,-9.736328125000000000e-01,2.246093750000000000e-01,-2.687500000000000000e+00,-4.750000000000000000e+00,2.750000000000000000e+00
7.700000000000005729e-01,-1.000000000000000000e+00,-2.000000000000000000e+00,-9.000000000000000000e+00,-5.100000000000000000e+01,4.000000000000000000e+00,4.000000000000000000e+00,1.800000000000000000e+01,0.000000000000000000e+00,-3.549194335937500000e-01,-5.082397460937500000e-01,6.190795898437500000e-01,4.821777343750000000e-01,5.224609375000000000e-02,-9.736328125000000000e-01,2.246093750000000000e-01,-2.687500000000000000e+00,-4.750000000000000000e+00,2.750000000000000000e+00
7.750000000000005773e-01,-1.000000000000000000e+00,-2.000000000000000000e+00,-9.000000000000000000e+00,-5.100000000000000000e+01,4.000000000000000000e+00,4.000000000000000000e+00,1.800000000000000000e+01,0.000000000000000000e+00,-3.549194335937500000e-01,-5.082397460937500000e-01,6.190795898437500000e-01,4.821777343750000000e-01,5.224609375000000000e-02,-9.736328125000000000e-01,2.246093750000000000e-01,-2.687500000000000000e+00,-4.750000000000000000e+00,2.750000000000000000e+00
7.800000000000005818e-01,-1.000000000000000000e+00,-2.000000000000000000e+00,-9.000000000000000000e+00,-5.100000000000000000e+01,4.000000000000000000e+00,4.000000000000000000e+00,1.800000000000000000e+01,0.000000000000000000e+00,-3.549194335937500000e-01,-5.082397460937500000e-01,6.190795898437500000e-01,4.821777343750000000e-01,5.224609375000000000e-02,-9.736328125000000000e-01,2.246093750000000000e-01,-2.687500000000000000e+00,-4.750000000000000000e+00,2.750000000000000000e+00
7.850000000000005862e-01,-3.000000000000000000e+00,2.000000000000000000e+00,6.000000000000000000e+00,1.200000000000000000e+01,7.000000000000000000e+00,-1.800000000000000000e+01,-4.000000000000000000e+00,2.000000000000000000e+00,-3.549194335937500000e-01,-5.082397460937500000e-01,6.190795898437500000e-01,4.821777343750000000e-01,5.224609375000000000e-02,-9.736328125000000000e-01,2.246093750000000000e-01,-2.687500000000000000e+00,-4.750000000000000000e+00,2.750000000000000000e+00
7.900000000000005906e-01,-3.000000000000000000e+00,2.000000000000000000e+00,6.000000000000000000e+00,1.200000000000000000e+01,7.000000000000000000e+00,-1.800000000000000000e+01,-4.000000000000000000e+00,2.000000000000000000e+00,-3.549194335937500000e-01,-5.082397460937500000e-01,6.190795898437500000e-01,4.821777343750000000e-01,5.224609375000000000e-02,-9.736328125000000000e-01,2.246093750000000000e-01,-2.687500000000000000e+00,-4.750000000000000000e+00,2.750000000000000000e+00
7.950000000000005951e-01,-3.000000000000000000e+00,2.000000000000000000e+00,6.000000000000000000e+00,1.200000000000000000e+01,7.000000000000000000e+00,-1.800000000000000000e+01,-4.000000000000000000e+00,2.000000000000000000e+00,-3.549804687500000000e-01,-5.092163085937500000e-01,6.190185546875000000e-01,4.810791015625000000e-01,6.787109375000000000e-02,-9.790039062500000000e-01,2.187500000000000000e-01,-5.562500000000000000e+00,-5.312500000000000000e+00,3.187500000000000000e+00
8.000000000000005995e-01,-3.000000000000000000e+00,2.000000000000000000e+00,6.000000000000000000e+00,1.200000000000000000e+01,7.000000000000000000e+00,-1.800000000000000000e+01,-4.000000000000000000e+00,2.000000000000000000e+00,-3.549804687500000000e-01,-5.092163085937500000e-01,6.190185546875000000e-01,4.810791015625000000e-01,6.787109375000000000e-02,-9.790039062500000000e-01,2.187500000000000000e-01,-5.562500000000000000e+00,-5.312500000000000000e+00,3.187500000000000000e+00
8.050000000000006040e-01,0.000000000000000000e+00,-3.000000000000000000e+00,-6.000000000000000000e+00,1.000000000000000000e+00,0.000000000000000000e+00,7.000000000000000000e+00,-1.100000000000000000e+01,2.000000000000000000e+00,-3.549804687500000000e-01,-5.092163085937500000e-01,6.190185546875000000e-01,4.810791015625000000e-01,6.787109375000000000e-02,-9.790039062500000000e-01,2.187500000000000000e-01,-5.562500000000000000e+00,-5.312500000000000000e+00,3.187500000000000000e+00
8.100000000000006084e-01,0.000000000000000000e+00,-3.000000000000000000e+00,-6.000000000000000000e+00,1.000000000000000000e+00,0.000000000000000000e+00,7.000000000000000000e+00,-1.100000000000000000e+01,2.000000000000000000e+00,-3.549804687500000000e-01,-5.092163085937500000e-01,6.190185546875000000e-01,4.810791015625000000e-01,6.787109375000000000e-02,-9.790039062500000000e-01,2.187500000000000000e-01,-5.562500000000000000e+00,-5.312500000000000000e+00,3.187500000000000000e+00
8.150000000000006128e-01,-1.000000000000000000e+00,-1.000000000000000000e+00,1.200000000000000000e+01,5.200000000000000000e+01,3.000000000000000000e+00,1.000000000000000000e+01,3.000000000000000000e+00,0.000000000000000000e+00,-3.549804687500000000e-01,-5.092163085937500000e-01,6.190185546875000000e-01,4.810791015625000000e-01,6.787109375000000000e-02,-9.790039062500000000e-01,2.187500000000000000e-01,-5.562500000000000000e+00,-5.312500000000000000e+00,3.187500000000000000e+00
8.200000000000006173e-01,-1.000000000000000000e+00,-1.000000000000000000e+00,1.200000000000000000e+01,5.200000000000000000e+01,3.000000000000000000e+00,1.000000000000000000e+01,3.000000000000000000e+00,0.000000000000000000e+00,-3.544311523437500000e-01,-5.097656250000000000e-01,6.195068359375000000e-01,4.802856445312500000e-01,7.373046875000000000e-02,-9.687500000000000000e-01,2.280273437500000000e-01,-5.000000000000000000e-01,-6.625000000000000000e+00,2.875000000000000000e+00
8.250000000000006217e-01,-1.000000000000000000e+00,-1.000000000000000000e+00,1.200000000000000000e+01,5.200000000000000000e+01,3.000000000000000000e+00,1.000000000000000000e+01,3.000000000000000000e+00,0.000000000000000000e+00,-3.544311523437500000e-01,-5.097656250000000000e-01,6.195068359375000000e-01,4.802856445312500000e-01,7.373046875000000000e-02,-9.687500000000000000e-01,2.280273437500000000e-01,-5.000000000000000000e-01,-6.625000000000000000e+00,2.875000000000000000e+00
8.300000000000006262e-01,-1.000000000000000000e+00,-1.000000000000000000e+00,1.200000000000000000e+01,5.200000000000000000e+01,3.000000000000000000e+00,1.000000000000000000e+01,3.000000000000000000e+00,0.000000000000000000e+00,-3.544311523437500000e-01,-5.097656250000000000e-01,6.195068359375000000e-01,4.802856445312500000e-01,7.373046875000000000e-02,-9.687500000000000000e-01,2.280273437500000000e-01,-5.000000000000000000e-01,-6.625000000000000000e+00,2.875000000000000000e+00
8.350000000000006306e-01,-6.000000000000000000e+00,-1.100000000000000000e+01,-2.800000000000000000e+01,-2.300000000000000000e+01,-1.800000000000000000e+01,-1.200000000000000000e+01,3.000000000000000000e+00,-4.000000000000000000e+00,-3.544311523437500000e-01,-5.097656250000000000e-01,6.195068359375000000e-01,4.802856445312500000e-01,7.373046875000000000e-02,-9.687500000000000000e-01,2.280273437500000000e-01,-5.000000000000000000e-01,-6.625000000000000000e+00,2.875000000000000000e+00
8.400000000000006350e-01,-6.000000000000000000e+00,-1.100000000000000000e+01,-2.800000000000000000e+01,-2.300000000000000000e+01,-1.800000000000000000e+01,-1.200000000000000000e+01,3.000000000000000000e+00,-4.000000000000000000e+00,-3.544311523437500000e-01,-5.097656250000000000e-01,6.195068359375000000e-01,4.802856445312500000e-01,7.373046875000000000e-02,-9.687500000000000000e-01,2.280273437500000000e-01,-5.000000000000000000e-01,-6.625000000000000000e+00,2.875000000000000000e+00
8.450000000000006395e-01,-1.000000000000000000e+00,2.000000000000000000e+00,6.000000000000000000e+00,5.200000000000000000e+01,4.000000000000000000e+00,5.000000000000000000e+00,-6.000000000000000000e+00,1.000000000000000000e+00,-3.536987304687500000e-01,-5.105590820312500000e-01,6.200561523437500000e-01,4.793090820312500000e-01,8.007812500000000000e-02,-9.619140625000000000e-01,2.075195312500000000e-01,6.250000000000000000e-02,-8.187500000000000000e+00,3.375000000000000000e+00
8.500000000000006439e-01,-1.000000000000000000e+00,2.000000000000000000e+00,6.000000000000000000e+00,5.200000000000000000e+01,4.000000000000000000e+00,5.000000000000000000e+00,-6.000000000000000000e+00,1.000000000000000000e+00,-3.536987304687500000e-01,-5.105590820312500000e-01,6.200561523437500000e-01,4.793090820312500000e-01,8.007812500000000000e-02,-9.619140625000000000e-01,2.075195312500000000e-01,6.250000000000000000e-02,-8.187500000000000000e+00,3.375000000000000000e+00
8.550000000000006484e-01,-1.000000000000000000e+00,2.000000000000000000e+00,6.000000000000000000e+00,5.200000000000000000e+01,4.000000000000000000e+00,5.000000000000000000e+00,-6.000000000000000000e+00,1.000000000000000000e+00,-3.536987304687500000e-01,-5.105590820312500000e-01,6.200561523437500000e-01,4.793090820312500000e-01,8.007812500000000000e-02,-9.619140625000000000e-01,2.075195312500000000e-01,6.250000000000000000e-02,-8.187500000000000000e+00,3.375000000000000000e+00
8.600000000000006528e-01,-1.000000000000000000e+00,2.000000000000000000e+00,6.000000000000000000e+00,5.200000000000000000e+01,4.000000000000000000e+00,5.000000000000000000e+00,-6.000000000000000000e+00,1.000000000000000000e+00,-3.536987304687500000e-01,-5.105590820312500000e-01,6.200561523437500000e-01,4.793090820312500000e-01,8.007812500000000000e-02,-9.619140625000000000e-01,2.075195312500000000e-01,6.250000000000000000e-02,-8.187500000000000000e+00,3.375000000000000000e+00
8.650000000000006573e-01,-1.000000000000000000e+00,2.000000000000000000e+00,6.000000000000000000e+00,5.200000000000000000e+01,4.000000000000000000e+00,5.000000000000000000e+00,-6.000000000000000000e+00,1.000000000000000000e+00,-3.536987304687500000e-01,-5.105590820312500000e-01,6.200561523437500000e-01,4.793090820312500000e-01,8.007812500000000000e-02,-9.619140625000000000e-01,2.075195312500000000e-01,6.250000000000000000e-02,-8.187500000000000000e+00,3.375000000000000000e+00
8.700000000000006617e-01,-1.000000000000000000e+00,2.000000000000000000e+00,6.000000000000000000e+00,5.200000000000000000e+01,4.000000000000000000e+00,5.000000000000000000e+00,-6.000000000000000000e+00,1.000000000000000000e+00,-3.536987304687500000e-01,-5.105590820312500000e-01,6.200561523437500000e-01,4.793090820312500000e-01,8.007812500000000000e-02,-9.619140625000000000e-01,2.075195312500000000e-01,6.250000000000000000e-02,-8.187500000000000000e+00,3.375000000000000000e+00
8.750000000000006661e-01,-4.000000000000000000e+00,-9.000000000000000000e+00,-4.000000000000000000e+00,5.400000000000000000e+01,-6.000000000000000000e+00,-2.000000000000000000e+00,-2.000000000000000000e+00,-8.000000000000000000e+00,-3.536987304687500000e-01,-5.105590820312500000e-01,6.200561523437500000e-01,4.793090820312500000e-01,8.007812500000000000e-02,-9.619140625000000000e-01,2.075195312500000000e-01,6.250000000000000000e-02,-8.187500000000000000e+00,3.375000000000000000e+00
8.800000000000006706e-01,-4.000000000000000000e+00,-9.000000000000000000e+00,-4.000000000000000000e+00,5.400000000000000000e+01,-6.000000000000000000e+00,-2.000000000000000000e+00,-2.000000000000000000e+00,-8.000000000000000000e+00,-3.531494140625000000e-01,-5.114746093750000000e-01,6.204833984375000000e-01,4.781494140625000000e-01,7.812500000000000000e-02,-9.667968750000000000e-01,2.041015625000000000e-01,-1.625000000000000000e+00,-8.250000000000000000e+00,3.750000000000000000e+00
8.850000000000006750e-01,5.000000000000000000e+00,9.000000000000000000e+00,2.000000000000000000e+01,4.200000000000000000e+01,9.000000000000000000e+00,3.000000000000000000e+00,2.000000000000000000e+00,-5.000000000000000000e+00,-3.531494140625000000e-01,-5.114746093750000000e-01,6.204833984375000000e-01,4.781494140625000000e-01,7.812500000000000000e-02,-9.667968750000000000e-01,2.041015625000000000e-01,-1.625000000000000000e+00,-8.250000000000000000e+00,3.750000000000000000e+00
8.900000000000006795e-01,5.000000000000000000e+00,9.000000000000000000e+00,2.000000000000000000e+01,4.200000000000000000e+01,9.000000000000000000e+00,3.000000000000000000e+00,2.000000000000000000e+00,-5.000000000000000000e+00,-3.531494140625000000e-01,-5.114746093750000000e-01,6.204833984375000000e-01,4.781494140625000000e-01,7.812500000000000000e-02,-9.667968750000000000e-01,2.041015625000000000e-01,-1.625000000000000000e+00,-8.250000000000000000e+00,3.750000000000000000e+00
8.950000000000006839e-01,5.000000000000000000e+00,9.000000000000000000e+00,2.000000000000000000e+01,4.200000000000000000e+01,9.000000000000000000e+00,3.000000000000000000e+00,2.000000000000000000e+00,-5.000000000000000000e+00,-3.531494140625000000e-01,-5.114746093750000000e-01,6.204833984375000000e-01,4.781494140625000000e-01,7.812500000000000000e-02,-9.667968750000000000e-01,2.041015625000000000e-01,-1.625000000000000000e+00,-8.250000000000000000e+00,3.750000000000000000e+00
9.000000000000006883e-01,-2.000000000000000000e+00,-3.000000000000000000e+00,5.000000000000000000e+00,6.400000000000000000e+01,5.000000000000000000e+00,-6.000000000000000000e+00,-1.800000000000000000e+01,4.000000000000000000e+00,-3.525390625000000000e-01,-5.124511718750000000e-01,6.207885742187500000e-01,4.771728515625000000e-01,6.689453125000000000e-02,-9.941406250000000000e-01,2.021484375000000000e-01,-6.875000000000000000e-01,-7.812500000000000000e+00,1.562500000000000000e+00
9.050000000000008038e-01,-2.000000000000000000e+00,-3.000000000000000000e+00,5.000000000000000000e+00,6.400000000000000000e+01,5.000000000000000000e+00,-6.000000000000000000e+00,-1.800000000000000000e+01,4.000000000000000000e+00,-3.525390625000000000e-01,-5.124511718750000000e-01,6.207885742187500000e-01,4.771728515625000000e-01,6.689453125000000000e-02,-9.941406250000000000e-01,2.021484375000000000e-01,-6.875000000000000000e-01,-7.812500000000000000e+00,1.562500000000000000e+00
9.100000000000008082e-01,-1.100000000000000000e+01,-2.000000000000000000e+00,0.000000000000000000e+00,0.000000000000000000e+00,-1.300000000000000000e+01,-1.700000000000000000e+01,-1.800000000000000000e+01,-6.000000000000000000e+00,-3.525390625000000000e-01,-5.124511718750000000e-01,6.207885742187500000e-01,4.771728515625000000e-01,6.689453125000000000e-02,-9.941406250000000000e-01,2.021484375000000000e-01,-6.875000000000000000e-01,-7.812500000000000000e+00,1.562500000000000000e+00
9.150000000000008127e-01,5.000000000000000000e+00,6.000000000000000000e+00,2.200000000000000000e+01,9.200000000000000000e+01,2.000000000000000000e+01,2.400000000000000000e+01,7.000000000000000000e+00,9.000000000000000000e+00,-3.525390625000000000e-01,-5.124511718750000000e-01,6.207885742187500000e-01,4.771728515625000000e-01,6.689453125000000000e-02,-9.941406250000000000e-01,2.021484375000000000e-01,-6.875000000000000000e-01,-7.812500000000000000e+00,1.562500000000000000e+00
9.200000000000008171e-01,-2.000000000000000000e+00,-3.000000000000000000e+00,-2.700000000000000000e+01,-1.210000000000000000e+02,-1.500000000000000000e+01,9.000000000000000000e+00,2.700000000000000000e+01,-3.000000000000000000e+00,-3.525390625000000000e-01,-5.124511718750000000e-01,6.207885742187500000e-01,4.771728515625000000e-01,6.689453125000000000e-02,-9.941406250000000000e-01,2.021484375000000000e-01,-6.875000000000000000e-01,-7.812500000000000000e+00,1.562500000000000000e+00
9.250000000000008216e-01,-2.000000000000000000e+00,-3.000000000000000000e+00,-2.700000000000000000e+01,-1.210000000000000000e+02,-1.500000000000000000e+01,9.000000000000000000e+00,2.700000000000000000e+01,-3.000000000000000000e+00,-3.510131835937500000e-01,-5.125732421875000000e-01,6.219482421875000000e-01,4.766845703125000000e-01,7.568359375000000000e-02,-1.011230468750000000e+00,2.094726562500000000e-01,7.750000000000000000e+00,-9.375000000000000000e+00,1.375000000000000000e+00
9.300000000000008260e-01,-2.000000000000000000e+00,-3.000000000000000000e+00,-2.700000000000000000e+01,-1.210000000000000000e+02,-1.500000000000000000e+01,9.000000000000000000e+00,2.700000000000000000e+01,-3.000000000000000000e+00,-3.510131835937500000e-01,-5.125732421875000000e-01,6.219482421875000000e-01,4.766845703125000000e-01,7.568359375000000000e-02,-1.011230468750000000e+00,2.094726562500000000e-01,7.750000000000000000e+00,-9.375000000000000000e+00,1.375000000000000000e+00
9.350000000000008304e-01,-1.000000000000000000e+00,1.000000000000000000e+00,0.000000000000000000e+00,-7.700000000000000000e+01,-1.000000000000000000e+00,1.200000000000000000e+01,6.000000000000000000e+00,5.000000000000000000e+00,-3.510131835937500000e-01,-5.125732421875000000e-01,6.219482421875000000e-01,4.766845703125000000e-01,7.568359375000000000e-02,-1.011230468750000000e+00,2.094726562500000000e-01,7.750000000000000000e+00,-9.375000000000000000e+00,1.375000000000000000e+00
9.400000000000008349e-01,-1.000000000000000000e+00,1.000000000000000000e+00,0.000000000000000000e+00,-7.700000000000000000e+01,-1.000000000000000000e+00,1.200000000000000000e+01,6.000000000000000000e+00,5.000000000000000000e+00,-3.510131835937500000e-01,-5.125732421875000000e-01,6.219482421875000000e-01,4.766845703125000000e-01,7.568359375000000000e-02,-1.011230468750000000e+00,2.094726562500000000e-01,7.750000000000000000e+00,-9.375000000000000000e+00,1.375000000000000000e+00
9.450000000000008393e-01,-1.000000000000000000e+00,1.000000000000000000e+00,0.000000000000000000e+00,-7.700000000000000000e+01,-1.000000000000000000e+00,1.200000000000000000e+01,6.000000000000000000e+00,5.000000000000000000e+00,-3.488159179687500000e-01,-5.122680664062500000e-01,6.232299804687500000e-01,4.769287109375000000e-01,9.228515625000000000e-02,-1.002929687500000000e+00,2.294921875000000000e-01,1.200000000000000000e+01,-8.125000000000000000e+00,-6.250000000000000000e-01
9.500000000000008438e-01,-1.000000000000000000e+00,1.000000000000000000e+00,0.000000000000000000e+00,-7.700000000000000000e+01,-1.000000000000000000e+00,1.200000000000000000e+01,6.000000000000000000e+00,5.000000000000000000e+00,-3.488159179687500000e-01,-5.122680664062500000e-01,6.232299804687500000e-01,4.769287109375000000e-01,9.228515625000000000e-02,-1.002929687500000000e+00,2.294921875000000000e-01,1.200000000000000000e+01,-8.125000000000000000e+00,-6.250000000000000000e-01
9.550000000000008482e-01,-1.000000000000000000e+00,1.000000000000000000e+00,0.000000000000000000e+00,-7.700000000000000000e+01,-1.000000000000000000e+00,1.200000000000000000e+01,6.000000000000000000e+00,5.000000000000000000e+00,-3.488159179687500000e-01,-5.122680664062500000e-01,6.232299804687500000e-01,4.769287109375000000e-01,9.228515625000000000e-02,-1.002929687500000000e+00,2.294921875000000000e-01,1.200000000000000000e+01,-8.125000000000000000e+00,-6.250000000000000000e-01
9.600000000000008527e-01,3.000000000000000000e+00,0.000000000000000000e+00,2.000000000000000000e+00,1.400000000000000000e+01,1.000000000000000000e+00,0.000000000000000000e+00,-1.700000000000000000e+01,-1.000000000000000000e+00,-3.488159179687500000e-01,-5.122680664062500000e-01,6.232299804687500000e-01,4.769287109375000000e-01,9.228515625000000000e-02,-1.002929687500000000e+00,2.294921875000000000e-01,1.200000000000000000e+01,-8.125000000000000000e+00,-6.250000000000000000e-01
9.650000000000007461e-01,3.000000000000000000e+00,0.000000000000000000e+00,2.000000000000000000e+00,1.400000000000000000e+01,1.000000000000000000e+00,0.000000000000000000e+00,-1.700000000000000000e+01,-1.000000000000000000e+00,-3.465576171875000000e-01,-5.117187500000000000e-01,6.245727539062500000e-01,4.774169921875000000e-01,9.619140625000000000e-02,-9.667968750000000000e-01,2.451171875000000000e-01,1.231250000000000000e+01,-7.125000000000000000e+00,-1.000000000000000000e+00
9.700000000000007505e-01,3.000000000000000000e+00,0.000000000000000000e+00,2.000000000000000000e+00,1.400000000000000000e+01,1.000000000000000000e+00,0.000000000000000000e+00,-1.700000000000000000e+01,-1.000000000000000000e+00,-3.465576171875000000e-01,-5.117187500000000000e-01,6.245727539062500000e-01,4.774169921875000000e-01,9.619140625000000000e-02,-9.667968750000000000e-01,2.451171875000000000e-01,1.231250000000000000e+01,-7.125000000000000000e+00,-1.000000000000000000e+00
9.750000000000007550e-01,3.000000000000000000e+00,0.000000000000000000e+00,2.000000000000000000e+00,1.400000000000000000e+01,1.000000000000000000e+00,0.000000000000000000e+00,-1.700000000000000000e+01,-1.000000000000000000e+00,-3.465576171875000000e-01,-5.117187500000000000e-01,6.245727539062500000e-01,4.774169921875000000e-01,9.619140625000000000e-02,-9.667968750000000000e-01,2.451171875000000000e-01,1.231250000000000000e+01,-7.125000000000000000e+00,-1.000000000000000000e+00
9.800000000000007594e-01,0.000000000000000000e+00,-7.000000000000000000e+00,-1.600000000000000000e+01,-4.600000000000000000e+01,-8.000000000000000000e+00,-7.000000000000000000e+00,-1.300000000000000000e+01,3.000000000000000000e+00,-3.465576171875000000e-01,-5.117187500000000000e-01,6.245727539062500000e-01,4.774169921875000000e-01,9.619140625000000000e-02,-9.667968750000000000e-01,2.451171875000000000e-01,1.231250000000000000e+01,-7.125000000000000000e+00,-1.000000000000000000e+00
9.850000000000007638e-01,-1.000000000000000000e+00,-5.000000000000000000e+00,-2.000000000000000000e+01,-4.900000000000000000e+01,-1.100000000000000000e+01,-7.000000000000000000e+00,-1.000000000000000000e+00,-1.000000000000000000e+00,-3.465576171875000000e-01,-5.117187500000000000e-01,6.245727539062500000e-01,4.774169921875000000e-01,9.619140625000000000e-02,-9.667968750000000000e-01,2.451171875000000000e-01,1.231250000000000000e+01,-7.125000000000000000e+00,-1.000000000000000000e+00
9.900000000000007683e-01,-1.000000000000000000e+00,-5.000000000000000000e+00,-2.000000000000000000e+01,-4.900000000000000000e+01,-1.100000000000000000e+01,-7.000000000000000000e+00,-1.000000000000000000e+00,-1.000000000000000000e+00,-3.447265625000000000e-01,-5.114135742187500000e-01,6.256103515625000000e-01,4.777221679687500000e-01,7.910156250000000000e-02,-9.526367187500000000e-01,2.475585937500000000e-01,8.875000000000000000e+00,-6.687500000000000000e+00,-1.312500000000000000e+00
9.950000000000007727e-01,-1.000000000000000000e+00,-5.000000000000000000e+00,-2.000000000000000000e+01,-4.900000000000000000e+01,-1.100000000000000000e+01,-7.000000000000000000e+00,-1.000000000000000000e+00,-1.000000000000000000e+00,-3.447265625000000000e-01,-5.114135742187500000e-01,6.256103515625000000e-01,4.777221679687500000e-01,7.910156250000000000e-02,-9.526367187500000000e-01,2.475585937500000000e-01,8.875000000000000000e+00,-6.687500000000000000e+00,-1.312500000000000000e+00
1.000000000000000888e+00,-1.000000000000000000e+00,-5.000000000000000000e+00,-2.000000000000000000e+01,-4.900000000000000000e+01,-1.100000000000000000e+01,-7.000000000000000000e+00,-1.000000000000000000e+00,-1.000000000000000000e+00,-3.447265625000000000e-01,-5.114135742187500000e-01,6.256103515625000000e-01,4.777221679687500000e-01,7.910156250000000000e-02,-9.526367187500000000e-01,2.475585937500000000e-01,8.875000000000000000e+00,-6.687500000000000000e+00,-1.312500000000000000e+00
1.005000000000000560e+00,0.000000000000000000e+00,0.000000000000000000e+00,1.500000000000000000e+01,3.900000000000000000e+01,-5.000000000000000000e+00,-5.000000000000000000e+00,-1.200000000000000000e+01,-5.000000000000000000e+00,-3.447265625000000000e-01,-5.114135742187500000e-01,6.256103515625000000e-01,4.777221679687500000e-01,7.910156250000000000e-02,-9.526367187500000000e-01,2.475585937500000000e-01,8.875000000000000000e+00,-6.687500000000000000e+00,-1.312500000000000000e+00
1.010000000000000453e+00,0.000000000000000000e+00,0.000000000000000000e+00,1.500000000000000000e+01,3.900000000000000000e+01,-5.000000000000000000e+00,-5.000000000000000000e+00,-1.200000000000000000e+01,-5.000000000000000000e+00,-3.447265625000000000e-01,-5.114135742187500000e-01,6.256103515625000000e-01,4.777221679687500000e-01,7.910156250000000000e-02,-9.526367187500000000e-01,2.475585937500000000e-01,8.875000000000000000e+00,-6.687500000000000000e+00,-1.312500000000000000e+00
1.015000000000000346e+00,0.000000000000000000e+00,0.000000000000000000e+00,1.500000000000000000e+01,3.900000000000000000e+01,-5.000000000000000000e+00,-5.000000000000000000e+00,-1.200000000000000000e+01,-5.000000000000000000e+00,-3.432617187500000000e-01,-5.117797851562500000e-01,6.259765625000000000e-01,4.779052734375000000e-01,6.787109375000000000e-02,-9.838867187500000000e-01,2.661132812500000000e-01,2.750000000000000000e+00,-6.687500000000000000e+00,-4.125000000000000000e+00
1.020000000000000240e+00,0.000000000000000000e+00,0.000000000000000000e+00,1.500000000000000000e+01,3.900000000000000000e+01,-5.000000000000000000e+00,-5.000000000000000000e+00,-1.200000000000000000e+01,-5.000000000000000000e+00,-3.432617187500000000e-01,-5.117797851562500000e-01,6.259765625000000000e-01,4.779052734375000000e-01,6.787109375000000000e-02,-9.838867187500000000e-01,2.661132812500000000e-01,2.750000000000000000e+00,-6.687500000000000000e+00,-4.125000000000000000e+00
1.024999999999999911e+00,0.000000000000000000e+00,3.000000000000000000e+00,1.100000000000000000e+01,5.300000000000000000e+01,8.000000000000000000e+00,-6.000000000000000000e+00,1.800000000000000000e+01,0.000000000000000000e+00,-3.432617187500000000e-01,-5.117797851562500000e-01,6.259765625000000000e-01,4.779052734375000000e-01,6.787109375000000000e-02,-9.838867187500000000e-01,2.661132812500000000e-01,2.750000000000000000e+00,-6.687500000000000000e+00,-4.125000000000000000e+00
1.030000000000000027e+00,-2.000000000000000000e+00,-1.100000000000000000e+01,-2.600000000000000000e+01,-4.300000000000000000e+01,-1.000000000000000000e+01,0.000000000000000000e+00,-3.100000000000000000e+01,-2.000000000000000000e+00,-3.417968750000000000e-01,-5.124511718750000000e-01,6.262207031250000000e-01,4.779052734375000000e-01,7.373046875000000000e-02,-9.975585937500000000e-01,2.622070312500000000e-01,1.437500000000000000e+00,-7.187500000000000000e+00,-4.375000000000000000e+00
1.034999999999999920e+00,-2.000000000000000000e+00,-1.100000000000000000e+01,-2.600000000000000000e+01,-4.300000000000000000e+01,-1.000000000000000000e+01,0.000000000000000000e+00,-3.100000000000000000e+01,-2.000000000000000000e+00,-3.417968750000000000e-01,-5.124511718750000000e-01,6.262207031250000000e-01,4.779052734375000000e-01,7.373046875000000000e-02,-9.975585937500000000e-01,2.622070312500000000e-01,1.437500000000000000e+00,-7.187500000000000000e+00,-4.375000000000000000e+00
1.039999999999999813e+00,-2.000000000000000000e+00,-1.100000000000000000e+01,-2.600000000000000000e+01,-4.300000000000000000e+01,-1.000000000000000000e+01,0.000000000000000000e+00,-3.100000000000000000e+01,-2.000000000000000000e+00,-3.417968750000000000e-01,-5.124511718750000000e-01,6.262207031250000000e-01,4.779052734375000000e-01,7.373046875000000000e-02,-9.975585937500000000e-01,2.622070312500000000e-01,1.437500000000000000e+00,-7.187500000000000000e+00,-4.375000000000000000e+00
1.044999999999999707e+00,-2.000000000000000000e+00,-1.100000000000000000e+01,-2.600000000000000000e+01,-4.300000000000000000e+01,-1.000000000000000000e+01,0.000000000000000000e+00,-3.100000000000000000e+01,-2.000000000000000000e+00,-3.417968750000000000e-01,-5.124511718750000000e-01,6.262207031250000000e-01,4.779052734375000000e-01,7.373046875000000000e-02,-9.975585937500000000e-01,2.622070312500000000e-01,1.437500000000000000e+00,-7.187500000000000000e+00,-4.375000000000000000e+00
1.049999999999999600e+00,-2.000000000000000000e+00,-1.100000000000000000e+01,-2.600000000000000000e+01,-4.300000000000000000e+01,-1.000000000000000000e+01,0.000000000000000000e+00,-3.100000000000000000e+01,-2.000000000000000000e+00,-3.417968750000000000e-01,-5.124511718750000000e-01,6.262207031250000000e-01,4.779052734375000000e-01,7.373046875000000000e-02,-9.975585937500000000e-01,2.622070312500000000e-01,1.437500000000000000e+00,-7.187500000000000000e+00,-4.375000000000000000e+00
1.054999999999999494e+00,3.000000000000000000e+00,3.000000000000000000e+00,7.000000000000000000e+00,2.700000000000000000e+01,7.000000000000000000e+00,-1.000000000000000000e+01,8.000000000000000000e+00,1.000000000000000000e+00,-3.417968750000000000e-01,-5.124511718750000000e-01,6.262207031250000000e-01,4.779052734375000000e-01,7.373046875000000000e-02,-9.975585937500000000e-01,2.622070312500000000e-01,1.437500000000000000e+00,-7.187500000000000000e+00,-4.375000000000000000e+00
1.059999999999999387e+00,3.000000000000000000e+00,3.000000000000000000e+00,7.000000000000000000e+00,2.700000000000000000e+01,7.000000000000000000e+00,-1.000000000000000000e+01,8.000000000000000000e+00,1.000000000000000000e+00,-3.417968750000000000e-01,-5.124511718750000000e-01,6.262207031250000000e-01,4.779052734375000000e-01,7.373046875000000000e-02,-9.975585937500000000e-01,2.622070312500000000e-01,1.437500000000000000e+00,-7.187500000000000000e+00,-4.375000000000000000e+00
1.064999999999999281e+00,3.000000000000000000e+00,3.000000000000000000e+00,7.000000000000000000e+00,2.700000000000000000e+01,7.000000000000000000e+00,-1.000000000000000000e+01,8.000000000000000000e+00,1.000000000000000000e+00,-3.402099609375000000e-01,-5.127563476562500000e-01,6.267089843750000000e-01,4.780883789062500000e-01,6.738281250000000000e-02,-1.026855468750000000e+00,2.646484375000000000e-01,4.312500000000000000e+00,-6.937500000000000000e+00,-4.812500000000000000e+00
1.069999999999999174e+00,1.000000000000000000e+00,1.000000000000000000e+00,-1.000000000000000000e+00,-1.100000000000000000e+01,5.000000000000000000e+00,7.000000000000000000e+00,1.900000000000000000e+01,2.000000000000000000e+00,-3.402099609375000000e-01,-5.127563476562500000e-01,6.267089843750000000e-01,4.780883789062500000e-01,6.738281250000000000e-02,-1.026855468750000000e+00,2.646484375000000000e-01,4.312500000000000000e+00,-6.937500000000000000e+00,-4.812500000000000000e+00
1.074999999999999067e+00,1.000000000000000000e+00,1.000000000000000000e+00,-1.000000000000000000e+00,-1.100000000000000000e+01,5.000000000000000000e+00,7.000000000000000000e+00,1.900000000000000000e+01,2.000000000000000000e+00,-3.383178710937500000e-01,-5.122070312500000000e-01,6.278076171875000000e-01,4.785156250000000000e-01,6.005859375000000000e-02,-9.868164062500000000e-01,2.670898437500000000e-01,1.025000000000000000e+01,-6.625000000000000000e+00,-3.437500000000000000e+00
1.079999999999998961e+00,1.000000000000000000e+00,1.000000000000000000e+00,-1.000000000000000000e+00,-1.100000000000000000e+01,5.000000000000000000e+00,7.000000000000000000e+00,1.900000000000000000e+01,2.000000000000000000e+00,-3.383178710937500000e-01,-5.122070312500000000e-01,6.278076171875000000e-01,4.785156250000000000e-01,6.005859375000000000e-02,-9.868164062500000000e-01,2.670898437500000000e-01,1.025000000000000000e+01,-6.625000000000000000e+00,-3.437500000000000000e+00
1.084999999999998854e+00,6.000000000000000000e+00,5.000000000000000000e+00,1.000000000000000000e+01,7.000000000000000000e+00,7.000000000000000000e+00,2.000000000000000000e+00,-1.700000000000000000e+01,5.000000000000000000e+00,-3.383178710937500000e-01,-5.122070312500000000e-01,6.278076171875000000e-01,4.785156250000000000e-01,6.005859375000000000e-02,-9.868164062500000000e-01,2.670898437500000000e-01,1.025000000000000000e+01,-6.625000000000000000e+00,-3.437500000000000000e+00
1.089999999999998748e+00,6.000000000000000000e+00,5.000000000000000000e+00,1.000000000000000000e+01,7.000000000000000000e+00,7.000000000000000000e+00,2.000000000000000000e+00,-1.700000000000000000e+01,5.000000000000000000e+00,-3.383178710937500000e-01,-5.122070312500000000e-01,6.278076171875000000e-01,4.785156250000000000e-01,6.005859375000000000e-02,-9.868164062500000000e-01,2.670898437500000000e-01,1.025000000000000000e+01,-6.625000000000000000e+00,-3.437500000000000000e+00
1.094999999999998641e+00,6.000000000000000000e+00,5.000000000000000000e+00,1.000000000000000000e+01,7.000000000000000000e+00,7.000000000000000000e+00,2.000000000000000000e+00,-1.700000000000000000e+01,5.000000000000000000e+00,-3.383178710937500000e-01,-5.122070312500000000e-01,6.278076171875000000e-01,4.785156250000000000e-01,6.005859375000000000e-02,-9.868164062500000000e-01,2.670898437500000000e-01,1.025000000000000000e+01,-6.625000000000000000e+00,-3.437500000000000000e+00
1.099999999999998312e+00,-2.000000000000000000e+00,3.000000000000000000e+00,9.000000000000000000e+00,4.700000000000000000e+01,8.000000000000000000e+00,1.200000000000000000e+01,-5.000000000000000000e+00,-2.000000000000000000e+00,-3.383178710937500000e-01,-5.122070312500000000e-01,6.278076171875000000e-01,4.785156250000000000e-01,6.005859375000000000e-02,-9.868164062500000000e-01,2.670898437500000000e-01,1.025000000000000000e+01,-6.625000000000000000e+00,-3.437500000000000000e+00
1.104999999999998428e+00,5.000000000000000000e+00,-4.000000000000000000e+00,-1.000000000000000000e+01,-3.500000000000000000e+01,-1.500000000000000000e+01,1.000000000000000000e+00,4.000000000000000000e+00,3.000000000000000000e+00,-3.368530273437500000e-01,-5.117187500000000000e-01,6.290283203125000000e-01,4.785156250000000000e-01,3.710937500000000000e-02,-9.370117187500000000e-01,2.519531250000000000e-01,8.375000000000000000e+00,-6.562500000000000000e+00,-1.875000000000000000e+00
1.109999999999998321e+00,5.000000000000000000e+00,-4.000000000000000000e+00,-1.000000000000000000e+01,-3.500000000000000000e+01,-1.500000000000000000e+01,1.000000000000000000e+00,4.000000000000000000e+00,3.000000000000000000e+00,-3.368530273437500000e-01,-5.117187500000000000e-01,6.290283203125000000e-01,4.785156250000000000e-01,3.710937500000000000e-02,-9.370117187500000000e-01,2.519531250000000000e-01,8.375000000000000000e+00,-6.562500000000000000e+00,-1.875000000000000000e+00
1.114999999999998215e+00,5.000000000000000000e+00,-4.000000000000000000e+00,-1.000000000000000000e+01,-3.500000000000000000e+01,-1.500000000000000000e+01,1.000000000000000000e+00,4.000000000000000000e+00,3.000000000000000000e+00,-3.368530273437500000e-01,-5.117187500000000000e-01,6.290283203125000000e-01,4.785156250000000000e-01,3.710937500000000000e-02,-9.370117187500000000e-01,2.519531250000000000e-01,8.375000000000000000e+00,-6.562500000000000000e+00,-1.875000000000000000e+00
1.119999999999998108e+00,-9.000000000000000000e+00,-1.400000000000000000e+01,-3.200000000000000000e+01,-4.900000000000000000e+01,-2.600000000000000000e+01,-2.500000000000000000e+01,4.200000000000000000e+01,-9.000000000000000000e+00,-3.366088867187500000e-01,-5.121459960937500000e-01,6.292724609375000000e-01,4.778442382812500000e-01,2.978515625000000000e-02,-9.492187500000000000e-01,2.490234375000000000e-01,-1.812500000000000000e+00,-5.375000000000000000e+00,-7.500000000000000000e-01
1.124999999999998002e+00,-9.000000000000000000e+00,-1.400000000000000000e+01,-3.200000000000000000e+01,-4.900000000000000000e+01,-2.600000000000000000e+01,-2.500000000000000000e+01,4.200000000000000000e+01,-9.000000000000000000e+00,-3.366088867187500000e-01,-5.121459960937500000e-01,6.292724609375000000e-01,4.778442382812500000e-01,2.978515625000000000e-02,-9.492187500000000000e-01,2.490234375000000000e-01,-1.812500000000000000e+00,-5.375000000000000000e+00,-7.500000000000000000e-01
1.129999999999997895e+00,4.000000000000000000e+00,-1.000000000000000000e+00,-9.000000000000000000e+00,2.000000000000000000e+01,3.000000000000000000e+00,-1.100000000000000000e+01,2.000000000000000000e+00,2.000000000000000000e+00,-3.366088867187500000e-01,-5.121459960937500000e-01,6.292724609375000000e-01,4.778442382812500000e-01,2.978515625000000000e-02,-9.492187500000000000e-01,2.490234375000000000e-01,-1.812500000000000000e+00,-5.375000000000000000e+00,-7.500000000000000000e-01
1.134999999999997788e+00,-3.000000000000000000e+00,4.000000000000000000e+00,1.200000000000000000e+01,1.900000000000000000e+01,1.600000000000000000e+01,7.000000000000000000e+00,-2.100000000000000000e+01,-5.000000000000000000e+00,-3.366088867187500000e-01,-5.121459960937500000e-01,6.292724609375000000e-01,4.778442382812500000e-01,2.978515625000000000e-02,-9.492187500000000000e-01,2.490234375000000000e-01,-1.812500000000000000e+00,-5.375000000000000000e+00,-7.500000000000000000e-01
1.139999999999997682e+00,-3.000000000000000000e+00,4.000000000000000000e+00,1.200000000000000000e+01,1.900000000000000000e+01,1.600000000000000000e+01,7.000000000000000000e+00,-2.100000000000000000e+01,-5.000000000000000000e+00,-3.366088867187500000e-01,-5.121459960937500000e-01,6.292724609375000000e-01,4.778442382812500000e-01,2.978515625000000000e-02,-9.492187500000000000e-01,2.490234375000000000e-01,-1.812500000000000000e+00,-5.375000000000000000e+00,-7.500000000000000000e-01
1.144999999999997575e+00,-3.000000000000000000e+00,4.000000000000000000e+00,1.200000000000000000e+01,1.900000000000000000e+01,1.600000000000000000e+01,7.000000000000000000e+00,-2.100000000000000000e+01,-5.000000000000000000e+00,-3.370361328125000000e-01,-5.131835937500000000e-01,6.290893554687500000e-01,4.767456054687500000e-01,3.662109375000000000e-02,-9.794921875000000000e-01,2.338867187500000000e-01,-6.375000000000000000e+00,-4.687500000000000000e+00,8.750000000000000000e-01
1.149999999999997691e+00,2.000000000000000000e+00,-6.000000000000000000e+00,-1.600000000000000000e+01,-1.500000000000000000e+01,-1.000000000000000000e+00,-1.400000000000000000e+01,1.300000000000000000e+01,0.000000000000000000e+00,-3.370361328125000000e-01,-5.131835937500000000e-01,6.290893554687500000e-01,4.767456054687500000e-01,3.662109375000000000e-02,-9.794921875000000000e-01,2.338867187500000000e-01,-6.375000000000000000e+00,-4.687500000000000000e+00,8.750000000000000000e-01
1.154999999999997362e+00,2.000000000000000000e+00,-6.000000000000000000e+00,-1.600000000000000000e+01,-1.500000000000000000e+01,-1.000000000000000000e+00,-1.400000000000000000e+01,1.300000000000000000e+01,0.000000000000000000e+00,-3.370361328125000000e-01,-5.131835937500000000e-01,6.290893554687500000e-01,4.767456054687500000e-01,3.662109375000000000e-02,-9.794921875000000000e-01,2.338867187500000000e-01,-6.375000000000000000e+00,-4.687500000000000000e+00,8.750000000000000000e-01
1.159999999999997256e+00,-1.000000000000000000e+00,1.000000000000000000e+00,1.000000000000000000e+01,1.600000000000000000e+01,-1.000000000000000000e+00,9.000000000000000000e+00,3.000000000000000000e+00,0.000000000000000000e+00,-3.370361328125000000e-01,-5.129394531250000000e-01,6.295776367187500000e-01,4.763793945312500000e-01,5.078125000000000000e-02,-9.946289062500000000e-01,2.446289062500000000e-01,1.812500000000000000e+00,-1.625000000000000000e+00,1.812500000000000000e+00
1.164999999999997149e+00,2.000000000000000000e+00,-1.000000000000000000e+00,5.000000000000000000e+00,2.800000000000000000e+01,3.000000000000000000e+00,-4.000000000000000000e+00,-5.000000000000000000e+00,2.000000000000000000e+00,-3.370361328125000000e-01,-5.129394531250000000e-01,6.295776367187500000e-01,4.763793945312500000e-01,5.078125000000000000e-02,-9.946289062500000000e-01,2.446289062500000000e-01,1.812500000000000000e+00,-1.625000000000000000e+00,1.812500000000000000e+00
1.169999999999997042e+00,2.000000000000000000e+00,-1.000000000000000000e+00,5.000000000000000000e+00,2.800000000000000000e+01,3.000000000000000000e+00,-4.000000000000000000e+00,-5.000000000000000000e+00,2.000000000000000000e+00,-3.370361328125000000e-01,-5.129394531250000000e-01,6.295776367187500000e-01,4.763793945312500000e-01,5.078125000000000000e-02,-9.946289062500000000e-01,2.446289062500000000e-01,1.812500000000000000e+00,-1.625000000000000000e+00,1.812500000000000000e+00
1.174999999999996936e+00,3.000000000000000000e+00,0.000000000000000000e+00,-4.000000000000000000e+00,-2.200000000000000000e+01,-1.000000000000000000e+00,4.000000000000000000e+00,-8.000000000000000000e+00,3.000000000000000000e+00,-3.370361328125000000e-01,-5.129394531250000000e-01,6.295776367187500000e-01,4.763793945312500000e-01,5.078125000000000000e-02,-9.946289062500000000e-01,2.446289062500000000e-01,1.812500000000000000e+00,-1.625000000000000000e+00,1.812500000000000000e+00
1.179999999999996829e+00,3.000000000000000000e+00,0.000000000000000000e+00,-4.000000000000000000e+00,-2.200000000000000000e+01,-1.000000000000000000e+00,4.000000000000000000e+00,-8.000000000000000000e+00,3.000000000000000000e+00,-3.369750976562500000e-01,-5.119018554687500000e-01,6.303100585937500000e-01,4.766235351562500000e-01,4.296875000000000000e-02,-9.716796875000000000e-01,2.490234375000000000e-01,6.875000000000000000e+00,1.562500000000000000e+00,1.625000000000000000e+00
1.184999999999996723e+00,3.000000000000000000e+00,0.000000000000000000e+00,-4.000000000000000000e+00,-2.200000000000000000e+01,-1.000000000000000000e+00,4.000000000000000000e+00,-8.000000000000000000e+00,3.000000000000000000e+00,-3.369750976562500000e-01,-5.119018554687500000e-01,6.303100585937500000e-01,4.766235351562500000e-01,4.296875000000000000e-02,-9.716796875000000000e-01,2.490234375000000000e-01,6.875000000000000000e+00,1.562500000000000000e+00,1.625000000000000000e+00
1.189999999999996616e+00,3.000000000000000000e+00,0.000000000000000000e+00,-4.000000000000000000e+00,-2.200000000000000000e+01,-1.000000000000000000e+00,4.000000000000000000e+00,-8.000000000000000000e+00,3.000000000000000000e+00,-3.369750976562500000e-01,-5.119018554687500000e-01,6.303100585937500000e-01,4.766235351562500000e-01,4.296875000000000000e-02,-9.716796875000000000e-01,2.490234375000000000e-01,6.875000000000000000e+00,1.562500000000000000e+00,1.625000000000000000e+00
1.194999999999996509e+00,0.000000000000000000e+00,4.000000000000000000e+00,2.300000000000000000e+01,8.400000000000000000e+01,1.100000000000000000e+01,-3.000000000000000000e+00,9.000000000000000000e+00,3.000000000000000000e+00,-3.369750976562500000e-01,-5.119018554687500000e-01,6.303100585937500000e-01,4.766235351562500000e-01,4.296875000000000000e-02,-9.716796875000000000e-01,2.490234375000000000e-01,6.875000000000000000e+00,1.562500000000000000e+00,1.625000000000000000e+00
1.199999999999996403e+00,0.000000000000000000e+00,4.000000000000000000e+00,2.300000000000000000e+01,8.400000000000000000e+01,1.100000000000000000e+01,-3.000000000000000000e+00,9.000000000000000000e+00,3.000000000000000000e+00,-3.369750976562500000e-01,-5.119018554687500000e-01,6.303100585937500000e-01,4.766235351562500000e-01,4.296875000000000000e-02,-9.716796875000000000e-01,2.490234375000000000e-01,6.875000000000000000e+00,1.562500000000000000e+00,1.625000000000000000e+00
1.204999999999996296e+00,0.000000000000000000e+00,4.000000000000000000e+00,2.300000000000000000e+01,8.400000000000000000e+01,1.100000000000000000e+01,-3.000000000000000000e+00,9.000000000000000000e+00,3.000000000000000000e+00,-3.369140625000000000e-01,-5.110473632812500000e-01,6.309204101562500000e-01,4.766845703125000000e-01,3.027343750000000000e-02,-9.760742187500000000e-01,2.734375000000000000e-01,3.687500000000000000e+00,3.750000000000000000e-01,5.625000000000000000e-01
1.209999999999996190e+00,0.000000000000000000e+00,4.000000000000000000e+00,2.300000000000000000e+01,8.400000000000000000e+01,1.100000000000000000e+01,-3.000000000000000000e+00,9.000000000000000000e+00,3.000000000000000000e+00,-3.369140625000000000e-01,-5.110473632812500000e-01,6.309204101562500000e-01,4.766845703125000000e-01,3.027343750000000000e-02,-9.760742187500000000e-01,2.734375000000000000e-01,3.687500000000000000e+00,3.750000000000000000e-01,5.625000000000000000e-01
1.214999999999996083e+00,-3.000000000000000000e+00,2.000000000000000000e+00,3.000000000000000000e+00,3.800000000000000000e+01,5.000000000000000000e+00,-9.000000000000000000e+00,3.900000000000000000e+01,-3.000000000000000000e+00,-3.369140625000000000e-01,-5.110473632812500000e-01,6.309204101562500000e-01,4.766845703125000000e-01,3.027343750000000000e-02,-9.760742187500000000e-01,2.734375000000000000e-01,3.687500000000000000e+00,3.750000000000000000e-01,5.625000000000000000e-01
1.219999999999995977e+00,-3.000000000000000000e+00,2.000000000000000000e+00,3.000000000000000000e+00,3.800000000000000000e+01,5.000000000000000000e+00,-9.000000000000000000e+00,3.900000000000000000e+01,-3.000000000000000000e+00,-3.369140625000000000e-01,-5.110473632812500000e-01,6.309204101562500000e-01,4.766845703125000000e-01,3.027343750000000000e-02,-9.760742187500000000e-01,2.734375000000000000e-01,3.687500000000000000e+00,3.750000000000000000e-01,5.625000000000000000e-01
1.224999999999996092e+00,-1.000000000000000000e+00,-1.000000000000000000e+00,2.000000000000000000e+00,3.700000000000000000e+01,5.000000000000000000e+00,3.000000000000000000e+00,-2.600000000000000000e+01,3.000000000000000000e+00,-3.366088867187500000e-01,-5.109863281250000000e-01,6.315307617187500000e-01,4.761962890625000000e-01,3.564453125000000000e-02,-9.916992187500000000e-01,2.661132812500000000e-01,1.062500000000000000e+00,-4.125000000000000000e+00,8.125000000000000000e-01
1.229999999999995763e+00,-1.000000000000000000e+00,-1.000000000000000000e+00,2.000000000000000000e+00,3.700000000000000000e+01,5.000000000000000000e+00,3.000000000000000000e+00,-2.600000000000000000e+01,3.000000000000000000e+00,-3.366088867187500000e-01,-5.109863281250000000e-01,6.315307617187500000e-01,4.761962890625000000e-01,3.564453125000000000e-02,-9.916992187500000000e-01,2.661132812500000000e-01,1.062500000000000000e+00,-4.125000000000000000e+00,8.125000000000000000e-01
1.234999999999995657e+00,-1.000000000000000000e+00,-1.000000000000000000e+00,2.000000000000000000e+00,3.700000000000000000e+01,5.000000000000000000e+00,3.000000000000000000e+00,-2.600000000000000000e+01,3.000000000000000000e+00,-3.366088867187500000e-01,-5.109863281250000000e-01,6.315307617187500000e-01,4.761962890625000000e-01,3.564453125000000000e-02,-9.916992187500000000e-01,2.661132812500000000e-01,1.062500000000000000e+00,-4.125000000000000000e+00,8.125000000000000000e-01
1.239999999999995550e+00,-1.000000000000000000e+00,-1.000000000000000000e+00,2.000000000000000000e+00,3.700000000000000000e+01,5.000000000000000000e+00,3.000000000000000000e+00,-2.600000000000000000e+01,3.000000000000000000e+00,-3.366088867187500000e-01,-5.109863281250000000e-01,6.315307617187500000e-01,4.761962890625000000e-01,3.564453125000000000e-02,-9.916992187500000000e-01,2.661132812500000000e-01,1.062500000000000000e+00,-4.125000000000000000e+00,8.125000000000000000e-01
1.244999999999995444e+00,1.000000000000000000e+01,-3.000000000000000000e+00,-9.000000000000000000e+00,-7.000000000000000000e+00,0.000000000000000000e+00,-5.000000000000000000e+00,-6.000000000000000000e+00,8.000000000000000000e+00,-3.366088867187500000e-01,-5.109863281250000000e-01,6.315307617187500000e-01,4.761962890625000000e-01,3.564453125000000000e-02,-9.916992187500000000e-01,2.661132812500000000e-01,1.062500000000000000e+00,-4.125000000000000000e+00,8.125000000000000000e-01
