0.005,-1.0,-2.0,-4.0,2.0,-3.0,-4.0,-7.0,-2.0,-0.517822265625,0.17596435546875,-0.20428466796875,0.8118896484375,-0.05859375,-0.91455078125,0.4150390625,-3.375,-1.75,3.1875
0.01,0.0,0.0,6.0,0.0,1.0,-1.0,0.0,-1.0,-0.517822265625,0.17596435546875,-0.20428466796875,0.8118896484375,-0.05859375,-0.91455078125,0.4150390625,-3.375,-1.75,3.1875
0.015,0.0,0.0,6.0,0.0,1.0,-1.0,0.0,-1.0,-0.517822265625,0.17596435546875,-0.20428466796875,0.8118896484375,-0.05859375,-0.91455078125,0.4150390625,-3.375,-1.75,3.1875
0.02,0.0,0.0,6.0,0.0,1.0,-1.0,0.0,-1.0,-0.51898193359375,0.17620849609375,-0.20361328125,0.811279296875,-0.06298828125,-0.93359375,0.41259765625,-8.625,-1.1875,2.875
0.025,-2.0,-3.0,4.0,9.0,-4.0,-3.0,11.0,-1.0,-0.51898193359375,0.17620849609375,-0.20361328125,0.811279296875,-0.06298828125,-0.93359375,0.41259765625,-8.625,-1.1875,2.875
0.030000000000000002,-2.0,-3.0,4.0,9.0,-4.0,-3.0,11.0,-1.0,-0.51898193359375,0.17620849609375,-0.20361328125,0.811279296875,-0.06298828125,-0.93359375,0.41259765625,-8.625,-1.1875,2.875
0.035,-1.0,-1.0,-9.0,-8.0,-4.0,-2.0,2.0,1.0,-0.51898193359375,0.17620849609375,-0.20361328125,0.811279296875,-0.06298828125,-0.93359375,0.41259765625,-8.625,-1.1875,2.875
0.04,-1.0,-1.0,-9.0,-8.0,-4.0,-2.0,2.0,1.0,-0.51898193359375,0.17620849609375,-0.20361328125,0.811279296875,-0.06298828125,-0.93359375,0.41259765625,-8.625,-1.1875,2.875
0.045,-1.0,1.0,2.0,4.0,-2.0,-3.0,-5.0,-3.0,-0.5205078125,0.17681884765625,-0.202880859375,0.810302734375,-0.07373046875,-0.9580078125,0.3916015625,-10.125,-0.3125,2.6875
0.049999999999999996,-1.0,1.0,2.0,4.0,-2.0,-3.0,-5.0,-3.0,-0.5205078125,0.17681884765625,-0.202880859375,0.810302734375,-0.07373046875,-0.9580078125,0.3916015625,-10.125,-0.3125,2.6875
0.05499999999999999,-3.0,0.0,-1.0,-1.0,-5.0,-1.0,-7.0,-4.0,-0.5205078125,0.17681884765625,-0.202880859375,0.810302734375,-0.07373046875,-0.9580078125,0.3916015625,-10.125,-0.3125,2.6875
0.05999999999999999,-3.0,0.0,-1.0,-1.0,-5.0,-1.0,-7.0,-4.0,-0.5205078125,0.17681884765625,-0.202880859375,0.810302734375,-0.07373046875,-0.9580078125,0.3916015625,-10.125,-0.3125,2.6875
0.06499999999999999,-1.0,-2.0,-4.0,-5.0,0.0,-1.0,-3.0,-3.0,-0.52093505859375,0.1771240234375,-0.20245361328125,0.81005859375,-0.080078125,-0.970703125,0.3916015625,-1.8125,-0.0625,2.25
0.06999999999999999,-1.0,-2.0,-4.0,-5.0,0.0,-1.0,-3.0,-3.0,-0.52093505859375,0.1771240234375,-0.20245361328125,0.81005859375,-0.080078125,-0.970703125,0.3916015625,-1.8125,-0.0625,2.25
0.075,-1.0,-2.0,-4.0,-5.0,0.0,-1.0,-3.0,-3.0,-0.52093505859375,0.1771240234375,-0.20245361328125,0.81005859375,-0.080078125,-0.970703125,0.3916015625,-1.8125,-0.0625,2.25
0.08,-1.0,-2.0,-4.0,-5.0,0.0,-1.0,-3.0,-3.0,-0.52093505859375,0.1771240234375,-0.20245361328125,0.81005859375,-0.080078125,-0.970703125,0.3916015625,-1.8125,-0.0625,2.25
0.085,1.0,-1.0,-1.0,3.0,3.0,1.0,-5.0,-1.0,-0.52093505859375,0.1771240234375,-0.20245361328125,0.81005859375,-0.080078125,-0.970703125,0.3916015625,-1.8125,-0.0625,2.25
0.09000000000000001,1.0,-1.0,-1.0,3.0,3.0,1.0,-5.0,-1.0,-0.52093505859375,0.1771240234375,-0.20245361328125,0.81005859375,-0.080078125,-0.970703125,0.3916015625,-1.8125,-0.0625,2.25
0.09500000000000001,-2.0,-1.0,-1.0,-7.0,-3.0,-12.0,-50.0,-13.0,-0.52032470703125,0.17724609375,-0.202392578125,0.81048583984375,-0.07470703125,-0.94580078125,0.3984375,4.625,0.875,2.0
0.10000000000000002,-2.0,-1.0,-1.0,-7.0,-3.0,-12.0,-50.0,-13.0,-0.52032470703125,0.17724609375,-0.202392578125,0.81048583984375,-0.07470703125,-0.94580078125,0.3984375,4.625,0.875,2.0
0.10500000000000002,-2.0,-1.0,-1.0,-7.0,-3.0,-12.0,-50.0,-13.0,-0.52032470703125,0.17724609375,-0.202392578125,0.81048583984375,-0.07470703125,-0.94580078125,0.3984375,4.625,0.875,2.0
0.11000000000000003,-2.0,-1.0,-1.0,-7.0,-3.0,-12.0,-50.0,-13.0,-0.52032470703125,0.17724609375,-0.202392578125,0.81048583984375,-0.07470703125,-0.94580078125,0.3984375,4.625,0.875,2.0
0.11500000000000003,0.0,-1.0,0.0,-3.0,-1.0,3.0,25.0,2.0,-0.52032470703125,0.17724609375,-0.202392578125,0.81048583984375,-0.07470703125,-0.94580078125,0.3984375,4.625,0.875,2.0
0.12000000000000004,0.0,-1.0,0.0,-3.0,-1.0,3.0,25.0,2.0,-0.52032470703125,0.17724609375,-0.202392578125,0.81048583984375,-0.07470703125,-0.94580078125,0.3984375,4.625,0.875,2.0
0.12500000000000003,0.0,-1.0,0.0,-3.0,-1.0,3.0,25.0,2.0,-0.52032470703125,0.17724609375,-0.202392578125,0.81048583984375,-0.07470703125,-0.94580078125,0.3984375,4.625,0.875,2.0
0.13000000000000003,0.0,0.0,2.0,5.0,1.0,1.0,-5.0,1.0,-0.51934814453125,0.17730712890625,-0.20257568359375,0.81103515625,-0.078125,-0.9150390625,0.40234375,5.8125,1.375,0.875
0.13500000000000004,0.0,0.0,2.0,5.0,1.0,1.0,-5.0,1.0,-0.51934814453125,0.17730712890625,-0.20257568359375,0.81103515625,-0.078125,-0.9150390625,0.40234375,5.8125,1.375,0.875
0.14000000000000004,1.0,0.0,1.0,-1.0,1.0,0.0,6.0,3.0,-0.51934814453125,0.17730712890625,-0.20257568359375,0.81103515625,-0.078125,-0.9150390625,0.40234375,5.8125,1.375,0.875
0.14500000000000005,1.0,0.0,1.0,-1.0,1.0,0.0,6.0,3.0,-0.51934814453125,0.17730712890625,-0.20257568359375,0.81103515625,-0.078125,-0.9150390625,0.40234375,5.8125,1.375,0.875
0.15000000000000005,-2.0,-3.0,-15.0,-16.0,-2.0,0.0,16.0,5.0,-0.51934814453125,0.17730712890625,-0.20257568359375,0.81103515625,-0.08154296875,-0.9228515625,0.39794921875,0.5625,0.375,0.3125
0.15500000000000005,-2.0,-3.0,-15.0,-16.0,-2.0,0.0,16.0,5.0,-0.51934814453125,0.17730712890625,-0.20257568359375,0.81103515625,-0.08154296875,-0.9228515625,0.39794921875,0.5625,0.375,0.3125
0.16000000000000006,-2.0,-3.0,-15.0,-16.0,-2.0,0.0,16.0,5.0,-0.51934814453125,0.17730712890625,-0.20257568359375,0.81103515625,-0.08154296875,-0.9228515625,0.39794921875,0.5625,0.375,0.3125
0.16500000000000006,-2.0,-3.0,-15.0,-16.0,-2.0,0.0,16.0,5.0,-0.51934814453125,0.17730712890625,-0.20257568359375,0.81103515625,-0.08154296875,-0.9228515625,0.39794921875,0.5625,0.375,0.3125
0.17000000000000007,-1.0,-3.0,-5.0,-6.0,-6.0,-3.0,0.0,1.0,-0.51934814453125,0.17730712890625,-0.20257568359375,0.81103515625,-0.08154296875,-0.9228515625,0.39794921875,0.5625,0.375,0.3125
0.17500000000000007,-1.0,-3.0,-5.0,-6.0,-6.0,-3.0,0.0,1.0,-0.51934814453125,0.17730712890625,-0.20257568359375,0.81103515625,-0.08154296875,-0.9228515625,0.39794921875,0.5625,0.375,0.3125
0.18000000000000008,-1.0,-3.0,-2.0,-2.0,3.0,5.0,7.0,-2.0,-0.51971435546875,0.17718505859375,-0.20263671875,0.81085205078125,-0.064453125,-0.9345703125,0.40234375,-1.9375,-0.4375,-0.25
0.18500000000000008,-1.0,-3.0,-2.0,-2.0,3.0,5.0,7.0,-2.0,-0.51971435546875,0.17718505859375,-0.20263671875,0.81085205078125,-0.064453125,-0.9345703125,0.40234375,-1.9375,-0.4375,-0.25
0.19000000000000009,-1.0,-3.0,-2.0,-2.0,3.0,5.0,7.0,-2.0,-0.51971435546875,0.17718505859375,-0.20263671875,0.81085205078125,-0.064453125,-0.9345703125,0.40234375,-1.9375,-0.4375,-0.25
0.1950000000000001,-1.0,-3.0,-2.0,-2.0,3.0,5.0,7.0,-2.0,-0.51971435546875,0.17718505859375,-0.20263671875,0.81085205078125,-0.064453125,-0.9345703125,0.40234375,-1.9375,-0.4375,-0.25
0.2000000000000001,-1.0,-1.0,0.0,-4.0,0.0,-2.0,-11.0,-1.0,-0.51971435546875,0.17718505859375,-0.20263671875,0.81085205078125,-0.064453125,-0.9345703125,0.40234375,-1.9375,-0.4375,-0.25
0.2050000000000001,-1.0,-1.0,0.0,-4.0,0.0,-2.0,-11.0,-1.0,-0.51971435546875,0.17718505859375,-0.20263671875,0.81085205078125,-0.064453125,-0.9345703125,0.40234375,-1.9375,-0.4375,-0.25
0.2100000000000001,-1.0,-1.0,2.0,1.0,-3.0,0.0,11.0,0.0,-0.51971435546875,0.1771240234375,-0.20263671875,0.810791015625,-0.05615234375,-0.93994140625,0.40234375,-0.125,-0.5625,-0.25
0.2150000000000001,-1.0,-1.0,2.0,1.0,-3.0,0.0,11.0,0.0,-0.51971435546875,0.1771240234375,-0.20263671875,0.810791015625,-0.05615234375,-0.93994140625,0.40234375,-0.125,-0.5625,-0.25
0.2200000000000001,0.0,-1.0,-5.0,6.0,-1.0,-4.0,-5.0,1.0,-0.51971435546875,0.1771240234375,-0.20263671875,0.810791015625,-0.05615234375,-0.93994140625,0.40234375,-0.125,-0.5625,-0.25
0.22500000000000012,0.0,-1.0,-5.0,6.0,-1.0,-4.0,-5.0,1.0,-0.51971435546875,0.1771240234375,-0.20263671875,0.810791015625,-0.05615234375,-0.93994140625,0.40234375,-0.125,-0.5625,-0.25
0.23000000000000012,0.0,-1.0,-5.0,6.0,-1.0,-4.0,-5.0,1.0,-0.51947021484375,0.1767578125,-0.2027587890625,0.81103515625,-0.06005859375,-0.93310546875,0.40478515625,2.5625,-0.8125,-0.125
0.23500000000000013,-3.0,0.0,6.0,5.0,-4.0,1.0,5.0,0.0,-0.51947021484375,0.1767578125,-0.2027587890625,0.81103515625,-0.06005859375,-0.93310546875,0.40478515625,2.5625,-0.8125,-0.125
0.24000000000000013,-3.0,0.0,6.0,5.0,-4.0,1.0,5.0,0.0,-0.51947021484375,0.1767578125,-0.2027587890625,0.81103515625,-0.06005859375,-0.93310546875,0.40478515625,2.5625,-0.8125,-0.125
0.24500000000000013,-3.0,0.0,6.0,5.0,-4.0,1.0,5.0,0.0,-0.51947021484375,0.1767578125,-0.2027587890625,0.81103515625,-0.06005859375,-0.93310546875,0.40478515625,2.5625,-0.8125,-0.125
0.2500000000000001,-2.0,-3.0,-4.0,-9.0,-1.0,0.0,-6.0,-3.0,-0.51947021484375,0.1767578125,-0.2027587890625,0.81103515625,-0.06005859375,-0.93310546875,0.40478515625,2.5625,-0.8125,-0.125
0.2550000000000001,-2.0,-3.0,-4.0,-9.0,-1.0,0.0,-6.0,-3.0,-0.51947021484375,0.1767578125,-0.2027587890625,0.81103515625,-0.06005859375,-0.93310546875,0.40478515625,2.5625,-0.8125,-0.125
0.2600000000000001,-1.0,-2.0,-6.0,-5.0,-3.0,-2.0,-3.0,-3.0,-0.51922607421875,0.17645263671875,-0.20294189453125,0.81121826171875,-0.06298828125,-0.9267578125,0.3994140625,2.1875,-0.625,-0.375
0.2650000000000001,-1.0,-2.0,-6.0,-5.0,-3.0,-2.0,-3.0,-3.0,-0.51922607421875,0.17645263671875,-0.20294189453125,0.81121826171875,-0.06298828125,-0.9267578125,0.3994140625,2.1875,-0.625,-0.375
0.27000000000000013,-1.0,-2.0,-6.0,-5.0,-3.0,-2.0,-3.0,-3.0,-0.51922607421875,0.17645263671875,-0.20294189453125,0.81121826171875,-0.06298828125,-0.9267578125,0.3994140625,2.1875,-0.625,-0.375
0.27500000000000013,-1.0,1.0,4.0,3.0,3.0,3.0,4.0,0.0,-0.51922607421875,0.17645263671875,-0.20294189453125,0.81121826171875,-0.06298828125,-0.9267578125,0.3994140625,2.1875,-0.625,-0.375
0.28000000000000014,-1.0,1.0,4.0,3.0,3.0,3.0,4.0,0.0,-0.51922607421875,0.17645263671875,-0.20294189453125,0.81121826171875,-0.06298828125,-0.9267578125,0.3994140625,2.1875,-0.625,-0.375
0.28500000000000014,-2.0,-1.0,0.0,-10.0,0.0,1.0,-2.0,-1.0,-0.51904296875,0.17620849609375,-0.20306396484375,0.81134033203125,-0.0693359375,-0.93408203125,0.3984375,2.3125,-0.5625,-0.375
0.29000000000000015,-2.0,-2.0,-1.0,-1.0,-3.0,-1.0,-7.0,-3.0,-0.51904296875,0.17620849609375,-0.20306396484375,0.81134033203125,-0.0693359375,-0.93408203125,0.3984375,2.3125,-0.5625,-0.375
0.29500000000000015,-1.0,0.0,1.0,2.0,0.0,-2.0,6.0,1.0,-0.51904296875,0.17620849609375,-0.20306396484375,0.81134033203125,-0.0693359375,-0.93408203125,0.3984375,2.3125,-0.5625,-0.375
0.30000000000000016,1.0,-1.0,-4.0,-6.0,-2.0,-2.0,2.0,1.0,-0.51898193359375,0.176025390625,-0.20318603515625,0.8114013671875,-0.0673828125,-0.92578125,0.3984375,1.3125,-0.4375,-0.5
0.30500000000000016,1.0,-1.0,-4.0,-6.0,-2.0,-2.0,2.0,1.0,-0.51898193359375,0.176025390625,-0.20318603515625,0.8114013671875,-0.0673828125,-0.92578125,0.3984375,1.3125,-0.4375,-0.5
0.31000000000000016,1.0,-1.0,-4.0,-6.0,-2.0,-2.0,2.0,1.0,-0.51898193359375,0.176025390625,-0.20318603515625,0.8114013671875,-0.0673828125,-0.92578125,0.3984375,1.3125,-0.4375,-0.5
0.31500000000000017,1.0,-1.0,-4.0,-6.0,-2.0,-2.0,2.0,1.0,-0.51898193359375,0.176025390625,-0.20318603515625,0.8114013671875,-0.0673828125,-0.92578125,0.3984375,1.3125,-0.4375,-0.5
0.3200000000000002,-2.0,-2.0,0.0,7.0,0.0,0.0,-7.0,-5.0,-0.51898193359375,0.176025390625,-0.20318603515625,0.8114013671875,-0.0673828125,-0.92578125,0.3984375,1.3125,-0.4375,-0.5
0.3250000000000002,-2.0,-2.0,0.0,7.0,0.0,0.0,-7.0,-5.0,-0.51898193359375,0.176025390625,-0.20318603515625,0.8114013671875,-0.0673828125,-0.92578125,0.3984375,1.3125,-0.4375,-0.5
0.3300000000000002,-2.0,-2.0,0.0,7.0,0.0,0.0,-7.0,-5.0,-0.51898193359375,0.176025390625,-0.20318603515625,0.8114013671875,-0.0673828125,-0.92578125,0.3984375,1.3125,-0.4375,-0.5
0.3350000000000002,0.0,1.0,-4.0,-2.0,3.0,0.0,4.0,0.0,-0.519287109375,0.17584228515625,-0.20318603515625,0.811279296875,-0.06494140625,-0.9248046875,0.39599609375,-1.1875,-0.75,-0.3125
0.3400000000000002,0.0,1.0,-4.0,-2.0,3.0,0.0,4.0,0.0,-0.519287109375,0.17584228515625,-0.20318603515625,0.811279296875,-0.06494140625,-0.9248046875,0.39599609375,-1.1875,-0.75,-0.3125
0.3450000000000002,0.0,-1.0,2.0,-3.0,-3.0,-3.0,-10.0,-4.0,-0.519287109375,0.17584228515625,-0.20318603515625,0.811279296875,-0.06494140625,-0.9248046875,0.39599609375,-1.1875,-0.75,-0.3125
0.3500000000000002,0.0,-1.0,2.0,-3.0,-3.0,-3.0,-10.0,-4.0,-0.519287109375,0.17584228515625,-0.20318603515625,0.811279296875,-0.06494140625,-0.9248046875,0.39599609375,-1.1875,-0.75,-0.3125
0.3550000000000002,-2.0,1.0,1.0,4.0,-6.0,-2.0,-1.0,0.0,-0.519775390625,0.17572021484375,-0.20306396484375,0.81103515625,-0.06298828125,-0.9345703125,0.40087890625,-2.625,-1.0,0.0625
0.3600000000000002,-2.0,-2.0,-1.0,-2.0,-2.0,-2.0,1.0,-1.0,-0.519775390625,0.17572021484375,-0.20306396484375,0.81103515625,-0.06298828125,-0.9345703125,0.40087890625,-2.625,-1.0,0.0625
0.3650000000000002,-2.0,-2.0,-1.0,-2.0,-2.0,-2.0,1.0,-1.0,-0.519775390625,0.17572021484375,-0.20306396484375,0.81103515625,-0.06298828125,-0.9345703125,0.40087890625,-2.625,-1.0,0.0625
0.3700000000000002,1.0,-2.0,0.0,14.0,-2.0,0.0,16.0,5.0,-0.519775390625,0.1756591796875,-0.20306396484375,0.81097412109375,-0.06494140625,-0.951171875,0.404296875,-0.875,-0.625,0.3125
0.3750000000000002,1.0,-2.0,0.0,14.0,-2.0,0.0,16.0,5.0,-0.519775390625,0.1756591796875,-0.20306396484375,0.81097412109375,-0.06494140625,-0.951171875,0.404296875,-0.875,-0.625,0.3125
0.3800000000000002,1.0,-2.0,0.0,14.0,-2.0,0.0,16.0,5.0,-0.519775390625,0.1756591796875,-0.20306396484375,0.81097412109375,-0.06494140625,-0.951171875,0.404296875,-0.875,-0.625,0.3125
0.38500000000000023,-3.0,-2.0,3.0,10.0,0.0,2.0,12.0,2.0,-0.519775390625,0.1756591796875,-0.20306396484375,0.81097412109375,-0.06494140625,-0.951171875,0.404296875,-0.875,-0.625,0.3125
0.39000000000000024,-2.0,-2.0,-3.0,-4.0,1.0,0.0,-1.0,-2.0,-0.519775390625,0.1756591796875,-0.20306396484375,0.81097412109375,-0.06494140625,-0.951171875,0.404296875,-0.875,-0.625,0.3125
0.39500000000000024,-1.0,-3.0,-5.0,-1.0,-3.0,-1.0,-8.0,-4.0,-0.5196533203125,0.17547607421875,-0.203125,0.8111572265625,-0.0634765625,-0.943359375,0.41015625,1.375,-0.5625,0.25
0.40000000000000024,-1.0,-3.0,-5.0,-1.0,-3.0,-1.0,-8.0,-4.0,-0.5196533203125,0.17547607421875,-0.203125,0.8111572265625,-0.0634765625,-0.943359375,0.41015625,1.375,-0.5625,0.25
0.40500000000000025,-1.0,-3.0,-5.0,-1.0,-3.0,-1.0,-8.0,-4.0,-0.5196533203125,0.17547607421875,-0.203125,0.8111572265625,-0.0634765625,-0.943359375,0.41015625,1.375,-0.5625,0.25
0.41000000000000025,0.0,-2.0,-1.0,3.0,1.0,4.0,4.0,0.0,-0.5196533203125,0.17547607421875,-0.203125,0.8111572265625,-0.0634765625,-0.943359375,0.41015625,1.375,-0.5625,0.25
0.41500000000000026,-2.0,0.0,0.0,0.0,1.0,-2.0,-17.0,-1.0,-0.5194091796875,0.17523193359375,-0.20318603515625,0.811279296875,-0.064453125,-0.9384765625,0.40283203125,2.3125,-0.375,0.1875
0.42000000000000026,-2.0,0.0,0.0,0.0,1.0,-2.0,-17.0,-1.0,-0.5194091796875,0.17523193359375,-0.20318603515625,0.811279296875,-0.064453125,-0.9384765625,0.40283203125,2.3125,-0.375,0.1875
0.42500000000000027,-2.0,0.0,0.0,0.0,1.0,-2.0,-17.0,-1.0,-0.5194091796875,0.17523193359375,-0.20318603515625,0.811279296875,-0.064453125,-0.9384765625,0.40283203125,2.3125,-0.375,0.1875
0.43000000000000027,-2.0,0.0,0.0,0.0,1.0,-2.0,-17.0,-1.0,-0.5194091796875,0.17523193359375,-0.20318603515625,0.811279296875,-0.064453125,-0.9384765625,0.40283203125,2.3125,-0.375,0.1875
0.4350000000000003,-2.0,-1.0,0.0,-1.0,3.0,-3.0,-7.0,-3.0,-0.5194091796875,0.17523193359375,-0.20318603515625,0.811279296875,-0.064453125,-0.9384765625,0.40283203125,2.3125,-0.375,0.1875
0.4400000000000003,-1.0,-1.0,-2.0,-4.0,-1.0,1.0,-4.0,-2.0,-0.51910400390625,0.17510986328125,-0.20318603515625,0.8115234375,-0.06982421875,-0.9287109375,0.408203125,2.0,-0.5,0.375
0.4450000000000003,-1.0,-1.0,-2.0,-4.0,-1.0,1.0,-4.0,-2.0,-0.51910400390625,0.17510986328125,-0.20318603515625,0.8115234375,-0.06982421875,-0.9287109375,0.408203125,2.0,-0.5,0.375
0.4500000000000003,0.0,-1.0,-5.0,-9.0,-4.0,-3.0,3.0,1.0,-0.51910400390625,0.17510986328125,-0.20318603515625,0.8115234375,-0.06982421875,-0.9287109375,0.408203125,2.0,-0.5,0.375
0.4550000000000003,0.0,-1.0,-5.0,-9.0,-4.0,-3.0,3.0,1.0,-0.51910400390625,0.17510986328125,-0.20318603515625,0.8115234375,-0.06982421875,-0.9287109375,0.408203125,2.0,-0.5,0.375
0.4600000000000003,-2.0,-3.0,4.0,5.0,2.0,-2.0,1.0,-1.0,-0.51910400390625,0.17510986328125,-0.20318603515625,0.8115234375,-0.06982421875,-0.92529296875,0.40478515625,0.75,-0.8125,0.5625
0.4650000000000003,-2.0,-3.0,4.0,5.0,2.0,-2.0,1.0,-1.0,-0.51910400390625,0.17510986328125,-0.20318603515625,0.8115234375,-0.06982421875,-0.92529296875,0.40478515625,0.75,-0.8125,0.5625
0.4700000000000003,1.0,0.0,-4.0,-9.0,2.0,1.0,3.0,1.0,-0.51910400390625,0.17510986328125,-0.20318603515625,0.8115234375,-0.06982421875,-0.92529296875,0.40478515625,0.75,-0.8125,0.5625
0.4750000000000003,0.0,-2.0,-5.0,0.0,-3.0,-3.0,-6.0,-3.0,-0.51910400390625,0.175048828125,-0.20318603515625,0.8115234375,-0.0615234375,-0.93115234375,0.4072265625,-0.3125,-0.375,0.9375
0.4800000000000003,0.0,-2.0,-5.0,0.0,-3.0,-3.0,-6.0,-3.0,-0.51910400390625,0.175048828125,-0.20318603515625,0.8115234375,-0.0615234375,-0.93115234375,0.4072265625,-0.3125,-0.375,0.9375
0.4850000000000003,0.0,-2.0,-5.0,0.0,-3.0,-3.0,-6.0,-3.0,-0.51910400390625,0.175048828125,-0.20318603515625,0.8115234375,-0.0615234375,-0.93115234375,0.4072265625,-0.3125,-0.375,0.9375
0.4900000000000003,0.0,-2.0,-5.0,0.0,-3.0,-3.0,-6.0,-3.0,-0.51910400390625,0.175048828125,-0.20318603515625,0.8115234375,-0.0615234375,-0.93115234375,0.4072265625,-0.3125,-0.375,0.9375
0.49500000000000033,-2.0,-1.0,-3.0,-14.0,-1.0,0.0,1.0,0.0,-0.51910400390625,0.175048828125,-0.20318603515625,0.8115234375,-0.0615234375,-0.93115234375,0.4072265625,-0.3125,-0.375,0.9375
0.5000000000000003,0.0,-1.0,-2.0,-1.0,2.0,-4.0,-10.0,-3.0,-0.519287109375,0.1751708984375,-0.203125,0.8114013671875,-0.0654296875,-0.935546875,0.40625,-1.0625,0.25,1.125
0.5050000000000003,1.0,1.0,-1.0,0.0,3.0,3.0,17.0,5.0,-0.519287109375,0.1751708984375,-0.203125,0.8114013671875,-0.0654296875,-0.935546875,0.40625,-1.0625,0.25,1.125
0.5100000000000003,-3.0,-4.0,-1.0,-1.0,4.0,1.0,5.0,1.0,-0.519287109375,0.1751708984375,-0.203125,0.8114013671875,-0.0654296875,-0.935546875,0.40625,-1.0625,0.25,1.125
0.5150000000000003,-3.0,-4.0,-1.0,-1.0,4.0,1.0,5.0,1.0,-0.519287109375,0.1751708984375,-0.203125,0.8114013671875,-0.0654296875,-0.935546875,0.40625,-1.0625,0.25,1.125
0.5200000000000004,0.0,2.0,0.0,-4.0,-4.0,-2.0,-3.0,-4.0,-0.51922607421875,0.17529296875,-0.20294189453125,0.81146240234375,-0.06689453125,-0.9384765625,0.40185546875,0.5625,0.25,1.9375
0.5250000000000004,0.0,2.0,0.0,-4.0,-4.0,-2.0,-3.0,-4.0,-0.51922607421875,0.17529296875,-0.20294189453125,0.81146240234375,-0.06689453125,-0.9384765625,0.40185546875,0.5625,0.25,1.9375
0.5300000000000004,0.0,2.0,0.0,-4.0,-4.0,-2.0,-3.0,-4.0,-0.51922607421875,0.17529296875,-0.20294189453125,0.81146240234375,-0.06689453125,-0.9384765625,0.40185546875,0.5625,0.25,1.9375
0.5350000000000004,0.0,1.0,2.0,4.0,-1.0,-1.0,1.0,-1.0,-0.51922607421875,0.17529296875,-0.20294189453125,0.81146240234375,-0.06689453125,-0.9384765625,0.40185546875,0.5625,0.25,1.9375
0.5400000000000004,0.0,1.0,2.0,4.0,-1.0,-1.0,1.0,-1.0,-0.51922607421875,0.17529296875,-0.20294189453125,0.81146240234375,-0.06689453125,-0.9384765625,0.40185546875,0.5625,0.25,1.9375
0.5450000000000004,-1.0,-2.0,1.0,0.0,3.0,-4.0,-16.0,-5.0,-0.5189208984375,0.17535400390625,-0.20281982421875,0.8116455078125,-0.0654296875,-0.93603515625,0.4091796875,1.4375,0.4375,1.9375
0.5500000000000004,-1.0,-2.0,1.0,0.0,3.0,-4.0,-16.0,-5.0,-0.5189208984375,0.17535400390625,-0.20281982421875,0.8116455078125,-0.0654296875,-0.93603515625,0.4091796875,1.4375,0.4375,1.9375
0.5550000000000004,0.0,-1.0,-2.0,-3.0,-1.0,2.0,-1.0,0.0,-0.518798828125,0.1754150390625,-0.20263671875,0.81182861328125,-0.0703125,-0.93212890625,0.4052734375,1.125,-0.125,1.625
0.5600000000000004,0.0,-1.0,-2.0,-3.0,-1.0,2.0,-1.0,0.0,-0.518798828125,0.1754150390625,-0.20263671875,0.81182861328125,-0.0703125,-0.93212890625,0.4052734375,1.125,-0.125,1.625
0.5650000000000004,0.0,-1.0,-2.0,-3.0,-1.0,2.0,-1.0,0.0,-0.518798828125,0.1754150390625,-0.20263671875,0.81182861328125,-0.0703125,-0.93212890625,0.4052734375,1.125,-0.125,1.625
0.5700000000000004,0.0,-1.0,-5.0,-3.0,-1.0,3.0,3.0,1.0,-0.518798828125,0.1754150390625,-0.20263671875,0.81182861328125,-0.0703125,-0.93212890625,0.4052734375,1.125,-0.125,1.625
0.5750000000000004,0.0,-1.0,-5.0,-3.0,-1.0,3.0,3.0,1.0,-0.518798828125,0.1754150390625,-0.20263671875,0.81182861328125,-0.0703125,-0.93212890625,0.4052734375,1.125,-0.125,1.625
0.5800000000000004,-2.0,-2.0,-1.0,-7.0,-5.0,-6.0,2.0,-1.0,-0.51885986328125,0.17547607421875,-0.2022705078125,0.81182861328125,-0.0693359375,-0.92724609375,0.40087890625,-0.25,-0.8125,2.125
0.5850000000000004,-2.0,-2.0,-1.0,-7.0,-5.0,-6.0,2.0,-1.0,-0.51885986328125,0.17547607421875,-0.2022705078125,0.81182861328125,-0.0693359375,-0.92724609375,0.40087890625,-0.25,-0.8125,2.125
0.5900000000000004,-2.0,-2.0,-1.0,-7.0,-5.0,-6.0,2.0,-1.0,-0.51885986328125,0.17547607421875,-0.2022705078125,0.81182861328125,-0.0693359375,-0.92724609375,0.40087890625,-0.25,-0.8125,2.125
0.5950000000000004,-2.0,-2.0,-1.0,-7.0,-5.0,-6.0,2.0,-1.0,-0.51885986328125,0.17547607421875,-0.2022705078125,0.81182861328125,-0.0693359375,-0.92724609375,0.40087890625,-0.25,-0.8125,2.125
0.6000000000000004,-2.0,0.0,0.0,-2.0,-2.0,-4.0,-2.0,0.0,-0.51885986328125,0.17547607421875,-0.2022705078125,0.81182861328125,-0.0693359375,-0.92724609375,0.40087890625,-0.25,-0.8125,2.125
0.6050000000000004,-2.0,0.0,0.0,-2.0,-2.0,-4.0,-2.0,0.0,-0.51885986328125,0.17547607421875,-0.2022705078125,0.81182861328125,-0.0693359375,-0.92724609375,0.40087890625,-0.25,-0.8125,2.125
0.6100000000000004,-1.0,0.0,0.0,2.0,0.0,3.0,11.0,2.0,-0.51904296875,0.1756591796875,-0.20184326171875,0.811767578125,-0.0693359375,-0.9306640625,0.3955078125,-0.9375,-0.4375,2.75
0.6150000000000004,-1.0,0.0,0.0,2.0,0.0,3.0,11.0,2.0,-0.51904296875,0.1756591796875,-0.20184326171875,0.811767578125,-0.0693359375,-0.9306640625,0.3955078125,-0.9375,-0.4375,2.75
0.6200000000000004,-1.0,0.0,0.0,2.0,0.0,3.0,11.0,2.0,-0.51904296875,0.1756591796875,-0.20184326171875,0.811767578125,-0.0693359375,-0.9306640625,0.3955078125,-0.9375,-0.4375,2.75
0.6250000000000004,-1.0,0.0,0.0,2.0,0.0,3.0,11.0,2.0,-0.51904296875,0.1756591796875,-0.20184326171875,0.811767578125,-0.0693359375,-0.9306640625,0.3955078125,-0.9375,-0.4375,2.75
0.6300000000000004,-1.0,-1.0,-2.0,-1.0,0.0,-1.0,3.0,-1.0,-0.51910400390625,0.17596435546875,-0.201416015625,0.811767578125,-0.076171875,-0.9287109375,0.39599609375,-0.8125,0.0,3.0625
0.6350000000000005,-1.0,-1.0,-2.0,-1.0,0.0,-1.0,3.0,-1.0,-0.51910400390625,0.17596435546875,-0.201416015625,0.811767578125,-0.076171875,-0.9287109375,0.39599609375,-0.8125,0.0,3.0625
0.6400000000000005,-1.0,-1.0,-2.0,-1.0,0.0,-1.0,3.0,-1.0,-0.51910400390625,0.17596435546875,-0.201416015625,0.811767578125,-0.076171875,-0.9287109375,0.39599609375,-0.8125,0.0,3.0625
0.6450000000000005,-1.0,-1.0,-2.0,-1.0,0.0,-1.0,3.0,-1.0,-0.51910400390625,0.17596435546875,-0.201416015625,0.811767578125,-0.076171875,-0.9287109375,0.39599609375,-0.8125,0.0,3.0625
0.6500000000000005,-2.0,-1.0,1.0,-4.0,-2.0,2.0,-7.0,-3.0,-0.51910400390625,0.17596435546875,-0.201416015625,0.811767578125,-0.076171875,-0.9287109375,0.39599609375,-0.8125,0.0,3.0625
0.6550000000000005,-2.0,-1.0,1.0,-4.0,-2.0,2.0,-7.0,-3.0,-0.51910400390625,0.17596435546875,-0.201416015625,0.811767578125,-0.076171875,-0.9287109375,0.39599609375,-0.8125,0.0,3.0625
0.6600000000000005,-2.0,-2.0,3.0,12.0,3.0,1.0,-3.0,-2.0,-0.5191650390625,0.17626953125,-0.20098876953125,0.811767578125,-0.07861328125,-0.93505859375,0.40576171875,-1.0,0.1875,2.6875
0.6650000000000005,-2.0,-2.0,3.0,12.0,3.0,1.0,-3.0,-2.0,-0.5191650390625,0.17626953125,-0.20098876953125,0.811767578125,-0.07861328125,-0.93505859375,0.40576171875,-1.0,0.1875,2.6875
0.6700000000000005,-2.0,-2.0,3.0,12.0,3.0,1.0,-3.0,-2.0,-0.5191650390625,0.17626953125,-0.20098876953125,0.811767578125,-0.07861328125,-0.93505859375,0.40576171875,-1.0,0.1875,2.6875
0.6750000000000005,-1.0,-2.0,-6.0,-7.0,-5.0,-4.0,-5.0,-2.0,-0.5191650390625,0.17626953125,-0.20098876953125,0.811767578125,-0.07861328125,-0.93505859375,0.40576171875,-1.0,0.1875,2.6875
0.6800000000000005,-1.0,-2.0,-6.0,-7.0,-5.0,-4.0,-5.0,-2.0,-0.5191650390625,0.17626953125,-0.20098876953125,0.811767578125,-0.07861328125,-0.93505859375,0.40576171875,-1.0,0.1875,2.6875
0.6850000000000005,-1.0,-2.0,-6.0,-7.0,-5.0,-4.0,-5.0,-2.0,-0.5191650390625,0.17626953125,-0.20098876953125,0.811767578125,-0.07861328125,-0.93505859375,0.40576171875,-1.0,0.1875,2.6875
0.6900000000000005,-2.0,-4.0,-4.0,-1.0,-3.0,-3.0,-3.0,-1.0,-0.519287109375,0.176513671875,-0.2008056640625,0.81170654296875,-0.0703125,-0.94775390625,0.40185546875,-0.6875,0.625,2.1875
0.6950000000000005,-2.0,-4.0,-4.0,-1.0,-3.0,-3.0,-3.0,-1.0,-0.519287109375,0.176513671875,-0.2008056640625,0.81170654296875,-0.0703125,-0.94775390625,0.40185546875,-0.6875,0.625,2.1875
0.7000000000000005,-2.0,-4.0,-4.0,-1.0,-3.0,-3.0,-3.0,-1.0,-0.519287109375,0.176513671875,-0.2008056640625,0.81170654296875,-0.0703125,-0.94775390625,0.40185546875,-0.6875,0.625,2.1875
0.7050000000000005,-3.0,-2.0,-4.0,0.0,-4.0,-6.0,-8.0,-2.0,-0.519287109375,0.176513671875,-0.2008056640625,0.81170654296875,-0.0703125,-0.94775390625,0.40185546875,-0.6875,0.625,2.1875
0.7100000000000005,-2.0,-2.0,-3.0,4.0,0.0,-3.0,-4.0,-2.0,-0.51910400390625,0.17669677734375,-0.20062255859375,0.81182861328125,-0.0810546875,-0.93505859375,0.400390625,1.375,0.625,1.625
0.7150000000000005,-2.0,-2.0,-3.0,4.0,0.0,-3.0,-4.0,-2.0,-0.51910400390625,0.17669677734375,-0.20062255859375,0.81182861328125,-0.0810546875,-0.93505859375,0.400390625,1.375,0.625,1.625
0.7200000000000005,-2.0,-2.0,-3.0,4.0,0.0,-3.0,-4.0,-2.0,-0.51910400390625,0.17669677734375,-0.20062255859375,0.81182861328125,-0.0810546875,-0.93505859375,0.400390625,1.375,0.625,1.625
0.7250000000000005,0.0,-3.0,-2.0,3.0,1.0,-3.0,-12.0,-4.0,-0.51910400390625,0.17669677734375,-0.20062255859375,0.81182861328125,-0.0810546875,-0.93505859375,0.400390625,1.375,0.625,1.625
0.7300000000000005,0.0,-3.0,-2.0,3.0,1.0,-3.0,-12.0,-4.0,-0.51910400390625,0.17669677734375,-0.20062255859375,0.81182861328125,-0.0810546875,-0.93505859375,0.400390625,1.375,0.625,1.625
0.7350000000000005,0.0,1.0,3.0,-3.0,-4.0,-4.0,-3.0,-1.0,-0.518798828125,0.1768798828125,-0.20050048828125,0.81201171875,-0.0791015625,-0.92431640625,0.39892578125,1.9375,0.375,1.5625
0.7400000000000005,0.0,1.0,3.0,-3.0,-4.0,-4.0,-3.0,-1.0,-0.518798828125,0.1768798828125,-0.20050048828125,0.81201171875,-0.0791015625,-0.92431640625,0.39892578125,1.9375,0.375,1.5625
0.7450000000000006,0.0,1.0,3.0,-3.0,-4.0,-4.0,-3.0,-1.0,-0.518798828125,0.1768798828125,-0.20050048828125,0.81201171875,-0.0791015625,-0.92431640625,0.39892578125,1.9375,0.375,1.5625
0.7500000000000006,0.0,1.0,3.0,-3.0,-4.0,-4.0,-3.0,-1.0,-0.518798828125,0.1768798828125,-0.20050048828125,0.81201171875,-0.0791015625,-0.92431640625,0.39892578125,1.9375,0.375,1.5625
0.7550000000000006,0.0,1.0,3.0,-3.0,-4.0,-4.0,-3.0,-1.0,-0.518798828125,0.1768798828125,-0.20050048828125,0.81201171875,-0.0791015625,-0.92431640625,0.39892578125,1.9375,0.375,1.5625
0.7600000000000006,0.0,1.0,3.0,-3.0,-4.0,-4.0,-3.0,-1.0,-0.518798828125,0.1768798828125,-0.20050048828125,0.81201171875,-0.0791015625,-0.92431640625,0.39892578125,1.9375,0.375,1.5625
0.7650000000000006,0.0,-1.0,0.0,-1.0,1.0,1.0,15.0,2.0,-0.51885986328125,0.17694091796875,-0.20037841796875,0.81195068359375,-0.0693359375,-0.92041015625,0.39990234375,-0.6875,0.125,1.5625
0.7700000000000006,-2.0,-4.0,-3.0,0.0,-2.0,0.0,-3.0,0.0,-0.51885986328125,0.17694091796875,-0.20037841796875,0.81195068359375,-0.0693359375,-0.92041015625,0.39990234375,-0.6875,0.125,1.5625
0.7750000000000006,-2.0,-4.0,-3.0,0.0,-2.0,0.0,-3.0,0.0,-0.51885986328125,0.17694091796875,-0.20037841796875,0.81195068359375,-0.0693359375,-0.92041015625,0.39990234375,-0.6875,0.125,1.5625
0.7800000000000006,-2.0,-4.0,-3.0,0.0,-2.0,0.0,-3.0,0.0,-0.51885986328125,0.17694091796875,-0.20037841796875,0.81195068359375,-0.0693359375,-0.92041015625,0.39990234375,-0.6875,0.125,1.5625
0.7850000000000006,-1.0,-1.0,3.0,6.0,-1.0,-5.0,-9.0,-3.0,-0.51885986328125,0.17694091796875,-0.20037841796875,0.81195068359375,-0.0693359375,-0.92041015625,0.39990234375,-0.6875,0.125,1.5625
0.7900000000000006,1.0,0.0,-1.0,-5.0,2.0,2.0,13.0,1.0,-0.51922607421875,0.177001953125,-0.20025634765625,0.811767578125,-0.06494140625,-0.9345703125,0.404296875,-2.4375,0.3125,1.1875
0.7950000000000006,1.0,0.0,-1.0,-5.0,2.0,2.0,13.0,1.0,-0.51922607421875,0.177001953125,-0.20025634765625,0.811767578125,-0.06494140625,-0.9345703125,0.404296875,-2.4375,0.3125,1.1875
0.8000000000000006,1.0,0.0,-1.0,-5.0,2.0,2.0,13.0,1.0,-0.51922607421875,0.177001953125,-0.20025634765625,0.811767578125,-0.06494140625,-0.9345703125,0.404296875,-2.4375,0.3125,1.1875
0.8050000000000006,1.0,0.0,-1.0,-5.0,2.0,2.0,13.0,1.0,-0.51922607421875,0.177001953125,-0.20025634765625,0.811767578125,-0.06494140625,-0.9345703125,0.404296875,-2.4375,0.3125,1.1875
0.8100000000000006,-1.0,0.0,-2.0,-3.0,1.0,1.0,2.0,0.0,-0.51922607421875,0.177001953125,-0.20025634765625,0.811767578125,-0.06494140625,-0.9345703125,0.404296875,-2.4375,0.3125,1.1875
0.8150000000000006,-1.0,0.0,-2.0,-3.0,1.0,1.0,2.0,0.0,-0.51922607421875,0.177001953125,-0.20025634765625,0.811767578125,-0.06494140625,-0.9345703125,0.404296875,-2.4375,0.3125,1.1875
0.8200000000000006,0.0,-2.0,2.0,-1.0,-1.0,-4.0,-6.0,-3.0,-0.5194091796875,0.1771240234375,-0.2001953125,0.8116455078125,-0.06640625,-0.939453125,0.3994140625,-0.5,0.625,1.0625
0.8250000000000006,0.0,-2.0,2.0,-1.0,-1.0,-4.0,-6.0,-3.0,-0.5194091796875,0.1771240234375,-0.2001953125,0.8116455078125,-0.06640625,-0.939453125,0.3994140625,-0.5,0.625,1.0625
0.8300000000000006,0.0,-2.0,2.0,-1.0,-1.0,-4.0,-6.0,-3.0,-0.5194091796875,0.1771240234375,-0.2001953125,0.8116455078125,-0.06640625,-0.939453125,0.3994140625,-0.5,0.625,1.0625
0.8350000000000006,0.0,-2.0,2.0,-1.0,-1.0,-4.0,-6.0,-3.0,-0.5194091796875,0.1771240234375,-0.2001953125,0.8116455078125,-0.06640625,-0.939453125,0.3994140625,-0.5,0.625,1.0625
0.8400000000000006,-1.0,1.0,2.0,-9.0,-4.0,-2.0,-1.0,-2.0,-0.5194091796875,0.1771240234375,-0.2001953125,0.8116455078125,-0.06640625,-0.939453125,0.3994140625,-0.5,0.625,1.0625
0.8450000000000006,-1.0,1.0,2.0,-9.0,-4.0,-2.0,-1.0,-2.0,-0.5194091796875,0.1771240234375,-0.2001953125,0.8116455078125,-0.06640625,-0.939453125,0.3994140625,-0.5,0.625,1.0625
0.8500000000000006,-2.0,-2.0,3.0,-2.0,-5.0,-4.0,-10.0,-4.0,-0.5194091796875,0.1771240234375,-0.20025634765625,0.8116455078125,-0.0732421875,-0.9326171875,0.396484375,0.875,0.625,0.875
0.8550000000000006,-2.0,-2.0,3.0,-2.0,-5.0,-4.0,-10.0,-4.0,-0.5194091796875,0.1771240234375,-0.20025634765625,0.8116455078125,-0.0732421875,-0.9326171875,0.396484375,0.875,0.625,0.875
0.8600000000000007,-2.0,-2.0,3.0,-2.0,-5.0,-4.0,-10.0,-4.0,-0.5194091796875,0.1771240234375,-0.20025634765625,0.8116455078125,-0.0732421875,-0.9326171875,0.396484375,0.875,0.625,0.875
0.8650000000000007,-2.0,-2.0,3.0,-2.0,-5.0,-4.0,-10.0,-4.0,-0.5194091796875,0.1771240234375,-0.20025634765625,0.8116455078125,-0.0732421875,-0.9326171875,0.396484375,0.875,0.625,0.875
0.8700000000000007,0.0,-3.0,-4.0,-11.0,0.0,1.0,-2.0,-1.0,-0.5194091796875,0.1771240234375,-0.20025634765625,0.8116455078125,-0.0791015625,-0.92626953125,0.3974609375,-0.4375,0.6875,0.6875
0.8750000000000007,0.0,-3.0,-4.0,-11.0,0.0,1.0,-2.0,-1.0,-0.5194091796875,0.1771240234375,-0.20025634765625,0.8116455078125,-0.0791015625,-0.92626953125,0.3974609375,-0.4375,0.6875,0.6875
0.8800000000000007,0.0,-3.0,-4.0,-11.0,0.0,1.0,-2.0,-1.0,-0.5194091796875,0.1771240234375,-0.20025634765625,0.8116455078125,-0.0791015625,-0.92626953125,0.3974609375,-0.4375,0.6875,0.6875
0.8850000000000007,0.0,-3.0,-4.0,-11.0,0.0,1.0,-2.0,-1.0,-0.5194091796875,0.1771240234375,-0.20025634765625,0.8116455078125,-0.0791015625,-0.92626953125,0.3974609375,-0.4375,0.6875,0.6875
0.8900000000000007,-1.0,-1.0,3.0,7.0,1.0,1.0,5.0,3.0,-0.5194091796875,0.1771240234375,-0.20025634765625,0.8116455078125,-0.0791015625,-0.92626953125,0.3974609375,-0.4375,0.6875,0.6875
0.8950000000000007,-1.0,-1.0,0.0,4.0,0.0,-4.0,-9.0,-4.0,-0.5196533203125,0.17730712890625,-0.20025634765625,0.81146240234375,-0.068359375,-0.93115234375,0.39990234375,-1.5,1.125,0.9375
0.9000000000000007,-1.0,-1.0,0.0,4.0,0.0,-4.0,-9.0,-4.0,-0.5196533203125,0.17730712890625,-0.20025634765625,0.81146240234375,-0.068359375,-0.93115234375,0.39990234375,-1.5,1.125,0.9375
0.9050000000000007,-1.0,-1.0,0.0,4.0,0.0,-4.0,-9.0,-4.0,-0.5196533203125,0.17730712890625,-0.20025634765625,0.81146240234375,-0.068359375,-0.93115234375,0.39990234375,-1.5,1.125,0.9375
0.9100000000000007,-2.0,-2.0,-6.0,-7.0,-1.0,1.0,-1.0,-1.0,-0.5196533203125,0.17730712890625,-0.20025634765625,0.81146240234375,-0.068359375,-0.93115234375,0.39990234375,-1.5,1.125,0.9375
0.9150000000000007,-2.0,-2.0,-6.0,-7.0,-1.0,1.0,-1.0,-1.0,-0.51971435546875,0.177490234375,-0.20025634765625,0.81134033203125,-0.072265625,-0.94140625,0.4033203125,-0.75,1.25,0.8125
0.9200000000000007,-2.0,0.0,0.0,-2.0,-3.0,-1.0,7.0,3.0,-0.51971435546875,0.177490234375,-0.20025634765625,0.81134033203125,-0.072265625,-0.94140625,0.4033203125,-0.75,1.25,0.8125
0.9250000000000007,-2.0,0.0,0.0,-2.0,-3.0,-1.0,7.0,3.0,-0.51971435546875,0.177490234375,-0.20025634765625,0.81134033203125,-0.072265625,-0.94140625,0.4033203125,-0.75,1.25,0.8125
0.9300000000000007,-1.0,-1.0,-4.0,-5.0,-2.0,-2.0,-2.0,-2.0,-0.51971435546875,0.177490234375,-0.20025634765625,0.81134033203125,-0.072265625,-0.94140625,0.4033203125,-0.75,1.25,0.8125
0.9350000000000007,-1.0,-1.0,-4.0,-5.0,-2.0,-2.0,-2.0,-2.0,-0.51971435546875,0.177490234375,-0.20025634765625,0.81134033203125,-0.072265625,-0.94140625,0.4033203125,-0.75,1.25,0.8125
0.9400000000000007,-2.0,-2.0,-4.0,-3.0,-1.0,-1.0,-7.0,-3.0,-0.51959228515625,0.1776123046875,-0.2003173828125,0.81134033203125,-0.07275390625,-0.93798828125,0.41064453125,0.375,1.1875,0.875
0.9450000000000007,-1.0,-1.0,-5.0,-9.0,-4.0,-2.0,-5.0,-2.0,-0.51959228515625,0.1776123046875,-0.2003173828125,0.81134033203125,-0.07275390625,-0.93798828125,0.41064453125,0.375,1.1875,0.875
0.9500000000000007,-1.0,-1.0,-5.0,-9.0,-4.0,-2.0,-5.0,-2.0,-0.51959228515625,0.1776123046875,-0.2003173828125,0.81134033203125,-0.07275390625,-0.93798828125,0.41064453125,0.375,1.1875,0.875
0.9550000000000007,-1.0,-1.0,-5.0,-9.0,-4.0,-2.0,-5.0,-2.0,-0.51959228515625,0.1776123046875,-0.2003173828125,0.81134033203125,-0.07275390625,-0.93798828125,0.41064453125,0.375,1.1875,0.875
0.9600000000000007,0.0,-2.0,-6.0,-6.0,1.0,0.0,0.0,0.0,-0.51959228515625,0.177734375,-0.200439453125,0.81134033203125,-0.072265625,-0.9267578125,0.404296875,-0.0625,1.0,0.4375
0.9650000000000007,0.0,-2.0,-6.0,-6.0,1.0,0.0,0.0,0.0,-0.51959228515625,0.177734375,-0.200439453125,0.81134033203125,-0.072265625,-0.9267578125,0.404296875,-0.0625,1.0,0.4375
0.9700000000000008,0.0,-2.0,-2.0,3.0,-1.0,0.0,8.0,4.0,-0.51959228515625,0.177734375,-0.200439453125,0.81134033203125,-0.072265625,-0.9267578125,0.404296875,-0.0625,1.0,0.4375
0.9750000000000008,0.0,-2.0,-2.0,3.0,-1.0,0.0,8.0,4.0,-0.51959228515625,0.177734375,-0.200439453125,0.81134033203125,-0.072265625,-0.9267578125,0.404296875,-0.0625,1.0,0.4375
0.9800000000000008,0.0,0.0,4.0,6.0,3.0,1.0,-7.0,-2.0,-0.5198974609375,0.1778564453125,-0.20037841796875,0.8111572265625,-0.0771484375,-0.93115234375,0.39306640625,-1.6875,0.5,0.4375
0.9850000000000008,0.0,0.0,4.0,6.0,3.0,1.0,-7.0,-2.0,-0.5198974609375,0.1778564453125,-0.20037841796875,0.8111572265625,-0.0771484375,-0.93115234375,0.39306640625,-1.6875,0.5,0.4375
0.9900000000000008,0.0,0.0,4.0,6.0,3.0,1.0,-7.0,-2.0,-0.5198974609375,0.1778564453125,-0.20037841796875,0.8111572265625,-0.0771484375,-0.93115234375,0.39306640625,-1.6875,0.5,0.4375
0.9950000000000008,-2.0,-2.0,-5.0,-3.0,-3.0,0.0,8.0,2.0,-0.5198974609375,0.1778564453125,-0.20037841796875,0.8111572265625,-0.0771484375,-0.93115234375,0.39306640625,-1.6875,0.5,0.4375
1.0000000000000007,-2.0,-2.0,-8.0,-10.0,-5.0,-3.0,0.0,0.0,-0.5201416015625,0.17803955078125,-0.20025634765625,0.81097412109375,-0.083984375,-0.92919921875,0.3974609375,-2.0,0.3125,0.375
1.0050000000000006,-2.0,-2.0,-8.0,-10.0,-5.0,-3.0,0.0,0.0,-0.5201416015625,0.17803955078125,-0.20025634765625,0.81097412109375,-0.083984375,-0.92919921875,0.3974609375,-2.0,0.3125,0.375
1.0100000000000005,-2.0,-2.0,-8.0,-10.0,-5.0,-3.0,0.0,0.0,-0.5201416015625,0.17803955078125,-0.20025634765625,0.81097412109375,-0.083984375,-0.92919921875,0.3974609375,-2.0,0.3125,0.375
1.0150000000000003,0.0,-1.0,-3.0,1.0,0.0,-1.0,2.0,1.0,-0.5201416015625,0.17803955078125,-0.20025634765625,0.81097412109375,-0.083984375,-0.92919921875,0.3974609375,-2.0,0.3125,0.375
1.0200000000000002,0.0,-1.0,-3.0,1.0,0.0,-1.0,2.0,1.0,-0.5201416015625,0.17803955078125,-0.20025634765625,0.81097412109375,-0.083984375,-0.92919921875,0.3974609375,-2.0,0.3125,0.375
1.0250000000000001,-2.0,1.0,-2.0,-4.0,4.0,1.0,-1.0,2.0,-0.52044677734375,0.17816162109375,-0.20025634765625,0.81072998046875,-0.078125,-0.93408203125,0.39990234375,-2.0,0.5,0.0
1.03,-1.0,-1.0,0.0,2.0,-2.0,-2.0,-3.0,-4.0,-0.52044677734375,0.17816162109375,-0.20025634765625,0.81072998046875,-0.078125,-0.93408203125,0.39990234375,-2.0,0.5,0.0
1.035,-1.0,-1.0,0.0,2.0,-2.0,-2.0,-3.0,-4.0,-0.52044677734375,0.17816162109375,-0.20025634765625,0.81072998046875,-0.078125,-0.93408203125,0.39990234375,-2.0,0.5,0.0
1.0399999999999998,0.0,-3.0,-1.0,0.0,1.0,-1.0,1.0,-2.0,-0.52044677734375,0.17816162109375,-0.20025634765625,0.81072998046875,-0.078125,-0.93408203125,0.39990234375,-2.0,0.5,0.0
1.0449999999999997,0.0,-3.0,-1.0,0.0,1.0,-1.0,1.0,-2.0,-0.52044677734375,0.17816162109375,-0.20025634765625,0.81072998046875,-0.08203125,-0.93505859375,0.392578125,-0.75,0.6875,-0.25
1.0499999999999996,-2.0,1.0,-1.0,3.0,0.0,-1.0,-12.0,-1.0,-0.52044677734375,0.17816162109375,-0.20025634765625,0.81072998046875,-0.08203125,-0.93505859375,0.392578125,-0.75,0.6875,-0.25
1.0549999999999995,-2.0,1.0,-1.0,3.0,0.0,-1.0,-12.0,-1.0,-0.52044677734375,0.17816162109375,-0.20025634765625,0.81072998046875,-0.08203125,-0.93505859375,0.392578125,-0.75,0.6875,-0.25
1.0599999999999994,-2.0,1.0,-1.0,3.0,0.0,-1.0,-12.0,-1.0,-0.52044677734375,0.17816162109375,-0.20025634765625,0.81072998046875,-0.08203125,-0.93505859375,0.392578125,-0.75,0.6875,-0.25
1.0649999999999993,-1.0,-2.0,-5.0,-2.0,0.0,-3.0,-14.0,-7.0,-0.5205078125,0.17816162109375,-0.20025634765625,0.8106689453125,-0.078125,-0.93896484375,0.390625,0.1875,0.625,-0.5
1.0699999999999992,-1.0,-2.0,-5.0,-2.0,0.0,-3.0,-14.0,-7.0,-0.5205078125,0.17816162109375,-0.20025634765625,0.8106689453125,-0.078125,-0.93896484375,0.390625,0.1875,0.625,-0.5
1.074999999999999,-1.0,-2.0,-5.0,-2.0,0.0,-3.0,-14.0,-7.0,-0.5205078125,0.17816162109375,-0.20025634765625,0.8106689453125,-0.078125,-0.93896484375,0.390625,0.1875,0.625,-0.5
1.079999999999999,-1.0,0.0,0.0,0.0,1.0,0.0,-4.0,-1.0,-0.5205078125,0.17816162109375,-0.20025634765625,0.8106689453125,-0.078125,-0.93896484375,0.390625,0.1875,0.625,-0.5
1.0849999999999989,-1.0,0.0,0.0,0.0,1.0,0.0,-4.0,-1.0,-0.5205078125,0.17816162109375,-0.20025634765625,0.8106689453125,-0.078125,-0.93896484375,0.390625,0.1875,0.625,-0.5
1.0899999999999987,-3.0,-2.0,4.0,-2.0,-3.0,-3.0,-1.0,-3.0,-0.5205078125,0.17816162109375,-0.20025634765625,0.8106689453125,-0.07275390625,-0.93115234375,0.39599609375,-0.1875,0.25,-0.625
1.0949999999999986,-3.0,-2.0,4.0,-2.0,-3.0,-3.0,-1.0,-3.0,-0.5205078125,0.17816162109375,-0.20025634765625,0.8106689453125,-0.07275390625,-0.93115234375,0.39599609375,-0.1875,0.25,-0.625
1.0999999999999985,-3.0,-2.0,4.0,-2.0,-3.0,-3.0,-1.0,-3.0,-0.5205078125,0.17816162109375,-0.20025634765625,0.8106689453125,-0.07275390625,-0.93115234375,0.39599609375,-0.1875,0.25,-0.625
1.1049999999999984,-1.0,-2.0,-3.0,-1.0,1.0,-1.0,-2.0,-1.0,-0.5205078125,0.17816162109375,-0.20025634765625,0.8106689453125,-0.07275390625,-0.93115234375,0.39599609375,-0.1875,0.25,-0.625
1.1099999999999983,-1.0,-2.0,-3.0,-1.0,1.0,-1.0,-2.0,-1.0,-0.5205078125,0.17816162109375,-0.20025634765625,0.8106689453125,-0.07275390625,-0.93115234375,0.39599609375,-0.1875,0.25,-0.625
1.1149999999999982,-1.0,-2.0,-3.0,-1.0,1.0,-1.0,-2.0,-1.0,-0.5205078125,0.17816162109375,-0.20025634765625,0.8106689453125,-0.07275390625,-0.93115234375,0.39599609375,-0.1875,0.25,-0.625
1.119999999999998,-1.0,-2.0,-3.0,-1.0,1.0,-1.0,-2.0,-1.0,-0.5205078125,0.17816162109375,-0.20025634765625,0.8106689453125,-0.07275390625,-0.93115234375,0.39599609375,-0.1875,0.25,-0.625
1.124999999999998,-1.0,-2.0,-3.0,-1.0,1.0,-1.0,-2.0,-1.0,-0.5205078125,0.17816162109375,-0.20025634765625,0.8106689453125,-0.0771484375,-0.93212890625,0.3974609375,-0.3125,-0.0625,-0.5625
1.129999999999998,-1.0,-2.0,1.0,1.0,-3.0,-1.0,-3.0,-2.0,-0.5205078125,0.17816162109375,-0.20025634765625,0.8106689453125,-0.0771484375,-0.93212890625,0.3974609375,-0.3125,-0.0625,-0.5625
1.1349999999999978,-1.0,1.0,4.0,1.0,0.0,2.0,9.0,3.0,-0.52056884765625,0.17816162109375,-0.20025634765625,0.8106689453125,-0.07568359375,-0.9404296875,0.39697265625,-0.5625,-0.5,-0.25
1.1399999999999977,-1.0,1.0,4.0,1.0,0.0,2.0,9.0,3.0,-0.52056884765625,0.17816162109375,-0.20025634765625,0.8106689453125,-0.07568359375,-0.9404296875,0.39697265625,-0.5625,-0.5,-0.25
1.1449999999999976,-1.0,1.0,4.0,1.0,0.0,2.0,9.0,3.0,-0.52056884765625,0.17816162109375,-0.20025634765625,0.8106689453125,-0.07568359375,-0.9404296875,0.39697265625,-0.5625,-0.5,-0.25
1.1499999999999975,-3.0,-4.0,-5.0,-10.0,-3.0,-4.0,-11.0,-5.0,-0.52056884765625,0.17816162109375,-0.20025634765625,0.8106689453125,-0.07568359375,-0.9404296875,0.39697265625,-0.5625,-0.5,-0.25
1.1549999999999974,-3.0,-4.0,-5.0,-10.0,-3.0,-4.0,-11.0,-5.0,-0.52056884765625,0.17816162109375,-0.20025634765625,0.8106689453125,-0.07568359375,-0.9404296875,0.39697265625,-0.5625,-0.5,-0.25
1.1599999999999973,-1.0,-1.0,-2.0,0.0,-1.0,-2.0,-2.0,-2.0,-0.52056884765625,0.1781005859375,-0.2003173828125,0.8106689453125,-0.07470703125,-0.947265625,0.40185546875,0.25,-0.8125,-0.375
1.1649999999999971,-1.0,-1.0,-2.0,0.0,-1.0,-2.0,-2.0,-2.0,-0.52056884765625,0.1781005859375,-0.2003173828125,0.8106689453125,-0.07470703125,-0.947265625,0.40185546875,0.25,-0.8125,-0.375
1.169999999999997,-1.0,-1.0,-2.0,0.0,-1.0,-2.0,-2.0,-2.0,-0.52056884765625,0.1781005859375,-0.2003173828125,0.8106689453125,-0.07470703125,-0.947265625,0.40185546875,0.25,-0.8125,-0.375
1.174999999999997,-1.0,0.0,3.0,6.0,-1.0,-5.0,-4.0,-4.0,-0.52056884765625,0.1781005859375,-0.2003173828125,0.8106689453125,-0.07470703125,-0.947265625,0.40185546875,0.25,-0.8125,-0.375
1.1799999999999968,-1.0,0.0,3.0,6.0,-1.0,-5.0,-4.0,-4.0,-0.52056884765625,0.1781005859375,-0.2003173828125,0.8106689453125,-0.07470703125,-0.947265625,0.40185546875,0.25,-0.8125,-0.375
1.1849999999999967,0.0,-1.0,3.0,2.0,-3.0,0.0,6.0,1.0,-0.52044677734375,0.1778564453125,-0.20037841796875,0.81072998046875,-0.07666015625,-0.939453125,0.39794921875,1.4375,-0.6875,-0.6875
1.1899999999999966,0.0,-1.0,3.0,2.0,-3.0,0.0,6.0,1.0,-0.52044677734375,0.1778564453125,-0.20037841796875,0.81072998046875,-0.07666015625,-0.939453125,0.39794921875,1.4375,-0.6875,-0.6875
1.1949999999999965,0.0,-1.0,3.0,2.0,-3.0,0.0,6.0,1.0,-0.52044677734375,0.1778564453125,-0.20037841796875,0.81072998046875,-0.07666015625,-0.939453125,0.39794921875,1.4375,-0.6875,-0.6875
1.1999999999999964,0.0,-1.0,3.0,2.0,-3.0,0.0,6.0,1.0,-0.52044677734375,0.1778564453125,-0.20037841796875,0.81072998046875,-0.07666015625,-0.939453125,0.39794921875,1.4375,-0.6875,-0.6875
1.2049999999999963,1.0,0.0,-8.0,-5.0,-6.0,0.0,19.0,1.0,-0.52032470703125,0.17767333984375,-0.20050048828125,0.81085205078125,-0.07568359375,-0.92431640625,0.4033203125,1.25,-0.625,-0.5625
1.2099999999999962,1.0,0.0,-8.0,-5.0,-6.0,0.0,19.0,1.0,-0.52032470703125,0.17767333984375,-0.20050048828125,0.81085205078125,-0.07568359375,-0.92431640625,0.4033203125,1.25,-0.625,-0.5625
1.214999999999996,1.0,0.0,-8.0,-5.0,-6.0,0.0,19.0,1.0,-0.52032470703125,0.17767333984375,-0.20050048828125,0.81085205078125,-0.07568359375,-0.92431640625,0.4033203125,1.25,-0.625,-0.5625
1.219999999999996,0.0,0.0,-3.0,-6.0,-1.0,3.0,12.0,3.0,-0.52032470703125,0.17767333984375,-0.20050048828125,0.81085205078125,-0.07568359375,-0.92431640625,0.4033203125,1.25,-0.625,-0.5625
1.2249999999999959,0.0,-1.0,-3.0,-5.0,0.0,1.0,-7.0,-2.0,-0.52032470703125,0.1776123046875,-0.20050048828125,0.81085205078125,-0.0703125,-0.93408203125,0.3994140625,-0.625,-0.25,-0.0625
1.2299999999999958,0.0,-1.0,-3.0,-5.0,0.0,1.0,-7.0,-2.0,-0.52032470703125,0.1776123046875,-0.20050048828125,0.81085205078125,-0.0703125,-0.93408203125,0.3994140625,-0.625,-0.25,-0.0625
1.2349999999999957,0.0,-1.0,-3.0,-5.0,0.0,1.0,-7.0,-2.0,-0.52032470703125,0.1776123046875,-0.20050048828125,0.81085205078125,-0.0703125,-0.93408203125,0.3994140625,-0.625,-0.25,-0.0625
1.2399999999999956,-2.0,-1.0,0.0,2.0,-4.0,-2.0,-1.0,-1.0,-0.52032470703125,0.1776123046875,-0.20050048828125,0.81085205078125,-0.0703125,-0.93408203125,0.3994140625,-0.625,-0.25,-0.0625
1.2449999999999954,-2.0,-1.0,0.0,2.0,-4.0,-2.0,-1.0,-1.0,-0.52032470703125,0.1776123046875,-0.20050048828125,0.81085205078125,-0.0703125,-0.93408203125,0.3994140625,-0.625,-0.25,-0.0625
1.2499999999999953,2.0,0.0,-3.0,-3.0,0.0,-3.0,-6.0,0.0,-0.52056884765625,0.17755126953125,-0.20050048828125,0.81072998046875,-0.07080078125,-0.9443359375,0.4013671875,-1.125,-0.125,0.1875
1.2549999999999952,2.0,0.0,-3.0,-3.0,0.0,-3.0,-6.0,0.0,-0.52056884765625,0.17755126953125,-0.20050048828125,0.81072998046875,-0.07080078125,-0.9443359375,0.4013671875,-1.125,-0.125,0.1875
1.2599999999999951,2.0,0.0,-3.0,-3.0,0.0,-3.0,-6.0,0.0,-0.52056884765625,0.17755126953125,-0.20050048828125,0.81072998046875,-0.07080078125,-0.9443359375,0.4013671875,-1.125,-0.125,0.1875
1.264999999999995,0.0,1.0,-1.0,-2.0,1.0,0.0,-6.0,-4.0,-0.52056884765625,0.17755126953125,-0.20050048828125,0.81072998046875,-0.07080078125,-0.9443359375,0.4013671875,-1.125,-0.125,0.1875
1.269999999999995,-1.0,0.0,-3.0,0.0,-1.0,-1.0,1.0,1.0,-0.52056884765625,0.17755126953125,-0.20050048828125,0.81072998046875,-0.0732421875,-0.939453125,0.3994140625,-0.625,0.0,0.0625
1.2749999999999948,-1.0,0.0,0.0,-3.0,0.0,-1.0,-7.0,-3.0,-0.52056884765625,0.17755126953125,-0.20050048828125,0.81072998046875,-0.0732421875,-0.939453125,0.3994140625,-0.625,0.0,0.0625
1.2799999999999947,-1.0,0.0,0.0,-3.0,0.0,-1.0,-7.0,-3.0,-0.52056884765625,0.17755126953125,-0.20050048828125,0.81072998046875,-0.0732421875,-0.939453125,0.3994140625,-0.625,0.0,0.0625
1.2849999999999946,-1.0,0.0,0.0,-3.0,0.0,-1.0,-7.0,-3.0,-0.52056884765625,0.17755126953125,-0.2005615234375,0.81072998046875,-0.07177734375,-0.9345703125,0.40185546875,0.25,0.0625,0.3125
1.2899999999999945,-1.0,0.0,2.0,-3.0,-2.0,-1.0,-3.0,-1.0,-0.52056884765625,0.17755126953125,-0.2005615234375,0.81072998046875,-0.07177734375,-0.9345703125,0.40185546875,0.25,0.0625,0.3125
1.2949999999999944,-1.0,0.0,2.0,-3.0,-2.0,-1.0,-3.0,-1.0,-0.52056884765625,0.17755126953125,-0.2005615234375,0.81072998046875,-0.07177734375,-0.9345703125,0.40185546875,0.25,0.0625,0.3125
1.2999999999999943,-1.0,0.0,2.0,-3.0,-2.0,-1.0,-3.0,-1.0,-0.52056884765625,0.17755126953125,-0.2005615234375,0.81072998046875,-0.07177734375,-0.9345703125,0.40185546875,0.25,0.0625,0.3125
1.3049999999999942,-2.0,-2.0,-2.0,-3.0,1.0,-2.0,-17.0,-3.0,-0.52056884765625,0.17755126953125,-0.2005615234375,0.81072998046875,-0.07177734375,-0.9345703125,0.40185546875,0.25,0.0625,0.3125
1.309999999999994,-2.0,-2.0,-2.0,-3.0,1.0,-2.0,-17.0,-3.0,-0.52056884765625,0.17755126953125,-0.2005615234375,0.81072998046875,-0.07177734375,-0.9345703125,0.40185546875,0.25,0.0625,0.3125
1.314999999999994,0.0,-1.0,4.0,2.0,-1.0,-1.0,-7.0,-2.0,-0.5206298828125,0.177490234375,-0.2005615234375,0.8106689453125,-0.06884765625,-0.9345703125,0.392578125,0.125,0.0625,0.5625
1.3199999999999938,0.0,-1.0,4.0,2.0,-1.0,-1.0,-7.0,-2.0,-0.5206298828125,0.177490234375,-0.2005615234375,0.8106689453125,-0.06884765625,-0.9345703125,0.392578125,0.125,0.0625,0.5625
1.3249999999999937,0.0,-1.0,4.0,2.0,-1.0,-1.0,-7.0,-2.0,-0.5206298828125,0.177490234375,-0.2005615234375,0.8106689453125,-0.06884765625,-0.9345703125,0.392578125,0.125,0.0625,0.5625
1.3299999999999936,0.0,-1.0,4.0,2.0,-1.0,-1.0,-7.0,-2.0,-0.5206298828125,0.177490234375,-0.2005615234375,0.8106689453125,-0.06884765625,-0.9345703125,0.392578125,0.125,0.0625,0.5625
1.3349999999999935,0.0,-1.0,-5.0,-8.0,-3.0,-2.0,3.0,-3.0,-0.5206298828125,0.177490234375,-0.2005615234375,0.8106689453125,-0.0703125,-0.9404296875,0.39697265625,0.25,-0.375,0.6875
1.3399999999999934,-1.0,-2.0,2.0,0.0,-2.0,-2.0,7.0,1.0,-0.5206298828125,0.177490234375,-0.2005615234375,0.8106689453125,-0.0703125,-0.9404296875,0.39697265625,0.25,-0.375,0.6875
1.3449999999999933,-1.0,-2.0,2.0,0.0,-2.0,-2.0,7.0,1.0,-0.5206298828125,0.177490234375,-0.2005615234375,0.8106689453125,-0.0703125,-0.9404296875,0.39697265625,0.25,-0.375,0.6875
1.3499999999999932,-1.0,-2.0,2.0,0.0,-2.0,-2.0,7.0,1.0,-0.5206298828125,0.177490234375,-0.2005615234375,0.8106689453125,-0.0703125,-0.9404296875,0.39697265625,0.25,-0.375,0.6875
1.354999999999993,-1.0,-1.0,-1.0,-5.0,-1.0,1.0,-2.0,2.0,-0.5206298828125,0.177490234375,-0.2005615234375,0.8106689453125,-0.0703125,-0.9404296875,0.39697265625,0.25,-0.375,0.6875
1.359999999999993,-1.0,-1.0,-1.0,-5.0,-1.0,1.0,-2.0,2.0,-0.5206298828125,0.177490234375,-0.2005615234375,0.8106689453125,-0.0703125,-0.9404296875,0.39697265625,0.25,-0.375,0.6875
1.3649999999999929,-3.0,-1.0,3.0,6.0,-3.0,-5.0,-10.0,-3.0,-0.5206298828125,0.177490234375,-0.2005615234375,0.8106689453125,-0.0712890625,-0.93798828125,0.3984375,0.3125,0.0,0.5
1.3699999999999928,-3.0,-1.0,3.0,6.0,-3.0,-5.0,-10.0,-3.0,-0.5206298828125,0.177490234375,-0.2005615234375,0.8106689453125,-0.0712890625,-0.93798828125,0.3984375,0.3125,0.0,0.5
1.3749999999999927,-3.0,-1.0,3.0,6.0,-3.0,-5.0,-10.0,-3.0,-0.5206298828125,0.177490234375,-0.2005615234375,0.8106689453125,-0.0712890625,-0.93798828125,0.3984375,0.3125,0.0,0.5
1.3799999999999926,-2.0,-3.0,-8.0,-12.0,-3.0,-1.0,2.0,0.0,-0.5206298828125,0.177490234375,-0.2005615234375,0.8106689453125,-0.0712890625,-0.93798828125,0.3984375,0.3125,0.0,0.5
1.3849999999999925,-2.0,-3.0,-8.0,-12.0,-3.0,-1.0,2.0,0.0,-0.5206298828125,0.177490234375,-0.2005615234375,0.8106689453125,-0.0712890625,-0.93798828125,0.3984375,0.3125,0.0,0.5
1.3899999999999924,-2.0,-3.0,-8.0,-12.0,-3.0,-1.0,2.0,0.0,-0.52069091796875,0.177490234375,-0.2005615234375,0.8106689453125,-0.072265625,-0.93310546875,0.39306640625,0.375,0.0625,0.3125
1.3949999999999922,-2.0,-3.0,-8.0,-12.0,-3.0,-1.0,2.0,0.0,-0.52069091796875,0.177490234375,-0.2005615234375,0.8106689453125,-0.072265625,-0.93310546875,0.39306640625,0.375,0.0625,0.3125
1.3999999999999921,-1.0,-3.0,-4.0,-6.0,-1.0,3.0,19.0,4.0,-0.52069091796875,0.177490234375,-0.2005615234375,0.8106689453125,-0.072265625,-0.93310546875,0.39306640625,0.375,0.0625,0.3125
1.404999999999992,-1.0,-3.0,-4.0,-6.0,-1.0,3.0,19.0,4.0,-0.52069091796875,0.177490234375,-0.2005615234375,0.8106689453125,-0.072265625,-0.93310546875,0.39306640625,0.375,0.0625,0.3125
1.409999999999992,-2.0,-2.0,1.0,-4.0,-2.0,-4.0,1.0,-1.0,-0.52069091796875,0.17742919921875,-0.20062255859375,0.81060791015625,-0.0732421875,-0.93603515625,0.39599609375,0.1875,0.0,0.6875
1.4149999999999918,-2.0,-2.0,1.0,-4.0,-2.0,-4.0,1.0,-1.0,-0.52069091796875,0.17742919921875,-0.20062255859375,0.81060791015625,-0.0732421875,-0.93603515625,0.39599609375,0.1875,0.0,0.6875
1.4199999999999917,-2.0,-3.0,-2.0,-6.0,1.0,0.0,-2.0,-1.0,-0.52069091796875,0.17742919921875,-0.20062255859375,0.81060791015625,-0.0732421875,-0.93603515625,0.39599609375,0.1875,0.0,0.6875
1.4249999999999916,-2.0,-3.0,-2.0,-6.0,1.0,0.0,-2.0,-1.0,-0.52069091796875,0.17742919921875,-0.20062255859375,0.81060791015625,-0.0732421875,-0.93603515625,0.39599609375,0.1875,0.0,0.6875
1.4299999999999915,-1.0,-1.0,-3.0,5.0,-1.0,-2.0,6.0,-2.0,-0.52069091796875,0.17742919921875,-0.20062255859375,0.81060791015625,-0.0732421875,-0.93603515625,0.39599609375,0.1875,0.0,0.6875
1.4349999999999914,0.0,-1.0,-3.0,-5.0,1.0,0.0,8.0,1.0,-0.52069091796875,0.17742919921875,-0.20062255859375,0.81060791015625,-0.0732421875,-0.93603515625,0.39599609375,0.1875,0.0,0.6875
1.4399999999999913,-3.0,-3.0,-1.0,-6.0,-3.0,-3.0,-6.0,-3.0,-0.52069091796875,0.177490234375,-0.20050048828125,0.8106689453125,-0.07373046875,-0.93603515625,0.39794921875,0.375,-0.0625,1.0625
1.4449999999999912,1.0,0.0,-3.0,-4.0,-1.0,-1.0,-3.0,1.0,-0.52069091796875,0.177490234375,-0.20050048828125,0.8106689453125,-0.07373046875,-0.93603515625,0.39794921875,0.375,-0.0625,1.0625
1.449999999999991,1.0,0.0,-3.0,-4.0,-1.0,-1.0,-3.0,1.0,-0.52069091796875,0.177490234375,-0.20050048828125,0.8106689453125,-0.07373046875,-0.93603515625,0.39794921875,0.375,-0.0625,1.0625
1.454999999999991,1.0,0.0,-3.0,-4.0,-1.0,-1.0,-3.0,1.0,-0.52069091796875,0.177490234375,-0.20050048828125,0.8106689453125,-0.07373046875,-0.93603515625,0.39794921875,0.375,-0.0625,1.0625
1.4599999999999909,-1.0,1.0,-3.0,-1.0,1.0,1.0,-1.0,0.0,-0.52069091796875,0.177490234375,-0.20050048828125,0.8106689453125,-0.07373046875,-0.93603515625,0.39794921875,0.375,-0.0625,1.0625
1.4649999999999908,-3.0,-2.0,-2.0,-2.0,-3.0,-4.0,-9.0,-6.0,-0.52069091796875,0.177490234375,-0.20050048828125,0.8106689453125,-0.0810546875,-0.94091796875,0.39453125,0.25,0.375,0.8125
1.4699999999999906,-3.0,-2.0,-2.0,-2.0,-3.0,-4.0,-9.0,-6.0,-0.52069091796875,0.177490234375,-0.20050048828125,0.8106689453125,-0.0810546875,-0.94091796875,0.39453125,0.25,0.375,0.8125
1.4749999999999905,-3.0,-2.0,-2.0,-2.0,-3.0,-4.0,-9.0,-6.0,-0.52069091796875,0.177490234375,-0.20050048828125,0.8106689453125,-0.0810546875,-0.94091796875,0.39453125,0.25,0.375,0.8125
1.4799999999999904,-3.0,-2.0,-2.0,-2.0,-3.0,-4.0,-9.0,-6.0,-0.52069091796875,0.177490234375,-0.20050048828125,0.8106689453125,-0.0810546875,-0.94091796875,0.39453125,0.25,0.375,0.8125
1.4849999999999903,-3.0,-2.0,-4.0,-5.0,-4.0,-3.0,-5.0,-2.0,-0.52069091796875,0.177490234375,-0.20050048828125,0.8106689453125,-0.07666015625,-0.93603515625,0.40087890625,0.9375,0.3125,0.25
1.4899999999999902,0.0,0.0,-2.0,-2.0,-3.0,0.0,4.0,1.0,-0.52069091796875,0.177490234375,-0.20050048828125,0.8106689453125,-0.07666015625,-0.93603515625,0.40087890625,0.9375,0.3125,0.25
1.4949999999999901,0.0,0.0,-2.0,-2.0,-3.0,0.0,4.0,1.0,-0.52069091796875,0.177490234375,-0.20050048828125,0.8106689453125,-0.07666015625,-0.93603515625,0.40087890625,0.9375,0.3125,0.25
1.49999999999999,0.0,0.0,-2.0,-2.0,-3.0,0.0,4.0,1.0,-0.52069091796875,0.177490234375,-0.20050048828125,0.8106689453125,-0.07666015625,-0.93603515625,0.40087890625,0.9375,0.3125,0.25
1.50499999999999,0.0,0.0,-2.0,-2.0,-3.0,0.0,4.0,1.0,-0.52069091796875,0.177490234375,-0.20050048828125,0.8106689453125,-0.07666015625,-0.93603515625,0.40087890625,0.9375,0.3125,0.25
1.5099999999999898,-3.0,1.0,1.0,3.0,-2.0,-2.0,-2.0,-2.0,-0.520751953125,0.177490234375,-0.20050048828125,0.81060791015625,-0.0732421875,-0.92919921875,0.39453125,0.5,0.25,0.4375
1.5149999999999897,-3.0,1.0,1.0,3.0,-2.0,-2.0,-2.0,-2.0,-0.520751953125,0.177490234375,-0.20050048828125,0.81060791015625,-0.0732421875,-0.92919921875,0.39453125,0.5,0.25,0.4375
1.5199999999999896,-2.0,-2.0,-1.0,0.0,-1.0,-4.0,-10.0,-2.0,-0.520751953125,0.177490234375,-0.20050048828125,0.81060791015625,-0.0732421875,-0.92919921875,0.39453125,0.5,0.25,0.4375
1.5249999999999895,-2.0,-2.0,-1.0,0.0,-1.0,-4.0,-10.0,-2.0,-0.520751953125,0.177490234375,-0.20050048828125,0.81060791015625,-0.0732421875,-0.92919921875,0.39453125,0.5,0.25,0.4375
1.5299999999999894,-1.0,-1.0,3.0,5.0,-3.0,-1.0,2.0,-1.0,-0.520751953125,0.177490234375,-0.20050048828125,0.81060791015625,-0.07568359375,-0.93505859375,0.39306640625,-0.3125,0.0,0.4375
1.5349999999999893,-1.0,-1.0,3.0,5.0,-3.0,-1.0,2.0,-1.0,-0.520751953125,0.177490234375,-0.20050048828125,0.81060791015625,-0.07568359375,-0.93505859375,0.39306640625,-0.3125,0.0,0.4375
1.5399999999999892,-1.0,-1.0,3.0,5.0,-3.0,-1.0,2.0,-1.0,-0.520751953125,0.177490234375,-0.20050048828125,0.81060791015625,-0.07568359375,-0.93505859375,0.39306640625,-0.3125,0.0,0.4375
1.544999999999989,0.0,-1.0,0.0,-1.0,-2.0,-1.0,1.0,0.0,-0.520751953125,0.17742919921875,-0.20050048828125,0.81060791015625,-0.07568359375,-0.9404296875,0.3984375,0.0625,-0.0625,0.75
1.549999999999989,-3.0,-2.0,-4.0,-5.0,-2.0,-4.0,-10.0,-4.0,-0.520751953125,0.17742919921875,-0.20050048828125,0.81060791015625,-0.07568359375,-0.9404296875,0.3984375,0.0625,-0.0625,0.75
1.5549999999999888,-3.0,-2.0,-4.0,-5.0,-2.0,-4.0,-10.0,-4.0,-0.520751953125,0.17742919921875,-0.20050048828125,0.81060791015625,-0.07568359375,-0.9404296875,0.3984375,0.0625,-0.0625,0.75
1.5599999999999887,-3.0,-2.0,-4.0,-5.0,-2.0,-4.0,-10.0,-4.0,-0.520751953125,0.17742919921875,-0.20050048828125,0.81060791015625,-0.07568359375,-0.9404296875,0.3984375,0.0625,-0.0625,0.75
1.5649999999999886,-3.0,-2.0,-4.0,-5.0,-2.0,-4.0,-10.0,-4.0,-0.520751953125,0.17742919921875,-0.20050048828125,0.81060791015625,-0.07568359375,-0.9404296875,0.3984375,0.0625,-0.0625,0.75
1.5699999999999885,1.0,1.0,-3.0,-6.0,3.0,-1.0,-4.0,-1.0,-0.52056884765625,0.1773681640625,-0.20050048828125,0.81072998046875,-0.07373046875,-0.9306640625,0.39794921875,1.5625,-0.0625,0.5625
1.5749999999999884,1.0,1.0,-3.0,-6.0,3.0,-1.0,-4.0,-1.0,-0.52056884765625,0.1773681640625,-0.20050048828125,0.81072998046875,-0.07373046875,-0.9306640625,0.39794921875,1.5625,-0.0625,0.5625
1.5799999999999883,-2.0,2.0,-3.0,-2.0,0.0,0.0,-8.0,-3.0,-0.52056884765625,0.1773681640625,-0.20050048828125,0.81072998046875,-0.07373046875,-0.9306640625,0.39794921875,1.5625,-0.0625,0.5625
1.5849999999999882,-2.0,2.0,-3.0,-2.0,0.0,0.0,-8.0,-3.0,-0.52056884765625,0.1773681640625,-0.20050048828125,0.81072998046875,-0.07373046875,-0.9306640625,0.39794921875,1.5625,-0.0625,0.5625
1.589999999999988,-1.0,-2.0,-1.0,4.0,-1.0,0.0,-4.0,-3.0,-0.52044677734375,0.17724609375,-0.20050048828125,0.81085205078125,-0.07080078125,-0.92724609375,0.3974609375,1.1875,-0.3125,0.375
1.594999999999988,-1.0,-2.0,-1.0,4.0,-1.0,0.0,-4.0,-3.0,-0.52044677734375,0.17724609375,-0.20050048828125,0.81085205078125,-0.07080078125,-0.92724609375,0.3974609375,1.1875,-0.3125,0.375
1.5999999999999879,-1.0,-2.0,-1.0,4.0,-1.0,0.0,-4.0,-3.0,-0.52044677734375,0.17724609375,-0.20050048828125,0.81085205078125,-0.07080078125,-0.92724609375,0.3974609375,1.1875,-0.3125,0.375
1.6049999999999878,1.0,0.0,6.0,1.0,-3.0,-2.0,-9.0,-2.0,-0.52044677734375,0.17724609375,-0.20050048828125,0.81085205078125,-0.07080078125,-0.92724609375,0.3974609375,1.1875,-0.3125,0.375
1.6099999999999877,1.0,0.0,6.0,1.0,-3.0,-2.0,-9.0,-2.0,-0.52044677734375,0.17724609375,-0.2005615234375,0.81085205078125,-0.07080078125,-0.93408203125,0.39794921875,0.0,-0.25,0.5
1.6149999999999876,1.0,0.0,6.0,1.0,-3.0,-2.0,-9.0,-2.0,-0.52044677734375,0.17724609375,-0.2005615234375,0.81085205078125,-0.07080078125,-0.93408203125,0.39794921875,0.0,-0.25,0.5
1.6199999999999875,-1.0,-1.0,0.0,-2.0,-2.0,1.0,-1.0,-2.0,-0.52044677734375,0.17724609375,-0.2005615234375,0.81085205078125,-0.07080078125,-0.93408203125,0.39794921875,0.0,-0.25,0.5
1.6249999999999873,-1.0,-1.0,0.0,-2.0,-2.0,1.0,-1.0,-2.0,-0.52044677734375,0.17724609375,-0.2005615234375,0.81085205078125,-0.07080078125,-0.93408203125,0.39794921875,0.0,-0.25,0.5
1.6299999999999872,-1.0,-1.0,0.0,-2.0,-2.0,1.0,-1.0,-2.0,-0.52044677734375,0.17724609375,-0.2005615234375,0.81085205078125,-0.07080078125,-0.93408203125,0.39794921875,0.0,-0.25,0.5
1.6349999999999871,-2.0,-1.0,0.0,0.0,-1.0,-5.0,-9.0,-4.0,-0.52044677734375,0.17724609375,-0.2005615234375,0.81085205078125,-0.07080078125,-0.93408203125,0.39794921875,0.0,-0.25,0.5
1.639999999999987,0.0,0.0,-5.0,-10.0,0.0,-1.0,1.0,-1.0,-0.5205078125,0.17724609375,-0.2005615234375,0.81085205078125,-0.07470703125,-0.93994140625,0.396484375,0.5,-0.3125,0.4375
1.644999999999987,0.0,0.0,-5.0,-10.0,0.0,-1.0,1.0,-1.0,-0.5205078125,0.17724609375,-0.2005615234375,0.81085205078125,-0.07470703125,-0.93994140625,0.396484375,0.5,-0.3125,0.4375
1.6499999999999868,-2.0,-1.0,3.0,1.0,-6.0,-5.0,-5.0,-2.0,-0.5205078125,0.17724609375,-0.2005615234375,0.81085205078125,-0.07470703125,-0.93994140625,0.396484375,0.5,-0.3125,0.4375
1.6549999999999867,-2.0,-1.0,3.0,1.0,-6.0,-5.0,-5.0,-2.0,-0.5205078125,0.17724609375,-0.2005615234375,0.81085205078125,-0.07470703125,-0.93994140625,0.396484375,0.5,-0.3125,0.4375
1.6599999999999866,-1.0,-1.0,0.0,-5.0,-3.0,0.0,10.0,3.0,-0.5203857421875,0.1771240234375,-0.20050048828125,0.81097412109375,-0.07568359375,-0.93212890625,0.40087890625,1.125,-0.4375,0.5
1.6649999999999865,-1.0,-1.0,0.0,-5.0,-3.0,0.0,10.0,3.0,-0.5203857421875,0.1771240234375,-0.20050048828125,0.81097412109375,-0.07568359375,-0.93212890625,0.40087890625,1.125,-0.4375,0.5
1.6699999999999864,-1.0,-1.0,0.0,-5.0,-3.0,0.0,10.0,3.0,-0.5203857421875,0.1771240234375,-0.20050048828125,0.81097412109375,-0.07568359375,-0.93212890625,0.40087890625,1.125,-0.4375,0.5
1.6749999999999863,-1.0,-1.0,0.0,-5.0,-3.0,0.0,10.0,3.0,-0.5203857421875,0.1771240234375,-0.20050048828125,0.81097412109375,-0.07568359375,-0.93212890625,0.40087890625,1.125,-0.4375,0.5
1.6799999999999862,-1.0,0.0,-11.0,-17.0,1.0,2.0,1.0,-1.0,-0.5203857421875,0.1771240234375,-0.20050048828125,0.8109130859375,-0.07373046875,-0.9326171875,0.396484375,0.0,-0.5,0.4375
1.684999999999986,-1.0,0.0,-11.0,-17.0,1.0,2.0,1.0,-1.0,-0.5203857421875,0.1771240234375,-0.20050048828125,0.8109130859375,-0.07373046875,-0.9326171875,0.396484375,0.0,-0.5,0.4375
1.689999999999986,-1.0,-1.0,-2.0,5.0,0.0,-1.0,-9.0,-5.0,-0.5203857421875,0.1771240234375,-0.20050048828125,0.8109130859375,-0.07373046875,-0.9326171875,0.396484375,0.0,-0.5,0.4375
1.6949999999999859,-1.0,-1.0,-2.0,5.0,0.0,-1.0,-9.0,-5.0,-0.5203857421875,0.1771240234375,-0.20050048828125,0.8109130859375,-0.07373046875,-0.9326171875,0.396484375,0.0,-0.5,0.4375
1.6999999999999857,-1.0,-1.0,-2.0,5.0,0.0,-1.0,-9.0,-5.0,-0.5203857421875,0.1771240234375,-0.20050048828125,0.8109130859375,-0.07373046875,-0.9326171875,0.396484375,0.0,-0.5,0.4375
1.7049999999999856,-1.0,-1.0,-2.0,5.0,0.0,-1.0,-9.0,-5.0,-0.5203857421875,0.1771240234375,-0.20050048828125,0.8109130859375,-0.07373046875,-0.9326171875,0.396484375,0.0,-0.5,0.4375
1.7099999999999855,-1.0,-1.0,-2.0,5.0,0.0,-1.0,-9.0,-5.0,-0.5203857421875,0.1771240234375,-0.20050048828125,0.8109130859375,-0.07373046875,-0.9326171875,0.396484375,0.0,-0.5,0.4375
1.7149999999999854,-2.0,-1.0,-1.0,2.0,-2.0,0.0,4.0,0.0,-0.5203857421875,0.1771240234375,-0.20050048828125,0.8109130859375,-0.07568359375,-0.9423828125,0.4072265625,-0.0625,-0.5625,0.3125
1.7199999999999853,-2.0,-1.0,-1.0,2.0,-2.0,0.0,4.0,0.0,-0.5203857421875,0.1771240234375,-0.20050048828125,0.8109130859375,-0.07568359375,-0.9423828125,0.4072265625,-0.0625,-0.5625,0.3125
1.7249999999999852,0.0,-3.0,-4.0,-5.0,-2.0,-2.0,-4.0,-5.0,-0.5203857421875,0.1771240234375,-0.20050048828125,0.8109130859375,-0.07568359375,-0.9423828125,0.4072265625,-0.0625,-0.5625,0.3125
1.729999999999985,-1.0,-1.0,1.0,0.0,0.0,-1.0,-2.0,0.0,-0.5203857421875,0.1771240234375,-0.20050048828125,0.8109130859375,-0.07568359375,-0.9423828125,0.4072265625,-0.0625,-0.5625,0.3125
1.734999999999985,-3.0,-2.0,-5.0,-7.0,-4.0,-8.0,-14.0,-3.0,-0.520263671875,0.17694091796875,-0.20050048828125,0.81103515625,-0.07421875,-0.9443359375,0.40673828125,1.0625,-0.8125,0.125
1.739999999999985,-3.0,-2.0,-5.0,-7.0,-4.0,-8.0,-14.0,-3.0,-0.520263671875,0.17694091796875,-0.20050048828125,0.81103515625,-0.07421875,-0.9443359375,0.40673828125,1.0625,-0.8125,0.125
1.7449999999999848,-3.0,-2.0,-5.0,-7.0,-4.0,-8.0,-14.0,-3.0,-0.520263671875,0.17694091796875,-0.20050048828125,0.81103515625,-0.07421875,-0.9443359375,0.40673828125,1.0625,-0.8125,0.125
1.7499999999999847,-3.0,-2.0,-5.0,-7.0,-4.0,-8.0,-14.0,-3.0,-0.520263671875,0.17694091796875,-0.20050048828125,0.81103515625,-0.07421875,-0.9443359375,0.40673828125,1.0625,-0.8125,0.125
1.7549999999999846,0.0,0.0,2.0,7.0,2.0,-1.0,-11.0,-2.0,-0.52020263671875,0.17681884765625,-0.200439453125,0.81109619140625,-0.07763671875,-0.939453125,0.3955078125,1.25,-0.75,0.125
1.7599999999999845,0.0,0.0,2.0,7.0,2.0,-1.0,-11.0,-2.0,-0.52020263671875,0.17681884765625,-0.200439453125,0.81109619140625,-0.07763671875,-0.939453125,0.3955078125,1.25,-0.75,0.125
1.7649999999999844,0.0,0.0,2.0,7.0,2.0,-1.0,-11.0,-2.0,-0.52020263671875,0.17681884765625,-0.200439453125,0.81109619140625,-0.07763671875,-0.939453125,0.3955078125,1.25,-0.75,0.125
1.7699999999999843,0.0,0.0,2.0,7.0,2.0,-1.0,-11.0,-2.0,-0.52020263671875,0.17681884765625,-0.200439453125,0.81109619140625,-0.07763671875,-0.939453125,0.3955078125,1.25,-0.75,0.125
1.7749999999999841,1.0,1.0,-4.0,-1.0,1.0,0.0,10.0,3.0,-0.5201416015625,0.1767578125,-0.200439453125,0.8111572265625,-0.07275390625,-0.93017578125,0.392578125,1.3125,-0.125,0.25
1.779999999999984,1.0,1.0,-4.0,-1.0,1.0,0.0,10.0,3.0,-0.5201416015625,0.1767578125,-0.200439453125,0.8111572265625,-0.07275390625,-0.93017578125,0.392578125,1.3125,-0.125,0.25
1.784999999999984,1.0,1.0,-4.0,-1.0,1.0,0.0,10.0,3.0,-0.5201416015625,0.1767578125,-0.200439453125,0.8111572265625,-0.07275390625,-0.93017578125,0.392578125,1.3125,-0.125,0.25
1.7899999999999838,-1.0,-2.0,1.0,9.0,-2.0,-3.0,-5.0,-2.0,-0.5201416015625,0.1767578125,-0.200439453125,0.8111572265625,-0.07275390625,-0.93017578125,0.392578125,1.3125,-0.125,0.25
1.7949999999999837,-1.0,-2.0,1.0,9.0,-2.0,-3.0,-5.0,-2.0,-0.5201416015625,0.1767578125,-0.200439453125,0.8111572265625,-0.07275390625,-0.93017578125,0.392578125,1.3125,-0.125,0.25
1.7999999999999836,-2.0,-2.0,-2.0,-2.0,-1.0,-2.0,-8.0,-2.0,-0.5201416015625,0.17669677734375,-0.20050048828125,0.8111572265625,-0.07275390625,-0.93115234375,0.39697265625,0.25,0.0,0.875
1.8049999999999835,-2.0,-2.0,-2.0,-2.0,-1.0,-2.0,-8.0,-2.0,-0.5201416015625,0.17669677734375,-0.20050048828125,0.8111572265625,-0.07275390625,-0.93115234375,0.39697265625,0.25,0.0,0.875
1.8099999999999834,-2.0,-2.0,-2.0,-2.0,-1.0,-2.0,-8.0,-2.0,-0.5201416015625,0.17669677734375,-0.20050048828125,0.8111572265625,-0.07275390625,-0.93115234375,0.39697265625,0.25,0.0,0.875
1.8149999999999833,-2.0,-2.0,-2.0,-2.0,-1.0,-2.0,-8.0,-2.0,-0.5201416015625,0.17669677734375,-0.20050048828125,0.8111572265625,-0.07275390625,-0.93115234375,0.39697265625,0.25,0.0,0.875
1.8199999999999832,-1.0,0.0,-5.0,-9.0,-4.0,2.0,0.0,-1.0,-0.5201416015625,0.17669677734375,-0.20050048828125,0.8111572265625,-0.07763671875,-0.93408203125,0.40185546875,0.9375,-0.5,0.8125
1.824999999999983,-1.0,0.0,-5.0,-9.0,-4.0,2.0,0.0,-1.0,-0.5201416015625,0.17669677734375,-0.20050048828125,0.8111572265625,-0.07763671875,-0.93408203125,0.40185546875,0.9375,-0.5,0.8125
1.829999999999983,0.0,1.0,-3.0,-4.0,0.0,5.0,18.0,2.0,-0.5201416015625,0.17669677734375,-0.20050048828125,0.8111572265625,-0.07763671875,-0.93408203125,0.40185546875,0.9375,-0.5,0.8125
1.8349999999999829,0.0,1.0,-3.0,-4.0,0.0,5.0,18.0,2.0,-0.5201416015625,0.17669677734375,-0.20050048828125,0.8111572265625,-0.07763671875,-0.93408203125,0.40185546875,0.9375,-0.5,0.8125
1.8399999999999828,0.0,1.0,-3.0,-4.0,0.0,5.0,18.0,2.0,-0.5201416015625,0.17669677734375,-0.20050048828125,0.8111572265625,-0.07763671875,-0.93408203125,0.40185546875,0.9375,-0.5,0.8125
1.8449999999999827,0.0,1.0,-3.0,-4.0,0.0,5.0,18.0,2.0,-0.5201416015625,0.17669677734375,-0.20050048828125,0.8111572265625,-0.07763671875,-0.93408203125,0.40185546875,0.9375,-0.5,0.8125
1.8499999999999825,-2.0,-1.0,5.0,6.0,-2.0,-5.0,-9.0,-4.0,-0.5201416015625,0.17669677734375,-0.20050048828125,0.8111572265625,-0.07763671875,-0.93408203125,0.40185546875,0.9375,-0.5,0.8125
1.8549999999999824,-4.0,-6.0,-4.0,-6.0,-4.0,-2.0,-2.0,-1.0,-0.5198974609375,0.17669677734375,-0.2003173828125,0.81134033203125,-0.0751953125,-0.9296875,0.40380859375,1.4375,-0.3125,1.4375
1.8599999999999823,-4.0,-6.0,-4.0,-6.0,-4.0,-2.0,-2.0,-1.0,-0.5198974609375,0.17669677734375,-0.2003173828125,0.81134033203125,-0.0751953125,-0.9296875,0.40380859375,1.4375,-0.3125,1.4375
1.8649999999999822,-4.0,-6.0,-4.0,-6.0,-4.0,-2.0,-2.0,-1.0,-0.5198974609375,0.17669677734375,-0.2003173828125,0.81134033203125,-0.0751953125,-0.9296875,0.40380859375,1.4375,-0.3125,1.4375
1.8699999999999821,-1.0,-1.0,1.0,5.0,0.0,0.0,-9.0,-3.0,-0.5198974609375,0.17669677734375,-0.2003173828125,0.81134033203125,-0.0751953125,-0.9296875,0.40380859375,1.4375,-0.3125,1.4375
1.874999999999982,-1.0,-1.0,1.0,5.0,0.0,0.0,-9.0,-3.0,-0.5198974609375,0.17669677734375,-0.2003173828125,0.81134033203125,-0.0751953125,-0.9296875,0.40380859375,1.4375,-0.3125,1.4375
1.879999999999982,1.0,1.0,-2.0,-11.0,-3.0,1.0,9.0,2.0,-0.51983642578125,0.17669677734375,-0.2001953125,0.81146240234375,-0.07177734375,-0.92626953125,0.39892578125,0.6875,-0.375,1.25
1.8849999999999818,1.0,1.0,-2.0,-11.0,-3.0,1.0,9.0,2.0,-0.51983642578125,0.17669677734375,-0.2001953125,0.81146240234375,-0.07177734375,-0.92626953125,0.39892578125,0.6875,-0.375,1.25
1.8899999999999817,1.0,1.0,-2.0,-11.0,-3.0,1.0,9.0,2.0,-0.51983642578125,0.17669677734375,-0.2001953125,0.81146240234375,-0.07177734375,-0.92626953125,0.39892578125,0.6875,-0.375,1.25
1.8949999999999816,1.0,1.0,-2.0,-11.0,-3.0,1.0,9.0,2.0,-0.51983642578125,0.17669677734375,-0.2001953125,0.81146240234375,-0.07177734375,-0.92626953125,0.39892578125,0.6875,-0.375,1.25
1.8999999999999815,-2.0,-2.0,3.0,1.0,-3.0,-3.0,-4.0,-3.0,-0.5198974609375,0.17669677734375,-0.2000732421875,0.81146240234375,-0.07275390625,-0.9345703125,0.4052734375,-0.3125,-0.125,1.125
1.9049999999999814,-2.0,-2.0,3.0,1.0,-3.0,-3.0,-4.0,-3.0,-0.5198974609375,0.17669677734375,-0.2000732421875,0.81146240234375,-0.07275390625,-0.9345703125,0.4052734375,-0.3125,-0.125,1.125
1.9099999999999813,1.0,-1.0,3.0,12.0,1.0,-3.0,11.0,2.0,-0.5198974609375,0.17669677734375,-0.2000732421875,0.81146240234375,-0.07275390625,-0.9345703125,0.4052734375,-0.3125,-0.125,1.125
1.9149999999999812,1.0,-1.0,3.0,12.0,1.0,-3.0,11.0,2.0,-0.5198974609375,0.17669677734375,-0.2000732421875,0.81146240234375,-0.07275390625,-0.9345703125,0.4052734375,-0.3125,-0.125,1.125
1.919999999999981,1.0,-1.0,3.0,12.0,1.0,-3.0,11.0,2.0,-0.5198974609375,0.17669677734375,-0.2000732421875,0.81146240234375,-0.07275390625,-0.9345703125,0.4052734375,-0.3125,-0.125,1.125
1.924999999999981,1.0,-1.0,3.0,12.0,1.0,-3.0,11.0,2.0,-0.5198974609375,0.17669677734375,-0.2000732421875,0.81146240234375,-0.07275390625,-0.9345703125,0.4052734375,-0.3125,-0.125,1.125
1.9299999999999808,-3.0,1.0,0.0,-2.0,-4.0,-5.0,-8.0,-4.0,-0.5198974609375,0.17669677734375,-0.2000732421875,0.81146240234375,-0.07373046875,-0.9462890625,0.400390625,-0.5,-0.3125,0.625
1.9349999999999807,-3.0,1.0,0.0,-2.0,-4.0,-5.0,-8.0,-4.0,-0.5198974609375,0.17669677734375,-0.2000732421875,0.81146240234375,-0.07373046875,-0.9462890625,0.400390625,-0.5,-0.3125,0.625
1.9399999999999806,-3.0,1.0,0.0,-2.0,-4.0,-5.0,-8.0,-4.0,-0.5198974609375,0.17669677734375,-0.2000732421875,0.81146240234375,-0.07373046875,-0.9462890625,0.400390625,-0.5,-0.3125,0.625
1.9449999999999805,-3.0,1.0,0.0,-2.0,-4.0,-5.0,-8.0,-4.0,-0.5198974609375,0.17669677734375,-0.2000732421875,0.81146240234375,-0.07373046875,-0.9462890625,0.400390625,-0.5,-0.3125,0.625
1.9499999999999804,0.0,0.0,-1.0,-3.0,0.0,1.0,6.0,1.0,-0.5198974609375,0.17669677734375,-0.2000732421875,0.81146240234375,-0.07373046875,-0.9462890625,0.400390625,-0.5,-0.3125,0.625
1.9549999999999803,0.0,0.0,-1.0,-3.0,0.0,1.0,6.0,1.0,-0.5198974609375,0.17669677734375,-0.2000732421875,0.81146240234375,-0.07373046875,-0.9462890625,0.400390625,-0.5,-0.3125,0.625
1.9599999999999802,0.0,-2.0,-2.0,5.0,-2.0,-3.0,-13.0,-4.0,-0.51995849609375,0.17669677734375,-0.2000732421875,0.8114013671875,-0.06640625,-0.93896484375,0.39697265625,0.5,-0.25,0.3125
1.96499999999998,0.0,-2.0,-2.0,5.0,-2.0,-3.0,-13.0,-4.0,-0.51995849609375,0.17669677734375,-0.2000732421875,0.8114013671875,-0.06640625,-0.93896484375,0.39697265625,0.5,-0.25,0.3125
1.96999999999998,0.0,-2.0,-2.0,5.0,-2.0,-3.0,-13.0,-4.0,-0.51995849609375,0.17669677734375,-0.2000732421875,0.8114013671875,-0.06640625,-0.93896484375,0.39697265625,0.5,-0.25,0.3125
1.9749999999999799,-1.0,0.0,1.0,1.0,-1.0,0.0,3.0,-1.0,-0.51995849609375,0.17669677734375,-0.2000732421875,0.8114013671875,-0.06640625,-0.93896484375,0.39697265625,0.5,-0.25,0.3125
1.9799999999999798,-1.0,0.0,1.0,1.0,-1.0,0.0,3.0,-1.0,-0.51995849609375,0.17669677734375,-0.2000732421875,0.8114013671875,-0.06640625,-0.93896484375,0.39697265625,0.5,-0.25,0.3125
1.9849999999999797,-1.0,0.0,1.0,1.0,-1.0,0.0,3.0,-1.0,-0.51995849609375,0.17669677734375,-0.2000732421875,0.8114013671875,-0.06640625,-0.93896484375,0.39697265625,0.5,-0.25,0.3125
1.9899999999999796,-2.0,-2.0,2.0,-7.0,0.0,1.0,4.0,0.0,-0.519775390625,0.17657470703125,-0.20013427734375,0.8115234375,-0.06982421875,-0.92822265625,0.3994140625,1.125,0.125,0.375
1.9949999999999795,-2.0,-2.0,2.0,-7.0,0.0,1.0,4.0,0.0,-0.519775390625,0.17657470703125,-0.20013427734375,0.8115234375,-0.06982421875,-0.92822265625,0.3994140625,1.125,0.125,0.375
1.9999999999999793,-2.0,-2.0,2.0,-7.0,0.0,1.0,4.0,0.0,-0.519775390625,0.17657470703125,-0.20013427734375,0.8115234375,-0.06982421875,-0.92822265625,0.3994140625,1.125,0.125,0.375
2.0049999999999795,-1.0,-2.0,-4.0,-6.0,0.0,0.0,0.0,-3.0,-0.519775390625,0.17657470703125,-0.20013427734375,0.8115234375,-0.06982421875,-0.92822265625,0.3994140625,1.125,0.125,0.375
2.0099999999999794,1.0,-2.0,-1.0,0.0,-2.0,-1.0,-1.0,-1.0,-0.51983642578125,0.17657470703125,-0.20013427734375,0.8115234375,-0.07373046875,-0.927734375,0.39599609375,-0.3125,0.25,0.6875
2.0149999999999793,1.0,-2.0,-1.0,0.0,-2.0,-1.0,-1.0,-1.0,-0.51983642578125,0.17657470703125,-0.20013427734375,0.8115234375,-0.07373046875,-0.927734375,0.39599609375,-0.3125,0.25,0.6875
2.019999999999979,1.0,-2.0,-1.0,0.0,-2.0,-1.0,-1.0,-1.0,-0.51983642578125,0.17657470703125,-0.20013427734375,0.8115234375,-0.07373046875,-0.927734375,0.39599609375,-0.3125,0.25,0.6875
2.024999999999979,1.0,0.0,-1.0,-4.0,-1.0,1.0,12.0,2.0,-0.51983642578125,0.17657470703125,-0.20013427734375,0.8115234375,-0.07373046875,-0.927734375,0.39599609375,-0.3125,0.25,0.6875
2.029999999999979,1.0,0.0,-1.0,-4.0,-1.0,1.0,12.0,2.0,-0.51983642578125,0.17657470703125,-0.20013427734375,0.8115234375,-0.07373046875,-0.927734375,0.39599609375,-0.3125,0.25,0.6875
2.034999999999979,-2.0,-3.0,-11.0,-11.0,-2.0,0.0,2.0,-2.0,-0.51983642578125,0.17657470703125,-0.20013427734375,0.81146240234375,-0.0771484375,-0.9365234375,0.40283203125,0.125,0.0625,0.75
2.0399999999999787,-1.0,0.0,6.0,3.0,1.0,-1.0,-5.0,-2.0,-0.51983642578125,0.17657470703125,-0.20013427734375,0.81146240234375,-0.0771484375,-0.9365234375,0.40283203125,0.125,0.0625,0.75
2.0449999999999786,-1.0,0.0,6.0,3.0,1.0,-1.0,-5.0,-2.0,-0.51983642578125,0.17657470703125,-0.20013427734375,0.81146240234375,-0.0771484375,-0.9365234375,0.40283203125,0.125,0.0625,0.75
2.0499999999999785,-1.0,0.0,6.0,3.0,1.0,-1.0,-5.0,-2.0,-0.51983642578125,0.17657470703125,-0.20013427734375,0.81146240234375,-0.0771484375,-0.9365234375,0.40283203125,0.125,0.0625,0.75
2.0549999999999784,-1.0,0.0,6.0,3.0,1.0,-1.0,-5.0,-2.0,-0.51983642578125,0.17657470703125,-0.20013427734375,0.81146240234375,-0.0771484375,-0.9365234375,0.40283203125,0.125,0.0625,0.75
2.0599999999999783,-1.0,-3.0,-4.0,-6.0,0.0,-1.0,2.0,1.0,-0.51983642578125,0.17657470703125,-0.20013427734375,0.81146240234375,-0.0751953125,-0.9326171875,0.3984375,0.8125,0.125,0.6875
2.064999999999978,-1.0,-3.0,-4.0,-6.0,0.0,-1.0,2.0,1.0,-0.51983642578125,0.17657470703125,-0.20013427734375,0.81146240234375,-0.0751953125,-0.9326171875,0.3984375,0.8125,0.125,0.6875
2.069999999999978,-1.0,-3.0,-4.0,-6.0,0.0,-1.0,2.0,1.0,-0.51983642578125,0.17657470703125,-0.20013427734375,0.81146240234375,-0.0751953125,-0.9326171875,0.3984375,0.8125,0.125,0.6875
2.074999999999978,-1.0,0.0,-1.0,0.0,1.0,4.0,14.0,0.0,-0.51983642578125,0.17657470703125,-0.20013427734375,0.81146240234375,-0.07568359375,-0.92431640625,0.39794921875,0.9375,-0.0625,0.625
2.079999999999978,-1.0,0.0,-1.0,0.0,1.0,4.0,14.0,0.0,-0.51983642578125,0.17657470703125,-0.20013427734375,0.81146240234375,-0.07568359375,-0.92431640625,0.39794921875,0.9375,-0.0625,0.625
2.0849999999999778,-1.0,0.0,-1.0,0.0,1.0,4.0,14.0,0.0,-0.51983642578125,0.17657470703125,-0.20013427734375,0.81146240234375,-0.07568359375,-0.92431640625,0.39794921875,0.9375,-0.0625,0.625
2.0899999999999777,-1.0,0.0,-1.0,0.0,1.0,4.0,14.0,0.0,-0.51983642578125,0.17657470703125,-0.20013427734375,0.81146240234375,-0.07568359375,-0.92431640625,0.39794921875,0.9375,-0.0625,0.625
2.0949999999999775,-1.0,-2.0,0.0,6.0,-1.0,-2.0,-2.0,1.0,-0.51983642578125,0.17657470703125,-0.20013427734375,0.81146240234375,-0.07568359375,-0.92431640625,0.39794921875,0.9375,-0.0625,0.625
2.0999999999999774,-2.0,-3.0,-7.0,1.0,-4.0,-5.0,-7.0,-3.0,-0.5198974609375,0.176513671875,-0.2000732421875,0.81146240234375,-0.06689453125,-0.927734375,0.392578125,0.4375,-0.3125,1.0
2.1049999999999773,-2.0,-3.0,-7.0,1.0,-4.0,-5.0,-7.0,-3.0,-0.5198974609375,0.176513671875,-0.2000732421875,0.81146240234375,-0.06689453125,-0.927734375,0.392578125,0.4375,-0.3125,1.0
2.1099999999999772,-2.0,-3.0,-7.0,1.0,-4.0,-5.0,-7.0,-3.0,-0.5198974609375,0.176513671875,-0.2000732421875,0.81146240234375,-0.06689453125,-0.927734375,0.392578125,0.4375,-0.3125,1.0
2.114999999999977,-2.0,-3.0,-7.0,1.0,-4.0,-5.0,-7.0,-3.0,-0.5198974609375,0.176513671875,-0.2000732421875,0.81146240234375,-0.06689453125,-0.927734375,0.392578125,0.4375,-0.3125,1.0
2.119999999999977,-2.0,-1.0,0.0,7.0,2.0,0.0,-14.0,-4.0,-0.5198974609375,0.176513671875,-0.2000732421875,0.81146240234375,-0.06689453125,-0.927734375,0.392578125,0.4375,-0.3125,1.0
2.124999999999977,0.0,-3.0,-5.0,-3.0,0.0,4.0,23.0,5.0,-0.5198974609375,0.176513671875,-0.2000732421875,0.81146240234375,-0.07177734375,-0.93505859375,0.39794921875,-0.9375,-0.3125,0.8125
2.129999999999977,0.0,0.0,0.0,-1.0,3.0,1.0,-8.0,-4.0,-0.5198974609375,0.176513671875,-0.2000732421875,0.81146240234375,-0.07177734375,-0.93505859375,0.39794921875,-0.9375,-0.3125,0.8125
2.1349999999999767,0.0,0.0,0.0,-1.0,3.0,1.0,-8.0,-4.0,-0.5198974609375,0.176513671875,-0.2000732421875,0.81146240234375,-0.07177734375,-0.93505859375,0.39794921875,-0.9375,-0.3125,0.8125
2.1399999999999766,0.0,0.0,0.0,-1.0,3.0,1.0,-8.0,-4.0,-0.5198974609375,0.176513671875,-0.2000732421875,0.81146240234375,-0.07177734375,-0.93505859375,0.39794921875,-0.9375,-0.3125,0.8125
2.1449999999999765,0.0,-2.0,-2.0,0.0,-4.0,-2.0,-3.0,-5.0,-0.51995849609375,0.17645263671875,-0.2000732421875,0.81146240234375,-0.0712890625,-0.9404296875,0.40625,0.6875,0.0625,0.125
2.1499999999999764,0.0,-2.0,-2.0,0.0,-4.0,-2.0,-3.0,-5.0,-0.51995849609375,0.17645263671875,-0.2000732421875,0.81146240234375,-0.0712890625,-0.9404296875,0.40625,0.6875,0.0625,0.125
2.1549999999999763,-3.0,-1.0,3.0,6.0,-3.0,-4.0,-7.0,-3.0,-0.51995849609375,0.17645263671875,-0.2000732421875,0.81146240234375,-0.0712890625,-0.9404296875,0.40625,0.6875,0.0625,0.125
2.159999999999976,-3.0,-1.0,3.0,6.0,-3.0,-4.0,-7.0,-3.0,-0.51995849609375,0.17645263671875,-0.2000732421875,0.81146240234375,-0.0712890625,-0.9404296875,0.40625,0.6875,0.0625,0.125
2.164999999999976,2.0,1.0,-1.0,-6.0,-1.0,2.0,17.0,2.0,-0.51971435546875,0.17633056640625,-0.2001953125,0.81158447265625,-0.068359375,-0.92578125,0.40576171875,1.25,0.0,0.25
2.169999999999976,2.0,1.0,-1.0,-6.0,-1.0,2.0,17.0,2.0,-0.51971435546875,0.17633056640625,-0.2001953125,0.81158447265625,-0.068359375,-0.92578125,0.40576171875,1.25,0.0,0.25
2.174999999999976,2.0,1.0,-1.0,-6.0,-1.0,2.0,17.0,2.0,-0.51971435546875,0.17633056640625,-0.2001953125,0.81158447265625,-0.068359375,-0.92578125,0.40576171875,1.25,0.0,0.25
2.1799999999999757,-2.0,-4.0,-9.0,-11.0,-3.0,-5.0,-7.0,-2.0,-0.51971435546875,0.17633056640625,-0.2001953125,0.81158447265625,-0.068359375,-0.92578125,0.40576171875,1.25,0.0,0.25
2.1849999999999756,-2.0,-4.0,-9.0,-11.0,-3.0,-5.0,-7.0,-2.0,-0.51971435546875,0.17633056640625,-0.2001953125,0.81158447265625,-0.068359375,-0.92578125,0.40576171875,1.25,0.0,0.25
2.1899999999999755,-2.0,-2.0,-8.0,0.0,2.0,-1.0,0.0,2.0,-0.519775390625,0.17633056640625,-0.2001953125,0.81158447265625,-0.07470703125,-0.92529296875,0.39794921875,-0.3125,-0.5,0.3125
2.1949999999999754,-2.0,-2.0,-8.0,0.0,2.0,-1.0,0.0,2.0,-0.519775390625,0.17633056640625,-0.2001953125,0.81158447265625,-0.07470703125,-0.92529296875,0.39794921875,-0.3125,-0.5,0.3125
2.1999999999999753,-2.0,-2.0,-8.0,0.0,2.0,-1.0,0.0,2.0,-0.519775390625,0.17633056640625,-0.2001953125,0.81158447265625,-0.07470703125,-0.92529296875,0.39794921875,-0.3125,-0.5,0.3125
2.204999999999975,-1.0,-2.0,5.0,1.0,-3.0,0.0,-6.0,-3.0,-0.519775390625,0.17633056640625,-0.2001953125,0.81158447265625,-0.07470703125,-0.92529296875,0.39794921875,-0.3125,-0.5,0.3125
2.209999999999975,-1.0,0.0,-2.0,-4.0,1.0,2.0,5.0,0.0,-0.519775390625,0.17633056640625,-0.2001953125,0.81158447265625,-0.07470703125,-0.92529296875,0.39794921875,-0.3125,-0.5,0.3125
2.214999999999975,-1.0,-2.0,-2.0,-8.0,-2.0,-2.0,-9.0,0.0,-0.519775390625,0.17633056640625,-0.2001953125,0.81158447265625,-0.0673828125,-0.93115234375,0.39990234375,-0.625,-0.625,0.3125
2.219999999999975,-1.0,-2.0,-2.0,-8.0,-2.0,-2.0,-9.0,0.0,-0.519775390625,0.17633056640625,-0.2001953125,0.81158447265625,-0.0673828125,-0.93115234375,0.39990234375,-0.625,-0.625,0.3125
2.2249999999999748,1.0,-1.0,1.0,5.0,1.0,2.0,18.0,5.0,-0.519775390625,0.17633056640625,-0.2001953125,0.81158447265625,-0.0673828125,-0.93115234375,0.39990234375,-0.625,-0.625,0.3125
2.2299999999999747,0.0,0.0,4.0,7.0,-1.0,0.0,-8.0,-3.0,-0.51983642578125,0.17626953125,-0.2001953125,0.8115234375,-0.06787109375,-0.93798828125,0.39453125,-0.625,-0.25,0.0
2.2349999999999746,0.0,0.0,4.0,7.0,-1.0,0.0,-8.0,-3.0,-0.51983642578125,0.17626953125,-0.2001953125,0.8115234375,-0.06787109375,-0.93798828125,0.39453125,-0.625,-0.25,0.0
2.2399999999999745,0.0,0.0,4.0,7.0,-1.0,0.0,-8.0,-3.0,-0.51983642578125,0.17626953125,-0.2001953125,0.8115234375,-0.06787109375,-0.93798828125,0.39453125,-0.625,-0.25,0.0
2.2449999999999743,-1.0,0.0,-2.0,-3.0,-2.0,-3.0,-10.0,-3.0,-0.51983642578125,0.17626953125,-0.2001953125,0.8115234375,-0.06787109375,-0.93798828125,0.39453125,-0.625,-0.25,0.0
2.2499999999999742,-1.0,0.0,-2.0,-3.0,-2.0,-3.0,-10.0,-3.0,-0.51983642578125,0.17626953125,-0.2001953125,0.8115234375,-0.06787109375,-0.93798828125,0.39453125,-0.625,-0.25,0.0
2.254999999999974,1.0,1.0,2.0,-4.0,0.0,-1.0,-2.0,3.0,-0.51983642578125,0.17626953125,-0.2001953125,0.8115234375,-0.07568359375,-0.93408203125,0.39794921875,0.25,-0.0625,-0.0625
2.259999999999974,1.0,1.0,2.0,-4.0,0.0,-1.0,-2.0,3.0,-0.51983642578125,0.17626953125,-0.2001953125,0.8115234375,-0.07568359375,-0.93408203125,0.39794921875,0.25,-0.0625,-0.0625
2.264999999999974,1.0,1.0,2.0,-4.0,0.0,-1.0,-2.0,3.0,-0.51983642578125,0.17626953125,-0.2001953125,0.8115234375,-0.07568359375,-0.93408203125,0.39794921875,0.25,-0.0625,-0.0625
2.269999999999974,-1.0,-1.0,-3.0,7.0,1.0,0.0,0.0,-2.0,-0.51983642578125,0.17626953125,-0.2001953125,0.8115234375,-0.07568359375,-0.93408203125,0.39794921875,0.25,-0.0625,-0.0625
2.2749999999999737,-3.0,-3.0,2.0,8.0,2.0,0.0,-10.0,-4.0,-0.51983642578125,0.17626953125,-0.20025634765625,0.8115234375,-0.07568359375,-0.92919921875,0.3994140625,0.1875,-0.1875,0.125
2.2799999999999736,-3.0,-3.0,2.0,8.0,2.0,0.0,-10.0,-4.0,-0.51983642578125,0.17626953125,-0.20025634765625,0.8115234375,-0.07568359375,-0.92919921875,0.3994140625,0.1875,-0.1875,0.125
2.2849999999999735,1.0,-1.0,0.0,-3.0,-4.0,0.0,1.0,1.0,-0.51983642578125,0.17626953125,-0.20025634765625,0.8115234375,-0.07568359375,-0.92919921875,0.3994140625,0.1875,-0.1875,0.125
2.2899999999999734,1.0,-1.0,0.0,-3.0,-4.0,0.0,1.0,1.0,-0.51983642578125,0.17626953125,-0.20025634765625,0.8115234375,-0.07568359375,-0.92919921875,0.3994140625,0.1875,-0.1875,0.125
2.2949999999999733,-1.0,-3.0,-2.0,-5.0,-3.0,-5.0,-11.0,-2.0,-0.52008056640625,0.17626953125,-0.20025634765625,0.8114013671875,-0.07421875,-0.93701171875,0.3994140625,-1.0625,0.0625,-0.125
2.299999999999973,0.0,1.0,6.0,2.0,-3.0,-2.0,-2.0,0.0,-0.52008056640625,0.17626953125,-0.20025634765625,0.8114013671875,-0.07421875,-0.93701171875,0.3994140625,-1.0625,0.0625,-0.125
2.304999999999973,0.0,1.0,6.0,2.0,-3.0,-2.0,-2.0,0.0,-0.52008056640625,0.17626953125,-0.20025634765625,0.8114013671875,-0.07421875,-0.93701171875,0.3994140625,-1.0625,0.0625,-0.125
2.309999999999973,-2.0,-3.0,-3.0,-5.0,-2.0,-2.0,-7.0,-5.0,-0.52008056640625,0.17626953125,-0.20025634765625,0.8114013671875,-0.07373046875,-0.94091796875,0.400390625,0.0,0.125,0.0625
2.314999999999973,-2.0,-3.0,-3.0,-5.0,-2.0,-2.0,-7.0,-5.0,-0.52008056640625,0.17626953125,-0.20025634765625,0.8114013671875,-0.07373046875,-0.94091796875,0.400390625,0.0,0.125,0.0625
2.3199999999999728,-2.0,-3.0,-3.0,-5.0,-2.0,-2.0,-7.0,-5.0,-0.52008056640625,0.17626953125,-0.20025634765625,0.8114013671875,-0.07373046875,-0.94091796875,0.400390625,0.0,0.125,0.0625
2.3249999999999726,-2.0,-3.0,-3.0,-5.0,-2.0,-2.0,-7.0,-5.0,-0.52008056640625,0.17626953125,-0.20025634765625,0.8114013671875,-0.07373046875,-0.94091796875,0.400390625,0.0,0.125,0.0625
2.3299999999999725,-1.0,-1.0,2.0,13.0,0.0,-1.0,-1.0,-1.0,-0.52008056640625,0.17626953125,-0.20025634765625,0.81134033203125,-0.0654296875,-0.93212890625,0.3984375,0.4375,0.3125,0.125
2.3349999999999724,-1.0,-1.0,-5.0,-4.0,-1.0,-1.0,5.0,-1.0,-0.52008056640625,0.17626953125,-0.20025634765625,0.81134033203125,-0.0654296875,-0.93212890625,0.3984375,0.4375,0.3125,0.125
2.3399999999999723,-1.0,-1.0,-5.0,-4.0,-1.0,-1.0,5.0,-1.0,-0.52008056640625,0.17626953125,-0.20025634765625,0.81134033203125,-0.0654296875,-0.93212890625,0.3984375,0.4375,0.3125,0.125
2.344999999999972,-1.0,-1.0,-5.0,-4.0,-1.0,-1.0,5.0,-1.0,-0.52008056640625,0.17626953125,-0.20025634765625,0.81134033203125,-0.0654296875,-0.93212890625,0.3984375,0.4375,0.3125,0.125
2.349999999999972,-1.0,-1.0,0.0,-2.0,1.0,-1.0,-3.0,-2.0,-0.52008056640625,0.17626953125,-0.20025634765625,0.81134033203125,-0.0654296875,-0.93212890625,0.3984375,0.4375,0.3125,0.125
2.354999999999972,-1.0,-1.0,0.0,-2.0,1.0,-1.0,-3.0,-2.0,-0.52008056640625,0.17626953125,-0.20025634765625,0.81134033203125,-0.0654296875,-0.93212890625,0.3984375,0.4375,0.3125,0.125
2.359999999999972,0.0,-2.0,-1.0,4.0,-2.0,-1.0,-3.0,-2.0,-0.5201416015625,0.17620849609375,-0.20025634765625,0.81134033203125,-0.06787109375,-0.93359375,0.4013671875,-0.6875,0.3125,0.3125
2.364999999999972,0.0,-2.0,-1.0,4.0,-2.0,-1.0,-3.0,-2.0,-0.5201416015625,0.17620849609375,-0.20025634765625,0.81134033203125,-0.06787109375,-0.93359375,0.4013671875,-0.6875,0.3125,0.3125
2.3699999999999717,0.0,-2.0,-1.0,4.0,-2.0,-1.0,-3.0,-2.0,-0.5201416015625,0.17620849609375,-0.20025634765625,0.81134033203125,-0.06787109375,-0.93359375,0.4013671875,-0.6875,0.3125,0.3125
2.3749999999999716,0.0,-2.0,-1.0,4.0,-2.0,-1.0,-3.0,-2.0,-0.5201416015625,0.17620849609375,-0.20025634765625,0.81134033203125,-0.06787109375,-0.93359375,0.4013671875,-0.6875,0.3125,0.3125
2.3799999999999715,0.0,-2.0,-6.0,3.0,4.0,2.0,-5.0,1.0,-0.5201416015625,0.17620849609375,-0.20025634765625,0.81134033203125,-0.06787109375,-0.93359375,0.4013671875,-0.6875,0.3125,0.3125
2.3849999999999714,0.0,-2.0,-6.0,3.0,4.0,2.0,-5.0,1.0,-0.5201416015625,0.17620849609375,-0.20025634765625,0.81134033203125,-0.06787109375,-0.93359375,0.4013671875,-0.6875,0.3125,0.3125
2.3899999999999713,0.0,0.0,0.0,5.0,0.0,2.0,9.0,1.0,-0.5201416015625,0.17620849609375,-0.2003173828125,0.81134033203125,-0.072265625,-0.943359375,0.3984375,-1.0,0.625,0.5625
2.394999999999971,0.0,0.0,0.0,5.0,0.0,2.0,9.0,1.0,-0.5201416015625,0.17620849609375,-0.2003173828125,0.81134033203125,-0.072265625,-0.943359375,0.3984375,-1.0,0.625,0.5625
2.399999999999971,0.0,0.0,0.0,5.0,0.0,2.0,9.0,1.0,-0.5201416015625,0.17620849609375,-0.2003173828125,0.81134033203125,-0.072265625,-0.943359375,0.3984375,-1.0,0.625,0.5625
2.404999999999971,0.0,0.0,0.0,5.0,0.0,2.0,9.0,1.0,-0.5201416015625,0.17620849609375,-0.2003173828125,0.81134033203125,-0.072265625,-0.943359375,0.3984375,-1.0,0.625,0.5625
2.409999999999971,-1.0,0.0,1.0,-6.0,-2.0,-1.0,-2.0,0.0,-0.5201416015625,0.17620849609375,-0.2003173828125,0.81134033203125,-0.0771484375,-0.93505859375,0.39892578125,0.625,0.375,0.8125
2.4149999999999707,-1.0,0.0,1.0,-6.0,-2.0,-1.0,-2.0,0.0,-0.5201416015625,0.17620849609375,-0.2003173828125,0.81134033203125,-0.0771484375,-0.93505859375,0.39892578125,0.625,0.375,0.8125
2.4199999999999706,-1.0,-1.0,-3.0,-8.0,-1.0,1.0,33.0,12.0,-0.5201416015625,0.17620849609375,-0.2003173828125,0.81134033203125,-0.0771484375,-0.93505859375,0.39892578125,0.625,0.375,0.8125
2.4249999999999705,-1.0,-1.0,-3.0,-8.0,-1.0,1.0,33.0,12.0,-0.5201416015625,0.17620849609375,-0.2003173828125,0.81134033203125,-0.0771484375,-0.93505859375,0.39892578125,0.625,0.375,0.8125
2.4299999999999704,2.0,1.0,-2.0,-7.0,1.0,5.0,21.0,5.0,-0.5201416015625,0.17620849609375,-0.2003173828125,0.81134033203125,-0.0771484375,-0.93505859375,0.39892578125,0.625,0.375,0.8125
2.4349999999999703,2.0,1.0,-2.0,-7.0,1.0,5.0,21.0,5.0,-0.5201416015625,0.17620849609375,-0.2003173828125,0.81134033203125,-0.0771484375,-0.93505859375,0.39892578125,0.625,0.375,0.8125
2.43999999999997,-3.0,-2.0,-1.0,0.0,-5.0,-6.0,-16.0,-6.0,-0.5201416015625,0.17633056640625,-0.2001953125,0.81134033203125,-0.07568359375,-0.9296875,0.3984375,0.25,0.375,1.0625
2.44499999999997,-3.0,-2.0,-1.0,0.0,-5.0,-6.0,-16.0,-6.0,-0.5201416015625,0.17633056640625,-0.2001953125,0.81134033203125,-0.07568359375,-0.9296875,0.3984375,0.25,0.375,1.0625
2.44999999999997,-3.0,-2.0,-1.0,0.0,-5.0,-6.0,-16.0,-6.0,-0.5201416015625,0.17633056640625,-0.2001953125,0.81134033203125,-0.07568359375,-0.9296875,0.3984375,0.25,0.375,1.0625
2.45499999999997,-3.0,-2.0,-1.0,0.0,-5.0,-6.0,-16.0,-6.0,-0.5201416015625,0.17633056640625,-0.2001953125,0.81134033203125,-0.07568359375,-0.9296875,0.3984375,0.25,0.375,1.0625
2.4599999999999698,-2.0,-2.0,-5.0,-3.0,-5.0,-2.0,-12.0,-4.0,-0.5201416015625,0.17633056640625,-0.2001953125,0.81134033203125,-0.07568359375,-0.9296875,0.3984375,0.25,0.375,1.0625
2.4649999999999697,-2.0,-2.0,-5.0,-3.0,-5.0,-2.0,-12.0,-4.0,-0.5201416015625,0.17633056640625,-0.2001953125,0.81134033203125,-0.07568359375,-0.9296875,0.3984375,0.25,0.375,1.0625
2.4699999999999696,-3.0,-1.0,-2.0,-10.0,-3.0,-3.0,-13.0,-7.0,-0.52032470703125,0.176513671875,-0.20001220703125,0.81121826171875,-0.0810546875,-0.94091796875,0.39794921875,-0.9375,-0.0625,1.125
2.4749999999999694,-3.0,-1.0,-2.0,-10.0,-3.0,-3.0,-13.0,-7.0,-0.52032470703125,0.176513671875,-0.20001220703125,0.81121826171875,-0.0810546875,-0.94091796875,0.39794921875,-0.9375,-0.0625,1.125
2.4799999999999693,-3.0,-1.0,-2.0,-10.0,-3.0,-3.0,-13.0,-7.0,-0.52032470703125,0.176513671875,-0.20001220703125,0.81121826171875,-0.0810546875,-0.94091796875,0.39794921875,-0.9375,-0.0625,1.125
2.4849999999999692,-3.0,-1.0,-2.0,-10.0,-3.0,-3.0,-13.0,-7.0,-0.52032470703125,0.176513671875,-0.20001220703125,0.81121826171875,-0.0810546875,-0.94091796875,0.39794921875,-0.9375,-0.0625,1.125
2.489999999999969,-3.0,0.0,0.0,-3.0,-2.0,-4.0,-10.0,-5.0,-0.52032470703125,0.176513671875,-0.20001220703125,0.81121826171875,-0.076171875,-0.93408203125,0.3984375,-0.125,-0.4375,0.5
2.494999999999969,1.0,-1.0,-5.0,-4.0,1.0,-1.0,-6.0,-2.0,-0.52032470703125,0.176513671875,-0.20001220703125,0.81121826171875,-0.076171875,-0.93408203125,0.3984375,-0.125,-0.4375,0.5
2.499999999999969,1.0,-1.0,-5.0,-4.0,1.0,-1.0,-6.0,-2.0,-0.52032470703125,0.176513671875,-0.20001220703125,0.81121826171875,-0.076171875,-0.93408203125,0.3984375,-0.125,-0.4375,0.5
2.504999999999969,1.0,-1.0,-5.0,-4.0,1.0,-1.0,-6.0,-2.0,-0.52032470703125,0.176513671875,-0.20001220703125,0.81121826171875,-0.076171875,-0.93408203125,0.3984375,-0.125,-0.4375,0.5
2.5099999999999687,-1.0,0.0,4.0,7.0,1.0,1.0,-6.0,-1.0,-0.52032470703125,0.176513671875,-0.20001220703125,0.81121826171875,-0.076171875,-0.93408203125,0.3984375,-0.125,-0.4375,0.5
2.5149999999999686,-1.0,0.0,4.0,7.0,1.0,1.0,-6.0,-1.0,-0.52032470703125,0.176513671875,-0.20001220703125,0.81121826171875,-0.076171875,-0.93408203125,0.3984375,-0.125,-0.4375,0.5
2.5199999999999685,0.0,-1.0,7.0,9.0,1.0,0.0,-1.0,-1.0,-0.52032470703125,0.17645263671875,-0.20001220703125,0.81121826171875,-0.0693359375,-0.93310546875,0.39697265625,0.6875,0.0,0.1875
2.5249999999999684,0.0,-1.0,7.0,9.0,1.0,0.0,-1.0,-1.0,-0.52032470703125,0.17645263671875,-0.20001220703125,0.81121826171875,-0.0693359375,-0.93310546875,0.39697265625,0.6875,0.0,0.1875
2.5299999999999683,0.0,-1.0,7.0,9.0,1.0,0.0,-1.0,-1.0,-0.52032470703125,0.17645263671875,-0.20001220703125,0.81121826171875,-0.0693359375,-0.93310546875,0.39697265625,0.6875,0.0,0.1875
2.534999999999968,0.0,-1.0,7.0,9.0,1.0,0.0,-1.0,-1.0,-0.52032470703125,0.17645263671875,-0.20001220703125,0.81121826171875,-0.0693359375,-0.93310546875,0.39697265625,0.6875,0.0,0.1875
2.539999999999968,0.0,-1.0,1.0,8.0,-1.0,0.0,10.0,0.0,-0.52032470703125,0.17645263671875,-0.20001220703125,0.81121826171875,-0.0693359375,-0.93310546875,0.39697265625,0.6875,0.0,0.1875
2.544999999999968,0.0,-1.0,1.0,8.0,-1.0,0.0,10.0,0.0,-0.52032470703125,0.17645263671875,-0.20001220703125,0.81121826171875,-0.0693359375,-0.93310546875,0.39697265625,0.6875,0.0,0.1875
2.549999999999968,-1.0,1.0,-3.0,-1.0,-5.0,-3.0,-9.0,-4.0,-0.520263671875,0.17645263671875,-0.20001220703125,0.811279296875,-0.07373046875,-0.93212890625,0.39306640625,1.1875,-0.0625,0.5
2.5549999999999677,-1.0,1.0,-3.0,-1.0,-5.0,-3.0,-9.0,-4.0,-0.520263671875,0.17645263671875,-0.20001220703125,0.811279296875,-0.07373046875,-0.93212890625,0.39306640625,1.1875,-0.0625,0.5
2.5599999999999676,-1.0,1.0,-3.0,-1.0,-5.0,-3.0,-9.0,-4.0,-0.520263671875,0.17645263671875,-0.20001220703125,0.811279296875,-0.07373046875,-0.93212890625,0.39306640625,1.1875,-0.0625,0.5
2.5649999999999675,-1.0,1.0,-3.0,-1.0,-5.0,-3.0,-9.0,-4.0,-0.520263671875,0.17645263671875,-0.20001220703125,0.811279296875,-0.07373046875,-0.93212890625,0.39306640625,1.1875,-0.0625,0.5
2.5699999999999674,-1.0,-2.0,-4.0,-9.0,-5.0,-4.0,8.0,2.0,-0.520263671875,0.17645263671875,-0.20001220703125,0.811279296875,-0.07763671875,-0.93017578125,0.40185546875,0.5,-0.1875,0.3125
2.5749999999999673,-1.0,-3.0,-2.0,6.0,2.0,0.0,-2.0,-2.0,-0.520263671875,0.17645263671875,-0.20001220703125,0.811279296875,-0.07763671875,-0.93017578125,0.40185546875,0.5,-0.1875,0.3125
2.579999999999967,-1.0,-3.0,-2.0,6.0,2.0,0.0,-2.0,-2.0,-0.520263671875,0.17645263671875,-0.20001220703125,0.811279296875,-0.07763671875,-0.93017578125,0.40185546875,0.5,-0.1875,0.3125
2.584999999999967,-1.0,1.0,3.0,0.0,-1.0,-4.0,-8.0,-5.0,-0.520263671875,0.17645263671875,-0.20001220703125,0.811279296875,-0.07763671875,-0.93017578125,0.40185546875,0.5,-0.1875,0.3125
2.589999999999967,-1.0,1.0,3.0,0.0,-1.0,-4.0,-8.0,-5.0,-0.520263671875,0.17645263671875,-0.20001220703125,0.811279296875,-0.07763671875,-0.93017578125,0.40185546875,0.5,-0.1875,0.3125
2.594999999999967,-1.0,1.0,3.0,0.0,-1.0,-4.0,-8.0,-5.0,-0.520263671875,0.17645263671875,-0.20001220703125,0.811279296875,-0.07763671875,-0.93017578125,0.40185546875,0.5,-0.1875,0.3125
2.599999999999967,2.0,-1.0,0.0,2.0,3.0,1.0,-10.0,-2.0,-0.520263671875,0.1763916015625,-0.20001220703125,0.811279296875,-0.06689453125,-0.9326171875,0.4033203125,0.9375,-0.5,0.375
2.6049999999999667,2.0,-1.0,0.0,2.0,3.0,1.0,-10.0,-2.0,-0.520263671875,0.1763916015625,-0.20001220703125,0.811279296875,-0.06689453125,-0.9326171875,0.4033203125,0.9375,-0.5,0.375
2.6099999999999666,2.0,-1.0,0.0,2.0,3.0,1.0,-10.0,-2.0,-0.520263671875,0.1763916015625,-0.20001220703125,0.811279296875,-0.06689453125,-0.9326171875,0.4033203125,0.9375,-0.5,0.375
2.6149999999999665,-3.0,-1.0,-5.0,-16.0,-3.0,1.0,16.0,3.0,-0.520263671875,0.1763916015625,-0.20001220703125,0.811279296875,-0.06689453125,-0.9326171875,0.4033203125,0.9375,-0.5,0.375
2.6199999999999664,-3.0,-3.0,-1.0,5.0,-1.0,-1.0,-3.0,-1.0,-0.520263671875,0.1763916015625,-0.20001220703125,0.811279296875,-0.06689453125,-0.9326171875,0.4033203125,0.9375,-0.5,0.375
2.6249999999999662,-1.0,1.0,3.0,3.0,-4.0,-4.0,0.0,-4.0,-0.520263671875,0.1763916015625,-0.20001220703125,0.811279296875,-0.0673828125,-0.9296875,0.39697265625,0.4375,-0.6875,0.125
2.629999999999966,-1.0,1.0,3.0,3.0,-4.0,-4.0,0.0,-4.0,-0.520263671875,0.1763916015625,-0.20001220703125,0.811279296875,-0.0673828125,-0.9296875,0.39697265625,0.4375,-0.6875,0.125
2.634999999999966,-1.0,1.0,3.0,3.0,-4.0,-4.0,0.0,-4.0,-0.520263671875,0.1763916015625,-0.20001220703125,0.811279296875,-0.0673828125,-0.9296875,0.39697265625,0.4375,-0.6875,0.125
2.639999999999966,1.0,0.0,0.0,-3.0,-4.0,-2.0,-3.0,-2.0,-0.520263671875,0.1763916015625,-0.20001220703125,0.811279296875,-0.0673828125,-0.9296875,0.39697265625,0.4375,-0.6875,0.125
2.644999999999966,-1.0,0.0,-4.0,-4.0,-1.0,0.0,8.0,5.0,-0.52032470703125,0.1763916015625,-0.2000732421875,0.811279296875,-0.0712890625,-0.93359375,0.40234375,-0.3125,-0.875,0.25
2.6499999999999657,-1.0,0.0,-4.0,-4.0,-1.0,0.0,8.0,5.0,-0.52032470703125,0.1763916015625,-0.2000732421875,0.811279296875,-0.0712890625,-0.93359375,0.40234375,-0.3125,-0.875,0.25
2.6549999999999656,-1.0,0.0,-4.0,-4.0,-1.0,0.0,8.0,5.0,-0.52032470703125,0.1763916015625,-0.2000732421875,0.811279296875,-0.0712890625,-0.93359375,0.40234375,-0.3125,-0.875,0.25
2.6599999999999655,-1.0,0.0,-4.0,-4.0,-1.0,0.0,8.0,5.0,-0.52032470703125,0.1763916015625,-0.2000732421875,0.811279296875,-0.0712890625,-0.93359375,0.40234375,-0.3125,-0.875,0.25
2.6649999999999654,-2.0,-2.0,-5.0,-7.0,0.0,-4.0,-17.0,-3.0,-0.52032470703125,0.17633056640625,-0.2000732421875,0.811279296875,-0.0693359375,-0.93359375,0.4013671875,0.25,-0.6875,0.3125
2.6699999999999653,-2.0,-2.0,-5.0,-7.0,0.0,-4.0,-17.0,-3.0,-0.52032470703125,0.17633056640625,-0.2000732421875,0.811279296875,-0.0693359375,-0.93359375,0.4013671875,0.25,-0.6875,0.3125
2.674999999999965,-2.0,-2.0,-5.0,-7.0,0.0,-4.0,-17.0,-3.0,-0.52032470703125,0.17633056640625,-0.2000732421875,0.811279296875,-0.0693359375,-0.93359375,0.4013671875,0.25,-0.6875,0.3125
2.679999999999965,0.0,-1.0,1.0,-1.0,-1.0,0.0,0.0,0.0,-0.52032470703125,0.17633056640625,-0.2000732421875,0.811279296875,-0.0693359375,-0.93359375,0.4013671875,0.25,-0.6875,0.3125
2.684999999999965,0.0,-1.0,1.0,-1.0,-1.0,0.0,0.0,0.0,-0.52032470703125,0.17633056640625,-0.2000732421875,0.811279296875,-0.0693359375,-0.93359375,0.4013671875,0.25,-0.6875,0.3125
2.689999999999965,-2.0,-1.0,0.0,-2.0,-3.0,-1.0,-1.0,0.0,-0.52032470703125,0.17633056640625,-0.2000732421875,0.81121826171875,-0.0693359375,-0.935546875,0.40185546875,0.625,-0.625,0.5
2.6949999999999648,-2.0,-1.0,0.0,-2.0,-3.0,-1.0,-1.0,0.0,-0.52032470703125,0.17633056640625,-0.2000732421875,0.81121826171875,-0.0693359375,-0.935546875,0.40185546875,0.625,-0.625,0.5
2.6999999999999647,-2.0,-1.0,0.0,-2.0,-3.0,-1.0,-1.0,0.0,-0.52032470703125,0.17633056640625,-0.2000732421875,0.81121826171875,-0.0693359375,-0.935546875,0.40185546875,0.625,-0.625,0.5
2.7049999999999645,0.0,0.0,3.0,10.0,2.0,0.0,0.0,-1.0,-0.52032470703125,0.17633056640625,-0.2000732421875,0.81121826171875,-0.078125,-0.93212890625,0.4013671875,0.4375,-0.375,0.5
2.7099999999999644,0.0,0.0,3.0,10.0,2.0,0.0,0.0,-1.0,-0.52032470703125,0.17633056640625,-0.2000732421875,0.81121826171875,-0.078125,-0.93212890625,0.4013671875,0.4375,-0.375,0.5
2.7149999999999643,-1.0,-2.0,4.0,1.0,1.0,1.0,2.0,-1.0,-0.52032470703125,0.17633056640625,-0.2000732421875,0.81121826171875,-0.078125,-0.93212890625,0.4013671875,0.4375,-0.375,0.5
2.7199999999999642,-1.0,-2.0,4.0,1.0,1.0,1.0,2.0,-1.0,-0.52032470703125,0.17633056640625,-0.2000732421875,0.81121826171875,-0.078125,-0.93212890625,0.4013671875,0.4375,-0.375,0.5
2.724999999999964,1.0,-2.0,-4.0,-4.0,1.0,-3.0,-8.0,-2.0,-0.52032470703125,0.17633056640625,-0.2000732421875,0.81121826171875,-0.078125,-0.93212890625,0.4013671875,0.4375,-0.375,0.5
2.729999999999964,-2.0,-3.0,1.0,-3.0,0.0,1.0,4.0,3.0,-0.52032470703125,0.17633056640625,-0.2000732421875,0.81121826171875,-0.072265625,-0.93212890625,0.4052734375,0.5,-0.1875,0.375
2.734999999999964,-2.0,-3.0,1.0,-3.0,0.0,1.0,4.0,3.0,-0.52032470703125,0.17633056640625,-0.2000732421875,0.81121826171875,-0.072265625,-0.93212890625,0.4052734375,0.5,-0.1875,0.375
2.739999999999964,-2.0,-3.0,1.0,-3.0,0.0,1.0,4.0,3.0,-0.52032470703125,0.17633056640625,-0.2000732421875,0.81121826171875,-0.072265625,-0.93212890625,0.4052734375,0.5,-0.1875,0.375
2.7449999999999637,-4.0,-2.0,1.0,-6.0,-4.0,-4.0,-15.0,-7.0,-0.52032470703125,0.17633056640625,-0.2000732421875,0.81121826171875,-0.072265625,-0.93212890625,0.4052734375,0.5,-0.1875,0.375
2.7499999999999636,-4.0,-2.0,1.0,-6.0,-4.0,-4.0,-15.0,-7.0,-0.52032470703125,0.17626953125,-0.20013427734375,0.81121826171875,-0.072265625,-0.93115234375,0.3974609375,0.25,-0.0625,0.25
2.7549999999999635,-1.0,1.0,-2.0,-2.0,0.0,-2.0,-6.0,-4.0,-0.52032470703125,0.17626953125,-0.20013427734375,0.81121826171875,-0.072265625,-0.93115234375,0.3974609375,0.25,-0.0625,0.25
2.7599999999999634,-1.0,1.0,-2.0,-2.0,0.0,-2.0,-6.0,-4.0,-0.52032470703125,0.17626953125,-0.20013427734375,0.81121826171875,-0.072265625,-0.93115234375,0.3974609375,0.25,-0.0625,0.25
2.7649999999999633,-1.0,1.0,-2.0,-2.0,0.0,-2.0,-6.0,-4.0,-0.52032470703125,0.17626953125,-0.20013427734375,0.81121826171875,-0.072265625,-0.93115234375,0.3974609375,0.25,-0.0625,0.25
2.769999999999963,0.0,-2.0,1.0,1.0,2.0,-4.0,-12.0,-3.0,-0.5203857421875,0.17626953125,-0.20013427734375,0.81121826171875,-0.07275390625,-0.93212890625,0.3994140625,-0.1875,0.25,0.3125
2.774999999999963,0.0,-2.0,1.0,1.0,2.0,-4.0,-12.0,-3.0,-0.5203857421875,0.17626953125,-0.20013427734375,0.81121826171875,-0.07275390625,-0.93212890625,0.3994140625,-0.1875,0.25,0.3125
2.779999999999963,-3.0,-1.0,-4.0,-7.0,-1.0,-3.0,-6.0,-5.0,-0.5203857421875,0.17626953125,-0.20013427734375,0.81121826171875,-0.07275390625,-0.93212890625,0.3994140625,-0.1875,0.25,0.3125
2.784999999999963,-3.0,-1.0,-4.0,-7.0,-1.0,-3.0,-6.0,-5.0,-0.5203857421875,0.17626953125,-0.20013427734375,0.81121826171875,-0.07275390625,-0.93212890625,0.3994140625,-0.1875,0.25,0.3125
2.7899999999999627,-3.0,-1.0,-4.0,-7.0,-1.0,-3.0,-6.0,-5.0,-0.5203857421875,0.17626953125,-0.20013427734375,0.81121826171875,-0.07275390625,-0.93212890625,0.3994140625,-0.1875,0.25,0.3125
2.7949999999999626,3.0,-2.0,-2.0,9.0,-1.0,1.0,19.0,2.0,-0.5203857421875,0.17626953125,-0.20013427734375,0.81121826171875,-0.07470703125,-0.92919921875,0.40478515625,0.5625,0.375,0.25
2.7999999999999625,3.0,-2.0,-2.0,9.0,-1.0,1.0,19.0,2.0,-0.5203857421875,0.17626953125,-0.20013427734375,0.81121826171875,-0.07470703125,-0.92919921875,0.40478515625,0.5625,0.375,0.25
2.8049999999999624,-1.0,0.0,0.0,4.0,-1.0,0.0,1.0,-1.0,-0.5203857421875,0.17626953125,-0.20013427734375,0.81121826171875,-0.07470703125,-0.92919921875,0.40478515625,0.5625,0.375,0.25
2.8099999999999623,-1.0,0.0,0.0,4.0,-1.0,0.0,1.0,-1.0,-0.5203857421875,0.17626953125,-0.20013427734375,0.81121826171875,-0.07470703125,-0.92919921875,0.40478515625,0.5625,0.375,0.25
2.814999999999962,-1.0,-2.0,-9.0,-6.0,-3.0,-4.0,-1.0,1.0,-0.5203857421875,0.17626953125,-0.20013427734375,0.81121826171875,-0.07275390625,-0.9267578125,0.39892578125,-0.5625,0.5625,0.125
2.819999999999962,-1.0,-2.0,-9.0,-6.0,-3.0,-4.0,-1.0,1.0,-0.5203857421875,0.17626953125,-0.20013427734375,0.81121826171875,-0.07275390625,-0.9267578125,0.39892578125,-0.5625,0.5625,0.125
2.824999999999962,-1.0,-2.0,-9.0,-6.0,-3.0,-4.0,-1.0,1.0,-0.5203857421875,0.17626953125,-0.20013427734375,0.81121826171875,-0.07275390625,-0.9267578125,0.39892578125,-0.5625,0.5625,0.125
2.829999999999962,0.0,-4.0,-1.0,3.0,0.0,-2.0,-7.0,-2.0,-0.5203857421875,0.17626953125,-0.20013427734375,0.81121826171875,-0.0751953125,-0.931640625,0.39404296875,-0.75,0.25,0.1875
2.8349999999999618,1.0,0.0,0.0,-2.0,4.0,4.0,5.0,1.0,-0.5203857421875,0.17626953125,-0.20013427734375,0.81121826171875,-0.0751953125,-0.931640625,0.39404296875,-0.75,0.25,0.1875
2.8399999999999617,1.0,0.0,0.0,-2.0,4.0,4.0,5.0,1.0,-0.5203857421875,0.17626953125,-0.20013427734375,0.81121826171875,-0.0751953125,-0.931640625,0.39404296875,-0.75,0.25,0.1875
2.8449999999999616,1.0,0.0,0.0,-2.0,4.0,4.0,5.0,1.0,-0.5203857421875,0.17626953125,-0.20013427734375,0.81121826171875,-0.0751953125,-0.931640625,0.39404296875,-0.75,0.25,0.1875
2.8499999999999615,-1.0,-2.0,0.0,-2.0,-6.0,-7.0,-4.0,-2.0,-0.5203857421875,0.17626953125,-0.20013427734375,0.81121826171875,-0.0751953125,-0.931640625,0.39404296875,-0.75,0.25,0.1875
2.8549999999999613,1.0,0.0,4.0,7.0,1.0,2.0,7.0,3.0,-0.52044677734375,0.17626953125,-0.20013427734375,0.8111572265625,-0.07373046875,-0.935546875,0.3935546875,-0.6875,0.1875,0.625
2.8599999999999612,-2.0,-2.0,0.0,4.0,-5.0,-3.0,-13.0,-4.0,-0.52044677734375,0.17626953125,-0.20013427734375,0.8111572265625,-0.07373046875,-0.935546875,0.3935546875,-0.6875,0.1875,0.625
2.864999999999961,-2.0,-2.0,0.0,4.0,-5.0,-3.0,-13.0,-4.0,-0.52044677734375,0.17626953125,-0.20013427734375,0.8111572265625,-0.07373046875,-0.935546875,0.3935546875,-0.6875,0.1875,0.625
2.869999999999961,-1.0,-3.0,9.0,10.0,-1.0,-1.0,3.0,0.0,-0.52044677734375,0.17626953125,-0.20013427734375,0.8111572265625,-0.07373046875,-0.935546875,0.3935546875,-0.6875,0.1875,0.625
2.874999999999961,-1.0,-3.0,9.0,10.0,-1.0,-1.0,3.0,0.0,-0.52044677734375,0.17626953125,-0.20013427734375,0.8111572265625,-0.07373046875,-0.935546875,0.3935546875,-0.6875,0.1875,0.625
2.879999999999961,-1.0,-1.0,1.0,-3.0,1.0,-2.0,-7.0,-6.0,-0.52044677734375,0.17620849609375,-0.20013427734375,0.8111572265625,-0.0732421875,-0.9375,0.39404296875,-1.0,0.125,0.4375
2.8849999999999607,-1.0,-1.0,1.0,-3.0,1.0,-2.0,-7.0,-6.0,-0.52044677734375,0.17620849609375,-0.20013427734375,0.8111572265625,-0.0732421875,-0.9375,0.39404296875,-1.0,0.125,0.4375
2.8899999999999606,-2.0,-2.0,-8.0,-10.0,-2.0,0.0,-2.0,0.0,-0.52044677734375,0.17620849609375,-0.20013427734375,0.8111572265625,-0.0732421875,-0.9375,0.39404296875,-1.0,0.125,0.4375
2.8949999999999605,0.0,2.0,2.0,12.0,-3.0,0.0,-5.0,-3.0,-0.52069091796875,0.17626953125,-0.20013427734375,0.81097412109375,-0.0703125,-0.93505859375,0.39990234375,-1.5625,0.1875,0.25
2.8999999999999604,-1.0,-3.0,-7.0,-11.0,-8.0,-2.0,13.0,1.0,-0.52069091796875,0.17626953125,-0.20013427734375,0.81097412109375,-0.0703125,-0.93505859375,0.39990234375,-1.5625,0.1875,0.25
2.9049999999999603,-1.0,-3.0,-7.0,-11.0,-8.0,-2.0,13.0,1.0,-0.52069091796875,0.17626953125,-0.20013427734375,0.81097412109375,-0.0703125,-0.93505859375,0.39990234375,-1.5625,0.1875,0.25
2.90999999999996,-1.0,-3.0,-7.0,-11.0,-8.0,-2.0,13.0,1.0,-0.52069091796875,0.17626953125,-0.20013427734375,0.81097412109375,-0.0703125,-0.93505859375,0.39990234375,-1.5625,0.1875,0.25
2.91499999999996,0.0,-1.0,6.0,-3.0,-1.0,-1.0,-3.0,0.0,-0.52099609375,0.17626953125,-0.2001953125,0.810791015625,-0.0712890625,-0.93505859375,0.3916015625,-1.0625,0.25,-0.125
2.91999999999996,0.0,-1.0,6.0,-3.0,-1.0,-1.0,-3.0,0.0,-0.52099609375,0.17626953125,-0.2001953125,0.810791015625,-0.0712890625,-0.93505859375,0.3916015625,-1.0625,0.25,-0.125
2.92499999999996,0.0,-1.0,6.0,-3.0,-1.0,-1.0,-3.0,0.0,-0.52099609375,0.17626953125,-0.2001953125,0.810791015625,-0.0712890625,-0.93505859375,0.3916015625,-1.0625,0.25,-0.125
2.9299999999999597,2.0,-1.0,-3.0,-11.0,-8.0,-4.0,-7.0,-2.0,-0.52099609375,0.17626953125,-0.2001953125,0.810791015625,-0.0712890625,-0.93505859375,0.3916015625,-1.0625,0.25,-0.125
2.9349999999999596,2.0,-1.0,-3.0,-11.0,-8.0,-4.0,-7.0,-2.0,-0.52099609375,0.17626953125,-0.2001953125,0.810791015625,-0.0712890625,-0.93505859375,0.3916015625,-1.0625,0.25,-0.125
2.9399999999999595,-1.0,-3.0,-7.0,-11.0,-2.0,1.0,-3.0,0.0,-0.52099609375,0.17626953125,-0.2001953125,0.810791015625,-0.07373046875,-0.9365234375,0.39794921875,0.0625,0.25,-0.125
2.9449999999999594,-1.0,-3.0,-7.0,-11.0,-2.0,1.0,-3.0,0.0,-0.52099609375,0.17626953125,-0.2001953125,0.810791015625,-0.07373046875,-0.9365234375,0.39794921875,0.0625,0.25,-0.125
2.9499999999999593,-1.0,-3.0,-7.0,-11.0,-2.0,1.0,-3.0,0.0,-0.52099609375,0.17626953125,-0.2001953125,0.810791015625,-0.07373046875,-0.9365234375,0.39794921875,0.0625,0.25,-0.125
2.954999999999959,-1.0,-3.0,-7.0,-11.0,-2.0,1.0,-3.0,0.0,-0.52099609375,0.17626953125,-0.2001953125,0.810791015625,-0.07373046875,-0.9365234375,0.39794921875,0.0625,0.25,-0.125
2.959999999999959,-2.0,-2.0,-1.0,-5.0,-4.0,-4.0,-5.0,-3.0,-0.52099609375,0.17626953125,-0.2001953125,0.810791015625,-0.07666015625,-0.9287109375,0.39013671875,-0.9375,-0.125,0.0625
2.964999999999959,1.0,0.0,-1.0,4.0,-2.0,-1.0,-3.0,1.0,-0.52099609375,0.17626953125,-0.2001953125,0.810791015625,-0.07666015625,-0.9287109375,0.39013671875,-0.9375,-0.125,0.0625
2.969999999999959,1.0,0.0,-1.0,4.0,-2.0,-1.0,-3.0,1.0,-0.52099609375,0.17626953125,-0.2001953125,0.810791015625,-0.07666015625,-0.9287109375,0.39013671875,-0.9375,-0.125,0.0625
2.974999999999959,1.0,0.0,-1.0,4.0,-2.0,-1.0,-3.0,1.0,-0.52099609375,0.17626953125,-0.2001953125,0.810791015625,-0.07666015625,-0.9287109375,0.39013671875,-0.9375,-0.125,0.0625
2.9799999999999587,1.0,0.0,-1.0,4.0,-2.0,-1.0,-3.0,1.0,-0.52099609375,0.17626953125,-0.2001953125,0.810791015625,-0.07666015625,-0.9287109375,0.39013671875,-0.9375,-0.125,0.0625
2.9849999999999586,1.0,0.0,-1.0,4.0,-2.0,-1.0,-3.0,1.0,-0.52099609375,0.17626953125,-0.2001953125,0.810791015625,-0.07666015625,-0.9287109375,0.39013671875,-0.9375,-0.125,0.0625
2.9899999999999585,-1.0,0.0,-2.0,3.0,0.0,2.0,-3.0,-1.0,-0.5213623046875,0.17633056640625,-0.20013427734375,0.810546875,-0.06884765625,-0.93798828125,0.39013671875,-1.5,0.125,0.4375
2.9949999999999584,-1.0,0.0,-2.0,3.0,0.0,2.0,-3.0,-1.0,-0.5213623046875,0.17633056640625,-0.20013427734375,0.810546875,-0.06884765625,-0.93798828125,0.39013671875,-1.5,0.125,0.4375
2.9999999999999583,-1.0,0.0,-2.0,3.0,0.0,2.0,-3.0,-1.0,-0.5213623046875,0.17633056640625,-0.20013427734375,0.810546875,-0.06884765625,-0.93798828125,0.39013671875,-1.5,0.125,0.4375
3.004999999999958,-2.0,0.0,-8.0,-13.0,2.0,0.0,17.0,0.0,-0.5213623046875,0.17633056640625,-0.20013427734375,0.810546875,-0.06884765625,-0.93798828125,0.39013671875,-1.5,0.125,0.4375
3.009999999999958,-2.0,0.0,-8.0,-13.0,2.0,0.0,17.0,0.0,-0.5213623046875,0.17633056640625,-0.20013427734375,0.810546875,-0.06884765625,-0.93798828125,0.39013671875,-1.5,0.125,0.4375
3.014999999999958,-1.0,0.0,6.0,11.0,2.0,0.0,-2.0,1.0,-0.5213623046875,0.17633056640625,-0.20013427734375,0.810546875,-0.07177734375,-0.9404296875,0.3955078125,-0.625,0.0,0.125
3.019999999999958,-1.0,0.0,6.0,11.0,2.0,0.0,-2.0,1.0,-0.5213623046875,0.17633056640625,-0.20013427734375,0.810546875,-0.07177734375,-0.9404296875,0.3955078125,-0.625,0.0,0.125
3.0249999999999577,-1.0,0.0,6.0,11.0,2.0,0.0,-2.0,1.0,-0.5213623046875,0.17633056640625,-0.20013427734375,0.810546875,-0.07177734375,-0.9404296875,0.3955078125,-0.625,0.0,0.125
3.0299999999999576,-1.0,0.0,6.0,11.0,2.0,0.0,-2.0,1.0,-0.5213623046875,0.17633056640625,-0.20013427734375,0.810546875,-0.07177734375,-0.9404296875,0.3955078125,-0.625,0.0,0.125
3.0349999999999575,0.0,0.0,6.0,6.0,-2.0,-3.0,-5.0,0.0,-0.5213623046875,0.17633056640625,-0.20013427734375,0.810546875,-0.07470703125,-0.9365234375,0.4013671875,0.625,-0.1875,0.25
3.0399999999999574,0.0,0.0,6.0,6.0,-2.0,-3.0,-5.0,0.0,-0.5213623046875,0.17633056640625,-0.20013427734375,0.810546875,-0.07470703125,-0.9365234375,0.4013671875,0.625,-0.1875,0.25
3.0449999999999573,-1.0,-2.0,2.0,2.0,-3.0,-5.0,-2.0,-1.0,-0.5213623046875,0.17633056640625,-0.20013427734375,0.810546875,-0.07470703125,-0.9365234375,0.4013671875,0.625,-0.1875,0.25
3.049999999999957,-1.0,-2.0,2.0,2.0,-3.0,-5.0,-2.0,-1.0,-0.5213623046875,0.17633056640625,-0.20013427734375,0.810546875,-0.07470703125,-0.9365234375,0.4013671875,0.625,-0.1875,0.25
3.054999999999957,-1.0,-2.0,2.0,2.0,-3.0,-5.0,-2.0,-1.0,-0.5213623046875,0.17633056640625,-0.20013427734375,0.810546875,-0.07470703125,-0.9365234375,0.4013671875,0.625,-0.1875,0.25
3.059999999999957,-1.0,-2.0,2.0,2.0,-3.0,-5.0,-2.0,-1.0,-0.5213623046875,0.17633056640625,-0.20013427734375,0.810546875,-0.07470703125,-0.9365234375,0.4013671875,0.625,-0.1875,0.25
3.064999999999957,-2.0,1.0,2.0,-2.0,-5.0,-2.0,3.0,0.0,-0.52142333984375,0.17633056640625,-0.20013427734375,0.810546875,-0.07275390625,-0.93359375,0.396484375,-0.125,-0.4375,-0.1875
3.0699999999999568,-2.0,1.0,2.0,-2.0,-5.0,-2.0,3.0,0.0,-0.52142333984375,0.17633056640625,-0.20013427734375,0.810546875,-0.07275390625,-0.93359375,0.396484375,-0.125,-0.4375,-0.1875
3.0749999999999567,-2.0,1.0,2.0,-2.0,-5.0,-2.0,3.0,0.0,-0.52142333984375,0.17633056640625,-0.20013427734375,0.810546875,-0.07275390625,-0.93359375,0.396484375,-0.125,-0.4375,-0.1875
3.0799999999999566,-2.0,1.0,2.0,-2.0,-5.0,-2.0,3.0,0.0,-0.52142333984375,0.17633056640625,-0.20013427734375,0.810546875,-0.07275390625,-0.93359375,0.396484375,-0.125,-0.4375,-0.1875
3.0849999999999564,-1.0,-2.0,2.0,-2.0,-1.0,-2.0,-3.0,-2.0,-0.52142333984375,0.17633056640625,-0.20013427734375,0.810546875,-0.07275390625,-0.93359375,0.396484375,-0.125,-0.4375,-0.1875
3.0899999999999563,-1.0,-2.0,2.0,-2.0,-1.0,-2.0,-3.0,-2.0,-0.52142333984375,0.17633056640625,-0.20013427734375,0.810546875,-0.07275390625,-0.93359375,0.396484375,-0.125,-0.4375,-0.1875
3.0949999999999562,1.0,-3.0,-7.0,-10.0,-2.0,-2.0,-2.0,-1.0,-0.52142333984375,0.17633056640625,-0.20013427734375,0.810546875,-0.076171875,-0.935546875,0.3974609375,0.4375,-0.5,-0.5625
3.099999999999956,1.0,-3.0,-7.0,-10.0,-2.0,-2.0,-2.0,-1.0,-0.52142333984375,0.17633056640625,-0.20013427734375,0.810546875,-0.076171875,-0.935546875,0.3974609375,0.4375,-0.5,-0.5625
3.104999999999956,1.0,-3.0,-7.0,-10.0,-2.0,-2.0,-2.0,-1.0,-0.52142333984375,0.17633056640625,-0.20013427734375,0.810546875,-0.076171875,-0.935546875,0.3974609375,0.4375,-0.5,-0.5625
3.109999999999956,1.0,-3.0,-7.0,-10.0,-2.0,-2.0,-2.0,-1.0,-0.52142333984375,0.17633056640625,-0.20013427734375,0.810546875,-0.076171875,-0.935546875,0.3974609375,0.4375,-0.5,-0.5625
3.114999999999956,0.0,-2.0,-6.0,-12.0,-1.0,-4.0,-9.0,-1.0,-0.5213623046875,0.17608642578125,-0.20037841796875,0.81060791015625,-0.06884765625,-0.93115234375,0.3935546875,1.375,-0.1875,-1.125
3.1199999999999557,-1.0,0.0,4.0,4.0,1.0,2.0,-1.0,1.0,-0.5213623046875,0.17608642578125,-0.20037841796875,0.81060791015625,-0.06884765625,-0.93115234375,0.3935546875,1.375,-0.1875,-1.125
3.1249999999999556,-1.0,0.0,4.0,4.0,1.0,2.0,-1.0,1.0,-0.5213623046875,0.17608642578125,-0.20037841796875,0.81060791015625,-0.06884765625,-0.93115234375,0.3935546875,1.375,-0.1875,-1.125
3.1299999999999555,-1.0,0.0,4.0,4.0,1.0,2.0,-1.0,1.0,-0.5213623046875,0.17608642578125,-0.20037841796875,0.81060791015625,-0.06884765625,-0.93115234375,0.3935546875,1.375,-0.1875,-1.125
3.1349999999999554,-1.0,0.0,4.0,4.0,1.0,2.0,-1.0,1.0,-0.5213623046875,0.17608642578125,-0.20037841796875,0.81060791015625,-0.06884765625,-0.93115234375,0.3935546875,1.375,-0.1875,-1.125
3.1399999999999553,-1.0,0.0,4.0,4.0,1.0,2.0,-1.0,1.0,-0.5213623046875,0.17608642578125,-0.20037841796875,0.81060791015625,-0.06884765625,-0.93115234375,0.3935546875,1.375,-0.1875,-1.125
3.144999999999955,-2.0,-1.0,0.0,2.0,-2.0,-3.0,4.0,-2.0,-0.5213623046875,0.17578125,-0.2005615234375,0.81060791015625,-0.06787109375,-0.93701171875,0.3974609375,0.6875,-0.75,-1.125
3.149999999999955,-2.0,-1.0,0.0,2.0,-2.0,-3.0,4.0,-2.0,-0.5213623046875,0.17578125,-0.2005615234375,0.81060791015625,-0.06787109375,-0.93701171875,0.3974609375,0.6875,-0.75,-1.125
3.154999999999955,-2.0,-1.0,0.0,2.0,-2.0,-3.0,4.0,-2.0,-0.5213623046875,0.17578125,-0.2005615234375,0.81060791015625,-0.06787109375,-0.93701171875,0.3974609375,0.6875,-0.75,-1.125
3.159999999999955,0.0,-3.0,1.0,3.0,5.0,0.0,-9.0,-2.0,-0.5213623046875,0.17578125,-0.2005615234375,0.81060791015625,-0.06787109375,-0.93701171875,0.3974609375,0.6875,-0.75,-1.125
3.1649999999999547,0.0,-3.0,1.0,3.0,5.0,0.0,-9.0,-2.0,-0.5213623046875,0.17578125,-0.2005615234375,0.81060791015625,-0.06787109375,-0.93701171875,0.3974609375,0.6875,-0.75,-1.125
3.1699999999999546,0.0,-3.0,1.0,3.0,5.0,0.0,-9.0,-2.0,-0.5213623046875,0.17578125,-0.2005615234375,0.81060791015625,-0.06787109375,-0.93701171875,0.3974609375,0.6875,-0.75,-1.125
3.1749999999999545,-3.0,0.0,7.0,17.0,4.0,1.0,-4.0,-1.0,-0.5213623046875,0.17572021484375,-0.2005615234375,0.810546875,-0.0693359375,-0.939453125,0.39892578125,-0.3125,-0.5625,-0.875
3.1799999999999544,-3.0,0.0,7.0,17.0,4.0,1.0,-4.0,-1.0,-0.5213623046875,0.17572021484375,-0.2005615234375,0.810546875,-0.0693359375,-0.939453125,0.39892578125,-0.3125,-0.5625,-0.875
3.1849999999999543,-3.0,0.0,7.0,17.0,4.0,1.0,-4.0,-1.0,-0.5213623046875,0.17572021484375,-0.2005615234375,0.810546875,-0.0693359375,-0.939453125,0.39892578125,-0.3125,-0.5625,-0.875
3.189999999999954,-3.0,0.0,7.0,17.0,4.0,1.0,-4.0,-1.0,-0.5213623046875,0.17572021484375,-0.2005615234375,0.810546875,-0.0693359375,-0.939453125,0.39892578125,-0.3125,-0.5625,-0.875
3.194999999999954,-1.0,-2.0,-4.0,-5.0,-3.0,-2.0,4.0,0.0,-0.5213623046875,0.17572021484375,-0.2005615234375,0.810546875,-0.0693359375,-0.939453125,0.39892578125,-0.3125,-0.5625,-0.875
3.199999999999954,-1.0,-2.0,-7.0,-8.0,-1.0,-1.0,-2.0,-3.0,-0.52142333984375,0.17572021484375,-0.20062255859375,0.810546875,-0.06201171875,-0.9365234375,0.3974609375,0.0,-0.375,-0.6875
3.204999999999954,-1.0,-2.0,-7.0,-8.0,-1.0,-1.0,-2.0,-3.0,-0.52142333984375,0.17572021484375,-0.20062255859375,0.810546875,-0.06201171875,-0.9365234375,0.3974609375,0.0,-0.375,-0.6875
3.209999999999954,-1.0,-2.0,-7.0,-8.0,-1.0,-1.0,-2.0,-3.0,-0.52142333984375,0.17572021484375,-0.20062255859375,0.810546875,-0.06201171875,-0.9365234375,0.3974609375,0.0,-0.375,-0.6875
3.2149999999999537,-1.0,-2.0,-7.0,-8.0,-1.0,-1.0,-2.0,-3.0,-0.52142333984375,0.17572021484375,-0.20062255859375,0.810546875,-0.06201171875,-0.9365234375,0.3974609375,0.0,-0.375,-0.6875
3.2199999999999536,-1.0,-2.0,-7.0,-8.0,-1.0,-1.0,-2.0,-3.0,-0.52142333984375,0.17572021484375,-0.20062255859375,0.810546875,-0.06201171875,-0.9365234375,0.3974609375,0.0,-0.375,-0.6875
3.2249999999999535,-3.0,-3.0,-5.0,-4.0,-3.0,-4.0,-5.0,-2.0,-0.52166748046875,0.1756591796875,-0.20050048828125,0.8104248046875,-0.0693359375,-0.93896484375,0.3974609375,-1.0625,-0.5625,0.25
3.2299999999999534,-3.0,-3.0,-5.0,-4.0,-3.0,-4.0,-5.0,-2.0,-0.52166748046875,0.1756591796875,-0.20050048828125,0.8104248046875,-0.0693359375,-0.93896484375,0.3974609375,-1.0625,-0.5625,0.25
3.2349999999999532,-1.0,1.0,-2.0,-2.0,1.0,2.0,1.0,0.0,-0.52166748046875,0.1756591796875,-0.20050048828125,0.8104248046875,-0.0693359375,-0.93896484375,0.3974609375,-1.0625,-0.5625,0.25
3.239999999999953,-1.0,1.0,-2.0,-2.0,1.0,2.0,1.0,0.0,-0.52166748046875,0.1756591796875,-0.20050048828125,0.8104248046875,-0.0693359375,-0.93896484375,0.3974609375,-1.0625,-0.5625,0.25
3.244999999999953,1.0,0.0,-4.0,-1.0,1.0,3.0,12.0,3.0,-0.5218505859375,0.17559814453125,-0.2003173828125,0.81036376953125,-0.0693359375,-0.94775390625,0.3974609375,-0.6875,-0.6875,1.0
3.249999999999953,1.0,-1.0,-3.0,-5.0,-1.0,2.0,0.0,-3.0,-0.5218505859375,0.17559814453125,-0.2003173828125,0.81036376953125,-0.0693359375,-0.94775390625,0.3974609375,-0.6875,-0.6875,1.0
3.254999999999953,-1.0,0.0,2.0,3.0,-3.0,-1.0,10.0,0.0,-0.5218505859375,0.17559814453125,-0.2003173828125,0.81036376953125,-0.0693359375,-0.94775390625,0.3974609375,-0.6875,-0.6875,1.0
3.2599999999999527,-1.0,0.0,2.0,3.0,-3.0,-1.0,10.0,0.0,-0.5218505859375,0.17559814453125,-0.20037841796875,0.81036376953125,-0.06689453125,-0.9453125,0.392578125,-0.3125,-0.1875,0.8125
3.2649999999999526,-1.0,-1.0,-1.0,-3.0,0.0,-1.0,7.0,0.0,-0.5218505859375,0.17559814453125,-0.20037841796875,0.81036376953125,-0.06689453125,-0.9453125,0.392578125,-0.3125,-0.1875,0.8125
3.2699999999999525,-1.0,-1.0,-1.0,-3.0,0.0,-1.0,7.0,0.0,-0.5218505859375,0.17559814453125,-0.20037841796875,0.81036376953125,-0.06689453125,-0.9453125,0.392578125,-0.3125,-0.1875,0.8125
3.2749999999999524,-1.0,-1.0,-1.0,-3.0,0.0,-1.0,7.0,0.0,-0.5218505859375,0.17559814453125,-0.20037841796875,0.81036376953125,-0.06689453125,-0.9453125,0.392578125,-0.3125,-0.1875,0.8125
3.2799999999999523,-1.0,-1.0,-1.0,-3.0,0.0,-1.0,7.0,0.0,-0.5218505859375,0.17559814453125,-0.20037841796875,0.81036376953125,-0.06689453125,-0.9453125,0.392578125,-0.3125,-0.1875,0.8125
