timestamp,ch1,ch2,ch3,ch4,ch5,ch6,ch7,ch8
100.1,0,4,2,7,-1,1,-1,-1
100.105,-1,-7,-32,-17,-1,-2,-1,-1
100.11,0,-2,9,6,1,-1,0,-1
100.115,1,1,11,-5,-3,-3,-1,-1
100.12,-2,-2,-1,5,1,-1,-2,-2
100.125,-2,-2,-3,-6,-6,-3,0,-2
100.13,-1,2,8,2,3,1,0,0
100.135,-1,-3,-14,1,5,2,-1,-1
100.14,0,-3,10,3,0,-2,0,-1
100.145,0,-1,-5,-5,-6,-5,0,-1
100.15,-2,1,2,-7,-8,-4,-1,-3
100.155,1,7,-6,5,4,2,-2,-2
100.16,-7,-22,-4,6,4,1,0,-2
100.165,-1,0,-12,-6,-1,1,-1,-2
100.17,-3,-8,1,2,2,1,-1,-1
100.175,-2,1,-36,-7,-6,-3,0,0
100.18,1,9,1,-3,-5,-3,-1,-1
100.185,-2,-4,10,2,-4,-1,-3,-4
100.19,0,2,10,2,2,2,1,0
100.195,-3,-5,-4,-1,3,1,-1,0
100.2,2,4,-2,-3,-8,-4,-1,0
100.205,-2,-2,-4,-2,-2,-3,-2,0
100.21,1,2,-1,4,3,1,1,1
100.215,-4,-8,17,2,0,-1,-1,-1
100.22,-1,2,-18,-3,0,0,-1,0
100.225,-3,1,-30,-2,-5,-4,-1,0
100.23,-2,-2,-3,-10,-1,-2,-2,-2
100.235,0,-2,14,3,2,-2,-1,0
100.24,-4,-7,-12,5,-2,-1,-3,-4
100.245,3,1,-9,-6,-1,0,0,0
100.25,-3,-5,-10,6,0,-2,0,-2
100.255,1,2,11,-5,-3,-2,0,0
100.26,-1,3,17,6,4,2,-1,-2
100.265,1,-1,3,1,-2,-1,-1,-1
100.27,-5,-4,-3,-5,-2,0,0,-1
100.275,1,1,3,-1,-3,-1,0,-1
100.28,-1,-2,-28,-7,-2,-1,-2,-2
100.285,-3,-5,9,1,4,1,0,0
100.29,0,1,10,-3,-2,-2,-3,-1
100.295,-3,-5,-16,-2,-2,-1,0,0
100.3,-1,-1,-17,-5,-4,-2,-1,1
100.305,-1,0,8,0,0,0,0,-2
100.31,1,-2,0,2,-1,0,-1,-1
100.315,-4,-2,-5,3,-2,1,-1,-2
100.32,-1,5,28,4,0,-3,-1,-1
100.325,1,-3,-9,-6,-1,0,-1,0
100.33,-3,-6,-11,-2,-3,1,0,0
100.335,-3,-1,15,-1,-3,-3,-2,-3
100.34,1,-4,2,-6,-5,-3,-2,-3
100.345,-3,1,16,1,-1,-7,-1,-1
100.35,1,3,-29,-2,0,7,-4,-1
100.355,-1,-5,-13,-7,-2,-4,-3,0
100.36,-2,-5,-9,-5,-1,2,0,-1
100.365,0,1,14,-1,-2,-5,2,-1
100.37,0,-4,1,0,-3,-4,2,1
100.375,-1,1,-4,5,2,4,-3,-2
100.38,-2,2,5,-1,-2,-6,-3,0
100.385,0,-2,-21,3,0,0,1,-2
100.39,-1,2,10,0,-3,-11,-4,0
100.395,1,1,-18,-3,-1,5,-2,1
100.4,-7,-7,11,2,3,4,9,2
100.405,-2,-2,4,2,3,5,-1,-1
100.41,-1,4,7,2,0,-3,0,-2
100.415,1,-1,-9,1,1,-2,1,-1
100.42,3,10,5,-1,-2,0,-5,-1
100.425,3,-1,3,-3,3,0,0,0
100.43,-1,-1,4,1,-1,0,0,-1
100.435,-2,-4,-14,-3,0,-4,0,0
100.44,1,0,4,1,-1,3,4,1
100.445,0,0,-2,-1,0,2,-1,2
100.45,7,0,0,-1,-1,-2,-1,2
100.455,-13,-2,3,0,-3,1,5,-5
100.46,0,0,3,-1,0,-4,-2,0
100.465,-2,-3,0,0,0,-1,-1,-1
100.47,-3,0,1,-2,0,3,1,0
100.475,3,0,-3,-4,-1,-2,1,0
100.48,1,-2,0,-2,-1,-2,-8,0
100.485,-2,0,-2,1,1,-3,-4,-1
100.49,0,0,2,1,0,10,4,-1
100.495,0,-1,-1,0,-1,-4,-6,0
100.5,-3,-1,-2,-1,1,-2,3,-3
100.505,1,-2,1,-3,-1,-4,-3,-1
100.51,-4,-3,-2,-5,-5,-22,-10,-2
100.515,1,0,0,0,0,26,-1,-2
100.52,1,2,0,0,-3,-13,-1,0
100.525,-2,1,-2,1,0,9,7,1
100.53,-6,-5,2,0,-1,-5,3,-5
100.535,-1,-4,-6,-6,-5,-18,-16,-7
100.54,1,-1,1,0,-1,11,0,-1
100.545,1,2,1,2,0,17,7,-3
100.55,-2,-3,-2,-4,-2,-7,2,2
100.555,5,0,1,0,-2,-5,-1,2
100.56,-4,-3,13,4,2,-8,-7,-3
100.565,-2,-3,-23,-4,-3,-7,-4,-2
100.57,0,3,3,6,1,5,-2,-2
100.575,0,-2,3,-10,-5,-10,2,0
100.58,-2,-3,-3,-1,3,12,5,1
100.585,-1,-2,11,-3,-4,-9,-6,1
100.59,-2,-2,2,5,-1,-8,-9,-3
100.595,-1,-1,-11,0,-2,6,1,-1
100.6,-2,-1,1,-5,-7,-17,8,1
100.605,0,0,7,3,7,19,-3,2
100.61,2,0,0,0,0,11,-1,-1
100.615,-4,-2,7,1,1,2,7,1
100.62,2,0,-7,-4,-3,-3,-5,-1
100.625,-3,-5,4,-1,-4,-12,-2,-4
100.63,-1,5,4,-4,-2,2,0,-1
100.635,-1,-7,-18,0,1,-10,-3,-2
100.64,3,2,-1,-1,-1,13,2,0
100.645,-7,-3,-4,-4,-5,-8,-2,-6
100.65,1,1,13,-3,1,4,-1,0
100.655,1,2,-12,-2,0,-1,2,1
100.66,-3,-2,4,0,-1,-8,-9,-4
100.665,1,-3,-10,-5,-2,-1,-5,-1
100.67,-3,-1,-8,1,3,2,4,-1
100.675,1,1,17,6,1,-3,-5,0
100.68,-3,-4,-21,-1,8,2,0,-1
100.685,-1,1,8,3,-4,-3,1,0
100.69,-5,-3,-15,-8,-4,0,0,-1
100.695,0,2,11,-2,0,-1,-1,0
100.7,-1,1,-1,2,-1,2,-3,-1
100.705,-2,-4,-13,-4,-2,-8,-1,-2
100.71,-1,-2,2,-3,-2,0,-1,-1
100.715,1,0,10,2,0,4,1,-4
100.72,-1,-3,-25,-1,-5,-6,2,-2
100.725,-1,0,-1,-9,0,7,2,-1
100.73,2,-5,-14,-5,-4,-3,-2,0
100.735,-1,1,14,8,3,-2,-2,1
100.74,-2,-6,3,-4,-3,3,-3,-3
100.745,-2,0,-6,-1,-3,-4,-2,-1
100.75,1,0,0,-2,-4,-2,0,0
100.755,-1,-3,-18,2,5,1,2,1
100.76,0,-1,17,-8,-11,-5,-3,-1
100.765,-2,-1,-5,13,2,-2,-1,0
100.77,-6,-5,14,-16,-5,-3,-1,-4
100.775,-2,-2,-19,-2,-2,-1,-2,0
100.78,2,5,11,13,-6,1,0,0
100.785,-1,-4,-3,-22,-2,-4,-1,-1
100.79,-1,-6,-14,1,13,2,0,-2
100.795,-3,-5,-16,-1,-8,-4,-1,-2
100.8,12,11,-10,2,-1,0,0,3
100.805,-9,-2,84,4,-8,-4,-4,-6
100.81,-3,-14,-32,4,-2,-4,-2,0
100.815,3,0,-27,-4,1,3,1,0
100.82,-2,7,40,-12,-4,-3,-3,-3
100.825,11,24,5,17,7,0,2,3
100.83,0,-9,-51,-5,-2,-1,-1,-2
100.835,-9,-16,15,1,-5,-2,-3,-3
100.84,-11,-42,-101,-14,-1,1,0,-3
100.845,0,10,18,-1,0,-2,-1,-2
100.85,4,23,35,6,1,0,0,3
100.855,2,11,11,4,1,0,1,-1
100.86,-1,2,-6,6,7,2,1,1
100.865,1,-8,-10,-3,0,1,-1,-1
100.87,-8,-20,-49,-3,-5,0,-2,-3
100.875,2,16,77,9,-1,-3,-1,-1
100.88,0,0,12,-4,4,1,-1,-1
100.885,1,0,24,5,-2,-2,1,-1
100.89,3,12,43,7,3,3,3,0
100.895,-2,-9,-43,-11,-3,-4,-2,-3
100.9,-4,5,42,0,-2,-15,-9,-4
100.905,-2,-8,-53,-1,1,12,8,1
100.91,-1,-2,6,-5,-2,-6,2,1
100.915,-2,-2,-5,-3,-1,-15,-2,4
100.92,2,6,9,8,8,37,-2,2
100.925,-2,-7,-18,-2,3,14,-1,-1
100.93,2,5,20,4,2,38,21,-6
100.935,-2,-3,2,-2,0,20,-2,9
100.94,-4,0,-5,-3,-9,-56,-20,-4
100.945,4,-5,-5,-8,-10,-32,3,-1
100.95,12,1,10,3,8,12,5,5
100.955,-21,-3,-10,-6,-5,-2,3,-12
100.96,-3,-1,5,2,4,72,27,-3
100.965,9,-4,-10,-2,-2,2,-9,2
100.97,-22,-3,4,0,-6,-33,-12,-10
100.975,15,3,-9,-4,-5,-20,-2,2
100.98,1,-10,4,-1,0,-12,-5,3
100.985,-6,3,-3,-2,-2,-16,3,-6
100.99,-6,1,0,-1,3,23,-2,-3
100.995,-15,-11,-2,-5,-4,-13,-5,-5
101,-1,2,3,-1,-1,-8,-3,-2
101.005,13,-5,-14,-5,-3,-6,-3,2
101.01,3,-2,3,4,-2,-4,-1,1
101.015,2,3,-1,-5,-5,-10,-5,-4
101.02,5,-2,-4,-2,1,2,9,1
101.025,-8,4,7,4,5,4,-5,-1
101.03,-1,-1,-26,-11,-5,-19,-4,-1
101.035,2,-4,-1,7,1,13,-4,-2
101.04,-1,3,6,-3,-3,-9,-2,-1
101.045,-7,-3,4,5,-3,0,-3,-1
101.05,-3,-6,13,-20,-2,-8,-10,-2
101.055,4,-1,22,3,5,12,19,-1
101.06,-8,6,-6,-2,-6,-25,-11,-6
101.065,-4,-3,-16,-5,0,10,-5,-2
101.07,3,1,18,10,-4,-3,3,3
101.075,3,-4,-1,-3,-2,5,0,0
101.08,-2,0,7,6,0,-9,1,-2
101.085,-1,-4,-22,-9,0,1,2,0
101.09,0,0,5,4,-2,-1,-7,-2
101.095,3,2,0,1,1,6,-7,2
101.1,-1,0,-20,-2,-1,9,0,1
101.105,-4,-3,1,-5,-4,2,6,-1
101.11,-1,-4,-10,1,-1,-4,-2,-2
101.115,-1,-1,-12,-6,-3,-7,-3,-1
101.12,1,8,45,8,1,1,1,0
101.125,-3,-4,-7,-2,2,2,2,-2
101.13,-2,1,-2,0,-5,-8,-5,0
101.135,0,-3,-5,-1,1,0,-5,0
101.14,-1,-3,-19,-6,-1,1,10,-1
101.145,-2,-1,11,1,0,-4,-5,1
101.15,-2,1,-7,2,0,-7,-3,-1
101.155,-1,-3,-13,-6,-2,-1,1,-2
101.16,-1,-3,-6,-4,2,-1,1,0
101.165,-2,2,8,2,-1,-11,-6,0
101.17,2,0,-7,-1,-1,12,3,2
101.175,-2,-5,-8,2,-2,-3,-2,-4
101.18,-2,-1,15,-4,-1,0,-3,0
101.185,-2,-3,-7,3,0,-1,-3,-2
101.19,2,2,-12,2,-3,-4,-4,2
101.195,-2,-4,-19,2,3,1,-1,-1
101.2,-4,2,1,-16,-7,-3,-4,-3
101.205,4,6,14,8,5,1,5,1
101.21,-3,-1,12,1,-1,-3,-7,-1
101.215,-1,-11,-19,-7,-7,-8,-3,-3
101.22,-1,3,-35,3,1,4,-4,-2
101.225,-3,11,33,0,-1,0,-3,0
101.23,-2,-10,0,-9,-3,-4,2,-2
101.235,1,0,29,4,-1,3,4,1
101.24,-3,-2,-4,1,-8,-7,-6,-3
101.245,-2,-5,-64,-30,4,0,-2,0
101.25,-5,-11,-9,20,-1,-2,-3,-3
101.255,3,-3,-27,-20,-3,1,-1,1
101.26,-1,-7,53,18,7,-1,1,0
101.265,1,15,-38,-14,-2,1,1,0
101.27,1,18,30,2,1,0,2,0
101.275,-2,-20,-89,-18,-6,-2,-1,-3
101.28,-8,-6,38,-18,-9,-9,-5,-6
101.285,0,-3,34,15,-6,-2,1,-1
101.29,-2,-16,-65,-14,15,2,0,0
101.295,-2,11,56,16,3,1,3,-1
101.3,7,30,25,14,2,2,1,3
101.305,-9,-61,-90,-22,-8,-3,-4,-6
101.31,5,26,46,6,-3,-2,1,0
101.315,-10,-19,42,4,-1,-3,-3,-6
101.32,-5,-3,-114,-38,-8,-5,-2,-3
101.325,-3,-15,56,11,5,-1,-2,-2
101.33,-2,1,-20,3,-5,-2,-1,-1
101.335,1,13,94,-4,2,-3,-2,0
101.34,-9,-25,-38,3,-2,-4,-4,-5
101.345,3,24,101,10,-4,3,1,1
101.35,-1,-30,-37,-22,-3,1,0,-1
101.355,1,25,34,13,-3,-4,-3,-2
101.36,0,8,85,7,-2,-5,-2,-2
101.365,3,-9,-61,6,6,-1,-2,3
101.37,-5,-6,52,11,-2,2,3,-4
101.375,-7,4,-18,-5,-5,-6,-1,-4
101.38,5,0,-7,0,3,-1,-1,3
101.385,-3,-2,-87,-24,-9,-7,0,-5
101.39,4,13,41,15,2,-1,-2,0
101.395,3,-6,-30,9,3,5,2,1
101.4,-9,-22,-41,-1,1,-4,-2,-3
101.405,-1,11,34,-6,-2,-2,-5,0
101.41,8,2,-77,-4,-1,4,1,5
101.415,8,29,107,49,16,14,10,4
101.42,-7,-39,-77,-42,-10,-7,-5,-6
101.425,2,3,105,23,6,-6,1,4
101.43,-5,-4,-91,-11,-5,9,-1,-3
101.435,7,20,69,-6,-5,-4,-5,4
101.44,11,23,64,30,12,12,14,5
101.445,-6,-14,32,-3,-5,-3,-7,-5
101.45,0,8,-25,-15,-3,-11,-3,-3
101.455,1,-5,-39,5,3,0,0,2
101.46,9,22,45,16,2,0,0,2
101.465,-7,-2,-52,-25,-5,6,5,-6
101.47,3,-10,64,2,-1,-15,-10,0
101.475,-8,-5,-105,-14,-4,11,3,-6
101.48,-2,7,10,4,-4,-7,-11,-3
101.485,-1,9,-14,11,3,-6,10,3
101.49,-9,-19,20,-7,-5,2,-9,-6
101.495,-4,-7,-48,-10,-2,-16,-6,-2
101.5,3,10,36,16,4,15,4,4
101.505,-1,3,11,3,0,5,1,-1
101.51,-3,2,-14,8,-1,-30,0,-3
101.515,3,-4,38,-23,-9,1,-18,-10
101.52,-6,-7,-9,-3,4,19,22,6
101.525,4,4,-7,15,1,-28,-4,8
101.53,4,6,75,-3,1,32,2,-6
101.535,2,0,-85,-7,0,-54,-16,6
101.54,0,20,34,28,3,-2,-13,2
101.545,-11,-7,17,-16,-7,40,28,-5
101.55,-10,-24,-92,-25,0,66,22,-6
101.555,1,-6,4,6,7,16,10,13
101.56,2,3,31,4,-3,-36,-6,-15
101.565,-8,-16,-15,-3,-2,-14,-12,3
101.57,5,3,-21,4,-4,-41,-23,-3
101.575,-5,-7,-128,-17,2,13,0,8
101.58,-6,12,-74,10,7,38,12,3
101.585,0,0,69,14,5,6,-3,-1
101.59,0,-5,-46,-28,-4,-15,-5,2
101.595,-7,-9,21,5,1,-3,-1,-4
101.6,3,-8,-20,-6,-3,-32,-11,1
101.605,5,12,-18,4,-1,4,-10,-6
101.61,5,22,21,20,4,0,8,8
101.615,-3,-16,43,-10,-4,-9,2,-6
101.62,-6,-12,-82,-23,-14,-7,0,-7
101.625,0,5,26,2,-3,14,-2,-4
101.63,1,9,74,16,0,-18,-3,-1
101.635,-6,-6,27,-11,0,18,9,-5
101.64,5,2,15,-2,-3,-20,-13,-1
101.645,-3,-9,-2,-8,-3,7,-13,-1
101.65,-4,-1,-31,-5,-3,-3,24,-2
101.655,-2,12,67,16,-2,24,-11,-6
101.66,-12,-39,-84,-39,-6,2,5,-10
101.665,4,7,2,4,1,13,2,-1
101.67,-10,-10,45,-15,-12,-22,-15,-12
101.675,2,-2,-13,1,-5,-7,1,3
101.68,1,-2,38,15,3,-10,-5,6
101.685,3,5,-60,-8,-3,-11,-4,-2
101.69,-3,-13,-72,-6,-1,11,4,3
101.695,-1,6,78,12,0,12,4,-3
101.7,-4,-3,1,3,-1,-12,-17,-1
101.705,-5,-5,-48,0,-1,-2,1,-2
101.71,3,20,121,16,6,12,0,-2
101.715,-3,-14,-54,-25,-10,-26,-7,-7
101.72,4,5,26,4,-1,-13,1,-1
101.725,-6,-16,-91,-27,2,48,19,6
101.73,0,4,74,14,0,-19,-8,1
101.735,2,2,-24,-14,-4,-13,5,-5
101.74,2,3,48,1,2,20,14,5
101.745,-5,-2,18,6,-2,-18,-7,-6
101.75,-5,-5,4,2,-2,-1,1,3
101.755,-2,-5,-50,-13,-6,-35,-21,-7
101.76,0,-6,-45,-15,-2,28,-1,-6
101.765,9,10,28,8,3,-7,11,0
101.77,-3,2,-8,5,2,0,-15,-12
101.775,0,-1,23,7,0,-1,0,0
101.78,-3,-3,1,0,-2,8,3,-1
101.785,-17,-8,12,-5,-10,-40,-19,-8
101.79,12,-2,2,-3,-1,2,-12,12
101.795,-4,2,-17,8,20,-14,12,3
101.8,10,2,21,-14,-34,32,29,-3
101.805,8,7,59,15,27,12,-2,4
101.81,-3,-5,-79,-8,-34,-39,-14,1
101.815,-6,-10,13,-15,-12,-13,-8,-16
101.82,7,5,20,35,73,8,7,4
101.825,6,4,-58,12,7,14,16,5
101.83,-6,7,40,11,9,48,3,10
101.835,0,-9,-62,-29,-32,29,16,-26
101.84,-18,-14,-27,-25,-41,-46,-27,-4
101.845,5,-1,5,-9,-7,-27,-9,-12
101.85,1,0,-20,0,3,-36,-1,-1
101.855,10,7,29,10,-7,32,-5,12
101.86,-3,-2,9,0,15,11,-3,-2
101.865,-1,5,7,8,11,18,6,-6
101.87,1,-9,-28,-13,-18,4,7,13
101.875,-1,10,42,17,5,2,-5,12
101.88,17,-3,-22,1,1,15,14,3
101.885,-6,0,18,1,-14,-29,-35,-11
101.89,-24,-6,-7,-11,6,18,24,-8
101.895,-1,6,9,12,7,-15,-19,-11
101.9,-8,5,8,-4,-12,-4,-12,-2
101.905,2,-15,-17,-3,-5,-16,5,-1
101.91,11,3,-36,-12,20,8,23,7
101.915,-15,-1,53,9,5,2,-4,-7
101.92,6,2,-5,-1,-3,-2,-2,25
101.925,-1,1,37,-5,-15,-14,4,-22
101.93,4,14,37,8,9,28,-9,-8
101.935,8,-14,-60,-6,-11,-3,25,6
101.94,-7,-6,27,-8,6,-22,-6,0
101.945,5,11,13,3,-5,13,15,12
101.95,-3,-7,6,7,7,-15,-43,-4
101.955,2,1,-13,-3,1,0,24,9
101.96,-5,0,-1,-2,-16,-37,-21,-9
101.965,-2,-7,-4,-7,-4,-51,-35,-5
101.97,-10,-1,-8,-1,0,27,38,-33
101.975,-1,-2,-22,5,10,24,-1,12
101.98,1,12,13,0,-6,10,1,9
101.985,-1,2,53,5,9,25,28,17
101.99,11,3,-76,8,13,1,-20,10
101.995,-12,-30,-78,-24,-3,7,-21,1
102,6,5,-7,2,-10,-43,-10,-12
102.005,-14,-16,-101,-11,-1,-39,-39,6
102.01,6,-4,8,-6,-22,-66,-1,-37
102.015,-1,23,93,16,6,53,-16,-11
102.02,5,-1,18,-2,6,22,12,4
102.025,0,1,-25,-9,8,36,21,13
102.03,-11,-13,20,-6,-36,-113,-88,-26
102.035,23,3,-32,-1,12,31,53,52
102.04,-22,-4,32,19,15,93,17,-24
102.045,-2,-11,-63,-30,-12,-5,-11,6
102.05,12,2,20,-6,6,13,9,21
102.055,-3,0,11,7,-14,-35,7,-10
102.06,2,-1,27,-6,-2,-50,-80,-25
102.065,-14,-2,21,14,21,82,28,-3
102.07,-6,-5,-2,-7,-19,16,14,11
102.075,-1,9,-25,-9,-2,-78,-17,-7
102.08,4,-2,-20,-13,-3,1,13,19
102.085,4,13,36,22,28,52,13,-20
102.09,-2,-8,65,10,-2,-15,-2,13
102.095,-1,-21,-35,1,22,40,24,-7
102.1,-1,4,30,-5,-16,-31,-21,3
102.105,4,24,38,3,-22,-66,19,-32
102.11,-9,-22,-47,-7,2,0,-30,15
102.115,7,15,38,-5,2,74,37,4
102.12,-25,-18,-47,-1,-3,-31,-22,-63
102.125,7,0,24,-15,-28,-35,-18,51
102.13,12,11,12,5,26,26,53,-3
102.135,3,6,10,13,-5,-62,-46,3
102.14,9,-5,-37,-6,-1,11,-39,11
102.145,2,-4,-4,-12,-27,-46,-26,-10
102.15,-22,-3,7,-17,-22,-75,-2,-11
102.155,-8,-3,-19,2,21,-37,-11,-14
102.16,18,20,86,32,1,71,73,54
102.165,-7,-28,-69,-16,-13,-43,-27,-25
102.17,9,5,11,-16,-5,59,11,29
102.175,-14,1,29,16,-6,-14,-9,-45
102.18,0,-5,-7,-11,5,-22,37,53
102.185,1,8,46,15,-2,-4,-32,-48
102.19,-1,2,-32,-12,10,22,0,-50
102.195,-11,-7,12,5,-14,-11,-22,8
102.2,-9,-4,-30,-7,0,-5,-11,-22
102.205,9,-1,-14,-1,-4,11,29,7
102.21,-11,1,-5,-11,-3,30,9,52
102.215,11,-2,6,-14,-4,-5,1,-49
102.22,-4,0,25,18,5,11,15,-25
102.225,1,5,-31,4,30,49,17,25
102.23,-9,-6,21,3,-8,-8,-10,25
102.235,7,18,-5,-17,-8,9,8,-16
102.24,-1,-15,-20,19,48,-5,1,22
102.245,-11,-6,-21,-39,-59,-37,-44,-65
102.25,3,-2,22,1,12,0,-7,75
102.255,2,-3,-6,31,56,-44,-56,17
102.26,14,14,-2,-1,-10,77,93,-17
102.265,-4,5,5,28,20,4,6,25
102.27,0,-2,17,7,1,31,11,-54
102.275,2,1,2,-18,-6,9,-38,-15
102.28,-8,-7,-33,-23,-33,-69,35,58
102.285,7,-5,7,-10,8,-15,-6,22
102.29,7,4,-6,7,-25,-21,-29,-36
102.295,-4,-4,20,-10,-19,27,8,29
102.3,-17,-1,-39,9,20,-25,-69,69
102.305,-15,-2,19,-9,-20,17,21,62
102.31,6,5,4,11,22,-38,-74,-18
102.315,-16,-15,-6,4,-7,26,53,34
102.32,-6,3,12,-55,-44,-39,-21,-73
102.325,3,-15,-78,18,61,86,9,41
102.33,8,4,57,39,35,2,19,-99
102.335,-15,2,-43,-29,-64,6,44,80
102.34,-3,-8,8,3,-21,-24,-41,-87
102.345,6,15,64,6,18,18,-42,-45
102.35,10,3,-49,-17,-29,11,41,-50
102.355,5,-1,11,-12,10,-19,-49,9
102.36,-9,2,7,25,29,-10,6,33
102.365,-3,-6,-3,-13,-51,-44,-12,-41
102.37,-5,-4,-9,-6,35,36,2,66
102.375,-17,6,31,33,14,0,0,-101
102.38,3,-4,-28,-18,-16,-1,-58,58
102.385,44,17,46,24,29,6,-52,-21
102.39,-12,0,-22,-11,-3,17,23,-25
102.395,-3,3,13,11,-7,-47,43,-27
102.4,4,-6,-24,-9,-10,19,42,22
102.405,-10,-13,-20,-18,-6,-1,15,28
102.41,-13,1,-3,-3,-21,-31,-32,6
102.415,-22,-11,1,-23,1,-6,-52,-14
102.42,-12,-11,-33,29,2,40,68,88
102.425,11,5,9,3,14,-86,-5,-71
102.43,-47,-6,-14,-9,5,88,80,99
102.435,15,-9,-26,0,-26,-79,-81,-52
102.44,1,8,20,-5,9,9,28,-32
102.445,-30,-17,-33,-1,-8,9,80,43
102.45,27,8,33,3,-22,-39,65,58
102.455,-1,6,7,-7,10,6,16,60
102.46,11,10,10,-14,13,0,-1,-73
102.465,-26,-14,-4,25,3,17,105,-100
102.47,0,-10,-9,-20,-33,-90,-83,83
102.475,57,17,14,15,5,58,23,99
102.48,34,3,12,14,47,97,28,33
102.485,6,14,36,2,8,71,37,93
102.49,-6,-7,1,3,19,88,103,-77
102.495,-36,-13,-23,0,21,1,20,-53
102.5,2,-1,-3,-14,-55,-116,-61,-119
102.505,-11,2,17,8,13,66,-31,73
102.51,11,-8,-32,-2,5,41,-43,-128
102.515,-29,-11,12,-12,-21,-40,20,35
102.52,49,9,21,19,13,9,71,84
102.525,46,26,-20,-16,-17,-7,5,-23
102.53,79,42,36,57,74,71,6,24
102.535,-14,0,-24,-4,21,2,66,-42
102.54,66,-16,-35,-28,-37,-84,-128,-55
102.545,16,5,25,-1,-35,-64,-89,-107
102.55,-51,-28,-48,-14,-15,-10,9,3
102.555,67,31,50,-9,-3,31,-91,-41
102.56,-13,-6,13,34,54,95,45,-39
102.565,-39,-20,15,-29,-36,-67,-70,-23
102.57,-6,-19,-62,4,6,22,53,-1
102.575,21,35,59,29,14,69,-20,46
102.58,-6,-43,-66,-57,-58,-54,-16,-81
102.585,-36,-1,-13,4,4,6,-28,30
102.59,5,14,67,7,-1,-58,-34,-20
102.595,-63,-32,-39,-35,-25,-83,-2,-69
102.6,-97,-3,-17,1,3,-20,-15,70
102.605,32,-6,-53,0,1,32,-72,-59
102.61,21,12,73,-7,5,-23,-63,-9
102.615,-11,-39,-99,-3,-13,50,-4,85
102.62,6,17,63,15,6,-47,-2,76
102.625,26,1,12,28,43,3,35,-29
102.63,-38,-5,-5,-16,-29,57,35,-53
102.635,25,7,25,6,17,-15,15,10
102.64,-12,-4,-42,-3,-29,-15,21,46
102.645,-12,-3,10,-13,-9,-8,97,127
102.65,51,6,-7,9,3,-19,-34,-62
102.655,3,7,32,20,6,8,22,-10
102.66,-35,-23,-56,-19,-1,-11,-39,-5
102.665,-17,8,17,-4,-1,-9,30,-32
102.67,-19,-7,-1,-5,-2,6,-18,15
102.675,7,-7,-26,-23,-23,-5,-9,22
102.68,0,13,17,4,-2,17,-11,-41
102.685,-9,-6,0,2,6,-4,3,40
102.69,-9,-2,2,5,-13,-38,-15,37
102.695,-4,-6,15,10,15,35,-4,-34
102.7,-4,11,30,-1,6,23,9,-26
102.705,3,-13,-15,4,-10,-12,1,4
102.71,-5,-6,-24,-27,-18,-42,-2,28
102.715,5,6,-9,16,-7,-17,6,-22
102.72,-6,0,22,13,-5,-6,12,-20
102.725,-2,4,27,-23,-18,-17,-6,12
102.73,-5,-11,-15,38,30,3,-11,14
102.735,-8,-1,6,2,11,-9,2,4
102.74,1,2,-19,1,-9,11,-7,-8
102.745,-4,1,-23,6,-3,-7,-16,-12
102.75,-4,-10,7,19,14,-5,0,16
102.755,2,1,30,3,4,-7,5,-6
102.76,-10,-24,-55,-9,13,-4,1,-8
102.765,6,13,29,-26,-13,-3,3,1
102.77,-8,-9,-14,-34,-34,-26,-7,0
102.775,-3,1,-30,6,-12,-10,-5,-4
102.78,1,6,23,-44,-20,1,-5,-8
102.785,-6,-7,-55,50,5,-1,-1,6
102.79,-3,0,25,-40,9,-5,-5,11
102.795,-3,4,-74,31,-21,-12,-7,-8
102.8,5,5,124,0,32,22,6,-2
102.805,-3,-3,22,-10,12,1,1,3
102.81,-3,-15,-3,23,-1,-13,-3,6
102.815,2,4,-42,-57,-22,-8,-1,-8
102.82,-1,3,7,4,1,-3,-1,-6
102.825,-4,-8,-26,0,-5,-5,-2,1
102.83,9,18,68,13,-1,-3,-1,7
102.835,-6,-11,-10,-14,-2,-1,0,-1
102.84,1,-16,-54,-38,-14,0,-1,-1
102.845,1,2,41,34,21,1,-3,-2
102.85,-2,11,-29,28,-17,-9,-6,-1
102.855,-2,-6,13,1,13,7,6,4
102.86,1,6,81,1,4,-1,0,-2
102.865,2,-3,-32,-23,1,1,1,1
102.87,-2,-3,-20,-11,-26,-13,-3,-2
102.875,-9,-28,-61,-14,3,0,-2,-5
102.88,-4,-1,-18,24,8,1,-1,-5
102.885,2,-6,0,-29,-14,-8,-2,1
102.89,4,27,88,22,9,1,-1,5
102.895,-4,-9,-70,-24,-13,-6,-4,-4
102.9,6,-1,23,25,5,4,3,1
102.905,-2,-1,-17,-4,11,3,-1,-1
102.91,5,-17,47,9,11,9,7,8
102.915,-9,2,-35,-18,-3,-9,-6,-8
102.92,3,5,6,12,0,-1,-1,-3
102.925,-4,33,-43,-6,-1,-5,-4,-4
102.93,-17,-59,-100,-28,-7,-5,-6,-9
102.935,1,19,117,-2,-8,-5,-6,0
102.94,-8,-28,-65,-1,4,-1,1,-4
102.945,-3,-18,64,-11,-3,2,0,-1
102.95,-5,-9,-108,-35,-14,-9,-7,-5
102.955,-5,-18,125,25,3,-2,-3,-4
102.96,-1,-5,-128,-4,6,2,-2,2
102.965,-1,-2,20,-8,-4,0,-2,-3
102.97,5,10,-15,9,2,2,1,3
102.975,-2,18,41,5,-3,-2,-2,-3
102.98,10,26,127,26,-4,4,3,5
102.985,-11,-3,-109,-34,1,-4,-4,-6
102.99,9,27,38,-5,0,-3,1,2
102.995,-3,-8,-94,7,5,0,1,-1
103,6,75,95,5,-11,-7,-4,-2
103.005,-13,-96,-80,9,-1,0,1,1
103.01,0,19,-18,-11,6,1,-1,0
103.015,7,-2,3,1,1,1,1,4
103.02,-15,-23,40,-4,-2,-4,-4,-7
103.025,12,43,74,43,7,6,3,3
103.03,9,42,29,9,2,1,3,5
103.035,-15,-34,-23,-4,-3,-1,-2,-8
103.04,-10,-59,-128,-52,-11,-7,-5,-6
103.045,0,29,-3,4,-2,-4,-3,-1
103.05,-4,-40,84,12,-1,0,-1,-1
103.055,13,19,-14,-10,4,3,5,5
103.06,-3,22,64,17,0,-3,-2,-3
103.065,6,4,71,27,3,3,1,3
103.07,-18,-15,-44,-46,-13,-10,-8,-8
103.075,12,-3,-22,-5,0,3,3,5
103.08,-3,27,19,16,4,-4,-3,-6
103.085,-2,-5,-7,-1,-5,-3,0,0
103.09,-5,-8,8,1,0,0,1,0
103.095,0,19,127,32,5,2,0,-2
103.1,-6,-9,-102,-34,-5,-2,-3,-4
103.105,9,24,-16,12,0,3,2,4
103.11,4,30,-34,20,3,-4,-4,-3
103.115,-9,-32,56,-8,-2,0,-1,-3
103.12,2,18,-96,-49,-8,-3,-1,0
103.125,-13,-76,-38,-22,-4,-3,-2,-3
103.13,4,6,-36,34,2,-1,0,-2
103.135,4,-1,115,5,0,-4,-3,0
103.14,20,44,16,39,9,3,2,8
103.145,-6,26,87,9,7,4,3,0
103.15,-16,-27,80,-13,-24,-8,-3,-5
103.155,4,2,-7,49,11,0,-3,0
103.16,-5,-17,62,4,-6,0,-1,-3
103.165,8,32,54,44,25,7,7,8
103.17,7,-9,-9,-93,-26,-9,-4,-2
103.175,-16,18,-64,31,5,-8,-7,-8
103.18,-14,-44,38,14,-20,-6,-5,-6
103.185,2,-46,-122,19,26,6,3,0
103.19,-1,15,-3,-10,2,-5,-8,-5
103.195,-3,-13,-12,-8,8,-1,-1,-1
103.2,-7,-18,-82,17,6,0,-2,-2
103.205,-11,-22,-38,-54,-27,-8,-6,-7
103.21,3,-9,-21,18,8,8,3,5
103.215,10,26,35,-19,-8,-3,-1,-4
103.22,-5,-23,6,-14,-11,-7,-1,3
103.225,8,23,58,0,0,-4,-3,2
103.23,2,-15,63,22,14,3,3,7
103.235,0,3,-66,-36,-14,5,4,9
103.24,-3,6,41,4,7,-4,-3,-12
103.245,4,-2,-30,-15,-10,0,0,-11
103.25,5,14,15,13,5,6,8,-2
103.255,-2,-4,47,1,-4,1,-5,-12
103.26,-4,-12,1,-8,2,-14,-5,-21
103.265,0,22,29,6,-10,-37,-8,38
103.27,2,-20,-41,6,12,73,21,-12
103.275,10,6,-13,0,6,16,16,27
103.28,5,10,-1,3,6,-19,-16,-25
103.285,-3,8,91,3,-6,34,3,-23
103.29,-5,6,-56,-7,-9,-26,6,-25
103.295,5,-11,-18,-9,-11,-31,-40,31
103.3,3,-1,25,-7,1,8,-2,22
103.305,8,18,64,5,4,-20,11,-17
103.31,-6,-15,-13,-4,1,1,-9,8
103.315,-10,-10,1,-11,-4,-20,15,-33
103.32,2,15,32,14,7,40,16,-30
103.325,-10,-25,47,-23,-18,-20,-6,-2
103.33,-10,3,-43,-13,-8,-15,-24,-41
103.335,8,7,-43,-5,3,-6,6,28
103.34,11,8,24,17,6,-28,-13,49
103.345,-19,-17,-5,-3,5,53,29,-44
103.35,10,17,-73,-7,-5,-6,35,51
103.355,-8,-9,-15,-6,-8,-12,-22,-25
103.36,-11,-10,-11,-8,-7,-26,-3,5
103.365,-1,1,-27,-5,-5,4,28,25
103.37,-5,-4,15,2,-6,-48,-77,-34
103.375,17,13,15,5,0,31,2,5
103.38,9,10,-21,8,14,65,76,19
103.385,-5,-24,19,-22,-15,-20,2,-20
103.39,-6,3,-12,14,13,28,19,17
103.395,-5,-8,4,-10,-9,-11,3,-12
103.4,-1,-4,33,-3,-10,-19,-32,-3
103.405,1,-3,-24,3,6,-10,-5,-4
103.41,-3,9,-1,-1,-7,-19,-3,-20
103.415,-13,-12,-42,-17,-9,-10,14,12
103.42,5,2,13,4,4,2,-10,39
103.425,3,11,-26,3,7,10,9,-32
103.43,21,9,25,13,3,-11,42,42
103.435,-21,0,41,-3,-5,-8,-71,-88
103.44,-10,-14,-32,-9,-9,-27,-24,-36
103.445,4,3,-34,-2,1,42,19,36
103.45,-2,-1,34,5,1,-27,25,-11
103.455,3,7,-20,3,-1,11,58,-4
103.46,-14,-18,-14,-7,-13,-33,-78,6
103.465,5,-4,11,1,-3,-6,-57,-29
103.47,-1,-7,-16,-13,-13,-19,2,40
103.475,4,9,-14,19,27,90,29,9
103.48,4,3,16,-8,-4,16,21,15
103.485,-2,-2,-7,4,2,19,32,20
103.49,-6,-11,-21,-5,9,49,-17,-3
103.495,-5,-10,-21,-17,-13,-30,-19,14
103.5,7,4,50,16,5,9,-9,-8
103.505,4,11,-51,-8,-1,-17,-4,22
103.51,0,10,31,9,5,24,38,-5
103.515,2,3,8,11,6,6,-2,11
103.52,8,7,-39,-16,-4,-7,53,-24
103.525,-16,-15,3,-6,-3,-27,-28,4
103.53,-9,-4,9,-3,-2,-30,-89,-62
103.535,2,-5,-21,-2,-8,-13,-56,33
103.54,8,14,8,10,18,80,68,27
103.545,-7,-10,-3,-6,-11,-17,-44,-5
103.55,1,-3,-8,-1,-1,9,37,11
103.555,5,15,39,6,-1,-2,-56,-5
103.56,-8,-18,-50,-19,13,3,28,7
103.565,0,3,11,10,1,-4,1,-5
103.57,-4,-6,-20,13,-5,7,-8,1
103.575,2,2,-34,-20,3,-17,22,0
103.58,0,8,45,18,-8,-29,-40,2
103.585,-4,-7,-33,-3,10,52,64,32
103.59,19,16,24,-3,5,1,-37,17
103.595,-37,-29,-8,-7,-17,-27,83,-5
103.6,-1,-3,-22,-11,-4,-5,-53,5
103.605,4,15,21,4,-10,-15,-20,-29
103.61,-1,-1,32,8,9,10,75,60
103.615,-2,-4,-10,-7,-3,-1,-48,-10
103.62,4,3,2,4,4,-19,7,14
103.625,-10,-12,-3,-2,-12,-38,3,-31
103.63,4,6,10,-4,-8,-6,-6,-7
103.635,-5,0,-11,-4,8,23,-13,-47
103.64,4,-10,-23,-1,-5,-14,38,36
103.645,16,24,33,7,13,7,53,7
103.65,-4,-4,-9,4,2,-20,-51,-36
103.655,2,-8,2,3,1,-30,-31,-20
103.66,-11,-4,-25,-16,-25,-19,-26,-30
103.665,4,-1,11,-1,9,18,-3,19
103.67,-3,-2,6,-9,3,15,20,-4
103.675,13,5,7,14,4,1,-48,6
103.68,-10,-5,13,7,3,3,86,-6
103.685,15,22,37,0,-11,-36,-62,0
103.69,-16,-28,-53,-5,-4,26,52,2
103.695,6,5,3,0,3,-11,28,57
103.7,4,5,23,4,-7,-7,-37,-67
103.705,-14,-12,-25,-8,0,-23,-9,3
103.71,13,14,31,6,4,21,7,-34
103.715,6,-5,-36,-3,1,14,46,27
103.72,-11,0,12,0,0,0,-13,-40
103.725,-1,-4,-17,-5,-5,-7,-31,29
103.73,-2,6,18,-5,-9,-22,-46,-27
103.735,-8,-4,-6,0,-6,-29,6,24
103.74,0,5,-5,-2,3,9,-40,35
103.745,-3,-10,-15,-5,-1,4,26,-25
103.75,-9,2,-14,-2,-7,-13,-2,-24
103.755,10,20,49,3,1,4,-13,30
103.76,-10,-37,-76,-10,-2,14,56,-20
103.765,-2,4,12,-2,-10,-4,-46,23
103.77,-4,-18,-22,-14,-2,-19,-10,10
103.775,-12,6,5,9,5,33,28,7
103.78,11,-1,5,-3,1,-14,-31,17
103.785,-7,-2,10,2,-1,6,-8,-27
103.79,5,-4,-6,-5,-10,-2,-8,-8
103.795,9,4,4,1,0,-8,13,7
103.8,-11,-3,25,0,-2,-6,9,50
103.805,2,-2,-53,-8,-3,2,-62,-47
103.81,-13,-4,-4,-1,1,-24,0,-9
103.815,1,0,-1,0,3,18,16,-53
103.82,9,2,7,4,3,4,17,49
103.825,-16,-5,15,3,-9,-19,24,-26
103.83,10,0,9,1,-3,1,-44,-3
103.835,-2,-4,-5,-14,-20,-18,1,-7
103.84,-1,3,-1,3,9,7,-3,-40
103.845,-1,2,-7,-5,8,12,29,19
103.85,6,8,21,11,7,-2,-5,38
103.855,1,-10,-2,-4,-4,27,79,21
103.86,-3,9,4,-1,-12,-32,-60,-23
103.865,9,-11,-2,-11,-9,-11,28,61
103.87,0,-1,-21,-4,5,22,17,-4
103.875,0,0,-8,2,-2,-22,-68,-35
103.88,-2,4,-3,-2,5,9,19,7
103.885,2,0,-1,10,4,-1,5,-5
103.89,-5,9,-6,4,6,-6,-6,66
103.895,-16,-26,-1,-5,-15,-11,-29,-26
103.9,4,0,-26,-15,-11,7,37,38
103.905,-5,-3,15,-3,8,2,-6,-10
103.91,-1,-6,6,9,6,11,-1,-21
103.915,-3,15,23,17,20,11,0,25
103.92,0,-2,4,-2,-5,-3,-7,-1
103.925,-2,-9,-46,-3,-11,-15,0,-23
103.93,1,2,23,-6,-3,-2,15,11
103.935,0,-1,-23,-11,-3,-6,-21,-9
103.94,-8,-15,14,-6,-11,-3,-32,-35
103.945,-2,-2,-45,-2,22,10,-2,23
103.95,-1,6,32,17,0,-4,-8,-9
103.955,2,5,16,2,-3,-6,10,4
103.96,-2,-6,-49,-8,-6,1,-3,-12
103.965,-3,2,32,-22,-19,-9,-6,-3
103.97,-1,-4,0,14,-4,-3,-7,2
103.975,1,-3,-49,2,19,6,17,-10
103.98,0,6,8,14,5,9,-3,-3
103.985,-1,1,26,-8,-3,1,-3,-4
103.99,0,1,40,1,-11,-6,7,-5
103.995,-1,-5,-27,-18,-12,-6,1,5
104,2,8,0,0,8,2,-4,-12
104.005,-1,0,15,-3,-5,-1,-3,3
104.01,-2,3,26,14,-3,-5,-17,-7
104.015,-1,-12,-21,-13,0,2,35,6
104.02,0,3,32,-7,2,5,-8,-5
104.025,1,1,-18,23,5,2,2,-3
104.03,-5,-2,-20,-25,-3,-6,-2,0
104.035,-1,-1,-13,-5,-15,-4,-12,-7
104.04,-3,-5,41,-20,-2,-1,1,-8
104.045,6,11,8,46,14,6,5,8
104.05,-2,-7,-33,-6,7,4,4,-2
104.055,0,6,35,2,-3,-5,-8,-6
104.06,-4,-4,11,-14,-8,-3,8,0
104.065,-1,-8,-57,0,-13,-3,-9,-3
104.07,-7,-6,27,-19,-9,-6,0,-2
104.075,1,9,-20,16,5,3,-5,-4
104.08,-4,-1,-1,-3,1,-1,-6,-5
104.085,1,-7,18,-16,4,6,2,2
104.09,-9,-14,-30,25,3,-6,0,-7
104.095,2,1,35,-14,-6,2,3,3
104.1,-1,-1,-30,11,0,0,-4,-4
104.105,-1,-1,5,-12,-2,-1,-1,0
104.11,-3,-2,-15,-13,-11,-7,-4,-5
104.115,-2,-8,0,-2,-3,-2,-4,-2
104.12,4,5,-1,4,7,2,1,2
104.125,0,5,-2,-3,-3,0,1,-1
104.13,-5,-13,-43,-14,-3,-1,-2,-1
104.135,-1,0,33,7,-2,-2,-1,-2
104.14,-3,-14,-18,-19,1,1,-1,-2
104.145,-4,-5,-7,21,-1,-4,-3,-5
104.15,9,26,60,-2,4,4,5,6
104.155,-3,-18,-32,3,5,3,-2,-1
104.16,1,10,23,14,5,0,-2,-1
104.165,-5,-19,7,-17,-9,-2,-3,-3
104.17,-3,-2,3,15,4,-3,0,-2
104.175,-2,-4,-29,-17,-6,-5,-5,-2
104.18,3,9,-8,14,-6,-2,-1,-1
104.185,-2,-3,-78,-30,1,0,-1,-1
104.19,4,0,4,5,3,1,3,2
104.195,4,9,18,6,0,-1,1,2
104.2,-6,-8,-41,0,-3,-3,-4,-6
104.205,-3,-4,1,2,-4,-5,-6,-2
104.21,-1,10,15,-5,-5,2,2,2
104.215,0,-14,-51,-2,8,1,-2,-2
104.22,3,-3,23,11,4,2,0,2
104.225,0,8,-16,2,0,2,2,-1
104.23,-1,-7,-3,-8,-2,0,2,2
104.235,-1,3,34,1,-5,-4,-3,-3
104.24,0,20,17,4,0,0,-2,1
104.245,5,-1,11,6,2,2,2,1
104.25,-4,-2,27,-2,5,0,-3,-3
104.255,-2,1,44,15,2,0,2,0
104.26,1,-7,-96,-22,-4,-1,-2,0
104.265,1,13,66,9,0,0,0,1
104.27,1,2,-22,-2,-4,-2,-2,0
104.275,0,5,-9,0,3,-3,1,0
104.28,-5,-7,-57,6,-1,3,-1,-4
104.285,1,17,84,4,-1,-4,-1,1
104.29,-4,-7,-41,-4,-5,-2,-1,-2
104.295,-2,-4,-34,-8,-1,-1,-1,-1
104.3,1,7,33,10,-1,-5,-4,0
104.305,-5,-4,17,4,-1,0,2,-2
104.31,3,-10,-99,-24,-2,3,1,-3
104.315,3,20,81,6,-2,1,-2,8
104.32,-14,-31,-37,-16,-2,1,4,28
104.325,-4,-9,38,2,-5,-7,-13,-30
104.33,4,11,66,-1,-2,-3,-2,-13
104.335,0,-2,64,11,-5,1,0,1
104.34,-1,-5,-12,-10,5,-2,-2,2
104.345,-7,-31,-51,-21,-7,-4,2,11
104.35,-5,-8,-47,-5,-1,-1,-1,-8
104.355,4,7,-20,3,3,-1,0,21
104.36,-2,4,19,7,-1,-1,1,-12
104.365,2,5,26,-1,-4,-2,-2,14
104.37,-2,-5,25,-1,-3,-2,-5,-14
104.375,-3,-6,-105,-13,-6,-3,0,-12
104.38,5,1,85,6,7,4,2,-1
104.385,3,11,13,-2,3,0,-1,-1
104.39,-3,-6,-28,-4,-2,0,0,3
104.395,-6,-12,-42,-5,0,0,-4,-1
104.4,1,2,-45,4,-6,-5,-1,-6
104.405,0,2,48,10,5,2,4,0
104.41,-4,-5,-5,-4,-2,-7,-3,8
104.415,-3,-7,-27,-16,-9,-4,-2,-8
104.42,1,-2,37,6,3,2,-3,-9
104.425,-1,-12,-18,0,-2,1,0,-1
104.43,1,17,32,16,5,0,3,6
104.435,-5,-12,-50,-8,-4,-2,-3,-9
104.44,4,15,67,5,-3,-2,-3,-5
104.445,-4,-8,-55,-6,-3,-5,-1,1
104.45,5,14,69,8,1,1,0,4
104.455,-4,-4,-40,-10,4,1,-2,1
104.46,-5,-7,-26,4,-4,-3,-2,-7
104.465,4,13,30,-3,-1,-2,3,7
104.47,-2,-13,-87,-7,-4,-2,-2,1
104.475,-2,7,127,-4,-1,1,6,-5
104.48,2,2,6,3,-3,-6,-9,8
104.485,-2,1,-19,-4,1,5,-3,-8
104.49,0,-16,-38,2,-2,0,0,0
104.495,1,-4,12,-1,1,-2,-3,23
104.5,0,4,35,6,-6,-4,-4,-21
104.505,-4,7,-18,-7,-2,-4,1,1
104.51,-1,-5,36,-6,1,-1,-8,-10
104.515,-5,-9,-12,-2,-3,1,-4,-7
104.52,7,5,8,2,5,4,9,56
104.525,-11,-9,6,-3,-5,2,-8,-43
104.53,-2,-9,-47,-4,-2,-4,-3,2
104.535,0,7,-6,4,0,-3,-2,-21
104.54,-4,3,22,-4,-1,0,10,0
104.545,2,-8,-50,0,0,-3,-6,18
104.55,-1,3,8,-3,-4,-8,6,-3
104.555,7,3,11,6,-4,9,3,20
104.56,-9,-10,-16,-11,-1,-4,1,-29
104.565,4,6,12,4,-1,-7,-23,-2
104.57,2,-1,23,-5,-3,2,2,4
104.575,-3,3,13,11,3,-23,-7,-4
104.58,-2,-7,-25,-22,-9,12,4,-7
104.585,1,-1,-37,0,4,15,4,3
104.59,-5,1,2,3,-1,-10,2,15
104.595,0,-1,-20,-2,-2,24,-10,-38
104.6,5,9,21,9,0,2,4,26
104.605,-12,-10,-66,-12,-2,-19,-5,-17
104.61,3,-8,-13,-1,-4,-14,-6,1
104.615,0,2,2,2,1,9,13,-1
104.62,-2,3,22,4,-2,-4,-15,-11
104.625,-1,0,15,-4,-4,4,7,11
104.63,0,1,12,1,1,3,-1,11
104.635,-2,-3,18,-1,1,-7,-1,1
104.64,-2,-7,-19,-5,-5,-4,-6,-15
104.645,3,0,9,5,1,12,19,17
104.65,-4,-3,-5,-4,-2,2,-25,-7
104.655,7,4,11,2,-1,-1,1,1
104.66,-7,-3,-2,1,2,-15,1,-10
104.665,-2,-5,3,0,0,3,-1,11
104.67,-10,-10,-14,-10,-10,-14,-1,-19
104.675,-3,1,7,1,4,2,14,5
104.68,-1,-1,-2,5,6,27,2,1
104.685,2,4,5,1,-2,-11,5,-4
104.69,-1,-4,19,-6,-8,-8,-2,-5
104.695,2,5,-13,0,-11,-89,-43,-1
104.7,-12,-14,-22,-12,-7,-4,14,-12
104.705,1,0,9,5,2,18,-7,5
104.71,2,6,17,6,13,58,44,-15
104.715,-1,2,15,5,-7,-11,-18,-19
104.72,-4,-18,-40,-15,-8,-60,0,5
104.725,0,1,32,3,1,11,-13,-14
104.73,-6,-2,-9,-6,-8,-39,-2,1
104.735,-1,-5,1,-3,2,5,-2,-2
104.74,12,15,-1,7,7,38,-10,8
104.745,5,2,31,4,2,24,30,34
104.75,-3,-4,-13,-9,0,-10,-13,-13
104.755,-12,-16,-9,-8,-8,-15,-24,-18
104.76,-4,-7,-12,1,1,10,-1,27
104.765,3,3,-4,-5,-1,-10,2,-8
104.77,4,2,-8,10,3,11,5,10
104.775,-9,2,4,4,7,46,32,-32
104.78,-3,-6,-6,-11,-11,-15,-37,-7
104.785,4,4,-3,-3,0,-9,-17,-16
104.79,-1,4,-5,3,3,19,19,15
104.795,-1,-2,18,-10,-6,0,4,17
104.8,3,12,13,18,11,23,16,5
104.805,0,-3,-12,-7,-12,-32,6,2
104.81,-8,-9,-1,-30,-3,7,-19,3
104.815,-3,2,9,22,12,17,-11,-2
104.82,7,9,15,-1,1,13,38,-7
104.825,-9,-2,26,2,-9,-24,-45,-10
104.83,2,-1,-61,-10,-7,-10,-6,13
104.835,-3,-3,8,11,-3,13,26,-5
104.84,-2,1,3,-16,-1,-14,-29,-13
104.845,1,3,12,7,-2,-12,12,-20
104.85,-4,-1,8,-56,-20,10,-16,4
104.855,-2,-6,-42,76,30,1,10,15
104.86,-9,-8,-22,-40,-5,-19,-32,6
104.865,0,2,-23,54,-10,-32,27,15
104.87,5,2,42,-18,15,18,32,-9
104.875,6,6,-7,-16,-14,-7,-40,-5
104.88,6,1,16,24,-3,-16,-10,-14
104.885,-5,-2,11,-13,-4,22,-15,-2
104.89,-8,-15,-21,2,0,-16,-11,1
104.895,8,10,28,-9,0,13,58,17
104.9,1,-7,1,-3,-8,-30,6,-2
104.905,6,8,-28,-26,9,-7,-3,14
104.91,-7,-12,-6,23,-8,-2,20,-65
104.915,-8,10,43,-15,-6,-2,-16,30
104.92,-7,-29,-26,-46,-15,1,38,-11
104.925,-1,4,-9,33,9,-6,-36,-9
104.93,-2,6,8,38,14,-3,-57,-13
104.935,6,10,35,-8,4,7,23,12
104.94,-3,-3,-45,-5,0,2,44,9
104.945,-8,-11,-7,-11,-2,13,22,-5
104.95,8,8,33,1,-1,-5,-36,32
104.955,5,-9,-29,17,2,9,21,-20
104.96,4,4,10,13,3,4,-47,-13
104.965,-2,-1,-10,-25,2,12,16,2
104.97,-4,0,18,23,2,-26,-13,6
104.975,-1,-8,-33,-31,-11,-16,-23,-2
104.98,-3,12,22,12,7,42,-5,-29
104.985,-1,-16,-48,3,-17,-43,12,37
104.99,11,8,23,3,13,87,46,13
104.995,2,-4,-13,-15,-2,-8,3,5
105,-8,-3,-12,15,6,-8,-17,-1
105.005,-15,-23,-24,-20,1,18,-28,-11
105.01,-7,2,7,-7,-14,-23,-30,-26
105.015,15,11,5,14,14,47,33,28
105.02,-1,-1,29,-1,-2,-1,3,-16
105.025,-1,2,30,-1,7,41,27,30
105.03,2,9,15,-17,-9,-28,-24,-22
105.035,-6,-13,-52,9,7,9,31,-7
105.04,2,12,44,16,-6,-8,-4,10
105.045,3,8,25,12,-2,9,-16,-9
105.05,0,-5,-27,-4,-4,17,54,1
105.055,-3,0,18,-25,-1,-20,-46,4
105.06,-7,-16,-43,-10,-19,-44,-23,15
105.065,12,10,30,-1,5,20,-1,-28
105.07,5,7,-4,17,1,-1,48,12
105.075,0,-10,-22,-12,-13,-16,-41,0
105.08,-2,-1,10,6,8,30,32,0
105.085,2,8,3,-9,0,-4,-28,-7
105.09,-3,-8,8,5,-7,-22,-30,2
105.095,1,8,13,0,3,20,54,4
105.1,-5,-13,-14,-5,1,4,12,-1
105.105,-2,-5,28,-3,-5,-24,-20,-9
105.11,2,3,-12,7,3,30,9,5
105.115,-16,-9,-35,-11,-12,-18,-38,-22
105.12,4,3,8,-3,-1,-7,22,10
105.125,-3,-8,-34,2,11,5,4,-11
105.13,-5,-4,-6,9,0,-14,-3,6
105.135,-1,-5,11,-30,-25,-11,-15,-5
105.14,1,7,4,26,18,-15,-40,-3
105.145,-3,-1,2,-2,-1,30,45,-7
105.15,-1,-7,-21,-7,0,-9,-16,17
105.155,1,5,7,-8,-5,-2,-8,-12
105.16,2,1,-2,1,-7,-8,2,-1
105.165,1,1,-16,-11,-3,-17,-1,8
105.17,-3,1,14,10,5,3,8,13
105.175,-7,-18,-29,1,-2,5,-3,-21
105.18,1,3,-21,-8,-6,1,2,1
105.185,0,0,7,-4,-4,-16,0,-2
105.19,3,5,13,-3,3,-2,-4,0
105.195,2,1,9,16,8,-8,-5,9
105.2,-2,0,-32,-4,0,8,-27,-11
105.205,-5,-2,22,-18,-12,-8,26,-1
105.21,4,9,3,25,1,-2,-4,2
105.215,-7,-16,-6,-17,15,1,0,-1
105.22,-1,4,1,-8,-6,-1,-5,1
105.225,-1,0,3,6,4,2,-3,-6
105.23,-4,-2,-5,-13,-15,-13,-3,-8
105.235,0,9,26,14,-8,-6,0,1
105.24,0,-1,7,-6,5,7,9,3
105.245,0,-7,-36,-15,-2,-10,-10,-3
105.25,-2,3,-26,4,3,-4,2,-3
105.255,-4,-5,0,2,-8,-5,-4,0
105.26,2,0,7,2,3,3,1,1
105.265,-3,-2,25,2,-3,-3,-8,-4
105.27,1,-6,-16,-8,2,-3,-4,-3
105.275,-1,3,0,-5,-5,-1,3,-1
105.28,0,1,19,1,-5,-1,2,-1
105.285,0,0,-12,3,3,-1,-1,-1
105.29,-3,-8,2,-2,-1,-5,0,-3
105.295,2,1,-6,-6,-3,-5,-4,-1
105.3,2,3,14,1,-1,1,2,0
105.305,0,-2,2,4,1,-1,-2,-1
105.31,-3,-8,-3,-11,-5,-4,0,-1
105.315,0,5,8,3,1,-2,-1,-2
105.32,0,5,18,5,2,1,-2,0
105.325,0,-2,-26,-4,4,0,0,-1
105.33,-1,-1,9,-3,3,0,1,-2
105.335,-3,-1,4,8,-1,-3,-2,0
105.34,1,2,3,-3,-6,-2,0,0
105.345,-4,-9,-4,0,-7,-5,-5,-2
105.35,1,0,0,-3,3,1,1,1
105.355,1,3,-1,0,-1,-1,-3,1
105.36,-1,-4,-9,0,-1,1,2,-3
105.365,-4,1,1,0,-8,-5,-5,-3
105.37,-2,0,5,-4,-1,-2,-3,-2
105.375,2,1,2,-4,3,2,2,-1
105.38,-5,-8,-12,-7,-1,-2,-2,-2
105.385,0,7,9,-5,2,2,-1,0
105.39,-1,-6,3,14,4,-2,-1,0
105.395,-2,-1,-3,-16,-6,-3,-5,-1
105.4,0,-2,5,4,-3,-2,1,0
105.405,-2,3,38,10,-1,-3,0,-2
105.41,-1,1,-49,-19,-7,-5,-1,-2
105.415,-1,10,3,7,0,-2,-1,-1
105.42,-3,-16,-65,3,2,2,-1,-2
105.425,-5,-15,12,-4,-5,-5,-5,-8
105.43,2,-2,-30,4,-2,0,1,2
105.435,2,22,39,-8,-1,-1,-1,0
105.44,-2,-11,-66,0,0,0,-1,-1
105.445,-2,9,19,-3,-2,-1,-1,-2
105.45,-1,-9,8,2,-2,-1,-1,-1
105.455,-8,-16,-51,-7,-4,-1,-2,-4
105.46,3,20,49,8,7,2,2,2
105.465,-3,-21,0,-4,-4,-5,-5,-1
105.47,-1,3,22,-1,1,2,1,-1
105.475,-1,-8,3,5,1,2,2,1
105.48,-5,-3,-29,-6,-4,0,-2,-2
105.485,1,3,-16,0,-2,0,-1,-1
105.49,2,7,27,-4,-4,-3,-2,1
105.495,-4,-19,-26,-3,0,0,-1,-1
105.5,0,7,17,3,0,0,0,0
105.505,1,0,-6,3,3,1,1,1
105.51,-3,-1,2,-2,-1,-1,-1,-3
105.515,0,-5,28,6,-1,-2,0,0
105.52,-3,-1,-6,-15,-7,-7,-6,-4
105.525,1,0,-23,4,2,3,0,1
105.53,-1,10,28,0,0,-1,-3,-1
105.535,-3,-8,-25,-3,-3,-4,-3,-3
105.54,-2,-3,43,-6,-5,-1,-1,0
105.545,-3,-6,-32,1,4,1,0,0
105.55,-1,5,6,4,-2,-3,-2,-2
105.555,2,-1,-35,-9,-1,-2,0,0
105.56,1,4,16,2,-4,-2,-1,-2
105.565,0,7,-7,-3,-1,0,-1,0
105.57,-1,8,3,0,0,5,17,-1
105.575,-5,-1,5,1,-1,0,-15,0
105.58,0,-19,-8,0,1,2,42,4
105.585,-2,1,20,-10,-4,-19,-50,-5
105.59,-1,-5,-9,3,-3,-2,-5,-2
105.595,4,16,3,-10,8,2,1,-4
105.6,-9,-10,17,4,-2,3,10,-1
105.605,0,-42,-42,-2,5,5,18,4
105.61,-7,20,-16,-26,-15,-8,-7,-5
105.615,3,4,8,4,-6,-19,3,-1
105.62,6,4,49,-2,7,31,-11,1
105.625,-6,-10,-24,-13,-6,-2,7,-3
105.63,2,-7,6,26,7,2,-8,2
105.635,-4,-14,-47,10,4,2,7,0
105.64,-3,17,31,-12,-5,-16,-17,-3
105.645,-1,7,-33,0,-3,1,3,0
105.65,3,-9,-20,-2,1,3,8,3
105.655,-1,2,-1,2,-3,-1,-1,1
105.66,0,-5,15,1,-2,-8,-9,-4
105.665,-1,7,-14,4,5,5,7,1
105.67,-1,0,2,3,1,-7,-5,-2
105.675,-4,-8,45,-7,-4,2,1,0
105.68,0,6,-20,1,1,-4,-8,0
105.685,1,19,44,8,-1,2,4,-3
105.69,-3,-18,-40,-13,-4,-5,-5,-3
105.695,-3,6,40,-8,-2,0,-6,-3
105.7,1,-7,-33,-12,-3,-6,-1,0
105.705,-3,0,37,17,2,-2,1,-3
105.71,4,24,26,5,6,2,3,2
105.715,-2,-33,-3,-6,-8,0,-1,-1
105.72,-6,-17,-44,-2,1,-8,-5,-4
105.725,7,29,61,-8,-8,-3,0,0
105.73,-4,-19,-3,2,1,0,-4,-1
105.735,-3,5,-27,-9,-1,0,1,-2
105.74,-2,1,9,9,1,-2,-2,-3
105.745,0,-4,-39,2,1,1,0,1
105.75,-3,-11,29,0,-2,1,0,-1
105.755,5,19,2,8,2,-1,-2,0
105.76,0,-3,3,0,-8,-5,-4,-3
105.765,-4,1,19,-6,6,3,1,-2
105.77,-2,-9,-94,-9,-2,-2,0,-2
105.775,-2,6,61,3,-2,-1,-1,-1
105.78,1,7,-35,0,-1,-2,-2,0
105.785,-2,-8,5,-4,-5,-3,-1,-2
105.79,-1,3,-2,1,1,0,-2,-2
105.795,1,-2,14,3,2,0,2,2
105.8,-2,-2,-13,0,0,1,-4,0
105.805,1,1,-23,-6,-4,-3,0,-2
105.81,-4,-5,22,-3,-4,-1,-1,1
105.815,0,2,-7,0,-1,1,0,-1
105.82,1,-4,13,3,2,-1,-1,2
105.825,-1,-5,-23,3,2,1,1,1
105.83,-1,-4,29,3,1,1,-1,-3
105.835,0,-1,-41,-4,-3,1,1,0
105.84,1,6,23,3,-1,-1,-3,-2
105.845,-3,-2,20,-5,-2,-1,-2,-1
105.85,1,4,-6,-6,-5,-5,-3,-3
105.855,-2,-5,-8,5,1,1,0,-1
105.86,-1,0,-1,-3,1,-2,-1,1
105.865,4,3,10,4,-3,0,0,0
105.87,-2,-3,6,6,4,-5,-2,0
105.875,-2,-3,-6,0,-6,-4,0,-4
105.88,3,7,-23,3,0,6,4,1
105.885,-4,-6,13,-11,-6,-4,-3,-2
105.89,-1,0,34,-4,-3,-1,1,0
105.895,-1,-1,-23,0,2,-6,-6,-2
105.9,0,5,13,7,1,-2,1,-1
105.905,-1,-2,-16,-1,1,-1,-3,0
105.91,-1,-3,7,-5,-2,2,8,0
105.915,1,1,7,-5,0,-4,-7,0
105.92,-2,-3,2,-1,0,5,-2,-1
105.925,-4,0,3,2,-3,-8,0,0
105.93,-3,-5,-21,-6,-4,5,-7,-4
105.935,-2,0,6,0,0,4,7,0
105.94,-2,-4,-15,-10,-1,2,13,-1
105.945,0,-2,-2,4,1,-8,-1,-3
105.95,-1,2,-4,0,-5,-2,4,-1
105.955,-2,-7,-14,-2,4,3,-10,-4
105.96,-4,0,13,0,-4,-15,-46,-10
105.965,3,-7,-10,-3,6,14,23,10
105.97,-4,4,7,-7,-3,-3,-2,-10
105.975,1,5,13,5,-1,-2,-3,4
105.98,-5,-15,-2,-9,-6,1,25,-2
105.985,-2,-3,-23,-2,-7,-2,-13,2
105.99,8,14,40,10,9,1,-11,-2
105.995,-4,-13,-35,-13,-4,-3,9,-3
106,1,-4,-12,2,3,5,19,3
106.005,2,8,5,1,3,4,9,1
106.01,-3,-12,1,-4,-3,-3,-14,-1
106.015,2,9,13,2,-3,2,-1,-1
106.02,6,0,5,6,4,-3,16,4
106.025,-4,-1,-2,-1,-5,0,-1,-4
106.03,-3,-1,-15,-9,0,-14,5,7
106.035,-5,-2,4,-1,-4,0,12,-6
106.04,11,5,2,6,8,46,6,4
106.045,-16,-3,-6,-5,-8,-29,-80,-20
106.05,-2,0,-20,3,0,26,31,16
106.055,6,-9,10,-6,-14,-35,-38,-17
106.06,-7,2,23,-1,2,-1,19,2
106.065,3,3,-24,4,9,-8,-25,-6
106.07,-6,-5,19,-6,-9,-2,-4,-4
106.075,-5,-9,-29,-5,0,8,4,3
106.08,3,-3,-11,1,-6,-31,-6,6
106.085,4,7,-6,-2,-4,37,39,-6
106.09,11,13,47,6,-3,-37,-47,-3
106.095,-3,-9,-16,-4,10,32,35,5
106.1,-8,4,-11,-9,-3,-10,-32,-9
106.105,-3,-9,-5,-1,-2,-12,7,11
106.11,4,4,-4,0,1,15,21,5
106.115,5,14,34,11,5,23,-4,12
106.12,-9,-9,-23,-9,-6,-28,-6,-14
106.125,24,7,15,-1,-5,4,-23,-7
106.13,-14,-16,-32,-4,1,39,-6,-16
106.135,-18,1,12,2,-1,-26,17,3
106.14,12,-8,1,-10,-7,-8,0,-1
106.145,-24,-1,4,4,5,10,29,3
106.15,2,-7,-10,-7,-4,-21,24,7
106.155,-2,3,-17,10,5,11,-34,-15
106.16,3,8,60,5,-7,-19,-6,-2
106.165,1,-16,-42,-13,-7,-6,33,-1
106.17,5,-6,-46,-14,6,20,18,9
106.175,-2,2,5,4,-3,-25,-30,-2
106.18,10,20,33,3,-2,-3,0,0
106.185,0,-11,-4,6,-1,2,3,4
106.19,-12,-11,-28,1,5,8,-1,4
106.195,9,1,18,-5,-2,-3,46,2
106.2,7,-1,-20,-3,-11,-21,-74,-9
106.205,-24,5,32,4,7,18,0,-7
106.21,-15,-18,-28,-6,-13,-22,-14,-27
106.215,-8,-3,6,-8,-13,-5,-32,-6
106.22,-1,-11,-19,-8,2,-34,16,6
106.225,22,21,20,11,-1,-7,-34,5
106.23,-1,-12,-5,-11,2,-11,-36,-6
106.235,3,3,12,2,2,15,23,11
106.24,-20,-1,-3,5,-2,50,-4,-13
106.245,9,-9,-53,-10,2,-11,-4,0
106.25,1,20,52,8,-5,-11,29,-1
106.255,0,-9,-6,1,6,-4,19,5
106.26,1,0,1,-10,-7,9,-10,3
106.265,-4,1,17,7,-4,-17,-40,-6
106.27,18,9,12,0,1,7,-31,-3
106.275,-20,-3,-18,-5,-6,-9,70,-10
106.28,-6,-9,-6,10,4,-9,-43,-6
106.285,-16,9,34,-2,5,30,4,1
106.29,10,11,14,5,2,-20,-75,9
106.295,6,-6,-22,-2,-2,1,34,-5
106.3,-8,0,-5,0,6,31,123,44
106.305,-5,-19,-4,-9,-14,-45,-97,-54
106.31,16,17,-6,9,2,14,93,17
106.315,2,2,12,-9,7,18,-50,-10
106.32,3,-2,5,4,-1,-27,1,2
106.325,2,-5,-11,-9,2,19,22,12
106.33,-3,-7,4,-1,1,8,45,4
106.335,-8,5,19,9,-1,-27,-32,-4
106.34,-5,-22,-90,-15,-6,5,-18,-8
106.345,6,1,8,10,14,-2,47,15
106.35,-10,0,10,4,-4,-9,-25,-17
106.355,14,12,58,6,-4,12,52,18
106.36,-11,-10,-57,-7,-5,-17,-102,-23
106.365,-6,6,45,0,0,1,14,3
106.37,-10,-14,-41,-5,-8,-22,3,-7
106.375,8,11,30,2,-6,-20,-30,3
106.38,-3,-7,37,2,3,8,-24,-8
106.385,-1,-8,-38,-12,-4,-2,0,3
106.39,-3,1,5,3,-1,10,-15,1
106.395,6,5,0,1,0,17,10,11
106.4,-9,-6,-4,-9,2,-5,22,-21
106.405,10,2,-7,3,-7,-5,4,12
106.41,-8,-9,-17,3,5,2,-71,-14
106.415,5,-3,-15,-10,-4,-6,11,-6
106.42,-2,16,44,11,6,13,30,8
106.425,-3,4,8,9,5,35,32,1
106.43,2,0,-21,-12,-12,1,17,7
106.435,3,-24,-38,1,16,-12,-29,0
106.44,7,16,29,14,-3,7,-4,3
106.445,-8,-4,-16,-17,-7,-14,26,-8
106.45,7,8,28,3,-3,3,68,17
106.455,-9,-3,-19,-7,-8,-22,-31,-6
106.46,10,1,20,0,-1,11,57,3
106.465,-9,-6,-7,-5,4,-11,-5,-3
106.47,-1,-9,-26,2,-2,-19,-3,-4
106.475,-6,-1,0,-4,-6,12,-13,-14
106.48,-8,0,-14,-4,0,10,52,2
106.485,-5,-20,-34,-9,-18,-10,7,1
106.49,-6,3,27,-4,6,-5,-54,-19
106.495,3,4,10,2,-3,14,29,12
106.5,6,9,-25,0,0,-4,-33,2
106.505,9,5,31,5,2,9,47,11
106.51,6,-5,-3,-1,0,-9,12,7
106.515,-6,4,-9,-5,-3,-7,-24,-5
106.52,-6,5,2,7,-5,-8,-14,6
106.525,7,3,16,-7,1,-7,-7,-8
106.53,-13,-9,8,2,1,-9,39,1
106.535,7,-5,-21,2,1,19,22,3
106.54,2,-2,5,-14,-7,-9,-27,-10
106.545,-15,-3,-6,0,-9,-19,-11,0
106.55,-7,-6,-9,1,2,37,-6,2
106.555,-6,5,1,0,6,16,47,19
106.56,18,-4,0,-1,3,-9,21,3
106.565,0,2,14,8,2,1,-8,-8
106.57,0,1,1,2,-3,-8,12,2
106.575,-14,-16,-15,-12,-7,2,-60,-18
106.58,-8,-4,-6,-6,-2,12,15,3
106.585,6,5,20,7,5,-29,-37,6
106.59,-2,-6,-21,-1,9,42,12,-8
106.595,10,4,5,0,-2,-13,36,9
106.6,1,2,13,4,2,-13,-19,2
106.605,-5,-5,-33,-6,-4,28,7,-5
106.61,9,0,3,-10,-5,-21,-18,-7
106.615,-15,-9,-31,5,-1,-7,-25,-6
106.62,-9,-9,2,-2,-8,-9,24,0
106.625,4,2,-3,-4,1,-16,-4,2
106.63,11,7,7,4,8,10,43,-2
106.635,9,5,-8,5,0,-27,-81,-2
106.64,-7,-1,19,7,4,16,5,-7
106.645,-3,-5,2,6,-2,16,4,12
106.65,-9,-2,-9,-4,-7,-13,3,-2
106.655,0,0,13,-2,-2,-3,-1,2
106.66,3,2,-13,-1,-2,-5,-25,-10
106.665,2,0,-10,-10,6,11,5,3
106.67,-7,0,15,0,-5,-5,5,4
106.675,1,5,4,5,3,11,18,0
106.68,1,-10,-9,-4,-1,-6,0,13
106.685,3,2,2,2,5,10,4,-11
106.69,-6,0,6,1,-4,-21,-9,2
106.695,-2,-6,-8,-3,4,25,17,-7
106.7,-6,-3,7,-14,-13,5,13,-9
106.705,3,5,-1,4,3,-18,14,10
106.71,-8,-4,1,-6,0,-8,-32,-1
106.715,1,6,16,-2,-2,-14,-7,-3
106.72,-6,-7,6,2,0,-7,-31,-14
106.725,2,-2,2,0,-8,4,12,6
106.73,-4,-1,2,-2,-3,-8,-15,-5
106.735,2,3,-4,-4,-3,6,-15,-8
106.74,0,-4,-8,-6,1,13,35,2
106.745,5,1,-4,-3,-1,-7,-15,-11
106.75,-13,-2,5,3,0,-10,-28,3
106.755,-1,-4,-8,4,5,17,30,4
106.76,3,7,13,4,-4,-5,-15,-4
106.765,3,-1,-10,-2,1,23,-11,15
106.77,11,-2,-7,-6,-2,10,-36,-18
106.775,-2,-1,-11,0,2,-8,9,1
106.78,-13,-3,-13,0,0,0,16,-7
106.785,4,-8,-4,-8,-6,-31,-21,-14
106.79,0,6,9,9,-2,2,9,11
106.795,-3,-10,-15,-14,-8,3,3,8
106.8,7,5,18,10,10,-2,20,-4
106.805,-7,-8,9,3,-4,-3,-15,-6
106.81,-5,3,-27,-7,-2,5,-5,0
106.815,1,-3,4,-1,-2,7,30,-6
106.82,-1,0,-9,-2,-1,-7,-32,7
106.825,-5,0,-1,3,6,10,16,-7
106.83,1,-7,-3,-5,-9,-21,6,-7
106.835,1,4,14,4,5,9,3,-3
106.84,-4,-5,-22,3,4,-2,-7,17
106.845,-3,2,3,-1,-7,-1,11,3
106.85,0,-6,-1,-2,2,5,1,-3
106.855,-5,-6,-15,-7,-14,-22,-27,-11
106.86,2,1,-19,-4,5,5,-12,1
106.865,-2,4,18,4,2,9,28,-1
106.87,4,3,1,0,4,14,-15,12
106.875,-5,-10,-11,-7,-11,-32,-1,9
106.88,0,1,-16,-3,0,2,-2,-9
106.885,-6,-3,8,-4,0,2,0,-2
106.89,-1,-7,1,-2,-6,-17,-41,-16
106.895,-2,1,-4,2,3,9,31,11
106.9,3,0,13,-5,-4,19,40,8
106.905,0,5,1,0,5,-12,-52,-8
106.91,-2,-3,14,11,-1,-6,23,-2
106.915,1,-3,-11,-1,0,1,-23,-20
106.92,-4,5,27,-1,-3,-12,23,2
106.925,-7,-22,-89,-17,0,-13,-76,-11
106.93,0,6,12,-11,-8,8,51,23
106.935,3,7,17,8,5,-9,-21,-14
106.94,1,-3,21,6,0,1,3,-7
106.945,-2,-4,-37,-6,-12,0,3,0
106.95,-3,-3,-19,0,-3,-8,-22,-8
106.955,-2,7,40,8,-1,-7,-17,12
106.96,-2,-6,-50,-18,3,3,-8,1
106.965,-4,2,39,2,-8,-27,-4,-11
106.97,0,-10,-17,-7,3,16,21,6
106.975,-2,2,-10,6,8,15,26,-7
106.98,0,1,8,1,-5,-3,-12,-4
106.985,-8,-5,15,-9,-12,-4,30,-4
106.99,9,12,2,5,7,-5,6,7
106.995,-4,-8,3,-10,-8,-12,-27,-5
107,-2,-1,3,12,3,6,-9,0
107.005,-3,3,38,-2,-4,-21,10,-4
107.01,1,0,-7,0,0,3,-24,3
107.015,-1,-9,-24,-9,-4,11,8,2
107.02,-4,-8,-3,-6,-2,-16,-21,-7
107.025,6,5,19,10,7,11,12,9
107.03,-4,4,7,-4,0,-2,12,-11
107.035,2,0,-5,3,1,3,9,9
107.04,4,-3,-12,-5,-5,-7,-18,-3
107.045,1,5,21,15,3,14,6,-1
107.05,-2,-1,20,-4,3,-4,2,-5
107.055,-8,-3,-19,-1,2,11,-40,-5
107.06,-1,-1,5,0,-2,-12,-31,5
107.065,3,3,-13,0,-3,5,-8,3
107.07,-3,-10,-5,0,1,14,6,-2
107.075,-1,4,11,-4,-2,-14,-4,5
107.08,0,-6,-25,-10,-3,1,-4,-7
107.085,-2,-3,-5,1,-3,-6,7,4
107.09,3,6,1,3,5,1,-7,1
107.095,0,0,13,3,0,2,7,-4
107.1,-4,4,9,-2,-1,2,4,0
107.105,-1,-5,-4,-11,-6,4,9,0
107.11,-1,1,2,-4,-5,-5,3,-2
107.115,0,-1,0,4,3,-1,1,-1
107.12,-1,3,-5,10,4,2,7,1
107.125,-4,-15,-33,-11,-3,1,-2,0
107.13,1,6,26,6,0,-6,-6,-2
107.135,-3,-1,7,-5,-1,-1,-3,-1
107.14,-3,-2,1,3,-2,0,0,1
107.145,3,8,11,-15,-4,3,4,1
107.15,-3,-6,-33,2,-5,-2,-2,-2
107.155,3,4,13,6,0,-1,3,0
107.16,-2,-5,-28,-2,3,0,4,0
107.165,3,3,-14,4,0,1,5,1
107.17,0,-4,17,-7,0,-2,-1,-3
107.175,-1,-1,-11,2,4,0,1,2
107.18,-3,-1,10,-4,-4,-3,-8,-3
107.185,0,-1,6,9,2,5,8,1
107.19,1,4,-26,-1,-3,-2,-6,1
107.195,-3,-8,-1,-2,-2,-3,-2,-3
107.2,-2,0,27,-6,-4,-2,2,0
107.205,0,3,-4,-5,-1,-2,3,-2
107.21,-1,-5,-13,4,2,3,2,-1
107.215,-3,-5,-18,-11,-1,-3,-2,-2
107.22,-2,6,16,-5,-4,-1,-2,-2
107.225,0,-3,12,8,6,1,-4,-1
107.23,0,-8,3,1,-3,-2,-1,-1
107.235,-2,7,-14,-3,-1,-1,1,-2
107.24,1,4,21,8,-4,-1,0,0
107.245,-1,-7,-28,1,6,1,-2,0
107.25,-5,-19,-16,-20,0,-3,-2,-1
107.255,1,15,39,8,-4,-2,0,-1
107.26,-1,1,19,2,-2,-3,-1,-4
107.265,0,2,-9,3,0,3,-1,0
107.27,-2,1,-11,3,2,-1,0,0
107.275,1,1,-7,-11,-5,-2,0,-2
107.28,-1,-9,7,3,-3,-1,1,1
107.285,-11,-33,-15,-14,-7,-4,-5,-5
107.29,1,5,17,2,-5,-2,-1,-3
107.295,-1,0,-20,-1,0,1,0,2
107.3,-1,3,-13,-4,0,-1,-1,0
107.305,1,11,52,14,4,0,0,0
107.31,0,2,-1,-4,-7,-3,-1,-1
107.315,-1,-5,33,-5,-2,-3,-4,-2
107.32,4,9,17,-3,5,6,4,2
107.325,-8,-21,-57,11,-1,-5,-3,-4
107.33,1,2,15,-14,-4,-2,0,0
107.335,-1,-6,20,2,-4,-3,-2,-2
107.34,-1,-1,-60,-8,-1,0,1,1
107.345,6,26,48,-8,-5,-1,0,0
107.35,-3,4,-25,21,6,1,2,0
107.355,0,-8,-2,7,-2,-2,-2,-1
107.36,-11,-34,10,-39,-6,-3,-3,-6
107.365,2,4,-20,9,2,0,-1,0
107.37,3,7,43,7,2,3,1,2
107.375,-5,-7,-36,-15,-5,-4,-4,-4
107.38,2,3,38,17,2,0,0,2
107.385,-3,-1,-4,-3,-5,-1,-1,-2
107.39,-2,1,1,3,4,-1,-1,0
107.395,0,-5,7,3,0,-2,0,0
107.4,1,-8,-13,2,2,-17,0,-2
107.405,0,11,26,-11,-2,7,-2,-2
107.41,0,-5,-41,-3,-3,0,-2,-1
107.415,-3,-1,-17,6,1,-1,-1,-2
107.42,-2,-1,2,9,-3,-8,-2,0
107.425,1,-2,-62,-31,-3,-3,0,2
107.43,-2,-6,-2,7,0,0,-2,-5
107.435,2,9,-11,-6,0,-1,0,2
107.44,-2,-14,-47,-2,1,6,0,0
107.445,4,12,75,16,4,2,1,3
107.45,-5,-14,-22,-21,-8,-1,-3,-3
107.455,-1,17,24,4,-1,-4,-3,-6
107.46,1,-7,-2,-14,-5,1,-1,-3
107.465,-3,-9,-66,0,-1,-3,-1,-4
107.47,5,7,27,7,6,1,3,3
107.475,-1,-1,-9,-3,-2,1,0,0
107.48,-11,-22,13,4,0,3,-2,-4
107.485,7,19,57,14,0,-2,2,4
107.49,-1,-2,-91,-9,-3,-3,-1,-2
107.495,1,-2,-22,-3,6,3,1,0
107.5,3,20,24,4,-7,0,-3,1
107.505,-5,-15,-4,-14,3,0,-3,-3
107.51,0,4,60,17,0,-2,-1,-1
107.515,-5,-19,-56,-24,-7,-4,-4,5
107.52,-3,9,-23,17,3,-2,-2,-14
107.525,-4,-11,-58,-1,3,-1,0,3
107.53,3,9,74,-5,-2,1,0,1
107.535,-4,-4,51,0,-3,-4,1,-13
107.54,1,-7,-45,1,-5,0,-1,11
107.545,-1,7,-24,-1,2,0,-3,-8
107.55,1,1,47,-12,-4,-1,-1,2
107.555,-1,-21,5,14,3,-3,-1,3
107.56,1,16,-3,-5,-2,1,-3,-4
107.565,2,-3,10,6,-7,-1,0,0
107.57,-3,-1,-119,-6,4,0,-1,1
107.575,0,6,44,-5,-9,-2,-1,-1
107.58,2,6,-56,10,12,6,2,2
107.585,3,7,62,11,3,1,0,3
107.59,-5,-2,-19,0,-2,-3,-3,-5
107.595,-2,-1,-20,-11,-4,-1,0,-1
107.6,3,3,-18,-13,2,-2,1,3
107.605,-1,-7,-9,48,8,1,2,0
107.61,-3,7,21,-8,-9,-5,0,-2
107.615,1,5,31,3,0,2,0,2
107.62,-2,-16,-23,-11,0,-1,-1,1
107.625,-1,14,40,-7,-5,-3,-1,-2
107.63,-4,-16,-96,-14,-5,-4,-4,-4
107.635,2,9,61,12,4,1,1,-1
107.64,1,-3,3,0,-6,0,0,1
107.645,-3,-1,-28,-23,-3,-3,-4,-4
107.65,-1,-8,-17,6,2,2,1,2
107.655,0,-1,17,-5,-1,-3,-5,-2
107.66,4,18,78,12,1,0,1,0
107.665,-5,-19,-80,-23,-9,-4,-3,-2
107.67,-4,5,75,9,-3,-5,-3,-3
107.675,-4,-11,-6,-15,-3,-3,-2,-2
107.68,-4,-2,80,16,1,1,-1,-1
107.685,5,5,-67,-18,-1,-1,2,2
107.69,-8,-24,-24,-13,-5,-5,-3,-7
107.695,2,7,-15,4,0,2,0,2
107.7,-1,-4,66,16,6,2,0,-3
107.705,-2,0,-37,-6,-4,-1,-2,0
107.71,2,13,82,6,-3,-4,-2,0
107.715,-4,-1,-50,-2,-5,1,1,-1
107.72,0,-3,25,1,3,0,-1,-1
107.725,-2,-9,-88,4,5,3,2,0
107.73,9,27,106,18,1,-1,0,3
107.735,-3,-9,26,9,5,1,-1,1
107.74,0,-5,-4,-11,-4,0,0,1
107.745,-2,11,40,11,2,0,-2,-2
107.75,1,-7,-45,4,1,0,0,-2
107.755,-4,0,-36,-2,-4,-4,-4,-5
107.76,4,17,0,-3,0,0,0,0
107.765,-1,-14,67,-12,-8,-3,-2,-1
107.77,-6,-17,-55,-17,-5,-3,-3,-5
107.775,1,-4,-44,-9,-2,1,1,-1
107.78,1,8,50,-1,-4,-1,-1,-1
107.785,-3,4,28,6,-5,-4,-1,-2
107.79,-5,-10,-41,-14,-4,-2,-2,-3
107.795,4,-4,-9,1,11,6,4,3
107.8,-7,-1,42,-3,-7,-7,-5,-8
107.805,1,0,37,-2,-2,-1,0,0
107.81,0,-7,-71,-3,-5,-2,0,0
107.815,-2,8,-98,-11,-7,-4,-2,-1
107.82,-2,-19,-65,-6,-2,-4,-4,-3
107.825,-2,-3,37,2,-2,0,0,1
107.83,-1,-11,-32,1,4,1,1,-1
107.835,1,2,1,4,0,-10,-9,1
107.84,-3,6,-18,-4,-3,3,3,-1
107.845,-3,-3,-7,-10,-5,-7,-3,-4
107.85,2,3,10,0,-2,-7,-4,1
107.855,0,-3,95,13,5,-7,-6,-1
107.86,1,-1,-18,2,9,46,16,7
107.865,2,-9,-86,-12,-1,-5,-3,-4
107.87,-4,2,117,0,-4,1,1,-4
107.875,-1,5,13,4,-4,-13,-12,0
107.88,0,-2,-52,-9,-4,-29,-15,1
107.885,-2,0,-5,3,0,18,18,-1
107.89,2,5,2,4,2,3,-5,4
107.895,3,0,-69,-6,-3,8,9,22
107.9,-12,-6,49,-6,-6,-9,-9,-34
107.905,2,2,-39,7,-1,-2,-4,-4
107.91,2,4,43,-2,-1,-7,0,-3
107.915,0,-3,-11,-6,1,8,6,3
107.92,5,1,-38,-2,1,-8,1,10
107.925,-5,-6,-8,0,-8,-3,-6,-2
107.93,-1,-3,61,-2,-6,0,2,-3
107.935,-3,-9,-20,6,3,5,2,-8
107.94,4,8,10,1,2,-14,-6,3
107.945,-5,-5,2,-9,2,6,-5,-3
107.95,7,9,-4,5,3,23,10,6
107.955,-8,-12,1,-5,-7,13,11,-8
107.96,-3,-3,-25,0,0,-3,7,-2
107.965,5,6,44,2,1,-4,-3,5
107.97,-4,0,-46,2,2,-17,-13,17
107.975,-2,2,28,3,-1,-16,0,-27
107.98,-3,-1,-14,-1,-4,23,2,-17
107.985,2,-7,-12,-8,-4,1,0,10
107.99,0,-3,-14,-1,7,17,3,0
107.995,1,0,-3,-2,-7,-17,-1,1
108,0,1,33,4,-2,-11,-19,14
108.005,-2,6,10,7,-2,-17,-3,-19
108.01,1,-1,-46,-6,-4,24,9,7
108.015,-1,-3,71,3,-1,-5,-1,-14
108.02,2,0,-45,-11,1,-2,-4,26
108.025,-1,0,25,8,5,-2,-1,-4
108.03,0,2,-4,-1,-4,-9,2,-3
108.035,-1,-3,-17,-6,4,8,-6,10
108.04,-2,-1,-19,-6,-6,0,8,1
108.045,-1,-6,88,0,-7,-14,-45,-11
108.05,-4,4,-13,-2,3,-11,37,-14
108.055,-1,0,-19,-3,-4,6,-40,15
108.06,-3,-17,8,-5,-8,5,14,52
108.065,-12,-11,-9,-15,-4,2,17,-19
108.07,-2,3,17,3,-3,-19,-14,-48
108.075,5,4,-7,6,6,16,2,14
108.08,0,-1,-12,-2,-1,-26,-26,8
108.085,7,4,7,2,-2,10,44,66
108.09,-24,-12,-12,-4,-4,-8,-58,-80
108.095,1,2,1,1,4,15,40,21
108.1,4,9,12,3,2,14,10,-20
108.105,0,-11,2,-3,-5,-27,-32,0
108.11,0,2,6,-12,-16,-11,-4,25
108.115,-2,-10,-32,-2,0,-7,-9,-18
108.12,0,1,-18,0,6,-8,-6,-14
108.125,2,5,16,13,8,14,25,-13
108.13,-7,-17,-72,-10,-9,-14,-8,13
108.135,1,-4,42,-4,-3,-3,-12,-12
108.14,4,6,11,-1,-3,-4,13,-3
108.145,-10,-2,5,2,2,6,2,-11
108.15,9,3,-49,-5,4,3,1,18
108.155,-4,0,29,1,-7,-10,16,-21
108.16,0,-6,-16,2,0,-9,14,54
108.165,-11,0,7,0,2,14,-2,-65
108.17,12,-2,22,2,-4,-2,-37,21
108.175,-2,3,2,11,7,-10,-22,-44
108.18,3,-2,-2,-9,-1,11,42,57
108.185,-13,-1,-10,-1,2,-5,-27,5
108.19,1,2,19,4,-1,-10,5,-12
108.195,3,3,-9,-4,-4,8,0,5
108.2,-9,-9,-27,0,-3,1,-11,-53
108.205,8,11,35,12,-3,-3,3,20
108.21,-6,-17,11,-8,2,-11,1,5
108.215,-3,-5,-48,-9,-3,3,14,7
108.22,-3,2,-21,3,1,6,-8,-24
108.225,4,-2,-14,-2,2,2,-3,34
108.23,-1,3,17,17,10,8,15,-6
108.235,-4,-2,17,-3,-7,0,0,6
108.24,-2,0,20,-16,-9,-6,-3,-16
108.245,-2,0,-12,-5,1,-13,-17,-13
108.25,2,0,-16,6,3,5,38,36
108.255,-7,-5,-3,-3,-4,-4,-31,2
108.26,11,10,-2,7,3,14,-1,-21
108.265,3,-1,1,-10,-10,-15,-29,24
108.27,-3,3,13,4,14,27,34,-1
108.275,-16,-15,-25,-13,-20,-23,4,13
108.28,-6,-10,7,-1,-3,-25,13,-46
108.285,9,10,2,7,2,1,-23,2
108.29,9,18,29,8,8,22,6,8
108.295,8,4,-22,5,14,-11,-25,10
108.3,-5,-8,-13,1,-1,11,11,6
108.305,-10,-6,0,-3,-7,2,12,-27
108.31,-4,-9,-3,-14,-14,-20,-5,0
108.315,13,15,41,15,8,20,18,9
108.32,5,0,-3,-11,2,-10,-20,19
108.325,-4,-1,-42,3,6,14,8,-30
108.33,-8,-3,21,-8,-12,-12,-16,9
108.335,10,12,13,5,3,0,-12,-8
108.34,-23,-14,-15,-2,-5,0,-19,-30
108.345,-1,-9,1,10,8,18,39,-3
108.35,6,-3,-25,-2,4,-1,-13,-6
108.355,3,-2,9,-7,-5,8,30,10
108.36,-8,-4,-9,0,-2,-8,-24,-34
108.365,3,1,7,-6,-6,-15,9,4
108.37,-9,-5,-5,-3,2,-2,0,8
108.375,6,7,14,1,-3,7,-14,52
108.38,-2,1,-11,1,-3,-6,-12,-13
108.385,2,-8,-22,-8,4,10,0,15
108.39,-8,-4,15,11,5,7,-10,-1
108.395,4,-3,-17,-12,-6,-15,11,-19
108.4,-3,7,3,-1,-1,2,-20,-45
108.405,-12,-4,13,-2,-6,-15,-4,27
108.41,25,21,37,10,5,9,13,29
108.415,-2,-14,-22,-4,-10,-31,-2,38
108.42,5,-4,-10,-10,4,37,14,-25
108.425,-12,-11,-17,-10,-11,-37,-21,-11
108.43,-8,-2,-2,-12,-8,-6,-8,3
108.435,15,21,43,18,15,34,43,65
108.44,12,3,5,3,-3,-12,10,-6
108.445,-20,-14,-25,-2,-5,-7,-12,-41
108.45,3,1,3,2,-1,5,-2,50
108.455,-10,-3,-5,-12,-7,-8,-34,-55
108.46,8,-2,-11,-5,-4,0,35,76
108.465,6,1,1,5,4,2,-1,15
108.47,-6,1,-3,0,3,9,-15,-66
108.475,-1,-1,-14,-3,3,13,3,-25
108.48,-15,-6,4,4,-7,-22,-16,11
108.485,0,-7,10,-10,-11,2,20,1
108.49,3,-2,-26,-5,-11,-33,-8,16
108.495,-8,-18,-47,-25,-2,10,-8,-2
108.5,7,15,15,13,-3,-4,-45,-42
108.505,-1,-4,-4,4,10,33,33,30
108.51,-12,0,-4,0,-6,-21,-23,-4
108.515,-2,-9,4,-7,-3,5,-7,-25
108.52,3,2,12,4,-9,-27,-35,-34
108.525,-7,-5,-13,-28,-11,-11,-50,19
108.53,0,7,-6,30,26,29,77,17
108.535,17,1,1,2,-6,-25,-44,3
108.54,-5,-1,0,4,10,4,-4,-27
108.545,-8,-9,7,-6,-21,-37,8,-21
108.55,4,-4,8,-15,-19,-11,-8,-14
108.555,-27,-6,-45,-10,0,-1,13,84
108.56,1,-14,-9,1,-8,-5,-16,-17
108.565,4,4,3,-1,-3,1,-3,-77
108.57,1,9,15,3,5,18,16,71
108.575,5,4,14,5,-1,-14,15,-66
108.58,-9,-11,-12,-15,-1,27,25,61
108.585,7,7,11,22,14,-6,6,13
108.59,0,-5,-19,-20,-6,3,-7,-41
108.595,-3,6,26,19,6,-4,-11,-32
108.6,-1,2,-3,-5,-8,5,29,38
108.605,11,8,0,-9,1,2,-25,-20
108.61,6,-16,-31,-5,0,21,2,-7
108.615,-2,1,20,-3,-9,-9,13,34
108.62,4,9,13,5,1,4,-11,-28
108.625,-6,-13,-17,-1,9,1,0,17
108.63,1,8,36,-1,-1,16,11,32
108.635,5,2,-12,4,10,-1,-12,-50
108.64,-11,-13,-12,-9,-15,-22,-16,-26
108.645,10,17,19,-4,-5,17,8,-27
108.65,9,1,8,10,10,24,-12,41
108.655,-11,-10,-3,-10,-9,0,5,39
108.66,-7,-7,-4,-7,-1,-17,-10,34
108.665,8,3,-4,15,1,-9,-9,6
108.67,-2,-2,-7,-12,7,-15,-33,-35
108.675,4,-1,-1,22,9,28,73,68
108.68,19,7,6,-8,-1,-6,1,65
108.685,12,3,-4,-1,-4,6,-2,10
108.69,-9,-12,-27,-12,-16,-15,8,17
108.695,7,7,23,3,3,15,-7,-42
108.7,-3,-3,12,2,11,20,16,-11
108.705,-15,-14,-24,5,0,11,20,-3
108.71,6,4,4,-2,-2,0,-8,-57
108.715,0,9,1,-10,-13,-2,-2,27
108.72,-9,-15,-3,3,4,16,16,-20
108.725,-14,3,10,-4,-2,-22,-11,-37
108.73,-2,-2,-6,-1,-7,-4,-18,-19
108.735,-14,-13,-4,-13,-5,7,-28,-93
108.74,0,12,-20,4,10,14,41,43
108.745,-7,-7,2,-6,-4,-34,-27,12
108.75,-11,-6,-13,-3,-1,-12,1,-12
108.755,6,5,13,5,-1,-13,-10,-1
108.76,7,3,-3,-1,-2,-7,-7,-22
108.765,1,1,-7,-9,-1,16,-1,8
108.77,5,3,9,14,0,-15,2,22
108.775,-3,-2,4,-10,-4,-7,-10,22
108.78,-9,-9,-11,-7,-5,-11,-9,-26
108.785,-3,1,-2,0,-1,6,16,23
108.79,0,0,14,3,1,-3,-16,-3
108.795,3,5,-8,6,11,1,20,5
108.8,-6,-3,-2,3,1,6,5,-9
108.805,2,1,14,-3,-11,-3,9,7
108.81,-2,-8,-12,-2,-7,-5,6,-1
108.815,0,-2,-3,-6,-4,-3,-10,-12
108.82,-1,5,1,1,0,-4,-9,2
108.825,1,2,3,5,7,11,15,8
108.83,-1,2,13,-1,0,-14,-19,-2
108.835,-1,-7,-10,-4,-4,2,-4,4
108.84,-1,-3,-4,2,0,2,-1,-5
108.845,0,1,6,-2,-3,-2,4,6
108.85,-3,1,0,-7,-5,-6,-5,-3
108.855,0,-7,-7,-9,4,-7,-5,-2
108.86,-2,-4,-4,3,-3,-2,-1,-5
108.865,1,2,-1,-2,0,-2,4,2
108.87,-3,0,2,5,2,4,9,3
108.875,-3,-1,-4,-3,-9,-4,-1,-5
108.88,-4,-3,6,-3,1,0,4,-4
108.885,-1,-3,-5,1,1,-8,5,3
108.89,-3,-4,-14,-11,-7,-9,-6,-6
108.895,-4,0,4,2,1,-16,-12,-3
108.9,0,2,-2,-4,-5,8,-1,-3
108.905,0,-3,-1,4,-1,0,1,0
108.91,-5,-2,-7,-3,-1,0,1,-1
108.915,-2,-4,-4,-7,0,4,1,-2
108.92,-2,1,4,15,3,-12,-11,-1
108.925,-1,-1,-24,2,-2,4,4,1
108.93,0,-4,11,-8,-4,2,-8,-4
108.935,-1,1,14,4,4,-4,-3,1
108.94,3,14,9,-4,-5,-3,-3,-1
108.945,-3,-11,-13,3,2,0,-1,0
108.95,2,11,-50,8,2,1,2,2
108.955,-5,-12,-4,-9,-13,-9,-5,-3
108.96,0,2,19,-24,-1,-1,3,1
108.965,2,-2,18,36,17,13,5,3
108.97,-5,-11,-23,-26,-20,-12,-9,-3
108.975,-1,8,72,14,13,5,2,0
108.98,-2,-11,-79,6,4,1,-4,-3
108.985,-5,-1,-36,-21,-11,-5,-3,-2
108.99,3,5,59,22,10,4,1,2
108.995,-3,-16,-50,-2,-8,-3,-3,-3
109,-1,-2,41,-1,-7,-4,-1,-3
109.005,-2,-3,21,-19,-5,-1,-1,1
109.01,-1,-4,-13,2,0,0,-1,-1
109.015,1,6,16,-3,0,1,2,-1
109.02,1,2,-32,-2,-2,-5,-3,0
109.025,-4,0,11,-24,-18,-7,-6,-4
109.03,0,5,25,21,17,4,0,0
109.035,-1,-5,-22,-14,-4,-3,0,0
109.04,4,14,-4,4,2,0,2,4
109.045,-2,3,-16,-2,-2,2,0,-1
109.05,-5,-19,14,3,-8,-5,-2,-3
109.055,0,-4,-3,-4,-10,-2,-1,-3
109.06,-3,-4,52,0,5,1,-2,-1
109.065,-2,20,15,-6,3,-3,-2,0
109.07,-6,-13,21,-1,1,-2,0,0
109.075,3,17,53,6,-3,-1,1,1
109.08,-6,-16,-78,-12,-12,-7,-4,-4
109.085,-1,-3,11,9,9,1,0,-1
109.09,5,4,-63,-10,-2,1,2,2
109.095,-3,-5,-52,-7,-4,-3,-5,-3
109.1,2,22,84,9,5,0,0,1
109.105,0,-16,-26,-2,-6,-4,-2,-1
109.11,2,9,-7,2,-4,0,-2,-1
109.115,-2,-5,-26,-9,-3,-3,-2,-1
109.12,-5,-24,-5,-21,-5,-2,-1,-2
109.125,2,14,18,17,14,5,2,1
109.13,-4,-16,-40,-3,-3,-3,-2,-1
109.135,-6,5,103,-9,-9,-7,-6,-6
109.14,-2,-5,-49,-1,-9,-1,0,-1
109.145,-1,-2,23,5,1,0,-1,-1
109.15,-1,-10,-9,-16,-7,-4,-4,-3
109.155,-3,-7,-4,-4,-2,-3,-1,-3
109.16,-2,2,-7,5,0,-1,-3,-2
109.165,4,4,74,4,3,4,3,2
109.17,0,10,-49,14,6,1,0,1
109.175,-4,-25,-16,-21,-6,-3,0,-1
109.18,0,5,76,3,-2,-4,-2,-1
109.185,-3,0,-14,-4,-2,-1,0,-1
109.19,-3,5,13,-6,-3,-1,-1,-2
109.195,3,15,3,19,10,1,0,2
109.2,-8,-11,16,-6,1,-3,-2,-5
109.205,-2,5,-81,-6,-4,-4,-1,-2
109.21,1,8,24,6,0,-2,0,2
109.215,-4,-22,-61,-9,-2,-1,-1,-1
109.22,-1,10,14,9,2,0,-2,-3
109.225,-1,-5,-34,3,-2,-1,-1,-1
109.23,-2,-4,32,-27,-11,-4,-2,-4
109.235,6,20,41,17,5,3,1,0
109.24,-2,-7,1,3,-1,1,-1,1
109.245,0,-2,-35,-15,-4,-1,-1,-1
109.25,1,5,-64,2,0,0,0,-1
109.255,-9,-33,26,-4,-6,-3,-5,-3
109.26,3,11,-105,-8,4,1,0,0
109.265,2,-1,68,1,-2,3,3,2
109.27,3,12,110,16,6,3,0,0
109.275,1,3,-112,-21,-8,-9,-4,-2
109.28,-7,-23,-69,-8,-1,5,2,-1
109.285,-2,-6,5,-1,0,-2,-2,-2
109.29,-2,-2,-26,1,5,2,1,2
109.295,2,11,6,-4,-3,-1,0,0
109.3,-2,-20,14,11,0,-6,-4,-2
109.305,-4,6,-66,-5,-6,-3,-3,-4
109.31,-3,-20,25,-16,3,2,-1,-1
109.315,8,22,54,11,2,1,-1,3
109.32,-3,-5,-39,-13,-11,-8,-5,-4
109.325,-12,-33,-43,-13,-6,-5,-6,-7
109.33,2,15,28,9,-2,-3,7,0
109.335,-4,-6,-16,9,4,1,-11,-4
109.34,16,11,16,11,4,7,10,9
109.345,-1,10,-65,-13,-2,-1,-2,1
109.35,-3,-17,54,-29,-17,-11,-6,-6
109.355,2,24,59,22,9,5,6,3
109.36,1,-3,-44,-34,-5,-3,-3,-3
109.365,-1,-3,-39,-2,1,-1,-1,-1
109.37,0,4,25,22,4,3,1,2
109.375,7,16,-44,-12,-2,1,1,2
109.38,-2,-8,69,22,3,-3,-6,-1
109.385,-6,-1,-28,-11,-5,-4,-4,-5
109.39,8,21,-29,1,1,2,1,4
109.395,-15,-34,23,-1,-6,-6,-3,-9
109.4,-2,17,-33,-2,-1,2,2,1
109.405,10,4,109,22,9,5,3,4
109.41,-8,-24,-36,-5,-1,-4,-5,-4
109.415,3,7,-13,5,4,3,4,3
109.42,-4,-2,-1,6,2,-4,0,-3
109.425,0,-5,66,6,-6,-1,0,-1
109.43,3,30,70,27,5,2,-1,-1
109.435,-2,-13,-107,-19,-5,-1,0,1
109.44,0,-7,-53,-6,1,-1,0,1
109.445,-3,6,28,24,4,-1,1,0
109.45,-1,-8,-68,-35,-3,1,-1,-1
109.455,-2,-4,75,1,6,4,4,1
109.46,1,12,6,3,-3,-4,-4,-3
109.465,1,5,-24,-4,-3,-3,-2,-1
109.47,-11,-23,-69,0,-4,-5,-5,-7
109.475,4,8,90,16,3,2,0,3
109.48,-8,-17,5,-16,-7,-5,-4,-5
109.485,0,5,72,14,-2,-1,-1,-2
109.49,2,13,-33,8,7,3,1,3
109.495,-2,-5,5,-11,-2,-2,-2,-3
109.5,2,-8,6,2,-6,-2,-3,-1
109.505,-9,-17,-32,-6,-2,-3,-4,-5
109.51,3,4,-15,-9,0,1,2,-1
109.515,-3,-12,-58,-9,-4,-3,-4,-2
109.52,1,10,85,9,2,1,0,-2
109.525,1,-2,-44,-11,-3,-3,-1,-2
109.53,-3,-26,-47,-19,-8,-3,-2,-3
109.535,1,5,-20,1,4,2,0,-1
109.54,-2,2,45,9,3,1,-1,-1
109.545,-2,-6,30,-1,2,1,-2,-1
109.55,-6,1,108,1,-4,-4,-4,-2
109.555,2,5,34,7,-3,-1,0,0
109.56,-3,-12,-22,1,1,2,0,0
109.565,2,11,-46,-14,-6,-2,0,1
109.57,3,-1,15,13,5,-1,-1,-2
109.575,-7,-11,-49,2,-3,-3,-3,-3
109.58,2,17,-4,-15,-3,0,0,2
109.585,-1,-13,27,4,4,1,0,2
109.59,-5,-5,45,6,-4,-2,-2,-4
109.595,2,1,31,-4,-5,-1,7,0
109.6,-2,-6,-59,-9,3,-2,-9,-3
109.605,0,4,-84,-21,-6,-4,2,0
109.61,-2,-2,-23,-2,-1,1,-3,1
109.615,-5,-5,30,-3,-3,-4,1,-3
109.62,-1,2,11,7,-1,-1,1,1
109.625,0,-7,-14,-5,-1,-2,-1,-2
109.63,0,-9,-11,0,2,-2,0,1
109.635,-3,-6,-49,-12,-3,-2,-3,-3
109.64,-4,8,7,8,-4,-3,-6,-4
109.645,-2,-5,65,8,6,2,-4,-1
109.65,5,14,-24,6,2,-1,6,1
109.655,-6,-11,-48,2,-2,-3,-8,-1
109.66,1,3,126,6,-2,6,4,2
109.665,1,3,11,8,0,-1,2,0
109.67,-3,-4,27,1,-5,-1,-4,0
109.675,-6,-11,-55,-19,-3,-4,-2,-3
109.68,1,-2,-24,3,2,-2,2,0
109.685,1,5,-14,-4,-2,1,6,2
109.69,-2,-8,-38,-10,-5,-4,-4,-3
109.695,4,10,85,-4,-5,1,2,-2
109.7,-2,-3,-95,-18,-5,-5,-2,-3
109.705,-2,-4,10,-8,-2,-10,-8,-1
109.71,-1,3,36,9,0,-5,1,-1
109.715,1,4,-1,6,5,22,7,2
109.72,1,-3,26,-2,-2,-15,-9,-2
109.725,-5,-3,17,0,-5,13,14,0
109.73,3,10,23,13,2,-10,-27,-3
109.735,-9,-11,-96,-31,-2,0,5,-3
109.74,1,-3,35,5,-1,-1,6,1
109.745,4,1,30,5,-2,-7,-9,1
109.75,-2,-1,21,-4,-7,-2,12,1
109.755,9,27,-2,36,7,8,-5,0
109.76,-6,-17,54,-15,-5,-14,-4,-7
109.765,-4,-2,-39,-4,2,0,-4,-2
109.77,-4,-7,-15,-4,-2,0,4,-1
109.775,4,13,22,10,2,-1,7,2
109.78,0,2,-23,0,-2,7,4,2
109.785,4,6,57,19,3,-10,-7,-3
109.79,-7,-30,-90,-28,-7,-2,-3,-3
109.795,-1,-3,25,0,-1,27,20,2
109.8,2,5,32,6,3,3,5,1
109.805,-7,-11,-54,-9,-9,-7,-10,-5
109.81,4,10,33,0,0,3,1,8
109.815,2,-1,-2,8,9,-38,-5,-2
109.82,0,-3,-34,-1,-2,31,5,-4
109.825,-3,7,6,-3,1,3,8,-6
109.83,-2,-1,-3,4,-9,-30,-5,16
109.835,-8,-11,-8,-10,-10,3,6,-19
109.84,0,6,56,7,3,-6,-24,5
109.845,-2,-7,-7,-7,-2,-13,-29,-9
109.85,0,8,7,0,0,1,42,-4
109.855,-1,-10,-21,-4,-4,0,-17,23
109.86,-4,-5,-30,0,0,-5,-35,-14
109.865,0,3,54,3,-4,3,29,-14
109.87,-4,-4,-42,-8,-2,1,19,6
109.875,1,0,8,6,2,-14,-36,-21
109.88,-1,1,-10,-2,1,24,55,7
109.885,-1,0,3,-1,-3,-40,-113,-17
109.89,0,5,28,10,3,3,38,18
109.895,-6,-16,-9,-12,-9,17,18,2
109.9,-1,0,-2,2,12,-7,23,6
109.905,6,-3,-11,4,-5,-3,10,10
109.91,-4,-1,-3,-2,1,6,4,-15
109.915,-2,1,5,-3,-12,-43,-71,-2
109.92,2,2,-22,1,6,-6,-6,5
109.925,-4,0,35,7,-5,19,47,0
109.93,-3,-12,-70,-19,-3,10,-2,-13
109.935,-2,1,15,6,8,11,27,10
109.94,-5,-1,2,-4,-12,-39,-107,-28
109.945,9,6,-8,4,7,15,1,31
109.95,-16,-11,16,-6,-10,15,0,-61
109.955,-4,0,-43,-10,-3,-23,-17,1
109.96,1,4,14,-7,-2,2,41,11
109.965,2,-4,-21,1,1,-2,11,14
109.97,7,6,42,8,0,-11,-19,17
109.975,3,3,8,0,1,-4,0,-11
109.98,-6,0,0,5,1,-9,5,-7
109.985,1,0,-11,-9,0,40,49,14
109.99,3,-2,-1,3,6,7,-59,3
109.995,-6,-1,16,0,-4,-12,37,-10
110,-2,0,-4,-4,-11,-15,-9,-1
110.005,0,-3,-1,-2,-5,8,21,-14
110.01,-4,-2,0,2,15,1,-15,2
110.015,0,-1,3,5,-4,-12,19,11
110.02,0,-6,10,-1,-4,26,1,3
110.025,-3,3,-17,3,4,-20,5,-9
110.03,-1,-11,-54,-17,-12,4,-12,0
110.035,2,3,11,-2,-4,-26,-23,-2
110.04,6,14,21,23,19,41,40,19
110.045,-7,-18,-29,-20,-12,4,-3,-28
110.05,0,4,10,-11,0,-32,-40,-4
110.055,6,3,26,9,3,8,5,-10
110.06,0,-2,-42,-9,-2,22,-5,15
110.065,-5,-7,-7,0,-7,-21,5,-7
110.07,5,7,13,4,-3,8,19,8
110.075,2,0,1,1,12,-14,-49,21
110.08,-1,4,15,7,3,47,63,-30
110.085,-2,-1,-5,-7,-4,-15,-41,-6
110.09,-6,-3,2,4,-5,0,-8,-11
110.095,2,1,2,-2,-2,22,20,2
110.1,-3,-4,-5,-5,-8,-40,-27,5
110.105,0,2,3,1,7,11,26,16
110.11,5,1,8,-1,2,17,32,1
110.115,-1,-4,3,11,5,8,13,24
110.12,-6,2,41,-5,-7,-29,-51,-34
110.125,-5,-7,-42,-10,1,-8,9,-6
110.13,1,-1,-2,-2,3,0,-10,8
110.135,1,5,8,0,-2,23,2,-3
110.14,-2,-3,6,-2,-4,-14,15,6
110.145,6,7,4,3,-3,-25,-25,8
110.15,-2,5,14,14,10,11,-6,4
110.155,-5,-4,-4,-8,-1,39,28,-9
110.16,11,5,-8,1,-6,-23,-16,4
110.165,0,-2,7,-2,8,22,-4,-6
110.17,2,8,9,6,-8,-5,5,4
110.175,-7,-10,-5,-5,-3,-12,-12,-13
110.18,-1,-4,-22,-9,-6,-5,-9,-20
110.185,-7,-13,3,-6,-3,-35,0,61
110.19,-15,-8,0,1,-2,-7,10,-14
110.195,2,9,8,-4,-8,8,-22,-18
110.2,3,6,14,2,7,7,4,-1
110.205,-6,-9,-36,-3,-1,-15,-8,-27
110.21,-3,4,11,5,-3,1,1,6
110.215,-1,5,12,-2,-7,-27,-18,17
110.22,-10,-28,-83,-21,-10,0,4,-6
110.225,7,9,41,12,13,2,-42,-7
110.23,1,0,11,7,6,-8,7,8
110.235,-3,-4,-10,-5,-3,17,17,-4
110.24,-1,2,-7,0,-3,7,-1,19
110.245,-10,6,20,-2,-3,-6,-8,-12
110.25,7,2,14,2,6,9,-1,-7
110.255,-2,-11,-28,-4,-10,-39,-11,-15
110.26,0,2,-3,1,3,13,14,6
110.265,-7,-2,16,1,-6,12,-17,10
110.27,-7,-7,0,-17,-15,-23,-13,1
110.275,9,4,12,9,9,8,8,5
110.28,1,4,12,0,0,1,1,5
110.285,-2,4,6,7,17,39,26,-15
110.29,3,-1,-4,0,-10,11,-2,30
110.295,-9,-5,-11,-13,-10,-12,-24,-22
110.3,3,-7,-4,-8,-3,-7,4,11
110.305,5,13,37,12,1,4,14,21
110.31,3,2,-39,4,11,18,7,-19
110.315,-5,-14,-11,-5,-2,-20,12,-41
110.32,4,5,12,2,1,1,12,71
110.325,-11,-7,-21,-5,-2,8,-6,-40
110.33,12,10,30,2,-4,22,26,17
110.335,-17,-8,-9,0,-4,-7,15,-17
110.34,2,3,5,-3,-1,-11,-14,-10
110.345,4,-1,-1,5,5,-9,-49,-2
110.35,0,-1,-7,-6,-9,-24,8,10
110.355,1,-3,7,-8,8,8,-5,-9
110.36,-7,-6,0,9,-2,-3,29,-16
110.365,-1,0,-11,-11,-16,5,4,-2
110.37,6,2,31,0,1,-22,-33,3
110.375,7,-2,-44,-3,-5,6,9,29
110.38,-5,-1,8,-4,1,-5,-8,17
110.385,8,5,4,3,0,2,14,-14
110.39,3,-9,-1,-6,-8,8,8,-5
110.395,0,-3,11,8,3,-2,5,-6
110.4,-12,-9,-17,-5,0,3,-18,-68
110.405,9,3,-1,-6,-12,-21,19,86
110.41,-6,-2,-7,3,12,-1,20,-24
110.415,-7,-2,9,-1,-4,17,9,4
110.42,4,1,-9,-3,4,24,-10,-70
110.425,-1,-9,-6,-2,-6,-3,1,72
110.43,-7,1,-5,-5,-9,-26,6,34
110.435,18,8,13,6,18,45,-13,-36
110.44,-20,-12,-20,-7,-5,-17,21,52
110.445,13,5,8,5,-4,-20,-26,-39
110.45,-10,-9,-7,4,6,8,-4,-1
110.455,-12,6,9,0,-9,-20,-15,-1
110.46,-3,-3,0,1,-6,2,0,-28
110.465,-4,-7,-3,-6,4,18,29,-21
110.47,-2,5,-5,6,-3,-10,-11,-15
110.475,0,-7,-4,-9,-13,-22,-18,10
110.48,-1,1,-2,3,17,10,2,-19
110.485,-9,-6,-12,0,-4,-11,7,-29
110.49,6,2,5,-5,-7,-24,-32,-34
110.495,1,6,10,4,16,35,38,57
110.5,4,-5,7,-6,-21,-47,-8,34
110.505,-5,-1,-19,-9,4,39,34,-18
110.51,-13,-2,-2,1,2,-1,1,-37
110.515,-4,-1,-4,-9,-6,-7,-12,-6
110.52,-4,-4,13,7,-3,2,10,-70
110.525,-4,-1,-2,-3,0,6,-9,6
110.53,0,-2,-6,-4,2,5,-18,32
110.535,7,2,-6,-3,-2,-2,43,25
110.54,-3,7,15,6,8,10,-11,-10
110.545,0,-5,-4,-7,-16,-9,7,3
110.55,-1,-8,-16,-5,9,3,-8,-10
110.555,2,-4,6,6,2,-1,-15,27
110.56,5,5,1,5,0,-6,-7,-39
110.565,1,2,4,-7,-6,-13,-17,18
110.57,1,-5,-8,2,-2,-6,-6,-10
110.575,-5,5,16,-2,-7,-23,-16,-14
110.58,0,-8,-20,-3,-4,-9,-3,20
110.585,-5,-2,5,-2,4,12,0,-15
110.59,-6,-8,-33,-7,-8,-3,4,-7
110.595,-2,-1,5,2,-2,-3,-5,0
110.6,-2,3,12,-3,-1,-8,-7,7
110.605,4,2,-4,7,4,-9,-16,0
110.61,-6,-1,14,-4,-10,17,33,0
110.615,-6,-7,-23,-3,11,12,-1,-28
110.62,0,-2,-1,-3,-2,-5,-9,27
110.625,-1,-1,1,2,0,0,0,-8
110.63,1,-3,2,-2,-4,-4,-15,-9
110.635,3,4,-1,-4,-6,-5,-1,10
110.64,-2,-6,0,2,0,0,-1,11
110.645,-3,-1,2,-3,-1,-4,0,-17
110.65,0,0,2,2,2,4,-4,10
110.655,-1,-4,0,0,-4,-10,-2,-2
110.66,4,4,-1,1,3,1,-5,20
110.665,-2,-9,-17,-4,-3,-3,2,-2
110.67,-1,-1,-6,-4,-3,-1,0,9
110.675,-2,0,7,0,-1,0,-4,-5
110.68,-3,0,1,1,0,-3,0,2
110.685,-3,1,5,-2,-2,-5,0,-3
110.69,0,0,4,-1,1,2,1,-3
110.695,-5,-4,-11,-3,-4,-4,-3,-8
110.7,3,0,2,-12,-4,-2,-2,11
110.705,1,0,-1,20,6,1,2,-2
110.71,-3,-2,-2,-4,-3,-2,-4,3
110.715,5,0,-5,2,-3,-2,-1,2
110.72,-3,-2,-3,-6,-4,-2,0,9
110.725,-2,-2,-1,-8,-1,-4,-1,-3
110.73,1,3,6,2,4,0,1,-3
110.735,-2,-7,-13,-1,-3,-2,-1,-1
110.74,-3,-17,-21,-4,-5,0,-2,1
110.745,4,5,8,3,9,4,0,-3
110.75,1,0,15,6,-4,1,-1,2
110.755,-4,0,-10,-4,1,-5,-3,-3
110.76,4,2,-2,-3,-3,-4,-3,5
110.765,-3,-1,2,-17,-5,-3,-1,-3
110.77,1,-1,-6,10,1,1,1,3
110.775,-2,-2,14,-2,1,-1,-1,-1
110.78,1,2,-4,4,-5,-3,-3,0
110.785,-2,-7,-11,-5,3,-2,-1,-3
110.79,2,9,27,3,4,3,1,0
110.795,0,-4,-17,4,0,-2,-2,-3
110.8,-1,8,22,1,1,0,-2,2
110.805,1,-1,-6,-26,-13,-7,-1,-4
110.81,-3,-6,-8,29,13,1,-1,1
110.815,1,3,-4,-14,-9,-2,0,0
110.82,0,1,10,2,2,-1,0,2
110.825,-2,-3,-6,-2,0,-3,-1,-1
110.83,-1,-3,1,-1,-10,-4,-3,-2
110.835,1,5,23,7,2,0,-2,2
110.84,1,-1,-32,-5,5,1,0,0
110.845,0,5,26,6,-2,1,2,-1
110.85,-8,-19,-69,-23,-8,-6,-4,-5
110.855,0,-4,-3,-5,0,-4,-3,-1
110.86,-2,4,5,-1,-8,-2,-2,-1
110.865,1,-1,11,8,-1,-1,-1,0
110.87,-3,1,-10,1,-4,-4,-2,-3
110.875,-1,8,56,-2,2,-3,0,-1
110.88,1,-14,-51,2,9,3,1,2
110.885,-3,-3,-63,-6,-6,0,-1,-2
110.89,-3,5,26,-8,2,-1,-1,1
110.895,1,11,12,2,1,0,1,2
110.9,3,-5,-5,12,2,-2,-2,-2
110.905,-2,-4,1,-1,-2,-1,-1,1
110.91,1,3,46,5,-5,-3,-1,-1
110.915,-1,2,-7,3,7,4,0,-1
110.92,-1,7,8,2,1,-1,0,0
110.925,0,2,-10,1,-1,0,-1,-2
110.93,-6,-13,-24,-9,-3,-3,-2,-2
110.935,2,6,-2,-1,-8,-3,-4,-2
110.94,-2,-2,5,-12,2,3,2,1
110.945,2,-6,8,2,0,-4,-3,-3
110.95,-2,11,30,4,-2,1,1,0
110.955,-3,-13,-5,-13,-1,0,-1,-2
110.96,3,8,2,0,0,0,-1,1
110.965,-5,0,-11,2,0,1,1,1
110.97,1,0,-14,-3,-1,-4,0,-1
110.975,-4,-19,-28,-15,-8,-7,-4,-5
110.98,-3,2,44,7,-3,1,1,-2
110.985,1,11,20,7,8,2,-1,1
110.99,0,-14,-38,-6,-6,-3,-4,-4
110.995,-4,5,31,2,-1,-2,-3,-1
111,3,2,-48,-6,-2,0,-2,-1
111.005,-5,-17,-54,-10,-2,-2,-1,-3
111.01,2,-4,17,-8,0,1,2,1
111.015,-4,7,-12,8,2,0,-2,-2
111.02,-2,-20,-2,-16,-11,-7,-5,-4
111.025,-3,6,7,2,1,1,1,-1
111.03,-2,-8,24,10,1,0,0,-1
111.035,-3,8,19,-5,-5,-2,-2,-2
111.04,-3,-1,-9,-5,-2,-1,2,0
111.045,0,4,23,7,4,0,0,-2
111.05,-4,-15,-29,-5,-6,-5,-4,-3
111.055,2,7,-29,-11,-3,0,0,1
111.06,-2,7,32,8,4,3,0,-1
111.065,-1,-7,-24,-9,-3,0,-1,1
111.07,-5,3,4,8,0,-2,-2,-3
111.075,-4,-1,-10,-6,0,-2,-2,-2
111.08,0,-2,22,-3,-2,-2,-4,-2
111.085,-4,-7,3,-4,-2,0,1,-1
111.09,-2,-1,0,-2,0,0,-1,-1
111.095,1,-3,17,6,2,1,1,2
111.1,-2,2,-35,4,1,0,2,0
111.105,0,-5,67,-6,-2,-4,-3,-3
111.11,-2,-9,-81,-9,-4,-4,-3,-2
111.115,-3,-8,19,0,0,1,1,-2
111.12,-5,6,9,-3,-2,1,-2,-2
111.125,-1,-8,-20,-2,-2,-3,-4,-3
111.13,1,13,20,-2,0,0,-1,0
111.135,-1,-15,-10,2,0,-1,-1,0
111.14,4,11,28,16,4,1,0,0
111.145,-4,4,-3,-16,-5,0,-3,-2
111.15,-3,14,-25,4,-1,-1,-1,0
111.155,0,-13,21,-11,-6,-4,-5,-3
111.16,1,-5,-52,-3,-4,-3,-1,0
111.165,-13,-38,-101,-23,-4,-3,-1,-1
111.17,0,-2,19,5,0,-1,-1,-3
111.175,-1,-6,4,-7,-2,-1,0,9
111.18,-4,9,-52,-11,-2,0,-2,-13
111.185,4,-4,-19,-6,3,1,2,0
111.19,2,-1,15,9,0,-1,1,4
111.195,4,-14,-65,-9,1,3,2,3
111.2,-4,6,97,-2,-8,-6,-4,-4
111.205,-3,-2,-55,1,0,1,-2,-4
111.21,3,-1,-2,-6,0,-1,1,1
111.215,1,9,39,5,-1,1,-3,-11
111.22,0,2,-31,5,1,0,-1,14
111.225,2,-2,13,0,1,0,7,-8
111.23,1,-11,7,-9,-8,-4,-11,8
111.235,2,17,28,-1,1,3,10,16
111.24,-2,-6,26,22,9,0,-7,-25
111.245,1,18,17,4,-4,-1,-2,-11
111.25,-12,-34,-63,-16,-3,-3,-1,-15
111.255,5,18,56,23,-5,-4,0,-1
111.26,-5,-30,-15,-16,-2,0,1,7
111.265,3,9,27,9,-5,-3,-1,15
111.27,-6,-15,16,-1,-8,-4,0,-7
111.275,2,18,5,12,16,5,-3,3
111.28,-4,-6,-13,-32,-14,-5,-2,-4
111.285,-3,5,14,-4,-4,-6,-2,-6
111.29,-2,2,36,-3,-4,-2,0,4
111.295,0,-5,-58,-16,-2,-2,-4,-2
111.3,0,0,-42,0,3,-1,0,0
111.305,-1,-5,-18,0,-5,-3,-1,-6
111.31,3,10,9,14,7,1,1,1
111.315,0,1,44,-7,-4,-3,-5,-2
111.32,0,0,46,-3,-1,-1,2,1
111.325,-4,0,-20,-8,-4,-3,-4,-1
111.33,-5,-24,-17,-4,-1,-3,-3,-2
111.335,-1,8,81,-4,-2,-3,0,-5
111.34,-7,-23,-86,-8,0,0,-1,-7
111.345,5,10,23,2,1,-1,-1,19
111.35,-5,6,22,-4,-3,-2,0,-16
111.355,-3,-13,-4,0,-2,-1,-2,-4
111.36,0,8,11,4,-2,-1,0,3
111.365,-5,-16,-66,-5,-2,-1,-1,-5
111.37,3,5,-41,-4,2,-1,0,5
111.375,5,13,79,11,4,0,0,-1
111.38,-3,-16,-59,-7,-5,-3,-1,-5
111.385,-1,-4,-51,0,2,2,0,0
111.39,0,4,-24,2,2,0,-2,-1
111.395,-5,-9,-30,-12,-5,-2,-1,-1
111.4,2,10,22,10,3,0,0,3
111.405,0,-4,-48,-13,-4,-2,-2,-2
111.41,-1,-7,57,6,2,0,1,13
111.415,-2,17,23,3,-5,-3,-2,-14
111.42,5,13,1,4,2,0,2,5
111.425,-4,-24,-11,4,0,-3,-1,-2
111.43,-2,-2,-48,-9,-4,-5,-3,-3
111.435,2,-6,-76,2,-3,-1,-1,0
111.44,-1,3,76,1,0,0,0,0
111.445,5,4,-14,-4,1,0,-3,24
111.45,-2,1,-32,-6,-3,-5,-3,-21
111.455,-3,-2,47,5,4,-5,-2,-2
111.46,-1,-2,-36,-9,-6,8,2,-6
111.465,1,-3,-10,3,8,1,0,0
111.47,-3,-4,36,-2,-5,-2,-2,1
111.475,-1,-2,-26,1,3,-3,-1,-2
111.48,2,9,14,2,0,-2,-4,-2
111.485,-4,-1,47,2,-7,2,1,-6
111.49,-2,4,54,2,-4,-7,-6,4
111.495,-3,-1,-23,-3,-4,-2,0,-7
111.5,0,-2,-17,-5,2,-2,0,2
111.505,-1,-3,-4,-5,-5,1,0,3
111.51,0,3,10,9,5,0,0,-13
111.515,-3,-7,8,-3,-1,2,-1,3
111.52,0,-9,-67,-5,3,-3,-2,11
111.525,-4,6,13,-1,-4,-6,-5,-17
111.53,0,2,11,-3,-4,-12,4,8
111.535,1,-4,12,3,4,17,4,12
111.54,2,-1,-31,0,-6,-10,3,7
111.545,1,5,11,1,10,23,1,-15
111.55,-5,-17,-13,-4,-3,-16,-7,-7
111.555,-6,2,-10,0,1,27,4,7
111.56,4,10,58,5,-3,-15,0,-9
111.565,-6,-9,-29,-10,-4,-9,-9,-11
111.57,-3,2,-43,-5,-2,0,-2,6
111.575,0,-6,-5,-12,-4,-16,-7,-2
111.58,-6,-10,-29,10,4,5,0,-7
111.585,2,2,26,2,-2,-11,1,7
111.59,1,9,36,2,-4,5,0,6
111.595,-3,-9,2,0,-1,-8,-3,-17
111.6,-2,-5,-5,-34,-12,0,-2,-4
111.605,-3,-6,-15,11,7,-1,-1,0
111.61,-3,-5,-12,-24,-3,2,0,-1
111.615,-1,2,1,23,7,1,3,0
111.62,3,6,14,-6,-3,2,-3,5
111.625,0,-1,-17,-5,-5,-3,0,0
111.63,2,9,34,-2,1,9,1,-3
111.635,2,2,-22,-7,-5,-13,6,4
111.64,-8,-3,29,5,-2,-5,-13,-8
111.645,4,-1,-38,-1,-2,4,9,44
111.65,-2,0,0,4,2,-8,-11,-24
111.655,1,1,15,-1,0,11,17,-5
111.66,-12,-4,-4,1,-3,-9,-38,-29
111.665,0,6,26,2,-4,13,17,-6
111.67,5,0,19,4,4,1,2,39
111.675,2,-5,-35,-5,6,16,7,-21
111.68,-6,-5,8,3,-1,-13,-23,-22
111.685,-2,0,6,-8,-7,-53,-42,-2
111.69,-5,0,1,4,0,52,53,4
111.695,0,-3,-18,-4,-6,-10,-43,5
111.7,3,-4,-5,0,1,17,30,-6
111.705,1,2,16,3,-1,-10,-13,-10
111.71,-1,0,55,6,-5,-33,-7,-5
111.715,-10,-30,-98,-20,-10,-21,4,3
111.72,6,6,16,0,9,37,18,25
111.725,1,-6,0,5,4,11,4,-23
111.73,-2,8,27,6,-3,-8,-15,-15
111.735,-3,-4,-5,-11,-11,-37,-14,-1
111.74,10,9,31,14,9,22,9,29
111.745,-3,-5,-18,-10,2,24,31,-12
111.75,2,-5,0,5,5,5,-18,44
111.755,-2,8,7,4,0,18,5,-48
111.76,-2,-5,-18,-3,-5,-20,19,-27
111.765,-2,4,22,-2,-8,-18,-40,4
111.77,4,5,-10,6,7,19,9,-8
111.775,-2,-3,4,-2,-2,-15,-35,20
111.78,-11,-4,-4,-4,2,44,42,-17
111.785,4,3,0,-3,-5,-20,12,0
111.79,-9,-6,-15,-7,-2,-18,-17,-30
111.795,8,8,7,11,7,21,34,38
111.8,7,11,32,6,-2,-15,-41,1
111.805,-13,-25,-73,-21,-13,-3,11,-12
111.81,3,-3,-14,-3,5,19,5,14
111.815,3,7,10,4,8,14,15,0
111.82,2,8,17,7,-10,-36,-23,8
111.825,0,9,53,2,5,8,0,0
111.83,-3,-8,-37,-11,-11,-11,-1,1
111.835,2,-1,13,12,10,9,1,-32
111.84,-5,-10,-13,-5,-7,2,-8,-2
111.845,5,9,16,0,-3,-9,-14,2
111.85,3,7,8,15,8,-3,-2,5
111.855,-9,-7,-4,-15,-8,-16,-18,5
111.86,-7,1,-8,-23,-2,3,27,-7
111.865,2,-1,3,33,10,11,31,5
111.87,-1,-3,1,-3,0,24,-18,13
111.875,2,6,-2,-7,-4,-34,-48,-20
111.88,-2,-8,-9,0,6,-24,-1,29
111.885,1,-4,-20,-11,1,16,8,-2
111.89,-2,1,5,1,0,20,11,0
111.895,-6,-4,8,12,-11,-13,13,0
111.9,2,-1,-9,-18,-4,10,-14,-8
111.905,-3,2,-4,7,-1,-7,3,7
111.91,8,9,10,7,5,-10,16,-7
111.915,-11,-4,17,-10,-12,-8,-7,-8
111.92,9,3,-3,-19,19,-5,-5,10
111.925,-6,-3,17,18,-6,24,24,7
111.93,-2,-3,-30,-7,-3,2,29,-11
111.935,3,6,11,9,-6,17,-21,4
111.94,-1,0,-5,2,-13,-24,21,24
111.945,1,4,2,-11,4,13,-8,-5
111.95,3,-6,6,-5,-3,-13,-19,-45
111.955,-16,-9,17,7,10,-5,16,-13
111.96,0,1,-21,5,0,3,0,-12
111.965,17,0,-23,6,10,-2,35,7
111.97,-12,-6,0,0,-2,-6,-30,14
111.975,-5,-3,-7,2,6,16,-4,-26
111.98,-12,-7,11,3,-5,19,25,1
111.985,-2,1,-5,-4,7,30,3,4
111.99,-3,-5,-11,-1,-1,-29,-7,10
111.995,7,3,15,4,3,13,7,13
112,4,1,0,2,-8,-25,-29,11
112.005,-8,-1,-14,-9,2,11,-26,-24
112.01,3,0,8,4,4,3,35,7
112.015,-2,1,2,-2,2,12,10,10
112.02,-1,-1,-8,0,-3,-2,-35,-14
112.025,-1,0,2,3,-5,-29,13,16
112.03,-8,-1,-1,2,9,25,0,-15
112.035,1,-4,24,7,-1,-12,-10,3
112.04,2,1,-26,1,0,-8,-25,-10
112.045,-3,-15,0,-12,-11,-26,11,23
112.05,0,5,-8,0,0,48,15,-6
112.055,1,-1,10,-2,-2,-19,-9,-14
112.06,-1,6,3,4,3,-33,-4,6
112.065,-10,-2,16,-1,-2,5,8,-6
112.07,2,-1,-8,1,-5,-6,-9,7
112.075,-2,-5,-9,-13,-10,-10,-23,0
112.08,2,5,8,0,1,-9,7,-16
112.085,11,9,-3,3,6,20,0,19
112.09,-4,-12,-24,3,5,-4,-1,-11
112.095,-1,2,1,-4,-13,-8,-11,23
112.1,0,-5,-6,-9,0,11,51,-4
112.105,2,5,0,2,4,20,16,-8
112.11,2,0,4,-2,-9,-17,-58,-11
112.115,-1,1,-6,-3,6,7,16,5
112.12,-2,-3,5,9,0,-8,-3,-4
112.125,-6,-5,-10,-8,-10,-23,-28,-6
112.13,2,-1,-5,-1,10,39,38,-6
112.135,-1,-3,-7,7,-2,-8,-15,-9
112.14,1,4,10,-12,-1,17,25,5
112.145,-8,-15,-46,-4,-8,-20,-37,-13
112.15,-6,1,20,6,9,12,19,2
112.155,13,7,2,3,-3,-28,1,18
112.16,-5,-10,-6,-3,1,32,5,36
112.165,-14,-5,9,3,2,-13,9,-61
112.17,-6,-3,-6,-17,-12,-17,-20,1
112.175,-13,-11,-7,6,-1,-18,-22,-12
112.18,1,-3,6,1,-3,-11,-11,-9
112.185,4,-5,-9,-10,-13,-17,-6,12
112.19,9,0,1,2,2,14,66,5
112.195,-15,-2,0,1,4,9,-63,3
112.2,4,4,3,1,-1,12,5,-6
112.205,-3,-4,-5,-5,-7,-43,-44,-2
112.21,7,15,23,22,16,24,-20,-11
112.215,-4,-19,-24,-15,-3,21,67,6
112.22,-2,-2,3,-5,1,29,22,3
112.225,0,6,-4,1,5,18,-36,-2
112.23,-1,6,19,9,-2,-15,6,2
112.235,3,3,7,6,-4,-17,-40,-1
112.24,-6,-5,0,-10,3,25,4,-10
112.245,1,3,9,-7,-6,-6,31,10
112.25,-8,-11,-25,4,4,-1,20,-16
112.255,4,-3,-19,-7,-8,31,28,18
112.26,0,2,-2,0,-1,-21,17,-4
112.265,10,4,22,8,12,44,4,33
112.27,-4,-15,-43,-19,-23,-63,3,-13
112.275,-2,1,7,-5,-9,-11,2,5
112.28,-3,-6,-35,2,9,-20,-23,-24
112.285,3,6,19,5,10,39,12,-2
112.29,-1,-5,-3,-8,-9,11,5,18
112.295,8,6,9,-1,7,-16,-1,9
112.3,-5,-7,-3,-3,-6,2,13,4
112.305,7,1,2,4,0,-16,-16,-5
112.31,-4,-8,-7,-11,-9,-28,4,-21
112.315,-2,5,8,-1,-3,2,-46,-28
112.32,0,12,10,0,0,17,48,23
112.325,0,-1,16,2,-3,-11,-4,-2
112.33,-5,-14,-43,-9,-3,8,-24,-1
112.335,4,10,29,2,5,5,15,-7
112.34,-3,-11,-50,2,1,-34,-18,0
112.345,-10,-3,1,-3,-15,5,4,-4
112.35,3,5,22,-4,-2,-14,-16,-2
112.355,1,-1,-5,6,2,2,-17,-2
112.36,-1,1,32,-1,-2,0,-25,-5
112.365,-6,-14,-47,-9,-4,-8,-14,10
112.37,-6,-5,7,-3,-9,-15,14,-4
112.375,-1,-6,-9,-6,3,12,8,-4
112.38,0,-2,2,-2,-4,-24,-19,18
112.385,-13,-3,5,-4,-3,-2,-37,-74
112.39,11,9,23,7,7,16,-6,18
112.395,-5,-7,-16,-7,-6,-2,0,2
112.4,2,-1,3,5,2,-29,-7,-44
112.405,4,1,-4,-3,-1,1,62,60
112.41,-3,9,8,8,4,-1,-17,-11
112.415,-9,-3,-3,-1,0,5,5,1
112.42,0,-3,-8,-7,-8,1,-30,-11
112.425,-8,-7,-9,-9,-2,3,-14,-6
112.43,10,11,34,29,15,27,26,0
112.435,2,-5,-29,-6,1,-3,28,0
112.44,-6,-6,3,-5,-4,7,52,7
112.445,0,2,0,-2,-11,-22,-58,-9
112.45,0,-1,-18,-9,-2,4,-2,5
112.455,0,10,11,10,9,-5,-6,-4
112.46,0,-3,13,4,-2,5,-5,-5
112.465,1,0,-5,-8,-6,-7,13,9
112.47,-5,-3,-4,-1,-1,-15,-26,-12
112.475,-4,-12,-10,-10,-4,7,12,22
112.48,2,7,11,5,7,0,0,-10
112.485,11,-1,6,6,5,-5,13,4
112.49,-7,-9,-14,-15,-8,18,-1,2
112.495,-5,-1,7,-1,1,6,11,1
112.5,-3,-5,-10,-1,-2,-2,-18,-8
112.505,2,8,5,4,4,12,17,-3
112.51,-3,0,5,-3,-3,3,-27,-3
112.515,6,3,5,1,6,19,-1,-2
112.52,-5,-3,-2,-2,-8,1,6,8
112.525,-1,-3,-3,3,8,12,-4,-1
112.53,0,-6,0,-4,-7,-11,-31,-2
112.535,-9,-6,-1,-1,-4,-6,57,3
112.54,-1,2,2,-1,-2,-2,-31,1
112.545,0,2,-3,3,5,12,8,4
112.55,-2,-6,-12,-5,2,1,12,2
112.555,-4,-4,-18,-9,-11,-9,-24,-16
112.56,4,9,9,8,8,5,1,3
112.565,-4,-8,-8,0,-3,-7,5,2
112.57,-4,3,15,3,-2,3,4,-5
112.575,-1,-3,-1,2,1,-7,-10,-7
112.58,1,3,1,-10,-9,-9,-11,2
112.585,-3,-3,-12,-4,-1,9,0,4
112.59,-4,3,5,4,-1,-2,7,-4
112.595,0,2,5,8,12,0,-6,-3
112.6,2,6,0,2,2,2,-3,4
112.605,0,-12,2,-7,-4,0,1,-2
112.61,-5,-3,-9,-9,-10,-5,6,-4
112.615,1,0,-8,-4,-8,-8,-8,-3
112.62,-2,-1,12,2,2,3,-7,-3
112.625,0,5,-14,2,6,4,7,2
112.63,0,-2,-4,-2,1,1,3,0
112.635,-1,-2,2,0,1,-4,-7,-3
112.64,-5,-8,-9,-17,-4,-3,-4,-3
112.645,1,4,3,10,1,2,4,-1
112.65,0,2,8,1,-2,-1,4,1
112.655,-2,2,17,-12,-7,-5,-8,-7
112.66,-1,-3,-22,13,1,-1,0,1
112.665,-3,-3,18,-1,0,-1,2,-1
112.67,0,6,-7,-2,1,1,0,0
112.675,1,-7,5,-7,-1,-1,-2,0
112.68,-4,-2,2,-3,-10,-2,-4,-1
112.685,2,10,18,5,6,2,0,2
112.69,-2,-13,-17,1,-1,-3,0,0
112.695,-2,-1,3,-4,-9,-5,-4,-5
112.7,0,1,10,-7,2,-2,-3,0
112.705,1,2,9,5,-1,-1,-1,-2
112.71,-3,-6,-9,-8,-6,-1,2,-1
112.715,-1,-2,-46,-5,4,2,0,0
112.72,1,0,30,11,5,3,-2,0
112.725,-2,-7,-4,3,-4,-3,-1,0
112.73,-1,-6,2,-2,0,-3,-2,-1
112.735,-1,8,6,-6,2,2,-2,-1
112.74,0,0,-33,17,7,5,1,0
112.745,-1,-5,-11,-9,-6,-5,-2,-2
112.75,1,3,-12,-10,-2,-2,0,0
112.755,-3,-15,-12,-1,-2,-4,-3,-2
112.76,-1,3,27,-15,-5,-3,-4,-3
112.765,2,9,10,12,7,2,1,1
112.77,-4,-7,25,-4,-4,-1,-2,-2
112.775,2,8,6,13,0,-2,-2,-1
112.78,-2,-11,-36,-8,-1,1,1,1
112.785,0,11,20,-3,2,0,1,-1
112.79,-6,-29,-11,-4,-6,-1,-2,-2
112.795,4,16,65,9,-2,-2,-2,-1
112.8,1,9,-13,11,-3,-2,-2,0
112.805,-5,-13,-13,-26,1,-1,-3,-2
112.81,2,20,17,21,8,2,2,2
112.815,-6,-28,-44,-11,-10,-5,-5,-3
112.82,1,19,37,-4,-2,3,2,1
112.825,-3,-19,-17,7,0,-4,-3,-1
112.83,0,3,-14,-2,-4,-2,-1,-1
112.835,-3,-9,-18,0,2,-2,-1,-1
112.84,-3,-4,-25,-5,-4,-2,-2,-2
112.845,-5,-10,63,-22,-3,0,0,-4
112.85,-1,7,-28,9,3,0,-2,-1
112.855,1,-3,-1,7,-1,-2,2,-1
112.86,-2,-6,-10,-11,-6,-4,-3,-2
112.865,0,8,11,11,1,0,-2,1
112.87,-5,-19,0,-16,-7,-4,-6,-6
112.875,1,18,18,9,5,3,1,0
112.88,0,-6,14,4,0,0,-1,-1
112.885,-5,-12,-48,-13,-5,-3,-2,0
112.89,0,14,22,0,2,-1,0,1
112.895,-1,-8,-69,4,1,0,-2,-1
112.9,-1,-3,12,-8,0,-2,-2,-1
112.905,4,16,31,15,0,-4,-1,-1
112.91,2,3,-17,-1,1,5,0,1
112.915,0,0,34,2,1,1,1,1
112.92,-3,-12,-3,4,-1,0,0,-1
112.925,0,3,26,-8,-1,1,0,1
112.93,-4,1,-86,-6,-3,-5,-2,-4
112.935,-1,-4,50,-6,-3,-3,-3,-1
112.94,4,2,-11,10,1,1,-2,1
112.945,-7,1,92,2,-5,-5,-3,-6
112.95,0,2,7,-6,0,-1,0,0
112.955,1,-12,-24,-3,0,-4,-5,-1
112.96,-3,-3,-4,-12,-5,-2,-5,-2
112.965,3,6,49,21,4,5,8,0
112.97,0,3,-10,-4,2,2,1,-2
112.975,-3,-4,37,3,1,-5,-3,0
112.98,0,-3,24,-8,-10,-6,-4,-2
112.985,-6,-24,-128,-12,2,-6,-5,-2
112.99,-2,-7,20,-1,-3,-1,-1,1
112.995,-3,32,46,4,-4,-2,-2,-4
113,1,7,38,9,1,-5,-3,-1
113.005,-12,-29,-62,-32,-15,-5,-5,-8
113.01,-3,-24,39,5,-5,-3,-2,-1
113.015,-6,21,-128,-7,-4,-1,-1,-4
113.02,-2,-16,48,9,3,2,1,0
113.025,-7,-14,66,-19,-19,-15,-7,-3
113.03,3,33,64,16,0,1,-12,-6
113.035,0,-1,-93,-7,10,5,7,3
113.04,-4,26,-18,1,-1,-1,-6,-3
113.045,-5,0,17,-10,-1,-32,-24,8
113.05,-12,-29,-52,-9,-13,13,15,-17
113.055,18,29,55,17,-2,12,5,27
113.06,-7,-37,-61,5,12,18,11,-27
113.065,13,60,-11,6,5,6,-3,-6
113.07,8,24,127,11,0,-6,2,2
113.075,-5,22,-12,-2,-6,-29,-16,-11
113.08,-2,-32,-15,-17,-5,-7,9,19
113.085,0,-31,-23,32,8,9,7,10
113.09,1,-1,-25,5,0,-8,-7,1
113.095,11,31,73,6,3,7,6,1
113.1,1,-9,-68,4,2,-6,-4,4
113.105,-2,7,27,-20,-1,6,4,-8
113.11,-2,10,22,18,4,-3,-2,1
113.115,-4,-38,10,-19,-1,7,-1,-6
113.12,4,38,-44,-12,-8,-5,-4,-1
113.125,0,-11,51,-14,-2,3,2,-3
113.13,-4,-26,-35,-13,-1,3,2,3
113.135,-12,-26,93,43,12,-1,-3,-6
113.14,13,52,124,-3,-5,-1,-1,2
113.145,-11,-23,-107,8,-1,5,5,0
113.15,12,37,-15,-34,-7,-7,-2,6
113.155,-3,-35,-39,-28,-2,0,1,-3
113.16,-6,3,66,13,4,-7,1,-1
113.165,6,11,12,29,7,19,1,0
113.17,-2,7,37,0,-1,-2,0,0
113.175,-8,-32,-121,-22,-4,-1,-2,-8
113.18,0,-2,-14,-8,-3,-8,-2,0
113.185,2,2,-32,-1,-8,-3,1,0
113.19,-5,-18,-90,-14,2,-1,-4,-2
113.195,7,7,100,-1,-2,3,3,4
113.2,-6,-12,-1,5,-1,-7,-8,-3
113.205,-6,7,-48,-7,0,0,1,-5
113.21,3,16,41,9,5,3,1,3
113.215,-8,-46,-64,-13,-4,-3,-1,-3
113.22,-2,1,30,7,-2,4,-1,-1
113.225,4,8,45,13,5,2,3,0
113.23,1,-5,45,4,-4,-1,2,1
113.235,-9,-22,40,-12,-3,1,-4,-4
113.24,2,13,8,13,5,5,-2,0
113.245,9,18,-40,0,1,0,2,3
113.25,-8,-16,102,-1,-4,-6,-6,-3
113.255,6,34,47,48,0,-1,-1,0
113.26,-2,11,73,-3,-3,2,-4,-3
113.265,1,5,1,18,11,0,-1,2
113.27,-5,-6,-43,-19,-1,-2,4,-2
113.275,4,22,-21,15,3,12,-6,0
113.28,-3,-11,-27,-7,-11,-13,-8,-3
113.285,-4,-10,38,1,7,8,5,-3
113.29,-3,-12,-61,-24,-4,-13,-10,-2
113.295,-3,3,42,9,-3,4,8,-1
113.3,-3,-9,-96,-24,-2,3,-4,-1
113.305,4,5,26,10,-5,-8,-3,-2
113.31,-1,-10,-30,0,2,1,1,-1
113.315,-2,-18,-2,-18,-3,-7,-3,-1
113.32,-5,-15,-58,-22,-4,0,-1,-2
113.325,2,11,-18,6,-7,-5,-3,0
113.33,3,-11,-12,5,5,6,3,3
113.335,-3,19,-126,-31,-3,-7,-3,-4
113.34,1,-8,91,13,2,1,3,-1
113.345,3,0,-91,-19,1,-3,-1,-1
113.35,-14,-37,-51,-12,-11,-5,-6,-7
113.355,2,3,46,-2,-1,-4,-1,-2
113.36,-3,-6,-30,-6,2,1,2,1
113.365,-1,9,8,0,-2,-1,0,1
113.37,-3,4,83,18,-1,-5,-4,-4
113.375,-6,-25,-94,-19,-13,-9,-7,-7
113.38,1,9,49,-15,-4,-1,-1,-2
113.385,-9,-43,-35,-18,-8,-5,-6,-4
113.39,1,1,-37,-2,-2,-5,-3,0
113.395,0,6,63,17,6,14,5,1
113.4,2,9,-52,-13,-3,-8,-3,-1
113.405,-2,-4,48,5,3,8,-4,0
113.41,2,5,-42,-1,5,1,3,0
113.415,7,22,76,17,5,0,1,3
113.42,-7,-26,-103,19,3,0,-1,-2
113.425,-1,8,116,-3,-7,-11,-5,-3
113.43,-3,-22,-98,-20,1,6,5,0
113.435,4,27,-18,5,3,-6,-4,0
113.44,-2,-12,79,14,1,8,4,1
113.445,2,2,-3,2,3,-6,-2,0
113.45,0,24,6,7,-2,0,0,-2
113.455,-5,-14,0,-6,-5,-4,-3,0
113.46,1,-12,-40,-13,-1,-1,-5,-1
113.465,3,-5,-67,-16,2,5,8,0
113.47,-5,3,7,6,0,-8,-7,-3
113.475,1,0,6,1,2,11,6,0
113.48,1,-2,-115,-4,2,-3,1,0
113.485,0,3,-33,-13,0,-1,-2,1
113.49,0,-5,61,10,-4,-3,2,0
113.495,-2,-6,0,-6,-5,-12,-7,-4
113.5,-3,9,127,6,-4,9,5,-1
113.505,-1,0,-31,4,-3,-3,-3,-1
113.51,3,17,57,20,11,4,3,2
113.515,-10,-15,-16,-5,-13,-15,-6,-7
113.52,4,3,2,5,0,10,-1,1
113.525,-3,1,28,1,-3,-8,3,-2
113.53,-1,-4,6,1,5,5,-10,-3
113.535,5,5,21,-7,3,-1,2,2
113.54,-1,7,-18,-5,-5,-3,0,-4
113.545,-1,3,-28,-2,-4,-10,2,0
113.55,1,-10,4,1,-3,3,-3,-1
113.555,-4,0,-54,7,0,-7,-8,-9
113.56,3,4,-26,-20,-7,-6,-4,20
113.565,-6,-5,-3,2,3,16,5,-15
113.57,2,4,49,4,3,-2,11,4
113.575,-4,-10,6,-6,0,3,-3,-1
113.58,1,3,22,1,0,-2,1,-3
113.585,-2,5,13,1,-4,-27,-19,9
113.59,-1,-5,-16,-12,-4,13,0,3
113.595,2,0,-17,5,12,-6,19,7
113.6,-5,2,56,11,2,27,-6,-7
113.605,2,-7,-26,-7,-6,4,14,-6
113.61,-4,1,-9,-2,-10,-27,-22,-3
113.615,-1,-7,-7,-5,-8,-8,-13,3
113.62,-5,-7,-40,-4,7,3,22,-6
113.625,-1,-1,22,1,-5,-14,-13,-11
113.63,-1,4,-4,1,-2,2,2,30
113.635,1,-4,2,-5,-10,-6,-5,-2
113.64,-2,-4,61,-4,3,-20,-15,-26
113.645,0,-1,-18,-10,8,32,14,-12
113.65,2,1,-16,5,-1,-11,-2,-7
113.655,-3,0,19,-5,-7,10,-6,7
113.66,4,0,-10,0,-4,-23,7,6
113.665,-2,-2,18,6,4,0,-5,6
113.67,-2,-3,-14,-8,2,3,7,-6
113.675,0,-9,24,2,-5,1,-3,1
113.68,0,1,-70,-8,-1,14,13,-16
113.685,-2,1,13,2,-4,-6,-14,7
113.69,3,3,-22,3,6,16,4,0
113.695,-5,-3,23,-1,-5,-19,-7,-25
113.7,-2,-4,-4,-1,-4,-24,-6,22
113.705,-1,-2,-5,2,8,52,33,18
113.71,3,0,-5,-5,-2,-7,-2,-33
113.715,2,5,6,1,1,0,-7,1
113.72,1,-3,-12,0,0,-4,-7,34
113.725,-2,1,4,0,-7,-18,-11,-19
113.73,-3,-4,12,-4,-8,9,4,-29
113.735,1,0,-27,-3,8,3,11,21
113.74,10,5,9,13,14,0,4,55
113.745,-5,-6,13,3,-7,-11,-1,-19
113.75,-11,-2,7,-17,-12,-17,-3,0
113.755,-6,-4,-26,-11,-11,-3,3,17
113.76,-9,1,21,2,1,12,-11,-87
113.765,18,3,35,3,-3,-22,3,103
113.77,-22,-5,-43,-6,-1,8,-15,-98
113.775,6,4,23,-4,5,-14,-8,55
113.78,-1,-1,4,8,15,15,21,-10
113.785,1,0,-2,1,-5,-23,-30,-56
113.79,5,2,-11,7,1,15,13,-17
113.795,5,0,26,-2,-15,-14,-6,17
113.8,-7,-3,-13,-5,0,0,-12,-13
113.805,1,1,-7,-3,-5,-6,-16,-5
113.81,-3,-4,7,-11,-12,-45,-24,20
113.815,6,-1,-15,0,14,51,59,27
113.82,3,-3,7,-3,-12,-7,-18,28
113.825,-3,0,3,6,16,29,27,7
113.83,-3,4,4,11,13,7,-11,-11
113.835,-2,-3,3,-2,-9,-9,-18,25
113.84,5,-8,-30,-14,-18,-18,-8,-71
113.845,-17,2,-3,-2,-4,-22,14,1
113.85,1,-2,12,-4,1,6,3,11
113.855,-2,3,20,5,5,4,-5,-28
113.86,2,4,6,2,-4,-9,-7,54
113.865,12,9,3,1,-8,-25,-20,11
113.87,-1,-10,-11,2,2,18,26,-6
113.875,-13,-7,-32,-14,-3,6,-12,-52
113.88,6,-4,19,9,6,-11,8,47
113.885,-7,-2,7,-7,-11,20,8,14
113.89,-6,3,-4,-8,-5,-24,-21,-48
113.895,2,-1,-11,22,15,7,7,-24
113.9,-3,-4,16,-9,-3,31,13,-9
113.905,-8,-5,2,-6,0,-2,-22,-19
113.91,9,-2,-10,-2,-6,-18,32,62
113.915,-14,-7,-10,-11,-10,-17,-14,-67
113.92,-1,1,-1,11,5,-11,19,0
113.925,3,-3,-12,-4,-3,16,-19,-34
113.93,8,0,13,9,13,22,26,-6
113.935,2,1,6,-6,-2,-5,0,53
113.94,-16,-7,1,-8,-4,-16,-8,17
113.945,24,8,-2,-10,-18,-1,-18,-36
113.95,-10,-14,-21,-13,4,29,15,19
113.955,8,8,33,31,29,39,37,64
113.96,-13,2,0,7,-7,-1,-39,-109
113.965,0,-10,-21,-7,-3,-12,14,45
113.97,1,0,-7,-4,-11,6,-12,71
113.975,-3,0,14,-5,-11,-23,-3,60
113.98,4,-1,-10,0,8,61,-12,24
113.985,-13,3,-9,-4,2,-10,-17,-54
113.99,18,15,29,16,-1,7,19,85
113.995,-25,-19,-38,-3,-8,14,-8,-107
114,-12,-12,-7,-15,-7,-33,-7,16
114.005,2,0,6,20,17,14,25,-16
114.01,-5,-6,-9,-18,-7,0,-24,-36
114.015,2,6,18,-6,-16,-18,-18,-7
114.02,3,1,-33,-12,7,-7,41,4
114.025,8,-6,-6,-9,-12,-26,-24,62
114.03,9,5,-24,-2,-2,-14,4,-24
114.035,3,-12,4,2,0,0,11,-6
114.04,-1,7,17,0,-7,-8,-1,31
114.045,-5,-2,-10,-2,15,9,-24,-20
114.05,-2,-1,16,7,-12,-31,0,-58
114.055,4,1,-3,-14,6,43,6,12
114.06,12,-2,-5,22,4,-33,-22,-13
114.065,-8,-2,0,-17,-9,-7,2,-42
114.07,-10,-2,-12,17,-1,-5,1,76
114.075,-2,1,18,-19,-27,-33,-49,-58
114.08,1,-3,-36,-14,20,53,48,1
114.085,-13,-4,-8,8,-2,28,18,-78
114.09,0,0,27,-7,0,-7,3,42
114.095,-12,-10,-24,9,-2,-3,12,-9
114.1,-1,-1,5,-15,-8,-7,-11,-20
114.105,9,3,-8,2,-2,11,10,-8
114.11,-13,5,9,-18,-16,-29,-32,23
114.115,-7,-18,-17,16,19,-10,3,48
114.12,-1,2,15,-9,-11,0,-13,6
114.125,0,0,-21,11,10,-12,-19,-11
114.13,-14,-6,1,-20,-15,-2,13,27
114.135,-7,13,11,11,13,-6,-15,4
114.14,9,-11,-21,1,-7,14,4,27
114.145,6,6,11,1,12,6,29,-19
114.15,15,6,-2,9,2,8,-14,36
114.155,-5,-2,0,-10,-10,3,18,19
114.16,7,2,15,-2,-6,2,3,54
114.165,18,4,-4,-5,-5,-12,-28,8
114.17,-3,1,3,-13,-7,32,16,-74
114.175,-4,-3,-16,6,15,0,8,-20
114.18,-12,-8,10,1,0,1,1,34
114.185,1,3,11,4,-2,10,13,81
114.19,-6,-6,-12,1,-11,-15,-4,-32
114.195,3,2,11,-20,-6,-7,-1,-58
114.2,-8,3,4,-8,2,-9,0,-32
114.205,6,-3,5,27,9,4,-1,43
114.21,6,-1,6,6,-5,-7,-15,-35
114.215,0,-4,-1,-40,-24,-3,13,13
114.22,-9,3,-2,11,16,-34,-53,-90
114.225,-20,1,5,7,24,20,66,20
114.23,38,10,13,43,20,9,-11,0
114.235,7,-3,-11,-10,-24,-10,-1,-20
114.24,-13,-9,1,-12,-16,-43,-36,-63
114.245,6,7,18,-19,-17,-14,-6,8
114.25,-26,-7,-8,1,5,25,13,70
114.255,-13,-15,-28,0,1,-3,-5,44
114.26,16,4,8,-3,-16,-14,21,-22
114.265,-7,-2,0,-7,-11,8,5,-28
114.27,4,-1,-2,-9,21,-17,-43,-14
114.275,12,8,19,16,13,12,23,-9
114.28,-11,-5,-7,3,-5,2,7,38
114.285,1,-4,-6,-13,-4,-8,-29,-30
114.29,-2,-8,-16,-10,-16,-20,10,20
114.295,0,9,15,0,-3,-7,10,69
114.3,10,-4,-14,13,8,-9,-18,-29
114.305,6,5,2,3,9,5,-6,3
114.31,-4,-4,-7,-24,-27,2,-5,2
114.315,-1,-1,7,12,22,31,-9,-20
114.32,-4,-3,2,-5,-19,-6,19,41
114.325,-9,-2,-3,7,-4,-58,-67,-27
114.33,4,-1,-3,7,11,49,51,14
114.335,0,-1,-3,-22,-18,-22,5,-5
114.34,-1,1,2,15,8,7,27,4
114.345,0,3,2,4,7,-30,-6,-1
114.35,-5,-4,1,4,-17,-9,6,-17
114.355,-2,-2,-2,-3,15,0,-20,-10
114.36,6,7,7,15,6,31,0,20
114.365,-6,-7,-6,-14,-10,-4,7,-9
114.37,-2,-5,-7,-1,-1,-8,-7,-5
114.375,13,3,1,-1,-10,0,-5,2
114.38,-3,0,-1,-2,9,0,-13,-3
114.385,-5,-10,-7,-5,-24,3,-2,10
114.39,-1,-1,-10,-26,30,10,-5,-12
114.395,0,3,-5,44,1,-6,-4,1
114.4,-4,-1,2,-21,0,2,0,-7
114.405,5,4,16,12,-5,11,8,-2
114.41,-1,-3,-19,3,2,-4,-3,2
114.415,-7,-6,-7,-19,-20,-13,-6,-8
114.42,-3,0,2,-4,9,14,1,2
114.425,-1,2,12,4,15,12,4,5
114.43,-2,1,7,8,-9,-13,-9,1
114.435,-2,-1,3,3,3,-12,-1,-3
114.44,-4,-6,-12,-12,-20,5,3,-3
114.445,-4,-6,-3,-21,-14,-1,-4,1
114.45,2,4,18,22,16,3,3,-4
114.455,1,0,-1,4,4,6,2,-6
114.46,-2,-1,4,-19,-11,-2,0,3
114.465,-2,3,-4,9,9,2,1,-4
114.47,-1,-5,-17,0,-9,-5,0,1
114.475,-4,-2,15,-8,-9,-6,-6,-3
114.48,-2,2,4,2,1,0,-7,2
114.485,1,-4,-7,-10,1,8,0,2
114.49,-6,-10,-20,-1,-5,-4,-6,-6
114.495,2,3,-49,-11,6,5,2,2
114.5,1,-1,-2,16,4,-1,-2,-2
114.505,-1,0,40,-8,-9,-5,0,-2
114.51,0,-2,-10,2,5,3,1,1
114.515,-3,-2,17,-2,3,5,2,1
114.52,0,4,-3,6,7,-2,-2,0
114.525,0,6,-11,7,-5,-2,-1,-1
114.53,-3,-14,-49,-16,-8,-4,-2,-1
114.535,0,-2,34,4,-2,2,-2,-2
114.54,0,-6,-7,4,7,2,-3,0
114.545,-5,-12,-43,9,-1,-3,0,-1
114.55,1,14,24,-5,-2,2,0,-1
114.555,3,2,-7,-8,-8,-1,0,-2
114.56,-8,-34,-30,0,2,-1,-4,-4
114.565,2,14,28,11,5,0,0,1
114.57,-2,-2,11,-7,-3,-4,-2,-2
114.575,-1,4,-9,-1,-5,1,-1,-4
114.58,2,29,40,6,-2,-3,-1,0
114.585,-4,-24,-56,-22,1,-1,-2,-1
114.59,-1,3,64,15,-1,1,0,-1
114.595,-5,-11,-50,-6,-2,-4,-3,-4
114.6,2,4,-21,-10,-3,-3,-1,0
114.605,-1,-8,22,8,9,3,1,0
114.61,-1,-1,-31,-16,-11,-6,-3,0
114.615,3,16,70,21,6,1,1,1
114.62,-2,-25,-42,-12,-5,0,-1,-3
114.625,-1,15,-29,-9,-5,-3,-2,-3
114.63,1,-12,-14,9,0,-2,0,0
114.635,2,24,76,-2,-1,3,-1,0
114.64,2,0,-53,11,3,-1,1,2
114.645,0,8,43,1,1,2,-1,0
114.65,-1,-10,-75,1,0,-3,-1,-2
114.655,-4,-10,17,-7,-9,-4,-3,-5
114.66,2,25,40,0,2,-2,-2,1
114.665,-2,-27,-59,-11,-8,-4,-1,-2
114.67,1,1,1,0,2,3,2,0
114.675,2,11,9,4,-7,-5,-1,2
114.68,-4,-8,43,2,6,3,0,-2
114.685,0,6,-19,-10,2,0,0,1
114.69,5,15,82,23,3,-1,-2,0
114.695,-3,1,-20,-8,1,0,-1,-2
114.7,-3,-22,-25,6,2,3,0,-1
114.705,4,23,88,-2,-8,1,-1,2
114.71,-3,-15,-9,-11,-2,-4,0,-1
114.715,-6,-13,-46,7,13,2,-3,-2
114.72,1,1,64,-11,-12,-6,-2,-3
114.725,-3,-14,-42,4,3,-1,-2,-2
114.73,-5,14,108,-17,-10,-4,-3,-3
114.735,1,-20,-60,0,-3,-2,0,2
114.74,-2,13,45,-11,-1,0,-3,-4
114.745,1,2,-28,8,6,3,3,0
114.75,0,9,70,2,1,1,0,-1
114.755,1,-7,3,-6,-1,0,0,-1
114.76,-6,-7,-128,4,-1,-4,-2,-4
114.765,-4,-6,22,-15,-8,-5,-2,-3
114.77,1,7,-95,5,5,2,0,-1
114.775,-5,-19,100,-16,-8,-5,-4,-4
114.78,4,9,0,14,1,3,0,1
114.785,0,1,42,12,4,0,0,-1
114.79,-5,-29,-63,-11,3,2,-2,-2
114.795,-5,-8,-99,-7,-3,-3,-2,-3
114.8,2,9,76,-5,-6,-7,-3,0
114.805,-5,-17,76,-1,0,-1,-2,-3
114.81,-2,-9,-57,-4,-5,-2,-3,-2
114.815,2,-7,7,15,5,4,3,4
114.82,-12,-9,-77,-13,-6,-7,-7,-8
114.825,4,25,-2,-4,1,0,0,1
114.83,0,2,-66,-4,-5,-4,0,0
114.835,3,2,56,7,0,0,0,-1
114.84,-4,-10,44,3,3,-4,-1,-1
114.845,3,2,23,20,4,6,1,2
114.85,-2,6,83,-9,-4,-4,-2,-1
114.855,-1,7,-15,-2,0,-2,0,1
114.86,1,1,77,-3,-3,-3,-1,-1
114.865,-7,-20,-108,-13,-7,-5,-4,-6
114.87,2,-7,75,12,5,5,0,2
114.875,10,58,23,34,6,3,-1,2
114.88,-12,-38,-111,-20,-7,-5,-4,-4
114.885,1,13,90,4,-2,1,3,3
114.89,-2,2,30,1,-5,-3,-2,-1
114.895,-8,-41,-29,-10,0,-3,-4,-5
114.9,4,14,5,3,0,4,0,1
114.905,-7,0,31,5,4,-2,-3,-6
114.91,3,25,38,10,-2,-5,-2,1
114.915,-5,-8,-25,-25,-8,-3,-2,-3
114.92,2,-11,-1,-7,-8,-3,0,1
114.925,-3,-9,-11,-6,1,1,-2,-3
114.93,5,23,16,6,7,3,3,2
114.935,-7,-34,-101,-35,-10,-4,-3,-4
114.94,-2,-6,49,10,3,2,1,2
114.945,6,13,42,3,-3,-3,-1,2
114.95,1,7,2,-2,3,-3,-2,-3
114.955,-6,-14,-47,-6,-8,0,-2,-3
114.96,10,31,34,2,6,2,4,4
114.965,-3,-16,-33,3,-7,-3,-2,0
114.97,-7,-7,-78,-7,1,0,-1,-3
114.975,-1,-6,4,6,7,1,2,0
114.98,2,24,82,15,3,1,-1,-1
114.985,5,10,54,15,2,-3,2,1
114.99,-3,-24,-69,-8,-7,0,-2,-1
114.995,4,29,63,20,-3,0,-3,0
115,-13,-24,-127,-22,3,-2,-2,-4
115.005,3,-1,-6,-7,1,3,1,2
115.01,-2,-12,-39,-18,-9,-2,-1,0
115.015,-2,-4,70,-15,1,-2,-4,-3
115.02,-3,-3,1,-4,-6,0,0,-2
115.025,1,-2,23,6,2,2,-3,0
115.03,-2,0,-80,-6,0,0,0,-2
115.035,1,10,20,-1,-3,-4,0,-1
115.04,-2,-11,-31,-2,-2,-3,-2,-3
115.045,-3,4,-19,-20,-8,-6,-3,-2
115.05,2,2,69,13,1,1,3,2
115.055,4,18,-8,-2,0,-1,-2,0
115.06,-4,-7,-12,2,-2,-1,-3,-3
115.065,0,30,40,7,-1,-4,-2,-3
115.07,-9,-88,33,-9,-4,0,0,-2
115.075,4,47,87,20,8,0,-1,1
115.08,6,31,-5,-13,-9,-2,0,2
115.085,-7,-31,-116,-11,1,-2,-3,-5
115.09,6,22,-39,-3,-10,-4,-2,0
115.095,3,-8,24,2,2,1,1,1
115.1,-5,-20,1,12,4,5,1,-1
115.105,4,18,-19,-5,3,-1,-1,3
115.11,8,12,10,10,3,0,-1,-2
115.115,-8,-1,42,15,-3,-1,0,-4
115.12,-20,-5,8,-16,-5,-6,-4,-3
115.125,-1,-11,13,4,-5,-2,0,-2
115.13,3,-1,-26,-4,2,-1,-1,1
115.135,-2,-8,-69,-1,-4,-3,-3,-3
115.14,10,14,88,5,2,3,0,3
115.145,-4,-6,-35,-11,-2,-1,-3,-3
115.15,1,4,-46,-8,-3,-2,-3,-2
115.155,1,-27,53,12,5,2,2,1
115.16,2,9,9,12,6,2,2,1
115.165,-8,-14,-55,-7,-7,-4,-2,-2
115.17,1,15,60,10,1,0,0,-2
115.175,-3,-4,-25,-1,1,0,0,-2
115.18,2,6,31,11,3,-1,1,2
115.185,-4,-21,-44,-7,-1,-2,-4,-5
115.19,-5,5,-37,-7,2,0,0,1
115.195,-8,-3,1,-6,-4,-3,7,2
115.2,8,-21,-75,-12,-4,-4,-14,-1
115.205,-1,13,75,7,-1,-3,0,-3
115.21,-10,-1,-9,-5,3,-1,10,0
115.215,4,-1,-37,-7,4,3,-8,-4
115.22,-1,-12,-19,0,-2,-4,1,0
115.225,-8,-8,-36,-6,-3,-2,-4,-3
115.23,-4,-2,78,6,-3,-3,-2,-4
115.235,3,9,22,-11,-6,-4,2,-1
115.24,1,9,-16,3,2,0,3,-1
115.245,1,-12,2,-4,-3,-1,-2,-2
115.25,-4,-8,-11,-11,1,0,1,1
115.255,3,15,40,23,4,1,-3,0
115.26,-1,-3,22,-9,-5,-2,-2,-1
115.265,1,-3,-2,1,0,0,1,1
115.27,0,14,20,-7,-1,-3,-6,-3
115.275,-5,-12,46,8,2,-1,-2,0
115.28,-4,-3,-60,-10,-3,0,13,0
115.285,5,8,-74,1,-2,0,-11,0
115.29,-1,11,98,19,4,1,-8,-2
115.295,0,-6,-78,-12,-1,-2,-3,-2
115.3,-5,-16,-50,-7,-3,-4,0,-2
115.305,5,9,25,13,3,2,8,1
115.31,-2,-9,-18,-6,-2,0,-2,1
115.315,-4,-14,-45,-15,-10,-5,-4,-2
115.32,-8,-2,72,11,3,1,2,-1
115.325,0,-6,-24,-12,-1,-2,-4,-2
115.33,-1,-1,-3,0,-5,-4,-8,-3
115.335,2,4,16,-5,-4,-1,1,0
115.34,3,7,14,0,-4,-2,-5,-4
115.345,-7,-29,-4,-7,-3,-2,3,0
115.35,-1,7,76,6,-2,-3,2,-1
115.355,-1,-3,-43,-5,1,5,-2,-1
115.36,3,11,31,3,-2,-1,-5,-1
115.365,0,7,4,4,5,0,4,-2
115.37,-1,-9,-64,-7,-8,-2,5,-1
115.375,-2,-1,24,3,2,-4,-10,-4
115.38,0,0,7,-2,-5,-2,2,-2
115.385,1,-4,-10,-6,-2,0,-4,0
115.39,0,4,48,6,1,-4,2,0
115.395,-2,-6,-50,-1,1,4,7,0
115.4,1,-1,5,-2,-2,-2,-3,-1
115.405,-3,-1,12,-4,-2,-2,-1,-1
115.41,3,2,-20,-4,1,4,-1,-1
115.415,-2,8,8,6,-2,-3,0,-1
115.42,1,-12,26,-6,-5,-3,-2,-1
115.425,-1,2,10,0,3,2,1,4
115.43,-2,0,-15,3,-1,-1,-4,-9
115.435,1,0,9,-7,-6,-2,1,0
115.44,3,8,6,5,0,-1,-4,-5
115.445,4,2,1,-1,3,0,10,28
115.45,-2,-4,-8,-3,3,2,-9,0
115.455,-7,-2,-18,-10,-7,-15,-3,-12
115.46,-1,-1,-22,0,-5,0,-13,31
115.465,0,-1,4,0,0,-8,0,-90
115.47,3,-4,-15,-3,-1,5,3,37
115.475,0,-3,0,-2,6,24,-3,-8
115.48,-6,-3,-2,1,-1,-7,-2,-7
115.485,5,3,18,6,-1,-4,-29,11
115.49,-2,-7,-16,-3,-1,-8,2,16
115.495,-9,-6,8,-8,-12,-15,7,-35
115.5,-6,-3,-10,0,4,4,-4,13
115.505,1,5,5,-1,-3,1,5,14
115.51,0,3,6,-2,0,21,3,-29
115.515,3,-5,-2,-1,-2,-21,-10,20
115.52,-1,-4,-4,-9,-1,19,15,-12
115.525,-5,-1,1,3,4,-5,4,11
115.53,-1,0,3,2,-1,-18,1,2
115.535,-4,-1,-13,-2,0,25,-6,-6
115.54,4,6,10,8,5,-4,3,-6
115.545,1,1,44,-4,-13,-6,-8,2
115.55,-6,-6,-32,-15,-12,-13,1,-16
115.555,4,6,13,11,8,-6,2,13
115.56,-6,-7,-18,-2,8,33,6,5
115.565,0,2,2,3,-3,4,-4,40
115.57,-2,3,7,6,4,-8,3,-17
115.575,-1,-7,-9,-9,-4,12,13,-2
115.58,1,3,0,2,5,-20,-6,-23
115.585,1,-1,-3,-2,0,19,15,0
115.59,0,0,4,-1,-8,1,-11,8
115.595,-1,-3,-11,0,0,-31,-10,21
115.6,-3,1,11,5,-1,30,13,5
115.605,-6,-4,-19,-13,-7,-24,-12,-26
115.61,4,-4,-4,9,-2,4,3,-6
115.615,2,1,-1,3,14,0,0,0
115.62,3,3,6,-4,-8,-14,-1,-1
115.625,-6,-5,-12,0,-5,-17,-9,-4
115.63,-5,-3,-2,-5,3,5,-6,9
115.635,2,-2,5,3,-7,-8,1,-6
115.64,-5,-9,-45,-14,-9,-23,-5,6
115.645,5,10,14,6,-1,-10,3,2
115.65,-10,-7,-5,-4,1,3,-9,-13
115.655,-4,-10,-7,-1,0,27,11,1
115.66,0,-8,9,-8,-6,-26,-14,-7
115.665,2,6,5,1,8,15,12,12
115.67,-2,5,-9,1,-5,-25,-17,2
115.675,-11,-5,4,-4,-7,-10,-6,9
115.68,4,0,-8,1,1,11,0,-13
115.685,0,1,-3,0,1,9,10,-6
115.69,2,7,24,9,1,-14,-20,-36
115.695,-3,-3,-13,-6,11,12,14,37
115.7,4,5,11,3,-9,-16,6,32
115.705,2,-5,-8,5,0,-2,-12,-16
115.71,-21,-14,-12,-11,-5,-12,-1,-40
115.715,12,8,9,2,-3,5,2,4
115.72,4,3,7,1,-4,-21,-12,-2
115.725,-5,-3,-16,-7,4,28,2,-3
115.73,1,0,3,-6,1,4,14,14
115.735,-8,-10,-17,-15,-16,-15,-27,-29
115.74,7,11,15,2,7,-6,0,-2
115.745,1,0,38,30,11,-10,-2,-10
115.75,6,-3,-14,-11,-8,5,1,9
115.755,-4,1,5,-8,-9,-9,14,10
115.76,-10,-10,-10,3,-2,12,10,-38
115.765,-8,-6,-5,-16,-10,4,12,2
115.77,9,8,19,12,10,18,4,20
115.775,1,2,-11,8,0,-7,-8,4
115.78,-6,-1,-1,-2,1,-13,-8,-22
115.785,-4,-4,-3,-6,-1,-1,-16,15
115.79,-2,-1,-4,-1,-2,-12,20,-28
115.795,5,4,12,4,-6,-8,-22,-19
115.8,1,-3,-3,1,5,33,5,17
115.805,-1,-2,-30,-16,-5,14,-8,18
115.81,1,-3,-5,0,1,-23,-25,-7
115.815,7,6,15,11,6,4,-3,8
115.82,-5,-4,-1,2,-5,20,-1,-14
115.825,9,1,5,3,3,-15,14,21
115.83,-9,0,-6,-6,-10,9,21,-1
115.835,-6,4,6,8,16,22,-1,-22
115.84,-2,-26,-2,-9,-8,-8,-3,-9
115.845,-11,-5,-32,-13,-17,-19,-20,-74
115.85,15,11,10,8,4,4,25,51
115.855,2,-1,-18,-2,4,0,-10,-16
115.86,0,8,8,4,4,1,-10,11
115.865,0,0,13,1,-1,-7,-7,1
115.87,-9,-15,-5,-4,-1,13,-34,-55
115.875,7,1,2,-4,0,-9,39,49
115.88,-3,3,-5,0,0,-5,-22,-18
115.885,1,-5,0,-1,-5,-20,-3,10
115.89,0,6,3,6,9,43,0,26
115.895,-2,-4,2,-11,-7,-26,-18,1
115.9,3,0,-5,5,3,-17,-14,-2
115.905,-7,3,3,-1,-1,-1,26,4
115.91,3,-1,-8,-2,-12,1,12,-36
115.915,1,-5,4,3,0,-35,-15,21
115.92,0,6,0,3,8,-4,-8,15
115.925,-3,-8,-12,-14,-5,19,7,-25
115.93,-10,-3,5,0,-8,-27,-3,13
115.935,-6,-5,-20,-3,-2,-2,-24,-11
115.94,8,-1,-2,-7,-5,-21,7,22
115.945,-1,-7,-7,2,5,7,12,65
115.95,3,3,-17,-5,-12,-11,-2,8
115.955,-5,0,11,-5,-3,19,1,-25
115.96,-2,2,-4,-5,7,-23,-12,22
115.965,-2,4,7,12,18,21,4,-7
115.97,7,4,5,7,4,-3,-3,-33
115.975,6,-1,-6,-5,-13,-13,8,2
115.98,-10,-11,-3,-11,-5,28,19,-34
115.985,-7,-3,-2,-1,-12,-26,-31,7
115.99,12,3,0,7,13,-2,0,29
115.995,-6,-9,7,-5,-5,17,10,8
116,-7,-3,-5,-4,-6,-31,-8,-25
116.005,-1,-4,-3,0,-3,-16,-33,-59
116.01,-7,-2,2,-5,0,-4,11,24
116.015,7,9,-3,2,2,16,15,81
116.02,3,5,2,3,5,15,7,-2
116.025,-1,-5,4,10,3,-5,0,11
116.03,-2,-2,3,-12,-6,8,3,3
116.035,1,-4,-1,3,1,-11,2,-35
116.04,-1,7,5,-2,-9,-11,-18,50
116.045,2,7,2,3,15,33,19,-22
116.05,-10,-20,-14,-12,-6,23,-18,-23
116.055,-2,-1,6,4,-1,-10,5,52
116.06,-4,-7,1,1,-1,3,-14,-28
116.065,1,1,-12,-11,-18,-9,7,-36
116.07,-3,-6,11,-5,-1,-4,4,10
116.075,-12,-2,-5,4,5,9,7,-43
116.08,-12,1,8,14,9,29,26,79
116.085,-10,-5,-8,0,3,-5,-12,-22
116.09,4,3,1,-2,3,3,13,7
116.095,-8,1,5,-3,-5,-20,-16,-43
116.1,1,-1,-4,0,-5,13,-1,-1
116.105,-7,1,6,-2,-6,-14,10,2
116.11,7,-7,-18,6,7,34,-16,5
116.115,3,-7,-2,-12,-8,12,-8,-28
116.12,13,8,2,8,0,-11,0,83
116.125,4,-2,0,-8,2,10,19,-35
116.13,-5,5,4,2,3,13,2,9
116.135,-10,-6,-4,-7,-8,-2,-10,20
116.14,7,4,-5,-4,-3,5,-1,-17
116.145,4,-7,18,-2,-6,-3,26,27
116.15,-8,1,-25,-6,2,-28,7,36
116.155,-11,-8,1,6,-3,-5,-12,-69
116.16,1,-2,-4,-7,-8,-6,16,-93
116.165,3,3,4,-2,1,4,-17,51
116.17,-6,-3,5,1,-9,-54,-46,-33
116.175,16,7,-4,-2,8,26,8,57
116.18,-16,-8,-3,-3,-7,-19,-1,-13
116.185,6,1,-7,-6,-3,-21,-29,0
116.19,-23,-7,-2,1,-5,29,39,-11
116.195,3,6,3,5,10,16,-5,-62
116.2,5,0,3,10,1,3,-9,11
116.205,8,2,5,2,6,20,13,-6
116.21,-3,-6,-11,-5,-6,-8,21,22
116.215,2,2,4,-6,-5,-32,-13,-28
116.22,3,-8,-7,-7,-6,9,26,-29
116.225,-5,6,-3,1,-5,2,2,44
116.23,11,5,13,8,3,-35,-46,-15
116.235,7,2,3,4,7,21,46,25
116.24,-7,5,-6,-8,-6,-12,-27,-13
116.245,-10,-21,-6,-4,-7,8,-10,-74
116.25,10,2,4,-1,-2,-18,-30,-7
116.255,-4,-6,-7,2,-3,-1,10,27
116.26,-2,4,4,-3,2,-6,-11,-33
116.265,0,2,5,-2,-6,0,2,12
116.27,0,9,-7,-1,4,3,-29,-60
116.275,-5,-19,-28,-3,4,4,4,6
116.28,-7,-9,-4,-5,-4,-17,21,-25
116.285,-5,5,1,0,-8,-41,-47,12
116.29,9,0,7,-1,2,42,26,74
116.295,15,8,7,-5,-7,-10,-21,2
116.3,4,-1,-2,2,5,17,5,57
116.305,-5,-4,-11,1,0,-1,13,-47
116.31,-9,0,6,0,-6,-7,0,3
116.315,-15,0,7,-9,-6,-7,20,42
116.32,3,-13,-17,-8,-2,-3,-14,-5
116.325,7,6,3,2,0,-2,-1,38
116.33,-17,-8,-2,-1,-3,-12,-4,-6
116.335,3,1,5,-3,-3,-11,10,-16
116.34,-6,-1,2,0,4,-3,-2,13
116.345,-6,3,-3,3,1,12,9,2
116.35,8,-3,-2,-8,-7,1,2,-21
116.355,-6,-5,-4,4,6,4,-7,-10
116.36,-11,0,3,-3,-3,-9,5,-9
116.365,-4,-1,-4,-2,-2,-5,-14,-49
116.37,9,1,1,-2,2,2,-6,48
116.375,-4,1,4,-1,-5,-1,-17,-18
116.38,3,2,-1,5,-3,-9,8,25
116.385,-1,-5,-3,-9,-1,-16,-3,-6
116.39,-3,0,-1,-2,-4,-19,-2,-19
116.395,2,6,4,6,3,-19,-3,6
116.4,-4,0,2,-2,-2,15,22,20
116.405,-6,-2,-5,-3,-2,11,22,28
116.41,0,-2,3,-1,3,-21,-11,-19
116.415,-16,-6,-9,-7,-10,-2,24,-15
116.42,12,-17,-20,0,5,8,-14,6
116.425,5,2,10,-2,-7,-5,0,34
116.43,4,-1,-6,2,3,15,23,26
116.435,3,4,11,2,-1,-9,-19,-21
116.44,-2,4,7,2,5,3,-7,-24
116.445,-4,-4,-5,-1,1,7,1,9
116.45,1,2,4,2,-2,0,1,-5
116.455,2,0,-4,-3,-5,4,-6,7
116.46,1,1,1,-5,-5,4,-3,-9
116.465,0,0,-5,-4,1,2,0,18
116.47,-4,0,3,4,1,3,10,-7
116.475,-2,-4,-3,2,5,5,-6,-6
116.48,-4,1,1,1,0,2,4,-1
116.485,-2,0,-1,0,-1,-7,-5,-10
116.49,-3,-2,-2,-2,-1,0,-1,-10
116.495,1,-2,-2,-5,-1,3,-13,-4
116.5,0,1,1,-3,-4,2,2,-12
116.505,3,5,-2,7,6,3,1,8
116.51,-5,-16,-13,-6,-2,-2,1,-10
116.515,0,2,-24,-4,-4,1,-5,8
116.52,0,5,6,4,-3,-4,-1,-3
116.525,0,3,4,2,5,0,1,-5
116.53,-1,0,5,-6,-2,4,4,-3
116.535,-2,-1,7,10,1,1,-2,-5
116.54,-2,1,-5,-10,-4,-5,-5,-6
116.545,0,-8,-16,1,0,2,0,-3
116.55,2,5,2,4,1,-1,-2,-6
116.555,-3,-5,-3,-10,-4,-2,-3,-1
116.56,-2,-2,-6,-10,-4,-6,-2,-5
116.565,0,2,17,4,0,0,-1,5
116.57,-1,1,2,4,0,0,2,-3
116.575,-2,-8,-25,-5,-3,0,-3,-3
116.58,-1,3,17,6,4,3,0,0
116.585,0,-3,-2,-3,-7,-5,-1,-4
116.59,-3,0,-8,-3,3,1,-1,-3
116.595,1,0,16,7,2,2,1,-1
116.6,-2,-9,-42,-4,-4,-4,-5,-4
116.605,0,3,20,4,1,0,-1,-1
116.61,-1,1,-4,-5,-4,-1,-1,-2
116.615,-2,4,6,-3,4,1,0,0
116.62,-2,-6,14,-1,-2,-3,0,-2
116.625,-5,-10,-28,-4,-5,-7,-3,-2
116.63,1,0,-15,-4,-4,-2,1,-2
116.635,0,-2,28,7,8,6,1,-3
116.64,0,2,-23,-3,-5,-4,-3,-3
116.645,2,3,1,-3,2,3,-2,-1
116.65,0,5,17,-9,-1,2,0,-1
116.655,-1,0,-22,15,5,-1,-2,-1
116.66,-4,-3,-5,-9,-7,-2,1,-2
116.665,0,3,-36,2,2,-2,1,0
116.67,-2,0,2,-4,-6,-6,-1,-2
116.675,-2,-5,-11,-14,-8,-1,-2,-4
116.68,-5,-4,-1,2,7,-1,-3,-2
116.685,0,-4,-31,-15,-4,-2,-2,1
116.69,-2,3,2,16,4,2,2,1
116.695,0,2,20,-21,-9,-1,0,0
116.7,0,0,-38,19,-1,-2,-2,-2
116.705,0,0,-5,1,8,4,1,3
116.71,2,2,16,-10,-1,-1,-3,-1
116.715,-4,-17,-21,-12,-12,-7,-3,-2
116.72,2,6,19,3,6,-1,-2,0
116.725,-2,5,25,-5,-3,0,0,-4
116.73,-2,2,-5,4,-4,-3,-1,-1
116.735,-5,-14,-8,-7,3,0,-3,-3
116.74,-2,-4,-76,-13,-7,0,3,-2
116.745,0,-1,39,14,7,-1,-1,0
116.75,1,16,22,9,1,1,-1,2
116.755,0,5,20,3,-4,-2,-4,0
116.76,-3,-16,26,4,1,-3,7,-4
116.765,-3,-2,-61,-14,-5,-2,1,-1
116.77,5,10,-12,-6,0,3,0,2
116.775,2,3,52,23,7,3,4,3
116.78,3,1,24,-3,-6,-2,-8,-1
116.785,-3,11,26,-4,-1,-1,-1,-5
116.79,-3,-26,-71,-13,-4,-1,1,-1
116.795,2,11,-4,14,6,4,1,1
116.8,-2,-10,10,-22,-9,-4,-3,-1
116.805,1,0,26,15,-1,-4,0,0
116.81,-3,-7,3,22,2,-1,-2,-1
116.815,4,15,-14,-23,-2,-2,0,1
116.82,-5,-13,-37,5,0,-2,-3,-2
116.825,-5,-10,13,-1,0,0,-4,-4
116.83,0,-2,29,-10,-6,-2,-1,-2
116.835,-2,-9,-70,19,-1,-1,2,-2
116.84,4,32,118,-7,0,0,-2,-2
116.845,-5,-38,-115,-14,-6,-4,-1,0
116.85,-2,0,-30,-12,0,-1,-1,-4
116.855,-2,8,69,7,0,-2,-3,-2
116.86,-2,-11,-36,-5,5,1,-1,0
116.865,-5,4,16,-5,-10,-7,-7,-7
116.87,0,-13,-92,-8,-3,-2,0,0
116.875,-3,11,48,-11,-7,-7,-1,-1
116.88,4,12,47,18,5,4,1,3
116.885,6,20,60,8,3,2,1,1
116.89,-6,-9,-74,-5,4,1,-1,-1
116.895,-5,-11,51,-12,-7,-2,-3,-5
116.9,-1,-11,-54,-3,2,0,-1,2
116.905,-1,13,86,-1,-6,-4,-2,-3
116.91,9,24,-8,13,8,4,3,3
116.915,-9,-22,-21,-9,-2,-3,-2,-2
116.92,4,19,95,23,5,1,1,1
116.925,0,-18,-50,-20,-6,-2,0,0
116.93,-4,-6,37,9,-2,-4,-6,-4
116.935,0,4,58,-4,-3,-4,0,-1
116.94,-3,-6,-22,-5,0,3,0,-2
116.945,-1,3,-33,1,-1,0,0,1
116.95,-6,-10,13,0,-5,-6,-3,-6
116.955,4,-1,22,-8,-3,-5,-2,1
116.96,-4,-10,-102,3,4,-2,0,1
116.965,6,16,38,20,7,12,4,3
116.97,-5,-13,7,-12,-3,-5,-2,-1
116.975,-5,-9,-62,3,-2,0,-4,-4
116.98,2,25,68,4,-2,-11,0,-3
116.985,-3,-22,-112,-16,-1,5,2,-1
116.99,3,7,57,14,1,-4,0,2
116.995,3,-5,-13,12,3,3,3,1
117,0,-5,0,-5,-1,2,-2,-1
117.005,0,-1,11,-2,3,-2,-1,1
117.01,-2,10,93,13,1,-2,-6,-3
117.015,1,6,-17,-9,-2,-2,-2,-2
117.02,-6,-25,-54,-6,-4,1,-1,-1
117.025,0,11,77,14,2,-2,-2,-1
117.03,1,2,8,-4,-5,-2,4,1
117.035,-4,-9,-71,-1,3,4,1,-2
117.04,2,5,-9,-3,-2,-6,-7,-2
117.045,-3,-6,-21,-13,-4,-9,0,-3
117.05,-6,0,127,13,-1,9,-1,-5
117.055,-1,1,-53,-10,-3,-5,-1,-3
117.06,-3,-16,-66,-24,-6,-4,0,-2
117.065,1,-3,15,1,0,-4,-4,0
117.07,1,-8,-106,-7,1,1,0,2
117.075,3,5,50,15,0,1,0,2
117.08,0,5,76,-7,-5,1,-2,0
117.085,-13,-23,-71,-30,-12,-11,-9,-8
117.09,4,13,28,3,8,-2,0,1
117.095,-4,-9,32,7,2,14,3,-1
117.1,0,7,25,-8,-4,-4,0,0
117.105,5,7,40,17,3,1,2,2
117.11,0,1,-80,-22,-8,-3,-1,-1
117.115,1,8,-15,7,3,-3,0,-1
117.12,-5,-4,17,15,3,1,0,-1
117.125,-2,-10,30,0,-1,3,-2,-1
117.13,2,0,-21,-2,-3,-3,0,-2
117.135,3,9,-9,-5,-4,-5,-2,2
117.14,-9,-24,-94,-12,1,6,-3,-7
117.145,0,5,33,13,1,1,2,1
117.15,-5,-8,-19,-11,-4,-4,-2,-3
117.155,-1,-2,29,-15,-5,-6,-3,-2
117.16,3,14,16,5,-2,-8,-4,-2
117.165,-1,14,-28,12,0,-1,-2,-4
117.17,-4,-18,8,-2,-5,-1,-2,-2
117.175,-4,-1,-95,-20,2,-2,-4,-1
117.18,-2,-8,21,-6,-4,-4,0,1
117.185,0,-12,-51,-6,1,1,-1,-1
117.19,0,4,84,11,-2,-1,5,0
117.195,-1,-12,-55,-15,-3,-4,-2,-1
117.2,3,19,45,22,6,5,2,1
117.205,-3,-4,15,-18,-7,-7,-3,-2
117.21,-4,-7,-8,-2,2,2,-2,-2
117.215,-1,4,-11,9,0,0,5,-2
117.22,0,4,7,-2,-3,-1,-4,-1
117.225,3,5,19,7,1,-1,2,1
117.23,-4,-8,-69,-8,-2,-4,-2,0
117.235,-2,-4,-17,31,14,8,3,1
117.24,4,9,24,-6,-4,2,3,0
117.245,-3,-2,11,20,3,-7,-5,-4
117.25,4,-8,-115,-42,-7,4,1,0
117.255,1,11,71,8,-6,-12,-1,-1
117.26,-5,-17,-77,-20,-6,2,-11,-6
117.265,4,11,86,15,0,1,1,0
117.27,2,6,-3,11,2,-6,-1,2
117.275,4,6,22,-5,-5,0,0,1
117.28,-1,7,-22,-8,-1,-5,1,2
117.285,2,3,55,17,4,5,2,2
117.29,-5,-4,37,-3,-1,-3,-5,-5
117.295,-2,6,31,9,-3,-2,-3,-2
117.3,-3,-10,39,-4,-2,-5,-1,-2
117.305,3,5,62,14,-2,1,-1,1
117.31,-5,0,127,11,-2,-3,-1,-4
117.315,2,-10,-73,-21,6,7,0,2
117.32,-1,5,-95,-21,-9,-19,-6,-2
117.325,2,17,-9,22,10,23,7,2
117.33,-2,-5,31,21,0,-3,-4,-3
117.335,-6,-8,-51,-10,-4,-10,2,0
117.34,9,-10,56,15,4,15,3,5
117.345,-5,7,-69,-39,-13,-17,-7,-6
117.35,5,12,31,7,5,0,1,0
117.355,-7,-9,-66,-4,-3,0,-2,-4
117.36,-3,-15,35,12,2,-17,-4,-1
117.365,-5,-13,-18,-9,-2,14,16,-2
117.37,-4,6,20,11,4,13,0,1
117.375,-1,-10,-81,-33,-8,-1,2,-2
117.38,-5,-6,57,9,-3,-1,-11,-3
117.385,-2,-1,-32,10,-2,-9,-6,-3
117.39,-3,-5,-67,-18,3,-4,10,2
117.395,4,-1,62,15,0,0,-10,-1
117.4,-5,3,7,3,-1,-11,11,-4
117.405,-3,-12,-27,-1,-1,4,-10,-3
117.41,8,11,19,4,3,9,5,4
117.415,-7,2,91,-10,-2,-2,-4,-4
117.42,2,5,-37,6,1,5,3,-1
117.425,1,4,72,-3,-4,-15,-4,1
117.43,0,-11,-51,-7,-7,-3,1,-2
117.435,4,4,19,5,-2,-9,-7,1
117.44,-6,-1,-29,-1,0,1,-9,-3
117.445,0,-3,-2,-2,-2,-6,4,2
117.45,-5,-10,2,-14,1,13,0,-3
117.455,2,5,8,7,1,-2,-6,2
117.46,-2,-3,-2,2,1,3,6,-1
117.465,-1,-10,-69,-10,-2,-2,3,1
117.47,-1,2,10,2,-2,-14,-14,-4
117.475,0,-2,-25,-10,-3,5,-2,-1
117.48,-3,-2,11,9,4,5,0,0
117.485,2,-1,46,-6,-3,-2,4,2
117.49,-4,-6,-40,0,-3,-9,-1,-2
117.495,-8,-11,2,-20,-9,-5,1,-3
117.5,5,7,-25,7,0,2,2,2
117.505,-5,-5,47,6,5,5,2,-1
117.51,-2,-5,-71,-9,-6,-5,-7,-3
117.515,0,-1,29,12,3,-2,-2,0
117.52,-2,-4,-15,-10,-7,-2,-1,-3
117.525,-2,-3,-31,-10,1,-2,-9,-2
117.53,1,6,37,14,3,-2,5,0
117.535,1,1,13,10,2,19,10,-3
117.54,-1,-3,-14,-4,-3,-14,8,-1
117.545,-3,-4,-28,-14,-8,3,-13,-4
117.55,-1,-1,-10,-1,8,4,3,2
117.555,-3,-1,-8,5,-3,-20,-13,-3
117.56,0,2,41,3,2,24,13,1
117.565,-3,-6,-56,-7,1,-11,-17,-3
117.57,-4,-4,20,0,-8,-10,-7,-9
117.575,-1,-3,-16,-13,-3,0,8,2
117.58,1,9,41,23,7,-5,-6,0
117.585,0,-2,-25,-3,4,1,3,2
117.59,-1,1,-37,-11,-1,5,0,2
117.595,-1,-1,13,8,1,-3,-4,0
117.6,-1,0,14,-7,-8,-5,-1,-1
117.605,-1,1,11,5,-1,3,2,0
117.61,1,3,-30,0,0,-1,1,-1
117.615,-1,-5,43,-4,-1,3,2,-2
117.62,-2,0,-21,-13,-5,1,-4,0
117.625,0,1,9,0,0,-4,-7,-2
117.63,-2,-1,24,6,0,-14,-4,0
117.635,-1,0,-12,-2,-3,15,2,-1
117.64,-2,-4,-13,-1,3,13,8,-1
117.645,-2,2,3,-10,-5,-9,-16,-3
117.65,-3,-7,0,0,1,8,7,-1
117.655,3,2,-25,4,1,-3,0,-1
117.66,-2,-2,15,-11,-9,-11,-4,-2
117.665,-1,1,-9,3,8,-5,-1,1
117.67,-3,-8,7,-15,-11,-1,6,-1
117.675,-1,1,1,6,3,-6,3,1
117.68,-1,-3,16,3,-2,5,-10,-3
117.685,-3,-1,-14,-11,-6,-3,6,-3
117.69,1,10,11,5,3,0,-3,0
117.695,-4,-5,-43,5,2,9,3,-1
117.7,-2,1,24,-4,-8,-18,-14,-4
117.705,-2,-3,19,-1,-5,-10,4,0
117.71,3,3,4,2,7,40,11,1
117.715,0,-1,-15,-2,-2,-1,-1,-2
117.72,0,-3,-5,2,4,-13,-5,-2
117.725,-1,-8,-13,-9,-9,21,9,-2
117.73,1,2,-6,-4,0,-22,0,2
117.735,-3,1,23,1,-9,-35,-32,-8
117.74,-4,-6,-40,-10,7,57,39,3
117.745,-3,-6,-11,-3,-7,-31,-44,-9
117.75,-2,-2,11,4,-9,12,7,-4
117.755,1,3,33,-2,9,14,6,2
117.76,0,1,10,6,-2,-21,-5,4
117.765,-3,-3,-77,-6,2,-6,14,-1
117.77,-3,-13,27,0,-2,-2,-12,-1
117.775,0,10,-22,-5,-10,-37,-18,-3
117.78,1,-10,22,5,6,29,1,2
117.785,-5,-7,-50,-9,-3,16,20,-2
117.79,-4,-10,-8,-22,-10,-7,-10,-4
117.795,9,22,48,10,-7,-84,-15,8
117.8,2,-12,17,12,18,88,59,0
117.805,6,9,-24,9,3,-17,-2,6
117.81,-10,-22,-64,-18,-16,-79,-33,-7
117.815,5,15,41,20,26,115,69,30
117.82,-14,-7,-34,-19,-15,-84,-62,-30
117.825,4,6,47,8,0,-21,32,11
117.83,-5,4,-48,-5,3,-9,-91,-36
117.835,-4,-15,21,-17,-18,-55,-17,-3
117.84,1,8,-8,7,-10,-40,-30,1
117.845,-3,-7,-3,0,19,60,39,3
117.85,-2,2,-22,-2,-6,-8,1,10
117.855,-8,-14,11,6,-3,-4,-16,-19
117.86,0,-1,-47,-22,-6,12,-15,2
117.865,1,8,65,1,-11,-67,-54,-11
117.87,4,-1,-8,12,10,40,51,14
117.875,-2,4,15,-6,-1,20,-13,-3
117.88,6,5,-10,1,15,56,68,13
117.885,-6,-6,52,3,-10,-2,-13,-2
117.89,-2,-1,-28,-4,-2,-9,11,4
117.895,-3,-11,-56,-20,-3,20,21,-8
117.9,5,7,17,9,-7,-60,-57,-3
117.905,-2,1,19,1,-2,-11,-6,7
117.91,2,1,30,15,4,4,-24,-13
117.915,8,0,2,5,4,35,-8,4
117.92,1,0,-33,-14,5,39,11,21
117.925,4,-2,-15,6,10,28,-5,20
117.93,-4,1,18,-4,-9,-61,-20,-18
117.935,-9,-9,-33,-7,-7,15,32,-20
117.94,-2,4,23,6,-6,-44,-12,-8
117.945,0,-4,-7,-6,-9,24,20,9
117.95,-3,-1,13,-4,6,2,8,10
117.955,2,9,16,3,-2,-31,-11,-5
117.96,-4,-10,-9,2,7,49,25,16
117.965,-3,0,-17,-5,-5,-29,-10,-30
117.97,4,9,51,21,6,2,2,2
117.975,-3,-6,-23,-3,-5,17,9,2
117.98,2,5,-41,-19,-6,-49,-26,0
117.985,3,-4,-11,-1,-2,-11,-19,-4
117.99,-5,-3,19,0,3,37,32,-2
117.995,8,3,-10,3,2,-14,-22,54
118,-6,11,26,10,-5,-25,-21,-28
118.005,1,-6,-6,-17,-4,-11,-12,-20
118.01,7,4,-2,2,9,37,26,17
118.015,1,0,-3,-1,-1,-18,-21,-24
118.02,-10,-11,-12,-8,-13,-28,-8,5
118.025,-4,-1,0,1,0,7,-3,9
118.03,-1,3,19,1,-25,-34,-4,-3
118.035,-4,-2,-21,-2,22,63,84,9
118.04,3,-1,8,7,16,15,-69,-22
118.045,1,0,-1,5,-5,-23,-6,-2
118.05,-1,-2,9,-10,-11,-35,-10,-3
118.055,-3,-9,-4,-9,-9,39,36,1
118.06,-6,-7,-2,1,-2,-8,-3,-9
118.065,0,-2,5,-3,-4,-5,2,3
118.07,-4,5,-40,-2,-3,22,15,-9
118.075,5,0,3,3,4,-15,-16,-10
118.08,3,-11,-22,-17,-4,-9,19,-16
118.085,-10,-9,-25,-2,8,5,-3,-27
118.09,-2,-4,10,4,2,19,-21,8
118.095,2,1,-1,4,8,32,41,1
118.1,3,10,23,12,-1,14,17,11
118.105,0,-12,6,-7,-8,5,24,20
118.11,-10,-8,-36,-14,-1,-4,-7,-17
118.115,-6,1,5,5,2,-33,-16,-11
118.12,-1,1,4,0,-6,2,-40,0
118.125,8,7,14,5,6,26,2,27
118.13,4,3,18,0,0,15,6,6
118.135,-10,-13,-18,-9,-12,-16,-6,-1
118.14,-1,-2,3,-3,1,18,38,12
118.145,-5,-2,-43,-8,-6,-16,4,18
118.15,10,6,23,5,16,26,-30,14
118.155,-9,0,2,0,-12,-15,4,1
118.16,1,-16,10,2,2,-16,8,11
118.165,-7,-5,-46,-4,0,22,-1,-10
118.17,6,-2,12,-5,-5,-13,-27,26
118.175,-9,4,4,5,7,22,14,-2
118.18,-4,6,13,2,-1,31,1,-45
118.185,7,2,14,2,-5,-5,10,-45
118.19,-1,10,12,12,3,-32,2,-8
118.195,-5,-8,-5,-5,-9,-14,-25,-14
118.2,4,-1,-14,-11,-9,-48,19,21
118.205,-3,-5,-16,-3,-3,18,-9,-18
118.21,-19,-18,-15,-20,-13,-75,-57,-4
118.215,16,12,26,12,1,0,8,40
118.22,0,1,7,-4,-6,-30,-24,8
118.225,-5,-4,-3,1,2,-5,-4,13
118.23,0,-5,14,-4,-7,-6,41,-19
118.235,-4,0,-6,-3,-2,-39,-68,11
118.24,2,1,-29,3,10,44,4,-16
118.245,8,15,-15,-2,6,18,9,11
118.25,-9,-17,0,6,-3,13,20,13
118.255,3,-1,-34,-27,-11,-14,14,-43
118.26,-11,-10,19,8,4,1,28,70
118.265,-5,12,20,-4,3,-1,-18,-63
118.27,3,2,-3,2,0,3,25,39
118.275,4,10,25,9,4,43,4,13
118.28,-14,-18,-39,-29,-23,-19,-8,-55
118.285,-5,2,26,29,22,-9,14,44
118.29,4,1,31,-5,-1,12,29,-1
118.295,0,2,-16,-7,-3,-19,-25,6
118.3,-1,4,9,4,-6,0,14,6
118.305,-5,0,31,4,-3,13,1,-44
118.31,-1,11,-3,0,-10,3,-11,-5
118.315,-12,-20,1,-6,8,-21,-24,-32
118.32,3,5,11,22,8,26,24,-12
118.325,-16,-29,-81,-34,-14,9,15,-5
118.33,17,20,0,15,11,-21,-6,-20
118.335,-8,-18,-9,2,-6,-11,17,21
118.34,9,1,-17,-9,1,-24,-39,24
118.345,1,-3,36,7,-5,-8,-10,15
118.35,-2,14,0,-11,-2,11,9,-19
118.355,-1,-10,-9,6,-4,-14,-4,20
118.36,3,5,29,-2,1,2,20,-17
118.365,2,6,8,-2,3,-12,-8,14
118.37,-2,-4,-16,2,-1,8,-3,7
118.375,6,13,8,-1,7,2,-11,-14
118.38,-8,-6,1,10,-2,-5,-20,0
118.385,1,0,-8,-9,-7,-6,10,14
118.39,-5,-9,3,-6,-4,6,1,-11
118.395,-4,1,14,0,-3,-7,-9,-12
118.4,-2,-2,-17,-8,-3,-6,6,2
118.405,1,1,5,1,3,0,-1,2
118.41,1,-1,-5,2,4,10,0,-4
118.415,0,-2,-3,-5,-4,-7,-7,-4
118.42,1,6,3,7,-2,3,6,4
118.425,2,0,17,6,22,-1,-10,4
118.43,-5,-8,-7,-6,-6,3,4,0
118.435,-3,-4,-22,18,4,-5,-1,-7
118.44,1,0,12,-31,-6,-3,-1,-4
118.445,-1,1,19,13,-8,-6,-5,1
118.45,-2,-6,-16,-26,-6,-1,3,0
118.455,0,3,2,43,-7,-2,-2,-8
118.46,2,3,3,-8,8,4,-2,-1
118.465,1,-1,-2,7,20,2,-1,3
118.47,0,-7,-11,1,4,7,4,5
118.475,-2,5,41,-50,-32,-13,-13,-8
118.48,-4,-13,-58,45,26,0,0,-2
118.485,-3,-5,-14,-5,-4,1,3,4
118.49,2,5,27,-15,-10,1,-4,-4
118.495,-1,-5,-54,34,10,3,0,-1
118.5,-2,2,71,-24,-9,-8,-2,-2
118.505,5,14,-31,42,-2,4,0,3
118.51,-8,-34,-78,-55,12,-2,-3,-6
118.515,-4,2,92,-10,-22,-10,-7,-5
118.52,0,10,-44,11,5,2,3,2
118.525,1,0,18,35,-8,-2,-7,-2
118.53,0,9,1,-55,0,0,3,0
118.535,-1,-22,-50,0,13,5,3,1
118.54,-5,-8,-20,-19,-19,-6,-7,-6
118.545,0,-8,27,-42,-6,-4,-1,0
118.55,7,20,42,62,4,5,1,3
118.555,3,-3,-27,-12,16,6,0,0
118.56,-5,-7,24,-37,-7,-4,-1,-1
118.565,-1,0,43,60,-15,-8,-6,-2
118.57,-3,-8,-4,0,-6,0,-1,-1
118.575,4,11,3,5,5,6,3,-1
118.58,3,-5,-14,-29,-2,-2,1,4
118.585,-4,9,-24,-1,2,-5,0,-2
118.59,2,-10,32,12,23,10,5,3
118.595,-1,0,23,-14,-15,-3,-5,-3
118.6,-5,2,-59,14,-9,-6,-5,-5
118.605,-1,-23,-23,-9,14,2,5,1
118.61,-1,15,25,3,-23,-11,-6,-2
118.615,2,7,-14,-39,15,9,5,4
118.62,-1,0,33,81,-2,-3,-5,-3
118.625,5,16,-21,-44,-17,4,6,-3
118.63,-4,1,-20,63,17,2,-19,-1
118.635,-3,-14,-12,-20,-11,-16,4,3
118.64,2,12,63,71,12,-3,-16,-2
118.645,-5,-15,-46,-72,-24,-5,11,-3
118.65,-2,-3,27,17,8,5,1,-6
118.655,4,6,-5,-11,-1,4,17,2
118.66,-4,-6,19,-11,4,2,-5,4
118.665,6,-3,19,39,5,-5,-11,1
118.67,0,5,-65,-87,-21,5,29,0
118.675,-24,-6,34,48,22,-20,-57,-20
118.68,3,-3,6,-16,8,6,24,-1
118.685,-22,-15,-9,-68,-7,-8,-29,-3
118.69,18,7,51,3,-5,4,21,3
118.695,7,0,-20,-16,-19,-11,-4,-4
118.7,-5,-3,-10,-9,-6,3,4,1
118.705,16,7,33,17,7,14,77,1
118.71,15,-4,-31,17,15,4,-82,13
118.715,9,10,-6,45,16,-11,-40,-5
118.72,68,31,3,-34,3,23,69,32
118.725,-19,4,-13,8,-7,1,-66,-35
118.73,-20,-19,19,5,-1,-2,82,0
118.735,17,-21,-30,-19,-10,-11,69,26
118.74,1,-26,5,-25,-28,-21,-49,-45
118.745,18,25,-23,11,20,30,98,8
118.75,60,-14,-72,-17,-10,18,10,9
118.755,-92,4,82,-34,-5,-5,-69,-1
118.76,95,7,-8,41,-6,-32,-69,17
118.765,-12,31,-49,-45,-13,-16,-24,-15
118.77,88,31,-40,39,9,0,-5,-6
118.775,-75,-55,-22,-33,-15,-5,5,-42
118.78,112,-22,-43,10,1,10,11,24
118.785,-52,10,69,34,7,-6,-30,3
118.79,12,10,-44,-4,1,-12,-7,-4
118.795,-30,23,-19,-12,-14,11,8,32
118.8,4,5,2,40,11,30,-8,-43
118.805,-60,-75,10,-29,-11,-33,-3,0
118.81,83,-3,27,-22,-6,-3,19,7
118.815,32,17,29,-9,5,8,3,-15
118.82,29,22,-32,-31,8,5,-30,47
118.825,33,14,33,52,21,28,49,11
118.83,-61,-21,20,13,-27,-22,-31,-39
118.835,26,-4,-3,83,30,3,-19,6
118.84,-128,6,35,-35,-2,-7,7,-33
118.845,57,-11,-55,-29,-18,1,-8,5
118.85,-99,-27,18,-38,-5,-18,-2,6
118.855,27,0,-29,20,12,4,15,5
118.86,-27,9,40,-35,-19,-5,12,-15
118.865,-80,1,0,57,25,2,0,-31
118.87,22,-1,27,-1,-15,-15,-46,-7
118.875,49,-7,-46,-14,-6,9,45,20
118.88,-86,-1,17,-25,0,4,12,-38
118.885,79,-19,-31,-17,-11,-14,-29,28
118.89,-40,6,-5,9,9,5,43,-15
118.895,53,22,-8,-9,2,5,-47,-19
118.9,15,-14,-32,-34,-3,-7,16,28
118.905,-56,2,29,8,-17,-3,53,-13
118.91,36,12,-28,6,21,-16,-96,40
118.915,2,-7,22,30,-1,21,76,14
118.92,-80,-33,-80,-9,-6,-20,4,-13
118.925,63,19,23,-2,-10,-6,-16,19
118.93,40,4,12,-3,0,3,43,18
118.935,-9,-11,15,-21,-3,6,25,-32
118.94,-7,7,1,7,8,-2,-60,-18
118.945,-15,-13,30,-54,-27,-16,-23,5
118.95,-7,-4,-38,55,32,14,14,0
118.955,-23,9,13,3,-12,3,-14,-31
118.96,47,-4,-1,26,-3,2,27,46
118.965,16,-1,48,14,7,-1,21,45
118.97,-90,-3,2,-21,-9,-1,-43,-41
118.975,76,10,-16,18,6,6,101,5
118.98,-28,-5,46,-32,-14,-25,-55,9
118.985,-2,-15,-68,-15,10,-1,-19,-25
118.99,17,5,42,-18,-5,5,13,11
118.995,-31,0,37,29,-1,-2,-20,-4
119,0,3,-14,16,14,11,34,-10
119.005,1,6,-13,-32,-5,1,-40,-20
119.01,-80,-15,-18,1,-11,9,7,-28
119.015,-12,-8,-11,-48,-20,-42,-50,9
119.02,39,14,42,25,19,19,-19,25
119.025,10,0,-45,17,4,-13,27,21
119.03,33,17,24,48,-1,15,19,-7
119.035,-91,-18,-39,-82,-24,-28,-70,-26
119.04,36,1,16,70,20,10,68,35
119.045,-20,-7,-10,21,19,3,-34,-7
119.05,16,10,12,7,-10,-3,18,6
119.055,5,14,-16,-27,-9,-1,-26,-7
119.06,-39,-15,-41,-70,-27,-19,19,-34
119.065,-14,13,27,59,10,13,-11,-21
119.07,24,-5,-24,-5,-4,-3,-12,-10
119.075,75,20,60,-75,-16,2,28,59
119.08,-19,-18,-14,70,51,32,-3,13
119.085,15,7,54,-48,-6,-4,-31,-5
119.09,3,-7,-73,-16,1,-1,-2,9
119.095,40,1,-17,10,2,23,-28,5
119.1,1,-2,-4,-8,-16,-11,87,14
119.105,-9,0,7,-11,-4,9,-26,-37
119.11,49,1,21,-73,-9,2,41,28
119.115,-28,-7,12,127,33,3,31,13
119.12,-20,3,-4,-46,-27,-10,-31,-16
119.125,-8,-16,-92,-8,2,-5,-2,2
119.13,-2,2,45,-44,-6,-2,-5,-4
119.135,9,-9,-79,13,2,-4,-8,-17
119.14,-6,6,6,10,-7,5,-12,-28
119.145,16,18,35,22,12,18,50,19
119.15,-1,-9,-33,-3,-1,-24,-50,38
119.155,11,-6,24,35,13,4,19,5
119.16,-25,-4,5,-26,-9,-11,-20,-13
119.165,2,2,2,-25,-5,6,34,9
119.17,-35,-8,-6,25,0,-2,-6,-17
119.175,-6,0,7,-7,7,3,2,-7
119.18,2,3,-8,-10,-6,0,-33,-28
119.185,19,-4,11,-4,-13,-14,17,19
119.19,-20,-4,4,4,6,-3,1,-12
119.195,-13,-4,4,-3,4,1,-17,-4
119.2,35,4,-2,-2,-5,0,-3,1
119.205,4,-6,-3,-4,-4,-3,-11,-5
119.21,-18,-5,7,18,4,3,4,-4
119.215,-1,12,56,-16,-9,1,-6,-3
119.22,2,-7,-48,-2,4,-3,-1,6
119.225,-5,5,9,-3,-9,-9,-10,-1
119.23,-11,-10,-5,-9,0,-4,-4,-10
119.235,15,6,22,7,0,0,-4,-2
119.24,4,-9,8,-8,-1,-6,6,3
119.245,0,-4,-24,-5,-1,-5,-19,-2
119.25,-5,-5,-6,0,-3,3,4,-6
119.255,-1,-12,-7,-16,-1,4,1,1
119.26,-4,15,44,11,3,-1,2,2
119.265,8,-7,-15,-3,-1,0,-8,-4
119.27,-6,-5,0,14,-3,-5,-1,3
119.275,-14,-5,-48,-27,-10,-17,-13,-9
119.28,-3,-10,-24,2,-2,7,6,-3
119.285,1,8,50,3,4,-2,-6,1
119.29,-4,-8,9,23,7,9,8,-5
119.295,-9,-9,13,-12,-4,-8,-7,-2
119.3,3,4,19,-12,-3,-5,-3,3
119.305,4,20,-1,-4,-12,-10,-7,-2
119.31,-11,-29,29,0,6,7,0,2
119.315,-1,13,-11,4,2,0,1,-4
119.32,-1,-3,-1,-1,-1,-3,-3,-1
119.325,-1,-5,-1,-1,-7,-4,-1,-2
119.33,-1,16,26,0,-8,-9,-7,-6
119.335,5,6,-1,-9,4,8,5,7
119.34,0,-9,22,-8,-6,-8,-3,-2
119.345,-1,-12,-50,4,10,6,-5,-3
119.35,-9,-40,57,7,-21,-11,-7,-5
119.355,-3,21,-78,-45,-15,-8,-4,-6
119.36,3,19,91,39,32,11,6,5
119.365,-1,-16,-77,5,13,10,1,-1
119.37,-6,-20,78,1,-6,-5,-5,-5
119.375,-9,-5,-10,2,-19,-12,-6,-5
119.38,3,-18,-80,-29,-6,3,0,2
119.385,9,59,105,16,5,1,0,1
119.39,-4,-18,-31,4,1,-2,3,-2
119.395,-2,-2,18,3,0,-3,-1,-1
119.4,-2,14,-28,5,-2,-2,-1,1
119.405,14,37,57,17,5,3,1,4
119.41,-4,-17,-73,-27,-7,-4,-3,-1
119.415,6,18,100,39,11,10,8,0
119.42,-14,-25,-67,-47,-11,-11,-6,33
119.425,-16,-20,37,1,-4,-15,-15,-53
119.43,19,51,-85,3,-2,1,23,26
119.435,-1,-15,64,5,7,4,-6,-9
119.44,8,5,-43,22,3,4,2,0
119.445,1,5,51,1,-8,-2,0,10
119.45,-8,-5,-6,-12,-2,-7,-6,-5
119.455,3,0,-62,16,10,4,4,4
119.46,-4,-18,58,-5,-13,-5,-2,1
119.465,-1,3,5,-6,-2,-2,-3,6
119.47,3,28,38,18,12,6,-3,-11
119.475,-2,-6,-42,-1,-2,-2,4,8
119.48,-3,-10,67,-4,-5,-5,-9,-17
119.485,-5,-43,-32,-5,-6,-2,2,10
119.49,-1,11,-35,-27,-9,-3,-3,-2
119.495,1,-3,91,-2,5,1,0,-5
119.5,2,25,21,23,13,5,2,-2
119.505,4,-1,60,18,-1,-4,0,11
119.51,-1,9,21,3,5,6,-2,-5
119.515,-3,-11,-53,-13,-8,-10,-8,-8
119.52,-7,-14,-43,-10,-11,-8,-6,-19
119.525,5,8,33,2,-4,-17,-10,8
119.53,5,-15,4,1,8,65,23,-7
119.535,3,-3,14,11,3,-8,-6,41
119.54,-2,10,-3,-16,-4,10,2,-9
119.545,-1,-8,-34,-2,1,5,-7,-2
119.55,-3,4,-53,-7,-2,-21,-8,2
119.555,-12,-17,-59,-7,-2,1,-4,-13
119.56,5,9,50,18,-2,-1,10,17
119.565,-9,-13,-50,-30,-11,-16,-29,-79
119.57,-5,5,0,6,5,-13,7,4
119.575,-2,-4,-48,-1,-1,-1,9,-10
119.58,8,3,-1,-5,4,38,12,38
119.585,3,-8,-46,-9,-3,-30,-1,18
119.59,4,10,48,21,16,69,1,36
119.595,1,1,-55,-5,-4,-38,-6,-63
119.6,-4,-5,-16,-4,-4,20,7,34
119.605,-3,-6,4,-10,1,-11,-1,-68
119.61,-3,-2,-60,4,-9,-41,-23,47
119.615,10,-4,4,-8,4,27,5,38
119.62,-15,-5,-14,6,1,-2,7,-68
119.625,11,2,-6,0,5,21,23,30
119.63,3,6,36,9,-8,-50,-16,52
119.635,-21,-13,-55,-18,-9,8,-1,-41
119.64,-5,9,40,13,-7,-36,16,101
119.645,3,-19,-106,-29,-4,18,-13,-62
119.65,-15,3,25,11,5,-11,-25,-16
119.655,11,7,57,11,6,8,5,51
119.66,11,-2,12,2,-4,-34,2,66
119.665,-3,4,-32,-7,-6,15,31,68
119.67,-1,-10,-4,-22,-4,-31,2,-86
119.675,-18,-8,13,1,1,52,-6,-21
119.68,13,3,-5,1,7,47,-13,61
119.685,7,1,14,13,7,44,17,10
119.69,-3,-5,-13,-14,-14,-55,-65,-40
119.695,8,4,55,10,-13,-45,-35,31
119.7,-17,-16,-97,-13,4,39,72,-81
119.705,-15,-2,21,-4,-6,17,34,16
119.71,9,8,5,-5,-6,-34,-18,-6
119.715,1,-3,35,12,22,64,36,0
119.72,-7,-10,-6,-4,-10,-34,-65,-48
119.725,-11,-2,-17,-17,-16,-40,-8,-8
119.73,4,4,49,8,-1,28,24,3
119.735,2,11,77,1,-3,-48,4,36
119.74,7,10,-12,5,5,-21,-26,-32
119.745,-20,-15,-4,4,11,11,-25,-91
119.75,-9,-7,1,-9,-16,-28,-16,53
119.755,21,4,-19,-3,-1,32,26,-40
119.76,5,5,16,-1,-8,-33,-47,-5
119.765,-8,-9,5,-5,-3,65,70,-19
119.77,-14,-2,-2,5,9,12,-31,-13
119.775,5,-11,-40,-6,6,21,34,-58
119.78,-2,5,10,-1,-2,-9,11,-30
119.785,-5,-2,7,-5,-15,-40,-73,88
119.79,-1,0,-8,2,1,19,41,-124
119.795,-19,0,-13,7,15,-10,-41,11
119.8,12,7,38,-10,-8,12,6,45
119.805,1,-1,-16,4,8,-14,-11,-51
119.81,20,10,8,13,10,53,38,91
119.815,-25,-10,-21,-15,-22,-49,-22,-17
119.82,-19,0,-3,-5,-12,14,3,-35
119.825,-21,-13,0,-5,2,-39,-9,127
119.83,-15,-2,-2,1,13,15,-19,-124
119.835,22,4,1,3,-3,-13,-3,-43
119.84,-6,-10,-11,-1,-1,21,56,78
119.845,24,12,4,8,-1,10,-39,4
119.85,-6,-1,-7,-5,-10,1,-28,46
119.855,-7,-3,-7,1,3,16,19,36
119.86,4,-3,1,-7,-9,-31,-15,63
119.865,-9,2,7,9,15,24,26,-64
119.87,1,-3,-1,4,2,-1,19,-9
119.875,2,2,-2,-1,-7,-8,11,-25
119.88,1,-2,-13,-3,0,-9,-42,-20
119.885,6,2,15,-3,-6,-7,12,16
119.89,3,-2,-12,-7,-5,-1,13,37
119.895,6,-1,-7,-2,-2,-3,-3,9
119.9,1,0,11,6,4,-26,-21,-128
119.905,-25,-7,5,-2,-3,-6,-15,52
119.91,4,0,13,-5,-8,2,20,-12
119.915,-6,-9,-43,-7,-7,-17,-25,4
119.92,-9,-5,5,-1,2,-11,-8,-30
119.925,14,16,26,6,-3,2,17,-5
119.93,-22,-31,-32,-13,-8,-3,16,-1
119.935,0,-3,-23,-7,-6,-4,13,25
119.94,9,4,-1,3,5,15,15,-32
119.945,3,-3,-2,0,2,29,-14,-7
119.95,-4,12,-7,6,2,-32,-9,4
119.955,6,3,17,-4,6,-16,-27,33
119.96,-37,-23,-27,7,0,20,18,21
119.965,9,16,6,-5,-2,-8,35,35
119.97,4,-27,-34,-3,-3,7,-3,-94
