timestamp,ch1,ch2,ch3,ch4,ch5,ch6,ch7,ch8
27.25,-2,-2,-3,0,-6,-4,1,-1
27.255,-1,-2,2,1,2,2,0,0
27.26,0,-1,-2,-3,4,1,1,-1
27.265,-1,1,2,3,1,-1,0,-2
27.27,-2,-1,1,-4,-6,-2,-2,-1
27.275,-1,-1,-2,-1,-1,1,-3,-1
27.28,-2,-1,0,0,-2,-1,-3,-2
27.285,-2,-2,-4,1,0,1,0,1
27.29,0,-1,-1,-1,1,-3,-3,0
27.295,-2,-1,0,-1,1,-1,-1,-3
27.3,1,0,-2,0,1,2,-1,-2
27.305,-2,0,-5,-5,-3,1,-1,-2
27.31,-1,0,1,-1,-4,-4,-1,0
27.315,-1,0,1,-2,2,-1,1,-1
27.32,0,-3,-1,-2,-3,-7,-1,-2
27.325,1,-3,-8,1,3,4,-1,-1
27.33,0,-1,1,1,4,4,2,-1
27.335,1,-1,0,-5,-9,-3,-2,-1
27.34,-1,-1,-3,-2,-1,-3,-2,-2
27.345,0,-1,0,0,0,1,-1,-1
27.35,-3,-1,0,1,4,-2,0,-1
27.355,-1,0,2,4,6,0,-1,0
27.36,-1,-3,-3,-5,-5,0,0,-2
27.365,-1,-3,-7,-2,-7,-3,1,-1
27.37,-1,-2,-3,-3,-4,-3,-3,-2
27.375,-2,0,-1,0,0,-2,-2,-1
27.38,0,-1,0,2,5,-2,-1,0
27.385,1,-1,0,0,0,3,-1,-1
27.39,-3,-1,-2,-3,-3,-3,-1,-2
27.395,-4,-1,-3,-1,2,-8,-1,0
27.4,-2,0,-1,-2,-1,5,1,0
27.405,0,-1,-3,0,-3,-4,-3,0
27.41,-1,-1,0,-1,-2,-3,-3,-1
27.415,-1,-2,1,1,1,2,-1,-1
27.42,-1,-2,-3,-3,0,0,-2,0
27.425,-1,-1,-2,-5,-2,1,0,-3
27.43,0,-1,1,2,0,-1,1,-1
27.435,0,-2,0,-3,-2,-2,-4,-1
27.44,-1,-1,0,-1,0,-1,-1,-1
27.445,0,-1,1,0,2,0,-1,1
27.45,-2,-1,-3,-4,-5,-2,0,0
27.455,-3,-2,0,-6,-5,-3,-3,-4
27.46,-2,2,4,1,-2,-1,0,-1
27.465,-2,-2,-9,-1,3,-2,0,-2
27.47,-1,-2,-1,-3,-2,0,-1,-3
27.475,-1,-2,-3,0,-2,-1,-1,-1
27.48,-2,-1,0,0,1,-1,-1,0
27.485,-2,0,4,-1,-3,-2,-1,-2
27.49,1,0,0,-2,-1,-2,-2,-1
27.495,-1,1,0,-1,-1,0,2,0
27.5,-2,-1,-4,-1,1,-3,-2,-1
27.505,-1,-2,2,2,-2,-2,-1,0
27.51,-3,5,-20,-4,-4,-1,-1,-1
27.515,1,-2,-1,0,1,3,2,-1
27.52,-1,0,-5,1,-1,-3,-1,-3
27.525,0,-1,-3,4,1,-2,2,-1
27.53,0,-2,-6,-4,-3,-3,-3,-1
27.535,7,13,18,6,2,2,3,3
27.54,0,-3,2,3,3,-2,0,-1
27.545,-1,-2,0,-3,-7,-1,-1,0
27.55,-2,-5,-6,-5,-3,-3,-1,-2
27.555,1,1,5,4,8,3,1,0
27.56,-1,0,3,-3,-8,-1,-3,-1
27.565,-2,-4,-7,-6,-4,-1,-1,-1
27.57,-1,-1,2,-1,2,0,-2,0
27.575,-2,-1,-4,-1,-1,0,-2,-2
27.58,0,-2,0,0,0,-1,1,0
27.585,-1,-1,0,-1,-3,-3,0,0
27.59,-1,-2,2,-3,-3,-1,-2,-2
27.595,-1,-2,1,-2,-2,-1,-1,0
27.6,-4,-1,-2,0,-3,-2,-2,-1
27.605,-1,0,1,-1,-1,-6,2,-1
27.61,0,-1,-1,0,2,4,3,0
27.615,-3,-1,-1,-2,-1,-3,-3,-1
27.62,-2,-1,-1,-1,-1,-1,-3,-1
27.625,-2,-1,2,-1,-3,-4,-3,-1
27.63,-1,-1,1,0,0,-3,-1,-2
27.635,-2,-1,-5,-3,-7,0,2,-2
27.64,-1,2,3,-2,-3,-5,0,-2
27.645,1,0,0,-1,-1,0,-2,0
27.65,-1,0,1,-1,0,-3,0,0
27.655,-1,-3,-1,-1,0,0,-1,-2
27.66,-1,-3,-1,-3,0,0,-1,0
27.665,-1,-3,-2,1,0,2,-2,0
27.67,-3,-1,-3,0,-1,-2,-1,-1
27.675,-1,-2,-1,1,1,-2,-2,-2
27.68,0,-1,3,3,-2,-1,-1,-1
27.685,-2,-1,0,-4,-1,-2,1,-1
27.69,-1,-1,-3,-1,-2,-2,0,-1
27.695,-2,-3,0,-5,-4,0,-2,-2
27.7,-1,-1,-8,-1,-2,-4,0,-1
27.705,-2,0,3,2,4,-1,-2,-2
27.71,0,0,1,-1,1,-1,-3,-1
27.715,-1,0,-2,-1,1,0,-1,0
27.72,0,-3,-4,-9,-6,3,-1,2
27.725,-1,-2,-2,2,-3,-2,-1,-2
27.73,0,-2,-1,0,-5,-3,-2,-1
27.735,-1,-1,1,2,3,-3,-1,-1
27.74,-1,-1,-1,0,0,-3,0,0
27.745,-4,-1,-3,-1,0,2,0,-2
27.75,-1,-2,0,1,0,0,-1,1
27.755,-2,0,-6,-1,-4,-3,-2,-1
27.76,-1,-2,1,0,2,0,-1,-2
27.765,-2,-3,2,0,0,0,-1,-1
27.77,-2,0,-1,0,-1,0,0,-1
27.775,-2,-2,-3,-2,0,-1,-1,1
27.78,-1,-1,-4,-1,0,-1,0,-1
27.785,-3,0,0,-1,1,1,-2,-3
27.79,1,-1,1,-1,-2,-3,-2,-2
27.795,-1,-5,-13,-9,-8,-4,-4,-2
27.8,-2,-3,-5,-2,-2,0,-2,-1
27.805,-1,-2,-1,-1,3,-2,-2,0
27.81,-2,-2,-2,2,6,-1,0,0
27.815,0,0,4,2,-3,0,1,0
27.82,-1,0,9,-2,-6,-3,-2,0
27.825,-1,-1,-24,-4,0,-3,-4,0
27.83,-3,-3,-3,-13,-9,-4,-3,-4
27.835,-1,-2,-1,1,4,0,0,-1
27.84,-2,-2,-2,2,0,-1,1,-3
27.845,0,1,7,2,-3,-2,2,0
27.85,-1,1,3,4,3,2,0,-1
27.855,0,0,0,3,-1,0,-2,-1
27.86,0,0,4,-4,-9,0,0,0
27.865,-2,-5,-3,0,-2,-3,-2,-1
27.87,-1,-2,-7,-2,0,0,0,-1
27.875,-1,-1,3,0,-2,-2,-3,-2
27.88,1,-1,-5,0,5,-6,-4,0
27.885,-2,-2,6,3,-7,-3,-2,-1
27.89,-2,-2,-2,-3,-1,2,0,-2
27.895,0,6,15,2,-2,5,3,-1
27.9,0,-3,-9,1,6,6,4,1
27.905,-2,-2,-15,-28,-27,-10,-9,-5
27.91,1,1,8,19,28,2,1,3
27.915,-3,-2,-9,17,-12,-5,-4,-1
27.92,-1,1,4,-12,-13,4,2,1
27.925,-3,-4,8,0,10,-3,2,-2
27.93,-3,-11,-11,-18,-10,-1,2,-2
27.935,0,1,3,4,3,-6,-4,0
27.94,0,0,0,12,4,-6,-4,-1
27.945,2,0,3,0,-5,6,2,1
27.95,-3,-1,-8,-3,13,2,-1,-3
27.955,-3,-5,-23,4,5,-3,-3,-4
27.96,-3,-6,-18,-46,-17,14,-3,0
27.965,-3,3,2,-6,-4,-4,2,-1
27.97,-6,-3,-6,4,5,-10,-8,-7
27.975,3,1,-5,4,0,2,5,2
27.98,-1,-1,1,-36,-11,-5,-1,-1
27.985,-7,-5,-22,2,-1,0,-4,-6
27.99,6,-4,13,11,8,7,7,6
27.995,1,-3,-8,24,18,2,-2,-3
28,-1,0,-7,-6,-6,4,-1,1
28.005,2,7,-6,-7,-8,12,6,4
28.01,-2,3,2,-4,-12,-8,0,-2
28.015,-5,-28,-15,-10,-4,-8,-4,0
28.02,7,22,12,20,11,-4,0,-1
28.025,0,-15,10,-7,-12,9,5,1
28.03,-8,2,-8,-5,-9,-8,-7,-3
28.035,12,16,-8,-18,-4,1,0,1
28.04,-28,-78,-24,-13,-7,0,-7,-12
28.045,25,48,-4,26,8,1,4,11
28.05,20,7,7,20,18,2,10,10
28.055,-31,-42,-35,6,-9,-4,-6,-9
28.06,28,95,15,-11,5,5,6,9
28.065,-14,-18,-39,-12,-16,-14,-12,-13
28.07,-29,-22,3,1,-4,-6,-15,-19
28.075,22,88,-9,-3,-4,1,10,13
28.08,5,-53,-22,16,7,4,4,4
28.085,32,96,23,-11,8,-3,0,5
28.09,-60,-85,-58,-16,-13,-9,-15,-21
28.095,5,-78,32,22,29,5,12,15
28.1,-18,68,-48,-29,-35,-5,0,-12
28.105,9,-58,22,-1,6,7,0,1
28.11,-108,-110,-63,-14,-14,-15,-20,-41
28.115,-14,-72,1,-13,-8,-11,-19,-20
28.12,22,24,16,15,4,-6,3,9
28.125,-11,-26,14,4,4,7,4,4
28.13,4,17,18,5,13,6,0,3
28.135,0,28,24,-4,-4,-7,-2,-5
28.14,13,-11,25,5,-1,3,4,7
28.145,5,22,8,14,5,0,-2,0
28.15,-5,-9,5,-15,2,6,1,2
28.155,-6,5,2,-17,-9,-5,-1,-1
28.16,3,-15,13,16,-6,-2,-1,-4
28.165,6,24,-1,-8,2,1,-3,5
28.17,-4,32,7,7,5,5,0,0
28.175,-1,-34,-8,0,8,-2,-4,-2
28.18,-3,6,7,0,-8,-8,-10,-5
28.185,0,0,-4,4,-10,-9,-4,-2
28.19,11,11,21,3,8,6,5,7
28.195,1,-14,10,6,11,4,5,1
28.2,0,0,30,1,-9,-5,1,0
28.205,-1,-20,7,-1,-5,1,2,1
28.21,-8,-35,-12,5,5,-5,-1,-1
28.215,-3,15,-21,-9,1,-4,-1,-2
28.22,7,12,25,5,10,2,8,6
28.225,-14,-80,-20,-6,-6,4,-1,-4
28.23,6,19,-4,1,1,-1,0,-1
28.235,-9,8,6,0,-5,-4,-4,-4
28.24,11,6,-10,11,3,-2,3,5
28.245,10,86,85,61,6,-3,3,-1
28.25,-1,-22,-64,-61,37,24,5,2
28.255,-48,-82,-8,-17,-26,-15,-15,-20
28.26,27,48,-5,12,-13,-5,3,17
28.265,-24,-31,-33,-11,30,7,-15,-23
28.27,18,-6,44,44,-4,0,8,8
28.275,3,-35,-16,4,8,2,2,3
28.28,-33,-35,-14,-10,-10,-4,-8,-14
28.285,26,23,-5,-2,-6,-4,4,10
28.29,-16,26,3,0,-1,-12,-12,-7
28.295,6,39,-14,-26,-13,1,-2,-3
28.3,-9,-55,-6,14,-20,-12,-3,-4
28.305,-6,3,-3,-9,-12,2,1,-4
28.31,-36,-28,34,39,-7,-10,-8,-18
28.315,-44,23,6,-32,22,3,-19,-37
28.32,-21,-44,41,-24,15,3,-4,-6
28.325,-1,-26,14,0,-35,-11,1,7
28.33,-3,20,-60,1,25,-3,-8,-8
28.335,43,96,90,23,19,2,15,21
28.34,-49,-65,-99,-50,-22,1,-8,3
28.345,21,21,-9,4,-30,-14,-9,-8
28.35,-54,-14,44,-13,12,-8,-8,-10
28.355,31,12,47,-46,11,21,20,21
28.36,34,9,9,-15,-10,5,9,17
28.365,-31,-66,18,20,-19,-6,-1,1
28.37,-23,0,8,35,-17,-4,-12,-48
28.375,-25,-2,7,3,28,14,0,-23
28.38,32,118,24,21,-20,-1,5,14
28.385,0,-69,-2,-23,14,12,-3,-6
28.39,21,-14,-49,-15,5,15,16,29
28.395,-1,64,-18,1,28,-6,-8,-11
28.4,-56,-33,-3,62,-34,-30,-20,-54
28.405,43,127,62,-54,38,25,19,38
28.41,-21,75,6,11,-10,-9,-20,-49
28.415,11,-52,11,-9,-48,-20,-12,3
28.42,39,-9,26,56,37,-4,13,32
28.425,-8,-12,21,-6,-8,34,19,25
28.43,-5,-45,-12,24,-22,7,2,-23
28.435,-15,63,-39,-61,-34,10,7,-7
28.44,-10,54,13,7,33,-5,-9,-19
28.445,10,-101,53,19,-20,-32,-6,16
28.45,52,69,24,-4,10,24,33,68
28.455,-18,61,-45,85,-20,-27,-5,-25
28.46,-31,39,-20,-118,0,48,1,-10
28.465,3,-78,31,82,38,-14,-10,-20
28.47,35,33,77,-10,21,3,12,31
28.475,27,77,8,-73,-71,1,4,19
28.48,-46,48,-55,-39,-1,-25,-27,-65
28.485,12,44,32,61,16,-2,16,7
28.49,-39,-8,29,-55,-60,3,-1,-33
28.495,-11,-70,-17,-5,127,21,11,45
28.5,-10,72,35,17,-29,-3,-10,-32
28.505,12,99,-69,-11,-15,-1,0,14
28.51,32,32,25,20,8,9,18,22
28.515,-44,-17,-48,-16,-67,-11,-11,-27
28.52,70,-27,-25,-20,42,1,1,50
28.525,-32,-79,-27,93,-8,-22,-23,-53
28.53,-38,-44,17,-95,-10,2,-3,-16
28.535,-25,-128,-56,31,59,-3,-30,-27
28.54,91,12,42,76,10,-2,31,83
28.545,-50,-7,-51,-105,-62,2,-26,-39
28.55,-41,-82,-93,32,7,-22,-26,-45
28.555,-17,-54,14,3,23,3,-7,-17
28.56,48,66,21,-5,-86,-37,-5,3
28.565,-15,21,-30,-16,48,5,-3,-14
28.57,-37,-27,-85,-43,-15,-6,-12,-1
28.575,20,127,-52,10,61,19,-1,-25
28.58,42,55,-9,71,5,21,6,16
28.585,49,-31,42,8,-55,-32,6,34
28.59,-1,47,-31,35,45,7,-14,-17
28.595,-40,-5,36,9,-88,-63,-40,-36
28.6,-16,89,-67,-5,74,88,35,21
28.605,-32,44,35,-42,-60,-32,-32,-50
28.61,-1,-120,0,-28,-6,-14,-6,11
28.615,33,21,32,46,10,14,16,15
28.62,-82,-107,-5,-25,-66,-44,-28,-22
28.625,65,56,25,75,21,20,26,56
28.63,-31,54,-10,-50,33,27,18,-7
28.635,1,-68,37,60,28,1,7,0
28.64,44,-28,67,39,8,-10,-5,27
28.645,-33,111,-91,-111,-76,-20,-26,-43
28.65,40,-54,16,51,12,-13,8,34
28.655,51,115,34,-12,-13,6,18,49
28.66,-20,32,27,30,7,-14,-9,-51
28.665,-26,-34,-47,-32,-52,-23,-11,-30
28.67,32,3,64,61,49,15,11,25
28.675,-85,-86,-62,-65,-29,-4,-30,-71
28.68,25,-31,-45,4,-35,-15,-9,13
28.685,51,39,31,50,53,11,24,25
28.69,-99,-62,-16,-32,-9,10,-1,3
28.695,4,-8,28,-94,-8,18,10,-29
28.7,-4,5,-58,-12,-54,-37,-33,-18
28.705,-14,90,38,127,115,7,2,-28
28.71,-33,-7,-91,-75,-86,4,-5,-8
28.715,45,127,35,20,33,4,-5,25
28.72,-4,54,55,-71,-2,6,19,14
28.725,-43,-76,27,-49,14,38,-2,-16
28.73,-16,-28,-71,84,10,-47,-27,-13
28.735,46,127,3,-35,-34,2,13,22
28.74,24,60,25,0,5,-6,1,47
28.745,14,-93,-61,37,-25,-31,-6,89
28.75,-9,93,-21,16,20,-2,-38,-115
28.755,12,64,38,-22,-16,3,11,30
28.76,121,89,-30,-31,47,36,30,60
28.765,-26,8,79,43,6,13,10,13
28.77,-39,-128,-32,-66,-27,-27,-3,29
28.775,-28,75,-1,79,24,-15,-20,-49
28.78,51,88,29,-52,-36,-5,8,19
28.785,33,57,-67,-21,-12,13,-3,-3
28.79,8,9,81,58,-8,1,0,1
28.795,30,-9,58,96,54,24,22,15
28.8,-51,-114,-50,-77,-22,-6,-22,-14
28.805,-32,-47,49,82,22,-2,15,15
28.81,48,104,42,15,36,22,28,32
28.815,-20,-64,-45,-48,-37,-24,-21,-20
28.82,-22,23,0,47,40,-5,-14,-17
28.825,12,49,-57,-24,-11,-6,5,3
28.83,37,70,8,-62,-18,-2,5,42
28.835,22,22,93,99,-62,-31,10,55
28.84,-100,-80,-47,-114,29,-8,-51,-111
28.845,41,91,121,54,-30,12,14,25
28.85,35,115,-38,-23,17,13,19,42
28.855,-6,-51,-47,-5,-25,-12,-1,17
28.86,-20,72,36,50,-12,-24,-27,-86
28.865,-53,-92,-111,-58,3,-8,-21,-25
28.87,18,49,72,103,-1,-11,4,-4
28.875,80,99,13,-116,30,40,40,86
28.88,-103,-115,-69,67,2,-17,-25,-71
28.885,5,-26,-47,52,-49,-24,1,-19
28.89,-31,-86,13,-73,49,59,9,4
28.895,31,-22,45,53,20,14,18,24
28.9,-16,-85,-38,-73,-4,-13,-5,11
28.905,-53,63,-7,-19,-14,-23,-26,-32
28.91,19,-59,-21,46,-13,-24,-16,-30
28.915,20,55,43,5,-42,-3,-6,-1
28.92,12,-43,-21,9,-28,-26,-16,-15
28.925,-76,-79,-76,26,55,19,-5,-43
28.93,-39,20,-38,-59,-3,7,-17,-40
28.935,39,127,2,-26,-14,-7,-2,9
28.94,50,62,13,72,-34,-24,6,29
28.945,12,127,20,5,-23,-10,2,13
28.95,-79,-54,-34,-30,98,37,0,-17
28.955,56,80,41,-4,-13,8,12,9
28.96,21,3,59,11,-32,-1,11,30
28.965,-2,-40,-16,15,55,26,-6,-19
28.97,-45,-73,-47,34,-46,-34,-14,-23
28.975,17,73,-14,-44,-5,0,5,3
28.98,15,-49,-12,21,18,18,28,50
28.985,70,89,25,-24,0,0,5,27
28.99,-17,71,-22,30,-3,-28,-14,-6
28.995,-66,-4,-25,1,-10,10,-10,-43
29,-18,-16,-40,-25,53,51,20,9
29.005,7,-38,-39,-35,89,60,20,25
29.01,-25,-73,12,-8,-2,-2,8,17
29.015,33,50,-32,-36,16,25,20,32
29.02,10,71,39,45,-19,-18,0,-5
29.025,-84,-128,-87,19,-52,-38,-35,-46
29.03,-38,127,31,66,-9,-4,-16,-85
29.035,-5,-98,-46,-44,32,16,10,65
29.04,21,127,59,39,-6,16,20,-1
29.045,15,25,28,25,32,-10,-7,16
29.05,-48,-30,-2,-24,-16,-13,-19,-35
29.055,-29,-51,100,10,-49,-30,-11,-19
29.06,75,74,40,16,18,16,11,38
29.065,63,122,86,70,26,14,25,47
29.07,-52,-21,52,-8,-3,-11,-39,-88
29.075,19,76,34,10,-34,-11,1,3
29.08,-21,127,-37,-17,22,-2,-9,-27
29.085,-3,97,-8,-16,-32,3,0,-15
29.09,42,-46,47,60,12,6,10,30
29.095,-14,74,10,-36,-2,2,-4,-33
29.1,99,-10,17,56,-22,-24,20,83
29.105,-68,47,-52,-17,61,18,-31,-47
29.11,6,102,18,1,2,15,3,-4
29.115,4,42,2,25,44,4,1,-26
29.12,30,-39,15,-3,-16,-12,11,61
29.125,2,62,-42,2,-57,-24,-25,-39
29.13,-33,-83,-91,14,22,-9,6,18
29.135,-11,11,-62,-23,30,22,4,3
29.14,33,10,-3,-15,-20,7,13,61
29.145,-50,-89,19,21,31,11,6,-20
29.15,-29,-106,-128,-66,-32,-15,-4,-5
29.155,-11,28,-1,-90,-23,-15,-14,-52
29.16,71,69,16,20,-4,11,26,79
29.165,-12,-19,47,33,28,8,0,-27
29.17,49,-11,-1,9,16,12,19,74
29.175,-59,-1,33,12,-34,-18,-19,-39
29.18,22,-52,22,-7,65,35,17,11
29.185,40,-29,43,17,27,6,11,16
29.19,-75,-56,-33,2,-48,-25,-30,-55
29.195,5,14,-41,-23,-49,-3,-10,26
29.2,4,95,20,15,11,10,26,-8
29.205,6,119,-28,-8,1,-19,-20,-2
29.21,-47,-44,38,-4,-28,-17,-25,-68
29.215,51,8,22,23,5,12,26,74
29.22,3,92,14,-6,16,-4,-15,-56
29.225,35,11,27,-24,-38,-11,23,72
29.23,12,40,62,20,35,23,17,-39
29.235,-18,-71,14,-3,18,0,-21,-15
29.24,-22,27,38,26,-7,-8,0,-20
29.245,5,20,16,50,15,-2,-41,9
29.25,-1,-28,33,-43,-35,-19,18,20
29.255,-25,-32,-24,20,12,-1,-23,-25
29.26,20,30,16,29,9,11,-13,-11
29.265,-27,-48,-16,-43,-38,-14,6,-7
29.27,53,127,-12,9,43,27,41,83
29.275,-53,-60,-15,-24,-3,-13,-2,-62
29.28,-9,62,5,4,8,7,14,1
29.285,-13,-22,6,-21,-3,-4,-19,-25
29.29,23,122,10,-27,-20,-10,-12,20
29.295,10,-38,-29,-1,-10,-8,12,5
29.3,-41,-34,6,-2,-11,-4,17,-5
29.305,11,-50,-29,4,2,-4,-67,-8
29.31,-3,-16,-31,-8,5,-4,-13,-34
29.315,6,-22,-28,-6,0,9,36,-15
29.32,-6,-31,0,-6,-14,-10,-39,20
29.325,-38,-10,-23,-5,0,4,31,11
29.33,1,-6,-3,7,-15,-15,-6,14
29.335,8,-26,-39,-17,5,2,-24,1
29.34,14,14,-2,-5,0,-2,5,15
29.345,1,-14,-18,-6,8,12,64,-24
29.35,5,7,20,0,9,2,-37,20
29.355,1,-48,61,31,2,0,48,43
29.36,-13,-22,6,-2,8,9,-21,-83
29.365,10,16,-17,-21,14,14,36,46
29.37,-4,-21,-17,-9,-10,-8,-4,-5
29.375,-7,17,-9,6,2,-2,-49,30
29.38,7,17,4,4,-12,-11,24,16
29.385,-3,-6,46,4,-10,-8,-23,-25
29.39,0,-18,6,-9,-8,-6,12,-11
29.395,4,14,-3,6,10,18,30,1
29.4,-7,-9,7,8,-17,-5,-6,15
29.405,16,10,50,19,6,2,-11,-3
29.41,4,-9,-10,-1,8,2,-6,33
29.415,8,12,26,10,-3,-4,-6,-9
29.42,-2,-8,2,1,-6,-3,-1,10
29.425,14,14,-5,25,-17,5,20,45
29.43,-11,-4,-5,-18,13,-6,-4,-61
29.435,0,-4,-32,-8,-15,-17,-32,2
29.44,16,5,1,8,-14,-3,1,8
29.445,-15,-7,-19,-6,3,-8,-4,-81
29.45,9,10,-5,-14,-18,-14,-17,2
29.455,15,0,3,-8,22,16,11,9
29.46,2,-7,7,6,3,7,10,-6
29.465,11,5,27,31,13,8,0,14
29.47,12,5,-4,-9,-1,4,17,4
29.475,-16,3,-66,29,-9,-19,-35,-25
29.48,-58,-15,-11,43,-7,5,11,19
29.485,44,43,12,46,17,5,27,30
29.49,-45,-15,-27,-63,-22,-11,-61,-92
29.495,33,-12,24,19,-7,5,12,25
29.5,-19,-10,-21,-26,-11,-13,1,-10
29.505,-12,-4,5,5,8,15,7,15
29.51,21,15,7,32,31,14,35,42
29.515,18,12,12,-8,-5,-4,-4,-19
29.52,12,0,3,-6,-4,-8,-9,2
29.525,-5,-3,10,-34,-21,-14,-5,-1
29.53,6,-6,9,8,-1,6,-1,16
29.535,-11,-6,-49,-11,24,9,-3,-20
29.54,24,26,54,45,26,15,-5,35
29.545,-14,-4,-24,-5,-10,-2,5,-2
29.55,-37,5,-56,-86,-13,-25,-7,-17
29.555,1,-3,48,120,-7,9,29,21
29.56,12,-27,-47,-87,-6,-9,-52,-6
29.565,19,-1,-1,-47,-19,-9,-19,-50
29.57,0,22,-19,54,18,6,20,17
29.575,85,42,12,14,-26,-9,7,32
29.58,-80,-9,23,16,-9,-6,22,-15
29.585,-37,-2,-17,-40,13,9,-30,-49
29.59,11,-18,-15,-41,-5,-3,6,29
29.595,11,5,-4,30,13,-3,-13,-13
29.6,53,16,26,-11,-7,5,31,35
29.605,2,-10,-7,5,12,11,12,35
29.61,-18,5,24,48,-10,-12,-13,-10
29.615,-7,7,39,9,-7,-3,-8,-4
29.62,11,1,-21,-86,2,2,-1,31
29.625,-28,-15,7,8,10,6,13,-51
29.63,17,-36,-28,14,-2,4,0,-1
29.635,-14,-13,23,6,8,-3,-19,-13
29.64,25,12,2,48,1,1,21,20
29.645,-71,-42,7,-40,-34,-22,-16,-19
29.65,4,-31,8,58,0,-12,-21,-40
29.655,1,9,-18,-5,9,9,5,-1
29.66,8,21,-1,-16,2,5,-20,-27
29.665,74,-8,-6,-69,-12,-3,0,26
29.67,-3,14,10,9,-15,-10,0,10
29.675,-17,-36,15,59,10,2,18,4
29.68,14,8,-16,-71,5,8,10,8
29.685,15,21,2,85,11,4,-2,-2
29.69,0,34,-35,-13,-12,-12,-12,18
29.695,-2,2,-14,-31,4,5,-7,-26
29.7,-3,-6,-3,36,4,1,4,-5
29.705,-12,-4,-11,-1,-4,-1,18,28
29.71,-2,15,-19,-5,4,-5,-17,-7
29.715,-14,-8,-12,-50,-14,-9,-4,-6
29.72,-2,-8,7,22,7,9,-12,-2
29.725,-5,3,-29,17,-2,-3,12,14
29.73,12,4,66,15,8,0,24,18
29.735,-14,3,1,-97,-33,-28,-39,-21
29.74,-11,-36,-25,19,-18,2,-7,-16
29.745,4,38,-6,34,30,10,-14,5
29.75,-3,-18,23,18,17,10,29,13
29.755,-2,13,-9,-28,5,0,-8,-4
29.76,10,-3,6,58,-17,-9,35,14
29.765,17,11,-22,-4,-10,-12,-14,-9
29.77,-78,-19,-62,-46,-26,-8,-56,-41
29.775,18,26,19,67,20,5,2,8
29.78,-1,-24,-25,-44,-21,-5,3,2
29.785,7,1,8,-44,13,12,15,13
29.79,31,20,47,62,16,9,33,23
29.795,-33,-34,-34,26,-16,-9,-36,-12
29.8,0,17,2,-47,-16,-5,41,60
29.805,21,-10,26,-30,4,2,-36,-21
29.81,22,33,84,23,24,13,-21,16
29.815,1,31,27,0,-6,2,10,1
29.82,-23,16,28,55,30,8,-3,6
29.825,-12,-16,0,-4,-25,-2,30,5
29.83,17,-26,14,39,7,2,6,3
29.835,0,7,5,22,0,0,12,35
29.84,-3,-14,73,80,6,1,-8,-52
29.845,-29,-23,-61,-1,-10,-12,-10,3
29.85,16,13,14,30,7,9,9,-3
29.855,-17,-35,-56,-87,-13,-10,-7,-11
29.86,23,5,-13,75,-12,6,-30,5
29.865,1,7,42,106,24,3,21,-43
29.87,6,-7,-64,-98,-18,-7,-50,7
29.875,15,4,-6,30,-4,-6,12,10
29.88,-19,19,-3,2,2,-13,-12,-26
29.885,-7,-9,24,-50,-7,18,57,85
29.89,0,5,-41,-33,16,3,-3,-35
29.895,-24,38,-15,20,4,-1,16,2
29.9,16,13,-65,-80,-22,-11,11,29
29.905,-40,-5,-7,42,-12,-22,-38,-4
29.91,37,36,-5,-63,-8,2,9,15
29.915,-46,-36,-61,-98,-25,-2,-5,-23
29.92,-3,-24,-9,23,12,4,2,6
29.925,-11,-11,3,-48,-33,-36,-9,-44
29.93,-10,-4,24,18,-6,16,11,-1
29.935,24,-4,38,30,41,24,-2,-1
29.94,-13,-5,6,10,20,-4,-9,-16
29.945,6,-6,-23,-16,-7,1,-14,3
29.95,-12,0,-34,5,-31,-31,-5,-2
29.955,9,7,3,4,-23,-23,-9,-5
29.96,14,-3,46,86,39,25,14,-2
29.965,24,11,16,19,20,19,51,49
29.97,-33,-9,-5,-8,-17,-23,-88,-94
29.975,8,4,1,-7,-4,-2,26,20
29.98,-4,-59,64,2,-11,-10,-8,-12
29.985,18,19,-7,7,9,-1,-1,18
29.99,7,-22,88,16,24,27,55,25
29.995,4,5,42,62,0,-2,-19,-14
30,-10,-1,-52,-52,-29,-18,-30,-28
30.005,-2,-6,-35,-66,14,10,-9,8
30.01,-4,-10,-1,62,-5,-4,25,27
30.015,-17,-8,24,-22,8,0,-31,-28
30.02,15,19,-3,5,0,-2,17,23
30.025,2,1,-6,24,16,18,12,28
30.03,9,-10,-46,4,7,7,-15,0
30.035,-37,-22,-40,-59,-3,-8,-15,-2
30.04,-8,4,-26,-18,-11,-11,0,7
30.045,-17,-15,15,4,-20,-12,-31,-39
30.05,8,-7,26,48,16,2,19,12
30.055,17,-27,-33,-32,-24,-2,20,18
30.06,-22,0,-32,-44,-12,-6,-13,-24
30.065,20,1,16,22,6,-13,14,9
30.07,-5,1,5,13,5,7,-22,20
30.075,5,-56,13,66,8,1,13,-4
30.08,4,17,-43,-96,-20,-13,-8,-11
30.085,-41,-11,50,32,7,10,-14,-22
30.09,-16,-21,-23,-20,-12,-14,-2,-10
30.095,8,14,11,2,8,1,13,9
30.1,7,19,26,16,3,9,-3,5
30.105,6,26,0,12,-4,-7,-21,10
30.11,0,3,17,18,-2,2,26,-9
30.115,-13,7,-23,-78,-6,-7,-13,-1
30.12,-12,-34,-12,42,-3,2,20,-19
30.125,12,38,-12,6,-30,-10,-49,1
30.13,-1,-7,-4,7,7,-4,-5,-42
30.135,9,8,20,5,-1,-1,7,2
30.14,-7,-9,67,60,20,9,1,1
30.145,6,-10,6,-11,-5,-3,4,-2
30.15,-3,-12,-29,-30,-10,-2,13,20
30.155,13,17,26,54,18,12,12,0
30.16,2,6,-28,-26,-5,-6,-12,-6
30.165,6,11,29,14,17,18,7,10
30.17,5,59,-2,24,14,-1,2,17
30.175,-30,6,-50,-30,-20,-9,-8,-16
30.18,-13,-35,5,17,-4,-11,-8,-3
30.185,12,31,32,-22,-19,-11,-9,-11
30.19,25,50,14,-4,13,8,18,26
30.195,-6,-42,-1,35,-6,9,-10,-9
30.2,-5,33,8,-13,9,4,-4,5
30.205,-14,-73,-43,6,-2,2,2,-25
30.21,9,6,72,-6,-5,-1,25,21
30.215,3,-34,-22,22,4,-6,-16,-4
30.22,-10,-54,-35,-28,-20,-11,-38,-5
30.225,-4,-21,20,1,9,-13,10,9
30.23,-34,8,-4,25,-1,-3,-7,-10
30.235,29,24,-19,-71,-9,6,28,17
30.24,48,65,35,92,11,11,33,31
30.245,-48,-23,-36,-10,-6,-4,-28,-45
30.25,19,70,-17,-17,-9,-3,15,18
30.255,-4,-71,102,73,19,1,-1,0
30.26,17,26,-17,-29,-2,-1,-2,6
30.265,8,-5,5,24,5,5,-7,8
30.27,1,-8,-11,-15,-3,3,3,-5
30.275,6,48,26,4,-1,1,10,9
30.28,-10,-62,-10,-9,-2,2,-12,-3
30.285,6,72,-2,-12,4,-5,7,-12
30.29,-13,60,12,2,7,6,6,-8
30.295,13,7,-12,-15,6,6,13,27
30.3,6,0,2,7,-10,-5,-12,-53
30.305,3,46,14,-8,1,1,-14,-31
30.31,-19,-39,-2,-4,-8,-11,10,-8
30.315,11,12,-8,19,0,4,-7,-1
30.32,-1,-9,15,-14,9,15,18,24
30.325,8,-40,-14,26,2,-1,2,19
30.33,-4,47,-54,-43,-2,-5,-13,-34
30.335,-14,-56,33,14,0,-5,-7,2
30.34,-16,-11,-35,-38,-27,-15,-3,4
30.345,-2,-52,16,41,13,9,22,9
30.35,0,-5,-50,-34,-6,-3,-21,3
30.355,-20,-1,-12,-21,-13,-12,-19,-46
30.36,2,7,7,18,19,19,31,30
30.365,-2,9,-3,7,-2,2,-28,-42
30.37,-22,-36,14,-8,7,3,0,-17
30.375,14,34,10,18,3,3,23,3
30.38,-6,-31,-23,-47,-19,-17,-44,-6
30.385,11,23,-6,3,-9,-18,-2,3
30.39,17,16,12,3,-8,5,10,18
30.395,-1,-6,-14,3,4,5,0,4
30.4,-14,13,12,-10,-12,-11,-2,-10
30.405,-10,17,5,-15,17,3,1,5
30.41,-10,-71,9,18,-8,3,15,15
30.415,18,22,-25,-24,2,0,3,7
30.42,15,46,3,19,-3,-16,-88,1
30.425,-21,-88,-26,-14,-8,-1,4,-1
30.43,4,46,31,12,5,-4,5,-3
30.435,9,14,7,5,8,12,33,37
30.44,5,-68,-19,12,8,6,16,5
30.445,4,55,-5,-24,-21,-8,-10,7
30.45,-13,-19,-39,-2,-4,-14,-5,4
30.455,6,12,9,20,7,10,15,13
30.46,-3,19,32,12,-8,-7,0,-57
30.465,15,15,2,-8,10,13,-6,34
30.47,-31,14,-25,18,4,-4,-8,-26
30.475,4,-20,-39,-61,-10,-8,-8,12
30.48,-2,-4,-3,48,2,-3,21,0
30.485,17,63,18,-2,-6,1,24,10
30.49,12,-28,13,-1,3,0,-14,16
30.495,-7,-13,9,7,5,1,-2,-19
30.5,-8,-25,-19,-17,0,2,-37,-26
30.505,-30,-32,-29,-18,-11,-10,10,-1
30.51,10,6,21,-3,4,5,11,43
30.515,-3,-26,-7,17,0,2,-19,-5
30.52,7,-24,-1,18,5,0,31,57
30.525,-12,11,8,-52,-1,-7,-33,0
30.53,2,13,7,0,-7,-4,15,-34
30.535,8,40,-10,8,-4,7,4,10
30.54,1,-19,21,-4,-5,-16,-11,-6
30.545,-17,-10,-14,0,-4,4,7,1
30.55,-1,-17,13,3,-6,0,0,12
30.555,-5,-9,9,-4,-4,-3,7,-13
30.56,14,64,24,5,21,20,1,9
30.565,-22,-76,-21,29,-5,-5,-2,-22
30.57,58,127,-10,-19,3,10,18,7
30.575,-67,-97,-43,6,-9,-13,-7,39
30.58,-5,-10,16,4,-6,-2,5,23
30.585,12,36,-9,-26,5,2,3,29
30.59,16,95,13,-17,-1,10,-21,-36
30.595,4,-96,7,35,3,-7,10,15
30.6,-2,62,-27,-4,-1,4,24,1
30.605,15,43,-5,3,1,7,6,14
30.61,13,6,28,21,-1,0,41,40
30.615,-23,28,12,-11,-6,-13,-83,-33
30.62,9,46,38,27,26,13,40,38
30.625,-35,-48,-47,-7,-26,-11,-43,-6
30.63,-12,2,1,6,5,-3,-30,-34
30.635,30,50,33,-7,4,6,15,6
30.64,-8,-66,-46,28,12,1,9,4
30.645,-16,-66,-4,-76,-29,2,32,8
30.65,11,26,68,31,10,-8,-20,5
30.655,-6,88,-7,13,4,1,3,-1
30.66,-16,-6,-18,-35,-28,-21,4,-22
30.665,19,117,32,19,30,15,-18,-21
30.67,-25,-70,-21,7,-9,1,-26,-9
30.675,-3,34,-29,-36,-15,-3,8,-17
30.68,3,-98,9,20,14,-5,-3,2
30.685,16,61,-23,-18,-25,-8,-7,-28
30.69,-37,-101,14,16,-5,9,3,7
30.695,46,107,-30,-1,7,-6,9,-8
30.7,-68,-57,-53,-45,-10,0,-8,-33
30.705,25,77,32,16,8,-4,14,-36
30.71,-7,-47,-26,-3,5,4,1,-38
30.715,46,123,46,76,3,-1,-28,18
30.72,-31,14,-38,-90,-37,-12,-12,-31
30.725,20,32,71,71,22,17,11,9
30.73,-17,66,-73,3,1,3,22,18
30.735,2,7,57,-17,13,0,28,-17
30.74,37,81,19,19,-6,2,-41,17
30.745,-45,-92,-49,4,-5,-12,5,6
30.75,17,47,23,10,-4,-7,1,14
30.755,10,61,35,44,5,9,22,-12
30.76,-30,-14,-48,-100,-13,-5,-22,-61
30.765,-4,55,4,21,5,0,-12,5
30.77,14,-43,-6,25,7,-12,9,9
30.775,-18,-12,-35,-74,-36,-10,-13,11
30.78,10,-9,7,50,12,-2,26,-13
30.785,0,-46,52,7,15,12,-34,-43
30.79,9,41,10,-27,18,9,-2,-5
30.795,-11,-24,1,-8,-16,-7,16,14
30.8,16,-38,62,47,1,5,0,13
30.805,7,43,22,14,-1,-12,1,30
30.81,-13,61,-11,-11,-11,-7,-6,-19
30.815,22,21,-21,-27,-9,4,4,12
30.82,12,27,-1,-8,20,13,15,22
30.825,-6,-51,33,28,-3,-11,-2,-13
30.83,12,23,-1,6,-5,0,-12,3
30.835,-20,-77,-34,-67,-4,-1,24,31
30.84,21,81,5,-8,-11,-2,-11,-34
30.845,-20,-22,-31,25,-14,-17,13,-6
30.85,-4,15,6,-28,-5,10,10,9
30.855,15,-33,17,49,28,9,-30,73
30.86,-17,-9,0,-47,-4,-6,6,44
30.865,4,82,10,-16,-5,-5,0,18
30.87,-28,-97,-26,-58,-17,0,34,23
30.875,-36,81,-9,109,12,-10,-28,-21
30.88,-5,8,-66,-67,-12,2,18,-32
30.885,11,12,-5,35,7,1,21,16
30.89,14,5,-6,-41,-6,9,-21,-2
30.895,-5,-37,23,39,8,-6,-40,-103
30.9,-7,-63,11,12,-9,-8,1,41
30.905,15,-27,-6,-2,4,0,1,20
30.91,-10,-32,-2,-11,-18,-8,14,-6
30.915,3,-21,5,4,15,5,20,12
30.92,-23,61,-27,27,-12,-6,-19,-32
30.925,-5,-30,-51,-76,-12,-5,-2,-2
30.93,26,110,43,39,8,-1,-11,18
30.935,-20,15,-17,-29,-28,-7,-4,-26
30.94,22,73,6,37,10,-1,10,23
30.945,-30,-4,-14,-12,-14,-10,-28,-40
30.95,-13,94,17,5,11,-13,-17,-15
30.955,8,-68,-6,-8,-7,20,11,1
30.96,33,78,19,-24,-18,-3,16,10
30.965,-13,-65,9,22,18,12,33,16
30.97,5,-14,75,33,2,-13,-65,-28
30.975,-15,-57,-23,-8,-7,-4,18,33
30.98,17,-6,12,36,31,6,-7,-34
30.985,-11,-42,-30,-12,-16,-4,14,2
30.99,-9,-67,-45,-19,-15,-8,0,23
30.995,-26,-44,8,20,6,-6,-12,-38
31,45,36,11,8,12,14,16,35
31.005,-32,80,-16,-35,-32,-19,-36,-19
31.01,-64,-124,-69,9,17,-5,0,-37
31.015,43,116,31,43,12,6,4,18
31.02,-55,-93,-19,-38,-34,-17,-6,-46
31.025,53,127,16,16,33,27,-28,-1
31.03,11,70,16,-21,-33,-17,8,25
31.035,14,33,-13,18,48,15,32,11
31.04,-34,-55,-29,30,-2,0,-31,-1
31.045,23,71,-15,-7,-11,-9,0,39
31.05,-36,15,23,-16,-46,-25,-25,-61
31.055,14,-61,-35,-30,-19,-14,11,59
31.06,-44,-3,37,3,15,17,7,7
31.065,24,-39,-27,-15,29,14,11,10
31.07,-16,51,-8,12,-10,-12,-12,-22
31.075,24,5,29,-33,-13,-3,17,27
31.08,-1,-93,95,32,-8,-10,6,14
31.085,37,99,52,73,24,16,-3,18
31.09,-12,-12,23,-18,-10,11,40,15
31.095,-8,63,-34,17,18,6,-45,-53
31.1,-8,-61,-57,-35,8,-1,2,2
31.105,29,-8,27,29,10,-6,18,19
31.11,48,115,60,90,32,15,23,28
31.115,6,119,24,-54,-13,11,-2,3
31.12,-25,-51,-59,28,-4,-21,-17,-17
31.125,-51,18,-2,-63,-45,-16,-11,-34
31.13,16,-25,15,9,9,-10,-6,11
31.135,-2,-75,53,-28,-32,-9,-6,5
31.14,4,122,47,24,34,9,16,-3
31.145,25,-76,38,-5,-5,11,8,20
31.15,21,-66,-36,5,-9,3,16,5
31.155,-51,-21,-43,11,21,-30,-67,-61
31.16,38,-13,-68,-34,-53,4,38,55
31.165,-59,-128,-15,2,18,7,-3,-36
31.17,19,85,11,87,93,5,-37,-13
31.175,73,80,51,-60,-47,11,35,40
31.18,-54,-48,11,-49,-41,-26,-30,-4
31.185,-42,35,16,25,-13,-6,15,9
31.19,60,2,-39,19,36,17,27,-4
31.195,-29,116,7,-20,-11,-17,-8,-27
31.2,20,9,35,57,11,6,-24,-32
31.205,-17,-115,-71,-32,-10,-16,-7,-7
31.21,40,77,37,-22,13,10,-2,-3
31.215,-72,-113,-69,24,-37,-34,-17,-2
31.22,28,70,12,-4,-1,14,13,-5
31.225,19,124,64,22,21,12,-5,-26
31.23,-41,-106,-20,-50,-16,10,3,1
31.235,10,57,9,63,-4,13,24,9
31.24,31,-58,15,-64,9,-10,-4,28
31.245,21,100,-83,55,18,-11,-10,2
31.25,-6,-74,-8,-93,-43,-7,-10,-19
31.255,-42,-32,49,71,23,10,14,-7
31.26,8,42,-14,53,-7,-8,-25,-56
31.265,-9,-46,-24,37,-11,-13,2,6
31.27,2,112,-3,-77,18,15,6,49
31.275,-24,-18,-76,-29,4,-9,-8,-67
31.28,6,30,7,63,10,-1,-32,6
31.285,6,13,27,-35,16,4,5,15
31.29,13,66,5,50,-22,-21,-12,-10
31.295,-56,-128,-46,-56,-22,0,-8,-30
31.3,104,127,-38,65,26,14,35,17
31.305,-69,-51,15,-43,-32,-13,-22,-41
31.31,46,117,21,27,-7,1,15,89
31.315,112,127,74,34,14,22,16,-21
31.32,-79,-100,-32,21,21,6,1,-10
31.325,69,103,-21,-18,28,8,-11,30
31.33,-41,20,11,92,16,10,4,-36
31.335,17,-11,-16,-11,8,-10,-6,33
31.34,1,127,75,-85,-27,5,7,-3
31.345,46,-8,54,54,37,14,34,15
31.35,-33,16,-61,-70,-50,-23,-8,7
31.355,26,96,-16,22,-37,-17,-18,-5
31.36,19,6,37,78,79,36,19,44
31.365,-56,-27,-43,-120,-40,-10,-12,-17
31.37,-12,-128,21,42,21,1,16,16
31.375,45,32,58,6,-3,-16,17,74
31.38,-56,-84,-12,-102,-94,-9,-31,-62
31.385,-31,-37,11,108,65,17,23,3
31.39,100,67,55,-61,6,16,10,30
31.395,-73,-128,-128,34,9,-18,-13,-1
31.4,-23,100,-25,-86,-14,-11,-7,21
31.405,-5,-10,-5,39,-28,0,-22,-17
31.41,-112,14,-47,-31,-39,-18,-13,-94
31.415,37,4,48,20,38,22,19,34
31.42,-19,-82,-10,31,4,-29,-15,7
31.425,-1,-85,-23,-94,-45,5,14,1
31.43,-3,-19,31,58,34,0,4,21
31.435,-32,58,65,22,-32,-11,-19,-46
31.44,-22,-65,24,69,3,11,11,10
31.445,3,127,90,25,73,20,-26,-52
31.45,46,35,25,55,-26,2,24,28
31.455,-27,-110,-101,-102,-38,-23,-19,10
31.46,-18,108,0,6,29,2,13,5
31.465,21,4,79,55,-76,-27,-7,-27
31.47,-4,-13,-2,56,25,11,-2,-47
31.475,18,-35,30,52,24,9,12,94
31.48,43,64,-51,-21,-51,-19,-44,-75
31.485,36,-79,-109,51,58,23,32,80
31.49,-11,-64,-68,-80,-45,-18,-23,-16
31.495,-70,-82,-47,48,-6,1,4,-25
31.5,50,64,80,75,45,-2,18,22
31.505,21,91,-24,-12,-37,-10,-19,-22
31.51,50,127,68,-35,44,8,1,-1
31.515,-8,-77,30,-20,4,9,-5,-14
31.52,-25,2,-41,-82,-22,-35,-16,-36
31.525,42,4,22,-98,-38,0,14,76
31.53,-36,5,0,95,-1,-9,-22,-64
31.535,44,32,-14,-109,-2,0,-9,-25
31.54,-1,-47,23,50,37,11,17,53
31.545,-22,59,35,-30,-20,-42,-71,-74
31.55,-66,-126,-51,-53,-90,-34,-9,0
31.555,27,98,69,76,115,48,-2,-22
31.56,0,-72,-96,-12,-24,9,22,-10
31.565,28,21,36,83,-8,-17,19,22
31.57,7,-87,-71,95,23,22,9,26
31.575,-44,58,-98,-93,-54,1,-17,-68
31.58,64,-62,65,21,25,13,17,49
31.585,-1,-55,2,46,-27,-19,16,45
31.59,21,46,-54,-29,13,-12,-11,-17
31.595,53,104,57,79,26,32,25,28
31.6,-78,-36,-72,-27,10,6,-5,-9
31.605,-26,-95,14,22,45,22,-4,-37
31.61,38,28,102,-97,-42,-25,-13,11
31.615,7,-62,58,11,-22,-24,6,7
31.62,66,127,46,-1,-57,-18,1,0
31.625,-82,-99,-32,101,34,14,-21,-22
31.63,53,127,63,-63,31,25,37,60
31.635,-48,74,39,-52,-21,-24,-47,-50
31.64,-20,-96,-39,35,-4,-22,-4,-3
31.645,28,79,-25,42,0,12,28,29
31.65,-43,-93,-80,-86,8,18,-8,-21
31.655,-29,-10,23,85,-18,-19,1,-13
31.66,78,-63,-9,-21,13,18,44,79
31.665,-82,21,16,-40,-73,-33,-45,-101
31.67,66,115,10,67,46,37,26,56
31.675,-35,9,-9,23,53,-16,-8,-6
31.68,41,127,82,-24,-7,-3,-7,8
31.685,-54,-62,-30,-62,-9,9,5,-35
31.69,33,22,26,54,-55,-8,7,32
31.695,85,53,108,47,-20,-18,4,33
31.7,-113,-101,-46,-35,-36,7,-19,-49
31.705,75,127,-24,-14,45,23,8,-6
31.71,32,45,99,52,1,1,5,-9
31.715,-33,-70,-108,-8,-9,-17,-12,-28
31.72,-5,-56,82,31,3,3,0,-4
31.725,7,-7,35,14,4,15,21,17
31.73,-26,-20,-86,92,-6,-15,-13,-12
31.735,-43,-25,-44,-34,0,31,29,0
31.74,45,84,9,3,-18,-24,-7,-27
31.745,51,-20,-112,-20,22,26,23,46
31.75,66,66,31,33,-18,-9,18,79
31.755,16,89,12,-25,35,17,-35,-54
31.76,-11,122,-9,36,3,-22,-26,-11
31.765,18,-27,16,34,-39,-6,19,32
31.77,-64,-79,-128,-65,13,-25,-35,-53
31.775,-32,17,12,-46,49,34,11,-46
31.78,-5,-58,3,-14,-40,1,2,23
31.785,14,6,24,-32,40,-10,-27,-10
31.79,-43,54,7,20,-21,-37,-21,-51
31.795,35,60,53,81,-8,-13,4,29
31.8,54,34,-51,-3,47,55,55,76
31.805,-29,19,55,-47,27,6,-16,-37
31.81,43,114,31,108,23,11,10,12
31.815,26,28,-16,-128,-69,-37,-17,79
31.82,-53,127,105,19,70,11,-9,-38
31.825,54,64,68,64,-4,-1,22,53
31.83,-104,-35,-24,-32,-10,-4,-27,-72
31.835,26,39,-5,-23,-32,2,0,16
31.84,34,30,-22,43,10,-21,-3,23
31.845,-22,106,12,-37,-17,-6,-11,-12
31.85,-16,-50,42,-50,25,19,6,11
31.855,-61,-99,-19,-4,-19,-8,5,-9
31.86,111,127,88,66,0,-7,3,12
31.865,-128,-128,-128,-99,-18,-1,-20,-72
31.87,58,127,31,-6,4,-4,-7,-10
31.875,74,25,70,127,10,-18,33,29
31.88,-7,-36,-10,-75,44,91,31,27
31.885,120,4,16,-19,-32,9,58,127
31.89,-34,35,-42,-6,22,-7,-23,-68
31.895,-54,-111,-128,-56,-56,-37,-39,-64
31.9,30,85,83,109,13,-10,21,5
31.905,31,-77,-89,-78,-17,-47,-35,66
31.91,-8,64,-19,-73,-44,12,12,31
31.915,26,117,60,79,29,24,20,-22
31.92,19,35,-13,30,-4,-3,12,-5
31.925,12,111,36,13,-18,-17,13,31
31.93,-95,-128,-34,21,-22,-15,-23,-18
31.935,57,127,69,9,41,45,4,44
31.94,-31,38,-54,43,19,-12,-3,-21
31.945,6,-48,12,-71,-61,-9,4,36
31.95,1,-8,34,36,-9,-17,-27,-58
31.955,14,52,-2,-20,0,4,13,15
31.96,-80,-63,-9,-38,-26,-8,-38,-33
31.965,82,127,66,51,41,7,12,9
31.97,-22,61,38,44,8,4,2,-1
31.975,-14,-88,-18,-20,-2,8,16,13
31.98,23,71,17,-19,12,-23,-23,-39
31.985,-128,-66,-110,7,-7,-13,-15,-72
31.99,43,81,28,-6,16,23,7,16
31.995,28,3,-16,48,0,-14,-26,-13
32,56,61,35,6,-54,-25,3,69
32.005,-73,-14,-69,-11,64,43,-25,-102
32.01,-72,-121,-37,6,-1,-7,0,-50
32.015,-15,-33,-84,-58,13,2,26,53
32.02,-10,-24,-61,25,-27,-13,-50,20
32.025,13,14,66,-21,-77,-47,-27,-59
32.03,53,-85,8,10,38,54,61,85
32.035,-102,-62,-56,55,98,34,-20,-62
32.04,1,-96,-29,-88,-75,-13,1,19
32.045,2,-25,86,125,8,-6,-8,6
32.05,-42,11,-1,14,-11,-45,-23,-38
32.055,25,30,95,1,-24,1,14,52
32.06,-44,-89,-67,54,22,-5,0,-41
32.065,26,101,-3,66,-35,-21,6,21
32.07,68,13,84,-63,-32,3,7,62
32.075,8,127,-94,-44,-16,-31,-35,-33
32.08,-33,12,2,39,-3,17,15,-26
32.085,-20,-42,-15,-17,31,14,-21,-47
32.09,40,72,5,65,11,14,30,41
32.095,-10,-50,-14,-88,-14,-8,-2,44
32.1,-27,-91,-43,-11,-4,-16,-4,-86
32.105,34,117,27,70,12,33,18,38
32.11,12,-22,20,-96,41,17,15,20
32.115,11,-5,26,39,-34,-11,-6,21
32.12,-3,-45,-9,-22,-5,-21,-1,-5
32.125,27,32,10,-20,-1,11,56,75
32.13,-5,8,-50,44,14,-12,-45,-62
32.135,3,-87,52,53,2,22,-5,14
32.14,-15,17,-21,-71,-7,2,37,-15
32.145,-14,-14,67,2,1,-22,-28,-21
32.15,-6,17,-41,8,-44,-17,-58,-6
32.155,35,51,47,9,35,12,54,-26
32.16,0,116,45,14,27,27,-16,86
32.165,26,4,-22,-8,40,14,65,-50
32.17,12,25,-24,6,-25,1,27,64
32.175,-20,-53,27,-42,-26,-27,-30,-75
32.18,17,19,-18,-27,-24,-2,-20,65
32.185,15,-9,-48,-11,35,21,52,21
32.19,39,-33,-17,-14,-9,-16,-27,36
32.195,-65,43,4,29,-6,0,-19,22
32.2,-8,-30,-9,-15,11,6,36,-62
32.205,33,39,9,-7,-27,-13,-16,1
32.21,-10,-3,-10,-14,5,3,3,-8
32.215,62,-6,-54,-8,-10,-14,-5,-4
32.22,-51,51,76,25,-23,-4,-35,-21
32.225,9,-33,-19,4,45,24,8,21
32.23,12,-30,5,16,12,11,25,1
32.235,-39,12,-37,-60,-42,-18,-52,14
32.24,-21,-38,-9,-14,-2,-22,-39,-83
32.245,5,17,-1,10,-24,2,-5,19
32.25,2,11,2,14,2,5,32,20
32.255,10,-16,5,22,22,13,15,0
32.26,1,-89,55,14,-3,4,5,35
32.265,-7,4,-58,-38,-16,-17,-25,-7
32.27,-32,-37,7,-16,-15,-10,-21,-40
32.275,21,10,20,9,-7,5,20,5
32.28,-8,3,-57,-5,13,-3,-2,-7
32.285,-15,-7,23,8,6,-2,5,-14
32.29,-18,-40,27,3,-7,-11,-3,-8
32.295,18,23,20,-21,-15,0,24,-3
32.3,9,0,-11,8,15,6,-21,18
32.305,-11,-3,19,23,-18,-8,-6,10
32.31,-15,17,-63,-46,2,-15,-29,-29
32.315,10,14,13,8,-11,13,21,13
32.32,-1,14,-5,0,12,3,-1,30
32.325,-18,11,-8,10,1,-8,-47,-88
32.33,1,3,37,16,16,4,14,4
32.335,2,1,-26,5,-5,-3,1,-1
32.34,1,-24,30,-19,-1,-3,18,25
32.345,-17,-10,-39,-24,-30,-15,-18,-33
32.35,-4,18,-27,11,16,-6,-4,-1
32.355,-6,3,-42,-8,6,13,14,-10
32.36,0,12,-50,-10,-6,8,2,-1
32.365,14,18,13,38,-1,-1,-8,19
32.37,-16,-17,-8,-84,-20,-9,-2,-17
32.375,28,10,48,32,17,4,-3,32
32.38,1,28,37,5,11,7,23,-7
32.385,-4,27,-39,-24,-23,-4,-22,34
32.39,-35,-14,-5,21,-1,-6,-30,-78
32.395,-2,-8,-9,-28,-11,-13,9,21
32.4,18,10,-2,18,13,13,22,15
32.405,31,4,8,7,21,12,16,65
32.41,9,6,4,5,-9,-2,15,-10
32.415,27,13,-57,-3,-4,-2,3,-15
32.42,-49,-43,13,-11,-3,-4,-61,-34
32.425,-8,-15,0,-1,-17,-7,20,20
32.43,4,3,-6,3,28,16,8,36
32.435,-8,2,-8,6,-12,-10,-4,-26
32.44,14,10,-40,-8,-11,-7,14,3
32.445,-1,2,24,10,-10,-9,-9,-9
32.45,2,-17,-4,14,2,2,1,20
32.455,-6,-7,19,12,17,19,11,-8
32.46,-12,21,-21,10,6,1,13,9
32.465,4,-21,2,-26,8,-7,-34,-36
32.47,12,5,25,15,-19,-5,12,20
32.475,-32,-9,8,3,-3,-13,-12,14
32.48,1,-9,-15,10,-4,0,4,35
32.485,8,57,87,14,15,13,14,5
32.49,8,13,-10,-11,1,-5,4,14
32.495,22,-7,-5,39,9,4,-13,-4
32.5,-18,-12,-11,-25,6,5,4,-8
32.505,4,-9,-19,1,-17,-6,-3,1
32.51,-9,37,-35,-38,-2,-4,-14,-29
32.515,-5,1,18,17,-10,-2,48,31
32.52,6,-5,-16,5,0,-15,-44,-45
32.525,-9,-9,-22,-31,-2,-8,-4,-1
32.53,0,14,-8,17,2,14,12,9
32.535,-6,-10,-11,-1,-5,-6,-21,-8
32.54,22,14,7,7,8,5,20,-21
32.545,-9,-8,8,-24,1,-5,2,40
32.55,-8,-24,12,22,-5,3,-1,1
32.555,29,-9,-2,10,9,5,16,-12
32.56,-65,-7,-38,-61,-30,-25,-58,-37
32.565,25,-11,3,26,18,22,30,61
32.57,-37,-42,-29,-36,9,4,8,-45
32.575,9,-14,-12,-23,-9,-20,-32,-8
32.58,16,19,6,3,4,2,1,4
32.585,12,-15,7,1,-5,-3,-20,-25
32.59,-18,6,-11,19,-17,-4,23,18
32.595,-14,-19,4,-3,-4,-5,3,-1
32.6,11,11,54,13,10,11,11,24
32.605,-17,7,-10,-19,11,4,1,-64
32.61,41,-5,18,41,-8,-5,-6,27
32.615,-19,33,-22,-17,-18,-7,-13,-5
32.62,9,3,9,-1,7,-7,7,12
32.625,-13,-10,-28,27,-6,-3,23,-1
32.63,-3,20,-33,-16,9,-2,-33,-48
32.635,-24,-7,27,12,-7,-3,-11,-45
32.64,7,-12,3,101,19,9,29,5
32.645,-6,-17,-46,-81,-25,-6,5,8
32.65,7,-17,-16,19,-5,-6,-30,-1
32.655,-32,4,56,50,18,6,33,49
32.66,21,11,0,7,-11,-2,-34,-38
32.665,-1,-9,9,26,-3,-9,-20,-18
32.67,-3,4,18,-21,-7,-1,8,19
32.675,11,-7,36,-14,12,11,14,-1
32.68,-5,-13,-38,-22,-7,-5,10,5
32.685,-10,25,19,-25,-14,-14,-24,6
32.69,13,-16,-13,-13,3,6,10,27
32.695,4,-9,-17,2,1,-2,-2,4
32.7,-7,-2,-17,-52,-7,-5,-4,-44
32.705,-8,-2,-1,7,-6,2,-11,-11
32.71,8,8,24,23,19,11,7,0
32.715,0,-18,-52,-12,-1,-11,-9,20
32.72,-9,-20,19,23,-1,-3,4,8
32.725,-2,4,-15,68,-9,-1,-3,-7
32.73,4,-21,52,-3,15,11,23,4
32.735,12,14,-12,-36,4,0,-22,-18
32.74,3,1,-30,-24,-24,-16,-7,0
32.745,0,4,0,-13,3,-4,-8,-18
32.75,0,7,-37,19,-16,-16,-1,19
32.755,0,-19,39,0,-4,8,-10,1
32.76,42,-10,-20,-16,7,7,10,20
32.765,-29,-5,9,-2,11,5,2,-5
32.77,6,10,-10,-22,-9,-6,0,9
32.775,0,-4,-6,-3,-3,-5,9,5
32.78,-9,8,18,17,1,5,21,-28
32.785,-2,-22,-21,-13,0,-8,-75,3
32.79,-13,-1,-22,15,-4,-2,8,-2
32.795,-3,8,-13,-12,-2,4,-4,-28
32.8,1,-7,2,37,-9,5,14,26
32.805,8,27,45,45,8,0,22,-6
32.81,-19,-27,-40,15,1,3,-13,-11
32.815,4,3,30,-14,3,4,-1,8
32.82,6,-3,-21,-30,-7,-15,9,21
32.825,5,-15,11,14,20,9,26,16
32.83,0,-23,23,-61,-16,-7,-47,-1
32.835,-46,2,-42,-3,-6,-5,9,3
32.84,12,15,28,-11,3,3,7,9
32.845,12,5,-3,-4,-1,4,26,18
32.85,12,12,-9,62,11,1,-8,8
32.855,-57,-38,19,-46,-4,-4,-9,-46
32.86,-9,1,11,-27,-14,-10,-53,0
32.865,1,10,2,-25,-11,-3,28,15
32.87,17,-4,8,-62,-10,0,13,5
32.875,17,5,-8,90,-4,-8,-20,-18
32.88,-10,4,24,-27,10,8,13,5
32.885,8,-18,-23,-12,-9,-6,0,6
32.89,-15,16,1,-12,0,-11,-27,-44
32.895,16,1,17,61,-1,-2,-13,5
32.9,-15,-5,-22,-17,-8,1,9,-7
32.905,36,-38,47,6,28,16,33,33
32.91,-32,2,5,43,6,2,-9,14
32.915,-13,-6,-30,-74,-18,7,-38,-44
32.92,4,-15,6,-10,-10,-33,1,34
32.925,-5,13,8,-16,-12,-9,0,-3
32.93,-24,-8,25,42,14,11,0,2
32.935,30,3,16,5,7,18,24,-9
32.94,-24,4,6,12,13,1,10,-1
32.945,-21,-3,-66,-21,-16,-4,-6,-35
32.95,52,2,14,-34,0,-24,-13,5
32.955,-3,13,-29,-16,-21,-8,-14,0
32.96,4,1,-10,-3,0,14,-3,-16
32.965,-11,24,18,77,43,6,17,7
32.97,-17,-16,-5,-13,-34,-4,-4,-17
32.975,16,-1,-24,31,6,-7,-6,13
32.98,1,-11,-38,-76,-20,-19,1,5
32.985,-9,-20,-30,7,-12,-1,-22,-15
32.99,2,27,11,-6,-2,7,18,-19
32.995,30,5,-9,20,38,10,15,61
33,-38,2,13,13,0,7,-28,-103
33.005,9,25,-7,-35,-23,-9,-17,3
33.01,0,16,5,4,-2,-7,24,-3
33.015,12,9,-4,-33,-11,-8,36,19
33.02,22,2,-15,88,14,-1,-51,36
33.025,-15,-15,-42,-38,-5,-2,-8,-13
33.03,13,8,38,6,2,0,19,-1
33.035,5,3,43,24,3,8,12,12
33.04,-22,-6,-9,20,-9,-3,-31,-20
33.045,11,0,21,8,-4,-7,-3,-9
33.05,-5,-7,9,43,8,9,11,20
33.055,-2,2,-12,4,10,6,8,-3
33.06,4,18,55,48,21,17,28,18
33.065,8,-19,-29,-42,-29,-40,-27,-23
33.07,1,1,10,72,1,12,11,11
33.075,43,31,2,-57,6,8,4,32
33.08,-56,-13,-27,-26,-16,-12,-28,-45
33.085,-3,9,24,25,28,19,11,24
33.09,4,-6,-22,-20,-12,12,11,17
33.095,-1,14,42,102,3,-36,-25,-53
33.1,32,-11,-48,-78,-39,-9,21,31
33.105,-38,1,25,6,4,5,-41,-14
33.11,0,-8,9,-26,3,2,3,-4
33.115,2,5,43,49,19,27,19,7
33.12,9,-2,28,-13,-6,-4,29,20
33.125,-17,-27,-28,20,2,-2,-9,-31
33.13,5,6,-20,-16,-10,-9,14,7
33.135,-27,-15,-48,-106,-9,-2,-42,-14
33.14,22,-6,4,27,6,2,6,44
33.145,12,14,27,10,4,7,-1,-20
33.15,-8,-5,2,-6,4,-4,-15,-4
33.155,-6,2,31,-12,-1,-17,6,0
33.16,4,15,-4,84,17,15,14,17
33.165,23,-4,-29,13,-11,10,12,13
33.17,-49,4,-27,-14,-5,-19,-12,4
33.175,-15,-16,-19,6,-11,7,0,-35
33.18,8,7,19,34,15,6,-2,-2
33.185,0,0,-7,-77,-20,-8,5,7
33.19,15,12,5,20,9,0,-6,-10
33.195,-5,-21,-10,10,-14,-10,-2,22
33.2,2,3,9,-18,12,4,7,-3
33.205,2,5,-3,-35,9,14,36,7
33.21,-2,-23,-21,6,-1,-8,-43,-16
33.215,-7,1,-14,-32,-7,-8,-7,-3
33.22,10,1,14,-3,1,-1,5,-7
33.225,-10,-3,6,100,6,-5,5,0
33.23,5,-9,-7,1,-2,18,13,5
33.235,-10,-2,4,14,4,-9,1,-12
33.24,-6,-4,-3,37,5,-6,-1,-1
33.245,-11,-5,2,-25,-11,-3,-4,43
33.25,-1,0,30,-8,11,5,17,-9
33.255,-3,-13,-27,-30,-8,0,-21,-10
33.26,-6,1,-8,-39,-9,1,1,-2
33.265,-1,6,-8,30,9,-6,-2,10
33.27,5,2,-7,-61,-10,-5,-2,-2
33.275,7,27,51,-2,-4,2,35,48
33.28,-18,-17,-9,0,-11,-15,-41,-58
33.285,-9,2,-14,-1,-13,-7,-5,-17
33.29,1,-5,4,24,14,5,-2,1
33.295,16,6,-32,30,10,8,0,-6
33.3,-19,6,-4,-39,-7,-10,12,7
33.305,5,4,10,6,3,-1,-5,-9
33.31,-1,-6,22,14,-4,-11,-6,-6
33.315,0,-2,0,-61,-23,-6,7,8
33.32,5,6,5,57,2,1,-1,-4
33.325,0,-2,17,26,36,21,-16,-18
33.33,-4,-15,-31,-26,-24,-15,1,6
33.335,-6,-32,20,2,9,12,-2,-3
33.34,3,-9,6,-14,-4,-11,8,9
33.345,0,15,22,-8,-6,-4,0,-2
33.35,4,0,1,43,-3,-1,0,0
33.355,-8,-9,-4,-32,-9,-10,9,1
33.36,-2,3,5,4,-2,3,-25,-14
33.365,12,-1,6,8,12,6,20,48
33.37,9,18,28,51,31,14,8,15
33.375,-17,-22,-65,-34,-29,-9,-21,-7
33.38,8,-4,2,3,5,3,14,1
33.385,-2,5,-7,-22,-16,-11,-17,-12
33.39,4,-9,32,6,-1,1,-10,-1
33.395,-6,-21,-12,26,4,-9,-10,-8
33.4,4,-4,-12,-61,-5,7,7,20
33.405,2,2,6,16,0,0,14,-4
33.41,-4,5,-20,-11,5,6,19,-2
33.415,-1,9,-3,27,-5,-9,-32,-20
33.42,-2,2,-28,3,0,-3,-1,-9
33.425,-6,-24,-11,-8,-3,-1,-2,-10
33.43,0,1,14,-4,0,0,-1,-1
33.435,-1,3,-14,13,9,8,8,2
33.44,0,-1,-18,1,-5,-14,-1,7
33.445,-13,6,-1,-3,-16,-9,-15,-23
33.45,-2,1,-16,-13,-2,-2,-6,1
33.455,-1,-1,7,16,4,3,2,0
33.46,5,-1,31,60,14,4,6,4
33.465,0,-4,-13,-42,-16,9,1,-4
33.47,-5,-3,12,-19,3,-10,-5,-8
33.475,-1,8,11,7,5,9,4,-1
33.48,1,-5,2,3,1,2,-1,3
33.485,-2,-2,2,4,5,2,-4,-1
33.49,-5,4,-2,16,-17,-10,-3,-5
33.495,-1,4,-15,-33,-8,-15,-7,-7
33.5,2,2,9,-14,-3,7,2,4
33.505,1,-6,4,43,1,-12,-5,-3
33.51,1,1,-17,-33,-3,10,1,-1
33.515,2,1,17,39,9,0,5,2
33.52,-4,-18,-5,-6,3,6,-1,2
33.525,-3,16,-4,-20,-8,-6,-2,-8
33.53,2,-6,-5,-3,-2,-2,-4,-2
33.535,6,19,13,23,1,9,1,5
33.54,4,-2,-7,-15,-2,-15,4,-5
33.545,-4,-33,-1,-13,-4,-3,-2,-3
33.55,-5,7,-21,-12,-2,-3,-5,-1
33.555,-1,-1,3,-5,3,6,12,4
33.56,-4,-1,9,20,0,0,-9,-4
33.565,5,-11,-5,-1,-6,-9,-4,8
33.57,-3,13,-3,-10,1,-6,-2,-15
33.575,2,0,6,1,-3,1,-5,-7
33.58,-2,-22,13,-4,-3,4,7,3
33.585,0,16,3,-3,13,18,4,4
33.59,1,-8,-1,-2,-6,-7,4,7
33.595,-1,2,-20,0,-3,-12,-4,41
33.6,1,16,-4,2,-5,-3,-5,-3
33.605,-11,-17,0,-2,-18,-16,-8,-18
33.61,0,1,4,-6,11,14,-5,-3
33.615,-1,-11,14,10,-6,-7,0,4
33.62,1,18,0,-8,-5,-6,1,3
33.625,1,4,-2,10,20,12,0,-3
33.63,-1,2,-4,-5,-2,-3,3,6
33.635,-9,-20,-7,3,2,-1,-5,-18
33.64,0,2,1,6,-1,-10,6,1
33.645,0,9,-1,-8,-11,-3,-12,-7
33.65,-1,-11,-8,-9,-10,-8,-1,-3
33.655,-7,10,-6,-11,3,2,-8,-16
33.66,-4,-22,-19,-3,1,4,0,-4
33.665,1,0,17,3,5,-3,6,14
33.67,1,8,-14,-6,-3,-4,-9,-12
33.675,4,-1,3,-5,-6,0,15,26
33.68,-13,15,-9,1,-3,1,-38,-69
33.685,9,7,0,1,4,-5,6,1
33.69,-1,1,1,10,3,8,-12,5
33.695,0,0,5,7,10,8,10,1
33.7,-3,1,-3,-13,-10,-5,3,14
33.705,-8,-34,-10,-6,-6,-15,-3,-8
33.71,8,74,12,-2,-11,-10,2,-9
33.715,5,-23,11,20,1,13,1,-6
33.72,1,-8,-1,-11,10,10,0,18
33.725,-5,-16,1,7,9,18,3,1
33.73,-1,-1,0,-25,0,-10,11,4
33.735,2,29,-12,16,-14,-4,-28,-12
33.74,7,23,10,4,0,-5,6,1
33.745,-5,-21,-12,0,-5,-7,-6,-3
33.75,2,-10,-2,-3,-6,1,0,4
33.755,12,21,35,3,15,2,-1,-19
33.76,6,-9,18,2,0,1,12,22
33.765,-10,27,2,-2,4,0,-11,25
33.77,-3,-50,1,6,1,1,-1,4
33.775,-1,7,-14,-18,-2,-8,-4,-7
33.78,9,5,-4,-18,-2,-3,0,12
33.785,11,71,19,10,-3,-2,14,12
33.79,-15,-76,-15,8,6,2,7,7
33.795,-12,-20,-10,-26,-2,-4,-30,-22
33.8,11,43,8,10,1,3,16,15
33.805,9,22,-28,-16,-5,-2,-9,-5
33.81,-8,6,-10,1,-9,-7,-10,-6
33.815,-4,-32,-10,17,5,-2,9,2
33.82,1,27,-22,-38,-5,1,0,4
33.825,7,13,19,-1,-4,-12,10,20
33.83,-21,-76,-9,14,0,1,-24,-45
33.835,5,-9,3,17,-1,-7,19,33
33.84,-18,-61,14,-8,-13,-2,-20,-15
33.845,6,16,-5,-2,10,10,22,19
33.85,11,59,10,6,8,2,-17,0
33.855,-11,-85,-47,-35,-16,-11,0,-11
33.86,-2,-6,21,37,15,-4,7,6
33.865,4,-26,1,-10,-11,0,1,-3
33.87,-3,-69,20,-2,1,3,5,0
33.875,-12,17,2,-2,8,4,1,-21
33.88,8,8,-17,7,4,7,9,20
33.885,-9,-59,-8,-19,-14,-8,-10,-13
33.89,2,81,-12,19,2,-11,-4,10
33.895,3,5,17,-15,-8,1,23,40
33.9,-24,-31,-25,-1,0,0,-21,-55
33.905,-8,68,21,31,16,4,9,-15
33.91,9,-50,-43,-50,-18,-5,2,-16
33.915,-13,-27,12,3,1,4,-18,26
33.92,-1,11,-24,9,9,2,12,11
33.925,-11,18,5,-34,-3,-1,-7,-13
33.93,29,89,7,24,-6,-4,10,-14
33.935,-7,38,-2,2,2,1,-1,-20
33.94,-3,-40,-26,-12,-6,-5,-6,1
33.945,1,-39,31,38,10,-2,-10,-9
33.95,-1,0,-6,-61,-9,-3,11,26
33.955,16,72,-1,11,-7,1,-6,-14
33.96,0,-45,22,18,6,11,-6,3
33.965,-17,-77,-36,7,0,-6,-2,-7
33.97,-11,35,-20,-8,-1,-4,0,3
33.975,-3,-53,-12,3,-11,-3,-2,-24
33.98,0,-46,30,1,7,10,11,9
33.985,13,101,13,3,-4,-1,-13,10
33.99,-4,40,35,-27,-5,-1,-1,-17
33.995,17,88,-40,18,0,-4,6,25
34,-13,1,105,-14,4,0,5,3
34.005,2,4,-27,8,6,-1,0,-20
34.01,2,25,62,45,3,2,3,10
34.015,15,75,-64,-100,-29,-12,-13,-11
34.02,-29,-36,-13,-8,-57,-17,4,3
34.025,2,94,1,37,53,14,0,0
34.03,-5,-25,-4,-4,-18,12,5,12
34.035,-12,-65,9,45,50,5,1,-13
34.04,4,24,-36,32,-12,-15,-11,-13
34.045,18,-14,-18,-114,-47,-9,1,8
34.05,-11,90,-14,51,10,1,0,-12
34.055,-15,-97,15,-24,-42,-13,-13,-8
34.06,7,77,-6,10,10,-13,-8,4
34.065,6,47,20,16,-16,0,-1,-2
34.07,-21,-12,5,-14,22,11,1,-11
34.075,-43,-13,-37,-3,2,-2,-12,-19
34.08,11,-23,1,4,19,-1,6,41
34.085,3,-63,-19,17,-17,2,-9,-59
34.09,37,50,55,-24,-5,2,16,40
34.095,11,56,32,36,17,8,15,10
34.1,-22,-15,-46,-39,-6,-3,-13,-22
34.105,19,78,-6,64,30,10,7,16
34.11,-19,-35,-5,-74,-34,-19,-15,-15
34.115,8,81,33,41,-1,-9,-5,5
34.12,-9,-48,-32,-42,-20,4,5,-13
34.125,21,-10,50,6,-8,0,11,34
34.13,-10,50,-55,36,2,1,-13,-13
34.135,20,0,6,-3,6,-1,5,6
34.14,6,23,1,-8,4,0,-8,-13
34.145,-41,-68,-1,-15,-13,4,2,3
34.15,9,13,11,41,23,-1,-2,12
34.155,52,101,90,20,1,11,17,19
34.16,-74,8,-57,-12,-24,-28,-40,-61
34.165,23,27,-36,-13,10,-1,-3,-6
34.17,-26,-51,41,55,-12,4,13,25
34.175,-7,99,-17,-52,40,17,1,-8
34.18,42,127,63,36,11,-1,7,-15
34.185,-32,3,-30,-53,-25,-13,-13,-15
34.19,-6,-20,-49,30,-1,-21,-12,0
34.195,12,75,43,21,6,17,3,-15
34.2,10,-45,17,-63,-16,2,8,23
34.205,-7,-79,52,21,13,-4,-8,2
34.21,54,98,58,29,16,-10,6,13
34.215,-108,-128,-28,-43,-40,-22,-27,-54
34.22,60,127,-34,14,-13,-7,-12,6
34.225,-13,-82,-33,-66,-34,-4,-2,5
34.23,-26,-44,7,-3,17,20,11,-9
34.235,48,10,20,5,7,-9,7,41
34.24,19,79,-6,46,9,11,6,-1
34.245,-54,32,-63,24,28,-12,-11,-24
34.25,59,93,23,-59,-31,10,12,30
34.255,2,-73,-23,35,27,1,0,3
34.26,-11,-63,-77,-51,-19,2,11,16
34.265,20,79,81,37,7,5,2,-23
34.27,19,36,-2,22,-1,-5,5,17
34.275,-3,-54,44,19,15,14,11,-9
34.28,20,75,33,-17,26,26,22,37
34.285,-27,-70,67,25,9,-4,-4,-5
34.29,22,11,35,-3,1,1,-10,-4
34.295,-58,-86,-36,-28,-35,-17,-8,-5
34.3,3,69,24,-7,1,-3,-10,-23
34.305,-2,7,-50,-17,-25,-13,1,-4
34.31,24,73,4,68,81,27,11,21
34.315,7,-30,-42,-34,-24,22,14,-3
34.32,-11,-30,14,14,35,-17,-11,5
34.325,-40,-70,-69,-7,-47,-15,-15,-39
34.33,1,-7,-87,-87,-35,-24,-10,-18
34.335,9,93,-42,8,7,-2,1,9
34.34,69,67,54,24,-9,21,27,47
34.345,-60,-68,-4,10,42,31,-5,-49
34.35,15,-5,37,40,9,3,9,20
34.355,46,86,44,-21,13,-12,15,26
34.36,-5,-15,-37,42,4,7,1,-7
34.365,61,127,51,-34,10,1,14,42
34.37,-47,-3,-44,-8,-52,-14,-24,-53
34.375,6,-13,11,11,22,0,-9,0
34.38,43,38,27,12,18,18,30,55
34.385,18,-77,48,4,0,-18,-6,38
34.39,-34,-127,-36,40,-5,0,-4,-40
34.395,10,127,21,26,-32,-11,-11,-20
34.4,19,34,1,-60,-41,-20,-9,-9
34.405,-102,-37,-116,19,34,-21,-43,-55
34.41,15,86,-15,-85,-48,-7,-13,6
34.415,-6,-27,22,27,-19,-5,-3,-11
34.42,-20,80,56,22,8,11,-5,26
34.425,31,-69,-10,13,-10,3,-7,1
34.43,-36,47,52,8,-23,2,10,-5
34.435,-31,-90,-80,-50,-2,-9,-7,0
34.44,-65,-71,-43,-1,-50,-25,-31,-54
34.445,-10,-7,-7,-18,8,-9,0,9
34.45,56,72,55,22,26,-10,18,27
34.455,48,91,27,-25,3,59,28,62
34.46,-52,35,22,33,71,3,-12,-65
34.465,29,-2,-52,-29,-8,9,10,-2
34.47,-18,64,55,45,-13,-30,-12,0
34.475,-11,-5,6,-6,-68,-35,-13,-26
34.48,20,41,-64,21,55,7,-8,15
34.485,-25,34,-30,-26,-2,23,-6,-5
34.49,45,-3,-63,-9,-9,5,5,36
34.495,-76,-51,24,64,11,-16,-44,-87
34.5,-44,-99,-49,-27,-12,-11,3,32
34.505,7,86,42,36,-19,-22,-9,-1
34.51,-14,66,36,54,15,-2,-6,-5
34.515,-13,83,59,-2,-18,10,7,0
34.52,76,38,78,-12,35,20,37,54
34.525,-68,-30,-21,39,-29,-11,-16,-54
34.53,49,-38,27,-105,-1,24,12,18
34.535,-43,-79,-77,39,-38,-54,-27,-35
34.54,-5,-12,-15,-18,52,2,-10,-30
34.545,-40,53,-68,-37,-47,8,6,-47
34.55,88,17,53,-3,-18,5,32,88
34.555,3,117,-44,-34,-7,9,-4,-8
34.56,-45,-41,-28,-2,-30,-25,-22,-21
34.565,85,127,36,102,55,-3,8,37
34.57,-75,-35,24,-108,-1,15,-12,-63
34.575,42,31,27,56,5,-8,21,65
34.58,40,-57,2,9,25,21,16,13
34.585,-60,-94,-64,-107,-50,-15,-29,-5
34.59,-5,112,74,46,24,7,8,-19
34.595,-81,-128,-103,-5,-88,-39,-26,-38
34.6,67,127,-26,-18,30,-13,-4,15
34.605,62,121,53,54,77,56,17,47
34.61,-22,-128,-80,79,25,-9,-9,10
34.615,-38,95,-39,-66,4,12,-32,-56
34.62,-39,5,1,-11,-71,-24,-11,-48
34.625,44,38,-11,37,-30,-11,13,33
34.63,-1,58,-42,-69,-26,-25,-20,-28
34.635,-10,127,-18,-28,66,32,10,-7
34.64,-84,-19,-67,80,-61,-48,-37,-101
34.645,18,-21,-23,-119,8,16,25,44
34.65,-45,-5,-81,54,-57,-8,-20,-5
34.655,23,61,62,3,40,-6,-12,10
34.66,-19,29,10,-14,-24,4,-4,-24
34.665,56,112,66,40,-36,-25,21,32
34.67,4,-6,0,35,46,26,4,-10
34.675,106,92,71,87,71,17,40,72
34.68,-47,-128,-21,-52,-28,12,1,38
34.685,20,0,-5,73,-18,-10,-4,-15
34.69,112,27,41,54,53,27,67,108
34.695,-82,-72,-87,-48,-83,-17,1,-37
34.7,-50,-2,5,-106,31,27,-26,-54
34.705,13,43,20,-39,50,26,3,11
34.71,-7,75,19,-22,-59,-34,-11,-3
34.715,17,33,76,-17,-20,-3,1,28
34.72,41,-45,-18,103,-2,7,12,20
34.725,38,113,62,11,-10,-3,4,32
34.73,74,81,27,28,41,51,26,70
34.735,-115,-28,-79,-68,-20,-31,-32,-73
34.74,53,-17,-6,82,-5,-10,9,35
34.745,-38,-58,37,15,-41,-18,-10,-25
34.75,6,-86,-55,50,-12,11,6,-25
34.755,56,-36,32,85,53,4,34,35
34.76,-42,54,14,-2,0,-37,-35,-17
34.765,-74,-119,-72,-87,-55,6,7,-24
34.77,-26,-94,-62,-20,59,28,10,15
34.775,108,127,127,11,17,21,34,34
34.78,-113,-128,7,16,-128,-76,-49,-7
34.785,62,-47,37,12,46,54,32,20
34.79,26,127,127,61,63,18,3,-16
34.795,-73,-78,-60,-14,21,-19,-3,35
34.8,24,83,-14,-54,-92,-23,1,-10
34.805,-65,-128,-13,-11,48,-8,-10,-25
34.81,65,-20,2,17,2,30,17,82
34.815,-94,-60,-52,-56,-26,-44,-68,-105
34.82,65,67,38,66,52,17,26,71
34.825,4,119,72,-13,-24,-6,-19,-25
34.83,-94,60,-50,-18,-94,-42,-45,-95
34.835,-20,10,-15,-38,74,9,14,26
34.84,19,42,-16,-36,-59,25,30,-12
34.845,54,79,14,66,61,1,31,70
34.85,-59,61,41,-19,-68,-70,-61,-27
34.855,-24,-50,-38,48,-61,1,-11,-66
34.86,-32,-24,-66,-75,23,-9,-15,-10
34.865,-97,-128,-56,-90,-51,-22,4,0
34.87,32,87,-7,55,13,11,3,-83
34.875,83,115,71,72,37,27,1,2
34.88,-90,-116,-14,-79,-24,-11,-18,-20
34.885,105,101,-45,-21,-89,-20,-15,-12
34.89,-62,-46,37,-41,-18,-34,-4,31
34.895,0,-69,-48,42,30,34,22,6
34.9,-58,19,-60,-20,15,17,-10,-88
34.905,75,78,63,73,-5,-33,-16,56
34.91,-40,105,-46,-29,-37,2,-16,-67
34.915,127,127,88,29,109,39,55,127
34.92,-53,15,19,121,26,-21,-37,-97
34.925,52,-54,-52,-85,-32,31,39,37
34.93,80,8,85,52,47,46,43,46
34.935,-15,63,106,-34,89,59,3,-16
34.94,11,34,-58,-73,9,-12,-29,-8
34.945,53,0,39,36,-75,7,47,102
34.95,-30,-35,-29,-8,60,27,11,-55
34.955,3,87,19,85,-7,-11,-6,10
34.96,-17,13,-42,-70,-49,-28,-5,-46
34.965,72,127,76,83,35,12,-2,44
34.97,61,113,98,-4,-49,-19,-6,34
34.975,-15,80,30,20,65,54,17,-47
34.98,-40,67,37,-8,4,3,9,40
34.985,106,88,71,-64,7,28,42,58
34.99,-46,-53,-114,8,-3,-16,-40,-47
34.995,45,27,65,41,11,-15,17,16
35,112,18,48,74,-35,5,36,85
35.005,-10,81,28,-28,-10,26,0,-47
35.01,17,97,-50,-56,37,6,-19,-23
35.015,-107,-102,-108,17,-66,-61,-60,-36
35.02,33,43,-16,-8,39,29,13,-3
35.025,60,76,45,-64,19,0,-7,-4
35.03,-56,-81,9,45,-55,-26,1,-3
35.035,76,86,80,-45,25,21,33,45
35.04,-96,-48,-33,64,23,-28,-48,-50
35.045,12,62,6,-8,21,37,6,9
35.05,-17,2,-59,16,30,14,21,30
35.055,50,126,39,27,-42,-22,10,36
35.06,38,19,77,-21,26,14,19,12
35.065,-117,-128,-58,70,-29,-44,-47,-127
35.07,92,16,87,24,4,4,35,127
35.075,-53,54,-37,-5,-28,-5,-46,-128
35.08,19,-42,7,6,-35,-7,2,42
35.085,11,56,20,64,51,1,-7,-46
35.09,34,-78,-57,-91,1,18,28,43
35.095,-40,-20,32,27,38,-6,-18,-18
35.1,22,-52,27,-119,-25,12,19,34
35.105,-18,20,91,54,-22,-28,-35,-15
35.11,7,42,43,14,24,13,24,-21
35.115,74,48,76,68,-40,-17,11,71
35.12,-68,12,-23,-23,-29,-27,-46,-67
35.125,13,67,24,-124,13,19,10,8
35.13,56,-54,-24,14,-21,-16,-9,34
35.135,-1,90,23,-30,60,49,25,32
35.14,-30,-57,-18,55,-46,-48,-20,0
35.145,-128,-75,-124,12,-41,-5,-42,-125
35.15,100,127,44,26,37,37,26,79
35.155,58,38,-42,-25,29,-8,11,14
35.16,6,84,-11,-45,-14,-7,-5,18
35.165,-96,-128,-97,5,-58,-36,-21,-2
35.17,-27,90,35,0,19,8,-3,-4
35.175,58,47,40,58,-33,-15,16,72
35.18,-36,-68,-25,-37,38,16,-12,-59
35.185,56,-17,82,105,68,42,38,16
35.19,-4,17,-45,-26,-1,-4,8,24
35.195,-128,-128,-120,57,-98,-73,-67,-128
35.2,116,100,116,124,-20,-33,29,99
35.205,35,-52,-15,-50,53,69,55,100
35.21,16,123,-16,36,9,10,-19,-63
35.215,10,-59,53,-19,6,-4,-2,21
35.22,-53,-64,-104,24,-8,17,12,-17
35.225,-49,3,48,30,-69,-55,-52,-46
35.23,6,79,20,-8,-37,2,7,12
35.235,-61,-14,-4,59,21,5,-28,-70
35.24,56,99,79,-44,62,55,29,26
35.245,57,44,53,73,9,-7,20,6
35.25,24,45,-11,-128,-45,1,-5,7
35.255,-62,20,-25,-50,-24,-30,-29,35
35.26,-117,-86,-40,-7,15,-21,-41,-114
35.265,99,122,24,-6,11,9,30,9
35.27,-39,58,-4,-26,-23,-3,-34,-57
35.275,106,95,68,40,15,20,32,86
35.28,-85,-44,-77,39,41,-13,-31,-52
35.285,43,-6,1,-41,-31,46,51,99
35.29,18,61,72,118,1,-53,-29,-17
35.295,-28,86,-69,-128,-51,4,-4,-32
35.3,33,-72,21,40,50,-3,10,54
35.305,-35,11,15,51,-55,3,-13,-50
35.31,-22,-97,-107,-33,30,-7,-6,-9
35.315,33,39,-12,48,25,2,4,29
35.32,2,52,72,-99,-46,-12,6,-8
35.325,27,67,58,84,61,-19,-5,33
35.33,-11,-104,26,-99,0,11,17,16
35.335,81,76,-30,87,34,50,46,56
35.34,-87,-24,-81,18,-64,-44,-61,-88
35.345,-33,98,-71,-62,-12,5,-29,-56
35.35,-20,-72,-72,-53,-32,2,-4,-32
35.355,10,21,3,17,-18,-36,-15,11
35.36,58,127,82,105,-19,26,34,46
35.365,-87,-114,-99,-103,-90,-36,-9,-13
35.37,-44,75,62,86,100,14,-1,-51
35.375,-11,22,-93,9,-3,1,9,0
35.38,108,127,91,-78,50,52,44,55
35.385,-1,64,-26,-7,-22,-45,-27,-17
35.39,85,119,-11,80,-25,-6,39,94
35.395,-43,12,10,8,-66,-39,-50,-63
35.4,35,54,-15,-65,104,49,39,45
35.405,8,1,63,84,20,23,14,12
35.41,90,107,2,-117,-39,-12,24,91
35.415,-82,-121,47,127,20,-11,1,-31
35.42,57,127,48,-27,-16,16,-12,-30
35.425,-65,-78,-105,-106,-77,-51,-7,2
35.43,-40,73,53,51,60,24,-23,-106
35.435,-49,78,-12,-52,-53,-26,-29,-38
35.44,45,51,58,104,12,38,53,72
35.445,-90,-97,-63,-77,-9,-29,-51,-76
35.45,110,81,104,35,-24,-10,18,47
35.455,-17,-76,-64,-3,16,11,-3,-43
35.46,39,-21,-27,46,-35,-25,-19,9
35.465,14,43,-41,-47,-12,-14,-27,31
35.47,-2,12,66,49,-9,1,-26,-90
35.475,43,-32,60,-70,105,71,39,60
35.48,-101,-32,-39,39,-38,-34,-32,-83
35.485,22,75,-2,50,20,18,-3,-6
35.49,31,37,-89,-97,13,20,17,25
35.495,-72,-77,-10,-1,25,3,-23,-65
35.5,-32,-28,8,-16,-57,-26,-5,-26
35.505,26,63,26,53,35,6,8,0
35.51,-68,-120,-92,-15,1,-6,-19,19
35.515,48,115,93,39,11,-4,-7,-58
35.52,-77,-76,-91,-46,-7,0,-23,-2
35.525,58,88,4,-49,-42,-18,20,29
35.53,-43,-127,-38,-22,11,5,14,77
35.535,80,76,82,89,40,5,31,0
35.54,-71,28,-31,59,48,42,-15,-68
35.545,34,56,22,-63,-30,-11,15,69
35.55,-98,-1,-51,17,10,-28,-56,-117
35.555,91,113,11,-66,-46,-2,20,61
35.56,-64,-100,-19,27,15,-3,-5,-33
35.565,14,84,19,49,-47,-8,24,-4
35.57,70,127,95,-26,26,8,7,3
35.575,38,68,-34,-18,6,2,13,111
35.58,-66,-125,-118,28,-21,-31,-7,-46
35.585,10,-10,-51,-76,-25,24,-14,-23
35.59,55,51,88,64,-24,17,43,77
35.595,26,84,-26,-59,-42,-24,-14,-42
35.6,79,127,14,96,63,42,28,53
35.605,-61,-127,44,54,36,-13,-11,-51
35.61,-9,-50,-103,-99,-48,-16,-32,-14
35.615,46,110,127,127,47,19,28,17
35.62,20,-107,-77,-10,-8,7,25,127
35.625,-70,-57,19,-85,-57,-25,-27,-76
35.63,57,99,-2,40,-35,-16,-4,-21
35.635,-49,-128,-101,-17,85,73,9,22
35.64,55,51,51,47,41,7,7,-7
35.645,-51,-107,-55,2,-31,-22,-30,-12
35.65,11,-5,-26,-35,-20,-18,6,57
35.655,27,38,63,-10,-61,-18,17,-55
35.66,27,119,58,36,0,-19,-24,24
35.665,42,18,-23,54,25,31,8,48
35.67,-66,-33,-2,57,-10,-24,-33,-119
35.675,-89,-128,-73,-53,36,0,-19,-2
35.68,-9,60,30,-31,-25,-18,3,-5
35.685,16,37,-8,-32,-49,-45,-22,6
35.69,25,-47,29,86,5,16,-3,24
35.695,-44,20,65,30,31,17,11,-71
35.7,-3,109,-44,-40,-33,-8,10,31
35.705,37,106,2,-35,55,32,25,39
35.71,-34,69,100,84,-54,-17,-6,-15
35.715,-18,-5,-56,-74,-7,-42,-65,-103
35.72,49,-34,43,-40,-49,-3,24,80
35.725,-33,-25,-10,13,-15,18,-7,-67
35.73,-8,-23,1,28,60,15,-21,-30
35.735,44,127,25,61,-13,-11,-10,31
35.74,81,10,20,2,29,6,24,65
35.745,-96,-103,-27,-22,-31,-8,-44,-81
35.75,24,73,-42,-39,9,-14,19,25
35.755,27,22,-17,61,-9,1,15,59
35.76,16,8,-18,-35,-12,-6,-17,-10
35.765,18,46,61,54,34,9,20,10
35.77,-70,-90,-63,-53,-15,-3,8,-9
35.775,72,97,51,36,-21,-18,-4,97
35.78,-76,-38,-41,-26,31,15,-62,-115
35.785,75,127,91,46,48,23,13,10
35.79,43,127,58,-67,-7,-6,-5,49
35.795,3,66,68,73,-19,0,16,15
35.8,25,-52,42,-32,2,-3,16,-16
35.805,-31,-18,-65,14,1,-34,-11,18
35.81,-6,-14,13,-82,-6,31,8,13
35.815,1,-40,17,25,31,37,68,26
35.82,-47,-37,-40,66,45,7,-36,3
35.825,-18,-48,-81,-117,-43,-33,24,45
35.83,17,70,-51,46,-25,-44,-69,-80
35.835,-50,-21,-14,-36,-34,6,-21,-22
35.84,5,110,-21,59,47,5,1,38
35.845,-41,-88,-51,-51,55,52,18,17
35.85,19,14,12,15,5,8,65,44
35.855,-21,-18,-31,-27,-26,-30,-19,-59
35.86,48,70,46,-29,-39,-18,-10,-20
35.865,17,53,67,34,-27,-24,-4,22
35.87,-9,-63,-1,-22,29,27,-52,-73
35.875,-26,-49,-52,9,1,-8,-18,7
35.88,-5,-29,26,1,-2,5,34,40
35.885,80,53,-7,7,3,0,1,26
35.89,-23,0,-8,-16,-8,5,117,-4
35.895,8,-50,14,19,19,10,-80,27
35.9,-16,-47,4,-27,2,10,33,-38
35.905,-40,-10,31,8,-5,-14,-35,12
35.91,-27,-30,40,-15,1,-3,-15,6
35.915,48,59,11,-4,5,-3,27,33
35.92,-26,-43,-11,-5,-16,-18,-4,14
35.925,15,57,-7,20,-14,0,-16,-49
35.93,-37,-67,-8,32,3,21,1,-39
35.935,11,73,-49,-38,25,3,-1,-15
35.94,10,23,-14,9,11,-2,-2,13
35.945,-30,32,-15,30,-25,-28,22,18
35.95,-18,-1,11,-74,-59,-22,-30,-27
35.955,3,5,22,-7,13,11,2,0
35.96,4,-34,-16,10,-6,-10,-30,3
35.965,12,-28,-24,6,23,22,44,68
35.97,-11,33,-20,19,4,-6,14,-80
35.975,2,-14,29,-2,-6,0,3,60
35.98,-12,-15,41,0,6,-3,-47,-32
35.985,28,-44,-52,-5,6,1,-4,12
35.99,12,-11,13,-2,-1,2,19,14
35.995,-22,-22,-7,-19,2,-3,10,-7
36,-16,3,20,0,3,-2,-24,15
36.005,17,12,11,10,-15,-4,5,-70
36.01,-7,5,-29,10,-11,-9,-41,2
36.015,-24,-71,42,-9,16,2,27,10
36.02,26,18,-25,-24,7,-2,-5,15
36.025,-42,-7,-8,32,-11,-10,-22,-12
36.03,-7,-6,-6,-39,19,28,5,-44
36.035,-2,7,-42,-13,12,15,9,-13
36.04,13,6,27,26,1,-17,-21,-2
36.045,-5,-5,-6,17,-20,7,8,22
36.05,36,0,-17,65,22,12,18,15
36.055,17,-1,14,-6,6,-5,-20,-6
36.06,10,15,12,67,-14,-11,-12,7
36.065,41,4,-47,-15,4,3,-9,23
36.07,-26,-16,13,-10,-14,-6,-3,22
36.075,-19,-13,21,35,0,1,4,66
36.08,-13,9,6,-8,9,6,-1,4
36.085,-2,-7,-33,-11,-17,15,21,36
36.09,-17,-13,-63,45,24,-2,2,-22
36.095,4,17,5,-33,-11,-9,15,2
36.1,-5,-9,-12,16,-1,6,-17,-23
36.105,12,-4,35,-17,24,5,8,-3
36.11,-17,-15,25,-47,-27,-16,-19,15
36.115,13,-15,54,14,-15,-1,13,15
36.12,-12,-10,-6,-20,0,8,13,-2
36.125,-15,3,-22,-5,6,17,1,-12
36.13,0,12,29,31,10,-2,1,9
36.135,-5,-21,5,-53,-9,-8,7,7
36.14,10,40,-41,5,-8,-19,-24,-26
36.145,-26,-20,-9,9,-19,-12,1,-30
36.15,-10,-3,6,34,1,10,-20,12
36.155,12,12,-65,9,5,6,-6,-4
36.16,10,-9,-2,-10,20,11,34,16
36.165,-18,-29,18,-13,6,-12,-2,-17
36.17,-45,-22,-29,-20,-13,-7,-9,-30
36.175,-44,-34,-41,-44,-3,6,-2,-64
36.18,36,14,18,28,7,-2,-6,12
36.185,-11,0,28,41,7,9,3,3
36.19,13,2,10,-40,2,1,13,13
36.195,3,1,-9,5,-19,-8,28,52
36.2,-28,-17,37,-11,3,-14,-44,-90
36.205,-33,-17,-27,39,-8,-1,0,-9
36.21,39,-5,-24,-106,-11,12,6,-11
36.215,11,58,-13,-55,6,6,56,21
36.22,13,-9,4,37,6,4,-75,15
36.225,-24,-8,-14,-1,-12,-11,13,14
36.23,-19,-6,21,12,-6,-9,-11,-3
36.235,91,28,-26,102,16,9,18,8
36.24,-113,-37,-17,-81,-12,0,36,7
36.245,5,-4,-25,-65,-19,-23,-27,-7
36.25,31,52,26,29,-1,8,49,20
36.255,-4,-23,8,7,-10,-2,-51,-41
36.26,38,0,5,-79,2,3,37,12
36.265,-20,-3,32,86,29,18,-39,-43
36.27,-13,-10,3,52,12,-2,1,12
36.275,-18,-51,-11,-93,-38,-9,36,26
36.28,14,11,26,117,-17,-9,6,-20
36.285,41,5,-5,-18,-4,1,9,46
36.29,-47,16,9,39,0,-10,-45,-96
36.295,-6,-10,61,31,35,11,13,26
36.3,-7,-21,-60,-66,-11,-3,-40,0
36.305,21,21,-22,34,14,-1,25,19
36.31,43,0,18,-79,-34,-7,16,20
36.315,-68,1,19,89,9,2,-45,-10
36.32,6,-7,-27,21,-1,-13,-32,0
36.325,-17,-19,0,-28,-7,8,17,-6
36.33,-6,-24,-32,-41,6,-1,-22,3
36.335,-6,5,3,13,-5,-2,7,3
36.34,21,10,17,-17,-7,8,43,33
36.345,-13,-1,-4,109,25,0,-28,-16
36.35,0,-11,7,-67,4,12,6,-9
36.355,-9,-71,3,-106,-18,-11,-17,-6
36.36,-5,5,-9,50,-2,-13,-35,-16
36.365,-7,18,8,-28,-19,-11,12,-8
36.37,4,-8,-8,127,10,-7,-3,4
36.375,13,30,-24,-69,-14,-2,-4,-3
36.38,-16,-22,-21,33,-3,5,25,-3
36.385,0,-8,-1,-39,-9,3,-19,7
36.39,14,-3,-15,42,26,7,15,15
36.395,22,23,80,90,13,0,-7,40
36.4,9,5,10,17,14,14,56,2
36.405,-26,1,-14,-10,-12,-3,-66,-21
36.41,-35,-6,1,-44,-14,-23,-2,0
36.415,28,-13,-28,107,6,3,1,4
36.42,-9,-1,20,-62,4,7,26,38
36.425,22,-3,-26,26,-1,2,38,1
36.43,15,-3,17,37,-13,-6,-31,-9
36.435,-3,8,-15,20,-16,-19,-25,-7
36.44,-21,-4,-31,-34,12,2,2,8
36.445,-35,-37,-31,-65,-7,2,17,-19
36.45,1,1,22,39,21,9,3,18
36.455,1,-3,-38,-73,-20,-8,-17,-7
36.46,6,-2,109,71,26,20,7,-9
36.465,-8,-6,-7,-19,-4,1,22,6
36.47,11,-1,-7,10,-14,-11,17,14
36.475,15,11,-7,25,7,-3,-23,7
36.48,-60,-32,4,60,-23,-13,-16,-42
36.485,13,-4,-13,-45,4,-18,4,7
36.49,10,5,17,16,4,13,10,1
36.495,-10,-1,4,1,28,26,46,21
36.5,27,13,-2,8,-6,-13,-45,1
36.505,9,21,78,57,16,-1,3,-1
36.51,-20,-24,-40,67,-41,-16,-13,-26
36.515,-6,0,8,-83,0,2,-3,-24
36.52,31,24,38,11,25,12,21,25
36.525,0,-8,43,19,-11,-3,-21,-3
36.53,10,-3,-22,-57,-1,-9,29,32
36.535,-21,10,19,56,12,12,-47,-68
36.54,15,14,-40,-27,1,5,-5,44
36.545,9,3,47,89,12,-3,3,11
36.55,-9,-47,-56,-95,-10,-5,7,76
36.555,-40,12,-17,57,-11,-13,14,-89
36.56,54,12,33,-8,-2,3,-9,7
36.565,-26,1,-26,-5,2,10,9,19
36.57,-7,-20,-9,-13,6,0,-1,-8
36.575,18,-39,74,-31,2,0,28,24
36.58,-6,0,-10,-30,-9,-7,-15,-11
36.585,10,14,-35,-29,9,6,7,-12
36.59,-2,12,37,105,-23,-7,0,-32
36.595,-6,23,21,77,27,14,-2,19
36.6,-11,13,-76,-59,-23,-10,-11,-4
36.605,-3,-37,1,-69,0,0,15,5
36.61,-11,17,12,56,14,-3,-30,-24
36.615,0,-8,-39,-51,-27,-18,-5,9
36.62,8,7,6,59,5,3,28,13
36.625,-6,21,-71,-70,-18,-5,-12,-53
36.63,17,21,48,58,35,21,14,9
36.635,-24,-38,-24,16,-38,-11,-7,-31
36.64,-8,-42,-22,77,-6,-16,-5,-46
36.645,4,10,24,-4,-14,6,8,47
36.65,-17,8,50,34,26,0,-30,-30
36.655,8,-2,-29,-100,-14,0,10,44
36.66,10,27,-4,64,23,7,-9,2
36.665,-10,-13,29,-3,-30,-18,-9,-85
36.67,2,7,-38,-32,-16,2,5,16
36.675,13,-2,18,39,28,2,-2,29
36.68,-17,7,13,-19,-20,-6,-19,-6
36.685,4,25,30,106,27,7,7,13
36.69,-12,-17,-55,-123,-21,-3,-3,-9
36.695,3,26,-4,-2,3,4,13,-9
36.7,9,-4,38,15,15,7,11,0
36.705,-17,-22,-36,-55,-25,-12,-27,1
36.71,15,11,45,33,7,0,3,-1
36.715,2,23,50,44,10,-4,-4,-21
36.72,-24,-17,-41,-113,-27,-15,-51,-2
36.725,10,-19,30,7,1,-10,2,10
36.73,-4,-5,0,40,8,6,6,-11
36.735,-4,-5,-41,-79,-11,8,3,16
36.74,1,9,14,82,14,-1,15,-11
36.745,-2,-19,-27,-15,-14,2,-6,0
36.75,14,48,44,30,7,4,7,21
36.755,-1,-16,1,21,11,-1,7,6
36.76,-8,-18,-9,-1,-17,-4,-4,-10
36.765,3,21,-7,6,13,2,-6,13
36.77,-8,-17,-15,10,-19,-17,-10,-18
36.775,16,16,23,-1,19,8,0,27
36.78,-2,-23,-45,-79,-41,-2,18,-8
36.785,-19,5,17,33,16,5,-17,1
36.79,17,-9,52,4,9,7,-6,8
36.795,-17,-10,-8,33,8,4,16,-13
36.8,-6,18,-26,-23,3,3,19,8
36.805,8,-3,-22,14,4,-2,-12,-1
36.81,-6,-15,-55,-35,-16,-8,-8,-6
36.815,-8,4,-13,-15,-16,-16,-15,-1
36.82,6,-2,5,-12,-2,11,20,-11
36.825,13,-1,28,44,11,10,17,35
36.83,-4,16,-28,-8,-10,-14,-32,-51
36.835,13,15,57,86,25,13,22,13
36.84,-12,-8,-51,-27,-17,-11,-36,5
36.845,-5,-44,45,29,-11,-11,6,-7
36.85,2,6,3,18,-2,4,3,3
36.855,1,-2,-8,-14,1,1,4,11
36.86,-15,-9,-14,27,14,4,9,2
36.865,-4,10,-41,-33,-14,-13,-20,-20
36.87,-3,-18,-24,-12,-9,-15,-6,4
36.875,6,12,11,17,-9,0,-4,-3
36.88,7,3,37,-12,28,27,16,27
36.885,-3,34,-42,-13,3,5,2,-15
36.89,-6,-20,-11,-14,-5,-6,3,5
36.895,-6,5,-29,-11,-21,-14,1,-18
36.9,2,-12,31,6,-1,-11,-35,1
36.905,7,12,72,74,25,18,1,-35
36.91,-5,6,-12,-93,-6,2,8,5
36.915,-6,12,-28,-22,-11,-14,3,18
36.92,6,2,-2,0,-22,-14,-21,-25
36.925,2,9,2,-11,-1,-12,0,13
36.93,3,11,-33,22,17,11,8,2
36.935,3,-18,5,1,2,7,1,-4
36.94,-22,-14,-27,-39,-1,-4,14,7
36.945,-6,19,6,-31,-16,-12,-6,8
36.95,-3,-27,-34,10,-10,-11,-21,-63
36.955,8,9,1,-1,-7,-4,2,12
36.96,11,20,54,27,19,16,8,8
36.965,5,19,-8,18,10,2,5,4
36.97,-7,-16,-21,-65,-18,-2,-4,19
36.975,-2,5,7,24,-1,2,-10,-21
36.98,3,-36,67,34,18,9,-2,4
36.985,-9,-39,-38,-22,-9,-2,7,10
36.99,2,2,48,-15,8,7,11,15
36.995,7,-3,-22,4,-1,-4,-19,0
37,12,-13,33,1,-6,-3,36,6
37.005,-10,-8,-25,-2,-11,0,-4,0
37.01,7,-11,24,8,1,-1,-18,-1
37.015,-14,5,-3,0,-5,-5,-8,20
37.02,8,16,-40,7,3,-1,6,4
37.025,7,13,49,9,4,4,-2,15
37.03,-12,-20,-7,1,-19,-8,8,-4
37.035,1,3,-8,-32,-3,-5,-4,3
37.04,2,40,9,42,25,5,29,51
37.045,-26,6,-12,-31,-18,-6,-6,-68
37.05,12,25,-3,-26,4,2,-1,22
37.055,-14,-14,59,14,10,4,-7,-14
37.06,20,40,-9,-25,-1,5,11,9
37.065,4,-27,-40,54,-14,-18,-27,-20
37.07,-6,-6,-22,1,2,2,-4,0
37.075,-6,-25,7,18,7,-3,-23,-13
37.08,-27,12,-46,-78,-3,-3,-4,-49
37.085,10,25,12,26,-18,-1,14,30
37.09,15,21,-23,18,3,1,14,19
37.095,-19,-43,-15,10,17,4,-16,-46
37.1,-15,-11,-16,1,-12,-17,-21,6
37.105,3,14,-2,-45,10,19,13,14
37.11,12,0,16,76,7,-6,3,14
37.115,1,-4,-23,-75,-23,-3,6,3
37.12,-8,-9,15,55,0,0,-1,0
37.125,1,-16,-18,-83,9,8,0,-19
37.13,2,8,39,19,0,2,0,17
37.135,7,27,-22,15,-7,-7,-2,9
37.14,-6,-34,-22,8,-5,-18,-13,-18
37.145,10,-8,16,-16,-5,5,31,18
37.15,6,30,38,16,20,1,-50,-19
37.155,-2,-15,-1,15,-6,3,13,19
37.16,-3,-11,-53,0,-6,-5,-17,-13
37.165,-4,0,-10,-18,5,18,25,45
37.17,-7,18,-17,17,-1,-5,-12,-85
37.175,-10,-13,-4,13,-1,-5,7,4
37.18,-12,-63,-23,-25,-15,-10,-42,-3
37.185,8,24,3,25,5,-2,4,8
37.19,13,1,7,-3,17,16,26,38
37.195,-14,7,-16,-29,-23,-5,-12,-51
37.2,10,19,28,-7,3,9,26,12
37.205,-13,-25,-39,-10,-7,-14,-40,-18
37.21,-5,-20,46,10,5,-6,17,5
37.215,11,-3,-3,-5,2,-2,-15,31
37.22,-11,17,14,-14,-9,-10,0,-14
37.225,8,2,-7,5,-4,6,-7,9
37.23,-28,-80,-13,-26,-16,-4,12,-3
37.235,5,38,14,0,19,9,17,18
37.24,4,-21,-9,49,-6,2,-3,-9
37.245,3,18,8,-6,4,-2,-11,-3
37.25,4,3,48,8,2,5,0,5
37.255,-4,-38,27,-15,-12,-4,-1,4
37.26,3,18,12,2,3,-2,6,-1
37.265,14,-37,-7,10,0,-7,2,17
37.27,-13,20,14,-8,-11,-3,21,-22
37.275,-11,-65,-35,-17,-12,-16,-70,-54
37.28,9,10,-9,5,7,4,4,17
37.285,-2,20,-11,-34,11,13,-1,6
37.29,10,17,-8,26,-9,-9,10,19
37.295,12,50,-3,-28,9,8,27,17
37.3,-2,-31,-9,7,-5,-8,-6,-2
37.305,-4,-9,31,58,9,4,11,-15
37.31,-3,4,-68,-104,-22,10,8,16
37.315,-1,22,15,47,10,-13,-38,-33
37.32,0,-20,21,9,-1,-6,-7,-3
37.325,0,20,-8,8,-5,-4,11,-1
37.33,10,43,9,17,11,16,10,75
37.335,-13,-29,6,18,2,3,5,-67
37.34,-7,21,-37,-17,-7,-6,-7,13
37.345,-21,-16,12,-1,-10,-16,-9,-13
37.35,8,-9,-18,3,3,8,28,46
37.355,1,39,1,-13,-1,-4,16,-39
37.36,-20,-44,-17,-16,-3,-5,-63,-56
37.365,7,9,25,17,9,-10,0,33
37.37,-27,-86,-67,-37,-21,-12,-14,-25
37.375,6,55,-3,12,-8,-2,58,47
37.38,18,7,20,-23,13,18,9,-16
37.385,-16,43,9,34,3,-8,-17,5
37.39,10,-14,6,-12,-7,-7,-14,-83
37.395,-19,-21,-17,9,-2,0,-9,32
37.4,-7,-7,-15,-9,6,3,27,16
37.405,25,32,35,13,7,18,15,14
37.41,1,15,50,30,15,-4,25,20
37.415,-17,-59,-41,-16,-21,-16,-61,-67
37.42,21,100,-37,10,-14,-4,9,24
37.425,-24,-67,-4,-21,-9,-6,1,-31
37.43,-16,-68,-29,12,0,-5,-16,-4
37.435,39,88,9,-1,6,11,44,53
37.44,1,-53,23,-4,9,5,-20,-2
37.445,31,12,3,19,-8,-5,-30,23
37.45,-22,23,3,9,1,2,-19,-14
37.455,-4,55,8,14,10,-1,16,26
37.46,3,-44,-9,-41,-11,2,22,17
37.465,-6,-4,14,30,0,0,10,-15
37.47,-1,33,-11,-52,-4,-8,-31,-41
37.475,24,-7,37,50,18,13,14,48
37.48,-40,-28,31,-34,-13,-11,19,2
37.485,3,-26,-15,8,1,2,-5,-40
37.49,16,73,8,19,6,4,-39,0
37.495,21,-58,19,-6,-5,4,23,12
37.5,-36,-24,-51,0,-7,-18,-18,-29
37.505,19,41,13,0,4,6,40,30
37.51,-22,32,-45,-34,0,3,-5,-6
37.515,-6,21,66,32,9,15,8,-6
37.52,29,36,35,27,2,1,-31,-27
37.525,-19,-88,-20,-37,-33,-31,10,18
37.53,0,13,7,-19,-11,-9,-40,-2
37.535,-10,-17,-15,14,6,3,15,34
37.54,12,15,17,-1,1,-1,20,8
37.545,-15,-27,-18,-26,2,5,15,-21
37.55,-7,30,57,44,-3,-7,-44,-28
37.555,-15,-16,-33,-23,-7,-11,0,13
37.56,-1,17,-26,-20,-12,0,3,5
37.565,16,81,9,-15,24,18,23,33
37.57,-6,-100,-14,67,4,9,32,-1
37.575,-24,-39,-27,-59,-5,-5,-25,-21
37.58,10,92,-41,13,0,-13,-2,-2
37.585,-7,-19,-33,0,-17,-3,-25,-15
37.59,-6,-72,-20,-43,-2,-7,32,15
37.595,-7,-1,-1,28,-1,-9,-49,-65
37.6,5,54,22,2,-9,6,29,16
37.605,-15,15,19,-6,22,2,-66,-17
37.61,9,27,-14,22,-16,-12,13,4
37.615,36,45,8,-15,-22,-12,21,-18
37.62,-5,36,50,43,36,24,11,30
37.625,-36,-103,-95,-73,-35,-13,-13,-48
37.63,12,83,28,39,24,11,35,1
37.635,13,-38,-39,-24,-17,-12,-40,18
37.64,-4,47,45,30,4,-12,4,-12
37.645,-1,-18,-19,12,5,1,18,3
37.65,6,91,5,-10,-13,-11,-36,29
37.655,-34,25,-12,-1,-9,0,35,-20
37.66,28,31,-2,-70,-9,0,-13,-10
37.665,-14,-18,-5,79,16,0,-17,-49
37.67,1,-90,10,-71,-18,5,23,-1
37.675,-13,4,40,39,18,15,-1,13
37.68,27,17,60,67,27,-1,8,26
37.685,10,-21,-7,-85,-41,-9,6,18
37.69,-9,46,0,-13,-4,-12,-13,-26
37.695,23,34,-3,-30,1,5,20,9
37.7,-32,-128,-66,0,-4,9,-44,62
37.705,14,79,35,53,55,27,19,-37
37.71,1,7,-10,26,-3,-23,-3,11
37.715,15,-17,-1,-53,-10,-3,15,26
37.72,13,59,27,21,-12,5,35,6
37.725,-17,32,-23,-13,-23,-19,-22,21
37.73,-8,-60,4,51,42,14,-12,-73
37.735,35,99,30,-43,-19,-4,-8,21
37.74,-6,12,-69,-8,-44,-14,-14,-25
37.745,-24,-15,-4,-13,12,17,24,18
37.75,-15,-56,6,-12,11,8,26,-4
37.755,9,8,9,53,12,-3,-14,-29
37.76,-6,30,2,-15,5,-22,-75,-38
37.765,17,97,-3,20,6,3,11,5
37.77,-34,-85,-25,-24,-34,-12,-6,2
37.775,5,-14,-7,30,18,15,20,18
37.78,12,46,16,-20,-16,-5,32,-5
37.785,-19,24,-37,-34,-35,-47,-32,-13
37.79,35,2,5,36,14,33,-3,27
37.795,-30,-74,-18,-35,12,27,5,-5
37.8,-5,-39,-4,40,59,14,40,-5
37.805,17,-53,82,-47,-15,-12,-24,31
37.81,-3,5,17,30,-21,-16,14,53
37.815,33,49,28,19,-3,-6,5,-100
37.82,-49,-61,-2,7,-8,-5,-53,-2
37.825,24,9,-8,27,-16,3,6,7
37.83,-8,-10,26,26,33,4,8,15
37.835,-78,-126,-100,-92,-40,-26,-27,-7
37.84,29,101,47,27,18,4,20,-15
37.845,-9,-21,-14,-44,-5,-7,-10,-39
37.85,60,98,-49,-7,6,13,5,21
37.855,-4,114,29,66,24,-5,22,59
37.86,-37,-73,34,23,5,17,-20,-37
37.865,-1,56,-36,-85,-44,-1,-2,40
37.87,-11,-46,-26,0,0,-11,14,-25
37.875,-22,44,46,21,24,4,-25,13
37.88,-41,-108,-44,-105,-79,-24,-21,-16
37.885,57,123,92,127,88,40,45,28
37.89,1,77,-40,-54,-15,18,12,-1
37.895,-33,-42,-29,55,-25,-35,-37,6
37.9,64,109,22,-48,47,17,27,55
37.905,-64,-128,-63,-39,-56,-19,-22,-85
37.91,29,122,96,-9,0,6,20,43
37.915,-10,-61,-27,1,-10,-23,-7,-29
37.92,14,-32,22,1,-22,1,-19,19
37.925,-12,-49,-31,-13,39,8,9,52
37.93,0,108,33,92,-9,9,-10,-32
37.935,-21,34,-55,-81,30,-9,-8,14
37.94,10,19,-52,-25,-64,-25,1,-13
37.945,-21,-35,53,46,21,13,-3,-16
37.95,19,55,66,10,33,27,2,5
37.955,33,-32,4,32,-16,-6,1,40
37.96,-28,-35,-91,-25,25,-1,8,-18
37.965,-24,89,-8,0,-24,-16,-18,-22
37.97,44,20,-26,52,-2,-21,-5,23
37.975,-30,-62,9,-65,18,8,-7,-31
37.98,13,-95,-12,96,26,33,34,76
37.985,23,13,-59,33,-15,-3,44,-80
37.99,-95,-127,23,-7,12,-53,-78,-52
37.995,56,2,18,38,-7,61,60,23
38,-6,44,-73,-18,30,-6,-13,-10
38.005,-31,-66,12,18,-11,-15,-13,17
38.01,-66,-124,-104,-128,-65,-17,-25,-73
38.015,3,62,-45,2,43,12,-2,2
38.02,-6,114,34,35,10,5,-7,-43
38.025,84,127,80,45,29,6,21,53
38.03,-5,63,81,83,-9,0,0,40
38.035,-14,44,-80,-48,-40,-15,-13,-26
38.04,6,35,49,61,-23,-19,-9,28
38.045,-120,-96,-63,-40,-16,-16,-27,-84
38.05,22,87,25,0,2,-2,6,7
38.055,29,-13,-57,-46,43,43,26,31
38.06,34,-43,60,61,-18,10,23,36
38.065,67,85,19,8,-7,-14,7,65
38.07,-128,-115,-87,0,-37,-12,-37,-100
38.075,74,-120,11,-9,56,47,35,78
38.08,-28,-5,-51,14,-5,-17,-27,-47
38.085,-3,74,89,118,15,29,33,32
38.09,60,80,3,-81,12,-9,10,53
38.095,27,-26,-18,86,-9,-25,-21,-36
38.1,-27,-6,-46,-92,-45,32,37,29
38.105,-35,27,18,44,42,-18,-38,-32
38.11,-89,-108,-1,73,2,0,11,-32
38.115,-19,16,-26,-30,-31,9,12,-30
38.12,89,98,-37,-16,-7,-24,-26,73
38.125,42,-117,21,-40,-25,11,41,-2
38.13,-45,-13,1,-48,21,-8,-28,-53
38.135,32,127,53,75,14,-25,-6,1
38.14,-99,-121,-82,-67,2,20,14,4
38.145,46,127,40,60,-16,-23,-30,-28
38.15,-37,-69,55,-52,-31,-28,-20,-34
38.155,-37,-128,-81,-56,-42,-32,-24,-23
38.16,54,5,26,76,15,44,18,23
38.165,-34,-83,50,-10,-25,-15,-22,-10
38.17,1,36,-14,25,43,10,8,22
38.175,1,76,-8,1,-68,-19,-19,44
38.18,57,117,72,3,23,7,31,-14
38.185,-87,-71,-124,-83,-36,-23,-43,-56
38.19,80,88,46,52,17,7,24,74
38.195,-20,-64,-20,-30,-36,15,49,25
38.2,30,7,47,84,42,-20,-74,-62
38.205,-71,-74,-85,-41,-39,-17,-23,-28
38.21,34,50,6,-39,-25,-27,-21,0
38.215,18,114,-31,73,36,34,12,-53
38.22,113,92,84,-68,-19,4,55,110
38.225,-99,-66,-3,37,-23,-33,-22,-70
38.23,-20,-24,35,51,13,26,-16,-16
38.235,11,-71,59,9,50,27,4,44
38.24,-64,27,-59,-101,-65,-23,-5,-54
38.245,62,55,26,3,-22,-3,25,33
38.25,7,-76,-38,45,-26,-32,-8,-6
38.255,-63,-99,71,-36,2,10,-12,-49
38.26,0,44,-27,20,26,15,-5,0
38.265,45,-16,-51,20,-22,-9,14,64
38.27,39,13,62,-19,3,35,33,37
38.275,-80,63,-99,57,50,-5,-41,-97
38.28,13,31,4,-39,33,0,14,21
38.285,25,63,36,-47,-37,9,24,59
38.29,-28,71,-72,106,24,-15,-21,-65
38.295,125,127,87,-31,-24,-17,18,118
38.3,-86,-37,-48,42,-22,11,-5,-120
38.305,-35,-1,31,60,97,36,18,-22
38.31,51,70,43,-86,5,-21,-17,-26
38.315,55,-104,6,92,20,5,-17,82
38.32,-54,-57,-63,-7,-25,-12,15,-11
38.325,83,127,54,27,29,43,19,25
38.33,-122,-115,-128,-9,-37,-30,3,-44
38.335,38,127,20,-25,-16,-11,6,10
38.34,-44,-28,19,-68,19,12,-28,-22
38.345,69,40,46,79,29,17,15,19
38.35,18,112,-71,-122,-10,-5,8,-1
38.355,-117,-57,-89,64,-70,-27,-24,-16
38.36,40,76,46,112,27,18,-3,-49
38.365,9,79,-25,-97,-14,-20,-20,28
38.37,104,86,5,17,12,20,8,12
38.375,-93,-109,-100,-25,-40,-33,-31,-54
38.38,15,-33,-44,-42,-1,-21,-24,51
38.385,-26,23,6,-64,-23,-1,0,-65
38.39,63,92,55,49,27,14,36,68
38.395,-4,-18,-10,-12,-15,5,-26,-49
38.4,7,-127,-24,37,28,4,14,66
38.405,-8,-50,81,-19,-1,-18,-16,-8
38.41,-99,-34,20,-7,-29,13,-12,-100
38.415,56,127,37,31,61,17,4,-21
38.42,75,124,37,40,-34,-19,22,89
38.425,44,100,-31,6,35,-5,-30,-38
38.43,-34,-76,-25,-29,13,29,25,1
38.435,9,67,79,35,24,8,24,51
38.44,41,22,-30,89,7,-16,-5,27
38.445,-88,-80,-69,-74,-61,-28,-30,-41
38.45,-24,81,33,49,26,-10,-16,-49
38.455,67,127,40,58,-1,11,8,7
38.46,-20,12,38,-47,25,-18,-12,17
38.465,-42,-84,50,72,-31,-3,-10,-6
38.47,82,84,127,71,58,6,18,74
38.475,-73,-118,-39,-98,9,15,-11,-60
38.48,28,37,25,-35,-61,7,16,-22
38.485,24,52,-33,31,4,-11,14,56
38.49,49,36,60,24,-9,2,13,60
38.495,9,8,-37,24,-28,-10,-22,17
38.5,-34,-24,24,-14,7,-4,17,-24
38.505,45,22,5,47,25,30,6,44
38.51,-61,38,-50,-39,-30,-9,-37,-32
38.515,16,-21,28,-18,16,-11,9,39
38.52,-14,-68,34,83,48,2,2,-36
38.525,-72,-52,-113,-73,-86,-36,-37,-26
38.53,22,68,68,55,1,13,2,8
38.535,14,-48,-15,23,-19,-8,14,7
38.54,-38,-33,30,-33,-11,-14,-25,-19
38.545,38,106,20,9,29,13,39,25
38.55,29,-23,23,52,-4,-14,-12,16
38.555,-37,96,-4,-92,-12,3,9,-44
38.56,64,109,-72,-74,-19,30,22,75
38.565,-83,-46,-10,2,81,14,-21,-49
38.57,-31,-64,-68,-40,-34,-5,-11,-55
38.575,120,127,85,116,31,-16,1,127
38.58,-59,74,-3,-67,-40,-13,-29,-75
38.585,3,11,-13,7,4,7,2,23
38.59,-14,19,-2,-65,3,-4,7,39
38.595,24,-46,68,45,26,13,24,30
38.6,-83,-49,-70,32,-10,-8,-25,-79
38.605,71,120,4,25,34,33,41,44
38.61,-64,-104,-21,-38,-22,-18,9,-32
38.615,-1,-75,49,-26,-17,-1,-31,6
38.62,8,23,48,48,31,-3,1,54
38.625,-10,20,-39,-22,-27,-3,2,-56
38.63,54,0,28,34,-10,21,27,80
38.635,-29,-14,-52,-26,15,19,10,-52
38.64,28,21,45,70,14,-11,15,-5
38.645,53,7,13,-48,-2,-4,17,71
38.65,-24,-35,-64,74,-6,0,2,53
38.655,-51,127,13,35,15,2,-40,-98
38.66,-4,-101,-37,-67,-48,5,15,35
38.665,14,54,50,4,-12,-34,-8,-19
38.67,-24,-45,-46,-25,43,14,-41,-42
38.675,-40,40,-29,-16,-35,8,10,-36
38.68,8,12,-21,-33,26,13,5,-24
38.685,32,-52,35,28,-8,-11,31,46
38.69,-5,79,6,-38,-7,-7,-11,-46
38.695,-2,-100,-67,13,-14,-32,-24,36
38.7,25,60,-36,-10,-9,13,10,0
38.705,-36,7,-25,64,14,5,10,5
38.71,46,127,-15,-109,-23,-6,8,-60
38.715,-62,-68,-42,42,1,-29,-67,-27
38.72,27,36,27,-10,21,16,27,56
38.725,-17,4,-1,27,-40,-17,-13,11
38.73,36,39,28,27,33,11,8,81
38.735,-6,-42,23,-29,-8,16,10,-20
38.74,10,4,-23,4,-9,-19,-18,-16
38.745,9,70,-43,51,15,-10,-6,12
38.75,-40,-36,-1,-11,-26,19,6,-41
38.755,12,-17,-66,-114,-52,-28,22,19
38.76,-26,-7,26,24,16,6,-25,-51
38.765,32,109,4,77,-15,-12,-9,-23
38.77,-5,68,4,-41,2,18,7,51
38.775,-10,-48,-73,-6,-9,-11,10,7
38.78,-25,89,39,72,27,3,43,-57
38.785,-15,64,-34,-125,-17,-6,-104,-102
38.79,36,13,45,49,17,-1,26,37
38.795,9,74,14,-2,19,-8,-30,50
38.8,-21,-86,-19,-19,-52,6,49,-67
38.805,0,-78,23,32,41,-2,-57,53
38.81,-12,-58,-31,6,-2,-14,21,-26
38.815,21,28,17,1,-36,1,4,14
38.82,51,-8,5,23,47,23,7,103
38.825,-53,-28,-8,-27,21,25,16,-56
38.83,-22,-77,-2,-27,-14,-8,5,-25
38.835,23,42,14,-18,-11,-24,22,84
38.84,-9,5,-8,-12,-29,-15,-56,-77
38.845,23,-35,13,6,19,15,-12,10
38.85,11,42,49,90,20,9,3,10
38.855,43,55,73,-57,-1,16,54,44
38.86,56,-24,-68,-15,1,-12,0,61
38.865,-76,-22,-11,-1,-29,-6,-4,-47
38.87,-4,-39,2,16,-3,-20,0,1
38.875,5,78,51,61,27,21,-20,8
38.88,4,-25,-14,-27,8,-2,-23,30
38.885,10,-42,48,88,-7,-11,44,11
38.89,20,24,-81,-82,-64,-12,14,28
38.895,14,53,20,77,41,27,56,-9
38.9,-75,-49,36,26,14,-21,-64,-67
38.905,20,14,2,33,14,24,34,11
38.91,-15,-27,-33,-45,-20,-27,-18,17
38.915,-2,-31,25,-30,1,-4,-8,-30
38.92,-9,13,-33,-68,-29,4,28,20
38.925,-5,-48,67,34,43,15,28,43
38.93,8,26,76,118,29,10,-5,26
38.935,-12,-11,-56,-103,-40,-21,-46,-92
38.94,2,4,25,34,9,-3,21,84
38.945,70,43,50,-28,-15,13,31,54
38.95,-62,12,-34,-31,3,-22,-55,-56
38.955,-5,-52,7,55,4,-6,17,-54
38.96,0,34,14,-4,1,1,2,-16
38.965,31,-30,-28,-45,-17,-8,-26,7
38.97,21,3,-26,-32,-5,4,1,2
38.975,-5,3,-6,24,10,0,6,38
38.98,-23,0,8,-17,-2,13,5,-59
38.985,-12,-4,-15,-29,-23,-18,8,44
38.99,0,-11,-2,25,5,0,-15,-71
38.995,-32,-19,-28,-1,-39,-13,-43,30
39,8,-2,21,20,66,21,35,42
39.005,-17,17,-51,-8,-40,-20,-6,-21
39.01,-1,-16,7,-17,9,10,-7,10
39.015,8,2,23,13,26,18,40,3
39.02,-3,19,-18,-7,-34,-11,-35,-17
39.025,-2,4,21,-1,10,-10,-3,6
39.03,-15,-13,6,0,3,9,1,-5
39.035,26,96,-13,32,22,17,34,13
39.04,6,12,-23,-35,-30,-26,-58,23
39.045,-32,-8,-9,-5,15,-6,10,-53
39.05,77,10,15,-8,-33,-22,-5,41
39.055,-66,-19,-9,-3,7,0,-47,-58
39.06,-8,-18,5,9,13,3,9,12
39.065,3,31,-34,16,-16,-8,3,20
39.07,-4,-14,28,-21,4,6,-13,4
39.075,2,-14,2,-8,-5,-5,-2,-7
39.08,-13,-8,-28,12,1,7,6,-4
39.085,3,7,3,0,-7,-9,-10,-2
39.09,-16,-25,-10,-3,13,-1,-4,-15
39.095,18,-4,4,10,-11,-6,19,27
39.1,16,-1,88,23,-9,4,17,15
39.105,4,-4,-11,-2,11,1,21,64
39.11,-28,3,-13,-5,-18,-11,-68,-51
39.115,-10,-28,5,8,13,12,16,40
39.12,-24,1,3,5,2,0,20,-66
39.125,0,-13,-9,-8,-6,-10,0,-10
39.13,16,4,7,16,1,2,-8,30
39.135,0,-20,-38,1,1,-1,-7,-8
39.14,-20,-7,-8,18,16,-2,33,-12
39.145,-4,-3,-9,-20,-16,-1,-36,-38
39.15,7,5,-4,26,5,2,48,45
39.155,11,3,11,5,-3,-9,-9,-2
39.16,47,-18,78,-6,20,24,28,90
39.165,-62,-5,20,14,9,-3,-50,-101
39.17,1,-4,-2,-16,-18,-15,5,23
39.175,-3,9,-33,15,6,9,18,-7
39.18,0,-8,-45,-15,-29,-5,-2,25
39.185,23,11,1,2,22,18,17,0
39.19,-1,16,68,-2,5,-6,-1,1
39.195,6,5,-7,10,-22,-24,-16,13
39.2,-13,-2,-32,-12,-7,5,3,-55
39.205,0,-4,-18,-15,-2,-1,-7,-2
39.21,-32,-5,-28,-5,0,-1,-44,-28
39.215,6,2,15,-18,-2,-4,42,19
39.22,-8,4,-5,47,-10,-15,-35,-32
39.225,-46,3,-8,-1,2,-7,-12,-22
39.23,-1,-12,-9,-51,-7,-19,-30,-3
39.235,-1,-1,-26,-5,5,25,7,4
39.24,7,4,17,19,7,1,8,-4
39.245,23,2,3,-29,-13,-4,15,6
39.25,-9,-21,-45,7,-5,-14,-42,-23
39.255,-36,3,-48,-17,-18,-7,-25,-20
39.26,13,4,-11,-6,4,0,7,14
39.265,4,-6,-13,25,8,5,15,5
39.27,3,2,-28,-63,2,10,41,5
39.275,4,-4,13,-6,17,2,-24,11
39.28,-14,-19,-24,23,2,1,-15,2
39.285,12,-6,-5,-8,0,-9,13,3
39.29,-2,-31,6,-1,-12,-10,-1,7
39.295,-15,-5,-10,-8,-13,7,-10,-45
39.3,-6,13,7,15,14,-4,12,10
39.305,25,1,51,15,2,11,23,12
39.31,-48,11,-3,9,9,1,2,-22
39.315,0,-30,-30,-21,5,-2,-12,-17
39.32,-5,43,-88,-10,-3,2,8,0
39.325,0,-2,17,22,-3,-3,2,0
39.33,-1,23,-14,-21,-18,-21,-15,-10
39.335,3,2,-6,37,14,13,9,-14
39.34,6,2,42,-47,-12,1,6,41
39.345,-2,-13,9,-6,-8,-1,4,2
39.35,1,-14,8,57,10,2,-4,14
39.355,5,-11,-42,-69,-25,-5,-5,6
39.36,-3,10,-18,26,18,-7,1,-18
39.365,-15,-9,-11,12,8,6,17,4
39.37,-8,-16,-26,-46,-2,-2,-36,-27
39.375,11,-9,-30,42,1,-9,0,21
39.38,-6,2,-48,-63,-26,0,2,-24
39.385,-8,-2,19,38,-7,-17,5,2
39.39,3,-13,-20,-16,1,8,0,-17
39.395,1,12,22,-5,26,5,-8,-8
39.4,17,26,69,7,3,13,27,31
39.405,27,-5,9,24,6,-2,3,26
39.41,-46,-19,6,-43,-25,-17,-17,-93
39.415,3,9,-9,-3,1,2,-18,-3
39.42,-2,-45,59,51,19,15,6,13
39.425,23,10,-3,-11,-15,-8,4,-17
39.43,10,-3,-34,-18,9,7,18,32
39.435,-16,-3,-25,-22,-2,-7,-30,2
39.44,1,-29,-14,-40,8,12,29,14
39.445,4,11,51,71,11,9,20,-1
39.45,15,19,17,9,5,7,-3,26
39.455,-8,9,4,25,-17,-6,-3,-5
39.46,24,29,47,93,20,3,2,12
39.465,-5,-15,-27,-26,-8,-5,12,-6
39.47,-35,-8,-62,-69,-36,-22,-84,-18
39.475,11,-11,58,38,-8,-13,2,0
39.48,2,1,-48,-19,-3,9,-3,4
39.485,3,-1,10,9,20,24,45,41
39.49,-2,8,12,19,5,-4,-6,-83
39.495,-19,-7,-60,-54,-11,-3,-17,-44
39.5,10,-5,39,-10,-7,-16,-9,30
39.505,-16,-32,-26,-14,-17,-4,4,-1
39.51,-2,36,-48,-9,-3,-3,25,10
39.515,-6,14,-12,-31,10,3,-24,5
39.52,35,-11,53,127,2,-5,26,0
39.525,-56,-13,-20,-74,-19,-7,-23,-33
39.53,6,-2,-5,13,6,3,-10,-46
39.535,-10,-9,-24,-4,-2,8,16,61
39.54,0,-4,-1,24,7,-2,2,33
39.545,8,15,-26,28,-21,-18,-6,3
39.55,6,-5,2,-18,17,19,-21,5
39.555,-1,6,6,34,17,3,18,2
39.56,2,-14,69,-52,-5,0,-11,-6
39.565,17,10,21,-23,-12,-3,2,22
39.57,2,8,27,25,-6,-8,24,29
39.575,5,4,22,-26,-4,3,19,-14
39.58,-11,-12,-14,-3,2,6,-30,-7
39.585,11,-7,40,0,2,-3,-1,19
39.59,-8,-16,-14,14,18,14,38,24
39.595,-28,3,-62,5,-7,-10,-21,-87
39.6,3,24,-18,-21,-15,-22,-25,-10
39.605,3,2,-25,-61,8,14,33,-17
39.61,-4,-11,-20,95,-12,-6,-6,17
39.615,-4,-17,67,-10,10,12,48,62
39.62,-11,-3,-31,87,14,3,8,-64
39.625,6,-13,-25,-24,-19,-8,-26,-5
39.63,4,9,30,24,17,1,-27,54
39.635,-10,2,-4,-8,-27,-30,-25,-30
39.64,-6,0,2,13,15,13,-23,0
39.645,11,8,24,40,22,10,-4,14
39.65,-15,-23,-64,-111,-56,-28,-12,-8
39.655,14,13,22,20,9,2,16,24
39.66,26,10,-4,65,18,24,11,28
39.665,-51,-1,-9,-39,-12,1,28,17
39.67,5,-1,27,42,14,-6,-24,-16
39.675,3,-12,-9,54,-12,-13,-43,-29
39.68,-6,-35,38,-35,-18,-14,22,-6
39.685,23,3,19,47,4,10,35,-11
39.69,-10,7,44,-1,4,-9,-60,23
39.695,18,22,10,-5,3,8,21,49
39.7,-11,10,-10,-99,13,7,3,-20
39.705,27,6,51,114,-14,-12,3,13
39.71,-9,-24,-10,-77,2,7,35,-63
39.715,1,9,1,68,8,4,-16,-19
39.72,-6,4,-18,-12,-8,-7,5,23
39.725,-7,0,-23,18,-1,-17,-29,-10
39.73,11,0,-26,9,-4,14,29,-12
39.735,-6,-9,-3,-32,19,3,-20,-3
39.74,-15,-32,31,25,10,15,19,-15
39.745,2,-3,30,-27,-13,-20,-17,-25
39.75,0,-3,-6,18,-14,-6,25,20
39.755,-2,-10,-43,-60,3,8,15,7
39.76,7,32,35,100,23,6,-13,-5
39.765,-7,-32,-31,71,-18,-10,-37,-9
39.77,4,17,-26,-47,-7,8,50,-11
39.775,-7,11,19,-26,-7,-12,-35,28
39.78,8,23,-32,-17,-5,-7,6,-26
39.785,0,13,15,-17,20,13,-5,3
39.79,5,8,5,-13,-5,-6,12,31
39.795,-24,-47,-44,-22,-3,7,26,-30
39.8,-18,-11,-26,-10,-6,-6,-48,-24
39.805,-3,-33,-37,4,13,4,2,10
39.81,-20,-67,19,78,-4,-8,-4,-26
39.815,15,10,38,4,-1,-6,21,27
39.82,15,-15,18,-35,-17,2,-8,30
39.825,-21,8,8,2,26,19,1,-12
39.83,7,-6,-30,0,12,-5,17,10
39.835,5,1,33,22,-1,1,10,-40
39.84,-10,14,-14,33,-25,-26,-24,-7
39.845,10,3,1,-59,1,-7,-44,-16
39.85,6,-8,62,22,0,14,4,35
39.855,-2,4,-51,-81,-9,-5,30,6
39.86,13,2,16,18,12,10,33,24
39.865,-25,-11,-21,-8,-9,-10,-71,16
39.87,6,43,22,-8,12,-2,5,14
39.875,14,10,-8,27,-25,-9,-28,-6
39.88,4,18,-2,-1,16,13,46,35
39.885,11,12,11,35,-3,-13,21,-29
39.89,-23,-30,-35,-96,-15,1,18,-17
39.895,-11,-1,-2,3,-7,-4,-53,-13
39.9,2,9,-4,41,0,-9,17,-8
39.905,7,13,-13,8,12,17,21,-3
39.91,12,34,24,81,1,0,-10,-8
39.915,9,-9,5,-56,10,13,46,31
39.92,-12,-10,-7,-41,-27,-19,-11,-28
39.925,0,0,30,33,0,-9,-60,66
39.93,6,3,14,29,5,2,-7,2
39.935,-13,15,-16,-14,-3,13,40,-10
39.94,-5,7,-4,25,-10,-24,-91,-21
39.945,14,5,-34,-112,-20,1,55,29
39.95,-1,8,-11,20,6,-6,-14,2
39.955,2,12,31,69,0,0,-8,-6
39.96,0,-6,-14,-74,0,2,19,25
39.965,-12,2,28,51,7,4,23,-66
39.97,-14,-44,57,-59,-15,-19,-42,-22
39.975,2,-1,2,-57,7,9,7,1
39.98,-7,-4,-15,34,-5,3,-3,11
39.985,9,14,0,28,-7,-18,-7,-7
39.99,7,25,18,50,30,22,32,11
39.995,-14,-42,27,12,-11,-14,-29,-13
40,6,7,27,-10,-4,0,11,9
40.005,0,-1,42,-54,2,15,22,-20
40.01,2,6,-7,65,15,8,59,3
40.015,-11,24,-25,28,-3,-19,-100,-56
40.02,-1,41,-54,-71,-22,-9,8,53
40.025,1,22,-22,-2,-8,-13,-9,6
40.03,5,16,-16,-36,-6,3,16,5
40.035,-3,-14,15,42,2,2,53,17
40.04,-14,-10,-27,30,5,-4,-38,-38
40.045,-3,-9,11,82,12,12,15,-4
40.05,3,-5,-24,-98,-9,-7,-13,-2
40.055,3,-2,-42,-15,-11,-4,3,15
40.06,-3,-12,33,-3,4,-3,-30,-5
40.065,10,1,38,4,6,12,14,15
40.07,-7,-31,47,38,0,7,-13,-11
40.075,8,2,-32,-15,0,-2,16,4
40.08,-11,-9,26,-2,-9,-9,-14,-29
40.085,-5,-17,-29,-8,0,3,-4,-3
40.09,-7,-31,-33,-31,-8,-9,-17,8
40.095,-3,3,32,44,7,5,11,-87
40.1,3,10,22,26,3,1,5,24
40.105,-1,34,-72,-51,-13,-10,-6,-2
40.11,-1,20,3,16,-6,0,-14,-1
40.115,7,10,15,25,27,12,7,30
40.12,-2,-11,-16,-12,-3,2,17,-9
40.125,-6,-10,-10,-72,-15,-13,-22,-20
40.13,6,10,0,5,-12,-15,3,8
40.135,4,4,64,6,4,13,0,24
40.14,-2,13,-37,-24,-5,2,-6,-27
40.145,2,-23,-2,3,7,1,3,40
40.15,-12,1,-5,16,2,-2,1,-55
40.155,-12,-15,-33,-48,-8,0,-42,-1
40.16,5,13,-4,8,8,8,39,26
40.165,2,-4,27,43,12,3,-1,-8
40.17,-1,-1,-27,-9,-14,-5,-22,-2
40.175,-1,2,7,-3,1,-4,6,5
40.18,-1,0,10,5,2,-2,11,4
40.185,-1,-5,-12,-23,-18,-9,-7,-11
40.19,5,29,-13,5,7,11,14,13
40.195,-5,-5,-22,42,30,22,6,18
40.2,-2,-22,-28,-77,-29,-17,5,-4
40.205,-3,-10,1,19,0,-3,-16,-9
40.21,11,27,20,21,11,2,-1,12
40.215,0,-2,-2,-4,-15,-9,-2,11
40.22,-5,-16,-7,-1,-3,-9,3,-13
40.225,-1,-50,105,11,3,11,14,6
40.23,-4,-18,-19,8,4,3,17,11
40.235,0,11,-10,0,3,3,-37,-22
40.24,2,-7,7,8,13,4,26,4
40.245,-4,10,-16,2,-15,-13,-18,14
40.25,-7,-13,-8,-18,-11,-7,-40,-23
40.255,1,-22,1,-8,-1,-10,13,46
40.26,-3,-7,22,37,-5,0,6,-13
40.265,3,-3,-30,-35,13,8,19,15
40.27,-1,0,12,30,9,9,17,20
40.275,-3,12,-3,-29,-14,-10,1,-7
40.28,4,-2,-22,2,7,4,-16,2
40.285,1,15,30,28,-3,0,5,-4
40.29,-4,-5,-16,-3,12,-1,-9,-10
40.295,-8,-34,-10,-21,-5,-10,4,-5
40.3,1,-2,-11,-6,-5,3,-11,2
40.305,-6,5,-10,-3,-4,-5,0,-19
40.31,2,7,-34,-15,-15,-10,-3,-9
40.315,2,18,38,13,-1,-12,-4,2
40.32,0,12,11,-6,19,14,12,-4
40.325,-10,-13,-48,-3,-2,3,-8,-10
40.33,-2,13,6,12,-11,-5,-12,1
40.335,13,64,-30,-5,-5,6,10,-4
40.34,-3,13,-34,-12,-4,-16,0,1
40.345,0,37,-46,-13,-1,-1,0,-8
40.35,-5,-38,10,7,4,-1,-20,-3
40.355,0,7,-17,2,-8,-10,-12,-8
40.36,10,20,38,31,0,6,16,3
40.365,-4,-12,0,-48,-4,1,-6,-8
40.37,0,10,-15,-6,1,-1,-1,4
40.375,6,2,23,-8,-8,-4,13,14
40.38,1,-19,5,22,-11,-7,-5,27
40.385,-2,-8,1,13,10,-11,13,3
40.39,0,2,2,-13,17,22,6,6
40.395,-3,-15,6,0,1,-3,-9,-6
40.4,0,-5,9,-16,-16,-12,18,26
40.405,-10,3,9,23,-7,4,0,-17
40.41,-1,-18,-10,-15,6,-10,-14,-15
40.415,-6,-20,73,16,0,-2,-6,13
40.42,-6,-24,-19,-44,-5,-6,4,-8
40.425,8,25,2,-9,0,-6,-8,-1
40.43,-1,-31,-1,64,2,17,3,-7
40.435,-6,-11,-31,-19,17,11,9,-2
40.44,1,-15,36,0,-5,0,-10,-14
40.445,-6,9,-28,-1,-3,-8,-13,-9
40.45,-3,20,1,-11,-12,-8,5,11
40.455,-2,-7,-35,-1,-2,0,5,-2
40.46,-9,2,26,-6,3,7,-13,-18
40.465,4,-4,-9,4,-2,0,8,19
40.47,-6,0,46,-4,-2,-7,-5,-13
40.475,-3,-13,-28,3,-16,-5,8,7
40.48,9,22,-21,-9,4,-2,-44,-17
40.485,0,-9,14,18,6,5,12,-5
40.49,9,12,-6,-18,-7,-6,-8,-2
40.495,-16,-22,12,-7,-7,-5,-5,-12
40.5,-14,-42,-38,0,-3,0,17,51
40.505,2,22,11,9,9,8,9,-84
40.51,-5,3,-27,-10,-11,-10,-16,-2
40.515,4,11,-15,5,1,-2,-23,-1
40.52,7,1,-12,-21,-3,1,19,34
40.525,-3,-18,13,16,0,-4,-26,4
40.53,-4,-20,15,-5,5,0,35,9
40.535,-1,21,-8,-4,-4,-4,-1,-21
40.54,1,0,9,7,0,4,0,-1
40.545,2,-5,-4,-4,1,8,15,15
40.55,6,17,5,-11,5,0,-10,-7
40.555,2,5,1,23,-1,0,-2,22
40.56,-3,-14,4,0,6,-1,-1,-21
40.565,0,5,-5,-26,-15,-7,-9,6
40.57,-11,-19,-9,1,-6,-6,1,1
40.575,-1,2,-4,-8,13,7,-1,-4
40.58,6,7,10,12,3,0,-3,-21
40.585,-2,-10,-6,8,-4,-10,-10,6
40.59,2,-27,0,-11,-2,4,-11,0
40.595,-4,-1,-18,-11,-8,1,17,1
40.6,-4,38,-21,7,3,5,-2,-17
40.605,1,-12,4,2,0,-2,-3,15
40.61,-11,-34,-33,-7,-8,-10,3,33
40.615,-11,-1,11,-31,-2,-4,-19,-64
40.62,0,14,-8,30,-3,0,-6,-11
40.625,11,9,7,-9,-2,-4,0,18
40.63,-8,-10,0,-22,-8,-4,2,-5
40.635,3,-13,-30,-6,-4,-2,0,7
40.64,-3,7,7,-1,5,-2,1,4
40.645,-3,-3,1,3,-1,-1,14,-9
40.65,-2,-8,4,-4,8,6,-28,-5
40.655,1,-6,6,3,1,-6,-14,-38
40.66,-5,3,7,-15,-8,2,9,0
40.665,-3,1,-17,7,-3,5,13,18
40.67,3,22,0,13,4,6,28,1
40.675,7,20,15,14,14,4,-13,15
40.68,-16,-44,-50,-20,-11,-9,-14,-11
40.685,-6,67,1,-2,-4,-11,-15,-9
40.69,5,50,8,-2,-12,1,5,0
40.695,0,-11,13,2,5,5,11,16
40.7,1,3,17,8,5,-4,-5,-21
40.705,11,-9,8,-6,0,7,0,21
40.71,8,12,22,12,-2,-6,-6,-8
40.715,-5,-7,-53,0,-6,0,8,15
40.72,2,-14,-16,-16,-3,-2,0,42
40.725,-12,-29,8,-3,-1,-10,-15,-6
40.73,8,24,13,25,11,8,9,-6
40.735,-14,-15,4,9,-1,-2,-2,-12
40.74,25,45,32,-24,-2,4,-1,25
40.745,-3,-14,2,11,7,3,9,4
40.75,-12,-33,-33,-25,-15,-9,-9,-6
40.755,-1,-22,13,8,0,3,7,10
40.76,3,46,-22,12,14,5,4,2
40.765,2,-21,-9,-10,2,-1,7,-46
40.77,7,16,11,20,11,2,-30,-8
40.775,-10,-57,-6,-6,-17,-4,6,12
40.78,0,-14,4,-3,-1,-2,-1,-16
40.785,1,18,3,-15,-7,-4,0,13
40.79,4,21,5,2,-9,-9,7,14
40.795,1,33,-42,-13,-7,-10,-6,-6
40.8,2,-5,13,10,12,15,8,-1
40.805,4,-35,15,14,19,12,8,51
40.81,-11,-25,-12,-11,2,-9,-14,-11
40.815,-12,22,-28,-43,-25,-11,-17,12
40.82,1,-15,16,9,-10,-7,-6,-20
40.825,-7,-13,-23,1,6,3,1,8
40.83,-1,7,-2,-16,-13,3,12,0
40.835,0,11,40,3,9,-2,0,-2
40.84,-2,58,16,1,-13,-11,-1,9
40.845,-6,-91,-3,16,-4,1,2,-18
40.85,6,14,26,-14,15,2,-5,8
40.855,12,-57,69,13,8,10,15,13
40.86,-21,38,-15,2,-2,-1,-9,-33
40.865,8,-36,-8,-30,-3,-3,-15,5
40.87,-4,9,33,23,-1,6,22,-10
40.875,22,86,0,-17,-11,-6,-4,-5
40.88,16,-1,12,15,6,-5,-2,20
40.885,-5,88,1,6,1,-6,0,-14
40.89,-8,-7,-2,-8,-6,3,-9,7
40.895,-9,-56,-35,21,14,6,-17,4
40.9,-4,25,-6,-13,13,5,-1,-65
40.905,7,111,-11,-5,-16,-10,-3,1
40.91,-30,-34,-4,5,-10,-14,-9,-23
40.915,9,16,21,-13,-3,10,16,20
40.92,-3,-21,14,4,-7,0,6,10
40.925,28,38,15,12,2,-10,-10,2
40.93,0,-54,7,-13,-5,4,6,2
40.935,-9,48,14,26,20,13,12,-1
40.94,-6,-42,-5,-15,-15,-8,0,2
40.945,-23,-21,-11,-6,12,1,3,-8
40.95,15,10,-46,12,-3,-18,-22,0
40.955,-29,-26,4,1,-14,-6,0,-4
40.96,28,5,0,-33,-15,-12,-11,-2
40.965,8,-13,-1,18,-19,1,4,-3
40.97,-17,37,6,0,26,14,13,3
40.975,4,-57,-54,-16,3,-1,-9,-6
40.98,-29,-35,-41,-19,-13,-1,-9,-6
40.985,-2,27,7,-4,0,-2,-1,-2
40.99,19,37,16,17,-21,-5,4,1
40.995,13,26,17,-4,9,-1,0,-1
41,-1,-63,7,19,18,8,6,8
41.005,-8,22,-16,-27,-12,-3,-13,-10
41.01,4,-42,-17,16,2,-2,9,11
41.015,-5,1,2,-6,-14,-3,-3,-7
41.02,-23,-78,-17,2,3,-1,-4,-6
41.025,11,26,20,10,12,2,-2,7
41.03,-7,47,-5,-15,-13,-11,-7,-14
41.035,-4,-80,-11,3,-11,-7,0,-3
41.04,4,37,-9,18,15,14,7,8
41.045,4,24,38,-6,-7,-11,-7,5
41.05,-5,-43,-5,-18,-20,-1,0,-4
41.055,0,32,26,13,18,2,4,-4
41.06,19,71,5,19,14,5,6,10
41.065,-23,-123,-17,-1,7,6,-8,-18
41.07,-7,55,-2,-9,6,1,4,6
41.075,8,-60,-12,2,-14,-9,-2,6
41.08,0,31,-39,-10,-10,-3,-7,-5
41.085,-1,25,9,2,5,-2,-7,-2
41.09,6,17,-19,-33,-28,-8,-3,1
41.095,-27,6,-31,13,21,9,-1,-6
41.1,-7,-62,4,-29,-9,-4,-7,-6
41.105,10,34,11,27,2,12,10,7
41.11,11,-18,18,2,31,11,6,-2
41.115,-4,9,8,9,-8,-4,2,0
41.12,11,11,26,-10,1,-9,-5,3
41.125,-18,-56,-63,-30,-42,-17,-8,-13
41.13,-7,-17,25,19,17,-5,2,11
41.135,22,77,4,3,-1,2,-2,-1
41.14,-9,-70,38,3,-3,-6,-6,-13
41.145,-6,-27,-61,-15,-19,-12,-5,1
41.15,1,18,-23,1,2,4,0,-3
41.155,-10,-84,5,1,-9,-2,4,7
41.16,12,92,-2,7,4,-8,0,1
41.165,-24,-61,-29,-5,28,23,-6,-13
41.17,8,-44,61,-11,-13,-8,3,2
41.175,38,127,50,17,-17,-8,7,16
41.18,-19,-1,-85,-29,-10,1,-4,-12
41.185,7,51,70,11,8,-16,-18,-19
41.19,-50,-71,-27,33,8,2,4,1
41.195,32,113,-24,-40,-16,2,-1,-9
41.2,-37,77,46,33,16,7,3,-12
41.205,-11,-109,-29,-30,20,2,-1,4
41.21,41,60,67,18,-20,7,2,14
41.215,-8,-64,10,-8,3,-3,3,7
41.22,-24,19,-76,8,2,-2,-2,-7
41.225,-14,84,36,-9,-31,-12,-2,7
41.23,39,127,-44,1,-5,-6,-10,0
41.235,-66,-12,-36,7,10,-16,-19,-47
41.24,48,72,87,-27,8,26,17,12
41.245,-3,48,-27,-16,-25,-10,3,7
41.25,14,61,-17,0,11,-4,2,-6
41.255,-3,-62,-52,-16,-11,5,-2,8
41.26,0,51,58,36,37,0,5,11
41.265,-9,49,-24,-3,-1,3,6,6
41.27,-60,-128,-104,-43,-24,-5,-23,3
41.275,-55,-69,-29,-22,38,20,-3,-31
41.28,-2,-40,-42,-15,-58,-18,-18,-7
41.285,-7,0,49,36,20,13,5,11
41.29,20,70,43,29,21,1,12,-22
41.295,24,95,24,4,-30,-17,-9,25
41.3,-36,-1,-33,-40,26,14,-1,-15
41.305,-13,-32,-38,7,2,8,6,-2
41.31,21,79,16,39,-11,-5,7,9
41.315,56,50,21,-21,-23,-17,-3,3
41.32,-43,-128,-87,4,30,0,-16,-34
41.325,-23,70,40,-7,-26,-12,-19,-22
41.33,20,88,52,-19,12,12,4,-5
41.335,-1,66,7,8,-11,-5,-4,14
41.34,23,108,-17,18,7,4,7,19
41.345,23,1,30,35,15,0,9,9
41.35,-35,-13,-38,-76,-41,-20,-33,-45
41.355,-15,-3,-79,-4,-15,-24,-22,-32
41.36,-14,7,-39,-40,-35,5,4,13
41.365,-7,90,23,6,30,-2,6,-13
41.37,-19,-80,-15,26,-20,-17,-11,-1
41.375,-22,-48,101,-15,35,18,-2,-14
41.38,33,94,39,58,29,-10,-3,4
41.385,-6,-100,-76,-97,-42,10,-10,-13
41.39,-25,42,-34,14,-13,-12,-13,-38
41.395,6,11,23,14,-17,-16,-1,0
41.4,33,-91,14,-26,-14,-1,12,15
41.405,-19,87,-19,-23,-15,-2,-8,-13
41.41,70,87,54,35,15,5,19,33
41.415,-25,-123,-41,6,-18,-6,-6,-11
41.42,-28,55,-54,-13,-16,-15,-25,-46
41.425,84,127,38,12,5,8,23,42
41.43,-27,83,40,4,-24,-18,-17,-31
41.435,-32,-61,-114,-58,-4,-5,-11,-7
41.44,-52,-35,49,25,11,5,-6,-14
41.445,-16,9,23,39,24,15,8,-1
41.45,19,-92,43,22,-1,-1,12,34
41.455,7,5,10,-14,-29,-24,-15,-22
41.46,32,12,24,55,60,23,24,40
41.465,58,54,38,-43,-20,12,22,35
41.47,-57,-99,-1,-22,-28,4,8,2
41.475,11,109,-21,85,36,-1,6,17
41.48,36,83,28,-61,-24,-10,-11,-5
41.485,-21,-112,-7,2,17,13,11,-16
41.49,15,54,-11,14,-3,7,16,47
41.495,45,119,30,23,22,0,-9,-34
41.5,-34,-9,-19,14,-22,-7,-4,-3
41.505,13,-53,-33,8,21,17,15,25
41.51,-8,76,-8,-22,-12,3,-7,-24
41.515,39,63,53,-1,31,6,8,28
41.52,-14,-58,-112,1,-21,-16,-4,-9
41.525,-44,1,21,-6,1,-11,-9,-2
41.53,-23,-56,-37,-34,-45,-13,-10,-21
41.535,20,-10,57,65,63,28,12,22
41.54,33,102,27,-86,-16,14,6,59
41.545,-41,72,-27,31,20,-9,-16,-36
41.55,3,36,15,-27,-47,-15,-9,-7
41.555,-26,-53,-16,7,27,7,-6,-11
41.56,66,90,55,30,6,-7,15,48
41.565,-37,38,-28,-16,-44,-7,-11,-46
41.57,-26,-20,20,50,85,19,10,8
41.575,64,75,19,-5,-29,-4,14,48
41.58,-57,27,-25,-72,-33,1,-22,-84
41.585,-31,-4,-12,-8,-4,-25,-24,-9
41.59,38,113,45,-14,-35,-21,-1,-2
41.595,-1,-89,18,52,13,13,-1,-5
41.6,-20,66,46,11,19,10,12,-7
41.605,31,40,57,21,3,4,7,21
41.61,4,6,-71,2,12,5,-3,-2
41.615,-59,-78,-64,-44,-31,-25,-30,-37
41.62,57,127,5,32,1,5,21,46
41.625,-56,-128,-74,0,-21,-16,-14,-34
41.63,31,40,4,30,14,13,5,30
41.635,45,103,-3,-64,21,22,22,17
41.64,-85,-128,-49,33,10,-1,-21,-61
41.645,88,98,-9,-18,-31,2,14,35
41.65,-82,-128,-27,-19,-2,-13,-32,-67
41.655,4,36,23,14,-2,-14,-12,-6
41.66,22,-72,-55,32,5,11,18,36
41.665,-7,35,29,-48,-26,-5,-11,-7
41.67,21,93,3,29,-6,-17,0,28
41.675,8,100,2,-23,2,-10,-2,-10
41.68,-32,-128,-30,-50,-53,-7,-3,-7
41.685,-67,-68,-51,-2,17,-10,-27,-58
41.69,40,39,24,-25,24,28,11,21
41.695,-29,17,-55,-8,-43,-37,-21,-46
41.7,33,-28,-21,3,43,4,0,1
41.705,-5,37,45,1,-11,4,2,9
41.71,-14,-57,-2,25,-9,1,5,2
41.715,-9,-64,-25,-31,19,8,1,13
41.72,-23,-35,-15,11,-8,-8,-15,-40
41.725,13,-35,15,-15,21,17,9,26
41.73,-2,71,40,15,3,-11,0,-24
41.735,-10,-49,-34,8,-45,-13,2,8
41.74,-66,-54,-28,-30,15,17,-7,-6
41.745,39,111,-60,2,6,-9,-3,4
41.75,-10,-56,-85,-9,-10,-12,-7,-18
41.755,20,99,30,6,-18,-4,11,-13
41.76,23,-41,14,41,-26,-23,-7,27
41.765,-22,-48,-30,-7,25,10,5,-16
41.77,33,21,22,-32,0,5,4,23
41.775,-15,17,38,38,37,24,7,-1
41.78,49,114,-13,-51,-9,6,11,16
41.785,23,57,66,46,31,13,22,43
41.79,-85,-69,-65,-44,-48,-49,-44,-80
41.795,0,-70,57,35,33,16,-6,-10
41.8,-9,106,-18,-11,18,9,2,10
41.805,49,70,20,32,-26,-12,6,27
41.81,24,103,-10,-66,-2,1,1,3
41.815,-41,29,-25,-37,-26,-9,-4,-10
41.82,38,29,31,20,-23,-3,20,40
41.825,-33,-13,-37,-5,12,1,-18,-36
41.83,40,9,122,64,25,9,25,45
41.835,-60,-16,-30,12,11,-17,-32,-20
41.84,-21,54,16,1,12,6,-11,-45
41.845,-10,64,-8,-14,-16,-2,-8,-27
41.85,-1,64,33,70,-9,-12,-4,-2
41.855,40,44,10,-87,-38,5,15,30
41.86,-96,-128,-76,-55,6,-6,-23,-47
41.865,55,-1,-5,46,54,33,26,54
41.87,-1,82,-40,-6,-8,-8,-15,-12
41.875,-31,-85,-34,9,-20,-32,-16,-8
41.88,55,68,17,7,8,7,1,-7
41.885,-38,15,-51,-44,-41,-7,0,-12
41.89,18,71,7,8,17,13,1,21
41.895,-39,-72,-54,-18,-10,0,1,-2
41.9,40,-6,60,50,26,9,18,28
41.905,-24,-64,-18,-85,-14,-18,-14,-18
41.91,-21,-111,-56,25,16,14,-2,-17
41.915,87,123,51,42,12,26,26,53
41.92,-3,78,24,15,-44,-13,1,7
41.925,34,-53,10,42,31,11,5,15
41.93,-42,1,-6,-19,-6,-15,-15,-15
41.935,17,-45,-7,34,5,7,10,16
41.94,11,101,14,-26,-16,-4,-5,-19
41.945,67,127,39,47,18,7,21,41
41.95,-36,-128,-9,-76,-30,3,10,18
41.955,-20,76,78,5,18,19,-15,-20
41.96,16,-103,43,32,-7,-3,14,20
41.965,-121,-128,3,26,-16,-19,-21,-42
41.97,28,67,31,-13,15,12,12,2
41.975,61,127,19,54,-12,-13,1,15
41.98,-72,-91,-106,-95,-12,-34,-41,-54
41.985,9,110,16,22,6,28,14,-1
41.99,76,122,74,35,6,19,24,55
41.995,-8,-67,33,-1,16,-10,-11,-6
42,1,72,-8,-5,-43,-16,-1,5
42.005,-6,-44,16,-13,4,-5,-6,6
42.01,29,36,24,51,16,30,10,-5
42.015,-55,18,-84,-128,-1,-6,-28,-23
42.02,60,-76,57,66,16,-3,18,34
42.025,-33,49,3,4,-51,-41,-33,-54
42.03,-29,-118,-123,5,-60,-34,-25,-31
42.035,41,82,0,21,-27,-27,-2,9
42.04,26,54,76,44,21,20,18,16
42.045,35,103,-76,-50,-5,-7,1,20
42.05,-44,-30,40,45,19,-10,-5,-15
42.055,25,-36,19,-36,-21,8,6,-2
42.06,-23,3,-5,-84,-24,-6,-19,-23
42.065,49,64,2,55,-53,-16,19,28
42.07,-17,31,2,-57,18,-16,1,26
42.075,11,17,25,3,36,25,2,4
42.08,17,84,34,27,58,10,10,4
42.085,-20,-128,13,29,17,40,37,-15
42.09,41,109,-26,31,-39,-20,-17,7
42.095,-52,-75,-10,-30,-19,-28,2,-2
42.1,-18,-79,-31,-7,9,25,-9,6
42.105,50,127,26,-45,27,-9,8,48
42.11,30,-65,67,63,-24,31,26,32
42.115,-59,120,-46,-16,31,0,-17,-42
42.12,-74,-102,-106,46,7,-40,-47,-64
42.125,13,80,61,-29,-52,4,5,19
42.13,0,-71,-45,-4,26,3,-9,-8
42.135,-11,-53,-16,0,-55,-13,-15,8
42.14,32,38,57,46,-12,-26,7,-1
42.145,-3,25,6,-39,-9,-1,4,17
42.15,3,63,-9,15,12,26,-3,-37
42.155,14,-3,-3,53,16,-5,9,18
42.16,-39,19,-35,-50,13,0,-9,-54
42.165,55,100,54,-12,-25,-27,-5,26
42.17,-63,-57,-74,69,16,-8,-17,-60
42.175,57,-17,-87,-67,-1,27,17,58
42.18,-31,127,-40,-109,-75,-22,-14,-46
42.185,-38,-49,35,52,60,6,-9,-13
42.19,48,79,-42,38,41,5,16,39
42.195,-17,-72,-84,-16,5,2,-25,-62
42.2,17,86,-24,-19,-9,15,29,71
42.205,-32,-15,-22,-16,-6,-16,-17,-31
42.21,-16,44,3,4,-32,-21,-4,-5
42.215,-15,20,56,-12,-19,15,-1,-24
42.22,36,6,-45,-31,31,23,19,17
42.225,6,35,14,2,-4,-8,-7,-16
42.23,37,16,18,37,18,13,22,44
42.235,2,100,-9,-46,-47,-26,-18,5
42.24,13,-52,14,29,19,-10,-8,26
42.245,-45,-41,-3,36,-5,13,-7,-49
42.25,33,3,7,-54,-53,8,4,31
42.255,4,-25,-20,4,9,-18,-11,7
42.26,-26,-86,-6,12,-37,-17,-7,-39
42.265,27,75,82,8,23,8,8,32
42.27,-30,-66,-13,7,-38,-22,-14,-26
42.275,26,36,50,15,21,6,-1,41
42.28,22,25,-40,18,-11,-4,6,22
42.285,-62,-31,-64,-44,-29,-19,-36,-96
42.29,-65,41,-19,7,28,-9,-41,-55
42.295,-26,-24,-6,4,-15,-9,-1,-3
42.3,-20,-25,35,-20,-31,-13,-12,6
42.305,41,47,-16,55,55,40,21,27
42.31,-6,-59,74,2,21,5,2,-9
42.315,21,127,-36,-46,-27,-39,-2,2
42.32,-7,-83,34,-34,-1,19,-8,-27
42.325,-35,-111,45,16,-34,-21,-5,0
42.33,52,-25,-33,-1,58,22,16,37
42.335,-46,-97,24,11,49,16,9,-41
42.34,46,102,53,27,-21,-3,12,41
42.345,24,-76,-20,-36,-25,-3,17,60
42.35,-58,33,-9,6,-4,-5,-20,-74
42.355,60,37,28,-48,-53,-17,10,37
42.36,-47,-126,-50,-14,40,13,2,-11
42.365,55,72,-35,20,25,8,7,54
42.37,-10,-25,-26,-22,-34,-30,-26,-25
42.375,17,78,46,45,-6,6,6,10
42.38,21,41,8,10,22,9,10,14
42.385,3,-101,-24,12,-7,-22,0,4
42.39,-23,-21,59,-19,15,35,10,13
42.395,4,79,1,36,-10,-8,-5,-22
42.4,10,-76,-12,-55,37,4,0,11
42.405,-11,14,13,14,-83,-28,-14,-22
42.41,19,-12,23,-18,44,17,23,-10
42.415,4,24,13,70,-13,-8,9,21
42.42,-20,43,-7,35,12,10,-2,-34
42.425,50,34,-52,-47,35,13,5,29
42.43,11,30,75,20,-44,-19,-6,25
42.435,-19,34,13,-39,23,15,-10,-64
42.44,-5,-68,-46,-17,-37,-10,18,45
42.445,-35,83,-14,16,-4,-16,-25,-51
42.45,29,22,30,-12,-15,0,11,41
42.455,-37,-128,-87,6,-5,-32,-14,-21
42.46,6,103,68,-11,-21,8,-7,-18
42.465,-25,-49,-11,12,64,25,7,11
42.47,3,-43,-37,21,-1,-10,12,21
42.475,-34,13,-9,-47,28,26,4,3
42.48,22,76,56,81,32,-9,4,7
42.485,-69,-113,-66,-16,-56,-16,-24,-27
42.49,3,39,-53,-103,-11,-6,-4,-1
42.495,-11,-96,6,58,-26,-9,-9,6
42.5,21,56,13,-10,17,15,2,6
42.505,30,122,36,1,16,4,17,17
42.51,-12,-68,-20,53,19,-15,-13,-26
42.515,-8,-76,16,-6,-21,18,4,8
42.52,-27,-13,-51,-7,8,-2,-6,-28
42.525,-16,14,-56,-31,-7,2,-2,-1
42.53,-14,37,18,-1,-16,-18,-12,-18
42.535,50,39,1,2,41,9,22,31
42.54,-8,-13,28,-18,-36,-20,-13,2
42.545,15,47,-23,-8,17,-1,-3,-1
42.55,-3,-16,-7,25,-12,13,12,28
42.555,-21,21,12,-46,7,-7,-8,-25
42.56,0,83,29,44,-51,-35,-9,4
42.565,14,21,60,5,31,53,22,10
42.57,20,92,-24,-33,-15,5,4,13
42.575,-46,-105,-34,49,19,6,-6,-13
42.58,-29,-11,-22,-50,16,11,0,-25
42.585,46,45,15,26,-18,-23,9,-21
42.59,-20,-71,-50,-13,-5,-25,-21,-7
42.595,16,124,17,-6,-13,4,-3,16
42.6,-47,-120,-28,-33,-32,6,1,-45
42.605,59,63,4,46,36,2,7,20
42.61,-80,13,-36,-35,-31,-21,-41,-64
42.615,21,-48,-49,16,-29,-28,-5,-5
42.62,-5,10,28,-10,34,6,-5,-7
42.625,-13,-8,5,31,-31,-18,-19,-18
42.63,56,126,40,5,9,9,21,41
42.635,-11,63,29,-19,8,7,-8,-16
42.64,12,46,-40,39,1,-1,7,21
42.645,-39,39,7,-15,-19,-12,-3,-33
42.65,47,46,39,-2,42,30,25,26
42.655,0,-54,-2,62,20,7,-1,30
42.66,22,-12,-37,-100,35,18,11,4
42.665,-23,72,43,56,-5,-11,-3,-40
42.67,34,4,45,8,-18,5,25,52
42.675,73,65,59,-34,25,33,32,53
42.68,-48,19,-10,35,-17,-14,-6,-17
42.685,-11,-128,-42,-54,-18,-9,-22,10
42.69,-8,12,-49,12,17,0,21,7
42.695,9,109,-4,12,-14,-6,-22,-45
42.7,-4,-90,99,37,-4,-9,-12,11
42.705,1,63,-49,-18,9,9,12,16
42.71,-11,39,-21,-6,-21,-4,-18,-25
42.715,-8,-50,1,-18,6,-8,39,19
42.72,6,95,-38,-21,-25,2,-39,-15
42.725,-17,-79,-20,16,38,8,29,56
42.73,-8,7,5,-11,-9,-7,-39,-77
42.735,7,9,35,21,1,-10,6,3
42.74,4,2,19,3,-21,-19,-4,-20
42.745,-1,-65,2,-26,-10,6,3,13
42.75,-15,-10,14,18,25,11,18,-1
42.755,-16,0,-6,-2,-7,3,-23,-16
42.76,16,2,-19,4,2,7,19,12
42.765,18,13,-29,19,4,7,32,71
42.77,-15,-22,-46,-8,-3,-5,-38,-62
42.775,-4,-3,25,-4,-2,-12,2,-15
42.78,13,10,16,11,3,3,4,5
42.785,-14,-16,-24,-16,-5,-4,2,1
42.79,12,17,-4,6,4,3,-6,35
42.795,-4,-21,-48,-21,-5,0,8,-7
42.8,-1,21,4,17,10,5,-18,-1
42.805,21,10,42,2,-7,1,14,-13
42.81,19,-23,-10,-2,6,7,-6,63
42.815,-28,-47,-3,-4,-2,-10,-24,-89
42.82,11,19,-14,-8,4,6,31,37
42.825,-9,-23,-6,-4,-25,-10,0,-15
42.83,3,10,23,5,-2,-12,-15,-23
42.835,9,8,31,-1,10,5,-10,16
42.84,-2,-6,1,9,8,-7,-3,25
42.845,-9,4,-6,-11,-27,8,-13,-24
42.85,-1,-5,-9,12,34,4,-1,-7
42.855,-3,2,3,-6,-10,5,14,26
42.86,-5,-10,3,-18,9,-2,-13,-28
42.865,-9,-4,-21,2,-5,-12,-10,6
42.87,12,-5,15,0,-6,5,21,8
42.875,-9,-48,92,12,-5,-8,-11,3
42.88,3,7,-10,4,-21,-4,2,8
42.885,6,12,29,2,12,1,7,-14
42.89,0,9,10,2,2,3,-9,16
42.895,-5,5,-12,0,-4,-2,10,23
42.9,-19,-11,-37,-11,-5,-4,-22,-26
42.905,-9,-21,-17,-3,5,2,9,13
42.91,18,-1,-14,-8,-3,-5,22,-1
42.915,-17,28,32,8,-7,3,6,18
42.92,-5,-19,0,-14,-19,-20,-32,-24
42.925,2,21,-20,8,11,6,-12,-10
42.93,-4,-20,1,3,-13,0,29,10
42.935,13,6,-20,5,14,4,-16,-8
42.94,4,7,7,6,7,10,26,14
42.945,-1,7,0,-11,3,-12,-32,-38
42.95,-12,6,0,1,-7,-3,10,12
42.955,1,-5,-18,5,-16,-3,-16,-15
42.96,1,-7,17,-16,0,-3,-1,-10
42.965,17,-22,18,32,23,8,21,41
42.97,-20,0,-48,-34,5,3,10,19
42.975,2,14,24,26,1,-8,-26,-67
42.98,-6,-16,-26,3,-25,-6,3,2
42.985,18,-3,-8,-32,11,3,9,7
42.99,2,19,-26,9,-14,-12,-28,-4
42.995,-5,10,-23,-24,-3,6,10,11
43,7,16,21,17,10,-3,4,-5
43.005,-4,-17,27,-1,-20,-8,8,8
43.01,-6,-23,40,11,15,3,-31,-8
43.015,3,24,-53,-9,-1,-2,-6,10
43.02,-4,-6,21,-17,-12,-9,-1,4
43.025,-19,4,-25,-5,-3,1,-3,-6
43.03,8,9,0,8,2,3,10,-1
43.035,-11,4,-15,14,-1,4,-13,16
43.04,-8,11,-5,-7,1,-4,11,-56
43.045,0,2,-16,-3,-4,-6,-9,37
43.05,0,-4,-7,21,3,14,14,11
43.055,16,2,-7,4,17,11,2,11
43.06,-7,3,-7,4,0,1,-10,-18
43.065,14,-6,8,3,0,-5,10,31
43.07,-14,-9,-11,-14,-28,-16,-7,-14
43.075,-13,-2,-53,-19,-11,-4,-11,-11
43.08,14,7,22,-3,-1,0,12,0
43.085,-22,-11,-5,-14,-1,-7,-24,-14
43.09,16,4,4,46,14,7,15,1
43.095,14,28,-60,-62,-14,-4,-57,-31
43.1,-16,-3,0,4,10,6,14,13
43.105,3,-12,-23,-23,-24,1,14,-7
43.11,-9,-11,-23,-16,4,1,19,3
43.115,-1,21,21,28,-13,-16,-19,23
43.12,-2,-15,-11,-8,3,2,-8,-13
43.125,0,2,14,1,2,0,1,-5
43.13,3,2,0,6,1,9,1,14
43.135,1,3,29,5,10,6,14,4
43.14,-9,-3,-2,-24,-27,-17,-8,-2
43.145,-1,-8,-12,-3,2,-2,-2,-4
43.15,2,3,-7,-1,0,-4,-6,-2
43.155,-6,-17,66,31,24,16,18,-8
43.16,2,0,-8,3,6,3,7,-8
43.165,3,-3,-5,-19,0,-1,-2,5
43.17,-5,-22,29,7,-3,-3,-4,11
43.175,-11,-17,9,10,-14,-8,2,-17
43.18,6,2,-3,13,-4,-1,4,17
43.185,2,4,5,-9,-2,-8,-6,-10
43.19,-8,8,5,-1,-1,-1,-11,-10
43.195,-2,-8,-18,-12,-8,-5,3,0
43.2,-3,5,17,0,2,-2,-7,-3
43.205,1,-49,51,19,10,10,24,-10
43.21,3,18,31,3,2,-4,-17,2
43.215,-2,-4,-5,1,-4,1,10,-3
43.22,-3,-7,-72,-16,-9,-14,-17,-14
43.225,-4,8,2,13,-7,-2,4,52
43.23,4,4,-11,-24,13,12,8,-3
43.235,-9,-8,-19,30,-3,-1,-12,-17
43.24,3,1,10,2,-6,-1,1,14
43.245,-4,4,-3,-21,0,-3,-1,6
43.25,-5,-13,-38,1,-1,-1,-4,-16
43.255,-3,1,-5,-6,-10,-7,-16,-4
43.26,-6,0,-2,-5,13,-12,4,9
43.265,-6,3,-10,-2,-13,6,-13,-39
43.27,8,-18,14,-9,16,11,17,10
43.275,-5,-32,28,1,-10,-11,12,-6
43.28,2,3,7,2,-2,5,-13,-2
43.285,5,1,-1,-10,11,-2,5,-4
43.29,-4,10,-10,2,-5,-4,-9,-7
43.295,-1,6,-9,-20,-5,-7,3,10
43.3,8,-5,11,15,-3,1,-3,1
43.305,-3,20,-39,10,0,1,7,10
43.31,1,9,-19,-21,-21,-6,-38,5
43.315,-5,-1,-8,13,14,7,18,14
43.32,-2,-5,-21,-6,-5,6,4,5
43.325,0,11,16,36,9,-3,-3,-13
43.33,4,-4,-19,-63,-19,-18,3,16
43.335,-18,5,15,-21,1,0,-20,-20
43.34,0,1,1,21,0,9,27,7
43.345,24,10,36,9,8,6,5,18
43.35,-44,3,14,19,1,-9,-14,-25
43.355,1,10,-57,-36,-25,-16,-15,-6
43.36,-3,-6,13,-4,9,6,7,-2
43.365,-4,-7,-10,-29,-4,0,-1,1
43.37,8,-1,7,32,9,12,13,-35
43.375,-1,17,7,24,2,-3,17,-9
43.38,-7,-2,-8,-33,-20,-14,-72,-21
43.385,3,12,12,31,0,-8,0,10
43.39,9,-22,-24,-10,0,0,3,28
43.395,-6,-13,-19,-24,-9,3,6,-18
43.4,12,12,27,19,7,4,23,9
43.405,-2,-20,17,-58,-7,-2,-17,-9
43.41,-3,7,14,29,16,1,0,4
43.415,4,-14,18,-3,9,13,15,12
43.42,-2,-1,-2,15,0,-4,-6,-8
43.425,-9,-6,-35,-12,-4,-7,-9,-18
43.43,5,5,5,-12,0,6,34,12
43.435,9,2,21,37,2,-8,-13,5
43.44,-2,29,-12,-18,-5,2,-9,-15
43.445,0,1,4,33,-1,3,13,10
43.45,-14,-13,-25,-79,-22,5,16,-27
43.455,31,28,62,52,28,2,-21,37
43.46,-53,-15,-33,-78,-20,-17,-42,-69
43.465,7,4,-13,-4,-6,-2,-3,2
43.47,5,-3,30,64,16,5,-3,30
43.475,-8,-10,-12,-2,-30,-8,3,-12
43.48,8,-38,13,0,1,-2,26,14
43.485,-10,-3,-36,-28,-3,-4,4,11
43.49,6,6,-5,40,9,0,-21,-10
43.495,-16,-1,-15,-86,3,4,-2,-34
43.5,-4,-11,5,94,0,-6,3,17
43.505,-11,-14,-54,-56,-11,1,9,-18
43.51,7,3,10,26,4,-3,-3,13
43.515,-15,-2,-20,45,-3,-5,-6,0
43.52,12,-2,23,-10,16,24,54,53
43.525,3,7,17,59,13,7,-21,-60
43.53,-8,1,-59,-42,-26,-24,-27,-14
43.535,14,-12,23,-9,-11,-5,-8,4
43.54,-1,-5,-27,-41,-10,-16,2,22
43.545,-3,-1,17,70,10,9,18,12
43.55,11,-7,17,-5,17,10,-7,35
43.555,-16,-9,1,-7,-6,-3,-23,18
43.56,-14,17,-39,-18,-18,-9,18,0
43.565,20,11,19,60,9,3,16,12
43.57,8,26,-7,-44,-3,0,-7,-2
43.575,-4,-6,6,12,-1,1,1,-15
43.58,5,11,4,57,-3,-4,23,25
43.585,-1,-7,-21,-92,-12,-4,-14,2
43.59,-7,-7,3,45,16,3,-5,-13
43.595,-2,3,-5,-63,-14,-3,-1,16
43.6,9,19,10,23,0,5,4,4
43.605,3,-3,31,29,21,6,22,16
43.61,-7,1,-14,18,-11,-8,-16,-19
43.615,14,9,46,-2,7,-3,-7,2
43.62,-4,-8,11,-55,-12,3,1,-16
43.625,-6,-4,-12,1,4,13,13,14
43.63,-3,3,27,25,7,1,-19,-35
43.635,18,4,-6,56,8,-3,3,29
43.64,-11,-36,37,-28,0,-2,-8,-20
43.645,-13,-17,6,4,-5,-6,-37,8
43.65,13,4,40,36,-5,-6,21,19
43.655,-1,-4,-15,16,-5,4,12,-2
43.66,8,-2,4,-36,-7,-10,-12,21
43.665,11,11,23,38,22,12,12,26
43.67,-18,-14,-10,29,-10,-4,-5,-28
43.675,0,-5,-35,-47,-9,-1,-13,-21
43.68,19,23,48,34,16,7,6,18
43.685,-11,-10,0,-52,-10,-4,8,18
43.69,-5,-4,-8,15,11,8,13,-3
43.695,-2,12,18,17,4,-7,-4,7
43.7,-12,-14,-36,16,-14,-8,-12,-33
43.705,3,6,0,21,11,5,-2,-6
43.71,3,-12,-19,-78,-20,-4,23,29
43.715,-12,-10,-8,-65,-10,-7,-27,-46
43.72,-6,3,-26,-16,6,-6,-55,-23
43.725,14,-23,13,47,6,-2,9,10
43.73,-3,-31,-9,2,-1,4,2,27
43.735,-5,2,14,58,-6,-3,33,6
43.74,4,2,-44,-94,-21,1,17,25
43.745,-14,2,2,15,11,0,-15,-62
43.75,-6,-14,-10,-21,13,7,-12,23
43.755,9,6,8,53,-6,-5,-11,11
43.76,-4,-19,12,53,-8,-5,22,-1
43.765,-11,3,-25,0,-3,2,-9,8
43.77,15,25,15,34,12,4,40,13
43.775,-18,-15,-50,-120,-23,-11,-70,-30
43.78,2,-2,17,51,8,1,1,1
43.785,-14,-15,-58,-47,-16,-10,15,15
43.79,-7,-10,51,32,3,5,7,-13
43.795,1,-11,-16,41,3,0,9,43
43.8,-1,13,16,35,13,5,-13,-37
43.805,-7,2,-30,-64,-21,-11,-21,-18
43.81,8,17,-7,56,2,-8,-11,5
43.815,-5,3,13,-65,10,9,29,4
43.82,0,-15,-6,25,-3,8,28,24
43.825,5,4,21,1,10,1,-14,-5
43.83,-12,-6,-38,-47,-29,-14,-2,-10
43.835,18,8,16,20,4,-8,-15,-3
43.84,4,-1,29,47,14,2,0,-12
43.845,-10,3,7,42,-2,4,0,-10
43.85,6,22,-28,-8,6,2,-16,-11
43.855,-7,5,31,11,9,4,23,6
43.86,3,1,-52,-67,-13,-10,-28,-24
43.865,0,12,-7,-4,-11,-10,12,4
43.87,-9,-21,-14,-35,-7,11,-2,28
43.875,23,15,23,120,17,2,-13,-67
43.88,-3,17,29,10,9,0,17,15
43.885,14,1,-16,-15,-17,-4,25,11
43.89,-33,-1,-17,29,-14,-15,-41,-33
43.895,9,11,54,-26,13,3,-9,11
43.9,-1,2,-38,68,1,0,-34,-7
43.905,-1,-9,-5,-13,-4,5,3,6
43.91,15,26,29,22,13,0,11,3
43.915,-11,-9,-7,23,-1,3,25,15
43.92,-17,-18,-37,-109,-17,-6,5,-11
43.925,10,2,53,107,22,10,-5,9
43.93,-6,-12,-45,-58,-26,-8,-7,-14
43.935,-5,-8,-14,13,-4,-3,4,32
43.94,-14,-14,8,-11,-9,-4,2,-58
43.945,-1,0,11,-3,3,4,-8,-2
43.95,8,15,-6,13,1,1,6,7
43.955,3,-13,-76,-123,-29,-5,-8,0
43.96,-37,4,26,21,7,-6,1,9
43.965,2,-2,-1,-3,-3,2,7,9
43.97,5,18,-11,-10,-1,-6,-13,-13
43.975,-13,-12,18,6,-5,-2,0,24
43.98,14,-1,-4,-2,16,9,7,-36
43.985,0,7,-4,-12,2,14,15,2
43.99,-8,-24,3,14,8,1,-18,-6
43.995,6,20,-6,14,-1,2,-2,0
44,8,-6,28,2,-5,-8,-6,26
44.005,-3,-3,4,-9,-3,-8,-8,11
44.01,4,11,10,-31,-4,0,-5,-19
44.015,-4,-10,13,7,13,6,18,-3
44.02,1,6,34,-11,-7,1,-6,9
44.025,-5,-10,-36,28,-25,-13,-13,-14
44.03,-2,-1,14,44,3,-9,-20,4
44.035,-4,-2,-3,6,7,4,4,-3
44.04,7,2,1,-33,10,6,12,24
44.045,3,-5,9,-28,7,-7,-2,5
44.05,-1,5,-49,-15,0,4,16,0
44.055,-10,-10,-1,28,-6,-3,-10,-19
44.06,6,1,-7,-1,-3,-1,4,13
44.065,-7,1,-13,-33,-11,-22,-15,-24
44.07,11,-4,35,21,9,21,9,4
44.075,-10,2,-38,-25,-1,0,6,-3
44.08,6,0,-15,24,1,7,38,65
44.085,-14,-5,26,-8,1,-5,-29,-49
44.09,-5,0,24,-1,2,-9,-15,-62
44.095,4,-9,-9,3,-13,-3,5,6
44.1,0,-2,20,24,4,1,-1,6
44.105,0,0,-24,-12,9,13,15,22
44.11,1,0,11,7,-1,-4,15,19
44.115,-5,-3,-10,-33,-12,-10,-13,-14
44.12,-3,-3,-23,45,-12,-7,-3,-29
44.125,1,3,7,6,15,7,-2,2
44.13,0,-2,0,3,-4,2,-11,3
44.135,6,-2,8,-42,1,-1,13,10
44.14,-4,-4,14,15,-3,-3,-11,-21
44.145,10,0,-6,-18,-2,3,3,7
44.15,-7,-8,12,2,-1,-5,-4,9
44.155,-1,-1,13,23,15,6,0,2
44.16,-5,-24,25,-2,3,7,0,-7
44.165,-7,-2,-1,23,-6,-6,-3,-3
44.17,0,-2,-10,-39,-3,-1,7,-3
44.175,-6,-17,5,-12,-7,-6,-16,-7
44.18,-1,3,-10,3,-1,-1,-3,-17
44.185,3,2,6,-12,-13,-8,8,15
44.19,3,1,16,3,1,-4,5,17
44.195,-3,13,-6,-8,-7,-4,-1,-8
44.2,1,1,-5,-2,7,8,-4,1
44.205,-3,-10,-16,3,1,-4,-17,-12
44.21,1,-3,-9,-28,-8,-5,3,7
44.215,-2,-1,0,5,-2,-1,-2,-5
44.22,-3,-3,-13,16,-2,-6,3,-4
44.225,-2,4,-3,-47,-15,-8,-1,1
44.23,9,16,15,27,7,-6,-3,4
44.235,2,-11,7,18,4,1,10,4
44.24,-12,-12,-10,-19,7,4,-7,-1
44.245,4,-5,35,32,11,11,5,-1
44.25,-4,-39,14,-39,-24,-7,-1,6
44.255,2,12,-24,-8,7,-1,0,2
44.26,4,17,-2,1,-4,-5,-3,0
44.265,-1,0,3,1,1,-5,-3,0
44.27,-7,-3,-12,17,4,5,4,-3
44.275,8,19,10,19,-1,-1,0,2
44.28,-7,-26,-10,-31,-16,-7,-10,-8
44.285,-4,5,-11,-10,5,-7,-7,-4
44.29,2,0,-13,29,-7,8,-2,9
44.295,-5,11,-15,16,17,12,10,-9
44.3,-1,9,-28,-36,-10,-7,-6,-1
44.305,-5,-4,-3,-7,-9,-5,-5,-6
44.31,7,20,1,7,8,-4,2,6
44.315,-9,-2,-6,-10,-18,-3,-7,-7
44.32,13,14,73,15,29,5,-2,2
44.325,-2,0,-7,-8,-12,-6,3,5
44.33,-2,-34,-6,1,-5,1,2,-2
44.335,-2,3,-1,5,6,6,-6,-5
44.34,0,1,-11,-6,-6,-4,-3,-2
44.345,-8,-4,-5,-4,9,6,1,3
44.35,5,31,7,6,-1,-5,-2,-9
44.355,-10,-47,-6,-14,-16,-9,-3,2
44.36,5,5,0,9,-3,-5,0,1
44.365,10,4,9,9,6,3,-2,1
44.37,-4,-21,-9,-1,15,6,1,3
44.375,-10,-4,-2,7,-8,-7,7,-3
44.38,0,10,-10,-3,-4,-10,-2,36
44.385,3,-8,-5,-2,6,10,1,-13
44.39,-11,-8,0,-3,-6,-3,-2,-3
44.395,1,-4,3,2,4,-6,-11,3
44.4,-2,-4,-5,-22,1,6,2,-2
44.405,3,8,-1,5,-7,1,5,7
44.41,0,10,-1,2,5,3,2,-6
44.415,4,-19,39,11,3,2,4,11
44.42,-2,2,-19,1,-14,-5,0,-9
44.425,-4,-5,11,-2,1,-1,-2,-2
44.43,0,10,-28,-13,3,-1,7,-13
44.435,1,13,-23,-21,-14,-5,-24,-10
44.44,-17,-41,6,26,12,0,-4,-12
44.445,4,14,30,4,0,5,17,8
44.45,2,0,2,8,-1,-4,6,18
44.455,-1,-4,-26,-15,-2,-6,-6,-7
44.46,1,24,6,-5,5,2,-9,-9
44.465,-5,-13,-27,-15,-8,-1,-7,2
44.47,-8,-1,2,-2,0,-2,-6,-7
44.475,11,30,22,40,3,0,11,3
44.48,2,-4,-6,-9,-10,0,9,1
44.485,-5,0,-7,7,-6,-8,-16,-7
44.49,5,16,22,5,0,-1,6,15
44.495,-6,-17,-21,-30,1,-2,-29,-78
44.5,11,58,-6,22,-5,1,1,0
44.505,-1,2,40,2,9,4,22,15
44.51,-18,-74,-22,-5,-4,-2,-8,-9
44.515,-1,3,-1,7,1,-9,-1,14
44.52,1,-8,-27,-14,-8,-3,-5,1
44.525,3,13,10,-11,-8,-4,-4,-16
44.53,8,17,42,13,-4,-3,-6,-5
44.535,-2,5,6,-4,5,2,7,16
44.54,-6,-21,-12,-13,-4,1,23,-1
44.545,-2,-9,-22,-2,-4,-6,-25,33
44.55,-1,1,-9,1,0,-5,0,-58
44.555,5,7,-8,-13,-10,1,-6,33
44.56,-2,-13,52,28,4,-3,-2,3
44.565,-11,-37,-36,-34,-1,1,8,4
44.57,5,-15,-38,-1,0,4,6,13
44.575,5,19,7,-2,0,5,16,21
44.58,-7,2,-15,-7,2,-7,-4,-10
44.585,-3,24,-12,6,-11,-6,-10,-13
44.59,5,-38,19,-23,3,5,7,29
44.595,0,64,4,10,3,3,1,-16
44.6,-4,-33,-3,-12,2,-3,-8,3
44.605,-1,7,-8,12,-11,-13,-8,-17
44.61,-7,18,-33,-13,-4,-4,-12,-6
44.615,6,19,78,26,17,11,-1,7
44.62,0,-31,-14,-28,-4,5,9,6
44.625,3,12,-6,0,-5,-1,-7,-9
44.63,-24,-17,1,1,-4,-7,-6,-8
44.635,3,-46,-19,-9,-15,-10,2,2
44.64,0,24,-13,3,8,-1,-6,1
44.645,-3,11,-3,23,-4,-3,8,-9
44.65,10,-4,32,-11,4,7,2,43
44.655,-25,-41,-5,11,11,4,0,-64
44.66,-2,21,8,0,-11,-8,-13,24
44.665,8,-4,-15,-7,-17,-8,0,-11
44.67,2,27,-4,23,10,8,-23,-9
44.675,-4,-28,-9,-32,-1,-7,5,32
44.68,15,34,24,16,14,10,8,7
44.685,-17,-102,-23,0,0,12,18,4
44.69,10,57,78,25,17,6,17,9
44.695,12,-8,-36,-20,-6,-2,2,22
44.7,-13,-19,5,-12,-4,-9,-8,-36
44.705,15,21,24,14,7,2,-4,7
44.71,-11,15,-83,-57,-29,-15,-16,-9
44.715,1,-30,0,92,7,6,16,23
44.72,-56,-74,-50,-88,-27,-11,-26,-42
44.725,26,90,44,79,30,10,6,-40
44.73,-21,-74,-30,-68,-26,-8,2,18
44.735,12,49,-6,-2,-11,-5,-5,-14
44.74,12,64,3,32,11,3,-5,9
44.745,-5,-21,18,-2,0,0,3,5
44.75,6,50,-10,19,0,-7,2,-2
44.755,4,-6,-17,-30,-2,10,-22,-17
44.76,10,5,-22,-50,-3,1,17,30
44.765,-37,13,-9,-8,-6,-11,-21,-35
44.77,34,34,3,54,2,-2,16,10
44.775,-32,-61,-33,-11,-12,-6,-1,-10
44.78,33,9,73,35,0,11,9,16
44.785,-6,-19,-24,-15,15,2,5,13
44.79,-15,-61,29,50,15,9,12,-7
44.795,16,127,21,-14,-19,-13,-40,-13
44.8,-47,-100,-85,-53,-22,-18,-11,8
44.805,7,40,53,-26,-20,-2,-7,16
44.81,27,124,51,38,29,13,19,1
44.815,20,83,11,24,25,4,5,16
44.82,-27,-91,-61,-69,-36,-11,-14,-3
44.825,19,111,38,17,22,-3,18,16
44.83,-13,-37,-22,17,-11,0,-13,-13
44.835,25,14,21,1,-4,-10,4,5
44.84,30,-8,-2,9,10,20,1,5
44.845,-31,-73,-22,-44,4,-5,-3,-21
44.85,11,22,-6,58,6,2,2,-4
44.855,-3,-53,-49,-1,-15,-7,-6,0
44.86,-11,77,-4,-61,-9,-15,-19,-14
44.865,16,-5,1,-16,-28,0,11,18
44.87,42,80,45,39,41,4,4,4
44.875,10,59,5,-8,6,3,21,11
44.88,-19,-59,33,-37,-28,-16,-20,-17
44.885,18,115,14,31,4,-4,-5,-8
44.89,-69,-111,-91,4,-22,-14,-23,-33
44.895,20,73,30,0,4,4,8,19
44.9,5,28,49,64,37,10,6,-16
44.905,10,-25,18,-81,-20,3,16,21
44.91,17,61,-6,58,17,-5,-11,-3
44.915,-30,-50,-7,-38,-47,-2,5,9
44.92,30,103,16,7,40,11,1,7
44.925,-59,-104,-13,34,0,-6,-12,-21
44.93,33,85,40,-34,-7,9,15,17
44.935,18,-31,-1,-5,22,3,-5,-13
44.94,5,127,-33,-48,-47,-11,-15,-7
44.945,21,-13,66,30,15,-1,5,15
44.95,-67,-85,42,-21,-26,-17,-9,-9
44.955,4,86,15,29,38,14,1,-7
44.96,-6,-43,-55,-4,-24,2,0,12
44.965,7,82,2,62,37,7,-2,-15
44.97,37,13,-53,-78,-48,-26,-7,53
44.975,-15,-70,19,-56,10,38,-2,-56
44.98,23,-79,63,55,44,0,19,22
44.985,-12,82,4,-54,-36,3,7,7
44.99,-15,66,14,59,-1,15,13,-3
44.995,-45,-68,-49,18,18,-32,-25,-7
45,19,0,19,-5,-39,-15,5,15
45.005,20,-16,-14,-27,36,27,4,21
45.01,-29,39,-19,-3,14,-16,-25,-47
45.015,14,28,-28,-2,-39,-12,0,-2
45.02,-46,-120,-38,-10,0,22,1,-20
45.025,53,104,31,-12,29,6,11,29
45.03,-47,-103,-37,35,8,-13,-17,-37
45.035,35,3,14,62,9,-5,10,29
45.04,6,95,21,-35,-24,-7,-2,2
45.045,-5,-104,-4,12,-42,-1,-5,-8
45.05,62,98,70,25,42,28,17,26
45.055,-47,-128,-4,-12,-8,-12,-11,-34
45.06,-8,-4,37,31,-5,-3,9,4
45.065,-5,23,-33,-39,-10,-15,-11,5
45.07,-23,-126,-59,9,-52,0,0,-8
45.075,-22,-71,-39,28,14,4,-5,-5
45.08,23,94,54,-37,14,6,2,-14
45.085,-85,-128,-106,-33,-34,-33,-17,-27
45.09,53,109,54,17,20,-1,13,32
45.095,42,32,41,14,-14,2,0,47
45.1,-49,10,-47,-21,4,-9,-18,-48
45.105,-26,-43,-67,-23,42,-7,-7,-28
45.11,-15,-77,-49,-53,-37,1,2,16
45.115,-9,-19,-35,6,-20,-14,-7,-28
45.12,-9,120,23,28,-22,1,-4,-2
45.125,36,41,48,2,-4,14,7,30
45.13,-33,-75,52,48,78,0,2,-28
45.135,43,83,40,-27,-55,4,21,29
45.14,-22,-53,-29,19,25,0,-11,-8
45.145,-2,20,29,-85,-26,-1,-6,-6
45.15,-12,-84,-36,19,16,5,-2,-10
45.155,-13,-63,17,15,-9,-3,-3,-4
45.16,-4,-37,13,19,-10,-7,-5,-13
45.165,41,82,86,26,51,29,25,38
45.17,-38,7,-9,-11,-42,-30,-22,-44
45.175,-26,127,5,36,70,-2,-6,-37
45.18,-32,-45,-45,-55,-1,11,-2,-4
45.185,21,5,54,35,-8,-15,-6,-2
45.19,34,1,22,44,50,33,27,33
45.195,35,113,79,-44,-4,7,8,30
45.2,-30,-58,-23,-11,-16,-30,-18,4
45.205,47,9,-74,65,33,1,-2,-2
45.21,-70,-46,-70,-112,-44,-5,-18,-43
45.215,28,89,-6,82,-14,-16,7,26
45.22,30,-16,19,34,47,6,9,22
45.225,-1,-76,-21,-75,-59,4,-7,-47
45.23,42,66,15,14,-33,5,13,45
45.235,-14,-58,-28,-5,32,13,-5,-1
45.24,-27,50,-45,32,-16,-17,-16,-32
45.245,-5,-57,-2,25,5,4,15,40
45.25,51,96,-19,57,-32,-8,-5,-9
45.255,-52,-127,-106,-67,38,5,-17,-31
45.26,15,101,16,13,17,1,7,5
45.265,-98,-12,-22,-2,-31,-21,-29,-42
45.27,53,118,81,-15,-17,-8,7,15
45.275,23,103,22,-124,21,16,11,38
45.28,-51,-125,-37,10,-107,-27,-5,-9
45.285,75,127,45,114,111,48,38,72
45.29,-20,46,-52,-57,-71,-17,-17,-4
45.295,-113,-87,-93,-42,-77,-30,-43,-114
45.3,74,29,43,-3,21,25,13,41
45.305,4,52,3,-27,-51,-9,7,-11
45.31,-25,38,-13,5,40,-13,-17,-7
45.315,47,-54,70,13,-78,-37,14,42
45.32,24,115,-48,-3,12,45,24,36
45.325,-79,23,-38,-21,-65,-46,-57,-84
45.33,-17,23,-33,-15,57,28,-1,-8
45.335,34,94,-46,58,-41,-30,-9,15
45.34,10,91,84,16,45,9,12,-18
45.345,35,69,11,15,83,31,31,41
45.35,15,-65,66,50,0,-10,4,-3
45.355,34,16,34,17,-37,-11,29,85
45.36,44,75,10,-22,83,22,-15,-25
45.365,-44,-106,32,-2,-59,-30,-21,-46
45.37,-16,98,23,10,12,-1,-11,-23
45.375,24,53,-1,-52,26,19,4,5
45.38,17,-53,0,67,4,-33,-2,24
45.385,24,-14,23,-49,-83,10,11,13
45.39,-27,-128,4,49,40,0,-10,-14
45.395,-13,92,20,-17,-35,-12,-14,-26
45.4,28,52,-2,58,17,2,13,52
45.405,-42,3,-52,-51,28,-16,-20,-56
45.41,-11,127,48,-7,39,31,28,18
45.415,43,88,12,44,-7,5,10,18
45.42,-39,-55,1,-18,-44,-17,-5,-13
45.425,82,127,47,79,66,45,37,106
45.43,-69,-102,-94,-41,9,4,-39,-85
45.435,47,36,46,8,14,-1,14,53
45.44,-17,78,47,-71,-39,-10,-4,-87
45.445,-13,24,11,58,-59,-40,-16,18
45.45,2,-22,-36,47,5,3,19,14
45.455,-34,31,-35,-30,91,46,-9,-56
45.46,23,-3,-98,-18,-10,-25,-1,46
45.465,-15,-48,23,-45,8,17,3,-22
45.47,27,120,-23,-13,-89,-42,-17,22
45.475,-20,-6,4,-28,22,8,8,-36
45.48,64,77,79,27,35,49,33,78
45.485,-95,-126,-59,41,-58,-86,-43,-52
45.49,-48,79,19,-88,59,73,18,-25
45.495,5,-24,-34,27,-57,-31,-28,-4
45.5,-4,99,-66,4,-31,-20,-22,-13
45.505,31,-16,23,-22,-11,2,10,34
45.51,102,96,-19,-86,-102,-47,20,69
45.515,-82,-47,-73,96,113,37,-15,-40
45.52,-36,38,-22,-55,-74,13,-6,-53
45.525,-5,43,61,50,48,24,25,59
45.53,-14,-62,15,-51,-70,-35,-29,-91
45.535,37,27,24,-15,53,0,0,10
45.54,29,9,53,88,-42,3,19,37
45.545,93,89,52,-74,61,38,42,84
45.55,0,14,-2,17,54,5,-32,-15
45.555,-109,-128,-37,20,-125,-46,-32,-94
45.56,41,51,-18,-21,51,8,8,42
45.565,70,99,-28,-8,-47,-10,17,54
45.57,64,80,94,52,77,18,27,68
45.575,-17,13,-7,60,-31,1,14,1
45.58,-46,-6,-113,-103,-20,-4,-20,-31
45.585,-40,-67,-61,76,11,5,-9,-44
45.59,12,-36,23,-10,-70,-15,9,49
45.595,43,106,114,12,-5,18,20,26
45.6,-2,28,55,91,92,-4,1,-2
45.605,50,25,1,-62,-5,9,1,8
45.61,-30,-128,57,13,21,15,8,-24
45.615,46,127,2,22,-11,-15,-6,53
45.62,-21,0,28,-16,-49,-35,-4,-29
45.625,-54,23,-42,-30,-3,16,-25,-84
45.63,16,123,-63,25,56,21,30,43
45.635,30,55,56,36,-20,-26,-6,9
45.64,48,-113,-64,-55,47,11,-9,14
45.645,-86,-82,-118,-32,10,18,-18,-48
45.65,0,-16,-1,31,6,-22,-23,-59
45.655,80,56,20,-33,-41,-13,14,62
45.66,-58,-69,-21,98,67,10,-11,-32
45.665,-24,76,-39,-45,-19,-52,-35,-80
45.67,24,-64,15,46,37,39,11,63
45.675,-54,-128,-45,-73,33,12,-6,-35
45.68,14,120,9,-21,-95,-42,9,32
45.685,6,51,63,45,31,-1,-7,-9
45.69,49,127,89,76,-46,2,32,54
45.695,-54,-52,-1,-20,37,46,-3,-52
45.7,-17,-128,1,1,-54,-35,-29,-34
45.705,44,57,45,28,0,4,-2,-34
45.71,-22,-34,-7,-122,-51,-22,-8,-1
45.715,-34,-82,-36,-20,-29,-28,-14,1
45.72,2,73,84,54,1,21,18,-2
45.725,88,127,93,-65,-38,30,34,59
45.73,-65,-93,-97,-2,-81,-49,-31,-34
45.735,-101,75,-31,-13,56,24,-32,-100
45.74,-21,75,6,-78,28,17,-13,-14
45.745,-4,-72,-27,72,-55,-33,-16,22
45.75,4,55,-75,8,-33,0,-2,-24
45.755,-32,-123,2,-56,-34,-25,-5,7
45.76,-3,53,89,32,40,62,48,28
45.765,5,-43,-72,57,23,-6,-4,1
45.77,-61,-7,-86,-17,-73,-22,-21,-47
45.775,49,-37,4,-39,50,10,9,83
45.78,23,41,-17,72,-19,8,-18,-34
45.785,-32,-8,12,-61,4,8,7,1
45.79,48,127,64,35,103,17,8,13
45.795,69,102,59,96,10,13,14,11
45.8,-26,-120,-77,-95,-36,-35,-20,11
45.805,-50,-78,49,23,-43,5,18,55
45.81,72,68,-6,-26,58,-13,-31,-20
45.815,20,36,96,55,15,16,31,10
45.82,-32,-57,-46,-51,6,7,1,-16
45.825,-42,31,-37,-58,5,-11,-18,-33
45.83,27,72,29,90,15,18,19,23
45.835,57,-29,-71,-89,-38,-11,12,22
45.84,-3,95,33,86,18,-28,-6,-24
45.845,-27,-83,-77,-39,-38,-17,-21,-47
45.85,52,86,109,38,52,43,42,53
45.855,115,-16,65,25,-48,4,27,83
45.86,-100,-95,-72,-16,-34,5,-41,-84
45.865,8,68,49,-35,-4,-35,1,45
45.87,9,70,18,32,70,8,-6,4
45.875,-97,-90,-46,9,-14,-5,-46,-108
45.88,85,7,46,-110,-70,-7,23,107
45.885,-61,-73,-25,25,81,15,-22,-73
45.89,15,2,26,26,-49,-23,0,46
45.895,43,127,15,-88,-25,9,25,37
45.9,-66,-93,-128,58,-55,-43,-38,-70
45.905,53,120,82,90,51,51,39,46
45.91,2,-70,-35,-61,30,8,-13,-42
45.915,96,78,23,98,29,6,43,102
45.92,-47,9,21,-97,0,0,-6,-21
45.925,76,-46,-66,0,-109,-43,3,60
45.93,-128,-128,-88,-47,-38,-11,-28,-88
45.935,24,81,32,76,51,12,6,10
45.94,46,72,47,41,-8,4,19,49
45.945,108,127,113,15,63,28,23,29
45.95,-85,-103,-83,-30,-71,-47,-44,-27
45.955,-43,45,-60,-38,-60,-45,-28,-50
45.96,73,124,103,127,74,38,13,56
45.965,4,2,-59,-85,30,3,-17,-16
45.97,-20,-41,61,104,5,-19,12,7
45.975,-70,-106,-81,-103,-92,-25,-29,-50
45.98,12,69,-8,-11,17,17,10,6
45.985,-7,-29,8,106,45,22,36,52
45.99,59,41,-36,-103,-46,-4,1,22
45.995,-30,8,-32,116,63,8,-9,-22
46,83,61,55,-36,30,-4,19,67
46.005,-23,60,59,-24,29,66,3,-40
46.01,-12,-47,-66,-16,52,-5,-18,-52
46.015,27,80,41,-68,0,-10,3,3
46.02,14,-44,-35,51,-12,-4,-2,2
46.025,-50,20,-30,3,-1,-21,-29,-79
46.03,77,-19,116,67,-27,-18,29,110
46.035,41,127,43,-27,14,24,7,11
46.04,-53,-128,-8,23,4,2,-2,-31
46.045,47,40,-14,-46,16,-7,-6,37
46.05,-34,-15,-2,51,26,34,0,-36
46.055,-25,-101,-20,32,10,3,-4,-36
46.06,65,127,103,36,-30,-13,27,72
46.065,-72,-23,-37,-48,-18,-16,-6,-57
46.07,91,127,9,-10,-4,-3,15,85
46.075,-70,-66,-17,27,18,-8,-19,-10
46.08,30,-75,11,35,-39,31,46,20
46.085,-5,47,-16,-5,-13,-19,-27,-10
46.09,-67,-29,-25,-40,-17,8,-6,-41
46.095,-2,-116,31,40,-4,-26,-3,4
46.1,-28,127,23,4,31,3,-13,-19
46.105,-9,-95,-124,29,1,-44,-22,12
46.11,-38,67,-14,-61,4,25,15,-9
46.115,15,89,-22,-15,-23,-34,-24,-20
46.12,-58,-32,-10,-48,36,44,4,-45
46.125,103,83,68,64,4,8,42,86
46.13,-85,-17,-33,-38,-33,-4,-26,-51
46.135,-10,-8,-5,72,57,-26,-12,-19
46.14,30,-13,-25,-83,-50,0,12,35
46.145,-24,72,-48,-30,4,3,-7,-50
46.15,52,77,102,21,47,7,13,-36
46.155,95,-1,-40,23,-33,2,28,105
46.16,-56,-2,20,-42,17,-26,-34,-19
46.165,-24,-2,16,48,-35,-31,-21,-43
46.17,26,39,20,-10,-22,18,37,62
46.175,-35,-43,-36,-29,80,38,-28,-104
46.18,17,83,-39,77,-2,-25,-8,32
46.185,-102,-128,10,-22,-45,-41,-67,-83
46.19,-10,113,21,-1,4,-16,-19,-43
46.195,9,92,-2,-60,-87,-17,1,27
46.2,31,71,60,50,7,-3,4,-22
46.205,8,-47,-34,3,-38,-9,-6,45
46.21,21,43,-33,23,58,62,31,13
46.215,-24,-55,-24,-29,-5,11,-11,1
46.22,-72,-103,-86,57,-12,-28,-32,-66
46.225,-66,-77,-45,-87,-47,5,10,61
46.23,-18,63,51,114,48,-51,-25,-70
46.235,16,-8,-5,-80,-46,24,26,104
46.24,37,-65,50,-17,27,7,13,34
46.245,52,3,109,52,30,43,24,49
46.25,13,-67,-128,-118,-96,-36,-14,-4
46.255,-10,81,-9,121,95,33,17,8
46.26,-17,50,8,-96,-14,-7,-11,-57
46.265,-42,-41,-11,-38,-65,-25,-17,-64
46.27,31,-111,-8,71,-14,-33,9,77
46.275,16,120,14,-50,51,87,34,-38
46.28,98,39,37,107,52,16,6,91
46.285,-44,41,-46,-5,-29,-1,12,-116
46.29,-23,53,22,42,-18,-32,-40,-49
46.295,-56,-24,-37,-48,-128,-62,-35,-38
