timestamp,ch1,ch2,ch3,ch4,ch5,ch6,ch7,ch8
14.45,-3,-3,-3,12,-5,-5,-3,-3
14.455,-1,-3,-4,4,2,2,1,0
14.46,0,-1,0,-13,3,-2,-2,-1
14.465,0,-1,3,11,4,1,-1,0
14.47,-1,-1,-1,-9,-1,1,0,0
14.475,-1,0,2,23,3,-2,-2,0
14.48,-2,-2,0,-5,-3,-1,-1,-1
14.485,-2,-1,0,7,1,0,0,0
14.49,0,-2,-1,-17,-3,-4,-3,-2
14.495,-1,-4,-5,19,-6,-3,-3,-3
14.5,-1,0,3,1,0,2,-2,2
14.505,1,0,2,0,1,-1,-1,1
14.51,-2,-2,-1,6,3,-1,-2,-3
14.515,0,0,-3,-14,3,-1,1,-1
14.52,0,-1,-5,-17,-10,1,2,0
14.525,0,1,2,12,1,-2,-2,1
14.53,-4,-4,-3,6,-9,-3,-2,-2
14.535,0,-1,2,-17,-2,-1,0,0
14.54,-1,-2,-1,6,0,-1,0,0
14.545,-2,-1,-2,0,1,-2,1,-2
14.55,1,-2,-2,11,2,-1,-2,-2
14.555,-2,-2,-6,-38,-9,-4,-3,-2
14.56,-1,-2,1,26,0,-2,-1,-1
14.565,-2,-3,-4,-5,-1,-1,-2,-2
14.57,0,1,-3,-4,3,3,1,0
14.575,-2,-2,2,30,-3,-2,-2,-2
14.58,0,1,2,-10,-2,-3,1,-1
14.585,-3,-1,-3,-1,-2,-1,-1,0
14.59,-2,0,5,9,0,-2,-2,0
14.595,-2,-3,-10,-7,-3,-1,0,0
14.6,-1,-1,0,-8,-2,-3,1,0
14.605,0,1,2,5,3,-1,1,-2
14.61,-2,-3,-10,-31,-6,-4,-4,-4
14.615,1,3,13,6,5,1,2,2
14.62,-5,-6,-8,12,-8,-4,-3,-2
14.625,0,0,-3,-1,0,2,-1,-1
14.63,3,1,2,0,1,0,1,0
14.635,0,-1,3,-1,1,-1,-2,0
14.64,2,-3,-10,-6,-1,-2,-4,1
14.645,0,1,6,13,1,0,-1,-2
14.65,-4,-7,-15,-33,-15,-6,-6,-4
14.655,-2,1,3,7,1,0,-2,-1
14.66,2,1,2,-12,4,0,0,0
14.665,-2,-2,-4,3,-1,0,0,1
14.67,1,2,6,13,1,2,3,0
14.675,1,-2,-2,-2,-3,-1,-1,-3
14.68,-1,-1,2,-6,3,2,0,-2
14.685,-2,-1,-3,-9,0,-3,1,-1
14.69,-4,-1,-4,-4,-10,-4,-3,-2
14.695,-2,-1,-7,-7,-1,0,0,-3
14.7,-1,1,5,16,0,-3,-3,-1
14.705,-2,-3,-5,3,0,0,-1,-1
14.71,1,2,6,-16,-2,-2,1,0
14.715,1,-1,-2,-3,-3,-1,-1,1
14.72,-2,0,-3,-7,0,0,-2,-3
14.725,0,1,1,-4,2,1,0,1
14.73,0,0,-4,7,6,0,1,0
14.735,-4,-4,-9,-10,-7,-5,-4,-2
14.74,0,0,3,1,1,0,1,-1
14.745,0,-3,-3,-15,-3,-4,-2,-1
14.75,2,0,2,1,2,2,1,-1
14.755,-2,-1,-3,-10,-1,-2,-2,-3
14.76,-1,-2,1,13,4,-1,-1,-1
14.765,0,0,0,20,-5,-3,-1,-3
14.77,-1,0,-2,-14,4,-1,0,0
14.775,-1,-2,-3,-8,3,2,-1,-1
14.78,-1,-1,-1,-20,-6,-2,-2,2
14.785,-1,-4,-2,-3,2,0,-1,-2
14.79,0,0,4,24,-6,0,0,-1
14.795,0,1,3,10,4,-1,-1,-1
14.8,-3,-4,-7,-22,-4,-3,-2,-3
14.805,-2,0,-4,-6,-1,-3,-2,-2
14.81,-1,-1,-4,-8,1,0,1,1
14.815,0,1,3,6,-1,-2,-2,0
14.82,-2,-2,2,7,-3,-2,1,-1
14.825,-1,-2,-3,-12,-4,-2,-1,-2
14.83,-2,0,0,-3,1,-1,0,-2
14.835,-2,0,1,11,3,0,1,0
14.84,0,0,0,8,1,0,-2,-1
14.845,-3,-4,-7,-15,-10,-1,-2,-2
14.85,-2,1,3,15,0,0,0,-1
14.855,0,-2,0,-11,2,0,-1,-1
14.86,0,2,-1,-7,7,1,2,1
14.865,-3,-5,-3,19,-15,-9,-6,-3
14.87,-2,-5,-3,2,-3,-4,-4,-2
14.875,-3,-3,-1,5,5,-2,-2,-2
14.88,2,1,2,-7,1,1,1,0
14.885,1,2,1,-10,2,1,1,0
14.89,-2,-2,-5,-6,-3,7,0,0
14.895,-2,-1,1,5,-3,-2,-2,-1
14.9,-2,-3,-4,4,1,0,1,-3
14.905,0,2,1,9,7,-1,0,0
14.91,-2,-5,-7,-15,-10,-6,-4,-4
14.915,1,0,0,-9,-2,-1,-1,1
14.92,-3,0,-2,-6,-12,-3,-1,0
14.925,0,-2,-1,11,17,3,0,-2
14.93,-1,-1,0,9,3,0,-2,0
14.935,-2,1,-1,-18,-1,0,2,-1
14.94,0,0,-2,-6,-2,-1,-1,0
14.945,-2,-4,-4,16,-4,-3,-1,-2
14.95,0,1,-2,-12,4,0,1,0
14.955,-1,-4,-7,-19,-8,-3,-1,1
14.96,-3,-1,0,1,-3,-2,-4,-2
14.965,1,5,6,-36,5,4,2,1
14.97,-3,-6,-11,13,-7,-5,-3,-4
14.975,1,4,11,63,7,3,2,1
14.98,-3,-6,-12,-42,-7,-2,-4,-6
14.985,0,0,-1,-27,-5,1,0,1
14.99,-2,2,5,4,-3,-2,-2,-2
14.995,1,-5,-1,14,1,-2,-2,2
15,0,2,4,38,-3,-4,3,39
15.005,-10,-8,-11,-15,-13,-7,-12,-78
15.01,2,-2,1,-11,-2,-2,-3,6
15.015,-6,-2,-5,8,-1,2,2,-8
15.02,10,0,7,16,8,3,7,-2
15.025,-20,-8,5,35,11,-4,-4,16
15.03,9,10,0,-10,-3,3,9,2
15.035,-8,-9,-9,-24,-6,-6,-23,25
15.04,1,5,-4,-110,-7,0,-11,-48
15.045,0,-7,7,59,-1,0,28,32
15.05,-8,-12,-13,-2,-12,-8,-18,-25
15.055,2,0,9,46,20,2,-5,16
15.06,-3,3,1,-47,-10,0,5,6
15.065,9,-5,18,17,16,7,5,7
15.07,-5,-13,-7,-45,-18,-6,2,4
15.075,-3,0,-3,16,-8,-1,9,-12
15.08,17,4,-1,48,7,-2,-8,0
15.085,1,3,-10,-53,-14,-5,-4,-8
15.09,5,1,10,32,17,3,4,15
15.095,19,-5,-15,-79,-19,-5,-5,-9
15.1,-60,-2,10,53,10,2,3,-26
15.105,16,2,-3,20,-4,2,0,27
15.11,-9,17,-2,44,5,-2,2,16
15.115,-1,-8,-5,-36,-6,-4,-2,3
15.12,4,-3,1,18,19,4,-17,-65
15.125,3,0,-11,-7,-23,-6,-12,-2
15.13,-9,-8,-11,-17,-9,-3,-9,-16
15.135,5,6,6,2,8,4,20,10
15.14,-2,-1,11,64,4,-1,9,31
15.145,0,1,1,-22,9,6,25,14
15.15,15,3,3,86,12,0,-16,-14
15.155,-18,-11,-18,-23,-28,-17,-18,-21
15.16,4,-3,1,-38,-6,0,2,21
15.165,3,-7,6,27,8,2,-2,0
15.17,-3,9,-5,-83,-9,3,21,22
15.175,-1,1,-2,21,2,3,-2,-41
15.18,17,4,2,27,19,5,2,78
15.185,-13,-1,-8,2,-19,-9,-14,-45
15.19,7,-12,-25,-57,3,-2,33,20
15.195,-9,-9,-1,15,-12,-8,-57,-19
15.2,22,2,-7,40,-10,-3,2,9
15.205,16,4,11,13,6,5,-4,30
15.21,-51,-34,1,-56,-7,-3,-12,-53
15.215,-9,7,-7,-49,-10,-1,12,13
15.22,22,6,0,37,24,4,11,-2
15.225,30,10,-15,-5,-33,-10,-3,14
15.23,-52,-2,18,10,12,-2,-9,-32
15.235,-9,8,14,31,3,2,25,34
15.24,-12,-12,5,-22,-28,-8,-11,-5
15.245,1,25,13,59,33,15,40,36
15.25,-4,-28,-29,-56,-32,-14,-32,-14
15.255,10,6,12,61,29,11,16,20
15.26,9,-2,0,-12,-21,-12,-33,-21
15.265,-32,19,13,26,32,12,13,14
15.27,20,10,-13,25,4,8,31,-33
15.275,18,-17,-7,-71,-11,-8,-34,30
15.28,-19,-8,-24,-62,10,4,0,-11
15.285,26,-11,-5,37,3,-3,15,-8
15.29,-19,18,9,60,14,1,-16,23
15.295,13,15,54,35,20,6,-11,-52
15.3,12,14,37,-22,-10,4,11,22
15.305,-20,-19,-29,-123,-32,-20,-31,-32
15.31,102,6,-1,23,4,12,39,55
15.315,-67,-36,4,6,-21,-15,-30,-52
15.32,39,5,-13,22,-4,-1,11,21
15.325,-9,-31,29,-9,36,10,6,19
15.33,-7,4,4,-21,-7,-6,-28,-45
15.335,33,47,-17,85,18,1,16,13
15.34,-18,-12,-2,-1,-9,-4,4,-1
15.345,-25,-16,-68,-3,-28,-6,25,-23
15.35,24,13,30,15,18,2,-44,49
15.355,-3,-18,-19,-32,2,10,30,19
15.36,-6,18,42,108,43,6,23,45
15.365,15,-25,48,-40,-29,-3,-41,-37
15.37,-22,4,20,-18,0,1,16,17
15.375,29,-13,-52,-89,-35,-10,8,-8
15.38,-41,-5,-30,35,-19,0,0,-30
15.385,30,-51,75,29,19,14,7,19
15.39,29,10,28,37,7,-7,-35,-4
15.395,-75,-5,-32,3,-10,-8,9,-19
15.4,10,-15,-36,-13,-5,-5,-17,-17
15.405,-37,17,-28,-49,-16,-9,-17,-68
15.41,93,43,56,94,30,15,36,107
15.415,55,6,22,-53,-3,-3,-49,-78
15.42,-25,-24,-17,75,-39,-24,-6,7
15.425,17,-5,45,-3,0,6,-2,-5
15.43,-11,-3,-14,-41,7,9,29,38
15.435,44,37,-14,28,10,-9,10,87
15.44,-5,-16,23,-23,2,0,-52,-43
15.445,5,30,-22,3,36,7,-2,15
15.45,-17,-12,26,57,-19,-8,2,-38
15.455,-24,-10,24,-53,-29,0,18,20
15.46,-3,17,-15,19,3,-10,2,-33
15.465,-21,-4,23,-62,-4,2,-9,26
15.47,-36,-20,-26,40,12,9,12,3
15.475,4,-7,7,91,18,-1,43,55
15.48,-48,8,28,17,8,3,-12,-65
15.485,6,24,-58,6,-31,-19,-66,35
15.49,10,-1,-22,-65,-15,-4,4,-7
15.495,-31,-31,-18,-45,-21,-2,36,-13
15.5,44,19,-15,-25,15,8,-1,22
15.505,-47,27,-55,42,1,-12,2,-23
15.51,-34,12,-11,-10,-8,-7,-13,-35
15.515,61,22,38,17,24,18,13,15
15.52,10,-12,3,-49,-9,-4,22,12
15.525,0,6,1,-21,-8,-7,-7,-19
15.53,-2,2,-42,-9,-9,-10,-15,-22
15.535,-13,7,-6,-72,-43,-3,-1,-4
15.54,4,10,26,-5,14,2,-6,-1
15.545,8,-9,-27,101,-3,1,3,-1
15.55,1,-5,-3,5,-4,-2,43,10
15.555,1,-17,9,4,40,-1,-70,-7
15.56,-12,-32,-52,-19,-11,-10,-19,40
15.565,-19,6,13,-41,-7,3,2,-26
15.57,2,-11,11,34,10,-6,-9,-16
15.575,1,14,3,20,-1,5,21,-10
15.58,25,9,0,-1,0,5,13,17
15.585,4,0,-49,13,2,-2,14,11
15.59,-19,-17,-39,-21,12,3,-15,-2
15.595,6,-11,-2,79,-21,-11,-13,-26
15.6,3,-26,-14,-95,-25,3,3,-2
15.605,35,25,44,90,26,0,18,23
15.61,-30,-11,36,-83,0,6,15,-26
15.615,-4,-19,27,-23,-31,-12,-45,24
15.62,-18,11,10,-23,18,2,-7,-11
15.625,4,-2,12,-51,-17,-1,-6,14
15.63,10,8,9,74,20,4,-6,-39
15.635,10,10,-21,29,15,8,25,53
15.64,-18,-21,0,-29,8,1,-2,-55
15.645,6,-7,10,-8,-23,-7,-2,20
15.65,-1,-11,-15,28,-11,-8,-13,4
15.655,-3,-6,-20,-73,7,3,16,-21
15.66,5,7,-34,33,5,2,4,11
15.665,7,-8,-22,-13,26,-5,-5,-3
15.67,-5,-10,-18,9,-15,-5,-6,-13
15.675,-13,0,-15,-78,-24,4,0,-4
15.68,7,9,-4,11,-19,-10,2,11
15.685,-9,-9,4,-11,-13,-2,-5,-14
15.69,2,-1,12,-53,-3,-2,-5,24
15.695,-18,-1,14,96,20,-5,-7,-21
15.7,4,5,13,24,9,-4,3,6
15.705,1,-10,-11,-31,13,2,4,-3
15.71,1,19,-19,-33,-21,0,-12,-3
15.715,5,0,21,40,16,12,7,-4
15.72,-5,-10,-14,-23,-32,-13,0,-6
15.725,1,3,19,15,2,-1,0,7
15.73,2,-12,7,-2,3,-1,-3,6
15.735,-6,2,-12,-27,18,8,0,-11
15.74,2,7,-12,19,-11,-8,5,13
15.745,2,6,-3,-74,-33,-6,4,-2
15.75,-2,-4,9,22,11,3,-40,-11
15.755,-5,-2,-4,1,1,-4,6,-8
15.76,3,-1,4,-6,14,7,-4,-1
15.765,0,-3,-21,6,-2,5,22,-2
15.77,3,-1,8,16,0,-5,-19,11
15.775,-1,4,9,32,12,0,0,4
15.78,2,7,18,63,-20,-2,1,3
15.785,-2,0,0,15,-1,-1,-5,2
15.79,-5,-8,-5,-34,-10,-7,9,2
15.795,-7,-7,14,24,18,-7,-11,-9
15.8,1,5,13,-74,-8,5,7,7
15.805,0,-6,33,43,11,-2,-4,1
15.81,0,0,3,6,-1,5,7,-2
15.815,-6,-2,7,15,-17,-13,10,10
15.82,-2,7,-2,16,4,1,-14,-25
15.825,-2,-7,-28,-23,-2,-2,9,8
15.83,3,11,-6,-16,0,-3,6,24
15.835,-5,-3,15,11,5,2,-17,-66
15.84,6,-7,0,-5,3,5,13,29
15.845,-10,-5,2,3,7,-1,-12,-34
15.85,-5,-5,7,27,-1,-2,19,-1
15.855,5,4,-14,-14,-12,0,2,21
15.86,-5,-7,3,-19,7,-3,-5,-4
15.865,6,4,9,3,-5,-1,-3,0
15.87,-1,-2,-4,19,-7,0,7,6
15.875,-1,-3,11,43,19,3,-3,-1
15.88,0,-3,-5,-29,-2,0,-2,-5
15.885,3,5,4,10,-6,-1,-3,14
15.89,-5,-10,-5,-11,-10,-6,-7,-14
15.895,-1,1,-4,-9,0,0,-2,6
15.9,0,-6,-4,23,0,-1,6,-1
15.905,1,-3,-4,-14,11,2,2,4
15.91,0,20,-1,17,-12,-10,-13,-12
15.915,-1,-2,-3,-30,-13,-4,1,-1
15.92,0,0,0,16,2,1,5,10
15.925,0,-1,-6,-9,0,8,-5,-1
15.93,-1,-3,-5,-15,5,-1,-1,-5
15.935,-2,-4,-12,-22,-5,-2,0,5
15.94,-4,1,-1,-9,-8,-6,-4,-2
15.945,0,0,1,12,-3,-2,-4,-2
15.95,-1,-7,2,-1,-2,-3,0,-2
15.955,-1,0,-7,-17,-3,0,3,1
15.96,1,-3,3,11,13,1,-2,0
15.965,-2,-3,-3,-8,1,-1,-1,-3
15.97,0,-13,17,-13,3,3,3,6
15.975,-8,-5,-9,7,-13,-7,-7,-8
15.98,0,3,2,21,5,1,0,1
15.985,0,0,-3,-21,-3,-1,-1,5
15.99,-1,-5,-1,14,-6,-4,-3,-9
15.995,1,1,-11,-4,3,1,1,5
16,-3,-18,12,-10,-4,-2,1,-2
16.005,-2,0,3,9,0,-1,-2,-2
16.01,0,2,-3,-9,-7,-1,-1,0
16.015,1,2,2,13,6,1,-1,-1
16.02,3,4,-8,-3,1,3,2,1
16.025,-1,1,6,0,4,-3,-4,-1
16.03,-1,-3,-2,-8,-3,-3,-3,-2
16.035,-2,-4,-1,11,3,4,2,2
16.04,-1,1,-1,16,-2,-2,2,2
16.045,-2,-2,1,-38,1,-2,-5,-3
16.05,0,1,-3,-1,-2,2,1,-1
16.055,-2,-4,0,2,-6,-4,-1,2
16.06,0,0,-3,-7,3,-3,-3,-1
16.065,-2,-2,-6,14,-16,0,-1,-1
16.07,-3,0,-2,-2,13,4,0,-2
16.075,1,-3,-7,-19,2,0,0,0
16.08,-1,2,8,15,0,-2,1,0
16.085,-2,-8,-13,-21,-7,-2,-2,-2
16.09,-1,0,0,-16,-4,-1,0,-1
16.095,-1,1,4,14,-2,-2,-3,-1
16.1,0,-2,-5,-5,2,0,0,-2
16.105,-1,-1,-1,10,-2,-5,-3,-2
16.11,-2,-3,-3,4,0,1,-3,-4
16.115,0,-1,-2,-10,0,-4,0,-2
16.12,0,1,5,-1,0,1,1,2
16.125,-4,-6,-9,-12,-11,-2,-4,-4
16.13,0,-3,-1,-1,-1,-4,-2,-2
16.135,-1,0,1,6,4,-2,-1,0
16.14,0,-3,-3,-20,0,5,2,1
16.145,-5,-6,-12,32,-5,-7,-4,-2
16.15,0,0,1,6,2,-2,1,-1
16.155,0,-1,2,14,3,1,0,-1
16.16,-2,-2,-4,-20,-9,-5,-3,-5
16.165,3,3,9,8,8,3,2,1
16.17,-5,-5,-8,1,-11,-3,-3,-4
16.175,0,0,1,-11,-1,-3,-2,0
16.18,2,-1,-2,27,9,6,2,-1
16.185,-1,-1,3,-40,-2,-3,0,3
16.19,-1,-4,-9,-14,-9,-4,-2,-2
16.195,-1,-1,-2,2,0,-1,-1,-1
16.2,0,2,2,11,5,2,0,-1
16.205,-1,0,-2,-12,-12,-2,-1,0
16.21,0,0,1,2,3,1,2,0
16.215,-1,0,0,-1,2,1,-1,1
16.22,-4,0,-4,-14,-11,-7,-2,-3
16.225,1,0,-1,25,11,2,-3,0
16.23,-2,-3,-5,-24,-4,-1,0,0
16.235,-3,-3,-2,10,-4,-2,-3,-4
16.24,-1,1,2,-12,-4,-2,-1,-1
16.245,-1,1,5,24,10,4,2,0
16.25,1,2,-3,12,5,0,0,0
16.255,0,0,-2,-29,-4,1,-1,-1
16.26,-3,-5,-7,2,-7,-4,-5,-1
16.265,-1,0,10,13,-4,-1,1,-2
16.27,0,-2,-3,-5,0,-2,-2,0
16.275,-3,-3,-5,3,-2,-4,-1,-2
16.28,2,-7,19,4,9,1,0,0
16.285,2,-9,14,39,5,1,1,0
16.29,-6,-7,-18,-35,-16,-6,-4,-4
16.295,1,-2,-4,21,-7,-1,0,1
16.3,-3,-1,-14,-32,-5,-1,-2,-2
16.305,1,3,3,10,5,0,0,-1
16.31,3,3,13,20,13,3,3,0
16.315,-2,-3,-4,-11,-7,-4,-4,-3
16.32,2,0,-3,0,-4,-1,-2,-2
16.325,-3,-4,-10,-9,-5,-2,-1,-1
16.33,-4,-2,-7,-3,-3,-1,-3,-1
16.335,0,-1,-4,-7,0,0,0,0
16.34,0,1,1,4,1,1,0,0
16.345,0,0,-5,-12,-2,-3,-3,-1
16.35,0,1,0,7,-1,0,-1,-1
16.355,-1,-1,2,3,3,1,2,1
16.36,-5,-2,-4,-2,-6,-5,-2,-1
16.365,0,0,-4,0,-2,-3,-1,0
16.37,0,1,1,-21,2,3,0,-1
16.375,-3,-3,2,8,-6,-2,-3,-4
16.38,-4,-3,-17,-22,-14,-5,-3,-2
16.385,-3,-2,-15,-4,-7,-2,-3,-1
16.39,0,2,9,15,11,2,0,1
16.395,0,3,2,-3,-7,-2,1,-1
16.4,-1,-1,4,7,9,0,-2,-2
16.405,0,2,14,62,9,1,0,0
16.41,-3,-5,-17,-62,-17,-5,-2,-3
16.415,-2,-3,-6,-23,-5,-4,-3,0
16.42,-1,1,0,-7,0,1,0,0
16.425,0,0,0,-10,-4,-3,-3,-2
16.43,2,3,10,39,10,2,1,0
16.435,-1,-2,-4,-7,3,0,-2,-1
16.44,-1,-3,-6,6,-2,-1,0,-2
16.445,-3,-2,-3,-12,1,1,-2,-1
16.45,-2,1,9,27,-8,-4,-3,-2
16.455,5,6,5,-11,7,4,4,3
16.46,0,-1,-2,10,-4,-4,-2,0
16.465,-2,-2,-10,-25,-3,-1,0,-3
16.47,-2,-2,4,4,0,0,-2,-4
16.475,-2,-1,0,11,0,0,-2,-2
16.48,0,0,3,8,3,1,-1,1
16.485,1,-1,1,-9,-2,-3,0,0
16.49,-2,-3,-5,1,-6,-1,-1,1
16.495,-1,-1,-2,13,7,1,2,-2
16.5,-5,-5,-8,-13,-18,-9,-4,-4
16.505,-2,-2,-4,-15,-4,-1,-1,-2
16.51,0,1,3,10,10,1,2,1
16.515,-1,-1,0,10,3,3,-1,0
16.52,0,2,-3,2,7,2,1,-1
16.525,-3,1,-1,-6,-7,-1,0,0
16.53,0,-1,-2,-7,-3,-4,-2,-1
16.535,-1,-1,5,22,0,-3,-2,1
16.54,-1,2,-3,-11,-3,5,1,0
16.545,-1,-2,-1,0,-1,-4,-1,-1
16.55,1,0,0,0,-1,-2,-1,-1
16.555,-1,-1,-2,-5,2,-2,0,-1
16.56,0,-3,-3,-4,-3,-1,-1,-1
16.565,0,-2,2,6,-2,-1,0,0
16.57,0,-1,-4,-18,-6,0,-1,-2
16.575,-3,-2,-5,-8,-2,-2,-1,-2
16.58,-1,0,2,20,4,-3,-2,-2
16.585,-1,-2,-1,-14,10,5,2,0
16.59,-2,-2,-5,-27,-7,-1,0,0
16.595,0,-2,2,2,-8,-4,-4,-1
16.6,-4,-2,-5,10,-10,-3,1,-1
16.605,1,1,2,18,5,-3,-1,-1
16.61,-3,0,0,0,7,2,0,0
16.615,-1,0,-3,-4,-9,-2,-2,-1
16.62,-1,-3,1,-8,9,-1,-1,-1
16.625,0,1,1,-2,-5,-1,-1,-1
16.63,1,0,-1,20,-1,-1,0,-1
16.635,-3,-3,-7,-28,0,1,-1,-2
16.64,-1,-2,3,11,-11,-5,-4,-1
16.645,0,-2,-1,8,7,1,-2,-3
16.65,0,-2,-4,-23,4,1,2,1
16.655,0,1,1,-40,-3,0,0,1
16.66,1,-1,-4,31,8,2,0,0
16.665,-2,-2,-2,-18,-4,-2,-2,-2
16.67,-3,-2,-1,31,0,0,-2,0
16.675,-5,-5,1,-5,-3,-4,-2,-4
16.68,6,2,0,-28,1,2,2,3
16.685,-5,1,3,-4,-4,-3,1,-1
16.69,3,0,-2,-1,-3,-3,0,-2
16.695,3,1,-6,-18,5,4,5,4
16.7,-3,-1,10,28,-1,-4,-4,-4
16.705,1,0,-5,-2,1,0,-1,-1
16.71,0,1,3,-14,-1,2,2,16
16.715,0,-2,0,21,1,-1,-1,24
16.72,-3,-3,-9,-41,-6,-1,-4,-14
16.725,-2,0,-4,-2,-5,1,8,0
16.73,0,-3,12,-2,1,1,0,-6
16.735,-3,1,-3,-2,1,-3,-20,-1
16.74,-3,-2,6,-7,-2,0,1,5
16.745,0,-4,-10,6,0,-3,-3,-6
16.75,1,1,3,37,2,-2,5,6
16.755,-3,-3,-5,-19,3,1,1,-10
16.76,-5,-2,-11,-1,-9,-3,-5,-9
16.765,-2,0,-2,-43,-10,-3,-5,-5
16.77,-2,-2,-5,3,-4,-4,-2,-4
16.775,3,0,1,11,3,1,1,-5
16.78,2,3,5,4,10,3,5,20
16.785,0,-4,1,18,-5,-1,-2,11
16.79,-1,-3,-3,18,-1,-3,-6,-9
16.795,0,1,3,-3,0,0,-1,-7
16.8,-5,-4,1,23,-9,-7,-1,-4
16.805,2,0,1,-2,8,0,2,14
16.81,-1,1,-7,-34,-15,-1,-3,-1
16.815,0,0,3,35,6,1,0,-12
16.82,2,-6,-8,-58,-15,-4,-3,14
16.825,-13,-5,-1,16,-9,-8,-10,-18
16.83,-1,1,2,-13,-2,-2,-1,-6
16.835,-1,1,4,25,3,0,3,-1
16.84,0,0,-3,0,9,4,-6,-8
16.845,0,-5,-2,9,-8,-5,-4,-6
16.85,-1,-1,-3,-5,1,-2,4,-4
16.855,-2,1,6,15,-4,-4,-21,-7
16.86,-2,-4,-7,-16,5,2,2,-5
16.865,1,1,-7,-37,-2,2,0,-3
16.87,-3,-1,2,21,1,0,1,6
16.875,2,-12,15,-10,-3,-2,6,1
16.88,3,3,3,-45,8,4,3,31
16.885,-7,-4,-3,36,4,-2,-3,-77
16.89,-2,-3,-3,-10,-3,-2,-6,0
16.895,1,1,-9,-4,-6,1,7,5
16.9,-1,3,15,59,8,0,10,0
16.905,1,-5,-12,-30,-6,-3,-11,18
16.91,2,1,-4,-17,5,2,-3,-5
16.915,-12,8,4,12,-6,-7,-8,-22
16.92,-3,3,7,-36,-3,0,4,11
16.925,1,1,-4,35,-2,1,3,13
16.93,1,-5,-6,5,11,2,-2,-8
16.935,0,-2,-11,-14,-8,-5,6,14
16.94,-3,-3,-7,-30,-17,-3,4,-18
16.945,4,-5,30,9,9,0,-24,3
16.95,-3,0,-6,-5,-4,-3,-6,-7
16.955,4,0,2,-12,7,6,17,16
16.96,-7,-6,-7,34,1,-7,-8,-16
16.965,4,0,-8,-31,-7,0,7,37
16.97,-3,-3,6,34,2,-3,-8,-13
16.975,0,-2,-4,-21,2,2,-3,-6
16.98,2,1,5,18,2,-1,5,-7
16.985,0,0,-5,-8,-4,-1,11,34
16.99,-2,-2,-3,-18,-1,1,-17,-16
16.995,4,8,34,-10,0,-1,6,-4
17,5,1,11,53,0,-1,-15,-1
17.005,-1,4,4,-5,1,-1,12,-3
17.01,1,0,7,62,6,0,12,12
17.015,0,-5,-37,-44,-17,-3,-4,-13
17.02,-5,-3,-22,-46,-1,-2,-9,-4
17.025,2,0,25,68,18,3,2,-4
17.03,-2,-2,-14,-106,-31,-7,-2,-4
17.035,-3,-3,-5,18,-3,-5,-7,10
17.04,-1,-1,-16,-13,9,4,4,-2
17.045,0,-7,14,17,-2,-3,-2,-10
17.05,-1,1,2,17,13,2,-2,6
17.055,-4,-8,-5,50,-7,-4,1,1
17.06,-1,-5,1,-42,-10,-6,-4,-6
17.065,-4,1,-8,-33,-5,0,-5,-15
17.07,11,6,19,33,16,6,17,62
17.075,-24,-17,-23,-39,-28,-13,-5,-45
17.08,2,6,14,63,19,5,-7,6
17.085,0,4,-22,-54,-5,-1,-6,18
17.09,-6,0,-9,-56,-23,-2,0,-15
17.095,0,1,-4,18,15,3,-11,-9
17.1,-3,-1,7,25,-6,-1,14,15
17.105,5,-4,-9,-34,-7,-6,0,-10
17.11,-12,-3,-8,-19,-15,-10,-10,-15
17.115,-1,-8,2,20,11,1,3,3
17.12,2,-3,-20,7,10,10,3,-5
17.125,11,7,18,-4,11,7,2,32
17.13,-11,-4,-4,-21,-7,1,23,-10
17.135,-8,-6,-21,-24,-9,-10,-62,-34
17.14,3,-2,-2,-22,-4,-7,-4,28
17.145,-5,-1,-6,1,-2,-6,-1,-11
17.15,3,0,5,-12,8,14,2,8
17.155,5,0,-3,80,14,-2,26,23
17.16,-3,6,18,92,11,4,-16,-9
17.165,-12,-20,-23,-52,-26,-4,0,3
17.17,2,-7,-29,-85,-7,-9,-11,-16
17.175,9,-1,11,52,-9,4,24,38
17.18,-3,18,24,-6,-10,-17,-64,-43
17.185,-21,-4,16,71,13,6,-7,-31
17.19,5,-14,-1,34,11,3,4,24
17.195,11,-5,-11,-30,2,4,11,12
17.2,-4,-2,-4,-52,-13,-6,23,7
17.205,9,8,-2,81,6,-5,9,-71
17.21,-37,-2,5,-2,-24,-12,-19,8
17.215,-2,3,12,-3,11,-1,-18,-29
17.22,-4,-11,-40,-5,-5,0,10,4
17.225,16,16,7,-31,16,8,1,20
17.23,22,4,7,127,40,11,25,10
17.235,-1,11,26,30,5,4,30,-3
17.24,-2,-24,-72,-92,-54,-20,-33,-24
17.245,-22,1,-22,45,1,-10,-3,20
17.25,11,5,8,4,6,12,5,-18
17.255,0,11,22,-44,6,5,9,24
17.26,15,3,45,114,36,1,-1,21
17.265,-13,-16,-35,55,-27,-8,6,-29
17.27,-5,-6,15,19,-17,-3,-1,-21
17.275,6,1,-6,-15,13,2,-10,-5
17.28,-5,12,33,-21,8,6,12,33
17.285,-2,-6,-16,-22,0,-1,-5,32
17.29,4,2,-14,-53,-12,-3,-9,-14
17.295,5,20,19,25,9,0,13,7
17.3,-4,-17,-21,-103,-20,-4,7,-17
17.305,-2,7,28,21,12,2,-1,19
17.31,-1,-1,-8,-8,-15,-9,12,7
17.315,-6,-6,-30,-3,-1,4,-14,-19
17.32,2,7,21,102,20,1,9,1
17.325,34,2,6,-92,-30,5,-1,-1
17.33,-12,-7,3,22,-8,-4,33,76
17.335,-27,-35,-39,-107,-27,-13,-77,-85
17.34,4,1,20,82,-2,-8,-5,3
17.345,-8,-7,-13,-117,-24,-3,41,0
17.35,21,-3,2,65,20,-2,-95,-42
17.355,0,1,-4,-56,-3,5,14,48
17.36,-8,-11,17,38,0,4,21,12
17.365,13,22,24,-24,19,0,14,-9
17.37,-12,-14,-15,-4,-29,-20,-30,-39
17.375,-14,-7,-15,-55,8,9,5,29
17.38,0,3,-2,69,14,2,-1,-19
17.385,10,3,-8,-65,-12,-5,19,59
17.39,-29,-21,28,77,36,-4,-15,-46
17.395,6,-4,-12,-10,-25,-1,22,58
17.4,-2,-6,-17,-36,2,11,3,-101
17.405,-10,-4,-6,2,-11,-4,-12,14
17.41,1,5,4,20,6,-3,-21,6
17.415,-9,-2,7,-7,11,-8,-55,21
17.42,8,6,-27,17,10,16,47,45
17.425,4,-13,-20,24,-33,-22,-33,16
17.43,-42,16,-18,-94,1,8,13,1
17.435,9,18,1,64,5,11,38,-10
17.44,-18,-19,-64,-128,-33,-16,-14,-29
17.445,1,-2,-5,46,27,4,-5,-15
17.45,21,-2,6,28,-13,-7,2,1
17.455,7,-29,62,62,22,3,11,15
17.46,-10,5,25,5,1,-1,-10,5
17.465,6,11,49,-15,-15,0,19,-20
17.47,12,20,-3,-6,13,-2,-8,52
17.475,-10,11,13,77,-5,-4,8,-21
17.48,12,-3,-27,-52,-12,-2,6,92
17.485,-23,29,-21,6,21,4,-60,-64
17.49,8,-1,17,51,4,3,37,29
17.495,23,10,26,-27,-13,-4,7,-1
17.5,-10,-3,24,8,13,2,8,-8
17.505,7,1,58,92,7,7,14,12
17.51,-11,3,-55,-101,-21,-13,11,0
17.515,-4,-6,-26,-34,-6,2,0,19
17.52,19,-10,0,27,-2,4,-19,45
17.525,5,2,17,18,25,9,-16,-14
17.53,-4,-21,15,4,-6,-1,-7,-33
17.535,7,-9,-21,6,-36,-18,26,23
17.54,4,24,24,-31,-9,-3,-8,0
17.545,4,-13,-6,21,7,15,-1,5
17.55,23,0,2,-70,-9,0,23,-37
17.555,-3,9,-44,49,-16,-19,-13,11
17.56,-6,1,9,21,10,-1,-20,-36
17.565,-6,-18,-40,-41,-17,-8,-1,-3
17.57,1,18,54,35,24,17,3,1
17.575,-7,7,10,-51,4,2,5,-13
17.58,-4,9,35,37,15,5,-3,-21
17.585,-17,-26,-57,-83,-42,-22,-15,-6
17.59,-9,11,-19,39,-11,2,39,-3
17.595,2,3,25,-13,13,-4,-77,-31
17.6,2,5,6,73,20,-2,-7,-6
17.605,2,7,-23,-7,-1,-4,5,23
17.61,2,-38,65,-24,-7,3,-18,-20
17.615,14,20,62,83,16,10,33,44
17.62,-5,-1,-25,-61,-8,-4,1,-21
17.625,2,-1,15,31,2,-2,6,34
17.63,16,13,6,25,26,11,9,23
17.635,-27,-26,-32,39,-4,-12,-10,-48
17.64,8,-8,-8,-76,-34,-3,10,38
17.645,0,4,-9,-21,11,-2,4,-12
17.65,-6,4,19,72,10,4,-3,-40
17.655,-5,0,-23,-57,6,6,2,7
17.66,8,-11,17,44,-11,-16,-1,-11
17.665,-11,-9,70,10,-7,1,12,10
17.67,8,11,-12,16,15,-6,-45,-10
17.675,1,-1,6,-12,-1,1,15,3
17.68,-11,-7,-44,-105,-25,-1,0,-25
17.685,20,9,19,63,25,12,42,-15
17.69,-4,-9,-34,-12,-27,-16,-32,103
17.695,-10,-19,39,5,-13,-5,-2,-108
17.7,-16,-28,-35,6,-10,-10,-2,2
17.705,-4,-2,-18,-17,5,7,-14,7
17.71,-4,4,-21,-12,0,3,29,5
17.715,5,23,-35,43,10,1,-9,11
17.72,-1,-13,57,-7,3,1,0,-36
17.725,-9,-13,-11,-8,-5,-7,-21,-14
17.73,-5,-4,-11,-28,-3,-12,-11,-12
17.735,12,1,-11,-47,-10,5,17,25
17.74,-4,2,-1,15,7,9,7,-33
17.745,-6,3,6,1,7,5,45,-21
17.75,-12,-6,0,38,-21,-24,-85,-17
17.755,-2,-10,-50,-74,-17,-4,12,4
17.76,-4,6,1,-71,-29,-6,5,52
17.765,8,6,48,66,12,5,10,-50
17.77,6,-1,-19,-41,3,6,16,-9
17.775,-8,-4,17,109,14,0,-4,-3
17.78,2,-5,-25,-42,-5,-1,-4,21
17.785,-3,-10,-53,-23,3,0,-22,20
17.79,1,-22,21,4,1,5,34,22
17.795,-10,6,4,-5,-1,-4,-23,-12
17.8,6,10,12,52,24,11,17,6
17.805,-4,7,-12,5,-11,-10,-22,5
17.81,-11,-5,-6,-26,-1,5,5,-18
17.815,2,4,12,25,23,3,15,-9
17.82,-3,1,-20,-59,-25,-7,-14,-12
17.825,-3,-8,9,36,4,-3,-16,-3
17.83,30,9,5,41,15,8,51,51
17.835,-11,-13,-20,-122,-35,-7,-45,-20
17.84,-5,18,20,112,8,2,6,0
17.845,-8,-8,24,15,-9,-5,-28,-14
17.85,4,1,12,-77,11,0,18,14
17.855,16,-7,-29,4,-10,-5,18,65
17.86,-4,5,14,24,19,8,-27,-104
17.865,-9,-1,-10,-24,-11,-1,6,51
17.87,8,10,0,15,15,9,1,-8
17.875,4,6,23,-25,13,7,12,-10
17.88,-11,-11,-52,16,1,-12,27,43
17.885,11,1,-6,-20,-4,-8,-25,16
17.89,-20,-2,-14,-4,-19,-8,-8,-50
17.895,1,-10,5,28,5,-1,-30,-10
17.9,5,13,-15,-62,-11,1,10,16
17.905,-2,0,-13,-6,17,10,23,-13
17.91,-5,5,0,18,-10,-3,-5,-12
17.915,-12,-6,-27,-28,-13,-12,-3,7
17.92,7,-15,29,54,21,2,1,9
17.925,-6,-15,11,-31,-15,-5,-3,3
17.93,-2,-3,-15,-5,-10,-1,0,-3
17.935,3,14,27,13,30,12,11,-7
17.94,-9,-9,-20,-14,-16,-9,-19,-3
17.945,-4,-3,-15,-37,-16,-8,0,0
17.95,-2,0,-18,10,0,-3,-5,-17
17.955,1,2,4,18,14,9,10,6
17.96,-1,3,-10,-20,-17,-4,-7,14
17.965,-2,-14,11,42,7,5,0,-14
17.97,7,10,40,-7,1,1,10,52
17.975,-13,-32,57,-2,-2,-6,-19,-90
17.98,0,0,2,-25,3,-1,-2,6
17.985,1,9,3,25,8,4,-1,-4
17.99,-13,-23,-8,15,7,2,-2,-5
17.995,7,6,-15,-14,-15,-3,10,28
18,-1,3,25,10,3,1,-2,-1
18.005,-2,-2,8,-1,9,-6,-2,-11
18.01,2,5,-8,-8,2,6,-4,1
18.015,-3,5,-10,17,-19,-2,4,11
18.02,-3,-7,-9,10,2,-3,-8,-10
18.025,0,8,-9,5,-2,-8,2,12
18.03,0,3,0,47,19,5,-3,-13
18.035,-4,-3,-21,-29,-26,-10,0,4
18.04,6,1,4,-31,6,10,8,6
18.045,-6,-2,-2,5,1,-2,-18,-2
18.05,-6,4,-5,21,-3,-10,-5,-3
18.055,-5,-6,-31,-11,-2,-3,-2,0
18.06,-3,-8,-15,32,-2,-2,0,9
18.065,-3,-9,8,-3,-9,-4,1,-8
18.07,-2,0,-16,-25,-15,-6,-7,-13
18.075,1,5,-4,3,9,4,6,21
18.08,-3,1,6,-4,-6,-5,-6,-5
18.085,2,6,-6,1,-2,-2,1,-2
18.09,-3,-13,-6,-11,-7,-1,-5,-3
18.095,-4,3,1,4,-9,-9,-1,-7
18.1,7,4,10,11,8,5,-1,-2
18.105,-4,2,6,14,14,-1,-1,-4
18.11,3,-1,-7,-22,-13,0,0,0
18.115,1,1,-1,-9,4,3,4,7
18.12,-5,-2,13,12,-2,-4,-3,-5
18.125,3,-1,6,5,6,5,2,8
18.13,-7,-6,-9,-13,-11,-11,-7,-6
18.135,-2,-1,9,19,2,2,-2,-1
18.14,-2,2,0,13,3,-2,-2,-3
18.145,-1,-1,-14,-32,-6,-3,0,-2
18.15,1,1,4,10,0,0,-1,-4
18.155,-1,0,0,20,1,-3,-1,0
18.16,0,-9,25,-25,-4,-2,-1,2
18.165,-2,1,-4,11,1,3,0,-2
18.17,0,-1,1,-10,-2,-3,-2,-5
18.175,0,-1,-1,1,-3,-4,-1,3
18.18,-1,3,0,-23,5,0,0,-1
18.185,-2,-6,-3,30,-11,-3,-3,-3
18.19,-4,8,-12,-14,-7,-6,-4,-6
18.195,4,2,-2,2,5,0,0,1
18.2,0,2,2,7,2,1,-1,-1
18.205,-2,-2,-5,-18,-7,-2,-1,-2
18.21,-1,1,-2,-4,-1,1,-1,0
18.215,-3,-1,0,5,-9,-5,-3,-1
18.22,-3,-3,-3,-13,7,4,0,-3
18.225,1,0,1,7,4,3,2,0
18.23,-2,-4,2,-11,-5,-4,0,-2
18.235,-2,15,-10,-5,1,-3,-4,-4
18.24,-1,-4,-8,19,-2,-2,-1,2
18.245,-3,1,-7,-19,-9,-4,-2,-2
18.25,1,-4,1,2,3,1,-2,0
18.255,0,0,2,3,8,3,2,1
18.26,-2,2,-3,4,-5,-4,-2,-1
18.265,0,-1,-3,-9,3,1,-2,-2
18.27,-2,-2,-2,10,-5,-3,-2,-1
18.275,-1,-6,0,0,-6,-2,-1,0
18.28,-2,-1,-1,5,-1,-5,-1,-2
18.285,0,-3,2,-1,9,6,2,-2
18.29,0,-4,0,-14,-6,0,1,-1
18.295,-1,-4,-3,0,-3,-2,-1,-1
18.3,0,-1,-4,6,-1,0,0,-1
18.305,-4,-2,-7,-7,-8,-6,-3,-3
18.31,0,0,3,7,10,1,-1,-1
18.315,-1,-4,-1,-7,1,1,-1,0
18.32,1,2,1,3,2,0,-2,1
18.325,1,-2,0,-4,-10,-4,-2,1
18.33,-1,-2,-4,-1,-1,-1,0,-2
18.335,-1,-2,7,1,-1,-4,0,1
18.34,0,-2,-3,0,-1,-1,-2,-2
18.345,-1,-1,-2,-7,-5,-2,-2,-1
18.35,0,0,-3,-4,-1,1,-1,-1
18.355,-1,-2,0,9,-2,1,-1,-1
18.36,-2,0,-2,-2,1,0,1,-2
18.365,-2,3,3,0,0,0,1,1
18.37,-3,-4,-5,-4,5,-5,-3,-2
18.375,-1,-2,-1,-10,-9,3,-1,0
18.38,-1,-4,-4,-7,-4,0,-2,-1
18.385,0,-1,7,4,5,-3,-1,-1
18.39,2,3,5,10,-2,3,2,2
18.395,-2,-4,-9,-7,-1,-3,-1,-2
18.4,-1,0,1,1,-5,-2,-2,0
18.405,0,1,-3,2,11,1,-1,-1
18.41,0,1,2,-7,0,1,-1,0
18.415,-1,-1,4,5,2,1,0,0
18.42,-2,0,-8,-5,-2,0,-2,-2
18.425,-2,-3,-5,-7,-6,-4,-2,-1
18.43,-1,-2,-2,4,5,-1,-2,-2
18.435,-3,0,-4,-5,-8,-4,0,-2
18.44,1,-1,1,-1,0,-2,-2,-1
18.445,0,-1,-1,3,-1,0,-2,0
18.45,-1,-1,0,3,3,1,1,-2
18.455,0,1,3,1,1,1,-1,1
18.46,-1,0,2,10,1,0,-1,0
18.465,-1,-2,-1,12,-1,1,-1,-1
18.47,-3,-2,-6,-6,-8,-1,-3,-2
18.475,-1,-2,-4,-2,3,-4,-1,-1
18.48,-1,-2,-2,0,1,-1,0,-1
18.485,0,0,0,1,-4,-2,-1,-2
18.49,-3,-1,2,-12,-3,-2,-2,-1
18.495,0,-2,1,3,-2,-1,-4,-1
18.5,-2,-4,-5,-24,-8,-3,-2,-3
18.505,-1,-2,2,14,-2,-1,0,-1
18.51,-1,-1,-6,1,-3,-5,-2,0
18.515,0,-1,-2,4,1,-3,2,1
18.52,-1,0,0,-3,1,1,0,-1
18.525,-2,-1,-3,6,0,-2,-3,-1
18.53,0,-2,3,0,-5,-4,-3,-2
18.535,0,0,3,8,14,5,1,-1
18.54,-3,-1,-3,-9,-5,-1,-2,0
18.545,0,-1,1,25,1,0,1,-2
18.55,0,-1,-1,-29,-8,-1,1,-1
18.555,-1,-3,-6,-7,-7,-6,-4,-2
18.56,0,-2,0,6,6,1,0,-2
18.565,-3,-1,-4,-10,-1,-2,0,0
18.57,0,-1,2,16,-3,1,1,0
18.575,-1,1,-2,-9,-1,0,-1,-1
18.58,-1,0,2,17,-1,0,-1,0
18.585,0,-1,-1,-3,-3,-3,0,-1
18.59,-1,0,-2,0,-1,-2,-1,-1
18.595,1,-1,-1,-7,-4,-2,1,-1
18.6,-1,-1,0,-2,-3,-3,-3,-2
18.605,-1,-1,-3,-19,-8,-1,0,0
18.61,0,-2,-4,0,7,0,-3,-1
18.615,-3,0,-3,-4,0,1,0,-1
18.62,0,0,-1,-6,-1,0,1,-2
18.625,1,-1,-6,-13,-4,-3,-1,-1
18.63,-1,-1,-3,-7,-5,-2,0,0
18.635,1,-3,0,7,2,0,-1,-1
18.64,0,0,4,10,2,-3,-2,-2
18.645,0,-1,-2,-7,1,0,0,0
18.65,-2,-2,-3,1,-8,-1,-1,-1
18.655,-3,-2,-5,-21,-5,1,-2,-2
18.66,-2,-2,-3,3,3,0,-1,0
18.665,0,1,4,0,3,-3,-3,-1
18.67,0,-1,0,20,1,-1,1,-1
18.675,1,-2,2,6,7,2,-1,0
18.68,-1,-1,0,-8,-1,-6,-2,-2
18.685,-1,-3,-1,0,-4,-1,-3,-2
18.69,-1,1,-1,-15,1,1,0,1
18.695,-2,0,2,-1,-7,-4,-2,-2
18.7,0,0,0,6,-3,-2,-1,-1
18.705,-1,1,-1,4,0,-1,-1,0
18.71,-1,-1,-2,-4,0,-1,-2,-2
18.715,-1,-2,-3,2,-2,-1,0,-1
18.72,-1,-2,-6,-27,-2,0,-1,-2
18.725,-3,-1,-2,9,-3,-3,0,-2
18.73,0,0,2,3,0,-1,-2,0
18.735,-1,-2,-3,3,-4,-5,-2,-2
18.74,-1,-1,1,-2,-3,-3,-1,1
18.745,-2,-3,-5,-16,7,4,0,-2
18.75,-1,-1,1,-2,-9,-5,-2,-4
18.755,-2,-2,-3,-3,-6,-2,-1,0
18.76,0,1,1,2,-2,1,0,-1
18.765,-1,-2,-8,-14,-7,-2,-1,0
18.77,-2,0,-1,15,8,1,-1,-1
18.775,0,-3,2,1,-2,-4,-2,0
18.78,-4,-1,1,10,-2,1,1,-2
18.785,-2,0,1,-9,0,0,-1,-2
18.79,-1,-1,0,-6,-1,-1,0,-1
18.795,0,1,0,1,-5,-1,0,0
18.8,-3,-2,0,1,9,1,-2,1
18.805,-1,1,1,3,1,0,0,0
18.81,-1,-2,-7,-16,-7,-2,-2,-1
18.815,1,-1,-1,1,-3,0,-1,-1
18.82,0,-2,-2,-1,2,-1,-2,-1
18.825,0,-1,4,6,-4,-5,-3,-1
18.83,0,0,5,-4,9,9,1,1
18.835,-2,-2,-3,-12,-2,-3,-1,-2
18.84,-1,-3,-5,-2,3,1,0,-1
18.845,0,-1,1,1,-5,0,-2,-2
18.85,-1,-2,2,11,-2,-4,-1,-2
18.855,-2,-2,-4,6,1,0,-2,-1
18.86,0,-1,-4,-16,-8,-4,-1,-3
18.865,-2,-1,-2,-7,-5,-4,-3,1
18.87,0,0,0,1,-1,-1,-1,1
18.875,-1,0,1,17,2,3,-2,0
18.88,-1,-1,-2,6,3,-2,-1,0
18.885,0,-1,-5,-4,1,2,1,-1
18.89,-3,-3,-3,-1,-4,-5,-1,-3
18.895,-1,-1,2,-8,4,0,-2,-1
18.9,-1,-1,1,3,-7,-3,-1,0
18.905,-1,-2,-2,-9,1,0,-2,-1
18.91,-3,-1,-2,2,-3,-3,-2,-2
18.915,0,-2,-5,-3,0,0,-2,0
18.92,-1,-1,0,2,0,1,-1,-2
18.925,-1,-2,-1,1,-9,-4,-1,-1
18.93,-2,-1,0,5,2,0,-1,0
18.935,-5,-3,-4,-17,-4,-2,-2,-2
18.94,-1,2,2,5,-1,0,0,-1
18.945,0,-1,-2,-10,6,2,1,-1
18.95,0,-3,-4,-2,5,1,-1,-2
18.955,1,1,-3,-10,-2,-6,-3,-3
18.96,0,-4,-5,1,-2,2,0,2
18.965,-2,-2,-3,-9,5,3,-1,1
18.97,-3,-1,-1,-5,-1,-2,-1,-3
18.975,0,0,0,6,-1,0,-2,-1
18.98,-2,-3,-10,-7,-6,-6,-3,-4
18.985,-3,-4,-3,9,-7,-5,-2,-2
18.99,0,0,1,18,0,-1,-2,-2
18.995,0,1,8,2,1,3,3,1
19,-1,-3,-8,-8,-2,-2,-3,-2
19.005,0,-1,-1,2,-1,-1,-1,-1
19.01,1,-3,-3,8,0,-3,-2,1
19.015,-5,1,7,6,-3,-2,2,-8
19.02,-1,0,1,1,-2,-1,-3,-1
19.025,0,0,2,-1,3,1,-1,-3
19.03,1,0,-5,-17,-1,1,5,-4
19.035,-1,-3,-2,4,1,0,-2,10
19.04,1,-1,3,-7,-1,-2,-6,-8
19.045,-2,-1,2,22,4,-3,-2,-3
19.05,0,-1,4,-10,-11,-4,-2,3
19.055,0,-4,-14,0,-4,1,2,-1
19.06,-3,-2,-1,-12,-3,-4,1,4
19.065,-2,-1,-4,-1,-4,-3,-3,-8
19.07,-1,3,0,-7,1,0,-1,-1
19.075,7,2,6,6,11,1,3,3
19.08,-7,-4,-3,16,-10,-7,-7,-7
19.085,3,2,3,-3,-2,-1,3,35
19.09,-8,-4,-4,-7,-2,1,-9,-85
19.095,0,2,6,24,2,-2,-3,-2
19.1,1,-1,-3,-17,2,2,1,-5
19.105,-1,-2,-9,-6,-6,-2,-1,3
19.11,0,1,-1,0,-2,-1,9,30
19.115,-1,-1,0,-4,6,1,-7,-3
19.12,1,2,3,-12,4,1,3,-1
19.125,-5,-4,-2,7,-4,-2,-8,-20
19.13,1,-3,-2,-7,-4,-4,-1,11
19.135,-4,-3,0,25,-3,-3,0,-8
19.14,1,0,4,10,1,3,6,17
19.145,2,-2,-15,-28,0,2,4,1
19.15,-4,-3,-2,-6,2,1,-3,0
19.155,-1,-1,-8,-16,0,1,17,42
19.16,-1,1,6,-8,-4,0,-7,-60
19.165,-2,2,3,-9,-1,-1,-15,-1
19.17,1,-2,-1,16,8,1,-2,1
19.175,-2,-4,-16,-14,-6,-6,-8,-10
19.18,1,2,7,40,6,3,6,22
19.185,-2,0,-6,-51,-9,-2,23,-1
19.19,-2,-8,-10,39,-10,-9,-17,-3
19.195,-4,1,-13,-43,-13,-5,-2,0
19.2,3,-9,2,35,11,6,3,-2
19.205,3,-2,-4,-35,-4,-3,3,7
19.21,-1,2,3,-2,5,3,1,9
19.215,7,-7,-21,-20,-6,-3,-7,-17
19.22,-13,4,-7,8,2,-1,12,9
19.225,-4,-2,13,32,9,-3,-4,-17
19.23,0,1,7,-16,-12,-3,7,-52
19.235,-2,-2,9,14,-13,-6,-20,-16
19.24,-8,-12,2,-25,-8,-4,-4,10
19.245,1,3,-1,32,8,2,6,15
19.25,5,1,1,-51,-7,-1,7,29
19.255,-4,2,10,22,2,-1,-2,-22
19.26,8,7,-2,-16,-5,0,18,14
19.265,-6,1,8,27,-13,-8,-34,-19
19.27,3,3,-10,-23,21,4,-12,1
19.275,-3,0,-1,8,8,2,4,5
19.28,7,-1,-5,-4,-11,-3,1,13
19.285,16,-1,18,-6,-7,-3,6,-6
19.29,-33,-5,7,54,9,2,3,17
19.295,-13,2,-16,-10,-8,-7,4,13
19.3,4,1,5,-25,3,1,-23,19
19.305,-3,11,0,23,9,7,-1,-54
19.31,8,-1,-1,-29,-22,-10,-7,-13
19.315,-4,-26,6,20,10,2,-3,1
19.32,-17,-11,0,21,-4,-5,10,4
19.325,-14,4,1,64,28,5,3,19
19.33,11,15,-5,-79,-42,-7,-13,9
19.335,9,12,5,-4,-7,4,10,-15
19.34,2,-2,-3,-6,-7,-9,-14,-16
19.345,-2,-7,3,-15,13,5,11,16
19.35,-3,7,18,62,8,-2,11,8
19.355,-4,-3,-2,38,6,-2,8,2
19.36,-2,3,-11,-25,-9,-4,-41,-18
19.365,-1,-13,-26,-93,3,0,6,10
19.37,0,-7,8,60,15,8,4,-21
19.375,30,0,-26,-78,-54,-17,2,44
19.38,-18,-3,1,43,23,9,26,-38
19.385,-12,6,-15,45,5,-1,-57,-44
19.39,28,-18,0,-60,3,3,9,10
19.395,-23,-6,20,16,19,4,15,30
19.4,-6,-1,3,50,14,-3,-31,-17
19.405,5,18,-7,-38,-25,-7,5,8
19.41,8,6,-10,81,44,14,25,39
19.415,-39,-9,-41,-20,-40,-8,-3,-63
19.42,28,-28,20,-58,-17,-4,11,28
19.425,-10,-16,-7,12,-8,-9,-34,-20
19.43,-2,-1,-23,-23,7,-4,-6,8
19.435,2,-8,7,71,9,-7,-3,-7
19.44,0,21,7,54,-8,-2,26,35
19.445,1,-5,18,18,-7,4,4,20
19.45,-1,-10,11,-12,6,9,8,22
19.455,3,10,4,-70,-9,-7,-16,-99
19.46,-25,-22,-36,47,-40,-27,-43,99
19.465,19,8,24,-4,10,7,35,14
19.47,12,6,5,-53,-17,-8,-26,-11
19.475,-15,14,-24,-52,-16,2,26,-11
19.48,7,14,-3,47,38,6,-7,-14
19.485,0,-13,2,-14,-32,-16,-36,31
19.49,-15,66,32,88,9,1,4,-91
19.495,39,20,21,-46,8,5,8,126
19.5,-82,2,-14,-11,-13,-3,-10,-128
19.505,8,7,19,49,41,15,17,22
19.51,-2,-3,30,5,-17,-5,-10,30
19.515,18,-11,54,48,14,4,-11,-26
19.52,68,18,31,-13,3,12,93,62
19.525,35,-18,-58,66,11,-14,-56,-33
19.53,-69,-11,-38,-77,-39,-15,-8,-52
19.535,20,-10,-3,29,-5,5,15,-1
19.54,47,-5,8,-15,44,18,7,23
19.545,-44,-24,30,-35,-42,-10,45,-15
19.55,35,-2,5,54,39,21,62,79
19.555,-23,-9,-28,-65,-23,-16,-105,-82
19.56,1,-8,5,67,-10,-10,17,86
19.565,-21,-13,3,-39,23,14,37,-21
19.57,-24,-74,38,58,-31,-4,36,1
19.575,20,10,-1,5,35,10,1,63
19.58,-44,16,12,39,10,1,-39,-72
19.585,60,38,5,14,13,0,57,47
19.59,-33,-40,11,-23,-14,-15,-12,7
19.595,6,-5,-37,-67,-15,-15,-67,-57
19.6,90,4,4,-8,15,18,2,-11
19.605,-57,-28,-16,87,-12,5,67,27
19.61,-9,-2,-19,-81,2,-10,-57,-53
19.615,1,-19,-22,-34,16,1,42,-26
19.62,-29,4,-28,-12,-58,-29,-65,-10
19.625,49,28,63,49,28,17,5,-29
19.63,38,7,-34,-64,-16,7,40,73
19.635,-43,-4,16,24,4,0,-16,-1
19.64,-21,-54,36,-83,-9,-2,-5,-36
19.645,21,-8,40,47,13,-1,16,46
19.65,-12,-20,-25,-48,31,6,-26,-58
19.655,11,14,47,99,-36,-12,3,28
19.66,-23,10,32,-73,-14,-2,31,-18
19.665,-25,-2,-8,11,-12,-7,-47,-5
19.67,9,-4,-74,1,-23,-13,19,18
19.675,-4,-22,38,11,10,7,9,-5
19.68,18,5,20,-32,1,4,18,35
19.685,56,28,28,9,4,-6,-46,-15
19.69,-52,-1,14,5,26,3,-21,-68
19.695,42,3,-7,13,-35,-3,65,33
19.7,-38,0,-19,9,-3,-12,-38,3
19.705,3,-27,-38,-27,29,18,54,-2
19.71,-19,-15,5,37,-50,-22,-68,-12
19.715,-27,2,23,50,17,3,-84,-23
19.72,4,30,84,83,82,24,33,1
19.725,-33,-12,-93,-124,-125,-45,-22,-53
19.73,54,35,36,64,9,6,21,19
19.735,-15,18,-5,76,43,8,38,14
19.74,27,0,-25,44,-23,5,-5,5
19.745,-24,-4,-60,-58,11,11,2,22
19.75,44,5,42,17,25,3,5,75
19.755,25,-20,75,15,39,12,9,60
19.76,40,14,38,-28,-23,-1,24,-64
19.765,-33,-34,36,22,29,16,21,-48
19.77,-45,64,22,72,10,-7,-15,-24
19.775,-65,-14,12,-45,-16,-19,-77,-100
19.78,-8,-40,-60,-72,-10,-8,-17,19
19.785,28,35,7,12,-25,-1,25,6
19.79,29,17,-19,-11,12,-3,68,35
19.795,73,3,-1,-49,-7,-6,-43,55
19.8,-56,-8,75,36,0,13,14,-49
19.805,-6,-8,24,51,14,-14,-50,-11
19.81,45,12,30,-58,2,6,29,51
19.815,-10,-10,-68,45,-63,-18,34,-8
19.82,-2,25,-84,-48,45,14,-7,16
19.825,24,6,14,10,30,23,27,-15
19.83,13,8,18,-26,29,3,-70,-12
19.835,-34,-13,4,98,0,-1,30,-8
19.84,31,8,-70,-93,-39,-25,-11,26
19.845,-6,4,-28,-55,4,-7,-3,28
19.85,-13,24,46,-21,-12,1,-26,-34
19.855,22,-1,3,39,32,28,112,43
19.86,1,-24,-30,63,-10,-27,-92,-28
19.865,88,52,44,-23,2,2,17,41
19.87,-105,-57,21,10,-32,-18,-12,-40
19.875,39,14,29,57,49,22,41,35
19.88,4,-2,12,-11,4,8,42,18
19.885,-35,-22,-7,-96,-54,-20,-41,-30
19.89,-4,-13,-41,26,-2,7,16,-64
19.895,51,4,51,23,27,10,-24,43
19.9,-37,1,-20,12,-13,5,95,-8
19.905,-35,-35,-78,-76,-16,-29,-128,-40
19.91,29,2,-8,61,22,14,70,15
19.915,-6,6,-50,-121,4,1,13,-25
19.92,28,15,83,38,-1,3,21,13
19.925,-9,7,29,-27,-44,-16,-45,-19
19.93,20,-58,-64,20,-18,-9,-19,43
19.935,-21,21,9,-46,2,-2,-23,-19
19.94,83,-10,33,-19,-11,-1,15,83
19.945,-89,2,-19,23,24,9,30,11
19.95,23,26,-7,-49,-36,-17,-40,-38
19.955,-21,-9,-34,-50,-39,-20,-35,3
19.96,-13,-9,-1,17,21,19,35,-20
19.965,35,-18,-24,12,-21,-11,1,27
19.97,-45,-7,13,-7,15,-1,3,33
19.975,-4,25,4,38,4,2,21,-12
19.98,0,-26,-71,-74,-19,1,-9,-70
19.985,-29,5,56,77,38,11,-24,36
19.99,27,19,10,80,34,7,23,42
19.995,-4,-6,-19,-25,-49,-1,65,-2
20,-23,-38,-15,-15,-33,-23,-73,-25
20.005,22,-30,49,17,31,19,62,22
20.01,-4,-30,24,17,19,10,-4,-14
20.015,19,-2,-38,66,7,-7,-17,14
20.02,-38,-13,-29,30,-7,-2,26,56
20.025,-8,16,-9,-46,-17,-6,-12,-89
20.03,6,14,-27,13,1,-2,-25,52
20.035,43,20,-12,-124,-20,6,27,9
20.04,-62,-23,-69,50,-6,-19,-91,-49
20.045,36,-11,-3,35,-9,-3,45,45
20.05,71,20,-27,-27,-11,1,14,13
20.055,-57,-12,2,7,21,6,-16,-16
20.06,8,28,59,-22,12,3,14,-4
20.065,-2,-25,9,44,-5,-1,23,25
20.07,-10,-5,-1,0,-7,1,4,-15
20.075,9,-2,15,-34,-9,-6,-23,12
20.08,34,46,63,94,43,5,4,15
20.085,-30,-7,-60,-7,-20,-4,-3,-26
20.09,-4,-17,4,8,-37,-10,12,-2
20.095,-32,-29,32,51,-19,-12,-27,-30
20.1,-18,6,-32,6,23,14,0,-12
20.105,21,3,46,26,0,-2,7,12
20.11,-7,5,-12,-3,20,6,-7,4
20.115,-25,4,-18,-45,-2,-5,8,-41
20.12,19,29,87,24,-12,-7,-27,10
20.125,9,22,48,30,17,4,3,15
20.13,-8,3,-20,-56,-22,-6,-6,29
20.135,-31,-8,2,28,27,5,-3,-71
20.14,42,6,-15,-25,5,10,73,18
20.145,-32,-7,-21,-29,-14,-17,-89,-23
20.15,-2,36,25,-43,-3,1,8,-3
20.155,14,3,0,44,-22,-13,-3,31
20.16,2,1,-34,-16,-6,-1,-2,3
20.165,6,-6,-14,-20,10,6,25,10
20.17,-6,-22,-24,54,8,-9,-4,-30
20.175,7,17,27,59,13,15,0,34
20.18,3,-15,-49,-111,-28,-5,-5,5
20.185,-14,15,-24,-2,-1,0,27,-37
20.19,-2,-6,33,18,-5,-7,-49,-14
20.195,-2,-1,16,12,7,-3,3,4
20.2,-13,-4,-12,1,-5,-13,-17,7
20.205,12,5,0,-9,4,12,13,5
20.21,-8,6,-13,-5,7,8,17,-12
20.215,2,-7,-12,-28,1,-1,-10,7
20.22,-4,12,-32,12,-12,-13,-10,-14
20.225,-2,-4,3,-33,2,-3,-28,1
20.23,-1,27,-51,13,-15,-5,5,-21
20.235,5,-2,17,40,24,6,0,22
20.24,-9,-9,-43,-18,-17,-9,1,-6
20.245,2,6,-13,-22,11,2,9,4
20.25,-2,-10,9,-10,-21,-5,-3,2
20.255,2,-3,-14,5,-3,-2,28,35
20.26,-17,-7,8,-4,4,-4,-39,-19
20.265,2,3,0,31,6,-1,2,4
20.27,3,-14,12,-2,19,12,6,-9
20.275,1,-9,-14,-64,-10,1,6,17
20.28,-1,1,17,32,-3,-3,16,3
20.285,1,-22,23,15,2,-2,-6,24
20.29,2,0,42,23,22,6,7,-26
20.295,-7,-3,-26,4,-13,-4,4,-11
20.3,0,8,11,10,10,6,-14,15
20.305,6,11,1,17,-5,-3,3,-6
20.31,-7,-13,-5,-8,-6,-4,8,2
20.315,-3,-4,-8,-15,-4,-8,-26,-19
20.32,3,7,43,-2,13,8,8,-11
20.325,9,1,54,1,-6,-2,6,16
20.33,-10,-15,-8,-25,-6,0,0,-14
20.335,-3,1,-8,9,14,5,-9,-17
20.34,-4,-21,2,-25,-17,-11,0,7
20.345,-4,-1,-28,21,11,7,11,6
20.35,-1,1,13,7,4,3,-3,13
20.355,-1,3,18,5,0,-5,-3,30
20.36,-7,-10,-12,-2,-5,-6,-9,-17
20.365,-2,25,-45,-20,0,2,3,0
20.37,-9,-50,18,-1,-7,-1,-4,-7
20.375,-2,-1,-13,-15,-6,-1,1,12
20.38,-1,-5,-8,10,-4,-7,-3,-6
20.385,-4,7,-9,0,-6,-6,-2,-9
20.39,4,4,15,-23,-7,-3,1,19
20.395,-1,4,23,27,8,-1,-2,-17
20.4,4,4,-2,-4,2,1,3,-5
20.405,-11,-10,-23,-8,-7,-2,-4,-13
20.41,4,9,-17,3,-6,-6,-21,3
20.415,-3,-3,4,-6,2,-2,15,-30
20.42,-2,-2,7,2,2,1,-27,-17
20.425,3,-3,0,3,1,0,11,20
20.43,-1,-2,-1,-8,-8,-4,4,4
20.435,1,8,10,4,0,1,-16,-9
20.44,-2,4,-27,-11,-4,0,3,6
20.445,-11,-12,1,24,0,-1,0,-10
20.45,3,7,-2,9,5,-1,15,9
20.455,-2,-19,-44,-37,-11,-3,-7,22
20.46,-6,2,13,23,8,1,-3,-59
20.465,3,-2,14,6,-1,1,-3,5
20.47,-1,-4,-38,-53,-29,-11,-4,-4
20.475,-10,3,-34,0,15,2,7,-8
20.48,-3,-1,10,14,-14,-4,5,19
20.485,-1,-4,-12,-4,-4,-6,-10,-9
20.49,-1,2,-7,19,5,4,8,1
20.495,6,0,8,-7,-1,2,-13,-8
20.5,2,3,-2,-10,1,3,21,28
20.505,0,3,13,-2,-4,-5,-22,-36
20.51,-3,7,-4,0,0,-5,-14,6
20.515,7,3,6,2,-6,-4,17,13
20.52,-17,-18,7,3,3,-5,-7,-16
20.525,3,-4,-18,-25,-5,-3,7,15
20.53,7,33,80,1,6,3,-2,-7
20.535,-9,-13,-27,-10,-8,-5,-6,-14
20.54,3,-2,-31,8,8,3,13,16
20.545,0,-3,5,24,-4,-3,4,4
20.55,-5,-10,-31,-32,-9,1,-9,-9
20.555,1,-1,-6,9,-5,-2,7,16
20.56,-6,-6,-46,-57,-5,-3,-1,13
20.565,-6,-9,-8,15,-3,-3,-8,-6
20.57,3,-4,4,19,6,0,4,1
20.575,-3,2,-7,-7,3,1,-9,-14
20.58,3,-24,20,6,4,4,5,18
20.585,1,5,3,-5,-6,-1,0,9
20.59,-9,-8,-10,6,2,0,3,-23
20.595,4,5,13,1,0,-1,7,28
20.6,4,-12,42,16,-1,0,-14,-6
20.605,-4,-2,-5,-34,-1,-3,-18,-9
20.61,-11,-8,-3,19,1,-4,-4,-4
20.615,6,3,19,6,-2,1,4,26
20.62,-7,13,6,8,2,-4,13,-43
20.625,2,-1,5,-22,2,5,12,12
20.63,4,-8,-17,-5,-4,-3,-13,12
20.635,-6,-2,9,26,4,-2,-6,-16
20.64,8,12,3,-41,-1,4,19,26
20.645,-6,-3,-8,0,-3,-7,-9,6
20.65,-9,-5,-12,-4,-3,5,-5,-15
20.655,1,-1,10,12,-5,0,2,2
20.66,5,2,-20,-25,-5,-3,-7,0
20.665,-1,-4,16,9,6,2,23,0
20.67,6,0,-2,-2,7,4,-2,11
20.675,-10,-1,10,-1,-3,-6,-17,-39
20.68,2,8,5,4,0,1,2,16
20.685,-1,16,-14,6,-4,-4,11,6
20.69,0,-21,41,38,0,0,-9,-12
20.695,0,-1,26,-13,1,-4,-10,27
20.7,1,2,17,0,0,0,-11,-50
20.705,-8,0,-4,-12,-2,-1,2,6
20.71,3,5,-21,-5,0,0,7,6
20.715,4,2,-4,9,7,4,11,10
20.72,-3,-3,-10,14,-10,-6,-7,10
20.725,2,-5,12,1,-1,3,-3,-12
20.73,0,3,-6,-12,2,-3,-4,4
20.735,-7,-8,1,23,-1,-8,-10,-25
20.74,0,5,-2,-13,2,1,0,16
20.745,3,0,0,9,-2,-1,-4,-12
20.75,-5,-4,-21,4,-13,-12,-2,2
20.755,1,2,0,-21,-3,5,0,-11
20.76,-2,1,-2,14,-2,0,-4,-7
20.765,1,-2,0,2,3,1,9,13
20.77,5,8,9,3,7,2,-2,12
20.775,-3,-2,0,-17,-3,-6,-33,-15
20.78,6,7,-7,-14,-13,-5,1,32
20.785,-20,-9,-15,-24,-15,-9,-10,-26
20.79,-1,2,-21,-1,-2,0,9,4
20.795,0,-15,-7,-1,1,1,14,8
20.8,1,-4,24,16,14,7,0,14
20.805,6,-2,4,18,-2,-2,-10,-2
20.81,-4,2,-7,-12,3,0,3,1
20.815,-2,7,-9,-12,-1,2,2,-12
20.82,-3,0,2,11,-1,-6,1,-11
20.825,2,-1,5,38,21,5,-3,-2
20.83,-7,-11,-12,-38,-29,-13,-3,-10
20.835,7,40,68,-6,-12,-1,-7,-11
20.84,0,5,-10,7,-3,1,2,5
20.845,0,8,-4,-6,-1,-3,-17,-9
20.85,2,0,8,31,15,1,1,3
20.855,0,0,-28,-41,0,-1,9,-1
20.86,2,0,1,17,-8,-2,-16,9
20.865,3,-2,10,11,-1,0,23,39
20.87,-13,13,-25,-20,-5,-5,-54,-34
20.875,0,-4,-16,-12,-5,-4,6,11
20.88,-4,-2,8,8,8,1,-6,-16
20.885,4,-1,9,-11,3,2,10,22
20.89,7,-19,46,15,4,5,22,7
20.895,-1,-2,21,-12,-13,-7,-4,-6
20.9,-2,10,-20,15,8,4,7,9
20.905,-2,0,-3,-1,-2,-5,-9,-17
20.91,3,2,-6,-8,4,3,2,9
20.915,-1,-7,-9,11,9,6,-2,-4
20.92,-4,-4,-3,-4,-16,-10,5,-6
20.925,-1,1,2,-18,-8,-2,-3,-12
20.93,-3,1,5,13,0,-3,-2,-10
20.935,0,-6,-12,11,4,-1,6,13
20.94,1,2,-1,-16,2,0,-6,-8
20.945,4,1,0,-12,-2,1,0,-3
20.95,-10,-15,-11,-16,-9,-4,10,8
20.955,-1,-3,11,35,-2,-2,-5,16
20.96,-3,-3,25,6,1,-4,-4,-10
20.965,3,-14,4,1,2,0,-4,1
20.97,6,8,-2,-3,-5,1,10,12
20.975,-5,-4,-13,-8,1,-4,-4,-18
20.98,1,-16,11,1,4,3,14,16
20.985,-5,2,19,11,1,-5,-13,-6
20.99,0,1,-1,18,-12,-4,-6,-9
20.995,-1,-3,-18,-12,3,-1,3,16
21,-2,0,-3,0,1,1,-3,-11
21.005,-4,0,-6,13,-3,-2,-8,-10
21.01,-1,-20,37,2,9,1,9,4
21.015,-4,-5,-2,1,-8,1,1,-6
21.02,-4,-16,8,-22,-5,2,-3,-5
21.025,0,3,-3,-15,5,0,5,-3
21.03,-1,5,-20,15,-11,-7,-8,-4
21.035,-3,-5,-45,9,13,-1,-5,-7
21.04,-3,-12,-16,0,-5,-4,4,1
21.045,-1,-2,-9,-2,-1,0,0,3
21.05,1,12,-13,-13,1,-1,-4,1
21.055,-2,-13,7,-9,-7,-3,-1,-9
21.06,-6,6,-10,7,10,4,-1,-1
21.065,-1,-3,0,-2,-5,-4,-5,-4
21.07,3,5,-9,-1,1,-2,1,4
21.075,-6,4,3,-7,-9,-4,-6,-10
21.08,2,5,-2,-1,-2,-2,-1,1
21.085,3,9,13,-43,-3,1,2,3
21.09,1,-8,31,18,0,6,5,-2
21.095,-2,0,-3,-1,-2,-5,-9,-17
21.1,3,2,-6,-8,4,3,2,9
21.105,-1,-7,-9,11,9,6,-2,-4
21.11,-4,-4,-3,-4,-16,-10,5,-6
21.115,-1,1,2,-18,-8,-2,-3,-12
21.12,-3,1,5,13,0,-3,-2,-10
21.125,-8,-8,-20,-10,-6,-5,0,-4
21.13,3,8,-8,-26,-15,-9,-3,-4
21.135,3,-8,15,52,23,5,1,0
21.14,-5,-4,-35,-6,3,5,1,-3
21.145,-2,-17,-7,-26,-14,0,4,5
21.15,-2,3,-11,-14,7,4,-7,-15
21.155,-1,1,0,-13,-9,-6,-4,0
21.16,2,1,2,16,7,3,3,3
21.165,6,2,5,43,8,5,2,4
21.17,-10,-6,-2,5,5,-1,0,0
21.175,2,2,-18,-18,-12,-7,-6,-5
21.18,-2,-12,31,-1,-2,-3,-3,-3
21.185,-6,-3,-13,-22,-13,-8,-4,-2
21.19,4,1,5,-4,-6,-10,2,3
21.195,2,14,14,-1,-1,2,-2,-7
21.2,0,7,23,-11,-13,-2,-4,-1
21.205,11,10,12,8,22,19,24,14
21.21,6,-16,31,29,14,5,6,27
21.215,-11,-10,-14,-13,-12,-11,-29,-22
21.22,-22,1,-11,-15,-11,-15,-12,4
21.225,-1,0,-24,22,-9,-7,-20,-6
21.23,7,10,-12,-19,6,4,9,-2
21.235,11,-4,-4,-23,0,3,18,28
21.24,4,-3,2,2,-1,3,27,15
21.245,-9,1,27,-10,1,-4,-21,-26
21.25,-8,-8,-77,-63,-17,-17,-18,-5
21.255,-8,-2,14,41,-23,-5,-6,-5
21.26,7,-1,2,-2,16,18,12,53
21.265,-28,51,-85,-14,-1,-7,-15,-43
21.27,3,19,-33,29,19,15,4,0
21.275,10,-21,35,-60,-7,-7,11,11
21.28,11,-2,-6,17,-2,-5,10,14
21.285,-3,-13,-6,-16,-12,1,20,36
21.29,-12,14,46,21,5,-3,-48,-41
21.295,0,20,-9,21,5,3,18,10
21.3,-3,12,-32,-11,-9,-11,-31,-18
21.305,38,-20,20,54,19,11,19,23
21.31,0,-1,3,-15,-11,-1,8,5
21.315,-26,-14,-5,-12,10,3,-3,-18
21.32,1,-21,6,-13,-7,-4,30,20
21.325,-25,8,-17,45,-23,-27,-40,-33
21.33,0,-9,1,11,-10,7,13,13
21.335,26,14,50,25,49,32,4,-6
21.34,-1,16,-12,-6,2,-5,2,6
21.345,-6,-39,-4,-57,-17,-8,6,8
21.35,14,24,34,12,-3,-4,7,3
21.355,-6,-9,-27,-6,-10,-12,-3,12
21.36,5,-43,59,52,15,8,0,-20
21.365,4,0,5,-34,-13,-7,15,13
21.37,-8,-2,-3,0,2,17,-15,-16
21.375,-7,-1,-33,16,17,6,4,37
21.38,-5,27,-3,9,2,-6,-14,-57
21.385,8,-18,-18,-8,-13,3,10,0
21.39,-24,-63,10,9,10,-3,-14,0
21.395,9,7,12,-7,-9,-5,6,22
21.4,-7,11,-15,30,-2,-2,-13,-19
21.405,5,-5,10,-48,10,8,25,20
21.41,3,11,-22,3,-3,-5,-7,-18
21.415,22,24,-8,-24,-10,-1,15,-29
21.42,-44,3,44,-1,0,6,1,-6
21.425,7,38,-22,-13,1,1,-17,-6
21.43,9,32,16,15,4,4,28,26
21.435,-7,16,-10,32,7,-9,0,-70
21.44,-17,-36,-46,-79,-25,-34,-58,15
21.445,-8,-7,-8,53,-19,1,9,5
21.45,6,15,-18,-14,38,25,9,-1
21.455,18,-13,-1,4,16,22,3,68
21.46,-7,20,-11,-5,10,-6,14,-67
21.465,-6,-17,24,-57,-23,-19,-60,7
21.47,-2,3,-33,24,-37,-32,-7,-1
21.475,-18,-13,-11,-28,-12,-3,-6,-6
21.48,2,-6,-11,49,5,15,41,16
21.485,32,17,46,16,21,-7,-38,23
21.49,-1,32,80,10,9,15,26,-49
21.495,-11,45,-17,53,8,-7,-52,-12
21.5,12,-6,-52,-85,-47,-8,-6,41
21.505,-6,-4,-5,38,22,8,28,-36
21.51,22,-3,-16,-23,3,2,-39,39
21.515,-62,-7,-10,-13,-8,-10,10,-21
21.52,15,7,14,26,-3,-7,-5,-35
21.525,0,3,-14,-14,-2,-1,12,42
21.53,5,-9,7,-9,-2,19,76,64
21.535,0,-11,0,17,10,-3,-98,-70
21.54,20,1,-49,-50,-26,-11,-9,19
21.545,-46,-24,-27,25,5,-6,12,-66
21.55,19,16,38,69,-14,-14,-4,21
21.555,-5,-13,-35,-25,-7,-6,16,-7
21.56,-2,4,7,2,27,23,-4,18
21.565,16,13,32,106,27,-4,3,-6
21.57,-24,-25,-75,-125,-52,-26,-9,-7
21.575,-1,-25,-1,35,-9,13,25,39
21.58,13,6,30,29,38,15,23,23
21.585,6,12,92,9,6,6,-63,-25
21.59,-12,-11,-6,23,12,-19,23,79
21.595,-5,-8,-21,-58,-35,-6,-31,-64
21.6,7,7,23,26,2,1,28,25
21.605,1,-33,-47,-7,-5,8,8,-17
21.61,-36,7,42,31,24,2,21,-24
21.615,25,5,-23,-37,-27,-12,-22,38
21.62,17,-1,8,21,-14,-2,15,5
21.625,-20,-11,-26,34,5,1,5,5
21.63,29,-5,-6,-64,-4,0,-30,-62
21.635,-70,-13,-19,-41,-8,-12,19,17
21.64,-8,-5,36,76,7,-3,7,38
21.645,-4,19,-30,-55,-43,-6,-1,-23
21.65,-5,-30,5,71,49,32,41,-6
21.655,18,8,62,27,16,6,-1,-1
21.66,15,6,33,28,4,-6,-22,56
21.665,-5,-7,-23,-26,-7,-6,38,15
21.67,-43,-10,-107,-28,-26,-27,-84,-15
21.675,45,-8,-64,-64,-6,10,68,27
21.68,-9,-2,11,100,24,1,-32,-27
21.685,18,76,40,-57,-13,9,17,27
21.69,-16,-18,-19,-55,-19,-2,-10,-3
21.695,0,-28,12,58,11,-11,-42,5
21.7,-50,-24,-51,-23,-19,-3,-18,-48
21.705,-1,3,-18,-12,12,3,2,7
21.71,7,-9,52,41,27,10,47,28
21.715,84,7,-5,-7,-2,0,35,35
21.72,-17,0,-29,-44,-21,-14,-25,-81
21.725,-45,-54,-13,-43,-14,-7,-63,-39
21.73,22,-15,59,20,16,19,18,33
21.735,-55,16,64,92,28,10,86,2
21.74,-16,-10,-60,-37,-30,-37,-75,-45
21.745,17,-17,31,-18,-9,11,53,44
21.75,-8,-10,-30,50,-2,5,-31,-16
21.755,17,35,-15,17,12,3,-5,-2
21.76,7,9,-12,-68,17,7,20,11
21.765,-7,1,-3,11,-9,-12,10,2
21.77,4,15,7,-84,-39,-6,-16,5
21.775,1,17,17,-11,23,14,25,-47
21.78,37,15,37,-59,-10,-12,-73,-39
21.785,-26,-6,85,66,25,-3,-38,48
21.79,-12,4,-31,-22,-25,-17,15,-2
21.795,4,-13,5,6,11,3,10,-17
21.8,-1,9,10,-18,-1,22,63,111
21.805,2,-25,-37,48,2,-2,20,-34
21.81,-7,0,12,5,-15,-12,6,-24
21.815,18,1,5,-3,-2,-7,-74,-69
21.82,-16,-32,-12,-10,9,8,66,9
21.825,-10,6,50,16,15,15,-33,-12
21.83,-12,-15,-11,51,25,4,63,71
21.835,-37,-57,-45,-28,-56,-20,-37,-7
21.84,8,16,-24,16,3,5,0,8
21.845,27,-9,-23,11,3,3,50,69
21.85,4,18,23,95,41,5,-32,-78
21.855,2,-28,-33,-67,-67,-27,-14,18
21.86,20,11,-32,-2,-14,-15,-3,-17
21.865,-94,-18,10,18,1,9,15,-10
21.87,33,31,3,-14,12,11,-12,-9
21.875,-5,-14,5,54,36,23,34,-3
21.88,-11,-24,-10,14,-12,-1,-2,4
21.885,73,18,-9,-38,-7,-21,-53,3
21.89,-8,-9,-45,-63,-34,-26,-15,-34
21.895,-35,17,11,-28,-13,-3,-9,22
21.9,5,-4,66,29,30,15,25,-6
21.905,32,21,-30,43,20,16,46,6
21.91,24,-6,-22,-60,-41,-15,-17,76
21.915,-6,0,25,69,9,-6,-22,9
21.92,-1,30,63,-96,-5,2,33,-7
21.925,67,1,13,37,9,2,7,12
21.93,-15,31,-25,-6,-26,-15,1,-42
21.935,-14,0,-42,-22,-1,2,21,31
21.94,-20,8,3,100,18,17,0,16
21.945,9,17,56,-89,38,22,18,-32
21.95,0,-16,0,5,-10,-14,-34,-12
21.955,0,6,2,-6,-16,-28,-16,11
21.96,11,-8,3,8,-10,1,-12,-37
21.965,17,-4,-4,31,4,19,28,44
21.97,-36,-39,-23,-44,-12,-10,-17,-19
21.975,-20,-1,-21,-27,-19,-11,-10,-27
21.98,7,-11,-26,19,23,4,18,60
21.985,-33,-7,-21,18,-15,-13,3,-82
21.99,-2,-44,-26,-6,-17,-10,-68,57
21.995,-45,-43,92,43,9,2,-18,-16
22,61,26,46,47,25,5,-5,13
22.005,-35,-14,-12,-48,-31,0,28,3
22.01,28,-3,-32,-28,18,13,25,-18
22.015,-19,20,-3,20,-6,-15,-39,-60
22.02,-12,-43,-33,6,-4,2,-10,2
22.025,-20,7,41,61,8,-7,-23,-56
22.03,0,5,10,-62,-5,10,36,-15
22.035,40,3,-12,-21,5,6,17,41
22.04,-10,28,-13,-5,-10,-11,-32,-20
22.045,-2,-18,-57,10,-7,-9,36,52
22.05,11,2,-3,-6,-1,-2,-62,-28
22.055,7,3,-15,47,23,16,-4,29
22.06,-8,-7,-22,55,13,-5,8,6
22.065,-7,-15,-71,-110,-51,-20,-43,-26
22.07,39,13,55,50,8,17,85,23
22.075,-52,30,-28,-32,16,3,-31,19
22.08,-10,-14,-3,45,5,-2,-10,-18
22.085,15,-3,11,58,11,-2,-14,29
22.09,-6,9,98,17,22,4,20,-9
22.095,23,-23,26,0,-6,-1,-6,-6
22.1,-7,2,-9,-68,-1,0,14,26
22.105,-8,-16,-20,5,11,4,0,-10
22.11,11,11,-16,24,2,-7,0,-11
22.115,27,16,31,19,2,8,25,17
22.12,4,2,29,-22,-7,3,-2,-17
22.125,9,25,20,-23,10,0,-7,57
22.13,-15,9,-1,66,0,1,-2,-86
22.135,4,-12,-34,-80,-7,0,29,36
22.14,-34,-46,25,51,-33,-13,-12,-39
22.145,10,17,13,1,4,-9,-45,8
22.15,-10,20,-18,66,26,5,6,3
22.155,13,-6,2,-45,-19,-5,13,14
22.16,3,8,-18,-35,0,6,20,-18
22.165,-22,3,1,15,5,2,-2,-12
22.17,-1,-8,5,-31,-10,-9,-30,30
22.175,6,1,-25,11,15,4,16,-17
22.18,13,-4,32,-18,5,7,-14,16
22.185,0,4,26,-1,-5,-3,7,10
22.19,-15,2,-18,-39,-16,0,7,-19
22.195,17,6,50,34,5,-3,-9,14
22.2,0,19,63,-6,-13,-13,3,54
22.205,19,2,-18,74,21,3,-14,-78
22.21,-14,-3,-13,-40,-10,2,37,36
22.215,10,-1,-9,-3,-6,1,-26,-25
22.22,2,10,-26,-5,-5,-5,5,14
22.225,-12,-13,4,23,9,1,9,-6
22.23,0,1,-23,58,1,-12,-18,13
22.235,5,18,-28,-63,-7,-1,12,-5
22.24,-5,-12,-4,-34,17,17,-1,-11
22.245,5,5,-51,-26,0,1,10,12
22.25,-5,-17,28,24,-12,-6,-22,4
22.255,2,9,-11,9,1,-6,8,-13
22.26,-14,-13,-28,46,14,-4,-4,-36
22.265,6,-1,-23,-90,-37,-19,-11,16
22.27,12,2,6,-28,7,9,9,43
22.275,-24,-4,15,43,3,3,13,-47
22.28,9,6,3,-46,-14,-6,-36,10
22.285,-17,-16,5,2,0,0,12,14
22.29,8,0,-17,19,3,-11,-38,17
22.295,13,-8,-8,-2,-23,0,16,19
22.3,-30,-2,-31,14,0,-15,1,-35
22.305,7,-4,-7,0,-6,0,3,30
22.31,-2,5,-1,52,9,6,18,10
22.315,-1,-7,15,0,22,1,-1,7
22.32,17,3,43,-25,1,17,17,37
22.325,2,41,102,39,15,4,-21,-35
22.33,0,-6,-23,-13,-17,-4,33,12
22.335,-17,-2,-19,5,-5,-5,-47,-45
22.34,4,3,-28,16,-10,-6,-6,-8
22.345,-1,-15,-33,-21,-9,-11,1,13
22.35,-6,7,34,23,13,1,-11,-39
22.355,21,21,22,-2,11,9,35,58
22.36,-8,0,-26,-13,-2,-2,-6,-9
22.365,-12,-17,-14,-19,-20,-10,-19,-18
22.37,-2,3,-7,-10,6,1,-5,-11
22.375,0,-5,-12,49,-5,-3,4,17
22.38,-3,-63,49,-11,-15,-5,5,2
22.385,2,7,-11,64,6,-2,-13,2
22.39,-9,-9,7,-94,-8,-3,-6,0
22.395,7,3,-11,-8,-5,1,23,-25
22.4,0,7,-43,-46,1,-4,-60,-2
22.405,-2,-4,1,10,-2,-1,7,8
22.41,-7,-7,-4,33,6,-4,-11,-18
22.415,9,2,41,27,19,4,26,29
22.42,2,7,-19,-13,-20,-3,11,-9
22.425,-5,-9,-7,-32,5,10,-24,-27
22.43,-3,8,-10,16,9,2,5,8
22.435,-7,-5,1,-24,-6,-7,-18,-8
22.44,5,8,-18,-11,-21,-18,20,17
22.445,1,5,-15,-10,6,-7,5,-4
22.45,-15,-55,29,31,-1,23,0,-15
22.455,1,-1,2,-3,6,2,-5,13
22.46,-12,-3,-46,3,-2,4,0,-14
22.465,4,-4,-3,1,2,-2,8,12
22.47,-2,18,-32,0,9,-7,-3,5
22.475,2,-2,-3,15,-13,-9,-14,13
22.48,-20,-25,-42,-57,-7,-7,-1,-27
22.485,0,-6,39,-5,1,-1,8,47
22.49,1,9,-5,-13,-9,-1,-8,-33
22.495,0,4,-8,-7,-8,5,-1,6
22.5,6,11,21,32,18,-1,-11,5
22.505,-2,10,-1,-34,-2,-4,-15,-4
22.51,1,1,4,-30,-13,-6,3,2
22.515,-11,-29,-32,-26,-5,-6,2,-9
22.52,3,8,16,19,16,10,9,1
22.525,-7,-1,1,17,-5,4,3,-22
22.53,2,-2,-8,-11,-8,-8,-11,-1
22.535,-8,-2,-3,20,-2,-7,-12,-16
22.54,6,9,-6,-19,10,3,11,8
22.545,0,-10,36,10,-4,1,-1,-5
22.55,-1,-8,-8,-1,1,10,4,-1
22.555,-1,-4,-14,13,-8,-5,-2,13
22.56,3,5,14,14,6,2,1,-1
22.565,-1,-4,-16,-3,-6,-1,1,-7
22.57,-3,0,-6,1,-6,-12,-9,-4
22.575,5,4,20,-1,11,3,13,16
22.58,-2,-3,-2,2,-9,5,-7,-17
22.585,-1,0,-20,24,6,4,-12,-13
22.59,2,2,-1,-30,-5,-4,7,13
22.595,2,3,-9,-15,-8,-2,14,13
22.6,-10,-16,61,23,-1,-7,-43,24
22.605,-1,-11,32,25,7,5,11,-52
22.61,-2,2,-1,-37,-12,-19,4,-4
22.615,0,-9,10,4,10,16,-9,11
22.62,2,3,-18,-2,-8,-8,16,15
22.625,-9,-4,-45,-17,-8,3,-1,7
22.63,4,4,-9,20,26,15,4,2
22.635,-9,-8,-21,-51,-24,-15,1,-21
22.64,-2,-3,-21,28,-10,-4,-11,-15
22.645,-3,-3,-38,-53,-6,-11,-6,7
22.65,-2,3,-49,7,3,-5,2,-9
22.655,4,13,27,-13,-4,8,-4,0
22.66,2,-3,0,-6,3,3,7,-7
22.665,-1,-6,0,-3,-4,-5,6,9
22.67,-2,0,23,48,9,5,-7,5
22.675,-3,6,-11,-55,-8,-5,-13,-12
22.68,2,-6,18,6,-4,-2,13,-6
22.685,2,5,-2,1,8,8,5,7
22.69,3,3,24,12,2,2,21,12
22.695,-3,0,-1,37,9,-6,-34,-29
22.7,-3,18,-46,-35,-4,-1,0,-3
22.705,1,-6,-2,2,-6,-4,7,45
22.71,1,-1,12,5,-8,3,-12,-67
22.715,-6,-7,28,9,5,0,17,-1
22.72,-2,1,-13,-11,5,1,7,3
22.725,1,2,8,-6,-1,0,3,-2
22.73,1,1,7,1,0,-3,-15,20
22.735,4,0,1,-21,6,3,-1,2
22.74,-2,-3,1,3,-10,-2,0,-16
22.745,-4,-3,-6,5,-8,-6,-3,8
22.75,-4,-5,-23,-20,0,-2,1,1
22.755,-2,-24,-41,28,7,5,-2,-5
22.76,3,5,26,17,8,6,6,11
22.765,3,-4,-13,-17,-12,-6,5,-7
22.77,-2,-6,-14,-16,-6,-4,-19,-6
22.775,-5,5,-9,6,2,-3,-1,-4
22.78,2,11,-10,-6,-5,0,0,9
22.785,5,-2,2,9,-1,4,35,27
22.79,-11,-1,15,20,1,-7,-37,-46
22.795,-2,5,1,-16,2,2,-6,26
22.8,-1,-1,6,9,-5,-5,4,-68
22.805,-3,21,-35,-26,-8,-10,-19,-8
22.81,3,3,24,14,-3,0,30,39
22.815,2,3,3,-9,-2,-5,-1,-14
22.82,-3,-7,-19,-9,-7,-3,-4,11
22.825,-2,-17,-9,-2,3,2,-6,-13
22.83,1,1,22,14,-13,4,2,1
22.835,3,4,15,38,1,-6,0,6
22.84,-2,-3,-6,-17,-3,-2,1,15
22.845,-2,-1,14,2,10,12,-11,-15
22.85,1,0,-1,4,12,6,5,9
22.855,-2,0,21,11,0,-1,2,-1
22.86,2,4,4,4,1,-7,-1,8
22.865,-6,-4,-2,-5,-8,-6,14,2
22.87,-6,2,-19,-15,-3,-4,-24,-18
22.875,0,-5,-8,-17,-13,-7,-12,-9
22.88,-4,-4,-1,5,8,5,6,6
22.885,0,-1,10,10,10,6,-3,-1
22.89,6,1,-4,-1,-4,-5,11,54
22.895,-6,-4,1,3,-5,-6,-3,-41
22.9,-3,-17,-14,-8,1,4,4,13
22.905,-8,-6,15,20,-7,-11,-33,-22
22.91,2,-2,13,0,19,7,9,15
22.915,-4,-9,-22,-39,-29,-30,-5,4
22.92,1,4,3,26,14,30,5,1
22.925,3,-5,-28,-42,-5,1,5,1
22.93,-11,-20,10,3,0,-8,-7,-17
22.935,2,1,4,13,5,10,7,12
22.94,2,7,7,-9,3,-5,1,-6
22.945,5,9,32,12,1,-1,-3,4
22.95,-2,0,-1,0,-10,-11,-8,-9
22.955,-1,1,3,37,0,-3,26,10
22.96,-4,-17,-10,-63,-15,-14,-13,-9
22.965,5,4,10,29,27,24,7,2
22.97,0,-7,-15,-25,-18,-3,-14,-3
22.975,0,6,9,6,5,1,-17,5
22.98,2,-5,30,21,-9,-1,-6,5
22.985,-3,7,5,-2,-1,-12,-1,-1
22.99,2,4,23,15,2,5,11,-9
22.995,6,9,-8,-6,-4,0,14,24
23,-6,-1,-8,20,-1,-3,-9,-9
23.005,-4,-4,-24,-39,-9,-9,-7,-15
23.01,-5,-8,-50,-41,-3,1,7,19
23.015,-2,0,15,3,0,2,-7,-11
23.02,1,5,-5,-1,-9,-14,5,3
23.025,-1,-5,8,15,5,8,-8,1
23.03,-1,1,-6,3,-3,-4,1,-5
23.035,-2,-2,-10,0,13,11,1,-13
23.04,6,4,-20,9,-2,3,-6,-3
23.045,-2,-2,-3,3,-2,-10,3,5
23.05,-2,2,12,-16,-5,-9,21,-5
23.055,3,-24,14,17,-3,6,-22,2
23.06,-1,3,5,8,10,2,9,11
23.065,0,2,10,15,1,0,10,7
23.07,0,2,2,-11,-1,4,-8,-9
23.075,-5,0,-13,-38,-7,-6,5,-3
23.08,11,-10,28,8,-7,-3,17,63
23.085,-28,-1,17,5,-4,-7,-24,-74
23.09,7,7,19,19,8,-6,6,13
23.095,-10,-11,-11,-4,-6,2,-8,-8
23.1,-1,3,14,2,4,-1,-6,3
23.105,8,6,-7,-19,-10,-2,9,19
23.11,5,13,61,52,7,2,-2,0
23.115,5,8,-3,-6,-2,-11,-6,-7
23.12,-1,4,2,-6,4,6,6,-15
23.125,10,14,-9,43,-17,-7,4,23
23.13,-16,-7,-15,-14,1,8,-16,-36
23.135,6,1,4,17,6,6,5,16
23.14,-4,0,-13,-37,-3,-5,0,-13
23.145,5,-2,-5,7,6,-1,2,9
23.15,1,-4,-13,-6,-6,-5,-6,11
23.155,-4,5,4,2,0,0,5,-6
23.16,-5,1,-10,6,2,-2,-3,-11
23.165,-5,0,-18,13,-2,-3,-6,-1
23.17,-1,-3,-37,-66,-18,-5,-2,0
23.175,3,-17,38,33,14,4,14,2
23.18,-1,-2,-7,12,-3,2,16,34
23.185,-7,-6,-4,-14,-3,-2,-38,-20
23.19,1,5,0,-1,6,2,2,4
23.195,1,9,-5,-5,3,0,-2,-4
23.2,-1,-4,0,-2,-6,-7,0,10
23.205,1,-10,-4,-18,-7,-3,14,7
23.21,-3,-3,-8,16,0,0,-5,-7
23.215,-10,-6,-19,15,6,-1,-5,3
23.22,-4,-26,3,-49,-7,1,-1,-21
23.225,-7,-14,-21,-9,-9,-3,-1,-3
23.23,4,-4,-9,3,1,1,4,1
23.235,-6,0,-21,-21,-8,1,-18,-18
23.24,-4,-5,1,2,-4,-8,-15,-16
23.245,4,-5,17,28,5,6,5,4
23.25,-3,-8,-15,-15,7,-2,2,9
23.255,1,6,3,10,-5,-5,8,5
23.26,-1,10,0,25,3,2,-8,-15
23.265,2,-6,-3,-18,0,6,13,49
23.27,-3,2,8,13,0,-3,-15,-26
23.275,-5,-12,-19,-53,-21,-11,9,9
23.28,-4,6,5,-10,-1,-4,-25,-15
23.285,5,3,0,3,-8,-11,-2,16
23.29,0,-14,-18,21,10,6,7,5
23.295,1,2,-27,7,9,8,-2,-11
23.3,0,-4,-27,0,-6,-3,21,17
23.305,-3,12,-7,-23,-2,-5,-13,-22
23.31,-2,6,0,2,-4,-2,-6,-4
23.315,3,16,-6,-4,-3,-7,1,4
23.32,-2,0,1,-11,-10,-2,2,-8
23.325,-2,2,-2,7,7,-2,-7,-12
23.33,-8,-9,-6,-15,-2,-4,-11,-22
23.335,0,-1,-1,28,-12,-4,-4,-1
23.34,0,4,51,21,7,3,-1,-4
23.345,1,-3,11,36,15,4,5,-4
23.35,2,-3,-16,-48,-26,-6,7,50
23.355,-7,-6,13,19,18,6,-11,-87
23.36,1,-2,14,30,14,7,-2,0
23.365,1,-4,-2,-27,-2,-3,2,-1
23.37,0,10,18,4,2,3,13,7
23.375,5,-22,34,-4,1,2,-19,21
23.38,-4,-2,-22,-11,1,-2,1,-7
23.385,-1,-2,21,6,0,1,3,-9
23.39,3,15,10,44,7,-1,3,-9
23.395,-4,0,-16,-35,-15,-5,22,29
23.4,-4,-7,-5,19,-3,-1,-28,-15
23.405,5,-5,5,-2,9,8,3,11
23.41,2,-5,17,-1,-1,-1,2,-2
23.415,-3,0,-12,22,7,1,4,7
23.42,-8,-18,-23,-10,1,-2,1,-8
23.425,-6,-2,-20,-9,-12,-7,-1,-12
23.43,-2,1,-6,-2,4,1,-7,2
23.435,1,4,-1,-7,0,1,-2,4
23.44,5,-9,11,0,3,5,13,48
23.445,-4,-2,16,-20,-8,-5,-8,-43
23.45,-5,-3,-2,24,4,3,-2,-2
23.455,3,7,5,-6,-6,-8,-5,9
23.46,-1,4,-10,-9,1,0,2,9
23.465,0,-1,-4,17,0,1,8,12
23.47,-1,-12,26,-51,-10,-7,-18,-13
23.475,2,6,12,14,-3,1,2,9
23.48,-1,4,-20,-31,-3,-1,-2,-21
23.485,1,8,-17,10,13,8,23,15
23.49,-1,-3,-27,-65,-16,-9,-26,-6
23.495,-9,0,0,-28,0,3,5,-8
23.5,1,-5,-26,-2,-4,-3,-9,-7
23.505,-1,-2,-5,18,4,-5,-7,4
23.51,-1,1,19,20,6,6,10,5
23.515,-1,-3,-9,-9,-4,-10,-4,-10
23.52,1,7,-15,1,-9,-18,2,-9
23.525,-6,13,-20,-39,2,13,-2,5
23.53,-3,5,-17,45,2,1,-4,-16
23.535,-1,15,8,-9,-4,-2,-3,5
23.54,2,16,44,32,3,-4,5,18
23.545,-9,-8,5,-46,-19,-11,-21,-73
23.55,2,2,-1,7,2,0,12,12
23.555,-1,1,9,-5,5,-1,-5,1
23.56,3,9,10,31,4,5,1,-1
23.565,-1,-13,-20,-50,-17,-8,1,16
23.57,-1,0,-7,12,1,1,2,-1
23.575,0,-6,-9,11,6,0,0,-3
23.58,-2,-1,10,-3,1,3,-1,-4
23.585,2,-7,12,21,6,-1,-2,18
23.59,-1,6,-5,-22,-5,-5,1,-10
23.595,3,12,-25,-13,-5,-1,-3,11
23.6,-3,-4,7,9,-5,-8,-5,-13
23.605,1,4,11,12,-3,-7,-3,3
23.61,-2,20,-28,2,5,6,2,2
23.615,2,0,8,0,-3,0,3,1
23.62,-4,-3,-19,-46,-1,-4,-3,-9
23.625,2,1,5,30,1,0,2,8
23.63,-7,-30,-41,-5,-5,-2,-2,-3
23.635,-5,-9,2,-8,-1,1,-4,-5
23.64,-6,-7,-9,2,3,3,-1,-10
23.645,1,-7,-7,-15,-10,-11,-5,12
23.65,-1,-3,5,6,-6,-1,-1,0
23.655,0,-3,10,19,11,3,-2,-2
23.66,1,1,6,9,2,7,0,-2
23.665,-6,-9,-26,-23,-2,3,0,-2
23.67,3,4,20,2,-1,-5,1,3
23.675,-4,-9,2,1,-12,-13,-8,-4
23.68,2,5,19,-14,-6,-3,3,2
23.685,2,24,-20,6,8,18,5,0
23.69,-5,-15,21,26,7,-5,-1,-3
23.695,2,-2,-4,-36,-6,-4,-2,3
23.7,-5,-4,-11,-7,-7,-4,-7,-5
23.705,-6,-2,2,23,-6,1,0,2
23.71,2,4,4,-5,-11,-11,-5,-7
23.715,4,4,21,40,13,10,6,3
23.72,-2,-3,-3,-3,5,5,0,-4
23.725,1,-12,2,-32,-6,-4,0,4
23.73,3,4,33,28,9,-1,-3,3
23.735,7,-10,26,-20,-4,-1,3,-1
23.74,-14,3,-15,35,4,-2,3,-12
23.745,15,-7,-10,-89,-5,-5,1,43
23.75,-15,-29,9,86,-12,-14,-31,-93
23.755,-5,-2,-6,21,10,10,0,0
23.76,15,2,35,-18,4,10,12,17
23.765,26,2,7,10,-2,-5,3,5
23.77,-60,5,-17,-60,-14,-4,6,5
23.775,-3,-16,-33,-12,-19,-9,-9,-4
23.78,2,7,3,27,26,10,-4,-10
23.785,-2,1,16,29,23,12,6,-1
23.79,25,-10,-14,3,-11,-6,25,24
23.795,-14,-11,-8,-73,-26,-11,-36,-19
23.8,-5,-2,-10,9,-8,-1,5,14
23.805,2,-2,16,10,9,-3,-12,-13
23.81,0,10,-7,55,7,3,13,60
23.815,-33,-17,-44,-63,1,7,-1,-81
23.82,-1,19,25,82,3,-16,-11,-8
23.825,19,8,66,-52,-35,-12,1,1
23.83,-7,5,31,-57,16,13,5,10
23.835,22,8,14,55,11,-1,16,41
23.84,35,-10,-32,-49,-8,4,39,1
23.845,-5,8,17,-4,-3,-12,-34,29
23.85,-10,22,44,-10,-2,2,-7,-20
23.855,7,-11,-14,20,9,12,14,19
23.86,16,-5,-17,-63,17,-1,-19,-15
23.865,19,4,-6,87,-37,-13,10,11
23.87,88,61,-20,-33,9,-7,18,12
23.875,-55,-50,46,9,-11,4,-34,4
23.88,-23,1,-16,72,15,-2,0,-25
23.885,-4,-29,-51,87,11,8,48,31
23.89,61,51,-12,-91,-39,-8,-28,-71
23.895,-35,27,40,127,-56,-38,-50,-48
23.9,-37,-1,-21,-21,-1,4,5,15
23.905,39,10,51,49,14,7,-2,-5
23.91,-65,-73,-40,34,-9,-9,18,-65
23.915,101,21,-20,55,15,-6,-31,124
23.92,-4,-26,-49,-128,-60,-14,3,-32
23.925,-29,-74,1,107,-2,0,27,3
23.93,100,61,29,17,56,32,-45,17
23.935,-70,-4,-64,12,2,-9,12,-9
23.94,23,27,-2,22,21,7,-4,10
23.945,27,-10,14,-17,30,14,33,6
23.95,76,-96,35,-50,-41,-8,13,59
23.955,-13,61,45,51,29,17,10,-43
23.96,12,7,22,-70,-19,-7,16,39
23.965,-39,4,-11,97,32,-1,-31,-43
23.97,-8,-19,8,34,-16,0,-5,31
23.975,9,3,-59,-96,18,4,31,11
23.98,22,2,26,27,20,7,10,-20
23.985,-87,38,-6,-34,15,19,9,-56
23.99,54,36,-23,83,3,-17,-55,46
23.995,6,-21,-56,-73,-32,-34,-61,-34
24,-83,-24,48,52,-20,-2,14,-13
24.005,-14,39,-39,-43,-9,-12,-37,-15
24.01,-7,-15,-19,-41,26,24,84,24
24.015,29,-25,59,14,5,6,40,-11
24.02,1,10,69,52,-4,-16,-62,0
24.025,24,13,-73,-123,-28,-1,2,36
24.03,-66,-5,33,84,21,0,2,-48
24.035,20,-22,24,-26,21,16,26,12
24.04,1,-1,-36,-47,-28,-11,-16,4
24.045,2,10,71,-41,-43,-11,96,39
24.05,-43,9,-24,24,59,15,-74,-38
24.055,12,4,-21,0,27,23,55,22
24.06,38,31,66,45,-20,5,-3,41
24.065,94,-1,1,-37,-25,-14,-38,-61
24.07,-126,38,-39,-11,-6,-17,14,-39
24.075,108,65,127,48,6,14,-13,-22
24.08,-40,-21,-99,-73,24,2,-14,-20
24.085,40,-79,-85,-66,-66,-30,-53,36
24.09,-20,-25,21,16,7,-2,8,-49
24.095,-37,1,7,-30,-6,-13,5,11
24.1,56,18,-11,62,8,4,89,42
24.105,17,-4,-15,22,28,13,-107,-31
24.11,-38,11,-60,-55,-3,-12,-22,-62
24.115,-47,-15,-82,-50,-46,-23,2,15
24.12,39,5,7,69,28,24,15,31
24.125,-36,-14,39,-55,-1,-1,29,13
24.13,14,-13,-40,-63,-14,10,-2,36
24.135,-1,7,5,90,45,6,-12,-11
24.14,69,1,18,-17,-53,-31,-26,-26
24.145,-74,24,6,23,-19,-6,-14,-33
24.15,-48,-37,16,-8,-9,1,15,13
24.155,-10,-8,11,9,6,1,-1,6
24.16,-13,-23,4,85,-5,1,-12,-4
24.165,65,27,25,35,10,4,15,5
24.17,-2,-6,84,-20,-9,-7,-12,27
24.175,-45,-16,-57,104,45,8,8,-13
24.18,12,5,6,-75,-43,9,1,54
24.185,64,33,29,-32,7,-2,48,39
24.19,-53,12,12,34,-20,-5,-34,-35
24.195,-24,-47,-25,22,0,-7,3,21
24.2,-9,12,32,23,24,3,-4,-16
24.205,-26,-31,-53,0,13,14,71,11
24.21,83,33,-44,20,-3,1,-44,13
24.215,26,24,-1,-62,-25,-17,-31,-44
24.22,-32,-27,9,30,6,3,11,-11
24.225,66,24,18,98,61,26,13,70
24.23,72,-6,-26,-83,-43,-11,33,-20
24.235,-22,-19,15,54,-4,-7,-5,22
24.24,-8,15,-39,55,-7,-25,-63,-49
24.245,12,32,96,68,46,27,12,34
24.25,11,-51,33,51,-9,-7,6,16
24.255,-9,31,15,-71,-34,1,27,-24
24.26,-42,-22,-30,-26,71,25,11,2
24.265,-66,-29,-41,52,-16,-19,-39,-40
24.27,36,-8,-51,3,-30,-12,32,88
24.275,14,11,-14,-29,-10,-4,-6,15
24.28,-19,-38,23,59,30,3,-1,-11
24.285,-66,9,-1,-84,-21,-14,14,-65
24.29,71,-15,-46,5,-21,-4,-5,-25
24.295,-22,-50,-33,-11,-26,-10,-53,49
24.3,41,-8,81,54,48,11,13,-29
24.305,-31,-20,-41,90,-32,-3,1,-17
24.31,20,29,34,-43,1,-2,27,5
24.315,36,8,-8,9,46,23,28,31
24.32,3,-22,-21,-24,-36,13,-2,1
24.325,-29,-2,-66,-36,-6,-6,-15,-23
24.33,5,13,15,56,26,-6,11,50
24.335,18,22,19,12,1,-10,6,-18
24.34,-19,24,-44,-85,-39,-21,-3,0
24.345,24,-6,-3,-18,14,9,-23,-22
24.35,-34,-7,-28,-18,14,3,-7,11
24.355,14,28,77,102,24,9,17,-21
24.36,-22,-19,-103,-116,-46,-28,11,-29
24.365,43,0,23,-24,-25,-16,-34,103
24.37,-95,-10,16,45,29,15,-11,4
24.375,-20,-32,-1,65,18,18,66,-62
24.38,10,-3,14,23,-41,-29,-93,-21
24.385,26,-16,37,39,16,6,28,32
24.39,-50,34,23,47,1,-5,16,19
24.395,22,1,-53,-84,-6,-4,-3,5
24.4,29,-8,-45,-49,-22,-7,13,20
24.405,-59,-7,-22,-11,-18,-7,-3,-61
24.41,37,6,51,47,49,27,-4,-7
24.415,3,0,-6,-22,-15,-7,4,25
24.42,13,23,-8,-43,-12,-10,1,-1
24.425,35,-2,58,34,-12,2,17,8
24.43,-57,-5,-3,20,1,-6,-34,-70
24.435,-7,30,-25,-22,7,2,-28,1
24.44,26,26,68,77,43,17,28,59
24.445,46,30,37,-2,0,3,51,14
24.45,-10,7,-34,-55,-53,-25,-68,-15
24.455,43,-9,-2,-32,-6,-1,-13,-64
24.46,-20,-7,4,31,15,11,-6,14
24.465,-87,5,-12,-27,32,3,4,-78
24.47,15,-28,-43,-1,-40,-21,23,14
24.475,2,10,3,-2,0,-7,3,24
24.48,-5,7,-6,-19,-6,11,-5,-26
24.485,-12,-11,-25,30,23,5,-30,-26
24.49,12,-17,-31,-21,14,9,30,11
24.495,-7,-2,-39,-117,-29,-8,-13,4
24.5,-4,-5,-2,26,-10,-1,18,2
24.505,-2,9,-12,16,27,-10,-31,-9
24.51,1,-10,4,-6,-4,1,1,3
24.515,11,-6,2,67,-20,-7,13,28
24.52,-9,3,2,-9,11,-1,-1,-31
24.525,-5,1,-5,-3,-9,-9,-42,2
24.53,31,24,23,15,29,15,35,18
24.535,-11,-35,20,51,-16,2,-1,-1
24.54,-12,9,12,23,-7,-10,-1,-8
24.545,19,3,-2,-33,-2,1,-8,19
24.55,-11,24,-46,37,-1,-8,-20,-28
24.555,-7,28,-52,-41,-22,-12,-21,-12
24.56,-12,4,65,84,36,13,11,-1
24.565,17,-8,-8,-54,-9,-5,15,12
24.57,-11,-31,-44,14,-47,-15,3,6
24.575,1,23,-9,53,7,4,-1,-10
24.58,-1,-16,-27,-21,-15,-3,1,7
24.585,-12,7,2,-6,18,16,-1,48
24.59,36,2,23,1,18,14,23,-41
24.595,-38,-11,7,-7,6,-1,-9,-6
24.6,-2,-2,4,-22,-6,-9,-6,13
24.605,6,-8,4,12,-12,-22,-20,16
24.61,-4,-8,8,-31,-8,24,14,35
24.615,12,41,-5,6,10,10,21,-14
24.62,-3,-28,-39,-58,-3,1,12,18
24.625,-41,-23,-15,26,-2,-10,-21,-33
24.63,31,3,16,62,-4,-13,13,47
24.635,10,4,-5,-27,-31,-12,-8,-36
24.64,7,19,-2,70,44,10,-5,-9
24.645,4,-17,-19,-9,-11,7,16,-2
24.65,-6,17,6,19,22,3,-9,-6
24.655,11,-12,61,-29,-8,-4,0,29
24.66,2,10,38,-10,-15,-5,2,-15
24.665,0,-7,5,62,9,-1,5,-13
24.67,0,1,-23,-58,-7,0,21,-5
24.675,8,7,20,44,-2,-3,-29,12
24.68,-2,-26,-9,-16,-6,-5,-2,4
24.685,-1,10,-13,-5,-5,-1,-15,-16
24.69,21,-13,83,50,28,11,18,71
24.695,-32,-20,-6,-57,-4,2,-7,-96
24.7,1,-1,-4,2,-8,-2,23,18
24.705,11,10,11,33,12,18,3,12
24.71,-9,-6,-9,-50,-10,-9,-21,-24
24.715,6,-13,13,45,12,0,14,43
24.72,7,11,19,-24,-10,-5,-14,-1
24.725,-12,3,5,-18,1,-3,4,-37
24.73,-6,-3,-1,-16,2,-3,-4,-8
24.735,5,2,2,19,5,9,4,19
24.74,-8,-1,-27,-4,-19,-9,-12,-12
24.745,7,-3,-2,23,21,-2,-4,-1
24.75,-20,-11,-31,-47,-22,-9,-10,-25
24.755,4,-2,1,-7,-5,4,2,16
24.76,-1,-2,2,-2,5,1,6,-4
24.765,-1,-6,-4,-8,-2,-6,-21,-9
24.77,-2,15,14,60,13,-2,-6,-3
24.775,-7,-12,-25,-68,-12,0,7,-6
24.78,1,0,-8,-3,-2,-3,-8,13
24.785,-2,6,-6,-10,-6,-2,-19,-38
24.79,-2,2,0,-4,-5,-4,3,-1
24.795,0,-2,5,18,8,1,13,25
24.8,4,6,-2,5,1,2,2,29
24.805,-6,-27,3,-12,-7,0,13,-6
24.81,-2,-4,3,8,-6,-5,-29,-6
24.815,5,-4,-2,12,10,-4,-5,-1
24.82,-3,-8,6,-8,6,6,-1,10
24.825,0,7,6,-1,-10,-6,10,11
24.83,-2,-3,-9,-11,-11,-2,6,-8
24.835,2,2,4,-1,6,-1,-3,14
24.84,-6,-1,-10,8,6,-4,-8,-28
24.845,0,-5,-9,-17,-15,-4,1,8
24.85,-4,-3,8,6,16,6,4,-12
24.855,3,2,8,15,-2,-5,-7,3
24.86,-3,-5,2,-10,-15,-4,1,-11
24.865,-2,0,28,-3,-7,-3,-5,-10
24.87,-3,0,-6,-20,6,0,4,11
24.875,7,11,-1,-13,4,4,5,-1
24.88,-17,-6,-2,44,-4,-6,-8,-14
24.885,-2,-1,-12,-27,2,-4,2,8
24.89,-4,-2,-25,-58,-23,-3,-9,-8
24.895,4,-7,-3,5,6,2,-3,4
24.9,-2,0,-12,-16,3,-3,9,-10
24.905,-4,5,3,5,-8,-2,-19,-6
24.91,6,3,19,38,14,2,6,20
24.915,-5,-21,3,-14,1,0,-8,-21
24.92,4,-3,-5,18,-2,-2,-1,9
24.925,-1,15,-23,9,-8,-7,-4,12
24.93,3,12,-8,-8,0,2,0,-20
24.935,-2,7,-3,3,-1,0,2,11
24.94,3,2,-7,-15,0,0,-2,-5
24.945,0,-4,-8,-10,-5,0,6,-5
24.95,0,-5,-3,13,11,1,-1,9
24.955,-3,1,1,6,-1,1,3,3
24.96,-1,0,-5,8,-6,-9,-12,-13
24.965,-4,-5,-20,-26,-20,1,2,-1
24.97,-3,-3,11,9,2,2,0,-3
24.975,-2,0,13,44,9,0,3,1
24.98,-1,-5,-17,-60,-8,-4,-1,-8
24.985,6,-1,10,8,9,0,0,9
24.99,-10,-6,3,7,-9,-3,0,-6
24.995,0,2,-2,4,-11,-8,-2,1
25,4,3,4,5,5,5,-2,7
25.005,1,-2,4,8,2,2,2,-3
25.01,-1,-2,0,-11,1,-3,2,-2
25.015,0,2,0,3,1,-2,-4,-1
25.02,0,1,1,-11,-2,-2,-2,-1
25.025,1,-2,4,9,4,0,3,1
25.03,3,-2,3,0,-4,-4,10,21
25.035,-6,1,-19,-10,-3,-3,-13,-15
25.04,4,-7,27,0,-1,2,2,11
25.045,-9,-5,-14,-5,2,1,21,5
25.05,-8,-2,1,10,5,-4,-54,-29
25.055,5,-10,0,-5,-1,0,12,26
25.06,0,2,-6,-3,0,0,-4,-10
25.065,4,1,8,10,-3,-2,-2,-3
25.07,5,1,6,10,-3,-1,16,15
25.075,-7,-5,-13,-20,-6,-2,-1,-5
25.08,-1,1,2,11,0,0,0,-7
25.085,-3,-4,0,-22,9,1,-1,3
25.09,-3,-1,-4,11,-13,-4,5,-7
25.095,-2,0,5,-10,2,-4,-5,-5
25.1,-2,-1,-8,0,-3,-1,3,-3
25.105,2,0,2,5,2,2,-6,0
25.11,-2,5,16,13,9,4,5,-3
25.115,-5,-10,-30,-54,-17,-9,-6,-10
25.12,-2,-1,-5,2,-11,-6,-5,5
25.125,-2,-3,-4,-3,0,-2,-5,-3
25.13,9,3,4,3,2,3,6,-2
25.135,0,2,16,23,9,7,12,13
25.14,-7,-2,-2,16,0,1,10,-4
25.145,-3,-5,-6,-12,-12,-7,-46,7
25.15,1,13,-17,-20,-6,-3,14,-30
25.155,5,12,18,32,7,1,-5,2
25.16,0,-2,-1,-5,2,-2,-7,7
25.165,-8,-3,-31,-9,-11,-5,8,-14
25.17,-3,-5,-8,-11,-8,-9,-16,6
25.175,-2,-2,-3,4,-3,1,4,-3
25.18,5,7,21,8,15,6,7,-2
25.185,3,5,7,13,2,-2,11,16
25.19,-4,-9,-7,5,-1,5,-1,-1
25.195,1,-1,6,9,2,7,2,-3
25.2,1,3,0,-17,3,-5,-4,0
25.205,2,-16,44,5,-8,0,3,-4
25.21,-3,-7,-9,-22,-10,-2,1,-2
25.215,6,1,3,3,0,-2,-4,4
25.22,-3,3,0,-13,4,1,3,2
25.225,-3,4,-3,18,3,0,-3,15
25.23,-7,-5,5,14,-1,-2,-5,-57
25.235,6,0,-3,-7,-8,-3,-2,21
25.24,-2,-5,-18,-14,-3,-1,12,3
25.245,0,1,0,-5,2,-1,-12,-12
25.25,3,-2,-2,-4,-3,1,12,29
25.255,-8,-1,-6,13,1,-3,-25,-23
25.26,-1,-2,-6,-6,-1,-1,-8,-16
25.265,-6,-5,-7,-23,-7,-3,6,-1
25.27,2,-1,9,16,0,0,2,16
25.275,-1,-8,12,-13,-1,-2,6,-7
25.28,-2,4,4,17,-1,-2,-2,3
25.285,3,7,0,1,5,5,2,-4
25.29,-6,-10,-14,-34,-15,-9,-5,1
25.295,-4,-3,-8,13,-8,-2,4,-6
25.3,-2,-2,-26,-7,3,6,-10,-5
25.305,7,-5,-19,-15,-7,-4,4,-2
25.31,-11,-9,29,2,8,0,-1,0
25.315,2,1,1,5,-2,-4,-2,2
25.32,4,0,6,-4,-8,-5,4,7
25.325,-4,1,-5,1,-2,-4,-27,-16
25.33,5,5,3,13,5,2,5,40
25.335,-13,-3,-37,-30,-7,-2,8,-81
25.34,2,4,22,22,7,-1,-5,-10
25.345,0,-4,-19,-36,-7,-3,4,5
25.35,-1,8,-14,-17,-2,-1,-4,-3
25.355,-1,-8,4,4,3,1,1,30
25.36,0,8,1,1,8,1,13,1
25.365,0,3,6,11,-4,2,4,-14
25.37,0,3,-4,1,-8,-4,-8,5
25.375,0,3,9,-7,-5,-2,7,16
25.38,-4,-5,1,-3,2,-2,-12,-15
25.385,-2,-2,8,19,10,7,3,7
25.39,1,-1,-4,-26,-1,0,1,-5
25.395,2,4,-5,7,2,-1,-4,-4
25.4,-4,-2,16,-3,-8,-5,-8,8
25.405,0,4,12,10,-2,-2,6,1
25.41,-3,-2,-30,-15,3,0,1,-11
25.415,-3,-7,-12,-3,-8,-5,-6,2
25.42,6,7,-9,-11,-2,2,-4,13
25.425,4,0,7,8,1,-1,8,37
25.43,-4,-1,10,14,7,1,-4,-26
25.435,1,3,12,2,4,0,-3,18
25.44,-5,-10,-14,-2,-6,0,13,8
25.445,2,6,0,12,4,1,5,16
25.45,6,-5,8,-3,0,-3,-17,-5
25.455,-10,3,-3,-4,-2,-3,-9,-8
25.46,-5,-3,0,10,-5,0,-2,-5
25.465,-3,-3,5,3,0,1,16,-3
25.47,2,5,-2,4,6,3,11,7
25.475,0,-6,0,-15,-1,1,-6,-4
25.48,0,0,2,0,3,-1,0,0
25.485,-5,-9,-1,2,-1,-2,-5,-18
25.49,-2,-5,0,2,0,-5,-6,-7
25.495,0,-5,-5,1,-4,-2,2,12
25.5,0,-2,6,-8,7,8,0,-5
25.505,-7,-36,13,22,-5,-3,-3,-13
25.51,3,0,-4,-8,2,6,1,8
25.515,-3,-4,-42,-13,-10,-4,0,1
25.52,3,-6,-10,-1,-3,-1,-6,2
25.525,-1,1,5,-8,3,-2,2,-12
25.53,-10,-6,-2,6,0,-7,-7,1
25.535,0,3,5,9,5,3,3,11
25.54,2,0,-12,-2,4,-2,-5,15
25.545,2,5,-9,-7,5,4,2,-2
25.55,9,-8,-6,-6,-7,-2,4,9
25.555,-9,3,11,8,4,-1,-4,-13
25.56,1,-4,1,2,-5,-4,0,14
25.565,7,11,11,0,-2,-2,-1,1
25.57,-1,3,-2,-13,-6,-3,2,-8
25.575,7,-2,6,-9,1,1,0,16
25.58,-3,0,-1,-12,-5,-1,-1,-12
25.585,-6,3,-12,13,3,0,-3,-11
25.59,-1,0,-4,-8,-7,-5,-5,-4
25.595,0,-2,5,5,-14,-6,-1,-2
25.6,-5,-2,2,-1,7,1,-4,-9
25.605,-4,-5,-13,-2,14,7,-2,-9
25.61,-2,-11,7,20,-1,8,3,7
25.615,-2,-1,8,12,2,-6,-2,-2
25.62,-3,-1,-2,-12,-14,-5,2,-2
25.625,-3,-2,3,-1,7,4,-7,-4
25.63,-1,4,2,1,0,-6,1,-1
25.635,-1,-2,-3,-3,4,3,3,-3
25.64,-4,-3,-3,12,-10,-9,-8,-10
25.645,0,10,4,-21,-5,-4,-1,1
25.65,-3,0,2,26,0,-3,-3,0
25.655,0,4,8,-27,3,0,-1,-5
25.66,2,9,1,-4,-3,1,1,0
25.665,6,2,29,5,-6,-4,10,38
25.67,-11,9,-6,-1,-3,-3,-27,-70
25.675,1,-4,-10,4,5,4,5,14
25.68,-6,-5,-30,-11,0,-4,-8,-9
25.685,-3,9,-31,-15,-18,-6,0,6
25.69,4,3,2,-10,1,1,7,15
25.695,1,-14,17,34,9,6,0,-4
25.7,8,19,74,-7,4,4,4,1
25.705,-2,1,0,-3,-2,-4,-9,-21
25.71,1,-8,-3,-5,-5,0,4,17
25.715,-1,3,-3,-4,-4,-7,-5,-16
25.72,-1,-6,-16,-6,-1,1,0,5
25.725,-5,-8,-7,-2,-1,2,-1,-9
25.73,2,4,-6,-9,10,3,3,6
25.735,-1,-3,4,10,-6,-1,3,6
25.74,2,-3,-1,12,-1,0,1,4
25.745,-4,0,-26,-31,-5,-8,-1,16
25.75,-4,-18,-9,2,-6,-5,4,-64
25.755,-7,3,-10,-12,-13,-9,-53,-21
25.76,-6,-32,4,24,9,2,9,7
25.765,0,1,1,5,4,2,-9,-20
25.77,6,4,-2,18,4,2,20,40
25.775,-1,3,-8,-5,0,-2,5,-4
25.78,-3,-7,-38,-33,-15,-7,-10,-12
25.785,12,3,11,43,4,0,7,14
25.79,-24,-1,15,-10,-5,-2,-2,2
25.795,5,7,26,56,22,5,7,-3
25.8,-8,-10,-34,-98,-29,-5,-7,-4
25.805,25,-8,-3,-19,-19,-9,9,2
25.81,-60,-4,8,61,19,6,-31,-3
25.815,2,31,3,-61,8,6,9,-8
25.82,-30,-16,-10,81,1,-5,6,0
25.825,99,27,27,5,-30,-15,9,8
25.83,-81,-13,-10,-70,-10,-2,-16,-25
25.835,26,-6,17,9,-16,-13,-11,-17
25.84,-107,-32,25,77,10,4,6,-4
25.845,-2,8,-14,-6,31,29,-28,-37
25.85,127,7,9,42,23,19,57,127
25.855,-107,-22,-35,66,3,-13,-34,-80
25.86,101,21,65,55,4,-11,15,43
25.865,-43,-4,14,20,-23,-17,11,78
25.87,49,-3,-49,-58,-26,-7,-42,-41
25.875,-13,-96,66,49,1,11,2,54
25.88,-3,16,-29,1,-14,-10,0,-73
25.885,-23,6,-18,3,-8,5,16,-40
25.89,41,24,31,-55,38,19,20,33
25.895,84,51,35,89,14,3,15,47
25.9,-96,-82,-54,-79,-17,-7,43,57
25.905,-15,-12,12,45,15,-18,-92,-84
25.91,-55,-18,-16,-9,-21,-17,29,32
25.915,-11,28,3,10,-8,-10,-17,13
25.92,127,56,40,51,25,22,48,40
25.925,-113,15,8,-97,9,16,98,50
25.93,-64,-66,-72,-46,-53,-31,-65,-42
25.935,-62,-14,-32,-43,0,-10,-59,-54
25.94,112,31,41,39,-32,-15,50,13
25.945,-8,3,60,-2,22,11,-27,-58
25.95,-29,7,40,3,55,18,32,46
25.955,70,6,-17,50,12,17,59,93
25.96,-62,41,-46,-128,-42,-13,-41,-111
25.965,-62,-53,-40,74,-5,-25,-21,-18
25.97,87,28,50,59,-15,22,21,56
25.975,-85,-15,-5,-20,27,1,-5,-77
25.98,-5,9,40,52,56,25,-1,28
25.985,124,17,16,121,12,16,18,66
25.99,-128,11,-45,-13,-89,-48,-6,-69
25.995,127,-21,-13,30,44,39,3,109
26,-57,39,-24,-31,14,27,74,-75
26.005,-6,-78,-45,-108,23,-16,-107,84
26.01,120,87,42,126,-17,-18,74,40
26.015,-79,-27,-2,13,-56,-44,-55,-51
26.02,-40,19,-24,10,6,-9,-27,10
26.025,66,54,39,-23,-3,18,45,-62
26.03,23,-14,-17,-33,22,0,-53,14
26.035,-10,70,-53,-84,-48,-19,85,6
26.04,44,-16,5,13,28,14,-65,84
26.045,-58,-8,34,103,25,10,41,-11
26.05,16,56,42,-64,53,16,-31,-19
26.055,27,-64,-27,-103,-55,-15,10,-13
26.06,-63,-44,2,17,-55,-32,-43,-43
26.065,28,39,-17,-51,-37,-29,16,-16
26.07,29,28,-2,107,12,-2,8,48
26.075,61,40,45,4,83,62,35,27
26.08,-57,-55,-46,-40,-1,1,-50,-8
26.085,-4,-50,-3,39,-1,-4,14,-12
26.09,-111,-29,-28,-4,-46,-58,-77,-74
26.095,-12,-36,-17,-99,-29,-7,96,75
26.1,3,40,-25,-14,18,12,-109,-58
26.105,30,75,-18,56,17,10,23,29
26.11,15,-88,-92,-34,-46,-7,94,45
26.115,36,22,-27,76,-2,-4,-63,18
26.12,-38,10,50,108,59,22,46,-39
26.125,13,-17,-68,-66,-57,-16,-29,38
26.13,-11,-12,30,38,22,18,13,-48
26.135,-87,15,-32,-6,-13,-17,-25,-70
26.14,58,-18,-20,-22,-32,-22,39,56
26.145,31,12,51,21,25,5,-16,20
26.15,-50,-53,28,51,14,24,1,-10
26.155,34,40,56,30,26,-7,8,-10
26.16,55,-3,-3,-7,-16,-18,-31,13
26.165,52,1,-37,-111,-29,33,45,28
26.17,76,-1,4,9,41,21,-4,-10
26.175,-25,-66,-82,42,-1,-30,-77,-70
26.18,50,23,8,-54,-46,-4,20,64
26.185,6,-76,65,82,51,30,17,-22
26.19,6,40,-3,-91,29,38,62,-88
26.195,-60,-56,-9,-8,-20,-19,-64,-65
26.2,28,-14,13,-2,-14,-18,40,48
26.205,61,36,35,79,-7,-18,-4,0
26.21,-43,20,41,0,18,9,-24,14
26.215,-41,-52,28,-34,-23,-4,39,21
26.22,28,3,50,10,-12,1,22,-11
26.225,86,-4,30,95,42,14,-6,-12
26.23,-53,-91,-71,-42,-21,-14,-31,-63
26.235,61,59,-26,-42,-13,-6,-28,22
26.24,27,10,36,96,1,9,13,30
26.245,22,40,31,40,61,21,22,32
26.25,-19,-44,-68,-28,-80,-47,-39,-39
26.255,27,-10,-21,18,-5,-7,23,12
26.26,-6,-28,-5,-60,-27,12,-8,8
26.265,-51,11,-13,-30,19,29,17,-3
26.27,-3,4,25,37,4,2,-32,11
26.275,21,9,51,40,20,12,22,53
26.28,-43,26,11,15,29,-17,3,-59
26.285,19,62,-10,-55,-40,-9,-10,90
26.29,16,-74,45,58,20,-5,-57,-31
26.295,-37,13,-38,-101,-4,19,126,107
26.3,-23,-5,-16,127,19,-20,-102,-67
26.305,-64,48,-31,-118,-56,-22,36,-43
26.31,-32,-8,15,4,-17,-21,-18,56
26.315,37,46,55,68,37,23,32,-103
26.32,6,-31,-19,-128,5,3,-59,2
26.325,39,-18,-24,24,-35,-10,55,40
26.33,34,85,59,86,22,16,-26,-7
26.335,-71,-54,-6,-9,-7,-17,14,-26
26.34,11,9,-17,-42,-9,5,64,42
26.345,-41,-2,-33,62,19,-9,-51,-48
26.35,69,53,14,-12,-29,-1,105,4
26.355,14,-6,-26,83,8,-5,-68,55
26.36,-5,37,-47,50,85,33,5,-16
26.365,20,-49,-33,-19,-59,-34,-9,39
26.37,21,31,-31,-52,-6,1,17,8
26.375,31,-3,52,-4,4,22,0,1
26.38,-5,44,-12,89,-12,-2,-69,-92
26.385,-128,-97,-32,-64,-3,-14,-41,-55
26.39,52,28,9,96,41,-9,102,120
26.395,76,15,-62,-74,-60,16,-23,1
26.4,65,-1,-31,49,36,21,51,55
26.405,-104,-11,10,37,25,0,-86,-128
26.41,82,-45,11,-73,-30,-31,-44,-40
26.415,-11,42,-2,78,-7,-28,64,38
26.42,12,-35,-12,-45,-10,1,42,38
26.425,-18,-20,14,-78,-25,6,35,-30
26.43,112,58,56,110,69,43,63,42
26.435,-69,-20,-55,-111,-48,-39,-110,-81
26.44,100,-14,30,-17,-41,-10,11,68
26.445,-36,-18,80,17,48,-7,5,-10
26.45,21,-22,36,10,-13,27,21,46
26.455,57,43,7,16,24,14,103,18
26.46,-60,-79,-44,-76,-44,-48,-95,-96
26.465,18,-10,20,40,11,-2,57,88
26.47,-68,5,-39,8,-23,-9,-12,-80
26.475,30,20,27,28,42,28,20,40
26.48,25,18,-29,-119,-20,0,20,32
26.485,63,38,-36,44,-24,-23,-24,41
26.49,-89,1,-5,-25,19,1,14,-49
26.495,32,-10,-45,20,7,5,-50,-4
26.5,12,-31,1,50,-37,-12,3,-12
26.505,-18,8,-10,-21,22,24,77,-34
26.51,23,38,34,40,64,13,-94,109
26.515,-25,-10,-27,-60,-74,-31,8,-94
26.52,24,29,48,47,35,-9,12,38
26.525,30,14,-80,62,-45,-20,-9,-75
26.53,-85,-73,-47,17,-32,-17,-6,39
26.535,111,20,112,53,46,30,5,100
26.54,-43,32,22,29,13,7,1,-110
26.545,-55,14,63,11,10,-3,5,37
26.55,-10,-14,-59,-89,-17,-10,-19,-28
26.555,33,10,38,81,30,3,-8,9
26.56,-73,-17,26,-19,-36,11,82,87
26.565,-18,-16,-40,-128,-10,-20,-84,-29
26.57,22,3,-23,9,-8,-3,36,-41
26.575,-20,-29,-1,5,1,-9,3,53
26.58,-11,19,39,51,45,22,23,-67
26.585,-36,13,44,59,9,0,4,-7
26.59,4,-6,-23,-125,-112,-22,-23,-8
26.595,27,23,2,27,51,10,-2,-32
26.6,5,11,18,24,31,26,13,108
26.605,-3,-28,-21,-45,-18,-25,-16,-28
26.61,98,17,62,43,14,11,14,43
26.615,-124,-59,-13,-12,-12,-2,-3,-106
26.62,34,17,24,88,-1,-17,-4,18
26.625,47,-29,-88,-73,-48,-16,-71,45
26.63,10,30,-14,63,19,-2,1,-7
26.635,9,12,9,-7,-27,-5,12,8
26.64,-47,-10,13,-45,32,10,33,-43
26.645,-11,-21,-5,9,-28,-8,-8,-13
26.65,-6,11,-25,-3,23,3,-21,5
26.655,-37,-18,8,2,-10,2,0,-19
26.66,28,8,-24,-92,-30,-9,9,4
26.665,-2,-22,0,-36,12,16,27,47
26.67,-21,-17,-71,-34,-11,0,-10,-69
26.675,-21,6,17,67,42,10,-12,8
26.68,18,-13,-52,-13,-30,-30,-18,22
26.685,21,18,16,44,-7,1,1,-1
26.69,-20,-19,26,25,10,18,10,11
26.695,13,13,4,-76,-14,6,0,10
26.7,-15,-17,-9,-19,-15,-10,-23,-22
26.705,7,-17,-42,-41,-2,-5,2,10
26.71,-6,-4,14,-12,-3,-14,10,-3
26.715,25,-4,49,-16,-20,1,-1,20
26.72,-17,1,-24,35,22,13,21,-9
26.725,23,42,48,64,34,12,-42,-16
26.73,-7,-13,-56,-37,-12,-7,-9,-3
26.735,17,18,-2,-3,-11,-16,-19,7
26.74,-30,-35,31,-49,-1,1,9,-18
26.745,31,76,12,49,-4,1,43,13
26.75,-1,3,12,3,23,3,-30,-28
26.755,-8,-6,-22,6,-18,-9,-19,0
26.76,14,4,-10,6,-19,-9,-4,-23
26.765,21,-4,-8,25,26,10,45,49
26.77,-29,-10,18,-5,-17,-14,-82,-25
26.775,-1,-7,-24,-19,-7,-6,6,-5
26.78,1,6,-2,35,13,6,-2,30
26.785,11,-27,16,-6,-6,2,7,-6
26.79,9,5,23,30,12,7,37,14
26.795,-6,-11,-14,12,6,1,4,15
26.8,-21,-5,21,8,-4,4,-35,-38
26.805,17,-10,17,3,3,-2,13,15
26.81,-3,-17,32,5,-21,-9,4,11
26.815,-2,7,36,-12,-4,-3,2,-5
26.82,-10,7,-11,-6,-5,-10,-2,12
26.825,-9,-5,3,-6,7,7,-5,-25
26.83,-1,-4,-3,6,-3,0,13,8
26.835,5,0,-3,-4,-2,10,-3,8
26.84,-7,10,-7,10,-6,-9,-2,-18
26.845,-25,-21,-24,-22,4,0,-5,-15
26.85,17,28,38,3,9,4,-2,-9
26.855,-25,-7,-41,-4,-1,0,15,-13
26.86,14,-4,-8,22,2,-4,-24,28
26.865,-3,11,-11,-3,-15,-5,-4,-15
26.87,10,-51,57,-15,15,13,31,38
26.875,-30,-5,10,-3,4,-3,1,-44
26.88,5,-6,20,13,1,3,4,27
26.885,2,-1,-18,-8,-17,-6,-15,29
26.89,-11,15,-19,17,7,0,1,-15
26.895,13,-1,1,6,22,11,8,27
26.9,0,-8,5,-10,-13,-5,-2,-8
26.905,-11,-17,-6,11,-6,-2,6,8
26.91,2,3,-34,1,-10,-5,3,11
26.915,7,1,-9,-41,-8,-5,-8,6
26.92,-15,7,-6,27,8,1,2,-16
26.925,6,5,12,16,-1,3,-1,-9
26.93,-7,6,-16,-18,10,0,-2,-8
26.935,0,-5,-7,14,-1,-3,-5,-5
26.94,5,-2,-5,-11,1,6,1,7
26.945,-10,2,9,35,-3,-5,-3,-19
26.95,-7,-3,-19,-34,-9,-7,-2,-7
26.955,2,-1,-5,-7,-2,-4,0,17
26.96,-3,-5,-6,-1,-3,-2,-5,-7
26.965,2,2,0,-10,4,3,-3,-2
26.97,-14,6,-11,3,0,2,2,-15
26.975,15,0,0,-5,-3,-4,-2,26
26.98,-9,-2,-3,8,-2,-3,-3,-15
26.985,1,-2,-6,-6,3,1,-2,-9
26.99,1,3,-4,0,-3,-5,-1,5
26.995,-5,-2,-45,-14,-14,-5,-5,-10
27,7,-1,9,30,16,3,2,7
27.005,-8,-4,-15,-63,-16,-6,-5,-6
27.01,-1,-2,-12,17,-6,-2,0,3
27.015,-7,-1,-2,0,-4,-2,-2,-10
27.02,2,2,0,9,8,-1,1,4
27.025,4,4,6,5,5,6,-1,0
27.03,0,2,-6,1,-2,-3,-1,-1
27.035,-6,-6,-3,-6,0,0,-2,-8
27.04,-1,-4,-8,-12,-2,-1,-3,2
27.045,1,2,13,17,5,0,1,0
27.05,-3,-4,-6,-13,-3,-3,-2,-3
27.055,-3,2,18,16,2,-4,-3,-4
27.06,3,-4,-13,-22,-6,-4,-1,0
27.065,-3,-1,-9,2,-9,-1,-4,-7
27.07,-2,4,6,6,7,7,5,4
27.075,0,-3,1,-6,-4,-3,-4,-3
27.08,3,1,5,13,-1,-1,0,2
27.085,-3,-4,-15,-18,-1,-5,-5,-5
27.09,-3,1,-9,-11,-2,-2,-4,-2
27.095,-3,-15,0,-6,-2,-3,0,-2
27.1,2,2,5,-1,-1,1,0,1
27.105,-2,0,0,9,-1,-1,-1,-1
27.11,2,0,-1,0,-2,0,0,1
27.115,-1,6,4,2,1,2,0,-3
27.12,-2,-4,-7,-8,-2,-1,-1,-1
27.125,-2,-7,-2,2,5,0,-3,-1
27.13,0,2,2,-4,-7,-2,-2,-1
27.135,1,2,6,8,3,2,-1,0
27.14,-2,-1,0,1,5,4,-1,1
27.145,1,3,8,10,-2,-1,-1,-2
27.15,-2,-2,-6,-7,-5,-3,-2,0
27.155,-1,0,-3,-6,-5,-3,0,-2
27.16,-2,-2,-2,-4,-5,-6,-1,0
27.165,-3,-1,-2,-1,4,0,-1,-3
27.17,-1,-1,5,10,9,2,1,-1
27.175,-2,0,4,5,4,-3,-2,-2
27.18,1,-3,-13,-29,-19,-4,-2,-1
27.185,6,0,-4,-3,-4,-3,-1,4
27.19,-9,-2,2,3,-5,-2,-1,-3
27.195,-2,0,-1,-1,0,-2,-2,-5
27.2,-1,0,8,25,7,-1,-1,-3
27.205,0,1,-4,-15,2,6,4,1
27.21,-1,-4,-7,15,-1,-1,-1,-2
27.215,2,-1,-1,-14,-1,1,0,1
27.22,-2,-2,-4,-6,-3,1,2,0
27.225,-1,1,5,10,-2,-4,-2,-1
27.23,1,2,5,5,10,3,2,0
27.235,-6,-2,3,-4,0,1,-1,-2
27.24,0,-5,-16,-11,-11,-8,-6,-5
27.245,-2,-3,0,3,3,2,0,-1
27.25,1,-1,1,-4,-1,-4,-3,1
27.255,-1,-2,-1,1,-5,-4,-2,0
27.26,-1,1,3,-2,2,5,0,-2
27.265,0,-4,-6,-3,-7,-6,-2,16
27.27,9,2,1,-13,1,2,0,14
27.275,-5,1,9,26,2,2,-1,-16
27.28,12,4,-1,-29,0,0,4,11
27.285,-26,-10,-14,1,-7,-9,-9,-21
27.29,6,0,-2,-7,-7,-4,1,16
27.295,1,-2,-4,-3,2,-4,-4,2
27.3,2,5,16,43,13,7,5,-2
27.305,8,1,-3,-41,-4,2,2,12
27.31,-3,-2,1,5,-7,-4,-2,-8
27.315,2,6,15,13,-10,-2,0,0
27.32,-9,-12,-38,-51,-3,-9,-8,-7
27.325,-1,0,3,21,5,7,1,-4
27.33,-5,-2,-1,4,4,1,2,-7
27.335,1,0,-3,4,-3,-1,-1,-2
27.34,7,-3,1,8,-14,-2,5,44
27.345,-8,-6,3,16,4,1,-6,-82
27.35,-3,-8,-19,-30,3,3,-6,-9
27.355,-1,-1,-3,-4,8,2,2,9
27.36,0,1,2,-3,0,-6,6,15
27.365,-3,-1,0,6,-10,-5,-3,13
27.37,-5,0,7,15,0,-2,-13,-16
27.375,1,-2,-8,-13,4,4,2,-3
27.38,-5,-2,4,18,-4,-3,-4,-17
27.385,3,1,-1,-12,-3,1,6,16
27.39,0,0,7,18,7,0,4,-2
27.395,-2,-2,-8,-34,-1,2,-2,8
27.4,0,4,8,26,10,7,3,-12
27.405,0,-3,-1,5,-12,-12,-7,5
27.41,0,2,2,-10,-11,-8,-1,-3
27.415,7,1,10,20,-2,-3,3,4
27.42,-4,10,22,-21,32,12,5,-9
27.425,-4,-8,-25,14,-23,-7,3,12
27.43,-3,-6,-1,7,-4,-4,-10,23
27.435,-6,1,5,-2,-9,-2,13,-73
27.44,1,2,8,10,3,2,-7,-21
27.445,-1,1,4,-14,15,-5,-14,46
27.45,-12,1,-3,-12,-3,4,13,-50
27.455,-4,-7,-9,2,-8,-7,-37,23
27.46,1,-6,-5,-8,-3,-4,-8,29
27.465,1,0,-2,-4,3,-2,10,2
27.47,14,1,0,5,-3,6,24,77
27.475,-13,0,1,-5,4,4,3,-45
27.48,-7,-4,-6,-1,-13,-4,-12,-19
27.485,5,3,9,6,7,-1,1,5
27.49,-2,-5,-6,-15,-8,-3,-3,12
27.495,3,-1,-4,1,-3,-5,12,20
27.5,-1,0,6,8,-2,-2,-4,-2
27.505,-4,-4,-15,-9,0,-3,-5,-13
27.51,0,2,-5,-13,4,3,1,-16
27.515,-2,-3,-1,10,-1,-1,-4,8
27.52,-3,-1,0,-5,2,-2,1,-13
27.525,4,2,9,14,-3,5,1,-1
27.53,-4,-4,-11,-23,-8,-5,-7,-18
27.535,2,1,5,4,-6,-4,-3,13
27.54,-6,-8,-16,-7,-30,-13,-4,2
27.545,0,2,9,19,38,15,8,-6
27.55,0,1,2,2,19,10,-5,-5
27.555,3,4,4,9,2,-2,0,10
27.56,2,2,-5,-21,-11,-10,2,4
27.565,-3,-1,-3,-10,-16,-9,-9,-27
27.57,-5,-4,0,14,-9,3,4,2
27.575,3,1,1,-13,12,5,4,32
27.58,-3,-2,-2,6,1,-2,-13,-47
27.585,0,1,1,-6,-11,-2,6,11
27.59,3,3,10,19,18,-3,-7,-4
27.595,0,-3,-22,-23,-10,2,9,2
27.6,-11,-10,-9,-17,-15,-10,-8,0
27.605,2,1,6,-2,-2,-2,-11,-2
27.61,-2,-1,-5,-19,-15,-3,2,-11
27.615,2,0,1,2,2,-3,0,13
27.62,-1,-1,-5,13,7,3,2,1
27.625,2,0,-2,-14,12,3,6,2
27.63,3,4,6,12,2,1,-10,-6
27.635,-4,-6,-12,-15,-21,-9,-7,-10
27.64,1,0,1,-2,2,5,4,2
27.645,-2,0,10,8,-1,6,3,3
27.65,3,0,-12,-14,0,-8,-1,2
27.655,-4,-5,-8,5,-2,6,10,-11
27.66,4,0,-1,-10,-2,-5,3,48
27.665,-8,-4,-1,-2,-9,-6,-41,-57
27.67,0,-2,0,5,-1,-5,-1,1
27.675,8,-1,1,1,4,3,20,48
27.68,-15,-4,-1,4,1,-7,-21,-51
27.685,0,-3,-5,-12,-7,-4,2,18
27.69,-3,-1,-1,13,13,7,-8,-8
27.695,-3,-2,3,-5,3,4,6,1
27.7,7,5,7,18,12,5,13,14
27.705,0,-1,-4,-15,-18,-6,2,3
27.71,-7,-4,-16,-14,-3,-6,-3,-16
27.715,3,-4,-16,-24,3,1,-1,2
27.72,-1,0,3,9,2,0,-3,-3
27.725,2,1,3,6,3,0,-2,-3
27.73,0,-1,7,7,-10,0,8,15
27.735,-2,3,11,11,9,0,-6,-18
27.74,-2,-4,-16,-24,-6,-5,-12,-3
27.745,-1,0,-5,0,-4,-5,1,1
27.75,0,-2,3,2,-3,-1,3,3
27.755,-3,-2,4,9,3,-3,-14,-16
27.76,1,0,-1,1,-8,0,11,3
27.765,5,3,2,12,15,9,21,47
27.77,-9,-4,-4,-9,-3,-8,-21,-87
27.775,-3,0,10,18,-5,-6,-9,-6
27.78,0,-9,-26,-35,-12,-4,4,15
27.785,1,-1,3,4,3,4,5,1
27.79,2,3,4,-9,0,-1,-12,11
27.795,-3,1,2,1,-2,-9,-4,0
27.8,7,5,8,6,-3,13,30,12
27.805,-1,-3,0,15,1,-3,-21,-11
27.81,-1,-2,-4,10,-6,-5,-5,5
27.815,-5,-4,-5,-22,-4,-4,-6,-16
27.82,1,3,13,-4,-9,-17,-5,6
27.825,-4,-8,-20,-7,-3,3,13,-7
27.83,2,0,1,1,2,15,9,19
27.835,1,1,0,19,39,16,-3,-2
27.84,-3,-2,-3,-4,-2,-5,-2,-1
27.845,2,5,8,-21,-6,-10,7,3
27.85,-4,0,9,35,-17,-17,-13,-6
27.855,-3,-8,-29,-46,-14,-3,3,31
27.86,-9,-1,7,16,11,15,-5,-78
27.865,-3,-2,4,6,15,-3,-12,3
27.87,1,0,-5,-15,-8,-5,1,12
27.875,0,3,7,15,-8,-5,-1,-11
27.88,1,-1,-6,-5,-9,-6,-5,19
27.885,-1,0,-6,-12,-9,-2,10,-3
27.89,2,4,4,0,10,4,-2,3
27.895,1,-1,1,8,-6,-2,-10,5
27.9,12,0,7,14,2,1,-2,6
27.905,-10,1,-4,-28,-3,2,5,-6
27.91,9,0,2,11,1,-4,7,14
27.915,-11,-8,-13,3,-17,-13,-9,-23
27.92,-1,0,1,-7,5,8,-1,10
27.925,4,1,14,46,19,5,1,-3
27.93,-1,-8,-19,-70,-25,-11,1,3
27.935,0,1,9,11,0,1,-1,-7
27.94,-1,-3,-2,1,-8,4,-2,2
27.945,-3,0,5,35,25,2,-3,4
27.95,-2,3,8,8,14,5,3,0
27.955,4,4,12,37,1,2,14,2
27.96,-7,-4,-9,-36,-23,-17,-25,-7
27.965,-2,-4,-8,-22,-11,-5,-4,-4
27.97,1,-1,0,2,2,4,6,29
27.975,-5,-3,-4,-12,3,-4,-7,-54
27.98,-3,2,10,64,13,3,6,8
27.985,3,-3,-9,-48,-22,-3,0,2
27.99,-5,-5,-5,-3,2,-3,-3,-15
27.995,2,4,9,16,2,3,-3,17
28,-5,-6,-19,-28,4,6,2,-3
28.005,-3,-3,-2,3,-2,-1,-6,-7
28.01,0,4,13,23,12,1,4,11
28.015,-2,-5,-11,-22,-17,-7,-5,1
28.02,-3,-3,-11,-17,-1,-9,3,4
28.025,1,-1,-3,-12,0,6,-3,-5
28.03,-2,1,2,35,-6,-1,3,-6
28.035,1,5,8,-31,11,14,4,8
28.04,-6,-10,-11,-6,-12,-10,-5,-6
28.045,-3,-4,-3,17,-6,-9,-4,0
28.05,-3,0,-2,-6,0,-3,-1,-6
28.055,0,2,2,14,16,8,-1,0
28.06,3,5,10,-3,10,3,5,11
28.065,-1,-1,0,-2,-22,-4,-2,-5
28.07,-3,-3,-4,10,33,7,-2,-9
28.075,1,-3,-3,1,-2,2,4,14
28.08,-3,1,4,8,3,-1,2,0
28.085,3,0,-4,-2,-13,-11,-19,-8
28.09,-7,-4,-4,-8,-13,-4,5,35
28.095,-10,-4,-10,-18,-8,-3,-10,-56
28.1,3,1,5,5,11,2,11,15
28.105,-4,-3,-2,3,5,0,-6,-19
28.11,4,-2,0,-3,-6,-2,0,15
28.115,0,-1,-4,1,0,-2,1,11
28.12,-4,0,7,23,-6,-6,-4,-7
28.125,1,0,-9,-65,-12,-3,7,7
28.13,-4,-7,-7,4,0,-5,-6,-21
28.135,-3,-3,-5,-6,-19,-6,-2,7
28.14,0,3,4,2,32,5,-3,-12
28.145,2,3,5,27,-5,10,7,11
28.15,-4,-6,-3,-5,-23,-12,-8,-12
28.155,-2,0,-1,-1,4,-3,0,-3
28.16,0,0,-1,-1,-16,3,-2,9
28.165,0,1,5,8,20,1,2,-2
28.17,2,4,9,6,-1,7,2,-5
28.175,-3,-7,-22,-17,-2,-11,-4,5
28.18,-1,-1,-4,-7,-10,-3,-1,-8
28.185,0,-1,5,6,-4,0,15,1
28.19,1,0,-5,-15,-2,0,-13,14
28.195,-1,2,8,10,0,-4,-2,-18
28.2,-1,-3,-3,-1,-5,-3,-16,-13
28.205,7,2,10,22,-2,-4,-2,6
28.21,-9,-2,-10,-13,-8,-9,8,-5
28.215,13,-4,-15,-39,-13,1,5,21
28.22,-11,4,8,12,17,14,31,22
28.225,-13,-6,-15,-66,-22,-4,-20,-33
28.23,14,8,15,67,23,2,-2,-14
28.235,-6,-2,14,-18,-14,-7,-36,-10
28.24,4,-4,-15,8,22,1,3,6
28.245,0,0,0,3,-9,2,22,19
28.25,2,5,5,-51,26,12,-3,-7
28.255,66,21,14,68,-12,3,63,64
28.26,9,7,-9,-34,25,17,11,16
28.265,-17,-44,-13,2,-33,-19,-57,34
28.27,33,4,-9,25,-29,-24,15,-11
28.275,25,26,53,75,59,24,12,-53
28.28,-17,-11,-37,-24,-55,-14,-25,-55
28.285,-31,7,-27,46,5,-8,37,-32
28.29,61,65,13,15,7,1,47,78
28.295,-56,-101,-12,-39,-59,-20,42,-35
28.3,76,47,16,101,44,32,-77,34
28.305,-128,-60,-45,-70,47,-8,-56,-76
28.31,34,18,-1,94,42,44,20,-85
28.315,75,57,23,36,31,8,34,80
28.32,20,-51,-40,-92,-53,-40,21,23
28.325,74,46,10,-29,-60,-26,106,51
28.33,-37,-23,6,-67,29,-2,-68,32
28.335,74,15,48,94,42,43,79,91
28.34,-79,-34,-40,-46,7,19,-65,-128
28.345,9,4,6,2,52,0,-61,-10
28.35,83,-45,-60,-128,-109,-33,74,14
28.355,-26,27,4,-31,10,-14,-27,-14
28.36,-5,45,24,-19,-34,-41,-59,-49
28.365,13,34,91,123,13,56,115,77
28.37,-45,10,40,66,77,4,-64,-64
28.375,-52,-59,-111,-128,-67,-34,-73,-26
28.38,90,20,52,-29,-2,-2,67,26
28.385,96,76,10,35,38,19,-57,-30
28.39,-60,-38,32,102,-20,1,-29,2
28.395,-56,-25,11,127,61,11,66,-25
28.4,76,60,-29,-46,-63,-23,-7,91
28.405,-62,-64,-25,72,-26,-38,-85,-38
28.41,12,28,-22,-19,10,-4,36,36
28.415,20,1,8,24,-11,-10,8,59
28.42,-25,-20,58,127,66,50,19,-44
28.425,51,9,-77,-127,-64,1,78,-36
28.43,-94,-31,-2,-13,-31,-21,-94,-76
28.435,-90,35,51,-7,47,7,-33,-1
28.44,-49,-39,-58,-30,-39,-36,22,-1
28.445,107,25,-16,-37,-10,-2,8,46
28.45,-95,17,18,-46,46,31,65,-41
28.455,-69,-26,-58,2,-70,-40,-123,-110
28.46,26,-7,-16,-52,10,-10,-48,-32
28.465,1,-14,30,71,56,11,4,40
28.47,78,-33,-1,-75,-71,-7,19,116
28.475,95,100,51,-5,34,29,51,-66
28.48,-104,7,61,124,42,6,18,29
28.485,-50,-62,-48,-34,-56,-42,-69,-6
28.49,53,37,10,2,21,5,54,2
28.495,-48,-25,-13,58,0,4,-8,23
28.5,99,32,-3,-36,38,28,46,-1
28.505,29,-8,78,-9,18,19,39,43
28.51,35,42,-60,-71,-38,-25,-28,99
28.515,-27,-25,11,-13,-18,-4,89,-20
28.52,-51,-28,12,46,-18,-12,-95,24
28.525,58,85,0,-46,10,4,11,-30
28.53,-46,-63,-38,19,-10,-2,9,4
28.535,42,-11,-6,-71,-34,-25,-9,83
28.54,-46,-1,23,43,27,14,24,-34
28.545,-26,3,76,7,38,18,34,29
28.55,11,-1,-13,-18,-72,-9,-38,-69
28.555,9,22,-20,-65,50,17,11,43
28.56,20,-77,13,-22,5,7,5,9
28.565,101,64,14,15,-15,-9,62,76
28.57,-71,-67,-80,-20,10,-20,-84,-100
28.575,24,15,62,13,-46,-23,-20,-55
28.58,95,26,-39,30,-3,37,85,81
28.585,-14,-20,1,58,102,32,-31,1
28.59,32,7,0,-24,-37,-20,-4,-25
28.595,-13,-6,-56,-125,-31,-12,-47,5
28.6,-18,1,-3,37,-19,-32,21,17
28.605,69,48,-31,21,-45,-18,-59,-64
28.61,-30,-74,39,71,42,19,46,55
28.615,4,-22,-21,-54,-9,-6,-85,-6
28.62,14,41,36,21,-34,-14,25,-11
28.625,-30,-14,-4,-20,7,13,16,53
28.63,-22,33,5,-66,45,15,31,-62
28.635,49,-11,5,23,-21,-8,-31,46
28.64,-3,6,25,-18,32,13,8,36
28.645,-128,-43,-70,-42,-39,-28,-20,-41
28.65,25,20,32,64,-34,-7,-2,13
28.655,-2,-13,1,-21,35,16,31,-5
28.66,5,5,-22,-4,-21,-10,6,4
28.665,-12,-7,-3,-60,-13,-7,-18,2
28.67,24,1,31,52,-9,2,21,28
28.675,51,6,-34,78,32,13,-1,-18
28.68,-46,0,-34,-100,0,-7,-43,-50
28.685,-5,-19,26,59,-11,2,28,-63
28.69,13,47,27,26,-12,-9,-45,40
28.695,16,-8,35,4,27,31,23,14
28.7,31,9,-42,-9,3,-7,53,42
28.705,-84,-68,-24,11,-28,-38,-28,2
28.71,9,19,21,-1,17,26,-19,-52
28.715,18,36,-40,12,52,41,14,7
28.72,-33,-13,7,-67,1,2,22,23
28.725,20,-20,21,25,-23,-2,21,42
28.73,41,8,31,83,10,-11,-8,-2
28.735,-47,-5,-32,29,-44,-28,-24,-26
28.74,7,-20,9,-18,7,4,6,17
28.745,-10,-6,-63,-72,-7,-13,-28,-39
28.75,35,18,43,38,4,-1,20,-13
28.755,13,-40,4,-7,-12,2,-11,45
28.76,-46,-20,-22,-11,4,3,4,-3
28.765,-11,6,14,17,3,-1,-29,-87
28.77,19,25,-1,-59,9,7,1,35
28.775,0,19,97,81,-1,-10,34,29
28.78,-12,-7,1,-57,-36,-12,-20,-25
28.785,41,-19,29,73,25,18,24,78
28.79,-42,-1,-18,-66,5,-5,-32,-27
28.795,34,8,-28,6,-4,-10,-49,22
28.8,-30,-5,6,-23,-7,10,12,-80
28.805,12,23,58,78,12,3,-35,-3
28.81,-4,-13,-48,-2,-10,-22,11,27
28.815,-6,-50,67,13,-2,6,20,-4
28.82,23,14,49,127,20,-3,-21,-21
28.825,-43,-16,-47,-37,0,21,34,15
28.83,24,7,18,-5,0,-5,12,-40
28.835,-99,-14,-93,-73,-57,-35,-17,-34
28.84,83,26,-2,47,10,-9,-9,75
28.845,-65,-35,20,44,-27,-10,-56,-66
28.85,61,13,18,34,75,26,46,53
28.855,-9,12,51,60,-3,1,-22,-61
28.86,12,-3,0,5,31,10,15,24
28.865,74,33,-7,-44,-49,-24,-4,30
28.87,-46,-25,-19,-31,-4,9,-1,19
28.875,12,7,-7,-21,10,-3,19,-13
28.88,-27,-9,4,9,-25,-11,-14,-1
28.885,26,15,17,-5,30,19,13,10
28.89,-22,-14,19,18,17,4,3,-2
28.895,31,-10,-25,-64,-43,-11,4,55
28.9,-67,-25,-37,6,-10,-12,-22,-70
28.905,-2,5,3,-13,-8,-3,30,3
28.91,16,-22,-4,-16,-11,9,-9,29
28.915,-46,0,7,73,40,9,5,-11
28.92,19,2,56,43,10,8,23,34
28.925,14,9,-22,-99,7,7,36,11
28.93,-39,-11,-15,77,-16,-17,-84,-63
28.935,1,12,-23,-69,-12,4,-1,-19
28.94,3,-4,-12,29,2,1,-7,-8
28.945,-14,2,-3,-22,6,5,25,15
28.95,17,7,0,16,1,0,21,24
28.955,-1,-12,-15,-31,-8,-7,-7,-12
28.96,-7,3,2,-18,2,-2,-8,-10
28.965,14,15,0,9,3,-12,-14,1
28.97,7,8,-32,-4,-28,-10,48,76
28.975,72,59,95,102,59,31,-22,-64
28.98,-72,-41,-95,-128,-26,18,-16,-8
28.985,-41,-61,-39,53,-3,-10,-29,-61
28.99,6,27,38,-33,-9,-1,3,27
28.995,17,19,-16,16,-12,-24,23,36
29,29,28,41,20,1,-2,9,-12
29.005,-8,-3,30,27,23,8,-5,1
29.01,25,-6,-15,-41,-9,1,7,-14
29.015,17,-4,-5,-24,5,6,2,8
29.02,-29,-13,19,45,16,1,-15,-3
29.025,34,12,-6,-17,26,14,-1,24
29.03,-99,-16,12,-21,-15,-18,-32,-67
29.035,-11,-19,-75,-37,-36,-19,-5,4
29.04,35,-9,-29,7,-45,-20,-11,20
29.045,8,10,14,36,23,10,39,7
29.05,16,17,-39,-10,7,-1,-10,-1
29.055,-34,-5,-20,7,9,3,-13,-39
29.06,-15,-2,-10,-18,3,-11,5,39
29.065,-9,17,-5,-14,-7,1,-7,-37
29.07,13,-4,12,36,23,13,-7,-16
29.075,-1,3,-26,-58,2,-2,1,27
29.08,23,-1,56,52,-13,-5,26,35
29.085,-16,-7,12,38,1,-5,-40,-11
29.09,10,-10,-29,-33,-32,-7,12,6
29.095,-50,-15,55,21,15,5,-6,1
29.1,30,-35,58,-47,12,8,8,-9
29.105,10,33,15,26,-10,0,6,-7
29.11,-13,-16,23,10,15,4,12,-8
29.115,25,1,-11,-8,-9,-2,27,33
29.12,-3,17,-6,19,18,3,-48,-18
29.125,-13,0,-5,-33,-30,-17,-7,9
29.13,19,-5,23,28,-25,-1,13,26
29.135,-3,-6,-8,-24,-9,-4,2,-42
29.14,-8,8,-10,49,14,2,-10,-12
29.145,10,-4,-12,-73,-4,-7,11,25
29.15,28,17,-12,-39,0,9,17,-11
29.155,-5,-22,73,73,26,9,-28,21
29.16,-8,2,-41,-44,-23,-17,7,18
29.165,9,16,33,88,29,12,5,7
29.17,-18,-19,-66,-77,-29,-15,-8,-4
29.175,2,-1,-11,-16,-31,-6,16,17
29.18,4,8,-5,6,12,1,-1,-13
29.185,4,-6,-1,-9,-9,-5,-10,2
29.19,0,5,23,42,18,7,10,11
29.195,11,-17,-49,-57,-15,-1,7,11
29.2,14,19,20,-14,-13,-6,-5,1
29.205,-9,9,65,-13,8,4,-43,-9
29.21,-17,-4,-10,25,14,-2,0,-21
29.215,-11,4,-17,-32,-19,-6,-12,-19
29.22,19,9,7,15,14,12,44,9
29.225,15,-15,-27,-4,-11,-9,-7,28
29.23,-39,-12,-7,-8,6,0,-9,-26
29.235,0,12,32,71,24,2,-31,-65
29.24,-5,-7,-46,-119,-33,-1,1,1
29.245,13,2,4,100,16,12,27,6
29.25,-6,-5,-7,-54,1,-6,1,13
29.255,7,0,-43,-48,-24,-16,0,16
29.26,-11,42,-14,10,-2,-6,-8,-1
29.265,-4,4,6,4,8,2,-1,1
29.27,8,-2,-33,18,-9,-5,7,-11
29.275,-22,-17,-1,-6,0,0,-2,14
29.28,17,0,0,4,3,-1,15,23
29.285,1,4,43,-14,-6,-6,-24,-65
29.29,-4,1,8,45,6,1,-17,34
29.295,20,12,0,11,15,6,11,14
29.3,12,-4,18,-27,-13,-6,-3,8
29.305,-18,-19,-56,-16,-7,-2,7,4
29.31,10,-4,5,-57,-11,-3,1,0
29.315,-38,-10,15,23,7,-8,-18,-51
29.32,15,-16,-10,13,-11,-3,10,8
29.325,0,-3,30,17,-1,2,13,18
29.33,-4,6,2,-4,20,10,-8,-10
29.335,14,5,-2,8,-4,7,16,30
29.34,-18,-7,16,28,20,4,-9,-12
29.345,-6,-12,-29,-36,-9,-5,-1,12
29.35,-2,1,21,53,12,2,16,-2
29.355,5,2,5,13,-14,-11,-12,5
29.36,-21,-15,3,20,-12,-11,-12,-37
29.365,1,6,-15,-26,13,15,11,6
29.37,11,1,2,4,-9,-3,4,-14
29.375,1,-3,-2,-26,-3,3,39,57
29.38,-27,1,-3,13,4,-4,-48,-108
29.385,4,7,-36,-28,-13,-14,-8,52
29.39,-1,2,10,20,3,4,4,15
29.395,3,2,-1,-6,1,-2,2,9
29.4,-1,-6,-3,-4,5,5,4,4
29.405,1,-1,-6,6,21,7,11,-7
29.41,-7,-10,-6,-28,-41,-11,-15,-16
29.415,-2,2,7,-7,-3,-1,-5,-12
29.42,5,1,-7,9,2,-3,-2,14
29.425,-7,6,10,29,17,8,-2,-18
29.43,2,-7,-13,-47,6,-2,-4,16
29.435,-6,-14,16,-2,-9,-7,-8,-22
29.44,2,-1,5,10,-9,5,11,20
29.445,-2,-3,-13,0,-5,-1,1,1
29.45,-1,7,1,-28,3,-1,-8,-12
29.455,-2,2,-12,-17,-1,0,-3,-4
29.46,-1,-5,7,7,19,0,-3,6
29.465,-7,-19,-46,-37,-47,-18,1,-1
29.47,4,5,1,21,5,2,-4,-4
29.475,-2,0,-3,30,21,8,-5,-9
29.48,10,5,5,-1,-12,-3,3,33
29.485,-19,0,1,-16,-8,-10,-7,-47
29.49,1,13,17,15,1,7,5,9
29.495,2,3,-5,-24,7,2,-1,3
29.5,-7,-4,-15,9,8,-1,-3,-6
29.505,6,0,11,-9,-9,3,5,9
29.51,-8,-7,-11,24,-13,-17,-9,-6
29.515,-3,1,7,-5,0,9,-1,-6
29.52,6,2,11,8,3,3,-1,10
29.525,-1,-3,0,3,13,1,3,-2
29.53,-2,4,9,7,-3,-3,-2,1
29.535,-2,6,-18,0,-21,-10,-7,-6
29.54,-3,-15,-3,-2,-4,-1,1,0
29.545,1,-3,-5,-20,-1,-2,-1,4
29.55,-2,2,-4,9,11,1,0,-3
29.555,-4,0,-2,-4,1,1,11,15
29.56,0,-1,-3,-13,-3,-1,-22,10
29.565,0,-3,6,4,-4,-5,-5,3
29.57,-1,-4,5,5,8,6,4,8
29.575,1,-2,-1,-2,-6,-6,17,-2
29.58,-4,-1,-3,-3,-4,-4,-11,5
29.585,5,-3,-1,-1,0,2,5,14
29.59,-2,-4,-2,-2,1,-4,-16,-16
29.595,1,-2,0,-2,1,1,1,4
29.6,0,-1,-1,3,-2,1,6,-3
29.605,-3,-1,-6,-9,-5,-6,-11,-21
29.61,-1,-2,0,-3,-9,1,10,4
29.615,-4,-2,-1,5,9,-4,-9,-14
29.62,2,1,5,15,11,-1,5,-2
29.625,-1,-1,-4,-8,-17,-3,-6,-7
29.63,-2,-13,13,-48,-5,1,0,10
29.635,4,-14,4,12,10,5,1,2
29.64,-2,1,2,5,-4,2,6,-6
29.645,-2,-4,5,5,-1,-7,-1,7
29.65,-1,3,-6,14,8,6,3,-2
29.655,-1,2,6,5,-6,-3,-7,-4
29.66,-3,-4,-12,-18,10,0,-3,-10
29.665,-2,1,-3,-3,-3,-2,4,4
29.67,1,-21,4,13,2,3,0,2
29.675,-3,3,-1,-2,-2,-4,-7,-8
29.68,-3,1,-3,4,-12,-5,0,0
29.685,-3,-2,-18,0,8,4,-1,-1
29.69,3,7,5,-3,1,-6,-4,-7
29.695,3,0,44,11,4,4,13,46
29.7,-7,-6,-10,-10,-16,-7,-15,-72
29.705,0,1,-12,-9,-4,4,1,9
29.71,1,4,4,12,5,-3,-2,1
29.715,-1,1,-10,-6,-4,-4,-4,-10
29.72,-1,0,-6,-12,0,-5,4,16
29.725,1,0,14,6,-10,3,-1,1
29.73,-1,6,-6,7,12,3,0,-13
29.735,0,-1,-5,-11,1,2,-2,1
29.74,0,0,2,-2,-3,-3,1,10
29.745,-1,-3,2,8,0,-3,-1,-4
29.75,-3,0,-8,-7,-9,-4,4,11
29.755,-3,-2,-16,5,-7,-8,-12,-14
29.76,-2,-4,0,-1,2,8,2,4
29.765,2,2,8,5,13,1,3,-2
29.77,0,1,-16,-16,-4,-2,-2,2
29.775,-4,-4,-9,6,-7,-2,0,-15
29.78,1,1,-3,-2,-2,-4,-2,2
29.785,1,1,9,-7,-6,-3,-4,3
29.79,-2,4,-18,4,4,-2,-9,-6
29.795,-2,-18,6,-17,-6,-1,-5,-5
29.8,4,-26,25,6,4,4,8,17
29.805,-3,-2,-7,2,-1,-2,1,-3
29.81,1,5,-8,-3,-12,-6,-1,-5
29.815,-1,8,0,3,8,5,3,15
29.82,2,13,9,21,7,2,-1,17
29.825,-2,-13,-10,-40,-6,-5,-6,-1
29.83,-3,-10,0,-2,-12,-3,-3,4
29.835,-2,3,-11,-5,1,-2,-5,-11
29.84,-1,4,-2,-1,-6,-2,7,15
29.845,1,2,17,14,6,2,2,0
29.85,-1,4,5,7,0,-3,-4,-6
29.855,0,0,-8,-4,-2,-5,-1,7
29.86,0,4,-4,-2,-1,-5,-6,-8
29.865,-2,-1,5,7,-10,-8,-2,-6
29.87,1,-2,5,5,-13,6,3,-1
29.875,-1,0,2,-3,25,10,1,-7
29.88,0,10,-41,3,-7,0,-3,-7
29.885,-5,-24,-2,-12,10,2,1,-2
29.89,-1,-2,-2,-11,-5,-7,-2,7
29.895,-2,2,-9,2,-15,-5,-5,-7
29.9,-3,-20,2,-5,2,2,0,-2
29.905,0,6,-1,10,2,0,0,7
29.91,-2,0,1,6,3,0,-3,-3
29.915,-4,-10,-4,-2,1,0,-2,-7
29.92,0,5,7,-5,0,-4,-3,-4
29.925,-1,-14,-20,-6,-9,-3,-1,0
29.93,-3,-5,1,-4,2,-1,0,-3
29.935,-1,4,-10,-2,-5,-4,-3,-4
29.94,-1,-1,4,-2,-3,0,0,0
29.945,-2,7,-7,-6,8,5,-2,-3
29.95,-2,4,-7,5,-2,-9,-6,-4
29.955,3,-9,1,-3,-5,-2,1,3
29.96,-4,17,-9,-7,-13,-2,-2,-4
29.965,3,5,5,4,11,5,1,-1
29.97,4,-7,67,56,20,-1,3,4
29.975,-4,0,-15,-28,-18,-9,-8,-8
29.98,-12,-18,-29,-69,-11,-4,-6,-6
29.985,-1,5,-2,-1,1,1,0,-3
29.99,-1,1,-16,-3,3,-1,-2,-1
29.995,2,8,14,36,-6,-2,0,0
30,3,3,16,21,15,2,2,0
30.005,-5,-2,-15,-15,-4,-6,-6,-4
30.01,-4,-1,-5,-3,5,5,2,-1
30.015,2,16,-16,-15,-4,-5,-3,-1
30.02,-1,-14,0,-12,-8,-1,0,0
30.025,0,3,9,16,-9,-2,0,0
30.03,1,3,-8,28,7,1,2,0
30.035,0,2,-1,-48,-5,-1,-2,3
30.04,-4,-4,-10,2,-2,0,-3,-3
30.045,-2,-3,-10,-6,-4,-4,-4,-2
30.05,1,0,-6,-19,-9,-2,-1,0
30.055,-2,-4,9,21,6,2,0,-2
30.06,4,1,10,17,4,-3,5,20
30.065,0,0,8,4,1,4,3,-4
30.07,-2,-3,-14,-9,1,3,-13,-8
30.075,0,-6,-2,-2,-1,1,2,3
30.08,1,4,7,5,-1,-5,-4,-10
30.085,-2,0,-12,-2,-12,-8,-2,9
30.09,0,7,-2,-20,-6,-1,4,3
30.095,-4,12,-55,-4,2,1,-5,-12
30.1,2,-11,34,7,-3,-1,3,13
30.105,-1,1,0,-4,-7,3,-1,-4
30.11,-1,-1,-6,-3,2,-1,0,-3
30.115,-10,-8,-3,0,-8,-6,-4,-7
30.12,4,3,-8,4,13,5,3,-4
30.125,0,2,-3,4,-5,-4,-2,-4
30.13,-4,-3,1,-8,-5,-5,1,-5
30.135,2,0,14,11,6,0,3,5
30.14,0,4,-2,7,4,0,-3,-8
30.145,-3,-5,6,-16,-9,-5,-4,-6
30.15,1,-1,-13,-11,-4,-3,0,7
30.155,-2,-6,12,7,1,0,-1,-3
30.16,-1,4,3,10,8,5,2,-4
30.165,-1,-2,-10,-9,-1,-5,-2,-2
30.17,-7,-11,-20,0,0,0,1,-4
30.175,2,-6,14,0,-1,4,0,1
30.18,-2,2,-6,-10,-11,-2,-3,-7
30.185,2,-1,3,14,11,2,0,2
30.19,-1,3,-5,-15,-13,-4,-2,0
30.195,2,1,7,9,3,-3,-2,-1
30.2,-7,-13,-72,-29,-13,-1,-3,-2
30.205,-3,2,5,1,-3,-3,-3,-1
30.21,0,-5,10,6,-11,-7,-3,-1
30.215,1,0,-3,6,16,8,3,2
30.22,0,5,4,4,2,-2,-2,-2
30.225,0,5,29,8,5,3,1,-2
30.23,1,0,3,-6,-2,1,0,4
30.235,0,-2,2,5,-13,-7,-1,23
30.24,-7,1,6,-12,1,-1,-8,-84
30.245,-3,-2,-4,-3,0,-1,0,3
30.25,-3,-4,-3,-7,-2,-4,-3,0
30.255,-3,-1,3,-1,-13,-8,4,1
30.26,0,2,-1,9,14,10,-1,20
30.265,4,-7,9,1,1,5,4,0
30.27,-3,-2,-4,-3,3,4,-7,-13
30.275,-3,-3,-9,-7,-3,-5,-1,-1
30.28,1,15,2,-6,-17,-13,-1,10
30.285,0,-7,-8,5,7,4,4,-2
30.29,-1,-20,19,4,2,-1,1,14
30.295,-5,-2,0,-3,0,0,-4,-12
30.3,-3,0,0,19,4,-2,0,11
30.305,0,3,-10,-32,-5,0,-1,-2
30.31,-1,4,-14,-16,-10,-4,-2,-7
30.315,1,-1,-1,-2,-2,-3,-4,-5
30.32,-2,-7,14,13,-5,-4,1,4
30.325,-2,4,-4,10,2,-2,-1,3
30.33,-1,4,-1,2,5,0,2,-3
30.335,-2,-3,-5,-8,-3,1,-3,-5
30.34,-2,-3,-14,-25,-6,-3,-2,9
30.345,-4,-5,-21,10,-2,-4,-4,-4
30.35,-1,10,15,5,-3,-1,-3,-4
30.355,2,-3,2,1,3,-1,1,-1
30.36,3,-2,6,-4,-10,-6,-1,4
30.365,-3,-4,-11,5,0,1,-2,-9
30.37,1,-1,-8,6,10,8,6,32
30.375,-6,2,1,6,27,11,-8,-85
30.38,0,1,18,4,-1,-6,1,7
30.385,0,3,3,-24,-24,-11,-3,-2
30.39,-5,16,-20,-9,-13,-8,-4,-3
30.395,0,-5,3,-1,-8,-2,1,19
30.4,-1,-7,12,14,4,0,0,1
30.405,-3,0,2,15,12,2,-2,-7
30.41,-1,1,-10,-8,-2,-4,-1,-6
30.415,-1,3,-9,11,-6,1,-2,11
30.42,4,6,11,-8,7,6,3,-3
30.425,-1,-3,-11,-6,0,0,-1,11
30.43,0,-8,25,7,5,1,1,-7
30.435,-2,-2,3,2,-8,-5,-3,7
30.44,-1,-6,-12,-7,-5,-3,0,3
30.445,2,3,2,-3,1,0,-2,-2
30.45,-3,7,-23,1,2,1,0,-6
30.455,1,-1,-6,0,3,2,4,6
30.46,-2,16,-3,-3,-5,-4,-5,-3
30.465,0,0,-4,1,-1,-2,-1,0
30.47,1,-2,0,8,-1,-3,-3,-9
30.475,-1,1,3,-14,-5,-3,0,8
30.48,-4,0,-9,-4,-4,-2,-9,0
30.485,1,-3,10,2,-1,1,2,0
30.49,-1,-11,-2,-3,-5,-1,-1,0
30.495,5,4,-10,1,3,-4,7,34
30.5,-3,-10,10,3,11,5,-4,-62
30.505,-3,-4,2,-15,-9,-4,-4,4
30.51,0,-3,7,3,3,-1,0,3
30.515,-3,-2,-12,-14,-13,-6,-4,-9
30.52,5,0,45,17,14,7,7,23
30.525,2,1,-5,6,10,4,2,5
30.53,0,-2,1,-5,-8,-3,-2,-9
30.535,2,2,44,14,7,5,2,8
30.54,-5,-8,-19,-8,-12,-11,-4,7
30.545,-2,0,9,4,-1,1,-1,-7
30.55,-1,0,2,-11,4,1,0,6
30.555,-2,-3,-2,8,-6,-2,-6,-8
30.56,-1,-6,-13,-11,-6,3,0,5
30.565,0,15,-15,-6,-4,-7,-6,-8
30.57,-2,0,-3,4,-2,-5,-3,-5
30.575,2,-6,4,-8,-3,-1,1,1
30.58,-3,2,-11,0,3,-1,-1,1
30.585,-2,18,-26,-2,1,2,6,9
30.59,-1,-5,-6,9,-1,1,-8,-9
30.595,-2,0,-11,-6,5,1,-2,-4
30.6,0,0,-10,-4,-9,-3,-2,6
30.605,-1,-6,3,0,-6,-5,-1,-2
30.61,-1,-4,1,-1,0,2,5,0
30.615,-2,-3,-3,5,5,0,-2,-6
30.62,-2,-5,-14,-6,-7,-7,-3,3
30.625,-1,-10,7,3,4,1,-1,-1
30.63,-1,-5,1,4,2,2,1,-2
30.635,1,0,-1,-11,-3,-2,-2,0
30.64,-2,0,2,0,0,1,0,1
30.645,1,-7,12,5,1,1,-1,-4
30.65,0,-1,-9,-13,2,-7,-1,1
30.655,-4,-2,-10,-2,-4,1,-4,-3
30.66,-1,-1,-1,0,1,1,1,2
30.665,-2,-2,10,2,-7,-6,-3,-5
30.67,-1,-4,-29,0,-4,0,-1,-1
30.675,-2,-2,-2,-1,-3,-3,0,-1
30.68,-1,-26,0,7,0,1,2,2
30.685,0,-1,-3,-6,-11,-4,-3,2
30.69,-5,17,-19,-6,4,3,-2,-4
30.695,-6,-10,1,4,3,0,-1,-4
30.7,0,18,-7,-1,-2,-4,-1,1
30.705,-1,-3,1,5,4,-1,-1,-2
30.71,-2,-5,9,-2,-9,-1,1,-1
30.715,-2,2,-4,-9,-4,-3,-2,-2
30.72,1,3,6,0,2,2,-1,2
30.725,-3,-4,-3,-1,0,0,1,-1
30.73,1,-1,14,1,2,1,0,-2
30.735,-2,2,-6,-6,-2,-4,-2,-3
30.74,-2,-4,2,-3,-2,-2,-2,-1
30.745,-1,-15,22,-3,-1,-1,-1,0
30.75,-3,-6,3,-5,-14,-3,-2,0
30.755,0,-4,-25,-2,14,3,-1,-2
30.76,2,0,7,4,-3,-1,1,-1
30.765,-2,0,-4,-4,6,2,-1,-4
30.77,5,-28,51,11,1,3,6,10
30.775,-3,0,-6,-4,-7,-5,-4,-3
30.78,-3,2,0,8,-11,-7,-3,-2
30.785,2,3,4,-6,18,11,3,2
30.79,-2,4,-7,-2,0,-5,-4,-2
30.795,-2,-1,2,-1,-7,-2,-2,-1
30.8,-1,-5,2,-1,-2,-4,-3,0
30.805,-4,1,-8,4,-11,-7,-6,-3
30.81,0,2,-7,-16,-2,-2,-2,-4
30.815,2,-1,7,-5,1,0,1,1
30.82,-3,4,-7,-3,-5,2,0,-2
30.825,-1,-3,-8,-1,0,-3,-3,-2
30.83,2,5,-1,11,10,5,-1,3
30.835,-1,-16,28,-4,-10,-6,-3,-1
30.84,0,-2,-10,-11,0,-3,0,0
30.845,2,-1,8,1,-6,0,0,1
30.85,-1,-1,-8,1,6,5,1,-2
30.855,0,6,-3,3,-1,0,2,0
30.86,-2,-2,5,0,-1,1,0,-3
30.865,-2,-2,0,8,1,-4,-3,4
30.87,-5,5,-4,-7,-7,-6,-3,-9
30.875,-1,1,-1,12,-3,2,6,17
30.88,1,2,-9,-16,5,5,-3,16
30.885,-4,2,-1,2,1,-1,-9,-8
30.89,3,3,8,8,0,-3,0,8
30.895,-4,1,-6,-1,-6,-5,-5,-9
30.9,4,-2,-11,-10,-2,2,5,14
30.905,-4,-2,-9,2,4,-1,3,7
30.91,-4,-5,4,-17,-10,-4,-7,-11
30.915,2,5,2,10,4,0,1,9
30.92,-1,-2,-6,-2,-6,-6,-7,-13
30.925,2,3,5,10,3,4,1,-5
30.93,-6,7,-22,-27,-13,-7,-4,-7
30.935,3,-2,7,1,4,2,1,-4
30.94,-3,0,5,-3,5,1,0,-6
30.945,-2,9,-16,5,-6,-4,-2,-5
30.95,-4,1,-7,1,-4,-2,-2,-1
30.955,1,4,-2,-3,-2,-2,-4,-8
30.96,-1,-3,11,4,2,-1,-3,-7
30.965,1,-5,2,-5,-3,-2,1,7
30.97,-1,5,30,15,9,3,1,1
30.975,-3,-20,-17,-6,4,1,-7,-7
30.98,0,2,-1,12,4,-1,0,-3
30.985,-2,-7,-29,-18,-5,-2,-3,-3
30.99,-1,1,-10,-2,-7,-6,-1,1
30.995,3,4,6,-6,4,2,2,3
31,2,0,6,16,-4,-4,4,31
31.005,-3,-4,-18,-10,-3,-2,-5,-51
31.01,1,-11,2,-8,7,0,-1,4
31.015,-2,3,-6,7,2,0,-1,3
31.02,-8,-8,-16,-28,-17,-8,-7,-16
31.025,1,5,-2,21,9,3,6,17
31.03,0,-10,1,-15,-3,1,0,-3
31.035,-3,3,8,12,0,-2,-2,-9
31.04,2,4,-6,7,1,-3,-1,9
31.045,-3,-24,13,5,-6,-3,0,-1
31.05,8,6,37,-2,1,1,6,5
31.055,-4,0,1,5,-10,-4,-2,-7
31.06,0,-6,5,-15,1,2,-3,-7
31.065,-1,-6,24,-4,6,0,-13,-4
31.07,-3,-2,-17,12,2,-3,-3,-3
31.075,4,0,-1,-8,-5,0,8,21
31.08,-6,1,0,16,6,2,1,3
31.085,-2,3,1,-12,-1,0,0,0
31.09,0,-2,-8,18,3,1,1,13
31.095,0,6,-4,-19,-12,-7,-6,-9
31.1,0,9,3,3,6,1,-2,5
31.105,0,1,-2,-27,-8,-3,0,11
31.11,0,-9,0,17,0,-3,-1,-11
31.115,-6,20,-5,0,-10,-9,-7,4
31.12,-3,0,5,10,1,2,-6,-17
31.125,1,4,-9,-31,-1,1,3,6
31.13,1,-4,-10,3,-8,-1,-1,-6
31.135,-8,-10,-8,-21,-12,-11,-7,-17
31.14,-1,-4,1,8,0,6,3,-1
31.145,-2,6,-3,12,3,1,1,-1
31.15,4,-24,22,-11,2,5,10,10
31.155,2,-8,3,7,15,6,-7,0
31.16,-2,-6,-7,17,-5,-6,1,-11
31.165,5,1,-17,-13,-13,-7,11,53
31.17,-9,8,-21,-16,7,-1,-18,-48
31.175,-2,-5,-6,1,-6,-1,14,7
31.18,0,-7,9,-5,3,-1,-25,-18
31.185,-6,0,-19,-13,-13,-7,2,14
31.19,1,21,-2,20,7,-1,2,14
31.195,-3,-3,2,-16,0,1,0,-13
31.2,6,7,5,18,11,3,15,12
31.205,0,11,2,34,-3,-7,-11,-22
31.21,2,-8,-20,-53,-21,-8,20,34
31.215,-9,0,39,21,15,16,-49,-39
31.22,-2,0,-5,-10,6,6,12,9
31.225,-1,4,21,7,-1,-7,-23,-30
31.23,-2,-20,22,16,6,-1,6,6
31.235,7,-2,-7,9,2,3,16,27
31.24,0,-13,-6,-1,0,-7,-3,-1
31.245,3,2,10,-30,-14,-1,6,10
31.25,9,6,8,30,13,14,19,-3
31.255,20,3,-16,12,-12,-11,-7,-6
31.26,-28,-18,-24,-20,-9,-4,12,21
31.265,-4,-10,6,37,10,-1,-9,0
31.27,-22,13,-20,-28,1,-5,-38,-32
31.275,51,24,18,41,8,8,28,55
31.28,-48,-35,-16,-1,-29,-14,-42,-57
31.285,2,13,-31,-8,11,1,43,-17
31.29,-68,-35,12,34,0,-17,-29,-17
31.295,-1,7,-2,-61,-7,1,-14,15
31.3,20,0,6,-20,18,16,46,40
31.305,17,6,5,9,-8,-1,-2,43
31.31,-12,-11,-2,10,-6,-3,-49,-72
31.315,-46,-16,-4,83,1,-16,26,49
31.32,32,7,11,-107,-14,5,5,-29
31.325,-45,-18,-16,79,-17,0,-12,0
31.33,31,31,24,21,1,7,33,47
31.335,-15,-13,-27,-27,-3,3,-7,-28
31.34,22,14,-25,-26,5,1,40,52
31.345,4,-16,33,-43,12,0,-14,-69
31.35,-15,-24,2,-12,5,4,-6,-73
31.355,42,17,55,66,11,0,24,-13
31.36,10,-7,11,64,2,-3,-3,83
31.365,23,-5,-55,-47,-18,-2,9,-62
31.37,-72,24,89,26,-2,-1,3,46
31.375,-16,-85,30,-6,30,7,-72,-13
31.38,-38,22,24,108,37,11,40,10
31.385,69,-14,-4,-54,-33,-11,-16,32
31.39,10,16,34,45,9,12,36,23
31.395,-19,-9,-119,-80,-16,-14,14,5
31.4,-1,12,0,-12,-15,-11,-37,5
31.405,12,25,39,49,6,-4,23,55
31.41,50,-13,-42,55,28,3,-51,-48
31.415,2,26,14,9,10,22,35,-31
31.42,-10,-2,8,4,-24,-9,-39,-13
31.425,-2,25,-33,32,29,13,86,11
31.43,81,8,-81,-86,-49,-44,-90,64
31.435,-99,-8,26,33,-21,-13,6,-28
31.44,30,12,39,34,30,9,-2,-51
31.445,-31,53,125,106,75,45,31,58
31.45,-33,-11,-117,-95,-74,-36,-32,-21
31.455,112,45,39,-12,6,-1,3,-4
31.46,-124,-63,26,-47,-59,-30,-55,-111
31.465,-11,-25,44,104,25,2,30,14
31.47,43,34,-76,-80,-21,-5,20,23
31.475,-43,-33,29,69,12,0,-1,24
31.48,127,35,44,-81,-2,16,65,12
31.485,-55,-11,21,-40,-11,-12,-48,-6
31.49,-15,-10,8,27,18,15,63,-43
31.495,-32,-7,-3,-72,-9,0,-7,2
31.5,84,86,-86,41,-1,-9,-14,19
31.505,-62,-66,-17,-6,-15,0,-30,-28
31.51,111,37,43,-93,3,4,28,56
31.515,-56,32,5,61,5,-6,-25,-25
31.52,-64,-7,-8,-28,-35,-7,20,-49
31.525,5,-39,-26,-68,1,-7,-87,-30
31.53,104,30,72,97,35,20,58,81
31.535,-81,-28,-15,-31,-14,-11,-40,-114
31.54,23,-35,-32,-103,-20,-9,-13,67
31.545,-20,-58,-54,60,-3,-8,5,-20
31.55,-17,-42,49,36,8,12,89,22
31.555,112,46,31,46,25,-1,-44,41
31.56,-75,-30,58,50,0,-1,40,-59
31.565,33,-20,-35,-104,-22,-6,4,81
31.57,-101,8,0,64,44,6,-43,-87
31.575,104,21,33,-28,-21,0,57,68
31.58,-39,23,42,88,36,7,-6,-3
31.585,63,12,-55,-48,-33,-18,-66,-38
31.59,7,-10,40,-14,3,-3,12,28
31.595,4,-11,-81,-107,-57,-5,8,0
31.6,37,-16,78,125,71,28,-4,60
31.605,-20,15,-40,-67,-1,3,75,-27
31.61,-44,5,2,70,-7,-26,-89,-23
31.615,2,-11,54,65,-17,-14,6,-31
31.62,29,47,-67,-99,7,19,37,-19
31.625,-71,-21,-8,-90,-30,-12,-51,-19
31.63,2,-4,-51,48,-9,-4,0,-15
31.635,56,0,2,92,8,-13,-6,58
31.64,-36,47,-63,-82,-12,-2,13,-14
31.645,-25,-11,51,44,16,-2,-16,13
31.65,-7,-20,-27,38,17,7,29,63
31.655,-3,26,18,-12,-6,3,5,-39
31.66,-2,-84,-88,-58,-66,-27,-38,17
31.665,-37,-3,-14,77,0,-8,28,-10
31.67,-62,27,6,-13,4,4,-34,-47
31.675,-8,-49,0,-8,34,17,11,95
31.68,67,6,9,33,12,0,8,15
31.685,70,16,-18,-8,-24,-13,-7,17
31.69,-1,18,-47,-1,-13,-2,36,45
31.695,-44,11,-93,-82,-5,3,14,-76
31.7,-17,-35,8,65,10,0,-21,-6
31.705,16,14,13,98,-3,4,6,-11
31.71,-10,23,58,103,18,16,4,-34
31.715,-18,-20,-39,-113,21,-2,-7,28
31.72,16,-14,-13,-5,-29,-22,-22,41
31.725,13,41,45,14,15,9,49,3
31.73,31,-13,32,-64,-10,5,-29,-15
31.735,10,-11,10,19,-16,-6,5,12
31.74,-13,-4,21,95,0,-4,-7,-27
31.745,10,-12,53,20,8,9,17,-3
31.75,-9,5,-46,-73,-12,-5,-12,23
31.755,20,17,-38,31,41,15,-16,-51
31.76,-66,-32,-22,13,14,-3,4,11
31.765,0,-20,-44,-111,-11,8,17,-7
31.77,78,10,16,49,-11,-12,0,27
31.775,-9,-12,-7,24,-4,-6,-20,46
31.78,-52,23,-34,-26,-9,-11,-30,-112
31.785,49,22,-48,-7,17,12,11,18
31.79,10,-16,-6,-18,-18,2,37,17
31.795,31,10,25,73,14,4,0,-9
31.8,29,3,-38,-109,-49,-12,-18,20
31.805,-35,7,23,45,-6,-8,-18,-31
31.81,6,0,28,-1,-1,4,23,-11
31.815,-38,-20,-51,-1,-14,-12,0,-12
31.82,-15,11,59,-8,4,-3,-5,21
31.825,26,19,1,43,18,4,2,27
31.83,-11,-18,-54,-79,-11,-6,-16,-63
31.835,9,18,32,17,1,11,13,40
31.84,-4,25,-11,50,27,13,8,-17
31.845,38,20,23,-36,-25,-11,-7,2
31.85,-43,-60,-42,-82,-10,-8,-27,-2
31.855,-22,12,18,46,-4,-9,-2,-11
31.86,28,6,13,23,3,1,-28,-8
31.865,15,8,13,19,4,-4,-1,21
31.87,-19,-22,-29,-14,-5,4,-10,-18
31.875,28,57,30,59,29,11,67,7
31.88,-33,-37,-51,-62,-55,-23,-41,10
31.885,15,1,-19,11,22,9,7,20
31.89,-30,-32,11,2,-45,-19,-17,-9
31.895,-63,-5,-45,15,-13,-7,-20,-98
31.9,54,-16,-15,63,18,5,34,42
31.905,-89,-10,-27,-3,18,7,5,7
31.91,28,54,-31,-52,-1,-8,-24,25
31.915,15,-39,27,-22,-4,6,9,12
31.92,11,19,32,30,18,0,-18,-9
31.925,25,6,26,21,-24,-10,-9,-3
31.93,24,8,15,23,23,11,29,25
31.935,-18,-8,32,64,21,3,-6,15
31.94,-9,2,48,2,-27,-11,6,2
31.945,14,-17,-3,-7,-22,-4,-6,1
31.95,-17,-25,11,10,-1,5,10,-9
31.955,24,11,2,-41,2,-1,-8,2
31.96,-1,-7,-38,92,38,9,15,-3
31.965,-5,-23,-45,-84,-35,-12,-17,-16
31.97,4,1,14,116,1,-3,0,4
31.975,-26,-22,-38,-99,-36,-2,13,33
31.98,65,9,-52,19,22,5,4,0
31.985,-69,-27,7,-8,12,-5,-58,-5
31.99,7,8,12,22,14,5,6,-32
31.995,33,-32,38,-48,-34,-15,-2,37
32,-48,-40,17,0,16,19,61,62
32.005,30,54,4,1,6,-5,-44,-66
32.01,9,-17,22,3,3,-1,6,3
32.015,2,11,14,-32,-9,1,-2,3
32.02,19,4,1,28,1,-1,3,-17
32.025,-3,-21,-34,-98,-32,-8,16,-8
32.03,-22,11,-32,31,7,-1,-17,4
32.035,9,15,-4,4,7,-3,4,-2
32.04,5,-15,-2,-33,-25,-1,-15,-26
32.045,27,21,31,99,42,19,20,54
32.05,-13,2,46,-16,-9,-4,6,-27
32.055,-16,-13,-28,-27,-11,-8,-10,-26
32.06,8,8,60,-25,9,1,-6,30
32.065,-18,-23,27,70,14,2,12,-36
32.07,22,-3,-5,-41,-2,6,18,37
32.075,-7,-40,-7,36,2,-1,-29,-2
32.08,36,35,30,-62,8,5,-6,-6
32.085,-73,-16,-46,-17,-39,-17,4,-4
32.09,8,5,5,41,21,-2,-13,14
32.095,-3,7,-32,-34,-25,-7,-5,-27
32.1,-1,10,-34,26,9,2,9,14
32.105,43,37,106,-2,28,14,18,13
32.11,10,11,-10,-16,-3,2,61,32
32.115,-43,-4,33,-11,-25,-9,-70,-39
32.12,2,8,20,8,-1,-1,7,-2
32.125,-2,-2,-11,1,-2,-5,-3,-25
32.13,-14,12,20,1,9,5,-2,-4
32.135,24,8,-12,-2,13,7,30,7
32.14,-15,-9,-14,51,3,-4,-6,6
32.145,25,7,2,-25,-4,-1,-12,11
32.15,-13,-14,-8,-74,-29,-9,-20,-22
32.155,6,-1,-8,34,7,-1,14,28
32.16,-1,-22,13,-4,6,1,-15,4
32.165,-11,-1,1,19,6,5,9,-29
32.17,0,-6,1,12,-1,1,-5,-3
32.175,6,46,-13,8,9,-4,-1,22
32.18,-3,14,4,-21,-5,0,5,16
32.185,12,-5,-33,-9,-16,-6,-5,6
32.19,-18,-27,-36,-30,-6,-6,-16,-25
32.195,-20,-24,-46,12,9,-1,0,-13
32.2,-9,-2,2,56,11,0,7,-15
32.205,4,-6,-23,-69,-17,-2,-12,-8
32.21,-7,17,2,35,4,1,-10,-9
32.215,4,-22,-6,6,2,-4,10,7
32.22,-10,1,-7,-43,-12,-4,-9,-18
32.225,2,-4,-4,29,3,-6,-3,0
32.23,2,-2,-2,5,1,2,-2,16
32.235,4,-8,9,8,11,9,12,0
32.24,-9,6,-3,-42,-7,-8,-4,-18
32.245,3,14,-5,4,-4,-3,-5,4
32.25,4,-6,18,-7,-4,-3,-1,0
32.255,0,2,11,15,9,0,1,-8
32.26,-13,0,-18,-12,-3,5,-6,-14
32.265,4,-2,-18,-12,6,-2,3,9
32.27,0,-4,8,28,-3,-4,-3,-2
32.275,0,0,5,-18,-8,1,0,-8
32.28,-5,-6,-3,-6,0,-7,-5,1
32.285,6,3,11,9,14,1,2,6
32.29,3,-6,5,23,-1,-2,-3,-2
32.295,-2,4,-5,-17,-21,-7,-2,-1
32.3,-1,5,-4,16,-3,-1,1,-3
32.305,3,0,10,-11,22,11,2,2
32.31,-5,-2,-14,-17,-1,-2,-4,-5
32.315,1,4,2,-1,-8,-2,0,0
32.32,-5,-1,-2,-10,-11,-8,-5,-6
32.325,3,3,3,18,-10,-4,-5,-1
32.33,4,2,7,-2,5,4,3,5
32.335,0,8,-2,-11,-2,-2,-4,-5
32.34,-4,-8,5,1,2,0,1,-4
32.345,2,8,-10,12,-6,-4,-5,-1
32.35,-6,2,31,8,16,9,4,2
32.355,2,-4,30,12,3,5,2,2
32.36,-4,-11,-3,-6,-8,-5,-5,-6
32.365,-5,-6,-36,11,-8,-4,0,2
32.37,0,-2,-9,5,0,-2,-3,-1
32.375,0,-6,-11,-17,-8,-7,0,-2
32.38,-1,-2,-3,-6,4,3,0,-2
32.385,-3,-10,-5,5,-1,-2,0,0
32.39,0,-3,-3,-7,-3,-2,-2,0
32.395,5,-14,32,3,9,4,5,6
32.4,-2,-1,-15,-26,-6,-2,-3,-3
32.405,2,1,15,9,-7,-2,0,-2
32.41,0,-2,8,5,3,-4,0,-2
32.415,-1,10,-6,-10,7,2,-2,-3
32.42,-4,13,-8,-18,-18,-3,-3,-4
32.425,3,-1,47,17,18,7,5,5
32.43,-2,3,-13,-5,-8,-2,-2,-2
32.435,-3,-3,-13,7,9,-2,-3,-2
32.44,0,-3,8,8,4,-3,-2,-2
32.445,-2,-1,-7,-7,-5,-4,-3,-2
32.45,-4,-2,-16,9,-9,-4,-5,-3
32.455,-1,1,-5,2,0,3,3,-1
32.46,4,-13,27,-6,-3,-5,2,4
32.465,0,-4,-17,-1,-2,-1,3,1
32.47,1,-3,14,-6,3,3,0,-2
32.475,-1,1,-9,2,-5,-3,0,-2
32.48,-2,-2,-10,7,0,-3,-3,-1
32.485,-4,-5,-15,-9,-1,2,-1,-2
32.49,0,-14,21,-6,-3,-2,-1,1
32.495,1,0,-5,-5,-6,-2,0,0
32.5,1,-21,11,10,8,1,3,1
32.505,2,0,13,5,-6,-5,0,-2
32.51,-3,2,-11,-5,1,0,-2,-1
32.515,0,-3,1,2,-6,4,2,0
32.52,-3,0,-4,2,7,1,-3,-4
32.525,-2,-1,7,5,-9,-8,-4,-2
32.53,1,-1,-6,-4,5,6,2,-1
32.535,-4,-1,-5,-6,-6,-7,-5,-4
32.54,-3,3,-3,2,-4,-3,-1,0
32.545,-5,-10,-38,7,3,4,0,0
32.55,2,13,25,-25,-6,-4,-1,0
32.555,2,4,20,-2,-6,-4,-1,0
32.56,-3,-2,-7,0,0,-1,-1,0
32.565,-1,-1,0,10,8,2,2,-1
32.57,-4,1,-9,1,-2,0,-1,-1
32.575,-2,0,-5,-1,-1,0,-1,-1
32.58,2,1,2,-6,-4,-2,0,3
32.585,0,2,12,-3,-5,-4,-2,-1
32.59,-3,-10,3,2,-3,-1,0,-1
32.595,-1,-5,-5,-6,0,1,-1,0
32.6,-2,3,-9,1,-1,-1,-3,-2
32.605,-1,-1,16,1,1,0,0,-1
32.61,0,-3,-1,-4,-4,0,3,4
32.615,-1,0,-12,-1,2,-2,-2,-3
32.62,-3,5,12,3,-6,-3,-4,-3
32.625,5,-6,13,-4,1,1,2,3
32.63,0,3,-2,6,-4,-3,-2,-2
32.635,-2,-1,-6,-6,-6,-4,-1,-3
32.64,-3,2,-11,-6,2,0,-5,-3
32.645,0,2,8,-5,-8,-6,-1,-2
32.65,-1,-3,-11,4,4,2,-1,-1
32.655,0,-3,9,6,5,1,-1,1
32.66,2,-7,-2,-2,-2,-3,2,2
32.665,-4,-6,-12,-9,-7,-1,-2,-3
32.67,-6,-11,-48,-6,0,-1,-4,-5
32.675,-1,1,-5,-5,-7,-1,-2,0
32.68,-1,1,-2,3,3,1,-1,0
32.685,-2,16,-1,-5,-1,-3,-3,-4
32.69,-1,5,-8,1,-1,-3,0,0
32.695,1,0,-12,4,0,1,0,1
32.7,0,-3,10,10,-2,-3,-3,-3
32.705,-1,-3,-6,-13,-3,-1,0,1
32.71,0,-1,1,0,1,-2,-2,-3
32.715,-6,-2,-27,-10,-6,-6,-5,-6
32.72,0,10,13,-6,-3,-1,-1,-1
32.725,0,-1,3,10,-2,-1,-2,-1
32.73,1,-3,7,1,1,-3,0,0
32.735,-2,-4,6,-3,1,0,1,-2
32.74,-2,0,-10,1,0,2,0,-3
32.745,-3,-5,2,-9,-5,-3,-4,-2
32.75,-5,-3,-40,-12,-11,-8,-6,-2
32.755,0,1,5,-1,-1,0,-2,-2
32.76,1,-13,10,6,3,3,1,0
32.765,-1,1,-2,3,-1,-3,-2,-1
32.77,0,-4,-5,-1,-3,-5,-2,-4
32.775,-1,6,-2,-3,9,3,2,0
32.78,-5,-11,9,9,1,2,3,1
32.785,-3,-6,-1,18,-9,-7,-2,-1
32.79,-1,-1,7,-5,-4,2,2,0
32.795,-1,-5,10,1,2,1,-2,-2
32.8,0,4,-3,-8,6,0,0,-2
32.805,-1,0,3,-3,-6,-2,-2,0
32.81,0,8,-8,9,2,0,-1,1
32.815,0,-1,4,-2,-6,-3,0,0
32.82,-2,0,-13,-9,-3,-1,-1,-1
32.825,-1,-3,-6,4,-3,-3,-1,0
32.83,0,3,10,-3,-3,-2,-1,0
32.835,-2,-3,2,-2,2,0,0,0
32.84,-1,2,-5,-5,-6,-4,-2,-1
32.845,-1,0,-4,-6,2,0,0,-2
32.85,1,-4,20,9,3,4,1,2
32.855,0,-2,2,0,-3,0,1,-1
32.86,-1,0,-1,-3,0,-1,-2,-2
32.865,-1,-2,2,-1,4,3,0,-1
32.87,-2,-3,7,-1,2,0,-2,-1
32.875,1,1,4,16,6,1,-1,0
32.88,0,10,-17,-7,-2,0,0,1
32.885,-4,-9,-19,-45,-14,-1,-2,-3
32.89,0,5,16,17,-2,-2,0,0
32.895,-6,-11,-31,-37,-12,-8,-6,-4
32.9,-1,1,7,20,7,0,-2,-2
32.905,2,5,10,8,4,1,0,1
32.91,-1,-2,0,-9,0,-3,-1,-3
32.915,1,1,7,15,12,1,2,0
32.92,-3,11,-13,-15,-6,1,-3,-4
32.925,-1,-3,-2,-3,-3,-1,1,0
32.93,0,-4,2,0,-9,-3,-3,-1
32.935,0,1,8,7,-3,1,0,0
32.94,-1,-24,15,-3,4,-1,-1,1
32.945,1,-1,1,3,2,1,-1,1
32.95,-2,0,-4,2,5,2,1,-1
32.955,1,1,41,9,1,1,2,4
32.96,8,9,21,-5,-13,-5,-2,2
32.965,3,-5,23,9,-4,1,3,2
32.97,1,-8,1,10,29,6,-1,-1
32.975,1,-19,12,-2,0,3,3,4
32.98,-4,0,-15,1,7,-3,-2,-5
32.985,-2,3,4,7,-3,1,-2,-2
32.99,-2,2,-1,-20,-15,-5,-1,-2
32.995,1,4,2,-3,-3,-1,0,-1
33,-1,-2,-1,3,-2,-3,-1,-1
33.005,-2,-15,-7,10,9,1,0,-1
33.01,-1,1,-4,-8,-9,-1,-3,-3
33.015,-3,0,-19,-3,-5,-5,-4,-3
33.02,-3,-7,0,2,-5,-2,1,-3
33.025,-4,5,-8,-3,3,-4,-2,-1
33.03,0,1,-1,1,-1,2,-1,0
33.035,0,1,-3,-2,-5,-3,-3,-3
33.04,0,-7,12,-4,-5,-1,0,-1
33.045,-2,-5,18,2,5,2,-1,-1
33.05,0,-1,-1,2,-1,-3,0,-1
33.055,-2,-7,-16,1,-6,-3,-3,-2
33.06,-3,9,-21,-25,-3,-1,-4,-4
33.065,-2,2,-8,5,-10,-4,-2,-3
33.07,-1,-4,0,-3,5,1,0,3
33.075,-1,5,-5,3,5,5,0,-2
33.08,-9,7,-65,-9,3,-2,-8,-7
33.085,-3,-5,-30,-8,3,-3,-4,-3
33.09,-3,-1,1,5,-10,-4,-3,-3
33.095,-1,4,-7,-18,-8,-2,-3,-3
33.1,-2,-16,19,8,0,3,3,1
33.105,-3,1,-5,-1,2,-1,-1,-1
33.11,0,-3,1,-2,-2,-3,-1,-2
33.115,-4,2,-12,-3,1,-4,-4,-3
33.12,2,4,-15,4,-2,-1,3,3
33.125,2,1,6,0,2,-1,1,0
33.13,1,2,11,8,-1,2,2,1
33.135,0,1,9,6,2,1,-1,-1
33.14,0,1,2,-3,-4,-6,-2,0
33.145,-2,2,3,2,4,1,0,0
33.15,-3,9,-24,-11,-6,-4,-3,-3
33.155,-2,2,-6,-4,-5,-3,-2,1
33.16,1,-13,18,4,-9,-1,1,-5
33.165,-1,-3,-13,7,11,4,-3,-2
33.17,-1,-1,-3,-15,5,6,0,-1
33.175,-1,-3,31,32,15,1,3,1
33.18,-4,-7,-16,-32,-8,0,-5,-2
33.185,-2,5,1,-10,-18,-6,-2,-1
33.19,-5,-7,-39,-3,-1,-4,0,-3
33.195,-2,-4,-4,-2,-3,-6,-1,0
33.2,-2,-2,-7,-4,-5,-5,-3,-2
33.205,2,-14,38,1,3,1,1,1
33.21,-1,-5,-1,-6,-6,1,1,1
33.215,0,-2,-10,5,1,0,1,-1
33.22,0,0,7,8,4,3,1,1
33.225,1,5,-18,-13,-4,-1,-2,0
33.23,2,-4,23,15,0,-2,1,0
33.235,-1,3,-7,-19,-4,-2,-3,-1
33.24,0,4,7,10,2,2,0,2
33.245,-4,6,-25,-11,-8,-6,-4,-4
33.25,-2,4,-5,-6,0,-5,-3,-2
33.255,-2,0,-8,3,-1,-1,-1,-3
33.26,-2,-4,2,-6,-6,1,1,0
33.265,-2,-1,-2,9,4,-3,0,-1
33.27,-2,-4,7,-4,3,0,0,-2
33.275,-1,-3,-7,-4,-7,-5,-4,-4
33.28,2,2,5,5,3,1,-1,0
33.285,3,3,9,5,-2,-1,0,0
33.29,1,-1,10,-11,-7,-2,0,0
33.295,-1,-7,-25,-15,4,3,3,1
33.3,2,-11,14,23,6,4,4,4
33.305,-2,20,-11,-4,9,3,-3,-3
33.31,-3,-4,3,7,-5,-2,-4,-1
33.315,-1,2,-3,3,-3,0,1,-1
33.32,-2,-6,3,-12,-3,-5,-2,-3
33.325,1,-8,11,15,1,-1,0,-1
33.33,3,-1,5,16,6,-2,-2,5
33.335,-6,-1,-19,-25,-11,-3,-4,-10
33.34,-3,8,-18,-6,-5,-4,-4,-3
33.345,3,-2,9,-4,0,0,0,2
33.35,-3,1,2,-4,-1,0,1,1
33.355,-1,-4,18,9,-2,0,0,0
33.36,1,4,6,7,0,0,1,1
33.365,-3,-9,-14,-25,-8,-4,-3,-1
33.37,-2,1,4,2,8,0,0,0
33.375,0,6,3,-4,3,-1,1,-4
33.38,0,1,11,6,-2,6,-1,-1
33.385,-1,0,7,35,5,2,0,1
33.39,2,0,-3,-38,-10,-3,0,-1
33.395,-2,-3,5,10,2,1,-2,0
33.4,0,-9,4,-1,11,0,2,2
33.405,-3,-7,-4,-22,-17,-8,-4,-1
33.41,1,3,4,14,12,6,2,-2
33.415,0,4,16,13,-4,-2,-1,-1
33.42,1,31,-9,34,-1,-6,-7,3
33.425,-6,-24,-1,-58,-17,-5,1,7
33.43,-3,-3,-4,-15,-11,-10,-7,8
33.435,0,2,1,-3,0,2,-2,-2
33.44,0,7,-12,18,2,-2,4,12
33.445,7,4,4,21,7,1,-8,-16
33.45,-7,-1,-10,-9,3,1,12,16
33.455,2,-5,7,-4,-5,-2,5,10
33.46,-5,-12,6,-11,-5,-4,-22,-30
33.465,7,0,-3,23,6,-1,-20,13
33.47,-13,-6,0,2,-2,0,-3,-14
33.475,4,1,1,-1,-3,-1,4,-2
33.48,-2,3,14,23,12,4,14,0
33.485,3,-4,-16,-101,-24,-3,10,25
33.49,-2,-4,-16,32,-8,-3,-11,-60
33.495,3,5,5,15,6,-2,0,3
33.5,-2,-18,10,26,4,0,1,8
33.505,-8,-6,-18,-28,-6,-1,0,-16
33.51,7,-1,1,-13,3,0,-3,16
33.515,-5,-26,7,9,0,-2,1,1
33.52,1,-7,-12,-65,-12,-5,-5,-9
33.525,-4,-5,32,79,12,2,3,4
33.53,-4,-11,-37,-24,-16,-7,-1,2
33.535,3,8,-12,-20,3,6,-5,-8
33.54,-2,15,-23,15,1,-3,-8,4
33.545,-1,5,-7,-62,8,4,13,-9
33.55,3,4,11,42,-14,-10,-7,7
33.555,-6,-3,7,3,-4,1,-4,-16
33.56,-2,-1,-2,-19,-5,-4,-4,-3
33.565,1,7,-9,27,10,3,1,5
33.57,6,7,7,-46,9,7,7,8
33.575,-6,2,-12,10,-14,-9,0,10
33.58,49,16,-6,-27,-7,-3,0,42
33.585,-31,3,28,73,3,-4,-9,-40
33.59,-3,-3,4,-19,3,3,0,4
33.595,2,-3,-5,-15,-2,-1,-4,-4
33.6,-16,-17,-16,-10,12,5,5,9
33.605,18,-1,-3,21,-18,-4,1,9
33.61,1,-1,-4,17,-7,-2,-1,-4
33.615,-9,0,-18,-28,-1,-1,-5,3
33.62,7,3,3,36,-3,1,10,-7
33.625,1,0,-7,-12,2,-1,-10,2
33.63,-27,-3,8,17,2,-4,-6,-16
33.635,5,4,-3,-6,9,2,-1,2
33.64,-7,-10,9,-45,-21,1,16,-3
33.645,4,-6,-3,22,5,2,16,0
33.65,-24,18,-28,-64,-12,-4,-46,-10
33.655,15,5,5,24,9,-3,-2,3
33.66,-14,10,5,29,2,-4,12,7
33.665,24,-19,9,-16,-8,0,16,-1
33.67,-16,3,2,37,2,-2,-4,-13
33.675,-10,0,7,12,-13,-3,-7,-11
33.68,-8,-25,1,2,7,-2,-2,3
33.685,-11,9,-18,33,2,-4,2,13
33.69,23,-9,-3,31,20,8,19,24
33.695,1,-2,-13,-89,-14,2,-4,-11
33.7,-6,2,17,42,8,4,3,3
33.705,3,-2,-33,-69,-29,-9,-1,4
33.71,3,-7,2,-15,-5,-3,-20,-13
33.715,-11,-16,-6,32,10,-5,2,7
33.72,5,9,-12,2,-2,3,-7,-5
33.725,2,10,-10,44,29,7,3,-4
33.73,-13,-12,17,-36,-30,-9,3,-13
33.735,5,24,-21,-39,-4,-2,-30,4
33.74,20,-18,25,-29,1,3,24,13
33.745,-23,8,22,54,13,-2,-31,-75
33.75,57,31,31,9,16,11,20,38
33.755,-60,-67,-15,22,-5,-7,10,-18
33.76,26,20,21,15,-25,-16,-36,-6
33.765,8,-25,18,3,11,10,16,33
33.77,15,7,-4,-39,11,0,8,-1
33.775,4,-1,-16,43,-16,-1,28,21
33.78,-7,-11,-16,-32,0,3,-14,-23
33.785,-10,3,7,25,8,-2,-6,-8
33.79,3,2,-1,84,23,2,-4,-2
33.795,14,10,8,-7,19,6,8,8
33.8,-12,4,3,-5,-16,-6,4,-2
33.805,-15,-4,-36,37,0,1,7,24
33.81,-34,-15,-40,-51,-18,-11,-21,0
33.815,31,4,-4,-13,-5,11,34,25
33.82,-12,-18,33,127,36,3,-33,-20
33.825,-83,-3,-29,-8,-1,-1,-9,-1
33.83,11,11,8,-2,-21,-16,11,-10
33.835,24,13,28,9,20,10,-8,40
33.84,13,18,-63,-128,-29,-5,9,-13
33.845,76,-3,56,57,16,1,-5,25
33.85,-92,-12,-15,50,8,-8,-44,-86
33.855,-7,-7,-21,-106,-3,1,-6,65
33.86,-32,-32,21,66,-27,-8,6,-30
33.865,19,1,3,-49,-1,3,-8,7
33.87,58,6,21,61,10,4,18,35
33.875,11,4,18,114,24,4,-1,-50
33.88,-59,-34,-41,-33,-2,9,33,27
33.885,0,6,-47,-75,-55,-34,-87,-30
33.89,-53,-17,51,-28,3,13,30,13
33.895,17,-6,44,69,13,0,24,67
33.9,19,21,30,25,28,13,-25,-16
33.905,-27,-2,-18,0,-18,-8,20,-2
33.91,78,7,-43,-19,30,12,12,22
33.915,-55,-44,-62,-74,-53,-29,-46,12
33.92,40,44,-31,-53,-7,-5,5,-9
33.925,-62,-13,38,80,13,11,20,-9
33.93,30,8,16,29,-18,-7,7,2
33.935,-1,10,2,14,24,10,34,-11
33.94,11,-11,-18,57,20,-10,-55,-65
33.945,-47,10,8,-20,-4,2,-12,-8
33.95,31,-10,-59,-100,-24,-2,9,35
33.955,94,38,45,-15,-12,2,-2,-22
33.96,-40,-44,41,-10,-6,-7,9,-34
33.965,98,56,56,5,9,0,41,23
33.97,46,-30,3,71,-4,-9,-45,51
33.975,-76,25,-23,-11,6,6,-15,-61
33.98,4,2,-60,-53,22,30,26,49
33.985,-8,-3,28,53,32,20,50,7
33.99,-3,8,-49,-8,-20,-19,-53,-32
33.995,-20,20,-27,-44,-34,-24,0,-22
34,11,-34,-23,32,-12,-15,-3,86
34.005,17,1,13,29,11,11,9,-5
34.01,-16,11,19,27,7,7,21,-29
34.015,35,9,64,40,15,2,-10,-27
34.02,-123,-37,99,65,8,-14,-12,-101
34.025,70,-48,-88,-128,-12,1,2,37
34.03,-53,33,-3,-23,-41,-21,-2,-64
34.035,82,24,12,26,-2,3,-16,18
34.04,4,22,-17,-87,-18,6,7,43
34.045,55,40,82,72,51,7,-5,-50
34.05,-84,-20,-38,81,13,11,14,-50
34.055,-72,-29,-36,-71,-55,-36,-28,-38
34.06,11,-29,8,76,-15,-10,-25,8
34.065,-46,-33,-71,-23,50,26,10,25
34.07,50,7,24,40,-9,-10,14,41
34.075,25,-23,8,-86,15,10,8,15
34.08,71,52,83,127,3,12,29,27
34.085,-89,-27,-96,-122,-88,-29,-44,-40
34.09,21,-10,70,-17,39,27,38,-28
34.095,-5,-9,14,64,6,-2,4,17
34.1,10,26,-32,-38,16,-4,-56,31
34.105,59,-4,48,110,-8,-12,24,-52
34.11,35,-16,-17,-31,28,9,-27,-16
34.115,-21,-2,-6,100,-21,-5,3,-32
34.12,40,19,82,19,26,3,-4,74
34.125,-52,-24,-43,-101,-62,-23,-1,-99
34.13,62,24,74,12,17,10,42,125
34.135,60,25,23,102,38,20,25,-74
34.14,-50,-23,-76,-55,3,2,16,5
34.145,87,20,25,55,-33,-22,-11,106
34.15,-57,-56,-15,60,2,-9,-20,-26
34.155,-7,19,39,-84,-22,0,-2,3
34.16,9,26,41,7,25,2,0,-31
34.165,6,-13,-75,-107,-7,5,41,33
34.17,-19,-36,-18,-49,-27,-1,-46,45
34.175,51,13,1,61,-7,-10,-4,61
34.18,-64,-10,-56,-63,5,-3,6,-74
34.185,-44,19,36,-7,-11,2,-15,-43
34.19,63,27,8,59,45,17,27,-17
34.195,-122,-35,-22,3,-5,-5,-62,-63
34.2,19,2,-36,-60,-29,-21,-32,-6
34.205,9,5,-40,-67,7,-4,-1,64
34.21,-55,-20,-25,24,-36,-16,-24,-25
34.215,48,-13,-6,-26,5,9,22,25
34.22,114,1,13,88,20,20,30,3
34.225,-82,26,26,33,17,1,8,-73
34.23,92,34,-5,-92,-10,1,-30,39
34.235,-90,-51,-44,10,-48,-19,-12,-2
34.24,24,41,-106,-72,-29,-19,-7,-11
34.245,33,-4,79,61,32,-1,0,36
34.25,-46,-40,35,65,-1,1,20,-17
34.255,54,19,-19,-3,23,14,7,-15
34.26,-15,35,68,-4,8,16,39,-64
34.265,-20,-80,7,38,-26,-16,-60,-23
34.27,-16,37,-45,-97,-3,-16,0,-14
34.275,17,21,29,47,6,-1,11,38
34.28,-12,-15,-28,-1,11,11,18,-6
34.285,22,9,0,7,3,-2,-6,71
34.29,-5,8,34,64,6,0,-4,-6
34.295,83,17,21,-8,-6,14,72,101
34.3,-96,-63,-14,-45,-26,-22,-27,-61
34.305,22,44,-20,91,-25,-11,-48,70
34.31,-53,-10,-16,-12,-4,-10,1,-20
34.315,-6,10,-6,19,-7,3,34,-9
34.32,1,12,18,73,14,-3,-29,18
34.325,6,9,-55,-78,11,7,10,-65
34.33,14,-11,-4,49,2,7,-2,1
34.335,-101,-37,-17,-96,4,-3,-21,-53
34.34,103,11,0,22,-1,3,15,74
34.345,-27,-28,32,-7,-12,2,-4,-41
34.35,17,5,51,55,-5,-5,16,39
34.355,-19,-29,13,60,38,10,-25,-64
34.36,6,-7,-6,-72,-12,2,2,30
34.365,18,17,11,14,-6,-4,-1,17
34.37,12,6,-1,-25,4,0,23,13
34.375,-10,-3,-38,-81,-30,-11,-2,27
34.38,-6,-4,39,102,-20,-16,-3,-27
34.385,19,0,6,-22,21,13,-8,44
34.39,-68,-29,-47,-82,-40,-21,-9,-105
34.395,37,16,28,118,38,17,-6,14
34.4,-4,3,-18,-59,-24,-8,5,8
34.405,39,22,11,0,12,5,22,5
34.41,-17,-22,-24,48,0,0,-28,15
34.415,-19,21,-45,-110,-20,-10,9,43
34.42,-2,-35,68,76,21,11,15,-22
34.425,-14,-2,-8,16,8,-2,-37,-38
34.43,5,9,-14,-25,5,7,12,-5
34.435,26,15,19,38,13,1,-6,8
34.44,-6,-49,71,51,20,15,21,44
34.445,-14,-4,-6,9,-5,-5,3,-19
34.45,16,1,-21,-27,-18,-3,13,21
34.455,6,-1,25,1,7,-4,-30,-12
34.46,-2,23,-2,15,-8,-11,-15,-1
34.465,-4,-12,-16,-75,3,13,18,-2
34.47,18,14,28,59,15,5,9,18
34.475,-4,0,-46,-79,-28,0,-12,-6
34.48,-16,8,-36,-12,-19,-8,-8,-12
34.485,3,-5,15,46,-2,-2,11,6
34.49,5,21,-11,-15,35,12,4,9
34.495,-7,-3,19,24,10,-13,-15,-19
34.5,-4,-6,-49,-42,-23,-1,-2,3
34.505,-5,-19,-29,0,-14,-5,4,2
34.51,-5,-2,-20,-12,-1,2,-10,-22
34.515,4,11,-12,-8,11,3,9,4
34.52,-3,-12,-32,-33,5,-1,-16,13
34.525,-5,-1,4,14,1,-4,13,38
34.53,-3,-3,4,-20,-11,-8,-12,-26
34.535,16,4,36,28,-6,7,-10,0
34.54,6,15,-6,0,7,0,16,27
34.545,-7,-2,3,0,6,4,-14,-2
34.55,6,3,-1,52,-11,-3,16,5
34.555,-7,-7,-5,18,-3,-9,-14,-13
34.56,1,7,-10,11,-2,-3,-33,-4
34.565,5,-2,20,35,21,6,15,-8
34.57,4,2,21,-12,1,4,6,8
