timestamp,ch1,ch2,ch3,ch4,ch5,ch6,ch7,ch8
21.25,-1,-2,-4,-9,-1,-3,-4,-2
21.255,-2,-4,-7,-6,-8,-3,-3,-2
21.26,-2,-4,4,9,1,-1,-1,-2
21.265,-6,-6,-12,-6,-6,-4,-3,-4
21.27,-2,0,3,8,0,-2,-4,-1
21.275,-2,-2,-1,0,-2,-1,0,-1
21.28,-2,-2,0,-4,-5,-2,0,-1
21.285,-1,-1,4,2,-1,1,-1,-2
21.29,0,-2,-1,-3,0,-2,-1,-1
21.295,0,-1,0,6,-2,-1,0,-1
21.3,-1,-3,-5,-27,-8,-3,-1,-2
21.305,-2,-2,0,11,-3,-2,-2,-2
21.31,-3,-3,-12,-46,-2,-1,-1,-4
21.315,-2,-2,1,27,-3,-1,-1,-2
21.32,0,-1,2,13,2,-1,-1,0
21.325,-2,-1,0,-14,0,-1,0,-2
21.33,2,1,5,5,-1,-2,-2,1
21.335,0,0,-4,-5,-1,-1,-1,-1
21.34,0,-2,0,2,1,-1,0,-2
21.345,0,-3,0,8,-2,-1,3,-1
21.35,-2,-3,-4,-6,-5,-2,-1,-2
21.355,-2,0,-1,-5,1,-2,-1,-1
21.36,-1,-1,-1,12,-3,-3,0,-2
21.365,-1,-4,-5,-18,-3,-2,-2,-2
21.37,-2,-3,0,6,-8,-2,-2,0
21.375,-1,-1,1,2,2,1,-1,0
21.38,-3,-1,2,1,1,1,0,1
21.385,-1,-3,-8,-13,-9,-3,-1,2
21.39,0,-2,2,5,2,1,2,1
21.395,0,2,5,-9,6,3,4,1
21.4,-6,-7,-16,10,-16,-5,-5,-5
21.405,3,4,8,16,7,3,0,2
21.41,0,1,-4,-5,-5,-4,-2,0
21.415,2,3,7,5,4,2,0,-1
21.42,2,2,1,-2,5,3,1,1
21.425,-3,-1,0,8,-3,-3,-1,-1
21.43,-2,-2,-5,-1,3,-1,-1,-2
21.435,-2,-2,-6,-7,-2,-2,-2,-1
21.44,1,1,0,-14,-5,-1,0,2
21.445,0,-2,-1,12,1,1,0,-1
21.45,0,2,5,9,5,0,1,0
21.455,-1,-2,-4,-13,-4,-2,-1,0
21.46,-2,-1,-3,-24,-6,-2,-1,-1
21.465,1,3,1,1,0,-1,1,0
21.47,-2,-1,-2,1,0,1,-1,-2
21.475,-4,-4,-14,-2,-7,-4,-4,-1
21.48,0,3,10,21,7,2,0,1
21.485,-2,-4,-14,-50,-10,-3,-3,-2
21.49,-2,-4,-5,25,-2,-2,-2,-3
21.495,-1,0,-1,-3,-1,-1,-2,-1
21.5,-1,-2,-3,1,-5,-3,-2,-2
21.505,1,3,8,8,9,2,0,0
21.51,0,1,3,-3,3,0,0,-1
21.515,0,0,-1,-27,-9,2,1,1
21.52,-2,-3,-3,-1,0,-1,0,-1
21.525,-1,-1,1,4,1,-2,0,-3
21.53,0,0,1,5,0,-1,0,0
21.535,0,2,6,11,5,0,-3,-2
21.54,-1,0,1,1,2,-2,-1,0
21.545,0,0,-5,-6,-4,-4,-1,1
21.55,-1,0,0,2,1,2,0,0
21.555,-1,-2,-3,-2,-2,-2,-2,-1
21.56,0,0,-3,-8,-2,-2,-4,-3
21.565,-1,-1,4,18,4,1,1,0
21.57,-1,-2,-3,-15,-1,-3,-2,-1
21.575,-2,-2,-4,-5,-3,-3,-2,0
21.58,-2,0,1,21,-1,0,-1,-1
21.585,-4,-1,-1,-17,-3,0,-3,-3
21.59,-1,0,-1,2,-2,0,-1,-2
21.595,-3,-3,-6,-13,-4,-3,-2,-3
21.6,-1,-1,0,5,1,-1,0,-1
21.605,0,-1,-1,3,3,1,-1,-1
21.61,-3,-4,-7,-15,-2,-1,-3,-2
21.615,1,0,5,10,0,0,-1,-2
21.62,0,1,1,-2,-4,-1,-1,-2
21.625,-3,-5,-8,-11,-5,-3,-3,-4
21.63,-3,-4,-6,-11,-3,-1,-3,-1
21.635,-3,-4,1,20,0,-2,0,-3
21.64,-2,-3,1,-3,6,-1,-1,-2
21.645,1,0,3,-8,-1,-2,0,-1
21.65,-1,-4,-4,7,-2,-1,-2,-2
21.655,1,-1,1,8,0,-1,1,-2
21.66,-4,-4,-4,-13,-4,-4,-3,-2
21.665,-2,1,0,-1,1,-1,0,-1
21.67,1,-3,6,7,0,3,4,2
21.675,-1,0,-5,-9,-4,-2,-2,0
21.68,0,-3,0,18,0,0,-1,-1
21.685,-1,-3,-2,4,-2,-1,-2,0
21.69,-2,-2,-2,-2,-4,-3,-2,-1
21.695,-2,-2,-3,-14,-3,-1,-2,-1
21.7,-1,1,1,-4,3,0,1,-1
21.705,-3,-2,-3,-2,-1,-2,-3,-1
21.71,-2,-1,0,1,-3,0,-2,-1
21.715,-2,-3,-3,-5,-2,-2,-1,-2
21.72,-1,-1,-5,-10,0,-2,-3,-2
21.725,0,1,7,20,1,1,-2,-2
21.73,1,3,10,23,4,1,-1,0
21.735,-4,-4,-15,-40,-10,-4,-2,-2
21.74,-2,-5,-4,-14,-7,-3,0,0
21.745,1,-1,0,7,2,-2,0,0
21.75,-1,-1,-1,4,-1,-2,-2,-3
21.755,2,3,12,25,4,3,0,1
21.76,1,-1,-7,-6,-1,0,0,1
21.765,-2,-1,-4,-5,-2,0,2,1
21.77,-2,-2,-4,-8,5,0,0,1
21.775,-1,-2,0,6,0,1,0,0
21.78,1,1,1,-5,-1,1,-1,-1
21.785,2,2,5,10,-1,0,-1,-1
21.79,3,1,1,8,1,1,1,2
21.795,-2,-6,-8,-27,-12,-6,-6,-4
21.8,-1,-3,-2,7,0,-1,-2,-1
21.805,-2,-2,-6,-9,-2,-2,-2,-2
21.81,-1,1,2,0,0,-1,-1,-1
21.815,1,2,3,4,6,2,1,2
21.82,-1,2,4,3,2,1,0,0
21.825,0,0,-2,3,-2,-2,-1,0
21.83,-3,0,-5,-14,-4,-3,-1,-2
21.835,0,0,-1,8,3,2,0,-2
21.84,0,-1,-2,-7,-4,0,-1,-3
21.845,-1,-1,2,5,1,1,-2,0
21.85,-2,0,-1,-7,-6,-1,-1,-1
21.855,-2,-2,-3,1,0,-1,-1,-2
21.86,0,-1,1,10,-1,1,1,1
21.865,0,-2,-3,-14,0,-1,0,-1
21.87,-1,0,-1,-4,-1,-1,-2,-3
21.875,0,-3,-5,2,-2,1,0,1
21.88,-3,-1,-2,0,0,-5,-3,-4
21.885,2,2,4,8,8,1,1,3
21.89,0,-1,-3,-3,-9,0,-3,-2
21.895,-4,-7,-16,-28,-22,-6,-4,-4
21.9,0,0,2,2,-1,-1,0,-1
21.905,-1,-1,-7,-10,-1,1,1,-1
21.91,0,-1,2,8,4,-4,-3,-4
21.915,-1,3,8,15,7,1,0,1
21.92,1,-1,-3,-3,-1,-2,1,0
21.925,-1,-1,1,5,0,2,-1,-3
21.93,0,-2,-2,-9,2,0,-1,-1
21.935,-1,0,3,13,2,-1,-1,-1
21.94,-1,1,6,10,4,2,2,2
21.945,-1,-1,-6,-39,-5,0,0,-2
21.95,-3,-5,-5,9,-6,-5,-1,-3
21.955,-2,-3,0,7,-6,-3,-2,-2
21.96,-2,-2,-6,5,-4,-1,-1,-1
21.965,0,1,2,8,-2,0,-2,-1
21.97,0,0,-5,-25,-4,0,-2,-1
21.975,0,1,4,11,6,1,2,2
21.98,0,-3,-3,-11,1,0,0,-2
21.985,-1,-3,-3,9,-1,-1,-2,-1
21.99,-1,-4,-6,-6,1,-3,-1,-1
21.995,0,1,2,15,4,-2,-2,1
22,-1,-1,-10,-47,-9,-5,-4,-2
22.005,-3,-4,-2,24,-6,-6,-3,-2
22.01,-1,1,-1,8,-2,-3,-4,-3
22.015,1,1,7,21,5,3,2,-1
22.02,-3,0,-2,-26,7,0,0,-1
22.025,-6,-5,-7,0,-14,-5,-3,-3
22.03,-4,-4,-6,16,-5,-6,-5,-3
22.035,-2,-4,-4,-15,-5,-2,-2,-2
22.04,2,1,8,27,4,1,1,0
22.045,-1,-1,5,-6,6,-1,0,-2
22.05,-2,-2,-2,-8,-3,-1,-1,-1
22.055,-1,1,1,-16,-1,0,-1,-2
22.06,-2,-3,-5,28,-1,-2,-2,-3
22.065,-1,-5,-7,-20,-6,-4,0,-3
22.07,-1,-1,5,4,0,-2,0,-3
22.075,1,1,1,6,0,-1,0,0
22.08,-4,-3,-6,-18,-9,-2,-2,-1
22.085,1,4,5,5,5,0,0,-1
22.09,-2,-3,-11,-28,-4,-2,-4,-3
22.095,-2,-2,-1,18,-3,-3,-1,-1
22.1,0,-2,2,4,-2,-1,-2,0
22.105,0,-4,-9,-2,-1,-2,-1,-1
22.11,1,1,6,-1,4,4,4,1
22.115,-2,-2,-2,-12,-1,-1,-1,0
22.12,2,1,2,9,4,0,-1,0
22.125,-2,-1,-2,-17,-3,2,-2,-1
22.13,-1,0,-1,-7,-2,1,2,0
22.135,-2,0,-1,74,3,-1,-2,1
22.14,-8,-11,-20,-16,-30,-11,-7,-5
22.145,2,5,9,26,11,5,5,5
22.15,1,5,7,-11,9,5,5,2
22.155,0,-1,1,-1,-1,1,-1,-2
22.16,2,3,8,12,0,-2,1,0
22.165,3,1,-1,24,3,-2,-2,0
22.17,-4,-2,-5,-4,0,0,0,2
22.175,-2,-2,-6,-38,-6,-2,-2,-7
22.18,4,6,7,39,18,7,4,2
22.185,-2,-9,-6,-6,-27,-6,38,53
22.19,-11,-3,-3,1,0,-6,-29,-86
22.195,-6,-2,-8,-48,0,-4,-19,-6
22.2,5,3,9,22,7,2,8,30
22.205,-8,-1,-12,-40,-5,-2,-10,-34
22.21,11,2,6,36,4,9,45,63
22.215,-13,-3,0,12,-7,-4,10,-48
22.22,-3,-3,-4,-60,-4,-4,-30,3
22.225,15,-4,4,-1,1,2,12,25
22.23,-18,-6,-4,34,-6,-7,-18,22
22.235,0,0,-16,-81,-13,-2,-2,-67
22.24,0,-2,-6,20,3,0,15,2
22.245,-4,3,6,4,9,0,-12,-10
22.25,10,-4,-7,-17,-3,2,7,-1
22.255,7,2,12,51,8,1,3,38
22.26,-6,-3,-8,-9,-4,-1,-3,-16
22.265,0,1,4,5,3,1,-12,-15
22.27,1,1,-1,-16,1,-1,-6,1
22.275,0,0,0,3,6,1,1,21
22.28,-1,-3,2,-22,-21,-5,-4,-6
22.285,-3,0,-6,3,0,1,-4,-2
22.29,1,3,3,9,3,0,1,6
22.295,1,-2,-4,-7,0,-1,-3,11
22.3,-4,-4,-2,5,1,-2,-2,-10
22.305,-3,25,-12,4,-4,-4,-6,-8
22.31,-1,-6,-12,-8,-3,-3,-2,-4
22.315,3,-1,2,-3,-2,-3,-1,10
22.32,0,-2,6,0,3,2,2,-2
22.325,-8,-9,-9,4,3,-1,-3,-8
22.33,1,4,1,-8,-5,-4,-4,0
22.335,-2,-2,2,4,0,0,-4,9
22.34,4,4,-8,6,7,1,2,-4
22.345,-4,-7,7,3,-4,-4,-8,-7
22.35,0,-3,-2,-10,-6,-1,1,3
22.355,2,-3,1,6,0,-2,4,-3
22.36,-10,-2,-8,-2,2,-3,-11,-4
22.365,23,-10,20,18,14,9,10,14
22.37,-18,-4,-7,-22,-13,-8,-10,-13
22.375,4,8,-4,-20,-2,-1,4,9
22.38,-2,-5,-5,-3,-6,-6,-8,34
22.385,-13,-5,-13,-4,-3,-6,-26,-75
22.39,2,-2,-5,-3,1,0,0,6
22.395,0,-1,5,0,1,4,7,6
22.4,0,1,3,11,-2,0,9,5
22.405,-2,-3,4,4,2,0,-4,16
22.41,2,2,10,2,-2,-1,2,-6
22.415,-6,-3,-10,-8,-4,-6,-7,-3
22.42,4,-1,-2,-10,0,1,4,-3
22.425,-11,-3,-7,-4,-7,-6,-3,5
22.43,5,0,1,13,4,1,-4,-11
22.435,-6,-2,1,4,-2,-1,2,10
22.44,-1,1,7,-4,1,0,-3,-9
22.445,3,-1,-2,-6,-4,-1,1,6
22.45,-4,-2,6,5,0,0,11,8
22.455,6,-2,-5,8,3,0,2,43
22.46,-11,-5,-4,-8,-6,-4,-20,-98
22.465,-5,-2,-5,-2,-5,-4,0,13
22.47,3,-5,5,5,2,1,-6,2
22.475,0,-1,0,4,1,-2,7,-7
22.48,-5,-5,-19,-11,-6,-4,0,13
22.485,4,16,18,12,4,2,6,4
22.49,-8,-10,-25,-30,-4,-5,-12,-13
22.495,-1,-8,1,-4,-6,1,5,1
22.5,0,-3,4,-1,-2,-1,-7,7
22.505,-2,-11,2,2,2,3,9,-1
22.51,12,5,6,13,3,5,25,22
22.515,13,10,4,3,1,-2,-27,-8
22.52,2,7,-1,4,3,2,14,2
22.525,-31,-3,3,-4,-1,0,-7,-9
22.53,1,-4,-3,2,1,-3,-13,25
22.535,5,-3,-2,-6,-2,-1,26,-4
22.54,11,2,5,7,1,0,-25,23
22.545,20,-4,-11,-10,-2,-1,6,17
22.55,-33,-6,7,-1,-4,-2,28,35
22.555,6,8,-4,2,-2,-1,-29,-62
22.56,4,0,3,2,5,6,34,28
22.565,10,-3,6,-3,-5,-6,-45,-4
22.57,0,-1,-2,-3,-1,-1,-9,-9
22.575,6,11,-3,-2,-2,0,23,9
22.58,22,25,10,2,3,1,-4,-7
22.585,-1,-66,38,3,-1,-1,1,28
22.59,-48,10,-6,1,-1,2,21,-27
22.595,-36,-13,9,-3,-1,-6,-38,-5
22.6,1,-3,2,3,1,0,4,20
22.605,0,17,-25,-7,-4,-5,-6,-19
22.61,40,20,8,6,2,2,-3,17
22.615,10,-5,4,3,1,4,10,27
22.62,3,-10,-4,-8,-4,-5,10,-28
22.625,-7,26,-2,8,3,2,-8,13
22.63,-28,-32,-4,-1,-2,-5,-9,-15
22.635,8,-3,-19,-2,1,0,4,-31
22.64,1,-9,-2,-7,-7,-4,-33,-5
22.645,-2,12,-1,0,1,1,13,-5
22.65,4,7,8,6,2,3,18,15
22.655,31,2,0,-2,-2,-2,-31,21
22.66,-91,-27,3,0,2,3,24,35
22.665,106,41,-12,-8,-1,-4,-10,-47
22.67,-15,-44,-25,-2,-4,-5,-15,2
22.675,-27,9,2,-15,-6,-4,-1,25
22.68,28,-9,19,11,3,-1,4,8
22.685,42,42,13,4,4,3,4,31
22.69,12,-38,-9,0,1,1,9,-1
22.695,-97,-65,-23,-8,-11,-11,-39,-91
22.7,85,72,-1,1,1,2,23,80
22.705,-113,-105,-17,2,-2,-4,3,-48
22.71,74,118,33,1,-3,-5,-53,-81
22.715,5,-27,-14,-8,-2,0,38,21
22.72,6,29,11,2,4,5,-3,17
22.725,40,-11,-10,0,-5,-6,1,44
22.73,18,35,8,6,1,-1,1,27
22.735,-67,-60,-6,-4,-2,-3,-2,36
22.74,50,-25,-21,-13,-10,-7,14,-60
22.745,-40,34,-3,-13,-7,-3,-1,8
22.75,-6,10,1,0,-2,3,-24,-7
22.755,127,28,20,18,8,7,43,-9
22.76,-114,-45,-14,-12,-12,-21,-82,9
22.765,-49,-25,11,1,2,8,25,-46
22.77,99,-24,7,13,4,2,-9,-34
22.775,22,85,-1,1,4,4,14,-7
22.78,-18,-13,0,3,-1,1,16,-34
22.785,-55,-14,-29,-24,-10,-2,-24,13
22.79,56,-9,-20,-23,-8,-11,-7,56
22.795,68,63,6,13,5,13,25,4
22.8,35,17,10,31,12,0,-43,-13
22.805,-15,-13,-14,-5,-3,1,26,-13
22.81,-85,-29,5,2,-9,-11,-16,-1
22.815,-56,-61,-1,-16,-5,-6,-8,-98
22.82,-3,-60,-21,-12,-4,-6,-39,17
22.825,-6,22,7,12,0,4,4,-62
22.83,37,-52,8,2,6,8,37,115
22.835,-69,-49,-21,17,2,-6,-13,-57
22.84,-13,63,7,-1,-7,-1,26,5
22.845,-52,-37,-35,-25,-7,-8,-33,34
22.85,10,77,5,-1,0,0,18,-5
22.855,-2,-18,-14,-20,-9,-8,-33,-13
22.86,40,-67,10,29,20,19,42,21
22.865,-5,-25,17,39,0,-1,50,110
22.87,-50,111,-7,-46,-11,-19,-94,-128
22.875,-27,53,-6,7,-18,-8,3,11
22.88,16,-12,31,-7,1,6,-6,-14
22.885,-42,-28,0,-1,7,7,42,-35
22.89,11,-22,0,46,18,12,31,80
22.895,-16,16,-2,-8,-1,-5,-17,-3
22.9,-9,6,-31,-31,-11,-9,1,6
22.905,72,48,59,35,7,1,33,3
22.91,5,-86,-10,25,-3,2,-54,-55
22.915,14,38,-27,-85,-19,-10,-11,-32
22.92,-55,-63,12,1,-13,-3,17,-53
22.925,53,30,-8,9,5,-5,-35,32
22.93,-37,-14,-3,-34,-4,2,34,-54
22.935,56,-13,-3,36,1,-1,16,13
22.94,-29,43,-4,-14,2,-3,-15,-25
22.945,28,76,-6,1,0,1,5,10
22.95,15,3,15,21,10,0,63,6
22.955,30,-57,-1,49,9,-12,-85,120
22.96,-85,-46,-55,-76,-19,-1,-17,-100
22.965,10,18,8,26,-4,-2,11,56
22.97,-40,15,-31,-35,-13,-3,-13,-2
22.975,-22,77,53,16,14,13,52,37
22.98,-14,-78,-25,42,12,-6,16,-2
22.985,54,5,-11,-42,-11,-2,-39,-12
22.99,-45,-42,11,-3,-3,1,2,-39
22.995,82,125,4,-17,-8,-4,-8,-79
23,-16,76,-12,27,-2,-7,37,-20
23.005,49,13,-26,-13,0,-9,-62,-16
23.01,-43,-39,33,38,20,1,-18,-13
23.015,8,-46,32,-1,4,13,37,21
23.02,127,61,11,4,-7,-6,8,127
23.025,-8,-9,22,9,11,9,11,-91
23.03,-14,-9,2,-8,-13,-5,9,113
23.035,22,-12,5,24,8,8,-4,51
23.04,4,1,10,44,2,0,6,-12
23.045,-10,-2,-1,-78,-15,-5,17,26
23.05,86,73,-5,24,0,2,-11,4
23.055,11,0,-22,-20,-5,-3,1,60
23.06,-33,-22,4,3,5,7,-7,-63
23.065,17,-31,69,29,6,-4,-7,7
23.07,49,33,-11,-18,-12,-2,34,14
23.075,-22,18,8,3,1,-6,-55,8
23.08,107,35,21,0,4,6,12,106
23.085,-96,-14,-48,-15,-4,-5,-20,-46
23.09,43,-14,-19,-2,-7,-4,16,-20
23.095,-91,-10,-11,-9,-4,0,42,-41
23.1,-84,-41,1,-14,-5,-5,-41,-27
23.105,-24,-82,17,10,-3,-3,16,-4
23.11,-55,19,26,-2,0,-2,0,-4
23.115,7,-41,-7,6,3,-1,-50,36
23.12,22,41,-8,-30,-5,-5,-4,37
23.125,89,9,-12,6,0,1,21,107
23.13,54,-24,1,-3,0,0,-8,-9
23.135,-33,-18,2,-7,-1,0,5,32
23.14,36,55,15,5,4,5,13,10
23.145,-79,33,12,18,5,4,1,-8
23.15,-29,55,-8,-6,5,5,10,-29
23.155,-7,-82,-16,-12,-6,-7,3,-14
23.16,40,14,5,15,6,4,7,-12
23.165,-20,-39,-3,-3,-3,-4,2,21
23.17,-72,-11,2,-8,-7,-6,-15,-13
23.175,-21,3,-5,-3,-5,-4,33,-38
23.18,18,35,8,-5,-1,0,-25,-21
23.185,-23,-16,-14,-2,-3,-5,-18,-27
23.19,-12,-26,-22,-14,-2,-3,-5,-1
23.195,41,-1,2,6,3,3,16,45
23.2,28,20,-2,-8,-2,-2,6,-1
23.205,-66,-17,-10,2,1,-1,-12,-43
23.21,45,-17,-4,0,-2,3,3,36
23.215,15,20,-7,-3,1,3,4,-13
23.22,-28,-11,7,-5,-2,-2,-4,-7
23.225,35,31,-10,-3,-2,-3,-6,-13
23.23,-19,-29,0,-3,-4,-4,-3,-6
23.235,-9,-7,2,6,3,2,-1,-3
23.24,-24,-20,-9,-9,-6,-3,0,-8
23.245,45,13,0,1,-2,-1,2,17
23.25,-5,3,-12,-13,0,-6,-5,-5
23.255,19,3,4,6,-3,-1,0,1
23.26,2,-9,0,2,0,-3,3,13
23.265,26,17,-13,-15,-3,-1,0,-7
23.27,-3,-3,-4,2,1,1,-5,-2
23.275,2,8,1,-3,-3,-2,-3,-4
23.28,-16,-17,0,1,-2,0,1,-6
23.285,10,13,2,13,1,-1,-4,-8
23.29,-2,-8,-8,-20,-7,-3,-2,-2
23.295,7,-2,-1,5,9,-1,-1,9
23.3,-6,-3,-11,-2,3,4,3,-2
23.305,21,7,-4,-5,-5,1,-2,0
23.31,6,-3,5,17,-3,-4,-1,6
23.315,0,-1,-7,-15,-13,-5,-2,-7
23.32,-7,6,-8,0,9,0,-2,-5
23.325,6,10,8,3,-3,0,-1,-3
23.33,-5,-8,-7,-7,2,-1,0,-3
23.335,-4,2,2,-4,3,0,-4,-3
23.34,-3,-14,-4,-17,-7,0,2,-2
23.345,10,4,0,11,6,0,2,3
23.35,1,3,5,34,7,7,1,0
23.355,3,-2,-4,-22,7,-3,-2,0
23.36,-2,-4,-8,-6,-12,-8,-4,0
23.365,5,2,-6,-17,-21,-5,-3,-4
23.37,1,1,15,56,30,9,3,1
23.375,-1,-3,-13,-50,-14,1,0,-4
23.38,-7,-2,-11,19,-2,-4,-2,-2
23.385,-3,-5,18,-9,-20,-8,-8,-7
23.39,3,1,20,-29,-5,3,-3,2
23.395,2,2,7,56,11,4,4,3
23.4,-2,0,-3,-27,-3,-4,-2,-1
23.405,0,-4,-18,-1,0,-9,-4,-3
23.41,3,-6,1,0,-6,2,3,4
23.415,1,1,14,39,13,5,1,1
23.42,-3,-5,-2,-7,3,1,-2,-1
23.425,-1,0,-8,-10,3,-1,-2,-4
23.43,-4,-1,-4,3,-12,-9,-4,-2
23.435,-2,-1,-10,-44,-19,-5,-2,-3
23.44,1,2,16,54,-30,-9,-1,-1
23.445,0,-5,-15,-20,32,2,0,-3
23.45,6,8,8,9,17,15,5,6
23.455,0,1,-4,-13,-4,-25,-10,-4
23.46,-7,-9,-9,4,-50,-10,-2,-6
23.465,3,5,9,-20,86,57,15,6
23.47,-6,12,-50,-1,13,5,-2,-6
23.475,4,3,27,109,19,11,7,4
23.48,1,4,2,-77,-14,-19,-6,1
23.485,-9,-12,-26,25,-65,-39,-16,-8
23.49,-4,-1,-8,-20,-4,10,-2,-5
23.495,2,0,14,71,12,10,7,6
23.5,0,-4,-7,52,7,-2,0,1
23.505,-5,-12,-40,-39,-45,-19,-9,-8
23.51,-3,-7,11,-22,-9,-10,-2,-1
23.515,-5,-3,3,51,-28,-9,-8,-9
23.52,6,5,30,52,36,11,10,44
23.525,4,14,23,-12,22,-7,-2,-47
23.53,-9,-19,-30,-4,-41,-11,-5,-5
23.535,-3,-4,-17,-71,31,18,3,-5
23.54,-1,3,5,7,24,7,2,9
23.545,1,4,6,60,8,11,3,17
23.55,6,3,16,-43,-12,-14,5,11
23.555,-1,0,-24,-82,-12,-8,-22,-20
23.56,-11,-16,-19,-12,-11,-6,-8,-21
23.565,8,7,27,70,2,1,2,12
23.57,-2,-3,4,-27,-2,-2,9,-1
23.575,-13,-7,-7,4,-3,1,12,58
23.58,14,11,11,34,30,13,3,4
23.585,-5,-6,-5,-31,-15,-5,-16,-11
23.59,-14,-4,0,103,2,-8,-20,-6
23.595,0,-7,-23,-76,-22,-10,10,-3
23.6,-5,-1,2,2,-8,0,2,-7
23.605,14,13,22,24,31,12,21,23
23.61,-3,-15,-38,-102,-22,-7,-5,-11
23.615,-7,-3,8,8,-13,-8,-11,-13
23.62,0,0,3,-3,3,1,2,-10
23.625,1,4,39,16,17,8,3,2
23.63,3,8,38,-13,3,3,-1,-5
23.635,8,9,24,17,21,8,3,-11
23.64,-6,-11,-24,8,-25,-12,-6,-7
23.645,-8,-7,-26,8,-25,-8,-2,5
23.65,-5,-2,-9,14,9,3,-3,-6
23.655,7,4,32,75,27,14,7,5
23.66,0,5,-12,-65,-13,-6,-5,-2
23.665,-3,-3,-5,13,-10,-6,-3,-1
23.67,10,0,8,28,5,-3,5,8
23.675,-7,0,-4,35,1,-5,-7,-32
23.68,6,9,-3,-98,22,16,10,6
23.685,-4,-6,-10,32,-22,-9,-9,-2
23.69,-4,-13,-15,-15,-1,-3,-3,-32
23.695,6,4,6,-11,-4,-3,2,5
23.7,-8,-5,3,37,6,-2,-23,-16
23.705,4,1,0,-22,3,4,8,1
23.71,0,11,-12,-1,3,-6,1,16
23.715,-3,-6,-22,-27,-13,-3,4,5
23.72,-4,-2,-4,19,-4,2,5,-12
23.725,0,-5,-8,-23,0,1,0,10
23.73,3,13,-2,10,22,8,3,9
23.735,-9,-19,-17,19,-23,-14,-13,-11
23.74,1,-5,16,22,-12,-7,-3,2
23.745,-4,1,-19,-60,-12,-9,-7,-9
23.75,-3,3,-10,-5,-2,4,3,9
23.755,11,-22,52,9,21,13,12,5
23.76,-7,-16,-18,-17,0,0,-2,-2
23.765,-2,0,8,42,-4,-7,1,2
23.77,0,-9,0,-1,-9,-8,-5,-7
23.775,10,16,1,31,20,6,2,5
23.78,-19,-6,-62,-42,-28,-5,-22,-11
23.785,2,-14,11,13,0,4,9,33
23.79,-1,-8,20,18,-7,-4,-6,-8
23.795,0,10,-13,-1,-4,-5,-6,4
23.8,2,5,-2,-7,0,-20,4,-5
23.805,0,10,-22,-9,0,0,9,10
23.81,-8,-7,-1,1,0,9,-8,-5
23.815,5,6,9,13,4,5,10,5
23.82,3,-15,34,6,8,6,29,18
23.825,-2,4,-5,-17,-4,-11,-25,-12
23.83,2,-16,-3,5,-4,-4,1,-8
23.835,-6,-1,-15,-5,-10,-10,-11,-11
23.84,0,4,-6,7,5,6,-7,-6
23.845,-1,-4,61,24,-4,1,14,-7
23.85,1,-4,32,4,1,-4,-2,0
23.855,-5,8,-13,-19,-9,-2,-10,-1
23.86,8,4,28,25,9,6,9,6
23.865,1,-1,-12,-8,11,7,-3,-10
23.87,-3,-3,-14,2,-12,-8,-8,3
23.875,-9,-6,-8,-32,-12,-4,2,5
23.88,11,1,-8,22,11,-1,-3,-6
23.885,-16,-2,-9,-17,-6,0,-3,-13
23.89,3,9,2,23,17,11,3,8
23.895,-6,-11,-31,-57,-21,-8,-3,-3
23.9,-3,12,0,-6,-2,-1,-13,-12
23.905,7,0,-18,-1,-1,0,-1,27
23.91,-1,6,16,7,8,2,4,-65
23.915,-8,-13,-26,-40,-21,-10,-4,-5
23.92,-2,-3,11,20,3,1,-3,0
23.925,6,5,1,-31,8,5,2,3
23.93,-5,-4,-20,14,-16,-12,-5,16
23.935,6,2,28,-7,13,9,1,3
23.94,-3,-22,17,2,0,6,3,-3
23.945,1,2,-16,6,2,0,2,-2
23.95,4,1,4,-8,2,-1,1,10
23.955,-2,11,-2,25,0,-5,-6,-9
23.96,-1,-4,-10,-10,-9,-3,-1,10
23.965,-5,-8,-31,-34,1,0,1,-8
23.97,-3,-6,1,-10,-9,-4,-5,15
23.975,-3,1,-2,4,-5,-3,-4,-8
23.98,4,7,15,21,12,5,7,5
23.985,-1,-1,-6,6,2,0,-12,-15
23.99,2,5,-5,-2,-2,-2,3,7
23.995,-1,2,6,15,-3,-4,-3,-3
24,-3,7,-9,-22,2,-2,2,4
24.005,0,-5,2,22,-7,-8,1,-9
24.01,-1,-1,1,0,-9,-4,-4,4
24.015,2,5,-6,23,10,7,6,42
24.02,-1,0,6,21,6,4,-6,-31
24.025,0,-40,41,-51,10,7,2,3
24.03,-4,-1,0,16,-4,-3,-2,1
24.035,3,2,-15,-22,-2,-4,0,9
24.04,-3,-3,-3,-8,-10,-5,-6,0
24.045,1,13,5,16,-5,-4,2,0
24.05,-4,-5,-21,10,-7,-18,-2,2
24.055,-1,-8,11,0,3,3,-1,-13
24.06,-5,3,-5,-4,1,0,-2,-1
24.065,-3,10,-10,26,2,2,-3,-11
24.07,0,-3,-14,-74,-9,-3,-1,4
24.075,-5,-2,-16,7,-8,-3,-4,-13
24.08,1,5,0,28,0,-10,-2,0
24.085,-5,-9,-14,-49,-9,1,-6,-5
24.09,-3,-1,11,13,11,7,-5,-1
24.095,1,1,3,-12,-2,-3,-1,-7
24.1,-2,-1,-26,-12,-6,1,-2,3
24.105,1,7,9,34,1,-3,2,0
24.11,-1,0,-4,-10,1,7,1,0
24.115,0,-9,4,-11,-1,-3,-2,-8
24.12,2,1,10,-4,-3,-8,-2,6
24.125,1,-8,-5,-16,-9,-6,-6,1
24.13,7,2,12,21,7,10,11,3
24.135,-6,0,-19,13,8,8,4,-3
24.14,-1,-9,15,-4,3,9,0,0
24.145,-2,5,-6,18,-10,-10,-5,-5
24.15,2,7,-5,12,-13,-9,-9,-1
24.155,-1,-4,-6,-19,2,-9,-3,-3
24.16,-2,1,-12,-43,7,21,2,2
24.165,1,-1,0,-7,6,0,2,0
24.17,-5,-4,2,6,-3,1,1,0
24.175,-1,4,10,11,-16,-15,-2,-6
24.18,-1,1,7,11,6,-3,0,0
24.185,-2,4,2,70,-6,-12,-1,5
24.19,-3,-6,-14,-23,1,7,1,-3
24.195,1,-1,8,-36,-3,4,-1,1
24.2,-1,-1,-6,6,-2,-6,-1,-5
24.205,-3,0,-10,-43,-13,-5,-5,-4
24.21,2,2,8,29,8,-9,1,7
24.215,3,-3,3,5,2,11,8,41
24.22,-2,-5,0,24,-1,4,-6,-21
24.225,1,4,-1,-13,0,0,8,4
24.23,-6,-2,5,10,-3,-2,-7,-16
24.235,2,1,0,26,1,-8,-4,5
24.24,-1,-3,3,-56,-14,0,1,8
24.245,-4,0,-11,16,8,4,-5,-3
24.25,0,1,-21,5,6,-4,0,-1
24.255,-5,-7,-5,-26,-10,-2,-2,-13
24.26,-2,-2,-1,34,-3,-6,-2,-1
24.265,0,0,-3,-15,-6,-14,-3,-9
24.27,0,-3,4,21,6,8,1,4
24.275,-2,3,0,21,6,-4,5,-7
24.28,1,3,-4,8,-1,7,-12,-10
24.285,2,1,-5,-51,-6,0,2,11
24.29,1,-3,-10,-31,-4,0,2,37
24.295,-6,-6,-1,-7,-5,-1,-10,-43
24.3,1,2,9,13,4,9,8,11
24.305,2,-16,26,27,-5,-18,-4,4
24.31,-3,-1,0,-1,-1,-6,-3,0
24.315,-3,-3,2,1,-15,-4,-4,-3
24.32,-1,1,-3,4,19,8,16,13
24.325,-9,4,-13,1,9,17,-7,-12
24.33,2,-6,9,-7,-4,-3,0,-9
24.335,3,-15,12,9,3,1,-7,0
24.34,-2,-1,-7,-5,-13,-19,-5,-8
24.345,0,6,-5,12,2,7,18,4
24.35,-1,1,-5,-24,9,9,5,-7
24.355,-1,4,-4,26,-4,-9,-7,2
24.36,3,0,9,-1,-4,-9,2,28
24.365,-8,-6,-14,-26,-5,-4,-12,-73
24.37,-1,2,-1,-18,-11,-1,6,2
24.375,2,4,3,-1,14,19,9,7
24.38,0,0,-4,5,0,-2,-5,-17
24.385,0,3,3,20,0,2,3,19
24.39,0,-5,-12,-12,-9,-18,1,-1
24.395,-4,3,-4,-8,-5,-9,8,-6
24.4,-5,-5,-3,-1,-2,-11,-46,-15
24.405,1,3,2,6,5,26,8,8
24.41,0,1,9,3,3,-10,-4,9
24.415,3,1,1,-3,3,-1,-2,14
24.42,-2,-3,-9,-19,-5,-4,15,3
24.425,-1,-1,-4,-7,-2,-3,-5,-3
24.43,2,-1,-2,2,-5,3,-1,8
24.435,-7,-2,-6,-7,-2,0,-3,-22
24.44,4,4,3,-1,-1,0,7,-2
24.445,-6,-5,-1,-7,0,-6,8,16
24.45,0,-3,-2,22,6,4,-30,0
24.455,-2,0,-1,-6,-2,-7,-2,-7
24.46,4,-1,-4,-2,-4,0,2,-1
24.465,0,2,2,6,0,-7,1,17
24.47,2,3,2,-3,4,14,31,-51
24.475,2,1,0,0,2,-1,-49,34
24.48,-3,-2,-9,-4,-4,-1,2,0
24.485,3,-18,36,7,3,-2,-4,-2
24.49,4,1,2,1,-2,-2,17,31
24.495,-10,-3,-7,-3,-8,-7,-36,-93
24.5,-4,0,-3,-1,1,0,16,7
24.505,9,7,-9,-4,-1,-3,-11,27
24.51,-11,-4,-5,1,-3,0,-3,-18
24.515,3,1,12,2,4,7,19,11
24.52,-6,-5,-6,-2,-3,-7,-12,-3
24.525,-3,2,-8,2,1,-3,1,-4
24.53,2,-1,3,-6,1,2,-2,-1
24.535,-2,3,-6,-5,-3,2,13,12
24.54,-4,-7,-9,1,0,-6,0,-8
24.545,3,2,-12,-8,-2,0,5,12
24.55,-8,-3,-4,-19,-9,-8,-17,-31
24.555,3,-3,-6,2,0,0,16,65
24.56,2,1,11,7,3,6,27,1
24.565,-3,-1,-9,-4,-1,-3,-54,-19
24.57,-3,-2,1,-3,1,-4,-11,-5
24.575,2,-2,-2,2,-1,1,9,15
24.58,-3,1,5,-1,-3,-1,5,-2
24.585,-1,3,-3,1,-3,1,11,-9
24.59,-2,2,2,2,0,-6,-6,4
24.595,3,0,3,-4,-1,-1,8,-1
24.6,-5,0,-1,1,-1,3,-7,9
24.605,0,2,2,5,3,0,13,1
24.61,-2,-7,-10,-11,-7,-4,-11,-13
24.615,5,-4,-3,-1,-1,-2,12,-7
24.62,-4,17,-32,-13,-4,-6,-20,-18
24.625,-3,3,-4,-4,-5,-1,3,11
24.63,-1,-1,-3,3,1,2,9,5
24.635,2,-1,5,5,-1,0,13,30
24.64,-4,-3,2,0,-1,-4,-33,-83
24.645,0,-3,-2,-1,-1,0,15,2
24.65,-6,14,1,1,1,-3,-34,6
24.655,-11,-5,-4,-1,0,-4,-3,-18
24.66,3,-5,1,-3,-4,-1,15,30
24.665,1,1,5,6,3,5,5,-8
24.67,11,-4,13,3,1,6,8,11
24.675,-4,0,-1,-4,-4,-19,-9,-17
24.68,0,7,2,1,0,1,13,14
24.685,-51,-32,-1,0,-1,-5,-59,-62
24.69,-3,-5,-1,-1,-1,-1,17,32
24.695,6,7,3,7,4,6,19,0
24.7,35,25,7,-5,-3,2,-3,15
24.705,5,6,-6,-1,-6,-9,-5,51
24.71,5,3,1,4,0,2,-1,-30
24.715,11,10,11,0,1,4,37,5
24.72,-17,-25,-8,2,-2,-8,-49,26
24.725,16,17,2,-2,-3,4,-7,14
24.73,-1,-9,2,6,3,0,-6,31
24.735,15,2,-8,-11,-4,1,32,18
24.74,25,12,7,1,1,-1,16,-6
24.745,-20,-19,18,18,8,2,-20,20
24.75,38,13,-7,0,2,14,54,42
24.755,-6,-4,-15,-13,-12,-19,-63,-33
24.76,59,-5,12,0,3,2,5,127
24.765,17,84,15,2,-1,-5,-19,-66
24.77,-126,-53,-25,-7,-7,-2,21,-106
24.775,61,4,40,6,-1,2,-35,42
24.78,-15,76,-20,-14,-9,-8,8,-53
24.785,-28,-77,7,15,6,7,33,25
24.79,69,70,61,7,2,0,16,-2
24.795,57,33,26,6,4,9,15,6
24.8,-100,-106,-35,-8,-7,-15,-41,-36
24.805,68,25,-10,2,-2,-1,28,13
24.81,57,-7,-19,0,4,5,-11,-76
24.815,-62,-12,-26,-7,-3,-5,-15,5
24.82,18,-88,-15,-10,-5,-2,23,61
24.825,65,50,8,-7,-4,0,14,-2
24.83,-19,-62,-4,11,7,2,29,23
24.835,-41,24,-5,-6,-1,-3,-51,20
24.84,86,-5,-17,-7,-3,5,85,-20
24.845,11,0,-7,-3,1,3,23,-47
24.85,127,64,-18,-13,-6,-6,-107,127
24.855,-97,-18,-2,5,6,3,25,-99
24.86,-5,-8,8,6,1,0,31,10
24.865,48,-67,-28,-13,-7,0,49,5
24.87,-76,58,-19,-4,-3,-1,5,-36
24.875,-47,-114,-7,-3,-5,-5,-28,-56
24.88,-128,98,52,4,0,-10,-97,-67
24.885,58,91,49,17,10,13,79,77
24.89,-73,-90,-45,-13,-3,-5,-59,-101
24.895,-53,22,-6,4,-5,-1,24,80
24.9,68,37,24,18,11,24,124,58
24.905,41,59,8,-2,1,-6,-128,-96
24.91,-74,-13,32,17,7,1,-24,18
24.915,-28,9,6,-3,4,13,79,-61
24.92,3,27,18,17,4,-6,-81,48
24.925,-2,-111,-25,8,-3,-17,15,73
24.93,14,31,37,1,0,6,32,6
24.935,34,50,-10,-3,-1,-1,-23,55
24.94,-40,6,21,-7,-3,10,50,-70
24.945,25,-76,-32,-20,-13,-17,10,9
24.95,-43,61,3,-13,-7,-9,18,-62
24.955,-52,28,-9,-7,-5,-6,26,3
24.96,104,-41,4,-7,-1,7,-38,66
24.965,-101,2,-21,-7,0,8,34,-36
24.97,-103,-8,0,-6,-11,-24,-61,-51
24.975,-6,3,-67,-15,0,14,97,-11
24.98,-4,15,-9,12,6,-8,-98,-74
24.985,-18,-13,-10,-4,3,12,29,24
24.99,116,29,13,10,6,4,35,127
24.995,124,58,-3,3,-4,-5,-50,-57
25,-98,-40,-26,-23,-16,-21,-9,-97
25.005,-67,-7,9,-11,-9,-6,-66,-68
25.01,-81,-50,0,6,3,2,47,14
25.015,116,85,7,8,5,0,-56,19
25.02,42,64,21,1,-2,2,86,-13
25.025,-8,74,-11,-17,-4,1,-4,-114
25.03,82,-88,-39,-18,-16,-24,26,61
25.035,51,-100,26,2,1,0,-39,7
25.04,-21,77,17,3,-1,-3,36,-36
25.045,-53,-17,3,26,7,-7,-27,-35
25.05,127,104,18,9,5,12,34,-12
25.055,-93,-32,10,9,3,-2,-7,-42
25.06,43,-106,-34,-12,-7,-6,-16,31
25.065,106,28,-34,1,-1,3,37,68
25.07,66,-6,4,3,2,4,3,72
25.075,-46,-90,-16,5,0,2,-6,-85
25.08,97,96,0,8,4,-5,-50,97
25.085,-111,-86,-56,-35,-23,-18,-17,52
25.09,9,4,14,-2,-3,0,4,21
25.095,-31,88,-9,-13,-8,-1,19,-50
25.1,24,68,29,14,9,4,-53,71
25.105,-10,12,7,8,3,-6,-41,-69
25.11,-38,-81,-62,-28,-9,-5,-4,-5
25.115,-1,6,5,6,0,-5,58,94
25.12,-123,-66,-21,-8,-1,0,-76,-100
25.125,41,16,12,4,-1,1,20,33
25.13,21,80,5,2,-1,2,15,-33
25.135,119,55,22,16,10,4,-22,15
25.14,-75,-65,-14,2,-1,0,40,-19
25.145,127,72,39,5,8,8,12,124
25.15,-44,-29,-19,-1,-5,-5,-30,-48
25.155,-41,-96,-10,5,-1,-3,15,27
25.16,58,16,-2,-11,0,4,18,-12
25.165,-19,-6,-14,-15,-10,-8,-50,-6
25.17,-76,-26,-10,1,-3,-2,0,7
25.175,-48,-25,-34,-9,-7,-8,-5,26
25.18,52,8,-4,8,4,4,28,-76
25.185,12,44,17,2,1,2,-4,-60
25.19,25,11,35,7,2,2,14,73
25.195,60,-17,21,-7,-3,1,-24,-18
25.2,12,-33,-5,-1,-3,3,46,42
25.205,-17,-21,5,-4,0,-2,-25,12
25.21,-28,93,3,5,2,-4,-56,-86
25.215,12,-41,-10,-4,-3,-7,-15,24
25.22,-3,11,-13,-10,-5,1,19,6
25.225,-22,-14,-6,2,2,4,40,35
25.23,17,-32,-2,-5,-4,-5,-26,38
25.235,-15,25,0,0,3,4,-9,21
25.24,19,17,-6,-3,-2,-3,3,-69
25.245,-60,56,9,3,1,-2,13,10
25.25,25,-13,-3,-5,-8,-6,10,-21
25.255,54,48,11,-3,-1,6,3,21
25.26,-75,-80,-25,-10,-6,-9,-3,-12
25.265,15,-15,7,-5,-7,-5,13,25
25.27,-13,10,-4,3,4,2,6,-15
25.275,61,12,4,1,-1,-3,-9,23
25.28,-64,-52,2,3,3,6,38,64
25.285,27,-33,-10,-6,0,-4,-44,2
25.29,-27,-22,-3,0,1,0,6,-18
25.295,-28,18,-2,-2,-3,-5,2,-27
25.3,4,-4,-1,-7,-4,-3,-12,2
25.305,-11,-17,-3,-1,-4,-2,6,-55
25.31,19,-1,1,-6,-1,0,5,31
25.315,-11,-12,-12,-2,0,-2,-7,-6
25.32,18,12,7,6,4,0,-5,-2
25.325,-43,-8,6,4,1,1,6,-6
25.33,-6,-6,6,4,-1,1,0,-36
25.335,-7,7,1,-3,-1,-1,9,-9
25.34,2,0,-8,-1,-4,-5,-18,-14
25.345,14,-6,6,3,0,1,11,4
25.35,8,3,1,5,3,1,3,-4
25.355,-10,-6,8,-5,-1,-1,-2,-12
25.36,26,15,6,1,-2,-1,-8,30
25.365,-9,-6,-7,0,0,-1,-2,-2
25.37,-11,-8,-4,-4,-4,-5,5,-16
25.375,-20,-3,1,0,2,-4,-9,-8
25.38,12,6,-2,1,1,1,-7,-7
25.385,-5,7,9,2,1,0,9,-1
25.39,-10,-5,13,2,0,0,-2,-15
25.395,6,-1,-1,-2,-4,-1,0,-1
25.4,14,5,6,1,-1,-3,-8,5
25.405,-9,-3,-8,-5,-3,-1,0,-5
25.41,-1,-3,-18,-6,-5,-3,-3,3
25.415,-5,-1,-2,-6,-4,-2,-3,-6
25.42,1,2,-2,-3,1,-2,-2,-2
25.425,-4,-1,-2,3,-4,1,4,0
25.43,-3,-7,-3,2,11,3,-1,-11
25.435,-2,-1,-1,-8,-8,-1,1,-2
25.44,-1,-1,-14,-6,-5,-4,-7,-6
25.445,5,-2,6,0,-1,-1,3,2
25.45,1,-2,3,-3,-12,-4,-2,-1
25.455,-4,-7,4,3,-1,-3,-2,-3
25.46,6,4,8,6,17,5,2,9
25.465,-3,-3,0,-5,2,4,1,1
25.47,-4,-3,-4,1,7,3,3,-4
25.475,-4,-2,-6,-5,1,-3,-1,-2
25.48,-1,3,-4,0,-7,-1,-4,-3
25.485,0,-2,0,0,-2,-4,1,-2
25.49,-2,-5,-9,0,-10,-5,0,-3
25.495,1,-2,3,8,-2,-2,0,-2
25.5,2,-1,0,-5,-8,-3,-3,1
25.505,-3,-6,-8,-12,-2,-3,-1,-3
25.51,0,0,2,-1,-4,4,0,2
25.515,-2,-1,-7,-12,2,-3,-2,-4
25.52,-1,-2,-20,3,9,4,-2,-2
25.525,-7,-1,-6,-1,-5,-2,-3,-1
25.53,0,-4,2,7,1,-2,2,-2
25.535,0,1,1,13,-8,-8,-3,-2
25.54,-1,2,-6,-8,-4,0,0,0
25.545,3,2,-1,-5,-21,-8,0,0
25.55,0,1,0,-14,13,-3,-2,-1
25.555,-3,-8,-8,-11,1,14,-1,-2
25.56,-1,-3,0,-7,12,9,3,1
25.565,1,2,10,13,-6,-5,-1,0
25.57,0,0,6,37,25,-3,0,0
25.575,-6,-4,-16,-27,-35,-14,-4,-3
25.58,0,-1,11,11,16,0,-3,-1
25.585,-1,-6,-6,-18,-16,-1,0,0
25.59,-4,-2,-14,-12,-13,-6,-7,-6
25.595,-1,-7,1,9,9,8,4,1
25.6,1,1,1,-7,2,1,1,1
25.605,0,13,7,42,40,4,2,0
25.61,-1,0,14,-20,-39,-5,-2,-1
25.615,-3,-2,-2,-15,22,2,-3,-3
25.62,0,-5,-8,-86,-15,-8,-1,0
25.625,-7,-11,-19,-25,-7,0,-4,-4
25.63,0,-1,4,31,14,4,0,-2
25.635,2,3,9,43,-14,-3,1,2
25.64,4,8,5,27,5,-4,4,3
25.645,-6,-6,-17,-35,2,-8,-6,-6
25.65,-3,-3,-10,-30,-15,1,-2,-3
25.655,2,3,16,38,-16,-10,-1,0
25.66,-2,-7,1,38,18,-6,-5,-4
25.665,0,4,-14,-18,15,13,3,-3
25.67,-1,5,-1,4,17,11,4,-1
25.675,-5,-2,-23,-46,-13,-6,-4,-4
25.68,-2,14,7,-7,-18,-12,-8,-4
25.685,-1,-18,-1,-2,-22,-9,-3,-3
25.69,-5,-2,-17,-22,-4,-4,-6,-4
25.695,6,9,29,103,33,7,5,3
25.7,-3,0,-23,-97,-27,-4,-5,-3
25.705,-5,-10,-19,-34,-15,-4,-3,-3
25.71,2,4,7,19,16,5,3,1
25.715,-1,-6,-15,-31,-4,-3,-1,1
25.72,-1,-11,14,50,-12,-4,2,5
25.725,11,16,33,-2,34,12,5,38
25.73,-8,-11,-16,-58,-26,-10,-8,-25
25.735,-9,-8,-16,2,-14,-9,-3,-2
25.74,3,0,8,41,8,8,-7,-1
25.745,-1,1,12,8,-6,-4,2,4
25.75,15,9,75,106,46,10,18,21
25.755,-7,-19,-42,-111,-43,-11,-13,-17
25.76,-1,-2,20,-27,-3,4,3,5
25.765,1,3,20,104,12,3,3,-8
25.77,-3,-2,-15,19,-13,-15,-3,3
25.775,2,-4,20,90,25,9,8,-9
25.78,6,-1,0,-78,-14,5,0,9
25.785,1,11,13,18,17,5,9,26
25.79,-19,-20,-42,-24,-45,-17,-21,-55
25.795,1,4,3,-67,-12,-4,-3,15
25.8,-6,-1,-14,38,-4,-7,-4,-5
25.805,5,4,10,40,24,12,15,15
25.81,5,3,-8,-28,2,5,2,24
25.815,-4,3,7,5,9,3,1,-39
25.82,0,-3,-1,27,6,2,0,9
25.825,-2,6,-39,-44,-14,-4,-2,-18
25.83,-2,-14,-21,-9,-13,-10,2,37
25.835,-10,4,6,34,11,-3,-10,-39
25.84,13,-1,4,21,5,-1,-8,-4
25.845,-10,-9,15,-53,-1,-3,0,-13
25.85,-7,-12,-21,29,-21,-7,-5,-2
25.855,3,0,-11,-12,9,11,14,29
25.86,-1,1,-9,20,8,7,6,-1
25.865,-4,-4,5,16,-7,-19,-15,-8
25.87,4,9,10,-43,-2,-1,-2,-10
25.875,4,-3,13,-33,5,0,1,14
25.88,-5,-3,-6,28,4,13,5,-8
25.885,11,3,-3,-27,9,6,2,-1
25.89,-5,0,3,-21,-10,-5,-3,-4
25.895,-4,-4,-17,-19,-11,-7,-7,2
25.9,-3,1,6,4,1,-6,2,0
25.905,-7,-9,-23,-5,-25,-8,-3,6
25.91,3,-4,18,18,24,8,0,-35
25.915,2,-6,14,-7,5,2,-3,11
25.92,-4,-4,-9,32,-7,-7,9,10
25.925,0,1,9,-21,-4,1,-9,-32
25.93,-5,-6,-35,26,-1,-4,0,11
25.935,1,-1,-14,-34,-6,2,-1,11
25.94,-1,-1,5,-10,0,-1,0,-5
25.945,-1,-5,-5,-4,-3,-1,1,3
25.95,-1,0,2,3,0,-2,-2,4
25.955,9,8,21,46,13,2,4,2
25.96,-11,-3,-15,-42,-5,-1,0,8
25.965,-4,-4,-15,-13,-6,0,-4,-14
25.97,1,-3,2,46,-12,-15,-6,-3
25.975,-2,5,3,16,1,-1,-4,0
25.98,-4,-10,31,11,-5,-9,-4,-8
25.985,-1,-1,1,-1,-4,4,-3,-2
25.99,0,6,10,-18,21,8,1,1
25.995,1,-3,3,6,13,-1,0,5
26,-1,3,0,49,2,1,-1,-4
26.005,-3,-5,-1,-71,-12,3,3,1
26.01,1,-3,-15,-19,-3,5,5,7
26.015,-7,-1,-11,35,-15,-13,-5,-5
26.02,-3,-5,-15,-31,-11,-7,-2,-8
26.025,0,-1,5,33,3,-5,-14,-11
26.03,3,12,12,-9,16,9,5,6
26.035,1,-1,-1,-22,3,4,4,2
26.04,0,2,-1,7,3,-1,0,0
26.045,3,-1,4,28,-3,-2,1,-8
26.05,0,1,2,-28,-7,-1,4,23
26.055,-6,-1,-3,-5,6,5,-9,-56
26.06,-3,1,2,25,1,0,4,2
26.065,-2,9,-17,38,-2,-4,-4,-6
26.07,4,-3,-11,-105,-8,1,-4,-20
26.075,-5,-8,-13,20,-10,-4,2,15
26.08,3,1,0,6,-2,-1,-4,0
26.085,-2,1,3,-8,-3,-5,-3,-4
26.09,-4,0,2,46,7,2,1,7
26.095,5,2,1,-11,5,3,5,17
26.1,-3,-1,-17,-32,-3,-5,-7,-13
26.105,-4,-8,-8,6,-10,-3,0,11
26.11,6,-4,17,-14,20,9,5,2
26.115,-4,-6,-5,32,-16,-9,-5,0
26.12,-4,-6,-11,-18,-8,-6,-5,-5
26.125,0,0,2,26,2,2,4,-3
26.13,-3,2,0,-27,-4,0,-12,-10
26.135,-2,0,10,27,2,2,2,3
26.14,1,-3,5,4,3,-1,-1,2
26.145,2,-2,3,10,-4,-3,5,4
26.15,-1,1,-3,0,-2,-2,3,-3
26.155,3,6,11,5,12,5,-4,9
26.16,-1,3,3,-9,-5,2,3,1
26.165,-6,-10,-22,-23,-6,-2,-5,-1
26.17,-7,-2,-1,29,-8,-8,-5,-9
26.175,10,-12,16,-20,-5,-12,2,7
26.18,-10,-2,-1,-6,0,0,1,26
26.185,-2,0,5,-7,5,0,-11,-56
26.19,-2,-2,5,41,3,1,0,3
26.195,3,2,-17,-37,3,8,1,4
26.2,5,3,2,24,-1,2,1,7
26.205,-2,-4,6,11,-3,-6,-1,14
26.21,-2,1,-10,-31,-2,2,2,1
26.215,-6,0,-1,25,-9,-4,-2,-7
26.22,3,1,5,8,0,-1,-4,-12
26.225,-3,3,2,-10,2,-6,-1,8
26.23,0,2,-5,14,-8,-2,-2,-5
26.235,-1,2,0,-14,3,1,-1,7
26.24,0,0,-4,-14,2,-1,-4,-18
26.245,-1,-4,-3,2,0,4,3,14
26.25,0,-1,1,-3,2,-2,2,9
26.255,-1,2,4,1,3,1,-2,-2
26.26,-2,-3,-3,18,-1,-8,-6,-6
26.265,-4,-8,-17,-73,-24,-6,-6,0
26.27,-2,-4,1,10,-2,0,-3,-4
26.275,-5,-9,16,-4,-7,-1,1,-3
26.28,7,-15,27,-13,14,9,5,1
26.285,-2,-3,-8,25,4,0,-1,6
26.29,-1,-4,-2,-10,-11,-6,-4,2
26.295,-5,3,-9,11,7,2,0,-2
26.3,8,4,-7,-29,4,1,1,4
26.305,-13,-3,-3,-35,-1,0,1,-3
26.31,1,-4,7,41,-7,-1,-2,-1
26.315,-2,-2,12,-40,-2,-2,-2,-2
26.32,2,4,17,42,8,1,2,-2
26.325,-3,-6,-22,-31,-9,-5,-4,2
26.33,-9,-4,-15,-20,-9,-6,-3,-8
26.335,-1,2,-12,-11,-3,1,0,0
26.34,-4,1,-5,1,7,2,1,0
26.345,6,4,23,42,9,3,2,4
26.35,-5,-4,-4,-1,-15,-8,-2,-2
26.355,3,5,9,35,6,0,0,0
26.36,-4,-4,-30,-88,-13,-3,-5,-3
26.365,1,4,11,58,13,2,2,-1
26.37,2,3,1,8,12,5,2,1
26.375,-1,0,-12,-16,-6,-2,-2,-1
26.38,0,3,9,32,-2,-2,0,-1
26.385,0,-6,-6,-8,-6,-1,-1,0
26.39,12,3,3,-14,-2,-2,0,3
26.395,-11,-1,-4,-4,-2,-4,-3,-7
26.4,-2,-1,-6,-11,-5,-1,-2,-1
26.405,-1,-1,6,16,1,3,3,3
26.41,3,2,3,4,16,5,1,0
26.415,1,-3,-13,-4,-6,-5,-3,0
26.42,-2,-8,23,31,-2,-4,-3,-1
26.425,2,2,-3,-48,-2,1,0,2
26.43,-6,-1,3,-4,-3,-3,-5,-4
26.435,-3,-6,-9,17,0,0,-2,-2
26.44,-5,-4,-19,-37,-8,0,-3,-5
26.445,4,3,12,26,5,-6,3,2
26.45,-2,3,5,12,2,1,0,-2
26.455,1,4,-1,2,-3,-4,-4,-1
26.46,-2,-2,-14,-47,-17,-10,-1,11
26.465,-2,-1,0,21,-3,4,-6,-19
26.47,-1,-4,-11,-17,7,-1,1,3
26.475,-2,-3,0,4,-8,-1,0,3
26.48,3,2,0,50,16,5,-1,-9
26.485,-11,-1,-9,-12,-2,-2,-1,11
26.49,-3,-8,-1,-10,-9,-3,-2,-5
26.495,4,-3,4,4,5,5,7,1
26.5,-3,0,-9,-6,-5,-5,-14,1
26.505,3,1,-8,-8,-4,-5,-5,1
26.51,-4,2,-1,13,-3,-3,-3,-6
26.515,0,1,6,-12,4,0,3,4
26.52,-2,-4,-3,1,0,11,4,-2
26.525,-1,-8,-6,-3,-4,-10,0,-3
26.53,-2,1,2,-2,-2,-1,-3,-7
26.535,2,0,2,-7,0,-2,-1,1
26.54,-1,4,-5,-9,-5,-1,-3,-7
26.545,0,1,8,13,3,-2,-4,-2
26.55,1,-1,0,9,1,0,3,9
26.555,-5,-3,-13,-21,0,4,-2,-2
26.56,-3,-2,-3,15,-8,-8,-1,-2
26.565,-2,-1,-2,7,3,1,0,-4
26.57,3,-1,-7,-14,-2,-2,0,38
26.575,3,3,2,0,4,1,-6,-12
26.58,-16,-5,-1,2,-5,-2,-2,-4
26.585,4,3,12,11,5,2,3,0
26.59,0,-3,-6,-5,-9,-1,7,12
26.595,0,-2,2,14,1,4,5,-1
26.6,5,1,-1,-8,0,-6,-38,-23
26.605,18,3,5,14,4,2,4,13
26.61,-23,-9,-9,-13,-9,-4,-4,-24
26.615,-2,-1,-8,-3,-6,-3,2,0
26.62,0,-3,-1,11,-1,-9,10,-2
26.625,2,3,15,54,9,4,-2,9
26.63,7,1,-1,-64,1,4,0,-8
26.635,0,-7,-8,4,-5,-7,-1,0
26.64,-4,-4,-7,-3,-8,-1,3,4
26.645,-2,-2,-1,-11,1,2,0,-3
26.65,5,-3,-1,8,4,2,3,-2
26.655,-12,4,7,-15,-1,-2,-6,-3
26.66,2,2,-1,-4,-5,-4,4,1
26.665,-4,0,-5,-10,-2,-1,3,29
26.67,-7,0,5,15,8,6,-9,-69
26.675,3,0,-4,-6,1,-2,3,10
26.68,1,1,-2,5,-5,-2,-5,-9
26.685,-5,-4,-5,-21,-7,-2,8,7
26.69,-3,0,3,18,0,-7,-12,4
26.695,4,5,9,28,11,3,0,0
26.7,-3,-6,-17,-53,-13,-4,7,1
26.705,-6,-6,-11,-21,-12,-5,-6,-14
26.71,-1,0,0,5,1,-2,4,9
26.715,0,0,-5,-4,-1,2,-2,-6
26.72,3,3,10,20,8,-11,1,6
26.725,-4,-3,-2,1,-1,2,-1,-8
26.73,1,0,-5,-7,-4,-2,0,5
26.735,-3,-4,1,-3,-2,-1,-3,5
26.74,4,-1,2,8,4,6,4,4
26.745,-10,2,-5,-11,-4,-1,-4,-13
26.75,0,0,1,11,-1,-3,1,3
26.755,0,-3,-4,-15,-4,-3,-5,-4
26.76,1,-1,0,8,2,2,2,2
26.765,1,-3,-5,-5,-3,-2,-3,-6
26.77,0,1,2,4,-1,1,-2,7
26.775,-2,1,-2,-14,-3,-3,-2,-4
26.78,-3,-2,-3,14,1,-1,-3,-1
26.785,0,-1,3,-18,-8,-2,0,-2
26.79,-2,-5,-9,-3,0,-5,-1,0
26.795,4,0,-3,8,4,0,0,-3
26.8,-2,2,11,6,12,6,3,0
26.805,-3,-5,-9,-20,-9,-4,-4,-5
26.81,-1,-2,-1,5,-3,-1,0,3
26.815,-4,-3,-2,-5,-5,-5,-2,-3
26.82,-1,-2,-2,8,0,2,0,3
26.825,0,0,4,5,1,-3,-4,-4
26.83,0,1,0,-5,-1,-1,0,1
26.835,-2,-4,-2,11,-2,-2,-3,1
26.84,0,-1,-1,-3,-2,0,1,1
26.845,6,-1,-4,-9,1,1,1,2
26.85,-5,1,1,8,1,0,-2,-2
26.855,-4,-2,-5,-7,-5,0,-2,-7
26.86,-6,-3,-2,-8,-3,-4,-1,-3
26.865,1,-1,-7,0,-6,-10,-4,-7
26.87,2,-1,3,13,4,6,0,3
26.875,0,-2,-4,-13,8,6,0,1
26.88,-1,-3,-7,-29,-1,3,3,2
26.885,-4,-2,2,-2,-1,7,-3,-4
26.89,0,0,7,24,-8,-23,-1,-3
26.895,-2,-3,-6,-10,-9,-6,-3,0
26.9,1,1,4,22,-1,-3,-2,-2
26.905,0,-1,-3,-7,8,9,2,1
26.91,2,-1,1,3,6,6,1,-2
26.915,-2,-2,-3,-17,-6,-5,0,-2
26.92,-5,-5,-7,-7,-5,-3,-1,-2
26.925,-3,4,4,12,5,-5,-2,-2
26.93,-1,0,-3,-14,-3,1,-3,-3
26.935,1,-1,2,8,3,-1,-1,3
26.94,-1,0,1,0,-3,0,-1,-2
26.945,-3,-5,-2,1,-4,-5,1,0
26.95,7,3,-1,-2,0,1,-1,6
26.955,-12,-3,-3,-1,-3,-2,-4,-11
26.96,14,-2,0,-4,0,-1,0,7
26.965,-20,7,-2,6,0,-3,-4,-6
26.97,3,-2,-4,-5,0,0,1,1
26.975,-2,-4,0,0,-1,0,1,0
26.98,-5,-2,0,3,0,2,2,-1
26.985,4,-3,0,6,0,-2,1,1
26.99,4,-1,-1,-7,-5,-2,-2,5
26.995,-20,0,1,-4,-2,-1,-4,-10
27,-4,5,0,-2,2,1,3,0
27.005,32,7,-7,-5,-5,-3,-3,13
27.01,-34,-21,-4,-4,-3,-2,-3,-10
27.015,7,-3,-1,3,1,0,-1,0
27.02,-6,2,-3,1,0,0,-2,-3
27.025,17,1,4,0,-4,-1,0,-5
27.03,9,14,1,6,7,3,0,-2
27.035,-7,-31,-4,-1,-5,-4,0,4
27.04,34,19,4,3,1,2,1,5
27.045,-49,-19,-4,-4,-4,-3,-2,-15
27.05,33,14,-2,-3,-2,0,-2,5
27.055,11,1,3,1,-1,-3,0,23
27.06,-25,-3,1,0,-3,-3,-5,-34
27.065,9,-4,2,0,1,1,4,9
27.07,76,-15,2,-3,0,4,9,30
27.075,-84,18,-4,-5,-5,-9,-14,-47
27.08,-25,-24,-5,-3,-5,-5,-6,-21
27.085,-43,-8,11,-3,-3,-1,-3,-5
27.09,-18,-21,0,-1,0,1,4,14
27.095,58,23,-6,-5,1,3,9,8
27.1,22,-10,-9,-2,0,0,1,17
27.105,29,-4,0,3,1,0,1,12
27.11,-38,21,-7,-1,-5,-5,-10,-29
27.115,34,22,10,10,1,2,2,12
27.12,25,22,-2,-5,0,-1,1,-4
27.125,-15,-61,-23,-9,-4,-8,-11,-26
27.13,-14,-11,-4,-8,1,-1,-4,-2
27.135,43,42,7,2,-1,0,-1,6
27.14,-60,-38,-14,4,0,3,2,9
27.145,-28,20,7,4,-1,-6,-6,-8
27.15,92,48,4,-7,-3,-4,-5,25
27.155,-59,51,7,6,5,0,-4,-65
27.16,-65,-81,-19,-5,-6,-4,-4,2
27.165,42,66,-9,-5,-1,-1,5,33
27.17,-66,-46,-7,-4,-7,-9,-16,-71
27.175,127,9,7,6,-1,-1,5,54
27.18,-61,73,10,3,1,-1,-6,-52
27.185,-50,-83,-9,4,1,0,-1,4
27.19,9,-1,10,-9,-3,3,10,43
27.195,16,-18,17,2,1,0,-4,-27
27.2,55,2,-6,-5,-5,-4,0,16
27.205,17,-39,6,8,5,1,6,14
27.21,-72,93,-7,-3,-4,-3,-3,2
27.215,-30,-22,-7,-4,-4,-2,0,1
27.22,20,-27,-7,-10,-4,-2,1,21
27.225,-43,56,-8,-10,-3,1,-4,-49
27.23,17,-25,-38,10,1,-5,-6,9
27.235,-121,6,7,-12,-5,-1,-2,-32
27.24,35,-12,-2,2,-1,-6,-11,-12
27.245,88,78,20,6,2,2,3,40
27.25,-78,-97,-21,-4,-3,-2,0,-19
27.255,27,25,6,8,3,1,-8,-4
27.26,-14,-21,-7,-10,-1,-1,-3,25
27.265,66,22,6,6,3,-1,0,17
27.27,-22,-42,-13,-10,-6,-4,-6,-51
27.275,40,-23,-3,7,2,2,4,33
27.28,29,22,19,6,4,3,7,31
27.285,-10,16,5,1,2,5,10,6
27.29,-55,10,15,-2,-2,-5,-16,-49
27.295,-77,-101,-33,-10,-6,-4,1,-34
27.3,54,99,-7,0,-1,0,-4,-15
27.305,-46,-68,-39,-25,-15,-11,-2,46
27.31,91,46,22,7,5,4,6,22
27.315,76,-25,-16,-14,-8,-7,-5,64
27.32,-35,62,-7,7,5,2,-3,-20
27.325,50,-55,29,19,12,8,11,17
27.33,-88,18,4,-1,1,5,10,1
27.335,69,-59,-14,2,-1,-3,-9,14
27.34,114,-23,16,11,6,5,19,65
27.345,-66,-27,-30,0,-3,-8,-20,-114
27.35,85,-6,2,-7,5,5,9,7
27.355,-100,8,-9,-2,-2,-2,-8,-55
27.36,-76,-24,20,7,1,-5,-12,-28
27.365,-51,9,6,3,2,7,0,-39
27.37,89,64,39,9,7,9,18,48
27.375,-45,-56,-16,-14,-8,-7,-8,-37
27.38,-43,-3,55,6,-2,0,4,-24
27.385,-109,8,-37,-17,-13,-12,-16,5
27.39,-2,22,-21,-12,-8,-2,9,42
27.395,127,-24,44,22,14,14,20,72
27.4,-110,63,-19,-17,-11,-13,-25,-11
27.405,57,-6,37,28,15,10,21,43
27.41,74,-45,4,-2,-5,-6,-8,52
27.415,-60,72,-11,-28,-5,-6,3,0
27.42,117,-79,-15,-1,1,7,14,101
27.425,-65,-79,-30,-25,-15,-10,-19,-86
27.43,100,95,6,15,3,-3,-11,18
27.435,-111,-29,-41,-24,-12,-4,0,-89
27.44,-29,41,-2,6,3,-1,-8,-71
27.445,114,20,19,-5,1,2,4,5
27.45,-16,-54,-23,-17,-5,2,6,-12
27.455,19,76,16,2,-5,-3,-2,70
27.46,34,69,-1,-5,3,6,1,-76
27.465,37,-41,-22,-4,-1,2,-2,-6
27.47,53,24,-9,-6,-2,-6,-9,-16
27.475,127,97,8,18,3,9,23,104
27.48,25,-78,-42,-53,-20,-15,6,-11
27.485,-41,97,13,12,6,-3,-37,-6
27.49,97,-1,25,19,8,11,27,91
27.495,-83,-46,-19,17,6,-3,-8,8
27.5,80,-119,-23,4,0,0,-1,2
27.505,50,-42,-5,3,-1,-5,4,9
27.51,-55,-18,-3,-15,-10,-8,-14,-75
27.515,35,24,20,10,-1,-1,-8,-88
27.52,20,-58,-16,0,-4,0,5,70
27.525,86,59,20,0,2,-2,-3,-7
27.53,6,10,10,38,16,9,2,-24
27.535,25,-15,-3,-2,-1,-2,-15,66
27.54,-29,24,2,3,-1,0,-2,-81
27.545,-98,1,-17,-12,-3,1,16,55
27.55,21,-12,-3,-1,-4,-4,-14,9
27.555,-67,-42,-39,-30,-10,-8,-13,-40
27.56,-67,-31,-1,14,4,4,11,0
27.565,60,55,18,2,-2,5,29,70
27.57,24,12,26,2,3,4,10,54
27.575,93,45,45,6,-1,-5,18,55
27.58,-39,104,5,-8,-5,-4,-35,-7
27.585,11,-20,-19,-9,-5,-3,-2,-20
27.59,-94,43,2,1,3,2,6,-48
27.595,-75,-57,-4,-8,1,0,-6,-37
27.6,-10,69,24,9,1,-1,27,41
27.605,34,34,3,-16,-5,-2,-10,-11
27.61,-41,29,-1,5,-5,-9,-21,-54
27.615,-6,20,3,-4,-2,0,-1,29
27.62,-121,13,-30,-12,-2,-5,-15,-85
27.625,45,5,13,7,-4,-2,6,57
27.63,-82,-2,1,-7,-2,0,-4,-53
27.635,56,65,14,1,5,8,18,86
27.64,127,-24,4,4,3,3,2,-6
27.645,-19,82,12,6,-4,-6,-13,-70
27.65,-50,-23,-16,-7,-2,-4,-13,-70
27.655,55,2,-12,-9,-5,-6,-5,26
27.66,65,76,-25,-6,-4,-5,-19,66
27.665,-76,-29,-15,-1,-1,3,19,-16
27.67,78,-12,-14,14,1,-1,1,26
27.675,-101,6,-14,-9,-2,-2,-1,-78
27.68,21,-55,1,4,0,-2,7,24
27.685,-49,-55,-13,-2,-6,-11,-30,-67
27.69,6,-12,-19,-10,-3,-1,6,25
27.695,-26,-29,1,11,7,0,-9,-22
27.7,102,-18,26,14,6,8,21,81
27.705,22,15,27,6,4,6,4,56
27.71,25,44,32,13,6,3,5,-1
27.715,-40,-31,-13,-8,4,8,11,-3
27.72,73,49,20,9,-2,-3,-7,3
27.725,-22,-35,-6,-1,-4,-1,7,11
27.73,-52,-94,-19,-18,-6,-2,-16,-70
27.735,62,41,6,11,-3,-7,-11,-18
27.74,-28,-48,2,7,2,7,12,13
27.745,54,7,-8,-5,3,-1,26,102
27.75,96,4,-11,-11,-4,-1,-41,-11
27.755,-54,90,2,-3,-4,-9,-20,-78
27.76,40,-36,-6,-5,-2,-6,-9,6
27.765,-16,11,8,0,2,1,10,32
27.77,-13,34,-1,1,-4,0,17,39
27.775,33,-127,-25,-3,-7,-4,-9,-27
27.78,-88,15,17,4,2,0,6,-20
27.785,24,-2,2,-5,2,3,-4,-39
27.79,-44,-56,-34,-9,-12,-11,3,39
27.795,-15,4,19,18,5,4,1,-7
27.8,-113,-63,-29,-28,-9,-8,-3,-28
27.805,25,-8,4,3,1,-3,-7,6
27.81,-33,-49,4,0,-2,-1,7,48
27.815,60,50,1,-7,-5,-4,-1,-7
27.82,-56,-22,8,13,3,1,-3,-16
27.825,49,12,-8,-16,-3,0,-7,9
27.83,-10,-65,-8,-4,-9,-10,-5,-41
27.835,-20,-12,9,9,0,-1,5,24
27.84,50,31,0,2,0,2,6,105
27.845,14,96,2,1,1,-2,-18,-101
27.85,-4,26,-26,-10,-4,-4,3,-14
27.855,18,-81,1,7,2,0,3,23
27.86,-17,8,-3,-8,-4,-1,-5,-17
27.865,47,-12,1,7,0,3,-3,31
27.87,72,101,36,12,7,6,8,16
27.875,-32,7,36,0,5,5,7,25
27.88,-7,2,-16,-10,-9,-12,-17,-83
27.885,59,14,8,9,2,2,19,24
27.89,-15,24,18,16,4,2,-21,-61
27.895,21,-8,-16,-18,0,-1,-1,66
27.9,-58,48,6,-12,-7,-7,-9,-46
27.905,-30,-44,7,1,2,2,2,6
27.91,11,41,8,1,-2,1,14,17
27.915,33,-39,-3,5,-2,-1,5,-41
27.92,90,70,16,7,4,6,7,46
27.925,68,12,-15,-7,-5,-7,-9,-21
27.93,-90,-14,5,0,-2,-5,-4,-30
27.935,111,50,-33,-4,-5,-3,-3,47
27.94,24,-75,-5,3,1,2,8,-2
27.945,-86,44,24,10,5,1,-2,-41
27.95,29,-43,1,-3,1,-1,-9,-44
27.955,-73,17,-16,11,2,1,11,10
27.96,37,-7,12,4,-4,-4,-23,-6
27.965,-38,-26,-23,-18,-8,-2,-1,16
27.97,62,-39,-10,-8,-2,1,-7,35
27.975,-71,31,-12,2,-1,-3,2,-37
27.98,-35,-33,-8,-5,1,4,10,-12
27.985,-44,2,-4,-3,-5,0,-2,-13
27.99,26,-13,24,2,1,1,7,29
27.995,29,2,25,8,1,5,0,3
28,-5,-27,2,-8,-6,-6,-11,-5
28.005,-91,-45,-1,8,4,0,-12,-19
28.01,-12,13,-24,-4,-8,-9,5,13
28.015,22,13,-7,-13,-3,-2,-4,-13
28.02,-18,4,5,3,-2,-5,-6,-5
28.025,0,-13,-10,-6,-3,0,6,-22
28.03,-38,-14,-10,-3,1,1,-2,-3
28.035,-21,-26,6,-1,-2,-3,-7,-13
28.04,12,44,-1,2,1,-4,1,8
28.045,42,-24,3,6,1,0,-5,5
28.05,-19,11,-8,-7,-3,0,4,28
28.055,14,14,-20,-14,-8,-5,-12,-21
28.06,-18,1,-13,-6,2,1,2,-1
28.065,26,6,3,0,-1,-3,-4,19
28.07,-26,-18,1,-4,0,-2,-1,-2
28.075,-8,-7,3,2,0,-3,1,-13
28.08,10,2,-4,5,-1,-1,1,-1
28.085,2,-9,-3,1,-1,-3,-3,1
28.09,4,12,-3,-15,-4,-1,2,8
28.095,1,-9,-1,2,-1,-2,-5,-11
28.1,8,15,1,0,-1,1,4,13
28.105,17,10,-4,-1,-4,-4,-5,0
28.11,-17,4,8,7,4,1,3,2
28.115,6,6,4,6,-1,-3,-2,3
28.12,-5,-9,0,-5,0,0,-3,-2
28.125,1,-2,-7,-11,-5,-1,-1,-1
28.13,-10,-8,-7,-7,-6,-4,-3,-4
28.135,-4,-4,-2,-3,-1,0,-1,-5
28.14,7,3,-4,7,-1,-2,0,1
28.145,5,-2,4,0,1,0,-1,0
28.15,-2,4,-4,0,1,0,-1,7
28.155,5,-1,-1,-3,-7,-2,-1,-4
28.16,-5,-1,-1,-1,5,1,2,-2
28.165,4,3,-2,-1,0,-1,0,3
28.17,-5,-5,2,7,3,-2,-1,-1
28.175,-2,0,3,6,7,4,3,-2
28.18,1,-2,-1,-13,-12,-4,-2,-1
28.185,-4,-3,-6,-18,-10,-4,-4,-2
28.19,2,5,3,2,11,4,3,1
28.195,0,-3,2,-2,-7,-3,-2,-2
28.2,3,6,3,9,-4,-6,0,2
28.205,3,2,-2,11,8,1,2,-1
28.21,-12,21,-46,-19,6,3,-8,-9
28.215,-1,-8,-9,-13,-2,-4,-3,-1
28.22,-1,-4,1,13,5,0,0,-1
28.225,-1,-2,-2,-20,-10,-9,-4,-1
28.23,-6,-3,-10,-7,-20,-10,-2,-3
28.235,-4,1,0,-1,0,-1,-2,-3
28.24,-1,-1,-10,13,3,2,-2,-2
28.245,-5,-3,-7,-2,-6,-2,-5,-6
28.25,6,-6,7,1,13,9,9,9
28.255,-1,0,-4,-7,-2,2,0,-2
28.26,-1,-4,8,2,-3,-3,1,1
28.265,0,2,5,13,-9,-8,-5,0
28.27,-2,-6,11,9,-5,-7,-3,-2
28.275,0,9,-7,16,17,10,0,-2
28.28,3,-29,22,5,21,12,7,6
28.285,-1,-2,-9,-28,-10,-4,0,0
28.29,-1,-4,4,-3,-34,-13,-4,-1
28.295,-1,-1,-9,-23,-7,-7,-4,-4
28.3,0,10,-3,-9,-1,9,-3,-1
28.305,0,-5,-4,-2,11,4,0,-1
28.31,1,-7,9,2,4,2,1,3
28.315,-1,-1,6,5,0,-2,-2,-2
28.32,-2,8,12,73,2,-5,-2,-2
28.325,6,5,24,-23,9,8,7,5
28.33,-7,-7,-44,-95,-34,-17,-8,-7
28.335,-2,-7,-1,3,19,6,0,-2
28.34,-2,0,-7,-8,5,10,-1,-2
28.345,2,5,8,23,-1,-5,0,0
28.35,2,3,27,83,11,-2,1,1
28.355,-2,-5,-12,-32,-21,-5,-4,-2
28.36,-2,-3,-9,-27,-10,-7,1,-2
28.365,0,1,11,51,8,0,-3,-1
28.37,-5,6,3,-14,-2,4,-1,-3
28.375,-2,-3,-28,-27,-1,-6,0,-2
28.38,2,9,26,-11,-13,-1,-2,-1
28.385,1,-1,10,4,17,0,-1,0
28.39,7,9,41,19,5,1,4,6
28.395,-4,-4,2,53,-6,9,-8,-4
28.4,3,6,-4,-1,14,6,6,2
28.405,-8,-14,-39,-23,2,6,-3,-6
28.41,1,-5,4,33,11,8,4,3
28.415,-4,-8,-7,-100,-34,-14,-6,-4
28.42,-4,-6,-14,-29,-45,-25,-9,-3
28.425,0,2,12,56,11,-4,-3,-1
28.43,-3,-7,-25,8,18,20,3,-2
28.435,6,6,13,42,19,4,7,5
28.44,-7,-6,-27,-57,-21,-13,-10,-5
28.445,3,3,2,26,-9,3,0,2
28.45,-14,-10,-17,-68,4,0,-1,-3
28.455,2,-1,6,23,-6,-5,2,-2
28.46,-1,10,-5,60,5,-5,3,1
28.465,-4,-16,5,-67,-8,-8,-7,-5
28.47,11,-5,-6,49,3,1,14,34
28.475,-9,-6,-6,-17,10,4,-23,-65
28.48,5,10,24,87,26,5,-4,4
28.485,-4,-5,-27,-88,-40,-8,6,3
28.49,3,4,22,94,30,0,-5,2
28.495,9,11,18,-28,0,5,17,27
28.5,4,2,0,20,26,8,0,-20
28.505,-9,-10,-43,-95,-41,-10,-10,-12
28.51,-6,2,30,49,-10,-2,-7,-8
28.515,-5,-11,-43,58,16,-1,1,11
28.52,-5,-9,-16,-92,-9,-1,0,-7
28.525,4,4,11,87,-3,0,6,10
28.53,-4,-8,-25,-29,11,-8,-5,-16
28.535,2,6,36,77,-15,-1,2,4
28.54,-7,-17,-57,-71,-30,-8,-4,7
28.545,2,3,-4,3,9,3,-3,32
28.55,-3,-1,0,6,-13,-6,-9,-33
28.555,-2,20,9,0,19,5,13,18
28.56,5,21,18,47,24,9,22,4
28.565,-2,-6,-12,-16,-14,-8,-45,15
28.57,-9,-1,-6,-11,-2,-5,-1,-39
28.575,2,-1,-10,-24,-17,-13,-10,12
28.58,6,-4,49,31,2,4,19,20
28.585,-10,-9,-33,-17,2,-2,-14,-27
28.59,3,4,2,19,12,3,7,16
28.595,5,-4,-18,-57,-10,-7,-20,-13
28.6,-25,-1,0,-6,-11,-3,-7,-11
28.605,4,1,21,41,17,4,14,-12
28.61,-1,-11,-15,-46,-1,1,-2,3
28.615,-3,-10,19,94,11,-2,7,2
28.62,3,-4,-12,-83,-20,-6,-8,-2
28.625,4,8,23,44,17,5,8,-7
28.63,-7,0,-16,-39,-24,-7,-6,7
28.635,-2,-4,3,0,1,1,3,0
28.64,1,-2,-1,52,17,0,-8,-7
28.645,-3,0,-2,-14,-3,-2,6,-7
28.65,8,-1,1,-13,-10,-5,-1,11
28.655,-1,1,6,-48,-6,-2,-2,-3
28.66,0,-15,1,-26,1,2,-4,-3
28.665,-1,-4,-1,10,2,4,10,0
28.67,0,4,4,-11,0,-2,-4,4
28.675,-2,0,7,0,-3,-3,0,-4
28.68,-1,0,-15,5,6,-4,-4,-5
28.685,-1,2,6,-8,-4,7,6,1
28.69,4,1,8,8,-5,-1,-4,-8
28.695,-5,7,-33,-24,-1,-3,-1,4
28.7,4,-3,-6,5,3,-2,0,3
28.705,-1,2,9,62,-1,-5,-1,-3
28.71,-4,-4,-7,-31,-12,-3,-3,2
28.715,1,-2,2,-14,4,7,1,-9
28.72,2,8,13,-10,5,0,-3,2
28.725,-4,-2,-11,-4,0,-6,1,-3
28.73,1,4,2,1,-5,8,-2,1
28.735,-1,-7,-6,-22,-10,-15,-2,3
28.74,-1,-5,1,23,0,2,-5,-3
28.745,2,0,4,44,15,7,4,-1
28.75,-1,-2,0,-71,-12,-5,2,3
28.755,2,-3,6,16,9,15,2,5
28.76,12,7,16,76,16,0,1,4
28.765,-17,-7,-15,-22,-24,-12,-5,-10
28.77,-6,-8,-18,7,-12,-13,-7,-5
28.775,-1,0,10,-9,-6,-6,-1,2
28.78,-5,-5,-15,-21,-4,0,-1,0
28.785,9,10,20,11,14,7,3,4
28.79,4,-12,5,4,10,6,3,3
28.795,-7,-2,-24,8,-9,-3,-3,-7
28.8,-1,-1,13,20,5,3,-1,1
28.805,-2,-2,-3,-26,-14,-9,0,-3
28.81,-4,-2,-16,-4,-6,-6,0,14
28.815,-2,-2,-6,-27,-4,-1,-8,-35
28.82,-3,10,1,24,-1,-1,-1,2
28.825,5,1,34,10,9,3,0,3
28.83,4,-4,-5,-4,6,1,3,-7
28.835,1,1,13,24,-4,-6,-3,8
28.84,-4,-3,-22,-29,-12,-6,-4,0
28.845,1,4,-2,-16,9,6,2,-3
28.85,1,5,11,27,7,8,4,12
28.855,1,-2,10,-4,6,4,4,6
28.86,-5,-8,-10,-25,-15,-7,-8,-12
28.865,-2,-4,-15,8,-12,-9,-5,0
28.87,2,5,17,13,12,-1,-1,-4
28.875,-5,-6,-9,23,-12,-6,-7,-3
28.88,-8,-13,-14,-17,-20,-10,-5,-9
28.885,3,6,10,15,18,8,6,3
28.89,-3,2,-1,-6,-5,-3,-2,-4
28.895,0,5,21,13,25,8,3,2
28.9,3,-6,-21,-85,-25,-5,-4,4
28.905,-14,-4,-4,29,2,-2,-5,-3
28.91,0,8,-14,15,1,-1,-1,-7
28.915,-1,-7,3,-5,-2,-4,3,6
28.92,2,0,4,-2,8,3,0,4
28.925,7,2,-2,-7,3,2,7,0
28.93,-3,-2,-16,-24,-10,-4,1,19
28.935,-3,1,6,0,-4,-1,-3,-3
28.94,-2,0,1,13,-1,-3,-14,-6
28.945,1,0,0,-12,-4,-1,-2,-9
28.95,-1,2,7,9,3,1,1,14
28.955,0,-1,-9,-12,-8,-2,1,2
28.96,0,1,7,17,6,4,6,-2
28.965,-1,-5,-10,-22,-3,-1,-4,11
28.97,-5,0,8,-12,-1,-3,-4,-17
28.975,0,-4,0,24,-8,-7,-2,2
28.98,0,5,4,-27,0,1,0,-5
28.985,1,2,-1,-1,8,7,0,0
28.99,2,5,17,35,11,2,0,-5
28.995,-7,-13,-33,-87,-26,-10,-8,-11
29,-6,-10,-21,-18,-1,-5,-2,3
29.005,-2,-2,-1,-2,-3,-2,-2,-4
29.01,-2,-5,0,2,3,0,-2,-10
29.015,4,5,14,18,12,6,2,10
29.02,-1,0,6,19,0,-1,2,-2
29.025,-1,-1,-4,-11,-3,-2,-2,-2
29.03,0,-1,-3,-16,-2,-2,-4,-7
29.035,-1,-3,-3,15,-6,-2,-3,-2
29.04,0,-2,27,6,3,5,6,3
29.045,-2,-2,5,2,-2,-5,-5,-10
29.05,1,0,3,-1,-5,-1,1,2
29.055,-1,-3,3,9,3,0,-1,0
29.06,1,4,0,18,5,3,2,1
29.065,-5,-6,-18,-44,-10,-3,-1,6
29.07,-3,-1,1,-18,-1,-4,-6,-14
29.075,2,0,-2,38,-6,-6,-2,3
29.08,2,5,14,73,17,7,2,-1
29.085,-8,-14,-43,-72,-25,0,-8,-5
29.09,-2,-1,-2,-6,-2,1,4,4
29.095,0,2,4,20,3,2,5,-1
29.1,5,4,6,-4,17,4,8,12
29.105,-1,-3,3,24,-6,-4,-9,8
29.11,-3,-8,-10,-11,-16,-2,4,-7
29.115,0,0,4,-4,7,4,-4,6
29.12,6,2,0,-18,-2,-1,-12,-18
29.125,-4,3,8,41,11,-1,6,10
29.13,-2,-5,-7,-40,-8,-4,-8,-2
29.135,-3,2,3,-3,-1,-4,7,2
29.14,-4,-5,-15,-10,-11,-5,5,11
29.145,6,4,10,12,2,1,14,6
29.15,-6,0,3,36,9,-10,-16,-21
29.155,4,5,4,-29,12,8,-3,-1
29.16,-12,-15,-21,26,-31,-12,-11,17
29.165,1,2,3,2,3,-4,5,-17
29.17,1,-8,7,26,3,6,17,18
29.175,1,-9,5,-20,2,5,2,-2
29.18,-4,-2,-11,-13,-3,-8,-3,-16
29.185,2,7,13,25,10,3,10,7
29.19,-1,-2,-24,-14,-10,0,-5,10
29.195,-4,-1,-4,-1,-4,-4,-8,-9
29.2,-2,-2,3,1,-4,-3,2,-5
29.205,-2,-7,-2,-22,-6,1,-8,-7
29.21,0,1,2,-11,9,1,0,-3
29.215,-1,0,4,18,2,-4,2,-4
29.22,1,2,-3,-2,-1,-2,-3,-2
29.225,4,2,2,-2,1,-2,4,2
29.23,0,2,3,6,0,-1,-12,-17
29.235,-3,-3,-6,-4,-5,-2,0,14
29.24,0,0,-4,-3,-2,1,-1,28
29.245,-8,-3,-4,-9,1,-3,-13,-68
29.25,1,0,8,9,-4,0,3,1
29.255,-4,-5,-11,-8,-3,-4,-8,-6
29.26,-1,1,2,-3,3,2,9,7
29.265,2,-2,-1,0,-5,3,-9,8
29.27,0,-1,-1,1,-6,-9,3,6
29.275,1,2,4,7,8,8,0,-7
29.28,-2,1,2,-5,10,4,-2,-9
29.285,-2,-1,1,19,-1,2,3,15
29.29,-2,0,-3,1,-6,-4,-5,-6
29.295,0,0,-6,-6,-5,-5,0,5
29.3,-2,-4,-2,-14,-6,-5,-2,-9
29.305,-1,-1,-1,-3,1,-6,-5,-2
29.31,1,-1,0,-3,2,4,9,12
29.315,-4,-3,-5,-2,-5,-4,-7,-9
29.32,-4,-2,0,1,1,1,-4,-8
29.325,2,0,-3,1,4,-2,-2,4
29.33,-1,0,-1,1,-2,0,1,0
29.335,-3,-3,-10,1,-3,1,3,0
29.34,0,-1,-1,-9,-7,-5,-5,-7
29.345,0,0,-2,-8,-6,-6,-2,9
29.35,-3,-3,-6,1,1,1,-3,-1
29.355,0,0,2,-4,-1,-3,-1,-2
29.36,0,-1,-1,-8,-4,1,-2,-4
29.365,0,0,2,1,5,0,1,5
29.37,-2,-1,-2,4,-1,-1,-5,-1
29.375,0,-1,-3,-2,-3,-1,0,-1
29.38,-1,-1,1,-1,1,0,0,-4
29.385,0,0,1,3,-2,0,0,2
29.39,2,0,4,0,-1,-2,-2,-2
29.395,-1,1,0,1,-1,-1,-1,1
29.4,-1,-2,-1,-1,3,1,-1,-5
29.405,-3,-3,-2,-2,0,-3,-3,-1
29.41,-2,0,6,1,0,0,-1,-1
29.415,3,-4,4,2,2,4,7,2
29.42,-2,-1,-3,-1,-3,-4,-4,-4
29.425,-2,0,-1,-2,-3,-1,-3,-1
29.43,-2,-1,-1,-1,-3,0,-3,-2
29.435,-4,-3,-4,2,0,-3,-4,-2
29.44,-1,-1,2,-2,2,0,2,-2
29.445,2,1,3,0,1,1,2,4
29.45,-1,-1,0,1,0,-1,-2,-1
29.455,-3,-1,0,-1,-1,-3,-3,-3
29.46,0,-2,-6,-4,-2,-1,-2,-1
29.465,-9,-3,-6,-5,-3,-2,-1,6
29.47,-1,1,-2,-1,-1,1,0,-7
29.475,3,-4,-4,-2,0,-1,0,-1
29.48,3,17,-1,-5,-2,-2,-2,1
29.485,-4,-10,-5,2,-3,-3,-1,0
29.49,21,25,0,3,2,0,0,-7
29.495,-53,-44,-10,-6,-5,-6,-10,17
29.5,7,-2,5,0,0,1,-2,-22
29.505,2,1,-1,1,2,-1,2,7
29.51,-3,-6,-5,-2,-3,-5,-2,-6
29.515,37,17,-6,1,2,1,4,28
29.52,-19,6,-8,-5,-5,-4,-4,-10
29.525,-25,-2,-7,-4,-2,-1,-7,-17
29.53,-17,13,5,-3,-1,0,4,7
29.535,2,13,3,-3,-5,-4,-7,-23
29.54,-4,-51,-9,0,-3,-5,-5,7
29.545,23,-7,6,4,4,6,7,6
29.55,-14,10,2,-2,-4,-3,-7,-7
29.555,-12,18,-48,-7,-2,-3,-3,-20
29.56,18,19,28,1,-1,0,-1,-1
29.565,46,1,-9,-3,-1,0,4,26
29.57,-34,-14,-2,-3,-1,-3,-4,-10
29.575,5,10,11,-1,-2,-2,-4,-13
29.58,-14,-6,-13,-4,0,-1,1,4
29.585,-19,-4,-6,-2,-2,-3,-4,-9
29.59,33,-6,-9,-3,-1,0,2,20
29.595,1,6,3,3,0,1,2,-6
29.6,-21,-24,-7,3,5,3,3,0
29.605,34,43,8,-4,-6,-5,-6,0
29.61,-31,-51,-13,-7,-4,-3,-3,0
29.615,4,-16,4,6,4,2,3,0
29.62,17,29,10,-9,-8,-1,2,3
29.625,-27,-3,-1,3,-2,1,-3,-7
29.63,12,25,15,-2,-3,-1,-2,-2
29.635,-7,-24,6,0,-3,0,1,3
29.64,5,-12,-13,3,0,1,0,7
29.645,-4,36,-1,-7,-6,-8,-8,-29
29.65,23,-8,-3,-1,-3,-2,2,3
29.655,-30,1,6,-2,0,0,0,-6
29.66,7,17,-2,6,3,2,1,11
29.665,-9,-23,2,4,0,-1,-4,-17
29.67,52,23,16,13,8,2,2,24
29.675,-34,-18,-4,-12,-3,-2,-1,-12
29.68,23,26,-1,1,-2,-3,1,7
29.685,-9,-10,1,1,0,0,-1,-3
29.69,0,-22,-5,-5,-3,-2,0,15
29.695,64,15,16,11,4,1,1,27
29.7,-81,4,-1,-9,-2,-1,-2,-38
29.705,43,-45,1,5,3,1,6,52
29.71,-52,-2,-1,-6,-3,0,-3,-90
29.715,101,25,-6,-2,-2,1,-3,60
29.72,-11,-36,4,7,4,-1,-6,-41
29.725,-58,32,-5,5,1,0,8,33
29.73,8,64,14,9,5,2,-4,-23
29.735,-81,-15,-9,-2,-3,-1,-2,-27
29.74,38,-36,-14,8,4,2,3,23
29.745,71,79,9,-8,-2,0,7,14
29.75,40,27,-12,-3,0,-1,5,34
29.755,54,12,11,12,6,4,7,7
29.76,-26,-22,-24,2,-1,-4,0,-5
29.765,-97,-76,-4,-5,-4,-4,-19,-52
29.77,-3,-9,-14,-11,-4,-3,0,16
29.775,6,-2,4,-7,-4,-4,-3,1
29.78,96,-2,0,3,3,3,5,27
29.785,-40,-20,-15,-18,-9,-9,-1,-19
29.79,8,19,4,0,-2,4,5,18
29.795,56,46,1,-1,-2,-2,-6,-16
29.8,5,-3,-2,-6,-4,-5,-5,-10
29.805,7,-54,-2,0,1,4,10,48
29.81,98,96,16,-2,3,8,15,94
29.815,-62,-77,6,-1,2,0,2,-44
29.82,24,73,6,4,0,-2,-3,60
29.825,68,92,28,13,9,8,2,-21
29.83,15,-116,-40,-14,-10,-8,0,37
29.835,-70,58,-3,23,2,-1,-3,-85
29.84,-32,39,-7,-33,-15,-3,-8,18
29.845,10,-18,6,6,-2,-4,6,30
29.85,53,-2,8,5,-1,-2,-20,-19
29.855,-73,-74,-19,-12,0,-6,-5,-16
29.86,71,91,38,27,9,6,4,-1
29.865,18,-85,-49,-16,-11,-5,-2,-55
29.87,-65,-30,13,16,5,0,1,18
29.875,6,61,-4,3,-9,-7,-9,-12
29.88,78,-11,28,20,11,5,12,74
29.885,-84,-18,-8,-24,-6,-2,-9,-45
29.89,62,37,-6,3,3,5,10,34
29.895,76,-61,28,44,17,8,3,-24
29.9,-111,-80,-11,12,-6,-6,-6,-12
29.905,16,19,-4,-10,-8,-1,0,73
29.91,-6,-18,-10,25,-6,-6,-2,-110
29.915,-87,18,-13,-57,-10,-4,-3,-37
29.92,-6,-25,4,10,3,6,3,-31
29.925,63,-6,15,7,8,-1,1,17
29.93,-46,73,30,42,4,-20,28,27
29.935,58,5,-9,-42,-15,8,-26,8
29.94,73,-38,-39,-60,-16,-15,-14,-8
29.945,-37,52,11,-3,-1,10,3,-11
29.95,-11,41,-23,-28,-11,7,-4,12
29.955,119,-16,-10,16,9,-20,19,92
29.96,-102,10,18,30,19,3,-7,-21
29.965,127,22,16,-26,-6,-5,-26,-5
29.97,-64,-34,17,-12,-2,-9,-8,-18
29.975,-25,11,-32,-19,-28,5,-3,-10
29.98,120,32,23,-14,-10,-9,10,53
29.985,-90,1,-4,25,14,-7,-4,-31
29.99,-18,-26,4,10,11,26,-1,-44
29.995,23,8,7,15,0,-5,-12,88
30,-42,19,-25,-6,-13,-6,-5,-102
30.005,-41,-61,-30,0,-2,-12,8,-35
30.01,-14,-29,-18,-23,-11,-12,-33,7
30.015,80,65,8,-6,0,-4,9,70
30.02,-107,-21,-2,1,-8,-6,-21,-83
30.025,-10,119,20,5,-1,4,-2,-63
30.03,-10,-28,-34,-28,-8,-5,-5,6
30.035,-47,25,-12,0,-4,-5,-1,8
30.04,-5,-59,-13,0,-1,4,4,-15
30.045,-4,63,-1,-5,-2,3,-2,-16
30.05,30,-79,0,-2,3,2,9,19
30.055,-90,-58,2,-1,2,5,-6,-48
30.06,65,-15,-3,5,4,4,11,73
30.065,72,-42,-9,3,0,-1,28,-32
30.07,68,14,-4,-2,-5,-3,-32,-6
30.075,-42,-1,14,-1,-3,0,5,-16
30.08,38,-74,-18,-15,-6,-5,-7,-5
30.085,-43,-4,2,3,-5,-4,-7,43
30.09,29,61,35,17,7,2,11,-5
30.095,29,11,1,8,4,1,-2,29
30.1,-84,-7,-10,-18,-9,-10,-14,-30
30.105,-51,-20,-8,-2,-2,4,5,55
30.11,-80,-69,-10,-11,-6,-6,-2,-23
30.115,-27,16,-21,-1,4,-4,3,-16
30.12,23,60,13,-5,-4,1,-2,26
30.125,64,-94,-8,17,6,1,-5,60
30.13,58,114,0,-6,-4,-6,-6,-40
30.135,64,25,14,8,4,5,13,-6
30.14,4,33,6,1,3,6,6,-6
30.145,-33,-62,-18,-7,-5,-5,-12,-27
30.15,66,86,14,11,3,0,-1,70
30.155,-99,-85,1,-10,-2,2,4,-122
30.16,33,18,-3,8,5,0,0,0
30.165,66,25,26,1,-1,1,0,71
30.17,-83,-59,-42,-12,-4,-4,3,16
30.175,-40,-8,-11,-13,-5,-6,-8,-8
30.18,12,26,5,9,-1,-1,-1,19
30.185,-20,22,-7,-3,-2,-2,-7,-40
30.19,-13,-31,-4,-3,1,1,2,-3
30.195,86,-19,4,7,1,-3,-4,32
30.2,-42,30,4,-3,0,2,5,0
30.205,-15,23,-8,-2,-6,-7,-12,-59
30.21,2,-37,-5,-3,-3,-2,-2,-34
30.215,-31,5,-5,-7,-2,-1,-3,12
30.22,13,-7,-1,-3,0,-1,3,14
30.225,-5,7,11,1,-2,-1,-2,2
30.23,-9,-4,7,1,0,3,2,-10
30.235,15,8,7,-1,0,3,5,9
30.24,0,6,0,2,0,1,1,9
30.245,-3,14,10,9,0,-1,1,0
30.25,-21,-22,1,-14,-1,-2,-2,-16
30.255,26,11,2,4,-4,-1,-2,25
30.26,-12,-14,-10,-13,-9,-3,-5,-17
30.265,14,4,-1,4,2,2,0,7
30.27,-3,-9,12,12,4,1,2,1
30.275,5,4,1,-6,-3,-1,0,4
30.28,-2,5,0,5,5,0,1,-3
30.285,-2,0,6,6,-4,-5,-3,0
30.29,-8,-9,-4,-13,-7,-3,0,-2
30.295,4,5,1,5,-4,-1,-1,3
30.3,-6,-5,-5,-9,0,0,0,-6
30.305,11,6,-1,11,7,3,1,12
30.31,-7,-9,-5,-3,-2,-2,-3,-10
30.315,9,1,-4,-1,-1,-2,0,4
30.32,2,-3,-2,21,-1,-1,0,3
30.325,0,2,-5,-44,-3,1,0,1
30.33,-3,1,4,7,3,3,1,-3
30.335,2,2,5,23,-2,-3,-2,-2
30.34,-2,1,0,-26,-5,-1,-3,0
30.345,-1,-1,-5,-14,-3,3,3,1
30.35,-6,-6,3,0,6,-4,-2,-5
30.355,4,2,-3,-16,3,2,-2,4
30.36,-1,-10,7,25,3,-1,0,-1
30.365,0,-1,-1,20,2,-4,-2,-1
30.37,-3,-5,-6,-19,-13,1,-2,-1
30.375,1,2,7,38,5,-3,0,1
30.38,-1,5,0,-19,17,6,2,-1
30.385,1,1,2,14,0,-2,0,-1
30.39,-3,-4,-3,28,-9,-1,-1,-2
30.395,-5,-7,-27,-90,-20,-5,-4,-3
30.4,-3,0,2,34,-3,1,-1,0
30.405,1,0,2,-37,-10,-4,-1,1
30.41,-1,1,11,45,30,4,2,-2
30.415,3,-1,2,9,-12,-5,-3,0
30.42,-5,-6,-17,7,-19,-9,-5,-3
30.425,-1,1,6,4,14,3,-1,-1
30.43,-4,-3,-4,-40,-17,-8,-5,-7
30.435,6,4,13,60,25,8,7,4
30.44,-1,-2,-3,-75,-24,-6,-2,-2
30.445,-1,-2,6,49,-4,-7,-6,-2
30.45,-3,-3,-8,-7,15,6,2,-3
30.455,0,-2,1,12,-11,2,1,0
30.46,-1,1,-12,-79,-7,-6,-5,-4
30.465,2,-8,44,52,10,6,3,3
30.47,1,5,24,36,-6,-2,-2,-1
30.475,-1,1,2,16,-2,-5,-3,-2
30.48,-1,-1,12,42,6,2,1,1
30.485,1,5,-4,-40,21,0,1,-1
30.49,-6,-6,-6,-13,-27,-8,-6,-4
30.495,1,6,29,24,32,10,2,2
30.5,-1,3,-7,9,11,4,0,0
30.505,-3,-7,-33,-17,-24,-6,-5,-3
30.51,1,1,1,-4,6,-4,-1,0
30.515,3,5,4,45,5,4,3,1
30.52,-3,-6,-10,-74,-21,-5,-3,-1
30.525,-4,0,-18,5,2,1,-3,-5
30.53,-3,-9,-9,13,-12,-1,-2,-2
30.535,-1,-3,5,25,3,-10,-6,-2
30.54,-2,-1,4,12,-8,-2,-3,-1
30.545,2,3,1,14,10,3,2,2
30.55,2,0,-18,-119,-2,8,6,1
30.555,2,3,19,104,24,3,3,4
30.56,-6,-6,-6,34,-22,-12,-8,-6
30.565,2,7,10,12,1,3,-2,0
30.57,-1,-6,-18,-24,5,1,0,0
30.575,-10,-16,-39,-106,-46,-24,-7,-8
30.58,1,4,12,-19,25,19,6,-1
30.585,-1,1,-1,14,-3,3,2,2
30.59,0,-1,5,57,24,-8,-4,0
30.595,-1,-4,-13,-28,-13,0,-4,-1
30.6,3,7,-5,36,3,-13,2,38
30.605,-15,-13,2,32,-10,-10,-7,-77
30.61,7,-3,21,-18,22,21,4,-3
30.615,-8,-13,-53,-113,-46,-20,-12,-11
30.62,-3,-1,10,100,13,-2,-2,-2
30.625,7,13,18,29,21,6,6,27
30.63,-6,-5,-21,-2,-31,-20,-6,-1
30.635,-5,-11,-27,-68,-6,6,3,-8
30.64,0,-3,3,-56,-6,-6,-3,-7
30.645,2,-2,-3,59,18,16,0,13
30.65,-4,-1,-8,-69,-34,-4,-2,-11
30.655,9,13,29,35,25,6,11,20
30.66,4,7,14,-5,6,26,5,-1
30.665,-12,-15,-35,-27,-19,-29,-15,-4
30.67,2,6,5,33,-2,-4,1,3
30.675,-2,-3,4,-5,-6,0,-7,-8
30.68,-2,-5,-8,-2,-1,-10,-1,-8
30.685,1,2,15,7,-1,10,5,7
30.69,5,2,40,38,11,-1,1,8
30.695,-3,-4,-17,13,2,-10,-4,-2
30.7,-4,-11,-15,-4,-20,-12,-12,-12
30.705,-3,-2,-37,-28,-17,-10,1,9
30.71,0,-13,2,11,16,13,9,3
30.715,-3,-2,3,8,2,16,-4,-2
30.72,-1,4,6,12,25,4,2,-3
30.725,3,8,-7,-42,1,3,3,6
30.73,-9,-11,-23,-18,-28,-15,-8,-7
30.735,5,9,20,3,15,9,6,3
30.74,-2,-3,6,36,-4,-4,-6,-5
30.745,-1,-7,1,-43,-23,-16,-4,2
30.75,-2,8,10,62,12,-2,-1,-2
30.755,4,2,12,-11,15,11,2,5
30.76,-3,-7,-21,-64,-18,-8,-1,-3
30.765,0,12,-9,36,16,-2,0,2
30.77,-4,-4,-24,-76,-26,-5,-6,-3
30.775,-5,-3,-18,1,-14,-8,-4,-3
30.78,6,9,31,68,33,12,7,4
30.785,-4,-8,-13,-42,-14,0,-4,-4
30.79,0,3,2,41,13,2,-2,0
30.795,1,1,17,65,-4,-5,1,-1
30.8,-3,-2,-15,-55,3,2,2,-1
30.805,1,-4,3,-15,0,5,0,3
30.81,-4,-4,-12,79,-4,-8,-9,-4
30.815,1,3,6,-46,-9,-6,-2,1
30.82,-5,2,4,48,10,8,2,-9
30.825,1,-3,1,-54,1,4,-3,-1
30.83,0,1,-4,25,-6,-9,0,1
30.835,1,-1,1,16,-11,-1,-4,-4
30.84,-4,-5,-1,34,20,8,1,0
30.845,-1,-2,9,-13,-19,-11,1,1
30.85,6,3,-21,-104,-2,12,2,1
30.855,-7,-8,-8,52,1,-9,-6,-6
30.86,1,0,2,11,-11,-10,1,-1
30.865,1,1,16,-16,8,7,0,0
30.87,-5,-6,1,82,-7,-14,-1,34
30.875,-3,0,-8,-33,2,-7,-12,-42
30.88,-4,-13,30,35,-16,-3,-4,-19
30.885,13,4,0,9,9,-2,2,3
30.89,-13,-3,-14,-79,-16,7,6,5
30.895,-2,-2,1,0,10,5,6,17
30.9,5,3,-10,14,1,-2,-1,8
30.905,-7,-3,-4,-42,-12,-2,-2,-8
30.91,3,1,13,45,18,-4,1,-4
30.915,2,9,12,0,5,6,-1,3
30.92,-5,-21,-13,2,-21,-8,-6,-8
30.925,7,12,40,41,3,1,4,10
30.93,9,16,23,-45,10,4,3,-4
30.935,-6,-2,-2,76,10,12,0,0
30.94,8,-6,30,-18,1,-2,6,7
30.945,-12,-13,-28,-46,-27,-10,-1,-3
30.95,-4,-6,-10,16,-4,-15,-15,6
30.955,-2,5,7,10,16,21,-1,-63
30.96,0,4,-27,-33,-3,-2,-2,2
30.965,-7,5,-21,30,6,-3,-5,-6
30.97,-1,-5,8,-10,12,1,7,-3
30.975,1,-5,-12,-24,-16,-3,4,24
30.98,-4,3,-16,-16,4,1,-2,1
30.985,5,8,13,-6,21,11,5,-3
30.99,-6,-6,-15,77,-25,-19,-14,-15
30.995,0,-6,-16,-80,-12,-16,-6,11
31,-4,0,-7,-6,-8,-6,-1,-5
31.005,-2,-5,6,15,3,7,1,7
31.01,1,4,12,0,12,7,2,-8
31.015,1,-1,9,5,6,0,2,11
31.02,0,2,-6,-22,-8,-6,-2,1
31.025,-1,-4,-2,20,0,0,-4,-2
31.03,1,2,-3,-56,1,14,5,-3
31.035,3,1,7,60,8,-3,-1,5
31.04,-7,-3,-10,-16,-14,-9,-1,-5
31.045,-6,-12,-18,25,-20,-9,-2,-4
31.05,-1,0,2,1,7,-5,-4,-8
31.055,7,6,11,-11,10,0,1,14
31.06,3,6,8,19,12,13,0,3
31.065,-4,-6,-2,16,-1,-5,-1,-5
31.07,2,-2,0,-5,5,11,2,0
31.075,-4,-4,-9,-28,-9,-3,-2,1
31.08,0,1,-3,-19,6,0,-2,-1
31.085,-8,-9,-17,-15,-29,-16,-11,-11
31.09,-1,10,-11,3,-5,-5,-4,1
31.095,-3,-3,1,-11,5,11,0,3
31.1,1,-3,-7,30,0,-10,-2,33
31.105,0,3,7,-29,3,3,-4,-35
31.11,0,3,10,55,9,1,1,-1
31.115,-8,-12,-33,-50,-28,-13,-4,-4
31.12,2,4,10,10,3,3,3,9
31.125,-1,-5,-12,12,-1,-5,-4,9
31.13,2,0,10,-5,8,-1,-3,-6
31.135,-2,0,9,33,2,5,4,2
31.14,10,-1,0,26,-1,-2,-7,-9
31.145,-12,-2,-3,-56,2,9,5,6
31.15,1,-2,-3,-48,-10,-1,1,-4
31.155,4,4,8,-6,10,-5,1,-1
31.16,-6,-6,-13,0,-5,1,-8,-13
31.165,2,-1,4,32,2,-2,-6,-2
31.17,-1,-2,4,-9,0,-3,-1,8
31.175,2,3,1,7,0,-9,3,15
31.18,-5,-7,-17,-29,-10,7,-4,-12
31.185,4,1,5,2,4,-3,0,6
31.19,-1,-2,-3,0,-6,0,-2,-5
31.195,-3,-1,2,12,-1,-6,-1,-10
31.2,0,3,8,13,7,6,3,6
31.205,6,2,35,-41,9,6,3,9
31.21,-5,-12,-24,57,-17,-5,-6,-11
31.215,-2,-3,-4,10,-12,-11,-4,8
31.22,-3,-2,3,-12,-2,3,-4,-5
31.225,1,3,3,19,-2,-21,-3,1
31.23,0,-1,-2,-28,4,9,3,-1
31.235,-1,-1,-6,-32,2,11,5,2
31.24,-1,4,3,49,7,0,4,-5
31.245,-1,-3,-13,-60,-11,-4,-1,-3
31.25,-7,-8,-19,-13,-3,-6,-5,-2
31.255,2,-2,2,16,-5,-15,-4,-4
31.26,-2,-2,-9,-40,-8,3,-5,-4
31.265,2,-13,-4,28,8,4,2,10
31.27,-2,-3,-8,2,-7,-1,0,-3
31.275,-2,-2,-4,-35,-9,2,-2,-3
31.28,-1,-1,1,14,2,-8,2,-2
31.285,-2,0,-5,18,-2,6,-1,-2
31.29,2,6,16,0,20,17,3,3
31.295,0,-4,-5,12,-9,-6,-4,-5
31.3,-1,-10,24,-35,-7,-18,0,-1
31.305,9,1,-4,38,0,6,0,2
31.31,-10,0,-3,-43,-5,-10,-2,-6
31.315,1,6,11,5,9,9,-2,2
31.32,-6,-4,-13,27,-10,-13,-2,-6
31.325,0,1,-1,22,3,-5,2,-1
31.33,7,3,10,-21,7,8,2,4
31.335,-5,-4,-6,36,-19,-11,-10,-12
31.34,-2,1,-6,-28,3,-1,-1,3
31.345,-1,3,3,9,10,6,5,3
31.35,2,1,-5,-13,0,6,1,2
31.355,-4,12,19,-28,4,0,-1,-2
31.36,4,11,16,-15,-6,4,1,-1
31.365,2,7,30,27,-4,-8,-3,3
31.37,4,-2,6,15,3,-3,2,1
31.375,1,-3,-18,-19,-2,-5,-4,26
31.38,-6,-6,-11,11,-4,-4,-6,-15
31.385,-3,0,1,1,-2,2,7,5
31.39,-5,1,-4,2,0,2,-11,-8
31.395,2,-2,2,-2,2,4,4,5
31.4,2,2,-8,-4,5,2,3,1
31.405,-2,0,-10,-46,5,1,1,-4
31.41,-2,-7,-4,44,-15,-13,-4,8
31.415,-4,-4,-6,18,2,-1,-2,-10
31.42,0,-1,9,9,8,16,-1,-1
31.425,-2,-3,-25,-89,-15,-7,-5,-8
31.43,-3,-5,0,6,-3,-8,-4,-5
31.435,2,1,1,12,6,8,4,-2
31.44,-1,3,-2,46,5,3,1,-4
31.445,-2,-2,-5,-53,-8,1,0,5
31.45,-2,-1,-9,8,5,-1,-1,-5
31.455,-4,-7,-10,-44,-14,-7,-4,-8
31.46,1,-3,-16,-67,-10,-10,-4,3
31.465,-4,-5,-5,44,1,-2,-7,-8
31.47,3,4,16,37,11,4,4,1
31.475,0,-6,-13,-27,-8,-5,-1,-5
31.48,-3,0,2,11,0,-1,3,1
31.485,-3,-3,3,19,-6,-1,-4,-4
31.49,1,1,0,-12,-1,-2,3,32
31.495,2,6,10,43,13,3,-4,-43
31.5,-13,-5,-14,-36,-7,-5,-3,1
31.505,-1,-3,-7,26,-1,-3,-4,-7
31.51,5,2,5,7,-1,-1,3,13
31.515,-4,-5,-7,-2,-2,-3,0,10
31.52,5,2,4,44,7,0,1,0
31.525,-2,0,-4,-27,-1,1,-2,-4
31.53,-5,-2,2,-6,-7,-5,-4,-14
31.535,1,1,5,-6,-1,-2,1,6
31.54,-2,-5,-11,-17,-7,-2,-4,-13
31.545,-3,2,-13,45,5,1,2,8
31.55,0,-11,4,-12,0,-1,1,-12
31.555,-3,-3,-6,-10,5,0,-1,-1
31.56,1,-1,2,49,5,-1,-1,10
31.565,-2,2,-4,-62,-15,-6,-6,-6
31.57,-2,3,-7,-16,-8,-1,-3,-10
31.575,-1,-3,3,26,4,3,2,4
31.58,-1,-1,1,-22,-1,-2,-3,-2
31.585,0,-1,9,37,0,2,0,0
31.59,-4,-1,-6,-10,-2,-4,-3,-10
31.595,0,-2,0,-5,1,0,1,13
31.6,-2,0,0,-3,4,1,2,-9
31.605,0,-3,7,12,-1,-2,0,-1
31.61,1,2,0,0,-1,-2,-1,-5
31.615,0,-3,-7,6,3,0,-1,0
31.62,0,-1,0,-7,-5,-3,-1,3
31.625,1,-3,-2,12,5,2,-2,-2
31.63,0,-2,2,-3,-4,-1,1,-1
31.635,-2,-19,36,9,-1,1,3,8
31.64,-9,-1,-15,-22,-6,-2,-3,-16
31.645,2,-16,-11,12,6,4,2,4
31.65,4,-15,17,5,5,4,2,4
31.655,5,3,-11,-13,-4,-4,-4,2
31.66,-2,-2,6,-7,-6,-4,-1,1
31.665,-2,4,5,6,-1,-2,-2,-1
31.67,-2,3,-9,5,1,-1,1,35
31.675,4,-2,-17,-10,1,-1,-2,-44
31.68,8,4,4,-6,-3,-2,-1,4
31.685,-24,1,-3,12,1,-2,-5,-16
31.69,5,1,0,-2,-5,0,-1,10
31.695,-6,3,-13,3,2,-1,0,2
31.7,17,3,18,-5,0,0,7,22
31.705,32,2,3,2,0,1,0,14
31.71,-55,-9,-27,-1,-2,-1,-6,-37
31.715,20,23,-7,0,-1,0,9,2
31.72,-42,-14,-4,-6,-5,-3,-9,-1
31.725,-14,-32,0,3,-1,-4,1,-13
31.73,24,9,3,6,9,3,-2,25
31.735,5,9,7,-8,-6,-1,-12,-21
31.74,28,21,1,0,3,1,4,32
31.745,-6,-2,1,-2,-7,-4,-2,16
31.75,40,9,-2,-8,-4,-1,13,0
31.755,-52,10,0,-1,-1,-3,-15,-7
31.76,-26,-37,-14,-2,-1,-3,-4,-4
31.765,-7,1,-20,-1,0,-3,-6,-18
31.77,15,-14,7,-1,1,2,4,20
31.775,46,-4,1,-2,-4,-2,6,32
31.78,2,32,-9,-1,-4,-1,-12,-50
31.785,-33,-8,15,0,-1,-2,-1,-7
31.79,2,8,6,7,3,3,5,26
31.795,42,0,-3,-7,-1,1,9,-25
31.8,-58,-10,-16,5,2,-4,-20,-49
31.805,15,13,5,14,3,4,3,4
31.81,-10,9,-13,-15,-3,-5,-8,-17
31.815,-2,-14,-3,0,-2,0,-3,6
31.82,60,-6,-15,-13,-4,-2,8,43
31.825,-24,14,-29,-9,-6,-5,-3,-2
31.83,73,56,26,13,3,3,7,61
31.835,-112,-67,-20,-9,-6,-6,-14,-46
31.84,19,-28,0,7,6,6,9,-8
31.845,43,85,-8,-11,-3,-2,-1,3
31.85,28,-54,-9,-4,-3,-4,-6,8
31.855,-4,29,6,-4,-5,-3,-2,-14
31.86,34,32,21,7,1,0,7,24
31.865,-53,-90,3,4,0,-3,-10,-16
31.87,80,45,1,-20,-8,-2,-4,-3
31.875,17,-91,-15,3,3,3,7,47
31.88,-87,49,-25,-19,-9,-9,-14,-67
31.885,-3,-26,1,2,0,1,0,0
31.89,-59,-58,-25,-7,-6,-5,-4,-35
31.895,62,11,-2,3,3,4,11,35
31.9,-43,-24,-6,3,-3,-6,-9,-2
31.905,36,77,-4,-11,0,-1,0,3
31.91,-84,-20,12,-1,-4,-3,-5,-43
31.915,74,55,2,10,3,4,9,23
31.92,127,-4,-7,-10,-1,2,12,96
31.925,-105,-9,-13,-4,-4,-5,-17,-83
31.93,47,13,4,-1,0,0,0,1
31.935,-65,-14,42,8,-1,-1,-3,-29
31.94,10,-5,19,1,3,4,5,84
31.945,95,-21,15,-7,-2,3,7,-11
31.95,-83,-52,-8,7,0,-3,-10,-74
31.955,83,56,32,-4,-4,-1,-1,24
31.96,18,-50,-4,7,0,0,-3,-13
31.965,-9,24,2,6,6,4,5,12
31.97,7,-79,-16,-3,-6,-5,-6,8
31.975,65,46,-7,-19,-8,-3,11,11
31.98,-85,-6,48,-19,-9,-5,-14,-45
31.985,127,12,15,16,4,2,8,67
31.99,-63,66,-13,-1,-1,-4,-10,-44
31.995,-53,-4,8,7,7,4,1,31
32,127,26,-12,5,0,2,13,34
32.005,-82,-109,-41,-17,-9,-10,-17,-42
32.01,14,28,9,-1,2,3,4,44
32.015,-11,-36,-27,1,-3,-9,-10,-26
32.02,-27,-26,-16,-1,-2,-1,0,-79
32.025,-9,6,50,13,6,7,12,75
32.03,95,59,2,-2,1,5,11,14
32.035,15,25,44,4,0,-1,-2,43
32.04,-39,-22,7,16,6,0,-14,-27
32.045,-51,-47,-22,-10,-6,-6,-8,-25
32.05,-27,45,-11,-7,-9,-5,-4,9
32.055,94,-15,22,16,12,10,14,39
32.06,34,73,-22,-30,-9,-11,-16,-43
32.065,-9,53,-45,3,0,-2,2,33
32.07,-28,-8,-5,-6,-1,-6,-17,-54
32.075,-26,-9,-25,12,6,5,2,-28
32.08,-78,-9,7,17,2,2,11,13
32.085,127,95,-4,2,-6,-9,-16,-40
32.09,-35,-67,-51,-3,2,1,4,-62
32.095,32,13,-18,-30,-14,-7,-10,-8
32.1,-91,-60,-24,-2,-4,-6,1,-57
32.105,6,-6,51,21,11,6,5,72
32.11,109,118,58,21,14,13,11,-17
32.115,-102,-128,-22,12,-8,-9,9,5
32.12,127,-40,9,-5,8,8,-8,74
32.125,84,37,2,-2,-4,1,12,59
32.13,-37,-34,-3,-13,-7,-10,-14,-44
32.135,28,75,38,-4,-6,-8,-12,-16
32.14,88,60,49,33,7,9,35,86
32.145,-110,32,16,50,12,5,4,8
32.15,127,18,40,5,11,12,22,109
32.155,-94,60,-17,-22,-21,-12,-22,-62
32.16,20,-75,-55,-5,-11,-9,-9,-17
32.165,13,-3,8,-23,-4,-4,-5,-25
32.17,58,-9,6,55,10,3,1,14
32.175,-25,-73,-58,-45,0,2,2,45
32.18,1,57,-3,-42,-10,-3,0,-111
32.185,11,-94,-46,-3,-13,-11,-12,-32
32.19,-76,-5,-22,-4,-1,-8,-10,54
32.195,17,-3,61,7,6,9,7,61
32.2,119,-46,29,-3,1,6,51,64
32.205,-58,38,46,-9,-6,-1,-54,-57
32.21,-79,-2,9,28,-3,0,3,14
32.215,65,17,-42,-26,-12,-9,-15,-38
32.22,17,-70,7,22,10,6,7,73
32.225,-43,-43,-25,-18,-5,-4,9,-26
32.23,18,49,-11,-17,-7,-9,-12,34
32.235,-58,38,0,35,7,0,-1,-4
32.24,-31,-40,-48,-65,-16,-7,-13,-4
32.245,-19,12,19,2,1,1,10,39
32.25,-88,-114,-30,-22,-14,-5,-11,-110
32.255,47,-16,21,23,6,-1,5,-44
32.26,-32,75,50,9,7,7,-8,-45
32.265,6,-7,-10,-15,1,5,11,38
32.27,61,-4,-20,7,-3,-5,5,73
32.275,-14,33,15,22,11,8,11,-23
32.28,-128,-71,-65,-8,-14,-17,-42,-79
32.285,127,92,30,16,11,12,22,64
32.29,3,-88,-21,-20,-5,-4,-22,-31
32.295,-9,-20,-53,-18,-1,0,14,-2
32.3,70,105,46,18,6,3,2,72
32.305,-115,-98,-36,-11,-4,0,22,10
32.31,-38,19,13,3,4,3,-16,-46
32.315,8,10,-10,-13,-9,-7,-11,30
32.32,-85,12,-20,-10,-1,-1,-10,-58
32.325,20,-36,-4,1,-2,-1,7,49
32.33,22,50,-25,-8,-3,-1,15,57
32.335,-5,-40,-39,7,0,-6,-21,-4
32.34,-76,60,23,21,3,0,-4,8
32.345,29,4,10,-7,-1,3,12,-11
32.35,-22,-24,-7,-12,-4,-5,-7,-1
32.355,-116,-73,-20,-7,-9,-10,-19,-59
32.36,108,35,1,20,5,6,17,59
32.365,12,-26,-6,-12,-6,-8,-19,-23
32.37,28,25,4,-10,-6,-4,4,-51
32.375,-56,57,-25,-15,-1,1,19,-7
32.38,-22,-55,-7,3,-2,-6,-36,-1
32.385,-71,-33,-9,-9,-8,-8,-17,-128
32.39,40,12,19,-1,2,5,12,46
32.395,50,42,11,4,1,2,11,37
32.4,48,14,0,9,-1,-3,6,23
32.405,-5,25,-48,-17,-4,-2,-3,14
32.41,44,2,14,2,-3,1,12,89
32.415,10,-22,0,-6,1,4,-5,7
32.42,-25,-14,0,4,-2,-2,-1,6
32.425,42,18,10,6,3,2,2,1
32.43,36,-11,30,5,3,6,9,30
32.435,5,16,11,4,1,-2,-10,-14
32.44,8,40,-18,-16,-5,-4,-1,-10
32.445,15,-24,18,6,0,0,6,-6
32.45,81,38,-8,-6,-1,-1,1,0
32.455,22,13,27,9,3,3,-1,14
32.46,-19,-56,-14,-6,-6,-4,-2,-25
32.465,-28,25,1,-2,-3,-6,-10,-83
32.47,-40,-19,0,-3,-1,-2,-4,-17
32.475,21,-3,8,-3,-1,0,-3,6
32.48,-3,2,7,6,3,2,8,-1
32.485,26,19,-22,-1,0,-1,1,35
32.49,-44,-9,14,0,0,0,-2,-19
32.495,8,-12,4,2,-2,-4,-1,-1
32.5,0,11,-1,-1,-1,0,3,7
32.505,8,2,6,4,1,1,0,15
32.51,-37,6,-5,-7,-2,-2,0,-27
32.515,12,3,-2,2,-1,-2,-4,1
32.52,8,10,3,4,2,2,2,5
32.525,1,4,4,-4,-2,-2,-2,2
32.53,-30,-9,-5,-2,-3,-4,-6,-18
32.535,13,-27,17,-2,-3,0,0,10
32.54,-2,5,2,2,2,-1,1,1
32.545,1,-1,1,1,1,-1,0,3
32.55,-18,8,-5,-4,-2,-3,-3,-8
32.555,7,5,-13,-5,0,0,0,4
32.56,-3,13,-1,0,1,2,1,-7
32.565,3,0,7,-2,0,-1,-2,3
32.57,-9,-8,-6,-4,-4,-2,-2,-6
32.575,1,1,1,1,-4,-2,-2,-3
32.58,-8,-9,-42,0,4,-4,-2,-5
32.585,5,2,-4,2,6,-1,-1,7
32.59,-12,-8,-7,-5,-9,-2,0,-7
32.595,3,-1,1,0,2,1,2,2
32.6,-3,1,-1,-3,-6,0,-2,0
32.605,4,1,5,0,8,-1,-3,3
32.61,-7,0,3,6,8,0,1,-5
32.615,2,1,1,-2,-10,-4,-1,0
32.62,3,6,13,6,6,1,-1,2
32.625,-1,-5,36,-1,-17,-3,-2,0
32.63,-8,-5,-2,-18,-8,-3,-2,-5
32.635,2,1,-5,-1,4,-1,-1,0
32.64,0,2,4,0,0,1,0,0
32.645,0,2,-7,5,2,-2,-3,-1
32.65,-6,-5,-6,2,11,1,-3,-4
32.655,2,0,5,-6,-3,3,1,2
32.66,-1,3,8,2,2,-6,-3,-3
32.665,1,1,-4,1,-4,-2,-1,2
32.67,-5,3,-28,-1,-11,2,0,-2
32.675,-1,5,-15,-1,16,4,-1,0
32.68,3,-2,4,2,-3,3,6,4
32.685,2,1,-11,-5,-3,-1,1,3
32.69,-1,0,1,4,1,-2,-2,-2
32.695,1,3,5,3,-6,-4,-4,-3
32.7,0,2,1,-5,-4,-4,-1,0
32.705,-2,-1,-4,4,22,4,3,-1
32.71,-2,-4,9,-3,-3,2,-1,-1
32.715,1,-1,1,-14,-14,-3,1,1
32.72,-1,-2,7,-4,-8,-5,-6,-2
32.725,2,-2,-4,-3,-5,-4,-1,0
32.73,-3,-5,3,2,8,3,-2,-1
32.735,-2,-5,-1,22,9,-2,0,-2
32.74,-1,4,-5,-3,-18,-4,-3,-4
32.745,7,-20,53,-21,0,5,7,7
32.75,1,-2,14,26,1,-5,0,0
32.755,-5,-6,-13,-11,-1,-2,-2,-3
32.76,0,0,-4,-3,-4,-1,-1,1
32.765,-4,5,-24,4,-1,1,-2,-2
32.77,-2,0,3,-8,-3,-4,-2,-1
32.775,-4,-7,7,-3,-10,-6,-2,-2
32.78,-4,-1,4,12,8,-7,-4,-4
32.785,1,8,0,9,11,7,2,1
32.79,-3,-5,-9,-34,-15,-3,-1,-3
32.795,-4,-2,-16,-3,-5,-6,-3,-5
32.8,-1,-2,1,-1,-9,2,-1,-1
32.805,-2,0,-13,-24,-5,-6,-3,-2
32.81,2,0,2,26,11,1,-1,0
32.815,2,2,5,10,18,3,2,2
32.82,-3,-5,-10,-12,4,4,2,0
32.825,-2,0,-7,9,-5,-5,-2,-1
32.83,-4,-2,-9,-22,-14,-6,-4,-3
32.835,1,2,10,-1,-7,-3,-1,-1
32.84,1,-6,2,-6,14,2,1,0
32.845,-1,14,-30,-15,-3,1,-3,0
32.85,-4,1,-7,63,-9,-7,-3,-2
32.855,-4,-9,-24,-45,-3,-2,-4,-3
32.86,4,5,5,20,3,3,1,0
32.865,-8,-5,-21,-89,-28,-10,-7,-7
32.87,2,8,-10,26,15,5,4,1
32.875,0,-8,24,7,8,-2,-2,1
32.88,0,0,5,20,3,5,1,1
32.885,-1,-3,-6,24,-2,-5,-1,-1
32.89,1,5,12,-1,7,6,2,2
32.895,-3,-2,-14,6,-11,-2,-1,-1
32.9,3,2,30,-7,-8,-2,2,1
32.905,-3,-6,8,38,7,-4,-3,-4
32.91,3,1,10,-8,26,3,2,0
32.915,2,0,-15,-34,-25,6,0,0
32.92,-14,-18,-44,-93,-44,-17,-11,-9
32.925,-2,-2,5,1,-10,-1,-3,-1
32.93,-6,-8,8,-10,-2,-7,-5,-3
32.935,9,16,35,36,33,12,9,5
32.94,2,5,-9,-7,-11,3,2,0
32.945,-6,-6,17,106,11,-4,-3,-3
32.95,1,-2,-9,-56,7,0,1,2
32.955,-2,-6,-11,-40,-5,6,0,-1
32.96,8,10,21,41,20,8,5,6
32.965,-2,-13,-26,-22,-29,-13,-7,-2
32.97,-11,-9,-11,-13,-52,-13,-9,-11
32.975,4,5,6,27,14,0,5,-2
32.98,-3,2,8,18,1,-5,-3,-3
32.985,2,2,-7,29,29,9,6,0
32.99,-3,-6,-20,-38,-14,-6,-13,-6
32.995,-2,-3,20,87,3,-4,5,5
33,4,7,-2,7,29,9,2,2
33.005,-4,-8,-6,-53,-26,-7,-7,-12
33.01,1,3,21,83,37,15,14,12
33.015,-5,-2,-12,-74,-36,-17,-11,-5
33.02,1,3,22,15,-3,-4,-4,1
33.025,5,9,4,-36,9,8,4,3
33.03,0,8,-17,47,-5,-4,-3,-3
33.035,-4,-8,-12,-54,2,1,-2,-4
33.04,-3,-3,-2,-1,7,-9,-1,-2
33.045,1,1,-1,-69,-10,7,-1,0
33.05,3,4,9,9,17,5,1,1
33.055,-5,-2,-6,90,-15,-10,-4,-1
33.06,5,-4,-9,-63,-4,2,1,0
33.065,-12,-2,-4,-24,-1,-3,1,-5
33.07,5,0,4,-56,7,4,4,5
33.075,-7,-8,-8,41,-19,-14,-8,-8
33.08,-4,-9,-10,55,3,-2,-5,-5
33.085,3,1,-1,-9,-7,0,2,4
33.09,-2,-3,18,73,7,-2,2,-1
33.095,1,-3,-13,-75,8,-1,-2,-2
33.1,-3,3,-2,8,-5,11,5,2
33.105,2,0,0,34,0,-11,-2,3
33.11,-10,-9,-12,-68,-14,-5,-9,-15
33.115,5,7,4,-32,6,6,6,5
33.12,-3,0,10,60,20,6,1,-1
33.125,-6,-12,-15,-21,-6,-7,-5,-2
33.13,-2,-7,-3,4,-29,-12,-4,-2
33.135,5,10,15,-29,19,9,3,3
33.14,-6,-8,-11,-12,-23,-15,-9,-5
33.145,-2,-3,-2,-5,-7,-4,-2,-3
33.15,3,3,6,-7,8,3,1,3
33.155,-3,-3,4,36,-4,-3,-5,-3
33.16,7,0,-13,-61,1,1,0,3
33.165,-9,8,15,68,20,7,1,0
33.17,-5,-9,-8,-4,-14,-10,-6,-5
33.175,4,3,-3,-33,-7,3,0,3
33.18,-6,-10,-18,19,-8,-12,-7,-5
33.185,3,5,13,25,6,3,1,2
33.19,4,12,76,-13,-10,0,3,4
33.195,-2,9,0,-5,15,5,3,-2
33.2,-1,0,-6,62,9,3,3,2
33.205,2,-2,8,-13,-4,-2,0,0
33.21,2,4,-4,7,12,5,4,4
33.215,-5,-10,-32,-14,-10,-3,-7,-8
33.22,-6,-5,-4,-37,-11,-9,-4,-6
33.225,4,5,11,33,17,3,0,2
33.23,-5,-9,-38,-21,-15,-6,-1,-2
33.235,-1,0,17,43,13,2,-8,-4
33.24,-3,-2,-9,-23,1,3,3,0
33.245,-1,-5,-2,-21,1,0,5,4
33.25,3,-1,-5,-1,8,4,-1,2
33.255,-5,-9,2,33,-11,-9,-4,-1
33.26,-1,-1,8,-51,-3,0,2,-2
33.265,-4,-7,-16,11,-5,-7,-8,-8
33.27,-1,-4,-5,3,-4,-4,0,-2
33.275,12,-11,33,-8,-4,0,5,1
33.28,-12,3,11,6,8,4,-1,-2
33.285,13,-5,-3,37,-13,-3,4,6
33.29,-16,-6,-10,12,2,1,-1,-5
33.295,4,5,-6,13,6,1,1,0
33.3,3,2,7,6,-1,-5,-2,0
33.305,5,1,6,-26,4,5,5,4
33.31,4,0,-5,-24,5,0,-8,-6
33.315,-7,-4,-4,28,-18,-8,-2,1
33.32,-1,1,0,-22,1,1,3,1
33.325,-6,0,-13,-2,10,8,0,-2
33.33,-2,-3,-15,-2,-2,-5,-3,-1
33.335,0,-9,13,12,12,2,1,1
33.34,2,-11,-2,-41,-19,-5,-3,-7
33.345,-3,2,0,-39,-11,-6,-5,-1
33.35,-2,-3,-3,44,11,5,4,1
33.355,-1,-1,-13,-10,-4,-4,-2,0
33.36,2,2,0,24,2,2,-1,0
33.365,2,2,10,-4,0,-2,1,-2
33.37,1,0,12,3,-2,0,3,0
33.375,-2,7,-9,10,11,3,-1,0
33.38,-1,-1,-6,-16,0,-3,-4,0
33.385,-4,-3,-3,46,-4,-3,-6,-5
33.39,-8,-12,-35,-92,-27,-11,-9,-5
33.395,-2,6,9,-21,5,-2,0,-6
33.4,0,-3,-8,-6,-5,5,4,2
33.405,2,4,13,9,22,9,3,1
33.41,5,-1,8,11,-9,-2,7,4
33.415,-3,-2,-12,15,2,-1,-5,-6
33.42,9,14,16,-33,15,7,5,3
33.425,-8,-10,-18,20,-27,-11,-8,-7
33.43,-6,-6,-65,-14,-7,-6,-7,-6
33.435,-3,1,-4,-19,-11,-2,1,2
33.44,-4,-1,4,36,5,-4,-4,-2
33.445,1,2,-1,-44,0,2,3,0
33.45,-1,0,1,1,6,-2,-1,5
33.455,-3,0,2,-10,-5,2,3,2
33.46,-1,-5,-8,-4,3,1,-1,3
33.465,-4,-4,-7,-12,-6,-5,-4,-13
33.47,0,-2,9,-5,-9,-3,0,10
33.475,1,-2,1,-12,-7,-7,-9,-20
33.48,1,1,12,40,7,1,0,1
33.485,-1,3,12,16,7,2,-3,0
33.49,11,10,-12,1,9,7,4,5
33.495,9,-3,-7,-19,-3,-1,25,25
33.5,-28,-12,-31,-23,-20,-9,-24,-31
33.505,-1,1,2,-23,-9,-7,-11,-5
33.51,9,3,12,-9,5,2,-2,13
33.515,1,5,15,59,22,7,3,1
33.52,-2,-7,-13,20,-15,-5,3,2
33.525,0,1,0,6,0,7,19,22
33.53,0,1,24,7,1,1,8,20
33.535,-14,-11,-36,-26,-10,-11,-47,-60
33.54,3,1,16,19,7,-4,2,-7
33.545,7,-7,-8,29,-2,-4,-12,-10
33.55,-27,4,0,-28,-2,-2,7,8
33.555,8,-8,6,20,1,1,14,30
33.56,-14,1,-8,-4,1,-3,-4,-11
33.565,13,8,14,37,2,2,3,1
33.57,14,-2,-1,-8,7,17,5,3
33.575,15,-2,-15,3,-9,-5,5,8
33.58,-22,0,6,31,3,-1,1,-9
33.585,3,-1,-1,-48,-9,-5,19,39
33.59,-7,-8,0,-47,-1,0,-33,-61
33.595,4,3,2,-6,-4,-3,-12,-4
33.6,20,-2,-2,18,2,2,11,16
33.605,-21,8,-19,10,10,3,2,-8
33.61,-1,-13,8,7,-8,-14,-8,-6
33.615,22,2,-8,-18,-11,-3,6,16
33.62,4,16,7,29,1,-3,-3,3
33.625,10,4,-14,-57,-11,-3,-7,-13
33.63,-6,-1,2,45,9,3,15,19
33.635,-21,-30,-3,-48,0,3,7,-13
33.64,-33,-10,-10,18,-13,-9,-22,-13
33.645,29,4,12,4,2,-6,-38,19
33.65,-2,0,5,14,8,4,5,-54
33.655,-36,9,-2,12,-12,-10,-10,-6
33.66,19,-5,-10,-23,-1,6,25,18
33.665,-28,-15,3,18,9,-6,3,-6
33.67,10,13,-17,10,-9,-10,-2,18
33.675,2,0,-9,-23,8,5,2,-11
33.68,-11,-13,4,60,14,12,-1,3
33.685,21,8,-10,-56,-15,0,8,-16
33.69,-21,-11,1,-29,-12,-8,-10,10
33.695,15,1,-6,-4,-7,-5,5,18
33.7,-9,6,0,-33,-4,-7,-14,-4
33.705,-9,-21,2,37,14,14,3,-5
33.71,3,4,4,25,7,-1,-2,-13
33.715,-19,-16,3,-40,-6,-2,3,10
33.72,13,2,1,-20,-13,-11,13,3
33.725,-9,-1,-3,-1,2,2,-12,-21
33.73,33,6,4,18,-6,-2,13,14
33.735,-9,19,7,22,4,-1,-18,13
33.74,-4,-12,-6,-8,5,1,-18,-31
33.745,-5,1,5,-14,-7,-6,14,16
33.75,-12,-3,17,22,12,4,-22,-9
33.755,36,28,15,-30,-9,0,8,3
33.76,2,-9,-4,33,-4,-2,6,18
33.765,-8,-5,-8,-26,-8,-3,5,5
33.77,3,9,-7,-6,3,-1,0,-2
33.775,-3,12,8,-4,3,1,-7,-6
33.78,13,8,3,22,3,1,3,3
33.785,-12,-13,5,11,4,-1,-3,-16
33.79,-2,-6,-14,-25,-8,3,15,15
33.795,-7,-7,-5,57,6,1,5,17
33.8,15,-6,-5,-29,-16,-8,-28,-28
33.805,-17,0,-10,7,2,13,6,-14
33.81,-15,-2,16,100,14,-12,-22,-27
33.815,9,-6,-16,-41,-18,3,11,16
33.82,-3,7,-1,-15,-3,1,15,2
33.825,-22,-29,3,20,5,1,-4,8
33.83,11,-4,2,2,-3,-3,3,-8
33.835,-27,-10,2,20,4,-2,-19,-22
33.84,23,8,-20,-16,3,-1,8,31
33.845,34,40,-16,-23,-12,-13,-23,-87
33.85,-62,-16,-6,-24,2,2,-12,-4
33.855,2,-6,-13,28,8,3,33,10
33.86,-6,-5,-17,-60,-20,-11,-40,-23
33.865,-1,3,6,35,3,-3,8,33
33.87,19,0,4,-32,-8,-1,-1,0
33.875,5,9,23,108,27,9,7,-8
33.88,-19,-15,-24,-95,-22,-2,15,30
33.885,8,-7,-5,31,-6,-1,19,-14
33.89,2,0,2,3,-9,-9,-43,-7
33.895,-5,-3,8,-1,1,-4,-16,7
33.9,20,3,13,19,17,5,21,50
33.905,-10,11,12,0,-1,-1,-26,-53
33.91,-12,-3,-1,-25,-7,2,35,-3
33.915,-1,-3,-1,-9,1,-3,-14,-5
33.92,1,0,16,11,0,-3,-19,-11
33.925,4,-2,-1,-23,1,-1,21,53
33.93,0,-12,-16,37,10,7,3,17
33.935,-3,3,-32,-38,-12,-4,-11,-15
33.94,-4,1,-7,10,6,5,22,-1
33.945,-2,-4,5,11,5,-2,-2,7
33.95,18,-3,-19,-47,-13,-5,0,4
33.955,-13,-1,-4,-18,-3,-1,7,-46
33.96,-13,-10,-1,-4,1,1,-21,9
33.965,-10,13,2,21,8,3,29,-26
33.97,-8,-5,-2,5,-10,-8,-46,11
33.975,1,1,6,-21,-6,-2,4,2
33.98,-33,-25,9,16,2,0,3,-38
33.985,4,-2,-5,7,2,-4,6,41
33.99,9,-8,16,1,-2,4,29,6
33.995,16,12,0,2,-3,-3,-27,-37
34,4,10,9,4,2,2,17,7
34.005,4,-3,-10,-9,-4,-1,-19,12
34.01,11,2,0,-8,4,5,16,17
34.015,-6,-20,1,25,-1,-2,-2,50
34.02,7,15,-11,9,2,-4,1,-40
34.025,-18,-10,7,-6,-5,-2,-8,7
34.03,14,-7,-11,-7,1,1,6,-12
34.035,9,-2,3,2,0,2,7,19
34.04,13,19,-1,8,-1,2,9,10
34.045,-14,-7,7,3,0,-3,-9,31
34.05,32,17,5,11,2,2,-10,0
34.055,0,-5,1,-11,1,4,8,-1
34.06,6,-26,-1,-12,-5,-1,15,50
34.065,2,41,6,-5,-3,-8,-41,-53
34.07,19,-21,4,3,0,2,25,49
34.075,1,-9,-2,1,0,-2,2,-5
34.08,-45,-7,17,19,6,4,10,8
34.085,15,1,24,-5,-2,-2,-8,-8
34.09,7,26,-15,-10,-7,-5,-5,-16
34.095,-2,2,-9,-2,1,-3,-1,15
34.1,14,5,51,9,8,5,7,7
34.105,83,7,26,2,0,2,6,43
34.11,-45,-4,37,9,1,-1,-10,-40
34.115,-61,-12,-6,-6,-4,0,-5,-54
34.12,68,35,-21,-9,-4,-8,-18,2
34.125,-56,-26,-17,-5,-1,4,23,-47
34.13,-2,9,-7,-6,-2,-3,10,-18
34.135,-37,-42,-2,-4,-2,-5,-22,25
34.14,66,14,-4,-8,-6,-2,-14,-63
34.145,-73,-48,-32,-6,-8,-6,20,36
34.15,-42,-5,11,11,7,1,-10,31
34.155,96,63,6,1,4,9,27,-19
34.16,-98,1,-60,-12,-11,-13,-20,58
34.165,-25,7,-17,-6,-1,-3,-12,7
34.17,-26,-24,-14,0,-2,-1,9,14
34.175,17,59,17,0,1,1,3,-34
34.18,56,36,10,4,-2,3,-2,12
34.185,70,-48,-1,1,5,8,27,55
34.19,-58,-3,-6,-2,-2,-2,15,-20
34.195,-19,-19,-29,-18,-10,-7,-13,2
34.2,13,-63,-11,-2,-6,-11,-47,-29
34.205,-85,74,3,0,2,-1,-1,37
34.21,125,19,-13,-8,-5,-6,-11,0
34.215,-59,3,21,6,3,1,12,28
34.22,-51,-61,-5,-1,2,2,24,-7
34.225,38,25,20,-2,-3,0,-4,-66
34.23,10,33,4,7,0,3,-2,19
34.235,16,11,-16,-11,-8,-7,19,13
34.24,-23,-34,9,-2,-2,-5,-40,-52
34.245,-59,36,32,16,7,1,-33,11
34.25,23,85,-15,-6,-4,-8,0,-8
34.255,43,45,5,8,-1,5,43,-23
34.26,52,-50,26,5,7,-1,-65,-56
34.265,64,-9,-32,-21,-8,-1,40,70
34.27,-16,6,12,9,1,1,-23,9
34.275,8,-31,0,4,3,5,-38,23
34.28,-39,30,-10,6,7,8,5,57
34.285,84,43,13,8,1,7,50,30
34.29,-128,-100,-17,-12,-11,-18,-65,-58
34.295,49,-40,-13,-6,-4,1,8,67
34.3,-27,-20,-3,-4,0,7,36,-4
34.305,48,-12,-61,-10,-7,-12,-43,-85
34.31,-19,-21,19,4,-1,4,32,28
34.315,13,-41,-14,-7,-3,-6,-42,-86
34.32,-28,37,-2,5,1,-3,7,28
34.325,4,-16,-11,-8,-3,0,56,29
34.33,20,-41,-29,-25,-11,-13,-63,-97
34.335,-70,-72,-2,5,3,1,5,55
34.34,-23,-11,-29,-1,-4,-1,11,13
34.345,109,-9,0,5,1,5,10,42
34.35,-79,-9,-48,-2,-5,4,41,-73
34.355,71,25,16,4,-1,-6,-33,65
34.36,30,36,24,5,5,2,37,12
34.365,-128,-89,-6,2,0,-3,-37,-119
34.37,51,104,28,8,9,10,60,22
34.375,-72,-7,-14,-11,-9,-17,-82,-37
34.38,-1,32,0,-5,-3,-4,-2,-11
34.385,67,-52,-4,3,2,5,17,6
34.39,-20,62,7,-8,0,5,4,114
34.395,-21,21,42,19,-2,-4,23,-95
34.4,-53,38,-22,-4,-10,1,22,-27
34.405,-18,8,30,7,2,0,-41,54
34.41,117,68,-26,9,4,-1,15,-89
34.415,67,48,-8,9,8,-1,-69,52
34.42,26,19,-18,-15,-8,-1,39,-55
34.425,71,2,-1,-22,-7,-4,-58,107
34.43,25,-42,-5,11,-5,7,41,-40
34.435,-64,28,-3,4,-1,-9,-1,1
34.44,-16,7,58,20,7,8,74,6
34.445,64,-17,-5,8,11,7,-69,41
34.45,-35,-10,13,-11,-5,-12,-128,126
34.455,61,-26,-20,-31,-12,4,118,27
34.46,-23,71,11,8,4,-1,-90,-38
34.465,-122,-43,-1,-13,-13,-9,63,34
34.47,49,-8,64,20,22,20,33,-46
34.475,-32,-82,16,10,-2,1,18,110
34.48,-14,-5,13,-7,5,-2,-31,61
34.485,45,19,-11,-11,-12,-8,19,-35
34.49,-61,30,5,2,-9,-7,43,-64
34.495,10,-1,-14,-15,1,-2,-68,-54
34.5,78,-24,19,9,1,1,40,46
34.505,-59,-83,-21,1,-5,-10,-1,-120
34.51,20,5,49,5,0,-6,-24,47
34.515,-43,-6,-15,-9,-3,1,2,-95
34.52,112,78,-6,8,1,10,90,89
34.525,-108,43,13,1,2,0,-52,43
34.53,127,12,-35,-14,-5,-3,66,124
34.535,-19,77,30,11,8,5,28,19
34.54,-27,-10,-2,-9,2,2,-11,-52
34.545,59,60,-18,4,0,3,71,-20
34.55,16,-105,-40,-28,-2,-4,-73,17
34.555,0,73,-2,-4,2,5,19,1
34.56,56,-16,-12,4,3,4,21,-44
34.565,95,15,16,13,9,10,27,37
34.57,-84,-31,-5,-4,-7,-10,-22,-105
34.575,47,19,13,4,3,5,-17,90
34.58,-91,-90,-36,-16,-16,-20,-44,22
34.585,-16,-53,-15,-1,-5,-8,-22,53
34.59,77,-15,-15,-2,4,15,78,-18
34.595,-82,-32,-4,-5,-5,-8,-72,-112
34.6,-13,5,17,-10,-12,-15,-4,13
34.605,-45,43,35,-7,-3,-2,32,-55
34.61,55,-41,-11,-7,-1,-2,-22,71
34.615,-12,-40,15,21,4,-1,36,-61
34.62,35,43,-47,-10,-8,-1,7,22
34.625,-90,9,-8,-16,-7,-15,-96,-126
34.63,52,47,13,-18,-4,2,18,20
34.635,-38,-46,-22,-7,-7,0,67,40
34.64,-20,-7,31,13,8,0,-66,17
34.645,-73,-15,3,11,1,3,64,-101
34.65,0,67,2,5,2,1,6,-50
34.655,47,17,18,5,2,4,39,69
34.66,57,-31,5,2,1,-6,-27,-10
34.665,29,43,-15,-17,-6,4,102,42
34.67,-50,-24,3,17,3,-8,-69,-22
34.675,19,-6,-13,-12,-3,0,0,-68
34.68,35,14,3,-6,-5,-5,-15,-53
34.685,55,-71,-12,-2,-4,-5,-15,90
34.69,-89,45,-16,8,3,-3,11,14
34.695,17,24,37,-1,1,7,39,-58
34.7,-42,-66,2,3,4,-4,-62,22
34.705,-38,61,45,13,6,1,-36,-85
34.71,-18,17,-11,0,-4,-5,4,42
34.715,-55,-92,-27,-14,-8,-10,-33,-36
34.72,12,34,-22,1,2,3,29,47
34.725,-34,7,-2,-6,-2,-3,-31,22
34.73,95,-23,17,6,1,2,-6,-57
34.735,14,47,0,4,-3,-4,9,43
34.74,-7,-14,-8,-11,0,-1,-7,-22
34.745,0,-2,-7,17,0,-1,-29,2
34.75,-25,-48,-24,-17,-5,-2,22,16
34.755,45,15,-14,3,7,5,-4,44
34.76,-26,-20,2,-4,-3,0,16,-40
34.765,21,5,-1,4,-2,-2,-8,16
34.77,-38,-8,3,2,-2,-5,-15,-30
34.775,19,-10,-8,-3,-4,-4,-1,6
34.78,-12,4,-2,-10,-2,0,26,17
34.785,-20,8,-3,4,-3,-9,-39,-77
34.79,-4,-14,5,6,0,0,11,32
34.795,-1,5,-12,-4,-1,-2,0,18
34.8,-2,-1,-2,0,-2,-1,3,-25
34.805,25,10,2,-9,-1,2,0,25
34.81,-26,-24,9,-5,-2,-2,3,0
34.815,6,18,18,-6,-6,-4,-13,7
34.82,0,0,1,7,1,-1,1,3
34.825,11,-4,2,-7,-3,-2,4,5
34.83,-9,-1,1,5,3,4,43,75
34.835,-2,12,-9,1,3,2,-45,-86
34.84,4,-1,-1,-19,-4,-3,6,12
34.845,-1,2,-5,19,2,1,2,17
34.85,-7,-3,-7,1,-8,-2,2,-3
34.855,8,-8,-11,-2,0,-1,6,31
34.86,-6,-3,1,6,5,2,0,-13
34.865,7,1,-3,-4,4,2,0,-10
34.87,-3,-6,-5,-4,-3,-1,-10,-5
34.875,10,-2,34,9,-2,-4,9,20
34.88,-5,-1,-3,8,3,2,-4,-9
34.885,3,-4,-4,-28,-5,4,10,16
34.89,-5,-4,-6,-4,-5,-1,-9,-4
34.895,0,-7,-16,-1,-4,-4,0,12
34.9,2,4,9,15,0,1,7,-2
34.905,4,0,2,-1,-1,-2,-4,3
34.91,-9,0,-6,10,7,-5,-8,-7
34.915,-1,-7,-22,-17,3,7,5,6
34.92,0,4,-8,0,-7,2,0,-1
34.925,2,-9,15,4,2,-2,-1,-1
34.93,-3,2,13,7,21,3,-8,-4
34.935,0,8,2,16,-10,-6,6,12
34.94,-1,-2,-17,6,-11,0,1,-1
34.945,1,6,-10,-7,-2,2,-2,0
34.95,-7,-7,-10,-38,-23,-11,-5,-6
34.955,2,-7,-1,-2,-5,-5,0,6
34.96,-1,4,9,-6,13,2,0,-2
34.965,2,3,9,33,6,0,1,-2
34.97,-2,-6,-22,4,10,3,-2,1
34.975,-9,4,-59,-38,-7,0,-4,-1
34.98,-8,-11,-43,-10,-17,-9,-8,-7
34.985,0,-1,-15,-22,-1,-5,1,5
34.99,-2,-8,20,10,-10,-1,-1,-1
34.995,4,3,8,31,9,4,4,7
35,0,-3,0,-21,2,0,3,0
35.005,4,-6,18,14,15,7,0,1
35.01,3,2,12,37,7,-1,1,1
35.015,1,-6,-4,-17,-4,-1,1,2
35.02,-2,-2,20,18,14,-3,-2,-1
35.025,-2,-8,-4,-79,-26,-3,-1,0
35.03,-5,-3,-7,-4,-15,-3,-4,-4
35.035,2,-6,15,12,9,4,3,6
35.04,4,5,1,33,10,4,4,2
35.045,-3,7,-11,3,-6,-2,-3,-4
35.05,-1,1,3,56,9,1,0,1
35.055,2,-14,12,-38,6,3,1,1
35.06,-4,-6,-11,-75,-22,0,-3,-5
35.065,-1,3,1,62,-4,-5,1,-1
35.07,3,5,9,-5,2,0,-1,0
35.075,0,13,12,66,14,-2,-2,-2
35.08,1,-1,-2,-33,-6,-1,-1,-1
35.085,3,-36,58,-11,-12,-5,1,3
35.09,1,2,37,-7,-15,-3,-1,1
35.095,3,11,13,75,21,5,5,2
35.1,-3,-8,-9,-17,-11,-7,-4,-2
35.105,-3,9,-38,-54,5,0,-4,-3
35.11,4,11,13,14,13,10,5,5
35.115,1,-16,-5,5,-12,-10,-8,-5
35.12,-2,-3,-2,22,-11,-7,0,28
35.125,-4,9,-11,15,-5,-5,-6,-17
35.13,-2,-4,-4,-12,11,1,-1,6
35.135,2,11,-2,-77,6,8,5,-2
35.14,-1,-5,-1,6,1,-3,0,13
35.145,-2,2,-13,-32,-12,-4,-4,3
35.15,-2,-4,7,17,14,8,1,-8
35.155,-5,-7,-15,39,-9,-6,-1,8
35.16,1,7,26,26,2,0,-1,-13
35.165,0,7,6,41,12,0,-1,1
35.17,-1,-4,-4,38,-1,0,-1,-4
35.175,-5,13,-57,-113,-16,0,-3,-5
35.18,0,10,13,59,5,1,-3,-5
35.185,-1,0,-22,-6,5,4,0,-3
35.19,1,-12,-24,-24,-1,2,5,7
35.195,-5,-6,-18,-44,-19,-11,3,7
35.2,-1,-26,16,68,-1,-1,7,-17
35.205,2,5,-6,-30,14,5,-15,42
35.21,-7,2,-25,79,-5,-6,-5,-15
35.215,-2,-4,4,-74,-16,-6,-10,-6
35.22,3,11,14,10,12,5,6,-5
35.225,-3,-10,-2,65,-6,-9,5,12
35.23,3,-1,-7,-50,1,3,0,2
35.235,-6,-16,-6,2,-27,-6,-4,-11
35.24,3,9,27,81,29,3,1,15
35.245,-3,-1,-4,-15,-10,0,-1,-21
35.25,-1,4,-12,-36,-12,3,-1,2
35.255,-1,-4,21,106,10,-3,0,-4
35.26,-2,-2,-21,-1,1,1,-5,-5
35.265,5,12,19,86,35,4,5,-4
35.27,-3,-2,-2,-62,-30,-5,-2,-9
35.275,-2,-17,-32,-74,-10,-2,11,19
35.28,2,5,18,-21,8,3,-17,-7
35.285,-9,-12,-20,71,-13,-11,0,-14
35.29,1,3,9,-40,2,-3,1,9
35.295,5,8,25,93,31,8,1,-1
35.3,-6,-8,-28,-18,-30,-6,1,-1
35.305,-2,-2,-14,41,-12,-6,0,13
35.31,-14,-13,-42,-87,-18,-11,-18,-74
35.315,2,5,34,90,9,2,2,5
35.32,1,2,4,-1,16,2,1,-7
35.325,2,6,5,-19,8,4,-1,3
35.33,5,7,15,72,29,9,11,24
35.335,-6,-8,-10,21,-21,-10,-12,-15
35.34,-5,-11,-14,36,-25,-12,-6,-9
35.345,-2,3,17,3,4,1,-6,-9
35.35,3,-1,-5,22,10,12,-1,14
35.355,3,9,10,-80,22,8,9,1
35.36,-5,-4,-20,-59,-15,-1,1,10
35.365,4,4,10,47,18,5,3,-3
35.37,-5,-8,-12,-49,-39,-13,-7,5
35.375,-3,-6,-10,-30,-9,-4,-12,-7
35.38,-2,-4,-13,15,-3,-4,-1,-4
35.385,-3,-2,8,-19,-8,-3,-3,-7
35.39,3,5,11,10,13,1,4,8
35.395,0,0,3,-5,4,4,2,4
35.4,4,6,20,22,20,5,0,2
35.405,-6,-8,-19,20,-24,-6,-6,-13
35.41,-1,2,9,111,11,-7,-4,2
35.415,1,-2,11,24,-10,-4,1,4
35.42,-4,-6,-19,-44,3,4,1,-3
35.425,2,4,13,-22,2,1,5,1
35.43,-4,-4,-3,-5,-13,-9,-8,-4
35.435,-1,-1,-1,41,-2,2,-1,2
35.44,-2,1,-4,-61,-1,3,2,-2
35.445,1,1,6,-5,2,1,-6,2
35.45,0,0,1,-22,3,-1,7,3
35.455,5,1,-2,-7,3,-3,-4,-2
35.46,-9,1,12,55,5,2,2,2
35.465,-1,-4,-17,-40,-3,1,-2,-5
35.47,-3,-4,-1,-14,-12,-6,-4,-1
35.475,-6,-6,-4,30,1,-6,-7,-6
35.48,-1,-5,-16,-88,-16,-6,-1,-1
35.485,-4,0,2,10,-1,-2,-2,-4
35.49,0,0,7,16,4,2,1,3
35.495,-3,-5,-20,-44,-13,-7,-2,1
35.5,4,4,13,59,18,6,-8,-5
35.505,-2,-2,-11,-105,-5,4,9,1
35.51,-7,-8,-18,-15,-15,-3,-7,-3
35.515,-2,1,8,26,1,-2,-1,1
35.52,3,3,3,-25,3,5,3,2
35.525,3,3,6,30,12,1,3,1
35.53,2,6,15,98,17,2,1,-4
35.535,-1,-13,-23,-23,-22,-3,-7,-3
35.54,-7,3,7,-25,0,-1,1,2
35.545,3,9,17,25,3,1,7,3
35.55,9,-4,13,5,3,-1,5,3
35.555,-1,-7,0,-6,7,5,-3,-4
35.56,5,-2,-11,-2,-6,-4,0,3
35.565,-2,-5,-23,-29,-12,-10,-4,-3
35.57,-5,5,-2,-33,6,5,-3,-2
35.575,-2,-2,-5,54,-3,0,0,-1
35.58,0,-8,-7,-76,-15,-3,-1,0
35.585,-5,-3,5,23,-3,1,-4,-3
35.59,2,0,-9,-114,-20,-5,-1,2
35.595,-2,-2,-7,53,-3,-4,-3,-3
35.6,-3,0,4,62,1,-1,-1,-3
35.605,-1,-1,2,18,6,1,1,0
35.61,-2,-4,-15,-24,-22,-11,-6,-2
35.615,0,7,7,1,13,1,4,2
35.62,-7,-9,-18,8,-35,-15,-9,-3
35.625,0,-1,-1,-11,6,9,2,-11
35.63,7,12,26,-16,36,17,12,11
35.635,-8,-9,-7,101,-20,-13,-8,-5
35.64,3,2,12,21,7,-1,0,-1
35.645,4,-3,-1,-38,-5,-4,0,7
35.65,-8,-5,-14,1,-2,-3,0,0
35.655,2,6,4,-68,5,5,-3,-10
35.66,1,3,-1,-13,0,-1,-1,0
35.665,-1,-5,-7,14,-9,-7,-2,-2
35.67,-5,-9,-12,22,-1,0,1,-4
35.675,6,3,2,-32,7,0,4,14
35.68,-4,-7,-12,-11,-16,-6,-2,-3
35.685,-3,-1,-8,10,9,3,0,-4
35.69,1,-1,2,42,-4,0,-3,12
35.695,-3,-3,-6,-34,-1,-2,0,-2
35.7,4,6,16,6,20,6,1,-1
35.705,-4,24,-14,68,-8,-8,-7,-1
35.71,-12,-31,-58,-60,-22,-10,-4,-20
35.715,0,2,2,-4,-2,1,0,3
35.72,-1,-2,2,5,9,2,-4,-11
35.725,-3,0,-4,3,4,2,4,7
35.73,4,6,8,31,2,-5,-6,-3
35.735,-2,4,-1,-2,4,2,0,-5
35.74,-4,-6,-17,-8,-13,-7,2,6
35.745,3,-6,8,-25,-2,-4,-10,27
35.75,-8,2,1,-7,-1,-2,-4,-11
35.755,2,1,14,4,7,2,5,0
35.76,-5,4,-1,16,1,-1,-2,-7
35.765,1,0,4,-57,-8,1,3,6
35.77,2,-5,4,22,-5,0,1,4
35.775,-5,2,-1,-73,-15,-8,-7,-5
35.78,8,10,36,1,15,9,8,12
35.785,-3,-2,-10,31,0,-2,1,-11
35.79,3,-1,23,5,2,1,-3,1
35.795,0,1,-7,-29,5,6,4,-4
35.8,4,2,6,72,20,5,4,2
35.805,-11,-30,-26,-36,-46,-19,-13,-15
35.81,6,11,19,36,13,2,4,-3
35.815,0,-2,2,17,3,1,0,5
35.82,-2,-6,-1,-13,-5,-2,-1,-3
35.825,2,1,6,7,9,2,-3,-12
35.83,-3,4,-2,6,6,1,2,10
35.835,2,-4,4,26,-3,-1,22,25
35.84,1,1,-5,-6,1,2,-20,-60
35.845,-13,-6,-7,65,5,-6,-6,-6
35.85,-5,-9,-27,-18,-32,-10,-4,-1
35.855,-3,-4,-10,21,-6,-7,-13,-13
35.86,1,-2,-4,-15,-9,-8,5,14
35.865,7,5,19,23,13,14,17,15
35.87,-2,-1,2,-1,15,7,-3,-10
35.875,-4,-1,-1,2,6,10,-8,-2
35.88,-2,-3,-9,-12,-9,-13,-11,5
35.885,0,-2,0,-34,0,-3,-6,-5
35.89,-1,-1,-7,-41,-16,-6,16,10
35.895,-2,8,-25,30,3,4,6,2
35.9,-6,-9,-15,-35,-8,-3,-7,-3
35.905,3,2,1,-25,4,4,11,-7
35.91,3,4,12,20,1,1,-5,-5
35.915,-5,-1,-1,10,-2,-7,-6,-12
35.92,2,-6,-6,-1,-9,-5,-9,22
35.925,-9,-8,-12,-21,-4,-6,-14,-7
35.93,-3,-1,-2,25,11,2,6,-4
35.935,4,0,14,-18,6,6,-2,-2
35.94,0,-4,-10,12,-9,-5,10,13
35.945,0,-2,7,-2,-2,0,12,0
35.95,7,4,11,26,5,-4,-6,41
35.955,-18,-8,-9,-38,-4,-7,-25,-87
35.96,1,0,5,7,-6,7,23,31
35.965,2,-1,-1,-1,-1,-7,-48,-19
35.97,-3,0,6,32,7,3,8,6
35.975,9,2,3,-39,5,2,11,28
35.98,-4,-5,-10,2,-4,2,12,-17
35.985,-1,0,7,1,4,1,8,7
35.99,-3,-1,-14,-51,-8,-5,-4,-11
35.995,4,0,11,38,8,0,-22,-4
36,-3,-1,4,20,5,-3,-10,-10
36.005,0,-3,-13,-71,-8,1,7,8
36.01,-1,-2,-1,15,3,9,14,-5
36.015,0,-2,-5,24,-5,1,-1,4
36.02,1,3,2,-12,-1,10,1,39
36.025,2,-1,1,21,-2,-16,2,-65
36.03,-15,-1,-5,-20,-2,-4,-12,-10
36.035,4,-2,3,5,-3,4,14,22
36.04,1,-1,-6,-1,1,-2,2,3
36.045,1,2,7,-7,-6,-1,3,1
36.05,0,-1,-6,-2,-1,-7,-25,0
36.055,0,-1,0,10,-5,-9,5,21
36.06,-2,-5,-3,3,0,-4,-25,-20
36.065,-3,4,-1,-7,4,7,14,7
36.07,0,0,4,2,-4,-2,11,-8
36.075,1,-1,0,-3,4,4,14,46
36.08,-11,-3,-8,-19,-7,-14,-47,-90
36.085,2,1,6,38,2,-2,4,38
36.09,1,0,2,-12,2,6,-1,9
36.095,2,0,-1,-12,-8,-2,6,-10
36.1,13,-2,-7,-1,0,1,21,27
36.105,-18,-7,-3,-11,-1,-1,0,-4
36.11,-15,2,-3,10,2,-1,-20,-42
36.115,-1,-5,-5,9,-2,-2,5,3
36.12,-4,0,2,-2,-3,-2,2,-7
36.125,13,3,5,18,0,13,-3,53
36.13,-9,-9,-5,-17,-3,-20,-1,-19
36.135,-4,2,5,-12,0,-1,-8,-15
36.14,-1,0,0,9,6,3,15,32
36.145,-8,-5,0,-18,-8,-3,-39,-58
36.15,3,2,-1,8,-3,1,4,1
36.155,1,-1,-2,5,-2,-3,-9,-10
36.16,6,-2,-4,-11,-1,-3,25,34
36.165,-5,0,-1,-7,1,-2,-9,4
36.17,8,1,-4,-3,-2,2,-5,-6
36.175,-5,-2,0,6,-4,-5,-6,-7
36.18,-2,-1,2,7,6,9,14,26
36.185,1,1,-1,13,1,-1,6,0
36.19,4,-4,-2,0,-5,-1,7,7
36.195,1,-4,1,1,2,-1,-19,-4
36.2,1,4,7,-21,-3,-1,-6,-12
36.205,0,0,-9,-19,-4,-2,2,6
36.21,-3,-9,-6,15,-1,-1,-1,5
36.215,10,2,8,-2,-4,0,29,44
36.22,-7,-1,6,-5,5,1,-9,-22
36.225,36,20,-3,13,2,-4,-36,14
36.23,-46,-14,-4,-8,-2,2,14,-2
36.235,-16,-21,-8,-12,-2,-3,-4,-16
36.24,12,2,5,6,-2,0,-2,4
36.245,12,-8,0,2,-1,-2,13,13
36.25,18,25,-15,1,-1,-1,-10,3
36.255,2,-28,29,1,2,4,10,-2
36.26,-1,-2,-2,2,-5,-2,-9,-4
36.265,-7,-6,-10,-2,-1,1,12,-3
36.27,5,-5,-8,-11,-4,-4,-7,4
36.275,-10,5,-13,-1,-2,-2,-2,-15
36.28,20,13,-1,1,-2,-4,-14,0
36.285,-20,6,9,6,2,3,19,30
36.29,-14,-25,7,5,3,-1,-4,-71
36.295,16,20,-3,-15,-5,-3,-2,-9
36.3,-7,-20,30,17,3,2,2,1
36.305,-54,0,0,0,-3,-3,12,11
36.31,22,-9,2,-1,0,0,-5,-1
36.315,3,53,-3,-2,0,-2,-12,-18
36.32,26,12,-18,-3,-2,-5,0,22
36.325,-10,-10,-24,-4,-3,-2,17,-27
36.33,20,8,14,1,3,5,-1,49
36.335,-83,-88,-12,-15,-7,-5,-12,-28
36.34,69,3,3,6,1,1,10,53
36.345,-28,52,-13,-3,-9,-6,4,-61
36.35,48,3,-8,-3,-4,-4,-4,11
36.355,91,110,8,2,1,1,-32,-1
36.36,-95,-92,-19,-16,-6,-6,-4,-25
36.365,20,-26,9,3,4,4,6,57
36.37,1,12,0,1,-4,-4,-2,-83
36.375,26,-6,-12,4,2,0,10,17
36.38,-29,6,18,7,2,1,6,-15
36.385,19,-10,5,-2,1,-2,-22,-22
36.39,-31,-10,-9,3,-6,-2,25,75
36.395,52,-9,0,0,1,1,-9,3
36.4,-76,28,-13,-8,-4,1,1,-42
36.405,-1,-38,4,1,-2,-3,-5,-56
36.41,14,22,11,0,5,-1,-6,36
36.415,-7,-20,1,3,-2,1,8,-6
36.42,-13,-32,-20,-3,-6,-5,-4,-1
36.425,26,61,-22,7,4,1,-4,56
36.43,4,-18,20,-5,-2,1,0,-3
36.435,-61,11,-9,-5,-1,-2,24,-4
36.44,119,52,-4,6,1,-2,-28,24
36.445,-83,-42,-10,-2,-2,-2,-11,-24
36.45,41,17,0,-8,-2,-1,7,4
36.455,-70,-13,2,19,10,-3,-7,20
36.46,100,-13,13,3,-9,-3,20,47
36.465,-2,-3,2,0,-5,-5,1,-33
36.47,-6,4,4,-10,-2,1,-26,24
36.475,-77,-20,14,0,0,-3,25,-31
36.48,9,-11,-18,-14,-5,-8,-20,24
36.485,127,21,13,1,-2,-3,-17,53
36.49,-88,-64,-3,5,4,-1,11,-41
36.495,115,11,-14,-5,-2,4,5,64
36.5,-128,-3,-7,1,2,3,6,-42
36.505,118,-9,13,-7,-3,7,21,49
36.51,-52,-25,-35,-7,-13,-17,-25,-28
36.515,46,2,-7,-3,-5,-5,-29,30
36.52,119,35,-39,2,5,-1,-14,-35
36.525,57,47,20,-1,4,2,20,51
36.53,-26,-40,-12,-2,0,2,-12,-45
36.535,12,26,13,-10,-3,-1,6,27
36.54,-96,-24,-28,-4,-6,-9,-4,-97
36.545,10,68,12,12,3,-1,-37,-37
36.55,89,-41,-29,-21,-8,0,26,69
36.555,-4,36,-1,-12,-1,-2,-22,-39
36.56,23,-4,27,1,3,6,39,77
36.565,-45,1,-58,-30,-13,-10,6,8
36.57,45,13,-8,15,6,3,-43,-42
36.575,100,-34,73,-5,-10,1,6,75
36.58,-107,49,23,16,3,-2,11,-78
36.585,29,-43,-2,29,10,4,-29,81
36.59,-46,21,23,-26,-9,-12,0,-11
36.595,39,-17,21,0,2,5,19,64
36.6,-20,-1,-8,-3,0,3,19,-41
36.605,-64,-45,-32,-21,-2,-7,-40,-8
36.61,-5,34,17,27,4,3,-21,-14
36.615,44,127,-62,-4,-2,-3,-10,0
36.62,-61,-64,103,11,4,8,37,95
36.625,-63,-3,-1,-4,-1,-1,-11,-56
36.63,37,44,18,-5,1,7,4,37
36.635,-74,-47,-46,8,4,-2,-2,-67
36.64,60,4,-26,-8,0,9,22,70
36.645,-128,-37,-6,-18,-10,-6,7,-50
36.65,48,35,33,15,-2,-10,-10,94
36.655,14,-78,-1,-12,-2,0,-35,-101
36.66,56,50,-11,-5,-6,-5,-2,61
36.665,127,110,62,9,2,12,85,8
36.67,-41,-61,-19,9,2,-2,-46,-72
36.675,-91,35,-20,11,-1,-6,-1,-69
36.68,52,-9,-10,-13,-2,0,-2,-23
36.685,-23,20,-3,-6,-2,1,-2,-21
36.69,13,63,-9,-13,1,7,78,72
36.695,75,-13,-4,3,0,0,-9,61
36.7,-58,21,0,8,6,-4,-67,-121
36.705,-16,-44,-14,-1,-6,-7,18,42
36.71,-9,-49,11,-21,-8,-1,26,31
36.715,-87,-47,16,-17,-9,-9,31,-69
36.72,127,38,-29,-14,-3,1,-29,15
36.725,-59,-69,-39,-4,-5,-10,-9,-98
36.73,36,-10,36,-4,-2,4,2,72
36.735,-56,38,7,-1,-2,6,32,-19
36.74,-33,-9,-29,-15,-12,-13,-52,-8
36.745,-2,-43,-16,-17,-4,6,35,-72
36.75,54,33,-28,-2,-2,-5,-45,-47
36.755,77,-15,13,5,-1,-3,9,69
36.76,-43,-33,10,6,-1,-7,1,17
36.765,-25,-4,-9,11,-1,-6,-12,33
36.77,-45,17,-4,6,2,5,12,1
36.775,-47,1,10,14,8,2,-4,-78
36.78,47,13,37,11,7,7,-20,85
36.785,17,-33,14,4,0,-4,-7,-53
36.79,-99,-30,-27,3,-3,-9,0,-93
36.795,-18,1,2,9,1,0,8,52
36.8,-4,-22,8,8,7,0,-7,-51
36.805,57,7,-16,2,6,9,11,31
36.81,52,61,7,0,0,3,16,61
36.815,-16,-59,-10,-4,-1,0,-17,59
36.82,-55,-34,-9,4,-4,0,50,-84
36.825,19,28,24,8,3,-6,-49,24
36.83,-47,-73,-25,-10,-8,-17,-32,-81
36.835,101,28,-17,-18,-7,-1,17,49
36.84,127,19,-29,-1,-2,-5,6,38
36.845,-64,-103,-6,7,0,-2,-18,5
36.85,83,22,-7,-3,3,7,34,70
36.855,9,-30,1,-3,-4,-8,-8,-57
36.86,29,13,-3,-4,-5,-1,14,50
36.865,36,64,-7,1,-3,-6,-18,10
36.87,62,-29,-11,9,4,5,2,3
36.875,-32,53,-17,-18,-1,7,36,26
36.88,-112,-22,-10,-12,-7,-11,-51,-23
36.885,8,39,31,-5,0,3,7,8
36.89,4,1,0,-3,-4,-3,2,-2
36.895,-14,-8,-3,9,-1,-4,-24,-20
36.9,-60,36,-3,-10,-8,-5,-8,-74
36.905,17,-28,4,-4,1,4,6,23
36.91,20,37,-1,1,1,-2,-21,10
36.915,47,-40,-24,-10,-5,-1,12,70
36.92,66,7,5,12,2,-2,4,72
36.925,-23,12,3,-14,-3,3,17,23
36.93,-38,-12,-5,-13,-9,-5,14,-54
36.935,45,3,17,12,4,1,-39,3
36.94,-17,-30,35,4,2,2,6,20
36.945,17,-25,24,1,-2,0,14,-13
36.95,-23,18,13,5,5,8,13,9
36.955,-65,-21,-16,1,-5,-16,-23,-76
36.96,79,52,1,-1,2,2,-10,-7
36.965,-73,-70,2,7,0,3,8,-10
36.97,-73,89,13,0,-1,-3,-8,-92
36.975,29,23,9,5,2,3,-1,36
36.98,-38,19,-5,4,1,-3,-4,-45
36.985,91,58,-20,-8,-1,5,40,123
36.99,27,-23,-20,-4,-4,-4,-1,26
36.995,-14,7,-10,-7,-4,-4,-14,-19
37,36,-13,-1,-2,0,0,16,19
37.005,42,40,-2,0,-3,-5,-10,-11
37.01,32,-31,-4,-2,3,5,19,21
37.015,2,-35,-5,3,1,0,11,-2
37.02,-16,-5,-15,-10,-6,-1,-15,-49
37.025,4,41,-24,0,0,-3,-28,28
37.03,16,12,10,12,1,-1,-7,-15
37.035,-6,-3,1,-20,-7,-4,-1,8
37.04,-77,2,-14,-8,-3,-3,-3,-39
37.045,11,1,8,-4,-3,-4,6,39
37.05,-6,22,56,11,2,3,35,12
37.055,0,-36,-9,-3,-2,-2,-42,22
37.06,-12,-9,-5,4,0,2,25,-14
37.065,21,6,-29,1,-2,-8,-61,14
37.07,-8,-2,-11,-2,-1,3,19,65
37.075,-14,14,8,3,0,0,10,-89
37.08,15,6,5,-3,-1,-1,5,45
37.085,11,-46,-10,-12,-2,0,8,17
37.09,-41,-49,-14,2,-1,-4,-19,-31
37.095,31,45,6,1,-2,-4,0,32
37.1,42,-27,-17,-11,-3,2,16,60
37.105,-31,13,8,-1,0,2,4,-79
37.11,18,-27,22,0,0,1,-5,23
37.115,4,27,13,5,3,4,14,18
37.12,-37,-28,1,7,0,-1,14,-30
37.125,9,-2,-8,-4,0,-3,-34,-6
37.13,4,21,-7,-4,-2,-1,-9,-6
37.135,-12,-7,0,8,1,2,17,13
37.14,45,19,0,-9,-1,-2,-25,23
37.145,-28,-18,5,-1,0,0,10,-38
37.15,16,11,-7,1,-2,-3,-6,18
37.155,-17,2,-3,0,0,0,-5,-10
37.16,11,11,5,-1,1,-1,1,14
37.165,-4,5,16,4,-1,-2,5,-29
37.17,11,-3,-5,-8,-5,-3,-5,10
37.175,0,5,43,-2,-2,-1,6,11
37.18,-6,-7,3,4,-1,0,-5,-8
37.185,-4,4,0,1,0,-1,5,-2
37.19,-2,-9,7,0,-1,-3,-7,-9
37.195,-4,-8,14,-5,-3,-3,-5,3
37.2,-7,-3,18,1,0,0,-1,-2
37.205,3,1,1,-12,-3,0,5,-2
37.21,5,0,-12,-4,-2,-2,-3,0
37.215,-8,1,-7,1,2,-1,-4,-14
37.22,6,0,-3,3,-1,0,4,81
37.225,-3,-18,40,5,-4,-3,3,-10
37.23,-1,4,0,-1,1,2,-1,4
37.235,-6,3,-31,-4,2,-2,0,-6
37.24,-3,-5,10,0,1,-2,-2,2
37.245,3,10,-3,14,3,0,1,1
37.25,-7,-2,-10,-5,-3,-3,-6,-11
37.255,-3,-4,-8,-7,-7,-1,-4,9
37.26,2,0,-8,2,3,1,1,-21
37.265,-5,-2,0,-7,-5,-3,-1,-11
37.27,2,1,2,4,-3,0,-1,-10
37.275,0,0,-10,-3,-2,-2,-2,2
37.28,-4,-3,-11,-12,-3,-2,-3,-17
37.285,1,7,6,22,7,1,5,-3
37.29,0,-5,4,14,1,-2,-1,10
37.295,-3,0,-14,-29,-23,-3,-2,-1
37.3,-4,0,-6,6,-2,0,-3,-14
37.305,-2,-2,-46,-11,1,0,1,4
37.31,1,-7,-2,8,3,0,1,0
37.315,0,0,-2,8,4,-2,-3,-3
37.32,-1,-3,-4,7,-3,-3,-3,-12
37.325,0,3,-5,-11,-3,1,0,2
37.33,-2,0,0,-7,5,0,-3,-3
37.335,-3,-8,-7,-2,-8,-2,-2,-4
37.34,0,-2,3,12,6,-2,1,-1
37.345,-3,13,-25,-33,-3,-1,0,-1
37.35,1,-12,30,2,-3,3,1,2
37.355,-3,-4,-5,1,-6,-5,-3,0
37.36,0,-10,-8,22,10,3,2,-4
37.365,0,-4,17,15,10,0,-3,-1
37.37,-4,1,-21,-29,-10,-3,-3,-6
37.375,1,1,-4,22,3,1,2,2
37.38,-2,-1,-5,-54,-17,-5,-2,-3
37.385,1,3,9,33,11,2,2,0
37.39,-1,0,-7,-6,4,-1,-1,1
37.395,-5,1,6,33,-4,-6,-6,-6
37.4,-4,1,-1,4,-6,1,-1,-6
37.405,-1,-2,3,3,-18,-3,0,1
37.41,6,11,36,-2,10,1,2,3
37.415,-4,-7,-22,-50,9,1,-2,-3
37.42,1,-4,-4,14,-5,2,-1,-3
37.425,-4,-6,-11,-19,-1,-3,-2,-1
37.43,-2,4,-2,96,10,-1,-3,-4
37.435,6,1,26,-34,-4,1,3,4
37.44,0,-1,-11,-53,-5,-4,-1,1
37.445,-3,-5,7,31,-9,-3,-3,-3
37.45,-4,-5,-15,-32,-16,-4,-2,-3
37.455,0,8,10,44,7,-1,-1,-1
37.46,-2,6,-3,6,7,4,-1,-3
37.465,3,-16,39,14,11,2,3,3
37.47,-2,-2,-9,-5,-1,-2,-3,-2
37.475,-4,-5,-29,-61,-10,-4,-3,-2
37.48,-7,-3,-6,-41,-33,-13,-7,-6
37.485,0,13,6,49,4,1,1,0
37.49,-2,3,-15,-37,4,0,0,2
37.495,-3,-7,5,21,-6,-1,0,0
37.5,0,-1,6,33,15,6,0,-2
37.505,0,3,5,16,13,3,2,2
37.51,-1,-2,-15,-53,-5,1,1,0
37.515,4,8,20,31,-2,0,0,2
37.52,-2,0,-7,-59,-8,-6,-5,-2
37.525,1,1,0,12,-6,-3,-4,-3
37.53,0,1,-5,-14,-2,-5,-2,-1
37.535,3,-10,39,52,14,4,4,3
37.54,1,1,7,49,9,0,-1,-2
37.545,-2,-6,-13,-54,-12,-2,0,-2
37.55,1,1,16,12,14,4,2,0
37.555,-6,-7,-46,-67,-20,-9,-7,-5
37.56,3,2,12,-12,25,9,6,4
37.565,-6,-7,-3,67,-30,-10,-6,-5
37.57,-3,-7,-6,45,-1,0,-4,-2
37.575,2,7,6,-21,19,7,0,1
37.58,-4,-28,24,53,4,9,3,1
37.585,0,2,-11,-68,-4,-4,2,0
37.59,1,3,4,26,6,-2,0,-2
37.595,-1,-3,12,85,3,-1,-2,-2
37.6,-2,1,-24,-58,-20,-13,-5,-2
37.605,-1,2,-3,-48,6,2,-2,1
37.61,-1,-5,3,14,-6,-2,-3,0
37.615,-4,1,-13,-4,-9,-5,-2,-3
37.62,4,13,15,90,28,7,4,2
37.625,-4,-9,-21,-59,-26,-8,-5,-3
37.63,-3,-4,-30,-48,-18,-3,2,35
37.635,-2,3,1,20,16,7,-7,-44
37.64,1,4,8,59,4,3,-3,6
37.645,1,0,14,35,13,1,-3,-6
37.65,-8,-17,-31,-16,-39,-16,-6,4
37.655,0,2,1,-27,-16,-4,5,15
37.66,0,1,11,75,2,-1,-1,-5
37.665,5,12,12,-33,33,11,5,7
37.67,0,2,6,67,-5,-5,-4,-14
37.675,-10,-15,-44,-96,-24,-15,-9,-4
37.68,6,22,30,-5,-3,2,3,-4
37.685,2,-13,3,0,25,12,7,7
37.69,-1,1,9,50,0,2,-4,-13
37.695,5,7,14,-20,7,5,6,10
37.7,-2,-3,-21,-10,-2,-6,4,28
37.705,0,8,1,39,-2,-2,-4,8
37.71,-9,-12,-1,-53,-19,-15,-20,-27
37.715,3,3,-2,40,18,6,4,13
37.72,-3,-5,-10,-30,-12,0,1,-9
37.725,2,0,-7,10,7,5,10,18
37.73,3,6,12,-25,-2,4,1,-2
37.735,3,1,-8,-15,16,-12,23,17
37.74,-10,-15,-29,-35,-21,-14,-18,-27
37.745,-6,-1,17,-8,-26,-2,-16,-19
37.75,2,3,-4,35,14,10,8,1
37.755,-3,-4,9,67,3,9,-4,-5
37.76,2,-2,-11,-70,-10,-8,11,3
37.765,-5,-9,-22,37,-2,-6,1,-9
37.77,-2,2,0,-60,15,-6,-5,-5
37.775,1,0,9,77,-17,-3,-1,7
37.78,1,1,1,-39,-1,-3,0,-1
37.785,-3,4,8,72,9,17,-8,-6
37.79,0,-5,-16,-88,-9,-7,6,7
37.795,-1,4,15,-44,-1,1,-10,-6
37.8,-2,0,1,65,-8,-36,-11,-4
37.805,0,-2,-12,-32,-7,-3,-1,-4
37.81,0,0,2,62,9,21,13,2
37.815,0,-2,-3,2,2,5,-2,-2
37.82,-1,1,5,29,16,14,-3,-2
37.825,4,2,-4,-56,-10,-22,6,21
37.83,-3,4,15,100,23,0,-2,-8
37.835,-11,-17,-42,-64,-55,-15,-30,-42
37.84,-1,-5,-18,-18,0,10,1,3
37.845,-1,-4,-12,9,-5,-7,3,0
37.85,-1,4,9,31,2,0,-3,-5
37.855,7,10,33,78,26,8,9,16
37.86,-7,4,-46,-78,-6,-2,-4,-5
37.865,3,-1,11,-107,-17,2,1,-11
37.87,2,-15,18,91,22,1,6,14
37.875,-6,-6,-6,-50,-28,-14,-6,0
37.88,6,5,12,-23,9,4,1,3
37.885,-2,7,26,92,21,-1,-1,-4
37.89,2,4,-1,-30,1,19,1,0
37.895,-1,2,-1,29,17,9,12,6
37.9,-6,-10,-8,-31,-11,-6,-10,-11
37.905,-2,-6,-5,36,-21,-14,-4,4
37.91,-1,2,-3,-9,6,-17,4,18
37.915,-10,-11,-21,-21,-14,-10,-18,-21
37.92,11,4,13,-23,1,20,10,19
37.925,-11,-1,-9,-33,-3,-2,-4,-4
37.93,2,-1,-10,-66,-13,-5,10,14
37.935,-2,-1,-1,-7,11,2,12,2
37.94,-3,-3,15,54,3,-10,-41,-22
37.945,-1,5,-47,24,-1,1,2,13
37.95,2,-16,20,-9,-15,-1,-4,-4
37.955,5,5,6,25,25,10,11,-1
37.96,-6,-12,-4,15,-8,-4,10,3
37.965,-3,0,-12,4,-3,2,-18,-26
37.97,1,16,13,56,16,2,-2,-7
37.975,-3,-7,-18,-58,-25,-10,-5,0
37.98,-3,-7,2,78,-8,0,6,6
37.985,2,-4,10,-2,15,7,2,-1
37.99,-10,-9,-29,-52,-23,-12,-7,-16
37.995,3,4,22,-4,2,-4,-2,13
38,0,10,10,-19,18,21,9,-2
38.005,-3,-29,5,5,-27,-13,1,0
38.01,2,7,10,17,10,7,-1,-3
38.015,-2,1,-14,30,6,-2,-5,-1
38.02,-5,-4,-8,-48,-8,-5,0,-3
38.025,0,15,-6,-28,5,3,4,23
38.03,-7,-4,-4,8,-8,-2,-8,-66
38.035,-2,-4,2,16,-3,-7,-11,3
38.04,4,5,17,41,13,3,4,-1
38.045,-4,-2,-5,-44,-4,-1,0,7
38.05,-7,-6,-30,-56,-21,-11,-4,13
38.055,2,9,12,18,20,9,14,5
38.06,-2,-3,-9,44,-9,-5,-13,-16
38.065,-4,-4,-1,33,-11,-8,-8,-16
38.07,-1,-1,-8,11,-1,1,2,9
38.075,6,6,24,-10,22,12,8,3
38.08,-2,-5,-9,6,4,-2,4,15
38.085,-4,-7,-8,-26,-24,-13,-7,-19
38.09,0,2,6,-5,-2,0,-3,1
38.095,-1,-4,-16,-13,13,2,-1,6
38.1,-2,-1,-8,-23,-15,-5,-1,-3
38.105,3,2,1,-9,6,-2,1,-4
38.11,-4,28,-27,-7,-2,-3,-4,-3
38.115,9,3,35,61,27,16,8,5
38.12,-6,-7,-10,-1,-27,-11,-2,3
38.125,4,0,8,14,8,2,4,2
38.13,-3,-8,-16,-4,-17,-6,-3,38
38.135,-22,-6,-14,-10,-13,-12,-21,-38
38.14,-2,1,6,2,2,-5,-10,-10
38.145,2,5,6,-6,12,9,3,6
38.15,8,-7,-6,-4,9,1,4,15
38.155,2,-4,-16,-12,-13,-4,1,9
38.16,-2,-6,9,-2,4,2,6,-1
38.165,-2,0,-1,-1,1,-2,-1,-3
38.17,-3,-6,-4,-11,-2,-4,-4,-13
38.175,-4,-6,-11,-1,-12,0,-5,-2
38.18,3,13,14,0,31,9,3,-1
38.185,6,5,25,126,17,9,7,3
38.19,-11,-22,-43,-91,-30,-5,-6,-13
38.195,0,-1,-8,-5,-27,-6,-3,3
38.2,-2,-1,8,39,-7,-10,-2,0
38.205,-6,-3,0,-3,-1,-4,-5,-6
38.21,8,8,34,19,21,8,3,6
38.215,1,-2,2,20,0,-7,-2,1
38.22,-3,-6,-16,-25,-2,1,2,-1
38.225,-2,-2,-2,-52,-1,6,-3,-9
38.23,3,5,12,-17,5,10,9,11
38.235,1,-5,-14,-33,-3,-4,11,31
38.24,-7,-2,-2,19,-1,-5,-23,-82
38.245,-4,-3,-4,-10,-6,-1,12,3
38.25,0,-1,10,11,1,-3,-15,2
38.255,-1,7,-8,14,0,-2,3,1
38.26,1,-6,-1,-31,-3,3,3,21
38.265,-4,-6,-16,-10,-10,-9,1,4
38.27,12,0,1,31,-2,-5,7,-11
38.275,-18,1,2,-15,5,-4,-15,-14
38.28,-2,1,0,41,-4,5,-6,8
38.285,0,0,-4,-47,0,6,0,-5
38.29,-2,-3,8,18,0,-7,5,5
38.295,5,-2,3,-2,-1,6,-2,-2
38.3,3,3,4,-8,-1,-20,7,12
38.305,2,-1,6,15,6,3,-1,42
38.31,-10,-4,-6,-19,-3,3,-10,-42
38.315,7,6,22,12,11,0,4,1
38.32,-8,-13,-42,-99,-25,-7,-11,-2
38.325,1,-2,-1,30,-10,-7,-3,6
38.33,-2,2,5,-10,2,1,13,9
38.335,1,-3,2,19,-1,-3,-8,-10
38.34,4,3,10,5,4,2,1,15
38.345,0,3,0,-6,3,-5,-5,-19
38.35,-4,-3,-4,0,-4,1,-9,-12
38.355,1,0,6,10,7,7,8,-1
38.36,1,1,-2,-27,-3,4,19,25
38.365,-6,-5,-7,14,-9,-7,-19,-30
38.37,-3,2,3,13,7,-1,-5,-4
38.375,3,-2,-3,8,-10,-5,5,15
38.38,0,1,6,16,3,-6,-3,28
38.385,-1,-1,2,20,3,-3,-1,-20
38.39,0,-6,-10,-25,-9,3,-2,10
38.395,4,4,7,27,8,9,-2,-4
38.4,-2,-5,-9,-1,-9,-4,2,9
38.405,-4,0,4,-15,6,2,6,-3
38.41,-2,-2,1,3,-4,-9,-9,-3
38.415,-3,-1,1,14,8,-3,-9,-1
38.42,3,-2,-4,-4,0,9,11,-10
38.425,-5,-7,-15,-6,-17,-6,-4,-5
38.43,-7,-3,3,4,0,-7,-4,-3
38.435,-2,-2,-9,-17,-7,-4,-2,-6
38.44,4,7,15,27,11,2,12,5
38.445,-6,-4,-3,-19,0,-1,-15,-19
38.45,5,2,4,8,3,4,15,20
38.455,1,-2,-3,-9,-4,2,2,29
38.46,-5,-1,3,3,-4,-2,-22,-46
38.465,2,0,1,-4,3,1,1,19
38.47,0,1,7,24,4,-1,10,15
38.475,-2,-5,-14,-23,-7,-5,-4,17
38.48,-4,0,-4,-5,-5,-6,5,-12
38.485,6,-3,-1,-15,-2,-5,2,9
38.49,-13,-2,-2,1,-1,-7,-7,-13
38.495,2,-3,-5,-8,-2,3,13,-11
38.5,10,-1,0,7,7,8,4,12
38.505,-3,6,3,-4,4,1,-13,-20
38.51,4,0,1,-15,0,-5,6,6
38.515,-6,-5,-6,-8,-17,-12,-11,-17
38.52,-2,-2,0,3,3,-1,-4,0
38.525,2,1,5,4,8,7,5,14
38.53,-5,-3,-4,10,-4,1,-2,-9
38.535,1,0,-1,9,3,-3,-4,-12
38.54,0,-4,-4,-10,-7,-3,-9,2
38.545,-2,-2,-1,-9,-1,4,16,24
38.55,-3,-1,1,3,3,1,-12,-68
38.555,0,1,4,0,-1,-3,2,-2
38.56,-7,-2,-2,2,-3,-2,-2,5
38.565,-16,-3,-4,0,-5,-6,-7,-13
38.57,8,1,2,3,2,-2,-2,11
38.575,-2,-1,-1,-11,-2,2,1,3
38.58,2,-1,0,8,-1,1,1,-15
38.585,7,0,1,-6,-2,-4,-19,3
38.59,-4,-5,-3,-12,-3,1,-7,8
38.595,2,-5,-2,-14,3,-1,-3,-4
38.6,-3,8,5,20,1,-3,8,9
38.605,5,-6,-5,9,-4,2,3,-3
38.61,3,0,-10,-18,-8,-18,3,8
38.615,-6,-4,0,-8,-8,-4,-3,-8
38.62,-7,-18,-7,7,-1,5,-3,-2
38.625,-3,4,3,7,8,3,6,-6
38.63,0,-3,2,-2,2,3,-3,4
38.635,1,4,-2,-3,-1,0,3,32
38.64,-9,-2,-2,4,-3,-10,-14,-74
38.645,5,-1,-4,-7,-2,2,12,7
38.65,-11,-4,-1,-8,-5,1,-3,-9
38.655,6,5,-3,-5,-2,-5,-15,-12
38.66,-1,-3,-1,-3,-3,1,7,24
38.665,-1,-3,-2,-7,-1,-3,-7,-7
38.67,5,2,0,7,2,6,18,15
38.675,2,0,-3,4,-2,-2,-4,-15
38.68,5,1,2,-5,3,3,-1,14
38.685,11,1,-2,-7,-3,-3,7,-9
38.69,-7,0,2,8,1,-1,-7,16
38.695,-12,-4,15,-7,0,2,2,-19
38.7,5,16,0,9,-1,-3,-1,10
38.705,-4,2,0,-6,2,-1,-2,1
38.71,3,-1,6,14,-1,2,0,5
38.715,2,-2,-6,5,2,0,-2,-2
38.72,-3,-2,0,-4,2,1,-1,2
38.725,-2,-1,-3,-8,-2,-2,-2,-4
38.73,0,3,-7,-3,-4,-1,3,34
38.735,-8,-4,-6,-6,-3,-2,-13,-63
38.74,-2,-3,0,-7,-1,-3,0,10
38.745,-2,-2,-6,2,0,-1,4,1
38.75,2,-4,0,-1,1,1,12,-2
38.755,-3,2,1,-1,-4,-6,-38,15
38.76,2,0,8,0,1,0,4,8
38.765,-3,-3,2,1,-1,-3,-6,-10
38.77,0,1,-4,-1,0,2,5,-10
38.775,1,-2,-1,0,1,2,14,9
38.78,-4,-2,-4,-5,-2,-2,-10,-11
38.785,-4,1,1,0,-2,-5,-1,12
38.79,4,-13,2,3,0,0,-5,-4
38.795,-2,-3,-7,-3,-3,-5,2,-6
38.8,5,2,2,5,5,3,-2,14
38.805,5,0,-5,-16,-4,-2,3,15
38.81,-12,5,-8,-7,-4,-3,-11,-21
38.815,10,-11,15,6,2,3,7,1
38.82,-13,-7,-3,-4,-2,-2,4,-25
38.825,-3,-1,-1,8,4,1,-1,5
38.83,0,0,-6,-6,-2,-5,-11,-14
38.835,1,1,-9,-5,-3,-1,10,32
38.84,-3,3,-1,-2,0,-3,-2,-2
38.845,5,-2,2,2,-1,0,-3,-11
38.85,-8,1,6,-3,-1,-1,-6,9
38.855,-5,1,-2,0,1,0,6,4
38.86,10,-4,3,-1,-3,2,26,14
38.865,0,-3,-4,-9,0,0,-23,3
38.87,9,5,8,3,0,-3,-23,-10
38.875,-12,-7,-5,-2,-1,-1,3,2
38.88,8,0,-3,0,-1,-2,-1,18
38.885,-18,-6,-3,1,-5,-1,10,25
38.89,-2,-7,-4,10,4,3,-2,4
38.895,-2,7,-9,-8,-1,-2,-3,-3
38.9,9,8,-3,-13,-4,-5,-10,30
38.905,-10,-8,4,2,-1,0,11,-9
38.91,1,0,-6,-1,-1,-1,5,-8
38.915,0,-3,5,0,-4,-1,-3,-15
38.92,-11,0,-15,1,0,1,4,4
38.925,1,1,-5,-3,-1,-3,-8,-13
38.93,1,-5,1,-3,-2,-1,7,-4
38.935,-2,6,-5,6,2,-3,-4,3
38.94,-2,-4,-3,-4,-1,3,-1,-21
38.945,11,-2,2,0,-2,-2,-9,5
38.95,-7,1,-6,-2,-1,-1,3,-16
38.955,-5,-7,-1,-1,0,0,6,5
38.96,4,0,7,2,0,-1,-9,-17
38.965,15,10,10,4,1,1,18,38
38.97,-51,-32,-13,-14,-5,-4,-6,5
38.975,23,3,0,10,2,3,10,-23
38.98,-43,-35,0,-6,-6,-5,-12,6
38.985,6,-1,-9,5,0,1,-5,-21
38.99,29,37,5,-5,-2,-3,5,46
38.995,-20,-9,6,-1,-2,-4,3,4
39,-2,-1,-6,-2,2,3,-1,-13
39.005,8,2,-1,-2,-3,-1,2,-3
39.01,-4,-9,4,5,1,2,-2,-11
39.015,11,1,-10,-8,-4,-3,-13,-8
39.02,10,29,3,-4,-4,-6,-3,35
39.025,25,-5,14,-3,-3,-1,3,-1
39.03,-45,19,10,7,6,4,6,-20
39.035,15,-19,-9,-8,-2,-3,-3,9
39.04,-28,-10,-8,-4,-1,-2,-3,27
39.045,-20,18,-16,-3,-2,-2,-8,-42
39.05,45,-38,-16,-2,-5,-4,-1,6
39.055,-2,3,-3,8,3,5,16,15
39.06,3,17,5,-10,-6,-5,-26,-26
39.065,-44,-20,10,4,2,-1,11,-24
39.07,48,29,5,12,5,2,7,13
39.075,-39,-30,-6,-11,-7,-5,-32,-23
39.08,21,-9,-2,4,2,2,19,58
39.085,-4,15,-12,-4,-3,-2,-17,-91
39.09,-29,-16,3,-1,-3,-4,-7,-38
39.095,-6,9,-2,4,0,-3,-6,6
39.1,11,-2,-4,5,2,-2,14,-5
39.105,24,-12,-11,-7,1,-1,-9,23
39.11,-50,15,-8,-5,-1,0,-11,-13
39.115,49,34,12,-1,-1,1,27,27
39.12,7,-8,-1,1,-2,-4,-39,-58
39.125,2,36,-1,11,5,2,15,30
39.13,36,-66,1,-11,-4,-1,0,37
39.135,-62,-5,-1,-7,-5,-7,-8,-52
39.14,-10,11,3,3,2,4,9,-28
39.145,37,-5,-7,-1,-3,-3,5,36
39.15,-16,-7,-5,-4,-4,-3,-12,-10
39.155,12,3,-15,-10,-4,0,9,46
39.16,-18,-14,3,4,1,-1,-27,-27
39.165,-13,-7,12,4,1,-2,-10,0
39.17,-6,26,4,-2,1,0,10,-17
39.175,35,-6,11,6,-2,-2,-2,35
39.18,16,20,-4,-12,1,5,20,-1
39.185,-54,-25,9,-13,-6,-5,-3,-5
39.19,28,-1,0,11,1,0,-7,27
39.195,-3,20,4,18,9,6,5,-43
39.2,-16,-11,3,4,-2,-3,2,12
39.205,4,6,-3,8,1,0,2,9
39.21,14,-12,14,7,3,1,2,4
39.215,-39,-17,9,-14,-6,2,-3,-47
39.22,16,-4,-8,6,1,4,8,9
39.225,-3,-17,-20,-15,-6,-4,-14,19
39.23,21,31,43,10,2,0,4,75
39.235,18,17,8,11,4,0,-4,-84
39.24,-57,-19,-5,-15,-8,-7,-14,17
39.245,-21,3,2,1,0,-1,16,4
39.25,17,24,-18,-13,-10,-8,-14,-25
39.255,28,-49,-11,-9,-4,-2,2,87
39.26,-51,-6,5,-4,-7,-3,4,-83
39.265,-2,24,-15,6,0,-1,-8,-5
39.27,-3,7,-10,-11,-1,0,0,-4
39.275,-21,-11,-5,1,2,2,4,18
39.28,21,4,-10,-3,-2,-5,-5,-26
39.285,71,6,12,-1,2,6,21,20
39.29,-33,-34,-15,-3,-2,-2,-30,-38
39.295,22,21,2,-1,-2,-2,-2,11
39.3,7,-3,-2,6,4,1,10,113
39.305,16,8,8,4,2,1,2,-54
39.31,-34,-27,-13,-10,-4,-3,0,-5
39.315,-11,33,-12,-16,-11,-9,-16,-28
39.32,127,28,-12,2,-3,0,9,56
39.325,-63,-46,10,1,0,-2,-8,-1
39.33,21,-8,-14,2,-2,-3,10,13
39.335,-5,-14,-7,-1,2,0,21,11
39.34,-2,26,-7,-8,-4,-5,-33,-23
39.345,3,11,14,9,2,2,10,-6
39.35,-26,-4,-9,-1,-1,2,2,-42
39.355,49,3,23,3,0,1,-11,76
39.36,-33,-6,9,3,-1,0,7,-69
39.365,-7,-22,-13,-12,-4,1,1,1
39.37,12,32,-12,4,4,1,9,37
39.375,-20,-56,-16,4,2,1,7,75
39.38,46,38,-2,-6,-4,-2,4,-75
39.385,-6,-8,2,-1,-5,-4,-26,21
39.39,15,0,-2,-3,-1,1,11,24
39.395,57,-4,-8,-11,-4,-2,-6,-48
39.4,-62,-5,-3,-4,-4,-5,11,-7
39.405,29,-9,-8,-3,-1,-5,-20,22
39.41,7,4,6,-3,-4,-4,-6,-15
39.415,39,38,16,14,6,6,10,28
39.42,-1,-40,9,4,1,4,7,27
39.425,2,14,-2,-7,-2,-1,-3,-21
39.43,-3,-8,0,0,2,0,0,20
39.435,-49,-17,60,11,5,1,-7,-31
39.44,3,-10,0,7,3,0,5,31
39.445,-39,0,-14,-5,-4,-1,3,-19
39.45,18,6,8,-1,-1,-1,3,48
39.455,-24,14,-17,1,-1,-2,-15,-76
39.46,-32,8,5,3,3,1,-1,-30
39.465,12,18,4,-1,0,-2,13,34
39.47,-18,-29,-16,2,-3,-5,-17,-35
39.475,8,15,-11,-4,-1,0,4,0
39.48,14,-26,-8,-4,-1,3,4,48
39.485,68,22,-5,0,2,1,1,51
39.49,-76,5,-18,-4,-3,-3,3,-62
39.495,-25,-13,-18,-12,-4,-2,-5,3
39.5,-5,2,7,-2,0,-1,-6,-13
39.505,48,0,6,4,-3,-5,3,17
39.51,28,15,40,17,7,7,5,-4
39.515,6,-7,-8,1,0,-1,-3,30
39.52,-33,-4,-3,-3,-3,0,-2,-11
39.525,2,6,-3,-4,-1,0,20,16
39.53,8,1,44,3,1,-2,-28,81
39.535,10,31,-11,2,0,0,-3,-44
39.54,11,-20,-10,-8,-3,-2,-1,36
39.545,-32,19,4,3,-1,1,-6,-7
39.55,22,1,-10,-2,2,1,12,-6
39.555,2,-5,5,-7,-2,0,14,31
39.56,-7,-13,-9,-12,-4,-2,-9,13
39.565,-33,-9,-8,-10,-2,-2,-5,-48
39.57,-6,-4,-15,-6,-2,-4,-2,-18
39.575,-14,-3,-3,-2,-3,-5,-3,-2
39.58,18,-9,1,10,4,0,6,0
39.585,-9,18,-5,-8,-4,-2,-9,-13
39.59,-1,15,-32,-6,-1,-3,7,-32
39.595,-35,-46,33,0,-6,-8,7,-47
39.6,7,2,-3,-2,-1,-2,-28,-14
39.605,2,-18,-8,1,0,-3,-2,10
39.61,7,-13,-11,-4,-2,-1,1,-27
39.615,39,28,-4,9,6,6,22,86
39.62,-26,-14,10,7,1,-6,-2,-4
39.625,-15,-19,3,-2,-5,-5,-7,-2
39.63,-31,-15,-10,0,-1,1,8,13
39.635,25,26,6,-5,-5,-4,-20,-28
39.64,-1,3,1,-3,-1,-2,6,-11
39.645,-32,5,2,11,3,0,-9,-57
39.65,26,-18,-14,-19,-7,-4,0,6
39.655,-22,3,-15,0,-2,-1,-12,-22
39.66,1,6,-4,-4,-4,-1,-4,-4
39.665,-7,-4,12,2,0,-3,8,-8
39.67,5,35,18,-3,-3,0,16,-6
39.675,-12,-7,1,0,1,-3,-31,-34
39.68,-48,-12,-1,-1,-3,-1,2,-69
39.685,-1,-9,-6,5,1,1,0,31
39.69,32,1,20,8,3,3,9,58
39.695,-84,2,-17,-3,-1,-2,-16,-73
39.7,-9,-21,-11,-2,-1,-3,6,48
39.705,6,-16,24,2,0,1,-3,26
39.71,4,9,-10,-4,-5,-7,-17,-4
39.715,-7,2,-8,-5,-3,0,9,-7
39.72,38,14,6,2,0,3,-3,18
39.725,-8,-2,-8,3,1,0,2,-18
39.73,-63,-33,-9,-10,-4,-5,-7,-51
39.735,58,4,44,-12,-4,-4,15,59
39.74,-4,3,-3,-3,-3,-7,-23,-36
39.745,18,-11,-14,3,1,2,9,29
39.75,-3,14,18,12,1,1,-5,-11
39.755,-6,-25,-22,-1,-3,-1,17,21
39.76,4,-3,2,0,-2,1,1,31
39.765,4,8,8,-2,-2,-2,-10,-13
39.77,9,8,17,2,-1,-2,-4,4
39.775,-43,-27,-21,-3,-1,-1,3,28
39.78,28,5,-8,4,2,1,7,11
39.785,3,-17,-12,-6,-6,-2,-7,25
39.79,5,15,-11,-11,-3,-3,-8,-45
39.795,6,6,-25,2,2,0,-4,29
39.8,4,-3,2,-6,-4,-3,2,0
39.805,7,42,-4,3,2,2,20,-12
39.81,-6,-34,-11,-6,-4,0,-23,-2
39.815,34,-5,11,2,4,1,1,7
39.82,2,23,-3,-2,-2,-2,-1,-24
39.825,-22,-55,-5,-6,-2,-1,-3,20
39.83,11,45,-4,1,0,-1,12,1
39.835,-12,5,-4,-1,-1,-1,-7,7
39.84,26,-1,-6,-8,-3,-1,-3,-7
39.845,4,4,29,1,-3,-3,5,22
39.85,46,-2,-21,-8,-3,3,8,72
39.855,-48,0,-11,-2,0,-3,-16,-58
39.86,1,1,7,-1,-2,-3,6,26
39.865,6,9,-12,-5,-6,-4,-14,27
39.87,7,-7,10,16,5,1,6,26
39.875,-7,-5,-2,-1,-3,-4,-10,-37
39.88,-1,2,5,-1,0,2,4,-3
39.885,4,13,-23,-6,-2,-1,-4,0
39.89,-30,-28,-4,0,-2,-2,7,-18
39.895,-25,17,-8,-7,-2,-1,-1,24
39.9,-3,-10,3,8,3,1,2,12
39.905,-1,1,-3,1,0,-1,-9,-28
39.91,-8,-4,4,-5,-2,3,12,-5
39.915,23,15,9,4,-2,0,-3,6
39.92,3,3,-8,-3,-1,0,-1,7
39.925,-14,-4,0,-2,1,-3,1,-22
39.93,19,5,4,5,2,1,-6,-1
39.935,1,-18,-9,-19,-4,-3,1,4
39.94,5,-7,3,7,2,2,-2,5
39.945,-10,-9,1,-8,-3,0,-1,-25
39.95,-10,-2,-27,-9,-3,-3,-3,6
39.955,11,-12,8,11,-1,1,2,-2
39.96,-3,-13,58,6,1,0,8,9
39.965,-1,2,-9,-5,0,1,-1,-13
39.97,-9,-1,-12,4,0,-4,-8,-15
39.975,1,-1,-10,0,-2,-3,1,7
39.98,-1,8,-19,-3,-3,-1,0,-8
39.985,-5,-8,0,-4,-3,-1,-4,-1
39.99,-1,0,31,5,1,2,-2,-8
39.995,15,-1,4,2,0,0,2,10
40,-2,1,-13,-17,-3,-3,1,5
40.005,0,5,-6,-1,0,-2,-3,0
40.01,-4,-9,7,1,-2,-1,1,-4
40.015,3,3,0,3,0,0,0,-5
40.02,-5,15,-13,2,1,-5,-5,-6
40.025,-3,-3,-6,-1,0,-3,-2,-6
40.03,-2,4,0,-2,-1,-4,-4,-11
40.035,9,0,6,5,0,1,5,24
40.04,-5,-8,-5,6,-4,-1,-2,-2
40.045,1,-3,6,-4,-2,-1,0,-2
40.05,-3,8,32,1,-1,-1,-5,-6
40.055,4,-8,3,-7,-1,-1,1,5
40.06,-3,-3,-16,0,2,2,2,3
40.065,-3,-3,-1,2,0,-1,0,-6
40.07,1,1,-13,-3,-1,-2,0,0
40.075,-2,-1,-9,-1,-3,-1,-1,-6
40.08,-2,-1,3,-4,-3,-2,-1,-3
40.085,2,0,-9,8,4,-2,-3,-1
40.09,0,-9,24,2,1,3,5,0
40.095,-1,1,-4,0,2,-1,-2,-2
40.1,-2,0,-2,-2,0,2,0,-2
40.105,1,0,-7,-8,-10,-3,-2,2
40.11,-3,-1,-13,-1,2,-2,-4,-3
40.115,-4,6,-4,-1,0,1,-5,-8
40.12,-4,4,-33,1,2,0,-2,-3
40.125,-5,-15,-10,-7,1,1,1,-2
40.13,-8,-4,-50,-14,-9,-6,-5,-6
40.135,-3,-6,-10,-6,-12,-5,-3,-3
40.14,-2,-1,-11,-10,-2,-1,0,-1
40.145,0,4,7,-3,0,2,-2,-4
40.15,-3,1,-19,0,-5,-5,-4,-5
40.155,4,0,-9,5,2,3,2,3
40.16,-1,-16,11,-3,4,-2,0,2
40.165,-1,-3,0,-6,-2,2,3,-1
40.17,-1,-1,9,-8,-3,-2,0,1
40.175,0,-3,8,7,-2,-3,-2,-3
40.18,2,2,12,-1,-4,0,1,-1
40.185,0,4,12,11,4,1,-2,0
40.19,-2,-1,3,5,4,0,-2,0
40.195,-1,1,2,4,-1,-1,-2,-3
40.2,-3,7,-23,-3,-7,-6,-3,-4
40.205,0,-1,-3,36,13,-1,-2,0
40.21,0,2,-11,-60,-7,2,1,-1
40.215,1,-2,-1,-43,-9,-1,0,0
40.22,-2,-14,10,5,-10,-4,-3,-1
40.225,-1,-3,1,-8,-4,0,1,-1
40.23,3,0,9,51,10,2,0,-1
40.235,0,5,2,9,15,-2,-1,-2
40.24,1,5,10,14,-2,4,0,1
40.245,-3,4,-27,-34,-15,-4,-4,-3
40.25,1,-5,6,-1,12,7,4,2
40.255,-5,-4,-8,17,-10,-5,-4,-4
40.26,-2,1,5,-9,5,-5,-1,-1
40.265,0,0,11,15,-5,0,0,0
40.27,-3,-2,-8,-6,-4,-5,-3,-1
40.275,2,1,11,1,4,0,-2,0
40.28,-1,-1,2,33,3,0,-1,-1
40.285,-3,-5,-14,-26,-13,-9,-3,-4
40.29,1,3,15,-19,-3,-1,-1,-1
40.295,-13,-19,-41,-83,-38,-12,-9,-9
40.3,3,4,23,60,29,2,3,2
40.305,4,10,51,-67,12,7,1,0
40.31,2,9,-30,72,5,2,4,3
40.315,3,1,17,-3,5,4,3,3
40.32,-2,4,-3,4,-12,-1,-4,-3
40.325,-4,-5,-4,84,6,-5,-2,0
40.33,0,23,-7,-9,-8,-7,-5,-5
40.335,6,4,14,3,29,15,5,5
40.34,-1,-1,-3,-8,4,2,1,1
40.345,-8,-8,-20,-16,-17,-9,-5,-7
40.35,-11,-8,-14,-40,-37,-13,-11,-10
40.355,-3,3,-10,21,-1,-1,-3,-2
40.36,11,-1,40,41,18,6,8,8
40.365,2,-1,-16,20,8,5,6,4
40.37,-7,-10,9,-29,-1,0,-5,-4
40.375,-7,-5,-6,33,-11,-6,-4,-4
40.38,-4,-3,-12,-13,-11,-7,-8,-5
40.385,9,2,49,52,19,2,3,26
40.39,2,5,24,-6,12,6,4,-7
40.395,-1,-5,-8,15,-14,-7,1,19
40.4,-8,-5,-34,-92,-16,-1,-2,-17
40.405,0,-7,-3,21,-2,-4,2,13
40.41,0,12,-11,-58,-7,-2,1,-1
40.415,2,6,22,86,29,4,-15,-13
40.42,0,-22,-6,-24,-22,-2,3,14
40.425,-3,-1,-25,-54,-6,17,-2,-12
40.43,1,9,1,-18,16,-3,3,-1
40.435,1,-36,-25,-5,-8,-1,6,-2
40.44,-5,7,4,15,-7,-9,-7,-5
40.445,-1,16,24,-25,2,5,0,-9
40.45,11,-14,65,113,29,8,7,11
40.455,13,18,41,-128,7,3,10,15
40.46,-7,-17,-49,-38,-38,-9,-7,0
40.465,-6,-11,-38,-41,-10,-10,3,15
40.47,-7,-5,-38,-50,-16,-1,-13,-32
40.475,0,6,13,80,10,0,18,6
40.48,2,6,26,-5,16,2,-52,-7
40.485,1,3,11,66,11,0,4,-9
40.49,-9,-44,0,-68,-37,-11,4,-1
40.495,-5,-1,-7,47,-9,-3,7,4
40.5,6,5,20,-49,10,8,24,17
40.505,-3,-9,-11,35,-3,-4,-5,-3
40.51,5,10,3,8,15,5,1,1
40.515,-7,20,-19,57,0,-4,-6,-19
40.52,-3,-9,-3,-88,-16,-1,9,3
40.525,-6,-3,-7,74,-9,-7,-2,-10
40.53,-2,-2,4,52,-9,-3,-6,-4
40.535,-1,10,44,-20,-1,-4,-10,3
40.54,10,-3,37,52,34,10,30,8
40.545,2,-3,-6,-24,-5,-1,-9,-5
40.55,-3,4,20,-1,4,-1,12,61
40.555,-3,-34,-8,-31,-26,-5,-13,-94
40.56,-10,9,4,63,11,1,-3,-16
40.565,1,-3,1,-32,-3,0,14,1
40.57,2,17,-13,56,10,0,9,-5
40.575,-5,-5,7,-76,-6,-4,-62,27
40.58,1,7,0,26,1,-2,16,4
40.585,-2,3,-3,-11,7,0,0,-13
40.59,-6,-3,-38,-29,-15,-2,2,9
40.595,8,14,0,12,13,2,23,5
40.6,-7,4,-27,-33,-15,-4,-15,-17
40.605,-2,-7,6,-14,-6,-4,-9,12
40.61,5,-3,5,41,17,6,2,-15
40.615,-1,2,26,50,-14,-3,10,9
40.62,-1,2,16,-54,-10,-5,-9,3
40.625,-2,-4,5,-60,-7,-4,-4,-12
40.63,7,-3,1,48,3,0,1,2
40.635,-11,0,-29,41,21,6,8,35
40.64,-7,-10,-4,8,-17,-8,-20,-60
40.645,-1,6,2,-39,1,0,-5,-6
40.65,2,-3,10,5,-13,-7,-16,-16
40.655,7,-3,4,19,3,1,20,37
40.66,-7,-7,-26,-19,-14,-2,6,5
40.665,-11,1,9,58,13,2,-10,-33
40.67,-10,-19,-39,19,-12,-3,8,16
40.675,7,17,-34,31,18,2,-18,-15
40.68,2,-5,-17,-28,-1,-3,-3,19
40.685,-2,-6,-26,-3,-7,-6,2,1
40.69,-5,8,-3,-20,-7,-1,0,-6
40.695,3,0,-4,-60,-4,3,20,9
40.7,0,1,7,-24,-5,-3,-22,-10
40.705,1,-5,8,76,-5,-5,-5,8
40.71,-2,-2,-29,-27,-7,-5,-1,-2
40.715,-12,4,-19,-62,-6,4,3,-5
40.72,7,14,31,117,36,10,8,39
40.725,-4,10,-21,-71,-14,-6,-7,-15
40.73,0,2,3,-20,2,1,-4,-6
40.735,6,1,-2,52,6,-1,14,6
40.74,18,13,38,-1,15,2,-30,-20
40.745,-27,-12,-12,43,-18,-9,0,21
40.75,-1,-8,21,27,14,5,0,-6
40.755,5,-7,7,-52,-17,-6,4,0
40.76,3,16,-10,-2,8,4,13,-6
40.765,6,-6,3,-21,3,1,2,5
40.77,-7,-9,7,-2,1,-3,-15,-10
40.775,-7,11,-17,-13,-20,-8,-1,-9
40.78,2,-9,-17,46,-6,-3,11,4
40.785,11,4,-15,-79,2,5,2,-12
40.79,-4,-5,10,49,-3,-1,7,16
40.795,-4,1,-19,2,7,3,-9,-6
40.8,-10,-7,-39,-17,-22,-12,-3,-11
40.805,8,-22,-11,29,5,2,3,29
40.81,-7,6,8,-34,7,2,-9,-41
40.815,0,-12,2,-13,-7,-3,-8,-6
40.82,-3,-5,2,17,0,2,14,26
40.825,1,7,13,20,16,2,6,-38
40.83,10,4,-9,-40,-13,-7,-8,22
40.835,-7,-7,12,13,3,1,-10,-26
40.84,-13,-8,-3,48,4,-5,1,-6
40.845,6,-5,36,-28,-6,4,5,18
40.85,7,-1,10,26,5,0,1,5
40.855,-2,-1,6,-47,-4,-3,2,-4
40.86,-2,-5,-19,30,4,3,8,19
40.865,0,4,-1,28,-9,-5,-9,-4
40.87,-2,-3,38,25,4,3,7,-8
40.875,-5,-19,-30,-49,-11,-4,-7,6
40.88,2,24,1,7,13,5,-2,-9
40.885,-1,-4,19,32,-11,-9,-7,-1
40.89,5,-4,8,27,5,4,2,0
40.895,6,8,40,25,11,1,4,11
40.9,-6,-6,-12,-75,-29,-8,-4,-8
40.905,5,8,-14,-4,6,2,3,1
40.91,-13,-2,-10,2,1,-3,-3,3
40.915,-1,-6,-3,21,-3,-1,-12,6
40.92,-3,-5,9,-11,1,-2,-4,-42
40.925,8,1,0,-22,2,6,11,16
40.93,0,-4,29,-47,3,5,4,-1
40.935,-6,-16,14,101,-9,-18,-11,-10
40.94,-4,-4,0,-41,-7,-1,10,6
40.945,-5,0,-15,-42,-4,-1,-8,14
40.95,17,4,-19,-7,-1,0,-3,3
40.955,-21,10,-5,0,7,-1,-3,-2
40.96,0,-6,-12,-24,-16,-8,-21,2
40.965,-1,9,18,-3,10,6,11,-7
40.97,-3,2,-7,47,5,-1,-2,0
40.975,0,7,-27,-17,-24,-7,1,0
40.98,-4,-11,-32,37,5,-3,2,0
40.985,-7,-9,-8,-79,-12,-4,-10,-14
40.99,-2,6,-8,-43,-2,-3,-5,-3
40.995,9,4,8,21,19,9,4,11
41,-10,-8,-9,18,-8,-4,2,-7
41.005,0,-3,-9,-6,-6,-3,-6,-4
41.01,-1,5,6,33,0,-6,-2,14
41.015,7,-13,-21,-4,-8,-2,3,28
41.02,-6,0,8,-36,12,11,23,-11
41.025,-9,-4,-1,22,1,-2,-48,-21
41.03,-2,-5,-9,-6,-7,-15,12,3
41.035,5,5,-21,-22,3,1,-13,-3
41.04,10,-2,27,30,11,9,8,16
41.045,-3,13,-3,48,9,-1,12,0
41.05,-8,-10,0,47,0,3,-3,-3
41.055,2,3,-20,-20,4,0,7,-15
41.06,-7,-14,1,-32,-33,-18,-8,1
41.065,0,3,3,-12,-6,0,4,-5
41.07,-3,-6,-23,-15,2,-1,-15,-4
41.075,-1,-5,12,33,0,-3,3,-2
41.08,1,3,9,22,10,4,-6,-2
41.085,2,-3,5,-7,1,0,6,7
41.09,5,6,-1,-16,1,5,12,14
41.095,-11,-10,4,-32,-9,-4,-6,-24
41.1,-4,0,-14,-18,-3,-8,-26,14
41.105,-2,0,2,18,4,0,-7,-59
41.11,-1,-1,-2,-7,5,4,9,9
41.115,8,-10,31,7,-6,-2,-11,23
41.12,-12,-2,-3,18,-5,-17,6,-10
41.125,1,-7,-11,20,5,-1,10,25
41.13,-3,-1,-4,-90,-13,-4,-8,-19
41.135,-3,3,13,79,1,-1,12,-3
41.14,12,31,-14,-7,12,13,-2,6
41.145,1,7,15,-28,-5,0,2,10
41.15,-2,5,4,50,0,-3,-2,-7
41.155,-2,-2,-22,-66,-5,-2,-3,-2
41.16,-5,-6,-29,89,-9,-11,-2,-6
41.165,-10,-6,-14,-25,-6,-3,-5,2
41.17,-3,-3,2,-24,-6,2,-2,-6
41.175,0,19,-13,2,8,-1,-9,-11
41.18,3,-15,23,-4,10,6,3,0
41.185,6,-6,-12,5,-15,-5,8,45
41.19,-4,-3,0,19,-2,0,9,-32
41.195,-5,-8,-21,-22,-7,-5,-26,6
41.2,-9,7,1,-24,12,2,-7,-30
41.205,3,-40,22,-14,-13,-3,9,28
41.21,6,4,-10,-5,0,0,2,9
41.215,6,-3,7,2,-1,1,7,-9
41.22,0,3,15,13,6,6,4,14
41.225,-4,5,-9,27,4,-3,-6,-12
41.23,-7,-4,-5,-10,-14,-3,-3,-4
41.235,-1,-14,9,6,3,1,-4,-7
41.24,7,-2,7,-29,7,5,3,14
41.245,-4,-1,-6,-28,-6,-5,-1,-11
41.25,-2,10,-27,41,-6,-7,-9,-7
41.255,-1,0,-7,21,3,4,8,3
41.26,4,0,19,0,-12,-6,-2,1
41.265,2,8,37,9,14,5,5,-5
41.27,1,-3,-13,-12,-5,-2,-16,-4
41.275,-3,-1,1,-25,2,1,13,3
41.28,1,-4,-10,-8,0,-1,-5,19
41.285,1,-14,-9,25,1,0,7,2
41.29,-1,-3,6,-31,0,-3,-18,-17
41.295,-6,0,12,34,-2,-1,-19,-29
41.3,4,-9,-5,-31,-4,2,9,25
41.305,-4,-5,22,-15,3,0,-1,-1
41.31,0,-4,-5,78,12,0,7,11
41.315,-3,-5,-14,-90,-29,-7,7,7
41.32,2,4,-4,8,-2,-2,-1,-12
41.325,-6,4,-19,-5,-2,-3,-10,-14
41.33,1,-4,11,-7,2,-2,0,4
41.335,-1,2,4,14,9,-3,1,-4
41.34,2,-6,-6,-73,-3,8,1,4
41.345,-5,-11,-10,73,-16,-7,-11,-28
41.35,-1,-4,5,5,3,7,3,15
41.355,-4,0,-16,-14,-6,-9,-4,-6
41.36,0,5,-3,-6,8,-2,3,-4
41.365,1,2,-9,28,12,7,8,8
41.37,-2,-1,0,-86,-14,5,-2,-4
41.375,4,-2,18,34,9,-2,-19,6
41.38,1,2,9,10,11,5,-1,-40
41.385,-12,-1,-26,-49,-23,-9,-5,-12
41.39,-1,-2,2,12,-1,0,3,4
41.395,4,2,3,-25,3,1,18,0
41.4,-4,-3,2,33,-2,-4,-12,10
41.405,2,6,-4,17,5,-4,-8,-7
41.41,-4,-2,-4,-17,-1,-5,-10,-2
41.415,2,0,5,9,5,4,7,14
41.42,-3,-6,-5,39,-4,-3,3,-5
41.425,3,3,-1,-23,-6,-1,5,9
41.43,0,0,5,4,-1,-8,-1,-6
41.435,-4,-1,7,7,14,11,5,-6
41.44,-5,-7,-14,-10,-25,-11,5,1
41.445,-1,1,-9,-24,1,3,-13,-6
41.45,-2,-2,-23,-6,2,3,-3,-1
41.455,-2,-4,-8,6,-7,-8,-7,-8
41.46,2,2,7,-2,4,-1,2,0
41.465,-1,15,-2,36,0,-4,-1,9
41.47,7,0,-2,-11,-3,1,2,2
41.475,-13,-1,-1,-1,-1,3,5,-8
41.48,-1,-3,2,8,-2,-2,-2,3
41.485,1,2,1,1,6,-1,1,0
41.49,-1,-4,9,6,1,-2,-4,0
41.495,3,0,-4,-12,-9,-4,-1,-4
41.5,0,0,-2,3,0,-1,-2,3
41.505,1,-2,-3,-4,6,6,5,30
41.51,-9,-4,1,4,-2,-8,2,-34
41.515,4,-7,31,10,-2,6,-3,8
41.52,-4,0,-7,5,-4,-2,9,3
41.525,1,-1,0,5,6,-4,-10,2
41.53,3,-3,3,-14,-4,5,3,15
41.535,-1,-2,-13,-5,-3,-5,9,-6
41.54,5,7,4,-9,2,-1,4,-2
41.545,-10,-17,27,38,0,-1,-7,-9
41.55,2,2,-11,-29,-13,-5,-2,9
41.555,3,-3,-11,-11,-2,-14,-5,17
41.56,-9,0,0,0,-3,-1,-4,-30
41.565,5,5,-8,-13,4,1,2,3
41.57,-3,0,2,20,5,3,14,7
41.575,13,2,4,-4,-1,1,3,44
41.58,-17,-9,-14,-4,-3,-3,-28,-68
41.585,6,11,-1,-12,-2,-4,-3,-4
41.59,-9,-4,-3,4,0,0,-3,-7
41.595,1,-2,-13,-2,0,1,14,7
41.6,5,-3,-7,2,-4,-3,6,16
41.605,3,3,-4,-1,-1,3,1,-11
41.61,6,-3,-4,-13,-3,-7,-9,11
41.615,3,2,5,1,0,2,1,-5
41.62,-9,-3,0,5,-6,-7,-16,-3
41.625,16,-4,-2,0,0,1,0,-28
41.63,-32,1,3,-7,5,3,4,16
41.635,-5,-8,-9,-3,-14,-7,-9,-16
41.64,-3,-2,2,-1,1,3,1,12
41.645,-1,7,-4,-18,-5,-1,9,6
41.65,17,-3,11,34,5,1,-2,9
41.655,-5,0,-8,6,3,5,-4,-32
41.66,-2,-3,-2,-7,-2,-5,1,25
41.665,6,3,1,-6,-2,1,15,4
41.67,-7,-1,-6,0,2,-2,-34,-22
41.675,-1,5,-1,-13,5,4,4,8
41.68,10,-16,-7,-6,-13,-6,-8,8
41.685,-19,1,0,1,-2,-3,-3,3
41.69,8,-4,-5,-8,-5,-2,5,8
41.695,-13,-1,2,4,3,1,-1,-26
41.7,4,11,-23,4,7,2,6,30
41.705,-1,-27,59,2,1,3,2,-29
41.71,2,-3,-5,9,-3,0,8,8
41.715,-2,9,6,2,2,-2,-19,-14
41.72,3,-2,-14,-10,-1,1,8,-9
41.725,-5,0,-22,-4,-3,-2,-4,49
41.73,-2,5,1,1,-2,-4,0,-80
41.735,1,-19,11,7,3,1,3,13
41.74,-2,-2,13,0,-3,-3,-3,2
41.745,-6,3,-15,2,3,2,10,-6
41.75,13,-2,2,-20,-3,-4,-13,34
41.755,-20,0,-15,2,-8,-3,0,-14
41.76,-2,1,10,10,1,0,-1,-5
41.765,-2,6,-33,-6,-3,-4,-10,3
41.77,-2,1,-11,-1,-2,-2,14,8
41.775,0,-8,-3,-12,2,1,-7,1
41.78,6,7,1,12,0,-2,-1,2
41.785,4,-5,35,-1,-4,0,8,21
