timestamp,ch1,ch2,ch3,ch4,ch5,ch6,ch7,ch8
0.005,7,8,3,3,0,-4,1,-1
0.01,-1,7,14,1,3,3,12,4
0.015,0,3,-2,-3,-6,-10,-19,-2
0.02,-1,14,-42,-19,-9,-6,-14,-14
0.025,-8,-13,4,2,3,6,7,-1
0.03,0,-7,-3,6,1,-1,3,2
0.035,-3,0,-2,-1,3,3,8,1
0.04,-1,-15,17,14,4,-1,2,0
0.045,1,2,-43,-17,-7,-3,-4,-4
0.05,3,9,-7,-6,0,0,-3,0
0.055,0,-9,45,30,11,5,3,-1
0.06,0,8,1,2,-7,-2,-3,1
0.065,-6,-18,21,13,8,3,0,0
0.07,-3,-4,-11,-19,-4,-2,-5,-2
0.075,-1,-6,18,1,-4,0,0,-2
0.08,1,0,7,4,8,3,3,2
0.085,-2,14,-22,2,-2,-4,-7,0
0.09,-2,3,8,14,-8,-2,-4,-2
0.095,3,0,-4,26,26,4,0,0
0.1,-7,-8,-10,-12,-15,-2,0,-3
0.105,-7,-14,-4,-22,-3,0,0,-2
0.11,1,-9,1,3,-3,-4,-6,-4
0.115,-4,-2,1,4,4,0,-3,-5
0.12,2,2,-5,-1,0,-1,1,3
0.125,-1,0,-3,-3,0,-1,-1,-2
0.13,-5,-52,6,12,2,0,-1,-2
0.135,9,94,14,-30,-10,-1,-1,2
0.14,-5,-18,1,-7,1,0,-1,0
0.145,4,-8,1,9,4,2,4,3
0.15,-17,-3,-14,-7,-4,-7,-9,-5
0.155,11,-90,54,19,3,4,5,-2
0.16,-2,-60,10,-4,-3,0,1,0
0.165,-14,-41,-21,-5,-3,-5,-7,-8
0.17,9,61,-39,-10,-3,-1,0,2
0.175,-5,-19,-20,-1,0,-4,-1,9
0.18,72,104,62,8,1,3,2,40
0.185,-55,-104,-12,25,11,18,18,3
0.19,-16,-72,55,-27,-18,-16,-16,-46
0.195,11,57,-31,-2,-2,-1,-1,-3
0.2,5,22,-103,-14,-3,-4,-4,3
0.205,15,54,115,18,2,1,5,15
0.21,20,29,-111,3,7,6,2,5
0.215,-12,-71,15,-28,-7,-6,-5,-5
0.22,-15,43,37,42,22,2,-4,-15
0.225,-36,-33,-19,-69,-71,-12,-8,-14
0.23,-6,34,30,23,7,4,4,4
0.235,-1,-24,37,7,-1,-3,9,-2
0.24,-1,-17,8,4,17,8,-3,-4
0.245,18,31,-11,15,16,-1,-3,0
0.25,6,-22,19,45,26,4,4,9
0.255,11,38,-11,-8,5,4,0,10
0.26,-18,-67,6,-81,-74,-22,-5,-12
0.265,-9,-34,-27,21,2,-3,-2,-5
0.27,-33,-24,-35,-42,-21,-14,-12,-13
0.275,-12,-83,-47,32,39,6,-7,-3
0.28,-17,-19,49,1,11,2,3,-11
0.285,18,-10,-45,-23,-10,-10,-9,-3
0.29,18,16,27,8,13,4,1,12
0.295,4,-14,-22,14,-7,1,0,-7
0.3,-29,-2,-27,-12,-8,-5,-2,-7
0.305,-7,10,28,4,9,0,-1,2
0.31,8,-2,-1,6,0,2,0,3
0.315,7,76,0,-12,-9,0,5,2
0.32,-6,-25,5,10,-2,0,0,-5
0.325,21,104,35,11,19,2,-3,3
0.33,4,-5,6,-5,-7,0,2,2
0.335,-3,-14,31,-9,-17,-7,-8,-5
0.34,6,-55,-47,7,14,3,0,-1
0.345,-1,7,24,2,5,4,6,-1
0.35,-23,-98,-66,-36,-19,-8,-8,-10
0.355,12,47,32,12,1,0,0,1
0.36,-5,-17,2,15,5,-5,-4,-4
0.365,5,-21,-28,-5,0,-2,-1,-4
0.37,0,-29,33,1,-7,2,5,6
0.375,-8,-38,-21,1,3,-4,-8,-5
0.38,-14,-3,-19,9,3,6,8,1
0.385,0,-35,-4,-12,-6,-2,-5,-6
0.39,8,69,38,7,7,2,3,5
0.395,-10,-13,-20,11,1,-2,-2,1
0.4,0,0,0,-1,-10,-1,0,0
0.405,20,87,14,10,4,4,7,7
0.41,-4,-23,38,-12,-4,-1,-2,-5
0.415,-7,-3,5,0,-1,0,-1,-3
0.42,11,-3,-12,5,1,-2,-3,-3
0.425,0,-15,-2,3,6,0,-2,2
0.43,4,19,4,6,0,1,3,3
0.435,1,12,-10,-8,-6,-3,-2,-2
0.44,-16,-44,-8,2,1,-2,-5,-5
0.445,-3,-37,33,0,-3,-3,-2,-2
0.45,-12,-54,-69,-34,-10,-3,-4,-3
0.455,6,-7,7,-1,-2,0,1,3
0.46,0,-41,-24,4,3,-3,-5,-8
0.465,-2,-10,1,-20,-3,-3,-4,-4
0.47,2,-7,1,24,2,2,2,1
0.475,2,51,3,-17,-6,-1,0,1
0.48,-3,-16,-4,13,3,1,9,5
0.485,-3,-10,14,9,5,2,3,0
0.49,0,20,13,1,-2,-2,-1,-4
0.495,-5,-17,-9,1,-4,-3,-5,12
0.5,7,25,-3,-7,2,0,-2,0
0.505,3,1,-10,-7,5,2,-3,-2
0.51,20,93,7,-7,-8,-1,6,13
0.515,-16,-49,-12,-56,-10,-2,4,-8
0.52,-2,12,-18,-24,-4,-3,-6,-1
0.525,-5,-18,-32,-10,3,-1,3,1
0.53,-7,1,52,9,15,4,9,7
0.535,9,-2,2,78,1,-2,-6,-12
0.54,-8,48,67,25,3,1,1,1
0.545,-6,-23,-55,-14,-14,-10,-12,-10
0.55,-5,-3,15,-31,-1,1,6,7
0.555,-1,3,-18,1,-3,3,24,39
0.56,-4,-6,30,16,-1,-4,-57,-31
0.565,4,0,-11,41,1,-2,-9,-1
0.57,1,-1,2,19,0,-1,2,0
0.575,-8,-9,64,31,4,-1,-4,-8
0.58,5,8,-30,-34,-3,1,15,8
0.585,-5,-5,-39,-27,-9,-6,-1,0
0.59,9,14,8,-12,1,-1,-9,-3
0.595,-4,-26,38,47,8,2,-3,-10
0.6,-5,-2,31,-17,-3,-2,9,6
0.605,-6,-15,-37,27,-8,-3,-3,-12
0.61,-3,-21,-39,-49,-4,-3,2,-1
0.615,-2,-4,-6,4,1,-4,-7,-14
0.62,8,16,26,23,6,3,17,6
0.625,9,15,58,44,19,4,-17,-17
0.63,0,24,18,68,-11,0,1,2
0.635,-8,-9,-76,-116,-24,-9,-7,-7
0.64,-3,-4,-59,-24,-10,-7,-4,-2
0.645,4,13,16,-22,-1,-2,6,8
0.65,-1,-12,15,45,13,4,-2,-5
0.655,3,14,31,30,9,3,-3,-4
0.66,5,16,-8,5,8,43,10,5
0.665,-8,-30,-15,-29,-17,-50,-4,-3
0.67,-6,-14,23,9,6,3,-1,-3
0.675,-2,0,-87,-29,-3,-2,49,40
0.68,-6,-17,50,-13,-3,-10,-27,-17
0.685,1,-59,0,22,11,25,3,-4
0.69,0,-59,-47,-10,-4,-4,-8,-2
0.695,-10,11,33,7,-6,-9,-7,-3
0.7,5,-12,-57,6,-3,-5,10,9
0.705,-2,10,21,-9,-2,5,11,-9
0.71,1,27,52,-6,-1,-9,-4,-4
0.715,-1,-20,-124,-21,-5,-1,-24,-16
0.72,-17,-15,0,-1,-7,-11,0,-10
0.725,-9,-80,-10,-14,-7,-4,-12,-4
0.73,6,4,-52,17,7,12,13,12
0.735,2,21,127,33,10,3,-8,-4
0.74,-18,11,-89,-66,-26,-21,-13,-9
0.745,-6,-1,-54,-9,-2,1,10,7
0.75,18,37,16,18,3,0,14,5
0.755,15,48,-12,-4,3,3,-16,-7
0.76,-7,-44,-51,5,-3,-3,12,2
0.765,22,89,127,19,4,3,-9,0
0.77,-20,-33,-86,-27,-7,-4,1,-3
0.775,1,6,76,-4,-1,-1,38,15
0.78,18,6,13,9,-2,-6,-35,-23
0.785,10,34,-54,3,4,10,38,10
0.79,-31,-14,37,3,-4,-7,-51,-81
0.795,4,-4,19,10,8,3,1,31
0.8,7,4,111,8,7,15,76,40
0.805,-5,-6,-20,-5,-6,-26,-103,-46
0.81,-11,-92,25,-11,0,8,62,21
0.815,-14,-18,-76,-10,-4,-9,-31,1
0.82,11,35,72,16,6,-2,-22,23
0.825,-19,-39,-70,-11,-9,1,-3,-41
0.83,9,30,-21,-14,-3,0,24,48
0.835,-3,-48,-18,2,-4,1,-8,-25
0.84,-6,-18,29,3,3,2,23,24
0.845,-8,-6,99,9,-1,1,-42,-1
0.85,11,24,-75,22,2,-5,-28,-2
0.855,4,-99,7,1,-2,-2,27,-16
0.86,25,101,5,33,10,8,-4,1
0.865,-10,-73,75,-12,3,8,30,19
0.87,8,-43,-19,-11,-8,-6,-17,-13
0.875,7,9,35,25,-4,-5,-22,-3
0.88,-6,-27,-32,-19,-4,-6,4,4
0.885,5,41,-21,18,6,8,23,41
0.89,-1,-10,51,0,-1,0,-33,26
0.895,-10,26,24,-12,1,2,23,75
0.9,-8,-3,-28,28,6,-3,-13,-52
0.905,1,19,-23,-10,3,3,17,9
0.91,-3,1,-3,-15,-13,-6,-11,-1
0.915,10,16,-22,-1,-8,-4,-4,-8
0.92,12,-31,-11,5,8,5,1,13
0.925,-14,60,-65,-6,-16,-5,0,4
0.93,-19,43,85,-19,0,2,9,-20
0.935,3,84,-32,-3,11,5,-12,-49
0.94,-1,-17,-23,10,7,1,0,10
0.945,15,-15,10,9,17,4,12,-14
0.95,4,-54,-88,-11,2,-3,14,32
0.955,-25,-64,-31,-28,-57,-27,-39,-29
0.96,-17,-23,-49,28,28,7,-8,-47
0.965,3,32,22,-39,-4,-1,4,8
0.97,7,19,-37,-19,-38,-7,1,-9
0.975,7,-7,-5,-2,32,16,9,3
0.98,-10,-68,-4,-1,-1,-7,-2,24
0.985,-6,-28,41,21,8,0,-30,-13
0.99,-6,-8,-3,-28,-35,-10,-6,-14
0.995,-8,7,-10,-22,-6,-4,-5,-22
1,5,12,37,2,24,3,1,8
1.005,5,-6,-33,4,1,5,15,9
1.01,-9,9,78,-6,8,1,-6,-12
1.015,-6,-19,-64,18,-63,-22,-12,-8
1.02,-8,0,25,-30,-21,-8,-4,10
1.025,1,-19,-12,1,12,-1,7,0
1.03,3,28,-38,12,21,3,-6,-13
1.035,-1,-2,-34,9,30,4,4,4
1.04,0,-7,1,-3,-5,-2,-12,-15
1.045,1,-23,-26,-4,-15,3,14,17
1.05,-7,-38,14,19,-1,0,-3,-5
1.055,9,-42,3,-15,6,5,6,15
1.06,6,58,21,-2,-9,-7,0,2
1.065,-6,-1,2,-7,1,-2,-3,-2
1.07,6,3,-77,23,2,-8,-6,-5
1.075,-3,-8,84,-5,13,11,4,2
1.08,-17,-12,-46,-30,-36,-13,-5,-10
1.085,-2,-13,-50,-5,0,-1,2,3
1.09,3,43,44,18,20,2,0,-1
1.095,3,11,-25,2,4,0,-3,-11
1.1,4,-11,-46,2,4,-2,-5,7
1.105,1,40,58,14,11,6,6,-3
1.11,4,-35,-34,3,-11,-3,6,6
1.115,-8,8,7,-32,-11,1,-8,-5
1.12,0,-8,6,-18,-19,-7,1,6
1.125,2,-19,-87,-36,-20,-4,-2,4
1.13,-4,-34,68,-16,14,-2,-2,-3
1.135,2,8,-81,34,31,8,14,2
1.14,-6,10,49,-2,1,-2,-4,-8
1.145,13,76,-2,11,-2,-5,0,6
1.15,4,53,24,20,7,10,8,2
1.155,-7,-44,-10,-10,7,-4,-6,10
1.16,-11,-77,-28,-17,-35,-1,0,-8
1.165,15,11,4,2,-2,-3,0,-3
1.17,-9,-80,-18,11,18,10,8,12
1.175,-1,-23,59,2,19,3,0,-7
1.18,3,-49,-5,33,-18,-12,-2,-5
1.185,3,-39,-61,-44,-35,-6,-8,3
1.19,3,45,11,-6,-8,1,2,3
1.195,-9,-47,14,-11,1,-2,-12,-22
1.2,-2,-15,22,14,27,6,0,5
1.205,-3,-2,-17,17,17,3,4,-1
1.21,24,16,-47,49,66,13,1,10
1.215,-13,36,80,-22,-77,-17,-1,1
1.22,12,85,-31,-29,-59,-16,-6,3
1.225,-14,-74,52,-19,1,-3,-5,-9
1.23,-13,-36,-22,-13,-5,0,-2,-8
1.235,8,23,20,36,41,11,5,3
1.24,7,-52,-3,11,21,2,-4,-4
1.245,0,36,-12,7,-3,0,6,9
1.25,47,80,33,11,-3,6,9,14
1.255,-19,-94,-16,6,13,0,-1,-3
1.26,-3,-36,12,-24,-15,2,-1,-2
1.265,4,-11,6,28,16,-5,-4,1
1.27,-8,9,-47,1,-30,-7,-5,-15
1.275,26,64,19,-9,-12,0,7,14
1.28,-3,1,-77,6,26,7,-1,-7
1.285,-14,-55,48,-12,-10,-7,-4,-6
1.29,-10,-27,7,-4,3,-4,-4,-2
1.295,-12,-67,-15,-10,-1,-6,-5,-9
1.3,-15,-18,2,25,24,5,-3,-4
1.305,-12,-103,-102,2,-18,-8,-9,-13
1.31,12,3,8,-4,-9,-2,4,5
1.315,12,6,-9,-8,-17,5,1,-1
1.32,0,-16,-69,-16,4,3,6,5
1.325,-31,-76,2,-50,-21,-12,-13,-15
1.33,-9,-23,49,-3,-15,-9,-8,-5
1.335,5,50,-90,33,47,7,-1,-2
1.34,16,54,119,-18,-44,-8,-1,1
1.345,8,101,73,60,32,17,16,17
1.35,11,35,-29,-21,15,0,-2,0
1.355,8,52,-19,-43,-51,-10,0,3
1.36,-2,-31,33,24,28,-2,-7,-11
1.365,1,-10,-10,-2,18,-1,-4,-7
1.37,17,34,45,9,-14,3,5,12
1.375,-11,-61,16,25,28,0,-6,-6
1.38,-8,5,7,-23,-1,2,1,-7
1.385,0,-15,41,15,2,-2,-1,1
1.39,-9,-16,59,85,34,4,-5,-5
1.395,-16,24,-34,-16,-27,-12,-9,-10
1.4,9,19,-9,-17,15,1,-5,-2
1.405,-21,-34,-50,-31,-28,-13,-9,-11
1.41,-12,-1,40,1,-15,1,1,-8
1.415,-1,-46,-7,-30,-17,-8,0,3
1.42,-1,-9,-20,10,6,4,9,4
1.425,-3,-1,-10,5,9,3,-1,0
1.43,-6,-31,-27,-34,-11,-9,-8,-4
1.435,-3,-8,29,47,6,2,0,-2
1.44,-3,8,-31,16,16,5,3,1
1.445,14,28,-15,-56,-12,-1,1,5
1.45,-19,-57,-43,-39,-20,-5,-6,-7
1.455,6,14,27,28,23,8,6,7
1.46,-6,-60,-17,-17,-10,-8,-7,-3
1.465,-5,-23,25,48,1,6,6,-1
1.47,-10,-27,-33,-12,-3,-3,-1,-2
1.475,-12,-12,-45,-89,-7,-8,-6,-6
1.48,-1,0,5,35,-10,-6,-2,2
1.485,3,0,0,-3,-9,-6,-5,1
1.49,12,66,7,19,10,6,2,1
1.495,-4,-28,-3,5,-4,0,3,0
1.5,7,32,-10,4,12,2,-2,-2
1.505,-4,-25,2,9,-14,-4,-1,0
1.51,-10,-38,-36,-65,-18,-7,-8,-4
1.515,4,5,2,0,7,2,1,1
1.52,-4,14,16,7,-11,-4,0,-2
1.525,6,20,1,-26,10,5,1,1
1.53,-7,-23,3,24,10,-5,-3,-3
1.535,-6,-21,13,-1,-10,-5,-5,-3
1.54,-5,-47,-18,-5,-10,0,1,1
1.545,4,18,8,30,20,3,1,1
1.55,-5,15,-15,-84,-49,-14,-6,-4
1.555,1,0,19,36,27,7,2,-6
1.56,-2,-12,10,17,-12,-7,-4,-5
1.565,32,94,46,-9,0,2,7,20
1.57,-10,-28,-3,39,10,6,4,-6
1.575,7,1,-8,12,-12,-4,-5,2
1.58,-7,5,-2,-59,-3,-3,-5,-2
1.585,3,-3,-15,-3,-11,-2,2,0
1.59,-4,-28,3,11,17,-1,-1,-1
1.595,8,33,20,22,2,4,3,2
1.6,-5,-18,10,9,5,2,1,5
1.605,-8,-17,-7,1,1,0,-4,-7
1.61,4,8,-36,-19,-8,-6,-5,-2
1.615,0,-5,20,22,-11,1,3,2
1.62,-4,14,-9,-12,16,-1,-3,-11
1.625,-6,-23,-3,-5,7,2,0,-4
1.63,-8,14,-46,-21,-8,-1,2,-1
1.635,-1,-12,10,-7,0,-2,0,0
1.64,9,51,29,46,7,2,2,-3
1.645,1,9,-13,-26,-6,-3,-2,-5
1.65,-4,-28,28,37,0,-3,0,-3
1.655,-4,-10,-46,-19,-3,-2,-5,-1
1.66,-10,-11,-14,-53,-12,-5,-6,-2
1.665,-4,-15,15,28,-1,-1,2,4
1.67,12,-1,-23,-10,1,3,0,-7
1.675,-15,-21,3,-22,2,0,1,3
1.68,-4,-23,-8,47,2,3,2,-4
1.685,-7,10,-50,-93,-12,-7,6,2
1.69,8,-29,19,14,2,0,-11,9
1.695,-11,20,30,42,5,1,8,17
1.7,-27,-30,-5,18,0,-2,-12,-54
1.705,8,19,-9,16,1,-3,-6,2
1.71,0,-26,-18,-87,-2,4,7,17
1.715,-8,-2,18,11,3,9,24,-2
1.72,17,19,-3,-27,-5,-14,-10,-3
1.725,-28,-29,13,34,-7,-6,-33,-7
1.73,-4,-2,15,10,2,0,13,13
1.735,50,4,-9,-6,-2,-5,-29,-22
1.74,-1,2,6,9,3,7,35,36
1.745,3,-24,0,4,-1,1,-2,-2
1.75,16,16,14,15,2,-4,-15,-34
1.755,-56,17,-23,-17,-2,4,13,13
1.76,7,-28,4,26,-1,-4,-9,-11
1.765,7,-24,-2,-44,2,-1,6,3
1.77,-26,-1,-3,20,-6,-16,-31,-36
1.775,32,8,-29,1,2,-1,4,2
1.78,-9,1,-7,-16,-1,1,-14,11
1.785,-13,43,10,18,-1,6,13,27
1.79,12,-7,6,19,1,-2,5,-31
1.795,-19,19,-21,-22,-10,-15,-19,-32
1.8,-20,-74,18,1,8,14,14,15
1.805,8,-12,-16,9,-8,-2,8,4
1.81,-16,7,-6,-4,-9,-7,-8,13
1.815,4,-4,9,-11,-5,-4,-8,7
1.82,15,34,-7,-4,8,5,5,3
1.825,-10,-44,-9,23,18,4,-2,-18
1.83,-16,-73,-8,-8,-16,0,0,6
1.835,1,2,-16,-1,-3,-4,-2,1
1.84,-4,8,-32,-21,-14,-4,-2,8
1.845,11,-10,7,-3,-7,-5,-8,-14
1.85,-2,-3,-8,13,14,-2,-4,5
1.855,6,3,1,-1,2,1,5,-3
1.86,-1,16,11,-4,-9,-1,2,-7
1.865,-3,-27,4,10,6,1,0,-4
1.87,9,13,-9,-1,0,9,12,15
1.875,-2,-2,-5,-5,4,0,1,-3
1.88,7,17,15,-3,-3,-4,-2,7
1.885,-3,-7,-14,1,-4,0,-5,-13
1.89,23,98,3,-2,-5,-6,5,13
1.895,-12,-93,44,14,1,1,0,4
1.9,-4,-14,-40,-16,-10,-4,-6,-8
1.905,2,-3,18,12,-1,-3,9,4
1.91,-11,-3,-4,-1,18,1,-3,-19
1.915,8,11,9,5,1,4,3,7
1.92,12,68,8,-13,4,-5,-15,1
1.925,-1,9,-13,0,-9,-1,7,0
1.93,-5,-20,-20,-19,-10,1,4,7
1.935,3,16,-12,-11,1,0,-1,7
1.94,-5,-32,6,-4,-14,-4,3,6
1.945,1,20,19,0,-12,-4,-10,-14
1.95,-6,-35,-2,10,12,-1,-1,-3
1.955,2,-9,-6,-35,-9,4,7,8
1.96,6,5,-7,15,25,9,12,19
1.965,1,6,14,14,2,-3,-11,-2
1.97,-4,-10,11,-1,-12,-4,15,1
1.975,-10,17,1,11,-8,-7,-21,-51
1.98,5,14,-29,-8,-1,4,3,31
1.985,-8,-6,14,-3,-2,-2,-6,-28
1.99,11,-11,-9,6,1,7,14,40
1.995,-3,-6,-3,-3,-4,-4,0,-8
2,-8,-10,-1,-2,1,11,15,-5
2.005,0,7,-11,-3,1,-14,22,-7
2.01,-4,-8,11,-7,-7,-1,-29,-33
2.015,14,6,5,13,6,6,17,39
2.02,4,5,5,8,-15,-5,-18,-14
2.025,-4,-16,-17,-7,5,8,21,19
2.03,-9,-6,17,7,25,-4,-16,-37
2.035,1,11,-9,-7,-2,-2,5,0
2.04,2,-8,20,-3,-1,2,14,7
2.045,-2,-3,-41,-9,-17,-6,0,23
2.05,-5,10,6,-20,-10,-8,-29,-3
2.055,-3,-33,16,15,10,8,9,5
2.06,-1,-2,-7,-3,-4,-3,2,-18
2.065,-6,6,10,-4,-3,-3,-25,-21
2.07,3,13,6,6,1,-4,-17,10
2.075,1,9,-5,-9,-4,-3,-2,-2
2.08,0,9,-5,4,-1,-6,-5,-7
2.085,2,16,13,-4,1,2,-11,9
2.09,-4,-18,-2,-10,-7,2,20,3
2.095,11,65,24,12,-1,-3,-7,33
2.1,-3,-7,24,5,2,-3,49,1
2.105,1,-4,-23,-1,1,-3,-26,-21
2.11,-2,-1,2,3,-1,-1,3,-4
2.115,-7,-10,-9,-10,-1,-1,0,-5
2.12,-8,-9,18,-4,-1,-1,6,-1
2.125,-1,4,0,0,1,-1,21,12
2.13,-6,-6,2,9,-1,1,-38,12
2.135,-2,-31,-3,-3,-2,-4,5,-7
2.14,-5,-9,-29,-5,8,1,-16,-9
2.145,3,11,17,0,-4,-4,-8,-4
2.15,-7,-31,4,-6,-5,4,20,14
2.155,-5,0,-21,-10,-8,-4,-5,-13
2.16,5,3,5,-1,-5,-4,-13,0
2.165,-5,-16,2,-3,-2,1,-11,8
2.17,0,13,12,9,6,2,13,-12
2.175,-3,-5,3,3,-5,-6,-14,-15
2.18,-2,-12,6,-9,1,-1,-5,0
2.185,1,-4,-6,2,-2,0,-1,13
2.19,0,-2,-14,-5,-7,2,62,27
2.195,0,39,12,2,-1,-4,-37,-28
2.2,-2,-11,10,3,-1,-8,-30,-12
2.205,-3,-20,-11,1,3,3,-9,3
2.21,-1,6,5,-1,-2,2,7,13
2.215,-11,-19,-3,0,2,0,14,5
2.22,6,17,-5,1,-2,0,-1,1
2.225,-8,-8,6,-1,2,-1,6,-12
2.23,-7,-18,-2,1,-3,1,-1,4
2.235,-4,1,-12,0,0,-4,-5,-1
2.24,-4,-4,8,10,0,-1,-13,-8
2.245,2,22,-5,-8,-4,-1,1,-12
2.25,-1,12,13,4,2,0,-8,-3
2.255,3,-11,5,1,1,-2,-2,5
2.26,2,13,-1,3,-3,-1,-2,-4
2.265,-3,-13,-3,-2,-1,0,7,8
2.27,1,-4,-5,2,-2,-5,-10,-10
2.275,1,-10,-2,6,0,0,0,-4
2.28,0,-14,-7,-4,-1,-1,24,15
2.285,-3,-1,-11,-8,-1,-1,-3,5
2.29,1,4,1,1,-2,-3,-6,7
2.295,-12,-28,-15,-5,1,-4,-15,-25
2.3,-4,-34,32,1,4,4,24,36
2.305,-4,6,-21,11,-1,-6,-24,-43
2.31,0,0,-31,-10,-6,-6,-7,-8
2.315,6,7,-7,1,2,2,19,19
2.32,-3,2,-4,-9,3,2,-11,-9
2.325,3,11,11,11,9,3,9,12
2.33,-2,-9,-6,-18,-15,-3,-7,-8
2.335,0,14,-6,9,-7,-7,-10,-10
2.34,-3,-34,13,2,-6,-3,21,20
2.345,-1,23,-16,-11,11,1,-13,-33
2.35,4,20,2,41,15,4,20,47
2.355,1,19,-6,-26,-22,-3,-23,-29
2.36,-1,21,-8,-19,1,-3,-3,1
2.365,6,18,-2,37,0,-1,8,-10
2.37,-6,-26,1,-49,-14,-3,-4,-20
2.375,-6,6,-8,9,12,5,15,10
2.38,2,3,3,5,-5,-3,-17,-8
2.385,3,5,-17,-30,6,0,1,6
2.39,-7,-13,-4,0,-10,-2,-10,-15
2.395,4,-8,8,-18,-14,2,3,7
2.4,-5,9,-21,-9,3,-5,-15,-26
2.405,-12,-28,-3,23,6,-4,-2,22
2.41,3,27,2,-2,5,-6,-19,-47
2.415,1,-3,-5,10,-2,-3,2,9
2.42,-2,18,-40,7,-6,1,-4,-9
2.425,4,-23,25,6,-8,4,15,10
2.43,1,16,-28,-24,-8,-2,-5,1
2.435,-5,-25,8,1,-4,-4,-5,10
2.44,3,2,-5,15,4,2,-9,-13
2.445,-5,-15,-3,-15,-3,-1,-2,1
2.45,5,15,5,7,6,0,3,-3
2.455,2,0,3,-1,5,2,4,2
2.46,-3,2,17,9,-9,-8,-14,-3
2.465,0,7,-2,7,3,-3,3,5
2.47,-1,-4,3,-1,-8,1,3,4
2.475,2,5,-1,-20,-10,-2,6,-2
2.48,-5,-23,-8,1,9,0,-11,-9
2.485,0,-5,9,-7,-8,2,20,15
2.49,5,34,23,34,6,-6,-31,-28
2.495,-3,-5,6,15,9,3,4,1
2.5,-3,-1,-14,-17,-8,-8,-12,-6
2.505,7,11,5,10,-4,2,4,11
2.51,0,3,-3,-2,9,-3,15,16
2.515,-7,-18,-4,-23,-2,6,6,-4
2.52,1,9,24,-2,4,-6,1,-10
2.525,-3,-9,-2,-13,-8,-6,-24,-1
2.53,-1,-7,13,7,-5,-4,-6,0
2.535,0,5,3,4,4,1,-1,8
2.54,-1,-6,-19,7,0,4,-3,0
2.545,1,0,14,-5,-1,1,19,-4
2.55,-2,-13,-18,-26,-1,-7,-12,2
2.555,1,3,-11,2,-2,-6,-4,-11
2.56,-4,-13,4,6,4,14,9,6
2.565,-4,-5,-10,3,-7,-15,-21,-14
2.57,0,1,1,5,-2,4,2,8
2.575,-3,-7,28,56,7,-4,0,-1
2.58,-3,-34,-49,-29,-6,4,51,27
2.585,-6,-3,-24,-59,-13,-5,-32,-46
2.59,1,-13,-9,-24,-1,-3,-6,-6
2.595,1,2,18,7,1,-3,-1,1
2.6,2,8,45,27,0,-2,7,1
2.605,-7,-2,-8,20,2,5,10,15
2.61,2,-2,-2,-11,4,5,11,2
2.615,1,9,7,0,-2,1,0,-2
2.62,-1,14,-27,-20,-9,-10,-26,-13
2.625,3,-8,7,4,-2,0,8,8
2.63,-8,-10,6,7,-2,5,0,0
2.635,-1,4,-19,0,4,-5,-3,2
2.64,-6,-2,-7,-8,-2,2,-10,-9
2.645,1,-7,-5,-15,-11,-3,-2,1
2.65,1,15,30,27,14,2,11,2
2.655,-6,-30,2,-15,-2,2,-2,-4
2.66,-3,-8,1,-29,-12,-8,-9,-6
2.665,1,6,6,6,1,0,-2,0
2.67,-8,-28,-11,6,0,3,2,2
2.675,7,12,-8,-1,3,-6,-3,0
2.68,-3,7,-4,7,7,3,-8,-5
2.685,11,66,-7,-14,-3,-2,5,7
2.69,-6,-24,4,9,-6,-5,0,0
2.695,11,60,-32,-16,-3,-2,-1,-5
2.7,-4,-32,22,12,-2,-4,-5,10
2.705,5,-24,-14,3,2,-2,8,0
2.71,-3,8,10,7,-3,4,-4,-3
2.715,-10,-30,-14,-7,-2,1,-2,-3
2.72,0,1,-11,-9,-1,-4,-4,-4
2.725,0,-6,-6,6,4,3,4,4
2.73,-1,-3,-11,-12,-7,-3,0,0
2.735,-3,-18,16,0,4,2,-2,-1
2.74,4,30,-9,2,5,2,3,-5
2.745,-5,-20,7,-15,0,-1,-9,16
2.75,1,4,-6,31,-3,-3,9,-2
2.755,-4,16,-5,9,-5,-6,-15,-5
2.76,-3,-38,22,-18,-6,-7,-24,-3
2.765,-22,-24,1,6,3,-3,-3,-3
2.77,22,35,15,-9,0,5,7,8
2.775,-7,-13,-13,-11,-4,-1,3,-25
2.78,2,23,-34,-5,-4,-2,1,-6
2.785,-10,-49,31,9,0,5,4,8
2.79,-1,14,-25,-11,-3,-5,-11,-18
2.795,1,-15,3,-7,2,2,3,7
2.8,3,21,17,9,1,-3,0,0
2.805,9,15,2,3,-1,0,-1,4
2.81,-15,-48,-24,-12,1,-1,-2,4
2.815,7,72,11,-1,-3,0,3,4
2.82,1,18,-4,14,0,1,5,11
2.825,2,48,-13,6,1,0,6,9
2.83,34,-14,-21,-11,-5,-6,-6,-23
2.835,-40,-43,-5,-1,-1,-1,-10,-11
2.84,10,72,-30,-19,-2,6,20,16
2.845,-28,-42,39,4,-4,-3,6,45
2.85,10,-66,7,24,3,0,4,-25
2.855,26,65,1,-15,-3,2,-3,13
2.86,-47,-17,64,20,0,-10,-30,-51
2.865,-21,-67,-36,-18,-1,2,6,-6
2.87,-19,-69,9,-28,-9,-2,-3,16
2.875,34,-43,-13,13,3,-3,10,-5
2.88,-12,-22,26,17,3,4,4,46
2.885,13,18,8,14,-6,-11,-10,0
2.89,-15,-2,-28,-27,-13,-8,-18,-13
2.895,-19,33,13,7,14,10,13,10
2.9,39,-34,-1,3,-6,-4,6,13
2.905,43,14,22,-25,6,4,2,-18
2.91,-23,33,-3,11,-1,0,3,-2
2.915,-11,-18,-5,-12,-12,-13,-11,0
2.92,-7,32,-13,26,12,13,29,0
2.925,24,57,38,18,0,6,7,2
2.93,-22,22,-9,-7,0,-8,-5,-7
2.935,-57,-84,-28,-28,-4,-7,-32,-23
2.94,-15,-33,50,27,-5,-11,-28,-46
2.945,14,-50,-76,-17,-8,1,17,16
2.95,32,34,16,-57,-1,2,2,19
2.955,-35,-33,-2,33,7,3,-1,-7
2.96,-23,7,9,25,4,-2,-15,-8
2.965,-31,-20,-79,-50,-29,-20,-36,-31
2.97,20,17,11,38,4,5,15,20
2.975,-4,-25,13,6,3,5,4,8
2.98,31,-66,-28,47,17,9,17,12
2.985,1,-65,-32,4,-1,-9,-12,-28
2.99,11,60,-40,-67,-16,-19,-26,-10
2.995,22,2,37,-12,-41,-4,11,-4
3,36,35,10,-17,12,1,-1,3
3.005,4,48,23,52,35,12,13,-2
3.01,-17,-52,-23,5,5,2,-10,3
3.015,56,33,-6,-12,9,7,36,26
3.02,-29,-6,0,-6,-32,-22,-53,-26
3.025,-22,-33,-7,6,-15,-10,-20,-15
3.03,-23,6,-3,7,25,15,14,9
3.035,-18,-14,-3,-40,-28,-7,4,-10
3.04,8,-98,-14,18,19,-1,10,10
3.045,21,68,14,4,12,-4,-2,8
3.05,-6,30,53,36,-62,-4,-4,-25
3.055,14,-15,-27,-7,8,4,-3,9
3.06,-1,42,-3,-70,2,0,8,-8
3.065,10,-7,54,12,-12,3,0,7
3.07,-10,-13,45,50,45,3,9,10
3.075,5,28,-21,-40,-2,0,6,3
3.08,1,29,-7,38,10,1,-20,5
3.085,-8,-8,-19,2,4,-7,-17,-24
3.09,-18,-13,-25,2,-17,0,10,14
3.095,4,0,-9,24,-2,3,-3,-8
3.1,13,-14,-51,-50,-19,-9,-11,-23
3.105,-1,41,45,4,-2,11,21,8
3.11,-9,-1,-15,-14,6,5,5,15
3.115,31,59,23,30,-5,-6,-11,9
3.12,-3,-14,-24,1,7,2,21,6
3.125,-23,-94,-42,-10,4,6,6,-2
3.13,8,18,31,19,8,0,-14,-3
3.135,-16,-13,-30,-25,-1,-13,-3,-7
3.14,-7,-23,81,-20,-23,-5,-4,-17
3.145,28,25,-41,-45,-1,0,1,17
3.15,-34,-19,-33,18,-4,-3,5,12
3.155,11,-26,-22,60,14,-1,-6,-26
3.16,0,7,36,-51,-10,5,11,15
3.165,4,7,56,7,12,1,2,-10
3.17,20,-27,31,27,3,-1,3,17
3.175,3,56,-4,16,7,2,-4,7
3.18,-17,18,-64,38,4,9,14,9
3.185,-17,-19,-32,16,-18,-8,-22,-43
3.19,11,-15,-114,-98,-12,-9,3,-7
3.195,-21,-24,104,-5,-17,-18,-23,-16
3.2,16,38,83,16,35,8,-3,11
3.205,9,74,103,-4,0,7,17,21
3.21,-7,13,69,32,16,1,-8,-12
3.215,14,-7,-21,6,5,4,7,9
3.22,-22,-37,-55,32,-15,1,7,-10
3.225,-27,-64,-12,-68,-28,-14,-14,-15
3.23,11,10,-20,-23,6,0,7,-13
3.235,9,7,-41,-14,-1,-7,-5,5
3.24,-4,26,-9,14,-4,4,5,2
3.245,-13,82,-25,40,9,4,6,4
3.25,0,-17,-6,-5,-7,1,12,1
3.255,-7,-18,5,16,11,3,15,7
3.26,-5,-20,-10,-13,-17,-19,-42,-13
3.265,0,-18,-13,0,0,-3,-14,-4
3.27,-8,3,10,6,3,3,25,-3
3.275,20,-22,7,0,-3,-5,-24,-6
3.28,-3,9,-19,2,-15,-2,9,5
3.285,-5,7,-11,-5,12,7,5,-10
3.29,14,-19,10,48,17,4,1,20
3.295,-31,-60,-6,-37,0,4,0,-13
3.3,14,69,-12,-24,6,-5,6,6
3.305,7,17,7,20,4,3,4,9
3.31,2,17,7,10,-7,-2,-11,-26
3.315,-1,1,0,6,-6,1,9,25
3.32,17,29,5,-15,-6,-4,-4,19
3.325,-1,-75,0,27,0,7,10,-13
3.33,-4,32,2,-23,-4,-2,-5,12
3.335,-23,-9,-4,-5,-7,-9,-13,-33
3.34,-2,-10,-4,-11,-2,1,6,-7
3.345,-3,-10,17,6,1,-8,-8,26
3.35,-9,-13,7,5,-6,-3,-10,-12
3.355,8,3,5,4,8,8,5,8
3.36,7,-41,-8,17,3,2,9,-12
3.365,-1,6,-17,28,-8,0,3,27
3.37,-37,-20,-8,-31,1,-9,-25,-93
3.375,18,14,2,-19,-5,-1,12,52
3.38,17,7,-28,4,9,11,20,6
3.385,1,-1,-4,-14,-8,-5,6,55
3.39,29,23,-2,37,4,12,10,-9
3.395,-10,-51,-2,-45,2,-17,-43,-3
3.4,14,4,3,-43,0,-1,8,-16
3.405,-6,10,-5,-3,8,6,13,12
3.41,-1,-45,2,-74,-12,-2,-8,-17
3.415,-59,-27,4,31,-9,-18,-27,-2
3.42,23,5,17,61,4,1,12,25
3.425,19,-3,-9,-42,-6,-2,9,3
3.43,25,16,13,32,13,10,20,77
3.435,-39,-33,31,-18,-28,-18,-17,-101
3.44,-31,-24,-9,9,-6,2,-7,-12
3.445,-32,1,20,14,17,1,-4,-52
3.45,28,4,39,36,-10,-10,0,35
3.455,37,52,19,8,-15,11,36,58
3.46,-30,-21,5,-32,-14,-10,-17,-23
3.465,-5,-13,-30,4,-3,-1,-11,-30
3.47,-18,-5,-75,-35,8,3,5,3
3.475,20,7,-2,59,28,10,17,12
3.48,-3,-8,-32,-30,-8,-11,-24,-7
3.485,5,1,-46,-26,-2,-3,-4,-10
3.49,-14,30,43,22,-3,-11,-17,-7
3.495,-3,-4,-32,15,10,19,27,-7
3.5,-15,-14,-8,-23,-8,-12,-22,16
3.505,12,-17,-6,2,-3,-7,-43,-38
3.51,8,37,-52,15,-2,12,18,2
3.515,-13,9,6,-11,-4,-5,24,23
3.52,-11,-20,14,-2,4,-4,-28,-77
3.525,6,7,-17,0,1,3,6,29
3.53,-1,-22,31,12,-21,-18,-20,-12
3.535,8,7,12,-8,5,5,10,-1
3.54,12,55,-1,28,11,4,5,6
3.545,-7,-2,13,-18,-18,-6,5,-11
3.55,6,-21,3,-3,2,8,50,22
3.555,2,20,-10,1,6,-6,-45,-43
3.56,-6,-22,-21,-4,2,4,14,18
3.565,7,-45,-11,1,-3,-5,-2,32
3.57,-6,1,-3,-5,-3,-5,-17,-90
3.575,-7,-32,-6,-8,1,-8,-10,15
3.58,-2,-21,-17,0,-5,1,46,37
3.585,-10,4,10,13,2,1,-61,-27
3.59,-2,-3,-3,-7,-2,0,9,69
3.595,12,20,-17,1,0,-8,-3,-3
3.6,-4,-61,21,-9,-9,-2,-29,-91
3.605,-15,31,-5,5,5,5,79,46
3.61,-11,-15,-1,1,-4,-14,-81,-57
3.615,1,9,-18,-16,4,7,5,-11
3.62,4,7,17,-7,-3,7,36,69
3.625,11,19,-6,-5,-3,-4,41,3
3.63,-10,-20,-24,2,-3,-4,-30,31
3.635,17,34,-13,8,4,6,-24,14
3.64,-18,1,0,-9,1,-8,-31,-29
3.645,-18,1,18,-2,-6,0,42,52
3.65,-10,-4,19,-1,1,5,18,-15
3.655,-1,1,2,18,-2,-12,-82,-4
3.66,9,19,3,20,6,-1,15,73
3.665,12,-42,-2,-27,-1,6,72,24
3.67,-9,3,-5,-5,-5,-6,-4,-18
3.675,-10,-12,-27,-14,-3,6,45,28
3.68,2,17,12,-10,-6,-6,-17,-79
3.685,19,11,10,31,7,0,-4,32
3.69,11,-7,20,7,2,8,15,6
3.695,2,26,27,3,-4,-1,-16,-59
3.7,8,11,-11,-9,5,7,14,43
3.705,-16,-20,-3,1,-8,-11,-39,-31
3.71,-3,-41,-24,-14,0,0,26,-29
3.715,-7,-12,-2,25,-6,-13,-58,91
3.72,2,6,-17,-36,-14,1,25,80
3.725,-3,18,25,10,6,-3,-46,-11
3.73,26,22,-1,-3,13,5,60,127
3.735,-8,-19,-4,-1,-19,0,48,39
3.74,-15,-11,-4,-2,8,1,-5,35
3.745,-17,-16,-16,-8,0,2,-33,-18
3.75,5,-1,8,9,-7,-2,26,48
3.755,7,41,15,1,9,4,20,-30
3.76,4,31,-16,9,-8,-7,-54,-65
3.765,0,-13,-2,-20,-10,-9,-19,-23
3.77,0,25,-15,11,6,3,2,1
3.775,-2,-19,18,-11,-6,-6,-29,-18
3.78,-5,-15,-2,-5,-5,0,10,7
3.785,10,18,-1,3,11,-3,-11,-6
3.79,-8,-8,4,-19,-6,-2,-9,8
3.795,13,-13,13,-11,14,5,37,15
3.8,-1,-5,9,35,3,-2,11,3
3.805,4,15,2,-7,0,-2,10,4
3.81,-9,-7,-4,-50,-20,-6,-34,-29
3.815,-7,4,-13,6,-2,4,25,-13
3.82,0,-15,-6,8,0,-5,-14,-5
3.825,6,19,11,18,9,3,-14,-8
3.83,-10,-16,-19,-4,-2,-7,-15,-16
3.835,-6,-22,2,-5,-2,4,8,-4
3.84,5,0,-1,0,-10,-4,4,11
3.845,-1,10,-13,16,9,2,1,0
3.85,-5,-12,12,4,-25,-1,-8,-3
3.855,0,9,-8,-8,35,2,12,7
3.86,-8,-13,9,15,6,-1,-3,-4
3.865,-2,9,8,-19,-3,0,3,-7
3.87,-1,0,8,22,0,3,-1,1
3.875,-2,-17,-5,-6,-15,-4,-3,-5
3.88,1,6,3,1,4,-2,3,-3
3.885,-4,-6,9,0,-1,3,1,-5
3.89,2,2,3,5,3,-4,-4,4
3.895,0,0,-3,-3,-16,-8,-12,-9
3.9,3,3,14,-4,11,2,5,4
3.905,1,0,9,-9,-10,6,6,3
3.91,0,4,8,-2,4,-10,-21,-9
3.915,-5,-8,-4,3,5,4,11,-1
3.92,-3,-3,-4,-8,-13,-5,-4,0
3.925,2,-4,-13,-5,-3,-1,-6,4
3.93,5,15,1,5,-4,8,10,6
3.935,-8,-13,-5,-2,8,-9,-13,-14
3.94,1,-5,-9,-22,-10,-4,-3,1
3.945,-6,-5,-17,-4,-8,-7,-13,-14
3.95,1,3,-31,-14,11,6,1,2
3.955,0,0,21,4,-10,1,2,5
3.96,-2,-3,32,20,-14,8,16,5
3.965,-2,-9,-20,1,25,1,12,-1
3.97,-2,7,-13,4,7,-11,-24,-9
3.975,0,-3,-11,-4,-1,4,-3,0
3.98,0,-4,-23,-13,0,-6,-1,1
3.985,-5,-14,7,9,-16,-1,-16,-12
3.99,1,8,-2,-10,-1,0,17,9
3.995,1,-1,21,34,-3,0,6,-1
4,-1,-6,-21,-4,2,1,-8,-4
4.005,7,32,-8,2,-11,-4,7,4
4.01,-7,-15,4,1,3,-1,-5,-6
4.015,2,7,-19,-15,-1,0,1,1
4.02,0,10,6,-6,-2,-5,-4,-1
4.025,-8,-6,8,-7,-3,0,-5,-7
4.03,2,17,4,11,2,-2,-2,-6
4.035,0,-8,6,-2,-3,3,5,8
4.04,-6,-7,12,13,3,-2,10,-1
4.045,2,-15,-2,-3,-3,-6,-14,-5
4.05,0,0,40,3,-3,2,1,2
4.055,-7,-42,-46,-20,-6,0,4,4
4.06,2,29,-28,-19,2,1,3,2
4.065,2,26,30,9,-1,1,5,4
4.07,7,37,-30,-15,-4,-4,-1,-1
4.075,-14,-70,-14,22,2,2,-2,-8
4.08,-8,-29,-27,-19,-3,-3,-4,-6
4.085,-12,-29,-28,2,2,-4,-5,-8
4.09,-5,-38,-26,7,-1,2,1,6
4.095,7,-29,-1,-22,-4,-4,-4,-22
4.1,-5,68,25,18,2,0,-5,0
4.105,-28,-106,24,-1,-5,-4,-5,0
4.11,-38,-69,35,-2,-2,-9,0,-26
4.115,4,-44,38,16,1,8,12,24
4.12,-15,-11,-6,-19,3,-2,-9,-31
4.125,-3,-14,8,30,-1,-7,-12,-12
4.13,82,100,72,-19,-11,2,8,27
4.135,0,-37,-5,-19,2,15,33,49
4.14,-25,-95,-41,-8,-3,-18,-31,-38
4.145,-29,-96,80,1,0,2,-9,-17
4.15,-3,3,-19,30,3,-2,-4,0
4.155,-7,75,-20,-10,1,0,12,-4
4.16,-22,-56,-45,-14,-2,4,14,39
4.165,37,-83,6,-21,-9,-3,-1,-25
4.17,-32,-49,-43,-30,0,-4,-16,-5
4.175,39,12,-7,-5,-2,-2,-7,8
4.18,-24,1,33,30,4,4,8,-1
4.185,16,77,-49,-36,-5,-13,0,-4
4.19,2,-51,12,3,1,5,3,10
4.195,-12,-17,1,-6,0,-5,-5,-29
4.2,-34,-65,15,-4,-3,-1,-12,-26
4.205,10,62,21,15,-2,5,13,13
4.21,39,-26,-30,5,-2,3,5,19
4.215,-67,-35,4,-21,-5,-7,-4,-8
4.22,13,4,21,12,-1,-2,-10,1
4.225,6,8,-20,-12,7,12,13,14
4.23,-62,-20,6,3,1,-7,-4,-25
4.235,0,-77,-36,-8,-9,-12,-34,-18
4.24,107,90,38,7,3,14,36,27
4.245,-59,-23,-5,-48,-5,-20,-40,-17
4.25,78,82,-25,-12,2,13,32,27
4.255,-33,9,-37,-23,-1,-9,-32,-23
4.26,13,-31,-29,17,2,6,4,2
4.265,61,56,-11,-37,-7,3,16,24
4.27,30,8,24,15,4,2,4,-1
4.275,3,28,0,7,2,6,11,10
4.28,-30,1,-3,-18,-3,-3,1,-5
4.285,-96,-58,-36,-36,-6,-6,-12,-22
4.29,-35,-37,61,29,-1,-7,-16,-20
4.295,43,54,19,35,2,0,6,8
4.3,49,27,-14,-65,-1,3,0,22
4.305,29,19,-41,45,-3,5,14,10
4.31,-15,64,-24,-13,4,5,-3,1
4.315,35,-4,57,-26,2,-6,-11,-10
4.32,-38,-28,-32,18,6,2,4,-6
4.325,-6,28,11,-29,-6,-9,-12,-3
4.33,-3,-21,2,26,-1,0,1,-2
4.335,19,20,-28,-13,-8,-1,5,7
4.34,-17,14,9,-16,-2,-2,-4,-4
4.345,31,45,40,67,4,2,9,14
4.35,-20,-105,14,-4,-7,-7,-20,-11
4.355,-26,13,10,32,9,2,6,-7
4.36,22,82,-12,1,-1,6,3,14
4.365,12,-8,-15,13,0,-6,-6,-2
4.37,18,3,-13,-5,-23,-14,-4,-2
4.375,9,30,-27,6,-27,-2,1,3
4.38,-44,-56,-24,11,56,-4,-14,-22
4.385,-33,-30,-5,-4,9,5,3,-2
4.39,-20,-7,-15,-12,6,-1,-5,-4
4.395,44,6,-16,1,-6,12,19,16
4.4,58,-53,0,23,-27,-9,-2,2
4.405,-40,-6,31,47,0,5,7,5
4.41,-5,-51,-21,8,-5,-15,3,-11
4.415,-25,45,13,-59,3,-13,-31,-21
4.42,-16,-40,43,12,-13,3,12,0
4.425,45,23,-72,14,17,1,19,13
4.43,-35,47,37,9,11,21,7,11
4.435,21,-26,29,5,2,-8,-15,-6
4.44,-42,-68,25,-19,-11,-11,-19,-20
4.445,-25,17,91,-98,-36,-13,-4,-6
4.45,11,14,-120,-41,17,12,13,6
4.455,-31,7,66,60,-10,-3,2,-4
4.46,22,7,-7,13,3,2,7,20
4.465,18,10,-50,37,0,4,1,5
4.47,14,-3,11,-6,1,-3,-6,-1
4.475,-17,-2,37,-7,14,3,-1,-10
4.48,4,0,6,5,-17,-3,-2,-1
4.485,9,-75,51,10,2,1,1,0
4.49,36,53,23,-2,1,7,11,28
4.495,-64,-90,24,-7,-3,-12,-42,-44
4.5,18,2,42,8,-7,-14,-30,-38
4.505,-3,-6,-8,-1,7,4,-6,-3
4.51,-8,-8,48,-4,-7,-7,-11,-21
4.515,3,-34,-30,-7,-4,5,24,22
4.52,13,36,-6,-8,1,4,8,18
4.525,21,33,18,11,6,-2,-8,-2
4.53,-40,-75,-31,-17,-14,-12,-35,-36
4.535,9,-1,-6,-2,1,3,21,20
4.54,13,64,-45,20,6,4,2,8
4.545,2,-27,-82,-23,0,3,12,3
4.55,-14,-11,-17,16,-7,-8,-5,-1
4.555,7,3,66,4,2,-2,5,0
4.56,-7,32,-5,23,-2,3,2,-1
4.565,-1,28,63,-14,-5,-6,-7,0
4.57,-5,-10,-57,-9,-2,-4,-24,-26
4.575,8,-15,-128,-3,1,3,3,-15
4.58,6,48,-8,6,-1,-4,1,21
4.585,8,-32,-63,60,9,17,20,7
4.59,11,54,58,-20,-1,-6,4,15
4.595,-10,-45,-72,-20,-7,-12,-13,5
4.6,-2,65,35,27,13,2,-3,-5
4.605,11,111,-38,-103,-16,-5,-5,-24
4.61,4,-43,15,41,0,7,13,12
4.615,16,18,-3,41,5,1,14,-12
4.62,-15,-50,13,-35,-34,-11,-6,6
4.625,12,-24,31,-30,13,2,-12,46
4.63,-1,30,8,8,2,-4,-2,-42
4.635,-10,34,24,8,4,3,9,4
4.64,-74,-100,-67,-5,7,-6,-12,4
4.645,-27,-18,-15,-12,1,0,3,-15
4.65,5,-1,14,8,0,-1,-1,-13
4.655,34,36,18,7,3,5,6,1
4.66,22,28,23,-4,-2,1,11,2
4.665,-1,9,3,29,-1,-1,-2,2
4.67,-26,-99,22,6,3,-1,-2,5
4.675,-33,-72,-12,-34,-11,-7,-5,-6
4.68,9,-61,-7,-20,-6,-2,2,5
4.685,3,-18,50,36,-5,-4,-9,-7
4.69,-12,-49,-39,-3,0,-5,-6,-7
4.695,32,9,12,22,4,7,12,19
4.7,-39,-59,-80,-44,-10,-6,-10,-15
4.705,-22,-21,-2,12,-4,-5,-6,-22
4.71,-5,39,78,11,-4,-4,4,14
4.715,3,25,-33,-5,5,2,-5,14
4.72,37,41,-14,8,14,3,2,-1
4.725,15,-6,3,9,-17,-2,6,-2
4.73,11,3,-39,-27,0,2,9,14
4.735,13,20,61,5,3,-1,-4,8
4.74,-4,13,-51,1,-9,1,4,-2
4.745,-30,-10,7,-4,5,-6,-17,-24
4.75,-8,6,14,7,-10,-5,-2,9
4.755,1,14,22,-5,-17,-6,-5,-6
4.76,11,0,63,16,2,1,2,-6
4.765,28,-14,-25,13,8,5,6,15
4.77,2,19,14,3,8,3,4,2
4.775,-6,-2,-52,-15,12,1,-3,-8
4.78,-3,-53,42,16,6,8,11,11
4.785,-9,63,-5,-47,-8,-6,-3,-3
4.79,-7,-20,-63,-17,0,-3,-4,-11
4.795,-4,12,108,63,-5,-6,-7,-1
4.8,-11,-94,-23,-1,-6,4,-2,-5
4.805,1,0,-16,2,-2,-1,2,-6
4.81,0,-32,-86,0,1,-1,0,5
4.815,30,103,66,25,8,4,6,16
4.82,-12,-29,-58,-91,5,-4,-6,-14
4.825,5,-29,3,48,-28,-10,-5,-4
4.83,12,18,10,-45,-5,2,4,10
4.835,-11,-41,-26,9,-8,-1,-4,-11
4.84,-21,0,72,6,7,-2,15,-7
4.845,0,-16,42,25,18,8,-3,2
4.85,9,38,46,29,8,1,-1,5
4.855,-2,-40,-17,-25,-11,-10,-7,0
4.86,50,113,47,50,7,14,23,21
4.865,-16,-79,-96,-68,-13,-10,-6,-4
4.87,-4,-40,67,33,0,1,-2,-10
4.875,-14,-13,40,-29,-2,-1,-6,-14
4.88,-10,-18,-93,-17,-9,-5,-11,-13
4.885,5,51,96,8,13,11,25,15
4.89,-8,9,40,30,5,2,-1,-4
4.895,0,40,-53,-107,-13,-10,-2,5
4.9,-14,-15,58,32,-2,-8,-10,-2
4.905,3,-66,-40,9,7,1,-2,-13
4.91,-4,-1,-33,-21,-12,-4,3,8
4.915,-17,-14,0,36,3,3,7,-2
4.92,0,2,7,3,-5,-3,-21,-12
4.925,3,8,-6,-48,-8,-3,-4,9
4.93,18,48,-39,-9,-3,2,29,4
4.935,-9,-26,-1,54,6,-6,-11,-6
4.94,12,23,58,100,14,10,1,0
4.945,-12,-10,-31,-38,-10,-9,-15,-8
4.95,-7,-12,-10,-36,-18,-9,-18,-10
4.955,-3,-17,-30,-40,-4,2,0,7
4.96,-1,1,30,82,3,1,20,5
4.965,10,31,32,34,6,8,26,14
4.97,8,2,26,108,9,9,25,104
4.975,-5,-20,-9,-62,-15,-11,-2,44
4.98,-1,0,26,-21,-15,-7,5,86
4.985,8,2,-69,-70,-66,-20,30,84
4.99,0,10,59,86,90,49,25,8
4.995,-50,-56,-75,-76,-38,-84,-6,5
5,25,18,18,81,7,9,-16,30
5.005,2,-3,-35,-40,0,-5,1,-36
5.01,-2,-5,28,-18,-9,18,18,16
5.015,-6,-13,-60,-51,-7,18,2,-6
5.02,-11,2,-8,-67,5,5,76,-21
5.025,10,16,22,94,35,1,-62,-42
5.03,7,-3,-7,15,1,-12,-22,-19
5.035,5,-3,-19,-5,-4,14,-75,-53
5.04,-8,-13,-18,-91,-46,-27,-18,-6
5.045,-3,-7,70,90,29,26,28,-12
5.05,-8,-3,5,-26,-24,-30,-38,-39
5.055,15,37,33,57,21,16,26,19
5.06,-13,-41,-21,-32,4,5,-3,-2
5.065,2,47,39,11,6,-8,15,13
5.07,-32,-108,-49,-47,-10,-5,-1,-27
5.075,24,-10,14,21,-1,10,15,2
5.08,-10,-68,-10,-15,6,-1,-6,-22
5.085,0,11,-7,18,3,-4,-18,-15
5.09,-5,-17,-27,-9,-12,-12,-11,-15
5.095,31,0,38,23,8,11,10,-1
5.1,-43,9,3,-16,-1,1,-19,-23
5.105,7,-30,26,30,-3,-3,-4,15
5.11,-36,-32,-100,-78,-22,-7,-4,-7
5.115,-65,-110,48,19,5,0,15,-2
5.12,-61,-34,24,-8,2,-8,-20,-21
5.125,-76,-6,-21,-10,-1,-2,-7,-3
5.13,-79,67,-6,22,6,3,2,-8
5.135,-55,14,34,72,3,2,0,-4
5.14,-32,64,-4,5,5,3,2,2
5.145,-59,-3,-11,-5,-1,0,-4,-4
5.15,0,-72,-20,-36,-7,-8,-12,-7
5.155,44,32,-57,8,-3,4,8,5
5.16,67,-25,60,-21,-12,-6,-5,-5
5.165,86,-7,-8,-5,2,-5,2,0
5.17,87,71,43,12,-3,-9,-24,-8
5.175,62,22,3,8,21,13,10,0
5.18,67,20,-31,35,0,-6,-2,-7
5.185,47,3,-9,59,-9,1,-5,-6
5.19,33,-4,4,-46,-19,-9,4,-1
5.195,26,9,1,19,0,1,-4,3
5.2,23,20,-20,-41,1,-4,-11,-6
5.205,9,-13,29,21,6,8,12,6
5.21,15,10,2,2,-8,3,1,3
5.215,-1,-3,40,88,13,3,5,-2
5.22,0,-15,-87,-85,18,6,2,-1
5.225,-7,5,27,3,6,2,0,9
5.23,1,9,51,60,-4,1,1,-2
5.235,-7,12,-1,-28,-15,-5,-13,-6
5.24,-8,7,16,45,-11,-5,-1,-2
5.245,-1,9,35,55,0,-2,31,19
5.25,-7,4,2,-30,3,-5,-36,-9
5.255,-19,-23,-41,-38,-13,-15,-3,3
5.26,-7,2,4,-24,1,4,0,9
5.265,2,-12,-36,-28,1,3,8,4
5.27,-6,5,51,41,11,7,18,10
5.275,-1,7,-38,-41,1,4,-2,15
5.28,-3,6,41,95,6,3,10,-8
5.285,-12,-10,-64,-96,-19,-8,-14,-6
5.29,-11,-15,-5,-27,-10,-10,2,-11
5.295,1,12,-18,-13,5,9,8,9
5.3,-4,8,15,23,2,2,-3,3
5.305,-3,-9,7,3,6,-1,-13,-14
5.31,-1,-22,-43,-18,-13,-2,-3,-1
5.315,-6,37,24,-3,2,4,7,-3
5.32,6,1,37,58,4,-4,-8,-5
5.325,-9,-10,-49,-20,-2,-7,-16,-13
5.33,10,-3,-20,-3,1,-1,12,5
5.335,-4,-9,23,-6,1,0,0,-9
5.34,0,3,9,17,1,-4,-4,1
5.345,-7,-3,-9,1,-7,-2,-8,-5
5.35,-2,9,-6,-15,0,1,13,0
5.355,-6,-16,-37,-30,-8,-4,-5,-9
5.36,-2,9,-11,-39,-8,-4,-9,-1
5.365,-7,-13,-2,0,11,7,1,-3
5.37,5,-2,1,14,3,-4,-1,2
5.375,-1,4,28,25,23,7,1,-3
5.38,0,-7,-19,-1,-16,-6,3,0
5.385,-6,-10,-7,-60,-27,-8,-8,-5
5.39,-5,0,-7,20,-14,-1,15,0
5.395,-4,-6,5,0,-1,0,-21,-1
5.4,1,12,-4,-7,13,0,-3,0
5.405,-2,1,30,33,11,1,0,-1
5.41,-5,0,-1,-4,1,1,0,0
5.415,3,-5,-19,15,5,-2,4,0
5.42,2,1,-25,-8,-15,-2,-2,-2
5.425,-10,-9,41,-9,-3,3,-4,-10
5.43,-9,-14,-43,-13,1,-5,-3,-4
5.435,-1,-1,9,12,-2,-3,3,2
5.44,-3,-1,0,-1,4,0,-3,-3
5.445,0,3,19,2,-1,-6,-2,3
5.45,2,15,-15,12,6,2,-6,-8
5.455,2,2,29,15,5,-1,3,0
5.46,-15,-31,-72,-48,-24,-9,-6,-5
5.465,4,8,3,13,4,1,8,1
5.47,-2,-3,14,0,3,-2,-8,-5
5.475,-2,1,-13,-2,-6,0,2,-10
5.48,2,8,1,-19,7,6,6,3
5.485,-3,-8,13,48,-2,-6,-5,-1
5.49,0,7,33,2,0,-2,-3,2
5.495,-10,-11,-5,-12,-9,-7,-3,-6
5.5,3,9,5,-6,1,2,-1,1
5.505,-2,3,-10,-5,2,1,-2,-4
5.51,1,3,13,9,0,-1,0,1
5.515,-1,-3,4,-13,-7,-1,-2,0
5.52,-5,-4,0,-4,1,0,-1,-6
5.525,-4,-4,7,0,-14,-5,-4,-1
5.53,0,1,-5,-5,0,-1,1,1
5.535,1,0,-1,2,-2,0,0,1
5.54,-5,-5,2,-1,-2,-4,-5,-7
5.545,2,3,-2,-5,3,-5,-3,0
5.55,3,6,7,3,4,5,6,5
5.555,-1,2,-6,6,2,4,3,1
5.56,-3,-14,-5,12,7,-1,0,-2
5.565,-3,-2,3,-13,-12,0,17,1
5.57,-9,-11,-28,-20,-6,-6,-56,-13
5.575,-4,-5,7,6,-8,-1,1,-1
5.58,5,12,32,7,6,4,3,4
5.585,4,2,-8,-1,8,0,-4,2
5.59,2,-2,-22,10,-3,-3,5,6
5.595,-2,3,19,-5,0,0,-2,-4
5.6,-1,-6,-2,-1,-7,-7,-8,3
5.605,-3,-2,-5,10,-6,-5,-13,-2
5.61,-1,2,23,21,1,6,4,-1
5.615,-3,-7,-39,-43,-1,-4,-3,-2
5.62,-2,-5,-13,-36,-4,-1,6,-3
5.625,0,3,-21,-9,4,3,-1,-1
5.63,-2,-1,17,9,-1,-3,4,0
5.635,-1,-2,-1,19,-3,-3,-1,1
5.64,0,0,4,4,-1,0,-4,-2
5.645,1,1,-2,-9,3,2,2,14
5.65,-1,-1,-6,-3,-1,-4,5,-1
5.655,-5,-2,7,8,-2,3,15,-4
5.66,0,2,3,2,-2,-3,-18,-2
5.665,-4,-3,-1,5,1,-3,1,-4
5.67,-3,-1,4,-5,0,2,9,2
5.675,0,-3,5,5,-6,-4,6,7
5.68,-1,1,3,5,-1,1,9,-5
5.685,-2,1,-1,-12,3,0,-28,-9
5.69,0,-2,-6,-10,3,-1,1,1
5.695,-2,-2,5,-7,-9,-3,-5,-3
5.7,0,1,5,8,2,-1,2,1
5.705,0,0,17,17,-2,-1,0,-2
5.71,2,0,-26,-26,-2,-2,12,1
5.715,-5,-9,-11,-1,0,2,-27,-8
5.72,-9,3,-9,3,-2,0,1,3
5.725,0,43,33,8,4,4,12,-3
5.73,-15,-3,-20,2,-7,-7,-5,-10
5.735,8,16,6,-2,0,-3,3,2
5.74,-7,31,-20,-7,-3,2,-1,0
5.745,-11,15,29,5,2,2,-6,0
5.75,7,25,9,4,-1,-6,5,-3
5.755,5,2,-8,1,-1,-2,26,-16
5.76,11,-14,0,-4,-2,0,-2,-1
5.765,2,-20,-23,-11,0,-1,0,0
5.77,1,13,31,30,-2,1,-2,-1
5.775,-2,-10,11,0,1,-5,3,5
5.78,8,3,-11,-7,2,5,7,4
5.785,16,-55,57,37,0,1,3,-2
5.79,-9,-29,-26,-111,-18,-8,-11,-7
5.795,-9,0,3,18,0,5,-5,5
5.8,-20,-6,62,19,-5,-27,-40,-17
5.805,2,19,-3,2,2,2,-9,-3
5.81,15,-7,-6,7,5,0,-2,8
5.815,-2,-3,-2,13,10,11,-7,4
5.82,-7,10,-28,-17,1,6,12,5
5.825,-10,-20,0,8,-7,-10,5,-5
5.83,8,-5,-28,-10,-3,0,14,0
5.835,-2,-10,-15,-19,-5,-2,1,5
5.84,-1,-16,2,20,0,2,9,-3
5.845,-1,6,33,-1,-2,-8,-10,-5
5.85,-1,3,3,25,6,8,5,0
5.855,-8,-4,70,80,-6,-4,-17,-6
5.86,0,-12,-49,-45,-10,-17,17,-11
5.865,3,0,-31,-36,-2,7,-10,1
5.87,-5,-12,0,8,3,-2,-13,1
5.875,-5,3,5,-11,0,-5,-2,-9
5.88,12,-2,35,43,3,4,-18,3
5.885,-16,-12,-32,-6,-7,-5,11,-3
5.89,-3,-4,8,24,-1,3,1,4
5.895,5,15,-14,-14,1,-4,-15,4
5.9,14,-43,5,44,2,6,10,11
5.905,16,-20,-82,-90,-3,2,13,5
5.91,-19,5,7,6,0,2,-29,-10
5.915,2,0,29,26,-6,-7,1,-5
5.92,8,20,-2,-18,2,6,3,6
5.925,2,10,25,120,13,8,3,1
5.93,-1,-50,-69,-104,-29,-18,-5,-9
5.935,-6,-20,-73,-74,-19,-5,-11,-6
5.94,-2,13,24,40,0,-9,-6,-9
5.945,0,12,18,-1,18,12,16,7
5.95,-2,18,12,48,28,15,13,9
5.955,-7,0,22,53,22,-4,-38,-5
5.96,-11,-13,-23,-43,-18,-2,-15,-10
5.965,-15,10,-89,-51,-27,-21,-3,-8
5.97,4,-4,22,8,-5,-1,7,2
5.975,6,7,-8,-2,-4,5,19,9
5.98,-4,-6,17,31,4,-1,-13,-12
5.985,-12,-6,36,10,0,-2,-15,-6
5.99,1,-10,-11,-7,-6,-6,-2,-4
5.995,3,-31,-36,-10,-1,-2,6,-6
6,-19,-23,43,30,3,2,3,-2
6.005,2,52,-9,-50,-5,-4,1,2
6.01,-29,5,17,12,1,-3,-6,-13
6.015,-12,-11,19,-13,-1,0,4,-6
6.02,0,-4,-28,-10,3,1,1,3
6.025,7,-14,3,25,0,3,0,-1
6.03,3,-40,-4,6,-4,-2,3,2
6.035,12,107,28,19,1,2,5,5
6.04,3,0,28,-10,1,2,3,1
6.045,4,5,28,2,1,0,-4,4
6.05,8,4,8,12,1,2,2,1
6.055,16,-18,-23,-47,-11,-7,0,-2
6.06,-4,24,-28,-27,0,4,27,1
6.065,4,-13,9,51,-8,-4,-13,-1
6.07,4,52,-15,-41,0,5,4,7
6.075,-1,3,-2,0,1,-8,10,0
6.08,9,-41,-5,7,6,4,4,8
6.085,-8,-27,1,-16,-5,-5,-7,-5
6.09,7,-8,14,28,-2,-3,-4,-1
6.095,0,4,-9,-16,1,9,5,7
6.1,-2,10,-3,-9,-1,-1,2,-2
6.105,-9,-20,-13,3,3,-1,0,-8
6.11,0,7,18,16,0,0,-10,0
6.115,-6,-14,-12,-9,3,1,-7,-7
6.12,-2,4,19,20,4,-1,0,-1
6.125,-4,-3,-37,-27,-9,-2,8,-7
6.13,-5,6,2,-63,-10,-6,3,0
6.135,-2,-43,-7,10,0,4,-5,1
6.14,4,1,-11,-9,-5,-3,-4,4
6.145,-2,86,47,26,10,11,15,7
6.15,-9,-31,23,27,5,-11,0,-9
6.155,-4,35,-11,11,-3,-4,-21,-8
6.16,7,10,48,13,7,7,-7,5
6.165,8,-21,-10,20,-2,-8,-27,-6
6.17,-44,-38,-55,-74,-25,-11,-12,-27
6.175,-12,-8,13,-43,-6,-6,22,-2
6.18,2,7,-52,-63,-14,-10,-23,-8
6.185,9,20,72,65,5,1,6,12
6.19,14,10,14,52,11,5,4,5
6.195,3,-10,9,11,13,12,7,6
6.2,-7,-2,-30,42,-9,-8,3,-2
6.205,5,-33,-52,-78,-6,-5,4,-1
6.21,12,11,10,23,-13,-2,-2,7
6.215,-6,-12,-10,-38,2,2,2,5
6.22,1,10,28,1,10,3,8,1
6.225,-8,-15,-17,-13,1,-11,-29,-13
6.23,8,11,3,21,7,16,-5,-3
6.235,-14,3,21,14,-6,-11,29,6
6.24,32,28,-6,-16,-2,0,-17,-1
6.245,-22,-37,10,-1,-5,-5,10,12
6.25,-16,50,-5,5,3,-8,-10,-46
6.255,3,-30,-13,20,0,4,-4,2
6.26,9,-1,-13,-16,-6,0,-10,3
6.265,-1,4,4,-6,-3,1,6,19
6.27,10,-9,7,13,12,15,1,13
6.275,-3,-3,-4,0,-6,-17,-8,-15
6.28,-10,-2,-14,0,-4,-10,-1,-7
6.285,-6,-7,19,-9,-7,1,-6,-6
6.29,1,-9,5,21,5,2,-19,11
6.295,5,6,-18,-16,0,8,13,0
6.3,-8,-13,4,-5,1,18,-19,-3
6.305,5,3,-7,2,4,-6,30,-3
6.31,0,-2,-15,-21,-2,-19,-13,-4
6.315,0,2,11,8,-8,-4,-34,-6
6.32,-4,-7,-11,-10,-12,-13,9,2
6.325,-1,-1,-10,14,9,-9,-1,-5
6.33,8,9,15,-4,10,32,50,16
6.335,5,-7,-13,3,14,14,-15,-1
6.34,-14,-7,3,13,-3,-5,4,-4
6.345,-4,-8,-7,-5,-8,-9,-15,-7
6.35,-3,-5,35,16,-9,-21,1,6
6.355,6,-6,-22,-11,-15,1,-26,-3
6.36,-7,4,15,2,-1,-5,5,-7
6.365,5,5,0,7,26,14,7,1
6.37,6,0,15,42,-8,4,15,10
6.375,-7,-10,-47,-57,4,6,7,-1
6.38,-18,7,16,16,-4,-10,-1,-5
6.385,7,-11,-44,-44,3,6,-9,-4
6.39,10,-18,25,5,3,-7,-9,-1
6.395,7,31,-14,39,2,-2,6,10
6.4,1,2,41,-26,23,10,3,-2
6.405,5,0,-1,58,-43,-18,-2,-15
6.41,-51,-20,12,14,-3,-4,-12,-13
6.415,22,-24,-3,-40,-9,-5,7,5
6.42,-27,96,-2,-29,0,-1,7,2
6.425,53,-22,-1,-7,16,13,-2,9
6.43,-50,48,98,17,0,-4,-5,-15
6.435,-19,-24,-43,23,-1,-9,-5,-7
6.44,21,-48,13,-16,0,2,-6,4
6.445,14,10,31,-3,-2,10,23,14
6.45,23,66,-12,-8,-5,-11,-6,-1
6.455,-23,-13,32,11,0,-4,0,-17
6.46,-32,-47,-32,-3,-13,-9,-12,-13
6.465,2,-2,-13,0,-6,-3,-8,-6
6.47,32,-73,-41,-13,2,6,12,18
6.475,22,86,40,6,0,-4,9,12
6.48,17,-20,-16,8,-3,0,5,-1
6.485,-20,-6,9,-8,0,2,-6,-3
6.49,10,-2,-32,-24,4,0,1,-1
6.495,-1,-19,11,12,-3,-1,-4,1
6.5,1,-3,-11,8,-2,0,5,7
6.505,-9,24,7,-8,2,2,0,-2
6.51,-5,-28,-23,-15,-4,-3,-10,-8
6.515,-5,-13,13,9,-6,-5,-3,-5
6.52,5,7,3,-10,9,6,8,1
6.525,-8,1,4,7,7,7,-8,4
6.53,12,0,-42,22,-50,-11,2,7
6.535,-16,-25,34,12,10,-10,-5,-23
6.54,-30,-2,-5,-17,-6,-10,-6,-12
6.545,15,19,85,-47,28,9,0,5
6.55,29,-6,-89,48,-33,-5,2,11
6.555,-30,-17,26,28,-21,-7,-1,-6
6.56,-20,-40,-91,-27,-15,-9,-15,-14
6.565,-18,-9,52,20,-3,-7,-1,-3
6.57,16,27,75,-22,35,13,9,9
6.575,25,9,-11,-15,3,2,-5,9
6.58,0,-2,29,25,2,5,5,-6
6.585,-9,1,-26,-7,-8,-7,-12,-13
6.59,2,-1,-19,-21,11,1,1,1
6.595,-11,-8,11,-2,1,3,3,-1
6.6,33,33,14,7,3,5,8,24
6.605,-28,-17,-47,-11,-11,-3,-3,-16
6.61,-5,-5,19,-13,7,-4,-6,-5
6.615,-3,-4,-16,4,0,2,0,6
6.62,12,-5,2,3,2,5,7,11
6.625,-7,-2,19,5,-8,-5,-4,-4
6.63,-19,-12,-15,-8,3,-4,-6,-11
6.635,10,3,1,-6,3,3,3,9
6.64,3,3,14,3,-1,-1,-4,-1
6.645,-6,-1,35,0,-7,-4,-4,0
6.65,-6,23,-7,0,7,1,-2,-2
6.655,8,-18,1,-14,-1,5,8,7
6.66,-1,-3,16,5,-2,-3,-3,-4
6.665,-7,-3,-28,1,-5,-1,0,-1
6.67,-4,4,5,-10,1,-4,-12,0
6.675,2,15,28,2,-2,-5,-7,-4
6.68,-3,-23,-6,1,2,2,-1,-4
6.685,0,23,-39,-1,1,0,4,1
6.69,-5,-9,15,-2,3,1,4,1
6.695,-3,6,-13,0,2,6,7,-2
6.7,-11,-27,-10,-5,-6,-17,-20,-9
6.705,-9,-5,-29,-8,-3,0,-10,-5
6.71,-2,-4,1,-3,0,4,6,1
6.715,-2,8,2,11,7,3,-7,-3
6.72,6,21,11,6,2,3,6,3
6.725,13,-95,-65,-4,-14,0,11,9
6.73,-7,89,2,-25,-1,-2,-10,-7
6.735,-1,-26,5,-5,-4,-4,2,8
6.74,2,2,34,28,-6,-2,34,1
6.745,-2,-4,-5,11,4,-5,-24,-3
6.75,-12,-58,-17,-14,2,-1,-15,-14
6.755,6,22,-21,0,-3,2,1,4
6.76,6,-3,-34,-20,0,-2,4,7
6.765,-19,-10,54,43,2,0,-5,-17
6.77,-8,-50,-57,4,-9,-1,20,5
6.775,10,27,13,-20,3,-1,20,9
6.78,6,-28,-4,7,1,-8,-63,-1
6.785,10,16,-20,-35,-16,-9,-5,3
6.79,7,13,28,11,8,-2,-20,-28
6.795,-1,-30,-17,7,1,2,-32,-10
6.8,5,19,27,19,12,9,-3,13
6.805,-17,1,-33,-58,-4,1,-1,-26
6.81,4,-5,25,26,-4,8,2,18
6.815,-9,-8,-10,-8,-9,-6,-41,-8
6.82,-8,6,7,5,2,4,-2,-14
6.825,9,40,20,17,10,-5,12,7
6.83,1,-106,-30,-3,14,10,21,18
6.835,32,60,-18,3,-1,0,11,2
6.84,-32,-55,6,-10,-5,-10,2,-6
6.845,-52,-10,-14,6,8,5,11,-10
6.85,-8,-33,3,-14,-12,-5,0,-4
6.855,-13,-103,-9,-1,-8,-11,-8,-6
6.86,-12,34,-6,-13,3,16,23,-4
6.865,27,-27,-26,-1,-8,-5,0,11
6.87,3,26,6,-1,-3,-3,-6,7
6.875,-17,-8,2,-37,4,-4,-13,-32
6.88,30,29,57,59,11,27,29,26
6.885,-44,-35,-99,-101,-36,-44,4,-4
6.89,7,29,6,-21,-3,-12,-39,-29
6.895,12,1,5,20,1,3,19,11
6.9,12,17,-5,-8,2,3,7,4
6.905,30,51,75,110,39,40,16,34
6.91,-17,-42,-60,-21,-29,-26,6,-4
6.915,-23,1,-50,-97,-17,-16,-3,-11
6.92,6,3,3,47,0,-4,-10,-2
6.925,2,-8,12,-2,-16,7,5,2
6.93,0,32,15,-12,33,9,7,-3
6.935,0,8,36,72,-45,-7,7,11
6.94,-12,-10,-40,-51,-7,-8,-20,-5
6.945,11,-5,10,38,10,3,4,-6
6.95,3,14,15,-6,11,8,1,2
6.955,-1,8,-8,-3,14,4,18,9
6.96,5,-28,-5,-22,0,-10,0,-2
6.965,16,27,23,12,-14,-7,-14,-9
6.97,12,-90,-47,-5,-4,11,6,12
6.975,8,18,46,4,4,-6,-8,-5
6.98,-104,-105,-31,-7,-11,-14,-16,-38
6.985,-27,9,18,-23,8,0,-10,-10
6.99,-15,-11,14,4,-4,-5,5,5
6.995,9,2,-12,24,10,9,10,5
7,25,19,0,-17,-1,0,1,0
7.005,14,5,10,16,2,0,14,10
7.01,11,36,23,-8,-4,4,-6,-3
7.015,-6,-11,-24,-39,-3,-1,11,22
7.02,16,33,6,-6,-7,-11,-15,-41
7.025,5,-4,-11,-7,0,3,15,31
7.03,6,-6,19,21,-8,-14,-37,-52
7.035,-8,0,56,21,13,5,-4,-22
7.04,28,0,-75,-2,-4,-3,-30,12
7.045,-23,-21,0,-6,-8,-9,-13,-23
7.05,-20,1,18,4,8,8,-7,-7
7.055,-14,28,29,4,-2,4,21,8
7.06,15,-7,27,7,1,6,106,42
7.065,2,-16,-18,-5,-5,-21,-73,-79
7.07,-1,12,-9,-6,-8,-12,4,15
7.075,-3,-26,-4,9,-2,-6,-18,-5
7.08,14,37,10,4,0,13,17,7
7.085,4,-13,-1,-7,7,10,11,17
7.09,3,7,13,5,-1,-2,11,7
7.095,13,17,-14,1,8,2,0,-4
7.1,-7,-24,-17,-3,-10,0,-12,-2
7.105,-2,1,-11,-35,-9,-1,7,9
7.11,3,23,30,16,-3,-7,-10,0
7.115,17,31,-28,2,5,5,8,11
7.12,-15,-6,5,-4,5,-5,-19,-8
7.125,9,30,4,0,0,-3,-6,6
7.13,9,17,-16,6,-2,7,30,21
7.135,-10,-27,-5,8,-30,-10,-6,-2
7.14,-9,-9,3,-19,-4,-7,-20,-21
7.145,9,4,-1,6,6,8,9,5
7.15,-2,-2,-7,-3,8,0,-6,2
7.155,-4,-5,-6,10,3,-2,-14,-8
7.16,5,-38,-32,-5,-6,-8,-17,-5
7.165,4,93,40,8,-2,0,-8,16
7.17,-12,-32,2,6,2,2,9,5
7.175,-6,-19,-1,-9,6,3,-3,-5
7.18,-1,-14,4,5,-3,1,3,8
7.185,5,-25,-18,-5,8,0,3,4
7.19,-11,-31,-11,-11,-7,-5,-3,-14
7.195,-6,-13,16,0,-2,1,-4,-3
7.2,1,12,-11,7,10,-1,6,1
7.205,0,-24,-13,-5,-1,-5,-3,1
7.21,2,10,-23,-19,-16,1,-8,-5
7.215,-18,-51,-17,-11,-10,-5,3,-1
7.22,-8,10,13,-6,-4,-4,-12,-25
7.225,18,34,-18,-5,11,4,11,10
7.23,0,33,14,12,-4,-1,3,3
7.235,4,-2,-2,11,9,-1,-5,-5
7.24,2,19,14,5,-3,-3,4,13
7.245,-5,-36,-7,-23,-13,0,2,-6
7.25,8,16,-4,2,5,2,4,1
7.255,6,30,-3,14,6,2,1,3
7.26,-3,-10,21,-17,-8,-3,0,14
7.265,-2,-26,-12,20,-9,-4,9,-10
7.27,1,6,5,-4,-1,4,1,9
7.275,-10,1,2,-2,8,-1,-5,-19
7.28,4,6,11,3,13,9,21,10
7.285,-6,-14,65,22,-4,-6,-5,-4
7.29,35,111,-8,-10,-9,2,16,17
7.295,-8,-93,6,-2,-3,-4,-8,-7
7.3,7,18,11,-6,-2,3,4,0
7.305,-12,-50,-16,-5,8,6,3,1
7.31,-1,-12,55,36,53,12,-2,-3
7.315,-1,27,-60,-8,-68,-23,-1,5
7.32,-7,0,-18,-39,-19,-9,-16,-4
7.325,-4,-11,32,44,6,1,0,3
7.33,-8,-21,-10,-3,4,-2,-5,-7
7.335,11,30,29,14,35,11,6,6
7.34,1,0,11,-6,16,2,-3,-2
7.345,-8,4,-42,56,-4,-1,-4,0
7.35,-6,3,31,-94,-40,-9,-2,-4
7.355,0,27,15,65,-2,0,-1,-1
7.36,-11,-6,-52,-49,-13,-7,-11,-6
7.365,11,-15,20,0,15,3,5,4
7.37,-16,-95,62,122,22,1,-8,-10
7.375,-28,-78,-85,-114,-30,-5,1,-4
7.38,20,42,105,77,7,2,0,7
7.385,-31,0,48,73,22,4,-1,-7
7.39,14,-31,-42,-49,-32,-13,-9,-5
7.395,-29,-21,31,-78,-3,-4,-5,-8
7.4,-1,-27,-35,27,5,3,-1,-3
7.405,13,15,26,-25,7,6,7,8
7.41,-1,23,-58,-19,-16,-9,-3,-1
7.415,27,30,11,-42,6,3,1,7
7.42,1,20,-9,8,13,4,0,0
7.425,4,12,17,82,-1,2,0,3
7.43,31,10,-55,-78,8,-2,1,4
7.435,-25,13,-23,23,3,-3,-5,-1
7.44,26,-71,-45,-43,-13,-15,-11,-6
7.445,-14,-27,-40,-59,-19,1,0,-10
7.45,-76,-9,24,49,14,2,-2,-15
7.455,13,13,-10,22,3,2,3,5
7.46,-23,-26,35,46,-18,-5,-5,-6
7.465,25,-51,-38,-56,-8,-11,-8,2
7.47,6,0,27,0,-1,3,2,-4
7.475,21,33,-5,28,16,6,4,12
7.48,-1,-11,10,-10,2,3,2,-2
7.485,-6,-23,-17,-43,-15,-13,-9,-8
7.49,22,93,39,40,10,10,15,19
7.495,-5,-51,58,60,18,1,-2,-3
7.5,1,4,0,-12,-14,-4,-4,-2
7.505,-4,6,-13,-17,-1,1,-1,0
7.51,-16,-59,-56,-30,-20,-3,-2,-3
7.515,20,24,-15,1,6,3,2,1
7.52,-3,25,30,28,-3,-2,1,1
7.525,-4,17,17,-31,-10,-4,-6,-4
7.53,4,-45,-6,30,-5,-9,-12,-7
7.535,-8,38,37,-4,3,3,3,0
7.54,-23,-25,-62,10,8,2,-1,-5
7.545,-14,-39,-101,-35,-18,-12,-8,-1
7.55,-2,-72,17,1,2,-3,14,-15
7.555,7,18,9,21,1,3,3,1
7.56,-6,25,47,50,3,-1,4,0
7.565,-18,21,-45,-44,2,-2,-13,-4
7.57,-5,51,19,-14,-3,-1,2,10
7.575,-5,-26,18,5,-2,-4,-13,-8
7.58,44,12,-48,-26,-1,9,16,56
7.585,-16,2,24,2,7,19,49,29
7.59,-26,-9,-4,48,-10,-33,-76,-77
7.595,-10,6,-15,-34,-7,-10,-12,-21
7.6,-9,-17,1,-3,-3,-8,-14,-14
7.605,12,18,5,2,5,5,5,28
7.61,7,17,1,-8,8,17,31,31
7.615,-6,-10,1,19,4,1,0,0
7.62,1,-8,-11,-28,-1,0,1,-5
7.625,-2,-7,16,11,-9,-8,-17,-24
7.63,6,8,-6,-3,1,5,6,14
7.635,13,-18,-11,0,-4,-4,14,-1
7.64,-2,9,27,-25,7,0,-21,-4
7.645,11,21,-19,16,-4,-6,-6,-6
7.65,-3,-27,18,-8,-22,-9,0,3
7.655,11,6,10,-4,1,5,0,12
7.66,-16,4,0,-18,-7,-4,4,-8
7.665,9,13,46,18,6,0,2,-4
7.67,0,-29,-39,-14,22,7,2,5
7.675,0,12,6,27,-1,-3,-3,1
7.68,18,56,21,-4,15,7,7,4
7.685,0,-26,-10,-44,-39,-9,-7,-7
7.69,-6,8,6,1,4,0,10,11
7.695,-7,-24,-8,-3,0,1,3,1
7.7,-8,-27,-9,16,6,-6,-7,-15
7.705,-11,-63,11,5,9,6,4,-5
7.71,7,16,-11,-9,-7,0,-2,8
7.715,-5,-8,2,-4,1,-3,-1,-6
7.72,-5,-45,-5,-8,-8,-3,-5,-7
7.725,4,76,22,9,5,2,2,3
7.73,-3,-3,25,1,-4,-3,-3,-5
7.735,-2,-19,0,8,5,2,0,3
7.74,-9,5,-34,-8,-12,-4,1,-4
7.745,-1,-2,3,-6,-4,-5,-7,-5
7.75,2,7,1,10,6,1,1,3
7.755,8,17,-9,-16,-5,-1,-6,0
7.76,-8,0,9,3,-2,2,4,1
7.765,2,-5,-5,4,6,0,-3,-5
7.77,3,11,-11,4,-1,-1,-2,1
7.775,-3,-19,-20,-23,-10,-3,-4,-1
7.78,-8,-20,19,5,-10,-7,-1,-5
7.785,1,29,-6,3,3,4,-1,-1
7.79,1,-15,4,-4,-1,-2,2,0
7.795,-4,11,5,7,4,3,-2,-3
7.8,-7,-7,-4,-1,1,-1,-3,-3
7.805,0,-2,-8,0,1,-1,-4,0
7.81,3,13,7,-1,-2,0,3,0
7.815,-1,0,-11,6,1,-2,1,0
7.82,-3,37,-46,-18,-5,0,-1,-3
7.825,0,-23,11,5,-3,-2,0,-2
7.83,-2,-6,-33,-2,-9,0,-11,0
7.835,-2,1,18,2,-1,-2,0,0
7.84,2,-8,-1,4,2,-1,0,-1
7.845,3,-2,6,8,6,-1,-5,-3
7.85,-3,3,5,5,4,2,8,-1
7.855,-5,-5,-22,-20,-6,-1,2,-2
7.86,1,4,8,0,-1,2,-1,-1
7.865,-2,-4,6,-12,-4,-5,-5,-3
7.87,2,2,2,-1,1,0,-1,-1
7.875,5,1,2,12,1,-3,-3,0
7.88,2,2,5,4,-4,-2,3,0
7.885,-8,-3,-12,-9,2,-3,-7,-3
7.89,0,-2,5,-6,-2,2,8,3
7.895,-1,2,-28,-3,2,1,2,1
7.9,3,1,22,0,-2,-1,10,6
7.905,-8,-5,-12,1,-2,-4,-25,-8
7.91,2,-1,-17,-11,-2,-1,-3,0
7.915,0,5,3,9,-3,-2,-3,0
7.92,3,-4,4,-3,1,1,1,1
7.925,9,1,0,6,-8,0,10,3
7.93,-7,-7,-2,-10,12,2,-2,0
7.935,13,-1,6,-4,-4,-3,-2,0
7.94,-26,-9,-18,-3,0,-4,-7,-5
7.945,9,5,10,4,0,-2,-2,-1
7.95,-6,-4,6,8,-6,-4,1,-2
7.955,6,-3,4,-11,0,2,1,-4
7.96,0,3,-3,-3,-1,0,-2,-2
7.965,1,-10,3,33,-1,-2,0,-1
7.97,-9,57,10,1,2,7,6,5
7.975,-18,-29,9,-3,0,-1,-5,-4
7.98,2,-5,-6,-9,-2,-1,-2,-2
7.985,-15,-19,-1,-13,-1,-4,1,-2
7.99,8,-7,-14,-2,-3,-5,-7,-1
7.995,-5,0,-3,-10,2,2,3,1
8,5,7,25,56,0,-2,-4,-6
8.005,6,6,-18,-61,-4,-3,0,-5
8.01,-4,-24,16,18,-3,-1,4,0
8.015,-3,9,-2,0,2,2,24,-1
8.02,-1,-10,9,-6,-4,-7,-35,-29
8.025,3,10,-13,1,4,7,3,7
8.03,-2,-1,21,43,-5,-5,-8,-8
8.035,-8,-4,-8,-9,0,4,18,9
8.04,10,-3,-33,-21,-3,5,96,73
8.045,-14,-10,11,16,-6,-23,-100,-104
8.05,10,0,7,6,-7,-1,5,-6
8.055,-23,-2,3,24,4,7,21,0
8.06,-3,-4,2,37,0,-5,3,7
8.065,11,6,-33,5,2,12,81,94
8.07,-10,-1,-6,-76,-7,-11,-54,-41
8.075,29,23,28,72,0,-5,12,38
8.08,-27,-48,-45,-95,-17,-2,-16,-7
8.085,23,8,7,18,10,13,79,95
8.09,19,-1,10,3,4,-11,-77,-69
8.095,-24,13,37,81,0,-4,-12,-20
8.1,1,-3,-21,-5,13,8,-7,-8
8.105,-18,-27,-53,-111,-41,-17,-29,-27
8.11,2,-9,11,23,11,12,68,33
8.115,20,16,26,31,15,24,58,54
8.12,0,11,-6,-40,-11,-15,-59,-75
8.125,-7,3,11,23,0,-35,-20,14
8.13,-31,9,-17,13,10,6,39,35
8.135,-15,-14,24,-40,1,-10,-12,-28
8.14,0,-6,2,-20,-1,5,26,21
8.145,2,1,9,-32,10,17,43,33
8.15,28,-1,-19,34,-15,-2,30,43
8.155,0,7,-11,-34,5,3,22,65
8.16,-6,3,23,11,1,13,90,103
8.165,-35,-2,9,56,2,-26,-17,9
8.17,-7,0,12,15,7,11,93,51
8.175,-1,-7,-32,-27,-8,-2,-32,-12
8.18,0,14,2,4,-6,-8,-25,-7
8.185,-6,4,6,24,4,13,-8,-39
8.19,11,4,14,-16,1,1,32,17
8.195,-25,-30,-47,-70,-17,1,-20,-37
8.2,5,9,-6,11,4,-2,84,84
8.205,-20,-3,17,13,0,-7,-88,-99
8.21,2,-5,-13,-11,-5,4,45,86
8.215,-17,-6,-12,-4,-2,-26,-110,-96
8.22,-4,4,20,28,-2,-3,-21,-1
8.225,-6,-8,-1,-10,7,21,62,42
8.23,-25,-6,-14,-26,-11,-7,-32,-22
8.235,-23,-3,0,11,0,-2,-5,-8
8.24,-4,1,5,22,12,7,-9,-7
8.245,1,0,11,15,1,0,-8,-5
8.25,-1,5,-13,-34,-10,-6,-53,-31
8.255,30,3,-3,13,8,-5,19,40
8.26,8,-7,-3,15,1,-7,-48,-56
8.265,28,0,0,-10,-24,3,16,22
8.27,10,-15,-9,-17,-11,-5,-3,-34
8.275,28,-2,-1,2,6,-6,19,26
8.28,3,-27,-2,-7,-9,4,1,-19
8.285,2,21,8,-7,2,-7,-4,-9
8.29,7,-2,1,32,12,1,0,5
8.295,8,2,1,-1,2,-2,1,8
8.3,8,-9,-11,-41,-33,-12,-26,-22
8.305,18,-4,-2,9,1,6,21,12
8.31,-3,-3,-8,-11,-5,-6,-23,-6
8.315,11,3,3,-2,2,-1,14,20
8.32,0,16,10,4,15,-1,-85,-38
8.325,-2,-8,-5,28,40,18,15,3
8.33,-11,-1,-20,-16,-79,-20,-17,-7
8.335,2,-5,-1,-8,2,5,0,5
8.34,3,11,13,20,6,2,18,23
8.345,4,3,2,-20,2,2,1,22
8.35,6,-1,4,9,32,1,-30,-16
8.355,-6,-5,-8,-8,-15,-5,-11,-7
8.36,3,9,10,5,-8,-1,22,-4
8.365,7,-38,-5,15,16,2,1,-6
8.37,-11,-21,3,-16,21,10,5,-6
8.375,-18,-9,-27,-27,-47,-11,13,10
8.38,-3,-4,-1,1,6,-2,2,2
8.385,2,1,-1,-2,-3,-6,-11,-7
8.39,5,-17,-7,4,7,0,-1,-1
8.395,7,5,11,3,5,5,0,-4
8.4,-1,9,4,7,16,-4,-5,0
8.405,-9,2,-1,14,-9,-1,-1,-10
8.41,5,14,-32,-32,-24,-3,-3,2
8.415,-8,-3,4,-4,32,6,3,-2
8.42,-18,3,1,-7,-28,-3,9,1
8.425,-3,-35,-29,-9,-4,0,10,6
8.43,-4,-13,14,28,22,-4,-8,1
8.435,10,-23,-13,5,12,-1,-11,-3
8.44,-5,-13,9,14,8,6,6,1
8.445,12,-16,-16,-3,-4,-3,-7,-2
8.45,-5,-112,-9,-4,-1,-5,-12,-15
8.455,-28,-13,-23,-9,-4,2,6,-6
8.46,-2,4,41,13,10,-4,1,3
8.465,-3,6,15,-4,7,1,-2,0
8.47,-7,-82,23,11,18,1,-4,-12
8.475,11,54,4,24,-51,-10,3,5
8.48,4,-56,5,-12,8,5,-2,-1
8.485,-25,-12,-55,-24,-23,-7,-4,-3
8.49,2,103,94,33,17,7,4,7
8.495,-8,-46,-98,-24,3,-1,-3,-8
8.5,3,-5,27,-20,-5,0,2,4
8.505,22,63,33,-28,-11,-7,-5,-2
8.51,-6,23,-7,-14,-1,4,6,10
8.515,8,-2,46,21,6,-4,-6,-2
8.52,24,22,-58,2,-1,0,-4,-6
8.525,-6,56,55,48,10,6,9,8
8.53,-8,-17,-116,-26,-18,-11,-7,-6
8.535,4,-61,-23,-95,-12,-9,-9,-7
8.54,12,-14,-7,13,-6,-10,-10,-7
8.545,-4,-54,19,-1,5,8,6,1
8.55,-4,29,29,98,6,5,6,4
8.555,-1,-13,-29,-19,-4,-1,-2,-5
8.56,-11,7,-2,-21,-11,-8,-3,-3
8.565,-9,-6,23,9,-3,-3,-1,-3
8.57,-5,37,20,-10,-1,0,3,7
8.575,14,18,98,53,12,6,4,7
8.58,-3,69,-93,-4,1,1,3,2
8.585,-19,-26,4,-3,-11,-5,-4,1
8.59,6,-10,40,-5,0,-2,-5,-7
8.595,-15,8,23,1,0,-1,-2,-5
8.6,-13,9,41,-18,1,3,1,6
8.605,8,-7,-33,-26,-8,-5,-5,-5
8.61,9,5,-37,-23,-5,-2,1,7
8.615,9,10,34,9,3,-3,-3,1
8.62,-15,-37,-39,12,3,5,4,-4
8.625,12,33,-2,5,2,0,2,0
8.63,9,-14,3,-16,0,-2,-3,1
8.635,-12,10,0,8,2,0,-1,-5
8.64,-5,-18,5,22,-3,-2,-2,0
8.645,-1,-10,-2,-12,-17,-4,1,-2
8.65,24,22,7,-6,1,1,0,2
8.655,8,-14,-11,13,5,-1,0,-3
8.66,8,37,21,-3,3,-4,-3,8
8.665,-20,0,26,1,4,1,0,-8
8.67,-6,-2,-29,-26,-15,-10,-6,-4
8.675,4,9,2,-3,12,4,3,1
8.68,-7,-19,30,25,10,9,8,3
8.685,9,-13,-73,48,22,-6,-7,-1
8.69,4,-3,6,-28,-40,-8,1,3
8.695,-18,-21,0,-11,-50,-3,-2,-3
8.7,6,16,49,-14,1,-1,-8,-3
8.705,20,-27,17,3,19,15,9,4
8.71,5,101,49,33,29,10,15,15
8.715,12,10,17,7,14,-6,-4,3
8.72,-7,-20,34,13,17,15,6,-7
8.725,-16,12,75,-12,-29,-8,-28,-20
8.73,-14,-17,-16,19,3,6,11,5
8.735,-24,-19,2,-15,-13,-4,-2,-2
8.74,29,0,29,33,-10,-45,-8,2
8.745,17,81,42,-5,22,3,7,12
8.75,-1,-74,-73,-37,-2,-9,-20,-21
8.755,-10,-7,-44,-10,20,-2,14,-1
8.76,-40,1,44,19,-9,34,6,-7
8.765,8,-24,-43,-31,-22,-12,2,0
8.77,0,-95,15,33,20,-13,-25,-16
8.775,1,-7,-1,-12,11,16,14,21
8.78,-4,-35,-7,-13,15,7,5,0
8.785,-30,4,-60,-19,-24,-7,0,-5
8.79,-18,41,58,15,0,16,10,10
8.795,5,17,-18,-5,-11,-13,-17,-14
8.8,23,-1,-24,-21,-18,-13,-8,28
8.805,-23,-84,34,6,8,4,-1,-27
8.81,22,41,10,-8,-4,0,-10,-29
8.815,-18,4,-9,0,-4,-1,-12,14
8.82,-3,-3,-39,-18,-19,-12,-13,-20
8.825,-11,3,-19,8,-1,-12,2,-6
8.83,-5,-2,-38,-11,4,8,15,12
8.835,20,17,34,31,27,12,20,14
8.84,-18,-1,-15,-20,-13,-2,-6,-31
8.845,0,-5,-5,1,6,-4,-3,9
8.85,1,10,25,-9,3,8,14,3
8.855,4,10,3,-2,-12,-8,-9,16
8.86,-5,-17,-30,-10,-10,-1,-3,13
8.865,15,6,-2,-5,-3,1,-5,3
8.87,-9,1,-6,0,1,-4,1,-5
8.875,6,-3,-19,1,-2,-3,1,6
8.88,8,-26,-18,-5,9,12,27,32
8.885,-5,13,18,1,-9,-3,-8,2
8.89,-3,-8,-11,-10,-6,-7,-5,14
8.895,-5,2,0,6,0,3,0,-22
8.9,11,4,-2,3,4,4,27,9
8.905,3,-3,-18,-4,1,-11,-61,11
8.91,-15,-8,1,-3,-1,1,-6,-27
8.915,-29,-30,-22,-24,-17,-12,-30,-13
8.92,2,29,-7,2,4,-2,-5,3
8.925,-2,-11,-15,-3,2,7,20,8
8.93,-12,-44,-27,-11,-7,-9,-12,-10
8.935,3,-17,48,9,-2,-3,-7,-20
8.94,-11,-14,-36,-1,2,-4,-8,-15
8.945,1,-6,-4,-5,-1,1,12,8
8.95,0,5,-1,-9,-9,-7,-12,-12
8.955,-1,10,-3,2,0,4,14,-3
8.96,3,-3,28,8,2,-7,-8,-4
8.965,-12,-39,-43,0,-4,4,9,-17
8.97,2,-5,-9,2,8,-2,0,10
8.975,-13,-25,-18,4,5,11,9,7
8.98,-2,0,12,1,-3,-9,-12,-6
8.985,5,-1,-44,-15,-9,-3,1,-1
8.99,-7,9,-70,-27,-11,-5,1,5
8.995,9,29,-37,-1,-1,-4,-4,3
9,-3,-12,2,-4,-2,-3,-12,-13
9.005,-1,10,26,5,1,2,13,-1
9.01,-4,-1,30,11,2,0,2,21
9.015,13,3,19,7,3,1,0,-5
9.02,0,-1,-6,-17,-4,-1,-2,-3
9.025,-6,-7,-25,-23,-10,-7,-1,-4
9.03,1,2,2,11,-15,-1,2,3
9.035,-2,-8,14,2,7,2,-2,-8
9.04,-3,0,-8,1,3,0,1,1
9.045,3,9,19,11,10,2,0,0
9.05,3,5,26,9,6,1,-2,-4
9.055,5,14,31,32,-4,-2,-1,-5
9.06,-2,-13,-8,-73,0,1,-2,3
9.065,0,6,33,52,-24,-9,1,1
9.07,-4,-14,11,-21,-4,1,5,1
9.075,6,-4,-32,-15,-1,-2,-2,-8
9.08,-4,6,12,26,12,8,4,4
9.085,0,-6,-21,-19,3,3,0,2
9.09,-1,8,-3,1,-3,-4,-2,-2
9.095,0,-5,16,10,-6,-4,-4,-3
9.1,1,6,27,28,-4,-3,-6,-11
9.105,-6,-1,-34,-35,11,2,0,-5
9.11,-7,-6,-9,-7,-4,-2,0,-3
9.115,3,3,14,-11,3,3,2,4
9.12,3,10,-6,4,-6,-3,-1,0
9.125,6,10,38,3,0,0,2,4
9.13,0,7,25,-1,3,2,-3,-1
9.135,-3,-8,-3,-12,-3,-4,-4,-5
9.14,-6,-14,-24,14,-7,-7,-4,-8
9.145,6,9,2,-7,3,3,1,8
9.15,6,-5,-6,8,4,2,3,7
9.155,-29,3,-7,-10,-10,-5,7,24
9.16,27,-11,24,15,3,2,-3,-14
9.165,-30,-9,-12,-24,-5,-5,-12,-53
9.17,-4,6,2,2,-4,2,-1,1
9.175,13,3,-14,18,5,10,69,37
9.18,-19,20,-9,-9,-4,-9,-53,13
9.185,6,11,28,14,3,1,-4,-28
9.19,8,-11,2,-4,-2,-3,-2,4
9.195,1,1,13,-3,-1,-1,-3,-12
9.2,1,-10,-31,-2,0,3,25,17
9.205,1,-12,-5,5,-1,0,0,-1
9.21,-7,10,-4,0,2,-2,-3,1
9.215,5,-4,-21,-7,-1,-4,-14,-9
9.22,-1,7,13,-5,0,0,2,-11
9.225,1,-12,-4,7,5,1,-7,6
9.23,-5,4,-7,-5,-5,-5,2,-8
9.235,-6,-9,0,-12,-5,-2,-16,-3
9.24,-7,-4,-26,-18,-7,-5,0,-1
9.245,5,-12,6,9,-3,0,9,16
9.25,-1,-2,16,16,11,4,2,0
9.255,4,6,-16,4,7,-1,-10,3
9.26,-8,-5,-24,-26,-9,-4,-8,-38
9.265,5,-12,-68,-5,0,4,18,51
9.27,27,27,0,-2,-1,6,13,28
9.275,-5,0,-6,-12,-7,-6,-17,-10
9.28,-10,-11,4,4,6,1,3,-20
9.285,8,20,24,14,1,1,1,-5
9.29,-26,-31,-16,-3,-6,-13,-18,-19
9.295,7,1,8,0,1,2,2,-6
9.3,4,4,13,4,-1,0,5,21
9.305,-4,2,-7,-1,-5,-4,-7,0
9.31,-10,-8,-4,-5,-2,-2,-6,-18
9.315,2,9,20,-6,-6,-4,-8,-6
9.32,-2,-3,11,7,-2,-1,0,-5
9.325,-7,-3,-2,4,1,0,-1,2
9.33,-3,-7,-17,-15,-2,-5,-2,-8
9.335,2,8,-7,-5,-3,-4,-5,-4
9.34,4,3,-2,2,-2,2,6,6
9.345,0,2,27,1,1,-1,3,-4
9.35,3,1,0,1,0,1,-1,3
9.355,-5,-12,-19,-2,-6,-4,-8,-6
9.36,-2,1,2,7,0,-2,2,4
9.365,-2,-3,7,-4,0,-3,-5,-4
9.37,-10,-19,-3,4,-1,-1,-2,-2
9.375,1,0,16,1,-3,-1,-4,-3
9.38,-3,12,-15,-11,0,1,1,0
9.385,-4,-10,11,4,-1,-1,0,2
9.39,0,-8,-6,-2,-4,-2,-2,0
9.395,3,6,9,6,2,-3,-4,-3
9.4,-9,-18,-11,1,1,3,4,0
9.405,-3,0,-4,-13,-4,-1,-2,-2
9.41,-2,5,4,0,1,0,-1,0
9.415,-1,0,-1,1,-3,-2,-4,-3
9.42,3,3,3,-1,-3,-4,-1,1
9.425,2,3,5,0,0,1,-1,-2
9.43,3,5,4,-1,-4,-2,-1,7
9.435,-1,-3,-6,1,-1,-1,0,2
9.44,4,2,1,1,0,-2,0,-1
9.445,0,2,6,4,1,2,2,-1
9.45,-1,1,-3,-6,-1,-2,-5,-13
9.455,-4,-7,-12,-17,-9,-4,-3,0
9.46,-3,-5,1,2,-4,-1,0,0
9.465,0,-2,-2,13,7,2,0,-2
9.47,-2,2,-3,-8,6,2,-2,-3
9.475,-2,-1,2,1,-4,1,0,-8
9.48,6,12,28,34,2,-3,-1,2
9.485,0,5,-9,-14,12,5,-1,2
9.49,-2,-2,14,-47,-26,-9,-2,-2
9.495,-4,-6,-9,-6,4,2,1,-3
9.5,-2,-12,-21,1,-7,-6,-4,-2
9.505,2,3,14,16,3,0,0,-2
9.51,3,5,-1,14,5,3,2,4
9.515,1,2,10,2,-2,-1,0,-2
9.52,1,1,7,-4,-1,2,0,1
9.525,-1,-3,-7,-8,-6,-4,-3,-1
9.53,-2,-3,-4,7,0,-1,0,-2
9.535,1,-4,-2,7,-1,1,4,9
9.54,-1,-3,-8,-5,2,-2,-12,-3
9.545,6,10,-8,-9,-5,-1,9,4
9.55,-11,-1,7,5,-1,-3,15,19
9.555,0,-4,-3,2,3,-5,-57,-43
9.56,-5,-6,6,-1,1,1,2,-1
9.565,2,4,2,-8,-9,-6,-4,0
9.57,0,-3,-11,5,-1,-1,6,1
9.575,-4,-2,-11,5,2,1,16,12
9.58,-1,1,0,4,1,0,2,2
9.585,2,0,8,9,-10,-1,27,35
9.59,-5,-9,-2,-9,6,0,-4,-30
9.595,-7,-6,-4,-12,5,-1,2,8
9.6,11,5,14,27,-18,-2,22,18
9.605,9,2,-13,-14,5,4,15,71
9.61,-40,18,-16,6,-4,-9,1,-10
9.615,-9,6,23,-8,6,10,35,5
9.62,-9,3,35,-3,4,1,-37,-72
9.625,5,-1,5,0,0,-7,-74,3
9.63,-7,-37,-77,-11,-7,-4,-4,30
9.635,5,5,-15,8,-13,-11,-20,-30
9.64,0,0,-10,-5,-6,3,31,36
9.645,-10,26,49,-29,-7,0,32,15
9.65,21,-16,-40,0,6,-2,-21,-49
9.655,18,40,100,20,7,3,10,77
9.66,-16,-68,-103,-25,-2,-10,-11,-39
9.665,2,18,23,-5,5,3,1,-32
9.67,7,6,42,-19,-11,0,-2,8
9.675,4,-8,-2,3,-8,2,32,25
9.68,10,29,27,14,4,0,-11,1
9.685,-6,6,-14,8,3,-3,-12,-28
9.69,7,-5,23,6,5,3,7,11
9.695,-3,-8,-43,-11,-3,0,-14,-23
9.7,-1,2,0,-26,1,-3,-3,14
9.705,-5,-27,-25,0,-5,-2,7,-9
9.71,11,13,40,20,0,2,19,54
9.715,-18,-11,-17,-4,-5,-13,-42,-71
9.72,4,6,-3,-4,0,5,46,42
9.725,-11,-19,-2,4,-3,-7,-67,-56
9.73,6,14,6,1,-4,5,23,51
9.735,2,-8,-10,-15,-12,-2,19,-8
9.74,-5,-6,-1,-6,11,10,-48,6
9.745,-5,-7,2,25,22,-16,11,-33
9.75,18,13,17,18,16,7,8,45
9.755,2,-14,-21,-14,-33,0,44,39
9.76,8,3,-1,-11,14,31,65,84
9.765,-18,-16,-21,-5,-13,-42,-57,-30
9.77,-3,1,-17,-6,-9,-11,0,-9
9.775,0,8,-27,-16,-2,-2,18,15
9.78,5,10,9,-1,-6,10,87,46
9.785,7,-4,-2,3,-1,23,20,16
9.79,-8,-2,7,-2,-1,-4,-45,-51
9.795,3,1,-9,0,1,2,10,74
9.8,-5,-6,9,0,-7,-14,-40,-44
9.805,0,-2,0,-3,-3,-2,-14,-33
9.81,-4,-13,-12,-7,-9,-5,0,15
9.815,-6,9,14,5,9,6,-10,-14
9.82,-1,12,10,5,3,-13,-65,-46
9.825,9,5,6,2,-7,4,41,35
9.83,2,6,-4,-6,-1,8,6,-28
9.835,-1,0,-7,3,9,-3,-15,-19
9.84,-14,-17,4,0,-9,-16,-16,-23
9.845,0,-10,12,2,-5,6,7,7
9.85,-1,20,-10,-5,-1,0,14,-12
9.855,-13,-54,-16,-8,2,-6,-33,-38
9.86,-1,6,4,-2,-7,-11,-13,-4
9.865,-2,-12,6,-4,1,13,34,24
9.87,5,-6,12,4,-2,-4,-22,-17
9.875,4,-1,18,-6,0,-2,2,4
9.88,0,0,-20,-7,-3,1,4,-5
9.885,-6,-6,-12,-6,-3,-5,1,6
9.89,-4,-18,-24,0,0,-6,-9,-16
9.895,7,28,42,27,6,0,-5,-8
9.9,3,-4,3,-6,1,0,13,22
9.905,-6,-1,-12,-33,-7,1,-2,-5
9.91,-1,6,32,8,-3,-4,-7,-9
9.915,8,11,-8,2,3,3,21,35
9.92,-6,11,20,9,3,0,-16,-48
9.925,-3,-5,0,11,-4,-6,2,-31
9.93,0,2,10,-1,0,1,-4,-2
9.935,1,-6,-14,-7,3,13,15,27
9.94,-19,-8,3,1,-5,-19,-17,-21
9.945,21,3,-17,-1,-5,-6,-15,29
9.95,-5,-8,-4,-5,-2,-2,-2,-5
9.955,-5,-3,-19,0,1,-5,-19,-25
9.96,-4,-4,-7,-4,-1,8,13,22
9.965,-4,-5,5,1,1,5,24,14
9.97,-5,-1,15,5,-1,-5,-19,-11
9.975,5,-2,-6,-4,-2,-3,1,10
9.98,-2,-1,2,-1,-3,-2,-1,-12
9.985,-7,2,14,4,-1,-1,-3,-15
9.99,1,2,6,-4,0,2,7,7
9.995,-11,-6,-17,-11,-6,-5,-10,-22
10,8,2,-22,-10,-5,-3,-3,13
10.005,-2,1,5,4,3,6,-4,-2
10.01,-6,-12,-1,-3,2,4,6,-5
10.015,3,11,12,4,-2,-2,0,-1
10.02,2,2,-4,-1,-3,-4,-4,-2
10.025,-4,-9,-29,-1,-1,1,8,19
10.03,1,6,-8,-2,-3,-2,-2,-10
10.035,-4,-16,-13,-3,-1,-4,-4,4
10.04,3,6,7,3,1,0,-4,-8
10.045,0,1,-24,-4,-5,-4,-2,-8
10.05,-1,8,-8,5,5,7,10,10
10.055,-5,-4,12,7,2,-3,-10,-15
10.06,-2,-6,-2,-1,0,2,0,8
10.065,1,-1,10,3,-1,0,3,7
10.07,3,-1,-1,1,-2,-3,-3,-4
10.075,-1,2,1,-5,-1,-1,-1,0
10.08,-3,-16,4,1,0,4,11,1
10.085,1,15,0,1,-3,-5,-18,-14
10.09,-11,-33,-15,-4,-1,-1,-1,3
10.095,-7,2,-3,1,1,-3,-1,-11
10.1,0,-12,-1,-2,-3,-4,-7,0
10.105,-4,-4,9,0,-4,0,7,3
10.11,2,11,-8,2,-1,1,3,8
10.115,-2,-1,12,5,1,1,1,-6
10.12,4,6,-18,-9,-5,-3,0,3
10.125,-9,-22,14,3,1,3,1,1
10.13,1,15,18,1,1,-2,4,3
10.135,4,0,13,3,-1,-1,-4,-4
10.14,0,6,-4,0,0,-2,0,1
10.145,-1,-1,11,-2,-2,-4,-3,-2
10.15,-9,-11,0,2,2,1,-2,-4
10.155,-4,5,-2,3,0,-3,-4,-5
10.16,4,7,-16,-6,-4,-6,-6,0
10.165,-1,2,-3,-1,1,1,2,0
10.17,0,-2,5,0,0,-1,-1,1
10.175,2,-6,-9,0,-4,-3,-4,-3
10.18,0,9,7,-3,-2,-1,-2,-1
10.185,8,28,-21,0,-1,-1,0,-2
10.19,-11,-14,12,-3,-2,2,1,3
10.195,-3,-9,-5,7,-1,0,-1,-3
10.2,0,1,4,-15,-3,-3,-2,1
10.205,1,4,7,1,1,-1,-2,3
10.21,5,11,0,3,-2,-1,1,5
10.215,1,2,-3,4,-1,-4,-5,-1
10.22,-6,-12,-1,11,7,4,2,-2
10.225,-3,-5,1,1,-8,-2,1,-5
10.23,1,-5,-10,-33,-14,-6,-1,-2
10.235,2,29,-2,-5,2,2,0,-2
10.24,-4,-12,2,0,-3,-5,-4,1
10.245,-1,5,16,9,10,6,2,1
10.25,-6,-17,-36,-3,-3,-3,-4,-4
10.255,-2,-9,9,-20,-51,-9,-5,-3
10.26,1,-2,7,6,41,7,5,1
10.265,-8,-10,-21,10,11,0,-1,-1
10.27,2,1,2,4,3,-3,-5,-5
10.275,-5,-18,-1,-3,3,1,2,0
10.28,3,7,9,-3,-22,-3,-5,-2
10.285,-4,-8,10,-6,-5,1,2,1
10.29,2,13,14,4,1,-1,-2,-3
10.295,-1,-2,-1,2,-13,-5,-3,-2
10.3,0,-2,-7,-3,-6,-1,-3,-2
10.305,-1,-5,0,-13,20,3,2,1
10.31,1,-1,-6,31,0,-3,-1,-1
10.315,-4,-7,-26,-28,-10,-2,-4,-3
10.32,3,9,9,10,-17,-4,-1,1
10.325,-1,-1,-22,-14,30,2,-1,-2
10.33,-3,-4,22,5,-3,4,1,-1
10.335,0,-2,2,13,20,3,7,0
10.34,-2,-3,-6,0,-11,-3,-10,-4
10.345,1,0,-10,-4,-22,-6,-4,0
10.35,3,3,8,8,2,-3,-3,-2
10.355,-1,3,2,-5,6,1,2,-1
10.36,-4,-5,0,-3,0,1,3,0
10.365,1,3,-2,-19,-9,1,0,1
10.37,1,1,-3,-5,0,-2,1,-1
10.375,-1,4,4,4,0,-2,-2,-2
10.38,1,3,28,15,5,-1,3,0
10.385,-2,-2,7,5,-8,-3,-5,-1
10.39,-1,2,-12,1,-6,-1,3,0
10.395,0,-5,9,-7,8,2,0,0
10.4,-3,-1,-1,-6,3,0,-1,-2
10.405,0,-1,-2,1,-9,-2,1,-1
10.41,0,1,3,-11,-2,0,-3,-1
10.415,-1,0,5,7,6,-1,-3,-1
10.42,-1,-2,-13,-4,1,-1,-1,-2
10.425,-1,0,7,0,-10,-2,1,-1
10.43,-2,0,-13,-11,-7,-6,-4,-2
10.435,2,-3,-5,-7,-18,-3,-5,-2
10.44,-3,-6,-15,-2,7,3,2,0
10.445,-1,1,8,14,16,2,0,1
10.45,0,-4,-3,-18,1,2,1,-2
10.455,-3,-2,-6,11,26,1,0,0
10.46,6,0,-4,-7,-8,-1,0,-2
10.465,-4,-2,4,3,-6,-3,0,0
10.47,-2,-2,-2,-1,-10,-4,-4,-2
10.475,0,-6,3,-15,-21,-5,-7,-2
10.48,8,19,-3,2,-2,4,2,0
10.485,-1,-4,-8,4,8,2,-1,-1
10.49,-14,-23,7,-4,0,-4,10,1
10.495,0,2,0,-1,2,1,-5,-2
10.5,-5,-12,-2,1,-2,-4,-5,-1
10.505,4,1,-1,-5,-12,-3,2,1
10.51,5,4,-4,-5,-2,3,1,0
10.515,-1,-4,2,7,3,-1,0,-3
10.52,-1,-21,-17,-5,9,1,1,-3
10.525,-2,3,6,2,1,5,3,2
10.53,0,-6,-2,2,5,-4,3,-4
10.535,-1,-14,0,-4,-11,-10,-12,-3
10.54,-4,-8,-3,-6,-14,-5,-8,-6
10.545,-1,-7,-5,-12,6,0,-1,-1
10.55,0,-3,0,16,22,9,1,0
10.555,-2,6,-1,-1,-4,1,13,0
10.56,-4,3,7,-5,-10,-8,-1,0
10.565,0,-3,1,-2,-10,-4,-1,-1
10.57,-1,13,-14,-12,-11,-3,-9,-3
10.575,-3,-4,-4,0,-2,-2,-4,-3
10.58,-4,0,2,5,15,1,0,1
10.585,-3,-3,-7,1,-3,-3,-1,-3
10.59,1,6,1,-1,-1,-5,-5,-2
10.595,-2,5,0,4,11,2,2,0
10.6,-6,-13,-1,-1,-3,0,3,1
10.605,4,20,0,3,-11,-3,-5,-4
10.61,-7,-21,4,-6,-5,-2,-3,1
10.615,-2,5,-6,-12,-6,1,-1,-2
10.62,-2,6,3,1,-2,1,1,0
10.625,-1,-2,-3,0,1,0,-1,-1
10.63,1,8,-2,2,-4,-2,-10,-3
10.635,1,-4,1,2,6,4,5,2
10.64,3,4,-1,-2,-1,-6,-4,-2
10.645,-5,1,-9,-2,-1,1,-1,-4
10.65,2,-2,4,3,-1,-1,-1,2
10.655,-8,-19,3,1,3,2,2,2
10.66,1,5,-10,-4,-3,3,4,0
10.665,-1,-8,6,-4,-6,0,3,1
10.67,5,28,8,-3,-1,-12,-13,-4
10.675,-2,-1,-9,9,-1,0,-7,-4
10.68,0,-1,6,-1,-1,-2,0,1
10.685,-3,-21,-5,-4,-2,-2,-6,-2
10.69,0,-5,0,-10,-3,7,10,0
10.695,5,9,1,4,4,-2,2,-1
10.7,-5,-1,7,7,15,5,-2,0
10.705,0,4,-2,6,0,-1,3,-1
10.71,-1,-5,-8,2,7,-3,-9,-3
10.715,1,4,0,-10,-12,-7,-5,-4
10.72,-2,-4,-3,-9,-22,-2,-2,-1
10.725,-2,-1,3,0,6,-6,-5,2
10.73,-4,-7,-14,-2,3,3,0,-2
10.735,-1,-7,-1,3,8,5,1,0
10.74,-5,-11,1,-2,-1,0,3,0
10.745,1,5,-1,-7,-10,-6,-6,-1
10.75,-5,-3,1,2,-1,1,0,-2
10.755,2,1,0,-2,2,-2,-2,1
10.76,4,13,-1,1,2,2,3,-1
10.765,-5,-4,-3,-5,-6,-4,-3,-5
10.77,-1,-4,1,3,1,0,1,0
10.775,0,4,-2,-2,2,0,0,0
10.78,-2,0,4,-3,-1,-1,-2,-1
10.785,-4,-5,-2,0,-1,-1,-2,-2
10.79,0,6,-1,-1,-2,0,1,0
10.795,-7,-9,6,0,-1,-1,1,0
10.8,1,0,-4,-1,-1,-4,-6,-3
10.805,2,0,-4,2,0,0,1,-1
10.81,-1,19,10,-1,-4,-2,3,-1
10.815,-2,-3,-4,-3,-2,-3,-3,-1
10.82,3,0,-5,-5,-3,-3,3,7
10.825,-9,-2,2,-1,2,2,-8,-13
10.83,0,-13,-8,0,1,4,9,2
10.835,-1,3,1,0,-2,-2,-9,-6
10.84,-1,-1,0,3,0,0,-4,-3
10.845,2,-6,-1,-5,-3,-3,0,2
10.85,0,-3,-2,4,-1,-3,-4,-2
10.855,5,4,-4,-2,-2,0,7,4
10.86,-10,-12,-5,-4,1,-2,-17,-6
10.865,1,4,0,-5,4,3,0,-1
10.87,-2,-7,-6,-39,-24,-9,-3,-4
10.875,1,2,-1,-2,21,7,1,0
10.88,4,3,3,11,-27,-9,-2,-1
10.885,-8,-10,-6,30,2,3,5,0
10.89,3,-5,8,21,17,4,-4,3
10.895,-2,-1,0,20,-15,-5,2,-3
10.9,1,15,-25,-62,11,-1,0,-2
10.905,0,-3,3,-12,-21,-7,-4,2
10.91,-1,-6,-5,18,4,-1,2,-2
10.915,3,13,12,-11,-19,-9,-5,-4
10.92,4,-15,3,15,43,9,1,1
10.925,-3,-14,-30,-19,-56,-13,-5,0
10.93,-2,2,3,-4,5,1,2,0
10.935,1,-1,17,-3,3,4,1,1
10.94,0,6,10,27,3,0,1,-3
10.945,2,-3,-4,3,30,4,2,-1
10.95,-3,20,-3,-15,-4,0,-5,-4
10.955,-6,-2,-17,8,-9,-5,-5,-4
10.96,-23,-26,24,9,-3,6,6,-1
10.965,0,3,-24,-29,8,6,5,5
10.97,1,-6,63,104,-4,-2,0,-2
10.975,0,30,-48,-75,1,-7,-8,1
10.98,-1,-1,-1,-4,-13,-4,-5,-7
10.985,4,8,-12,-25,-6,-7,-5,2
10.99,-11,-18,38,23,8,12,12,5
10.995,-2,-19,50,41,8,5,1,7
11,2,16,-23,-5,-8,-2,3,7
11.005,-6,-13,15,18,7,2,16,-1
11.01,6,-2,-28,-37,-6,-6,-6,-5
11.015,1,-2,10,10,5,1,1,0
11.02,1,-16,-12,-13,-8,-5,-5,-2
11.025,7,5,12,12,3,-2,1,4
11.03,-4,-2,-10,-26,-4,-6,-4,1
11.035,-6,-17,-18,-4,-3,-4,-4,-6
11.04,3,5,0,16,0,1,9,5
11.045,0,2,1,-6,-2,-2,-6,-5
11.05,0,-6,-12,-4,-1,0,3,-1
11.055,-4,-4,-22,-14,-1,-1,-14,-12
11.06,0,-11,2,10,-3,-3,-3,-5
11.065,-2,1,12,8,5,1,-4,-5
11.07,-3,-3,-20,-22,-3,-3,-2,-1
11.075,3,-3,0,7,3,8,44,32
11.08,-3,-5,-2,-5,-5,-11,-84,8
11.085,-8,-12,-6,-3,-4,-6,-12,-25
11.09,-2,-12,-10,-6,-2,-4,-5,26
11.095,14,-3,-4,2,-2,0,-1,-1
11.1,-13,5,5,4,-6,2,23,12
11.105,-6,5,6,9,4,-1,-3,-7
11.11,12,7,-14,-25,-5,6,0,-14
11.115,-2,2,3,2,-1,-2,4,52
11.12,-2,2,-1,1,2,1,10,-44
11.125,-10,-36,14,2,-3,-6,-14,16
11.13,6,67,4,0,-3,-5,-2,-26
11.135,-7,-15,12,-1,0,1,-1,-1
11.14,14,6,2,3,7,10,28,-57
11.145,47,17,15,17,13,20,36,105
11.15,-11,-24,-6,-5,-2,-3,-4,-2
11.155,-8,-17,2,5,-1,-3,-12,-23
11.16,1,16,16,6,1,0,4,2
11.165,-6,6,4,-3,-2,-6,-7,-38
11.17,-1,-16,-33,-2,1,-1,-3,13
11.175,8,19,29,6,2,0,3,-3
11.18,-5,11,-11,-2,2,1,5,6
11.185,-5,13,-16,-31,-24,-9,-10,-13
11.19,-9,-14,-3,6,4,1,-3,1
11.195,-12,-6,-4,1,-2,-5,-10,-27
11.2,0,-4,25,10,2,-2,-1,14
11.205,-4,5,-7,-3,1,-3,-7,-12
11.21,-10,-35,-9,-1,-3,4,0,-7
11.215,1,21,-3,-23,-1,1,-1,-13
11.22,2,-3,6,20,-10,-5,4,27
11.225,0,40,-3,7,8,3,1,-6
11.23,-8,-52,-2,-14,-11,-10,-6,-9
11.235,5,25,-12,-4,4,-1,-7,-6
11.24,-8,-18,-9,6,-17,-7,-3,3
11.245,-6,-7,-5,2,0,-3,-5,-16
11.25,-1,3,7,2,-2,-3,-1,-1
11.255,-4,0,-23,-7,0,-2,-3,-4
11.26,2,8,-16,-19,-2,-5,-2,0
11.265,-6,-14,9,14,2,1,-2,-7
11.27,1,23,-2,-17,-5,-3,-2,1
11.275,-2,-15,3,5,-2,1,1,-1
11.28,-2,-3,-2,0,2,0,-1,0
11.285,-1,-2,9,10,5,-1,-2,-4
11.29,2,9,1,-14,-10,-2,-2,-7
11.295,-4,-5,-13,2,-4,-4,-6,4
11.3,1,-9,-12,-14,-1,0,-2,-3
11.305,-3,-2,3,-2,2,-3,-3,-10
11.31,4,21,19,20,4,-1,2,3
11.315,-4,-16,-13,6,-17,-6,-5,-8
11.32,-1,-3,-4,-21,7,4,1,3
11.325,1,-24,-3,2,13,7,6,12
11.33,1,4,6,7,4,1,-1,-17
11.335,-2,-8,12,4,-41,-11,-8,-9
11.34,5,12,1,-20,6,-2,39,32
11.345,-9,-10,-28,15,52,2,-61,-72
11.35,3,6,3,16,18,6,7,4
11.355,0,-9,4,3,3,1,20,33
11.36,-9,5,47,-3,-57,-10,-26,-18
11.365,-1,-32,-57,-49,-36,-6,30,13
11.37,-7,-17,-13,-9,26,-7,28,25
11.375,9,-8,-14,-16,-97,19,4,-38
11.38,-22,-48,-7,-6,109,-21,-103,-73
11.385,31,-38,1,28,-66,30,87,91
11.39,-13,-56,13,35,91,14,71,-51
11.395,46,-10,-4,19,34,-4,-7,77
11.4,-1,21,9,-40,-117,-18,-46,22
11.405,-17,-36,6,-22,103,-24,-116,-85
11.41,18,8,-44,-60,-128,62,11,64
11.415,-4,28,83,73,127,4,38,-47
11.42,79,90,11,109,71,4,120,95
11.425,11,31,36,17,-94,6,61,49
11.43,-40,-42,-6,-45,-70,-37,-38,28
11.435,4,24,21,-60,-82,7,-18,-3
11.44,-33,-22,-45,-71,-92,-5,-20,-30
11.445,-44,-9,-72,-27,28,-30,-1,9
11.45,20,7,-23,13,28,5,-3,-19
11.455,-27,-51,-27,-12,-16,-14,-35,19
11.46,-12,-1,-15,3,41,-2,16,8
11.465,-15,23,40,5,-20,0,-29,-111
11.47,29,1,19,6,-1,-11,-24,72
11.475,-67,-37,38,-8,31,-19,-46,-48
11.48,12,-1,24,7,-15,9,28,14
11.485,-6,2,22,-1,0,9,1,14
11.49,-24,-55,-26,4,11,-18,-35,-62
11.495,27,38,-53,4,-1,0,29,-12
11.5,-2,-74,-22,8,7,14,2,-9
11.505,10,68,-91,6,-2,1,5,36
11.51,7,16,-15,7,17,-5,5,-13
11.515,-17,-22,-56,-6,-5,0,-1,-3
11.52,-25,-25,53,-22,-5,-10,-24,-22
11.525,-4,-6,38,-9,4,-14,-16,45
11.53,-10,16,79,28,-22,-14,-14,-25
11.535,-16,-23,-77,-63,-24,-6,-10,-20
11.54,12,26,15,19,23,9,1,-6
11.545,16,22,70,4,1,6,19,6
11.55,3,42,-47,2,19,3,-2,-34
11.555,15,32,35,40,18,6,4,16
11.56,-39,-76,-52,-26,-28,-17,-16,-34
11.565,-2,8,17,-1,10,15,9,-7
11.57,-33,-25,40,-22,-14,-12,-19,-7
11.575,19,23,39,-13,3,6,10,1
11.58,8,28,1,4,-1,2,8,2
11.585,5,-5,7,34,-3,-8,-1,-15
11.59,13,25,-9,-2,11,1,-1,6
11.595,-3,8,-42,17,4,-3,2,-14
11.6,6,21,-37,-7,8,16,13,3
11.605,3,-9,-24,-7,-9,-4,-3,-4
11.61,2,12,-24,14,5,-2,0,-3
11.615,-2,-14,40,1,-2,-3,1,12
11.62,-2,-2,51,4,3,3,-1,-19
11.625,7,-14,12,-8,-5,11,57,39
11.63,-5,4,22,-19,-26,-27,-44,-3
11.635,1,0,14,-13,-21,-8,-15,-59
11.64,3,9,-26,17,46,15,-74,-15
11.645,1,-2,23,20,25,-3,-18,1
11.65,12,15,15,12,10,13,44,21
11.655,-2,-10,7,-6,-14,-13,-17,-9
11.66,0,5,-14,-7,-18,3,69,20
11.665,6,-4,-19,-17,-14,-4,-38,-21
11.67,0,-3,17,-4,0,7,19,4
11.675,-3,-13,-25,0,3,-4,1,32
11.68,-3,7,8,11,-6,2,24,-4
11.685,1,-2,0,0,2,-1,4,10
11.69,-1,-13,-15,4,3,-4,-6,-12
11.695,-8,-24,-53,-18,-4,0,5,9
11.7,-2,-19,-14,-8,0,-2,-7,-4
11.705,5,-9,14,-3,-12,-5,-3,-12
11.71,-3,7,2,5,3,-1,-21,-17
11.715,7,14,27,12,9,3,10,16
11.72,4,30,-26,1,0,5,4,12
11.725,-8,13,-19,-14,-10,-6,-4,-8
11.73,3,0,3,4,3,2,11,-6
11.735,0,9,7,4,6,3,3,1
11.74,3,-6,1,-3,-6,-9,-9,-5
11.745,8,-18,8,2,-3,1,2,3
11.75,-16,-7,11,-2,2,5,1,3
11.755,17,11,6,1,0,2,11,22
11.76,-11,-26,0,1,0,-4,0,8
11.765,-3,17,8,-1,0,0,-8,-37
11.77,6,-5,-8,-1,1,1,5,13
11.775,-3,-19,-13,0,2,2,-10,-13
11.78,-4,-9,-2,-8,-3,-3,14,9
11.785,0,-2,0,-7,-4,-6,3,18
11.79,-19,-45,7,10,9,-4,-28,-86
11.795,4,-5,-5,-20,-6,-3,14,21
11.8,-6,5,11,51,-10,-2,-6,-10
11.805,-33,3,2,-51,-1,0,-2,-7
11.81,-2,44,35,-8,13,5,0,20
11.815,-28,-90,-70,60,-1,-4,-1,-17
11.82,52,77,91,-2,33,4,-13,3
11.825,-56,-110,-112,-50,-51,-19,-18,-20
11.83,62,45,101,-41,-21,0,18,40
11.835,-47,9,62,-10,17,6,3,1
11.84,-11,-16,-7,-16,-8,-10,-12,9
11.845,31,47,-16,31,30,6,18,12
11.85,-18,9,-27,8,8,5,-36,-21
11.855,22,28,8,18,-10,3,6,-7
11.86,-24,-44,-65,-37,-8,-6,-11,-25
11.865,11,-13,30,6,-1,2,5,3
11.87,12,2,-21,-7,-12,-6,17,21
11.875,6,27,49,26,11,3,-7,2
11.88,-8,13,33,30,-2,-1,2,-5
11.885,4,6,16,-25,-3,2,2,-10
11.89,-2,-8,-3,-14,-11,-6,1,-3
11.895,12,24,-13,-15,3,5,5,15
11.9,1,-17,-4,2,-2,3,11,11
11.905,4,0,52,40,-5,-3,-5,-4
11.91,-8,-4,-37,6,3,-1,1,-4
11.915,0,-5,13,-8,1,2,-3,-6
11.92,-5,-18,-10,3,-5,-4,-3,-2
11.925,3,-2,25,18,5,0,-5,2
11.93,-5,1,0,-8,-16,-2,3,0
11.935,0,-5,-8,2,0,-4,-3,-5
11.94,0,-9,17,-3,17,1,-2,5
11.945,-2,-2,13,23,15,8,3,-2
11.95,-3,4,-28,6,0,-3,2,5
11.955,2,1,6,-17,-13,3,4,-1
11.96,5,-9,4,-12,-12,-7,8,4
11.965,5,12,-5,10,4,13,49,40
11.97,-6,-10,-10,7,-9,-34,-56,-16
11.975,-5,2,-3,-14,-4,-9,-32,-44
11.98,-1,3,-18,-10,0,4,9,-2
11.985,3,4,16,7,-1,1,-11,5
11.99,-5,-21,-5,8,0,7,31,3
11.995,-4,1,-17,-9,-2,-2,6,4
12,-5,-9,7,4,-6,0,-10,-4
12.005,-4,8,-2,-9,-8,-6,-8,-10
12.01,-1,5,2,13,11,10,15,11
12.015,-3,-22,33,16,5,-4,-6,0
12.02,10,47,-27,-4,-6,0,0,-9
12.025,2,0,-4,-4,-3,-9,-13,2
12.03,-1,32,14,5,-2,7,13,11
12.035,0,-21,-6,-8,-1,-2,3,9
12.04,1,2,-10,-2,-5,0,1,-5
12.045,-15,-34,-5,-3,0,0,-9,-27
12.05,13,31,-6,-1,-1,-4,-7,-3
12.055,-4,-6,16,-1,2,4,13,10
12.06,-17,-77,4,-8,-7,-10,-17,-14
12.065,25,91,-11,2,1,-3,-3,0
12.07,-24,-106,-19,-8,-1,4,5,8
12.075,2,16,15,3,-2,-4,-6,-5
12.08,-2,-12,-37,-17,-4,-3,1,7
12.085,2,-6,4,1,1,-1,-2,-4
12.09,1,-4,-8,-3,-1,1,2,-5
12.095,4,12,-5,1,-4,-1,-2,-4
12.1,1,3,3,5,0,-1,-4,0
12.105,-3,-16,8,-1,-4,-3,-8,-14
12.11,0,23,-13,-4,1,-2,-5,-2
12.115,-2,2,-32,-16,-4,-1,-4,-1
12.12,4,18,11,-1,-1,1,2,5
12.125,-4,-12,-12,-4,-1,-1,-1,8
12.13,2,-5,9,7,2,-1,3,-3
12.135,-1,-2,-5,-2,-1,-3,-3,8
12.14,-4,12,17,1,-1,-2,3,0
12.145,-3,-4,17,3,3,0,-1,2
12.15,1,-3,1,-3,-3,0,4,5
12.155,5,8,3,3,1,9,-5,2
12.16,0,6,-3,1,0,-3,6,-2
12.165,-8,-8,-30,-4,-6,-16,-18,-7
12.17,0,3,2,-1,1,2,-1,-5
12.175,-2,-1,-3,-6,-4,-6,-5,-3
12.18,-2,-3,7,3,0,5,0,0
12.185,-1,4,0,-3,-3,4,3,2
12.19,-3,-4,3,-3,-1,-2,-2,-3
12.195,0,2,-22,-6,-2,-1,2,-3
12.2,-1,3,0,0,0,1,6,8
12.205,-1,-4,-4,-4,-4,-4,-5,-15
12.21,3,2,-7,-4,-2,4,52,36
12.215,-11,-11,1,-2,-1,-11,-91,-77
12.22,3,6,-7,-3,-4,-7,2,9
12.225,3,11,-4,-9,-6,-5,-15,7
12.23,-1,33,-14,12,6,7,11,-8
12.235,15,-1,-1,2,2,-1,38,30
12.24,-5,-12,-21,-3,-3,-5,-21,2
12.245,30,75,36,-6,-2,4,21,14
12.25,-5,-6,21,4,1,1,-24,-17
12.255,-3,2,-8,-1,7,8,18,-2
12.26,9,76,31,23,8,5,-31,-7
12.265,2,-8,-26,-49,-19,-9,32,16
12.27,-13,-12,4,5,13,3,-33,-15
12.275,10,14,36,4,-8,-2,13,6
12.28,-4,-36,-23,53,29,12,20,-5
12.285,-18,-53,-49,-40,-36,-11,-17,-23
12.29,10,12,15,-10,-4,-7,-6,15
12.295,-4,-2,-32,-11,0,-1,-3,-1
12.3,4,65,44,-20,-2,5,11,15
12.305,-7,-15,10,39,10,0,1,-2
12.31,-5,-12,-20,1,-9,-7,-7,-11
12.315,-2,0,7,3,3,0,15,12
12.32,-17,-36,7,-2,-8,-4,0,-9
12.325,-3,3,-9,12,8,1,-17,0
12.33,-3,1,-1,-35,-10,-6,-6,-15
12.335,1,3,22,8,1,0,1,11
12.34,-10,-12,-31,-22,-10,-4,1,-7
12.345,-5,-18,11,6,10,4,-4,-6
12.35,3,-16,10,21,3,0,0,1
12.355,11,67,6,-1,-5,-3,5,5
12.36,-1,-24,-17,-15,-10,-6,-3,-9
12.365,-6,-4,3,14,7,4,4,2
12.37,3,8,-9,-7,-1,-1,2,4
12.375,-6,-16,-3,6,-2,-2,-1,-1
12.38,4,-8,4,-17,-6,-4,-2,-3
12.385,-6,-28,1,14,7,2,-5,-2
12.39,-2,1,-9,2,-5,-4,-7,-2
12.395,-10,-33,-17,-10,-4,-2,0,-2
12.4,0,-17,-17,-1,-3,0,0,1
12.405,-3,-13,-4,-2,1,-1,-2,-3
12.41,-2,-6,-5,2,-1,-1,0,-2
12.415,-3,-9,-1,-2,-3,-2,4,3
12.42,4,-4,5,-3,-2,-2,0,0
12.425,-1,4,16,6,5,3,-1,-1
12.43,0,-2,-9,10,0,0,1,-1
12.435,-4,-6,-23,-3,-2,-1,2,1
12.44,2,4,4,-5,-4,-1,10,1
12.445,-2,8,-6,-7,0,0,-15,-5
12.45,1,3,23,10,1,2,9,1
12.455,-2,-11,2,5,-2,-3,-4,1
12.46,3,-2,13,2,-2,5,4,1
12.465,-3,2,-33,-12,0,3,20,-3
12.47,0,-7,1,-3,0,-3,-6,-15
12.475,13,14,8,1,-2,-11,-9,4
12.48,-6,-2,10,4,3,-3,-8,17
12.485,22,11,25,9,0,4,1,-33
12.49,-15,4,-25,-11,1,0,2,-5
12.495,-6,-7,33,3,0,4,13,0
12.5,1,-5,-7,-3,-2,-4,-7,7
12.505,-11,-1,13,7,0,-2,2,17
12.51,2,-29,-6,-3,-1,-3,-4,-8
12.515,-6,2,-2,2,0,-1,-5,-5
12.52,-2,-8,-36,-5,0,-3,0,-2
12.525,-1,-11,2,-5,-4,-6,-4,4
12.53,-3,-23,-21,-15,-9,-4,-8,-4
12.535,-7,-4,-12,-12,-1,2,2,-6
12.54,14,36,-11,3,-4,-2,-4,-6
12.545,0,7,22,-5,0,-6,-3,7
12.55,2,10,-49,-12,-6,-4,-8,0
12.555,-20,-35,-3,-1,-2,4,11,2
12.56,-3,-18,-16,-17,-8,-7,-9,-4
12.565,-3,3,15,7,5,-1,-4,7
12.57,4,8,15,2,0,-3,12,13
12.575,2,2,-11,-11,-8,-7,-19,-9
12.58,-13,-21,36,18,7,5,7,-20
12.585,3,-24,-29,-6,-4,4,4,10
12.59,4,-5,18,12,7,6,17,46
12.595,-2,-19,-19,-14,-5,-3,24,1
12.6,-9,2,18,5,1,-1,-14,-8
12.605,-13,-25,-6,-6,-2,-2,4,-3
12.61,4,21,-1,4,0,-4,-12,2
12.615,1,-9,6,7,3,8,7,17
12.62,-9,-4,13,-2,-2,-4,0,-6
12.625,-5,3,-4,7,3,1,-6,5
12.63,5,11,10,-1,-2,6,59,22
12.635,-6,6,-28,-8,-6,-19,-92,-63
12.64,4,1,-10,-9,-3,0,-6,-8
12.645,5,12,-12,-3,-1,-2,1,2
12.65,-5,2,14,-3,-3,-1,0,-16
12.655,2,-7,-7,-1,2,2,14,9
12.66,-14,-2,-25,-2,-1,0,1,-8
12.665,7,9,10,4,-3,-3,-6,-6
12.67,-1,0,-6,-3,2,-1,-19,-10
12.675,-17,9,-4,-3,2,2,8,12
12.68,-1,-5,-10,-4,0,-4,-7,-13
12.685,-3,-2,-4,-1,-1,-2,8,15
12.69,5,-5,3,-2,-4,-5,-15,-18
12.695,6,3,5,4,0,0,1,-15
12.7,8,7,8,1,-2,0,8,4
12.705,-6,7,0,-5,-4,-4,-7,-5
12.71,0,4,0,-1,0,1,-8,-2
12.715,2,-16,-22,-5,-3,-3,5,14
12.72,-6,-18,24,-4,-2,-2,-8,-7
12.725,2,25,-19,1,-1,-3,-6,-9
12.73,-14,-6,7,-4,-6,-5,-15,-6
12.735,6,21,10,7,-1,-1,7,3
12.74,8,8,-11,-5,1,-1,4,8
12.745,-13,-17,21,-5,1,3,6,-9
12.75,-8,-23,-31,-2,-1,-1,-9,-3
12.755,10,2,7,13,-6,1,2,-1
12.76,9,10,-5,6,9,6,11,5
12.765,0,12,-28,9,-12,-4,-2,-5
12.77,5,11,6,-54,-20,-8,-6,-10
12.775,-4,3,71,0,5,4,8,7
12.78,3,0,-41,8,-2,-5,2,3
12.785,-17,-32,32,-11,8,6,-11,-12
12.79,-5,6,8,14,8,1,0,-15
12.795,3,-17,-10,-6,3,1,-1,5
12.8,0,-8,35,-12,-11,-4,6,7
12.805,9,10,-11,4,3,0,2,-1
12.81,-7,-4,-4,14,0,1,-3,-4
12.815,-5,6,10,-3,1,0,4,1
12.82,0,1,-6,7,3,-1,-6,1
12.825,10,4,6,8,-3,0,0,0
12.83,1,-4,6,-6,-1,-1,-3,7
12.835,-1,-5,-22,-2,0,-1,2,0
12.84,-1,-6,-15,-9,-3,0,-2,-7
12.845,-1,-2,-2,-7,-7,-5,-3,0
12.85,-2,9,16,14,6,4,4,0
12.855,-1,1,-13,-3,-1,-1,-2,-2
12.86,1,-2,42,15,1,0,-1,2
12.865,-1,-1,23,0,-1,-1,1,1
12.87,-1,-8,-9,3,2,1,-2,-2
12.875,0,-2,-9,1,-3,-3,-3,2
12.88,-2,-4,0,-4,-3,-3,-2,1
12.885,1,8,-1,5,4,2,6,1
12.89,1,31,-9,11,-4,-6,-7,-2
12.895,3,0,3,-16,-7,11,5,6
12.9,-5,-4,5,-6,-9,-15,22,5
12.905,-1,1,-18,5,7,-3,-23,-24
12.91,-1,-13,31,19,22,1,0,1
12.915,0,13,-16,2,0,2,-1,3
12.92,2,13,-34,-13,-2,2,6,9
12.925,0,-8,-11,-19,-15,-12,-12,15
12.93,-8,-8,18,6,-9,-2,42,12
12.935,-7,-5,-37,-13,-5,-9,-89,-37
12.94,2,8,24,-3,-2,4,-23,-44
12.945,-1,-1,10,2,-5,-3,8,1
12.95,-2,-12,-8,0,0,-1,-11,15
12.955,-2,11,-27,-17,-4,2,40,17
12.96,-6,-14,-12,-1,-3,0,11,19
12.965,-7,-12,-7,-1,1,-1,-26,-30
12.97,8,7,-4,-1,-3,-1,-2,-2
12.975,-1,53,10,-9,-6,-6,22,11
12.98,0,-37,-46,-10,-1,4,28,29
12.985,-12,-1,18,-5,-1,-7,-68,-57
12.99,-1,7,-22,-16,-9,1,4,-5
12.995,0,-39,8,19,4,-4,15,-13
13,-4,4,25,14,0,0,-3,3
13.005,-4,-21,-23,-10,-4,-2,23,25
13.01,-5,-18,-26,-11,-5,2,0,-12
13.015,-7,-4,-8,5,1,-5,-25,-15
13.02,-4,-1,2,4,3,0,-7,4
13.025,-2,-31,-11,-3,3,8,24,13
13.03,2,-7,-2,-2,-4,-5,-20,-16
13.035,5,8,4,4,4,4,25,11
13.04,-9,-1,6,-4,-2,-2,-13,-2
13.045,-5,-2,-2,0,0,1,14,16
13.05,7,35,1,2,0,-2,-7,1
13.055,6,-6,7,-3,-1,1,2,6
13.06,8,18,-2,-2,0,3,-1,-4
13.065,-3,16,-19,0,1,-4,0,13
13.07,-3,-12,26,8,11,2,1,-2
13.075,-6,29,27,-19,-7,-2,0,5
13.08,9,-30,-27,18,7,6,-4,-7
13.085,-11,2,10,-2,-23,-10,14,-10
13.09,4,-9,25,-46,-7,0,2,16
13.095,5,-26,7,4,10,-1,-1,0
13.1,3,12,32,19,0,-3,-5,0
13.105,17,23,-27,24,14,5,10,5
13.11,-6,-20,-20,13,3,0,-7,-9
13.115,-1,5,13,-1,-2,-1,-2,-3
13.12,2,20,11,-1,3,2,1,-1
13.125,-9,-2,-6,2,0,3,6,2
13.13,-8,1,-2,-6,-9,-4,-6,-6
13.135,3,-23,-6,2,-4,-2,3,5
13.14,-2,-1,-13,-4,-5,-6,-8,-5
13.145,4,-2,15,-11,-1,3,5,3
13.15,2,-6,-3,-3,-1,-4,4,4
13.155,-2,-11,-32,6,-5,-5,-16,-11
13.16,-7,-10,6,-10,-3,-1,0,-6
13.165,4,16,15,1,2,0,1,3
13.17,0,4,-20,-2,-2,-1,1,2
13.175,-2,-6,8,6,-3,-2,1,-3
13.18,-4,8,-7,-13,-1,-3,-6,-4
13.185,3,-4,11,1,1,1,3,9
13.19,4,-7,5,9,-7,-4,-6,0
13.195,-6,2,-40,-15,-11,-4,0,1
13.2,-7,-3,-11,-29,2,0,-5,3
13.205,-2,-1,10,10,4,-2,2,1
13.21,-7,-10,-10,2,5,3,-2,0
13.215,-4,-8,25,6,1,-2,3,-5
13.22,0,0,36,15,-5,-5,-9,-1
13.225,8,21,-2,-20,-22,-3,0,-2
13.23,-4,-5,2,16,-4,1,-2,-6
13.235,-5,-8,-5,-19,16,5,0,12
13.24,-2,-1,-8,12,19,1,1,-11
13.245,-3,-9,-20,-8,-4,6,14,3
13.25,2,2,-20,-6,0,-6,1,5
13.255,-3,2,1,17,-7,-13,-39,-20
13.26,6,26,-23,-11,-5,0,4,29
13.265,-2,-5,13,-1,5,1,-3,-24
13.27,-1,-5,-22,-15,-7,8,29,12
13.275,5,0,29,11,3,3,17,15
13.28,-8,-5,11,2,-3,-3,-8,-33
13.285,3,-7,4,-4,-1,5,39,19
13.29,-7,-7,-7,-7,-6,-11,-50,-20
13.295,4,-4,16,14,4,3,21,15
13.3,0,-5,-12,1,-4,0,-4,-11
13.305,-2,-4,16,5,-2,2,24,37
13.31,-5,1,14,0,1,-6,-16,-71
13.315,-2,-5,-6,-2,-3,3,-1,9
13.32,4,-9,-7,0,-5,3,24,29
13.325,-10,17,-2,0,2,-15,-33,-15
13.33,9,-4,-4,-14,-4,-6,-43,-6
13.335,-2,0,-8,-4,-1,2,4,-5
13.34,-12,-42,-9,2,0,7,14,8
13.345,-1,-10,5,5,5,-5,-21,8
13.35,0,1,3,7,-1,1,12,15
13.355,2,26,-11,-9,-6,-5,1,-13
13.36,-2,-32,12,2,-1,-1,-5,-7
13.365,0,-6,-25,-7,-1,-2,4,0
13.37,-9,-15,7,-7,-4,-6,4,4
13.375,11,23,18,10,3,8,0,-17
13.38,1,21,-9,0,-4,-6,-1,1
13.385,-1,-8,0,-1,-1,-2,-15,-9
13.39,1,12,10,5,6,6,11,-1
13.395,0,-4,10,1,-4,-3,-3,3
13.4,4,12,-7,-12,-8,-8,-14,-12
13.405,0,7,10,5,2,1,-6,-12
13.41,-2,5,1,9,1,4,9,6
13.415,-6,-9,3,4,5,0,5,0
13.42,0,13,-16,-21,-5,-2,-6,-5
13.425,-12,-49,-1,-3,-12,-2,-8,-12
13.43,0,1,4,-1,4,0,8,13
13.435,-4,-7,-17,11,-10,-4,-5,-1
13.44,-2,5,6,5,4,-2,-7,-3
13.445,0,-3,1,-1,5,-2,-2,-1
13.45,-2,-1,-2,-5,-1,0,3,4
13.455,-5,-8,-10,-5,-2,-3,-3,1
13.46,2,4,5,-1,0,1,0,-4
13.465,14,14,-7,8,-2,2,2,7
13.47,-27,-7,-3,4,-3,-1,0,-5
13.475,-4,-6,3,-10,-2,-2,-3,0
13.48,-3,-2,4,3,-1,0,-1,-9
13.485,0,9,-3,-13,-2,-1,-4,-2
13.49,11,1,4,0,-1,1,3,8
13.495,-9,-9,1,-3,-3,-2,-1,-3
13.5,-6,3,-16,-9,-6,-2,1,2
13.505,4,6,1,1,2,0,1,-6
13.51,1,-1,-5,4,-2,-4,-5,-1
13.515,-4,-9,5,-5,0,0,2,-3
13.52,3,5,0,1,-2,-2,-3,1
13.525,-5,0,-7,-2,1,2,1,-1
13.53,4,13,10,-1,1,0,3,4
13.535,2,1,-7,-5,-4,0,-2,1
13.54,-2,-4,6,1,5,9,14,1
13.545,-4,-21,-4,-4,-4,-9,-18,-2
13.55,0,4,3,-3,-1,-6,-13,-10
13.555,1,-3,17,3,0,-1,2,-11
13.56,-1,-9,-2,-5,-3,-12,-29,-4
13.565,-2,-2,9,-6,-4,2,8,5
13.57,2,-5,-7,0,-1,2,-2,-26
13.575,-3,6,-7,-6,-3,-1,-8,-1
13.58,1,-2,-8,2,0,0,10,4
13.585,-3,1,-3,-3,0,1,5,-3
13.59,1,-2,-5,1,1,-4,-14,7
13.595,4,3,2,3,3,-1,8,3
13.6,0,7,6,3,-3,-5,-6,-4
13.605,-1,2,8,9,3,1,-1,1
13.61,3,1,-13,-7,-4,4,8,9
13.615,-7,-12,-3,-1,-1,-1,-3,-3
13.62,-2,5,5,3,0,-1,-1,7
13.625,3,4,-2,-4,0,0,15,5
13.63,-4,-10,2,-5,-4,-6,-50,-15
13.635,2,1,6,-1,-1,-5,-13,1
13.64,8,16,2,1,1,3,9,26
13.645,-12,-2,-18,-6,-4,-3,-15,-30
13.65,10,-11,13,1,1,5,29,21
13.655,-6,-9,-19,-1,-5,-6,-2,-16
13.66,3,-1,4,0,3,3,-9,5
13.665,9,23,20,8,0,3,56,24
13.67,-2,2,-17,-4,-4,-9,-36,5
13.675,1,-6,-14,-8,-2,1,3,3
13.68,-1,-12,-37,-8,-4,3,47,20
13.685,-13,-11,-3,-7,-6,-17,-104,-95
13.69,5,0,20,9,6,14,102,56
13.695,-7,-1,-7,-5,-4,-14,-57,-57
13.7,-7,-10,7,5,-1,3,-5,-17
13.705,-4,-2,-32,-11,-3,1,14,29
13.71,19,9,-10,-6,-3,-2,2,13
13.715,-1,3,12,-1,0,-1,4,-9
13.72,-5,-11,7,8,1,3,2,-5
13.725,1,-20,10,5,0,2,9,26
13.73,-4,3,9,1,-4,-3,-11,-34
13.735,-5,6,-5,-4,-1,4,34,26
13.74,3,-10,-4,-3,-5,-9,-27,-15
13.745,-3,-3,-4,-2,0,1,4,16
13.75,-7,2,5,0,-1,-4,-3,-7
13.755,10,21,6,0,1,1,-4,7
13.76,-6,8,-3,-9,-7,-5,2,-3
13.765,-14,-42,3,-6,-1,0,5,4
13.77,-1,2,-1,1,0,-3,-11,-28
13.775,2,-8,-18,-4,-2,0,3,0
13.78,0,0,2,4,3,-1,-8,-3
13.785,4,12,-11,-1,1,2,10,3
13.79,-22,-37,0,-10,-7,-7,-11,-8
13.795,0,-8,0,1,0,0,4,16
13.8,-4,3,-7,-11,-4,-8,-14,-15
13.805,23,29,10,4,0,-3,-4,5
13.81,0,10,-6,4,3,4,4,2
13.815,-5,-4,-1,0,0,-2,0,-1
13.82,12,2,7,4,-5,-1,3,3
13.825,-5,-9,-4,3,1,-2,-4,-6
13.83,-3,18,5,-4,-3,2,-3,0
13.835,1,-9,4,-17,-2,3,15,7
13.84,-4,-3,-1,7,2,1,-3,2
13.845,-2,1,-6,21,-7,-6,-6,-5
13.85,-2,-7,-8,1,3,0,-2,0
13.855,6,-3,-8,1,-13,-4,-4,0
13.86,-2,-1,5,-4,3,0,3,6
13.865,-2,5,2,-9,4,5,5,-2
13.87,0,-1,0,16,2,0,-1,7
13.875,-8,1,11,-2,2,-8,-14,-12
13.88,-2,-1,-9,3,0,-2,-6,-6
13.885,-1,-12,17,-19,-6,-1,2,0
13.89,2,8,-4,-3,0,-1,1,2
13.895,-3,-4,-3,6,0,1,4,9
13.9,-5,-5,-1,-21,-6,0,0,-2
13.905,3,11,-9,5,5,2,-2,1
13.91,-1,-3,0,-10,-2,-1,0,-2
13.915,0,0,3,9,2,-1,1,8
13.92,-3,-5,-2,7,-2,-3,-2,-5
13.925,2,8,1,-7,1,1,-1,-3
13.93,-2,0,-9,-9,-6,-4,-3,3
13.935,-7,-18,3,5,-1,0,3,-1
13.94,-2,5,1,3,0,-2,-3,-5
13.945,0,8,-7,-5,-2,-5,-3,-1
13.95,-4,-8,1,6,-3,-3,1,-4
13.955,5,6,-4,-6,2,4,6,3
13.96,-4,3,-2,-5,-2,-4,-11,-18
13.965,-3,-17,-15,1,-3,-5,-6,-2
13.97,1,3,-2,-10,-5,2,4,3
13.975,-1,1,-14,-3,-2,4,14,5
13.98,0,-12,14,7,0,-13,-23,-2
13.985,1,8,-11,1,1,1,-10,-2
13.99,-3,-2,3,2,3,1,1,1
13.995,0,-6,-2,-4,0,0,-16,5
14,14,14,-7,-3,-3,0,4,4
14.005,-6,5,13,-9,-5,-2,4,2
14.01,1,5,1,1,0,-1,8,7
14.015,-1,-3,11,7,2,5,12,19
14.02,-14,-10,0,0,-1,-4,-28,-54
14.025,1,2,-5,-6,-2,0,-3,12
14.03,-2,-11,-12,0,0,-2,8,4
14.035,-1,2,-17,-4,-2,-3,-4,-21
14.04,1,2,0,-6,-2,0,9,37
14.045,1,-6,4,1,1,3,8,-9
14.05,-10,-4,-18,-4,-2,-2,-8,-14
14.055,8,1,-6,4,4,-1,-2,8
14.06,-1,13,32,-1,2,6,10,11
14.065,-1,5,5,1,-1,-1,1,-1
14.07,2,-7,7,-6,-3,-6,-4,8
14.075,-4,-4,-17,-6,-3,-8,-7,-8
14.08,1,2,-13,-4,-5,3,17,14
14.085,-2,-3,1,9,1,-2,-3,-8
14.09,3,6,14,7,6,3,1,3
14.095,1,6,12,-6,-3,-5,-7,10
14.1,-3,-5,0,4,1,2,7,-28
14.105,-1,-6,10,-1,-2,-3,-21,1
14.11,4,-16,-4,0,-1,-3,-4,15
14.115,-9,16,-1,-1,0,4,8,-12
14.12,0,-10,11,2,-4,-10,-2,5
14.125,-1,4,-15,-5,-2,0,9,6
14.13,-3,-3,-4,-4,-2,2,-12,-24
14.135,-3,-14,4,-2,-2,-2,-2,6
14.14,2,14,-14,-3,0,-2,-6,-2
14.145,-10,-21,-5,-2,1,5,12,-10
14.15,-1,-5,-5,2,-1,-2,-2,0
14.155,-5,-18,18,3,-2,-1,7,1
14.16,-4,-3,-9,-3,3,5,5,3
14.165,1,3,-9,0,-3,-6,-8,-7
14.17,-5,-1,10,-2,-1,-1,-2,-1
14.175,3,-6,-6,0,-5,-3,-10,-11
14.18,-13,-35,-20,-7,6,2,1,0
14.185,15,19,11,0,-3,0,2,8
14.19,-4,1,-4,10,1,-4,-3,-18
14.195,0,13,-4,-10,-2,2,3,8
14.2,0,-22,6,-7,-10,-4,-4,4
14.205,-5,-28,-25,-14,-4,-1,-1,-6
14.21,3,7,-3,-9,3,1,3,3
14.215,5,45,-7,12,-7,-4,-4,-9
14.22,-9,-20,14,3,4,4,5,3
14.225,-1,7,13,4,3,0,-2,0
14.23,3,14,10,20,-3,-1,-4,1
14.235,-7,-28,-32,-7,2,1,-5,-2
14.24,-1,10,-2,-27,-8,-5,-7,-4
14.245,2,26,16,17,1,-1,5,-3
14.25,-1,-12,-3,10,7,2,3,24
14.255,-3,7,-5,-19,-7,-4,-3,-5
14.26,0,9,-11,11,-4,-1,1,3
14.265,0,-4,-12,-11,-1,-1,0,-2
14.27,-3,-2,1,-11,-1,0,-1,-9
14.275,0,-3,9,2,-1,-2,-2,-3
14.28,5,14,-2,-6,-5,0,3,5
14.285,-6,-19,-4,19,11,-2,-2,3
14.29,-3,0,-5,-4,-5,-2,-7,-11
14.295,-1,-11,9,-3,1,-1,-1,0
14.3,0,14,5,-7,-3,-2,0,-1
14.305,-2,-3,3,5,-3,-1,0,3
14.31,-2,2,-6,-8,-4,-1,1,-6
14.315,0,-3,15,5,0,1,2,0
14.32,2,9,4,13,4,0,0,-3
14.325,-1,-1,-8,-11,-4,-1,4,4
14.33,0,1,-5,-6,-1,-2,-7,-4
14.335,-4,-2,6,-1,2,-3,-1,-8
14.34,2,0,3,12,4,8,9,-3
14.345,-1,-12,9,-3,-1,2,1,1
14.35,-4,-1,6,-7,-6,-5,11,11
14.355,5,1,20,14,4,-2,-5,-16
14.36,0,-5,-12,-5,-2,-4,-10,-16
14.365,-4,11,-7,-9,-3,-1,-3,-7
14.37,-7,-3,5,6,1,5,-13,-4
14.375,9,1,3,3,0,-2,-3,-10
14.38,4,4,4,4,0,5,21,23
14.385,-6,-8,-19,-7,-6,-8,-15,-11
14.39,-3,-4,-30,-13,-6,-8,-9,-11
14.395,-8,-3,-10,-2,1,4,-2,0
14.4,7,-11,-21,-8,-4,-9,-18,-8
14.405,2,-1,-4,-1,-2,2,8,12
14.41,2,1,4,4,-1,1,8,16
14.415,-7,-3,-11,-4,-3,-4,-12,-26
14.42,-5,-3,-6,2,-1,-2,4,-4
14.425,-2,8,21,1,-3,-4,-13,-32
14.43,2,-4,-19,-6,-1,-1,5,-6
14.435,-2,-4,-1,-2,-2,-1,4,14
14.44,-5,-10,-32,-8,-4,-5,-6,6
14.445,2,6,6,4,1,0,1,4
14.45,-1,0,8,0,0,-4,-5,-6
14.455,-8,-10,-19,-7,-7,-4,-6,-10
14.46,-1,8,8,1,2,1,3,7
14.465,-4,-12,-16,-1,-4,-5,-4,-2
14.47,3,16,12,-14,-7,0,7,26
14.475,-1,-3,-1,2,3,-2,-2,2
14.48,-5,-4,16,2,0,0,3,-10
14.485,7,10,6,1,4,12,22,30
14.49,-5,-2,19,12,0,-10,-14,-27
14.495,0,-6,-19,0,1,8,17,35
14.5,-8,-11,9,-7,-4,-20,-34,-36
14.505,-2,-9,5,2,-2,7,38,31
14.51,8,3,-6,9,1,-6,-52,-21
14.515,5,-12,-21,-23,-5,-1,12,0
14.52,-5,-10,-18,0,3,8,21,23
14.525,-5,5,0,-1,-1,1,42,26
14.53,-5,-14,-7,2,-5,-6,-67,-64
14.535,-7,2,0,1,3,0,-2,-25
14.54,4,-1,6,6,3,4,-3,13
14.545,-3,-3,2,-4,-5,-4,-11,-9
14.55,2,5,-3,2,1,6,40,19
14.555,9,18,22,5,1,-3,-14,-31
14.56,2,14,6,-1,0,2,24,5
14.565,-4,-10,0,12,3,-3,-57,-14
14.57,-3,8,4,11,5,7,39,11
14.575,-2,23,37,23,-1,-2,-10,5
14.58,-3,-7,-77,-72,-10,-4,-8,2
14.585,-2,4,-1,-11,-4,-4,-3,-10
14.59,7,-2,0,-8,1,0,1,4
14.595,-8,-24,2,23,2,1,5,0
14.6,1,9,20,-3,-5,-2,3,-4
14.605,-9,6,-9,7,0,-8,-12,1
14.61,-1,1,-7,-8,-3,0,9,2
14.615,-3,5,5,-2,0,-1,11,22
14.62,-8,-9,23,20,-1,-1,-11,-24
14.625,-6,-21,-8,-4,-2,0,-13,-22
14.63,-4,-1,0,15,-1,0,8,5
14.635,4,11,-26,-19,-4,-4,-3,0
14.64,14,45,38,17,-3,2,-2,11
14.645,7,18,49,8,6,-1,-1,-5
14.65,-8,-25,-48,21,-1,-3,9,1
14.655,6,6,-50,-23,-5,-4,-2,12
14.66,-11,-24,-12,-26,1,0,-3,-1
14.665,1,3,-10,-14,-12,-7,0,-14
14.67,5,9,40,-21,2,3,9,16
14.675,-8,-8,51,60,12,1,-5,-13
14.68,3,3,-47,32,4,3,1,3
14.685,2,-11,-14,-20,6,0,3,1
14.69,-4,-3,15,-2,-5,-2,-1,-1
14.695,0,8,21,-10,-2,2,1,1
14.7,-1,-11,13,11,-2,-1,3,-8
14.705,5,4,-12,5,-3,-1,0,6
14.71,-3,-6,-12,-18,-6,-3,0,2
14.715,1,-6,33,10,2,2,5,8
14.72,-2,-3,-12,10,-3,-4,-2,-2
14.725,-6,-11,27,-12,-7,-3,-6,-1
14.73,1,10,0,-1,2,0,0,-8
14.735,-1,-9,-41,-36,-5,0,0,1
14.74,-2,-5,13,-1,-3,-4,-2,10
14.745,-3,6,-5,9,1,0,-1,27
14.75,-13,-7,44,18,0,0,1,-12
14.755,-1,-6,-34,-11,-4,-1,5,6
14.76,0,0,22,-22,2,10,25,23
14.765,-7,0,-33,21,-6,-18,-23,-9
14.77,-7,-5,34,-27,0,-2,-15,1
14.775,0,0,-44,-25,-8,-5,2,-4
14.78,-3,4,24,1,-2,0,10,3
14.785,1,-5,-38,18,-2,4,-8,-16
14.79,-4,-8,-17,0,-2,-2,1,10
14.795,-1,-4,2,6,1,-1,-7,4
14.8,-4,-5,5,9,11,7,12,-7
14.805,2,-1,13,-7,0,-9,-4,-1
14.81,2,-1,-49,-8,-7,-4,-6,-11
14.815,-3,-3,-22,-18,-6,-1,2,4
14.82,0,-6,7,10,-1,-2,-15,-8
14.825,1,2,11,-6,-1,3,8,-14
14.83,0,0,-13,-9,-5,-7,-1,2
14.835,-4,-4,18,4,-3,-4,-3,0
14.84,0,4,-7,1,-3,-6,-7,9
14.845,6,-6,-9,-20,-5,-5,-20,-52
14.85,-1,-2,-4,2,2,3,13,1
14.855,2,4,12,8,2,5,4,14
14.86,1,-5,-7,4,-2,0,0,10
14.865,-2,-5,0,-9,0,4,4,19
14.87,-7,-15,3,-8,-4,-1,47,-38
14.875,-1,-2,-3,-1,-1,-5,-34,-5
14.88,-3,-3,-19,-7,-3,-10,-57,-20
14.885,0,-10,-23,-6,0,6,29,48
14.89,2,-3,0,5,1,-3,8,6
14.895,-7,-2,16,4,0,-8,-25,-25
14.9,2,7,-24,-6,-3,-3,5,7
14.905,-2,-6,16,6,3,7,-5,-4
14.91,5,18,-8,-5,-1,4,-5,23
14.915,-1,-16,-8,-8,-5,0,29,15
14.92,0,19,10,4,1,-1,-11,-15
14.925,-2,4,8,-3,0,-2,3,-6
14.93,2,-1,-9,1,-1,2,-2,10
14.935,3,6,21,13,5,1,-2,-8
14.94,-8,-25,12,0,-4,-3,6,-10
14.945,10,38,-1,1,1,5,13,6
14.95,-1,10,10,-1,0,-5,-9,10
14.955,3,13,-12,4,-3,-8,-17,-9
14.96,-8,-13,44,3,4,5,10,0
14.965,-1,-5,1,4,-2,0,6,2
14.97,10,18,6,3,3,-1,-22,-3
14.975,7,53,12,-2,0,7,18,6
14.98,-13,-47,-26,-4,-5,-5,4,-5
14.985,-5,-2,-1,-4,-3,-5,-8,-9
14.99,0,-14,11,0,-4,-5,-8,-16
14.995,27,20,22,4,3,1,-2,35
15,-11,-7,-15,-1,1,-1,-5,-25
15.005,-11,2,-3,-1,-2,-5,-6,-10
15.01,-1,-47,-17,-4,0,3,0,3
15.015,-17,-37,-13,-10,-4,-1,4,-13
15.02,20,19,7,6,-6,-3,-2,7
15.025,-4,-11,-1,-9,5,-3,-4,-3
15.03,-14,-18,-15,-2,-13,-5,1,-2
15.035,-2,-30,-1,9,1,1,3,-11
15.04,2,72,16,-6,3,1,3,12
15.045,-9,46,-1,-5,6,1,-2,-14
15.05,-10,-56,-49,-19,-10,-1,1,8
15.055,-21,-81,-16,-6,-5,-6,-5,-9
15.06,-3,-13,-13,15,-1,-6,-7,-8
15.065,17,79,109,42,6,6,4,3
15.07,23,-13,-83,-26,11,3,9,12
15.075,-17,-28,4,-15,-17,-11,-22,-11
15.08,17,59,19,-7,-3,-1,2,-5
15.085,-6,-30,-14,16,0,-2,-1,2
15.09,1,38,61,16,3,2,-1,-5
15.095,-7,32,-19,-2,5,4,9,2
15.1,2,-45,-70,-25,-10,-7,-2,-1
15.105,0,-4,6,-13,-6,-1,-1,4
15.11,3,25,45,18,3,-3,-8,-8
15.115,-3,3,-34,-5,-1,-2,4,-1
15.12,-7,-2,23,-5,-4,3,0,-3
15.125,3,-39,-31,-2,1,-4,-1,-7
15.13,-9,7,-11,-3,7,-2,-6,2
15.135,9,3,26,10,4,2,3,0
15.14,-5,-15,-5,2,-3,-2,3,4
15.145,-2,-13,-5,-15,-13,-4,-1,-2
15.15,5,8,44,18,-2,-1,-3,-1
15.155,2,20,13,0,3,3,2,1
15.16,-12,-6,3,3,3,-1,-2,0
15.165,5,-15,-14,-5,7,6,3,5
15.17,-3,13,37,4,-2,0,-1,-2
15.175,2,-9,-37,17,-7,-5,-2,-4
15.18,5,-7,-16,-6,1,8,15,6
15.185,-3,-22,-21,-2,-6,-9,-14,-1
15.19,-2,9,16,4,0,4,2,6
15.195,-1,6,-3,-15,-4,-6,9,-1
15.2,1,-1,19,10,3,-8,-21,-16
15.205,-2,-7,-20,-6,-2,4,15,7
15.21,-9,-15,5,11,2,3,15,2
15.215,-6,-6,0,-3,-2,-7,-16,1
15.22,2,14,25,3,5,6,2,6
15.225,4,-16,1,4,-2,-6,-6,-1
15.23,-6,0,-7,-7,-3,-4,-17,-12
15.235,-1,0,17,3,1,7,12,5
15.24,-4,-10,-25,-8,-5,-6,-5,7
15.245,-5,-7,52,5,1,3,3,-6
15.25,2,3,-34,-5,0,6,3,-1
15.255,0,10,30,2,4,0,-2,0
15.26,-1,-2,-25,-5,-2,-3,10,-12
15.265,-3,-2,6,2,0,6,12,9
15.27,-2,-4,-10,-19,-12,-16,-2,-5
15.275,2,-4,-9,-8,0,2,13,4
15.28,-1,-17,10,5,3,2,-8,-15
15.285,-5,-3,-40,-8,-4,-7,0,13
15.29,4,-8,-25,-3,-1,4,5,-5
15.295,3,18,-2,-5,-1,-3,-36,-35
15.3,15,-14,1,4,0,3,50,53
15.305,-18,28,-6,-18,-6,-13,-50,-31
15.31,-4,47,-25,-9,-6,-4,-30,-38
15.315,11,-27,28,6,1,5,4,-6
15.32,-4,5,11,-2,-1,0,12,18
15.325,2,-26,5,-4,0,-3,-7,-10
15.33,11,28,30,14,5,5,8,32
15.335,-1,8,-6,1,0,2,12,11
15.34,-8,4,-3,1,-4,-6,-23,-27
15.345,0,-4,3,-3,-4,-1,6,12
15.35,-10,-14,-2,-5,1,2,2,-5
15.355,-5,-7,-8,-1,-3,-4,2,-2
15.36,-5,26,14,7,6,0,-10,-6
15.365,4,9,-10,-2,-5,1,3,-13
15.37,5,-22,3,-21,-2,0,8,12
15.375,12,58,4,6,-1,-3,-3,2
15.38,-9,-24,-1,1,0,-4,-12,-7
15.385,-3,-25,-17,-8,0,-2,1,2
15.39,6,-57,6,2,-4,1,5,-2
15.395,-10,-15,-13,-8,3,-2,1,-2
15.4,2,3,-8,4,5,6,2,-1
15.405,-3,-16,6,7,-3,0,6,-2
15.41,3,17,4,20,-9,-4,-4,-1
15.415,-4,-19,-26,-4,1,1,-4,0
15.42,0,-3,6,-6,-2,-1,1,-3
15.425,2,17,-13,-5,5,0,0,2
15.43,-8,-5,-1,3,1,-6,-7,-8
15.435,0,12,11,1,0,1,3,5
15.44,-3,-2,-4,-3,-3,-5,-8,-7
15.445,2,-2,3,-2,-8,-2,2,4
15.45,-4,5,-11,-4,3,-2,-1,1
15.455,-7,-17,2,5,0,-1,2,-3
15.46,0,-12,-5,-5,-4,-3,-6,-1
15.465,1,-3,9,4,1,0,2,-2
15.47,-3,3,-8,-1,-1,-2,-1,1
15.475,12,20,0,-4,-1,3,2,3
15.48,2,0,6,4,-3,-1,-3,0
15.485,-2,8,0,0,1,2,3,-2
15.49,-6,4,-2,1,-1,-1,0,0
15.495,-6,-15,9,2,-1,-2,-4,1
15.5,-2,-2,-33,-15,-5,-4,-3,-5
15.505,0,-6,-17,-5,-1,0,3,1
15.51,-3,0,-7,-9,0,-3,-5,-1
15.515,-4,-10,11,-3,-5,-2,-1,-2
15.52,2,9,10,15,-2,0,0,-1
15.525,-3,-6,-1,1,4,1,-2,-2
15.53,-2,-4,7,3,-5,1,10,2
15.535,-3,-2,-29,-14,-6,-3,-9,-1
15.54,-4,-21,7,2,5,-1,12,-8
15.545,0,4,16,4,3,-10,-32,-4
15.55,-12,2,-27,-4,-3,-1,-9,-15
15.555,1,4,14,4,-3,-3,-2,6
15.56,-1,-7,-6,-10,-5,3,5,9
15.565,5,4,-7,3,0,7,16,2
15.57,2,-27,-10,7,0,1,10,33
15.575,-3,-4,9,-9,-5,-2,-21,0
15.58,-1,-1,4,5,0,-7,-1,10
15.585,-1,1,14,9,1,-7,-8,-8
15.59,4,19,5,-10,5,-3,-9,19
15.595,-5,2,-8,0,1,0,15,-6
15.6,-2,-6,-25,-11,-5,1,2,-18
15.605,-1,-11,20,4,-4,6,15,17
15.61,1,4,-2,-8,-4,-4,5,-9
15.615,-10,-7,-8,-1,-1,-2,-1,10
15.62,18,17,43,10,2,-2,-1,0
15.625,-3,7,-28,-4,-5,-2,-22,-2
15.63,2,14,-20,-5,1,2,-5,-3
15.635,-11,-13,12,-4,-2,-1,9,-28
15.64,-2,-6,21,1,-2,1,-2,29
15.645,-3,-1,-30,-20,-5,-1,14,-18
15.65,4,-3,24,12,1,0,7,3
15.655,1,-9,7,8,0,-2,-6,10
15.66,-5,-9,-18,-10,-2,5,39,19
15.665,5,6,-14,-3,2,0,18,-19
15.67,-3,33,2,1,-5,0,-14,-35
15.675,-7,-13,-2,-7,-1,-3,-19,-35
15.68,2,2,-1,-4,1,-2,-28,-12
15.685,-9,-15,-10,-3,-2,-3,18,24
15.69,-8,-47,4,2,-1,-10,-13,-17
15.695,-1,14,16,7,2,4,8,13
15.7,10,7,-3,-2,-3,-2,-5,-2
15.705,-3,-6,-5,-5,-4,-1,-14,-2
15.71,10,42,5,4,2,3,15,25
15.715,-4,2,0,1,-2,-5,-4,-3
15.72,-14,-22,-9,-4,-1,-5,-19,-27
15.725,4,11,10,1,0,2,11,10
15.73,-1,-15,1,-2,-2,-1,-5,3
15.735,10,4,-6,2,-1,2,9,6
15.74,-1,13,-7,-7,-2,2,-2,-2
15.745,7,23,-4,2,1,-2,-8,-4
15.75,-20,-40,7,2,-4,-3,0,-8
15.755,22,42,3,-3,9,1,0,6
15.76,-26,-23,-18,-17,-22,-8,-5,0
15.765,11,76,29,0,0,3,-5,-2
15.77,-16,-68,-3,0,1,3,3,1
15.775,-3,6,-21,-1,-2,-5,5,0
15.78,-1,17,13,23,8,1,-4,-2
15.785,-5,-36,-27,-11,-1,-3,-3,-1
15.79,23,95,32,0,-3,1,5,5
15.795,0,-36,-27,-23,-8,-2,-1,-1
15.8,-5,-9,21,13,10,0,-4,-14
15.805,-7,-25,6,6,-5,-1,-3,1
15.81,5,5,9,-6,-4,-5,-2,11
15.815,0,-6,-6,12,-1,1,5,3
15.82,-1,-11,13,-9,0,-2,-8,-5
15.825,-6,-9,0,-1,-3,-2,-4,-26
15.83,1,-11,-3,4,10,2,-4,3
15.835,-1,13,-11,-6,-11,-4,-2,6
15.84,0,4,-12,7,0,-3,2,1
15.845,-1,-13,3,7,2,3,-1,2
15.85,-2,-8,-14,-3,3,-1,-3,-7
15.855,-7,-10,6,-3,-1,2,-2,-6
15.86,4,8,6,-10,-3,-3,-1,-2
15.865,-2,-16,1,0,-3,-4,-2,-1
15.87,-2,3,-10,0,-4,-1,-4,-14
15.875,0,-12,-15,6,0,-1,1,10
15.88,-1,2,2,0,-2,-3,-4,-5
15.885,2,14,-3,-1,-1,1,2,2
15.89,-7,-14,-16,-7,-4,-2,-1,-8
15.895,-2,-7,8,4,5,2,-1,-8
15.9,3,1,6,-3,-1,1,-2,0
15.905,-3,-6,-12,-3,-1,-1,0,0
15.91,0,-4,6,4,-2,-7,-13,-5
15.915,1,4,22,-2,-2,4,6,-1
15.92,0,5,-13,-2,1,-1,-3,0
15.925,-3,-8,-10,3,0,1,-1,7
15.93,-4,-10,-24,-6,-5,-10,-5,2
15.935,1,0,13,5,4,5,8,-6
15.94,-3,5,25,6,1,5,21,47
15.945,10,-9,8,-6,-2,-5,-21,-69
15.95,-3,-4,-6,-9,-2,2,-2,10
15.955,-2,2,3,-4,-4,-2,-3,22
15.96,2,-2,-18,-13,-2,-1,1,0
15.965,-11,-18,-12,4,-2,-3,4,17
15.97,3,7,-19,-9,-1,2,2,-7
15.975,-1,-5,1,-1,-3,0,0,-7
15.98,4,1,1,-3,-4,2,1,-27
15.985,-3,0,-13,-3,-8,-12,-10,17
15.99,-14,-4,-3,-13,-4,-2,-1,-13
15.995,-2,-2,2,1,0,-11,-20,6
16,-2,-8,-4,0,-1,-1,-8,-8
16.005,1,3,18,11,4,9,14,12
16.01,1,-6,27,2,1,2,8,-4
16.015,-1,-7,-12,-16,-2,0,-2,0
16.02,2,-10,-21,0,-2,1,0,-4
16.025,-1,0,12,0,2,-2,15,5
16.03,3,2,10,1,0,1,2,4
16.035,-3,-6,7,-7,-4,-7,-31,-9
16.04,1,-4,-25,-10,-3,-4,-12,-9
16.045,0,21,-25,-15,-5,4,7,7
16.05,-6,-21,5,5,4,4,13,-10
16.055,-4,-19,-3,13,0,-1,9,-4
16.06,6,34,-7,1,-1,-1,4,9
16.065,-2,0,12,-2,-2,0,-18,-2
16.07,1,4,5,3,-2,-6,-22,-27
16.075,3,-7,2,-1,-2,-1,8,4
16.08,1,16,8,10,2,1,2,-10
16.085,-7,-22,20,6,3,2,-2,14
16.09,20,8,-12,0,-4,-1,4,14
16.095,2,38,-5,-12,-4,-3,7,-2
16.1,-8,-11,-8,-3,-4,-4,-12,-19
16.105,3,5,11,1,-2,-4,-3,-7
16.11,-10,-5,-15,2,3,3,4,5
16.115,-9,-23,15,7,0,-1,0,-16
16.12,2,0,7,2,5,1,6,10
16.125,1,12,-22,5,6,-4,-7,-3
16.13,-7,-18,20,-16,2,3,-2,-2
16.135,-3,8,9,11,-17,-2,10,-8
16.14,-3,-29,-33,-8,2,0,1,9
16.145,8,-9,5,-18,-7,-5,-3,1
16.15,8,46,21,22,7,3,7,-8
16.155,2,3,5,3,15,13,20,16
16.16,26,67,95,12,11,6,6,16
16.165,-10,-26,-101,-8,-13,-8,-2,-2
16.17,-17,-38,-11,-53,-17,-10,-10,-2
16.175,1,-11,-6,-2,1,-5,-2,0
16.18,6,26,53,17,-3,0,1,-1
16.185,-4,4,-23,2,12,6,3,0
16.19,5,11,19,14,1,2,4,11
16.195,-6,-18,-4,-2,2,-2,-3,-6
16.2,-7,-33,-46,-8,2,-5,-4,-3
16.205,0,44,24,34,13,3,-6,-21
16.21,-2,-46,-31,-55,-32,-4,-1,9
16.215,16,49,55,-16,-1,-1,0,3
16.22,-7,-13,-40,18,-1,-9,-2,-5
16.225,-4,-7,16,-10,5,1,5,-6
16.23,0,6,14,26,7,4,-3,-3
16.235,2,-28,-33,-28,0,2,-4,-1
16.24,-9,-14,5,-5,-8,-1,0,-12
16.245,-2,-12,23,1,0,-1,-1,2
16.25,7,10,-7,7,3,-3,-2,3
16.255,-11,-14,-21,3,-7,-5,-13,1
16.26,-7,-16,-6,1,-5,1,-4,-4
16.265,4,4,32,-11,-13,-3,-1,5
16.27,4,13,-11,20,8,1,5,4
16.275,-3,1,1,20,7,-4,-5,-15
16.28,-8,-28,-28,-26,-8,-7,-4,-1
16.285,-2,-4,8,-8,-5,-5,-17,1
16.29,-3,3,-22,13,-3,-1,-3,-13
16.295,-2,0,3,-3,3,15,14,5
16.3,-3,-1,-2,-4,-1,-5,22,2
16.305,3,5,12,-10,-5,-15,-41,-16
16.31,-26,-64,-44,-11,2,0,-7,-4
16.315,-3,-4,-7,-5,-7,-6,-12,-6
16.32,2,3,-2,0,-3,10,15,7
16.325,-9,-4,10,2,0,4,12,7
16.33,-1,-37,20,21,12,1,1,3
16.335,-3,7,-19,-4,-1,3,5,-1
16.34,-2,7,5,1,-5,-14,-14,-17
16.345,-10,-16,-30,-25,-9,-7,-13,-8
16.35,3,10,0,3,-1,-4,0,1
16.355,-5,-16,-3,-4,1,0,1,-2
16.36,-4,3,-6,-12,-5,-9,-10,-3
16.365,-5,-19,-2,21,0,-1,3,-8
16.37,2,27,19,0,0,2,6,6
16.375,3,9,-9,-4,-5,-3,-3,4
16.38,-2,-8,1,8,4,1,-3,-12
16.385,3,2,8,-1,-6,-1,3,8
16.39,-1,8,2,2,-4,-1,-5,-2
16.395,-7,-11,15,9,-2,-5,-5,9
16.4,4,4,6,-5,-1,0,-6,4
16.405,-3,-18,-20,-5,13,17,21,22
16.41,0,18,6,2,-4,-10,-32,-31
16.415,-6,-24,-7,-2,-6,2,11,17
16.42,4,39,8,2,-3,-21,-38,-33
16.425,5,-24,17,3,1,11,33,39
16.43,6,17,-3,3,5,3,6,14
16.435,2,0,-21,-3,-3,-3,-11,-8
16.44,1,-18,-23,-12,-4,6,12,27
16.445,2,14,-5,0,-6,-6,0,-20
16.45,-2,2,5,-2,-2,-6,-13,-15
16.455,4,23,-3,1,1,2,11,8
16.46,-7,-17,7,1,-5,3,-1,15
16.465,-12,-23,-20,-7,0,-3,9,-11
16.47,1,1,10,5,4,5,13,12
16.475,6,8,-3,-7,-4,-9,-17,-13
16.48,-13,-22,-6,8,8,7,3,2
16.485,2,10,-5,-4,-8,-4,-4,-17
16.49,3,10,-4,-6,-4,-5,1,47
16.495,0,11,9,4,-1,-2,5,-4
16.5,-3,-5,6,-5,-1,-1,-25,-13
16.505,5,5,1,2,-1,-1,5,24
16.51,-7,-13,-5,1,-1,2,8,3
16.515,2,4,-2,-2,0,-4,0,-1
16.52,-1,-10,1,-2,0,4,6,-7
16.525,-2,2,3,-2,-3,-2,-8,3
16.53,3,9,-3,-1,-3,-7,-3,-2
16.535,-1,-7,-4,6,2,0,-12,-4
16.54,-2,-2,-2,-5,1,8,12,-9
16.545,6,26,-9,0,-1,-3,-4,1
16.55,-9,-14,4,-7,-4,4,-4,-13
16.555,1,9,-7,6,-3,-3,5,-12
16.56,-9,-29,11,3,2,-1,6,13
16.565,11,36,7,2,-2,-10,-12,-4
16.57,2,-6,-19,-6,-6,-3,3,-10
16.575,5,6,-3,-23,-19,-10,-2,6
16.58,-6,-17,-3,6,4,4,-2,-4
16.585,4,-4,8,13,10,5,9,-6
16.59,-23,-22,-9,4,18,2,-14,-17
16.595,-6,-28,-4,4,-35,-7,5,-7
16.6,0,12,-6,-4,0,1,5,-3
16.605,-6,-11,3,9,-3,-3,-5,5
16.61,13,10,1,-15,5,-1,0,0
16.615,-4,-10,3,8,15,4,1,-4
16.62,-1,15,-24,-10,-4,-5,-25,-12
16.625,-5,-25,14,21,12,6,3,-2
16.63,4,17,-6,-17,-21,-1,11,4
16.635,-5,1,-13,-3,2,-3,-3,-5
16.64,4,2,-3,-38,-9,-7,2,2
16.645,-3,9,8,-6,10,6,-4,-9
16.65,0,-2,57,61,0,1,7,0
16.655,-5,1,-92,-86,0,-3,-6,-2
16.66,0,-6,-9,-38,-11,-3,1,4
16.665,0,0,37,21,-11,-3,-4,6
16.67,1,9,27,32,8,4,7,4
16.675,0,-8,-18,23,6,0,-7,-7
16.68,2,8,30,13,4,-2,0,-2
16.685,-9,-25,-93,-57,-11,-13,-1,-6
16.69,5,14,30,19,0,0,-1,0
16.695,-2,0,39,16,11,0,-5,-7
16.7,1,-8,-25,-18,-5,3,4,5
16.705,5,0,22,33,-7,-5,0,6
16.71,-2,24,69,14,8,0,1,-22
16.715,-1,7,17,53,12,4,-11,-9
16.72,-16,-56,-84,-70,-21,-14,-17,-15
16.725,5,30,-22,-45,-10,-1,36,11
16.73,3,-16,-43,-32,-3,1,7,41
16.735,8,7,58,4,3,11,117,30
16.74,1,16,80,94,9,-11,-41,5
16.745,13,12,64,60,19,30,95,23
16.75,-18,-15,-88,-50,-16,-27,-119,-96
16.755,-11,-3,2,-67,-16,-16,-3,-53
16.76,17,22,16,75,12,17,92,89
16.765,-12,-12,-57,1,-6,-7,-7,-2
16.77,19,11,-13,-62,-5,26,127,127
16.775,-7,-22,-45,55,-3,-19,-128,-5
16.78,-25,-2,-44,-41,-14,-21,0,-101
16.785,13,10,3,-32,-8,-8,-48,-38
16.79,-4,-14,26,57,9,7,56,64
16.795,-1,-8,-27,10,0,4,-17,-60
16.8,15,26,34,26,8,7,-17,51
16.805,-8,10,21,14,4,9,76,45
16.81,-6,-22,-59,-43,-13,-14,-98,12
16.815,-10,-6,20,-25,-1,-4,-93,-79
16.82,1,6,14,18,-1,1,-5,-2
16.825,-9,-28,-30,-6,1,-2,-29,-33
16.83,6,8,-3,4,3,-4,2,-15
16.835,8,49,55,2,0,2,40,121
16.84,-13,-38,-24,-20,-4,-2,-16,-16
16.845,-8,-27,-36,-10,-8,-6,-33,-41
16.85,-5,-16,8,3,6,0,11,2
16.855,4,-3,-6,27,7,7,24,23
16.86,9,-2,4,-30,-18,-1,8,18
16.865,-3,-31,8,-15,0,-2,-31,0
16.87,4,22,29,41,-3,-2,59,4
16.875,7,17,-39,-15,14,-3,-41,-61
16.88,0,-4,-16,-17,-9,3,-3,12
16.885,-14,-24,-28,-58,-9,-11,-15,12
16.89,3,14,-10,-15,-4,-6,-14,-27
16.895,-5,-23,53,33,1,7,59,82
16.9,-1,28,30,44,17,2,-18,-47
16.905,13,49,-26,-17,-5,-2,-15,31
16.91,-3,20,28,20,6,2,-18,-51
16.915,-8,-3,-31,-19,5,4,22,25
16.92,-12,-50,57,-6,-11,-10,-5,12
16.925,-13,-33,-59,-7,-27,-7,-3,-5
16.93,-7,-24,42,-13,-6,-8,-29,-17
16.935,9,-16,68,16,16,10,20,23
16.94,18,49,-36,14,-2,-2,21,30
16.945,-6,1,44,37,29,10,-26,-23
16.95,-4,-73,-113,-13,0,8,-5,-15
16.955,-11,15,17,-57,-35,-9,-5,-13
16.96,-6,4,10,25,-15,-2,10,-1
16.965,-1,23,85,-5,5,-3,-2,22
16.97,8,53,6,40,10,-2,-3,-2
16.975,-3,-2,-38,1,16,1,6,-7
16.98,-1,-12,-39,-34,-12,-6,-7,-10
16.985,5,10,13,-1,-3,0,4,-2
16.99,-6,-6,5,-5,-4,-2,-5,-11
16.995,2,-8,9,15,-6,-5,6,8
17,5,9,14,0,13,4,9,5
17.005,-3,-15,7,37,1,1,-1,-10
17.01,-5,-14,-12,-63,-10,-1,-8,-4
17.015,-8,-11,-4,3,-16,-10,-4,-1
17.02,7,12,-5,6,14,9,6,34
17.025,-4,-6,6,-21,-5,-4,-9,-33
17.03,-2,3,-10,3,-4,-1,6,10
17.035,6,3,-2,4,-4,6,52,33
17.04,1,6,13,-10,7,10,34,24
17.045,2,-8,7,30,0,-4,32,29
17.05,-4,-16,-48,9,-6,-5,-56,-8
17.055,-10,-18,-10,-41,-9,-16,23,-8
17.06,-5,-4,-12,-15,1,-1,-10,-59
17.065,-4,-12,-16,-7,-4,0,-21,-22
17.07,13,25,20,21,3,21,127,77
17.075,-6,-8,33,58,6,-16,-115,-67
17.08,-7,-17,-49,-70,-4,-7,-6,-38
17.085,-2,-9,-22,-48,-3,-5,-1,24
17.09,-9,3,-3,-18,-5,-8,-24,-50
17.095,11,-6,-1,6,5,9,18,31
17.1,4,9,26,26,-2,-1,3,28
17.105,-3,22,45,58,1,1,-21,-75
17.11,2,-21,42,54,9,6,8,12
17.115,6,15,-80,-103,-21,-3,51,31
17.12,-11,-4,18,22,-1,-11,-70,-23
17.125,3,3,4,-11,0,4,71,15
17.13,2,9,52,47,10,4,-59,-9
17.135,6,15,32,43,12,5,7,2
17.14,3,-25,13,-10,2,3,-1,-10
17.145,15,62,49,16,3,10,29,53
17.15,3,7,-3,-1,4,-5,35,25
17.155,-11,-1,-21,-8,-5,-6,32,29
17.16,-6,-51,2,-2,2,-3,25,31
17.165,-12,-25,20,2,4,1,-22,-25
17.17,8,-3,-8,-24,-8,3,63,61
17.175,-4,10,-5,-5,0,8,-14,-18
17.18,1,66,41,29,2,-3,-11,-4
17.185,-2,-99,-17,2,-2,-6,1,11
17.19,-3,18,20,-19,-8,-9,-15,39
17.195,5,32,50,23,4,4,-6,-8
17.2,3,0,-20,27,0,-1,-10,-15
17.205,-5,-18,13,-9,0,7,5,26
17.21,-28,-57,-69,-57,-8,-8,-27,-31
17.215,5,-4,3,26,5,2,-21,-6
17.22,4,8,4,-2,1,4,24,28
17.225,1,17,-54,-5,-19,-12,-21,-5
17.23,2,-32,39,3,2,-2,-19,-37
17.235,8,74,32,38,18,11,16,8
17.24,-6,-91,-100,-35,-31,-12,-1,-12
17.245,10,42,14,-13,-1,-4,-8,10
17.25,0,-1,72,24,13,1,-11,-31
17.255,13,37,-15,-16,7,5,4,-16
17.26,-4,-25,-16,-8,-17,-1,12,24
17.265,0,19,43,26,2,-2,-15,-17
17.27,11,34,-33,-11,11,13,14,21
17.275,-26,-69,-72,-18,-23,-18,-12,-9
17.28,-5,36,84,-23,-3,2,2,-8
17.285,0,-3,17,1,2,1,1,3
17.29,14,52,58,19,7,4,-5,-17
17.295,-7,-49,-55,-41,3,0,-8,-1
17.3,-7,-12,-42,25,1,-6,-8,-15
17.305,-2,-4,-11,-20,2,3,0,5
17.31,-6,-5,-15,0,-9,-9,-11,-15
17.315,-3,-29,3,9,-7,-1,-2,-8
17.32,3,15,25,8,7,4,6,7
17.325,5,21,27,14,7,-3,-1,10
17.33,-7,-6,-41,6,-9,-2,-1,22
17.335,-6,-16,-13,-27,-10,-1,-3,-14
17.34,5,22,42,13,8,1,-2,0
17.345,-5,-25,-96,-6,1,10,33,30
17.35,-6,-18,-52,-67,-19,-4,79,-1
17.355,-10,-14,60,26,0,-26,-98,-91
17.36,0,12,-1,11,19,8,38,-14
17.365,1,0,1,-22,-8,-9,-3,-18
17.37,0,-6,-10,9,-8,0,19,1
17.375,-3,-12,2,24,8,11,19,41
17.38,0,-10,12,-16,2,0,-16,-48
17.385,-9,-16,-64,-21,-9,1,53,56
17.39,-1,20,16,3,-4,-10,-103,-78
17.395,5,9,38,22,-2,0,30,-45
17.4,-1,-6,-23,-62,-5,-8,-6,54
17.405,-10,-12,35,35,7,-4,-61,-96
17.41,-10,-39,-69,-42,-10,-9,-5,14
17.415,-3,-15,10,-16,-5,0,6,30
17.42,-2,13,7,15,-2,-2,-13,3
17.425,6,9,30,25,5,-4,76,43
17.43,-7,-27,30,42,9,5,-52,-36
17.435,8,14,-44,-19,-3,6,43,4
17.44,2,11,-36,-31,-8,0,-10,-17
17.445,-4,-24,-17,-33,-8,-15,-6,28
17.45,-3,0,24,16,-4,-6,-91,-24
17.455,-1,8,17,23,2,7,45,47
17.46,6,-1,-7,13,5,11,14,20
17.465,-2,8,-16,-7,-1,-7,-37,-22
17.47,0,17,-4,0,-2,-2,43,32
17.475,-2,-3,1,-7,-4,-4,-30,-16
17.48,4,6,-8,-2,3,-2,-1,-5
17.485,-3,1,10,3,-4,3,-26,-8
17.49,4,15,5,-5,-4,-16,-5,0
17.495,-1,10,-28,-16,4,9,3,12
17.5,-2,-13,18,19,2,1,5,-4
17.505,-13,-8,15,2,4,11,14,12
17.51,1,12,-3,-9,-10,-12,21,1
17.515,4,2,23,-3,-3,-2,-1,14
17.52,2,11,-3,14,3,-9,-16,1
17.525,0,4,-10,1,-2,1,-27,-20
17.53,0,2,0,-24,-1,2,16,0
17.535,-1,-6,-8,2,-4,-4,-13,6
17.54,-2,-1,0,11,14,7,6,4
17.545,2,3,-5,5,-21,-8,-8,1
17.55,-2,-6,-15,-16,6,0,16,-3
17.555,7,22,58,17,8,6,9,14
17.56,-15,-30,-52,-6,-6,-9,-9,-8
17.565,4,8,27,-26,0,1,-6,-11
17.57,6,10,35,9,1,3,8,11
17.575,-13,-42,-75,-22,-6,-7,-11,-9
17.58,4,7,54,12,1,0,5,3
17.585,0,-3,-20,2,4,-3,-10,-5
17.59,-1,2,23,6,-4,4,12,8
17.595,0,-4,11,-3,3,-2,1,12
17.6,-1,0,-5,5,0,0,1,-1
17.605,2,-5,-14,-9,-5,-3,5,23
17.61,-8,-3,1,1,4,5,-3,-58
17.615,-2,-7,4,7,0,0,1,-4
17.62,0,-7,-17,-5,-7,-5,2,2
17.625,1,1,27,-1,1,-4,-3,3
17.63,-2,-12,-28,3,4,2,-1,20
17.635,0,-5,16,4,-4,4,3,-6
17.64,-3,3,23,1,-4,-3,1,-5
17.645,1,3,18,21,7,-3,-19,-11
17.65,-2,-17,-53,-4,-5,3,15,15
17.655,-2,-2,-10,-49,-10,-16,-12,-8
17.66,0,2,18,1,0,3,-16,1
17.665,0,5,6,9,1,10,26,-4
17.67,4,12,40,34,6,0,-13,7
17.675,-3,0,50,36,3,-12,-41,-9
17.68,-2,2,-52,-55,-2,-1,5,-1
17.685,-2,-3,-3,-12,-6,-7,-14,-8
17.69,-1,4,-21,-2,-1,5,17,3
17.695,4,16,23,19,2,4,13,2
17.7,-6,-1,-23,-16,-1,-3,-5,-3
17.705,1,0,-14,0,-2,2,1,-2
17.71,-5,7,-22,-13,1,-1,9,7
17.715,-3,1,-21,5,-7,-6,-1,-3
17.72,3,4,41,40,3,1,-2,2
17.725,-2,7,-14,-17,0,4,3,-13
17.73,5,2,10,-6,-3,-7,-5,5
17.735,-8,-5,-39,-20,1,1,2,1
17.74,-1,-3,14,12,0,3,7,-4
17.745,0,3,-9,-5,-1,-2,-7,0
17.75,0,5,23,11,-1,-4,-6,-2
17.755,2,1,-6,-9,-7,2,4,2
17.76,1,-1,7,-8,1,0,4,2
17.765,-1,-5,-24,4,3,-3,-4,-2
17.77,-3,-11,-4,-1,-6,-4,0,2
17.775,-2,-6,-7,5,5,2,5,2
17.78,-2,1,-20,-3,-5,-3,-11,-11
17.785,-2,1,22,5,0,-4,-5,1
17.79,-7,-10,-2,-7,-6,-5,-7,-8
17.795,-1,-4,-8,-4,-1,-3,-1,-5
17.8,3,1,14,10,-1,-2,2,2
17.805,1,5,10,0,5,5,2,-2
17.81,0,-4,-4,-9,-4,-3,-2,-3
17.815,1,-2,7,6,2,0,1,5
17.82,2,4,-4,-2,-4,-3,-1,0
17.825,-3,-7,0,3,0,-1,0,1
17.83,-2,-2,-13,-9,-3,0,1,-3
17.835,-1,-1,2,-4,-2,0,-1,2
17.84,-1,-1,-8,-7,-3,-1,1,1
17.845,-3,-6,-7,-8,-2,0,-4,-5
17.85,-1,1,5,7,3,2,-1,0
17.855,-3,-12,2,-8,-1,-2,-5,0
17.86,-3,3,-4,9,-2,0,0,1
17.865,-1,-4,3,2,-4,-5,-2,-2
17.87,0,-2,-1,-6,-1,-3,-2,-2
17.875,1,0,-9,-14,-7,0,4,0
17.88,-2,-10,-22,-6,0,-1,-1,-2
17.885,-4,-4,-4,-3,-3,-3,-1,0
17.89,-3,-2,1,5,1,-2,-8,-4
17.895,-1,-1,1,3,-1,2,8,-3
17.9,-3,-13,3,4,3,0,-3,-1
17.905,-2,12,2,-5,-2,0,1,-1
17.91,0,-4,-16,-8,-3,0,-1,-2
17.915,0,-4,-3,2,-2,-3,-3,-1
17.92,-4,-9,-2,0,-1,-1,0,-4
17.925,4,6,-10,-3,-1,-2,-3,0
17.93,-3,2,13,-2,-1,0,0,-2
17.935,0,1,2,1,1,-3,-5,2
17.94,-1,3,1,-2,-4,0,0,-2
17.945,2,3,-8,-9,-1,-1,-3,-1
17.95,0,16,-2,7,3,-1,0,0
17.955,-7,-2,17,1,1,2,1,-3
17.96,1,4,5,-3,-2,-2,1,1
17.965,-1,-7,0,-3,1,0,-4,-2
17.97,-2,-10,0,3,-1,0,0,-4
17.975,0,3,-1,2,-2,-2,-2,-2
17.98,-1,0,6,0,-1,-3,-1,0
17.985,-2,-4,4,-3,-3,0,0,0
17.99,-2,-7,-1,-4,1,1,3,-2
17.995,1,2,-6,-1,-3,1,0,-5
18,-3,-3,4,-1,-1,-2,1,7
18.005,-1,-6,-6,0,-1,1,6,-2
18.01,-1,-4,-2,-2,-2,-8,-12,1
18.015,-1,-1,-6,0,-2,1,-2,-10
18.02,-5,0,1,1,-2,-2,-6,-24
18.025,-1,-4,-1,2,-1,0,1,3
18.03,-2,-3,1,-2,1,2,4,2
18.035,1,-2,-10,-5,1,6,29,30
18.04,-2,2,5,-1,-3,-6,-31,-59
18.045,1,0,1,1,0,-2,38,21
18.05,-7,-8,0,-3,-4,-18,-90,-58
18.055,4,5,-1,4,0,2,2,20
18.06,-4,-1,-10,-7,-7,-7,-38,14
18.065,-1,4,4,-20,-64,-14,4,16
18.07,4,-5,-12,0,17,26,101,92
18.075,-3,-5,3,38,27,3,-46,-44
18.08,5,6,0,22,30,-2,-29,70
18.085,6,-1,-1,6,40,1,50,59
18.09,-15,-5,6,-3,-8,-24,-10,6
18.095,-4,-5,1,-18,-25,-5,88,70
18.1,2,-5,-7,0,-4,4,81,23
18.105,2,1,4,1,-15,19,16,29
18.11,2,-1,-6,-16,-37,-3,-3,-16
18.115,2,0,6,-1,12,3,-6,-31
18.12,0,6,-2,-11,-15,-3,-4,-16
18.125,-3,-4,-6,-5,19,-6,-40,-28
18.13,0,3,-2,12,32,14,12,-12
18.135,-2,0,2,4,-1,-16,-55,-25
18.14,-5,-7,10,4,-14,-6,14,17
18.145,0,-17,2,-1,-4,8,-5,-26
18.15,-12,-10,-16,-21,3,15,48,16
18.155,-4,-2,-11,-17,-12,-25,-47,18
18.16,-2,0,0,-8,0,-3,9,-15
18.165,0,1,22,7,1,-12,-109,-43
18.17,5,2,22,9,-1,4,4,6
18.175,2,3,-10,-10,-4,8,43,21
18.18,-4,-6,4,1,-3,8,26,8
18.185,-4,4,-3,-3,4,-4,7,-10
18.19,3,-4,8,8,-5,-12,-11,-2
18.195,-7,-4,4,-2,-5,-4,-12,-27
18.2,-1,-2,23,10,7,1,-38,-15
18.205,-3,5,-63,-13,-1,2,29,9
18.21,6,0,-10,-19,-4,1,2,10
18.215,-2,-1,8,7,-3,2,14,-1
18.22,2,-1,4,-5,1,3,9,-2
18.225,1,5,5,6,5,1,21,18
18.23,-2,2,2,3,-1,-1,-10,-21
18.235,1,-3,-17,-19,-1,0,-9,-7
18.24,2,-5,9,8,0,0,12,12
18.245,-8,7,-2,6,1,-6,-11,-20
18.25,-4,-3,-9,-10,-8,-9,-13,-14
18.255,-4,-1,-2,-17,-6,0,7,-5
18.26,1,-4,-14,-10,-6,1,3,14
18.265,2,4,5,5,-3,-7,9,9
18.27,1,-6,-6,12,5,1,-3,-9
18.275,1,8,18,11,-2,-1,4,-4
18.28,-3,15,-6,-5,1,7,12,1
18.285,-12,-26,25,4,2,-2,-4,-11
18.29,6,43,-5,3,-1,0,4,12
18.295,-6,-8,20,7,4,0,-6,-2
18.3,4,2,9,-8,-21,-9,-1,13
18.305,4,-1,0,-6,0,-4,-3,-11
18.31,-21,-32,7,7,5,8,6,2
18.315,0,-18,-64,-11,-10,-14,-9,-37
18.32,-33,-7,15,11,11,2,3,-7
18.325,-7,-52,-26,4,15,11,11,-1
18.33,2,36,0,9,-8,-9,-4,-20
18.335,1,0,-9,-12,-20,-1,5,9
18.34,11,8,-16,-23,-7,-6,-4,-2
18.345,4,19,5,-10,-6,-1,-2,1
18.35,-11,-37,-14,3,18,9,5,-4
18.355,-4,-6,23,30,37,6,-5,-23
18.36,6,22,-12,10,-37,-13,-7,12
18.365,-2,1,4,9,-13,-7,0,-2
18.37,7,-5,-8,5,-1,-7,-14,-1
18.375,3,79,41,-15,-7,15,12,15
18.38,11,-23,-12,6,20,8,8,-7
18.385,-9,-13,-3,-16,3,-1,-3,-7
18.39,1,-7,9,-4,-18,-13,-1,7
18.395,5,-1,20,-6,2,1,-1,7
18.4,9,22,20,2,17,1,-4,-5
18.405,-17,-25,-28,-31,-13,-4,0,-2
18.41,6,23,-44,1,-12,-7,-6,3
18.415,-5,-46,29,3,-5,-1,-1,5
18.42,-1,2,-25,-8,5,4,-1,3
18.425,0,11,61,6,1,-2,5,-5
18.43,5,9,-12,9,6,3,15,6
18.435,1,-7,95,63,5,10,-10,16
18.44,-9,-21,-58,-39,-10,-12,-4,-7
18.445,6,13,-3,-18,2,3,13,19
18.45,-2,-18,-4,-8,-13,-10,-8,8
18.455,5,12,7,5,-5,-10,-5,3
18.46,-1,3,30,43,19,17,12,25
18.465,4,5,-9,15,-7,-7,56,-22
18.47,-1,-12,25,-30,-4,-3,-14,-22
18.475,0,-5,-48,13,3,-4,18,10
18.48,-14,-11,-10,24,4,3,-61,-46
18.485,6,3,-27,-25,1,2,65,25
18.49,-16,-21,5,24,-2,-23,-86,-16
18.495,-8,-12,-29,-18,2,1,-69,-83
18.5,1,-7,13,-7,-10,-2,25,28
18.505,9,16,36,25,8,5,-26,9
18.51,7,10,61,45,-3,5,22,11
18.515,-8,-16,-57,-33,-20,-10,3,19
18.52,-8,-16,-50,-48,-3,-8,-10,-22
18.525,-1,7,33,18,10,7,-22,-8
18.53,-3,-5,-13,-1,9,0,20,16
18.535,-1,-1,-1,2,0,1,19,12
18.54,7,14,36,28,-2,2,15,4
18.545,-8,-2,-17,-30,-16,-16,-31,-10
18.55,2,-8,-7,2,-13,2,17,2
18.555,4,1,8,2,0,7,15,16
18.56,7,0,-5,-2,17,7,19,-1
18.565,-7,0,19,27,6,-4,-10,-3
18.57,2,2,-7,-21,-1,3,16,1
18.575,-4,-6,-32,-27,-9,-16,-22,1
18.58,0,0,27,1,-9,-6,-7,-1
18.585,0,-3,-22,1,-2,5,-10,-2
18.59,-1,-1,16,-8,-1,11,24,7
18.595,1,3,-15,-6,2,3,21,10
18.6,-2,-3,4,-3,2,3,12,-4
18.605,1,0,-9,3,-5,-6,-15,-3
18.61,-2,-1,-7,-8,2,-3,-6,-12
18.615,1,0,6,0,1,3,2,5
18.62,-3,-6,8,5,-3,-2,0,0
18.625,-4,0,-9,3,-5,-5,-15,-15
18.63,4,3,4,-8,1,-2,-16,15
18.635,-3,-3,-8,1,-3,-2,15,8
18.64,-2,-1,7,1,0,-1,-18,-13
18.645,-1,1,-6,-2,2,6,20,-10
18.65,-2,-2,-3,-13,-3,-19,-56,-4
18.655,-5,-5,2,2,6,8,41,10
18.66,-1,1,-4,1,-5,-1,-31,1
18.665,-5,-4,-1,-2,-2,-7,-12,-25
18.67,-3,-10,2,-3,-1,5,9,-23
18.675,2,5,-5,1,-4,1,2,8
18.68,3,4,2,-4,-3,-3,6,12
18.685,0,-2,-8,-3,-3,-1,-7,6
18.69,0,18,-2,3,4,7,22,-1
18.695,1,2,19,-1,2,3,7,14
18.7,-4,-2,-4,-3,-2,-10,-2,-26
18.705,2,0,3,4,1,0,-11,15
18.71,2,1,-11,-4,0,3,21,-9
18.715,0,-1,-5,-1,1,1,9,8
18.72,-4,-1,4,1,-2,-9,-23,-6
18.725,-2,-2,-3,-6,-4,-1,-4,5
18.73,-8,5,-13,-6,-2,-1,-4,1
18.735,-18,-15,9,1,-1,-2,2,-17
18.74,-21,-9,2,-5,-2,1,19,2
18.745,-9,-4,-6,4,-1,-4,-4,-11
18.75,-7,1,6,-4,-1,0,-2,7
18.755,-4,0,-14,-4,-6,-9,-19,3
18.76,-9,-3,-3,-4,-5,-8,7,-2
18.765,10,5,-6,-2,1,5,-2,12
18.77,9,4,-6,3,-2,-2,-3,-7
18.775,9,-10,4,-6,-2,0,-5,8
18.78,13,-6,-11,-1,-2,-2,0,18
18.785,1,-4,0,1,0,2,4,-4
18.79,7,-7,2,-1,1,1,6,8
18.795,4,6,-5,-11,-4,-5,-2,-6
18.8,1,-2,0,-1,2,-2,-3,-10
18.805,-1,-5,-1,3,-1,-1,-3,3
18.81,-1,-8,7,0,-2,-4,0,0
18.815,-1,0,17,9,2,2,10,-6
18.82,2,6,-14,-5,-3,0,-9,-1
18.825,-3,-5,3,0,-3,-6,-2,-4
18.83,-4,-2,3,-4,-1,6,4,1
18.835,-3,1,-9,0,-3,-3,-5,-3
18.84,-1,-3,3,5,-2,-1,1,-13
18.845,-8,-7,-3,-8,-6,-6,-16,6
18.85,-4,-5,-1,-2,0,5,5,1
18.855,1,-24,-27,-5,-3,-8,-10,-11
18.86,4,-12,5,-3,2,1,9,11
18.865,2,7,-3,0,-2,0,-1,1
18.87,-6,-13,0,0,2,0,3,-12
18.875,1,4,11,5,0,-2,-2,9
18.88,-3,-5,-13,-9,-6,-6,-7,-12
18.885,0,-2,2,-3,-3,-3,4,-4
18.89,7,5,-4,-3,-2,-2,-3,3
18.895,-1,13,2,5,1,2,-2,-8
18.9,-1,1,6,4,2,3,11,5
18.905,1,16,2,1,2,2,-4,0
18.91,-4,7,2,0,-2,-1,0,-8
18.915,0,6,0,-3,-2,-4,-12,-5
18.92,1,-3,-6,-4,-2,1,2,-4
18.925,2,-5,-3,-2,1,2,5,10
18.93,-2,-9,13,3,0,0,-1,-5
18.935,-1,-10,-10,-10,-2,-2,0,-4
18.94,1,-2,3,0,-3,-1,1,2
18.945,0,-11,1,3,0,1,2,-3
18.95,-2,-5,1,-1,0,0,-1,6
18.955,-2,-2,-3,-2,-3,-2,-7,-7
18.96,1,6,-3,-3,0,-2,2,4
18.965,-2,1,-5,-2,-4,-3,0,-4
18.97,1,1,8,3,-1,-1,-6,4
18.975,-1,5,-16,-7,-4,-6,0,-3
18.98,2,12,8,1,1,0,0,4
18.985,-4,4,-4,1,1,-2,-5,-4
18.99,-2,1,-5,-9,-2,-3,-2,0
18.995,-2,-4,2,3,1,2,1,-18
19,1,7,-3,-2,-2,0,0,14
19.005,-2,-2,3,0,0,-3,-6,-3
19.01,-3,-1,-6,-1,-3,-1,6,2
19.015,5,4,1,1,1,-3,-11,3
19.02,-4,3,-3,2,-2,-2,1,-7
19.025,1,7,-4,-2,-1,0,3,1
19.03,-2,2,-3,3,1,2,2,1
19.035,-1,-1,-1,-3,-1,-2,-4,1
19.04,0,-3,4,-1,0,1,2,-4
19.045,0,-1,3,-1,-1,-2,3,0
19.05,-1,1,1,4,1,-2,-1,-2
19.055,-2,-2,0,-3,-4,-5,-2,-1
19.06,-4,-4,-13,-5,-2,-4,-11,-8
19.065,-3,-2,-4,0,2,2,3,-4
19.07,0,-4,8,1,-2,-2,0,1
19.075,0,6,-11,-2,-3,-2,3,3
19.08,0,-6,6,1,-1,0,2,-2
19.085,0,-6,0,-6,-3,-1,-1,2
19.09,-1,-3,-2,-4,0,2,2,3
19.095,-2,-2,-6,-1,-2,1,5,2
19.1,-3,-8,-18,-5,-2,-4,-7,-4
19.105,0,2,7,5,1,2,3,0
19.11,-3,-3,4,-2,-1,-3,-6,-3
19.115,1,9,3,-2,-2,-1,-3,-15
19.12,2,0,13,4,1,1,5,19
19.125,-1,-5,8,0,-2,-3,0,-1
19.13,5,2,-8,-4,-2,1,0,14
19.135,-1,-3,2,2,0,1,-3,1
19.14,-3,-2,-5,-3,-2,-2,-1,-8
19.145,0,-4,-14,-1,0,1,-1,-10
19.15,-2,-4,2,-6,-3,-3,-4,-9
19.155,0,-7,-14,-6,-2,-4,2,8
19.16,-3,4,-5,-6,-5,-3,-7,-32
19.165,0,-6,-2,-1,-1,7,13,13
19.17,-2,-1,-3,0,-2,-8,-10,-9
19.175,-1,-7,12,6,2,3,12,18
19.18,-3,-8,2,-3,-2,-2,-10,-39
19.185,-4,0,-5,-2,-1,0,-6,2
19.19,-4,4,-9,-4,-3,-6,2,-11
19.195,2,-5,-9,-3,-3,0,2,12
19.2,4,1,10,1,3,3,13,15
19.205,3,4,-8,-1,0,2,6,-8
19.21,-6,0,-15,-6,-4,-5,-11,-3
19.215,-5,0,0,2,2,-3,-14,-22
19.22,-2,5,9,4,0,1,5,6
19.225,-1,-4,0,-4,-2,-4,-4,4
19.23,-3,-7,5,0,-2,-1,-3,-11
19.235,-3,4,6,0,-3,-3,-9,-3
19.24,2,5,-4,1,2,3,2,-7
19.245,-1,-6,-9,17,-4,-3,-1,-4
19.25,1,-1,-5,-10,1,-1,-4,-12
19.255,-4,1,4,2,3,3,1,3
19.26,1,-2,5,-1,0,0,3,-1
19.265,0,-3,-6,-1,-3,-2,-3,3
19.27,-1,-2,-9,13,-3,3,4,-1
19.275,-3,-5,-5,-22,-10,0,-2,-5
19.28,-2,-2,2,2,2,-4,-2,14
19.285,0,7,8,-16,-2,-6,-8,-5
19.29,0,-5,7,8,5,7,9,18
19.295,-1,0,-2,2,2,2,-5,-2
19.3,-5,-1,-12,-1,-7,-9,-6,10
19.305,-6,-17,4,-2,1,-4,-9,4
19.31,0,-2,-1,-6,-5,-9,-12,-8
19.315,-1,-4,2,6,2,0,-1,-10
19.32,-4,-6,-1,-2,-1,-1,-2,5
19.325,-4,-6,2,4,2,8,5,-1
19.33,0,-1,-5,-4,1,-4,9,23
19.335,-6,-6,-3,0,-3,-4,-15,-38
19.34,1,-4,-1,1,-1,-2,-1,5
19.345,-1,13,-3,-2,0,-3,-4,4
19.35,-3,-10,9,1,-1,3,5,10
19.355,1,1,6,8,1,0,3,11
19.36,-1,-10,-17,-11,-3,4,5,1
19.365,1,7,-5,-7,-2,-7,-11,-9
19.37,0,-4,-7,-4,-2,-2,0,3
19.375,-5,-24,-10,5,-1,-2,-8,-7
19.38,-1,-6,6,1,1,0,3,-3
19.385,1,-5,-1,0,-3,-2,5,6
19.39,-1,-3,-4,-3,0,0,1,-12
19.395,3,-11,3,2,0,0,0,10
19.4,2,3,1,3,0,2,19,18
19.405,-1,-1,7,-1,-2,-2,-15,-10
19.41,2,8,3,-1,-2,0,5,0
19.415,0,12,-6,0,2,-3,0,11
19.42,-5,0,-5,-3,-4,-2,-14,-23
19.425,-1,3,-3,-1,0,-1,7,0
19.43,-4,3,0,0,-1,2,-3,-3
19.435,4,6,4,-3,-2,3,9,11
19.44,-2,0,-9,-3,-2,-3,-3,3
19.445,-5,-4,1,2,0,0,-2,-7
19.45,2,3,11,2,-2,0,0,-2
19.455,0,5,-10,-6,-5,-5,-10,-1
19.46,-3,-10,-1,2,0,2,-7,-3
19.465,0,-1,3,2,-5,-4,-2,-4
19.47,1,3,-7,-3,-1,2,7,2
19.475,-1,0,-1,-1,-1,-5,-10,-6
19.48,0,4,1,-2,-1,-2,-1,9
19.485,1,14,-3,-1,0,3,3,0
19.49,-6,-20,8,-1,-2,-3,-6,-1
19.495,1,1,15,4,1,-2,4,-4
19.5,1,-1,-1,-2,-3,0,2,-1
19.505,-11,-25,4,1,4,3,-1,-8
19.51,3,10,-3,1,-3,-5,-9,-1
19.515,-3,-3,-5,-2,0,1,3,1
19.52,1,-5,9,-3,0,-1,-2,-7
19.525,1,0,-9,-3,-4,-3,-2,0
19.53,-1,-4,-3,-2,-1,1,0,-2
19.535,-3,-4,-3,2,0,-1,-3,-5
19.54,2,1,1,2,0,-1,-3,3
19.545,1,-4,3,-1,0,0,0,1
19.55,-1,7,-5,-12,-3,-1,0,-4
19.555,1,5,-3,-2,-3,-1,5,2
19.56,-4,1,-1,-1,-1,-1,-4,-4
19.565,2,-1,13,6,1,1,1,4
19.57,-2,-4,-5,-2,-2,-3,-1,-5
19.575,0,1,-4,-2,-2,-1,2,1
19.58,1,5,-1,-4,-3,-3,-6,-7
19.585,-4,-11,-3,-1,-1,-2,6,10
19.59,-4,-2,-3,4,1,0,-6,-5
19.595,1,1,-1,-2,0,1,2,3
19.6,2,3,-6,0,0,0,-3,-2
19.605,3,18,-6,-5,-4,-4,5,2
19.61,-6,-15,-10,0,1,-2,0,-4
19.615,3,14,-15,-6,-3,-3,-2,-1
19.62,-10,-15,-7,2,-1,0,-1,8
19.625,0,-3,-5,-3,-1,-5,-11,-4
19.63,1,-2,2,3,2,1,5,4
19.635,-1,-2,-1,0,0,-3,-6,-9
19.64,1,-2,1,-1,-2,0,2,8
19.645,-2,0,-3,-4,-1,0,3,3
19.65,0,1,-3,-3,-3,-2,-7,-15
19.655,-4,-22,2,-2,-2,-2,-1,5
19.66,0,-4,-3,2,1,2,4,-1
19.665,-1,12,-5,-4,-4,-4,-6,-6
19.67,-2,-8,-7,-5,-2,-1,-4,3
19.675,-6,-10,12,2,0,4,4,1
19.68,1,6,3,1,-2,-4,-5,-11
19.685,-3,-2,-6,-6,-1,0,-2,-3
19.69,0,5,-3,5,-2,-4,-9,0
19.695,-4,5,0,-5,-2,-1,-1,-1
19.7,-2,-6,0,-6,-1,1,4,1
19.705,1,-3,5,2,0,6,10,10
19.71,0,9,9,0,0,-10,-13,-22
19.715,-1,-8,-1,-2,0,0,3,3
19.72,1,8,3,2,0,-3,-12,-3
19.725,-5,-7,-3,-4,-2,-1,4,3
19.73,-1,4,-13,-6,-4,2,4,6
19.735,0,0,10,3,1,5,8,3
19.74,-1,2,0,-2,-3,-10,-22,-6
19.745,1,-3,1,4,0,-1,-4,-4
19.75,0,6,14,0,-2,1,0,7
19.755,4,11,-4,-2,-1,-1,-6,-2
19.76,-5,-4,-19,-4,-3,1,8,0
19.765,-5,-18,10,1,-2,-2,-1,-4
19.77,5,3,-2,1,-1,-4,-2,-4
19.775,-6,-1,0,-4,-2,0,2,0
19.78,2,2,0,-2,0,1,4,0
19.785,1,7,-9,-5,-2,-3,-2,-2
19.79,2,-6,4,0,0,5,9,4
19.795,-1,-2,2,2,-2,-2,0,0
19.8,-1,-7,-8,-3,-2,-9,-15,-8
19.805,4,-4,-1,-1,-2,-5,-20,-12
19.81,-5,-1,-4,0,0,2,9,32
19.815,-5,2,0,0,0,2,16,-32
19.82,-5,4,7,1,1,13,53,42
19.825,-9,-3,-7,-2,-4,-16,-87,-88
19.83,5,1,-1,0,2,6,36,30
19.835,-7,12,-8,-2,-2,-10,11,15
19.84,-8,-9,6,-2,-1,-6,-59,-30
19.845,10,1,-3,0,1,6,35,17
19.85,-6,-5,1,-1,0,-1,-30,-18
19.855,-1,0,0,-1,1,3,2,0
19.86,2,2,-2,-2,-2,2,35,33
19.865,2,6,0,-3,0,1,31,46
19.87,-3,-2,-6,-4,-2,-5,-33,-72
19.875,2,-6,-3,1,3,17,55,57
19.88,-5,-3,-6,-3,-5,-24,-62,-63
19.885,-7,-7,1,0,-2,-1,-43,-24
19.89,-2,3,8,1,1,2,32,18
19.895,8,-2,-8,-5,-3,0,13,15
19.9,1,-8,11,-3,0,0,-50,-34
19.905,0,0,10,5,4,23,83,-5
19.91,0,2,-1,-3,-3,-8,66,47
19.915,-20,-16,3,-3,-9,-35,-122,-105
19.92,2,-5,2,-2,-2,4,19,21
19.925,0,8,-3,-5,-3,-8,22,37
19.93,3,9,1,2,1,9,-23,11
19.935,-3,-23,18,-1,6,16,29,2
19.94,6,12,7,4,4,21,45,24
19.945,-9,-21,-2,5,-8,-30,-71,-15
19.95,12,10,-6,-3,1,11,58,72
19.955,-2,-4,-17,-5,-4,-24,-75,-72
19.96,-2,1,13,11,6,10,12,11
19.965,-1,11,-9,-6,0,2,11,21
19.97,0,-17,0,4,-4,-8,-37,-23
19.975,4,-10,-15,-6,-3,3,10,36
19.98,-3,-1,6,-4,-3,1,21,21
19.985,0,-6,-6,-7,-2,7,35,10
19.99,-14,-11,-16,-6,-6,-15,-48,-57
19.995,0,31,-4,-1,-2,-6,24,32
20,13,-14,11,7,-2,-7,-4,-38
20.005,2,1,9,6,5,8,46,61
20.01,-2,-17,4,6,1,-2,-25,2
20.015,3,9,0,-7,-1,20,86,9
20.02,-35,-8,-18,-13,-8,-21,-55,-22
20.025,26,26,15,6,1,-1,4,52
20.03,-19,-17,-3,-5,-2,-8,1,-38
20.035,-2,-3,1,1,-2,1,-6,-31
20.04,-22,-7,-28,-6,4,-1,-22,17
20.045,-4,23,-30,-10,-4,2,-8,-45
20.05,-9,-20,-6,-1,1,13,33,8
20.055,0,-4,6,4,-2,-10,-87,48
20.06,0,-7,-3,-4,-4,-6,1,-22
20.065,-10,-23,8,-1,1,-4,-12,-23
20.07,28,57,8,8,2,2,11,13
20.075,-17,-22,-6,-5,-4,-1,-8,-14
20.08,2,2,-15,-1,0,4,49,36
20.085,-14,-10,6,1,-1,-3,-22,-21
20.09,-4,2,5,-1,-2,-4,-7,3
20.095,1,11,3,3,-3,-2,20,15
20.1,5,12,11,6,11,3,6,-5
20.105,-6,-44,-22,3,0,1,6,1
20.11,-10,-10,11,-55,-22,5,-6,-13
20.115,1,-28,5,0,0,-3,5,7
20.12,12,6,9,18,10,3,12,4
20.125,-2,-28,-7,33,13,-5,-22,-21
20.13,9,1,-19,-63,-12,-5,6,10
20.135,11,9,6,20,12,-2,-1,0
20.14,6,-5,9,13,7,1,12,6
20.145,17,28,-5,-67,-47,-7,9,9
20.15,4,-1,3,19,7,-5,-12,-8
20.155,5,9,-1,0,-3,2,13,6
20.16,5,-7,-5,-12,13,1,-2,-5
20.165,0,14,-8,43,11,1,-3,-6
20.17,0,-6,3,13,-3,-5,-4,6
20.175,2,2,-2,-15,2,1,-2,-3
20.18,4,5,-5,16,-9,1,9,11
20.185,-3,2,8,2,0,0,-2,-2
20.19,-5,-3,-2,-25,-7,-6,-5,-4
20.195,-3,-9,0,9,1,1,6,1
20.2,1,5,3,-17,-14,-8,3,0
20.205,-6,-1,0,-7,-4,-2,2,5
20.21,-2,-6,2,23,12,3,-11,-5
20.215,3,9,-3,8,4,-1,1,3
20.22,-1,-4,-6,-11,-2,3,6,3
20.225,-1,-2,3,-5,9,2,1,-4
20.23,1,0,-1,20,-3,-1,-1,13
20.235,-4,-1,1,-8,-6,4,52,20
20.24,-11,-6,-4,-2,-4,-18,-81,-82
20.245,-3,-4,8,3,2,-5,-4,0
20.25,-5,-6,-10,4,0,-4,-6,4
20.255,2,9,-9,-9,-9,2,4,11
20.26,-2,-14,-13,-10,-3,5,27,16
20.265,-4,7,2,-2,3,8,2,-4
20.27,-2,-3,-3,2,-4,-10,-12,-11
20.275,-1,-2,-3,-2,2,-1,-17,-5
20.28,-1,11,1,1,-4,1,8,12
20.285,0,1,-10,-13,-5,-3,-14,-5
20.29,-2,-3,3,8,5,-5,-17,-1
20.295,2,-1,6,11,1,-2,-3,-7
20.3,6,3,-1,-7,-7,-2,5,10
20.305,0,-3,3,-8,-2,2,14,6
20.31,0,2,-4,-1,3,3,5,-7
20.315,-1,-3,-4,-2,0,-1,-10,-6
20.32,-7,-11,-4,-6,-8,-2,4,-3
20.325,-1,-6,4,-2,2,0,0,0
20.33,0,-2,3,10,2,-2,4,-2
20.335,-2,-7,0,-1,-4,-5,-14,-8
20.34,2,-1,-1,0,-1,4,22,16
20.345,-5,-9,-6,-4,1,-3,-5,-5
20.35,0,0,0,5,1,0,-2,-3
20.355,0,-1,2,-5,-5,-1,-1,1
20.36,1,16,-21,-10,-5,-4,-1,4
20.365,-2,-2,11,7,1,4,5,0
20.37,-2,3,4,2,0,-2,9,5
20.375,-5,-2,-2,-4,0,-2,-9,-11
20.38,0,0,3,0,-3,0,3,1
20.385,-1,2,-3,-5,-3,-4,-5,-3
20.39,0,-1,-3,-1,1,3,15,5
20.395,-3,0,0,6,-1,1,5,1
20.4,4,11,8,-3,-4,-4,-1,4
20.405,-3,-1,4,0,0,-1,4,-1
20.41,-3,-2,-1,1,2,0,-5,-4
20.415,0,0,-5,-6,-3,-2,-5,-3
20.42,-1,-4,-1,0,-1,0,-1,0
20.425,-1,1,-2,-3,-1,-1,-2,-1
20.43,1,4,-1,2,-1,-1,1,-1
20.435,-2,2,2,1,-1,-2,-5,2
20.44,-3,-6,4,3,-1,0,8,3
20.445,-5,-11,10,4,1,-1,-4,0
20.45,-5,-5,-8,-3,-3,0,-5,-4
20.455,-1,-1,-6,-8,-1,0,0,-2
20.46,-5,-10,-7,-2,-1,-1,1,-2
20.465,0,7,-8,-2,1,-1,-3,0
20.47,-2,-2,-1,0,-1,-1,-1,-3
20.475,-4,-4,0,-7,-3,-1,-2,2
20.48,2,4,-1,-3,-1,-1,-2,0
20.485,-3,0,-4,8,-2,-3,-4,-5
20.49,-2,-1,-3,0,1,0,4,0
20.495,-2,-1,-1,-3,-2,-3,1,1
20.5,-6,-6,-1,-3,-2,-1,-2,2
20.505,-6,1,-3,-2,0,-1,2,-2
20.51,-10,-2,-3,3,0,1,-9,-2
20.515,-13,-3,3,0,1,0,0,-2
20.52,-22,-3,-1,-2,-1,-1,0,0
20.525,-15,-4,0,-2,-1,0,-2,-1
20.53,-13,2,-7,-1,-1,-1,-1,-3
20.535,-12,0,-9,-2,-3,-1,2,1
20.54,-7,-7,-7,0,0,-1,-2,-3
20.545,-4,2,-2,-6,-3,-2,-4,-6
20.55,2,-3,2,1,2,0,3,-2
20.555,4,2,-1,1,0,-2,0,-3
20.56,6,1,4,3,1,-2,-1,-1
20.565,2,-14,-6,0,-2,-2,-1,0
20.57,2,-4,0,-8,-4,-4,-4,-2
20.575,11,0,-1,14,2,1,-2,-3
20.58,12,1,6,-7,-1,-1,-1,-2
20.585,15,7,-6,-5,-2,-1,-1,1
20.59,7,-3,2,0,-1,0,3,-1
20.595,4,-2,0,-2,-2,-3,-10,-4
20.6,7,2,-2,4,-1,0,2,-4
20.605,4,-2,0,-1,0,-4,-1,-1
20.61,6,-1,3,-1,-1,2,1,0
20.615,6,-1,2,-5,-2,-2,0,-1
20.62,6,-8,-9,0,-2,-2,0,-1
20.625,7,2,6,-1,-1,-1,-1,0
20.63,6,-1,0,-1,-2,2,1,4
20.635,5,-4,-8,-3,-1,-3,5,-12
20.64,7,12,2,-6,-2,-7,-14,-3
20.645,-3,-6,7,3,1,2,3,0
20.65,4,2,-7,2,0,-3,-1,-5
20.655,1,-5,1,-3,-1,3,6,4
20.66,-3,-4,-3,0,-1,0,0,23
20.665,-9,-12,-7,-10,-1,-2,2,-3
20.67,12,-5,4,-5,-6,-2,-21,-39
20.675,-6,-4,-10,4,-5,-8,-11,-17
20.68,-12,-17,23,3,2,5,9,5
20.685,2,3,3,6,1,0,-3,7
20.69,-1,2,-3,-1,1,-2,6,26
20.695,-1,2,2,0,2,-1,-1,2
20.7,5,12,-3,12,0,-1,-3,-8
20.705,-6,-3,-16,-26,-1,1,3,2
20.71,-7,11,-3,1,-4,-2,-2,1
20.715,-6,-4,-4,-9,-4,-3,-6,-3
20.72,-3,-1,1,1,-1,2,3,-2
20.725,2,11,4,13,1,0,1,-4
20.73,-3,-1,-4,-9,0,-3,3,0
20.735,-4,-1,18,11,4,2,2,2
20.74,1,6,-13,0,1,2,1,3
20.745,-7,-19,0,1,-7,-5,-5,-5
20.75,0,21,2,-7,-2,1,1,-3
20.755,0,-1,2,0,-2,1,2,11
20.76,-4,-8,-1,1,-2,-1,-2,-19
20.765,3,7,2,3,0,-1,-2,3
20.77,-7,-9,-2,4,0,-2,-4,-3
20.775,-2,-2,0,-4,1,3,3,5
20.78,2,4,1,-8,-2,1,8,13
20.785,-4,-9,3,1,0,10,2,-37
20.79,-4,0,-5,1,-5,-27,-49,-14
20.795,-9,-3,-5,-5,-2,-8,-7,-9
20.8,-5,-14,-3,-3,-2,-4,-10,-14
20.805,4,10,-3,-2,-2,-1,-6,11
20.81,-9,-13,7,9,4,13,27,17
20.815,0,1,-3,-2,-1,3,4,-9
20.82,-1,0,-8,-4,-3,-3,-2,1
20.825,-1,5,0,-3,-1,1,17,12
20.83,-2,-7,2,-1,-2,-5,-16,-24
20.835,4,6,-7,-3,-1,1,35,20
20.84,-5,-5,0,-2,-4,-8,-88,-26
20.845,1,2,1,2,0,-1,-2,9
20.85,-3,-11,-3,-7,-1,2,17,12
20.855,2,-8,-6,-2,-2,4,15,28
20.86,-3,-3,-7,-1,-2,-3,6,-27
20.865,0,14,-1,0,-2,-2,-5,-1
20.87,-1,-4,-2,2,0,7,18,31
