0.01,1,1,0,1,0,11,2,1
0.015,4,0,9,7,0,1,3,7
0.02,1,1,18,9,0,4,1,1
0.025,2,2,1,0,0,10,1,2
0.03,7,0,22,5,0,1,0,5
0.035,3,0,11,11,6,1,2,4
0.04,2,0,16,6,5,10,0,2
0.045,0,0,11,2,5,10,4,2
0.05,2,4,31,8,1,1,1,1
0.055,0,2,29,4,2,1,2,0
0.06,2,1,23,2,0,5,2,12
0.065,6,4,7,4,0,2,1,11
0.07,1,1,10,0,4,2,0,1
0.075,1,0,1,3,3,11,12,2
0.08,4,3,6,0,3,2,2,18
0.085,1,1,11,1,0,7,1,4
0.09,3,1,7,5,1,7,1,7
0.095,1,1,19,3,0,0,1,2
0.1,1,0,16,1,4,13,8,3
0.105,1,2,11,1,0,8,12,4
0.11,0,3,11,10,3,4,6,5
0.115,5,1,8,1,3,2,1,2
0.12,0,1,7,3,1,0,5,8
0.125,6,6,1,5,5,0,4,6
0.13,2,3,10,0,2,1,1,4
0.135,0,0,15,8,2,4,0,1
0.14,1,2,7,1,1,3,1,0
0.145,1,2,40,7,2,7,3,2
0.15,5,4,3,1,0,17,1,12
0.155,6,0,3,2,5,10,8,7
0.16,2,2,2,1,3,10,2,5
0.165,4,1,8,1,2,9,4,1
0.17,1,3,19,5,2,4,2,4
0.175,5,2,38,9,1,6,7,3
0.18,13,4,11,0,2,3,0,12
0.185,3,1,1,1,0,6,3,8
0.19,6,4,11,5,2,5,4,8
0.195,5,0,17,12,6,7,8,1
0.2,1,0,8,0,2,4,5,6
0.205,0,2,15,1,1,3,4,2
0.21,1,1,6,8,4,6,5,1
0.215,1,4,15,5,3,4,9,8
0.22,1,1,4,7,4,8,7,0
0.225,1,2,22,2,1,1,4,1
0.23,4,2,5,9,4,7,4,14
0.235,2,1,16,9,5,11,12,5
0.24,2,2,9,3,5,14,10,1
0.245,6,5,14,5,6,3,2,5
0.25,2,4,6,13,10,7,1,2
0.255,1,3,12,3,1,1,2,11
0.26,4,5,6,10,9,15,8,15
0.265,0,0,1,1,3,2,1,2
0.27,2,0,4,1,3,2,2,5
0.275,1,0,2,1,1,4,3,6
0.28,3,2,2,3,3,1,2,1
0.285,0,1,1,1,2,3,11,3
0.29,0,2,6,1,1,8,7,1
0.295,4,3,6,1,4,15,11,3
0.3,0,1,6,2,3,1,1,11
0.305,6,0,5,1,5,5,6,8
0.31,0,1,8,5,1,12,10,2
0.315,7,2,14,8,6,21,11,11
0.32,6,2,22,4,5,7,1,15
0.325,3,1,12,6,5,13,20,11
0.33,2,6,25,6,3,4,14,7
0.335,0,1,1,0,2,3,6,8
0.34,0,1,19,1,2,24,19,4
0.345,0,1,1,0,4,44,18,1
0.35,1,1,11,4,0,7,2,5
0.355,1,5,16,6,3,3,3,3
0.36,4,3,9,7,2,4,2,1
0.365,1,0,6,0,0,12,3,2
0.37,1,1,5,3,4,9,2,3
0.375,2,1,5,1,3,6,9,3
0.38,4,2,3,1,1,2,5,4
0.385,2,4,6,3,2,6,2,5
0.39,4,1,3,0,2,3,8,8
0.395,5,1,5,2,0,4,12,2
0.4,4,3,6,2,3,4,7,10
0.405,0,2,16,1,3,2,5,1
0.41,0,2,15,3,3,7,14,1
0.415,5,0,5,2,2,0,4,9
0.42,3,3,10,9,4,8,8,4
0.425,1,1,0,3,6,14,5,2
0.43,1,1,6,1,7,20,12,2
0.435,3,3,7,0,3,14,5,7
0.44,0,2,15,1,4,8,7,6
0.445,1,6,34,7,6,11,11,3
0.45,3,4,2,1,2,5,9,2
0.455,0,1,2,4,4,8,18,4
0.46,1,2,6,4,0,8,18,3
0.465,0,0,24,3,2,14,0,14
0.47,2,2,3,2,4,9,5,9
0.475,1,1,2,2,4,18,5,2
0.48,1,1,1,6,8,25,17,5
0.485,4,3,8,0,0,9,0,4
0.49,0,4,10,5,8,12,8,7
0.495,0,1,15,4,5,18,3,2
0.5,3,1,4,2,4,24,16,4
0.505,0,1,26,6,2,17,4,3
0.51,2,3,9,4,2,8,0,1
0.515,5,5,14,3,2,5,7,7
0.52,0,0,2,4,2,14,14,3
0.525,1,1,5,4,1,3,15,5
0.53,0,2,1,1,1,1,5,2
0.535,1,5,20,14,8,5,2,2
0.54,8,3,3,4,5,10,5,4
0.545,2,0,4,2,5,13,8,3
0.55,2,3,7,2,2,2,5,1
0.555,0,4,4,3,7,7,1,4
0.56,2,1,5,2,4,6,9,9
0.565,2,1,1,7,5,21,11,10
0.57,8,1,0,3,4,7,7,1
0.575,1,0,1,1,2,1,0,1
0.58,3,3,7,7,5,9,2,0
0.585,4,0,1,1,4,3,2,0
0.59,3,4,4,4,0,4,0,6
0.595,1,1,4,1,3,16,12,2
0.6,0,2,9,1,1,7,2,2
0.605,0,0,4,0,2,2,3,1
0.61,1,1,6,4,1,6,4,2
0.615,2,1,13,6,2,5,3,2
0.62,2,0,0,3,1,0,5,6
0.625,0,0,5,4,1,4,2,1
0.63,2,2,5,2,0,2,5,0
0.635,2,1,3,0,4,15,7,1
0.64,2,0,8,6,1,15,7,1
0.645,2,1,9,3,2,3,7,2
0.65,1,1,5,5,5,21,10,2
0.655,3,1,5,6,6,9,12,4
0.66,1,0,3,1,3,7,9,6
0.665,1,0,1,3,6,14,10,1
0.67,7,2,4,1,0,14,15,3
0.675,1,1,9,4,1,0,3,3
0.68,1,1,23,3,4,16,8,2
0.685,5,4,46,10,2,7,1,8
0.69,0,1,3,1,1,7,4,7
0.695,1,2,1,2,3,8,11,13
0.7,3,1,6,1,1,0,5,4
0.705,1,2,5,1,0,5,5,1
0.71,1,1,3,0,0,2,1,2
0.715,2,1,5,2,0,3,7,3
0.72,4,1,7,4,4,6,7,2
0.725,10,1,5,4,7,3,2,4
0.73,1,2,10,4,4,6,7,0
0.735,3,1,11,5,7,6,7,3
0.74,0,1,9,3,0,2,0,2
0.745,3,2,2,1,4,5,8,1
0.75,1,1,4,1,1,4,5,2
0.755,0,0,6,1,6,2,1,0
0.76,5,4,19,5,2,1,5,4
0.765,1,0,3,3,5,1,11,1
0.77,1,1,3,1,1,14,9,1
0.775,3,3,2,0,1,10,5,11
0.78,4,1,2,4,2,4,4,10
0.785,7,0,5,3,1,4,1,2
0.79,1,0,3,0,3,1,2,2
0.795,1,0,1,3,1,2,10,1
0.8,0,3,3,3,5,5,3,2
0.805,1,2,2,1,2,6,1,2
0.81,4,3,2,2,3,5,5,3
0.815,0,1,5,4,3,4,11,1
0.82,4,3,0,1,0,7,9,4
0.825,5,1,1,1,4,8,3,5
0.83,0,0,2,3,4,1,4,2
0.835,0,2,4,0,1,5,2,4
0.84,1,3,5,4,2,4,1,2
0.845,2,4,0,1,0,4,3,1
0.85,3,2,6,0,1,1,4,4
0.855,0,1,17,0,1,6,4,1
0.86,0,0,6,2,2,3,3,1
0.865,1,2,3,1,1,0,1,0
0.87,1,0,5,4,5,2,2,2
0.875,0,0,8,2,4,0,2,2
0.88,2,1,4,6,5,3,5,9
0.885,2,0,1,0,0,8,7,2
0.89,5,4,3,3,0,1,1,1
0.895,3,3,1,3,1,4,7,4
0.9,3,3,4,3,3,5,0,3
0.905,2,0,3,2,2,2,3,1
0.91,1,0,0,0,1,6,6,3
0.915,1,2,10,6,2,10,9,2
0.92,1,1,6,5,4,6,5,2
0.925,2,2,4,1,1,2,3,2
0.93,1,0,3,1,0,6,5,3
0.935,6,3,3,0,2,4,1,1
0.94,2,3,6,1,1,7,6,1
0.945,0,1,9,3,0,13,9,1
0.95,1,2,15,4,3,7,5,0
0.955,5,3,5,1,4,5,5,6
0.96,3,2,2,2,3,9,3,1
0.965,0,3,2,1,2,4,3,3
0.97,0,2,2,3,1,3,9,4
0.975,1,2,0,2,7,8,4,2
0.98,1,2,4,2,5,8,3,0
0.985,2,1,9,1,3,1,4,5
0.99,2,2,1,4,5,6,3,5
0.995,2,1,3,2,2,3,2,3
1,1,1,2,2,2,3,9,1
1.005,3,4,3,4,4,5,3,0
1.01,0,2,2,3,8,4,5,5
1.015,1,0,3,1,0,3,3,2
1.02,1,0,6,3,3,3,5,1
1.025,2,3,2,3,1,5,6,7
1.03,3,3,3,1,3,2,5,1
1.035,2,4,5,4,3,11,5,0
1.04,0,4,3,1,3,7,2,1
1.045,0,3,1,1,4,3,2,2
1.05,1,0,1,2,4,9,5,2
1.055,1,2,1,1,1,6,1,0
1.06,0,1,5,2,2,0,8,3
1.065,2,2,0,1,3,2,4,2
1.07,1,1,1,2,3,3,0,1
1.075,1,0,0,1,2,4,0,1
1.08,3,1,1,2,3,1,3,4
1.085,1,1,2,2,2,5,1,2
1.09,0,0,2,2,2,12,7,2
1.095,0,0,0,3,2,8,4,6
1.1,1,1,1,0,0,21,14,1
1.105,1,1,3,3,4,5,2,2
1.11,0,0,0,1,3,1,1,0
1.115,2,2,6,5,4,12,4,4
1.12,3,2,1,1,0,1,4,4
1.125,2,1,4,2,1,2,2,1
1.13,2,2,5,1,3,4,2,1
1.135,1,0,1,0,1,16,7,1
1.14,0,0,6,1,0,4,11,3
1.145,4,4,1,2,5,2,0,1
1.15,3,3,4,1,0,7,8,2
1.155,3,0,0,2,0,13,6,5
1.16,2,1,2,2,0,9,0,4
1.165,1,2,1,0,3,2,2,2
1.17,1,2,1,3,0,1,3,2
1.175,1,1,6,3,6,12,7,3
1.18,1,0,1,1,1,1,3,0
1.185,1,0,3,7,4,14,15,7
1.19,3,4,1,6,4,17,16,0
1.195,5,2,0,2,2,2,2,2
1.2,0,1,3,4,4,11,4,2
1.205,1,1,6,2,0,4,1,3
1.21,1,0,17,8,2,1,1,3
1.215,0,1,6,3,4,5,7,1
1.22,1,1,3,2,1,4,2,1
1.225,2,1,4,0,5,3,8,2
1.23,0,1,8,2,3,6,1,1
1.235,1,0,0,3,1,1,0,12
1.24,2,2,5,4,3,8,10,12
1.245,2,2,1,2,3,0,1,2
1.25,2,1,0,2,2,6,6,1
1.255,0,0,1,2,0,0,4,1
1.26,0,2,3,1,2,2,8,3
1.265,1,0,3,1,2,6,7,1
1.27,2,2,1,0,1,1,14,1
1.275,1,1,1,2,1,0,5,4
1.28,2,2,1,0,1,14,6,0
1.285,0,1,3,1,1,3,2,1
1.29,0,1,0,0,3,4,1,0
1.295,2,1,0,2,1,5,0,7
1.3,1,1,1,0,0,8,4,0
1.305,0,3,3,1,2,5,8,0
1.31,1,2,1,1,0,5,0,0
1.315,1,3,1,0,1,2,2,3
1.32,2,0,0,3,1,2,0,0
1.325,2,4,4,2,1,3,2,1
1.33,0,0,2,2,0,1,0,2
1.335,3,2,10,2,0,2,11,0
1.34,1,0,24,6,6,4,0,1
1.345,0,0,5,0,0,3,2,2
1.35,2,3,3,3,0,4,2,0
1.355,0,1,1,4,2,1,4,1
1.36,4,2,6,1,2,3,7,3
1.365,1,1,1,2,4,4,5,0
1.37,1,1,6,1,3,2,6,1
1.375,0,1,1,4,2,4,0,1
1.38,0,1,6,3,1,10,3,0
1.385,1,5,4,6,6,7,7,3
1.39,0,1,0,4,7,2,1,1
1.395,2,0,1,4,4,3,8,2
1.4,0,0,1,2,1,16,14,1
1.405,2,1,2,2,1,32,27,11
1.41,9,4,3,1,2,1,2,15
1.415,3,3,4,2,0,2,2,3
1.42,1,0,3,1,1,1,5,6
1.425,0,0,1,0,1,3,3,7
1.43,1,2,1,4,6,9,5,3
1.435,2,2,1,0,1,0,5,3
1.44,3,7,1,1,1,9,5,2
1.445,2,3,3,4,3,3,8,7
1.45,0,0,1,2,4,6,5,1
1.455,3,3,3,6,5,11,6,2
1.46,0,0,0,3,3,7,5,2
1.465,1,0,1,3,1,7,5,2
1.47,1,1,5,2,1,3,4,1
1.475,2,2,2,1,3,2,4,1
1.48,2,3,1,3,8,32,10,2
1.485,3,0,0,0,3,24,19,1
1.49,3,1,1,2,3,2,3,3
1.495,3,4,4,6,4,1,1,0
1.5,1,1,1,1,1,3,1,2
1.505,0,3,1,0,3,19,12,3
1.51,2,1,2,3,4,2,2,1
1.515,2,1,1,1,1,2,10,5
1.52,0,0,2,1,2,16,4,1
1.525,3,1,1,2,1,10,7,4
1.53,1,0,1,0,0,0,2,1
1.535,1,3,1,4,3,5,6,1
1.54,4,1,2,4,2,7,0,2
1.545,2,3,2,2,4,1,4,3
1.55,5,4,12,2,3,1,3,0
1.555,1,0,3,2,5,2,3,2
1.56,2,2,2,2,0,3,1,0
1.565,1,0,1,2,0,1,1,2
1.57,1,3,0,1,4,3,1,7
1.575,2,2,4,0,2,2,5,13
1.58,1,2,4,0,3,15,2,0
1.585,1,0,1,3,6,17,7,2
1.59,1,0,1,2,1,0,2,0
1.595,0,0,2,2,3,2,11,2
1.6,1,1,4,2,1,11,6,1
1.605,3,3,3,1,2,2,5,3
1.61,0,1,0,0,0,1,0,3
1.615,0,1,2,2,1,4,4,1
1.62,3,3,2,3,4,18,13,1
1.625,3,1,2,2,0,16,17,0
1.63,1,0,0,1,2,4,6,3
1.635,0,0,1,4,4,12,14,3
1.64,1,2,4,4,3,10,3,5
1.645,0,0,1,1,4,8,14,2
1.65,2,2,1,2,4,9,4,10
1.655,3,2,2,0,0,1,3,3
1.66,2,2,2,4,4,4,3,1
1.665,2,2,2,1,3,10,2,9
1.67,0,0,0,1,0,18,2,2
1.675,1,2,2,1,2,8,11,1
1.68,1,1,10,3,1,4,5,7
1.685,5,2,1,1,1,1,5,2
1.69,1,0,1,0,2,1,3,1
1.695,4,2,2,1,0,2,5,4
1.7,1,3,2,4,7,1,2,3
1.705,1,1,1,0,1,7,1,0
1.71,3,4,1,0,2,5,2,1
1.715,2,0,0,0,1,3,2,2
1.72,1,0,1,0,1,1,1,5
1.725,0,0,5,2,4,3,3,1
1.73,2,3,1,3,1,2,4,1
1.735,2,1,2,3,5,5,6,1
1.74,1,2,3,2,2,6,1,4
1.745,0,0,1,0,1,8,4,0
1.75,1,1,2,3,5,2,12,4
1.755,2,1,1,3,2,5,2,1
1.76,1,1,12,1,2,7,0,3
1.765,5,4,3,4,3,1,3,7
1.77,1,0,0,1,2,4,7,1
1.775,2,2,4,7,8,9,11,4
1.78,1,1,4,3,2,1,2,2
1.785,0,2,2,1,1,4,9,2
1.79,1,1,2,0,2,7,1,1
1.795,2,2,3,3,2,3,1,2
1.8,0,0,1,1,4,7,5,1
1.805,0,0,2,2,0,1,2,1
1.81,1,1,3,0,2,1,3,2
1.815,2,5,3,2,3,1,2,1
1.82,0,1,2,3,5,5,3,2
1.825,3,2,0,2,1,2,3,2
1.83,3,2,1,0,2,0,1,1
1.835,2,2,1,1,0,3,5,2
1.84,3,1,3,4,4,8,3,5
1.845,0,2,5,2,2,5,2,0
1.85,2,2,2,0,3,11,9,0
1.855,1,1,1,3,8,20,17,0
1.86,1,0,3,1,2,3,6,3
1.865,2,1,5,6,3,4,12,10
1.87,2,2,2,1,0,13,11,8
1.875,2,3,5,4,2,11,13,2
1.88,1,1,0,2,2,2,3,1
1.885,2,0,0,1,1,5,2,1
1.89,2,3,2,2,2,11,3,1
1.895,1,1,1,2,2,3,2,1
1.9,2,1,1,2,1,4,3,2
1.905,2,1,1,0,2,2,1,3
1.91,0,2,4,4,5,10,3,2
1.915,2,1,2,3,4,1,0,2
1.92,1,2,1,1,4,1,3,1
1.925,1,1,1,1,2,0,1,2
1.93,1,3,3,1,2,0,1,0
1.935,1,2,3,4,7,7,7,1
1.94,1,1,0,2,3,4,3,2
1.945,1,2,2,0,1,0,2,0
1.95,1,3,1,0,1,10,7,1
1.955,1,2,1,1,3,3,4,2
1.96,2,2,2,5,5,6,7,2
1.965,3,2,2,1,0,1,4,3
1.97,1,0,1,0,0,9,5,1
1.975,1,0,1,3,1,15,3,2
1.98,0,1,0,1,0,2,1,0
1.985,2,2,2,0,1,0,5,9
1.99,2,1,3,6,3,1,1,10
1.995,1,1,2,4,1,2,1,2
2,3,1,1,1,1,2,4,0
2.005,1,2,2,3,0,1,0,3
2.01,0,2,3,0,1,1,4,3
2.015,0,3,3,1,3,6,2,2
2.02,1,0,3,2,5,6,2,2
2.025,1,3,4,4,4,1,3,2
2.03,1,1,0,2,6,2,0,1
2.035,0,1,2,0,2,1,1,1
2.04,1,2,0,2,3,2,4,1
2.045,3,3,1,0,2,16,12,6
2.05,1,1,1,3,0,29,20,2
2.055,0,2,0,0,1,7,1,1
2.06,1,1,0,3,5,2,1,2
2.065,1,1,2,1,2,3,0,2
2.07,2,1,0,2,1,5,3,0
2.075,1,2,2,4,5,17,14,1
2.08,0,1,0,3,1,18,10,0
2.085,2,1,2,0,1,11,7,6
2.09,3,1,2,1,0,6,5,10
2.095,1,2,1,2,2,13,4,1
2.1,1,1,5,3,2,11,9,1
2.105,3,1,1,1,0,3,1,1
2.11,0,2,1,1,1,9,9,2
2.115,4,1,1,1,2,2,4,2
2.12,0,2,1,1,1,1,0,2
2.125,1,0,0,1,3,1,5,2
2.13,1,1,1,1,2,9,1,0
2.135,3,3,2,1,4,10,4,3
2.14,1,1,0,1,3,2,7,2
2.145,2,2,4,3,3,0,6,2
2.15,0,1,1,3,2,3,7,1
2.155,0,0,1,2,1,4,12,1
2.16,5,3,0,2,2,5,5,2
2.165,2,2,3,3,1,1,2,3
2.17,1,2,2,2,0,3,1,1
2.175,2,1,2,3,1,2,1,0
2.18,2,1,4,2,2,2,2,1
2.185,0,0,1,1,3,6,2,5
2.19,3,3,0,4,4,1,4,2
2.195,2,1,0,2,2,4,6,2
2.2,1,1,1,0,3,5,4,3
2.205,2,2,3,3,4,2,2,1
2.21,0,1,2,0,3,3,2,2
2.215,2,4,3,1,2,2,2,2
2.22,1,0,1,1,1,0,1,1
2.225,0,1,2,4,1,2,1,0
2.23,1,2,1,1,3,5,3,1
2.235,0,1,2,1,3,1,4,1
2.24,1,2,2,0,2,5,4,2
2.245,2,0,1,1,1,0,4,3
2.25,3,2,0,1,3,4,1,0
2.255,0,5,5,4,1,2,4,3
2.26,1,2,0,0,3,0,1,2
2.265,1,0,11,1,1,0,1,1
2.27,2,0,1,6,2,1,2,3
2.275,0,0,10,4,1,2,2,1
2.28,1,3,11,4,3,4,1,1
2.285,1,5,17,6,4,0,2,2
2.29,3,9,12,9,1,2,0,0
2.295,5,4,15,6,1,2,2,1
2.3,0,0,9,3,3,3,1,1
2.305,4,9,4,0,1,1,0,2
2.31,1,4,25,6,4,1,1,1
2.315,1,0,2,1,1,3,2,2
2.32,0,2,4,2,2,1,1,1
2.325,0,3,4,2,0,2,1,1
2.33,2,0,4,2,1,0,2,3
2.335,2,0,1,1,1,2,2,2
2.34,1,2,4,2,1,2,2,1
2.345,1,3,1,0,0,0,0,1
2.35,3,4,4,2,0,1,1,1
2.355,0,0,7,1,1,1,1,1
2.36,0,1,2,3,1,1,3,1
2.365,1,2,3,1,0,1,2,0
2.37,4,4,4,3,1,0,1,1
2.375,0,2,11,3,1,1,1,1
2.38,2,5,16,7,1,0,0,0
2.385,4,5,11,1,1,2,1,1
2.39,2,1,8,1,3,3,2,0
2.395,1,2,11,4,3,3,3,2
2.4,0,1,6,3,3,1,0,3
2.405,2,0,7,2,1,0,2,3
2.41,1,2,2,2,3,2,0,1
2.415,2,2,7,0,2,4,3,2
2.42,5,2,3,3,4,3,2,3
2.425,1,2,2,1,3,2,0,3
2.43,1,0,6,1,4,0,1,1
2.435,1,3,5,3,1,1,1,12
2.44,2,2,1,0,3,2,2,12
2.445,4,1,0,1,1,1,1,5
2.45,2,5,1,4,2,2,0,3
2.455,1,0,1,2,0,0,0,4
2.46,1,1,2,1,2,2,1,4
2.465,1,4,1,2,3,2,1,5
2.47,0,0,2,2,1,1,0,1
2.475,3,3,3,3,1,3,1,5
2.48,0,1,0,1,1,2,2,0
2.485,1,1,1,1,1,1,1,4
2.49,0,1,4,0,1,0,1,2
2.495,3,1,1,1,0,0,1,4
2.5,2,0,0,2,4,1,3,1
2.505,3,2,3,1,1,1,3,1
2.51,4,1,2,1,0,1,2,1
2.515,1,1,3,1,2,0,0,4
2.52,2,1,1,1,2,1,2,1
2.525,1,4,3,4,3,3,0,2
2.53,1,0,4,0,0,3,1,0
2.535,3,1,4,1,1,2,0,3
2.54,1,1,2,1,0,1,0,0
2.545,0,1,15,2,2,1,2,3
2.55,2,1,3,2,1,3,1,2
2.555,1,0,28,5,2,2,1,3
2.56,0,2,14,4,0,0,0,0
2.565,1,4,8,5,1,1,1,1
2.57,2,5,5,2,0,0,1,1
2.575,0,0,6,0,1,0,1,2
2.58,2,4,9,1,4,3,1,2
2.585,0,1,5,0,1,1,0,3
2.59,0,0,7,2,2,3,1,1
2.595,3,3,1,1,2,2,0,1
2.6,1,2,1,1,1,2,1,1
2.605,1,1,4,3,3,2,0,1
2.61,1,1,4,2,1,4,1,2
2.615,1,3,6,1,4,0,0,0
2.62,2,2,6,3,2,3,2,1
2.625,1,0,4,1,0,3,1,5
2.63,4,2,4,2,3,0,1,0
2.635,4,2,3,1,1,1,1,4
2.64,1,0,2,2,3,1,0,2
2.645,2,2,7,1,0,0,1,0
2.65,1,1,3,1,1,2,2,4
2.655,1,3,2,1,2,2,2,1
2.66,1,1,0,0,1,0,1,1
2.665,2,1,1,0,0,2,2,1
2.67,3,4,0,4,1,2,1,1
2.675,1,2,1,1,1,2,1,1
2.68,0,4,5,4,2,1,1,2
2.685,2,0,2,1,1,1,2,4
2.69,2,0,9,1,2,1,1,0
2.695,0,0,14,0,3,4,1,2
2.7,4,4,20,1,1,1,1,1
2.705,2,4,10,0,1,0,1,1
2.71,1,2,3,0,1,0,2,0
2.715,2,2,7,2,2,3,4,3
2.72,1,4,6,2,1,0,1,2
2.725,5,5,4,2,0,1,1,3
2.73,1,3,3,3,5,4,1,2
2.735,2,3,2,3,5,3,2,1
2.74,4,2,2,1,2,2,1,0
2.745,2,1,6,2,2,2,1,1
2.75,2,0,3,2,4,3,3,3
2.755,3,3,7,3,2,1,1,6
2.76,4,3,1,2,1,0,1,4
2.765,3,0,2,1,1,2,1,0
2.77,2,2,0,0,2,1,1,1
2.775,1,4,0,2,3,2,0,1
2.78,0,1,4,4,2,3,2,2
2.785,2,2,2,4,2,3,3,2
2.79,1,0,0,1,2,1,0,3
2.795,5,3,3,0,2,3,2,2
2.8,3,3,5,2,1,1,2,1
2.805,1,4,8,1,2,2,1,4
2.81,4,1,3,3,4,3,2,13
2.815,2,4,4,2,2,0,0,4
2.82,0,1,0,0,1,1,3,1
2.825,3,2,3,5,4,2,3,5
2.83,0,0,1,2,0,2,2,2
2.835,2,1,2,2,5,1,1,2
2.84,0,3,4,2,2,1,4,7
2.845,0,1,1,1,2,2,0,5
2.85,4,0,1,2,1,1,2,1
2.855,3,2,2,3,2,1,2,0
2.86,13,0,1,1,1,3,1,0
2.865,13,1,3,2,2,1,8,9
2.87,2,0,1,0,1,2,5,4
2.875,8,3,1,3,2,3,1,9
2.88,21,8,3,1,4,3,7,17
2.885,3,8,5,3,2,0,1,4
2.89,3,0,1,1,3,1,0,1
2.895,4,2,1,2,1,1,2,1
2.9,9,1,3,5,0,1,1,5
2.905,8,4,0,2,1,1,2,1
2.91,1,3,1,2,0,1,1,4
2.915,1,2,5,1,0,0,2,6
2.92,7,9,5,3,1,1,3,11
2.925,8,5,2,2,0,0,2,10
2.93,3,0,1,3,2,2,4,2
2.935,1,0,2,2,1,1,0,2
2.94,11,4,9,4,1,1,1,2
2.945,2,3,2,2,2,1,2,1
2.95,3,4,3,0,2,2,2,3
2.955,2,1,3,2,2,5,2,0
2.96,1,2,1,1,0,0,1,1
2.965,1,4,5,1,2,4,5,1
2.97,3,2,0,3,2,3,3,3
2.975,2,3,6,4,1,2,0,1
2.98,4,2,21,8,5,3,3,0
2.985,2,2,1,1,1,1,2,4
2.99,1,4,5,3,1,2,2,8
2.995,5,4,2,4,2,2,2,5
3,2,1,14,2,1,0,2,1
3.005,3,2,4,4,1,1,1,1
3.01,10,11,5,5,2,2,0,3
3.015,1,9,4,2,0,1,1,2
3.02,1,3,6,3,0,0,0,3
3.025,1,5,4,10,3,1,3,13
3.03,4,2,5,4,2,1,5,2
3.035,7,2,1,1,1,0,1,3
3.04,5,0,30,1,2,4,2,3
3.045,1,4,19,1,1,1,0,9
3.05,1,1,5,0,1,1,1,5
3.055,1,0,17,2,3,0,0,1
3.06,6,8,36,3,0,1,1,0
3.065,2,8,23,7,7,5,3,1
3.07,1,7,15,4,4,3,0,0
3.075,5,7,0,2,1,2,1,4
3.08,1,3,39,3,1,0,0,6
3.085,4,4,65,2,1,0,1,3
3.09,3,15,20,13,6,5,3,3
3.095,1,3,23,2,2,1,0,0
3.1,4,0,12,5,2,1,0,0
3.105,0,8,20,1,1,0,1,2
3.11,2,5,2,0,3,5,2,3
3.115,5,11,9,0,0,1,2,7
3.12,3,1,4,0,0,0,2,1
3.125,1,10,29,6,1,1,1,5
3.13,3,9,17,2,1,2,0,0
3.135,2,7,10,6,6,4,4,1
3.14,1,9,20,2,1,0,2,9
3.145,5,1,10,4,0,0,0,4
3.15,3,4,30,6,4,1,1,0
3.155,8,22,63,9,3,2,2,1
3.16,1,1,0,3,4,2,3,3
3.165,2,1,14,1,1,1,1,3
3.17,2,13,37,0,2,1,0,1
3.175,1,22,37,7,1,2,1,8
3.18,3,16,43,8,2,2,0,4
3.185,2,5,15,2,0,1,2,9
3.19,1,5,3,4,1,4,1,1
3.195,4,12,19,7,4,1,1,5
3.2,6,5,5,1,2,4,2,7
3.205,2,5,2,5,3,6,7,8
3.21,1,0,17,1,2,2,0,0
3.215,10,8,19,1,2,0,0,6
3.22,8,19,17,1,1,1,5,23
3.225,4,22,15,2,4,3,7,19
3.23,1,8,37,6,2,1,7,6
3.235,4,5,25,4,0,2,1,4
3.24,2,10,22,2,0,1,1,15
3.245,2,6,25,4,1,1,0,18
3.25,1,29,28,5,0,1,4,3
3.255,7,6,11,3,0,2,2,2
3.26,11,80,4,1,1,2,8,26
3.265,10,33,1,7,6,3,8,1
3.27,12,81,20,3,0,0,0,13
3.275,2,39,25,2,0,3,8,24
3.28,1,20,5,2,2,2,1,2
3.285,5,0,3,2,0,1,1,12
3.29,4,19,15,1,1,2,3,8
3.295,4,13,7,1,1,0,3,3
3.3,5,23,9,5,2,4,2,6
3.305,1,13,26,3,1,2,3,1
3.31,2,27,13,3,5,4,6,6
3.315,0,31,31,2,1,2,2,3
3.32,1,40,38,1,0,1,2,3
3.325,3,7,9,2,1,3,4,6
3.33,3,5,15,6,5,1,1,0
3.335,3,18,10,0,2,0,0,3
3.34,2,6,10,2,1,3,1,4
3.345,1,8,13,3,4,1,2,2
3.35,2,9,8,0,2,3,0,0
3.355,2,14,19,1,0,0,1,1
3.36,1,16,10,1,0,2,2,5
3.365,3,1,4,2,0,1,1,2
3.37,5,6,32,0,0,0,0,2
3.375,3,7,29,5,6,4,2,5
3.38,1,14,14,2,3,1,1,2
3.385,3,10,10,4,2,2,0,2
3.39,1,7,1,0,2,0,0,0
3.395,0,8,14,0,0,1,2,2
3.4,7,2,6,1,2,1,0,3
3.405,1,2,46,1,4,4,2,1
3.41,0,2,64,3,3,2,0,3
3.415,3,1,14,1,2,1,0,4
3.42,3,2,2,1,2,1,3,9
3.425,8,21,0,4,0,2,1,2
3.43,3,1,23,2,1,1,1,1
3.435,1,4,18,3,3,3,1,1
3.44,0,4,3,1,3,3,1,0
3.445,1,7,2,0,0,1,1,2
3.45,5,4,20,3,1,2,0,1
3.455,3,2,7,2,0,1,1,4
3.46,1,1,4,1,1,1,0,0
3.465,6,13,23,4,2,0,2,2
3.47,4,5,9,3,1,2,1,2
3.475,1,10,1,1,2,1,2,2
3.48,4,10,27,4,1,1,1,1
3.485,3,2,12,0,1,0,2,1
3.49,7,21,20,5,3,3,2,3
3.495,5,2,10,1,0,1,1,10
3.5,1,5,25,5,0,1,2,7
3.505,1,17,5,4,4,3,1,5
3.51,1,1,7,0,0,0,1,6
3.515,4,2,4,2,1,2,0,13
3.52,1,5,16,2,1,0,1,6
3.525,1,8,1,0,1,0,1,1
3.53,2,6,20,2,0,0,0,3
3.535,1,1,12,3,4,3,2,0
3.54,1,0,22,4,1,2,1,0
3.545,1,11,15,0,0,0,0,2
3.55,0,6,11,0,1,1,1,2
3.555,7,9,4,0,2,2,3,2
3.56,1,2,23,1,1,2,1,1
3.565,0,3,7,3,2,2,1,0
3.57,3,0,12,1,1,2,1,5
3.575,2,3,8,1,1,1,0,1
3.58,0,1,8,2,1,1,0,0
3.585,1,0,3,0,3,1,1,0
3.59,3,2,2,1,0,1,1,4
3.595,0,2,1,1,1,2,2,2
3.6,4,5,1,4,2,3,2,2
3.605,1,5,14,1,1,3,0,1
3.61,3,1,8,1,0,1,1,3
3.615,3,0,1,1,0,0,0,2
3.62,4,12,19,0,1,1,1,6
3.625,1,2,34,3,2,1,1,6
3.63,3,12,30,1,1,0,0,5
3.635,3,5,5,2,2,1,0,8
3.64,4,2,3,3,2,2,2,6
3.645,0,13,15,2,1,0,1,3
3.65,3,1,8,2,2,3,1,2
3.655,0,0,45,4,1,2,2,1
3.66,3,2,31,2,1,0,0,2
3.665,5,6,2,3,2,1,2,1
3.67,3,7,11,0,3,3,4,4
3.675,1,8,4,1,4,1,1,0
3.68,2,8,19,0,1,0,1,1
3.685,6,1,13,2,3,2,1,1
3.69,2,1,8,3,1,3,2,4
3.695,3,2,10,2,0,0,0,1
3.7,2,0,7,1,1,1,1,1
3.705,2,5,3,2,2,1,0,1
3.71,3,6,6,0,2,2,1,0
3.715,5,9,20,5,4,1,2,2
3.72,3,2,6,0,1,1,1,1
3.725,4,6,12,0,2,1,0,1
3.73,1,6,6,1,0,1,2,2
3.735,2,6,8,2,3,4,2,0
3.74,6,3,8,3,3,5,1,1
3.745,1,0,16,3,2,0,1,1
3.75,1,11,8,1,1,1,0,1
3.755,1,2,6,0,2,3,2,1
3.76,0,6,5,0,0,1,1,1
3.765,2,3,12,0,1,1,1,2
3.77,4,6,12,5,2,1,0,8
3.775,1,1,17,2,3,2,0,9
3.78,3,5,3,4,0,2,2,1
3.785,3,7,8,0,2,1,0,0
3.79,1,4,6,4,3,2,2,1
3.795,1,3,1,1,1,0,0,3
3.8,3,9,2,1,1,1,1,4
3.805,1,7,9,1,1,0,0,1
3.81,6,2,4,2,3,3,1,1
3.815,3,6,13,3,2,0,1,1
3.82,2,0,32,1,2,1,2,0
3.825,0,2,21,5,2,2,1,0
3.83,4,2,1,0,1,2,0,2
3.835,1,3,5,4,2,1,1,0
3.84,1,2,0,0,1,1,1,1
3.845,1,3,2,1,1,3,1,2
3.85,3,2,7,0,0,1,0,0
3.855,2,1,11,2,1,2,0,1
3.86,3,3,12,2,3,0,2,5
3.865,6,6,6,0,1,1,0,1
3.87,1,3,5,0,1,2,2,1
3.875,4,3,17,3,3,1,0,1
3.88,1,1,3,1,1,1,0,0
3.885,3,0,8,1,0,1,0,4
3.89,1,4,5,1,0,2,3,0
3.895,2,0,16,0,1,1,1,1
3.9,2,0,3,1,0,2,0,2
3.905,1,12,22,5,5,4,3,3
3.91,2,3,26,3,3,3,3,1
3.915,1,3,8,1,0,0,2,4
3.92,3,5,17,1,0,1,1,8
3.925,1,3,8,1,0,1,0,5
3.93,6,16,17,6,5,3,0,1
3.935,4,5,6,3,2,1,1,2
3.94,2,0,5,1,0,1,1,3
3.945,1,3,1,2,2,2,1,1
3.95,2,0,2,2,1,0,0,0
3.955,1,0,5,0,0,0,0,1
3.96,1,2,3,4,3,2,1,1
3.965,1,1,5,1,2,2,1,1
3.97,1,2,2,2,2,0,1,1
3.975,2,5,7,1,2,1,1,1
3.98,2,1,0,0,1,2,3,0
3.985,4,0,4,2,2,1,3,1
3.99,3,4,6,1,0,1,1,2
3.995,0,7,7,0,2,1,0,1
4,4,5,22,5,3,2,1,2
4.005,1,0,7,2,1,2,1,2
4.01,3,6,18,5,2,1,2,2
4.015,0,5,5,3,2,2,1,3
4.02,0,6,4,2,1,0,1,1
4.025,2,1,15,0,1,0,0,0
4.03,1,4,4,9,1,1,2,8
4.035,4,6,19,6,7,6,4,14
4.04,0,2,19,2,10,7,2,1
4.045,2,4,11,3,2,2,0,8
4.05,1,0,3,1,2,1,1,1
4.055,3,3,1,4,2,3,1,1
4.06,3,1,5,3,6,5,3,1
4.065,1,1,1,4,1,1,1,0
4.07,1,0,3,5,2,2,2,0
4.075,3,1,1,1,2,3,14,3
4.08,1,0,4,1,1,6,15,2
4.085,7,4,11,2,2,4,3,0
4.09,2,4,14,7,5,0,1,6
4.095,3,4,0,1,1,2,2,14
4.1,2,1,3,1,3,6,6,6
4.105,5,1,8,2,2,1,1,1
4.11,4,1,12,0,0,0,2,1
4.115,3,6,8,2,2,1,1,2
4.12,0,1,18,6,4,2,4,1
4.125,3,1,14,8,2,0,0,1
4.13,3,1,2,0,0,5,4,4
4.135,0,1,4,3,0,2,3,3
4.14,1,5,14,10,2,4,2,1
4.145,3,1,4,6,7,3,2,0
4.15,5,0,14,11,4,1,3,2
4.155,1,1,2,5,1,2,0,4
4.16,0,1,9,2,1,0,2,1
4.165,0,4,3,4,0,2,4,1
4.17,2,1,12,4,2,0,8,1
4.175,1,1,5,5,4,1,3,2
4.18,3,5,14,1,2,1,8,1
4.185,1,1,0,2,1,0,1,0
4.19,1,1,12,5,2,2,6,2
4.195,0,2,3,2,2,1,0,3
4.2,0,4,2,2,1,2,1,1
4.205,2,3,3,0,0,1,3,2
4.21,1,1,5,2,1,0,1,1
4.215,2,2,4,1,2,2,0,0
4.22,3,11,3,0,2,1,2,2
4.225,2,1,3,1,2,0,0,1
4.23,3,4,3,4,1,2,2,2
4.235,2,5,12,24,9,1,2,2
4.24,1,2,39,30,6,0,1,0
4.245,1,6,5,1,0,1,1,0
4.25,1,8,21,2,3,2,0,0
4.255,4,9,6,1,2,1,2,1
4.26,3,3,4,2,4,3,2,1
4.265,2,1,23,6,5,3,3,3
4.27,1,1,37,2,4,1,2,0
4.275,1,9,4,3,1,1,1,1
4.28,2,4,6,7,2,3,1,1
4.285,0,0,7,2,0,0,0,0
4.29,2,2,11,3,5,6,3,0
4.295,1,16,14,10,2,3,2,11
4.3,1,15,16,12,2,1,3,0
4.305,0,31,2,7,2,1,4,9
4.31,6,5,2,8,2,0,2,12
4.315,2,6,19,2,1,4,1,11
4.32,2,20,13,2,2,3,16,31
4.325,5,9,6,2,1,2,8,18
4.33,5,2,1,3,1,4,9,8
4.335,4,3,9,4,1,1,6,1
4.34,1,1,14,5,6,7,8,0
4.345,8,1,8,1,2,1,9,12
4.35,25,6,1,3,3,4,20,3
4.355,5,4,1,4,0,9,25,5
4.36,2,5,4,4,1,0,2,9
4.365,9,7,9,2,0,1,1,12
4.37,4,8,6,1,1,2,5,6
4.375,0,2,2,1,1,2,5,3
4.38,3,0,3,2,1,2,1,15
4.385,3,3,4,5,4,3,2,1
4.39,1,5,7,2,2,2,10,1
4.395,3,6,11,4,1,2,1,0
4.4,10,4,0,2,3,1,0,7
4.405,3,6,4,3,0,1,2,3
4.41,5,4,1,5,4,4,7,5
4.415,13,3,2,1,1,0,1,7
4.42,11,8,3,3,2,3,4,2
4.425,3,9,2,0,2,2,1,1
4.43,7,5,2,3,2,3,5,2
4.435,2,8,4,4,4,3,1,6
4.44,10,2,0,0,1,1,3,1
4.445,2,4,4,1,1,0,3,3
4.45,11,1,1,1,0,0,5,4
4.455,2,2,4,3,3,2,2,6
4.46,1,2,2,5,4,1,0,1
4.465,2,4,8,1,4,3,3,4
4.47,2,7,1,5,4,1,4,3
4.475,2,3,1,7,3,1,2,1
4.48,1,6,4,0,2,2,0,1
4.485,4,7,2,2,1,3,1,1
4.49,1,2,12,4,2,3,1,1
4.495,4,2,0,4,3,1,0,2
4.5,6,4,10,2,1,0,2,2
4.505,1,10,12,2,0,2,1,4
4.51,3,2,3,2,2,4,2,3
4.515,4,9,12,5,0,1,1,3
4.52,1,1,12,4,1,1,0,1
4.525,1,1,4,0,1,1,0,1
4.53,5,4,36,5,1,0,2,2
4.535,5,7,34,4,1,2,1,1
4.54,1,6,10,4,2,3,3,1
4.545,0,15,12,3,0,1,1,0
4.55,9,4,2,6,3,3,3,1
4.555,4,6,17,4,1,1,1,3
4.56,0,8,5,1,1,1,1,7
4.565,1,4,16,1,2,1,3,10
4.57,1,1,8,3,1,1,1,4
4.575,2,15,13,5,4,0,2,2
4.58,5,13,8,0,1,3,1,3
4.585,9,14,45,1,0,3,0,6
4.59,2,1,26,5,1,4,3,3
4.595,4,10,7,3,1,1,1,3
4.6,4,18,37,2,1,3,1,1
4.605,3,1,32,3,2,1,1,1
4.61,4,13,30,0,3,1,1,3
4.615,8,21,13,4,3,2,3,1
4.62,6,17,52,2,1,2,1,3
4.625,7,7,29,6,0,1,0,1
4.63,1,1,23,4,4,3,3,0
4.635,5,5,54,7,1,1,1,0
4.64,1,8,14,1,2,2,2,1
4.645,1,16,27,5,2,1,1,2
4.65,1,11,6,5,0,2,3,4
4.655,6,6,14,2,3,1,4,14
4.66,3,6,37,1,0,2,0,0
4.665,5,14,7,3,1,1,1,1
4.67,4,7,17,9,5,6,3,3
4.675,3,2,42,0,1,4,2,3
4.68,2,0,35,9,0,2,3,4
4.685,2,8,59,4,1,0,0,7
4.69,2,15,19,2,1,0,1,2
4.695,9,38,20,8,3,4,2,3
4.7,4,0,12,2,1,0,1,0
4.705,2,2,13,0,3,2,1,3
4.71,2,10,5,0,0,6,5,1
4.715,6,18,5,5,1,0,1,3
4.72,4,14,14,3,0,1,1,6
4.725,4,14,13,0,2,2,1,6
4.73,1,14,33,0,1,1,2,2
4.735,1,10,7,3,1,3,2,4
4.74,1,2,2,0,3,1,2,1
4.745,1,1,4,1,0,3,0,3
4.75,2,12,27,4,3,1,2,10
4.755,2,5,13,1,3,0,1,15
4.76,3,8,52,4,0,1,0,3
4.765,9,22,44,8,4,0,0,4
4.77,2,1,21,0,2,3,5,5
4.775,1,5,29,1,0,1,1,4
4.78,0,4,20,3,2,3,2,2
4.785,6,14,13,2,0,1,1,1
4.79,4,14,1,3,0,2,1,0
4.795,6,6,16,4,2,4,4,4
4.8,2,4,5,0,1,5,3,5
4.805,1,2,15,1,0,4,0,4
4.81,5,6,5,2,1,0,2,14
4.815,2,16,15,3,0,1,1,14
4.82,1,18,26,8,2,4,4,10
4.825,3,6,6,1,2,4,1,5
4.83,0,2,45,1,0,3,2,4
4.835,1,3,19,0,2,0,1,7
4.84,3,3,4,1,5,5,5,2
4.845,1,7,19,0,1,0,0,11
4.85,3,6,13,1,1,2,3,27
4.855,0,17,9,2,2,2,0,2
4.86,1,3,12,2,3,1,0,0
4.865,0,1,8,4,2,3,3,1
4.87,0,1,4,1,2,3,1,1
4.875,3,1,19,1,4,2,1,13
4.88,6,4,20,3,1,0,3,19
4.885,3,4,6,0,3,4,3,2
4.89,1,13,39,5,1,1,2,2
4.895,1,1,7,1,0,2,2,2
4.9,1,11,11,2,2,2,1,10
4.905,4,5,2,0,1,1,1,7
4.91,4,5,6,2,1,2,3,1
4.915,0,2,0,1,1,1,1,2
4.92,4,3,9,0,0,1,2,4
4.925,2,2,4,1,1,1,2,4
4.93,11,12,2,0,3,4,3,2
4.935,1,6,17,1,0,1,0,2
4.94,4,6,29,1,1,1,2,2
4.945,2,9,1,1,0,0,0,2
4.95,6,1,16,2,3,3,1,2
4.955,2,4,2,2,0,0,2,3
4.96,2,4,7,1,2,3,3,6
4.965,4,2,14,3,0,0,3,0
4.97,4,3,5,2,1,1,0,1
4.975,2,7,10,2,2,1,2,6
4.98,6,8,2,1,3,1,0,2
4.985,6,1,14,4,3,2,2,6
4.99,2,4,11,1,0,1,3,6
4.995,5,8,3,2,3,0,0,2
5,0,6,0,1,1,1,1,11
5.005,1,0,4,0,0,2,3,9
5.01,8,1,3,2,1,3,1,1
5.015,0,6,9,0,0,1,2,5
5.02,5,0,23,0,1,1,2,1
5.025,5,13,27,6,3,3,3,1
5.03,1,6,8,1,1,2,1,1
5.035,1,20,4,1,0,1,4,5
5.04,4,11,9,1,1,2,1,1
5.045,4,1,16,2,2,2,2,2
5.05,2,10,16,1,2,1,1,10
5.055,2,2,2,2,2,1,1,5
5.06,2,2,11,5,0,2,0,2
5.065,0,1,2,1,2,1,2,5
5.07,3,13,3,1,0,0,1,9
5.075,0,12,10,0,0,2,3,7
5.08,1,2,0,3,2,4,2,2
5.085,3,4,20,1,1,0,4,13
5.09,10,13,11,1,1,1,1,11
5.095,2,4,2,1,0,0,1,10
5.1,1,1,2,2,3,2,1,17
5.105,2,1,0,2,2,2,2,12
5.11,5,10,3,3,3,1,1,12
5.115,3,13,10,3,4,4,1,7
5.12,1,3,4,1,2,0,0,10
5.125,2,2,3,1,2,1,1,1
5.13,1,3,0,3,3,3,3,3
5.135,2,1,4,1,1,2,1,3
5.14,0,5,2,1,0,1,0,5
5.145,4,4,5,4,1,2,3,12
5.15,1,2,8,2,3,2,2,0
5.155,3,1,2,2,3,1,1,4
5.16,4,4,11,4,2,1,1,0
5.165,1,3,12,1,1,1,1,2
5.17,0,4,5,1,1,0,3,10
5.175,1,15,12,2,1,2,1,1
5.18,2,6,15,2,1,1,3,6
5.185,4,5,12,3,1,1,1,1
5.19,1,1,1,1,3,3,3,1
5.195,0,5,6,3,2,2,1,0
5.2,1,3,8,3,2,0,2,10
5.205,1,1,8,2,3,2,2,1
5.21,1,6,32,3,2,0,1,4
5.215,3,11,38,0,1,2,2,5
5.22,4,19,4,8,4,4,1,3
5.225,1,7,4,1,1,0,2,2
5.23,3,3,3,0,2,1,1,2
5.235,2,0,0,0,2,1,1,3
5.24,2,4,10,5,1,1,1,2
5.245,1,4,35,3,3,1,0,2
5.25,2,2,35,7,3,2,1,7
5.255,2,0,23,1,1,1,2,1
5.26,1,2,13,2,3,2,1,1
5.265,2,2,5,1,2,0,2,9
5.27,1,3,2,0,2,1,1,6
5.275,5,5,13,4,1,3,0,7
5.28,0,4,14,1,0,2,2,1
5.285,0,2,20,0,0,1,2,1
5.29,6,9,2,1,2,2,4,7
5.295,3,6,3,2,1,1,2,1
5.3,1,0,3,0,2,0,1,3
5.305,1,4,4,1,2,1,0,3
5.31,0,4,2,1,0,0,1,3
5.315,1,3,9,1,1,2,1,1
5.32,3,1,1,1,1,0,2,2
5.325,1,10,4,1,0,2,1,2
5.33,2,3,7,0,1,0,0,2
5.335,2,1,9,4,0,1,0,2
5.34,3,0,4,3,0,1,1,0
5.345,3,1,3,1,2,2,0,10
5.35,1,1,6,3,2,4,4,15
5.355,0,2,6,3,1,1,2,10
5.36,0,2,6,0,2,2,2,3
5.365,1,7,3,2,2,1,3,6
5.37,0,2,1,3,0,2,1,5
5.375,5,5,2,3,3,3,3,5
5.38,1,2,18,1,0,1,0,4
5.385,1,2,34,2,1,1,0,2
5.39,1,1,5,1,0,0,1,8
5.395,1,0,14,1,0,1,1,14
5.4,2,0,8,0,1,0,2,2
5.405,5,3,6,3,2,2,3,2
5.41,1,2,7,1,1,1,1,1
5.415,1,5,4,1,2,0,2,5
5.42,6,5,15,5,1,2,1,2
5.425,2,2,4,0,0,0,2,13
5.43,1,8,9,3,0,1,1,7
5.435,1,6,10,0,0,1,1,1
5.44,3,2,3,1,1,2,1,2
5.445,3,0,5,0,1,1,2,0
5.45,5,8,1,2,1,1,1,2
5.455,3,3,6,2,0,1,2,3
5.46,0,0,6,3,3,2,2,2
5.465,3,1,7,1,1,1,0,1
5.47,2,7,7,0,0,2,3,5
5.475,2,6,20,1,1,0,0,0
5.48,0,4,4,0,0,1,1,1
5.485,1,8,27,2,1,0,0,5
5.49,4,5,8,0,2,1,0,0
5.495,9,5,1,1,2,1,1,1
5.5,1,1,2,2,2,3,2,0
5.505,1,6,13,4,0,0,1,1
5.51,3,2,4,1,0,2,3,4
5.515,1,4,0,1,3,2,1,0
5.52,1,4,6,2,2,4,2,2
5.525,2,0,2,0,1,0,1,1
5.53,1,1,5,1,1,0,0,2
5.535,1,2,1,4,2,2,2,1
5.54,2,1,3,1,1,0,3,2
5.545,1,3,6,2,3,2,2,2
5.55,1,1,0,3,2,2,2,2
5.555,1,2,2,1,2,0,1,1
5.56,1,3,10,3,1,1,1,0
5.565,1,2,19,3,0,1,2,0
5.57,2,2,18,2,1,1,0,0
5.575,6,14,9,3,1,1,1,0
5.58,0,8,11,1,2,0,1,2
5.585,4,3,19,2,1,1,1,3
5.59,2,5,12,3,1,1,0,2
5.595,2,4,1,3,3,2,1,0
5.6,1,3,12,2,2,1,1,0
5.605,0,3,15,3,0,1,1,5
5.61,5,5,16,5,4,3,2,10
5.615,3,3,20,0,1,2,1,5
5.62,4,12,15,1,1,0,1,1
5.625,0,7,9,1,2,1,1,3
5.63,4,11,7,2,2,3,3,3
5.635,1,3,1,0,1,0,1,0
5.64,3,1,1,2,1,1,1,12
5.645,6,1,1,3,2,2,3,23
5.65,1,6,1,0,1,0,2,4
5.655,6,12,9,2,1,1,2,5
5.66,2,1,8,1,1,2,2,3
5.665,1,4,14,3,1,3,0,5
5.67,2,0,6,3,3,4,0,4
5.675,4,9,22,0,1,5,5,1
5.68,3,11,7,3,3,2,1,1
5.685,2,7,3,1,2,2,1,7
5.69,1,1,3,1,2,4,2,0
5.695,1,0,19,2,1,0,1,3
5.7,1,3,3,3,1,3,2,3
5.705,0,2,11,3,2,0,2,4
5.71,2,8,16,3,2,3,4,6
5.715,2,4,1,2,1,1,0,2
5.72,5,8,16,3,3,1,1,10
5.725,1,2,1,0,1,2,0,6
5.73,1,2,14,1,0,1,1,8
5.735,0,6,0,1,2,0,2,10
5.74,1,5,6,1,1,2,1,6
5.745,4,2,13,3,1,2,2,8
5.75,4,1,8,3,4,1,1,4
5.755,6,5,1,2,2,1,1,1
5.76,3,11,2,1,1,1,1,1
5.765,1,8,2,1,1,2,1,0
5.77,0,1,2,0,1,1,1,5
5.775,2,2,3,1,0,1,0,12
5.78,1,2,12,1,1,1,0,11
5.785,2,3,8,1,1,0,3,11
5.79,1,3,21,1,1,1,0,9
5.795,1,6,8,1,1,2,0,14
5.8,1,1,15,1,0,1,1,9
5.805,2,2,6,3,1,1,1,5
5.81,0,2,1,2,2,0,2,5
5.815,2,1,7,0,1,2,0,1
5.82,1,3,7,0,1,1,1,7
5.825,1,1,2,1,1,0,1,6
5.83,1,9,6,4,3,3,2,5
5.835,1,0,2,2,3,1,1,2
5.84,1,3,9,1,1,1,1,0
5.845,3,6,16,0,3,2,1,1
5.85,1,0,1,1,1,1,0,2
5.855,1,1,1,1,0,1,1,5
5.86,3,2,2,3,4,1,2,6
5.865,4,4,13,1,1,0,2,4
5.87,4,3,29,2,3,5,2,4
5.875,4,9,36,3,2,0,0,2
5.88,4,5,6,2,1,0,1,5
5.885,6,3,5,0,0,1,3,3
5.89,3,3,2,1,2,3,1,4
5.895,1,6,13,0,0,2,1,2
5.9,2,9,10,1,1,2,2,0
5.905,1,8,3,3,2,1,1,8
5.91,2,11,13,2,3,2,0,0
5.915,1,12,23,1,0,0,1,6
5.92,2,0,6,2,0,1,0,8
5.925,1,1,1,0,2,1,3,15
5.93,4,0,14,2,0,1,1,1
5.935,1,4,4,2,3,2,1,3
5.94,3,3,2,0,3,2,4,1
5.945,0,9,4,2,4,2,1,9
5.95,2,3,4,0,1,1,0,1
5.955,4,9,1,1,2,1,2,2
5.96,2,5,4,1,0,0,1,9
5.965,4,16,5,4,2,3,7,1
5.97,4,17,4,4,4,4,1,17
5.975,1,4,4,1,1,3,5,20
5.98,7,9,2,0,1,0,1,10
5.985,5,0,4,0,2,2,2,1
5.99,4,5,2,1,2,1,2,3
5.995,1,5,2,3,2,1,1,6
6,5,0,3,4,3,4,2,13
6.005,3,3,6,0,1,2,1,5
6.01,1,2,13,2,0,0,0,5
6.015,0,5,17,1,2,3,0,6
6.02,0,6,11,3,3,1,2,2
6.025,2,9,12,0,1,2,1,4
6.03,7,10,13,0,0,2,1,3
6.035,3,2,4,2,1,1,0,3
6.04,5,12,13,3,2,4,2,2
6.045,2,3,8,6,1,4,0,1
6.05,1,1,15,0,1,0,2,5
6.055,0,6,9,3,0,0,1,1
6.06,4,7,4,4,0,1,1,1
6.065,3,5,2,5,3,0,1,1
6.07,5,0,10,4,0,3,1,5
6.075,0,2,6,2,0,0,1,0
6.08,1,8,7,2,2,2,1,1
6.085,0,6,8,2,2,0,1,1
6.09,6,4,9,2,0,1,1,4
6.095,1,10,9,3,2,2,2,1
6.1,4,2,10,2,1,1,2,0
6.105,1,5,1,3,0,0,2,0
6.11,5,15,2,3,1,2,1,2
6.115,2,3,3,2,4,2,3,1
6.12,5,3,7,1,0,1,0,11
6.125,5,0,12,1,0,1,0,6
6.13,1,1,16,3,2,2,3,0
6.135,2,4,12,2,0,0,1,1
6.14,4,6,5,1,1,2,0,2
6.145,3,10,16,3,2,3,1,3
6.15,4,5,2,2,4,1,1,7
6.155,2,3,6,0,1,0,1,3
6.16,4,2,5,1,2,2,3,3
6.165,1,0,2,0,0,2,1,0
6.17,1,7,4,1,1,0,0,10
6.175,2,3,4,0,1,0,1,5
6.18,2,5,2,1,2,0,1,7
6.185,1,1,7,0,2,1,1,3
6.19,5,8,15,3,2,3,2,5
6.195,1,2,12,3,2,2,0,4
6.2,0,4,14,1,0,2,1,13
6.205,2,1,1,0,2,1,2,3
6.21,1,5,2,1,2,2,1,0
6.215,2,2,2,0,1,1,0,4
6.22,4,2,1,1,1,2,2,1
6.225,0,5,1,4,4,2,4,5
6.23,0,6,3,2,0,0,1,4
6.235,1,3,6,1,0,2,1,4
6.24,0,6,10,3,1,1,1,4
6.245,3,5,7,1,0,0,0,3
6.25,3,5,11,5,1,2,3,5
6.255,3,5,40,3,3,2,1,10
6.26,2,10,32,2,2,0,0,1
6.265,0,4,4,0,1,1,2,2
6.27,1,4,4,0,1,2,1,2
6.275,0,1,6,1,1,0,2,4
6.28,1,1,4,1,0,3,1,2
6.285,2,2,6,0,1,0,2,6
6.29,8,8,1,0,2,2,0,8
6.295,6,7,10,1,1,0,0,2
6.3,2,5,6,3,2,2,2,2
6.305,0,7,4,1,1,0,1,3
6.31,1,1,12,2,1,1,3,5
6.315,1,2,3,0,3,3,4,1
6.32,4,6,1,1,1,1,1,1
6.325,4,5,4,1,2,3,0,8
6.33,2,1,3,1,1,0,2,10
6.335,6,2,9,2,3,3,4,15
6.34,1,1,3,0,1,1,1,2
6.345,1,1,1,1,3,2,3,2
6.35,2,4,11,2,0,0,1,1
6.355,2,4,6,1,0,0,1,1
6.36,8,13,2,2,2,3,2,6
6.365,2,1,7,0,1,0,1,2
6.37,0,5,5,3,2,0,1,1
6.375,2,4,23,2,1,1,2,3
6.38,1,4,18,2,2,1,1,1
6.385,0,4,0,0,1,2,2,1
6.39,4,0,9,2,1,1,2,0
6.395,1,1,9,2,1,0,1,0
6.4,1,4,12,1,3,1,3,2
6.405,2,1,2,1,1,2,0,3
6.41,5,0,5,0,2,3,3,2
6.415,2,1,5,1,1,1,1,0
6.42,4,4,2,0,1,0,2,1
6.425,1,2,3,3,2,1,1,5
6.43,4,2,3,1,0,0,1,18
6.435,1,3,9,2,1,1,0,2
6.44,2,6,11,3,1,1,1,2
6.445,1,1,2,3,2,1,1,3
6.45,1,7,1,0,1,2,0,5
6.455,0,13,13,4,3,5,4,0
6.46,3,0,6,2,1,1,1,4
6.465,3,3,4,2,2,1,1,1
6.47,2,5,2,1,1,2,1,4
6.475,3,5,5,1,1,2,1,4
6.48,1,5,3,3,3,1,1,3
6.485,1,10,1,1,2,3,2,2
6.49,0,6,4,1,0,0,1,2
6.495,3,3,5,1,2,1,1,3
6.5,0,6,23,1,1,1,1,6
6.505,1,1,7,0,0,0,1,9
6.51,1,1,7,6,2,2,2,15
6.515,4,11,10,2,0,0,1,0
6.52,6,5,0,1,2,1,1,8
6.525,6,4,7,4,4,2,3,8
6.53,2,4,7,2,0,1,1,10
6.535,2,4,6,1,1,1,1,3
6.54,0,0,6,1,1,0,0,4
6.545,3,4,4,4,5,3,3,1
6.55,1,3,21,3,1,4,1,3
6.555,3,3,16,6,3,0,3,1
6.56,3,1,6,2,0,0,1,3
6.565,3,2,9,1,0,1,0,4
6.57,3,1,1,3,1,4,1,2
6.575,1,5,4,1,1,1,0,2
6.58,2,2,3,3,1,2,3,2
6.585,4,3,7,1,1,0,1,4
6.59,1,2,7,2,2,2,0,8
6.595,4,2,8,0,2,2,1,15
6.6,2,1,3,0,2,1,0,4
6.605,0,1,3,0,1,0,0,6
6.61,3,4,10,2,1,2,2,5
6.615,2,4,12,2,1,2,1,4
6.62,3,6,23,4,2,0,1,4
6.625,3,5,5,1,0,1,2,4
6.63,3,5,6,2,1,1,1,12
6.635,1,6,16,1,2,1,3,7
6.64,1,4,6,2,1,1,2,1
6.645,2,6,11,3,1,1,1,3
6.65,0,8,5,3,3,2,2,1
6.655,5,5,22,3,1,1,1,4
6.66,2,1,6,1,2,1,2,11
6.665,4,1,2,0,2,1,0,9
6.67,2,2,5,1,3,3,1,5
6.675,2,4,2,0,1,1,1,2
6.68,3,2,3,3,1,2,2,0
6.685,1,1,3,1,0,1,3,0
6.69,2,5,7,1,0,0,1,2
6.695,4,5,6,1,0,1,0,1
6.7,4,4,2,0,1,1,1,2
6.705,1,3,7,0,0,1,0,2
6.71,1,5,5,3,2,0,1,13
6.715,2,0,9,1,3,2,1,4
6.72,1,3,10,0,2,1,2,5
6.725,0,7,17,1,1,1,1,1
6.73,1,0,13,3,2,1,3,8
6.735,2,3,2,1,2,1,1,1
6.74,0,1,6,0,2,3,1,6
6.745,2,9,2,2,0,0,1,10
6.75,1,3,4,3,2,2,5,1
6.755,0,1,7,2,0,0,1,0
6.76,5,0,7,0,1,2,2,4
6.765,3,1,1,3,2,2,0,5
6.77,2,2,1,2,1,1,1,3
6.775,0,4,9,0,1,2,1,2
6.78,2,2,7,1,0,0,0,4
6.785,1,0,19,1,1,1,0,2
6.79,4,2,9,1,0,0,0,3
6.795,2,2,2,1,2,1,3,1
6.8,1,5,5,2,1,1,2,6
6.805,2,3,6,1,2,3,1,6
6.81,2,0,6,2,1,0,0,1
6.815,2,1,4,2,0,1,0,3
6.82,1,2,2,4,1,1,1,2
6.825,2,3,13,2,1,1,3,2
6.83,4,2,4,2,1,1,1,5
6.835,6,6,7,2,1,1,1,4
6.84,2,1,4,1,0,1,1,8
6.845,2,6,16,4,3,2,1,2
6.85,3,4,0,2,2,2,1,1
6.855,3,6,3,1,1,0,1,0
6.86,3,1,1,2,0,2,1,2
6.865,2,4,3,2,2,0,0,3
6.87,4,4,1,4,4,4,2,0
6.875,0,2,0,1,2,1,2,0
6.88,1,7,20,1,1,1,1,0
6.885,0,7,18,1,0,1,1,3
6.89,6,1,4,2,2,1,1,1
6.895,4,10,5,2,0,0,0,1
6.9,2,5,2,1,1,2,0,6
6.905,1,2,1,1,2,2,2,12
6.91,1,5,6,1,2,1,0,2
6.915,1,4,13,2,3,3,2,7
6.92,2,1,3,1,0,0,0,2
6.925,4,7,4,3,2,2,1,1
6.93,3,0,3,5,3,2,3,2
6.935,4,6,0,0,1,1,0,3
6.94,2,3,0,1,1,2,1,3
6.945,2,3,8,2,2,1,1,5
6.95,1,2,28,0,1,0,1,5
6.955,6,11,42,4,1,1,3,2
6.96,1,9,5,1,0,1,0,3
6.965,3,1,1,3,1,3,1,4
6.97,0,1,3,1,2,3,0,0
6.975,6,7,1,2,2,0,1,4
6.98,2,0,10,1,2,1,2,5
6.985,5,7,5,1,2,2,1,3
6.99,1,0,6,0,1,2,2,3
6.995,0,1,7,2,1,1,0,0
7,2,1,11,0,2,3,1,2
7.005,1,1,3,1,0,0,1,6
7.01,0,4,7,0,2,1,2,9
7.015,0,7,3,1,1,2,0,2
7.02,5,12,3,4,3,0,2,3
7.025,1,3,9,1,4,3,1,2
7.03,2,0,17,0,1,1,1,6
7.035,1,2,31,1,2,2,2,2
7.04,3,4,25,4,2,2,1,0
7.045,1,1,0,1,3,0,1,1
7.05,2,1,1,1,0,1,0,1
7.055,2,2,8,0,1,2,0,6
7.06,3,6,5,2,2,3,2,2
7.065,4,2,21,4,2,1,2,0
7.07,3,2,25,2,3,2,1,0
7.075,6,2,6,2,2,3,3,1
7.08,4,8,1,2,2,2,2,6
7.085,1,6,6,1,1,1,1,2
7.09,3,7,16,1,0,0,2,2
7.095,0,1,3,1,1,2,2,0
7.1,3,2,5,1,3,1,0,3
7.105,4,1,6,1,1,0,1,4
7.11,3,4,10,1,1,1,1,4
7.115,1,3,3,0,1,0,2,0
7.12,5,2,4,1,0,0,1,4
7.125,3,2,6,1,1,0,1,9
7.13,4,5,9,2,0,1,0,1
7.135,3,3,10,1,3,3,0,0
7.14,2,5,15,1,1,2,0,1
7.145,2,0,6,1,1,0,0,0
7.15,3,2,1,1,0,3,1,3
7.155,1,0,6,1,2,1,3,3
7.16,3,6,15,2,2,1,0,2
7.165,2,6,9,3,0,3,1,1
7.17,2,0,7,3,2,0,1,4
7.175,4,4,8,0,1,1,0,1
7.18,3,1,11,1,0,1,1,2
7.185,0,1,11,1,2,1,3,12
7.19,3,8,7,0,3,1,2,13
7.195,0,1,0,0,0,1,1,2
7.2,0,2,2,1,1,2,1,1
7.205,0,2,17,2,1,5,1,2
7.21,1,5,9,1,0,1,1,3
7.215,0,2,5,4,1,1,3,0
7.22,0,2,8,2,2,2,2,2
7.225,2,2,10,1,0,1,2,5
7.23,1,2,0,1,0,2,0,1
7.235,1,2,4,0,2,1,0,2
7.24,2,3,7,2,0,0,0,1
7.245,2,4,3,2,1,3,2,4
7.25,0,3,12,0,0,3,0,1
7.255,2,1,1,3,1,1,0,0
7.26,1,3,13,4,3,1,3,2
7.265,1,1,5,1,1,1,1,1
7.27,5,5,13,2,2,0,0,0
7.275,2,1,9,1,1,1,0,0
7.28,5,4,1,1,1,1,1,3
7.285,1,0,2,1,1,0,0,4
7.29,5,4,7,0,1,1,1,1
7.295,1,0,0,0,2,1,1,1
7.3,1,1,2,3,0,1,2,1
7.305,2,1,6,0,0,0,2,2
7.31,1,0,0,1,1,1,1,1
7.315,3,1,0,1,1,0,0,1
7.32,2,3,7,3,3,2,1,0
7.325,1,0,9,1,2,2,0,2
7.33,0,1,0,3,3,2,2,1
7.335,4,1,14,0,0,1,1,3
7.34,0,3,23,2,0,1,1,1
7.345,1,0,4,3,3,0,2,1
7.35,1,1,8,2,2,3,3,1
7.355,1,3,2,1,0,1,0,0
7.36,4,2,1,2,1,2,1,0
7.365,1,1,3,1,0,1,1,1
7.37,2,1,0,1,0,2,1,1
7.375,1,1,1,3,1,2,1,0
7.38,0,1,7,1,3,1,1,0
7.385,5,2,1,1,3,1,2,2
7.39,1,0,4,0,2,3,1,1
7.395,1,2,3,0,1,2,2,1
7.4,2,2,4,1,0,2,0,3
7.405,1,1,1,1,4,4,2,4
7.41,2,0,3,2,1,1,0,8
7.415,2,4,4,3,3,2,0,4
7.42,1,0,3,1,2,1,3,0
7.425,0,4,7,2,2,1,1,1
7.43,3,4,5,1,2,3,2,4
7.435,2,4,2,4,2,3,2,1
7.44,2,3,4,3,3,3,2,3
7.445,1,3,2,2,2,2,0,1
7.45,3,1,4,2,1,1,1,0
7.455,2,1,4,1,0,0,0,1
7.46,2,3,7,2,1,1,1,2
7.465,1,3,15,3,2,1,1,3
7.47,1,11,3,1,1,1,0,1
7.475,5,3,10,1,2,2,1,2
7.48,1,8,17,2,2,1,1,2
7.485,2,0,5,1,1,1,4,3
7.49,4,4,1,2,0,1,1,2
7.495,1,4,8,2,2,1,1,2
7.5,2,3,1,0,2,1,1,1
7.505,2,4,7,3,2,2,1,5
7.51,2,5,6,2,3,3,2,0
7.515,2,5,4,0,1,1,2,3
7.52,0,4,0,2,2,2,1,7
7.525,0,0,1,0,0,0,1,3
7.53,1,2,0,1,2,2,1,0
7.535,1,0,4,2,1,0,0,4
7.54,2,2,5,1,1,0,2,0
7.545,1,0,4,3,0,1,0,1
7.55,1,1,0,0,2,1,0,2
7.555,1,5,4,0,2,1,1,1
7.56,2,4,11,2,3,3,0,0
7.565,4,6,4,1,1,1,1,1
7.57,2,1,13,1,1,0,1,0
7.575,2,1,23,4,1,1,2,4
7.58,1,2,10,0,2,0,1,0
7.585,1,1,0,2,1,3,1,2
7.59,1,3,3,0,0,1,2,0
7.595,0,0,3,0,3,0,0,1
7.6,1,1,13,2,2,0,0,0
7.605,0,3,9,0,1,0,1,2
7.61,1,5,2,3,2,4,0,0
7.615,1,3,5,0,0,2,2,4
7.62,6,6,7,1,1,1,1,10
7.625,1,5,6,1,2,1,2,14
7.63,2,4,11,3,0,1,0,2
7.635,3,5,1,2,0,2,1,3
7.64,2,3,8,1,1,0,1,0
7.645,1,0,4,3,0,2,2,5
7.65,1,2,4,2,1,3,2,2
7.655,1,3,2,1,1,1,0,4
7.66,1,1,1,1,1,0,1,3
7.665,1,0,6,1,1,3,1,0
7.67,1,0,5,1,1,1,1,2
7.675,2,3,17,3,1,4,2,0
7.68,0,2,9,1,1,1,1,2
7.685,3,1,6,2,0,2,1,1
7.69,4,2,3,0,2,2,0,1
7.695,3,1,1,0,3,1,1,1
7.7,5,8,6,4,3,4,1,3
7.705,3,1,5,1,1,0,1,0
7.71,2,1,1,0,1,1,1,0
7.715,1,3,1,1,0,0,1,0
7.72,2,4,0,0,1,1,0,5
7.725,2,3,4,2,1,1,1,12
7.73,3,4,19,3,2,1,2,3
7.735,0,1,4,0,1,0,0,2
7.74,1,1,1,1,0,2,2,6
7.745,3,2,1,2,1,0,3,0
7.75,2,1,4,0,2,1,1,1
7.755,1,1,10,1,1,0,0,3
7.76,2,7,8,4,3,3,2,3
7.765,2,1,2,3,4,3,0,5
7.77,3,4,9,1,3,0,2,11
7.775,1,0,7,0,1,2,1,0
7.78,0,3,1,0,2,1,1,0
7.785,1,2,3,0,1,0,1,1
7.79,2,1,3,2,1,1,2,12
7.795,5,6,2,4,3,3,4,14
7.8,1,2,2,1,0,1,0,7
7.805,0,1,0,1,1,2,1,1
7.81,2,3,1,0,1,1,0,3
7.815,1,2,1,2,2,2,2,1
7.82,2,2,2,0,2,1,1,2
7.825,5,3,3,2,2,1,3,1
7.83,2,3,8,2,2,3,2,2
7.835,2,1,4,0,3,1,0,2
7.84,0,3,6,1,3,3,1,6
7.845,1,1,1,0,1,0,0,3
7.85,4,7,7,3,2,1,1,3
7.855,3,0,1,2,1,2,2,0
7.86,1,0,3,1,2,1,3,0
7.865,1,0,5,3,3,3,2,7
7.87,1,2,0,0,2,1,1,4
7.875,1,1,4,0,1,1,1,6
7.88,2,5,0,3,2,3,2,16
7.885,0,0,2,1,2,0,1,2
7.89,0,3,2,2,1,1,1,1
7.895,3,3,1,1,0,0,0,0
7.9,0,2,10,2,0,2,0,8
7.905,1,0,5,1,2,2,1,2
7.91,1,2,4,1,1,3,2,4
7.915,0,3,0,1,2,1,0,3
7.92,2,4,2,0,0,0,1,2
7.925,2,1,8,2,0,2,1,6
7.93,1,0,1,1,0,2,0,3
7.935,3,3,3,2,0,2,1,1
7.94,1,1,13,1,0,1,0,0
7.945,0,1,5,0,1,0,2,2
7.95,2,0,4,2,0,1,0,1
7.955,4,4,1,3,1,2,0,3
7.96,1,1,6,1,1,3,1,1
7.965,1,1,1,3,0,0,2,2
7.97,0,1,2,0,1,2,0,2
7.975,2,2,6,0,2,0,1,0
7.98,1,0,7,2,2,1,1,13
7.985,5,7,7,2,1,2,2,13
7.99,1,4,8,0,2,2,1,1
7.995,0,2,4,1,2,0,1,1
8,2,6,8,2,1,1,1,0
8.005,1,1,2,2,3,3,0,3
8.01,5,4,3,3,3,3,2,8
8.015,2,2,4,0,1,1,0,0
8.02,1,5,8,2,1,1,0,4
8.025,2,4,4,1,0,1,1,4
8.03,1,1,3,2,1,0,2,1
8.035,2,1,5,2,1,2,3,1
8.04,2,1,5,1,2,3,3,1
8.045,2,2,6,2,0,1,0,3
8.05,0,0,2,2,0,1,0,13
8.055,3,3,4,3,1,3,1,13
8.06,1,1,13,1,1,0,1,2
8.065,3,3,6,3,2,0,1,2
8.07,2,4,12,2,0,2,2,1
8.075,2,2,5,1,1,1,0,1
8.08,0,1,7,0,1,0,0,4
8.085,2,8,10,4,2,2,2,3
8.09,1,4,9,1,1,2,0,0
8.095,6,7,17,5,4,4,2,8
8.1,1,3,10,0,2,2,0,8
8.105,2,2,3,1,1,1,2,2
8.11,1,8,7,0,1,1,2,3
8.115,1,4,4,2,4,0,3,0
8.12,1,0,2,3,2,1,3,1
8.125,2,4,4,1,2,2,1,2
8.13,1,1,6,1,1,0,1,2
8.135,1,0,2,2,1,1,1,17
8.14,2,7,11,4,2,1,1,15
8.145,1,4,1,2,0,2,0,2
8.15,2,4,7,1,1,0,1,4
8.155,1,0,13,2,1,2,2,1
8.16,7,8,11,2,1,0,1,3
8.165,4,2,1,0,1,0,1,1
8.17,1,0,4,0,1,2,1,2
8.175,1,5,2,0,2,1,1,2
8.18,2,3,11,1,2,2,2,4
8.185,6,11,43,4,1,1,4,6
8.19,2,0,33,3,2,2,0,1
8.195,4,14,6,7,4,4,1,5
8.2,2,4,7,1,2,1,1,1
8.205,0,6,7,1,2,0,0,2
8.21,0,9,25,3,2,1,0,13
8.215,2,1,8,1,1,1,3,17
8.22,2,2,8,1,1,0,0,0
8.225,3,4,3,3,3,2,3,1
8.23,3,5,7,1,1,1,2,5
8.235,3,6,1,1,1,3,1,5
8.24,0,3,9,0,2,0,2,1
8.245,4,2,10,0,1,1,3,7
8.25,1,4,7,3,1,1,1,6
8.255,0,0,11,1,2,1,3,2
8.26,0,4,9,0,1,2,2,2
8.265,1,3,15,1,2,0,0,2
8.27,3,3,6,3,1,3,3,9
8.275,1,1,5,3,2,0,2,10
8.28,6,4,15,4,4,3,3,5
8.285,2,0,8,2,5,2,1,2
8.29,4,12,30,0,1,2,1,3
8.295,3,4,0,1,0,1,1,2
8.3,1,5,11,1,1,1,1,1
8.305,2,12,35,1,0,1,2,7
8.31,2,4,7,2,1,1,1,13
8.315,9,1,18,5,4,5,3,4
8.32,4,12,57,6,2,1,0,0
8.325,3,2,21,0,0,0,0,1
8.33,3,3,14,3,1,3,3,3
8.335,7,3,2,1,0,2,4,1
8.34,7,14,28,3,4,2,1,1
8.345,0,3,20,1,1,0,0,2
8.35,2,1,4,3,0,2,2,0
8.355,3,4,1,1,0,0,0,2
8.36,1,1,7,2,0,1,2,3
8.365,0,1,4,4,4,2,1,2
8.37,3,10,30,5,1,0,1,11
8.375,7,3,29,4,0,1,2,0
8.38,2,1,20,3,3,1,0,7
8.385,1,6,10,0,1,1,1,6
8.39,7,3,1,3,4,3,1,3
8.395,1,4,28,2,1,0,1,3
8.4,3,3,18,5,2,2,3,1
8.405,1,3,6,2,0,4,1,1
8.41,2,6,13,1,1,1,2,6
8.415,6,10,16,2,1,2,1,6
8.42,1,3,4,4,1,1,1,0
8.425,3,6,7,3,3,0,1,1
8.43,2,6,15,1,3,1,4,3
8.435,1,2,1,1,0,2,1,5
8.44,1,9,17,3,1,2,0,1
8.445,1,4,1,3,2,1,1,1
8.45,0,2,2,3,2,1,1,1
8.455,0,3,0,0,0,0,1,1
8.46,1,0,3,0,1,1,1,1
8.465,0,3,3,9,0,1,0,2
8.47,3,7,13,7,3,0,0,4
8.475,5,1,5,2,3,2,3,2
8.48,0,3,2,0,2,1,0,3
8.485,3,2,0,1,1,0,2,4
8.49,1,0,3,5,1,1,1,3
8.495,3,1,3,6,2,1,1,1
8.5,1,1,5,3,0,1,1,1
8.505,0,7,23,3,1,2,0,0
8.51,0,0,10,0,1,0,2,2
8.515,1,4,13,1,1,1,1,0
8.52,0,2,0,6,5,3,2,10
8.525,3,4,18,2,3,2,3,1
8.53,2,5,7,3,0,1,1,7
8.535,0,7,5,4,4,3,0,0
8.54,4,3,1,1,0,0,0,1
8.545,2,3,7,4,0,1,1,5
8.55,0,4,26,4,2,2,2,0
8.555,0,0,11,1,1,0,0,2
8.56,1,1,4,1,1,4,2,0
8.565,2,3,1,0,2,1,1,3
8.57,2,1,8,3,2,1,2,3
8.575,1,5,6,2,1,0,0,1
8.58,2,0,2,0,2,1,0,3
8.585,0,1,2,1,0,1,1,2
8.59,3,2,18,0,0,0,1,1
8.595,2,0,33,1,0,2,2,0
8.6,2,5,26,2,1,0,1,3
8.605,1,4,3,3,2,1,1,1
8.61,1,1,32,2,1,1,1,2
8.615,1,0,8,0,2,1,2,0
8.62,1,5,12,5,2,1,1,4
8.625,0,1,5,1,0,0,0,2
8.63,2,7,25,6,4,2,0,1
8.635,0,0,20,0,1,1,0,1
8.64,3,2,11,2,1,1,2,2
8.645,2,6,3,0,1,1,1,0
8.65,4,2,1,1,0,1,2,2
8.655,4,2,2,1,1,2,2,4
8.66,1,4,6,1,0,1,0,0
8.665,4,1,2,1,0,1,0,2
8.67,1,4,21,0,2,2,1,1
8.675,1,10,16,7,3,4,2,3
8.68,3,6,20,7,3,3,0,1
8.685,6,11,38,2,0,0,1,3
8.69,3,2,33,2,2,1,1,0
8.695,3,0,2,2,2,3,2,0
8.7,6,6,5,7,5,3,3,3
8.705,10,7,4,2,3,3,1,0
8.71,7,7,11,4,2,0,2,1
8.715,2,5,7,0,1,1,0,1
8.72,5,3,27,6,3,2,2,2
8.725,3,5,18,2,0,1,0,1
8.73,1,5,18,0,1,0,0,1
8.735,3,4,13,3,2,1,0,0
8.74,0,3,12,8,2,2,2,1
8.745,2,0,5,3,4,2,4,2
8.75,0,3,15,3,3,1,0,11
8.755,6,8,6,3,3,2,1,6
8.76,0,0,5,1,2,3,1,2
8.765,5,6,17,3,1,1,2,7
8.77,3,4,19,7,3,2,2,9
8.775,0,6,2,1,1,3,1,5
8.78,0,8,14,6,3,3,1,7
8.785,1,3,9,3,2,1,0,4
8.79,4,2,13,3,1,0,2,3
8.795,2,2,3,1,2,3,1,1
8.8,2,2,7,0,1,1,2,2
8.805,1,5,9,2,2,2,2,2
8.81,1,2,1,1,0,1,0,2
8.815,1,1,3,2,2,1,1,2
8.82,3,0,5,0,1,1,0,8
8.825,6,1,0,4,2,2,3,7
8.83,1,0,4,1,0,2,1,3
8.835,0,2,19,5,0,1,1,1
8.84,9,3,6,2,3,3,1,1
8.845,2,4,18,2,0,1,1,2
8.85,9,2,26,3,0,1,1,0
8.855,4,0,4,2,2,0,2,2
8.86,11,3,12,6,1,0,0,7
8.865,2,0,8,1,1,2,0,1
8.87,6,5,21,3,3,2,1,1
8.875,12,6,11,0,5,2,9,0
8.88,6,5,10,0,1,2,7,1
8.885,9,8,28,3,2,1,7,1
8.89,8,7,49,6,2,1,10,3
8.895,3,2,12,3,3,3,2,8
8.9,6,4,1,2,0,1,3,11
8.905,5,2,9,1,2,2,2,10
8.91,4,1,7,0,2,1,1,5
8.915,5,3,6,1,1,2,10,7
8.92,6,2,0,1,2,2,5,8
8.925,0,1,4,1,1,1,1,1
8.93,9,4,10,3,2,1,0,5
8.935,5,6,9,2,1,2,1,3
8.94,0,7,9,0,0,2,5,5
8.945,14,11,1,2,1,1,25,0
8.95,14,2,7,2,4,2,2,6
8.955,13,7,4,5,1,1,5,7
8.96,2,4,28,0,1,4,2,10
8.965,3,2,24,3,2,2,15,16
8.97,3,5,22,1,1,1,4,3
8.975,9,1,23,2,2,0,5,2
8.98,4,3,14,4,2,1,3,4
8.985,3,2,9,1,0,2,3,4
8.99,3,3,13,3,3,2,0,3
8.995,2,1,5,2,1,1,3,3
9,1,4,10,1,1,0,1,2
9.005,4,1,2,2,0,1,7,6
9.01,3,2,15,4,1,1,1,1
9.015,0,1,17,2,1,1,12,3
9.02,0,1,2,3,1,3,3,5
9.025,8,4,5,2,2,4,2,1
9.03,4,0,5,1,0,3,19,2
9.035,1,4,19,4,2,1,16,4
9.04,1,7,16,0,1,2,3,12
9.045,2,5,7,1,2,1,8,10
9.05,6,1,15,1,2,2,6,6
9.055,1,3,5,3,1,1,1,0
9.06,2,6,26,2,0,2,3,3
9.065,4,9,19,0,2,1,1,2
9.07,3,5,10,4,1,1,4,1
9.075,2,1,16,1,4,7,5,7
9.08,2,1,2,1,0,0,3,3
9.085,0,1,4,1,0,1,1,3
9.09,4,3,13,1,0,1,4,2
9.095,0,3,12,3,0,2,1,0
9.1,4,4,10,1,3,0,3,3
9.105,3,2,1,2,2,1,2,2
9.11,2,1,1,1,3,0,2,3
9.115,2,4,7,4,3,3,11,4
9.12,3,3,2,4,2,0,19,2
9.125,2,0,4,1,1,2,5,5
9.13,0,0,2,2,1,1,4,15
9.135,2,0,0,0,0,0,4,15
9.14,1,2,5,2,1,0,6,10
9.145,3,3,18,2,3,3,10,9
9.15,2,2,26,2,1,2,6,0
9.155,0,3,4,0,2,1,0,9
9.16,1,4,12,1,1,1,4,3
9.165,0,3,5,2,2,0,1,4
9.17,1,1,4,2,1,1,6,2
9.175,2,0,2,1,1,0,2,1
9.18,1,3,3,3,4,2,2,4
9.185,1,1,2,1,0,1,1,1
9.19,1,1,6,1,2,2,3,6
9.195,2,5,8,2,4,3,9,7
9.2,1,2,10,0,0,1,1,13
9.205,4,5,2,2,1,3,7,5
9.21,1,4,6,1,1,1,4,7
9.215,4,5,20,1,1,0,5,5
9.22,4,3,1,1,3,3,6,10
9.225,2,4,1,4,1,0,5,2
9.23,1,1,14,1,0,1,4,1
9.235,5,5,10,2,1,2,5,9
9.24,1,7,4,3,2,1,2,4
9.245,1,0,5,2,1,0,3,1
9.25,2,2,8,2,2,2,3,1
9.255,1,1,5,3,2,0,3,2
9.26,5,3,8,2,0,2,9,7
9.265,6,5,1,0,1,2,2,10
9.27,2,0,1,2,1,1,2,11
9.275,0,0,9,1,1,0,19,1
9.28,2,1,40,2,1,0,15,3
9.285,2,5,32,4,3,2,8,2
9.29,2,0,0,2,1,1,3,2
9.295,2,3,8,0,0,1,2,8
9.3,4,10,24,1,4,3,6,5
9.305,0,2,20,4,3,2,2,0
9.31,1,4,2,1,2,1,8,5
9.315,1,1,8,1,1,4,5,6
9.32,3,2,17,7,3,1,5,1
9.325,0,1,5,3,4,3,6,4
9.33,2,1,7,2,3,1,6,2
9.335,6,7,6,1,2,3,2,4
9.34,0,3,3,1,2,0,1,20
9.345,4,0,8,1,1,0,6,33
9.35,1,3,14,1,1,0,2,0
9.355,2,2,5,1,1,2,5,3
9.36,4,4,8,3,4,4,8,5
9.365,2,3,4,2,1,0,1,9
9.37,2,1,1,2,2,1,6,1
9.375,0,0,7,1,2,2,2,3
9.38,1,1,2,1,1,1,3,4
9.385,3,1,4,1,1,2,2,8
9.39,0,6,12,3,2,2,6,2
9.395,4,1,20,2,1,1,15,2
9.4,1,1,4,1,2,0,1,1
9.405,0,3,8,2,1,0,3,1
9.41,1,0,12,0,1,1,2,1
9.415,3,4,1,1,0,0,5,1
9.42,1,3,5,6,2,2,1,3
9.425,1,6,0,2,1,0,5,0
9.43,1,1,16,4,4,2,6,7
9.435,1,1,1,3,1,0,13,4
9.44,2,0,3,2,1,0,7,6
9.445,6,1,3,1,4,2,1,0
9.45,5,3,2,0,1,1,0,2
9.455,1,3,7,3,2,2,2,1
9.46,2,1,13,1,1,1,6,6
9.465,4,6,1,0,1,1,2,4
9.47,1,4,4,3,1,1,2,1
9.475,4,3,11,3,3,0,3,2
9.48,2,6,5,0,1,1,6,1
9.485,3,3,6,2,1,2,0,4
9.49,9,3,4,1,1,1,11,10
9.495,1,3,16,2,2,2,2,0
9.5,5,1,11,2,1,0,2,1
9.505,2,3,0,1,3,3,2,3
9.51,1,2,5,2,0,1,7,4
9.515,0,0,4,1,1,1,3,1
9.52,5,4,9,2,2,0,1,1
9.525,1,2,2,0,0,0,0,4
9.53,4,2,0,1,1,1,2,2
9.535,2,3,1,0,1,2,6,4
9.54,2,2,2,2,2,0,2,3
9.545,2,1,3,2,2,0,3,3
9.55,1,4,2,3,2,2,4,4
9.555,0,2,5,1,1,0,2,5
9.56,2,4,7,2,0,2,2,1
9.565,2,3,5,1,2,3,1,2
9.57,2,1,3,2,3,2,0,4
9.575,1,0,14,1,0,0,2,1
9.58,0,3,19,2,1,0,0,1
9.585,6,1,4,1,3,2,1,3
9.59,1,0,3,2,0,3,19,1
9.595,3,3,5,2,0,1,16,2
9.6,2,4,17,2,3,4,3,4
9.605,3,1,6,1,2,1,0,1
9.61,0,5,12,1,0,3,3,3
9.615,3,4,2,1,4,2,5,6
9.62,0,0,5,1,2,3,0,4
9.625,0,7,14,1,0,0,1,4
9.63,2,5,19,3,1,2,3,9
9.635,3,1,1,0,1,1,1,1
9.64,2,1,13,3,3,1,2,3
9.645,4,1,11,0,1,4,6,5
9.65,2,3,4,3,4,2,2,5
9.655,2,2,3,2,3,2,2,1
9.66,3,3,7,3,3,2,3,4
9.665,2,0,1,3,2,2,1,1
9.67,2,2,8,4,3,4,3,2
9.675,2,1,1,1,1,3,4,4
9.68,1,3,1,3,3,3,1,7
9.685,3,3,7,0,1,0,1,0
9.69,3,6,10,3,0,2,9,5
9.695,3,2,0,0,1,1,10,16
9.7,2,2,6,1,1,3,17,15
9.705,2,4,6,1,1,3,5,3
9.71,3,2,6,2,3,4,6,5
9.715,2,1,8,1,0,1,2,5
9.72,1,3,19,4,1,0,7,10
9.725,3,4,7,2,2,0,5,1
9.73,0,3,9,3,1,0,2,0
9.735,1,5,1,2,1,3,3,8
9.74,1,2,3,2,0,1,5,3
9.745,1,1,7,3,1,3,2,2
9.75,2,1,9,1,1,1,4,3
9.755,0,1,2,2,2,3,4,11
9.76,2,1,8,2,0,1,2,1
9.765,4,3,2,1,2,2,1,2
9.77,1,3,5,2,3,2,1,6
9.775,1,4,9,1,1,0,2,12
9.78,2,2,3,3,3,3,3,14
9.785,2,1,12,1,1,1,0,0
9.79,3,4,19,3,0,0,2,1
9.795,1,3,15,2,3,2,3,2
9.8,2,5,14,2,1,0,6,1
9.805,1,4,1,1,0,2,6,1
9.81,1,2,3,2,2,2,3,1
9.815,4,4,9,3,1,0,7,6
9.82,0,3,27,5,3,2,2,4
9.825,3,2,14,0,3,1,8,7
9.83,1,2,1,0,3,2,3,1
9.835,1,1,4,0,1,1,2,4
9.84,8,5,12,2,0,2,2,2
9.845,5,1,6,4,2,1,2,1
9.85,4,2,4,1,2,1,7,2
9.855,5,5,10,4,2,1,2,6
9.86,2,7,22,6,1,0,1,2
9.865,2,3,1,1,1,2,2,1
9.87,1,1,2,1,0,0,0,2
9.875,1,2,6,1,2,0,3,5
9.88,3,2,11,0,1,0,2,11
9.885,5,3,24,4,2,2,3,12
9.89,1,1,2,1,1,2,3,2
9.895,5,1,6,1,0,3,3,6
9.9,0,1,5,1,0,0,1,5
9.905,0,5,29,4,1,0,14,3
9.91,2,5,13,2,1,1,13,2
9.915,2,0,7,1,1,0,2,0
9.92,1,0,5,2,0,0,0,2
9.925,1,2,2,2,1,1,3,1
9.93,2,1,3,1,2,1,6,0
9.935,0,1,4,1,1,0,1,4
9.94,2,2,10,2,2,0,1,5
9.945,0,0,0,2,3,2,4,3
9.95,1,0,7,1,1,4,5,1
9.955,3,3,7,2,1,1,2,0
9.96,0,3,8,0,0,3,2,4
9.965,2,7,21,2,1,1,4,15
9.97,4,1,2,2,3,2,3,15
9.975,0,3,3,2,1,2,3,3
9.98,4,4,9,4,1,0,2,1
9.985,1,1,3,0,1,1,0,1
9.99,2,2,7,0,1,1,1,5
9.995,3,2,7,2,1,3,3,1
10,2,4,5,3,3,2,1,12
10.005,4,4,0,1,0,1,2,4
10.01,1,0,4,2,1,0,3,3
10.015,1,3,8,1,0,1,4,4
10.02,4,1,7,2,3,1,1,4
10.025,0,1,2,4,1,0,2,4
10.03,6,2,1,0,2,1,2,2
10.035,1,1,0,1,3,2,14,1
10.04,3,3,3,1,2,1,16,4
10.045,2,1,4,2,1,1,1,10
10.05,3,3,3,1,2,1,2,0
10.055,1,0,9,0,2,1,0,2
10.06,5,10,32,7,2,1,11,0
10.065,1,3,17,2,4,2,3,4
10.07,0,1,4,1,1,1,2,1
10.075,3,3,8,5,0,0,0,3
10.08,1,1,2,2,1,2,3,5
10.085,0,1,16,0,2,2,1,5
10.09,2,1,23,3,2,1,4,1
10.095,5,4,3,0,1,0,2,4
10.1,0,0,4,2,1,1,1,4
10.105,2,2,9,1,1,3,5,1
10.11,1,3,6,2,4,2,0,2
10.115,1,1,7,1,2,1,4,4
10.12,5,3,6,1,1,1,3,1
10.125,0,3,0,0,1,3,2,0
10.13,0,0,3,1,1,0,1,2
10.135,3,1,0,1,1,1,10,2
10.14,3,3,5,3,2,2,14,1
10.145,1,1,1,2,3,1,0,1
10.15,3,4,1,3,3,4,3,2
10.155,4,0,4,3,0,1,0,1
10.16,2,2,4,2,1,1,6,1
10.165,2,7,27,3,0,2,1,8
10.17,1,2,0,2,2,0,5,11
10.175,1,2,1,0,2,1,0,0
10.18,4,1,3,1,0,2,7,7
10.185,0,2,1,3,2,0,3,2
10.19,2,0,14,3,1,0,6,4
10.195,2,0,6,1,2,3,1,1
10.2,1,1,6,1,1,1,0,3
10.205,4,3,4,2,3,2,2,6
10.21,2,4,10,2,1,0,6,1
10.215,1,5,3,2,2,1,6,1
10.22,0,2,3,2,0,1,0,2
10.225,2,2,1,1,2,1,4,3
10.23,4,4,1,1,0,2,0,0
10.235,1,3,10,1,0,2,2,5
10.24,2,0,21,0,2,0,6,5
10.245,0,1,27,3,0,1,1,5
10.25,5,3,6,0,1,2,0,4
10.255,1,0,1,3,2,2,14,1
10.26,3,0,4,1,1,0,10,1
10.265,2,7,12,2,2,0,7,9
10.27,8,3,14,0,3,0,2,10
10.275,3,1,13,3,2,1,2,3
10.28,2,1,5,2,2,3,6,2
10.285,3,2,0,0,1,2,0,2
10.29,2,3,16,0,1,1,2,5
10.295,2,5,26,5,0,0,1,5
10.3,2,0,0,2,0,0,3,2
10.305,2,4,17,1,2,2,2,6
10.31,1,1,7,0,2,1,1,0
10.315,6,3,5,0,1,1,4,2
10.32,0,6,11,3,1,0,2,1
10.325,1,2,4,1,2,1,4,4
10.33,4,5,5,0,2,1,1,3
10.335,2,1,2,2,1,1,5,4
10.34,2,1,1,0,3,2,1,4
10.345,1,1,12,0,0,1,1,6
10.35,1,3,6,2,0,1,1,3
10.355,0,2,5,3,4,3,7,2
10.36,7,6,1,4,2,4,4,9
10.365,1,1,5,0,1,2,6,17
10.37,0,0,0,0,1,0,5,1
10.375,1,2,9,1,1,1,5,2
10.38,0,3,8,2,3,2,6,8
10.385,2,0,5,0,2,1,2,1
10.39,1,1,0,4,3,4,5,2
10.395,4,2,7,1,2,1,3,7
10.4,1,1,11,4,2,0,2,1
10.405,3,3,5,0,0,2,4,3
10.41,1,2,3,0,1,3,3,3
10.415,6,3,8,1,0,1,2,2
10.42,4,2,1,1,1,1,0,2
10.425,2,3,1,4,2,1,7,2
10.43,1,2,0,0,1,1,2,0
10.435,1,1,4,2,1,2,1,1
10.44,5,1,13,2,2,2,5,3
10.445,4,5,22,5,1,0,1,3
10.45,2,1,0,1,1,1,3,0
10.455,0,3,16,4,1,1,0,1
10.46,2,3,8,1,1,1,2,4
10.465,1,1,3,2,2,1,1,2
10.47,3,1,1,3,1,1,0,2
10.475,0,1,4,0,0,1,1,0
10.48,1,0,14,4,0,3,4,0
10.485,4,3,8,1,0,1,3,12
10.49,3,1,5,2,2,1,6,17
10.495,1,5,20,1,0,1,1,1
10.5,0,1,4,0,0,0,1,1
10.505,0,1,6,2,0,0,1,1
10.51,2,0,9,1,0,1,1,5
10.515,3,6,14,6,3,4,3,1
10.52,1,0,0,1,1,2,1,4
10.525,0,0,1,2,2,0,1,2
10.53,1,3,2,3,3,1,1,3
10.535,1,1,4,2,1,1,1,5
10.54,3,2,3,1,2,1,0,3
10.545,2,2,4,0,0,3,0,5
10.55,1,1,3,2,2,1,3,1
10.555,3,4,3,5,3,1,3,0
10.56,4,1,3,5,3,4,1,4
10.565,0,2,6,1,1,0,1,2
10.57,0,3,9,1,1,2,0,0
10.575,2,1,1,1,1,1,2,2
10.58,0,4,8,0,1,0,1,2
10.585,3,3,3,2,1,0,0,4
10.59,2,1,2,2,1,1,2,1
10.595,1,1,0,0,4,4,5,2
10.6,2,4,5,2,1,1,17,3
10.605,0,1,1,1,1,0,14,1
10.61,4,2,4,0,2,2,4,1
10.615,1,2,3,2,0,0,2,1
10.62,2,2,5,0,0,2,3,0
10.625,2,2,11,2,2,3,6,2
10.63,3,2,14,2,1,1,1,1
10.635,2,1,11,3,1,1,0,2
10.64,0,5,29,3,1,0,2,0
10.645,2,1,15,0,0,2,2,1
10.65,1,4,2,1,0,4,2,1
10.655,1,1,9,3,1,0,1,1
10.66,0,2,3,0,1,1,4,1
10.665,1,4,6,2,0,1,2,2
10.67,2,2,5,1,0,1,3,1
10.675,2,3,3,1,1,1,1,0
10.68,2,1,9,3,1,1,3,0
10.685,0,4,5,1,2,0,2,0
10.69,5,6,2,2,3,0,1,0
10.695,3,0,4,2,2,1,0,1
10.7,5,2,17,0,2,2,2,3
10.705,1,4,18,4,1,3,6,2
10.71,2,2,2,0,2,1,0,16
10.715,4,0,6,1,1,1,0,14
10.72,1,0,7,1,0,0,1,1
10.725,3,2,4,0,2,1,1,2
10.73,1,2,2,3,3,1,2,2
10.735,0,0,1,1,3,0,1,3
10.74,1,1,0,1,1,3,1,2
10.745,4,3,1,1,1,1,0,1
10.75,3,2,6,2,0,2,1,2
10.755,0,3,11,0,1,0,1,1
10.76,2,3,7,2,1,1,1,3
10.765,1,5,17,3,2,0,0,1
10.77,0,2,6,1,0,0,0,5
10.775,1,3,3,4,2,3,2,2
10.78,2,2,4,2,2,2,0,3
10.785,1,3,4,1,2,1,3,1
10.79,6,12,10,1,1,0,1,4
10.795,2,1,33,3,1,1,1,1
10.8,2,1,6,2,2,0,0,0
10.805,3,4,4,3,3,3,3,2
10.81,4,5,11,3,2,0,0,3
10.815,4,5,0,3,2,3,2,9
10.82,2,2,1,1,3,0,0,2
10.825,2,0,6,3,0,1,1,2
10.83,2,1,7,1,0,2,2,2
10.835,3,1,5,1,1,1,2,4
10.84,2,1,9,2,2,2,1,0
10.845,3,3,12,1,0,1,0,1
10.85,0,1,22,2,4,2,1,3
10.855,1,0,11,1,1,0,1,3
10.86,1,2,5,1,2,3,1,1
10.865,0,2,7,2,1,2,0,1
10.87,1,0,8,1,2,1,3,4
10.875,0,0,4,1,3,3,1,3
10.88,3,0,13,2,1,0,1,1
10.885,0,3,14,2,0,2,1,2
10.89,2,4,5,1,0,1,1,2
10.895,0,0,7,0,2,2,0,1
10.9,1,0,4,0,1,2,2,1
10.905,2,1,7,3,1,1,1,2
10.91,1,3,7,0,1,1,1,2
10.915,0,1,7,0,1,1,1,0
10.92,4,6,6,1,2,2,0,2
10.925,1,0,4,1,1,3,0,0
10.93,1,2,4,0,1,2,0,0
10.935,2,2,2,2,1,0,2,1
10.94,2,2,12,2,2,3,2,1
10.945,5,4,30,3,1,3,2,1
10.95,1,2,0,1,1,1,0,2
10.955,1,2,6,1,2,0,0,1
10.96,1,1,4,2,0,0,0,1
10.965,2,0,5,1,0,0,2,0
10.97,3,4,4,2,1,4,1,2
10.975,1,4,18,2,2,3,2,4
10.98,2,2,9,3,3,1,1,7
10.985,2,1,16,0,3,2,4,1
10.99,2,2,7,1,1,1,1,3
10.995,4,1,7,2,3,2,2,3
11,1,1,9,2,2,1,1,0
11.005,0,1,10,4,1,0,0,5
11.01,2,0,8,0,2,2,1,0
11.015,1,1,19,2,4,2,1,1
11.02,1,5,36,5,0,3,1,0
11.025,0,0,8,2,4,3,3,3
11.03,1,2,3,1,1,0,2,1
11.035,2,1,0,0,0,2,0,2
11.04,0,3,11,1,0,0,0,1
11.045,1,1,5,1,1,0,0,1
11.05,4,2,2,1,2,2,0,4
11.055,1,0,5,2,1,1,0,1
11.06,1,0,12,2,1,0,1,0
11.065,1,0,2,3,3,1,1,1
11.07,0,0,2,1,1,1,1,0
11.075,1,0,2,1,1,2,1,2
11.08,3,3,4,1,0,1,0,5
11.085,1,1,1,2,1,2,1,5
11.09,1,5,11,2,1,1,2,1
11.095,0,1,25,0,2,2,1,3
11.1,2,0,27,6,3,2,2,4
11.105,0,0,10,1,0,2,1,4
11.11,1,2,8,2,0,1,2,3
11.115,1,1,3,1,1,0,0,3
11.12,2,1,14,0,1,2,1,2
11.125,1,1,0,0,0,0,0,1
11.13,2,5,1,1,0,1,2,2
11.135,1,2,10,0,2,1,1,1
11.14,1,1,9,1,1,1,1,2
11.145,2,0,7,2,1,3,0,3
11.15,1,2,10,3,1,1,0,0
11.155,2,3,10,2,3,2,2,4
11.16,2,2,2,2,1,2,1,1
11.165,4,4,1,3,4,2,0,1
11.17,0,4,7,4,3,2,1,0
11.175,1,2,3,4,1,0,1,4
11.18,4,0,1,2,0,0,2,8
11.185,0,3,6,4,2,1,1,0
11.19,1,2,13,0,2,1,0,5
11.195,1,0,0,1,1,2,0,1
11.2,1,1,7,2,2,2,2,2
11.205,0,0,2,0,1,1,0,1
11.21,3,2,6,1,2,1,0,1
11.215,1,1,8,3,3,0,2,1
11.22,3,2,11,1,3,3,2,1
11.225,0,1,3,3,2,1,3,2
11.23,1,1,14,3,3,2,1,1
11.235,1,6,18,2,1,1,2,2
11.24,2,5,9,1,0,3,0,1
11.245,4,4,2,0,2,1,1,1
11.25,0,2,2,0,0,1,0,0
11.255,4,5,1,1,2,2,1,3
11.26,0,3,20,4,2,1,2,1
11.265,1,0,3,0,1,2,1,0
11.27,2,0,6,0,1,2,4,1
11.275,3,2,5,1,0,0,0,1
11.28,4,3,3,4,5,3,1,3
11.285,1,0,0,3,0,2,0,7
11.29,0,1,3,1,2,4,0,0
11.295,3,3,9,3,2,2,1,1
11.3,4,1,1,0,0,1,0,4
11.305,1,4,19,4,2,1,1,1
11.31,2,2,1,2,3,2,2,3
11.315,1,3,8,2,1,1,1,1
11.32,0,1,6,2,2,1,0,2
11.325,1,5,3,0,1,2,1,1
11.33,0,1,10,1,0,2,1,2
11.335,3,3,6,3,2,2,2,2
11.34,1,2,5,0,2,0,2,3
11.345,0,2,7,1,1,1,1,0
11.35,1,0,2,1,0,0,2,0
11.355,2,1,1,2,4,2,3,3
11.36,1,1,11,0,1,3,0,1
11.365,2,3,5,3,1,2,1,2
11.37,1,2,7,1,2,0,0,0
11.375,1,4,6,5,1,1,0,3
11.38,4,3,5,0,2,2,1,1
11.385,1,2,4,0,2,0,1,1
11.39,0,1,5,0,2,3,0,2
11.395,2,1,9,1,1,1,0,0
11.4,3,2,0,1,1,1,2,0
11.405,4,6,6,5,2,0,2,1
11.41,1,3,16,0,1,3,2,1
11.415,0,1,8,0,1,2,0,0
11.42,3,5,8,3,1,1,2,2
11.425,2,3,5,0,1,0,2,2
11.43,2,2,4,2,0,0,1,2
11.435,1,2,0,1,1,3,1,0
11.44,0,1,5,0,1,3,1,14
11.445,0,1,6,2,2,4,3,16
11.45,1,0,7,0,0,0,2,1
11.455,4,3,16,2,1,2,1,2
11.46,3,2,12,1,2,3,1,1
11.465,1,1,0,0,2,1,1,4
11.47,0,3,7,1,0,1,1,1
11.475,1,1,6,0,0,1,1,2
11.48,3,2,5,3,1,1,1,3
11.485,6,9,16,3,1,1,0,2
11.49,4,2,1,2,2,2,1,4
11.495,1,7,16,1,0,0,1,1
11.5,1,0,3,3,2,2,2,3
11.505,2,0,3,0,1,0,3,0
11.51,2,5,9,2,2,1,2,1
11.515,1,4,4,0,2,1,0,2
11.52,2,1,5,0,1,1,1,3
11.525,1,0,3,1,1,0,2,2
11.53,2,3,8,0,1,0,1,0
11.535,4,4,4,5,3,2,2,1
11.54,2,2,8,0,0,1,1,2
11.545,0,1,1,1,1,1,2,1
11.55,3,1,2,1,1,1,1,2
11.555,1,6,8,1,0,0,1,0
11.56,1,4,9,2,0,0,1,2
11.565,1,1,6,2,0,2,0,1
11.57,1,2,3,1,1,0,0,0
11.575,2,1,1,2,4,1,2,2
11.58,2,1,2,2,0,2,1,2
11.585,1,2,1,1,2,2,1,9
11.59,3,3,1,2,1,3,0,4
11.595,2,4,17,2,2,1,1,1
11.6,2,0,4,2,0,1,1,4
11.605,0,1,6,1,2,3,1,5
11.61,4,2,19,2,1,1,2,0
11.615,3,3,27,1,1,3,2,6
11.62,1,0,11,2,0,1,1,0
11.625,1,3,9,4,3,2,1,0
11.63,0,2,0,1,1,1,1,2
11.635,1,7,5,3,3,2,1,1
11.64,3,2,14,5,3,2,2,4
11.645,1,1,3,1,1,0,0,1
11.65,2,1,14,0,2,2,0,1
11.655,1,2,2,1,1,1,1,1
11.66,1,3,7,0,1,1,1,12
11.665,4,3,22,2,4,2,1,15
11.67,2,1,5,0,2,1,0,0
11.675,1,0,6,0,0,1,0,1
11.68,0,4,14,3,1,0,1,2
11.685,0,1,21,4,0,2,2,6
11.69,2,10,39,5,2,2,0,2
11.695,4,14,7,4,2,1,1,5
11.7,0,3,6,0,1,1,0,4
11.705,3,5,3,3,2,1,2,3
11.71,1,2,3,1,1,3,1,1
11.715,2,0,19,1,2,1,0,1
11.72,2,3,10,2,2,4,0,3
11.725,2,12,16,2,1,0,1,1
11.73,6,22,3,1,2,0,4,1
11.735,1,7,8,4,4,3,1,1
11.74,2,1,2,2,1,2,1,1
11.745,4,3,6,0,0,1,0,1
11.75,3,2,14,6,0,0,0,1
11.755,3,2,2,2,2,2,1,2
11.76,2,1,5,2,2,2,2,5
11.765,1,11,16,3,0,1,0,0
11.77,1,7,12,2,2,1,2,2
11.775,0,1,9,1,1,1,0,4
11.78,1,0,22,1,1,0,1,10
11.785,2,7,11,2,0,3,0,2
11.79,1,1,12,2,1,1,0,2
11.795,0,4,7,3,2,2,2,3
11.8,2,6,7,2,2,2,3,1
11.805,1,3,5,4,4,2,2,1
11.81,3,3,1,1,0,1,1,1
11.815,2,0,2,1,1,1,1,2
11.82,2,8,20,4,2,3,3,0
11.825,0,1,16,2,1,0,1,2
11.83,2,2,3,3,1,1,1,0
11.835,4,5,10,1,1,2,1,3
11.84,1,6,7,2,1,1,1,2
11.845,2,4,25,4,2,4,2,0
11.85,1,2,18,2,1,3,1,1
11.855,1,2,31,0,0,0,2,2
11.86,1,5,31,3,1,0,1,2
11.865,0,9,9,2,2,1,1,1
11.87,0,5,7,2,2,1,2,2
11.875,1,8,11,2,1,2,1,1
11.88,1,0,3,1,0,1,1,0
11.885,0,1,1,2,1,1,2,1
11.89,1,3,6,0,4,2,1,14
11.895,3,0,4,2,1,2,3,16
11.9,1,2,6,2,2,1,0,0
11.905,1,0,5,4,1,3,2,4
11.91,2,1,2,1,1,1,1,0
11.915,1,2,8,1,2,2,1,2
11.92,2,5,9,1,1,2,1,0
11.925,5,5,10,6,2,4,2,3
11.93,1,2,11,1,0,3,3,4
11.935,2,1,6,3,1,2,1,2
11.94,1,4,9,2,4,4,1,4
11.945,1,3,3,3,0,0,2,4
11.95,4,4,20,1,0,2,1,7
11.955,3,4,14,3,1,0,0,1
11.96,2,4,1,0,1,0,1,2
11.965,1,3,3,1,2,3,0,2
11.97,0,2,18,1,1,1,1,4
11.975,1,0,6,1,1,1,1,1
11.98,3,3,6,3,1,1,1,2
11.985,0,1,1,0,1,1,3,1
11.99,1,8,11,1,0,1,0,4
11.995,4,3,8,0,2,0,0,14
12,6,0,10,1,0,1,1,14
12.005,1,1,11,2,1,1,1,2
12.01,2,1,24,2,1,2,3,2
12.015,2,4,5,1,1,1,1,2
12.02,1,5,0,4,0,1,0,5
12.025,0,9,9,0,0,1,1,2
12.03,3,16,16,3,2,1,2,1
12.035,1,5,5,1,0,2,1,5
12.04,2,2,0,1,1,3,1,0
12.045,0,2,2,0,1,0,0,3
12.05,2,1,19,2,4,2,1,1
12.055,2,2,3,2,2,2,3,4
12.06,1,3,3,3,1,2,0,2
12.065,2,1,2,1,0,0,3,1
12.07,1,1,0,1,0,1,1,1
12.075,0,0,1,1,3,2,1,4
12.08,1,1,0,1,5,5,1,3
12.085,0,1,11,2,0,2,0,3
12.09,2,1,18,5,1,2,2,7
12.095,4,4,7,1,3,3,0,0
12.1,2,2,1,1,0,0,1,1
12.105,0,1,6,1,2,2,2,2
12.11,1,1,0,1,0,0,0,1
12.115,1,3,5,1,2,0,2,3
12.12,1,1,12,1,2,1,1,0
12.125,3,8,8,1,0,3,0,2
12.13,2,7,7,2,0,0,1,1
12.135,2,3,1,4,3,4,1,4
12.14,2,7,9,1,2,0,1,0
12.145,2,6,26,0,0,1,2,1
12.15,2,8,33,2,2,3,2,2
12.155,2,2,0,0,2,0,0,3
12.16,2,5,3,1,3,3,2,3
12.165,0,5,3,0,2,3,1,2
12.17,2,7,22,1,3,0,1,3
12.175,4,7,34,0,0,1,0,1
12.18,2,3,29,4,2,0,1,13
12.185,3,11,26,3,3,1,3,17
12.19,0,4,29,1,1,2,3,1
12.195,1,9,10,2,5,2,0,1
12.2,2,6,23,3,1,3,0,3
12.205,5,5,2,7,6,4,2,2
12.21,1,9,15,1,0,0,1,2
12.215,4,10,9,3,1,0,1,3
12.22,2,7,11,6,2,2,0,1
12.225,2,13,11,2,2,0,0,2
12.23,1,3,11,2,2,2,2,3
12.235,2,12,16,1,1,1,0,1
12.24,2,2,3,4,0,1,2,2
12.245,3,3,35,11,2,1,1,1
12.25,2,8,37,7,1,0,0,1
12.255,7,12,13,1,4,4,2,2
12.26,6,25,44,9,0,1,0,2
12.265,1,20,9,9,2,1,1,1
12.27,6,5,12,2,2,3,2,2
12.275,2,3,28,8,4,4,2,2
12.28,0,5,17,1,1,2,0,5
12.285,4,16,14,4,2,0,0,0
12.29,2,3,24,2,1,0,1,1
12.295,2,15,51,6,5,2,1,3
12.3,7,27,2,5,2,3,2,4
12.305,5,8,9,1,1,2,2,1
12.31,5,8,4,11,2,1,2,3
12.315,2,14,6,11,3,1,0,0
12.32,1,3,11,10,6,0,1,0
12.325,4,18,2,5,2,0,2,1
12.33,10,28,2,6,2,1,0,1
12.335,4,5,16,0,3,2,1,1
12.34,3,9,5,1,0,0,2,3
12.345,3,1,11,3,3,4,2,2
12.35,2,1,26,2,2,0,0,0
12.355,3,0,4,4,0,0,1,0
12.36,6,28,18,7,2,1,1,0
12.365,2,4,22,4,3,1,0,1
12.37,2,7,18,9,3,1,3,3
12.375,4,10,27,0,1,1,4,11
12.38,5,18,19,4,4,1,0,6
12.385,0,1,13,2,3,1,1,1
12.39,2,2,63,6,4,2,3,4
12.395,3,15,33,5,1,2,1,7
12.4,10,22,2,2,1,2,1,2
12.405,14,38,2,3,3,3,1,4
12.41,8,26,1,6,0,1,2,1
12.415,9,19,9,1,1,3,2,2
12.42,3,2,18,2,0,2,2,3
12.425,5,27,28,3,1,2,2,3
12.43,2,24,43,8,0,1,1,1
12.435,7,4,33,9,3,1,3,3
12.44,9,5,28,7,3,2,1,0
12.445,3,9,0,6,2,0,1,3
12.45,3,3,22,6,4,2,3,4
12.455,2,4,11,3,5,2,0,3
12.46,4,15,27,3,1,0,2,1
12.465,1,7,7,2,1,1,0,2
12.47,4,12,30,9,3,2,3,2
12.475,1,1,3,4,3,3,1,1
12.48,2,17,7,5,1,2,1,0
12.485,6,13,12,0,3,1,3,2
12.49,0,3,27,5,1,0,2,1
12.495,1,3,32,2,1,0,1,0
12.5,2,8,5,6,3,2,1,2
12.505,2,8,9,7,1,3,2,1
12.51,4,1,28,3,1,0,1,1
12.515,4,1,3,0,1,0,0,1
12.52,1,25,5,1,2,3,1,11
12.525,5,8,16,0,2,1,3,17
12.53,0,13,36,6,2,3,1,4
12.535,2,17,19,12,1,2,1,2
12.54,10,15,5,2,1,2,2,3
12.545,11,17,18,2,3,2,1,8
12.55,11,39,35,0,4,1,1,1
12.555,3,21,9,8,3,2,1,5
12.56,2,19,22,15,1,1,1,2
12.565,1,13,8,4,0,0,1,2
12.57,1,17,1,16,7,2,0,0
12.575,4,20,6,5,3,1,1,1
12.58,2,19,14,4,3,0,1,3
12.585,1,19,5,2,0,1,2,1
12.59,3,7,13,12,2,1,2,1
12.595,2,9,16,10,4,4,2,1
12.6,4,3,13,7,4,1,1,4
12.605,1,10,9,2,1,0,0,1
12.61,1,5,2,2,2,1,0,2
12.615,4,4,14,3,1,3,2,0
12.62,1,1,14,5,1,3,2,3
12.625,2,16,19,1,1,0,1,3
12.63,5,21,23,4,1,0,1,2
12.635,1,15,2,1,2,0,1,0
12.64,0,6,11,4,2,1,0,3
12.645,2,13,0,3,0,1,2,1
12.65,2,3,0,6,4,2,1,1
12.655,9,24,6,4,1,0,2,3
12.66,3,20,7,1,0,2,0,0
12.665,2,2,4,0,5,5,2,2
12.67,4,18,16,1,1,1,0,2
12.675,1,18,33,1,1,2,1,0
12.68,2,2,2,3,2,2,1,2
12.685,0,8,16,4,1,1,1,1
12.69,0,3,21,3,1,2,2,0
12.695,1,5,21,4,2,1,2,1
12.7,4,23,6,2,2,2,1,9
12.705,0,1,19,8,1,1,1,11
12.71,5,1,4,4,1,0,1,0
12.715,1,10,9,2,5,2,1,5
12.72,1,4,15,2,4,2,1,0
12.725,1,3,2,1,1,1,1,1
12.73,5,14,3,0,0,0,0,0
12.735,2,20,10,5,0,2,0,1
12.74,0,7,9,1,1,1,0,3
12.745,3,12,27,0,3,0,0,2
12.75,1,1,35,7,1,2,3,3
12.755,1,8,15,3,0,3,1,1
12.76,2,5,0,3,2,2,1,4
12.765,1,2,6,3,2,2,1,1
12.77,1,12,3,1,3,3,0,2
12.775,3,5,9,10,2,2,0,2
12.78,7,10,13,1,0,1,1,4
12.785,3,2,8,10,2,0,2,1
12.79,2,4,9,4,1,2,1,0
12.795,1,4,21,4,0,2,0,1
12.8,1,9,12,2,3,2,1,2
12.805,1,6,22,6,3,1,1,2
12.81,1,3,0,6,2,0,0,1
12.815,1,9,11,7,1,1,1,2
12.82,0,8,8,2,1,2,1,0
12.825,6,3,10,6,3,2,2,2
12.83,1,3,12,0,1,2,1,1
12.835,1,6,6,4,1,2,1,0
12.84,2,13,8,1,3,3,3,3
12.845,1,17,10,1,1,2,1,2
12.85,2,0,25,3,1,1,0,2
12.855,0,9,9,3,1,1,2,0
12.86,1,4,14,1,1,1,2,6
12.865,6,3,5,3,2,2,2,12
12.87,7,22,6,1,0,0,0,1
12.875,1,7,27,8,4,2,0,3
12.88,0,1,3,6,1,0,0,2
12.885,1,0,13,2,0,1,1,4
12.89,1,2,4,2,1,1,1,1
12.895,6,23,18,2,2,1,1,0
12.9,1,3,7,11,4,2,2,5
12.905,2,5,22,2,1,2,2,2
12.91,1,3,19,4,0,3,1,2
12.915,1,2,3,2,4,4,2,1
12.92,5,11,9,1,1,1,2,4
12.925,5,9,30,4,1,2,1,2
12.93,1,3,2,9,3,1,0,2
12.935,1,0,18,1,0,1,1,2
12.94,0,10,18,8,2,1,1,1
12.945,1,6,1,1,3,2,1,1
12.95,3,3,13,2,0,0,1,1
12.955,3,5,3,6,1,2,0,1
12.96,3,2,1,4,3,2,2,3
12.965,3,12,13,5,1,1,0,0
12.97,3,33,17,2,0,1,1,2
12.975,2,7,21,3,1,1,2,2
12.98,4,4,5,2,1,2,1,1
12.985,1,6,15,2,1,0,1,1
12.99,8,7,18,4,0,1,1,3
12.995,4,18,5,2,3,0,2,1
13,3,14,5,0,1,2,2,9
13.005,3,16,4,3,2,1,2,12
13.01,1,1,1,1,1,1,1,0
13.015,2,6,3,3,0,0,0,3
13.02,3,5,3,6,3,2,2,0
13.025,3,17,25,2,1,0,1,1
13.03,4,20,40,11,0,0,1,0
13.035,7,22,3,4,3,3,2,1
13.04,2,4,4,2,1,1,2,3
13.045,1,5,27,4,0,1,1,1
13.05,1,7,9,0,3,3,2,4
13.055,6,3,7,3,0,1,0,0
13.06,1,15,17,5,2,1,1,4
13.065,0,2,9,1,1,2,1,1
13.07,2,4,9,0,0,1,2,1
13.075,1,1,7,3,2,1,1,1
13.08,1,10,21,4,2,2,2,4
13.085,0,6,2,3,0,0,0,2
13.09,1,6,25,3,3,1,2,0
13.095,1,13,1,1,1,1,0,2
13.1,1,2,8,2,3,1,1,3
13.105,2,8,3,4,1,2,1,1
13.11,7,11,6,1,1,3,1,3
13.115,3,5,9,2,1,1,1,1
13.12,6,3,14,1,1,1,1,2
13.125,3,7,8,0,2,1,0,0
13.13,1,4,16,1,0,0,1,0
13.135,5,11,19,4,2,0,1,4
13.14,1,5,18,5,4,4,1,1
13.145,1,1,15,4,2,3,2,0
13.15,9,20,9,3,0,1,2,9
13.155,1,17,8,1,1,2,1,0
13.16,2,7,8,0,1,1,1,4
13.165,1,11,3,3,3,3,1,3
13.17,1,2,6,4,1,2,0,4
13.175,1,2,3,2,2,0,0,4
13.18,1,2,3,3,0,3,1,3
13.185,5,2,5,1,1,2,1,0
13.19,3,8,4,4,3,2,0,1
13.195,4,5,2,0,1,2,0,1
13.2,4,4,2,2,0,0,1,1
13.205,1,24,7,0,2,0,1,4
13.21,0,10,2,4,1,0,1,2
13.215,3,17,6,0,1,1,1,2
13.22,2,4,3,1,2,1,1,2
13.225,1,29,21,3,3,2,1,13
13.23,8,18,31,2,2,1,1,15
13.235,7,21,15,5,2,1,0,1
13.24,4,3,12,4,2,1,1,2
13.245,1,18,26,3,2,0,0,1
13.25,4,0,12,4,2,1,0,5
13.255,7,4,15,2,1,0,2,3
13.26,5,19,11,1,1,1,1,2
13.265,9,23,14,2,1,1,2,4
13.27,5,16,7,0,2,1,0,1
13.275,1,18,7,4,2,1,5,6
13.28,10,22,1,0,2,1,2,3
13.285,10,7,1,3,1,1,1,3
13.29,12,7,5,1,0,1,2,5
13.295,1,4,8,5,2,0,6,0
13.3,2,4,9,6,1,1,1,0
13.305,10,11,11,1,1,2,0,2
13.31,4,11,15,1,1,1,2,1
13.315,5,9,18,2,4,2,3,3
13.32,5,19,27,1,0,1,5,4
13.325,5,5,19,3,2,4,5,5
13.33,3,6,18,4,6,5,9,7
13.335,8,0,9,8,5,4,3,8
13.34,3,2,13,1,2,2,4,6
13.345,5,9,6,0,6,0,1,3
13.35,1,2,15,2,5,3,4,2
13.355,7,3,0,1,3,1,2,7
13.36,6,6,13,2,3,1,1,0
13.365,1,3,1,5,6,4,5,5
13.37,4,1,1,3,1,0,2,3
13.375,2,1,11,3,1,1,0,0
13.38,4,5,3,3,2,5,3,1
13.385,1,3,4,3,4,0,1,1
13.39,1,2,9,8,2,4,2,3
13.395,2,5,8,5,2,2,1,3
13.4,2,0,5,6,0,1,2,2
13.405,2,1,5,4,2,0,1,0
13.41,3,0,5,1,5,1,1,2
13.415,2,2,18,3,0,2,3,2
13.42,0,5,3,3,2,2,0,1
13.425,3,3,8,5,6,4,0,1
13.43,1,8,5,1,4,1,2,2
13.435,0,8,4,0,2,0,1,0
13.44,4,7,7,4,0,2,1,2
13.445,1,6,4,5,1,1,1,2
13.45,3,12,2,7,6,3,2,1
13.455,4,11,11,0,3,2,0,0
13.46,0,1,5,5,3,2,1,1
13.465,4,11,17,3,1,1,3,1
13.47,2,18,21,2,3,3,3,0
13.475,0,1,12,1,2,1,1,2
13.48,5,15,18,4,2,1,0,2
13.485,0,6,12,1,1,1,1,1
13.49,0,10,9,5,1,2,1,2
13.495,1,1,37,11,4,2,0,2
13.5,2,1,2,0,1,1,1,1
13.505,1,6,1,3,2,0,0,1
13.51,2,9,11,2,2,1,0,1
13.515,1,3,2,0,2,2,3,3
13.52,1,4,0,1,1,1,1,0
13.525,3,1,5,0,0,1,0,3
13.53,2,6,4,3,2,2,2,2
13.535,1,1,2,1,1,1,0,1
13.54,1,0,15,1,3,0,0,1
13.545,2,1,37,1,1,1,1,1
13.55,3,3,23,1,1,1,1,2
13.555,1,1,6,5,3,0,1,1
13.56,2,4,7,0,2,1,1,2
13.565,0,2,6,2,3,2,2,2
13.57,2,6,5,4,1,1,1,1
13.575,0,2,2,2,0,1,1,2
13.58,1,6,22,2,3,2,1,1
13.585,2,8,25,4,3,3,1,1
13.59,0,1,1,0,3,3,2,1
13.595,2,4,19,0,1,0,2,0
13.6,1,4,1,4,4,1,1,1
13.605,0,6,20,0,1,1,2,1
13.61,1,3,11,3,1,1,2,1
13.615,2,0,0,2,5,2,2,1
13.62,1,2,6,2,1,2,1,0
13.625,1,1,0,1,2,3,1,1
13.63,2,4,7,5,2,3,3,2
13.635,2,1,5,0,4,3,1,1
13.64,2,2,6,8,12,4,3,2
13.645,1,2,1,8,4,8,0,0
13.65,1,2,1,17,15,4,1,1
13.655,1,0,9,0,3,2,1,1
13.66,0,3,10,5,10,0,1,1
13.665,3,4,4,10,31,13,4,4
13.67,2,2,4,8,5,3,2,1
13.675,0,4,24,3,11,17,4,1
13.68,1,0,24,21,15,2,0,1
13.685,0,1,17,9,2,0,0,1
13.69,2,3,17,2,11,9,3,3
13.695,4,5,10,11,18,9,3,2
13.7,1,2,14,14,6,0,1,2
13.705,3,1,7,4,9,0,2,1
13.71,2,0,1,4,7,1,1,3
13.715,0,2,4,0,6,2,2,1
13.72,1,1,8,2,2,1,1,0
13.725,0,1,5,5,5,2,2,1
13.73,1,1,2,4,2,1,1,1
13.735,0,1,20,4,1,1,0,1
13.74,2,2,8,0,1,1,3,3
13.745,0,0,0,1,1,0,1,1
13.75,2,2,2,0,0,0,0,1
13.755,0,0,7,4,1,2,2,1
13.76,1,1,5,5,6,3,2,1
13.765,3,1,2,1,2,1,2,1
13.77,0,1,2,1,1,0,0,2
13.775,0,0,9,2,1,2,0,1
13.78,0,1,6,1,4,1,1,1
13.785,2,1,9,4,4,2,0,0
13.79,2,2,1,5,3,0,1,0
13.795,3,1,10,4,1,2,0,2
13.8,0,2,18,3,1,2,0,2
13.805,2,2,8,3,4,3,1,1
13.81,1,3,17,1,6,4,1,1
13.815,1,1,17,9,3,5,1,1
13.82,1,5,14,2,5,1,1,1
13.825,0,1,18,2,3,0,0,0
13.83,1,2,3,0,2,1,3,2
13.835,2,1,12,1,1,0,1,1
13.84,1,1,3,1,2,3,2,0
13.845,2,3,9,2,3,2,2,2
13.85,1,1,11,0,1,1,2,1
13.855,1,4,1,2,2,1,1,1
13.86,4,3,1,6,5,3,3,1
13.865,0,2,14,3,1,1,1,1
13.87,0,1,28,9,2,2,1,1
13.875,3,1,8,6,3,0,1,0
13.88,1,0,8,1,2,1,1,3
13.885,0,2,1,1,3,0,2,0
13.89,1,2,6,1,2,1,0,0
13.895,0,2,6,3,2,1,1,1
13.9,2,1,2,3,4,2,2,2
13.905,0,1,5,0,1,2,3,0
13.91,1,11,3,3,1,1,0,2
13.915,1,5,7,2,2,1,1,0
13.92,1,0,4,1,1,1,0,0
13.925,2,2,10,5,5,3,2,1
13.93,1,1,1,4,4,0,1,0
13.935,2,1,0,3,1,2,0,2
13.94,0,2,2,4,0,1,0,1
13.945,2,5,5,2,3,1,0,1
13.95,3,8,1,0,2,3,2,2
13.955,2,6,5,5,2,2,2,2
13.96,1,1,4,4,3,4,0,0
13.965,1,2,4,4,1,4,1,1
13.97,2,2,7,11,5,1,0,0
13.975,0,0,11,2,8,5,2,1
13.98,1,1,1,10,2,0,1,1
13.985,0,6,17,5,2,1,1,2
13.99,0,4,3,8,3,1,2,2
13.995,3,2,7,3,2,3,2,2
14,1,1,16,2,7,5,3,3
14.005,0,4,21,3,1,2,2,0
14.01,0,7,16,8,0,2,1,1
14.015,2,3,2,0,1,3,1,1
14.02,1,2,5,1,2,1,1,2
14.025,2,3,5,1,0,1,0,3
14.03,2,2,16,7,3,1,1,1
14.035,0,3,7,2,0,0,1,2
14.04,2,5,14,5,1,1,1,0
14.045,1,2,2,1,2,2,1,2
14.05,0,1,1,1,1,2,2,2
14.055,3,3,2,2,0,0,1,1
14.06,1,3,21,4,0,1,1,1
14.065,1,2,19,0,0,3,3,4
14.07,0,1,7,3,4,2,1,3
14.075,1,6,14,2,0,2,2,1
14.08,1,0,19,2,1,1,2,1
14.085,2,5,1,1,1,1,3,0
14.09,3,1,4,0,2,5,1,1
14.095,2,3,12,1,2,3,2,1
14.1,1,1,16,3,1,1,0,1
14.105,2,0,4,4,1,1,0,0
14.11,1,0,12,2,0,1,1,2
14.115,0,1,12,7,3,1,0,1
14.12,2,3,5,2,1,0,1,1
14.125,0,1,3,2,1,0,1,1
14.13,0,2,3,0,0,1,1,1
14.135,1,2,10,0,0,1,2,1
14.14,1,2,0,1,2,2,1,1
14.145,3,1,8,4,2,2,2,2
14.15,2,2,9,4,4,1,1,2
14.155,1,1,3,3,2,1,1,3
14.16,0,1,6,1,1,1,1,1
14.165,0,0,1,4,3,1,1,1
14.17,1,1,6,1,0,2,2,0
14.175,3,3,10,6,1,2,1,2
14.18,1,1,1,1,3,3,2,3
14.185,2,3,8,3,5,4,3,1
14.19,1,2,5,7,3,3,1,3
14.195,0,1,5,2,1,1,0,0
14.2,3,4,14,2,1,2,0,1
14.205,1,2,4,4,3,2,1,0
14.21,0,1,6,1,0,1,0,2
14.215,0,3,10,7,1,1,1,2
14.22,0,1,4,1,1,2,0,1
14.225,2,3,1,0,1,2,2,0
14.23,3,4,4,0,1,1,1,1
14.235,1,4,5,2,2,1,2,1
14.24,0,2,11,0,3,2,2,0
14.245,1,3,2,0,2,1,2,1
14.25,0,0,2,0,1,1,1,0
14.255,2,3,15,3,2,0,3,0
14.26,1,2,5,3,0,1,1,0
14.265,2,4,6,3,4,4,1,1
14.27,1,6,5,3,0,1,1,0
14.275,2,8,2,0,4,3,3,1
14.28,0,1,1,1,3,1,2,1
14.285,1,7,3,1,1,0,0,1
14.29,0,2,8,2,4,0,1,2
14.295,1,1,0,1,1,1,1,0
14.3,1,4,2,5,2,3,2,1
14.305,2,1,2,3,3,0,1,3
14.31,0,0,2,0,3,1,2,2
14.315,1,1,3,0,0,0,1,2
14.32,1,0,8,1,0,3,2,0
14.325,0,4,9,2,3,0,1,0
14.33,1,4,1,2,1,2,1,1
14.335,1,1,6,3,1,1,1,2
14.34,1,0,3,2,1,1,1,3
14.345,0,2,1,0,1,1,3,1
14.35,2,2,7,3,2,2,2,0
14.355,2,0,10,3,0,0,2,2
14.36,3,2,2,1,3,2,2,1
14.365,1,4,0,3,3,1,1,2
14.37,0,7,5,2,1,0,1,2
14.375,1,2,1,1,0,4,2,2
14.38,3,0,12,3,2,0,2,1
14.385,2,0,9,2,2,4,3,1
14.39,1,1,3,0,3,1,3,0
14.395,1,0,18,6,1,0,1,1
14.4,1,4,1,0,0,1,1,3
14.405,1,4,3,0,1,2,0,3
14.41,1,1,1,2,2,1,0,1
14.415,0,1,12,2,0,0,1,1
14.42,3,4,10,3,0,2,1,1
14.425,1,0,4,1,0,1,1,0
14.43,3,2,5,1,3,3,1,1
14.435,1,0,3,3,1,1,1,0
14.44,0,1,12,2,0,1,2,1
14.445,2,3,0,2,0,2,1,1
14.45,1,0,4,1,0,0,1,0
14.455,0,4,6,1,2,1,2,0
14.46,0,0,1,4,2,4,1,3
14.465,1,1,1,1,1,1,0,0
14.47,2,1,3,3,1,1,0,0
14.475,3,2,3,2,2,0,1,2
14.48,0,1,11,3,2,3,1,1
14.485,2,3,1,2,2,2,2,8
14.49,0,1,8,5,2,4,2,2
14.495,1,1,12,1,2,3,1,4
14.5,2,1,2,1,2,2,1,4
14.505,0,0,6,1,0,2,1,2
14.51,0,1,5,0,0,1,1,3
14.515,2,1,4,3,3,2,1,1
14.52,1,2,6,0,0,3,2,2
14.525,0,4,1,0,1,0,1,1
14.53,1,5,15,6,1,0,2,2
14.535,1,0,15,3,1,1,1,0
14.54,2,2,11,3,1,0,1,1
14.545,0,2,3,2,0,2,2,1
14.55,1,1,7,2,2,10,0,1
14.555,1,3,13,3,1,9,1,1
14.56,2,2,6,3,4,2,2,3
14.565,0,4,10,1,1,1,1,3
14.57,0,0,2,1,1,2,2,0
14.575,1,1,1,2,0,3,2,1
14.58,0,2,1,7,3,1,0,0
14.585,0,1,3,1,1,1,2,1
14.59,0,0,1,1,0,1,1,0
14.595,2,2,1,1,1,2,2,2
14.6,2,1,2,1,3,2,2,2
14.605,1,2,8,3,2,3,1,0
14.61,1,1,5,2,1,0,2,1
14.615,1,0,6,3,3,2,0,1
14.62,2,1,6,3,1,1,0,1
14.625,2,1,6,3,3,3,1,0
14.63,1,4,13,7,0,3,2,3
14.635,2,0,22,6,2,3,1,13
14.64,2,2,10,1,3,2,2,15
14.645,2,1,21,5,1,1,0,3
14.65,1,1,16,4,0,0,0,1
14.655,1,4,9,1,1,4,1,0
14.66,0,0,21,7,1,2,1,2
14.665,2,4,6,2,2,1,2,0
14.67,1,1,17,5,0,1,1,3
14.675,0,2,16,3,1,3,1,4
14.68,0,2,4,1,3,1,0,2
14.685,1,4,35,10,0,1,0,3
14.69,1,0,1,1,4,1,1,0
14.695,2,1,2,6,4,2,0,3
14.7,1,2,10,7,7,4,3,1
14.705,2,3,9,4,3,2,0,2
14.71,1,0,2,5,2,1,1,1
14.715,4,7,57,19,3,2,2,6
14.72,2,0,60,26,4,2,1,1
14.725,1,0,3,4,4,2,1,1
14.73,3,3,3,13,6,4,3,4
14.735,1,2,9,1,2,1,2,3
14.74,1,3,7,4,3,2,2,1
14.745,2,1,3,4,0,0,3,1
14.75,2,4,23,5,2,1,2,2
14.755,1,1,24,8,1,2,1,2
14.76,1,1,23,10,2,2,1,0
14.765,1,1,5,1,1,2,1,0
14.77,1,1,14,6,4,7,1,1
14.775,2,1,18,2,0,5,0,2
14.78,3,0,6,2,3,2,0,7
14.785,2,3,11,2,1,1,1,2
14.79,1,1,1,4,2,1,1,1
14.795,2,1,10,1,4,6,3,3
14.8,1,1,10,2,3,2,4,2
14.805,1,0,9,2,1,2,3,2
14.81,1,4,2,7,2,4,1,1
14.815,2,1,18,2,0,0,2,1
14.82,0,1,21,7,2,1,1,0
14.825,1,1,9,4,1,2,2,0
14.83,1,0,1,1,2,1,0,0
14.835,0,2,10,6,4,1,2,1
14.84,1,1,15,1,0,0,2,3
14.845,1,3,17,1,1,2,1,0
14.85,1,2,3,2,1,1,2,2
14.855,0,1,1,4,2,4,3,1
14.86,0,1,3,0,2,2,0,1
14.865,0,1,9,2,1,1,2,0
14.87,1,0,13,1,1,1,1,1
14.875,0,1,15,1,2,3,3,4
14.88,1,2,15,2,2,1,3,0
14.885,0,1,31,13,0,1,0,1
14.89,1,2,13,11,5,3,0,3
14.895,1,1,9,7,3,4,1,1
14.9,1,3,4,1,3,0,2,1
14.905,2,1,4,1,1,2,1,1
14.91,1,3,1,3,1,6,1,1
14.915,0,0,5,1,3,3,1,2
14.92,1,3,21,10,4,4,2,2
14.925,2,0,13,1,4,5,1,1
14.93,1,1,1,3,2,1,0,7
14.935,2,0,3,7,2,2,2,11
14.94,1,0,20,6,1,1,2,4
14.945,1,6,40,15,2,2,2,1
14.95,1,3,17,2,5,2,2,3
14.955,2,3,22,10,2,0,1,2
14.96,0,3,21,8,1,2,0,3
14.965,2,3,16,6,1,0,1,4
14.97,0,1,10,4,2,2,2,0
14.975,3,4,22,5,0,2,1,2
14.98,1,3,13,1,3,1,1,1
14.985,2,2,4,5,2,2,2,0
14.99,1,2,2,9,1,2,2,3
14.995,2,0,11,3,0,2,1,0
15,2,2,7,1,3,0,1,1
15.005,2,2,12,1,5,2,1,1
15.01,2,3,23,1,1,1,0,2
15.015,2,0,35,4,1,3,2,2
15.02,1,2,6,5,4,0,3,2
15.025,0,2,6,1,1,0,1,1
15.03,1,4,7,4,2,2,1,2
15.035,0,2,0,3,2,0,1,1
15.04,2,1,1,7,1,1,1,14
15.045,1,4,1,2,1,1,2,16
15.05,1,1,0,1,2,1,0,4
15.055,0,0,1,4,5,3,1,0
15.06,3,3,5,5,2,3,3,2
15.065,0,1,3,3,0,0,1,4
15.07,1,0,7,3,6,5,4,1
15.075,1,1,13,5,1,4,2,2
15.08,0,2,11,4,1,0,1,4
15.085,1,3,16,1,0,0,1,2
15.09,1,1,17,4,3,12,4,3
15.095,1,2,1,1,1,13,0,0
15.1,3,4,1,1,4,3,2,3
15.105,0,0,3,0,1,0,1,1
15.11,0,0,7,3,4,2,1,1
15.115,0,3,16,7,4,8,2,1
15.12,1,3,10,3,2,0,1,4
15.125,2,1,2,3,3,1,1,1
15.13,3,2,0,1,0,0,0,0
15.135,1,2,2,0,3,5,1,2
15.14,3,4,10,1,0,1,1,2
15.145,1,2,0,6,3,5,1,0
15.15,0,1,2,1,0,2,1,2
15.155,2,1,5,4,3,1,1,0
15.16,3,3,1,6,0,3,1,1
15.165,1,1,11,3,5,3,1,1
15.17,1,5,22,9,6,1,1,1
15.175,1,1,2,3,4,5,3,1
15.18,2,1,8,3,3,2,2,1
15.185,1,0,6,3,1,1,1,9
15.19,5,2,1,0,1,1,2,15
15.195,3,3,7,4,1,5,3,1
15.2,0,1,2,4,0,1,1,4
15.205,1,1,15,9,2,1,0,1
15.21,1,0,1,1,1,2,0,4
15.215,1,1,2,1,2,1,1,2
15.22,1,0,4,1,0,2,1,1
15.225,2,0,21,4,1,9,2,2
15.23,1,1,24,2,2,15,3,0
15.235,0,1,9,1,1,5,2,3
15.24,0,1,3,1,1,2,2,1
15.245,1,2,3,0,3,4,2,2
15.25,1,2,0,2,3,7,2,1
15.255,1,2,9,1,2,2,2,0
15.26,2,4,9,1,0,1,2,2
15.265,2,0,13,2,2,1,1,5
15.27,1,0,3,3,1,2,1,1
15.275,1,0,7,1,2,0,1,1
15.28,0,3,2,2,1,2,0,10
15.285,5,5,16,7,3,0,4,17
15.29,1,2,6,3,2,0,1,0
15.295,3,1,8,1,0,0,0,2
15.3,1,1,9,2,1,2,1,2
15.305,1,1,9,1,5,0,0,3
15.31,0,0,11,1,1,3,1,1
15.315,2,3,2,4,2,1,1,0
15.32,0,2,5,2,0,3,1,2
15.325,0,3,10,1,0,0,1,0
15.33,2,1,17,3,1,2,0,2
15.335,1,2,15,4,0,1,1,1
15.34,1,2,12,10,4,2,1,2
15.345,0,0,7,1,2,2,1,1
15.35,0,2,3,1,1,2,2,1
15.355,1,0,4,3,3,1,2,1
15.36,1,1,2,1,2,0,0,3
15.365,2,0,5,3,2,1,0,1
15.37,0,2,3,3,1,0,0,1
15.375,1,1,3,2,2,4,1,1
15.38,3,0,7,4,2,0,0,5
15.385,2,4,18,3,1,1,1,1
15.39,2,1,0,0,3,2,1,1
15.395,0,2,8,0,1,1,4,2
15.4,1,3,5,1,2,2,2,1
15.405,1,0,7,6,1,1,1,9
15.41,5,2,4,0,1,2,3,12
15.415,1,2,4,5,2,3,1,0
15.42,1,4,9,0,3,4,1,3
15.425,2,1,13,0,3,0,0,1
15.43,2,1,10,6,1,1,1,6
15.435,1,1,1,1,0,1,1,3
15.44,1,1,3,0,1,1,1,0
15.445,1,3,12,1,3,2,3,3
15.45,2,2,20,6,3,3,1,0
15.455,3,1,5,1,1,0,1,1
15.46,0,1,2,3,0,0,2,2
15.465,1,3,13,5,4,1,0,5
15.47,0,1,14,5,0,4,0,0
15.475,2,3,5,1,1,3,0,0
15.48,0,2,10,4,2,2,1,2
15.485,1,1,2,3,2,2,0,2
15.49,1,2,5,6,0,2,0,1
15.495,0,3,9,2,2,2,1,1
15.5,3,1,3,3,3,4,4,2
15.505,3,1,4,0,2,1,1,3
15.51,0,0,3,1,5,4,2,7
15.515,1,3,26,7,1,1,1,13
15.52,1,0,10,0,1,0,0,3
15.525,1,2,12,3,1,3,1,1
15.53,1,2,11,0,2,0,0,3
15.535,0,4,30,2,1,2,1,5
15.54,0,1,3,3,3,1,0,1
15.545,2,3,5,2,2,1,0,3
15.55,0,3,4,4,4,4,1,0
15.555,1,3,8,2,1,1,1,0
15.56,2,2,4,1,3,4,2,3
15.565,0,0,2,2,2,0,0,1
15.57,1,3,1,1,2,2,1,3
15.575,0,2,4,3,3,0,1,0
15.58,2,2,12,6,4,3,0,0
15.585,0,1,1,2,2,1,1,1
15.59,1,1,7,3,3,3,0,1
15.595,1,4,5,6,0,3,1,0
15.6,1,4,21,6,1,1,1,0
15.605,0,2,13,1,1,2,1,2
15.61,1,2,5,4,1,1,2,2
15.615,0,2,4,2,0,0,1,1
15.62,1,2,5,1,2,1,2,3
15.625,0,3,0,1,3,2,0,10
15.63,3,2,11,7,3,3,2,14
15.635,2,0,3,1,3,4,3,1
15.64,0,3,1,1,0,0,1,1
15.645,1,1,27,2,2,1,2,2
15.65,1,1,32,3,0,0,0,3
15.655,2,6,6,1,3,2,2,1
15.66,2,2,6,3,3,0,2,2
15.665,0,0,0,1,1,0,0,3
15.67,1,5,13,2,0,2,1,1
15.675,2,1,22,0,6,3,1,4
15.68,1,3,3,5,2,3,0,0
15.685,2,2,7,2,1,2,2,2
15.69,1,2,3,1,0,1,1,1
15.695,2,3,12,3,2,0,1,1
15.7,2,3,1,0,1,1,1,1
15.705,1,1,17,4,5,2,2,3
15.71,1,2,7,0,0,1,2,1
15.715,1,4,25,5,0,1,1,1
15.72,1,2,21,6,0,1,0,0
15.725,0,1,27,5,2,3,1,4
15.73,1,1,11,2,3,1,1,1
15.735,1,4,19,0,2,3,1,0
15.74,1,4,15,1,1,4,0,0
15.745,0,1,1,1,3,3,2,1
15.75,1,2,17,0,3,4,0,4
15.755,4,1,4,0,1,1,1,6
15.76,0,4,9,8,4,4,2,0
15.765,1,1,1,3,3,1,0,3
15.77,1,1,6,1,1,0,1,5
15.775,1,3,10,4,1,1,1,1
15.78,1,1,16,4,4,3,2,3
15.785,3,3,13,5,1,1,1,1
15.79,1,0,15,2,2,1,3,1
15.795,2,2,1,3,1,0,1,1
15.8,1,3,16,2,2,0,1,1
15.805,1,1,2,2,3,2,1,1
15.81,2,3,1,1,2,1,0,0
15.815,0,3,7,1,1,2,3,2
15.82,1,1,7,0,1,2,1,1
15.825,1,1,4,0,0,2,0,1
15.83,3,2,2,2,0,0,1,2
15.835,0,3,10,2,1,0,1,2
15.84,1,1,14,0,2,3,2,0
15.845,2,1,4,0,1,1,0,2
15.85,1,2,2,1,1,1,3,0
15.855,2,0,23,5,0,0,1,1
15.86,2,3,14,2,2,1,1,1
15.865,3,2,12,1,2,2,1,1
15.87,1,2,33,3,2,2,0,1
15.875,0,3,38,0,4,0,2,1
15.88,1,0,5,2,1,2,1,0
15.885,1,1,0,1,1,1,2,1
15.89,2,2,15,4,1,0,2,2
15.895,1,2,4,2,0,2,1,1
15.9,0,2,17,3,2,0,0,0
15.905,1,0,5,3,1,2,1,2
15.91,0,0,15,1,2,0,2,10
15.915,2,1,7,1,1,2,2,13
15.92,1,2,26,3,1,0,0,0
15.925,2,6,43,10,2,2,2,1
15.93,2,2,4,3,1,3,2,1
15.935,1,1,2,1,0,0,0,2
15.94,0,3,9,0,2,1,1,0
15.945,1,3,10,2,1,1,1,1
15.95,1,3,1,4,2,3,1,3
15.955,1,1,3,2,1,0,1,1
15.96,1,0,14,8,2,3,1,3
15.965,3,2,8,1,2,0,1,0
15.97,1,1,7,1,1,0,2,3
15.975,2,1,17,4,1,0,1,2
15.98,1,0,16,1,0,0,0,1
15.985,3,3,9,3,1,1,1,0
15.99,1,0,23,2,2,1,1,2
15.995,2,3,6,3,2,2,2,1
16,1,1,8,0,0,0,1,1
16.005,3,2,0,0,2,0,2,2
16.01,1,1,20,1,2,3,1,5
16.015,1,1,11,1,1,1,0,0
16.02,1,4,17,4,2,2,2,1
16.025,0,0,10,2,0,2,0,1
16.03,0,0,6,0,1,2,2,0
16.035,1,3,9,4,1,3,0,1
16.04,1,0,7,1,1,2,0,0
16.045,1,3,18,0,1,0,0,3
16.05,2,0,8,5,4,3,2,3
16.055,2,1,6,6,2,1,1,0
16.06,3,1,4,0,3,2,1,3
16.065,2,2,14,1,1,0,1,1
16.07,2,3,3,2,3,4,1,3
16.075,0,0,12,8,4,2,0,1
16.08,1,3,1,2,0,1,1,0
16.085,1,1,8,2,4,3,3,1
16.09,0,2,16,3,3,0,0,1
16.095,3,1,10,1,1,0,0,0
16.1,0,2,9,0,0,1,1,1
16.105,1,2,18,5,0,0,2,1
16.11,1,2,6,0,2,0,1,2
16.115,0,2,3,5,0,1,0,1
16.12,2,1,39,1,1,1,1,1
16.125,1,1,9,3,3,1,1,3
16.13,2,4,18,3,2,1,0,1
16.135,1,2,1,1,1,0,4,1
16.14,0,2,0,4,1,0,1,1
16.145,1,0,14,0,1,2,1,1
16.15,0,3,10,4,3,2,1,9
16.155,3,0,2,2,2,3,1,12
16.16,0,2,22,5,1,0,0,1
16.165,1,1,5,0,0,1,1,2
16.17,0,0,3,3,4,0,0,1
16.175,0,3,6,2,0,2,1,2
16.18,1,3,12,1,2,1,1,2
16.185,0,3,20,5,1,1,0,0
16.19,1,1,1,3,1,1,2,2
16.195,2,1,13,2,4,2,2,0
16.2,0,0,10,1,0,0,1,4
16.205,1,0,24,2,1,1,1,1
16.21,3,3,9,1,2,2,2,4
16.215,2,4,2,0,1,1,1,1
16.22,0,1,23,8,3,2,2,0
16.225,1,1,2,2,1,1,0,0
16.23,1,3,2,8,1,3,0,1
16.235,1,1,7,3,2,0,0,1
16.24,1,0,16,1,3,2,2,1
16.245,2,0,6,3,2,2,0,0
16.25,0,0,7,3,1,2,0,8
16.255,5,3,3,3,4,1,2,10
16.26,1,1,5,0,0,1,2,0
16.265,1,1,9,1,2,1,1,4
16.27,1,3,9,1,1,1,0,3
16.275,1,1,4,1,1,1,1,3
16.28,1,2,0,0,3,0,2,3
16.285,1,2,6,1,2,1,2,0
16.29,1,1,26,0,3,3,4,3
16.295,1,4,30,4,0,0,1,0
16.3,2,3,5,0,2,1,1,3
16.305,2,1,2,0,0,2,0,2
16.31,1,0,1,1,0,1,1,4
16.315,2,0,9,2,1,2,1,1
16.32,0,2,3,2,1,1,0,4
16.325,2,0,6,4,3,1,2,4
16.33,0,0,4,1,1,1,1,2
16.335,0,2,3,3,2,4,3,2
16.34,1,1,1,1,0,2,1,5
16.345,2,3,2,1,0,2,0,1
16.35,1,3,9,3,0,3,1,6
16.355,1,1,1,2,0,2,1,3
16.36,4,1,4,3,3,2,1,2
16.365,1,2,2,1,0,2,2,2
16.37,1,1,6,0,1,0,0,1
16.375,1,1,9,2,1,1,0,0
16.38,2,3,7,3,2,1,1,2
16.385,0,1,7,2,2,1,1,0
16.39,0,0,2,1,1,1,1,0
16.395,0,2,14,1,0,0,0,1
16.4,1,0,17,3,3,2,2,3
16.405,3,8,35,5,1,0,1,2
16.41,1,3,6,2,2,0,1,2
16.415,1,1,9,2,2,1,2,2
16.42,1,2,9,0,2,3,2,0
16.425,1,1,13,3,2,3,0,1
16.43,3,5,3,1,1,1,1,1
16.435,3,2,13,2,1,1,1,0
16.44,0,0,1,1,0,1,0,0
16.445,1,2,17,3,1,2,2,1
16.45,0,3,11,2,4,0,1,3
16.455,0,2,15,5,1,1,1,9
16.46,1,4,10,1,2,1,0,3
16.465,0,3,14,3,0,1,3,1
16.47,1,2,10,1,1,4,1,4
16.475,1,1,5,0,2,1,0,5
16.48,1,2,8,2,2,2,2,0
16.485,3,2,4,4,2,1,1,5
16.49,1,4,22,0,1,0,2,1
16.495,1,1,28,2,2,3,1,1
16.5,2,1,12,4,1,0,0,3
16.505,0,7,30,3,2,2,1,0
16.51,1,2,8,3,1,1,0,2
16.515,0,3,35,1,0,0,1,2
16.52,1,0,10,5,4,3,2,0
16.525,1,4,13,1,0,1,0,2
16.53,2,1,8,1,1,1,1,3
16.535,2,1,11,3,1,2,1,0
16.54,1,2,9,4,3,3,0,2
16.545,2,2,9,0,3,4,3,13
16.55,3,2,6,2,2,2,3,17
16.555,0,3,3,3,2,1,2,1
16.56,2,0,3,1,0,0,0,1
16.565,4,2,6,0,0,0,1,1
16.57,0,0,5,0,0,0,0,3
16.575,0,1,8,2,1,1,1,2
16.58,2,1,3,1,0,0,1,2
16.585,0,2,1,2,0,1,0,3
16.59,2,2,10,3,2,1,2,3
16.595,2,5,4,0,0,1,0,3
16.6,1,1,10,0,1,3,1,1
16.605,3,1,4,4,3,2,1,4
16.61,1,2,15,0,1,2,1,2
16.615,0,2,28,2,6,5,1,1
16.62,1,1,0,1,0,0,1,1
16.625,2,3,3,8,5,3,1,3
16.63,0,5,19,2,2,2,0,2
16.635,1,2,15,2,0,0,2,1
16.64,3,5,15,2,0,1,1,2
16.645,0,1,20,3,3,0,1,4
16.65,3,3,28,3,2,3,1,1
16.655,1,3,5,10,3,4,0,1
16.66,0,1,5,0,1,2,2,1
16.665,2,0,10,5,4,2,3,1
16.67,1,3,3,2,1,0,1,0
16.675,2,1,5,2,1,1,0,0
16.68,0,2,16,0,0,1,1,3
16.685,0,2,15,1,1,0,0,2
16.69,0,0,3,3,3,3,2,3
16.695,3,2,6,0,2,2,3,4
16.7,1,1,5,1,0,1,1,0
16.705,2,1,5,3,0,1,0,1
16.71,3,7,1,1,1,2,0,0
16.715,4,3,13,2,0,1,2,1
16.72,2,2,6,6,2,1,1,1
16.725,1,1,15,1,0,3,1,2
16.73,0,16,17,2,5,2,3,1
16.735,0,10,11,18,4,1,2,1
16.74,1,7,4,14,5,1,0,2
16.745,2,4,16,9,1,2,1,1
16.75,0,9,17,6,4,0,1,1
16.755,0,0,1,17,7,2,2,1
16.76,3,1,0,4,5,1,2,3
16.765,2,7,1,3,1,1,1,1
16.77,5,8,3,0,2,2,2,1
16.775,1,1,5,5,1,1,1,2
16.78,1,10,8,7,1,1,0,1
16.785,0,4,17,0,1,2,1,2
16.79,1,6,19,3,2,3,2,1
16.795,1,1,18,1,1,1,0,1
16.8,2,1,18,1,0,1,2,1
16.805,3,13,7,4,2,0,0,0
16.81,3,11,3,2,0,2,2,1
16.815,1,5,18,2,1,3,2,1
16.82,2,3,1,7,0,1,1,2
16.825,2,1,2,5,1,2,1,1
16.83,2,8,2,1,1,0,2,1
16.835,1,2,2,8,0,1,2,2
16.84,1,0,1,10,6,4,2,0
16.845,1,2,33,16,0,2,2,1
16.85,1,2,9,4,2,1,0,2
16.855,2,2,8,4,1,0,0,1
16.86,1,4,40,8,3,2,2,1
16.865,1,2,12,1,4,2,0,0
16.87,2,5,0,19,6,0,1,0
16.875,2,1,2,17,6,0,1,1
16.88,1,4,3,4,1,0,3,2
16.885,0,1,9,0,5,3,0,2
16.89,2,6,31,11,2,1,2,2
16.895,1,1,17,5,3,0,0,1
16.9,2,2,12,6,2,1,1,1
16.905,2,2,9,1,2,2,0,2
16.91,1,2,7,6,1,1,0,2
16.915,2,1,9,8,5,1,2,3
16.92,3,8,27,2,0,1,0,2
16.925,1,5,9,4,3,2,1,2
16.93,1,4,9,6,2,2,0,2
16.935,4,14,8,1,1,4,2,0
16.94,6,10,9,7,0,1,0,1
16.945,3,1,2,3,0,2,1,1
16.95,2,7,5,1,2,1,0,1
16.955,0,3,1,5,2,0,1,0
16.96,2,3,7,12,6,3,1,2
16.965,2,1,10,25,3,0,1,1
16.97,1,1,4,6,1,1,1,0
16.975,1,5,1,12,0,0,3,0
16.98,1,5,4,4,3,1,1,2
16.985,0,3,6,4,5,2,1,0
16.99,1,2,2,4,3,1,4,0
16.995,2,1,8,14,3,1,2,1
17,3,5,18,9,3,2,2,0
17.005,0,3,2,13,6,3,2,1
17.01,1,0,9,8,6,2,0,1
17.015,3,11,5,11,4,4,1,0
17.02,2,19,27,1,1,1,0,2
17.025,1,4,32,17,4,1,1,2
17.03,1,5,2,3,4,3,0,1
17.035,2,11,2,9,5,1,0,1
17.04,0,5,0,4,1,3,1,0
17.045,2,2,16,14,2,3,2,0
17.05,1,4,13,10,1,1,2,2
17.055,0,3,12,23,4,1,1,1
17.06,0,4,9,9,2,2,2,1
17.065,0,3,19,37,1,2,3,3
17.07,4,3,46,1,3,1,0,1
17.075,0,3,23,30,5,1,0,1
17.08,1,6,14,37,4,2,3,1
17.085,1,3,28,22,9,3,2,2
17.09,0,6,105,10,0,2,3,1
17.095,2,6,18,8,0,0,3,1
17.1,2,2,58,23,5,1,2,1
17.105,2,5,28,2,2,0,1,0
17.11,4,2,43,1,5,2,3,3
17.115,0,5,14,16,2,2,2,2
17.12,2,4,13,11,1,0,2,1
17.125,0,2,3,5,2,2,0,0
17.13,1,4,7,0,3,3,1,0
17.135,2,16,8,7,3,3,1,3
17.14,0,5,16,8,0,1,2,2
17.145,1,6,13,3,3,3,3,2
17.15,1,9,25,1,1,1,0,1
17.155,4,4,48,1,1,0,0,0
17.16,2,3,19,3,2,0,1,2
17.165,1,0,15,2,1,2,0,1
17.17,1,5,5,1,3,3,1,2
17.175,2,5,9,5,0,1,1,3
17.18,2,2,13,1,0,3,1,1
17.185,1,5,5,4,1,3,1,0
17.19,0,3,3,7,3,3,2,1
17.195,3,6,16,6,2,1,2,1
17.2,1,1,6,7,2,1,0,2
17.205,1,1,13,3,1,1,2,1
17.21,1,11,24,4,0,1,2,0
17.215,0,10,45,2,2,2,1,3
17.22,0,2,0,5,2,1,1,0
17.225,2,4,12,5,3,2,2,2
17.23,2,2,3,1,0,1,0,1
17.235,0,5,11,5,4,2,1,1
17.24,0,5,4,3,0,0,1,1
17.245,1,6,2,4,3,1,1,1
17.25,1,9,10,20,4,0,2,4
17.255,2,6,19,1,0,0,2,1
17.26,1,18,8,5,2,2,0,1
17.265,5,32,8,3,1,3,1,2
17.27,0,2,12,12,8,3,2,1
17.275,1,3,7,11,1,1,2,0
17.28,1,2,2,4,0,3,2,2
17.285,2,10,16,1,0,1,2,0
17.29,3,8,10,13,3,0,0,0
17.295,1,2,3,5,0,2,0,2
17.3,0,2,9,2,1,2,0,0
17.305,1,4,7,2,2,1,1,1
17.31,2,4,2,3,3,1,1,1
17.315,1,3,13,0,1,1,1,2
17.32,2,6,0,1,0,1,1,3
17.325,0,1,1,3,1,0,1,1
17.33,0,1,1,1,1,0,1,0
17.335,2,2,1,2,1,3,3,1
17.34,1,1,16,4,2,1,2,1
17.345,2,1,6,1,1,1,0,1
17.35,1,0,5,2,3,1,1,1
17.355,1,3,5,3,2,0,1,0
17.36,0,4,2,3,1,3,1,0
17.365,1,4,1,1,1,0,1,8
17.37,0,0,3,1,1,0,1,10
17.375,2,3,4,5,4,2,3,5
17.38,0,0,5,0,0,1,2,2
17.385,2,1,8,0,1,3,2,4
17.39,1,2,1,2,2,2,0,5
17.395,0,2,0,1,1,3,0,1
17.4,1,4,1,1,3,2,0,1
17.405,6,4,4,4,1,1,2,2
17.41,3,1,2,2,3,2,2,9
17.415,2,1,5,2,1,2,1,12
17.42,0,8,10,1,1,1,0,11
17.425,3,8,17,0,1,1,1,2
17.43,0,2,6,6,3,0,1,10
17.435,5,6,5,2,1,1,2,8
17.44,7,4,3,5,1,2,2,2
17.445,8,1,2,1,1,11,4,1
17.45,0,1,1,3,1,8,0,24
17.455,3,0,3,1,2,7,3,18
17.46,3,2,5,1,0,7,1,3
17.465,2,2,3,1,0,3,1,4
17.47,4,0,1,4,1,6,1,58
17.475,5,1,9,1,2,7,6,27
17.48,3,1,17,3,2,4,3,30
17.485,3,4,3,2,0,7,8,14
17.49,2,1,10,2,0,3,2,1
17.495,3,0,8,0,0,2,2,10
17.5,1,5,6,4,4,3,2,4
17.505,0,1,11,1,3,9,3,3
17.51,3,3,1,4,1,1,6,17
17.515,3,3,3,0,5,27,11,3
17.52,1,3,25,2,0,11,5,10
17.525,6,4,35,5,1,24,6,12
17.53,5,7,2,1,5,19,3,5
17.535,5,5,14,6,2,12,9,14
17.54,2,10,41,4,1,8,10,17
17.545,5,3,22,2,1,16,10,50
17.55,1,2,4,1,1,2,3,66
17.555,3,2,5,0,0,12,2,13
17.56,1,3,11,2,0,2,3,10
17.565,5,2,10,6,6,16,8,20
17.57,2,1,5,2,1,2,2,12
17.575,2,1,6,2,3,1,2,12
17.58,2,0,11,1,1,1,1,5
17.585,1,3,13,2,1,0,0,10
17.59,0,2,6,3,0,2,2,1
17.595,2,4,8,1,4,6,5,6
17.6,7,5,8,1,1,2,1,11
17.605,1,0,5,2,2,1,1,1
17.61,4,6,10,0,4,3,1,8
17.615,3,1,37,22,13,5,4,4
17.62,4,3,8,5,8,3,3,11
17.625,6,5,42,19,7,2,3,3
17.63,9,4,6,8,5,1,3,12
17.635,1,3,9,9,0,1,1,9
17.64,3,7,30,14,4,0,1,4
17.645,1,1,16,16,7,5,5,10
17.65,1,4,4,7,0,2,1,1
17.655,0,5,46,3,5,3,1,4
17.66,1,4,0,10,1,1,2,1
17.665,10,16,35,16,3,4,3,10
17.67,0,3,2,4,1,1,2,1
17.675,1,8,27,5,0,1,2,1
17.68,2,6,18,0,2,0,1,3
17.685,0,1,2,7,1,2,1,0
17.69,4,1,3,5,6,5,2,3
17.695,2,6,15,0,4,1,1,2
17.7,0,5,0,4,0,2,1,2
17.705,3,3,10,1,4,3,1,4
17.71,0,3,18,8,2,1,1,2
17.715,1,6,17,7,5,1,0,2
17.72,2,2,13,6,3,2,2,2
17.725,1,2,5,0,2,1,1,1
17.73,3,5,20,4,1,0,1,3
17.735,2,9,27,3,0,0,1,3
17.74,2,5,14,9,4,4,1,1
17.745,1,1,2,2,0,3,1,3
17.75,1,1,15,2,0,0,0,0
17.755,0,1,2,0,2,2,3,11
17.76,2,2,12,0,1,1,1,14
17.765,2,3,2,0,2,0,1,6
17.77,2,2,2,2,2,2,2,0
17.775,4,5,11,2,0,2,0,4
17.78,0,0,4,0,0,0,2,4
17.785,1,1,6,1,0,2,2,1
17.79,3,4,2,1,1,1,1,3
17.795,3,2,3,1,3,2,2,2
17.8,1,3,7,5,2,1,1,1
17.805,0,1,12,0,0,2,1,2
17.81,1,2,4,3,3,0,2,1
17.815,1,2,28,2,4,2,1,3
17.82,0,3,21,2,2,0,2,2
17.825,3,2,15,7,5,7,2,0
17.83,1,3,1,2,1,9,0,0
17.835,1,3,17,5,4,3,5,1
17.84,0,2,3,1,1,1,1,9
17.845,1,2,4,0,2,1,1,13
17.85,3,0,4,1,2,4,0,2
17.855,2,1,4,0,2,0,2,3
17.86,2,3,4,3,0,4,3,0
17.865,1,2,3,3,2,1,1,4
17.87,2,3,18,1,1,5,1,1
17.875,3,0,8,1,1,0,3,3
17.88,0,2,7,2,2,1,2,2
17.885,1,0,13,2,1,1,0,1
17.89,0,1,22,4,0,1,2,2
17.895,0,5,5,4,3,2,2,0
17.9,0,3,8,2,2,1,1,2
17.905,1,1,5,2,2,1,0,1
17.91,1,2,5,2,0,1,2,0
17.915,1,3,1,1,3,2,1,0
17.92,0,2,3,1,3,2,2,1
17.925,1,1,10,3,1,0,0,2
17.93,3,0,3,1,1,0,2,0
17.935,2,1,3,2,2,3,0,2
17.94,4,3,9,2,1,2,1,4
17.945,2,2,2,4,4,8,2,15
17.95,2,5,5,0,0,3,5,14
17.955,0,1,15,1,0,2,1,3
17.96,1,4,3,1,1,1,0,0
17.965,1,2,6,4,4,1,2,1
17.97,1,3,2,2,2,5,4,3
17.975,2,1,11,2,2,4,1,1
17.98,0,3,14,4,2,3,3,1
17.985,2,2,7,2,1,1,1,4
17.99,1,5,3,2,2,2,1,1
17.995,3,1,12,1,2,1,2,4
18,1,1,13,0,1,0,1,2
18.005,1,6,19,2,1,1,4,5
18.01,1,4,26,1,3,1,2,1
18.015,2,1,12,2,1,1,0,1
18.02,1,5,5,4,5,8,1,1
18.025,2,2,14,4,4,8,2,3
18.03,3,1,16,6,2,4,2,1
18.035,1,0,3,2,1,0,0,0
18.04,3,1,20,2,0,2,0,1
18.045,1,2,18,3,1,1,1,10
18.05,4,4,6,2,1,0,3,16
18.055,2,3,16,7,6,6,3,2
18.06,1,2,0,2,2,2,3,1
18.065,2,3,2,1,0,5,1,1
18.07,1,1,15,2,2,1,2,8
18.075,3,1,7,7,1,1,2,3
18.08,4,2,2,2,2,3,0,5
18.085,0,4,12,2,3,5,1,2
18.09,0,0,2,1,1,8,1,2
18.095,2,1,11,1,2,6,10,4
18.1,0,2,9,3,2,5,6,3
18.105,1,4,6,1,0,2,1,3
18.11,3,1,4,0,3,1,3,1
18.115,1,4,8,0,1,4,1,2
18.12,1,2,0,2,2,2,5,0
18.125,3,4,3,0,3,3,2,11
18.13,1,1,32,6,2,3,1,4
18.135,0,7,34,5,2,0,0,3
18.14,3,5,19,2,1,0,3,3
18.145,4,3,2,1,1,5,1,1
18.15,0,1,8,0,1,3,2,4
18.155,5,9,15,4,1,2,0,4
18.16,4,4,1,1,1,1,2,1
18.165,0,3,8,1,3,4,2,2
18.17,2,5,5,1,0,2,6,2
18.175,2,2,10,1,2,4,2,0
18.18,2,3,31,5,6,7,1,3
18.185,0,1,25,1,4,7,3,1
18.19,0,1,12,3,0,4,2,2
18.195,2,2,4,2,3,2,1,1
18.2,2,0,15,1,3,2,2,1
18.205,3,8,1,5,1,4,3,3
18.21,0,1,8,1,1,6,2,1
18.215,1,0,4,2,3,7,1,0
18.22,1,1,9,2,2,1,2,2
18.225,0,0,14,4,6,5,2,9
18.23,1,4,7,1,5,2,0,13
18.235,0,1,8,7,4,2,1,4
18.24,4,12,14,2,1,0,2,0
18.245,2,2,9,6,4,4,1,2
18.25,2,3,4,2,4,3,0,2
18.255,4,2,13,4,0,1,1,1
18.26,1,6,10,4,3,5,6,5
18.265,2,4,7,1,2,2,1,1
18.27,2,4,4,1,1,3,1,3
18.275,2,6,17,0,0,8,3,0
18.28,0,7,22,0,4,3,3,8
18.285,3,5,11,2,3,4,2,9
18.29,6,0,3,1,1,0,3,9
18.295,2,1,28,1,1,6,1,2
18.3,3,6,8,2,7,9,3,4
18.305,0,7,4,4,5,8,5,9
18.31,2,1,10,1,1,5,3,3
18.315,2,1,13,2,1,1,0,6
18.32,1,2,10,9,3,3,3,1
18.325,2,3,5,4,1,4,1,2
18.33,2,6,3,1,1,10,5,2
18.335,6,3,28,4,6,2,4,2
18.34,2,1,0,2,1,3,0,1
18.345,2,2,14,4,1,1,5,3
18.35,2,0,35,10,3,2,2,0
18.355,5,5,1,8,7,4,1,0
18.36,1,2,4,3,3,3,1,3
18.365,0,2,24,3,4,3,0,4
18.37,1,10,5,6,1,5,5,4
18.375,0,6,21,7,1,3,1,0
18.38,6,5,1,12,6,9,5,7
18.385,6,2,1,0,2,1,1,13
18.39,1,10,21,5,6,9,6,5
18.395,2,6,18,2,3,7,5,1
18.4,4,1,8,0,2,1,2,9
18.405,8,4,4,2,4,6,1,10
18.41,1,1,11,3,2,8,3,1
18.415,2,9,39,4,2,0,3,0
18.42,3,5,27,4,0,2,4,7
18.425,5,8,0,4,6,3,0,4
18.43,0,3,18,2,1,3,5,2
18.435,0,0,12,2,2,3,2,2
18.44,2,5,27,1,2,1,2,2
18.445,1,3,30,1,2,3,4,8
18.45,4,4,10,7,3,4,3,7
18.455,2,1,8,5,4,3,0,8
18.46,1,1,13,3,2,5,2,14
18.465,4,1,14,0,1,7,0,4
18.47,0,8,8,1,1,9,4,5
18.475,1,4,3,5,1,6,4,2
18.48,3,5,50,17,3,7,4,1
18.485,8,1,6,2,2,6,1,2
18.49,13,3,10,4,4,5,9,5
18.495,5,2,28,1,2,4,0,1
18.5,1,0,6,1,0,3,1,3
18.505,4,3,12,1,1,5,3,2
18.51,7,1,20,6,3,4,3,4
18.515,3,1,12,1,7,26,23,5
18.52,5,7,14,5,4,27,15,2
18.525,1,4,5,3,4,3,2,4
18.53,4,14,56,17,4,6,1,1
18.535,3,2,9,4,2,0,2,1
18.54,2,2,29,3,0,2,2,1
18.545,4,2,1,1,1,8,2,1
18.55,9,7,2,2,2,1,0,2
18.555,11,2,6,1,1,3,2,1
18.56,18,3,20,6,4,14,8,1
18.565,1,9,5,3,1,3,2,1
18.57,6,4,1,5,2,7,2,8
18.575,3,5,1,2,3,2,19,15
18.58,4,1,8,9,2,9,2,8
18.585,14,9,9,7,9,23,12,16
18.59,1,3,8,2,4,27,24,12
18.595,5,0,3,4,6,23,14,7
18.6,1,7,9,1,3,6,5,5
18.605,5,2,1,2,4,2,0,10
18.61,2,4,7,2,2,9,14,5
18.615,6,2,14,2,2,3,9,7
18.62,3,1,6,0,1,19,11,2
18.625,7,2,20,0,1,8,3,3
18.63,0,0,38,9,2,6,8,7
18.635,0,2,7,3,1,4,0,5
18.64,9,5,3,0,6,8,3,17
18.645,1,1,3,0,1,6,5,4
18.65,3,1,3,1,0,6,1,8
18.655,13,3,8,1,3,19,14,15
18.66,4,5,2,1,4,22,16,4
18.665,6,5,4,4,4,8,1,12
18.67,4,3,12,2,0,5,3,7
18.675,5,14,35,0,5,21,18,13
18.68,11,2,17,2,0,11,6,4
18.685,2,4,8,5,0,16,11,1
18.69,4,5,9,5,3,8,1,5
18.695,2,9,24,6,4,5,3,1
18.7,8,2,15,1,2,3,18,3
18.705,1,0,17,2,1,6,2,1
18.71,13,5,1,1,1,1,1,4
18.715,4,6,18,0,1,2,4,2
18.72,5,1,32,6,1,1,8,1
18.725,5,1,2,3,1,0,3,0
18.73,1,1,12,2,4,9,3,3
18.735,3,0,2,2,2,3,0,6
18.74,6,6,13,0,0,7,1,1
18.745,4,5,16,5,3,18,8,2
18.75,8,9,3,5,2,5,3,5
18.755,7,3,4,2,0,3,3,19
18.76,6,4,3,8,7,24,13,16
18.765,2,1,8,5,6,35,17,5
18.77,5,10,2,1,2,5,3,4
18.775,3,5,12,4,3,4,7,2
18.78,1,3,0,3,1,4,11,8
18.785,1,3,14,3,1,11,10,0
18.79,3,2,8,2,2,13,17,2
18.795,1,5,13,6,2,24,7,8
18.8,14,7,3,4,4,0,3,1
18.805,5,2,7,1,4,12,9,0
18.81,7,6,14,4,0,5,8,1
18.815,6,6,24,4,1,14,9,1
18.82,7,2,2,3,1,2,1,2
18.825,2,6,30,9,2,2,1,11
18.83,8,4,10,5,2,10,4,4
18.835,6,2,13,3,1,0,7,8
18.84,1,2,7,0,2,2,2,2
18.845,1,5,6,2,1,2,3,5
18.85,1,2,14,3,2,1,0,2
18.855,1,8,41,2,1,3,3,3
18.86,0,0,22,1,0,7,1,0
18.865,2,17,34,2,5,13,3,4
18.87,5,6,16,1,1,8,3,3
18.875,2,6,7,4,1,4,5,2
18.88,1,2,14,1,4,0,2,4
18.885,4,8,14,6,2,2,2,1
18.89,4,1,4,3,2,4,7,2
18.895,3,2,7,1,5,12,14,4
18.9,5,4,4,1,3,17,8,9
18.905,7,3,4,3,3,2,5,15
18.91,13,6,2,8,2,7,5,1
18.915,4,3,13,0,3,9,10,1
18.92,1,1,3,2,4,10,5,4
18.925,1,1,17,2,3,3,6,9
18.93,1,1,9,1,1,3,0,2
18.935,1,8,23,6,0,3,2,6
18.94,0,2,13,2,0,3,5,1
18.945,8,3,0,0,2,4,2,3
18.95,9,5,15,2,1,0,3,4
18.955,3,4,6,3,1,1,2,2
18.96,1,2,3,5,4,4,3,0
18.965,2,3,9,5,1,2,0,1
18.97,3,2,23,6,2,5,2,11
18.975,9,4,9,4,2,3,7,9
18.98,19,4,7,7,6,5,5,3
18.985,0,9,5,6,7,11,1,2
18.99,0,2,2,4,4,7,4,0
18.995,8,4,2,3,3,0,3,3
19,6,4,10,4,2,4,7,6
19.005,6,0,5,5,1,3,4,0
19.01,1,1,13,5,5,0,1,1
19.015,5,4,36,1,2,6,4,4
19.02,5,0,4,0,2,6,6,6
19.025,0,2,20,13,7,5,7,1
19.03,6,4,7,2,2,2,4,9
19.035,5,2,22,0,3,6,0,2
19.04,1,4,2,3,2,0,1,3
19.045,6,1,1,1,1,1,3,0
19.05,2,6,21,3,1,1,7,1
19.055,1,2,12,1,1,1,9,2
19.06,13,11,21,9,5,5,5,2
19.065,2,1,16,3,3,3,1,2
19.07,2,4,27,6,5,2,7,4
19.075,5,2,7,1,2,1,9,1
19.08,9,5,0,3,0,0,5,3
19.085,6,3,5,3,1,4,6,1
19.09,6,6,24,5,7,5,2,1
19.095,14,4,3,2,0,2,2,7
19.1,3,6,6,2,4,5,7,3
19.105,2,1,7,3,1,1,2,13
19.11,8,4,3,1,2,4,11,3
19.115,2,3,21,0,0,5,6,9
19.12,1,4,19,2,1,0,4,7
19.125,1,2,5,2,2,2,4,1
19.13,7,3,15,3,1,6,1,9
19.135,16,3,11,3,1,2,3,12
19.14,2,2,10,2,2,4,4,5
19.145,1,4,4,6,4,0,3,5
19.15,1,6,2,3,3,4,3,1
19.155,2,3,5,3,1,2,1,6
19.16,7,2,15,1,4,11,4,6
19.165,1,4,2,1,1,11,3,2
19.17,4,2,8,0,1,2,3,20
19.175,5,3,16,2,2,1,2,16
19.18,8,6,22,6,0,0,1,4
19.185,12,3,33,7,3,4,5,10
19.19,0,2,23,11,0,4,8,2
19.195,6,6,33,11,6,3,19,4
19.2,6,1,25,0,0,4,4,5
19.205,1,0,27,2,6,2,12,2
19.21,0,3,7,3,5,18,7,6
19.215,3,1,5,4,3,10,12,9
19.22,7,0,21,3,0,10,3,2
19.225,5,0,1,1,1,1,2,2
19.23,11,4,16,7,2,7,2,3
19.235,1,1,16,1,1,6,6,3
19.24,7,5,14,11,4,12,12,3
19.245,7,0,26,2,2,3,8,5
19.25,10,0,6,1,1,1,3,2
19.255,2,4,10,5,7,7,2,16
19.26,7,4,1,1,2,10,0,2
19.265,21,3,9,2,1,3,5,6
19.27,9,2,10,2,2,1,3,10
19.275,16,8,14,4,1,1,8,1
19.28,8,6,22,7,7,14,8,2
19.285,11,2,4,2,1,6,8,6
19.29,5,5,1,2,0,4,7,0
19.295,8,8,3,0,1,2,0,0
19.3,4,4,7,2,2,10,3,3
19.305,3,1,7,1,3,13,16,3
19.31,4,3,7,3,0,0,4,11
19.315,1,7,3,2,0,4,6,12
19.32,9,1,5,0,0,3,4,13
19.325,4,0,4,3,4,4,5,5
19.33,9,1,1,1,1,1,1,16
19.335,4,6,18,0,0,14,5,0
19.34,1,7,7,1,1,0,6,7
19.345,6,2,11,5,2,15,12,3
19.35,3,0,11,3,3,13,8,8
19.355,3,1,34,15,1,7,4,0
19.36,2,5,76,16,2,3,9,3
19.365,4,5,2,0,1,6,7,3
19.37,3,1,7,4,6,14,17,4
19.375,3,0,2,2,2,0,1,1
19.38,12,2,9,6,3,6,3,7
19.385,20,2,17,4,7,1,0,4
19.39,7,6,4,1,12,4,5,7
19.395,3,0,7,3,1,0,4,8
19.4,3,1,34,9,1,6,9,2
19.405,6,6,47,12,8,1,1,8
19.41,1,1,14,8,1,2,1,5
19.415,4,1,14,8,1,6,10,4
19.42,5,1,15,2,1,3,10,3
19.425,3,0,10,4,1,1,2,2
19.43,7,4,14,0,5,13,8,5
19.435,11,0,2,6,0,9,11,4
19.44,4,1,8,6,8,20,23,12
19.445,36,3,17,3,1,3,2,1
19.45,1,9,19,5,5,8,3,4
19.455,3,6,2,0,4,1,2,5
19.46,14,3,2,3,7,4,13,8
19.465,2,1,16,3,1,3,0,10
19.47,6,1,6,1,3,3,1,8
19.475,11,1,4,2,5,10,13,6
19.48,2,6,10,7,9,10,3,2
19.485,5,4,22,3,6,4,1,10
19.49,6,1,3,2,2,3,10,3
19.495,0,1,8,2,3,7,3,7
19.5,9,2,3,2,3,1,2,3
19.505,3,15,32,1,2,2,2,4
19.51,3,15,50,6,3,3,4,1
19.515,6,0,8,2,0,6,4,2
19.52,2,8,1,11,3,3,0,1
19.525,8,16,19,21,3,3,1,2
19.53,2,6,18,3,3,1,1,0
19.535,5,1,35,1,2,1,3,0
19.54,7,8,41,2,1,3,0,1
19.545,6,12,32,4,1,1,0,4
19.55,4,7,10,1,1,1,3,1
19.555,7,14,53,1,0,4,2,3
19.56,5,5,39,4,1,2,2,13
19.565,3,5,13,1,2,0,1,1
19.57,1,10,5,1,1,1,0,0
19.575,1,2,61,8,1,2,0,5
19.58,8,8,17,5,0,1,3,5
19.585,1,3,8,3,4,2,6,2
19.59,7,1,20,1,2,5,6,10
19.595,1,5,23,1,0,3,5,1
19.6,6,4,15,5,3,1,1,4
19.605,2,12,17,6,1,3,3,8
19.61,4,3,1,0,1,3,1,3
19.615,4,7,6,0,2,2,2,1
19.62,1,4,12,0,3,1,1,2
19.625,1,2,17,1,2,1,1,1
19.63,3,5,3,4,2,2,1,4
19.635,2,1,41,4,1,0,2,1
19.64,3,0,43,7,1,0,2,4
19.645,1,3,4,2,0,1,0,1
19.65,4,4,4,0,0,1,0,2
19.655,2,9,25,0,2,2,4,4
19.66,7,3,4,0,2,0,0,1
19.665,6,4,10,6,1,0,0,3
19.67,2,7,23,5,1,0,2,3
19.675,1,3,17,0,1,2,1,0
19.68,4,3,12,0,2,1,0,2
19.685,1,2,4,1,4,0,2,2
19.69,1,1,2,6,4,7,6,5
19.695,2,8,28,7,1,1,1,0
19.7,2,6,27,9,5,5,3,0
19.705,2,13,46,10,7,5,3,1
19.71,5,6,9,3,1,3,2,0
19.715,2,1,15,1,2,2,0,0
19.72,4,4,1,3,2,0,1,3
19.725,0,2,9,2,5,4,2,1
19.73,4,0,7,1,1,1,4,4
19.735,0,3,22,4,3,1,3,1
19.74,3,7,23,6,2,1,1,1
19.745,0,2,1,2,2,0,0,0
19.75,3,4,5,1,2,2,2,1
19.755,5,1,18,1,2,3,4,3
19.76,2,2,8,5,3,3,3,2
19.765,2,2,6,2,1,2,0,2
19.77,1,0,2,0,1,0,2,1
19.775,10,12,16,1,3,3,1,2
19.78,2,13,30,4,3,2,1,0
19.785,8,9,33,4,1,2,2,2
19.79,0,4,40,5,1,1,2,0
19.795,2,9,21,4,0,1,0,2
19.8,1,2,4,4,4,5,3,1
19.805,1,6,15,4,2,2,2,2
19.81,2,4,20,4,3,4,1,2
19.815,5,1,25,2,1,1,2,2
19.82,3,7,49,0,1,2,2,0
19.825,1,1,9,4,0,2,0,1
19.83,2,4,17,4,2,1,0,1
19.835,2,1,0,2,4,3,1,12
19.84,2,3,28,3,2,2,3,12
19.845,1,1,3,1,2,2,0,2
19.85,3,1,3,1,0,1,2,4
19.855,0,0,1,1,1,0,0,1
19.86,1,1,0,2,0,1,2,3
19.865,0,3,4,2,2,4,3,10
19.87,5,6,7,8,4,3,1,3
19.875,3,2,3,7,3,2,2,1
19.88,3,3,16,3,2,3,2,1
19.885,1,1,19,2,1,3,1,4
19.89,0,1,3,4,2,4,2,1
19.895,0,0,2,3,5,0,0,3
19.9,1,3,1,2,2,2,1,0
19.905,2,1,2,0,1,0,0,0
19.91,5,3,10,2,0,2,3,2
19.915,0,2,4,0,1,2,2,7
19.92,2,2,8,6,4,3,3,3
19.925,1,3,1,1,1,1,1,2
19.93,2,3,9,1,0,0,1,2
19.935,0,4,13,6,2,3,2,0
19.94,0,6,33,1,0,1,1,1
19.945,1,1,31,4,2,0,1,2
19.95,2,1,5,2,1,2,1,0
19.955,1,3,22,2,3,1,1,1
19.96,3,2,7,7,2,2,1,2
19.965,3,2,30,8,1,1,0,2
19.97,0,3,11,3,0,1,1,1
19.975,4,0,2,4,4,2,2,4
19.98,0,1,12,0,2,1,1,1
19.985,0,1,12,1,3,1,1,1
19.99,0,2,15,2,1,2,1,2
19.995,2,4,6,1,1,0,1,3
20,1,2,16,4,1,1,2,1
20.005,2,1,2,5,2,1,1,2
20.01,4,4,7,3,3,2,1,2
20.015,4,9,25,0,3,3,1,0
20.02,3,7,22,3,2,4,2,1
20.025,0,1,20,2,0,2,1,1
20.03,2,0,3,1,1,0,0,0
20.035,1,2,20,0,2,1,0,0
20.04,3,5,9,1,0,0,1,1
20.045,1,1,6,1,0,1,0,1
20.05,2,0,2,1,0,0,1,10
20.055,6,1,8,2,2,3,6,13
20.06,1,1,15,0,3,3,1,0
20.065,2,2,15,1,0,1,0,3
20.07,0,3,9,1,2,2,1,0
20.075,0,3,5,2,1,1,0,3
20.08,1,1,11,0,1,2,3,0
20.085,2,3,2,4,3,3,1,0
20.09,2,4,8,3,1,2,1,4
20.095,3,10,21,4,1,0,0,1
20.1,3,5,4,2,2,2,2,3
20.105,1,4,11,2,0,1,1,0
20.11,1,2,39,1,2,2,3,4
20.115,4,7,23,4,1,0,1,2
20.12,2,0,8,0,0,2,1,0
20.125,2,2,10,2,2,3,1,0
20.13,3,0,9,1,2,1,1,3
20.135,1,2,9,1,5,3,2,0
20.14,0,3,10,1,0,0,2,0
20.145,1,1,2,1,1,1,1,2
20.15,3,1,4,1,0,1,1,0
20.155,1,1,1,1,1,1,2,0
20.16,7,4,5,0,1,1,0,2
20.165,1,3,11,1,2,2,2,3
20.17,1,3,14,4,1,0,3,1
20.175,4,3,9,0,3,3,2,1
20.18,3,1,8,2,2,2,1,1
20.185,4,2,3,0,1,0,2,1
20.19,1,0,15,4,2,4,3,3
20.195,1,3,2,1,1,1,0,1
20.2,0,0,2,1,3,0,0,0
20.205,0,4,1,1,0,1,0,1
20.21,0,4,14,8,3,3,2,2
20.215,1,3,16,2,4,3,2,13
20.22,3,2,6,2,0,0,2,13
20.225,2,1,6,3,1,1,1,2
20.23,4,1,3,2,2,1,1,2
20.235,1,1,2,2,2,1,0,0
20.24,1,1,14,3,3,1,2,4
20.245,2,3,6,1,1,1,1,3
20.25,4,4,15,3,2,3,3,2
20.255,2,5,24,2,0,0,1,1
20.26,2,2,5,4,3,2,0,3
20.265,4,1,9,2,2,0,1,3
20.27,2,1,6,3,0,0,2,1
20.275,1,4,23,1,3,3,1,4
20.28,2,2,17,2,0,1,1,2
20.285,1,2,17,1,1,0,1,2
20.29,1,1,53,10,2,1,0,1
20.295,2,2,0,0,1,1,0,4
20.3,2,0,4,1,0,2,3,0
20.305,1,3,7,2,0,2,1,1
20.31,0,2,24,0,0,2,0,2
20.315,2,0,5,1,0,0,1,3
20.32,4,6,19,2,0,1,0,1
20.325,1,3,6,1,2,1,0,3
20.33,2,1,3,1,1,1,1,0
20.335,0,2,2,4,2,1,0,3
20.34,4,2,15,2,3,0,2,9
20.345,4,2,9,3,0,1,1,1
20.35,1,3,6,2,1,2,1,4
20.355,7,8,5,2,1,0,1,2
20.36,1,3,3,1,2,0,1,2
20.365,2,0,30,1,3,2,2,1
20.37,1,2,6,1,1,0,1,1
20.375,5,1,8,3,2,1,2,4
20.38,2,1,12,1,1,1,0,3
20.385,3,5,0,7,2,2,6,2
20.39,8,0,14,1,1,1,1,0
20.395,5,1,15,1,3,4,1,2
20.4,1,0,4,4,3,2,1,2
20.405,2,2,0,3,3,2,0,1
20.41,3,1,4,0,2,3,0,7
20.415,1,3,11,0,2,0,2,1
20.42,3,4,12,4,4,5,4,3
20.425,0,4,6,1,0,1,3,3
20.43,1,1,5,1,2,0,2,0
20.435,6,1,11,0,3,2,0,2
20.44,2,2,1,2,1,7,4,2
20.445,2,1,17,2,4,3,1,3
20.45,1,3,25,1,1,3,1,3
20.455,0,3,1,6,3,2,4,4
20.46,0,2,1,2,2,3,5,11
20.465,5,1,5,2,1,4,2,21
20.47,1,2,15,1,1,3,1,4
20.475,3,0,6,3,2,1,1,3
20.48,2,1,4,0,2,2,4,6
20.485,9,4,19,5,5,4,0,1
20.49,2,2,12,1,1,1,0,4
20.495,2,1,9,2,3,0,6,5
20.5,0,3,10,1,1,1,4,4
20.505,1,3,13,4,4,3,2,5
20.51,1,1,6,0,3,3,4,1
20.515,3,0,4,3,0,4,1,1
20.52,7,2,7,3,1,0,0,5
20.525,0,1,22,5,2,1,1,0
20.53,5,5,0,0,2,4,2,0
20.535,3,3,2,0,3,3,2,2
20.54,2,6,24,5,2,0,0,10
20.545,1,7,28,3,0,5,0,0
20.55,2,0,2,4,3,4,6,3
20.555,4,1,6,2,2,4,7,7
20.56,1,3,1,0,0,0,7,5
20.565,11,6,8,9,5,3,7,9
20.57,4,0,1,0,1,5,2,3
20.575,2,1,2,1,3,5,4,1
20.58,8,1,7,2,1,3,4,3
20.585,2,5,13,3,1,16,9,5
20.59,1,1,2,3,0,2,4,6
20.595,7,1,16,3,1,2,16,8
20.6,5,1,12,7,4,6,7,2
20.605,3,0,11,3,0,5,2,9
20.61,0,2,6,0,2,5,3,6
20.615,1,2,7,1,1,8,4,3
20.62,5,1,1,3,0,0,1,0
20.625,0,2,32,9,0,2,4,1
20.63,4,5,11,5,4,3,1,5
20.635,1,6,19,2,2,5,1,3
20.64,1,0,8,4,3,4,4,4
20.645,1,1,0,1,0,7,4,2
20.65,3,3,3,3,2,1,2,1
20.655,3,0,8,1,1,6,1,3
20.66,5,3,0,3,2,1,1,1
20.665,0,4,13,0,2,3,4,2
20.67,1,1,6,4,5,2,1,2
20.675,2,2,2,1,0,4,0,0
20.68,0,4,4,1,1,2,1,2
20.685,0,0,1,2,2,3,1,1
20.69,5,0,9,4,2,3,2,1
20.695,7,4,3,0,0,0,2,2
20.7,4,4,8,7,4,3,2,2
20.705,3,2,6,1,0,1,0,1
20.71,4,4,8,1,1,1,2,4
20.715,7,3,1,6,5,6,4,2
20.72,3,6,8,3,1,2,0,1
20.725,1,4,17,3,1,1,4,2
20.73,6,1,41,7,3,4,2,2
20.735,7,13,1,10,5,1,3,3
20.74,8,6,5,9,7,11,6,8
20.745,1,11,6,13,5,1,2,2
20.75,3,15,58,5,2,4,7,2
20.755,1,8,30,4,1,1,2,5
20.76,1,2,7,2,2,4,3,2
20.765,0,4,6,2,3,11,2,5
20.77,2,4,17,6,2,0,3,3
20.775,4,3,10,0,1,2,3,0
20.78,8,3,21,1,1,5,5,1
20.785,1,0,12,1,4,5,1,1
20.79,3,2,0,1,2,9,1,1
20.795,3,6,13,2,0,1,3,6
20.8,0,0,14,4,2,4,2,7
20.805,1,0,7,2,2,1,1,0
20.81,1,2,1,0,0,1,2,2
20.815,5,1,6,4,0,2,0,0
20.82,0,2,27,5,5,8,10,3
20.825,0,2,16,1,4,22,14,5
20.83,3,1,3,1,2,19,4,3
20.835,2,2,29,1,6,34,7,10
20.84,3,10,53,5,8,51,26,3
20.845,4,3,24,2,3,6,4,1
20.85,3,8,23,2,3,5,9,5
20.855,3,2,6,1,3,8,6,2
20.86,3,2,8,5,4,27,13,8
20.865,4,6,15,1,3,10,6,9
20.87,4,9,14,5,1,4,1,1
20.875,0,3,27,1,1,3,1,3
20.88,2,1,25,5,1,7,3,6
20.885,1,6,22,4,2,11,3,1
20.89,3,4,16,0,1,10,8,2
20.895,5,5,16,3,2,11,2,3
20.9,1,0,42,4,0,2,10,5
20.905,5,4,25,0,1,0,5,1
20.91,1,5,4,0,4,14,10,7
20.915,1,2,3,4,0,22,16,3
20.92,1,2,19,4,5,26,13,0
20.925,3,1,5,6,2,14,10,8
20.93,4,6,24,1,5,20,11,1
20.935,3,1,3,2,2,7,1,1
20.94,1,2,7,1,2,13,22,6
20.945,0,1,3,2,5,20,20,6
20.95,1,4,3,5,4,7,9,4
20.955,1,8,8,5,6,7,9,4
20.96,2,2,11,2,1,5,1,0
20.965,1,4,1,3,1,4,7,1
20.97,1,2,6,1,1,1,5,1
20.975,5,5,2,4,4,17,5,9
20.98,1,1,3,0,3,2,5,4
20.985,4,6,11,5,3,4,5,7
20.99,4,3,3,5,2,6,13,3
20.995,2,2,8,2,1,12,5,1
21,6,4,8,6,1,11,8,4
21.005,0,0,2,0,0,6,1,8
21.01,5,4,2,1,3,5,9,4
21.015,3,4,11,2,0,1,0,1
21.02,3,5,13,4,2,1,2,5
21.025,1,2,17,4,2,9,13,1
21.03,3,6,27,2,1,8,6,0
21.035,3,1,8,0,2,2,2,2
21.04,0,5,8,2,2,8,7,2
21.045,0,8,9,4,1,2,13,3
21.05,1,4,13,8,5,4,10,15
21.055,3,7,17,1,1,18,17,7
21.06,1,9,30,4,3,6,3,3
21.065,3,0,16,2,8,25,12,4
21.07,7,6,9,5,0,1,2,4
21.075,4,3,11,3,3,1,4,2
21.08,8,4,7,7,6,10,3,2
21.085,3,5,3,7,10,30,6,1
21.09,1,7,52,8,3,3,7,2
21.095,5,5,37,1,4,8,4,9
21.1,1,3,3,1,0,2,4,11
21.105,6,4,10,2,0,3,5,3
21.11,2,0,18,3,1,4,4,1
21.115,6,4,26,5,1,6,2,3
21.12,3,1,8,3,4,6,3,0
21.125,4,1,8,3,5,12,5,4
21.13,3,1,13,4,4,6,2,1
21.135,3,3,1,2,3,6,3,3
21.14,2,1,1,1,3,2,2,1
21.145,2,2,2,4,4,6,2,1
21.15,2,2,2,6,1,1,5,1
21.155,2,4,11,1,2,0,0,3
21.16,1,1,3,1,2,2,3,3
21.165,4,5,10,8,4,2,1,1
21.17,2,3,12,5,4,1,1,2
21.175,3,4,26,30,18,3,4,6
21.18,5,8,49,36,29,5,2,1
21.185,1,11,5,11,1,5,0,2
21.19,1,14,49,27,18,5,4,1
21.195,5,0,10,30,15,1,1,6
21.2,1,1,1,1,4,1,1,1
21.205,2,1,6,10,2,6,3,2
21.21,4,10,4,52,9,6,5,0
21.215,0,1,56,59,10,9,2,2
21.22,2,2,35,16,3,3,2,3
21.225,2,0,24,16,7,4,2,3
21.23,2,3,1,2,6,3,2,0
21.235,1,4,2,17,3,5,5,4
21.24,1,7,13,0,6,1,1,2
21.245,2,9,8,17,3,2,0,1
21.25,1,5,9,6,3,3,0,2
21.255,4,12,23,4,4,5,3,4
21.26,0,15,2,5,2,4,0,1
21.265,0,9,15,14,9,4,1,1
21.27,5,5,10,20,8,1,0,2
21.275,2,5,5,9,1,1,1,1
21.28,1,7,8,6,5,0,1,2
21.285,1,3,5,2,1,1,1,0
21.29,7,6,17,15,2,3,0,1
21.295,4,11,3,13,4,2,2,2
21.3,8,0,3,5,7,5,2,0
21.305,3,7,2,2,0,0,1,2
21.31,2,19,14,6,1,5,2,2
21.315,2,1,11,10,1,2,1,2
21.32,3,5,5,4,2,1,2,1
21.325,1,2,0,7,0,1,1,3
21.33,1,3,3,0,3,2,1,0
21.335,1,3,5,7,5,4,2,1
21.34,1,2,1,5,4,2,1,1
21.345,0,1,5,7,2,3,1,0
21.35,2,11,15,17,7,3,1,1
21.355,7,29,5,3,3,2,0,0
21.36,3,15,15,1,2,2,3,3
21.365,6,12,15,13,6,5,2,4
21.37,2,21,14,20,0,4,4,2
21.375,1,23,3,20,1,5,2,0
21.38,2,4,9,20,3,5,1,1
21.385,2,3,11,7,5,3,3,1
21.39,1,14,2,3,4,3,1,0
21.395,0,4,6,5,4,4,3,2
21.4,1,8,3,5,3,2,0,1
21.405,3,2,4,10,1,0,1,2
21.41,5,3,2,4,1,3,1,2
21.415,5,12,15,6,2,1,1,0
21.42,2,12,11,14,8,6,3,3
21.425,2,2,1,14,8,5,2,1
21.43,1,10,6,14,7,4,4,2
21.435,4,8,1,5,5,5,3,2
21.44,2,8,26,2,5,8,2,0
21.445,4,3,5,10,4,3,3,2
21.45,0,4,2,4,2,1,1,2
21.455,3,9,14,3,3,1,1,1
21.46,2,8,23,4,0,3,0,0
21.465,2,10,2,7,8,7,4,0
21.47,6,12,6,7,3,7,3,0
21.475,1,16,26,15,1,3,3,3
21.48,0,13,7,23,11,2,2,0
21.485,1,16,24,7,5,0,2,2
21.49,1,15,27,2,1,6,4,2
21.495,2,7,2,34,9,1,1,1
21.5,6,24,17,31,13,3,1,1
21.505,3,9,7,8,1,1,2,1
21.51,5,20,5,11,4,2,1,1
21.515,6,3,8,10,3,4,4,3
21.52,5,20,11,12,4,0,1,1
21.525,6,8,4,3,4,2,2,2
21.53,3,4,7,6,0,4,2,1
21.535,3,1,11,3,4,2,0,0
21.54,2,7,8,5,2,0,1,1
21.545,0,1,9,7,8,2,2,0
21.55,4,14,12,0,3,3,3,3
21.555,5,11,30,5,2,4,4,0
21.56,1,10,15,4,2,2,1,0
21.565,5,5,16,3,2,1,1,1
21.57,1,11,12,2,0,1,1,0
21.575,1,0,17,3,0,1,0,1
21.58,3,3,3,2,0,0,2,3
21.585,1,5,6,9,8,4,3,2
21.59,3,9,7,1,6,3,0,1
21.595,2,3,9,11,4,2,1,1
21.6,1,10,0,7,4,4,0,0
21.605,1,10,7,18,6,2,1,0
21.61,1,14,23,1,0,2,1,0
21.615,1,8,19,9,7,1,1,2
21.62,0,1,12,8,4,2,1,0
21.625,2,4,18,0,0,2,1,1
21.63,0,3,11,1,2,2,3,0
21.635,2,14,4,12,1,2,2,1
21.64,4,10,6,4,5,0,1,2
21.645,4,3,12,6,6,3,2,2
21.65,2,3,2,13,2,2,1,3
21.655,3,8,8,11,9,7,4,2
21.66,4,2,15,3,5,5,2,3
21.665,3,1,14,6,2,2,1,0
21.67,0,11,4,10,6,2,1,1
21.675,3,18,7,1,1,2,1,1
21.68,6,22,9,8,6,2,2,2
21.685,1,6,8,1,0,1,2,1
21.69,0,3,9,3,2,2,0,2
21.695,1,0,14,3,1,4,3,2
21.7,1,4,34,0,3,1,3,1
21.705,9,25,9,6,1,1,2,3
21.71,2,14,2,3,1,2,0,0
21.715,1,9,4,8,2,1,0,0
21.72,1,2,9,9,5,3,3,1
21.725,0,1,8,4,4,0,1,1
21.73,1,8,23,6,6,6,4,1
21.735,1,7,3,12,7,4,2,0
21.74,5,6,10,12,7,1,2,0
21.745,0,6,14,7,7,2,0,0
21.75,2,13,1,4,3,1,2,2
21.755,1,9,25,14,8,4,4,1
21.76,0,1,2,15,7,6,4,0
21.765,1,3,1,7,6,5,1,1
21.77,1,5,11,15,6,1,0,0
21.775,3,3,3,9,2,1,0,1
21.78,1,0,2,10,3,4,3,2
21.785,1,3,9,1,4,2,0,0
21.79,3,1,17,2,2,1,2,3
21.795,3,3,14,13,3,0,2,1
21.8,2,0,6,2,0,3,1,2
21.805,2,2,1,4,2,1,1,2
21.81,2,1,14,7,2,3,1,1
21.815,3,2,1,4,1,1,0,2
21.82,0,1,1,5,0,1,2,1
21.825,0,3,10,2,0,1,0,0
21.83,1,0,3,8,1,2,1,0
21.835,2,3,12,4,2,1,0,1
21.84,1,6,17,0,0,0,1,1
21.845,3,5,22,12,3,2,2,1
21.85,1,6,5,12,4,0,2,0
21.855,2,1,13,3,2,1,1,0
21.86,2,12,37,2,5,4,2,1
21.865,1,2,2,7,1,1,0,0
21.87,1,2,16,1,1,1,0,2
21.875,0,2,11,5,3,3,1,1
21.88,6,2,6,4,4,3,3,3
21.885,1,2,21,2,2,0,1,2
21.89,0,0,16,5,0,3,2,2
21.895,2,4,9,2,1,2,0,2
21.9,3,6,0,3,0,1,1,1
21.905,6,2,2,1,1,2,2,2
21.91,4,1,0,3,4,2,3,1
21.915,5,1,1,2,1,1,2,3
21.92,3,5,1,7,1,0,1,1
21.925,3,1,3,6,1,1,0,3
21.93,4,2,3,5,5,5,1,0
21.935,9,1,1,2,3,2,2,4
21.94,1,2,7,9,2,1,0,1
21.945,2,6,9,4,0,2,0,1
21.95,10,4,7,6,5,6,3,6
21.955,1,3,20,1,4,2,0,0
21.96,3,3,10,6,3,3,2,1
21.965,8,3,11,2,7,6,5,4
21.97,4,6,1,6,1,2,3,0
21.975,1,4,19,10,1,4,5,3
21.98,5,3,56,1,1,1,3,1
21.985,7,0,4,3,4,5,0,2
21.99,7,2,27,6,10,6,2,1
21.995,7,4,0,21,3,1,0,2
22,3,2,4,1,0,3,1,0
22.005,12,12,1,7,0,1,2,5
22.01,3,6,0,4,6,5,3,2
22.015,4,5,18,1,2,2,1,2
22.02,2,0,6,14,6,4,1,0
22.025,4,8,28,4,4,2,0,1
22.03,0,6,25,4,2,3,3,2
22.035,4,3,31,1,1,4,0,1
22.04,1,5,56,0,3,11,2,0
22.045,2,6,6,1,0,1,5,0
22.05,1,1,9,2,3,8,8,2
22.055,3,8,7,4,9,13,8,2
22.06,4,8,14,10,2,3,8,2
22.065,1,5,4,2,5,19,12,1
22.07,5,3,5,1,1,2,6,2
22.075,1,2,8,1,1,2,5,0
22.08,6,7,5,3,4,9,8,3
22.085,2,4,27,9,4,3,5,3
22.09,4,2,26,0,2,5,2,2
22.095,4,2,10,1,2,0,3,2
22.1,2,0,4,6,1,2,1,2
22.105,3,2,1,2,1,3,1,1
22.11,3,5,9,4,3,3,0,1
22.115,2,9,15,8,4,3,1,2
22.12,1,3,10,5,1,0,1,1
22.125,1,0,5,7,1,3,1,1
22.13,0,0,26,4,6,6,5,2
22.135,1,1,18,4,6,8,3,0
22.14,2,1,10,2,1,1,2,1
22.145,6,0,5,3,3,2,3,3
22.15,4,1,17,6,2,3,1,0
22.155,2,5,1,4,1,2,1,1
22.16,6,1,3,0,1,0,2,1
22.165,2,0,5,2,5,8,3,1
22.17,1,2,3,4,1,0,1,2
22.175,5,6,3,5,2,1,3,1
22.18,0,0,4,8,4,2,3,1
22.185,1,2,29,3,2,1,3,1
22.19,1,2,21,3,4,1,1,0
22.195,1,4,5,6,3,10,7,2
22.2,1,0,6,3,0,2,3,3
22.205,3,5,3,4,6,6,4,2
22.21,1,5,3,3,1,3,2,1
22.215,4,1,1,8,3,2,0,4
22.22,0,2,18,0,5,5,5,0
22.225,2,10,10,1,1,1,2,1
22.23,6,10,14,6,3,1,0,2
22.235,4,2,12,2,2,4,2,0
22.24,4,5,10,4,1,0,1,2
22.245,2,2,8,3,3,0,1,0
22.25,2,1,10,1,3,3,2,2
22.255,1,2,0,5,1,1,1,1
22.26,4,1,4,9,2,2,1,2
22.265,5,5,7,4,2,4,1,3
22.27,2,5,7,1,0,2,0,1
22.275,4,3,5,5,3,0,1,1
22.28,4,3,7,3,1,4,0,0
22.285,0,2,4,1,0,1,2,1
22.29,2,1,4,2,1,1,1,0
22.295,6,5,1,1,2,1,1,1
22.3,1,0,1,5,3,1,1,0
22.305,2,1,7,2,5,6,4,0
22.31,5,2,2,3,2,1,0,2
22.315,3,0,1,3,2,1,2,2
22.32,0,1,4,8,3,1,1,3
22.325,2,1,1,1,1,0,1,0
22.33,0,0,21,2,1,1,2,1
22.335,2,2,37,5,3,2,0,2
22.34,0,0,3,20,2,0,2,0
22.345,4,0,9,7,5,1,1,1
22.35,2,1,20,3,3,2,2,2
22.355,1,3,28,4,2,2,1,0
22.36,2,0,2,2,8,7,3,2
22.365,0,0,6,4,4,3,2,0
22.37,8,9,11,3,0,1,1,3
22.375,2,2,21,1,3,0,1,1
22.38,4,1,7,6,0,1,2,1
22.385,1,3,2,7,2,1,2,0
22.39,0,0,9,0,0,3,3,2
22.395,4,1,8,3,2,0,0,1
22.4,2,3,2,6,2,0,1,0
22.405,2,5,20,11,5,3,2,2
22.41,4,5,1,5,0,0,1,1
22.415,2,2,11,7,7,6,3,2
22.42,2,4,0,2,2,4,1,0
22.425,2,0,37,7,0,1,0,0
22.43,0,3,54,9,3,1,1,1
22.435,3,3,43,4,0,2,0,1
22.44,2,4,4,2,3,4,3,0
22.445,5,3,3,7,3,3,1,4
22.45,4,2,17,4,2,2,3,0
22.455,1,2,10,0,4,1,2,1
22.46,0,1,4,0,1,3,3,0
22.465,2,3,8,3,1,1,1,0
22.47,1,2,6,0,0,1,1,2
22.475,3,3,13,9,3,2,0,1
22.48,2,1,7,1,1,1,1,2
22.485,3,4,30,10,4,4,4,3
22.49,1,1,13,1,0,0,0,1
22.495,1,0,10,3,0,3,1,3
22.5,2,4,4,5,1,2,0,0
22.505,1,1,6,2,2,3,1,1
22.51,2,0,0,0,1,2,1,1
22.515,6,4,20,0,2,1,1,4
22.52,6,2,20,0,1,2,4,4
22.525,4,7,20,11,4,2,1,2
22.53,1,1,9,1,2,2,1,0
22.535,0,1,12,1,1,2,1,0
22.54,1,1,12,5,2,2,1,0
22.545,1,2,5,4,3,3,3,3
22.55,0,2,16,5,3,4,0,2
22.555,2,1,15,2,3,4,3,2
22.56,1,1,14,4,7,4,2,2
22.565,2,7,11,10,1,1,1,0
22.57,4,3,11,8,1,1,3,2
22.575,0,1,10,5,3,4,2,0
22.58,2,3,1,7,0,2,1,1
22.585,0,3,16,18,0,1,0,1
22.59,0,1,10,1,2,1,0,1
22.595,3,3,15,8,3,4,1,2
22.6,1,0,4,1,3,0,2,2
22.605,0,0,8,7,3,0,0,0
22.61,1,1,6,6,0,1,3,0
22.615,0,3,6,16,6,0,2,0
22.62,2,1,3,2,4,1,0,1
22.625,7,1,31,5,4,3,1,4
22.63,1,4,15,2,4,2,1,0
22.635,2,5,18,9,1,2,3,2
22.64,1,0,4,5,1,1,2,3
22.645,0,5,19,1,0,2,3,0
22.65,1,2,22,9,3,3,1,2
22.655,2,19,37,0,0,1,1,2
22.66,0,7,25,11,2,1,1,1
22.665,4,5,1,2,4,5,4,3
22.67,4,29,12,0,3,3,0,1
22.675,3,18,5,15,7,3,3,3
22.68,3,33,12,26,1,2,3,2
22.685,3,5,19,5,11,7,2,2
22.69,2,2,4,5,4,3,3,0
22.695,5,29,0,8,4,3,1,1
22.7,6,2,1,16,3,0,0,1
22.705,3,5,6,8,8,6,3,1
22.71,2,15,1,4,2,2,1,2
22.715,3,7,5,3,0,0,1,1
22.72,2,28,8,1,1,0,0,2
22.725,1,16,9,6,2,1,1,1
22.73,4,21,35,1,1,4,3,3
22.735,3,3,12,2,1,4,2,0
22.74,6,11,12,1,2,1,3,2
22.745,6,10,51,2,3,2,1,2
22.75,2,18,39,6,2,1,1,1
22.755,1,9,14,6,4,1,2,3
22.76,1,5,16,0,1,2,1,0
22.765,4,25,4,3,3,2,1,0
22.77,2,16,5,1,5,3,3,4
22.775,1,11,4,4,2,3,2,1
22.78,5,6,6,6,5,2,2,2
22.785,7,4,16,2,1,1,0,2
22.79,0,4,8,7,3,3,1,3
22.795,3,31,18,2,4,2,0,1
22.8,2,24,6,6,1,1,2,0
22.805,0,0,7,6,5,3,1,1
22.81,1,11,16,2,2,3,2,0
22.815,2,5,12,12,1,4,1,0
22.82,4,17,8,22,3,2,2,2
22.825,1,6,16,2,2,0,1,1
22.83,1,2,14,15,5,2,1,1
22.835,3,6,37,19,9,3,4,1
22.84,1,7,12,0,1,2,3,2
22.845,2,4,4,12,6,4,1,1
22.85,2,5,4,21,9,4,4,1
22.855,3,6,13,4,4,0,0,2
22.86,5,1,25,17,0,0,2,1
22.865,2,2,6,3,8,5,4,1
22.87,5,16,24,6,0,0,1,2
22.875,2,29,0,10,0,3,1,1
22.88,2,4,3,10,1,1,2,2
22.885,3,12,5,14,2,3,2,1
22.89,9,29,18,0,3,2,2,4
22.895,1,2,10,2,2,4,2,2
22.9,2,6,0,4,2,1,1,1
22.905,1,3,1,2,2,3,1,0
22.91,2,10,10,8,4,0,1,0
22.915,1,3,14,17,4,1,1,1
22.92,1,4,11,6,5,5,3,0
22.925,1,1,2,15,3,0,2,1
22.93,4,7,14,27,5,3,1,1
22.935,5,10,37,8,9,2,2,0
22.94,0,4,5,8,3,4,2,3
22.945,1,10,29,7,6,4,2,0
22.95,1,4,15,14,9,3,2,1
22.955,0,2,14,9,8,2,1,2
22.96,1,3,9,13,9,2,1,0
22.965,5,7,47,26,5,3,3,5
22.97,2,3,15,3,3,1,2,1
22.975,4,1,2,1,6,4,2,1
22.98,1,17,8,5,1,0,1,1
22.985,1,4,12,15,3,1,1,0
22.99,3,4,14,6,9,4,3,1
22.995,2,4,3,13,7,4,2,1
23,1,2,18,2,1,2,1,1
23.005,1,11,0,6,3,0,1,0
23.01,0,1,6,5,2,2,1,0
23.015,4,16,13,7,11,3,2,2
23.02,1,3,11,3,6,0,1,2
23.025,2,12,9,10,5,2,3,1
23.03,0,5,28,5,3,1,0,1
23.035,3,3,22,3,9,3,1,2
23.04,1,0,16,7,5,2,1,0
23.045,0,3,14,6,3,2,0,2
23.05,1,1,32,26,12,4,3,1
23.055,5,4,44,6,6,0,3,1
23.06,4,7,9,2,2,5,4,3
23.065,0,6,3,1,7,4,1,2
23.07,1,11,4,16,5,1,1,2
23.075,1,2,4,9,1,1,0,0
23.08,7,26,3,5,10,3,4,3
23.085,6,3,27,1,4,4,3,2
23.09,2,13,16,0,1,1,2,1
23.095,0,13,32,1,1,1,2,3
23.1,6,13,4,22,5,4,2,1
23.105,2,18,12,11,2,0,0,3
23.11,2,6,8,3,2,4,4,2
23.115,3,7,12,15,0,1,1,0
23.12,5,2,11,7,0,2,0,0
23.125,3,11,11,6,3,1,3,2
23.13,2,1,18,4,5,3,2,3
23.135,0,5,12,14,2,2,0,1
23.14,1,4,7,2,1,2,0,1
23.145,3,3,12,12,4,2,1,2
23.15,3,1,14,10,3,1,1,1
23.155,0,2,16,11,7,6,2,2
23.16,4,1,16,21,6,1,1,0
23.165,1,1,12,2,1,2,2,1
23.17,0,1,37,1,5,2,0,0
23.175,2,1,8,19,12,4,3,2
23.18,6,2,43,15,5,2,2,2
23.185,2,3,19,20,7,1,0,0
23.19,1,5,0,3,4,2,1,2
23.195,2,3,2,4,4,0,0,0
23.2,0,0,22,7,8,4,2,1
23.205,2,5,13,10,2,1,3,2
23.21,4,4,10,13,6,3,1,2
23.215,3,0,26,12,4,3,1,1
23.22,2,3,3,10,2,1,1,1
23.225,2,29,11,13,4,1,1,0
23.23,3,15,10,19,3,2,2,2
23.235,0,10,46,3,5,2,1,2
23.24,1,9,16,5,5,1,0,0
23.245,5,0,6,5,3,1,2,0
23.25,3,1,8,4,2,2,1,2
23.255,1,0,15,14,5,2,3,3
23.26,0,2,19,32,6,0,1,1
23.265,1,13,24,10,2,3,2,0
23.27,3,5,13,8,11,3,0,4
23.275,0,7,2,10,11,0,1,1
23.28,3,2,14,4,3,2,1,3
23.285,2,1,15,3,3,2,2,0
23.29,7,10,2,13,1,1,0,4
23.295,3,4,12,5,3,2,2,1
23.3,1,4,43,22,7,4,2,0
23.305,1,8,8,7,8,3,2,2
23.31,1,10,18,15,11,5,2,0
23.315,2,7,30,13,9,3,3,0
23.32,1,3,3,1,1,1,1,2
23.325,1,1,7,8,2,2,1,1
23.33,3,15,40,4,1,1,0,1
23.335,1,2,31,3,4,1,0,0
23.34,0,3,6,12,6,2,1,0
23.345,1,5,22,0,1,4,3,3
23.35,6,1,10,3,7,5,3,1
23.355,3,12,44,25,1,4,2,1
23.36,3,8,57,13,0,4,1,1
23.365,3,10,14,1,1,0,0,1
23.37,1,5,27,7,4,3,3,0
23.375,0,5,11,2,4,3,1,2
23.38,2,1,24,2,5,1,1,0
23.385,3,5,14,11,6,3,1,2
23.39,2,4,33,33,9,2,1,1
23.395,3,9,17,16,0,1,0,0
23.4,2,3,19,3,4,3,1,0
23.405,1,5,6,4,5,1,1,0
23.41,1,6,0,11,6,3,3,0
23.415,2,5,1,3,3,1,2,2
23.42,1,0,2,9,2,1,0,2
23.425,1,4,12,2,6,2,1,1
23.43,0,2,12,11,5,0,1,0
23.435,2,3,23,10,5,0,0,1
23.44,6,14,14,14,4,1,1,2
23.445,5,3,7,1,1,0,0,1
23.45,12,21,2,1,2,4,1,1
23.455,4,2,55,8,4,0,0,0
23.46,1,7,62,15,5,3,2,1
23.465,0,10,10,0,1,0,1,1
23.47,4,8,1,6,3,2,0,0
23.475,3,6,2,3,0,1,0,3
23.48,3,0,9,4,0,0,1,1
23.485,2,5,10,0,1,1,1,4
23.49,3,14,21,9,4,2,2,1
23.495,3,8,2,2,2,2,0,1
23.5,7,3,6,3,2,1,1,1
23.505,3,2,4,3,1,1,0,1
23.51,4,0,13,3,3,2,3,3
23.515,1,22,7,4,1,1,0,7
23.52,3,17,24,3,1,1,2,3
23.525,3,2,12,3,4,4,4,14
23.53,1,10,5,4,0,2,1,8
23.535,1,6,13,6,1,2,0,1
23.54,1,5,10,6,5,4,3,4
23.545,4,19,16,3,2,4,0,4
23.55,4,10,17,7,6,3,5,1
23.555,1,6,17,2,1,2,2,0
23.56,1,4,29,5,0,1,1,2
23.565,3,4,37,0,0,2,2,1
23.57,5,18,3,5,1,1,1,1
23.575,1,16,4,4,5,1,2,2
23.58,1,11,13,9,1,1,0,2
23.585,2,7,8,16,2,0,2,4
23.59,3,6,6,10,1,2,1,1
23.595,1,5,8,11,2,2,1,2
23.6,3,6,1,0,1,1,1,1
23.605,2,5,22,21,10,2,1,4
23.61,1,11,19,20,6,1,2,1
23.615,3,10,12,14,9,4,4,2
23.62,1,26,11,28,13,1,1,1
23.625,0,11,4,18,2,3,0,3
23.63,0,6,12,13,5,3,2,0
23.635,0,11,13,15,4,0,0,0
23.64,1,9,6,4,5,2,3,3
23.645,0,5,25,8,7,4,2,1
23.65,3,4,4,0,5,2,0,0
23.655,6,12,7,6,7,3,1,1
23.66,2,12,2,8,5,2,2,1
23.665,2,1,9,7,1,1,1,0
23.67,4,1,14,0,9,4,4,1
23.675,4,3,8,6,8,3,1,1
23.68,4,6,31,8,7,4,6,3
23.685,4,2,6,9,2,2,2,2
23.69,2,2,21,1,4,2,0,1
23.695,2,4,3,8,3,1,2,1
23.7,1,7,3,11,9,3,2,0
23.705,1,13,13,12,1,1,1,1
23.71,1,12,10,5,1,0,2,2
23.715,2,12,3,9,5,1,2,2
23.72,1,3,19,1,5,1,1,1
23.725,0,7,8,0,5,5,2,1
23.73,0,3,9,8,1,1,2,0
23.735,2,4,10,7,0,1,1,1
23.74,3,13,26,18,7,2,0,3
23.745,3,9,19,35,7,1,3,1
23.75,2,5,5,3,4,0,1,1
23.755,4,7,3,10,7,1,0,0
23.76,0,0,13,22,8,1,1,0
23.765,4,1,20,10,7,1,3,1
23.77,1,12,21,0,4,1,0,1
23.775,5,26,27,1,7,5,3,3
23.78,3,1,11,4,8,7,1,0
23.785,3,0,2,2,4,2,0,1
23.79,1,2,1,13,0,2,3,2
23.795,0,2,6,10,5,3,1,1
23.8,3,1,9,2,2,3,0,1
23.805,3,5,50,0,1,0,1,0
23.81,0,4,8,8,1,1,1,2
23.815,2,13,3,7,1,3,0,1
23.82,1,11,3,15,5,0,1,3
23.825,2,12,17,6,0,0,0,1
23.83,1,0,1,7,6,3,3,1
23.835,1,1,15,4,1,1,0,1
23.84,4,1,6,10,2,2,1,0
23.845,1,4,10,2,2,1,1,1
23.85,1,4,13,5,1,1,2,1
23.855,2,3,11,2,1,2,1,1
23.86,3,2,1,4,1,1,1,0
23.865,3,5,10,7,6,3,1,0
23.87,3,4,4,6,2,1,0,0
23.875,1,9,25,19,5,1,3,1
23.88,1,0,24,6,2,1,2,0
23.885,2,11,2,10,3,2,2,3
23.89,2,5,13,4,6,2,1,2
23.895,1,2,18,6,1,1,0,3
23.9,1,2,21,8,4,5,2,3
23.905,4,7,17,7,0,3,2,1
23.91,1,3,11,2,3,1,0,2
23.915,1,1,11,7,3,3,1,0
23.92,1,15,10,2,1,4,1,2
23.925,1,6,1,8,5,3,4,1
23.93,0,5,2,8,1,3,2,2
23.935,3,26,8,7,3,0,0,2
23.94,1,3,7,1,1,1,1,1
23.945,2,2,6,3,2,1,1,2
23.95,2,0,12,0,1,1,0,1
23.955,1,5,3,3,4,2,1,1
23.96,2,9,15,1,3,2,0,0
23.965,1,4,6,4,1,0,1,2
23.97,3,3,3,9,4,2,0,1
23.975,2,1,21,1,3,1,2,2
23.98,2,3,11,3,1,2,1,1
23.985,1,3,22,1,1,1,0,1
23.99,1,6,22,3,0,3,3,1
23.995,1,4,18,14,1,1,1,2
24,1,6,19,0,3,1,0,1
24.005,3,9,18,8,4,0,2,1
24.01,3,10,9,2,1,3,0,1
24.015,0,5,9,2,2,1,1,1
24.02,2,8,10,6,6,1,3,2
24.025,4,6,18,3,3,1,2,2
24.03,1,13,12,14,1,2,0,0
24.035,2,5,3,7,1,0,1,2
24.04,2,7,8,2,2,2,0,1
24.045,2,10,3,3,0,1,1,1
24.05,3,1,3,1,1,1,1,3
24.055,1,1,21,5,5,4,1,0
24.06,2,7,12,5,2,2,1,2
24.065,2,4,6,7,7,4,4,1
24.07,5,10,9,5,3,2,0,4
24.075,3,4,0,1,3,1,2,3
24.08,0,1,3,9,4,1,2,2
24.085,1,1,11,14,4,2,2,0
24.09,1,5,1,11,5,6,4,2
24.095,3,5,13,9,0,4,2,1
24.1,2,1,2,0,4,0,0,1
24.105,1,10,23,5,1,0,1,2
24.11,1,8,5,4,4,3,0,1
24.115,1,5,3,4,2,1,2,3
24.12,3,1,10,6,2,3,2,2
24.125,2,4,4,8,3,1,0,1
24.13,1,4,12,14,3,0,0,1
24.135,0,3,2,1,3,1,2,0
24.14,4,12,2,3,0,2,3,3
24.145,1,7,8,2,3,2,3,0
24.15,0,5,1,2,0,3,2,0
24.155,1,4,9,1,2,2,0,0
24.16,2,3,4,2,1,1,2,2
24.165,0,1,0,1,1,1,1,0
24.17,0,2,1,3,1,0,2,0
24.175,1,4,2,1,5,4,2,2
24.18,0,1,6,3,4,2,0,1
24.185,1,4,10,2,2,1,1,1
24.19,4,4,8,4,3,0,3,3
24.195,1,1,4,0,0,1,0,1
24.2,2,2,1,2,2,3,2,1
24.205,4,0,3,6,4,3,0,3
24.21,1,0,1,1,1,1,2,1
24.215,1,3,14,3,1,1,2,0
24.22,3,6,32,10,5,2,1,3
24.225,3,4,0,3,1,0,0,1
24.23,4,5,7,9,6,4,4,1
24.235,3,0,7,6,3,2,0,0
24.24,9,9,12,5,1,0,1,1
24.245,5,3,2,3,1,4,1,1
24.25,4,1,1,2,6,4,1,0
24.255,2,5,1,1,2,1,3,2
24.26,1,6,15,4,1,3,1,3
24.265,13,7,2,4,1,3,4,4
24.27,1,4,10,0,2,0,0,1
24.275,6,4,3,7,2,1,0,0
24.28,1,1,9,6,5,3,2,1
24.285,1,4,1,1,1,1,1,0
24.29,3,3,7,1,3,1,2,0
24.295,8,7,2,6,5,5,3,4
24.3,1,1,2,2,2,2,2,0
24.305,1,3,3,1,1,1,0,1
24.31,5,4,0,4,2,1,3,3
24.315,3,1,2,1,0,0,2,0
24.32,9,7,7,9,6,3,4,4
24.325,2,3,2,0,5,2,1,1
24.33,5,1,3,1,4,1,0,2
24.335,0,0,3,2,2,1,0,2
24.34,1,3,1,4,5,4,2,1
24.345,7,3,2,6,2,0,0,1
24.35,3,4,8,6,4,5,3,3
24.355,1,3,10,7,3,4,4,1
24.36,11,10,3,2,3,5,3,5
24.365,12,5,7,6,4,2,1,3
24.37,2,6,0,6,0,2,3,1
24.375,1,4,12,8,1,4,1,1
24.38,5,6,8,2,1,2,2,3
24.385,4,7,0,2,1,2,2,1
24.39,9,11,11,11,4,5,4,4
24.395,11,4,5,3,1,2,0,4
24.4,1,1,1,2,2,2,1,1
24.405,0,4,4,1,3,2,2,2
24.41,0,0,0,1,1,1,0,1
24.415,3,4,1,7,0,2,1,0
24.42,4,1,3,5,2,3,1,1
24.425,2,5,8,4,3,0,0,1
24.43,10,27,27,12,3,5,5,5
24.435,3,1,3,0,0,0,2,3
24.44,5,1,0,5,1,2,1,1
24.445,8,7,8,1,1,2,2,3
24.45,4,12,11,3,0,0,1,1
24.455,13,15,13,7,6,5,2,3
24.46,2,1,2,3,4,4,2,2
24.465,4,7,0,2,2,3,1,4
24.47,3,5,1,1,1,1,0,2
24.475,3,11,4,6,3,2,1,1
24.48,3,3,1,3,1,2,2,2
24.485,2,2,2,2,3,3,0,1
24.49,8,6,2,6,4,1,1,5
24.495,4,4,5,2,4,1,1,4
24.5,2,6,4,1,0,1,1,1
24.505,1,1,10,3,1,1,2,1
24.51,0,4,2,0,2,2,0,4
24.515,0,2,7,5,4,5,3,0
24.52,7,9,4,1,1,0,1,2
24.525,2,4,6,0,1,0,1,0
24.53,1,1,0,2,1,3,0,1
24.535,4,1,3,1,3,3,1,1
24.54,4,5,16,5,4,1,2,1
24.545,3,10,24,0,3,3,4,2
24.55,2,5,1,5,3,4,3,2
24.555,1,0,6,2,5,1,2,1
24.56,7,0,4,3,2,0,2,2
24.565,3,12,18,1,1,0,0,1
24.57,6,7,2,0,1,2,1,1
24.575,2,0,3,3,1,1,1,0
24.58,4,1,3,4,2,2,3,2
24.585,5,2,1,1,2,1,3,3
24.59,2,2,1,3,1,3,2,2
24.595,0,2,3,1,4,4,1,1
24.6,5,1,7,1,0,1,1,2
24.605,3,8,12,1,1,1,0,0
24.61,1,1,7,2,1,1,0,0
24.615,3,3,3,1,2,1,3,5
24.62,2,3,1,1,1,1,0,0
24.625,4,16,37,0,2,2,1,2
24.63,3,6,28,2,1,2,1,1
24.635,4,3,8,6,6,5,3,1
24.64,4,1,2,2,2,2,2,3
24.645,3,5,5,0,2,0,0,0
24.65,0,1,4,6,5,4,1,1
24.655,5,2,10,2,0,1,1,1
24.66,5,5,0,4,3,5,4,5
24.665,2,5,12,5,4,3,0,0
24.67,3,0,13,2,3,2,3,3
24.675,8,2,1,2,3,4,2,3
24.68,4,4,2,2,2,0,1,1
24.685,7,11,5,2,5,4,3,2
24.69,0,6,20,2,4,1,0,2
24.695,5,7,27,0,0,2,0,1
24.7,3,4,7,1,0,2,2,1
24.705,0,5,0,1,1,1,1,2
24.71,3,15,46,2,2,5,2,0
24.715,1,6,24,7,4,2,2,3
24.72,1,5,17,1,1,3,1,0
24.725,1,1,4,5,2,1,0,1
24.73,1,10,4,3,1,1,2,1
24.735,3,14,41,4,1,1,2,1
24.74,10,11,13,6,1,1,2,4
24.745,2,12,28,3,2,0,4,2
24.75,7,5,8,6,3,2,0,2
24.755,2,5,0,3,1,2,0,1
24.76,2,0,3,3,4,2,1,1
24.765,7,1,8,1,2,1,2,2
24.77,4,0,3,4,3,1,1,2
24.775,4,4,13,2,2,5,2,2
24.78,1,10,19,3,2,2,0,0
24.785,3,2,0,1,3,0,1,0
24.79,3,6,33,6,3,2,3,0
24.795,7,5,5,5,3,3,0,3
24.8,0,2,0,1,1,1,2,1
24.805,9,1,3,7,3,2,3,6
24.81,5,7,14,1,1,3,1,0
24.815,1,2,14,3,2,2,3,0
24.82,1,2,10,1,5,3,3,1
24.825,5,10,19,3,2,1,1,3
24.83,4,0,0,5,1,1,2,1
24.835,6,5,6,4,2,3,1,2
24.84,0,3,6,2,2,1,1,1
24.845,6,2,1,3,0,2,2,1
24.85,5,2,4,0,2,1,1,1
24.855,1,2,0,3,3,4,2,1
24.86,3,4,3,2,1,4,1,3
24.865,2,1,2,2,2,1,1,0
24.87,3,0,4,0,0,2,1,2
24.875,4,8,14,0,0,2,2,0
24.88,1,0,2,0,0,1,1,0
24.885,5,1,5,2,0,3,2,3
24.89,0,2,0,4,4,4,2,1
24.895,1,4,4,1,3,4,2,2
24.9,8,8,8,0,2,4,2,2
24.905,6,3,2,5,3,5,3,4
24.91,0,5,8,2,0,2,1,1
24.915,5,4,10,7,1,2,1,3
24.92,3,2,3,6,1,1,0,0
24.925,2,3,3,1,7,4,2,2
24.93,1,0,5,12,2,1,0,2
24.935,3,2,9,10,1,1,0,1
24.94,3,14,18,0,2,3,0,0
24.945,1,11,19,0,3,2,0,2
24.95,3,3,11,8,7,3,3,1
24.955,5,9,39,6,4,3,2,1
24.96,6,0,21,7,1,2,3,3
24.965,1,4,8,4,3,2,2,3
24.97,3,2,10,5,4,2,3,1
24.975,0,0,4,1,0,0,2,1
24.98,1,0,10,2,2,3,2,1
24.985,4,5,2,6,0,2,1,1
24.99,4,3,5,10,2,0,1,0
24.995,1,0,3,1,1,0,1,1
25,7,1,3,3,0,2,0,2
25.005,4,2,7,3,1,1,2,2
25.01,3,2,10,0,2,0,1,3
25.015,0,1,1,2,1,0,0,1
25.02,1,3,6,10,5,4,3,2
25.025,0,1,4,3,3,1,1,1
25.03,0,1,4,5,1,0,2,2
25.035,9,2,4,4,3,2,1,0
25.04,5,0,1,1,0,0,0,0
25.045,3,5,8,4,3,3,2,2
25.05,2,3,4,2,1,1,3,0
25.055,1,2,8,0,2,1,0,1
25.06,3,3,3,2,0,0,1,1
25.065,0,5,1,2,0,0,1,2
25.07,0,1,14,10,0,2,2,1
25.075,8,0,1,5,4,3,5,3
25.08,1,2,11,6,1,0,1,2
25.085,0,3,9,3,1,1,1,0
25.09,5,3,9,4,0,1,2,3
25.095,1,4,13,3,1,2,0,0
25.1,0,1,6,1,3,4,3,1
25.105,5,2,6,4,1,0,1,2
25.11,4,4,3,2,4,4,2,2
25.115,1,2,4,1,2,1,0,0
25.12,2,3,3,1,3,1,1,1
25.125,5,2,8,11,6,5,3,0
25.13,2,2,2,3,6,5,1,3
25.135,5,3,2,1,1,3,0,1
25.14,2,1,4,0,3,1,1,1
25.145,1,1,0,3,3,2,1,0
25.15,2,7,1,2,1,0,1,1
25.155,3,7,3,7,5,4,3,3
25.16,4,7,8,1,1,2,2,0
25.165,6,6,9,0,0,2,1,3
25.17,5,6,26,1,1,1,1,2
25.175,2,6,29,5,3,5,2,4
25.18,2,2,14,1,4,1,2,1
25.185,2,2,7,1,2,1,1,0
25.19,3,9,26,0,1,3,1,1
25.195,3,11,3,1,1,2,1,1
25.2,4,6,6,2,2,1,3,4
25.205,2,5,14,1,2,2,3,2
25.21,2,1,2,3,4,1,0,3
25.215,0,8,23,7,10,1,2,0
25.22,0,1,1,2,3,0,0,0
25.225,1,2,2,2,0,0,0,0
25.23,1,0,2,2,2,4,3,2
25.235,4,0,9,10,3,1,1,0
25.24,2,4,0,6,0,1,0,2
25.245,3,1,6,2,2,1,1,0
25.25,0,5,12,2,4,2,1,2
25.255,0,2,7,0,1,0,2,0
25.26,3,7,11,4,2,1,0,1
25.265,1,3,2,1,3,1,2,0
25.27,0,1,9,3,0,1,1,0
25.275,1,2,11,2,1,1,0,0
25.28,6,3,0,13,4,3,1,1
25.285,4,4,4,10,2,1,0,1
25.29,1,1,7,1,2,1,0,2
25.295,2,6,10,1,2,1,0,2
25.3,7,4,6,1,0,1,0,2
25.305,1,3,4,3,2,1,1,1
25.31,4,4,0,3,1,0,2,2
25.315,3,1,1,1,3,3,2,1
25.32,2,3,5,1,2,1,1,0
25.325,1,3,2,4,4,2,2,0
25.33,6,1,1,2,1,2,1,0
25.335,6,1,0,2,4,2,2,2
25.34,5,6,10,0,2,2,4,1
25.345,4,2,1,3,0,0,1,1
25.35,1,1,2,1,0,1,2,2
25.355,0,3,4,0,1,0,1,1
25.36,0,0,5,1,2,3,2,2
25.365,4,2,2,3,1,1,1,1
25.37,2,0,3,1,4,4,2,1
25.375,5,2,2,2,1,1,1,0
25.38,7,4,1,2,2,2,0,1
25.385,2,0,3,3,2,1,2,0
25.39,1,2,7,1,3,1,2,3
25.395,0,3,8,3,0,2,1,0
25.4,0,1,5,1,1,4,1,2
25.405,3,3,0,3,1,2,2,2
25.41,3,1,4,3,0,1,0,0
25.415,3,3,2,6,5,2,2,1
25.42,5,2,1,2,0,0,1,1
25.425,4,2,3,0,0,1,1,1
25.43,8,2,0,1,1,2,2,1
25.435,11,7,0,1,2,0,1,3
25.44,2,2,5,2,1,2,0,0
25.445,2,2,1,0,2,1,0,0
25.45,5,6,5,6,2,3,2,2
25.455,1,2,2,2,1,2,0,1
25.46,1,3,6,3,5,3,3,3
25.465,3,4,3,2,2,0,0,2
25.47,2,2,2,6,1,3,2,1
25.475,4,1,3,2,2,1,2,4
25.48,8,6,4,2,2,3,1,3
25.485,2,3,4,0,1,3,0,0
25.49,1,4,4,4,1,2,1,0
25.495,1,1,6,2,1,1,1,0
25.5,2,2,1,4,0,1,1,1
25.505,4,6,7,4,4,4,2,3
25.51,2,1,3,4,5,2,2,3
25.515,2,1,9,2,0,0,1,1
25.52,2,7,7,2,3,0,2,3
25.525,3,1,9,6,4,2,2,0
25.53,4,5,8,4,5,2,2,0
25.535,3,4,7,4,1,1,0,1
25.54,3,6,15,2,2,0,0,1
25.545,1,9,18,2,3,2,3,2
25.55,1,1,4,3,2,0,0,0
25.555,1,1,4,2,2,1,2,1
25.56,1,8,17,6,3,4,0,2
25.565,8,8,4,9,8,7,2,2
25.57,5,4,1,2,5,2,3,2
25.575,1,1,4,2,2,2,1,2
25.58,1,0,4,3,4,3,1,1
25.585,8,1,12,4,1,2,0,1
25.59,2,11,30,2,0,1,1,0
25.595,4,6,6,2,2,2,1,1
25.6,1,3,5,1,4,3,1,2
25.605,2,2,6,8,5,4,0,2
25.61,2,1,2,3,4,3,2,2
25.615,1,7,12,1,2,2,0,3
25.62,1,4,10,1,2,2,1,1
25.625,4,6,12,2,1,1,2,0
25.63,4,6,25,2,2,1,2,0
25.635,4,6,20,3,1,3,1,1
25.64,4,5,13,5,4,2,2,2
25.645,3,1,4,1,3,2,2,2
25.65,3,8,28,4,1,2,3,0
25.655,1,5,22,4,4,1,1,0
25.66,2,0,18,6,2,1,2,0
25.665,3,6,30,2,0,3,1,0
25.67,3,6,6,8,2,2,1,1
25.675,2,3,3,1,2,5,3,2
25.68,2,1,4,1,2,1,0,0
25.685,1,0,2,2,2,3,3,1
25.69,3,1,7,0,2,1,1,0
25.695,1,4,3,0,0,0,1,1
25.7,0,8,22,2,1,1,0,1
25.705,2,2,3,6,3,2,1,1
25.71,2,4,17,1,2,3,2,0
25.715,2,4,10,1,1,1,2,0
25.72,4,5,1,4,5,4,0,0
25.725,0,0,5,2,2,0,3,1
25.73,1,8,9,2,1,1,1,2
25.735,3,9,24,9,3,3,2,1
25.74,2,13,23,4,0,0,2,2
25.745,7,4,10,3,3,3,1,3
25.75,1,2,15,2,3,2,3,2
25.755,1,2,5,3,1,3,1,1
25.76,2,10,5,8,3,5,2,2
25.765,0,8,12,1,2,2,1,2
25.77,0,2,10,1,1,1,0,1
25.775,6,11,33,4,3,5,3,3
25.78,1,8,3,1,1,0,1,1
25.785,3,1,21,2,0,0,0,3
25.79,8,2,7,2,2,0,2,3
25.795,0,1,3,1,2,3,1,1
25.8,1,2,5,2,3,2,1,2
25.805,3,8,16,5,3,3,2,3
25.81,1,2,26,3,4,3,1,1
25.815,2,3,25,1,1,1,1,0
25.82,2,4,3,2,1,1,2,3
25.825,1,7,16,0,4,5,2,0
25.83,8,1,5,2,0,2,2,4
25.835,0,1,3,1,2,3,3,2
25.84,1,1,2,0,0,0,1,0
25.845,4,3,9,1,3,0,1,0
25.85,8,5,1,1,2,1,2,2
25.855,4,1,10,0,1,2,2,4
25.86,5,4,11,1,1,1,3,2
25.865,2,1,2,1,2,0,2,1
25.87,3,1,11,4,4,3,1,1
25.875,1,3,13,0,0,0,2,0
25.88,1,0,13,5,0,0,1,1
25.885,2,5,2,3,1,0,0,2
25.89,5,4,13,3,2,1,1,1
25.895,8,7,15,1,2,4,5,4
25.9,0,2,2,3,2,2,1,3
25.905,4,1,8,2,2,1,1,1
25.91,1,8,8,0,2,0,2,1
25.915,0,4,6,6,6,3,1,2
25.92,1,5,7,2,3,3,2,3
25.925,10,4,2,1,1,3,0,1
25.93,6,5,7,4,4,3,1,4
25.935,5,0,28,0,2,1,2,2
25.94,1,9,34,2,2,3,2,0
25.945,1,6,14,3,3,1,1,3
25.95,4,2,3,2,3,4,1,0
25.955,0,6,6,3,1,2,0,1
25.96,1,5,10,1,0,0,0,3
25.965,0,1,1,1,1,2,1,2
25.97,0,3,8,3,1,0,1,0
25.975,1,0,4,6,2,1,2,1
25.98,8,4,0,3,2,3,4,3
25.985,4,1,3,2,2,1,1,0
25.99,1,3,4,6,3,3,1,2
25.995,4,2,1,3,1,3,1,0
26,4,4,15,1,3,2,1,1
26.005,5,9,17,2,3,2,0,1
26.01,1,6,14,2,4,2,1,1
26.015,1,12,7,2,3,1,0,1
26.02,4,42,15,3,1,3,2,2
26.025,5,2,18,4,6,4,3,4
26.03,7,2,9,3,0,1,1,1
26.035,2,25,7,0,3,4,2,1
26.04,21,74,25,4,3,7,4,7
26.045,7,3,5,1,1,2,2,1
26.05,8,8,13,1,3,0,2,2
26.055,0,9,9,4,0,0,1,0
26.06,5,40,35,1,0,1,2,2
26.065,5,7,2,1,1,1,0,1
26.07,1,3,7,0,2,1,0,2
26.075,4,19,13,1,2,2,3,2
26.08,2,13,5,5,3,1,2,0
26.085,9,3,0,1,1,2,3,3
26.09,1,1,10,2,5,4,2,0
26.095,5,7,31,3,2,2,1,0
26.1,0,18,17,7,2,2,0,1
26.105,5,0,14,4,4,1,0,0
26.11,8,4,1,1,2,2,1,1
26.115,8,15,4,3,1,3,1,3
26.12,2,11,6,8,1,0,1,3
26.125,0,2,5,2,3,0,2,1
26.13,6,5,8,2,2,4,4,4
26.135,3,2,5,2,1,2,2,1
26.14,5,7,10,1,0,1,0,4
26.145,1,1,6,3,1,3,3,2
26.15,2,5,0,5,4,3,2,1
26.155,6,1,1,2,1,2,1,1
26.16,5,6,7,2,0,0,1,1
26.165,8,4,0,2,0,2,0,2
26.17,2,1,5,3,2,3,5,1
26.175,1,5,9,3,6,5,4,1
26.18,3,2,8,1,1,0,1,2
26.185,3,7,0,1,0,2,0,1
26.19,6,2,5,1,6,5,5,3
26.195,1,5,4,2,1,4,2,0
26.2,2,6,10,3,2,2,1,1
26.205,6,5,2,0,2,5,3,2
26.21,1,1,4,1,1,3,2,0
26.215,4,9,13,5,4,3,3,3
26.22,5,2,3,1,0,0,4,2
26.225,3,5,14,0,2,4,4,1
26.23,1,14,36,1,5,5,6,4
26.235,4,7,7,0,1,1,0,2
26.24,7,10,7,2,3,1,0,0
26.245,8,8,5,2,1,2,2,3
26.25,2,4,14,5,0,1,1,0
26.255,3,1,3,2,1,4,2,1
26.26,6,4,6,4,2,3,3,1
26.265,1,5,1,6,2,2,2,1
26.27,3,2,6,7,3,0,0,1
26.275,10,1,1,5,0,0,1,3
26.28,7,7,8,5,0,0,1,2
26.285,6,7,0,3,2,1,2,3
26.29,1,2,2,3,3,1,0,0
26.295,5,0,5,0,2,2,3,2
26.3,1,1,5,5,3,3,2,2
26.305,1,2,5,1,0,1,2,2
26.31,1,3,3,2,2,3,1,1
26.315,1,1,5,4,1,2,2,3
26.32,15,13,7,9,4,4,3,4
26.325,2,0,2,4,1,1,2,1
26.33,2,3,2,5,2,2,4,5
26.335,4,5,7,1,1,1,0,1
26.34,2,1,1,1,2,2,1,1
26.345,1,2,6,10,3,2,1,2
26.35,11,14,18,2,2,2,1,3
26.355,4,6,9,3,1,4,3,2
26.36,2,1,7,1,2,3,0,1
26.365,1,1,1,1,2,2,2,1
26.37,5,2,2,4,2,1,1,0
26.375,7,2,1,0,0,1,1,5
26.38,4,1,4,1,2,1,1,3
26.385,8,7,11,6,4,5,2,4
26.39,8,2,14,4,2,2,0,3
26.395,3,1,5,2,2,0,1,1
26.4,3,3,6,2,3,1,3,2
26.405,5,4,8,1,2,1,1,1
26.41,0,2,14,3,2,3,1,0
26.415,1,8,6,1,3,1,1,0
26.42,1,1,1,8,1,2,1,2
26.425,0,1,1,4,5,4,1,1
26.43,7,5,4,6,1,1,3,1
26.435,1,1,1,2,3,5,2,3
26.44,2,1,4,1,0,1,1,1
26.445,0,0,0,5,2,1,1,0
