0.01,0,2,2,5,5,2,0,1
0.015,2,0,3,0,1,0,0,2
0.02,2,1,1,1,1,2,2,1
0.025,0,2,1,4,1,2,1,1
0.03,0,1,2,1,2,2,0,2
0.035,3,0,2,1,2,1,3,1
0.04,3,4,1,1,0,1,5,1
0.045,1,1,3,2,2,2,2,0
0.05,1,2,1,1,1,6,4,1
0.055,1,0,4,1,4,11,2,2
0.06,2,3,0,1,0,5,4,2
0.065,0,1,2,2,1,2,2,1
0.07,3,1,5,1,0,2,2,0
0.075,1,2,5,1,5,1,2,2
0.08,2,1,2,1,1,2,1,2
0.085,1,1,2,1,1,2,3,0
0.09,0,1,3,2,4,3,0,2
0.095,1,2,2,3,3,2,2,2
0.1,1,1,3,3,0,0,4,1
0.105,1,1,0,0,2,2,4,0
0.11,2,0,3,1,1,0,1,1
0.115,2,1,5,3,4,6,2,2
0.12,1,0,0,4,2,2,1,1
0.125,3,5,2,4,2,4,1,0
0.13,0,1,1,0,1,2,0,0
0.135,1,1,4,1,3,5,1,1
0.14,0,3,4,4,4,1,0,2
0.145,2,1,4,2,2,0,1,2
0.15,0,2,3,4,0,1,0,3
0.155,1,3,1,4,0,1,0,3
0.16,0,2,1,1,0,2,1,1
0.165,1,1,3,1,3,3,3,1
0.17,2,0,3,2,0,4,0,1
0.175,3,2,1,3,1,3,2,1
0.18,2,3,0,0,1,4,1,3
0.185,1,1,4,1,2,4,1,2
0.19,2,0,1,0,4,5,3,0
0.195,1,1,1,1,5,0,3,1
0.2,1,1,0,1,2,1,1,1
0.205,2,1,1,0,3,2,4,1
0.21,2,2,2,1,1,1,0,2
0.215,1,0,0,1,2,1,4,1
0.22,4,2,1,0,3,1,2,1
0.225,0,1,0,0,1,4,6,0
0.23,1,1,0,4,2,7,2,2
0.235,1,1,2,1,2,4,7,1
0.24,1,0,1,3,2,3,7,3
0.245,2,2,3,2,0,2,1,1
0.25,1,2,1,2,0,6,2,1
0.255,4,0,2,0,2,2,1,0
0.26,1,2,1,2,0,0,3,1
0.265,0,1,1,1,2,2,3,2
0.27,1,3,1,1,0,3,2,2
0.275,1,3,1,0,2,1,0,1
0.28,2,1,2,0,1,2,1,1
0.285,1,0,1,1,2,1,0,1
0.29,1,2,1,4,0,3,0,1
0.295,0,1,1,0,0,3,0,1
0.3,1,2,0,2,0,0,1,4
0.305,1,2,4,2,3,0,4,4
0.31,4,1,2,3,1,1,4,2
0.315,2,1,2,4,3,3,3,2
0.32,0,1,1,2,1,1,0,0
0.325,0,0,3,0,3,1,1,2
0.33,1,1,4,1,3,6,1,3
0.335,1,1,2,1,4,1,3,0
0.34,2,1,2,3,4,0,4,1
0.345,1,2,3,3,5,1,3,1
0.35,2,1,2,4,2,2,1,1
0.355,4,1,1,3,1,1,2,2
0.36,1,1,2,2,2,2,6,0
0.365,1,1,1,1,1,0,0,1
0.37,1,2,2,1,2,1,4,0
0.375,1,3,3,1,1,2,1,1
0.38,0,1,0,1,2,4,5,1
0.385,1,1,4,2,1,8,4,3
0.39,2,0,1,1,2,15,6,2
0.395,0,1,2,4,4,5,3,1
0.4,2,2,0,2,0,3,2,2
0.405,1,0,2,1,3,2,4,1
0.41,1,0,3,3,4,4,4,2
0.415,1,1,2,1,1,3,0,2
0.42,0,1,3,0,3,4,2,0
0.425,1,1,1,1,0,1,4,1
0.43,1,1,0,1,1,6,6,2
0.435,0,0,1,1,2,1,4,2
0.44,1,2,4,1,1,3,1,0
0.445,1,3,2,0,0,1,2,0
0.45,1,1,1,1,1,1,3,1
0.455,1,1,3,0,1,1,3,1
0.46,1,1,1,4,1,4,4,2
0.465,2,0,3,1,2,1,2,1
0.47,1,1,1,0,1,1,2,2
0.475,3,2,2,1,2,0,2,3
0.48,4,0,0,1,1,0,0,1
0.485,1,0,1,1,1,1,2,2
0.49,0,2,3,1,3,5,0,2
0.495,2,0,3,1,0,3,3,2
0.5,1,1,1,0,3,1,0,2
0.505,3,0,0,3,1,3,2,0
0.51,2,2,0,0,3,1,1,1
0.515,3,3,1,2,1,2,0,2
0.52,3,2,3,0,0,6,2,2
0.525,2,1,2,1,2,1,3,1
0.53,1,1,0,4,0,2,2,1
0.535,1,4,0,0,1,1,1,1
0.54,0,2,1,1,4,0,1,1
0.545,1,2,3,2,2,3,1,2
0.55,1,0,3,2,2,2,1,0
0.555,2,1,1,1,0,1,1,0
0.56,0,0,0,1,0,4,3,0
0.565,2,1,1,2,3,0,2,2
0.57,1,2,1,2,4,7,2,1
0.575,1,0,2,2,3,2,3,2
0.58,3,0,1,2,4,3,4,0
0.585,1,1,1,1,1,6,1,2
0.59,1,1,2,2,0,1,2,1
0.595,1,2,0,0,1,3,2,1
0.6,1,3,3,3,1,1,0,1
0.605,2,1,0,1,0,2,2,1
0.61,1,2,1,0,1,2,3,1
0.615,2,1,1,2,1,1,1,3
0.62,1,0,1,2,3,9,4,0
0.625,1,0,0,1,2,12,2,2
0.63,2,1,0,0,2,9,4,2
0.635,2,0,2,0,1,4,0,1
0.64,0,2,0,2,2,2,0,1
0.645,1,1,1,1,3,5,1,1
0.65,2,2,0,3,1,1,1,3
0.655,1,0,0,0,3,1,3,1
0.66,1,1,2,1,1,1,3,2
0.665,3,2,1,5,2,5,1,0
0.67,1,2,0,1,2,4,1,1
0.675,2,3,2,3,3,3,1,1
0.68,0,1,0,1,1,3,0,0
0.685,0,2,1,0,4,1,3,3
0.69,3,0,4,0,1,4,1,1
0.695,1,4,1,3,1,1,4,2
0.7,1,1,4,1,0,0,2,2
0.705,0,1,0,4,0,2,1,1
0.71,2,0,1,1,3,3,1,1
0.715,1,1,0,1,3,1,1,1
0.72,3,4,2,0,3,3,4,0
0.725,1,1,2,1,2,2,1,2
0.73,0,0,1,1,0,3,1,1
0.735,1,3,1,2,3,1,3,1
0.74,1,1,0,0,3,0,0,1
0.745,1,2,1,1,2,4,1,0
0.75,0,1,1,3,1,2,3,0
0.755,3,0,1,1,1,2,0,1
0.76,4,0,2,0,3,6,1,1
0.765,0,0,1,1,3,5,3,0
0.77,2,1,3,3,1,2,3,1
0.775,1,2,1,2,0,0,2,1
0.78,1,1,3,0,4,4,4,1
0.785,2,3,1,3,1,3,3,0
0.79,1,1,1,1,2,4,3,1
0.795,2,0,2,2,3,6,1,0
0.8,1,1,2,4,2,3,3,1
0.805,0,1,2,2,1,1,0,1
0.81,3,1,1,0,0,2,2,2
0.815,1,1,0,3,2,2,2,0
0.82,1,1,3,3,0,3,3,0
0.825,1,2,1,3,1,3,0,3
0.83,3,1,1,2,2,1,1,2
0.835,0,1,1,1,0,1,4,3
0.84,0,2,2,1,2,0,1,0
0.845,0,0,2,0,0,3,2,2
0.85,4,3,0,0,0,7,4,0
0.855,1,4,4,1,2,4,3,1
0.86,1,0,1,3,0,1,1,2
0.865,0,0,0,3,5,4,2,0
0.87,1,3,3,1,5,3,1,2
0.875,1,1,3,1,3,3,1,1
0.88,1,0,1,0,3,2,2,0
0.885,2,2,2,1,1,3,2,2
0.89,2,1,1,2,3,4,0,1
0.895,1,1,0,2,3,1,3,2
0.9,0,1,1,2,2,2,2,0
0.905,0,0,2,0,5,3,2,2
0.91,1,2,3,3,1,2,1,1
0.915,1,1,0,2,2,2,5,2
0.92,2,0,2,3,0,0,0,2
0.925,3,2,4,0,1,1,1,2
0.93,0,2,1,2,2,3,0,2
0.935,4,0,0,0,0,2,1,1
0.94,0,1,1,2,1,1,3,1
0.945,1,2,4,5,2,1,0,1
0.95,2,0,2,0,1,5,0,0
0.955,1,3,1,3,2,8,4,1
0.96,3,1,1,0,2,9,1,1
0.965,2,1,1,6,4,3,1,1
0.97,2,0,0,2,3,5,2,4
0.975,2,1,1,0,1,3,8,3
0.98,2,1,0,0,1,5,1,0
0.985,1,1,2,2,2,4,4,0
0.99,1,3,2,3,2,1,2,2
0.995,1,1,0,1,0,2,0,1
1,0,3,2,3,1,3,3,2
1.005,2,2,1,4,0,1,2,3
1.01,2,2,0,2,1,0,0,1
1.015,1,0,1,1,0,2,0,2
1.02,2,1,0,4,3,2,1,1
1.025,0,1,3,1,0,0,3,2
1.03,2,2,0,2,2,0,2,0
1.035,0,1,0,0,1,0,2,1
1.04,2,2,1,0,2,5,2,2
1.045,1,0,1,3,2,2,5,3
1.05,1,1,1,1,1,1,4,1
1.055,0,3,3,1,0,1,1,1
1.06,0,2,0,2,0,4,0,1
1.065,2,2,1,0,3,7,2,2
1.07,2,2,2,3,4,8,3,1
1.075,3,0,2,1,4,2,2,1
1.08,1,2,0,5,3,4,10,0
1.085,1,3,1,0,0,5,6,1
1.09,0,1,2,0,3,6,2,1
1.095,0,1,5,0,2,3,2,2
1.1,1,2,2,3,2,2,3,3
1.105,4,2,1,3,2,1,1,3
1.11,1,1,2,3,4,1,2,1
1.115,1,2,3,1,2,1,2,2
1.12,1,1,2,2,1,2,4,1
1.125,1,0,2,0,0,0,3,0
1.13,1,2,0,1,0,2,0,0
1.135,1,1,2,1,2,2,4,2
1.14,1,1,2,1,0,0,1,1
1.145,1,0,1,2,0,1,1,3
1.15,2,1,1,4,0,3,1,0
1.155,1,2,1,2,1,1,0,0
1.16,2,1,3,0,0,2,2,1
1.165,1,1,3,0,1,5,3,0
1.17,1,1,1,1,1,3,3,3
1.175,1,1,1,2,2,2,1,1
1.18,0,1,1,4,3,4,5,0
1.185,1,1,3,1,6,0,1,0
1.19,0,1,2,2,2,2,3,0
1.195,1,2,1,1,2,1,3,2
1.2,0,0,1,3,2,1,1,2
1.205,2,2,1,2,3,5,2,1
1.21,1,2,1,1,0,2,2,0
1.215,2,2,1,0,0,4,1,0
1.22,1,1,2,3,4,1,2,1
1.225,2,3,0,5,1,3,1,2
1.23,0,2,0,4,1,3,2,1
1.235,1,2,1,2,1,3,0,2
1.24,0,1,3,0,1,0,0,0
1.245,0,3,3,0,2,0,3,0
1.25,2,3,1,2,1,0,1,2
1.255,3,0,1,3,1,1,3,1
1.26,1,1,1,4,0,3,2,2
1.265,2,0,0,2,3,2,1,0
1.27,3,0,1,2,2,0,0,1
1.275,1,1,2,2,2,2,2,2
1.28,3,0,0,2,2,1,0,2
1.285,0,0,1,2,2,0,0,3
1.29,2,2,1,2,1,2,1,1
1.295,1,0,1,2,2,3,4,0
1.3,1,1,2,2,1,1,2,1
1.305,0,1,2,3,2,4,1,0
1.31,1,1,2,4,3,4,1,4
1.315,1,3,1,2,1,12,3,0
1.32,3,0,1,0,1,3,1,1
1.325,2,0,1,0,1,2,0,1
1.33,1,0,0,1,3,8,3,0
1.335,3,1,4,4,0,2,5,0
1.34,2,3,1,3,0,0,0,2
1.345,0,2,2,4,3,1,2,1
1.35,2,3,1,3,0,1,2,0
1.355,2,0,0,3,2,8,4,2
1.36,1,1,3,0,1,1,2,2
1.365,2,2,2,3,1,4,1,1
1.37,0,1,2,2,1,6,1,1
1.375,0,2,0,0,3,3,1,2
1.38,0,0,0,2,1,3,1,2
1.385,1,0,1,1,1,1,1,2
1.39,5,1,3,3,2,2,4,2
1.395,2,0,0,3,1,6,3,1
1.4,0,0,2,0,1,4,3,0
1.405,0,3,1,1,2,2,4,1
1.41,1,2,2,0,0,0,4,2
1.415,0,3,2,3,3,4,0,1
1.42,1,2,1,0,0,1,1,0
1.425,2,1,3,2,2,3,2,2
1.43,0,1,2,0,0,5,5,1
1.435,2,1,3,2,4,1,0,0
1.44,1,0,1,2,2,6,4,3
1.445,1,0,5,1,1,4,5,0
1.45,0,1,3,1,3,2,0,3
1.455,1,1,2,2,4,2,0,1
1.46,1,4,0,0,1,1,3,1
1.465,3,2,2,1,0,2,6,1
1.47,1,1,1,1,3,3,0,1
1.475,1,0,1,1,1,0,0,2
1.48,1,2,2,0,1,6,3,1
1.485,2,1,0,2,1,8,2,1
1.49,2,2,1,1,2,1,1,1
1.495,1,2,2,0,2,4,3,1
1.5,0,3,1,2,2,4,1,0
1.505,1,0,2,3,2,4,8,1
1.51,0,1,4,1,3,5,2,2
1.515,1,0,1,0,2,5,2,1
1.52,0,1,3,1,2,4,3,2
1.525,1,2,0,4,0,6,0,1
1.53,1,0,1,7,1,1,1,2
1.535,3,3,3,1,1,3,4,2
1.54,1,1,1,7,5,0,1,2
1.545,3,2,0,1,1,2,3,0
1.55,0,1,2,2,3,3,3,2
1.555,1,1,4,0,3,1,3,0
1.56,0,2,0,3,1,3,0,1
1.565,2,1,2,1,3,2,2,0
1.57,3,3,1,2,3,0,1,1
1.575,1,3,3,0,4,5,4,0
1.58,2,1,4,1,1,6,1,1
1.585,0,2,1,5,2,4,2,2
1.59,0,0,1,4,1,2,3,2
1.595,1,1,3,3,2,2,0,1
1.6,1,2,2,2,1,0,0,2
1.605,2,4,2,1,3,4,2,1
1.61,1,0,0,1,3,1,1,1
1.615,1,2,2,0,0,3,1,0
1.62,3,1,0,2,1,2,4,0
1.625,1,3,1,1,2,2,4,1
1.63,0,0,3,2,0,1,4,1
1.635,1,1,1,5,3,1,4,1
1.64,1,2,2,0,1,2,0,2
1.645,1,2,0,1,3,1,0,2
1.65,0,1,0,0,1,4,5,0
1.655,0,0,1,0,1,3,4,0
1.66,0,0,0,2,3,2,6,0
1.665,1,1,1,0,0,1,4,1
1.67,2,2,1,3,1,3,1,1
1.675,1,0,1,4,2,4,2,1
1.68,1,2,1,0,1,11,1,0
1.685,1,1,2,3,2,3,0,2
1.69,0,4,0,0,0,2,3,2
1.695,1,1,0,0,3,2,3,2
1.7,0,0,0,1,0,4,0,0
1.705,1,0,1,1,0,0,2,1
1.71,1,1,3,3,1,2,0,2
1.715,3,3,1,2,1,1,3,0
1.72,1,0,1,2,3,0,3,2
1.725,1,0,3,1,1,2,2,0
1.73,1,1,1,1,0,2,1,1
1.735,0,1,1,3,1,3,0,1
1.74,0,1,3,0,0,4,5,2
1.745,0,0,1,5,0,3,1,2
1.75,0,3,1,1,4,2,2,3
1.755,0,2,1,0,1,0,0,1
1.76,2,2,1,0,0,6,5,2
1.765,3,2,1,3,1,0,0,1
1.77,1,1,3,0,0,0,3,0
1.775,0,1,1,1,1,1,4,1
1.78,1,1,4,3,1,3,1,1
1.785,1,1,4,0,1,6,0,2
1.79,4,0,0,5,2,1,2,1
1.795,3,2,1,2,0,0,2,1
1.8,0,2,1,2,1,7,0,2
1.805,2,4,1,1,4,8,7,1
1.81,2,3,3,0,5,6,0,2
1.815,0,1,1,6,0,2,4,1
1.82,3,1,1,1,0,3,1,1
1.825,1,1,1,4,2,1,2,2
1.83,0,3,2,0,2,7,1,2
1.835,2,1,1,1,1,2,3,4
1.84,1,0,2,3,1,3,0,2
1.845,0,1,0,1,2,3,1,3
1.85,0,1,1,0,0,1,2,1
1.855,2,0,3,1,0,3,0,2
1.86,0,2,1,0,1,2,2,0
1.865,1,1,4,1,0,1,1,0
1.87,2,1,4,2,0,0,3,4
1.875,2,2,1,0,3,1,2,2
1.88,2,0,1,1,2,4,3,2
1.885,0,0,4,2,2,1,1,1
1.89,1,3,1,1,0,0,2,0
1.895,0,2,5,3,2,5,5,0
1.9,3,0,2,0,2,2,1,3
1.905,1,0,1,1,2,3,5,1
1.91,1,0,0,1,1,2,4,0
1.915,1,2,2,0,3,0,3,1
1.92,1,0,5,2,4,7,1,0
1.925,0,3,1,1,1,6,0,0
1.93,1,0,2,0,3,4,3,1
1.935,0,1,3,2,0,1,1,4
1.94,3,2,2,0,2,0,2,2
1.945,1,1,0,1,0,3,2,3
1.95,2,1,0,3,2,3,1,1
1.955,1,3,2,2,3,3,5,3
1.96,0,2,2,2,1,1,1,0
1.965,1,3,1,0,0,3,1,1
1.97,2,1,2,1,3,0,0,1
1.975,1,1,0,2,0,1,3,0
1.98,1,3,3,0,2,2,2,1
1.985,1,0,0,2,4,5,0,1
1.99,2,0,2,3,1,2,4,0
1.995,2,0,2,1,1,7,7,0
2,1,1,1,1,3,6,11,1
2.005,0,3,1,3,0,2,2,2
2.01,1,1,0,2,2,5,0,2
2.015,1,1,2,2,3,2,1,1
2.02,1,1,1,1,3,7,6,1
2.025,0,1,3,1,1,3,2,1
2.03,1,3,1,0,0,0,2,0
2.035,0,2,0,3,1,4,2,0
2.04,3,2,1,4,0,2,5,2
2.045,2,1,0,2,3,3,3,2
2.05,1,0,0,0,1,1,8,3
2.055,2,1,1,1,1,1,1,0
2.06,3,2,0,0,1,2,2,1
2.065,1,1,4,1,0,4,2,1
2.07,1,0,1,0,1,2,0,1
2.075,1,0,2,1,0,0,1,1
2.08,1,1,3,2,3,2,3,1
2.085,3,2,2,1,2,3,1,2
2.09,0,2,2,3,1,0,6,2
2.095,1,1,0,3,0,8,1,1
2.1,2,1,1,3,3,4,2,2
2.105,2,1,2,4,1,10,2,0
2.11,1,0,0,1,2,4,3,0
2.115,2,2,2,0,2,3,4,2
2.12,2,0,1,2,0,2,1,1
2.125,2,3,2,3,0,3,2,0
2.13,3,2,0,4,2,2,4,1
2.135,2,1,0,2,3,1,3,2
2.14,2,4,0,3,2,4,1,1
2.145,1,1,1,1,2,5,1,0
2.15,1,2,2,3,0,4,3,1
2.155,0,0,1,1,2,1,2,1
2.16,0,1,3,2,0,1,1,2
2.165,1,1,2,1,0,2,2,1
2.17,2,3,2,1,1,0,0,0
2.175,2,4,1,0,2,4,0,2
2.18,0,2,1,2,2,1,0,0
2.185,0,1,1,1,3,2,5,0
2.19,1,2,1,1,2,2,2,3
2.195,1,0,0,2,3,1,2,0
2.2,3,0,3,2,1,7,5,2
2.205,2,2,1,2,3,7,2,0
2.21,1,1,1,0,1,2,2,0
2.215,2,2,4,0,5,5,2,2
2.22,0,2,3,1,0,2,0,1
2.225,0,1,1,1,3,5,5,0
2.23,3,0,2,2,1,1,1,2
2.235,3,1,1,0,0,1,0,2
2.24,1,1,1,2,2,7,6,3
2.245,1,1,3,3,4,2,1,0
2.25,1,2,2,0,1,1,2,0
2.255,1,0,3,1,2,1,2,2
2.26,2,2,2,0,2,2,0,1
2.265,0,3,0,1,1,6,0,2
2.27,1,1,3,2,3,5,2,1
2.275,1,0,0,5,1,0,2,0
2.28,0,0,1,3,0,3,1,1
2.285,0,1,5,1,2,2,3,1
2.29,0,1,2,1,0,2,1,1
2.295,1,1,1,1,1,3,3,2
2.3,0,1,3,1,5,9,1,0
2.305,1,2,1,2,4,8,1,2
2.31,0,1,1,0,4,3,3,0
2.315,1,1,0,2,1,2,0,0
2.32,3,1,2,2,2,3,1,1
2.325,4,2,3,3,0,6,2,1
2.33,0,1,0,1,1,6,2,1
2.335,2,1,2,1,1,9,2,3
2.34,2,2,1,3,3,2,2,1
2.345,3,1,1,1,1,5,4,1
2.35,2,1,3,2,0,1,1,1
2.355,1,2,1,0,1,7,6,0
2.36,1,1,2,0,1,2,0,1
2.365,0,2,2,2,1,2,3,0
2.37,0,1,1,2,2,4,1,3
2.375,0,1,1,2,0,3,1,0
2.38,0,2,1,2,3,1,0,1
2.385,1,1,1,4,3,4,0,2
2.39,0,2,1,2,1,3,4,1
2.395,2,1,2,1,1,2,4,1
2.4,0,1,2,2,0,0,3,1
2.405,0,2,3,1,0,6,1,0
2.41,0,2,1,2,0,5,0,1
2.415,0,0,0,0,0,4,0,0
2.42,2,1,0,4,1,4,0,0
2.425,2,0,3,3,2,3,6,3
2.43,1,1,2,2,1,0,0,2
2.435,0,1,3,0,4,3,3,0
2.44,2,3,2,0,0,3,0,0
2.445,1,2,4,1,1,4,1,1
2.45,0,1,1,6,0,2,0,2
2.455,1,1,1,1,1,4,2,2
2.46,1,1,1,3,2,3,1,2
2.465,1,1,2,0,0,1,5,0
2.47,2,2,0,1,3,2,1,2
2.475,1,2,0,1,4,3,1,1
2.48,0,1,3,2,3,4,1,2
2.485,1,3,2,2,2,2,2,3
2.49,1,1,1,1,1,2,2,0
2.495,0,1,4,0,0,3,2,1
2.5,0,0,0,3,3,0,2,4
2.505,3,1,2,1,4,1,0,1
2.51,0,2,1,1,1,7,5,1
2.515,0,1,3,2,1,0,0,0
2.52,0,2,1,3,1,1,2,0
2.525,0,0,1,2,0,1,2,1
2.53,0,1,4,2,4,3,2,0
2.535,3,1,1,2,4,1,12,4
2.54,1,2,0,2,2,1,0,0
2.545,1,0,1,2,2,4,1,1
2.55,2,2,1,2,3,1,4,1
2.555,3,1,2,3,3,5,3,2
2.56,2,1,4,2,5,2,0,1
2.565,2,3,1,2,0,4,4,2
2.57,2,0,0,1,0,2,2,1
2.575,1,2,1,1,4,6,2,1
2.58,3,0,1,1,5,3,5,1
2.585,0,2,0,1,6,4,2,0
2.59,1,2,1,2,2,2,4,2
2.595,3,2,1,0,4,2,1,2
2.6,1,0,2,2,2,4,4,1
2.605,3,0,2,2,3,1,0,1
2.61,1,2,1,1,2,0,0,3
2.615,0,1,3,1,1,3,3,0
2.62,0,0,2,2,1,1,2,4
2.625,1,3,2,1,3,3,3,2
2.63,0,2,1,1,1,2,4,1
2.635,1,1,1,0,3,5,1,1
2.64,1,2,2,2,0,12,2,0
2.645,1,2,0,2,1,0,0,1
2.65,0,3,0,1,2,3,0,1
2.655,1,1,3,0,4,5,4,1
2.66,0,0,3,1,4,7,2,1
2.665,1,0,1,0,2,1,7,0
2.67,0,1,0,1,4,1,0,1
2.675,1,0,3,2,1,2,2,2
2.68,1,1,5,3,4,0,2,0
2.685,1,2,1,5,0,1,3,2
2.69,3,0,2,3,1,2,3,1
2.695,1,2,2,3,0,1,2,3
2.7,3,3,0,1,2,1,0,1
2.705,0,0,2,1,2,3,3,1
2.71,1,3,1,3,2,2,2,1
2.715,0,3,0,3,2,1,1,2
2.72,1,1,0,2,3,4,1,1
2.725,0,3,0,2,2,4,3,3
2.73,1,0,2,2,0,1,1,1
2.735,1,0,4,1,3,1,1,1
2.74,1,1,3,2,4,0,1,2
2.745,1,0,0,0,3,5,4,1
2.75,1,1,1,0,1,1,3,2
2.755,0,1,1,2,1,2,4,1
2.76,1,1,1,3,1,3,1,1
2.765,0,0,2,2,3,5,2,0
2.77,1,2,1,1,0,2,1,1
2.775,0,2,1,1,0,0,2,1
2.78,1,3,1,0,0,4,2,3
2.785,2,1,2,2,4,2,2,1
2.79,2,1,1,3,4,2,1,2
2.795,0,0,1,2,1,2,1,0
2.8,2,1,0,1,3,1,1,1
2.805,3,2,2,1,2,2,1,2
2.81,3,0,3,1,1,0,1,1
2.815,1,4,4,0,1,0,1,1
2.82,3,2,1,2,6,0,2,0
2.825,1,0,3,1,2,1,1,2
2.83,1,2,12,1,2,3,3,0
2.835,1,1,7,0,1,0,3,0
2.84,2,2,6,1,3,0,2,1
2.845,1,6,2,6,4,3,2,1
2.85,1,2,1,0,5,2,1,1
2.855,0,2,10,2,0,0,0,0
2.86,1,4,2,2,1,1,1,1
2.865,1,2,19,0,1,1,1,1
2.87,0,2,10,1,3,1,2,0
2.875,5,5,0,2,3,1,2,1
2.88,2,1,1,6,2,5,3,3
2.885,0,0,4,2,0,3,0,0
2.89,1,2,4,1,1,2,2,1
2.895,4,4,16,2,4,2,3,0
2.9,2,2,1,2,4,1,0,0
2.905,3,1,7,1,1,3,0,3
2.91,0,1,5,3,0,1,2,3
2.915,1,2,2,2,0,3,1,2
2.92,1,2,1,2,3,3,4,1
2.925,2,3,15,6,0,1,3,1
2.93,1,1,21,2,2,2,3,2
2.935,2,0,17,4,0,0,0,3
2.94,4,11,7,1,3,1,2,0
2.945,2,5,9,2,1,2,3,1
2.95,2,2,8,5,3,3,2,2
2.955,1,2,3,0,2,0,1,2
2.96,0,6,7,2,1,1,1,2
2.965,0,5,1,3,0,1,2,0
2.97,5,6,9,4,5,1,1,1
2.975,1,0,1,1,2,1,0,1
2.98,0,0,6,0,2,0,0,1
2.985,3,1,6,1,1,1,0,2
2.99,1,2,3,0,1,3,1,2
2.995,1,3,9,0,1,1,0,1
3,1,0,6,1,0,1,3,0
3.005,1,3,2,1,4,0,1,0
3.01,2,1,1,1,1,2,1,1
3.015,0,2,9,0,2,3,1,2
3.02,2,0,7,1,2,3,2,2
3.025,2,3,10,3,0,1,1,2
3.03,1,4,18,1,1,1,1,0
3.035,4,9,19,1,3,2,2,2
3.04,1,2,4,2,2,2,0,0
3.045,3,2,4,1,2,1,0,1
3.05,1,1,13,3,1,1,1,1
3.055,1,3,13,0,0,2,2,2
3.06,0,2,2,0,1,2,0,0
3.065,1,9,11,1,1,2,1,1
3.07,0,2,10,1,2,1,0,3
3.075,5,6,6,7,1,2,0,2
3.08,1,1,1,1,0,0,3,0
3.085,0,2,0,1,1,1,0,0
3.09,2,2,5,2,1,3,2,0
3.095,1,3,9,1,0,0,1,0
3.1,1,6,12,1,2,3,3,3
3.105,0,2,8,0,1,1,4,2
3.11,2,7,0,2,5,1,3,0
3.115,2,6,0,1,3,2,1,2
3.12,2,1,4,3,2,0,1,1
3.125,1,0,12,1,3,2,2,1
3.13,1,2,11,1,3,2,2,1
3.135,0,4,1,5,5,2,0,2
3.14,1,4,18,3,1,3,1,3
3.145,2,1,5,3,0,1,2,1
3.15,2,3,12,3,2,2,2,2
3.155,2,3,30,2,3,1,4,0
3.16,3,6,20,2,2,3,0,2
3.165,1,3,11,1,2,2,2,2
3.17,1,0,3,2,1,3,1,1
3.175,1,0,6,3,1,1,2,2
3.18,0,2,4,0,2,3,6,0
3.185,1,5,2,1,1,3,1,1
3.19,0,0,9,1,1,2,1,2
3.195,0,2,15,1,1,1,1,0
3.2,3,6,20,4,3,4,2,2
3.205,1,3,0,0,2,2,3,2
3.21,1,2,1,1,3,1,2,1
3.215,0,2,9,1,0,2,4,1
3.22,1,4,10,2,0,0,1,2
3.225,3,2,12,3,1,5,3,0
3.23,1,1,16,2,0,2,1,1
3.235,2,3,22,5,2,6,4,1
3.24,3,0,14,2,3,0,2,1
3.245,2,1,11,2,3,1,2,1
3.25,3,0,15,4,1,9,2,0
3.255,1,9,6,2,4,9,2,2
3.26,1,1,4,1,1,6,4,1
3.265,2,0,3,0,0,3,2,2
3.27,2,1,7,1,1,1,0,0
3.275,0,1,9,2,1,7,1,1
3.28,1,8,9,0,0,9,3,2
3.285,2,2,11,1,1,4,4,2
3.29,1,1,11,2,3,1,2,1
3.295,2,3,0,1,0,3,0,1
3.3,1,1,9,1,0,3,3,2
3.305,1,1,12,1,1,0,1,1
3.31,1,3,2,2,0,3,1,2
3.315,1,2,4,1,1,2,5,1
3.32,3,1,3,3,1,4,3,1
3.325,1,4,1,1,4,4,1,1
3.33,1,3,20,5,2,4,1,1
3.335,1,0,7,4,2,4,2,2
3.34,1,1,19,0,2,1,5,1
3.345,0,3,17,1,1,6,2,2
3.35,4,3,12,0,0,4,1,0
3.355,1,4,8,5,3,0,2,1
3.36,0,0,2,1,0,4,1,1
3.365,3,2,3,2,1,3,2,0
3.37,2,5,1,4,0,1,1,3
3.375,1,1,6,4,1,2,1,1
3.38,1,1,2,2,5,3,2,1
3.385,0,0,6,1,0,0,1,0
3.39,5,7,13,1,4,4,4,2
3.395,0,1,8,1,1,1,2,2
3.4,1,1,6,2,2,1,0,1
3.405,0,1,1,1,4,0,0,1
3.41,0,1,15,4,1,3,3,3
3.415,2,4,7,0,1,3,4,0
3.42,1,1,12,1,1,2,1,0
3.425,0,1,9,3,3,3,1,0
3.43,1,1,8,1,0,1,1,1
3.435,3,1,7,1,1,0,1,0
3.44,1,4,1,3,4,3,3,0
3.445,3,1,12,2,4,1,3,0
3.45,2,0,5,3,2,0,2,2
3.455,0,2,1,1,1,1,0,3
3.46,0,2,2,3,0,2,1,2
3.465,0,0,10,2,0,2,0,1
3.47,1,0,5,2,1,0,4,0
3.475,1,5,4,2,0,2,1,2
3.48,5,5,12,2,3,5,1,1
3.485,3,9,23,5,4,2,1,3
3.49,3,0,7,2,5,2,2,2
3.495,1,1,4,2,4,1,1,2
3.5,1,0,10,2,4,1,0,0
3.505,1,7,14,0,4,1,0,1
3.51,0,3,6,4,7,1,5,2
3.515,1,1,13,4,6,3,4,4
3.52,3,2,7,3,5,2,1,2
3.525,2,2,5,1,2,1,2,2
3.53,0,1,4,4,7,2,1,3
3.535,2,2,6,3,3,3,0,1
3.54,1,0,1,6,4,0,1,2
3.545,1,1,12,4,3,1,2,4
3.55,1,2,0,2,3,0,4,3
3.555,3,0,0,2,3,1,0,1
3.56,0,1,17,2,2,3,1,1
3.565,2,0,3,1,2,2,1,2
3.57,3,0,1,5,0,2,1,2
3.575,1,3,5,3,2,2,0,2
3.58,0,0,18,1,2,2,2,0
3.585,1,1,1,7,1,4,2,0
3.59,2,2,5,3,4,2,1,1
3.595,3,0,5,2,2,0,0,0
3.6,0,1,17,4,4,5,3,1
3.605,2,5,10,2,3,1,0,0
3.61,3,5,25,2,1,4,2,3
3.615,1,1,6,5,2,3,3,3
3.62,1,4,9,2,2,1,1,0
3.625,2,1,12,1,1,3,0,1
3.63,1,2,5,0,2,3,0,0
3.635,2,2,13,1,2,2,1,1
3.64,1,1,2,2,1,0,2,2
3.645,3,0,3,1,0,2,0,3
3.65,1,1,3,1,1,3,1,2
3.655,2,4,0,0,0,3,4,1
3.66,1,1,6,1,0,3,0,2
3.665,2,1,4,0,1,1,0,0
3.67,1,1,9,2,0,1,3,1
3.675,0,1,3,0,1,2,0,1
3.68,0,3,1,1,1,2,3,2
3.685,0,5,1,5,0,1,0,1
3.69,3,3,7,2,1,0,2,1
3.695,1,1,6,1,0,3,1,0
3.7,0,0,8,0,3,2,0,2
3.705,2,1,1,1,1,1,1,1
3.71,0,1,4,0,3,2,4,1
3.715,3,3,5,2,1,1,4,1
3.72,1,0,2,2,1,2,1,2
3.725,0,2,3,1,0,2,2,1
3.73,1,5,5,1,1,1,2,1
3.735,2,0,2,2,5,1,1,1
3.74,2,8,5,2,0,1,1,0
3.745,5,8,26,4,1,5,4,2
3.75,1,2,8,0,0,1,1,1
3.755,1,1,4,1,1,2,3,2
3.76,3,6,12,1,3,0,0,0
3.765,1,2,2,2,3,2,1,3
3.77,1,1,6,2,2,1,1,0
3.775,0,3,4,2,1,2,0,1
3.78,2,4,3,2,1,2,1,1
3.785,1,1,6,0,0,0,1,0
3.79,1,4,10,2,1,4,0,3
3.795,3,2,6,0,1,0,0,1
3.8,2,7,7,5,1,1,3,2
3.805,3,3,3,2,1,2,3,2
3.81,2,3,10,3,2,3,2,1
3.815,1,1,6,3,2,2,0,1
3.82,0,2,7,5,0,2,1,3
3.825,0,1,5,1,6,1,0,2
3.83,3,1,3,7,0,1,0,2
3.835,1,3,10,1,3,2,1,0
3.84,0,0,7,2,1,1,1,1
3.845,2,4,5,1,0,0,0,1
3.85,1,1,17,0,2,1,1,0
3.855,3,5,25,9,2,0,2,1
3.86,1,1,2,3,4,2,2,1
3.865,1,1,1,0,2,1,2,0
3.87,0,1,2,3,3,0,0,0
3.875,1,3,1,1,2,3,0,0
3.88,1,0,6,2,2,2,2,0
3.885,0,4,9,0,0,1,0,2
3.89,0,1,8,1,0,0,2,0
3.895,2,1,11,2,0,4,5,0
3.9,3,3,3,1,3,1,4,1
3.905,0,2,6,1,2,1,1,1
3.91,1,3,11,2,2,1,2,1
3.915,1,0,2,5,1,1,3,2
3.92,0,1,6,2,2,4,4,1
3.925,0,3,1,2,0,1,1,1
3.93,1,3,4,2,0,2,0,1
3.935,1,1,2,2,4,1,1,2
3.94,2,1,3,1,2,1,2,2
3.945,1,0,8,2,1,3,0,2
3.95,2,1,5,2,0,3,1,0
3.955,2,6,5,2,3,0,1,1
3.96,1,2,8,2,1,0,2,0
3.965,1,0,3,1,1,2,3,2
3.97,1,0,10,6,2,1,1,0
3.975,2,1,7,3,1,2,0,2
3.98,2,0,1,0,1,1,0,1
3.985,2,3,9,0,1,1,1,0
3.99,2,2,1,0,1,1,1,3
3.995,1,0,5,5,3,1,1,1
4,1,3,5,1,4,3,1,2
4.005,1,0,3,3,2,0,0,2
4.01,3,2,1,1,0,1,0,0
4.015,0,2,4,2,4,1,2,2
4.02,3,3,5,0,1,1,4,1
4.025,2,1,1,2,4,2,0,1
4.03,0,0,2,2,1,1,0,2
4.035,0,1,6,1,2,0,1,1
4.04,2,5,4,4,1,0,3,0
4.045,0,3,5,1,1,3,2,1
4.05,1,4,8,0,0,1,2,2
4.055,1,1,4,3,2,0,1,1
4.06,2,4,11,2,2,2,3,2
4.065,1,2,1,1,1,0,0,0
4.07,1,0,2,1,3,2,1,1
4.075,2,2,4,4,0,4,2,3
4.08,1,2,8,1,2,0,2,2
4.085,1,2,17,1,0,2,2,2
4.09,1,0,1,0,2,2,1,0
4.095,4,3,7,2,1,3,4,2
4.1,4,4,1,3,0,1,1,2
4.105,3,3,2,1,2,1,2,1
4.11,1,5,3,1,1,2,1,1
4.115,0,4,2,2,0,3,1,2
4.12,1,1,9,1,1,3,1,1
4.125,1,0,8,4,0,2,1,2
4.13,4,4,14,5,2,0,1,3
4.135,1,3,0,5,0,2,4,1
4.14,0,2,3,0,3,2,4,1
4.145,1,4,3,0,2,0,1,2
4.15,1,0,7,4,1,5,4,2
4.155,3,2,1,1,2,0,1,2
4.16,1,2,1,3,2,2,4,0
4.165,2,3,7,4,1,1,0,2
4.17,0,4,9,2,1,1,0,1
4.175,0,5,9,0,1,2,4,1
4.18,0,3,7,1,1,1,1,2
4.185,1,1,6,0,2,3,2,1
4.19,3,9,24,1,4,1,2,2
4.195,2,1,4,2,1,2,0,3
4.2,0,2,14,1,1,1,0,2
4.205,1,2,8,4,2,1,4,0
4.21,1,1,7,1,0,1,2,1
4.215,0,0,0,0,1,2,1,0
4.22,3,8,12,1,0,3,2,2
4.225,1,6,11,0,2,0,2,0
4.23,2,2,0,0,3,2,2,2
4.235,2,5,10,1,0,2,1,1
4.24,1,9,15,1,2,3,4,1
4.245,1,2,3,4,0,1,2,1
4.25,4,1,10,1,2,5,2,0
4.255,1,1,3,2,1,1,3,1
4.26,1,4,3,1,0,2,2,2
4.265,1,1,1,0,3,2,2,3
4.27,1,1,2,4,0,1,1,1
4.275,1,1,6,0,6,5,3,1
4.28,1,1,4,0,0,0,1,1
4.285,3,1,1,3,0,1,1,0
4.29,1,2,8,1,3,3,4,1
4.295,2,1,4,1,2,2,3,0
4.3,1,3,2,3,4,3,2,1
4.305,0,0,1,0,0,2,1,0
4.31,1,1,14,4,0,0,0,1
4.315,2,1,8,1,2,3,2,2
4.32,1,0,3,3,4,2,4,3
4.325,0,1,25,0,5,2,5,1
4.33,0,1,5,4,4,0,0,0
4.335,1,4,3,2,2,0,1,2
4.34,1,2,3,0,1,1,0,1
4.345,3,6,9,1,4,3,3,2
4.35,1,1,6,4,1,2,0,0
4.355,3,1,4,3,1,0,2,1
4.36,0,1,5,1,3,1,0,1
4.365,3,3,0,3,3,4,3,1
4.37,1,0,1,1,1,2,2,2
4.375,0,0,2,0,4,1,0,0
4.38,1,5,10,4,1,4,5,3
4.385,3,1,5,4,1,1,3,1
4.39,2,3,6,3,2,3,2,0
4.395,2,0,7,2,0,1,1,1
4.4,2,3,14,1,3,0,0,1
4.405,3,0,9,0,1,2,0,1
4.41,1,4,6,2,3,0,1,2
4.415,2,0,3,1,3,2,0,1
4.42,1,0,3,1,3,0,1,1
4.425,1,0,3,2,0,0,3,1
4.43,1,1,6,2,1,0,0,1
4.435,2,4,10,1,1,0,0,2
4.44,1,3,8,2,2,3,2,0
4.445,1,1,3,2,2,3,1,2
4.45,1,1,17,2,2,1,0,1
4.455,3,3,14,5,1,5,2,1
4.46,1,1,4,1,3,1,2,3
4.465,1,1,2,0,3,2,2,1
4.47,3,11,22,2,0,1,3,2
4.475,1,4,15,0,2,1,1,2
4.48,1,1,0,0,2,2,1,0
4.485,1,5,3,2,3,2,3,2
4.49,1,2,2,1,4,2,0,1
4.495,1,0,0,0,1,1,1,0
4.5,1,1,2,2,1,3,1,1
4.505,0,1,3,3,2,2,1,1
4.51,0,0,8,2,2,0,2,1
4.515,0,1,5,3,2,1,0,1
4.52,2,4,5,1,1,1,1,0
4.525,3,6,10,2,3,2,2,0
4.53,1,2,2,3,2,2,0,2
4.535,0,3,3,2,0,2,3,0
4.54,0,1,12,2,2,0,2,1
4.545,4,4,17,3,1,1,2,1
4.55,1,1,7,1,1,0,0,1
4.555,2,0,1,0,0,0,0,1
4.56,2,6,5,2,1,2,2,2
4.565,1,1,11,2,1,1,3,1
4.57,0,2,2,1,3,0,3,0
4.575,1,4,4,2,0,3,1,1
4.58,2,1,3,2,2,0,2,1
4.585,1,1,4,0,1,1,1,3
4.59,1,1,3,0,1,1,1,2
4.595,2,3,3,3,1,2,3,2
4.6,3,1,1,1,1,2,3,1
4.605,0,3,2,2,0,0,2,1
4.61,1,4,5,2,1,0,2,2
4.615,1,2,5,3,2,1,3,2
4.62,1,2,1,1,1,0,2,1
4.625,3,2,10,2,1,0,0,1
4.63,2,2,9,0,1,1,1,1
4.635,0,3,7,2,2,5,1,1
4.64,3,1,9,0,1,0,1,2
4.645,1,0,2,1,3,2,2,4
4.65,1,1,3,0,2,1,1,1
4.655,2,2,7,1,2,0,2,1
4.66,2,2,2,3,1,1,0,1
4.665,2,4,4,3,1,3,3,1
4.67,2,2,0,0,1,1,1,0
4.675,1,1,1,1,0,2,2,0
4.68,1,3,3,1,0,3,5,4
4.685,2,4,13,1,1,0,2,0
4.69,2,6,4,1,3,4,2,3
4.695,2,0,15,4,3,2,0,0
4.7,2,4,2,1,1,0,0,1
4.705,3,6,2,3,2,2,1,2
4.71,2,3,10,1,1,1,1,2
4.715,0,0,14,0,1,0,3,1
4.72,1,1,1,5,7,3,2,2
4.725,0,2,0,0,3,1,0,2
4.73,3,7,15,2,3,2,1,2
4.735,1,1,6,4,1,2,0,1
4.74,2,2,8,5,2,2,3,2
4.745,4,5,1,4,1,2,1,3
4.75,0,6,4,0,1,1,3,1
4.755,4,3,1,3,1,0,1,1
4.76,0,2,5,3,0,2,2,1
4.765,0,2,7,3,1,1,0,0
4.77,1,1,2,0,1,1,1,1
4.775,1,1,3,0,1,2,2,1
4.78,3,3,0,1,2,1,0,1
4.785,0,0,7,3,1,1,4,1
4.79,0,1,8,2,2,0,2,3
4.795,0,0,1,2,0,2,1,0
4.8,1,2,7,0,2,4,0,0
4.805,2,0,7,1,1,1,1,2
4.81,1,0,1,1,2,2,1,3
4.815,2,4,3,4,4,0,1,2
4.82,4,1,2,0,3,2,1,2
4.825,2,3,8,3,0,1,1,0
4.83,1,5,0,2,0,1,2,1
4.835,0,6,6,1,2,1,1,2
4.84,1,1,2,0,2,1,2,2
4.845,3,3,10,1,2,0,3,2
4.85,2,3,0,0,1,2,2,0
4.855,1,2,2,0,1,2,1,1
4.86,3,2,1,2,4,3,0,1
4.865,0,0,6,2,0,1,0,1
4.87,1,1,3,1,1,1,2,2
4.875,1,1,2,1,1,0,2,1
4.88,0,2,1,5,0,0,0,1
4.885,2,5,4,2,2,0,1,1
4.89,1,1,0,0,0,0,3,2
4.895,2,3,4,1,3,2,1,2
4.9,1,1,10,1,1,1,2,1
4.905,1,3,6,0,0,2,0,0
4.91,0,1,2,2,0,0,1,0
4.915,0,3,11,2,1,2,2,1
4.92,1,2,1,1,1,1,1,2
4.925,1,1,6,0,1,3,1,1
4.93,2,1,0,1,2,2,3,1
4.935,0,0,11,2,3,1,0,1
4.94,0,1,5,1,3,1,4,0
4.945,2,4,11,3,1,2,2,0
4.95,2,4,13,4,1,2,3,0
4.955,0,1,13,1,1,0,0,1
4.96,2,2,10,0,3,0,2,1
4.965,0,1,6,3,2,3,1,2
4.97,2,3,1,3,2,2,2,2
4.975,1,1,4,3,2,1,1,1
4.98,2,3,1,0,2,3,1,0
4.985,0,1,9,0,2,1,0,1
4.99,1,1,5,2,5,1,1,0
4.995,1,1,1,2,0,2,3,2
5,3,5,6,0,1,1,0,1
5.005,1,2,3,0,2,1,2,0
5.01,1,0,2,0,1,2,0,0
5.015,5,5,5,5,1,0,1,2
5.02,0,1,4,1,3,1,0,2
5.025,2,2,1,1,1,4,1,2
5.03,1,2,4,2,2,1,0,1
5.035,4,4,3,2,2,1,1,2
5.04,1,0,0,0,0,1,2,1
5.045,1,3,4,1,0,1,0,1
5.05,2,1,6,1,1,1,1,1
5.055,1,0,7,1,2,1,1,1
5.06,1,1,0,3,0,3,0,2
5.065,1,2,1,1,1,1,1,1
5.07,0,1,5,0,2,3,2,2
5.075,1,3,3,0,1,0,1,0
5.08,1,1,2,0,1,2,2,0
5.085,3,3,1,5,1,2,1,1
5.09,0,1,2,2,1,2,1,1
5.095,2,1,8,0,1,3,2,3
5.1,1,1,2,0,1,1,1,0
5.105,0,2,13,2,1,0,3,0
5.11,3,4,5,1,0,0,2,2
5.115,0,2,4,2,4,0,2,1
5.12,2,2,0,1,4,1,0,2
5.125,1,2,4,1,1,3,1,1
5.13,2,2,4,1,1,1,0,1
5.135,1,0,12,3,2,1,0,2
5.14,1,0,5,4,2,3,1,1
5.145,3,1,6,2,0,3,2,1
5.15,2,0,3,0,0,1,0,3
5.155,1,2,4,5,0,2,3,2
5.16,1,5,4,1,2,0,1,2
5.165,1,3,2,3,1,3,0,2
5.17,2,1,7,1,1,0,1,1
5.175,1,1,4,1,1,1,1,1
5.18,3,2,1,1,2,2,0,1
5.185,1,2,2,1,1,2,2,0
5.19,2,2,1,2,1,1,1,1
5.195,1,0,4,2,2,1,2,0
5.2,1,4,5,1,2,1,1,0
5.205,1,2,13,1,1,1,2,1
5.21,0,0,3,0,2,1,1,1
5.215,1,2,4,0,2,1,0,1
5.22,2,6,3,0,1,2,2,3
5.225,2,0,3,0,0,1,0,1
5.23,1,1,2,1,2,0,2,1
5.235,2,2,9,3,2,4,3,1
5.24,1,2,1,3,1,1,0,0
5.245,3,4,5,3,2,4,3,1
5.25,2,0,6,2,2,0,1,2
5.255,1,2,6,4,1,2,0,2
5.26,0,0,1,3,3,1,0,0
5.265,1,1,6,4,1,1,0,2
5.27,1,2,11,1,3,2,2,1
5.275,3,6,4,2,1,0,1,1
5.28,1,2,3,3,1,1,1,1
5.285,1,2,5,1,3,3,1,0
5.29,3,7,1,2,1,1,1,2
5.295,2,3,2,1,2,2,1,0
5.3,5,6,5,1,1,1,0,1
5.305,0,1,15,2,0,1,1,0
5.31,0,2,7,1,4,1,2,3
5.315,0,1,6,0,3,0,2,0
5.32,0,4,5,1,3,2,2,3
5.325,1,1,5,2,0,1,0,2
5.33,1,1,0,1,0,1,4,0
5.335,1,4,13,1,1,1,1,2
5.34,2,2,4,2,2,0,1,1
5.345,1,1,1,1,0,3,1,3
5.35,0,2,2,3,3,2,2,1
5.355,3,2,5,3,2,3,1,0
5.36,2,1,7,4,0,1,1,1
5.365,1,4,0,2,2,2,2,1
5.37,2,3,0,2,1,1,2,1
5.375,1,3,7,3,1,2,2,2
5.38,2,3,2,2,1,5,2,3
5.385,1,2,8,1,1,1,1,1
5.39,1,3,16,1,2,3,2,0
5.395,1,6,12,2,2,2,2,0
5.4,1,2,6,2,2,2,2,1
5.405,2,4,5,5,2,3,1,3
5.41,0,0,14,2,2,1,1,2
5.415,1,1,16,1,0,2,1,0
5.42,2,0,1,2,2,2,1,1
5.425,2,1,1,3,3,2,4,1
5.43,0,1,1,2,3,3,2,0
5.435,2,2,6,1,0,0,1,0
5.44,3,5,2,3,1,1,2,3
5.445,0,1,8,1,4,1,0,1
5.45,2,5,10,2,2,4,4,2
5.455,1,0,1,1,2,3,1,2
5.46,0,0,2,1,1,1,2,1
5.465,1,2,14,2,1,2,1,1
5.47,1,1,9,1,1,1,1,0
5.475,1,2,4,3,6,1,1,3
5.48,1,1,7,2,0,0,2,1
5.485,0,0,7,1,0,1,1,2
5.49,2,4,2,0,1,4,1,2
5.495,1,0,4,0,2,0,0,4
5.5,2,1,6,1,1,0,0,0
5.505,1,0,3,1,1,2,3,1
5.51,3,1,3,1,1,0,1,0
5.515,2,3,3,0,2,3,1,2
5.52,1,0,3,0,2,3,1,1
5.525,1,1,4,0,2,0,0,1
5.53,0,1,5,2,3,2,1,1
5.535,0,0,1,4,2,1,2,3
5.54,2,4,5,2,0,3,2,2
5.545,1,1,2,1,0,2,4,0
5.55,1,6,12,1,1,1,2,2
5.555,2,3,27,3,1,1,0,0
5.56,1,0,14,3,0,1,2,2
5.565,3,4,0,2,0,0,2,2
5.57,2,2,2,0,2,0,2,0
5.575,2,2,9,2,1,1,2,0
5.58,4,4,5,4,6,1,1,2
5.585,1,0,1,2,0,1,0,2
5.59,2,1,2,3,2,1,2,1
5.595,0,2,8,1,3,0,1,3
5.6,0,0,1,3,0,0,0,0
5.605,1,2,3,0,0,3,1,0
5.61,3,2,2,1,1,1,1,0
5.615,0,2,6,0,3,0,1,2
5.62,1,1,2,2,1,3,3,0
5.625,1,1,3,2,0,1,1,2
5.63,1,1,0,3,2,1,3,1
5.635,1,1,3,0,1,0,2,2
5.64,0,2,1,5,2,1,0,2
5.645,0,1,15,1,1,2,0,0
5.65,1,2,2,0,2,3,1,1
5.655,2,6,5,0,1,1,3,0
5.66,0,4,3,3,0,3,1,1
5.665,0,3,5,1,1,1,2,1
5.67,3,2,4,2,4,2,2,3
5.675,1,1,3,1,1,0,0,1
5.68,1,7,16,1,3,1,1,1
5.685,3,2,13,1,1,2,1,0
5.69,2,0,17,1,1,3,2,1
5.695,0,5,25,3,1,3,2,1
5.7,5,3,23,3,3,3,3,1
5.705,2,4,25,1,3,1,0,1
5.71,4,5,3,8,0,0,3,0
5.715,3,15,6,0,3,3,1,1
5.72,1,0,21,1,1,5,0,2
5.725,1,9,11,1,1,1,1,1
5.73,6,2,8,3,2,1,2,2
5.735,4,7,13,3,1,2,1,4
5.74,1,3,59,15,3,2,4,2
5.745,1,9,11,8,5,5,3,1
5.75,4,5,13,1,1,4,1,2
5.755,4,9,15,4,0,1,2,2
5.76,1,14,47,4,1,2,1,0
5.765,2,22,36,0,0,4,2,2
5.77,2,6,19,0,2,2,1,1
5.775,1,2,1,3,3,6,6,1
5.78,2,3,48,4,1,4,4,0
5.785,3,7,13,1,0,3,1,1
5.79,1,2,9,5,1,1,0,0
5.795,0,6,29,1,2,2,0,2
5.8,1,1,49,7,1,1,0,1
5.805,0,4,3,6,1,2,1,2
5.81,3,2,27,4,1,7,3,1
5.815,4,4,32,9,1,8,1,1
5.82,0,9,22,2,2,2,1,1
5.825,3,1,53,1,3,0,2,2
5.83,0,0,30,8,2,4,1,2
5.835,4,11,48,10,0,1,1,1
5.84,0,1,28,4,0,2,3,1
5.845,5,16,41,6,1,0,1,0
5.85,0,2,12,0,1,3,2,0
5.855,0,7,20,4,1,6,2,0
5.86,3,7,3,4,1,0,1,3
5.865,2,4,2,3,3,2,1,0
5.87,2,2,10,1,4,1,5,0
5.875,1,5,1,3,3,0,0,1
5.88,6,17,6,6,4,4,4,3
5.885,3,9,18,2,2,1,0,2
5.89,1,2,2,2,1,0,0,2
5.895,1,3,4,3,2,5,2,2
5.9,0,4,9,0,0,2,1,0
5.905,1,6,19,3,0,3,1,2
5.91,1,1,2,1,5,2,1,1
5.915,2,3,22,2,1,1,2,0
5.92,1,8,25,6,1,12,4,2
5.925,0,0,5,0,2,6,0,1
5.93,1,4,36,7,0,0,0,1
5.935,6,10,19,3,2,3,3,3
5.94,1,4,15,0,0,0,1,1
5.945,3,3,18,2,4,7,3,2
5.95,1,4,10,3,2,4,1,1
5.955,0,1,3,1,0,1,1,0
5.96,1,2,1,3,4,1,2,2
5.965,1,2,25,2,0,1,1,0
5.97,0,2,10,2,2,3,1,2
5.975,1,1,31,0,2,2,2,2
5.98,0,7,19,1,2,1,0,2
5.985,2,1,8,2,3,0,2,0
5.99,2,1,9,3,1,1,3,2
5.995,3,4,5,4,0,3,4,3
6,2,3,2,2,1,1,0,1
6.005,0,6,20,4,1,1,1,1
6.01,0,7,5,3,1,5,3,1
6.015,1,2,7,4,1,1,1,1
6.02,0,1,5,2,2,1,1,2
6.025,1,1,20,3,5,3,2,2
6.03,4,3,1,4,0,2,2,2
6.035,0,2,13,3,1,1,0,3
6.04,1,2,15,0,4,3,4,1
6.045,0,3,2,6,2,1,2,2
6.05,2,1,1,1,0,10,2,1
6.055,1,6,24,5,4,12,2,1
6.06,1,2,33,1,1,2,2,0
6.065,0,4,31,2,4,7,4,1
6.07,0,3,21,0,1,2,4,0
6.075,2,1,16,1,1,6,2,0
6.08,2,3,21,1,4,2,0,2
6.085,2,0,14,2,1,3,1,0
6.09,2,0,4,3,2,3,2,2
6.095,1,5,11,4,0,3,1,0
6.1,2,3,8,2,0,0,1,1
6.105,2,3,5,2,0,2,2,2
6.11,1,8,2,0,0,2,0,0
6.115,1,10,3,0,2,4,1,1
6.12,3,4,12,1,2,1,0,1
6.125,0,2,15,2,1,3,0,1
6.13,1,0,3,1,2,1,2,2
6.135,1,4,10,3,1,2,1,1
6.14,3,6,4,0,2,3,0,1
6.145,1,0,8,2,1,0,0,2
6.15,1,9,2,2,0,1,0,0
6.155,1,2,5,0,1,4,3,1
6.16,1,1,1,1,3,2,0,1
6.165,2,1,8,1,2,1,1,1
6.17,2,2,5,0,2,1,3,4
6.175,0,2,4,1,1,1,2,0
6.18,1,1,5,4,1,1,1,0
6.185,2,4,5,1,1,3,1,2
6.19,3,5,16,3,0,2,0,2
6.195,0,2,24,4,1,0,1,0
6.2,1,2,8,1,2,2,1,0
6.205,2,3,8,3,1,2,2,0
6.21,1,1,12,2,0,0,4,0
6.215,1,3,2,1,1,4,2,1
6.22,1,5,5,6,1,1,0,3
6.225,2,3,3,2,1,2,2,2
6.23,0,3,0,0,1,0,0,3
6.235,0,2,5,5,4,0,2,2
6.24,2,3,3,0,1,3,4,2
6.245,1,1,6,2,2,0,0,2
6.25,2,4,13,2,0,0,1,3
6.255,1,3,8,6,3,2,1,1
6.26,2,2,2,5,1,2,3,2
6.265,3,1,5,1,0,1,0,2
6.27,1,1,5,2,2,1,0,0
6.275,5,8,21,5,2,3,1,1
6.28,0,2,7,1,2,0,0,2
6.285,2,1,14,4,1,1,1,1
6.29,2,3,24,4,2,1,0,1
6.295,1,1,14,1,0,0,2,3
6.3,1,3,3,4,2,3,1,0
6.305,1,3,0,4,0,0,3,2
6.31,0,3,13,4,2,0,1,0
6.315,1,1,11,1,1,1,2,0
6.32,2,2,2,0,2,4,4,4
6.325,3,6,24,6,1,2,1,0
6.33,2,5,10,1,2,1,1,1
6.335,2,3,2,1,4,0,1,2
6.34,2,1,12,0,0,0,1,3
6.345,1,2,4,0,0,2,1,2
6.35,1,2,4,0,1,2,2,2
6.355,2,4,5,1,1,0,0,1
6.36,3,6,21,2,3,1,1,1
6.365,1,6,5,4,2,3,1,1
6.37,2,0,7,1,2,2,2,1
6.375,2,2,9,0,2,0,0,1
6.38,2,3,0,3,2,1,1,0
6.385,0,0,2,3,1,0,1,1
6.39,0,2,2,1,1,0,2,1
6.395,1,1,9,2,1,2,1,1
6.4,1,5,14,2,2,1,2,1
6.405,1,0,1,1,3,1,0,2
6.41,2,2,1,1,2,2,1,1
6.415,0,0,1,0,3,0,1,1
6.42,0,0,9,1,2,1,2,3
6.425,0,2,14,3,1,1,1,0
6.43,1,3,9,3,4,3,1,1
6.435,2,0,1,2,3,1,1,0
6.44,3,3,3,0,1,2,1,1
6.445,2,5,1,1,2,2,1,2
6.45,3,1,0,2,1,0,0,4
6.455,0,1,2,0,1,4,2,1
6.46,2,2,0,0,2,1,1,2
6.465,1,2,5,5,1,2,2,0
6.47,0,1,4,1,1,2,2,0
6.475,0,3,3,2,0,0,1,1
6.48,1,2,2,1,1,0,1,1
6.485,0,0,0,1,0,1,0,0
6.49,1,1,0,0,2,3,2,3
6.495,1,3,6,0,1,1,0,4
6.5,0,2,2,4,3,0,0,1
6.505,1,1,8,2,0,1,2,3
6.51,2,1,7,1,0,1,1,0
6.515,1,1,1,4,0,3,1,0
6.52,0,1,5,2,2,1,1,2
6.525,1,1,2,0,2,2,1,1
6.53,1,5,13,0,4,2,1,1
6.535,3,1,0,2,2,3,6,1
6.54,2,2,2,1,2,0,3,0
6.545,2,3,0,2,2,1,8,1
6.55,1,3,0,0,1,3,1,2
6.555,3,2,5,5,1,1,2,1
6.56,3,0,32,1,1,3,3,4
6.565,0,1,24,3,2,3,1,0
6.57,2,4,0,3,1,1,1,1
6.575,2,6,7,4,1,0,3,3
6.58,2,4,28,2,4,2,1,2
6.585,0,2,19,0,5,4,2,3
6.59,0,2,13,0,0,0,1,1
6.595,5,5,9,1,0,3,5,2
6.6,7,26,32,1,5,4,2,2
6.605,2,0,22,6,0,0,0,0
6.61,6,13,12,1,5,1,2,2
6.615,2,7,47,8,2,7,0,0
6.62,7,21,26,11,2,19,4,4
6.625,3,19,26,2,6,0,1,5
6.63,2,7,1,7,7,10,12,4
6.635,1,13,61,13,1,1,9,3
6.64,3,7,11,11,0,6,4,3
6.645,2,11,0,10,6,12,7,4
6.65,8,40,73,26,14,15,10,10
6.655,5,12,30,3,1,3,5,1
6.66,10,34,30,11,6,3,2,0
6.665,8,2,60,8,0,10,7,2
6.67,7,21,78,4,0,8,6,4
6.675,18,64,23,11,3,4,5,8
6.68,1,17,103,16,4,11,5,1
6.685,3,20,32,4,3,2,1,1
6.69,6,51,41,17,5,1,3,1
6.695,5,2,35,4,1,4,0,1
6.7,7,16,10,8,1,1,2,2
6.705,5,32,4,9,3,2,3,1
6.71,7,25,33,4,4,3,3,0
6.715,2,19,61,19,6,0,1,2
6.72,22,49,1,3,5,8,7,13
6.725,12,64,9,9,0,2,1,0
6.73,20,79,67,19,14,12,7,7
6.735,3,26,17,2,5,0,0,4
6.74,3,16,19,5,4,5,4,3
6.745,2,9,25,6,6,0,3,0
6.75,3,18,36,7,5,3,3,1
6.755,1,16,73,8,0,2,1,4
6.76,8,24,12,8,4,10,5,8
6.765,11,15,18,8,1,7,3,6
6.77,5,9,36,19,10,9,6,4
6.775,1,17,26,9,7,0,1,3
6.78,6,31,44,2,12,9,7,3
6.785,16,56,26,2,6,4,2,4
6.79,8,57,54,8,11,8,5,2
6.795,11,44,16,1,6,6,4,3
6.8,3,15,82,18,2,9,3,1
6.805,9,0,37,0,0,1,1,4
6.81,3,42,114,8,5,4,2,1
6.815,17,32,49,4,7,11,5,1
6.82,5,27,33,6,1,9,4,2
6.825,9,42,93,19,0,1,1,4
6.83,5,33,30,4,8,5,7,4
6.835,3,7,7,2,3,2,0,2
6.84,12,41,91,30,6,12,7,6
6.845,3,15,42,0,3,5,1,2
6.85,5,11,86,10,0,2,1,5
6.855,16,5,64,0,1,14,11,7
6.86,1,16,28,10,2,9,10,6
6.865,1,24,110,13,6,14,13,4
6.87,1,11,53,1,0,1,2,0
6.875,0,9,34,5,3,2,2,1
6.88,2,15,11,1,6,3,4,2
6.885,7,15,40,6,7,11,7,2
6.89,4,2,51,3,7,2,3,1
6.895,0,5,21,1,0,5,3,2
6.9,3,13,40,15,2,3,0,0
6.905,10,27,33,4,2,4,4,4
6.91,2,10,17,10,5,7,6,3
6.915,2,6,33,11,6,16,10,8
6.92,0,5,53,5,1,5,4,2
6.925,1,6,18,3,3,1,1,1
6.93,2,4,10,2,2,1,3,1
6.935,3,0,29,2,1,1,0,1
6.94,5,9,7,5,2,2,3,3
6.945,1,6,16,8,2,2,1,1
6.95,4,3,25,6,1,2,0,1
6.955,1,1,11,0,3,6,2,1
6.96,0,4,3,1,2,5,0,0
6.965,1,2,21,6,1,4,1,2
6.97,1,10,31,6,5,7,3,3
6.975,1,7,19,5,1,4,1,1
6.98,1,10,4,4,3,8,8,1
6.985,2,4,17,1,0,2,1,2
6.99,2,1,6,3,0,2,2,1
6.995,3,7,6,0,3,3,1,0
7,2,0,47,7,0,0,2,2
7.005,2,10,4,1,4,2,1,2
7.01,2,9,32,4,4,3,1,0
7.015,4,5,36,6,4,4,3,0
7.02,1,4,18,0,2,3,0,0
7.025,1,1,14,1,1,1,2,15
7.03,1,1,0,1,2,12,2,20
7.035,1,3,17,0,0,14,2,3
7.04,2,4,18,2,3,4,4,4
7.045,1,5,12,1,0,5,2,2
7.05,4,4,56,7,4,4,5,0
7.055,2,0,1,1,2,3,2,1
7.06,3,2,22,0,3,0,1,2
7.065,1,3,14,3,1,2,0,2
7.07,0,2,1,2,0,0,0,3
7.075,2,2,23,0,2,6,4,4
7.08,2,3,16,3,2,1,1,1
7.085,2,1,13,1,5,2,0,4
7.09,1,2,14,4,1,2,0,1
7.095,1,0,29,0,3,3,2,1
7.1,1,1,12,3,1,0,5,2
7.105,3,4,9,1,4,2,4,4
7.11,1,4,4,3,1,2,1,1
7.115,1,0,24,2,0,0,0,0
7.12,1,1,27,0,5,5,3,2
7.125,2,0,12,1,1,3,1,5
7.13,2,2,14,2,3,1,1,2
7.135,2,3,11,1,0,7,0,2
7.14,1,2,10,2,3,13,2,3
7.145,1,1,11,1,3,1,3,1
7.15,2,1,9,1,4,3,4,1
7.155,3,4,2,3,3,5,2,3
7.16,0,4,3,1,3,5,2,1
7.165,2,2,5,0,1,0,0,2
7.17,2,6,6,4,1,1,0,1
7.175,3,2,9,1,1,1,2,1
7.18,1,3,3,1,3,3,1,2
7.185,2,3,6,3,2,1,2,2
7.19,3,2,8,0,2,1,3,0
7.195,1,3,15,2,2,0,1,1
7.2,0,4,7,2,2,1,3,0
7.205,4,2,3,1,4,1,2,3
7.21,2,3,5,2,2,3,2,0
7.215,1,0,8,1,2,1,3,2
7.22,3,7,17,3,1,2,0,3
7.225,2,9,10,1,1,2,2,1
7.23,0,4,9,1,1,2,1,0
7.235,2,2,7,1,0,1,1,1
7.24,1,1,7,2,0,3,3,1
7.245,1,2,1,1,2,2,2,3
7.25,0,2,1,3,1,2,2,1
7.255,2,2,8,1,0,1,1,0
7.26,0,3,7,2,1,2,0,1
7.265,1,2,12,1,4,2,3,3
7.27,3,1,26,2,1,2,2,1
7.275,2,4,1,6,1,2,1,1
7.28,1,3,8,1,2,2,2,2
7.285,1,5,20,4,2,1,3,2
7.29,2,2,6,2,1,3,2,2
7.295,2,4,7,2,1,2,0,3
7.3,2,1,9,2,3,4,1,1
7.305,2,1,15,1,2,0,0,1
7.31,1,3,7,3,2,0,1,1
7.315,1,1,0,1,4,1,1,0
7.32,1,3,5,2,0,1,2,1
7.325,0,1,4,4,2,0,2,1
7.33,1,4,3,0,0,1,0,1
7.335,1,1,1,0,0,1,1,1
7.34,1,0,0,3,7,3,0,1
7.345,4,1,0,3,1,0,3,1
7.35,1,2,2,0,2,2,2,1
7.355,2,4,1,3,1,2,1,3
7.36,0,1,2,0,2,2,1,1
7.365,1,2,2,1,2,1,0,1
7.37,1,3,2,6,3,1,1,2
7.375,0,4,5,1,4,2,0,1
7.38,2,1,9,2,1,3,1,1
7.385,1,3,0,3,3,2,0,0
7.39,1,0,8,0,1,3,0,0
7.395,3,3,2,3,1,5,5,3
7.4,1,2,3,1,3,2,2,1
7.405,3,1,4,2,1,2,4,3
7.41,2,5,3,2,1,2,1,1
7.415,0,1,1,5,1,0,0,0
7.42,1,1,12,0,2,1,1,2
7.425,2,4,13,2,0,1,0,2
7.43,0,2,9,2,1,1,1,2
7.435,2,0,11,1,1,2,2,0
7.44,3,2,3,1,4,3,3,1
7.445,2,2,8,2,4,1,1,1
7.45,3,0,18,1,2,3,1,1
7.455,1,3,15,4,1,1,1,0
7.46,1,4,4,3,3,0,1,1
7.465,0,2,13,1,6,3,1,3
7.47,1,0,4,3,3,1,1,1
7.475,1,4,6,1,3,2,2,1
7.48,4,4,20,3,2,3,3,2
7.485,2,0,3,1,1,1,0,2
7.49,2,3,3,2,2,1,1,3
7.495,2,5,6,2,2,2,0,0
7.5,1,5,5,4,2,0,0,2
7.505,0,2,11,1,3,2,0,0
7.51,1,6,2,3,2,2,1,1
7.515,2,11,10,4,1,3,1,2
7.52,5,14,12,4,3,8,3,0
7.525,1,6,16,4,1,1,0,2
7.53,2,12,7,2,2,1,2,2
7.535,5,16,18,3,0,3,2,1
7.54,4,9,13,2,1,1,1,1
7.545,2,13,5,4,1,3,1,2
7.55,2,0,35,5,4,5,1,0
7.555,1,5,15,4,1,0,2,2
7.56,3,3,29,1,2,2,0,2
7.565,5,7,13,1,1,8,6,3
7.57,1,4,10,2,2,2,0,2
7.575,1,3,20,6,0,0,2,1
7.58,1,1,25,5,1,1,0,2
7.585,1,2,70,8,3,3,2,2
7.59,0,0,22,6,2,4,2,1
7.595,7,5,1,12,8,9,6,4
7.6,2,6,5,1,5,1,3,2
7.605,2,6,8,0,8,0,1,0
7.61,1,1,12,1,5,1,1,5
7.615,2,6,16,1,4,4,1,0
7.62,2,4,51,10,1,5,3,1
7.625,3,9,44,5,2,0,1,1
7.63,3,10,11,0,1,1,1,0
7.635,0,11,50,9,1,1,2,2
7.64,1,4,16,6,9,4,4,3
7.645,2,3,22,2,2,4,3,1
7.65,0,17,23,9,2,1,2,2
7.655,0,17,34,5,3,1,1,1
7.66,3,12,86,10,7,6,0,1
7.665,4,25,26,13,5,4,2,1
7.67,8,35,29,5,2,2,5,5
7.675,2,8,84,16,3,5,3,0
7.68,2,13,44,13,1,1,0,1
7.685,5,11,31,2,2,1,1,4
7.69,4,30,72,15,4,4,1,1
7.695,0,0,17,4,4,0,0,1
7.7,1,3,80,7,2,1,1,5
7.705,9,24,82,15,2,1,1,6
7.71,3,3,20,1,6,1,2,2
7.715,6,3,27,1,1,7,3,5
7.72,3,2,21,2,3,3,1,3
7.725,8,21,32,10,1,10,7,7
7.73,5,47,45,21,3,1,2,3
7.735,7,17,55,5,3,6,2,1
7.74,0,13,14,4,2,0,2,1
7.745,6,23,9,6,9,4,2,5
7.75,3,2,60,5,7,4,5,4
7.755,3,14,21,8,10,3,3,3
7.76,6,12,48,9,4,3,4,5
7.765,3,34,69,14,6,1,0,1
7.77,1,15,59,2,2,1,1,1
7.775,10,1,84,15,6,4,3,3
7.78,4,12,85,10,2,1,2,1
7.785,3,10,40,11,4,0,0,2
7.79,4,5,16,2,2,0,1,3
7.795,0,8,20,7,8,6,3,2
7.8,1,15,35,18,3,2,1,1
7.805,4,13,83,5,1,5,3,4
7.81,4,16,24,5,1,1,1,2
7.815,10,33,26,3,2,2,1,3
7.82,3,8,19,7,2,4,5,5
7.825,3,4,14,3,3,2,3,0
7.83,0,4,37,6,3,5,2,0
7.835,5,11,53,6,6,2,2,1
7.84,3,26,58,7,1,1,0,0
7.845,2,4,9,2,0,2,0,1
7.85,4,15,75,7,5,6,7,2
7.855,9,33,95,5,8,2,2,3
7.86,9,33,55,12,1,2,1,1
7.865,3,7,28,1,2,1,1,1
7.87,3,2,45,7,2,4,2,0
7.875,1,2,33,6,3,1,1,1
7.88,0,8,6,0,3,2,2,1
7.885,4,3,14,2,1,3,3,1
7.89,1,2,4,1,4,2,1,0
7.895,1,1,2,1,2,1,4,2
7.9,0,12,53,12,1,1,2,3
7.905,1,1,23,3,5,3,3,3
7.91,1,9,18,1,0,2,1,3
7.915,1,2,31,3,4,6,4,0
7.92,3,12,28,6,7,3,3,3
7.925,1,7,3,1,6,1,1,1
7.93,0,0,20,1,1,5,3,1
7.935,4,1,21,1,2,0,1,3
7.94,1,0,17,3,2,6,2,3
7.945,2,2,7,2,3,2,1,0
7.95,3,5,29,5,3,1,0,3
7.955,0,5,21,2,1,0,2,3
7.96,2,6,47,0,1,3,2,4
7.965,1,3,12,0,3,3,2,2
7.97,2,1,1,5,8,2,1,1
7.975,1,6,27,4,2,0,0,1
7.98,4,5,10,2,8,3,1,1
7.985,3,2,0,1,1,2,1,0
7.99,3,4,1,5,6,6,3,3
7.995,1,3,43,3,2,0,2,0
8,1,0,12,2,3,1,2,1
8.005,0,2,4,1,6,1,1,4
8.01,1,1,6,3,2,3,2,2
8.015,0,0,8,4,2,1,2,1
8.02,1,1,4,0,2,1,2,1
8.025,1,3,10,2,2,1,1,3
8.03,1,0,5,2,0,2,2,1
8.035,1,0,22,1,1,1,1,2
8.04,1,2,18,3,1,0,1,1
8.045,2,3,6,3,4,3,2,0
8.05,0,3,18,0,2,0,2,1
8.055,2,2,18,5,2,1,0,0
8.06,1,1,9,4,2,2,1,2
8.065,1,1,0,2,3,0,1,2
8.07,0,1,1,1,1,2,0,0
8.075,2,1,3,0,1,2,2,1
8.08,1,3,9,4,4,0,1,2
8.085,1,4,15,3,1,1,0,1
8.09,1,5,3,0,2,0,1,2
8.095,1,5,24,1,2,1,2,2
8.1,3,3,6,3,3,6,2,2
8.105,2,3,9,1,2,1,2,2
8.11,0,2,9,1,0,0,3,0
8.115,1,6,2,4,1,2,3,2
8.12,1,2,1,3,1,1,1,1
8.125,0,1,8,2,0,1,0,1
8.13,4,3,23,5,2,2,1,2
8.135,1,2,6,2,1,2,1,2
8.14,1,4,0,1,2,0,0,1
8.145,1,4,4,1,1,0,1,0
8.15,1,2,6,2,1,1,1,0
8.155,2,3,16,1,1,3,1,1
8.16,1,0,22,1,2,3,2,1
8.165,1,4,14,1,2,1,2,1
8.17,1,1,9,3,3,3,4,4
8.175,2,2,5,1,1,2,3,2
8.18,2,4,2,2,1,1,0,2
8.185,1,0,10,2,1,3,1,1
8.19,0,3,2,2,0,1,1,2
8.195,1,1,21,0,0,3,0,0
8.2,2,0,4,1,3,4,2,2
8.205,0,5,23,6,2,0,0,1
8.21,3,1,8,1,2,3,1,0
8.215,1,2,0,3,2,0,1,1
8.22,2,3,10,1,1,1,2,0
8.225,0,0,9,1,1,3,0,0
8.23,1,3,10,1,1,1,0,1
8.235,2,3,8,1,2,2,0,0
8.24,1,0,1,2,2,3,2,1
8.245,1,0,1,1,1,0,1,1
8.25,1,2,2,1,2,2,1,2
8.255,0,4,9,0,1,3,3,2
8.26,1,5,5,1,1,1,1,1
8.265,2,2,0,1,0,2,1,1
8.27,2,1,0,1,0,1,0,0
8.275,2,0,28,3,1,1,1,1
8.28,1,4,9,3,2,3,2,2
8.285,1,1,1,1,1,1,1,1
8.29,2,0,0,2,1,3,2,0
8.295,1,2,7,5,1,1,1,2
8.3,0,0,8,1,3,1,0,1
8.305,1,0,7,2,1,0,1,3
8.31,2,3,2,4,1,0,3,0
8.315,1,2,9,3,1,2,0,2
8.32,1,0,4,2,2,1,1,1
8.325,2,2,1,2,2,3,3,1
8.33,0,1,2,1,1,2,2,1
8.335,1,1,7,1,1,1,0,3
8.34,1,2,4,2,1,1,0,1
8.345,2,1,5,3,5,3,2,2
8.35,1,2,3,1,2,0,2,2
8.355,1,1,3,1,1,1,0,0
8.36,2,3,3,2,3,2,2,2
8.365,0,2,9,3,1,0,0,1
8.37,1,3,9,3,1,3,2,1
8.375,2,0,2,5,4,1,3,0
8.38,3,5,6,2,2,2,2,1
8.385,3,2,1,3,2,2,2,0
8.39,1,4,0,1,1,2,2,2
8.395,3,0,13,3,0,3,4,1
8.4,0,2,3,3,1,1,1,1
8.405,2,0,5,4,0,2,1,0
8.41,0,0,3,0,0,1,1,1
8.415,3,3,2,2,4,3,3,1
8.42,1,3,0,2,2,1,1,0
8.425,0,0,5,1,3,3,0,2
8.43,2,4,8,1,1,4,4,0
8.435,0,0,7,1,1,3,0,2
8.44,1,1,3,2,1,0,1,1
8.445,0,0,0,0,2,1,1,0
8.45,0,1,7,4,2,2,0,1
8.455,0,2,6,2,0,1,2,1
8.46,2,1,5,3,1,2,1,3
8.465,0,3,1,1,0,1,0,2
8.47,2,5,2,1,2,3,2,2
8.475,2,1,2,1,1,0,2,0
8.48,1,0,6,3,3,2,2,0
8.485,1,2,0,1,0,1,3,2
8.49,0,2,2,2,1,1,1,0
8.495,1,3,5,2,1,0,2,1
8.5,0,2,1,2,2,0,2,1
8.505,3,2,7,2,3,0,1,1
8.51,0,1,4,0,1,2,0,2
8.515,2,2,16,0,0,3,1,0
8.52,2,8,18,2,2,3,3,2
8.525,1,2,7,2,1,2,2,2
8.53,0,1,5,0,0,1,1,0
8.535,1,3,1,0,2,2,1,1
8.54,1,2,3,0,1,1,1,2
8.545,1,4,10,0,1,2,2,1
8.55,0,0,1,0,1,1,1,3
8.555,1,4,7,2,4,1,1,1
8.56,0,4,11,1,0,1,1,0
8.565,3,1,5,2,1,1,1,1
8.57,3,8,3,1,1,2,1,0
8.575,2,1,3,1,4,2,0,1
8.58,0,2,1,1,1,0,0,3
8.585,0,6,3,2,1,3,1,1
8.59,1,2,11,1,3,2,0,1
8.595,1,3,5,0,1,1,2,1
8.6,0,3,8,1,2,1,0,0
8.605,4,4,18,1,5,0,1,3
8.61,1,0,8,1,1,2,1,1
8.615,0,1,9,1,1,0,1,1
8.62,2,2,7,1,2,0,0,2
8.625,2,1,1,2,2,0,1,1
8.63,2,4,7,1,2,1,0,3
8.635,2,12,3,2,2,2,3,2
8.64,0,6,23,2,2,2,4,1
8.645,2,3,25,6,2,3,2,1
8.65,1,17,14,3,1,0,0,0
8.655,0,4,75,10,2,2,2,1
8.66,4,24,47,1,1,10,1,1
8.665,10,40,12,5,2,10,0,6
8.67,5,13,24,0,3,7,5,3
8.675,8,17,39,4,0,11,7,3
8.68,2,5,34,7,5,3,1,4
8.685,0,6,2,1,2,2,0,2
8.69,4,9,28,5,1,3,3,0
8.695,4,0,17,0,2,3,1,0
8.7,4,1,53,5,1,9,7,1
8.705,4,13,68,21,0,3,2,1
8.71,5,16,9,19,6,3,1,1
8.715,1,14,46,20,6,7,5,1
8.72,10,20,6,1,2,4,8,7
8.725,10,44,124,19,1,2,1,2
8.73,2,30,66,15,2,3,1,1
8.735,11,29,85,7,4,9,7,4
8.74,18,89,108,29,3,11,7,8
8.745,12,76,116,9,5,11,8,5
8.75,3,28,93,19,0,2,3,0
8.755,27,61,120,17,8,18,15,9
8.76,47,128,5,38,14,25,17,16
8.765,16,57,90,3,1,0,4,5
8.77,8,5,76,17,7,2,0,1
8.775,15,9,26,3,14,6,8,5
8.78,14,42,64,10,9,8,3,1
8.785,14,58,27,3,7,15,8,2
8.79,5,12,93,8,7,2,5,7
8.795,16,43,84,33,3,10,3,9
8.8,11,62,64,11,7,11,4,4
8.805,1,2,52,10,6,7,7,6
8.81,6,8,114,16,12,1,2,5
8.815,14,55,127,17,19,21,13,6
8.82,26,116,128,61,32,31,20,11
8.825,8,41,127,14,11,12,10,4
8.83,2,32,80,29,5,13,3,3
8.835,9,17,9,2,9,2,1,3
8.84,18,57,83,35,12,21,16,7
8.845,22,78,19,13,7,12,10,1
8.85,5,15,47,10,4,9,4,0
8.855,5,20,23,10,2,12,7,6
8.86,2,8,105,31,5,2,2,0
8.865,9,2,30,3,2,6,2,4
8.87,7,24,88,36,2,6,5,11
8.875,4,6,22,1,5,7,16,4
8.88,1,12,62,10,5,9,16,19
8.885,5,7,38,5,6,9,5,33
8.89,3,10,4,1,0,11,7,8
8.895,7,8,32,8,3,1,12,4
8.9,2,11,100,10,5,27,13,5
8.905,3,28,46,0,6,14,9,5
8.91,9,30,25,4,4,4,0,1
8.915,11,29,3,2,7,15,6,1
8.92,4,26,2,6,7,2,1,9
8.925,2,6,34,3,1,12,1,8
8.93,5,6,37,12,3,12,3,14
8.935,5,7,18,2,6,4,2,7
8.94,9,16,64,1,9,11,3,8
8.945,5,13,19,1,8,8,4,9
8.95,1,5,71,17,1,5,1,4
8.955,0,3,9,0,0,4,0,1
8.96,1,14,56,2,3,3,2,5
8.965,1,12,68,10,6,2,2,6
8.97,2,5,19,0,3,0,1,2
8.975,5,20,11,3,4,1,1,1
8.98,5,24,42,4,0,1,3,6
8.985,2,11,31,4,1,2,2,4
8.99,4,10,24,1,4,3,0,0
8.995,0,1,12,6,4,1,0,2
9,3,2,24,2,4,5,2,7
9.005,2,1,16,2,1,3,1,1
9.01,2,5,6,0,3,2,0,0
9.015,4,4,25,7,5,3,4,0
9.02,0,2,4,2,6,2,2,3
9.025,1,3,23,5,0,0,2,4
9.03,4,2,18,1,2,1,2,1
9.035,0,4,28,1,1,0,2,0
9.04,0,4,10,2,5,2,1,3
9.045,1,4,52,5,1,1,1,0
9.05,0,8,10,1,3,5,2,1
9.055,4,3,3,6,2,0,1,1
9.06,0,4,27,9,1,3,0,3
9.065,3,0,24,7,0,1,1,2
9.07,2,2,10,8,2,0,0,1
9.075,2,7,2,9,1,2,1,1
9.08,1,2,15,2,1,1,1,3
9.085,0,1,17,7,2,4,2,1
9.09,3,4,11,1,1,3,0,1
9.095,2,1,3,6,5,3,2,1
9.1,1,1,10,3,1,0,0,1
9.105,2,0,8,2,1,0,1,1
9.11,2,4,19,0,1,1,1,0
9.115,0,6,21,1,1,4,3,2
9.12,1,3,22,1,2,2,4,2
9.125,3,9,11,5,0,1,1,0
9.13,1,0,5,1,0,1,0,1
9.135,1,4,1,3,3,0,1,1
9.14,1,0,7,1,2,1,2,3
9.145,2,5,4,0,3,0,1,1
9.15,1,2,17,2,0,1,3,1
9.155,1,2,12,3,3,2,2,1
9.16,2,3,2,0,2,2,1,1
9.165,0,5,2,0,4,1,1,0
9.17,3,10,3,0,0,0,0,2
9.175,2,3,11,2,2,2,1,1
9.18,3,5,12,1,2,2,2,3
9.185,1,5,8,1,0,1,0,0
9.19,4,3,2,0,1,2,2,0
9.195,2,4,11,0,0,3,1,4
9.2,2,2,8,3,1,3,4,0
9.205,1,2,12,5,0,2,2,1
9.21,2,3,25,2,1,3,1,2
9.215,4,6,21,6,2,3,1,1
9.22,1,5,27,2,1,1,0,1
9.225,1,3,31,2,2,1,1,2
9.23,0,0,5,2,4,2,1,1
9.235,2,3,22,1,2,2,2,3
9.24,3,5,49,2,1,1,0,2
9.245,4,12,10,3,1,3,1,2
9.25,0,1,5,2,4,0,1,0
9.255,1,1,15,4,1,0,0,2
9.26,1,2,8,5,2,0,0,0
9.265,1,1,1,0,1,1,1,0
9.27,2,1,4,0,0,1,1,2
9.275,2,3,1,3,1,2,2,0
9.28,3,5,21,2,1,2,1,2
9.285,1,3,14,2,2,1,2,1
9.29,1,2,1,1,2,1,2,2
9.295,2,0,4,4,2,4,1,1
9.3,1,4,4,1,0,3,1,0
9.305,1,1,20,1,3,3,3,2
9.31,0,3,1,1,0,2,1,1
9.315,3,7,5,2,0,4,3,1
9.32,0,1,8,1,1,3,1,1
9.325,1,3,11,2,1,2,2,1
9.33,1,3,2,6,4,3,2,2
9.335,1,4,13,0,0,0,1,0
9.34,0,2,12,2,2,3,1,0
9.345,2,3,16,1,1,2,2,2
9.35,3,5,15,3,1,2,0,1
9.355,2,3,4,1,0,2,1,1
9.36,0,5,7,3,1,3,1,2
9.365,1,4,2,2,3,2,0,1
9.37,1,4,0,0,0,2,3,3
9.375,0,1,3,3,1,1,1,1
9.38,2,0,4,0,3,0,1,0
9.385,2,1,17,0,3,1,1,2
9.39,0,2,1,2,3,1,2,0
9.395,3,2,5,1,2,2,1,1
9.4,0,4,10,0,1,1,2,1
9.405,2,2,5,3,3,1,0,1
9.41,1,2,10,1,2,2,1,0
9.415,1,6,5,1,2,2,3,2
9.42,2,1,24,4,2,1,3,3
9.425,2,2,3,2,3,0,1,2
9.43,2,4,1,1,1,1,1,1
9.435,1,1,0,1,1,1,2,0
9.44,0,3,10,2,1,2,2,1
9.445,2,4,16,3,4,1,2,1
9.45,0,0,4,0,1,2,0,2
9.455,1,0,1,3,3,0,0,1
9.46,1,1,6,0,3,0,2,1
9.465,0,1,1,1,1,1,1,1
9.47,3,2,3,1,1,2,2,0
9.475,0,3,17,2,1,2,1,1
9.48,3,5,19,0,1,0,0,1
9.485,4,4,5,3,6,6,1,4
9.49,0,4,0,4,2,2,2,1
9.495,1,0,2,1,2,2,1,1
9.5,3,7,11,3,2,3,2,2
9.505,0,3,14,2,2,0,1,0
9.51,2,2,5,2,3,3,0,1
9.515,2,2,6,2,1,2,1,0
9.52,0,4,3,0,1,2,1,0
9.525,1,1,7,0,1,0,1,2
9.53,3,4,12,1,0,3,2,3
9.535,1,4,7,0,2,3,0,0
9.54,1,3,10,3,1,0,2,1
9.545,0,0,15,4,2,2,1,0
9.55,3,5,8,0,1,2,2,1
9.555,1,1,2,2,0,4,3,2
9.56,1,4,11,3,1,2,1,1
9.565,0,0,5,2,3,2,1,2
9.57,1,2,2,5,3,2,0,1
9.575,2,4,4,1,3,1,1,2
9.58,2,0,3,0,4,3,3,2
9.585,0,0,5,0,1,0,0,3
9.59,1,0,2,1,2,2,1,1
9.595,1,1,2,1,0,0,1,0
9.6,0,0,4,2,4,0,3,1
9.605,1,1,13,2,0,1,1,1
9.61,2,1,5,4,0,1,0,1
9.615,1,1,7,0,1,1,3,0
9.62,3,4,6,2,2,3,1,2
9.625,0,1,6,3,3,0,0,0
9.63,0,1,4,0,0,1,0,2
9.635,0,2,5,2,2,3,1,1
9.64,2,0,17,1,2,1,1,2
9.645,0,1,8,0,2,2,2,0
9.65,1,2,6,2,1,2,1,2
9.655,1,2,1,3,1,1,1,1
9.66,1,0,19,1,0,2,1,2
9.665,1,1,11,1,1,0,1,1
9.67,1,1,2,3,5,3,3,2
9.675,3,4,0,4,1,2,1,1
9.68,3,3,14,2,0,3,2,0
9.685,2,1,2,0,1,0,1,3
9.69,1,1,3,0,0,1,0,1
9.695,0,3,6,2,1,2,1,1
9.7,2,1,12,0,1,2,0,0
9.705,1,3,3,1,2,2,2,2
9.71,1,3,5,4,0,1,3,2
9.715,0,4,7,4,2,2,0,3
9.72,1,6,4,0,0,2,1,2
9.725,1,1,0,3,1,1,1,0
9.73,1,3,11,5,5,3,1,2
9.735,1,0,14,3,0,1,2,1
9.74,1,3,5,1,3,1,1,1
9.745,2,7,15,4,2,0,1,1
9.75,1,1,0,1,0,2,2,1
9.755,0,2,8,2,2,0,3,0
9.76,0,0,6,0,2,1,3,3
9.765,0,3,4,1,0,1,1,1
9.77,2,1,3,3,0,2,0,1
9.775,1,2,2,2,1,3,0,2
9.78,2,1,13,5,2,4,1,0
9.785,2,2,9,1,4,2,3,1
9.79,1,2,0,2,3,2,1,2
9.795,2,0,6,3,1,2,1,1
9.8,3,0,10,2,0,1,2,1
9.805,3,2,39,5,1,5,1,0
9.81,0,1,13,1,1,2,1,0
9.815,1,2,14,2,2,1,3,1
9.82,0,4,20,2,0,3,1,3
9.825,3,0,11,1,2,2,2,1
9.83,1,1,2,1,0,1,0,1
9.835,4,4,9,3,3,0,1,2
9.84,0,1,12,1,0,0,0,1
9.845,1,0,22,1,2,0,1,1
9.85,1,2,18,6,0,1,3,1
9.855,1,4,9,1,4,3,0,1
9.86,4,0,9,1,1,2,1,1
9.865,0,4,0,3,3,1,1,1
9.87,0,0,1,3,1,0,1,1
9.875,1,2,5,2,1,1,2,2
9.88,1,3,3,2,2,3,1,1
9.885,2,3,7,1,0,1,1,1
9.89,3,3,2,1,1,3,3,2
9.895,1,2,3,1,1,0,0,1
9.9,0,5,9,4,1,2,2,1
9.905,2,1,6,1,0,0,2,1
9.91,1,1,1,1,2,1,2,0
9.915,1,2,4,0,1,2,1,1
9.92,3,1,12,5,4,2,2,2
9.925,0,1,16,2,3,1,1,0
9.93,0,2,10,3,3,1,2,1
9.935,2,2,16,3,0,0,1,2
9.94,2,1,17,2,2,5,1,1
9.945,2,0,1,1,2,0,2,0
9.95,2,2,7,2,2,2,2,0
9.955,0,6,15,1,2,0,1,2
9.96,2,5,20,3,2,1,1,2
9.965,2,1,6,1,2,2,1,1
9.97,0,1,5,2,1,1,0,2
9.975,1,3,3,1,0,4,2,1
9.98,0,2,10,0,0,1,1,4
9.985,2,5,13,3,1,1,3,0
9.99,0,2,0,0,1,2,1,0
9.995,1,4,1,1,2,0,1,2
10,1,0,2,1,3,3,0,2
10.005,3,4,9,0,0,3,0,3
10.01,1,1,30,4,1,1,1,3
10.015,3,6,4,0,2,1,1,1
10.02,1,1,20,1,0,0,1,1
10.025,0,3,9,2,1,3,2,1
10.03,0,3,3,3,1,2,0,1
10.035,0,1,18,7,2,0,1,1
10.04,1,1,2,3,2,3,2,3
10.045,2,2,1,1,2,1,2,1
10.05,3,6,7,6,2,1,3,2
10.055,0,5,12,2,2,1,2,1
10.06,1,3,8,2,1,1,1,0
10.065,3,2,5,1,2,1,0,1
10.07,2,2,5,2,2,2,0,2
10.075,1,3,10,1,0,1,2,0
10.08,3,3,12,8,1,1,1,0
10.085,0,2,14,4,2,3,0,2
10.09,0,2,1,5,1,1,1,1
10.095,3,5,0,3,4,3,3,3
10.1,1,1,3,3,2,1,2,3
10.105,1,5,12,0,2,0,0,2
10.11,2,1,14,0,1,1,1,3
10.115,1,2,9,1,0,2,2,1
10.12,2,1,10,2,1,3,1,0
10.125,0,3,3,3,2,2,1,2
10.13,2,5,0,1,1,1,1,1
10.135,1,0,3,3,1,1,1,2
10.14,2,1,4,1,1,1,3,2
10.145,1,1,12,3,2,1,1,2
10.15,0,5,5,5,2,2,1,1
10.155,2,3,2,0,2,3,1,0
10.16,0,3,16,1,2,2,0,1
10.165,2,2,12,2,1,1,1,2
10.17,3,2,13,1,1,0,1,1
10.175,2,5,5,3,1,1,1,2
10.18,2,1,10,1,3,1,1,1
10.185,4,0,5,1,2,3,2,1
10.19,1,4,4,1,0,0,1,0
10.195,1,2,2,1,0,0,1,1
10.2,3,1,7,1,3,1,1,2
10.205,0,1,11,2,2,3,2,1
10.21,1,4,10,4,1,2,2,1
10.215,0,0,1,1,0,0,3,0
10.22,1,1,4,0,1,0,0,1
10.225,0,3,8,1,1,1,4,0
10.23,3,0,6,2,4,2,2,1
10.235,1,2,12,2,1,2,1,1
10.24,1,1,23,2,1,0,1,2
10.245,4,4,2,0,1,1,1,2
10.25,1,6,15,1,0,2,1,0
10.255,0,1,3,5,1,4,2,1
10.26,2,4,7,3,2,1,1,2
10.265,2,2,9,1,1,1,1,0
10.27,3,1,11,0,2,2,1,0
10.275,2,2,24,2,2,1,0,0
10.28,0,0,4,4,2,2,2,1
10.285,0,2,3,2,4,3,0,1
10.29,1,4,5,2,1,3,1,2
10.295,2,1,1,0,1,1,2,0
10.3,2,1,1,1,0,1,1,0
10.305,3,3,18,0,2,0,2,3
10.31,3,1,5,2,1,1,0,0
10.315,1,4,15,3,0,2,0,2
10.32,1,0,15,0,1,1,3,1
10.325,2,1,1,2,2,2,2,1
10.33,0,2,13,2,2,1,2,0
10.335,0,1,9,2,2,1,1,0
10.34,2,2,2,0,1,2,0,1
10.345,1,2,3,1,0,1,0,1
10.35,2,5,3,2,2,1,1,0
10.355,1,1,5,2,2,2,2,1
10.36,2,2,12,1,3,1,0,1
10.365,2,1,9,0,3,0,0,1
10.37,0,0,5,1,0,0,1,1
10.375,0,1,5,1,1,1,2,1
10.38,0,1,4,4,0,2,1,0
10.385,3,5,3,1,1,1,2,2
10.39,1,1,1,1,1,1,1,1
10.395,1,1,0,3,2,2,0,2
10.4,2,3,8,5,0,3,2,0
10.405,0,0,3,1,2,2,0,2
10.41,0,2,28,4,1,0,1,0
10.415,2,1,28,1,1,0,2,3
10.42,0,5,10,4,2,1,3,2
10.425,0,1,5,3,1,2,1,0
10.43,1,0,8,1,2,4,1,0
10.435,3,2,10,0,3,2,3,3
10.44,1,0,9,2,2,2,2,2
10.445,3,4,9,1,2,1,0,2
10.45,0,0,12,4,1,0,1,3
10.455,2,0,7,5,0,0,0,2
10.46,1,0,5,2,1,2,1,3
10.465,1,1,4,0,2,4,2,1
10.47,0,3,1,1,0,2,3,0
10.475,0,7,6,4,2,1,1,1
10.48,1,4,8,2,2,1,1,1
10.485,2,2,5,1,2,0,2,0
10.49,1,2,9,2,0,0,0,0
10.495,1,0,10,3,0,4,2,0
10.5,4,6,4,2,0,0,1,1
10.505,1,3,5,0,0,1,1,0
10.51,2,7,16,6,3,3,1,1
10.515,0,2,6,0,1,1,1,1
10.52,2,2,1,3,2,1,0,0
10.525,0,3,12,2,1,3,3,2
10.53,1,1,13,1,3,1,0,1
10.535,1,1,8,1,1,2,1,2
10.54,2,4,29,3,1,0,0,0
10.545,1,1,2,2,1,2,1,0
10.55,4,4,11,2,0,0,1,1
10.555,1,1,21,5,2,3,2,2
10.56,2,2,7,2,0,2,1,1
10.565,0,3,5,2,1,2,1,0
10.57,1,3,27,5,0,5,4,3
10.575,1,3,21,3,1,0,1,0
10.58,2,0,5,4,2,2,1,4
10.585,0,1,2,2,2,4,1,2
10.59,0,5,8,3,3,2,1,1
10.595,1,7,36,2,1,1,1,1
10.6,3,2,3,1,3,1,1,2
10.605,0,3,1,2,0,1,2,1
10.61,1,5,16,2,1,2,0,1
10.615,2,2,0,1,0,1,2,1
10.62,0,4,2,3,2,4,1,1
10.625,3,3,15,4,2,2,3,5
10.63,2,1,10,2,2,2,2,1
10.635,0,6,17,2,0,1,1,4
10.64,1,1,0,2,1,4,0,0
10.645,1,1,1,2,1,1,1,2
10.65,1,2,12,2,4,1,1,3
10.655,2,0,11,1,3,1,1,1
10.66,1,2,9,2,2,0,2,1
10.665,0,0,1,1,1,1,1,0
10.67,1,2,10,1,4,3,2,2
10.675,2,4,2,0,2,2,1,2
10.68,2,2,1,1,1,1,0,1
10.685,0,1,4,1,2,2,2,2
10.69,2,5,6,1,2,1,1,0
10.695,0,0,2,3,1,1,1,0
10.7,1,0,0,4,0,3,2,1
10.705,2,2,16,1,2,0,1,1
10.71,2,1,9,1,1,3,2,2
10.715,3,1,7,1,4,3,3,2
10.72,2,1,19,2,3,2,2,1
10.725,2,2,2,4,2,1,1,1
10.73,2,2,21,4,1,1,2,2
10.735,0,2,14,5,4,2,1,2
10.74,2,0,7,2,6,1,0,1
10.745,1,2,11,4,2,1,1,2
10.75,1,0,4,3,1,3,0,0
10.755,1,0,1,1,2,2,1,0
10.76,2,1,7,2,2,1,0,0
10.765,2,5,9,1,0,2,1,1
10.77,2,1,4,1,1,1,0,1
10.775,2,2,2,0,1,1,0,1
10.78,2,1,3,1,3,2,2,3
10.785,1,3,0,2,1,1,1,0
10.79,0,2,2,1,1,2,1,1
10.795,1,0,4,2,0,0,1,1
10.8,2,2,2,2,0,1,1,1
10.805,0,4,5,2,2,3,0,1
10.81,0,1,8,4,1,1,1,2
10.815,2,4,4,1,2,3,3,2
10.82,2,2,8,2,0,1,3,0
10.825,2,3,1,2,3,2,1,0
10.83,4,8,11,0,2,1,2,1
10.835,1,1,5,2,3,2,2,1
10.84,0,2,2,4,0,1,1,1
10.845,2,0,0,1,3,1,2,2
10.85,1,2,26,1,1,1,1,2
10.855,1,1,6,2,1,3,1,4
10.86,2,2,1,3,2,1,1,1
10.865,1,0,1,0,0,3,2,2
10.87,1,1,11,7,0,0,1,0
10.875,1,5,6,2,0,2,2,1
10.88,1,1,2,2,2,1,1,1
10.885,1,2,1,2,1,0,2,0
10.89,2,4,19,2,2,0,1,1
10.895,4,4,14,2,0,3,0,2
10.9,3,1,6,0,2,2,0,0
10.905,1,0,5,2,3,1,1,0
10.91,3,5,6,2,0,0,2,3
10.915,0,2,1,1,0,2,1,0
10.92,1,0,16,1,0,2,1,1
10.925,1,2,6,1,0,2,0,0
10.93,0,3,12,0,0,1,1,1
10.935,2,1,18,1,0,3,2,0
10.94,3,3,4,0,1,1,2,2
10.945,2,1,3,2,1,2,0,1
10.95,1,1,5,2,4,1,0,1
10.955,0,2,2,1,0,2,0,3
10.96,0,3,5,0,2,0,1,2
10.965,2,4,1,3,0,0,1,1
10.97,1,1,5,3,2,0,2,1
10.975,2,1,26,2,5,1,2,1
10.98,0,5,22,7,2,3,2,1
10.985,3,4,2,1,2,1,1,2
10.99,0,3,3,4,0,0,0,1
10.995,2,4,10,1,5,2,4,1
11,0,0,11,0,2,1,1,3
11.005,1,0,14,3,1,0,1,0
11.01,2,1,5,3,2,1,1,1
11.015,1,3,2,4,2,1,1,1
11.02,0,2,6,1,5,1,2,2
11.025,1,2,5,0,0,2,1,3
11.03,1,0,7,1,0,0,3,0
11.035,2,1,1,2,1,0,1,1
11.04,2,0,6,2,1,2,0,1
11.045,1,1,6,0,1,1,3,0
11.05,1,0,4,3,1,3,3,1
11.055,0,2,2,3,2,1,1,2
11.06,1,0,2,1,2,1,0,1
11.065,1,4,4,4,1,2,1,1
11.07,1,3,2,1,3,0,0,2
11.075,0,3,0,4,3,2,0,0
11.08,1,7,30,2,1,1,0,1
11.085,0,6,13,1,1,2,3,0
11.09,2,5,4,3,2,3,1,2
11.095,0,3,4,1,1,1,0,1
11.1,2,3,3,1,1,1,0,1
11.105,0,2,3,0,2,4,1,1
11.11,2,2,4,2,2,4,3,1
11.115,1,1,7,1,1,4,3,0
11.12,1,2,4,2,0,1,2,2
11.125,1,2,3,3,1,0,1,0
11.13,2,1,17,2,2,3,1,2
11.135,1,3,14,2,1,1,3,1
11.14,1,2,8,3,0,2,2,1
11.145,2,1,2,1,0,2,1,2
11.15,2,4,8,3,4,1,0,0
11.155,0,0,3,4,1,2,1,1
11.16,1,2,4,2,1,0,1,0
11.165,3,0,8,3,0,3,2,1
11.17,0,1,4,0,2,2,0,1
11.175,1,2,5,1,1,0,3,2
11.18,1,2,6,4,1,1,1,2
11.185,1,1,21,5,2,2,0,1
11.19,3,3,15,5,3,1,1,1
11.195,0,3,25,4,3,0,2,2
11.2,1,3,13,0,1,2,1,2
11.205,1,1,2,1,1,2,1,1
11.21,1,1,1,0,1,0,3,1
11.215,3,2,10,2,3,2,1,1
11.22,3,1,0,1,1,2,1,1
11.225,0,0,11,2,1,1,0,1
11.23,1,1,0,1,1,1,1,1
11.235,2,1,13,5,0,2,2,2
11.24,1,1,10,3,2,1,2,1
11.245,2,2,7,2,0,2,2,1
11.25,3,0,5,0,1,2,1,1
11.255,2,0,3,1,3,1,1,0
11.26,0,2,2,1,4,2,0,0
11.265,2,1,3,3,3,0,0,1
11.27,2,4,14,2,1,1,1,0
11.275,2,0,2,1,2,2,0,2
11.28,3,3,2,3,2,1,2,5
11.285,1,4,1,3,1,2,1,2
11.29,0,3,2,1,0,0,3,1
11.295,1,0,7,2,1,1,0,2
11.3,3,2,0,2,1,0,3,2
11.305,1,4,0,0,1,4,2,2
11.31,0,1,6,0,3,1,2,2
11.315,1,2,8,1,4,2,2,1
11.32,0,1,6,0,2,1,1,2
11.325,1,0,1,4,1,1,1,2
11.33,1,0,3,1,1,0,1,1
11.335,2,1,3,0,4,3,1,2
11.34,0,1,0,1,2,3,2,1
11.345,5,5,5,1,2,2,2,1
11.35,1,8,37,6,3,2,1,2
11.355,0,2,31,0,1,0,1,4
11.36,1,5,11,4,2,4,2,3
11.365,0,2,1,0,1,0,1,0
11.37,2,4,20,3,0,1,1,1
11.375,4,10,29,4,3,2,1,3
11.38,1,0,3,1,4,2,3,0
11.385,0,1,4,0,1,3,0,0
11.39,3,2,3,2,1,0,1,1
11.395,0,0,8,0,2,2,2,1
11.4,1,1,2,1,1,2,3,1
11.405,1,2,3,1,2,1,3,1
11.41,2,2,0,0,1,1,0,0
11.415,1,0,1,1,1,3,1,2
11.42,0,3,5,3,2,0,3,0
11.425,0,2,10,0,3,0,1,1
11.43,1,0,3,2,1,2,1,0
11.435,1,1,15,4,1,2,0,2
11.44,2,2,3,1,2,0,1,0
11.445,1,0,5,0,1,0,1,1
11.45,1,2,2,2,5,3,2,1
11.455,0,2,5,1,2,2,1,1
11.46,3,2,3,4,2,3,2,2
11.465,0,0,2,0,3,2,0,1
11.47,1,5,9,4,2,2,2,3
11.475,2,2,5,0,1,0,0,0
11.48,2,2,3,4,1,2,2,0
11.485,2,1,5,2,1,3,0,3
11.49,1,1,2,0,0,4,1,1
11.495,1,0,15,4,2,1,0,1
11.5,0,3,1,1,2,1,1,1
11.505,3,2,4,5,0,3,0,0
11.51,1,1,8,1,0,1,0,1
11.515,1,1,5,1,5,0,1,1
11.52,0,3,8,0,1,1,1,1
11.525,2,1,3,3,0,2,1,2
11.53,1,1,0,2,1,1,1,0
11.535,1,2,1,1,1,2,1,2
11.54,1,2,2,1,2,1,0,3
11.545,2,4,3,1,3,1,0,1
11.55,2,3,38,2,0,2,2,2
11.555,2,3,22,3,1,2,3,4
11.56,2,2,4,1,3,3,1,2
11.565,3,2,8,3,2,2,1,0
11.57,2,1,13,1,2,2,1,0
11.575,1,3,14,0,2,2,1,0
11.58,1,1,6,0,2,1,0,3
11.585,0,0,0,1,0,0,5,2
11.59,1,1,3,1,1,0,1,0
11.595,1,0,3,1,4,1,3,1
11.6,1,1,6,0,1,0,1,5
11.605,0,2,8,3,4,3,0,1
11.61,0,1,6,3,0,0,0,1
11.615,1,1,1,3,1,2,1,0
11.62,1,1,3,2,0,0,2,0
11.625,0,0,5,1,1,1,2,2
11.63,1,1,3,1,3,0,4,2
11.635,1,0,1,4,0,2,1,0
11.64,2,5,17,4,2,3,1,1
11.645,0,0,4,1,2,0,1,2
11.65,3,0,6,0,2,1,0,1
11.655,1,4,1,1,3,1,1,2
11.66,1,5,14,1,0,2,2,1
11.665,1,4,11,2,1,2,0,2
11.67,0,0,1,0,2,1,2,1
11.675,2,3,4,1,2,0,1,1
11.68,2,6,7,7,0,1,2,1
11.685,0,0,7,5,1,2,3,2
11.69,0,2,4,5,1,3,2,2
11.695,1,4,1,1,2,2,0,2
11.7,0,2,6,1,3,1,1,2
11.705,0,3,4,0,1,0,1,1
11.71,1,2,14,2,1,1,1,0
11.715,3,2,11,1,2,1,0,1
11.72,2,3,1,1,1,1,2,1
11.725,1,0,0,2,1,0,1,0
11.73,0,1,12,1,2,4,2,0
11.735,1,1,7,1,2,1,1,1
11.74,0,1,0,2,0,1,2,1
11.745,1,1,2,3,1,2,2,1
11.75,1,2,21,0,1,1,0,1
11.755,1,0,7,3,1,0,2,2
11.76,1,0,0,2,4,2,1,2
11.765,1,0,1,1,1,3,2,2
11.77,1,4,3,3,4,3,3,2
11.775,2,4,3,0,1,1,1,2
11.78,2,1,4,3,1,1,1,1
11.785,0,0,7,0,0,0,0,1
11.79,1,1,16,2,1,1,0,1
11.795,1,1,5,1,2,2,2,1
11.8,2,1,8,1,1,2,0,4
11.805,4,2,9,0,1,1,2,0
11.81,1,1,25,1,1,0,1,1
11.815,0,2,14,3,1,4,1,1
11.82,2,4,1,1,1,2,1,0
11.825,1,2,6,0,1,1,1,1
11.83,2,2,5,4,1,1,2,0
11.835,1,1,1,3,2,1,1,1
11.84,1,1,1,1,3,3,1,1
11.845,1,3,3,1,0,2,4,0
11.85,3,1,3,1,2,1,1,1
11.855,0,3,10,3,3,1,2,0
11.86,0,1,1,1,0,1,1,1
11.865,0,2,4,2,0,1,1,1
11.87,3,2,16,2,1,3,1,1
11.875,2,3,11,1,3,2,3,0
11.88,0,1,8,0,2,3,0,2
11.885,4,2,1,6,1,1,0,1
11.89,1,2,19,2,0,0,0,1
11.895,0,1,4,2,2,4,1,2
11.9,1,4,4,0,2,1,2,2
11.905,1,1,0,0,1,0,0,0
11.91,1,1,11,2,2,0,0,0
11.915,0,1,1,3,1,1,1,1
11.92,1,2,16,2,2,3,1,1
11.925,1,1,14,2,4,1,2,0
11.93,2,1,6,1,2,0,3,2
11.935,0,0,20,0,2,1,5,1
11.94,2,2,5,1,3,0,0,2
11.945,4,2,15,7,1,2,1,1
11.95,2,1,1,3,1,0,1,0
11.955,3,1,8,1,2,2,0,4
11.96,0,5,11,5,0,0,1,0
11.965,1,3,4,0,0,1,0,3
11.97,2,1,10,3,3,4,2,1
11.975,2,3,3,5,0,1,0,2
11.98,2,2,2,0,3,1,0,1
11.985,1,4,3,0,1,2,0,1
11.99,0,0,8,0,2,2,0,0
11.995,0,1,34,6,3,0,2,1
12,3,2,8,2,1,1,2,1
12.005,1,2,13,5,0,1,1,2
12.01,3,3,17,2,2,1,1,2
12.015,1,1,7,0,1,3,1,3
12.02,0,0,9,2,2,0,1,0
12.025,0,1,9,0,3,0,1,2
12.03,1,0,7,3,1,1,1,2
12.035,1,1,12,3,0,1,1,0
12.04,1,1,22,3,0,4,0,1
12.045,1,1,10,2,0,2,1,1
12.05,1,5,1,1,2,0,1,2
12.055,1,1,1,1,3,1,1,2
12.06,1,0,3,2,1,2,1,4
12.065,2,4,16,4,1,0,1,0
12.07,1,0,1,0,0,2,0,1
12.075,1,1,6,1,1,1,1,1
12.08,0,2,11,0,1,0,2,1
12.085,2,1,4,0,1,1,2,2
12.09,3,3,3,3,1,2,1,2
12.095,0,1,3,1,1,4,0,1
12.1,0,3,8,6,1,0,0,1
12.105,2,3,10,3,3,3,1,2
12.11,0,2,7,0,1,4,0,2
12.115,1,2,4,3,3,3,2,1
12.12,2,0,4,5,1,1,2,2
12.125,2,1,1,2,4,0,1,1
12.13,0,1,2,3,1,1,3,1
12.135,2,1,16,3,2,2,0,2
12.14,4,4,2,1,0,0,0,1
12.145,2,2,0,0,1,1,1,1
12.15,1,3,3,1,0,1,0,0
12.155,0,0,6,2,3,1,2,0
12.16,2,2,8,0,2,0,1,1
12.165,0,2,2,1,1,2,2,1
12.17,2,1,2,1,2,1,0,1
12.175,3,0,6,3,2,4,2,2
12.18,1,1,5,1,3,2,0,2
12.185,1,3,5,3,1,1,0,1
12.19,3,0,1,0,3,5,1,0
12.195,0,0,2,1,4,3,1,0
12.2,1,0,4,2,3,0,1,2
12.205,3,4,2,5,6,3,1,1
12.21,1,1,3,2,0,3,1,1
12.215,2,1,1,0,2,3,1,1
12.22,0,2,1,1,2,3,2,1
12.225,3,1,4,3,3,1,0,1
12.23,1,2,3,1,2,1,1,2
12.235,0,4,4,1,1,1,1,0
12.24,1,0,8,3,1,2,1,0
12.245,1,3,3,0,0,2,1,1
12.25,1,4,3,3,3,2,2,0
12.255,2,3,3,3,2,0,0,1
12.26,1,4,4,2,2,2,3,0
12.265,1,3,12,0,1,1,3,1
12.27,2,3,9,4,1,1,0,3
12.275,2,3,17,6,1,1,0,1
12.28,1,1,2,4,2,1,0,1
12.285,3,1,7,0,0,0,1,0
12.29,0,2,13,0,1,0,2,2
12.295,2,3,4,2,4,2,2,1
12.3,3,0,7,1,3,1,1,3
12.305,0,2,9,1,1,2,1,1
12.31,2,0,6,1,2,3,2,0
12.315,0,1,0,1,1,2,2,3
12.32,0,2,0,2,1,0,2,0
12.325,2,1,19,4,0,1,2,1
12.33,3,4,11,2,1,0,1,1
12.335,1,1,10,1,4,2,2,1
12.34,1,1,12,2,2,3,0,2
12.345,1,0,10,4,3,2,1,2
12.35,1,3,2,1,2,1,1,1
12.355,2,0,9,0,2,2,0,1
12.36,0,3,11,2,2,1,0,1
12.365,2,3,1,1,1,1,1,1
12.37,0,2,7,0,3,2,2,2
12.375,0,0,16,1,2,1,2,2
12.38,3,0,4,1,0,1,0,1
12.385,2,1,8,2,1,1,1,0
12.39,3,4,26,3,0,2,2,2
12.395,0,0,6,0,1,4,4,2
12.4,0,1,14,1,0,1,1,1
12.405,0,0,5,1,0,2,2,2
12.41,1,1,1,1,1,0,1,1
12.415,2,3,3,4,4,2,0,2
12.42,1,1,10,0,2,4,1,1
12.425,1,3,18,1,4,1,2,1
12.43,0,1,24,0,2,2,0,0
12.435,1,5,11,0,2,2,1,0
12.44,1,1,5,1,1,1,0,1
12.445,0,1,2,2,1,4,1,0
12.45,2,3,5,0,0,1,0,1
12.455,1,0,6,2,2,1,2,2
12.46,2,2,11,0,2,4,3,2
12.465,0,0,1,4,0,0,1,2
12.47,1,3,2,2,0,3,1,3
12.475,2,2,6,1,1,1,1,1
12.48,0,2,1,3,1,1,0,1
12.485,2,2,3,0,4,2,1,0
12.49,0,4,4,2,2,2,2,0
12.495,2,1,2,4,3,1,1,1
12.5,2,1,1,1,1,2,0,2
12.505,0,4,13,3,1,1,2,0
12.51,1,1,13,0,1,1,1,0
12.515,1,1,8,4,2,2,1,1
12.52,0,2,2,0,2,3,2,0
12.525,0,2,4,2,2,1,1,2
12.53,0,3,7,1,3,1,2,1
12.535,0,5,1,2,1,2,1,0
12.54,1,4,6,3,0,1,2,3
12.545,0,2,22,3,1,2,2,2
12.55,5,4,12,3,1,0,1,2
12.555,0,1,5,2,2,2,1,0
12.56,0,1,2,1,1,0,0,2
12.565,2,4,1,4,1,11,1,0
12.57,1,1,0,2,0,9,4,1
12.575,4,3,5,1,1,0,2,2
12.58,1,0,16,0,2,2,2,2
12.585,0,0,17,3,1,0,3,0
12.59,1,0,0,2,1,6,2,1
12.595,2,4,5,1,2,1,1,2
12.6,2,1,3,0,2,4,3,1
12.605,1,1,2,0,2,1,1,1
12.61,2,0,10,1,1,4,1,1
12.615,1,2,19,0,1,0,1,2
12.62,1,0,5,5,1,1,1,1
12.625,1,2,3,1,4,1,2,4
12.63,1,2,3,2,2,0,2,2
12.635,1,2,2,2,0,0,1,2
12.64,1,2,12,3,4,3,2,1
12.645,1,0,6,0,1,1,1,2
12.65,1,3,10,1,1,5,2,0
12.655,1,2,4,4,3,4,3,3
12.66,1,1,3,2,0,3,0,1
12.665,3,8,4,3,5,2,2,2
12.67,1,1,5,0,2,3,1,2
12.675,1,2,20,1,0,1,1,1
12.68,1,2,37,3,2,2,0,2
12.685,2,1,3,1,0,1,1,2
12.69,1,2,4,2,1,1,0,2
12.695,3,6,12,2,3,2,2,0
12.7,0,1,7,1,1,7,3,1
12.705,1,1,2,0,0,6,1,2
12.71,1,3,4,1,1,5,2,1
12.715,1,2,0,4,1,0,2,0
12.72,3,2,11,1,4,0,4,2
12.725,1,1,8,1,1,4,0,1
12.73,1,3,11,1,1,2,1,2
12.735,1,1,7,0,2,0,1,2
12.74,2,2,1,2,5,1,0,1
12.745,3,1,7,1,0,2,1,3
12.75,2,2,16,6,2,0,1,1
12.755,1,0,3,1,3,4,3,0
12.76,2,0,8,1,3,2,1,1
12.765,3,2,3,4,3,2,2,1
12.77,0,1,2,3,1,0,0,0
12.775,2,2,7,0,2,2,3,4
12.78,0,1,4,1,1,0,1,1
12.785,2,2,9,1,0,1,2,1
12.79,1,2,2,1,3,0,1,2
12.795,1,3,7,1,1,2,2,1
12.8,1,0,12,1,1,1,1,2
12.805,1,2,10,0,1,2,2,1
12.81,1,0,1,0,1,0,5,1
12.815,1,2,0,0,2,3,1,1
12.82,1,3,11,5,3,11,4,3
12.825,1,2,2,3,2,10,2,1
12.83,1,1,2,4,0,5,3,2
12.835,1,0,3,0,1,1,3,3
12.84,1,0,10,0,3,1,1,1
12.845,1,2,7,2,1,6,3,1
12.85,0,3,26,2,3,1,2,1
12.855,1,1,2,2,1,3,0,2
12.86,1,0,0,0,2,0,2,2
12.865,0,1,14,1,2,2,2,2
12.87,3,0,18,6,4,0,0,0
12.875,0,1,0,3,1,3,1,0
12.88,2,2,0,1,2,1,1,2
12.885,1,1,8,3,2,2,0,1
12.89,4,2,1,2,1,1,1,1
12.895,0,0,1,1,4,1,3,1
12.9,1,2,9,1,0,3,2,1
12.905,1,1,3,2,2,2,1,0
12.91,0,0,0,2,1,3,1,0
12.915,0,1,3,1,3,3,4,2
12.92,2,2,3,0,1,3,1,1
12.925,0,1,3,2,4,11,1,3
12.93,1,1,0,3,0,1,2,1
12.935,1,2,11,1,1,1,1,2
12.94,1,3,1,3,1,4,2,1
12.945,1,2,1,1,1,5,4,1
12.95,1,0,9,1,1,1,0,2
12.955,1,2,19,5,1,1,1,1
12.96,1,0,5,0,1,2,0,3
12.965,1,1,8,2,3,1,2,1
12.97,2,2,3,0,3,2,0,1
12.975,1,1,7,0,1,4,2,2
12.98,2,5,9,1,2,3,1,2
12.985,1,0,4,2,2,0,3,2
12.99,1,2,9,2,1,3,3,1
12.995,0,1,7,3,1,1,0,1
13,2,0,1,1,3,8,3,3
13.005,2,2,0,4,0,11,2,2
13.01,4,4,0,0,1,3,3,1
13.015,0,4,11,3,3,4,4,1
13.02,3,0,8,1,2,1,1,1
13.025,2,2,2,2,1,10,4,1
13.03,2,1,0,2,3,2,2,1
13.035,3,5,9,5,1,0,0,1
13.04,0,1,4,0,1,2,4,0
13.045,1,0,2,2,2,5,0,0
13.05,2,3,1,2,1,1,1,1
13.055,2,0,4,0,1,2,2,1
13.06,0,0,1,0,1,1,1,1
13.065,2,4,8,0,4,5,2,3
13.07,1,1,13,4,2,1,2,1
13.075,2,1,6,1,1,2,3,1
13.08,3,2,3,0,2,2,0,1
13.085,1,0,3,1,0,3,0,2
13.09,2,3,0,1,4,1,0,1
13.095,3,2,7,4,0,2,3,2
13.1,3,1,5,2,1,5,0,1
13.105,0,0,5,2,3,9,3,2
13.11,1,0,4,5,1,3,2,1
13.115,3,1,4,3,2,0,4,1
13.12,0,3,5,0,2,3,3,0
13.125,0,0,4,1,1,4,1,1
13.13,1,0,1,1,1,0,0,0
13.135,2,1,0,0,3,3,1,2
13.14,1,2,15,5,4,1,5,0
13.145,1,2,16,1,1,6,4,3
13.15,1,3,6,3,0,2,2,1
13.155,2,4,2,2,1,6,1,1
13.16,2,3,1,2,1,0,2,4
13.165,1,0,0,0,2,1,1,2
13.17,1,0,1,1,4,1,0,3
13.175,1,4,3,4,1,3,2,2
13.18,1,1,1,0,4,6,3,0
13.185,3,1,3,6,4,17,4,0
13.19,0,1,5,1,3,16,8,0
13.195,1,2,7,1,2,4,8,2
13.2,1,1,1,1,1,1,1,2
13.205,1,1,2,0,1,1,0,0
13.21,1,1,1,4,1,5,3,1
13.215,1,5,8,1,1,2,0,0
13.22,2,1,4,0,1,4,2,0
13.225,0,1,3,4,3,4,4,0
13.23,3,2,2,2,2,2,3,3
13.235,1,1,12,5,4,2,1,0
13.24,0,0,14,1,3,4,0,2
13.245,3,1,18,1,1,3,2,2
13.25,2,2,2,2,3,1,0,2
13.255,0,0,7,1,0,0,1,0
13.26,1,3,3,3,2,3,2,1
13.265,1,0,1,0,2,1,2,3
13.27,2,2,2,1,3,6,6,2
13.275,2,3,6,0,1,6,5,0
13.28,1,1,4,1,5,10,1,1
13.285,3,1,6,2,1,1,0,1
13.29,0,2,2,4,2,8,4,0
13.295,2,1,2,3,3,4,3,0
13.3,1,2,0,3,0,1,1,1
13.305,3,1,4,2,4,2,5,1
13.31,1,2,6,1,3,1,2,0
13.315,1,0,6,1,0,0,1,3
13.32,2,2,3,0,0,5,3,0
13.325,2,3,2,1,3,0,0,2
13.33,3,3,2,4,1,2,4,1
13.335,0,3,9,3,4,4,3,2
13.34,0,1,16,4,1,2,3,2
13.345,2,2,4,1,1,2,1,1
13.35,1,0,9,2,1,2,1,3
13.355,2,3,3,2,3,3,2,1
13.36,1,2,4,2,1,2,0,1
13.365,1,1,1,4,0,3,2,0
13.37,2,1,4,1,2,1,2,1
13.375,1,3,2,0,1,6,3,1
13.38,2,0,4,3,2,10,0,3
13.385,1,0,0,3,3,6,4,1
13.39,0,0,10,1,2,5,1,0
13.395,1,1,3,1,1,0,1,2
13.4,1,2,4,2,2,5,3,2
13.405,0,3,11,2,1,1,2,1
13.41,1,1,4,1,3,4,1,2
13.415,2,1,8,2,0,3,0,1
13.42,1,1,5,1,1,6,2,2
13.425,1,1,3,0,1,3,1,1
13.43,0,1,2,0,0,3,1,2
13.435,1,0,3,1,1,0,1,1
13.44,1,2,1,3,1,3,1,3
13.445,1,1,11,0,1,2,3,1
13.45,4,3,10,0,0,0,0,0
13.455,2,2,4,3,1,1,2,0
13.46,2,2,0,0,2,4,3,1
13.465,1,2,4,1,0,2,2,1
13.47,2,3,1,2,0,1,2,3
13.475,2,5,5,1,0,3,9,3
13.48,1,0,4,4,3,0,4,1
13.485,0,2,13,1,1,1,1,1
13.49,1,0,0,1,0,0,3,1
13.495,1,2,9,2,0,0,2,2
13.5,2,3,4,4,0,3,3,0
13.505,1,1,6,1,2,7,3,1
13.51,2,1,3,1,3,6,1,1
13.515,1,2,6,2,0,2,1,1
13.52,2,1,4,3,3,2,2,0
13.525,2,0,5,1,1,0,2,2
13.53,1,0,3,1,1,5,4,2
13.535,0,2,2,3,1,2,2,1
13.54,0,0,2,1,1,1,1,4
13.545,1,1,2,5,0,3,1,2
13.55,1,0,2,0,1,3,2,2
13.555,1,1,4,1,2,1,3,1
13.56,0,1,0,1,3,3,2,0
13.565,0,1,4,0,1,2,1,0
13.57,1,0,4,4,1,1,2,0
13.575,0,2,3,2,2,3,1,2
13.58,1,0,5,4,2,1,2,1
13.585,1,1,3,2,2,1,0,1
13.59,2,5,6,3,2,1,0,1
13.595,0,1,5,4,0,2,1,0
13.6,0,1,4,5,2,3,2,2
13.605,2,2,5,1,1,1,2,2
13.61,1,1,3,1,0,0,1,0
13.615,2,1,3,3,2,1,2,2
13.62,2,5,5,1,2,2,1,1
13.625,3,1,0,4,4,2,0,1
13.63,1,1,0,2,0,2,1,1
13.635,0,1,6,5,2,0,1,0
13.64,1,2,2,2,1,1,0,1
13.645,1,1,4,1,1,2,4,1
13.65,1,1,0,1,3,1,2,3
13.655,2,1,5,1,2,4,0,0
13.66,0,2,12,5,1,0,0,0
13.665,1,3,4,2,0,3,3,1
13.67,0,1,5,0,0,6,2,1
13.675,0,2,10,3,3,2,2,1
13.68,1,1,1,3,1,2,2,2
13.685,1,4,1,1,2,5,4,1
13.69,1,2,4,5,4,1,0,2
13.695,0,1,5,3,3,7,3,2
13.7,3,3,2,1,0,3,0,1
13.705,0,0,2,1,0,1,3,0
13.71,1,1,3,1,2,4,2,2
13.715,2,1,1,3,2,0,0,1
13.72,0,0,5,3,1,2,0,1
13.725,1,0,0,2,1,1,1,2
13.73,0,4,3,1,5,2,1,0
13.735,1,2,2,3,5,1,1,1
13.74,1,1,1,1,3,1,2,1
13.745,1,3,2,3,0,4,2,2
13.75,0,0,7,2,0,1,4,0
13.755,2,2,3,7,1,2,1,1
13.76,2,3,1,1,1,4,3,2
13.765,1,2,16,1,2,2,1,1
13.77,1,1,3,1,2,0,2,2
13.775,2,0,4,3,2,1,2,1
13.78,0,0,7,0,0,1,1,1
13.785,3,2,4,1,3,0,2,1
13.79,0,3,10,3,3,4,2,1
13.795,2,3,2,4,0,12,4,0
13.8,1,2,2,0,2,15,3,1
13.805,2,1,13,0,2,4,2,1
13.81,1,4,8,1,3,2,0,1
13.815,2,9,41,7,2,1,1,2
13.82,0,1,12,1,3,6,2,0
13.825,1,4,6,2,5,2,2,2
13.83,2,1,3,1,2,0,1,2
13.835,0,2,10,1,5,2,3,5
13.84,2,5,9,3,0,4,3,1
13.845,0,1,4,1,1,4,2,1
13.85,3,0,0,2,2,1,1,1
13.855,1,1,1,2,1,2,1,1
13.86,1,2,1,1,2,2,1,0
13.865,1,1,2,2,1,3,0,2
13.87,3,2,5,3,3,3,3,2
13.875,2,2,6,2,1,2,1,0
13.88,1,1,2,0,4,5,3,1
13.885,2,2,5,1,1,1,1,1
13.89,1,1,5,3,1,1,2,4
13.895,4,2,13,1,2,0,2,1
13.9,2,2,1,1,3,4,1,1
13.905,0,0,4,2,3,3,1,1
13.91,1,2,1,2,3,5,1,0
13.915,1,1,19,1,2,1,1,1
13.92,0,1,8,2,0,3,3,1
13.925,2,3,6,1,2,2,2,1
13.93,2,3,22,5,4,2,4,2
13.935,0,0,1,2,0,1,1,1
13.94,0,3,12,0,1,2,0,3
13.945,1,1,27,4,2,3,1,1
13.95,1,4,1,2,1,3,0,1
13.955,1,1,9,3,2,0,1,1
13.96,2,2,7,3,0,0,2,2
13.965,0,1,2,1,5,1,0,1
13.97,2,3,5,1,2,0,2,0
13.975,2,3,13,3,3,0,2,1
13.98,0,1,2,1,1,1,1,1
13.985,3,1,8,1,1,4,2,3
13.99,0,3,7,0,0,1,1,1
13.995,0,1,4,1,0,0,1,2
14,1,3,6,0,1,2,1,2
14.005,2,3,1,5,0,1,2,3
14.01,1,0,12,3,1,0,3,1
14.015,2,1,8,2,2,0,2,0
14.02,1,3,5,5,2,0,1,0
14.025,1,1,4,1,2,3,2,1
14.03,2,1,1,0,2,0,1,2
14.035,1,2,6,2,2,3,1,0
14.04,1,4,0,1,1,2,2,1
14.045,1,4,3,3,2,0,0,0
14.05,0,2,6,2,0,3,1,3
14.055,1,5,17,2,0,3,1,1
14.06,2,1,1,4,1,2,1,0
14.065,1,2,3,3,1,2,2,1
14.07,1,0,1,1,4,1,0,3
14.075,1,0,4,1,4,1,3,2
14.08,2,2,2,5,0,2,2,1
14.085,2,4,4,2,0,1,1,1
14.09,2,0,2,1,1,2,2,2
14.095,1,1,2,2,1,1,0,2
14.1,0,1,0,1,2,2,2,1
14.105,1,2,0,0,0,2,1,1
14.11,0,3,2,2,1,1,1,1
14.115,2,1,2,2,1,1,0,1
14.12,1,2,10,0,3,1,1,0
14.125,1,1,22,1,2,3,3,1
14.13,2,0,17,0,2,2,0,1
14.135,0,2,10,0,3,2,3,1
14.14,2,1,3,1,1,0,0,1
14.145,1,3,3,3,2,2,1,2
14.15,1,1,3,1,5,2,2,3
14.155,0,5,5,3,2,1,0,2
14.16,2,1,5,3,1,2,1,2
14.165,1,1,4,1,0,2,1,3
14.17,0,2,10,3,4,1,1,1
14.175,1,2,1,2,2,1,2,0
14.18,1,6,10,0,0,1,1,2
14.185,2,3,2,0,2,0,1,2
14.19,4,0,5,1,1,3,1,1
14.195,3,1,1,2,2,3,1,1
14.2,1,2,5,2,1,1,1,0
14.205,1,1,18,3,1,0,3,2
14.21,2,3,4,0,2,3,2,1
14.215,1,1,4,3,3,1,1,1
14.22,4,3,9,3,5,2,3,1
14.225,1,1,1,1,2,0,1,2
14.23,1,3,4,3,3,1,3,1
14.235,1,0,3,1,2,3,1,3
14.24,0,0,5,2,1,1,1,1
14.245,1,0,4,1,0,4,1,1
14.25,2,2,3,2,3,2,3,2
14.255,2,1,2,0,2,2,1,2
14.26,1,3,15,5,1,1,2,0
14.265,1,2,10,2,1,1,4,1
14.27,1,2,8,4,1,1,2,0
14.275,1,0,3,1,5,2,1,0
14.28,2,3,3,0,2,3,3,1
14.285,0,2,9,0,1,1,5,0
14.29,2,2,15,1,0,0,1,1
14.295,0,1,5,4,2,3,2,1
14.3,1,1,1,1,2,2,1,0
14.305,3,3,14,1,1,1,2,1
14.31,1,0,9,1,1,2,4,3
14.315,3,1,1,1,1,1,1,0
14.32,1,3,9,5,3,5,1,2
14.325,1,1,4,1,1,3,3,1
14.33,0,3,18,1,0,3,1,1
14.335,1,1,22,0,3,2,0,0
14.34,2,1,4,2,0,1,2,0
14.345,3,0,7,5,2,1,4,2
14.35,2,1,4,1,2,3,1,2
14.355,1,1,5,1,1,1,2,2
14.36,0,0,2,3,1,0,0,0
14.365,2,1,3,2,0,0,1,0
14.37,2,2,10,2,3,0,1,1
14.375,4,3,1,3,0,1,2,2
14.38,2,2,8,0,2,1,2,1
14.385,1,1,8,1,0,4,5,3
14.39,0,4,19,0,2,1,2,1
14.395,2,0,9,1,3,3,4,1
14.4,0,0,11,0,0,3,2,0
14.405,0,2,3,0,3,3,4,1
14.41,2,2,0,2,0,1,0,1
14.415,2,3,3,3,1,1,1,1
14.42,0,3,5,4,1,1,2,1
14.425,1,6,3,0,1,1,3,1
14.43,2,2,2,1,3,2,1,1
14.435,0,2,4,1,0,1,1,1
14.44,0,3,10,2,0,1,1,1
14.445,3,1,14,2,3,0,1,0
14.45,3,1,0,3,1,1,2,0
14.455,3,5,9,2,1,1,1,2
14.46,2,1,12,3,2,0,1,2
14.465,3,1,6,3,5,2,0,2
14.47,1,2,4,1,2,4,1,1
14.475,1,3,1,1,1,0,2,0
14.48,1,2,9,1,1,1,3,1
14.485,0,2,6,0,2,1,1,0
14.49,3,6,1,3,2,2,1,3
14.495,0,0,0,2,1,1,1,1
14.5,3,3,5,2,1,2,1,2
14.505,0,0,8,0,1,2,0,2
14.51,1,1,1,1,2,2,3,3
14.515,1,4,19,6,1,3,0,2
14.52,1,1,4,3,3,0,0,1
14.525,0,1,2,0,0,3,0,0
14.53,2,0,6,0,1,4,2,0
14.535,3,1,11,0,1,1,1,3
14.54,2,0,20,3,1,3,2,1
14.545,2,2,11,3,3,3,1,2
14.55,0,1,1,1,1,0,1,0
14.555,1,1,6,2,2,4,1,1
14.56,1,2,3,3,3,3,2,2
14.565,1,1,0,2,2,5,0,1
14.57,1,1,4,1,0,3,1,0
14.575,0,1,2,3,2,1,1,1
14.58,3,4,1,1,1,3,0,3
14.585,1,1,6,4,1,1,4,5
14.59,0,6,4,1,5,1,1,2
14.595,1,3,0,0,3,5,3,1
14.6,0,0,9,1,2,1,0,0
14.605,0,5,31,0,1,0,1,1
14.61,3,3,6,0,0,3,0,2
14.615,0,3,2,1,2,1,3,5
14.62,0,3,3,4,1,1,1,1
14.625,1,1,4,2,2,2,2,1
14.63,1,3,10,1,1,2,3,0
14.635,1,1,7,2,0,1,2,0
14.64,2,4,11,2,1,0,0,1
14.645,1,0,3,0,3,2,0,2
14.65,0,0,1,2,2,2,1,0
14.655,1,0,2,0,1,5,1,1
14.66,2,1,3,2,0,14,1,1
14.665,2,4,11,3,1,5,4,1
14.67,2,0,10,4,1,4,2,2
14.675,1,2,19,2,4,3,1,3
14.68,0,1,3,1,1,4,2,0
14.685,2,3,2,2,2,1,2,1
14.69,0,0,0,4,0,2,0,0
14.695,0,1,3,0,1,3,1,2
14.7,0,2,13,4,0,6,3,2
14.705,1,3,17,2,0,1,0,1
14.71,1,3,2,3,1,5,0,0
14.715,1,3,9,5,0,0,1,1
14.72,1,1,10,0,4,1,6,1
14.725,1,1,12,5,1,0,2,0
14.73,1,3,4,2,1,0,0,2
14.735,2,2,2,4,2,1,3,0
14.74,0,1,1,0,0,4,1,2
14.745,0,3,1,1,1,3,1,1
14.75,1,1,3,1,3,2,3,1
14.755,2,2,3,2,2,0,2,2
14.76,1,0,2,0,1,3,1,1
14.765,2,1,2,2,1,2,1,3
14.77,1,2,1,2,2,2,2,1
14.775,3,6,1,3,2,4,2,2
14.78,2,1,10,4,1,1,0,1
14.785,1,3,3,2,0,2,2,1
14.79,2,1,9,2,1,3,1,0
14.795,0,0,12,1,3,2,0,3
14.8,0,1,1,2,2,2,1,1
14.805,2,3,6,3,1,7,1,0
14.81,1,1,0,2,1,14,1,2
14.815,1,1,3,0,3,5,1,2
14.82,1,2,5,0,0,4,1,2
14.825,1,3,7,1,3,1,1,3
14.83,1,3,2,5,2,4,1,3
14.835,0,1,4,2,1,1,1,1
14.84,3,3,1,0,2,1,4,2
14.845,1,1,7,1,2,3,1,0
14.85,0,0,4,1,0,6,3,3
14.855,2,1,2,1,0,3,1,2
14.86,0,0,4,2,0,4,1,0
14.865,2,3,5,4,7,0,0,2
14.87,2,2,3,1,3,3,0,0
14.875,2,1,3,3,1,2,2,1
14.88,0,6,6,2,2,1,1,2
14.885,0,1,1,1,0,1,2,1
14.89,1,1,6,0,0,4,2,0
14.895,2,0,10,0,0,2,0,0
14.9,2,4,4,3,2,1,0,2
14.905,1,2,8,2,3,0,3,0
14.91,1,1,2,2,0,4,0,2
14.915,2,1,11,2,1,0,3,0
14.92,1,1,3,3,0,3,0,0
14.925,1,3,2,1,1,3,3,3
14.93,1,3,7,2,3,2,2,0
14.935,2,0,10,1,1,0,0,1
14.94,3,1,1,1,1,2,2,1
14.945,3,1,5,0,0,1,0,2
14.95,0,1,3,2,2,2,2,1
14.955,2,4,2,3,3,1,3,2
14.96,1,1,1,0,3,0,2,1
14.965,1,5,12,3,1,1,3,1
14.97,0,0,1,1,4,2,1,0
14.975,0,2,0,1,0,2,2,1
14.98,1,1,4,1,3,0,4,2
14.985,0,0,7,1,0,0,0,0
14.99,2,2,2,2,1,2,2,2
14.995,1,1,4,1,2,2,1,1
15,3,1,4,1,1,2,1,1
15.005,2,1,1,0,2,2,2,0
15.01,2,2,4,1,0,1,0,2
15.015,0,1,3,1,3,2,1,1
15.02,1,1,16,4,1,0,2,2
15.025,0,1,9,0,0,3,4,2
15.03,3,0,3,0,0,2,0,2
15.035,0,1,11,0,0,1,1,0
15.04,1,0,8,0,2,3,2,1
15.045,0,0,10,4,6,2,2,0
15.05,1,4,6,2,4,3,4,1
15.055,3,4,2,1,0,0,2,3
15.06,0,4,3,2,0,1,1,1
15.065,1,1,2,1,2,1,0,1
15.07,1,1,4,3,1,1,0,2
15.075,1,2,1,4,1,4,3,1
15.08,1,1,0,1,2,0,2,1
15.085,1,3,1,0,1,1,2,1
15.09,2,0,2,0,1,3,3,1
15.095,3,1,10,3,0,1,2,2
15.1,2,1,3,4,1,1,0,2
15.105,2,1,2,1,2,0,0,1
15.11,2,1,4,2,0,0,0,1
15.115,2,0,1,1,0,3,2,1
15.12,0,1,3,2,4,1,2,0
15.125,2,1,0,4,0,0,0,2
15.13,1,3,5,1,1,0,0,1
15.135,1,2,3,2,1,4,1,2
15.14,1,0,4,2,1,5,2,1
15.145,1,2,1,5,2,1,2,1
15.15,1,1,5,3,0,3,0,0
15.155,3,1,3,3,1,1,5,4
15.16,1,3,1,2,1,2,0,3
15.165,1,3,3,2,2,1,2,2
15.17,1,0,1,2,1,1,2,1
15.175,3,1,5,4,1,1,2,1
15.18,5,2,7,1,3,3,0,1
15.185,1,2,3,4,1,0,2,0
15.19,1,0,1,1,1,1,0,0
15.195,1,1,12,1,2,2,2,1
15.2,0,2,6,0,2,0,1,0
15.205,2,2,1,1,5,3,1,1
15.21,1,2,2,2,2,5,2,1
15.215,1,1,2,2,2,1,3,2
15.22,0,1,6,1,2,1,0,0
15.225,0,3,4,1,0,4,1,1
15.23,1,2,3,4,3,1,0,2
15.235,2,0,7,0,1,2,1,1
15.24,0,0,3,1,2,2,4,2
15.245,1,1,4,4,1,2,1,2
15.25,2,1,1,3,0,1,3,2
15.255,0,0,4,2,2,3,1,0
15.26,3,2,4,2,0,1,1,4
15.265,0,1,6,2,3,2,1,1
15.27,0,1,4,4,1,5,3,1
15.275,0,2,1,0,1,1,1,0
15.28,0,0,3,2,0,1,2,3
15.285,1,2,18,0,2,4,2,2
15.29,1,0,5,0,0,0,0,1
15.295,0,2,2,0,2,3,2,0
15.3,0,1,1,0,0,1,1,1
15.305,1,2,1,1,3,2,1,2
15.31,0,1,12,0,1,0,1,1
15.315,0,2,6,2,0,4,1,3
15.32,3,3,1,3,1,2,0,1
15.325,1,2,5,2,2,1,2,1
15.33,2,3,2,1,0,2,2,1
15.335,1,2,3,4,3,1,1,1
15.34,1,0,9,1,2,3,3,0
15.345,4,3,2,1,0,3,1,1
15.35,2,3,6,3,1,2,1,2
15.355,1,0,4,2,2,1,1,3
15.36,0,3,14,0,2,2,2,1
15.365,2,2,11,0,1,1,3,0
15.37,2,2,2,1,0,3,4,1
15.375,1,0,2,2,1,0,3,1
15.38,1,1,3,0,1,3,2,1
15.385,2,2,10,2,5,3,2,2
15.39,2,2,10,2,4,1,1,0
15.395,1,3,8,3,1,1,2,1
15.4,2,1,1,0,5,1,2,0
15.405,0,0,2,0,3,0,1,1
15.41,1,1,2,3,2,0,1,1
15.415,4,3,5,2,2,3,2,1
15.42,0,3,3,2,1,2,2,2
15.425,1,0,2,3,0,3,3,1
15.43,2,2,1,1,1,2,1,1
15.435,1,0,4,0,1,1,2,1
15.44,1,2,17,3,1,3,2,1
15.445,2,1,6,5,0,1,1,3
15.45,0,1,3,1,0,0,1,3
15.455,0,2,4,3,1,0,1,1
15.46,1,2,3,2,3,1,3,2
15.465,0,2,2,2,1,2,2,0
15.47,3,1,1,4,3,2,1,2
15.475,0,1,8,3,1,0,1,0
15.48,2,2,2,0,3,0,1,1
15.485,0,0,1,0,0,0,1,0
15.49,1,1,1,1,2,0,1,1
15.495,0,5,15,1,2,0,3,1
15.5,2,2,13,8,1,4,1,3
15.505,0,4,2,1,1,1,1,0
15.51,0,1,3,1,1,2,2,2
15.515,1,1,2,3,1,3,2,0
15.52,2,1,3,1,1,2,1,1
15.525,3,3,5,0,2,0,0,2
15.53,0,2,4,2,1,1,1,2
15.535,3,4,1,2,1,1,3,1
15.54,0,2,3,1,1,0,1,3
15.545,0,3,7,3,1,0,2,1
15.55,1,2,13,4,2,2,2,1
15.555,1,2,5,2,2,2,0,2
15.56,0,2,1,1,2,2,2,2
15.565,1,1,5,2,2,0,0,1
15.57,0,2,3,2,1,1,0,2
15.575,2,0,10,3,1,3,0,3
15.58,1,0,23,0,1,4,1,1
15.585,2,3,8,2,3,1,2,2
15.59,1,0,1,1,0,1,1,1
15.595,1,1,2,1,3,4,3,0
15.6,1,0,0,1,1,2,3,1
15.605,1,1,5,2,4,1,2,1
15.61,1,3,3,0,2,1,1,0
15.615,3,2,8,2,2,1,1,0
15.62,2,5,7,1,0,3,4,0
15.625,3,1,2,1,1,6,3,1
15.63,0,1,2,0,1,2,0,2
15.635,2,1,1,1,1,2,1,2
15.64,0,0,4,2,2,1,1,2
15.645,1,1,3,3,2,2,0,0
15.65,2,4,1,2,1,7,2,2
15.655,0,0,14,4,1,1,0,3
15.66,1,2,20,2,2,3,1,2
15.665,1,4,5,4,1,2,2,0
15.67,2,0,2,2,0,2,3,1
15.675,2,0,1,1,3,4,2,2
15.68,2,4,6,1,2,3,2,2
15.685,1,1,6,0,2,2,1,2
15.69,2,3,14,2,1,9,5,1
15.695,0,2,1,1,0,22,7,1
15.7,3,3,6,1,3,6,2,0
15.705,0,1,2,0,2,3,2,1
15.71,1,1,0,0,1,4,1,1
15.715,0,0,7,0,2,8,1,1
15.72,0,4,2,2,1,0,0,1
15.725,0,1,1,3,0,1,1,1
15.73,2,1,0,0,3,1,3,1
15.735,2,0,0,1,4,3,0,2
15.74,1,1,5,0,1,1,1,0
15.745,2,4,3,3,2,5,3,0
15.75,0,1,8,0,0,4,1,1
15.755,2,0,7,3,2,5,4,0
15.76,1,1,1,0,0,3,0,2
15.765,1,2,3,2,2,0,1,2
15.77,1,2,5,0,4,3,1,2
15.775,2,5,7,0,2,5,3,1
15.78,0,1,3,3,1,1,0,2
15.785,1,2,13,3,1,0,1,0
15.79,0,1,19,3,1,1,1,1
15.795,1,1,19,0,1,5,1,0
15.8,0,4,21,8,3,3,6,1
15.805,3,3,7,2,4,0,1,0
15.81,1,1,22,3,0,2,0,1
15.815,2,2,10,1,4,3,2,0
15.82,1,0,4,2,1,1,0,2
15.825,0,0,4,4,1,4,1,0
15.83,3,5,12,1,1,6,5,2
15.835,1,1,24,4,0,0,3,1
15.84,0,1,13,1,1,1,2,3
15.845,2,2,3,2,2,5,4,1
15.85,2,2,10,3,0,1,1,0
15.855,2,1,4,1,3,11,5,1
15.86,1,2,3,4,0,1,1,1
15.865,2,1,3,2,0,6,1,1
15.87,1,0,3,2,2,3,7,2
15.875,3,5,6,0,2,3,1,1
15.88,1,1,1,3,5,7,2,1
15.885,1,1,1,3,1,10,1,1
15.89,1,1,4,1,3,2,1,0
15.895,1,2,4,3,1,5,3,1
15.9,1,0,13,0,1,4,1,2
15.905,2,0,13,4,2,2,0,2
15.91,1,1,10,1,1,3,1,2
15.915,1,0,7,0,1,5,3,2
15.92,4,2,1,1,3,5,0,1
15.925,0,2,2,3,2,2,4,2
15.93,1,1,7,8,3,3,0,1
15.935,0,3,1,4,3,2,1,1
15.94,1,0,9,3,1,2,1,1
15.945,1,3,25,1,2,8,3,1
15.95,1,2,6,0,1,3,1,1
15.955,1,0,11,5,2,1,1,1
15.96,0,1,6,2,1,1,3,2
15.965,2,1,13,1,0,3,0,3
15.97,1,3,16,2,1,1,1,1
15.975,2,0,22,2,3,1,2,2
15.98,2,0,2,2,4,2,0,0
15.985,0,2,16,1,1,7,5,1
15.99,0,3,6,2,2,0,2,1
15.995,0,1,0,5,2,4,3,0
16,1,1,4,3,0,2,3,1
16.005,1,2,13,1,1,5,1,1
16.01,2,2,12,1,1,12,2,3
16.015,2,4,6,0,1,4,0,0
16.02,0,5,22,4,2,0,0,1
16.025,1,1,5,2,0,1,2,1
16.03,1,1,21,3,2,7,2,0
16.035,2,2,17,4,1,5,0,1
16.04,1,3,6,0,2,3,4,1
16.045,2,4,7,4,0,2,1,1
16.05,2,0,11,1,6,4,1,2
16.055,0,1,10,1,2,5,1,1
16.06,2,3,12,2,1,1,4,3
16.065,5,3,37,3,4,7,8,1
16.07,1,2,33,4,3,5,1,1
16.075,3,0,14,1,2,2,1,1
16.08,2,4,78,7,1,2,5,1
16.085,1,2,21,1,3,0,1,2
16.09,1,1,7,3,0,4,3,4
16.095,0,2,5,1,2,2,1,1
16.1,2,0,9,2,1,3,0,0
16.105,2,4,8,2,1,3,1,1
16.11,0,1,32,6,1,6,3,3
16.115,0,5,69,13,5,1,1,2
16.12,0,3,39,4,2,2,0,3
16.125,0,3,17,4,3,5,1,1
16.13,3,0,10,2,4,0,2,3
16.135,1,0,6,6,1,1,1,2
16.14,3,1,7,1,0,5,1,1
16.145,0,1,13,3,0,0,3,3
16.15,2,3,5,2,1,1,2,3
16.155,1,5,14,1,1,2,4,1
16.16,2,2,25,2,2,2,6,1
16.165,1,2,38,0,0,1,5,1
16.17,2,4,35,2,1,4,1,1
16.175,1,2,9,2,1,4,0,1
16.18,2,1,4,0,3,3,2,1
16.185,1,2,5,1,4,1,1,1
16.19,1,1,4,2,2,8,3,2
16.195,2,3,12,0,0,2,3,2
16.2,0,0,30,5,1,2,4,1
16.205,1,1,0,0,2,2,2,1
16.21,2,3,3,3,1,1,2,0
16.215,1,2,24,4,0,5,0,0
16.22,1,1,24,2,2,8,3,1
16.225,2,1,3,0,3,2,2,0
16.23,1,0,5,1,2,4,1,2
16.235,1,0,16,3,5,8,1,1
16.24,0,0,1,2,3,4,5,1
16.245,2,1,20,0,4,2,1,1
16.25,1,5,34,10,4,4,5,1
16.255,0,2,4,4,2,2,2,1
16.26,1,4,8,4,5,3,1,1
16.265,5,7,46,7,1,0,1,2
16.27,0,3,20,0,2,1,0,0
16.275,2,3,12,1,1,4,0,2
16.28,1,3,1,3,2,0,4,1
16.285,1,0,2,3,6,4,4,1
16.29,0,1,13,2,3,3,5,1
16.295,1,2,54,8,3,7,1,0
16.3,1,1,40,6,4,2,0,1
16.305,1,0,5,2,2,1,1,0
16.31,0,1,7,0,2,3,6,0
16.315,2,3,13,1,2,4,1,3
16.32,2,1,5,5,3,2,2,2
16.325,0,0,11,1,3,2,2,2
16.33,1,4,11,1,0,2,4,3
16.335,2,0,6,5,3,2,0,1
16.34,0,2,6,0,0,6,7,1
16.345,1,1,12,1,2,2,0,0
16.35,1,5,31,3,1,1,2,0
16.355,1,4,35,2,2,3,5,2
16.36,0,1,0,1,2,6,3,0
16.365,1,2,3,3,3,4,1,0
16.37,1,2,4,1,0,3,1,1
16.375,0,1,41,5,3,3,2,4
16.38,5,5,38,2,1,0,4,8
16.385,3,6,14,3,4,2,4,1
16.39,2,1,6,4,0,1,5,2
16.395,3,2,24,1,0,2,2,1
16.4,1,0,7,0,3,11,4,0
16.405,3,3,7,1,3,8,3,5
16.41,2,2,10,1,1,0,2,2
16.415,2,3,8,5,1,1,0,1
16.42,3,5,23,8,1,1,0,1
16.425,1,4,3,0,3,7,5,2
16.43,3,2,18,1,1,3,3,0
16.435,1,5,22,2,2,3,0,1
16.44,2,1,4,3,1,3,3,1
16.445,0,0,8,3,0,0,1,2
16.45,1,3,10,0,5,2,2,2
16.455,1,3,10,2,1,2,2,2
16.46,1,1,4,2,0,0,2,2
16.465,1,0,4,0,1,2,3,1
16.47,1,1,4,3,1,4,2,2
16.475,2,3,18,5,4,3,1,2
16.48,1,2,17,3,0,3,1,0
16.485,1,1,4,1,1,5,2,1
16.49,3,1,1,0,1,1,3,2
16.495,1,2,5,4,1,1,2,1
16.5,1,2,11,1,1,1,1,0
16.505,2,4,19,8,2,8,4,4
16.51,2,1,0,1,2,3,1,3
16.515,2,2,10,2,1,4,3,1
16.52,4,3,25,0,0,0,1,1
16.525,3,4,3,2,2,2,1,0
16.53,2,1,19,4,1,1,1,0
16.535,2,1,13,2,0,0,3,1
16.54,1,0,12,2,2,8,6,3
16.545,2,1,3,2,3,2,2,2
16.55,0,2,4,2,2,1,1,1
16.555,2,3,4,3,2,4,6,1
16.56,1,0,17,1,2,1,2,2
16.565,0,0,18,1,2,4,2,1
16.57,2,1,7,2,1,1,2,2
16.575,0,2,6,2,1,3,5,1
16.58,0,0,3,1,4,4,7,1
16.585,0,0,23,4,3,2,2,1
16.59,2,0,2,2,0,1,1,3
16.595,2,0,5,1,1,1,3,2
16.6,2,2,8,2,1,3,0,2
16.605,1,3,1,2,1,1,1,1
16.61,2,4,33,8,1,3,2,2
16.615,0,2,10,3,1,1,2,2
16.62,1,1,0,3,0,4,7,2
16.625,0,2,4,4,2,2,2,1
16.63,1,2,2,2,2,1,3,12
16.635,4,0,11,0,0,11,7,2
16.64,3,2,5,2,2,4,7,0
16.645,2,1,6,3,2,6,4,3
16.65,1,0,13,0,1,2,1,5
16.655,2,3,23,0,2,6,5,3
16.66,0,0,5,1,3,1,4,2
16.665,1,1,3,3,0,2,4,2
16.67,3,2,4,3,3,2,4,2
16.675,1,1,4,1,1,3,2,1
16.68,3,3,3,2,1,2,2,3
16.685,2,1,7,0,0,1,1,4
16.69,2,4,2,3,4,1,1,3
16.695,1,1,11,2,14,8,3,0
16.7,1,2,2,1,5,9,4,0
16.705,1,0,1,1,2,1,3,2
16.71,0,2,1,3,0,2,0,0
16.715,3,6,5,0,4,5,1,3
16.72,1,4,4,2,5,2,0,4
16.725,0,2,24,1,2,5,2,2
16.73,2,1,2,2,1,8,5,1
16.735,0,1,1,1,5,0,2,1
16.74,1,1,5,1,5,15,9,3
16.745,4,5,13,4,2,12,12,2
16.75,0,1,6,0,4,1,8,0
16.755,0,2,4,4,4,2,1,2
16.76,2,3,2,0,1,9,9,0
16.765,1,0,14,3,2,15,7,3
16.77,0,0,6,0,0,12,6,2
16.775,1,2,1,2,4,10,5,3
16.78,2,1,10,1,1,2,5,2
16.785,2,0,0,1,4,5,4,1
16.79,4,3,1,2,0,1,1,0
16.795,2,1,7,1,2,3,3,1
16.8,3,3,11,4,0,1,0,2
16.805,3,0,4,1,0,2,1,0
16.81,1,1,8,2,4,2,2,1
16.815,3,2,17,4,2,7,8,2
16.82,1,2,3,2,1,2,9,1
16.825,5,2,4,2,0,1,15,7
16.83,1,2,9,2,1,7,3,3
16.835,4,5,1,4,5,7,4,1
16.84,0,2,33,1,1,4,3,1
16.845,2,4,6,2,3,6,2,3
16.85,1,2,3,2,0,8,3,1
16.855,0,0,7,0,1,7,2,0
16.86,4,7,1,8,2,3,2,4
16.865,0,2,3,2,1,1,4,0
16.87,2,0,3,2,1,0,1,2
16.875,2,1,0,2,4,0,0,1
16.88,2,2,1,2,3,2,3,3
16.885,1,1,5,1,0,3,4,1
16.89,3,1,3,1,4,2,0,1
16.895,1,1,16,0,2,3,2,3
16.9,2,5,28,6,1,2,5,3
16.905,1,2,3,2,0,3,6,2
16.91,2,2,6,7,4,3,3,10
16.915,0,2,6,1,4,1,0,1
16.92,1,2,8,4,2,2,3,2
16.925,1,4,8,3,1,0,4,0
16.93,2,5,1,0,2,4,2,3
16.935,3,4,7,5,1,4,2,3
16.94,0,1,10,0,0,5,1,3
16.945,0,3,4,3,1,3,2,5
16.95,1,1,5,3,1,0,1,2
16.955,1,0,0,2,2,2,3,2
16.96,1,0,5,0,1,3,2,1
16.965,1,0,4,1,1,10,3,2
16.97,1,3,1,2,2,5,1,1
16.975,1,4,3,0,0,2,0,0
16.98,1,0,5,0,0,0,5,1
16.985,1,1,3,1,1,2,2,1
16.99,1,2,1,0,1,1,3,10
16.995,3,0,2,1,1,1,1,10
17,7,2,9,3,0,0,1,12
17.005,1,3,5,3,1,1,7,0
17.01,2,1,2,0,0,5,11,0
17.015,3,3,9,1,2,0,4,11
17.02,1,2,1,5,1,6,1,3
17.025,1,2,4,3,4,5,3,2
17.03,3,1,2,1,2,1,1,9
17.035,2,3,3,0,2,2,4,4
17.04,1,2,5,1,0,1,0,1
17.045,0,6,0,4,1,8,5,3
17.05,1,0,2,1,3,2,2,7
17.055,6,2,0,3,3,1,2,10
17.06,1,4,2,1,1,3,5,4
17.065,6,0,1,1,2,2,7,8
17.07,1,3,22,6,1,2,6,1
17.075,0,2,5,4,0,1,1,0
17.08,1,2,5,2,2,2,4,9
17.085,1,2,2,3,3,1,2,8
17.09,2,0,8,1,1,0,1,5
17.095,4,3,2,2,2,1,3,9
17.1,2,5,5,5,1,2,2,1
17.105,0,2,4,3,3,3,1,1
17.11,1,0,2,4,4,1,1,1
17.115,1,1,2,4,1,6,4,2
17.12,2,3,2,1,1,4,4,3
17.125,5,3,6,1,2,2,2,0
17.13,0,0,5,2,0,3,1,6
17.135,1,4,16,3,2,8,3,4
17.14,2,4,7,9,2,2,2,3
17.145,2,1,9,6,1,6,3,2
17.15,1,1,6,1,1,5,8,2
17.155,2,0,1,0,2,6,11,5
17.16,4,1,11,1,1,7,3,5
17.165,1,3,10,3,2,1,0,1
17.17,4,2,16,2,3,2,3,2
17.175,1,1,28,2,3,3,3,1
17.18,0,0,15,3,1,0,1,4
17.185,3,3,13,5,5,3,2,4
17.19,2,1,6,4,1,7,5,4
17.195,2,1,4,3,1,6,5,1
17.2,1,0,2,1,2,1,6,1
17.205,2,1,9,4,2,14,12,10
17.21,1,3,3,3,1,9,11,18
17.215,2,1,1,1,1,4,5,16
17.22,2,2,8,1,1,1,1,25
17.225,7,3,6,1,1,2,2,5
17.23,4,3,6,2,5,9,0,2
17.235,2,1,9,2,1,0,3,2
17.24,1,1,1,3,1,2,1,5
17.245,3,4,10,2,1,0,0,5
17.25,6,3,1,3,1,3,3,1
17.255,0,0,5,1,2,1,0,4
17.26,0,1,9,1,3,4,6,7
17.265,2,0,0,2,2,5,3,7
17.27,1,3,3,1,1,0,3,6
17.275,2,0,9,4,5,3,1,13
17.28,1,5,4,3,0,3,1,6
17.285,5,1,12,2,0,3,2,8
17.29,1,4,34,4,0,0,2,1
17.295,1,1,11,7,2,7,5,3
17.3,1,1,8,1,0,2,5,4
17.305,0,2,1,5,3,4,6,1
17.31,2,1,2,1,3,2,1,1
17.315,3,1,0,1,2,3,2,6
17.32,2,5,1,0,2,2,0,1
17.325,2,3,14,1,1,5,5,5
17.33,2,3,23,1,1,2,1,2
17.335,1,4,3,0,1,6,1,0
17.34,0,1,1,3,2,2,1,5
17.345,1,1,5,1,3,1,0,0
17.35,1,5,5,1,2,1,1,2
17.355,2,5,22,4,4,5,4,1
17.36,2,2,0,5,0,2,0,2
17.365,1,2,7,1,3,0,2,2
17.37,2,0,3,3,1,0,2,0
17.375,3,5,8,5,2,5,3,1
17.38,2,1,3,2,3,0,2,3
17.385,0,3,2,1,1,1,0,2
17.39,1,0,22,6,7,4,1,0
17.395,1,0,9,2,2,4,4,0
17.4,1,3,5,1,1,2,3,0
17.405,2,2,0,2,0,3,2,1
17.41,1,1,2,2,1,7,10,2
17.415,6,1,2,2,2,6,16,2
17.42,0,1,3,1,1,6,0,1
17.425,1,1,2,3,2,1,2,1
17.43,1,1,5,2,1,2,4,2
17.435,2,1,1,1,1,1,5,2
17.44,0,1,4,2,3,6,4,0
17.445,1,2,8,2,2,1,1,2
17.45,1,1,1,3,2,5,2,2
17.455,1,0,1,1,0,1,5,2
17.46,1,1,4,3,2,2,2,1
17.465,3,3,5,2,3,5,1,1
17.47,4,1,21,0,1,1,1,0
17.475,1,3,13,0,1,4,5,1
17.48,0,2,23,1,1,2,3,2
17.485,2,1,1,0,1,2,2,3
17.49,1,1,4,5,1,2,0,2
17.495,1,1,1,2,3,8,4,1
17.5,1,1,0,4,1,5,1,1
17.505,0,1,9,1,2,3,2,2
17.51,2,2,10,1,0,2,3,1
17.515,2,2,13,4,1,7,8,1
17.52,0,0,4,2,0,4,3,0
17.525,3,2,6,4,0,0,1,0
17.53,1,2,7,2,1,4,3,1
17.535,2,5,16,5,1,2,3,0
17.54,1,3,9,3,1,2,1,2
17.545,2,2,0,1,2,5,2,0
17.55,0,1,4,1,1,5,2,0
17.555,1,1,8,4,2,5,1,3
17.56,2,4,3,0,3,2,1,3
17.565,1,0,1,1,4,4,2,1
17.57,0,2,2,3,0,0,1,1
17.575,1,3,0,1,1,1,2,0
17.58,2,1,0,2,1,0,0,2
17.585,1,1,1,4,1,5,1,1
17.59,2,1,1,3,2,2,1,2
17.595,0,0,3,1,2,2,1,1
17.6,1,0,3,1,0,3,3,0
17.605,3,5,4,1,3,5,5,1
17.61,3,3,8,1,1,0,0,1
17.615,1,0,3,1,0,3,3,0
17.62,2,2,2,1,1,2,1,1
17.625,1,3,2,0,1,2,7,2
17.63,2,6,13,2,2,5,7,0
17.635,1,2,1,1,1,7,3,1
17.64,3,2,1,0,3,9,2,1
17.645,0,2,4,4,1,1,1,2
17.65,1,0,2,3,1,1,1,3
17.655,3,1,1,0,1,2,2,2
17.66,1,3,3,1,2,4,2,2
17.665,0,1,1,1,0,0,1,2
17.67,0,1,3,1,2,1,3,2
17.675,1,0,2,0,0,1,0,1
17.68,1,1,3,3,0,2,0,0
17.685,2,0,0,6,2,0,1,1
17.69,3,3,1,5,0,3,1,0
17.695,0,3,2,1,4,2,5,1
17.7,1,1,6,2,0,4,1,0
17.705,0,1,2,1,1,2,0,2
17.71,1,2,0,2,2,1,2,0
17.715,1,1,0,1,2,0,2,0
17.72,1,1,2,0,5,2,2,1
17.725,2,1,3,5,0,2,2,3
17.73,1,0,0,4,1,2,0,1
17.735,3,0,2,3,3,3,0,2
17.74,0,2,2,1,5,3,1,1
17.745,1,1,0,3,0,0,7,2
17.75,2,3,2,1,1,1,0,1
17.755,1,4,11,6,2,4,3,0
17.76,1,2,0,0,0,1,0,0
17.765,3,1,1,1,5,5,1,1
17.77,4,3,4,3,1,1,2,1
17.775,1,1,2,3,2,0,1,2
17.78,1,3,1,0,2,2,1,0
17.785,1,1,0,6,4,4,1,2
17.79,0,1,0,5,2,0,1,2
17.795,2,3,5,1,1,1,1,0
17.8,2,0,2,2,2,4,5,1
17.805,1,4,3,1,2,1,1,1
17.81,1,1,0,1,0,3,4,1
17.815,0,1,1,2,1,3,2,3
17.82,1,0,2,2,2,1,1,1
17.825,0,1,4,2,3,2,1,1
17.83,2,0,2,1,1,1,1,1
17.835,0,4,1,1,3,1,0,0
17.84,2,2,0,4,1,1,2,2
17.845,1,0,1,0,1,1,2,2
17.85,0,1,0,0,4,1,1,0
17.855,0,3,1,0,4,0,1,0
17.86,1,1,0,1,1,3,2,1
17.865,1,5,7,1,1,3,2,1
17.87,0,3,8,2,2,2,1,2
17.875,1,1,2,5,1,3,2,2
17.88,1,4,2,1,1,1,0,1
17.885,1,0,1,1,0,0,1,1
17.89,0,0,2,0,0,6,2,1
17.895,3,3,2,1,3,4,4,2
17.9,0,3,6,4,0,4,4,2
17.905,3,1,4,3,0,0,2,1
17.91,3,2,0,6,1,3,5,1
17.915,1,1,1,0,3,4,2,0
17.92,1,0,2,0,1,3,2,2
17.925,2,2,4,3,2,4,5,3
17.93,0,3,6,3,2,0,1,3
17.935,1,1,1,2,1,4,3,1
17.94,2,1,1,1,1,5,2,1
17.945,2,3,2,2,0,4,0,1
17.95,1,0,2,1,1,1,1,2
17.955,1,1,0,0,2,2,1,2
17.96,1,1,2,1,1,4,3,0
17.965,2,2,5,1,1,1,1,2
17.97,2,4,6,0,2,1,2,2
17.975,0,3,0,3,0,2,2,2
17.98,1,1,3,4,3,4,1,1
17.985,0,0,6,5,0,1,2,2
17.99,2,0,2,1,1,1,4,0
17.995,1,1,2,2,1,1,3,1
18,0,2,15,3,0,3,3,3
18.005,0,4,1,3,3,7,2,2
18.01,1,3,5,1,1,3,3,0
18.015,0,0,3,1,1,1,2,0
18.02,4,0,7,1,3,4,0,1
18.025,1,1,15,4,4,5,4,1
18.03,3,2,3,1,1,6,4,1
18.035,1,2,5,2,2,4,3,1
18.04,2,1,27,2,0,1,2,1
18.045,1,1,5,3,2,4,1,3
18.05,1,2,1,0,2,1,2,3
18.055,1,1,6,3,4,1,6,2
18.06,0,4,0,1,0,3,1,1
18.065,1,1,1,2,1,2,5,2
18.07,1,1,4,5,0,2,8,2
18.075,0,1,7,5,0,4,2,2
18.08,3,0,10,2,1,4,3,0
18.085,2,1,3,4,0,1,3,1
18.09,3,2,7,0,1,1,4,1
18.095,3,2,4,4,1,1,4,1
18.1,0,1,1,0,2,4,2,3
18.105,1,1,1,3,0,2,2,2
18.11,1,0,9,4,2,3,3,2
18.115,0,1,5,0,2,2,2,1
18.12,2,2,2,3,3,2,1,1
18.125,2,4,3,2,5,6,2,2
18.13,1,2,3,1,3,0,2,2
18.135,1,1,2,2,1,2,3,2
18.14,0,1,7,2,0,2,1,1
18.145,1,2,4,3,5,1,1,0
18.15,1,3,1,4,1,1,0,1
18.155,2,4,8,0,1,0,1,0
18.16,2,7,4,3,1,2,2,1
18.165,3,4,2,1,3,3,3,1
18.17,0,1,5,0,2,3,4,0
18.175,0,3,4,2,3,4,3,1
18.18,3,4,2,3,1,1,1,1
18.185,1,2,18,6,4,0,1,2
18.19,0,1,6,3,5,2,0,1
18.195,5,4,5,2,2,2,3,2
18.2,0,1,4,1,2,0,2,2
18.205,0,0,14,1,0,0,1,1
18.21,2,5,12,1,2,4,2,3
18.215,0,1,0,5,4,3,1,2
18.22,2,2,1,3,3,2,4,1
18.225,1,2,3,3,1,4,2,1
18.23,5,1,3,3,4,6,6,2
18.235,2,1,0,5,2,2,1,1
18.24,2,3,1,3,3,1,3,0
18.245,0,5,7,1,2,1,0,0
18.25,0,4,14,2,2,1,1,1
18.255,2,3,1,3,3,2,1,2
18.26,1,7,5,0,1,1,1,1
18.265,2,0,5,1,2,2,0,0
18.27,1,1,11,2,1,5,1,1
18.275,0,4,0,0,2,3,4,0
18.28,0,4,13,3,0,3,3,0
18.285,1,2,5,2,0,0,1,1
18.29,1,1,3,2,4,1,1,5
18.295,1,2,1,0,1,1,0,3
18.3,2,3,9,3,1,1,2,0
18.305,3,1,2,2,5,0,1,0
18.31,2,1,6,2,6,4,0,2
18.315,2,0,0,0,2,0,3,2
18.32,1,1,6,1,1,0,0,2
18.325,2,4,9,2,1,3,3,0
18.33,0,2,5,1,3,3,2,0
18.335,1,0,23,3,2,2,0,2
18.34,1,1,26,4,1,2,1,1
18.345,0,4,0,2,0,5,0,0
18.35,1,1,8,2,3,3,0,0
18.355,1,2,3,2,1,3,1,2
18.36,2,2,4,2,0,1,0,3
18.365,0,3,7,3,2,4,1,3
18.37,1,0,8,0,2,0,1,0
18.375,2,1,0,3,0,0,0,2
18.38,2,2,6,4,1,1,2,1
18.385,3,1,2,1,0,2,0,2
18.39,3,0,4,3,5,2,5,1
18.395,3,0,11,1,1,1,0,2
18.4,0,1,15,1,6,0,2,2
18.405,0,1,14,6,0,0,0,2
18.41,0,5,7,3,0,5,4,3
18.415,1,0,11,0,2,1,1,2
18.42,1,3,10,3,1,0,0,1
18.425,2,1,0,1,2,1,5,2
18.43,0,1,14,4,0,2,1,1
18.435,1,3,3,1,0,2,0,1
18.44,0,2,13,2,1,1,1,2
18.445,1,0,1,1,1,3,2,1
18.45,1,2,7,0,1,1,2,1
18.455,2,1,13,3,3,2,3,1
18.46,2,1,2,4,1,0,1,0
18.465,2,3,7,4,1,0,1,1
18.47,3,2,2,0,1,1,1,2
18.475,1,2,12,3,4,3,2,1
18.48,1,1,4,3,2,0,1,2
18.485,2,1,3,1,2,2,0,2
18.49,2,2,0,3,1,4,2,2
18.495,3,1,5,2,1,3,1,1
18.5,2,1,3,4,3,1,2,2
18.505,0,1,13,0,1,0,2,1
18.51,0,1,4,0,1,0,2,1
18.515,1,3,5,1,3,2,1,2
18.52,2,4,3,3,2,1,1,0
18.525,1,2,2,1,0,1,1,0
18.53,2,1,6,2,2,1,2,1
18.535,0,4,6,3,0,0,1,0
18.54,0,2,1,0,1,3,2,2
18.545,1,0,1,3,1,2,0,2
18.55,0,1,9,2,1,1,2,1
18.555,1,2,21,3,2,2,1,0
18.56,3,1,5,2,4,1,0,1
18.565,1,1,9,4,2,3,0,1
18.57,1,3,3,2,0,1,1,1
18.575,4,1,6,3,1,2,2,3
18.58,2,2,7,3,3,0,0,1
18.585,2,2,1,4,1,1,2,2
18.59,3,0,3,1,1,2,0,2
18.595,1,2,1,3,2,0,2,1
18.6,1,1,5,0,2,4,2,1
18.605,0,1,11,0,0,3,0,1
18.61,1,4,8,4,1,4,2,2
18.615,1,0,3,0,2,4,0,1
18.62,2,3,1,1,1,0,0,2
18.625,0,2,4,1,1,2,3,1
18.63,2,0,7,1,3,2,2,1
18.635,2,0,3,1,0,2,0,3
18.64,0,3,11,4,2,1,1,0
18.645,2,2,2,3,2,2,1,0
18.65,0,1,3,1,0,1,0,0
18.655,0,1,2,0,2,2,3,1
18.66,1,0,2,1,3,2,1,2
18.665,1,2,2,5,2,0,0,1
18.67,2,0,5,1,0,2,0,1
18.675,0,0,11,5,0,2,1,1
18.68,2,0,2,0,5,5,3,1
18.685,2,2,1,3,1,2,2,0
18.69,1,1,2,1,1,1,1,1
18.695,0,2,7,3,2,1,1,0
18.7,1,1,3,2,1,1,1,1
18.705,1,2,2,1,1,5,1,2
18.71,0,2,4,3,2,0,2,1
18.715,2,2,1,1,0,0,1,1
18.72,1,2,13,1,1,2,1,3
18.725,1,1,3,0,3,1,1,0
18.73,2,2,5,2,4,2,0,2
18.735,3,2,13,0,2,1,1,2
18.74,1,2,12,1,2,1,0,1
18.745,0,1,9,1,0,3,1,0
18.75,1,1,7,0,0,0,0,1
18.755,4,2,7,2,2,1,1,1
18.76,1,1,0,1,2,0,1,2
18.765,0,1,2,0,0,3,3,1
18.77,1,1,0,2,4,2,2,0
18.775,3,2,9,2,1,2,1,2
18.78,3,2,4,4,1,3,1,1
18.785,1,1,4,4,0,1,0,1
18.79,1,3,2,0,1,2,1,1
18.795,3,2,1,3,4,2,2,2
18.8,1,3,1,1,4,1,2,1
18.805,3,0,7,6,4,0,0,3
18.81,0,2,0,3,2,1,3,0
18.815,2,2,5,0,1,2,3,1
18.82,1,2,1,1,3,0,1,0
18.825,2,0,1,0,1,1,0,0
18.83,1,3,3,1,0,1,1,3
18.835,2,2,10,0,0,2,1,1
18.84,0,2,12,0,0,1,2,2
18.845,1,5,2,1,2,0,3,1
18.85,1,3,8,0,1,2,2,2
18.855,2,3,0,2,1,4,0,1
18.86,2,4,3,6,5,5,4,0
18.865,1,1,3,2,1,3,1,1
18.87,2,9,24,5,5,8,5,1
18.875,0,2,18,2,3,1,3,1
18.88,1,4,11,1,0,3,2,2
18.885,0,1,8,8,8,7,4,1
18.89,1,2,15,2,2,4,1,1
18.895,3,3,21,2,2,4,4,1
18.9,1,4,4,1,5,3,1,3
18.905,0,0,4,1,2,4,2,1
18.91,2,1,2,1,1,3,1,2
18.915,0,2,4,3,3,3,1,0
18.92,0,0,5,3,0,2,1,1
18.925,2,2,1,1,0,1,1,2
18.93,0,0,5,1,4,1,0,0
18.935,0,4,2,2,5,1,0,1
18.94,1,1,22,1,1,0,0,2
18.945,4,3,12,4,1,1,2,3
18.95,1,0,13,6,0,3,3,2
18.955,3,4,24,4,4,6,3,1
18.96,0,0,11,1,2,2,2,1
18.965,1,1,6,1,0,0,0,0
18.97,1,1,14,5,1,1,1,1
18.975,1,3,10,1,1,1,1,3
18.98,0,4,10,2,1,4,0,1
18.985,2,4,0,0,2,1,0,0
18.99,1,2,5,2,2,0,1,0
18.995,2,1,12,0,2,1,3,1
19,4,1,15,3,3,4,4,3
19.005,2,4,2,5,1,1,0,1
19.01,1,0,9,4,0,1,1,0
19.015,1,0,1,0,5,0,1,3
19.02,1,3,2,4,1,1,1,2
19.025,1,2,3,3,3,2,2,2
19.03,2,2,7,0,2,0,0,3
19.035,0,1,7,5,2,1,1,3
19.04,0,3,8,1,5,4,2,1
19.045,3,5,3,4,3,1,0,2
19.05,3,3,10,2,1,2,3,3
19.055,1,3,3,3,1,1,0,0
19.06,1,2,11,3,1,0,1,0
19.065,1,2,6,3,0,3,0,0
19.07,0,1,3,0,3,3,0,1
19.075,2,1,1,1,3,0,2,2
19.08,2,0,4,2,2,1,3,2
19.085,1,0,5,2,1,4,0,2
19.09,0,3,20,4,3,0,1,1
19.095,1,1,3,1,4,3,1,0
19.1,2,5,13,5,1,2,3,1
19.105,2,3,1,1,1,3,5,2
19.11,1,0,8,1,2,4,1,1
19.115,2,0,4,3,1,0,2,1
19.12,1,2,0,1,3,1,1,2
19.125,1,3,6,0,2,1,2,1
19.13,1,1,12,1,1,3,2,2
19.135,1,1,13,2,1,4,1,0
19.14,1,1,2,3,1,13,0,3
19.145,2,1,6,3,7,1,0,1
19.15,3,0,9,5,5,1,2,2
19.155,2,2,2,2,6,5,2,4
19.16,3,1,3,0,7,3,0,4
19.165,1,2,12,4,6,2,2,2
19.17,2,3,2,2,3,0,0,1
19.175,1,1,6,2,5,1,1,1
19.18,1,1,4,4,4,1,0,1
19.185,0,1,7,2,1,2,2,1
19.19,2,1,8,2,3,2,0,3
19.195,1,5,27,6,5,0,1,1
19.2,0,2,1,2,5,2,3,1
19.205,1,1,3,2,7,1,1,0
19.21,1,4,5,3,4,1,1,2
19.215,2,0,6,1,6,2,4,2
19.22,2,1,3,3,4,1,1,1
19.225,3,5,17,2,1,1,1,1
19.23,2,1,2,1,5,1,1,2
19.235,2,2,1,2,4,0,1,0
19.24,1,3,15,7,4,2,2,1
19.245,1,0,7,1,1,2,2,1
19.25,1,1,6,0,4,5,2,2
19.255,0,0,15,3,1,0,1,0
19.26,0,1,9,2,3,2,2,1
19.265,0,2,9,2,2,2,0,0
19.27,2,1,4,0,3,4,0,2
19.275,2,3,7,1,2,1,2,1
19.28,3,1,4,2,3,4,5,1
19.285,0,0,2,1,0,3,1,3
19.29,1,4,19,3,1,2,1,0
19.295,2,2,9,1,0,1,1,1
19.3,1,1,5,2,2,3,2,0
19.305,2,1,4,1,1,3,3,2
19.31,1,4,5,1,0,1,1,2
19.315,1,1,1,1,2,1,1,1
19.32,2,3,3,1,0,2,0,1
19.325,2,2,5,3,1,2,3,2
19.33,1,1,3,1,2,0,2,2
19.335,2,4,9,3,1,1,2,1
19.34,1,0,8,1,2,1,0,1
19.345,1,1,1,1,0,0,0,2
19.35,1,2,3,2,0,2,3,1
19.355,0,2,14,2,1,2,0,2
19.36,2,0,5,2,1,4,2,2
19.365,2,4,15,1,0,0,0,1
19.37,1,2,7,1,1,2,1,1
19.375,1,0,9,1,0,1,2,1
19.38,1,2,10,2,3,1,1,2
19.385,2,2,1,1,1,1,1,0
19.39,1,2,2,0,0,3,0,1
19.395,3,3,6,10,1,1,2,2
19.4,1,1,6,7,2,1,3,3
19.405,3,3,0,0,2,2,1,3
19.41,1,0,2,3,1,1,2,2
19.415,3,0,3,4,1,3,2,2
19.42,0,2,1,3,1,1,0,1
19.425,0,1,3,1,1,1,1,2
19.43,2,4,5,2,3,1,2,3
19.435,0,1,4,1,0,1,1,2
19.44,2,1,1,2,1,0,0,1
19.445,1,0,0,4,0,2,1,2
19.45,1,2,6,3,3,1,0,0
19.455,1,2,3,0,3,3,1,0
19.46,0,0,11,2,1,0,2,1
19.465,0,1,15,5,3,2,1,3
19.47,2,1,2,2,1,0,1,0
19.475,0,4,3,3,2,0,1,1
19.48,1,4,16,1,0,1,1,0
19.485,1,3,17,5,4,2,1,0
19.49,2,3,15,1,3,3,2,2
19.495,1,0,15,2,1,2,1,0
19.5,1,4,6,2,0,4,4,3
19.505,1,0,4,1,0,0,2,1
19.51,1,1,9,5,4,1,0,1
19.515,1,2,0,0,2,1,1,0
19.52,3,5,15,5,2,2,1,3
19.525,4,1,5,2,5,3,5,3
19.53,0,0,3,3,6,3,2,1
19.535,2,0,18,2,6,1,1,2
19.54,0,0,21,2,2,2,1,1
19.545,0,1,5,1,7,1,2,1
19.55,1,1,1,2,2,0,1,2
19.555,3,3,7,4,8,3,4,3
19.56,0,1,1,1,2,4,2,1
19.565,1,0,2,7,4,1,1,0
19.57,0,2,5,5,1,0,1,1
19.575,2,3,13,3,3,1,3,1
19.58,1,0,4,0,3,2,2,0
19.585,2,2,3,0,8,4,4,4
19.59,0,1,1,7,4,3,0,0
19.595,3,2,9,0,0,2,1,2
19.6,0,2,0,5,0,2,0,1
19.605,1,0,5,2,1,3,1,1
19.61,1,1,3,1,0,3,3,2
19.615,1,0,21,3,5,1,2,0
19.62,0,4,13,3,0,1,0,0
19.625,3,3,10,5,0,0,2,0
19.63,1,4,2,3,2,2,2,1
19.635,0,3,8,5,1,1,1,2
19.64,1,2,4,1,0,2,1,1
19.645,3,3,5,1,4,2,3,0
19.65,1,2,16,0,1,2,1,0
19.655,2,3,26,4,4,2,2,1
19.66,1,0,12,2,1,2,0,1
19.665,1,2,11,3,1,2,1,1
19.67,0,1,8,2,3,1,3,1
19.675,1,2,7,2,5,3,0,1
19.68,0,2,3,2,0,3,1,1
19.685,0,1,5,4,2,2,1,0
19.69,4,2,6,3,4,1,3,2
19.695,1,2,24,5,2,3,3,1
19.7,1,1,11,2,1,4,1,1
19.705,2,0,16,1,1,0,2,2
19.71,1,1,18,2,2,0,1,1
19.715,1,0,12,1,2,1,1,0
19.72,1,2,0,0,3,0,2,1
19.725,3,1,0,1,1,1,1,2
19.73,0,2,2,3,1,3,2,1
19.735,0,1,2,2,1,3,1,3
19.74,3,1,7,3,1,0,0,0
19.745,1,1,1,1,3,1,3,1
19.75,0,3,6,1,4,0,2,1
19.755,2,2,5,0,3,2,1,1
19.76,0,1,9,1,3,3,1,0
19.765,2,1,1,0,1,0,2,1
19.77,3,2,3,3,2,2,2,2
19.775,2,0,4,2,4,1,4,3
19.78,2,2,3,1,0,1,2,2
19.785,1,0,3,2,0,0,1,1
19.79,1,2,5,2,2,2,0,2
19.795,1,2,1,2,0,1,1,1
19.8,1,3,5,0,2,3,1,2
19.805,0,0,2,0,3,3,1,0
19.81,1,2,1,1,1,1,3,0
19.815,2,0,3,1,5,1,1,0
19.82,1,1,3,1,3,0,2,3
19.825,0,1,1,2,0,0,1,2
19.83,1,3,1,1,0,1,1,1
19.835,2,3,19,0,2,3,0,2
19.84,2,5,30,1,0,1,1,1
19.845,3,1,4,3,2,1,2,1
19.85,2,0,8,0,1,1,0,0
19.855,1,3,2,2,2,1,0,2
19.86,1,4,12,3,1,2,2,2
19.865,1,2,3,2,0,0,1,1
19.87,0,2,13,2,1,1,1,0
19.875,2,5,6,4,3,2,1,0
19.88,0,0,8,0,5,2,1,4
19.885,3,1,9,3,1,3,1,2
19.89,1,1,16,2,4,1,2,2
19.895,2,1,13,2,1,0,4,1
19.9,3,6,2,1,2,1,1,0
19.905,0,0,7,2,1,2,1,0
19.91,3,1,3,4,1,2,1,4
19.915,2,0,25,3,1,1,2,0
19.92,2,1,18,2,1,2,1,1
19.925,0,5,5,2,4,2,1,1
19.93,2,7,6,1,5,4,1,1
19.935,0,1,0,2,1,3,1,1
19.94,1,2,11,4,4,0,1,1
19.945,2,0,7,0,1,1,1,1
19.95,0,0,21,5,3,3,1,1
19.955,0,3,41,3,2,3,1,1
19.96,2,6,9,5,2,1,3,1
19.965,0,3,21,3,5,5,3,1
19.97,1,0,14,2,2,1,2,0
19.975,0,2,15,3,7,2,3,2
19.98,2,2,10,1,5,6,0,2
19.985,2,0,15,4,5,5,3,2
19.99,0,2,10,5,6,3,2,0
19.995,1,5,12,1,2,0,2,2
20,0,2,1,2,1,1,1,1
20.005,2,1,12,4,3,4,4,3
20.01,2,4,1,2,4,1,2,3
20.015,0,1,9,7,0,1,1,1
20.02,0,1,3,1,0,2,1,1
20.025,2,1,10,2,1,2,1,2
20.03,1,4,9,2,1,1,0,1
20.035,1,2,3,3,2,1,0,2
20.04,3,5,6,0,0,0,0,3
20.045,1,2,6,2,2,4,3,0
20.05,1,4,22,5,5,0,2,2
20.055,0,0,27,5,2,1,0,1
20.06,0,4,1,2,3,1,4,0
20.065,3,3,5,1,2,3,0,1
20.07,2,1,4,2,3,3,1,2
20.075,1,3,14,5,2,0,2,0
20.08,1,0,7,1,3,1,2,3
20.085,1,1,4,1,1,0,1,1
20.09,2,2,1,1,3,5,4,2
20.095,2,1,10,1,1,2,1,1
20.1,1,0,9,2,0,1,2,1
20.105,2,0,6,3,2,1,1,0
20.11,1,1,0,0,2,4,1,1
20.115,2,2,3,4,2,2,1,3
20.12,0,0,10,1,1,0,0,0
20.125,2,2,7,2,3,1,0,4
20.13,0,3,17,3,6,2,2,0
20.135,2,1,33,1,0,6,6,2
20.14,2,1,31,3,2,13,2,1
20.145,0,2,16,0,0,19,1,1
20.15,0,2,9,3,1,3,0,1
20.155,1,2,13,0,4,1,3,3
20.16,2,3,16,2,1,6,2,2
20.165,2,8,13,1,1,1,1,2
20.17,2,5,17,2,9,4,4,3
20.175,2,3,6,3,5,5,2,1
20.18,1,0,1,2,0,19,1,0
20.185,1,0,5,1,0,6,1,1
20.19,0,2,0,1,1,0,3,0
20.195,2,3,8,1,2,4,4,1
20.2,0,0,2,3,4,5,2,3
20.205,2,4,5,2,3,4,2,1
20.21,1,1,5,4,1,1,2,1
20.215,1,2,1,2,0,3,1,0
20.22,2,1,11,5,2,2,1,3
20.225,3,2,29,8,5,4,3,1
20.23,2,2,18,1,1,2,3,15
20.235,3,1,14,1,1,1,3,18
20.24,1,1,8,5,4,1,2,0
20.245,1,1,4,0,2,5,0,4
20.25,1,3,13,1,2,2,2,1
20.255,0,0,11,1,2,6,1,9
20.26,3,3,9,1,1,0,1,5
20.265,0,1,19,1,4,9,3,3
20.27,2,3,11,1,3,13,0,5
20.275,1,3,2,4,0,7,4,1
20.28,2,1,17,3,0,2,2,3
20.285,1,4,14,2,1,7,3,2
20.29,2,10,7,1,2,3,2,8
20.295,5,4,19,2,2,0,1,0
20.3,6,7,8,3,2,4,4,19
20.305,1,4,2,4,1,2,1,3
20.31,1,0,4,1,0,4,1,11
20.315,1,8,20,7,4,0,0,13
20.32,5,3,22,2,1,3,2,10
20.325,1,1,6,5,2,0,3,4
20.33,1,2,32,5,2,3,1,1
20.335,2,1,6,3,0,3,2,3
20.34,1,3,27,2,3,1,1,5
20.345,1,3,21,3,3,2,1,3
20.35,3,6,19,2,3,1,0,1
20.355,2,1,20,1,8,4,0,3
20.36,1,4,0,0,7,1,1,2
20.365,0,4,3,0,4,2,2,1
20.37,1,2,26,3,3,6,4,5
20.375,3,0,8,2,3,3,4,5
20.38,1,5,6,1,4,1,2,5
20.385,2,7,19,4,2,0,4,5
20.39,3,1,2,0,2,4,0,9
20.395,1,4,1,6,3,1,3,13
20.4,0,4,4,1,1,1,3,4
20.405,1,3,3,1,4,3,0,3
20.41,3,5,8,1,2,1,2,3
20.415,1,7,14,0,5,5,0,4
20.42,0,7,12,0,2,2,2,1
20.425,0,3,32,8,1,5,0,5
20.43,3,6,2,2,2,5,1,10
20.435,0,2,20,1,2,0,2,3
20.44,2,2,22,5,1,4,2,1
20.445,2,1,7,1,3,1,1,4
20.45,0,3,18,2,0,0,3,8
20.455,3,8,14,3,3,3,1,1
20.46,0,8,8,3,1,0,2,4
20.465,1,7,16,1,1,2,2,1
20.47,1,2,9,1,3,3,1,4
20.475,2,7,18,1,0,5,1,1
20.48,4,0,23,1,3,5,1,1
20.485,1,1,2,0,1,3,2,1
20.49,3,2,2,2,1,4,3,11
20.495,2,5,16,6,5,0,0,3
20.5,0,5,3,1,0,2,0,3
20.505,2,0,10,2,3,4,4,5
20.51,1,1,2,1,0,0,1,3
20.515,0,3,20,4,0,5,2,14
20.52,2,2,8,0,5,9,6,23
20.525,3,1,10,2,1,4,2,8
20.53,5,8,5,1,5,11,4,1
20.535,4,5,23,1,3,4,4,3
20.54,0,2,12,6,0,8,2,5
20.545,0,2,2,2,2,2,1,6
20.55,2,1,10,2,0,2,1,7
20.555,2,1,12,1,1,1,2,3
20.56,0,1,5,2,4,2,1,3
20.565,2,2,4,1,3,1,0,5
20.57,0,3,29,4,1,2,0,2
20.575,1,9,9,5,1,2,2,1
20.58,3,3,3,3,2,4,1,1
20.585,7,25,2,3,2,3,5,2
20.59,2,6,12,3,0,3,1,1
20.595,1,3,9,0,1,0,2,3
20.6,1,2,0,2,1,5,4,1
20.605,1,13,1,3,1,1,1,1
20.61,2,1,6,2,1,0,1,2
20.615,2,2,15,2,0,1,1,2
20.62,2,4,37,5,1,1,3,1
20.625,1,0,12,1,3,0,0,1
20.63,1,3,4,3,1,1,2,1
20.635,1,0,9,2,3,2,2,2
20.64,1,3,14,2,1,6,4,1
20.645,2,6,7,1,0,5,4,2
20.65,1,1,15,1,3,9,8,1
20.655,1,2,3,2,4,7,4,2
20.66,1,4,21,1,1,4,1,0
20.665,1,3,6,0,1,6,4,0
20.67,1,3,4,3,0,2,1,1
20.675,2,2,18,2,4,4,0,3
20.68,3,1,2,2,2,1,2,2
20.685,3,3,6,1,3,1,2,1
20.69,2,2,2,1,3,3,1,1
20.695,1,6,13,1,3,1,3,2
20.7,1,0,12,2,1,2,1,1
20.705,1,1,23,4,0,2,1,1
20.71,3,0,2,4,1,1,1,2
20.715,1,5,4,2,2,3,1,1
20.72,2,2,4,2,4,3,1,1
20.725,1,3,8,1,0,1,3,1
20.73,1,0,19,1,1,1,0,0
20.735,0,3,19,2,0,1,3,1
20.74,2,3,4,3,0,3,6,0
20.745,0,1,19,5,2,3,1,2
20.75,3,1,7,1,2,1,2,1
20.755,1,1,10,1,2,4,3,1
20.76,1,7,13,1,2,1,0,2
20.765,0,3,8,2,4,5,1,0
20.77,0,0,3,2,2,6,4,1
20.775,1,1,11,3,0,7,4,1
20.78,1,1,6,1,1,2,4,1
20.785,1,2,23,0,3,1,0,3
20.79,0,4,10,0,4,5,0,1
20.795,2,0,7,2,4,3,4,0
20.8,2,2,2,2,1,1,1,4
20.805,1,2,5,1,0,2,0,2
20.81,0,2,8,1,3,3,4,1
20.815,1,4,5,3,3,3,1,8
20.82,3,3,19,4,1,1,0,15
20.825,0,1,15,2,1,0,1,1
20.83,1,1,7,0,1,1,1,3
20.835,1,5,21,6,3,0,0,0
20.84,1,1,2,1,2,3,3,3
20.845,2,4,4,2,2,1,2,3
20.85,1,4,17,2,3,2,1,0
20.855,0,5,14,4,1,5,3,4
20.86,1,1,1,1,2,3,5,2
20.865,1,4,6,2,1,3,2,3
20.87,1,2,16,6,3,1,2,1
20.875,2,3,7,0,1,3,3,5
20.88,1,2,4,2,0,4,3,0
20.885,1,3,8,2,1,1,0,2
20.89,2,0,1,1,0,1,0,3
20.895,1,1,4,3,1,4,2,3
20.9,0,0,2,1,3,5,1,2
20.905,1,0,2,1,3,0,3,1
20.91,1,1,3,2,4,4,3,3
20.915,2,5,3,1,1,5,5,2
20.92,1,1,12,1,5,2,2,2
20.925,0,2,13,2,1,1,2,1
20.93,2,0,13,2,4,3,2,1
20.935,2,0,3,1,1,2,1,4
20.94,2,1,9,2,4,1,2,0
20.945,1,1,1,2,1,1,4,3
20.95,2,4,11,2,3,1,1,2
20.955,0,1,29,1,1,2,1,2
20.96,3,1,9,1,3,1,0,11
20.965,3,1,8,2,3,5,0,15
20.97,0,4,5,1,0,0,1,1
20.975,2,2,7,0,4,1,1,0
20.98,2,2,5,1,1,1,0,1
20.985,1,5,37,5,2,1,1,4
20.99,1,0,7,1,1,1,1,1
20.995,1,1,15,3,0,2,2,1
21,1,4,14,2,5,1,1,2
21.005,3,5,27,2,2,1,2,4
21.01,1,7,31,8,0,3,3,4
21.015,0,2,1,1,1,1,1,0
21.02,0,2,5,2,2,4,4,4
21.025,2,3,12,2,0,0,1,2
21.03,1,2,9,0,3,3,0,1
21.035,3,3,15,4,4,1,1,2
21.04,0,2,2,0,3,0,1,3
21.045,0,3,4,3,0,1,1,2
21.05,1,1,4,0,1,1,2,0
21.055,2,4,3,3,3,8,4,2
21.06,3,3,0,1,1,7,0,3
21.065,0,0,9,2,1,6,3,2
21.07,2,3,7,5,3,1,1,2
21.075,1,2,13,1,1,1,1,3
21.08,1,2,21,6,1,4,3,2
21.085,1,0,25,2,1,2,2,1
21.09,2,5,9,6,3,4,0,1
21.095,1,0,3,1,2,5,2,1
21.1,1,0,3,0,1,1,0,0
21.105,1,5,7,1,1,0,2,2
21.11,0,3,14,1,1,3,3,1
21.115,3,1,25,1,1,5,0,1
21.12,2,1,9,3,1,6,6,0
21.125,2,0,3,0,0,3,1,2
21.13,1,2,9,0,1,3,2,0
21.135,2,9,3,3,0,1,2,3
21.14,0,3,6,0,2,0,0,3
21.145,0,0,7,3,1,1,1,1
21.15,1,0,11,2,2,2,1,1
21.155,0,0,10,0,1,0,1,1
21.16,2,7,4,2,1,3,3,3
21.165,1,1,1,2,0,3,2,0
21.17,0,2,12,2,1,1,4,2
21.175,2,3,17,2,3,0,1,0
21.18,1,2,6,1,3,2,2,2
21.185,1,3,3,6,0,2,1,2
21.19,1,0,3,2,2,3,2,0
21.195,0,1,2,1,0,1,1,2
21.2,1,3,3,3,1,1,0,0
21.205,0,1,9,2,0,4,2,2
21.21,2,2,3,0,1,2,1,2
21.215,1,1,37,9,3,3,3,0
21.22,1,1,9,0,3,2,0,1
21.225,3,0,0,1,1,0,1,1
21.23,2,6,10,0,1,3,1,1
21.235,0,3,17,4,3,2,0,1
21.24,3,2,0,5,2,2,2,2
21.245,2,1,17,3,2,3,3,3
21.25,1,0,9,1,2,0,1,0
21.255,1,3,6,1,1,1,1,1
21.26,2,1,0,1,1,2,0,1
21.265,2,0,1,1,4,1,1,1
21.27,0,0,11,1,1,2,0,1
21.275,1,2,4,5,4,1,1,0
21.28,0,2,3,1,5,3,6,0
21.285,3,6,15,3,1,1,1,1
21.29,2,1,3,2,3,0,1,2
21.295,1,1,5,4,3,0,2,2
21.3,3,5,10,2,0,0,2,0
21.305,2,4,17,2,2,2,1,0
21.31,1,6,6,1,1,1,2,1
21.315,3,2,3,1,2,8,3,1
21.32,0,2,8,2,2,13,3,1
21.325,1,1,5,2,2,4,2,1
21.33,1,2,5,1,4,2,1,2
21.335,0,0,4,2,4,4,2,1
21.34,4,2,5,1,2,7,0,2
21.345,0,1,8,0,1,0,0,2
21.35,2,0,5,0,4,1,1,3
21.355,1,0,8,6,2,1,1,1
21.36,2,2,6,2,2,3,2,1
21.365,2,1,12,0,4,2,1,2
21.37,3,2,16,5,3,3,1,1
21.375,2,5,7,0,1,1,1,3
21.38,1,4,7,1,1,3,1,2
21.385,1,0,5,3,2,2,3,2
21.39,1,1,16,3,2,0,0,2
21.395,1,3,11,1,2,2,3,1
21.4,0,1,2,0,1,3,1,1
21.405,1,3,2,3,2,2,0,2
21.41,2,6,15,3,1,0,3,0
21.415,0,8,7,3,1,2,1,1
21.42,2,3,7,0,2,2,3,0
21.425,1,0,8,2,2,2,2,4
21.43,1,3,16,4,1,3,1,1
21.435,1,3,10,3,0,3,1,2
21.44,1,2,7,1,4,1,1,0
21.445,1,8,1,1,2,2,0,2
21.45,1,1,13,3,1,2,1,1
21.455,2,5,9,2,0,0,3,2
21.46,2,5,7,0,3,3,0,2
21.465,1,0,8,1,1,6,2,1
21.47,2,3,8,2,3,4,2,2
21.475,1,2,3,2,1,9,1,0
21.48,0,2,4,2,1,5,6,4
21.485,2,3,1,1,2,1,1,3
21.49,0,0,10,0,1,5,2,2
21.495,1,1,3,1,2,2,0,2
21.5,2,1,12,3,1,0,1,2
21.505,0,1,0,2,2,1,2,1
21.51,1,1,19,1,4,1,0,2
21.515,3,3,22,4,2,2,1,1
21.52,1,1,1,3,1,4,2,1
21.525,0,2,18,3,5,1,0,1
21.53,1,3,3,1,4,0,1,1
21.535,0,1,13,0,1,2,1,1
21.54,3,1,11,3,3,3,3,2
21.545,1,1,0,2,3,1,0,1
21.55,2,4,1,1,3,6,3,3
21.555,1,1,4,0,2,2,0,2
21.56,1,2,2,2,2,3,0,0
21.565,1,1,3,5,3,3,2,0
21.57,1,3,6,1,1,2,1,0
21.575,3,3,0,3,1,8,3,1
21.58,5,12,8,2,5,3,0,1
21.585,1,1,4,3,2,2,2,1
21.59,2,4,2,1,2,5,2,1
21.595,1,0,4,4,1,2,0,0
21.6,0,2,3,1,2,0,2,1
21.605,1,0,15,4,0,2,1,3
21.61,2,6,33,5,0,1,1,2
21.615,2,3,2,3,1,6,6,2
21.62,0,1,14,4,0,1,2,1
21.625,2,1,5,2,5,6,2,1
21.63,2,2,4,1,0,0,0,1
21.635,0,1,3,4,3,0,1,2
21.64,1,0,8,3,2,3,1,2
21.645,2,3,4,1,2,0,0,0
21.65,0,4,7,1,2,1,2,0
21.655,0,2,13,0,3,0,1,1
21.66,0,3,3,0,0,1,2,1
21.665,1,0,5,0,1,1,1,0
21.67,1,4,0,0,0,1,4,3
21.675,1,0,6,1,6,3,1,4
21.68,2,1,2,3,0,1,0,2
21.685,2,1,10,1,4,3,1,1
21.69,1,1,4,1,4,1,1,2
21.695,2,0,3,1,0,1,1,1
21.7,1,1,4,1,0,0,0,2
21.705,3,3,16,5,1,12,9,2
21.71,1,1,4,1,1,13,3,1
21.715,2,0,4,2,2,2,2,1
21.72,0,0,16,4,5,2,1,0
21.725,1,1,6,1,0,1,1,1
21.73,0,2,5,1,1,3,0,0
21.735,1,2,0,3,3,5,4,0
21.74,0,2,9,3,1,4,2,1
21.745,1,1,13,3,3,2,1,0
21.75,0,3,28,0,3,4,3,1
21.755,2,5,38,2,2,1,0,1
21.76,0,1,6,0,1,4,1,1
21.765,1,3,9,1,2,3,1,1
21.77,1,1,1,0,2,1,2,0
21.775,2,0,3,2,0,3,3,0
21.78,2,3,13,3,0,1,1,1
21.785,0,1,2,0,1,3,3,0
21.79,1,6,4,5,0,5,4,1
21.795,3,0,5,2,1,1,2,4
21.8,0,1,10,2,4,3,4,1
21.805,2,4,17,4,3,1,1,1
21.81,0,1,18,1,3,12,4,2
21.815,2,1,0,1,0,17,3,0
21.82,2,1,2,0,3,1,1,1
21.825,0,1,2,1,1,2,1,1
21.83,2,5,10,1,2,3,2,1
21.835,0,2,7,1,0,8,2,2
21.84,1,1,10,1,1,2,1,1
21.845,0,1,2,2,1,2,3,3
21.85,1,1,8,1,2,0,1,0
21.855,0,1,22,3,2,3,2,1
21.86,0,0,0,1,2,2,2,0
21.865,0,4,17,2,0,2,3,3
21.87,0,1,6,2,2,1,3,2
21.875,0,0,9,4,2,1,2,1
21.88,0,3,13,4,0,3,1,0
21.885,2,0,13,1,1,0,1,1
21.89,0,0,10,1,2,1,2,0
21.895,0,2,31,4,0,2,1,1
21.9,2,4,37,1,2,3,1,1
21.905,1,2,36,6,1,1,2,1
21.91,1,0,7,1,0,0,1,1
21.915,3,2,2,0,1,1,1,0
21.92,2,1,8,1,1,2,1,3
21.925,2,3,21,2,1,9,2,2
21.93,0,2,12,3,1,9,1,0
21.935,2,1,14,1,2,3,0,1
21.94,2,1,10,5,1,4,0,1
21.945,2,2,1,1,1,1,3,3
21.95,1,1,3,0,7,6,0,1
21.955,1,3,7,2,5,1,2,1
21.96,2,0,7,3,3,2,3,1
21.965,1,1,3,1,0,3,4,0
21.97,0,3,2,0,1,2,1,1
21.975,1,2,0,1,3,4,1,1
21.98,1,0,11,2,1,3,2,2
21.985,0,4,9,3,2,2,0,2
21.99,3,1,14,3,2,1,0,0
21.995,1,1,10,4,2,2,1,2
22,0,1,10,3,1,0,0,0
22.005,0,1,7,1,4,1,1,1
22.01,2,2,14,2,1,0,2,2
22.015,3,1,9,1,5,2,1,2
22.02,2,0,5,1,2,2,4,2
22.025,1,3,11,4,2,3,2,0
22.03,3,3,5,3,1,3,3,2
22.035,1,3,4,2,2,0,1,0
22.04,0,4,0,2,0,1,2,1
22.045,2,1,0,2,2,0,0,1
22.05,2,5,10,2,2,0,0,2
22.055,1,7,18,1,5,3,1,4
22.06,0,2,4,1,2,3,3,1
22.065,0,2,5,0,0,4,3,0
22.07,5,0,21,3,1,1,3,2
22.075,1,3,16,4,3,1,2,2
22.08,1,1,0,1,1,2,1,0
22.085,1,1,5,1,0,3,0,0
22.09,3,5,23,1,0,3,3,1
22.095,0,4,12,4,1,1,1,0
22.1,2,5,3,1,3,1,1,2
22.105,1,0,11,1,2,2,0,2
22.11,1,1,15,1,1,3,2,2
22.115,2,3,0,1,1,1,0,0
22.12,1,2,2,1,3,1,1,1
22.125,3,2,0,5,1,1,0,1
22.13,0,0,1,1,3,2,1,1
22.135,1,2,1,1,1,4,5,1
22.14,1,2,12,0,0,2,1,1
22.145,1,1,9,3,1,3,0,1
22.15,2,6,17,5,1,3,4,1
22.155,0,0,5,4,0,0,2,2
22.16,1,1,6,2,1,1,2,4
22.165,0,4,8,0,2,0,1,1
22.17,2,2,10,1,3,1,1,1
22.175,1,2,8,1,2,2,1,2
22.18,1,0,2,3,5,2,1,3
22.185,1,0,11,4,4,3,2,2
22.19,0,1,19,2,0,3,2,2
22.195,0,1,8,0,3,2,0,2
22.2,2,4,6,1,4,1,2,1
22.205,3,0,3,2,3,1,0,0
22.21,1,5,14,1,1,5,1,0
22.215,2,2,13,2,0,1,2,1
22.22,0,1,2,1,0,2,2,1
22.225,2,4,5,1,5,0,1,2
22.23,1,2,6,3,3,1,4,0
22.235,1,2,1,1,0,3,0,1
22.24,3,0,3,4,1,0,2,0
22.245,1,0,12,2,4,3,6,2
22.25,1,3,2,1,1,1,0,2
22.255,3,4,29,1,2,0,3,1
22.26,0,0,21,1,0,0,1,1
22.265,2,4,1,1,2,2,0,2
22.27,1,1,15,3,0,3,1,2
22.275,2,3,4,0,4,1,0,1
22.28,0,2,7,0,2,2,0,1
22.285,2,2,2,2,3,0,1,0
22.29,1,3,9,5,2,3,2,1
22.295,1,1,2,1,3,1,1,1
22.3,3,4,4,1,1,1,1,1
22.305,3,5,2,1,1,1,1,1
22.31,0,6,3,1,1,0,0,1
22.315,1,2,5,5,0,1,1,1
22.32,2,3,3,1,1,0,2,0
22.325,0,2,18,3,2,4,6,1
22.33,0,2,7,1,1,0,3,2
22.335,1,3,3,1,2,3,2,3
22.34,0,7,7,3,1,1,1,1
22.345,2,1,9,0,2,0,0,1
22.35,1,3,3,3,3,5,1,1
22.355,0,2,12,3,1,2,2,0
22.36,2,1,12,3,2,0,0,1
22.365,0,3,3,2,1,1,2,2
22.37,3,0,3,1,2,3,5,0
22.375,2,7,5,1,2,0,3,0
22.38,2,1,6,4,2,2,1,0
22.385,0,0,3,2,1,1,1,1
22.39,1,1,46,4,3,0,1,2
22.395,1,5,49,5,3,2,2,2
22.4,1,2,9,1,2,0,1,0
22.405,4,1,1,2,1,0,1,1
22.41,0,0,1,0,1,0,1,2
22.415,3,2,22,3,0,0,0,1
22.42,1,3,19,4,4,0,0,1
22.425,0,1,1,2,2,1,1,2
22.43,3,3,8,1,1,2,4,2
22.435,1,0,1,1,4,2,1,0
22.44,1,2,6,1,1,2,0,0
22.445,2,2,6,0,2,3,0,0
22.45,0,2,11,1,4,0,0,1
22.455,0,0,5,1,0,1,0,1
22.46,1,2,14,4,0,4,4,0
22.465,3,3,8,2,1,1,2,1
22.47,3,1,5,1,1,1,0,0
22.475,2,3,2,1,0,0,3,3
22.48,2,0,4,2,1,4,1,1
22.485,0,3,2,1,3,2,0,0
22.49,2,1,6,1,0,3,1,0
22.495,1,1,6,1,2,1,1,3
22.5,1,1,3,3,1,1,0,2
22.505,1,0,2,5,1,1,2,1
22.51,1,2,8,1,4,0,0,0
22.515,1,4,8,3,2,3,0,0
22.52,0,4,6,1,2,1,3,2
22.525,0,1,18,1,0,0,0,1
22.53,0,3,5,2,1,1,1,1
22.535,2,4,4,2,0,0,1,1
22.54,1,2,6,1,0,4,0,2
22.545,2,4,2,2,3,5,1,4
22.55,2,3,4,1,1,1,1,2
22.555,1,1,2,2,0,0,3,1
22.56,2,5,2,0,1,1,0,0
22.565,0,3,9,1,0,0,0,1
22.57,0,1,4,2,1,2,0,1
22.575,3,1,5,1,6,3,0,3
22.58,0,2,2,2,3,0,1,1
22.585,1,1,7,2,3,0,1,1
22.59,1,1,13,4,2,1,1,1
22.595,3,4,5,1,1,0,2,1
22.6,1,0,4,2,1,0,0,1
22.605,1,1,3,1,0,2,1,2
22.61,2,2,10,3,1,1,1,1
22.615,2,2,1,0,0,1,0,0
22.62,3,2,5,0,2,2,0,2
22.625,1,2,6,1,4,2,3,1
22.63,1,1,1,0,2,1,0,1
22.635,1,1,2,3,1,2,2,0
22.64,0,0,5,1,2,0,2,0
22.645,1,2,22,4,3,0,1,3
22.65,0,0,13,1,0,4,2,1
22.655,1,5,2,0,2,1,0,3
22.66,2,0,15,3,2,2,2,2
22.665,2,1,6,5,3,1,0,0
22.67,2,4,20,6,4,0,1,1
22.675,0,0,6,2,1,3,1,2
22.68,1,4,21,2,2,1,0,0
22.685,0,1,15,4,1,1,1,1
22.69,1,3,8,2,2,3,2,1
22.695,1,0,3,1,1,4,0,2
22.7,2,0,3,2,2,1,0,1
22.705,0,2,6,0,1,0,2,0
22.71,1,1,2,0,2,1,1,2
22.715,2,1,0,4,2,1,1,2
22.72,1,3,6,1,1,1,1,1
22.725,2,0,5,4,0,4,2,0
22.73,1,0,5,0,1,0,3,1
22.735,1,0,6,2,4,4,2,2
22.74,0,0,3,0,3,1,2,3
22.745,1,1,7,0,2,0,3,2
22.75,0,4,4,1,0,2,0,0
22.755,2,2,2,2,5,0,1,1
22.76,1,2,7,1,0,1,1,1
22.765,1,1,1,1,1,0,3,1
22.77,1,1,0,3,0,3,1,1
22.775,1,2,5,3,1,1,2,1
22.78,3,3,7,2,0,3,1,1
22.785,0,1,9,3,1,1,0,0
22.79,1,4,5,0,1,1,0,0
22.795,2,1,7,1,1,0,0,1
22.8,3,7,1,2,2,2,1,5
22.805,1,2,0,3,1,1,2,1
22.81,4,2,4,0,0,0,2,3
22.815,0,2,10,1,1,1,0,1
22.82,1,2,1,1,1,1,0,1
22.825,3,1,4,1,1,1,2,1
22.83,4,3,10,1,2,1,1,1
22.835,1,2,12,0,1,1,2,0
22.84,0,1,1,6,7,0,0,1
22.845,3,1,3,1,2,2,1,3
22.85,1,0,15,2,1,1,2,1
22.855,4,1,12,4,1,1,0,0
22.86,1,0,0,1,0,1,1,1
22.865,1,3,10,1,0,2,0,1
22.87,3,1,12,1,2,0,1,1
22.875,2,0,1,0,1,1,2,2
22.88,1,4,9,3,3,0,0,1
22.885,1,2,5,4,1,1,1,0
22.89,3,2,3,0,2,1,2,0
22.895,2,2,7,2,3,1,0,2
22.9,1,3,3,1,1,2,2,0
22.905,0,1,8,4,1,0,1,2
22.91,0,2,3,3,2,3,1,2
22.915,1,1,2,1,2,4,2,4
22.92,1,4,8,2,2,2,2,0
22.925,2,4,14,2,0,1,1,0
22.93,3,1,3,2,0,2,2,4
22.935,0,2,10,1,3,1,1,1
22.94,1,1,6,1,4,3,3,1
22.945,3,0,10,2,1,4,1,3
22.95,1,1,6,1,3,0,1,0
22.955,0,2,3,2,1,2,0,0
22.96,2,1,9,1,4,0,1,2
22.965,1,0,9,0,0,1,0,2
22.97,1,0,4,0,2,1,1,2
22.975,1,2,8,4,3,1,3,1
22.98,1,2,1,0,2,0,2,2
22.985,2,3,12,3,0,0,1,1
22.99,0,0,10,2,0,0,0,0
22.995,0,2,7,1,4,2,0,1
23,1,4,1,2,2,2,1,0
23.005,1,1,7,0,1,3,2,0
23.01,2,0,19,0,2,3,0,0
23.015,1,2,4,0,0,1,1,1
23.02,1,1,2,0,1,1,1,0
23.025,0,1,9,2,1,3,1,4
23.03,1,1,3,1,2,2,1,2
23.035,0,3,36,7,1,3,1,1
23.04,2,3,3,2,2,3,1,1
23.045,1,2,1,1,1,2,3,0
23.05,1,2,1,1,1,1,1,0
23.055,2,3,2,1,4,0,2,1
23.06,0,1,2,2,3,0,1,1
23.065,1,3,4,3,4,2,2,4
23.07,4,4,7,2,4,2,0,3
23.075,2,1,9,1,2,2,1,1
23.08,1,1,2,1,1,0,2,3
23.085,3,0,5,2,1,3,1,2
23.09,1,3,3,2,0,1,1,2
23.095,2,3,2,0,0,1,1,1
23.1,1,3,0,3,2,5,0,1
23.105,3,1,17,0,3,2,2,2
23.11,0,1,29,5,1,0,2,0
23.115,0,0,29,3,0,2,1,3
23.12,2,3,15,2,0,2,3,1
23.125,1,11,1,1,2,0,0,1
23.13,0,0,2,2,1,1,1,2
23.135,0,3,8,2,2,1,1,1
23.14,3,1,16,1,3,2,2,3
23.145,1,1,22,5,3,2,2,3
23.15,3,2,8,3,3,2,2,1
23.155,2,3,4,0,3,2,2,3
23.16,2,1,2,1,1,0,0,0
23.165,1,0,2,1,2,1,2,0
23.17,1,2,1,0,4,3,0,0
23.175,0,0,5,2,0,1,2,1
23.18,2,2,1,1,0,1,2,1
23.185,1,1,2,2,2,0,2,1
23.19,3,1,9,1,2,1,1,1
23.195,1,0,5,0,1,0,1,2
23.2,2,4,3,2,2,1,2,2
23.205,3,0,4,1,2,2,0,2
23.21,1,2,3,1,0,1,1,1
23.215,1,2,2,4,0,1,1,0
23.22,1,0,2,0,1,0,2,1
23.225,0,2,5,2,4,2,2,2
23.23,1,2,7,1,0,2,3,2
23.235,0,2,3,1,1,2,0,1
23.24,1,0,2,1,2,1,1,1
23.245,3,0,0,1,1,2,0,0
23.25,1,2,2,1,2,0,1,2
23.255,1,1,5,4,5,1,1,1
23.26,1,1,5,1,2,2,1,0
23.265,2,4,6,5,2,2,1,1
23.27,1,1,0,5,6,0,3,1
23.275,2,2,3,1,1,4,1,2
23.28,3,3,2,1,3,3,0,1
23.285,0,2,0,0,2,1,3,2
23.29,2,4,4,4,1,0,1,2
23.295,3,0,1,2,2,0,1,2
23.3,1,1,4,1,2,1,0,0
23.305,0,3,9,3,4,2,0,0
23.31,0,2,1,2,2,2,3,2
23.315,3,1,17,1,2,0,2,1
23.32,0,2,12,4,1,2,3,0
23.325,1,1,18,2,5,1,2,3
23.33,1,0,26,4,0,0,0,0
23.335,0,0,5,1,1,3,1,1
23.34,1,2,4,2,0,0,0,1
23.345,1,4,3,2,1,3,1,1
23.35,1,1,8,1,5,2,1,0
23.355,2,2,13,4,0,2,1,2
23.36,1,2,4,0,1,3,1,2
23.365,1,2,9,2,1,1,1,2
23.37,1,0,6,1,3,0,1,2
23.375,1,3,16,1,2,1,1,0
23.38,3,3,8,1,1,1,2,2
23.385,1,1,4,2,4,2,1,1
23.39,0,2,9,2,2,2,0,0
23.395,1,2,3,1,3,1,0,1
23.4,1,5,1,1,2,2,1,2
23.405,0,3,20,0,1,0,0,2
23.41,1,1,21,0,1,1,1,1
23.415,0,3,4,1,2,2,2,2
23.42,5,2,3,2,3,3,0,0
23.425,2,3,1,1,0,0,1,2
23.43,0,1,3,0,3,2,2,1
23.435,0,4,4,1,1,2,0,2
23.44,1,0,7,0,3,0,1,3
23.445,0,1,2,3,0,1,0,1
23.45,1,3,5,4,0,1,1,2
23.455,1,0,11,3,4,2,0,3
23.46,0,4,3,1,1,3,0,1
23.465,0,6,6,0,0,0,2,0
23.47,0,2,1,4,5,2,3,2
23.475,0,2,25,5,1,3,2,1
23.48,4,6,12,1,5,2,4,3
23.485,1,1,4,2,4,3,1,1
23.49,1,2,7,2,2,1,1,2
23.495,1,0,9,1,2,0,2,1
23.5,2,1,21,3,0,3,2,1
23.505,2,1,4,3,4,2,4,2
23.51,3,1,4,6,2,4,3,1
23.515,1,0,1,6,2,1,0,0
23.52,1,0,0,1,0,1,3,1
23.525,2,4,11,7,6,3,2,0
23.53,1,1,2,2,1,2,2,1
23.535,2,2,3,4,2,3,1,2
23.54,0,2,10,3,3,3,1,1
23.545,2,1,9,2,2,1,1,2
23.55,1,2,1,0,4,3,1,1
23.555,1,3,2,4,1,4,0,2
23.56,0,1,11,2,0,1,0,2
23.565,0,2,15,2,3,1,1,2
23.57,1,3,6,0,4,3,1,1
23.575,2,4,3,4,5,3,1,1
23.58,1,1,2,0,1,1,1,2
23.585,1,1,12,1,3,3,0,0
23.59,2,5,1,2,0,1,3,3
23.595,1,1,6,0,1,3,0,0
23.6,1,1,6,3,1,1,1,2
23.605,3,3,20,0,1,1,1,4
23.61,0,0,10,3,2,1,2,0
23.615,2,0,2,1,1,1,2,1
23.62,0,1,2,0,1,4,2,1
23.625,0,2,3,2,1,3,2,2
23.63,1,2,0,0,2,0,0,1
23.635,1,2,15,3,1,2,1,2
23.64,1,1,3,0,2,3,3,1
23.645,2,5,28,4,4,2,0,1
23.65,2,2,13,1,3,3,0,3
23.655,1,3,7,3,1,0,2,3
23.66,0,0,1,1,2,1,1,2
23.665,1,1,3,1,2,2,3,1
23.67,2,1,1,0,1,1,1,0
23.675,0,2,7,0,4,2,1,2
23.68,1,3,11,6,1,0,0,2
23.685,0,4,7,2,0,2,1,0
23.69,1,3,2,3,2,1,2,1
23.695,2,1,7,1,2,1,1,2
23.7,2,2,3,1,2,2,3,1
23.705,1,1,2,4,0,1,2,1
23.71,1,3,13,1,3,1,1,1
23.715,0,2,1,1,2,1,1,1
23.72,2,2,2,3,5,4,2,1
23.725,2,0,3,1,0,2,0,1
23.73,0,0,6,1,1,2,0,1
23.735,1,2,4,4,1,0,2,1
23.74,1,1,0,1,2,2,1,2
23.745,1,0,13,0,3,0,0,1
23.75,2,3,26,4,2,4,2,0
23.755,1,1,5,2,3,0,2,2
23.76,0,3,7,3,1,1,1,0
23.765,2,0,18,0,2,1,0,1
23.77,0,1,1,2,4,2,0,1
23.775,1,1,1,1,2,1,1,0
23.78,2,3,3,0,0,1,0,1
23.785,1,3,1,1,3,0,1,1
23.79,2,2,0,3,0,0,0,2
23.795,0,1,3,2,1,1,2,3
23.8,2,2,7,1,4,0,1,1
23.805,2,3,2,2,3,1,2,0
23.81,1,1,2,1,1,2,2,3
23.815,1,0,8,1,4,3,0,1
23.82,1,1,13,4,0,3,1,2
23.825,0,1,4,3,3,1,1,1
23.83,1,0,2,1,3,2,0,1
23.835,1,1,3,1,2,1,2,1
23.84,3,2,3,1,1,0,3,1
23.845,0,3,4,3,3,3,3,1
23.85,0,3,8,1,4,1,1,0
23.855,1,1,4,3,4,1,1,2
23.86,1,1,9,0,2,2,2,1
23.865,2,6,17,5,2,3,4,2
23.87,2,1,15,4,2,1,2,1
23.875,1,0,11,3,0,3,0,1
23.88,0,4,3,0,1,0,1,1
23.885,2,2,17,0,2,0,0,0
23.89,1,4,29,3,3,0,1,2
23.895,1,1,14,2,2,1,1,1
23.9,1,1,3,0,1,3,2,2
23.905,2,1,2,1,0,1,2,0
23.91,2,2,12,1,0,0,0,0
23.915,2,4,0,4,3,2,1,3
23.92,0,1,2,1,2,2,1,0
23.925,0,1,0,1,0,1,1,2
23.93,5,1,1,1,6,4,3,3
23.935,2,1,6,0,3,1,1,2
23.94,1,3,1,2,5,2,1,1
23.945,1,0,2,1,4,0,0,2
23.95,1,1,6,5,3,0,2,1
23.955,0,0,1,1,1,1,2,1
23.96,3,3,2,2,0,3,1,3
23.965,1,1,1,3,2,3,1,1
23.97,1,2,0,1,3,1,1,1
23.975,0,0,8,3,2,1,1,0
23.98,2,3,8,1,0,0,1,1
23.985,1,3,18,1,1,2,1,3
23.99,0,3,6,3,3,1,1,1
23.995,1,1,4,1,2,2,0,0
24,1,1,9,3,1,1,2,2
24.005,3,0,3,0,0,2,1,0
24.01,1,2,8,1,2,0,3,2
24.015,4,4,13,2,2,2,0,2
24.02,1,0,2,2,0,1,1,0
24.025,0,2,8,1,1,1,2,0
24.03,1,2,0,1,2,0,0,2
24.035,1,1,3,3,2,0,1,1
24.04,1,2,6,6,2,0,1,2
24.045,2,0,10,2,0,3,1,1
24.05,2,4,6,1,1,1,0,1
24.055,1,1,5,2,0,0,0,2
24.06,0,3,15,6,1,0,2,2
24.065,1,4,0,1,2,3,2,3
24.07,1,0,12,1,4,0,1,1
24.075,2,1,3,1,0,2,1,1
24.08,0,2,2,6,1,1,0,2
24.085,0,2,5,0,2,1,1,2
24.09,2,1,0,1,2,0,2,1
24.095,0,3,9,3,2,2,2,2
24.1,4,2,4,1,0,0,2,0
24.105,0,0,3,3,2,1,1,2
24.11,2,0,4,1,1,1,1,3
24.115,1,1,1,0,0,1,1,0
24.12,2,2,3,0,2,3,0,1
24.125,1,4,4,2,1,0,1,0
24.13,2,0,5,1,1,3,2,2
24.135,0,2,2,5,2,3,2,2
24.14,4,4,4,3,1,1,1,0
24.145,1,0,7,0,2,1,1,1
24.15,1,2,13,1,5,5,1,0
24.155,1,1,20,5,1,0,1,1
24.16,2,0,4,4,2,1,1,4
24.165,2,2,6,1,0,1,3,1
24.17,1,3,7,2,4,1,2,2
24.175,1,1,14,0,3,1,1,0
24.18,0,3,9,2,2,1,0,0
24.185,3,1,3,3,5,3,0,2
24.19,3,3,3,3,3,2,1,2
24.195,0,1,1,2,1,2,0,0
24.2,0,2,3,1,2,3,1,3
24.205,0,0,6,2,2,3,1,0
24.21,2,1,4,1,3,2,3,3
24.215,2,1,16,2,2,2,1,1
24.22,3,4,11,4,0,1,2,1
24.225,1,7,34,1,1,1,1,0
24.23,1,5,16,1,3,1,1,0
24.235,0,0,3,2,1,2,1,2
24.24,0,3,5,4,1,2,3,2
24.245,1,3,8,1,1,0,0,0
24.25,0,1,2,4,0,2,1,1
24.255,2,3,4,0,0,0,3,3
24.26,0,3,13,2,0,2,1,0
24.265,1,3,0,0,1,2,2,1
24.27,1,1,2,3,2,0,1,0
24.275,3,4,3,2,3,1,1,2
24.28,0,2,10,5,0,1,1,2
24.285,2,0,1,2,3,1,2,0
24.29,2,2,3,1,3,1,2,3
24.295,1,1,8,2,1,1,1,1
24.3,1,1,27,0,3,2,0,1
24.305,1,3,7,2,1,1,1,1
24.31,0,1,7,3,4,1,2,1
24.315,0,0,3,0,1,2,2,1
24.32,2,1,3,3,2,3,3,2
24.325,2,2,10,1,4,2,1,3
24.33,2,1,4,2,4,2,1,0
24.335,2,4,1,0,3,1,3,1
24.34,1,2,1,0,1,0,2,0
24.345,1,4,2,1,1,1,1,1
24.35,0,1,2,1,4,2,3,2
24.355,0,2,19,2,1,3,1,0
24.36,1,1,6,1,5,1,4,1
24.365,0,2,5,4,0,1,2,1
24.37,0,0,1,4,0,0,0,1
24.375,1,0,9,2,1,1,2,1
24.38,0,1,6,0,1,2,0,2
24.385,3,1,3,2,0,4,1,2
24.39,3,0,5,3,2,1,2,2
24.395,0,1,14,2,1,0,1,0
24.4,2,2,12,6,4,2,0,1
24.405,0,2,1,0,3,2,1,0
24.41,1,1,0,2,1,0,0,2
24.415,5,2,3,1,0,2,1,2
24.42,0,3,4,0,3,0,2,0
24.425,0,1,1,3,1,1,1,1
24.43,1,0,5,1,1,1,0,1
24.435,2,3,1,0,1,1,2,0
24.44,1,5,2,0,1,0,0,1
24.445,2,0,8,1,1,4,2,0
24.45,1,4,2,1,3,1,1,1
24.455,2,0,6,1,1,2,3,5
24.46,1,0,1,1,2,1,1,2
24.465,1,0,1,5,1,2,1,0
24.47,1,0,9,0,1,3,2,1
24.475,1,3,2,3,1,1,2,1
24.48,3,2,0,3,3,1,1,0
24.485,0,1,10,2,1,0,0,2
24.49,1,1,2,4,0,1,1,1
24.495,0,2,2,1,5,2,0,1
24.5,1,1,1,2,3,0,1,1
24.505,1,3,2,2,0,3,2,2
24.51,1,1,0,2,2,2,1,0
24.515,2,3,10,3,3,2,1,0
24.52,2,5,6,5,0,2,2,3
24.525,0,2,26,3,5,3,1,0
24.53,1,3,11,2,1,1,3,3
24.535,1,2,4,2,1,0,1,1
24.54,1,1,0,1,2,1,1,1
24.545,4,6,9,2,2,1,1,1
24.55,0,2,8,2,0,0,2,1
24.555,1,0,0,3,1,2,2,3
24.56,0,0,4,1,1,4,1,2
24.565,0,3,4,2,0,3,1,1
24.57,2,3,3,2,0,3,0,0
24.575,2,3,0,0,3,1,1,2
24.58,1,4,6,1,1,3,2,3
24.585,0,1,8,1,1,0,2,0
24.59,1,1,4,1,2,2,2,2
24.595,0,0,6,0,1,2,0,0
24.6,0,3,11,2,3,1,0,3
24.605,1,2,15,5,1,1,3,2
24.61,1,0,2,1,3,1,1,0
24.615,1,3,4,0,0,2,0,1
24.62,1,1,2,5,4,3,3,0
24.625,0,2,10,1,3,2,1,0
24.63,1,4,1,1,1,3,1,2
24.635,2,2,3,1,0,1,1,1
24.64,0,3,6,1,3,0,0,1
24.645,1,1,3,0,6,0,2,1
24.65,2,3,1,4,0,1,1,4
24.655,1,2,7,0,0,3,1,1
24.66,2,3,3,2,6,0,1,0
24.665,0,1,5,2,1,4,1,1
24.67,2,0,5,3,1,1,1,1
24.675,3,0,2,0,2,2,2,1
24.68,2,2,8,2,1,2,1,2
24.685,1,6,8,2,3,0,0,1
24.69,0,1,11,1,3,3,0,1
24.695,2,2,14,3,2,1,2,2
24.7,1,3,29,2,1,1,0,1
24.705,0,0,1,2,4,0,2,1
24.71,3,1,3,0,1,3,0,2
24.715,1,0,0,2,1,1,0,2
24.72,2,1,1,1,3,5,0,1
24.725,0,3,0,1,0,1,2,1
24.73,1,1,3,1,1,3,0,1
24.735,0,1,0,0,2,1,2,0
24.74,3,2,4,1,0,1,3,2
24.745,0,3,8,1,2,0,0,1
24.75,1,2,3,1,1,4,2,1
24.755,1,1,3,1,3,0,3,0
24.76,3,1,2,1,1,2,2,2
24.765,1,1,10,0,3,4,1,0
24.77,0,1,9,1,2,0,1,2
24.775,1,1,2,2,0,3,3,1
24.78,1,0,16,1,1,2,1,1
24.785,2,3,27,4,1,2,1,2
24.79,0,0,8,4,2,2,0,1
24.795,2,3,2,3,1,1,0,1
24.8,1,1,2,1,1,1,1,2
24.805,1,1,3,2,2,1,1,1
24.81,1,3,2,0,1,2,1,1
24.815,1,2,8,1,1,1,0,1
24.82,1,0,1,0,0,0,2,0
24.825,2,1,10,4,1,1,1,1
24.83,0,0,4,3,1,1,0,1
24.835,1,0,3,2,1,2,0,0
24.84,3,6,7,2,3,3,3,1
24.845,2,0,0,1,4,2,2,0
24.85,1,0,2,1,5,0,1,1
24.855,1,1,1,5,3,1,1,1
24.86,1,2,11,4,2,1,1,1
24.865,0,1,6,2,3,1,1,2
24.87,1,2,8,1,2,2,0,1
24.875,1,2,5,0,4,4,0,1
24.88,1,2,2,2,1,1,1,2
24.885,0,1,1,4,4,2,1,0
24.89,3,2,2,0,4,2,2,2
24.895,1,3,5,1,0,2,1,1
24.9,1,0,9,1,2,2,1,0
24.905,1,1,4,0,2,1,1,0
24.91,4,0,4,3,3,3,2,1
24.915,1,2,6,1,0,0,1,2
24.92,1,0,6,2,1,1,1,2
24.925,2,1,8,2,1,1,1,3
24.93,1,3,5,2,1,1,2,0
24.935,2,1,11,1,1,0,2,1
24.94,0,0,15,3,2,2,0,1
24.945,1,1,1,2,2,2,1,0
24.95,3,0,7,1,0,0,2,2
24.955,0,2,10,1,2,2,3,1
24.96,3,1,1,2,5,0,3,2
24.965,0,2,2,1,4,1,1,0
24.97,3,5,4,2,1,2,2,2
24.975,0,2,11,0,3,1,0,1
24.98,1,1,1,0,1,1,0,1
24.985,1,0,5,2,0,2,3,2
24.99,0,5,2,2,3,1,1,1
24.995,2,4,4,0,3,3,1,1
25,0,1,0,2,1,3,1,1
25.005,1,3,0,1,1,0,3,1
25.01,0,2,3,3,1,1,1,1
25.015,1,2,1,2,2,1,3,1
25.02,2,3,4,1,1,0,3,3
25.025,1,2,7,2,2,2,1,1
25.03,2,5,8,5,1,1,0,4
25.035,2,1,15,2,2,1,1,1
25.04,1,3,2,2,2,1,2,0
25.045,1,1,15,4,3,4,0,1
25.05,0,1,2,1,2,3,2,1
25.055,0,1,10,1,1,1,1,1
25.06,1,0,1,1,0,1,2,1
25.065,2,6,4,2,1,1,0,2
25.07,1,2,8,1,2,2,0,2
25.075,1,2,5,3,0,2,1,0
25.08,2,2,9,1,3,0,3,1
25.085,3,1,6,2,1,0,1,2
25.09,0,2,2,0,3,3,2,1
25.095,3,6,4,4,0,2,0,0
25.1,0,2,0,1,0,1,1,0
25.105,1,3,3,2,1,2,2,2
25.11,1,1,6,1,1,1,3,2
25.115,2,4,7,4,2,2,1,0
25.12,0,3,3,2,2,2,1,1
25.125,2,3,8,1,1,1,1,0
25.13,0,0,3,0,0,1,1,0
25.135,1,3,2,1,4,3,2,2
25.14,4,2,0,3,0,1,1,0
25.145,3,1,10,1,3,2,1,1
25.15,1,2,18,5,1,4,3,2
25.155,3,4,3,2,0,1,0,1
25.16,2,0,6,1,1,1,0,2
25.165,2,0,1,1,0,0,1,0
25.17,2,2,1,0,1,1,1,0
25.175,1,0,3,2,6,2,1,0
25.18,0,1,3,0,1,1,2,0
25.185,2,2,2,1,2,1,5,3
25.19,1,3,6,1,1,1,1,0
25.195,1,5,1,1,2,3,1,0
25.2,3,3,3,0,3,4,1,3
25.205,0,2,3,2,2,0,1,0
25.21,2,3,5,1,2,2,1,2
25.215,1,0,7,1,2,1,2,3
25.22,1,4,11,1,1,1,1,1
25.225,0,1,23,3,4,2,1,1
25.23,0,3,5,1,1,3,2,1
25.235,0,0,3,0,1,2,1,1
25.24,2,4,2,1,5,2,1,4
25.245,1,4,3,1,1,0,2,1
25.25,1,1,1,1,1,1,1,1
25.255,2,0,3,1,1,2,1,0
25.26,3,4,9,0,3,2,1,0
25.265,0,1,4,4,0,1,0,1
25.27,0,3,11,2,5,2,1,2
25.275,1,1,9,1,1,0,1,0
25.28,1,1,5,0,1,2,1,0
25.285,1,5,4,1,2,2,2,2
25.29,1,0,5,1,4,2,2,1
25.295,0,1,5,0,3,1,1,1
25.3,1,1,20,2,0,0,2,0
25.305,1,2,0,2,7,2,1,1
25.31,1,2,3,0,4,0,1,0
25.315,0,0,2,1,2,0,1,3
25.32,0,1,1,0,0,0,1,0
25.325,1,3,0,1,1,1,1,0
25.33,3,3,7,3,3,3,1,0
25.335,2,1,2,5,3,1,0,4
25.34,1,1,2,1,1,2,2,2
25.345,0,0,0,2,3,1,2,1
25.35,1,0,4,1,1,1,1,2
25.355,2,2,7,2,2,0,2,2
25.36,2,5,3,0,2,0,0,2
25.365,0,2,1,2,1,0,1,1
25.37,1,2,10,1,0,3,2,2
25.375,1,3,4,1,2,3,1,4
25.38,1,1,1,3,0,2,2,1
25.385,0,3,2,4,2,0,1,0
25.39,3,0,5,2,3,1,3,2
25.395,0,4,21,1,3,3,1,1
25.4,3,1,12,3,3,0,2,1
25.405,1,1,4,2,1,1,2,1
25.41,3,3,1,2,2,0,1,2
25.415,1,1,2,1,1,0,2,1
25.42,0,0,1,1,1,1,0,0
25.425,1,1,7,2,1,2,0,2
25.43,2,2,6,1,0,1,1,2
25.435,4,2,2,1,0,3,2,1
25.44,2,1,2,1,3,0,2,0
25.445,1,2,1,1,1,2,1,1
25.45,2,1,1,2,2,2,1,1
25.455,0,0,12,2,0,1,1,1
25.46,1,1,13,1,2,1,1,1
25.465,3,1,18,3,1,5,3,2
25.47,0,4,1,2,4,1,0,2
25.475,0,2,7,2,1,0,1,1
25.48,2,4,3,3,1,2,2,2
25.485,1,2,4,0,2,0,1,2
25.49,1,1,2,1,3,2,2,3
25.495,2,3,1,1,2,0,2,0
25.5,1,1,1,3,0,1,1,1
25.505,3,0,5,1,0,2,2,0
25.51,2,3,6,1,2,2,0,0
25.515,1,6,13,2,0,1,1,1
25.52,0,1,8,2,2,2,1,1
25.525,1,2,6,3,5,2,1,1
25.53,1,5,15,3,1,1,1,3
25.535,0,0,10,5,3,0,1,3
25.54,0,2,15,1,1,2,0,2
25.545,1,1,8,3,2,1,1,0
25.55,1,3,1,0,2,1,4,1
25.555,1,0,0,3,1,0,0,1
25.56,0,3,0,3,0,1,1,1
25.565,2,3,0,0,1,2,1,2
25.57,0,0,4,1,0,1,0,2
25.575,2,1,4,2,1,2,2,1
25.58,2,1,1,0,1,3,1,0
25.585,1,4,5,1,2,4,1,0
25.59,1,1,0,3,1,1,1,0
25.595,1,1,10,2,0,1,0,0
25.6,1,0,18,4,1,0,1,1
25.605,2,1,5,2,3,0,1,1
25.61,2,1,5,4,0,2,2,2
25.615,2,1,1,3,2,2,0,1
25.62,1,1,3,2,5,2,1,3
25.625,2,2,2,2,0,0,1,2
25.63,1,5,9,4,2,3,2,0
25.635,0,3,15,1,1,2,2,1
25.64,1,3,2,0,0,2,0,2
25.645,0,2,4,1,2,2,2,1
25.65,1,1,5,1,3,4,1,2
25.655,3,1,4,0,1,3,3,1
25.66,2,1,4,2,1,4,2,2
25.665,1,1,2,1,2,0,1,2
25.67,2,2,3,1,1,1,1,3
25.675,1,2,1,0,1,1,1,1
25.68,1,0,3,1,1,0,2,0
25.685,2,4,5,0,1,2,2,0
25.69,2,1,12,2,1,1,1,1
25.695,2,1,1,2,1,1,2,2
25.7,1,2,2,2,1,0,3,0
25.705,0,0,10,2,0,1,0,1
25.71,1,1,1,0,1,1,0,0
25.715,1,4,6,3,4,3,1,2
25.72,1,2,3,1,1,0,0,1
25.725,0,0,3,4,5,1,1,1
25.73,0,6,4,1,2,0,2,1
25.735,2,0,2,1,1,1,1,2
25.74,1,1,3,1,1,0,2,0
25.745,1,3,1,1,3,4,3,2
25.75,1,2,2,0,2,1,1,0
25.755,2,2,5,2,3,0,1,0
25.76,2,4,0,3,3,0,3,2
25.765,3,0,13,0,2,0,0,1
25.77,0,1,4,1,0,1,0,1
25.775,0,0,0,3,1,1,1,0
25.78,1,0,1,2,0,1,0,1
25.785,3,3,11,0,3,2,1,3
25.79,0,1,11,0,4,1,1,1
25.795,1,0,7,1,4,2,2,2
25.8,1,2,4,1,1,4,3,1
25.805,1,1,1,1,0,2,1,1
25.81,1,2,1,1,0,1,0,2
25.815,1,2,4,1,1,2,1,1
25.82,1,2,3,1,5,1,2,3
25.825,0,2,5,1,4,3,1,1
25.83,1,0,1,3,1,1,0,2
25.835,3,3,3,2,1,2,3,0
25.84,2,0,4,3,1,3,1,0
25.845,4,1,2,0,5,1,1,1
25.85,0,0,12,3,0,3,2,2
25.855,0,4,2,1,0,2,0,2
25.86,1,4,9,1,0,0,1,3
25.865,1,1,6,5,0,0,3,2
25.87,1,1,9,1,1,2,1,1
25.875,1,2,11,2,0,2,1,1
25.88,6,9,0,2,1,3,1,1
25.885,0,3,5,3,0,0,1,0
25.89,4,4,8,2,2,1,1,0
25.895,0,0,4,4,1,3,0,2
25.9,1,0,2,2,4,1,2,1
25.905,1,2,0,2,3,1,1,2
25.91,1,0,0,1,1,2,3,1
25.915,0,5,0,1,0,2,0,1
25.92,0,2,6,2,3,1,2,3
25.925,1,3,5,1,1,2,2,3
25.93,3,0,1,1,0,2,0,0
25.935,0,1,1,2,3,0,1,1
25.94,0,1,4,1,2,0,0,0
25.945,1,2,5,1,2,2,0,1
25.95,0,2,1,1,0,1,1,0
25.955,1,0,1,3,1,4,3,4
25.96,1,1,1,2,3,1,1,2
25.965,1,0,7,1,2,1,1,0
25.97,4,4,3,2,2,2,0,1
25.975,3,3,9,3,1,1,1,2
25.98,0,0,4,1,0,0,0,1
25.985,1,5,23,1,3,2,3,0
25.99,0,3,5,3,1,0,1,4
25.995,0,1,3,5,1,0,2,1
26,2,4,3,5,4,3,0,1
26.005,2,1,10,4,1,2,1,2
26.01,2,5,4,0,1,1,2,0
26.015,1,0,1,2,3,2,2,1
26.02,1,0,4,1,1,1,0,1
26.025,1,2,2,4,0,0,2,2
26.03,1,0,3,2,3,0,2,1
26.035,0,2,6,1,0,1,1,1
26.04,1,3,7,1,0,2,1,2
26.045,1,1,14,3,2,1,1,2
26.05,0,2,4,0,0,2,2,2
26.055,1,2,2,0,1,2,1,1
26.06,2,0,0,1,1,1,3,1
26.065,1,4,1,0,0,0,1,2
26.07,2,1,11,3,2,3,3,3
26.075,1,1,3,1,2,0,0,0
26.08,2,6,12,0,0,1,1,1
26.085,1,5,11,2,5,0,0,3
26.09,2,0,10,1,2,0,2,2
26.095,2,6,13,5,3,0,1,1
26.1,0,0,9,6,3,0,3,1
26.105,1,3,12,7,5,1,0,1
26.11,0,2,1,1,1,1,1,0
26.115,1,2,1,1,1,2,1,2
26.12,2,3,13,4,2,3,1,1
26.125,1,2,1,1,5,4,2,2
26.13,2,5,0,1,2,0,1,2
26.135,2,3,7,0,2,2,1,1
26.14,2,3,5,1,2,1,0,1
26.145,1,0,6,3,2,1,0,1
26.15,0,3,1,2,2,2,3,2
26.155,1,3,1,3,2,1,2,2
26.16,2,1,1,0,4,4,0,1
26.165,1,2,5,1,1,1,1,0
26.17,1,2,2,2,1,0,1,1
26.175,2,3,3,0,5,1,2,2
26.18,1,1,4,3,4,1,2,0
26.185,0,1,1,0,0,0,0,1
26.19,0,1,11,2,1,1,0,0
26.195,0,0,17,2,1,0,3,2
26.2,1,3,9,2,1,1,1,1
26.205,1,3,11,1,5,1,1,1
26.21,0,3,8,3,1,1,0,2
26.215,1,4,6,2,2,0,0,0
26.22,1,3,4,2,1,2,1,3
26.225,3,3,2,2,1,1,1,0
26.23,1,1,1,1,4,2,4,0
26.235,2,2,1,4,0,3,1,3
26.24,0,3,5,1,1,1,1,2
26.245,0,1,7,3,1,0,1,2
26.25,3,1,1,2,2,2,1,1
26.255,2,2,4,1,4,3,0,0
26.26,2,2,2,2,2,1,0,2
26.265,1,0,4,1,3,3,1,3
26.27,0,2,1,1,3,0,1,0
26.275,1,0,1,2,1,2,1,0
26.28,0,1,0,0,0,0,0,0
26.285,0,3,4,5,2,1,1,2
26.29,1,2,3,1,1,1,3,1
26.295,1,0,6,2,1,1,2,0
26.3,1,2,1,1,2,3,0,1
26.305,2,1,1,0,1,2,2,1
26.31,2,2,0,2,2,2,1,1
26.315,0,1,3,4,1,3,1,1
26.32,1,3,4,3,2,2,2,0
26.325,3,5,5,3,0,0,2,1
26.33,0,4,8,1,1,2,1,0
26.335,0,1,15,1,5,2,3,0
26.34,2,1,8,1,2,3,0,3
26.345,0,2,1,2,2,4,1,2
26.35,2,1,9,1,3,2,1,1
26.355,1,2,13,4,2,1,0,1
26.36,1,2,2,0,1,2,2,0
26.365,0,3,6,2,0,2,2,0
26.37,1,5,0,1,4,4,1,2
26.375,2,1,5,1,1,0,2,3
26.38,1,1,2,1,0,2,1,0
26.385,0,3,2,0,2,2,1,2
26.39,2,0,4,1,1,1,2,1
26.395,1,1,3,4,0,0,0,1
26.4,2,0,2,3,0,2,1,1
26.405,0,2,1,2,2,2,0,1
26.41,1,1,2,1,1,1,0,1
26.415,0,0,7,2,3,2,0,2
26.42,0,1,9,1,1,1,1,0
26.425,4,4,7,2,0,1,1,1
26.43,0,3,10,1,2,1,3,2
26.435,1,5,1,2,3,1,2,2
26.44,1,1,17,2,0,1,1,1
26.445,2,3,1,2,1,1,0,2
26.45,2,2,11,2,1,1,1,0
26.455,0,3,11,0,4,1,1,0
26.46,1,4,2,5,4,1,2,2
26.465,0,0,1,0,2,4,2,0
26.47,0,1,0,4,2,3,3,1
26.475,2,3,11,1,2,0,1,0
26.48,0,0,4,3,1,0,1,2
26.485,1,0,2,3,5,1,0,0
26.49,1,4,1,2,1,0,1,2
26.495,1,1,1,2,0,1,0,1
26.5,1,4,4,1,2,2,4,2
26.505,1,1,1,1,1,2,1,1
26.51,1,2,12,3,1,0,3,0
26.515,2,3,8,2,1,0,3,1
26.52,2,0,10,1,2,0,1,0
26.525,1,2,7,0,4,1,2,2
26.53,2,1,2,1,1,2,0,3
26.535,1,0,5,0,2,0,1,1
26.54,2,1,7,2,0,3,1,1
26.545,1,2,5,1,1,0,1,2
26.55,0,1,7,2,1,2,3,1
26.555,2,4,3,0,3,1,1,2
26.56,0,0,5,5,1,2,2,2
26.565,1,2,4,3,3,1,0,2
26.57,2,0,8,2,0,1,1,1
26.575,0,6,13,1,2,1,1,2
26.58,1,2,10,3,3,3,2,0
26.585,0,2,2,2,0,1,1,2
26.59,3,0,2,1,3,0,0,1
26.595,0,7,1,2,1,2,3,1
26.6,1,1,0,1,5,4,1,2
26.605,2,2,2,4,1,2,3,1
26.61,0,1,1,0,2,0,0,2
26.615,1,1,3,2,1,0,3,1
26.62,1,4,4,0,1,3,2,0
26.625,1,1,4,1,2,0,1,1
26.63,1,0,4,5,4,1,2,1
26.635,2,1,2,1,1,3,0,0
26.64,2,5,10,3,1,1,1,1
26.645,1,1,9,0,2,0,0,1
26.65,2,1,3,3,3,1,3,3
26.655,1,2,3,3,2,1,2,2
26.66,1,1,8,2,2,0,1,1
26.665,0,2,6,0,3,0,0,1
26.67,0,0,11,2,2,1,3,2
26.675,1,0,18,1,0,2,0,1
26.68,1,0,5,0,1,2,2,0
26.685,1,3,0,5,0,0,0,1
26.69,1,3,1,0,0,2,2,2
26.695,2,0,0,2,4,4,2,1
26.7,1,1,0,2,1,0,0,1
26.705,1,5,4,0,2,0,3,0
26.71,1,1,1,2,2,2,1,2
26.715,2,2,1,5,2,1,0,1
26.72,1,0,4,2,2,0,2,2
26.725,1,0,4,2,0,1,2,1
26.73,1,3,7,1,3,1,1,1
26.735,0,2,9,2,0,0,2,2
26.74,0,4,2,2,0,1,1,0
26.745,2,2,1,1,3,1,2,1
26.75,2,3,1,2,2,0,2,1
26.755,2,0,0,1,1,1,1,1
26.76,2,0,3,1,2,2,2,2
26.765,2,1,2,2,2,1,0,1
26.77,1,1,3,1,3,2,1,3
26.775,2,1,4,1,1,2,1,1
26.78,2,2,3,2,2,0,1,1
