82.505,2,3,3,0,1,4,2,0
82.51,1,4,1,8,4,4,0,0
82.515,1,9,1,3,1,2,1,2
82.52,2,0,4,1,3,1,0,2
82.525,1,0,2,9,1,0,1,2
82.53,4,2,8,2,4,1,0,3
82.535,1,0,6,3,4,4,2,1
82.54,2,2,3,0,1,1,1,0
82.545,2,2,0,1,4,1,0,1
82.55,2,3,1,1,3,0,1,1
82.555,2,2,6,8,3,1,2,3
82.56,0,1,3,3,6,4,1,0
82.565,2,2,4,3,5,2,1,2
82.57,2,4,9,8,1,1,2,3
82.575,1,1,4,9,4,3,1,0
82.58,1,3,7,15,2,3,2,4
82.585,0,1,3,8,7,2,2,0
82.59,1,2,10,24,15,6,1,1
82.595,2,1,3,7,4,1,3,1
82.6,1,2,3,2,11,5,3,1
82.605,3,1,2,12,6,5,2,1
82.61,1,3,11,11,0,1,1,0
82.615,2,0,2,15,0,1,2,1
82.62,4,4,4,10,5,1,0,0
82.625,3,6,13,2,2,2,0,1
82.63,4,9,41,5,1,0,0,1
82.635,3,5,33,9,1,2,1,1
82.64,1,5,30,10,5,3,2,0
82.645,3,4,11,5,0,0,1,1
82.65,2,4,24,16,7,3,4,2
82.655,1,3,28,3,4,1,2,2
82.66,1,1,37,6,4,5,3,2
82.665,2,2,6,13,5,2,1,0
82.67,6,14,50,7,6,4,3,3
82.675,0,3,26,10,9,1,0,1
82.68,2,4,1,11,3,5,3,1
82.685,0,2,22,14,13,1,1,1
82.69,1,1,1,1,1,2,2,0
82.695,2,7,68,6,2,3,3,3
82.7,2,12,40,11,4,3,1,1
82.705,1,12,20,8,10,7,5,4
82.71,1,7,38,10,6,10,2,0
82.715,2,5,1,3,4,11,1,1
82.72,3,7,51,10,4,15,8,2
82.725,5,6,10,1,3,18,3,15
82.73,3,7,20,12,3,24,7,10
82.735,0,6,3,8,0,0,1,0
82.74,3,9,21,5,1,12,4,4
82.745,1,1,22,2,5,16,1,1
82.75,1,14,78,3,2,16,6,3
82.755,2,10,59,1,0,24,0,9
82.76,1,0,24,0,4,8,4,32
82.765,7,2,4,3,0,17,2,57
82.77,3,5,22,2,2,2,3,3
82.775,0,2,2,5,4,1,2,9
82.78,2,4,7,6,0,16,0,6
82.785,2,1,2,5,4,5,0,19
82.79,2,1,6,0,2,7,1,5
82.795,4,6,5,2,3,10,1,1
82.8,1,2,2,3,2,3,3,9
82.805,3,4,41,6,4,3,1,12
82.81,3,2,42,8,1,6,1,6
82.815,1,3,15,14,1,1,0,5
82.82,1,1,0,10,1,8,1,9
82.825,2,3,7,1,1,2,1,5
82.83,0,3,2,2,1,7,2,4
82.835,0,5,17,2,2,3,2,2
82.84,3,10,33,8,2,4,3,11
82.845,2,3,3,2,1,10,3,8
82.85,1,4,12,7,4,1,1,1
82.855,1,4,1,0,5,6,1,3
82.86,0,3,8,7,1,1,1,5
82.865,1,2,1,1,3,8,1,7
82.87,3,3,15,5,2,0,1,3
82.875,0,2,2,1,5,5,0,5
82.88,3,2,7,0,1,3,2,2
82.885,1,2,2,6,7,3,3,1
82.89,1,5,17,8,7,2,2,2
82.895,2,0,13,7,2,3,2,2
82.9,0,5,18,4,1,4,1,3
82.905,1,4,3,2,1,2,2,1
82.91,4,6,3,4,4,3,3,4
82.915,1,3,34,6,1,0,0,2
82.92,1,1,3,2,2,0,2,3
82.925,2,0,4,3,1,0,1,1
82.93,2,2,0,2,3,2,0,2
82.935,3,1,6,2,2,0,2,1
82.94,0,3,9,4,1,1,1,0
82.945,1,0,0,11,8,3,1,2
82.95,2,10,48,14,2,2,1,2
82.955,7,0,27,0,5,1,0,3
82.96,3,3,4,5,5,3,2,2
82.965,1,3,15,4,6,3,2,0
82.97,3,0,11,9,6,3,1,1
82.975,0,6,23,9,4,0,0,2
82.98,1,2,8,3,0,1,0,0
82.985,1,2,7,1,0,0,0,1
82.99,1,4,24,4,1,1,0,2
82.995,0,3,32,7,3,2,0,1
83,0,1,4,0,2,2,3,2
83.005,0,5,5,5,0,1,1,0
83.01,1,0,9,6,4,1,2,0
83.015,5,6,26,17,1,2,2,0
83.02,1,2,21,3,2,1,0,1
83.025,3,3,1,4,1,2,2,3
83.03,0,7,9,7,3,0,0,1
83.035,1,2,5,6,3,0,1,0
83.04,3,1,0,4,4,1,1,2
83.045,0,0,3,5,6,4,0,1
83.05,2,3,7,2,3,3,1,0
83.055,1,1,1,3,4,3,0,1
83.06,1,1,6,3,0,1,3,1
83.065,1,1,7,4,2,1,1,0
83.07,2,2,7,1,4,2,2,1
83.075,3,3,4,4,1,2,0,2
83.08,2,2,1,2,4,3,2,1
83.085,1,0,4,1,1,1,0,2
83.09,2,0,9,3,2,0,1,0
83.095,2,2,21,3,2,1,1,1
83.1,0,1,7,1,0,0,0,2
83.105,0,1,1,4,0,1,0,0
83.11,1,0,7,7,5,6,1,3
83.115,3,2,10,5,0,0,2,1
83.12,3,2,2,0,2,2,0,2
83.125,0,3,6,0,2,1,3,1
83.13,3,2,2,1,2,1,1,2
83.135,2,1,9,4,3,3,1,1
83.14,1,2,9,2,2,0,1,1
83.145,4,1,3,6,4,3,0,2
83.15,1,1,2,1,2,2,1,1
83.155,2,2,1,4,4,1,0,0
83.16,3,3,14,1,1,1,0,3
83.165,0,2,13,4,2,1,1,2
83.17,2,2,2,3,1,0,1,0
83.175,0,1,3,0,3,2,1,2
83.18,1,2,4,4,2,2,1,1
83.185,1,1,3,5,1,1,1,1
83.19,2,1,4,2,2,2,0,1
83.195,2,2,8,4,1,0,1,1
83.2,3,1,11,1,0,2,1,1
83.205,6,1,3,5,2,1,2,2
83.21,1,3,3,4,3,0,0,1
83.215,4,1,2,3,3,0,1,2
83.22,1,2,2,1,2,0,3,1
83.225,3,3,7,5,3,2,0,3
83.23,1,2,13,1,0,4,1,1
83.235,0,1,4,1,2,1,1,2
83.24,2,2,3,1,3,1,0,1
83.245,1,0,8,2,2,2,1,0
83.25,3,5,5,5,0,1,1,2
83.255,2,2,3,3,1,1,1,1
83.26,1,2,4,1,2,0,1,0
83.265,1,5,8,4,3,1,1,1
83.27,1,0,7,1,0,0,1,2
83.275,1,4,8,1,4,2,1,1
83.28,1,1,14,2,3,1,1,1
83.285,0,3,7,3,5,3,1,1
83.29,2,1,5,6,2,1,1,2
83.295,6,4,16,0,1,1,0,1
83.3,4,2,4,2,1,0,1,0
83.305,0,1,2,1,1,1,2,1
83.31,0,0,11,3,6,2,1,2
83.315,1,3,24,3,3,0,1,1
83.32,1,4,7,5,2,2,0,2
83.325,2,1,9,3,2,4,4,1
83.33,0,1,7,3,0,1,0,0
83.335,2,3,11,0,1,2,1,1
83.34,2,3,7,3,1,0,1,2
83.345,4,2,4,4,4,3,1,4
83.35,2,0,4,4,3,2,3,1
83.355,2,3,7,5,3,2,1,2
83.36,1,0,8,1,2,1,1,1
83.365,1,0,9,0,1,1,0,1
83.37,3,2,14,0,2,2,2,1
83.375,2,0,5,0,3,4,1,2
83.38,9,2,10,2,3,0,0,3
83.385,1,1,3,0,1,0,1,0
83.39,1,3,20,3,0,1,0,0
83.395,2,0,11,1,2,1,3,1
83.4,2,3,1,3,5,2,1,1
83.405,0,0,5,4,8,1,1,0
83.41,1,4,16,2,0,0,1,2
83.415,1,2,8,2,3,3,2,3
83.42,1,1,19,2,2,3,1,2
83.425,3,1,26,1,3,0,1,1
83.43,1,2,17,5,1,0,0,1
83.435,1,0,8,3,1,1,0,0
83.44,0,2,9,3,0,2,0,0
83.445,0,2,28,8,3,2,2,1
83.45,1,2,4,1,3,1,1,1
83.455,5,2,1,1,2,1,2,3
83.46,0,0,10,2,1,1,1,1
83.465,3,2,11,2,1,1,0,1
83.47,3,1,6,0,2,4,0,1
83.475,2,1,9,1,0,0,0,2
83.48,2,2,6,0,2,1,1,1
83.485,1,1,2,1,3,1,1,1
83.49,1,1,3,1,1,0,1,2
83.495,2,2,8,4,1,2,1,0
83.5,0,2,14,2,0,0,2,0
83.505,0,4,17,5,7,3,1,3
83.51,3,0,8,2,3,1,1,2
83.515,0,1,4,2,4,2,0,1
83.52,2,1,4,3,2,1,0,1
83.525,1,2,2,3,1,0,1,1
83.53,0,3,3,3,3,1,3,1
83.535,1,1,3,2,2,2,1,2
83.54,1,2,18,2,1,1,1,0
83.545,3,1,0,3,0,1,0,1
83.55,1,1,0,4,2,4,0,0
83.555,2,3,1,0,1,1,2,0
83.56,2,2,3,3,2,2,1,2
83.565,1,0,10,1,1,3,1,2
83.57,3,2,6,0,2,1,0,1
83.575,2,2,15,4,3,2,2,1
83.58,1,2,10,8,3,1,1,3
83.585,0,2,16,8,4,2,2,0
83.59,1,5,9,4,0,1,0,2
83.595,3,2,9,4,5,2,1,0
83.6,2,4,27,6,3,3,2,2
83.605,4,2,1,7,2,0,2,2
83.61,3,2,15,0,1,2,1,4
83.615,1,1,1,1,3,3,2,1
83.62,0,3,4,9,2,0,0,0
83.625,1,0,8,5,3,1,1,2
83.63,3,0,10,3,1,2,2,0
83.635,1,0,3,0,1,1,1,2
83.64,2,4,2,2,1,1,2,3
83.645,2,2,7,2,3,2,2,1
83.65,1,0,5,3,2,2,0,0
83.655,1,1,15,3,3,0,1,0
83.66,3,1,7,4,3,0,2,2
83.665,0,2,7,0,2,1,0,0
83.67,2,2,8,1,5,3,2,1
83.675,3,3,10,3,2,1,0,0
83.68,0,2,12,4,2,1,1,0
83.685,1,2,7,11,4,1,2,1
83.69,0,1,5,6,1,1,1,0
83.695,0,4,6,3,2,2,1,2
83.7,0,0,3,0,4,0,0,1
83.705,10,3,4,2,6,1,1,3
83.71,1,1,8,2,5,2,2,2
83.715,0,1,8,3,2,0,2,1
83.72,4,0,2,0,1,2,1,3
83.725,1,2,6,1,3,0,0,2
83.73,2,1,9,7,1,3,2,3
83.735,2,3,2,1,1,0,0,2
83.74,0,0,1,2,4,1,0,1
83.745,2,2,1,0,1,2,2,1
83.75,0,2,14,5,0,1,0,1
83.755,4,2,8,3,1,1,1,1
83.76,3,1,3,7,0,3,1,2
83.765,4,2,2,3,1,0,1,3
83.77,0,2,0,8,2,0,1,1
83.775,3,3,4,5,3,1,0,2
83.78,3,3,6,0,1,1,1,1
83.785,1,1,28,3,5,4,2,2
83.79,1,0,2,4,1,0,0,2
83.795,3,2,21,7,2,1,2,2
83.8,7,3,39,1,1,2,2,6
83.805,11,8,58,9,4,1,1,5
83.81,1,3,3,2,1,1,1,10
83.815,4,0,30,1,0,0,5,5
83.82,32,7,29,6,1,4,7,11
83.825,7,21,57,15,6,6,3,8
83.83,5,9,5,5,6,5,1,7
83.835,35,15,24,2,1,12,2,22
83.84,6,1,23,0,2,1,0,16
83.845,3,1,56,10,2,15,12,0
83.85,43,12,43,7,8,2,2,15
83.855,6,3,19,6,0,9,6,4
83.86,43,9,45,15,0,18,20,16
83.865,3,3,5,4,7,27,8,19
83.87,21,4,48,4,2,0,18,0
83.875,15,4,21,10,3,41,2,23
83.88,16,29,76,21,10,12,14,22
83.885,7,6,4,2,2,12,3,27
83.89,17,4,20,4,3,22,11,34
83.895,13,5,9,0,12,37,5,17
83.9,26,3,25,1,0,31,5,27
83.905,24,0,11,2,3,1,7,13
83.91,14,5,3,2,1,31,39,5
83.915,32,11,43,16,13,7,1,19
83.92,10,6,13,4,10,3,3,23
83.925,2,16,11,2,3,4,5,7
83.93,14,14,22,1,4,8,28,11
83.935,21,14,48,14,1,8,15,12
83.94,0,2,24,12,4,2,9,4
83.945,21,20,42,6,3,20,5,18
83.95,10,19,39,1,8,20,9,1
83.955,4,8,2,2,14,13,15,12
83.96,17,2,33,1,1,9,8,4
83.965,15,1,54,8,1,6,6,19
83.97,21,5,0,4,4,35,18,12
83.975,4,13,6,8,4,78,23,1
83.98,15,22,28,11,4,3,8,5
83.985,3,7,4,9,0,3,23,23
83.99,6,3,7,0,4,15,2,1
83.995,3,9,37,4,4,26,7,2
84,3,2,20,5,9,9,11,6
84.005,0,12,49,9,1,15,10,16
84.01,6,11,49,3,1,1,7,12
84.015,5,2,1,1,7,18,11,3
84.02,5,6,64,10,8,5,1,8
84.025,5,5,7,4,4,2,2,7
84.03,1,15,15,2,2,9,2,22
84.035,8,3,13,4,5,2,3,38
84.04,10,8,37,15,3,12,4,0
84.045,4,0,8,7,6,5,2,2
84.05,2,2,27,1,8,9,6,4
84.055,1,7,4,6,8,18,9,13
84.06,18,6,24,9,7,3,5,12
84.065,10,8,36,6,3,17,4,1
84.07,17,7,4,2,2,8,1,9
84.075,23,7,43,15,6,7,1,3
84.08,8,21,85,18,6,7,1,3
84.085,12,11,51,1,0,6,7,26
84.09,3,15,17,8,0,3,2,6
84.095,30,6,2,1,6,6,4,6
84.1,19,8,45,7,5,5,2,6
84.105,11,15,57,5,1,5,4,11
84.11,15,16,67,14,7,5,2,10
84.115,12,15,54,14,6,1,2,6
84.12,5,7,30,3,8,3,4,0
84.125,5,4,31,1,2,10,2,6
84.13,9,7,27,8,10,0,1,8
84.135,7,1,59,9,4,1,6,12
84.14,2,7,68,4,3,3,0,5
84.145,16,4,48,2,2,4,1,4
84.15,19,20,25,23,12,4,7,10
84.155,6,4,4,2,5,4,1,5
84.16,2,6,3,5,2,3,1,2
84.165,20,10,13,11,5,4,2,15
84.17,7,15,34,11,2,3,4,28
84.175,5,2,7,1,3,7,8,6
84.18,18,7,100,17,11,9,0,0
84.185,2,19,35,13,0,13,6,30
84.19,10,3,76,0,2,24,4,38
84.195,7,13,20,1,1,9,5,15
84.2,14,8,46,13,3,3,0,3
84.205,3,14,83,30,6,18,4,16
84.21,5,20,90,24,0,17,7,35
84.215,18,40,1,16,8,8,1,48
84.22,4,8,44,9,3,1,12,21
84.225,9,16,5,0,3,9,17,40
84.23,4,7,61,8,13,15,6,8
84.235,8,14,81,23,7,1,1,38
84.24,1,3,74,15,2,10,3,30
84.245,1,4,79,6,1,6,0,22
84.25,5,10,44,2,4,4,2,1
84.255,9,18,108,34,10,1,3,2
84.26,5,10,96,35,4,7,1,13
84.265,7,15,77,8,8,6,15,23
84.27,5,21,128,3,3,16,9,14
84.275,18,35,0,9,9,24,19,8
84.28,21,39,71,18,4,6,9,59
84.285,21,34,23,18,0,3,6,78
84.29,0,0,65,4,1,9,3,10
84.295,5,7,59,12,6,13,14,2
84.3,10,31,93,18,3,1,1,9
84.305,22,23,16,15,3,0,5,9
84.31,2,9,37,12,2,19,5,80
84.315,6,2,44,29,6,16,3,27
84.32,12,15,85,1,0,2,2,6
84.325,9,23,104,26,8,2,3,5
84.33,3,7,41,1,5,10,10,15
84.335,8,24,30,11,0,6,3,17
84.34,7,16,31,3,1,2,7,7
84.345,4,40,103,12,4,7,3,6
84.35,3,20,46,29,8,6,6,28
84.355,12,23,31,27,5,8,4,32
84.36,5,3,31,6,8,5,13,45
84.365,14,6,42,4,6,3,2,28
84.37,4,3,51,10,10,4,1,34
84.375,18,0,1,26,12,17,11,6
84.38,0,4,2,22,6,6,1,35
84.385,11,23,41,7,2,3,3,26
84.39,5,23,19,9,1,1,6,29
84.395,4,13,127,38,3,16,8,41
84.4,3,11,80,12,1,12,5,11
84.405,18,27,107,29,3,27,10,63
84.41,2,11,10,28,1,14,18,27
84.415,11,30,112,47,5,3,1,4
84.42,12,46,75,21,3,4,4,11
84.425,7,6,110,11,5,13,12,38
84.43,11,8,85,15,6,14,10,26
84.435,5,3,83,8,5,10,3,5
84.44,11,43,44,12,6,3,1,15
84.445,19,30,33,2,6,17,10,4
84.45,4,10,110,17,5,4,3,16
84.455,5,14,47,21,7,11,2,2
84.46,4,11,36,1,3,10,0,11
84.465,4,26,36,0,0,4,2,27
84.47,4,0,40,0,1,2,14,65
84.475,5,19,30,9,5,6,4,48
84.48,1,3,76,3,1,13,0,46
84.485,3,32,59,8,5,37,15,4
84.49,14,11,54,15,14,11,24,45
84.495,4,19,90,8,3,5,7,24
84.5,18,42,67,8,3,0,6,28
84.505,8,36,126,60,9,6,4,39
84.51,3,21,87,16,5,2,5,16
84.515,6,74,59,41,5,8,7,39
84.52,2,70,42,20,3,4,3,31
84.525,6,38,23,35,6,14,9,38
84.53,7,8,113,46,10,10,7,13
84.535,7,27,54,35,4,6,4,30
84.54,22,38,37,35,3,8,11,61
84.545,23,23,20,13,6,13,14,91
84.55,15,51,92,8,1,6,1,11
84.555,29,45,44,29,10,15,3,38
84.56,23,71,47,53,1,4,6,10
84.565,8,9,14,28,9,3,1,40
84.57,12,14,3,43,7,17,4,26
84.575,14,0,3,3,2,14,0,13
84.58,33,101,59,68,11,3,8,4
84.585,61,79,88,83,25,15,6,85
84.59,11,64,8,53,7,37,0,81
84.595,23,38,24,13,6,20,9,58
84.6,13,30,22,47,1,0,9,77
84.605,7,20,21,20,5,12,1,18
84.61,0,8,128,1,7,26,6,60
84.615,2,34,44,23,2,17,1,70
84.62,5,36,80,4,4,11,1,16
84.625,20,53,104,45,14,4,3,30
84.63,26,52,73,38,10,4,3,46
84.635,10,18,0,38,2,1,6,11
84.64,3,0,11,2,10,2,2,11
84.645,10,35,72,3,16,7,11,36
84.65,5,39,127,20,3,5,10,18
84.655,12,48,119,7,8,6,10,2
84.66,4,40,1,36,6,5,0,26
84.665,7,34,127,51,1,4,15,38
84.67,13,22,88,11,0,2,1,14
84.675,6,29,8,11,3,2,2,31
84.68,6,1,19,15,1,8,9,95
84.685,17,21,107,29,11,1,6,32
84.69,13,40,74,11,6,9,4,14
84.695,9,5,42,15,6,6,3,8
84.7,3,6,0,12,2,0,4,11
84.705,9,4,65,33,11,9,1,11
84.71,35,40,51,3,6,1,1,8
84.715,7,17,77,24,6,3,0,21
84.72,14,19,33,13,1,4,5,25
84.725,20,38,121,7,19,4,2,10
84.73,2,22,38,1,9,2,5,28
84.735,5,7,49,20,46,10,14,6
84.74,11,12,44,21,2,1,21,2
84.745,3,5,15,9,4,2,2,12
84.75,2,3,2,11,13,5,8,13
84.755,5,10,8,16,21,6,1,22
84.76,11,3,17,4,5,6,7,1
84.765,6,6,5,14,7,2,3,0
84.77,17,2,16,4,10,7,3,1
84.775,17,3,10,17,2,0,4,3
84.78,5,7,9,14,15,4,6,15
84.785,15,0,34,8,15,5,4,11
84.79,13,4,10,24,2,3,5,8
84.795,16,10,18,22,11,6,6,5
84.8,47,5,19,15,7,1,0,18
84.805,29,7,41,6,19,7,6,19
84.81,5,3,18,5,4,4,0,3
84.815,3,5,3,9,5,7,5,5
84.82,10,4,12,1,9,0,0,4
84.825,0,0,13,13,7,2,1,1
84.83,6,3,23,25,11,2,4,1
84.835,9,2,1,28,4,2,4,4
84.84,27,2,13,15,8,3,4,8
84.845,13,6,30,5,3,2,2,2
84.85,0,4,16,2,5,2,4,10
84.855,15,1,6,26,15,4,9,5
84.86,14,1,1,20,2,3,11,2
84.865,17,3,5,4,4,2,1,0
84.87,7,1,1,1,2,1,1,0
84.875,14,7,12,1,6,4,1,1
84.88,26,5,38,17,5,1,6,0
84.885,8,5,0,11,1,3,2,3
84.89,7,2,6,1,5,2,0,1
84.895,3,5,26,10,1,2,3,1
84.9,9,1,27,3,2,2,1,4
84.905,8,10,22,1,1,1,1,0
84.91,2,8,32,2,1,3,2,1
84.915,9,7,16,9,5,7,2,4
84.92,7,1,3,2,3,2,3,2
84.925,19,6,3,4,0,7,5,6
84.93,19,9,9,8,1,3,0,8
84.935,16,8,3,2,3,1,5,7
84.94,12,2,5,1,1,8,3,2
84.945,3,4,17,0,2,3,0,1
84.95,6,13,52,4,2,1,9,3
84.955,12,15,5,2,5,5,27,7
84.96,6,20,49,8,7,3,2,1
84.965,14,3,16,24,9,2,3,1
84.97,4,5,24,14,5,3,1,2
84.975,2,11,45,2,2,1,4,1
84.98,3,13,73,4,4,2,3,2
84.985,1,4,21,4,2,2,1,2
84.99,7,1,21,1,2,1,1,2
84.995,0,0,27,4,4,3,2,0
85,0,4,4,5,5,1,2,2
85.005,10,1,2,2,2,2,2,3
85.01,6,6,36,1,0,3,5,4
85.015,3,2,4,1,5,2,2,2
85.02,0,0,7,0,1,4,0,3
85.025,7,2,5,2,5,1,1,2
85.03,2,2,4,4,2,0,4,2
85.035,6,7,7,5,1,2,2,2
85.04,4,6,18,4,2,1,0,3
85.045,3,2,17,1,3,2,2,1
85.05,1,5,19,6,4,4,5,1
85.055,1,5,10,0,5,1,2,1
85.06,2,4,11,8,7,2,1,1
85.065,2,3,14,2,3,2,3,2
85.07,5,6,12,5,1,1,1,2
85.075,1,8,1,8,4,14,5,4
85.08,4,11,14,8,3,14,1,2
85.085,4,1,7,4,0,2,3,2
85.09,4,2,9,4,1,0,1,0
85.095,11,8,13,3,3,1,0,5
85.1,3,2,15,9,5,6,2,0
85.105,9,2,23,4,0,0,1,3
85.11,0,1,13,4,3,3,4,2
85.115,3,3,7,1,4,1,2,1
85.12,1,3,19,4,0,3,0,1
85.125,1,2,13,5,3,1,1,2
85.13,2,0,1,3,4,4,3,2
85.135,13,4,1,3,4,4,1,4
85.14,4,3,13,5,3,1,0,0
85.145,1,2,15,3,3,5,3,1
85.15,5,2,9,8,2,1,0,5
85.155,5,3,21,7,5,1,1,3
85.16,5,7,25,6,6,5,1,0
85.165,0,3,22,2,3,5,4,0
85.17,4,1,9,2,4,2,0,1
85.175,1,1,11,0,3,1,1,2
85.18,2,4,1,6,5,2,0,2
85.185,3,2,5,2,1,1,0,0
85.19,2,1,21,1,4,1,1,0
85.195,0,1,1,3,4,0,0,0
85.2,2,3,7,6,1,4,3,3
85.205,1,5,20,19,7,3,2,1
85.21,5,4,10,5,3,3,1,0
85.215,6,1,1,3,7,2,3,2
85.22,3,1,4,5,0,3,0,2
85.225,2,0,3,7,2,0,0,0
85.23,14,9,6,5,3,4,1,5
85.235,3,2,16,4,0,1,1,0
85.24,5,3,19,7,4,3,3,3
85.245,1,0,4,2,1,1,1,1
85.25,8,3,4,1,1,0,1,0
85.255,1,5,7,4,1,0,0,1
85.26,12,3,6,7,4,2,3,5
85.265,1,4,13,4,1,1,2,1
85.27,0,4,12,4,0,2,2,1
85.275,2,9,10,7,1,0,1,0
85.28,2,0,8,2,1,4,5,1
85.285,4,4,3,4,1,3,4,1
85.29,0,1,7,2,3,2,2,5
85.295,1,6,15,6,2,1,0,1
85.3,5,6,9,1,1,1,1,1
85.305,3,3,1,1,4,4,3,1
85.31,2,1,1,6,0,2,1,2
85.315,2,4,5,4,2,1,0,1
85.32,1,3,22,6,1,1,1,0
85.325,1,1,30,4,1,1,1,2
85.33,3,2,1,0,0,2,4,1
85.335,0,2,25,4,3,2,2,2
85.34,3,2,8,4,4,2,0,1
85.345,1,1,10,1,1,1,3,2
85.35,6,3,4,6,4,1,1,1
85.355,2,2,2,5,1,1,1,0
85.36,5,5,4,8,4,1,3,2
85.365,1,2,3,2,1,2,3,0
85.37,4,2,1,5,0,1,0,0
85.375,1,0,6,4,0,0,0,0
85.38,6,4,15,5,2,0,1,1
85.385,7,3,9,5,4,3,3,4
85.39,1,5,14,6,1,1,2,0
85.395,1,0,3,2,5,4,1,0
85.4,1,2,1,1,2,1,2,3
85.405,3,1,0,6,2,3,2,4
85.41,1,1,6,4,2,2,0,0
85.415,0,4,17,11,4,3,4,0
85.42,0,1,16,1,2,1,0,0
85.425,1,2,6,3,0,1,0,0
85.43,2,5,4,4,5,2,0,2
85.435,6,2,5,2,4,0,0,1
85.44,1,4,13,4,1,0,1,1
85.445,0,1,5,3,8,4,2,1
85.45,2,3,3,2,0,3,1,0
85.455,0,5,9,1,0,1,1,2
85.46,1,0,8,4,4,1,2,2
85.465,3,6,32,0,1,1,1,1
85.47,3,8,51,7,3,2,2,1
85.475,2,7,4,5,2,2,2,2
85.48,2,6,1,8,5,2,0,2
85.485,2,0,1,1,1,0,0,4
85.49,2,7,10,2,4,1,2,1
85.495,3,3,21,9,2,0,1,1
85.5,1,0,10,3,0,2,1,1
85.505,1,4,7,0,1,0,4,0
85.51,2,9,23,1,3,0,1,2
85.515,7,14,26,1,4,0,3,10
85.52,2,6,35,4,2,1,2,6
85.525,3,6,29,3,2,1,0,1
85.53,3,6,0,4,8,5,2,2
85.535,1,10,24,8,2,1,0,2
85.54,0,3,4,1,9,4,0,9
85.545,2,9,32,14,2,0,0,9
85.55,1,6,7,8,5,0,0,6
85.555,1,1,13,4,5,2,1,2
85.56,2,9,25,6,4,4,2,3
85.565,0,1,27,1,0,2,0,13
85.57,2,1,12,3,1,1,4,4
85.575,5,8,22,3,2,2,1,27
85.58,1,11,88,10,0,1,0,7
85.585,5,1,3,4,1,2,1,13
85.59,4,12,6,2,2,2,3,9
85.595,1,2,18,5,3,3,0,8
85.6,0,4,7,7,2,3,1,2
85.605,6,5,26,2,6,5,4,13
85.61,2,6,80,20,3,3,3,14
85.615,1,1,13,1,2,1,0,4
85.62,2,5,10,9,2,0,0,3
85.625,1,16,39,6,5,4,6,27
85.63,3,8,17,2,6,5,9,48
85.635,4,1,48,10,4,4,9,32
85.64,4,6,5,10,2,2,2,44
85.645,4,10,2,3,6,3,3,7
85.65,5,7,1,8,7,5,5,10
85.655,1,7,88,26,7,4,1,12
85.66,9,30,51,48,12,7,2,13
85.665,6,22,75,30,7,4,6,33
85.67,1,7,79,15,2,5,8,6
85.675,6,1,30,1,0,1,1,2
85.68,2,11,36,5,8,2,2,6
85.685,5,0,2,14,1,2,7,29
85.69,5,22,54,25,0,4,2,10
85.695,5,24,63,21,4,8,6,6
85.7,2,12,59,19,1,1,2,16
85.705,1,13,128,37,7,10,1,25
85.71,9,12,127,34,7,7,4,37
85.715,7,21,123,38,4,2,7,8
85.72,3,13,55,28,6,0,7,2
85.725,1,3,80,8,1,1,8,14
85.73,9,25,32,22,9,11,11,39
85.735,1,23,78,34,9,9,15,42
85.74,1,7,62,7,3,2,12,34
85.745,1,10,26,14,4,5,13,41
85.75,2,23,47,2,2,3,6,3
85.755,2,4,116,22,1,2,5,12
85.76,7,1,39,14,2,2,13,16
85.765,2,10,39,7,6,6,4,6
85.77,1,6,13,25,8,7,6,5
85.775,2,3,87,2,3,3,1,6
85.78,8,24,82,13,8,8,3,17
85.785,1,19,30,9,9,5,3,4
85.79,10,25,44,5,1,3,3,5
85.795,4,35,45,6,2,3,5,11
85.8,0,33,49,14,4,7,6,13
85.805,9,20,50,9,10,8,4,17
85.81,1,5,8,12,5,1,6,34
85.815,4,1,21,21,7,8,11,32
85.82,3,1,76,41,4,8,20,1
85.825,11,17,59,2,4,8,20,14
85.83,8,6,59,5,2,6,12,20
85.835,6,13,34,10,8,3,5,1
85.84,1,3,1,1,3,1,2,18
85.845,16,1,51,6,2,1,3,1
85.85,11,2,107,3,3,7,8,10
85.855,11,9,78,21,4,4,3,19
85.86,0,0,13,2,3,11,9,27
85.865,10,25,11,10,2,1,3,3
85.87,3,22,92,27,10,7,5,7
85.875,5,26,27,25,11,6,6,33
85.88,12,29,6,4,1,1,2,28
85.885,15,20,115,40,0,1,5,2
85.89,1,9,40,18,0,1,1,15
85.895,4,5,10,15,6,4,0,8
85.9,2,23,8,5,3,5,5,28
85.905,4,4,15,7,2,7,11,0
85.91,3,1,9,2,3,2,1,9
85.915,4,5,42,9,1,1,8,12
85.92,7,0,48,3,8,2,8,26
85.925,2,26,38,18,3,7,7,22
85.93,20,18,26,1,15,0,5,17
85.935,7,5,26,1,1,3,6,14
85.94,3,32,8,1,3,0,2,45
85.945,23,59,73,44,15,7,3,17
85.95,1,15,38,2,11,7,8,0
85.955,3,16,21,12,3,0,5,2
85.96,1,7,18,18,0,8,5,5
85.965,1,5,22,4,4,1,0,5
85.97,1,27,61,11,1,2,2,31
85.975,7,39,66,4,2,1,3,7
85.98,1,10,10,1,1,2,4,12
85.985,17,31,94,1,2,4,7,0
85.99,13,39,89,12,5,2,8,17
85.995,12,37,63,29,1,5,10,3
86,6,20,29,14,1,0,6,19
86.005,1,13,45,14,8,5,6,23
86.01,16,22,38,8,1,2,0,10
86.015,11,12,20,4,4,2,4,6
86.02,13,4,24,3,5,8,1,28
86.025,10,6,86,14,2,2,4,0
86.03,9,14,77,6,2,2,1,3
86.035,2,13,30,1,5,3,0,7
86.04,7,0,8,3,0,0,2,6
86.045,5,8,46,3,3,3,6,19
86.05,12,17,35,6,2,5,8,26
86.055,3,3,16,6,2,1,9,32
86.06,12,9,4,13,4,3,9,34
86.065,14,7,21,12,2,3,2,24
86.07,4,15,18,2,2,4,6,23
86.075,9,13,89,21,7,2,12,17
86.08,1,3,70,20,8,2,14,19
86.085,1,7,0,18,1,2,7,5
86.09,4,6,45,13,2,1,2,31
86.095,5,20,52,17,0,6,2,30
86.1,13,32,121,39,8,0,3,17
86.105,4,16,64,9,1,7,8,7
86.11,3,43,83,26,6,7,2,11
86.115,45,17,27,0,0,4,5,21
86.12,11,1,21,9,4,2,3,15
86.125,44,4,55,9,7,11,0,35
86.13,3,16,77,18,3,2,4,5
86.135,36,1,37,17,0,6,1,54
86.14,11,15,14,8,1,3,1,16
86.145,4,8,31,17,1,2,10,15
86.15,3,13,39,21,3,2,9,7
86.155,18,10,39,6,2,4,22,3
86.16,5,6,44,9,3,2,8,1
86.165,1,13,71,17,0,8,81,25
86.17,3,9,18,10,4,1,1,3
86.175,8,3,36,8,1,0,8,6
86.18,2,4,62,16,0,0,2,2
86.185,17,12,46,9,0,5,33,20
86.19,1,5,83,8,1,1,5,3
86.195,21,4,75,13,2,9,34,30
86.2,11,4,14,7,6,4,2,29
86.205,4,5,7,5,3,8,4,2
86.21,14,2,19,6,2,1,19,33
86.215,10,6,8,3,1,8,8,2
86.22,2,1,19,1,1,20,6,4
86.225,13,15,85,16,5,0,6,12
86.23,5,7,48,3,3,1,9,3
86.235,4,8,27,8,4,7,15,9
86.24,2,6,23,8,2,6,10,5
86.245,1,9,25,6,3,1,9,4
86.25,0,7,33,3,0,3,3,1
86.255,4,1,44,9,2,2,2,5
86.26,5,9,112,13,4,8,3,9
86.265,1,4,32,4,2,3,11,10
86.27,0,1,21,1,2,6,5,8
86.275,3,2,8,2,3,2,1,10
86.28,3,3,3,16,5,0,3,16
86.285,2,8,60,25,6,2,4,3
86.29,0,0,19,3,1,3,7,9
86.295,2,2,7,1,2,2,0,5
86.3,5,1,17,2,2,2,4,3
86.305,2,3,15,9,3,1,2,3
86.31,2,6,21,6,0,2,3,3
86.315,3,9,32,9,2,3,0,4
86.32,3,3,22,2,5,5,3,3
86.325,2,2,17,3,5,2,3,2
86.33,2,4,5,2,4,3,3,2
86.335,11,0,1,6,3,3,1,4
86.34,8,2,3,9,1,0,4,3
86.345,4,4,11,1,1,2,3,1
86.35,6,3,4,3,0,1,1,4
86.355,10,1,9,4,5,4,1,2
86.36,8,3,15,3,5,5,7,3
86.365,2,0,7,9,6,1,3,3
86.37,2,2,32,5,1,4,3,3
86.375,4,1,30,16,8,6,4,0
86.38,5,2,16,6,1,2,0,8
86.385,1,1,33,0,4,4,1,6
86.39,0,1,3,0,7,3,1,1
86.395,2,3,2,4,3,1,2,12
86.4,5,6,8,1,3,2,2,8
86.405,1,4,35,2,7,3,1,4
86.41,3,0,16,2,2,1,8,10
86.415,4,2,15,4,0,1,0,6
86.42,9,4,16,0,3,4,3,11
86.425,5,4,8,1,1,0,0,4
86.43,9,1,5,4,7,2,1,3
86.435,2,2,8,4,6,2,0,1
86.44,18,1,10,1,1,4,2,0
86.445,6,2,8,7,3,2,5,3
86.45,22,8,5,3,2,2,11,14
86.455,15,3,7,2,4,4,3,2
86.46,10,4,3,1,4,0,0,1
86.465,13,1,3,4,1,2,1,6
86.47,30,2,9,2,0,3,1,2
86.475,12,1,6,4,3,0,1,0
86.48,8,0,5,6,2,1,0,1
86.485,3,6,9,4,2,2,1,1
86.49,13,5,22,4,5,1,2,5
86.495,4,1,22,2,3,1,3,3
86.5,6,2,2,4,7,2,0,2
86.505,11,5,20,11,3,0,1,6
86.51,1,14,92,10,2,0,0,2
86.515,4,6,50,5,5,2,1,5
86.52,8,4,0,13,9,0,1,4
86.525,21,9,39,17,3,0,2,4
86.53,10,6,42,17,4,2,1,1
86.535,12,10,44,14,3,1,0,3
86.54,16,0,1,5,4,2,3,3
86.545,3,4,29,5,5,2,1,8
86.55,28,0,17,9,5,2,1,4
86.555,4,3,1,2,3,0,0,1
86.56,37,9,10,9,2,2,1,6
86.565,10,2,9,9,1,3,4,3
86.57,12,1,12,8,2,1,2,3
86.575,11,2,12,9,0,0,0,2
86.58,8,5,20,6,5,3,2,2
86.585,6,6,14,9,4,0,1,4
86.59,12,1,11,4,1,1,1,1
86.595,4,7,13,1,1,1,1,1
86.6,8,10,5,1,4,1,0,1
86.605,2,3,19,5,0,0,2,0
86.61,2,5,70,14,5,4,2,1
86.615,10,2,27,1,1,0,2,2
86.62,3,0,1,4,7,2,0,1
86.625,2,5,56,8,1,1,2,1
86.63,2,7,23,8,1,0,1,0
86.635,8,4,4,1,2,1,2,1
86.64,6,7,28,1,8,3,3,2
86.645,1,7,24,4,6,2,3,3
86.65,3,3,40,1,1,1,1,3
86.655,6,6,33,4,2,0,1,4
86.66,4,3,33,11,5,0,1,1
86.665,4,0,3,1,1,2,1,2
86.67,3,3,16,3,6,3,3,8
86.675,1,2,30,1,1,0,1,5
86.68,1,7,25,5,2,2,0,3
86.685,3,3,20,7,2,2,5,1
86.69,0,3,19,4,2,1,1,1
86.695,3,3,21,1,1,2,1,4
86.7,0,2,17,3,5,2,2,1
86.705,3,8,63,10,3,2,0,4
86.71,1,6,66,4,0,1,0,1
86.715,1,5,5,7,4,2,1,3
86.72,1,2,39,0,3,3,1,2
86.725,1,1,19,2,1,1,1,1
86.73,3,13,62,13,3,2,1,1
86.735,3,0,6,2,4,0,0,1
86.74,1,0,8,4,1,1,0,4
86.745,1,2,9,1,2,2,1,1
86.75,4,7,46,5,1,1,2,0
86.755,1,3,6,3,3,2,2,2
86.76,3,5,38,1,3,3,3,1
86.765,1,13,42,2,0,1,1,1
86.77,3,2,78,12,2,1,3,1
86.775,7,28,28,18,4,2,1,3
86.78,1,5,14,1,1,3,2,0
86.785,1,1,15,1,1,3,0,3
86.79,4,3,13,11,4,3,0,3
86.795,1,2,15,5,0,0,5,2
86.8,1,0,12,1,1,2,1,28
86.805,1,2,11,2,2,1,3,18
86.81,1,3,15,3,7,1,0,29
86.815,0,4,35,7,2,1,1,10
86.82,2,6,4,7,5,0,1,10
86.825,1,5,9,1,1,1,0,0
86.83,1,3,53,7,2,8,2,17
86.835,0,4,12,3,2,4,1,1
86.84,0,4,16,7,2,1,1,11
86.845,2,9,62,9,0,1,1,17
86.85,5,3,0,0,6,2,2,8
86.855,3,3,14,0,0,3,0,9
86.86,2,9,28,0,2,3,0,3
86.865,8,23,15,4,2,2,5,5
86.87,0,6,12,3,2,1,3,25
86.875,3,0,8,12,4,1,1,31
86.88,1,8,33,4,3,2,3,12
86.885,0,3,63,3,2,1,1,14
86.89,2,1,90,7,3,4,6,0
86.895,2,5,22,4,3,1,5,17
86.9,3,21,1,8,1,2,4,12
86.905,2,1,24,1,0,3,1,8
86.91,1,1,6,2,6,4,1,9
86.915,0,19,53,6,5,3,1,29
86.92,6,12,13,1,1,2,1,31
86.925,3,30,3,3,2,3,1,21
86.93,6,40,40,12,3,2,3,15
86.935,5,13,18,8,3,2,3,8
86.94,4,16,65,2,2,1,1,9
86.945,4,16,12,10,2,0,4,6
86.95,3,4,13,4,0,1,3,8
86.955,3,6,96,18,6,6,7,14
86.96,4,6,35,1,4,2,2,14
86.965,3,5,79,8,4,2,1,7
86.97,6,25,26,5,3,1,1,11
86.975,10,19,43,4,2,0,2,3
86.98,6,6,10,4,2,2,2,39
86.985,3,3,13,5,4,1,1,7
86.99,16,16,56,3,1,2,2,24
86.995,9,20,29,4,6,5,11,7
87,3,5,109,2,2,2,0,2
87.005,2,10,3,11,4,2,1,5
87.01,3,12,20,15,3,3,3,17
87.015,4,7,10,14,1,1,14,69
87.02,12,25,15,2,0,0,3,13
87.025,2,14,13,3,0,0,5,17
87.03,1,3,55,7,2,3,1,31
87.035,11,18,72,14,2,5,9,48
87.04,8,34,44,4,1,4,3,3
87.045,2,3,0,4,4,2,1,17
87.05,14,29,7,8,1,2,8,25
87.055,1,12,16,4,2,4,15,36
87.06,3,41,36,4,0,1,3,12
87.065,12,65,79,17,5,3,4,17
87.07,6,4,56,6,2,2,3,32
87.075,8,11,23,3,1,1,12,67
87.08,20,30,73,13,0,1,1,65
87.085,10,12,65,14,2,1,4,39
87.09,7,0,13,8,2,1,2,27
87.095,1,5,13,7,10,3,1,10
87.1,5,2,14,14,6,6,2,14
87.105,10,47,86,0,7,7,7,28
87.11,0,27,66,26,8,6,11,58
87.115,6,31,88,21,1,2,7,32
87.12,1,32,90,12,10,8,4,28
87.125,12,19,16,6,1,0,11,15
87.13,10,11,25,5,0,1,9,12
87.135,14,35,23,1,2,2,3,19
87.14,15,32,50,14,2,1,5,29
87.145,12,9,19,5,2,2,7,28
87.15,18,9,36,23,4,4,8,41
87.155,10,18,9,3,8,3,11,40
87.16,1,8,41,15,1,2,4,5
87.165,4,13,34,1,2,0,2,15
87.17,13,8,10,5,1,2,6,4
87.175,19,35,72,24,9,3,6,13
87.18,5,2,60,10,0,5,5,11
87.185,2,24,32,4,1,2,3,33
87.19,11,32,64,15,0,5,3,16
87.195,4,8,64,11,4,2,5,10
87.2,2,7,70,11,4,2,1,2
87.205,1,27,66,19,1,2,1,11
87.21,7,12,38,6,4,3,4,8
87.215,7,32,2,12,3,3,1,11
87.22,3,26,60,22,2,1,1,0
87.225,4,3,2,2,3,3,4,9
87.23,12,30,25,5,1,0,3,9
87.235,5,18,44,4,7,2,4,6
87.24,3,4,14,13,7,2,4,1
87.245,8,1,51,4,3,4,7,8
87.25,25,50,44,8,3,3,0,11
87.255,7,32,11,1,3,1,2,11
87.26,8,4,12,8,3,1,0,5
87.265,7,24,25,7,9,4,4,1
87.27,3,13,26,8,10,1,0,0
87.275,5,10,46,1,2,1,0,5
87.28,6,21,31,8,8,6,4,2
87.285,3,0,8,12,9,6,2,4
87.29,5,3,11,10,3,1,1,6
87.295,0,2,9,1,3,0,2,2
87.3,4,2,8,6,6,5,3,10
87.305,3,6,13,5,11,5,2,2
87.31,3,7,18,12,1,0,1,0
87.315,1,3,25,16,1,2,3,4
87.32,6,2,21,10,7,1,2,3
87.325,9,1,7,7,3,2,3,6
87.33,6,13,12,3,3,3,2,0
87.335,4,1,21,3,4,4,3,2
87.34,9,9,12,6,2,0,1,2
87.345,4,2,9,4,6,1,0,6
87.35,4,5,9,9,4,1,1,3
87.355,3,6,8,0,4,4,1,3
87.36,1,2,5,2,3,1,1,0
87.365,1,36,12,3,4,7,1,2
87.37,11,71,5,0,2,4,1,1
87.375,34,20,0,2,4,4,1,1
87.38,65,30,2,2,3,5,4,6
87.385,21,16,2,11,1,4,0,3
87.39,37,26,4,2,7,3,2,8
87.395,1,5,17,6,6,2,2,1
87.4,19,18,10,3,4,6,1,2
87.405,9,16,13,1,2,1,1,4
87.41,1,17,2,5,3,2,2,2
87.415,10,2,3,7,1,0,1,2
87.42,6,21,8,6,1,1,0,3
87.425,19,32,12,0,2,5,2,3
87.43,21,18,15,5,2,4,3,2
87.435,7,11,29,4,4,4,1,1
87.44,1,24,8,5,2,2,4,2
87.445,1,6,10,1,2,3,11,4
87.45,8,8,1,1,3,4,1,0
87.455,8,8,10,3,0,3,0,0
87.46,1,1,14,7,2,1,0,1
87.465,1,5,5,1,1,1,0,1
87.47,1,13,15,3,5,5,3,2
87.475,7,18,23,10,4,0,1,3
87.48,7,12,5,5,5,2,0,2
87.485,11,11,12,3,0,1,0,1
87.49,5,28,5,3,3,0,3,0
87.495,3,2,5,4,4,0,2,0
87.5,10,2,3,2,1,2,1,1
87.505,8,28,4,5,6,2,0,1
87.51,0,1,2,1,4,1,1,0
87.515,7,2,7,5,2,0,2,1
87.52,9,0,2,1,1,1,0,1
87.525,7,2,3,1,2,0,0,0
87.53,4,8,2,3,1,4,1,2
87.535,1,6,14,4,4,1,1,3
87.54,1,14,19,7,4,2,4,2
87.545,7,8,4,4,3,0,1,1
87.55,3,1,10,1,0,1,1,0
87.555,7,6,19,5,3,3,0,1
87.56,2,1,10,4,0,3,1,1
87.565,2,3,22,3,3,1,3,2
87.57,2,6,1,1,2,4,6,1
87.575,13,12,1,3,4,4,7,1
87.58,1,9,0,8,9,7,7,2
87.585,3,3,8,7,9,4,2,1
87.59,1,10,7,4,2,1,0,0
87.595,1,4,2,0,2,1,2,1
87.6,1,14,5,2,3,5,1,0
87.605,5,14,8,0,2,1,1,1
87.61,3,6,8,4,2,0,2,1
87.615,5,4,2,7,4,0,1,2
87.62,0,5,2,5,3,1,1,0
87.625,3,3,4,12,4,3,4,0
87.63,6,0,5,30,9,0,1,0
87.635,0,3,10,10,3,0,5,2
87.64,11,7,0,6,2,0,1,4
87.645,6,7,2,9,5,2,0,0
87.65,1,0,0,8,10,1,1,1
87.655,1,2,1,2,3,1,2,2
87.66,10,6,2,5,7,1,1,0
87.665,12,1,9,2,2,0,1,3
87.67,5,5,5,13,1,2,0,1
87.675,2,30,15,10,2,1,3,0
87.68,3,2,2,9,5,9,0,2
87.685,4,6,0,8,0,3,2,1
87.69,4,13,3,10,2,4,1,3
87.695,2,4,4,3,0,0,3,0
87.7,1,10,7,2,2,0,1,2
87.705,2,2,2,2,1,5,2,1
87.71,5,5,4,3,3,1,2,3
87.715,0,6,5,3,5,1,2,1
87.72,1,4,8,6,7,2,3,0
87.725,4,0,0,1,2,1,2,2
87.73,3,4,21,3,4,2,1,0
87.735,2,0,1,6,1,0,0,1
87.74,1,2,4,0,2,2,3,0
87.745,3,2,24,5,1,2,4,1
87.75,1,8,3,1,1,0,4,2
87.755,6,3,9,3,1,2,5,2
87.76,6,2,17,5,0,1,1,1
87.765,1,9,2,3,1,6,0,0
87.77,5,3,12,1,3,4,1,0
87.775,2,6,3,2,0,5,2,0
87.78,2,8,3,5,1,11,5,1
87.785,5,2,1,3,1,5,5,1
87.79,0,14,3,2,1,2,6,2
87.795,0,9,10,2,1,2,3,1
87.8,0,1,5,4,3,5,3,1
87.805,0,4,1,4,2,3,0,2
87.81,3,3,3,7,3,0,1,1
87.815,1,9,2,9,1,2,1,1
87.82,9,10,3,0,1,2,0,3
87.825,6,2,8,13,2,2,2,1
87.83,1,11,22,2,1,3,2,0
87.835,8,4,0,2,5,1,0,1
87.84,8,0,8,4,0,0,1,0
87.845,0,1,5,7,0,0,0,1
87.85,3,8,0,7,3,1,2,2
87.855,3,0,1,2,4,0,0,0
87.86,3,3,0,1,3,5,6,3
87.865,2,3,3,0,1,2,3,1
87.87,3,7,13,4,3,2,1,1
87.875,4,5,5,0,0,3,2,2
87.88,2,5,2,0,0,0,0,0
87.885,2,4,2,2,2,1,2,1
87.89,0,2,9,2,3,1,0,2
87.895,1,15,0,2,3,0,1,1
87.9,0,21,9,1,1,3,3,3
87.905,2,3,4,3,3,2,0,1
87.91,1,1,3,3,1,1,2,1
87.915,6,8,5,4,3,2,1,3
87.92,4,15,4,8,4,1,3,5
87.925,4,5,0,10,0,0,2,1
87.93,2,4,9,8,5,2,0,1
87.935,0,1,0,2,2,1,0,0
87.94,2,2,12,2,2,2,1,1
87.945,2,5,7,0,3,3,3,2
87.95,8,7,8,3,3,3,2,1
87.955,7,1,6,4,1,1,0,3
87.96,11,4,7,0,2,3,1,2
87.965,3,0,4,0,2,1,0,1
87.97,1,3,2,3,0,1,3,0
87.975,7,25,4,1,1,0,0,2
87.98,3,4,7,1,0,2,1,1
87.985,4,2,7,5,4,2,2,7
87.99,4,3,3,5,0,2,1,1
87.995,1,10,5,5,6,4,2,2
88,0,21,10,6,1,1,2,1
88.005,7,1,2,10,3,0,1,3
88.01,1,9,4,13,4,1,1,2
88.015,0,4,2,5,0,3,3,1
88.02,2,12,4,13,1,2,1,0
88.025,6,2,7,4,5,5,2,4
88.03,0,6,11,1,5,4,2,2
88.035,4,0,6,2,2,1,5,2
88.04,7,5,18,6,3,3,7,1
88.045,7,9,31,1,4,11,1,1
88.05,0,0,8,9,0,13,3,2
88.055,0,1,2,3,0,1,4,3
88.06,0,1,13,1,1,5,5,1
88.065,1,8,3,5,2,1,1,2
88.07,1,3,2,0,2,9,0,1
88.075,4,5,18,2,0,6,4,2
88.08,0,3,12,3,1,0,1,0
88.085,1,6,9,2,0,2,2,1
88.09,4,9,21,7,4,5,5,3
88.095,4,4,7,7,1,1,0,1
88.1,1,15,4,12,2,1,1,0
88.105,6,12,2,1,1,1,4,1
88.11,7,4,8,3,2,0,1,2
88.115,4,1,12,0,1,2,2,0
88.12,3,2,4,7,5,3,1,2
88.125,3,9,14,7,4,2,2,4
88.13,5,12,25,3,2,0,3,2
88.135,5,5,1,4,4,0,4,1
88.14,5,11,9,5,2,3,2,0
88.145,2,8,17,8,2,4,6,2
88.15,1,9,25,8,2,3,13,1
88.155,5,1,40,1,1,3,10,2
88.16,2,8,25,3,1,0,2,7
88.165,3,2,15,5,1,3,4,0
88.17,6,1,29,3,1,5,2,9
88.175,5,6,40,1,3,4,4,14
88.18,4,4,1,5,6,4,3,10
88.185,5,11,4,2,2,2,1,23
88.19,12,19,10,2,4,0,3,21
88.195,16,6,23,0,3,2,3,25
88.2,4,13,16,8,6,4,3,17
88.205,8,5,16,0,2,0,0,22
88.21,6,1,11,1,3,3,6,26
88.215,5,5,35,6,1,1,2,2
88.22,4,8,57,2,3,1,1,13
88.225,9,2,4,1,1,2,6,80
88.23,28,10,24,10,6,7,7,72
88.235,25,3,9,8,4,3,2,14
88.24,13,11,6,7,1,0,2,16
88.245,6,17,1,7,12,3,1,0
88.25,8,19,5,11,6,0,3,12
88.255,11,4,45,25,5,0,3,4
88.26,3,3,47,14,4,4,1,27
88.265,13,3,47,5,6,2,1,18
88.27,14,3,33,1,0,2,5,47
88.275,1,2,22,7,18,5,2,28
88.28,15,0,47,8,20,4,2,12
88.285,0,12,30,11,0,3,9,7
88.29,0,7,78,10,5,1,0,11
88.295,8,0,19,3,1,0,4,20
88.3,5,15,10,14,9,2,5,13
88.305,1,2,21,15,7,2,8,1
88.31,6,1,6,3,3,0,1,8
88.315,20,16,3,6,13,2,4,19
88.32,15,41,10,1,1,2,11,22
88.325,11,14,3,4,2,1,2,12
88.33,11,18,12,49,21,2,1,11
88.335,5,6,12,52,25,1,1,28
88.34,7,33,30,37,4,2,3,31
88.345,12,63,38,25,4,3,0,6
88.35,0,19,35,11,2,1,6,1
88.355,3,7,10,13,6,1,5,0
88.36,0,18,6,12,16,6,4,13
88.365,1,15,89,26,4,1,3,0
88.37,5,2,59,52,5,2,5,19
88.375,1,28,0,2,8,6,2,18
88.38,10,32,39,7,12,8,8,5
88.385,3,37,30,3,11,3,0,5
88.39,12,64,2,2,0,5,6,6
88.395,1,64,37,21,2,2,2,6
88.4,20,27,1,8,2,1,2,1
88.405,15,21,5,9,2,3,0,3
88.41,39,81,54,33,0,5,7,13
88.415,24,36,22,66,12,1,4,12
88.42,32,102,27,88,3,3,5,21
88.425,23,84,56,39,1,9,6,23
88.43,39,39,53,27,7,5,7,23
88.435,24,6,78,79,23,4,3,14
88.44,15,8,82,47,1,1,4,9
88.445,8,68,45,16,5,3,2,19
88.45,6,44,27,9,2,2,11,15
88.455,15,9,69,9,1,4,8,12
88.46,5,25,36,0,7,2,16,6
88.465,8,28,10,4,6,6,3,33
88.47,0,86,37,18,3,5,2,10
88.475,4,57,27,33,4,4,2,61
88.48,24,78,3,28,6,5,0,38
88.485,11,10,2,19,5,1,5,14
88.49,4,3,2,1,0,2,2,7
88.495,8,7,96,16,4,1,0,11
88.5,20,42,99,1,1,0,3,26
88.505,29,70,14,21,1,2,0,23
88.51,5,76,88,5,7,3,4,36
88.515,5,37,37,13,2,2,4,45
88.52,8,34,27,10,6,1,1,18
88.525,19,21,50,14,5,3,5,5
88.53,14,29,56,12,4,1,1,36
88.535,5,44,53,2,3,4,8,24
88.54,4,1,25,8,4,5,2,17
88.545,3,16,100,13,2,6,10,24
88.55,22,12,47,13,3,8,7,28
88.555,8,13,32,1,7,3,3,4
88.56,7,64,20,14,7,3,6,4
88.565,21,66,44,23,0,3,3,14
88.57,31,103,13,1,6,8,13,27
88.575,13,38,44,5,0,4,7,14
88.58,1,41,55,31,1,3,6,6
88.585,19,42,58,51,9,1,3,15
88.59,2,16,25,17,0,1,5,24
88.595,8,46,70,27,14,8,13,22
88.6,17,26,2,16,2,2,3,8
88.605,5,47,89,6,8,5,4,2
88.61,11,14,50,17,8,3,3,10
88.615,10,8,49,18,7,2,2,42
88.62,13,3,0,13,7,2,7,19
88.625,21,65,57,42,13,7,7,7
88.63,10,6,17,20,15,1,7,7
88.635,8,11,22,0,1,0,3,2
88.64,17,69,9,9,7,1,7,32
88.645,11,50,26,4,1,2,5,27
88.65,14,2,26,6,3,3,1,20
88.655,15,70,59,5,2,3,5,9
88.66,6,68,84,18,9,4,3,27
88.665,6,32,9,4,10,0,2,7
88.67,6,58,30,10,15,4,8,8
88.675,12,26,50,33,21,6,3,2
88.68,11,13,40,23,13,6,9,36
88.685,4,30,41,17,1,3,6,63
88.69,10,58,32,22,5,3,6,28
88.695,7,18,6,4,3,1,4,16
88.7,2,49,38,2,11,3,11,38
88.705,6,85,43,8,6,3,2,9
88.71,24,122,80,14,1,2,8,9
88.715,4,64,56,22,13,1,8,9
88.72,24,31,11,3,6,0,0,37
88.725,5,34,20,8,4,0,5,14
88.73,13,66,24,1,1,0,1,6
88.735,16,114,94,13,1,5,5,2
88.74,11,97,109,25,6,2,9,35
88.745,4,72,36,17,14,13,22,58
88.75,3,79,37,6,5,1,2,12
88.755,3,25,11,1,3,3,4,4
88.76,2,6,5,15,3,5,4,12
88.765,1,30,6,44,3,1,0,13
88.77,6,51,32,4,5,5,3,19
88.775,8,22,21,3,1,7,8,1
88.78,16,79,87,2,6,1,5,44
88.785,20,81,66,18,6,4,3,5
88.79,5,28,12,7,0,0,1,3
88.795,3,7,22,8,2,5,1,6
88.8,1,23,16,4,1,0,1,14
88.805,0,19,57,9,3,0,3,1
88.81,1,17,24,17,6,4,2,4
88.815,10,78,67,18,4,2,2,51
88.82,12,66,91,18,5,10,4,59
88.825,23,27,8,3,2,2,0,6
88.83,4,12,11,1,4,5,5,10
88.835,11,59,69,14,4,3,4,5
88.84,1,5,8,1,12,6,0,13
88.845,10,9,18,4,1,1,2,2
88.85,1,9,6,6,8,3,3,2
88.855,1,7,29,12,3,1,0,12
88.86,8,17,3,7,1,1,3,7
88.865,4,15,32,4,1,3,4,16
88.87,1,1,33,3,2,2,1,5
88.875,6,9,4,23,4,3,1,5
88.88,5,4,7,8,4,1,0,5
88.885,0,7,16,2,4,0,0,2
88.89,10,33,39,15,6,3,2,8
88.895,2,10,63,10,4,2,0,10
88.9,0,36,19,11,3,3,1,9
88.905,2,8,44,4,6,3,2,12
88.91,13,28,52,25,6,7,4,26
88.915,0,21,19,20,6,2,1,10
88.92,0,7,34,4,4,1,2,0
88.925,1,10,29,5,2,2,2,4
88.93,4,4,7,2,4,2,3,3
88.935,2,12,20,1,1,1,2,10
88.94,14,26,1,1,2,1,1,2
88.945,3,7,34,1,1,0,0,20
88.95,3,3,13,0,1,1,0,15
88.955,1,19,12,7,2,1,2,5
88.96,3,17,6,3,4,5,1,9
88.965,0,0,21,10,5,2,4,1
88.97,2,2,0,18,8,5,1,8
88.975,5,11,5,4,1,0,4,5
88.98,2,8,15,4,2,4,3,1
88.985,5,6,16,0,1,1,1,4
88.99,4,10,2,3,5,3,1,0
88.995,0,2,2,15,5,0,1,1
89,2,1,10,6,1,1,4,0
89.005,4,7,34,9,3,1,0,2
89.01,1,16,42,21,2,2,1,6
89.015,5,15,61,8,1,3,3,3
89.02,8,56,3,2,4,1,1,4
89.025,19,57,42,19,15,11,6,6
89.03,2,3,4,0,1,1,1,3
89.035,1,3,46,13,11,5,2,4
89.04,5,8,62,12,4,5,1,0
89.045,3,10,28,4,1,5,5,2
89.05,3,5,51,6,7,5,2,2
89.055,2,14,47,12,3,2,4,4
89.06,1,6,33,5,1,3,0,1
89.065,1,4,12,0,1,2,0,1
89.07,3,14,12,5,5,5,3,4
89.075,3,11,6,2,2,1,0,2
89.08,2,13,3,1,0,0,1,2
89.085,0,4,4,1,1,1,0,1
89.09,1,2,34,8,2,2,2,0
89.095,0,7,18,14,4,1,1,2
89.1,4,20,13,3,3,3,2,1
89.105,1,13,0,2,2,3,0,0
89.11,3,1,29,6,1,2,1,0
89.115,1,2,62,10,4,4,3,4
89.12,4,6,3,1,2,2,0,3
89.125,4,9,25,1,1,3,2,1
89.13,4,13,13,0,2,1,0,1
89.135,1,4,14,0,3,2,2,1
89.14,1,1,22,3,1,2,1,0
89.145,2,12,31,11,5,3,0,1
89.15,1,6,12,9,2,3,1,3
89.155,1,3,10,7,7,2,2,2
89.16,3,2,2,4,5,2,1,0
89.165,0,1,7,8,1,2,3,1
89.17,2,0,2,3,2,0,1,3
89.175,6,3,14,2,1,1,2,1
89.18,0,3,1,0,0,0,1,2
89.185,11,0,9,0,2,0,2,4
89.19,5,1,1,2,2,2,3,2
89.195,1,5,0,0,3,2,1,0
89.2,2,5,6,2,2,0,1,1
89.205,4,2,5,1,1,2,3,1
89.21,3,1,21,2,2,1,1,2
89.215,1,5,27,5,1,2,2,0
89.22,3,8,35,6,3,2,3,2
89.225,1,0,3,2,2,1,1,2
89.23,3,0,1,4,0,3,0,1
89.235,1,2,6,3,1,0,1,2
89.24,2,0,25,3,2,0,1,0
89.245,1,3,18,1,3,2,0,1
89.25,3,3,20,1,0,1,0,0
89.255,0,1,14,2,4,2,2,2
89.26,3,0,7,3,0,2,1,2
89.265,0,3,16,1,1,1,1,2
89.27,1,0,13,7,2,3,3,0
89.275,4,4,4,8,1,0,1,1
89.28,1,3,3,4,1,1,2,1
89.285,1,3,3,4,3,1,2,1
89.29,1,1,2,2,1,2,0,1
89.295,1,1,2,4,4,2,2,0
89.3,0,1,5,2,2,0,2,0
89.305,0,1,3,1,2,0,0,1
89.31,6,9,6,3,0,2,2,1
89.315,0,1,7,4,2,0,1,1
89.32,3,1,21,5,4,1,1,0
89.325,2,4,38,2,1,0,0,0
89.33,7,6,6,5,4,3,1,0
89.335,8,8,9,9,1,1,2,4
89.34,6,3,36,5,2,3,1,0
89.345,3,0,18,2,1,1,1,2
89.35,5,8,16,5,2,1,1,2
89.355,2,6,21,11,5,4,5,1
89.36,2,4,30,2,0,2,4,0
89.365,4,0,17,3,3,8,11,6
89.37,5,1,18,8,4,4,16,2
89.375,0,1,1,3,4,9,32,8
89.38,1,2,3,1,3,3,3,1
89.385,1,1,17,0,4,2,1,2
89.39,2,1,7,0,1,0,3,0
89.395,3,4,23,2,0,3,9,1
89.4,1,3,20,4,0,2,0,0
89.405,5,12,2,4,4,1,1,3
89.41,2,0,36,5,2,1,4,1
89.415,1,3,45,5,2,2,2,0
89.42,3,0,14,2,1,2,5,3
89.425,2,1,33,2,2,0,2,0
89.43,1,1,26,5,1,0,4,1
89.435,4,10,12,7,1,3,3,3
89.44,2,2,34,2,1,2,2,0
89.445,0,9,69,16,3,2,1,1
89.45,7,26,90,17,6,3,4,4
89.455,2,9,43,14,4,0,4,13
89.46,6,7,3,8,3,4,3,2
89.465,2,31,75,6,1,2,0,11
89.47,1,15,37,7,1,2,4,15
89.475,4,12,2,7,1,1,2,18
89.48,0,7,63,8,0,0,1,28
89.485,1,2,57,14,6,5,5,39
89.49,1,2,16,4,3,0,2,5
89.495,3,3,29,6,9,4,6,3
89.5,8,1,87,0,3,1,1,3
89.505,18,0,78,4,4,7,8,22
89.51,1,14,36,6,2,3,4,7
89.515,2,9,18,4,2,0,3,3
89.52,5,19,21,8,1,0,4,8
89.525,10,24,79,24,4,1,4,19
89.53,9,8,124,25,9,3,7,44
89.535,3,10,97,1,3,0,2,40
89.54,5,7,1,9,2,1,2,19
89.545,3,24,1,6,1,1,1,10
89.55,4,28,15,2,1,1,0,4
89.555,2,4,32,3,4,4,4,12
89.56,1,0,4,8,2,1,3,10
89.565,11,37,80,10,1,4,1,7
89.57,10,35,41,8,3,1,1,19
89.575,8,4,11,2,0,3,3,29
89.58,0,18,12,4,3,1,2,1
89.585,5,12,6,3,2,2,1,3
89.59,14,12,5,1,1,1,4,2
89.595,4,11,4,7,4,0,15,51
89.6,3,40,67,4,5,6,22,64
89.605,2,3,6,6,0,2,4,3
89.61,5,5,46,5,3,0,3,22
89.615,9,2,1,12,0,3,3,4
89.62,7,28,8,13,3,1,5,7
89.625,7,14,81,12,1,4,10,35
89.63,14,16,78,5,3,4,5,12
89.635,2,17,36,11,2,2,0,2
89.64,14,31,60,7,5,5,1,33
89.645,0,19,55,15,5,1,4,9
89.65,1,5,82,9,1,1,1,5
89.655,2,7,114,14,2,1,2,13
89.66,3,1,46,9,4,3,1,40
89.665,0,7,54,4,1,1,2,9
89.67,3,1,32,11,6,3,5,0
89.675,5,18,25,6,0,1,1,8
89.68,1,6,6,5,0,2,2,1
89.685,7,1,14,5,4,2,1,34
89.69,2,12,47,11,4,3,7,12
89.695,2,4,73,7,6,2,4,28
89.7,13,61,50,16,2,5,2,35
89.705,1,17,58,3,3,3,2,28
89.71,3,2,23,2,0,3,4,3
89.715,4,42,49,4,3,2,1,2
89.72,5,8,1,12,8,3,2,4
89.725,1,14,48,4,1,2,4,21
89.73,4,13,6,5,3,3,3,67
89.735,3,66,9,6,5,6,2,29
89.74,4,58,4,9,3,8,10,33
89.745,1,28,14,16,4,4,7,14
89.75,13,23,16,9,4,1,4,1
89.755,1,39,25,4,3,3,7,44
89.76,3,43,3,16,8,6,5,74
89.765,4,15,33,5,1,2,32,127
89.77,4,2,16,16,7,10,39,95
89.775,5,10,62,23,4,2,3,38
89.78,7,51,23,9,1,5,4,6
89.785,1,43,57,17,7,1,4,3
89.79,11,3,21,3,4,7,16,65
89.795,13,30,82,1,0,0,1,16
89.8,12,21,95,21,4,1,8,16
89.805,1,18,66,17,3,2,15,54
89.81,3,27,25,21,7,7,16,80
89.815,2,22,94,36,11,6,12,10
89.82,5,6,11,17,5,2,2,28
89.825,11,23,71,18,3,2,11,56
89.83,9,13,40,8,4,3,4,13
89.835,9,1,45,6,2,0,0,2
89.84,17,28,69,14,4,2,4,18
89.845,6,32,58,17,8,4,5,18
89.85,3,4,26,2,1,2,4,5
89.855,3,70,8,3,3,1,5,32
89.86,10,8,22,7,4,6,3,40
89.865,2,2,52,20,10,7,2,40
89.87,0,10,35,25,2,0,3,6
89.875,2,64,11,8,11,0,15,26
89.88,19,10,38,14,3,2,13,28
89.885,10,37,28,19,1,10,5,0
89.89,7,22,31,6,0,2,1,3
89.895,7,7,7,0,2,5,4,4
89.9,1,8,41,3,5,13,0,15
89.905,2,5,33,2,2,4,7,11
89.91,6,12,42,5,6,5,0,8
89.915,4,26,42,4,10,12,3,12
89.92,6,21,40,1,1,22,5,4
89.925,12,77,40,3,5,7,8,15
89.93,3,10,37,17,10,11,3,6
89.935,25,105,63,10,0,20,18,17
89.94,9,15,85,18,2,1,15,4
89.945,2,5,31,13,4,34,9,37
89.95,11,42,5,4,2,24,2,0
89.955,2,15,20,9,0,1,17,6
89.96,11,105,37,11,1,3,4,19
89.965,11,50,74,11,2,27,15,19
89.97,1,66,42,4,6,11,5,22
89.975,9,4,63,3,3,8,4,1
89.98,9,18,72,16,5,23,1,8
89.985,9,26,84,20,3,7,11,4
89.99,8,13,5,0,5,1,1,4
89.995,3,10,62,33,3,8,6,2
90,10,39,14,5,2,2,2,1
90.005,3,7,13,0,2,3,1,1
90.01,5,9,90,17,2,0,1,1
90.015,9,43,2,9,5,13,11,9
90.02,8,19,51,15,2,4,1,1
90.025,2,20,12,1,8,9,5,0
90.03,0,8,43,15,20,7,4,4
90.035,3,13,38,3,3,3,3,3
90.04,3,19,40,12,2,11,9,6
90.045,4,5,63,9,4,3,4,7
90.05,6,19,21,11,3,7,4,15
90.055,3,17,41,8,7,3,1,8
90.06,0,3,31,1,3,5,1,10
90.065,7,5,6,2,4,1,1,2
90.07,5,13,6,12,8,14,5,4
90.075,13,32,51,7,2,7,7,2
90.08,3,0,100,24,0,7,8,16
90.085,2,16,33,28,9,4,1,11
90.09,6,15,10,12,5,6,0,33
90.095,4,26,4,5,5,8,2,5
90.1,7,13,67,12,2,1,5,1
90.105,4,18,41,19,9,3,0,10
90.11,2,21,20,5,1,1,2,12
90.115,1,8,52,4,3,8,5,0
90.12,4,17,20,14,7,0,5,7
90.125,10,34,10,0,3,1,3,5
90.13,5,34,9,4,6,5,2,10
90.135,2,12,1,7,1,1,4,6
90.14,2,11,3,10,2,2,2,5
90.145,2,1,19,2,5,4,3,5
90.15,2,13,15,10,0,3,1,6
90.155,5,3,35,7,3,1,6,11
90.16,6,31,29,6,1,0,2,11
90.165,1,30,2,3,6,6,1,23
90.17,2,1,21,5,2,3,2,1
90.175,2,2,23,10,0,1,3,3
90.18,2,5,18,12,1,0,2,7
90.185,2,7,27,16,4,1,1,10
90.19,5,9,17,18,3,2,2,2
90.195,1,11,12,6,3,2,7,4
90.2,6,5,11,3,7,2,1,1
90.205,3,2,14,2,3,1,1,2
90.21,18,9,0,0,1,2,4,7
90.215,7,9,29,18,1,2,0,3
90.22,0,4,1,10,2,1,0,3
90.225,16,6,3,1,6,0,0,3
90.23,4,4,5,6,4,5,0,1
90.235,1,4,5,3,1,0,1,1
90.24,2,1,0,1,0,1,1,2
90.245,2,3,3,4,5,4,1,1
90.25,1,4,21,1,10,4,3,2
90.255,4,3,19,11,5,2,3,5
90.26,4,2,8,9,6,5,2,3
90.265,2,2,8,2,13,5,2,4
90.27,1,2,5,7,2,3,1,0
90.275,1,2,5,15,3,1,2,0
90.28,7,4,3,9,8,5,1,5
90.285,5,1,5,3,5,2,0,0
90.29,5,4,8,3,3,4,3,2
90.295,6,1,5,2,3,2,1,0
90.3,3,0,0,1,3,4,2,3
90.305,2,3,5,3,3,1,1,1
90.31,0,2,13,4,4,2,1,1
90.315,1,0,12,2,2,0,1,2
90.32,1,3,3,0,1,3,1,0
90.325,4,0,3,3,3,1,1,2
90.33,5,2,5,6,3,3,1,0
90.335,6,5,8,0,4,7,1,1
90.34,0,13,35,7,1,10,3,5
90.345,1,5,24,1,4,0,2,1
90.35,0,4,10,4,4,4,3,0
90.355,0,1,6,3,5,2,0,0
90.36,3,5,12,9,2,4,1,0
90.365,2,1,3,7,1,0,1,1
90.37,1,3,7,4,6,2,3,3
90.375,1,1,6,7,5,0,1,2
90.38,5,4,12,7,3,3,3,1
90.385,3,2,21,1,3,1,0,2
90.39,0,3,5,2,0,1,3,0
90.395,2,1,10,1,9,1,2,2
90.4,1,0,4,0,0,3,1,1
90.405,1,3,5,0,2,4,0,0
90.41,1,5,15,7,1,1,0,3
90.415,14,2,11,1,3,1,1,2
90.42,11,2,6,3,1,4,2,0
90.425,7,2,8,2,2,9,6,2
90.43,3,1,9,1,0,7,3,1
90.435,2,5,1,2,0,8,2,3
90.44,1,3,9,1,2,6,5,2
90.445,2,0,14,2,6,3,3,1
90.45,5,0,16,1,3,5,1,0
90.455,1,3,2,2,1,0,0,1
90.46,8,3,15,2,1,2,2,2
90.465,4,1,20,2,2,2,4,1
90.47,8,1,12,0,2,1,4,2
90.475,5,3,1,2,3,0,2,1
90.48,6,5,12,5,2,5,4,3
90.485,2,4,18,1,1,1,2,2
90.49,2,1,1,1,1,1,1,0
90.495,2,1,3,3,0,5,0,1
90.5,2,2,15,1,5,1,0,2
90.505,2,2,12,1,1,1,1,2
90.51,2,4,9,2,0,1,3,3
90.515,1,1,3,1,2,1,3,1
90.52,1,2,4,0,1,0,0,1
90.525,0,3,1,1,1,1,0,1
90.53,2,0,5,2,3,8,5,0
90.535,3,3,12,2,2,1,3,2
90.54,2,3,7,3,6,3,2,2
90.545,1,3,9,5,2,3,3,1
90.55,1,2,3,3,2,2,1,1
90.555,2,2,6,3,2,3,2,3
90.56,2,2,3,6,6,6,3,0
90.565,1,2,4,3,2,2,5,1
90.57,2,1,0,1,1,1,2,2
90.575,3,2,1,4,0,1,0,2
90.58,3,1,3,2,1,2,1,0
90.585,0,5,14,2,0,2,3,0
90.59,1,4,2,6,10,1,2,1
90.595,3,1,1,1,3,2,1,0
90.6,1,1,2,1,0,0,0,4
90.605,1,4,6,4,2,1,0,2
90.61,4,1,4,5,0,4,1,3
90.615,0,2,17,4,0,2,2,1
90.62,2,2,14,2,1,3,3,0
90.625,4,6,4,0,2,1,1,2
90.63,3,5,3,3,1,1,1,0
90.635,2,7,16,7,3,4,3,1
90.64,3,1,3,1,2,1,2,2
90.645,3,4,1,0,1,2,1,1
90.65,3,5,17,1,2,1,2,7
90.655,2,1,5,2,4,0,1,1
90.66,1,3,6,0,3,6,4,5
90.665,0,3,17,9,2,1,2,5
90.67,1,2,13,6,1,1,0,1
90.675,3,2,3,1,0,2,0,5
90.68,2,1,2,1,0,1,1,1
90.685,4,5,7,4,0,4,3,2
90.69,0,1,32,0,4,3,1,2
90.695,1,6,49,5,2,0,1,1
90.7,0,1,2,0,2,3,2,1
90.705,1,0,0,4,1,0,2,1
90.71,2,2,8,3,3,1,1,1
90.715,3,6,17,1,0,1,0,1
90.72,1,1,7,2,3,1,0,3
90.725,1,2,2,3,4,1,0,3
90.73,1,3,7,3,4,3,1,2
90.735,4,1,6,3,4,2,3,2
90.74,0,1,2,2,1,1,1,2
90.745,1,1,2,4,1,0,1,1
90.75,1,0,4,1,1,0,4,1
90.755,1,2,4,0,3,3,0,0
90.76,3,6,1,6,4,1,1,1
90.765,1,1,6,2,4,1,0,1
90.77,1,1,18,2,3,2,0,2
90.775,1,6,36,6,5,4,1,2
90.78,2,1,12,0,2,3,2,0
90.785,2,3,21,1,1,1,1,1
90.79,5,5,1,6,4,1,0,3
90.795,1,4,39,4,2,1,0,2
90.8,0,1,3,2,1,2,1,1
90.805,1,5,4,1,4,2,1,0
90.81,2,4,14,3,1,0,1,2
90.815,1,2,3,5,1,1,0,0
90.82,3,9,23,11,4,5,3,4
90.825,5,6,14,2,2,1,2,2
90.83,1,6,24,1,0,2,1,2
90.835,3,4,27,3,4,1,0,3
90.84,5,15,19,9,4,3,3,3
90.845,3,19,28,8,1,1,1,4
90.85,2,23,53,11,5,4,4,0
90.855,2,5,2,5,2,2,1,0
90.86,1,4,4,3,3,1,1,1
90.865,2,9,25,4,5,1,1,1
90.87,2,5,32,4,6,0,1,0
90.875,3,8,19,1,1,0,1,10
90.88,1,13,19,5,1,1,1,11
90.885,3,9,25,7,4,2,1,6
90.89,0,7,31,7,1,0,2,2
90.895,6,19,27,14,3,5,1,5
90.9,3,9,5,8,4,2,2,5
90.905,4,19,38,16,3,2,1,17
90.91,5,7,1,8,4,3,3,20
90.915,0,3,18,3,1,2,0,14
90.92,1,13,18,4,0,1,2,3
90.925,10,5,1,6,3,4,5,3
90.93,6,9,29,6,1,0,1,7
90.935,3,9,42,3,1,0,1,10
90.94,5,14,12,7,5,5,2,12
90.945,0,10,7,3,1,1,0,4
90.95,2,0,3,3,1,0,0,2
90.955,1,3,21,11,1,1,2,5
90.96,1,4,1,2,2,1,1,3
90.965,2,7,6,3,1,1,0,11
90.97,2,2,4,7,4,2,1,17
90.975,2,1,21,0,1,1,0,3
90.98,0,2,10,1,2,2,2,4
90.985,1,4,2,3,3,4,2,6
90.99,3,0,28,0,2,1,1,12
90.995,7,6,60,9,2,3,3,11
91,2,4,44,1,3,0,0,5
91.005,5,19,55,8,2,2,0,11
91.01,2,4,26,4,1,0,2,2
91.015,3,19,7,4,2,0,3,8
91.02,1,22,42,6,4,4,4,26
91.025,1,22,10,2,2,3,8,10
91.03,1,9,2,2,0,1,3,37
91.035,3,1,49,11,4,2,1,5
91.04,10,3,40,2,1,1,2,40
91.045,11,11,10,4,4,5,3,72
91.05,1,1,36,11,2,1,2,15
91.055,2,3,19,2,0,1,1,8
91.06,3,5,8,3,3,0,2,9
91.065,5,5,6,1,1,0,2,38
91.07,1,3,9,0,1,1,0,31
91.075,3,12,44,9,0,0,2,16
91.08,1,0,35,1,3,2,4,12
91.085,4,8,47,7,1,3,2,10
91.09,3,2,9,3,2,2,1,27
91.095,5,11,28,2,0,0,1,7
91.1,2,6,79,3,2,1,1,4
91.105,3,11,18,2,1,0,1,2
91.11,4,7,28,1,3,2,2,4
91.115,3,21,28,8,2,2,3,1
91.12,6,23,23,3,5,4,7,7
91.125,9,21,0,10,4,0,1,25
91.13,10,7,17,13,6,2,1,13
91.135,7,14,23,1,2,1,6,3
91.14,0,9,27,2,3,3,4,32
91.145,0,11,22,3,2,0,9,7
91.15,1,4,12,3,0,4,9,46
91.155,0,19,6,4,5,4,7,12
91.16,1,2,18,4,0,4,14,24
91.165,5,19,15,8,2,2,3,13
91.17,4,5,3,3,4,3,1,79
91.175,12,4,4,1,1,1,11,24
91.18,4,2,0,3,0,0,10,42
91.185,4,6,9,3,2,2,0,26
91.19,14,18,3,1,1,3,8,4
91.195,7,18,46,10,6,1,7,75
91.2,7,17,27,0,7,4,1,26
91.205,8,15,2,10,1,1,14,20
91.21,4,1,51,9,4,1,2,6
91.215,16,20,50,10,7,3,7,34
91.22,2,13,19,5,2,2,1,3
91.225,1,6,9,7,1,1,4,37
91.23,0,3,5,2,2,1,13,41
91.235,0,5,3,2,0,4,0,5
91.24,1,6,23,5,2,0,1,20
91.245,8,1,7,2,1,2,9,5
91.25,2,4,5,0,1,2,1,9
91.255,1,4,4,5,3,2,3,3
91.26,3,10,0,3,2,0,1,7
91.265,10,0,13,3,3,1,2,24
91.27,5,2,14,10,8,4,3,23
91.275,3,0,22,5,7,3,7,29
91.28,5,5,1,2,0,2,1,9
91.285,3,12,31,22,10,0,1,15
91.29,3,5,8,4,5,3,0,10
91.295,2,5,29,4,14,4,3,1
91.3,3,6,30,10,10,3,1,6
91.305,16,4,6,17,20,7,2,8
91.31,6,5,18,46,4,2,0,10
91.315,5,6,11,29,2,0,0,8
91.32,8,7,3,21,2,2,4,3
91.325,1,5,16,12,9,2,1,13
91.33,0,8,34,14,15,6,4,10
91.335,3,1,10,3,3,1,2,5
91.34,2,6,3,3,3,1,0,4
91.345,3,5,9,2,12,1,3,1
91.35,0,4,8,5,3,0,1,1
91.355,1,7,11,10,10,0,2,3
91.36,3,7,14,18,4,1,0,2
91.365,0,5,0,10,3,0,0,5
91.37,2,5,2,3,5,2,3,5
91.375,2,2,19,0,4,1,1,6
91.38,1,6,9,2,7,4,2,1
91.385,2,0,6,6,2,1,1,6
91.39,1,6,22,7,3,2,2,1
91.395,9,4,9,5,5,3,1,2
91.4,1,1,5,1,2,0,1,1
91.405,2,1,2,3,4,3,2,3
91.41,1,2,4,13,0,1,1,0
91.415,1,1,4,4,3,1,1,2
91.42,3,1,3,3,3,0,1,1
91.425,1,0,1,2,2,2,1,7
91.43,4,0,11,2,1,1,1,0
91.435,7,3,2,1,2,4,3,6
91.44,4,2,9,4,1,1,0,9
91.445,1,4,3,5,4,4,0,4
91.45,3,4,6,2,1,1,0,3
91.455,0,1,0,2,1,1,0,5
91.46,2,3,13,3,1,1,1,2
91.465,0,6,1,5,2,0,0,2
91.47,4,1,9,10,1,1,1,2
91.475,3,2,16,10,3,1,0,3
91.48,0,0,2,5,5,2,2,3
91.485,3,1,7,3,2,3,1,1
91.49,1,3,10,8,2,0,2,0
91.495,2,4,4,9,3,1,2,0
91.5,0,0,4,2,1,3,1,1
91.505,1,0,2,3,2,1,0,1
91.51,3,3,10,2,3,3,2,0
91.515,3,0,9,0,3,0,0,2
91.52,4,4,8,1,1,2,1,4
91.525,4,1,0,0,5,2,2,3
91.53,3,2,4,3,4,1,3,2
91.535,1,3,5,3,2,1,1,2
91.54,0,2,5,2,0,1,1,1
91.545,2,2,7,1,0,2,1,3
91.55,2,3,19,0,3,1,0,0
91.555,5,1,5,1,4,3,2,4
91.56,4,3,11,12,1,0,1,1
91.565,3,4,22,8,4,2,0,1
91.57,8,2,17,1,4,3,2,1
91.575,3,1,23,2,3,2,1,2
91.58,0,2,27,4,7,3,2,1
91.585,0,2,14,3,8,5,3,2
91.59,2,4,3,0,2,0,0,0
91.595,1,1,1,0,6,3,0,0
91.6,2,3,16,4,1,1,3,3
91.605,1,5,21,6,1,0,2,2
91.61,2,2,14,5,4,3,2,1
91.615,2,4,19,1,4,1,0,0
91.62,0,5,14,7,2,2,2,0
91.625,2,2,8,5,3,2,2,2
91.63,0,4,21,3,2,2,1,2
91.635,2,2,0,3,2,2,0,0
91.64,0,1,6,1,1,1,0,0
91.645,0,4,1,5,2,1,1,0
91.65,1,0,1,3,0,2,0,2
91.655,1,3,11,4,3,2,3,2
91.66,3,1,5,0,5,3,0,1
91.665,1,0,3,3,1,0,0,1
91.67,4,1,4,2,3,1,0,1
91.675,1,3,3,1,4,2,0,0
91.68,2,2,4,2,1,1,0,1
91.685,1,1,0,3,1,2,0,0
91.69,1,2,1,1,3,4,1,1
91.695,1,0,5,5,5,0,0,0
91.7,3,2,2,1,3,3,1,1
91.705,3,1,4,2,4,1,1,1
91.71,3,1,4,2,0,2,0,1
91.715,2,2,14,4,1,0,1,2
91.72,0,2,34,9,0,1,0,1
91.725,3,5,5,5,6,3,4,2
91.73,1,3,2,3,3,0,2,1
91.735,0,1,9,3,3,0,2,1
91.74,2,3,12,0,1,3,3,3
91.745,1,5,9,2,0,1,1,3
91.75,1,1,15,3,1,1,0,2
91.755,1,1,30,7,1,1,0,1
91.76,3,3,6,1,1,0,1,2
91.765,2,6,17,3,4,2,1,1
91.77,0,0,12,1,2,3,2,1
91.775,1,1,1,2,1,0,0,0
91.78,1,1,3,2,1,1,0,0
91.785,1,3,6,1,1,1,1,1
91.79,2,3,12,3,4,2,3,1
91.795,2,3,1,1,0,3,1,2
91.8,2,5,3,1,1,1,0,0
91.805,3,7,2,3,2,2,1,3
91.81,2,2,1,2,4,2,2,1
91.815,3,3,12,0,0,2,1,4
91.82,1,3,11,3,2,1,0,2
91.825,2,4,4,2,3,3,1,2
91.83,2,1,5,1,0,0,0,0
91.835,2,3,3,1,2,0,2,0
91.84,1,2,9,2,6,2,0,1
91.845,2,1,8,1,4,3,0,0
91.85,2,6,10,1,0,0,0,0
91.855,1,7,13,2,1,1,1,0
91.86,2,2,5,2,2,3,0,2
91.865,0,4,1,4,6,1,1,1
91.87,3,2,4,3,5,4,2,2
91.875,0,2,2,5,4,5,2,2
91.88,1,5,5,3,2,2,1,3
91.885,0,2,3,6,2,2,1,1
91.89,2,2,1,1,0,0,1,2
91.895,3,2,4,2,1,0,1,1
91.9,1,0,2,1,2,1,3,1
91.905,4,5,9,1,0,0,2,5
91.91,2,2,4,0,1,0,1,1
91.915,1,3,9,1,2,2,2,1
91.92,4,0,9,1,3,2,2,2
91.925,3,2,2,0,2,1,0,1
91.93,2,0,4,1,1,3,2,1
91.935,2,5,0,1,0,2,1,2
91.94,2,6,10,0,0,1,2,0
91.945,3,8,8,7,5,4,3,1
91.95,1,4,11,4,1,1,1,2
91.955,2,1,4,4,5,2,0,0
91.96,1,1,5,0,1,0,1,2
91.965,2,1,11,4,0,1,1,2
91.97,1,1,7,2,8,7,4,1
91.975,1,3,14,5,1,0,1,1
91.98,0,5,6,3,2,1,1,0
91.985,3,2,9,6,2,0,1,0
91.99,2,1,0,2,0,1,0,0
91.995,5,1,4,2,8,4,1,0
92,2,5,12,15,5,6,1,1
92.005,5,1,3,3,2,2,1,2
92.01,2,1,11,2,2,1,1,1
92.015,1,6,5,0,2,2,1,2
92.02,7,3,11,2,5,1,1,0
92.025,1,1,6,1,1,2,2,1
92.03,2,0,14,4,1,3,2,2
92.035,0,1,8,1,3,3,2,3
92.04,4,5,12,4,0,1,0,2
92.045,2,0,3,1,0,2,1,0
92.05,5,4,1,7,1,1,1,1
92.055,1,4,5,9,0,0,2,2
92.06,1,0,8,3,0,1,0,2
92.065,4,1,3,1,3,1,1,2
92.07,0,4,9,4,1,2,2,2
92.075,1,3,18,7,1,1,2,1
92.08,4,4,5,7,1,2,1,1
92.085,1,1,8,3,2,1,1,0
92.09,1,1,3,9,4,0,1,2
92.095,0,5,21,3,2,1,1,3
92.1,5,1,3,1,0,0,0,2
92.105,2,3,27,4,1,0,0,1
92.11,1,4,13,1,3,0,1,4
92.115,1,4,11,1,4,4,2,0
92.12,4,0,2,2,2,0,2,1
92.125,2,1,12,4,1,1,0,3
92.13,1,1,4,0,2,1,0,1
92.135,1,1,6,6,3,0,1,1
92.14,1,2,19,3,2,2,2,1
92.145,1,1,2,0,1,1,1,0
92.15,4,1,6,0,0,1,1,0
92.155,1,2,2,6,4,3,1,3
92.16,2,2,6,1,0,3,1,2
92.165,4,1,1,3,2,2,0,1
92.17,2,1,3,1,1,0,0,0
92.175,3,3,1,2,0,2,1,2
92.18,0,2,0,2,0,2,2,2
92.185,2,0,0,3,1,1,2,1
92.19,2,4,8,2,1,1,3,2
92.195,1,2,1,4,5,3,1,1
92.2,0,0,6,3,0,0,2,2
92.205,2,1,14,0,3,2,1,2
92.21,0,1,1,1,2,6,1,1
92.215,2,4,3,1,5,12,2,3
92.22,1,1,3,4,0,3,1,1
92.225,2,0,4,1,1,15,1,0
92.23,2,1,0,4,3,4,5,4
92.235,0,3,1,4,4,1,0,22
92.24,1,0,2,2,7,29,6,7
92.245,4,4,2,5,14,28,15,12
92.25,0,0,20,5,4,27,5,11
92.255,2,17,8,3,1,16,2,19
92.26,10,1,5,0,2,15,1,21
92.265,2,1,7,3,6,11,8,23
92.27,5,2,10,0,3,4,8,36
92.275,8,20,3,5,4,7,1,60
92.28,2,5,24,1,2,24,1,15
92.285,2,2,18,0,0,2,21,17
92.29,5,5,57,2,3,11,3,13
92.295,5,15,4,2,9,24,3,25
92.3,4,3,3,4,7,8,0,6
92.305,3,0,15,8,4,1,9,17
92.31,6,6,14,16,9,28,7,2
92.315,9,1,5,14,0,1,8,2
92.32,16,0,4,20,4,9,10,2
92.325,6,0,11,9,2,23,7,6
92.33,23,7,5,6,3,14,0,14
92.335,13,7,20,2,9,10,6,7
92.34,3,11,50,13,4,23,4,4
92.345,9,2,38,16,8,20,12,3
92.35,9,8,72,10,2,15,4,6
92.355,4,4,29,9,2,21,2,2
92.36,5,0,9,7,1,9,6,8
92.365,7,3,2,28,8,2,3,2
92.37,6,1,7,2,3,1,2,2
92.375,3,7,25,5,3,17,6,11
92.38,18,5,16,8,12,12,2,7
92.385,2,1,16,13,7,5,18,1
92.39,2,7,21,8,6,1,0,9
92.395,5,1,10,5,4,6,6,3
92.4,20,2,0,10,1,4,0,1
92.405,9,2,17,12,3,0,9,4
92.41,14,1,14,10,4,18,17,10
92.415,25,10,14,15,1,19,31,1
92.42,10,7,14,1,7,14,19,10
92.425,24,7,8,3,3,1,5,5
92.43,3,8,26,12,6,4,5,3
92.435,18,4,32,22,1,6,12,9
92.44,6,9,47,19,2,4,2,3
92.445,5,7,14,19,4,11,2,1
92.45,1,4,14,11,3,5,4,4
92.455,1,1,1,7,4,4,3,1
92.46,4,5,9,2,2,1,0,1
92.465,1,0,6,7,5,5,1,2
92.47,2,6,27,16,3,4,2,2
92.475,3,6,10,18,10,7,5,1
92.48,0,1,2,4,3,5,1,0
92.485,1,0,4,9,2,1,2,4
92.49,5,2,13,7,0,7,2,3
92.495,5,3,9,20,4,2,5,1
92.5,2,2,1,4,7,2,3,1
92.505,1,3,13,7,2,4,2,3
92.51,5,3,10,3,3,8,4,4
92.515,9,1,9,1,2,8,3,1
92.52,0,1,6,2,1,6,1,4
92.525,8,4,1,9,3,2,2,31
92.53,7,1,1,11,4,4,2,27
92.535,16,0,10,1,3,0,1,11
92.54,3,0,4,3,9,1,3,8
92.545,1,1,9,4,0,1,1,4
92.55,0,10,28,7,3,5,5,7
92.555,2,1,5,16,9,13,5,3
92.56,0,1,2,10,1,15,2,7
92.565,4,1,11,1,1,13,4,9
92.57,1,3,14,10,9,36,2,2
92.575,7,1,6,8,2,44,36,2
92.58,0,0,8,3,3,64,36,4
92.585,15,3,8,0,0,1,2,9
92.59,6,4,9,2,2,20,3,2
92.595,1,5,3,2,0,11,2,1
92.6,4,4,1,6,5,44,18,1
92.605,2,4,2,4,7,7,9,4
92.61,4,5,11,4,7,1,4,2
92.615,0,4,3,3,4,5,9,4
92.62,2,2,1,9,3,2,6,3
92.625,5,0,3,3,4,0,4,7
92.63,7,3,12,6,6,4,5,6
92.635,5,2,2,3,3,13,6,6
92.64,3,5,17,8,2,4,3,1
92.645,0,2,4,3,3,2,2,1
92.65,0,2,0,0,1,1,0,2
92.655,2,2,5,1,2,10,5,4
92.66,2,1,12,0,2,2,3,6
92.665,2,1,12,0,2,14,3,1
92.67,1,2,8,2,1,2,1,0
92.675,2,4,7,11,5,13,7,2
92.68,3,0,11,3,5,12,3,2
92.685,1,3,0,5,5,10,3,3
92.69,0,3,7,2,1,7,1,0
92.695,2,2,12,3,4,0,3,0
92.7,1,0,1,4,0,5,4,3
92.705,5,3,17,7,0,5,1,1
92.71,5,10,12,0,1,7,1,3
92.715,1,3,17,2,0,8,1,0
92.72,1,1,1,6,7,3,5,0
92.725,2,0,8,5,2,6,1,3
92.73,6,1,2,2,2,5,1,2
92.735,7,5,1,8,3,6,0,4
92.74,3,1,9,7,1,2,2,1
92.745,1,2,5,2,3,2,4,2
92.75,3,4,1,1,2,1,2,1
92.755,2,0,5,1,4,0,0,0
92.76,2,3,3,4,1,1,1,4
92.765,2,5,19,3,5,1,0,0
92.77,1,2,2,1,1,4,2,0
92.775,7,0,3,7,3,1,0,1
92.78,12,1,9,11,1,2,2,1
92.785,3,1,4,5,2,4,1,0
92.79,1,12,10,0,4,0,0,0
92.795,4,16,15,1,1,1,2,1
92.8,1,2,7,8,4,5,1,2
92.805,1,4,3,1,0,3,4,4
92.81,6,2,4,5,1,5,5,0
92.815,4,9,14,2,2,1,0,1
92.82,3,1,18,1,4,2,3,0
92.825,2,5,11,13,5,2,0,1
92.83,1,2,4,7,2,4,4,2
92.835,3,1,6,2,0,1,0,1
92.84,0,6,6,2,1,1,0,1
92.845,5,3,6,5,5,6,3,2
92.85,1,4,12,4,3,2,1,1
92.855,2,3,15,3,7,2,1,3
92.86,0,3,14,0,9,1,1,0
92.865,1,3,12,4,0,1,2,0
92.87,5,3,9,4,5,6,0,1
92.875,1,0,2,1,2,2,2,1
92.88,5,4,13,1,3,5,10,1
92.885,10,3,2,2,3,4,4,2
92.89,3,7,5,6,4,3,3,2
92.895,2,1,3,6,7,7,4,6
92.9,7,1,0,2,2,2,2,2
92.905,2,3,1,1,4,3,2,1
92.91,3,0,5,3,4,0,2,0
92.915,3,1,6,1,1,2,2,3
92.92,5,7,34,4,5,2,0,1
92.925,2,4,17,3,6,6,6,2
92.93,1,3,6,4,1,5,2,1
92.935,1,2,6,6,2,1,1,1
92.94,2,3,2,9,3,1,1,1
92.945,5,1,0,3,5,5,2,2
92.95,7,4,4,2,5,1,1,2
92.955,2,1,0,1,2,1,5,0
92.96,4,2,4,1,1,2,2,1
92.965,4,2,10,4,5,1,10,2
92.97,2,1,8,10,6,1,1,3
92.975,2,4,6,1,1,2,0,2
92.98,7,1,8,5,0,7,3,4
92.985,5,2,3,2,4,11,5,1
92.99,6,3,4,4,5,6,4,1
92.995,7,4,3,4,3,4,2,1
93,4,1,3,9,1,1,2,2
93.005,1,0,5,8,1,4,7,2
93.01,5,2,7,9,4,0,1,0
93.015,7,4,6,4,2,0,1,3
93.02,8,1,9,1,2,0,1,2
93.025,3,2,8,5,2,4,1,4
93.03,1,0,1,7,8,3,3,1
93.035,1,0,0,7,3,5,8,0
93.04,7,3,8,10,4,5,3,3
93.045,11,0,9,9,3,0,2,5
93.05,6,9,13,3,5,6,5,4
93.055,14,13,1,4,3,1,1,4
93.06,4,6,8,1,4,4,5,3
93.065,8,11,42,9,6,1,2,1
93.07,17,24,42,20,29,8,0,2
93.075,2,3,3,13,7,6,2,0
93.08,4,2,17,14,6,3,2,0
93.085,0,6,54,78,36,11,4,0
93.09,6,7,8,20,19,1,1,1
93.095,1,12,86,98,1,2,1,1
93.1,3,0,3,15,16,6,2,1
93.105,2,13,6,8,0,3,1,0
93.11,3,21,96,17,15,6,5,3
93.115,7,15,44,57,13,3,2,6
93.12,1,2,15,7,10,2,3,0
93.125,4,3,38,41,16,3,3,1
93.13,3,1,0,25,12,2,0,2
93.135,0,7,14,2,8,1,1,0
93.14,3,9,6,22,8,4,3,1
93.145,3,3,1,9,10,14,3,0
93.15,1,4,4,0,11,4,1,0
93.155,18,5,7,12,10,1,0,4
93.16,4,2,3,2,3,3,3,1
93.165,3,2,23,8,1,11,4,0
93.17,5,3,3,10,6,5,2,0
93.175,6,7,25,4,2,1,3,2
93.18,4,10,1,12,4,8,6,2
93.185,2,5,49,16,8,10,17,2
93.19,2,5,55,1,1,32,17,46
93.195,2,9,8,20,8,14,1,38
93.2,5,4,43,5,1,6,8,18
93.205,2,4,26,6,2,18,0,9
93.21,9,11,36,4,5,25,20,47
93.215,5,9,47,22,3,22,4,40
93.22,9,12,17,7,3,10,7,38
93.225,9,8,33,1,3,15,5,10
93.23,2,3,13,0,1,15,5,2
93.235,1,0,60,6,14,31,12,2
93.24,4,0,62,7,6,12,13,31
93.245,1,2,27,2,5,1,7,5
93.25,1,16,51,2,1,8,1,10
93.255,2,4,48,4,0,6,6,8
93.26,3,4,18,5,1,7,2,14
93.265,5,6,63,2,1,4,0,4
93.27,2,3,62,15,5,0,2,9
93.275,3,4,62,0,1,3,1,7
93.28,1,21,76,16,1,7,0,1
93.285,6,11,48,2,2,8,3,13
93.29,8,9,100,25,6,4,6,22
93.295,3,19,40,24,3,9,7,1
93.3,10,32,57,15,2,18,1,14
93.305,9,20,53,22,4,8,3,0
93.31,2,12,65,14,10,43,5,8
93.315,2,21,41,13,2,21,4,0
93.32,3,1,8,6,2,8,4,14
93.325,3,14,4,9,2,5,2,3
93.33,5,8,70,5,3,12,4,0
93.335,1,14,43,16,2,1,1,2
93.34,4,2,6,3,2,4,10,2
93.345,3,13,30,12,3,5,8,22
93.35,9,27,23,9,6,10,1,51
93.355,6,11,13,7,1,7,1,21
93.36,1,1,15,2,5,17,3,21
93.365,5,2,30,6,1,15,15,27
93.37,1,7,19,4,6,18,2,8
93.375,3,1,26,4,0,22,4,13
93.38,5,22,60,19,2,11,1,13
93.385,6,3,11,0,2,38,7,52
93.39,1,9,58,28,5,13,10,6
93.395,2,8,46,29,7,13,12,46
93.4,7,19,12,14,6,9,12,6
93.405,1,10,32,13,4,15,1,3
93.41,4,12,10,5,1,0,4,10
93.415,1,7,14,5,2,3,5,19
93.42,4,4,21,2,2,5,17,27
93.425,6,11,26,4,4,1,4,13
93.43,11,47,46,15,6,8,9,0
93.435,4,22,49,4,9,1,9,5
93.44,0,19,44,11,5,15,4,33
93.445,0,1,62,4,3,17,5,12
93.45,8,9,20,7,3,6,13,13
93.455,10,10,12,6,2,17,0,11
93.46,6,22,43,7,3,19,3,47
93.465,3,11,39,11,6,9,20,82
93.47,3,6,86,8,5,13,7,9
93.475,3,5,83,11,2,10,10,6
93.48,4,17,63,5,0,5,6,11
93.485,8,21,54,16,1,7,7,8
93.49,6,10,46,14,6,11,12,8
93.495,8,14,17,4,4,3,5,12
93.5,5,15,58,18,12,3,0,5
93.505,9,33,118,22,7,22,10,22
93.51,0,6,63,1,1,27,8,21
93.515,7,1,51,0,5,8,1,5
93.52,5,5,9,4,4,34,8,3
93.525,22,25,5,3,6,45,15,21
93.53,7,19,22,4,1,6,7,1
93.535,9,8,21,6,4,11,12,13
93.54,4,5,90,6,4,0,12,20
93.545,5,6,6,13,1,16,16,3
93.55,4,2,22,14,1,7,5,11
93.555,6,1,44,10,3,3,8,54
93.56,5,6,50,3,4,5,6,26
93.565,11,9,12,4,3,7,11,6
93.57,9,4,35,7,0,2,6,13
93.575,8,12,60,9,3,12,5,13
93.58,4,7,17,9,4,2,7,6
93.585,5,11,62,4,1,5,8,7
93.59,9,0,0,20,2,0,3,7
93.595,1,15,37,7,1,7,8,15
93.6,1,6,21,1,0,6,7,4
93.605,1,5,28,8,1,5,4,2
93.61,1,3,35,4,1,17,5,18
93.615,1,28,22,4,7,12,8,71
93.62,7,11,14,3,2,21,4,49
93.625,6,12,16,7,1,3,14,13
93.63,11,25,38,0,3,7,4,13
93.635,4,5,42,4,0,1,1,16
93.64,1,5,16,2,4,6,3,17
93.645,11,10,13,11,2,3,1,14
93.65,6,15,61,13,6,10,5,12
93.655,12,12,75,21,3,7,12,19
93.66,10,1,22,18,8,13,2,7
93.665,1,3,51,5,4,5,5,34
93.67,18,14,43,0,2,13,4,29
93.675,4,5,68,24,4,1,2,5
93.68,3,1,22,2,1,21,4,6
93.685,3,2,13,3,6,10,2,5
93.69,8,7,5,7,2,11,4,6
93.695,2,1,42,3,1,4,1,44
93.7,1,4,60,9,3,6,1,6
93.705,1,3,92,13,3,10,6,4
93.71,8,13,3,25,12,4,3,13
93.715,3,13,57,28,5,6,3,12
93.72,3,1,38,19,0,3,6,8
93.725,1,3,29,15,3,3,0,6
93.73,2,0,40,6,1,0,2,9
93.735,0,8,10,1,0,8,3,15
93.74,8,16,50,10,1,2,4,5
93.745,3,3,37,11,4,10,3,27
93.75,13,20,85,14,2,15,6,22
93.755,5,1,48,5,3,1,9,22
93.76,7,3,1,7,3,19,8,9
93.765,1,8,39,9,4,19,3,19
93.77,2,10,52,12,1,16,15,13
93.775,0,3,69,11,1,6,3,11
93.78,1,7,2,17,6,0,0,2
93.785,9,8,15,10,7,1,7,2
93.79,8,16,5,10,5,9,1,3
93.795,5,8,21,12,3,7,3,2
93.8,5,1,26,11,3,8,1,14
93.805,7,18,29,6,0,4,2,2
93.81,4,6,36,6,1,17,7,10
93.815,2,1,40,8,4,8,6,6
93.82,2,11,44,12,0,3,1,1
93.825,3,2,0,2,2,6,5,7
93.83,5,0,6,0,5,16,7,8
93.835,1,8,50,5,2,0,8,5
93.84,13,3,80,9,1,0,9,18
93.845,20,7,24,7,7,7,8,25
93.85,4,1,12,10,2,6,2,5
93.855,11,14,24,4,0,14,7,11
93.86,1,1,47,13,2,2,2,3
93.865,1,1,19,5,1,2,5,4
93.87,2,4,23,1,2,11,2,10
93.875,8,1,20,1,0,2,4,8
93.88,1,14,37,4,5,9,10,3
93.885,13,16,37,1,1,16,5,22
93.89,16,15,5,3,2,4,5,30
93.895,8,1,19,6,3,2,3,8
93.9,0,5,11,2,1,8,5,4
93.905,5,3,3,3,0,2,2,13
93.91,7,7,9,4,2,18,2,3
93.915,5,17,6,0,1,22,3,22
93.92,9,11,9,4,4,0,1,43
93.925,10,17,24,3,3,0,1,8
93.93,11,15,55,10,9,4,8,1
93.935,0,5,18,5,1,21,12,1
93.94,7,7,30,15,5,9,5,3
93.945,5,2,53,11,3,6,5,6
93.95,6,16,68,10,2,7,5,31
93.955,0,2,16,2,0,10,0,6
93.96,0,5,46,6,5,5,0,1
93.965,10,3,16,4,1,10,5,6
93.97,4,11,21,0,0,1,15,13
93.975,18,4,59,16,5,10,10,22
93.98,9,7,52,15,1,10,3,27
93.985,4,5,5,3,2,2,4,3
93.99,4,5,2,2,2,2,2,11
93.995,1,4,25,16,8,7,5,6
94,7,5,45,2,2,1,2,32
94.005,8,13,15,4,2,6,2,24
94.01,6,15,1,10,5,7,5,0
94.015,6,2,67,10,1,9,1,26
94.02,20,8,20,6,0,6,1,12
94.025,3,12,85,8,2,3,7,4
94.03,1,3,27,1,1,1,5,9
94.035,11,1,13,8,3,4,4,5
94.04,4,14,22,6,2,5,1,9
94.045,2,11,23,0,1,0,8,5
94.05,2,6,13,0,1,3,1,5
94.055,12,10,62,22,6,7,6,20
94.06,8,2,57,7,3,1,2,14
94.065,12,6,13,6,1,9,3,13
94.07,8,7,2,4,0,4,3,4
94.075,6,3,3,2,0,7,2,2
94.08,6,2,21,4,2,15,3,0
94.085,7,3,14,6,2,13,3,6
94.09,9,3,27,4,0,0,2,3
94.095,4,9,5,6,3,2,3,11
94.1,7,1,32,4,6,1,3,3
94.105,4,5,16,8,6,10,2,9
94.11,19,0,7,1,8,20,10,21
94.115,4,3,18,2,1,23,3,2
94.12,3,3,7,3,5,9,2,3
94.125,3,5,16,2,2,5,4,4
94.13,8,1,21,2,1,3,3,0
94.135,3,10,10,2,1,14,1,2
94.14,7,1,42,3,1,1,3,26
94.145,12,4,8,2,3,2,8,13
94.15,2,2,23,4,2,2,1,7
94.155,2,5,19,0,0,2,1,14
94.16,10,11,31,11,3,5,1,8
94.165,4,3,12,8,1,4,2,3
94.17,6,7,42,10,1,4,0,13
94.175,2,15,58,20,2,2,2,1
94.18,2,2,3,3,5,3,0,11
94.185,0,1,38,24,4,6,3,1
94.19,3,1,12,7,2,6,1,0
94.195,8,13,16,2,3,3,2,1
94.2,8,1,30,8,5,3,1,4
94.205,11,0,29,6,6,0,1,10
94.21,6,1,9,3,4,0,3,2
94.215,6,1,40,3,5,11,1,2
94.22,4,6,62,6,0,7,5,6
94.225,5,1,2,4,1,9,5,4
94.23,3,0,4,7,1,1,0,24
94.235,5,6,38,0,1,3,1,20
94.24,6,4,8,7,1,0,4,14
94.245,4,6,35,0,6,11,6,0
94.25,12,3,6,1,1,3,3,1
94.255,0,6,33,0,3,3,1,6
94.26,1,1,4,0,1,0,1,13
94.265,6,5,14,3,2,2,2,11
94.27,0,4,15,5,5,5,5,1
94.275,1,2,4,7,4,0,3,1
94.28,1,12,40,8,0,1,1,7
94.285,7,2,23,3,3,1,1,6
94.29,8,3,12,13,0,0,3,4
94.295,12,1,3,1,1,1,3,9
94.3,1,5,16,12,1,3,1,8
94.305,4,11,6,9,6,9,5,3
94.31,4,6,55,14,3,5,8,5
94.315,7,3,17,2,1,6,4,2
94.32,1,9,13,8,4,0,2,6
94.325,4,2,0,2,3,8,4,3
94.33,6,2,18,1,3,5,0,4
94.335,4,0,2,6,3,4,2,18
94.34,1,1,7,3,0,7,4,18
94.345,2,2,1,4,1,6,2,17
94.35,4,3,5,1,2,7,4,7
94.355,7,4,9,1,3,6,3,5
94.36,3,1,5,1,0,12,6,5
94.365,6,4,27,4,1,1,1,11
94.37,4,9,4,3,4,2,1,8
94.375,1,3,12,3,4,3,6,13
94.38,2,0,8,1,3,2,0,7
94.385,0,4,30,6,3,3,2,10
94.39,4,9,31,10,2,0,8,0
94.395,4,4,17,1,3,4,1,14
94.4,2,2,16,3,0,8,0,42
94.405,3,0,28,4,2,0,1,7
94.41,4,9,39,8,2,3,0,1
94.415,5,3,8,1,8,1,3,5
94.42,7,3,1,1,1,2,4,5
94.425,0,1,11,2,1,1,0,1
94.43,4,3,15,7,1,4,3,11
94.435,4,2,20,3,1,1,3,20
94.44,4,5,33,4,1,7,0,17
94.445,2,7,71,13,2,1,2,9
94.45,2,1,11,4,0,1,3,1
94.455,1,2,22,8,4,3,2,3
94.46,5,5,41,9,1,4,1,13
94.465,10,18,58,18,4,1,2,5
94.47,1,7,60,9,1,1,2,3
94.475,4,2,11,0,1,3,4,9
94.48,1,1,9,2,1,6,1,8
94.485,6,2,2,3,3,3,7,4
94.49,3,3,4,0,1,5,0,0
94.495,2,3,5,1,2,6,1,12
94.5,1,3,16,2,2,10,0,6
94.505,4,4,19,2,2,1,0,10
94.51,2,3,17,4,1,1,4,6
94.515,1,3,26,3,1,7,4,14
94.52,12,9,8,5,2,1,1,4
94.525,10,3,7,2,2,3,3,4
94.53,18,10,25,1,2,0,1,12
94.535,8,7,52,0,2,1,2,5
94.54,4,17,59,9,2,0,1,52
94.545,2,7,19,5,5,5,6,42
94.55,5,4,58,14,2,1,5,2
94.555,1,1,42,3,2,4,2,7
94.56,2,0,18,1,3,5,2,9
94.565,1,1,15,1,1,2,2,10
94.57,4,0,5,2,1,1,2,6
94.575,2,8,25,1,0,3,1,7
94.58,18,1,28,13,6,7,7,15
94.585,5,1,24,11,2,1,2,5
94.59,6,1,37,16,0,2,2,1
94.595,4,3,23,3,3,0,3,2
94.6,10,10,43,13,4,8,1,8
94.605,13,4,7,2,2,5,6,6
94.61,9,4,11,5,2,2,2,14
94.615,14,10,12,2,2,2,1,21
94.62,7,3,50,4,5,6,4,32
94.625,5,9,35,5,3,1,3,14
94.63,5,4,3,2,2,2,1,3
94.635,2,1,4,5,4,3,0,0
94.64,1,0,4,3,4,6,0,0
94.645,4,9,21,2,4,2,2,12
94.65,4,3,17,7,2,4,3,15
94.655,4,8,56,1,2,5,5,35
94.66,1,3,67,2,6,5,1,14
94.665,4,5,59,6,2,3,22,41
94.67,13,13,31,36,12,1,7,8
94.675,2,2,31,1,1,1,12,45
94.68,1,1,9,5,3,14,1,16
94.685,5,4,22,3,0,2,2,2
94.69,10,6,1,8,3,5,3,0
94.695,3,0,5,2,2,5,2,1
94.7,4,3,24,4,1,0,1,0
94.705,0,1,20,3,5,6,2,32
94.71,3,1,14,5,0,5,6,32
94.715,4,1,16,11,2,2,0,9
94.72,2,3,43,15,1,2,4,21
94.725,9,2,7,2,3,2,7,13
94.73,7,1,17,2,3,5,7,12
94.735,1,8,5,2,1,1,1,3
94.74,0,0,6,5,1,3,1,2
94.745,2,1,29,6,1,1,0,0
94.75,3,17,55,24,8,4,2,3
94.755,2,5,14,3,2,4,3,8
94.76,7,0,19,1,0,2,2,1
94.765,5,1,22,1,1,1,2,14
94.77,3,4,6,8,6,1,3,26
94.775,8,2,6,14,4,1,1,9
94.78,0,5,64,6,0,1,1,4
94.785,8,3,39,3,5,3,1,18
94.79,3,1,34,6,4,7,11,49
94.795,2,7,51,10,0,1,3,2
94.8,13,0,9,8,1,2,4,2
94.805,4,3,33,10,4,2,1,23
94.81,11,7,64,6,1,5,6,32
94.815,8,4,37,10,2,14,0,9
94.82,5,2,20,6,3,4,4,15
94.825,4,5,12,1,3,2,0,6
94.83,3,7,59,9,1,1,5,11
94.835,7,8,11,1,1,4,6,11
94.84,0,9,39,7,2,2,3,14
94.845,2,2,2,4,2,4,4,3
94.85,1,0,18,3,1,11,2,8
94.855,3,5,15,7,3,7,4,13
94.86,16,8,40,2,3,5,0,32
94.865,7,2,9,9,2,3,9,4
94.87,3,8,0,7,5,3,3,7
94.875,13,12,11,3,4,6,3,6
94.88,5,0,20,9,4,2,3,4
94.885,4,1,1,10,0,0,2,5
94.89,3,1,33,3,3,2,2,3
94.895,2,1,50,6,2,3,4,24
94.9,4,4,24,5,2,3,5,13
94.905,1,1,13,7,4,2,3,5
94.91,1,4,4,2,3,5,6,6
94.915,3,7,17,1,0,1,1,6
94.92,4,5,11,4,0,2,1,7
94.925,0,0,6,4,2,1,1,7
94.93,1,3,5,3,3,6,4,8
94.935,4,4,42,7,1,0,10,18
94.94,0,11,73,16,3,7,2,9
94.945,0,2,21,1,0,3,2,3
94.95,2,2,3,0,1,2,1,7
94.955,20,8,14,1,5,3,2,11
94.96,9,3,34,0,2,4,1,16
94.965,2,6,59,7,2,4,3,1
94.97,2,7,14,1,4,8,5,3
94.975,4,4,3,0,2,2,1,2
94.98,2,1,47,1,1,1,2,20
94.985,9,19,38,13,5,5,1,4
94.99,1,4,13,1,3,2,6,8
94.995,0,0,15,0,2,2,1,12
95,6,8,5,7,1,2,2,2
95.005,4,5,1,4,0,2,1,3
95.01,9,5,15,5,2,2,2,11
95.015,2,0,56,7,2,4,4,4
95.02,2,1,36,4,0,1,1,3
95.025,4,6,48,1,1,1,2,1
95.03,1,5,17,3,1,1,0,2
95.035,4,3,17,1,0,0,2,2
95.04,5,2,23,8,3,1,2,2
95.045,2,6,50,9,0,2,2,3
95.05,10,5,20,2,6,3,1,2
95.055,7,6,13,6,5,2,0,3
95.06,4,4,32,6,4,3,2,7
95.065,3,8,19,2,0,3,1,4
95.07,5,1,11,6,3,1,1,4
95.075,5,2,8,3,1,1,1,0
95.08,4,1,1,6,3,3,2,2
95.085,14,2,28,6,2,2,3,8
95.09,1,2,23,6,2,1,2,5
95.095,4,6,52,12,0,0,1,3
95.1,1,9,53,8,2,2,1,16
95.105,1,8,20,10,3,4,3,25
95.11,7,1,2,4,1,1,2,31
95.115,4,12,30,12,2,3,1,20
95.12,6,14,41,15,2,3,2,1
95.125,9,9,49,1,2,1,5,1
95.13,7,10,39,8,2,1,0,4
95.135,10,8,32,16,5,0,3,9
95.14,8,9,58,5,8,9,7,16
95.145,3,12,39,4,3,1,2,31
95.15,5,7,48,12,3,4,11,28
95.155,2,16,69,9,1,1,1,39
95.16,0,2,42,1,3,1,1,16
95.165,13,2,25,8,6,1,2,11
95.17,32,21,8,14,5,4,1,37
95.175,25,8,53,1,2,1,20,10
95.18,11,14,88,25,7,7,12,38
95.185,15,4,74,2,6,3,8,37
95.19,1,2,35,9,6,1,18,28
95.195,14,4,8,3,2,1,14,31
95.2,11,13,30,15,12,11,8,109
95.205,7,3,96,5,17,20,7,65
95.21,6,11,49,14,1,4,6,59
95.215,8,19,46,22,1,2,14,6
95.22,15,3,6,5,2,1,2,15
95.225,7,17,26,12,1,2,1,62
95.23,4,17,8,1,0,1,2,25
95.235,10,30,19,19,3,2,2,11
95.24,0,3,45,9,3,2,4,39
95.245,18,14,20,25,2,11,9,75
95.25,15,13,3,34,2,9,7,67
95.255,19,10,16,1,5,8,17,23
95.26,36,7,1,10,14,14,10,92
95.265,1,20,18,0,2,1,9,2
95.27,15,27,69,25,4,0,10,64
95.275,16,28,74,19,10,5,7,17
95.28,1,9,26,6,5,0,8,49
95.285,6,4,19,12,5,5,18,5
95.29,5,13,60,31,8,4,6,16
95.295,2,10,45,38,1,3,3,17
95.3,9,4,87,38,7,6,7,6
95.305,14,6,75,19,4,2,2,22
95.31,7,0,66,36,8,6,10,26
95.315,23,12,51,10,1,2,3,25
95.32,3,3,38,9,16,1,6,35
95.325,9,22,17,17,0,3,1,6
95.33,27,4,28,6,6,1,7,21
95.335,35,5,35,13,10,5,4,3
95.34,38,13,80,14,4,4,0,23
95.345,24,10,22,3,5,1,13,13
95.35,13,12,38,8,2,6,15,3
95.355,4,0,8,3,5,12,0,37
95.36,11,10,3,18,5,5,0,11
95.365,10,15,57,37,12,7,18,59
95.37,13,4,89,9,4,3,7,36
95.375,1,14,15,12,9,4,5,2
95.38,25,4,80,14,0,2,0,1
95.385,40,9,10,1,2,3,5,8
95.39,13,20,46,8,11,5,8,1
95.395,8,17,27,23,0,2,9,9
95.4,19,10,1,2,6,0,5,24
95.405,1,8,35,10,1,4,7,4
95.41,4,3,36,6,4,1,1,25
95.415,18,6,35,19,6,3,3,13
95.42,3,2,27,9,1,1,8,15
95.425,8,23,31,5,5,5,2,4
95.43,10,10,43,12,3,1,7,53
95.435,9,1,11,1,8,5,2,49
95.44,3,13,44,7,0,4,5,21
95.445,8,9,49,17,4,3,6,3
95.45,7,5,29,13,2,0,5,18
95.455,8,6,55,17,2,3,0,26
95.46,1,5,21,19,1,4,9,0
95.465,6,7,54,1,2,4,14,1
95.47,16,3,28,2,8,8,15,85
95.475,2,0,4,2,3,3,17,91
95.48,8,16,6,10,5,2,6,42
95.485,4,2,27,5,7,5,4,21
95.49,1,4,60,7,1,2,3,14
95.495,3,23,66,28,1,1,6,31
95.5,4,4,67,10,1,2,7,63
95.505,10,15,58,12,1,4,9,36
95.51,15,23,45,18,3,3,12,14
95.515,7,21,29,20,1,5,1,25
95.52,10,1,14,7,3,3,5,9
95.525,14,9,7,7,1,0,3,20
95.53,3,4,29,6,1,5,7,21
95.535,2,3,36,2,2,2,2,1
95.54,6,1,68,2,0,4,3,21
95.545,9,6,10,13,5,0,1,6
95.55,9,1,7,0,11,8,8,8
95.555,2,2,16,2,0,1,2,12
95.56,3,3,20,24,5,0,1,3
95.565,2,7,12,23,4,1,1,6
95.57,1,3,2,7,5,1,4,5
95.575,3,6,1,3,11,3,4,5
95.58,6,0,19,5,5,0,1,5
95.585,7,2,0,11,1,0,2,4
95.59,3,1,9,6,2,0,1,4
95.595,12,10,62,15,1,3,3,5
95.6,7,3,37,12,5,4,1,4
95.605,6,7,30,10,0,2,1,12
95.61,5,3,1,6,4,2,3,4
95.615,14,2,8,4,3,4,2,4
95.62,3,2,18,15,1,2,1,2
95.625,5,8,3,14,4,0,1,6
95.63,14,12,27,21,9,3,1,1
95.635,13,6,40,6,5,3,2,2
95.64,8,2,36,15,6,5,2,7
95.645,20,5,7,2,1,0,4,8
95.65,5,3,28,16,5,0,2,5
95.655,4,8,29,15,2,2,2,3
95.66,11,1,1,1,5,4,1,7
95.665,5,2,3,7,0,3,0,1
95.67,8,3,4,2,1,2,6,6
95.675,1,4,9,14,13,3,1,2
95.68,2,2,5,9,4,3,2,1
95.685,6,4,4,4,4,1,1,4
95.69,2,8,16,8,3,1,1,6
95.695,4,2,1,4,4,1,2,2
95.7,3,4,28,3,2,1,2,7
95.705,4,5,19,5,0,0,2,5
95.71,6,4,11,5,7,3,2,2
95.715,2,0,11,0,1,2,1,3
95.72,13,0,4,4,0,2,5,8
95.725,0,3,50,2,2,2,6,11
95.73,9,9,40,11,0,0,1,1
95.735,10,7,11,8,4,3,1,5
95.74,3,4,10,2,1,1,1,5
95.745,16,6,8,6,2,3,6,11
95.75,8,0,30,1,3,4,0,0
95.755,12,10,12,13,5,3,2,5
95.76,3,5,17,8,3,0,0,1
95.765,2,3,13,6,3,1,3,3
95.77,3,5,40,2,0,2,0,2
95.775,4,5,14,4,3,1,1,3
95.78,6,2,11,2,10,5,1,2
95.785,4,1,9,2,3,2,2,2
95.79,5,6,21,6,4,2,2,4
95.795,2,3,8,3,3,1,2,3
95.8,10,5,9,2,4,3,0,1
95.805,4,6,7,10,7,4,0,0
95.81,13,5,19,9,8,1,1,1
95.815,14,4,23,3,3,1,1,8
95.82,4,2,35,3,1,0,1,1
95.825,4,6,50,15,7,5,5,1
95.83,21,7,0,4,3,1,2,7
95.835,5,8,43,1,5,2,3,5
95.84,6,2,5,3,2,0,0,0
95.845,12,4,17,9,4,2,0,5
95.85,9,1,33,15,1,0,0,1
95.855,14,6,3,5,1,0,0,7
95.86,15,7,2,5,2,3,3,4
95.865,3,6,16,5,4,0,1,1
95.87,5,5,18,10,1,0,1,2
95.875,5,4,9,0,3,3,3,0
95.88,9,3,10,4,4,2,1,2
95.885,3,3,14,2,2,1,1,0
95.89,15,3,4,4,3,1,3,10
95.895,3,6,2,8,5,2,0,1
95.9,10,5,19,2,2,2,4,0
95.905,2,0,7,0,2,1,3,2
95.91,4,9,48,6,1,1,1,0
95.915,7,3,2,2,1,2,0,0
95.92,3,6,19,3,1,1,1,2
95.925,5,1,11,2,2,1,4,2
95.93,2,3,2,2,1,1,1,2
95.935,0,2,2,1,1,1,2,1
95.94,1,0,2,4,0,1,1,3
95.945,2,7,22,7,3,3,0,1
95.95,9,9,40,10,2,2,3,8
95.955,1,3,4,1,2,2,2,2
95.96,3,0,12,1,2,2,2,4
95.965,1,2,4,0,4,1,1,1
95.97,9,0,21,3,2,4,2,6
95.975,4,1,5,1,3,1,3,2
95.98,6,1,21,2,2,1,2,3
95.985,3,2,29,2,2,3,2,1
95.99,1,8,49,10,6,5,4,6
95.995,2,2,9,5,0,1,2,1
96,5,3,22,4,3,1,3,1
96.005,9,3,6,2,0,0,1,1
96.01,7,7,6,4,3,2,2,1
96.015,4,2,1,3,0,1,2,1
96.02,5,1,1,6,2,1,1,1
96.025,5,3,11,5,3,3,3,4
96.03,0,2,6,1,3,3,1,1
96.035,2,4,11,4,4,0,0,0
96.04,1,3,5,0,5,0,1,0
96.045,1,4,14,3,0,1,1,3
96.05,2,1,28,2,3,2,0,4
96.055,3,5,14,5,0,2,1,4
96.06,4,7,14,7,3,2,3,4
96.065,0,1,28,9,4,1,1,0
96.07,1,7,2,1,1,2,0,0
96.075,1,2,9,0,2,1,0,2
96.08,1,1,3,3,0,3,4,0
96.085,7,7,32,7,1,0,2,7
96.09,1,8,46,10,3,4,7,19
96.095,4,10,17,8,4,4,2,26
96.1,3,4,14,7,2,0,1,6
96.105,1,3,2,14,6,6,1,12
96.11,5,2,24,5,4,0,5,20
96.115,10,4,11,5,6,0,7,43
96.12,12,4,9,4,6,0,8,38
96.125,1,11,48,1,1,2,3,10
96.13,1,0,12,6,0,2,1,20
96.135,4,1,11,2,3,2,3,4
96.14,2,1,6,1,1,1,0,12
96.145,6,14,28,9,4,4,4,36
96.15,10,18,19,8,8,3,5,35
96.155,4,4,3,7,7,1,2,9
96.16,5,6,13,14,2,2,6,17
96.165,5,11,45,9,3,1,2,16
96.17,6,6,8,2,0,0,1,17
96.175,3,4,41,4,2,1,2,39
96.18,4,1,41,6,0,1,3,15
96.185,4,4,9,3,4,0,2,13
96.19,4,5,16,1,3,5,11,31
96.195,2,10,60,11,8,1,1,7
96.2,2,2,54,2,3,2,17,21
96.205,12,9,11,6,1,4,11,10
96.21,3,26,11,9,6,1,1,30
96.215,5,20,13,5,4,2,2,32
96.22,3,8,1,4,3,1,9,31
96.225,3,11,7,13,4,0,3,9
96.23,1,12,41,10,4,4,2,6
96.235,13,25,67,11,1,3,4,16
96.24,3,3,68,5,1,1,6,45
96.245,7,13,8,4,0,1,5,3
96.25,6,12,61,16,4,1,4,20
96.255,9,1,2,6,2,3,13,12
96.26,10,22,18,12,1,2,6,19
96.265,7,25,25,11,10,11,5,14
96.27,1,4,49,6,10,6,4,16
96.275,9,4,62,1,6,5,2,6
96.28,11,12,85,6,3,0,5,3
96.285,2,24,45,16,3,0,0,35
96.29,6,21,69,11,1,3,5,16
96.295,17,24,123,4,8,5,16,61
96.3,11,8,41,2,1,2,7,40
96.305,4,2,1,20,0,1,14,40
96.31,3,18,10,10,0,3,2,22
96.315,8,18,80,39,6,4,20,34
96.32,27,4,126,27,4,6,10,1
96.325,3,13,69,23,5,7,20,34
96.33,1,7,8,7,3,1,3,22
96.335,3,12,69,5,4,3,19,65
96.34,21,17,7,4,6,9,4,23
96.345,6,16,15,17,4,1,1,26
96.35,3,5,9,17,1,1,8,10
96.355,4,5,26,6,0,0,5,3
96.36,6,15,45,13,8,3,0,28
96.365,1,1,7,0,0,4,6,51
96.37,12,19,34,17,1,3,4,2
96.375,4,10,68,4,2,0,9,54
96.38,18,9,97,20,0,4,6,11
96.385,18,16,90,30,7,2,8,44
96.39,14,18,79,0,2,4,6,19
96.395,14,19,44,3,4,11,15,5
96.4,30,30,15,1,1,3,2,9
96.405,2,21,73,3,3,0,0,9
96.41,10,12,35,10,6,4,0,31
96.415,2,5,12,10,6,4,1,9
96.42,1,12,15,5,1,2,1,5
96.425,0,14,40,1,3,2,7,6
96.43,4,28,17,11,12,4,6,32
96.435,2,51,104,19,14,1,2,34
96.44,5,27,85,33,17,8,1,13
96.445,17,12,29,16,2,0,12,60
96.45,0,4,67,1,4,1,9,26
96.455,15,18,22,17,12,4,8,5
96.46,12,19,22,15,6,1,0,7
96.465,1,15,20,7,6,4,7,3
96.47,2,31,90,18,7,5,7,3
96.475,2,2,2,1,2,6,1,31
96.48,35,17,71,0,9,6,6,39
96.485,6,2,45,7,2,3,6,42
96.49,6,6,61,16,4,1,1,9
96.495,9,7,37,18,13,7,2,5
96.5,5,19,28,6,8,4,2,7
96.505,3,2,4,3,2,1,5,4
96.51,10,22,4,4,6,0,1,19
96.515,17,20,28,18,1,1,3,6
96.52,6,5,0,4,0,1,4,41
96.525,11,17,5,20,12,9,16,5
96.53,10,12,31,9,2,2,4,4
96.535,11,14,27,17,3,3,1,17
96.54,2,15,107,27,8,2,7,27
96.545,7,13,78,14,1,3,2,9
96.55,10,13,32,8,1,3,4,18
96.555,8,18,30,15,3,3,4,2
96.56,10,2,4,7,2,1,7,28
96.565,10,4,19,3,3,3,2,5
96.57,6,4,19,1,4,3,5,2
96.575,2,1,21,19,2,1,5,15
96.58,6,1,25,7,9,1,5,33
96.585,2,3,44,6,5,2,4,15
96.59,1,2,109,10,6,1,9,5
96.595,1,7,25,11,7,5,1,27
96.6,3,5,50,12,2,4,3,8
96.605,10,14,22,6,6,5,4,27
96.61,3,6,48,16,1,0,1,15
96.615,1,2,2,11,3,1,4,9
96.62,3,0,11,9,4,2,4,12
96.625,7,5,5,3,2,0,4,9
96.63,2,8,24,4,2,1,2,18
96.635,3,3,7,5,0,0,0,3
96.64,7,4,20,4,4,2,1,2
96.645,14,4,12,1,4,3,3,12
96.65,2,1,37,9,2,2,1,6
96.655,1,0,28,4,2,2,7,8
96.66,1,11,71,13,6,0,5,13
96.665,9,1,1,1,4,1,2,9
96.67,1,6,29,3,4,1,1,1
96.675,4,3,9,3,1,2,1,2
96.68,2,4,80,14,3,1,3,9
96.685,2,15,89,22,8,7,6,27
96.69,6,2,20,1,0,1,1,11
96.695,0,5,7,2,1,4,4,21
96.7,3,1,8,1,2,5,11,1
96.705,1,0,19,0,4,5,2,17
96.71,0,5,22,1,0,4,6,11
96.715,7,4,27,7,2,1,1,8
96.72,4,4,4,0,2,3,1,5
96.725,0,0,21,2,1,0,4,8
96.73,0,1,9,3,1,2,3,8
96.735,1,4,10,9,6,6,4,6
96.74,1,1,15,3,2,0,1,1
96.745,4,3,1,2,2,2,3,3
96.75,0,4,17,1,4,1,2,1
96.755,9,9,44,8,0,1,1,3
96.76,3,5,1,1,3,1,0,6
96.765,1,3,20,1,1,1,1,7
96.77,0,5,12,8,1,1,0,8
96.775,5,5,26,7,8,3,1,4
96.78,0,2,26,7,5,3,3,5
96.785,3,0,15,6,5,5,2,4
96.79,2,4,55,4,3,1,1,2
96.795,3,4,31,6,0,2,3,2
96.8,7,4,12,3,1,2,1,9
96.805,4,1,8,2,4,1,1,1
96.81,0,5,44,6,2,3,3,5
96.815,0,2,17,1,3,1,0,3
96.82,3,2,12,1,1,2,1,2
96.825,1,2,23,1,1,2,0,7
96.83,5,6,28,8,7,1,3,17
96.835,1,4,27,7,4,2,1,1
96.84,6,4,19,8,6,4,2,1
96.845,6,2,19,4,3,2,0,0
96.85,5,2,16,1,1,1,1,1
96.855,3,1,2,9,4,4,3,0
96.86,4,2,4,3,4,2,0,6
96.865,1,4,1,1,6,0,1,1
96.87,1,5,16,5,2,2,2,4
96.875,4,9,12,11,1,0,0,2
96.88,1,8,1,8,5,3,1,2
96.885,3,4,3,2,3,2,1,2
96.89,0,2,21,8,1,1,0,4
96.895,5,5,4,1,2,0,1,5
96.9,5,7,35,4,2,1,6,2
96.905,1,6,30,9,8,3,4,9
96.91,1,3,6,5,3,0,1,5
96.915,1,0,31,6,1,2,3,5
96.92,7,0,7,6,0,1,2,8
96.925,3,2,8,3,2,2,2,14
96.93,3,0,6,0,1,2,1,1
96.935,0,9,11,5,0,0,2,15
96.94,11,6,8,0,5,2,5,38
96.945,0,2,19,4,2,2,1,8
96.95,1,1,3,1,2,3,1,7
96.955,4,8,1,1,3,3,3,1
96.96,2,2,2,1,1,2,1,17
96.965,3,4,15,1,4,4,3,6
96.97,7,5,3,2,5,2,1,5
96.975,6,2,1,3,1,4,5,0
96.98,4,1,13,1,1,0,1,2
96.985,7,2,10,2,1,0,1,10
96.99,4,4,7,5,2,4,3,1
96.995,1,0,9,2,0,3,0,3
97,0,3,2,1,0,0,1,1
97.005,8,6,26,6,4,3,0,4
97.01,13,9,7,0,1,0,1,1
97.015,2,4,24,0,3,0,3,1
97.02,1,3,25,1,4,2,0,3
97.025,3,8,9,14,9,3,1,1
97.03,2,2,22,0,1,0,1,6
97.035,2,5,9,4,3,1,1,1
97.04,3,1,10,0,1,1,1,3
97.045,6,1,18,1,1,0,2,1
97.05,1,2,25,6,2,1,0,1
97.055,2,6,7,5,4,3,2,2
97.06,2,1,9,1,2,1,1,2
97.065,1,2,10,0,0,3,2,0
97.07,3,4,4,1,4,0,1,5
97.075,1,1,3,5,2,2,2,0
97.08,4,0,1,5,6,1,0,0
97.085,4,1,8,1,0,1,1,2
97.09,6,7,25,2,2,2,1,1
97.095,1,11,8,6,9,4,1,1
97.1,3,3,7,1,6,4,3,1
97.105,2,7,12,3,3,3,0,0
97.11,3,4,14,2,2,1,0,1
97.115,3,4,6,6,6,2,0,1
97.12,3,1,50,8,0,1,2,3
97.125,4,11,9,5,2,2,2,1
97.13,2,5,31,10,6,3,2,0
97.135,4,3,7,2,2,3,1,2
97.14,2,2,3,6,0,2,1,0
97.145,2,7,15,1,6,2,2,3
97.15,2,2,17,7,4,2,0,0
97.155,3,4,34,7,1,1,1,0
97.16,1,4,9,0,1,2,1,2
97.165,2,3,11,3,2,2,2,2
97.17,2,7,15,2,2,0,1,4
97.175,3,2,6,3,0,1,0,7
97.18,2,2,14,4,3,1,0,2
97.185,5,0,6,2,7,4,3,2
97.19,4,1,5,1,6,1,0,0
97.195,7,2,14,2,2,4,2,0
97.2,4,5,26,5,4,2,3,1
97.205,5,6,8,3,0,3,3,6
97.21,2,0,6,4,4,2,0,4
97.215,1,6,18,2,3,2,2,2
97.22,3,2,17,2,0,1,0,1
97.225,1,0,62,4,2,3,2,2
97.23,3,6,11,3,1,3,2,12
97.235,0,2,4,4,2,2,1,7
97.24,7,1,2,2,0,0,2,14
97.245,3,2,19,0,0,2,3,6
97.25,3,2,2,1,4,3,5,5
97.255,1,3,17,6,3,2,1,7
97.26,1,0,3,1,3,2,0,1
97.265,2,2,25,9,5,2,1,5
97.27,2,3,19,4,2,2,1,2
97.275,2,3,15,2,1,2,1,0
97.28,2,1,15,1,1,0,1,3
97.285,3,1,1,2,1,2,2,2
97.29,2,1,10,2,6,3,0,5
97.295,5,0,5,0,1,4,2,4
97.3,1,3,10,3,1,2,0,3
97.305,2,1,6,0,2,1,1,0
97.31,2,1,11,1,2,1,2,4
97.315,2,4,0,9,5,1,2,0
97.32,4,4,27,1,4,1,1,2
97.325,0,0,37,0,2,5,2,3
97.33,0,1,13,2,2,1,2,7
97.335,1,0,13,2,0,1,1,1
97.34,1,1,0,2,5,3,1,0
97.345,0,3,19,1,2,0,2,2
97.35,3,1,8,2,1,1,1,2
97.355,6,6,10,1,2,0,1,8
97.36,2,5,22,8,2,2,1,10
97.365,3,4,8,4,1,0,0,1
97.37,6,0,9,1,1,1,4,3
97.375,1,0,5,1,0,1,1,2
97.38,3,4,9,2,2,1,0,1
97.385,3,2,1,1,4,2,2,0
97.39,3,4,7,3,1,1,2,3
97.395,1,3,5,1,5,2,2,1
97.4,2,1,23,1,1,1,1,3
97.405,3,8,23,8,4,1,1,3
97.41,0,1,9,5,1,1,0,1
97.415,5,6,14,6,2,2,1,2
97.42,2,2,20,1,1,0,1,2
97.425,2,1,1,1,1,1,3,0
97.43,2,2,4,4,6,0,0,2
97.435,3,4,2,6,7,2,0,4
97.44,5,5,0,6,3,1,1,2
97.445,2,0,4,4,0,1,2,1
97.45,1,5,17,3,1,2,1,1
97.455,7,7,16,2,3,3,2,3
97.46,2,2,4,1,1,1,0,3
97.465,1,2,9,5,3,3,1,1
97.47,2,0,11,0,2,3,0,2
97.475,1,7,7,2,5,1,2,1
97.48,1,2,4,4,2,1,2,6
97.485,2,4,5,2,0,1,1,7
97.49,5,4,1,7,2,2,1,1
97.495,0,4,11,1,1,0,0,1
97.5,4,7,32,5,4,4,3,3
97.505,2,5,19,6,6,4,1,3
97.51,4,5,3,1,5,4,4,3
97.515,0,1,12,1,3,2,3,1
97.52,0,1,9,4,1,0,1,1
97.525,2,1,6,4,0,1,1,1
97.53,2,3,2,4,1,3,1,1
97.535,2,3,7,2,4,1,2,3
97.54,1,3,1,0,3,1,0,1
97.545,7,6,2,4,1,4,1,4
97.55,0,2,1,1,1,0,1,0
97.555,0,1,0,0,3,2,2,1
97.56,5,2,14,2,0,0,1,3
97.565,5,4,5,3,5,2,0,1
97.57,3,3,5,1,1,0,1,2
97.575,3,2,6,3,1,1,2,0
97.58,2,3,6,0,6,2,1,4
97.585,1,1,4,6,5,4,2,2
97.59,2,1,1,1,3,1,0,0
97.595,2,1,6,2,4,2,0,2
97.6,5,5,19,6,1,1,0,0
97.605,2,6,17,10,3,2,2,1
97.61,7,1,11,4,5,4,2,2
97.615,3,1,7,1,4,3,1,0
97.62,4,4,13,7,0,1,1,1
97.625,3,2,2,0,4,0,0,0
97.63,4,3,6,5,2,0,2,2
97.635,4,1,8,1,1,2,1,1
97.64,5,3,4,2,4,2,1,2
97.645,0,1,3,1,6,2,2,1
97.65,4,3,3,3,4,1,1,1
97.655,3,3,18,6,0,1,4,4
97.66,8,5,7,3,2,2,2,1
97.665,0,2,2,0,1,0,1,1
97.67,1,1,1,1,0,2,1,0
97.675,0,1,5,1,3,1,0,2
97.68,4,4,0,1,2,0,0,1
97.685,0,2,5,1,0,1,1,0
97.69,1,4,8,2,0,1,0,2
97.695,7,2,2,2,3,1,1,2
97.7,2,3,3,0,2,2,0,1
97.705,2,3,0,2,7,5,1,4
97.71,6,1,6,9,5,3,2,1
97.715,0,1,20,1,0,1,1,0
97.72,2,2,8,1,6,2,1,0
97.725,0,3,3,3,2,2,1,0
97.73,6,2,7,2,2,0,1,3
97.735,3,2,16,8,7,6,1,2
97.74,1,1,13,5,3,1,2,1
97.745,9,7,19,8,1,1,1,2
97.75,0,4,6,0,4,1,0,1
97.755,1,2,36,4,1,4,1,1
97.76,1,1,21,3,1,0,0,1
97.765,6,1,20,5,2,0,3,1
97.77,5,3,3,7,3,1,2,2
97.775,7,13,35,4,2,0,0,3
97.78,0,2,5,9,2,1,1,7
97.785,11,28,54,32,15,5,9,1
97.79,18,17,17,13,7,7,0,12
97.795,17,27,29,18,12,7,9,4
97.8,6,8,15,2,8,4,3,13
97.805,2,10,43,17,4,1,1,13
97.81,3,4,13,3,8,6,3,5
97.815,20,18,22,0,3,5,5,4
97.82,8,9,50,17,6,4,2,7
97.825,3,12,33,18,4,2,3,1
97.83,1,2,4,2,7,1,1,2
97.835,3,8,18,8,1,0,1,0
97.84,11,13,20,4,2,3,0,4
97.845,18,6,26,6,2,5,1,8
97.85,4,2,3,4,1,1,2,5
97.855,10,5,6,6,6,4,5,5
97.86,7,3,8,0,1,0,0,4
97.865,1,3,1,2,5,2,1,2
97.87,3,4,8,4,1,1,2,4
97.875,1,3,16,0,3,2,2,8
97.88,1,1,4,9,3,4,1,2
97.885,1,6,27,13,5,5,3,1
97.89,11,8,17,3,3,1,1,3
97.895,2,7,7,11,4,2,2,3
97.9,0,2,34,4,2,1,2,3
97.905,0,3,12,1,7,3,1,3
97.91,4,6,8,1,7,3,4,0
97.915,1,1,5,2,1,1,2,2
97.92,4,5,1,1,1,0,0,0
97.925,9,7,0,4,1,2,0,1
97.93,5,1,0,4,2,0,1,0
97.935,5,1,9,2,1,0,1,2
97.94,1,5,4,2,4,5,3,12
97.945,2,3,8,3,1,3,1,10
97.95,10,5,3,3,4,1,2,13
97.955,1,4,15,11,4,0,2,17
97.96,1,0,3,5,0,0,0,1
97.965,5,4,22,10,5,1,1,7
97.97,2,8,2,6,5,6,5,6
97.975,0,8,3,2,1,3,0,2
97.98,1,3,9,2,0,6,1,9
97.985,1,2,24,7,4,1,1,2
97.99,4,12,19,2,1,0,1,40
97.995,0,16,4,15,8,7,7,2
98,2,14,6,8,7,4,4,8
98.005,7,5,11,2,3,3,3,5
98.01,1,6,9,1,3,3,4,11
98.015,8,12,35,9,5,4,2,1
98.02,1,0,0,3,2,18,2,1
98.025,0,0,11,0,5,9,8,2
98.03,2,0,13,9,10,21,6,3
98.035,0,1,7,1,2,9,4,0
98.04,4,7,0,2,5,3,1,16
98.045,7,1,8,2,0,0,11,17
98.05,3,5,6,8,13,33,10,9
98.055,0,1,19,4,1,32,1,0
98.06,3,4,17,4,7,31,3,1
98.065,17,14,17,11,9,49,3,2
98.07,4,2,3,3,5,27,15,7
98.075,3,5,4,1,3,23,6,1
98.08,2,7,1,1,2,79,51,6
98.085,7,6,11,2,9,53,9,6
98.09,2,6,7,14,1,2,0,1
98.095,17,4,8,7,0,19,16,8
98.1,13,2,3,4,4,37,16,25
98.105,5,9,10,0,1,9,5,4
98.11,2,9,0,5,6,6,1,3
98.115,2,2,0,2,2,11,0,5
98.12,6,7,1,1,6,11,1,7
98.125,1,1,9,2,3,3,5,8
98.13,1,2,1,8,7,10,9,0
98.135,5,1,1,4,0,5,7,3
98.14,2,6,1,1,5,18,5,9
98.145,6,7,4,7,0,3,6,3
98.15,5,8,37,4,0,3,19,7
98.155,19,11,28,1,0,25,17,1
98.16,24,10,4,1,2,34,26,9
98.165,2,1,7,9,5,14,10,15
98.17,3,3,11,18,7,18,17,7
98.175,3,7,32,27,9,27,8,15
98.18,1,12,33,19,7,19,14,4
98.185,1,18,16,37,1,10,1,3
98.19,7,3,30,22,9,1,0,22
98.195,17,13,38,1,1,1,15,11
98.2,2,4,12,1,4,7,3,17
98.205,27,16,13,9,6,16,1,1
98.21,12,4,1,14,5,22,10,7
98.215,12,6,1,3,5,11,8,9
98.22,1,1,8,5,7,11,10,6
98.225,2,3,6,13,4,8,9,1
98.23,3,5,14,5,5,11,9,10
98.235,1,4,5,5,1,0,6,4
98.24,1,7,13,20,4,11,7,7
98.245,3,2,3,12,1,9,4,8
98.25,3,1,14,12,8,34,1,1
98.255,5,0,25,10,6,33,13,23
98.26,2,2,13,5,3,9,1,4
98.265,17,1,6,7,0,11,0,11
98.27,11,6,44,7,4,16,2,9
98.275,7,5,32,8,0,17,8,7
98.28,9,3,5,3,2,9,2,2
98.285,1,2,3,5,4,19,3,21
98.29,5,4,25,1,1,6,1,35
98.295,6,7,24,4,0,8,4,4
98.3,5,6,24,10,7,3,6,2
98.305,1,3,26,16,5,11,15,1
98.31,5,4,11,8,5,1,14,1
98.315,20,7,1,2,8,5,5,8
98.32,8,10,36,18,5,18,11,12
98.325,2,1,1,1,0,2,3,0
98.33,12,1,3,1,4,1,4,1
98.335,4,5,19,9,1,12,7,1
98.34,3,3,1,2,7,13,7,16
98.345,7,1,2,2,1,5,0,12
98.35,3,11,12,3,3,4,10,6
98.355,3,2,10,7,4,1,3,5
98.36,0,1,8,5,4,14,5,2
98.365,5,1,4,3,6,26,5,3
98.37,5,0,3,3,0,3,2,14
98.375,4,9,4,8,3,8,7,3
98.38,2,0,6,2,4,8,2,34
98.385,1,3,7,4,1,9,2,42
98.39,7,0,1,4,1,18,3,9
98.395,4,7,18,4,3,10,2,1
98.4,17,1,9,11,1,19,3,9
98.405,1,7,7,11,5,5,1,18
98.41,1,1,5,7,6,11,6,8
98.415,3,5,9,3,3,1,3,7
98.42,8,3,15,0,0,9,6,8
98.425,1,7,6,6,1,6,6,7
98.43,9,1,2,2,2,13,9,5
98.435,9,9,14,9,2,10,10,17
98.44,1,1,5,2,0,0,1,12
98.445,7,2,9,5,1,1,3,5
98.45,16,2,23,8,1,4,2,1
98.455,0,3,14,5,7,5,2,12
98.46,1,4,12,4,4,5,0,12
98.465,4,4,4,3,4,3,5,39
98.47,14,5,7,6,3,2,5,1
98.475,1,1,8,3,3,6,4,2
98.48,10,1,18,2,0,7,2,5
98.485,10,10,17,13,10,7,0,13
98.49,1,5,19,4,5,6,0,17
98.495,5,2,3,10,1,1,1,3
98.5,6,2,10,9,13,2,1,2
98.505,1,0,2,4,2,10,2,5
98.51,4,2,18,19,5,3,8,6
98.515,2,9,14,21,6,4,3,3
98.52,5,1,15,0,7,16,3,8
98.525,3,4,22,9,3,14,0,6
98.53,2,4,6,3,1,9,3,5
98.535,6,8,5,14,2,2,3,1
98.54,3,2,5,4,0,8,2,0
98.545,4,6,9,0,3,9,1,3
98.55,0,6,16,5,4,8,3,3
98.555,6,4,10,4,1,5,3,4
98.56,4,2,13,10,2,9,5,3
98.565,3,2,12,4,2,0,2,7
98.57,1,1,4,4,2,4,0,2
98.575,3,3,3,0,4,5,0,2
98.58,0,2,5,7,5,7,2,6
98.585,4,1,6,1,8,11,6,1
98.59,0,1,6,2,7,8,0,4
98.595,4,4,6,4,4,4,2,5
98.6,4,6,9,3,4,3,3,1
98.605,2,5,5,1,2,3,0,1
98.61,5,5,9,5,0,2,1,4
98.615,6,3,1,4,3,2,1,1
98.62,0,1,11,8,6,2,5,4
98.625,0,1,7,4,8,12,5,1
98.63,6,5,1,1,0,9,7,5
98.635,1,1,0,1,2,8,2,1
98.64,4,6,4,3,0,2,5,3
98.645,1,4,16,2,3,0,1,1
98.65,1,1,19,3,1,5,0,1
98.655,0,1,24,1,5,0,0,1
98.66,3,2,2,5,2,4,2,1
98.665,4,0,5,7,1,1,1,1
98.67,1,2,8,6,2,0,1,1
98.675,8,5,22,11,4,5,4,4
98.68,2,3,1,4,3,6,3,2
98.685,2,0,39,7,1,1,2,1
98.69,5,5,5,1,2,5,1,3
98.695,13,14,41,4,2,3,1,0
98.7,14,10,20,2,3,0,1,8
98.705,6,2,10,1,5,5,2,0
98.71,2,5,11,6,3,6,2,0
98.715,2,3,7,3,2,1,1,2
98.72,7,5,10,2,1,1,4,0
98.725,2,3,19,13,1,3,1,2
98.73,3,3,1,6,0,3,2,5
98.735,7,6,5,4,3,0,3,3
98.74,4,1,10,2,0,1,1,3
98.745,2,4,9,0,5,0,0,6
98.75,4,6,28,13,8,5,4,0
98.755,1,2,19,2,4,1,1,4
98.76,2,3,12,5,1,3,0,0
98.765,3,1,4,6,2,1,3,5
98.77,10,4,5,2,4,2,4,2
98.775,0,0,14,4,2,2,1,1
98.78,8,1,10,1,2,3,0,4
98.785,4,6,20,0,4,5,1,2
98.79,3,6,19,5,3,5,2,1
98.795,3,2,24,2,7,5,4,2
98.8,1,1,26,1,5,7,8,3
98.805,1,1,17,2,4,8,2,11
98.81,6,2,4,3,8,2,2,21
98.815,3,1,4,4,6,4,4,3
98.82,1,0,0,2,2,4,4,0
98.825,1,3,11,3,2,0,2,2
98.83,2,2,4,3,1,0,1,3
98.835,9,4,0,9,3,5,2,6
98.84,8,0,36,8,1,0,3,4
98.845,15,5,22,4,0,1,2,6
98.85,0,0,9,15,4,6,3,6
98.855,3,5,25,6,1,2,1,3
98.86,0,2,1,3,6,4,1,2
98.865,4,0,24,0,6,8,2,3
98.87,1,1,40,0,2,0,7,2
98.875,8,10,6,2,2,1,3,3
98.88,3,3,0,12,10,14,9,6
98.885,3,4,2,7,0,7,6,3
98.89,2,2,19,1,0,4,0,6
98.895,1,3,19,1,0,2,2,2
98.9,1,2,4,5,2,7,1,2
98.905,6,6,12,0,5,6,5,7
98.91,3,1,2,4,5,4,3,7
98.915,3,4,8,6,2,0,2,8
98.92,2,0,5,4,2,1,3,13
98.925,1,3,36,0,1,5,5,8
98.93,4,11,36,14,6,1,4,1
98.935,5,2,14,1,1,0,1,0
98.94,2,2,5,1,0,2,4,0
98.945,0,1,10,8,2,0,0,1
98.95,1,2,6,6,1,2,0,2
98.955,0,0,3,6,7,1,2,5
98.96,4,4,5,4,1,2,2,4
98.965,2,2,4,11,6,0,1,2
98.97,0,3,19,10,3,2,3,3
98.975,2,4,3,7,6,0,2,2
98.98,5,3,8,1,4,3,1,2
98.985,5,1,5,3,1,6,5,1
98.99,2,4,5,5,3,7,5,2
98.995,2,0,5,2,2,1,3,3
99,4,3,9,5,3,2,3,1
99.005,1,3,21,5,4,5,1,0
99.01,3,0,3,5,2,2,2,1
99.015,2,2,4,1,3,4,0,5
99.02,0,7,14,2,1,1,1,8
99.025,9,2,4,8,7,7,3,3
99.03,1,8,16,1,0,1,1,3
99.035,4,13,38,9,1,4,0,1
99.04,2,6,27,6,0,3,8,2
99.045,4,0,2,4,4,1,0,4
99.05,1,4,2,0,3,4,1,3
99.055,12,4,1,5,3,3,6,7
99.06,1,2,10,3,1,7,7,8
99.065,5,1,2,3,6,2,3,4
99.07,8,1,6,2,3,4,1,2
99.075,5,1,12,1,2,0,3,3
99.08,13,1,53,7,4,4,2,3
99.085,10,1,37,5,7,4,0,1
99.09,1,2,32,3,0,8,4,3
99.095,0,11,0,1,1,4,1,5
99.1,12,16,1,1,0,6,3,12
99.105,3,3,3,4,0,1,2,5
99.11,1,9,3,5,3,1,1,3
99.115,2,6,14,6,4,11,6,12
99.12,2,6,3,2,1,6,5,17
99.125,2,0,10,5,1,4,1,4
99.13,2,3,14,3,3,7,5,6
99.135,4,4,7,3,4,6,1,8
99.14,0,3,20,1,3,1,1,4
99.145,3,5,21,12,5,5,3,1
99.15,1,0,28,6,0,5,1,1
99.155,4,8,34,4,4,5,3,4
99.16,0,1,24,3,2,2,6,8
99.165,1,7,22,1,3,5,4,3
99.17,0,0,14,1,2,2,1,2
99.175,1,4,39,6,5,2,0,4
99.18,8,7,3,1,6,3,3,38
99.185,4,19,48,9,5,1,2,27
99.19,3,2,2,1,5,7,4,23
99.195,2,2,4,4,6,1,9,34
99.2,2,15,29,3,0,2,4,6
99.205,10,2,10,1,1,7,1,1
99.21,2,13,21,7,2,4,3,23
99.215,3,2,6,3,2,6,3,10
99.22,6,8,2,2,2,4,0,35
99.225,4,3,5,4,2,4,7,12
99.23,2,6,5,6,2,3,8,37
99.235,7,15,52,11,6,2,1,5
99.24,7,7,14,1,4,11,4,3
99.245,9,6,4,0,2,1,3,0
99.25,1,5,3,3,3,0,2,8
99.255,0,4,15,7,0,1,0,7
99.26,17,3,67,1,5,2,1,8
99.265,1,5,25,0,0,2,5,6
99.27,13,11,43,5,1,4,2,2
99.275,6,5,0,1,4,4,3,8
99.28,2,8,19,2,8,0,2,8
99.285,1,6,53,13,2,2,10,4
99.29,1,9,44,1,5,6,6,14
99.295,5,6,49,7,2,1,0,14
99.3,1,2,36,9,2,3,2,3
99.305,2,14,23,10,1,6,1,28
99.31,4,13,0,14,3,1,21,96
99.315,5,2,26,1,6,17,11,105
99.32,11,3,11,4,5,16,1,1
99.325,5,13,38,11,6,3,4,22
99.33,8,4,43,16,6,4,3,14
99.335,7,17,76,27,12,13,14,29
99.34,10,24,40,9,3,5,3,3
99.345,7,29,62,12,4,4,8,6
99.35,4,8,41,7,0,2,11,1
99.355,7,7,3,7,1,4,6,49
99.36,1,12,6,1,2,3,7,18
99.365,2,10,17,10,4,0,2,19
99.37,3,13,33,0,5,3,7,2
99.375,2,4,56,39,16,6,1,4
99.38,1,7,13,22,13,7,2,16
99.385,3,13,36,13,8,3,3,51
99.39,15,23,29,12,7,3,5,39
99.395,5,17,9,14,3,2,3,35
99.4,10,41,26,2,3,0,3,31
99.405,12,18,43,17,3,5,4,19
99.41,18,7,75,23,5,13,10,48
99.415,13,19,27,2,1,5,1,80
99.42,23,39,82,7,4,14,6,85
99.425,17,16,68,10,2,5,8,37
99.43,2,9,10,8,4,3,3,15
99.435,3,16,47,9,5,15,6,8
99.44,4,15,6,4,10,9,4,4
99.445,3,12,25,5,13,15,9,8
99.45,4,1,23,9,6,10,3,4
99.455,11,14,25,2,0,4,3,45
99.46,9,4,64,5,3,1,3,12
99.465,15,30,35,6,2,3,5,23
99.47,18,40,22,12,8,4,2,12
99.475,4,31,87,43,14,3,0,5
99.48,13,0,82,9,2,2,4,2
99.485,1,15,73,27,7,1,8,7
99.49,12,18,27,27,11,8,10,42
99.495,7,18,61,27,8,7,9,5
99.5,15,60,72,22,8,0,3,31
99.505,1,10,10,5,10,16,27,11
99.51,3,5,75,7,1,3,2,19
99.515,6,7,49,3,8,12,8,22
99.52,7,9,61,14,2,5,1,10
99.525,9,3,87,23,4,3,5,15
99.53,4,12,88,25,5,7,9,23
99.535,11,6,15,14,5,1,8,11
99.54,6,14,18,4,1,1,2,12
99.545,3,3,71,3,0,6,2,20
99.55,4,2,33,17,6,4,5,34
99.555,5,21,29,15,3,3,3,43
99.56,10,16,54,23,6,4,6,55
99.565,7,21,14,21,6,4,13,59
99.57,6,21,106,15,1,3,1,9
99.575,2,8,51,7,2,13,1,13
99.58,6,29,105,20,8,27,16,67
99.585,1,1,11,1,1,12,2,37
99.59,10,19,28,7,2,17,18,94
99.595,3,14,128,22,6,10,20,22
99.6,6,25,50,1,2,12,5,22
99.605,5,10,24,1,8,15,3,61
99.61,7,10,3,3,3,8,17,106
99.615,15,3,21,11,6,20,7,17
99.62,8,3,8,5,3,10,10,1
99.625,3,18,89,26,9,6,13,9
99.63,2,6,6,6,8,20,5,14
99.635,4,14,16,5,5,13,0,4
99.64,7,9,14,5,6,18,8,3
99.645,6,1,16,6,1,9,13,45
99.65,10,27,26,11,8,21,8,2
99.655,3,1,44,0,5,21,34,35
99.66,5,8,25,7,13,58,1,19
99.665,1,5,0,5,4,8,12,10
99.67,1,2,12,12,5,2,6,10
99.675,13,5,11,12,8,2,8,36
99.68,5,5,1,12,5,10,3,6
99.685,21,37,33,33,19,18,12,9
99.69,3,24,27,10,2,1,4,21
99.695,1,3,40,17,4,1,9,4
99.7,1,0,11,10,0,5,2,13
99.705,3,11,24,6,4,6,4,3
99.71,5,6,25,6,3,16,2,8
99.715,2,2,22,2,1,3,1,22
99.72,5,9,38,12,3,6,4,8
99.725,7,11,25,8,3,2,4,28
99.73,1,7,49,12,4,6,6,7
99.735,9,4,72,13,3,1,3,45
99.74,16,12,61,19,5,2,4,60
99.745,1,11,36,28,2,11,6,3
99.75,6,13,9,1,5,5,8,7
99.755,7,7,23,6,1,3,2,2
99.76,3,20,3,18,9,7,1,21
99.765,3,0,20,7,0,6,4,5
99.77,0,11,74,8,1,1,1,8
99.775,3,19,56,26,5,3,7,17
99.78,3,2,7,13,5,2,1,28
99.785,6,6,62,24,6,1,4,2
99.79,4,3,19,14,3,9,3,7
99.795,0,15,14,10,5,10,10,8
99.8,5,2,33,9,1,7,6,33
99.805,8,1,50,10,4,27,9,21
99.81,7,10,66,18,1,8,8,15
99.815,1,1,6,4,6,5,13,18
99.82,11,12,30,1,1,19,24,41
99.825,2,1,51,7,3,14,7,11
99.83,4,2,5,5,2,12,0,2
99.835,3,17,19,4,3,4,8,12
99.84,3,15,15,10,1,4,3,0
99.845,16,28,37,11,5,10,15,45
99.85,7,6,19,3,2,5,5,9
99.855,0,1,41,10,3,7,6,5
99.86,3,0,20,5,3,2,0,6
99.865,3,4,5,2,3,1,3,3
99.87,3,14,54,11,3,7,4,13
99.875,5,0,6,0,3,3,11,1
99.88,9,20,71,11,7,10,6,43
99.885,8,2,9,5,1,4,2,74
99.89,0,5,23,4,5,8,3,19
99.895,7,4,8,7,7,8,20,3
99.9,1,1,18,3,5,5,15,52
99.905,4,2,3,2,0,20,10,1
99.91,5,12,52,8,3,4,6,7
99.915,1,18,8,2,2,12,4,4
99.92,4,3,14,2,2,7,7,19
99.925,12,3,52,2,6,5,3,5
99.93,3,1,8,1,4,1,8,24
99.935,3,4,6,3,0,8,5,26
99.94,11,6,2,4,1,1,2,4
99.945,2,14,37,11,1,0,8,13
99.95,8,1,24,5,4,2,3,30
99.955,5,12,40,4,2,1,1,27
99.96,3,1,20,3,1,2,1,17
99.965,5,4,32,2,6,4,5,2
99.97,5,4,4,1,0,0,3,5
99.975,1,2,14,1,3,14,0,10
99.98,8,5,18,13,0,12,2,28
99.985,9,2,14,10,3,9,6,28
99.99,1,0,24,2,0,3,3,14
99.995,1,0,9,1,0,0,3,0
100,2,6,21,7,5,4,4,6
100,3,3,6,4,2,3,0,11
100.01,2,1,15,4,2,3,0,4
100.02,1,9,56,15,2,4,4,5
100.02,0,1,18,1,1,3,1,10
100.03,3,12,69,16,2,1,1,10
100.03,6,12,40,15,5,8,4,11
100.03,1,0,4,7,0,4,5,7
100.04,4,2,22,1,2,4,3,17
100.05,5,2,25,3,2,4,1,2
100.05,1,1,7,6,3,4,0,0
100.06,1,5,15,8,7,5,2,2
100.06,3,8,17,4,3,3,1,13
100.06,0,4,21,4,2,2,2,22
100.07,4,5,7,6,4,2,2,2
100.08,1,0,5,0,0,4,3,2
100.08,4,0,8,1,0,5,5,13
100.08,2,1,14,1,1,1,1,0
100.09,1,0,4,3,2,4,5,14
100.09,1,2,1,8,4,5,1,33
100.1,5,1,27,4,1,4,5,9
100.11,8,4,30,3,1,1,0,14
100.11,4,4,15,2,0,3,0,14
100.11,1,1,15,3,2,2,0,11
100.12,1,1,8,2,2,3,2,1
100.12,2,2,4,6,2,4,1,5
100.13,1,8,20,5,1,1,0,6
100.14,9,9,20,3,2,2,0,6
100.14,3,6,7,9,3,2,3,12
100.14,0,1,8,0,4,4,3,2
100.15,2,0,5,5,2,3,1,6
100.16,2,5,18,8,5,6,1,6
100.16,2,7,10,2,2,3,0,5
100.17,5,0,2,7,6,0,1,11
100.17,3,5,21,1,1,5,5,5
100.17,2,6,6,0,0,2,3,1
100.18,1,3,2,4,2,6,0,3
100.19,1,0,0,5,2,3,1,3
100.19,3,4,24,2,1,2,3,9
100.19,2,1,3,3,0,6,2,42
100.2,0,1,17,2,1,1,1,2
100.2,1,1,0,1,0,0,5,1
100.21,1,3,9,7,7,2,2,16
100.22,3,1,1,3,3,6,0,10
100.22,0,0,4,1,2,2,4,1
100.22,1,3,1,5,0,5,2,8
100.23,0,5,19,5,1,2,0,4
100.23,1,0,8,5,1,5,4,18
100.24,5,3,16,9,4,4,1,7
100.25,6,8,29,7,3,4,3,5
100.25,1,8,34,7,2,2,5,2
100.25,2,11,69,12,4,10,4,1
100.26,5,5,35,6,3,3,1,15
100.27,8,9,21,8,4,2,0,17
100.27,3,2,12,4,3,4,0,4
100.28,2,2,7,4,4,3,5,3
100.28,1,4,14,7,3,2,4,6
100.28,0,6,19,3,0,0,1,4
100.29,4,0,8,6,6,10,3,19
100.3,2,3,37,13,3,14,3,15
100.3,6,2,2,2,4,6,2,14
100.31,3,1,5,0,1,3,0,8
100.31,0,1,42,7,0,2,1,0
100.31,1,2,11,2,2,6,2,5
100.32,0,1,7,2,1,0,0,4
100.33,1,2,0,4,4,1,2,5
100.33,1,5,4,4,0,4,0,3
100.33,1,6,10,5,1,2,0,10
100.34,1,1,18,4,4,1,0,12
100.34,2,3,11,2,1,4,2,0
100.35,4,4,32,0,2,0,3,7
100.36,6,9,26,5,5,1,3,10
100.36,2,3,13,5,4,2,1,5
100.36,0,0,11,0,1,0,3,0
100.37,0,1,14,1,1,4,1,2
100.38,2,3,12,3,1,1,1,4
100.38,5,7,5,4,4,3,5,3
100.39,3,3,12,4,0,2,0,1
100.39,2,3,9,2,0,3,2,1
100.39,7,1,12,2,5,3,3,3
100.4,2,1,4,0,1,3,2,3
100.41,0,2,4,4,2,1,1,4
100.41,7,1,11,4,3,3,3,4
100.42,2,0,12,2,2,2,3,3
100.42,6,9,3,2,1,1,1,0
100.42,3,2,7,10,7,5,0,0
100.43,1,5,3,12,3,2,2,0
100.44,2,1,7,1,3,1,1,3
100.44,2,3,4,5,6,3,0,1
100.44,2,3,9,3,0,1,3,1
100.45,7,7,5,6,4,1,1,4
100.45,0,1,3,1,3,0,1,2
100.46,1,4,7,0,1,2,2,2
100.47,1,4,2,9,7,5,5,3
100.47,0,2,20,8,3,0,2,1
100.47,1,2,6,8,4,2,1,1
100.48,0,0,7,7,9,3,1,0
100.48,6,1,7,3,2,0,0,2
100.49,5,1,2,6,4,2,0,1
100.5,11,4,4,3,2,3,2,2
100.5,4,2,1,12,7,3,1,3
100.5,3,0,10,1,1,3,2,3
100.51,4,1,1,0,3,0,0,0
100.52,13,0,1,2,0,0,3,2
100.52,8,1,4,0,0,3,2,1
100.53,4,5,22,7,2,1,1,1
100.53,5,5,21,4,1,5,9,13
100.53,0,3,16,6,1,6,11,8
100.54,10,9,40,9,4,3,4,10
100.55,6,12,23,5,0,1,2,6
100.55,9,4,9,0,9,7,2,4
100.56,8,2,10,1,4,2,4,10
100.56,12,7,2,1,1,3,3,31
100.56,7,4,6,1,3,0,3,36
100.57,8,10,66,14,7,4,2,1
100.58,8,4,9,2,1,2,4,22
100.58,32,12,23,5,4,5,2,42
100.58,26,1,1,4,0,2,0,18
100.59,3,9,70,7,4,5,4,5
100.59,34,0,86,9,3,2,7,33
100.6,16,23,97,27,8,7,2,7
100.61,16,2,40,6,2,2,1,1
100.61,9,10,53,17,7,1,1,11
100.61,2,1,61,17,10,2,1,13
100.62,16,3,11,9,2,0,2,8
100.62,4,1,6,5,1,1,1,1
100.63,17,3,20,8,6,2,2,3
100.64,24,4,5,4,7,4,3,3
100.64,7,5,8,2,1,1,11,12
100.64,10,3,38,12,5,1,1,6
100.65,25,7,13,3,1,2,3,6
100.66,84,7,2,4,0,1,6,16
100.66,5,10,7,12,6,5,3,2
100.67,14,4,6,20,3,3,2,12
100.67,21,10,1,13,6,1,1,1
100.67,53,10,3,0,15,3,2,7
100.68,24,10,19,1,9,4,4,1
100.69,46,9,0,1,2,3,1,13
100.69,14,10,13,13,4,1,1,9
100.69,8,1,1,5,4,1,3,1
100.7,7,8,13,2,3,1,3,7
100.7,15,2,1,7,7,1,3,2
100.71,11,9,24,11,3,1,1,1
100.72,0,3,37,13,4,3,0,1
100.72,1,4,21,3,0,4,2,0
100.72,2,7,18,3,6,1,2,1
100.73,7,2,7,0,3,0,5,6
100.73,8,0,13,1,3,10,9,0
100.74,8,5,20,6,2,8,3,8
100.75,5,6,22,10,4,0,8,2
100.75,5,5,16,9,2,1,2,4
100.75,6,5,34,10,6,10,13,1
100.76,15,4,11,5,2,1,12,6
100.77,1,6,2,3,4,0,2,1
100.77,1,5,1,1,1,1,1,5
100.78,5,2,4,12,4,1,4,7
100.78,8,5,7,8,8,1,4,1
100.78,12,6,52,12,0,3,3,1
100.79,13,1,25,9,7,4,4,6
100.8,6,9,19,1,11,3,3,4
100.8,2,2,4,0,7,3,3,3
100.81,11,5,23,0,2,1,1,6
100.81,2,4,54,2,3,0,0,5
100.81,1,4,19,7,6,4,6,3
100.82,18,7,9,13,6,4,3,6
100.83,16,2,3,8,5,3,2,4
100.83,5,2,5,1,2,3,2,11
100.83,1,0,1,5,5,9,6,6
100.84,0,11,38,4,3,1,2,11
100.84,0,1,8,4,0,0,3,10
100.85,17,3,6,8,4,3,3,5
100.86,9,4,20,4,4,1,2,3
100.86,3,0,21,3,0,2,2,1
100.86,7,2,2,4,5,6,7,10
100.87,17,5,13,7,4,6,1,8
100.88,8,5,20,1,3,3,2,2
100.88,7,0,25,6,7,1,1,2
100.89,5,1,1,22,1,4,0,2
100.89,7,1,1,14,0,2,3,0
100.89,2,12,41,3,1,0,0,2
100.9,2,3,20,2,3,1,1,2
100.91,3,1,18,6,1,4,1,1
100.91,4,1,12,1,2,2,1,4
100.92,5,6,18,10,2,2,1,2
100.92,12,5,5,4,2,1,3,3
100.92,2,1,1,7,6,5,1,9
100.93,7,3,0,12,3,2,2,5
100.94,0,2,15,12,1,1,1,2
100.94,1,1,7,4,0,1,2,9
100.94,3,5,2,3,1,1,1,0
100.95,6,7,0,4,4,4,1,4
100.95,5,2,7,0,5,5,4,1
100.96,4,0,0,0,1,3,4,9
100.97,2,2,22,5,2,3,1,5
100.97,1,1,9,2,4,1,3,4
100.97,3,4,25,5,6,1,1,5
100.98,10,3,3,10,5,2,1,6
100.98,0,8,59,15,1,4,2,6
100.99,3,4,4,2,4,3,3,2
101,1,5,40,6,2,2,5,1
101,2,1,39,6,2,2,2,0
101,0,6,72,16,2,1,3,5
101.01,9,1,19,3,2,2,2,5
101.02,13,0,23,2,3,2,1,4
101.02,3,0,24,3,5,4,2,2
101.03,2,3,3,3,3,0,0,2
101.03,8,2,22,4,4,4,3,7
101.03,2,2,13,4,1,1,0,6
101.04,3,1,9,6,0,0,0,1
101.05,5,2,8,1,0,2,1,3
101.05,0,2,21,6,5,1,1,1
101.06,1,3,8,0,8,1,1,1
101.06,4,5,7,1,2,2,2,1
101.06,3,5,28,6,3,0,1,1
101.07,4,1,19,1,6,5,3,0
101.08,9,2,15,0,1,3,2,6
101.08,0,4,38,1,1,1,3,4
101.08,3,1,15,3,6,1,0,1
101.09,5,2,3,3,8,2,3,2
101.09,1,2,19,3,3,3,0,0
101.1,0,2,18,2,0,2,1,2
101.11,6,5,6,4,3,4,1,3
101.11,2,4,12,10,6,0,0,2
101.11,7,6,14,22,6,5,3,0
101.12,7,0,3,13,7,1,1,1
101.12,9,3,1,2,1,0,2,7
101.13,2,1,1,0,4,0,2,0
101.14,6,0,12,15,5,1,1,2
101.14,7,2,3,3,1,2,1,3
101.14,9,3,3,0,1,1,3,4
101.15,1,5,2,2,0,0,0,1
101.16,5,5,23,1,2,1,1,1
101.16,1,1,11,3,1,4,0,1
101.17,0,0,26,2,0,1,0,2
101.17,1,4,17,1,2,1,0,0
101.17,2,4,18,3,0,2,0,1
101.18,1,3,10,1,1,0,0,1
101.19,4,4,33,5,0,3,1,3
101.19,1,5,31,0,2,1,1,0
101.19,1,5,41,12,9,4,2,2
101.2,0,0,6,4,2,2,4,7
101.2,0,2,1,2,1,1,0,0
101.21,6,5,6,1,3,2,0,1
101.22,4,7,8,11,3,0,3,3
101.22,1,0,4,4,2,1,3,0
101.22,2,8,32,2,2,4,3,0
101.23,4,5,5,5,0,6,2,2
101.23,6,2,4,0,2,0,3,6
101.24,6,7,4,8,1,3,0,3
101.25,3,6,13,3,2,3,7,6
101.25,1,2,6,1,0,0,1,3
101.25,0,3,5,1,1,1,1,5
101.26,5,6,35,11,2,2,4,17
101.27,1,8,15,10,0,2,5,1
101.27,4,4,86,12,6,4,2,3
101.28,1,1,70,5,9,7,12,35
101.28,2,10,3,3,2,0,0,5
101.28,3,7,40,13,3,2,3,2
101.29,2,1,40,6,4,3,1,20
101.3,7,6,50,1,2,1,1,21
101.3,2,2,25,11,5,3,3,4
101.31,2,3,8,3,3,2,2,27
101.31,3,4,13,1,1,2,2,17
101.31,4,8,11,9,5,0,5,1
101.32,5,13,1,10,5,2,4,3
101.33,0,6,46,9,3,4,2,1
101.33,2,13,59,13,0,3,11,5
101.33,2,5,31,0,6,3,3,19
101.34,3,5,9,2,1,2,2,35
101.34,7,5,3,15,6,3,5,32
101.35,1,13,36,2,2,3,1,4
101.36,4,1,4,2,2,1,2,0
101.36,7,6,36,5,0,3,1,22
101.36,15,13,76,17,1,1,0,20
101.37,3,6,2,4,5,4,2,5
101.38,1,8,8,4,8,7,7,10
101.38,6,9,30,7,4,0,7,3
101.39,0,7,53,4,9,4,1,7
101.39,12,26,95,12,3,1,3,5
101.39,3,34,75,30,0,1,0,39
101.4,3,36,127,43,4,1,0,14
101.41,20,30,9,3,7,4,2,17
101.41,24,69,72,21,0,3,6,12
101.42,11,16,42,4,4,3,6,2
101.42,26,48,35,27,9,17,23,3
101.42,17,11,8,6,2,11,44,48
101.43,3,13,10,3,17,23,10,63
101.44,6,2,63,27,8,11,29,65
101.44,9,45,80,8,2,0,19,41
101.44,20,13,22,10,7,12,8,40
101.45,1,18,30,13,4,3,4,88
101.45,9,18,20,1,3,0,9,11
101.46,5,4,107,56,3,6,32,81
101.47,20,6,80,25,2,9,13,28
101.47,11,8,13,14,8,5,29,11
101.47,3,12,93,25,1,3,41,56
101.48,20,32,34,18,12,7,5,28
101.48,17,22,37,28,4,3,10,103
101.49,12,1,6,32,3,0,3,36
101.5,1,27,29,3,10,6,1,13
101.5,2,16,39,25,16,17,15,25
101.5,20,32,63,26,6,1,0,7
101.51,13,24,75,17,0,5,27,5
101.52,9,9,53,1,10,23,41,81
101.52,12,11,35,5,4,0,13,9
101.53,10,2,19,10,5,3,7,12
101.53,7,0,30,24,6,2,8,22
101.53,11,11,3,3,4,7,17,23
101.54,1,14,5,4,0,3,0,28
101.55,3,0,16,18,6,2,1,24
101.55,10,19,41,12,5,2,7,14
101.56,1,21,71,13,4,2,7,3
101.56,11,11,112,16,8,6,2,34
101.56,2,3,50,3,6,5,3,13
101.57,10,16,11,11,4,1,2,24
101.58,9,11,69,10,4,2,2,16
101.58,5,23,35,10,10,6,3,6
101.58,2,11,8,7,1,0,6,6
101.59,22,29,73,17,8,12,6,13
101.59,12,1,2,4,1,5,2,16
101.6,9,11,20,3,3,2,2,42
101.61,6,10,25,15,3,1,2,13
101.61,9,9,0,17,4,3,6,6
101.61,5,5,50,5,5,4,4,8
101.62,4,1,7,5,3,3,3,4
101.62,1,3,25,0,6,2,5,9
101.63,1,5,1,12,1,4,9,55
101.64,1,14,25,3,4,0,15,103
101.64,0,2,16,3,4,2,8,75
101.64,5,4,66,17,6,5,3,18
101.65,10,24,63,31,9,1,7,3
101.66,7,15,6,26,3,3,5,6
101.66,4,27,43,7,4,3,8,29
101.67,1,1,72,29,1,3,3,29
101.67,7,17,128,33,12,2,5,43
101.67,3,21,48,10,4,1,1,18
101.68,3,5,6,10,4,2,2,3
101.69,6,9,0,1,0,1,10,8
101.69,3,5,47,2,4,2,0,51
101.69,1,4,78,0,8,3,3,33
101.7,1,12,35,7,6,3,1,29
101.7,9,9,34,13,2,2,2,14
101.71,9,12,27,12,4,2,2,32
101.72,6,14,15,7,7,6,3,20
101.72,4,13,47,0,1,1,2,1
101.72,1,13,67,7,2,0,3,11
101.73,6,17,28,5,2,2,2,2
101.73,1,4,89,29,3,5,2,1
101.74,4,1,13,18,4,2,3,2
101.75,0,0,35,9,8,6,10,17
101.75,11,9,36,9,2,1,7,43
101.75,9,2,31,1,3,2,6,13
101.76,5,4,9,1,3,2,0,12
101.77,1,10,63,13,0,0,2,7
101.77,1,3,2,1,5,2,4,10
101.78,6,1,10,17,2,5,7,14
101.78,7,8,28,13,7,1,4,17
101.78,3,2,8,4,3,7,6,54
101.79,1,10,11,1,2,0,2,0
101.8,1,4,26,0,0,2,6,43
101.8,5,16,51,4,0,0,9,49
101.81,7,0,57,20,9,1,9,12
101.81,3,8,19,13,4,4,7,17
101.81,4,3,63,2,0,3,0,23
101.82,7,2,8,15,1,2,5,12
101.83,0,2,46,16,8,8,0,21
101.83,8,8,6,3,0,1,0,4
101.83,9,7,18,1,0,2,3,0
101.84,5,4,4,2,2,1,1,4
101.84,2,8,13,3,3,2,1,4
101.85,0,7,17,6,1,1,3,23
101.86,1,1,20,2,0,2,2,13
101.86,5,1,23,1,2,3,2,30
101.86,2,0,6,4,1,1,1,7
101.87,2,7,29,11,4,2,0,4
101.88,9,4,17,3,1,0,2,10
101.88,7,2,20,5,1,2,12,20
101.89,0,1,13,2,3,2,18,24
101.89,5,16,26,1,3,5,2,19
101.89,1,0,34,9,7,0,0,16
101.9,5,12,51,10,0,1,1,7
101.91,0,1,61,5,7,4,3,12
101.91,8,2,6,9,2,2,2,19
101.92,2,9,26,6,3,1,0,13
101.92,4,16,40,4,2,3,4,10
101.92,5,10,24,0,4,2,2,27
101.93,3,2,2,1,3,0,4,24
101.94,5,12,20,4,4,3,0,6
101.94,2,7,15,3,1,1,7,5
101.94,3,1,22,4,2,1,0,6
101.95,4,3,6,5,1,2,6,6
101.95,5,5,14,3,5,1,1,3
101.96,3,3,1,1,1,0,0,9
101.97,3,7,19,2,2,3,3,2
101.97,0,14,31,13,2,0,0,16
101.97,9,9,32,12,1,2,3,0
101.98,5,6,5,7,4,0,5,5
101.98,2,8,2,15,2,3,1,1
101.99,7,19,10,7,2,3,3,8
102,10,8,34,1,1,1,2,7
102,0,2,35,6,1,0,1,22
102,14,17,9,9,6,5,2,46
102.01,3,10,14,8,7,4,4,4
102.02,1,7,0,5,6,1,2,19
102.02,2,2,14,3,2,1,6,9
102.03,12,1,22,6,1,1,0,17
102.03,8,8,22,6,4,1,0,1
102.03,2,3,17,10,8,5,5,10
102.04,7,1,9,10,3,4,6,3
102.05,6,0,23,1,2,2,10,10
102.05,1,5,2,2,4,2,4,2
102.06,4,6,2,8,4,2,3,16
102.06,6,12,5,18,4,3,1,25
102.06,3,7,10,7,2,3,2,26
102.07,3,9,6,9,4,2,3,21
102.08,10,15,31,13,8,4,0,45
102.08,5,8,9,11,0,2,2,7
102.08,4,6,37,5,3,2,4,2
102.09,6,15,33,5,1,0,5,11
102.09,3,16,38,7,3,1,2,10
102.1,4,6,11,2,3,5,1,1
102.11,5,7,11,1,3,1,0,6
102.11,6,2,41,8,4,1,1,13
102.11,8,18,76,21,0,3,2,4
102.12,3,6,8,3,6,2,3,6
102.12,1,2,5,3,3,3,3,0
102.13,6,7,47,4,2,0,0,3
102.14,5,1,30,5,5,0,4,13
102.14,2,2,9,1,3,1,0,19
102.14,1,6,8,3,1,1,3,17
102.15,6,16,12,1,0,2,6,45
102.16,1,0,23,6,0,1,2,0
102.16,1,0,35,11,3,2,1,6
102.17,1,5,5,1,1,0,2,16
102.17,0,0,0,11,6,1,5,20
102.17,4,1,5,1,2,1,3,21
102.18,3,3,28,6,1,2,1,19
102.19,6,8,37,2,1,0,0,14
102.19,0,5,23,6,1,3,5,5
102.19,5,1,14,2,6,5,2,10
102.2,3,2,1,1,6,3,3,14
102.2,1,4,22,5,4,2,0,31
102.21,3,10,14,6,1,1,0,18
102.22,7,1,3,4,0,1,1,4
102.22,1,3,11,3,6,4,11,8
102.22,3,5,17,7,2,2,3,25
102.23,4,3,18,9,0,0,3,10
102.23,0,2,11,8,2,2,4,1
102.24,4,5,1,1,1,0,1,13
102.25,2,2,2,4,4,2,2,3
102.25,3,2,16,2,1,3,0,14
102.25,4,2,9,3,2,2,1,13
102.26,4,4,4,1,4,2,1,3
102.27,4,4,2,2,4,3,0,12
102.27,1,1,19,5,0,2,0,7
102.28,6,12,25,12,1,1,1,9
102.28,0,8,1,1,1,0,2,5
102.28,7,5,28,0,7,6,3,3
102.29,1,0,27,15,5,4,5,11
102.3,7,3,0,5,5,5,1,5
102.3,4,5,24,11,4,4,1,9
102.31,0,9,3,7,7,4,4,3
102.31,2,7,32,10,3,1,2,4
102.31,4,4,10,4,0,3,5,14
102.32,12,17,45,18,9,6,6,42
102.33,2,5,20,2,3,1,6,4
102.33,0,8,24,4,2,3,5,8
102.33,6,2,23,2,3,3,6,41
102.34,10,7,3,0,3,1,0,51
102.34,9,3,20,6,1,0,0,30
102.35,4,5,15,7,1,0,1,10
102.36,3,11,30,11,4,2,5,10
102.36,6,5,29,7,3,2,2,17
102.36,3,8,7,3,0,2,3,6
102.37,1,1,5,3,4,0,3,10
102.38,1,1,3,1,1,1,0,3
102.38,6,14,8,11,3,4,2,1
102.39,1,6,5,1,3,0,1,14
102.39,6,5,9,5,4,1,2,26
102.39,7,8,21,8,5,4,3,20
102.4,3,5,2,4,0,2,3,3
102.41,0,4,30,7,0,1,1,20
102.41,2,6,19,1,2,1,0,15
102.42,3,6,37,7,2,4,4,11
102.42,2,0,2,2,3,2,0,2
102.42,0,2,1,2,3,3,1,4
102.43,5,10,20,0,2,1,1,4
102.44,3,2,20,4,0,1,0,51
102.44,10,5,2,5,4,1,3,57
102.44,3,2,21,0,4,2,0,2
102.45,2,10,32,9,1,2,4,7
102.45,9,12,36,17,7,4,3,10
102.46,3,6,1,0,4,0,2,8
102.47,6,9,24,7,3,4,4,0
102.47,0,3,7,10,5,3,1,7
102.47,2,5,11,3,2,5,2,1
102.48,7,9,13,4,0,1,1,18
102.48,4,3,1,12,1,2,0,49
102.49,0,4,14,12,3,2,4,9
102.5,1,4,8,2,4,5,1,15
102.5,2,0,5,0,1,0,0,13
102.5,2,5,10,9,2,1,1,12
102.51,0,3,20,9,1,0,2,4
102.52,0,8,14,1,3,3,1,0
102.52,1,6,15,5,3,4,3,3
102.53,3,0,0,4,1,0,3,18
102.53,6,2,14,0,0,3,1,28
102.53,1,1,9,4,2,2,0,4
102.54,0,2,13,1,0,0,1,9
102.55,8,10,11,7,4,2,3,2
102.55,1,2,24,8,5,2,2,10
102.56,4,3,40,12,3,3,6,2
102.56,4,8,13,6,1,1,1,4
102.56,1,0,7,5,6,4,4,3
102.57,4,4,13,3,5,1,0,2
102.58,2,4,1,3,1,1,5,9
102.58,1,6,11,11,3,4,2,0
102.58,1,5,20,0,3,1,0,5
102.59,2,2,10,5,1,1,1,7
102.59,2,1,5,3,3,2,2,9
102.6,3,5,30,7,4,1,2,22
102.61,3,3,22,3,2,0,2,1
102.61,5,0,1,2,3,2,1,1
102.61,3,7,23,0,1,1,1,6
102.62,5,8,8,2,5,2,2,2
102.62,0,9,10,5,2,4,3,1
102.63,1,0,11,5,5,2,2,0
102.64,1,1,1,2,0,2,1,3
102.64,7,3,12,1,3,6,2,9
102.64,9,12,25,3,3,0,3,7
102.65,1,0,9,9,4,0,1,4
102.66,1,2,16,6,3,1,1,9
102.66,3,5,24,2,1,1,0,13
102.67,2,6,11,1,1,1,2,2
102.67,4,2,4,1,3,1,2,4
102.67,2,1,7,4,0,0,2,4
102.68,0,3,27,4,0,0,3,0
102.69,7,3,48,9,4,3,5,5
102.69,8,6,3,2,2,2,2,10
102.69,1,5,3,2,1,4,1,3
102.7,7,7,18,2,4,1,2,10
102.7,2,4,28,2,4,0,0,3
102.71,5,0,6,3,2,0,1,2
102.72,3,4,22,5,0,1,2,7
102.72,2,3,22,5,4,4,0,27
102.72,0,4,5,2,1,1,1,16
102.73,1,5,41,7,3,3,3,2
102.73,3,4,5,4,1,2,8,3
102.74,5,5,18,9,2,0,3,4
102.75,4,5,7,0,1,1,4,7
102.75,4,7,47,6,3,3,1,8
102.75,0,5,34,3,2,0,2,14
102.76,1,0,0,2,1,2,3,22
102.77,7,6,0,3,4,3,0,22
102.77,7,7,1,0,0,1,1,17
102.78,1,3,27,9,3,1,4,10
102.78,2,0,34,6,1,5,9,14
102.78,4,2,19,3,1,4,2,8
102.79,6,5,10,7,6,4,4,8
102.8,2,1,14,3,4,2,2,5
102.8,0,4,19,3,0,0,1,4
102.81,9,5,1,2,1,1,0,4
102.81,1,4,0,0,4,1,1,1
102.81,1,2,18,4,1,3,3,8
102.82,5,1,2,1,0,3,2,3
102.83,2,1,3,0,0,1,2,3
102.83,1,0,2,2,0,1,1,3
102.83,3,12,22,7,1,2,3,3
102.84,3,1,19,3,1,2,0,2
102.84,1,5,18,12,6,4,0,0
102.85,6,4,3,3,3,0,2,3
102.86,1,1,28,5,2,3,2,21
102.86,8,9,19,2,2,5,2,25
102.86,2,4,3,4,1,1,0,1
102.87,1,1,9,4,1,2,2,1
102.88,1,1,20,1,3,1,5,5
102.88,3,3,20,11,3,1,1,5
102.89,2,3,7,4,0,1,6,1
102.89,7,11,6,4,0,1,0,2
102.89,2,4,13,3,1,3,2,8
102.9,3,4,3,2,1,2,1,9
102.91,6,8,3,0,2,2,0,32
102.91,7,3,37,10,4,0,1,45
102.92,2,8,5,3,3,3,3,8
102.92,4,0,11,6,5,4,0,11
102.92,0,2,30,5,4,1,0,7
102.93,5,2,24,1,1,1,0,24
102.94,1,1,29,0,1,1,1,2
102.94,3,6,4,2,0,0,3,6
102.94,2,8,35,8,1,1,1,18
102.95,2,5,42,9,3,1,2,1
102.95,3,1,6,2,5,2,3,33
102.96,4,5,12,2,2,3,1,18
102.97,4,1,13,1,2,0,9,28
102.97,7,6,7,3,0,0,2,3
102.97,4,0,0,1,1,2,0,6
102.98,2,1,28,4,1,0,1,3
102.98,10,1,15,7,2,3,2,11
102.99,6,2,3,11,3,0,2,0
103,3,1,7,3,5,5,1,8
103,5,3,17,14,6,5,0,22
103,3,1,7,1,1,2,1,7
103.01,8,13,26,6,1,3,4,30
103.02,6,2,13,4,1,3,2,4
103.02,11,4,64,14,2,1,0,12
103.03,4,1,39,5,3,0,0,24
103.03,2,0,16,4,1,3,2,8
103.03,2,2,10,1,7,3,3,3
103.04,3,3,15,7,5,3,0,4
103.05,1,12,28,13,7,2,0,9
103.05,3,3,11,5,2,2,0,5
103.06,1,3,19,3,1,2,6,5
103.06,5,3,2,2,1,0,2,3
103.06,4,2,14,5,3,2,1,27
103.07,1,1,8,2,3,2,2,24
103.08,2,3,10,0,1,0,1,2
103.08,5,9,16,3,4,5,3,26
103.08,6,0,10,3,1,3,2,21
103.09,1,10,20,14,6,6,5,6
103.09,3,0,9,1,0,2,2,8
103.1,1,1,17,4,3,1,1,2
103.11,4,3,24,8,5,4,3,4
103.11,7,6,4,4,4,4,3,12
103.11,6,9,17,5,1,3,1,11
103.12,1,1,0,1,6,1,9,2
103.12,0,1,1,1,1,1,3,20
103.13,5,7,14,5,1,1,1,3
103.14,1,3,13,3,3,0,2,12
103.14,5,2,9,1,1,0,1,7
103.14,1,5,31,1,1,4,1,6
103.15,2,8,16,3,1,3,3,5
103.16,0,6,12,4,1,1,0,16
103.16,2,7,9,2,2,5,5,40
103.17,1,8,27,2,2,2,2,7
103.17,9,9,11,2,3,3,2,5
103.17,0,5,28,2,5,2,4,4
103.18,3,0,16,5,5,0,3,8
103.19,2,6,8,3,3,2,1,12
103.19,0,4,9,2,5,3,7,1
103.19,5,2,18,5,1,0,2,13
103.2,3,6,9,3,0,3,0,3
103.2,2,2,8,3,2,3,0,7
103.21,0,1,10,4,2,3,3,18
103.22,6,6,4,2,2,3,1,20
103.22,2,2,15,2,1,0,2,0
103.22,2,4,15,2,1,2,0,2
103.23,5,3,29,5,1,2,5,9
103.23,2,2,10,7,3,2,1,8
103.24,2,0,7,1,1,2,2,1
103.25,0,11,23,1,1,2,2,7
103.25,2,8,35,4,1,1,2,9
103.25,0,2,10,5,2,0,1,8
103.26,0,0,7,1,2,0,1,5
103.27,5,4,13,9,9,4,3,20
103.27,0,1,20,5,1,2,2,6
103.28,2,3,15,6,2,0,2,0
103.28,0,0,9,1,1,1,3,8
103.28,2,6,12,5,1,0,2,16
103.29,4,0,7,3,1,5,3,1
103.3,1,4,2,3,4,2,3,8
103.3,3,7,26,2,2,0,0,6
103.31,4,4,11,1,2,1,1,3
103.31,6,1,5,3,2,5,3,11
103.31,6,6,3,2,2,1,3,15
103.32,2,2,5,4,4,1,1,2
103.33,0,7,15,2,1,1,1,5
103.33,4,3,8,5,1,0,0,8
103.33,0,8,19,7,2,1,2,26
103.34,1,1,3,1,3,1,1,1
103.34,2,2,1,3,3,1,1,0
103.35,2,3,4,1,0,1,0,1
103.36,2,1,25,3,2,5,1,22
103.36,2,2,25,9,3,3,2,18
103.36,1,4,8,3,0,1,1,5
103.37,1,8,52,13,1,0,1,0
103.38,1,2,17,1,4,3,4,5
103.38,3,9,43,12,2,2,3,2
103.39,3,2,6,9,1,4,3,6
103.39,2,6,9,1,5,2,3,9
103.39,3,7,16,2,3,1,1,2
103.4,0,5,2,7,5,3,0,6
103.41,5,0,0,1,2,0,2,8
103.41,4,0,27,0,2,1,0,4
103.42,1,0,14,1,2,0,0,3
103.42,5,2,6,0,1,1,1,5
103.42,6,2,18,4,2,2,3,2
103.43,3,5,14,1,1,1,2,2
103.44,4,5,3,5,1,1,2,6
103.44,3,3,7,1,1,2,0,1
103.44,6,3,7,7,1,0,2,1
103.45,3,1,6,5,3,1,2,4
103.45,2,5,8,1,0,1,3,4
103.46,4,0,6,3,2,1,7,22
103.47,0,5,0,1,3,0,1,2
103.47,4,2,4,0,0,1,2,4
103.47,0,5,29,8,2,1,1,1
103.48,3,2,2,3,0,1,1,9
103.48,0,4,1,1,1,2,2,0
103.49,4,10,9,2,1,1,4,6
103.5,8,16,25,6,5,4,7,6
103.5,2,3,10,4,3,3,2,11
103.5,1,2,12,1,0,0,0,7
103.51,5,2,7,3,1,0,2,15
103.52,1,4,26,0,3,2,0,4
103.52,7,10,19,3,4,0,2,18
103.53,1,4,7,3,4,3,4,8
103.53,2,2,9,0,2,3,1,6
103.53,2,1,5,2,2,0,1,4
103.54,1,0,1,1,1,1,2,9
103.55,2,1,3,0,1,1,0,0
103.55,0,3,5,1,0,0,0,0
103.56,2,5,2,0,2,1,0,2
103.56,6,3,0,2,3,0,1,6
103.56,6,6,12,1,2,3,2,6
103.57,1,0,1,4,2,1,3,1
103.58,2,2,8,3,1,2,2,3
103.58,4,4,1,2,1,1,1,2
103.58,5,3,9,3,0,0,0,0
103.59,1,5,6,3,0,2,2,2
103.59,1,2,7,3,4,4,2,2
103.6,3,0,7,4,1,0,0,2
103.61,2,2,1,8,2,0,0,5
103.61,8,3,8,4,2,1,2,2
103.61,4,1,2,1,0,2,4,4
103.62,1,1,20,13,4,3,1,0
103.62,2,2,7,1,5,3,0,1
103.63,0,1,1,2,3,0,1,1
103.64,1,4,1,6,2,2,0,3
103.64,1,3,10,2,2,1,1,0
103.64,7,2,3,3,1,1,1,1
103.65,0,3,0,1,8,6,5,3
103.66,12,4,6,5,9,6,6,4
103.66,3,6,0,19,9,0,1,1
103.67,7,7,9,11,23,11,3,1
103.67,2,8,14,17,10,4,1,0
103.67,6,5,8,7,1,0,0,1
103.68,11,6,1,0,13,11,7,5
103.69,10,9,7,10,15,5,3,4
103.69,0,2,2,0,0,1,2,2
103.69,0,2,14,17,6,2,5,1
103.7,5,7,27,8,5,2,2,6
103.7,2,2,13,7,3,2,4,3
103.71,1,15,46,17,6,5,3,27
103.72,7,5,32,6,5,2,0,26
103.72,7,9,5,12,9,2,2,5
103.72,7,7,17,14,6,4,3,4
103.73,10,11,40,8,2,1,3,5
103.73,5,18,105,11,1,1,2,9
103.74,5,1,7,3,4,0,3,2
103.75,1,4,6,7,1,4,2,11
103.75,14,7,7,4,2,2,5,17
103.75,1,5,27,1,0,0,0,2
103.76,1,1,3,1,3,1,1,7
103.77,1,5,33,2,1,1,2,4
103.77,1,2,10,0,2,1,1,5
103.78,2,3,12,4,1,1,1,6
103.78,5,10,12,6,3,4,3,6
103.78,5,6,15,3,2,4,2,4
103.79,0,1,17,6,2,0,0,4
103.8,2,7,3,1,2,2,2,3
103.8,3,4,5,3,0,1,1,3
103.81,0,3,6,0,3,0,3,4
103.81,2,0,5,5,0,2,1,14
103.81,4,0,0,8,5,2,1,4
103.82,8,7,1,5,9,4,3,5
103.83,3,4,18,3,0,0,3,6
103.83,4,0,14,4,1,2,1,6
103.83,8,12,32,4,1,1,2,3
103.84,10,14,7,0,1,0,1,3
103.84,0,6,2,3,4,3,1,3
103.85,1,8,39,9,6,4,1,3
103.86,4,2,9,4,4,1,1,1
103.86,1,5,34,5,4,0,2,1
103.86,0,4,11,6,0,1,1,3
103.87,4,2,8,1,0,0,1,3
103.88,3,6,7,4,7,2,2,5
103.88,2,3,3,3,5,2,1,2
103.89,0,1,12,3,1,2,2,1
103.89,1,0,18,0,1,0,3,6
103.89,1,4,14,2,0,0,0,2
103.9,1,3,15,0,1,2,3,9
103.91,2,0,11,4,1,4,1,6
103.91,1,4,26,2,3,2,4,6
103.92,2,0,4,2,2,1,0,5
103.92,0,1,9,7,5,2,1,0
103.92,0,0,12,3,3,1,1,5
103.93,5,8,3,2,2,5,0,2
103.94,2,0,21,4,0,0,3,2
103.94,4,0,5,7,5,4,2,2
103.94,0,6,11,1,3,3,1,2
103.95,3,6,2,0,1,2,3,1
103.95,10,8,11,2,6,4,5,4
103.96,2,1,5,1,2,1,1,0
103.97,2,0,5,5,8,0,1,1
103.97,1,2,24,2,1,1,1,2
103.97,1,0,20,1,4,1,1,2
103.98,1,3,1,1,6,4,1,4
103.98,4,9,0,13,8,4,3,5
103.99,0,3,20,4,2,1,1,2
104,1,2,18,0,1,3,0,1
104,0,6,4,2,2,3,1,0
104,0,1,5,3,1,1,1,0
104.01,2,5,8,4,0,0,0,3
104.02,1,0,7,3,0,1,1,1
104.02,0,0,1,3,2,1,2,0
104.03,1,3,11,2,1,2,2,5
104.03,0,5,47,7,4,0,2,6
104.03,0,0,14,3,0,4,3,9
104.04,4,1,6,1,1,3,2,11
104.05,3,2,4,0,5,1,0,0
104.05,0,3,17,1,4,1,0,2
104.06,0,2,3,1,0,0,2,3
104.06,5,11,33,0,1,2,1,1
104.06,1,1,5,0,1,1,0,1
104.07,3,4,5,1,2,0,2,5
104.08,1,3,21,6,0,1,1,5
104.08,1,9,51,11,4,2,3,3
104.08,1,5,25,4,4,1,3,10
104.09,1,5,17,2,0,3,2,3
104.09,0,5,10,5,0,1,1,5
104.1,1,6,13,5,5,0,1,1
104.11,5,11,5,1,1,2,0,7
104.11,2,1,0,1,1,3,2,1
104.11,6,8,14,0,1,2,1,8
104.12,1,6,31,3,2,1,2,6
104.12,4,3,12,1,4,1,2,0
104.13,1,0,2,2,7,2,0,2
104.14,1,6,10,3,3,1,0,1
104.14,4,9,5,10,8,6,5,3
104.14,2,3,22,5,2,3,2,1
104.15,4,3,5,3,2,4,0,3
104.16,1,2,8,2,2,1,1,0
104.16,1,0,3,1,2,4,3,3
104.17,0,0,8,2,0,1,0,3
104.17,1,2,5,3,1,4,2,0
104.17,3,1,5,4,2,1,1,1
104.18,0,1,5,2,3,0,3,1
104.19,3,4,10,1,2,2,1,1
104.19,1,1,3,1,1,1,3,7
104.19,4,9,1,3,3,2,1,9
104.2,0,13,18,1,0,1,0,1
104.2,3,1,4,0,3,1,1,0
104.21,1,6,10,2,1,2,4,2
104.22,6,14,15,3,1,0,3,4
104.22,1,1,6,0,1,2,0,1
104.22,1,2,8,8,5,5,3,1
104.23,1,1,26,4,3,3,2,6
104.23,3,9,1,4,1,2,1,1
104.24,3,2,25,3,4,1,0,1
104.25,0,3,2,1,2,1,1,3
104.25,2,6,1,2,3,5,5,6
104.25,0,6,14,2,5,2,1,1
104.26,2,1,23,7,0,0,1,10
104.27,1,1,12,3,1,1,6,3
104.27,1,1,18,1,3,1,2,8
104.28,2,3,6,0,1,2,1,11
104.28,3,0,1,3,3,3,3,0
104.28,2,0,6,0,3,1,0,4
104.29,2,11,42,6,5,2,0,3
104.3,0,1,5,3,3,0,3,7
104.3,0,3,1,4,5,2,1,2
104.31,3,4,14,1,2,5,2,0
104.31,5,3,4,2,3,2,0,0
104.31,1,7,5,1,1,3,0,3
104.32,1,4,2,2,2,0,1,1
104.33,0,0,12,3,1,3,1,1
104.33,2,3,5,4,6,2,0,0
104.33,4,5,0,4,2,0,0,6
104.34,3,3,14,1,3,1,1,4
104.34,0,6,31,0,6,1,1,2
104.35,6,7,22,2,3,3,0,2
104.36,7,9,2,7,9,4,5,5
104.36,1,6,1,2,5,4,1,1
104.36,1,4,3,1,1,2,1,1
104.37,1,3,8,3,1,4,3,2
104.38,3,4,3,1,5,4,3,1
104.38,0,4,2,7,5,1,2,0
104.39,0,7,7,4,1,3,3,2
104.39,3,13,14,3,0,2,1,3
104.39,1,4,17,5,1,3,2,13
104.4,0,4,7,3,0,4,3,7
104.41,2,1,1,4,4,3,2,19
104.41,6,1,7,0,2,1,3,20
104.42,0,0,3,3,3,0,2,0
104.42,1,1,6,0,2,1,1,4
104.42,1,1,5,2,2,2,1,2
104.43,1,0,8,5,1,1,2,6
104.44,0,1,0,0,0,4,3,0
104.44,1,4,2,4,2,5,3,2
104.44,3,3,15,1,8,5,3,5
104.45,0,2,1,3,4,3,2,1
104.45,1,4,20,1,1,1,1,1
104.46,4,4,27,1,4,3,2,2
104.47,1,3,11,5,0,1,1,4
104.47,1,0,12,3,1,2,3,1
104.47,0,5,8,5,1,3,2,4
104.48,2,6,16,5,4,3,1,2
104.48,3,3,3,3,3,0,1,5
104.49,3,2,11,1,1,2,1,1
104.5,2,2,11,3,3,3,2,0
104.5,4,3,6,3,3,1,1,7
104.5,1,6,15,6,3,2,1,3
104.51,3,7,12,0,1,1,0,1
104.52,1,7,20,5,2,0,2,1
104.52,1,1,11,3,3,2,1,2
104.53,3,7,18,3,1,4,1,6
104.53,1,1,4,2,1,1,2,1
104.53,3,6,5,1,4,3,2,2
104.54,1,2,5,6,4,0,2,2
104.55,1,4,11,1,2,1,0,1
104.55,4,1,1,3,2,1,0,1
104.56,2,1,4,3,1,3,1,3
104.56,2,2,4,0,2,1,1,1
104.56,2,0,10,2,0,1,1,2
104.57,0,3,1,4,6,2,2,1
104.58,5,5,7,3,2,4,5,2
104.58,2,6,22,7,2,4,2,0
104.58,4,14,43,11,1,1,0,2
104.59,1,1,2,3,2,2,3,2
104.59,1,3,12,8,1,1,2,0
104.6,3,9,20,6,3,2,3,1
104.61,6,1,2,2,1,1,1,4
104.61,5,4,5,5,3,2,1,1
104.61,2,0,5,2,6,3,3,1
104.62,1,4,9,0,1,3,0,1
104.62,1,0,22,0,0,1,1,1
104.63,1,0,2,1,2,2,2,1
104.64,0,3,1,1,2,2,1,2
104.64,2,3,3,0,1,1,3,1
104.64,3,6,2,5,5,1,3,0
104.65,1,3,1,1,4,1,1,1
104.66,0,0,7,2,2,0,0,0
104.66,0,1,7,1,1,0,0,1
104.67,0,2,4,1,3,2,0,2
104.67,2,6,1,2,4,2,1,0
104.67,0,2,11,4,2,1,2,0
104.68,0,3,2,8,0,3,2,3
104.69,6,9,6,4,1,1,4,5
104.69,1,2,2,0,0,1,0,0
104.69,0,0,17,3,2,2,2,3
104.7,1,5,7,2,2,1,1,3
104.7,0,0,6,2,4,3,2,0
104.71,6,6,6,9,1,1,2,2
104.72,3,4,15,7,5,1,1,3
104.72,1,6,19,5,8,3,0,0
104.72,1,2,32,2,2,0,1,2
104.73,2,1,0,3,0,1,1,1
104.73,3,4,8,2,3,3,0,1
104.74,5,4,4,9,11,6,3,4
104.75,2,0,15,2,2,0,1,1
104.75,1,1,4,3,1,0,1,1
104.75,0,2,19,4,2,1,2,1
104.76,0,5,3,4,0,1,1,2
104.77,6,7,17,1,2,4,2,0
104.77,7,6,4,13,7,1,1,2
104.78,4,8,14,1,4,1,2,3
104.78,3,1,11,1,3,0,2,1
104.78,1,4,11,3,1,3,0,0
104.79,12,6,1,5,3,0,0,0
104.8,3,7,23,5,3,4,3,1
104.8,13,24,52,11,5,4,5,3
104.81,1,10,29,6,6,1,2,1
104.81,10,5,22,4,3,0,0,4
104.81,29,7,12,6,2,1,0,3
104.82,39,5,29,15,4,2,2,13
104.83,38,17,1,13,7,5,2,4
104.83,6,9,25,5,4,2,2,3
104.83,1,19,56,6,0,0,1,7
104.84,29,8,33,6,1,4,2,17
104.84,10,10,42,4,0,2,0,20
104.85,3,3,5,5,1,2,2,1
104.86,18,29,15,4,0,1,4,25
104.86,6,1,2,5,4,2,1,35
104.86,3,20,23,5,1,3,1,10
104.87,5,3,60,2,3,2,4,23
104.88,4,8,9,1,2,1,5,1
104.88,0,9,12,9,3,0,4,12
104.89,5,4,27,9,3,1,2,2
104.89,11,7,8,1,1,4,1,15
104.89,8,10,7,12,11,5,1,9
104.9,20,1,86,9,2,4,2,4
104.91,15,7,50,2,4,4,0,4
104.91,16,3,2,6,8,2,2,2
104.92,30,18,62,21,6,1,4,15
104.92,9,3,88,13,0,1,1,6
104.92,18,4,18,3,0,2,2,14
104.93,3,1,11,4,7,4,1,1
104.94,24,15,16,7,1,0,2,7
104.94,8,5,34,10,0,1,0,1
104.94,6,3,6,5,2,2,1,3
104.95,15,7,49,4,2,2,3,5
104.95,2,5,51,5,4,5,4,8
104.96,0,8,30,10,3,0,1,1
104.97,1,11,50,7,3,0,1,2
104.97,12,1,29,0,5,3,2,8
104.97,15,6,4,2,0,1,0,8
104.98,61,16,14,13,2,3,4,4
104.98,24,1,15,14,5,1,7,0
104.99,8,10,19,18,7,3,8,5
105,28,10,19,3,16,0,1,17
105,52,16,2,1,2,1,5,11
105,14,6,1,8,4,2,1,2
105.01,14,4,12,8,0,1,3,7
105.02,23,11,10,9,1,0,0,1
105.02,14,2,6,1,5,3,0,5
105.03,16,2,9,10,2,4,1,8
105.03,6,3,10,0,6,2,0,0
105.03,5,0,19,5,5,7,1,4
105.04,2,3,13,0,4,3,3,6
105.05,14,1,0,0,2,1,10,24
105.05,3,3,11,6,5,1,12,20
105.06,9,2,7,3,2,2,7,3
105.06,2,7,19,15,11,5,4,5
105.06,13,1,16,1,1,9,5,1
105.07,2,4,41,2,7,4,3,3
105.08,9,11,57,2,3,3,17,2
105.08,0,0,23,4,3,2,10,5
105.08,24,6,29,7,0,3,10,4
105.09,15,0,5,3,5,1,12,0
105.09,14,5,12,8,4,1,19,7
105.1,10,4,2,1,1,3,8,8
105.11,1,2,8,2,0,4,1,6
105.11,0,4,7,10,4,1,12,6
105.11,8,8,2,8,3,3,3,9
105.12,5,4,13,2,1,0,2,4
105.12,21,15,17,2,2,6,13,10
105.13,7,1,6,0,0,4,12,8
105.14,14,5,11,1,1,7,9,4
105.14,9,9,38,15,3,4,5,8
105.14,2,1,9,10,5,1,1,2
105.15,12,2,3,2,1,5,0,1
105.16,20,8,32,2,2,3,7,5
105.16,9,2,7,4,1,0,2,2
105.17,8,2,51,1,2,1,2,8
105.17,2,4,9,6,1,1,4,5
105.17,8,5,1,9,8,0,11,1
105.18,25,6,0,2,3,3,13,3
105.19,13,3,6,14,3,1,15,6
105.19,7,5,0,11,10,10,7,2
105.19,7,10,17,7,1,0,5,2
105.2,8,5,23,7,2,0,4,3
105.2,11,2,8,2,6,4,8,4
105.21,3,8,22,1,5,1,3,1
105.22,8,9,14,5,2,3,5,2
105.22,0,2,21,15,3,0,2,1
105.22,8,5,7,5,7,5,2,1
105.23,5,8,64,4,3,0,1,3
105.23,3,11,20,5,5,3,0,0
105.24,4,0,6,10,3,1,7,4
105.25,2,4,32,4,3,2,0,16
105.25,11,11,33,4,1,1,11,30
105.25,3,4,6,8,3,0,7,3
105.26,1,9,39,4,2,0,4,4
105.27,1,2,13,7,6,1,1,8
105.27,0,4,13,2,6,4,3,4
105.28,2,4,17,5,5,0,6,6
105.28,2,4,23,5,1,4,9,10
105.28,8,12,15,5,2,1,2,3
105.29,12,20,1,7,3,2,4,6
105.3,5,4,20,2,0,2,3,19
105.3,6,3,11,1,1,2,3,16
105.31,3,10,21,4,3,5,5,11
105.31,5,3,11,5,5,4,7,30
105.31,2,9,60,14,5,5,8,9
105.32,4,7,64,9,5,1,3,6
105.33,3,3,11,0,3,3,2,19
105.33,0,3,24,2,0,1,2,3
105.33,0,3,3,3,1,4,1,6
105.34,2,8,1,5,5,2,0,4
105.34,0,2,28,1,5,3,4,1
105.35,0,1,20,9,1,1,2,2
105.36,2,4,5,8,2,0,4,5
105.36,0,4,22,15,8,7,3,15
105.36,4,10,16,4,2,1,1,8
105.37,7,5,2,2,0,2,1,10
105.38,4,1,10,1,3,1,8,5
105.38,6,3,5,3,3,7,5,5
105.39,4,6,30,4,2,1,3,0
105.39,5,11,25,9,5,5,5,7
105.39,3,3,33,4,2,1,1,5
105.4,4,6,2,6,1,1,1,3
105.41,11,25,63,9,0,0,1,12
105.41,5,6,20,5,6,7,10,5
105.42,1,5,10,5,3,2,10,7
105.42,5,6,34,8,3,3,2,4
105.42,5,18,62,9,1,1,3,14
105.43,2,32,58,2,1,1,3,18
105.44,3,13,23,11,2,8,5,11
105.44,3,7,45,19,3,10,5,1
105.44,1,9,3,8,7,5,8,5
105.45,2,1,8,2,1,6,8,11
105.45,6,6,20,4,2,3,4,5
105.46,2,7,31,10,1,0,3,4
105.47,18,81,31,24,12,6,3,15
105.47,17,84,55,24,14,9,7,5
105.47,0,15,22,11,2,4,1,20
105.48,2,29,34,1,1,3,1,30
105.48,17,102,56,17,7,1,7,0
105.49,20,127,108,41,6,1,2,4
105.5,1,4,107,16,1,2,3,6
105.5,24,111,32,17,10,8,11,4
105.5,17,100,87,7,4,2,2,8
105.51,8,63,0,15,9,6,7,73
105.52,3,43,114,24,4,2,2,62
105.52,11,47,32,31,3,1,6,3
105.53,6,20,14,15,4,0,5,30
105.53,2,3,47,17,4,2,3,11
105.53,10,31,70,22,6,2,2,46
105.54,14,54,26,5,0,10,8,12
105.55,4,9,7,1,1,11,5,13
105.55,6,32,20,6,0,5,0,22
105.56,8,60,51,21,10,9,5,7
105.56,2,45,88,25,6,0,2,14
105.56,12,44,78,29,9,2,1,10
105.57,3,28,33,2,1,6,5,9
105.58,1,40,72,13,8,0,1,5
105.58,3,3,0,4,1,4,2,13
105.58,3,18,7,5,2,1,1,5
105.59,2,13,88,12,3,1,12,24
105.59,5,8,102,20,0,5,19,1
105.6,3,6,55,2,1,1,6,1
105.61,8,15,96,19,8,7,7,43
105.61,2,18,46,16,5,1,10,52
105.61,12,11,45,0,3,8,16,1
105.62,16,23,27,14,12,16,2,46
105.62,22,21,2,11,3,4,6,12
105.63,2,26,47,12,3,2,11,21
105.64,0,29,119,13,2,13,36,1
105.64,4,21,27,3,0,14,4,28
105.64,4,21,14,3,5,4,2,0
105.65,4,7,30,5,11,9,7,0
105.66,1,10,82,3,5,1,8,14
105.66,6,31,24,10,5,5,6,10
105.67,2,1,92,4,4,10,10,3
105.67,4,9,38,4,7,0,4,23
105.67,1,15,12,1,14,13,10,12
105.68,3,4,13,14,2,3,4,14
105.69,1,15,20,8,2,3,6,1
105.69,2,10,71,13,1,8,9,3
105.69,2,15,82,14,2,10,6,2
105.7,1,3,4,8,7,7,3,4
105.7,5,0,18,6,2,5,4,6
105.71,2,17,20,4,0,0,3,10
105.72,6,13,10,6,3,4,0,7
105.72,6,5,1,1,1,4,1,7
105.72,1,9,10,15,4,3,4,29
105.73,2,3,57,8,5,3,0,4
105.73,6,11,48,2,4,1,0,21
105.74,3,3,6,0,2,4,1,25
105.75,2,7,22,4,9,2,0,14
105.75,7,25,12,15,3,0,2,2
105.75,6,23,46,8,4,9,3,24
105.76,3,2,65,9,5,7,2,22
105.77,10,48,30,25,12,8,9,2
105.77,1,19,66,11,5,4,4,7
105.78,0,4,9,9,3,1,2,6
105.78,1,3,48,1,2,13,3,3
105.78,4,5,14,5,4,2,1,34
105.79,3,8,19,5,2,1,0,22
105.8,6,8,68,10,10,8,1,4
105.8,1,4,23,0,4,1,4,9
105.81,6,12,113,17,3,1,4,20
105.81,0,14,71,5,6,0,3,10
105.81,1,19,62,10,1,3,2,2
105.82,4,21,18,1,1,3,2,17
105.83,1,4,67,2,3,1,4,25
105.83,1,1,81,1,1,0,0,7
105.83,5,3,40,8,1,0,1,18
105.84,8,16,44,3,1,4,4,16
105.84,1,11,69,12,6,6,4,4
105.85,4,14,18,5,3,1,1,1
105.86,2,3,2,3,2,3,0,19
105.86,2,2,34,4,3,1,4,5
105.86,1,9,76,5,1,1,2,4
105.87,0,2,46,12,3,5,3,6
105.88,1,2,51,10,2,2,2,10
105.88,1,10,37,0,4,1,1,0
105.89,3,18,40,8,2,1,1,5
105.89,1,1,5,7,2,1,4,1
105.89,2,12,11,1,1,0,2,11
105.9,0,15,36,5,3,2,3,7
105.91,1,4,9,2,3,0,1,10
105.91,9,6,9,8,5,3,7,21
105.92,1,3,7,1,2,2,2,4
105.92,0,3,44,2,2,2,3,0
105.92,2,17,60,13,1,5,0,8
105.93,10,29,82,30,4,2,1,3
105.94,1,15,13,3,0,1,2,7
105.94,3,15,8,6,1,1,2,14
105.94,2,4,34,3,1,13,4,27
105.95,2,4,18,1,4,9,2,27
105.95,0,12,1,3,0,2,3,17
105.96,7,10,14,6,5,3,4,5
105.97,2,5,6,1,4,4,0,8
105.97,3,1,26,16,5,8,6,2
105.97,3,10,2,3,2,1,2,2
105.98,1,7,7,4,1,1,5,2
105.98,4,1,28,2,4,3,2,14
105.99,1,10,30,8,1,1,1,6
106,6,10,31,8,1,0,2,3
106,1,10,39,17,4,5,1,11
106,1,6,20,2,3,4,1,32
106.01,3,5,22,2,4,3,0,18
106.02,0,5,6,11,0,2,0,8
106.02,2,12,25,12,1,1,3,1
106.03,3,2,29,9,3,1,3,6
106.03,5,4,24,3,2,3,6,12
106.03,1,12,66,16,6,7,7,8
106.04,7,8,11,6,1,10,5,2
106.05,3,2,3,6,2,3,2,3
106.05,3,6,23,8,0,3,1,15
106.06,2,12,54,10,3,3,7,25
106.06,2,1,55,2,3,2,4,3
106.06,7,4,1,6,2,2,4,7
106.07,2,3,31,3,2,2,4,4
106.08,0,2,36,5,2,3,2,12
106.08,3,15,4,4,1,4,5,35
106.08,8,19,18,11,2,5,12,41
106.09,2,9,24,0,5,7,2,2
106.09,2,10,41,3,3,1,2,3
106.1,3,8,32,3,1,2,2,10
106.11,1,3,50,10,1,0,4,13
106.11,0,5,17,4,1,3,3,6
106.11,3,4,52,10,2,1,1,9
106.12,1,4,24,2,3,5,3,7
106.12,4,1,32,2,2,4,2,7
106.13,6,5,22,4,3,2,1,13
106.14,3,4,24,17,7,3,2,4
106.14,8,11,30,15,7,6,4,11
106.14,5,13,21,9,2,0,4,17
106.15,7,9,63,14,6,2,7,22
106.16,1,1,86,13,0,1,1,2
106.16,7,7,14,6,6,8,5,7
106.17,5,1,24,6,0,3,2,1
106.17,2,1,8,3,3,1,4,17
106.17,3,7,0,4,0,3,1,13
106.18,5,0,13,0,0,4,5,54
106.19,1,3,39,7,0,1,2,1
106.19,5,6,6,6,1,3,1,6
106.19,3,8,29,17,3,3,3,7
106.2,2,4,2,3,1,0,2,20
106.2,5,1,41,7,3,0,1,6
106.21,7,12,67,12,0,3,4,8
106.22,3,8,67,7,1,2,2,3
106.22,1,5,8,9,7,4,4,2
106.22,0,4,41,6,3,2,2,5
106.23,3,4,15,2,3,2,1,9
106.23,3,4,5,6,3,2,0,2
106.24,5,1,47,11,1,1,2,2
106.25,2,2,40,7,2,1,1,1
106.25,1,6,19,5,1,0,0,1
106.25,3,8,2,1,1,1,2,5
106.26,3,4,19,2,1,3,3,2
106.27,3,1,34,2,3,2,1,3
106.27,3,3,31,2,2,2,1,1
106.28,7,2,37,11,1,2,2,6
106.28,1,1,0,1,0,2,1,5
106.28,2,5,15,7,5,3,9,2
106.29,0,2,17,3,1,3,3,1
106.3,3,2,15,4,2,2,3,25
106.3,9,6,23,2,1,2,5,22
106.31,2,8,44,10,5,1,7,13
106.31,4,3,48,6,5,1,1,7
106.31,3,3,42,0,1,4,5,16
106.32,3,17,35,6,6,4,1,9
106.33,2,6,48,5,9,3,3,5
106.33,0,10,75,12,0,2,5,17
106.33,6,2,30,1,3,0,1,2
106.34,2,4,21,1,6,4,5,6
106.34,4,5,0,8,4,1,2,0
106.35,1,2,21,5,2,1,0,12
106.36,1,0,12,3,3,2,0,2
106.36,1,5,18,5,2,1,1,2
106.36,0,2,36,6,1,2,2,0
106.37,2,2,28,4,1,2,2,7
106.38,1,6,24,0,3,4,5,9
106.38,3,1,37,2,2,5,4,7
106.39,4,1,31,3,3,3,1,8
106.39,1,1,34,1,2,0,1,11
106.39,3,0,33,6,2,3,1,21
106.4,5,3,73,23,8,3,1,20
106.41,1,2,63,16,4,2,1,4
106.41,2,1,4,2,2,4,1,9
106.42,4,3,9,3,6,0,1,8
106.42,3,4,5,1,4,4,6,10
106.42,5,8,22,3,2,0,0,7
106.43,1,0,4,2,5,3,5,0
106.44,2,1,1,1,5,4,1,3
106.44,2,1,14,0,2,1,1,2
106.44,1,1,2,2,0,0,0,2
106.45,2,5,1,6,3,1,1,1
106.45,2,3,12,2,1,1,1,3
106.46,2,0,17,8,3,1,1,4
106.47,6,5,77,11,2,1,0,5
106.47,14,10,23,16,7,6,3,11
106.47,1,2,33,8,1,0,1,5
106.48,1,2,38,9,1,3,2,7
106.48,2,10,7,5,5,2,2,1
106.49,2,4,18,4,3,2,1,3
106.5,1,3,10,2,4,4,6,3
106.5,2,4,49,6,1,1,1,16
106.5,3,4,25,9,9,6,2,14
106.51,5,1,2,2,1,1,2,2
106.52,0,2,18,4,4,2,2,11
106.52,3,1,21,4,0,3,3,11
106.53,1,1,12,3,2,2,4,2
106.53,0,3,13,2,4,0,2,3
106.53,9,1,26,1,4,1,0,3
106.54,1,0,4,1,4,6,1,2
106.55,0,2,27,3,1,0,0,5
106.55,1,2,12,1,1,1,1,1
106.56,3,2,33,2,1,2,1,5
106.56,1,2,34,3,2,1,2,2
106.56,14,3,7,11,3,3,3,5
106.57,4,1,50,8,5,3,5,11
106.58,2,4,1,7,4,1,9,11
106.58,9,8,20,11,6,5,6,11
106.58,8,4,11,6,1,3,3,0
106.59,3,4,28,13,0,2,1,15
106.59,6,0,4,1,3,2,1,3
106.6,0,3,25,7,0,0,2,1
106.61,5,5,31,8,3,1,2,10
106.61,11,10,41,1,2,3,1,16
106.61,4,2,15,3,2,3,1,2
106.62,2,9,28,4,0,1,1,11
106.62,3,1,7,0,1,3,0,16
106.63,1,6,14,7,4,5,4,27
106.64,12,4,10,3,5,4,8,19
106.64,8,11,17,6,4,5,8,22
106.64,9,15,14,4,2,1,2,1
106.65,0,0,7,8,10,4,9,14
106.66,0,9,34,13,11,6,5,20
106.66,9,9,18,4,0,6,5,34
106.67,15,43,76,48,14,5,7,16
106.67,6,21,45,23,8,1,11,87
106.67,13,8,20,4,0,7,26,52
106.68,2,1,55,18,2,2,12,21
106.69,6,11,103,11,3,0,7,23
106.69,8,5,23,2,2,3,1,18
106.69,2,2,23,11,0,2,7,8
106.7,9,3,25,6,1,1,5,3
106.7,5,12,25,9,4,2,5,16
106.71,7,5,23,8,4,3,2,39
106.72,1,2,38,5,8,6,7,12
106.72,12,17,35,9,1,4,1,8
106.72,1,16,18,3,2,3,4,4
106.73,2,23,17,10,3,0,4,28
106.73,9,12,54,12,1,4,8,16
106.74,3,8,14,1,5,0,1,9
106.75,2,0,4,1,5,6,3,6
106.75,7,21,75,12,4,5,5,24
106.75,4,15,93,24,9,7,6,17
106.76,3,7,8,5,3,2,2,3
106.77,7,12,36,12,6,1,0,2
106.77,10,6,9,3,5,3,2,14
106.78,1,3,8,8,6,2,4,8
106.78,1,1,9,8,9,4,2,3
106.78,17,5,14,2,1,2,3,3
106.79,4,9,20,7,2,3,3,8
106.8,12,2,20,6,6,3,1,8
106.8,2,2,3,1,9,2,2,2
106.81,4,0,6,6,2,0,0,2
106.81,0,4,19,9,2,3,1,7
106.81,1,1,13,7,3,1,2,2
106.82,2,2,4,0,3,3,1,4
106.83,12,7,14,3,4,1,3,3
106.83,7,5,20,9,4,1,2,3
106.83,1,1,15,5,3,0,2,4
106.84,1,0,7,2,2,3,1,3
106.84,6,2,3,28,9,3,0,2
106.85,3,5,16,19,13,2,1,4
106.86,0,0,9,8,5,1,2,5
106.86,6,0,3,4,6,5,2,1
106.86,2,1,1,7,3,0,0,3
106.87,13,4,9,13,5,1,2,0
106.88,1,2,2,0,5,4,2,3
106.88,0,2,7,5,1,0,1,2
106.89,10,1,14,4,1,2,0,2
106.89,2,3,6,11,4,0,1,2
106.89,11,3,6,10,2,3,2,2
106.9,3,1,2,23,9,3,2,1
106.91,5,3,18,2,5,4,0,2
106.91,4,3,34,10,3,2,1,1
106.92,4,0,10,0,2,1,1,2
106.92,2,4,17,12,2,0,2,1
106.92,1,3,11,7,2,1,1,0
106.93,5,0,0,12,10,4,2,1
106.94,4,2,17,8,1,1,1,3
106.94,5,3,0,10,4,2,2,1
106.94,1,0,11,5,1,1,1,2
106.95,3,1,26,1,0,2,0,1
106.95,1,2,3,4,3,5,1,2
106.96,2,1,0,2,4,3,3,2
106.97,2,1,5,0,3,0,2,0
106.97,10,2,15,0,3,0,1,1
106.97,3,2,21,1,2,0,1,1
106.98,0,2,7,9,4,2,0,1
106.98,2,1,9,6,2,2,1,1
106.99,0,0,6,3,4,3,0,1
107,3,4,4,3,1,1,0,3
107,3,2,8,1,1,1,1,3
107,6,5,12,1,1,1,1,2
107.01,7,2,5,1,1,2,3,2
107.02,10,5,1,2,3,3,2,3
107.02,0,2,4,1,2,1,2,2
107.03,1,3,4,8,4,1,0,1
107.03,5,1,2,10,1,1,0,3
107.03,1,5,16,3,4,1,2,2
107.04,0,4,3,10,6,5,2,0
107.05,4,3,14,1,3,2,1,1
107.05,4,0,12,3,2,1,1,2
107.06,2,2,8,9,2,0,2,2
107.06,1,3,15,16,8,4,3,2
107.06,1,8,12,23,10,1,0,1
107.07,3,0,5,5,7,2,0,1
107.08,1,3,9,2,2,0,1,0
107.08,2,3,15,2,1,2,1,2
107.08,5,0,1,11,5,0,2,1
107.09,2,6,6,3,0,0,0,0
107.09,3,4,8,1,5,2,0,2
107.1,4,1,15,5,3,0,1,0
107.11,6,0,7,3,1,0,0,0
107.11,5,0,6,3,1,1,1,3
107.11,13,2,2,3,2,2,3,3
107.12,1,1,2,6,4,1,1,2
107.12,3,2,4,4,3,1,3,2
107.13,3,3,6,4,2,3,2,1
107.14,5,1,1,2,4,2,1,3
107.14,2,2,4,4,1,1,0,2
107.14,4,2,2,11,7,4,0,1
107.15,0,1,19,7,5,2,1,0
107.16,3,2,3,5,1,0,1,3
107.16,4,2,3,2,0,2,1,2
107.17,3,0,1,2,7,1,1,3
107.17,4,7,27,7,1,1,0,1
107.17,3,4,26,9,3,1,1,0
107.18,2,1,6,6,1,1,1,0
107.19,1,4,2,0,2,3,3,3
107.19,3,2,1,2,0,2,0,2
107.19,1,5,8,4,1,1,0,2
107.2,1,0,1,7,4,1,2,2
107.2,6,6,7,2,4,2,3,1
107.21,4,3,7,1,1,0,2,1
107.22,4,2,5,7,6,1,0,2
107.22,1,2,30,6,1,1,1,1
107.22,7,4,1,1,2,0,1,1
107.23,1,2,2,1,2,0,1,1
107.23,1,0,3,3,4,1,2,1
107.24,1,1,3,3,0,0,1,1
107.25,2,2,3,3,3,1,0,2
107.25,2,2,1,3,4,2,0,3
107.25,2,0,6,2,0,1,0,1
107.26,2,1,20,3,1,1,1,0
107.27,1,2,0,2,1,0,1,2
107.27,0,1,8,2,2,1,0,0
107.28,1,1,1,2,6,3,4,2
107.28,2,2,3,5,1,1,1,1
107.28,2,2,12,9,3,1,1,0
