19.005,2,1,1,4,5,5,4,3
19.01,1,2,1,9,13,5,4,3
19.015,1,1,2,4,4,1,0,0
19.02,1,1,0,6,15,2,2,1
19.025,1,1,2,6,12,6,3,0
19.03,2,5,6,8,10,2,1,2
19.035,1,0,2,3,7,1,0,1
19.04,2,1,6,1,6,1,1,2
19.045,1,1,1,1,1,4,2,2
19.05,3,4,1,4,3,3,3,1
19.055,1,2,0,8,10,4,4,2
19.06,0,0,2,2,4,1,3,0
19.065,1,1,0,5,3,0,1,1
19.07,1,1,1,3,8,3,0,1
19.075,2,2,5,0,1,2,0,2
19.08,0,0,3,8,3,0,1,1
19.085,4,2,4,1,2,0,1,1
19.09,2,4,5,3,9,3,1,1
19.095,2,1,4,4,2,2,1,1
19.1,1,1,1,5,4,2,0,1
19.105,2,2,4,5,2,0,0,1
19.11,0,1,7,1,2,0,0,1
19.115,2,3,3,3,7,4,1,1
19.12,1,2,1,4,8,2,0,0
19.125,1,0,5,1,5,1,2,0
19.13,0,0,2,4,4,1,2,0
19.135,1,1,3,1,6,0,1,2
19.14,3,4,5,4,2,3,1,2
19.145,1,1,1,6,5,1,1,2
19.15,1,2,2,3,1,3,1,0
19.155,0,1,3,2,6,1,1,1
19.16,2,1,3,3,10,3,2,0
19.165,0,1,1,2,2,1,0,0
19.17,2,0,9,4,6,0,0,2
19.175,0,3,18,5,3,0,2,1
19.18,3,0,5,2,5,0,2,0
19.185,0,1,2,0,3,3,0,1
19.19,3,6,14,3,1,4,2,1
19.195,0,1,9,1,1,2,0,1
19.2,2,1,0,3,6,4,2,2
19.205,2,2,0,1,1,1,5,3
19.21,2,2,8,8,3,2,0,0
19.215,5,4,8,9,6,4,2,0
19.22,2,0,3,1,6,3,1,1
19.225,0,1,4,2,4,2,1,1
19.23,1,3,7,3,2,1,1,2
19.235,1,0,4,6,2,3,1,2
19.24,1,1,2,3,1,2,2,1
19.245,1,3,4,2,3,7,4,1
19.25,0,1,6,6,9,6,2,2
19.255,0,2,12,6,5,1,1,0
19.26,3,4,13,2,1,1,0,1
19.265,3,3,7,7,3,0,2,1
19.27,2,4,14,14,17,7,5,2
19.275,1,2,0,3,2,3,1,0
19.28,0,0,4,7,4,3,1,2
19.285,0,2,0,2,1,1,2,1
19.29,1,4,11,6,4,3,0,1
19.295,2,2,11,9,5,2,1,1
19.3,2,3,3,3,4,3,5,2
19.305,0,0,9,0,8,1,2,0
19.31,1,0,15,7,2,2,2,0
19.315,2,5,27,10,6,5,2,5
19.32,0,3,4,5,0,0,1,1
19.325,1,4,4,14,0,2,4,3
19.33,2,3,13,0,3,3,3,2
19.335,1,1,7,2,10,5,0,1
19.34,1,2,1,5,3,3,1,3
19.345,1,4,16,11,6,1,2,2
19.35,1,1,13,1,6,3,2,2
19.355,7,9,8,16,2,3,5,3
19.36,1,2,8,7,17,8,2,1
19.365,1,3,6,8,4,2,6,4
19.37,0,1,2,4,7,4,2,2
19.375,2,1,1,10,3,1,0,1
19.38,1,1,8,4,4,4,4,2
19.385,0,3,5,6,0,0,4,1
19.39,1,7,4,3,5,5,4,3
19.395,4,11,9,21,2,3,8,8
19.4,4,3,22,6,7,5,12,7
19.405,5,6,7,16,18,4,5,4
19.41,2,4,0,9,11,0,7,2
19.415,10,8,54,28,14,17,29,15
19.42,13,2,46,3,2,6,0,8
19.425,10,0,37,6,0,8,39,5
19.43,3,9,51,41,12,3,13,3
19.435,19,2,1,22,6,1,16,4
19.44,29,0,3,3,1,0,17,10
19.445,26,21,84,54,7,15,37,37
19.45,24,29,55,65,7,2,2,25
19.455,27,4,19,4,3,15,53,60
19.46,7,8,13,1,10,1,13,27
19.465,0,20,57,7,8,4,51,42
19.47,1,19,81,45,2,10,33,22
19.475,23,23,106,41,7,4,75,74
19.48,71,1,55,15,3,2,33,25
19.485,0,35,0,44,19,12,23,39
19.49,73,28,29,48,21,17,65,94
19.495,9,28,30,34,20,39,106,45
19.5,17,79,47,62,51,70,108,63
19.505,20,33,82,2,4,7,97,43
19.51,19,2,46,18,17,17,47,21
19.515,41,12,104,42,2,22,83,46
19.52,14,29,128,27,8,12,41,91
19.525,17,36,108,47,29,31,37,11
19.53,81,35,30,77,33,38,75,89
19.535,4,61,74,12,4,6,29,72
19.54,18,49,42,26,9,11,0,19
19.545,25,29,65,28,11,12,2,29
19.55,11,40,127,67,13,10,53,65
19.555,23,42,102,68,14,13,57,9
19.56,60,103,121,84,48,28,49,13
19.565,74,98,109,97,56,37,109,36
19.57,34,24,14,25,13,4,38,54
19.575,55,38,28,10,18,19,23,15
19.58,31,36,86,64,35,22,19,2
19.585,1,12,128,74,16,7,3,6
19.59,3,6,12,37,5,13,2,3
19.595,41,10,2,12,2,16,13,29
19.6,26,5,10,61,25,4,43,59
19.605,20,17,23,57,27,13,1,27
19.61,34,71,6,86,45,22,58,39
19.615,63,91,39,72,32,9,98,27
19.62,7,35,6,25,4,0,9,15
19.625,34,70,96,69,22,17,19,58
19.63,48,71,1,45,26,31,16,76
19.635,1,16,88,9,16,18,70,33
19.64,22,13,18,6,3,7,3,8
19.645,27,58,118,62,14,6,1,18
19.65,6,22,69,19,17,8,4,11
19.655,13,14,28,4,16,15,30,43
19.66,9,26,46,11,11,10,21,14
19.665,21,50,17,6,4,1,39,11
19.67,2,50,63,24,19,6,18,11
19.675,15,20,44,28,28,9,25,0
19.68,2,5,26,56,18,10,26,56
19.685,24,30,83,54,24,15,32,21
19.69,9,15,51,56,30,10,24,5
19.695,20,42,21,37,23,12,27,50
19.7,3,7,18,18,7,11,23,15
19.705,23,43,26,13,4,3,21,63
19.71,13,1,8,12,2,1,17,9
19.715,22,37,47,47,6,1,3,3
19.72,15,5,24,28,12,9,6,6
19.725,5,46,127,63,11,2,6,13
19.73,16,8,54,75,19,19,33,62
19.735,7,27,25,27,9,11,18,36
19.74,4,26,73,43,21,6,17,46
19.745,6,66,87,21,15,8,32,11
19.75,11,16,81,5,0,5,74,48
19.755,9,30,99,7,7,2,93,38
19.76,1,6,29,1,3,1,20,10
19.765,4,12,19,22,1,0,12,1
19.77,24,31,42,25,21,10,3,0
19.775,12,12,19,5,14,10,24,17
19.78,7,3,18,4,0,2,19,7
19.785,2,15,18,0,6,0,21,9
19.79,9,4,5,6,2,1,8,46
19.795,5,6,24,2,11,4,2,46
19.8,14,26,23,31,17,14,9,59
19.805,8,9,80,5,3,6,13,3
19.81,12,8,45,14,0,3,33,3
19.815,43,20,57,82,35,23,2,17
19.82,1,12,62,21,1,5,21,1
19.825,27,18,32,48,33,18,14,4
19.83,15,37,13,25,23,19,16,12
19.835,30,67,38,59,19,11,6,41
19.84,10,60,30,51,18,6,10,42
19.845,30,8,4,3,7,5,12,3
19.85,9,13,15,18,10,4,15,42
19.855,5,19,8,23,5,0,30,4
19.86,22,24,32,23,6,7,3,37
19.865,9,3,56,1,7,1,4,19
19.87,20,13,34,11,4,6,25,7
19.875,18,17,20,4,1,7,34,8
19.88,19,1,73,5,12,12,27,5
19.885,4,4,43,13,1,3,5,20
19.89,1,23,22,5,12,4,19,28
19.895,6,21,50,9,7,4,7,50
19.9,21,13,70,25,6,6,12,44
19.905,10,20,90,60,15,14,7,11
19.91,2,13,10,4,4,2,15,28
19.915,43,22,40,35,9,4,14,5
19.92,34,13,47,27,5,4,16,2
19.925,12,5,2,12,7,5,3,17
19.93,6,4,22,24,5,1,3,3
19.935,9,18,13,6,12,4,2,4
19.94,6,38,25,33,22,13,4,15
19.945,1,11,52,47,14,10,5,1
19.95,7,26,35,56,28,16,17,19
19.955,23,59,50,51,23,14,12,14
19.96,15,24,51,8,4,7,5,31
19.965,3,8,66,13,8,7,11,38
19.97,16,14,3,45,17,8,20,23
19.975,6,9,3,5,2,1,3,10
19.98,7,17,29,22,5,2,22,11
19.985,12,36,29,47,15,10,29,53
19.99,9,27,14,28,4,3,29,10
19.995,4,44,73,37,11,11,86,10
20,18,4,23,30,4,2,33,29
20.005,2,29,27,10,12,6,10,7
20.01,21,9,66,47,22,14,20,8
20.015,45,43,104,68,40,28,14,37
20.02,6,1,14,3,1,3,17,3
20.025,21,10,10,16,5,9,1,19
20.03,8,17,68,5,2,3,29,8
20.035,1,10,22,20,7,7,33,21
20.04,22,13,7,20,5,5,31,22
20.045,14,37,54,39,7,3,26,11
20.05,17,29,34,53,4,6,27,18
20.055,8,20,73,41,15,13,28,14
20.06,1,13,40,33,24,11,6,28
20.065,24,32,116,56,33,9,39,8
20.07,24,58,76,90,33,20,8,0
20.075,4,17,52,11,6,10,15,2
20.08,23,32,107,41,20,8,4,22
20.085,40,62,59,51,40,22,13,47
20.09,6,34,24,23,1,1,20,10
20.095,5,2,0,6,6,2,5,8
20.1,11,10,4,11,7,9,9,16
20.105,5,4,37,6,7,1,3,6
20.11,14,6,16,56,18,12,17,3
20.115,2,29,40,56,18,9,5,2
20.12,3,3,2,35,16,8,6,3
20.125,3,28,45,25,7,8,8,14
20.13,4,1,59,9,7,1,9,5
20.135,3,9,42,23,2,2,11,19
20.14,5,10,44,22,3,3,3,24
20.145,9,5,6,18,10,5,16,6
20.15,11,38,39,4,2,2,9,8
20.155,10,18,12,19,1,1,2,22
20.16,3,3,1,6,3,1,8,1
20.165,9,5,76,2,2,1,13,11
20.17,1,15,52,11,7,7,5,17
20.175,8,10,40,4,0,1,5,4
20.18,5,2,30,13,7,2,2,0
20.185,6,4,10,13,18,2,9,11
20.19,1,2,14,1,4,1,7,2
20.195,3,2,5,6,3,0,4,5
20.2,5,14,5,4,5,3,1,2
20.205,1,1,19,18,8,3,4,3
20.21,17,20,17,15,9,6,3,2
20.215,2,10,66,62,20,3,5,5
20.22,2,0,19,4,4,3,3,3
20.225,3,1,23,31,18,8,4,3
20.23,3,1,16,8,14,4,2,2
20.235,5,10,11,1,5,1,1,0
20.24,2,2,22,4,1,2,6,2
20.245,16,9,2,4,5,2,3,2
20.25,3,4,26,7,3,0,3,2
20.255,0,1,19,16,3,1,1,5
20.26,3,1,19,5,6,4,7,2
20.265,7,10,10,7,6,4,6,8
20.27,3,7,7,21,10,7,3,5
20.275,5,9,12,14,17,10,5,4
20.28,2,1,9,7,6,3,2,3
20.285,5,3,27,82,22,8,2,2
20.29,2,2,0,12,14,2,0,1
20.295,3,2,8,19,8,2,0,4
20.3,1,5,3,0,3,4,1,3
20.305,1,0,11,19,1,0,2,2
20.31,5,4,27,14,6,6,3,1
20.315,0,3,29,5,8,2,2,0
20.32,0,1,17,9,2,0,2,2
20.325,9,21,51,34,11,4,3,4
20.33,21,43,75,61,26,15,10,11
20.335,1,4,38,7,1,4,0,1
20.34,3,2,1,2,1,3,4,3
20.345,2,3,2,15,3,0,0,0
20.35,6,13,23,15,3,4,3,2
20.355,5,6,18,21,3,3,1,1
20.36,11,12,5,1,6,4,5,3
20.365,5,20,22,7,6,3,4,5
20.37,6,4,1,8,11,3,1,2
20.375,16,15,11,0,1,3,4,4
20.38,5,3,6,1,8,2,3,1
20.385,2,6,0,13,1,5,0,1
20.39,10,0,5,2,2,1,3,3
20.395,9,6,16,17,8,1,2,0
20.4,3,7,11,12,2,1,1,5
20.405,1,2,12,20,6,1,0,4
20.41,6,16,32,9,6,2,4,3
20.415,31,3,12,2,0,3,4,14
20.42,16,62,30,7,12,8,9,12
20.425,2,14,63,34,11,6,3,4
20.43,10,11,9,5,4,1,1,6
20.435,25,20,15,19,11,6,6,10
20.44,9,17,15,2,2,2,1,2
20.445,1,0,83,23,3,4,3,3
20.45,7,26,26,17,8,0,1,6
20.455,3,17,2,1,1,0,0,2
20.46,0,7,11,1,2,2,0,1
20.465,3,11,10,3,4,1,0,2
20.47,1,4,4,20,4,2,1,0
20.475,2,7,13,7,0,1,2,2
20.48,2,13,1,4,3,1,2,4
20.485,0,4,10,12,3,1,0,0
20.49,7,4,21,1,4,3,3,5
20.495,2,10,16,17,8,3,2,2
20.5,6,5,0,4,3,7,2,2
20.505,4,6,24,7,1,3,2,5
20.51,6,5,36,4,9,7,1,2
20.515,5,5,23,6,14,4,1,3
20.52,5,3,23,3,2,1,2,4
20.525,2,2,11,8,5,1,2,1
20.53,4,7,13,5,4,8,2,0
20.535,0,3,1,13,12,7,2,1
20.54,2,4,3,7,8,3,2,4
20.545,3,0,15,14,3,1,2,1
20.55,9,6,18,5,15,11,5,5
20.555,6,13,8,6,9,6,5,5
20.56,0,3,9,9,5,3,2,1
20.565,2,9,34,28,8,2,1,0
20.57,2,3,38,5,1,0,2,0
20.575,5,8,4,10,5,3,3,4
20.58,1,5,6,6,9,2,0,1
20.585,2,6,2,12,9,4,3,1
20.59,1,3,2,5,2,1,0,2
20.595,1,6,20,8,1,3,1,0
20.6,3,10,36,12,9,6,2,3
20.605,6,7,24,10,3,0,2,2
20.61,2,0,9,5,7,2,1,3
20.615,2,9,30,8,1,3,1,2
20.62,3,5,18,18,0,3,0,1
20.625,5,11,12,34,0,1,1,2
20.63,4,6,4,5,12,7,5,4
20.635,1,1,6,1,5,2,0,2
20.64,0,3,28,12,14,4,1,2
20.645,0,1,2,6,5,2,2,0
20.65,0,2,20,5,8,3,2,0
20.655,2,12,51,25,10,9,7,5
20.66,2,1,23,5,5,2,0,3
20.665,0,2,24,6,2,3,2,1
20.67,0,3,22,7,1,3,3,1
20.675,0,1,13,9,0,1,0,1
20.68,4,10,38,22,3,2,2,2
20.685,2,0,4,0,1,5,3,1
20.69,2,1,5,1,3,2,1,2
20.695,1,3,6,3,1,2,1,2
20.7,5,2,0,0,1,1,2,2
20.705,3,3,8,10,2,1,2,0
20.71,2,7,1,1,11,5,3,3
20.715,1,3,6,2,5,3,2,1
20.72,0,1,22,7,3,0,1,1
20.725,1,1,2,1,0,4,2,2
20.73,0,2,13,0,1,2,4,0
20.735,6,8,35,9,8,7,2,3
20.74,1,3,20,11,5,2,2,2
20.745,1,1,5,1,1,3,4,0
20.75,4,9,14,9,6,1,1,4
20.755,2,1,19,2,2,1,1,0
20.76,1,3,28,1,7,2,2,0
20.765,2,2,19,3,8,0,0,0
20.77,2,2,5,7,3,2,1,0
20.775,6,12,37,12,7,2,0,3
20.78,15,31,53,42,22,10,8,8
20.785,2,3,2,6,5,1,1,2
20.79,5,8,8,2,5,3,1,0
20.795,2,1,35,4,3,3,3,3
20.8,5,15,39,23,8,2,2,4
20.805,3,8,12,6,4,4,1,4
20.81,5,10,59,22,9,4,4,2
20.815,2,8,30,9,2,2,2,2
20.82,2,5,21,10,4,2,3,1
20.825,5,5,0,0,4,5,1,1
20.83,0,6,8,1,1,0,1,0
20.835,1,1,11,1,1,3,4,0
20.84,4,6,13,3,2,4,7,4
20.845,1,1,14,1,0,6,7,0
20.85,1,8,34,6,6,3,9,2
20.855,0,3,5,0,1,0,5,5
20.86,6,6,10,13,14,4,5,5
20.865,1,1,13,4,1,1,8,22
20.87,3,6,14,1,5,1,3,29
20.875,3,8,31,0,0,0,5,7
20.88,20,8,17,14,15,1,4,6
20.885,23,2,14,10,9,9,5,3
20.89,2,7,56,14,6,2,6,16
20.895,8,11,26,5,6,1,1,2
20.9,6,10,3,3,1,2,3,1
20.905,10,3,11,13,10,7,5,3
20.91,6,9,1,14,11,2,5,2
20.915,1,3,35,8,1,8,4,4
20.92,13,11,3,6,4,3,5,3
20.925,7,7,7,5,3,0,2,5
20.93,2,1,2,12,6,6,2,1
20.935,12,4,21,15,7,1,2,15
20.94,1,5,30,9,0,6,4,0
20.945,3,1,1,7,2,2,3,8
20.95,5,4,43,2,8,1,1,14
20.955,2,1,27,5,1,2,7,13
20.96,9,6,20,25,9,5,7,14
20.965,1,3,13,2,5,2,0,4
20.97,17,6,10,14,9,5,5,4
20.975,17,9,8,1,3,3,4,31
20.98,3,3,2,14,6,8,12,19
20.985,20,8,15,17,5,7,23,34
20.99,24,31,20,38,21,30,3,1
20.995,7,4,15,9,2,1,4,9
21,7,5,25,3,1,3,1,11
21.005,1,6,19,14,2,4,1,1
21.01,2,11,32,17,10,9,2,3
21.015,10,3,30,14,4,2,11,5
21.02,11,1,36,6,4,2,31,27
21.025,32,2,9,0,5,1,17,19
21.03,12,16,100,56,19,12,34,42
21.035,13,10,42,16,7,9,4,38
21.04,15,2,76,25,11,11,10,15
21.045,2,1,71,17,7,6,8,11
21.05,6,6,62,20,6,6,20,12
21.055,5,21,95,18,10,17,18,12
21.06,35,33,83,25,12,6,38,47
21.065,16,38,71,31,17,12,38,20
21.07,7,8,59,2,2,1,23,52
21.075,1,10,14,15,10,11,7,9
21.08,6,28,3,14,20,18,6,6
21.085,13,35,64,18,10,4,21,21
21.09,12,35,83,2,4,5,7,25
21.095,27,16,11,3,3,3,31,37
21.1,13,2,2,8,5,2,47,6
21.105,6,15,44,23,5,6,1,22
21.11,1,11,9,16,5,7,1,6
21.115,10,9,5,1,0,0,11,12
21.12,16,0,14,15,3,2,8,13
21.125,5,29,89,42,12,8,5,1
21.13,2,23,89,21,9,5,4,2
21.135,3,18,65,4,2,0,1,28
21.14,2,9,26,4,4,3,16,19
21.145,14,34,96,31,9,3,11,8
21.15,6,42,103,40,24,10,0,18
21.155,15,4,47,10,11,6,1,23
21.16,13,6,55,16,10,2,1,3
21.165,37,10,22,41,8,5,1,21
21.17,14,9,98,69,10,6,15,25
21.175,13,10,65,69,26,10,8,31
21.18,20,22,9,20,6,2,17,28
21.185,21,6,47,6,21,4,61,19
21.19,27,19,81,62,12,16,68,17
21.195,12,51,80,88,31,21,50,95
21.2,25,33,68,52,21,3,21,0
21.205,28,6,19,65,35,10,46,2
21.21,37,33,52,45,35,19,48,48
21.215,18,17,76,22,14,9,20,28
21.22,47,97,19,63,23,14,5,72
21.225,15,37,7,42,26,38,17,47
21.23,32,13,73,15,1,6,83,55
21.235,24,6,34,21,12,4,70,40
21.24,17,17,28,38,6,3,27,44
21.245,19,52,95,34,9,11,22,79
21.25,19,65,39,49,16,10,0,46
21.255,31,60,58,101,26,7,27,39
21.26,0,22,107,10,7,0,7,62
21.265,37,2,37,25,18,14,59,49
21.27,17,31,85,30,11,11,48,102
21.275,13,19,69,13,2,12,14,110
21.28,5,25,49,30,4,4,37,21
21.285,10,1,58,28,11,10,4,18
21.29,13,43,58,1,21,17,53,18
21.295,20,23,37,39,6,4,61,52
21.3,7,28,53,41,16,6,9,15
21.305,61,117,128,94,52,36,35,42
21.31,64,77,30,77,37,21,35,24
21.315,16,12,112,5,6,0,64,109
21.32,2,27,87,23,12,0,5,10
21.325,19,28,66,51,21,17,10,20
21.33,12,41,109,50,2,2,24,20
21.335,43,80,69,51,12,13,3,69
21.34,52,79,25,4,11,18,64,46
21.345,0,58,27,2,9,2,43,82
21.35,26,88,66,45,38,29,13,30
21.355,67,54,48,82,72,53,8,40
21.36,7,31,65,38,7,3,12,23
21.365,38,60,87,88,45,33,29,31
21.37,30,59,1,64,39,23,32,63
21.375,31,5,32,11,23,12,0,37
21.38,59,68,92,62,25,22,20,57
21.385,28,40,124,96,25,18,3,21
21.39,28,23,111,100,27,21,28,36
21.395,3,24,77,10,4,1,21,34
21.4,9,2,27,8,3,3,26,12
21.405,12,36,54,46,15,7,4,42
21.41,20,16,46,13,5,8,10,62
21.415,18,19,57,0,1,7,18,9
21.42,29,20,14,12,28,20,21,42
21.425,17,24,57,7,13,7,9,27
21.43,9,15,24,1,8,6,21,62
21.435,6,12,96,9,8,1,21,64
21.44,10,0,65,15,16,17,30,15
21.445,45,56,21,43,27,15,36,22
21.45,53,61,81,40,28,9,23,63
21.455,3,20,70,2,7,1,25,29
21.46,20,18,39,58,21,17,81,40
21.465,16,19,2,37,28,25,81,11
21.47,41,50,24,42,11,9,20,27
21.475,15,24,53,26,12,10,35,4
21.48,8,14,111,15,1,0,8,12
21.485,16,39,86,48,13,9,30,23
21.49,21,41,10,37,18,17,33,10
21.495,19,5,5,4,14,18,42,44
21.5,16,33,66,24,9,7,25,71
21.505,17,23,44,1,6,5,22,63
21.51,11,20,113,41,22,12,22,56
21.515,19,40,11,16,20,18,27,7
21.52,5,25,16,41,15,8,26,33
21.525,2,17,20,16,4,2,5,28
21.53,6,3,56,9,3,5,11,17
21.535,2,17,76,32,23,14,35,63
21.54,13,35,45,21,29,19,5,30
21.545,15,19,6,43,2,3,17,0
21.55,25,78,100,9,16,21,28,25
21.555,2,2,63,8,8,12,35,8
21.56,27,23,11,26,5,6,28,79
21.565,18,30,30,1,10,8,3,51
21.57,11,8,9,14,6,8,5,10
21.575,23,55,69,92,52,27,33,4
21.58,25,98,78,90,72,47,3,37
21.585,14,52,22,59,13,4,33,64
21.59,10,29,64,34,18,9,16,15
21.595,0,11,15,31,17,14,11,19
21.6,34,54,56,64,30,18,47,72
21.605,16,50,80,81,21,8,21,36
21.61,12,2,28,17,2,0,9,1
21.615,11,5,2,20,16,7,11,42
21.62,15,23,73,12,9,9,1,18
21.625,4,13,40,7,9,4,36,9
21.63,7,12,79,10,13,7,46,10
21.635,96,48,15,53,28,23,66,77
21.64,27,1,39,47,26,17,0,40
21.645,3,4,38,7,6,10,13,15
21.65,12,5,6,0,15,6,2,33
21.655,33,34,101,32,16,2,20,11
21.66,15,21,57,39,4,1,25,1
21.665,0,15,3,20,8,8,52,47
21.67,17,26,22,8,2,3,4,25
21.675,4,18,71,11,13,8,17,12
21.68,5,7,18,24,11,9,19,32
21.685,15,15,27,25,6,7,29,52
21.69,23,36,12,47,25,18,14,27
21.695,22,18,44,37,15,12,22,3
21.7,5,16,36,12,3,6,43,10
21.705,34,20,32,38,15,5,36,1
21.71,19,52,47,52,21,7,45,12
21.715,25,13,24,22,25,11,11,5
21.72,0,11,68,16,2,5,9,19
21.725,8,23,63,33,8,14,64,12
21.73,17,52,61,25,7,10,23,79
21.735,1,23,24,0,1,5,59,25
21.74,16,22,40,17,2,3,23,4
21.745,7,32,51,22,6,2,13,10
21.75,8,35,26,17,8,3,26,10
21.755,16,6,63,36,11,6,18,13
21.76,14,0,17,12,21,17,47,25
21.765,14,22,37,2,4,11,12,17
21.77,40,4,31,18,5,5,2,10
21.775,7,36,37,4,14,9,12,35
21.78,13,37,8,32,12,5,8,15
21.785,22,52,56,38,24,15,6,14
21.79,1,3,29,6,9,8,7,40
21.795,4,9,39,5,2,7,23,41
21.8,13,0,42,3,2,1,2,2
21.805,27,55,1,24,12,15,29,11
21.81,16,11,15,16,6,4,26,33
21.815,1,8,21,14,2,6,51,53
21.82,3,13,66,44,14,7,2,14
21.825,52,78,39,49,16,11,32,15
21.83,46,6,14,16,8,8,67,11
21.835,39,34,35,47,24,4,25,27
21.84,5,12,5,20,13,9,15,33
21.845,11,6,35,10,10,3,13,55
21.85,1,5,41,18,14,9,26,27
21.855,40,35,71,52,26,16,17,5
21.86,36,84,73,89,38,25,21,19
21.865,33,38,54,52,19,20,3,53
21.87,24,63,41,49,12,3,41,14
21.875,2,2,6,7,1,7,46,51
21.88,14,60,96,78,27,19,10,1
21.885,14,25,64,54,34,22,11,35
21.89,3,24,49,34,10,9,6,25
21.895,27,43,124,38,21,14,7,3
21.9,8,29,13,65,13,11,6,10
21.905,3,7,22,9,3,0,10,10
21.91,1,12,14,17,0,3,22,6
21.915,4,12,4,32,12,7,31,37
21.92,1,2,21,28,4,0,2,17
21.925,7,5,6,5,5,1,10,24
21.93,14,13,11,14,2,2,4,5
21.935,18,11,36,12,5,2,17,6
21.94,18,28,23,7,11,1,16,6
21.945,2,2,6,3,1,14,2,14
21.95,8,10,45,33,14,6,3,4
21.955,5,11,12,40,26,13,3,7
21.96,12,2,12,26,9,7,9,2
21.965,2,2,48,1,4,3,2,6
21.97,7,7,2,29,8,7,12,13
21.975,2,7,26,24,7,2,9,9
21.98,2,1,33,21,6,2,6,2
21.985,9,13,23,22,4,1,0,2
21.99,3,1,19,28,20,7,7,1
21.995,7,10,24,15,4,1,3,5
22,9,13,44,38,11,3,0,4
22.005,9,11,3,13,9,4,5,4
22.01,8,19,54,9,2,4,6,4
22.015,2,0,21,6,7,4,4,7
22.02,1,8,2,19,6,1,6,8
22.025,1,3,11,12,3,3,2,7
22.03,3,4,46,42,16,6,1,1
22.035,2,3,66,7,8,8,1,7
22.04,0,2,1,27,2,4,5,1
22.045,4,6,13,24,14,8,1,0
22.05,1,7,15,5,7,3,4,1
22.055,1,1,6,58,25,5,1,4
22.06,0,3,12,49,16,10,5,2
22.065,3,6,1,19,8,1,4,12
22.07,1,0,22,41,14,7,0,2
22.075,1,7,8,21,1,2,0,1
22.08,3,7,15,2,2,1,1,1
22.085,1,6,1,15,10,8,0,9
22.09,2,0,17,11,11,6,5,4
22.095,3,14,19,30,7,1,1,4
22.1,2,9,20,23,8,0,0,3
22.105,2,0,20,6,7,2,6,5
22.11,2,10,67,1,0,2,1,0
22.115,5,3,22,10,3,1,4,3
22.12,1,2,18,4,1,3,3,2
22.125,2,2,4,1,6,3,2,6
22.13,0,3,12,0,3,0,14,0
22.135,5,3,36,2,5,10,27,4
22.14,1,9,36,17,8,3,6,10
22.145,0,1,53,9,6,3,7,3
22.15,4,5,7,1,4,5,2,4
22.155,4,14,54,10,1,0,7,0
22.16,6,20,24,15,7,2,3,1
22.165,1,7,9,14,10,0,1,3
22.17,5,5,23,5,4,6,1,1
22.175,0,4,9,7,5,2,5,0
22.18,6,16,27,19,8,6,0,5
22.185,4,11,28,6,1,1,3,4
22.19,7,20,19,2,6,9,10,23
22.195,2,9,17,22,14,1,4,24
22.2,13,8,3,15,8,1,7,19
22.205,2,4,37,16,1,3,6,5
22.21,6,4,21,3,6,4,35,7
22.215,2,21,49,22,4,2,32,10
22.22,2,1,1,3,5,2,2,3
22.225,6,5,8,1,0,2,6,4
22.23,2,2,20,7,6,8,18,10
22.235,8,7,22,19,6,4,29,26
22.24,8,2,10,8,2,0,9,12
22.245,7,21,18,6,6,6,21,12
22.25,1,4,8,2,0,2,1,3
22.255,2,5,9,11,10,2,0,0
22.26,6,4,41,0,18,11,1,2
22.265,2,1,18,5,1,0,8,3
22.27,6,9,2,6,9,10,3,3
22.275,1,0,13,2,1,0,9,3
22.28,5,3,12,2,3,2,4,2
22.285,17,14,34,8,16,12,15,3
22.29,6,4,26,7,2,2,16,30
22.295,14,13,29,8,9,2,4,7
22.3,22,22,72,20,13,6,2,3
22.305,4,5,6,7,4,1,3,1
22.31,7,2,25,3,0,1,3,3
22.315,0,6,18,10,4,1,1,1
22.32,8,12,5,0,1,1,4,5
22.325,7,20,49,22,6,3,4,3
22.33,1,6,29,8,3,2,6,2
22.335,6,11,25,11,7,4,3,4
22.34,4,5,18,1,1,2,4,0
22.345,9,14,30,14,8,7,9,10
22.35,13,7,2,3,3,3,11,30
22.355,5,8,27,4,1,4,1,7
22.36,2,2,24,17,4,3,3,0
22.365,6,13,22,18,3,4,3,4
22.37,6,14,31,19,16,12,9,6
22.375,5,5,22,9,7,5,0,0
22.38,2,5,13,4,9,2,2,10
22.385,6,2,8,17,5,6,6,1
22.39,1,1,21,6,0,2,8,8
22.395,5,8,22,9,5,4,2,6
22.4,6,4,13,4,4,3,5,7
22.405,14,10,29,28,6,0,4,6
22.41,6,4,3,1,0,0,2,8
22.415,9,7,32,3,3,5,4,6
22.42,6,6,15,1,8,2,1,5
22.425,0,2,26,7,4,5,1,7
22.43,2,0,22,1,0,0,0,7
22.435,1,10,55,29,11,1,2,2
22.44,0,5,14,10,9,1,1,9
22.445,2,2,21,0,2,3,3,2
22.45,9,9,16,11,6,15,10,24
22.455,10,13,2,2,9,14,20,3
22.46,5,8,5,17,8,2,10,5
22.465,3,14,11,8,2,0,4,2
22.47,3,5,3,1,0,6,6,1
22.475,5,3,26,1,0,3,0,4
22.48,1,1,0,1,0,3,1,4
22.485,6,2,8,10,1,1,0,1
22.49,8,15,30,8,5,9,9,0
22.495,1,8,11,3,3,6,7,1
22.5,1,6,8,3,1,2,3,1
22.505,1,9,37,4,0,1,4,5
22.51,3,3,0,3,4,2,5,3
22.515,9,6,28,12,5,0,3,4
22.52,8,11,57,18,4,4,6,9
22.525,3,8,8,5,4,4,4,7
22.53,1,10,51,19,4,3,3,5
22.535,2,15,59,37,3,1,4,2
22.54,4,7,26,6,8,1,2,9
22.545,0,2,2,3,1,4,3,7
22.55,2,7,37,19,3,0,4,8
22.555,0,9,15,19,6,1,0,3
22.56,0,9,14,6,3,4,4,4
22.565,8,9,19,8,7,2,7,10
22.57,2,2,19,0,2,1,3,7
22.575,5,1,20,0,8,2,2,6
22.58,0,0,16,2,0,1,2,5
22.585,1,3,18,11,3,3,2,5
22.59,1,1,17,3,1,1,1,5
22.595,7,3,37,9,3,0,3,6
22.6,3,4,24,9,1,3,7,2
22.605,3,2,21,7,5,0,5,4
22.61,4,8,37,11,5,5,6,6
22.615,0,8,34,19,14,10,5,1
22.62,6,9,31,12,5,3,4,3
22.625,3,2,14,2,1,5,7,1
22.63,5,4,12,16,8,4,0,9
22.635,2,9,7,6,6,1,2,2
22.64,4,3,8,1,3,4,18,11
22.645,4,8,4,1,1,4,0,1
22.65,3,9,6,2,2,4,19,1
22.655,0,7,16,1,9,3,10,0
22.66,7,2,23,6,1,1,6,0
22.665,16,18,29,19,11,4,1,14
22.67,1,3,18,8,3,0,3,3
22.675,3,7,5,10,1,2,9,3
22.68,6,8,16,14,12,5,4,6
22.685,0,1,16,0,5,2,2,1
22.69,1,4,20,12,8,3,1,6
22.695,6,13,34,12,2,1,1,5
22.7,1,6,25,1,2,3,2,2
22.705,3,1,9,0,4,4,7,5
22.71,11,11,0,19,7,5,10,17
22.715,4,8,9,0,3,6,3,3
22.72,1,2,9,1,7,2,6,2
22.725,2,6,6,7,6,4,2,3
22.73,2,8,41,16,6,6,9,4
22.735,2,11,17,8,3,1,4,2
22.74,8,12,50,21,11,10,14,11
22.745,1,5,3,3,1,3,0,2
22.75,6,5,1,5,1,4,8,7
22.755,7,9,22,5,7,3,2,2
22.76,0,2,15,5,8,3,1,5
22.765,3,1,16,0,1,3,1,8
22.77,0,9,37,5,8,4,2,3
22.775,6,7,20,11,11,5,11,2
22.78,1,2,9,4,3,3,6,9
22.785,3,0,3,1,3,1,3,6
22.79,2,5,12,8,6,2,2,2
22.795,6,1,27,13,1,0,5,14
22.8,17,16,66,16,4,3,3,17
22.805,2,0,6,10,6,1,5,3
22.81,4,2,3,5,4,1,4,11
22.815,1,2,16,4,4,5,3,11
22.82,8,3,34,20,10,5,6,8
22.825,4,4,58,22,3,8,1,20
22.83,0,8,5,14,11,2,4,3
22.835,10,0,20,6,2,4,1,19
22.84,2,0,22,31,13,5,1,2
22.845,3,5,44,16,5,4,0,16
22.85,11,17,47,1,2,3,22,11
22.855,14,20,49,24,12,2,16,5
22.86,9,7,23,3,0,1,8,2
22.865,1,5,37,26,9,8,4,15
22.87,1,20,55,7,2,5,17,33
22.875,3,14,5,11,5,1,0,14
22.88,4,1,6,1,2,3,21,4
22.885,4,2,6,4,3,2,23,12
22.89,12,5,24,1,5,1,7,8
22.895,19,2,10,13,3,2,13,18
22.9,5,32,94,25,5,3,6,0
22.905,12,44,67,59,18,9,4,19
22.91,15,21,8,26,8,5,2,28
22.915,6,15,57,13,3,1,12,13
22.92,4,4,44,19,7,5,2,20
22.925,17,13,91,33,13,7,35,26
22.93,27,20,86,15,5,7,37,0
22.935,43,43,89,32,14,11,11,54
22.94,21,58,14,66,28,20,9,18
22.945,3,6,53,13,5,5,14,28
22.95,21,27,78,34,3,3,14,26
22.955,13,22,8,16,6,5,34,33
22.96,32,3,10,13,1,8,37,13
22.965,4,14,78,34,2,11,72,44
22.97,27,4,46,49,8,8,46,37
22.975,12,21,120,8,6,8,4,49
22.98,16,53,127,74,21,13,28,1
22.985,12,84,104,113,50,33,26,67
22.99,25,20,74,54,23,25,30,60
22.995,45,24,32,36,21,13,44,51
23,50,42,48,63,39,24,103,76
23.005,1,8,33,3,4,18,76,61
23.01,28,34,57,47,13,13,33,40
23.015,11,1,5,39,15,7,31,8
23.02,13,58,13,2,1,5,10,38
23.025,34,86,93,52,29,30,54,66
23.03,15,26,58,19,4,4,18,36
23.035,24,3,5,28,1,14,32,58
23.04,46,76,25,61,22,11,10,27
23.045,12,10,94,53,4,7,21,63
23.05,4,4,4,27,25,12,5,61
23.055,27,37,10,23,0,0,38,48
23.06,32,53,7,54,13,9,36,18
23.065,38,62,119,74,18,14,31,46
23.07,4,10,103,51,3,6,5,34
23.075,14,22,2,55,27,14,6,4
23.08,39,64,8,98,36,28,51,5
23.085,19,40,2,35,11,13,28,8
23.09,1,5,23,6,0,4,23,9
23.095,30,18,60,9,0,6,106,91
23.1,5,27,41,19,6,4,89,56
23.105,23,59,7,39,13,13,49,87
23.11,6,44,101,19,5,1,12,46
23.115,18,3,14,12,1,6,5,42
23.12,36,46,25,45,44,30,8,0
23.125,27,32,61,19,7,5,0,9
23.13,1,16,41,1,5,3,9,17
23.135,0,40,42,26,1,2,20,47
23.14,3,62,128,29,5,9,18,52
23.145,17,23,92,22,24,6,35,3
23.15,2,43,128,48,33,2,69,42
23.155,4,40,88,61,12,2,58,38
23.16,8,55,53,49,16,27,38,20
23.165,38,3,53,38,9,7,4,1
23.17,0,9,49,19,5,1,25,12
23.175,29,22,94,34,22,19,1,2
23.18,16,9,20,34,11,4,31,27
23.185,31,50,32,0,3,5,25,7
23.19,25,8,98,8,14,4,37,9
23.195,15,36,86,34,14,6,13,10
23.2,1,33,3,32,21,13,14,4
23.205,20,12,7,74,46,27,5,23
23.21,5,44,24,2,1,4,3,28
23.215,6,1,20,10,1,1,19,17
23.22,35,67,98,58,23,17,42,37
23.225,31,37,44,27,17,10,4,15
23.23,11,22,61,25,9,12,6,5
23.235,16,37,128,104,11,5,5,12
23.24,16,3,0,2,0,6,6,18
23.245,5,62,46,43,21,8,3,20
23.25,1,21,112,67,19,13,41,27
23.255,11,12,51,15,4,7,11,11
23.26,7,25,13,2,6,4,6,32
23.265,28,0,13,1,4,7,25,57
23.27,3,18,33,6,7,7,28,6
23.275,1,24,37,7,4,2,25,8
23.28,13,7,5,15,5,3,21,7
23.285,9,21,37,31,12,9,19,14
23.29,12,10,5,9,14,4,3,7
23.295,1,7,37,9,5,7,17,24
23.3,12,19,26,19,17,15,16,11
23.305,1,5,69,29,3,3,6,19
23.31,20,39,29,63,20,14,46,1
23.315,30,68,11,44,11,20,67,36
23.32,5,22,72,31,8,8,27,18
23.325,12,10,9,24,8,2,21,17
23.33,55,53,66,69,40,20,10,26
23.335,17,27,37,39,14,11,21,19
23.34,14,12,19,4,3,4,13,27
23.345,4,34,6,7,1,3,7,24
23.35,10,6,34,10,7,10,48,5
23.355,33,33,6,0,2,7,46,14
23.36,13,25,1,17,13,14,31,6
23.365,15,18,65,27,4,2,6,27
23.37,14,2,46,22,14,11,25,3
23.375,16,10,23,25,13,13,37,16
23.38,16,3,33,13,7,9,84,61
23.385,17,32,32,27,12,17,73,7
23.39,12,21,47,12,4,2,11,6
23.395,0,9,9,4,0,0,12,11
23.4,2,22,82,23,4,1,20,20
23.405,6,5,10,24,8,6,18,12
23.41,12,33,65,22,14,6,3,23
23.415,32,40,76,65,30,15,10,13
23.42,2,12,49,34,9,4,10,8
23.425,7,11,20,35,22,17,29,14
23.43,7,3,36,2,17,17,43,22
23.435,7,13,80,55,12,5,40,30
23.44,29,46,50,60,21,15,26,75
23.445,26,39,78,23,2,2,10,4
23.45,2,43,2,16,11,15,32,20
23.455,21,23,3,9,4,0,22,55
23.46,17,5,2,26,5,5,39,53
23.465,12,8,3,20,4,2,20,30
23.47,4,15,52,11,6,3,26,4
23.475,13,14,6,10,5,0,14,3
23.48,18,11,16,7,3,2,5,25
23.485,3,12,9,18,2,1,12,10
23.49,2,6,5,19,2,1,3,8
23.495,8,29,11,4,8,5,1,19
23.5,10,38,59,12,5,3,11,3
23.505,15,43,5,49,26,20,18,26
23.51,20,18,33,21,5,1,10,2
23.515,6,36,15,15,16,11,0,31
23.52,23,10,54,37,28,21,19,65
23.525,39,33,16,28,12,16,29,49
23.53,53,89,16,36,14,13,41,54
23.535,15,29,51,12,3,4,8,5
23.54,10,9,11,35,26,8,32,26
23.545,46,20,10,9,2,5,34,42
23.55,25,4,25,34,20,18,8,7
23.555,11,2,39,8,1,1,9,21
23.56,15,9,27,7,0,4,13,23
23.565,7,34,12,22,8,9,7,31
23.57,35,43,11,34,22,12,8,12
23.575,41,13,60,50,16,9,0,20
23.58,19,7,126,61,8,8,15,11
23.585,6,8,40,5,6,2,1,3
23.59,10,43,75,27,6,3,11,32
23.595,14,16,16,9,15,7,19,8
23.6,2,51,9,33,16,9,17,21
23.605,17,53,106,45,15,11,9,29
23.61,6,7,69,18,8,7,66,36
23.615,10,18,1,21,15,8,47,13
23.62,0,8,3,5,14,11,6,31
23.625,20,6,28,4,6,3,3,10
23.63,16,13,30,28,13,11,5,15
23.635,15,16,12,34,21,12,37,18
23.64,3,0,37,8,16,10,17,14
23.645,5,5,26,10,1,1,1,18
23.65,3,9,8,2,3,1,7,34
23.655,10,21,4,38,13,3,20,45
23.66,9,87,17,71,22,13,60,2
23.665,28,13,76,54,11,6,1,14
23.67,4,5,25,7,2,4,31,5
23.675,19,59,47,56,18,21,65,29
23.68,8,1,11,7,4,2,42,14
23.685,7,9,67,11,2,1,20,3
23.69,22,49,109,46,13,9,2,51
23.695,26,76,92,70,16,11,1,6
23.7,21,30,70,26,11,10,12,12
23.705,17,21,68,19,22,14,7,17
23.71,17,41,32,22,11,3,20,27
23.715,5,8,2,10,8,6,18,28
23.72,17,27,9,8,0,0,7,14
23.725,19,20,35,12,2,2,19,94
23.73,26,25,36,12,3,1,9,15
23.735,23,41,13,32,12,11,41,3
23.74,10,65,84,66,28,27,59,14
23.745,15,41,22,32,15,10,25,11
23.75,4,30,47,22,6,6,22,2
23.755,2,46,29,29,7,2,2,2
23.76,3,20,54,12,8,2,34,10
23.765,11,34,96,56,28,11,1,5
23.77,37,72,116,121,42,23,37,22
23.775,5,10,56,26,2,3,7,12
23.78,0,5,54,26,13,9,18,15
23.785,8,9,86,34,13,10,24,25
23.79,6,3,9,36,10,6,7,5
23.795,1,17,13,0,3,6,3,3
23.8,11,10,49,10,13,11,7,20
23.805,2,0,11,7,6,1,2,19
23.81,6,6,23,5,7,3,3,9
23.815,8,3,30,29,10,8,14,8
23.82,2,9,48,23,1,2,17,1
23.825,1,6,7,2,9,3,12,0
23.83,0,10,18,12,1,2,6,2
23.835,3,2,18,5,13,1,15,9
23.84,3,18,23,20,15,7,19,4
23.845,3,2,6,17,16,4,4,1
23.85,1,2,53,0,7,5,9,4
23.855,5,7,39,9,2,1,4,2
23.86,1,8,9,19,11,7,10,4
23.865,1,4,31,13,16,5,4,2
23.87,2,8,24,4,10,7,10,1
23.875,2,4,6,19,10,6,0,0
23.88,3,4,36,45,10,0,3,12
23.885,3,1,15,25,4,7,4,5
23.89,1,3,4,20,9,3,5,5
23.895,2,0,15,19,10,4,1,3
23.9,6,8,9,5,13,5,4,8
23.905,2,6,2,45,12,9,6,11
23.91,2,6,2,3,6,0,0,1
23.915,5,8,29,9,7,2,3,2
23.92,1,1,9,9,8,1,2,4
23.925,1,4,19,7,2,1,3,2
23.93,0,1,47,3,1,4,1,6
23.935,0,5,33,21,11,3,5,13
23.94,4,6,6,8,6,3,0,0
23.945,4,8,9,9,5,3,2,5
23.95,3,9,6,25,7,0,0,4
23.955,5,8,7,22,0,4,5,1
23.96,2,3,5,17,9,5,0,5
23.965,4,8,6,39,5,3,20,1
23.97,3,6,1,12,0,4,33,1
23.975,11,14,20,24,14,11,4,6
23.98,2,1,10,2,3,3,3,5
23.985,6,4,30,39,15,8,14,10
23.99,8,9,17,37,3,3,10,16
23.995,1,5,2,9,3,2,3,1
24,3,3,0,7,7,1,6,5
24.005,2,5,11,24,11,2,2,0
24.01,5,8,13,16,10,6,12,6
24.015,2,1,17,9,1,5,3,4
24.02,5,3,1,6,6,4,0,5
24.025,5,4,11,2,3,2,3,0
24.03,1,3,7,2,2,3,1,1
24.035,4,3,6,8,10,6,2,5
24.04,0,3,31,3,5,7,5,5
24.045,4,8,24,5,7,4,13,15
24.05,1,1,19,0,1,3,1,2
24.055,1,1,35,15,1,1,1,3
24.06,4,9,55,11,0,0,3,1
24.065,2,9,5,2,5,2,6,5
24.07,11,9,18,11,2,10,4,1
24.075,12,15,36,18,9,9,9,17
24.08,2,11,66,20,8,2,2,14
24.085,18,28,10,7,12,9,17,20
24.09,11,14,38,6,2,1,8,4
24.095,5,4,28,2,3,2,11,4
24.1,7,4,24,3,9,6,10,13
24.105,5,9,50,7,6,0,12,11
24.11,3,6,49,5,3,2,2,9
24.115,11,15,52,13,8,11,8,5
24.12,8,22,28,16,13,10,12,3
24.125,18,24,44,30,18,6,6,21
24.13,1,1,9,4,6,5,2,8
24.135,6,10,4,29,9,2,6,1
24.14,7,14,32,32,10,8,10,5
24.145,11,14,25,17,7,3,8,13
24.15,12,10,2,2,4,4,0,5
24.155,4,6,14,11,7,1,3,3
24.16,9,11,2,16,6,3,1,12
24.165,5,5,17,1,0,1,11,21
24.17,5,2,9,5,4,7,1,21
24.175,2,8,11,1,6,5,6,7
24.18,7,1,29,2,8,8,16,12
24.185,1,1,11,14,6,5,4,1
24.19,3,8,13,12,2,1,5,6
24.195,2,3,10,6,11,3,1,5
24.2,4,9,19,7,19,8,5,0
24.205,1,17,26,5,10,7,5,1
24.21,2,0,1,5,3,1,3,10
24.215,1,1,28,13,2,0,1,5
24.22,0,7,38,1,9,5,3,1
24.225,0,2,28,2,3,1,16,6
24.23,4,7,1,12,0,4,1,6
24.235,0,1,6,7,4,1,2,7
24.24,2,3,10,0,2,4,8,10
24.245,1,5,15,6,4,3,8,0
24.25,2,6,21,10,8,5,7,6
24.255,1,3,8,12,1,5,5,2
24.26,5,6,5,20,6,6,6,1
24.265,7,5,37,22,9,4,5,3
24.27,9,5,32,38,3,3,2,7
24.275,26,14,12,15,14,15,13,17
24.28,1,2,12,5,1,0,0,1
24.285,5,9,35,17,8,5,3,3
24.29,7,12,47,4,12,7,3,5
24.295,4,6,15,1,3,2,4,2
24.3,3,3,4,4,3,1,10,2
24.305,3,2,14,6,3,2,2,10
24.31,7,14,37,16,2,2,0,9
24.315,11,10,25,2,1,2,4,3
24.32,15,22,30,5,13,9,0,5
24.325,7,4,4,12,0,3,1,1
24.33,3,7,11,5,3,0,0,2
24.335,6,13,6,26,15,9,8,9
24.34,2,2,15,9,3,2,1,5
24.345,4,2,13,1,4,1,9,4
24.35,12,14,70,29,9,5,9,17
24.355,17,20,61,24,7,4,14,17
24.36,3,2,1,0,2,2,1,4
24.365,1,6,6,5,4,4,2,7
24.37,1,5,3,7,2,5,6,1
24.375,9,12,27,15,3,4,6,10
24.38,2,1,23,2,1,0,0,0
24.385,6,14,54,17,4,6,6,6
24.39,1,3,24,12,2,0,2,4
24.395,4,1,7,7,5,3,1,0
24.4,9,10,31,24,13,11,3,10
24.405,5,9,5,11,8,2,4,4
24.41,5,1,9,3,2,0,1,4
24.415,5,9,45,4,3,1,3,1
24.42,2,4,31,5,2,1,2,5
24.425,9,12,8,14,7,8,3,4
24.43,4,1,9,4,1,0,1,6
24.435,1,0,4,10,5,4,1,1
24.44,5,8,58,12,4,1,0,3
24.445,1,1,57,10,7,4,4,1
24.45,10,13,31,23,11,7,9,4
24.455,0,0,24,7,11,5,0,11
24.46,2,7,12,1,3,1,0,3
24.465,0,4,5,3,2,1,0,2
24.47,3,7,31,5,2,3,2,2
24.475,11,1,29,2,7,4,2,22
24.48,28,21,49,23,9,6,12,53
24.485,0,3,8,16,4,5,2,2
24.49,5,1,2,4,7,3,2,3
24.495,1,7,52,5,6,3,1,0
24.5,4,11,65,9,3,2,2,7
24.505,1,4,26,10,2,2,1,2
24.51,5,2,21,11,9,3,1,7
24.515,3,12,16,15,5,4,0,1
24.52,8,5,22,5,3,2,1,14
24.525,4,7,19,10,7,5,3,6
24.53,2,5,17,3,3,1,3,2
24.535,5,0,7,4,5,1,2,1
24.54,3,2,15,2,0,2,1,9
24.545,2,4,26,5,1,1,1,3
24.55,1,5,33,5,0,2,1,5
24.555,3,2,20,3,6,1,3,4
24.56,4,5,7,10,5,1,1,3
24.565,5,4,13,18,14,3,3,3
24.57,3,2,1,13,5,5,5,5
24.575,2,2,2,4,7,4,1,4
24.58,7,10,16,13,3,4,4,11
24.585,4,7,5,4,3,1,3,6
24.59,3,2,2,5,7,2,3,0
24.595,0,2,34,3,7,1,3,2
24.6,4,4,34,4,2,3,2,2
24.605,13,7,14,27,1,1,1,4
24.61,17,8,77,22,2,3,1,3
24.615,1,0,19,1,1,2,1,3
24.62,0,1,0,1,4,0,2,4
24.625,5,1,12,1,1,1,0,3
24.63,4,0,23,6,5,3,1,0
24.635,5,6,27,6,3,1,7,12
24.64,0,2,5,1,5,4,11,21
24.645,5,1,1,5,6,2,1,3
24.65,3,12,21,17,4,2,2,3
24.655,1,2,5,4,5,3,2,3
24.66,4,5,11,4,3,2,1,6
24.665,4,1,4,10,6,1,1,2
24.67,1,1,11,2,3,1,5,4
24.675,9,16,35,21,6,4,1,5
24.68,13,20,56,24,11,8,3,4
24.685,2,8,4,17,10,9,6,7
24.69,3,10,6,18,5,4,3,3
24.695,1,0,17,5,1,0,1,4
24.7,5,7,21,15,7,4,1,8
24.705,9,7,13,20,2,3,2,11
24.71,1,2,4,12,1,3,3,1
24.715,3,5,4,4,9,3,6,6
24.72,1,8,26,11,7,1,2,3
24.725,0,6,28,1,2,1,2,2
24.73,5,5,8,17,11,4,6,3
24.735,5,2,18,4,4,2,2,5
24.74,1,1,10,2,9,0,2,1
24.745,13,9,34,9,1,2,5,15
24.75,13,3,8,6,2,3,2,23
24.755,7,21,55,28,6,6,8,3
24.76,6,3,4,3,1,2,1,2
24.765,18,4,12,10,2,1,4,1
24.77,14,8,31,8,4,0,4,11
24.775,2,1,16,1,1,1,1,4
24.78,9,1,51,4,1,5,5,10
24.785,14,13,41,25,11,8,4,4
24.79,16,5,21,6,0,1,1,1
24.795,2,11,40,16,2,4,2,2
24.8,1,4,33,4,3,2,0,1
24.805,1,1,4,12,8,3,2,0
24.81,5,1,57,3,1,4,3,2
24.815,8,7,28,16,8,3,3,0
24.82,11,1,38,8,0,1,4,7
24.825,26,4,11,4,0,3,2,15
24.83,6,4,56,13,2,0,1,3
24.835,7,9,46,1,3,1,0,12
24.84,1,4,7,6,10,6,6,3
24.845,9,9,2,24,6,3,1,33
24.85,5,7,33,10,7,5,16,46
24.855,17,34,10,23,13,15,16,40
24.86,9,15,51,20,6,6,1,47
24.865,12,7,9,23,8,2,10,24
24.87,28,14,51,9,10,17,4,52
24.875,6,11,79,9,10,2,14,73
24.88,42,35,48,13,9,6,7,35
24.885,40,19,18,12,2,6,20,25
24.89,22,3,26,43,28,30,37,2
24.895,11,16,41,19,10,5,37,5
24.9,23,54,77,70,29,21,43,35
24.905,7,45,92,53,18,19,16,14
24.91,25,13,58,22,2,11,4,34
24.915,7,28,77,87,15,14,12,60
24.92,14,51,79,73,18,10,4,53
24.925,7,40,13,61,19,15,2,20
24.93,20,18,15,36,10,10,13,12
24.935,7,29,98,28,1,7,3,2
24.94,12,51,86,16,1,6,45,14
24.945,6,18,32,9,0,7,18,71
24.95,3,42,89,37,26,15,1,20
24.955,59,30,6,6,5,13,83,113
24.96,15,24,27,26,24,15,86,88
24.965,27,43,47,73,33,11,26,90
24.97,86,104,97,119,42,28,42,121
24.975,19,67,119,56,28,13,22,27
24.98,4,16,14,15,20,13,6,77
24.985,12,16,80,10,12,7,18,5
24.99,3,39,98,44,12,6,2,11
24.995,21,37,29,55,17,1,18,3
25,10,27,76,22,22,13,21,39
25.005,51,62,86,0,22,12,16,11
25.01,2,34,13,49,9,5,32,40
25.015,40,18,34,36,13,2,35,22
25.02,65,46,44,50,9,7,15,75
25.025,12,16,23,20,10,7,18,10
25.03,15,31,51,16,7,9,21,26
25.035,15,44,58,16,22,14,12,72
25.04,43,60,34,72,27,4,7,66
25.045,22,27,73,86,10,13,15,54
25.05,14,73,46,22,21,0,3,39
25.055,2,29,88,55,15,7,8,24
25.06,15,17,49,20,11,5,1,35
25.065,2,5,71,38,7,4,20,8
25.07,24,11,50,28,14,9,29,57
25.075,33,27,109,79,20,11,112,56
25.08,6,30,59,49,15,5,69,17
25.085,10,2,15,21,12,9,15,15
25.09,9,34,71,19,23,19,21,13
25.095,26,19,1,48,12,10,3,3
25.1,10,15,20,5,3,6,47,46
25.105,9,35,2,7,1,5,2,18
25.11,7,19,65,20,6,4,13,14
25.115,6,38,8,26,5,3,14,14
25.12,29,23,43,41,10,4,1,48
25.125,33,61,62,11,6,6,32,32
25.13,4,65,14,95,23,9,13,1
25.135,27,65,81,88,33,18,42,33
25.14,37,18,88,15,13,11,25,20
25.145,31,3,29,8,2,0,6,30
25.15,1,28,21,15,13,2,9,8
25.155,3,15,32,14,6,2,18,3
25.16,1,26,105,57,17,17,11,8
25.165,3,21,2,46,12,7,31,22
25.17,6,18,44,3,15,13,69,21
25.175,10,15,59,42,25,7,18,19
25.18,6,11,4,8,3,2,22,8
25.185,8,7,61,7,11,17,79,75
25.19,53,11,24,84,47,42,87,84
25.195,2,11,31,27,2,9,18,2
25.2,7,18,8,9,8,7,14,19
25.205,6,5,43,2,8,7,23,2
25.21,24,3,82,20,26,18,43,28
25.215,4,68,19,17,1,3,2,17
25.22,24,57,103,69,19,15,16,32
25.225,34,33,81,16,3,8,5,15
25.23,7,6,62,10,6,10,23,4
25.235,9,30,3,11,7,12,12,57
25.24,3,26,14,8,5,1,32,43
25.245,5,24,49,42,13,3,57,64
25.25,13,32,81,87,37,21,6,2
25.255,6,21,42,41,11,17,66,46
25.26,7,19,63,24,19,1,57,7
25.265,55,45,15,80,31,27,24,21
25.27,9,15,82,50,19,13,34,17
25.275,5,20,53,16,2,2,13,10
25.28,17,54,96,69,26,7,30,8
25.285,20,49,68,22,16,2,37,10
25.29,1,15,51,9,9,8,1,20
25.295,8,29,10,22,8,1,4,13
25.3,9,34,24,10,1,6,6,11
25.305,31,71,13,59,35,20,13,1
25.31,19,103,49,82,56,22,15,12
25.315,17,11,47,7,20,6,19,39
25.32,14,31,53,91,26,7,10,4
25.325,26,39,26,85,44,27,31,4
25.33,2,43,84,58,23,21,48,2
25.335,19,25,54,1,1,7,19,16
25.34,7,5,116,9,10,7,22,35
25.345,14,8,31,12,8,1,39,35
25.35,25,48,12,46,29,18,41,37
25.355,59,64,1,45,19,11,10,68
25.36,9,37,10,18,2,6,12,11
25.365,35,19,12,80,24,13,20,16
25.37,48,79,57,96,47,36,49,28
25.375,15,32,28,36,8,10,28,1
25.38,25,60,20,24,5,4,5,0
25.385,45,77,53,55,21,12,0,2
25.39,8,9,30,6,5,1,13,0
25.395,4,10,3,22,3,8,0,9
25.4,8,6,39,7,7,3,0,9
25.405,6,18,68,10,11,9,13,7
25.41,23,34,61,53,33,21,11,46
25.415,27,59,62,71,38,29,11,42
25.42,3,20,1,32,5,4,8,1
25.425,11,71,56,29,17,13,7,0
25.43,2,3,37,28,7,11,30,45
25.435,15,61,78,81,33,24,14,2
25.44,28,81,128,101,38,25,21,33
25.445,5,19,64,1,18,13,8,13
25.45,5,27,55,31,9,7,12,20
25.455,53,65,29,28,21,19,86,46
25.46,11,57,86,22,0,5,92,18
25.465,3,6,42,14,7,7,5,6
25.47,18,4,29,2,7,7,12,2
25.475,15,42,34,51,19,7,2,10
25.48,7,44,112,4,8,5,18,9
25.485,12,53,8,2,9,9,1,5
25.49,21,34,48,31,15,8,4,10
25.495,1,5,15,13,1,1,15,15
25.5,20,15,87,19,9,3,22,15
25.505,5,8,91,7,13,3,26,34
25.51,8,13,8,3,5,8,8,1
25.515,6,23,30,8,6,7,30,44
25.52,2,5,71,25,4,5,63,6
25.525,24,38,64,24,2,1,71,31
25.53,15,20,8,2,5,10,5,46
25.535,6,5,65,18,2,4,24,7
25.54,4,19,37,22,5,2,33,8
25.545,19,16,22,13,1,9,10,32
25.55,16,4,43,3,5,2,13,23
25.555,2,8,14,8,5,8,62,13
25.56,14,35,119,49,12,12,35,40
25.565,36,50,24,74,33,16,10,66
25.57,21,22,40,52,19,14,4,6
25.575,13,27,58,32,22,18,16,6
25.58,12,9,3,7,9,3,8,2
25.585,15,31,41,99,36,29,24,19
25.59,22,46,55,87,45,30,23,25
25.595,0,8,65,29,3,4,12,4
25.6,11,14,93,27,1,4,22,10
25.605,1,1,94,18,9,10,8,4
25.61,11,6,19,29,11,10,12,3
25.615,38,34,106,42,18,14,9,42
25.62,23,25,81,7,1,14,22,5
25.625,0,2,70,9,4,4,16,19
25.63,1,8,30,30,2,7,14,15
25.635,6,4,24,22,3,3,21,17
25.64,3,15,13,26,2,4,49,35
25.645,29,48,67,60,29,22,23,15
25.65,9,9,10,16,13,9,6,7
25.655,1,6,84,9,6,1,13,1
25.66,7,13,14,27,7,6,4,8
25.665,4,18,79,54,18,3,6,3
25.67,3,45,4,10,4,10,21,19
25.675,18,40,49,16,8,7,15,35
25.68,5,9,51,12,1,1,8,7
25.685,15,10,89,13,2,4,1,14
25.69,6,24,12,9,2,7,1,13
25.695,4,35,9,19,16,10,7,26
25.7,14,54,101,74,32,25,5,50
25.705,10,8,5,24,10,3,4,3
25.71,0,4,44,4,1,2,13,15
25.715,6,11,35,4,1,3,20,34
25.72,6,12,24,11,9,2,12,38
25.725,2,7,5,8,9,8,24,23
25.73,7,6,51,34,6,0,20,9
25.735,1,1,2,51,11,4,17,9
25.74,10,23,42,2,4,5,11,8
25.745,5,1,73,43,19,11,8,3
25.75,9,28,82,38,17,11,5,1
25.755,4,8,81,10,7,7,7,2
25.76,11,6,7,4,7,3,2,15
25.765,18,27,45,40,13,13,7,7
25.77,12,20,32,46,24,15,9,12
25.775,7,0,41,28,20,4,0,8
25.78,3,2,18,3,4,4,7,2
25.785,3,1,3,4,3,7,6,2
25.79,4,15,23,24,9,5,2,0
25.795,2,7,5,21,8,1,1,6
25.8,4,2,18,23,2,5,0,7
25.805,11,17,86,33,14,4,2,0
25.81,9,13,35,52,17,10,3,11
25.815,3,5,38,0,3,1,0,6
25.82,8,12,4,12,4,5,5,7
25.825,5,9,10,7,5,3,4,14
25.83,2,8,22,25,12,8,6,4
25.835,4,5,57,32,12,8,7,1
25.84,2,7,32,17,13,7,2,4
25.845,2,4,14,20,3,0,0,1
25.85,1,0,7,10,28,12,3,0
25.855,5,2,9,7,2,3,4,7
25.86,3,4,26,9,6,5,1,3
25.865,3,2,26,17,14,7,3,0
25.87,1,1,21,11,5,0,1,4
25.875,3,3,4,0,3,1,0,8
25.88,1,7,40,6,0,1,1,1
25.885,5,21,96,26,8,3,3,3
25.89,2,12,49,10,1,4,1,1
25.895,1,4,37,15,5,2,2,3
25.9,1,2,12,3,2,1,4,2
25.905,7,18,84,10,2,3,1,3
25.91,7,22,80,31,16,6,3,5
25.915,7,11,45,6,4,6,3,3
25.92,1,13,34,26,12,3,1,0
25.925,21,10,11,12,3,1,1,1
25.93,2,6,11,20,8,7,5,3
25.935,6,2,29,0,4,7,6,4
25.94,1,15,9,18,3,1,0,3
25.945,17,24,55,17,7,7,4,3
25.95,8,19,1,20,13,3,6,21
25.955,2,7,3,19,4,3,26,34
25.96,4,0,2,15,10,12,7,10
25.965,2,1,6,2,2,4,13,2
25.97,7,16,46,29,5,5,9,3
25.975,9,7,9,2,2,9,27,39
25.98,10,4,21,9,3,2,21,24
25.985,5,9,10,10,1,7,1,1
25.99,1,5,16,13,2,4,4,9
25.995,7,19,4,13,12,5,8,10
26,9,18,26,30,16,7,3,4
26.005,3,9,36,13,8,5,3,2
26.01,7,10,58,8,9,8,4,7
26.015,8,3,4,5,1,0,5,4
26.02,8,29,49,32,20,14,31,12
26.025,17,15,48,17,5,1,12,21
26.03,28,1,18,2,1,7,30,11
26.035,3,4,12,9,7,7,12,3
26.04,3,1,6,2,2,2,0,1
26.045,5,3,22,14,6,0,11,4
26.05,1,4,31,36,1,0,1,9
26.055,5,0,19,1,6,7,11,2
26.06,2,15,13,3,12,3,2,6
26.065,9,36,61,27,15,8,1,5
26.07,5,31,26,28,10,5,6,9
26.075,2,4,52,16,5,5,1,4
26.08,2,15,17,10,4,6,11,8
26.085,3,3,7,3,10,6,9,8
26.09,10,22,26,13,2,2,5,4
26.095,7,11,35,14,7,4,6,9
26.1,4,12,63,29,12,4,3,0
26.105,10,20,29,5,9,5,4,7
26.11,3,1,16,12,0,5,20,21
26.115,3,4,25,2,2,1,2,1
26.12,12,21,25,14,7,7,0,18
26.125,4,13,59,17,1,0,5,12
26.13,15,3,21,0,4,3,29,8
26.135,1,9,3,0,3,7,14,3
26.14,9,17,52,15,9,7,15,38
26.145,6,8,14,4,5,9,7,11
26.15,5,0,24,23,1,2,5,3
26.155,4,5,30,4,6,7,24,2
26.16,10,16,15,8,5,6,21,0
26.165,3,1,20,9,5,1,3,1
26.17,9,11,12,19,6,1,2,6
26.175,7,11,44,20,9,3,5,16
26.18,1,5,15,5,2,3,12,1
26.185,0,7,16,4,10,2,1,6
26.19,1,10,17,10,3,3,5,3
26.195,0,7,19,1,4,7,1,3
26.2,6,7,31,3,7,3,5,9
26.205,8,3,9,3,1,2,4,5
26.21,6,7,27,8,2,5,7,2
26.215,6,10,11,4,4,7,5,5
26.22,3,2,12,1,1,1,1,3
26.225,1,0,2,0,1,1,2,1
26.23,4,9,21,8,0,1,1,4
26.235,2,20,49,18,1,1,2,1
26.24,14,23,36,27,9,5,2,3
26.245,0,2,25,2,0,1,2,1
26.25,2,13,9,1,4,2,1,2
26.255,3,7,14,6,13,5,7,3
26.26,1,5,12,20,14,9,6,1
26.265,2,3,17,1,11,2,4,2
26.27,0,7,2,5,4,2,1,4
26.275,5,10,6,11,3,6,0,0
26.28,5,8,27,10,1,1,2,1
26.285,7,15,55,22,16,8,5,3
26.29,3,6,22,5,4,3,2,1
26.295,1,9,39,18,6,3,1,5
26.3,9,6,12,5,9,6,1,8
26.305,4,8,22,10,1,4,3,0
26.31,2,3,7,3,9,1,7,3
26.315,5,7,9,2,2,1,5,2
26.32,2,2,18,8,2,1,1,3
26.325,4,6,7,8,7,6,1,4
26.33,2,1,30,11,4,2,2,0
26.335,2,5,25,1,1,2,2,2
26.34,3,1,14,10,3,6,4,0
26.345,1,3,9,6,1,0,1,4
26.35,2,6,29,18,6,4,4,2
26.355,5,18,35,12,3,3,3,7
26.36,1,6,29,7,5,2,0,1
26.365,0,2,6,3,7,1,1,1
26.37,1,1,3,5,9,3,2,1
26.375,6,8,9,9,1,6,3,4
26.38,7,6,14,11,1,2,6,11
26.385,2,0,4,5,2,3,5,3
26.39,4,5,39,12,10,5,2,4
26.395,1,6,28,4,0,1,0,1
26.4,1,1,9,2,0,2,2,2
26.405,4,8,40,7,0,2,8,1
26.41,1,17,93,11,1,2,2,6
26.415,11,3,20,12,9,5,8,0
26.42,6,4,1,2,2,0,4,13
26.425,8,2,8,3,1,3,12,8
26.43,18,1,24,5,2,2,9,23
26.435,5,6,7,7,0,1,1,6
26.44,3,4,7,4,0,0,5,0
26.445,1,1,26,15,6,2,0,3
26.45,3,7,9,10,10,5,1,5
26.455,2,4,5,4,8,1,2,1
26.46,1,9,39,17,4,4,1,4
26.465,5,11,55,16,6,6,0,1
26.47,1,1,52,3,2,4,2,2
26.475,1,7,15,5,6,1,3,6
26.48,2,4,19,2,2,2,4,3
26.485,0,5,41,4,3,2,2,2
26.49,1,7,65,3,4,0,1,0
26.495,1,3,3,0,2,4,2,2
26.5,2,4,39,15,10,4,5,1
26.505,9,12,24,27,11,5,3,5
26.51,0,5,27,6,4,4,2,1
26.515,2,3,3,6,2,0,2,1
26.52,6,1,33,2,1,1,1,16
26.525,13,7,46,21,9,2,4,24
26.53,2,8,33,13,5,4,1,0
26.535,4,9,7,13,9,6,8,12
26.54,1,4,13,6,1,1,3,1
26.545,5,1,3,4,4,2,1,6
26.55,7,13,29,5,5,6,3,6
26.555,11,19,25,21,10,9,5,6
26.56,5,5,59,11,11,1,4,8
26.565,1,3,8,11,5,2,0,2
26.57,5,4,33,3,0,3,1,4
26.575,7,9,22,12,8,4,4,7
26.58,1,4,4,3,2,2,4,2
26.585,1,9,10,2,3,3,2,1
26.59,1,2,10,9,8,3,2,0
26.595,2,7,21,9,0,0,0,1
26.6,4,9,26,11,0,2,3,5
26.605,2,8,9,24,2,1,10,5
26.61,1,2,5,0,3,7,2,3
26.615,0,3,6,1,1,2,3,3
26.62,2,12,13,7,1,1,1,4
26.625,4,1,11,2,5,0,1,2
26.63,7,8,15,7,3,1,1,1
26.635,5,9,33,10,6,3,6,9
26.64,1,6,11,7,3,1,1,4
26.645,2,0,10,2,4,2,5,8
26.65,3,5,31,1,2,0,1,3
26.655,9,4,6,2,6,5,3,25
26.66,4,3,11,4,2,4,3,4
26.665,1,1,19,2,0,1,0,2
26.67,2,1,7,2,2,2,1,4
26.675,2,3,2,2,3,4,5,13
26.68,7,13,19,14,2,2,6,9
26.685,3,6,22,2,2,0,0,2
26.69,2,7,31,8,0,1,3,0
26.695,8,16,76,23,11,6,2,0
26.7,7,13,44,3,1,4,2,3
26.705,3,3,10,19,4,1,0,8
26.71,13,19,39,36,14,11,7,9
26.715,2,2,16,7,8,6,1,5
26.72,1,0,1,4,1,0,1,3
26.725,2,3,1,12,0,2,0,4
26.73,0,1,2,4,6,1,8,2
26.735,1,6,22,9,2,3,3,6
26.74,4,8,22,17,13,8,2,4
26.745,3,1,10,7,3,1,8,1
26.75,3,7,1,9,1,1,8,5
26.755,3,4,8,2,6,1,0,5
26.76,4,1,11,0,2,3,2,3
26.765,3,3,4,5,6,1,4,0
26.77,12,6,18,5,6,4,12,4
26.775,24,2,22,1,4,2,10,7
26.78,6,11,1,8,8,5,7,20
26.785,2,2,7,10,4,6,6,4
26.79,2,4,30,9,6,9,6,3
26.795,7,2,10,8,1,3,1,0
26.8,1,2,17,5,1,2,2,2
26.805,6,6,28,19,6,4,2,2
26.81,4,8,11,1,1,1,1,3
26.815,0,3,4,11,9,5,10,1
26.82,3,6,2,5,0,0,0,3
26.825,4,4,15,7,0,3,1,2
26.83,0,3,10,4,0,5,3,7
26.835,1,4,24,5,2,1,5,10
26.84,4,5,6,1,3,1,1,7
26.845,19,3,7,8,3,1,2,20
26.85,8,9,10,11,8,7,11,11
26.855,7,5,14,5,2,7,10,7
26.86,4,2,15,5,2,1,11,7
26.865,5,6,55,4,8,0,25,0
26.87,13,2,42,5,3,1,8,14
26.875,4,2,24,24,12,8,11,7
26.88,1,9,48,23,3,3,3,1
26.885,9,12,81,28,1,2,8,12
26.89,11,7,74,10,7,5,11,32
26.895,19,27,64,26,14,13,13,47
26.9,4,10,27,17,5,6,8,7
26.905,1,11,37,19,1,9,11,1
26.91,14,16,37,10,1,0,5,4
26.915,0,26,15,15,2,7,7,6
26.92,39,13,20,18,9,0,3,25
26.925,11,2,14,12,2,7,1,18
26.93,5,12,21,7,5,6,15,24
26.935,14,14,67,21,17,9,9,10
26.94,7,36,55,32,13,6,7,1
26.945,22,15,39,15,13,7,10,12
26.95,19,15,0,17,2,3,1,27
26.955,13,21,41,18,6,1,8,73
26.96,37,43,118,17,11,7,13,96
26.965,0,23,67,10,2,1,1,45
26.97,51,25,64,34,27,11,1,4
26.975,71,10,10,34,10,3,4,57
26.98,19,23,84,30,6,4,2,15
26.985,46,59,26,13,2,0,2,56
26.99,5,49,56,12,3,9,13,34
26.995,12,52,62,31,13,1,41,10
27,25,76,73,47,5,14,19,13
27.005,44,43,80,66,5,3,4,49
27.01,2,54,76,9,4,1,5,12
27.015,37,40,66,10,2,8,22,53
27.02,9,36,85,40,12,8,11,62
27.025,7,62,0,21,7,8,8,25
27.03,10,57,21,1,1,0,2,2
27.035,2,56,46,2,4,3,6,32
27.04,8,13,14,7,5,3,1,1
27.045,10,51,66,60,22,16,0,15
27.05,10,75,128,111,33,23,10,12
27.055,21,64,105,17,10,3,1,15
27.06,1,6,80,32,16,13,12,21
27.065,5,7,101,3,13,4,1,34
27.07,21,63,35,42,20,13,7,7
27.075,9,8,37,32,7,11,12,8
27.08,34,39,75,21,17,3,16,3
27.085,49,5,32,34,6,4,16,13
27.09,11,46,64,11,3,13,37,9
27.095,9,36,17,4,6,10,3,31
27.1,44,11,36,30,13,19,5,61
27.105,11,34,37,56,28,16,27,106
27.11,47,7,98,27,15,7,7,90
27.115,18,37,4,33,9,2,11,2
27.12,6,11,48,34,16,13,5,28
27.125,34,5,6,16,8,8,7,45
27.13,6,25,25,28,17,21,35,11
27.135,4,34,85,48,17,13,13,0
27.14,2,40,112,34,6,1,29,47
27.145,14,31,51,19,1,4,16,35
27.15,26,80,60,69,26,22,31,35
27.155,7,69,54,67,21,15,24,36
27.16,2,8,5,28,6,2,1,42
27.165,21,2,91,35,6,10,12,82
27.17,21,22,73,28,12,10,25,6
27.175,12,6,85,17,5,7,49,16
27.18,9,31,79,56,22,19,56,22
27.185,26,30,27,15,8,5,47,35
27.19,5,3,42,55,21,19,33,7
27.195,25,5,81,36,19,16,6,5
27.2,47,50,119,24,7,4,16,0
27.205,22,69,120,58,13,7,7,4
27.21,37,4,58,25,6,5,15,22
27.215,17,15,20,2,1,11,10,41
27.22,12,42,92,15,11,9,34,24
27.225,27,28,83,36,25,21,31,16
27.23,11,14,5,41,2,0,5,60
27.235,4,5,25,26,6,3,3,5
27.24,13,25,3,31,11,4,4,10
27.245,18,46,18,26,3,0,7,9
27.25,12,0,87,7,1,3,7,3
27.255,10,12,48,23,11,8,11,28
27.26,5,6,12,10,10,9,33,28
27.265,8,4,68,5,17,11,48,3
27.27,1,13,12,31,10,7,11,2
27.275,14,24,19,37,13,5,7,4
27.28,40,51,26,78,26,20,6,18
27.285,9,31,70,39,20,13,31,4
27.29,2,24,82,38,16,7,14,8
27.295,5,15,52,7,1,2,2,8
27.3,14,18,32,23,5,3,0,15
27.305,23,9,9,10,4,1,4,2
27.31,16,6,77,31,2,0,3,23
27.315,18,17,42,39,12,12,27,16
27.32,10,8,37,7,4,2,1,11
27.325,3,11,18,31,13,12,2,21
27.33,8,43,2,23,12,12,23,38
27.335,9,5,4,11,6,8,10,12
27.34,9,16,64,31,3,2,36,33
27.345,13,7,113,19,1,2,63,15
27.35,17,39,31,3,2,6,3,5
27.355,8,1,13,3,1,9,4,9
27.36,2,8,28,11,8,6,7,9
27.365,16,12,19,20,6,8,28,20
27.37,3,14,49,4,0,3,10,9
27.375,24,26,116,39,15,7,13,25
27.38,41,46,72,29,8,7,5,56
27.385,17,35,13,6,7,5,20,20
27.39,11,24,63,51,16,9,23,33
27.395,9,25,63,22,8,7,26,3
27.4,43,52,65,24,15,10,1,61
27.405,39,63,96,87,23,18,29,68
27.41,1,2,21,7,2,3,14,34
27.415,7,10,63,15,3,2,4,5
27.42,38,23,86,8,2,1,15,44
27.425,59,47,49,36,5,11,109,98
27.43,17,5,11,5,6,17,90,8
27.435,6,6,16,4,9,4,12,24
27.44,15,26,40,20,4,3,3,13
27.445,5,30,62,17,15,11,25,8
27.45,18,17,79,13,7,1,18,55
27.455,6,4,5,0,7,2,16,24
27.46,5,22,73,32,13,5,13,45
27.465,51,62,7,25,14,15,15,37
27.47,33,75,29,44,40,23,2,1
27.475,0,15,16,22,15,6,11,0
27.48,26,15,35,35,20,11,7,8
27.485,96,73,128,74,39,27,22,64
27.49,32,59,46,38,15,10,26,18
27.495,9,7,3,14,7,3,6,9
27.5,22,42,0,43,18,12,1,41
27.505,45,39,69,63,33,18,34,5
27.51,11,5,13,15,2,2,11,7
27.515,17,36,76,3,12,6,3,8
27.52,10,14,0,26,14,6,12,33
27.525,9,22,21,1,6,4,12,12
27.53,2,1,64,17,11,5,2,53
27.535,2,20,5,7,10,4,2,34
27.54,15,28,32,11,10,5,0,4
27.545,4,1,51,2,1,1,2,3
27.55,9,17,77,25,10,1,10,18
27.555,10,23,28,22,1,1,4,19
27.56,5,7,17,25,16,15,10,12
27.565,0,13,29,25,3,2,6,25
27.57,1,31,15,25,2,3,1,20
27.575,13,1,95,21,7,5,21,25
27.58,33,4,9,27,17,16,1,18
27.585,8,17,14,27,10,8,7,17
27.59,3,7,4,7,7,13,16,54
27.595,7,1,25,4,7,0,15,32
27.6,3,12,42,18,11,4,11,14
27.605,12,4,24,12,22,18,23,22
27.61,33,9,20,5,8,1,6,42
27.615,4,30,63,19,3,3,10,39
27.62,11,2,15,22,16,9,9,21
27.625,36,57,39,67,30,21,6,33
27.63,32,13,65,0,9,8,11,4
27.635,5,24,14,20,7,2,3,11
27.64,23,1,8,22,20,18,15,8
27.645,5,6,54,37,16,8,4,11
27.65,15,18,16,3,3,3,11,25
27.655,7,5,27,1,5,12,61,7
27.66,21,4,55,52,44,35,91,29
27.665,9,15,6,16,13,2,8,4
27.67,5,10,39,1,2,3,6,0
27.675,0,19,64,31,8,3,4,8
27.68,16,18,28,21,9,14,38,11
27.685,6,22,37,21,4,0,15,13
27.69,6,1,8,4,9,15,35,7
27.695,4,9,2,15,2,1,5,7
27.7,12,20,32,15,13,12,32,8
27.705,21,37,5,26,31,26,48,52
27.71,13,20,7,10,7,6,19,25
27.715,6,6,1,1,2,1,3,2
27.72,12,7,79,22,7,8,5,7
27.725,13,30,58,31,12,3,11,43
27.73,7,14,26,5,11,8,5,31
27.735,6,18,68,20,15,10,14,0
27.74,8,5,42,27,11,10,0,21
27.745,9,12,16,19,12,6,25,7
27.75,1,38,97,34,15,8,30,2
27.755,15,9,12,11,12,14,54,9
27.76,7,20,90,44,17,15,48,27
27.765,8,6,75,49,13,4,40,18
27.77,9,9,24,16,6,1,11,33
27.775,1,3,7,6,8,1,6,18
27.78,11,26,19,21,25,12,6,19
27.785,19,28,15,37,7,12,23,18
27.79,6,12,28,15,7,2,13,4
27.795,1,10,21,0,3,0,2,0
27.8,13,18,10,12,4,7,13,7
27.805,2,9,34,12,0,2,10,3
27.81,1,7,11,1,6,2,4,10
27.815,6,11,30,2,3,4,4,3
27.82,4,7,18,6,3,2,1,10
27.825,10,8,28,29,14,10,11,13
27.83,8,17,85,38,7,4,5,3
27.835,2,3,13,4,2,1,1,0
27.84,2,5,1,11,13,2,8,3
27.845,2,8,49,0,8,1,3,4
27.85,1,9,39,19,4,2,4,0
27.855,2,9,3,6,6,6,4,2
27.86,14,20,23,5,14,12,10,14
27.865,7,12,8,13,4,7,5,8
27.87,4,8,28,38,6,2,1,3
27.875,2,9,47,35,3,1,2,3
27.88,1,1,4,10,13,2,1,2
27.885,1,1,28,12,14,2,4,2
27.89,3,6,17,22,3,5,3,2
27.895,6,11,13,75,4,4,3,3
27.9,1,1,17,17,0,3,0,1
27.905,4,6,4,2,1,3,1,3
27.91,1,1,14,21,4,3,2,2
27.915,3,1,8,3,4,5,0,7
27.92,0,2,34,1,9,2,0,9
27.925,2,4,2,2,4,1,2,10
27.93,0,8,24,15,8,3,3,5
27.935,0,6,3,1,10,4,3,5
27.94,0,10,8,1,9,12,8,12
27.945,3,2,2,1,3,5,3,4
27.95,1,2,27,9,5,6,0,2
27.955,10,19,42,24,19,12,8,11
27.96,2,7,44,18,16,10,9,10
27.965,8,16,75,33,12,8,8,9
27.97,5,9,0,11,3,5,4,6
27.975,5,14,44,3,0,2,1,1
27.98,1,5,22,21,1,0,12,18
27.985,0,3,23,1,2,3,20,12
27.99,5,0,1,15,8,4,3,2
27.995,2,5,16,7,0,2,2,1
28,3,4,20,6,8,2,5,3
28.005,2,4,99,22,4,2,8,2
28.01,6,11,13,10,2,4,4,1
28.015,0,6,28,2,3,1,0,4
28.02,0,1,7,16,11,4,6,2
28.025,3,11,33,19,1,1,2,3
28.03,1,1,13,4,8,4,0,0
28.035,1,3,31,13,0,1,1,2
28.04,3,2,37,1,2,2,10,11
28.045,5,10,84,9,5,5,13,6
28.05,11,14,9,4,6,6,4,6
28.055,2,1,5,3,1,2,2,3
28.06,2,2,28,13,11,1,2,3
28.065,9,5,42,13,8,7,4,15
28.07,10,0,32,4,1,4,9,18
28.075,10,16,25,16,12,9,3,8
28.08,16,28,32,27,14,13,6,8
28.085,1,8,24,13,2,7,25,25
28.09,0,10,15,16,3,18,34,23
28.095,3,2,6,11,7,5,6,8
28.1,7,5,6,13,12,1,9,2
28.105,1,3,6,4,4,3,7,0
28.11,6,2,15,3,7,9,13,13
28.115,1,0,29,7,0,2,1,6
28.12,4,1,17,2,2,5,1,0
28.125,10,16,47,14,9,1,6,17
28.13,0,6,14,1,1,0,1,3
28.135,3,0,2,5,3,7,5,0
28.14,5,12,15,14,1,1,1,1
28.145,0,6,12,12,5,1,9,8
28.15,3,5,18,4,2,6,8,11
28.155,4,1,26,22,5,0,5,5
28.16,5,11,9,6,3,0,7,8
28.165,4,1,22,7,1,2,6,5
28.17,2,4,10,10,0,0,6,5
28.175,4,7,3,4,10,4,1,1
28.18,0,3,28,5,2,1,2,0
28.185,3,4,22,6,2,0,8,17
28.19,6,9,6,5,2,1,8,14
28.195,3,5,3,16,6,0,5,14
28.2,11,15,19,3,7,4,0,4
28.205,14,7,8,9,2,2,6,9
28.21,5,9,32,32,12,6,0,5
28.215,2,3,1,5,4,4,6,4
28.22,1,4,17,2,1,3,5,8
28.225,1,2,22,3,0,1,2,1
28.23,9,16,7,19,9,9,5,1
28.235,11,12,53,7,8,4,3,5
28.24,5,8,72,25,8,3,15,21
28.245,9,18,39,25,9,4,6,7
28.25,7,26,37,36,11,8,9,1
28.255,5,11,3,5,3,4,14,7
28.26,18,6,9,7,1,5,3,3
28.265,7,1,4,1,2,3,4,3
28.27,1,4,10,8,1,2,2,3
28.275,4,1,20,11,3,1,1,13
28.28,2,7,5,3,7,3,7,36
28.285,3,3,3,10,4,6,7,3
28.29,6,9,12,1,3,2,2,4
28.295,1,2,12,6,2,1,10,3
28.3,6,7,16,16,5,2,0,6
28.305,4,8,11,18,9,6,2,9
28.31,6,7,34,18,1,1,2,5
28.315,1,8,25,10,3,2,5,1
28.32,5,21,27,7,4,1,0,11
28.325,1,4,2,1,1,3,5,2
28.33,1,4,17,14,4,2,1,2
28.335,5,6,18,3,3,1,3,7
28.34,5,9,11,12,3,0,2,10
28.345,2,1,7,4,3,1,1,2
28.35,10,3,14,3,9,12,8,7
28.355,3,4,5,4,6,5,4,3
28.36,0,1,15,3,4,5,5,2
28.365,0,3,2,3,2,4,1,2
28.37,7,15,20,19,17,5,3,4
28.375,8,23,65,23,8,6,5,9
28.38,3,3,14,1,2,3,4,0
28.385,2,0,21,2,8,2,3,4
28.39,5,6,2,4,4,6,6,0
28.395,1,3,23,6,0,3,6,5
28.4,0,0,5,0,2,1,1,0
28.405,1,1,13,1,1,0,0,3
28.41,3,11,26,11,8,7,5,4
28.415,4,5,16,6,2,4,1,5
28.42,2,2,15,8,1,2,2,1
28.425,1,9,16,10,1,1,4,3
28.43,5,4,27,19,4,3,2,0
28.435,3,2,0,1,2,0,1,1
28.44,2,6,19,2,1,3,2,0
28.445,2,4,15,8,5,2,0,1
28.45,2,1,13,4,4,4,1,1
28.455,1,1,15,7,4,2,0,1
28.46,1,3,6,9,3,3,1,1
28.465,2,7,38,11,7,4,1,4
28.47,5,11,41,18,8,5,2,4
28.475,2,6,22,5,0,1,2,12
28.48,7,17,41,14,9,7,7,18
28.485,2,0,17,5,2,2,0,1
28.49,1,2,26,9,4,4,1,3
28.495,0,3,3,3,2,0,4,4
28.5,4,4,3,1,1,1,3,7
28.505,4,6,21,15,4,5,5,6
28.51,3,0,2,0,1,1,0,1
28.515,1,2,12,3,1,0,2,3
28.52,4,11,1,8,16,8,1,1
28.525,2,1,6,6,5,1,2,4
28.53,3,9,11,12,7,2,2,4
28.535,3,4,5,5,0,3,4,7
28.54,4,3,5,5,2,3,4,2
28.545,3,5,8,0,5,3,1,3
28.55,2,4,4,9,9,3,1,4
28.555,1,6,15,8,3,2,3,2
28.56,3,3,32,2,14,4,4,4
28.565,0,9,5,2,3,1,1,1
28.57,3,1,13,1,0,3,2,3
28.575,1,0,10,3,13,9,6,6
28.58,3,5,20,6,4,4,1,1
28.585,0,4,0,3,2,1,1,0
28.59,1,5,14,4,0,0,1,1
28.595,1,8,11,16,6,4,3,1
28.6,5,2,11,6,0,0,2,8
28.605,2,2,19,6,1,2,5,6
28.61,10,1,9,2,0,2,4,11
28.615,18,4,4,1,1,3,1,11
28.62,1,8,9,8,2,2,1,3
28.625,4,4,10,2,13,5,0,3
28.63,3,4,19,5,7,5,3,1
28.635,7,2,22,4,4,0,3,3
28.64,2,3,13,2,5,2,2,2
28.645,5,1,15,6,9,9,4,4
28.65,3,9,50,8,4,2,0,4
28.655,2,0,8,10,3,1,1,3
28.66,0,1,20,8,10,3,2,0
28.665,8,5,15,5,0,3,3,5
28.67,10,6,39,5,8,6,4,5
28.675,1,6,16,7,0,3,6,3
28.68,1,5,13,2,0,0,5,4
28.685,2,2,5,5,4,2,2,2
28.69,7,6,2,6,1,1,1,1
28.695,9,11,5,8,13,8,5,8
28.7,1,1,2,1,2,0,2,5
28.705,3,2,4,0,2,1,1,0
28.71,1,2,14,6,1,1,1,2
28.715,6,11,24,9,4,1,1,4
28.72,2,22,88,17,11,9,4,6
28.725,2,1,2,13,1,3,0,3
28.73,2,2,24,5,3,4,1,0
28.735,3,8,50,16,6,6,0,5
28.74,4,2,95,2,8,7,4,7
28.745,7,6,36,9,1,3,1,1
28.75,1,0,28,5,2,1,2,3
28.755,3,3,15,1,5,2,1,3
28.76,9,16,31,22,9,3,0,3
28.765,2,13,56,29,10,3,4,3
28.77,1,1,38,5,3,1,2,2
28.775,0,6,13,1,5,2,2,1
28.78,4,0,6,3,1,1,2,1
28.785,0,5,26,5,2,2,1,1
28.79,3,0,25,2,0,4,5,1
28.795,1,2,5,13,10,2,0,3
28.8,9,5,21,13,2,2,5,8
28.805,0,4,15,13,3,1,2,3
28.81,1,8,25,5,7,5,2,0
28.815,0,2,21,5,2,1,2,1
28.82,6,11,39,17,6,1,2,3
28.825,5,2,32,7,4,1,8,1
28.83,9,16,12,8,7,3,9,6
28.835,6,2,16,3,10,5,0,6
28.84,8,3,47,14,9,8,1,4
28.845,2,2,26,5,1,3,3,0
28.85,0,8,15,9,0,2,0,2
28.855,3,27,63,22,9,6,2,2
28.86,2,9,2,1,0,3,2,1
28.865,2,6,21,5,4,0,2,20
28.87,1,3,12,5,2,0,7,20
28.875,11,9,27,15,15,8,6,4
28.88,11,5,18,10,4,2,8,3
28.885,8,7,11,2,2,3,8,4
28.89,11,9,12,6,0,11,4,33
28.895,30,5,56,13,5,5,10,65
28.9,9,0,29,15,7,6,2,18
28.905,19,15,2,6,6,8,0,53
28.91,32,27,91,38,4,1,20,64
28.915,10,23,65,41,10,2,2,6
28.92,12,17,10,13,1,3,1,15
28.925,22,6,5,13,5,4,1,4
28.93,12,30,65,17,5,2,9,11
28.935,6,7,27,17,10,1,19,10
28.94,8,17,92,47,9,10,15,4
28.945,15,3,39,28,10,6,1,46
28.95,6,19,42,32,17,8,18,37
28.955,21,54,127,67,26,7,22,22
28.96,18,4,5,5,9,4,2,21
28.965,35,27,95,20,5,13,25,35
28.97,20,8,22,31,11,11,5,12
28.975,4,44,16,59,20,18,26,37
28.98,0,29,60,19,1,2,4,0
28.985,4,0,19,7,1,6,7,7
28.99,8,12,33,38,16,10,9,23
28.995,0,0,2,20,10,5,12,42
29,9,13,44,25,10,12,37,15
29.005,3,1,89,36,2,3,21,6
29.01,7,21,39,20,4,11,67,102
29.015,7,29,31,23,1,2,20,59
29.02,11,22,78,24,9,3,8,6
29.025,7,35,89,25,9,6,9,9
29.03,48,39,45,27,13,12,2,21
29.035,22,62,56,17,12,9,31,2
29.04,25,11,38,25,14,7,47,12
29.045,24,16,38,42,18,8,18,39
29.05,23,82,96,60,23,11,12,33
29.055,21,1,40,8,2,6,3,6
29.06,14,29,29,34,8,4,13,13
29.065,8,18,45,38,3,7,25,25
29.07,9,28,32,16,3,2,5,5
29.075,13,8,100,31,9,9,20,9
29.08,15,50,39,40,12,11,3,2
29.085,4,46,79,8,1,3,22,25
29.09,14,3,7,19,13,1,39,55
29.095,25,1,59,24,8,1,65,12
29.1,11,24,63,40,10,2,70,6
29.105,10,41,127,64,4,13,99,16
29.11,2,5,73,5,12,7,30,92
29.115,14,32,36,11,6,7,29,48
29.12,0,24,4,11,0,3,40,30
29.125,10,3,48,8,9,8,36,14
29.13,3,2,27,17,10,1,4,7
29.135,17,4,15,10,6,5,6,35
29.14,0,28,43,26,18,12,7,18
29.145,22,68,13,68,37,10,13,18
29.15,11,29,20,44,15,8,14,25
29.155,11,24,50,37,7,6,14,2
29.16,26,29,25,17,1,1,10,44
29.165,25,37,51,40,15,7,20,51
29.17,2,16,127,33,8,3,1,12
29.175,15,4,10,3,6,1,8,19
29.18,0,11,13,5,11,2,6,19
29.185,32,2,45,12,0,3,11,6
29.19,1,1,16,10,1,1,3,11
29.195,31,51,69,39,26,17,46,35
29.2,35,55,61,96,48,30,46,23
29.205,17,32,56,15,5,3,11,10
29.21,14,5,25,4,7,5,9,6
29.215,2,13,14,8,6,11,52,2
29.22,1,12,5,9,6,20,93,3
29.225,12,0,9,20,6,5,0,2
29.23,1,20,41,3,2,2,4,3
29.235,11,14,53,19,1,1,2,22
29.24,1,41,77,12,11,14,41,10
29.245,5,34,96,3,4,7,5,34
29.25,2,42,79,27,10,5,33,11
29.255,11,3,31,16,1,3,5,5
29.26,8,17,34,14,13,6,1,3
29.265,5,27,11,3,5,3,1,1
29.27,2,31,32,14,10,14,19,11
29.275,49,71,9,17,17,18,29,96
29.28,3,10,28,7,3,4,7,11
29.285,25,49,15,25,10,7,16,17
29.29,11,40,36,28,20,13,1,18
29.295,35,71,102,46,13,6,14,28
29.3,37,95,71,31,9,6,15,29
29.305,9,56,101,35,3,4,18,3
29.31,10,2,93,10,12,7,11,12
29.315,23,2,76,47,22,22,21,12
29.32,1,4,26,10,4,9,33,5
29.325,10,43,27,29,5,4,11,5
29.33,14,37,14,16,5,2,7,14
29.335,7,24,102,53,17,3,15,58
29.34,8,5,4,13,2,6,22,7
29.345,20,16,78,56,27,16,48,20
29.35,45,23,48,101,40,25,13,32
29.355,3,15,27,13,3,3,64,0
29.36,4,48,41,3,0,7,18,29
29.365,3,17,15,18,0,5,12,26
29.37,16,4,37,20,8,1,24,9
29.375,0,11,45,6,7,6,5,15
29.38,16,15,39,6,19,7,10,4
29.385,11,2,21,23,18,5,7,1
29.39,8,3,21,1,1,0,20,9
29.395,22,37,118,9,8,3,46,30
29.4,23,2,44,19,5,2,18,16
29.405,29,11,9,37,14,7,5,9
29.41,9,41,12,18,14,9,6,8
29.415,11,20,24,25,15,6,7,16
29.42,8,17,32,14,0,0,7,1
29.425,5,2,29,25,12,7,5,3
29.43,3,15,35,18,9,7,3,3
29.435,29,53,23,17,3,4,2,3
29.44,11,26,13,14,9,11,32,11
29.445,22,30,22,39,9,13,43,17
29.45,6,9,47,35,8,4,14,27
29.455,10,29,75,45,29,17,21,18
29.46,7,7,6,7,12,13,21,23
29.465,15,1,66,24,5,2,11,27
29.47,15,22,43,35,5,5,4,0
29.475,1,2,44,21,11,9,1,2
29.48,18,47,11,6,22,15,12,4
29.485,12,37,36,30,7,5,6,19
29.49,1,28,31,37,8,7,1,33
29.495,3,2,23,8,2,3,7,3
29.5,1,15,24,19,16,6,9,4
29.505,19,2,31,17,10,1,43,8
29.51,12,5,38,2,5,6,23,20
29.515,3,1,32,3,3,2,2,8
29.52,5,8,10,4,5,1,3,2
29.525,3,10,114,27,9,3,10,10
29.53,8,20,16,9,7,7,14,9
29.535,18,81,127,93,39,19,28,3
29.54,25,47,128,99,47,28,47,19
29.545,2,6,6,32,9,5,13,23
29.55,12,30,48,5,6,5,1,4
29.555,21,97,28,14,11,9,9,27
29.56,7,12,20,8,4,4,13,16
29.565,23,71,4,23,6,7,33,46
29.57,15,36,50,10,3,2,10,46
29.575,8,16,10,36,11,11,10,11
29.58,4,0,1,25,5,3,9,5
29.585,17,26,18,3,5,0,16,10
29.59,22,14,32,31,11,7,0,40
29.595,4,13,8,1,6,0,24,21
29.6,57,32,62,81,37,23,49,20
29.605,6,3,36,30,28,18,91,51
29.61,19,17,34,46,17,12,6,2
29.615,17,41,36,15,19,11,24,23
29.62,22,15,56,9,13,4,10,25
29.625,2,17,42,23,7,5,35,22
29.63,7,1,56,19,2,5,12,12
29.635,12,15,67,20,19,7,6,1
29.64,4,2,39,3,8,1,27,3
29.645,2,16,14,2,1,1,7,5
29.65,25,56,40,50,20,14,21,10
29.655,8,13,18,40,18,11,21,11
29.66,6,11,4,18,5,3,1,4
29.665,14,10,36,23,19,10,17,46
29.67,14,10,12,39,9,7,13,10
29.675,15,8,91,28,18,7,4,10
29.68,42,9,41,49,27,17,32,78
29.685,4,19,13,6,11,2,3,23
29.69,10,25,22,11,4,3,16,8
29.695,7,29,11,18,19,8,12,5
29.7,2,20,3,13,7,2,16,12
29.705,2,3,21,5,10,5,22,2
29.71,1,0,34,16,11,7,7,5
29.715,6,6,1,10,6,8,17,4
29.72,2,9,44,7,3,9,15,11
29.725,8,27,31,22,6,5,0,4
29.73,10,2,36,19,10,2,1,8
29.735,1,4,5,11,1,0,8,2
29.74,5,1,28,5,2,1,7,3
29.745,1,7,47,8,2,0,0,1
29.75,10,19,19,12,14,4,9,7
29.755,2,8,11,17,7,2,1,2
29.76,5,0,5,9,7,1,1,10
29.765,4,7,0,5,4,2,2,5
29.77,5,11,20,40,16,10,1,6
29.775,1,7,4,13,3,0,5,5
29.78,1,4,10,11,6,5,3,5
29.785,2,13,5,24,11,2,1,5
29.79,1,3,23,8,5,1,3,4
29.795,1,12,8,7,3,4,0,4
29.8,6,10,19,6,7,3,1,7
29.805,1,2,4,19,9,5,1,2
29.81,3,7,18,17,2,6,3,8
29.815,6,8,4,11,8,1,2,11
29.82,10,13,7,6,10,4,4,14
29.825,1,2,34,6,0,3,0,2
29.83,6,6,48,38,15,8,4,17
29.835,2,2,42,42,10,3,7,16
29.84,9,26,5,18,12,12,0,0
29.845,0,8,26,8,4,2,2,1
29.85,0,4,5,3,1,2,1,2
29.855,2,0,4,7,2,0,2,2
29.86,5,12,3,2,1,1,0,4
29.865,1,4,20,2,3,5,1,3
29.87,4,16,9,15,2,2,3,3
29.875,3,7,5,21,4,2,3,0
29.88,3,8,40,11,1,0,1,0
29.885,1,0,27,9,4,3,2,4
29.89,3,1,1,3,0,0,1,7
29.895,1,2,13,3,2,0,5,4
29.9,2,7,13,1,2,5,2,9
29.905,3,1,2,25,1,5,0,3
29.91,0,4,9,12,2,1,3,8
29.915,3,1,22,4,1,2,1,1
29.92,0,6,69,10,5,3,1,2
29.925,5,6,27,7,6,1,2,2
29.93,2,2,11,3,0,5,4,1
29.935,0,3,12,2,8,5,3,2
29.94,2,3,19,2,5,2,5,5
29.945,2,5,8,6,5,2,4,6
29.95,4,8,10,8,0,2,4,7
29.955,1,3,7,3,1,1,2,5
29.96,11,11,44,3,7,5,11,10
29.965,15,14,24,7,2,1,3,5
29.97,3,6,19,8,4,4,17,8
29.975,1,6,7,3,5,6,3,1
29.98,2,5,4,2,6,6,6,5
29.985,12,11,45,3,4,5,8,5
29.99,6,4,37,11,1,2,7,2
29.995,10,11,29,19,9,5,4,4
30,2,2,15,4,2,3,3,4
30.005,4,3,31,14,5,4,1,9
30.01,8,11,15,9,5,3,3,7
30.015,9,13,19,2,5,2,0,2
30.02,5,4,68,12,7,3,1,8
30.025,16,9,19,1,4,3,6,2
30.03,7,10,11,7,1,5,8,10
30.035,3,1,30,17,2,1,7,4
30.04,8,14,11,6,4,3,3,5
30.045,7,1,32,7,4,3,7,4
30.05,5,14,19,4,10,3,8,8
30.055,5,1,5,10,5,1,16,14
30.06,11,1,23,13,6,4,3,15
30.065,8,5,10,4,6,4,0,1
30.07,3,18,9,10,5,2,6,7
30.075,2,15,16,5,5,4,0,0
30.08,1,4,1,11,3,1,4,3
30.085,9,13,51,22,6,4,3,10
30.09,8,4,18,10,5,2,1,7
30.095,0,7,54,22,5,1,1,3
30.1,9,9,39,2,2,2,8,4
30.105,4,5,7,1,5,4,1,1
30.11,2,3,7,0,3,0,2,1
30.115,1,6,25,6,1,0,2,1
30.12,3,6,4,0,1,3,1,1
30.125,6,8,23,16,18,9,1,0
30.13,7,4,26,12,13,8,17,0
30.135,5,9,34,25,8,9,20,2
30.14,1,7,9,2,0,0,0,1
30.145,7,15,15,4,2,1,2,1
30.15,2,1,2,2,4,0,2,4
30.155,5,1,34,12,2,1,8,7
30.16,14,1,34,6,3,8,7,2
30.165,13,5,1,3,0,3,3,19
30.17,4,3,36,5,2,3,2,15
30.175,2,4,12,12,1,0,3,1
30.18,2,10,9,2,3,2,3,6
30.185,5,10,13,7,1,0,1,6
30.19,5,10,15,22,17,9,9,4
30.195,4,4,11,4,1,0,2,0
30.2,2,1,32,1,2,2,2,3
30.205,1,13,4,12,3,4,1,3
30.21,9,11,2,5,4,6,0,4
30.215,5,4,31,2,5,3,2,1
30.22,4,3,6,5,3,4,2,4
30.225,2,3,13,13,5,2,1,1
30.23,2,1,24,11,3,1,4,1
30.235,7,14,51,12,5,3,11,6
30.24,0,5,10,5,1,2,1,1
30.245,1,3,3,2,1,4,3,2
30.25,4,5,26,8,1,4,2,5
30.255,5,8,20,14,5,3,4,3
30.26,5,6,16,21,7,9,8,9
30.265,3,7,36,6,6,1,0,6
30.27,1,0,1,4,2,3,10,2
30.275,1,0,28,2,3,4,10,8
30.28,13,6,13,8,6,7,5,14
30.285,18,4,25,3,5,2,1,4
30.29,2,6,6,2,5,7,9,1
30.295,4,3,14,2,9,5,4,3
30.3,1,5,20,5,2,0,0,5
30.305,7,5,35,9,3,0,0,2
30.31,8,14,71,23,0,1,1,5
30.315,3,11,37,10,1,1,2,4
30.32,3,4,7,1,5,3,3,3
30.325,15,7,16,14,10,3,3,14
30.33,0,8,0,10,5,3,2,5
30.335,3,5,11,3,7,1,2,6
30.34,0,7,4,4,4,1,0,2
30.345,1,9,5,4,2,5,9,2
30.35,2,7,8,0,1,1,6,8
30.355,4,10,10,8,3,1,1,12
30.36,4,5,24,9,1,1,2,7
30.365,3,0,10,4,1,4,2,1
30.37,1,3,34,1,2,1,2,4
30.375,1,1,75,12,6,1,1,6
30.38,1,3,22,4,2,1,12,3
30.385,2,1,16,12,3,2,9,11
30.39,1,8,25,18,4,3,2,3
30.395,0,2,35,6,2,0,2,3
30.4,1,7,8,6,3,2,0,0
30.405,11,12,7,4,13,5,8,3
30.41,10,10,3,18,8,0,1,8
30.415,7,7,8,10,1,0,0,5
30.42,2,5,5,2,0,1,4,5
30.425,6,3,8,0,4,0,2,1
30.43,6,8,5,6,4,3,3,4
30.435,6,15,5,10,7,6,5,3
30.44,6,8,30,10,6,2,3,6
30.445,2,3,3,2,4,0,2,5
30.45,1,4,21,0,2,0,1,2
30.455,4,7,13,2,1,1,2,1
30.46,6,15,1,0,0,3,4,2
30.465,4,9,27,12,5,2,1,3
30.47,3,5,10,2,3,3,1,0
30.475,0,1,14,6,1,3,1,2
30.48,1,8,17,13,4,5,2,13
30.485,1,0,12,3,1,3,3,1
30.49,6,10,7,18,3,3,1,3
30.495,5,7,1,19,10,6,4,4
30.5,9,14,31,34,18,9,6,4
30.505,2,1,21,8,0,1,2,1
30.51,2,7,2,1,5,3,1,0
30.515,0,4,21,3,2,1,0,2
30.52,4,7,6,8,8,2,1,4
30.525,2,3,2,2,1,2,3,2
30.53,7,19,11,19,8,3,4,5
30.535,2,3,7,3,3,4,2,2
30.54,1,2,3,3,1,0,1,1
30.545,1,1,28,7,1,1,2,2
30.55,4,7,14,12,3,4,1,2
30.555,4,4,21,5,2,5,1,4
30.56,3,11,5,15,6,3,3,2
30.565,5,1,4,2,1,2,1,2
30.57,1,2,9,7,2,0,2,2
30.575,2,0,25,9,5,5,1,1
30.58,1,17,12,30,6,1,0,1
30.585,11,5,2,34,9,4,3,5
30.59,2,12,37,8,5,0,0,1
30.595,7,30,7,17,4,7,5,5
30.6,1,5,6,6,10,0,3,0
30.605,6,0,11,20,4,5,3,1
30.61,3,5,20,8,3,0,2,3
30.615,0,12,37,1,1,1,1,1
30.62,5,25,47,14,7,0,0,1
30.625,3,1,9,5,3,3,1,8
30.63,1,2,5,3,2,1,3,8
30.635,4,2,3,7,2,1,1,1
30.64,1,2,7,7,3,1,1,4
30.645,9,15,22,13,8,2,2,4
30.65,2,26,31,1,0,1,1,3
30.655,22,2,21,16,8,6,4,1
30.66,3,11,21,3,1,2,2,0
30.665,7,19,30,7,7,1,0,16
30.67,8,6,31,13,3,2,1,6
30.675,1,3,32,5,2,2,3,16
30.68,1,10,2,11,4,1,3,6
30.685,4,6,8,0,3,0,1,8
30.69,15,6,17,9,11,0,6,12
30.695,8,9,48,13,15,2,1,12
30.7,3,12,24,3,3,1,4,3
30.705,17,18,46,9,3,5,5,27
30.71,21,3,88,6,7,2,1,2
30.715,54,23,50,3,2,2,5,34
30.72,5,4,22,12,9,5,5,14
30.725,11,30,19,18,12,12,4,33
30.73,45,33,5,2,1,1,1,35
30.735,24,21,18,26,7,16,5,31
30.74,7,8,8,11,5,10,3,61
30.745,30,20,37,35,18,4,2,2
30.75,20,44,123,59,29,14,1,31
30.755,0,18,55,10,3,7,7,13
30.76,1,26,47,60,21,8,28,40
30.765,23,49,81,87,28,12,20,50
30.77,42,15,34,40,13,1,5,70
30.775,3,0,41,7,1,8,27,9
30.78,2,31,19,9,5,6,18,12
30.785,9,45,112,52,8,4,19,39
30.79,14,12,11,0,0,6,11,16
30.795,19,10,32,1,8,2,4,24
30.8,15,15,20,30,1,4,13,25
30.805,35,11,36,5,9,2,18,26
30.81,4,17,32,1,0,3,12,28
30.815,12,27,4,22,11,11,18,13
30.82,3,17,70,12,15,14,13,0
30.825,28,9,44,11,10,7,2,45
30.83,16,88,83,3,2,4,11,17
30.835,19,38,40,70,26,7,71,1
30.84,34,58,63,22,6,13,86,18
30.845,41,66,63,44,14,8,22,25
30.85,66,85,54,28,22,16,5,16
30.855,36,47,51,20,12,8,9,57
30.86,6,29,51,4,8,4,8,66
30.865,15,2,85,1,1,2,28,21
30.87,19,16,12,37,15,7,15,28
30.875,11,50,105,27,7,11,12,8
30.88,13,66,10,44,16,7,14,11
30.885,2,10,12,19,4,2,18,29
30.89,74,94,14,18,3,8,3,8
30.895,51,100,66,7,0,7,1,9
30.9,42,64,67,56,29,16,1,26
30.905,16,22,111,56,31,26,17,2
30.91,2,27,87,4,9,2,26,39
30.915,7,12,115,52,23,13,10,50
30.92,6,15,116,55,17,13,34,8
30.925,16,15,5,12,11,4,34,5
30.93,5,14,48,39,15,6,13,9
30.935,4,10,53,49,12,7,2,34
30.94,35,48,28,0,8,3,1,47
30.945,15,24,25,5,9,6,58,19
30.95,12,14,53,2,2,4,54,25
30.955,21,34,25,11,2,2,37,2
30.96,13,12,37,7,5,3,43,2
30.965,40,1,5,51,16,12,7,43
30.97,11,23,52,33,13,7,23,24
30.975,21,12,29,9,8,1,27,28
30.98,32,6,1,38,19,15,45,18
30.985,2,16,36,21,4,5,18,21
30.99,1,11,31,48,20,7,21,6
30.995,18,5,59,11,3,2,25,4
31,16,19,4,9,2,3,20,26
31.005,1,5,2,22,8,9,12,10
31.01,9,20,68,48,11,5,0,5
31.015,7,7,54,24,1,6,35,25
31.02,24,12,31,66,26,17,49,39
31.025,10,40,77,56,15,12,13,18
31.03,46,68,18,13,4,7,12,33
31.035,31,29,32,13,3,5,25,77
31.04,2,26,34,20,13,2,33,13
31.045,7,34,0,49,22,7,47,32
31.05,13,36,67,15,7,11,52,10
31.055,32,73,128,105,44,35,45,27
31.06,17,36,67,30,1,0,3,15
31.065,17,32,25,34,15,12,22,8
31.07,26,38,104,93,18,12,11,58
31.075,0,1,50,41,11,4,22,16
31.08,10,19,37,17,12,10,8,4
31.085,1,10,58,45,18,10,0,11
31.09,14,12,6,1,16,17,21,2
31.095,19,21,8,19,11,8,13,20
31.1,19,31,72,29,15,2,1,44
31.105,9,29,52,16,14,6,6,29
31.11,11,21,93,8,14,11,5,24
31.115,0,22,61,7,11,9,14,0
31.12,6,0,11,4,4,4,4,6
31.125,23,20,49,15,11,1,33,8
31.13,12,5,17,43,18,21,76,82
31.135,49,46,23,68,37,33,85,61
31.14,20,18,30,5,1,1,8,2
31.145,19,14,39,28,16,17,31,28
31.15,13,16,45,31,10,13,18,1
31.155,6,48,55,25,12,8,6,13
31.16,2,1,29,1,10,7,0,4
31.165,14,2,29,24,18,12,26,18
31.17,5,19,65,39,18,13,9,0
31.175,22,50,15,22,19,16,33,34
31.18,16,32,128,85,25,21,40,66
31.185,6,11,78,28,1,1,15,36
31.19,9,2,35,31,17,8,15,34
31.195,6,4,90,13,22,13,2,2
31.2,2,8,26,28,14,8,12,40
31.205,33,57,31,55,27,14,25,2
31.21,54,63,3,91,51,34,63,32
31.215,4,29,45,22,14,9,11,1
31.22,17,14,62,16,2,4,6,2
31.225,12,7,27,3,5,1,4,3
31.23,9,14,40,11,9,6,24,22
31.235,9,14,18,8,10,1,35,6
31.24,3,4,20,11,6,3,4,6
31.245,11,21,104,12,0,1,3,5
31.25,6,4,56,2,15,9,4,7
31.255,14,30,25,10,10,9,23,37
31.26,12,46,67,17,3,7,42,81
31.265,5,19,60,18,16,6,0,24
31.27,20,7,45,6,2,0,6,51
31.275,20,34,25,0,4,1,7,14
31.28,9,5,26,17,4,5,14,16
31.285,4,17,39,21,3,1,5,5
31.29,23,43,17,12,12,11,52,74
31.295,6,30,8,45,18,12,36,5
31.3,21,19,60,5,7,5,4,43
31.305,1,18,36,9,0,4,23,15
31.31,22,19,28,5,5,6,10,37
31.315,19,34,82,4,18,4,37,1
31.32,9,24,1,32,16,8,1,15
31.325,0,2,48,3,3,3,29,13
31.33,2,7,52,15,4,8,39,11
31.335,8,21,48,26,12,4,4,0
31.34,1,47,50,21,8,3,16,41
31.345,29,60,4,12,9,9,22,31
31.35,10,49,112,50,15,6,44,2
31.355,11,68,1,36,12,4,13,16
31.36,5,12,20,6,1,0,65,59
31.365,13,13,45,13,0,1,16,10
31.37,5,2,15,11,4,1,30,7
31.375,10,5,7,6,10,3,11,18
31.38,14,8,49,20,9,0,19,30
31.385,15,12,19,34,20,4,9,10
31.39,23,55,75,60,19,12,5,14
31.395,7,34,55,10,7,9,2,12
31.4,4,20,21,6,6,8,5,22
31.405,42,45,18,22,15,11,31,15
31.41,11,15,46,20,4,2,4,22
31.415,13,26,91,2,6,6,22,19
31.42,7,12,88,10,3,1,5,6
31.425,9,1,63,8,0,3,0,33
31.43,4,19,99,39,19,18,6,40
31.435,15,44,44,46,29,22,6,21
31.44,11,1,39,11,6,2,7,16
31.445,5,51,15,27,13,9,38,9
31.45,10,32,27,58,22,10,38,17
31.455,22,50,63,52,16,5,9,5
31.46,11,15,14,31,11,6,22,5
31.465,10,0,35,50,20,10,19,4
31.47,17,16,10,5,12,5,21,21
31.475,15,4,108,71,15,8,54,36
31.48,17,28,94,49,23,19,59,33
31.485,4,6,30,19,13,11,19,18
31.49,1,3,28,2,11,4,14,19
31.495,4,14,11,13,6,2,10,16
31.5,5,5,51,36,8,6,27,9
31.505,4,6,39,33,11,7,52,15
31.51,9,17,68,41,18,13,4,5
31.515,8,36,48,23,5,6,3,10
31.52,14,10,16,16,13,11,18,12
31.525,11,21,60,50,7,7,16,15
31.53,23,0,21,27,6,7,0,5
31.535,9,6,90,0,10,8,11,27
31.54,0,10,74,38,12,9,1,2
31.545,11,41,74,35,9,6,38,40
31.55,11,17,5,12,7,7,55,15
31.555,20,11,7,12,1,7,46,90
31.56,19,12,77,11,9,4,11,78
31.565,18,27,22,9,9,12,72,27
31.57,10,25,27,3,2,3,27,7
31.575,14,13,70,13,14,8,14,4
31.58,6,10,75,53,27,16,6,9
31.585,2,0,32,24,8,4,1,56
31.59,0,10,90,29,4,4,22,13
31.595,1,19,78,32,9,4,15,0
31.6,3,19,14,17,12,2,9,11
31.605,7,7,8,31,15,7,1,20
31.61,10,5,53,23,7,0,14,15
31.615,22,53,70,59,23,12,2,29
31.62,15,21,19,57,36,21,1,15
31.625,9,21,60,2,9,6,20,20
31.63,6,11,70,23,18,2,7,2
31.635,1,14,25,9,8,2,16,7
31.64,4,25,25,16,2,5,24,25
31.645,2,17,14,3,9,1,3,2
31.65,1,6,41,12,0,2,45,11
31.655,4,15,8,6,4,5,46,2
31.66,5,6,6,19,12,8,3,22
31.665,2,21,9,14,1,0,11,14
31.67,3,6,38,3,11,4,6,7
31.675,1,1,10,2,1,3,1,5
31.68,4,20,69,5,3,0,3,11
31.685,5,11,32,9,16,7,5,4
31.69,4,4,4,13,10,6,3,6
31.695,13,23,21,41,14,7,9,17
31.7,6,2,55,2,9,6,2,0
31.705,6,8,11,38,2,2,11,5
31.71,2,1,4,23,10,0,15,19
31.715,7,12,54,4,13,7,3,7
31.72,4,13,1,8,6,3,4,5
31.725,0,2,19,24,13,5,6,6
31.73,1,5,11,10,6,1,13,9
31.735,1,1,43,1,11,6,8,8
31.74,3,8,1,2,2,3,11,10
31.745,1,3,14,14,5,2,13,14
31.75,2,5,32,5,3,0,13,25
31.755,8,28,94,12,5,4,21,4
31.76,13,34,80,29,10,8,20,6
31.765,3,11,0,18,3,2,12,7
31.77,0,6,1,8,4,2,5,9
31.775,1,3,37,8,11,2,2,2
31.78,6,13,1,18,1,2,7,5
31.785,0,2,8,5,9,9,12,0
31.79,6,9,38,24,8,6,8,4
31.795,9,12,7,39,21,13,26,18
31.8,4,8,0,9,2,2,19,7
31.805,5,11,44,28,11,5,7,11
31.81,10,15,35,21,8,11,4,5
31.815,3,5,25,6,5,5,5,11
31.82,5,11,28,25,13,5,5,1
31.825,3,3,22,2,1,2,6,14
31.83,3,11,11,7,4,4,2,3
31.835,2,9,31,7,1,2,3,7
31.84,3,6,33,3,2,1,13,4
31.845,5,6,25,7,2,4,0,4
31.85,3,10,48,41,10,3,6,2
31.855,5,13,18,4,4,2,0,6
31.86,5,16,24,44,16,9,9,2
31.865,5,1,19,29,10,3,4,8
31.87,9,7,20,26,15,12,12,23
31.875,5,6,18,27,15,4,5,11
31.88,2,4,19,12,4,2,24,20
31.885,5,7,2,1,5,0,5,29
31.89,11,15,16,3,4,0,5,15
31.895,17,12,39,8,2,6,1,19
31.9,28,18,17,5,13,9,12,12
31.905,8,23,16,9,2,8,10,8
31.91,5,9,11,7,4,4,10,3
31.915,5,10,30,18,2,2,1,7
31.92,22,25,26,33,13,4,17,11
31.925,22,59,17,65,34,22,30,12
31.93,5,2,20,18,1,1,7,8
31.935,2,11,14,16,6,5,8,5
31.94,3,8,2,12,1,2,12,1
31.945,0,5,14,8,6,3,4,3
31.95,8,3,27,3,2,0,5,14
31.955,6,3,54,4,4,5,9,15
31.96,8,22,58,23,12,1,13,3
31.965,3,3,11,4,1,6,4,9
31.97,5,9,23,17,10,5,1,2
31.975,14,5,20,13,6,5,10,14
31.98,21,6,17,20,11,6,23,4
31.985,5,17,37,20,8,7,1,28
31.99,1,1,8,9,0,3,13,6
31.995,7,6,9,6,0,4,19,11
32,5,4,32,0,3,7,8,5
32.005,1,2,41,5,6,4,3,11
32.01,4,11,30,9,6,5,10,5
32.015,7,9,27,13,10,9,23,16
32.02,4,7,2,9,6,10,10,0
32.025,3,13,0,4,1,5,7,5
32.03,2,2,29,13,10,3,9,5
32.035,4,4,15,5,1,0,13,2
32.04,1,4,3,3,1,1,13,15
32.045,2,4,2,0,1,1,5,15
32.05,2,3,25,2,3,1,1,7
32.055,5,5,27,2,1,4,2,2
32.06,2,9,17,0,0,8,29,1
32.065,6,13,25,16,10,2,4,2
32.07,1,1,1,2,2,3,12,7
32.075,12,4,6,8,10,10,11,4
32.08,3,8,2,4,4,7,11,8
32.085,6,20,61,35,19,9,20,4
32.09,10,31,70,37,19,10,0,24
32.095,4,2,6,4,2,0,1,9
32.1,7,6,22,8,0,2,1,7
32.105,2,5,22,3,0,3,9,8
32.11,0,8,37,9,5,6,8,4
32.115,1,8,1,5,5,3,4,7
32.12,4,16,3,8,9,3,0,3
32.125,1,3,13,3,0,3,1,2
32.13,1,9,15,2,3,1,1,17
32.135,6,14,36,6,6,8,15,1
32.14,1,2,4,15,5,3,10,8
32.145,4,2,5,11,4,2,2,3
32.15,1,1,1,0,3,1,2,3
32.155,0,7,28,6,0,1,1,2
32.16,0,8,36,11,0,0,6,9
32.165,2,4,17,0,2,0,4,4
32.17,7,5,20,9,6,3,7,18
32.175,4,20,36,14,7,2,8,5
32.18,4,14,67,18,3,8,10,1
32.185,7,9,26,15,9,6,8,2
32.19,4,12,23,25,4,4,8,10
32.195,0,3,13,1,2,0,2,16
32.2,5,3,8,3,5,4,2,8
32.205,5,4,19,6,4,2,3,9
32.21,8,2,13,4,6,8,19,11
32.215,7,17,31,12,1,3,4,8
32.22,4,10,14,20,12,6,3,7
32.225,5,2,5,7,7,4,1,1
32.23,3,8,8,11,7,3,3,1
32.235,7,15,14,5,3,5,9,7
32.24,6,14,9,3,3,1,10,6
32.245,4,5,29,8,2,2,9,7
32.25,2,2,3,6,2,0,1,6
32.255,6,10,40,12,4,4,4,4
32.26,2,6,25,11,9,4,0,3
32.265,0,2,29,11,2,3,5,15
32.27,5,4,16,11,1,2,1,0
32.275,3,1,7,5,3,2,1,1
32.28,0,4,19,3,2,2,1,10
32.285,2,3,1,1,0,3,8,6
32.29,7,15,14,14,10,6,6,1
32.295,6,19,3,15,9,8,7,3
32.3,0,0,6,10,9,5,7,5
32.305,4,2,6,4,5,7,0,2
32.31,1,3,10,3,1,4,7,0
32.315,0,1,7,0,4,5,3,1
32.32,1,6,1,2,2,5,2,4
32.325,6,11,16,18,10,7,6,5
32.33,2,4,4,3,3,2,4,3
32.335,5,15,18,10,5,4,2,2
32.34,8,0,46,6,1,6,8,18
32.345,7,14,13,7,6,0,1,5
32.35,2,6,12,4,5,1,2,7
32.355,4,8,0,2,8,9,6,7
32.36,0,6,7,10,3,3,1,6
32.365,6,0,18,0,7,2,13,16
32.37,3,2,10,5,2,2,7,12
32.375,12,9,1,7,15,7,5,10
32.38,5,6,11,9,1,1,4,0
32.385,4,7,8,6,8,2,4,6
32.39,2,2,10,13,0,4,9,19
32.395,3,5,8,2,1,4,3,5
32.4,4,4,11,1,7,9,15,4
32.405,11,12,6,10,9,3,3,11
32.41,7,8,0,7,6,7,12,14
32.415,3,7,21,5,3,6,5,9
32.42,5,10,5,5,1,1,0,20
32.425,7,16,5,7,5,6,4,3
32.43,11,18,32,25,17,10,10,10
32.435,19,39,51,29,31,15,9,17
32.44,1,4,1,2,6,3,6,8
32.445,7,7,9,1,1,6,1,2
32.45,1,15,7,1,4,3,5,1
32.455,6,9,1,15,12,6,7,8
32.46,4,2,22,6,3,2,2,2
32.465,3,8,27,12,9,3,3,6
32.47,3,9,2,5,5,5,1,8
32.475,7,5,6,7,8,7,16,22
32.48,15,5,1,0,1,2,6,43
32.485,0,9,18,7,4,0,2,7
32.49,3,7,4,15,12,9,2,7
32.495,1,0,4,0,2,2,8,7
32.5,6,5,10,3,6,3,5,11
32.505,4,5,3,1,1,2,3,9
32.51,5,3,19,6,7,8,4,2
32.515,23,1,5,3,5,2,6,33
32.52,7,1,11,7,4,4,1,4
32.525,0,2,2,8,4,0,1,3
32.53,2,11,38,21,8,0,4,4
32.535,0,23,27,1,1,2,14,12
32.54,3,2,26,6,7,8,11,7
32.545,7,1,30,9,1,0,1,1
32.55,3,17,19,20,4,0,7,8
32.555,2,3,45,31,6,1,3,5
32.56,3,13,12,10,8,8,3,14
32.565,27,1,8,8,6,1,3,9
32.57,2,0,43,22,6,3,7,10
32.575,8,17,37,14,0,3,4,21
32.58,3,12,6,6,3,4,6,44
32.585,8,39,16,0,10,7,4,37
32.59,4,6,16,15,6,5,8,36
32.595,15,8,39,24,11,2,1,48
32.6,16,4,60,17,2,3,5,10
32.605,25,24,35,11,4,4,6,3
32.61,25,41,46,7,6,7,4,4
32.615,6,11,16,1,7,5,15,15
32.62,19,1,7,13,11,2,13,2
32.625,1,5,45,15,7,4,2,20
32.63,11,2,76,29,8,6,5,8
32.635,17,30,79,67,11,8,1,11
32.64,14,21,80,28,2,5,40,59
32.645,0,0,24,24,5,4,6,14
32.65,9,13,10,1,10,8,9,59
32.655,12,12,41,36,16,14,90,26
32.66,0,30,74,19,6,6,24,54
32.665,24,75,79,63,18,13,74,11
32.67,18,33,81,31,9,2,32,19
32.675,33,32,70,28,2,11,90,108
32.68,18,37,27,33,23,32,81,121
32.685,45,59,64,65,15,11,65,90
32.69,4,14,0,16,13,41,94,65
32.695,112,83,16,2,24,52,128,128
32.7,52,38,62,16,6,10,45,127
32.705,97,48,88,62,29,29,29,83
32.71,58,44,27,80,51,35,3,10
32.715,27,48,96,53,27,27,46,43
32.72,18,33,19,43,13,14,29,41
32.725,41,12,44,6,11,15,35,51
32.73,24,66,94,1,5,0,9,81
32.735,12,12,75,62,13,10,53,18
32.74,10,10,20,15,3,1,21,85
32.745,8,33,63,63,25,20,42,38
32.75,28,22,43,88,29,30,69,35
32.755,1,7,35,10,10,5,36,32
32.76,10,37,87,25,23,20,54,11
32.765,31,20,114,36,14,9,6,74
32.77,12,5,52,6,3,11,12,26
32.775,19,20,36,47,26,16,4,2
32.78,13,5,49,14,1,2,2,85
32.785,22,17,109,3,15,5,10,38
32.79,24,41,66,52,16,11,3,24
32.795,14,28,5,10,1,1,7,8
32.8,1,6,104,25,4,11,49,21
32.805,0,26,128,61,8,7,10,20
32.81,8,6,97,22,0,3,15,116
32.815,1,49,127,52,15,8,7,111
32.82,19,8,33,54,23,17,52,12
32.825,9,21,60,5,4,3,3,9
32.83,16,22,72,52,32,19,3,39
32.835,59,42,9,79,29,23,51,65
32.84,50,56,44,106,40,22,8,17
32.845,5,4,63,13,5,2,7,92
32.85,19,15,70,61,17,15,59,67
32.855,26,3,37,18,17,4,71,10
32.86,51,26,85,68,45,35,50,27
32.865,2,6,102,42,15,3,18,4
32.87,10,15,46,7,15,18,45,41
32.875,39,0,41,2,8,2,33,16
32.88,6,17,6,8,3,5,11,8
32.885,4,8,8,5,3,3,14,84
32.89,17,73,127,101,35,16,35,21
32.895,20,35,78,104,46,29,39,63
32.9,7,6,31,16,13,8,36,64
32.905,8,10,35,16,5,2,22,22
32.91,43,66,99,85,41,21,19,37
32.915,48,32,87,57,44,21,36,44
32.92,19,13,17,39,11,13,73,39
32.925,36,29,35,24,21,23,79,47
32.93,19,19,20,1,11,2,28,21
32.935,18,27,2,13,2,3,2,74
32.94,1,24,15,15,11,5,59,37
32.945,4,44,92,14,13,5,30,12
32.95,12,18,47,12,9,3,1,8
32.955,18,4,9,2,5,3,19,33
32.96,56,18,55,72,28,23,61,51
32.965,45,44,50,82,25,22,44,22
32.97,39,50,4,58,22,15,9,13
32.975,1,25,91,16,6,7,3,8
32.98,11,12,72,27,18,8,26,40
32.985,24,10,20,6,5,11,30,22
32.99,30,38,46,44,32,28,40,34
32.995,11,18,4,24,21,13,6,10
33,18,21,12,105,37,25,63,16
33.005,52,63,60,70,62,46,76,17
33.01,9,11,32,32,6,7,8,0
33.015,15,51,45,19,10,8,1,9
33.02,5,12,41,25,0,2,9,0
33.025,18,27,4,31,15,15,28,10
33.03,15,44,42,29,14,6,1,28
33.035,34,96,91,75,21,10,42,75
33.04,51,32,32,74,45,29,37,8
33.045,8,40,7,13,12,12,33,40
33.05,6,5,47,3,6,3,6,6
33.055,3,17,20,11,1,2,3,12
33.06,26,4,27,18,2,4,54,76
33.065,6,64,38,16,21,4,44,6
33.07,11,25,38,6,23,13,12,5
33.075,24,11,35,2,10,7,33,28
33.08,2,6,76,2,6,3,1,18
33.085,26,63,17,43,23,16,12,16
33.09,7,42,7,32,0,2,4,11
33.095,4,15,68,40,7,3,7,17
33.1,14,21,79,70,36,23,25,7
33.105,5,10,37,6,4,5,35,2
33.11,1,10,26,21,17,12,9,19
33.115,18,9,42,8,7,8,10,10
33.12,4,1,36,1,12,4,5,1
33.125,9,0,8,31,19,17,5,10
33.13,16,23,12,28,4,10,4,61
33.135,16,20,55,20,7,2,14,7
33.14,28,30,9,16,1,6,51,20
33.145,14,48,92,27,10,8,19,31
33.15,5,19,57,7,10,7,30,43
33.155,15,37,47,20,14,11,22,21
33.16,16,43,47,11,8,3,2,11
33.165,6,30,42,8,1,1,12,41
33.17,12,46,33,6,17,18,44,47
33.175,14,44,56,20,11,12,36,66
33.18,22,61,83,73,33,15,7,7
33.185,28,51,127,55,10,5,10,23
33.19,9,14,23,12,3,1,3,5
33.195,9,3,92,22,3,3,20,37
33.2,9,18,58,26,1,8,10,19
33.205,10,14,1,5,7,5,1,16
33.21,19,2,98,32,20,15,2,8
33.215,28,4,84,71,29,17,12,18
33.22,8,6,34,35,12,7,25,18
33.225,26,57,42,24,7,7,10,16
33.23,26,84,6,4,15,24,34,55
33.235,37,37,15,25,18,14,12,10
33.24,2,37,43,40,15,8,14,0
33.245,3,22,78,22,3,1,5,2
33.25,47,28,69,34,29,25,94,12
33.255,32,11,4,9,3,13,105,98
33.26,20,44,7,32,26,17,16,71
33.265,21,42,10,2,16,14,20,7
33.27,11,19,18,20,19,10,8,2
33.275,15,11,2,5,6,7,31,20
33.28,20,51,46,14,3,4,2,59
33.285,20,32,65,36,19,19,77,45
33.29,8,34,79,33,4,5,6,3
33.295,11,41,40,60,12,2,64,24
33.3,4,22,44,15,13,1,51,5
33.305,17,22,13,22,4,4,29,0
33.31,14,16,16,14,7,0,10,21
33.315,23,33,6,9,4,3,13,3
33.32,4,37,62,34,11,15,55,11
33.325,2,15,45,11,4,5,6,21
33.33,21,5,51,33,20,16,44,38
33.335,13,11,6,36,6,0,3,2
33.34,6,33,59,17,6,0,11,26
33.345,2,3,39,18,11,7,26,20
33.35,1,64,6,9,13,8,9,14
33.355,37,30,31,12,6,3,3,51
33.36,14,18,0,31,28,18,4,20
33.365,7,34,42,45,14,9,17,12
33.37,8,23,52,30,5,3,14,3
33.375,4,8,19,17,4,3,10,56
33.38,12,8,23,40,9,10,62,16
33.385,16,6,71,0,0,5,36,34
33.39,14,25,99,43,16,10,15,17
33.395,22,3,63,19,4,4,14,9
33.4,17,53,68,17,8,10,30,19
33.405,3,3,20,0,6,0,11,6
33.41,18,13,25,8,0,1,12,30
33.415,6,2,35,17,10,4,1,24
33.42,21,25,52,2,5,3,1,39
33.425,11,60,36,2,6,3,12,9
33.43,22,5,14,44,17,13,20,28
33.435,19,13,78,57,14,13,50,3
33.44,6,4,58,6,18,11,31,45
33.445,2,19,13,8,2,3,2,9
33.45,2,15,18,16,4,3,6,14
33.455,23,28,22,35,21,14,13,6
33.46,8,27,29,20,4,3,2,32
33.465,9,6,18,20,10,9,2,9
33.47,3,34,68,4,9,6,1,14
33.475,10,20,20,19,1,3,9,14
33.48,17,3,13,10,5,9,36,29
33.485,2,17,2,5,9,3,17,31
33.49,1,16,26,24,3,1,4,24
33.495,3,17,39,9,11,3,14,0
33.5,13,11,6,3,0,13,29,18
33.505,10,26,36,9,16,3,5,9
33.51,14,6,3,19,3,11,19,3
33.515,8,16,6,27,9,10,17,14
33.52,2,4,33,9,1,2,5,1
33.525,5,9,18,2,5,2,2,7
33.53,1,6,50,3,9,5,2,9
33.535,6,10,16,8,6,5,2,16
33.54,8,17,42,19,19,12,8,9
33.545,8,21,75,27,10,8,7,2
33.55,3,2,19,54,20,4,3,3
33.555,4,7,28,74,14,1,1,3
33.56,9,27,29,26,4,3,4,2
33.565,3,3,14,6,4,4,7,1
33.57,0,7,12,3,1,2,4,7
33.575,2,7,10,18,14,4,1,7
33.58,1,2,7,10,2,0,3,7
33.585,1,4,4,6,7,1,1,21
33.59,0,6,25,2,8,2,1,1
33.595,5,14,38,12,1,1,1,4
33.6,7,22,72,21,14,10,3,3
33.605,3,5,10,4,3,5,3,10
33.61,2,1,16,14,1,4,12,5
33.615,1,3,5,27,11,8,14,3
33.62,1,7,10,5,3,0,6,10
33.625,1,0,14,9,8,4,1,3
33.63,2,4,37,8,2,0,3,5
33.635,2,13,82,22,2,3,4,4
33.64,0,4,29,4,0,1,6,2
33.645,1,3,26,31,5,2,8,0
33.65,5,2,14,2,10,9,13,1
33.655,4,13,1,3,3,2,8,1
33.66,1,3,16,30,7,0,4,3
33.665,9,8,10,23,1,4,1,17
33.67,6,8,2,11,5,7,15,10
33.675,6,7,10,40,12,10,20,15
33.68,6,13,11,33,1,2,19,24
33.685,2,3,17,29,12,2,10,27
33.69,11,14,9,42,6,7,7,4
33.695,1,2,7,6,9,0,5,1
33.7,3,2,12,17,4,4,3,1
33.705,2,1,15,2,7,5,0,15
33.71,2,5,2,28,2,3,3,4
33.715,2,11,5,2,4,2,1,7
33.72,1,2,16,6,3,1,5,5
33.725,2,3,12,2,0,2,10,23
33.73,3,5,13,6,5,7,9,15
33.735,1,1,12,14,4,2,1,5
33.74,1,4,9,10,1,2,12,2
33.745,8,9,5,11,12,9,10,1
33.75,4,1,1,8,1,2,3,6
33.755,0,7,23,1,7,3,2,1
33.76,0,4,14,29,14,6,4,16
33.765,8,20,7,11,15,4,15,4
33.77,2,4,51,18,2,2,23,11
33.775,9,22,37,63,13,4,11,2
33.78,0,1,17,7,11,5,4,9
33.785,12,0,21,3,1,4,30,8
33.79,7,7,22,7,2,3,6,20
33.795,4,9,20,3,7,9,18,17
33.8,0,3,12,5,0,5,1,4
33.805,6,1,18,6,4,2,1,7
33.81,1,4,7,8,4,2,12,1
33.815,7,20,17,4,2,1,5,2
33.82,3,6,29,14,9,7,1,6
33.825,7,5,14,4,1,4,15,14
33.83,5,12,8,1,6,3,5,3
33.835,4,1,21,2,3,2,1,1
33.84,3,3,12,6,5,3,5,12
33.845,10,24,5,9,2,1,14,21
33.85,3,8,19,4,0,3,9,1
33.855,6,8,23,29,10,3,6,11
33.86,9,6,2,18,2,2,12,7
33.865,2,13,23,7,15,12,6,8
33.87,5,16,18,4,4,1,4,18
33.875,11,14,15,3,1,4,17,30
33.88,4,1,16,14,5,7,19,36
33.885,18,8,2,4,5,5,19,6
33.89,10,9,13,10,1,4,11,57
33.895,13,8,17,1,1,2,2,22
33.9,2,10,18,8,0,4,20,12
33.905,2,6,4,8,10,8,3,1
33.91,1,1,5,2,0,1,15,1
33.915,10,6,13,2,1,2,3,21
33.92,2,12,7,10,6,4,5,2
33.925,4,17,16,5,1,4,4,7
33.93,5,9,3,1,3,3,4,33
33.935,5,1,40,13,5,0,4,17
33.94,2,1,11,6,10,8,4,18
33.945,3,1,8,0,0,3,3,6
33.95,3,3,8,11,6,3,6,16
33.955,9,6,13,16,12,9,11,14
33.96,2,2,32,4,6,7,8,5
33.965,1,5,4,5,9,3,6,7
33.97,10,19,10,33,7,5,1,7
33.975,4,10,24,14,6,3,6,5
33.98,11,16,3,21,11,11,0,11
33.985,2,4,17,0,0,2,8,2
33.99,5,11,9,2,4,1,2,4
33.995,3,19,42,20,4,0,2,4
34,3,10,32,15,6,3,19,17
34.005,6,5,8,3,6,3,9,28
34.01,1,2,17,3,5,6,10,5
34.015,1,7,28,11,8,5,4,6
34.02,9,4,1,5,2,6,2,8
34.025,1,10,1,6,8,7,19,18
34.03,2,11,17,6,3,3,3,4
34.035,2,5,9,16,7,2,18,12
34.04,2,1,9,15,3,0,6,0
34.045,3,0,1,5,12,2,8,5
34.05,10,12,10,6,3,0,2,5
34.055,0,7,27,23,12,8,0,6
34.06,2,1,13,7,4,6,1,1
34.065,1,2,54,18,14,8,2,0
34.07,5,11,9,4,7,6,14,2
34.075,1,9,8,1,0,0,7,9
34.08,1,14,31,6,3,8,14,4
34.085,8,0,26,1,10,4,1,4
34.09,2,13,42,18,10,6,23,1
34.095,1,9,52,25,4,7,34,1
34.1,1,7,10,0,0,2,1,6
34.105,2,7,44,9,2,3,5,1
34.11,7,12,89,25,13,8,1,2
34.115,4,7,55,31,9,9,19,2
34.12,6,11,24,20,4,4,17,7
34.125,2,2,7,8,5,3,7,5
34.13,1,5,14,7,2,2,3,4
34.135,7,2,34,16,6,2,7,3
34.14,9,16,9,24,10,6,1,0
34.145,6,9,4,20,16,9,0,3
34.15,7,0,6,3,2,0,0,9
34.155,2,11,17,7,2,1,12,24
34.16,1,1,2,11,5,3,12,32
34.165,4,6,17,19,14,8,8,3
34.17,1,3,27,13,1,2,2,2
34.175,4,10,30,7,3,0,3,1
34.18,2,6,23,7,2,1,6,7
34.185,2,7,1,4,8,2,3,1
34.19,9,9,2,13,6,6,1,8
34.195,5,15,50,15,3,1,6,21
34.2,1,7,24,9,5,2,4,4
34.205,7,4,9,0,4,6,1,1
34.21,7,8,10,10,9,8,19,5
34.215,2,2,3,2,1,3,5,1
34.22,4,1,18,7,3,4,12,1
34.225,0,6,16,4,2,4,20,7
34.23,14,8,13,18,11,8,0,11
34.235,1,8,22,11,2,3,1,1
34.24,7,10,13,14,10,6,0,3
34.245,6,12,5,10,4,3,6,4
34.25,0,3,19,8,0,0,1,5
34.255,4,5,11,5,2,3,9,2
34.26,7,10,2,9,10,4,8,4
34.265,1,9,1,9,10,0,0,1
34.27,12,15,7,15,10,5,1,1
34.275,21,33,19,55,29,17,8,9
34.28,1,1,10,17,1,0,2,1
34.285,0,2,27,6,2,0,1,5
34.29,2,1,25,8,0,1,0,2
34.295,3,11,9,16,10,4,2,10
34.3,1,5,5,17,3,1,3,9
34.305,5,6,20,4,6,1,2,1
34.31,1,2,9,2,1,0,1,7
34.315,3,3,3,1,0,2,2,2
34.32,1,3,1,3,5,0,2,3
34.325,5,15,39,22,8,2,2,5
34.33,2,18,59,19,5,1,22,6
34.335,8,8,6,9,4,9,32,4
34.34,1,4,27,6,0,0,0,5
34.345,2,2,14,2,3,0,1,6
34.35,1,6,30,15,6,4,2,0
34.355,4,1,15,7,4,5,8,2
34.36,7,18,31,27,12,5,5,2
34.365,7,20,38,35,13,9,7,10
34.37,3,1,15,1,7,6,4,1
34.375,2,7,9,7,1,4,4,0
34.38,4,10,8,8,5,2,1,6
34.385,5,8,5,3,4,4,4,14
34.39,5,1,8,7,8,7,13,1
34.395,5,6,12,0,0,1,12,6
34.4,0,5,18,1,3,0,1,3
34.405,1,4,7,0,4,4,2,2
34.41,2,4,20,4,3,1,6,1
34.415,4,4,48,3,5,3,0,18
34.42,7,2,4,9,9,2,2,13
34.425,3,4,31,12,8,0,3,6
34.43,6,2,10,3,4,0,4,10
34.435,6,2,1,11,5,2,3,3
34.44,1,13,42,43,13,14,1,4
34.445,17,0,14,2,14,4,16,7
34.45,4,3,8,5,5,5,4,8
34.455,3,7,23,8,6,7,5,6
34.46,3,11,25,6,3,0,1,2
34.465,2,11,15,7,0,6,9,18
34.47,6,0,55,13,2,4,3,14
34.475,2,10,27,20,8,4,0,18
34.48,5,4,13,12,8,3,12,30
34.485,19,16,41,2,5,1,2,5
34.49,17,11,31,1,1,6,2,24
34.495,7,1,6,6,2,3,3,21
34.5,16,14,85,5,1,1,3,10
34.505,8,9,37,8,6,2,1,10
34.51,13,11,14,4,6,7,0,7
34.515,3,7,7,9,10,2,3,6
34.52,8,37,26,11,10,9,20,8
34.525,1,4,19,11,7,8,17,28
34.53,19,11,77,29,7,2,32,20
34.535,20,8,62,19,12,3,1,13
34.54,27,8,25,11,9,11,44,29
34.545,10,20,94,42,18,23,13,61
34.55,26,11,59,20,9,11,0,55
34.555,18,7,23,0,4,4,11,19
34.56,17,14,62,60,27,16,3,20
34.565,44,26,102,93,41,24,17,27
34.57,21,17,70,21,9,8,16,40
34.575,4,5,41,21,10,12,19,41
34.58,23,7,30,30,17,17,41,31
34.585,3,15,21,31,14,0,18,41
34.59,28,2,29,2,7,1,6,46
34.595,9,9,60,1,1,6,1,40
34.6,38,11,6,32,23,18,1,20
34.605,47,4,13,13,11,4,28,71
34.61,17,49,49,44,20,15,51,52
34.615,23,3,124,42,11,8,6,18
34.62,20,11,70,18,2,6,7,8
34.625,1,57,66,12,1,2,68,79
34.63,3,29,127,27,8,3,7,31
34.635,3,0,1,20,7,6,30,13
34.64,7,10,38,21,5,4,18,3
34.645,15,39,25,9,2,1,22,5
34.65,4,58,30,38,11,6,31,14
34.655,37,28,64,80,21,15,16,52
34.66,0,22,5,23,8,4,18,20
34.665,5,1,59,50,18,12,14,23
34.67,23,40,3,3,8,4,54,77
34.675,0,21,14,46,19,10,49,41
34.68,7,22,39,24,8,12,31,23
34.685,13,12,44,8,9,6,68,19
34.69,13,49,41,29,27,20,25,31
34.695,14,37,34,48,17,12,23,4
34.7,15,7,23,27,17,6,12,56
34.705,4,43,69,69,30,22,22,69
34.71,6,2,44,67,30,19,41,49
34.715,15,7,122,44,2,7,1,23
34.72,3,29,22,45,10,4,9,3
34.725,6,32,31,3,3,0,32,20
34.73,13,74,39,23,15,3,32,52
34.735,0,28,27,17,14,9,8,37
34.74,10,33,35,18,15,9,7,39
34.745,28,50,87,58,29,15,11,14
34.75,19,80,117,37,21,9,6,10
34.755,18,11,49,9,10,5,2,28
34.76,14,1,36,24,18,9,18,20
34.765,12,6,34,34,23,15,7,4
34.77,19,36,26,14,17,5,24,7
34.775,14,10,2,0,1,2,2,18
34.78,15,2,0,2,0,4,6,39
34.785,11,1,33,10,4,3,26,2
34.79,1,5,24,13,11,17,11,4
34.795,20,76,64,13,13,8,71,83
34.8,18,74,90,57,26,32,52,13
34.805,7,13,95,2,6,2,27,11
34.81,1,25,3,26,7,1,2,19
34.815,7,21,9,29,23,8,6,7
34.82,18,30,12,27,15,11,14,24
34.825,8,16,45,10,1,2,9,15
34.83,5,22,8,14,6,1,1,5
34.835,12,11,2,11,11,6,19,7
34.84,3,28,3,6,3,3,7,5
34.845,9,33,14,13,4,4,16,1
34.85,14,8,19,4,8,7,16,6
34.855,3,12,28,21,2,1,18,17
34.86,6,10,99,75,19,9,16,3
34.865,4,10,49,13,16,12,7,2
34.87,13,18,6,24,6,4,4,4
34.875,13,12,5,6,4,3,2,46
34.88,14,37,127,84,26,15,25,27
34.885,8,39,39,53,19,12,16,0
34.89,16,5,25,1,4,4,2,1
34.895,15,2,10,18,19,7,4,2
34.9,8,5,0,15,3,6,11,31
34.905,23,20,21,4,5,2,4,32
34.91,13,25,28,12,7,11,27,18
34.915,17,42,71,19,2,0,3,2
34.92,18,27,62,39,16,10,9,4
34.925,20,65,52,5,5,7,23,30
34.93,17,38,43,17,15,7,9,21
34.935,31,47,90,44,25,12,7,7
34.94,18,27,12,20,11,8,20,17
34.945,6,57,26,15,1,1,34,6
34.95,14,12,25,23,4,4,14,11
34.955,6,25,77,25,4,5,14,4
34.96,9,13,113,50,6,6,31,18
34.965,16,4,111,62,24,15,13,52
34.97,3,7,17,10,8,10,56,11
34.975,19,43,124,63,22,16,29,26
34.98,30,58,118,72,15,5,5,22
34.985,43,72,111,45,11,4,7,43
34.99,3,46,3,7,5,4,27,13
34.995,27,18,33,47,28,14,17,5
35,21,30,48,49,21,10,23,15
35.005,21,50,63,22,18,14,71,81
35.01,7,25,15,45,18,16,76,68
35.015,9,6,9,16,4,3,1,20
35.02,8,17,19,23,2,0,19,25
35.025,20,33,15,44,14,5,26,1
35.03,2,36,28,21,13,8,1,32
35.035,12,52,52,11,6,7,1,18
35.04,7,8,1,12,6,8,24,21
35.045,47,11,2,36,21,13,47,31
35.05,58,37,26,66,35,16,33,39
35.055,18,11,31,15,4,1,19,7
35.06,5,1,7,24,11,8,6,1
35.065,6,4,92,18,11,8,8,38
35.07,35,43,28,14,14,8,36,49
35.075,16,4,8,2,3,1,15,8
35.08,25,60,30,49,32,21,39,4
35.085,2,22,108,59,25,15,0,11
35.09,17,16,123,37,10,4,26,15
35.095,5,18,20,4,4,3,15,12
35.1,37,44,51,64,29,20,39,43
35.105,56,79,44,68,46,29,78,35
35.11,7,12,39,41,12,9,21,17
35.115,4,23,54,30,12,6,9,1
35.12,7,12,1,35,17,12,5,11
35.125,47,46,36,49,24,15,7,7
35.13,53,17,11,22,8,7,10,21
35.135,4,19,25,11,6,4,11,9
35.14,7,19,5,12,4,10,6,39
35.145,4,11,10,4,6,1,0,6
35.15,29,6,35,7,2,3,12,19
35.155,8,14,48,1,7,4,15,8
35.16,22,19,62,59,22,10,20,42
35.165,5,38,67,43,13,2,64,44
35.17,7,3,33,38,18,10,37,3
35.175,10,19,2,60,21,12,14,15
35.18,6,3,30,0,2,0,21,7
35.185,1,4,19,15,2,4,30,15
35.19,5,9,13,5,3,0,9,29
35.195,48,2,80,37,26,20,46,46
35.2,15,2,32,59,40,32,68,70
35.205,1,6,0,1,5,12,31,65
35.21,2,7,62,9,2,5,1,23
35.215,1,3,66,31,11,6,10,9
35.22,3,5,24,1,2,1,4,20
35.225,2,12,39,0,4,5,10,4
35.23,23,34,17,11,9,4,36,0
35.235,18,13,9,4,5,5,11,12
35.24,15,24,110,22,16,10,2,24
35.245,28,20,36,40,14,10,2,2
35.25,4,21,40,14,14,9,23,0
35.255,8,46,1,11,1,1,12,2
35.26,5,2,63,2,10,1,28,4
35.265,5,22,36,1,4,5,36,22
35.27,10,20,64,6,8,6,5,29
35.275,3,23,6,16,3,0,29,1
35.28,6,5,7,22,0,3,23,3
35.285,9,22,56,25,13,6,42,42
35.29,18,23,51,33,17,10,7,55
35.295,18,4,56,22,0,1,1,2
35.3,17,17,55,34,6,1,11,24
35.305,18,46,8,3,2,6,39,78
35.31,1,18,28,21,7,4,1,10
35.315,17,51,19,21,7,4,30,34
35.32,1,11,50,3,5,4,6,14
35.325,9,6,17,10,9,6,4,6
35.33,4,2,4,2,4,0,2,12
35.335,9,3,51,7,13,7,18,14
35.34,8,15,24,1,3,4,9,26
35.345,18,33,64,36,15,9,10,24
35.35,20,55,44,50,15,7,1,14
35.355,6,23,38,9,12,5,6,7
35.36,11,31,17,11,8,7,17,25
35.365,10,14,22,11,12,6,13,9
35.37,12,24,71,20,14,6,2,3
35.375,17,30,9,29,11,9,5,4
35.38,14,20,3,9,3,1,8,19
35.385,4,6,6,40,17,8,5,12
35.39,5,1,1,21,2,0,2,10
35.395,3,11,49,31,23,7,6,6
35.4,8,9,60,18,2,3,1,14
35.405,2,2,5,3,5,2,5,13
35.41,2,9,3,29,13,6,4,1
35.415,0,13,5,4,7,4,3,7
35.42,2,1,7,7,1,1,8,13
35.425,0,5,27,1,1,1,1,2
35.43,6,9,14,43,17,6,5,5
35.435,6,1,48,13,6,9,11,7
35.44,8,19,32,28,16,8,9,17
35.445,6,21,55,44,16,6,9,20
35.45,1,1,2,19,7,1,2,3
35.455,1,0,35,18,6,2,1,7
35.46,2,1,10,12,6,1,3,1
35.465,3,8,24,8,5,4,4,8
35.47,3,5,22,4,10,9,9,11
35.475,5,1,10,9,3,1,7,14
35.48,1,1,8,1,1,8,10,5
35.485,2,5,7,13,3,0,17,4
35.49,2,4,9,31,5,1,3,4
35.495,4,14,0,6,9,7,12,2
35.5,1,9,1,13,7,3,12,1
35.505,1,1,17,5,1,1,5,8
35.51,2,11,36,11,5,1,3,6
35.515,12,20,42,28,14,12,10,9
35.52,0,1,6,3,9,4,6,8
35.525,2,2,11,31,7,2,0,0
35.53,2,1,21,1,1,4,5,4
35.535,4,7,8,3,3,4,7,2
35.54,4,6,40,9,9,8,18,12
35.545,6,22,24,12,8,7,0,17
35.55,3,4,2,11,10,1,14,12
35.555,3,16,22,22,8,12,27,20
35.56,3,15,29,37,8,15,23,2
35.565,7,2,18,7,2,2,13,2
35.57,2,11,31,3,3,1,3,3
35.575,10,5,2,4,0,1,8,3
35.58,13,5,6,17,1,5,5,13
35.585,2,9,11,5,2,6,4,12
35.59,4,10,2,12,5,7,5,8
35.595,7,3,9,7,1,1,1,7
35.6,3,12,83,24,5,4,0,5
35.605,17,4,8,6,1,2,6,4
35.61,2,10,30,15,6,3,6,1
35.615,1,0,2,7,2,4,2,2
35.62,2,1,3,5,5,3,0,0
35.625,4,0,20,7,1,1,2,1
35.63,6,6,41,0,2,0,10,4
35.635,6,6,17,25,9,3,7,0
35.64,6,13,1,5,12,4,1,12
35.645,3,14,9,13,5,1,4,4
35.65,1,3,27,13,8,2,15,13
35.655,7,16,12,12,7,3,11,13
35.66,1,6,7,0,4,6,4,1
35.665,4,5,65,1,2,5,4,12
35.67,3,8,22,1,6,3,9,14
35.675,6,10,4,24,8,4,2,8
35.68,3,11,57,11,1,4,16,6
35.685,11,18,22,6,5,0,8,6
35.69,3,13,2,15,7,2,8,10
35.695,5,1,22,18,11,8,11,11
35.7,7,10,43,4,3,9,22,5
35.705,2,4,75,11,6,4,4,11
35.71,15,17,3,5,1,1,7,10
35.715,6,8,33,13,8,2,6,2
35.72,3,9,13,12,4,2,2,2
35.725,5,2,29,6,0,4,4,7
35.73,4,5,21,5,7,1,1,1
35.735,8,7,16,12,6,5,7,5
35.74,4,5,4,1,1,2,23,18
35.745,10,15,11,8,7,3,4,10
35.75,3,3,17,7,3,0,8,5
35.755,4,2,47,7,5,5,8,10
35.76,1,6,19,6,1,0,4,3
35.765,2,11,7,11,1,2,1,1
35.77,6,1,16,15,1,3,2,4
35.775,4,3,13,1,3,4,10,2
35.78,1,9,8,3,0,0,6,1
35.785,6,0,18,19,2,2,2,8
35.79,2,10,31,3,2,2,4,1
35.795,3,7,36,7,4,0,3,0
35.8,1,2,15,13,1,0,6,0
35.805,0,7,20,7,3,1,1,4
35.81,2,5,9,6,2,2,2,27
35.815,3,4,10,14,5,1,15,2
35.82,11,1,7,9,0,3,14,6
35.825,25,6,22,17,3,0,8,3
35.83,6,6,15,14,3,1,11,8
35.835,2,9,16,9,3,5,5,0
35.84,1,14,66,10,9,6,8,1
35.845,3,11,14,9,2,0,7,5
35.85,5,5,16,16,14,4,4,11
35.855,5,2,24,2,2,2,3,12
35.86,2,2,11,3,1,1,0,14
35.865,0,9,10,2,2,0,1,11
35.87,11,5,11,7,6,5,7,17
35.875,1,2,15,19,7,7,0,0
35.88,10,19,8,7,3,1,4,7
35.885,0,6,7,1,1,1,2,1
35.89,3,3,15,12,9,8,1,5
35.895,3,9,23,10,4,4,0,6
35.9,1,3,6,11,11,4,4,7
35.905,9,6,11,31,20,11,12,8
35.91,4,7,35,8,9,8,4,2
35.915,3,7,26,3,5,4,1,5
35.92,13,8,16,7,2,0,2,15
35.925,10,6,33,15,7,6,11,14
35.93,3,8,61,21,9,2,9,6
35.935,6,8,7,8,8,5,3,2
35.94,3,9,5,1,1,0,7,16
35.945,10,3,3,3,2,3,15,35
35.95,15,13,28,10,6,4,0,6
35.955,7,14,20,1,4,5,1,4
35.96,0,0,1,7,2,1,3,0
35.965,3,2,1,1,0,2,9,9
35.97,18,19,48,17,8,4,16,23
35.975,25,37,99,44,17,12,31,32
35.98,1,6,10,9,8,4,2,5
35.985,1,0,20,7,5,2,3,13
35.99,5,6,6,4,4,6,3,8
35.995,0,1,35,19,1,1,11,10
36,4,5,10,1,7,1,5,8
36.005,6,9,34,7,1,6,9,2
36.01,3,12,9,6,7,2,3,4
36.015,2,9,17,13,6,1,2,1
36.02,3,4,6,3,3,3,9,12
36.025,3,3,4,7,2,2,8,15
36.03,3,7,9,18,8,9,9,7
36.035,6,7,7,6,3,1,3,0
36.04,1,4,62,6,2,1,1,1
36.045,3,2,50,13,1,2,5,3
36.05,5,6,24,3,3,1,3,8
36.055,1,7,20,5,0,1,2,4
36.06,2,6,16,17,9,0,1,0
36.065,3,7,22,28,11,9,6,3
36.07,0,5,13,5,2,3,2,1
36.075,2,1,37,6,0,3,3,4
36.08,5,1,39,4,1,3,4,3
36.085,1,13,8,1,2,2,1,9
36.09,6,21,25,5,1,1,2,15
36.095,3,10,20,3,4,1,4,8
36.1,4,7,34,10,4,6,1,3
36.105,7,5,23,11,3,4,2,0
36.11,3,2,21,4,0,2,1,2
36.115,11,15,42,15,8,4,7,7
36.12,11,23,33,13,11,6,9,1
36.125,1,1,3,4,0,2,1,1
36.13,3,1,13,9,9,4,12,4
36.135,5,7,16,7,6,1,12,8
36.14,3,0,6,1,5,2,1,1
36.145,2,9,13,29,4,1,2,20
36.15,6,20,55,33,14,2,9,36
36.155,2,0,50,8,4,2,7,2
36.16,3,6,54,19,8,4,3,1
36.165,4,14,72,31,14,4,5,7
36.17,13,30,85,31,18,12,11,4
36.175,1,3,10,1,6,1,3,11
36.18,1,0,4,7,3,5,1,8
36.185,4,2,17,4,3,2,0,3
36.19,3,9,23,1,5,1,4,4
36.195,7,0,13,3,4,5,4,3
36.2,24,14,32,3,5,1,1,5
36.205,1,5,8,2,5,2,5,3
36.21,2,6,9,2,2,5,6,1
36.215,6,4,7,3,2,0,8,6
36.22,10,7,22,5,7,6,10,4
36.225,2,3,25,10,3,1,3,4
36.23,12,14,39,19,7,0,7,12
36.235,19,7,28,18,8,4,6,38
36.24,1,3,1,3,1,1,10,0
36.245,8,10,52,0,11,7,1,5
36.25,6,5,38,3,2,5,3,8
36.255,4,8,24,6,6,1,1,8
36.26,6,9,34,10,1,0,4,5
36.265,15,5,6,15,1,6,2,7
36.27,15,4,34,9,0,1,2,3
36.275,11,4,8,2,4,0,2,29
36.28,5,16,8,23,9,5,4,19
36.285,46,0,47,27,5,1,14,65
36.29,85,7,14,14,9,10,19,62
36.295,20,4,4,33,8,6,16,1
36.3,13,15,16,19,12,7,5,9
36.305,3,7,11,3,1,1,2,3
36.31,8,27,94,29,11,8,4,35
36.315,22,7,5,5,3,2,4,41
36.32,7,23,127,26,1,4,0,36
36.325,3,31,4,17,6,15,5,32
36.33,4,6,4,31,9,19,4,16
36.335,7,25,71,24,10,1,3,1
36.34,8,38,128,42,11,4,2,3
36.345,23,1,53,9,5,6,10,20
36.35,20,24,33,25,0,6,3,7
36.355,6,27,18,8,8,0,2,12
36.36,0,26,16,3,6,4,18,24
36.365,9,28,50,16,8,5,38,28
36.37,4,41,52,39,14,14,33,9
36.375,4,15,26,21,4,6,10,23
36.38,0,27,113,42,8,4,4,5
36.385,2,7,12,14,14,10,31,37
36.39,9,14,20,32,6,4,47,14
36.395,23,36,20,41,23,14,9,115
36.4,23,46,72,27,11,7,9,83
36.405,12,32,43,11,1,8,39,15
36.41,25,55,18,4,3,9,11,23
36.415,5,26,43,32,2,14,47,1
36.42,8,39,98,6,4,4,10,21
36.425,5,30,31,20,2,9,8,12
36.43,31,40,98,22,4,9,19,55
36.435,24,8,48,35,3,7,0,16
36.44,2,36,22,39,11,1,9,78
36.445,5,37,43,24,11,7,2,60
36.45,6,16,73,60,19,9,1,10
36.455,11,8,95,10,2,2,8,18
36.46,50,36,52,68,19,17,7,14
36.465,19,20,74,19,5,0,5,33
36.47,40,43,46,45,28,17,25,28
36.475,44,78,73,78,40,27,38,33
36.48,1,1,20,32,1,7,24,33
36.485,18,10,28,7,0,2,25,43
36.49,14,7,9,3,4,4,0,3
36.495,3,30,59,32,16,12,10,44
36.5,11,25,78,36,16,9,7,40
36.505,19,11,62,48,17,9,5,21
36.51,34,22,8,2,8,5,5,11
36.515,5,20,26,35,2,3,2,15
36.52,11,9,64,44,10,1,0,47
36.525,7,19,17,54,22,11,3,9
36.53,8,11,9,1,0,3,31,2
36.535,10,7,24,29,13,7,25,19
36.54,3,8,42,25,13,5,10,18
36.545,15,64,108,56,19,11,3,19
36.55,16,29,57,57,18,10,3,12
36.555,7,1,25,22,1,2,4,36
36.56,31,5,97,11,7,15,32,26
36.565,19,2,51,17,2,11,31,106
36.57,3,6,2,8,8,3,19,5
36.575,0,19,53,2,6,3,1,5
36.58,6,23,55,13,5,12,53,8
36.585,2,28,62,34,9,7,45,16
36.59,17,43,9,19,4,4,4,26
36.595,21,58,66,69,19,9,12,17
36.6,37,75,103,115,50,28,17,18
36.605,2,2,101,40,13,7,5,2
36.61,21,19,37,37,17,10,3,23
36.615,7,37,33,5,1,2,62,59
36.62,34,33,9,4,5,8,49,65
36.625,20,14,52,22,10,4,6,28
36.63,6,23,2,4,9,1,0,7
36.635,11,34,72,53,4,0,12,2
36.64,39,28,126,17,2,1,4,37
36.645,11,32,16,20,6,1,3,35
36.65,15,11,89,29,7,2,2,11
36.655,7,36,4,1,7,4,10,14
36.66,23,67,35,47,27,13,8,4
36.665,15,45,62,1,4,3,11,2
36.67,1,11,14,3,3,9,22,55
36.675,1,9,73,1,2,1,20,38
36.68,28,9,13,10,1,1,9,34
36.685,39,15,42,5,5,1,1,35
36.69,1,50,52,23,9,9,19,4
36.695,5,8,42,24,12,10,4,14
36.7,14,57,88,32,10,3,13,13
36.705,16,19,60,15,2,2,6,13
36.71,17,20,3,4,1,10,32,41
36.715,9,22,18,36,18,7,30,54
36.72,25,56,123,94,39,16,25,28
36.725,24,69,115,98,31,10,12,8
36.73,1,47,78,20,9,8,9,10
36.735,32,73,104,60,26,19,28,35
36.74,38,88,62,54,24,16,55,23
36.745,3,9,48,13,0,2,21,7
36.75,19,27,69,28,9,6,11,3
36.755,22,3,36,43,18,12,16,20
36.76,13,19,8,34,14,5,4,25
36.765,18,14,73,57,27,14,20,32
36.77,2,72,52,13,9,6,0,25
36.775,8,22,84,47,12,11,6,7
36.78,0,0,49,29,9,6,18,17
36.785,7,7,40,54,19,9,11,15
36.79,19,6,88,30,7,8,33,1
36.795,7,8,9,11,6,2,9,1
36.8,2,1,20,13,2,1,17,6
36.805,27,45,71,19,12,11,27,74
36.81,23,78,18,27,22,13,29,30
36.815,6,10,49,14,4,2,13,30
36.82,18,47,122,43,12,4,5,21
36.825,26,25,4,25,12,14,12,21
36.83,29,49,52,33,25,20,35,18
36.835,14,39,105,44,21,11,6,17
36.84,7,22,45,30,18,11,19,27
36.845,23,39,44,30,12,10,15,16
36.85,2,28,5,16,4,1,6,3
36.855,8,31,73,17,6,6,2,4
36.86,9,25,16,3,4,10,40,24
36.865,5,9,69,33,8,13,54,54
36.87,18,6,46,10,13,9,3,8
36.875,15,5,37,10,8,5,5,5
36.88,9,25,47,27,10,5,15,13
36.885,26,59,6,8,0,0,35,35
36.89,25,45,82,14,0,0,29,61
36.895,37,57,29,20,9,3,12,43
36.9,50,86,113,65,21,11,4,8
36.905,8,30,45,24,6,11,27,6
36.91,6,18,2,39,6,3,4,32
36.915,12,19,50,21,11,7,9,21
36.92,13,42,73,3,4,5,34,1
36.925,9,13,28,21,4,7,2,22
36.93,6,13,6,12,4,3,15,11
36.935,5,9,37,12,7,2,18,14
36.94,12,3,31,54,15,13,23,1
36.945,16,6,25,5,5,6,39,64
36.95,17,68,37,45,14,7,19,6
36.955,20,35,3,24,12,6,14,7
36.96,15,26,49,22,4,5,15,1
36.965,61,10,37,25,17,13,57,19
36.97,40,31,66,2,3,7,26,33
36.975,26,60,26,31,11,5,13,18
36.98,14,3,39,26,20,13,3,20
36.985,18,27,65,13,5,3,2,45
36.99,20,13,11,15,14,10,30,47
36.995,13,29,20,41,18,16,24,15
37,1,9,43,6,8,4,0,9
37.005,1,43,110,69,20,12,2,12
37.01,21,29,71,62,17,7,5,52
37.015,8,18,6,3,3,1,3,12
37.02,15,17,21,3,2,3,6,62
37.025,21,21,63,2,11,8,21,11
37.03,6,17,75,7,4,6,22,9
37.035,8,52,78,25,0,2,27,0
37.04,8,60,89,32,0,5,42,2
37.045,17,44,6,7,5,3,7,10
37.05,24,12,1,4,6,1,12,20
37.055,32,25,6,15,9,8,6,39
37.06,25,35,51,21,7,6,21,3
37.065,2,19,33,16,8,6,3,1
37.07,3,9,82,4,9,5,30,9
37.075,6,10,29,5,3,1,14,13
37.08,19,45,50,25,12,11,38,21
37.085,26,58,8,47,14,15,43,11
37.09,2,15,35,15,7,6,3,5
37.095,44,93,127,69,34,16,26,51
37.1,32,57,37,59,42,21,20,34
37.105,11,19,3,31,10,7,5,4
37.11,16,2,43,12,7,4,8,32
37.115,2,21,13,4,13,12,25,16
37.12,22,0,1,40,20,13,40,3
37.125,3,6,9,4,2,4,14,0
37.13,12,4,58,11,6,6,7,7
37.135,8,4,15,17,8,2,17,21
37.14,4,1,28,13,5,5,21,23
37.145,9,17,59,17,9,5,30,11
37.15,0,2,18,4,5,7,11,19
37.155,4,15,6,1,5,1,26,31
37.16,6,3,15,32,8,4,3,7
37.165,6,23,53,39,13,7,3,4
37.17,9,12,27,18,3,1,3,4
37.175,5,4,11,2,11,9,5,1
37.18,12,18,15,36,15,6,5,16
37.185,3,5,51,15,1,1,8,2
37.19,13,18,9,27,7,7,11,4
37.195,6,8,1,3,8,4,8,5
37.2,4,9,17,1,1,5,9,1
37.205,4,9,2,6,6,0,7,14
37.21,1,1,20,2,5,0,6,18
37.215,3,5,16,16,2,1,7,14
37.22,3,4,14,4,5,6,20,17
37.225,1,10,53,5,2,1,2,1
37.23,2,3,36,15,3,1,4,4
37.235,4,2,34,8,0,1,6,9
37.24,5,3,29,4,2,3,6,10
37.245,4,0,17,11,8,8,9,8
37.25,4,3,7,24,6,1,2,4
37.255,7,19,48,21,7,1,2,2
37.26,7,20,82,31,9,2,0,3
37.265,1,1,11,12,3,2,5,2
37.27,9,18,39,8,7,7,9,10
37.275,12,13,26,20,6,6,5,7
37.28,5,6,19,15,1,0,1,9
37.285,1,0,24,28,10,4,5,0
37.29,3,0,6,11,5,4,6,1
37.295,0,3,4,12,8,0,12,0
37.3,2,1,1,5,0,2,2,11
37.305,2,0,16,4,6,5,3,2
37.31,2,4,6,8,6,2,11,8
37.315,3,5,9,9,4,3,16,6
37.32,0,2,12,17,6,1,2,19
37.325,3,9,12,4,2,3,1,5
37.33,4,1,24,16,7,7,27,3
37.335,1,2,29,4,5,4,5,17
37.34,2,4,11,8,1,2,3,5
37.345,3,9,22,3,1,1,11,4
37.35,1,1,11,2,1,3,12,1
37.355,13,22,48,51,21,17,11,10
37.36,0,9,31,13,13,4,4,1
37.365,0,1,9,5,3,4,1,4
37.37,5,4,6,16,6,2,4,1
37.375,9,25,68,23,16,13,23,16
37.38,1,19,4,23,17,9,11,12
37.385,19,14,50,25,15,7,22,8
37.39,4,5,12,1,2,3,5,1
37.395,3,8,4,16,6,1,2,2
37.4,3,1,24,10,4,4,4,1
37.405,4,5,14,2,1,0,15,16
37.41,0,2,11,5,4,7,22,19
37.415,3,10,15,8,11,6,5,0
37.42,5,7,24,16,3,3,9,11
37.425,1,11,2,14,4,2,9,20
37.43,5,6,28,24,6,0,7,19
37.435,4,13,3,13,5,3,5,3
37.44,2,8,28,12,5,5,13,10
37.445,8,14,3,1,7,3,1,1
37.45,0,8,13,10,2,3,16,10
37.455,0,5,21,7,4,3,17,14
37.46,4,8,22,1,4,1,9,8
37.465,1,2,1,16,9,7,10,4
37.47,2,10,16,20,6,0,10,1
37.475,7,4,6,3,1,2,16,10
37.48,1,4,5,10,5,3,32,24
37.485,14,2,9,6,0,7,7,2
37.49,17,4,6,1,1,2,1,16
37.495,1,3,24,13,7,6,15,3
37.5,1,0,16,1,3,8,10,10
37.505,3,2,6,0,4,6,16,10
37.51,5,3,9,11,2,2,6,2
37.515,9,10,11,30,10,8,3,10
37.52,5,1,1,0,1,0,0,19
37.525,0,12,26,1,2,1,6,0
37.53,7,0,4,7,3,1,3,2
37.535,7,18,7,23,14,4,6,3
37.54,0,4,30,3,6,5,3,4
37.545,18,33,70,47,28,19,13,7
37.55,4,4,11,5,1,2,2,7
37.555,0,13,26,8,0,2,7,10
37.56,3,2,14,3,3,2,1,1
37.565,7,5,28,24,10,6,8,9
37.57,13,16,7,10,11,9,9,13
37.575,0,3,7,12,7,4,8,5
37.58,0,0,23,9,5,3,5,12
37.585,10,17,28,18,4,5,5,8
37.59,7,6,1,5,4,4,5,8
37.595,1,7,15,4,2,2,3,10
37.6,5,9,16,4,6,6,2,3
37.605,0,2,4,2,4,1,2,3
37.61,2,12,38,10,3,5,13,2
37.615,1,12,97,12,5,2,5,4
37.62,1,2,31,11,7,9,11,23
37.625,7,15,1,3,3,0,1,16
37.63,5,18,9,5,4,6,5,2
37.635,2,3,3,6,7,4,4,2
37.64,9,9,19,7,2,5,7,4
37.645,11,7,6,9,1,0,3,8
37.65,7,10,6,6,5,1,2,3
37.655,4,2,26,4,1,2,0,1
37.66,6,7,34,6,2,2,1,5
37.665,5,5,46,4,5,3,5,1
37.67,7,14,36,11,7,1,2,2
37.675,5,2,21,3,6,6,9,18
37.68,2,6,31,0,2,1,1,3
37.685,4,11,41,10,1,3,6,6
37.69,4,7,93,4,2,0,7,5
37.695,6,3,10,20,2,1,7,11
37.7,3,5,32,4,1,2,4,6
37.705,3,4,31,13,8,6,4,0
37.71,12,17,40,19,9,6,1,5
37.715,5,16,27,9,8,8,2,3
37.72,5,7,4,0,3,1,4,7
37.725,1,4,8,13,7,1,6,12
37.73,4,2,5,15,1,1,7,17
37.735,4,1,7,1,3,0,3,2
37.74,3,14,54,13,3,0,2,0
37.745,2,22,53,31,9,10,10,1
37.75,16,7,16,8,7,2,3,7
37.755,5,9,6,10,9,2,9,1
37.76,2,2,23,9,5,1,0,1
37.765,3,10,9,15,1,2,1,3
37.77,8,16,15,13,14,10,3,1
37.775,4,10,7,7,1,4,5,4
37.78,8,11,24,2,4,4,3,3
37.785,3,3,3,12,14,6,5,4
37.79,1,5,34,14,9,7,4,7
37.795,4,3,19,0,6,1,4,0
37.8,4,4,11,5,6,2,3,0
37.805,6,6,1,14,5,0,4,6
37.81,1,3,4,6,4,3,3,7
37.815,1,8,7,6,4,5,5,1
37.82,3,1,25,8,2,3,7,5
37.825,8,1,36,0,3,3,2,1
37.83,12,4,42,1,0,2,4,0
37.835,2,1,13,5,0,3,6,5
37.84,5,1,27,3,2,2,3,7
37.845,9,5,6,2,0,0,3,10
37.85,4,1,19,6,2,1,2,3
37.855,2,2,3,7,1,2,0,5
37.86,2,3,9,12,8,6,8,0
37.865,0,4,2,7,0,0,5,2
37.87,0,5,8,2,4,2,1,3
37.875,2,5,14,9,0,3,4,1
37.88,1,0,20,1,1,1,2,0
37.885,4,1,41,8,11,4,2,4
37.89,7,8,20,17,4,8,5,2
37.895,8,7,21,7,3,5,4,3
37.9,4,9,25,9,9,3,1,1
37.905,1,4,10,2,6,6,8,15
37.91,2,2,8,3,1,2,2,0
37.915,8,5,19,12,5,2,3,8
37.92,11,9,22,23,10,6,0,1
37.925,2,0,2,1,3,1,2,13
37.93,2,4,18,1,3,0,2,1
37.935,3,5,4,0,1,0,1,3
37.94,2,2,4,8,6,5,1,1
37.945,1,2,9,8,2,2,4,10
37.95,3,3,11,4,6,2,7,10
37.955,1,4,3,4,2,1,1,1
37.96,5,10,42,20,7,2,7,4
37.965,16,35,36,47,21,10,0,1
37.97,5,12,5,20,9,4,3,5
37.975,5,9,10,1,4,1,2,2
37.98,4,11,31,7,1,1,3,0
37.985,3,3,5,3,7,4,6,6
37.99,4,7,3,14,4,2,2,10
37.995,5,16,12,31,13,11,10,26
38,5,1,27,1,6,4,1,1
38.005,6,7,26,9,4,6,2,5
38.01,2,1,12,4,3,0,2,1
38.015,0,1,1,9,4,4,3,0
38.02,0,5,14,1,0,4,6,4
38.025,3,4,10,1,2,3,4,3
38.03,4,2,12,0,3,5,6,2
38.035,4,4,14,7,3,3,2,9
38.04,11,0,0,8,5,5,5,20
38.045,3,6,11,2,2,2,4,6
38.05,2,3,23,9,7,7,8,4
38.055,7,3,20,2,5,0,1,0
38.06,4,2,23,1,7,3,0,7
38.065,2,19,49,25,20,7,5,3
38.07,6,18,53,7,8,6,4,15
38.075,9,15,13,18,16,3,3,5
38.08,5,16,21,6,7,7,3,2
38.085,1,0,11,1,2,3,2,0
38.09,1,2,22,8,8,6,3,6
38.095,1,4,12,3,4,1,2,1
38.1,5,20,37,15,8,5,1,5
38.105,6,7,8,8,1,0,2,1
38.11,5,1,16,5,3,1,1,4
38.115,12,4,24,2,3,5,4,0
38.12,9,4,5,3,3,5,4,11
38.125,13,0,7,7,7,7,7,5
38.13,6,4,0,5,3,4,3,3
38.135,3,7,13,12,7,2,0,1
38.14,6,13,21,18,8,7,1,5
38.145,4,1,6,5,4,1,3,0
38.15,10,2,6,7,1,2,0,5
38.155,3,17,49,37,11,5,3,1
38.16,10,22,53,41,10,5,3,8
38.165,1,2,39,2,0,2,1,4
38.17,6,9,5,3,1,6,3,3
38.175,1,5,15,2,1,1,1,1
38.18,1,1,15,18,3,1,3,4
38.185,1,9,1,19,6,2,6,16
38.19,4,4,9,2,4,1,2,8
38.195,4,0,8,4,1,1,2,13
38.2,0,1,11,1,3,4,4,1
38.205,2,7,19,3,4,3,0,1
38.21,1,8,17,1,3,2,3,0
38.215,6,12,38,18,6,5,9,7
38.22,7,3,16,5,1,2,7,24
38.225,4,4,16,4,6,0,3,2
38.23,5,9,4,13,8,2,6,6
38.235,3,3,13,2,3,2,8,3
38.24,12,9,36,6,6,3,0,1
38.245,20,15,7,13,11,7,9,4
38.25,5,6,5,2,0,1,1,8
38.255,2,0,6,1,0,1,0,0
38.26,1,4,12,7,4,3,1,1
38.265,0,1,17,7,3,1,3,1
38.27,12,1,14,0,2,3,1,3
38.275,7,6,12,14,10,7,3,6
38.28,1,4,16,15,6,6,1,4
38.285,2,1,40,3,2,1,1,0
38.29,6,7,12,1,6,4,5,3
38.295,5,1,0,9,3,3,2,10
38.3,2,4,6,1,7,5,1,2
38.305,1,0,24,2,7,5,4,7
38.31,9,10,17,9,6,2,4,9
38.315,6,6,6,2,2,1,1,5
38.32,3,1,9,2,1,2,2,3
38.325,6,4,11,15,3,2,1,11
38.33,12,12,6,21,10,5,5,3
38.335,16,6,25,3,1,2,3,6
38.34,0,1,7,1,0,2,5,14
38.345,5,12,82,28,0,3,6,34
38.35,0,15,54,2,0,2,2,22
38.355,20,49,78,48,13,1,9,8
38.36,7,26,42,9,3,2,8,36
38.365,19,16,14,16,6,7,10,20
38.37,30,27,19,4,0,4,20,28
38.375,25,18,73,0,7,11,45,11
38.38,22,4,65,16,11,16,74,16
38.385,15,1,29,17,1,4,21,14
38.39,16,31,51,52,11,10,26,69
38.395,23,25,19,12,10,6,17,77
38.4,26,5,53,30,6,2,18,75
38.405,19,23,17,14,1,2,18,127
38.41,13,29,54,26,2,2,2,29
38.415,3,15,59,25,6,2,14,19
38.42,0,9,1,26,3,3,23,27
38.425,13,3,33,0,2,2,7,52
38.43,22,14,35,4,16,15,50,67
38.435,18,32,36,52,8,3,64,38
38.44,66,68,35,65,49,35,36,88
38.445,22,6,9,28,19,7,6,75
38.45,31,27,17,30,13,20,56,89
38.455,39,48,70,69,26,24,58,28
38.46,13,40,123,56,6,7,8,32
38.465,18,37,83,27,22,14,34,41
38.47,3,34,41,6,0,5,16,5
38.475,14,2,54,33,9,13,21,12
38.48,25,19,42,20,1,0,28,4
38.485,6,8,36,4,5,4,13,43
38.49,14,46,17,7,7,4,16,28
38.495,27,36,0,13,3,5,2,5
38.5,23,20,9,1,3,2,6,4
38.505,16,12,17,6,5,6,14,8
38.51,6,15,14,7,0,5,3,17
38.515,15,23,20,57,18,9,3,11
38.52,13,19,28,47,17,5,19,48
38.525,30,35,55,35,21,12,16,38
38.53,33,41,6,59,32,22,30,15
38.535,14,16,20,21,16,15,37,54
38.54,18,8,56,54,23,9,44,33
38.545,13,6,77,49,20,8,50,7
38.55,11,35,80,72,26,18,6,63
38.555,4,21,4,34,11,6,4,71
38.56,38,66,107,69,24,19,5,30
38.565,39,96,42,67,22,16,13,7
38.57,27,5,28,30,12,8,21,68
38.575,18,6,36,32,0,1,12,10
38.58,30,4,80,47,5,2,9,90
38.585,52,15,108,52,2,1,8,110
38.59,16,7,2,6,2,8,15,36
38.595,18,17,80,43,11,11,7,39
38.6,33,39,78,88,27,16,11,39
38.605,3,17,23,34,9,2,15,4
38.61,0,8,76,45,6,2,28,28
38.615,6,4,1,69,25,17,23,24
38.62,16,1,66,22,17,7,48,25
38.625,2,13,96,3,6,3,7,5
38.63,2,0,64,20,5,2,0,35
38.635,40,13,13,27,0,3,25,26
38.64,10,44,32,1,1,1,9,52
38.645,5,3,79,20,6,1,4,22
38.65,12,21,3,5,8,10,3,4
38.655,29,24,24,59,33,21,55,13
38.66,21,5,90,59,37,32,59,5
38.665,18,30,40,26,9,7,15,5
38.67,24,27,82,50,18,16,12,29
38.675,34,56,79,47,17,15,28,41
38.68,10,2,50,8,2,2,26,14
38.685,9,22,77,48,11,4,17,53
38.69,10,4,25,60,22,11,13,3
38.695,18,4,29,23,5,2,32,11
38.7,47,13,3,61,23,15,27,40
38.705,52,8,15,42,9,9,2,27
38.71,7,25,48,25,11,6,36,36
38.715,10,20,19,36,13,5,2,27
38.72,4,24,13,32,9,2,42,28
38.725,27,8,8,20,2,1,0,4
38.73,19,23,61,10,13,9,14,19
38.735,35,6,32,61,47,31,30,12
38.74,14,36,39,50,18,12,3,15
38.745,15,15,48,21,11,9,0,1
38.75,16,75,91,62,13,9,37,17
38.755,4,7,106,6,14,14,50,17
38.76,14,28,51,58,28,15,21,10
38.765,20,33,56,86,36,18,12,27
38.77,2,30,13,25,10,4,5,2
38.775,11,20,1,28,21,12,29,32
38.78,7,21,83,3,3,2,50,88
38.785,23,32,48,6,14,5,2,44
38.79,21,18,4,12,6,5,10,25
38.795,44,38,57,58,21,17,13,25
38.8,5,14,81,36,11,8,16,0
38.805,8,3,49,21,15,8,10,0
38.81,18,13,32,31,17,8,12,26
38.815,23,27,1,21,15,8,35,99
38.82,15,12,91,51,7,4,9,66
38.825,23,70,104,96,27,19,12,31
38.83,19,9,46,30,16,11,17,3
38.835,32,43,75,90,35,24,21,16
38.84,41,78,113,107,35,20,11,2
38.845,14,36,110,40,6,2,10,1
38.85,4,18,18,41,6,1,15,11
38.855,10,5,15,12,17,9,6,9
38.86,28,19,74,55,34,25,35,19
38.865,31,22,18,45,22,18,22,3
38.87,1,20,24,31,14,8,16,12
38.875,10,22,68,31,3,2,4,28
38.88,33,17,4,15,11,7,18,47
38.885,26,5,4,6,3,1,6,20
38.89,9,24,80,21,8,4,39,14
38.895,25,28,105,21,10,6,1,6
38.9,22,21,95,18,7,15,107,47
38.905,18,31,40,9,22,20,75,61
38.91,8,5,8,3,1,1,27,11
38.915,18,20,83,4,4,0,7,26
38.92,3,18,59,19,5,1,36,39
38.925,11,17,46,19,6,5,20,6
38.93,2,23,57,2,4,5,13,5
38.935,5,13,16,9,7,1,11,17
38.94,21,2,37,31,2,1,14,9
38.945,32,45,59,26,17,11,9,25
38.95,9,0,45,11,7,7,30,22
38.955,10,6,75,26,2,4,27,19
38.96,1,9,6,4,2,0,6,2
38.965,30,60,90,38,33,22,20,36
38.97,21,69,62,43,22,12,16,6
38.975,15,33,42,42,8,11,38,15
38.98,8,7,32,17,4,12,94,2
38.985,2,22,109,5,15,4,27,18
38.99,8,11,112,5,2,1,5,17
38.995,1,16,9,9,1,1,7,12
39,9,8,37,7,4,2,2,10
39.005,11,15,50,11,4,3,9,17
39.01,15,0,48,5,2,1,1,34
39.015,0,2,58,16,5,2,15,33
39.02,6,42,119,50,11,1,40,23
39.025,5,32,122,3,13,5,28,0
39.03,56,9,29,0,6,0,32,28
39.035,26,33,4,36,15,15,51,13
39.04,27,5,61,48,3,2,13,8
39.045,20,36,67,40,20,15,20,9
39.05,12,34,100,61,20,12,4,8
39.055,7,4,10,2,0,2,7,6
39.06,2,5,21,20,2,4,13,19
39.065,1,11,65,42,13,14,35,56
39.07,12,9,21,34,11,6,20,6
39.075,8,9,53,25,15,2,10,14
39.08,20,25,60,37,16,6,2,23
39.085,3,12,4,11,7,3,4,7
39.09,28,1,21,35,14,8,36,37
39.095,0,7,47,44,23,15,37,5
39.1,6,13,52,1,6,4,9,55
39.105,11,22,37,34,10,4,10,5
39.11,13,22,46,27,7,10,26,8
39.115,1,6,10,8,1,4,12,18
39.12,3,13,30,23,7,3,20,5
39.125,4,12,6,18,9,1,64,12
39.13,13,68,71,14,4,3,36,36
39.135,6,50,62,21,14,3,0,3
39.14,11,28,71,34,17,10,6,0
39.145,4,10,12,24,6,7,30,27
39.15,8,6,23,34,7,8,13,10
39.155,1,5,4,6,1,1,10,31
39.16,7,3,28,5,2,0,32,27
39.165,20,19,31,23,6,4,15,12
39.17,2,38,49,22,4,3,39,33
39.175,30,42,91,73,24,19,50,52
39.18,22,20,36,30,16,12,25,40
39.185,20,18,26,49,19,14,20,46
39.19,25,26,11,12,6,4,7,9
39.195,5,6,1,17,19,12,27,52
39.2,17,53,38,11,4,2,19,12
39.205,22,52,8,5,16,11,14,46
39.21,2,3,13,3,2,6,1,5
39.215,12,3,16,8,4,5,2,9
39.22,6,13,39,4,2,1,1,25
39.225,2,16,59,21,1,3,1,15
39.23,12,2,66,0,2,1,3,12
39.235,6,7,16,10,3,2,1,19
39.24,6,13,5,2,3,4,2,19
39.245,7,4,10,4,2,2,3,8
39.25,3,6,43,5,9,8,6,8
39.255,2,1,49,4,3,3,13,2
39.26,8,12,37,10,8,10,4,21
39.265,2,5,14,6,0,2,4,2
39.27,1,5,31,15,8,8,6,13
39.275,9,19,75,9,7,4,0,7
39.28,12,21,36,3,2,0,3,10
39.285,4,7,6,18,9,3,3,11
39.29,8,14,37,54,38,12,0,0
39.295,9,14,41,64,19,9,4,8
39.3,6,10,13,12,8,4,1,2
39.305,2,7,12,7,1,4,6,1
39.31,3,6,18,11,4,1,2,8
39.315,4,9,3,34,12,4,3,4
39.32,5,17,107,43,15,7,6,2
39.325,0,12,42,5,6,6,1,1
39.33,9,16,17,30,15,1,4,19
39.335,5,10,5,10,5,2,1,10
39.34,3,7,27,1,4,2,3,15
39.345,6,2,1,13,1,2,4,25
39.35,5,6,7,34,7,4,3,1
39.355,2,4,6,11,9,7,19,1
39.36,1,6,1,25,8,3,1,0
39.365,8,14,1,21,9,7,1,4
39.37,5,14,14,2,6,4,2,14
39.375,2,1,24,6,6,5,10,10
39.38,9,15,48,13,7,8,4,8
39.385,0,4,17,4,4,1,2,4
39.39,2,11,0,14,13,3,6,0
39.395,2,11,13,5,4,1,1,3
39.4,6,8,30,35,13,5,4,7
39.405,1,5,6,27,14,5,16,5
39.41,2,1,27,9,8,7,28,16
39.415,5,10,16,5,4,3,9,2
39.42,2,0,0,5,1,1,9,13
39.425,1,4,2,9,10,8,1,1
39.43,2,1,5,2,4,0,12,18
39.435,1,2,3,7,0,1,4,2
39.44,2,3,2,8,3,4,7,4
39.445,0,5,10,4,3,0,8,1
39.45,1,0,7,2,6,5,2,2
39.455,1,3,14,13,4,5,10,2
39.46,1,2,3,0,2,3,5,17
39.465,2,0,0,1,4,6,7,5
39.47,3,0,1,4,2,4,22,3
39.475,4,9,7,4,7,4,7,7
39.48,3,4,47,5,2,2,13,13
39.485,5,16,86,29,10,7,8,8
39.49,5,8,13,2,2,4,8,3
39.495,5,6,5,7,5,3,2,0
39.5,1,3,9,7,0,5,2,4
39.505,3,7,10,8,0,0,14,0
39.51,0,4,15,5,1,1,16,2
39.515,2,6,6,8,4,4,7,7
39.52,2,0,13,13,8,4,2,2
39.525,8,15,37,13,11,7,3,3
39.53,8,13,12,5,10,6,3,4
39.535,0,3,7,1,0,3,11,4
39.54,3,8,1,9,2,2,6,9
39.545,1,1,7,14,5,3,4,1
39.55,2,2,10,4,2,3,15,7
39.555,1,6,9,3,4,0,2,1
39.56,5,10,4,9,2,2,1,1
39.565,2,2,15,7,4,2,9,3
39.57,6,11,50,15,6,6,23,5
39.575,8,1,23,2,1,0,2,7
39.58,15,3,14,3,0,1,3,11
39.585,0,4,62,6,2,1,12,7
39.59,1,3,18,12,7,2,4,3
39.595,2,3,9,4,5,0,3,20
39.6,3,3,0,7,3,3,6,20
39.605,0,6,8,0,6,8,31,2
39.61,14,2,6,3,1,2,48,3
39.615,3,2,5,4,1,1,27,19
39.62,1,8,27,5,6,1,3,6
39.625,0,3,5,3,2,1,8,2
39.63,6,0,9,4,2,1,4,3
39.635,1,5,3,8,9,4,6,2
39.64,6,3,16,2,4,3,0,7
39.645,1,4,2,8,10,3,12,10
39.65,0,5,29,8,4,1,10,10
39.655,1,17,16,3,0,3,4,10
39.66,1,15,17,7,8,5,9,1
39.665,3,4,2,5,8,6,2,6
39.67,4,2,24,6,3,2,2,7
39.675,2,0,20,7,1,1,3,2
39.68,2,0,53,21,7,5,1,0
39.685,5,5,9,1,0,0,3,0
39.69,3,8,61,19,7,2,2,4
39.695,5,3,26,8,1,2,0,3
39.7,8,5,11,15,12,10,5,17
39.705,2,1,4,6,1,4,1,1
39.71,3,5,2,3,1,2,7,3
39.715,4,3,7,14,5,0,7,5
39.72,0,7,35,11,2,1,3,10
39.725,1,2,88,19,4,0,4,4
39.73,7,11,27,3,8,7,7,8
39.735,4,12,8,11,5,2,4,6
39.74,2,4,28,9,1,3,2,3
39.745,5,7,28,7,8,3,10,5
39.75,1,3,13,9,6,1,0,6
39.755,6,9,14,20,7,3,5,1
39.76,5,3,9,9,2,2,8,0
39.765,9,12,19,10,8,6,16,11
39.77,8,13,2,4,10,8,15,8
39.775,1,4,3,2,1,4,10,2
39.78,11,4,27,6,8,2,3,7
39.785,0,1,9,7,3,3,4,22
39.79,5,4,5,1,4,4,13,6
39.795,2,14,38,13,3,2,2,9
39.8,5,9,53,30,8,4,2,7
39.805,1,2,35,1,2,1,0,9
39.81,1,5,9,14,4,3,1,2
39.815,11,11,15,5,11,10,5,6
39.82,9,13,13,7,3,6,7,1
39.825,2,5,22,28,13,5,4,1
39.83,15,21,75,57,24,16,23,16
39.835,2,4,0,14,6,4,8,3
39.84,5,12,3,8,1,0,4,1
39.845,7,9,4,10,8,5,14,1
39.85,3,2,4,18,11,3,12,3
39.855,5,12,27,21,5,3,13,14
39.86,1,1,6,10,1,3,1,3
39.865,3,7,15,6,1,0,5,9
39.87,3,2,10,14,1,4,5,3
39.875,7,2,30,9,7,4,3,3
39.88,3,1,9,3,1,2,0,1
39.885,1,4,7,9,1,2,2,1
39.89,8,7,13,20,9,7,13,10
39.895,2,17,15,6,1,1,2,7
39.9,3,0,2,8,5,5,3,3
39.905,0,1,14,7,6,0,7,2
39.91,7,12,4,15,10,4,6,3
39.915,4,12,27,24,14,3,9,2
39.92,11,22,36,35,18,10,5,14
39.925,4,5,1,4,5,10,16,3
39.93,3,5,10,4,1,4,13,1
39.935,2,6,25,0,5,2,7,1
39.94,4,10,48,20,8,2,3,2
39.945,4,12,9,24,1,1,1,2
39.95,5,5,8,2,5,7,3,10
39.955,2,4,17,1,2,3,6,0
39.96,3,5,44,10,1,1,1,4
39.965,2,2,9,4,1,4,8,3
39.97,4,7,22,10,7,3,4,4
39.975,1,4,21,11,1,2,20,14
39.98,2,4,11,11,4,9,25,24
39.985,3,4,35,30,13,4,4,3
39.99,5,1,5,1,1,1,4,1
39.995,2,3,1,6,1,2,0,11
40,4,5,4,1,3,1,4,21
40.005,6,1,4,13,0,2,12,5
40.01,2,0,14,5,1,4,8,5
40.015,2,4,9,9,3,1,1,12
40.02,5,6,14,4,8,1,2,4
40.025,2,0,14,3,6,2,2,5
40.03,11,19,46,25,13,3,4,1
40.035,2,0,3,1,0,3,7,4
40.04,3,11,21,1,3,0,1,1
40.045,7,15,53,14,7,2,0,7
40.05,5,12,2,14,12,8,3,12
40.055,2,6,16,9,0,1,5,3
40.06,9,14,22,12,10,4,1,5
40.065,4,13,21,11,4,1,3,2
40.07,5,1,15,3,1,3,1,10
40.075,2,0,5,1,2,1,3,2
40.08,1,3,11,3,4,2,5,1
40.085,1,5,16,5,5,8,1,0
40.09,0,0,11,4,6,2,1,2
40.095,1,1,9,1,1,2,9,4
40.1,4,1,9,9,1,0,5,7
40.105,0,9,1,14,13,7,4,2
40.11,5,5,22,6,5,2,5,8
40.115,7,8,25,5,1,1,6,3
40.12,0,1,12,11,1,2,5,6
40.125,2,6,24,14,4,3,4,4
40.13,1,1,6,4,4,3,0,16
40.135,6,6,14,3,2,4,2,4
40.14,1,1,22,3,0,3,6,3
40.145,0,0,4,11,1,2,3,2
40.15,6,10,46,10,7,3,1,11
40.155,10,20,67,25,14,8,5,2
40.16,0,2,2,4,0,3,4,0
40.165,3,8,26,18,11,6,1,1
40.17,3,2,2,6,6,4,0,4
40.175,2,2,5,1,2,4,2,4
40.18,3,8,16,4,1,0,4,18
40.185,3,19,70,31,10,3,7,5
40.19,4,2,13,18,1,0,5,7
40.195,19,4,4,7,1,2,6,1
40.2,1,1,25,2,0,0,3,2
40.205,3,9,8,9,7,6,2,1
40.21,3,3,15,11,3,5,10,12
40.215,0,5,34,1,11,6,2,0
40.22,1,2,19,0,3,2,2,5
40.225,19,20,34,15,2,1,12,12
40.23,10,7,12,10,6,1,15,11
40.235,2,4,42,5,14,2,5,2
40.24,8,7,13,11,0,1,6,8
40.245,0,9,35,22,9,1,7,6
40.25,6,14,65,33,4,1,12,8
40.255,4,5,21,0,3,2,6,4
40.26,3,6,23,7,6,0,1,3
40.265,0,7,24,16,8,5,4,2
40.27,2,3,13,5,6,4,5,4
40.275,5,2,16,1,6,1,4,4
40.28,6,7,9,9,2,4,4,5
40.285,6,10,7,5,1,2,2,14
40.29,15,7,55,4,7,6,2,13
40.295,1,1,36,4,0,0,13,15
40.3,18,14,2,6,5,4,0,14
40.305,13,11,11,8,0,10,3,6
40.31,18,7,2,14,13,22,6,26
40.315,37,16,7,11,6,2,7,35
40.32,22,2,15,9,0,7,7,14
40.325,22,4,49,9,0,5,5,9
40.33,4,20,81,19,2,6,1,17
40.335,11,21,0,40,17,14,15,42
40.34,30,34,8,36,9,9,9,24
40.345,10,52,16,47,16,21,13,26
40.35,7,24,14,9,2,6,3,37
40.355,52,26,0,38,27,14,11,65
40.36,55,1,20,11,7,5,7,35
40.365,18,60,99,40,20,9,28,32
40.37,5,4,31,19,0,4,3,25
40.375,22,32,29,53,22,9,2,40
40.38,35,51,31,42,25,17,2,71
40.385,7,4,15,8,8,10,12,44
40.39,6,5,40,12,5,2,5,9
40.395,13,12,51,35,7,8,9,1
40.4,15,42,59,44,21,13,28,21
40.405,8,29,24,22,3,0,10,9
40.41,22,34,37,15,10,22,34,29
40.415,17,3,43,22,6,6,27,45
40.42,11,32,12,16,4,8,6,10
40.425,35,52,39,38,9,13,16,6
40.43,16,27,60,6,10,2,12,26
40.435,14,41,22,45,16,16,34,52
40.44,21,46,71,6,8,3,14,47
40.445,14,11,54,19,11,8,7,21
40.45,30,17,65,28,22,14,12,21
40.455,38,60,70,42,15,14,29,1
40.46,10,26,114,37,22,16,19,4
40.465,8,2,74,27,11,12,12,3
40.47,1,17,35,35,22,13,18,11
40.475,15,24,15,13,8,5,11,56
40.48,27,78,3,58,23,27,37,43
40.485,5,35,56,38,13,14,23,37
40.49,39,37,29,6,6,12,40,86
40.495,25,11,15,7,5,9,22,41
40.5,17,30,24,30,9,1,7,23
40.505,2,11,18,14,7,2,4,20
40.51,21,49,37,19,8,1,8,17
40.515,19,47,21,43,4,5,25,7
40.52,5,17,39,35,17,10,22,20
40.525,11,14,42,31,15,8,4,19
40.53,5,39,19,8,3,3,2,8
40.535,18,83,56,68,31,23,59,56
40.54,15,22,38,33,16,10,63,55
40.545,25,30,32,18,9,5,29,6
40.55,41,53,37,29,10,5,56,44
40.555,9,16,21,19,1,3,7,4
40.56,30,8,109,3,2,6,3,7
40.565,46,15,29,22,14,8,32,38
40.57,1,5,69,2,9,8,21,9
40.575,21,18,72,19,12,8,11,19
40.58,9,3,46,11,0,5,14,26
40.585,13,21,32,28,19,18,32,48
40.59,48,82,37,66,28,23,30,20
40.595,8,4,52,18,4,5,9,12
40.6,7,24,127,36,4,8,8,7
40.605,22,12,26,8,12,9,12,7
40.61,32,23,34,29,6,2,4,53
40.615,15,33,14,10,5,5,27,60
40.62,6,30,36,22,4,3,20,6
40.625,18,15,59,51,21,11,18,24
40.63,17,38,1,8,1,8,47,37
40.635,1,12,23,13,2,1,8,4
40.64,46,60,50,47,25,13,27,8
40.645,38,80,71,81,44,30,1,14
40.65,18,22,30,13,2,1,3,3
40.655,10,38,44,32,8,10,5,23
40.66,15,42,21,35,10,7,4,14
40.665,15,33,49,20,8,5,33,0
40.67,13,3,10,8,2,4,6,14
40.675,13,14,33,20,4,3,6,1
40.68,16,17,66,44,13,4,7,10
40.685,3,10,44,27,14,7,20,1
40.69,10,6,80,2,5,14,7,27
40.695,6,29,65,33,10,8,4,7
40.7,8,8,75,31,8,8,11,9
40.705,2,23,32,15,0,2,28,8
40.71,5,18,34,16,4,3,15,35
40.715,16,11,8,2,3,2,17,21
40.72,1,20,14,5,3,3,16,14
40.725,30,8,57,30,6,3,0,7
40.73,29,13,75,50,16,13,1,17
40.735,24,5,8,14,10,1,32,46
40.74,47,41,25,2,6,6,45,11
40.745,6,16,64,15,1,0,8,12
40.75,33,26,6,17,7,7,21,38
40.755,3,31,1,7,6,2,10,7
40.76,25,24,1,20,25,13,9,27
40.765,27,34,80,61,27,10,3,5
40.77,4,2,54,47,18,11,2,26
40.775,17,27,26,28,6,2,2,25
40.78,25,34,55,46,20,16,17,31
40.785,28,22,69,38,13,9,0,39
40.79,3,22,87,67,27,17,4,32
40.795,3,20,94,36,10,5,21,24
40.8,34,8,92,30,21,17,14,13
40.805,18,18,21,9,3,1,24,45
40.81,21,25,3,43,19,11,2,14
40.815,4,15,6,6,2,5,14,37
40.82,16,30,6,11,16,5,23,2
40.825,13,11,102,42,14,14,31,33
40.83,14,29,82,14,4,1,25,33
40.835,8,6,5,2,7,2,3,7
40.84,5,12,31,10,3,6,25,26
40.845,8,8,72,23,8,5,3,30
40.85,2,33,62,2,5,2,16,17
40.855,20,54,8,10,5,1,5,6
40.86,2,2,9,10,3,0,6,19
40.865,3,9,12,13,7,6,19,41
40.87,19,8,24,18,5,3,17,85
40.875,12,2,14,8,13,5,14,11
40.88,28,9,44,4,4,0,7,20
40.885,13,22,44,20,4,3,11,44
40.89,7,14,15,13,6,5,10,56
40.895,8,2,9,6,0,2,14,15
40.9,13,7,19,35,16,11,4,13
40.905,6,15,98,25,16,11,26,3
40.91,13,9,14,27,5,1,16,15
40.915,5,41,54,15,8,5,8,10
40.92,12,18,13,12,4,5,13,23
40.925,6,1,7,5,5,2,13,29
40.93,11,23,22,5,2,0,4,6
40.935,1,14,17,2,2,4,1,0
40.94,27,60,27,2,1,2,1,7
40.945,29,27,38,11,9,2,3,9
40.95,21,8,15,12,6,6,7,5
40.955,8,4,42,12,2,1,9,18
40.96,19,18,30,10,9,6,36,47
40.965,7,2,55,8,4,7,63,43
40.97,3,13,19,1,8,6,6,21
40.975,5,1,39,21,7,0,6,6
40.98,16,22,44,34,13,8,5,6
40.985,27,44,117,85,27,18,16,10
40.99,6,26,115,34,1,6,7,0
40.995,59,34,41,61,40,27,32,36
41,13,17,40,28,11,6,6,9
41.005,1,6,62,10,7,2,15,3
41.01,9,1,27,1,1,1,14,12
41.015,18,24,31,5,10,10,14,17
41.02,10,2,58,14,10,12,3,23
41.025,5,17,43,13,21,3,8,3
41.03,8,25,62,15,12,4,0,17
41.035,11,39,55,10,10,8,4,10
41.04,11,5,21,35,9,2,28,30
41.045,10,16,15,19,4,3,54,5
41.05,12,8,10,19,12,16,69,2
41.055,8,35,10,16,8,3,20,21
41.06,2,22,21,6,9,9,3,1
41.065,4,15,3,31,11,4,9,17
41.07,6,4,22,11,6,0,10,5
41.075,10,18,68,44,11,8,20,16
41.08,1,23,31,1,7,9,4,22
41.085,20,20,43,30,11,11,6,3
41.09,1,4,79,50,20,15,5,13
41.095,17,28,16,7,0,5,5,6
41.1,14,31,33,36,16,9,7,25
41.105,7,5,87,16,6,2,17,7
41.11,3,6,3,5,5,1,21,34
41.115,3,15,52,20,10,8,1,4
41.12,2,11,6,8,1,0,9,8
41.125,2,0,18,1,2,4,7,7
41.13,13,18,11,15,20,15,1,5
41.135,14,20,14,32,13,4,5,9
41.14,10,19,2,28,4,1,2,17
41.145,19,25,40,19,9,5,7,14
41.15,14,32,75,30,14,5,11,11
41.155,1,11,19,4,3,3,8,9
41.16,3,1,35,10,7,2,0,5
41.165,1,1,14,7,2,1,3,5
41.17,2,12,72,4,2,1,11,4
41.175,6,28,51,3,2,3,3,2
41.18,20,49,76,35,23,16,15,9
41.185,1,10,38,3,3,6,5,16
41.19,5,20,59,17,1,1,12,3
41.195,1,2,45,10,1,2,6,1
41.2,5,8,27,23,3,1,6,7
41.205,4,5,2,19,7,4,11,3
41.21,2,11,34,2,1,0,6,4
41.215,2,1,54,15,1,1,0,2
41.22,6,8,26,13,8,4,2,7
41.225,11,22,58,10,16,8,5,2
41.23,1,11,30,4,6,4,13,3
41.235,3,11,27,1,1,0,12,7
41.24,1,7,25,5,5,5,0,8
41.245,2,1,24,1,3,3,10,9
41.25,1,8,27,0,5,1,26,13
41.255,4,6,2,6,4,6,26,9
41.26,6,18,15,16,8,7,0,7
41.265,3,4,39,13,3,4,21,1
41.27,1,2,34,3,0,4,8,3
41.275,0,5,5,16,15,1,9,15
41.28,1,7,36,18,8,1,1,6
41.285,1,3,52,1,2,1,15,18
41.29,2,4,13,10,3,2,7,22
41.295,1,10,22,16,2,2,6,4
41.3,2,9,12,28,12,1,6,1
41.305,1,1,15,28,12,0,7,8
41.31,3,13,17,12,6,1,4,4
41.315,10,13,5,32,15,1,2,0
41.32,4,7,35,7,5,4,6,6
41.325,6,9,56,18,8,4,14,4
41.33,0,2,8,10,1,5,8,3
41.335,12,15,20,39,16,8,27,13
41.34,12,22,6,27,13,9,24,29
41.345,5,1,24,46,13,3,3,11
41.35,4,11,7,12,2,1,13,12
41.355,3,10,5,10,4,4,13,3
41.36,14,6,6,17,16,9,21,36
41.365,11,3,10,7,3,3,12,19
41.37,5,5,17,14,12,9,15,6
41.375,3,10,2,5,0,3,8,3
41.38,1,3,14,4,0,1,1,1
41.385,3,5,8,7,0,2,1,0
41.39,3,6,14,7,5,5,28,6
41.395,7,6,5,8,8,12,33,1
41.4,6,2,20,2,5,1,3,6
41.405,3,4,0,3,1,2,9,9
41.41,0,12,57,13,2,1,0,10
41.415,9,35,95,25,7,3,7,8
41.42,1,4,20,5,3,5,2,3
41.425,3,8,18,0,2,6,8,12
41.43,1,4,19,4,6,5,3,12
41.435,10,18,15,17,9,10,5,7
41.44,15,24,7,22,13,11,16,13
41.445,5,19,38,16,4,2,6,3
41.45,8,12,3,7,10,7,11,9
41.455,8,11,33,8,3,6,18,8
41.46,4,0,27,14,8,6,8,3
41.465,3,1,49,11,4,6,10,18
41.47,9,3,20,14,5,2,9,41
41.475,18,6,1,5,3,3,6,20
41.48,20,9,12,13,0,1,6,0
41.485,0,0,7,17,3,4,3,9
41.49,0,3,2,0,1,0,8,8
41.495,3,10,18,3,6,1,6,2
41.5,1,0,42,9,3,2,1,9
41.505,5,3,45,15,7,2,17,10
41.51,9,10,2,6,12,11,33,0
41.515,1,2,23,4,3,4,2,9
41.52,2,10,16,7,3,2,12,9
41.525,1,15,11,5,2,4,1,11
41.53,3,4,12,7,5,0,2,10
41.535,11,7,7,7,6,3,10,6
41.54,2,14,13,8,2,5,18,32
41.545,2,3,23,3,3,0,0,6
41.55,0,9,37,3,2,3,7,7
41.555,10,11,3,10,8,9,10,7
41.56,1,3,10,3,1,2,8,9
41.565,3,14,4,2,4,2,1,0
41.57,4,9,4,22,18,8,10,13
41.575,3,1,16,10,4,5,12,2
41.58,14,7,26,6,11,7,3,3
41.585,2,4,17,4,0,1,4,14
41.59,3,14,65,20,6,1,6,6
41.595,3,5,20,5,2,4,5,13
41.6,8,7,20,0,5,0,14,3
41.605,4,3,17,11,1,5,0,1
41.61,9,13,12,6,9,4,5,1
41.615,0,1,7,4,2,1,4,13
41.62,10,13,50,14,5,5,9,20
41.625,4,9,10,2,1,0,2,5
41.63,4,18,39,13,6,3,4,15
41.635,6,16,26,6,3,5,3,8
41.64,2,6,10,5,0,3,10,4
41.645,12,16,23,29,15,6,15,10
41.65,15,22,45,47,19,10,12,9
41.655,4,6,28,7,4,3,19,3
41.66,0,1,0,4,1,0,15,2
41.665,1,8,49,2,2,4,14,13
41.67,5,11,32,13,5,1,2,10
41.675,6,7,10,7,6,7,15,9
41.68,2,5,3,6,4,4,2,10
41.685,4,2,3,7,7,2,10,26
41.69,4,11,3,11,5,3,12,5
41.695,4,11,11,3,5,0,7,14
41.7,9,5,49,14,8,5,13,4
41.705,3,3,6,3,4,2,7,10
41.71,3,4,27,4,1,2,11,6
41.715,2,10,6,10,3,2,7,1
41.72,10,14,6,6,5,2,6,3
41.725,1,5,11,15,3,3,5,15
41.73,5,1,3,14,5,5,17,7
41.735,5,2,4,4,0,1,0,2
41.74,4,13,40,2,1,2,0,5
41.745,9,15,48,12,7,8,5,1
41.75,13,26,25,21,11,6,7,7
41.755,13,28,8,12,12,5,7,6
41.76,6,5,22,5,7,3,2,2
41.765,3,4,24,6,1,1,7,13
41.77,5,9,9,4,3,6,0,1
41.775,1,9,18,8,1,1,2,1
41.78,5,2,2,3,5,4,2,3
41.785,4,3,3,9,3,3,7,1
41.79,2,1,6,3,5,3,12,4
41.795,0,4,38,9,4,4,4,1
41.8,2,3,11,1,1,4,8,3
41.805,10,3,8,3,1,0,3,10
41.81,2,0,27,5,2,1,7,1
41.815,0,3,19,3,7,4,4,0
41.82,0,4,15,14,3,5,3,4
41.825,5,4,2,6,6,3,7,11
41.83,2,4,8,2,3,1,9,2
41.835,5,7,4,18,5,2,6,3
41.84,1,7,8,2,1,1,3,1
41.845,1,1,1,16,13,6,5,2
41.85,1,2,12,19,5,3,4,2
41.855,5,6,1,8,9,3,26,28
41.86,5,8,19,12,10,7,25,34
41.865,3,8,13,1,4,1,3,5
41.87,1,0,20,7,2,1,5,5
41.875,3,1,11,4,3,1,0,0
41.88,3,8,4,13,7,1,14,8
41.885,1,9,0,0,1,2,7,1
41.89,1,2,1,7,7,3,4,3
41.895,4,1,13,1,2,1,4,1
41.9,5,5,0,3,1,3,7,12
41.905,1,1,16,1,5,3,4,5
41.91,3,4,13,9,2,4,1,3
41.915,1,2,1,5,6,5,6,8
41.92,5,2,2,1,5,0,0,1
41.925,1,0,14,6,2,1,2,3
41.93,5,15,52,11,9,5,0,2
41.935,1,8,33,12,1,1,7,5
41.94,5,7,52,18,6,4,3,2
41.945,0,1,28,2,1,0,11,2
41.95,5,8,24,5,4,2,6,6
41.955,2,5,7,4,3,2,2,3
41.96,1,2,12,4,1,4,7,1
41.965,4,2,19,7,7,3,14,1
41.97,1,5,29,13,9,6,18,4
41.975,8,24,85,27,9,11,14,10
41.98,1,2,13,6,2,3,5,1
41.985,0,3,1,7,1,3,8,0
41.99,1,4,12,9,1,5,2,2
41.995,2,12,11,14,8,3,1,4
42,1,4,3,3,3,4,2,0
42.005,1,7,28,8,8,1,2,2
42.01,2,1,12,4,4,2,0,1
42.015,0,2,20,2,2,0,0,4
42.02,8,12,1,25,11,3,5,11
42.025,4,7,13,21,13,7,13,16
42.03,5,6,17,13,7,4,8,4
42.035,4,2,14,1,3,4,6,13
42.04,0,5,9,4,4,6,2,4
42.045,5,7,2,12,8,0,2,14
42.05,2,1,37,3,2,2,3,3
42.055,7,12,31,21,9,7,6,2
42.06,3,0,5,1,4,0,9,4
42.065,10,0,23,6,3,2,1,4
42.07,1,4,44,15,5,1,4,21
42.075,3,2,29,23,4,0,1,5
42.08,5,1,1,14,9,10,10,7
42.085,10,5,10,3,3,1,3,21
42.09,9,0,20,11,4,3,5,19
42.095,0,8,22,2,5,2,10,5
42.1,1,1,15,15,1,3,19,24
42.105,2,0,21,13,7,8,6,8
42.11,10,6,31,11,1,0,4,20
42.115,5,7,45,9,7,6,8,27
42.12,5,0,17,4,6,8,15,68
42.125,17,40,11,15,11,3,8,44
42.13,7,47,6,15,11,5,10,17
42.135,15,14,11,9,1,1,5,26
42.14,12,14,65,2,5,3,12,88
42.145,1,21,1,12,4,2,3,52
42.15,23,22,44,31,19,9,14,24
42.155,4,7,60,34,10,11,10,17
42.16,18,36,91,57,9,6,11,1
42.165,7,36,38,35,13,3,6,20
42.17,3,9,57,6,6,9,10,46
42.175,2,6,50,2,2,1,15,82
42.18,1,33,37,9,3,6,32,13
