0.005,-8.0,-3.0,-3.0,-10.0,-4.0,1.0,0.0,-7.0,0.0987548828125,0.000244140625,0.91705322265625,-0.3863525390625,0.18212890625,-0.1015625,0.958984375,0.6875,-6.875,-30.5
0.01,-8.0,-12.0,5.0,48.0,4.0,-3.0,-5.0,-4.0,0.0987548828125,0.000244140625,0.91705322265625,-0.3863525390625,0.18212890625,-0.1015625,0.958984375,0.6875,-6.875,-30.5
0.015,-8.0,-12.0,5.0,48.0,4.0,-3.0,-5.0,-4.0,0.0987548828125,0.000244140625,0.91705322265625,-0.3863525390625,0.18212890625,-0.1015625,0.958984375,0.6875,-6.875,-30.5
0.02,-8.0,-12.0,5.0,48.0,4.0,-3.0,-5.0,-4.0,0.0999755859375,0.00091552734375,0.9189453125,-0.3814697265625,0.18896484375,-0.1142578125,0.97802734375,0.875,-6.5625,-30.875
0.025,-8.0,-12.0,5.0,48.0,4.0,-3.0,-5.0,-4.0,0.0999755859375,0.00091552734375,0.9189453125,-0.3814697265625,0.18896484375,-0.1142578125,0.97802734375,0.875,-6.5625,-30.875
0.030000000000000002,6.0,5.0,-6.0,-14.0,0.0,0.0,3.0,1.0,0.0999755859375,0.00091552734375,0.9189453125,-0.3814697265625,0.18896484375,-0.1142578125,0.97802734375,0.875,-6.5625,-30.875
0.035,6.0,5.0,-6.0,-14.0,0.0,0.0,3.0,1.0,0.0999755859375,0.00091552734375,0.9189453125,-0.3814697265625,0.18896484375,-0.1142578125,0.97802734375,0.875,-6.5625,-30.875
0.04,6.0,5.0,-6.0,-14.0,0.0,0.0,3.0,1.0,0.0999755859375,0.00091552734375,0.9189453125,-0.3814697265625,0.18896484375,-0.1142578125,0.97802734375,0.875,-6.5625,-30.875
0.045,6.0,5.0,-6.0,-14.0,0.0,0.0,3.0,1.0,0.0999755859375,0.00091552734375,0.9189453125,-0.3814697265625,0.18896484375,-0.1142578125,0.97802734375,0.875,-6.5625,-30.875
0.049999999999999996,4.0,-1.0,13.0,4.0,3.0,-1.0,-2.0,5.0,0.100830078125,0.00213623046875,0.9207763671875,-0.3768310546875,0.19091796875,-0.0986328125,0.9755859375,3.4375,-6.0,-29.25
0.05499999999999999,4.0,-1.0,13.0,4.0,3.0,-1.0,-2.0,5.0,0.100830078125,0.00213623046875,0.9207763671875,-0.3768310546875,0.19091796875,-0.0986328125,0.9755859375,3.4375,-6.0,-29.25
0.05999999999999999,-9.0,3.0,-2.0,-19.0,-6.0,-1.0,-1.0,-5.0,0.100830078125,0.00213623046875,0.9207763671875,-0.3768310546875,0.19091796875,-0.0986328125,0.9755859375,3.4375,-6.0,-29.25
0.06499999999999999,-9.0,3.0,-2.0,-19.0,-6.0,-1.0,-1.0,-5.0,0.1016845703125,0.003173828125,0.92236328125,-0.37255859375,0.18505859375,-0.08349609375,0.98046875,2.25,-6.3125,-26.9375
0.06999999999999999,-9.0,3.0,-2.0,-19.0,-6.0,-1.0,-1.0,-5.0,0.1016845703125,0.003173828125,0.92236328125,-0.37255859375,0.18505859375,-0.08349609375,0.98046875,2.25,-6.3125,-26.9375
0.075,-9.0,3.0,-2.0,-19.0,-6.0,-1.0,-1.0,-5.0,0.1016845703125,0.003173828125,0.92236328125,-0.37255859375,0.18505859375,-0.08349609375,0.98046875,2.25,-6.3125,-26.9375
0.08,0.0,2.0,-6.0,-9.0,-4.0,-3.0,-3.0,-1.0,0.1016845703125,0.003173828125,0.92236328125,-0.37255859375,0.18505859375,-0.08349609375,0.98046875,2.25,-6.3125,-26.9375
0.085,-3.0,-8.0,-16.0,17.0,-14.0,-8.0,-8.0,-7.0,0.1016845703125,0.003173828125,0.92236328125,-0.37255859375,0.18505859375,-0.08349609375,0.98046875,2.25,-6.3125,-26.9375
0.09000000000000001,-3.0,-8.0,-16.0,17.0,-14.0,-8.0,-8.0,-7.0,0.1016845703125,0.003173828125,0.92236328125,-0.37255859375,0.18505859375,-0.08349609375,0.98046875,2.25,-6.3125,-26.9375
0.09500000000000001,-3.0,-8.0,-16.0,17.0,-14.0,-8.0,-8.0,-7.0,0.10284423828125,0.00384521484375,0.92388916015625,-0.36846923828125,0.18701171875,-0.07763671875,0.98388671875,-0.8125,-7.0,-25.25
0.10000000000000002,-3.0,-8.0,-16.0,17.0,-14.0,-8.0,-8.0,-7.0,0.10284423828125,0.00384521484375,0.92388916015625,-0.36846923828125,0.18701171875,-0.07763671875,0.98388671875,-0.8125,-7.0,-25.25
0.10500000000000002,-2.0,1.0,2.0,-1.0,5.0,1.0,1.0,-1.0,0.10284423828125,0.00384521484375,0.92388916015625,-0.36846923828125,0.18701171875,-0.07763671875,0.98388671875,-0.8125,-7.0,-25.25
0.11000000000000003,-2.0,1.0,2.0,-1.0,5.0,1.0,1.0,-1.0,0.10284423828125,0.00384521484375,0.92388916015625,-0.36846923828125,0.18701171875,-0.07763671875,0.98388671875,-0.8125,-7.0,-25.25
0.11500000000000003,-2.0,1.0,2.0,-1.0,5.0,1.0,1.0,-1.0,0.10284423828125,0.00384521484375,0.92388916015625,-0.36846923828125,0.18701171875,-0.07763671875,0.98388671875,-0.8125,-7.0,-25.25
0.12000000000000004,-2.0,1.0,2.0,-1.0,5.0,1.0,1.0,-1.0,0.10284423828125,0.00384521484375,0.92388916015625,-0.36846923828125,0.18701171875,-0.07763671875,0.98388671875,-0.8125,-7.0,-25.25
0.12500000000000003,3.0,-3.0,-14.0,-23.0,-1.0,-2.0,-1.0,-2.0,0.103759765625,0.004150390625,0.9251708984375,-0.36492919921875,0.1865234375,-0.0849609375,0.990234375,-1.3125,-5.875,-21.9375
0.13000000000000003,1.0,0.0,3.0,5.0,1.0,-2.0,-3.0,0.0,0.103759765625,0.004150390625,0.9251708984375,-0.36492919921875,0.1865234375,-0.0849609375,0.990234375,-1.3125,-5.875,-21.9375
0.13500000000000004,1.0,0.0,3.0,5.0,1.0,-2.0,-3.0,0.0,0.103759765625,0.004150390625,0.9251708984375,-0.36492919921875,0.1865234375,-0.0849609375,0.990234375,-1.3125,-5.875,-21.9375
0.14000000000000004,1.0,0.0,3.0,5.0,1.0,-2.0,-3.0,0.0,0.1043701171875,0.00469970703125,0.92626953125,-0.36199951171875,0.1767578125,-0.078125,0.99267578125,0.5,-5.1875,-18.625
0.14500000000000005,1.0,0.0,3.0,5.0,1.0,-2.0,-3.0,0.0,0.1043701171875,0.00469970703125,0.92626953125,-0.36199951171875,0.1767578125,-0.078125,0.99267578125,0.5,-5.1875,-18.625
0.15000000000000005,3.0,2.0,7.0,5.0,5.0,2.0,3.0,3.0,0.1043701171875,0.00469970703125,0.92626953125,-0.36199951171875,0.1767578125,-0.078125,0.99267578125,0.5,-5.1875,-18.625
0.15500000000000005,3.0,2.0,7.0,5.0,5.0,2.0,3.0,3.0,0.1043701171875,0.00469970703125,0.92626953125,-0.36199951171875,0.1767578125,-0.078125,0.99267578125,0.5,-5.1875,-18.625
0.16000000000000006,-4.0,0.0,4.0,1.0,1.0,-3.0,-3.0,-2.0,0.1043701171875,0.00469970703125,0.92626953125,-0.36199951171875,0.1767578125,-0.078125,0.99267578125,0.5,-5.1875,-18.625
0.16500000000000006,-4.0,0.0,4.0,1.0,1.0,-3.0,-3.0,-2.0,0.1043701171875,0.00469970703125,0.92626953125,-0.36199951171875,0.1767578125,-0.078125,0.99267578125,0.5,-5.1875,-18.625
0.17000000000000007,-4.0,0.0,4.0,1.0,1.0,-3.0,-3.0,-2.0,0.10498046875,0.00506591796875,0.92724609375,-0.359375,0.1748046875,-0.08984375,0.99169921875,0.3125,-5.375,-16.5625
0.17500000000000007,-4.0,0.0,4.0,1.0,1.0,-3.0,-3.0,-2.0,0.10498046875,0.00506591796875,0.92724609375,-0.359375,0.1748046875,-0.08984375,0.99169921875,0.3125,-5.375,-16.5625
0.18000000000000008,-3.0,-2.0,-1.0,12.0,0.0,-1.0,-2.0,-6.0,0.10498046875,0.00506591796875,0.92724609375,-0.359375,0.1748046875,-0.08984375,0.99169921875,0.3125,-5.375,-16.5625
0.18500000000000008,-3.0,-2.0,-1.0,12.0,0.0,-1.0,-2.0,-6.0,0.10498046875,0.00506591796875,0.92724609375,-0.359375,0.1748046875,-0.08984375,0.99169921875,0.3125,-5.375,-16.5625
0.19000000000000009,-3.0,-2.0,-1.0,12.0,0.0,-1.0,-2.0,-6.0,0.10498046875,0.00506591796875,0.92724609375,-0.359375,0.1748046875,-0.08984375,0.99169921875,0.3125,-5.375,-16.5625
0.1950000000000001,-3.0,-2.0,-1.0,12.0,0.0,-1.0,-2.0,-6.0,0.10498046875,0.00506591796875,0.92724609375,-0.359375,0.1748046875,-0.08984375,0.99169921875,0.3125,-5.375,-16.5625
0.2000000000000001,-2.0,-2.0,4.0,25.0,5.0,0.0,0.0,-2.0,0.10565185546875,0.0054931640625,0.9281005859375,-0.35693359375,0.189453125,-0.10205078125,0.98876953125,2.0625,-5.0625,-15.4375
0.2050000000000001,-2.0,-2.0,4.0,25.0,5.0,0.0,0.0,-2.0,0.10565185546875,0.0054931640625,0.9281005859375,-0.35693359375,0.189453125,-0.10205078125,0.98876953125,2.0625,-5.0625,-15.4375
0.2100000000000001,-3.0,-1.0,-1.0,-1.0,-1.0,-1.0,-1.0,0.0,0.10565185546875,0.0054931640625,0.9281005859375,-0.35693359375,0.189453125,-0.10205078125,0.98876953125,2.0625,-5.0625,-15.4375
0.2150000000000001,-3.0,-1.0,-1.0,-1.0,-1.0,-1.0,-1.0,0.0,0.10565185546875,0.0054931640625,0.9281005859375,-0.35693359375,0.189453125,-0.10205078125,0.98876953125,2.0625,-5.0625,-15.4375
0.2200000000000001,-3.0,-1.0,-1.0,-1.0,-1.0,-1.0,-1.0,0.0,0.10614013671875,0.00640869140625,0.92877197265625,-0.35504150390625,0.1904296875,-0.0927734375,0.986328125,4.5625,-5.125,-12.4375
0.22500000000000012,-3.0,-1.0,-1.0,-1.0,-1.0,-1.0,-1.0,0.0,0.10614013671875,0.00640869140625,0.92877197265625,-0.35504150390625,0.1904296875,-0.0927734375,0.986328125,4.5625,-5.125,-12.4375
0.23000000000000012,-3.0,-3.0,-4.0,-11.0,-7.0,-3.0,-2.0,-7.0,0.10614013671875,0.00640869140625,0.92877197265625,-0.35504150390625,0.1904296875,-0.0927734375,0.986328125,4.5625,-5.125,-12.4375
0.23500000000000013,-3.0,-3.0,-4.0,-11.0,-7.0,-3.0,-2.0,-7.0,0.10614013671875,0.00640869140625,0.92877197265625,-0.35504150390625,0.1904296875,-0.0927734375,0.986328125,4.5625,-5.125,-12.4375
0.24000000000000013,-3.0,-3.0,-4.0,-11.0,-7.0,-3.0,-2.0,-7.0,0.10614013671875,0.00640869140625,0.92877197265625,-0.35504150390625,0.1904296875,-0.0927734375,0.986328125,4.5625,-5.125,-12.4375
0.24500000000000013,-3.0,-2.0,-6.0,-47.0,-3.0,2.0,2.0,-2.0,0.10614013671875,0.00640869140625,0.92877197265625,-0.35504150390625,0.1904296875,-0.0927734375,0.986328125,4.5625,-5.125,-12.4375
0.2500000000000001,-3.0,-2.0,-6.0,-47.0,-3.0,2.0,2.0,-2.0,0.1065673828125,0.00732421875,0.92919921875,-0.35369873046875,0.1962890625,-0.08447265625,0.98779296875,4.6875,-4.75,-9.1875
0.2550000000000001,-3.0,-2.0,-6.0,-47.0,-3.0,2.0,2.0,-2.0,0.1065673828125,0.00732421875,0.92919921875,-0.35369873046875,0.1962890625,-0.08447265625,0.98779296875,4.6875,-4.75,-9.1875
0.2600000000000001,1.0,-2.0,-13.0,-19.0,-4.0,-4.0,-1.0,-1.0,0.1065673828125,0.00732421875,0.92919921875,-0.35369873046875,0.1962890625,-0.08447265625,0.98779296875,4.6875,-4.75,-9.1875
0.2650000000000001,1.0,-2.0,-13.0,-19.0,-4.0,-4.0,-1.0,-1.0,0.1065673828125,0.00732421875,0.92919921875,-0.35369873046875,0.1962890625,-0.08447265625,0.98779296875,4.6875,-4.75,-9.1875
0.27000000000000013,1.0,-2.0,-13.0,-19.0,-4.0,-4.0,-1.0,-1.0,0.1065673828125,0.00732421875,0.92919921875,-0.35369873046875,0.1962890625,-0.08447265625,0.98779296875,4.6875,-4.75,-9.1875
0.27500000000000013,10.0,3.0,-9.0,-36.0,-4.0,0.0,-1.0,6.0,0.10699462890625,0.0078125,0.9295654296875,-0.35260009765625,0.19677734375,-0.08251953125,0.984375,2.375,-3.5625,-7.0625
0.28000000000000014,10.0,3.0,-9.0,-36.0,-4.0,0.0,-1.0,6.0,0.10699462890625,0.0078125,0.9295654296875,-0.35260009765625,0.19677734375,-0.08251953125,0.984375,2.375,-3.5625,-7.0625
0.28500000000000014,-1.0,-2.0,2.0,2.0,-2.0,-2.0,-1.0,0.0,0.10699462890625,0.0078125,0.9295654296875,-0.35260009765625,0.19677734375,-0.08251953125,0.984375,2.375,-3.5625,-7.0625
0.29000000000000015,-1.0,-2.0,2.0,2.0,-2.0,-2.0,-1.0,0.0,0.10699462890625,0.0078125,0.9295654296875,-0.35260009765625,0.19677734375,-0.08251953125,0.984375,2.375,-3.5625,-7.0625
0.29500000000000015,-1.0,-2.0,2.0,2.0,-2.0,-2.0,-1.0,0.0,0.107177734375,0.0081787109375,0.92987060546875,-0.35174560546875,0.19189453125,-0.064453125,0.9912109375,1.125,-2.6875,-5.4375
0.30000000000000016,-4.0,0.0,1.0,-2.0,-4.0,-1.0,-2.0,-5.0,0.107177734375,0.0081787109375,0.92987060546875,-0.35174560546875,0.19189453125,-0.064453125,0.9912109375,1.125,-2.6875,-5.4375
0.30500000000000016,-4.0,0.0,1.0,-2.0,-4.0,-1.0,-2.0,-5.0,0.107177734375,0.0081787109375,0.92987060546875,-0.35174560546875,0.19189453125,-0.064453125,0.9912109375,1.125,-2.6875,-5.4375
0.31000000000000016,19.0,4.0,7.0,-4.0,-4.0,-2.0,2.0,8.0,0.107177734375,0.0081787109375,0.92987060546875,-0.35174560546875,0.19189453125,-0.064453125,0.9912109375,1.125,-2.6875,-5.4375
0.31500000000000017,19.0,4.0,7.0,-4.0,-4.0,-2.0,2.0,8.0,0.107177734375,0.0081787109375,0.92987060546875,-0.35174560546875,0.19189453125,-0.064453125,0.9912109375,1.125,-2.6875,-5.4375
0.3200000000000002,19.0,4.0,7.0,-4.0,-4.0,-2.0,2.0,8.0,0.107421875,0.00811767578125,0.9300537109375,-0.35125732421875,0.19384765625,-0.0693359375,1.0009765625,-0.625,-2.3125,-3.25
0.3250000000000002,3.0,1.0,-4.0,-10.0,6.0,1.0,0.0,1.0,0.107421875,0.00811767578125,0.9300537109375,-0.35125732421875,0.19384765625,-0.0693359375,1.0009765625,-0.625,-2.3125,-3.25
0.3300000000000002,-6.0,1.0,3.0,0.0,-2.0,0.0,-1.0,-2.0,0.107421875,0.00811767578125,0.9300537109375,-0.35125732421875,0.19384765625,-0.0693359375,1.0009765625,-0.625,-2.3125,-3.25
0.3350000000000002,-6.0,1.0,3.0,0.0,-2.0,0.0,-1.0,-2.0,0.107421875,0.00811767578125,0.9300537109375,-0.35125732421875,0.19384765625,-0.0693359375,1.0009765625,-0.625,-2.3125,-3.25
0.3400000000000002,-6.0,1.0,3.0,0.0,-2.0,0.0,-1.0,-2.0,0.107421875,0.00811767578125,0.9300537109375,-0.35125732421875,0.19384765625,-0.0693359375,1.0009765625,-0.625,-2.3125,-3.25
0.3450000000000002,-1.0,1.0,-1.0,3.0,3.0,0.0,1.0,0.0,0.10760498046875,0.00775146484375,0.9300537109375,-0.35125732421875,0.19873046875,-0.07763671875,0.98876953125,-1.375,-1.0,-0.0625
0.3500000000000002,-2.0,-7.0,-7.0,-5.0,0.0,1.0,2.0,0.0,0.10760498046875,0.00775146484375,0.9300537109375,-0.35125732421875,0.19873046875,-0.07763671875,0.98876953125,-1.375,-1.0,-0.0625
0.3550000000000002,-2.0,-7.0,-7.0,-5.0,0.0,1.0,2.0,0.0,0.10760498046875,0.00775146484375,0.9300537109375,-0.35125732421875,0.19873046875,-0.07763671875,0.98876953125,-1.375,-1.0,-0.0625
0.3600000000000002,-2.0,-7.0,-7.0,-5.0,0.0,1.0,2.0,0.0,0.10760498046875,0.00750732421875,0.9298095703125,-0.35186767578125,0.1923828125,-0.07373046875,0.98974609375,0.0625,-0.75,3.625
0.3650000000000002,-3.0,-4.0,3.0,0.0,0.0,-1.0,-2.0,-4.0,0.10760498046875,0.00750732421875,0.9298095703125,-0.35186767578125,0.1923828125,-0.07373046875,0.98974609375,0.0625,-0.75,3.625
0.3700000000000002,-3.0,-4.0,3.0,0.0,0.0,-1.0,-2.0,-4.0,0.10760498046875,0.00750732421875,0.9298095703125,-0.35186767578125,0.1923828125,-0.07373046875,0.98974609375,0.0625,-0.75,3.625
0.3750000000000002,2.0,-2.0,-2.0,-21.0,-3.0,0.0,-1.0,3.0,0.10760498046875,0.00750732421875,0.9298095703125,-0.35186767578125,0.1923828125,-0.07373046875,0.98974609375,0.0625,-0.75,3.625
0.3800000000000002,2.0,-2.0,-2.0,-21.0,-3.0,0.0,-1.0,3.0,0.10736083984375,0.00762939453125,0.92950439453125,-0.35272216796875,0.18408203125,-0.083984375,0.98779296875,3.0,-0.75,4.75
0.38500000000000023,2.0,-2.0,-2.0,-21.0,-3.0,0.0,-1.0,3.0,0.10736083984375,0.00762939453125,0.92950439453125,-0.35272216796875,0.18408203125,-0.083984375,0.98779296875,3.0,-0.75,4.75
0.39000000000000024,-6.0,1.0,4.0,23.0,1.0,-3.0,-3.0,-4.0,0.10736083984375,0.00762939453125,0.92950439453125,-0.35272216796875,0.18408203125,-0.083984375,0.98779296875,3.0,-0.75,4.75
0.39500000000000024,1.0,3.0,4.0,-4.0,1.0,2.0,2.0,1.0,0.10736083984375,0.00762939453125,0.92950439453125,-0.35272216796875,0.18408203125,-0.083984375,0.98779296875,3.0,-0.75,4.75
0.40000000000000024,1.0,3.0,4.0,-4.0,1.0,2.0,2.0,1.0,0.10736083984375,0.00762939453125,0.92950439453125,-0.35272216796875,0.18408203125,-0.083984375,0.98779296875,3.0,-0.75,4.75
0.40500000000000025,-5.0,-9.0,-1.0,57.0,2.0,-4.0,-4.0,-3.0,0.10687255859375,0.008056640625,0.92919921875,-0.35357666015625,0.18603515625,-0.09423828125,0.9873046875,6.0,0.25,4.1875
0.41000000000000025,-4.0,1.0,-6.0,-14.0,-1.0,-3.0,-3.0,-7.0,0.10687255859375,0.008056640625,0.92919921875,-0.35357666015625,0.18603515625,-0.09423828125,0.9873046875,6.0,0.25,4.1875
0.41500000000000026,-4.0,1.0,-6.0,-14.0,-1.0,-3.0,-3.0,-7.0,0.10687255859375,0.008056640625,0.92919921875,-0.35357666015625,0.18603515625,-0.09423828125,0.9873046875,6.0,0.25,4.1875
0.42000000000000026,-11.0,-6.0,-2.0,12.0,3.0,1.0,1.0,-3.0,0.10687255859375,0.008056640625,0.92919921875,-0.35357666015625,0.18603515625,-0.09423828125,0.9873046875,6.0,0.25,4.1875
0.42500000000000027,-11.0,-6.0,-2.0,12.0,3.0,1.0,1.0,-3.0,0.10601806640625,0.0089111328125,0.92901611328125,-0.35443115234375,0.1865234375,-0.08154296875,0.994140625,8.25,1.375,3.9375
0.43000000000000027,-4.0,0.0,-5.0,-12.0,1.0,1.0,-4.0,-3.0,0.10601806640625,0.0089111328125,0.92901611328125,-0.35443115234375,0.1865234375,-0.08154296875,0.994140625,8.25,1.375,3.9375
0.4350000000000003,-4.0,0.0,-5.0,-12.0,1.0,1.0,-4.0,-3.0,0.10601806640625,0.0089111328125,0.92901611328125,-0.35443115234375,0.1865234375,-0.08154296875,0.994140625,8.25,1.375,3.9375
0.4400000000000003,-4.0,0.0,-5.0,-12.0,1.0,1.0,-4.0,-3.0,0.10601806640625,0.0089111328125,0.92901611328125,-0.35443115234375,0.1865234375,-0.08154296875,0.994140625,8.25,1.375,3.9375
0.4450000000000003,-4.0,1.0,2.0,11.0,2.0,-1.0,-2.0,-5.0,0.10528564453125,0.009765625,0.92877197265625,-0.35516357421875,0.18603515625,-0.07568359375,0.98583984375,7.75,0.8125,3.625
0.4500000000000003,-4.0,1.0,2.0,11.0,2.0,-1.0,-2.0,-5.0,0.10528564453125,0.009765625,0.92877197265625,-0.35516357421875,0.18603515625,-0.07568359375,0.98583984375,7.75,0.8125,3.625
0.4550000000000003,-3.0,0.0,-2.0,15.0,5.0,0.0,-2.0,-2.0,0.10528564453125,0.009765625,0.92877197265625,-0.35516357421875,0.18603515625,-0.07568359375,0.98583984375,7.75,0.8125,3.625
0.4600000000000003,-3.0,0.0,-2.0,15.0,5.0,0.0,-2.0,-2.0,0.10528564453125,0.009765625,0.92877197265625,-0.35516357421875,0.18603515625,-0.07568359375,0.98583984375,7.75,0.8125,3.625
0.4650000000000003,-3.0,0.0,-2.0,15.0,5.0,0.0,-2.0,-2.0,0.10528564453125,0.009765625,0.92877197265625,-0.35516357421875,0.18603515625,-0.07568359375,0.98583984375,7.75,0.8125,3.625
0.4700000000000003,0.0,4.0,-6.0,-28.0,-7.0,-2.0,-2.0,0.0,0.104736328125,0.01025390625,0.9285888671875,-0.35589599609375,0.19091796875,-0.08203125,0.9931640625,5.625,0.6875,3.375
0.4750000000000003,-5.0,-7.0,-10.0,-35.0,-6.0,-3.0,-2.0,-3.0,0.104736328125,0.01025390625,0.9285888671875,-0.35589599609375,0.19091796875,-0.08203125,0.9931640625,5.625,0.6875,3.375
0.4800000000000003,-5.0,-7.0,-10.0,-35.0,-6.0,-3.0,-2.0,-3.0,0.104736328125,0.01025390625,0.9285888671875,-0.35589599609375,0.19091796875,-0.08203125,0.9931640625,5.625,0.6875,3.375
0.4850000000000003,-5.0,-7.0,-10.0,-35.0,-6.0,-3.0,-2.0,-3.0,0.104736328125,0.01025390625,0.9285888671875,-0.35589599609375,0.19091796875,-0.08203125,0.9931640625,5.625,0.6875,3.375
0.4900000000000003,-5.0,-7.0,-10.0,-35.0,-6.0,-3.0,-2.0,-3.0,0.10430908203125,0.01080322265625,0.92840576171875,-0.35638427734375,0.205078125,-0.07568359375,0.9853515625,5.5625,1.1875,2.5
0.49500000000000033,3.0,2.0,-1.0,11.0,3.0,1.0,1.0,-3.0,0.10430908203125,0.01080322265625,0.92840576171875,-0.35638427734375,0.205078125,-0.07568359375,0.9853515625,5.5625,1.1875,2.5
0.5000000000000003,3.0,2.0,-1.0,11.0,3.0,1.0,1.0,-3.0,0.10430908203125,0.01080322265625,0.92840576171875,-0.35638427734375,0.205078125,-0.07568359375,0.9853515625,5.5625,1.1875,2.5
0.5050000000000003,-1.0,5.0,3.0,36.0,1.0,-3.0,-6.0,-2.0,0.10430908203125,0.01080322265625,0.92840576171875,-0.35638427734375,0.205078125,-0.07568359375,0.9853515625,5.5625,1.1875,2.5
0.5100000000000003,-1.0,5.0,3.0,36.0,1.0,-3.0,-6.0,-2.0,0.10400390625,0.01116943359375,0.9283447265625,-0.356689453125,0.20703125,-0.06591796875,0.97998046875,3.4375,1.1875,1.125
0.5150000000000003,-1.0,5.0,3.0,36.0,1.0,-3.0,-6.0,-2.0,0.10400390625,0.01116943359375,0.9283447265625,-0.356689453125,0.20703125,-0.06591796875,0.97998046875,3.4375,1.1875,1.125
0.5200000000000004,0.0,0.0,-2.0,0.0,1.0,1.0,0.0,1.0,0.10400390625,0.01116943359375,0.9283447265625,-0.356689453125,0.20703125,-0.06591796875,0.97998046875,3.4375,1.1875,1.125
0.5250000000000004,0.0,1.0,-3.0,-12.0,-5.0,-2.0,0.0,3.0,0.10400390625,0.01116943359375,0.9283447265625,-0.356689453125,0.20703125,-0.06591796875,0.97998046875,3.4375,1.1875,1.125
0.5300000000000004,0.0,1.0,-3.0,-12.0,-5.0,-2.0,0.0,3.0,0.10400390625,0.01116943359375,0.9283447265625,-0.356689453125,0.20703125,-0.06591796875,0.97998046875,3.4375,1.1875,1.125
0.5350000000000004,5.0,2.0,11.0,24.0,0.0,-5.0,-3.0,0.0,0.10382080078125,0.01116943359375,0.92822265625,-0.35693359375,0.2041015625,-0.0625,0.97900390625,1.3125,1.0,1.4375
0.5400000000000004,1.0,-3.0,-4.0,26.0,0.0,-2.0,-1.0,-2.0,0.10382080078125,0.01116943359375,0.92822265625,-0.35693359375,0.2041015625,-0.0625,0.97900390625,1.3125,1.0,1.4375
0.5450000000000004,1.0,-3.0,-4.0,26.0,0.0,-2.0,-1.0,-2.0,0.10382080078125,0.01116943359375,0.92822265625,-0.35693359375,0.2041015625,-0.0625,0.97900390625,1.3125,1.0,1.4375
0.5500000000000004,1.0,-2.0,-6.0,-10.0,-7.0,-2.0,-3.0,-3.0,0.10357666015625,0.01141357421875,0.92816162109375,-0.3572998046875,0.20361328125,-0.05078125,0.9833984375,1.5625,1.0625,1.75
0.5550000000000004,1.0,-2.0,-6.0,-10.0,-7.0,-2.0,-3.0,-3.0,0.10357666015625,0.01141357421875,0.92816162109375,-0.3572998046875,0.20361328125,-0.05078125,0.9833984375,1.5625,1.0625,1.75
0.5600000000000004,-10.0,1.0,5.0,6.0,1.0,-1.0,-2.0,-19.0,0.10357666015625,0.01141357421875,0.92816162109375,-0.3572998046875,0.20361328125,-0.05078125,0.9833984375,1.5625,1.0625,1.75
0.5650000000000004,-10.0,1.0,5.0,6.0,1.0,-1.0,-2.0,-19.0,0.10357666015625,0.01141357421875,0.92816162109375,-0.3572998046875,0.20361328125,-0.05078125,0.9833984375,1.5625,1.0625,1.75
0.5700000000000004,-10.0,1.0,5.0,6.0,1.0,-1.0,-2.0,-19.0,0.103515625,0.0115966796875,0.92803955078125,-0.3575439453125,0.2060546875,-0.0419921875,0.974609375,0.625,0.4375,1.75
0.5750000000000004,-10.0,1.0,5.0,6.0,1.0,-1.0,-2.0,-19.0,0.103515625,0.0115966796875,0.92803955078125,-0.3575439453125,0.2060546875,-0.0419921875,0.974609375,0.625,0.4375,1.75
0.5800000000000004,1.0,-6.0,-6.0,-14.0,-3.0,0.0,0.0,2.0,0.103515625,0.0115966796875,0.92803955078125,-0.3575439453125,0.2060546875,-0.0419921875,0.974609375,0.625,0.4375,1.75
0.5850000000000004,1.0,-6.0,-6.0,-14.0,-3.0,0.0,0.0,2.0,0.103515625,0.0115966796875,0.92803955078125,-0.3575439453125,0.2060546875,-0.0419921875,0.974609375,0.625,0.4375,1.75
0.5900000000000004,1.0,-6.0,-6.0,-14.0,-3.0,0.0,0.0,2.0,0.103515625,0.0115966796875,0.92803955078125,-0.3575439453125,0.2060546875,-0.0419921875,0.974609375,0.625,0.4375,1.75
0.5950000000000004,1.0,-6.0,-6.0,-14.0,-3.0,0.0,0.0,2.0,0.103515625,0.0115966796875,0.92803955078125,-0.3575439453125,0.2060546875,-0.0419921875,0.974609375,0.625,0.4375,1.75
0.6000000000000004,-7.0,-6.0,-17.0,-41.0,-6.0,-2.0,-2.0,-4.0,0.10321044921875,0.01171875,0.92791748046875,-0.3580322265625,0.20654296875,-0.0400390625,0.97705078125,0.75,1.75,2.75
0.6050000000000004,-7.0,-6.0,-17.0,-41.0,-6.0,-2.0,-2.0,-4.0,0.10321044921875,0.01171875,0.92791748046875,-0.3580322265625,0.20654296875,-0.0400390625,0.97705078125,0.75,1.75,2.75
0.6100000000000004,0.0,-2.0,2.0,-5.0,-4.0,-2.0,-4.0,-2.0,0.10321044921875,0.01171875,0.92791748046875,-0.3580322265625,0.20654296875,-0.0400390625,0.97705078125,0.75,1.75,2.75
0.6150000000000004,0.0,-2.0,2.0,-5.0,-4.0,-2.0,-4.0,-2.0,0.10321044921875,0.01171875,0.92791748046875,-0.3580322265625,0.20654296875,-0.0400390625,0.97705078125,0.75,1.75,2.75
0.6200000000000004,0.0,-2.0,2.0,-5.0,-4.0,-2.0,-4.0,-2.0,0.102783203125,0.01165771484375,0.927734375,-0.35858154296875,0.19287109375,-0.0537109375,0.9814453125,0.75,1.875,3.25
0.6250000000000004,0.0,-2.0,2.0,-5.0,-4.0,-2.0,-4.0,-2.0,0.102783203125,0.01165771484375,0.927734375,-0.35858154296875,0.19287109375,-0.0537109375,0.9814453125,0.75,1.875,3.25
0.6300000000000004,1.0,-2.0,-7.0,-15.0,-2.0,-4.0,-2.0,-1.0,0.102783203125,0.01165771484375,0.927734375,-0.35858154296875,0.19287109375,-0.0537109375,0.9814453125,0.75,1.875,3.25
0.6350000000000005,5.0,-2.0,-4.0,4.0,1.0,0.0,1.0,5.0,0.102783203125,0.01165771484375,0.927734375,-0.35858154296875,0.19287109375,-0.0537109375,0.9814453125,0.75,1.875,3.25
0.6400000000000005,5.0,-2.0,-4.0,4.0,1.0,0.0,1.0,5.0,0.102783203125,0.01165771484375,0.927734375,-0.35858154296875,0.19287109375,-0.0537109375,0.9814453125,0.75,1.875,3.25
0.6450000000000005,5.0,-2.0,-4.0,4.0,1.0,0.0,1.0,5.0,0.1026611328125,0.01171875,0.92755126953125,-0.35906982421875,0.205078125,-0.06396484375,0.98388671875,1.625,0.625,2.8125
0.6500000000000005,5.0,-2.0,-4.0,4.0,1.0,0.0,1.0,5.0,0.1026611328125,0.01171875,0.92755126953125,-0.35906982421875,0.205078125,-0.06396484375,0.98388671875,1.625,0.625,2.8125
0.6550000000000005,0.0,0.0,6.0,12.0,6.0,5.0,0.0,0.0,0.1026611328125,0.01171875,0.92755126953125,-0.35906982421875,0.205078125,-0.06396484375,0.98388671875,1.625,0.625,2.8125
0.6600000000000005,0.0,14.0,-1.0,-29.0,-8.0,-1.0,0.0,-2.0,0.1026611328125,0.01171875,0.92755126953125,-0.35906982421875,0.205078125,-0.06396484375,0.98388671875,1.625,0.625,2.8125
0.6650000000000005,0.0,14.0,-1.0,-29.0,-8.0,-1.0,0.0,-2.0,0.1026611328125,0.01171875,0.92755126953125,-0.35906982421875,0.205078125,-0.06396484375,0.98388671875,1.625,0.625,2.8125
0.6700000000000005,0.0,14.0,-1.0,-29.0,-8.0,-1.0,0.0,-2.0,0.1026611328125,0.01171875,0.92755126953125,-0.35906982421875,0.205078125,-0.06396484375,0.98388671875,1.625,0.625,2.8125
0.6750000000000005,0.0,14.0,-1.0,-29.0,-8.0,-1.0,0.0,-2.0,0.1025390625,0.01214599609375,0.9273681640625,-0.35955810546875,0.20947265625,-0.0625,0.9765625,3.625,0.4375,2.8125
0.6800000000000005,-3.0,2.0,1.0,-5.0,0.0,0.0,0.0,0.0,0.1025390625,0.01214599609375,0.9273681640625,-0.35955810546875,0.20947265625,-0.0625,0.9765625,3.625,0.4375,2.8125
0.6850000000000005,3.0,-1.0,5.0,10.0,2.0,-1.0,-1.0,5.0,0.1025390625,0.01214599609375,0.9273681640625,-0.35955810546875,0.20947265625,-0.0625,0.9765625,3.625,0.4375,2.8125
0.6900000000000005,3.0,-1.0,5.0,10.0,2.0,-1.0,-1.0,5.0,0.1025390625,0.01214599609375,0.9273681640625,-0.35955810546875,0.20947265625,-0.0625,0.9765625,3.625,0.4375,2.8125
0.6950000000000005,3.0,-1.0,5.0,10.0,2.0,-1.0,-1.0,5.0,0.10211181640625,0.012939453125,0.92724609375,-0.36004638671875,0.19677734375,-0.05126953125,0.9794921875,5.3125,0.25,2.0625
0.7000000000000005,3.0,-1.0,5.0,10.0,2.0,-1.0,-1.0,5.0,0.10211181640625,0.012939453125,0.92724609375,-0.36004638671875,0.19677734375,-0.05126953125,0.9794921875,5.3125,0.25,2.0625
0.7050000000000005,2.0,1.0,0.0,-8.0,2.0,1.0,-2.0,-1.0,0.10211181640625,0.012939453125,0.92724609375,-0.36004638671875,0.19677734375,-0.05126953125,0.9794921875,5.3125,0.25,2.0625
0.7100000000000005,2.0,1.0,0.0,-8.0,2.0,1.0,-2.0,-1.0,0.10211181640625,0.012939453125,0.92724609375,-0.36004638671875,0.19677734375,-0.05126953125,0.9794921875,5.3125,0.25,2.0625
0.7150000000000005,-1.0,-6.0,-11.0,-74.0,-13.0,-5.0,-1.0,-1.0,0.10211181640625,0.012939453125,0.92724609375,-0.36004638671875,0.19677734375,-0.05126953125,0.9794921875,5.3125,0.25,2.0625
0.7200000000000005,-1.0,-6.0,-11.0,-74.0,-13.0,-5.0,-1.0,-1.0,0.10211181640625,0.012939453125,0.92724609375,-0.36004638671875,0.19677734375,-0.05126953125,0.9794921875,5.3125,0.25,2.0625
0.7250000000000005,-1.0,-6.0,-11.0,-74.0,-13.0,-5.0,-1.0,-1.0,0.10174560546875,0.0140380859375,0.9271240234375,-0.36029052734375,0.20361328125,-0.03564453125,0.98779296875,5.875,0.125,1.125
0.7300000000000005,-1.0,-6.0,-11.0,-74.0,-13.0,-5.0,-1.0,-1.0,0.10174560546875,0.0140380859375,0.9271240234375,-0.36029052734375,0.20361328125,-0.03564453125,0.98779296875,5.875,0.125,1.125
0.7350000000000005,1.0,-4.0,3.0,21.0,3.0,-3.0,-3.0,-1.0,0.10174560546875,0.0140380859375,0.9271240234375,-0.36029052734375,0.20361328125,-0.03564453125,0.98779296875,5.875,0.125,1.125
0.7400000000000005,1.0,-4.0,3.0,21.0,3.0,-3.0,-3.0,-1.0,0.10174560546875,0.0140380859375,0.9271240234375,-0.36029052734375,0.20361328125,-0.03564453125,0.98779296875,5.875,0.125,1.125
0.7450000000000006,1.0,-4.0,3.0,21.0,3.0,-3.0,-3.0,-1.0,0.10174560546875,0.0140380859375,0.9271240234375,-0.36029052734375,0.20361328125,-0.03564453125,0.98779296875,5.875,0.125,1.125
0.7500000000000006,1.0,-4.0,3.0,21.0,3.0,-3.0,-3.0,-1.0,0.10137939453125,0.0146484375,0.92706298828125,-0.36065673828125,0.20263671875,-0.03564453125,0.9892578125,3.5625,0.625,1.75
0.7550000000000006,-3.0,0.0,-2.0,6.0,-1.0,-3.0,-2.0,-1.0,0.10137939453125,0.0146484375,0.92706298828125,-0.36065673828125,0.20263671875,-0.03564453125,0.9892578125,3.5625,0.625,1.75
0.7600000000000006,-3.0,0.0,-2.0,-5.0,-3.0,-2.0,-2.0,-1.0,0.10137939453125,0.0146484375,0.92706298828125,-0.36065673828125,0.20263671875,-0.03564453125,0.9892578125,3.5625,0.625,1.75
0.7650000000000006,-3.0,0.0,-2.0,-5.0,-3.0,-2.0,-2.0,-1.0,0.10137939453125,0.0146484375,0.92706298828125,-0.36065673828125,0.20263671875,-0.03564453125,0.9892578125,3.5625,0.625,1.75
0.7700000000000006,-3.0,0.0,-2.0,-5.0,-3.0,-2.0,-2.0,-1.0,0.1009521484375,0.0152587890625,0.92694091796875,-0.36102294921875,0.20751953125,-0.0244140625,0.9951171875,2.75,1.4375,2.125
0.7750000000000006,-3.0,0.0,-2.0,-5.0,-3.0,-2.0,-2.0,-1.0,0.1009521484375,0.0152587890625,0.92694091796875,-0.36102294921875,0.20751953125,-0.0244140625,0.9951171875,2.75,1.4375,2.125
0.7800000000000006,-3.0,-2.0,-5.0,-4.0,-6.0,-5.0,-4.0,-7.0,0.1009521484375,0.0152587890625,0.92694091796875,-0.36102294921875,0.20751953125,-0.0244140625,0.9951171875,2.75,1.4375,2.125
0.7850000000000006,-3.0,-2.0,-5.0,-4.0,-6.0,-5.0,-4.0,-7.0,0.1009521484375,0.0152587890625,0.92694091796875,-0.36102294921875,0.20751953125,-0.0244140625,0.9951171875,2.75,1.4375,2.125
0.7900000000000006,3.0,-3.0,-1.0,-10.0,-2.0,-1.0,1.0,0.0,0.1009521484375,0.0152587890625,0.92694091796875,-0.36102294921875,0.20751953125,-0.0244140625,0.9951171875,2.75,1.4375,2.125
0.7950000000000006,3.0,-3.0,-1.0,-10.0,-2.0,-1.0,1.0,0.0,0.1009521484375,0.0152587890625,0.92694091796875,-0.36102294921875,0.20751953125,-0.0244140625,0.9951171875,2.75,1.4375,2.125
0.8000000000000006,3.0,-3.0,-1.0,-10.0,-2.0,-1.0,1.0,0.0,0.100341796875,0.015625,0.92681884765625,-0.3614501953125,0.205078125,-0.0244140625,0.9873046875,2.25,2.75,2.4375
0.8050000000000006,3.0,-3.0,-1.0,-10.0,-2.0,-1.0,1.0,0.0,0.100341796875,0.015625,0.92681884765625,-0.3614501953125,0.205078125,-0.0244140625,0.9873046875,2.25,2.75,2.4375
0.8100000000000006,6.0,0.0,-5.0,-7.0,-1.0,-2.0,1.0,3.0,0.100341796875,0.015625,0.92681884765625,-0.3614501953125,0.205078125,-0.0244140625,0.9873046875,2.25,2.75,2.4375
0.8150000000000006,6.0,0.0,-5.0,-7.0,-1.0,-2.0,1.0,3.0,0.100341796875,0.015625,0.92681884765625,-0.3614501953125,0.205078125,-0.0244140625,0.9873046875,2.25,2.75,2.4375
0.8200000000000006,-11.0,-1.0,2.0,-5.0,-3.0,-1.0,-2.0,-4.0,0.100341796875,0.015625,0.92681884765625,-0.3614501953125,0.205078125,-0.0244140625,0.9873046875,2.25,2.75,2.4375
0.8250000000000006,-11.0,-1.0,2.0,-5.0,-3.0,-1.0,-2.0,-4.0,0.100341796875,0.015625,0.92681884765625,-0.3614501953125,0.205078125,-0.0244140625,0.9873046875,2.25,2.75,2.4375
0.8300000000000006,0.0,-1.0,-6.0,-19.0,-2.0,-2.0,-2.0,-4.0,0.09954833984375,0.01568603515625,0.92669677734375,-0.36199951171875,0.19677734375,-0.03173828125,1.0,1.25,3.625,3.25
0.8350000000000006,0.0,-3.0,1.0,32.0,8.0,2.0,2.0,2.0,0.09954833984375,0.01568603515625,0.92669677734375,-0.36199951171875,0.19677734375,-0.03173828125,1.0,1.25,3.625,3.25
0.8400000000000006,0.0,-3.0,1.0,32.0,8.0,2.0,2.0,2.0,0.0987548828125,0.015625,0.92657470703125,-0.362548828125,0.19287109375,-0.029296875,0.99658203125,0.75,3.9375,3.3125
0.8450000000000006,0.0,-3.0,1.0,32.0,8.0,2.0,2.0,2.0,0.0987548828125,0.015625,0.92657470703125,-0.362548828125,0.19287109375,-0.029296875,0.99658203125,0.75,3.9375,3.3125
0.8500000000000006,-3.0,0.0,2.0,9.0,0.0,0.0,-2.0,0.0,0.0987548828125,0.015625,0.92657470703125,-0.362548828125,0.19287109375,-0.029296875,0.99658203125,0.75,3.9375,3.3125
0.8550000000000006,-3.0,0.0,2.0,9.0,0.0,0.0,-2.0,0.0,0.0987548828125,0.015625,0.92657470703125,-0.362548828125,0.19287109375,-0.029296875,0.99658203125,0.75,3.9375,3.3125
0.8600000000000007,-4.0,-4.0,0.0,13.0,2.0,-1.0,-4.0,-5.0,0.0987548828125,0.015625,0.92657470703125,-0.362548828125,0.19287109375,-0.029296875,0.99658203125,0.75,3.9375,3.3125
0.8650000000000007,-4.0,-4.0,0.0,13.0,2.0,-1.0,-4.0,-5.0,0.09808349609375,0.015625,0.92645263671875,-0.363037109375,0.20068359375,-0.03564453125,0.99560546875,0.8125,4.0,2.75
0.8700000000000007,-4.0,-4.0,0.0,13.0,2.0,-1.0,-4.0,-5.0,0.09808349609375,0.015625,0.92645263671875,-0.363037109375,0.20068359375,-0.03564453125,0.99560546875,0.8125,4.0,2.75
0.8750000000000007,-4.0,-6.0,-3.0,8.0,-10.0,-5.0,-5.0,-3.0,0.09808349609375,0.015625,0.92645263671875,-0.363037109375,0.20068359375,-0.03564453125,0.99560546875,0.8125,4.0,2.75
0.8800000000000007,-4.0,-6.0,-3.0,8.0,-10.0,-5.0,-5.0,-3.0,0.09808349609375,0.015625,0.92645263671875,-0.363037109375,0.20068359375,-0.03564453125,0.99560546875,0.8125,4.0,2.75
0.8850000000000007,-7.0,-19.0,7.0,15.0,6.0,3.0,1.0,0.0,0.09808349609375,0.015625,0.92645263671875,-0.363037109375,0.20068359375,-0.03564453125,0.99560546875,0.8125,4.0,2.75
0.8900000000000007,-1.0,0.0,3.0,22.0,10.0,4.0,1.0,4.0,0.0972900390625,0.0157470703125,0.9263916015625,-0.3634033203125,0.2060546875,-0.04248046875,0.99609375,2.625,4.875,1.875
0.8950000000000007,4.0,3.0,2.0,10.0,-1.0,-2.0,-2.0,0.0,0.0972900390625,0.0157470703125,0.9263916015625,-0.3634033203125,0.2060546875,-0.04248046875,0.99609375,2.625,4.875,1.875
0.9000000000000007,4.0,3.0,2.0,10.0,-1.0,-2.0,-2.0,0.0,0.0972900390625,0.0157470703125,0.9263916015625,-0.3634033203125,0.2060546875,-0.04248046875,0.99609375,2.625,4.875,1.875
0.9050000000000007,4.0,3.0,2.0,10.0,-1.0,-2.0,-2.0,0.0,0.09613037109375,0.01593017578125,0.9263916015625,-0.3636474609375,0.189453125,-0.0322265625,0.99169921875,2.8125,5.5,1.1875
0.9100000000000007,4.0,3.0,2.0,10.0,-1.0,-2.0,-2.0,0.0,0.09613037109375,0.01593017578125,0.9263916015625,-0.3636474609375,0.189453125,-0.0322265625,0.99169921875,2.8125,5.5,1.1875
0.9150000000000007,0.0,1.0,11.0,-2.0,2.0,1.0,2.0,-2.0,0.09613037109375,0.01593017578125,0.9263916015625,-0.3636474609375,0.189453125,-0.0322265625,0.99169921875,2.8125,5.5,1.1875
0.9200000000000007,0.0,1.0,11.0,-2.0,2.0,1.0,2.0,-2.0,0.09613037109375,0.01593017578125,0.9263916015625,-0.3636474609375,0.189453125,-0.0322265625,0.99169921875,2.8125,5.5,1.1875
0.9250000000000007,1.0,1.0,2.0,17.0,-4.0,-6.0,-5.0,0.0,0.09613037109375,0.01593017578125,0.9263916015625,-0.3636474609375,0.189453125,-0.0322265625,0.99169921875,2.8125,5.5,1.1875
0.9300000000000007,1.0,1.0,2.0,17.0,-4.0,-6.0,-5.0,0.0,0.09613037109375,0.01593017578125,0.9263916015625,-0.3636474609375,0.189453125,-0.0322265625,0.99169921875,2.8125,5.5,1.1875
0.9350000000000007,1.0,1.0,2.0,17.0,-4.0,-6.0,-5.0,0.0,0.09490966796875,0.01605224609375,0.92645263671875,-0.36383056640625,0.17578125,-0.03076171875,0.984375,2.5625,5.1875,0.6875
0.9400000000000007,-3.0,-1.0,-12.0,-18.0,-3.0,-3.0,-1.0,0.0,0.09490966796875,0.01605224609375,0.92645263671875,-0.36383056640625,0.17578125,-0.03076171875,0.984375,2.5625,5.1875,0.6875
0.9450000000000007,-3.0,-1.0,-12.0,-18.0,-3.0,-3.0,-1.0,0.0,0.09490966796875,0.01605224609375,0.92645263671875,-0.36383056640625,0.17578125,-0.03076171875,0.984375,2.5625,5.1875,0.6875
0.9500000000000007,-4.0,1.0,-12.0,-51.0,-8.0,-3.0,-2.0,-4.0,0.09490966796875,0.01605224609375,0.92645263671875,-0.36383056640625,0.17578125,-0.03076171875,0.984375,2.5625,5.1875,0.6875
0.9550000000000007,-4.0,1.0,-12.0,-51.0,-8.0,-3.0,-2.0,-4.0,0.09490966796875,0.01605224609375,0.92645263671875,-0.36383056640625,0.17578125,-0.03076171875,0.984375,2.5625,5.1875,0.6875
0.9600000000000007,-4.0,1.0,-12.0,-51.0,-8.0,-3.0,-2.0,-4.0,0.09490966796875,0.01605224609375,0.92645263671875,-0.36383056640625,0.17578125,-0.03076171875,0.984375,2.5625,5.1875,0.6875
0.9650000000000007,-8.0,0.0,0.0,-4.0,-4.0,-2.0,-2.0,-6.0,0.09375,0.01611328125,0.92657470703125,-0.3638916015625,0.17138671875,-0.0205078125,0.98095703125,1.75,5.1875,0.1875
0.9700000000000008,2.0,-1.0,-1.0,29.0,6.0,1.0,3.0,-1.0,0.09375,0.01611328125,0.92657470703125,-0.3638916015625,0.17138671875,-0.0205078125,0.98095703125,1.75,5.1875,0.1875
0.9750000000000008,2.0,-1.0,-1.0,29.0,6.0,1.0,3.0,-1.0,0.0927734375,0.015869140625,0.92669677734375,-0.36383056640625,0.17333984375,-0.02978515625,0.98046875,0.1875,5.125,-0.375
0.9800000000000008,2.0,-1.0,-1.0,29.0,6.0,1.0,3.0,-1.0,0.0927734375,0.015869140625,0.92669677734375,-0.36383056640625,0.17333984375,-0.02978515625,0.98046875,0.1875,5.125,-0.375
0.9850000000000008,-5.0,-17.0,-2.0,26.0,8.0,3.0,2.0,-4.0,0.0927734375,0.015869140625,0.92669677734375,-0.36383056640625,0.17333984375,-0.02978515625,0.98046875,0.1875,5.125,-0.375
0.9900000000000008,0.0,4.0,8.0,9.0,1.0,0.0,-2.0,-1.0,0.0927734375,0.015869140625,0.92669677734375,-0.36383056640625,0.17333984375,-0.02978515625,0.98046875,0.1875,5.125,-0.375
0.9950000000000008,0.0,4.0,8.0,9.0,1.0,0.0,-2.0,-1.0,0.0927734375,0.015869140625,0.92669677734375,-0.36383056640625,0.17333984375,-0.02978515625,0.98046875,0.1875,5.125,-0.375
1.0000000000000007,0.0,4.0,8.0,9.0,1.0,0.0,-2.0,-1.0,0.091796875,0.01568603515625,0.92681884765625,-0.36376953125,0.1728515625,-0.03857421875,0.97119140625,0.875,5.0,-0.6875
1.0050000000000006,-1.0,4.0,-1.0,-15.0,0.0,0.0,0.0,-1.0,0.091796875,0.01568603515625,0.92681884765625,-0.36376953125,0.1728515625,-0.03857421875,0.97119140625,0.875,5.0,-0.6875
1.0100000000000005,1.0,-1.0,-3.0,4.0,-4.0,-3.0,0.0,6.0,0.091796875,0.01568603515625,0.92681884765625,-0.36376953125,0.1728515625,-0.03857421875,0.97119140625,0.875,5.0,-0.6875
1.0150000000000003,2.0,6.0,1.0,-13.0,-1.0,1.0,0.0,0.0,0.091796875,0.01568603515625,0.92681884765625,-0.36376953125,0.1728515625,-0.03857421875,0.97119140625,0.875,5.0,-0.6875
1.0200000000000002,2.0,6.0,1.0,-13.0,-1.0,1.0,0.0,0.0,0.091796875,0.01568603515625,0.92681884765625,-0.36376953125,0.1728515625,-0.03857421875,0.97119140625,0.875,5.0,-0.6875
1.0250000000000001,2.0,6.0,1.0,-13.0,-1.0,1.0,0.0,0.0,0.09088134765625,0.0159912109375,0.92694091796875,-0.36370849609375,0.181640625,-0.02880859375,0.96337890625,2.75,4.5,-0.8125
1.03,-2.0,1.0,-2.0,15.0,4.0,1.0,0.0,-1.0,0.09088134765625,0.0159912109375,0.92694091796875,-0.36370849609375,0.181640625,-0.02880859375,0.96337890625,2.75,4.5,-0.8125
1.035,-2.0,1.0,-2.0,15.0,4.0,1.0,0.0,-1.0,0.09088134765625,0.0159912109375,0.92694091796875,-0.36370849609375,0.181640625,-0.02880859375,0.96337890625,2.75,4.5,-0.8125
1.0399999999999998,-2.0,1.0,-2.0,15.0,4.0,1.0,0.0,-1.0,0.0899658203125,0.01641845703125,0.92706298828125,-0.363525390625,0.1806640625,-0.01513671875,0.970703125,2.875,4.375,-1.25
1.0449999999999997,-2.0,1.0,-2.0,15.0,4.0,1.0,0.0,-1.0,0.0899658203125,0.01641845703125,0.92706298828125,-0.363525390625,0.1806640625,-0.01513671875,0.970703125,2.875,4.375,-1.25
1.0499999999999996,0.0,-2.0,1.0,11.0,2.0,-2.0,-2.0,3.0,0.0899658203125,0.01641845703125,0.92706298828125,-0.363525390625,0.1806640625,-0.01513671875,0.970703125,2.875,4.375,-1.25
1.0549999999999995,5.0,0.0,-5.0,-10.0,-5.0,-3.0,-1.0,5.0,0.0899658203125,0.01641845703125,0.92706298828125,-0.363525390625,0.1806640625,-0.01513671875,0.970703125,2.875,4.375,-1.25
1.0599999999999994,5.0,0.0,-5.0,-10.0,-5.0,-3.0,-1.0,5.0,0.0899658203125,0.01641845703125,0.92706298828125,-0.363525390625,0.1806640625,-0.01513671875,0.970703125,2.875,4.375,-1.25
1.0649999999999993,5.0,0.0,-5.0,-10.0,-5.0,-3.0,-1.0,5.0,0.089111328125,0.016357421875,0.92718505859375,-0.36346435546875,0.17431640625,-0.0146484375,0.9765625,0.1875,4.6875,-0.5625
1.0699999999999992,0.0,-1.0,-1.0,-3.0,-1.0,0.0,0.0,1.0,0.089111328125,0.016357421875,0.92718505859375,-0.36346435546875,0.17431640625,-0.0146484375,0.9765625,0.1875,4.6875,-0.5625
1.074999999999999,0.0,-1.0,-1.0,-3.0,-1.0,0.0,0.0,1.0,0.089111328125,0.016357421875,0.92718505859375,-0.36346435546875,0.17431640625,-0.0146484375,0.9765625,0.1875,4.6875,-0.5625
1.079999999999999,-6.0,0.0,6.0,6.0,5.0,3.0,3.0,1.0,0.089111328125,0.016357421875,0.92718505859375,-0.36346435546875,0.17431640625,-0.0146484375,0.9765625,0.1875,4.6875,-0.5625
1.0849999999999989,-5.0,-2.0,-3.0,-3.0,-5.0,-1.0,-3.0,-3.0,0.089111328125,0.016357421875,0.92718505859375,-0.36346435546875,0.17431640625,-0.0146484375,0.9765625,0.1875,4.6875,-0.5625
1.0899999999999987,-5.0,-2.0,-3.0,-3.0,-5.0,-1.0,-3.0,-3.0,0.088623046875,0.01568603515625,0.92730712890625,-0.36322021484375,0.1748046875,-0.02734375,0.97705078125,-3.5625,3.875,-1.25
1.0949999999999986,-5.0,-2.0,-3.0,-3.0,-5.0,-1.0,-3.0,-3.0,0.088623046875,0.01568603515625,0.92730712890625,-0.36322021484375,0.1748046875,-0.02734375,0.97705078125,-3.5625,3.875,-1.25
1.0999999999999985,-8.0,-3.0,5.0,2.0,0.0,-2.0,-3.0,-4.0,0.08831787109375,0.01495361328125,0.927490234375,-0.36285400390625,0.17431640625,-0.04052734375,0.97216796875,-3.0,3.4375,-2.0625
1.1049999999999984,-8.0,-3.0,5.0,2.0,0.0,-2.0,-3.0,-4.0,0.08831787109375,0.01495361328125,0.927490234375,-0.36285400390625,0.17431640625,-0.04052734375,0.97216796875,-3.0,3.4375,-2.0625
1.1099999999999983,-3.0,-2.0,-1.0,14.0,0.0,0.0,-1.0,-3.0,0.08831787109375,0.01495361328125,0.927490234375,-0.36285400390625,0.17431640625,-0.04052734375,0.97216796875,-3.0,3.4375,-2.0625
1.1149999999999982,-2.0,-4.0,-11.0,-3.0,-7.0,-5.0,-2.0,-2.0,0.08831787109375,0.01495361328125,0.927490234375,-0.36285400390625,0.17431640625,-0.04052734375,0.97216796875,-3.0,3.4375,-2.0625
1.119999999999998,-2.0,-4.0,-11.0,-3.0,-7.0,-5.0,-2.0,-2.0,0.08831787109375,0.01495361328125,0.927490234375,-0.36285400390625,0.17431640625,-0.04052734375,0.97216796875,-3.0,3.4375,-2.0625
1.124999999999998,-2.0,-4.0,-11.0,-3.0,-7.0,-5.0,-2.0,-2.0,0.08795166015625,0.01446533203125,0.92767333984375,-0.36248779296875,0.166015625,-0.05517578125,0.97607421875,-1.0,2.5,-2.1875
1.129999999999998,-2.0,-4.0,-11.0,-3.0,-7.0,-5.0,-2.0,-2.0,0.08795166015625,0.01446533203125,0.92767333984375,-0.36248779296875,0.166015625,-0.05517578125,0.97607421875,-1.0,2.5,-2.1875
1.1349999999999978,-1.0,-9.0,-8.0,-7.0,-3.0,0.0,2.0,3.0,0.08795166015625,0.01446533203125,0.92767333984375,-0.36248779296875,0.166015625,-0.05517578125,0.97607421875,-1.0,2.5,-2.1875
1.1399999999999977,-1.0,-9.0,-8.0,-7.0,-3.0,0.0,2.0,3.0,0.08795166015625,0.01446533203125,0.92767333984375,-0.36248779296875,0.166015625,-0.05517578125,0.97607421875,-1.0,2.5,-2.1875
1.1449999999999976,0.0,1.0,-5.0,-24.0,0.0,-1.0,0.0,1.0,0.08795166015625,0.01446533203125,0.92767333984375,-0.36248779296875,0.166015625,-0.05517578125,0.97607421875,-1.0,2.5,-2.1875
1.1499999999999975,0.0,1.0,-5.0,-24.0,0.0,-1.0,0.0,1.0,0.08795166015625,0.01446533203125,0.92767333984375,-0.36248779296875,0.166015625,-0.05517578125,0.97607421875,-1.0,2.5,-2.1875
1.1549999999999974,0.0,1.0,-5.0,-24.0,0.0,-1.0,0.0,1.0,0.08746337890625,0.0145263671875,0.927978515625,-0.3619384765625,0.15869140625,-0.05029296875,0.97705078125,2.25,1.625,-3.75
1.1599999999999973,0.0,1.0,-5.0,-24.0,0.0,-1.0,0.0,1.0,0.08746337890625,0.0145263671875,0.927978515625,-0.3619384765625,0.15869140625,-0.05029296875,0.97705078125,2.25,1.625,-3.75
1.1649999999999971,-1.0,0.0,1.0,-1.0,0.0,0.0,-1.0,1.0,0.08746337890625,0.0145263671875,0.927978515625,-0.3619384765625,0.15869140625,-0.05029296875,0.97705078125,2.25,1.625,-3.75
1.169999999999997,-1.0,0.0,1.0,-1.0,0.0,0.0,-1.0,1.0,0.08746337890625,0.0145263671875,0.927978515625,-0.3619384765625,0.15869140625,-0.05029296875,0.97705078125,2.25,1.625,-3.75
1.174999999999997,-1.0,1.0,-1.0,-1.0,-1.0,0.0,1.0,-1.0,0.0870361328125,0.01483154296875,0.9283447265625,-0.361083984375,0.16748046875,-0.0478515625,0.97021484375,2.625,1.5625,-5.875
1.1799999999999968,-1.0,1.0,-1.0,-1.0,-1.0,0.0,1.0,-1.0,0.0870361328125,0.01483154296875,0.9283447265625,-0.361083984375,0.16748046875,-0.0478515625,0.97021484375,2.625,1.5625,-5.875
1.1849999999999967,0.0,4.0,3.0,11.0,1.0,-1.0,0.0,-1.0,0.0870361328125,0.01483154296875,0.9283447265625,-0.361083984375,0.16748046875,-0.0478515625,0.97021484375,2.625,1.5625,-5.875
1.1899999999999966,6.0,2.0,-2.0,-22.0,-2.0,0.0,1.0,1.0,0.0870361328125,0.01483154296875,0.9283447265625,-0.361083984375,0.16748046875,-0.0478515625,0.97021484375,2.625,1.5625,-5.875
1.1949999999999965,6.0,2.0,-2.0,-22.0,-2.0,0.0,1.0,1.0,0.0870361328125,0.01483154296875,0.9283447265625,-0.361083984375,0.16748046875,-0.0478515625,0.97021484375,2.625,1.5625,-5.875
1.1999999999999964,6.0,2.0,-2.0,-22.0,-2.0,0.0,1.0,1.0,0.0869140625,0.01483154296875,0.92877197265625,-0.3599853515625,0.1845703125,-0.0341796875,0.96923828125,-0.25,1.75,-6.6875
1.2049999999999963,6.0,2.0,-2.0,-22.0,-2.0,0.0,1.0,1.0,0.0869140625,0.01483154296875,0.92877197265625,-0.3599853515625,0.1845703125,-0.0341796875,0.96923828125,-0.25,1.75,-6.6875
1.2099999999999962,6.0,2.0,-2.0,-22.0,-2.0,0.0,1.0,1.0,0.0869140625,0.01483154296875,0.92877197265625,-0.3599853515625,0.1845703125,-0.0341796875,0.96923828125,-0.25,1.75,-6.6875
1.214999999999996,-2.0,-4.0,-9.0,-13.0,-9.0,-5.0,-5.0,-4.0,0.0869140625,0.01483154296875,0.92877197265625,-0.3599853515625,0.1845703125,-0.0341796875,0.96923828125,-0.25,1.75,-6.6875
1.219999999999996,-2.0,-4.0,-9.0,-13.0,-9.0,-5.0,-5.0,-4.0,0.0869140625,0.01483154296875,0.92877197265625,-0.3599853515625,0.1845703125,-0.0341796875,0.96923828125,-0.25,1.75,-6.6875
1.2249999999999959,-2.0,-3.0,1.0,7.0,2.0,1.0,1.0,-3.0,0.0869140625,0.01483154296875,0.92877197265625,-0.3599853515625,0.1845703125,-0.0341796875,0.96923828125,-0.25,1.75,-6.6875
1.2299999999999958,-2.0,-3.0,1.0,7.0,2.0,1.0,1.0,-3.0,0.0869140625,0.01483154296875,0.92877197265625,-0.3599853515625,0.1845703125,-0.0341796875,0.96923828125,-0.25,1.75,-6.6875
1.2349999999999957,-2.0,-3.0,1.0,7.0,2.0,1.0,1.0,-3.0,0.0870361328125,0.0145263671875,0.92919921875,-0.35882568359375,0.18798828125,-0.03759765625,0.98681640625,-2.4375,1.1875,-6.8125
1.2399999999999956,-2.0,-3.0,1.0,7.0,2.0,1.0,1.0,-3.0,0.0870361328125,0.0145263671875,0.92919921875,-0.35882568359375,0.18798828125,-0.03759765625,0.98681640625,-2.4375,1.1875,-6.8125
1.2449999999999954,1.0,-3.0,-6.0,-13.0,-6.0,-4.0,-4.0,-3.0,0.0870361328125,0.0145263671875,0.92919921875,-0.35882568359375,0.18798828125,-0.03759765625,0.98681640625,-2.4375,1.1875,-6.8125
1.2499999999999953,1.0,-3.0,-6.0,-13.0,-6.0,-4.0,-4.0,-3.0,0.0870361328125,0.0145263671875,0.92919921875,-0.35882568359375,0.18798828125,-0.03759765625,0.98681640625,-2.4375,1.1875,-6.8125
1.2549999999999952,1.0,-3.0,-6.0,-13.0,-6.0,-4.0,-4.0,-3.0,0.0872802734375,0.0133056640625,0.9295654296875,-0.35791015625,0.1748046875,-0.0537109375,0.98193359375,-6.375,1.5625,-5.3125
1.2599999999999951,1.0,-3.0,-6.0,-13.0,-6.0,-4.0,-4.0,-3.0,0.0872802734375,0.0133056640625,0.9295654296875,-0.35791015625,0.1748046875,-0.0537109375,0.98193359375,-6.375,1.5625,-5.3125
1.264999999999995,-2.0,0.0,3.0,30.0,3.0,-3.0,-2.0,1.0,0.0872802734375,0.0133056640625,0.9295654296875,-0.35791015625,0.1748046875,-0.0537109375,0.98193359375,-6.375,1.5625,-5.3125
1.269999999999995,-2.0,0.0,3.0,30.0,3.0,-3.0,-2.0,1.0,0.0872802734375,0.0133056640625,0.9295654296875,-0.35791015625,0.1748046875,-0.0537109375,0.98193359375,-6.375,1.5625,-5.3125
1.2749999999999948,1.0,-3.0,4.0,16.0,3.0,0.0,1.0,1.0,0.0872802734375,0.0133056640625,0.9295654296875,-0.35791015625,0.1748046875,-0.0537109375,0.98193359375,-6.375,1.5625,-5.3125
1.2799999999999947,1.0,-3.0,4.0,16.0,3.0,0.0,1.0,1.0,0.0872802734375,0.0133056640625,0.9295654296875,-0.35791015625,0.1748046875,-0.0537109375,0.98193359375,-6.375,1.5625,-5.3125
1.2849999999999946,1.0,-3.0,4.0,16.0,3.0,0.0,1.0,1.0,0.08740234375,0.01226806640625,0.92987060546875,-0.3570556640625,0.169921875,-0.0439453125,0.9775390625,-6.0,1.625,-4.8125
1.2899999999999945,-2.0,-2.0,-14.0,-26.0,-8.0,-2.0,-3.0,2.0,0.08740234375,0.01226806640625,0.92987060546875,-0.3570556640625,0.169921875,-0.0439453125,0.9775390625,-6.0,1.625,-4.8125
1.2949999999999944,-2.0,-2.0,-14.0,-26.0,-8.0,-2.0,-3.0,2.0,0.08740234375,0.01226806640625,0.92987060546875,-0.3570556640625,0.169921875,-0.0439453125,0.9775390625,-6.0,1.625,-4.8125
1.2999999999999943,-6.0,-3.0,-4.0,12.0,0.0,-2.0,-1.0,-2.0,0.08740234375,0.01226806640625,0.92987060546875,-0.3570556640625,0.169921875,-0.0439453125,0.9775390625,-6.0,1.625,-4.8125
1.3049999999999942,-6.0,-3.0,-4.0,12.0,0.0,-2.0,-1.0,-2.0,0.08740234375,0.01226806640625,0.92987060546875,-0.3570556640625,0.169921875,-0.0439453125,0.9775390625,-6.0,1.625,-4.8125
1.309999999999994,-6.0,-3.0,-4.0,12.0,0.0,-2.0,-1.0,-2.0,0.08746337890625,0.011474609375,0.93017578125,-0.35626220703125,0.17041015625,-0.048828125,0.98681640625,-4.125,1.25,-4.375
1.314999999999994,-6.0,-3.0,-4.0,12.0,0.0,-2.0,-1.0,-2.0,0.08746337890625,0.011474609375,0.93017578125,-0.35626220703125,0.17041015625,-0.048828125,0.98681640625,-4.125,1.25,-4.375
1.3199999999999938,-6.0,-3.0,-4.0,12.0,0.0,-2.0,-1.0,-2.0,0.08746337890625,0.011474609375,0.93017578125,-0.35626220703125,0.17041015625,-0.048828125,0.98681640625,-4.125,1.25,-4.375
1.3249999999999937,-2.0,-4.0,-4.0,-15.0,-5.0,-2.0,-2.0,0.0,0.08746337890625,0.011474609375,0.93017578125,-0.35626220703125,0.17041015625,-0.048828125,0.98681640625,-4.125,1.25,-4.375
1.3299999999999936,-2.0,-4.0,-4.0,-15.0,-5.0,-2.0,-2.0,0.0,0.08746337890625,0.011474609375,0.93017578125,-0.35626220703125,0.17041015625,-0.048828125,0.98681640625,-4.125,1.25,-4.375
1.3349999999999935,-2.0,-4.0,-4.0,-15.0,-5.0,-2.0,-2.0,0.0,0.08746337890625,0.0108642578125,0.93035888671875,-0.3558349609375,0.1650390625,-0.05615234375,0.994140625,-2.75,0.875,-2.5
1.3399999999999934,-2.0,-4.0,-4.0,-15.0,-5.0,-2.0,-2.0,0.0,0.08746337890625,0.0108642578125,0.93035888671875,-0.3558349609375,0.1650390625,-0.05615234375,0.994140625,-2.75,0.875,-2.5
1.3449999999999933,5.0,-5.0,0.0,8.0,-1.0,0.0,0.0,7.0,0.08746337890625,0.0108642578125,0.93035888671875,-0.3558349609375,0.1650390625,-0.05615234375,0.994140625,-2.75,0.875,-2.5
1.3499999999999932,5.0,-5.0,0.0,8.0,-1.0,0.0,0.0,7.0,0.08746337890625,0.0108642578125,0.93035888671875,-0.3558349609375,0.1650390625,-0.05615234375,0.994140625,-2.75,0.875,-2.5
1.354999999999993,-8.0,1.0,3.0,-8.0,-1.0,-1.0,0.0,1.0,0.08746337890625,0.0108642578125,0.93035888671875,-0.3558349609375,0.1650390625,-0.05615234375,0.994140625,-2.75,0.875,-2.5
1.359999999999993,-8.0,1.0,3.0,-8.0,-1.0,-1.0,0.0,1.0,0.08746337890625,0.0108642578125,0.93035888671875,-0.3558349609375,0.1650390625,-0.05615234375,0.994140625,-2.75,0.875,-2.5
1.3649999999999929,-8.0,1.0,3.0,-8.0,-1.0,-1.0,0.0,1.0,0.0872802734375,0.010498046875,0.930419921875,-0.355712890625,0.162109375,-0.05126953125,0.98779296875,-1.125,1.125,-0.875
1.3699999999999928,-8.0,1.0,3.0,-8.0,-1.0,-1.0,0.0,1.0,0.0872802734375,0.010498046875,0.930419921875,-0.355712890625,0.162109375,-0.05126953125,0.98779296875,-1.125,1.125,-0.875
1.3749999999999927,-1.0,-1.0,2.0,-2.0,1.0,-1.0,-1.0,-1.0,0.0872802734375,0.010498046875,0.930419921875,-0.355712890625,0.162109375,-0.05126953125,0.98779296875,-1.125,1.125,-0.875
1.3799999999999926,-1.0,-1.0,2.0,-2.0,1.0,-1.0,-1.0,-1.0,0.0872802734375,0.010498046875,0.930419921875,-0.355712890625,0.162109375,-0.05126953125,0.98779296875,-1.125,1.125,-0.875
1.3849999999999925,0.0,9.0,-13.0,-24.0,-13.0,-6.0,-5.0,-2.0,0.0872802734375,0.010498046875,0.930419921875,-0.355712890625,0.162109375,-0.05126953125,0.98779296875,-1.125,1.125,-0.875
1.3899999999999924,0.0,9.0,-13.0,-24.0,-13.0,-6.0,-5.0,-2.0,0.0872802734375,0.010498046875,0.930419921875,-0.355712890625,0.162109375,-0.05126953125,0.98779296875,-1.125,1.125,-0.875
1.3949999999999922,0.0,9.0,-13.0,-24.0,-13.0,-6.0,-5.0,-2.0,0.0870361328125,0.0103759765625,0.93048095703125,-0.3555908203125,0.16650390625,-0.04345703125,0.9873046875,-0.125,1.3125,-0.75
1.3999999999999921,0.0,9.0,-13.0,-24.0,-13.0,-6.0,-5.0,-2.0,0.0870361328125,0.0103759765625,0.93048095703125,-0.3555908203125,0.16650390625,-0.04345703125,0.9873046875,-0.125,1.3125,-0.75
1.404999999999992,-3.0,1.0,1.0,-6.0,-2.0,0.0,-1.0,-1.0,0.0870361328125,0.0103759765625,0.93048095703125,-0.3555908203125,0.16650390625,-0.04345703125,0.9873046875,-0.125,1.3125,-0.75
1.409999999999992,0.0,4.0,-1.0,22.0,5.0,1.0,-1.0,-1.0,0.0870361328125,0.0103759765625,0.93048095703125,-0.3555908203125,0.16650390625,-0.04345703125,0.9873046875,-0.125,1.3125,-0.75
1.4149999999999918,0.0,4.0,-1.0,22.0,5.0,1.0,-1.0,-1.0,0.08697509765625,0.01031494140625,0.93048095703125,-0.3555908203125,0.1572265625,-0.046875,0.9892578125,-0.4375,0.9375,-0.4375
1.4199999999999917,0.0,4.0,-1.0,22.0,5.0,1.0,-1.0,-1.0,0.08697509765625,0.01031494140625,0.93048095703125,-0.3555908203125,0.1572265625,-0.046875,0.9892578125,-0.4375,0.9375,-0.4375
1.4249999999999916,-4.0,-1.0,-3.0,1.0,-1.0,-1.0,-3.0,-5.0,0.08697509765625,0.01031494140625,0.93048095703125,-0.3555908203125,0.1572265625,-0.046875,0.9892578125,-0.4375,0.9375,-0.4375
1.4299999999999915,-4.0,-1.0,-3.0,1.0,-1.0,-1.0,-3.0,-5.0,0.08697509765625,0.01031494140625,0.93048095703125,-0.3555908203125,0.1572265625,-0.046875,0.9892578125,-0.4375,0.9375,-0.4375
1.4349999999999914,2.0,-5.0,17.0,10.0,-3.0,-2.0,0.0,0.0,0.08697509765625,0.01031494140625,0.93048095703125,-0.3555908203125,0.1572265625,-0.046875,0.9892578125,-0.4375,0.9375,-0.4375
1.4399999999999913,2.0,-5.0,17.0,10.0,-3.0,-2.0,0.0,0.0,0.08648681640625,0.00994873046875,0.9305419921875,-0.35565185546875,0.1328125,-0.04833984375,0.978515625,-0.6875,1.0,0.3125
1.4449999999999912,2.0,-5.0,17.0,10.0,-3.0,-2.0,0.0,0.0,0.08648681640625,0.00994873046875,0.9305419921875,-0.35565185546875,0.1328125,-0.04833984375,0.978515625,-0.6875,1.0,0.3125
1.449999999999991,-3.0,-2.0,-1.0,6.0,-1.0,-1.0,0.0,-2.0,0.08648681640625,0.00994873046875,0.9305419921875,-0.35565185546875,0.1328125,-0.04833984375,0.978515625,-0.6875,1.0,0.3125
1.454999999999991,2.0,-4.0,3.0,3.0,3.0,1.0,-1.0,1.0,0.08648681640625,0.00994873046875,0.9305419921875,-0.35565185546875,0.1328125,-0.04833984375,0.978515625,-0.6875,1.0,0.3125
1.4599999999999909,2.0,-4.0,3.0,3.0,3.0,1.0,-1.0,1.0,0.08636474609375,0.0098876953125,0.9305419921875,-0.355712890625,0.123046875,-0.0458984375,0.9638671875,-1.0,0.5625,-0.375
1.4649999999999908,2.0,-4.0,3.0,3.0,3.0,1.0,-1.0,1.0,0.08636474609375,0.0098876953125,0.9305419921875,-0.355712890625,0.123046875,-0.0458984375,0.9638671875,-1.0,0.5625,-0.375
1.4699999999999906,0.0,-1.0,1.0,15.0,3.0,0.0,0.0,-4.0,0.08636474609375,0.0098876953125,0.9305419921875,-0.355712890625,0.123046875,-0.0458984375,0.9638671875,-1.0,0.5625,-0.375
1.4749999999999905,-1.0,0.0,-3.0,43.0,-1.0,-4.0,-4.0,-4.0,0.08636474609375,0.0098876953125,0.9305419921875,-0.355712890625,0.123046875,-0.0458984375,0.9638671875,-1.0,0.5625,-0.375
1.4799999999999904,-1.0,0.0,-3.0,43.0,-1.0,-4.0,-4.0,-4.0,0.0863037109375,0.00970458984375,0.9306640625,-0.3553466796875,0.13818359375,-0.0537109375,0.966796875,-0.375,-1.0,-2.375
1.4849999999999903,-1.0,0.0,-3.0,43.0,-1.0,-4.0,-4.0,-4.0,0.0863037109375,0.00970458984375,0.9306640625,-0.3553466796875,0.13818359375,-0.0537109375,0.966796875,-0.375,-1.0,-2.375
1.4899999999999902,16.0,6.0,1.0,-7.0,-2.0,2.0,4.0,7.0,0.0863037109375,0.00970458984375,0.9306640625,-0.3553466796875,0.13818359375,-0.0537109375,0.966796875,-0.375,-1.0,-2.375
1.4949999999999901,-4.0,-2.0,-5.0,-31.0,-4.0,-1.0,-2.0,-3.0,0.0863037109375,0.00970458984375,0.9306640625,-0.3553466796875,0.13818359375,-0.0537109375,0.966796875,-0.375,-1.0,-2.375
1.49999999999999,-4.0,-2.0,-5.0,-31.0,-4.0,-1.0,-2.0,-3.0,0.0863037109375,0.00970458984375,0.9306640625,-0.3553466796875,0.13818359375,-0.0537109375,0.966796875,-0.375,-1.0,-2.375
1.50499999999999,-4.0,-2.0,-5.0,-31.0,-4.0,-1.0,-2.0,-3.0,0.08642578125,0.00970458984375,0.9307861328125,-0.35498046875,0.1533203125,-0.0556640625,0.96630859375,0.5,-1.5,-2.4375
1.5099999999999898,-4.0,-2.0,-5.0,-31.0,-4.0,-1.0,-2.0,-3.0,0.08642578125,0.00970458984375,0.9307861328125,-0.35498046875,0.1533203125,-0.0556640625,0.96630859375,0.5,-1.5,-2.4375
1.5149999999999897,9.0,-1.0,-2.0,0.0,-1.0,-3.0,-1.0,5.0,0.08642578125,0.00970458984375,0.9307861328125,-0.35498046875,0.1533203125,-0.0556640625,0.96630859375,0.5,-1.5,-2.4375
1.5199999999999896,1.0,1.0,3.0,1.0,3.0,1.0,0.0,-1.0,0.08642578125,0.00970458984375,0.9307861328125,-0.35498046875,0.1533203125,-0.0556640625,0.96630859375,0.5,-1.5,-2.4375
1.5249999999999895,1.0,1.0,3.0,1.0,3.0,1.0,0.0,-1.0,0.08642578125,0.00970458984375,0.9307861328125,-0.35498046875,0.1533203125,-0.0556640625,0.96630859375,0.5,-1.5,-2.4375
1.5299999999999894,1.0,1.0,3.0,1.0,3.0,1.0,0.0,-1.0,0.0865478515625,0.00982666015625,0.930908203125,-0.35467529296875,0.1484375,-0.05615234375,0.9755859375,1.25,-1.9375,-2.125
1.5349999999999893,1.0,1.0,3.0,1.0,3.0,1.0,0.0,-1.0,0.0865478515625,0.00982666015625,0.930908203125,-0.35467529296875,0.1484375,-0.05615234375,0.9755859375,1.25,-1.9375,-2.125
1.5399999999999892,0.0,-1.0,0.0,3.0,-1.0,0.0,-1.0,2.0,0.0865478515625,0.00982666015625,0.930908203125,-0.35467529296875,0.1484375,-0.05615234375,0.9755859375,1.25,-1.9375,-2.125
1.544999999999989,0.0,-1.0,0.0,3.0,-1.0,0.0,-1.0,2.0,0.08709716796875,0.009765625,0.9310302734375,-0.354248046875,0.16357421875,-0.06640625,0.97216796875,-0.25,-3.1875,-2.6875
1.549999999999989,-1.0,2.0,4.0,-1.0,2.0,1.0,0.0,-1.0,0.08709716796875,0.009765625,0.9310302734375,-0.354248046875,0.16357421875,-0.06640625,0.97216796875,-0.25,-3.1875,-2.6875
1.5549999999999888,-1.0,2.0,4.0,-1.0,2.0,1.0,0.0,-1.0,0.08709716796875,0.009765625,0.9310302734375,-0.354248046875,0.16357421875,-0.06640625,0.97216796875,-0.25,-3.1875,-2.6875
1.5599999999999887,-1.0,-4.0,-1.0,12.0,-1.0,-4.0,-4.0,1.0,0.08709716796875,0.009765625,0.9310302734375,-0.354248046875,0.16357421875,-0.06640625,0.97216796875,-0.25,-3.1875,-2.6875
1.5649999999999886,-2.0,-5.0,2.0,9.0,4.0,1.0,1.0,0.0,0.0882568359375,0.009765625,0.93115234375,-0.35357666015625,0.1962890625,-0.0654296875,0.97021484375,-1.1875,-4.0625,-3.9375
1.5699999999999885,-2.0,-5.0,2.0,9.0,4.0,1.0,1.0,0.0,0.0882568359375,0.009765625,0.93115234375,-0.35357666015625,0.1962890625,-0.0654296875,0.97021484375,-1.1875,-4.0625,-3.9375
1.5749999999999884,-3.0,0.0,-3.0,6.0,1.0,1.0,2.0,0.0,0.0882568359375,0.009765625,0.93115234375,-0.35357666015625,0.1962890625,-0.0654296875,0.97021484375,-1.1875,-4.0625,-3.9375
1.5799999999999883,-3.0,0.0,-3.0,6.0,1.0,1.0,2.0,0.0,0.0882568359375,0.009765625,0.93115234375,-0.35357666015625,0.1962890625,-0.0654296875,0.97021484375,-1.1875,-4.0625,-3.9375
1.5849999999999882,-3.0,-3.0,-7.0,-11.0,-5.0,-4.0,-2.0,-4.0,0.0882568359375,0.009765625,0.93115234375,-0.35357666015625,0.1962890625,-0.0654296875,0.97021484375,-1.1875,-4.0625,-3.9375
1.589999999999988,-9.0,-5.0,-1.0,10.0,-3.0,-1.0,1.0,-1.0,0.0892333984375,0.0098876953125,0.93133544921875,-0.3529052734375,0.20361328125,-0.04638671875,0.98046875,-1.5625,-3.625,-3.75
1.594999999999988,-9.0,-5.0,-1.0,10.0,-3.0,-1.0,1.0,-1.0,0.0892333984375,0.0098876953125,0.93133544921875,-0.3529052734375,0.20361328125,-0.04638671875,0.98046875,-1.5625,-3.625,-3.75
1.5999999999999879,-1.0,-3.0,4.0,7.0,5.0,3.0,1.0,-1.0,0.0892333984375,0.0098876953125,0.93133544921875,-0.3529052734375,0.20361328125,-0.04638671875,0.98046875,-1.5625,-3.625,-3.75
1.6049999999999878,-1.0,-3.0,4.0,7.0,5.0,3.0,1.0,-1.0,0.09014892578125,0.00946044921875,0.93133544921875,-0.35260009765625,0.18212890625,-0.04541015625,0.98388671875,-4.625,-3.1875,-1.6875
1.6099999999999877,-1.0,-3.0,4.0,7.0,5.0,3.0,1.0,-1.0,0.09014892578125,0.00946044921875,0.93133544921875,-0.35260009765625,0.18212890625,-0.04541015625,0.98388671875,-4.625,-3.1875,-1.6875
1.6149999999999876,1.0,-6.0,0.0,23.0,1.0,-2.0,-4.0,0.0,0.09014892578125,0.00946044921875,0.93133544921875,-0.35260009765625,0.18212890625,-0.04541015625,0.98388671875,-4.625,-3.1875,-1.6875
1.6199999999999875,8.0,0.0,-4.0,-14.0,-1.0,0.0,1.0,10.0,0.09014892578125,0.00946044921875,0.93133544921875,-0.35260009765625,0.18212890625,-0.04541015625,0.98388671875,-4.625,-3.1875,-1.6875
1.6249999999999873,8.0,0.0,-4.0,-14.0,-1.0,0.0,1.0,10.0,0.09014892578125,0.00946044921875,0.93133544921875,-0.35260009765625,0.18212890625,-0.04541015625,0.98388671875,-4.625,-3.1875,-1.6875
1.6299999999999872,8.0,0.0,-4.0,-14.0,-1.0,0.0,1.0,10.0,0.09100341796875,0.00860595703125,0.931396484375,-0.35223388671875,0.17333984375,-0.0546875,0.9912109375,-5.9375,-3.125,-1.5
1.6349999999999871,8.0,0.0,-4.0,-14.0,-1.0,0.0,1.0,10.0,0.09100341796875,0.00860595703125,0.931396484375,-0.35223388671875,0.17333984375,-0.0546875,0.9912109375,-5.9375,-3.125,-1.5
1.639999999999987,8.0,0.0,-4.0,-14.0,-1.0,0.0,1.0,10.0,0.09100341796875,0.00860595703125,0.931396484375,-0.35223388671875,0.17333984375,-0.0546875,0.9912109375,-5.9375,-3.125,-1.5
1.644999999999987,8.0,1.0,1.0,-7.0,1.0,0.0,-2.0,3.0,0.09100341796875,0.00860595703125,0.931396484375,-0.35223388671875,0.17333984375,-0.0546875,0.9912109375,-5.9375,-3.125,-1.5
1.6499999999999868,8.0,1.0,1.0,-7.0,1.0,0.0,-2.0,3.0,0.09100341796875,0.00860595703125,0.931396484375,-0.35223388671875,0.17333984375,-0.0546875,0.9912109375,-5.9375,-3.125,-1.5
1.6549999999999867,8.0,1.0,1.0,-7.0,1.0,0.0,-2.0,3.0,0.091796875,0.00811767578125,0.9315185546875,-0.351806640625,0.181640625,-0.06640625,1.0009765625,-3.5,-3.1875,-2.375
1.6599999999999866,-3.0,-2.0,-1.0,-1.0,-1.0,-1.0,-1.0,-7.0,0.091796875,0.00811767578125,0.9315185546875,-0.351806640625,0.181640625,-0.06640625,1.0009765625,-3.5,-3.1875,-2.375
1.6649999999999865,-3.0,-2.0,-1.0,-1.0,-1.0,-1.0,-1.0,-7.0,0.091796875,0.00811767578125,0.9315185546875,-0.351806640625,0.181640625,-0.06640625,1.0009765625,-3.5,-3.1875,-2.375
1.6699999999999864,-3.0,-2.0,-1.0,-1.0,-1.0,-1.0,-1.0,-7.0,0.09222412109375,0.00787353515625,0.9315185546875,-0.35162353515625,0.17333984375,-0.080078125,1.00927734375,-0.375,-2.5,-1.375
1.6749999999999863,0.0,6.0,4.0,24.0,-3.0,-3.0,-6.0,-3.0,0.09222412109375,0.00787353515625,0.9315185546875,-0.35162353515625,0.17333984375,-0.080078125,1.00927734375,-0.375,-2.5,-1.375
1.6799999999999862,-3.0,-1.0,-4.0,-7.0,-4.0,-2.0,-2.0,-4.0,0.09222412109375,0.00787353515625,0.9315185546875,-0.35162353515625,0.17333984375,-0.080078125,1.00927734375,-0.375,-2.5,-1.375
1.684999999999986,-3.0,-1.0,-4.0,-7.0,-4.0,-2.0,-2.0,-4.0,0.09222412109375,0.00787353515625,0.9315185546875,-0.35162353515625,0.17333984375,-0.080078125,1.00927734375,-0.375,-2.5,-1.375
1.689999999999986,-3.0,-1.0,-4.0,-7.0,-4.0,-2.0,-2.0,-4.0,0.09246826171875,0.0079345703125,0.93157958984375,-0.35137939453125,0.16748046875,-0.06884765625,1.0009765625,0.9375,-2.1875,-1.5625
1.6949999999999859,-3.0,-1.0,-4.0,-7.0,-4.0,-2.0,-2.0,-4.0,0.09246826171875,0.0079345703125,0.93157958984375,-0.35137939453125,0.16748046875,-0.06884765625,1.0009765625,0.9375,-2.1875,-1.5625
1.6999999999999857,-5.0,-4.0,-3.0,1.0,3.0,-1.0,-2.0,-3.0,0.09246826171875,0.0079345703125,0.93157958984375,-0.35137939453125,0.16748046875,-0.06884765625,1.0009765625,0.9375,-2.1875,-1.5625
1.7049999999999856,-5.0,-4.0,-3.0,1.0,3.0,-1.0,-2.0,-3.0,0.09283447265625,0.0079345703125,0.93182373046875,-0.35076904296875,0.18603515625,-0.06787109375,0.99853515625,0.0625,-1.9375,-4.1875
1.7099999999999855,-5.0,-4.0,-3.0,1.0,3.0,-1.0,-2.0,-3.0,0.09283447265625,0.0079345703125,0.93182373046875,-0.35076904296875,0.18603515625,-0.06787109375,0.99853515625,0.0625,-1.9375,-4.1875
1.7149999999999854,-5.0,-4.0,-3.0,1.0,3.0,-1.0,-2.0,-3.0,0.09283447265625,0.0079345703125,0.93182373046875,-0.35076904296875,0.18603515625,-0.06787109375,0.99853515625,0.0625,-1.9375,-4.1875
1.7199999999999853,-4.0,-2.0,-3.0,4.0,2.0,1.0,0.0,-1.0,0.09283447265625,0.0079345703125,0.93182373046875,-0.35076904296875,0.18603515625,-0.06787109375,0.99853515625,0.0625,-1.9375,-4.1875
1.7249999999999852,-4.0,-2.0,-3.0,4.0,2.0,1.0,0.0,-1.0,0.0931396484375,0.00750732421875,0.93206787109375,-0.3499755859375,0.18994140625,-0.06494140625,1.0078125,-2.5625,-0.1875,-4.625
1.729999999999985,-4.0,-2.0,-3.0,4.0,2.0,1.0,0.0,-1.0,0.0931396484375,0.00750732421875,0.93206787109375,-0.3499755859375,0.18994140625,-0.06494140625,1.0078125,-2.5625,-0.1875,-4.625
1.734999999999985,-2.0,-2.0,-4.0,-32.0,-6.0,0.0,0.0,-1.0,0.0931396484375,0.00750732421875,0.93206787109375,-0.3499755859375,0.18994140625,-0.06494140625,1.0078125,-2.5625,-0.1875,-4.625
1.739999999999985,-2.0,-2.0,-4.0,-32.0,-6.0,0.0,0.0,-1.0,0.0931396484375,0.00750732421875,0.93206787109375,-0.3499755859375,0.18994140625,-0.06494140625,1.0078125,-2.5625,-0.1875,-4.625
1.7449999999999848,-2.0,-3.0,-3.0,-10.0,-5.0,-1.0,-1.0,-1.0,0.0931396484375,0.00750732421875,0.93206787109375,-0.3499755859375,0.18994140625,-0.06494140625,1.0078125,-2.5625,-0.1875,-4.625
1.7499999999999847,-2.0,-3.0,-3.0,-10.0,-5.0,-1.0,-1.0,-1.0,0.0931396484375,0.00750732421875,0.93206787109375,-0.3499755859375,0.18994140625,-0.06494140625,1.0078125,-2.5625,-0.1875,-4.625
1.7549999999999846,-2.0,-3.0,-3.0,-10.0,-5.0,-1.0,-1.0,-1.0,0.09307861328125,0.006591796875,0.93231201171875,-0.34942626953125,0.1640625,-0.0498046875,0.99755859375,-5.25,1.25,-3.0
1.7599999999999845,-2.0,-3.0,-3.0,-10.0,-5.0,-1.0,-1.0,-1.0,0.09307861328125,0.006591796875,0.93231201171875,-0.34942626953125,0.1640625,-0.0498046875,0.99755859375,-5.25,1.25,-3.0
1.7649999999999844,-1.0,5.0,-3.0,-1.0,-3.0,-3.0,-1.0,0.0,0.09307861328125,0.006591796875,0.93231201171875,-0.34942626953125,0.1640625,-0.0498046875,0.99755859375,-5.25,1.25,-3.0
1.7699999999999843,-1.0,5.0,-3.0,-1.0,-3.0,-3.0,-1.0,0.0,0.09307861328125,0.006591796875,0.93231201171875,-0.34942626953125,0.1640625,-0.0498046875,0.99755859375,-5.25,1.25,-3.0
1.7749999999999841,-1.0,-1.0,1.0,10.0,1.0,0.0,0.0,-1.0,0.09307861328125,0.006591796875,0.93231201171875,-0.34942626953125,0.1640625,-0.0498046875,0.99755859375,-5.25,1.25,-3.0
1.779999999999984,-1.0,-1.0,1.0,10.0,1.0,0.0,0.0,-1.0,0.09307861328125,0.006591796875,0.93231201171875,-0.34942626953125,0.1640625,-0.0498046875,0.99755859375,-5.25,1.25,-3.0
1.784999999999984,-1.0,-1.0,1.0,10.0,1.0,0.0,0.0,-1.0,0.09307861328125,0.00531005859375,0.9324951171875,-0.348876953125,0.158203125,-0.05224609375,0.99755859375,-7.5625,1.1875,-2.5625
1.7899999999999838,-1.0,-1.0,1.0,10.0,1.0,0.0,0.0,-1.0,0.09307861328125,0.00531005859375,0.9324951171875,-0.348876953125,0.158203125,-0.05224609375,0.99755859375,-7.5625,1.1875,-2.5625
1.7949999999999837,-7.0,-2.0,-7.0,-26.0,1.0,1.0,-2.0,-3.0,0.09307861328125,0.00531005859375,0.9324951171875,-0.348876953125,0.158203125,-0.05224609375,0.99755859375,-7.5625,1.1875,-2.5625
1.7999999999999836,-3.0,-5.0,-3.0,-5.0,-3.0,-4.0,-2.0,-1.0,0.09307861328125,0.00531005859375,0.9324951171875,-0.348876953125,0.158203125,-0.05224609375,0.99755859375,-7.5625,1.1875,-2.5625
1.8049999999999835,-3.0,-5.0,-3.0,-5.0,-3.0,-4.0,-2.0,-1.0,0.09307861328125,0.00531005859375,0.9324951171875,-0.348876953125,0.158203125,-0.05224609375,0.99755859375,-7.5625,1.1875,-2.5625
1.8099999999999834,-3.0,-5.0,-3.0,-5.0,-3.0,-4.0,-2.0,-1.0,0.09326171875,0.003662109375,0.93267822265625,-0.34844970703125,0.16552734375,-0.068359375,0.98876953125,-8.875,1.25,-2.0
1.8149999999999833,2.0,2.0,4.0,11.0,2.0,0.0,0.0,2.0,0.09326171875,0.003662109375,0.93267822265625,-0.34844970703125,0.16552734375,-0.068359375,0.98876953125,-8.875,1.25,-2.0
1.8199999999999832,2.0,2.0,4.0,11.0,2.0,0.0,0.0,2.0,0.09326171875,0.003662109375,0.93267822265625,-0.34844970703125,0.16552734375,-0.068359375,0.98876953125,-8.875,1.25,-2.0
1.824999999999983,2.0,2.0,4.0,11.0,2.0,0.0,0.0,2.0,0.09326171875,0.003662109375,0.93267822265625,-0.34844970703125,0.16552734375,-0.068359375,0.98876953125,-8.875,1.25,-2.0
1.829999999999983,-4.0,-3.0,-2.0,-1.0,-3.0,0.0,-2.0,-2.0,0.09326171875,0.003662109375,0.93267822265625,-0.34844970703125,0.16552734375,-0.068359375,0.98876953125,-8.875,1.25,-2.0
1.8349999999999829,-4.0,-3.0,-2.0,-1.0,-3.0,0.0,-2.0,-2.0,0.09326171875,0.00225830078125,0.9327392578125,-0.34832763671875,0.1591796875,-0.06787109375,0.9833984375,-7.0625,1.9375,-0.1875
1.8399999999999828,-4.0,-3.0,-2.0,-1.0,-3.0,0.0,-2.0,-2.0,0.09326171875,0.00225830078125,0.9327392578125,-0.34832763671875,0.1591796875,-0.06787109375,0.9833984375,-7.0625,1.9375,-0.1875
1.8449999999999827,-4.0,-3.0,-2.0,-1.0,-3.0,0.0,-2.0,-2.0,0.09326171875,0.00225830078125,0.9327392578125,-0.34832763671875,0.1591796875,-0.06787109375,0.9833984375,-7.0625,1.9375,-0.1875
1.8499999999999825,-1.0,-2.0,-3.0,-19.0,-1.0,-2.0,1.0,0.0,0.09326171875,0.00225830078125,0.9327392578125,-0.34832763671875,0.1591796875,-0.06787109375,0.9833984375,-7.0625,1.9375,-0.1875
1.8549999999999824,7.0,12.0,-11.0,8.0,-3.0,-2.0,-2.0,0.0,0.09326171875,0.00225830078125,0.9327392578125,-0.34832763671875,0.1591796875,-0.06787109375,0.9833984375,-7.0625,1.9375,-0.1875
1.8599999999999823,7.0,12.0,-11.0,8.0,-3.0,-2.0,-2.0,0.0,0.09326171875,0.00225830078125,0.9327392578125,-0.34832763671875,0.1591796875,-0.06787109375,0.9833984375,-7.0625,1.9375,-0.1875
1.8649999999999822,7.0,12.0,-11.0,8.0,-3.0,-2.0,-2.0,0.0,0.09326171875,0.00225830078125,0.9327392578125,-0.34832763671875,0.1591796875,-0.06787109375,0.9833984375,-7.0625,1.9375,-0.1875
1.8699999999999821,7.0,12.0,-11.0,8.0,-3.0,-2.0,-2.0,0.0,0.09295654296875,0.00128173828125,0.9327392578125,-0.3482666015625,0.1484375,-0.068359375,0.99267578125,-4.1875,1.3125,0.0
1.874999999999982,7.0,12.0,-11.0,8.0,-3.0,-2.0,-2.0,0.0,0.09295654296875,0.00128173828125,0.9327392578125,-0.3482666015625,0.1484375,-0.068359375,0.99267578125,-4.1875,1.3125,0.0
1.879999999999982,-17.0,-6.0,3.0,-8.0,-3.0,3.0,1.0,-5.0,0.09295654296875,0.00128173828125,0.9327392578125,-0.3482666015625,0.1484375,-0.068359375,0.99267578125,-4.1875,1.3125,0.0
1.8849999999999818,-17.0,-6.0,3.0,-8.0,-3.0,3.0,1.0,-5.0,0.09295654296875,0.00128173828125,0.9327392578125,-0.3482666015625,0.1484375,-0.068359375,0.99267578125,-4.1875,1.3125,0.0
1.8899999999999817,0.0,-3.0,1.0,-17.0,0.0,-1.0,0.0,0.0,0.0927734375,0.00067138671875,0.93280029296875,-0.34820556640625,0.166015625,-0.064453125,0.9921875,-2.9375,1.6875,-0.3125
1.8949999999999816,0.0,-3.0,1.0,-17.0,0.0,-1.0,0.0,0.0,0.0927734375,0.00067138671875,0.93280029296875,-0.34820556640625,0.166015625,-0.064453125,0.9921875,-2.9375,1.6875,-0.3125
1.8999999999999815,0.0,2.0,0.0,-9.0,-5.0,-3.0,-1.0,-1.0,0.0927734375,0.00067138671875,0.93280029296875,-0.34820556640625,0.166015625,-0.064453125,0.9921875,-2.9375,1.6875,-0.3125
1.9049999999999814,0.0,2.0,0.0,-9.0,-5.0,-3.0,-1.0,-1.0,0.0927734375,0.00067138671875,0.93280029296875,-0.34820556640625,0.166015625,-0.064453125,0.9921875,-2.9375,1.6875,-0.3125
1.9099999999999813,-4.0,-7.0,2.0,14.0,-1.0,-1.0,-4.0,-3.0,0.0927734375,0.00067138671875,0.93280029296875,-0.34820556640625,0.166015625,-0.064453125,0.9921875,-2.9375,1.6875,-0.3125
1.9149999999999812,-4.0,-7.0,2.0,14.0,-1.0,-1.0,-4.0,-3.0,0.0927734375,0.00067138671875,0.93280029296875,-0.34820556640625,0.166015625,-0.064453125,0.9921875,-2.9375,1.6875,-0.3125
1.919999999999981,-4.0,-7.0,2.0,14.0,-1.0,-1.0,-4.0,-3.0,0.0924072265625,-0.0001220703125,0.9327392578125,-0.348388671875,0.16552734375,-0.0673828125,0.994140625,-3.25,2.8125,1.4375
1.924999999999981,-20.0,-10.0,1.0,-6.0,-6.0,-4.0,-5.0,-24.0,0.0924072265625,-0.0001220703125,0.9327392578125,-0.348388671875,0.16552734375,-0.0673828125,0.994140625,-3.25,2.8125,1.4375
1.9299999999999808,-20.0,-10.0,1.0,-6.0,-6.0,-4.0,-5.0,-24.0,0.0924072265625,-0.0001220703125,0.9327392578125,-0.348388671875,0.16552734375,-0.0673828125,0.994140625,-3.25,2.8125,1.4375
1.9349999999999807,-20.0,-10.0,1.0,-6.0,-6.0,-4.0,-5.0,-24.0,0.0924072265625,-0.0001220703125,0.9327392578125,-0.348388671875,0.16552734375,-0.0673828125,0.994140625,-3.25,2.8125,1.4375
1.9399999999999806,8.0,13.0,-1.0,4.0,-5.0,-3.0,-1.0,0.0,0.0924072265625,-0.0001220703125,0.9327392578125,-0.348388671875,0.16552734375,-0.0673828125,0.994140625,-3.25,2.8125,1.4375
1.9449999999999805,8.0,13.0,-1.0,4.0,-5.0,-3.0,-1.0,0.0,0.0924072265625,-0.0001220703125,0.9327392578125,-0.348388671875,0.16552734375,-0.0673828125,0.994140625,-3.25,2.8125,1.4375
1.9499999999999804,8.0,13.0,-1.0,4.0,-5.0,-3.0,-1.0,0.0,0.09210205078125,-0.00091552734375,0.9326171875,-0.34881591796875,0.1650390625,-0.064453125,0.99169921875,-3.8125,2.75,3.1875
1.9549999999999803,8.0,13.0,-1.0,4.0,-5.0,-3.0,-1.0,0.0,0.09210205078125,-0.00091552734375,0.9326171875,-0.34881591796875,0.1650390625,-0.064453125,0.99169921875,-3.8125,2.75,3.1875
1.9599999999999802,5.0,-4.0,-5.0,16.0,0.0,-2.0,-2.0,4.0,0.09210205078125,-0.00091552734375,0.9326171875,-0.34881591796875,0.1650390625,-0.064453125,0.99169921875,-3.8125,2.75,3.1875
1.96499999999998,5.0,-4.0,-5.0,16.0,0.0,-2.0,-2.0,4.0,0.09210205078125,-0.00091552734375,0.9326171875,-0.34881591796875,0.1650390625,-0.064453125,0.99169921875,-3.8125,2.75,3.1875
1.96999999999998,3.0,-5.0,-5.0,-7.0,-3.0,-1.0,2.0,3.0,0.09222412109375,-0.00201416015625,0.9324951171875,-0.34918212890625,0.18212890625,-0.08251953125,0.9814453125,-5.0,2.125,2.4375
1.9749999999999799,5.0,1.0,3.0,28.0,3.0,-1.0,-1.0,3.0,0.09222412109375,-0.00201416015625,0.9324951171875,-0.34918212890625,0.18212890625,-0.08251953125,0.9814453125,-5.0,2.125,2.4375
1.9799999999999798,5.0,1.0,3.0,28.0,3.0,-1.0,-1.0,3.0,0.09222412109375,-0.00201416015625,0.9324951171875,-0.34918212890625,0.18212890625,-0.08251953125,0.9814453125,-5.0,2.125,2.4375
1.9849999999999797,-2.0,3.0,5.0,-2.0,-1.0,-1.0,-1.0,-3.0,0.09222412109375,-0.00201416015625,0.9324951171875,-0.34918212890625,0.18212890625,-0.08251953125,0.9814453125,-5.0,2.125,2.4375
1.9899999999999796,0.0,-1.0,0.0,-18.0,3.0,1.0,1.0,3.0,0.09222412109375,-0.00201416015625,0.9324951171875,-0.34918212890625,0.18212890625,-0.08251953125,0.9814453125,-5.0,2.125,2.4375
1.9949999999999795,0.0,-1.0,0.0,-18.0,3.0,1.0,1.0,3.0,0.0924072265625,-0.0029296875,0.932373046875,-0.349365234375,0.19482421875,-0.10400390625,0.98046875,-2.6875,2.3125,1.5
1.9999999999999793,0.0,-1.0,0.0,-18.0,3.0,1.0,1.0,3.0,0.0924072265625,-0.0029296875,0.932373046875,-0.349365234375,0.19482421875,-0.10400390625,0.98046875,-2.6875,2.3125,1.5
2.0049999999999795,3.0,-7.0,-8.0,-30.0,-9.0,-4.0,-2.0,3.0,0.0924072265625,-0.0029296875,0.932373046875,-0.349365234375,0.19482421875,-0.10400390625,0.98046875,-2.6875,2.3125,1.5
2.0099999999999794,3.0,-7.0,-8.0,-30.0,-9.0,-4.0,-2.0,3.0,0.0924072265625,-0.0029296875,0.932373046875,-0.349365234375,0.19482421875,-0.10400390625,0.98046875,-2.6875,2.3125,1.5
2.0149999999999793,-7.0,-3.0,6.0,4.0,3.0,1.0,1.0,-1.0,0.0924072265625,-0.0029296875,0.932373046875,-0.349365234375,0.19482421875,-0.10400390625,0.98046875,-2.6875,2.3125,1.5
2.019999999999979,-7.0,-3.0,6.0,4.0,3.0,1.0,1.0,-1.0,0.09210205078125,-0.0025634765625,0.932373046875,-0.349609375,0.185546875,-0.10986328125,0.98095703125,5.3125,2.3125,0.5625
2.024999999999979,-7.0,-3.0,6.0,4.0,3.0,1.0,1.0,-1.0,0.09210205078125,-0.0025634765625,0.932373046875,-0.349609375,0.185546875,-0.10986328125,0.98095703125,5.3125,2.3125,0.5625
2.029999999999979,1.0,4.0,1.0,-6.0,-3.0,1.0,1.0,0.0,0.09210205078125,-0.0025634765625,0.932373046875,-0.349609375,0.185546875,-0.10986328125,0.98095703125,5.3125,2.3125,0.5625
2.034999999999979,1.0,4.0,1.0,-6.0,-3.0,1.0,1.0,0.0,0.09210205078125,-0.0025634765625,0.932373046875,-0.349609375,0.185546875,-0.10986328125,0.98095703125,5.3125,2.3125,0.5625
2.0399999999999787,-7.0,-6.0,-10.0,-29.0,-5.0,-2.0,-3.0,-5.0,0.09210205078125,-0.0025634765625,0.932373046875,-0.349609375,0.185546875,-0.10986328125,0.98095703125,5.3125,2.3125,0.5625
2.0449999999999786,2.0,1.0,-1.0,11.0,2.0,-1.0,0.0,2.0,0.09136962890625,-0.0010986328125,0.932373046875,-0.3497314453125,0.185546875,-0.0693359375,0.98681640625,9.625,1.8125,0.1875
2.0499999999999785,2.0,1.0,-1.0,11.0,2.0,-1.0,0.0,2.0,0.09136962890625,-0.0010986328125,0.932373046875,-0.3497314453125,0.185546875,-0.0693359375,0.98681640625,9.625,1.8125,0.1875
2.0549999999999784,-1.0,-3.0,-2.0,-7.0,-1.0,-1.0,-3.0,-2.0,0.09136962890625,-0.0010986328125,0.932373046875,-0.3497314453125,0.185546875,-0.0693359375,0.98681640625,9.625,1.8125,0.1875
2.0599999999999783,-1.0,-3.0,-2.0,-7.0,-1.0,-1.0,-3.0,-2.0,0.09136962890625,-0.0010986328125,0.932373046875,-0.3497314453125,0.185546875,-0.0693359375,0.98681640625,9.625,1.8125,0.1875
2.064999999999978,-1.0,-3.0,-2.0,-7.0,-1.0,-1.0,-3.0,-2.0,0.0909423828125,-0.00018310546875,0.932373046875,-0.34991455078125,0.18994140625,-0.03955078125,0.98583984375,4.125,2.0,0.625
2.069999999999978,-1.0,-3.0,-2.0,-7.0,-1.0,-1.0,-3.0,-2.0,0.0909423828125,-0.00018310546875,0.932373046875,-0.34991455078125,0.18994140625,-0.03955078125,0.98583984375,4.125,2.0,0.625
2.074999999999978,3.0,1.0,2.0,-3.0,4.0,3.0,2.0,4.0,0.0909423828125,-0.00018310546875,0.932373046875,-0.34991455078125,0.18994140625,-0.03955078125,0.98583984375,4.125,2.0,0.625
2.079999999999978,-2.0,-4.0,4.0,-1.0,-3.0,-1.0,-1.0,-1.0,0.0909423828125,-0.00018310546875,0.932373046875,-0.34991455078125,0.18994140625,-0.03955078125,0.98583984375,4.125,2.0,0.625
2.0849999999999778,-2.0,-4.0,4.0,-1.0,-3.0,-1.0,-1.0,-1.0,0.0909423828125,-0.00054931640625,0.93231201171875,-0.35003662109375,0.1982421875,-0.033203125,0.9794921875,-4.0,2.5,1.4375
2.0899999999999777,-2.0,-4.0,4.0,-1.0,-3.0,-1.0,-1.0,-1.0,0.0909423828125,-0.00054931640625,0.93231201171875,-0.35003662109375,0.1982421875,-0.033203125,0.9794921875,-4.0,2.5,1.4375
2.0949999999999775,3.0,4.0,10.0,24.0,5.0,2.0,-1.0,-2.0,0.0909423828125,-0.00054931640625,0.93231201171875,-0.35003662109375,0.1982421875,-0.033203125,0.9794921875,-4.0,2.5,1.4375
2.0999999999999774,3.0,4.0,10.0,24.0,5.0,2.0,-1.0,-2.0,0.0909423828125,-0.00054931640625,0.93231201171875,-0.35003662109375,0.1982421875,-0.033203125,0.9794921875,-4.0,2.5,1.4375
2.1049999999999773,1.0,0.0,-1.0,12.0,1.0,-2.0,-1.0,0.0,0.0909423828125,-0.00177001953125,0.93212890625,-0.3504638671875,0.1796875,-0.0478515625,0.97802734375,-7.75,3.125,3.6875
2.1099999999999772,1.0,0.0,-1.0,12.0,1.0,-2.0,-1.0,0.0,0.0909423828125,-0.00177001953125,0.93212890625,-0.3504638671875,0.1796875,-0.0478515625,0.97802734375,-7.75,3.125,3.6875
2.114999999999977,1.0,0.0,-1.0,12.0,1.0,-2.0,-1.0,0.0,0.0909423828125,-0.00177001953125,0.93212890625,-0.3504638671875,0.1796875,-0.0478515625,0.97802734375,-7.75,3.125,3.6875
2.119999999999977,0.0,0.0,2.0,9.0,2.0,-1.0,0.0,0.0,0.0909423828125,-0.00177001953125,0.93212890625,-0.3504638671875,0.1796875,-0.0478515625,0.97802734375,-7.75,3.125,3.6875
2.124999999999977,-3.0,-3.0,-2.0,2.0,-2.0,-3.0,-2.0,-4.0,0.0909423828125,-0.00177001953125,0.93212890625,-0.3504638671875,0.1796875,-0.0478515625,0.97802734375,-7.75,3.125,3.6875
2.129999999999977,-3.0,-3.0,-2.0,2.0,-2.0,-3.0,-2.0,-4.0,0.09100341796875,-0.003173828125,0.93182373046875,-0.35125732421875,0.171875,-0.08349609375,0.9892578125,-6.375,2.75,5.25
2.1349999999999767,-3.0,-3.0,-2.0,2.0,-2.0,-3.0,-2.0,-4.0,0.09100341796875,-0.003173828125,0.93182373046875,-0.35125732421875,0.171875,-0.08349609375,0.9892578125,-6.375,2.75,5.25
2.1399999999999766,1.0,-1.0,-3.0,-15.0,-4.0,-1.0,-3.0,1.0,0.09100341796875,-0.003173828125,0.93182373046875,-0.35125732421875,0.171875,-0.08349609375,0.9892578125,-6.375,2.75,5.25
2.1449999999999765,1.0,-1.0,-3.0,-15.0,-4.0,-1.0,-3.0,1.0,0.09100341796875,-0.003173828125,0.93182373046875,-0.35125732421875,0.171875,-0.08349609375,0.9892578125,-6.375,2.75,5.25
2.1499999999999764,-3.0,-3.0,-2.0,-7.0,-1.0,-3.0,-3.0,-4.0,0.09100341796875,-0.003173828125,0.93182373046875,-0.35125732421875,0.171875,-0.08349609375,0.9892578125,-6.375,2.75,5.25
2.1549999999999763,-3.0,-3.0,-2.0,-7.0,-1.0,-3.0,-3.0,-4.0,0.09100341796875,-0.003173828125,0.93182373046875,-0.35125732421875,0.171875,-0.08349609375,0.9892578125,-6.375,2.75,5.25
2.159999999999976,-3.0,-3.0,-2.0,-7.0,-1.0,-3.0,-3.0,-4.0,0.09075927734375,-0.00341796875,0.9315185546875,-0.35211181640625,0.16943359375,-0.10546875,0.99072265625,1.9375,1.6875,4.9375
2.164999999999976,0.0,-2.0,0.0,15.0,5.0,0.0,-2.0,1.0,0.09075927734375,-0.00341796875,0.9315185546875,-0.35211181640625,0.16943359375,-0.10546875,0.99072265625,1.9375,1.6875,4.9375
2.169999999999976,0.0,-2.0,0.0,15.0,5.0,0.0,-2.0,1.0,0.09075927734375,-0.00341796875,0.9315185546875,-0.35211181640625,0.16943359375,-0.10546875,0.99072265625,1.9375,1.6875,4.9375
2.174999999999976,-1.0,0.0,0.0,6.0,0.0,0.0,0.0,1.0,0.09002685546875,-0.00225830078125,0.93121337890625,-0.35308837890625,0.1572265625,-0.1181640625,0.98193359375,11.6875,0.5,4.5625
2.1799999999999757,-1.0,0.0,0.0,6.0,0.0,0.0,0.0,1.0,0.09002685546875,-0.00225830078125,0.93121337890625,-0.35308837890625,0.1572265625,-0.1181640625,0.98193359375,11.6875,0.5,4.5625
2.1849999999999756,-1.0,0.0,0.0,6.0,0.0,0.0,0.0,1.0,0.09002685546875,-0.00225830078125,0.93121337890625,-0.35308837890625,0.1572265625,-0.1181640625,0.98193359375,11.6875,0.5,4.5625
2.1899999999999755,-1.0,0.0,0.0,6.0,0.0,0.0,0.0,1.0,0.09002685546875,-0.00225830078125,0.93121337890625,-0.35308837890625,0.1572265625,-0.1181640625,0.98193359375,11.6875,0.5,4.5625
2.1949999999999754,9.0,3.0,4.0,45.0,2.0,-3.0,-2.0,1.0,0.09002685546875,-0.00225830078125,0.93121337890625,-0.35308837890625,0.1572265625,-0.1181640625,0.98193359375,11.6875,0.5,4.5625
2.1999999999999753,9.0,3.0,4.0,45.0,2.0,-3.0,-2.0,1.0,0.09002685546875,-0.00225830078125,0.93121337890625,-0.35308837890625,0.1572265625,-0.1181640625,0.98193359375,11.6875,0.5,4.5625
2.204999999999975,9.0,3.0,4.0,45.0,2.0,-3.0,-2.0,1.0,0.09002685546875,-0.00225830078125,0.93121337890625,-0.35308837890625,0.1572265625,-0.1181640625,0.98193359375,11.6875,0.5,4.5625
2.209999999999975,-5.0,-4.0,2.0,16.0,3.0,-1.0,1.0,2.0,0.0889892578125,0.000732421875,0.93109130859375,-0.35369873046875,0.15283203125,-0.0849609375,0.97607421875,20.0,-1.25,1.5625
2.214999999999975,-5.0,-4.0,2.0,16.0,3.0,-1.0,1.0,2.0,0.0889892578125,0.000732421875,0.93109130859375,-0.35369873046875,0.15283203125,-0.0849609375,0.97607421875,20.0,-1.25,1.5625
2.219999999999975,-9.0,-4.0,-5.0,-22.0,-3.0,-1.0,0.0,-5.0,0.0889892578125,0.000732421875,0.93109130859375,-0.35369873046875,0.15283203125,-0.0849609375,0.97607421875,20.0,-1.25,1.5625
2.2249999999999748,-9.0,-4.0,-5.0,-22.0,-3.0,-1.0,0.0,-5.0,0.0889892578125,0.000732421875,0.93109130859375,-0.35369873046875,0.15283203125,-0.0849609375,0.97607421875,20.0,-1.25,1.5625
2.2299999999999747,-9.0,-4.0,-5.0,-22.0,-3.0,-1.0,0.0,-5.0,0.0889892578125,0.000732421875,0.93109130859375,-0.35369873046875,0.15283203125,-0.0849609375,0.97607421875,20.0,-1.25,1.5625
2.2349999999999746,-9.0,-4.0,-5.0,-22.0,-3.0,-1.0,0.0,-5.0,0.0875244140625,0.00439453125,0.93121337890625,-0.353759765625,0.1337890625,-0.0439453125,0.99609375,21.5,-2.125,-1.6875
2.2399999999999745,0.0,-1.0,-1.0,-8.0,-3.0,-2.0,0.0,-2.0,0.0875244140625,0.00439453125,0.93121337890625,-0.353759765625,0.1337890625,-0.0439453125,0.99609375,21.5,-2.125,-1.6875
2.2449999999999743,-4.0,-4.0,-10.0,-25.0,-6.0,-1.0,1.0,-2.0,0.0875244140625,0.00439453125,0.93121337890625,-0.353759765625,0.1337890625,-0.0439453125,0.99609375,21.5,-2.125,-1.6875
2.2499999999999742,-4.0,-4.0,-10.0,-25.0,-6.0,-1.0,1.0,-2.0,0.0875244140625,0.00439453125,0.93121337890625,-0.353759765625,0.1337890625,-0.0439453125,0.99609375,21.5,-2.125,-1.6875
2.254999999999974,-4.0,-4.0,-10.0,-25.0,-6.0,-1.0,1.0,-2.0,0.0869140625,0.0067138671875,0.9312744140625,-0.353759765625,0.13134765625,-0.05419921875,1.00634765625,14.0625,-3.875,-1.5625
2.259999999999974,-4.0,-4.0,-10.0,-25.0,-6.0,-1.0,1.0,-2.0,0.0869140625,0.0067138671875,0.9312744140625,-0.353759765625,0.13134765625,-0.05419921875,1.00634765625,14.0625,-3.875,-1.5625
2.264999999999974,-3.0,-1.0,-5.0,-19.0,-4.0,-1.0,-3.0,0.0,0.0869140625,0.0067138671875,0.9312744140625,-0.353759765625,0.13134765625,-0.05419921875,1.00634765625,14.0625,-3.875,-1.5625
2.269999999999974,-3.0,-1.0,-5.0,-19.0,-4.0,-1.0,-3.0,0.0,0.0869140625,0.0067138671875,0.9312744140625,-0.353759765625,0.13134765625,-0.05419921875,1.00634765625,14.0625,-3.875,-1.5625
2.2749999999999737,-3.0,-1.0,-5.0,-19.0,-4.0,-1.0,-3.0,0.0,0.0869140625,0.0067138671875,0.9312744140625,-0.353759765625,0.13134765625,-0.05419921875,1.00634765625,14.0625,-3.875,-1.5625
2.2799999999999736,-4.0,-5.0,1.0,-20.0,2.0,2.0,0.0,-4.0,0.08660888671875,0.00921630859375,0.9312744140625,-0.3536376953125,0.16748046875,-0.05029296875,0.990234375,14.125,-3.8125,-1.9375
2.2849999999999735,-6.0,-4.0,-5.0,0.0,-8.0,-4.0,-3.0,-4.0,0.08660888671875,0.00921630859375,0.9312744140625,-0.3536376953125,0.16748046875,-0.05029296875,0.990234375,14.125,-3.8125,-1.9375
2.2899999999999734,-1.0,-1.0,0.0,3.0,1.0,-1.0,0.0,-4.0,0.08660888671875,0.00921630859375,0.9312744140625,-0.3536376953125,0.16748046875,-0.05029296875,0.990234375,14.125,-3.8125,-1.9375
2.2949999999999733,8.0,1.0,2.0,21.0,6.0,0.0,0.0,1.0,0.08660888671875,0.00921630859375,0.9312744140625,-0.3536376953125,0.16748046875,-0.05029296875,0.990234375,14.125,-3.8125,-1.9375
2.299999999999973,4.0,-3.0,-12.0,-32.0,-8.0,-4.0,-2.0,2.0,0.08587646484375,0.01226806640625,0.931396484375,-0.35345458984375,0.18115234375,-0.029296875,0.9736328125,16.9375,-1.0625,-2.625
2.304999999999973,4.0,-3.0,-12.0,-32.0,-8.0,-4.0,-2.0,2.0,0.08587646484375,0.01226806640625,0.931396484375,-0.35345458984375,0.18115234375,-0.029296875,0.9736328125,16.9375,-1.0625,-2.625
2.309999999999973,-3.0,-3.0,-5.0,-20.0,-10.0,-2.0,-2.0,-4.0,0.08587646484375,0.01226806640625,0.931396484375,-0.35345458984375,0.18115234375,-0.029296875,0.9736328125,16.9375,-1.0625,-2.625
2.314999999999973,-3.0,-3.0,-5.0,-20.0,-10.0,-2.0,-2.0,-4.0,0.08587646484375,0.01226806640625,0.931396484375,-0.35345458984375,0.18115234375,-0.029296875,0.9736328125,16.9375,-1.0625,-2.625
2.3199999999999728,-3.0,-3.0,-5.0,-20.0,-10.0,-2.0,-2.0,-4.0,0.08465576171875,0.01458740234375,0.93157958984375,-0.3531494140625,0.16064453125,0.0048828125,0.98583984375,12.0625,1.1875,-3.0
2.3249999999999726,-3.0,-3.0,-5.0,-20.0,-10.0,-2.0,-2.0,-4.0,0.08465576171875,0.01458740234375,0.93157958984375,-0.3531494140625,0.16064453125,0.0048828125,0.98583984375,12.0625,1.1875,-3.0
2.3299999999999725,-5.0,3.0,8.0,51.0,6.0,-1.0,-1.0,-1.0,0.08465576171875,0.01458740234375,0.93157958984375,-0.3531494140625,0.16064453125,0.0048828125,0.98583984375,12.0625,1.1875,-3.0
2.3349999999999724,-5.0,3.0,8.0,51.0,6.0,-1.0,-1.0,-1.0,0.08465576171875,0.01458740234375,0.93157958984375,-0.3531494140625,0.16064453125,0.0048828125,0.98583984375,12.0625,1.1875,-3.0
2.3399999999999723,-5.0,3.0,8.0,51.0,6.0,-1.0,-1.0,-1.0,0.08380126953125,0.01483154296875,0.931884765625,-0.3525390625,0.14501953125,0.0107421875,0.9892578125,-0.1875,2.6875,-3.75
2.344999999999972,-5.0,3.0,8.0,51.0,6.0,-1.0,-1.0,-1.0,0.08380126953125,0.01483154296875,0.931884765625,-0.3525390625,0.14501953125,0.0107421875,0.9892578125,-0.1875,2.6875,-3.75
2.349999999999972,0.0,0.0,-7.0,4.0,-3.0,-1.0,-1.0,-8.0,0.08380126953125,0.01483154296875,0.931884765625,-0.3525390625,0.14501953125,0.0107421875,0.9892578125,-0.1875,2.6875,-3.75
2.354999999999972,0.0,0.0,-7.0,4.0,-3.0,-1.0,-1.0,-8.0,0.08380126953125,0.01483154296875,0.931884765625,-0.3525390625,0.14501953125,0.0107421875,0.9892578125,-0.1875,2.6875,-3.75
2.359999999999972,3.0,3.0,-1.0,-17.0,2.0,0.0,-2.0,-2.0,0.08380126953125,0.01483154296875,0.931884765625,-0.3525390625,0.14501953125,0.0107421875,0.9892578125,-0.1875,2.6875,-3.75
2.364999999999972,3.0,3.0,-1.0,-17.0,2.0,0.0,-2.0,-2.0,0.08349609375,0.01318359375,0.93218994140625,-0.35186767578125,0.15576171875,-0.01220703125,0.9990234375,-10.125,4.25,-3.25
2.3699999999999717,3.0,3.0,-1.0,-17.0,2.0,0.0,-2.0,-2.0,0.08349609375,0.01318359375,0.93218994140625,-0.35186767578125,0.15576171875,-0.01220703125,0.9990234375,-10.125,4.25,-3.25
2.3749999999999716,-3.0,-2.0,1.0,-1.0,-3.0,-1.0,-1.0,0.0,0.08349609375,0.01318359375,0.93218994140625,-0.35186767578125,0.15576171875,-0.01220703125,0.9990234375,-10.125,4.25,-3.25
2.3799999999999715,-3.0,-2.0,1.0,-1.0,-3.0,-1.0,-1.0,0.0,0.08349609375,0.01318359375,0.93218994140625,-0.35186767578125,0.15576171875,-0.01220703125,0.9990234375,-10.125,4.25,-3.25
2.3849999999999714,-7.0,-7.0,1.0,4.0,1.0,-1.0,-2.0,-1.0,0.08349609375,0.01318359375,0.93218994140625,-0.35186767578125,0.15576171875,-0.01220703125,0.9990234375,-10.125,4.25,-3.25
2.3899999999999713,-7.0,-7.0,1.0,4.0,1.0,-1.0,-2.0,-1.0,0.08349609375,0.01318359375,0.93218994140625,-0.35186767578125,0.15576171875,-0.01220703125,0.9990234375,-10.125,4.25,-3.25
2.394999999999971,-7.0,-7.0,1.0,4.0,1.0,-1.0,-2.0,-1.0,0.08349609375,0.01318359375,0.93218994140625,-0.35186767578125,0.15576171875,-0.01220703125,0.9990234375,-10.125,4.25,-3.25
2.399999999999971,-7.0,-7.0,1.0,4.0,1.0,-1.0,-2.0,-1.0,0.08349609375,0.0107421875,0.932373046875,-0.3514404296875,0.171875,-0.03759765625,1.001953125,-13.5,5.4375,-1.25
2.404999999999971,-7.0,-7.0,1.0,4.0,1.0,-1.0,-2.0,-1.0,0.08349609375,0.0107421875,0.932373046875,-0.3514404296875,0.171875,-0.03759765625,1.001953125,-13.5,5.4375,-1.25
2.409999999999971,4.0,2.0,0.0,-18.0,-1.0,1.0,0.0,0.0,0.08349609375,0.0107421875,0.932373046875,-0.3514404296875,0.171875,-0.03759765625,1.001953125,-13.5,5.4375,-1.25
2.4149999999999707,4.0,2.0,0.0,-18.0,-1.0,1.0,0.0,0.0,0.08331298828125,0.00860595703125,0.93243408203125,-0.3514404296875,0.17333984375,-0.06396484375,1.0078125,-9.5625,5.6875,0.6875
2.4199999999999706,4.0,2.0,0.0,-18.0,-1.0,1.0,0.0,0.0,0.08331298828125,0.00860595703125,0.93243408203125,-0.3514404296875,0.17333984375,-0.06396484375,1.0078125,-9.5625,5.6875,0.6875
2.4249999999999705,4.0,2.0,0.0,-18.0,-1.0,1.0,0.0,0.0,0.08331298828125,0.00860595703125,0.93243408203125,-0.3514404296875,0.17333984375,-0.06396484375,1.0078125,-9.5625,5.6875,0.6875
2.4299999999999704,1.0,2.0,2.0,20.0,2.0,-1.0,2.0,5.0,0.08331298828125,0.00860595703125,0.93243408203125,-0.3514404296875,0.17333984375,-0.06396484375,1.0078125,-9.5625,5.6875,0.6875
2.4349999999999703,-1.0,0.0,1.0,-3.0,-6.0,-3.0,-1.0,-1.0,0.08331298828125,0.00860595703125,0.93243408203125,-0.3514404296875,0.17333984375,-0.06396484375,1.0078125,-9.5625,5.6875,0.6875
2.43999999999997,-1.0,0.0,1.0,-3.0,-6.0,-3.0,-1.0,-1.0,0.08331298828125,0.00860595703125,0.93243408203125,-0.3514404296875,0.17333984375,-0.06396484375,1.0078125,-9.5625,5.6875,0.6875
2.44499999999997,-1.0,0.0,1.0,-3.0,-6.0,-3.0,-1.0,-1.0,0.0826416015625,0.00762939453125,0.932373046875,-0.35174560546875,0.15576171875,-0.07421875,1.00048828125,-1.75,4.9375,1.8125
2.44999999999997,-1.0,0.0,1.0,-3.0,-6.0,-3.0,-1.0,-1.0,0.0826416015625,0.00762939453125,0.932373046875,-0.35174560546875,0.15576171875,-0.07421875,1.00048828125,-1.75,4.9375,1.8125
2.45499999999997,-8.0,-22.0,3.0,29.0,3.0,0.0,0.0,-1.0,0.0826416015625,0.00762939453125,0.932373046875,-0.35174560546875,0.15576171875,-0.07421875,1.00048828125,-1.75,4.9375,1.8125
2.4599999999999698,-8.0,-22.0,3.0,29.0,3.0,0.0,0.0,-1.0,0.0826416015625,0.00762939453125,0.932373046875,-0.35174560546875,0.15576171875,-0.07421875,1.00048828125,-1.75,4.9375,1.8125
2.4649999999999697,-8.0,-22.0,3.0,29.0,3.0,0.0,0.0,-1.0,0.0826416015625,0.00762939453125,0.932373046875,-0.35174560546875,0.15576171875,-0.07421875,1.00048828125,-1.75,4.9375,1.8125
2.4699999999999696,2.0,-2.0,-9.0,-27.0,-5.0,-2.0,-1.0,-1.0,0.0826416015625,0.00762939453125,0.932373046875,-0.35174560546875,0.15576171875,-0.07421875,1.00048828125,-1.75,4.9375,1.8125
2.4749999999999694,2.0,-2.0,-9.0,-27.0,-5.0,-2.0,-1.0,-1.0,0.081787109375,0.008056640625,0.93231201171875,-0.35211181640625,0.15966796875,-0.07568359375,0.99072265625,6.3125,3.875,1.4375
2.4799999999999693,2.0,-2.0,-9.0,-27.0,-5.0,-2.0,-1.0,-1.0,0.081787109375,0.008056640625,0.93231201171875,-0.35211181640625,0.15966796875,-0.07568359375,0.99072265625,6.3125,3.875,1.4375
2.4849999999999692,1.0,5.0,-2.0,-15.0,-5.0,-1.0,-2.0,-1.0,0.081787109375,0.008056640625,0.93231201171875,-0.35211181640625,0.15966796875,-0.07568359375,0.99072265625,6.3125,3.875,1.4375
2.489999999999969,0.0,-5.0,-3.0,4.0,2.0,0.0,-2.0,-1.0,0.081787109375,0.008056640625,0.93231201171875,-0.35211181640625,0.15966796875,-0.07568359375,0.99072265625,6.3125,3.875,1.4375
2.494999999999969,0.0,-5.0,-3.0,4.0,2.0,0.0,-2.0,-1.0,0.0806884765625,0.0096435546875,0.93231201171875,-0.35235595703125,0.1669921875,-0.04931640625,0.98193359375,11.625,3.5,0.25
2.499999999999969,0.0,-5.0,-3.0,4.0,2.0,0.0,-2.0,-1.0,0.0806884765625,0.0096435546875,0.93231201171875,-0.35235595703125,0.1669921875,-0.04931640625,0.98193359375,11.625,3.5,0.25
2.504999999999969,0.0,-5.0,-3.0,4.0,2.0,0.0,-2.0,-1.0,0.0806884765625,0.0096435546875,0.93231201171875,-0.35235595703125,0.1669921875,-0.04931640625,0.98193359375,11.625,3.5,0.25
2.5099999999999687,-2.0,2.0,-7.0,-23.0,-6.0,-3.0,-1.0,-3.0,0.0806884765625,0.0096435546875,0.93231201171875,-0.35235595703125,0.1669921875,-0.04931640625,0.98193359375,11.625,3.5,0.25
2.5149999999999686,-2.0,2.0,-7.0,-23.0,-6.0,-3.0,-1.0,-3.0,0.0806884765625,0.0096435546875,0.93231201171875,-0.35235595703125,0.1669921875,-0.04931640625,0.98193359375,11.625,3.5,0.25
2.5199999999999685,-2.0,-2.0,0.0,40.0,4.0,-1.0,0.0,-1.0,0.0806884765625,0.0096435546875,0.93231201171875,-0.35235595703125,0.1669921875,-0.04931640625,0.98193359375,11.625,3.5,0.25
2.5249999999999684,-2.0,-2.0,0.0,40.0,4.0,-1.0,0.0,-1.0,0.07940673828125,0.01129150390625,0.93231201171875,-0.3526611328125,0.16357421875,-0.03125,0.9833984375,11.125,3.9375,0.875
2.5299999999999683,-2.0,-2.0,0.0,40.0,4.0,-1.0,0.0,-1.0,0.07940673828125,0.01129150390625,0.93231201171875,-0.3526611328125,0.16357421875,-0.03125,0.9833984375,11.125,3.9375,0.875
2.534999999999968,1.0,0.0,-4.0,-6.0,1.0,0.0,0.0,1.0,0.07940673828125,0.01129150390625,0.93231201171875,-0.3526611328125,0.16357421875,-0.03125,0.9833984375,11.125,3.9375,0.875
2.539999999999968,1.0,0.0,-4.0,-6.0,1.0,0.0,0.0,1.0,0.07940673828125,0.01129150390625,0.93231201171875,-0.3526611328125,0.16357421875,-0.03125,0.9833984375,11.125,3.9375,0.875
2.544999999999968,-10.0,-4.0,-1.0,-30.0,0.0,2.0,2.0,0.0,0.07940673828125,0.01129150390625,0.93231201171875,-0.3526611328125,0.16357421875,-0.03125,0.9833984375,11.125,3.9375,0.875
2.549999999999968,-10.0,-4.0,-1.0,-30.0,0.0,2.0,2.0,0.0,0.07940673828125,0.01129150390625,0.93231201171875,-0.3526611328125,0.16357421875,-0.03125,0.9833984375,11.125,3.9375,0.875
2.5549999999999677,-10.0,-4.0,-1.0,-30.0,0.0,2.0,2.0,0.0,0.07806396484375,0.01190185546875,0.9322509765625,-0.35308837890625,0.1376953125,-0.01953125,0.982421875,5.0625,4.8125,2.0625
2.5599999999999676,-10.0,-4.0,-1.0,-30.0,0.0,2.0,2.0,0.0,0.07806396484375,0.01190185546875,0.9322509765625,-0.35308837890625,0.1376953125,-0.01953125,0.982421875,5.0625,4.8125,2.0625
2.5649999999999675,-10.0,-4.0,-1.0,-30.0,0.0,2.0,2.0,0.0,0.07806396484375,0.01190185546875,0.9322509765625,-0.35308837890625,0.1376953125,-0.01953125,0.982421875,5.0625,4.8125,2.0625
2.5699999999999674,2.0,0.0,3.0,6.0,3.0,-1.0,0.0,0.0,0.07806396484375,0.01190185546875,0.9322509765625,-0.35308837890625,0.1376953125,-0.01953125,0.982421875,5.0625,4.8125,2.0625
2.5749999999999673,2.0,0.0,3.0,6.0,3.0,-1.0,0.0,0.0,0.0772705078125,0.01123046875,0.9322509765625,-0.3531494140625,0.13623046875,-0.0166015625,0.9755859375,-2.875,4.8125,0.75
2.579999999999967,2.0,0.0,3.0,6.0,3.0,-1.0,0.0,0.0,0.0772705078125,0.01123046875,0.9322509765625,-0.3531494140625,0.13623046875,-0.0166015625,0.9755859375,-2.875,4.8125,0.75
2.584999999999967,-1.0,1.0,-6.0,-16.0,-6.0,-2.0,-1.0,1.0,0.0772705078125,0.01123046875,0.9322509765625,-0.3531494140625,0.13623046875,-0.0166015625,0.9755859375,-2.875,4.8125,0.75
2.589999999999967,-1.0,1.0,-6.0,-16.0,-6.0,-2.0,-1.0,1.0,0.0772705078125,0.01123046875,0.9322509765625,-0.3531494140625,0.13623046875,-0.0166015625,0.9755859375,-2.875,4.8125,0.75
2.594999999999967,-1.0,-1.0,-5.0,6.0,-3.0,-5.0,-2.0,-4.0,0.0772705078125,0.01123046875,0.9322509765625,-0.3531494140625,0.13623046875,-0.0166015625,0.9755859375,-2.875,4.8125,0.75
2.599999999999967,-1.0,-1.0,-5.0,6.0,-3.0,-5.0,-2.0,-4.0,0.0772705078125,0.01123046875,0.9322509765625,-0.3531494140625,0.13623046875,-0.0166015625,0.9755859375,-2.875,4.8125,0.75
2.6049999999999667,-1.0,-1.0,-5.0,6.0,-3.0,-5.0,-2.0,-4.0,0.07684326171875,0.00970458984375,0.932373046875,-0.35296630859375,0.14208984375,-0.02685546875,0.97900390625,-8.0625,4.875,-0.4375
2.6099999999999666,-1.0,-1.0,-5.0,6.0,-3.0,-5.0,-2.0,-4.0,0.07684326171875,0.00970458984375,0.932373046875,-0.35296630859375,0.14208984375,-0.02685546875,0.97900390625,-8.0625,4.875,-0.4375
2.6149999999999665,-1.0,-1.0,-5.0,6.0,-3.0,-5.0,-2.0,-4.0,0.07684326171875,0.00970458984375,0.932373046875,-0.35296630859375,0.14208984375,-0.02685546875,0.97900390625,-8.0625,4.875,-0.4375
2.6199999999999664,-1.0,1.0,0.0,-9.0,1.0,-2.0,-2.0,-1.0,0.07684326171875,0.00970458984375,0.932373046875,-0.35296630859375,0.14208984375,-0.02685546875,0.97900390625,-8.0625,4.875,-0.4375
2.6249999999999662,-1.0,1.0,2.0,31.0,1.0,-1.0,-3.0,0.0,0.07684326171875,0.00970458984375,0.932373046875,-0.35296630859375,0.14208984375,-0.02685546875,0.97900390625,-8.0625,4.875,-0.4375
2.629999999999966,-1.0,1.0,2.0,31.0,1.0,-1.0,-3.0,0.0,0.0765380859375,0.0076904296875,0.93243408203125,-0.35296630859375,0.1328125,-0.05224609375,0.97705078125,-9.3125,4.8125,0.625
2.634999999999966,-1.0,1.0,2.0,31.0,1.0,-1.0,-3.0,0.0,0.0765380859375,0.0076904296875,0.93243408203125,-0.35296630859375,0.1328125,-0.05224609375,0.97705078125,-9.3125,4.8125,0.625
2.639999999999966,0.0,0.0,4.0,-12.0,-2.0,-1.0,-1.0,-3.0,0.0765380859375,0.0076904296875,0.93243408203125,-0.35296630859375,0.1328125,-0.05224609375,0.97705078125,-9.3125,4.8125,0.625
2.644999999999966,0.0,0.0,4.0,-12.0,-2.0,-1.0,-1.0,-3.0,0.0765380859375,0.0076904296875,0.93243408203125,-0.35296630859375,0.1328125,-0.05224609375,0.97705078125,-9.3125,4.8125,0.625
2.6499999999999657,0.0,0.0,4.0,-12.0,-2.0,-1.0,-1.0,-3.0,0.0762939453125,0.0062255859375,0.93243408203125,-0.35308837890625,0.125,-0.0673828125,0.9775390625,-5.75,2.9375,0.6875
2.6549999999999656,-1.0,1.0,0.0,0.0,-3.0,-2.0,-1.0,-1.0,0.0762939453125,0.0062255859375,0.93243408203125,-0.35308837890625,0.125,-0.0673828125,0.9775390625,-5.75,2.9375,0.6875
2.6599999999999655,-1.0,1.0,0.0,0.0,-3.0,-2.0,-1.0,-1.0,0.0762939453125,0.0062255859375,0.93243408203125,-0.35308837890625,0.125,-0.0673828125,0.9775390625,-5.75,2.9375,0.6875
2.6649999999999654,-4.0,-2.0,-4.0,-7.0,-1.0,2.0,1.0,-2.0,0.0762939453125,0.0062255859375,0.93243408203125,-0.35308837890625,0.125,-0.0673828125,0.9775390625,-5.75,2.9375,0.6875
2.6699999999999653,-4.0,-2.0,-4.0,-7.0,-1.0,2.0,1.0,-2.0,0.0762939453125,0.0062255859375,0.93243408203125,-0.35308837890625,0.125,-0.0673828125,0.9775390625,-5.75,2.9375,0.6875
2.674999999999965,-4.0,-2.0,-4.0,-7.0,-1.0,2.0,1.0,-2.0,0.0758056640625,0.006103515625,0.93255615234375,-0.3529052734375,0.13330078125,-0.05615234375,0.978515625,1.1875,1.875,-1.3125
2.679999999999965,-1.0,-2.0,-9.0,11.0,-1.0,-4.0,-2.0,-2.0,0.0758056640625,0.006103515625,0.93255615234375,-0.3529052734375,0.13330078125,-0.05615234375,0.978515625,1.1875,1.875,-1.3125
2.684999999999965,-1.0,-2.0,-9.0,11.0,-1.0,-4.0,-2.0,-2.0,0.0758056640625,0.006103515625,0.93255615234375,-0.3529052734375,0.13330078125,-0.05615234375,0.978515625,1.1875,1.875,-1.3125
2.689999999999965,1.0,1.0,-1.0,-4.0,-2.0,-1.0,-1.0,1.0,0.0758056640625,0.006103515625,0.93255615234375,-0.3529052734375,0.13330078125,-0.05615234375,0.978515625,1.1875,1.875,-1.3125
2.6949999999999648,1.0,1.0,-1.0,-4.0,-2.0,-1.0,-1.0,1.0,0.0758056640625,0.006103515625,0.93255615234375,-0.3529052734375,0.13330078125,-0.05615234375,0.978515625,1.1875,1.875,-1.3125
2.6999999999999647,1.0,1.0,-1.0,-4.0,-2.0,-1.0,-1.0,1.0,0.07513427734375,0.00665283203125,0.9326171875,-0.352783203125,0.12646484375,-0.0458984375,0.9765625,4.625,1.4375,-1.0625
2.7049999999999645,5.0,2.0,-1.0,-9.0,-2.0,-2.0,-2.0,1.0,0.07513427734375,0.00665283203125,0.9326171875,-0.352783203125,0.12646484375,-0.0458984375,0.9765625,4.625,1.4375,-1.0625
2.7099999999999644,5.0,2.0,-1.0,-9.0,-2.0,-2.0,-2.0,1.0,0.07452392578125,0.00738525390625,0.93267822265625,-0.352783203125,0.12109375,-0.03564453125,0.974609375,4.875,0.125,-0.6875
2.7149999999999643,5.0,2.0,-1.0,-9.0,-2.0,-2.0,-2.0,1.0,0.07452392578125,0.00738525390625,0.93267822265625,-0.352783203125,0.12109375,-0.03564453125,0.974609375,4.875,0.125,-0.6875
2.7199999999999642,-2.0,-5.0,-6.0,-4.0,-5.0,-2.0,-4.0,2.0,0.07452392578125,0.00738525390625,0.93267822265625,-0.352783203125,0.12109375,-0.03564453125,0.974609375,4.875,0.125,-0.6875
2.724999999999964,0.0,-1.0,1.0,-1.0,-1.0,-1.0,-1.0,3.0,0.07452392578125,0.00738525390625,0.93267822265625,-0.352783203125,0.12109375,-0.03564453125,0.974609375,4.875,0.125,-0.6875
2.729999999999964,0.0,-1.0,1.0,-1.0,-1.0,-1.0,-1.0,3.0,0.074462890625,0.008056640625,0.9327392578125,-0.3526611328125,0.1357421875,-0.03857421875,0.96875,3.6875,-1.3125,-0.9375
2.734999999999964,1.0,3.0,1.0,-15.0,-2.0,-3.0,-3.0,-5.0,0.074462890625,0.008056640625,0.9327392578125,-0.3526611328125,0.1357421875,-0.03857421875,0.96875,3.6875,-1.3125,-0.9375
2.739999999999964,-3.0,-3.0,-11.0,-13.0,-2.0,-3.0,-1.0,-3.0,0.074462890625,0.008056640625,0.9327392578125,-0.3526611328125,0.1357421875,-0.03857421875,0.96875,3.6875,-1.3125,-0.9375
2.7449999999999637,-3.0,-3.0,-11.0,-13.0,-2.0,-3.0,-1.0,-3.0,0.074462890625,0.008056640625,0.9327392578125,-0.3526611328125,0.1357421875,-0.03857421875,0.96875,3.6875,-1.3125,-0.9375
2.7499999999999636,-1.0,-3.0,7.0,10.0,0.0,-2.0,0.0,-1.0,0.074462890625,0.008056640625,0.9327392578125,-0.3526611328125,0.1357421875,-0.03857421875,0.96875,3.6875,-1.3125,-0.9375
2.7549999999999635,1.0,-3.0,-5.0,-5.0,-4.0,-1.0,-1.0,1.0,0.074462890625,0.008056640625,0.9327392578125,-0.3526611328125,0.1357421875,-0.03857421875,0.96875,3.6875,-1.3125,-0.9375
2.7599999999999634,1.0,-3.0,-5.0,-5.0,-4.0,-1.0,-1.0,1.0,0.07476806640625,0.008544921875,0.9327392578125,-0.3525390625,0.16015625,-0.04248046875,0.966796875,2.4375,-1.3125,-1.25
2.7649999999999633,-3.0,-6.0,-4.0,6.0,-4.0,-4.0,-2.0,-1.0,0.07476806640625,0.008544921875,0.9327392578125,-0.3525390625,0.16015625,-0.04248046875,0.966796875,2.4375,-1.3125,-1.25
2.769999999999963,-3.0,-6.0,-4.0,6.0,-4.0,-4.0,-2.0,-1.0,0.07476806640625,0.008544921875,0.9327392578125,-0.3525390625,0.16015625,-0.04248046875,0.966796875,2.4375,-1.3125,-1.25
2.774999999999963,-3.0,-6.0,-4.0,6.0,-4.0,-4.0,-2.0,-1.0,0.07476806640625,0.008544921875,0.9327392578125,-0.3525390625,0.16015625,-0.04248046875,0.966796875,2.4375,-1.3125,-1.25
2.779999999999963,-3.0,-6.0,-4.0,6.0,-4.0,-4.0,-2.0,-1.0,0.0751953125,0.00860595703125,0.93280029296875,-0.352294921875,0.15673828125,-0.05029296875,0.97314453125,0.3125,-1.5625,-1.3125
2.784999999999963,-1.0,-2.0,-3.0,2.0,1.0,-1.0,-1.0,1.0,0.0751953125,0.00860595703125,0.93280029296875,-0.352294921875,0.15673828125,-0.05029296875,0.97314453125,0.3125,-1.5625,-1.3125
2.7899999999999627,0.0,1.0,-2.0,-8.0,5.0,2.0,0.0,-3.0,0.0751953125,0.00860595703125,0.93280029296875,-0.352294921875,0.15673828125,-0.05029296875,0.97314453125,0.3125,-1.5625,-1.3125
2.7949999999999626,0.0,1.0,-2.0,-8.0,5.0,2.0,0.0,-3.0,0.0751953125,0.00860595703125,0.93280029296875,-0.352294921875,0.15673828125,-0.05029296875,0.97314453125,0.3125,-1.5625,-1.3125
2.7999999999999625,0.0,1.0,-2.0,-8.0,5.0,2.0,0.0,-3.0,0.07574462890625,0.0079345703125,0.93292236328125,-0.3519287109375,0.14697265625,-0.064453125,0.982421875,-3.0625,-1.75,-2.3125
2.8049999999999624,0.0,1.0,-2.0,-8.0,5.0,2.0,0.0,-3.0,0.07574462890625,0.0079345703125,0.93292236328125,-0.3519287109375,0.14697265625,-0.064453125,0.982421875,-3.0625,-1.75,-2.3125
2.8099999999999623,-1.0,-2.0,-1.0,14.0,-3.0,-4.0,-1.0,-3.0,0.07574462890625,0.0079345703125,0.93292236328125,-0.3519287109375,0.14697265625,-0.064453125,0.982421875,-3.0625,-1.75,-2.3125
2.814999999999962,-1.0,-2.0,-1.0,14.0,-3.0,-4.0,-1.0,-3.0,0.07574462890625,0.0079345703125,0.93292236328125,-0.3519287109375,0.14697265625,-0.064453125,0.982421875,-3.0625,-1.75,-2.3125
2.819999999999962,6.0,2.0,8.0,-2.0,-1.0,-2.0,1.0,-1.0,0.07574462890625,0.0079345703125,0.93292236328125,-0.3519287109375,0.14697265625,-0.064453125,0.982421875,-3.0625,-1.75,-2.3125
2.824999999999962,6.0,2.0,8.0,-2.0,-1.0,-2.0,1.0,-1.0,0.07574462890625,0.0079345703125,0.93292236328125,-0.3519287109375,0.14697265625,-0.064453125,0.982421875,-3.0625,-1.75,-2.3125
2.829999999999962,6.0,2.0,8.0,-2.0,-1.0,-2.0,1.0,-1.0,0.07635498046875,0.0069580078125,0.93310546875,-0.35125732421875,0.14501953125,-0.06201171875,0.9873046875,-5.1875,-1.25,-3.625
2.8349999999999618,-1.0,-2.0,-2.0,-16.0,-2.0,-1.0,-1.0,0.0,0.07635498046875,0.0069580078125,0.93310546875,-0.35125732421875,0.14501953125,-0.06201171875,0.9873046875,-5.1875,-1.25,-3.625
2.8399999999999617,-1.0,-2.0,-2.0,-16.0,-2.0,-1.0,-1.0,0.0,0.07635498046875,0.0069580078125,0.93310546875,-0.35125732421875,0.14501953125,-0.06201171875,0.9873046875,-5.1875,-1.25,-3.625
2.8449999999999616,-1.0,-2.0,-2.0,-16.0,-2.0,-1.0,-1.0,0.0,0.07684326171875,0.00579833984375,0.933349609375,-0.35052490234375,0.1435546875,-0.0595703125,0.9970703125,-6.75,-0.5625,-4.125
2.8499999999999615,-5.0,1.0,7.0,24.0,3.0,-1.0,-2.0,-4.0,0.07684326171875,0.00579833984375,0.933349609375,-0.35052490234375,0.1435546875,-0.0595703125,0.9970703125,-6.75,-0.5625,-4.125
2.8549999999999613,-1.0,0.0,-1.0,-9.0,-4.0,-3.0,-2.0,0.0,0.07684326171875,0.00579833984375,0.933349609375,-0.35052490234375,0.1435546875,-0.0595703125,0.9970703125,-6.75,-0.5625,-4.125
2.8599999999999612,-3.0,-1.0,-1.0,-3.0,-2.0,0.0,-1.0,-4.0,0.07684326171875,0.00579833984375,0.933349609375,-0.35052490234375,0.1435546875,-0.0595703125,0.9970703125,-6.75,-0.5625,-4.125
2.864999999999961,-3.0,-1.0,-1.0,-3.0,-2.0,0.0,-1.0,-4.0,0.07684326171875,0.00579833984375,0.933349609375,-0.35052490234375,0.1435546875,-0.0595703125,0.9970703125,-6.75,-0.5625,-4.125
2.869999999999961,-3.0,-1.0,-1.0,-3.0,-2.0,0.0,-1.0,-4.0,0.077392578125,0.00433349609375,0.93353271484375,-0.35003662109375,0.14794921875,-0.0556640625,1.0,-8.5,-0.125,-2.5625
2.874999999999961,-3.0,-1.0,-1.0,-3.0,-2.0,0.0,-1.0,-4.0,0.077392578125,0.00433349609375,0.93353271484375,-0.35003662109375,0.14794921875,-0.0556640625,1.0,-8.5,-0.125,-2.5625
2.879999999999961,16.0,6.0,3.0,11.0,2.0,2.0,1.0,3.0,0.077392578125,0.00433349609375,0.93353271484375,-0.35003662109375,0.14794921875,-0.0556640625,1.0,-8.5,-0.125,-2.5625
2.8849999999999607,-3.0,-4.0,2.0,12.0,0.0,0.0,-2.0,-1.0,0.077392578125,0.00433349609375,0.93353271484375,-0.35003662109375,0.14794921875,-0.0556640625,1.0,-8.5,-0.125,-2.5625
2.8899999999999606,-3.0,-4.0,2.0,12.0,0.0,0.0,-2.0,-1.0,0.077392578125,0.00433349609375,0.93353271484375,-0.35003662109375,0.14794921875,-0.0556640625,1.0,-8.5,-0.125,-2.5625
2.8949999999999605,-3.0,-4.0,2.0,12.0,0.0,0.0,-2.0,-1.0,0.07769775390625,0.003173828125,0.93353271484375,-0.349853515625,0.150390625,-0.037109375,0.99755859375,-7.875,0.75,-0.3125
2.8999999999999604,-1.0,-3.0,3.0,4.0,0.0,0.0,-1.0,-1.0,0.07769775390625,0.003173828125,0.93353271484375,-0.349853515625,0.150390625,-0.037109375,0.99755859375,-7.875,0.75,-0.3125
2.9049999999999603,-1.0,-3.0,3.0,4.0,0.0,0.0,-1.0,-1.0,0.0777587890625,0.00225830078125,0.9334716796875,-0.35009765625,0.14697265625,-0.02734375,0.99267578125,-6.3125,1.25,1.875
2.90999999999996,-1.0,-3.0,3.0,4.0,0.0,0.0,-1.0,-1.0,0.0777587890625,0.00225830078125,0.9334716796875,-0.35009765625,0.14697265625,-0.02734375,0.99267578125,-6.3125,1.25,1.875
2.91499999999996,-4.0,0.0,-4.0,-1.0,0.0,0.0,0.0,-3.0,0.0777587890625,0.00225830078125,0.9334716796875,-0.35009765625,0.14697265625,-0.02734375,0.99267578125,-6.3125,1.25,1.875
2.91999999999996,-4.0,0.0,-4.0,-1.0,0.0,0.0,0.0,-3.0,0.0777587890625,0.00225830078125,0.9334716796875,-0.35009765625,0.14697265625,-0.02734375,0.99267578125,-6.3125,1.25,1.875
2.92499999999996,-3.0,-1.0,-2.0,0.0,-2.0,0.0,-1.0,-3.0,0.0777587890625,0.00225830078125,0.9334716796875,-0.35009765625,0.14697265625,-0.02734375,0.99267578125,-6.3125,1.25,1.875
2.9299999999999597,-3.0,-1.0,-2.0,0.0,-2.0,0.0,-1.0,-3.0,0.0777587890625,0.00225830078125,0.9334716796875,-0.35009765625,0.14697265625,-0.02734375,0.99267578125,-6.3125,1.25,1.875
2.9349999999999596,-3.0,-1.0,-2.0,0.0,-2.0,0.0,-1.0,-3.0,0.07763671875,0.0013427734375,0.93328857421875,-0.35064697265625,0.14013671875,-0.02294921875,0.98046875,-6.5,2.25,4.125
2.9399999999999595,-3.0,-1.0,-2.0,0.0,-2.0,0.0,-1.0,-3.0,0.07763671875,0.0013427734375,0.93328857421875,-0.35064697265625,0.14013671875,-0.02294921875,0.98046875,-6.5,2.25,4.125
2.9449999999999594,-7.0,-7.0,-13.0,-31.0,-10.0,-3.0,-4.0,-3.0,0.07763671875,0.0013427734375,0.93328857421875,-0.35064697265625,0.14013671875,-0.02294921875,0.98046875,-6.5,2.25,4.125
2.9499999999999593,-7.0,-7.0,-13.0,-31.0,-10.0,-3.0,-4.0,-3.0,0.07763671875,0.0013427734375,0.93328857421875,-0.35064697265625,0.14013671875,-0.02294921875,0.98046875,-6.5,2.25,4.125
2.954999999999959,2.0,1.0,-5.0,-12.0,-2.0,-1.0,0.0,0.0,0.07763671875,0.0013427734375,0.93328857421875,-0.35064697265625,0.14013671875,-0.02294921875,0.98046875,-6.5,2.25,4.125
2.959999999999959,2.0,1.0,-5.0,-12.0,-2.0,-1.0,0.0,0.0,0.07763671875,0.0013427734375,0.93328857421875,-0.35064697265625,0.14013671875,-0.02294921875,0.98046875,-6.5,2.25,4.125
2.964999999999959,2.0,1.0,-5.0,-12.0,-2.0,-1.0,0.0,0.0,0.077392578125,0.0003662109375,0.932861328125,-0.35174560546875,0.13818359375,0.00244140625,0.97412109375,-8.125,2.75,7.75
2.969999999999959,2.0,1.0,-5.0,-12.0,-2.0,-1.0,0.0,0.0,0.077392578125,0.0003662109375,0.932861328125,-0.35174560546875,0.13818359375,0.00244140625,0.97412109375,-8.125,2.75,7.75
2.974999999999959,-3.0,-2.0,-1.0,3.0,-2.0,-2.0,-2.0,-2.0,0.077392578125,0.0003662109375,0.932861328125,-0.35174560546875,0.13818359375,0.00244140625,0.97412109375,-8.125,2.75,7.75
2.9799999999999587,-3.0,-2.0,-1.0,3.0,-2.0,-2.0,-2.0,-2.0,0.077880859375,-0.00177001953125,0.9322509765625,-0.353271484375,0.13671875,-0.02734375,0.97998046875,-14.0625,1.125,10.5
2.9849999999999586,-3.0,-2.0,-1.0,3.0,-2.0,-2.0,-2.0,-2.0,0.077880859375,-0.00177001953125,0.9322509765625,-0.353271484375,0.13671875,-0.02734375,0.97998046875,-14.0625,1.125,10.5
2.9899999999999585,-1.0,-2.0,3.0,-2.0,-1.0,0.0,3.0,3.0,0.077880859375,-0.00177001953125,0.9322509765625,-0.353271484375,0.13671875,-0.02734375,0.97998046875,-14.0625,1.125,10.5
2.9949999999999584,-1.0,-2.0,3.0,-2.0,-1.0,0.0,3.0,3.0,0.077880859375,-0.00177001953125,0.9322509765625,-0.353271484375,0.13671875,-0.02734375,0.97998046875,-14.0625,1.125,10.5
2.9999999999999583,-1.0,-3.0,-1.0,-4.0,-4.0,-2.0,0.0,1.0,0.077880859375,-0.00177001953125,0.9322509765625,-0.353271484375,0.13671875,-0.02734375,0.97998046875,-14.0625,1.125,10.5
3.004999999999958,-1.0,-3.0,-1.0,-4.0,-4.0,-2.0,0.0,1.0,0.077880859375,-0.00177001953125,0.9322509765625,-0.353271484375,0.13671875,-0.02734375,0.97998046875,-14.0625,1.125,10.5
3.009999999999958,-1.0,-3.0,-1.0,-4.0,-4.0,-2.0,0.0,1.0,0.07916259765625,-0.0050048828125,0.93157958984375,-0.354736328125,0.142578125,-0.08984375,0.99169921875,-17.5,-1.125,10.4375
3.014999999999958,-1.0,-3.0,-1.0,-4.0,-4.0,-2.0,0.0,1.0,0.07916259765625,-0.0050048828125,0.93157958984375,-0.354736328125,0.142578125,-0.08984375,0.99169921875,-17.5,-1.125,10.4375
3.019999999999958,8.0,2.0,4.0,8.0,1.0,3.0,-1.0,4.0,0.07916259765625,-0.0050048828125,0.93157958984375,-0.354736328125,0.142578125,-0.08984375,0.99169921875,-17.5,-1.125,10.4375
3.0249999999999577,8.0,2.0,4.0,8.0,1.0,3.0,-1.0,4.0,0.07916259765625,-0.0050048828125,0.93157958984375,-0.354736328125,0.142578125,-0.08984375,0.99169921875,-17.5,-1.125,10.4375
3.0299999999999576,-6.0,-3.0,-1.0,22.0,2.0,-2.0,-3.0,-5.0,0.07916259765625,-0.0050048828125,0.93157958984375,-0.354736328125,0.142578125,-0.08984375,0.99169921875,-17.5,-1.125,10.4375
3.0349999999999575,-6.0,-3.0,-1.0,22.0,2.0,-2.0,-3.0,-5.0,0.07916259765625,-0.0050048828125,0.93157958984375,-0.354736328125,0.142578125,-0.08984375,0.99169921875,-17.5,-1.125,10.4375
3.0399999999999574,-6.0,-3.0,-1.0,22.0,2.0,-2.0,-3.0,-5.0,0.08050537109375,-0.00775146484375,0.93084716796875,-0.35626220703125,0.150390625,-0.1142578125,0.98193359375,-13.6875,-1.375,10.1875
3.0449999999999573,-6.0,-3.0,-1.0,22.0,2.0,-2.0,-3.0,-5.0,0.08050537109375,-0.00775146484375,0.93084716796875,-0.35626220703125,0.150390625,-0.1142578125,0.98193359375,-13.6875,-1.375,10.1875
3.049999999999957,-1.0,-1.0,1.0,13.0,-2.0,-3.0,-2.0,-1.0,0.08050537109375,-0.00775146484375,0.93084716796875,-0.35626220703125,0.150390625,-0.1142578125,0.98193359375,-13.6875,-1.375,10.1875
3.054999999999957,-1.0,-1.0,1.0,13.0,-2.0,-3.0,-2.0,-1.0,0.08050537109375,-0.00775146484375,0.93084716796875,-0.35626220703125,0.150390625,-0.1142578125,0.98193359375,-13.6875,-1.375,10.1875
3.059999999999957,-2.0,-4.0,-2.0,-8.0,-2.0,1.0,-2.0,0.0,0.081298828125,-0.00946044921875,0.9302978515625,-0.3575439453125,0.1396484375,-0.12353515625,0.98681640625,-7.1875,-1.4375,8.4375
3.064999999999957,-2.0,-4.0,-2.0,-8.0,-2.0,1.0,-2.0,0.0,0.081298828125,-0.00946044921875,0.9302978515625,-0.3575439453125,0.1396484375,-0.12353515625,0.98681640625,-7.1875,-1.4375,8.4375
3.0699999999999568,-7.0,-2.0,2.0,26.0,-1.0,-2.0,-2.0,-3.0,0.081298828125,-0.00946044921875,0.9302978515625,-0.3575439453125,0.1396484375,-0.12353515625,0.98681640625,-7.1875,-1.4375,8.4375
3.0749999999999567,-7.0,-2.0,2.0,26.0,-1.0,-2.0,-2.0,-3.0,0.081298828125,-0.00946044921875,0.9302978515625,-0.3575439453125,0.1396484375,-0.12353515625,0.98681640625,-7.1875,-1.4375,8.4375
3.0799999999999566,2.0,14.0,-4.0,9.0,-3.0,-3.0,-1.0,-1.0,0.081298828125,-0.00946044921875,0.9302978515625,-0.3575439453125,0.1396484375,-0.12353515625,0.98681640625,-7.1875,-1.4375,8.4375
3.0849999999999564,2.0,14.0,-4.0,9.0,-3.0,-3.0,-1.0,-1.0,0.081298828125,-0.00946044921875,0.9302978515625,-0.3575439453125,0.1396484375,-0.12353515625,0.98681640625,-7.1875,-1.4375,8.4375
3.0899999999999563,2.0,14.0,-4.0,9.0,-3.0,-3.0,-1.0,-1.0,0.08172607421875,-0.0098876953125,0.92987060546875,-0.35845947265625,0.1396484375,-0.12353515625,0.98486328125,0.75,-1.9375,5.3125
3.0949999999999562,2.0,14.0,-4.0,9.0,-3.0,-3.0,-1.0,-1.0,0.08172607421875,-0.0098876953125,0.92987060546875,-0.35845947265625,0.1396484375,-0.12353515625,0.98486328125,0.75,-1.9375,5.3125
3.099999999999956,-6.0,-11.0,-4.0,-28.0,-3.0,1.0,0.0,0.0,0.08172607421875,-0.0098876953125,0.92987060546875,-0.35845947265625,0.1396484375,-0.12353515625,0.98486328125,0.75,-1.9375,5.3125
3.104999999999956,-6.0,-11.0,-4.0,-28.0,-3.0,1.0,0.0,0.0,0.08172607421875,-0.0098876953125,0.92987060546875,-0.35845947265625,0.1396484375,-0.12353515625,0.98486328125,0.75,-1.9375,5.3125
3.109999999999956,0.0,-2.0,-7.0,4.0,0.0,0.0,0.0,-3.0,0.08172607421875,-0.0098876953125,0.92987060546875,-0.35845947265625,0.1396484375,-0.12353515625,0.98486328125,0.75,-1.9375,5.3125
3.114999999999956,0.0,-2.0,-7.0,4.0,0.0,0.0,0.0,-3.0,0.08172607421875,-0.0098876953125,0.92987060546875,-0.35845947265625,0.1396484375,-0.12353515625,0.98486328125,0.75,-1.9375,5.3125
3.1199999999999557,0.0,-2.0,-7.0,4.0,0.0,0.0,0.0,-3.0,0.08172607421875,-0.00897216796875,0.92962646484375,-0.359130859375,0.14453125,-0.10107421875,1.0,6.6875,-2.4375,3.1875
3.1249999999999556,0.0,-2.0,-7.0,4.0,0.0,0.0,0.0,-3.0,0.08172607421875,-0.00897216796875,0.92962646484375,-0.359130859375,0.14453125,-0.10107421875,1.0,6.6875,-2.4375,3.1875
3.1299999999999555,-6.0,-5.0,-3.0,-12.0,0.0,-1.0,-2.0,-4.0,0.08172607421875,-0.00897216796875,0.92962646484375,-0.359130859375,0.14453125,-0.10107421875,1.0,6.6875,-2.4375,3.1875
3.1349999999999554,-6.0,-5.0,-3.0,-12.0,0.0,-1.0,-2.0,-4.0,0.08172607421875,-0.00897216796875,0.92962646484375,-0.359130859375,0.14453125,-0.10107421875,1.0,6.6875,-2.4375,3.1875
3.1399999999999553,0.0,-3.0,0.0,-14.0,-1.0,-2.0,-2.0,1.0,0.0816650390625,-0.00750732421875,0.92950439453125,-0.3594970703125,0.15087890625,-0.07275390625,0.99658203125,7.8125,-2.4375,1.6875
3.144999999999955,0.0,-3.0,0.0,-14.0,-1.0,-2.0,-2.0,1.0,0.0816650390625,-0.00750732421875,0.92950439453125,-0.3594970703125,0.15087890625,-0.07275390625,0.99658203125,7.8125,-2.4375,1.6875
3.149999999999955,-2.0,2.0,-1.0,15.0,5.0,-1.0,-3.0,-2.0,0.0816650390625,-0.00750732421875,0.92950439453125,-0.3594970703125,0.15087890625,-0.07275390625,0.99658203125,7.8125,-2.4375,1.6875
3.154999999999955,-2.0,2.0,-1.0,15.0,5.0,-1.0,-3.0,-2.0,0.0816650390625,-0.00750732421875,0.92950439453125,-0.3594970703125,0.15087890625,-0.07275390625,0.99658203125,7.8125,-2.4375,1.6875
3.159999999999955,0.0,-6.0,-4.0,21.0,-2.0,-4.0,-2.0,-2.0,0.0816650390625,-0.00750732421875,0.92950439453125,-0.3594970703125,0.15087890625,-0.07275390625,0.99658203125,7.8125,-2.4375,1.6875
3.1649999999999547,0.0,-6.0,-4.0,21.0,-2.0,-4.0,-2.0,-2.0,0.0816650390625,-0.00750732421875,0.92950439453125,-0.3594970703125,0.15087890625,-0.07275390625,0.99658203125,7.8125,-2.4375,1.6875
3.1699999999999546,0.0,-6.0,-4.0,21.0,-2.0,-4.0,-2.0,-2.0,0.0816650390625,-0.00689697265625,0.92950439453125,-0.35955810546875,0.15185546875,-0.0576171875,0.99169921875,2.4375,-1.125,0.1875
3.1749999999999545,0.0,-6.0,-4.0,21.0,-2.0,-4.0,-2.0,-2.0,0.0816650390625,-0.00689697265625,0.92950439453125,-0.35955810546875,0.15185546875,-0.0576171875,0.99169921875,2.4375,-1.125,0.1875
3.1799999999999544,-2.0,3.0,-5.0,-8.0,-2.0,-3.0,-3.0,-2.0,0.0816650390625,-0.00689697265625,0.92950439453125,-0.35955810546875,0.15185546875,-0.0576171875,0.99169921875,2.4375,-1.125,0.1875
3.1849999999999543,-2.0,3.0,-5.0,-8.0,-2.0,-3.0,-3.0,-2.0,0.0816650390625,-0.00689697265625,0.92950439453125,-0.35955810546875,0.15185546875,-0.0576171875,0.99169921875,2.4375,-1.125,0.1875
3.189999999999954,0.0,-3.0,6.0,11.0,3.0,1.0,0.0,1.0,0.0816650390625,-0.00689697265625,0.92950439453125,-0.35955810546875,0.15185546875,-0.0576171875,0.99169921875,2.4375,-1.125,0.1875
3.194999999999954,0.0,-3.0,6.0,11.0,3.0,1.0,0.0,1.0,0.0816650390625,-0.00689697265625,0.92950439453125,-0.35955810546875,0.15185546875,-0.0576171875,0.99169921875,2.4375,-1.125,0.1875
3.199999999999954,0.0,-3.0,6.0,11.0,3.0,1.0,0.0,1.0,0.08172607421875,-0.0072021484375,0.92950439453125,-0.3594970703125,0.146484375,-0.06005859375,0.98876953125,-2.875,0.3125,-0.1875
3.204999999999954,0.0,-3.0,6.0,11.0,3.0,1.0,0.0,1.0,0.08172607421875,-0.0072021484375,0.92950439453125,-0.3594970703125,0.146484375,-0.06005859375,0.98876953125,-2.875,0.3125,-0.1875
3.209999999999954,0.0,-3.0,6.0,11.0,3.0,1.0,0.0,1.0,0.08172607421875,-0.0072021484375,0.92950439453125,-0.3594970703125,0.146484375,-0.06005859375,0.98876953125,-2.875,0.3125,-0.1875
3.2149999999999537,-1.0,1.0,0.0,-9.0,2.0,3.0,2.0,-2.0,0.08172607421875,-0.0072021484375,0.92950439453125,-0.3594970703125,0.146484375,-0.06005859375,0.98876953125,-2.875,0.3125,-0.1875
3.2199999999999536,-2.0,0.0,-1.0,-17.0,-2.0,0.0,-2.0,-2.0,0.0819091796875,-0.008056640625,0.9295654296875,-0.35931396484375,0.14013671875,-0.0673828125,0.99658203125,-5.4375,0.1875,-0.625
3.2249999999999535,-2.0,0.0,-1.0,-17.0,-2.0,0.0,-2.0,-2.0,0.0819091796875,-0.008056640625,0.9295654296875,-0.35931396484375,0.14013671875,-0.0673828125,0.99658203125,-5.4375,0.1875,-0.625
3.2299999999999534,-2.0,0.0,-1.0,-17.0,-2.0,0.0,-2.0,-2.0,0.0819091796875,-0.008056640625,0.9295654296875,-0.35931396484375,0.14013671875,-0.0673828125,0.99658203125,-5.4375,0.1875,-0.625
3.2349999999999532,-2.0,0.0,-1.0,-17.0,-2.0,0.0,-2.0,-2.0,0.0819091796875,-0.008056640625,0.9295654296875,-0.35931396484375,0.14013671875,-0.0673828125,0.99658203125,-5.4375,0.1875,-0.625
3.239999999999953,-1.0,2.0,0.0,6.0,1.0,-4.0,-5.0,-3.0,0.0819091796875,-0.008056640625,0.9295654296875,-0.35931396484375,0.14013671875,-0.0673828125,0.99658203125,-5.4375,0.1875,-0.625
3.244999999999953,-3.0,1.0,-2.0,-13.0,-6.0,-2.0,0.0,0.0,0.08209228515625,-0.00872802734375,0.92962646484375,-0.35906982421875,0.14404296875,-0.0771484375,0.998046875,-3.9375,-0.0625,-1.375
3.249999999999953,-3.0,1.0,-2.0,-13.0,-6.0,-2.0,0.0,0.0,0.08209228515625,-0.00872802734375,0.92962646484375,-0.35906982421875,0.14404296875,-0.0771484375,0.998046875,-3.9375,-0.0625,-1.375
3.254999999999953,0.0,-7.0,3.0,-6.0,-6.0,-2.0,-1.0,-2.0,0.08209228515625,-0.00872802734375,0.92962646484375,-0.35906982421875,0.14404296875,-0.0771484375,0.998046875,-3.9375,-0.0625,-1.375
3.2599999999999527,0.0,-7.0,3.0,-6.0,-6.0,-2.0,-1.0,-2.0,0.08209228515625,-0.00872802734375,0.92962646484375,-0.35906982421875,0.14404296875,-0.0771484375,0.998046875,-3.9375,-0.0625,-1.375
3.2649999999999526,-1.0,-4.0,0.0,0.0,1.0,-1.0,-2.0,-1.0,0.08209228515625,-0.00872802734375,0.92962646484375,-0.35906982421875,0.14404296875,-0.0771484375,0.998046875,-3.9375,-0.0625,-1.375
3.2699999999999525,-1.0,-4.0,0.0,0.0,1.0,-1.0,-2.0,-1.0,0.08209228515625,-0.00872802734375,0.92962646484375,-0.35906982421875,0.14404296875,-0.0771484375,0.998046875,-3.9375,-0.0625,-1.375
3.2749999999999524,-1.0,-4.0,0.0,0.0,1.0,-1.0,-2.0,-1.0,0.0821533203125,-0.0087890625,0.92974853515625,-0.35882568359375,0.1494140625,-0.08203125,0.9970703125,-0.125,0.0625,-1.5625
3.2799999999999523,-3.0,-1.0,-8.0,-19.0,-3.0,-1.0,0.0,0.0,0.0821533203125,-0.0087890625,0.92974853515625,-0.35882568359375,0.1494140625,-0.08203125,0.9970703125,-0.125,0.0625,-1.5625
3.284999999999952,-4.0,-15.0,-1.0,-22.0,-2.0,1.0,2.0,-1.0,0.0821533203125,-0.0087890625,0.92974853515625,-0.35882568359375,0.1494140625,-0.08203125,0.9970703125,-0.125,0.0625,-1.5625
3.289999999999952,-4.0,-4.0,-13.0,-15.0,-7.0,-5.0,-3.0,-4.0,0.08197021484375,-0.00830078125,0.92987060546875,-0.35845947265625,0.15283203125,-0.06884765625,0.99169921875,2.375,0.4375,-2.125
3.294999999999952,-4.0,-4.0,-13.0,-15.0,-7.0,-5.0,-3.0,-4.0,0.08197021484375,-0.00830078125,0.92987060546875,-0.35845947265625,0.15283203125,-0.06884765625,0.99169921875,2.375,0.4375,-2.125
3.299999999999952,-4.0,-4.0,-13.0,-15.0,-7.0,-5.0,-3.0,-4.0,0.08197021484375,-0.00830078125,0.92987060546875,-0.35845947265625,0.15283203125,-0.06884765625,0.99169921875,2.375,0.4375,-2.125
3.3049999999999518,-1.0,-4.0,-7.0,8.0,1.0,1.0,2.0,1.0,0.08197021484375,-0.00830078125,0.92987060546875,-0.35845947265625,0.15283203125,-0.06884765625,0.99169921875,2.375,0.4375,-2.125
3.3099999999999516,-1.0,-4.0,-7.0,8.0,1.0,1.0,2.0,1.0,0.08197021484375,-0.00830078125,0.92987060546875,-0.35845947265625,0.15283203125,-0.06884765625,0.99169921875,2.375,0.4375,-2.125
