0.005,0.0,0.0,2.0,-7.0,-1.0,1.0,0.0,0.0,0.1177978515625,-0.12158203125,0.9732666015625,-0.1549072265625,0.18994140625,-0.2646484375,0.93408203125,2.375,1.4375,1.1875
0.01,-2.0,-1.0,3.0,21.0,0.0,-3.0,-2.0,-1.0,0.11767578125,-0.12164306640625,0.97332763671875,-0.1549072265625,0.19677734375,-0.26416015625,0.9345703125,-0.625,1.375,0.4375
0.015,-2.0,-1.0,3.0,21.0,0.0,-3.0,-2.0,-1.0,0.11767578125,-0.12164306640625,0.97332763671875,-0.1549072265625,0.19677734375,-0.26416015625,0.9345703125,-0.625,1.375,0.4375
0.02,-3.0,-1.0,0.0,12.0,3.0,-2.0,0.0,0.0,0.11767578125,-0.12164306640625,0.97332763671875,-0.1549072265625,0.19677734375,-0.26416015625,0.9345703125,-0.625,1.375,0.4375
0.025,-3.0,-1.0,0.0,12.0,3.0,-2.0,0.0,0.0,0.1175537109375,-0.12225341796875,0.9732666015625,-0.1546630859375,0.19091796875,-0.275390625,0.9453125,-3.8125,1.1875,-0.6875
0.030000000000000002,-3.0,-1.0,0.0,12.0,3.0,-2.0,0.0,0.0,0.1175537109375,-0.12225341796875,0.9732666015625,-0.1546630859375,0.19091796875,-0.275390625,0.9453125,-3.8125,1.1875,-0.6875
0.035,-3.0,-1.0,0.0,12.0,3.0,-2.0,0.0,0.0,0.1175537109375,-0.12225341796875,0.9732666015625,-0.1546630859375,0.19091796875,-0.275390625,0.9453125,-3.8125,1.1875,-0.6875
0.04,0.0,-1.0,-1.0,-4.0,1.0,-2.0,-2.0,0.0,0.1175537109375,-0.12225341796875,0.9732666015625,-0.1546630859375,0.19091796875,-0.275390625,0.9453125,-3.8125,1.1875,-0.6875
0.045,0.0,-1.0,-1.0,-4.0,1.0,-2.0,-2.0,0.0,0.1175537109375,-0.12225341796875,0.9732666015625,-0.1546630859375,0.19091796875,-0.275390625,0.9453125,-3.8125,1.1875,-0.6875
0.049999999999999996,4.0,2.0,1.0,10.0,0.0,-2.0,-3.0,1.0,0.11737060546875,-0.123046875,0.97320556640625,-0.15447998046875,0.18408203125,-0.28515625,0.94140625,-3.8125,1.5,-0.875
0.05499999999999999,4.0,2.0,1.0,10.0,0.0,-2.0,-3.0,1.0,0.11737060546875,-0.123046875,0.97320556640625,-0.15447998046875,0.18408203125,-0.28515625,0.94140625,-3.8125,1.5,-0.875
0.05999999999999999,4.0,2.0,1.0,10.0,0.0,-2.0,-3.0,1.0,0.11737060546875,-0.123046875,0.97320556640625,-0.15447998046875,0.18408203125,-0.28515625,0.94140625,-3.8125,1.5,-0.875
0.06499999999999999,1.0,-2.0,0.0,4.0,3.0,3.0,0.0,0.0,0.11737060546875,-0.123046875,0.97320556640625,-0.15447998046875,0.18408203125,-0.28515625,0.94140625,-3.8125,1.5,-0.875
0.06999999999999999,1.0,-2.0,0.0,4.0,3.0,3.0,0.0,0.0,0.11737060546875,-0.123046875,0.97320556640625,-0.15447998046875,0.18408203125,-0.28515625,0.94140625,-3.8125,1.5,-0.875
0.075,1.0,-2.0,0.0,4.0,3.0,3.0,0.0,0.0,0.1173095703125,-0.12371826171875,0.97320556640625,-0.15423583984375,0.19482421875,-0.2880859375,0.94384765625,-3.3125,1.1875,-1.0
0.08,1.0,-2.0,0.0,4.0,3.0,3.0,0.0,0.0,0.1173095703125,-0.12371826171875,0.97320556640625,-0.15423583984375,0.19482421875,-0.2880859375,0.94384765625,-3.3125,1.1875,-1.0
0.085,-11.0,-2.0,-3.0,-9.0,-1.0,0.0,-2.0,-6.0,0.1173095703125,-0.12371826171875,0.97320556640625,-0.15423583984375,0.19482421875,-0.2880859375,0.94384765625,-3.3125,1.1875,-1.0
0.09000000000000001,-11.0,-2.0,-3.0,-9.0,-1.0,0.0,-2.0,-6.0,0.1173095703125,-0.12371826171875,0.97320556640625,-0.15423583984375,0.19482421875,-0.2880859375,0.94384765625,-3.3125,1.1875,-1.0
0.09500000000000001,-7.0,0.0,5.0,-8.0,2.0,1.0,1.0,-2.0,0.1173095703125,-0.12371826171875,0.97320556640625,-0.15423583984375,0.19482421875,-0.2880859375,0.94384765625,-3.3125,1.1875,-1.0
0.10000000000000002,-7.0,0.0,5.0,-8.0,2.0,1.0,1.0,-2.0,0.11737060546875,-0.1241455078125,0.97320556640625,-0.15386962890625,0.19580078125,-0.2939453125,0.9423828125,-1.6875,0.8125,-1.8125
0.10500000000000002,-7.0,0.0,5.0,-8.0,2.0,1.0,1.0,-2.0,0.11737060546875,-0.1241455078125,0.97320556640625,-0.15386962890625,0.19580078125,-0.2939453125,0.9423828125,-1.6875,0.8125,-1.8125
0.11000000000000003,-7.0,0.0,5.0,-8.0,2.0,1.0,1.0,-2.0,0.11737060546875,-0.1241455078125,0.97320556640625,-0.15386962890625,0.19580078125,-0.2939453125,0.9423828125,-1.6875,0.8125,-1.8125
0.11500000000000003,-5.0,-3.0,0.0,19.0,-2.0,-2.0,-1.0,-2.0,0.11737060546875,-0.1241455078125,0.97320556640625,-0.15386962890625,0.19580078125,-0.2939453125,0.9423828125,-1.6875,0.8125,-1.8125
0.12000000000000004,-5.0,-3.0,0.0,19.0,-2.0,-2.0,-1.0,-2.0,0.11737060546875,-0.1241455078125,0.97320556640625,-0.15386962890625,0.19580078125,-0.2939453125,0.9423828125,-1.6875,0.8125,-1.8125
0.12500000000000003,-1.0,-1.0,-3.0,2.0,-2.0,-2.0,-1.0,-2.0,0.1171875,-0.1243896484375,0.97320556640625,-0.153564453125,0.1826171875,-0.296875,0.93994140625,0.0625,0.625,-1.6875
0.13000000000000003,-1.0,-1.0,-3.0,2.0,-2.0,-2.0,-1.0,-2.0,0.1171875,-0.1243896484375,0.97320556640625,-0.153564453125,0.1826171875,-0.296875,0.93994140625,0.0625,0.625,-1.6875
0.13500000000000004,-1.0,-1.0,-3.0,2.0,-2.0,-2.0,-1.0,-2.0,0.1171875,-0.1243896484375,0.97320556640625,-0.153564453125,0.1826171875,-0.296875,0.93994140625,0.0625,0.625,-1.6875
0.14000000000000004,-1.0,-1.0,-3.0,2.0,-2.0,-2.0,-1.0,-2.0,0.1171875,-0.1243896484375,0.97320556640625,-0.153564453125,0.1826171875,-0.296875,0.93994140625,0.0625,0.625,-1.6875
0.14500000000000005,0.0,-1.0,-6.0,-2.0,-4.0,-2.0,-2.0,0.0,0.1171875,-0.1243896484375,0.97320556640625,-0.153564453125,0.1826171875,-0.296875,0.93994140625,0.0625,0.625,-1.6875
0.15000000000000005,0.0,-1.0,-6.0,-2.0,-4.0,-2.0,-2.0,0.0,0.1171875,-0.1243896484375,0.97320556640625,-0.153564453125,0.1826171875,-0.296875,0.93994140625,0.0625,0.625,-1.6875
0.15500000000000005,0.0,-1.0,-6.0,-2.0,-4.0,-2.0,-2.0,0.0,0.11700439453125,-0.1240234375,0.97332763671875,-0.15338134765625,0.18212890625,-0.28369140625,0.94189453125,2.4375,0.4375,-1.4375
0.16000000000000006,0.0,-1.0,-6.0,-2.0,-4.0,-2.0,-2.0,0.0,0.11700439453125,-0.1240234375,0.97332763671875,-0.15338134765625,0.18212890625,-0.28369140625,0.94189453125,2.4375,0.4375,-1.4375
0.16500000000000006,2.0,0.0,-1.0,17.0,1.0,-1.0,0.0,0.0,0.11700439453125,-0.1240234375,0.97332763671875,-0.15338134765625,0.18212890625,-0.28369140625,0.94189453125,2.4375,0.4375,-1.4375
0.17000000000000007,2.0,0.0,-1.0,17.0,1.0,-1.0,0.0,0.0,0.11700439453125,-0.1240234375,0.97332763671875,-0.15338134765625,0.18212890625,-0.28369140625,0.94189453125,2.4375,0.4375,-1.4375
0.17500000000000007,0.0,-1.0,-3.0,-9.0,-3.0,1.0,1.0,-1.0,0.116943359375,-0.12353515625,0.97344970703125,-0.15313720703125,0.18896484375,-0.2685546875,0.94140625,2.3125,0.0625,-1.75
0.18000000000000008,0.0,-1.0,-3.0,-9.0,-3.0,1.0,1.0,-1.0,0.116943359375,-0.12353515625,0.97344970703125,-0.15313720703125,0.18896484375,-0.2685546875,0.94140625,2.3125,0.0625,-1.75
0.18500000000000008,0.0,-1.0,-3.0,-9.0,-3.0,1.0,1.0,-1.0,0.116943359375,-0.12353515625,0.97344970703125,-0.15313720703125,0.18896484375,-0.2685546875,0.94140625,2.3125,0.0625,-1.75
0.19000000000000009,0.0,-1.0,-3.0,-9.0,-3.0,1.0,1.0,-1.0,0.116943359375,-0.12353515625,0.97344970703125,-0.15313720703125,0.18896484375,-0.2685546875,0.94140625,2.3125,0.0625,-1.75
0.1950000000000001,2.0,1.0,0.0,-6.0,1.0,0.0,-2.0,1.0,0.116943359375,-0.12353515625,0.97344970703125,-0.15313720703125,0.18896484375,-0.2685546875,0.94140625,2.3125,0.0625,-1.75
0.2000000000000001,2.0,1.0,0.0,-6.0,1.0,0.0,-2.0,1.0,0.116943359375,-0.12353515625,0.97344970703125,-0.15313720703125,0.18896484375,-0.2685546875,0.94140625,2.3125,0.0625,-1.75
0.2050000000000001,0.0,-1.0,1.0,1.0,-2.0,-1.0,-1.0,-2.0,0.116943359375,-0.12353515625,0.97344970703125,-0.15313720703125,0.185546875,-0.275390625,0.94140625,-0.5625,0.375,-0.9375
0.2100000000000001,0.0,-1.0,1.0,1.0,-2.0,-1.0,-1.0,-2.0,0.116943359375,-0.12353515625,0.97344970703125,-0.15313720703125,0.185546875,-0.275390625,0.94140625,-0.5625,0.375,-0.9375
0.2150000000000001,0.0,-1.0,1.0,1.0,-2.0,-1.0,-1.0,-2.0,0.116943359375,-0.12353515625,0.97344970703125,-0.15313720703125,0.185546875,-0.275390625,0.94140625,-0.5625,0.375,-0.9375
0.2200000000000001,0.0,-1.0,1.0,1.0,-2.0,-1.0,-1.0,-2.0,0.116943359375,-0.12353515625,0.97344970703125,-0.15313720703125,0.185546875,-0.275390625,0.94140625,-0.5625,0.375,-0.9375
0.22500000000000012,2.0,0.0,3.0,-3.0,-1.0,0.0,3.0,1.0,0.116943359375,-0.12353515625,0.97344970703125,-0.15313720703125,0.185546875,-0.275390625,0.94140625,-0.5625,0.375,-0.9375
0.23000000000000012,2.0,0.0,3.0,-3.0,-1.0,0.0,3.0,1.0,0.116943359375,-0.12353515625,0.97344970703125,-0.15313720703125,0.185546875,-0.275390625,0.94140625,-0.5625,0.375,-0.9375
0.23500000000000013,0.0,-1.0,-1.0,4.0,-3.0,-1.0,-2.0,-3.0,0.116943359375,-0.1239013671875,0.973388671875,-0.1529541015625,0.185546875,-0.27783203125,0.9423828125,-2.5,-0.0625,-0.875
0.24000000000000013,0.0,-1.0,-1.0,4.0,-3.0,-1.0,-2.0,-3.0,0.116943359375,-0.1239013671875,0.973388671875,-0.1529541015625,0.185546875,-0.27783203125,0.9423828125,-2.5,-0.0625,-0.875
0.24500000000000013,-2.0,-2.0,-3.0,-4.0,-2.0,-1.0,0.0,-3.0,0.116943359375,-0.1239013671875,0.973388671875,-0.1529541015625,0.185546875,-0.27783203125,0.9423828125,-2.5,-0.0625,-0.875
0.2500000000000001,-2.0,-2.0,-3.0,-4.0,-2.0,-1.0,0.0,-3.0,0.116943359375,-0.1239013671875,0.973388671875,-0.1529541015625,0.185546875,-0.27783203125,0.9423828125,-2.5,-0.0625,-0.875
0.2550000000000001,-3.0,-3.0,0.0,-2.0,-2.0,-2.0,-3.0,-1.0,0.1170654296875,-0.12420654296875,0.973388671875,-0.15283203125,0.19189453125,-0.27880859375,0.94140625,-1.875,-0.25,-0.5625
0.2600000000000001,-3.0,-3.0,0.0,-2.0,-2.0,-2.0,-3.0,-1.0,0.1170654296875,-0.12420654296875,0.973388671875,-0.15283203125,0.19189453125,-0.27880859375,0.94140625,-1.875,-0.25,-0.5625
0.2650000000000001,-3.0,-3.0,0.0,-2.0,-2.0,-2.0,-3.0,-1.0,0.1170654296875,-0.12420654296875,0.973388671875,-0.15283203125,0.19189453125,-0.27880859375,0.94140625,-1.875,-0.25,-0.5625
0.27000000000000013,-3.0,-3.0,0.0,-2.0,-2.0,-2.0,-3.0,-1.0,0.1170654296875,-0.12420654296875,0.973388671875,-0.15283203125,0.19189453125,-0.27880859375,0.94140625,-1.875,-0.25,-0.5625
0.27500000000000013,0.0,-1.0,-4.0,-11.0,-4.0,-1.0,-2.0,-2.0,0.1170654296875,-0.12420654296875,0.973388671875,-0.15283203125,0.19189453125,-0.27880859375,0.94140625,-1.875,-0.25,-0.5625
0.28000000000000014,0.0,-1.0,-4.0,-11.0,-4.0,-1.0,-2.0,-2.0,0.1170654296875,-0.12420654296875,0.973388671875,-0.15283203125,0.19189453125,-0.27880859375,0.94140625,-1.875,-0.25,-0.5625
0.28500000000000014,0.0,-1.0,-1.0,-8.0,-3.0,-3.0,-3.0,-3.0,0.1170654296875,-0.124267578125,0.973388671875,-0.15283203125,0.1845703125,-0.287109375,0.94384765625,-0.25,-0.5625,0.4375
0.29000000000000015,0.0,-1.0,-1.0,-8.0,-3.0,-3.0,-3.0,-3.0,0.1170654296875,-0.124267578125,0.973388671875,-0.15283203125,0.1845703125,-0.287109375,0.94384765625,-0.25,-0.5625,0.4375
0.29500000000000015,0.0,-1.0,-1.0,-8.0,-3.0,-3.0,-3.0,-3.0,0.1170654296875,-0.124267578125,0.973388671875,-0.15283203125,0.1845703125,-0.287109375,0.94384765625,-0.25,-0.5625,0.4375
0.30000000000000016,0.0,-1.0,-1.0,-8.0,-3.0,-3.0,-3.0,-3.0,0.1170654296875,-0.124267578125,0.973388671875,-0.15283203125,0.1845703125,-0.287109375,0.94384765625,-0.25,-0.5625,0.4375
0.30500000000000016,-4.0,-4.0,-4.0,9.0,2.0,-4.0,-4.0,-4.0,0.1170654296875,-0.124267578125,0.973388671875,-0.15283203125,0.1845703125,-0.287109375,0.94384765625,-0.25,-0.5625,0.4375
0.31000000000000016,-4.0,-4.0,-4.0,9.0,2.0,-4.0,-4.0,-4.0,0.1170654296875,-0.124267578125,0.973388671875,-0.15283203125,0.1845703125,-0.287109375,0.94384765625,-0.25,-0.5625,0.4375
0.31500000000000017,-1.0,-1.0,-2.0,15.0,0.0,-2.0,0.0,0.0,0.1170654296875,-0.124267578125,0.97332763671875,-0.15313720703125,0.18115234375,-0.2880859375,0.94482421875,0.5,-0.625,1.25
0.3200000000000002,1.0,0.0,2.0,1.0,-2.0,0.0,-2.0,0.0,0.1170654296875,-0.124267578125,0.97332763671875,-0.15313720703125,0.18115234375,-0.2880859375,0.94482421875,0.5,-0.625,1.25
0.3250000000000002,1.0,0.0,2.0,1.0,-2.0,0.0,-2.0,0.0,0.1170654296875,-0.124267578125,0.97332763671875,-0.15313720703125,0.18115234375,-0.2880859375,0.94482421875,0.5,-0.625,1.25
0.3300000000000002,1.0,0.0,-2.0,-33.0,-3.0,-1.0,1.0,1.0,0.11712646484375,-0.1241455078125,0.9732666015625,-0.15338134765625,0.18212890625,-0.287109375,0.939453125,1.5,-1.1875,1.0625
0.3350000000000002,1.0,0.0,-2.0,-33.0,-3.0,-1.0,1.0,1.0,0.11712646484375,-0.1241455078125,0.9732666015625,-0.15338134765625,0.18212890625,-0.287109375,0.939453125,1.5,-1.1875,1.0625
0.3400000000000002,1.0,0.0,-2.0,-33.0,-3.0,-1.0,1.0,1.0,0.11712646484375,-0.1241455078125,0.9732666015625,-0.15338134765625,0.18212890625,-0.287109375,0.939453125,1.5,-1.1875,1.0625
0.3450000000000002,2.0,0.0,-4.0,-21.0,-4.0,-4.0,-2.0,2.0,0.11712646484375,-0.1241455078125,0.9732666015625,-0.15338134765625,0.18212890625,-0.287109375,0.939453125,1.5,-1.1875,1.0625
0.3500000000000002,3.0,0.0,0.0,-9.0,-1.0,0.0,-1.0,3.0,0.1171875,-0.12371826171875,0.9732666015625,-0.1536865234375,0.1875,-0.2900390625,0.94677734375,3.125,-1.1875,1.0625
0.3550000000000002,3.0,0.0,0.0,-9.0,-1.0,0.0,-1.0,3.0,0.1171875,-0.12371826171875,0.9732666015625,-0.1536865234375,0.1875,-0.2900390625,0.94677734375,3.125,-1.1875,1.0625
0.3600000000000002,-3.0,-1.0,2.0,15.0,2.0,-1.0,-2.0,-1.0,0.1171875,-0.12371826171875,0.9732666015625,-0.1536865234375,0.1875,-0.2900390625,0.94677734375,3.125,-1.1875,1.0625
0.3650000000000002,-3.0,-1.0,2.0,15.0,2.0,-1.0,-2.0,-1.0,0.1171875,-0.12371826171875,0.9732666015625,-0.1536865234375,0.1875,-0.2900390625,0.94677734375,3.125,-1.1875,1.0625
0.3700000000000002,-3.0,-2.0,-3.0,-4.0,-3.0,-3.0,-2.0,-4.0,0.1171875,-0.12322998046875,0.97332763671875,-0.1539306640625,0.18603515625,-0.27978515625,0.93896484375,3.375,-1.125,1.0625
0.3750000000000002,-3.0,-2.0,-3.0,-4.0,-3.0,-3.0,-2.0,-4.0,0.1171875,-0.12322998046875,0.97332763671875,-0.1539306640625,0.18603515625,-0.27978515625,0.93896484375,3.375,-1.125,1.0625
0.3800000000000002,-2.0,-1.0,0.0,3.0,-2.0,-1.0,-1.0,0.0,0.1171875,-0.12322998046875,0.97332763671875,-0.1539306640625,0.18603515625,-0.27978515625,0.93896484375,3.375,-1.125,1.0625
0.38500000000000023,0.0,-4.0,-1.0,3.0,-2.0,-1.0,-2.0,0.0,0.1171875,-0.12322998046875,0.97332763671875,-0.1539306640625,0.18603515625,-0.27978515625,0.93896484375,3.375,-1.125,1.0625
0.39000000000000024,-4.0,-5.0,-4.0,25.0,0.0,-4.0,-4.0,-3.0,0.1173095703125,-0.122802734375,0.97332763671875,-0.15411376953125,0.189453125,-0.2705078125,0.93896484375,2.0,-0.9375,0.5625
0.39500000000000024,-4.0,-5.0,-4.0,25.0,0.0,-4.0,-4.0,-3.0,0.1173095703125,-0.122802734375,0.97332763671875,-0.15411376953125,0.189453125,-0.2705078125,0.93896484375,2.0,-0.9375,0.5625
0.40000000000000024,-4.0,-5.0,-4.0,25.0,0.0,-4.0,-4.0,-3.0,0.1173095703125,-0.122802734375,0.97332763671875,-0.15411376953125,0.189453125,-0.2705078125,0.93896484375,2.0,-0.9375,0.5625
0.40500000000000025,-4.0,-5.0,-4.0,25.0,0.0,-4.0,-4.0,-3.0,0.1173095703125,-0.122802734375,0.97332763671875,-0.15411376953125,0.189453125,-0.2705078125,0.93896484375,2.0,-0.9375,0.5625
0.41000000000000025,-1.0,0.0,1.0,6.0,-2.0,-3.0,-1.0,-2.0,0.1173095703125,-0.122802734375,0.97332763671875,-0.15411376953125,0.189453125,-0.2705078125,0.93896484375,2.0,-0.9375,0.5625
0.41500000000000026,-2.0,0.0,-2.0,-15.0,-1.0,2.0,-1.0,0.0,0.11749267578125,-0.1229248046875,0.9732666015625,-0.1541748046875,0.18359375,-0.27490234375,0.9326171875,-0.9375,-1.5,0.375
0.42000000000000026,-2.0,0.0,-2.0,-15.0,-1.0,2.0,-1.0,0.0,0.11749267578125,-0.1229248046875,0.9732666015625,-0.1541748046875,0.18359375,-0.27490234375,0.9326171875,-0.9375,-1.5,0.375
0.42500000000000027,-2.0,0.0,-2.0,-15.0,-1.0,2.0,-1.0,0.0,0.11749267578125,-0.1229248046875,0.9732666015625,-0.1541748046875,0.18359375,-0.27490234375,0.9326171875,-0.9375,-1.5,0.375
0.43000000000000027,-2.0,-1.0,-1.0,1.0,-2.0,-1.0,-2.0,-1.0,0.11749267578125,-0.1229248046875,0.9732666015625,-0.1541748046875,0.18359375,-0.27490234375,0.9326171875,-0.9375,-1.5,0.375
0.4350000000000003,-2.0,-1.0,-1.0,1.0,-2.0,-1.0,-2.0,-1.0,0.11749267578125,-0.1229248046875,0.9732666015625,-0.1541748046875,0.18359375,-0.27490234375,0.9326171875,-0.9375,-1.5,0.375
0.4400000000000003,-1.0,-1.0,0.0,3.0,2.0,-1.0,-1.0,-1.0,0.117919921875,-0.123291015625,0.97314453125,-0.15423583984375,0.19384765625,-0.28955078125,0.93798828125,-1.3125,-1.9375,0.0
0.4450000000000003,-1.0,-1.0,0.0,3.0,2.0,-1.0,-1.0,-1.0,0.117919921875,-0.123291015625,0.97314453125,-0.15423583984375,0.19384765625,-0.28955078125,0.93798828125,-1.3125,-1.9375,0.0
0.4500000000000003,-1.0,-1.0,0.0,3.0,2.0,-1.0,-1.0,-1.0,0.117919921875,-0.123291015625,0.97314453125,-0.15423583984375,0.19384765625,-0.28955078125,0.93798828125,-1.3125,-1.9375,0.0
0.4550000000000003,-1.0,-1.0,0.0,3.0,2.0,-1.0,-1.0,-1.0,0.117919921875,-0.123291015625,0.97314453125,-0.15423583984375,0.19384765625,-0.28955078125,0.93798828125,-1.3125,-1.9375,0.0
0.4600000000000003,-2.0,1.0,5.0,6.0,4.0,3.0,1.0,-1.0,0.11834716796875,-0.12347412109375,0.97308349609375,-0.154296875,0.19921875,-0.28271484375,0.9404296875,-1.125,-1.8125,0.1875
0.4650000000000003,-2.0,1.0,5.0,6.0,4.0,3.0,1.0,-1.0,0.11834716796875,-0.12347412109375,0.97308349609375,-0.154296875,0.19921875,-0.28271484375,0.9404296875,-1.125,-1.8125,0.1875
0.4700000000000003,-2.0,1.0,5.0,6.0,4.0,3.0,1.0,-1.0,0.11834716796875,-0.12347412109375,0.97308349609375,-0.154296875,0.19921875,-0.28271484375,0.9404296875,-1.125,-1.8125,0.1875
0.4750000000000003,0.0,-2.0,2.0,-1.0,1.0,0.0,0.0,-1.0,0.11834716796875,-0.12347412109375,0.97308349609375,-0.154296875,0.19921875,-0.28271484375,0.9404296875,-1.125,-1.8125,0.1875
0.4800000000000003,0.0,-2.0,2.0,-1.0,1.0,0.0,0.0,-1.0,0.11834716796875,-0.12347412109375,0.97308349609375,-0.154296875,0.19921875,-0.28271484375,0.9404296875,-1.125,-1.8125,0.1875
0.4850000000000003,0.0,1.0,2.0,22.0,1.0,-1.0,-1.0,-1.0,0.11871337890625,-0.1236572265625,0.9730224609375,-0.15435791015625,0.197265625,-0.27685546875,0.9375,-1.375,-1.9375,0.375
0.4900000000000003,0.0,1.0,2.0,22.0,1.0,-1.0,-1.0,-1.0,0.11871337890625,-0.1236572265625,0.9730224609375,-0.15435791015625,0.197265625,-0.27685546875,0.9375,-1.375,-1.9375,0.375
0.49500000000000033,0.0,1.0,2.0,22.0,1.0,-1.0,-1.0,-1.0,0.11871337890625,-0.1236572265625,0.9730224609375,-0.15435791015625,0.197265625,-0.27685546875,0.9375,-1.375,-1.9375,0.375
0.5000000000000003,1.0,-2.0,4.0,31.0,4.0,1.0,2.0,-2.0,0.11871337890625,-0.1236572265625,0.9730224609375,-0.15435791015625,0.197265625,-0.27685546875,0.9375,-1.375,-1.9375,0.375
0.5050000000000003,1.0,-2.0,4.0,31.0,4.0,1.0,2.0,-2.0,0.11871337890625,-0.1236572265625,0.9730224609375,-0.15435791015625,0.197265625,-0.27685546875,0.9375,-1.375,-1.9375,0.375
0.5100000000000003,-1.0,-1.0,-2.0,-2.0,-2.0,-3.0,-1.0,-1.0,0.119140625,-0.12408447265625,0.972900390625,-0.15447998046875,0.185546875,-0.287109375,0.94677734375,-2.3125,-2.6875,0.5
0.5150000000000003,-1.0,-1.0,-2.0,-2.0,-2.0,-3.0,-1.0,-1.0,0.119140625,-0.12408447265625,0.972900390625,-0.15447998046875,0.185546875,-0.287109375,0.94677734375,-2.3125,-2.6875,0.5
0.5200000000000004,-1.0,-1.0,-2.0,-2.0,-2.0,-3.0,-1.0,-1.0,0.119140625,-0.12408447265625,0.972900390625,-0.15447998046875,0.185546875,-0.287109375,0.94677734375,-2.3125,-2.6875,0.5
0.5250000000000004,0.0,0.0,-5.0,-39.0,-6.0,-2.0,0.0,0.0,0.119140625,-0.12408447265625,0.972900390625,-0.15447998046875,0.185546875,-0.287109375,0.94677734375,-2.3125,-2.6875,0.5
0.5300000000000004,-7.0,-2.0,-5.0,1.0,-4.0,-5.0,-4.0,-4.0,0.11956787109375,-0.12481689453125,0.97271728515625,-0.15460205078125,0.18505859375,-0.3017578125,0.943359375,-3.375,-2.6875,0.5
0.5350000000000004,-7.0,-2.0,-5.0,1.0,-4.0,-5.0,-4.0,-4.0,0.11956787109375,-0.12481689453125,0.97271728515625,-0.15460205078125,0.18505859375,-0.3017578125,0.943359375,-3.375,-2.6875,0.5
0.5400000000000004,-1.0,-1.0,-4.0,-5.0,-5.0,-2.0,-2.0,0.0,0.11956787109375,-0.12481689453125,0.97271728515625,-0.15460205078125,0.18505859375,-0.3017578125,0.943359375,-3.375,-2.6875,0.5
0.5450000000000004,-2.0,0.0,3.0,-8.0,-1.0,1.0,-2.0,0.0,0.11956787109375,-0.12481689453125,0.97271728515625,-0.15460205078125,0.18505859375,-0.3017578125,0.943359375,-3.375,-2.6875,0.5
0.5500000000000004,-2.0,0.0,3.0,-8.0,-1.0,1.0,-2.0,0.0,0.11956787109375,-0.12481689453125,0.97271728515625,-0.15460205078125,0.18505859375,-0.3017578125,0.943359375,-3.375,-2.6875,0.5
0.5550000000000004,0.0,-2.0,-4.0,-2.0,-1.0,-2.0,-1.0,-1.0,0.12005615234375,-0.12481689453125,0.97265625,-0.154541015625,0.19677734375,-0.291015625,0.9423828125,0.0625,-2.75,-0.75
0.5600000000000004,0.0,-2.0,-4.0,-2.0,-1.0,-2.0,-1.0,-1.0,0.12005615234375,-0.12481689453125,0.97265625,-0.154541015625,0.19677734375,-0.291015625,0.9423828125,0.0625,-2.75,-0.75
0.5650000000000004,0.0,-2.0,-4.0,-2.0,-1.0,-2.0,-1.0,-1.0,0.12005615234375,-0.12481689453125,0.97265625,-0.154541015625,0.19677734375,-0.291015625,0.9423828125,0.0625,-2.75,-0.75
0.5700000000000004,0.0,0.0,-2.0,-9.0,-1.0,1.0,2.0,1.0,0.12005615234375,-0.12481689453125,0.97265625,-0.154541015625,0.19677734375,-0.291015625,0.9423828125,0.0625,-2.75,-0.75
0.5750000000000004,0.0,0.0,-2.0,-9.0,-1.0,1.0,2.0,1.0,0.12005615234375,-0.12481689453125,0.97265625,-0.154541015625,0.19677734375,-0.291015625,0.9423828125,0.0625,-2.75,-0.75
0.5800000000000004,1.0,0.0,2.0,10.0,3.0,2.0,1.0,0.0,0.12042236328125,-0.12432861328125,0.97271728515625,-0.1544189453125,0.2001953125,-0.29150390625,0.953125,3.0,-2.4375,-1.3125
0.5850000000000004,1.0,0.0,2.0,10.0,3.0,2.0,1.0,0.0,0.12042236328125,-0.12432861328125,0.97271728515625,-0.1544189453125,0.2001953125,-0.29150390625,0.953125,3.0,-2.4375,-1.3125
0.5900000000000004,-4.0,0.0,-1.0,-11.0,-2.0,-1.0,-1.0,-2.0,0.12066650390625,-0.12371826171875,0.97271728515625,-0.154541015625,0.197265625,-0.29052734375,0.9501953125,3.6875,-1.9375,-0.1875
0.5950000000000004,-4.0,0.0,-1.0,-11.0,-2.0,-1.0,-1.0,-2.0,0.12066650390625,-0.12371826171875,0.97271728515625,-0.154541015625,0.197265625,-0.29052734375,0.9501953125,3.6875,-1.9375,-0.1875
0.6000000000000004,-4.0,0.0,-1.0,-11.0,-2.0,-1.0,-1.0,-2.0,0.12066650390625,-0.12371826171875,0.97271728515625,-0.154541015625,0.197265625,-0.29052734375,0.9501953125,3.6875,-1.9375,-0.1875
0.6050000000000004,-3.0,-5.0,-7.0,6.0,-7.0,-4.0,-3.0,-2.0,0.12066650390625,-0.12371826171875,0.97271728515625,-0.154541015625,0.197265625,-0.29052734375,0.9501953125,3.6875,-1.9375,-0.1875
0.6100000000000004,-3.0,-5.0,-7.0,6.0,-7.0,-4.0,-3.0,-2.0,0.12066650390625,-0.12371826171875,0.97271728515625,-0.154541015625,0.197265625,-0.29052734375,0.9501953125,3.6875,-1.9375,-0.1875
0.6150000000000004,-3.0,-5.0,-7.0,6.0,-7.0,-4.0,-3.0,-2.0,0.12091064453125,-0.123291015625,0.97271728515625,-0.15478515625,0.20166015625,-0.27685546875,0.94970703125,2.1875,-1.6875,1.125
0.6200000000000004,1.0,2.0,-3.0,-21.0,-5.0,0.0,0.0,0.0,0.12091064453125,-0.123291015625,0.97271728515625,-0.15478515625,0.20166015625,-0.27685546875,0.94970703125,2.1875,-1.6875,1.125
0.6250000000000004,1.0,2.0,-3.0,-21.0,-5.0,0.0,0.0,0.0,0.12091064453125,-0.123291015625,0.97271728515625,-0.15478515625,0.20166015625,-0.27685546875,0.94970703125,2.1875,-1.6875,1.125
0.6300000000000004,1.0,2.0,-3.0,-21.0,-5.0,0.0,0.0,0.0,0.12091064453125,-0.123291015625,0.97271728515625,-0.15478515625,0.20166015625,-0.27685546875,0.94970703125,2.1875,-1.6875,1.125
0.6350000000000005,-2.0,0.0,-5.0,-15.0,1.0,-1.0,-2.0,0.0,0.12091064453125,-0.123291015625,0.97271728515625,-0.15478515625,0.20166015625,-0.27685546875,0.94970703125,2.1875,-1.6875,1.125
0.6400000000000005,-2.0,0.0,-5.0,-15.0,1.0,-1.0,-2.0,0.0,0.12091064453125,-0.123291015625,0.97271728515625,-0.15478515625,0.20166015625,-0.27685546875,0.94970703125,2.1875,-1.6875,1.125
0.6450000000000005,-3.0,-4.0,-4.0,-6.0,-5.0,-1.0,0.0,-3.0,0.12127685546875,-0.12335205078125,0.97265625,-0.15496826171875,0.20654296875,-0.27978515625,0.9453125,-0.5625,-1.8125,0.6875
0.6500000000000005,-3.0,-4.0,-4.0,-6.0,-5.0,-1.0,0.0,-3.0,0.12127685546875,-0.12335205078125,0.97265625,-0.15496826171875,0.20654296875,-0.27978515625,0.9453125,-0.5625,-1.8125,0.6875
0.6550000000000005,-3.0,-4.0,-4.0,-6.0,-5.0,-1.0,0.0,-3.0,0.12127685546875,-0.12335205078125,0.97265625,-0.15496826171875,0.20654296875,-0.27978515625,0.9453125,-0.5625,-1.8125,0.6875
0.6600000000000005,-3.0,-4.0,-4.0,-6.0,-5.0,-1.0,0.0,-3.0,0.12127685546875,-0.12335205078125,0.97265625,-0.15496826171875,0.20654296875,-0.27978515625,0.9453125,-0.5625,-1.8125,0.6875
0.6650000000000005,-5.0,-7.0,-13.0,-20.0,-11.0,-6.0,-4.0,-3.0,0.12158203125,-0.1236572265625,0.9725341796875,-0.1549072265625,0.2001953125,-0.2900390625,0.9501953125,-1.625,-1.625,-0.1875
0.6700000000000005,-5.0,-7.0,-13.0,-20.0,-11.0,-6.0,-4.0,-3.0,0.12158203125,-0.1236572265625,0.9725341796875,-0.1549072265625,0.2001953125,-0.2900390625,0.9501953125,-1.625,-1.625,-0.1875
0.6750000000000005,-5.0,-7.0,-13.0,-20.0,-11.0,-6.0,-4.0,-3.0,0.12158203125,-0.1236572265625,0.9725341796875,-0.1549072265625,0.2001953125,-0.2900390625,0.9501953125,-1.625,-1.625,-0.1875
0.6800000000000005,-6.0,-2.0,0.0,-3.0,-1.0,-1.0,-1.0,-1.0,0.12158203125,-0.1236572265625,0.9725341796875,-0.1549072265625,0.2001953125,-0.2900390625,0.9501953125,-1.625,-1.625,-0.1875
0.6850000000000005,-6.0,-2.0,0.0,-3.0,-1.0,-1.0,-1.0,-1.0,0.12158203125,-0.1236572265625,0.9725341796875,-0.1549072265625,0.2001953125,-0.2900390625,0.9501953125,-1.625,-1.625,-0.1875
0.6900000000000005,-6.0,-2.0,0.0,-3.0,-1.0,-1.0,-1.0,-1.0,0.12158203125,-0.1236572265625,0.9725341796875,-0.1549072265625,0.20068359375,-0.2890625,0.95263671875,-0.6875,-0.6875,0.8125
0.6950000000000005,0.0,0.0,3.0,4.0,-1.0,-2.0,-1.0,-1.0,0.12158203125,-0.1236572265625,0.9725341796875,-0.1549072265625,0.20068359375,-0.2890625,0.95263671875,-0.6875,-0.6875,0.8125
0.7000000000000005,0.0,0.0,3.0,4.0,-1.0,-2.0,-1.0,-1.0,0.12158203125,-0.1236572265625,0.9725341796875,-0.1549072265625,0.20068359375,-0.2890625,0.95263671875,-0.6875,-0.6875,0.8125
0.7050000000000005,0.0,0.0,3.0,4.0,-1.0,-2.0,-1.0,-1.0,0.12158203125,-0.1236572265625,0.9725341796875,-0.1549072265625,0.20068359375,-0.2890625,0.95263671875,-0.6875,-0.6875,0.8125
0.7100000000000005,-1.0,0.0,-1.0,2.0,-2.0,-3.0,-2.0,0.0,0.12158203125,-0.1236572265625,0.9725341796875,-0.1549072265625,0.20068359375,-0.2890625,0.95263671875,-0.6875,-0.6875,0.8125
0.7150000000000005,-1.0,0.0,-1.0,2.0,-2.0,-3.0,-2.0,0.0,0.12158203125,-0.1236572265625,0.9725341796875,-0.1549072265625,0.20068359375,-0.2890625,0.95263671875,-0.6875,-0.6875,0.8125
0.7200000000000005,-1.0,0.0,-1.0,2.0,-2.0,-3.0,-2.0,0.0,0.1217041015625,-0.12353515625,0.9725341796875,-0.15521240234375,0.20166015625,-0.27880859375,0.94775390625,0.75,-0.625,1.375
0.7250000000000005,0.0,0.0,2.0,8.0,3.0,0.0,-1.0,1.0,0.1217041015625,-0.12353515625,0.9725341796875,-0.15521240234375,0.20166015625,-0.27880859375,0.94775390625,0.75,-0.625,1.375
0.7300000000000005,0.0,0.0,2.0,8.0,3.0,0.0,-1.0,1.0,0.1217041015625,-0.12353515625,0.9725341796875,-0.15521240234375,0.20166015625,-0.27880859375,0.94775390625,0.75,-0.625,1.375
0.7350000000000005,0.0,0.0,2.0,8.0,3.0,0.0,-1.0,1.0,0.1217041015625,-0.12353515625,0.9725341796875,-0.15521240234375,0.20166015625,-0.27880859375,0.94775390625,0.75,-0.625,1.375
0.7400000000000005,0.0,0.0,2.0,8.0,3.0,0.0,-1.0,1.0,0.1217041015625,-0.12353515625,0.9725341796875,-0.15521240234375,0.20166015625,-0.27880859375,0.94775390625,0.75,-0.625,1.375
0.7450000000000006,1.0,-4.0,-8.0,8.0,-8.0,-4.0,-3.0,-3.0,0.1217041015625,-0.12335205078125,0.9725341796875,-0.1553955078125,0.20263671875,-0.28076171875,0.95263671875,1.125,-0.375,1.125
0.7500000000000006,1.0,-4.0,-8.0,8.0,-8.0,-4.0,-3.0,-3.0,0.1217041015625,-0.12335205078125,0.9725341796875,-0.1553955078125,0.20263671875,-0.28076171875,0.95263671875,1.125,-0.375,1.125
0.7550000000000006,1.0,-4.0,-8.0,8.0,-8.0,-4.0,-3.0,-3.0,0.1217041015625,-0.12335205078125,0.9725341796875,-0.1553955078125,0.20263671875,-0.28076171875,0.95263671875,1.125,-0.375,1.125
0.7600000000000006,5.0,4.0,6.0,-16.0,8.0,5.0,3.0,4.0,0.1217041015625,-0.12335205078125,0.9725341796875,-0.1553955078125,0.20263671875,-0.28076171875,0.95263671875,1.125,-0.375,1.125
0.7650000000000006,5.0,4.0,6.0,-16.0,8.0,5.0,3.0,4.0,0.1217041015625,-0.12335205078125,0.9725341796875,-0.1553955078125,0.20263671875,-0.28076171875,0.95263671875,1.125,-0.375,1.125
0.7700000000000006,5.0,4.0,6.0,-16.0,8.0,5.0,3.0,4.0,0.1217041015625,-0.12335205078125,0.9725341796875,-0.1553955078125,0.20263671875,-0.28076171875,0.95263671875,1.125,-0.375,1.125
0.7750000000000006,-3.0,0.0,4.0,7.0,2.0,1.0,-1.0,0.0,0.12164306640625,-0.123291015625,0.97247314453125,-0.15582275390625,0.19677734375,-0.28173828125,0.9462890625,0.6875,-0.25,2.1875
0.7800000000000006,-3.0,0.0,4.0,7.0,2.0,1.0,-1.0,0.0,0.12164306640625,-0.123291015625,0.97247314453125,-0.15582275390625,0.19677734375,-0.28173828125,0.9462890625,0.6875,-0.25,2.1875
0.7850000000000006,-3.0,0.0,4.0,7.0,2.0,1.0,-1.0,0.0,0.12164306640625,-0.123291015625,0.97247314453125,-0.15582275390625,0.19677734375,-0.28173828125,0.9462890625,0.6875,-0.25,2.1875
0.7900000000000006,-2.0,-3.0,-2.0,-6.0,2.0,0.0,1.0,-1.0,0.12164306640625,-0.123291015625,0.97247314453125,-0.15582275390625,0.19677734375,-0.28173828125,0.9462890625,0.6875,-0.25,2.1875
0.7950000000000006,-2.0,-3.0,-2.0,-6.0,2.0,0.0,1.0,-1.0,0.12164306640625,-0.123291015625,0.97247314453125,-0.15582275390625,0.19677734375,-0.28173828125,0.9462890625,0.6875,-0.25,2.1875
0.8000000000000006,1.0,1.0,3.0,-3.0,1.0,0.0,-2.0,0.0,0.1217041015625,-0.123291015625,0.972412109375,-0.15618896484375,0.2001953125,-0.27392578125,0.9345703125,-0.25,-0.5,2.0
0.8050000000000006,1.0,1.0,3.0,-3.0,1.0,0.0,-2.0,0.0,0.1217041015625,-0.123291015625,0.972412109375,-0.15618896484375,0.2001953125,-0.27392578125,0.9345703125,-0.25,-0.5,2.0
0.8100000000000006,1.0,1.0,3.0,-3.0,1.0,0.0,-2.0,0.0,0.1217041015625,-0.123291015625,0.972412109375,-0.15618896484375,0.2001953125,-0.27392578125,0.9345703125,-0.25,-0.5,2.0
0.8150000000000006,1.0,1.0,3.0,-3.0,1.0,0.0,-2.0,0.0,0.1217041015625,-0.123291015625,0.972412109375,-0.15618896484375,0.2001953125,-0.27392578125,0.9345703125,-0.25,-0.5,2.0
0.8200000000000006,-2.0,-3.0,2.0,5.0,-3.0,-1.0,-2.0,0.0,0.1217041015625,-0.123291015625,0.972412109375,-0.15618896484375,0.2001953125,-0.27392578125,0.9345703125,-0.25,-0.5,2.0
0.8250000000000006,-3.0,0.0,-1.0,1.0,2.0,2.0,-1.0,-2.0,0.1217041015625,-0.123291015625,0.972412109375,-0.15618896484375,0.193359375,-0.28271484375,0.94677734375,0.0625,-0.5,0.375
0.8300000000000006,-3.0,0.0,-1.0,1.0,2.0,2.0,-1.0,-2.0,0.1217041015625,-0.123291015625,0.972412109375,-0.15618896484375,0.193359375,-0.28271484375,0.94677734375,0.0625,-0.5,0.375
0.8350000000000006,-3.0,0.0,-1.0,1.0,2.0,2.0,-1.0,-2.0,0.1217041015625,-0.123291015625,0.972412109375,-0.15618896484375,0.193359375,-0.28271484375,0.94677734375,0.0625,-0.5,0.375
0.8400000000000006,-1.0,-3.0,-3.0,-3.0,-3.0,-3.0,-1.0,-3.0,0.1217041015625,-0.123291015625,0.972412109375,-0.15618896484375,0.193359375,-0.28271484375,0.94677734375,0.0625,-0.5,0.375
0.8450000000000006,-1.0,-3.0,-3.0,-3.0,-3.0,-3.0,-1.0,-3.0,0.1217041015625,-0.123291015625,0.972412109375,-0.15618896484375,0.193359375,-0.28271484375,0.94677734375,0.0625,-0.5,0.375
0.8500000000000006,1.0,1.0,4.0,15.0,5.0,1.0,1.0,-1.0,0.12158203125,-0.123291015625,0.97235107421875,-0.15643310546875,0.19677734375,-0.2939453125,0.95751953125,0.875,0.0625,1.1875
0.8550000000000006,1.0,1.0,4.0,15.0,5.0,1.0,1.0,-1.0,0.12158203125,-0.123291015625,0.97235107421875,-0.15643310546875,0.19677734375,-0.2939453125,0.95751953125,0.875,0.0625,1.1875
0.8600000000000007,1.0,1.0,4.0,15.0,5.0,1.0,1.0,-1.0,0.12158203125,-0.123291015625,0.97235107421875,-0.15643310546875,0.19677734375,-0.2939453125,0.95751953125,0.875,0.0625,1.1875
0.8650000000000007,1.0,1.0,4.0,15.0,5.0,1.0,1.0,-1.0,0.12158203125,-0.123291015625,0.97235107421875,-0.15643310546875,0.19677734375,-0.2939453125,0.95751953125,0.875,0.0625,1.1875
0.8700000000000007,-3.0,-2.0,-7.0,12.0,-4.0,-3.0,-2.0,-4.0,0.12158203125,-0.123291015625,0.97235107421875,-0.15643310546875,0.19677734375,-0.2939453125,0.95751953125,0.875,0.0625,1.1875
0.8750000000000007,-3.0,-2.0,-7.0,12.0,-4.0,-3.0,-2.0,-4.0,0.12158203125,-0.123291015625,0.97235107421875,-0.15643310546875,0.19677734375,-0.2939453125,0.95751953125,0.875,0.0625,1.1875
0.8800000000000007,1.0,-1.0,0.0,-5.0,4.0,2.0,-1.0,1.0,0.12139892578125,-0.12286376953125,0.97235107421875,-0.1568603515625,0.19677734375,-0.28369140625,0.951171875,3.25,0.0,1.9375
0.8850000000000007,1.0,-1.0,0.0,-5.0,4.0,2.0,-1.0,1.0,0.12139892578125,-0.12286376953125,0.97235107421875,-0.1568603515625,0.19677734375,-0.28369140625,0.951171875,3.25,0.0,1.9375
0.8900000000000007,1.0,-1.0,0.0,-5.0,4.0,2.0,-1.0,1.0,0.12139892578125,-0.12286376953125,0.97235107421875,-0.1568603515625,0.19677734375,-0.28369140625,0.951171875,3.25,0.0,1.9375
0.8950000000000007,-3.0,-4.0,-9.0,-21.0,-5.0,-3.0,-3.0,-3.0,0.12139892578125,-0.1224365234375,0.972412109375,-0.15716552734375,0.205078125,-0.27880859375,0.939453125,2.6875,0.0625,1.5
0.9000000000000007,-3.0,-2.0,-3.0,-3.0,-1.0,-3.0,-1.0,0.0,0.12139892578125,-0.1224365234375,0.972412109375,-0.15716552734375,0.205078125,-0.27880859375,0.939453125,2.6875,0.0625,1.5
0.9050000000000007,-3.0,-2.0,-3.0,-3.0,-1.0,-3.0,-1.0,0.0,0.12139892578125,-0.1224365234375,0.972412109375,-0.15716552734375,0.205078125,-0.27880859375,0.939453125,2.6875,0.0625,1.5
0.9100000000000007,0.0,0.0,-1.0,3.0,1.0,-2.0,-2.0,0.0,0.12139892578125,-0.1224365234375,0.972412109375,-0.15716552734375,0.205078125,-0.27880859375,0.939453125,2.6875,0.0625,1.5
0.9150000000000007,0.0,0.0,-1.0,3.0,1.0,-2.0,-2.0,0.0,0.12139892578125,-0.1224365234375,0.972412109375,-0.15716552734375,0.205078125,-0.27880859375,0.939453125,2.6875,0.0625,1.5
0.9200000000000007,0.0,0.0,-1.0,3.0,1.0,-2.0,-2.0,0.0,0.12139892578125,-0.1224365234375,0.972412109375,-0.1571044921875,0.20703125,-0.2783203125,0.93994140625,0.125,0.625,0.875
0.9250000000000007,0.0,0.0,2.0,0.0,-12.0,0.0,1.0,-2.0,0.12139892578125,-0.1224365234375,0.972412109375,-0.1571044921875,0.20703125,-0.2783203125,0.93994140625,0.125,0.625,0.875
0.9300000000000007,0.0,0.0,2.0,0.0,-12.0,0.0,1.0,-2.0,0.12139892578125,-0.1224365234375,0.972412109375,-0.1571044921875,0.20703125,-0.2783203125,0.93994140625,0.125,0.625,0.875
0.9350000000000007,-1.0,1.0,2.0,7.0,-1.0,0.0,0.0,1.0,0.12139892578125,-0.1224365234375,0.972412109375,-0.1571044921875,0.20703125,-0.2783203125,0.93994140625,0.125,0.625,0.875
0.9400000000000007,-1.0,1.0,2.0,7.0,-1.0,0.0,0.0,1.0,0.12139892578125,-0.1224365234375,0.972412109375,-0.1571044921875,0.20703125,-0.2783203125,0.93994140625,0.125,0.625,0.875
0.9450000000000007,0.0,-1.0,0.0,5.0,12.0,2.0,0.0,1.0,0.12109375,-0.1226806640625,0.972412109375,-0.1571044921875,0.20263671875,-0.27880859375,0.947265625,-1.125,2.3125,0.375
0.9500000000000007,0.0,-1.0,0.0,5.0,12.0,2.0,0.0,1.0,0.12109375,-0.1226806640625,0.972412109375,-0.1571044921875,0.20263671875,-0.27880859375,0.947265625,-1.125,2.3125,0.375
0.9550000000000007,0.0,-1.0,0.0,5.0,12.0,2.0,0.0,1.0,0.12109375,-0.1226806640625,0.972412109375,-0.1571044921875,0.20263671875,-0.27880859375,0.947265625,-1.125,2.3125,0.375
0.9600000000000007,0.0,-1.0,-4.0,4.0,-2.0,0.0,-1.0,1.0,0.12109375,-0.1226806640625,0.972412109375,-0.1571044921875,0.20263671875,-0.27880859375,0.947265625,-1.125,2.3125,0.375
0.9650000000000007,0.0,-1.0,-4.0,4.0,-2.0,0.0,-1.0,1.0,0.12109375,-0.1226806640625,0.972412109375,-0.1571044921875,0.20263671875,-0.27880859375,0.947265625,-1.125,2.3125,0.375
0.9700000000000008,-3.0,-2.0,-9.0,-9.0,-5.0,-1.0,-1.0,-2.0,0.12066650390625,-0.12298583984375,0.97247314453125,-0.15679931640625,0.19873046875,-0.2705078125,0.9375,-1.875,3.0,-1.125
0.9750000000000008,0.0,-1.0,1.0,-7.0,-1.0,1.0,-2.0,1.0,0.12066650390625,-0.12298583984375,0.97247314453125,-0.15679931640625,0.19873046875,-0.2705078125,0.9375,-1.875,3.0,-1.125
0.9800000000000008,0.0,-1.0,1.0,-7.0,-1.0,1.0,-2.0,1.0,0.12066650390625,-0.12298583984375,0.97247314453125,-0.15679931640625,0.19873046875,-0.2705078125,0.9375,-1.875,3.0,-1.125
0.9850000000000008,1.0,3.0,8.0,20.0,41.0,7.0,3.0,3.0,0.1204833984375,-0.1236572265625,0.97247314453125,-0.1563720703125,0.1875,-0.26416015625,0.9345703125,-4.8125,1.625,-2.0
0.9900000000000008,1.0,3.0,8.0,20.0,41.0,7.0,3.0,3.0,0.1204833984375,-0.1236572265625,0.97247314453125,-0.1563720703125,0.1875,-0.26416015625,0.9345703125,-4.8125,1.625,-2.0
0.9950000000000008,1.0,3.0,8.0,20.0,41.0,7.0,3.0,3.0,0.1204833984375,-0.1236572265625,0.97247314453125,-0.1563720703125,0.1875,-0.26416015625,0.9345703125,-4.8125,1.625,-2.0
1.0000000000000007,-3.0,1.0,-10.0,-45.0,-55.0,-19.0,-7.0,-1.0,0.1204833984375,-0.1236572265625,0.97247314453125,-0.1563720703125,0.1875,-0.26416015625,0.9345703125,-4.8125,1.625,-2.0
1.0050000000000006,-3.0,1.0,-10.0,-45.0,-55.0,-19.0,-7.0,-1.0,0.1204833984375,-0.1236572265625,0.97247314453125,-0.1563720703125,0.1875,-0.26416015625,0.9345703125,-4.8125,1.625,-2.0
1.0100000000000005,-2.0,0.0,9.0,-7.0,-29.0,-7.0,-5.0,-3.0,0.12005615234375,-0.12445068359375,0.97247314453125,-0.15594482421875,0.197265625,-0.28857421875,0.94921875,-4.125,3.3125,-1.375
1.0150000000000003,-2.0,0.0,9.0,-7.0,-29.0,-7.0,-5.0,-3.0,0.12005615234375,-0.12445068359375,0.97247314453125,-0.15594482421875,0.197265625,-0.28857421875,0.94921875,-4.125,3.3125,-1.375
1.0200000000000002,-2.0,0.0,9.0,-7.0,-29.0,-7.0,-5.0,-3.0,0.12005615234375,-0.12445068359375,0.97247314453125,-0.15594482421875,0.197265625,-0.28857421875,0.94921875,-4.125,3.3125,-1.375
1.0250000000000001,-1.0,-3.0,-6.0,27.0,25.0,6.0,1.0,-1.0,0.11944580078125,-0.125,0.97259521484375,-0.15521240234375,0.19384765625,-0.2587890625,0.90478515625,-3.5,4.9375,-3.4375
1.03,-1.0,-3.0,-6.0,27.0,25.0,6.0,1.0,-1.0,0.11944580078125,-0.125,0.97259521484375,-0.15521240234375,0.19384765625,-0.2587890625,0.90478515625,-3.5,4.9375,-3.4375
1.035,-3.0,0.0,3.0,-11.0,-17.0,-5.0,-3.0,-3.0,0.11944580078125,-0.125,0.97259521484375,-0.15521240234375,0.19384765625,-0.2587890625,0.90478515625,-3.5,4.9375,-3.4375
1.0399999999999998,-3.0,0.0,3.0,-11.0,-17.0,-5.0,-3.0,-3.0,0.11944580078125,-0.125,0.97259521484375,-0.15521240234375,0.19384765625,-0.2587890625,0.90478515625,-3.5,4.9375,-3.4375
1.0449999999999997,-10.0,-7.0,-12.0,-7.0,-8.0,-5.0,-2.0,-3.0,0.11944580078125,-0.125,0.97259521484375,-0.15521240234375,0.19384765625,-0.2587890625,0.90478515625,-3.5,4.9375,-3.4375
1.0499999999999996,-10.0,-7.0,-12.0,-7.0,-8.0,-5.0,-2.0,-3.0,0.11944580078125,-0.125,0.97259521484375,-0.15521240234375,0.19384765625,-0.2587890625,0.90478515625,-3.5,4.9375,-3.4375
1.0549999999999995,-10.0,-7.0,-12.0,-7.0,-8.0,-5.0,-2.0,-3.0,0.11932373046875,-0.12493896484375,0.972900390625,-0.1534423828125,0.19140625,-0.25341796875,0.92529296875,-2.3125,2.25,-9.5
1.0599999999999994,5.0,1.0,-7.0,7.0,23.0,5.0,3.0,0.0,0.11932373046875,-0.12493896484375,0.972900390625,-0.1534423828125,0.19140625,-0.25341796875,0.92529296875,-2.3125,2.25,-9.5
1.0649999999999993,5.0,1.0,-7.0,7.0,23.0,5.0,3.0,0.0,0.11932373046875,-0.12493896484375,0.972900390625,-0.1534423828125,0.19140625,-0.25341796875,0.92529296875,-2.3125,2.25,-9.5
1.0699999999999992,-2.0,-5.0,-4.0,2.0,0.0,-2.0,-3.0,-3.0,0.11932373046875,-0.12493896484375,0.972900390625,-0.1534423828125,0.19140625,-0.25341796875,0.92529296875,-2.3125,2.25,-9.5
1.074999999999999,-2.0,-5.0,-4.0,2.0,0.0,-2.0,-3.0,-3.0,0.11932373046875,-0.12493896484375,0.972900390625,-0.1534423828125,0.19140625,-0.25341796875,0.92529296875,-2.3125,2.25,-9.5
1.079999999999999,0.0,-1.0,3.0,-9.0,-8.0,-1.0,-2.0,-2.0,0.11932373046875,-0.12518310546875,0.97308349609375,-0.15216064453125,0.18212890625,-0.30615234375,0.95849609375,-0.6875,-0.125,-7.75
1.0849999999999989,0.0,-1.0,3.0,-9.0,-8.0,-1.0,-2.0,-2.0,0.11932373046875,-0.12518310546875,0.97308349609375,-0.15216064453125,0.18212890625,-0.30615234375,0.95849609375,-0.6875,-0.125,-7.75
1.0899999999999987,0.0,-1.0,3.0,-9.0,-8.0,-1.0,-2.0,-2.0,0.11932373046875,-0.12518310546875,0.97308349609375,-0.15216064453125,0.18212890625,-0.30615234375,0.95849609375,-0.6875,-0.125,-7.75
1.0949999999999986,1.0,-4.0,6.0,21.0,18.0,3.0,2.0,-2.0,0.11932373046875,-0.12518310546875,0.97308349609375,-0.15216064453125,0.18212890625,-0.30615234375,0.95849609375,-0.6875,-0.125,-7.75
1.0999999999999985,1.0,-4.0,6.0,21.0,18.0,3.0,2.0,-2.0,0.11932373046875,-0.12518310546875,0.97308349609375,-0.15216064453125,0.18212890625,-0.30615234375,0.95849609375,-0.6875,-0.125,-7.75
1.1049999999999984,1.0,-4.0,6.0,21.0,18.0,3.0,2.0,-2.0,0.11932373046875,-0.12518310546875,0.97308349609375,-0.15216064453125,0.18212890625,-0.30615234375,0.95849609375,-0.6875,-0.125,-7.75
1.1099999999999983,-11.0,-15.0,-7.0,10.0,4.0,3.0,0.0,-6.0,0.11932373046875,-0.12420654296875,0.97320556640625,-0.1522216796875,0.2041015625,-0.32861328125,0.9765625,8.3125,-0.5,-0.9375
1.1149999999999982,-11.0,-15.0,-7.0,10.0,4.0,3.0,0.0,-6.0,0.11932373046875,-0.12420654296875,0.97320556640625,-0.1522216796875,0.2041015625,-0.32861328125,0.9765625,8.3125,-0.5,-0.9375
1.119999999999998,-7.0,-5.0,-6.0,-1.0,-11.0,-5.0,-4.0,-3.0,0.11865234375,-0.1224365234375,0.97332763671875,-0.1531982421875,0.212890625,-0.3037109375,0.962890625,12.4375,2.4375,4.5
1.124999999999998,-7.0,-5.0,-6.0,-1.0,-11.0,-5.0,-4.0,-3.0,0.11865234375,-0.1224365234375,0.97332763671875,-0.1531982421875,0.212890625,-0.3037109375,0.962890625,12.4375,2.4375,4.5
1.129999999999998,-7.0,-5.0,-6.0,-1.0,-11.0,-5.0,-4.0,-3.0,0.11865234375,-0.1224365234375,0.97332763671875,-0.1531982421875,0.212890625,-0.3037109375,0.962890625,12.4375,2.4375,4.5
1.1349999999999978,-7.0,-5.0,-6.0,-1.0,-11.0,-5.0,-4.0,-3.0,0.11865234375,-0.1224365234375,0.97332763671875,-0.1531982421875,0.212890625,-0.3037109375,0.962890625,12.4375,2.4375,4.5
1.1399999999999977,6.0,8.0,13.0,-1.0,-5.0,0.0,0.0,1.0,0.11865234375,-0.1224365234375,0.97332763671875,-0.1531982421875,0.212890625,-0.3037109375,0.962890625,12.4375,2.4375,4.5
1.1449999999999976,-5.0,-4.0,-11.0,10.0,3.0,-2.0,-2.0,-1.0,0.1182861328125,-0.12152099609375,0.973388671875,-0.15411376953125,0.1884765625,-0.2724609375,0.921875,6.375,0.75,4.5
1.1499999999999975,-5.0,-4.0,-11.0,10.0,3.0,-2.0,-2.0,-1.0,0.1182861328125,-0.12152099609375,0.973388671875,-0.15411376953125,0.1884765625,-0.2724609375,0.921875,6.375,0.75,4.5
1.1549999999999974,-5.0,-4.0,-11.0,10.0,3.0,-2.0,-2.0,-1.0,0.1182861328125,-0.12152099609375,0.973388671875,-0.15411376953125,0.1884765625,-0.2724609375,0.921875,6.375,0.75,4.5
1.1599999999999973,1.0,-4.0,2.0,3.0,2.0,-1.0,-1.0,-1.0,0.1182861328125,-0.12152099609375,0.973388671875,-0.15411376953125,0.1884765625,-0.2724609375,0.921875,6.375,0.75,4.5
1.1649999999999971,1.0,-4.0,2.0,3.0,2.0,-1.0,-1.0,-1.0,0.1182861328125,-0.12152099609375,0.973388671875,-0.15411376953125,0.1884765625,-0.2724609375,0.921875,6.375,0.75,4.5
1.169999999999997,1.0,0.0,1.0,-16.0,-7.0,-1.0,-1.0,0.0,0.11834716796875,-0.1217041015625,0.9732666015625,-0.15460205078125,0.18115234375,-0.26953125,0.9208984375,-0.625,-1.3125,2.5
1.174999999999997,0.0,1.0,1.0,-3.0,1.0,2.0,0.0,1.0,0.11834716796875,-0.1217041015625,0.9732666015625,-0.15460205078125,0.18115234375,-0.26953125,0.9208984375,-0.625,-1.3125,2.5
1.1799999999999968,0.0,1.0,1.0,-3.0,1.0,2.0,0.0,1.0,0.11834716796875,-0.1217041015625,0.9732666015625,-0.15460205078125,0.18115234375,-0.26953125,0.9208984375,-0.625,-1.3125,2.5
1.1849999999999967,1.0,1.0,-4.0,-7.0,-5.0,1.0,-1.0,0.0,0.1187744140625,-0.1224365234375,0.97314453125,-0.15447998046875,0.18408203125,-0.283203125,0.93505859375,-3.9375,-2.1875,-0.5
1.1899999999999966,1.0,1.0,-4.0,-7.0,-5.0,1.0,-1.0,0.0,0.1187744140625,-0.1224365234375,0.97314453125,-0.15447998046875,0.18408203125,-0.283203125,0.93505859375,-3.9375,-2.1875,-0.5
1.1949999999999965,-4.0,-5.0,-4.0,-12.0,4.0,-3.0,-2.0,-1.0,0.1187744140625,-0.1224365234375,0.97314453125,-0.15447998046875,0.18408203125,-0.283203125,0.93505859375,-3.9375,-2.1875,-0.5
1.1999999999999964,-4.0,-5.0,-4.0,-12.0,4.0,-3.0,-2.0,-1.0,0.1187744140625,-0.1224365234375,0.97314453125,-0.15447998046875,0.18408203125,-0.283203125,0.93505859375,-3.9375,-2.1875,-0.5
1.2049999999999963,0.0,1.0,5.0,0.0,-6.0,-3.0,-1.0,-1.0,0.1190185546875,-0.122802734375,0.9730224609375,-0.154541015625,0.18310546875,-0.3056640625,0.96142578125,-0.875,-2.25,-0.1875
1.2099999999999962,0.0,1.0,5.0,0.0,-6.0,-3.0,-1.0,-1.0,0.1190185546875,-0.122802734375,0.9730224609375,-0.154541015625,0.18310546875,-0.3056640625,0.96142578125,-0.875,-2.25,-0.1875
1.214999999999996,0.0,1.0,5.0,0.0,-6.0,-3.0,-1.0,-1.0,0.1190185546875,-0.122802734375,0.9730224609375,-0.154541015625,0.18310546875,-0.3056640625,0.96142578125,-0.875,-2.25,-0.1875
1.219999999999996,0.0,-6.0,-9.0,0.0,3.0,3.0,-1.0,-2.0,0.1190185546875,-0.122802734375,0.9730224609375,-0.154541015625,0.18310546875,-0.3056640625,0.96142578125,-0.875,-2.25,-0.1875
1.2249999999999959,0.0,-6.0,-9.0,0.0,3.0,3.0,-1.0,-2.0,0.1190185546875,-0.122802734375,0.9730224609375,-0.154541015625,0.18310546875,-0.3056640625,0.96142578125,-0.875,-2.25,-0.1875
1.2299999999999958,0.0,-6.0,-9.0,0.0,3.0,3.0,-1.0,-2.0,0.1192626953125,-0.12249755859375,0.97296142578125,-0.15496826171875,0.19921875,-0.294921875,0.95458984375,2.5625,-1.6875,1.8125
1.2349999999999957,-1.0,-3.0,-14.0,-32.0,-11.0,-5.0,-3.0,-2.0,0.1192626953125,-0.12249755859375,0.97296142578125,-0.15496826171875,0.19921875,-0.294921875,0.95458984375,2.5625,-1.6875,1.8125
1.2399999999999956,5.0,6.0,4.0,23.0,5.0,1.0,1.0,1.0,0.1192626953125,-0.12249755859375,0.97296142578125,-0.15496826171875,0.19921875,-0.294921875,0.95458984375,2.5625,-1.6875,1.8125
1.2449999999999954,5.0,6.0,4.0,23.0,5.0,1.0,1.0,1.0,0.1192626953125,-0.12249755859375,0.97296142578125,-0.15496826171875,0.19921875,-0.294921875,0.95458984375,2.5625,-1.6875,1.8125
1.2499999999999953,1.0,2.0,5.0,6.0,12.0,2.0,2.0,0.0,0.11932373046875,-0.12200927734375,0.97296142578125,-0.15557861328125,0.20263671875,-0.27587890625,0.95556640625,3.0,-1.0,3.125
1.2549999999999952,1.0,2.0,5.0,6.0,12.0,2.0,2.0,0.0,0.11932373046875,-0.12200927734375,0.97296142578125,-0.15557861328125,0.20263671875,-0.27587890625,0.95556640625,3.0,-1.0,3.125
1.2599999999999951,1.0,2.0,5.0,6.0,12.0,2.0,2.0,0.0,0.11932373046875,-0.12200927734375,0.97296142578125,-0.15557861328125,0.20263671875,-0.27587890625,0.95556640625,3.0,-1.0,3.125
1.264999999999995,1.0,2.0,5.0,6.0,12.0,2.0,2.0,0.0,0.11932373046875,-0.12200927734375,0.97296142578125,-0.15557861328125,0.20263671875,-0.27587890625,0.95556640625,3.0,-1.0,3.125
1.269999999999995,3.0,4.0,-5.0,-24.0,-11.0,-1.0,0.0,3.0,0.11932373046875,-0.12200927734375,0.97296142578125,-0.15557861328125,0.20263671875,-0.27587890625,0.95556640625,3.0,-1.0,3.125
1.2749999999999948,3.0,4.0,-5.0,-24.0,-11.0,-1.0,0.0,3.0,0.11932373046875,-0.12200927734375,0.97296142578125,-0.15557861328125,0.20263671875,-0.27587890625,0.95556640625,3.0,-1.0,3.125
1.2799999999999947,-2.0,0.0,-3.0,3.0,-2.0,-2.0,-2.0,-1.0,0.11944580078125,-0.12176513671875,0.972900390625,-0.156005859375,0.19189453125,-0.2685546875,0.9375,1.125,-1.1875,2.4375
1.2849999999999946,-2.0,0.0,-3.0,3.0,-2.0,-2.0,-2.0,-1.0,0.11944580078125,-0.12176513671875,0.972900390625,-0.156005859375,0.19189453125,-0.2685546875,0.9375,1.125,-1.1875,2.4375
1.2899999999999945,-2.0,0.0,-3.0,3.0,-2.0,-2.0,-2.0,-1.0,0.11944580078125,-0.12176513671875,0.972900390625,-0.156005859375,0.19189453125,-0.2685546875,0.9375,1.125,-1.1875,2.4375
1.2949999999999944,-2.0,0.0,-3.0,3.0,-2.0,-2.0,-2.0,-1.0,0.11944580078125,-0.12176513671875,0.972900390625,-0.156005859375,0.19189453125,-0.2685546875,0.9375,1.125,-1.1875,2.4375
1.2999999999999943,-3.0,-1.0,3.0,4.0,4.0,-2.0,-3.0,-2.0,0.11944580078125,-0.12176513671875,0.972900390625,-0.156005859375,0.19189453125,-0.2685546875,0.9375,1.125,-1.1875,2.4375
1.3049999999999942,-3.0,-1.0,3.0,4.0,4.0,-2.0,-3.0,-2.0,0.11944580078125,-0.12176513671875,0.972900390625,-0.156005859375,0.19189453125,-0.2685546875,0.9375,1.125,-1.1875,2.4375
1.309999999999994,-1.0,0.0,-5.0,-4.0,0.0,0.0,2.0,0.0,0.11962890625,-0.12176513671875,0.97283935546875,-0.15606689453125,0.18798828125,-0.26708984375,0.93212890625,-0.4375,-1.5,-0.0625
1.314999999999994,4.0,2.0,0.0,0.0,-9.0,-4.0,0.0,0.0,0.11962890625,-0.12176513671875,0.97283935546875,-0.15606689453125,0.18798828125,-0.26708984375,0.93212890625,-0.4375,-1.5,-0.0625
1.3199999999999938,4.0,2.0,0.0,0.0,-9.0,-4.0,0.0,0.0,0.11962890625,-0.12176513671875,0.97283935546875,-0.15606689453125,0.18798828125,-0.26708984375,0.93212890625,-0.4375,-1.5,-0.0625
1.3249999999999937,4.0,2.0,0.0,0.0,-9.0,-4.0,0.0,0.0,0.11962890625,-0.12176513671875,0.97283935546875,-0.15606689453125,0.19482421875,-0.2763671875,0.95263671875,-0.9375,-0.3125,-0.625
1.3299999999999936,-4.0,-4.0,0.0,-4.0,-3.0,-1.0,-2.0,0.0,0.11962890625,-0.12176513671875,0.97283935546875,-0.15606689453125,0.19482421875,-0.2763671875,0.95263671875,-0.9375,-0.3125,-0.625
1.3349999999999935,-4.0,-4.0,0.0,-4.0,-3.0,-1.0,-2.0,0.0,0.11962890625,-0.12176513671875,0.97283935546875,-0.15606689453125,0.19482421875,-0.2763671875,0.95263671875,-0.9375,-0.3125,-0.625
1.3399999999999934,-4.0,-4.0,0.0,-4.0,-3.0,-1.0,-2.0,0.0,0.11962890625,-0.12176513671875,0.97283935546875,-0.15606689453125,0.19482421875,-0.2763671875,0.95263671875,-0.9375,-0.3125,-0.625
1.3449999999999933,-4.0,-4.0,0.0,-4.0,-3.0,-1.0,-2.0,0.0,0.11962890625,-0.12176513671875,0.97283935546875,-0.15606689453125,0.19482421875,-0.2763671875,0.95263671875,-0.9375,-0.3125,-0.625
1.3499999999999932,-1.0,2.0,1.0,17.0,1.0,-4.0,-3.0,-3.0,0.11962890625,-0.12176513671875,0.97283935546875,-0.15606689453125,0.19482421875,-0.2763671875,0.95263671875,-0.9375,-0.3125,-0.625
1.354999999999993,-1.0,2.0,1.0,17.0,1.0,-4.0,-3.0,-3.0,0.11962890625,-0.12176513671875,0.97283935546875,-0.15606689453125,0.19482421875,-0.2763671875,0.95263671875,-0.9375,-0.3125,-0.625
1.359999999999993,0.0,-2.0,-2.0,6.0,-4.0,-2.0,-1.0,-3.0,0.11956787109375,-0.1217041015625,0.97283935546875,-0.15618896484375,0.19970703125,-0.29150390625,0.95263671875,1.375,0.125,0.75
1.3649999999999929,0.0,-2.0,-2.0,6.0,-4.0,-2.0,-1.0,-3.0,0.11956787109375,-0.1217041015625,0.97283935546875,-0.15618896484375,0.19970703125,-0.29150390625,0.95263671875,1.375,0.125,0.75
1.3699999999999928,0.0,-2.0,-2.0,6.0,-4.0,-2.0,-1.0,-3.0,0.11956787109375,-0.1217041015625,0.97283935546875,-0.15618896484375,0.19970703125,-0.29150390625,0.95263671875,1.375,0.125,0.75
1.3749999999999927,-1.0,-1.0,6.0,5.0,13.0,3.0,0.0,2.0,0.11956787109375,-0.1217041015625,0.97283935546875,-0.15618896484375,0.19970703125,-0.29150390625,0.95263671875,1.375,0.125,0.75
1.3799999999999926,-1.0,-1.0,6.0,5.0,13.0,3.0,0.0,2.0,0.11956787109375,-0.1217041015625,0.97283935546875,-0.15618896484375,0.19970703125,-0.29150390625,0.95263671875,1.375,0.125,0.75
1.3849999999999925,-1.0,-1.0,6.0,5.0,13.0,3.0,0.0,2.0,0.11956787109375,-0.120849609375,0.97283935546875,-0.15673828125,0.20361328125,-0.2734375,0.94384765625,4.8125,-0.625,2.625
1.3899999999999924,-2.0,-4.0,-9.0,-23.0,-24.0,-6.0,-3.0,-2.0,0.11956787109375,-0.120849609375,0.97283935546875,-0.15673828125,0.20361328125,-0.2734375,0.94384765625,4.8125,-0.625,2.625
1.3949999999999922,1.0,3.0,1.0,-10.0,-3.0,-2.0,-1.0,0.0,0.11956787109375,-0.120849609375,0.97283935546875,-0.15673828125,0.20361328125,-0.2734375,0.94384765625,4.8125,-0.625,2.625
1.3999999999999921,1.0,3.0,1.0,-10.0,-3.0,-2.0,-1.0,0.0,0.11956787109375,-0.120849609375,0.97283935546875,-0.15673828125,0.20361328125,-0.2734375,0.94384765625,4.8125,-0.625,2.625
1.404999999999992,-2.0,-3.0,1.0,3.0,0.0,-1.0,-2.0,0.0,0.11962890625,-0.1199951171875,0.972900390625,-0.15716552734375,0.20068359375,-0.26220703125,0.9365234375,4.625,-0.6875,1.8125
1.409999999999992,-2.0,-3.0,1.0,3.0,0.0,-1.0,-2.0,0.0,0.11962890625,-0.1199951171875,0.972900390625,-0.15716552734375,0.20068359375,-0.26220703125,0.9365234375,4.625,-0.6875,1.8125
1.4149999999999918,-2.0,-3.0,1.0,3.0,0.0,-1.0,-2.0,0.0,0.11962890625,-0.1199951171875,0.972900390625,-0.15716552734375,0.20068359375,-0.26220703125,0.9365234375,4.625,-0.6875,1.8125
1.4199999999999917,-2.0,-3.0,1.0,3.0,0.0,-1.0,-2.0,0.0,0.11962890625,-0.1199951171875,0.972900390625,-0.15716552734375,0.20068359375,-0.26220703125,0.9365234375,4.625,-0.6875,1.8125
1.4249999999999916,-5.0,-9.0,7.0,2.0,9.0,2.0,-2.0,-5.0,0.11962890625,-0.1199951171875,0.972900390625,-0.15716552734375,0.20068359375,-0.26220703125,0.9365234375,4.625,-0.6875,1.8125
1.4299999999999915,-5.0,-9.0,7.0,2.0,9.0,2.0,-2.0,-5.0,0.11962890625,-0.1199951171875,0.972900390625,-0.15716552734375,0.20068359375,-0.26220703125,0.9365234375,4.625,-0.6875,1.8125
1.4349999999999914,1.0,8.0,9.0,9.0,2.0,-2.0,1.0,0.0,0.1197509765625,-0.11944580078125,0.97296142578125,-0.15728759765625,0.18798828125,-0.27587890625,0.943359375,3.4375,-2.0625,-0.25
1.4399999999999913,1.0,8.0,9.0,9.0,2.0,-2.0,1.0,0.0,0.1197509765625,-0.11944580078125,0.97296142578125,-0.15728759765625,0.18798828125,-0.27587890625,0.943359375,3.4375,-2.0625,-0.25
1.4449999999999912,1.0,8.0,9.0,9.0,2.0,-2.0,1.0,0.0,0.1197509765625,-0.11944580078125,0.97296142578125,-0.15728759765625,0.18798828125,-0.27587890625,0.943359375,3.4375,-2.0625,-0.25
1.449999999999991,1.0,8.0,9.0,9.0,2.0,-2.0,1.0,0.0,0.1197509765625,-0.11944580078125,0.97296142578125,-0.15728759765625,0.18798828125,-0.27587890625,0.943359375,3.4375,-2.0625,-0.25
1.454999999999991,-7.0,-7.0,-11.0,-16.0,-9.0,-5.0,-3.0,-2.0,0.1197509765625,-0.11944580078125,0.97296142578125,-0.15728759765625,0.18798828125,-0.27587890625,0.943359375,3.4375,-2.0625,-0.25
1.4599999999999909,-7.0,-7.0,-11.0,-16.0,-9.0,-5.0,-3.0,-2.0,0.1197509765625,-0.11944580078125,0.97296142578125,-0.15728759765625,0.18798828125,-0.27587890625,0.943359375,3.4375,-2.0625,-0.25
1.4649999999999908,-1.0,0.0,-2.0,-4.0,-2.0,0.0,-1.0,0.0,0.11993408203125,-0.118896484375,0.97296142578125,-0.1572265625,0.1982421875,-0.26806640625,0.9404296875,2.8125,-1.3125,-0.5625
1.4699999999999906,-1.0,0.0,-2.0,-4.0,-2.0,0.0,-1.0,0.0,0.11993408203125,-0.118896484375,0.97296142578125,-0.1572265625,0.1982421875,-0.26806640625,0.9404296875,2.8125,-1.3125,-0.5625
1.4749999999999905,3.0,4.0,0.0,-18.0,-4.0,-1.0,1.0,-1.0,0.11993408203125,-0.118896484375,0.97296142578125,-0.1572265625,0.1982421875,-0.26806640625,0.9404296875,2.8125,-1.3125,-0.5625
1.4799999999999904,3.0,4.0,0.0,-18.0,-4.0,-1.0,1.0,-1.0,0.11993408203125,-0.118896484375,0.97296142578125,-0.1572265625,0.1982421875,-0.26806640625,0.9404296875,2.8125,-1.3125,-0.5625
1.4849999999999903,-1.0,-2.0,-2.0,15.0,-4.0,-1.0,-2.0,0.0,0.12005615234375,-0.11834716796875,0.9730224609375,-0.15716552734375,0.205078125,-0.25732421875,0.9462890625,1.9375,-0.5625,-0.5625
1.4899999999999902,-3.0,1.0,4.0,2.0,6.0,0.0,-2.0,-1.0,0.12005615234375,-0.11834716796875,0.9730224609375,-0.15716552734375,0.205078125,-0.25732421875,0.9462890625,1.9375,-0.5625,-0.5625
1.4949999999999901,-3.0,1.0,4.0,2.0,6.0,0.0,-2.0,-1.0,0.12005615234375,-0.11834716796875,0.9730224609375,-0.15716552734375,0.205078125,-0.25732421875,0.9462890625,1.9375,-0.5625,-0.5625
1.49999999999999,-1.0,2.0,-1.0,1.0,-3.0,-1.0,0.0,-2.0,0.12005615234375,-0.11834716796875,0.9730224609375,-0.15716552734375,0.205078125,-0.25732421875,0.9462890625,1.9375,-0.5625,-0.5625
1.50499999999999,-1.0,2.0,-1.0,1.0,-3.0,-1.0,0.0,-2.0,0.12005615234375,-0.11834716796875,0.9730224609375,-0.15716552734375,0.205078125,-0.25732421875,0.9462890625,1.9375,-0.5625,-0.5625
1.5099999999999898,1.0,-2.0,-1.0,-4.0,9.0,3.0,0.0,0.0,0.1202392578125,-0.11822509765625,0.9730224609375,-0.1572265625,0.19482421875,-0.2685546875,0.95361328125,0.625,-1.3125,-0.125
1.5149999999999897,1.0,-2.0,-1.0,-4.0,9.0,3.0,0.0,0.0,0.1202392578125,-0.11822509765625,0.9730224609375,-0.1572265625,0.19482421875,-0.2685546875,0.95361328125,0.625,-1.3125,-0.125
1.5199999999999896,-3.0,0.0,0.0,5.0,-2.0,-3.0,-3.0,-1.0,0.1202392578125,-0.11822509765625,0.9730224609375,-0.1572265625,0.19482421875,-0.2685546875,0.95361328125,0.625,-1.3125,-0.125
1.5249999999999895,-6.0,-6.0,-3.0,0.0,-5.0,-3.0,-1.0,-2.0,0.12054443359375,-0.1182861328125,0.97296142578125,-0.1573486328125,0.19140625,-0.275390625,0.94140625,-0.4375,-2.3125,0.4375
1.5299999999999894,2.0,5.0,3.0,-6.0,-8.0,-2.0,-1.0,-2.0,0.12054443359375,-0.1182861328125,0.97296142578125,-0.1573486328125,0.19140625,-0.275390625,0.94140625,-0.4375,-2.3125,0.4375
1.5349999999999893,-3.0,-5.0,-3.0,1.0,5.0,3.0,1.0,-1.0,0.12054443359375,-0.1182861328125,0.97296142578125,-0.1573486328125,0.19140625,-0.275390625,0.94140625,-0.4375,-2.3125,0.4375
1.5399999999999892,-3.0,-5.0,-3.0,1.0,5.0,3.0,1.0,-1.0,0.12054443359375,-0.1182861328125,0.97296142578125,-0.1573486328125,0.19140625,-0.275390625,0.94140625,-0.4375,-2.3125,0.4375
1.544999999999989,-3.0,-2.0,-1.0,2.0,5.0,-3.0,-3.0,-3.0,0.12060546875,-0.1182861328125,0.972900390625,-0.1575927734375,0.1943359375,-0.27978515625,0.94287109375,1.0625,-0.875,1.125
1.549999999999989,0.0,-1.0,1.0,-3.0,-2.0,-1.0,-2.0,-1.0,0.12060546875,-0.1182861328125,0.972900390625,-0.1575927734375,0.1943359375,-0.27978515625,0.94287109375,1.0625,-0.875,1.125
1.5549999999999888,0.0,-1.0,1.0,-3.0,-2.0,-1.0,-2.0,-1.0,0.12060546875,-0.1182861328125,0.972900390625,-0.1575927734375,0.1943359375,-0.27978515625,0.94287109375,1.0625,-0.875,1.125
1.5599999999999887,0.0,1.0,-2.0,-10.0,-7.0,-2.0,-1.0,-1.0,0.12060546875,-0.1182861328125,0.972900390625,-0.1575927734375,0.1943359375,-0.27978515625,0.94287109375,1.0625,-0.875,1.125
1.5649999999999886,0.0,-4.0,-9.0,12.0,5.0,0.0,-1.0,-2.0,0.1204833984375,-0.11785888671875,0.97296142578125,-0.15765380859375,0.19677734375,-0.28173828125,0.95556640625,3.0625,0.125,-0.125
1.5699999999999885,0.0,-4.0,-9.0,12.0,5.0,0.0,-1.0,-2.0,0.1204833984375,-0.11785888671875,0.97296142578125,-0.15765380859375,0.19677734375,-0.28173828125,0.95556640625,3.0625,0.125,-0.125
1.5749999999999884,0.0,-4.0,-9.0,12.0,5.0,0.0,-1.0,-2.0,0.1204833984375,-0.11785888671875,0.97296142578125,-0.15765380859375,0.19677734375,-0.28173828125,0.95556640625,3.0625,0.125,-0.125
1.5799999999999883,0.0,-4.0,-9.0,12.0,5.0,0.0,-1.0,-2.0,0.1204833984375,-0.11785888671875,0.97296142578125,-0.15765380859375,0.19677734375,-0.28173828125,0.95556640625,3.0625,0.125,-0.125
1.5849999999999882,-1.0,-1.0,4.0,11.0,1.0,0.0,1.0,1.0,0.1204833984375,-0.11785888671875,0.97296142578125,-0.15765380859375,0.19677734375,-0.28173828125,0.95556640625,3.0625,0.125,-0.125
1.589999999999988,-3.0,0.0,-1.0,-15.0,-1.0,-1.0,0.0,0.0,0.120361328125,-0.1173095703125,0.9730224609375,-0.15777587890625,0.19384765625,-0.28466796875,0.9580078125,4.0625,-0.1875,-0.1875
1.594999999999988,-2.0,-2.0,3.0,5.0,2.0,1.0,0.0,-1.0,0.120361328125,-0.1173095703125,0.9730224609375,-0.15777587890625,0.19384765625,-0.28466796875,0.9580078125,4.0625,-0.1875,-0.1875
1.5999999999999879,-2.0,-2.0,3.0,5.0,2.0,1.0,0.0,-1.0,0.120361328125,-0.1173095703125,0.9730224609375,-0.15777587890625,0.19384765625,-0.28466796875,0.9580078125,4.0625,-0.1875,-0.1875
1.6049999999999878,-2.0,-2.0,3.0,5.0,2.0,1.0,0.0,-1.0,0.120361328125,-0.1173095703125,0.9730224609375,-0.15777587890625,0.19384765625,-0.28466796875,0.9580078125,4.0625,-0.1875,-0.1875
1.6099999999999877,-4.0,-4.0,-3.0,-1.0,-2.0,-2.0,-2.0,-3.0,0.12030029296875,-0.1165771484375,0.97314453125,-0.15789794921875,0.203125,-0.26171875,0.9453125,4.0,-0.125,0.3125
1.6149999999999876,-4.0,-4.0,-3.0,-1.0,-2.0,-2.0,-2.0,-3.0,0.12030029296875,-0.1165771484375,0.97314453125,-0.15789794921875,0.203125,-0.26171875,0.9453125,4.0,-0.125,0.3125
1.6199999999999875,2.0,3.0,0.0,-7.0,-5.0,-2.0,-1.0,-1.0,0.12030029296875,-0.1165771484375,0.97314453125,-0.15789794921875,0.203125,-0.26171875,0.9453125,4.0,-0.125,0.3125
1.6249999999999873,2.0,3.0,0.0,-7.0,-5.0,-2.0,-1.0,-1.0,0.12030029296875,-0.1165771484375,0.97314453125,-0.15789794921875,0.203125,-0.26171875,0.9453125,4.0,-0.125,0.3125
1.6299999999999872,2.0,3.0,0.0,-7.0,-5.0,-2.0,-1.0,-1.0,0.12030029296875,-0.1165771484375,0.97314453125,-0.15789794921875,0.203125,-0.26171875,0.9453125,4.0,-0.125,0.3125
1.6349999999999871,1.0,2.0,0.0,9.0,6.0,0.0,0.0,0.0,0.1201171875,-0.115966796875,0.97320556640625,-0.15789794921875,0.19970703125,-0.25244140625,0.95703125,2.875,0.5,-0.25
1.639999999999987,-6.0,-3.0,4.0,1.0,-1.0,0.0,-2.0,0.0,0.1201171875,-0.115966796875,0.97320556640625,-0.15789794921875,0.19970703125,-0.25244140625,0.95703125,2.875,0.5,-0.25
1.644999999999987,-6.0,-3.0,4.0,1.0,-1.0,0.0,-2.0,0.0,0.1201171875,-0.115966796875,0.97320556640625,-0.15789794921875,0.19970703125,-0.25244140625,0.95703125,2.875,0.5,-0.25
1.6499999999999868,4.0,4.0,1.0,-2.0,-5.0,-3.0,-1.0,-1.0,0.1201171875,-0.115966796875,0.97320556640625,-0.15789794921875,0.19970703125,-0.25244140625,0.95703125,2.875,0.5,-0.25
1.6549999999999867,-1.0,-1.0,-1.0,8.0,4.0,0.0,0.0,1.0,0.11993408203125,-0.1163330078125,0.97320556640625,-0.15789794921875,0.1904296875,-0.27734375,0.947265625,-1.125,0.875,0.1875
1.6599999999999866,-1.0,-1.0,-1.0,8.0,4.0,0.0,0.0,1.0,0.11993408203125,-0.1163330078125,0.97320556640625,-0.15789794921875,0.1904296875,-0.27734375,0.947265625,-1.125,0.875,0.1875
1.6649999999999865,-1.0,-1.0,-1.0,8.0,4.0,0.0,0.0,1.0,0.11993408203125,-0.1163330078125,0.97320556640625,-0.15789794921875,0.1904296875,-0.27734375,0.947265625,-1.125,0.875,0.1875
1.6699999999999864,-2.0,-1.0,2.0,-22.0,2.0,1.0,1.0,1.0,0.11993408203125,-0.1163330078125,0.97320556640625,-0.15789794921875,0.1904296875,-0.27734375,0.947265625,-1.125,0.875,0.1875
1.6749999999999863,-3.0,-2.0,-1.0,-2.0,-4.0,-3.0,0.0,-1.0,0.119873046875,-0.11712646484375,0.97314453125,-0.1578369140625,0.2001953125,-0.27880859375,0.93994140625,-3.625,1.3125,0.1875
1.6799999999999862,-3.0,-2.0,-1.0,-2.0,-4.0,-3.0,0.0,-1.0,0.119873046875,-0.11712646484375,0.97314453125,-0.1578369140625,0.2001953125,-0.27880859375,0.93994140625,-3.625,1.3125,0.1875
1.684999999999986,2.0,1.0,-3.0,7.0,5.0,1.0,1.0,1.0,0.119873046875,-0.11712646484375,0.97314453125,-0.1578369140625,0.2001953125,-0.27880859375,0.93994140625,-3.625,1.3125,0.1875
1.689999999999986,0.0,-1.0,-5.0,-33.0,-5.0,-3.0,-1.0,-3.0,0.119873046875,-0.1177978515625,0.97308349609375,-0.1575927734375,0.2080078125,-0.25830078125,0.93994140625,-4.5625,1.375,-0.5625
1.6949999999999859,-4.0,-5.0,-3.0,-1.0,-6.0,-4.0,-3.0,-2.0,0.119873046875,-0.1177978515625,0.97308349609375,-0.1575927734375,0.2080078125,-0.25830078125,0.93994140625,-4.5625,1.375,-0.5625
1.6999999999999857,-4.0,-5.0,-3.0,-1.0,-6.0,-4.0,-3.0,-2.0,0.119873046875,-0.1177978515625,0.97308349609375,-0.1575927734375,0.2080078125,-0.25830078125,0.93994140625,-4.5625,1.375,-0.5625
1.7049999999999856,2.0,3.0,0.0,-3.0,-1.0,-2.0,-1.0,0.0,0.119873046875,-0.1177978515625,0.97308349609375,-0.1575927734375,0.2080078125,-0.25830078125,0.93994140625,-4.5625,1.375,-0.5625
1.7099999999999855,-5.0,-8.0,-13.0,-10.0,0.0,0.0,0.0,-3.0,0.119873046875,-0.118896484375,0.9730224609375,-0.1572265625,0.1923828125,-0.27197265625,0.95654296875,-6.625,0.9375,-1.5
1.7149999999999854,-5.0,-8.0,-13.0,-10.0,0.0,0.0,0.0,-3.0,0.119873046875,-0.118896484375,0.9730224609375,-0.1572265625,0.1923828125,-0.27197265625,0.95654296875,-6.625,0.9375,-1.5
1.7199999999999853,-5.0,-8.0,-13.0,-10.0,0.0,0.0,0.0,-3.0,0.119873046875,-0.118896484375,0.9730224609375,-0.1572265625,0.1923828125,-0.27197265625,0.95654296875,-6.625,0.9375,-1.5
1.7249999999999852,-5.0,-8.0,-13.0,-10.0,0.0,0.0,0.0,-3.0,0.119873046875,-0.118896484375,0.9730224609375,-0.1572265625,0.1923828125,-0.27197265625,0.95654296875,-6.625,0.9375,-1.5
1.729999999999985,3.0,4.0,-7.0,-10.0,-4.0,-2.0,-1.0,-2.0,0.1197509765625,-0.1202392578125,0.97283935546875,-0.1572265625,0.18408203125,-0.29345703125,0.9462890625,-6.3125,0.75,0.875
1.734999999999985,3.0,4.0,-7.0,-10.0,-4.0,-2.0,-1.0,-2.0,0.1197509765625,-0.1202392578125,0.97283935546875,-0.1572265625,0.18408203125,-0.29345703125,0.9462890625,-6.3125,0.75,0.875
1.739999999999985,-1.0,-1.0,-14.0,-5.0,0.0,0.0,0.0,-2.0,0.1197509765625,-0.1202392578125,0.97283935546875,-0.1572265625,0.18408203125,-0.29345703125,0.9462890625,-6.3125,0.75,0.875
1.7449999999999848,-1.0,-1.0,-14.0,-5.0,0.0,0.0,0.0,-2.0,0.1197509765625,-0.1202392578125,0.97283935546875,-0.1572265625,0.18408203125,-0.29345703125,0.9462890625,-6.3125,0.75,0.875
1.7499999999999847,-2.0,-1.0,5.0,-1.0,-2.0,-1.0,0.0,0.0,0.11968994140625,-0.12054443359375,0.9727783203125,-0.15753173828125,0.1982421875,-0.2900390625,0.9453125,-0.125,0.6875,1.8125
1.7549999999999846,-2.0,-1.0,5.0,-1.0,-2.0,-1.0,0.0,0.0,0.11968994140625,-0.12054443359375,0.9727783203125,-0.15753173828125,0.1982421875,-0.2900390625,0.9453125,-0.125,0.6875,1.8125
1.7599999999999845,-2.0,-1.0,5.0,-1.0,-2.0,-1.0,0.0,0.0,0.11968994140625,-0.12054443359375,0.9727783203125,-0.15753173828125,0.1982421875,-0.2900390625,0.9453125,-0.125,0.6875,1.8125
1.7649999999999844,-2.0,-1.0,4.0,-1.0,4.0,-1.0,1.0,0.0,0.11968994140625,-0.12054443359375,0.9727783203125,-0.15753173828125,0.1982421875,-0.2900390625,0.9453125,-0.125,0.6875,1.8125
1.7699999999999843,-2.0,-1.0,4.0,-1.0,4.0,-1.0,1.0,0.0,0.11968994140625,-0.12054443359375,0.9727783203125,-0.15753173828125,0.1982421875,-0.2900390625,0.9453125,-0.125,0.6875,1.8125
1.7749999999999841,-2.0,-1.0,4.0,-1.0,4.0,-1.0,1.0,0.0,0.11962890625,-0.11962890625,0.97283935546875,-0.1578369140625,0.20263671875,-0.27734375,0.94140625,5.6875,-0.25,0.875
1.779999999999984,2.0,-1.0,-8.0,-9.0,-2.0,0.0,0.0,-2.0,0.11962890625,-0.11962890625,0.97283935546875,-0.1578369140625,0.20263671875,-0.27734375,0.94140625,5.6875,-0.25,0.875
1.784999999999984,2.0,-1.0,-8.0,-9.0,-2.0,0.0,0.0,-2.0,0.11962890625,-0.11962890625,0.97283935546875,-0.1578369140625,0.20263671875,-0.27734375,0.94140625,5.6875,-0.25,0.875
1.7899999999999838,2.0,-1.0,-8.0,-9.0,-2.0,0.0,0.0,-2.0,0.11962890625,-0.11962890625,0.97283935546875,-0.1578369140625,0.20263671875,-0.27734375,0.94140625,5.6875,-0.25,0.875
1.7949999999999837,-1.0,1.0,3.0,2.0,2.0,-2.0,-2.0,-2.0,0.1195068359375,-0.118408203125,0.97296142578125,-0.1580810546875,0.19384765625,-0.2724609375,0.94189453125,7.375,-0.5625,0.625
1.7999999999999836,-2.0,0.0,5.0,-1.0,-1.0,-3.0,0.0,-3.0,0.1195068359375,-0.118408203125,0.97296142578125,-0.1580810546875,0.19384765625,-0.2724609375,0.94189453125,7.375,-0.5625,0.625
1.8049999999999835,-2.0,0.0,5.0,-1.0,-1.0,-3.0,0.0,-3.0,0.1195068359375,-0.118408203125,0.97296142578125,-0.1580810546875,0.19384765625,-0.2724609375,0.94189453125,7.375,-0.5625,0.625
1.8099999999999834,-2.0,0.0,5.0,-1.0,-1.0,-3.0,0.0,-3.0,0.1195068359375,-0.118408203125,0.97296142578125,-0.1580810546875,0.19384765625,-0.2724609375,0.94189453125,7.375,-0.5625,0.625
1.8149999999999833,-2.0,-1.0,2.0,-5.0,-1.0,3.0,-1.0,-1.0,0.1195068359375,-0.118408203125,0.97296142578125,-0.1580810546875,0.19384765625,-0.2724609375,0.94189453125,7.375,-0.5625,0.625
1.8199999999999832,-2.0,-1.0,2.0,-5.0,-1.0,3.0,-1.0,-1.0,0.1195068359375,-0.118408203125,0.97296142578125,-0.1580810546875,0.19384765625,-0.2724609375,0.94189453125,7.375,-0.5625,0.625
1.824999999999983,-5.0,-4.0,-7.0,-2.0,-4.0,-2.0,-4.0,-3.0,0.11932373046875,-0.11737060546875,0.97308349609375,-0.158447265625,0.19873046875,-0.26123046875,0.9404296875,6.0,0.0,1.3125
1.829999999999983,-5.0,-4.0,-7.0,-2.0,-4.0,-2.0,-4.0,-3.0,0.11932373046875,-0.11737060546875,0.97308349609375,-0.158447265625,0.19873046875,-0.26123046875,0.9404296875,6.0,0.0,1.3125
1.8349999999999829,-5.0,-4.0,-7.0,-2.0,-4.0,-2.0,-4.0,-3.0,0.11932373046875,-0.11737060546875,0.97308349609375,-0.158447265625,0.19873046875,-0.26123046875,0.9404296875,6.0,0.0,1.3125
1.8399999999999828,-5.0,-4.0,-7.0,-2.0,-4.0,-2.0,-4.0,-3.0,0.11932373046875,-0.11737060546875,0.97308349609375,-0.158447265625,0.19873046875,-0.26123046875,0.9404296875,6.0,0.0,1.3125
1.8449999999999827,-3.0,-2.0,3.0,27.0,6.0,-3.0,-1.0,-2.0,0.11932373046875,-0.11737060546875,0.97308349609375,-0.158447265625,0.19873046875,-0.26123046875,0.9404296875,6.0,0.0,1.3125
1.8499999999999825,-3.0,-2.0,3.0,27.0,6.0,-3.0,-1.0,-2.0,0.11932373046875,-0.11737060546875,0.97308349609375,-0.158447265625,0.19873046875,-0.26123046875,0.9404296875,6.0,0.0,1.3125
1.8549999999999824,-1.0,0.0,5.0,6.0,-5.0,1.0,-1.0,1.0,0.119140625,-0.116943359375,0.97308349609375,-0.15863037109375,0.193359375,-0.25244140625,0.94287109375,1.6875,0.5,1.0625
1.8599999999999823,-1.0,0.0,5.0,6.0,-5.0,1.0,-1.0,1.0,0.119140625,-0.116943359375,0.97308349609375,-0.15863037109375,0.193359375,-0.25244140625,0.94287109375,1.6875,0.5,1.0625
1.8649999999999822,-1.0,0.0,5.0,6.0,-5.0,1.0,-1.0,1.0,0.119140625,-0.116943359375,0.97308349609375,-0.15863037109375,0.193359375,-0.25244140625,0.94287109375,1.6875,0.5,1.0625
1.8699999999999821,-1.0,0.0,5.0,6.0,-5.0,1.0,-1.0,1.0,0.119140625,-0.116943359375,0.97308349609375,-0.15863037109375,0.193359375,-0.25244140625,0.94287109375,1.6875,0.5,1.0625
1.874999999999982,1.0,2.0,3.0,-2.0,-2.0,-3.0,-2.0,0.0,0.1192626953125,-0.11761474609375,0.9730224609375,-0.15863037109375,0.1943359375,-0.265625,0.93994140625,-3.8125,-0.125,0.4375
1.879999999999982,1.0,2.0,3.0,-2.0,-2.0,-3.0,-2.0,0.0,0.1192626953125,-0.11761474609375,0.9730224609375,-0.15863037109375,0.1943359375,-0.265625,0.93994140625,-3.8125,-0.125,0.4375
1.8849999999999818,1.0,2.0,3.0,-2.0,-2.0,-3.0,-2.0,0.0,0.1192626953125,-0.11761474609375,0.9730224609375,-0.15863037109375,0.1943359375,-0.265625,0.93994140625,-3.8125,-0.125,0.4375
1.8899999999999817,3.0,-3.0,-9.0,-16.0,-7.0,-2.0,-2.0,-1.0,0.1192626953125,-0.11761474609375,0.9730224609375,-0.15863037109375,0.1943359375,-0.265625,0.93994140625,-3.8125,-0.125,0.4375
1.8949999999999816,3.0,-3.0,-9.0,-16.0,-7.0,-2.0,-2.0,-1.0,0.1192626953125,-0.11761474609375,0.9730224609375,-0.15863037109375,0.1943359375,-0.265625,0.93994140625,-3.8125,-0.125,0.4375
1.8999999999999815,3.0,-3.0,-9.0,-16.0,-7.0,-2.0,-2.0,-1.0,0.1192626953125,-0.11761474609375,0.9730224609375,-0.15863037109375,0.1943359375,-0.265625,0.93994140625,-3.8125,-0.125,0.4375
1.9049999999999814,-5.0,-7.0,-2.0,1.0,0.0,-1.0,0.0,-1.0,0.119384765625,-0.11834716796875,0.972900390625,-0.1585693359375,0.1923828125,-0.271484375,0.9365234375,-4.125,-0.0625,0.125
1.9099999999999813,-5.0,-7.0,-2.0,1.0,0.0,-1.0,0.0,-1.0,0.119384765625,-0.11834716796875,0.972900390625,-0.1585693359375,0.1923828125,-0.271484375,0.9365234375,-4.125,-0.0625,0.125
1.9149999999999812,-5.0,-7.0,-2.0,1.0,0.0,-1.0,0.0,-1.0,0.119384765625,-0.11834716796875,0.972900390625,-0.1585693359375,0.1923828125,-0.271484375,0.9365234375,-4.125,-0.0625,0.125
1.919999999999981,-1.0,-4.0,-6.0,-2.0,-3.0,-1.0,0.0,-1.0,0.119384765625,-0.11834716796875,0.972900390625,-0.1585693359375,0.1923828125,-0.271484375,0.9365234375,-4.125,-0.0625,0.125
1.924999999999981,-1.0,-4.0,-6.0,-2.0,-3.0,-1.0,0.0,-1.0,0.119384765625,-0.11834716796875,0.972900390625,-0.1585693359375,0.1923828125,-0.271484375,0.9365234375,-4.125,-0.0625,0.125
1.9299999999999808,0.0,4.0,1.0,4.0,2.0,0.0,-1.0,0.0,0.11944580078125,-0.11883544921875,0.972900390625,-0.15838623046875,0.197265625,-0.26904296875,0.95166015625,-3.0,0.0625,-0.9375
1.9349999999999807,0.0,4.0,1.0,4.0,2.0,0.0,-1.0,0.0,0.11944580078125,-0.11883544921875,0.972900390625,-0.15838623046875,0.197265625,-0.26904296875,0.95166015625,-3.0,0.0625,-0.9375
1.9399999999999806,0.0,4.0,1.0,4.0,2.0,0.0,-1.0,0.0,0.11944580078125,-0.11883544921875,0.972900390625,-0.15838623046875,0.197265625,-0.26904296875,0.95166015625,-3.0,0.0625,-0.9375
1.9449999999999805,0.0,4.0,1.0,4.0,2.0,0.0,-1.0,0.0,0.11944580078125,-0.11883544921875,0.972900390625,-0.15838623046875,0.197265625,-0.26904296875,0.95166015625,-3.0,0.0625,-0.9375
1.9499999999999804,0.0,-1.0,1.0,-8.0,-5.0,0.0,-2.0,-1.0,0.11944580078125,-0.11883544921875,0.972900390625,-0.15838623046875,0.197265625,-0.26904296875,0.95166015625,-3.0,0.0625,-0.9375
1.9549999999999803,0.0,-1.0,1.0,-8.0,-5.0,0.0,-2.0,-1.0,0.11944580078125,-0.11883544921875,0.972900390625,-0.15838623046875,0.197265625,-0.26904296875,0.95166015625,-3.0,0.0625,-0.9375
1.9599999999999802,-1.0,0.0,4.0,-3.0,5.0,2.0,0.0,-1.0,0.11944580078125,-0.1192626953125,0.97283935546875,-0.15814208984375,0.18408203125,-0.29296875,0.95654296875,-1.625,-0.25,-1.375
1.96499999999998,-1.0,0.0,4.0,-3.0,5.0,2.0,0.0,-1.0,0.11944580078125,-0.1192626953125,0.97283935546875,-0.15814208984375,0.18408203125,-0.29296875,0.95654296875,-1.625,-0.25,-1.375
1.96999999999998,-1.0,0.0,3.0,3.0,2.0,0.0,1.0,-1.0,0.11944580078125,-0.1192626953125,0.97283935546875,-0.15814208984375,0.18408203125,-0.29296875,0.95654296875,-1.625,-0.25,-1.375
1.9749999999999799,-1.0,0.0,3.0,3.0,2.0,0.0,1.0,-1.0,0.11944580078125,-0.1192626953125,0.97283935546875,-0.15814208984375,0.18408203125,-0.29296875,0.95654296875,-1.625,-0.25,-1.375
1.9799999999999798,-1.0,-2.0,-7.0,-3.0,-1.0,-1.0,-1.0,-1.0,0.119384765625,-0.11907958984375,0.972900390625,-0.15814208984375,0.19482421875,-0.29052734375,0.95166015625,2.5625,0.0,-0.6875
1.9849999999999797,-1.0,-2.0,-7.0,-3.0,-1.0,-1.0,-1.0,-1.0,0.119384765625,-0.11907958984375,0.972900390625,-0.15814208984375,0.19482421875,-0.29052734375,0.95166015625,2.5625,0.0,-0.6875
1.9899999999999796,-1.0,-2.0,-7.0,-3.0,-1.0,-1.0,-1.0,-1.0,0.119384765625,-0.11907958984375,0.972900390625,-0.15814208984375,0.19482421875,-0.29052734375,0.95166015625,2.5625,0.0,-0.6875
1.9949999999999795,-1.0,-2.0,-7.0,-3.0,-1.0,-1.0,-1.0,-1.0,0.119384765625,-0.11907958984375,0.972900390625,-0.15814208984375,0.19482421875,-0.29052734375,0.95166015625,2.5625,0.0,-0.6875
1.9999999999999793,1.0,-1.0,11.0,14.0,14.0,1.0,-1.0,-1.0,0.119384765625,-0.11907958984375,0.972900390625,-0.15814208984375,0.19482421875,-0.29052734375,0.95166015625,2.5625,0.0,-0.6875
2.0049999999999795,1.0,-1.0,11.0,14.0,14.0,1.0,-1.0,-1.0,0.119384765625,-0.11907958984375,0.972900390625,-0.15814208984375,0.19482421875,-0.29052734375,0.95166015625,2.5625,0.0,-0.6875
2.0099999999999794,1.0,1.0,4.0,-13.0,-7.0,-2.0,-1.0,-1.0,0.1192626953125,-0.11785888671875,0.9730224609375,-0.15814208984375,0.205078125,-0.26220703125,0.94287109375,6.4375,0.0625,-0.625
2.0149999999999793,1.0,1.0,4.0,-13.0,-7.0,-2.0,-1.0,-1.0,0.1192626953125,-0.11785888671875,0.9730224609375,-0.15814208984375,0.205078125,-0.26220703125,0.94287109375,6.4375,0.0625,-0.625
2.019999999999979,1.0,1.0,4.0,-13.0,-7.0,-2.0,-1.0,-1.0,0.1192626953125,-0.11785888671875,0.9730224609375,-0.15814208984375,0.205078125,-0.26220703125,0.94287109375,6.4375,0.0625,-0.625
2.024999999999979,1.0,1.0,4.0,-13.0,-7.0,-2.0,-1.0,-1.0,0.1192626953125,-0.11785888671875,0.9730224609375,-0.15814208984375,0.205078125,-0.26220703125,0.94287109375,6.4375,0.0625,-0.625
2.029999999999979,-2.0,0.0,-6.0,-1.0,-3.0,-3.0,-2.0,-1.0,0.11920166015625,-0.11669921875,0.97320556640625,-0.157958984375,0.197265625,-0.25634765625,0.9423828125,6.0,-0.0625,-1.5
2.034999999999979,-2.0,0.0,-6.0,-1.0,-3.0,-3.0,-2.0,-1.0,0.11920166015625,-0.11669921875,0.97320556640625,-0.157958984375,0.197265625,-0.25634765625,0.9423828125,6.0,-0.0625,-1.5
2.0399999999999787,-2.0,0.0,-6.0,-1.0,-3.0,-3.0,-2.0,-1.0,0.11920166015625,-0.11669921875,0.97320556640625,-0.157958984375,0.197265625,-0.25634765625,0.9423828125,6.0,-0.0625,-1.5
2.0449999999999786,-1.0,-2.0,-8.0,-20.0,-8.0,-2.0,-2.0,-1.0,0.11920166015625,-0.11669921875,0.97320556640625,-0.157958984375,0.197265625,-0.25634765625,0.9423828125,6.0,-0.0625,-1.5
2.0499999999999785,-1.0,-2.0,-8.0,-20.0,-8.0,-2.0,-2.0,-1.0,0.11920166015625,-0.11669921875,0.97320556640625,-0.157958984375,0.197265625,-0.25634765625,0.9423828125,6.0,-0.0625,-1.5
2.0549999999999784,0.0,-1.0,0.0,2.0,1.0,0.0,-1.0,-1.0,0.11907958984375,-0.11639404296875,0.97332763671875,-0.1578369140625,0.18994140625,-0.26513671875,0.9462890625,1.875,-0.125,-1.1875
2.0599999999999783,0.0,-1.0,0.0,2.0,1.0,0.0,-1.0,-1.0,0.11907958984375,-0.11639404296875,0.97332763671875,-0.1578369140625,0.18994140625,-0.26513671875,0.9462890625,1.875,-0.125,-1.1875
2.064999999999978,0.0,-1.0,0.0,2.0,1.0,0.0,-1.0,-1.0,0.11907958984375,-0.11639404296875,0.97332763671875,-0.1578369140625,0.18994140625,-0.26513671875,0.9462890625,1.875,-0.125,-1.1875
2.069999999999978,-2.0,-2.0,0.0,-3.0,-2.0,0.0,-1.0,-1.0,0.11907958984375,-0.11639404296875,0.97332763671875,-0.1578369140625,0.18994140625,-0.26513671875,0.9462890625,1.875,-0.125,-1.1875
2.074999999999978,-2.0,-2.0,0.0,-3.0,-2.0,0.0,-1.0,-1.0,0.11907958984375,-0.11639404296875,0.97332763671875,-0.1578369140625,0.18994140625,-0.26513671875,0.9462890625,1.875,-0.125,-1.1875
2.079999999999978,0.0,0.0,-1.0,1.0,-4.0,-2.0,-2.0,0.0,0.11907958984375,-0.11639404296875,0.97332763671875,-0.1578369140625,0.19677734375,-0.26513671875,0.94580078125,0.625,0.1875,-0.4375
2.0849999999999778,0.0,0.0,-1.0,1.0,-4.0,-2.0,-2.0,0.0,0.11907958984375,-0.11639404296875,0.97332763671875,-0.1578369140625,0.19677734375,-0.26513671875,0.94580078125,0.625,0.1875,-0.4375
2.0899999999999777,0.0,0.0,-1.0,1.0,-4.0,-2.0,-2.0,0.0,0.11907958984375,-0.11639404296875,0.97332763671875,-0.1578369140625,0.19677734375,-0.26513671875,0.94580078125,0.625,0.1875,-0.4375
2.0949999999999775,0.0,-1.0,-1.0,-5.0,-3.0,-1.0,-1.0,0.0,0.1190185546875,-0.11663818359375,0.9732666015625,-0.15777587890625,0.19287109375,-0.2705078125,0.95166015625,-1.3125,0.5,-0.1875
2.0999999999999774,0.0,-1.0,-1.0,-5.0,-3.0,-1.0,-1.0,0.0,0.1190185546875,-0.11663818359375,0.9732666015625,-0.15777587890625,0.19287109375,-0.2705078125,0.95166015625,-1.3125,0.5,-0.1875
2.1049999999999773,0.0,-1.0,-1.0,-5.0,-3.0,-1.0,-1.0,0.0,0.1190185546875,-0.11663818359375,0.9732666015625,-0.15777587890625,0.19287109375,-0.2705078125,0.95166015625,-1.3125,0.5,-0.1875
2.1099999999999772,1.0,0.0,3.0,0.0,-3.0,0.0,-2.0,-2.0,0.1190185546875,-0.11663818359375,0.9732666015625,-0.15777587890625,0.19287109375,-0.2705078125,0.95166015625,-1.3125,0.5,-0.1875
2.114999999999977,1.0,0.0,3.0,0.0,-3.0,0.0,-2.0,-2.0,0.1190185546875,-0.11663818359375,0.9732666015625,-0.15777587890625,0.19287109375,-0.2705078125,0.95166015625,-1.3125,0.5,-0.1875
2.119999999999977,-1.0,3.0,2.0,-4.0,-1.0,0.0,0.0,-1.0,0.1187744140625,-0.11737060546875,0.97320556640625,-0.15789794921875,0.1806640625,-0.28466796875,0.951171875,-2.9375,0.625,0.8125
2.124999999999977,-1.0,3.0,2.0,-4.0,-1.0,0.0,0.0,-1.0,0.1187744140625,-0.11737060546875,0.97320556640625,-0.15789794921875,0.1806640625,-0.28466796875,0.951171875,-2.9375,0.625,0.8125
2.129999999999977,1.0,-1.0,-5.0,-7.0,-3.0,0.0,-2.0,1.0,0.1187744140625,-0.11737060546875,0.97320556640625,-0.15789794921875,0.1806640625,-0.28466796875,0.951171875,-2.9375,0.625,0.8125
2.1349999999999767,1.0,-1.0,-5.0,-7.0,-3.0,0.0,-2.0,1.0,0.1187744140625,-0.11737060546875,0.97320556640625,-0.15789794921875,0.1806640625,-0.28466796875,0.951171875,-2.9375,0.625,0.8125
2.1399999999999766,-1.0,-1.0,-2.0,0.0,1.0,-1.0,-1.0,-1.0,0.11883544921875,-0.11785888671875,0.97314453125,-0.15802001953125,0.1982421875,-0.2744140625,0.9423828125,-2.125,0.5,1.0
2.1449999999999765,-1.0,-1.0,-2.0,0.0,1.0,-1.0,-1.0,-1.0,0.11883544921875,-0.11785888671875,0.97314453125,-0.15802001953125,0.1982421875,-0.2744140625,0.9423828125,-2.125,0.5,1.0
2.1499999999999764,-1.0,-1.0,-2.0,0.0,1.0,-1.0,-1.0,-1.0,0.11883544921875,-0.11785888671875,0.97314453125,-0.15802001953125,0.1982421875,-0.2744140625,0.9423828125,-2.125,0.5,1.0
2.1549999999999763,-1.0,-1.0,-2.0,0.0,1.0,-1.0,-1.0,-1.0,0.11883544921875,-0.11785888671875,0.97314453125,-0.15802001953125,0.1982421875,-0.2744140625,0.9423828125,-2.125,0.5,1.0
2.159999999999976,-2.0,2.0,-1.0,4.0,4.0,-1.0,-1.0,-1.0,0.11883544921875,-0.11785888671875,0.97314453125,-0.15802001953125,0.1982421875,-0.2744140625,0.9423828125,-2.125,0.5,1.0
2.164999999999976,-4.0,-2.0,-11.0,-8.0,-3.0,-2.0,-1.0,-2.0,0.11883544921875,-0.11785888671875,0.97314453125,-0.15802001953125,0.2021484375,-0.27490234375,0.94970703125,0.1875,-0.0625,-0.3125
2.169999999999976,-4.0,-2.0,-11.0,-8.0,-3.0,-2.0,-1.0,-2.0,0.11883544921875,-0.11785888671875,0.97314453125,-0.15802001953125,0.2021484375,-0.27490234375,0.94970703125,0.1875,-0.0625,-0.3125
2.174999999999976,1.0,6.0,-1.0,-2.0,-3.0,-1.0,1.0,-1.0,0.11883544921875,-0.11785888671875,0.97314453125,-0.15802001953125,0.2021484375,-0.27490234375,0.94970703125,0.1875,-0.0625,-0.3125
2.1799999999999757,1.0,6.0,-1.0,-2.0,-3.0,-1.0,1.0,-1.0,0.11883544921875,-0.11785888671875,0.97314453125,-0.15802001953125,0.2021484375,-0.27490234375,0.94970703125,0.1875,-0.0625,-0.3125
2.1849999999999756,-13.0,-16.0,-6.0,-3.0,0.0,-1.0,-3.0,-4.0,0.11883544921875,-0.11773681640625,0.97314453125,-0.15802001953125,0.19873046875,-0.2744140625,0.95654296875,1.125,-0.0625,-0.125
2.1899999999999755,-13.0,-16.0,-6.0,-3.0,0.0,-1.0,-3.0,-4.0,0.11883544921875,-0.11773681640625,0.97314453125,-0.15802001953125,0.19873046875,-0.2744140625,0.95654296875,1.125,-0.0625,-0.125
2.1949999999999754,-13.0,-16.0,-6.0,-3.0,0.0,-1.0,-3.0,-4.0,0.11883544921875,-0.11773681640625,0.97314453125,-0.15802001953125,0.19873046875,-0.2744140625,0.95654296875,1.125,-0.0625,-0.125
2.1999999999999753,-2.0,-5.0,-5.0,-2.0,-3.0,0.0,-2.0,-1.0,0.11883544921875,-0.11773681640625,0.97314453125,-0.15802001953125,0.19873046875,-0.2744140625,0.95654296875,1.125,-0.0625,-0.125
2.204999999999975,-2.0,-5.0,-5.0,-2.0,-3.0,0.0,-2.0,-1.0,0.11883544921875,-0.11773681640625,0.97314453125,-0.15802001953125,0.19873046875,-0.2744140625,0.95654296875,1.125,-0.0625,-0.125
2.209999999999975,5.0,6.0,1.0,9.0,6.0,2.0,0.0,1.0,0.11871337890625,-0.11737060546875,0.97314453125,-0.15826416015625,0.1943359375,-0.26806640625,0.95703125,2.0,-0.0625,1.25
2.214999999999975,5.0,6.0,1.0,9.0,6.0,2.0,0.0,1.0,0.11871337890625,-0.11737060546875,0.97314453125,-0.15826416015625,0.1943359375,-0.26806640625,0.95703125,2.0,-0.0625,1.25
2.219999999999975,5.0,6.0,1.0,9.0,6.0,2.0,0.0,1.0,0.11871337890625,-0.11737060546875,0.97314453125,-0.15826416015625,0.1943359375,-0.26806640625,0.95703125,2.0,-0.0625,1.25
2.2249999999999748,-2.0,-3.0,-6.0,1.0,-1.0,-1.0,-2.0,-1.0,0.11871337890625,-0.11700439453125,0.97314453125,-0.15863037109375,0.208984375,-0.2578125,0.9482421875,1.5625,0.25,2.125
2.2299999999999747,0.0,0.0,13.0,6.0,6.0,1.0,1.0,1.0,0.11871337890625,-0.11700439453125,0.97314453125,-0.15863037109375,0.208984375,-0.2578125,0.9482421875,1.5625,0.25,2.125
2.2349999999999746,1.0,-1.0,1.0,-6.0,-3.0,-3.0,-1.0,-1.0,0.11871337890625,-0.11700439453125,0.97314453125,-0.15863037109375,0.208984375,-0.2578125,0.9482421875,1.5625,0.25,2.125
2.2399999999999745,1.0,-1.0,1.0,-6.0,-3.0,-3.0,-1.0,-1.0,0.11871337890625,-0.11700439453125,0.97314453125,-0.15863037109375,0.208984375,-0.2578125,0.9482421875,1.5625,0.25,2.125
2.2449999999999743,-2.0,-3.0,2.0,13.0,2.0,-3.0,-1.0,-3.0,0.11865234375,-0.11712646484375,0.97308349609375,-0.15887451171875,0.19970703125,-0.25634765625,0.9521484375,-1.0625,0.5625,1.6875
2.2499999999999742,-2.0,-3.0,2.0,13.0,2.0,-3.0,-1.0,-3.0,0.11865234375,-0.11712646484375,0.97308349609375,-0.15887451171875,0.19970703125,-0.25634765625,0.9521484375,-1.0625,0.5625,1.6875
2.254999999999974,-2.0,-3.0,2.0,13.0,2.0,-3.0,-1.0,-3.0,0.11865234375,-0.11712646484375,0.97308349609375,-0.15887451171875,0.19970703125,-0.25634765625,0.9521484375,-1.0625,0.5625,1.6875
2.259999999999974,-5.0,-4.0,10.0,2.0,1.0,-1.0,-1.0,-2.0,0.11865234375,-0.11712646484375,0.97308349609375,-0.15887451171875,0.19970703125,-0.25634765625,0.9521484375,-1.0625,0.5625,1.6875
2.264999999999974,-5.0,-4.0,10.0,2.0,1.0,-1.0,-1.0,-2.0,0.11865234375,-0.11712646484375,0.97308349609375,-0.15887451171875,0.19970703125,-0.25634765625,0.9521484375,-1.0625,0.5625,1.6875
2.269999999999974,-2.0,0.0,1.0,-4.0,-4.0,-2.0,-2.0,-1.0,0.11846923828125,-0.11761474609375,0.9730224609375,-0.15911865234375,0.185546875,-0.26416015625,0.94970703125,-3.125,0.5625,1.5625
2.2749999999999737,-2.0,0.0,1.0,-4.0,-4.0,-2.0,-2.0,-1.0,0.11846923828125,-0.11761474609375,0.9730224609375,-0.15911865234375,0.185546875,-0.26416015625,0.94970703125,-3.125,0.5625,1.5625
2.2799999999999736,-2.0,0.0,1.0,-4.0,-4.0,-2.0,-2.0,-1.0,0.11846923828125,-0.11761474609375,0.9730224609375,-0.15911865234375,0.185546875,-0.26416015625,0.94970703125,-3.125,0.5625,1.5625
2.2849999999999735,-2.0,0.0,1.0,-4.0,-4.0,-2.0,-2.0,-1.0,0.11846923828125,-0.11761474609375,0.9730224609375,-0.15911865234375,0.185546875,-0.26416015625,0.94970703125,-3.125,0.5625,1.5625
2.2899999999999734,-1.0,2.0,3.0,-3.0,-4.0,0.0,-2.0,-2.0,0.11834716796875,-0.1181640625,0.97296142578125,-0.1593017578125,0.189453125,-0.27490234375,0.95068359375,-2.3125,0.75,1.375
2.2949999999999733,-1.0,2.0,3.0,-3.0,-4.0,0.0,-2.0,-2.0,0.11834716796875,-0.1181640625,0.97296142578125,-0.1593017578125,0.189453125,-0.27490234375,0.95068359375,-2.3125,0.75,1.375
2.299999999999973,0.0,-2.0,-2.0,-1.0,4.0,1.0,0.0,-1.0,0.11834716796875,-0.1181640625,0.97296142578125,-0.1593017578125,0.189453125,-0.27490234375,0.95068359375,-2.3125,0.75,1.375
2.304999999999973,0.0,-2.0,-2.0,-1.0,4.0,1.0,0.0,-1.0,0.11834716796875,-0.1181640625,0.97296142578125,-0.1593017578125,0.189453125,-0.27490234375,0.95068359375,-2.3125,0.75,1.375
2.309999999999973,0.0,-2.0,-2.0,-1.0,4.0,1.0,0.0,-1.0,0.11834716796875,-0.1181640625,0.97296142578125,-0.1593017578125,0.189453125,-0.27490234375,0.95068359375,-2.3125,0.75,1.375
2.314999999999973,0.0,-2.0,-2.0,-1.0,4.0,1.0,0.0,-1.0,0.11810302734375,-0.1182861328125,0.972900390625,-0.15948486328125,0.19189453125,-0.2822265625,0.95166015625,0.1875,1.0625,1.3125
2.3199999999999728,0.0,2.0,5.0,-3.0,-1.0,0.0,1.0,0.0,0.11810302734375,-0.1182861328125,0.972900390625,-0.15948486328125,0.19189453125,-0.2822265625,0.95166015625,0.1875,1.0625,1.3125
2.3249999999999726,0.0,2.0,5.0,-3.0,-1.0,0.0,1.0,0.0,0.11810302734375,-0.1182861328125,0.972900390625,-0.15948486328125,0.19189453125,-0.2822265625,0.95166015625,0.1875,1.0625,1.3125
2.3299999999999725,0.0,2.0,5.0,-3.0,-1.0,0.0,1.0,0.0,0.11810302734375,-0.1182861328125,0.972900390625,-0.15948486328125,0.19189453125,-0.2822265625,0.95166015625,0.1875,1.0625,1.3125
2.3349999999999724,-2.0,0.0,2.0,0.0,1.0,0.0,-1.0,-2.0,0.117919921875,-0.1181640625,0.972900390625,-0.1597900390625,0.18994140625,-0.27880859375,0.94482421875,2.0625,0.75,1.4375
2.3399999999999723,-2.0,0.0,2.0,0.0,1.0,0.0,-1.0,-2.0,0.117919921875,-0.1181640625,0.972900390625,-0.1597900390625,0.18994140625,-0.27880859375,0.94482421875,2.0625,0.75,1.4375
2.344999999999972,-2.0,0.0,2.0,0.0,1.0,0.0,-1.0,-2.0,0.117919921875,-0.1181640625,0.972900390625,-0.1597900390625,0.18994140625,-0.27880859375,0.94482421875,2.0625,0.75,1.4375
2.349999999999972,0.0,0.0,-2.0,-4.0,-1.0,-3.0,-3.0,-2.0,0.11773681640625,-0.11785888671875,0.972900390625,-0.1600341796875,0.189453125,-0.2734375,0.93408203125,2.5625,0.625,1.125
2.354999999999972,0.0,0.0,-2.0,-4.0,-1.0,-3.0,-3.0,-2.0,0.11773681640625,-0.11785888671875,0.972900390625,-0.1600341796875,0.189453125,-0.2734375,0.93408203125,2.5625,0.625,1.125
2.359999999999972,-1.0,0.0,-5.0,-16.0,-9.0,-1.0,0.0,-2.0,0.11773681640625,-0.11785888671875,0.972900390625,-0.1600341796875,0.189453125,-0.2734375,0.93408203125,2.5625,0.625,1.125
2.364999999999972,-1.0,0.0,-5.0,-16.0,-9.0,-1.0,0.0,-2.0,0.11773681640625,-0.11785888671875,0.972900390625,-0.1600341796875,0.189453125,-0.2734375,0.93408203125,2.5625,0.625,1.125
2.3699999999999717,0.0,-2.0,-2.0,12.0,-2.0,-2.0,-2.0,-1.0,0.11773681640625,-0.11785888671875,0.972900390625,-0.1600341796875,0.189453125,-0.2734375,0.93408203125,2.5625,0.625,1.125
2.3749999999999716,0.0,-2.0,-2.0,12.0,-2.0,-2.0,-2.0,-1.0,0.11773681640625,-0.11785888671875,0.972900390625,-0.1600341796875,0.189453125,-0.2734375,0.93408203125,2.5625,0.625,1.125
2.3799999999999715,1.0,0.0,3.0,0.0,-1.0,-2.0,-1.0,1.0,0.11773681640625,-0.11785888671875,0.972900390625,-0.1600341796875,0.19384765625,-0.271484375,0.93798828125,0.875,0.8125,0.125
2.3849999999999714,1.0,0.0,3.0,0.0,-1.0,-2.0,-1.0,1.0,0.11773681640625,-0.11785888671875,0.972900390625,-0.1600341796875,0.19384765625,-0.271484375,0.93798828125,0.875,0.8125,0.125
2.3899999999999713,1.0,0.0,3.0,0.0,-1.0,-2.0,-1.0,1.0,0.11773681640625,-0.11785888671875,0.972900390625,-0.1600341796875,0.19384765625,-0.271484375,0.93798828125,0.875,0.8125,0.125
2.394999999999971,1.0,0.0,3.0,0.0,-1.0,-2.0,-1.0,1.0,0.11773681640625,-0.11785888671875,0.972900390625,-0.1600341796875,0.19384765625,-0.271484375,0.93798828125,0.875,0.8125,0.125
2.399999999999971,-3.0,-5.0,-8.0,-12.0,-6.0,-1.0,-2.0,-1.0,0.11773681640625,-0.11785888671875,0.972900390625,-0.1600341796875,0.19384765625,-0.271484375,0.93798828125,0.875,0.8125,0.125
2.404999999999971,-3.0,-5.0,-8.0,-12.0,-6.0,-1.0,-2.0,-1.0,0.11773681640625,-0.11785888671875,0.972900390625,-0.1600341796875,0.19384765625,-0.271484375,0.93798828125,0.875,0.8125,0.125
2.409999999999971,0.0,3.0,1.0,2.0,3.0,2.0,0.0,0.0,0.11767578125,-0.11798095703125,0.97296142578125,-0.15985107421875,0.19189453125,-0.271484375,0.9384765625,-0.3125,0.6875,-1.0625
2.4149999999999707,0.0,3.0,1.0,2.0,3.0,2.0,0.0,0.0,0.11767578125,-0.11798095703125,0.97296142578125,-0.15985107421875,0.19189453125,-0.271484375,0.9384765625,-0.3125,0.6875,-1.0625
2.4199999999999706,0.0,3.0,1.0,2.0,3.0,2.0,0.0,0.0,0.11767578125,-0.11798095703125,0.97296142578125,-0.15985107421875,0.19189453125,-0.271484375,0.9384765625,-0.3125,0.6875,-1.0625
2.4249999999999705,0.0,3.0,1.0,2.0,3.0,2.0,0.0,0.0,0.11767578125,-0.11798095703125,0.97296142578125,-0.15985107421875,0.19189453125,-0.271484375,0.9384765625,-0.3125,0.6875,-1.0625
2.4299999999999704,0.0,-1.0,1.0,3.0,8.0,1.0,0.0,1.0,0.1175537109375,-0.118408203125,0.97296142578125,-0.15960693359375,0.18408203125,-0.2822265625,0.947265625,-1.625,0.75,-1.375
2.4349999999999703,-2.0,-2.0,3.0,-5.0,-5.0,-4.0,-2.0,-3.0,0.1175537109375,-0.118408203125,0.97296142578125,-0.15960693359375,0.18408203125,-0.2822265625,0.947265625,-1.625,0.75,-1.375
2.43999999999997,-2.0,-2.0,3.0,-5.0,-5.0,-4.0,-2.0,-3.0,0.1175537109375,-0.118408203125,0.97296142578125,-0.15960693359375,0.18408203125,-0.2822265625,0.947265625,-1.625,0.75,-1.375
2.44499999999997,-2.0,-2.0,-6.0,-14.0,-4.0,-2.0,-2.0,-1.0,0.1175537109375,-0.118408203125,0.97296142578125,-0.15960693359375,0.18408203125,-0.2822265625,0.947265625,-1.625,0.75,-1.375
2.44999999999997,-2.0,-2.0,-6.0,-14.0,-4.0,-2.0,-2.0,-1.0,0.1175537109375,-0.118408203125,0.97296142578125,-0.15960693359375,0.18408203125,-0.2822265625,0.947265625,-1.625,0.75,-1.375
2.45499999999997,-2.0,-2.0,-6.0,-14.0,-4.0,-2.0,-2.0,-1.0,0.1175537109375,-0.118408203125,0.97296142578125,-0.15960693359375,0.18408203125,-0.2822265625,0.947265625,-1.625,0.75,-1.375
2.4599999999999698,-1.0,2.0,0.0,5.0,1.0,-2.0,-1.0,0.0,0.11749267578125,-0.11859130859375,0.97296142578125,-0.1593017578125,0.19482421875,-0.2724609375,0.9423828125,-1.0625,0.875,-1.5625
2.4649999999999697,-1.0,2.0,0.0,5.0,1.0,-2.0,-1.0,0.0,0.11749267578125,-0.11859130859375,0.97296142578125,-0.1593017578125,0.19482421875,-0.2724609375,0.9423828125,-1.0625,0.875,-1.5625
2.4699999999999696,-1.0,2.0,0.0,5.0,1.0,-2.0,-1.0,0.0,0.11749267578125,-0.11859130859375,0.97296142578125,-0.1593017578125,0.19482421875,-0.2724609375,0.9423828125,-1.0625,0.875,-1.5625
2.4749999999999694,-3.0,-5.0,0.0,0.0,0.0,-2.0,-2.0,-4.0,0.11749267578125,-0.11859130859375,0.97296142578125,-0.1593017578125,0.19482421875,-0.2724609375,0.9423828125,-1.0625,0.875,-1.5625
2.4799999999999693,-3.0,-5.0,0.0,0.0,0.0,-2.0,-2.0,-4.0,0.11749267578125,-0.11859130859375,0.97296142578125,-0.1593017578125,0.19482421875,-0.2724609375,0.9423828125,-1.0625,0.875,-1.5625
2.4849999999999692,2.0,2.0,2.0,6.0,4.0,3.0,0.0,1.0,0.11749267578125,-0.11883544921875,0.9730224609375,-0.15899658203125,0.1884765625,-0.27490234375,0.9404296875,-0.9375,0.1875,-1.75
2.489999999999969,2.0,2.0,2.0,6.0,4.0,3.0,0.0,1.0,0.11749267578125,-0.11883544921875,0.9730224609375,-0.15899658203125,0.1884765625,-0.27490234375,0.9404296875,-0.9375,0.1875,-1.75
2.494999999999969,2.0,2.0,2.0,6.0,4.0,3.0,0.0,1.0,0.11749267578125,-0.11883544921875,0.9730224609375,-0.15899658203125,0.1884765625,-0.27490234375,0.9404296875,-0.9375,0.1875,-1.75
2.499999999999969,2.0,2.0,2.0,6.0,4.0,3.0,0.0,1.0,0.11749267578125,-0.11883544921875,0.9730224609375,-0.15899658203125,0.1884765625,-0.27490234375,0.9404296875,-0.9375,0.1875,-1.75
2.504999999999969,2.0,3.0,4.0,2.0,-2.0,-2.0,0.0,0.0,0.11737060546875,-0.118896484375,0.97308349609375,-0.15875244140625,0.17822265625,-0.27294921875,0.947265625,-0.1875,0.0625,-1.5
2.5099999999999687,2.0,3.0,4.0,2.0,-2.0,-2.0,0.0,0.0,0.11737060546875,-0.118896484375,0.97308349609375,-0.15875244140625,0.17822265625,-0.27294921875,0.947265625,-0.1875,0.0625,-1.5
2.5149999999999686,1.0,1.0,-1.0,-2.0,3.0,1.0,-2.0,-2.0,0.11737060546875,-0.118896484375,0.97308349609375,-0.15875244140625,0.17822265625,-0.27294921875,0.947265625,-0.1875,0.0625,-1.5
2.5199999999999685,1.0,1.0,-1.0,-2.0,3.0,1.0,-2.0,-2.0,0.11737060546875,-0.118896484375,0.97308349609375,-0.15875244140625,0.17822265625,-0.27294921875,0.947265625,-0.1875,0.0625,-1.5
2.5249999999999684,1.0,-2.0,-2.0,2.0,-2.0,-2.0,-2.0,0.0,0.11737060546875,-0.118896484375,0.97308349609375,-0.15875244140625,0.17822265625,-0.27294921875,0.947265625,-0.1875,0.0625,-1.5
2.5299999999999683,1.0,-2.0,-2.0,2.0,-2.0,-2.0,-2.0,0.0,0.11737060546875,-0.118896484375,0.97308349609375,-0.15875244140625,0.17822265625,-0.27294921875,0.947265625,-0.1875,0.0625,-1.5
2.534999999999968,-5.0,-8.0,-17.0,-11.0,-2.0,-1.0,0.0,0.0,0.1173095703125,-0.1187744140625,0.97308349609375,-0.15863037109375,0.1806640625,-0.27587890625,0.94580078125,1.1875,-0.25,-1.0
2.539999999999968,-5.0,-8.0,-17.0,-11.0,-2.0,-1.0,0.0,0.0,0.1173095703125,-0.1187744140625,0.97308349609375,-0.15863037109375,0.1806640625,-0.27587890625,0.94580078125,1.1875,-0.25,-1.0
2.544999999999968,-5.0,-8.0,-17.0,-11.0,-2.0,-1.0,0.0,0.0,0.1173095703125,-0.1187744140625,0.97308349609375,-0.15863037109375,0.1806640625,-0.27587890625,0.94580078125,1.1875,-0.25,-1.0
2.549999999999968,-5.0,-8.0,-17.0,-11.0,-2.0,-1.0,0.0,0.0,0.1173095703125,-0.1187744140625,0.97308349609375,-0.15863037109375,0.1806640625,-0.27587890625,0.94580078125,1.1875,-0.25,-1.0
2.5549999999999677,0.0,-2.0,-2.0,0.0,0.0,1.0,0.0,1.0,0.1173095703125,-0.1187744140625,0.97308349609375,-0.15863037109375,0.1806640625,-0.27587890625,0.94580078125,1.1875,-0.25,-1.0
2.5599999999999676,0.0,-2.0,-2.0,0.0,0.0,1.0,0.0,1.0,0.1173095703125,-0.1187744140625,0.97308349609375,-0.15863037109375,0.1806640625,-0.27587890625,0.94580078125,1.1875,-0.25,-1.0
2.5649999999999675,-1.0,2.0,4.0,1.0,-1.0,-2.0,-2.0,0.0,0.1173095703125,-0.1182861328125,0.97314453125,-0.15863037109375,0.18798828125,-0.27685546875,0.94287109375,3.0,-0.625,-0.6875
2.5699999999999674,-1.0,2.0,4.0,1.0,-1.0,-2.0,-2.0,0.0,0.1173095703125,-0.1182861328125,0.97314453125,-0.15863037109375,0.18798828125,-0.27685546875,0.94287109375,3.0,-0.625,-0.6875
2.5749999999999673,-1.0,2.0,4.0,1.0,-1.0,-2.0,-2.0,0.0,0.1173095703125,-0.1182861328125,0.97314453125,-0.15863037109375,0.18798828125,-0.27685546875,0.94287109375,3.0,-0.625,-0.6875
2.579999999999967,-1.0,2.0,4.0,1.0,-1.0,-2.0,-2.0,0.0,0.1173095703125,-0.1182861328125,0.97314453125,-0.15863037109375,0.18798828125,-0.27685546875,0.94287109375,3.0,-0.625,-0.6875
2.584999999999967,1.0,-1.0,-4.0,-3.0,-3.0,-3.0,-2.0,-1.0,0.11749267578125,-0.117919921875,0.97320556640625,-0.1585693359375,0.19677734375,-0.27099609375,0.9482421875,2.1875,-1.0625,-0.6875
2.589999999999967,-2.0,-3.0,0.0,0.0,-1.0,0.0,1.0,-1.0,0.11749267578125,-0.117919921875,0.97320556640625,-0.1585693359375,0.19677734375,-0.27099609375,0.9482421875,2.1875,-1.0625,-0.6875
2.594999999999967,-2.0,-3.0,0.0,0.0,-1.0,0.0,1.0,-1.0,0.11749267578125,-0.117919921875,0.97320556640625,-0.1585693359375,0.19677734375,-0.27099609375,0.9482421875,2.1875,-1.0625,-0.6875
2.599999999999967,-2.0,-3.0,0.0,0.0,-1.0,0.0,1.0,-1.0,0.11749267578125,-0.117919921875,0.97320556640625,-0.1585693359375,0.19677734375,-0.27099609375,0.9482421875,2.1875,-1.0625,-0.6875
2.6049999999999667,-2.0,-3.0,0.0,0.0,-1.0,0.0,1.0,-1.0,0.11749267578125,-0.117919921875,0.97320556640625,-0.1585693359375,0.19677734375,-0.27099609375,0.9482421875,2.1875,-1.0625,-0.6875
2.6099999999999666,-2.0,-3.0,0.0,0.0,-1.0,0.0,1.0,-1.0,0.11749267578125,-0.117919921875,0.97320556640625,-0.1585693359375,0.19677734375,-0.27099609375,0.9482421875,2.1875,-1.0625,-0.6875
2.6149999999999665,-2.0,-1.0,0.0,-4.0,-1.0,1.0,0.0,0.0,0.11749267578125,-0.117919921875,0.97320556640625,-0.1585693359375,0.19677734375,-0.27392578125,0.943359375,0.125,-0.4375,-0.625
2.6199999999999664,-2.0,-1.0,0.0,-4.0,-1.0,1.0,0.0,0.0,0.11749267578125,-0.117919921875,0.97320556640625,-0.1585693359375,0.19677734375,-0.27392578125,0.943359375,0.125,-0.4375,-0.625
2.6249999999999662,-2.0,-1.0,0.0,-4.0,-1.0,1.0,0.0,0.0,0.11749267578125,-0.117919921875,0.97320556640625,-0.1585693359375,0.19677734375,-0.27392578125,0.943359375,0.125,-0.4375,-0.625
2.629999999999966,-2.0,-1.0,0.0,-4.0,-1.0,1.0,0.0,0.0,0.11749267578125,-0.117919921875,0.97320556640625,-0.1585693359375,0.19677734375,-0.27392578125,0.943359375,0.125,-0.4375,-0.625
2.634999999999966,-2.0,-5.0,-4.0,-13.0,-15.0,-2.0,0.0,-3.0,0.11749267578125,-0.117919921875,0.97320556640625,-0.1585693359375,0.19677734375,-0.27392578125,0.943359375,0.125,-0.4375,-0.625
2.639999999999966,-2.0,-5.0,-4.0,-13.0,-15.0,-2.0,0.0,-3.0,0.11761474609375,-0.1181640625,0.97314453125,-0.15850830078125,0.19287109375,-0.26318359375,0.94873046875,-1.75,-0.4375,-0.3125
2.644999999999966,-1.0,-2.0,3.0,10.0,2.0,0.0,1.0,0.0,0.11761474609375,-0.1181640625,0.97314453125,-0.15850830078125,0.19287109375,-0.26318359375,0.94873046875,-1.75,-0.4375,-0.3125
2.6499999999999657,-1.0,-2.0,3.0,10.0,2.0,0.0,1.0,0.0,0.11761474609375,-0.1181640625,0.97314453125,-0.15850830078125,0.19287109375,-0.26318359375,0.94873046875,-1.75,-0.4375,-0.3125
2.6549999999999656,-1.0,-2.0,3.0,10.0,2.0,0.0,1.0,0.0,0.11761474609375,-0.1181640625,0.97314453125,-0.15850830078125,0.19287109375,-0.26318359375,0.94873046875,-1.75,-0.4375,-0.3125
2.6599999999999655,-1.0,1.0,1.0,0.0,-2.0,-2.0,-2.0,-1.0,0.1177978515625,-0.11883544921875,0.97308349609375,-0.15838623046875,0.189453125,-0.2724609375,0.94775390625,-4.125,-0.3125,-0.375
2.6649999999999654,-2.0,-2.0,-3.0,-4.0,1.0,1.0,0.0,0.0,0.1177978515625,-0.11883544921875,0.97308349609375,-0.15838623046875,0.189453125,-0.2724609375,0.94775390625,-4.125,-0.3125,-0.375
2.6699999999999653,-2.0,-2.0,-3.0,-4.0,1.0,1.0,0.0,0.0,0.1177978515625,-0.11883544921875,0.97308349609375,-0.15838623046875,0.189453125,-0.2724609375,0.94775390625,-4.125,-0.3125,-0.375
2.674999999999965,0.0,0.0,1.0,-2.0,-3.0,-1.0,-2.0,0.0,0.1177978515625,-0.11883544921875,0.97308349609375,-0.15838623046875,0.189453125,-0.2724609375,0.94775390625,-4.125,-0.3125,-0.375
2.679999999999965,0.0,0.0,1.0,-2.0,-3.0,-1.0,-2.0,0.0,0.1177978515625,-0.11883544921875,0.97308349609375,-0.15838623046875,0.189453125,-0.2724609375,0.94775390625,-4.125,-0.3125,-0.375
2.684999999999965,-1.0,-2.0,2.0,0.0,2.0,0.0,-2.0,-2.0,0.1177978515625,-0.11883544921875,0.97308349609375,-0.15838623046875,0.189453125,-0.2724609375,0.94775390625,-4.125,-0.3125,-0.375
2.689999999999965,-2.0,0.0,-6.0,5.0,1.0,0.0,0.0,0.0,0.117919921875,-0.11956787109375,0.97296142578125,-0.15826416015625,0.1953125,-0.28515625,0.9580078125,-3.625,-0.1875,-0.4375
2.6949999999999648,-1.0,-3.0,-2.0,-1.0,0.0,0.0,-1.0,-2.0,0.117919921875,-0.11956787109375,0.97296142578125,-0.15826416015625,0.1953125,-0.28515625,0.9580078125,-3.625,-0.1875,-0.4375
2.6999999999999647,-8.0,-6.0,-6.0,-3.0,-2.0,-3.0,-2.0,-2.0,0.117919921875,-0.11956787109375,0.97296142578125,-0.15826416015625,0.1953125,-0.28515625,0.9580078125,-3.625,-0.1875,-0.4375
2.7049999999999645,-1.0,-1.0,-4.0,-7.0,-1.0,1.0,-1.0,-2.0,0.117919921875,-0.11956787109375,0.97296142578125,-0.15826416015625,0.19482421875,-0.27734375,0.94921875,0.125,0.375,0.3125
2.7099999999999644,-1.0,-1.0,-4.0,-7.0,-1.0,1.0,-1.0,-2.0,0.117919921875,-0.11956787109375,0.97296142578125,-0.15826416015625,0.19482421875,-0.27734375,0.94921875,0.125,0.375,0.3125
2.7149999999999643,-1.0,-1.0,-4.0,-7.0,-1.0,1.0,-1.0,-2.0,0.117919921875,-0.11956787109375,0.97296142578125,-0.15826416015625,0.19482421875,-0.27734375,0.94921875,0.125,0.375,0.3125
2.7199999999999642,3.0,3.0,3.0,-4.0,0.0,-1.0,-1.0,-1.0,0.11773681640625,-0.119384765625,0.9730224609375,-0.158447265625,0.1865234375,-0.27783203125,0.94091796875,1.875,0.3125,0.875
2.724999999999964,-4.0,-1.0,-1.0,0.0,1.0,-2.0,0.0,-1.0,0.11773681640625,-0.119384765625,0.9730224609375,-0.158447265625,0.1865234375,-0.27783203125,0.94091796875,1.875,0.3125,0.875
2.729999999999964,-4.0,-1.0,-1.0,0.0,1.0,-2.0,0.0,-1.0,0.11773681640625,-0.119384765625,0.9730224609375,-0.158447265625,0.1865234375,-0.27783203125,0.94091796875,1.875,0.3125,0.875
2.734999999999964,-4.0,-1.0,-1.0,0.0,1.0,-2.0,0.0,-1.0,0.11773681640625,-0.119384765625,0.9730224609375,-0.158447265625,0.1865234375,-0.27783203125,0.94091796875,1.875,0.3125,0.875
2.739999999999964,-4.0,-1.0,-1.0,0.0,1.0,-2.0,0.0,-1.0,0.11773681640625,-0.119384765625,0.9730224609375,-0.158447265625,0.1865234375,-0.27783203125,0.94091796875,1.875,0.3125,0.875
2.7449999999999637,1.0,0.0,3.0,6.0,1.0,0.0,-1.0,0.0,0.11761474609375,-0.119140625,0.9730224609375,-0.15863037109375,0.18994140625,-0.2685546875,0.94677734375,1.4375,0.25,0.9375
2.7499999999999636,-2.0,-1.0,-2.0,-3.0,-4.0,-2.0,-2.0,-3.0,0.11761474609375,-0.119140625,0.9730224609375,-0.15863037109375,0.18994140625,-0.2685546875,0.94677734375,1.4375,0.25,0.9375
2.7549999999999635,-2.0,-2.0,-5.0,1.0,2.0,0.0,1.0,0.0,0.11761474609375,-0.119140625,0.9730224609375,-0.15863037109375,0.18994140625,-0.2685546875,0.94677734375,1.4375,0.25,0.9375
2.7599999999999634,-2.0,-2.0,-5.0,1.0,2.0,0.0,1.0,0.0,0.11761474609375,-0.119140625,0.9730224609375,-0.15863037109375,0.18994140625,-0.2685546875,0.94677734375,1.4375,0.25,0.9375
2.7649999999999633,-1.0,-2.0,4.0,11.0,-1.0,-1.0,-1.0,-2.0,0.11761474609375,-0.119140625,0.9730224609375,-0.15863037109375,0.1962890625,-0.26708984375,0.9423828125,0.5,0.625,0.75
2.769999999999963,-1.0,-2.0,4.0,11.0,-1.0,-1.0,-1.0,-2.0,0.11761474609375,-0.119140625,0.9730224609375,-0.15863037109375,0.1962890625,-0.26708984375,0.9423828125,0.5,0.625,0.75
2.774999999999963,-1.0,-2.0,4.0,11.0,-1.0,-1.0,-1.0,-2.0,0.11761474609375,-0.119140625,0.9730224609375,-0.15863037109375,0.1962890625,-0.26708984375,0.9423828125,0.5,0.625,0.75
2.779999999999963,-2.0,0.0,-1.0,-4.0,0.0,-3.0,-2.0,-2.0,0.11749267578125,-0.11932373046875,0.97296142578125,-0.15875244140625,0.185546875,-0.26611328125,0.9443359375,-1.125,0.5625,0.9375
2.784999999999963,-2.0,0.0,-1.0,-4.0,0.0,-3.0,-2.0,-2.0,0.11749267578125,-0.11932373046875,0.97296142578125,-0.15875244140625,0.185546875,-0.26611328125,0.9443359375,-1.125,0.5625,0.9375
2.7899999999999627,-2.0,-5.0,-7.0,-15.0,-12.0,-3.0,-2.0,0.0,0.11749267578125,-0.11932373046875,0.97296142578125,-0.15875244140625,0.185546875,-0.26611328125,0.9443359375,-1.125,0.5625,0.9375
2.7949999999999626,-2.0,-5.0,-7.0,-15.0,-12.0,-3.0,-2.0,0.0,0.11749267578125,-0.11932373046875,0.97296142578125,-0.15875244140625,0.185546875,-0.26611328125,0.9443359375,-1.125,0.5625,0.9375
2.7999999999999625,-2.0,-3.0,-4.0,3.0,8.0,-1.0,0.0,1.0,0.11749267578125,-0.11932373046875,0.97296142578125,-0.15875244140625,0.185546875,-0.26611328125,0.9443359375,-1.125,0.5625,0.9375
2.8049999999999624,-1.0,-1.0,6.0,4.0,2.0,0.0,0.0,0.0,0.11737060546875,-0.1199951171875,0.972900390625,-0.1588134765625,0.18505859375,-0.27685546875,0.951171875,-3.4375,0.4375,0.875
2.8099999999999623,-1.0,-1.0,6.0,4.0,2.0,0.0,0.0,0.0,0.11737060546875,-0.1199951171875,0.972900390625,-0.1588134765625,0.18505859375,-0.27685546875,0.951171875,-3.4375,0.4375,0.875
2.814999999999962,0.0,-3.0,-7.0,-11.0,-4.0,-4.0,-2.0,-2.0,0.11737060546875,-0.1199951171875,0.972900390625,-0.1588134765625,0.18505859375,-0.27685546875,0.951171875,-3.4375,0.4375,0.875
2.819999999999962,0.0,-3.0,-7.0,-11.0,-4.0,-4.0,-2.0,-2.0,0.11737060546875,-0.1199951171875,0.972900390625,-0.1588134765625,0.18505859375,-0.27685546875,0.951171875,-3.4375,0.4375,0.875
2.824999999999962,0.0,-3.0,-7.0,-11.0,-4.0,-4.0,-2.0,-2.0,0.11737060546875,-0.1199951171875,0.972900390625,-0.1588134765625,0.18505859375,-0.27685546875,0.951171875,-3.4375,0.4375,0.875
2.829999999999962,0.0,0.0,0.0,1.0,1.0,0.0,0.0,-1.0,0.117431640625,-0.12078857421875,0.9727783203125,-0.1588134765625,0.1884765625,-0.29296875,0.9404296875,-3.0,0.25,0.25
2.8349999999999618,0.0,0.0,0.0,1.0,1.0,0.0,0.0,-1.0,0.117431640625,-0.12078857421875,0.9727783203125,-0.1588134765625,0.1884765625,-0.29296875,0.9404296875,-3.0,0.25,0.25
2.8399999999999617,0.0,0.0,0.0,1.0,1.0,0.0,0.0,-1.0,0.117431640625,-0.12078857421875,0.9727783203125,-0.1588134765625,0.1884765625,-0.29296875,0.9404296875,-3.0,0.25,0.25
2.8449999999999616,-1.0,0.0,7.0,9.0,4.0,1.0,0.0,-1.0,0.1175537109375,-0.12066650390625,0.97283935546875,-0.1588134765625,0.19189453125,-0.28955078125,0.939453125,1.5625,-0.375,-0.625
2.8499999999999615,0.0,-4.0,-11.0,-5.0,-1.0,0.0,-1.0,-1.0,0.1175537109375,-0.12066650390625,0.97283935546875,-0.1588134765625,0.19189453125,-0.28955078125,0.939453125,1.5625,-0.375,-0.625
2.8549999999999613,-1.0,-2.0,-3.0,-2.0,-4.0,-1.0,-2.0,-1.0,0.1175537109375,-0.12066650390625,0.97283935546875,-0.1588134765625,0.19189453125,-0.28955078125,0.939453125,1.5625,-0.375,-0.625
2.8599999999999612,-1.0,0.0,4.0,8.0,1.0,0.0,-2.0,1.0,0.1175537109375,-0.12066650390625,0.97283935546875,-0.1588134765625,0.19189453125,-0.28955078125,0.939453125,1.5625,-0.375,-0.625
2.864999999999961,3.0,7.0,3.0,3.0,5.0,1.0,0.0,1.0,0.1175537109375,-0.1201171875,0.972900390625,-0.15875244140625,0.18798828125,-0.28125,0.94873046875,3.8125,-0.6875,-0.8125
2.869999999999961,3.0,7.0,3.0,3.0,5.0,1.0,0.0,1.0,0.1175537109375,-0.1201171875,0.972900390625,-0.15875244140625,0.18798828125,-0.28125,0.94873046875,3.8125,-0.6875,-0.8125
2.874999999999961,1.0,-1.0,-18.0,-12.0,-8.0,-2.0,-1.0,-3.0,0.1175537109375,-0.1201171875,0.972900390625,-0.15875244140625,0.18798828125,-0.28125,0.94873046875,3.8125,-0.6875,-0.8125
2.879999999999961,1.0,-1.0,-18.0,-12.0,-8.0,-2.0,-1.0,-3.0,0.1175537109375,-0.1201171875,0.972900390625,-0.15875244140625,0.18798828125,-0.28125,0.94873046875,3.8125,-0.6875,-0.8125
2.8849999999999607,-3.0,-3.0,-4.0,3.0,1.0,-2.0,-2.0,0.0,0.1175537109375,-0.1195068359375,0.97296142578125,-0.15875244140625,0.1884765625,-0.27392578125,0.94775390625,3.5625,-0.875,-0.625
2.8899999999999606,-1.0,-2.0,1.0,5.0,2.0,0.0,0.0,0.0,0.11761474609375,-0.11920166015625,0.97296142578125,-0.1588134765625,0.19482421875,-0.27099609375,0.94287109375,1.6875,-0.5,-0.0625
2.8949999999999605,-1.0,-2.0,1.0,5.0,2.0,0.0,0.0,0.0,0.11761474609375,-0.11920166015625,0.97296142578125,-0.1588134765625,0.19482421875,-0.27099609375,0.94287109375,1.6875,-0.5,-0.0625
2.8999999999999604,-2.0,-3.0,-6.0,-15.0,-7.0,-4.0,-3.0,-2.0,0.11761474609375,-0.11920166015625,0.97296142578125,-0.1588134765625,0.19482421875,-0.27099609375,0.94287109375,1.6875,-0.5,-0.0625
2.9049999999999603,-2.0,-3.0,-6.0,-15.0,-7.0,-4.0,-3.0,-2.0,0.11761474609375,-0.11920166015625,0.97296142578125,-0.1588134765625,0.19482421875,-0.27099609375,0.94287109375,1.6875,-0.5,-0.0625
2.90999999999996,-2.0,-3.0,-6.0,-15.0,-7.0,-4.0,-3.0,-2.0,0.11761474609375,-0.11920166015625,0.97296142578125,-0.1588134765625,0.19482421875,-0.27099609375,0.94287109375,1.6875,-0.5,-0.0625
2.91499999999996,-2.0,-3.0,-6.0,-15.0,-7.0,-4.0,-3.0,-2.0,0.11761474609375,-0.11920166015625,0.97296142578125,-0.1588134765625,0.19482421875,-0.27099609375,0.94287109375,1.6875,-0.5,-0.0625
2.91999999999996,-2.0,-2.0,0.0,-4.0,-2.0,-3.0,-1.0,-2.0,0.11761474609375,-0.119140625,0.97296142578125,-0.1588134765625,0.193359375,-0.26220703125,0.943359375,-0.875,-0.1875,-0.4375
2.92499999999996,-2.0,-2.0,0.0,-4.0,-2.0,-3.0,-1.0,-2.0,0.11761474609375,-0.119140625,0.97296142578125,-0.1588134765625,0.193359375,-0.26220703125,0.943359375,-0.875,-0.1875,-0.4375
2.9299999999999597,-2.0,-2.0,0.0,-4.0,-2.0,-3.0,-1.0,-2.0,0.11761474609375,-0.119140625,0.97296142578125,-0.1588134765625,0.193359375,-0.26220703125,0.943359375,-0.875,-0.1875,-0.4375
2.9349999999999596,0.0,0.0,-2.0,-2.0,0.0,-1.0,-1.0,-2.0,0.11761474609375,-0.119140625,0.97296142578125,-0.1588134765625,0.193359375,-0.26220703125,0.943359375,-0.875,-0.1875,-0.4375
2.9399999999999595,0.0,0.0,-2.0,-2.0,0.0,-1.0,-1.0,-2.0,0.11761474609375,-0.119140625,0.97296142578125,-0.1588134765625,0.193359375,-0.26220703125,0.943359375,-0.875,-0.1875,-0.4375
2.9449999999999594,-2.0,-2.0,0.0,0.0,1.0,0.0,0.0,1.0,0.11761474609375,-0.11962890625,0.97296142578125,-0.15875244140625,0.18212890625,-0.27734375,0.95166015625,-2.25,-0.125,-0.0625
2.9499999999999593,-2.0,-2.0,0.0,0.0,1.0,0.0,0.0,1.0,0.11761474609375,-0.11962890625,0.97296142578125,-0.15875244140625,0.18212890625,-0.27734375,0.95166015625,-2.25,-0.125,-0.0625
2.954999999999959,-2.0,-2.0,0.0,0.0,1.0,0.0,0.0,1.0,0.11761474609375,-0.11962890625,0.97296142578125,-0.15875244140625,0.18212890625,-0.27734375,0.95166015625,-2.25,-0.125,-0.0625
2.959999999999959,-2.0,-2.0,0.0,0.0,1.0,0.0,0.0,1.0,0.11761474609375,-0.11962890625,0.97296142578125,-0.15875244140625,0.18212890625,-0.27734375,0.95166015625,-2.25,-0.125,-0.0625
2.964999999999959,-1.0,1.0,4.0,-14.0,-1.0,-1.0,0.0,-1.0,0.11767578125,-0.1199951171875,0.972900390625,-0.1588134765625,0.18994140625,-0.28369140625,0.95166015625,-1.5,-0.3125,0.125
2.969999999999959,-1.0,1.0,4.0,-14.0,-1.0,-1.0,0.0,-1.0,0.11767578125,-0.1199951171875,0.972900390625,-0.1588134765625,0.18994140625,-0.28369140625,0.95166015625,-1.5,-0.3125,0.125
2.974999999999959,2.0,1.0,1.0,4.0,-1.0,-2.0,0.0,-1.0,0.11767578125,-0.1199951171875,0.972900390625,-0.1588134765625,0.18994140625,-0.28369140625,0.95166015625,-1.5,-0.3125,0.125
2.9799999999999587,2.0,1.0,1.0,4.0,-1.0,-2.0,0.0,-1.0,0.11767578125,-0.1199951171875,0.972900390625,-0.1588134765625,0.18994140625,-0.28369140625,0.95166015625,-1.5,-0.3125,0.125
2.9849999999999586,2.0,1.0,1.0,4.0,-1.0,-2.0,0.0,-1.0,0.11767578125,-0.1199951171875,0.972900390625,-0.1588134765625,0.18994140625,-0.28369140625,0.95166015625,-1.5,-0.3125,0.125
2.9899999999999585,2.0,1.0,1.0,4.0,-1.0,-2.0,0.0,-1.0,0.11767578125,-0.1199951171875,0.972900390625,-0.1588134765625,0.18994140625,-0.28369140625,0.95166015625,-1.5,-0.3125,0.125
2.9949999999999584,-1.0,0.0,-4.0,-9.0,-3.0,-1.0,0.0,-1.0,0.1177978515625,-0.1197509765625,0.972900390625,-0.1588134765625,0.19873046875,-0.28125,0.947265625,1.625,-0.4375,0.0625
2.9999999999999583,-1.0,0.0,-4.0,-9.0,-3.0,-1.0,0.0,-1.0,0.1177978515625,-0.1197509765625,0.972900390625,-0.1588134765625,0.19873046875,-0.28125,0.947265625,1.625,-0.4375,0.0625
3.004999999999958,-1.0,0.0,-4.0,-9.0,-3.0,-1.0,0.0,-1.0,0.1177978515625,-0.1197509765625,0.972900390625,-0.1588134765625,0.19873046875,-0.28125,0.947265625,1.625,-0.4375,0.0625
3.009999999999958,0.0,-2.0,-2.0,-1.0,-4.0,-3.0,-2.0,0.0,0.1177978515625,-0.1197509765625,0.972900390625,-0.1588134765625,0.19873046875,-0.28125,0.947265625,1.625,-0.4375,0.0625
3.014999999999958,0.0,-2.0,-2.0,-1.0,-4.0,-3.0,-2.0,0.0,0.1177978515625,-0.1197509765625,0.972900390625,-0.1588134765625,0.19873046875,-0.28125,0.947265625,1.625,-0.4375,0.0625
3.019999999999958,0.0,-2.0,-2.0,-1.0,-4.0,-3.0,-2.0,0.0,0.1177978515625,-0.1197509765625,0.972900390625,-0.1588134765625,0.19873046875,-0.28125,0.947265625,1.625,-0.4375,0.0625
3.0249999999999577,-1.0,-2.0,1.0,7.0,2.0,1.0,0.0,1.0,0.11773681640625,-0.11932373046875,0.972900390625,-0.158935546875,0.1904296875,-0.27587890625,0.947265625,2.8125,-0.3125,0.125
3.0299999999999576,-1.0,-2.0,1.0,7.0,2.0,1.0,0.0,1.0,0.11773681640625,-0.11932373046875,0.972900390625,-0.158935546875,0.1904296875,-0.27587890625,0.947265625,2.8125,-0.3125,0.125
3.0349999999999575,-1.0,-2.0,1.0,7.0,2.0,1.0,0.0,1.0,0.11773681640625,-0.11932373046875,0.972900390625,-0.158935546875,0.1904296875,-0.27587890625,0.947265625,2.8125,-0.3125,0.125
3.0399999999999574,-1.0,-2.0,1.0,7.0,2.0,1.0,0.0,1.0,0.11773681640625,-0.11932373046875,0.972900390625,-0.158935546875,0.1904296875,-0.27587890625,0.947265625,2.8125,-0.3125,0.125
3.0449999999999573,-1.0,-1.0,6.0,6.0,2.0,-1.0,-1.0,0.0,0.11773681640625,-0.11907958984375,0.97296142578125,-0.1590576171875,0.1845703125,-0.2763671875,0.95068359375,1.9375,-0.75,0.375
3.049999999999957,-2.0,-3.0,-1.0,-2.0,-4.0,0.0,0.0,0.0,0.11773681640625,-0.11907958984375,0.97296142578125,-0.1590576171875,0.1845703125,-0.2763671875,0.95068359375,1.9375,-0.75,0.375
3.054999999999957,-2.0,-3.0,-1.0,-2.0,-4.0,0.0,0.0,0.0,0.11773681640625,-0.11907958984375,0.97296142578125,-0.1590576171875,0.1845703125,-0.2763671875,0.95068359375,1.9375,-0.75,0.375
3.059999999999957,-2.0,-3.0,-1.0,-2.0,-4.0,0.0,0.0,0.0,0.11773681640625,-0.11907958984375,0.97296142578125,-0.1590576171875,0.1845703125,-0.2763671875,0.95068359375,1.9375,-0.75,0.375
3.064999999999957,-2.0,-3.0,-1.0,-2.0,-4.0,0.0,0.0,0.0,0.11773681640625,-0.11907958984375,0.97296142578125,-0.1590576171875,0.1845703125,-0.2763671875,0.95068359375,1.9375,-0.75,0.375
3.0699999999999568,-2.0,-3.0,-1.0,-2.0,-4.0,0.0,0.0,0.0,0.11773681640625,-0.11907958984375,0.97296142578125,-0.1590576171875,0.1845703125,-0.2763671875,0.95068359375,1.9375,-0.75,0.375
3.0749999999999567,-1.0,-1.0,-6.0,1.0,-2.0,-2.0,-1.0,-2.0,0.11773681640625,-0.11907958984375,0.97296142578125,-0.1590576171875,0.19384765625,-0.27294921875,0.9453125,0.625,-0.5,0.0
3.0799999999999566,1.0,0.0,-3.0,-5.0,-2.0,-2.0,-1.0,-1.0,0.11773681640625,-0.11907958984375,0.97296142578125,-0.1590576171875,0.19384765625,-0.27294921875,0.9453125,0.625,-0.5,0.0
3.0849999999999564,1.0,0.0,-3.0,-5.0,-2.0,-2.0,-1.0,-1.0,0.11773681640625,-0.11907958984375,0.97296142578125,-0.1590576171875,0.19384765625,-0.27294921875,0.9453125,0.625,-0.5,0.0
3.0899999999999563,1.0,0.0,-3.0,-5.0,-2.0,-2.0,-1.0,-1.0,0.11773681640625,-0.11907958984375,0.97296142578125,-0.1590576171875,0.19384765625,-0.27294921875,0.9453125,0.625,-0.5,0.0
3.0949999999999562,0.0,-1.0,-1.0,-3.0,0.0,0.0,-2.0,1.0,0.11773681640625,-0.11907958984375,0.97296142578125,-0.1590576171875,0.19384765625,-0.27294921875,0.9453125,0.625,-0.5,0.0
3.099999999999956,0.0,-1.0,-1.0,-3.0,0.0,0.0,-2.0,1.0,0.11773681640625,-0.11907958984375,0.97296142578125,-0.1590576171875,0.19384765625,-0.27294921875,0.9453125,0.625,-0.5,0.0
3.104999999999956,4.0,5.0,2.0,-11.0,1.0,0.0,-1.0,-2.0,0.11773681640625,-0.11907958984375,0.97296142578125,-0.1590576171875,0.19677734375,-0.2744140625,0.9453125,-0.4375,-0.25,-0.1875
3.109999999999956,4.0,5.0,2.0,-11.0,1.0,0.0,-1.0,-2.0,0.11773681640625,-0.11907958984375,0.97296142578125,-0.1590576171875,0.19677734375,-0.2744140625,0.9453125,-0.4375,-0.25,-0.1875
3.114999999999956,4.0,5.0,2.0,-11.0,1.0,0.0,-1.0,-2.0,0.11773681640625,-0.11907958984375,0.97296142578125,-0.1590576171875,0.19677734375,-0.2744140625,0.9453125,-0.4375,-0.25,-0.1875
3.1199999999999557,4.0,5.0,2.0,-11.0,1.0,0.0,-1.0,-2.0,0.11773681640625,-0.11907958984375,0.97296142578125,-0.1590576171875,0.19677734375,-0.2744140625,0.9453125,-0.4375,-0.25,-0.1875
3.1249999999999556,-7.0,-5.0,2.0,1.0,-2.0,-1.0,0.0,-2.0,0.1177978515625,-0.11944580078125,0.97283935546875,-0.15911865234375,0.193359375,-0.2763671875,0.95263671875,-2.0,-0.125,0.5
3.1299999999999555,-7.0,-5.0,2.0,1.0,-2.0,-1.0,0.0,-2.0,0.1177978515625,-0.11944580078125,0.97283935546875,-0.15911865234375,0.193359375,-0.2763671875,0.95263671875,-2.0,-0.125,0.5
3.1349999999999554,1.0,0.0,7.0,4.0,3.0,1.0,-1.0,-1.0,0.1177978515625,-0.11944580078125,0.97283935546875,-0.15911865234375,0.193359375,-0.2763671875,0.95263671875,-2.0,-0.125,0.5
3.1399999999999553,1.0,0.0,7.0,4.0,3.0,1.0,-1.0,-1.0,0.1177978515625,-0.11944580078125,0.97283935546875,-0.15911865234375,0.193359375,-0.2763671875,0.95263671875,-2.0,-0.125,0.5
3.144999999999955,1.0,0.0,7.0,4.0,3.0,1.0,-1.0,-1.0,0.1177978515625,-0.11944580078125,0.97283935546875,-0.15911865234375,0.193359375,-0.2763671875,0.95263671875,-2.0,-0.125,0.5
3.149999999999955,1.0,0.0,7.0,4.0,3.0,1.0,-1.0,-1.0,0.1177978515625,-0.11944580078125,0.97283935546875,-0.15911865234375,0.193359375,-0.2763671875,0.95263671875,-2.0,-0.125,0.5
3.154999999999955,-4.0,-4.0,-8.0,-10.0,0.0,0.0,-2.0,-1.0,0.1177978515625,-0.11993408203125,0.9727783203125,-0.1593017578125,0.189453125,-0.27880859375,0.94775390625,-2.1875,0.0,1.0625
3.159999999999955,-4.0,-4.0,-8.0,-10.0,0.0,0.0,-2.0,-1.0,0.1177978515625,-0.11993408203125,0.9727783203125,-0.1593017578125,0.189453125,-0.27880859375,0.94775390625,-2.1875,0.0,1.0625
3.1649999999999547,-4.0,-4.0,-8.0,-10.0,0.0,0.0,-2.0,-1.0,0.1177978515625,-0.11993408203125,0.9727783203125,-0.1593017578125,0.189453125,-0.27880859375,0.94775390625,-2.1875,0.0,1.0625
3.1699999999999546,0.0,-1.0,-4.0,-3.0,1.0,-1.0,-2.0,0.0,0.1177978515625,-0.11993408203125,0.9727783203125,-0.1593017578125,0.189453125,-0.27880859375,0.94775390625,-2.1875,0.0,1.0625
3.1749999999999545,0.0,-1.0,-4.0,-3.0,1.0,-1.0,-2.0,0.0,0.1177978515625,-0.11993408203125,0.9727783203125,-0.1593017578125,0.189453125,-0.27880859375,0.94775390625,-2.1875,0.0,1.0625
3.1799999999999544,0.0,-1.0,-4.0,-3.0,1.0,-1.0,-2.0,0.0,0.11785888671875,-0.11993408203125,0.9727783203125,-0.159423828125,0.1943359375,-0.27392578125,0.94921875,0.0,-0.0625,1.0
3.1849999999999543,-1.0,0.0,2.0,10.0,-3.0,-3.0,-1.0,-1.0,0.11785888671875,-0.11993408203125,0.9727783203125,-0.159423828125,0.1943359375,-0.27392578125,0.94921875,0.0,-0.0625,1.0
3.189999999999954,-1.0,0.0,2.0,10.0,-3.0,-3.0,-1.0,-1.0,0.11785888671875,-0.11993408203125,0.9727783203125,-0.159423828125,0.1943359375,-0.27392578125,0.94921875,0.0,-0.0625,1.0
3.194999999999954,-1.0,0.0,2.0,10.0,-3.0,-3.0,-1.0,-1.0,0.11785888671875,-0.11993408203125,0.9727783203125,-0.159423828125,0.1943359375,-0.27392578125,0.94921875,0.0,-0.0625,1.0
3.199999999999954,0.0,-1.0,-1.0,-1.0,2.0,-2.0,-1.0,-1.0,0.1177978515625,-0.11981201171875,0.97271728515625,-0.15972900390625,0.18798828125,-0.2802734375,0.94287109375,1.625,-0.375,1.25
3.204999999999954,-3.0,-3.0,-1.0,0.0,0.0,-1.0,0.0,-1.0,0.1177978515625,-0.11981201171875,0.97271728515625,-0.15972900390625,0.18798828125,-0.2802734375,0.94287109375,1.625,-0.375,1.25
3.209999999999954,-3.0,-3.0,-1.0,0.0,0.0,-1.0,0.0,-1.0,0.1177978515625,-0.11981201171875,0.97271728515625,-0.15972900390625,0.18798828125,-0.2802734375,0.94287109375,1.625,-0.375,1.25
3.2149999999999537,-3.0,-3.0,-1.0,0.0,0.0,-1.0,0.0,-1.0,0.1177978515625,-0.11981201171875,0.97271728515625,-0.15972900390625,0.18798828125,-0.2802734375,0.94287109375,1.625,-0.375,1.25
3.2199999999999536,-3.0,-3.0,-1.0,0.0,0.0,-1.0,0.0,-1.0,0.1177978515625,-0.11981201171875,0.97271728515625,-0.15972900390625,0.18798828125,-0.2802734375,0.94287109375,1.625,-0.375,1.25
3.2249999999999535,-2.0,-3.0,-4.0,3.0,-3.0,-2.0,-2.0,-1.0,0.1177978515625,-0.1195068359375,0.97271728515625,-0.16009521484375,0.19189453125,-0.27294921875,0.94677734375,2.0,-0.5,1.75
3.2299999999999534,-2.0,-3.0,-4.0,3.0,-3.0,-2.0,-2.0,-1.0,0.1177978515625,-0.1195068359375,0.97271728515625,-0.16009521484375,0.19189453125,-0.27294921875,0.94677734375,2.0,-0.5,1.75
3.2349999999999532,-2.0,-3.0,-4.0,3.0,-3.0,-2.0,-2.0,-1.0,0.1177978515625,-0.1195068359375,0.97271728515625,-0.16009521484375,0.19189453125,-0.27294921875,0.94677734375,2.0,-0.5,1.75
3.239999999999953,2.0,1.0,3.0,-3.0,-3.0,0.0,-2.0,-1.0,0.1177978515625,-0.1195068359375,0.97271728515625,-0.16009521484375,0.19189453125,-0.27294921875,0.94677734375,2.0,-0.5,1.75
3.244999999999953,2.0,1.0,3.0,-3.0,-3.0,0.0,-2.0,-1.0,0.1177978515625,-0.1195068359375,0.97271728515625,-0.16009521484375,0.19189453125,-0.27294921875,0.94677734375,2.0,-0.5,1.75
3.249999999999953,-1.0,-2.0,-4.0,-8.0,3.0,1.0,-1.0,-1.0,0.11785888671875,-0.11932373046875,0.97265625,-0.160400390625,0.19873046875,-0.26806640625,0.94775390625,1.0,-0.25,1.8125
3.254999999999953,-1.0,-2.0,-4.0,-8.0,3.0,1.0,-1.0,-1.0,0.11785888671875,-0.11932373046875,0.97265625,-0.160400390625,0.19873046875,-0.26806640625,0.94775390625,1.0,-0.25,1.8125
3.2599999999999527,-1.0,-2.0,-4.0,-8.0,3.0,1.0,-1.0,-1.0,0.11785888671875,-0.11932373046875,0.97265625,-0.160400390625,0.19873046875,-0.26806640625,0.94775390625,1.0,-0.25,1.8125
3.2649999999999526,-1.0,0.0,5.0,6.0,0.0,-1.0,-3.0,-1.0,0.11773681640625,-0.1192626953125,0.97265625,-0.16070556640625,0.1904296875,-0.275390625,0.953125,0.6875,-0.0625,1.6875
3.2699999999999525,-1.0,0.0,5.0,6.0,0.0,-1.0,-3.0,-1.0,0.11773681640625,-0.1192626953125,0.97265625,-0.16070556640625,0.1904296875,-0.275390625,0.953125,0.6875,-0.0625,1.6875
3.2749999999999524,-2.0,1.0,4.0,11.0,3.0,-1.0,0.0,0.0,0.11773681640625,-0.1192626953125,0.97265625,-0.16070556640625,0.1904296875,-0.275390625,0.953125,0.6875,-0.0625,1.6875
3.2799999999999523,-2.0,1.0,4.0,11.0,3.0,-1.0,0.0,0.0,0.11773681640625,-0.1192626953125,0.97265625,-0.16070556640625,0.1904296875,-0.275390625,0.953125,0.6875,-0.0625,1.6875
3.284999999999952,-2.0,1.0,4.0,11.0,3.0,-1.0,0.0,0.0,0.11773681640625,-0.1192626953125,0.97265625,-0.16070556640625,0.1904296875,-0.275390625,0.953125,0.6875,-0.0625,1.6875
3.289999999999952,0.0,0.0,-2.0,-3.0,-1.0,-1.0,-1.0,-1.0,0.11767578125,-0.119140625,0.97259521484375,-0.16107177734375,0.18994140625,-0.27294921875,0.94921875,0.75,-0.125,2.0
3.294999999999952,0.0,0.0,-2.0,-3.0,-1.0,-1.0,-1.0,-1.0,0.11767578125,-0.119140625,0.97259521484375,-0.16107177734375,0.18994140625,-0.27294921875,0.94921875,0.75,-0.125,2.0
3.299999999999952,0.0,0.0,-2.0,-3.0,-1.0,-1.0,-1.0,-1.0,0.11767578125,-0.119140625,0.97259521484375,-0.16107177734375,0.18994140625,-0.27294921875,0.94921875,0.75,-0.125,2.0
