timestamp,ch1,ch2,ch3,ch4,ch5,ch6,ch7,ch8
40.25,-4,2,-3,-2,-1,-1,-2,-1
40.255,1,-2,7,-3,-4,-1,0,-2
40.26,-2,2,8,-7,-2,0,1,0
40.265,-1,-4,-27,-8,-3,0,1,0
40.27,-1,0,-5,2,-1,-1,1,-2
40.275,3,-8,8,-4,-2,-2,-2,-3
40.28,-4,-4,-11,-5,-2,-1,-1,-2
40.285,-3,-3,3,-1,1,-2,-1,-3
40.29,1,9,13,10,2,-1,-2,2
40.295,-10,-11,-8,-6,-3,-3,-3,-3
40.3,-2,-2,0,-11,-2,-1,0,-1
40.305,-2,-1,-10,-6,-4,-2,-2,0
40.31,4,-4,-4,-2,-1,-1,-2,-1
40.315,-1,6,15,7,1,0,1,0
40.32,0,7,9,8,1,0,-1,1
40.325,-3,-4,-4,-3,-2,-1,-1,-1
40.33,-5,-1,6,-4,-2,-2,-1,-3
40.335,-1,-6,-1,-1,0,2,0,0
40.34,-3,10,-19,3,3,0,1,-1
40.345,0,-3,10,7,6,1,0,0
40.35,-5,-9,-41,-8,-4,0,-2,-4
40.355,-2,3,10,-6,-7,-4,-2,-1
40.36,0,-4,8,-9,-5,-2,-2,-1
40.365,-1,0,7,0,-1,-1,-1,-1
40.37,1,14,13,8,3,1,0,1
40.375,0,3,-2,7,2,1,-2,-1
40.38,-5,0,15,3,-4,-5,-4,-3
40.385,-1,1,-17,1,0,-3,0,0
40.39,-3,-3,6,-9,-4,-1,0,-1
40.395,-2,-3,-18,-4,-2,-1,-1,-2
40.4,1,1,11,4,-1,1,-1,0
40.405,0,1,5,0,0,0,-1,-1
40.41,-2,0,-5,-5,-4,-2,-1,0
40.415,-1,-5,-28,-6,0,-3,0,-1
40.42,1,1,6,4,-1,-1,0,0
40.425,-4,-8,2,-5,-2,-1,-1,-2
40.43,2,2,2,8,5,0,-1,0
40.435,-1,0,2,-12,1,-1,0,1
40.44,0,0,3,5,-2,1,0,-1
40.445,-3,-4,-9,-1,-4,-1,-1,-3
40.45,2,2,6,4,5,2,1,0
40.455,-1,3,3,2,-2,-2,-1,-2
40.46,-1,3,22,8,2,0,-1,-2
40.465,0,-4,-14,-5,-4,-2,0,-1
40.47,-4,-7,-32,-25,-12,-5,-3,-4
40.475,-1,3,12,2,2,-1,0,-1
40.48,-1,-1,-9,2,4,-1,-1,0
40.485,0,1,26,7,-1,-1,-3,-2
40.49,3,10,14,11,4,3,2,1
40.495,-4,-14,-41,-21,-10,-5,-4,-3
40.5,2,3,4,-2,-4,-4,-2,-1
40.505,0,3,-6,-3,2,0,-1,-1
40.51,-2,-3,4,0,-1,-1,-1,-1
40.515,0,2,13,5,2,0,-2,0
40.52,-1,2,-8,1,0,-1,0,0
40.525,0,0,11,-1,1,1,-1,0
40.53,-3,-11,-40,-10,-3,-3,-1,-3
40.535,2,5,25,5,-1,-1,0,-1
40.54,-2,-7,-12,-5,-2,-2,-1,-2
40.545,-1,-1,2,0,-1,-2,-1,0
40.55,-1,2,23,6,3,1,0,0
40.555,0,-4,-7,6,1,-1,-2,-2
40.56,-1,-6,-15,-11,-3,-3,-3,-2
40.565,-1,-1,0,1,-3,-1,-1,-1
40.57,2,0,5,-4,-1,-2,-1,0
40.575,-4,-5,2,-2,-4,0,-3,-2
40.58,1,3,5,1,-1,1,1,-1
40.585,-2,-6,-23,-3,-3,-1,-1,0
40.59,-2,0,11,1,-2,-2,-2,-1
40.595,0,3,3,5,1,-1,1,1
40.6,-3,1,9,3,1,-2,-2,-2
40.605,1,3,-1,1,0,0,-1,-1
40.61,-2,-5,-15,-11,-4,-2,-2,-2
40.615,0,0,2,-3,-2,-1,0,-1
40.62,-2,-3,-12,-3,-2,-1,-1,-1
40.625,-1,1,14,-1,0,-1,-1,0
40.63,0,4,12,4,1,-1,-1,0
40.635,-2,1,-21,-3,-3,-1,0,-1
40.64,0,-5,10,0,-1,-1,0,-1
40.645,0,2,5,0,-1,-2,-1,-1
40.65,-4,-7,-42,-13,-4,-2,-2,-2
40.655,-1,2,5,-2,-1,-2,-1,-1
40.66,0,4,3,4,1,0,0,0
40.665,-3,-4,2,0,-2,-3,-2,-2
40.67,-1,1,18,-1,-3,-2,-3,1
40.675,0,0,0,11,1,-1,0,-1
40.68,-2,-6,-24,-17,1,-1,-2,-2
40.685,0,7,24,3,1,0,3,1
40.69,2,5,20,12,2,1,2,1
40.695,-4,-11,-42,-22,-5,-2,-3,-2
40.7,1,1,11,15,1,0,-1,0
40.705,-2,0,-9,-4,-2,-2,-1,-1
40.71,-3,-4,17,-1,-2,-1,-1,-2
40.715,3,3,21,8,1,1,-1,-1
40.72,-1,-2,-11,0,0,0,0,-1
40.725,-4,-5,-13,-8,-4,-1,-1,-2
40.73,-1,1,11,4,0,1,0,1
40.735,-2,-1,7,2,0,-1,-1,0
40.74,-2,-2,-32,-8,-5,-3,-2,-2
40.745,0,-2,-2,-4,-2,-1,-1,-2
40.75,-2,0,10,2,0,-1,0,-2
40.755,-2,-8,-26,-10,-3,-1,-2,-3
40.76,-1,2,28,12,1,-1,-1,1
40.765,-1,-1,-28,-5,0,-2,1,2
40.77,-2,-5,-5,-6,-3,-3,-2,-3
40.775,0,6,13,4,3,0,0,1
40.78,-2,-1,24,0,-3,-1,0,-3
40.785,-5,-15,-68,-9,-6,-4,-5,-5
40.79,-1,-1,1,3,-2,-1,-2,-1
40.795,0,1,2,0,-3,-2,-1,-3
40.8,-2,3,28,7,3,0,-1,1
40.805,-2,-5,-3,1,-2,0,-1,0
40.81,-2,-1,6,-10,-3,-1,-1,-3
40.815,0,0,-6,1,-1,2,0,-1
40.82,-4,-7,-11,-6,-1,-2,-1,-3
40.825,-1,2,20,0,-1,-1,-3,-1
40.83,0,-1,-4,4,-1,0,-2,0
40.835,-2,-2,13,5,2,0,0,0
40.84,0,2,-6,-4,-2,0,-2,-2
40.845,-2,-10,-13,-8,-2,0,0,-1
40.85,1,7,2,5,-1,-2,-1,-2
40.855,-1,0,16,-3,-1,0,0,-1
40.86,0,0,-4,-3,-2,-4,-2,0
40.865,1,2,10,4,1,0,-1,-1
40.87,-1,-2,-18,0,1,-2,0,-1
40.875,-5,-6,-21,-4,-3,-2,-2,-2
40.88,1,2,14,5,0,1,0,0
40.885,-2,-4,-32,-19,-5,-3,-2,-3
40.89,0,0,24,5,0,0,-2,-2
40.895,1,4,-3,9,3,2,1,0
40.9,-7,-13,-19,-19,-6,-3,-2,-5
40.905,1,4,24,10,1,-1,0,0
40.91,-1,-1,4,1,0,-1,-1,-1
40.915,-4,-5,-17,-8,-3,-4,-2,-3
40.92,-1,-2,-16,-10,-3,-1,-2,-1
40.925,0,4,26,5,1,-1,-1,-1
40.93,1,3,-6,3,1,0,1,1
40.935,1,-2,15,1,-2,-3,-1,-1
40.94,2,0,6,3,-2,0,-1,-1
40.945,0,6,29,11,1,1,-1,-1
40.95,-9,-22,-56,-34,-8,-3,-3,-4
40.955,2,6,30,8,1,0,0,1
40.96,-6,-16,-84,-25,-6,-2,0,-2
40.965,0,3,51,7,-2,-2,-1,0
40.97,3,6,24,13,2,2,1,0
40.975,-5,-13,-34,-12,-4,-3,-4,-2
40.98,3,11,38,8,2,0,-2,0
40.985,-2,-5,-23,2,1,0,0,-1
40.99,-2,1,20,-6,-2,-1,-1,-2
40.995,0,2,-14,4,0,0,-2,0
41,-5,-9,-9,-16,-6,-5,-3,-3
41.005,0,-3,-3,1,-1,-1,-2,0
41.01,-2,-6,4,-4,0,-2,0,-1
41.015,1,9,21,9,0,0,0,0
41.02,7,14,49,21,6,4,1,3
41.025,-3,-10,-79,-15,-4,-1,-2,-2
41.03,-4,-7,3,-10,-6,-3,-4,-3
41.035,2,0,8,-1,0,0,0,0
41.04,-1,0,27,9,1,0,0,1
41.045,-4,-8,-5,-13,-7,-3,-3,-3
41.05,4,10,-6,12,0,0,0,1
41.055,-2,-6,-26,-4,-3,-1,-1,-2
41.06,1,5,8,0,-1,-2,0,1
41.065,5,14,69,23,8,3,3,2
41.07,-13,-27,-47,-53,-17,-6,-6,-6
41.075,3,10,58,9,3,3,-1,2
41.08,-4,-4,18,-1,-2,-1,-2,-1
41.085,-4,-1,33,11,-2,-3,-4,-3
41.09,5,8,-9,15,8,4,2,4
41.095,-5,-14,-48,-14,-8,-6,-3,-3
41.1,23,38,83,53,16,9,7,15
41.105,-28,-53,-127,-85,-24,-17,-13,-18
41.11,0,14,80,18,4,3,1,-1
41.115,4,18,56,33,10,7,2,-3
41.12,-5,-45,-112,-53,-20,-10,-9,6
41.125,20,39,80,48,19,13,16,13
41.13,-15,-30,-117,-43,-21,-17,-11,-20
41.135,-24,-9,19,-20,-13,-9,-5,2
41.14,27,33,61,58,23,17,10,5
41.145,-30,-49,-52,-89,-30,-23,-20,-4
41.15,4,34,63,53,24,19,11,13
41.155,3,-6,48,7,-3,-5,1,5
41.16,0,5,-14,-2,-4,-3,-5,-3
41.165,23,30,14,49,14,12,11,10
41.17,-10,7,90,21,6,1,8,-14
41.175,12,-18,-70,-43,-11,-8,-15,29
41.18,-21,-25,38,-23,-7,-6,-4,-11
41.185,3,12,104,3,-3,1,-1,-4
41.19,8,17,-15,15,4,2,3,5
41.195,6,24,44,36,14,7,9,-8
41.2,-14,-13,-26,-28,-15,-9,-7,-13
41.205,5,9,-50,31,12,7,3,12
41.21,1,-9,50,-58,-19,-12,-10,-3
41.215,-14,-17,40,5,-1,-1,-2,-14
41.22,-2,-6,-56,-3,0,0,0,-1
41.225,-7,-29,26,-18,-13,-11,-7,-16
41.23,8,7,-48,14,3,1,-1,4
41.235,29,13,8,12,6,4,2,20
41.24,-47,-43,-16,-24,-9,-6,-5,-44
41.245,23,48,75,63,22,10,7,10
41.25,-27,-34,-71,-35,-13,-9,-10,-17
41.255,24,14,22,19,7,0,1,9
41.26,11,-5,-47,-16,-7,0,21,16
41.265,-14,-16,-61,-39,-18,-12,-31,-17
41.27,1,13,29,17,4,1,-2,2
41.275,-16,-5,-6,-6,-3,-3,-6,-17
41.28,7,19,3,10,3,-2,5,1
41.285,-5,-10,-24,-21,-3,0,8,1
41.29,3,7,7,20,7,7,3,3
41.295,-1,-7,-62,-29,-9,-6,-2,0
41.3,-8,9,49,7,1,-4,-8,-7
41.305,-6,-3,-12,11,2,0,3,4
41.31,8,-5,4,13,3,-1,-3,3
41.315,-11,-13,-42,-31,-8,-3,0,-4
41.32,8,10,6,9,2,3,-4,7
41.325,-5,3,-8,-16,-3,-2,-1,-7
41.33,4,-6,15,14,-2,-2,2,5
41.335,1,3,-3,2,2,0,2,-6
41.34,-5,3,-58,-23,-10,-6,-8,0
41.345,1,0,45,16,3,2,1,-3
41.35,14,9,25,18,9,6,5,9
41.355,-16,-8,-44,-28,-14,-8,-7,-15
41.36,-2,-4,58,16,-1,-1,-6,-2
41.365,10,16,-30,22,9,4,6,8
41.37,-8,-22,-77,-35,-12,-8,-6,-4
41.375,-6,4,45,10,-2,-2,-3,-7
41.38,14,23,37,22,12,6,3,8
41.385,-10,-12,-43,-27,-12,-8,-4,-7
41.39,0,-7,49,13,-1,-1,0,-1
41.395,3,12,8,20,13,8,6,3
41.4,-14,-32,-43,-45,-19,-13,-8,-9
41.405,2,4,38,17,3,2,0,1
41.41,8,31,23,21,11,4,3,5
41.415,-12,-33,-15,-30,-13,-7,-5,-8
41.42,7,7,6,13,8,3,1,4
41.425,1,3,15,6,3,1,1,-2
41.43,-7,-13,-7,-26,-9,-4,-5,-5
41.435,15,19,55,30,9,4,4,8
41.44,-19,-14,-50,-12,-2,1,-2,-9
41.445,-7,-11,3,-21,-10,-6,-5,-9
41.45,3,2,9,8,3,2,4,7
41.455,-3,11,38,2,1,0,-2,-12
41.46,15,17,41,15,7,4,1,10
41.465,-9,-33,-78,-33,-12,-9,-5,-1
41.47,-1,4,-16,-9,-3,-3,-4,-1
41.475,1,7,43,18,6,4,2,-1
41.48,-3,-7,-28,2,-2,-3,-1,0
41.485,1,-2,4,-13,-5,0,-2,-5
41.49,-2,-6,-8,-2,-4,-2,-2,-3
41.495,3,10,23,15,5,2,2,4
41.5,-6,-16,-13,-19,-11,-6,-9,-12
41.505,8,15,46,20,12,6,8,12
41.51,-13,-39,-95,-44,-11,-7,-6,-15
41.515,0,5,-7,-1,-2,-1,-1,-1
41.52,-1,-15,3,6,1,-1,0,-1
41.525,3,9,52,15,3,2,0,-3
41.53,-2,0,0,-7,-7,-5,-3,2
41.535,0,1,-31,2,2,2,2,0
41.54,4,-3,-6,2,-1,0,-1,2
41.545,-9,-11,-40,-23,-8,-5,-5,1
41.55,5,22,73,26,6,2,3,2
41.555,-8,-31,-86,-22,-7,-2,-5,-6
41.56,3,8,39,12,1,-1,-1,4
41.565,0,5,16,14,1,0,-1,-3
41.57,6,10,-12,13,5,2,1,3
41.575,-6,-11,24,-11,-9,-5,-4,-6
41.58,-6,-11,-67,-28,-5,-3,-3,-3
41.585,-1,3,15,9,5,3,3,2
41.59,-3,-13,-14,-6,-4,-4,-7,-12
41.595,0,3,0,3,-2,-2,0,1
41.6,7,14,25,13,5,1,3,2
41.605,-8,-14,2,-10,-7,-2,-2,-4
41.61,5,4,53,25,6,5,4,8
41.615,-5,0,2,-13,-8,-5,-3,-6
41.62,8,8,44,4,1,-1,1,5
41.625,-3,0,-42,-19,-4,-3,-6,-5
41.63,4,8,20,3,2,-2,4,3
41.635,-4,-8,-8,7,4,2,0,-2
41.64,-8,-9,-8,-13,-9,-5,-3,-3
41.645,8,17,33,24,11,2,1,5
41.65,-4,-4,-20,-5,-3,-3,-1,-2
41.655,-10,-28,-49,-25,-9,-6,-7,-3
41.66,7,10,18,25,6,5,1,6
41.665,-9,-10,-52,-25,-9,-6,-4,-7
41.67,1,3,22,-6,-3,-1,-2,0
41.675,4,4,10,7,2,1,4,1
41.68,-6,6,37,2,2,2,0,-1
41.685,-13,-19,-9,-14,-7,-4,-5,-8
41.69,-6,-5,-69,-22,-8,-5,-4,-1
41.695,12,14,27,8,3,0,1,3
41.7,13,11,5,6,3,1,3,3
41.705,7,0,58,16,2,3,1,-2
41.71,-18,-21,-41,-13,-2,-3,-6,-8
41.715,3,11,-3,0,0,1,1,0
41.72,-8,-17,-72,-22,-9,-4,-3,-5
41.725,17,8,17,-4,1,1,1,5
41.73,5,7,46,12,2,2,0,2
41.735,-11,-18,-68,-9,-7,-5,-3,-3
41.74,14,3,-16,-11,-4,-1,-1,1
41.745,9,10,17,17,4,2,4,8
41.75,-16,-12,6,-3,0,-3,-3,-5
41.755,-8,9,17,13,5,0,-1,-9
41.76,-9,-13,14,-8,-7,-5,-4,-7
41.765,2,-3,-32,0,-2,0,-2,-2
41.77,12,11,24,1,-1,0,1,4
41.775,6,-4,-5,-2,-1,0,3,6
41.78,-6,9,-21,19,5,2,1,0
41.785,-21,-4,42,-16,-4,-5,-3,-8
41.79,-17,-21,-49,-17,-6,-4,-4,-5
41.795,1,9,-2,-8,-5,-2,-2,0
41.8,5,-6,13,0,-1,1,-1,2
41.805,13,20,28,22,8,4,4,8
41.81,-2,-1,-7,4,-3,-2,-1,-4
41.815,-8,-15,-2,-13,-3,-1,-3,-2
41.82,-11,-8,-30,-12,-4,-4,-4,-4
41.825,24,16,-10,4,0,1,1,6
41.83,27,-8,3,3,4,4,3,12
41.835,-37,6,7,7,-5,-4,-1,-3
41.84,-11,-2,34,1,-1,-4,-3,-11
41.845,-8,-10,-20,-7,-2,-4,-5,-7
41.85,69,29,-1,10,5,12,22,42
41.855,43,24,2,17,5,5,-2,-10
41.86,-104,-95,7,-20,-20,-24,-41,-72
41.865,106,12,-1,-5,-2,-6,11,32
41.87,68,80,12,28,17,7,-3,6
41.875,68,3,-8,-7,4,17,67,113
41.88,-66,-38,-3,-25,-18,-28,-41,-71
41.885,-97,-28,8,-1,-12,-10,-24,20
41.89,70,82,8,-1,4,2,-9,3
41.895,-67,37,2,21,25,33,28,-6
41.9,95,61,2,-29,-18,-12,8,-1
41.905,-128,-111,15,9,-1,-12,-33,-103
41.91,28,47,-25,-11,-13,-26,-42,-21
41.915,66,47,31,86,41,43,35,0
41.92,32,29,-5,-8,-12,-13,12,78
41.925,65,40,10,90,-11,-6,-9,-81
41.93,-97,-41,35,-80,-20,-24,-34,-40
41.935,-118,-128,-70,-28,-15,-9,-33,-33
41.94,107,98,14,65,25,23,29,41
41.945,61,3,27,54,26,23,22,7
41.95,0,-19,0,0,-10,-2,26,-5
41.955,81,90,0,-31,-13,-14,-13,93
41.96,3,4,-30,94,26,17,14,65
41.965,21,12,2,-128,-31,-19,11,54
41.97,-44,-35,11,81,2,-8,-4,-32
41.975,35,40,-2,-86,-16,-17,-33,-65
41.98,18,-10,-7,-9,-7,-5,-14,-16
41.985,55,104,-11,34,23,17,-6,-47
41.99,-18,8,-4,32,10,4,21,43
41.995,-19,-38,32,-56,-28,-14,-17,-34
42,-6,22,29,103,30,10,12,-2
42.005,-7,-26,-42,-104,-32,-1,15,33
42.01,-43,-47,-26,52,7,8,-1,-12
42.015,-1,11,9,41,-3,-16,-12,-15
42.02,-14,-21,22,-33,-8,1,0,-12
42.025,-17,-8,-28,1,6,0,0,30
42.03,30,0,1,-15,-3,0,-12,-13
42.035,20,11,31,15,-4,-7,1,10
42.04,-99,-81,5,-30,-2,6,6,5
42.045,3,24,-32,15,-1,-10,-4,-35
42.05,26,11,6,-70,-10,11,21,24
42.055,-51,-62,0,34,-4,-31,-32,-31
42.06,-4,7,-6,-41,-8,-4,-24,-13
42.065,-18,-23,1,15,-6,-9,-5,12
42.07,59,21,33,1,1,4,22,24
42.075,-85,-19,-38,-8,-3,-4,-6,-15
42.08,-5,6,3,22,5,0,-8,-20
42.085,60,62,8,-39,-10,0,4,24
42.09,-13,27,-54,7,-1,4,8,28
42.095,0,-53,-5,-42,1,3,18,38
42.1,30,11,-37,-13,-24,-8,-6,-47
42.105,26,45,29,-52,22,12,-3,20
42.11,-12,-33,-20,30,-5,5,16,15
42.115,30,36,-2,-30,-14,-14,-21,-53
42.12,21,-9,2,15,1,11,20,19
42.125,51,-12,-29,127,18,9,17,3
42.13,-9,7,14,-71,-4,2,-7,-15
42.135,-7,-13,13,29,10,12,15,28
42.14,19,21,10,-18,7,10,16,28
42.145,-60,-42,-50,-33,-20,-21,-25,11
42.15,11,-45,0,40,9,7,16,23
42.155,8,10,9,4,-4,-7,-11,-16
42.16,15,33,21,-17,3,2,0,-4
42.165,-19,-6,7,33,8,10,10,14
42.17,-6,18,21,34,1,1,0,-6
42.175,85,-21,-22,-63,-10,4,7,35
42.18,-24,10,25,-16,-4,-8,-11,0
42.185,-23,-21,-10,9,1,2,9,10
42.19,26,-2,-36,41,7,6,14,41
42.195,-65,-3,19,-26,-10,-8,-13,-53
42.2,6,-7,13,19,4,-3,6,21
42.205,-32,-18,7,-34,-12,-8,-12,3
42.21,-8,-8,-12,5,8,2,-11,-36
42.215,-13,-5,-27,4,2,1,13,50
42.22,14,41,46,-36,-11,-2,8,17
42.225,-76,-63,10,10,5,1,-9,-29
42.23,-25,-11,9,-58,-13,-13,-18,-12
42.235,31,12,-1,28,8,2,-3,2
42.24,-3,-5,-17,3,4,9,4,-15
42.245,38,23,23,-32,-9,-5,8,6
42.25,-30,-27,10,-10,0,-13,-27,-36
42.255,10,5,-6,13,-7,-5,-9,-18
42.26,11,10,20,12,8,6,9,44
42.265,0,-1,-20,14,4,5,6,8
42.27,-18,-11,24,-18,-11,-12,-15,-13
42.275,18,12,11,-4,-7,-5,-3,-15
42.28,-2,-5,-10,0,2,4,4,10
42.285,-7,10,-14,1,1,5,3,41
42.29,3,22,1,-2,12,5,5,-1
42.295,-37,-26,-11,21,-1,-2,-4,-27
42.3,-4,6,20,2,-8,-15,-16,-18
42.305,19,-7,15,4,6,1,-4,-10
42.31,7,-2,-27,11,-4,-3,4,-12
42.315,-7,-20,-9,-30,-8,2,-2,-17
42.32,-18,-18,4,-14,-3,-5,-4,-23
42.325,-4,21,30,10,4,3,-4,-20
42.33,3,-19,-37,1,-3,-6,-5,-1
42.335,14,15,28,9,3,3,3,11
42.34,4,17,-11,12,3,-1,-10,-30
42.345,1,1,21,25,4,1,1,8
42.35,-22,-19,-53,-36,-17,-5,-1,-17
42.355,-4,19,0,0,-4,-7,-12,-22
42.36,36,2,3,16,1,0,-4,-5
42.365,-13,16,14,-2,1,4,13,10
42.37,-7,-3,35,9,4,0,-4,-10
42.375,4,17,-28,14,4,8,15,26
42.38,26,11,4,4,-2,-3,-13,-9
42.385,-2,7,-4,-10,-6,-4,-1,-2
42.39,58,8,-12,-9,-2,-2,-6,1
42.395,-42,-26,18,-17,-5,-5,0,16
42.4,-22,-1,28,-9,3,1,0,1
42.405,7,-1,-15,-2,-3,-2,-4,-11
42.41,-10,4,5,8,0,0,-3,2
42.415,35,18,-2,31,4,0,0,8
42.42,-14,-34,-24,-67,-12,-1,7,17
42.425,-12,-4,11,-7,-4,-5,-7,-10
42.43,-9,11,4,2,-3,-1,2,9
42.435,7,0,12,11,6,0,-4,-1
42.44,-19,-7,-23,-7,-4,-2,-1,-4
42.445,8,2,-7,32,-5,-5,-5,-12
42.45,-3,12,27,-13,1,2,8,13
42.455,1,5,-25,-20,1,4,-1,-6
42.46,10,8,4,17,6,2,1,12
42.465,8,26,5,-5,-2,-3,-2,-4
42.47,-23,11,-2,10,-3,-1,-3,-8
42.475,5,-1,19,10,1,-3,-10,-36
42.48,11,-9,-24,0,3,4,19,31
42.485,-28,-10,18,-22,-8,-6,-16,-23
42.49,-13,-9,-8,1,-1,1,-4,-5
42.495,6,-2,7,14,3,-1,-1,4
42.5,-10,-7,-8,-5,-2,-1,-8,-14
42.505,8,1,-25,29,7,13,33,35
42.51,-38,-43,26,-42,-7,-14,-29,-39
42.515,3,15,9,11,-1,0,3,8
42.52,-2,-6,-20,11,0,-1,-4,-12
42.525,-8,-10,-11,-22,-5,-3,-1,10
42.53,6,6,18,15,0,4,6,4
42.535,7,-2,-26,3,-4,-1,0,1
42.54,-9,4,5,-36,-5,1,1,0
42.545,10,-13,-3,15,8,0,-5,-6
42.55,1,-2,17,20,5,4,4,7
42.555,5,-3,-6,10,1,-4,-5,-2
42.56,-5,-10,-12,-5,-11,-5,1,-1
42.565,-2,-7,-12,-18,-7,-2,-6,-11
42.57,18,-12,14,9,-1,-3,4,4
42.575,-42,3,27,-1,-2,-2,3,1
42.58,11,1,-4,17,4,0,5,-5
42.585,-1,-9,-12,-33,-8,3,-6,0
42.59,0,-2,25,5,-6,-15,-14,-16
42.595,15,0,-5,-15,-1,-4,10,18
42.6,1,5,1,5,4,4,-9,-4
42.605,-13,-2,6,22,3,1,-11,-45
42.61,32,16,-26,2,4,8,80,79
42.615,-19,-15,-16,-11,-5,-6,-55,-7
42.62,-8,-8,-1,-8,-7,-13,-4,-40
42.625,-3,11,-16,5,3,2,-8,5
42.63,-4,-7,-30,-23,-10,-2,-4,4
42.635,13,0,-4,6,1,-2,8,-9
42.64,-8,-23,-61,-16,-5,3,5,62
42.645,1,6,54,-9,-5,-5,-2,-10
42.65,-11,-16,46,16,4,3,-11,-37
42.655,21,15,-22,6,3,4,14,-5
42.66,-12,-5,-59,14,-5,-2,-13,1
42.665,16,9,-1,14,14,8,21,-34
42.67,-27,-40,-48,-65,-30,-19,-27,-12
42.675,12,34,124,47,15,4,-1,40
42.68,-9,-32,-73,-53,-13,-6,4,-44
42.685,6,19,-9,41,12,0,38,64
42.69,-25,-16,-12,-31,-8,-3,-46,-37
42.695,-4,-30,-17,-29,-18,-11,7,0
42.7,13,24,90,39,15,8,17,32
42.705,13,-2,-41,11,6,10,4,-6
42.71,-7,-17,-22,-31,-11,-4,7,10
42.715,-3,10,58,10,0,-1,14,16
42.72,-1,-12,35,-5,0,-12,-47,-46
42.725,-20,-7,-35,-53,-25,-16,-25,4
42.73,17,35,79,73,32,24,13,0
42.735,-48,-20,-44,7,-13,-6,6,3
42.74,4,19,25,17,12,7,15,-25
42.745,16,0,24,-23,-9,-3,-3,45
42.75,13,29,-1,28,10,8,10,-3
42.755,13,-4,-69,-35,-8,-5,-18,-19
42.76,-11,-20,31,19,8,13,83,61
42.765,-11,1,14,-30,-25,-30,-108,-57
42.77,-41,-2,-12,4,9,-1,6,2
42.775,17,0,11,-6,-3,-4,-16,-33
42.78,-31,-22,-56,20,2,1,23,-9
42.785,28,19,112,45,20,16,26,38
42.79,7,38,-78,-46,-13,-5,-11,-28
42.795,-12,-13,-7,-3,-9,-7,-15,-11
42.8,12,9,-27,2,6,3,-18,29
42.805,-6,29,56,10,-1,-3,31,-9
42.81,-9,-39,32,8,1,-3,-7,-17
42.815,15,0,-4,-6,-1,3,5,21
42.82,3,19,-6,-16,-12,-4,-15,-3
42.825,-3,-21,24,15,4,1,-6,2
42.83,28,24,-7,36,21,11,15,17
42.835,-20,-22,14,-33,-19,-9,5,-7
42.84,17,10,58,8,-4,-4,-11,2
42.845,-13,-12,-14,-1,0,-3,-11,-16
42.85,8,7,30,32,6,3,9,18
42.855,8,-14,10,10,1,3,1,7
42.86,-2,7,0,-8,1,-3,-22,-18
42.865,-20,2,-18,-15,-2,1,17,-13
42.87,-1,6,71,18,-1,-1,-2,15
42.875,6,-24,-100,-23,3,3,-2,-5
42.88,-4,-8,67,-19,-13,-10,-7,-1
42.885,10,-1,1,1,1,1,9,1
42.89,9,6,45,-9,-7,-5,-10,9
42.895,-9,-21,2,12,3,1,3,-9
42.9,8,-6,-62,-17,-6,-3,-3,5
42.905,3,-22,-10,-18,-8,-6,-4,25
42.91,-45,-3,-62,-4,-6,-3,-9,-61
42.915,12,34,60,30,11,5,-3,6
42.92,-6,-17,-37,-37,-14,-7,-12,-4
42.925,3,4,7,17,4,2,3,5
42.93,3,-10,9,-25,-8,-2,-8,-5
42.935,9,3,13,5,3,1,9,6
42.94,-3,21,36,23,7,4,6,1
42.945,-9,-35,-107,-31,-15,-9,-7,-9
42.95,23,17,78,34,6,4,7,18
42.955,-20,-6,-111,-70,-16,-7,-7,-22
42.96,18,17,76,20,5,1,-5,7
42.965,-4,18,-17,14,7,5,9,-5
42.97,-4,-5,-8,-18,-4,-5,-2,7
42.975,6,11,-10,22,6,1,-3,0
42.98,-6,-9,11,-4,1,-1,-2,-11
42.985,-4,-7,-11,-6,-4,-1,2,-5
42.99,11,8,41,38,12,5,0,8
42.995,-17,-9,-18,-52,-22,-11,-8,-12
43,-9,-14,6,9,2,2,1,10
43.005,2,-2,-14,2,1,-1,-4,-30
43.01,13,14,30,0,2,1,-3,11
43.015,0,-3,63,28,8,3,4,6
43.02,3,1,-36,-6,-3,-3,0,-9
43.025,-7,0,42,-7,-4,-3,-11,1
43.03,-17,-21,-54,-25,-10,-7,-4,-12
43.035,16,16,45,27,12,5,8,1
43.04,1,-7,26,4,-2,-2,-5,-9
43.045,-2,24,7,-1,1,0,7,10
43.05,24,-9,-24,8,1,0,2,11
43.055,-31,-42,-15,-28,-11,-7,-5,-11
43.06,21,27,9,4,2,2,3,11
43.065,-4,-22,-11,-3,4,2,3,-7
43.07,-17,-20,7,-23,-16,-12,-9,0
43.075,10,31,39,20,13,9,5,8
43.08,6,-15,-34,-4,-4,-6,-5,-2
43.085,-1,1,6,14,7,3,6,10
43.09,-19,-16,-46,-47,-21,-13,-9,-10
43.095,16,20,14,28,8,5,4,5
43.1,-4,14,60,11,1,-1,1,-9
43.105,-12,-14,-53,-18,-7,-4,-7,-7
43.11,7,2,5,-1,1,-1,0,-2
43.115,2,7,8,14,3,2,1,1
43.12,-4,-11,11,-13,-7,-4,-5,-3
43.125,28,21,17,11,3,1,1,8
43.13,-5,-23,-97,-26,-6,-4,-2,-1
43.135,-24,10,23,12,0,-1,-2,-9
43.14,-34,1,35,10,5,2,-3,0
43.145,-11,-27,-1,-14,-11,-8,-11,-37
43.15,6,14,35,2,-8,-2,-2,3
43.155,33,30,-9,24,8,4,5,9
43.16,2,-12,41,-3,3,3,1,-5
43.165,1,3,-38,-6,-1,-3,-1,9
43.17,3,1,-31,-9,-1,0,0,5
43.175,4,-2,-40,-12,-2,3,2,-4
43.18,-15,-5,-18,4,-5,-5,-4,-2
43.185,-2,-8,25,11,1,1,0,2
43.19,-4,-5,-40,-3,3,2,-1,-2
43.195,-2,-7,10,-4,0,-3,0,3
43.2,8,15,7,18,5,2,2,-1
43.205,-6,-13,21,-18,-9,-2,-2,1
43.21,4,12,14,15,4,1,2,-1
43.215,-7,-2,1,3,2,-1,-1,0
43.22,7,0,7,0,-1,-1,-2,-4
43.225,-12,-17,-68,-13,-5,-5,-3,-8
43.23,-13,14,69,3,1,-1,0,2
43.235,12,-15,-7,-1,-6,-4,-4,-4
43.24,3,10,6,-7,-2,0,0,0
43.245,3,0,-16,3,3,1,3,7
43.25,-2,-5,-16,-1,-5,0,-2,-3
43.255,0,-6,41,-3,-2,-2,-2,-4
43.26,2,5,-1,-3,-2,-3,-3,-4
43.265,16,12,24,9,4,3,3,7
43.27,-9,-6,-13,6,3,-1,2,0
43.275,-8,-3,14,-6,-3,-1,-2,-4
43.28,-10,-9,-20,-1,-3,-1,-1,-1
43.285,5,2,3,5,0,-2,-2,-1
43.29,4,6,23,4,2,0,1,0
43.295,-6,-1,-9,-2,-2,-2,-1,0
43.3,6,-12,-18,-10,-1,-1,0,-3
43.305,-8,-9,20,-2,-3,0,-2,-3
43.31,-2,-2,-19,6,0,0,-1,-1
43.315,3,2,64,-13,3,0,0,1
43.32,-4,-4,-45,-12,-10,-7,-4,-3
43.325,-5,-2,9,-10,0,-2,-1,0
43.33,-1,4,-2,6,2,2,0,1
43.335,0,-3,18,7,-3,-2,-1,-2
43.34,-3,-1,-2,2,1,0,0,0
43.345,-4,-3,3,-4,-6,-3,-2,-1
43.35,3,0,21,9,1,-2,-2,-1
43.355,-4,-4,-10,-11,-1,1,-1,-1
43.36,-4,-1,2,0,-3,0,-1,-2
43.365,3,6,13,7,-2,-1,-2,1
43.37,4,-3,-16,-3,2,1,1,3
43.375,-7,-4,-17,5,-1,-3,-4,-2
43.38,-2,9,-13,0,-4,-3,-1,-1
43.385,-3,15,35,11,2,0,0,0
43.39,3,-2,-14,-8,-4,-2,-4,-2
43.395,0,-3,-11,-1,0,0,0,0
43.4,-10,-1,-12,-1,0,0,0,1
43.405,8,-11,-9,-17,-5,-4,-1,-5
43.41,13,3,22,3,1,-1,-2,2
43.415,-26,20,11,7,0,0,1,-4
43.42,-27,-17,-28,-7,0,-1,-4,-7
43.425,5,-8,10,6,2,1,2,3
43.43,-7,-5,-34,-16,-6,-5,-2,-3
43.435,3,-5,5,-6,-2,-1,0,0
43.44,0,-8,-1,5,0,1,1,0
43.445,-2,5,-6,12,1,2,-1,-1
43.45,2,8,-2,-6,-1,0,0,-1
43.455,-1,-13,-3,-5,-4,-3,-3,-2
43.46,9,4,17,4,-1,-1,0,0
43.465,-4,-8,-22,-9,-2,-1,-1,-4
43.47,-10,-6,27,-3,-6,-2,-1,0
43.475,1,3,-1,8,1,-2,-1,-2
43.48,6,-9,2,2,-1,-2,-3,-3
43.485,9,11,0,-5,-2,0,2,4
43.49,6,0,-4,3,1,1,-1,2
43.495,-17,-6,6,-9,-3,-1,-1,-5
43.5,-18,19,8,3,-1,-2,-5,-10
43.505,-20,-33,-49,-10,-6,-6,-6,-8
43.51,0,5,-18,-3,-3,-1,-1,0
43.515,20,8,6,2,1,-2,0,4
43.52,11,-2,8,-3,0,0,2,3
43.525,4,12,22,5,2,2,1,2
43.53,-1,-9,0,-1,0,-1,-1,-1
43.535,9,-5,0,0,0,3,5,2
43.54,0,-6,-11,-4,-2,-2,0,6
43.545,-4,1,12,5,0,0,-10,-6
43.55,-5,-5,-14,-7,-5,-2,-2,-2
43.555,-5,0,0,-4,-4,-4,-4,-6
43.56,-1,-9,-14,-4,-1,0,4,4
43.565,0,2,9,-5,-1,-2,3,1
43.57,-6,-13,-45,-6,-1,-1,-3,-5
43.575,3,-1,36,-6,-7,-6,-2,-1
43.58,19,10,9,1,0,1,-1,1
43.585,-28,0,13,6,1,-1,1,-2
43.59,28,6,12,-1,1,-3,-3,4
43.595,36,11,-26,3,4,4,5,12
43.6,-71,-28,-6,-3,-3,-3,-4,-17
43.605,-38,-16,4,-9,-7,-6,-6,-18
43.61,-6,4,36,10,-1,-2,-4,-4
43.615,41,0,-47,-5,-4,-1,-3,4
43.62,18,10,3,-3,-3,0,-1,6
43.625,24,5,-14,-5,4,5,10,12
43.63,-24,-2,26,6,-2,-5,-2,-10
43.635,-21,-8,-1,-8,-4,-6,-9,-10
43.64,19,1,-19,9,-4,-4,-3,-3
43.645,17,-4,18,2,1,3,0,3
43.65,0,-9,8,-1,2,5,5,13
43.655,2,23,-62,-1,-3,-1,1,0
43.66,-39,-9,4,-16,-2,-4,-3,-5
43.665,4,-13,-10,3,-1,-2,17,-6
43.67,-35,8,26,4,2,1,-20,3
43.675,-19,-23,13,2,-1,-2,-7,-16
43.68,7,29,3,-7,-1,4,7,18
43.685,36,-7,-14,3,-1,-3,-2,1
43.69,12,8,-10,9,3,0,12,8
43.695,13,18,3,-8,-4,-3,-3,28
43.7,-90,-11,-3,0,2,4,-2,-27
43.705,32,-21,10,-37,-5,2,3,11
43.71,-35,24,0,68,-4,-2,14,27
43.715,-103,-60,24,-38,3,2,-9,-55
43.72,48,-13,41,38,8,-4,-6,2
43.725,22,-5,-83,-29,-3,0,-7,-12
43.73,23,26,26,-53,-5,10,23,44
43.735,71,74,41,0,-4,-7,-30,-47
43.74,-18,-12,17,21,19,17,30,90
43.745,64,34,10,-11,-8,-15,-44,-51
43.75,127,100,-48,101,59,60,84,79
43.755,-45,-80,49,-93,-60,-48,-41,-86
43.76,78,39,8,-7,-11,-13,-4,-27
43.765,80,71,15,54,9,5,-25,45
43.77,-36,-4,-27,-31,-11,-5,0,-10
43.775,40,31,10,40,20,10,-29,42
43.78,33,19,-20,26,6,3,7,-46
43.785,-113,-39,12,-32,-17,-10,4,17
43.79,100,38,5,-33,-3,-9,4,-65
43.795,92,55,-15,93,30,15,20,37
43.8,-100,-71,-26,-98,-34,-23,-23,-13
43.805,47,35,-11,85,20,22,36,-27
43.81,-128,-33,34,-37,-18,-26,-48,-21
43.815,-14,-53,-10,-28,7,8,16,-9
43.82,64,7,39,80,35,21,34,98
43.825,16,32,-1,-46,-5,-18,-27,-67
43.83,17,-45,-6,-81,-32,-21,-36,-34
43.835,116,82,-21,-13,9,20,34,121
43.84,-48,12,13,64,-3,15,46,47
43.845,-97,-72,17,-12,-9,-19,-34,-30
43.85,-92,-117,-50,-5,-17,-25,-40,-41
43.855,83,44,-57,3,-5,-3,0,-52
43.86,-37,33,5,12,-11,-31,-67,-76
43.865,41,23,-20,62,18,18,44,48
43.87,127,43,-6,8,14,14,16,55
43.875,-56,10,15,72,9,-1,-11,73
43.88,-30,-85,-51,24,-7,-2,-3,-45
43.885,95,45,71,-33,-18,-24,-45,-34
43.89,-1,12,-5,38,15,11,11,28
43.895,-115,-60,-25,44,-5,1,20,-54
43.9,127,67,-2,-101,0,10,-2,50
43.905,-69,-62,2,45,11,10,-5,5
43.91,20,23,41,-70,-19,-26,-11,-42
43.915,-11,-9,40,-20,-10,-13,-14,-10
43.92,96,118,-18,50,4,1,-5,-44
43.925,-54,-75,29,-115,-9,14,42,88
43.93,-35,-42,9,44,5,-8,-48,-89
43.935,-83,-29,-5,1,-12,-7,2,-10
43.94,38,-20,-37,-45,-5,-6,-16,-41
43.945,71,79,-16,-16,0,3,15,60
43.95,-34,45,1,114,3,-5,22,52
43.955,101,-22,-28,-57,-9,-3,-23,-44
43.96,64,20,4,8,-1,-3,-2,11
43.965,35,50,-62,24,-3,-2,0,-38
43.97,-77,-56,20,-54,-8,10,10,45
43.975,13,-22,20,96,22,12,50,22
43.98,-83,-35,36,-42,-9,-20,-43,-51
43.985,-40,27,-18,48,12,9,4,-11
43.99,2,10,0,-55,-13,0,4,9
43.995,-91,-48,-9,-7,2,3,6,15
44,-25,-13,-12,-13,-9,7,20,38
44.005,-107,-45,-13,84,20,6,10,17
44.01,111,66,25,-75,-4,0,-14,4
44.015,-31,-15,5,44,10,5,16,44
44.02,3,-29,54,-41,-7,-13,-24,-18
44.025,24,36,-42,-38,-15,-11,-24,-38
44.03,-67,-95,-43,75,9,6,19,-2
44.035,1,54,-19,-107,-13,-4,-14,-33
44.04,26,32,2,-4,-2,8,21,-15
44.045,30,-28,72,11,-9,-25,-38,-21
44.05,34,23,-5,24,6,5,-9,-22
44.055,34,-30,-8,-12,-11,-8,20,36
44.06,-6,-30,-8,-1,1,-3,-21,-19
44.065,23,10,-6,-25,-6,2,20,26
44.07,18,15,-11,39,3,-8,-12,-14
44.075,-31,15,8,-21,1,4,-2,8
44.08,43,68,-57,89,23,18,44,66
44.085,-123,-103,104,-92,-48,-22,-21,-71
44.09,27,44,-52,13,-7,-14,-31,-14
44.095,56,51,-5,17,6,20,40,53
44.1,-114,-48,-25,1,-6,-10,-18,-12
44.105,122,118,-55,101,32,18,21,-1
44.11,-107,-78,117,-81,-27,-4,9,-42
44.115,11,-9,59,-17,-15,-19,-39,-39
44.12,53,17,-46,-21,-7,-4,-7,33
44.125,-21,23,23,51,-5,2,47,104
44.13,-79,-85,21,14,-5,-26,-59,-81
44.135,47,30,-16,51,22,23,32,0
44.14,41,-7,52,-50,-19,-12,-20,-33
44.145,-25,32,-53,29,23,16,7,1
44.15,-46,-14,-4,-19,1,5,10,9
44.155,-32,-26,-5,-55,-14,-5,-4,-8
44.16,-44,-19,-28,83,9,1,4,-9
44.165,-12,22,19,-10,3,-1,-17,-26
44.17,51,28,-35,6,11,12,17,-2
44.175,-27,-20,-5,-23,-8,-10,-20,-42
44.18,47,44,-13,114,21,13,25,23
44.185,39,-71,31,-97,-32,-19,-22,-13
44.19,32,-25,6,5,-9,-14,-20,-6
44.195,76,118,-65,110,29,20,36,41
44.2,6,-50,101,-71,-26,-13,-24,-36
44.205,-31,-37,-20,57,4,-3,-9,-52
44.21,70,47,-38,64,14,17,27,33
44.215,-39,-22,6,-2,-20,-26,-49,-38
44.22,-11,23,39,-57,4,4,5,21
44.225,40,19,-6,-12,27,30,52,94
44.23,-25,-12,36,-40,-23,-21,-36,-53
44.235,14,5,-15,40,4,-9,-19,-20
44.24,-120,-31,-47,60,11,5,26,36
44.245,-76,0,8,-35,-18,0,-28,-47
44.25,40,14,13,39,6,0,12,31
44.255,-28,-32,12,-48,-9,2,4,14
44.26,26,41,-19,78,9,-6,-12,6
44.265,32,-45,-9,-35,-5,-6,-9,-2
44.27,56,53,-25,9,4,21,39,25
44.275,-91,-68,48,-38,-9,-18,-32,-15
44.28,91,69,-49,29,11,15,6,24
44.285,-33,-27,18,18,-3,-2,18,5
44.29,-25,-23,10,20,-13,-9,-9,-6
44.295,51,36,-8,29,3,-6,-11,0
44.3,3,-27,-12,-55,-9,-2,-14,-7
44.305,61,38,-19,57,14,9,21,35
44.31,-9,-32,28,-37,1,3,5,-24
44.315,-8,-5,17,0,2,-6,-18,-15
44.32,-19,-34,16,-38,-9,-9,-1,-10
44.325,-12,34,-27,-14,-8,-8,-11,-9
44.33,3,9,-44,6,8,8,10,16
44.335,20,24,19,16,9,8,13,16
44.34,3,-26,3,-35,-16,-6,-7,-27
44.345,-4,-10,-4,18,5,-4,-14,-10
44.35,-20,12,-2,-36,-3,1,8,34
44.355,29,3,-10,-12,-7,-2,2,-2
44.36,-18,-11,-4,-7,4,1,2,-13
44.365,-13,1,-16,-9,-6,-1,-22,1
44.37,1,5,14,22,6,4,8,23
44.375,8,-2,-22,-6,-1,-3,5,10
44.38,4,12,30,-52,-10,0,24,21
44.385,4,-29,-11,9,-4,-9,-9,-15
44.39,16,23,10,14,6,12,-13,-11
44.395,8,-9,0,-10,-1,4,12,18
44.4,-7,-10,14,7,-3,-15,-3,4
44.405,-12,-6,3,-20,-6,-7,-6,-13
44.41,2,6,-9,0,1,-2,8,10
44.415,-5,-8,29,19,3,8,-8,-15
44.42,-12,-25,-36,-26,-2,5,6,-7
44.425,14,5,12,-11,-2,-2,5,6
44.43,0,-10,-39,-13,0,-3,-1,1
44.435,1,8,19,7,-1,-1,-13,2
44.44,-17,28,38,12,-1,1,-6,-35
44.445,7,-1,-6,-13,-3,-1,-1,12
44.45,10,0,-16,14,2,-5,-2,8
44.455,18,-1,-11,-4,1,14,25,25
44.46,-38,-29,14,-15,-8,-19,-27,-53
44.465,-3,9,23,8,1,-4,12,14
44.47,7,11,6,-8,-2,2,5,-10
44.475,-22,-14,-10,-4,-3,-3,-9,-3
44.48,22,-6,12,5,-1,0,-31,13
44.485,3,-5,0,3,0,-2,9,-16
44.49,1,-1,32,-1,-1,-7,-17,21
44.495,-8,-7,6,-6,-1,-2,11,-50
44.5,8,-3,-47,-5,3,5,4,-2
44.505,-7,10,22,2,1,1,-1,-5
44.51,7,-1,8,1,-3,-3,4,3
44.515,-10,-10,-9,-5,-2,-4,-6,0
44.52,9,16,25,31,9,7,10,11
44.525,-2,-10,-13,-7,-2,-1,1,7
44.53,-15,-15,-11,-32,-13,-9,-15,-29
44.535,3,-19,-22,15,2,-3,-1,-3
44.54,10,-12,-68,-41,-5,-2,2,2
44.545,1,-1,-10,3,-2,2,0,7
44.55,-11,9,14,19,2,-3,-12,-14
44.555,8,25,85,15,5,0,-1,13
44.56,-1,1,-55,-17,-3,10,3,9
44.565,2,-4,20,-5,-5,-7,-5,-11
44.57,-5,-11,-19,-2,5,-1,20,7
44.575,-3,8,-19,-6,-5,-4,-33,-13
44.58,0,23,98,56,15,5,-4,-1
44.585,9,-16,-94,-73,-20,-6,-6,9
44.59,4,11,46,27,9,5,-8,-12
44.595,-4,4,18,14,9,7,27,18
44.6,1,-32,-27,-35,-18,-12,-1,-8
44.605,2,27,22,23,5,4,-5,-11
44.61,-6,-49,-77,-55,-17,-16,-5,-15
44.615,15,45,62,68,22,15,6,-9
44.62,-27,-36,4,-11,-2,-3,11,-11
44.625,4,15,82,12,-5,-3,8,11
44.63,41,26,31,61,14,11,59,104
44.635,-51,-57,-98,-118,-39,-33,-106,-100
44.64,19,41,76,48,13,5,12,12
44.645,-17,-31,-42,-3,-1,-2,-6,-7
44.65,-15,48,9,2,-3,13,49,-15
44.655,19,30,20,38,15,4,23,47
44.66,-18,-52,-70,-91,-36,-30,-29,-11
44.665,13,10,105,60,19,13,10,16
44.67,-15,-35,-21,-25,-5,-4,-20,-23
44.675,-16,-2,-22,-20,-11,-2,29,-30
44.68,22,13,-90,33,10,7,-1,26
44.685,-12,1,19,3,0,-1,17,-28
44.69,-3,37,104,17,8,3,-21,-26
44.695,1,-70,-62,-19,-10,-6,2,38
44.7,-17,-12,24,-22,-13,-12,-48,-28
44.705,18,24,67,53,19,11,-1,9
44.71,-22,-38,-59,-51,-21,-14,15,-32
44.715,11,10,26,17,6,6,5,39
44.72,25,45,123,72,26,14,19,-18
44.725,-36,-46,-82,-85,-38,-23,-33,3
44.73,26,25,95,65,21,7,-18,4
44.735,-14,-19,46,-25,-15,-10,16,11
44.74,32,31,29,43,19,22,62,41
44.745,9,5,9,-10,-3,-9,-45,-20
44.75,-1,-9,37,-15,-5,-3,-5,8
44.755,1,18,-75,19,12,6,21,2
44.76,-3,-7,10,-1,-4,-5,-11,4
44.765,-2,-9,51,14,5,3,22,-1
44.77,1,0,-9,-14,-8,-6,-15,4
44.775,-11,-13,-26,-17,-10,-5,-14,-15
44.78,6,26,43,26,11,6,12,12
44.785,0,-12,-55,-27,-6,-3,-1,5
44.79,-6,-8,-36,5,-1,-1,-13,-12
44.795,-1,16,38,0,3,2,1,2
44.8,-6,0,-21,-13,-2,-2,-3,5
44.805,5,16,13,13,1,3,8,-9
44.81,-16,-33,-53,-39,-15,-9,-18,-9
44.815,20,37,61,36,12,7,13,9
44.82,-33,-9,11,-18,-17,-12,-9,-11
44.825,-3,-3,-24,-44,-9,-5,-2,-1
44.83,8,16,30,30,10,4,0,1
44.835,12,20,26,6,5,2,14,24
44.84,-7,-29,-86,-4,-1,-1,-8,-29
44.845,-10,3,-7,-12,-8,-6,-11,-1
44.85,1,1,-12,-1,-1,1,-2,5
44.855,-11,-18,48,-12,-8,-5,-4,-9
44.86,4,3,4,0,4,1,8,8
44.865,11,8,17,30,14,8,12,5
44.87,-14,-37,-76,-49,-16,-10,-14,-18
44.875,-11,-8,-53,-2,-3,-3,-6,-13
44.88,1,-3,33,-6,0,0,-2,6
44.885,-7,0,-43,-18,-7,-4,1,-11
44.89,12,30,90,34,12,6,-4,10
44.895,-1,-8,-20,6,-1,-1,-1,6
44.9,-13,-6,60,-37,-17,-12,-10,-23
44.905,8,2,-28,6,4,2,1,-3
44.91,3,7,26,13,3,0,5,6
44.915,-11,-13,15,-19,-10,-6,-6,-5
44.92,6,-4,21,14,4,2,1,11
44.925,-14,-31,-32,-4,-2,-3,-2,-9
44.93,3,16,36,13,4,1,1,1
44.935,-11,-25,-35,-17,-11,-7,-9,-11
44.94,2,7,-4,-12,-1,1,3,4
44.945,-7,3,43,3,-2,-1,3,-5
44.95,-3,-10,-39,2,-1,-3,-9,2
44.955,9,5,3,-7,3,3,3,-2
44.96,-9,27,-14,1,0,2,1,2
44.965,4,2,-52,4,2,-2,3,3
44.97,2,0,14,2,0,-2,-2,-1
44.975,2,-1,20,5,2,4,3,3
44.98,-7,-26,-54,-33,-11,-4,3,-7
44.985,10,10,28,11,2,1,2,3
44.99,-2,-3,-20,6,1,0,3,-1
44.995,2,7,8,-4,1,-1,-4,-1
45,1,-13,-23,-2,-4,-3,-5,2
45.005,-2,1,14,1,-5,-2,-2,-2
45.01,4,1,5,1,1,2,2,0
45.015,3,4,-33,3,0,-1,-1,1
45.02,7,-15,-35,-3,-1,0,-2,2
45.025,-15,-8,27,1,-2,-3,-3,-5
45.03,-6,-10,-50,-3,-3,-2,-2,-1
45.035,-3,4,3,-16,-5,-4,-10,-8
45.04,14,23,6,12,5,2,9,2
45.045,13,-44,3,8,-1,-2,-4,0
45.05,5,4,-3,3,3,4,4,4
45.055,-8,-3,16,10,-2,-4,11,3
45.06,-6,-10,7,-13,-3,-3,-1,0
45.065,3,7,16,10,4,2,-26,-10
45.07,2,23,38,-1,-3,-6,-33,-1
45.075,22,-6,-46,6,3,0,-4,-11
45.08,-42,-29,-1,-16,-10,-7,0,2
45.085,-3,9,-18,3,1,2,22,9
45.09,0,10,35,4,5,5,3,-8
45.095,-3,-7,-41,-14,-6,-2,-2,1
45.1,16,2,23,16,5,0,0,3
45.105,-1,8,-27,-23,-8,-2,1,-2
45.11,-11,-8,1,0,-6,-5,4,-4
45.115,4,-1,40,16,10,3,1,3
45.12,-27,-22,-10,-7,-3,-2,-4,-16
45.125,5,19,11,9,2,0,-4,3
45.13,16,6,5,-9,-5,-1,5,9
45.135,-18,0,-62,-28,-9,-5,1,-4
45.14,-23,26,21,9,0,-2,-12,-9
45.145,-4,-5,-16,1,-3,0,14,4
45.15,1,-22,5,-11,-5,-6,-9,-2
45.155,2,9,32,8,-1,-2,-3,-1
45.16,16,2,-15,-5,3,3,1,8
45.165,-1,-2,-4,20,3,1,0,-3
45.17,5,13,15,-9,1,3,9,0
45.175,-15,-28,-19,-21,-5,-4,-6,-6
45.18,3,-14,-15,-1,-7,-4,-6,-1
45.185,3,18,77,12,4,3,1,-1
45.19,-9,-23,-77,-19,-8,-6,-1,-7
45.195,1,19,45,17,6,3,-2,3
45.2,6,-17,-10,6,3,-1,2,1
45.205,-1,5,-26,-19,-5,-3,-6,-3
45.21,-8,-9,-27,5,-1,-2,1,-2
45.215,-2,-2,19,-8,-7,-2,1,1
45.22,13,3,-5,5,3,-1,0,-1
45.225,1,-3,14,8,3,-2,-3,-2
45.23,-6,2,9,8,4,2,1,-2
45.235,-4,-8,28,10,-1,0,5,4
45.24,1,-13,-83,-47,-10,-4,-6,-8
45.245,0,-7,34,7,2,0,-3,1
45.25,1,6,-2,-5,-5,0,3,0
45.255,-7,-8,17,-4,-3,-3,-3,-5
45.26,3,6,15,8,-1,0,0,3
45.265,8,-17,32,5,3,2,0,1
45.27,-9,-13,-80,-33,-12,-7,-4,-8
45.275,5,4,14,6,2,1,0,0
45.28,0,5,33,14,0,-1,1,2
45.285,-2,0,-10,-8,-1,-1,-2,-4
45.29,0,-10,39,12,2,0,1,2
45.295,-1,0,-8,-2,0,0,-3,-3
45.3,-3,-3,-1,-11,-7,-3,-3,-5
45.305,-1,0,-8,-2,0,0,-3,-3
45.31,-3,-3,-1,-11,-7,-3,-3,-5
45.315,4,-1,40,16,10,3,1,3
45.32,-27,-22,-10,-7,-3,-2,-4,-16
45.325,5,19,11,9,2,0,-4,3
45.33,16,6,5,-9,-5,-1,5,9
45.335,-6,-3,-29,-12,-3,-2,-3,-3
45.34,0,-5,30,10,2,0,-2,-3
45.345,-8,2,-35,-8,-4,-2,0,2
45.35,-6,14,12,5,-3,-3,-1,-3
45.355,-4,1,10,-9,-3,-2,-2,-5
45.36,0,-5,-5,0,-1,0,0,1
45.365,-4,-5,-16,1,-3,0,14,4
45.37,1,-22,5,-11,-5,-6,-9,-2
45.375,2,9,32,8,-1,-2,-3,-1
45.38,16,2,-15,-5,3,3,1,8
45.385,-1,-2,-4,20,3,1,0,-3
45.39,5,13,15,-9,1,3,9,0
45.395,5,11,-5,-1,0,-1,-1,1
45.4,-2,-26,-22,3,0,1,1,-1
45.405,6,6,26,1,-1,1,0,-1
45.41,-4,1,-2,-10,-4,-2,-3,0
45.415,-4,-6,-24,-8,-3,-3,0,-2
45.42,-1,11,42,10,1,-2,0,0
45.425,-1,-19,-27,3,1,0,-3,-1
45.43,5,-1,7,2,-2,1,0,2
45.435,6,14,20,8,2,0,2,0
45.44,-17,4,-14,-12,-3,-2,-2,-4
45.445,-4,-7,-24,-15,-7,-4,-3,-3
45.45,13,-4,-9,6,-2,-6,-3,2
45.455,-40,0,13,3,-2,0,-2,-3
45.46,-3,-2,-2,-8,2,1,0,-5
45.465,0,0,-22,-5,-5,-3,-1,-2
45.47,10,5,9,2,2,1,-3,1
45.475,18,-15,9,3,-1,-1,3,3
45.48,8,-8,-18,0,0,-1,3,3
45.485,-10,2,-3,-4,-3,-2,-5,-4
45.49,4,9,18,-2,-1,1,-7,-1
45.495,-2,-17,-13,-5,-1,0,-5,-3
45.5,-8,3,10,6,2,1,-1,-1
45.505,22,10,7,4,4,0,2,0
45.51,-13,-6,-11,-1,-2,0,3,2
45.515,-1,1,-16,-8,-2,-2,-4,-2
45.52,-6,2,4,2,-1,-2,-1,-4
45.525,-1,-2,11,6,-3,-5,1,5
45.53,1,9,-19,-10,0,1,3,0
45.535,11,1,-3,-1,-3,-2,-2,-3
45.54,1,5,11,5,3,2,1,3
45.545,-30,-19,-11,3,-3,-3,-4,-11
45.55,3,1,-2,-3,-3,-3,0,-3
45.555,12,10,10,3,3,1,1,3
45.56,-29,-25,-58,-30,-10,-5,-4,-4
45.565,11,9,26,10,2,0,-2,-4
45.57,8,1,0,-8,-3,1,5,10
45.575,-20,2,-4,-2,-2,-1,-2,-7
45.58,31,13,23,15,8,3,-1,4
45.585,33,7,-9,3,0,-1,-1,-4
45.59,-26,-14,-17,-7,-2,-1,-1,-4
45.595,44,13,2,-4,-5,0,0,10
45.6,-27,-13,3,0,-1,-4,-4,-9
45.605,32,25,4,1,1,2,5,13
45.61,7,19,18,15,3,-1,-2,-5
45.615,-63,-34,-27,-24,-6,-7,-5,0
45.62,90,25,18,4,-5,2,6,10
45.625,-63,-20,-7,-11,5,-2,-15,-33
45.63,51,30,0,26,6,3,11,40
45.635,-84,-34,-7,-32,-11,-12,-11,-46
45.64,-125,-75,2,-13,-7,-11,-21,-16
45.645,82,81,-4,17,17,22,27,39
45.65,-8,-17,29,20,7,0,-6,-45
45.655,97,62,-24,63,20,23,29,110
45.66,23,-72,37,-92,-41,-27,-18,-67
45.665,66,52,9,11,6,-1,-2,-4
45.67,-109,-87,-4,-12,-2,-2,-11,-54
45.675,20,-68,-8,-26,-16,-13,-22,-12
45.68,-76,80,-42,39,8,7,2,-10
45.685,37,-14,21,14,-1,-4,6,30
45.69,69,67,-33,-1,10,5,11,29
45.695,-38,14,15,-54,5,13,22,-10
45.7,63,16,3,21,-2,-1,-7,17
45.705,-83,-6,0,-14,-11,-13,-17,-36
45.71,8,67,-4,81,19,16,16,62
45.715,77,-61,-31,-96,-35,-23,-8,-27
45.72,115,127,-17,26,13,4,-5,-14
45.725,-86,-100,7,-18,-18,-1,20,-32
45.73,73,15,25,-18,-4,-13,-23,2
45.735,-47,36,5,34,11,13,22,23
45.74,73,33,42,17,8,-3,-14,14
45.745,64,43,8,7,-2,3,4,1
45.75,-66,-37,-31,-84,-25,-21,-18,-30
45.755,-27,-26,-34,78,14,6,0,-38
45.76,-55,-72,31,-41,-12,1,9,22
45.765,-53,2,-34,22,5,7,-3,8
45.77,51,-14,23,-11,-12,-13,-8,-17
45.775,127,127,11,103,19,3,-22,-5
45.78,8,-34,-10,-24,17,23,29,7
45.785,-12,-25,7,-23,-9,-12,4,15
45.79,-76,-76,-31,37,0,4,2,-34
45.795,125,68,27,-83,-11,-7,-8,12
45.8,-29,-25,-3,-13,-11,-14,-25,-31
45.805,74,20,3,33,-1,-2,6,-2
45.81,14,4,17,-5,1,5,9,9
45.815,43,12,5,-2,-3,2,5,6
45.82,-118,-82,-19,28,2,-1,-3,12
45.825,36,40,-18,-21,4,8,9,-4
45.83,68,5,34,-6,2,-1,-2,23
45.835,-47,-36,1,-44,-16,-14,-15,-27
45.84,72,48,8,22,8,10,24,37
45.845,-47,-43,-30,28,7,-9,-31,-21
45.85,33,45,1,-28,-2,14,27,69
45.855,-76,-48,41,-20,-2,-8,-15,-23
45.86,7,28,-14,-14,-3,-11,-2,0
45.865,-17,-11,-13,23,2,1,-6,-3
45.87,-11,37,-12,39,-8,-6,7,14
45.875,-59,-72,11,-3,1,-5,-14,-24
45.88,46,60,-18,46,0,-13,-26,-28
45.885,-23,-41,52,-89,-24,-11,-8,2
45.89,8,-3,-16,2,9,7,-2,2
45.895,-32,17,22,87,17,17,17,0
45.9,-21,-41,31,-64,-6,-2,15,18
45.905,25,28,-11,-18,-3,0,-10,-3
45.91,26,7,4,-3,-6,-14,-17,-20
45.915,-13,24,-16,57,-2,-1,10,32
45.92,-23,-8,-14,-44,-4,-1,-14,-21
45.925,35,56,12,79,13,-1,8,29
45.93,12,-64,-3,-32,-9,4,6,-25
45.935,-14,-12,-22,6,-4,-1,1,6
45.94,58,36,-20,49,0,1,8,24
45.945,64,43,8,7,-2,3,4,1
45.95,-66,-37,-31,-84,-25,-21,-18,-30
45.955,-27,-26,-34,78,14,6,0,-38
45.96,-55,-72,31,-41,-12,1,9,22
45.965,-53,2,-34,22,5,7,-3,8
45.97,51,-14,23,-11,-12,-13,-8,-17
45.975,8,-23,-13,-56,-17,-10,-8,-12
45.98,3,-2,-3,33,9,-1,-16,-18
45.985,-2,-16,-2,-32,-7,-7,-10,2
45.99,37,52,-3,1,-4,4,16,20
45.995,-10,-49,-12,-27,-4,-4,0,-5
46,1,49,32,-8,0,-9,-14,-14
46.005,-18,-30,-16,-18,1,2,-3,-9
46.01,-43,-67,-13,10,1,13,18,-13
46.015,-17,26,0,11,3,-6,-12,-7
46.02,-21,-20,-9,-16,7,7,2,-12
46.025,-23,6,-19,41,-5,-10,4,-15
46.03,29,-1,8,-42,4,6,1,13
46.035,-48,-43,-14,37,9,7,-1,-7
46.04,2,23,4,10,0,3,8,37
46.045,67,39,10,-26,-1,3,3,-8
46.05,-5,0,0,81,4,-4,-10,-36
46.055,7,23,-26,-103,-19,-3,-13,-16
46.06,-41,-1,45,-21,-5,-7,-6,1
46.065,-16,-11,-28,29,8,4,8,14
46.07,50,21,-18,34,-4,0,3,2
46.075,-42,20,6,19,-4,-14,-7,-19
46.08,-28,-41,-7,8,-2,5,-1,-32
46.085,-7,-4,16,1,-1,-12,-8,3
46.09,15,21,6,-41,-7,-10,-13,-22
46.095,40,9,1,41,8,16,22,24
46.1,6,14,-38,30,-1,-4,-1,-8
46.105,-7,-37,29,-74,-6,-4,-12,-12
46.11,-14,-10,-14,8,0,-2,-7,11
46.115,-6,-18,-4,20,7,9,6,26
46.12,31,33,17,-92,-12,-4,10,-35
46.125,28,3,37,26,2,-8,-14,-12
46.13,-22,4,-1,45,14,10,7,-8
46.135,25,-7,22,-68,-12,-15,-4,11
46.14,-20,-11,-20,31,0,-8,-16,-2
46.145,94,51,-67,27,11,25,27,45
46.15,33,-30,82,-68,-19,-6,12,-3
46.155,-4,-23,15,29,10,5,0,-3
46.16,7,24,-46,61,18,9,3,12
46.165,-22,3,60,-127,-39,-23,-16,-23
46.17,-33,16,-20,57,9,5,0,13
46.175,-10,-1,-85,126,52,14,16,51
46.18,28,3,117,-124,-77,-17,-24,-37
46.185,-52,20,-27,81,3,6,-14,-58
46.19,13,53,-63,88,42,35,55,47
46.195,61,-82,74,-112,-47,-35,-48,-35
46.2,7,-1,-36,67,20,3,2,-2
46.205,-3,3,-10,10,2,-2,6,14
46.21,7,-9,61,-23,-15,-14,-27,-9
46.215,-7,29,-38,23,10,15,17,-20
46.22,6,14,-28,29,17,16,28,62
46.225,50,-5,44,-49,-4,-4,-7,9
46.23,-33,-44,-45,-24,0,-5,-16,-12
46.235,-5,19,5,-8,4,19,33,41
46.24,-1,-29,31,-2,-10,-28,-40,-14
46.245,-52,7,-33,77,17,-2,-6,-10
46.25,-5,-9,13,-114,-31,-4,7,7
46.255,-37,-1,12,33,-3,-11,-20,-26
46.26,-51,-12,-19,24,9,10,10,5
46.265,30,-13,20,-1,0,-6,-7,7
46.27,3,11,-6,8,-6,-11,-13,1
46.275,15,17,3,-8,-10,-1,2,0
46.28,-9,-20,-22,-20,7,4,3,4
46.285,-6,-6,3,0,0,1,6,6
46.29,-18,-32,6,1,-5,-7,-9,-5
46.295,-2,15,-2,-37,-8,-4,-4,-1
46.3,-12,5,-7,43,13,3,7,-4
46.305,12,-7,-9,-24,-5,1,2,4
46.31,-12,18,9,9,2,-1,-3,1
46.315,26,10,4,1,-1,-3,0,-3
46.32,-13,-55,-7,-20,-11,-11,-5,-5
46.325,13,21,-12,5,5,6,10,22
46.33,-9,-4,-3,20,1,-6,-7,-12
46.335,4,-7,31,-12,-6,-5,-6,-2
46.34,-7,-7,3,5,1,3,5,-1
46.345,-1,9,-7,-2,-1,-1,-2,-16
46.35,-15,-2,-6,8,5,-1,-2,-9
46.355,-4,8,3,13,-4,-5,-11,-17
46.36,5,6,1,-9,-4,-3,-3,-1
46.365,-19,-7,4,-3,4,6,6,4
46.37,1,3,-6,-4,-2,-2,0,5
46.375,-10,-7,-13,8,-5,-3,1,-4
46.38,1,-3,1,-51,-3,0,2,7
46.385,-17,-5,12,20,-2,-1,-4,-6
46.39,4,-10,-1,3,4,-2,-1,0
46.395,3,-4,7,44,4,2,1,7
46.4,-4,-12,-15,-55,-1,1,0,-5
46.405,-7,1,-1,2,-7,-4,-3,1
46.41,12,1,13,3,-1,0,1,8
46.415,3,3,-2,3,1,0,1,2
46.42,12,46,5,17,0,-1,-2,3
46.425,-36,-12,-9,-4,-3,4,13,-10
46.43,-41,-32,14,-21,-9,-7,-7,-3
46.435,-8,2,1,-9,0,-6,-9,-7
46.44,17,1,1,19,3,1,2,-9
46.445,9,1,-1,-5,1,3,4,29
46.45,3,8,-12,9,-1,-5,1,-4
46.455,5,-8,0,-11,2,1,3,5
46.46,-7,-8,3,8,-2,-2,-4,-3
46.465,-3,-3,4,-2,-1,-4,-5,-9
46.47,5,-3,-8,-7,-2,-1,-1,-5
46.475,-1,-1,-9,-7,-1,0,2,4
46.48,-1,1,7,14,0,-1,-1,1
46.485,-4,-7,-3,-2,1,-2,-3,-7
46.49,15,-16,15,4,2,2,1,7
46.495,-9,7,-15,-8,0,-2,0,-3
46.5,0,-7,-7,3,0,-1,2,1
46.505,1,-5,-8,-7,-7,-6,-4,-2
46.51,-6,-2,7,-7,-3,-2,-4,-3
46.515,2,8,9,9,2,2,2,2
46.52,-4,-11,0,-4,-5,-1,-2,-2
46.525,-4,22,4,-4,-3,-2,-5,0
46.53,6,10,5,3,1,-2,-1,-1
46.535,-8,-7,-12,-8,-1,3,4,0
46.54,16,2,7,8,-3,-3,0,2
46.545,-3,-11,-3,-4,-3,-4,-2,-3
46.55,4,3,-6,0,1,0,-1,-1
46.555,-8,3,8,-1,-1,0,-1,0
46.56,-9,-9,0,-1,2,1,-2,-1
46.565,-3,-8,2,0,-1,-1,-2,-4
46.57,6,6,-6,-3,-3,1,1,2
46.575,1,-9,0,-1,-3,0,-1,0
46.58,-1,7,11,10,3,1,0,-4
46.585,7,-3,-12,-5,-1,-2,-1,-1
46.59,-2,-6,-26,-17,-6,-2,2,9
46.595,-1,-8,6,-15,-8,-6,-4,-1
46.6,0,6,39,13,3,2,4,0
46.605,4,7,-23,-14,-4,-2,-6,-1
46.61,-8,-3,6,14,4,-2,-11,-24
46.615,-16,-9,-4,-1,-4,-4,-7,-19
46.62,11,-5,-50,-25,-8,-3,-2,15
46.625,8,5,62,17,6,5,18,15
46.63,-10,6,-14,2,2,7,-18,36
46.635,17,10,20,0,1,-4,-2,-31
46.64,-18,-5,-13,20,0,-14,-6,32
46.645,4,-18,-23,-32,-10,-6,-20,-56
46.65,10,11,7,-1,0,1,30,19
46.655,-8,2,-47,10,7,4,-25,-33
46.66,1,4,24,-7,-3,20,36,10
46.665,-23,4,57,20,1,-10,6,-10
46.67,9,3,79,28,2,-15,-14,27
46.675,-11,-7,34,-24,-5,2,26,12
46.68,37,5,-13,-20,-2,2,-11,24
46.685,-36,-7,-33,1,2,-2,-41,-18
46.69,8,-6,2,10,-2,10,59,27
46.695,32,34,85,67,14,-5,-32,43
46.7,-36,-32,-77,-56,-10,-7,-105,-61
46.705,2,-2,71,5,-4,1,19,-32
46.71,-4,9,33,10,5,-1,4,-24
46.715,-1,-13,-23,16,6,7,43,25
46.72,9,6,42,4,-4,-2,28,1
46.725,10,-11,-56,-9,0,-1,5,38
46.73,-11,-34,-116,-41,-17,-13,-17,-23
46.735,-3,4,-19,12,2,7,21,-22
46.74,-1,16,23,-15,1,-2,-2,-5
46.745,24,-3,4,15,-1,3,83,73
46.75,-21,-37,-37,-49,-18,-18,-105,-33
46.755,5,14,13,21,10,7,-4,2
46.76,4,7,-40,25,5,1,20,-7
46.765,-3,2,26,16,8,6,32,11
46.77,-12,-20,-68,-27,-5,-3,-21,-39
46.775,-24,-18,41,-25,-16,-10,-24,-2
46.78,-4,10,50,26,8,2,-3,8
46.785,-2,-19,-66,-42,-14,-9,-12,-19
46.79,8,15,36,11,2,6,20,-3
46.795,4,2,-27,-16,-2,-1,-17,-1
46.8,-13,-28,64,17,-3,-5,24,-9
46.805,17,28,40,30,15,9,-23,2
46.81,-14,-18,-48,-14,-8,-4,2,-5
46.815,2,-6,-45,-32,-10,-6,5,10
46.82,-4,1,21,7,0,-2,4,-2
46.825,-3,-2,22,7,-2,-2,-23,-9
46.83,9,26,74,25,13,8,7,10
46.835,-12,-25,-45,-31,-12,-6,6,-4
46.84,-2,6,-5,-11,-5,-2,1,-5
46.845,-11,-9,-9,-8,-2,-3,-22,-6
46.85,6,14,-16,10,1,4,20,4
46.855,9,8,52,27,8,2,1,3
46.86,-10,-20,-95,-22,-11,-7,-9,-8
46.865,3,8,45,8,5,1,-4,6
46.87,6,14,55,32,5,3,10,2
46.875,-12,-31,-89,-56,-16,-9,-6,-5
46.88,1,-3,10,15,3,-1,-2,-1
46.885,-5,10,7,-6,1,2,-1,-1
46.89,3,15,-4,18,3,2,3,-1
46.895,1,-7,-14,6,0,-1,-4,4
46.9,1,10,51,-8,-1,0,6,-5
46.905,-6,-11,-55,-15,-6,-4,-8,-3
46.91,7,6,-4,4,3,2,3,4
46.915,-7,-6,52,-10,-8,-8,-4,-4
46.92,3,12,-18,9,6,3,8,12
46.925,3,15,76,17,1,0,-11,-23
46.93,-13,-33,-78,-50,-12,-6,-5,-4
46.935,6,7,-11,19,7,5,6,3
46.94,-2,15,38,-8,-4,-3,-1,-5
46.945,-10,-23,-8,-6,-3,-3,-7,-5
46.95,7,23,63,18,2,2,7,7
46.955,4,-6,-37,-2,2,1,0,-2
46.96,-2,-5,-2,-1,-2,-2,-3,-3
46.965,1,4,-14,1,-3,-2,-1,5
46.97,-1,-7,-4,-1,-1,-1,-2,-4
46.975,6,18,21,25,9,3,2,4
46.98,-15,-23,-45,-41,-18,-12,-11,-9
46.985,3,-1,-19,-1,0,-1,0,3
46.99,0,3,29,2,0,-2,1,-2
46.995,9,16,49,20,8,6,2,3
47,-13,4,-77,-22,-6,-4,-1,-4
47.005,-8,-10,16,-6,-6,-5,-6,-5
47.01,7,16,-28,-3,1,0,1,-1
47.015,-5,-10,-3,-9,-3,-2,-1,-3
47.02,11,6,63,28,7,3,1,1
47.025,-1,-18,-64,-20,-7,-3,-1,1
47.03,-10,-16,-29,-13,-3,-2,-1,-3
47.035,2,11,95,8,-4,-2,2,4
47.04,1,-6,-52,1,1,0,-5,-9
47.045,1,9,2,0,1,2,0,2
47.05,-2,0,16,-1,1,-1,-2,0
47.055,0,0,-57,-12,-2,-1,-1,-2
47.06,6,0,29,20,4,2,1,3
47.065,-1,9,12,16,2,3,1,4
47.07,-15,-35,-60,-50,-18,-11,-8,-11
47.075,-1,5,35,4,0,-1,0,0
47.08,5,-1,4,1,-5,-1,-1,3
47.085,8,10,9,25,8,0,0,3
47.09,-13,10,56,17,6,6,2,-1
47.095,-19,-24,-71,-21,-8,-4,-7,-8
47.1,1,-6,22,-7,-2,-3,-1,-3
47.105,4,-2,-56,-8,-2,-1,0,0
47.11,8,8,53,7,2,1,0,2
47.115,4,2,-8,3,0,-4,0,-2
47.12,-4,0,-11,15,5,1,0,-1
47.125,-2,-6,12,-12,-5,-3,-2,-1
47.13,3,10,29,18,2,0,1,1
47.135,4,-8,-61,-15,-3,0,-1,1
47.14,-8,7,32,0,-2,-2,-2,0
47.145,-5,-6,-6,-8,-1,-3,-4,-7
47.15,-5,-6,-8,-7,-3,-1,-2,-3
47.155,3,10,33,1,-1,0,-2,-1
47.16,8,-23,3,-5,0,0,0,3
47.165,-4,4,-20,-4,-4,-1,0,0
47.17,7,9,33,7,0,-2,1,-1
47.175,-13,-10,-5,-13,-7,-5,-3,-4
47.18,3,-1,-2,2,2,4,2,2
47.185,0,1,5,-18,-6,-2,-2,-2
47.19,6,1,0,12,-1,-7,-1,1
47.195,-3,9,24,5,3,1,1,-1
47.2,-6,-4,-32,4,2,-1,0,-5
47.205,0,-12,-3,-5,-2,-2,-1,1
47.21,-4,0,-3,1,-2,0,-1,0
47.215,6,2,-6,-4,-3,-2,-2,0
47.22,2,7,1,1,1,1,-1,1
47.225,-2,3,-20,4,2,0,-2,-1
47.23,-12,-17,-25,-22,-8,-4,-2,-5
47.235,0,-4,-17,-3,0,0,-2,0
47.24,-7,-4,28,-4,-3,-2,-3,-2
47.245,-3,-5,-17,-5,-4,-3,-1,0
47.25,3,5,27,21,5,4,2,0
47.255,-2,-1,-33,-10,-2,-1,-1,0
47.26,1,9,28,0,-1,1,-1,1
47.265,-4,0,-10,22,4,0,1,2
47.27,-7,-13,-26,-42,-12,-7,-4,-7
47.275,2,1,28,15,3,-1,0,-4
47.28,-3,-7,0,-7,-6,-2,0,0
47.285,-7,4,26,11,3,1,0,-1
47.29,7,0,-19,6,1,1,1,1
47.295,-13,-5,-4,1,-3,-1,1,-1
47.3,3,7,14,4,1,-1,-2,-2
47.305,3,6,45,18,4,2,1,2
47.31,-3,-3,-82,-27,-5,-2,-3,-1
47.315,11,11,22,-4,-2,-1,-2,1
47.32,-7,-12,-20,0,-1,-1,0,-1
47.325,-5,-4,10,-20,-8,-4,-5,-3
47.33,11,10,4,19,6,2,0,2
47.335,-8,-26,-15,-10,-4,-2,-1,-5
47.34,-2,4,12,1,-2,-2,-1,-2
47.345,-6,-11,-19,-11,-5,-3,-1,-4
47.35,4,5,30,12,0,0,-3,-3
47.355,1,4,-27,-7,0,0,-1,0
47.36,-6,8,-6,2,2,0,-1,-2
47.365,-7,-18,-22,-28,-9,-5,-3,-4
47.37,10,11,30,28,7,2,1,4
47.375,-1,5,23,-16,-5,0,2,-1
47.38,4,-8,-1,4,0,1,1,1
47.385,-1,5,-14,2,1,1,1,-2
47.39,-28,-22,4,0,-2,-2,-3,-11
47.395,-2,19,14,13,-2,-2,-4,-2
47.4,13,-4,-21,-11,-2,-1,-1,2
47.405,15,-2,21,-1,-1,-1,0,1
47.41,5,1,-9,6,2,2,1,2
47.415,4,0,22,3,0,1,-1,1
47.42,1,-3,-4,-4,-5,-2,-2,-1
47.425,-2,-5,-12,0,2,-2,0,-2
47.43,-18,-5,10,-4,-1,-2,-1,-4
47.435,10,3,0,-4,-1,-3,-2,-2
47.44,7,18,3,15,7,4,5,10
47.445,3,-5,-2,-9,-2,-2,1,6
47.45,-5,22,18,1,-1,-4,4,-8
47.455,-65,-39,-22,-5,-7,-9,-24,-36
47.46,23,2,-14,3,1,1,4,12
47.465,-31,-9,-2,6,1,1,-1,-5
47.47,89,39,-8,-32,-5,2,36,46
47.475,-68,1,13,14,4,3,-13,-38
47.48,-67,-64,3,-7,-3,-12,-26,-36
47.485,21,22,-3,6,7,9,9,26
47.49,76,13,-13,8,7,8,-3,27
47.495,1,-14,3,-3,-7,-7,8,-12
47.5,47,43,11,2,1,4,9,31
47.505,6,23,14,12,-1,3,8,1
47.51,-65,13,-6,-28,-8,-6,0,-42
47.515,6,-88,-4,-15,-7,-9,-4,-17
47.52,55,0,-4,19,-7,-22,-28,-30
47.525,95,90,41,-57,-13,-1,6,16
47.53,-31,-69,-26,46,10,3,-23,-37
47.535,-45,-80,17,-4,5,2,6,-70
47.54,0,-127,-22,-42,-28,-25,-45,-114
47.545,80,44,25,78,-8,-7,4,12
47.55,112,96,34,-25,14,18,6,37
47.555,-41,63,9,2,2,3,22,101
47.56,2,-54,-75,-2,-12,11,51,127
47.565,-35,30,26,6,-8,-31,-71,-80
47.57,64,40,-18,45,9,13,29,60
47.575,40,22,18,9,-8,-3,-7,12
47.58,-44,20,0,15,21,20,31,-1
47.585,-33,-45,-39,-32,-14,1,1,21
47.59,-72,-57,-15,-56,-18,-17,-13,-28
47.595,90,6,2,-12,4,-2,-14,-4
47.6,54,58,23,32,1,1,4,-2
47.605,-76,-63,3,-8,13,0,-11,2
47.61,-7,28,-25,6,8,16,14,-35
47.615,-27,-1,6,4,-2,-3,-15,12
47.62,-102,-38,-8,-53,-19,-9,-8,-37
47.625,57,3,-85,56,18,0,-6,-7
47.63,-36,-2,37,-55,-11,-2,13,20
47.635,43,12,48,-54,-19,-13,-18,3
47.64,108,98,9,46,21,20,23,79
47.645,-99,-88,-43,-59,-4,10,33,0
47.65,-84,-99,14,-5,-18,-31,-35,-50
47.655,110,72,-9,6,1,-14,-17,11
47.66,-70,-25,13,-41,-3,8,6,-46
47.665,49,-7,-24,114,15,-2,11,42
47.67,49,9,27,-41,-15,-6,-39,-21
47.675,15,7,3,-3,-2,4,16,22
47.68,41,52,8,43,10,6,4,-16
47.685,-75,-9,10,-57,-8,4,7,9
47.69,-35,-33,-13,92,7,-3,10,22
47.695,19,34,27,5,5,6,3,-24
47.7,-3,37,-34,38,19,14,12,26
47.705,-34,-103,16,-75,-44,-30,-15,-20
47.71,54,26,-2,17,-10,-14,-38,-23
47.715,-120,-28,-29,10,2,0,-1,-31
47.72,73,29,-3,23,-2,-4,-2,22
47.725,-43,-22,-1,-41,3,6,-5,-55
47.73,37,-6,29,12,-3,-4,10,10
47.735,4,-3,-59,1,-2,7,21,14
47.74,-31,-42,5,25,-11,-17,-30,-32
47.745,99,100,14,-47,2,3,-17,-8
47.75,-5,-12,-5,13,-1,0,11,66
47.755,-56,-18,-6,-9,4,11,14,8
47.76,70,42,45,15,2,-6,-19,-1
47.765,-66,-15,-17,19,7,11,29,-1
47.77,35,42,15,-2,7,-10,-24,-41
47.775,-36,-48,-24,31,-11,-14,-7,12
47.78,-7,22,32,-43,2,8,4,-6
47.785,127,107,-17,100,39,24,22,79
47.79,-55,-112,51,-92,-50,-35,-30,-49
47.795,27,6,-52,25,-4,-7,-23,-48
47.8,-37,-14,-23,-31,-16,-4,22,52
47.805,96,50,58,20,11,2,-27,-47
47.81,-92,-1,-14,48,23,20,24,23
47.815,53,7,19,16,3,-5,-16,30
47.82,-29,-53,25,-111,-25,-18,-16,-46
47.825,100,49,-90,25,4,11,11,53
47.83,-77,-63,-19,58,-2,4,31,10
47.835,-5,-17,122,-57,-22,-12,-22,-48
47.84,-20,10,-52,79,23,21,29,20
47.845,-16,12,20,-8,-8,-19,-22,-2
47.85,113,81,-44,6,24,16,-10,-2
47.855,97,92,-83,126,41,34,91,92
47.86,-15,-116,75,-94,-41,-32,-74,-66
47.865,31,11,-52,-16,-13,-2,3,-4
47.87,50,38,13,-3,5,8,11,31
47.875,5,2,-28,-66,4,18,15,36
47.88,67,70,-16,8,-6,-12,0,-10
47.885,-102,-80,64,-9,-1,-12,-25,-76
47.89,74,57,-51,22,6,11,-4,13
47.895,-13,-81,-22,-52,-27,-23,-1,-47
47.9,-13,-13,25,-37,2,0,-15,-12
47.905,-19,-20,-10,23,10,9,12,-29
47.91,-41,19,70,-28,-10,-7,10,-12
47.915,120,100,-41,-1,-1,1,-1,27
47.92,-126,-100,2,4,-14,-15,-14,-71
47.925,-23,2,33,-4,-5,-2,-5,11
47.93,35,36,-48,92,21,5,10,-2
47.935,28,-31,35,-118,-18,-17,-46,-51
47.94,26,50,-95,35,16,8,-3,23
47.945,-76,-87,42,-10,-26,-16,26,22
47.95,-7,-37,21,-53,-3,-12,-25,-21
47.955,-19,4,-41,20,1,6,-1,-27
47.96,2,35,30,24,13,-9,-28,4
47.965,19,15,-9,2,-9,5,12,6
47.97,-21,-27,-33,20,-1,11,26,27
47.975,-30,-11,44,-19,13,15,10,4
47.98,54,-29,7,-5,-12,-12,3,9
47.985,-39,-4,-7,-1,-1,-6,-11,-21
47.99,62,-16,-10,-29,-13,-15,2,35
47.995,93,57,51,44,13,6,-24,-13
48,-106,-74,24,31,-14,-12,8,-2
48.005,70,-2,-56,10,8,-1,-7,2
48.01,-21,-4,-46,-6,-3,1,-10,-9
48.015,-56,-55,11,85,2,-13,1,39
48.02,73,41,40,-60,-4,6,9,-1
48.025,-78,-29,19,29,18,0,-10,-6
48.03,6,-2,12,-107,-12,-1,-2,-41
48.035,-1,55,10,66,7,6,17,26
48.04,6,13,-44,1,6,8,14,3
48.045,35,8,-9,-53,-9,-1,-7,-14
48.05,20,67,-53,122,28,16,20,22
48.055,21,-70,77,-117,-12,-7,-6,-16
48.06,84,89,39,31,13,12,3,20
48.065,30,18,-28,-9,-4,2,4,-26
48.07,-76,-35,21,-43,-26,-21,-26,-47
48.075,-17,16,-16,35,-1,-10,-20,-32
48.08,7,14,-27,23,21,23,20,-3
48.085,22,-17,-7,-20,-24,-9,16,25
48.09,-62,-37,62,-14,0,2,-1,-14
48.095,30,68,-101,122,34,16,17,45
48.1,5,-34,94,-75,-27,-16,-33,-58
48.105,25,46,-29,56,4,4,0,12
48.11,24,-6,-39,-12,-5,1,-6,0
48.115,-97,-23,34,65,-18,-11,7,8
48.12,40,98,-35,1,7,2,3,24
48.125,-8,-10,37,-32,-6,1,12,38
48.13,25,-10,41,-29,3,-4,-20,-1
48.135,14,-1,-40,-18,-2,3,-4,-35
48.14,-35,53,-109,89,40,51,77,100
48.145,10,-78,127,-116,-41,-42,-71,-46
48.15,19,31,-27,39,4,0,-3,-1
48.155,8,-14,-22,-35,-15,-8,-10,-16
48.16,13,-16,-41,2,-4,-12,-12,-3
48.165,6,17,-28,14,5,11,19,13
48.17,-2,1,-32,7,-1,1,6,28
48.175,36,7,91,-14,3,-12,-17,1
48.18,-19,-43,-17,-23,-12,-6,-2,-3
48.185,11,14,-73,-26,4,6,12,8
48.19,-21,-23,27,4,-7,-9,-12,3
48.195,39,23,-17,48,17,20,21,0
48.2,-71,-22,86,-86,-28,-18,-4,-7
48.205,-51,-52,0,38,11,-1,-4,3
48.21,60,30,-43,23,0,2,1,-4
48.215,-9,-13,-5,-60,-2,8,18,16
48.22,-13,-17,10,23,0,-8,-16,-8
48.225,40,27,3,24,6,6,5,-1
48.23,-11,-19,19,-27,-3,-1,1,-9
48.235,-14,8,-14,6,1,6,0,0
48.24,19,-8,-11,43,3,0,9,1
48.245,-3,12,49,3,5,-2,-8,-6
48.25,9,7,-16,19,0,-3,-1,-1
48.255,-17,-10,-8,-7,-8,-7,-4,-1
48.26,24,2,-22,41,9,2,-1,-3
48.265,-20,6,-2,-56,-9,0,-4,3
48.27,24,7,3,-4,-1,-1,7,11
48.275,-33,-35,22,16,-12,-9,-7,-2
48.28,4,4,7,0,5,-3,-8,-6
48.285,-1,13,4,31,5,3,6,1
48.29,2,-13,2,-28,-8,-7,-6,-19
48.295,0,-7,-5,-37,-4,-3,-10,1
48.3,-23,-12,-16,9,-3,-2,0,-3
48.305,3,4,-2,9,1,1,3,4
48.31,-1,6,27,7,4,7,7,1
48.315,-7,-10,-28,2,-1,-6,-7,-8
48.32,3,-4,3,-6,-5,-8,-9,-7
48.325,4,3,-16,13,2,6,4,11
48.33,-2,-8,5,-1,-3,-1,6,-6
48.335,-2,3,-1,-2,1,-4,5,-6
48.34,26,12,6,-3,-2,3,13,21
48.345,-6,-13,10,0,-2,-7,-18,-20
48.35,-17,-6,3,13,4,0,-9,-8
48.355,2,-1,7,-12,-5,0,1,6
48.36,-11,-8,9,-10,-4,-4,-4,-12
48.365,2,6,-3,17,0,-1,1,-6
48.37,-8,-31,-9,-45,-15,-5,0,4
48.375,-1,-1,-6,37,9,-1,-2,-4
48.38,8,-7,3,7,8,5,0,-3
48.385,7,27,3,17,9,6,9,4
48.39,-8,-7,14,-4,-3,-4,-9,-15
48.395,-8,-3,-20,-37,-16,-7,-1,-2
48.4,-2,-20,-20,-8,-7,-3,-5,0
48.405,-4,5,-4,5,-2,-4,0,-8
48.41,-2,7,9,0,2,0,-1,2
48.415,-2,2,8,-4,1,2,0,-1
48.42,1,13,5,9,4,0,-5,-2
48.425,2,-5,2,0,-2,-2,1,0
48.43,-7,-2,-2,5,-1,-2,8,3
48.435,3,2,2,-5,-1,-3,-22,-5
48.44,0,-8,4,0,-3,-2,4,-11
48.445,-1,-2,-10,-1,-1,2,-1,13
48.45,-10,8,17,3,1,3,2,0
48.455,-1,-6,-26,-5,0,1,18,0
48.46,-6,-3,-3,-13,-5,-7,-3,2
48.465,10,6,8,10,1,-2,2,-9
48.47,-14,1,-15,12,3,1,-8,-3
48.475,13,-1,15,-9,-3,0,-3,-4
48.48,-14,4,24,6,0,1,-4,-6
48.485,11,2,-15,7,5,1,9,14
48.49,-11,-11,10,-2,-3,-4,-5,-11
48.495,-2,-4,19,-13,-2,-2,-1,-3
48.5,1,-9,-13,-5,-3,-2,-2,1
48.505,-3,-1,2,7,0,-2,-2,1
48.51,3,35,6,6,3,2,-1,0
48.515,-2,12,21,30,11,9,3,-3
48.52,-3,-9,-7,-20,-8,-4,-1,10
48.525,-11,-10,-8,-17,-8,-7,-9,-15
48.53,9,-4,5,13,4,1,-1,9
48.535,-9,-9,-2,-17,-7,-4,0,-2
48.54,23,32,45,52,18,11,11,11
48.545,-25,-25,-68,-49,-16,-11,-14,-22
48.55,-10,-17,-24,-24,-12,-9,6,0
48.555,0,8,26,10,3,2,-3,-5
48.56,3,1,8,-2,-1,-2,-2,-11
48.565,7,12,32,26,7,1,3,3
48.57,5,-4,-28,5,4,4,-4,9
48.575,-16,-21,-65,-44,-16,-11,1,-8
48.58,11,-2,-17,3,1,1,-6,6
48.585,-8,5,30,11,2,1,15,0
48.59,-11,-16,-16,-30,-12,-12,-25,-12
48.595,9,3,6,11,2,2,3,9
48.6,-3,-5,0,-12,-5,-4,-7,-3
48.605,8,10,27,31,12,7,5,5
48.61,-2,-9,8,-18,-3,0,3,-4
48.615,-1,-6,-1,6,-3,-3,-3,2
48.62,-8,-5,-11,-21,-7,-5,-1,-9
48.625,3,10,23,10,2,0,2,2
48.63,7,14,25,30,12,4,2,1
48.635,-5,-2,17,2,3,7,4,-1
48.64,-12,-23,-55,-21,-13,-14,-11,-2
48.645,-4,-15,-12,-23,-12,-7,-15,-4
48.65,6,4,-33,-3,-1,-1,2,0
48.655,1,3,-8,4,2,1,0,2
48.66,-3,0,-2,11,3,4,3,-4
48.665,1,0,11,-8,-3,0,2,0
48.67,2,-5,-4,6,2,1,1,3
48.675,0,15,56,12,-1,-2,-2,1
48.68,0,4,14,6,2,2,0,-4
48.685,0,-4,-48,-3,0,-1,-4,-2
48.69,5,-1,-2,2,-2,0,2,0
48.695,-11,-5,-29,-9,-2,-1,-1,0
48.7,-1,-11,-20,-15,-2,-2,-1,-3
48.705,-4,-5,35,-10,-8,-7,-3,-4
48.71,5,1,6,5,2,2,4,5
48.715,0,10,13,13,2,-1,1,7
48.72,3,14,8,13,5,1,-1,-6
48.725,-8,-19,-70,-13,-3,-1,0,0
48.73,-7,3,29,-7,-5,-4,0,-6
48.735,13,-7,-4,15,4,2,1,2
48.74,-3,12,29,-4,-2,-2,-31,-2
48.745,0,-23,-29,-7,-5,-3,3,1
48.75,-2,15,0,19,0,1,-8,0
48.755,-2,-19,8,-44,-11,-5,9,8
48.76,18,3,-14,28,9,6,12,25
48.765,-25,-5,-17,-24,-8,-5,-30,-55
48.77,-1,-4,13,-4,-2,-2,28,-5
48.775,16,31,74,30,10,5,-5,13
48.78,-11,-21,-96,-28,-10,-4,-13,5
48.785,-9,-4,80,5,3,0,-7,10
48.79,0,8,-60,6,1,1,36,17
48.795,-23,-26,25,-6,-13,-9,7,-28
48.8,3,-5,14,-14,-4,-5,-36,-9
48.805,23,13,-56,4,8,7,27,35
48.81,-20,-2,17,-33,-14,-13,-58,-29
48.815,3,-9,-7,17,4,2,19,9
48.82,20,38,113,41,13,10,21,10
48.825,-17,-23,-90,-47,-20,-12,9,4
48.83,18,8,95,26,12,6,-7,-24
48.835,-7,-1,8,-10,-1,1,25,5
48.84,-19,-46,-48,-20,-13,-14,-48,-26
48.845,16,27,36,38,12,7,2,10
48.85,-2,-10,4,-13,-5,-2,7,-6
48.855,-12,-22,-123,-38,-13,-7,-22,-6
48.86,-1,12,36,16,3,4,31,6
48.865,-3,-1,59,-9,-6,-3,3,1
48.87,-3,-13,-48,0,0,0,-9,4
48.875,12,25,22,18,9,5,-6,-3
48.88,-14,-10,-11,-19,-10,-6,19,-4
48.885,9,5,38,18,1,-1,-11,-4
48.89,-1,-1,-70,-10,-1,-1,-1,0
48.895,-3,11,65,8,1,-3,-12,-5
48.9,-3,5,18,-3,-5,-3,8,-1
48.905,-10,-15,-7,7,-4,-5,-7,-8
48.91,-1,-7,29,-5,1,0,-3,-5
48.915,3,4,-54,15,3,1,-4,0
48.92,-10,-16,-18,-28,-7,-4,-1,-5
48.925,11,26,49,28,8,5,3,-1
48.93,4,4,-4,8,1,3,7,12
48.935,-4,-24,-24,-9,-4,-5,-13,-6
48.94,-1,11,14,15,4,1,7,-5
48.945,-3,-9,3,-18,-1,-2,-3,1
48.95,3,19,34,10,1,-1,-1,7
48.955,-5,-4,44,-2,-4,0,-5,-6
48.96,-8,-18,-97,-24,-10,-4,2,-2
48.965,15,25,29,17,8,6,4,4
48.97,-10,-24,-32,-33,-12,-6,-2,2
48.975,-2,10,3,6,-2,-3,-8,-12
48.98,2,-2,27,15,4,2,6,0
48.985,-1,3,-16,-14,-1,-2,-5,-4
48.99,11,15,51,30,11,6,3,5
48.995,-1,-11,-67,-12,-3,-3,6,2
49,-9,-7,18,-18,-10,-7,-2,-7
49.005,-3,-1,1,-3,-1,0,-2,-1
49.01,3,1,8,14,0,-1,2,3
49.015,9,20,36,20,12,7,1,9
49.02,-11,-21,-27,-33,-6,-4,-4,-8
49.025,-10,-20,-22,-12,-10,-7,-2,-7
49.03,4,7,-1,-2,-5,-2,-2,2
49.035,18,6,1,-10,-4,0,-1,8
49.04,-12,18,24,29,12,4,4,0
49.045,-22,-18,14,14,7,1,-4,-9
49.05,-16,-22,-17,-16,-12,-8,-5,-6
49.055,0,2,-23,-8,-5,0,-4,-2
49.06,22,16,13,9,3,3,5,7
49.065,11,6,-7,-7,-2,-1,2,5
49.07,-17,-6,17,8,2,0,-1,-4
49.075,-2,2,38,-6,0,-3,-3,-5
49.08,-2,-21,-83,-24,-9,-4,-3,-3
49.085,4,3,1,-4,-6,-3,-4,-4
49.09,12,2,5,0,5,2,3,3
49.095,-25,-14,-13,-2,-6,-9,-8,-7
49.1,7,9,30,16,8,4,1,0
49.105,4,-3,-12,6,1,-2,0,1
49.11,0,-5,-17,-7,-5,-3,-1,-4
49.115,4,2,-20,-11,-1,2,3,5
49.12,-15,4,27,12,3,0,-3,-5
49.125,-8,-19,-29,-5,-4,-2,-3,-5
49.13,2,7,5,2,3,0,-2,-1
49.135,5,3,5,-7,-4,-3,-1,3
49.14,32,8,6,-6,-6,-2,2,8
49.145,2,16,11,27,7,2,1,3
49.15,-45,-20,-19,-22,-5,-5,-5,-15
49.155,-15,-15,-26,-10,-2,-4,-7,-12
49.16,-2,5,43,-2,-2,0,0,1
49.165,20,1,-6,3,1,2,2,7
49.17,31,3,-4,4,1,2,2,8
49.175,-18,15,-1,6,-3,-2,-2,-4
49.18,-9,-5,16,-12,-3,-1,0,-8
49.185,-25,2,3,9,1,-1,-5,-9
49.19,21,-11,-1,-10,-4,-2,-2,2
49.195,9,11,12,-1,-1,2,5,10
49.2,37,13,-8,1,0,-1,-1,-1
49.205,-26,-22,18,-3,-8,-7,-2,-9
49.21,-80,-9,-9,6,2,-3,-4,-12
49.215,20,-19,-6,-5,-2,-2,-4,1
49.22,16,19,8,15,5,3,7,17
49.225,-4,9,-25,-6,-3,-3,-6,-22
49.23,27,11,55,-17,-4,-1,0,6
49.235,-22,-28,-62,-13,-3,-6,-5,-12
49.24,1,-16,-13,1,-1,0,0,5
49.245,25,24,-6,-3,-3,-1,3,15
49.25,-58,-28,4,20,1,-4,-2,-7
49.255,20,12,32,-6,-1,-1,1,-3
49.26,-11,9,6,7,2,-2,-1,-6
49.265,7,-15,-60,-31,-6,-3,-12,-18
49.27,34,14,0,28,8,9,16,35
49.275,-12,-13,-1,-3,-8,-7,2,-29
49.28,-47,-15,15,-18,-3,-6,-14,-12
49.285,-4,-15,8,32,12,5,19,12
49.29,87,60,-24,-77,-7,-5,-63,-8
49.295,-23,-22,8,42,-1,3,13,22
49.3,-52,0,-6,-22,-7,-2,-4,-37
49.305,4,-3,6,-4,4,8,18,18
49.31,-8,-7,1,18,3,4,20,24
49.315,49,30,7,24,-4,-5,6,27
49.32,-77,-38,-11,-33,-11,-14,-24,-40
49.325,-41,-6,-6,-6,-19,-17,1,7
49.33,-28,-32,9,-2,-6,-10,-14,-32
49.335,61,17,5,24,13,8,-13,12
49.34,102,23,-8,62,12,27,46,35
49.345,-55,-18,29,-30,-7,-14,-19,-11
49.35,56,-3,-67,-67,-16,-6,5,-5
49.355,14,-21,11,-40,-1,3,10,53
49.36,-45,-22,-1,9,0,-11,-15,-5
49.365,70,51,28,36,12,8,4,-8
49.37,-32,19,7,64,18,10,8,19
49.375,2,-11,-20,-91,-21,-11,-6,-15
49.38,5,-57,11,8,-4,-13,-6,23
49.385,33,57,-16,50,2,-1,-17,-29
49.39,-13,-24,42,-1,0,-1,-7,-15
49.395,-25,17,-14,-58,1,9,29,16
49.4,-52,-35,0,64,10,0,2,21
49.405,15,-21,-25,-128,-29,8,8,13
49.41,101,39,-15,32,-6,-16,-7,-20
49.415,-128,-65,45,97,16,-14,-52,-102
49.42,59,62,-8,6,1,4,10,12
49.425,-18,-15,-14,-28,-18,-13,-13,-13
49.43,39,52,-36,100,18,13,14,19
49.435,74,-9,32,-42,-10,14,28,32
49.44,-67,-71,-45,-45,-18,-18,-29,-47
49.445,31,23,-26,67,27,23,30,25
49.45,20,11,76,-44,-16,-6,-2,29
49.455,62,108,-6,104,19,6,15,42
49.46,-64,-67,1,-22,-5,-12,-26,-77
49.465,31,-38,-21,-7,-5,-1,-14,-21
49.47,7,36,-46,-72,-4,14,21,22
49.475,-2,-26,68,-19,-5,-8,-5,-5
49.48,127,93,9,32,13,14,16,91
49.485,-103,-59,-13,20,10,-8,-17,-40
49.49,83,42,-47,57,8,11,20,26
49.495,-94,-74,9,10,-12,-27,-35,-51
49.5,71,36,-7,-113,-21,2,2,9
49.505,-12,-42,65,57,0,-8,-6,0
49.51,7,-19,-16,21,3,-1,-1,-5
49.515,-43,2,-51,14,5,1,-11,-16
49.52,91,62,-28,37,4,1,4,27
49.525,-64,-58,33,-27,-3,4,22,66
49.53,-13,-34,34,-15,-6,-10,-22,-19
49.535,50,0,-34,-80,-11,0,-22,-55
49.54,81,49,-13,55,30,41,53,48
49.545,64,80,-7,-59,-5,7,24,76
49.55,-128,-112,58,16,-2,-6,-5,-12
49.555,-22,32,-53,-13,9,9,18,36
49.56,-42,-45,81,-82,-22,-32,-42,-71
49.565,45,-22,-40,45,11,-1,-41,-71
49.57,-34,7,22,70,16,13,60,64
49.575,54,20,40,-58,-16,0,-16,-1
49.58,-17,17,-82,34,-2,-3,-9,-21
49.585,-63,-31,35,-49,-10,-6,1,-24
49.59,-5,-30,16,-13,-6,-10,-43,-83
49.595,27,29,7,31,11,19,40,48
49.6,61,42,-12,63,-2,-12,-6,-6
49.605,-17,-62,4,-3,0,1,-9,-32
49.61,105,123,7,14,5,6,17,38
49.615,96,39,-1,8,0,3,-3,54
49.62,-128,-66,-3,-31,-8,-12,-17,-29
49.625,94,121,0,103,14,10,32,56
49.63,-106,-96,-15,-70,-38,-44,-38,-51
49.635,66,50,8,16,2,-7,-28,-39
49.64,61,35,-34,8,0,3,9,3
49.645,-13,93,5,33,7,6,10,15
49.65,-119,-46,-3,-32,-13,-8,-12,0
49.655,28,-11,-8,2,-8,-12,2,7
49.66,73,9,7,46,24,15,6,21
49.665,-4,-4,19,-111,-29,-9,19,19
49.67,-46,-102,22,-26,-23,-26,-43,-58
49.675,45,29,-15,87,16,6,-4,-33
49.68,-20,20,-27,-27,-20,-7,8,-2
49.685,101,-7,39,-2,-4,-15,-31,-6
49.69,81,99,-54,88,31,29,31,33
49.695,20,-100,66,-120,-28,-12,-6,17
49.7,93,121,-52,88,27,20,28,70
49.705,-6,-107,94,-48,-38,-32,-34,-55
49.71,45,-20,4,-31,-5,-7,-11,-10
49.715,16,44,-52,84,17,17,21,13
49.72,-34,-39,35,0,-8,-17,-21,15
49.725,11,71,-19,10,16,2,-9,-11
49.73,88,92,-24,-16,14,24,22,-7
49.735,-122,-118,1,-13,-18,-25,-1,-13
49.74,-52,-73,30,-30,-7,-6,-5,-18
49.745,62,57,-89,103,21,22,5,0
49.75,-43,-78,56,-102,-32,-18,0,8
49.755,-70,-1,-14,120,9,-7,-34,-51
49.76,59,41,-16,3,1,14,15,-6
49.765,-33,-20,-16,20,-28,-25,-14,-7
49.77,6,-26,-33,73,26,7,1,-2
49.775,1,45,-14,-43,-3,3,7,1
49.78,-41,-79,-4,41,0,-14,-8,13
49.785,36,31,35,19,-5,15,4,-10
49.79,13,25,-16,51,1,0,1,6
49.795,12,-17,9,-11,-8,-3,2,-3
49.8,-91,9,28,39,8,-8,-19,-53
49.805,-28,13,-26,-43,11,7,6,15
49.81,37,37,18,-32,-8,0,7,9
49.815,-83,-67,-24,-2,14,12,13,-1
49.82,-55,-38,2,-77,-20,-10,-17,1
49.825,20,-5,-22,18,16,8,-3,-14
49.83,2,21,25,7,-1,2,12,21
49.835,95,49,11,-48,-8,-4,2,18
49.84,26,0,1,-47,-4,2,15,8
49.845,-31,-66,18,9,-3,-7,-12,-6
49.85,-10,51,-19,20,5,-2,-14,-1
49.855,29,48,-30,21,7,9,7,-10
49.86,1,-36,62,-16,-5,-19,-10,-1
49.865,9,13,-24,-8,3,7,-2,6
49.87,19,7,-37,26,-1,1,8,6
49.875,-7,0,9,-14,-9,-4,-4,-5
49.88,33,36,22,-11,-6,3,-7,-18
49.885,-58,-14,-11,3,7,3,16,35
49.89,-4,-25,12,-37,-1,-1,-1,-2
49.895,-40,-29,16,17,-8,-14,-22,-32
49.9,-44,20,-34,29,12,17,21,34
49.905,10,3,14,-1,-1,-2,-2,-7
49.91,25,37,4,62,-3,-11,-10,-10
49.915,2,11,17,-15,4,2,-8,-11
49.92,-12,-7,-9,0,-4,2,5,-14
49.925,5,-6,2,-9,-4,-7,-5,-2
49.93,-8,-28,8,5,1,2,-3,-8
49.935,35,41,-34,36,5,9,6,13
49.94,-12,-16,34,48,-3,-1,19,17
49.945,4,7,26,-81,-12,-1,2,20
49.95,13,-10,-7,-6,-1,-1,-7,-21
49.955,-30,-35,2,1,-1,-2,0,10
49.96,0,9,3,3,-2,3,-2,-4
49.965,7,29,-18,36,3,-6,-3,-21
49.97,5,-49,12,-4,-10,0,13,34
49.975,-43,-15,-12,-37,-15,-13,-16,-27
49.98,25,10,3,-12,-3,-1,-8,-2
49.985,6,0,0,5,0,-3,-4,-13
49.99,53,12,-12,-7,1,3,0,0
49.995,-2,-8,3,61,8,5,11,6
50,-3,1,18,-74,-15,-13,-19,-34
50.005,10,0,-10,10,-2,1,7,12
50.01,-44,-3,-7,-25,3,3,-4,-25
50.015,8,13,6,-4,-2,-6,4,12
50.02,15,7,-3,9,3,-3,-17,-21
50.025,8,3,0,26,8,7,7,19
50.03,-19,6,8,-43,-13,-9,-13,-14
50.035,33,17,0,0,3,0,2,-4
50.04,-37,-37,3,-6,-15,-11,-3,-18
50.045,-25,-6,0,-21,-4,-7,-16,-2
50.05,-18,-10,0,6,5,5,9,0
50.055,18,15,8,-3,-2,-1,0,22
50.06,22,4,-15,1,1,4,10,18
50.065,68,45,-8,38,8,9,8,26
50.07,-78,-21,23,-11,-6,-10,-8,-27
50.075,-9,-30,-7,-36,-9,-3,-7,-8
50.08,-11,-7,-5,16,7,3,-1,5
50.085,-1,-7,6,-10,-6,-8,-5,-11
50.09,12,3,-7,-11,1,6,6,11
50.095,3,10,2,15,-3,-5,1,0
50.1,16,4,1,-11,4,3,0,0
50.105,-18,-27,-14,-6,-1,1,2,-2
50.11,9,6,11,30,5,-2,-2,4
50.115,-15,6,8,-30,-2,2,2,-2
50.12,20,5,-3,7,3,0,0,-2
50.125,-14,2,12,-9,-6,-5,-2,-6
50.13,9,22,-13,8,0,-2,2,10
50.135,20,-19,-6,-7,-1,-3,-5,-8
50.14,-18,21,5,-8,3,5,5,2
50.145,0,-10,-2,5,-2,-3,-1,-5
50.15,-6,-14,-5,5,0,-1,-4,-2
50.155,6,-3,-2,-1,1,-4,3,5
50.16,11,5,-3,-3,-2,2,4,-6
50.165,-4,8,5,-6,-4,-7,-11,-10
50.17,10,-10,-8,-12,-6,0,2,0
50.175,-19,12,10,-11,0,2,1,5
50.18,13,-4,-1,14,7,3,1,6
50.185,-11,-7,-2,1,0,-2,0,-3
50.19,3,-1,-8,-15,-6,-3,-2,-5
50.195,-1,10,15,23,5,3,2,4
50.2,0,-2,3,6,0,0,-2,-3
50.205,9,-15,-12,-15,0,0,1,8
50.21,-6,-5,-29,-7,-8,-4,-5,-12
50.215,-10,0,0,-2,-7,-3,1,-4
50.22,0,1,10,1,1,-1,-4,-7
50.225,-1,-5,27,14,3,2,2,-5
50.23,8,-17,-10,0,-1,-1,5,10
50.235,-9,26,-43,-7,2,8,-2,1
50.24,12,9,48,9,-2,-16,-13,15
50.245,-16,-2,-22,-8,0,2,9,7
50.25,-11,-14,-4,-20,-10,-8,-8,-17
50.255,2,-15,10,-1,-2,0,-2,6
50.26,-1,3,-4,2,2,5,2,-19
50.265,8,8,16,14,4,5,4,3
50.27,11,23,45,17,5,0,-6,4
50.275,-7,-6,-14,-3,-2,-4,1,-3
50.28,19,25,42,25,6,7,5,-1
50.285,-25,-42,-44,-24,-6,-8,-2,9
50.29,-7,-2,-15,-21,-8,-2,1,-11
50.295,9,-6,-43,-12,-6,-4,-6,-7
50.3,-4,-3,0,3,-3,-4,0,0
50.305,9,10,44,19,3,-1,15,-18
50.31,-16,0,-10,23,7,3,-13,10
50.315,-12,-11,-24,-66,-17,-14,-33,-14
50.32,-8,-5,64,9,1,3,22,-4
50.325,20,32,-78,-6,-1,4,-13,4
50.33,1,14,79,19,7,-1,8,17
50.335,9,-6,36,21,6,4,12,6
50.34,-32,-24,-70,-21,-16,-12,-19,-10
50.345,-9,6,40,-13,-5,0,13,5
50.35,14,4,0,22,11,9,27,21
50.355,6,6,0,-4,1,-2,-14,7
50.36,1,0,-3,-16,-10,-9,-9,-1
50.365,-11,-3,9,7,-2,-6,-10,5
50.37,11,5,-12,-2,-2,-1,-7,-40
50.375,-8,1,59,33,11,8,17,-11
50.38,4,-9,-63,-10,-1,2,4,7
50.385,-7,-5,43,-5,-6,-6,-13,-8
50.39,10,3,12,5,4,4,3,8
50.395,-7,-12,-42,-12,-8,-5,4,-1
50.4,0,-1,20,-12,2,2,-6,11
50.405,4,7,-6,14,9,6,-1,-6
50.41,-20,-20,-49,-42,-27,-16,10,-1
50.415,5,31,83,48,16,9,-3,-13
50.42,-16,-59,-128,-102,-29,-16,-24,-2
50.425,7,37,29,12,12,9,-9,-2
50.43,-17,6,45,-9,-5,-3,6,-25
50.435,44,34,-6,51,18,5,3,44
50.44,-22,-25,27,7,1,3,16,-22
50.445,30,-1,64,33,7,2,-2,49
50.45,-7,-11,-75,-29,-9,-1,-15,-18
50.455,-45,-16,87,18,-4,-6,10,-29
50.46,34,25,5,-25,1,-4,11,10
50.465,6,-10,44,33,7,6,0,-8
50.47,-5,-24,-87,-56,-22,-18,-47,6
50.475,51,30,35,24,9,11,49,86
50.48,-35,-4,-14,-15,5,6,-57,-70
50.485,-13,-8,62,6,-11,-12,-26,-10
50.49,0,0,-10,5,7,8,36,-15
50.495,-11,-38,-115,-63,-19,-16,-67,-2
50.5,43,3,56,54,14,10,30,3
50.505,-49,4,-56,8,3,2,27,3
50.51,2,-10,89,-9,4,2,-4,9
50.515,1,6,80,-13,-16,-9,10,3
50.52,-7,-4,-112,5,-3,0,3,19
50.525,-8,-5,15,2,4,1,-8,-36
50.53,39,58,126,117,38,20,44,54
50.535,-35,-45,-99,-108,-39,-22,-40,-49
50.54,27,13,63,55,14,6,1,29
50.545,-15,-12,15,-44,-26,-15,-13,-26
50.55,14,12,-12,12,14,9,9,30
50.555,12,16,24,19,14,10,8,-28
50.56,-23,-13,-8,-4,-8,-7,11,10
50.565,13,-25,-110,-45,-11,-9,-19,-13
50.57,-28,-2,-7,4,2,0,7,-13
50.575,-10,-5,59,11,0,-3,-17,-22
50.58,-6,-22,41,-8,-9,-6,6,0
50.585,6,21,8,-1,7,6,21,8
50.59,-12,-32,-45,-46,-29,-19,-42,-13
50.595,1,20,17,33,15,7,13,-2
50.6,12,20,-18,7,5,5,11,23
50.605,-10,-23,22,-6,-10,-6,-6,-3
50.61,4,14,-4,-8,1,0,-12,-18
50.615,4,2,-7,37,19,10,24,17
50.62,-8,0,15,-41,-22,-14,-23,-9
50.625,6,11,-31,7,0,-1,5,-4
50.63,-1,7,-25,11,7,4,1,1
50.635,-17,-28,-65,-23,-15,-9,0,-6
50.64,12,32,25,27,16,12,4,1
50.645,8,-3,-20,0,1,-1,10,30
50.65,-32,-26,-39,-32,-12,-6,-13,-21
50.655,3,17,36,23,12,5,5,3
50.66,0,15,-5,-6,-10,-8,-9,-10
50.665,-13,25,6,-11,-7,-5,1,9
50.67,16,5,29,24,10,4,13,19
50.675,-6,-25,-53,-27,-7,-3,-6,-17
50.68,-14,-8,-25,8,-7,-3,-8,-10
50.685,5,-19,20,12,6,2,2,1
50.69,2,9,16,-11,-5,-5,-8,-3
50.695,-1,11,-8,-2,2,3,8,-3
50.7,5,7,45,31,11,6,8,8
50.705,-3,-22,-48,-27,-4,1,22,20
50.71,-5,-11,-12,-16,-15,-11,-28,-33
50.715,6,14,11,2,-5,-2,2,3
50.72,4,2,-18,-3,6,4,1,7
50.725,-5,-1,93,-4,-6,-5,-5,-11
50.73,4,4,-27,-8,1,1,6,9
50.735,10,-14,1,2,-4,-6,1,17
50.74,-15,5,-4,-5,-1,0,-5,-24
50.745,5,9,-18,10,6,4,-1,-8
50.75,14,-22,34,12,-2,-2,-1,10
50.755,-3,-46,-16,-19,-11,-7,-10,-8
50.76,0,6,10,3,3,2,9,10
50.765,1,-2,19,12,3,-1,-6,-4
50.77,5,-2,6,0,1,0,-1,0
50.775,-13,-5,-49,-12,-8,-5,-3,-4
50.78,3,0,16,11,7,2,2,3
50.785,-2,-4,-8,-17,-8,-5,-9,-10
50.79,6,10,18,21,6,2,0,4
50.795,-2,23,32,-4,1,0,3,0
50.8,-6,-6,-27,-7,-2,-5,-4,0
50.805,-2,-6,-8,10,-4,-1,-5,-7
50.81,-7,-1,-33,-5,-2,1,2,2
50.815,-1,2,-2,6,0,2,-1,1
50.82,-3,-15,-50,-17,-8,-5,-7,-3
50.825,0,-9,-22,2,2,-1,0,0
50.83,-3,9,29,-5,0,1,0,1
50.835,-8,-6,-11,13,2,2,-2,-6
50.84,-3,-12,-10,-15,-5,-2,-3,-2
50.845,-1,1,-32,-10,-5,-3,-2,-3
50.85,8,26,33,10,1,0,2,7
50.855,-8,3,2,-1,-1,-1,-3,-3
50.86,-5,12,35,7,0,-2,-3,-3
50.865,-1,-23,-101,-32,-11,-5,-4,-2
50.87,-1,-17,12,1,-2,-2,-3,-6
50.875,-1,27,-2,7,4,0,0,0
50.88,10,4,30,13,5,2,2,3
50.885,3,2,45,-1,-2,-2,-2,-4
50.89,6,2,-6,0,3,2,1,2
50.895,-4,1,0,-6,-1,0,1,2
50.9,-5,-16,-10,-23,-10,-6,-5,-8
50.905,-39,11,24,6,4,1,-3,-7
50.91,2,-3,-29,8,-5,-5,-2,-3
50.915,23,5,28,5,9,3,1,6
50.92,2,8,1,-6,0,1,2,2
50.925,-14,-15,-26,-1,-5,-1,-3,-2
50.93,-1,-5,10,-9,0,-1,-2,0
50.935,-6,13,14,16,3,1,0,0
50.94,18,10,11,-8,-8,-3,-3,0
50.945,-8,-24,4,-7,-1,-1,-1,-5
50.95,-11,1,11,6,-1,1,1,0
50.955,0,-6,-6,-6,-5,-5,-5,-5
50.96,-2,-3,9,11,7,3,3,3
50.965,16,18,23,5,1,2,2,2
50.97,-12,-20,-4,-16,-8,-5,-5,-6
50.975,4,-9,15,-7,-5,-3,1,-2
50.98,-6,5,-17,13,2,0,-1,2
50.985,11,0,12,-19,-2,-2,-1,-1
50.99,0,-1,-11,5,2,-1,0,-2
50.995,-6,-11,0,4,0,0,-2,-4
51,-2,-20,0,2,0,-1,-1,-2
51.005,20,28,12,-3,-2,1,1,8
51.01,-9,17,-7,-7,1,2,-1,-1
51.015,-15,-11,0,-5,-6,-3,-4,-8
51.02,0,-2,29,5,1,-1,-2,-2
51.025,5,-11,-21,11,0,-3,-2,1
51.03,10,6,4,-17,-3,-1,2,4
51.035,-18,0,-15,-15,-4,-4,-1,-3
51.04,6,2,22,13,4,0,-1,2
51.045,-5,-20,-52,-26,-9,-8,-4,-5
51.05,3,25,-1,12,1,0,-2,-3
51.055,8,14,39,16,10,4,2,4
51.06,-5,-4,-58,-12,-3,-2,1,-1
51.065,5,7,26,6,0,-1,-2,-2
51.07,-2,-16,-15,-7,-3,-2,-1,-2
51.075,-5,-16,-12,-9,-8,-5,-3,-3
51.08,2,13,30,10,3,1,0,-1
51.085,-6,2,-1,4,2,-2,-2,-2
51.09,-9,-11,-24,-10,-4,-3,-3,-3
51.095,2,-2,-11,-1,-1,0,-2,-1
51.1,-4,-12,10,-3,-2,-2,-1,0
51.105,1,-6,-19,-2,-1,-2,0,0
51.11,6,4,17,-2,-1,-2,-3,-3
51.115,8,2,-7,4,2,0,1,3
51.12,-3,-17,-21,3,-4,-3,-5,-8
51.125,-32,-14,16,-32,-3,-1,-1,-6
51.13,-14,-4,5,-4,-2,0,-1,-3
51.135,2,-2,-24,0,-4,-4,-5,-4
51.14,1,-9,-2,-7,0,-2,0,1
51.145,13,22,27,30,6,2,0,1
51.15,3,-16,12,6,1,1,6,5
51.155,15,7,-19,-11,-5,-3,-4,-1
51.16,0,-3,-8,-10,-6,-2,0,0
51.165,-21,-9,-11,1,-1,-2,-2,-4
51.17,11,-1,10,-3,0,0,-2,-5
51.175,-9,-4,-1,3,-2,-1,-2,-3
51.18,4,5,13,8,0,-1,0,2
51.185,11,0,-12,-8,-3,-2,0,3
51.19,12,-27,11,-1,-4,-4,-6,-7
51.195,-35,-6,3,9,6,3,2,-6
51.2,28,3,-16,-17,-5,-4,-4,5
51.205,-32,9,7,13,0,-3,13,-2
51.21,55,9,1,2,0,-4,-11,-6
51.215,-2,-12,-28,-14,-4,-4,-13,0
51.22,-76,-11,-17,-11,-5,-1,11,-3
51.225,88,12,11,0,-2,-5,-26,-10
51.23,-57,-3,-18,14,7,10,22,20
51.235,-5,-32,34,-15,-8,-8,-5,-7
51.24,97,6,-44,12,10,13,14,21
51.245,-89,-48,14,-17,-2,-2,13,22
51.25,41,76,-5,-16,-13,-13,-20,-30
51.255,46,21,6,0,7,16,26,40
51.26,-56,-61,16,-7,-4,-9,-21,-13
51.265,24,8,-5,38,-5,7,20,50
51.27,53,-11,-23,11,6,-5,-17,-13
51.275,-71,9,15,-5,1,9,19,15
51.28,23,106,-17,6,-8,-15,-17,14
51.285,-96,-20,-16,-2,-2,1,-13,-50
51.29,-51,-46,61,-39,-8,-12,-6,-11
51.295,13,50,-39,60,15,17,18,23
51.3,72,16,14,-65,-13,-8,-12,-46
51.305,-40,-4,4,9,1,-5,-33,-54
51.31,34,88,0,4,10,28,41,68
51.315,45,-26,-38,19,1,-11,0,-20
51.32,-5,-7,0,21,7,13,21,32
51.325,120,33,3,9,-1,-2,-2,49
51.33,-116,-103,-15,-98,-29,-23,-24,-37
51.335,-27,11,17,25,-3,-6,-3,-11
51.34,-37,-30,22,27,2,-6,-13,6
51.345,-65,15,-12,-27,-7,6,24,15
51.35,-13,-28,-12,31,12,-3,-6,-10
51.355,-37,-21,24,-38,-11,-11,-22,-19
51.36,-55,-22,38,-22,-6,0,6,-11
51.365,19,22,7,55,7,-8,-10,-4
51.37,-21,-1,-29,23,-9,-3,-9,-9
51.375,105,41,-2,-43,-12,-6,-10,-10
51.38,-15,-25,36,-3,-3,-5,-9,-31
51.385,58,18,-7,6,5,4,-4,-26
51.39,-32,6,-39,55,1,4,25,47
51.395,60,34,-7,-27,-8,-5,-14,18
51.4,-29,-14,28,14,3,3,1,-15
51.405,-12,-60,-50,29,8,2,1,-8
51.41,36,18,76,-48,0,5,4,16
51.415,-39,-19,-52,0,0,-7,-16,-46
51.42,31,-2,-3,-75,-3,10,21,38
51.425,-25,50,21,16,-3,-14,-12,1
51.43,9,-21,17,28,0,1,-2,-5
51.435,-18,-17,18,29,3,7,18,23
51.44,-45,-6,-6,9,-1,1,-13,-1
51.445,4,-3,-17,-14,-3,-3,12,17
51.45,-11,-3,-8,14,-3,1,6,-10
51.455,68,52,20,-19,9,4,8,26
51.46,-88,-49,-1,41,-1,-15,-29,-12
51.465,57,15,27,-3,-2,8,8,-3
51.47,-2,4,-18,-15,-2,-8,-11,-5
51.475,-18,-22,-50,-20,6,-1,-8,-29
51.48,127,63,-15,16,6,9,25,41
51.485,-72,-86,33,21,3,-11,-21,-10
51.49,40,33,18,-31,-8,-3,-4,-5
51.495,-2,-9,1,45,-3,-2,16,11
51.5,-3,8,9,-75,-11,-14,-31,-45
51.505,17,13,-17,23,2,5,12,-26
51.51,-37,-44,-33,-17,3,7,16,-17
51.515,-11,3,22,-7,-6,-18,-36,-12
51.52,-74,11,-10,33,1,0,0,-20
51.525,50,74,-3,71,9,12,14,22
51.53,-6,-48,32,-45,-7,-1,0,1
51.535,86,39,-2,29,10,11,1,-14
51.54,-48,-66,12,-53,-17,-6,-5,-8
51.545,23,11,3,-24,2,2,-5,10
51.55,-18,0,-40,111,15,-8,9,1
51.555,51,39,26,-95,-13,-8,-18,-10
51.56,55,42,-45,18,5,10,19,30
51.565,-42,-13,6,-62,-14,-8,-2,2
51.57,14,-1,-10,22,1,3,-15,-15
51.575,-34,-19,12,13,-2,-1,10,72
51.58,3,-8,-19,97,18,13,30,13
51.585,-74,-40,0,-83,-23,-5,-13,-16
51.59,-13,27,-25,40,14,-1,-9,-41
51.595,-33,-8,10,31,-10,-11,-4,15
51.6,59,37,31,3,2,2,-14,-19
51.605,2,-24,-75,-9,-6,-10,-4,22
51.61,61,-27,24,-34,9,8,-1,27
51.615,-9,-16,-15,-10,6,6,2,5
51.62,41,49,-3,34,-1,2,13,-6
51.625,5,-33,33,-42,-3,-8,-20,-33
51.63,-12,11,-5,-10,-16,-17,0,11
51.635,-32,-24,-35,-24,-18,-11,-6,-22
51.64,-16,-14,1,18,9,5,-1,4
51.645,49,16,-2,-5,-7,-2,-9,-3
51.65,10,12,-25,13,6,10,16,-7
51.655,-71,-23,61,-50,-5,2,0,-19
51.66,-13,1,-34,-27,-5,-7,-10,-6
51.665,0,-31,37,46,6,8,29,42
51.67,-50,55,3,12,-14,-17,-35,-54
51.675,-39,-7,-34,40,9,-4,-9,-22
51.68,38,-3,-20,26,2,9,22,39
51.685,-35,-1,21,-96,-8,-5,-13,-25
51.69,54,17,-10,-11,-2,-3,-24,18
51.695,94,24,-14,39,18,23,43,38
51.7,-90,-55,13,-31,-15,-18,-36,-68
51.705,63,11,-31,45,12,10,5,6
51.71,32,21,19,-2,-1,0,4,33
51.715,8,2,12,26,5,2,1,0
51.72,-15,5,3,-57,-17,-8,4,40
51.725,100,62,11,60,18,0,6,-14
51.73,-115,-107,0,-57,-23,-12,-23,-45
51.735,-18,-6,-4,35,8,1,-5,-3
51.74,9,-25,-14,25,-5,-7,5,4
51.745,10,26,13,-47,-9,-6,-8,5
51.75,12,-7,-34,31,8,11,14,30
51.755,3,-4,-13,18,-7,-2,4,-31
51.76,-37,-10,20,0,-3,-16,-28,-18
51.765,56,28,19,-16,-2,10,21,28
51.77,63,-14,5,43,2,-2,-4,-14
51.775,-33,-25,33,-49,-15,-5,-5,-11
51.78,34,34,-23,-8,11,7,8,41
51.785,18,2,-51,49,11,2,6,20
51.79,-1,45,54,-95,-7,5,2,4
51.795,-17,-19,-22,-15,-13,-12,-14,-27
51.8,46,25,15,6,1,4,0,12
51.805,-102,-31,7,14,0,-1,-8,-56
51.81,2,9,-10,40,1,2,4,-19
51.815,21,7,-4,21,7,-4,-1,12
51.82,15,12,43,-78,-2,5,2,-3
51.825,-18,-71,-48,-11,-16,-10,-8,-9
51.83,-15,23,-6,-20,8,6,12,13
51.835,-21,-14,29,-52,-16,-7,-10,3
51.84,4,-2,-7,16,-6,-5,-1,-19
51.845,5,-8,17,13,5,1,-1,1
51.85,-6,5,10,1,-2,-3,-3,7
51.855,17,2,-18,30,5,5,3,18
51.86,28,9,-1,-7,-7,-9,-2,19
51.865,-31,-10,47,-20,-5,-8,-18,-27
51.87,37,9,-19,19,3,-1,-8,1
51.875,-30,-11,3,-1,2,4,1,-4
51.88,19,6,-11,31,5,1,1,-8
51.885,9,19,6,-16,-2,0,6,9
51.89,-28,2,2,23,2,0,6,6
51.895,14,-21,-9,-17,-5,-2,-7,0
51.9,-15,-2,49,-9,4,3,10,-5
51.905,3,11,-8,-13,-5,-3,-5,4
51.91,5,-12,-19,8,6,0,0,5
51.915,1,-5,-19,-6,-8,-4,-1,-6
51.92,-21,-5,-4,10,2,5,-1,-7
51.925,7,30,39,1,3,2,5,9
51.93,2,0,-9,-15,-7,-4,2,3
51.935,7,4,1,30,11,5,9,-7
51.94,-10,-9,8,-10,-5,-3,-5,-24
51.945,3,-1,-32,-6,-5,-1,-6,-2
51.95,8,-4,9,-9,-3,1,-1,5
51.955,-11,6,20,0,0,1,0,4
51.96,-9,-2,3,9,4,-3,4,-10
51.965,1,3,-6,-2,-6,-3,-3,7
51.97,6,-4,1,-8,-5,-5,-2,-4
51.975,-6,1,-2,-4,3,5,-4,2
51.98,2,-6,-18,11,2,-4,12,-5
51.985,-7,-5,16,-4,1,-4,-2,1
51.99,4,6,19,1,0,-2,-2,2
51.995,1,0,11,4,-2,2,-2,-4
52,-9,-9,-31,-19,-9,-2,-10,-1
52.005,-9,-1,-2,-11,-4,-6,-4,-6
52.01,6,3,14,19,4,2,5,7
52.015,-3,-3,-4,-7,-4,-6,-8,-4
52.02,-2,0,19,10,2,0,0,-2
52.025,7,-10,-18,-10,-4,2,0,4
52.03,-13,6,-20,-6,-4,9,13,8
52.035,-1,4,16,3,-2,-12,-24,-16
52.04,4,-17,-6,-11,-2,-5,-4,16
52.045,-21,-18,7,6,2,2,0,-20
52.05,22,17,-22,-3,-1,-4,4,6
52.055,-13,-5,3,-9,-3,3,6,-15
52.06,4,-1,3,7,0,2,11,18
52.065,-3,8,0,5,3,2,-11,5
52.07,11,-22,-5,5,2,-1,2,7
52.075,-24,-4,-14,-12,-5,-3,-3,-19
52.08,12,3,3,8,2,3,-6,-10
52.085,-11,3,13,13,4,1,7,-2
52.09,-6,1,-2,-16,-7,-6,-10,-10
52.095,0,-14,-38,-31,-12,-9,0,-1
52.1,1,3,6,12,2,3,-5,1
52.105,9,11,12,9,2,2,5,7
52.11,-8,-6,19,1,-2,-5,-9,-10
52.115,2,-13,-4,15,2,-1,5,11
52.12,-9,-2,-15,-12,-2,-2,-5,-9
52.125,-6,-8,-21,-24,-10,-6,-5,-9
52.13,10,5,26,8,2,-2,-2,5
52.135,2,-3,8,-10,-1,1,4,3
52.14,-4,5,5,12,3,1,-1,-2
52.145,4,-11,-50,-12,-5,-4,-1,6
52.15,1,-11,33,-2,0,0,-1,-3
52.155,0,2,4,4,0,2,3,3
52.16,12,-1,33,13,-2,-3,-7,-3
52.165,-18,-4,-46,-5,-2,0,1,-13
52.17,-1,-10,-16,-11,-2,-4,-2,3
52.175,3,2,16,7,2,1,0,6
52.18,-6,1,1,-2,0,0,-2,-6
52.185,19,-12,2,8,-1,0,0,10
52.19,-23,0,-4,-12,-12,-8,-9,-19
52.195,4,13,75,3,2,1,1,-2
52.2,-11,-13,-56,-36,-13,-7,-4,-6
52.205,15,10,51,28,8,6,2,9
52.21,-18,-46,-111,-52,-18,-12,-12,-11
52.215,1,24,74,20,4,2,0,1
52.22,-4,6,25,-2,4,1,3,3
52.225,8,6,-13,25,0,-1,-3,-7
52.23,7,23,36,39,13,7,6,-6
52.235,-17,-50,-99,-78,-19,-11,-8,3
52.24,18,55,47,21,5,4,8,8
52.245,-31,7,72,2,-3,-4,-8,-35
52.25,0,5,-37,-10,-3,4,4,7
52.255,7,19,44,4,-4,-6,-4,-5
52.26,-16,-32,56,34,5,2,13,2
52.265,21,7,-31,-21,-4,-1,-11,48
52.27,-31,-26,-60,-33,-4,-5,-12,-5
52.275,11,28,31,57,13,5,13,-13
52.28,-13,-63,-101,-63,-29,-17,-17,-14
52.285,-23,-25,53,12,6,2,3,-72
52.29,23,31,93,32,6,1,-2,40
52.295,-16,-22,-109,-48,-4,-1,-5,18
52.3,7,35,9,34,14,10,-1,-17
52.305,-15,-23,-30,-26,-16,-12,-6,-13
52.31,19,9,3,16,10,8,25,6
52.315,-31,-26,-18,1,-8,-7,-11,-22
52.32,6,18,43,24,4,1,-12,3
52.325,27,26,37,2,11,6,8,35
52.33,-12,-30,14,4,-9,-11,-15,-28
52.335,17,23,38,9,3,12,2,0
52.34,-10,-49,-26,-5,-2,-7,7,12
52.345,3,-5,-2,-7,-4,-7,8,29
52.35,-3,-1,31,7,0,-4,-12,-16
52.355,17,-5,-61,26,10,6,3,0
52.36,-6,6,15,1,-3,14,-12,-16
52.365,1,-9,-74,-41,-9,-17,1,29
52.37,-28,13,55,12,2,2,10,-13
52.375,18,-13,-2,-5,1,-2,-5,16
52.38,-40,15,-57,-13,1,3,4,-8
52.385,17,-16,-31,13,1,7,16,16
52.39,16,21,-3,-6,4,5,0,0
52.395,-33,12,28,-12,-15,-11,-15,-66
52.4,2,31,-5,5,6,4,7,12
52.405,10,-6,42,2,-1,-2,-13,-2
52.41,-3,-18,-46,-38,-14,-9,-7,-7
52.415,42,42,62,37,17,13,30,64
52.42,-19,-33,-51,-43,-19,-17,-5,-8
52.425,-14,22,61,21,13,8,-12,-54
52.43,0,3,-91,0,-6,-1,4,14
52.435,11,-17,-19,7,4,0,-3,24
52.44,-2,-5,69,-14,-7,-8,-5,-3
52.445,3,13,2,-5,1,2,1,13
52.45,2,-8,55,25,5,4,1,0
52.455,-10,-20,-55,-39,-15,-11,-7,-12
52.46,9,-24,-56,-8,-9,-9,-10,-5
52.465,-3,15,-36,15,6,9,12,2
52.47,-3,3,94,-2,-9,-11,-15,-17
52.475,-3,8,31,6,0,-4,-1,6
52.48,1,24,-17,-14,-1,-1,1,1
52.485,-10,-27,45,-5,-9,-5,-8,2
52.49,16,-3,-18,10,9,8,7,16
52.495,-9,15,43,2,1,-1,0,-5
52.5,-1,-17,-33,-21,-9,-7,-6,-10
52.505,-5,-2,1,-4,-2,-1,-2,-2
52.51,-6,-9,-73,-16,-1,0,4,0
52.515,-8,-15,54,-4,-2,-2,-4,-14
52.52,25,18,28,31,15,9,6,21
52.525,-13,22,49,18,2,2,9,19
52.53,-17,-37,-79,-52,-20,-9,-16,-31
52.535,2,8,-29,8,0,-2,-2,1
52.54,-3,-4,67,14,2,-1,0,1
52.545,-4,6,-26,2,-1,-1,-1,-1
52.55,12,32,25,6,9,7,7,12
52.555,-11,-19,-36,-23,-12,-8,-4,-7
52.56,8,15,50,11,7,2,2,2
52.565,3,4,8,1,-3,-2,-7,-10
52.57,3,10,34,17,6,1,1,10
52.575,-3,-35,-88,-27,-11,-5,-8,-8
52.58,13,16,46,18,6,3,4,7
52.585,-18,-29,-94,-39,-13,-8,-6,-14
52.59,-5,56,6,5,3,-1,2,4
52.595,9,8,30,26,10,6,5,12
52.6,-10,-22,-45,-14,-7,-3,-3,-10
52.605,7,-5,-22,3,0,-1,-2,-1
52.61,-2,4,71,22,1,0,-1,-5
52.615,0,14,-11,-11,1,0,2,3
52.62,-4,1,-3,-8,-3,-3,-3,-6
52.625,5,-10,-32,-12,-5,-4,-4,-5
52.63,2,-12,-43,7,1,0,0,6
52.635,4,19,82,26,6,4,2,0
52.64,-10,-21,-50,-42,-14,-7,-6,-8
52.645,5,-2,1,-5,1,0,9,10
52.65,-10,-11,2,10,5,3,-9,-1
52.655,-17,-29,-28,-23,-14,-9,-7,-20
52.66,15,22,-7,11,1,2,3,5
52.665,10,11,35,8,1,1,2,3
52.67,5,-3,-4,-2,-1,1,6,8
52.675,-15,-18,-51,-10,-3,0,-1,-6
52.68,-8,10,51,13,1,-1,-6,-5
52.685,-9,-6,-28,-16,-8,-5,-4,-8
52.69,14,-12,-24,5,4,0,2,2
52.695,0,47,20,13,3,3,3,5
52.7,-2,-10,-21,3,1,-2,1,-3
52.705,-7,-30,29,-1,-5,-4,-5,-7
52.71,-1,16,-32,-14,-2,0,-1,-2
52.715,-1,-20,8,-17,-6,-2,0,0
52.72,4,8,38,22,6,4,1,5
52.725,-3,3,-49,-10,-1,-2,-5,-4
52.73,-3,-7,13,-1,-4,-3,-2,-3
52.735,5,3,34,16,7,2,0,2
52.74,0,-2,-41,-3,-2,-4,-4,-2
52.745,-2,0,-10,-7,-1,0,-1,-1
52.75,-2,-3,20,3,1,0,1,-1
52.755,1,-1,-28,-1,-3,-2,0,-2
52.76,4,3,31,3,2,1,1,2
52.765,-6,9,23,9,5,1,-2,-2
52.77,4,-8,-17,-1,-2,-1,-2,3
52.775,3,9,26,1,-1,1,2,4
52.78,3,-19,-2,18,2,-2,-4,-9
52.785,-8,-6,-26,-16,-4,-3,-3,-6
52.79,1,2,22,-13,-8,-2,-1,-1
52.795,4,-3,-4,-4,2,0,-3,0
52.8,12,12,7,-9,-11,-4,0,5
52.805,1,4,30,18,4,-1,-1,-2
52.81,-4,-6,-4,14,6,1,-2,-4
52.815,2,-6,-24,-3,-2,-2,-3,-1
52.82,-6,2,-49,-17,-1,2,0,2
52.825,-5,-4,34,3,-6,-3,0,-1
52.83,0,-1,15,4,2,1,0,2
52.835,-2,1,27,-9,-6,-6,-3,-4
52.84,-5,12,-22,-7,0,0,-1,1
52.845,-2,-11,15,-5,-1,0,-3,-1
52.85,2,-6,-19,-9,-1,-1,1,-2
52.855,-6,2,14,10,-1,-1,-4,-1
52.86,20,-9,12,4,2,1,-1,0
52.865,-10,-11,-6,-14,-5,-4,-1,-1
52.87,-16,-7,10,11,1,-3,-3,-4
52.875,2,0,-2,1,-4,-2,0,-2
52.88,-13,-3,6,-1,-1,-3,-4,-3
52.885,-2,8,0,8,1,1,-3,-3
52.89,14,11,5,-17,-5,-2,0,-1
52.895,-13,-24,-11,4,-4,-1,0,0
52.9,5,-3,-12,-19,-4,-3,0,0
52.905,19,14,6,11,4,4,3,6
52.91,-26,-20,-36,-8,-3,-2,-2,-4
52.915,14,6,20,-4,-1,-2,-3,-4
52.92,-14,-10,16,-8,-6,-3,0,-2
52.925,-13,-3,-30,2,-1,-2,-1,-2
52.93,13,7,17,11,3,1,0,3
52.935,-8,-8,-4,-4,2,1,2,1
52.94,-4,-8,10,4,0,-2,-2,-5
52.945,4,10,-1,-8,-2,-1,-1,0
52.95,8,7,0,-6,-4,0,1,0
52.955,-6,-9,-22,0,-1,-2,-2,-2
52.96,-4,0,15,9,0,-2,-2,1
52.965,-8,-3,2,-4,-1,-1,0,-1
52.97,9,6,1,-2,-3,-2,-4,-7
52.975,5,-11,-9,-2,0,-2,2,7
52.98,2,4,-3,0,-2,1,-4,-5
52.985,-2,2,13,13,5,3,0,-2
52.99,-16,-23,-16,-9,-7,-5,-5,-7
52.995,19,17,2,-6,0,-2,-1,-4
53,-13,3,12,4,1,1,4,5
53.005,0,-9,1,11,-1,0,0,3
53.01,-3,-8,30,-3,-3,-3,-2,-2
53.015,2,-6,-36,-20,3,2,-2,-2
53.02,0,3,-14,-6,-8,-6,-3,0
53.025,4,7,11,0,-3,-2,-3,-4
53.03,15,13,13,8,2,3,1,6
53.035,5,-4,20,18,1,-2,-2,-5
53.04,6,29,25,-6,2,1,2,1
53.045,-21,-36,-40,-4,-2,-3,-5,-3
53.05,-29,-2,-17,-6,0,-2,-1,-2
53.055,16,6,20,0,-2,-2,-3,-8
53.06,7,34,4,10,2,1,1,7
53.065,41,-20,-24,-12,-6,-5,-1,2
53.07,-20,-1,-17,-5,-4,0,0,-11
53.075,-75,-5,0,-1,-3,0,4,4
53.08,12,-41,-5,-2,-2,-4,-7,-11
53.085,18,32,7,8,4,-1,-1,6
53.09,18,27,15,-6,2,4,2,9
53.095,32,6,-26,-15,-6,0,2,5
53.1,-107,-65,-44,4,-2,1,-4,-11
53.105,-18,6,47,11,7,7,6,4
53.11,30,12,-27,-1,2,7,12,20
53.115,28,0,46,11,-14,-20,-19,-27
53.12,5,38,-24,-10,6,3,0,24
53.125,83,53,8,19,12,12,17,28
53.13,-128,-68,29,11,-3,-3,-1,-39
53.135,94,54,1,46,7,13,25,77
53.14,-37,-105,-6,-15,-5,-17,-32,-88
53.145,65,33,10,-37,-11,-7,-14,-13
53.15,110,52,6,-2,-1,-2,0,36
53.155,-125,-18,-13,-3,1,-12,-24,-76
53.16,56,44,-1,-16,4,10,17,56
53.165,1,41,10,76,25,27,39,59
53.17,-29,-62,-20,-79,-32,-21,-24,-64
53.175,-30,8,10,-2,-3,-7,-11,22
53.18,38,9,-31,-3,-8,2,5,6
53.185,-50,-29,-8,-27,4,-6,-27,-49
53.19,72,63,11,17,1,0,15,57
53.195,-34,-74,-17,-11,-17,-16,-22,-2
53.2,-44,23,9,-34,-1,17,23,-1
53.205,53,10,-56,94,-3,-9,2,39
53.21,-84,-5,63,-5,13,4,1,-8
53.215,38,26,4,5,1,-1,-7,-21
53.22,26,61,23,60,2,-8,-1,9
53.225,-62,-70,-16,-59,-14,-2,-7,-23
53.23,9,11,-78,18,4,8,14,-25
53.235,15,24,34,-17,7,3,-5,-9
53.24,60,-28,16,90,26,8,15,48
53.245,-102,-14,37,-23,-4,-9,-20,-45
53.25,104,-2,-14,-87,-30,-18,-14,1
53.255,46,-12,-26,-38,-3,10,19,24
53.26,-56,-1,3,28,-17,-16,-1,-21
53.265,23,2,32,4,0,-22,-40,-38
53.27,-30,-2,12,41,11,11,10,0
53.275,47,15,-23,48,5,6,5,-33
53.28,20,2,20,-94,-17,-6,-4,13
53.285,-11,11,-6,-5,-3,5,9,6
53.29,-39,10,10,10,-6,-8,-13,-15
53.295,26,4,-14,17,11,10,14,32
53.3,13,27,36,15,4,-2,1,-2
53.305,-10,-22,-49,-81,-11,-6,-3,-14
53.31,56,4,-15,15,5,2,-6,7
53.315,-44,-34,-6,43,-3,-2,-14,-15
53.32,-12,3,13,-45,-1,0,3,-27
53.325,-51,2,15,31,-1,-8,-12,-12
53.33,-12,-23,-13,-25,-7,-7,-10,12
53.335,-2,35,-1,-50,-4,3,9,8
53.34,-35,-21,-10,68,0,-2,-6,-25
53.345,-23,4,8,-62,-5,7,10,-6
53.35,-40,-41,-23,36,6,0,-6,-11
53.355,-84,-29,29,26,2,4,17,20
53.36,-1,-2,13,-82,-19,-2,-6,4
53.365,26,16,-9,40,10,6,-1,-4
53.37,-11,-45,1,9,-1,-5,-5,2
53.375,79,14,-8,10,3,2,13,46
53.38,-65,-52,17,6,-4,-16,-26,-37
53.385,7,-1,-25,5,-7,2,13,16
53.39,6,18,33,-22,0,1,-15,-47
53.395,32,18,-11,-25,-3,-6,-10,-2
53.4,33,31,-8,62,19,27,37,44
53.405,-86,-95,19,-65,-25,-26,-14,-26
53.41,10,16,7,10,0,-5,-20,-9
53.415,-5,3,-13,-12,-6,0,2,-52
53.42,11,1,-18,9,-2,-4,-17,-13
53.425,33,8,11,8,1,4,6,7
53.43,35,8,-27,87,11,4,17,25
53.435,-28,20,25,-53,-7,-1,-3,-17
53.44,-38,-46,-36,-53,-10,-9,-14,-9
53.445,34,20,-11,3,-5,-9,-3,-14
53.45,5,-16,-6,7,-7,-4,6,17
53.455,-55,-20,17,44,8,-4,-15,-16
53.46,24,4,-12,9,5,6,12,3
53.465,44,0,-33,-7,3,3,-1,7
53.47,-7,4,10,5,3,3,6,10
53.475,41,21,-3,-10,-3,0,-1,53
53.48,-4,24,23,-12,-17,-4,20,20
53.485,-40,-30,7,46,4,-9,-24,-40
53.49,30,27,-5,1,5,4,6,12
53.495,-11,-4,-9,14,-1,0,1,-1
53.5,71,44,14,-27,-1,-3,-6,13
53.505,14,47,3,13,2,8,11,28
53.51,-28,-12,23,13,4,1,17,21
53.515,-6,-6,-21,-72,-14,-2,-15,-25
53.52,29,-9,-18,109,24,9,23,34
53.525,8,22,64,-36,-12,-4,-6,7
53.53,-38,-34,-6,-7,-2,-7,-16,-15
53.535,12,-5,6,79,13,9,14,9
53.54,-14,2,-33,-56,-10,0,4,4
53.545,-52,-37,-6,4,4,-3,-9,-16
53.55,40,41,25,-22,2,6,7,34
53.555,-24,-46,-63,19,1,6,13,6
53.56,-15,-18,22,-17,8,-4,-10,-20
53.565,15,18,8,-37,-1,8,15,41
53.57,1,0,29,-9,-3,-10,-19,-21
53.575,3,-2,7,-7,-3,-6,-12,-19
53.58,49,-15,-7,12,0,8,-3,-11
53.585,12,5,-28,30,-1,1,11,0
53.59,34,6,-13,-14,1,8,9,-9
53.595,-15,-25,7,15,3,-6,-10,-19
53.6,4,-19,6,-78,-24,-23,-28,-11
53.605,3,13,10,39,7,5,11,8
53.61,23,36,1,-24,-5,-1,-7,-3
53.615,-28,-11,-4,68,3,5,27,2
53.62,-10,16,-46,-35,-8,-7,-25,-13
53.625,6,14,3,-25,6,3,0,40
53.63,-16,-60,13,-91,-20,-15,-8,-30
53.635,9,25,-11,-10,-5,-7,-4,11
53.64,17,9,13,56,6,5,4,-38
53.645,-7,18,8,-32,-14,-7,1,-2
53.65,-45,5,-5,67,9,-2,-14,3
53.655,7,-21,21,-34,0,-4,-21,-9
53.66,-6,22,15,16,12,22,29,27
53.665,32,5,5,4,-4,-21,-33,-28
53.67,-7,-4,-33,-20,-2,5,12,10
53.675,2,13,25,15,-6,-12,-8,-12
53.68,-17,3,-10,-67,-14,-5,-16,-9
53.685,7,-17,7,11,-5,0,5,0
53.69,-5,5,8,28,10,6,14,10
53.695,8,1,-19,11,2,-9,-19,8
53.7,18,-1,16,27,9,17,25,25
53.705,-29,-30,2,-4,-1,-2,2,-3
53.71,4,-9,-14,-23,-14,-17,-19,-25
53.715,4,6,17,-46,-7,2,13,24
53.72,-21,-28,-55,28,2,-9,-10,20
53.725,27,-15,3,-10,-9,-7,-5,-22
53.73,-14,4,2,69,15,4,-1,8
53.735,18,23,7,-40,-3,-2,-3,-24
53.74,26,19,5,44,9,5,25,44
53.745,-8,-15,-14,3,2,2,-10,-24
53.75,7,-1,1,-3,-2,-6,-10,-1
53.755,-6,4,0,-4,-3,-4,-1,-2
53.76,0,-9,13,1,-2,-4,-8,-9
53.765,43,28,-27,17,5,12,24,20
53.77,-37,-16,7,34,1,0,5,-9
53.775,-5,-2,17,-48,-8,-4,-13,-21
53.78,12,-13,-6,-1,-6,-6,-9,-18
53.785,-10,-7,-37,15,5,1,2,16
53.79,-26,16,6,-27,-7,-3,-1,-9
53.795,0,-12,0,11,5,3,6,19
53.8,-19,9,29,-12,0,-6,-13,-18
53.805,14,6,36,1,-5,-2,-4,-2
53.81,9,-12,-40,-10,0,1,4,4
53.815,-9,1,-6,6,-1,1,7,2
53.82,-6,2,18,-9,-8,-11,-18,-32
53.825,-12,-8,10,11,1,3,2,0
53.83,24,12,-12,-2,-3,2,7,13
53.835,-4,-4,10,-4,-3,1,5,5
53.84,-3,-8,17,-1,-2,-5,-10,-5
53.845,-9,-1,-35,1,1,-1,-1,-7
53.85,0,1,3,-1,0,3,4,6
53.855,8,-8,9,-8,0,-3,-3,5
53.86,-14,-14,-18,5,0,-2,-10,-22
53.865,2,-2,-3,0,-5,-3,6,-15
53.87,-10,-1,9,-6,-2,-1,6,35
53.875,-5,5,15,10,5,13,13,26
53.88,-1,-1,-4,5,-2,-4,-11,-42
53.885,16,4,-17,2,-1,-10,-6,17
53.89,2,15,11,-8,1,4,1,-17
53.895,-2,-31,-22,-12,-7,-5,0,8
53.9,-13,-14,-46,-18,-10,4,-4,8
53.905,-6,7,-10,1,-3,-1,0,-2
53.91,17,4,23,3,2,-4,2,-14
53.915,-17,13,1,6,4,1,-6,-6
53.92,4,13,49,18,4,2,2,6
53.925,-13,-30,-51,-3,-2,3,-5,-11
53.93,1,-7,-6,-23,-11,-3,-4,14
53.935,15,3,2,1,-1,-1,4,7
53.94,-9,-12,-4,-12,-5,-10,-14,-4
53.945,-18,-2,44,14,3,1,7,-20
53.95,-6,30,-14,19,7,4,-3,-12
53.955,-10,-12,-8,-17,-9,-10,-18,-27
53.96,-2,7,-4,-6,3,3,18,16
53.965,10,7,8,0,-7,-2,-1,28
53.97,-2,-13,64,15,0,2,4,7
53.975,1,14,46,14,8,2,-5,-5
53.98,-4,0,-86,-14,-10,-8,-1,3
53.985,3,-3,12,-24,-2,-10,-12,-18
53.99,8,-5,57,3,-5,0,6,5
53.995,-2,12,-48,13,1,0,1,-5
54,11,0,60,21,8,2,-18,4
54.005,-28,-7,-55,-13,-5,0,1,-6
54.01,-2,3,16,14,2,0,-7,-27
54.015,-2,-12,8,-23,-1,0,9,1
54.02,5,6,10,15,-1,-3,5,-10
54.025,5,16,15,19,6,5,2,17
54.03,5,-15,-76,-29,-8,-6,-4,3
54.035,-14,8,70,36,6,5,6,0
54.04,22,2,-88,-18,1,7,12,13
54.045,-26,-19,89,-35,-18,-16,-15,-14
54.05,7,8,-11,19,6,1,-8,12
54.055,6,15,83,-4,-3,-2,5,4
54.06,5,-4,-59,-12,-3,-5,-5,29
54.065,1,-2,20,26,5,6,1,-14
54.07,-1,-25,-60,-28,-7,6,73,18
54.075,-19,-7,7,-20,-2,-6,-74,-53
54.08,-5,10,103,18,-2,-9,-27,-31
54.085,27,15,-33,18,8,7,59,17
54.09,-12,20,64,76,20,3,-42,-15
54.095,-12,-65,-100,-86,-36,-13,47,18
54.1,-19,-7,102,39,11,7,28,-29
54.105,2,-5,-1,-20,-10,9,87,81
54.11,-4,27,78,23,8,-3,-81,14
54.115,-21,-13,-39,15,-7,-28,-51,-82
54.12,-11,-16,-58,-58,-12,-8,63,-14
54.125,11,8,45,2,4,0,57,6
54.13,-1,-14,-122,-34,-7,12,127,51
54.135,15,10,-63,14,8,7,31,31
54.14,12,22,62,7,5,-4,7,10
54.145,17,7,21,38,16,15,-30,7
54.15,-33,-49,-94,-85,-26,-15,-20,-13
54.155,-1,17,76,34,1,-6,-59,-47
54.16,-7,-9,6,-7,-13,-7,-6,18
54.165,1,53,7,14,11,4,-10,-2
54.17,4,-20,-72,-15,-1,1,-2,-24
54.175,-6,-22,20,-32,-11,-4,22,16
54.18,10,15,24,45,9,8,3,20
54.185,-5,-29,7,-45,-17,-14,-71,-75
54.19,0,-3,16,6,-2,-9,-19,-31
54.195,19,26,-31,14,13,15,29,37
54.2,-6,-13,-27,-11,-3,-1,-6,7
54.205,-7,-18,-18,12,3,-1,-13,-6
54.21,7,12,77,5,-2,-7,-12,2
54.215,0,-13,3,-22,-6,-4,21,9
54.22,-12,3,-48,-14,-7,-2,-9,-2
54.225,1,-4,-10,2,-1,-3,-12,6
54.23,10,26,90,19,8,4,10,-3
54.235,5,4,-12,37,10,9,17,20
54.24,-14,-14,-19,-37,-13,-10,-13,-18
54.245,7,10,1,14,6,4,1,10
54.25,-2,-7,-15,-29,-10,-6,-4,-6
54.255,-6,-11,-82,-14,-3,-1,6,2
54.26,3,5,42,13,3,1,2,-3
54.265,-8,-19,-1,-15,-6,-6,-14,5
54.27,7,9,26,14,5,4,2,-7
54.275,-6,-4,12,-6,-6,-5,2,1
54.28,5,7,0,12,4,4,6,5
54.285,-2,-20,-75,-15,-5,-5,0,6
54.29,-10,-8,24,2,-2,-5,-3,-7
54.295,3,63,72,28,12,9,14,13
54.3,-10,-41,-92,-39,-16,-10,4,-2
54.305,-4,-6,11,3,-3,-2,-20,-1
54.31,2,24,35,11,0,1,11,0
54.315,2,-12,-20,-4,-2,-4,-9,-2
54.32,2,0,26,5,9,5,-2,3
54.325,7,18,-5,10,0,-1,2,2
54.33,-20,-47,-42,-22,-12,-9,-9,-13
54.335,1,-3,54,2,2,1,6,1
54.34,-1,12,53,18,4,2,-2,-1
54.345,-1,-9,-20,-18,-6,-4,-2,-1
54.35,-3,-18,-78,-9,-2,-2,-1,0
54.355,1,-3,26,3,-4,-2,4,4
54.36,-4,-4,10,3,3,2,-9,-1
54.365,-5,14,67,-10,-4,-1,4,-6
54.37,7,10,-18,18,0,-1,-3,3
54.375,3,1,-7,10,5,2,-1,1
54.38,-5,-3,-43,-33,-5,-3,3,0
54.385,-1,5,-5,-6,-4,-3,-4,-3
54.39,4,-8,17,6,4,1,-1,8
54.395,9,6,72,23,2,5,1,1
54.4,-10,3,-9,-10,-7,-6,-8,-6
54.405,-5,-13,-20,-16,-5,-3,2,2
54.41,9,2,35,-6,-1,0,-2,-6
54.415,0,5,-5,13,3,1,1,-5
54.42,5,5,33,8,1,0,-3,0
54.425,-3,13,23,2,1,-1,2,2
54.43,-5,-10,-2,10,1,0,-1,4
54.435,5,-8,-58,-19,1,-1,1,0
54.44,0,-2,11,4,-1,-1,-3,-4
54.445,-7,-12,-32,-4,-3,-4,-1,-3
54.45,9,21,38,10,5,3,2,7
54.455,2,11,1,-6,0,2,-4,-11
54.46,-5,-9,-28,3,-1,-2,-3,3
54.465,-1,4,13,-1,0,0,0,-2
54.47,4,19,29,10,0,-1,1,0
54.475,-4,-15,6,-8,-3,-3,0,3
54.48,0,0,9,-6,-7,-3,-3,-3
54.485,4,-11,4,22,6,5,2,-1
54.49,-2,-6,-26,-16,-5,-2,-4,-2
54.495,-28,-5,11,9,0,-3,-3,-5
54.5,6,-3,-6,0,-4,-1,-1,-2
54.505,1,-13,-8,2,0,0,2,-3
54.51,1,-6,15,-9,-5,-3,-2,1
54.515,3,48,20,18,4,3,3,7
54.52,6,7,20,7,3,1,1,2
54.525,-1,-11,-64,-12,-3,-2,-3,-5
54.53,-1,-3,-8,6,-2,-4,2,5
54.535,3,-19,12,-9,-4,-3,-4,-7
54.54,-8,0,-14,6,3,0,-6,-1
54.545,3,14,-1,2,1,2,0,-2
54.55,-4,-6,5,-1,0,-3,-3,-2
54.555,-15,-44,-82,-46,-17,-12,-4,-8
54.56,5,-1,11,8,3,3,0,1
54.565,6,6,28,9,0,0,-1,1
54.57,1,0,1,5,4,2,1,-3
54.575,-16,-22,-32,-5,-6,-3,-4,0
54.58,-6,-8,-11,-11,-6,-5,-5,-8
54.585,5,18,22,6,2,0,1,1
54.59,2,12,60,12,5,5,2,0
54.595,2,-28,-93,-41,-9,-4,-3,-1
54.6,1,12,77,15,2,-1,1,1
54.605,-6,-19,-17,-4,-2,-5,3,4
54.61,-2,-2,24,-9,-3,-3,-6,-6
54.615,18,-17,-2,13,3,0,-1,2
54.62,-7,6,-18,4,1,1,-1,2
54.625,4,-24,-12,-13,-4,-3,1,0
54.63,5,11,58,12,0,0,-7,-9
54.635,0,1,-28,-16,-3,-3,0,0
54.64,10,13,-11,1,2,2,3,3
54.645,-1,7,37,14,0,0,-2,-1
54.65,5,3,5,8,3,-3,1,2
54.655,-5,22,105,32,8,5,2,1
54.66,-28,-48,-87,-66,-18,-10,-9,-14
54.665,-7,2,12,-3,-1,1,-2,-2
54.67,4,2,-18,-1,0,2,1,3
54.675,7,13,42,13,-2,-4,2,2
54.68,6,16,19,22,7,3,2,3
54.685,-21,-22,-26,-3,-8,-7,-7,-11
54.69,-1,-8,-27,-20,-8,-1,-1,-3
54.695,13,11,13,5,0,2,0,3
54.7,17,7,8,8,2,3,3,5
54.705,-4,7,2,-6,-2,-1,-2,-5
54.71,-30,-8,-5,-2,-1,-3,-5,-5
54.715,9,8,2,-1,-3,-2,-1,-1
54.72,25,11,0,15,3,4,5,12
54.725,10,-2,4,-17,-1,-3,-2,1
54.73,-24,-18,-22,-2,-6,-5,-5,-9
54.735,-26,-8,2,0,-3,-4,-7,-6
54.74,22,8,11,-4,-5,-4,-2,1
54.745,13,14,-4,-1,2,5,5,9
54.75,-6,1,3,3,-4,-5,-2,-4
54.755,2,-4,-2,6,3,0,-1,0
54.76,-12,-5,-18,10,2,-1,-3,-10
54.765,-14,3,3,-10,-1,0,0,0
54.77,3,-2,2,-10,-4,-3,0,2
54.775,27,10,3,-12,-5,1,3,7
54.78,13,16,47,3,4,5,6,10
54.785,-38,-15,-10,-2,-4,-6,-13,-19
54.79,-23,-35,-31,-6,-2,-4,-7,-11
54.795,-6,2,29,1,-1,-2,-2,-3
54.8,-12,-6,-27,-11,-4,-4,-1,-3
54.805,47,36,5,15,3,5,14,26
54.81,-39,-9,6,-33,-11,-12,-16,-9
54.815,-3,-2,1,5,1,-1,-2,-13
54.82,-12,-21,4,-10,-8,-3,-5,0
54.825,13,17,-8,15,5,3,-2,-9
54.83,94,30,-5,11,8,13,15,14
54.835,80,14,1,16,-6,-6,0,11
54.84,-88,-25,-5,-3,-2,-12,-1,5
54.845,-53,-59,14,7,-1,-11,-27,-53
54.85,11,39,-14,-11,6,14,14,24
54.855,61,55,0,61,6,6,3,2
54.86,11,-52,22,-44,-7,-2,-7,-24
54.865,103,33,4,11,12,11,16,16
54.87,-45,-66,-31,-13,-20,-26,-33,-58
54.875,49,6,-33,-12,16,23,36,72
54.88,-99,41,50,31,1,6,5,3
54.885,-58,1,-10,-6,-14,-16,-23,-22
54.89,-29,-10,-44,42,35,21,12,59
54.895,56,10,-8,-95,-29,-14,12,5
54.9,-71,-67,24,16,-3,-12,-18,-12
54.905,-25,-21,-7,-24,-6,6,19,1
54.91,119,84,24,42,3,-3,-13,-17
54.915,-34,34,-12,63,22,9,11,40
54.92,-14,-37,2,-4,-4,-4,-13,-31
54.925,47,5,-13,9,-2,2,2,20
54.93,39,19,-34,-37,-10,-1,9,8
54.935,-23,45,29,18,-4,-5,-14,-20
54.94,127,72,-3,-24,-4,-9,-2,5
54.945,-126,-88,13,31,3,-9,-21,-17
54.95,6,-15,16,-50,-12,1,18,18
54.955,-22,-13,24,-11,-4,-9,-20,-23
54.96,-10,-15,-7,63,23,26,30,29
54.965,42,34,-14,-4,-24,-19,1,56
54.97,-61,-31,41,105,14,0,-3,33
54.975,-92,-60,21,17,-4,-6,-16,-55
54.98,59,43,-45,-11,-5,2,6,26
54.985,1,-5,-28,8,17,10,11,6
54.99,-11,-36,-2,-16,-14,-6,-4,-34
54.995,-4,-37,-32,-108,-19,-12,-20,0
55,25,-3,-38,36,15,7,9,-5
55.005,77,57,49,-6,-9,-19,-29,-10
55.01,0,3,7,11,21,18,14,-10
55.015,-83,6,12,6,8,31,41,11
55.02,-85,-37,60,-62,-37,-31,-43,-81
55.025,32,39,-29,-13,2,1,1,1
55.03,-1,-1,34,-40,-21,-23,-15,-4
55.035,96,58,-52,62,23,15,16,33
55.04,-66,-36,-32,36,1,7,23,15
55.045,-56,-31,59,-30,2,7,1,-26
55.05,3,29,-57,-9,-12,-13,-18,-29
55.055,-8,-24,-32,52,11,10,16,21
55.06,94,118,92,-25,-16,-6,-1,7
55.065,-69,-58,-39,0,-1,-3,3,-15
55.07,-6,7,22,5,6,-1,1,13
55.075,-55,-62,1,-17,-15,-14,-28,-49
55.08,11,-32,-22,8,3,2,-8,-14
55.085,61,78,11,4,-4,5,17,15
55.09,8,-34,5,-30,-7,-6,-12,-13
55.095,-78,-43,-1,1,-7,-11,1,-17
55.1,28,25,-5,-29,7,7,-2,19
55.105,-4,-28,-11,14,1,8,11,-8
55.11,14,5,-31,65,-13,-16,-7,-13
55.115,36,-10,44,-90,-8,-9,-23,-31
55.12,29,4,-27,10,-1,-7,-10,-40
55.125,13,-6,-38,-30,-2,-5,-6,32
55.13,49,1,45,-14,-5,-3,-3,4
55.135,20,-5,9,13,3,2,2,19
55.14,-25,-24,-9,-52,-8,-7,-9,-3
55.145,37,11,-8,38,11,8,7,23
55.15,-27,22,-12,-36,-7,2,-2,-17
55.155,-49,-33,-1,40,8,1,0,-1
55.16,47,16,-12,13,6,2,2,29
55.165,-37,-24,-39,-30,-17,-22,-27,-49
55.17,-4,8,86,-14,0,3,7,14
55.175,-2,0,-37,0,-14,-4,2,-7
55.18,-28,-13,15,55,11,3,-3,4
55.185,-19,-15,30,-39,-1,3,0,15
55.19,32,20,-34,-10,0,12,24,20
55.195,-41,-13,15,-11,-9,-19,-37,-54
55.2,34,36,-3,15,1,-3,-1,3
55.205,-20,-20,20,-9,-3,3,5,10
55.21,-15,-6,4,0,5,2,1,5
55.215,9,27,-1,15,5,8,9,27
55.22,18,-26,-84,-28,-11,-4,7,-14
55.225,12,25,47,17,3,-3,-18,25
55.23,-37,-21,-3,24,13,11,5,-6
55.235,42,32,-17,25,6,-1,-16,-19
55.24,-1,38,38,66,24,15,28,64
55.245,21,-10,18,-82,-31,-13,-9,-25
55.25,-5,-17,-47,4,0,-3,-10,-17
55.255,35,18,-3,15,3,5,15,34
55.26,-25,-5,28,1,3,-3,-13,-1
55.265,5,20,-16,24,2,7,4,-7
55.27,-42,-29,-46,48,-12,-3,36,44
55.275,41,10,58,-42,-6,-15,-33,-37
55.28,-12,17,-28,2,-4,0,2,0
55.285,-17,9,-24,51,12,16,26,16
55.29,41,1,69,-25,2,0,-6,-20
55.295,-39,-25,-49,-63,-16,-8,-3,-5
55.3,-8,-22,10,18,7,2,-1,-7
55.305,7,20,20,26,6,3,-2,9
55.31,25,43,-1,79,16,11,24,42
55.315,7,-11,20,-15,1,-9,-25,-16
55.32,-1,-17,7,-1,-2,0,-7,-7
55.325,13,2,-2,-49,-3,9,27,28
55.33,7,-17,-14,2,-1,4,-12,14
55.335,1,25,11,3,4,3,18,22
55.34,-35,-3,21,-11,-6,-16,-22,-32
55.345,6,-32,-28,36,-7,-17,-34,-39
55.35,-23,-13,-7,8,-8,1,24,27
55.355,4,8,9,6,7,3,-13,-11
55.36,12,24,37,-56,-21,-7,2,-42
55.365,-23,-50,-26,19,-4,-18,-20,-46
55.37,-48,-37,-6,-13,9,2,-29,-18
55.375,25,15,-63,50,3,8,21,2
55.38,41,23,57,-24,0,14,32,68
55.385,-18,2,13,15,8,8,6,0
55.39,19,12,-22,61,7,-7,-26,-28
55.395,-48,-19,37,-71,-16,-1,17,34
55.4,22,-8,5,27,-1,-11,-17,5
55.405,41,26,-18,-11,1,-1,0,19
55.41,-33,33,12,-40,0,3,-1,-3
55.415,18,-13,-11,13,-3,-3,6,21
55.42,-3,-3,-34,4,-5,1,7,0
55.425,-49,-18,34,-4,7,8,16,1
55.43,-14,-5,2,-29,-5,-11,-26,-36
55.435,16,1,-47,34,-10,-5,12,7
55.44,-8,-7,-6,-10,-3,1,1,-8
55.445,54,1,-26,33,5,1,13,28
55.45,24,12,-16,-59,-6,-1,10,22
55.455,-45,-5,47,-9,-5,-6,-15,2
55.46,15,-10,-11,40,3,4,11,47
55.465,7,9,21,-45,-8,-8,-1,8
55.47,-15,-22,-18,34,-3,-5,2,-14
55.475,6,-3,-1,-24,-14,-10,-13,-3
55.48,-11,-12,-22,-5,0,0,-1,-13
55.485,-5,-1,28,27,2,-8,-20,-24
55.49,-25,-11,-21,-24,-8,-5,-10,-48
55.495,-13,-41,24,-3,1,-6,0,0
55.5,-22,-3,-14,-36,-2,-4,-7,-13
55.505,-15,37,16,14,-4,-2,2,-19
55.51,6,6,25,-15,0,-8,-15,-25
55.515,-7,-9,-7,6,-1,0,-8,-24
55.52,17,-17,-34,5,8,11,4,-3
55.525,-1,-5,20,5,-2,-5,-3,-16
55.53,-2,13,5,-31,-6,-2,-4,8
55.535,10,13,23,-1,1,2,3,-4
55.54,2,-6,-20,30,-4,-3,-6,-5
55.545,7,-11,-11,-33,-2,3,7,11
55.55,7,-8,12,20,-2,-2,-1,10
55.555,24,23,-29,37,13,11,18,-1
55.56,1,-39,27,-64,-10,-14,-19,-20
55.565,-19,-7,46,9,-4,-3,-6,-12
55.57,5,4,-7,-8,-2,-1,3,3
55.575,21,-4,-13,16,2,-2,-11,-4
55.58,-23,21,-6,-8,-9,-8,-2,0
55.585,32,-7,-4,6,1,6,0,-18
55.59,-3,-8,7,-15,0,3,9,34
55.595,-10,-9,-7,6,0,-2,-6,-12
55.6,1,-8,-13,4,2,2,-1,-9
55.605,7,13,-15,-2,0,1,2,11
55.61,2,-4,-2,1,-2,1,-2,-14
55.615,-4,-2,17,-6,0,-1,1,2
55.62,5,-2,4,18,5,2,0,7
55.625,-9,-12,-67,-23,-6,0,-2,0
55.63,9,-10,0,-5,-2,-1,1,0
55.635,-7,8,6,6,1,0,0,4
55.64,3,3,23,5,3,1,-3,-3
55.645,-11,3,12,11,1,-2,-2,-1
55.65,5,-2,5,-6,-3,-1,-1,-4
55.655,6,8,-12,-3,2,0,2,4
55.66,3,-8,-3,3,-1,2,-1,2
55.665,-9,-1,5,-1,-2,-2,-6,-12
55.67,-15,-8,0,-12,-6,-1,1,-29
55.675,6,6,7,-1,0,9,16,0
55.68,-4,-2,-13,-4,-4,-8,-14,-12
55.685,-9,0,-10,-8,-2,-6,6,9
55.69,7,3,6,3,-1,-2,-7,6
55.695,-3,10,0,-2,0,1,4,0
55.7,2,2,-8,3,0,7,-6,-5
55.705,0,-6,7,-4,1,4,-2,0
55.71,-2,-3,-31,-9,-4,-3,9,11
55.715,4,-3,33,10,5,3,-13,-13
55.72,-1,-18,-95,-49,-15,-19,-2,5
55.725,-9,1,-8,11,0,-3,2,29
55.73,10,1,4,2,1,3,-1,-3
55.735,-18,-11,-11,-10,-4,-5,3,0
55.74,-2,-2,44,18,3,4,0,-12
55.745,8,3,4,13,4,6,12,-7
55.75,21,4,-8,12,4,-1,-6,14
55.755,-12,0,-28,-23,-7,-5,-7,3
55.76,-4,-3,-10,7,3,1,3,-8
55.765,5,-3,2,-3,-2,-1,0,0
55.77,0,15,11,18,6,2,5,3
55.775,-12,-27,3,-12,-9,-7,-13,-16
55.78,-5,9,-12,-3,-2,-1,4,3
55.785,5,1,31,-1,-5,-5,-7,2
55.79,-7,39,25,25,8,5,4,4
55.795,-2,-7,-33,-14,0,-2,-2,-1
55.8,4,-5,32,19,2,2,4,4
55.805,-31,-64,-98,-92,-26,-13,-15,-13
55.81,14,20,68,19,-1,-7,-3,0
55.815,-12,-11,0,-40,-14,-7,-4,-6
55.82,24,84,102,116,40,22,16,21
55.825,-15,-31,18,-6,-5,-6,-9,-20
55.83,-22,-41,-86,-92,-38,-22,-18,-26
55.835,23,-1,30,32,2,-1,-1,6
55.84,-27,-22,-78,-34,-8,-5,-6,-25
55.845,25,62,87,84,28,18,12,17
55.85,-33,-55,-30,-49,-11,-4,-1,-2
55.855,1,3,46,21,5,-1,-2,0
55.86,0,5,100,29,-2,-1,-1,11
55.865,-10,-36,-61,-61,-10,-7,-6,-16
55.87,-2,-7,-41,17,-12,-9,-6,-5
55.875,5,29,14,-4,11,6,6,9
55.88,-4,-30,-69,-62,-23,-12,-7,1
55.885,14,-28,16,51,18,12,8,-6
55.89,55,59,112,59,26,13,27,30
55.895,-54,-55,-91,-35,-17,-8,-17,-17
55.9,35,22,85,50,17,10,-15,26
55.905,9,73,90,-7,-1,-1,17,-10
55.91,-35,-46,-52,-79,-23,-11,-18,-23
55.915,6,-19,88,66,20,6,16,6
55.92,-9,34,-27,-43,-15,-10,2,-10
55.925,13,21,-24,23,5,6,25,3
55.93,-4,-50,-38,-40,-16,-15,-19,-25
55.935,24,80,93,41,11,8,-4,-8
55.94,-24,-62,41,22,16,15,76,-1
55.945,-36,33,-52,-57,-44,-33,-63,33
55.95,32,46,98,62,29,16,0,-22
55.955,-30,-65,-128,-62,-26,-14,-27,-11
55.96,8,12,91,30,8,2,16,37
55.965,6,-13,48,58,18,19,52,-36
55.97,-25,-30,-108,-102,-36,-31,-54,-15
55.975,25,26,79,26,10,4,-9,35
55.98,-19,-11,-26,-17,-11,-9,-6,-49
55.985,-12,16,-15,16,9,14,53,27
55.99,20,5,-4,11,4,-10,-88,28
55.995,2,30,20,36,7,3,33,10
56,-5,-24,-105,-62,-19,-11,-30,-9
56.005,-10,-62,-113,-85,-30,-19,-2,-6
56.01,-11,24,35,63,20,18,40,2
56.015,45,30,14,19,16,10,3,-4
56.02,-2,-8,5,-43,-15,-10,-4,8
56.025,11,14,74,51,11,1,-33,-13
56.03,-13,34,-23,5,2,6,23,5
56.035,-21,-16,-37,-78,-23,-11,1,6
56.04,30,-8,-40,15,7,5,-17,9
56.045,-25,-11,31,14,1,-6,-9,-7
56.05,13,6,-12,58,27,20,19,2
56.055,-35,-73,-37,-97,-40,-29,-3,1
56.06,32,35,33,24,6,0,-19,-10
56.065,-13,-4,40,-6,-1,-4,-29,-15
56.07,-5,-1,62,20,5,5,27,9
56.075,-9,-22,-1,15,7,7,13,-12
56.08,3,67,91,64,22,11,9,26
56.085,-26,-46,-29,-79,-45,-32,-31,-15
56.09,-10,-10,75,19,5,8,32,-7
56.095,23,47,11,22,9,5,-9,14
56.1,-16,-20,-23,-31,-15,-11,-6,-2
56.105,4,36,-22,39,21,15,0,-1
56.11,-3,-8,12,-22,-12,-7,1,-1
56.115,1,-28,-15,-6,-6,-4,7,-9
56.12,-23,-38,-56,-19,-7,-5,-10,-4
56.125,46,47,-24,64,33,21,7,19
56.13,-48,-54,-37,-82,-37,-23,-7,-18
56.135,31,40,66,52,20,12,1,9
56.14,-7,-27,-15,-18,-6,-1,2,-5
56.145,-5,-27,-39,-11,-5,-4,0,4
56.15,12,26,83,17,2,1,2,11
56.155,-6,5,34,7,-1,-4,-10,-7
56.16,-4,-21,-41,-20,-6,-5,-5,-6
56.165,8,11,15,-1,0,-2,-6,-1
56.17,14,33,-29,20,16,10,18,18
56.175,9,-10,27,19,-6,-3,-12,-22
56.18,5,7,-22,-25,-6,-1,-9,6
56.185,0,12,51,23,10,4,8,6
56.19,10,-13,-32,2,-4,0,-2,-16
56.195,-3,27,63,8,3,4,12,-3
56.2,1,12,22,21,9,5,3,-3
56.205,-17,-12,39,-29,-14,-11,-18,-6
56.21,13,-3,-22,14,3,1,2,3
56.215,-1,19,22,1,3,-1,-5,-7
56.22,-6,-24,-43,-10,-3,0,12,-5
56.225,-17,-58,46,-6,-1,0,-7,3
56.23,-3,19,-46,-11,-5,-8,-27,-9
56.235,-6,-9,36,-4,-4,-5,-7,-1
56.24,1,-1,9,15,6,1,5,5
56.245,19,13,-8,-4,5,3,13,-4
56.25,-7,2,3,7,-1,0,1,3
56.255,-5,-2,-61,2,3,2,5,4
56.26,-1,2,37,-3,-1,1,6,-2
56.265,12,5,-35,0,-5,-5,-8,12
56.27,0,-8,-2,8,1,1,9,11
56.275,-15,28,-35,-14,-2,4,15,-13
56.28,-6,-16,23,7,-2,-6,-38,-16
56.285,25,21,30,19,9,6,8,17
56.29,-28,-26,-3,-15,-5,-4,-1,-4
56.295,12,-7,7,5,-3,-3,-1,4
56.3,1,1,-28,3,-6,-4,0,-8
56.305,-16,13,81,-9,-6,-5,-3,-13
56.31,6,-20,12,2,4,2,-1,7
56.315,-5,-10,-33,-8,0,-2,0,3
56.32,10,14,59,30,11,6,4,0
56.325,-8,31,-9,-14,-8,-7,-5,-3
56.33,-15,25,31,2,-1,-2,2,-10
56.335,-12,-20,-18,-11,-5,-3,-10,3
56.34,6,14,29,21,11,4,1,6
56.345,-14,-48,-12,-54,-25,-14,-8,-16
56.35,11,17,30,22,12,7,5,7
56.355,5,-9,-15,-5,0,-1,-4,-4
56.36,-4,-28,-49,-36,-16,-9,-3,-6
56.365,5,4,-9,27,11,7,5,0
56.37,-6,-26,-36,-19,-9,-6,-5,-8
56.375,-1,-5,-1,1,-3,-3,2,-2
56.38,11,22,79,-1,4,4,-2,5
56.385,-10,-24,-55,-30,-14,-8,-5,-8
56.39,-4,-5,-17,1,3,2,-2,-5
56.395,25,-10,-36,13,6,2,0,2
56.4,-15,11,50,-11,-5,-4,2,-5
56.405,2,3,6,16,2,-2,-1,2
56.41,18,-2,10,4,-2,-1,-1,5
56.415,2,-9,-14,-19,-9,-3,-3,-3
56.42,-31,35,18,40,7,0,2,4
56.425,11,-3,-56,-29,-2,-1,-3,-5
56.43,-18,-5,7,-7,-3,-1,1,-5
56.435,-4,4,39,-7,-4,-4,-5,-3
56.44,9,-21,-27,-24,-7,-3,2,4
56.445,-9,-11,-2,19,-1,-3,0,-2
56.45,9,12,-1,10,6,0,2,4
56.455,4,7,-19,-10,-4,-3,0,2
56.46,-28,-11,-43,-21,-8,-3,-2,-10
56.465,9,-3,11,-3,1,0,3,0
56.47,-2,-12,7,5,1,-1,-2,-6
56.475,-11,-12,-20,7,3,-1,-6,2
56.48,13,-6,11,-10,-7,-5,-1,-8
56.485,26,17,12,-4,4,4,4,15
56.49,26,9,-3,0,-4,0,3,4
56.495,-81,-17,6,6,1,-1,-3,-10
56.5,6,0,-4,19,6,-3,-5,-9
56.505,-4,-18,-30,-21,-7,-6,-5,-5
56.51,30,15,33,12,0,0,-1,4
56.515,66,23,-16,3,2,6,9,21
56.52,-3,11,4,-7,-3,1,6,4
56.525,-81,-28,22,26,1,-6,-3,-33
56.53,-80,-34,-9,-2,0,-4,-13,-8
56.535,27,12,8,2,-1,-2,-2,-1
56.54,51,20,-23,3,1,4,6,14
56.545,25,24,14,8,5,4,2,9
56.55,-11,-4,-12,-26,-11,-6,0,2
56.555,63,22,5,14,8,11,18,33
56.56,-37,35,-11,-4,-3,-9,-10,-6
56.565,29,11,11,-11,-1,5,6,-14
56.57,-81,-43,12,18,-4,-16,-17,-45
56.575,1,-21,-17,-17,-4,1,-6,-14
56.58,94,-3,-69,-9,1,5,-3,0
56.585,-33,-6,3,1,2,3,0,28
56.59,22,14,25,32,2,-9,-26,-5
56.595,-86,-40,-53,-42,-13,-7,-5,-27
56.6,-30,-46,8,-23,-6,2,13,60
56.605,46,89,32,17,6,3,14,8
56.61,-27,-110,-34,-21,-3,-2,-3,-34
56.615,-109,49,31,40,2,-4,1,22
56.62,61,46,-9,-21,-10,-13,-12,-32
56.625,-128,-93,17,-7,-12,-28,-52,-90
56.63,88,54,15,-51,-14,0,18,52
56.635,45,69,-6,17,13,12,23,31
56.64,16,44,24,-4,4,13,11,-22
56.645,127,-19,-10,34,-11,-8,12,22
56.65,28,24,-17,3,-12,-23,-48,-36
56.655,55,2,28,-8,2,7,-5,-24
56.66,-66,-86,-30,19,-5,-1,5,-17
56.665,127,104,1,-13,11,23,16,21
56.67,28,-2,-54,14,18,16,31,30
56.675,77,-45,11,-56,-23,-23,-32,-25
56.68,82,58,-66,40,24,16,8,24
56.685,-32,-79,31,-95,-34,-23,-13,-38
56.69,-62,111,27,30,-12,-13,-17,-27
56.695,46,55,30,0,7,6,15,4
56.7,-9,-88,50,36,4,-15,-37,-31
56.705,3,33,-68,48,1,4,4,25
56.71,-35,-46,-49,-99,-26,-9,11,6
56.715,-12,-17,11,83,43,17,3,2
56.72,-40,-9,49,-41,-15,4,15,-2
56.725,-30,20,4,85,18,4,6,24
56.73,105,66,11,-18,-5,2,12,-10
56.735,23,-2,-2,20,-17,-12,4,33
56.74,-56,-47,-3,-13,-13,-23,-40,-51
56.745,-19,48,-47,1,16,15,10,25
56.75,80,10,33,-20,-13,5,13,23
56.755,-88,-21,-10,-4,16,-11,-38,-71
56.76,14,70,46,-7,-6,-4,13,57
56.765,-14,-39,-40,-2,-2,-19,-32,-40
56.77,-10,24,37,7,14,19,7,9
56.775,26,-6,-11,-15,-8,1,21,46
56.78,-94,-77,16,-23,-8,0,6,-6
56.785,30,92,-6,24,15,17,2,2
56.79,21,-19,0,69,11,-2,17,64
56.795,59,76,27,-59,-16,-16,-12,-7
56.8,90,65,-60,-55,-5,-3,-21,-37
56.805,-54,57,113,18,1,-1,18,35
56.81,121,100,-109,3,22,24,12,26
56.815,-124,-122,39,-62,-53,-36,-19,-64
56.82,10,13,0,-7,-3,-14,-17,-26
56.825,44,-13,10,-19,-1,4,-2,53
56.83,71,68,2,116,34,23,26,10
56.835,-17,21,37,-49,-15,-7,-14,-4
56.84,-13,-6,-52,67,8,4,2,28
56.845,-91,-88,31,-99,-25,-26,-18,-47
56.85,-55,-12,11,17,5,2,-8,-7
56.855,55,31,-41,64,18,23,49,82
56.86,-49,-53,12,-20,-9,-18,-19,-56
56.865,27,20,-32,1,10,14,-8,-12
56.87,45,0,11,45,-5,-12,-14,0
56.875,-5,-11,19,-47,-3,0,3,-13
56.88,-8,-41,20,-24,-2,-1,-8,9
56.885,-32,-50,-69,10,-8,1,11,-10
56.89,23,37,6,40,13,2,-3,-9
56.895,-57,-34,-71,-4,-6,1,-18,-11
56.9,-43,-63,7,-68,-10,5,39,69
56.905,61,70,30,31,3,-15,-28,-11
56.91,-49,-1,33,-35,-8,-5,-9,-14
56.915,35,57,-48,53,13,12,11,-8
56.92,4,-66,-26,24,-12,-11,-7,-20
56.925,79,39,-4,-25,-7,2,5,-8
56.93,-38,33,19,-14,7,3,17,24
56.935,-48,-98,43,1,-15,-31,-54,-51
56.94,74,82,-27,19,7,14,5,-14
56.945,-114,44,15,87,28,25,48,58
56.95,-86,-110,32,-38,-24,-28,-52,-108
56.955,14,33,-21,-5,0,4,1,-18
56.96,33,71,-19,102,16,14,25,31
56.965,29,0,64,-25,7,8,0,29
56.97,59,10,-15,-68,-9,1,5,-13
56.975,-60,-38,46,22,0,1,14,7
56.98,16,20,45,38,5,-2,-20,-38
56.985,60,6,-79,8,-22,-22,-24,-79
56.99,-92,-63,23,-35,0,2,13,12
56.995,-17,-26,-20,-18,-5,0,-7,-5
57,93,124,4,15,6,11,7,-28
57.005,-128,-127,53,21,-7,-10,-9,3
57.01,29,17,-21,-14,-10,-1,-4,-15
57.015,84,70,-39,40,20,20,19,-48
57.02,-96,-9,60,-61,-9,-12,10,7
57.025,-38,-64,-64,-26,-10,-9,-10,-4
57.03,-17,-31,-36,-20,-5,-3,-15,-33
57.035,0,-21,13,-35,8,10,22,42
57.04,20,37,-38,63,5,-2,-7,-3
57.045,86,61,9,7,3,6,9,-9
57.05,33,-78,60,-92,-15,-8,-1,-13
57.055,54,45,29,32,2,-4,-15,0
57.06,29,13,-9,-15,1,3,4,16
57.065,8,-19,-41,-44,-17,-11,-4,14
57.07,23,58,51,81,15,-3,-7,25
57.075,14,-47,-60,27,-1,-3,-3,6
57.08,-15,-17,88,-103,-2,13,19,30
57.085,43,35,13,11,-4,-16,-31,-58
57.09,11,19,-34,18,10,19,29,47
57.095,-72,-61,39,10,-14,-16,10,34
57.1,-28,-47,-29,-14,-10,-11,-33,-20
57.105,4,8,-19,31,7,4,9,10
57.11,19,48,19,-48,-7,-3,-4,26
57.115,-31,37,-24,10,5,-2,-8,9
57.12,-30,43,9,64,-1,-10,3,-29
57.125,9,15,2,-20,12,8,2,2
57.13,-44,-58,-55,19,-9,-11,-10,-12
57.135,62,44,-10,45,1,7,3,14
57.14,3,-5,-18,-20,4,18,28,40
57.145,108,5,105,2,0,-5,1,21
57.15,-3,-23,-42,95,16,1,-4,-9
57.155,-27,-2,26,-128,-23,-5,-8,-33
57.16,-1,-47,-27,-8,-5,-10,-18,-36
57.165,18,-31,-8,4,-5,7,16,36
57.17,-16,-29,34,0,1,-2,-3,-9
57.175,74,36,-41,3,8,5,-20,-21
57.18,-20,-43,0,48,-4,-10,31,43
57.185,0,4,20,-56,-1,4,-10,-19
57.19,-19,11,-29,12,0,1,3,-4
57.195,48,22,21,-45,-9,-5,-9,-12
57.2,92,45,-60,37,9,-2,-13,14
57.205,-92,-71,17,102,5,9,19,-1
57.21,40,19,24,-100,-18,-10,-8,-13
57.215,3,22,-42,49,12,7,10,32
57.22,-49,8,56,-60,-9,5,-1,-2
57.225,-15,-23,-31,30,17,13,20,50
57.23,21,92,66,-57,-19,-25,-38,-47
57.235,1,-24,-13,9,0,0,-7,0
57.24,-41,21,-12,-1,1,7,8,-12
57.245,16,11,3,7,0,-6,-25,-28
57.25,-82,-43,-17,-8,-2,5,26,23
57.255,2,-23,2,12,-6,-14,-17,-31
57.26,20,-4,-6,-5,0,-6,-29,14
57.265,12,9,1,-79,1,17,25,28
57.27,61,-23,-84,127,29,13,20,41
57.275,-9,63,121,-70,-35,-13,-9,-34
57.28,-46,-68,-48,33,1,1,-5,-20
57.285,23,1,-42,49,-4,-3,10,10
57.29,-29,-3,23,-21,-5,7,1,-5
57.295,-28,-16,-32,39,22,13,10,35
57.3,35,38,2,-68,-13,-10,-9,-16
57.305,-11,5,-7,-26,-12,-8,-10,-3
57.31,-13,-50,34,18,-3,-4,4,3
57.315,8,-13,24,3,2,-2,-1,-9
57.32,-20,-2,1,-35,-6,-3,-7,5
57.325,-11,9,15,0,-6,-14,-5,-9
57.33,-26,3,-22,-1,-2,-2,-22,-16
57.335,-24,-18,-8,21,4,-4,7,-12
57.34,11,0,12,8,-6,-7,-12,-15
57.345,48,28,-21,4,3,6,8,16
57.35,-8,3,3,7,8,0,1,6
57.355,29,1,1,-11,-6,-1,0,-7
57.36,-33,-12,8,-1,4,-2,1,0
57.365,-5,4,16,-10,-4,-7,-15,-21
57.37,-3,-3,13,-27,-7,3,4,2
57.375,4,-1,-61,14,9,6,9,18
57.38,29,19,29,34,8,6,7,0
57.385,-26,-3,-2,-16,-3,-8,-12,-13
57.39,15,18,-28,-7,-5,-5,7,7
57.395,-3,-6,11,-1,2,2,-3,23
57.4,9,-2,26,5,-7,-2,-7,-30
57.405,-8,-10,-11,-12,6,6,13,10
57.41,-12,-19,3,-10,-8,-9,-19,-15
57.415,5,31,9,11,2,-5,6,20
57.42,-23,-10,-16,-10,-1,2,5,-6
57.425,-25,27,12,4,-2,5,-16,-33
57.43,19,-10,-15,-2,-1,-2,29,21
57.435,-4,0,49,27,9,-1,-6,-10
57.44,11,-8,-36,-17,-6,-6,-31,20
57.445,-14,0,-19,-18,-5,0,26,-9
57.45,5,-2,-3,7,-5,-11,-29,-17
57.455,-22,-13,5,-19,-7,6,-7,-13
57.46,11,3,24,15,9,-1,8,5
57.465,-7,-7,29,-20,-13,-17,10,-6
57.47,14,-1,-40,-5,-1,15,28,-5
57.475,-12,1,12,12,4,-9,3,13
57.48,3,1,4,12,6,6,7,24
57.485,-8,-37,-104,-39,-8,-5,-36,-39
57.49,6,8,73,14,1,-1,10,16
57.495,-15,-13,-23,-9,-2,3,-6,-43
57.5,5,13,18,-4,-1,2,9,25
57.505,0,-33,10,-5,-2,-4,6,3
57.51,0,15,-24,-3,3,0,-17,37
57.515,27,-8,16,21,7,3,-3,30
57.52,-45,-10,-48,-41,-17,-13,5,-23
57.525,3,7,38,23,6,0,3,3
57.53,5,6,3,-1,3,12,-17,-20
57.535,-11,-11,-31,-25,-19,-24,6,28
57.54,13,2,17,16,6,-1,13,-18
57.545,-4,20,2,-3,-7,-5,13,6
57.55,-8,4,17,4,6,7,-37,-18
57.555,31,32,28,34,12,12,-1,1
57.56,-20,-36,-76,-57,-22,-19,-16,-34
57.565,3,-9,-67,-12,0,-2,-7,25
57.57,1,14,86,55,11,6,46,23
57.575,-4,-16,-24,-17,-5,-6,-30,-26
57.58,16,31,126,32,10,6,10,5
57.585,-17,-17,65,3,-5,-5,-29,-43
57.59,-16,-7,-84,-63,-18,-15,-25,1
57.595,19,53,88,92,34,21,42,32
57.6,-15,-73,-96,-87,-43,-18,-45,-65
57.605,12,77,127,105,32,16,23,25
57.61,0,-9,-25,11,5,-2,8,-6
57.615,-45,-72,3,-103,-46,-29,-20,-44
57.62,30,80,98,101,37,33,119,102
57.625,-24,-34,-115,-99,-33,-21,-105,-101
57.63,30,101,127,85,25,5,20,19
57.635,0,-5,-124,3,21,18,14,7
57.64,-49,-65,-89,-71,-40,-33,-35,-15
57.645,58,48,98,73,30,20,53,50
57.65,-26,-35,-110,-54,-13,-8,-3,18
57.655,-2,12,64,11,-6,-7,-41,-14
57.66,10,12,-19,-5,19,15,21,-10
57.665,13,-54,-36,-49,-39,-22,-12,47
57.67,-18,37,33,3,5,5,2,-21
57.675,23,15,-45,48,19,11,22,5
57.68,-16,-43,-61,-63,-17,-16,-36,39
57.685,4,10,40,28,10,2,12,-14
57.69,-6,-48,-102,-27,-17,-8,-4,7
57.695,-18,-14,22,-58,-22,-12,5,-6
57.7,24,55,77,57,23,9,-40,-31
57.705,-24,-23,2,-11,2,-2,-27,-9
57.71,8,-11,-82,12,2,7,21,0
57.715,-14,-12,65,-40,-19,-12,-9,-16
57.72,12,13,4,37,8,4,11,13
57.725,-4,-6,53,11,12,10,34,16
57.73,-8,-18,22,11,-4,-5,-25,-31
57.735,10,9,-35,17,7,6,20,24
57.74,-5,19,62,15,1,-2,-4,-10
57.745,-9,1,-40,-17,-3,-1,-5,-4
57.75,0,-7,47,-3,0,-1,3,0
57.755,-15,-82,-68,-61,-27,-18,-17,-12
57.76,38,63,80,49,17,11,1,14
57.765,-11,-4,-52,-3,1,1,-1,-5
57.77,-6,-20,53,-9,-9,-8,-2,-9
57.775,8,-2,37,34,17,10,13,9
57.78,-3,-30,-87,-15,-13,-11,-22,-15
57.785,1,13,39,12,1,2,12,22
57.79,-27,-31,8,-53,-14,-9,-7,-23
57.795,19,44,31,25,9,8,-3,10
57.8,-12,-12,-11,16,5,5,17,-10
57.805,-22,2,-9,-7,-7,-8,-13,1
57.81,0,-6,-23,9,5,2,0,1
57.815,-7,4,-19,-5,-3,-1,-1,-12
57.82,12,-15,-17,8,1,-1,1,-1
57.825,-2,-19,20,-18,-11,-4,7,9
57.83,13,11,69,21,7,4,1,5
57.835,-12,-11,-111,-28,-10,-8,-6,-15
57.84,14,31,66,36,11,8,-1,-1
57.845,-2,-18,-32,-26,-9,-4,-3,-8
57.85,10,2,-24,-9,-4,-1,-1,1
57.855,2,4,37,23,6,2,1,6
57.86,-8,-12,45,-2,-3,-5,-7,-6
57.865,6,25,23,7,9,5,3,0
57.87,-8,-15,-59,-24,-13,-7,-2,-5
57.875,-2,12,14,3,0,-1,-2,0
57.88,-1,1,15,-12,-2,-2,-3,5
57.885,16,7,56,34,7,3,6,2
57.89,-11,-17,-14,-29,-5,-7,-9,-6
57.895,-12,13,41,29,6,4,0,-3
57.9,-6,-33,-44,-45,-12,-5,-4,0
57.905,3,16,-3,15,-2,-2,1,2
57.91,10,7,-2,4,-1,1,1,-1
57.915,-2,-5,27,-13,-7,-5,-1,1
57.92,4,4,-14,15,5,1,-2,-11
57.925,8,-11,-36,-14,0,-1,0,-1
57.93,-6,39,21,9,2,2,1,1
57.935,-16,-16,-26,-17,-8,-4,-1,-6
57.94,-7,-7,37,11,4,2,4,11
57.945,-13,-24,-68,-33,-12,-8,0,-10
57.95,4,-7,-6,10,3,0,-7,-7
57.955,28,41,27,9,6,5,7,13
57.96,-6,-17,-20,-21,-10,-7,-5,-6
57.965,-4,-9,-13,4,3,2,3,2
57.97,0,2,26,10,2,0,3,-1
57.975,5,15,-17,10,5,3,-3,3
57.98,-5,-33,-30,-5,-1,-3,-6,-1
57.985,-5,0,27,-8,-9,-5,-3,-6
57.99,2,10,18,4,4,2,-1,2
57.995,4,-3,45,11,-1,0,-2,-1
58,5,0,-30,-43,-9,-3,0,2
58.005,2,-3,12,5,2,-1,-4,-2
58.01,-18,35,-18,8,2,0,1,-2
58.015,-15,1,12,0,1,2,-3,-6
58.02,13,20,52,14,2,3,2,5
58.025,13,-1,-29,-9,-5,-2,-2,-2
58.03,-9,-19,28,-7,-3,-1,1,3
58.035,-12,-16,-31,1,-2,-2,0,-7
58.04,-24,40,3,3,-2,-1,-3,-8
58.045,7,15,22,16,5,5,4,4
58.05,4,-23,-5,-6,-6,-6,-8,-1
58.055,13,-1,19,-4,-4,1,-5,0
58.06,6,1,-20,15,4,3,3,5
58.065,-16,-1,17,-7,-6,-5,-7,-7
58.07,9,-6,-3,6,4,2,5,0
58.075,2,-14,-22,-9,-6,-4,3,5
58.08,6,1,35,8,-2,0,-7,-11
58.085,-17,-12,-23,-10,2,1,1,-1
58.09,13,2,-12,0,-2,1,3,6
58.095,1,-8,5,3,-3,-5,-5,-5
58.1,-27,0,-1,-8,-2,-3,1,-1
58.105,-8,39,-11,6,3,2,-1,-1
58.11,-8,-29,-27,-19,-12,-8,-6,-9
58.115,9,5,12,-1,-2,0,0,0
58.12,23,8,27,-1,3,3,5,11
58.125,-18,-36,0,3,1,0,-3,-5
58.13,3,4,-1,22,6,3,0,0
58.135,-16,-19,-51,-24,-9,-8,-6,-8
58.14,-5,-19,24,-3,-6,-8,-5,-4
58.145,10,4,-5,-12,-2,1,1,3
58.15,7,15,30,12,5,3,2,3
58.155,-6,-13,-20,-18,-2,-1,-2,-3
58.16,-1,-12,-71,-9,-2,1,-3,-1
58.165,2,5,28,6,-1,-1,0,4
58.17,4,-12,-15,-3,-1,-2,-1,-2
58.175,-5,0,23,1,-4,0,-1,0
58.18,8,-17,10,3,-1,-3,-3,3
58.185,-14,3,-13,2,2,0,-1,-4
58.19,-13,-12,-2,-11,-6,-5,-6,-9
58.195,-8,-4,8,-5,0,-3,-2,-2
58.2,20,16,10,16,0,0,1,3
58.205,3,6,-12,-1,0,1,2,5
58.21,15,7,39,-7,2,0,0,-1
58.215,-1,-5,-15,1,-4,-2,-1,1
58.22,-41,-25,-42,-29,-11,-11,-7,-12
58.225,8,-8,0,17,4,-2,3,0
58.23,3,7,-11,-4,-1,0,-7,2
58.235,10,7,17,13,2,-1,-2,-1
58.24,21,-1,21,23,10,4,4,5
58.245,-26,-32,-11,-26,-9,-5,-8,-11
58.25,-1,-10,10,4,-2,-2,5,1
58.255,23,6,-3,-6,-4,-1,1,7
58.26,-7,7,18,1,0,2,-1,0
58.265,2,5,-8,8,2,-1,2,1
58.27,-96,-43,7,-14,-12,-12,-12,-18
58.275,-32,-12,-5,-9,-6,-7,-9,-20
58.28,38,28,-7,12,7,6,9,23
58.285,29,17,4,-34,-7,-3,-2,3
58.29,-40,-9,-22,21,5,2,10,7
58.295,16,13,1,12,-2,1,0,16
58.3,35,24,77,12,8,-3,-33,-7
58.305,8,10,-86,-13,1,4,4,25
58.31,-43,-53,-6,-18,-13,-10,-26,-58
58.315,73,19,4,20,10,8,16,1
58.32,-56,-15,-12,-35,-7,3,20,19
58.325,77,80,37,18,-4,-1,-11,-12
58.33,111,77,9,28,24,26,42,77
58.335,-118,-97,-20,2,-11,-23,-37,-89
58.34,28,86,24,17,1,6,35,49
58.345,59,44,18,-20,-8,-8,-37,-19
58.35,-60,-72,-29,-26,-14,-22,-33,-54
58.355,64,127,25,15,13,16,26,48
58.36,77,-12,-54,4,4,2,-3,-4
58.365,-8,-12,13,-54,-11,1,32,6
58.37,107,17,-22,18,0,-1,-8,9
58.375,-71,-79,12,-14,-4,-8,-9,-4
58.38,-25,21,20,11,-15,-17,-4,13
58.385,39,-32,-40,5,9,4,-2,-3
58.39,8,-30,-28,47,13,14,8,-11
58.395,22,13,21,-47,-21,-14,-3,-16
58.4,33,8,-17,2,3,3,-10,-1
58.405,55,-5,23,107,10,3,5,-1
58.41,30,53,8,-95,-10,4,23,37
58.415,-9,-19,1,37,8,1,-9,-8
58.42,-44,-45,-30,-4,-2,2,9,-13
58.425,71,71,-1,38,10,-3,-4,58
58.43,-128,-73,-47,22,-3,3,1,-33
58.435,28,-16,6,-48,-6,-10,-14,7
58.44,51,79,91,-28,-9,-3,-7,-18
58.445,-72,-119,-16,44,3,-6,-1,-42
58.45,22,54,51,13,5,6,-2,19
58.455,40,10,-51,40,11,18,16,49
58.46,-128,-95,-52,-84,-15,-21,-16,-56
58.465,15,-13,41,-61,-9,-1,-3,-21
58.47,70,45,6,29,10,10,16,59
58.475,-44,-11,20,2,-5,-10,-19,-35
58.48,-72,-64,55,-31,-3,-2,0,-38
58.485,-34,17,-73,27,-10,-12,-21,-32
58.49,78,11,-32,-55,-2,3,27,49
58.495,68,50,16,36,4,2,1,-2
58.5,120,67,-18,60,0,-9,-11,21
58.505,-78,19,54,-3,0,2,11,22
58.51,-101,-51,-80,22,-12,-18,-36,-51
58.515,-7,8,39,-71,-18,-11,-3,8
58.52,23,-21,38,11,8,2,-3,-16
58.525,117,89,-43,-18,-5,-1,3,13
58.53,-28,3,88,-19,-12,-12,0,-25
58.535,-116,-110,42,-26,-15,-7,-9,-21
58.54,-20,-47,-82,48,19,6,-9,-18
58.545,-15,9,21,-16,4,1,1,12
58.55,126,127,-25,14,14,19,29,85
58.555,-72,-74,-13,3,-22,-21,-3,11
58.56,-20,-30,7,60,25,17,-10,-68
58.565,0,25,31,-29,-9,-4,10,15
58.57,88,68,19,37,10,-1,-18,-30
58.575,33,47,-41,67,16,15,22,4
58.58,29,-19,-19,-69,-17,-3,-6,49
58.585,-55,-35,22,23,2,-2,-10,-17
58.59,51,18,-6,-1,0,-3,-6,2
58.595,122,-1,43,-28,5,7,11,2
58.6,-63,48,-59,8,3,6,7,16
58.605,-7,-29,-24,2,6,11,28,36
58.61,88,20,45,-29,-16,-9,-19,-41
58.615,-6,-1,-50,36,1,1,5,23
58.62,21,-72,48,-14,-10,-15,-30,-54
58.625,78,33,-1,-27,1,5,7,23
58.63,-22,-7,28,45,3,-8,-1,8
58.635,71,86,-11,-11,13,14,-11,-22
58.64,89,47,31,47,-14,6,39,74
58.645,-123,-102,-9,-33,-8,-12,-30,-62
58.65,-19,-27,-11,21,0,-11,-22,-26
58.655,-4,-50,-11,-10,-5,-8,2,-2
58.66,1,41,40,48,1,-2,-1,7
58.665,-94,-50,-33,-17,-9,-6,-5,-52
58.67,-47,-16,60,-94,-17,-3,1,13
58.675,36,29,1,47,19,15,4,2
58.68,-27,-66,-61,-18,-11,-11,-7,-44
58.685,-4,-46,13,20,-1,-2,-4,13
58.69,64,7,-48,-40,-6,3,-2,-37
58.695,-48,-46,54,-18,-4,-13,-2,-9
58.7,64,53,61,6,5,4,5,-7
58.705,-11,15,-10,14,5,3,3,11
58.71,-2,-34,-10,-6,-2,5,7,-7
58.715,20,96,-102,-11,-3,7,3,-38
58.72,-73,18,30,3,-4,-8,3,34
58.725,14,-13,36,-23,-2,-7,-6,5
58.73,-67,-44,13,-15,2,5,6,-6
58.735,28,60,19,14,2,0,-9,5
58.74,-34,-49,-19,-53,-14,-13,-19,0
58.745,34,43,-73,61,-6,-13,-28,-48
58.75,-8,-75,21,-69,-17,4,27,34
58.755,60,19,66,19,-8,-13,-10,-1
58.76,49,8,-31,-4,5,2,-1,-8
58.765,17,72,18,27,9,3,-7,-9
58.77,26,10,-66,64,-7,-7,-9,5
58.775,-90,-32,4,-63,3,5,5,-15
58.78,84,-2,25,-83,-11,5,8,6
58.785,13,-8,13,20,9,5,10,13
58.79,22,24,-10,60,13,7,1,3
58.795,-29,54,52,-72,-7,6,8,29
58.8,-52,19,-46,69,12,-5,-32,2
58.805,67,10,4,-61,-3,10,34,79
58.81,-42,16,-1,23,-3,-4,5,-26
58.815,-9,-42,-36,27,3,0,-19,2
58.82,44,-2,23,12,-11,-3,-2,-31
58.825,30,51,-22,-15,-3,-6,-12,13
58.83,-24,-30,-7,6,0,-12,-14,-10
58.835,47,4,11,30,1,6,16,22
58.84,56,27,5,-10,9,12,17,14
58.845,2,-28,-36,-11,-19,-12,-14,-20
58.85,-39,3,55,18,4,-6,-7,-3
58.855,-27,-7,-30,12,3,0,0,-6
58.86,1,-3,11,35,-3,-5,-3,-8
58.865,-5,39,25,5,3,8,17,-5
58.87,-51,-3,-36,-13,7,2,-26,-21
58.875,10,-29,5,17,4,7,37,54
58.88,-10,12,-6,-30,-3,-3,-5,-6
58.885,-29,-69,-1,-2,4,3,-1,6
58.89,46,9,14,-14,-13,-8,0,2
58.895,5,13,-8,11,-1,-4,-12,3
58.9,56,32,-7,32,2,0,7,15
58.905,-44,-41,40,-17,-1,3,8,-17
58.91,-19,-4,-23,-13,-1,6,6,11
58.915,5,8,11,43,9,0,-6,-3
58.92,-21,-12,24,-94,-13,-5,6,4
58.925,20,0,1,29,-6,-6,-8,0
58.93,-31,18,32,28,15,0,-4,-6
58.935,4,-12,-16,1,2,-5,-8,-12
58.94,-14,0,-37,-3,-5,-5,-1,-8
58.945,36,19,-14,25,10,9,0,-26
58.95,-48,11,40,-4,-8,-5,8,-5
58.955,-50,-77,45,-48,-16,-8,-17,-28
58.96,22,-6,-47,14,15,9,5,15
58.965,-2,-9,-1,-14,-6,5,14,24
58.97,34,-18,-23,16,0,-5,-32,-37
58.975,37,-14,-28,15,7,6,6,8
58.98,-76,-59,78,-34,-21,-18,-3,-5
58.985,4,17,4,2,8,5,9,-3
58.99,3,1,-12,-3,-6,-3,5,17
58.995,7,9,-29,35,1,-2,-1,7
59,7,-18,35,-26,2,4,-2,7
59.005,-28,-14,-31,-3,1,2,5,5
59.01,49,4,31,-10,-9,-6,3,1
59.015,-20,11,12,-4,-3,-3,-8,-8
59.02,-10,17,-89,86,12,9,14,24
59.025,-36,-15,40,-53,-6,-15,-29,-43
59.03,-2,-8,-3,-4,3,4,5,-1
59.035,21,12,2,-11,-2,-1,3,12
59.04,-43,-22,-35,-7,-6,-2,-3,-9
59.045,12,-2,3,1,-5,-3,-8,2
59.05,-17,1,-9,8,0,-2,8,34
59.055,64,26,8,-26,-2,-4,5,-2
59.06,-81,12,17,2,4,1,16,30
59.065,-12,-29,12,15,-4,-14,-34,-54
59.07,5,-8,-19,-21,-3,0,-2,-12
59.075,2,-5,-8,-4,1,1,-5,-8
59.08,25,-21,-17,7,1,2,1,-7
59.085,1,5,2,5,2,2,13,16
59.09,-18,-9,-11,-28,-8,0,4,2
59.095,-7,8,-15,20,3,-3,-4,-6
59.1,20,10,-9,3,8,2,-5,-9
59.105,-6,1,12,21,5,2,3,5
59.11,1,-10,1,-9,-4,-3,-7,-13
59.115,-10,-5,-30,-26,-11,-2,1,2
59.12,10,16,25,-4,-2,-1,-6,-1
59.125,-1,8,-2,3,0,-1,2,2
59.13,-1,-11,9,3,-2,-3,8,1
59.135,8,13,18,-5,2,2,-21,7
59.14,-22,-1,0,-3,-2,14,30,-13
59.145,4,11,14,-2,0,-7,10,-32
59.15,-7,3,-10,6,1,-12,-45,-12
59.155,3,-4,-13,-22,-7,-5,6,18
59.16,38,12,13,7,0,-1,-25,5
59.165,-11,1,-4,0,0,5,5,23
59.17,10,8,11,11,7,10,29,-15
59.175,-23,-5,3,4,-1,-2,0,-12
59.18,17,-5,-28,-15,-4,0,4,34
59.185,-9,14,33,6,1,-4,6,24
59.19,22,-12,-59,-8,-3,-8,-16,-31
59.195,-25,9,27,8,-2,4,14,-6
59.2,5,-13,-30,-15,-5,-8,-12,-16
59.205,-6,-21,-38,-11,-4,1,-10,-15
59.21,4,30,74,27,8,10,23,42
59.215,9,15,45,19,6,1,32,1
59.22,27,6,-20,-27,-10,-14,-53,17
59.225,-36,-17,-44,-3,-6,-3,3,-18
59.23,0,30,-43,-14,-5,1,-26,-23
59.235,-6,-11,51,30,3,-4,-1,-2
59.24,-1,31,90,22,7,-5,53,2
59.245,22,-38,-66,-80,-21,-12,-38,52
59.25,-14,-2,71,14,2,-2,-30,-42
59.255,-1,15,-35,-14,1,4,-20,0
59.26,2,22,75,49,14,12,-3,-22
59.265,28,1,4,17,3,0,29,36
59.27,-14,-18,-56,-51,-12,2,5,-1
59.275,3,6,5,15,6,-3,8,-15
59.28,-11,-2,43,9,0,-10,-43,-48
59.285,-5,-31,-72,-56,-16,-4,22,25
59.29,9,12,10,9,-1,-3,-3,52
59.295,-3,21,-25,5,0,5,-7,-11
59.3,-15,-40,-68,-63,-13,1,20,-2
59.305,7,14,47,64,22,9,15,2
59.31,5,-6,53,6,3,3,59,16
59.315,1,-26,-98,-42,-17,-14,-35,36
59.32,-23,-2,37,62,15,-1,-79,-68
59.325,-10,-24,-1,-54,-16,-5,-1,-20
59.33,-4,-11,-38,32,10,6,13,11
59.335,0,-18,75,-18,-4,-6,-7,-29
59.34,29,20,50,28,8,5,16,55
59.345,3,34,11,17,4,1,8,-10
59.35,-10,-36,-79,-40,-14,-5,45,13
59.355,-21,-8,61,1,-1,5,4,26
59.36,3,9,54,5,5,-4,-70,-41
59.365,-13,-12,15,-51,-20,-17,-14,-41
59.37,25,33,11,47,18,7,-18,17
59.375,7,-14,-23,-20,-1,2,26,-3
59.38,-10,41,-71,8,-7,1,46,22
59.385,11,30,89,55,20,12,-10,-5
59.39,-38,-38,-54,-70,-29,-21,-16,-24
59.395,16,16,22,23,10,7,-9,-3
59.4,1,-18,21,-23,-8,-4,23,-4
59.405,6,57,1,15,3,0,-12,10
59.41,12,18,37,27,8,4,-10,0
59.415,-14,-13,-63,-37,-10,-5,-4,-16
59.42,8,4,9,16,4,3,12,15
59.425,-8,-29,-87,-19,-13,-6,-7,-13
59.43,-7,-8,-7,-15,-4,-3,-14,0
59.435,-9,-17,-88,-15,-2,-3,-6,-10
59.44,-19,-28,-37,-23,-11,-5,19,13
59.445,7,2,14,16,5,1,-12,-1
59.45,-2,5,2,10,2,0,-7,-12
59.455,-11,-15,11,1,-5,-4,-3,-6
59.46,6,5,6,-4,0,2,14,5
59.465,-1,-10,-13,13,0,-3,0,3
59.47,-3,0,28,-13,-1,-3,-11,-4
59.475,3,4,33,7,-7,-4,3,0
59.48,-12,6,-22,-22,-8,-4,0,1
59.485,3,27,83,29,10,7,-1,-3
59.49,-13,-24,-57,-12,-4,-4,-5,-9
59.495,13,32,34,33,13,6,8,17
59.5,-13,-29,-46,-32,-10,-7,2,-19
59.505,-6,-4,-55,-16,-6,-3,-4,-7
59.51,14,24,20,31,15,10,6,9
59.515,-12,-31,32,-34,-19,-17,-5,-1
59.52,-3,-6,-26,3,2,2,-12,-4
59.525,-1,-11,-2,6,2,2,-10,-4
59.53,0,-4,6,-2,-1,0,3,3
59.535,5,17,-1,9,0,1,-5,-9
59.54,-3,-22,13,10,-2,-2,13,5
59.545,-6,-15,-10,-23,-5,-4,-1,-4
59.55,4,0,1,-1,-2,-2,-9,2
59.555,-3,-2,-7,-7,0,0,2,-1
59.56,7,10,-10,-2,-1,0,5,3
59.565,1,-4,-17,11,2,4,2,-3
59.57,-4,0,50,23,2,-1,-1,-2
59.575,-11,-15,22,-11,-6,-4,-6,-12
59.58,7,-2,-36,-11,2,0,3,4
59.585,-1,9,33,12,2,-1,0,1
59.59,-5,-1,48,-9,-6,-5,-4,-5
59.595,-2,0,-41,7,2,1,-4,-2
59.6,9,-7,0,0,1,1,2,3
59.605,1,-5,35,1,-3,-2,1,0
59.61,-8,-11,0,-10,-2,-3,-3,-5
59.615,8,-11,-1,7,4,3,1,0
59.62,-10,8,-21,-1,-2,-2,1,2
59.625,4,14,29,23,5,0,2,6
59.63,-7,-12,-32,-5,-3,-5,-3,-7
59.635,3,-10,-19,12,7,4,-1,-1
59.64,-10,-17,27,-23,-10,-5,-2,-6
59.645,10,5,17,6,1,2,4,1
59.65,5,4,-5,-3,0,-2,-2,1
59.655,-12,4,-1,-2,-1,-2,-1,-3
59.66,-4,1,-18,33,6,3,10,6
59.665,-7,0,-6,-20,-5,-2,-12,-9
59.67,-4,-17,2,-18,-6,-4,-4,-6
59.675,9,16,-5,-1,-3,-2,-2,2
59.68,6,9,13,20,2,2,5,4
59.685,-3,-9,-8,-4,1,1,1,-1
59.69,-7,-9,-15,-3,0,-1,-2,-3
59.695,-5,4,1,-8,-3,-2,-2,-4
59.7,-1,15,9,4,3,-1,-4,-4
59.705,10,-7,-37,-4,-2,-1,1,0
59.71,6,-12,47,12,2,1,-3,0
59.715,-5,14,-8,-4,-1,-1,0,-1
59.72,4,10,9,6,0,0,-2,1
59.725,-9,-11,-40,-19,-4,-4,-1,-4
59.73,4,6,12,2,-2,0,1,1
59.735,3,-2,-1,-4,-1,-1,-1,1
59.74,0,-11,-31,-11,-2,-2,-3,-2
59.745,1,13,48,22,3,0,2,2
59.75,-9,-10,-38,-21,-8,-5,-4,-5
59.755,-3,2,9,3,1,-1,-1,-2
59.76,-2,4,-2,-29,-2,0,-3,0
59.765,-3,-8,12,25,-2,-2,0,-2
59.77,-8,4,-12,2,3,1,-1,-4
59.775,1,-3,-6,-1,1,1,-1,1
59.78,2,-5,11,-6,-2,-2,-2,1
59.785,4,-2,-9,-4,-4,-3,0,0
59.79,10,12,14,4,-2,-1,0,0
59.795,-6,6,-7,1,-3,0,-1,-2
59.8,-5,-11,-19,-5,-4,-3,-4,-4
59.805,1,3,13,-6,1,1,-1,0
59.81,4,20,48,14,1,-1,0,1
59.815,-5,-26,-35,-17,-4,-3,-2,-3
59.82,-3,-11,-10,-13,-5,-4,-3,-5
59.825,1,1,-14,3,2,0,-2,-1
59.83,-2,-2,-4,3,0,0,0,-1
59.835,2,7,20,1,0,0,0,2
59.84,3,-9,-2,5,-2,0,2,5
59.845,-5,-35,-37,-18,-3,-2,-2,-2
59.85,-19,15,6,11,-3,-2,-2,-2
59.855,1,-9,-1,-3,0,-1,-1,-8
59.86,3,1,-6,-5,-3,-1,-1,0
59.865,7,11,19,2,2,2,14,8
59.87,7,4,0,0,-3,-3,-9,-6
59.875,-31,-10,-6,2,-3,-3,-4,-3
59.88,2,-4,-3,-6,-2,-1,-2,0
59.885,12,8,11,6,1,1,2,1
59.89,7,0,-1,1,0,0,4,3
59.895,3,-1,0,1,-2,-1,-2,-3
59.9,-14,-12,4,-2,-1,-2,0,-5
59.905,-7,12,24,5,0,-1,-3,2
59.91,11,-4,-14,-4,2,1,2,3
59.915,10,7,32,-6,-2,-2,-1,1
59.92,-10,2,14,18,-2,-3,-3,-3
59.925,-6,-16,-50,-20,-2,0,-3,-4
59.93,-3,4,17,8,1,0,0,-1
59.935,17,-1,2,-1,-3,-2,1,7
59.94,-22,11,14,7,2,0,1,-1
59.945,-4,1,28,-1,-3,-6,-6,-10
59.95,-5,-16,-44,-11,-6,-5,-4,3
59.955,7,3,-3,6,5,3,8,1
59.96,-17,-14,4,-30,-10,-11,-19,-14
59.965,-3,1,-3,-1,-4,0,-3,2
59.97,-14,2,6,0,0,-3,-1,-2
59.975,14,15,12,6,4,1,2,1
59.98,18,-4,-14,9,5,1,2,8
59.985,-8,0,-3,-6,-4,-4,-10,-3
59.99,1,-7,4,-3,0,1,2,-6
59.995,-6,-1,14,6,-1,-2,-4,-1
60,5,-5,-45,-9,-4,0,3,-4
60.005,7,-22,1,-4,0,2,0,4
60.01,3,19,12,-12,-3,-1,8,3
60.015,-10,-23,24,7,-2,-2,-4,-8
60.02,-1,2,5,-28,-4,-2,-2,-1
60.025,14,-14,2,23,1,-2,-1,3
60.03,-25,0,6,2,1,-1,-6,-6
60.035,20,11,0,17,3,4,6,15
60.04,25,12,3,-18,-5,-1,1,-7
60.045,-58,-17,-4,-13,-10,-6,-3,-2
60.05,0,-9,11,9,-1,-1,-5,3
60.055,6,21,-15,-26,-11,-6,-2,-1
60.06,46,-27,-7,27,3,4,0,21
60.065,27,57,4,24,15,9,12,2
60.07,-59,-46,11,-12,-3,-2,-4,-17
60.075,20,20,-39,18,-4,-1,-4,21
60.08,40,22,25,-63,-6,-2,7,2
60.085,88,2,-15,40,-4,-9,0,50
60.09,-75,33,0,37,21,16,30,63
60.095,-46,-64,13,10,-6,-10,-24,-61
60.1,-3,12,-20,2,0,1,4,21
60.105,39,23,3,9,2,-1,-3,-45
60.11,127,67,3,-13,11,7,15,36
60.115,-94,-75,24,31,3,-6,-9,-32
60.12,16,4,16,-10,-18,-12,-23,-39
60.125,-105,37,5,-22,-19,-6,0,-12
60.13,-2,-64,-8,-18,-11,-7,-13,-5
60.135,0,17,-26,-21,11,4,11,-7
