timestamp,ch1,ch2,ch3,ch4,ch5,ch6,ch7,ch8
27.125,-4,-3,-3,2,7,2,3,-10
27.13,0,2,26,9,4,-4,-2,-1
27.135,1,8,3,2,0,0,-2,3
27.14,-3,8,28,6,0,-1,1,-2
27.145,3,-7,-31,-4,-5,-1,3,4
27.15,-4,-8,-11,-12,-7,-5,-5,-3
27.155,-1,2,-29,-3,1,2,3,-1
27.16,8,14,20,20,6,6,3,4
27.165,-6,-12,-50,-14,-7,-3,-5,1
27.17,-2,2,34,3,2,1,-2,-3
27.175,-5,-14,-63,-23,-7,-6,-6,-3
27.18,5,8,16,12,4,3,-1,3
27.185,-3,-9,-38,-8,-6,-3,-3,-3
27.19,-5,-4,4,-4,-2,-3,2,-3
27.195,2,-6,-11,2,3,4,-2,2
27.2,-2,8,20,11,0,0,-1,-3
27.205,-2,-2,-39,-8,-2,2,5,-3
27.21,2,-3,-29,-16,-8,-5,-6,-2
27.215,0,5,22,2,-3,-2,-2,-3
27.22,1,2,-4,9,6,2,2,-1
27.225,-1,1,31,5,1,-2,0,1
27.23,2,3,-7,3,5,5,4,0
27.235,-5,-8,-7,-6,-4,-9,-13,-4
27.24,-3,2,6,-7,-6,-7,3,-2
27.245,0,4,27,3,-2,1,6,0
27.25,-2,-8,-29,-6,-2,3,0,-2
27.255,0,3,-3,2,1,2,5,0
27.26,-1,-1,-2,-8,-3,0,-5,-3
27.265,-2,-2,18,-3,-3,-5,-4,-1
27.27,4,10,42,13,4,1,1,1
27.275,-7,-16,-16,-15,-6,-3,-2,-4
27.28,1,1,-21,8,3,-1,-4,-3
27.285,-4,-6,7,-8,-5,-5,-3,-2
27.29,1,5,9,7,1,1,2,1
27.295,-4,-4,-37,-9,-3,-3,-1,1
27.3,-2,3,34,1,0,0,0,-2
27.305,5,8,34,10,4,5,4,3
27.31,-7,-9,-30,-24,-8,-9,-8,-5
27.315,-1,-3,-3,9,4,2,-2,-1
27.32,2,0,-13,9,5,4,10,3
27.325,-5,-2,7,-13,-9,-5,-4,-3
27.33,0,-1,13,6,-1,0,-8,2
27.335,4,8,31,12,1,-1,-3,1
27.34,-3,-3,-30,-13,-2,5,-2,-2
27.345,-3,-4,8,9,-1,-7,6,-3
27.35,-3,-6,-42,-12,-4,-8,-3,-1
27.355,-2,2,30,1,-2,1,-3,-1
27.36,-3,-6,-3,-7,-7,-3,-4,0
27.365,-2,-4,-6,6,6,4,-5,-4
27.37,0,2,6,3,4,2,2,1
27.375,0,1,3,-3,-3,-2,1,-2
27.38,-2,-4,-37,-15,-6,-6,-3,-4
27.385,1,4,34,6,3,1,0,0
27.39,0,-3,-19,-2,-2,-2,-3,-3
27.395,3,1,0,-5,5,3,1,1
27.4,-6,-11,-15,-5,-4,-3,-7,-4
27.405,1,5,0,-3,-5,-2,1,0
27.41,3,3,17,8,1,-1,-2,0
27.415,0,2,-5,5,0,0,1,-1
27.42,-3,-6,26,-5,-4,-4,-5,-3
27.425,-3,-5,-33,-12,-2,-1,-1,-2
27.43,0,3,10,2,-3,-1,0,-1
27.435,1,6,-2,3,0,3,7,1
27.44,-2,-5,-7,-10,1,-1,-9,-2
27.445,1,5,8,10,1,1,0,2
27.45,-2,-6,3,-3,-6,-7,-1,-2
27.455,-3,-2,-20,-16,-6,-6,-4,-3
27.46,-2,1,22,6,-1,3,3,-1
27.465,3,8,-3,8,6,5,2,3
27.47,4,7,37,20,10,1,0,2
27.475,-7,-14,-37,-36,-9,-6,-3,-5
27.48,-3,-1,21,6,-3,-7,-2,-2
27.485,-1,-7,-25,-11,-8,-1,-5,-1
27.49,0,6,24,6,-2,3,9,1
27.495,4,9,7,18,8,-1,-2,-1
27.5,-6,-16,-47,-17,-6,-2,0,-6
27.505,0,3,13,-2,0,-4,-6,-2
27.51,-3,-5,-3,-4,-3,-3,-6,-3
27.515,-1,-3,-11,-1,-5,0,6,0
27.52,-1,-6,-24,-3,-1,-2,1,0
27.525,0,-4,3,7,2,-2,-3,-1
27.53,0,1,-2,0,0,0,-2,1
27.535,-4,-6,-24,-20,-7,-3,4,-2
27.54,0,7,36,12,2,-4,-8,-2
27.545,1,-1,-13,0,-1,1,-1,0
27.55,-2,1,15,-7,0,0,1,-2
27.555,0,-1,18,12,1,0,1,0
27.56,1,4,-6,1,1,1,4,0
27.565,-2,0,13,-3,-3,-1,-5,-3
27.57,-2,-3,-17,1,-4,-2,1,-1
27.575,-2,-6,-8,3,1,-3,-6,-2
27.58,1,-1,-1,4,-1,-2,-1,-1
27.585,-4,-4,-18,-18,-5,-1,1,-2
27.59,1,6,40,5,2,4,1,1
27.595,2,-2,-28,7,0,-1,-4,1
27.6,-2,-5,19,2,-1,-1,-2,-1
27.605,-3,-3,-15,-6,-1,-4,-1,-1
27.61,-2,-2,19,-3,-2,-3,2,-1
27.615,-7,-7,-24,-7,-4,-4,-5,-1
27.62,-1,2,12,-3,-4,-3,3,0
27.625,4,8,21,17,11,9,3,1
27.63,-8,-22,-49,-31,-11,-5,-3,-4
27.635,-1,6,65,17,4,-1,4,-1
27.64,1,-1,-40,-2,0,-1,-13,-3
27.645,-3,-3,5,0,0,-2,7,1
27.65,0,5,-5,0,-2,8,-2,-2
27.655,0,5,27,-1,-4,-4,-6,-5
27.66,-2,-8,-47,-8,0,-3,-4,0
27.665,-4,-6,8,-3,-3,-5,6,1
27.67,5,6,9,17,0,0,-1,2
27.675,-8,-19,-85,-38,-8,-5,-3,-5
27.68,2,4,61,4,-3,0,-1,-2
27.685,0,0,4,6,3,3,-5,-1
27.69,-2,-6,-18,-6,-3,-8,1,-1
27.695,5,11,42,27,5,5,1,2
27.7,-6,-11,-39,-17,-3,-4,-1,-4
27.705,-2,-6,-6,-5,-2,0,0,1
27.71,-1,-2,2,-2,-1,2,-1,-1
27.715,4,8,31,8,0,-1,-6,0
27.72,2,4,5,6,0,1,8,0
27.725,-2,-4,5,-5,-7,-3,-2,-4
27.73,-6,-9,-4,-3,1,-1,-5,-4
27.735,-1,-1,-7,-5,4,-2,-2,1
27.74,2,3,-3,1,-1,-4,3,2
27.745,-1,0,-15,0,2,2,1,-1
27.75,1,3,8,-5,-4,1,1,-2
27.755,-1,1,6,4,-2,1,0,-1
27.76,-2,0,16,0,-1,-2,-2,0
27.765,1,2,-1,0,-3,-2,-4,-1
27.77,-1,0,-7,1,1,2,-3,-1
27.775,-1,-2,-12,-2,-1,1,2,0
27.78,1,0,19,3,0,1,2,1
27.785,5,20,7,6,2,1,1,1
27.79,-4,-1,-5,-10,-6,-4,-5,-6
27.795,5,3,32,13,1,4,2,2
27.8,-5,-6,-37,-27,-5,-5,-4,-5
27.805,-3,-7,-7,2,1,1,-3,-1
27.81,-1,-1,9,-5,-1,-5,-4,-2
27.815,2,1,-24,-2,-4,0,0,0
27.82,-5,-3,15,-5,-7,0,1,-3
27.825,2,1,9,5,6,2,-4,1
27.83,2,6,16,13,9,0,-2,0
27.835,-9,-23,-81,-31,-10,-6,-6,-5
27.84,1,4,20,10,0,5,7,2
27.845,-2,-3,-9,-8,-3,-6,-3,-2
27.85,-1,1,14,3,-1,0,1,1
27.855,1,7,31,10,3,1,2,1
27.86,-2,-3,-28,-1,2,0,4,-1
27.865,-5,-8,0,-11,-6,1,-7,-5
27.87,-1,-1,-14,1,-4,-11,-6,-2
27.875,-1,2,18,3,0,2,4,-2
27.88,1,5,9,7,3,0,-1,-1
27.885,0,-5,-13,2,-4,-1,2,-1
27.89,-2,-7,-1,-6,-1,3,2,2
27.895,-2,-5,-22,2,2,0,-5,-3
27.9,4,10,40,6,1,0,1,4
27.905,1,-5,-18,-8,-4,-6,3,-2
27.91,-2,-5,-22,-7,-6,-5,-25,-6
27.915,4,0,16,3,1,7,10,2
27.92,-22,-11,-2,2,-1,1,2,-34
27.925,21,6,-3,0,-1,-13,-17,2
27.93,0,6,4,4,6,12,2,-1
27.935,0,8,9,-5,-4,-6,15,13
27.94,-4,-8,-12,-6,-2,12,10,-42
27.945,-13,-4,9,3,-5,-30,-13,14
27.95,-26,-15,-26,-14,-11,-8,-30,-5
27.955,28,15,24,2,1,3,18,-5
27.96,29,18,-10,7,8,24,38,96
27.965,-49,-41,-15,-24,-17,14,-36,-87
27.97,3,22,34,19,7,-30,-40,-15
27.975,23,2,-26,-3,-2,-22,-26,25
27.98,20,-1,-2,1,-3,-13,40,47
27.985,67,14,3,23,16,47,-40,94
27.99,-68,-23,-3,-20,-14,1,91,-64
27.995,-65,26,42,16,8,5,-71,-109
28,40,27,48,-6,-4,-18,13,56
28.005,50,17,10,8,9,28,11,38
28.01,34,15,6,6,-4,-25,-72,-97
28.015,28,-36,29,-8,-10,-30,32,46
28.02,-12,0,8,6,6,12,6,27
28.025,-46,-16,-32,-9,-13,-22,-1,-90
28.03,26,53,19,14,26,69,83,127
28.035,72,-4,-79,-28,-18,-7,74,63
28.04,35,33,-14,12,16,17,-110,-88
28.045,3,-41,-17,-7,-5,-31,112,64
28.05,-41,-32,-57,-4,1,-9,-94,76
28.055,-2,12,40,6,10,48,18,-63
28.06,46,-6,-62,-10,-8,17,24,72
28.065,-75,-6,58,-22,-18,-34,73,-127
28.07,72,5,2,16,10,25,24,59
28.075,-3,-38,-65,-16,1,-14,-68,84
28.08,-45,14,40,8,5,20,54,-85
28.085,-37,1,-9,-5,-13,-10,3,-8
28.09,-17,6,-10,9,7,10,23,-54
28.095,43,35,42,-1,-5,41,-94,-13
28.1,6,-18,-5,5,-1,-85,59,-81
28.105,-15,-10,-43,-12,-10,-23,-71,59
28.11,57,28,6,-7,3,68,96,-18
28.115,-67,-10,-25,3,-2,-3,-48,-11
28.12,-58,-5,32,4,19,41,24,21
28.125,41,47,78,12,-4,-47,25,54
28.13,9,-20,-35,-17,-19,-52,2,4
28.135,1,34,9,30,25,34,47,-121
28.14,-29,-54,-46,-24,-21,2,-63,-62
28.145,36,-4,73,8,7,-17,-76,106
28.15,-83,-44,5,-32,-24,-10,-39,-54
28.155,-5,4,56,19,-2,-36,77,-32
28.16,-16,-10,10,3,1,3,-43,47
28.165,-4,10,-19,-20,0,6,-13,-25
28.17,-41,0,13,-2,-4,-3,12,-40
28.175,-29,-11,-3,-5,-1,-30,9,106
28.18,61,20,21,25,2,2,-76,-72
28.185,17,25,68,27,24,51,38,-40
28.19,25,16,-14,14,9,-13,31,12
28.195,59,18,7,9,9,17,41,39
28.2,-50,-18,-7,-25,-14,12,-40,51
28.205,-56,-15,-15,-10,-6,-8,44,-37
28.21,13,-9,-3,-4,-4,-6,-7,-18
28.215,-29,-39,13,-25,-11,15,-57,-59
28.22,25,-16,24,-24,-23,-73,33,-33
28.225,-10,35,17,15,20,83,43,-81
28.23,3,-22,4,-13,-10,-53,-53,0
28.235,-31,-24,-41,-11,-10,5,31,8
28.24,25,7,-10,2,1,-18,-19,76
28.245,23,-9,-18,-1,-2,-15,-4,78
28.25,2,-26,-22,-10,-8,-1,-13,61
28.255,0,6,4,4,-1,-14,-30,-100
28.26,-14,6,-26,-4,2,30,22,15
28.265,28,-3,-31,-4,-11,-22,-48,-51
28.27,18,-1,-25,0,-3,-22,19,-23
28.275,-30,-3,33,-5,-10,-18,-27,52
28.28,-40,-26,-3,1,-3,-5,-14,-70
28.285,-15,-39,-28,-16,-7,3,-25,-72
28.29,-8,4,35,-4,-13,-14,-21,-40
28.295,36,-19,-8,5,7,2,17,49
28.3,-11,8,26,-2,-7,-3,-45,-95
28.305,38,13,-7,8,10,-1,-18,44
28.31,-23,-15,13,2,0,3,37,-10
28.315,-18,-4,-7,6,5,51,-27,39
28.32,-3,-7,-4,3,1,-69,51,40
28.325,-12,18,16,3,3,21,-6,-20
28.33,-22,8,17,1,-2,13,-13,-4
28.335,-39,-60,-62,-22,-22,-33,-20,-34
28.34,-7,7,-25,-8,9,21,58,26
28.345,-8,-9,-39,2,-4,14,-59,-49
28.35,22,-5,40,-12,-5,-32,7,47
28.355,-10,10,-7,-5,-10,-29,-9,5
28.36,21,7,-40,1,-3,21,-28,59
28.365,-11,-23,19,-7,-3,-20,103,10
28.37,19,-5,-26,3,6,14,-54,-9
28.375,-7,-7,-37,-17,-13,-3,0,-25
28.38,22,54,8,6,9,1,-31,4
28.385,8,16,-24,-5,-7,-1,-3,71
28.39,2,1,-24,4,9,36,27,-38
28.395,32,0,1,-2,0,-38,51,-60
28.4,-9,-10,13,5,-3,5,-6,25
28.405,4,11,4,4,-1,-1,-4,25
28.41,-1,12,10,-1,7,13,-9,-16
28.415,2,4,14,5,3,-5,-26,-13
28.42,-10,-25,-4,2,-4,13,19,-17
28.425,24,-4,15,11,2,-12,-4,2
28.43,5,-24,-70,-8,-8,-11,-12,15
28.435,-43,-9,20,-4,2,6,-17,-4
28.44,9,8,25,5,9,-17,3,-47
28.445,-20,-5,4,-7,-7,9,-14,6
28.45,3,8,0,0,0,-3,10,94
28.455,19,-15,2,-4,-1,7,24,12
28.46,-5,1,41,3,-5,-6,26,-29
28.465,6,17,-24,4,-1,-7,-33,-16
28.47,-16,-14,13,9,0,-4,-19,-9
28.475,4,17,36,6,4,36,44,35
28.48,3,-3,-10,8,10,-5,-33,-3
28.485,3,-1,29,-8,-2,-7,21,8
28.49,-10,-13,-10,-4,0,4,8,5
28.495,31,2,-11,4,0,-16,29,66
28.5,-13,-6,-7,-5,-4,26,-6,-12
28.505,-4,-6,2,10,0,-17,-6,1
28.51,-10,25,-4,0,2,12,-18,-34
28.515,24,17,4,-3,4,-10,-12,-14
28.52,-8,-1,6,-6,-5,19,-18,-7
28.525,11,10,8,9,12,-12,1,69
28.53,15,5,-1,4,5,9,24,-34
28.535,-21,-22,7,-4,-5,-11,-39,-27
28.54,2,-8,-17,-12,-8,-2,-4,28
28.545,-15,-5,6,-8,-5,8,34,-15
28.55,7,24,16,7,8,15,-9,-3
28.555,-22,-17,25,0,-3,-24,-1,-20
28.56,-8,10,-2,-2,-3,-14,-6,-35
28.565,0,-10,-16,-3,-4,20,-18,-32
28.57,-15,-8,14,6,-1,-17,4,-6
28.575,-12,0,-12,-1,-2,2,-15,5
28.58,3,-10,16,-3,1,-4,14,20
28.585,-13,-11,14,-9,-19,-27,-4,-23
28.59,13,1,-15,-6,-5,2,-15,-9
28.595,-21,6,4,3,-4,6,42,-11
28.6,4,0,-1,2,1,-4,6,7
28.605,-4,-1,-5,-4,-2,4,0,-5
28.61,0,-11,-18,-2,5,9,-10,7
28.615,-11,0,8,-11,-14,-43,-44,-18
28.62,5,4,-18,-4,3,13,5,29
28.625,17,15,16,13,11,3,5,6
28.63,-6,19,5,-3,-3,5,-6,35
28.635,9,15,-28,-1,9,14,26,6
28.64,-10,-17,7,1,-7,-8,-6,-2
28.645,-13,1,-22,-1,0,14,-18,-85
28.65,-1,-6,21,1,-6,-23,4,-4
28.655,8,-1,2,-5,-2,13,-10,39
28.66,-17,-4,-2,-1,-4,0,-4,14
28.665,-12,-1,-16,-7,-5,-17,-5,4
28.67,11,7,-4,-3,0,0,0,-16
28.675,-9,1,7,0,0,8,-6,-26
28.68,-12,-15,-19,-16,-19,-11,4,32
28.685,5,-6,2,-4,0,11,-8,3
28.69,-9,-13,-6,-12,-18,-17,15,-15
28.695,5,15,4,-19,-5,-4,-2,-6
28.7,4,-8,23,46,25,-2,-9,-17
28.705,-2,-6,-20,70,77,15,7,17
28.71,7,8,4,12,11,1,-19,9
28.715,6,0,1,-9,-26,1,18,-4
28.72,-12,-9,-16,-43,-30,-30,11,-5
28.725,15,-29,-13,-33,-33,-9,-12,12
28.73,-10,25,-13,-11,-14,4,2,-13
28.735,-4,-12,-16,-8,-1,-3,-18,-8
28.74,1,3,13,-4,-2,22,13,-24
28.745,-5,-3,-14,-4,-4,-10,7,6
28.75,-6,-26,-7,-6,0,-8,3,-2
28.755,9,13,11,13,7,11,8,7
28.76,12,6,-1,13,13,6,-5,-1
28.765,-11,-15,-25,-12,-6,4,-3,-1
28.77,0,-6,-2,-3,-2,-5,3,-1
28.775,-12,8,-11,7,3,-1,1,-8
28.78,5,9,4,-10,-1,0,-5,-1
28.785,-3,5,0,-21,-17,-6,-12,-2
28.79,-10,-21,2,6,-2,-8,-1,-6
28.795,-3,-5,18,7,13,-2,-1,-1
28.8,3,4,4,31,8,-1,-4,-1
28.805,1,12,-22,11,19,11,8,4
28.81,1,-1,22,-9,-3,-4,1,0
28.815,0,-11,-19,-13,-7,3,6,-1
28.82,7,-19,-16,-14,-9,-5,-6,1
28.825,-4,3,10,-17,-16,-3,-13,-2
28.83,2,-2,5,-4,0,7,11,2
28.835,2,3,20,-14,-9,-7,-4,0
28.84,-5,-14,-44,10,-6,-2,-4,-4
28.845,-7,0,15,53,22,1,-5,-4
28.85,1,1,6,2,13,2,2,1
28.855,5,3,14,-94,-41,-10,-1,0
28.86,1,6,1,7,-17,-4,1,1
28.865,-1,4,39,58,31,9,3,1
28.87,2,7,22,17,20,1,0,0
28.875,-5,2,-17,43,11,4,-1,-3
28.88,2,5,7,-49,3,-3,-1,1
28.885,5,7,1,26,-19,-2,1,2
28.89,-12,-21,-41,57,3,-7,-9,-10
28.895,7,11,26,-65,-12,0,1,6
28.9,-6,-6,-18,43,-27,-12,-6,-6
28.905,-4,-1,-12,-10,13,7,1,-1
28.91,-3,-14,-49,0,21,3,0,-2
28.915,-3,-2,24,-21,1,0,1,0
28.92,4,17,62,-89,-43,-9,-2,1
28.925,-4,-5,-37,40,-5,-6,-5,-4
28.93,5,10,53,-56,2,0,0,2
28.935,-5,-6,-15,62,-2,-5,-5,-4
28.94,1,4,18,-13,5,-3,-2,2
28.945,-2,12,36,91,6,-2,-4,-7
28.95,0,-5,-74,82,47,30,10,5
28.955,2,2,21,0,80,9,2,1
28.96,8,11,22,-89,-55,0,6,4
28.965,8,29,-17,-33,-45,-7,-2,1
28.97,-36,-92,-82,-53,-44,-27,-12,-16
28.975,-2,3,-18,44,-4,-6,-6,0
28.98,4,23,11,50,40,-1,-4,-4
28.985,6,3,28,-91,-20,6,11,5
28.99,18,28,85,-4,-24,-1,1,6
28.995,-20,-71,-70,29,0,0,-3,-6
29,-21,-57,-107,-71,2,-15,-15,-11
29.005,-6,-4,33,-14,-13,-11,-4,-2
29.01,17,42,41,10,1,0,2,2
29.015,13,19,44,72,27,24,11,4
29.02,5,-1,-27,58,27,13,6,2
29.025,-13,-38,-94,-82,-10,-9,-5,-6
29.03,13,67,-1,27,0,-2,-1,5
29.035,-25,-40,25,-68,-37,-17,-11,-13
29.04,0,7,78,60,27,10,5,0
29.045,-3,-6,-31,-26,-7,-7,-5,-4
29.05,16,15,95,16,7,3,5,7
29.055,-2,21,61,5,-10,-2,-4,-4
29.06,-3,-2,-3,2,7,4,0,-4
29.065,-12,-14,-55,-67,-13,-12,-6,0
29.07,-7,-27,73,-9,-16,-5,-5,-8
29.075,6,3,-92,7,0,-1,2,4
29.08,4,-12,19,18,11,4,1,2
29.085,4,26,71,18,3,0,0,2
29.09,-15,-18,-64,-51,-20,-10,-7,-9
29.095,6,10,28,13,1,2,-2,3
29.1,-19,3,-30,3,-2,-4,-4,-12
29.105,17,8,-1,24,15,10,7,5
29.11,-5,-1,-20,-20,-4,-4,-2,-2
29.115,3,20,31,20,0,-3,-1,0
29.12,5,21,39,26,10,8,3,6
29.125,-7,-28,-17,-14,-10,-7,-5,-5
29.13,8,5,-13,8,9,5,5,5
29.135,-6,-3,-34,-19,-11,-7,-6,-6
29.14,17,31,107,54,20,14,9,12
29.145,-16,-23,-26,-46,-14,-10,-8,-9
29.15,1,0,7,-1,-5,-2,-2,-1
29.155,15,42,59,22,2,3,5,7
29.16,-26,-50,-101,-30,-10,-10,-7,-11
29.165,5,11,49,4,0,0,1,4
29.17,-2,2,-49,-22,-14,-13,-12,-3
29.175,2,1,26,13,14,11,4,1
29.18,2,4,-9,9,8,11,8,1
29.185,6,14,2,15,15,11,5,3
29.19,-5,-11,-2,-2,-6,-3,-1,-1
29.195,-17,-24,-17,-42,-26,-22,-15,-14
29.2,4,-5,3,-7,-6,-8,-5,-1
29.205,1,-8,-26,1,7,2,3,4
29.21,6,11,48,19,1,5,2,2
29.215,0,-1,-95,15,11,3,1,0
29.22,-14,-17,-14,-62,-11,-9,-10,-9
29.225,0,6,32,14,-2,-1,-3,-2
29.23,-2,-1,-4,3,1,1,2,0
29.235,3,-2,-11,-1,-6,0,9,5
29.24,5,18,15,14,1,-1,-4,0
29.245,-5,-21,-12,3,0,-1,-3,-4
29.25,0,3,-10,8,2,1,0,3
29.255,-8,1,9,-2,9,4,0,-16
29.26,1,9,-16,-13,-7,-5,-1,2
29.265,-1,0,30,0,-4,-5,-4,-3
29.27,-3,-2,-8,-4,-7,-2,1,-1
29.275,8,2,47,13,2,1,-1,5
29.28,-14,-28,-61,-47,-12,-14,-9,-11
29.285,0,0,23,12,13,10,4,-1
29.29,0,0,-8,-9,0,3,1,-1
29.295,6,12,31,5,4,8,6,6
29.3,1,5,3,9,-14,-8,-4,-1
29.305,4,8,20,13,3,3,4,1
29.31,-8,-13,-49,-30,-6,-9,-5,-7
29.315,1,6,51,1,-4,-6,-4,6
29.32,-6,-4,-10,-2,-4,-2,-5,-9
29.325,0,-2,9,2,0,1,3,0
29.33,2,4,10,12,7,2,-2,-1
29.335,0,5,-6,1,1,-1,0,-1
29.34,6,5,20,11,2,1,2,5
29.345,-5,-1,-8,-10,-11,-7,-6,-6
29.35,0,9,18,5,-1,1,2,3
29.355,-5,-19,-70,-18,-6,-4,-5,-3
29.36,3,10,43,16,5,3,4,4
29.365,5,2,5,9,8,3,1,1
29.37,-5,-7,-26,-11,-3,-7,-5,-5
29.375,-3,-4,-10,-6,-11,-6,-1,-2
29.38,0,-1,9,10,11,5,2,1
29.385,1,9,26,-4,-3,-3,-2,2
29.39,-7,-22,-21,-6,-1,1,-2,-4
29.395,-1,5,16,-6,-3,-1,-3,-2
29.4,4,7,17,19,1,0,3,1
29.405,-5,-13,-44,-27,-7,-5,-3,-4
29.41,-9,-12,46,11,0,-3,0,-5
29.415,0,3,9,-2,-2,-1,-1,-2
29.42,3,6,2,11,1,0,-1,3
29.425,-2,2,-24,-14,-7,-4,-1,-3
29.43,4,-8,-10,-4,-4,-1,-3,2
29.435,-4,-3,4,1,5,-4,-3,-4
29.44,-6,-7,20,-5,-6,1,3,1
29.445,4,10,-16,16,3,5,1,1
29.45,-9,-7,26,-12,3,-3,-3,-3
29.455,3,5,-5,10,5,4,1,4
29.46,2,2,-6,3,-1,-3,0,2
29.465,2,5,24,2,-9,-2,-2,1
29.47,-2,-2,-51,-14,-11,-7,-4,-2
29.475,-4,-12,0,2,7,1,-3,-3
29.48,1,3,8,3,2,2,0,-2
29.485,-9,-9,-13,-14,-10,-4,-3,-7
29.49,4,10,26,9,-2,0,0,0
29.495,0,3,22,-3,0,-1,0,-1
29.5,-6,-19,-73,-7,2,-2,-1,-3
29.505,-4,-8,-15,6,5,-1,-4,-1
29.51,3,10,7,5,2,2,3,4
29.515,-5,-8,15,-15,-12,-4,-2,-1
29.52,6,1,-10,3,0,-2,0,2
29.525,-10,-14,-30,-27,-10,-7,-4,-5
29.53,0,4,-5,6,4,4,0,-1
29.535,-4,-2,48,6,1,1,-3,-2
29.54,4,12,-2,11,2,2,2,3
29.545,4,11,79,22,3,-4,-3,1
29.55,-7,-21,-51,-34,-9,-5,-2,-6
29.555,-2,-5,-24,-15,-4,6,6,-2
29.56,-3,0,11,-1,-3,-9,-21,-10
29.565,5,5,1,6,1,7,1,6
29.57,-1,9,43,7,-2,-11,-4,-1
29.575,5,-2,-34,4,6,-6,23,11
29.58,-12,1,27,-5,-2,4,10,-14
29.585,-2,-5,-49,0,1,0,4,-1
29.59,3,6,21,8,4,8,-16,0
29.595,-7,-14,-71,-18,-8,-8,-11,-5
29.6,5,6,28,-1,0,1,6,8
29.605,14,21,48,38,17,9,6,7
29.61,-21,-36,-40,-62,-20,-9,-6,-13
29.615,1,3,20,10,1,4,-7,-2
29.62,4,1,8,9,4,2,1,3
29.625,-1,-1,18,5,0,-3,-2,-4
29.63,7,10,6,17,-4,-2,1,3
29.635,-5,-2,-9,-3,-2,-3,-2,-6
29.64,2,2,19,6,5,2,3,3
29.645,-3,-9,-30,0,9,0,-2,-3
29.65,-2,-3,-1,-10,-5,0,7,-2
29.655,-2,-3,-9,-5,-8,-5,-2,-2
29.66,-2,-1,-11,-4,-10,-5,-11,-6
29.665,-2,0,0,-3,-4,-2,-8,-5
29.67,1,3,11,4,3,-9,5,3
29.675,2,9,18,4,2,12,3,-2
29.68,-5,-7,-14,-2,0,-9,-11,0
29.685,-3,-8,10,-19,-5,-5,0,0
29.69,2,7,16,17,2,5,-7,-1
29.695,-3,-9,-26,6,-3,3,2,-4
29.7,2,2,23,-4,2,-4,13,4
29.705,-4,0,-29,-5,-3,-3,-5,-9
29.71,0,-2,22,8,3,2,-2,2
29.715,5,8,16,8,-2,-2,-12,-4
29.72,-8,-14,-6,-5,-4,4,-1,-12
29.725,-1,-1,-18,1,6,5,-2,3
29.73,-1,3,-7,2,1,-11,7,3
29.735,1,-5,33,-8,-7,-8,-8,2
29.74,3,2,-11,4,-1,2,4,3
29.745,0,5,67,2,-2,-2,-4,0
29.75,-13,-23,-28,-35,-10,-1,-7,-12
29.755,1,0,18,-5,-1,-3,3,0
29.76,-2,-1,0,2,-5,2,2,5
29.765,1,5,20,10,2,1,11,3
29.77,6,15,12,23,11,6,3,1
29.775,-3,-5,-14,-9,-3,-6,-6,1
29.78,-6,-10,-6,-13,-5,1,-14,-8
29.785,1,1,-19,-7,-9,-7,9,7
29.79,-1,5,9,6,-5,-5,2,-6
29.795,-8,-4,-29,4,0,-11,-5,2
29.8,8,11,27,-1,4,7,1,4
29.805,-10,-19,-50,-18,-8,4,-6,-5
29.81,2,0,15,7,6,4,4,1
29.815,2,8,24,21,7,2,-13,-2
29.82,6,0,-28,-13,-2,-6,8,7
29.825,-7,6,73,14,3,-9,-4,-8
29.83,-10,-22,-60,-37,-17,2,-3,-7
29.835,1,4,-2,4,7,8,3,2
29.84,1,3,-1,6,2,-2,-2,3
29.845,-3,-16,-26,-20,-10,-10,-3,-6
29.85,8,12,24,17,3,3,-5,10
29.855,-1,-2,-27,1,-1,6,23,-5
29.86,-4,-7,-7,-24,-11,-12,-20,-1
29.865,4,6,-5,7,0,-4,0,1
29.87,-8,0,19,9,5,-2,-3,9
29.875,0,-7,-12,-11,-3,-4,-7,-8
29.88,6,1,13,18,6,7,11,1
29.885,0,-1,-19,-12,-2,4,-7,-2
29.89,0,5,17,4,3,-3,-4,4
29.895,-1,-4,-2,-7,-2,-8,0,-1
29.9,-5,3,-13,-6,-9,-4,6,-4
29.905,11,2,12,4,-1,5,6,8
29.91,-8,1,-42,-2,0,6,7,2
29.915,-10,-8,-2,-6,-5,-9,-7,-4
29.92,3,-11,0,0,-1,0,5,-12
29.925,-8,3,-8,0,3,3,-17,-3
29.93,17,3,26,9,1,-6,-5,22
29.935,2,12,-4,8,5,16,-6,-6
29.94,-13,-9,-4,-8,-4,-9,29,28
29.945,-4,1,6,8,7,22,7,-17
29.95,-10,-15,11,-7,-13,-10,-21,40
29.955,2,11,14,-5,-2,-24,-69,-46
29.96,23,-3,-29,-1,7,28,17,41
29.965,-21,-14,-7,-7,-8,-70,50,-9
29.97,23,0,-2,-1,4,48,-10,6
29.975,-39,-17,-3,-13,-15,-6,34,-26
29.98,3,48,41,17,4,-71,-60,-8
29.985,8,8,-1,10,13,9,-103,-18
29.99,-37,-53,-48,-41,-33,-23,127,61
29.995,48,34,47,26,13,-55,-46,16
30,-19,-49,-33,-15,-3,70,-34,-41
30.005,11,33,44,20,13,9,42,19
30.01,-21,26,5,13,15,66,-4,-7
30.015,10,12,6,9,9,-11,59,102
30.02,2,5,-18,-9,-13,-55,-57,32
30.025,-8,-44,-51,-17,-15,-2,-47,-48
30.03,9,-18,-4,-6,-2,39,53,-3
30.035,46,-15,-1,6,9,39,55,78
30.04,20,17,8,15,17,34,-10,49
30.045,-15,-25,-23,-35,-34,-57,20,-57
30.05,-59,2,1,-2,-6,-77,-20,56
30.055,-13,3,15,-5,-12,1,5,-119
30.06,-10,-24,43,-12,-14,-60,-49,-70
30.065,-41,-35,-5,-8,1,55,100,-15
30.07,50,20,12,7,9,22,-73,7
30.075,-70,-9,32,-21,-21,-87,1,-51
30.08,-34,-5,-36,25,16,106,17,-76
30.085,74,42,32,9,5,-90,-40,127
30.09,6,48,36,35,35,54,-60,-114
30.095,31,-53,-5,-33,-13,77,55,54
30.1,51,57,43,15,9,-25,94,92
30.105,-47,-1,-24,9,5,80,-93,-71
30.11,35,-2,19,0,-1,-96,13,-36
30.115,-26,11,-12,13,22,51,-60,-22
30.12,17,10,-4,11,13,12,82,42
30.125,5,0,37,-4,1,-47,14,-6
30.13,-38,13,12,6,0,13,-75,-92
30.135,11,-50,-26,-40,-26,53,-71,62
30.14,-55,-9,62,-15,-18,-122,33,-68
30.145,-13,-17,-44,3,0,28,-13,55
30.15,-40,-44,-52,0,-1,18,-59,-56
30.155,62,34,30,11,8,-65,69,80
30.16,11,-24,-57,-12,-10,18,-105,68
30.165,27,-12,19,-17,-17,19,82,-7
30.17,17,1,24,5,2,-19,11,0
30.175,-16,5,-26,9,1,5,-60,-54
30.18,-5,-18,2,-21,-16,-5,-31,-89
30.185,3,3,10,6,1,-24,-19,-17
30.19,36,13,5,2,0,-7,-12,51
30.195,15,4,-18,-3,-3,20,15,7
30.2,-29,2,-23,-5,1,-2,5,-71
30.205,-13,-12,-2,-14,-15,-11,-28,30
30.21,4,-8,-50,-12,-14,31,43,98
30.215,-14,-4,17,4,9,-32,-16,-83
30.22,18,2,13,6,8,7,-14,34
30.225,6,8,-25,-4,-2,4,0,22
30.23,-3,6,-3,0,-2,-4,-8,22
30.235,-3,9,-4,-2,-6,4,-9,-15
30.24,-29,-33,-38,-5,-4,9,-3,-58
30.245,22,30,39,12,15,10,36,3
30.25,-4,-9,12,-11,-20,-45,-53,-43
30.255,-9,-3,-13,6,6,11,19,19
30.26,-9,11,3,-6,-5,5,4,-9
30.265,18,-8,-30,-4,-3,25,-28,6
30.27,12,-5,14,-4,-2,-40,47,3
30.275,-22,6,8,4,-4,-2,-18,2
30.28,-8,-9,-10,0,-5,20,1,66
30.285,-11,0,-11,1,6,-16,3,18
30.29,-5,18,20,0,1,-3,-16,-10
30.295,-10,-3,-21,1,1,10,69,7
30.3,14,-2,-4,-13,-10,-9,18,12
30.305,-15,-3,-4,1,3,12,-21,-14
30.31,-10,-54,-29,-10,-10,-14,-51,30
30.315,-7,6,35,4,0,-14,-39,-45
30.32,8,16,20,9,7,1,5,-1
30.325,-3,-9,-16,-21,-20,-15,-17,-1
30.33,4,21,20,12,15,25,48,14
30.335,1,-7,-16,-7,-1,5,0,57
30.34,-16,-7,15,0,-1,0,-26,-45
30.345,-4,9,4,1,-3,0,7,-7
30.35,10,5,5,-1,1,-4,10,-14
30.355,-11,3,-20,2,6,0,-3,-11
30.36,33,16,21,8,7,8,31,81
30.365,3,4,-27,5,6,24,-8,-22
30.37,-5,-4,-1,-7,-7,-14,35,-31
30.375,-7,0,9,1,-4,-9,-30,2
30.38,35,-29,-47,-8,0,29,5,7
30.385,10,11,36,6,3,-39,6,18
30.39,5,10,-3,2,-2,5,12,-40
30.395,7,2,-7,-8,-8,9,0,-26
30.4,-7,-4,9,5,3,-16,-19,-9
30.405,3,-5,-13,2,8,34,16,41
30.41,-19,-8,21,-9,-4,-28,-7,-56
30.415,9,8,26,-2,0,2,4,28
30.42,-14,3,-2,-2,-4,10,39,-3
30.425,-18,-18,-36,-11,-4,-1,-17,-6
30.43,9,7,-5,-2,3,10,-12,12
30.435,-8,-1,-15,-3,3,7,-5,-18
30.44,-25,-25,-41,-22,-15,-19,-12,-39
30.445,-10,14,28,14,9,2,3,-1
30.45,2,3,7,4,1,15,3,4
30.455,-25,-8,12,-9,-12,-31,-20,-37
30.46,-7,3,-3,6,2,-1,-7,-3
30.465,8,-11,0,-9,-5,2,-3,20
30.47,-27,4,0,-1,-4,-5,18,-64
30.475,1,-9,-20,1,5,15,-25,22
30.48,13,10,8,6,8,-5,11,44
30.485,-9,3,-3,5,-2,2,33,-24
30.49,-16,-6,12,-9,-7,7,-21,-12
30.495,16,12,-13,6,7,3,-5,24
30.5,-53,-8,8,-6,-9,-21,22,-29
30.505,-11,3,18,1,3,-4,-9,-12
30.51,23,16,3,13,9,19,-8,34
30.515,-3,-1,13,6,3,-10,37,-53
30.52,6,8,15,1,2,14,-27,12
30.525,20,2,-4,-3,-7,-14,-47,7
30.53,-6,-7,13,-4,-2,5,43,40
30.535,4,-8,4,-7,-5,-10,-4,38
30.54,12,10,16,11,3,-2,-33,16
30.545,-47,-58,-15,-34,-20,0,-11,-80
30.55,16,3,14,1,3,-6,4,42
30.555,8,2,-23,-5,-2,3,3,-3
30.56,3,-32,6,-13,-11,-4,25,4
30.565,-9,13,15,5,0,-20,-1,18
30.57,-7,-3,-3,-4,-1,5,-6,-10
30.575,-11,-18,-3,-8,-8,-8,3,-9
30.58,5,3,16,0,2,9,-41,-14
30.585,5,6,2,5,1,13,4,-2
30.59,-16,-17,-12,-8,-8,-24,2,46
30.595,4,12,10,11,10,9,-1,-61
30.6,9,11,-18,3,2,10,-1,11
30.605,0,1,-6,6,-3,-11,-13,-12
30.61,-10,12,18,5,7,10,30,15
30.615,-8,-14,-2,-7,-5,5,-14,8
30.62,-15,-7,-9,-6,-9,-21,-28,-62
30.625,14,17,12,6,6,2,58,25
30.63,19,-15,-31,3,1,0,-31,-23
30.635,-3,-5,-19,-4,-7,0,15,12
30.64,-11,11,21,2,2,-5,-30,-9
30.645,11,15,-14,9,4,15,37,12
30.65,0,-13,-1,-12,-7,-5,-23,21
30.655,12,9,11,2,2,2,2,-1
30.66,9,11,-18,2,3,8,24,31
30.665,-7,-9,-4,-4,-3,-16,-16,25
30.67,10,-7,-5,-3,-3,-5,6,-25
30.675,-3,7,-6,-1,2,6,-9,25
30.68,3,-2,-8,2,4,-3,10,9
30.685,9,1,13,3,-2,4,-3,-5
30.69,6,4,2,2,6,6,-4,-15
30.695,-7,-5,-1,-8,-10,-14,-22,5
30.7,3,1,6,-1,-3,3,27,-12
30.705,2,-2,-6,0,0,-9,-5,20
30.71,-7,6,9,1,2,6,-24,-20
30.715,10,-3,7,-1,-5,-2,18,8
30.72,2,2,-6,-1,-7,-11,-1,55
30.725,-5,-22,-19,-6,-4,20,0,-12
30.73,-6,6,14,2,1,-26,-11,10
30.735,3,-1,4,1,2,-6,7,0
30.74,0,-13,-32,-15,-2,0,7,2
30.745,1,9,10,2,3,6,-19,-9
30.75,3,-3,-14,-3,-3,5,7,-5
30.755,-6,0,-1,-2,0,-9,6,-12
30.76,15,4,20,8,-2,4,24,51
30.765,-1,-10,-4,-7,-6,-8,-13,-17
30.77,1,2,-9,-3,-3,11,1,-2
30.775,-1,6,23,9,4,-7,7,5
30.78,-4,2,-16,0,-1,1,-30,-34
30.785,3,8,3,1,3,7,28,5
30.79,1,-1,22,-1,-3,10,3,-3
30.795,-1,-14,-20,-7,-3,-10,1,4
30.8,2,0,6,-2,-3,-5,-11,-20
30.805,-3,6,6,2,3,2,-2,-3
30.81,-7,-6,-11,0,-3,-7,3,-10
30.815,-6,-11,2,-7,-5,5,-16,-3
30.82,-1,2,9,0,0,1,-4,-3
30.825,9,4,2,0,-3,-8,-2,-16
30.83,8,6,-5,0,0,4,12,7
30.835,8,13,8,10,10,10,12,22
30.84,-3,-1,3,-1,0,-1,-4,-6
30.845,0,0,-9,3,0,1,-15,-5
30.85,4,-5,4,-1,-1,-6,7,-1
30.855,-5,1,-6,-5,-6,-4,-24,-8
30.86,-11,-14,-2,-9,-5,-2,3,-10
30.865,-4,2,2,-4,1,-5,-6,8
30.87,-6,4,3,-8,-4,-4,1,-3
30.875,-1,-5,-4,0,-1,3,0,2
30.88,-2,-1,8,14,3,-5,-23,-14
30.885,-1,0,7,0,3,9,20,0
30.89,-4,-10,7,-7,-6,-9,-7,-1
30.895,0,-3,-4,-7,-6,0,1,-7
30.9,6,6,-1,8,4,-1,-1,-1
30.905,-4,-22,11,2,-1,-1,-8,3
30.91,-7,28,-1,3,5,-4,-13,-5
30.915,-1,-3,14,-5,-8,-8,2,-6
30.92,-3,3,4,-9,-6,-1,12,4
30.925,-4,0,5,-6,-5,-5,-11,2
30.93,-5,-12,-6,4,1,-1,1,-4
30.935,-1,6,6,10,6,2,-14,-1
30.94,-3,0,-2,-1,1,6,16,1
30.945,0,0,4,-7,-3,-8,-7,-3
30.95,-4,0,1,-10,-9,-2,-3,-5
30.955,-3,4,-7,-2,-5,-1,-3,-2
30.96,-5,-8,-7,-6,-3,-4,-5,-6
30.965,-6,1,-4,3,2,7,10,25
30.97,9,-18,7,6,2,-12,-6,6
30.975,-8,11,-14,-19,-4,-1,-2,2
30.98,0,1,0,-10,-3,0,1,1
30.985,-13,-4,-13,12,-5,-4,-11,-4
30.99,-4,-12,-4,6,2,5,7,-6
30.995,2,-10,5,1,1,-3,1,-2
31,1,-15,0,-8,-5,-1,-3,7
31.005,-1,10,1,-20,-8,-6,-4,-7
31.01,-5,-8,-2,5,-3,1,4,-5
31.015,-1,-11,-9,10,15,6,-5,-6
31.02,-5,0,-1,-2,-2,-1,10,-1
31.025,5,-18,3,1,1,-3,-4,-8
31.03,0,32,1,-13,-5,0,3,1
31.035,-1,-6,-1,-2,-9,-2,1,3
31.04,-2,4,-8,7,-2,-4,-8,-4
31.045,1,-2,-6,9,9,1,1,-2
31.05,-2,-22,-3,4,5,3,1,-3
31.055,5,18,-4,-2,0,0,-2,1
31.06,-2,3,-1,-7,-4,-4,-2,-2
31.065,6,26,-8,-14,-8,0,4,-3
31.07,-6,-10,-5,-12,-8,-3,-6,-8
31.075,-4,-9,4,25,4,0,0,-2
31.08,8,-4,0,5,2,1,2,3
31.085,-4,-49,9,4,3,0,-3,-2
31.09,15,55,-16,-10,-5,-2,1,5
31.095,0,-14,-15,-14,-9,-4,0,-5
31.1,15,12,1,-12,-5,-1,0,5
31.105,6,-13,10,0,-5,-3,-5,0
31.11,0,-14,2,-71,-12,3,1,-1
31.115,0,-9,0,74,-2,-5,-2,-4
31.12,-5,30,15,74,39,11,0,0
31.125,-4,-15,-3,0,10,0,-2,-4
31.13,-4,8,-15,-90,-37,-10,0,-2
31.135,0,8,18,30,-11,0,-1,1
31.14,-3,-20,-23,-2,18,7,-1,0
31.145,12,29,37,-56,-9,-2,3,4
31.15,-6,-12,42,113,-26,-16,-8,-5
31.155,-6,-26,-91,-98,12,4,1,0
31.16,-1,8,7,116,58,26,9,1
31.165,-6,13,-2,24,55,15,3,0
31.17,11,21,59,-96,-21,-3,1,3
31.175,0,18,-24,105,-44,-11,-2,-1
31.18,-9,-30,-19,-102,-29,-21,-10,-6
31.185,0,25,21,-32,-17,2,-4,2
31.19,4,16,66,92,34,10,2,1
31.195,-11,-30,-57,-124,-27,-9,0,-6
31.2,-1,3,78,51,6,3,1,-1
31.205,-17,-37,-42,-1,-28,-14,-12,-9
31.21,9,27,41,38,25,6,3,8
31.215,3,11,67,-30,8,-4,-6,-5
31.22,28,34,-11,8,-8,11,13,14
31.225,-27,-28,53,28,0,-7,-8,-13
31.23,-9,-13,-52,-6,-5,1,-1,-5
31.235,-17,-39,-26,-62,-4,-3,-7,-8
31.24,3,19,68,41,9,-3,-1,2
31.245,18,45,80,0,-13,-1,2,8
31.25,-14,8,-21,42,13,2,4,-4
31.255,10,30,58,55,41,19,12,5
31.26,-7,0,-72,-61,-26,-10,-5,-7
31.265,5,3,17,77,17,12,7,6
31.27,-55,-101,-115,-128,-56,-38,-29,-34
31.275,9,20,89,33,2,1,3,3
31.28,-4,-2,32,25,-11,-4,-2,0
31.285,13,17,-71,-2,7,4,3,3
31.29,15,15,22,30,19,8,9,9
31.295,27,30,-39,58,29,17,5,15
31.3,-45,-61,-84,-119,-53,-34,-30,-22
31.305,-7,-9,7,0,-12,-6,-3,-2
31.31,-3,-35,-24,19,14,8,1,-2
31.315,1,15,29,22,5,1,6,6
31.32,18,19,33,7,12,9,8,7
31.325,2,4,-10,-5,-6,-2,-1,-1
31.33,-24,-56,-81,-58,-21,-15,-11,-13
31.335,-2,-9,32,16,7,-3,1,-3
31.34,-9,-25,30,-15,-9,-5,-5,-8
31.345,-8,-15,-12,-5,-4,-4,-3,-5
31.35,15,26,-16,32,14,7,4,7
31.355,-8,-20,-57,-35,-13,-7,-5,-7
31.36,-2,-7,28,5,-9,-6,-5,-6
31.365,0,17,-39,-3,-5,0,3,1
31.37,19,4,35,22,24,13,6,9
31.375,-14,-5,44,-28,-18,-8,-8,-6
31.38,6,3,-59,8,1,1,4,3
31.385,-10,2,18,-2,0,-5,-4,-5
31.39,3,11,-24,8,6,2,0,-2
31.395,-5,0,7,-6,-5,-5,-3,-5
31.4,3,18,40,6,1,3,2,2
31.405,-3,-36,-79,-22,-9,-6,-4,-5
31.41,-15,36,19,3,2,0,0,-1
31.415,4,12,1,14,10,5,3,3
31.42,3,5,50,1,-4,-2,0,0
31.425,-8,-6,-4,-17,-10,-8,-5,-4
31.43,16,22,60,22,5,3,3,6
31.435,-10,-34,-69,-34,-11,-9,-5,-6
31.44,-6,-1,7,4,-1,-2,-2,-4
31.445,-2,5,-1,11,6,6,1,1
31.45,5,2,30,27,8,4,4,3
31.455,1,-6,23,-17,-3,-1,0,-3
31.46,-7,-25,-27,-18,-8,-5,-2,-6
31.465,2,3,-4,7,1,-1,1,1
31.47,3,-7,12,6,-1,3,-1,-1
31.475,-1,12,11,7,4,1,1,-1
31.48,-7,-12,-73,-15,-6,-4,-3,-3
31.485,6,10,12,-11,-3,1,2,3
31.49,-11,-10,34,3,-6,-9,-8,-8
31.495,-4,-10,-44,4,1,-1,-4,-4
31.5,-6,5,19,11,9,2,1,2
31.505,7,12,46,16,8,4,3,3
31.51,-16,12,-39,-24,-9,-4,-4,-3
31.515,2,15,79,-2,-9,-2,-2,0
31.52,-6,-24,-33,-1,0,-1,-1,-5
31.525,1,0,-3,6,2,-4,-2,-2
31.53,10,0,2,-1,-3,-1,-1,3
31.535,-7,1,14,-6,-5,-3,-3,-2
31.54,0,11,33,0,1,1,-1,3
31.545,0,-28,2,8,1,-2,-1,-3
31.55,-4,-21,-69,-4,1,-1,-3,-4
31.555,-2,3,7,-1,1,0,-2,-1
31.56,6,-6,-20,-10,-4,-2,-1,1
31.565,-8,-2,-18,-16,-9,-4,-5,-5
31.57,6,7,58,20,4,3,0,1
31.575,-2,-13,-46,-6,-3,-4,-3,-1
31.58,0,7,-1,-5,0,0,0,1
31.585,3,12,3,4,2,2,0,-1
31.59,-7,-19,-14,-17,-10,-3,-3,-4
31.595,5,12,26,7,1,-2,-1,0
31.6,4,1,17,12,2,0,0,0
31.605,-6,8,-48,-7,4,0,2,-1
31.61,4,-7,-10,8,3,1,-1,-1
31.615,9,-12,29,0,1,0,0,-1
31.62,-11,6,-46,-22,-9,-6,-4,-3
31.625,-5,6,37,-1,-1,-1,-2,-1
31.63,2,0,15,8,2,0,2,0
31.635,-6,-9,-42,-5,-6,-5,-3,-5
31.64,8,13,40,13,5,4,3,4
31.645,1,2,19,3,0,1,0,1
31.65,6,14,35,5,3,2,2,2
31.655,-7,-1,-40,-7,-4,-4,-3,-3
31.66,-5,-6,15,-17,-8,-4,-4,-3
31.665,1,-1,22,-5,-6,-4,-3,-1
31.67,3,-6,-27,-1,3,5,2,4
31.675,-5,24,27,19,8,4,0,2
31.68,2,-33,-5,6,1,1,-1,-4
31.685,-4,-15,-15,-28,-10,-4,-6,-5
31.69,5,6,16,0,-3,-2,1,2
31.695,0,3,27,21,4,4,1,1
31.7,-2,-12,-38,-24,0,-3,-3,-4
31.705,-1,2,18,0,-4,-3,-3,-3
31.71,3,21,24,10,5,4,4,3
31.715,-13,-29,-51,-23,-15,-9,-7,-7
31.72,-2,8,4,3,-3,-3,-2,-3
31.725,-1,-5,-3,6,0,0,-2,-2
31.73,-4,-2,6,-4,-3,-2,-1,-4
31.735,3,3,1,2,3,2,1,1
31.74,4,17,23,6,3,5,2,3
31.745,-3,-11,-26,-4,-3,-4,-3,0
31.75,-4,-11,-11,-1,-6,-4,-4,-2
31.755,7,7,66,10,1,3,3,3
31.76,-9,-9,-61,-17,-6,-4,-3,-3
31.765,3,3,26,5,6,2,2,1
31.77,6,5,15,9,4,-1,1,2
31.775,-4,-9,-11,-11,-5,-4,-3,-5
31.78,14,0,25,18,8,6,2,2
31.785,-3,-1,-19,-11,-6,-4,-2,-5
31.79,-4,-4,0,-10,-4,-3,-3,-3
31.795,-1,5,4,0,-1,0,0,0
31.8,2,2,-5,13,3,-2,2,1
31.805,-2,-1,-5,-2,1,0,0,0
31.81,3,6,29,11,4,4,1,3
31.815,-7,-22,-71,-29,-7,-5,-5,-4
31.82,1,12,14,4,-3,-1,-3,0
31.825,2,1,10,6,1,-1,0,3
31.83,-10,-5,4,-9,-8,-4,-5,-6
31.835,11,5,8,11,4,4,1,3
31.84,-7,-2,13,1,-3,-3,-1,-2
31.845,-5,-5,-66,-12,-3,-1,-1,-1
31.85,1,-9,-11,-6,-2,-2,-1,-3
31.855,10,17,44,23,7,6,6,5
31.86,-17,-27,-60,-50,-19,-13,-10,-12
31.865,2,-4,29,16,7,4,0,2
31.87,1,19,12,12,5,2,2,2
31.875,-4,-9,-23,-18,-3,-1,-2,-2
31.88,-14,42,35,10,-3,-4,-1,-1
31.885,-6,-14,-11,-7,-6,-2,-3,-3
31.89,-4,-8,-13,-7,1,1,-2,0
31.895,5,17,68,21,7,2,1,3
31.9,0,-17,-80,-14,-6,-4,-3,-3
31.905,-5,1,28,-11,-9,-4,-5,-4
31.91,0,4,5,8,1,-1,0,1
31.915,-3,2,7,-12,-2,-4,-4,-4
31.92,8,0,29,22,8,4,4,4
31.925,2,3,-50,1,-1,-1,3,0
31.93,-4,-15,-18,-13,-6,-5,-5,-4
31.935,0,2,-6,5,-1,-2,-2,1
31.94,1,-4,14,-2,-1,0,-2,-1
31.945,0,8,32,7,2,-3,1,1
31.95,-1,-9,-18,-2,-3,-1,-2,-3
31.955,-1,1,-5,0,1,2,2,2
31.96,-5,-13,5,-9,-3,-1,0,-4
31.965,-3,2,12,-2,-2,-1,-3,-1
31.97,-1,-9,-21,-12,-3,-3,-2,-1
31.975,-1,-1,-1,2,2,1,-2,0
31.98,3,-2,14,-1,-1,-1,-1,-2
31.985,6,9,9,13,3,3,0,2
31.99,-8,-6,11,-5,-2,-4,-3,-5
31.995,-4,0,-12,-10,-4,-2,-1,-3
32,2,-4,7,1,2,4,2,0
32.005,6,-35,-6,-5,-4,-3,-3,-2
32.01,9,14,3,7,1,0,-1,2
32.015,-7,-4,-4,-6,-5,-5,2,-2
32.02,3,7,21,11,2,4,3,2
32.025,-3,-10,10,-3,-3,-4,-2,-3
32.03,1,-6,-7,-3,-1,-4,-5,-1
32.035,1,-2,3,-3,-3,1,4,-4
32.04,0,-5,-16,-6,-4,-4,-13,-3
32.045,-1,11,20,8,2,0,2,0
32.05,-1,7,6,11,8,4,1,1
32.055,-11,-3,-27,-24,-10,-7,-3,-8
32.06,1,5,25,5,0,1,-1,0
32.065,-4,5,-16,-11,-6,-2,-6,-4
32.07,-2,7,24,9,0,6,2,-2
32.075,-1,-15,-8,2,3,-3,-1,2
32.08,2,2,-21,-5,11,1,5,-4
32.085,0,8,19,-7,-21,-10,-10,-6
32.09,-2,-2,8,10,3,-5,-4,10
32.095,-5,-10,-25,17,15,4,5,-3
32.1,-2,-1,1,-8,12,9,3,-20
32.105,1,6,-8,-6,4,-5,-4,7
32.11,-5,-7,-13,-20,-27,-3,-7,-3
32.115,17,-5,-10,5,-2,7,8,29
32.12,-38,1,14,0,-4,-30,15,-15
32.125,3,6,-3,3,6,-6,-11,-31
32.13,2,-8,-13,-1,4,18,12,7
32.135,-5,12,11,-9,-14,-10,-15,4
32.14,42,1,-3,7,0,8,11,51
32.145,-43,-21,-15,-12,-18,-18,-47,2
32.15,2,-4,-9,-13,-9,-23,14,-75
32.155,-6,-1,-22,8,13,46,3,64
32.16,-5,1,26,-1,-9,-24,20,6
32.165,21,17,7,13,12,26,50,25
32.17,-19,-5,5,-2,-5,-24,-60,4
32.175,30,4,4,1,-2,1,-13,-13
32.18,-57,-14,-19,-3,-3,27,-5,-39
32.185,32,38,26,18,11,-24,-4,9
32.19,-23,-8,13,2,0,-10,-1,-121
32.195,12,21,41,1,7,-6,55,-4
32.2,29,19,7,11,-1,1,-57,62
32.205,-31,-13,-12,-26,-15,5,-63,-50
32.21,-43,30,26,18,21,9,56,-25
32.215,45,24,-14,4,3,11,-13,19
32.22,-44,-49,-22,-25,-28,-8,-67,-126
32.225,10,-12,10,27,5,-54,7,84
32.23,17,24,-45,-8,6,29,-5,4
32.235,27,13,67,-8,-16,-47,24,91
32.24,-2,16,-15,43,28,51,32,23
32.245,-10,-18,-61,-4,2,18,5,-3
32.25,36,18,22,14,7,-6,25,12
32.255,11,-23,-15,4,9,7,-56,51
32.26,-3,20,10,-2,-6,-5,70,-86
32.265,49,5,10,3,7,39,13,127
32.27,8,-9,22,-3,0,-6,21,-6
32.275,-79,15,-16,-7,-5,-25,21,-95
32.28,38,13,25,-11,-7,-20,-69,127
32.285,-17,-26,61,11,9,39,33,-81
32.29,-30,14,-19,-6,-2,32,38,26
32.295,45,-6,-7,13,20,-14,-88,46
32.3,-52,22,-25,0,6,47,94,-78
32.305,-19,6,40,2,6,-14,9,16
32.31,40,17,-3,10,5,19,-41,105
32.315,-34,-19,-20,-23,-26,-34,1,-74
32.32,8,12,-4,13,28,19,-7,35
32.325,49,30,-6,7,10,19,43,27
32.33,-36,-12,8,-7,-8,-12,0,-74
32.335,2,12,-5,-4,-6,4,4,-43
32.34,20,12,31,-17,-12,-26,-33,33
32.345,-37,-29,2,-21,-16,-13,-10,6
32.35,9,22,-2,-1,-1,-13,-21,85
32.355,-39,-14,-13,2,1,4,-16,-49
32.36,2,-27,-41,5,1,31,41,2
32.365,-31,15,50,4,7,-26,0,0
32.37,20,-36,-19,-9,-5,-25,-21,34
32.375,-26,-41,-34,-26,-14,24,-6,-24
32.38,41,9,45,0,-4,-30,-35,-24
32.385,-7,6,7,-12,-11,-11,-3,-86
32.39,1,-32,-43,-19,-10,10,11,-12
32.395,28,-1,39,7,3,-5,18,5
32.4,17,-8,-27,-4,-7,-14,-16,16
32.405,-8,-28,-51,-20,-12,15,9,54
32.41,-18,-9,22,-2,-5,-20,-22,-4
32.415,-11,-18,-24,-2,-7,-9,-4,-50
32.42,-27,-3,-16,-1,-9,-10,30,-28
32.425,5,18,4,9,19,11,-29,-69
32.43,14,-20,20,3,-2,-4,3,20
32.435,-28,-52,-34,-39,-26,-16,-11,15
32.44,-1,-18,-10,4,1,-6,-4,26
32.445,-8,-10,-4,-10,-18,-17,-22,-47
32.45,2,-7,1,5,-2,-6,-30,-32
32.455,18,28,12,16,22,25,36,9
32.46,33,0,-9,1,-1,-12,-31,-7
32.465,8,-45,-78,-15,-9,6,2,-49
32.47,7,3,24,-3,2,-2,3,64
32.475,0,1,8,4,-1,1,15,-40
32.48,11,-13,11,-7,-4,-4,-28,-2
32.485,19,25,-6,15,15,10,36,53
32.49,9,9,-23,-3,-2,12,-10,5
32.495,16,21,0,17,13,8,22,88
32.5,3,18,33,8,9,16,24,4
32.505,-4,15,-4,0,-3,-10,-25,-16
32.51,9,-3,1,6,3,10,25,14
32.515,6,-9,47,-10,-11,-6,-41,13
32.52,10,14,10,0,2,-1,51,54
32.525,-20,-38,14,-3,-3,-3,-15,-4
32.53,-7,13,-17,-10,-6,1,-8,-18
32.535,3,9,-28,3,-4,-5,2,-22
32.54,-30,-14,-16,-11,-9,-14,-30,-65
32.545,14,2,18,-5,-2,-13,60,50
32.55,21,11,-10,11,4,-3,-6,49
32.555,-42,-16,-25,5,3,1,-10,-63
32.56,6,15,18,5,6,13,14,12
32.565,-4,9,-39,-3,-4,-4,-21,10
32.57,-21,-16,-11,-4,-5,-2,-10,-43
32.575,4,4,-1,4,3,3,28,44
32.58,3,3,21,1,-3,-14,-8,4
32.585,11,27,28,16,4,8,-15,-9
32.59,-29,-25,-20,-7,-4,14,1,-11
32.595,2,4,10,0,0,-14,0,1
32.6,-11,-5,-13,-2,-4,-9,-22,-21
32.605,15,-18,-15,-12,-14,-19,3,32
32.61,-19,-19,79,-7,-10,-12,0,5
32.615,4,4,-4,6,5,6,-12,21
32.62,-6,8,2,-13,-5,1,17,2
32.625,-35,-2,25,-7,-8,8,-24,-7
32.63,13,13,4,-1,1,-9,14,-5
32.635,-2,-4,4,-4,0,15,-27,-6
32.64,-40,-3,-28,-8,-12,-41,55,-6
32.645,-25,-1,7,-5,-1,-4,-19,-27
32.65,9,3,-23,2,6,4,9,-11
32.655,-31,-35,24,-24,-17,-2,2,-32
32.66,14,-6,0,-5,-3,4,-51,23
32.665,10,2,11,3,1,9,25,2
32.67,-19,5,-11,-3,-3,-22,5,-26
32.675,-1,-15,-28,-9,-12,-9,-7,40
32.68,5,-21,-1,-4,-2,7,15,-26
32.685,20,5,-1,-4,1,1,0,-7
32.69,11,-39,-17,0,-2,7,8,33
32.695,29,21,2,11,7,-6,-13,-48
32.7,2,-15,0,-1,2,4,-14,7
32.705,11,35,35,7,11,9,30,11
32.71,-3,-10,-41,-7,-6,8,-15,-20
32.715,9,13,-19,12,10,-1,14,3
32.72,-5,-62,-37,-19,-5,5,-15,21
32.725,-4,-6,-9,0,1,-2,3,-66
32.73,3,-8,-17,-10,-5,-6,-15,-5
32.735,0,12,34,-3,-3,8,23,-5
32.74,20,16,7,9,5,-12,-12,25
32.745,-1,0,-22,-8,-6,16,-10,38
32.75,-32,2,8,-2,-1,-30,-4,-24
32.755,-32,15,20,6,3,6,22,31
32.76,-7,-1,-10,-4,-7,-4,-2,-2
32.765,-4,-13,8,1,1,1,-10,-10
32.77,-15,34,30,-4,0,12,-9,26
32.775,12,-1,3,-5,-4,-17,-19,-21
32.78,5,14,23,10,0,-3,-4,-5
32.785,-8,31,32,1,1,-7,-16,-46
32.79,8,2,-12,5,2,21,13,16
32.795,7,8,19,9,4,-7,16,0
32.8,46,-16,-7,-18,-15,3,-3,14
32.805,-10,-5,5,1,-2,-24,-16,56
32.81,18,16,-13,4,1,6,19,-2
32.815,-1,-6,-27,-3,1,9,5,-26
32.82,-1,9,11,0,-6,-16,-17,-13
32.825,0,-15,-20,-2,-4,2,6,0
32.83,5,17,22,11,3,-7,-15,-13
32.835,5,6,9,0,0,0,6,21
32.84,-31,-13,-13,4,2,12,1,9
32.845,-4,9,-6,0,-5,-23,-1,3
32.85,-11,3,-12,3,4,-1,20,-1
32.855,0,-5,-4,-2,-5,-1,-19,-76
32.86,5,10,-10,7,4,8,-3,-3
32.865,-5,-15,-51,-3,0,17,3,-12
32.87,-4,-12,0,-3,-1,-12,5,4
32.875,0,-2,-5,-5,-4,-3,-6,22
32.88,3,-6,-12,-2,4,7,-7,0
32.885,-27,-10,6,-2,-8,-22,-11,-12
32.89,14,-1,-5,-4,-6,-3,-13,25
32.895,-2,2,-9,1,-1,4,15,6
32.9,-19,-1,22,-14,-6,-16,-22,-25
32.905,-3,-6,-10,-5,-5,1,-10,-5
32.91,-3,-9,8,-5,-3,8,13,-4
32.915,-3,11,20,7,3,-9,6,-6
32.92,9,-6,5,10,2,-3,-5,19
32.925,9,9,7,3,4,9,8,-5
32.93,-17,-34,-2,-25,-14,-8,-24,-31
32.935,-17,-31,-41,-10,-13,-9,-2,-6
32.94,-1,5,14,4,3,-6,6,-4
32.945,-5,-14,16,1,-1,0,3,-22
32.95,20,18,15,18,11,5,-1,-5
32.955,4,22,-11,-1,-2,0,-22,2
32.96,-21,-6,-3,-3,-2,-2,6,-2
32.965,9,9,8,-2,0,6,3,-6
32.97,-1,-4,-15,-3,-2,-2,-5,-10
32.975,-3,-10,-12,-8,-5,-3,-14,10
32.98,1,2,8,0,2,5,9,-8
32.985,-4,-26,-13,-9,-3,-7,-7,2
32.99,-4,0,-8,-1,0,3,5,-5
32.995,-3,-17,-20,-2,-1,-1,-5,5
33,-4,9,12,6,5,1,2,2
33.005,-5,26,-2,1,1,2,0,2
33.01,3,3,11,-2,-3,-6,-7,2
33.015,1,-5,28,-3,-2,5,6,1
33.02,-12,0,1,3,3,-4,-3,-3
33.025,1,2,0,2,1,3,3,4
33.03,7,16,7,-2,1,1,-3,-5
33.035,3,19,-11,0,0,1,2,6
33.04,-3,7,-2,1,-3,-1,0,0
33.045,2,-7,16,-35,-7,-1,-6,-3
33.05,-3,-4,3,23,-1,-3,0,0
33.055,0,-2,-2,19,7,0,0,4
33.06,1,5,4,-1,1,1,1,1
33.065,6,8,4,5,1,0,2,1
33.07,-5,-8,-1,-17,-5,-5,-3,-5
33.075,-3,-8,6,-8,0,-2,-1,3
33.08,0,2,2,5,-1,0,0,-4
33.085,-4,-9,0,-3,-3,-1,-2,-3
33.09,4,-2,3,-4,-1,-2,-1,-1
33.095,-3,0,4,2,-2,0,-3,2
33.1,-4,0,-9,-3,-1,-2,0,-2
33.105,-1,-8,3,2,-3,-3,-3,-2
33.11,-2,-1,3,-2,-2,-3,-3,-5
33.115,-5,-1,5,-4,-2,-2,1,-1
33.12,0,-16,-6,-6,-5,-3,-1,-2
33.125,-2,13,7,5,-2,1,0,1
33.13,6,3,8,1,1,-1,-1,0
33.135,-2,2,14,-4,-1,-1,1,2
33.14,1,6,6,3,0,1,-1,0
33.145,6,-8,-6,13,4,1,1,-1
33.15,-6,1,13,-19,-5,0,-2,-3
33.155,0,-14,-1,27,3,0,-1,0
33.16,-3,11,-4,-24,0,-2,-3,-3
33.165,1,-4,-11,-23,-5,-3,1,0
33.17,-3,-5,2,46,-1,-4,-2,-2
33.175,-8,-17,9,-13,1,2,-1,-4
33.18,0,-16,11,12,-1,-2,-1,-1
33.185,4,-18,-1,-7,-2,-4,-4,-2
33.19,-1,20,0,-20,-3,-3,-1,-1
33.195,0,-5,-4,-15,-7,-1,0,-1
33.2,-1,2,4,-19,-10,-3,-5,-3
33.205,5,-5,-6,6,3,1,0,1
33.21,-4,-16,-23,-35,-4,-2,-2,-2
33.215,1,2,-32,51,1,-4,-3,-2
33.22,-4,6,26,47,16,4,0,-1
33.225,-2,2,-7,-35,-11,0,-1,1
33.23,-7,-16,-47,13,-5,-4,-6,-5
33.235,-1,6,4,-128,-25,-7,0,0
33.24,-2,4,32,86,2,-3,-3,-2
33.245,-7,-22,-30,35,40,11,1,-1
33.25,4,4,42,-1,7,3,2,1
33.255,3,-15,-37,-22,3,2,-1,-2
33.26,-3,-9,-36,-87,-36,-12,-3,-2
33.265,0,14,72,-46,-26,-9,-3,-1
33.27,-4,-21,-56,32,-13,-12,-5,-5
33.275,5,17,17,27,31,10,3,2
33.28,-5,-6,-38,43,19,7,-1,-4
33.285,-8,-6,35,-2,-3,-3,-3,-4
33.29,7,18,22,-40,-21,-5,-2,2
33.295,11,26,56,50,6,6,3,8
33.3,-8,-23,-65,-55,-2,-4,-5,-6
33.305,-5,-39,-18,3,-19,-10,-7,-7
33.31,6,29,59,65,24,9,4,3
33.315,-10,-7,-11,-37,-1,-1,1,-1
33.32,-1,14,46,8,-2,-2,1,1
33.325,5,3,-8,-17,-4,2,0,3
33.33,6,11,54,26,9,4,2,1
33.335,-8,-42,-111,-17,-11,-6,-6,-6
33.34,-1,-20,35,-31,-7,-4,-3,-4
33.345,-3,27,-13,28,0,-3,0,-2
33.35,2,-4,-24,-10,6,5,4,1
33.355,-4,3,12,15,-9,-6,-5,-5
33.36,1,-9,-32,-4,2,1,1,2
33.365,5,15,51,39,10,5,6,8
33.37,-2,2,-7,-19,-3,-4,-7,-9
33.375,-12,-25,-50,-15,-12,-7,-6,-8
33.38,1,5,-70,-7,-4,0,-2,0
33.385,-12,-7,-28,-28,-10,-6,-6,-6
33.39,0,-2,31,-3,6,3,2,4
33.395,-2,8,43,18,-1,-2,-2,-5
33.4,10,22,32,17,7,11,37,29
33.405,7,5,-13,22,10,-2,-29,-36
33.41,-13,-20,-23,-32,-14,-21,-5,-1
33.415,4,8,33,2,1,3,-7,4
33.42,2,6,43,9,2,0,-7,-2
33.425,-7,64,-30,-3,-1,10,28,13
33.43,-1,-8,24,0,-4,-1,-10,-6
33.435,-3,-9,-29,-6,-4,-7,-5,-5
33.44,3,5,26,-5,1,3,6,5
33.445,-2,-18,3,-2,-6,-5,-3,3
33.45,-7,-11,-30,-11,2,1,-5,-6
33.455,11,34,46,31,11,6,11,15
33.46,-12,-23,-11,-28,-12,-11,-16,-16
33.465,-9,-9,12,-5,-5,-5,-5,-2
33.47,-1,3,-8,3,1,-1,-1,0
33.475,4,-5,20,8,4,3,5,0
33.48,-9,-13,-9,-9,-8,-8,-11,-10
33.485,8,3,24,15,5,2,0,6
33.49,0,-17,-34,-11,-5,-2,6,5
33.495,-2,14,14,11,0,3,0,-3
33.5,-10,43,12,-6,-1,-4,-6,-5
33.505,1,-6,-2,1,1,-2,3,5
33.51,1,-8,-23,-7,-1,0,-2,-2
33.515,-5,-10,0,-7,-5,-6,-6,-6
33.52,3,1,8,14,5,2,-2,0
33.525,-7,-12,-50,-6,-3,-1,1,0
33.53,-2,5,66,11,2,1,2,1
33.535,-1,-10,-27,2,0,-5,-4,-3
33.54,-3,-8,-5,-27,-8,-5,-4,-2
33.545,5,-5,-3,8,0,-1,-1,0
33.55,5,12,39,18,5,4,0,1
33.555,2,-13,-36,-9,-3,-2,0,2
33.56,4,-4,-1,-1,-2,-2,-1,-1
33.565,-1,-6,9,-7,-3,-2,-2,-2
33.57,4,8,26,5,2,2,1,1
33.575,0,-4,20,-4,-2,0,0,-1
33.58,-6,-19,-18,2,-3,-5,-4,-4
33.585,-1,-2,5,-10,-4,-2,-3,-2
33.59,1,1,-19,7,3,4,3,3
33.595,-2,9,8,-6,-1,-1,0,0
33.6,7,3,6,6,3,1,0,1
33.605,-4,13,19,11,2,1,1,0
33.61,1,-3,-30,-13,-1,0,1,0
33.615,-20,23,2,-17,-7,-5,-4,-5
33.62,-5,-11,-38,-8,-3,-2,0,-2
33.625,1,-10,6,2,-2,-1,0,0
33.63,3,0,36,21,6,3,1,0
33.635,-2,-16,-71,-21,-3,-3,-1,-2
33.64,-3,-4,43,2,-1,-2,-3,-3
33.645,3,11,-3,4,0,-2,-1,1
33.65,-3,-17,-30,-16,-3,-3,-1,-2
33.655,-1,16,39,24,5,1,1,1
33.66,4,13,2,6,0,3,1,2
33.665,-10,-23,-27,-20,-9,-8,-6,-8
33.67,-4,-2,-15,-8,-1,-1,-2,-2
33.675,4,5,19,2,-1,-2,-1,2
33.68,7,-9,2,0,2,0,0,0
33.685,0,-1,1,-2,2,0,1,1
33.69,-5,7,12,0,-5,-3,-2,-4
33.695,-4,1,-39,-16,-5,-1,-1,-4
33.7,-3,-11,7,-2,-3,-5,-1,-3
33.705,-2,-3,2,9,4,3,2,2
33.71,-5,-28,-16,-8,-3,-4,-4,-6
33.715,12,-1,50,19,4,3,0,1
33.72,-4,-1,8,-10,-7,-2,-3,-3
33.725,-5,0,-7,-8,-4,-3,-2,-2
33.73,-4,0,-17,0,-1,-1,-1,-1
33.735,6,5,26,11,4,2,1,2
33.74,5,-10,-11,4,1,-1,-3,-1
33.745,3,-21,-5,-3,-1,-1,-2,-1
33.75,2,4,-14,1,-2,-1,-1,0
33.755,-1,-4,33,-1,-2,-3,-1,-3
33.76,0,-10,21,3,-1,-5,-2,-2
33.765,2,2,-33,-10,-3,-2,-1,0
33.77,-6,-16,-37,-7,-6,-3,-3,-2
33.775,-1,-39,-29,-25,-6,-1,-2,-3
33.78,-2,0,16,9,1,1,0,0
33.785,-1,2,24,4,0,-2,0,0
33.79,6,12,-5,2,5,3,1,2
33.795,-4,-17,17,-1,-4,-7,-5,-3
33.8,-2,1,-3,1,-1,1,-1,0
33.805,1,6,2,9,4,2,0,1
33.81,4,1,-14,-5,0,-1,0,0
33.815,-15,-15,-35,-25,-13,-9,-6,-6
33.82,4,19,5,5,1,0,3,2
33.825,0,9,29,6,0,-2,-1,1
33.83,-2,9,26,6,0,-1,-2,-3
33.835,4,12,-5,4,2,1,1,3
33.84,-4,4,17,-3,-3,-2,-2,-2
33.845,0,-9,-8,-4,-5,-3,-2,-2
33.85,-6,-1,22,-4,1,-1,-2,-1
33.855,-7,10,3,6,-1,0,1,-1
33.86,-2,-7,-23,-5,-2,-3,-2,-4
33.865,4,4,23,3,2,4,2,3
33.87,-5,-10,-38,-20,-8,-5,-4,-3
33.875,3,10,19,15,3,3,1,2
33.88,-1,-19,5,0,0,1,0,-1
33.885,-2,26,16,12,4,1,2,0
33.89,-3,-4,-13,-9,-7,-5,-2,-1
33.895,-1,-19,-10,-3,-1,0,0,-1
33.9,6,5,-12,-6,1,0,0,2
33.905,-5,-26,-23,-10,-6,-7,-4,-5
33.91,1,2,33,2,-2,0,0,-1
33.915,-8,-2,-52,3,2,-1,-2,-2
33.92,-11,3,17,1,1,1,1,-2
33.925,-3,1,-5,-5,-1,1,0,-2
33.93,-3,-4,-1,-19,-8,-6,-1,-3
33.935,0,-5,23,4,-2,-1,-2,-1
33.94,-7,36,15,11,3,-1,0,-1
33.945,-1,-8,-37,-9,0,1,2,0
33.95,-7,-13,-9,1,-3,-1,-3,-3
33.955,3,5,3,-9,-2,-1,-2,1
33.96,1,0,-17,2,-5,-4,-2,1
33.965,-2,-3,-12,2,2,-4,-2,-1
33.97,5,7,0,7,1,3,2,2
33.975,4,9,10,12,4,3,2,2
33.98,-3,26,44,9,2,1,0,1
33.985,-9,-21,-55,-39,-15,-7,-5,-6
33.99,-2,-6,-5,2,1,-2,-2,-3
33.995,0,10,9,4,1,-1,-1,-1
34,9,3,60,21,11,7,4,5
34.005,-4,-22,-77,-7,-7,-3,-3,-4
34.01,-3,5,-1,-9,-4,-3,-3,-2
34.015,-2,-14,14,-5,0,1,0,-2
34.02,2,-5,-23,-3,-1,1,2,-2
34.025,-4,-9,46,13,0,-1,-4,-3
34.03,3,3,-19,-12,0,0,1,2
34.035,-2,-5,14,-2,-4,-1,0,-2
34.04,0,-11,-38,-7,-3,-3,-7,-3
34.045,2,13,32,14,4,3,0,2
34.05,-9,19,-9,11,0,-1,4,1
34.055,8,9,-10,-14,-1,0,1,1
34.06,-10,-18,-29,-16,-8,-4,-2,-5
34.065,3,7,14,-2,-3,-2,-7,-1
34.07,4,-2,26,12,2,4,1,-2
34.075,8,-25,2,5,-1,-6,-3,1
34.08,3,8,6,4,2,3,4,3
34.085,-4,-16,-11,-2,-4,-6,-3,-3
34.09,-3,-12,-7,-16,-3,0,-2,-2
34.095,-7,-10,7,0,-4,-2,-3,-5
34.1,1,-6,-3,-6,-3,-4,-2,-1
34.105,5,18,27,14,3,3,3,3
34.11,0,-7,4,5,1,-1,0,0
34.115,-4,6,-14,-3,-2,3,-2,-1
34.12,-4,-15,-8,-6,-4,-3,-1,-7
34.125,-1,4,-5,-2,0,3,2,0
34.13,4,-14,-20,-8,-4,-5,-4,11
34.135,-2,7,10,7,2,-2,-2,-17
34.14,8,-25,-4,4,4,4,0,12
34.145,-14,13,6,8,2,-2,2,-15
34.15,9,-5,12,0,0,1,3,26
34.155,-3,18,14,6,1,-2,-18,11
34.16,-3,-3,-19,-6,-3,4,26,-14
34.165,13,-1,-6,-6,0,-1,-18,1
34.17,-9,23,11,2,-3,-5,-13,-53
34.175,28,8,14,2,3,-5,27,77
34.18,14,8,-6,6,4,4,-34,-13
34.185,-1,-49,-41,-41,-25,-16,32,48
34.19,-2,38,6,9,6,-1,-12,-47
34.195,-20,-1,-41,-5,-4,3,-17,4
34.2,-6,4,6,-1,-2,-4,-6,-55
34.205,27,22,9,20,12,8,11,69
34.21,3,-44,-15,-7,-4,10,30,76
34.215,-27,3,26,0,-2,-11,-15,-93
34.22,20,11,-35,-10,-7,6,36,54
34.225,-14,21,21,-9,-7,1,-25,-37
34.23,23,-7,15,10,4,-18,0,-45
34.235,-18,-13,-15,6,8,13,-44,-28
34.24,80,-14,-50,-14,-8,7,52,69
34.245,20,5,51,1,6,-3,-15,-98
34.25,17,19,-33,-8,-5,7,27,41
34.255,-5,-12,45,-15,-17,-38,-32,88
34.26,-28,6,9,6,6,-16,-69,-51
34.265,10,-77,-73,-40,-25,5,30,72
34.27,-39,6,26,10,11,14,28,-81
34.275,25,24,-17,3,-10,-2,7,17
34.28,-13,-22,42,-6,0,14,7,40
34.285,-33,32,93,6,-1,-42,-61,-63
34.29,-21,-7,-48,1,-2,0,-25,10
34.295,50,0,43,12,19,30,69,43
34.3,-50,20,18,-1,-6,-14,-36,49
34.305,-19,-15,-50,-3,-3,7,44,8
34.31,1,-6,17,6,0,-16,-33,42
34.315,-34,-4,-36,-12,-3,-14,-14,-28
34.32,66,13,-17,2,4,31,25,48
34.325,0,25,59,18,12,-8,-8,-74
34.33,-10,2,-34,18,8,19,19,90
34.335,-9,-18,40,-8,2,18,-21,-97
34.34,-24,16,18,6,2,-31,19,-43
34.345,-20,-11,0,3,0,23,-23,-6
34.35,-25,9,45,-5,-7,-34,1,1
34.355,-52,-76,-100,-10,-12,17,-3,-51
34.36,-52,-5,-15,-3,-4,-31,1,-87
34.365,44,15,-15,16,9,-12,-22,-18
34.37,-10,-7,-38,-23,-18,11,27,17
34.375,24,-32,-24,-3,0,-9,1,32
34.38,13,-21,14,-8,-11,10,-3,-21
34.385,2,18,16,3,-1,2,-23,21
34.39,25,-14,-17,-7,-3,-11,4,-18
34.395,18,38,-5,3,6,16,16,4
34.4,-18,-33,3,-3,-9,-30,-16,-5
34.405,15,36,2,12,18,29,31,6
34.41,23,32,-3,-6,-5,7,-13,-22
34.415,10,-29,34,17,8,-3,21,80
34.42,-27,-20,2,5,-2,-8,-25,-62
34.425,9,-14,1,-1,-1,5,29,34
34.43,-38,-13,-2,-1,-2,-14,-45,-33
34.435,8,23,-22,-2,-6,-11,7,60
34.44,-8,-12,29,-7,-8,-2,25,-35
34.445,-31,-2,-8,3,1,12,-7,-4
34.45,-6,4,42,-4,-4,-21,-16,-32
34.455,-4,4,-12,-16,-14,-11,-10,46
34.46,12,30,-4,0,4,9,-11,-31
34.465,-14,-6,-6,1,-1,9,1,-14
34.47,-36,-59,2,-37,-21,-8,-17,-51
34.475,-8,21,28,4,8,-9,7,-10
34.48,-25,5,-29,7,4,14,2,16
34.485,-41,-28,16,-16,-22,-36,-18,-47
34.49,26,18,0,6,3,13,20,29
34.495,5,21,6,-1,-5,-11,-10,-23
34.5,2,46,3,6,4,10,27,17
34.505,-14,-26,-18,-28,-23,-19,-3,36
34.51,21,-19,13,-9,-7,-7,-34,-9
34.515,-10,12,9,-1,-4,-8,9,-60
34.52,17,32,10,22,15,11,-3,65
34.525,12,-18,4,-10,-2,4,12,59
34.53,-35,-9,-3,1,5,2,-3,0
34.535,-5,-3,21,-1,-5,10,2,-43
34.54,-11,-20,-10,-7,-7,-14,-13,-34
34.545,-14,-31,-19,-22,-11,-13,-14,-13
34.55,-7,9,5,3,3,6,1,-52
34.555,-13,5,22,14,12,15,0,-39
34.56,-2,-24,20,-8,-12,-15,-10,14
34.565,5,13,13,12,6,8,-1,-15
34.57,-4,-6,-7,2,1,3,-10,11
34.575,12,-15,-13,-2,-8,-22,8,2
34.58,23,13,26,16,19,38,24,51
34.585,10,14,2,7,3,-15,3,3
34.59,12,-19,-11,-15,-12,-5,-2,2
34.595,5,6,-4,1,1,4,-14,13
34.6,3,-1,-21,-11,-3,-9,-19,63
34.605,13,-17,22,6,4,11,24,-2
34.61,14,19,-16,4,4,6,22,9
34.615,-16,-2,10,-7,-7,-9,-23,-26
34.62,2,2,9,-7,-6,-11,-1,-53
34.625,6,23,-9,13,8,14,-14,10
34.63,5,-16,-34,9,5,1,-9,11
34.635,24,16,12,-2,3,13,23,-26
34.64,-16,-12,-4,-6,-5,-20,-26,-9
34.645,8,15,5,-3,1,-4,-11,-14
34.65,10,-12,6,0,3,1,4,-14
34.655,-4,-2,5,-1,-3,14,15,21
34.66,-4,-5,-1,4,1,-3,-3,-13
34.665,8,25,-3,10,6,5,13,24
34.67,7,3,-24,3,7,0,-35,54
34.675,-4,4,-1,-4,-3,6,37,-67
34.68,7,-15,-27,0,-7,-6,-15,-22
34.685,1,14,40,11,10,8,4,-3
34.69,24,15,22,5,1,7,20,18
34.695,-4,-2,-14,5,2,-12,-17,4
34.7,-7,-17,-33,-7,-5,4,-2,2
34.705,-6,-38,-9,-2,-1,0,13,-9
34.71,6,31,24,9,4,-1,-4,-12
34.715,-1,-9,-16,-18,-15,-25,-5,18
34.72,-35,7,9,-5,2,2,-20,-31
34.725,-20,-11,-16,-3,-2,3,9,5
34.73,5,6,6,5,1,9,-2,-5
34.735,-18,-23,-14,-13,-9,-20,-21,12
34.74,-4,-6,7,-3,-3,-2,-6,-5
34.745,12,25,-41,5,8,24,-17,14
34.75,19,-2,-8,-2,-5,-25,37,-34
34.755,-12,7,-6,6,7,9,-11,39
34.76,15,7,10,6,1,7,14,-34
34.765,-35,-23,-1,-29,-24,-29,-50,-29
34.77,3,-12,0,-5,-5,4,14,-2
34.775,8,5,13,0,-1,0,5,-7
34.78,21,7,16,-6,0,3,14,37
34.785,22,-14,2,3,-1,-5,-1,-11
34.79,-15,-9,11,-4,-3,1,-15,-10
34.795,-7,-1,7,-2,-2,-2,2,-6
34.8,-4,-5,-13,-5,-2,-3,2,4
34.805,8,-4,-23,4,0,-3,7,2
34.81,-11,-5,14,-6,-3,1,-3,5
34.815,15,9,10,9,4,6,1,9
34.82,10,-5,14,-1,-2,-1,-2,9
34.825,7,8,2,4,4,-1,10,1
34.83,-25,-38,6,-15,-7,-1,-1,-2
34.835,-4,14,-15,-3,1,2,-9,-13
34.84,-18,-4,-20,-5,-1,1,-6,-23
34.845,22,6,14,-1,-3,-2,13,22
34.85,-14,11,6,11,3,-2,-5,-22
34.855,-11,-7,22,0,-3,7,-8,71
34.86,10,-1,13,-1,-1,-6,12,-22
34.865,6,-4,-13,0,4,9,6,3
34.87,2,14,17,1,2,-5,-5,-1
34.875,6,3,-12,3,1,-1,0,0
34.88,8,18,14,-3,-5,-8,-12,-4
34.885,-14,2,3,1,0,7,20,-9
34.89,7,6,-11,2,-1,7,-7,8
34.895,-3,1,16,4,3,-7,8,-17
34.9,-13,19,-2,-2,-4,2,-2,0
34.905,-4,-3,4,-2,-5,-15,-8,-11
34.91,5,-12,-32,-1,0,5,-1,5
34.915,2,-12,28,-6,-2,1,-2,-18
34.92,-11,-10,-3,0,0,3,0,11
34.925,-2,28,14,6,6,5,11,39
34.93,-12,24,3,10,3,-3,0,13
34.935,4,8,7,8,3,2,-5,-3
34.94,-7,-10,-7,-4,1,2,11,-24
34.945,-9,4,2,0,-3,-5,-7,-6
34.95,7,-11,-1,1,-1,4,5,5
34.955,-1,10,-9,5,0,-8,-10,-16
34.96,-19,-20,33,-19,-14,-12,-15,7
34.965,0,16,8,-6,-6,-9,-11,-35
34.97,2,-14,1,0,0,2,4,-5
34.975,-2,12,-8,-3,-2,7,2,-12
34.98,10,-16,-7,4,0,-7,1,15
34.985,-1,17,-4,1,-1,-5,-11,7
34.99,-4,-15,29,-10,-5,-2,-1,-21
34.995,-22,-15,3,-9,-8,-2,3,18
35,4,-2,2,6,2,3,0,4
35.005,1,-6,-4,1,2,0,0,9
35.01,-1,8,-12,-1,0,-6,-3,-6
35.015,10,1,0,2,-1,-5,2,-3
35.02,12,10,0,-2,-2,9,7,13
35.025,5,-12,-9,-4,-4,-15,-7,-11
35.03,1,8,-7,-1,-3,-2,-3,12
35.035,-1,-7,2,-4,0,0,-1,-17
35.04,0,-13,-10,-10,-4,-6,-10,6
35.045,-1,-5,-1,-2,-4,4,-4,-15
35.05,2,-2,-2,0,-1,0,5,12
35.055,0,-11,3,-9,-7,-3,0,-16
35.06,-5,7,-1,4,4,4,-3,-10
35.065,-1,-15,-2,4,3,4,-5,6
35.07,-7,14,-5,-8,-3,-4,7,25
35.075,-4,-9,7,1,1,5,1,-40
35.08,5,28,-12,11,4,2,1,10
35.085,3,-4,29,2,-1,-4,-2,-9
35.09,-6,0,-18,2,1,1,7,7
35.095,12,-25,-12,0,-3,1,-8,-3
35.1,-3,14,-3,3,4,2,-4,10
35.105,2,-2,-10,-2,-1,6,11,-3
35.11,-3,-6,-12,-3,-1,-12,-6,-15
35.115,2,17,-6,-8,-4,-3,-4,11
35.12,-1,-13,4,-3,0,-1,-2,-13
35.125,-5,-1,-15,-1,-2,1,2,7
35.13,8,0,0,-1,-3,6,-2,3
35.135,-3,-1,-6,-1,0,1,2,0
35.14,2,-4,0,-2,-3,-8,1,8
35.145,-2,2,-6,-3,-1,1,1,1
35.15,3,-2,11,5,3,1,-2,2
35.155,2,15,2,3,0,-4,-5,1
35.16,-5,-9,-10,-4,-4,1,4,-3
35.165,-7,-9,-3,-6,-4,-5,0,1
35.17,5,19,8,2,2,0,-5,-10
35.175,-3,1,8,-3,0,-2,-1,2
35.18,0,7,1,-4,-5,-1,1,0
35.185,-5,-7,1,-2,-1,-3,1,0
35.19,4,-19,-1,-37,-8,-4,-5,-1
35.195,0,4,3,6,-7,-2,-4,-1
35.2,3,-3,-1,27,7,1,0,1
35.205,-1,-7,-1,-7,4,1,1,1
35.21,-1,6,-13,-16,-8,-1,0,-2
35.215,-6,-16,-7,43,4,-2,-2,1
35.22,-1,-6,-16,-3,8,2,-1,-1
35.225,-4,-13,-31,-15,-5,-1,-2,-2
35.23,-1,3,17,13,-2,1,-2,-2
35.235,2,2,14,-81,-18,-3,-2,1
35.24,4,8,19,21,-8,-1,1,5
35.245,-3,1,-12,55,16,0,-2,-2
35.25,-10,-24,-3,-48,-2,-1,-4,-4
35.255,0,11,2,27,0,-1,1,0
35.26,-1,-4,1,-56,-8,-2,-1,-2
35.265,5,11,10,14,-11,0,0,2
35.27,-3,-3,21,33,-6,-6,-5,-5
35.275,2,-8,-23,-33,8,3,3,2
35.28,-11,-20,-49,63,16,1,-2,-6
35.285,-3,11,8,-46,-2,-4,-1,-2
35.29,5,20,32,21,-16,-6,-1,0
35.295,9,16,71,-34,-25,-3,1,4
35.3,-13,-40,-78,-43,-7,-6,-7,-8
35.305,0,5,26,113,56,13,1,-1
35.31,8,12,9,-87,-43,-3,6,6
35.315,-9,-6,-6,101,22,-4,-6,-7
35.32,12,16,98,-94,22,18,12,11
35.325,-3,-26,-123,-114,-39,2,-1,-3
35.33,-25,-34,3,102,4,-26,-21,-21
35.335,18,33,17,-101,-10,6,15,19
35.34,-3,13,102,127,-12,-11,-6,-5
35.345,-15,-19,-37,36,11,-2,-3,-7
35.35,4,8,1,-18,33,24,9,6
35.355,-9,-12,-3,-32,-10,-10,-10,-10
35.36,7,18,60,11,-6,-6,-1,1
35.365,15,23,22,-47,-17,-3,3,6
35.37,-1,-3,41,36,-2,0,-1,0
35.375,-12,-36,-88,-1,10,-1,-5,-7
35.38,-10,-4,-6,-56,-18,-8,-5,-7
35.385,4,13,5,14,-6,-2,-1,4
35.39,-9,-19,-37,53,13,0,-2,-4
35.395,12,19,49,-30,23,11,7,9
35.4,-2,-7,-38,-13,-16,-4,-2,-3
35.405,-13,-13,17,40,3,-6,-4,-6
35.41,1,7,-74,-59,1,-2,-1,-1
35.415,-5,-12,15,-5,-14,-4,-5,-5
35.42,-8,-25,-80,9,-9,-3,-4,-4
35.425,20,40,-1,26,21,13,8,10
35.43,-18,-35,40,-35,-7,-10,-8,-10
35.435,-1,4,42,56,3,1,0,-3
35.44,-6,-8,-62,-49,-12,-7,-4,-6
35.445,2,5,55,10,-4,-2,0,3
35.45,4,8,-57,-15,2,3,1,2
35.455,-5,-3,-12,16,-6,-4,-3,-3
35.46,6,11,59,18,13,5,3,4
35.465,0,-5,19,-11,-7,-3,0,-1
35.47,16,26,21,36,13,7,5,7
35.475,-8,-14,-28,-14,-5,-3,-4,-6
35.48,-2,-20,-9,-5,-3,-3,-2,-5
35.485,-4,4,-8,-4,-8,-4,-2,-1
35.49,2,2,-12,-5,4,3,3,3
35.495,-2,-2,8,9,-3,-3,-5,-3
35.5,8,11,29,17,9,7,3,5
35.505,-15,-39,-97,-63,-18,-14,-8,-9
35.51,2,3,48,10,-5,-1,-3,-2
35.515,8,23,-31,31,10,8,4,5
35.52,-7,-8,22,-12,-6,-5,-5,-3
35.525,-6,-5,31,-17,-7,-5,-5,-6
35.53,1,-13,-11,-2,1,2,2,2
35.535,-6,3,-4,17,0,-2,0,-2
35.54,6,14,-10,-1,5,4,3,5
35.545,1,-10,36,-6,-4,-1,-1,-1
35.55,-10,-10,0,-6,-8,-8,-6,-7
35.555,3,2,22,15,9,4,0,-1
35.56,-3,1,-12,2,-2,-1,-4,-1
35.565,0,-6,18,2,3,1,1,2
35.57,2,14,-8,-9,-5,0,1,1
35.575,-4,-3,10,8,-2,-1,-1,-2
35.58,3,13,32,8,7,1,1,1
35.585,-13,-22,-12,-29,-13,-8,-8,-9
35.59,1,6,14,5,6,2,1,2
35.595,-4,-15,-33,-8,-6,-5,-3,-2
35.6,4,7,33,12,2,1,2,3
35.605,7,11,-12,8,3,2,3,4
35.61,-6,-12,-57,-12,-3,-1,-1,-4
35.615,-3,-1,7,-10,-4,-2,-2,-3
35.62,-1,-2,5,1,3,1,0,-2
35.625,6,-25,-33,-9,-7,-4,-2,-2
35.63,0,6,13,-1,1,1,0,1
35.635,1,-9,1,1,-2,-1,0,-1
35.64,-3,-2,-34,-11,-3,-4,0,-4
35.645,3,5,25,12,5,2,2,1
35.65,3,3,19,-2,1,1,1,0
35.655,-1,-3,-13,12,0,0,-2,-1
35.66,-9,-16,-22,-43,-19,-9,-8,-9
35.665,-1,8,15,20,13,5,1,1
35.67,0,2,6,16,2,0,0,-1
35.675,-1,4,-11,-12,0,-2,1,1
35.68,2,4,-6,8,0,2,2,2
35.685,-1,5,12,-1,-3,-1,0,-2
35.69,0,2,4,-3,-1,-2,-1,2
35.695,-1,-13,-36,-2,1,-1,-2,-1
35.7,2,5,20,19,7,4,2,2
35.705,-13,-25,-63,-48,-21,-12,-9,-10
35.71,3,6,25,11,2,2,1,2
35.715,1,2,10,-8,-3,-2,-1,-3
35.72,-1,7,18,7,-1,-1,-1,1
35.725,4,12,-9,12,5,2,3,3
35.73,-9,-11,0,-21,-7,-7,-5,-5
35.735,0,-4,-4,7,0,-2,-1,2
35.74,2,4,27,7,5,2,1,0
35.745,-2,-1,-8,6,0,0,-2,-3
35.75,0,0,-6,-7,2,2,0,0
35.755,0,6,27,5,-2,0,-2,-1
35.76,-3,-12,-27,-3,-4,-5,-3,-2
35.765,-6,-5,2,-7,-6,-5,-3,-3
35.77,2,7,14,6,0,0,-1,0
35.775,-1,-3,-38,-15,-3,-1,-2,-2
35.78,0,3,13,4,5,2,2,0
35.785,-1,5,11,0,0,-1,0,1
35.79,-3,-9,-10,-9,-1,-2,-3,-3
35.795,3,7,18,3,-1,0,1,0
35.8,-1,-6,-26,-3,-3,-2,-3,-1
35.805,1,5,17,7,2,1,0,2
35.81,-2,-2,0,-1,-1,-1,-2,-1
35.815,-1,6,12,-3,-1,-2,-1,-3
35.82,-6,-7,-14,-13,-8,-4,-4,-3
35.825,-1,1,1,-4,-4,-1,-2,-2
35.83,6,6,-11,21,6,4,4,2
35.835,-6,-12,-2,-18,-10,-6,-4,-5
35.84,-5,-9,-4,-5,-7,-3,-4,-3
35.845,4,12,19,10,5,4,2,1
35.85,-1,0,-19,-1,-2,-1,-1,-1
35.855,-3,-11,-34,-8,0,-2,-2,0
35.86,-1,1,9,5,2,0,0,-1
35.865,0,2,50,6,-1,-2,-2,-1
35.87,-1,0,-6,-1,0,-1,1,1
35.875,2,8,21,-3,0,1,1,1
35.88,-1,-4,-68,-7,-1,1,-1,-1
35.885,-4,-4,12,-6,-5,-4,-2,-2
35.89,-2,-2,15,6,2,0,-1,-3
35.895,0,1,3,0,0,2,1,1
35.9,2,6,27,5,1,0,0,1
35.905,-4,-7,-22,-3,-4,-2,-1,-3
35.91,-2,-4,-17,-7,-5,-3,-4,-1
35.915,-1,1,14,5,-2,-2,-1,-2
35.92,6,18,52,7,3,2,2,4
35.925,-2,-11,-45,-11,-5,-4,-2,-3
35.93,-4,-6,-6,-17,-5,-3,-3,-4
35.935,-3,-6,3,5,4,2,-1,0
35.94,2,7,20,0,-1,-4,-2,0
35.945,5,18,43,19,7,4,2,4
35.95,-5,-10,-51,-14,-5,-3,-1,-2
35.955,-3,-4,0,1,-2,-2,-1,-1
35.96,-1,0,3,8,3,1,1,-1
35.965,-7,-7,14,-23,-9,-6,-4,-3
35.97,4,2,11,11,3,1,1,0
35.975,0,-1,9,10,1,-1,-1,0
35.98,-4,2,-1,-3,-3,-1,-4,-3
35.985,3,8,8,9,4,3,0,2
35.99,-3,-5,4,-7,-4,-4,-3,-3
35.995,-3,-1,14,-4,-4,-3,-1,-2
36,7,11,-2,19,0,0,3,4
36.005,-20,-34,-40,-49,-21,-12,-8,-11
36.01,-5,-4,-3,-3,2,2,-1,-2
36.015,2,0,-7,4,3,1,0,1
36.02,-4,-4,-3,-1,1,0,-3,-1
36.025,5,5,-16,0,1,1,2,1
36.03,2,3,38,7,-3,-3,-1,1
36.035,-4,-3,-6,-8,-4,-3,-2,-2
36.04,-4,-9,-19,-10,-7,-5,-3,-2
36.045,4,8,12,12,4,4,0,3
36.05,1,7,14,14,2,0,0,-2
36.055,-8,-10,-14,-17,-9,-4,-5,-5
36.06,-1,-7,-13,-3,0,0,-1,-2
36.065,4,9,21,14,5,1,1,0
36.07,1,2,-9,-5,0,0,0,1
36.075,1,0,12,-1,-5,-3,-2,0
36.08,0,1,38,15,0,0,1,-1
36.085,-12,-25,-56,-33,-6,-6,-6,-7
36.09,2,9,34,5,1,0,-1,-1
36.095,9,15,20,24,9,5,5,5
36.1,-15,-29,-30,-43,-15,-9,-8,-10
36.105,7,12,35,23,7,6,3,4
36.11,1,-2,-3,-9,-3,-1,0,-1
36.115,-3,-4,-19,-5,-2,-1,-2,-2
36.12,5,6,3,12,4,1,0,1
36.125,1,7,4,6,0,0,1,2
36.13,-5,-10,-9,-6,-3,-3,-3,-3
36.135,1,5,15,6,3,-1,-1,-1
36.14,-1,-2,-10,-3,2,0,-1,0
36.145,5,10,31,13,1,1,1,0
36.15,-6,-3,9,-7,-7,-4,-3,-2
36.155,-3,-12,-53,-4,-6,-4,-2,-3
36.16,-7,-11,-21,-20,-5,-5,-2,-3
36.165,1,9,34,6,2,-1,-2,-2
36.17,6,12,22,3,1,2,2,3
36.175,0,-1,19,22,5,4,0,-1
36.18,-6,-13,-55,-18,-3,-5,-4,-5
36.185,5,10,16,17,4,3,3,2
36.19,-6,-12,-35,-7,-4,-5,-3,-4
36.195,-3,0,-17,-12,-5,-2,-1,-3
36.2,6,14,52,18,3,3,2,4
36.205,-7,-18,-75,-24,-8,-4,-3,-5
36.21,1,1,10,9,3,-1,-1,-1
36.215,2,7,25,-5,-2,1,1,2
36.22,-4,-7,14,7,-2,-1,-1,-3
36.225,-6,-11,-62,-7,1,-2,-3,-2
36.23,0,1,5,-2,0,-1,-1,-1
36.235,0,-2,-14,-2,0,-1,-2,-2
36.24,0,3,17,-8,-3,1,1,0
36.245,1,4,15,7,-4,-2,-2,1
36.25,-4,-7,-15,-2,-5,-2,-3,-2
36.255,-3,-2,7,-7,-4,-3,0,-2
36.26,7,12,22,31,11,4,2,4
36.265,-11,-27,-51,-40,-6,-6,-4,-6
36.27,-6,-9,-32,-11,0,-1,-2,-4
36.275,-2,1,24,2,-3,-3,-2,-2
36.28,-1,4,4,10,0,-1,-1,-1
36.285,9,15,38,4,0,1,1,4
36.29,1,10,42,4,-2,-1,0,1
36.295,-8,-23,-57,-24,-5,-3,-4,-5
36.3,-2,-4,-12,-9,-3,-1,0,-2
36.305,0,5,24,19,5,5,1,0
36.31,-2,3,5,0,-3,-7,-9,-7
36.315,5,8,13,2,2,-1,-1,8
36.32,0,-9,-30,-1,-1,3,7,0
36.325,-5,0,8,-3,-1,-4,11,-4
36.33,6,-7,-16,-2,0,8,17,7
36.335,-13,-1,0,-3,-3,-8,-17,-11
36.34,15,7,-16,-8,-4,-10,-6,13
36.345,0,7,25,11,2,6,-11,2
36.35,-14,-13,-9,-6,-4,1,7,-17
36.355,7,-6,8,1,2,0,18,4
36.36,-7,-3,-11,-12,-5,-4,2,-2
36.365,15,9,3,7,5,8,-7,8
36.37,-16,-2,-11,-2,-4,5,-10,-34
36.375,18,12,19,2,3,-3,6,48
36.38,8,-4,-13,2,4,21,-13,15
36.385,-16,-14,8,-6,-9,-22,-18,-32
36.39,-2,-2,4,2,-3,-10,19,-11
36.395,-12,-2,4,4,2,2,9,29
36.4,32,-3,-1,-19,-12,3,-9,-84
36.405,-43,-3,-19,11,11,34,25,-52
36.41,1,-13,5,-7,-7,-33,-24,109
36.415,15,14,10,4,5,23,-29,-7
36.42,-39,-20,-11,-17,-13,-38,25,36
36.425,96,21,24,9,5,-2,0,18
36.43,-53,-8,-12,1,5,20,-14,-103
36.435,-9,1,-1,1,0,11,22,51
36.44,-8,6,4,9,8,3,-10,41
36.445,54,-5,27,-9,-7,5,24,19
36.45,28,24,3,-1,-4,-22,-17,-48
36.455,-22,20,-10,-1,2,16,1,-76
36.46,-81,-52,-42,-12,-15,-23,15,-93
36.465,-70,13,30,9,3,-37,-49,-49
36.47,22,-32,5,-21,-4,18,1,86
36.475,-16,-5,0,-6,1,19,18,-72
36.48,60,1,-4,7,5,16,32,34
36.485,-24,29,22,11,-2,-12,-34,-2
36.49,27,18,22,5,-7,-22,-12,-41
36.495,3,17,-7,29,38,43,25,43
36.5,-78,-11,62,-16,-30,-59,-29,2
36.505,-3,-2,18,5,5,-1,7,35
36.51,-2,23,-59,4,2,3,-25,13
36.515,42,28,21,-2,-2,-5,31,41
36.52,-24,12,-14,12,21,52,3,-13
36.525,-8,-13,-39,-14,-17,-28,4,28
36.53,-17,-23,-36,3,3,11,-1,126
36.535,-40,-56,-19,-33,-32,-58,-12,-53
36.54,110,37,-4,14,12,30,45,113
36.545,-29,2,-39,2,11,53,42,-26
36.55,-4,6,68,10,11,0,7,4
36.555,-3,-19,-37,-10,-15,-28,-59,41
36.56,45,22,13,9,11,1,3,30
36.565,-11,-9,-11,-3,-6,14,-5,-55
36.57,12,-17,27,-8,-8,-9,40,8
36.575,-53,10,24,-8,-5,0,-29,-57
36.58,-9,-8,-5,-5,-5,-40,-44,-74
36.585,19,-53,0,-28,-23,-35,9,90
36.59,-88,-11,5,2,-5,-3,-34,-112
36.595,30,-31,-40,-13,-16,-27,-21,0
36.6,14,13,-15,2,7,32,28,-62
36.605,-9,-21,-33,-10,-7,-5,-40,37
36.61,25,18,4,0,2,4,45,78
36.615,34,-17,-38,-8,-6,1,13,77
36.62,-50,-4,-35,-8,-8,-10,-28,61
36.625,-6,24,29,11,8,-25,-25,-49
36.63,36,-23,-13,7,4,26,33,19
36.635,3,46,-1,5,7,-3,1,-20
36.64,-39,2,-2,12,8,13,7,-2
36.645,25,6,31,5,4,3,5,34
36.65,2,5,-11,-2,-2,-4,1,-17
36.655,-17,-36,15,-16,-13,0,0,-44
36.66,52,-2,-37,3,4,29,9,45
36.665,70,20,7,3,1,-21,-2,-22
36.67,-10,-10,-17,-9,-8,-11,-21,-45
36.675,27,16,-7,14,9,13,-1,62
36.68,-30,-20,-5,-13,-11,-19,-30,-86
36.685,-16,-19,-28,-7,-3,4,17,24
36.69,7,-2,26,-17,-13,-17,-15,-36
36.695,0,-3,10,1,-1,-12,11,-13
36.7,-5,3,18,-1,-2,-5,-29,-10
36.705,-23,-25,-56,-16,-15,-1,1,30
36.71,0,8,27,6,7,8,9,-38
36.715,-19,1,40,1,-2,-3,-35,-17
36.72,-22,2,6,0,-4,-11,20,7
36.725,-46,8,1,3,0,-13,-1,-14
36.73,-20,-8,-26,-7,-5,4,-10,41
36.735,10,-2,30,3,-3,-13,14,-110
36.74,-17,-27,15,-14,-7,0,-35,-55
36.745,-1,17,-19,10,14,31,8,41
36.75,16,-3,-12,0,-2,-15,-15,-10
36.755,4,-7,-2,-6,-3,4,17,-30
36.76,5,1,24,-3,-5,-21,-24,-3
36.765,14,2,-2,7,5,12,0,-10
36.77,23,17,49,2,3,9,-17,-67
36.775,7,-10,-3,-1,1,2,25,54
36.78,15,32,-30,8,6,15,0,25
36.785,3,23,46,3,-2,-8,31,63
36.79,18,5,-4,7,3,8,-34,49
36.795,-13,-16,-27,-1,-1,-8,13,17
36.8,37,-27,-22,-16,-8,1,-3,124
36.805,-21,7,42,1,4,-10,3,-19
36.81,-1,-8,-28,-6,-5,9,-4,-3
36.815,-28,-8,28,7,3,-4,-4,-27
36.82,19,-7,9,-3,-7,-20,36,-42
36.825,7,5,-17,4,-1,2,-12,-6
36.83,-21,10,20,-10,-4,-1,13,-14
36.835,-1,1,-3,1,2,1,-33,-8
36.84,7,19,19,10,12,15,31,15
36.845,4,-10,-19,-15,-7,20,-8,27
36.85,-8,5,23,10,10,-14,40,-16
36.855,28,17,-14,6,-2,12,-29,46
36.86,-20,23,30,-5,-5,-12,-2,-11
36.865,14,5,-22,0,1,4,12,0
36.87,-8,-10,-24,1,1,7,-20,-15
36.875,1,4,19,-2,-2,-6,-17,1
36.88,-7,0,23,2,-1,-14,-24,2
36.885,3,-20,-48,12,3,13,-3,-71
36.89,4,14,38,15,16,0,-8,21
36.895,-11,5,-4,-3,0,7,26,-20
36.9,1,-7,2,11,1,-18,-4,-16
36.905,37,14,27,-3,1,10,2,21
36.91,-10,2,16,-4,-5,-8,-17,-33
36.915,5,-4,-14,-1,-1,2,-12,31
36.92,2,-19,-42,-6,-2,5,6,-13
36.925,-24,-11,16,-1,-2,-15,2,38
36.93,-16,-32,-20,-30,-23,-10,-3,10
36.935,-5,-3,15,-6,-4,-6,-6,-1
36.94,-9,3,-13,-4,-4,10,5,-42
36.945,5,-4,11,5,1,-12,-19,-12
36.95,18,6,20,-6,-2,1,41,48
36.955,7,5,-7,-2,-4,-10,-18,-40
36.96,-5,1,-12,-3,-3,3,10,23
36.965,-24,-20,4,-12,-4,-3,-5,-47
36.97,15,13,-5,15,9,-1,12,8
36.975,-3,-17,-18,-7,-5,1,2,16
36.98,-11,-6,2,1,4,17,4,50
36.985,-16,-5,1,-6,-2,-18,-8,-51
36.99,2,4,-17,8,0,-3,-11,9
36.995,-8,-16,0,-18,-7,6,5,19
37,-7,13,3,0,-1,-9,-30,-42
37.005,-11,-4,17,2,-2,0,26,4
37.01,11,-10,-46,-1,-2,3,-13,40
37.015,6,2,15,3,1,-5,-14,-56
37.02,-4,-2,30,3,0,-1,16,17
37.025,6,6,-18,-4,-1,21,-7,-13
37.03,-5,5,10,-9,-10,-30,15,12
37.035,-8,4,8,6,3,6,10,12
37.04,0,-7,-2,-2,-2,-5,-25,-15
37.045,1,4,6,3,-1,2,0,-3
37.05,-18,-1,-7,3,3,-1,-4,-35
37.055,2,6,-3,4,3,9,-12,14
37.06,2,4,12,-1,-2,-16,18,14
37.065,-1,-14,0,-5,0,6,-12,-2
37.07,7,4,-1,-3,-1,4,-5,-4
37.075,10,-9,-24,-11,-9,-8,-25,38
37.08,-45,-16,9,-2,-2,-22,6,-78
37.085,-9,-6,8,0,-4,6,6,-13
37.09,6,-6,9,0,-1,3,-15,6
37.095,-5,11,46,-4,1,-6,36,4
37.1,2,-11,-10,-9,-8,13,-43,3
37.105,5,6,-8,3,-1,-9,-1,6
37.11,10,22,6,11,10,1,2,9
37.115,-9,-3,-13,3,-3,-4,5,-8
37.12,17,4,3,9,8,20,11,23
37.125,-10,-12,49,-12,-9,-24,-15,-20
37.13,2,-5,-9,-3,-6,1,25,13
37.135,-5,-3,-17,-2,0,0,3,-11
37.14,0,-1,0,2,4,2,-13,8
37.145,-5,25,5,1,-2,-8,10,-14
37.15,-6,-12,-12,-2,0,8,-7,-4
37.155,-9,-17,10,0,2,-5,10,7
37.16,2,3,-2,0,0,0,-2,-15
37.165,1,-3,-12,-3,1,1,-5,6
37.17,-2,-5,6,1,0,22,-5,1
37.175,10,10,10,5,4,-17,8,13
37.18,10,-2,-3,-6,-8,-7,1,-23
37.185,7,-12,24,-2,-2,6,-11,4
37.19,-4,3,1,0,2,1,13,1
37.195,-1,6,0,-2,-6,0,-9,-8
37.2,1,2,5,3,2,1,4,18
37.205,-3,-4,-19,-2,0,-6,0,-4
37.21,8,4,6,0,0,0,1,-4
37.215,-4,14,-3,-6,-1,3,2,10
37.22,-3,-7,0,4,-1,-2,1,10
37.225,-2,2,-4,4,3,4,4,6
37.23,-10,-7,-1,-2,-3,-9,-8,-3
37.235,0,-6,-1,6,3,5,-1,7
37.24,8,-18,11,-20,-4,0,5,10
37.245,1,2,0,-8,-5,-2,-3,-3
37.25,-2,-4,3,16,2,-1,-4,-2
37.255,-6,-6,-20,-10,-2,-4,0,0
37.26,-4,-7,3,1,0,1,-4,-3
37.265,-1,-4,-15,0,4,2,4,5
37.27,-5,-3,10,-13,-3,-3,-4,-2
37.275,5,9,13,-45,-5,7,4,5
37.28,-2,3,10,63,-8,-10,-3,4
37.285,-6,-20,-63,-13,9,0,-3,-2
37.29,-4,2,7,13,5,-1,-1,-2
37.295,0,-3,3,-10,-2,-4,-4,-6
37.3,2,12,4,-49,-8,2,1,5
37.305,3,7,48,29,-11,-6,0,2
37.31,-8,-27,-2,15,-4,-7,-6,-10
37.315,-4,1,-28,17,8,3,2,3
37.32,-4,3,12,-23,1,-2,-1,0
37.325,-5,-6,-9,9,-2,2,2,-1
37.33,-4,-9,-34,-44,-9,-5,-3,-1
37.335,-1,-1,36,18,0,-4,-1,0
37.34,2,11,-6,-20,-8,-3,0,2
37.345,1,3,17,-19,-2,1,-1,-1
37.35,6,17,16,-11,0,1,1,1
37.355,3,5,41,97,7,2,0,2
37.36,-6,-10,-34,-33,0,-5,-4,-2
37.365,-21,-46,-84,-35,-11,-13,-9,-12
37.37,1,10,14,13,5,3,-1,1
37.375,-3,2,-25,28,10,2,1,-2
37.38,6,15,50,-5,0,3,2,4
37.385,6,21,60,33,-10,-2,0,2
37.39,-3,-4,-13,-83,-14,-6,0,-2
37.395,2,3,17,-10,-12,-4,-3,-1
37.4,-2,0,50,127,20,2,-2,0
37.405,-6,-14,-81,-76,7,2,-2,-2
37.41,-2,-1,-3,2,-10,-4,-3,-2
37.415,-1,-7,-31,-44,-8,-3,0,-1
37.42,-4,-7,23,-12,-11,-6,-3,-3
37.425,14,13,16,1,7,6,3,6
37.43,-6,-4,30,38,-5,-5,-6,-7
37.435,-5,-14,-42,-26,-7,-3,-3,-2
37.44,3,18,-18,7,7,4,3,2
37.445,-2,-9,-7,-4,1,-3,-2,-2
37.45,6,15,-11,-9,4,7,2,3
37.455,-10,-21,6,30,-5,-8,-5,-6
37.46,-2,-17,-74,-56,-9,1,1,0
37.465,5,24,57,63,5,2,1,1
37.47,4,13,42,50,20,6,3,4
37.475,-5,-20,-26,-26,-2,1,-3,-1
37.48,-8,-14,-65,-65,-14,-8,-6,-5
37.485,-3,4,1,-15,-15,-3,-1,-3
37.49,5,13,9,22,7,3,2,5
37.495,4,17,-6,-11,4,3,1,1
37.5,-5,-25,21,26,0,-4,-3,-3
37.505,-2,-4,53,-30,-2,-2,-3,-1
37.51,-3,-22,31,-8,-7,-7,-3,-7
37.515,-1,-1,27,-6,-10,-1,-1,1
37.52,6,52,-38,-2,16,13,9,8
37.525,-4,2,8,11,-2,-5,-3,-4
37.53,-7,-18,-61,19,7,0,-1,-2
37.535,-10,-12,-68,-27,-12,-7,-3,-4
37.54,-3,-11,6,-13,-10,-1,-1,-3
37.545,7,9,5,35,8,3,3,4
37.55,3,-2,-3,-21,-3,-1,-3,0
37.555,10,17,37,27,12,6,1,1
37.56,0,-19,42,11,-1,-4,-4,-4
37.565,-5,-6,-11,-30,-10,-6,-5,-3
37.57,2,14,17,12,2,3,1,2
37.575,-1,-1,12,-1,1,0,-1,-3
37.58,-2,-10,-27,-5,-6,-4,-2,-1
37.585,-4,20,20,9,0,0,0,1
37.59,-7,-4,25,4,-7,-4,-4,-4
37.595,-1,1,-4,25,19,5,2,1
37.6,0,1,19,8,6,3,2,1
37.605,-5,8,1,-11,-11,-5,-3,-2
37.61,5,7,-15,-8,-3,3,4,3
37.615,-10,-1,29,-4,-9,-8,-6,-6
37.62,-6,-2,0,11,7,1,0,-1
37.625,0,-6,-1,-4,-3,2,0,-1
37.63,3,-7,-12,-4,-2,0,-1,0
37.635,1,6,-8,1,3,-2,-1,2
37.64,-6,-10,0,-9,-9,-5,-6,-6
37.645,8,6,13,39,9,5,2,4
37.65,-3,-5,-8,-22,-2,-1,0,0
37.655,-6,-5,48,-16,-11,-5,-4,-3
37.66,-1,6,-3,7,3,3,-1,-1
37.665,0,11,-13,11,8,1,1,1
37.67,-4,0,-17,-2,-6,-6,-5,-3
37.675,5,3,-22,-16,0,0,2,2
37.68,3,3,16,5,2,0,0,1
37.685,6,-3,2,-6,-3,5,2,2
37.69,-16,-28,-114,-23,-15,-14,-9,-10
37.695,3,3,10,22,15,5,1,2
37.7,-10,1,7,10,0,-1,-1,-1
37.705,-5,-19,-47,-22,-6,-3,-3,-1
37.71,1,-3,12,2,-1,1,1,-1
37.715,-1,38,23,-5,-5,-1,2,1
37.72,5,2,13,14,5,-1,0,1
37.725,5,-1,-39,17,6,2,2,2
37.73,-13,-18,11,-30,-12,-6,-5,-8
37.735,-2,-11,37,8,0,-2,-2,-2
37.74,-7,1,-28,-9,-5,-2,-3,-5
37.745,-1,-8,33,-16,-3,-2,-2,-1
37.75,6,6,-40,-10,4,4,1,2
37.755,0,-4,29,14,6,3,2,1
37.76,-2,-10,-40,-10,-5,-4,-1,-2
37.765,-9,-15,64,-14,-6,-7,-6,-5
37.77,2,19,2,34,7,6,2,2
37.775,-3,-5,12,-35,-13,-6,-5,-3
37.78,7,3,26,18,9,3,3,1
37.785,0,-10,-24,-3,-7,-5,-3,-4
37.79,3,2,-3,16,8,2,1,0
37.795,-1,0,3,0,-3,-4,-2,-1
37.8,-3,-7,-24,-31,-9,-4,-2,-2
37.805,-3,-5,-26,17,2,-2,-1,0
37.81,-2,0,21,16,7,1,-1,0
37.815,3,-2,-17,4,1,1,-1,-1
37.82,1,0,18,-4,-3,-1,-2,1
37.825,-4,-6,13,-18,-7,-4,-1,-3
37.83,-4,2,13,-11,-9,-2,-3,-3
37.835,-2,-10,-32,-9,-3,-1,-1,-2
37.84,4,3,15,10,4,2,0,1
37.845,-4,0,-39,-9,-4,-2,-3,-6
37.85,-2,-7,-2,3,-1,-2,0,0
37.855,13,-11,13,9,4,4,3,4
37.86,-12,-19,4,-6,-13,-9,-7,-8
37.865,3,3,-3,-8,3,1,0,0
37.87,1,2,3,2,1,0,-1,0
37.875,-1,-2,-15,-10,-3,2,0,0
37.88,-3,-4,-28,-8,-6,-3,-3,-2
37.885,1,11,43,20,7,2,1,1
37.89,-2,-11,1,-16,-6,-3,-3,-2
37.895,-6,-1,-12,1,-1,-3,-1,-3
37.9,7,11,23,16,7,3,3,4
37.905,-11,-15,-56,-33,-11,-7,-5,-7
37.91,1,14,77,16,3,-1,1,2
37.915,-8,-16,-40,-27,-10,-6,-3,-3
37.92,1,7,8,1,1,1,1,0
37.925,-2,-10,-23,4,0,-2,-1,-1
37.93,2,4,25,4,4,2,2,2
37.935,2,9,1,14,4,4,2,2
37.94,-8,-30,-38,-31,-9,-6,-4,-7
37.945,11,6,35,16,5,3,2,3
37.95,0,3,-8,-3,-1,-2,-1,-1
37.955,-6,-5,6,3,-3,-3,-3,-5
37.96,3,6,0,0,3,3,1,2
37.965,2,0,8,5,2,2,1,1
37.97,-4,-3,37,3,-4,-2,-1,-4
37.975,-8,-13,-54,-25,-7,-6,-5,-5
37.98,7,16,53,31,11,5,4,5
37.985,-13,-22,-42,-28,-13,-9,-7,-7
37.99,5,6,12,-4,-1,1,1,2
37.995,6,19,48,13,3,3,2,3
38,-3,-14,-61,-4,-2,-5,-2,-4
38.005,-2,5,32,11,1,1,-1,0
38.01,0,1,19,1,2,1,-1,-1
38.015,-2,-7,-21,-13,-4,-3,-3,-2
38.02,1,8,4,1,1,1,-1,-1
38.025,9,23,66,34,8,5,3,3
38.03,-14,-40,-101,-69,-20,-11,-8,-10
38.035,0,6,30,18,5,1,1,-1
38.04,2,5,18,8,4,2,2,2
38.045,-2,3,23,11,2,1,0,0
38.05,-1,2,10,1,-2,-2,-1,-1
38.055,-4,-7,-34,-11,-5,-4,-2,-1
38.06,0,3,13,-6,-3,-1,0,0
38.065,-4,-7,-26,-9,-5,-4,-3,-3
38.07,7,14,-2,18,7,4,3,2
38.075,-10,-16,19,-18,-11,-8,-6,-8
38.08,-5,1,12,1,-1,-1,-4,-3
38.085,3,6,17,10,3,1,0,2
38.09,1,6,-6,16,1,1,1,-1
38.095,-6,-20,-62,-46,-11,-5,-3,-4
38.1,-5,-1,18,11,1,-1,-2,-2
38.105,-1,0,9,-6,3,-1,-2,0
38.11,-1,-5,-11,2,-2,-2,-1,-2
38.115,10,12,9,19,8,6,5,7
38.12,-13,-26,-79,-39,-17,-12,-7,-7
38.125,-2,-2,-11,-4,-3,-1,1,-1
38.13,0,1,9,6,2,2,-1,2
38.135,3,7,11,13,2,2,-1,1
38.14,2,2,-7,2,4,5,1,2
38.145,-1,2,6,8,-1,-1,-2,-2
38.15,-1,-2,-8,-9,-3,-5,-2,-1
38.155,-2,1,12,9,2,2,-1,-1
38.16,-1,-2,10,0,-3,-3,0,-3
38.165,-6,-18,-40,-24,-7,-3,-4,-1
38.17,-1,4,39,5,0,0,3,-1
38.175,-1,-2,-26,0,-1,-3,-3,-1
38.18,7,11,56,14,5,4,-3,3
38.185,-3,-11,-77,0,-3,-4,-1,-4
38.19,-6,-15,-32,-24,-8,-7,7,-2
38.195,0,4,54,7,4,0,2,-1
38.2,1,6,8,0,2,3,7,1
38.205,0,1,-7,4,4,9,7,0
38.21,2,6,38,17,5,4,-4,1
38.215,-8,-12,-37,-24,-13,-18,-10,-6
38.22,2,4,32,4,-3,-4,0,0
38.225,5,12,44,2,2,1,-6,0
38.23,-3,-9,-53,-9,-6,4,-3,-2
38.235,0,-5,7,4,0,17,-5,-1
38.24,-1,2,7,-3,-1,-8,19,0
38.245,-4,-5,6,-7,-5,-20,-6,1
38.25,1,4,11,7,2,2,3,5
38.255,-4,0,3,3,-3,-15,7,-3
38.26,3,-3,-5,1,1,9,-22,-1
38.265,-8,-3,8,-7,-6,0,6,-9
38.27,2,5,4,1,5,15,-8,2
38.275,2,11,14,8,2,-9,12,1
38.28,-4,-13,-24,-2,-6,-9,-2,-1
38.285,3,11,17,-8,0,4,1,-2
38.29,-9,-18,-32,-14,-5,-2,-28,-9
38.295,3,9,-18,2,2,14,20,8
38.3,-3,-1,15,10,1,-8,-12,-1
38.305,-3,0,21,3,-1,-9,4,2
38.31,-1,-6,-1,-7,-2,-6,12,-18
38.315,6,3,-6,14,6,13,1,4
38.32,-7,-6,14,-17,-7,-8,-33,-4
38.325,1,-4,-23,0,3,14,19,-9
38.33,-12,5,32,5,-6,-17,11,37
38.335,-3,-1,15,0,0,8,-3,31
38.34,0,1,-6,2,0,-6,-1,-41
38.345,-5,-1,-6,-8,-5,-2,-14,11
38.35,4,2,-11,-1,1,-5,-21,-26
38.355,-18,-12,16,-5,-8,-2,20,2
38.36,9,11,0,1,3,8,11,16
38.365,-11,-16,-9,1,-3,6,31,14
38.37,21,14,12,4,1,0,-11,-6
38.375,-43,-28,-32,-22,-11,-3,-8,-6
38.38,17,-9,-14,-6,-2,-1,12,21
38.385,18,11,-4,3,0,-5,-28,-1
38.39,-36,-4,5,-7,-5,11,-5,-15
38.395,14,-3,4,5,5,5,19,-43
38.4,-1,-2,-6,2,-2,-15,-27,5
38.405,-16,0,36,-1,-5,-19,1,-6
38.41,-10,-9,-4,3,3,7,-12,-35
38.415,13,6,17,5,-1,3,-1,6
38.42,-11,1,-20,2,5,24,21,-22
38.425,12,-5,11,-2,-4,0,0,9
38.43,-2,1,2,1,-4,-21,-22,11
38.435,7,28,21,17,10,4,26,-46
38.44,-6,-17,-31,-11,-9,6,-22,-16
38.445,21,6,5,-3,-1,-13,-11,64
38.45,12,0,29,-1,-5,-19,20,34
38.455,-20,-31,-31,-29,-17,6,1,-72
38.46,23,13,5,-2,1,5,50,44
38.465,-12,-22,-56,-7,-7,12,-4,-49
38.47,27,29,38,15,17,-9,-15,56
38.475,-17,-25,-21,-11,-15,-22,-30,21
38.48,-1,16,2,14,7,-8,-42,-4
38.485,7,-18,-23,-1,3,26,45,-17
38.49,-7,-25,-20,-15,-11,-13,-2,37
38.495,-28,3,23,-1,-2,-11,-2,-25
38.5,10,8,12,11,7,-1,1,13
38.505,-4,24,2,7,2,6,-30,5
38.51,3,4,4,1,-3,0,33,-43
38.515,35,29,29,23,12,-17,-25,46
38.52,-14,-28,-12,-33,-21,0,-7,-7
38.525,11,19,51,9,4,-19,-8,-38
38.53,7,-7,-70,-6,-3,20,38,-7
38.535,-22,-41,-70,-36,-13,-10,-28,-14
38.54,-4,26,-1,16,8,11,52,34
38.545,-3,24,20,11,8,7,-40,1
38.55,-20,-33,-33,-30,-11,19,57,62
38.555,6,7,75,4,-10,-30,-4,-68
38.56,0,0,-21,1,0,3,-20,40
38.565,-47,-68,-29,-53,-35,-33,-43,-10
38.57,19,13,32,10,-3,4,14,-20
38.575,13,3,0,8,7,9,-12,10
38.58,-2,-1,-15,0,6,31,16,-26
38.585,15,23,43,23,17,-28,8,25
38.59,-1,-16,-11,-1,-4,-5,-36,-33
38.595,11,4,-16,-5,1,7,10,43
38.6,-3,-13,-34,4,1,-11,-14,-45
38.605,11,1,-39,9,21,41,37,34
38.61,-1,20,-14,17,11,4,-7,-24
38.615,31,17,-2,11,13,30,14,23
38.62,-3,-4,2,-8,-9,-29,-19,61
38.625,-27,-22,-11,-32,-17,8,-10,-112
38.63,3,6,-14,0,3,1,-31,1
38.635,0,-23,-17,8,-2,-22,14,55
38.64,-5,36,12,8,4,13,23,-35
38.645,-3,27,41,16,7,-9,19,96
38.65,-7,-2,21,6,1,-1,-32,-25
38.655,17,-4,-21,-1,-3,7,3,-4
38.66,10,-3,32,3,3,-13,-20,16
38.665,20,13,6,13,10,30,29,18
38.67,-26,-2,-12,-10,-13,-40,-59,-69
38.675,4,32,31,12,8,-1,3,27
38.68,-2,1,-3,1,-1,-3,11,-15
38.685,-23,-33,2,-22,-14,-11,-71,-2
38.69,3,25,65,14,17,32,95,-21
38.695,-34,1,-17,-4,-4,-9,-15,-27
38.7,-9,-6,-1,-6,1,6,4,-8
38.705,3,-23,8,-9,-15,-19,-11,-19
38.71,-4,-11,-11,-5,-5,6,-6,44
38.715,-11,2,22,1,1,-2,5,-11
38.72,12,50,16,7,11,15,4,1
38.725,33,26,9,11,-1,-14,3,33
38.73,-8,-1,3,-5,-2,11,8,1
38.735,-18,-45,-27,-24,-9,-8,-18,-15
38.74,-1,5,23,-7,-8,-7,-20,-35
38.745,0,0,2,1,0,-3,19,-22
38.75,-11,-16,0,-17,-12,-21,-28,15
38.755,0,-30,8,-12,-10,1,0,-15
38.76,8,-26,-2,-9,-10,-5,11,-12
38.765,-41,-25,-4,-14,-15,-16,-20,-42
38.77,10,7,25,12,10,8,12,-40
38.775,-8,6,-24,1,-2,-6,-21,23
38.78,-14,-15,21,-6,-6,-3,-1,13
38.785,44,59,28,45,21,25,-7,37
38.79,33,17,23,18,18,1,34,20
38.795,15,12,3,4,0,0,2,9
38.8,-18,1,-4,-2,-2,-3,-10,-14
38.805,-20,-3,-16,-5,0,8,-9,7
38.81,-29,-26,-15,-17,-13,-20,-20,25
38.815,12,19,2,4,5,13,0,-8
38.82,-27,-25,-13,-3,-5,-15,10,-14
38.825,-8,-20,-32,-9,-4,5,17,1
38.83,-7,-5,-15,-5,-6,4,7,3
38.835,20,12,-8,5,5,-10,-8,-21
38.84,0,-7,17,-3,-7,5,-9,6
38.845,1,-1,-8,-4,-2,-11,4,-15
38.85,-14,-37,-7,-7,-7,-3,-10,-12
38.855,9,8,18,1,-2,-4,-13,-7
38.86,17,25,-9,23,14,23,36,2
38.865,7,4,28,8,6,-12,14,-10
38.87,29,14,-11,6,3,0,-18,6
38.875,-3,5,7,2,-1,15,8,44
38.88,12,4,4,8,4,0,5,12
38.885,-19,14,23,-11,-14,-20,-7,-10
38.89,-21,3,-10,-2,-5,5,-28,-7
38.895,-39,-8,-10,-5,-1,7,45,-50
38.9,-30,7,17,0,-2,-27,-15,-8
38.905,6,3,-4,2,-2,6,4,-12
38.91,-10,5,-15,-9,-9,-4,-12,12
38.915,3,-6,-16,-7,-6,-10,-32,23
38.92,25,3,-39,17,11,21,13,25
38.925,38,52,16,5,11,2,53,24
38.93,-11,22,11,1,-3,1,-3,-3
38.935,8,13,-4,5,0,-3,-9,-4
38.94,1,-20,11,-4,-3,-4,-16,-19
38.945,-19,-42,-60,-25,-15,3,-26,-25
38.95,-15,-5,22,-1,-4,-5,21,25
38.955,-6,0,18,0,2,-2,6,-1
38.96,-5,-19,-17,-18,-7,-10,-41,-1
38.965,-8,-18,-6,-6,-5,0,14,1
38.97,0,-9,-11,-6,-3,0,11,-11
38.975,10,15,-8,14,4,6,-9,3
38.98,14,21,11,2,3,-4,11,5
38.985,-11,-2,2,7,-1,2,-5,-16
38.99,14,0,3,6,2,-1,15,0
38.995,8,20,24,2,-2,2,-10,8
39,-18,-22,24,-15,-15,-17,6,-4
39.005,5,-4,1,0,3,0,-7,1
39.01,8,-18,-12,-4,-2,4,-5,36
39.015,-3,-8,-7,-4,0,16,25,7
39.02,-34,-15,-12,-15,-12,-39,-34,10
39.025,-1,3,-3,4,1,14,13,4
39.03,6,12,31,2,-5,-21,-19,5
39.035,-18,-6,19,-2,-2,-4,-14,-1
39.04,6,2,3,-3,-1,18,16,-5
39.045,1,4,-3,5,-1,-8,-21,2
39.05,7,11,-15,6,7,15,18,-3
39.055,-6,-31,-13,-15,-9,-5,-5,18
39.06,13,1,40,-5,-2,-1,9,12
39.065,-13,-7,3,4,1,-6,-12,16
39.07,-7,-12,1,-6,-11,-6,-14,-18
39.075,1,-1,7,-4,2,-5,1,-20
39.08,3,-6,-16,-1,-1,1,-4,2
39.085,0,-10,3,-3,-4,2,6,-5
39.09,-10,39,-6,4,1,-4,-10,-5
39.095,0,1,-3,4,0,3,18,7
39.1,0,-2,-16,-7,-4,-5,-6,-5
39.105,1,5,32,1,3,1,1,-7
39.11,0,-16,8,0,0,-7,-4,-20
39.115,0,-5,-18,-12,-11,-6,-12,14
39.12,3,6,3,0,3,1,5,-7
39.125,-3,-30,-21,-5,-6,-6,3,1
39.13,3,-5,2,-1,3,2,-9,-3
39.135,1,2,0,0,-1,-2,-5,0
39.14,-3,-12,8,-4,-5,-1,0,-4
39.145,1,6,-6,0,1,0,0,3
39.15,8,-3,-5,2,2,6,6,0
39.155,1,11,7,2,1,-7,-7,-2
39.16,-7,-20,-16,-13,-6,2,5,-6
39.165,6,13,11,3,2,-1,-3,1
39.17,0,-2,-5,-2,-3,-1,1,-1
39.175,1,-11,-2,-1,-2,-4,-3,0
39.18,4,3,3,6,4,4,-2,3
39.185,-7,4,-13,-4,-2,-1,-2,-1
39.19,-4,-6,2,-1,-1,-2,0,-1
39.195,-4,-4,-11,2,-2,-4,-4,1
39.2,-2,-3,-10,0,-1,0,-1,-5
39.205,-10,-10,1,-7,-4,-4,-2,-6
39.21,4,-7,-7,-3,-2,-3,0,-2
39.215,-5,-1,-8,6,7,4,-1,-4
39.22,0,1,5,-1,0,1,-2,-2
39.225,-2,-8,-8,-1,-4,-3,-2,-1
39.23,-8,12,-14,-4,-1,1,0,-3
39.235,2,2,-2,-3,-4,-2,-1,0
39.24,1,2,-2,-2,-5,-5,-4,-4
39.245,6,0,-3,3,2,3,1,1
39.25,-2,-14,2,1,1,1,0,-2
39.255,7,10,7,4,3,4,2,5
39.26,-3,0,-4,-3,-4,-1,-1,-1
39.265,-3,-1,0,-2,-4,-7,-4,-3
39.27,-3,79,-22,0,6,4,5,1
39.275,-7,-14,9,-7,-2,-3,-3,-5
39.28,-2,-6,1,1,-1,1,-2,0
39.285,-1,6,-3,1,2,1,-2,0
39.29,1,-26,3,-4,-1,-1,-4,-1
39.295,3,0,17,0,-2,2,-3,-3
39.3,-1,8,-4,13,3,1,2,0
39.305,6,-21,-3,-5,-3,0,1,0
39.31,4,-18,23,-2,0,-3,-2,-4
39.315,-3,-3,-7,-7,-1,-2,-2,0
39.32,-13,-25,4,-6,-3,-1,-3,-5
39.325,1,2,11,0,-1,-3,-2,0
39.33,8,-22,0,-4,-5,-3,-1,2
39.335,5,7,-1,-5,-3,-2,-4,1
39.34,-4,1,13,-5,-2,-1,0,-2
39.345,0,4,5,-1,3,0,-1,-2
39.35,-3,-1,-5,0,-3,-3,-3,0
39.355,0,-2,-15,1,2,-1,-1,-2
39.36,2,8,0,0,0,0,0,1
39.365,-2,2,-2,0,-1,1,1,0
39.37,0,-25,10,0,-1,-1,-1,-3
39.375,0,5,8,5,2,0,-1,2
39.38,5,0,5,-3,1,-2,-3,-1
39.385,-6,-1,0,-4,-3,-1,-1,-3
39.39,1,-18,10,-1,-3,-2,-3,-2
39.395,0,-1,1,2,-3,-1,0,0
39.4,2,8,-25,-17,-5,-2,-2,1
39.405,-2,5,18,0,1,-1,-1,0
39.41,-5,4,-5,-22,2,3,1,1
39.415,-4,-1,17,40,0,-2,-2,-3
39.42,8,0,-27,-1,12,3,1,4
39.425,5,3,25,-28,-5,-1,2,9
39.43,5,3,1,-8,-20,-4,-1,-2
39.435,-7,-3,-9,21,-8,-5,-2,-2
39.44,-17,-18,7,-24,5,1,-5,-8
39.445,1,4,1,79,32,9,3,0
39.45,-12,-1,-26,-20,14,-4,-4,-6
39.455,-1,5,-18,-75,-21,-7,-1,0
39.46,9,25,81,-3,-42,-9,0,3
39.465,-6,-8,-2,27,-12,-6,-6,-6
39.47,-11,30,-40,33,26,7,2,-1
39.475,3,-2,52,15,36,8,2,-1
39.48,-11,-18,2,-38,-8,-12,-6,-6
39.485,3,4,-3,-59,-37,-9,0,-2
39.49,0,-10,-3,2,-34,-8,-7,-4
39.495,-3,-16,-59,8,29,7,0,0
39.5,12,30,61,-77,1,4,4,6
39.505,-4,-15,1,72,-12,1,0,-3
39.51,-4,-13,11,-15,10,2,1,0
39.515,-1,6,-8,29,-3,4,-1,0
39.52,-1,-4,-23,126,74,14,1,-2
39.525,-3,-8,-32,-71,18,-2,1,-2
39.53,5,6,23,-100,-50,-7,0,4
39.535,-2,-4,69,-10,-48,-19,-6,-4
39.54,3,7,16,26,-17,-1,0,2
39.545,-7,-11,-79,-55,-10,-7,-6,-7
39.55,11,22,98,77,28,9,4,4
39.555,-9,-24,-52,-40,-7,-3,-2,0
39.56,-6,-15,-19,-20,-14,-7,-7,-10
39.565,5,13,7,52,15,2,0,2
39.57,1,-1,72,-2,0,-3,-1,1
39.575,11,7,-65,54,16,8,4,5
39.58,-6,-46,5,-39,-18,-12,-8,-10
39.585,-3,43,-1,-13,4,6,3,3
39.59,-2,-11,26,18,1,-4,-4,-6
39.595,2,8,33,-6,-1,0,0,1
39.6,16,27,4,84,21,12,7,9
39.605,-15,-42,-58,-89,-28,-13,-9,-12
39.61,-4,2,-12,16,1,-3,-3,-5
39.615,-20,-19,-1,-58,-15,-8,-6,-10
39.62,7,26,41,11,0,3,4,6
39.625,15,15,74,46,11,6,4,5
39.63,2,-2,-97,-2,8,2,1,3
39.635,0,-2,4,-5,0,-1,-2,0
39.64,-3,2,-40,-2,-1,-1,-1,1
39.645,-5,4,25,-8,-4,-7,-5,-5
39.65,3,-2,-19,19,5,3,2,3
39.655,-6,-3,25,-24,-7,-7,-6,-7
39.66,-12,-22,-81,-13,-13,-8,-5,-5
39.665,-1,7,23,10,7,3,0,1
39.67,-1,-1,7,12,2,-1,0,-2
39.675,9,14,1,8,3,1,1,-1
39.68,-3,-34,-11,-24,-4,-4,-1,0
39.685,-5,20,-14,1,-2,-1,0,-1
39.69,-2,-3,-3,3,1,-2,-2,-4
39.695,8,-5,16,28,9,5,4,4
39.7,-3,-10,-5,-12,-7,-2,-3,-3
39.705,11,-4,2,1,-4,-3,0,2
39.71,-3,-7,7,-4,-1,-2,-1,-1
39.715,3,12,-1,9,4,1,3,2
39.72,-3,17,15,-9,-4,-2,0,-1
39.725,-10,-19,-54,-15,-5,-3,-3,-6
39.73,-11,-17,-31,-11,-7,-5,-6,-7
39.735,3,9,49,6,2,2,0,1
39.74,-3,3,-18,6,-3,-2,0,0
39.745,-1,-5,-9,-8,1,2,-2,-1
39.75,0,-2,-3,-8,-3,-4,-2,-2
39.755,-2,0,-1,-5,1,-1,-2,-1
39.76,2,8,6,15,2,2,0,0
39.765,0,9,-28,-3,-4,-2,2,0
39.77,3,9,52,0,-4,-3,0,1
39.775,-8,-17,-78,-27,-10,-4,-4,-5
39.78,1,10,5,-12,-6,-3,-1,1
39.785,-1,-9,19,6,0,1,-2,-2
39.79,0,-1,12,7,6,2,-1,-2
39.795,4,13,13,24,9,4,3,2
39.8,-7,-14,2,-17,-3,-3,-3,-4
39.805,-1,-4,-11,-4,-2,0,-1,0
39.81,-8,25,-6,3,-1,-3,1,0
39.815,-5,-16,14,-4,-2,-3,-1,-1
39.82,-3,1,-25,-3,-3,-3,0,-4
39.825,2,10,76,11,1,-1,0,2
39.83,0,-13,-22,-3,-4,-1,-2,0
39.835,1,-7,-17,-2,4,2,-1,-2
39.84,-8,-8,-10,-26,-9,-7,-5,-5
39.845,3,-2,1,10,3,1,0,-1
39.85,-2,-10,-16,-5,1,1,-3,-2
39.855,4,17,27,10,3,1,-1,1
39.86,7,1,18,11,5,3,1,2
39.865,-6,-8,-76,-4,-1,-1,1,0
39.87,-9,-8,17,-17,-8,-5,-5,-8
39.875,-2,2,8,-9,-5,-3,-1,-1
39.88,-1,10,20,7,2,2,2,2
39.885,-2,-7,7,-3,-2,-5,-3,-2
39.89,1,-10,-29,3,-1,-1,-1,0
39.895,-5,-5,-21,-10,-8,-6,-3,-3
39.9,4,5,8,10,4,1,1,0
39.905,2,1,61,8,1,1,0,0
39.91,4,-35,-10,-5,-1,-2,1,0
39.915,-2,10,13,16,0,-1,-2,-1
39.92,-6,-10,-29,-16,-3,-4,-2,-2
39.925,8,11,56,21,8,6,2,2
39.93,-13,-29,-71,-45,-15,-11,-7,-7
39.935,-1,0,25,9,-3,-3,-2,-3
39.94,3,6,21,13,1,1,0,1
39.945,-4,-9,-18,-9,-2,-1,-2,-2
39.95,4,15,36,17,8,4,1,1
39.955,1,-3,-27,-17,-4,-1,0,2
39.96,0,13,40,11,-3,-4,-2,-1
39.965,-6,-13,-52,-13,-3,-5,-5,-5
39.97,1,10,-21,5,2,-2,0,1
39.975,-4,0,-13,-6,-3,0,-2,-2
39.98,4,-26,-12,4,0,2,0,1
39.985,-9,3,-10,-6,-7,-6,-3,-4
39.99,1,5,-20,-1,-1,0,0,1
39.995,-1,-2,19,0,-1,-1,0,-1
40,1,-1,-15,6,2,1,3,1
40.005,-6,-13,1,-10,-10,-7,-4,-5
40.01,1,10,7,3,-1,0,1,1
40.015,1,-5,-14,5,4,1,-1,-1
40.02,-3,-23,-21,-23,-8,-5,-5,-6
40.025,5,9,18,9,7,2,1,2
40.03,0,-9,-46,-5,1,1,0,1
40.035,-3,3,29,-8,-7,-3,-3,-1
40.04,-1,4,2,0,-3,-1,-1,-1
40.045,8,7,-4,12,7,3,2,0
40.05,-4,-1,28,-2,-4,-4,-3,-2
40.055,0,-7,-17,-2,-1,-3,-1,-2
40.06,-5,4,-4,-8,-1,-2,-3,-4
40.065,8,1,12,2,2,2,2,3
40.07,4,14,2,17,6,5,4,1
40.075,-10,-14,-22,-22,-10,-7,-5,-5
40.08,-2,5,27,7,1,-2,-1,-2
40.085,-3,-6,-1,-2,-3,-1,-1,-3
40.09,5,10,17,6,1,2,1,0
40.095,-3,-1,-15,2,-2,-2,-2,-2
40.1,-10,-11,-5,-9,-6,-6,-5,-5
40.105,-1,2,21,9,1,-1,0,0
40.11,1,5,8,3,3,0,-1,0
40.115,1,-1,-25,-2,1,-1,1,1
40.12,2,11,9,9,2,1,1,0
40.125,-6,-4,-12,-12,-4,-3,-3,-1
40.13,-5,-8,-8,-5,-6,-3,-1,-3
40.135,0,-5,-26,-7,0,1,1,-3
40.14,-1,4,17,3,1,0,0,-2
40.145,-4,-5,-1,-4,-3,-3,-3,-2
40.15,1,4,17,4,0,-2,-3,-2
40.155,1,-22,8,1,-1,0,-2,-2
40.16,-7,24,-11,-7,-3,-2,1,0
40.165,-1,-1,-3,4,-3,0,0,0
40.17,-3,-4,17,-6,-2,0,-2,0
40.175,3,5,27,6,1,-1,-1,-2
40.18,2,-11,6,5,3,2,1,2
40.185,-6,-6,-18,-15,-7,-6,-3,-3
40.19,-1,3,6,4,-4,-5,-2,-1
40.195,-1,6,6,3,1,4,0,1
40.2,2,-7,1,1,3,2,2,1
40.205,2,5,19,0,1,-1,-1,0
40.21,-1,-4,2,2,0,1,-1,-2
40.215,-5,0,-2,-15,-6,-5,-3,-3
40.22,0,-5,-25,-4,-6,-1,0,-2
40.225,-2,-8,-16,-2,-1,0,-2,-2
40.23,-2,0,-9,-3,0,-3,-1,-3
40.235,3,7,17,9,2,3,3,2
40.24,-6,5,65,-6,-10,-5,-5,-4
40.245,-1,-3,-15,-2,1,0,0,-1
40.25,-1,-4,-13,-6,-2,-2,-1,-2
40.255,1,5,-6,3,2,0,1,0
40.26,1,-2,-15,-1,-3,-3,-2,-1
40.265,-1,0,7,1,-4,1,0,-2
40.27,-1,-2,-6,0,4,-2,-3,-2
40.275,1,1,7,0,0,2,2,1
40.28,1,-5,-17,-2,-7,1,5,1
40.285,0,8,16,3,-2,-4,-13,-4
40.29,1,2,-3,2,2,-2,1,0
40.295,-5,0,0,-2,-2,-2,2,-2
40.3,2,-4,-13,-2,4,2,2,-2
40.305,8,1,-11,-3,-4,9,10,16
40.31,-14,-7,-2,-2,-9,-4,-10,33
40.315,-7,-5,7,-3,0,-13,-22,-20
40.32,5,-1,-3,3,5,7,15,-8
40.325,-12,-10,-3,4,-1,-18,-12,-14
40.33,-1,-5,-15,-9,-7,2,4,-9
40.335,-5,-10,-8,-4,-4,-4,2,-3
40.34,-10,0,-10,0,1,-7,-18,19
40.345,11,4,-1,2,2,10,8,9
40.35,10,-23,-4,-5,-8,1,-12,4
40.355,-41,3,22,0,1,6,-2,-33
40.36,26,1,10,4,3,-3,3,4
40.365,-2,15,-3,-7,-3,-9,-9,-44
40.37,12,9,2,2,2,6,12,46
40.375,23,10,7,-3,-9,-3,-18,5
40.38,-25,-10,6,-16,-9,-5,19,-49
40.385,9,3,15,3,4,3,12,-7
40.39,-24,-10,-8,10,10,14,-7,-15
40.395,45,6,-11,-2,-6,-11,12,66
40.4,27,12,-8,9,6,-6,-8,-13
40.405,-9,-16,-7,-14,-12,4,-29,10
40.41,1,27,5,5,6,21,25,28
40.415,-8,-19,-3,-2,-6,-36,16,-48
40.42,-13,5,-9,6,5,12,-11,15
40.425,-8,-24,-26,3,-4,-19,11,-19
40.43,-52,-3,2,-5,-4,-11,-49,-43
40.435,-16,-14,-23,-14,-4,20,-16,-45
40.44,5,1,20,-8,-4,-4,31,5
40.445,-11,1,-9,-3,1,18,27,43
40.45,21,18,10,-2,-3,-10,-5,15
40.455,10,-14,14,-3,-2,1,-31,-7
40.46,-41,-2,-8,6,1,-10,12,-52
40.465,7,-14,13,3,5,10,4,60
40.47,24,-13,-10,-9,-5,-15,6,-67
40.475,7,7,0,13,17,26,16,101
40.48,78,10,12,20,13,23,-1,94
40.485,7,28,25,14,11,32,48,49
40.49,-25,16,20,2,3,-24,24,-43
40.495,-63,-37,-45,-11,-11,-6,-41,43
40.5,32,-8,-27,-9,4,3,-3,69
40.505,-9,-20,29,7,2,-15,-21,-83
40.51,5,-17,-43,-5,-7,1,24,72
40.515,-21,15,53,3,0,1,-2,-44
40.52,-43,-17,5,-2,-3,-9,-19,-41
40.525,3,-67,-35,-26,-26,-22,-16,77
40.53,-7,48,6,-7,-5,-10,-26,-101
40.535,65,-17,-26,9,8,3,46,58
40.54,28,1,0,-4,6,28,33,51
40.545,-15,-32,37,-2,0,-9,-28,-128
40.55,-20,-58,36,0,-15,-33,-9,50
40.555,-57,47,-7,-2,-4,-2,-3,15
40.56,-23,-1,14,-3,-4,-1,6,52
40.565,63,-10,-7,-15,-10,-2,-31,-10
40.57,19,5,23,9,12,35,18,3
40.575,10,17,13,10,10,-9,19,24
40.58,-23,-28,-43,-16,-15,-4,-58,-66
40.585,-29,38,29,-3,-7,-39,16,-96
40.59,35,-6,-11,3,3,3,-23,-24
40.595,-11,-19,-30,-16,-7,16,20,22
40.6,20,-4,-8,-9,-10,-6,82,-38
40.605,-35,-1,1,4,7,3,-67,0
40.61,-17,1,-20,13,3,-1,73,-23
40.615,-11,7,3,-4,-5,-21,-64,-18
40.62,-15,-10,-76,-5,-12,-15,-26,8
40.625,28,36,21,10,20,29,75,12
40.63,-49,-6,-23,-9,-7,3,-19,-64
40.635,20,-23,-24,-7,-8,-15,-48,-10
40.64,-49,-8,40,-7,-5,1,2,-6
40.645,22,17,-15,9,1,-11,6,12
40.65,35,-4,-5,-12,-12,-9,-35,101
40.655,-49,10,-12,3,4,13,97,-34
40.66,-8,16,3,12,6,-7,-49,-23
40.665,-10,-10,-6,-21,-15,1,16,82
40.67,43,15,7,-2,14,9,6,68
40.675,81,13,6,6,5,42,5,-49
40.68,31,-3,25,1,-4,-58,-50,-54
40.685,-21,40,-3,7,0,3,-3,-15
40.69,-16,-18,-14,-16,-8,16,5,-82
40.695,12,-2,-2,-4,-3,-15,-12,-28
40.7,-26,23,36,4,7,8,-19,-41
40.705,-17,-27,-85,-12,-13,-13,-24,5
40.71,-1,-15,5,-1,1,14,-9,8
40.715,-12,14,64,5,1,-17,15,-36
40.72,29,18,-21,-4,-8,-16,9,78
40.725,-19,-30,-12,-13,-7,-4,-11,0
40.73,-63,-11,-8,-3,-6,-15,-42,-37
40.735,26,-7,-8,-7,-4,9,-22,17
40.74,-36,-25,-13,-6,-4,-7,-3,-29
40.745,-34,-30,-29,-20,-13,-12,-6,-42
40.75,-15,6,6,6,2,-2,-14,-19
40.755,-20,-3,14,4,1,1,-23,-66
40.76,-34,2,-7,4,4,2,36,-22
40.765,-1,-37,-49,3,-1,5,-39,95
40.77,-19,-23,-9,-9,-8,-12,3,53
40.775,-14,-2,18,11,5,-8,11,30
40.78,22,0,-45,6,5,25,19,70
40.785,49,31,22,1,0,-10,13,56
40.79,14,13,5,6,4,10,32,-10
40.795,8,34,49,25,14,8,17,10
40.8,8,-14,0,-8,-3,10,-24,8
40.805,-6,4,15,9,7,3,-3,-52
40.81,20,7,8,1,0,-14,0,-16
40.815,3,7,-28,-4,0,20,43,9
40.82,2,-13,-11,-10,-6,-4,-16,-17
40.825,-6,24,-4,12,12,19,-35,-61
40.83,68,29,67,-1,-3,-11,44,-9
40.835,5,-13,-46,-11,-6,-9,-22,-56
40.84,-4,8,-3,-1,-4,9,-23,-4
40.845,27,44,9,19,14,14,3,17
40.85,3,35,43,17,19,14,21,-55
40.855,-5,10,2,-8,-8,-27,-17,17
40.86,0,-4,23,-1,-2,0,7,38
40.865,-38,6,4,-1,-4,6,2,-6
40.87,2,-12,-38,3,-3,-17,-14,59
40.875,6,-28,-7,-21,-15,1,1,54
40.88,-1,20,16,9,9,-4,2,38
40.885,-4,-10,23,5,6,12,35,11
40.89,6,-10,-24,-8,-6,5,-12,10
40.895,-25,-19,-3,-4,0,-9,-30,-84
40.9,5,1,14,-2,-3,-1,30,-54
40.905,9,13,14,-5,-4,-4,-2,-34
40.91,-36,-16,37,-7,-6,-5,-4,-42
40.915,10,8,7,7,4,-7,-22,-24
40.92,5,9,-21,3,-2,11,-9,-5
40.925,4,-17,9,-6,-4,-10,-5,18
40.93,-1,58,6,13,6,0,5,-21
40.935,-9,-20,-9,-7,-7,15,7,9
40.94,0,-6,38,0,-4,-32,-22,10
40.945,9,8,17,7,5,7,28,13
40.95,7,-6,-34,0,-3,3,-54,19
40.955,2,8,19,1,-1,-9,32,-32
40.96,1,10,-2,-2,0,6,18,8
40.965,2,6,1,10,1,-12,-24,-12
40.97,1,3,28,1,-7,-6,4,-41
40.975,-6,8,15,3,4,6,4,4
40.98,-4,-6,0,-4,-1,7,-3,-15
40.985,3,-10,-4,-3,-4,-5,-27,-14
40.99,25,-13,-11,-1,4,5,44,96
40.995,-7,-2,-15,4,1,-3,-7,10
41,-3,9,19,5,4,6,-7,-23
41.005,-2,9,41,6,-2,-2,9,-5
41.01,7,-15,-44,-8,-4,11,-17,31
41.015,-2,-10,14,1,2,-4,19,20
41.02,2,24,-15,8,4,-3,21,2
41.025,-14,-8,-4,-6,-1,-1,4,-7
41.03,11,-3,-20,-4,-1,9,-26,30
41.035,-9,10,34,3,-8,-17,21,37
41.04,-22,11,-2,-10,-8,-3,-26,-18
41.045,-7,-4,-1,-8,-3,-5,3,71
41.05,-7,-10,16,-2,-1,6,21,-70
41.055,15,3,-27,-5,-3,-3,-16,15
41.06,2,11,51,7,3,4,-5,-20
41.065,2,-1,1,-6,-5,-10,10,-3
41.07,-9,-6,-11,-1,1,-8,-21,15
41.075,19,17,0,9,5,19,-10,-5
41.08,-12,-30,-7,-19,-15,-22,11,-25
41.085,-7,1,7,-2,-1,-1,14,-10
41.09,-1,-2,15,1,0,-5,-13,-16
41.095,-14,-18,-16,-10,-10,-1,-21,-23
41.1,14,-5,-16,-2,2,4,0,20
41.105,-3,-11,-14,-2,-3,-11,-10,-17
41.11,-18,-34,-43,-23,-14,-4,15,-10
41.115,3,-12,-7,-2,1,0,-9,28
41.12,-1,-4,-9,2,1,6,0,-8
41.125,-21,-13,-20,-1,-3,-1,1,-78
41.13,7,22,32,8,7,-4,13,51
41.135,16,-4,-2,-3,-1,3,-1,20
41.14,-4,9,-11,6,5,3,-3,-5
41.145,2,2,-8,-1,-4,-7,-1,-11
41.15,-6,-5,0,0,-1,2,-23,-3
41.155,-6,-17,-8,-9,-3,-2,29,-18
41.16,3,7,1,3,3,8,7,-5
41.165,10,14,2,5,6,-1,0,24
41.17,-4,-24,-33,-4,-4,-6,21,-13
41.175,2,13,16,9,6,12,-5,12
41.18,0,-22,1,-6,-8,-14,-8,2
41.185,5,-6,-11,-3,-1,4,-1,-62
41.19,-14,4,18,5,6,5,1,-4
41.195,-3,3,3,-1,-3,-15,-23,-2
41.2,-2,-9,-8,-5,-5,8,24,3
41.205,7,3,8,6,3,0,-22,10
41.21,8,10,9,0,0,-7,6,-10
41.215,-4,-2,-13,-3,-3,-2,-11,-4
41.22,-1,-7,2,-1,-1,0,-8,6
41.225,-9,27,-12,0,1,6,9,24
41.23,8,20,5,-5,0,-5,-12,-7
41.235,-12,-2,-3,-7,-4,-2,12,7
41.24,-7,-7,24,-4,-2,-5,-13,-7
41.245,-5,-10,-3,-5,-6,-1,-1,2
41.25,-1,-10,0,-1,-2,0,-1,-1
41.255,1,3,2,-7,-3,-7,-8,-2
41.26,-4,-6,-10,-1,-1,-1,-4,-6
41.265,-2,-17,6,-4,0,1,3,8
41.27,-4,-2,-8,-12,-7,-4,-4,1
41.275,3,-4,14,3,-3,-3,-1,6
41.28,-1,-38,-21,8,0,-2,-9,-10
41.285,1,6,17,7,10,8,14,17
41.29,-1,-11,-2,0,-3,-6,-6,-4
41.295,-1,2,0,-26,-8,-5,0,-5
41.3,5,9,2,3,-8,-1,-3,1
41.305,-2,-7,-18,12,1,-2,-1,1
41.31,1,2,6,4,3,0,-2,-2
41.315,-9,-6,3,-57,-6,0,-2,-1
41.32,4,9,3,46,0,1,1,3
41.325,-4,-19,-30,4,4,-4,1,4
41.33,-5,26,2,-6,0,3,1,0
41.335,-10,-14,21,33,1,-4,-4,-2
41.34,-20,81,-12,-23,-2,-3,-2,-4
41.345,1,0,36,-48,-17,-2,1,3
41.35,2,-13,-1,24,2,-3,-3,-1
41.355,0,8,-19,-56,-2,2,-1,0
41.36,-6,-25,-5,88,0,-6,-4,-4
41.365,2,-9,-11,-25,1,-3,2,3
41.37,-5,9,29,-37,-12,-3,-3,-1
41.375,6,-6,9,60,5,1,-1,1
41.38,5,-5,46,-41,9,8,2,1
41.385,-2,3,4,49,-3,-7,-4,-1
41.39,1,-12,31,84,10,-3,-2,0
41.395,-13,-28,-94,-18,-7,-7,-7,-7
41.4,-1,-16,-13,-65,-8,-3,-2,-2
41.405,8,27,31,-33,-17,4,3,4
41.41,-16,-17,46,21,-13,-19,-10,-12
41.415,9,16,0,22,18,8,3,6
41.42,-6,-10,-23,49,5,0,-3,-4
41.425,-12,-31,-71,-66,-2,-4,-4,-6
41.43,5,5,2,-38,-6,2,1,2
41.435,6,17,64,52,7,2,4,1
41.44,2,-7,2,-64,-12,-5,-2,1
41.445,-4,1,10,-35,-22,-7,-3,-5
41.45,4,5,8,95,20,6,1,2
41.455,-3,-7,-46,-42,-8,-3,0,1
41.46,-7,-19,-48,-34,-11,-4,-3,-4
41.465,3,6,6,19,9,2,1,2
41.47,4,4,-20,6,6,7,4,5
41.475,-6,-12,18,-4,7,1,-3,-4
41.48,7,16,28,-1,-10,-9,-2,2
41.485,3,2,38,21,-3,0,2,3
41.49,0,-9,-65,46,25,17,2,0
41.495,-8,-18,-63,-70,-27,-11,-3,-3
41.5,13,24,63,83,16,9,4,7
41.505,-2,-2,-64,-61,-3,-3,1,-1
41.51,9,13,12,8,-4,4,5,4
41.515,-12,-24,2,37,1,-6,-8,-8
41.52,4,9,-3,-42,3,4,2,2
41.525,19,28,54,99,17,10,4,8
41.53,-31,-66,-72,-67,-17,-19,-15,-18
41.535,-4,-2,-38,-43,-9,-4,-3,-3
41.54,-3,-10,12,-25,-12,-6,-2,-2
41.545,6,22,27,9,2,4,2,2
41.55,-3,0,58,-49,-6,-2,-2,-2
41.555,2,2,23,32,-3,-2,1,0
41.56,12,30,103,56,20,11,6,8
41.565,-31,-69,-128,-71,-25,-19,-15,-18
41.57,6,17,-19,-47,-18,-3,-3,-1
41.575,-1,5,51,34,8,-2,-2,-1
41.58,-11,-18,-10,-46,-12,-8,-6,-9
41.585,23,46,127,127,48,20,13,15
41.59,-40,-79,-90,-113,-48,-30,-18,-24
41.595,18,35,66,17,8,10,8,9
41.6,4,2,7,4,0,2,0,1
41.605,-13,-22,6,-26,-13,-10,-8,-9
41.61,11,12,52,18,6,7,3,5
41.615,9,42,-41,-9,4,2,2,4
41.62,-7,-40,-67,-10,2,-1,-1,-4
41.625,-3,10,22,-11,-4,-3,-2,-2
41.63,0,21,17,21,1,1,-1,3
41.635,-2,-15,17,12,5,0,-2,-2
41.64,1,-5,-29,14,7,2,0,0
41.645,-4,7,-5,-7,-4,-4,-2,1
41.65,2,12,-20,-21,-5,-1,0,1
41.655,6,7,38,16,0,2,1,4
41.66,-9,-12,-27,21,0,-1,-2,-5
41.665,-8,-23,-8,-61,-16,-9,-4,-6
41.67,5,10,69,15,9,5,4,3
41.675,3,-38,-37,-12,-9,-6,-4,-2
41.68,10,27,18,15,3,2,0,1
41.685,5,-1,-20,15,0,-2,-1,1
41.69,-4,-4,14,-1,-2,-4,-2,-5
41.695,2,5,17,15,4,3,2,1
41.7,-6,-15,-24,-19,-8,-4,-2,-4
41.705,-4,-12,-18,4,2,2,-2,-3
41.71,6,15,14,6,7,4,5,5
41.715,-5,-3,-15,-7,-5,-5,-3,-4
41.72,-9,-13,5,-20,-8,-4,0,-1
41.725,2,7,16,32,9,1,1,-1
41.73,-3,-11,-45,-4,4,1,0,0
41.735,-10,18,4,-14,-5,-2,-3,-4
41.74,3,-6,-20,4,2,0,1,2
41.745,-6,-7,46,-31,-16,-7,-5,-4
41.75,11,1,-3,4,1,1,1,3
41.755,-2,-2,1,8,0,1,-1,-1
41.76,-5,0,-9,-5,-1,-1,-2,-3
41.765,6,14,27,22,9,6,5,5
41.77,-4,-6,-2,-12,-5,-4,-4,-5
41.775,-4,-8,12,-6,-3,-2,-4,-2
41.78,-1,3,22,0,-4,-3,-2,-2
41.785,7,-1,-25,6,4,5,1,2
41.79,-4,16,26,9,0,3,-1,0
41.795,3,-12,8,7,3,3,1,1
41.8,-3,24,15,-2,-2,-3,-3,-3
41.805,-2,-8,-26,-8,-2,-2,0,-3
41.81,1,1,-15,7,2,1,0,-1
41.815,-11,-7,2,0,-1,-2,-3,-4
41.82,4,0,19,5,-1,-1,0,0
41.825,-2,-2,-26,-4,-1,-1,-1,-1
41.83,3,11,30,18,5,2,3,2
41.835,-4,-5,-12,-14,-2,0,0,-1
41.84,-7,-4,3,-20,-14,-5,-3,-1
41.845,-3,7,16,19,10,2,-1,1
41.85,-7,-22,-53,-8,-2,-5,-4,-6
41.855,6,18,62,19,5,4,2,4
41.86,-1,-12,-61,-9,-3,0,-1,-1
41.865,1,-5,20,-18,-13,-5,-1,-3
41.87,3,9,-12,10,4,1,0,2
41.875,5,-9,-7,9,3,1,-1,-1
41.88,-7,-7,12,-12,-1,-3,-4,-2
41.885,5,-27,5,3,-2,0,-3,-2
41.89,-3,-8,0,-6,-2,-2,-2,-3
41.895,1,8,1,-10,-5,-1,0,-3
41.9,5,0,5,10,4,2,2,3
41.905,-2,3,41,29,6,-2,-3,-2
41.91,-3,-10,-26,-24,-5,-1,-2,-1
41.915,-3,-2,-7,-7,-6,-4,-3,-3
41.92,1,-7,22,13,5,1,1,1
41.925,0,22,-1,3,0,-2,-2,-2
41.93,1,2,4,-6,-2,-1,1,3
41.935,-13,-9,-11,-14,-5,-5,-6,-8
41.94,-2,2,3,-3,-1,0,-3,-1
41.945,-3,1,5,-21,-4,-1,0,2
41.95,-2,1,15,32,6,-1,-2,-1
41.955,7,10,14,13,4,2,0,2
41.96,2,1,-16,14,4,2,1,1
41.965,-15,-20,-54,-45,-14,-8,-6,-7
41.97,1,8,36,1,-4,1,-1,0
41.975,2,5,-1,-4,-2,-1,-1,1
41.98,-9,-11,-13,-16,-10,-7,-5,-6
41.985,5,-6,8,6,-3,-2,1,1
41.99,10,49,36,35,13,10,6,7
41.995,-24,-47,-84,-53,-15,-14,-10,-12
42,0,-2,0,-11,-3,-1,-1,0
42.005,3,-4,10,10,1,2,2,1
42.01,-1,-12,-1,-4,-2,-3,-3,-1
42.015,9,16,39,9,1,2,3,5
42.02,0,-3,-6,13,4,1,0,-1
42.025,-7,2,-23,-8,-3,-4,-5,-4
42.03,1,6,16,2,1,0,-1,0
42.035,5,8,9,9,3,1,2,2
42.04,0,-3,19,-9,-3,-2,-1,-2
42.045,1,7,-12,12,3,1,1,1
42.05,-1,-2,-5,-15,-5,-5,-1,-2
42.055,1,-5,12,4,-2,-2,-2,-1
42.06,1,-8,-6,-3,0,-1,-2,-2
42.065,-7,5,-7,13,6,2,0,0
42.07,-9,-13,-18,-41,-12,-9,-5,-7
42.075,-1,-2,-13,0,-1,0,0,0
42.08,1,6,18,14,2,1,0,1
42.085,-6,-11,-39,-19,-4,-3,-4,-3
42.09,2,1,13,8,4,1,0,2
42.095,7,20,63,41,9,5,4,5
42.1,-12,-19,-59,-57,-17,-9,-7,-8
42.105,1,1,10,5,-2,0,2,-1
42.11,0,1,16,10,2,2,0,0
42.115,-5,-13,-18,-12,-6,-3,-2,-3
42.12,2,7,22,31,7,1,0,1
42.125,-6,-1,46,-3,-6,-5,-4,-2
42.13,-2,-13,-28,0,0,-1,-1,-4
42.135,5,17,29,5,6,5,3,2
42.14,-1,-3,-54,-1,0,0,-1,0
42.145,-4,-7,12,-2,-5,-5,-2,-2
42.15,8,-20,19,2,-1,0,0,1
42.155,2,-9,-5,-8,-4,-4,-3,-3
42.16,-1,1,-3,-2,0,-1,-1,-2
42.165,5,8,-3,9,6,5,3,2
42.17,-2,6,32,9,-3,-1,0,-1
42.175,-11,-22,-72,-49,-13,-8,-6,-7
42.18,2,6,41,7,3,0,1,2
42.185,2,-4,-21,2,3,0,-1,2
42.19,-5,1,31,-4,-6,-2,-3,-1
42.195,0,7,15,13,2,2,-2,0
42.2,0,11,1,7,0,-1,0,-2
42.205,2,6,17,-10,-1,0,0,0
42.21,-6,-11,-61,-14,-5,-7,-4,-3
42.215,-1,11,47,15,2,3,-2,0
42.22,-4,-18,-74,-24,-1,-3,1,-5
42.225,2,5,14,7,-1,1,4,0
42.23,-1,2,-18,-3,0,-4,-3,1
42.235,-1,-2,7,5,-4,-6,1,0
42.24,2,9,38,9,2,1,-3,4
42.245,-2,7,23,-1,-3,0,0,-1
42.25,-4,-3,-54,-14,0,1,0,-2
42.255,-1,7,21,12,3,0,-3,-1
42.26,-2,0,18,19,4,1,0,-1
42.265,-5,-12,-51,-29,-6,-5,-5,-4
42.27,-1,3,37,5,-3,1,1,-1
42.275,1,3,-10,4,3,0,0,1
42.28,-2,-7,-11,-5,-2,0,-1,-2
42.285,-3,-8,4,9,-2,-5,-3,-3
42.29,1,8,-7,-11,-1,-2,-3,-1
42.295,-2,-6,-4,-7,-2,-1,-1,0
42.3,-1,2,5,-5,-4,-2,1,-2
42.305,1,1,10,5,-2,0,2,-1
42.31,0,1,16,10,2,2,0,0
42.315,-5,-13,-18,-12,-6,-3,-2,-3
42.32,2,7,22,31,7,1,0,1
42.325,-6,-1,46,-3,-6,-5,-4,-2
42.33,-2,-13,-28,0,0,-1,-1,-4
42.335,-1,-2,-20,-17,0,-2,1,-2
42.34,-2,1,12,-6,-6,-5,-5,-2
42.345,-2,-2,8,2,-2,0,-2,-1
42.35,3,6,11,7,1,1,2,0
42.355,-2,-6,-15,-17,-6,-2,-1,-2
42.36,0,-1,17,12,1,0,-2,-2
42.365,-2,-5,-18,1,0,-3,-1,-1
42.37,1,0,0,11,4,0,0,2
42.375,-3,-1,7,-4,-6,-3,-2,-3
42.38,-4,-3,-8,-20,-8,-2,-1,-1
42.385,1,5,4,2,-2,-2,-2,-1
42.39,-4,-9,-8,-8,-5,-3,-1,-3
42.395,-1,2,6,2,1,0,0,-1
42.4,-4,-9,-1,-3,-3,1,-7,-4
42.405,0,5,-7,-1,-2,-15,6,4
42.41,2,3,-6,5,3,3,2,1
42.415,-4,-8,-13,-1,-2,-2,0,-3
42.42,-1,1,17,0,1,4,-1,-1
42.425,-3,-1,-3,-3,-2,4,-5,-3
42.43,-4,-7,-9,-5,-2,-3,-3,-3
42.435,3,9,12,15,5,3,1,4
42.44,5,5,49,13,2,0,1,2
42.445,-7,-18,-74,-20,-8,-2,-4,-4
42.45,-6,-7,17,-18,-5,-4,-4,-5
42.455,-6,-3,-6,3,0,0,2,-6
42.46,5,3,-3,-4,-3,-4,0,7
42.465,3,2,13,11,6,0,-2,-1
42.47,0,-3,-8,-6,0,1,5,1
42.475,0,-3,-14,-2,3,6,-6,1
42.48,1,-3,0,-1,0,10,-10,2
42.485,-12,-2,14,2,-5,-19,13,-6
42.49,5,8,3,4,-1,-13,-3,-4
42.495,-1,5,16,1,-1,0,2,-3
42.5,0,5,-19,-2,-1,1,7,-4
42.505,13,17,3,3,6,29,-14,11
42.51,-20,-3,11,-3,-2,-8,3,-2
42.515,25,-4,-5,-2,-3,-18,-11,1
42.52,-7,0,-2,-3,-1,2,26,6
42.525,-6,-10,3,-4,-3,-3,-15,-11
42.53,3,7,1,2,-1,7,2,13
42.535,-4,0,-9,1,-2,4,-16,-21
42.54,5,-2,-4,-8,-3,-6,6,13
42.545,-12,-6,7,0,0,-2,2,-36
42.55,-4,-5,-16,-5,-3,-1,4,11
42.555,-21,-21,3,-7,-6,-2,-9,-34
42.56,-3,-6,-13,-10,-4,-6,-15,19
42.565,-7,-14,-5,-5,-3,1,15,10
42.57,25,2,-3,-5,2,-9,-42,6
42.575,-27,1,6,-4,-5,-10,24,-57
42.58,-1,-3,9,-1,1,12,23,10
42.585,4,1,-12,6,4,16,-5,25
42.59,22,1,5,4,0,3,61,41
42.595,-17,-5,10,-5,-4,-7,-48,6
42.6,5,-2,-14,-5,-4,-33,-26,3
42.605,-20,-10,-8,-5,-2,8,53,-12
42.61,-8,-9,-1,-9,-4,6,-41,-41
42.615,11,-3,-10,1,0,8,0,69
42.62,4,0,1,-3,-8,14,-17,-9
42.625,-9,-2,7,-5,-4,-20,7,-16
42.63,15,4,3,6,9,0,24,58
42.635,-12,-13,-10,-5,-2,3,11,-23
42.64,-5,-14,-22,-6,-3,13,-29,-17
42.645,12,7,0,2,-6,-10,-18,1
42.65,-8,-3,11,4,-4,6,3,-29
42.655,4,-12,-37,-16,-9,-19,-27,21
42.66,16,3,21,14,8,-12,18,-22
42.665,-1,20,12,6,3,5,2,21
42.67,10,11,-3,12,10,23,22,14
42.675,-13,21,31,10,4,7,-2,10
42.68,-1,5,-1,0,-4,-21,-9,-32
42.685,9,-4,7,-16,-13,-19,7,14
42.69,-28,-38,8,-39,-27,-44,-56,-33
42.695,9,8,-21,9,7,25,-13,-53
42.7,-13,0,-16,10,11,6,32,-9
42.705,23,33,15,14,14,65,6,81
42.71,-24,9,-18,-3,-15,-58,28,-68
42.715,74,37,4,30,21,-9,-8,29
42.72,-37,-34,10,-23,-31,-33,-19,-36
42.725,7,6,18,18,7,-9,-39,-70
42.73,32,21,10,7,15,39,35,62
42.735,21,29,39,10,14,11,11,-92
42.74,50,15,10,29,17,33,9,51
42.745,-28,-29,-40,-36,-27,-29,-36,-29
42.75,-18,4,7,0,3,6,37,55
42.755,-21,-23,-28,-11,-6,-1,26,-6
42.76,-27,-44,-23,-33,-23,-36,-37,-38
42.765,-4,-30,-2,-14,-9,-18,-7,-32
42.77,-12,-44,-61,-8,0,11,-34,-11
42.775,-7,-9,-21,0,1,20,48,60
42.78,-25,20,0,4,5,2,15,51
42.785,2,3,-3,12,5,-3,2,6
42.79,-6,5,-18,19,8,37,-12,-11
42.795,-8,-7,72,6,8,-23,-17,-63
42.8,6,-3,-11,-5,-2,-1,1,-32
42.805,11,30,-14,2,8,2,1,13
42.81,24,37,45,22,14,21,4,41
42.815,-18,-13,-46,-17,-20,-18,-55,51
42.82,-17,-22,-35,-6,5,6,25,3
42.825,-6,-9,36,-8,-3,-7,25,-18
42.83,-11,-19,-2,-14,-15,-16,-30,-79
42.835,-2,-7,9,-6,-8,-16,-19,-8
42.84,0,4,-11,5,5,4,-11,2
42.845,5,-28,-18,-12,-7,7,24,40
42.85,-36,-13,11,-11,-10,-3,-19,-99
42.855,18,12,19,-1,-3,-24,1,-11
42.86,16,15,29,15,11,21,24,9
42.865,1,20,-7,1,-3,4,-9,-9
42.87,31,8,22,-1,0,-17,-14,30
42.875,-3,-16,-15,-10,-9,11,17,50
42.88,5,4,0,-9,-6,5,4,-50
42.885,-10,-44,-26,-12,-5,-18,-19,-13
42.89,9,6,4,-9,-3,-9,-16,45
42.895,7,15,-6,5,4,21,37,-21
42.9,-11,-34,11,-18,-13,-19,-21,8
42.905,-10,24,10,2,-9,-18,-17,-36
42.91,-20,3,6,10,4,16,28,32
42.915,-13,-10,13,-3,-6,-10,-32,-18
42.92,1,-9,-24,-4,-3,-6,18,80
42.925,18,3,20,5,4,7,-8,-36
42.93,-5,-14,-28,-12,-9,-16,-17,-25
42.935,-6,15,15,4,-1,6,8,17
42.94,-7,14,-25,3,4,8,22,95
42.945,-9,-47,-12,-23,-10,0,-30,-10
42.95,1,0,-10,-9,-5,-6,2,-20
42.955,-8,-5,-12,-1,3,10,11,-11
42.96,2,-8,8,0,3,-2,-33,-51
42.965,-24,-7,31,-6,-16,-19,37,66
42.97,-3,4,12,7,1,-3,-4,-34
42.975,0,-4,-39,-5,-1,3,6,17
42.98,-7,-16,36,-14,-8,-7,0,-58
42.985,8,11,-21,12,9,2,11,46
42.99,-9,-5,-4,-4,-5,-12,-22,-63
42.995,15,18,9,10,4,8,30,35
43,2,60,19,2,-1,4,-15,54
43.005,2,8,1,13,11,12,-8,-12
43.01,-15,-19,6,2,2,3,8,-2
43.015,16,-15,-18,-11,-7,0,-20,19
43.02,-8,14,12,12,10,4,40,-24
43.025,2,5,24,12,3,-4,-14,-40
43.03,3,5,-41,3,-1,4,-10,20
43.035,-14,2,30,3,4,0,6,-90
43.04,0,-1,16,3,-3,-15,-1,-14
43.045,-2,4,1,4,6,6,3,9
43.05,-11,-57,-66,-15,-7,-13,22,10
43.055,-39,-26,3,-11,-13,-13,-29,23
43.06,5,11,9,4,4,16,11,1
43.065,14,14,-1,5,5,4,-12,0
43.07,14,18,4,2,5,13,26,51
43.075,4,-6,-17,-7,-7,-1,-20,57
43.08,1,-4,30,11,6,-6,17,-20
43.085,0,15,3,3,5,10,0,20
43.09,8,16,1,2,2,-8,-9,28
43.095,-8,-7,-14,-10,-5,1,14,21
43.1,25,5,12,5,3,-4,-39,2
43.105,-9,-11,-33,7,7,19,3,-7
43.11,-21,-7,12,-5,-1,-15,7,-76
43.115,13,23,3,4,2,18,33,-9
43.12,4,-12,-21,-9,-11,-14,-10,11
43.125,11,0,-1,2,1,-11,-28,54
43.13,8,4,36,-2,-5,10,-1,10
43.135,-8,-41,15,-2,-6,-22,-14,-3
43.14,-20,-47,-28,-19,-15,-3,-11,-81
43.145,-3,5,33,3,3,-6,-8,6
43.15,1,15,22,11,5,3,7,21
43.155,3,7,-8,7,7,15,7,-27
43.16,5,8,59,3,-2,-9,3,12
43.165,-2,8,3,-5,-6,-9,-9,-53
43.17,-8,-30,-34,-12,-13,-11,-11,-8
43.175,3,16,7,3,6,5,15,-1
43.18,-25,10,-24,2,1,-5,2,20
43.185,3,-14,-50,-19,-10,18,24,24
43.19,15,43,65,19,16,-8,-6,50
43.195,-6,-7,-7,-6,-4,-4,1,26
43.2,10,23,-11,24,11,8,-16,-3
43.205,-8,44,90,12,10,12,36,-36
43.21,-15,3,2,-6,-4,3,-15,-9
43.215,-11,22,4,3,3,-4,-12,-9
43.22,7,-1,-22,6,7,10,19,-9
43.225,3,-20,5,-2,-2,-8,-1,-14
43.23,9,4,-2,-2,-3,-2,-16,-14
43.235,-6,-12,2,-11,-7,1,-19,-13
43.24,-12,3,8,-10,-5,-12,1,8
43.245,9,-17,-17,-1,1,-3,-2,4
43.25,-13,-20,-18,-22,-11,17,38,-2
43.255,-49,-4,38,-7,-5,-27,-33,41
43.26,0,-5,-11,-6,-2,14,4,7
43.265,-18,-44,-45,-26,-24,-26,-9,-17
43.27,13,6,-13,16,13,21,2,25
43.275,6,3,-9,2,-2,-15,4,9
43.28,3,-2,-19,-1,2,18,2,2
43.285,-6,24,14,10,1,-24,-19,-59
43.29,2,6,-7,0,-2,12,-6,-21
43.295,23,-24,0,-1,-1,-23,-52,-5
43.3,-10,8,55,-1,-1,10,55,-22
43.305,-8,11,6,5,-2,-1,13,8
43.31,5,-4,3,-1,-6,-6,-22,-3
43.315,3,8,28,-6,1,6,11,-15
43.32,-2,-10,-13,-4,-4,-4,-19,10
43.325,11,3,5,2,1,8,-15,25
43.33,-3,-18,6,-9,-9,-11,16,1
43.335,1,11,-4,8,1,4,19,0
43.34,15,6,-9,-1,-3,-7,-18,2
43.345,15,-14,7,-6,2,16,14,13
43.35,8,-3,-2,2,1,-14,2,2
43.355,18,10,-15,2,6,11,12,7
43.36,-8,26,-24,-17,-8,0,-9,-2
43.365,3,-2,1,-1,1,-4,6,13
43.37,-3,-4,-4,2,0,1,-6,-2
43.375,-1,-1,-8,-2,-1,16,19,-4
43.38,6,4,10,2,1,-14,-24,-10
43.385,-12,-8,4,-3,-7,-7,1,-1
43.39,-6,9,5,-7,-4,-5,-3,-9
43.395,2,6,2,2,-1,3,10,-1
43.4,0,-30,-16,-5,-3,-2,-12,0
43.405,-3,2,13,1,7,5,-6,1
43.41,-1,-7,12,0,-2,-6,-2,0
43.415,8,-33,-4,0,-3,0,5,-4
43.42,7,-69,6,1,3,1,-5,4
43.425,-3,3,-13,-38,-7,-3,1,0
43.43,3,20,14,25,1,1,-8,0
43.435,-3,8,-11,27,6,-1,8,-3
43.44,-4,-4,5,0,0,-2,-5,-2
43.445,-3,-13,0,-12,-7,-2,-2,1
43.45,0,4,9,-15,-3,-1,-5,-3
43.455,-6,0,11,-12,-1,-1,2,-4
43.46,2,26,-15,12,1,-2,-6,2
43.465,0,6,0,-9,4,5,0,5
43.47,-3,9,18,-45,-14,-4,-3,0
43.475,-7,-8,10,50,0,-3,1,-5
43.48,-1,21,10,27,14,0,-4,1
43.485,-2,-10,-17,-3,-3,0,2,1
43.49,10,-24,-3,-39,-10,-7,-4,-3
43.495,0,16,12,-24,-14,0,5,2
43.5,-8,-8,-10,68,20,5,0,-1
43.505,-2,-5,6,19,11,-2,-4,-4
43.51,-3,-3,1,0,-1,-3,-3,-3
43.515,5,5,-9,-22,-6,-1,0,0
43.52,-4,4,21,-48,-17,-2,-1,0
43.525,-8,-16,-16,19,-2,-7,-6,-6
43.53,-3,7,1,17,10,7,2,0
43.535,4,1,-15,-88,-17,-3,1,1
43.54,2,5,37,30,-15,-5,-1,2
43.545,-2,2,-39,-16,21,4,2,1
43.55,2,8,10,60,8,0,0,0
43.555,-2,-10,48,21,8,2,-1,-1
43.56,11,1,-17,-35,5,5,2,1
43.565,2,4,26,2,-11,-3,-1,0
43.57,-5,-3,-22,-10,4,0,-4,-2
43.575,-2,1,5,-12,0,-3,-4,-2
43.58,2,4,10,-32,-16,-5,-2,-1
43.585,-2,-7,-1,45,-4,-6,-5,-3
43.59,-7,73,16,40,19,6,3,0
43.595,-3,-20,5,-2,-5,-7,-3,-4
43.6,-6,-6,10,-68,-13,-3,-2,-3
43.605,-3,10,-20,29,-10,-4,0,0
43.61,-1,-18,43,14,4,0,-1,-2
43.615,-9,-13,-74,-37,4,-2,-3,-3
43.62,-2,14,1,22,-2,-2,-2,-3
43.625,0,-7,-5,-20,9,3,0,0
43.63,9,6,40,13,-12,2,0,4
43.635,4,26,-38,44,18,10,5,2
43.64,-8,-21,-54,33,14,-7,-7,-8
43.645,3,-5,72,30,8,5,1,1
43.65,2,-38,-18,-40,-16,-10,-5,-5
43.655,2,30,37,13,4,6,4,4
43.66,-2,-8,-18,-64,-18,-5,-2,-1
43.665,24,53,59,70,20,17,6,7
43.67,-29,-84,-77,-85,-45,-30,-18,-19
43.675,10,12,19,-5,0,1,2,5
43.68,1,12,48,37,8,3,0,1
43.685,17,2,17,30,14,10,6,9
43.69,-18,-55,64,-74,-12,-11,-6,-9
43.695,-6,-15,-21,13,-11,-7,-6,-6
43.7,-6,-2,27,16,-2,-6,-4,-3
43.705,-23,23,18,-3,-10,-5,-2,-4
43.71,31,37,7,31,23,17,11,16
43.715,-29,-50,-14,-63,-25,-19,-11,-14
43.72,3,-6,49,1,10,5,-2,0
43.725,5,13,-14,22,-16,-7,-2,2
43.73,-9,9,-24,9,8,1,-1,-3
43.735,23,68,69,55,25,11,9,12
43.74,-5,0,13,-29,-10,-2,-4,-3
43.745,-8,-28,-85,-53,-21,-13,-6,-7
43.75,6,19,-22,67,15,7,2,3
43.755,15,4,32,36,14,8,8,9
43.76,-15,-15,-98,-26,-15,-11,-8,-9
43.765,14,7,-44,18,9,6,3,5
43.77,7,4,63,-29,1,1,0,2
43.775,-3,-13,-31,-34,-17,-3,-1,-2
43.78,-15,3,-34,7,2,-1,1,-2
43.785,-7,-23,23,-40,-5,-3,-1,-4
43.79,10,26,-25,29,10,9,6,5
43.795,4,-73,22,19,3,-4,-5,-3
43.8,9,29,-15,16,9,6,6,5
43.805,2,-18,-9,-51,-7,-3,-1,-2
43.81,-6,-1,-14,-9,-6,-2,0,-2
43.815,-10,-30,43,34,3,-8,-9,-8
43.82,-4,-13,-70,-36,-16,-6,-3,-4
43.825,5,3,-8,-6,0,2,1,1
43.83,-5,-1,-13,9,-2,-3,-3,-4
43.835,-6,23,2,-17,-4,0,-1,-1
43.84,10,4,7,20,9,4,2,3
43.845,-8,14,66,11,5,-2,-3,-3
43.85,-15,-32,-40,-32,-21,-12,-7,-11
43.855,-14,59,-20,-8,-2,0,2,-1
43.86,5,0,39,19,6,1,2,4
43.865,-1,-16,-9,-8,-5,-4,-3,1
43.87,-1,15,-2,3,4,-1,-2,0
43.875,2,-6,-17,-13,4,5,0,0
43.88,-8,-13,-4,-36,-11,-4,-5,-8
43.885,-15,-12,2,1,-6,-9,-5,-5
43.89,7,16,79,44,13,10,4,5
43.895,-5,-7,-44,-6,-8,-7,-2,-4
43.9,10,6,17,4,5,3,5,5
43.905,0,5,11,-22,-10,-6,-4,-3
43.91,-4,3,14,-2,-5,-2,-3,-3
43.915,-2,-9,-12,1,2,3,-1,-3
43.92,3,0,36,17,0,2,1,2
43.925,0,2,-26,-15,2,3,1,0
43.93,-3,-3,-25,-6,-3,-6,-3,-2
43.935,2,-2,8,-4,-3,-2,-2,0
43.94,0,-1,-29,2,2,-1,-2,-1
43.945,-3,1,23,2,-2,-1,0,-2
43.95,-12,35,-11,-4,1,0,0,0
43.955,-4,11,19,-9,-10,-7,-4,-5
43.96,2,-2,22,15,2,2,0,0
43.965,-3,-8,-19,2,-4,-6,-6,-4
43.97,-1,-17,-84,-19,-5,-3,-2,1
43.975,4,-1,13,-3,0,4,2,3
43.98,-8,23,22,4,3,-1,-2,-3
43.985,10,-4,-10,14,10,6,2,2
43.99,4,-14,-3,-13,-3,-1,-1,0
43.995,3,0,1,17,0,-3,0,-1
44,8,-2,-15,8,2,0,2,3
44.005,-13,-26,35,-30,-12,-7,-6,-7
44.01,-1,1,-4,5,2,0,-1,-2
44.015,1,2,2,-1,0,-2,0,0
44.02,4,8,43,15,4,1,2,3
44.025,-13,-19,-59,-39,-11,-5,-4,-5
44.03,8,-6,20,3,0,0,0,0
44.035,1,-7,26,4,3,5,0,-3
44.04,-2,-19,-4,13,-4,-3,-4,-2
44.045,-6,65,2,-16,0,1,2,3
44.05,8,11,72,21,7,4,2,2
44.055,-15,-39,-101,-41,-12,-11,-6,-8
44.06,-6,-5,-1,-12,-8,-7,-4,-4
44.065,7,-8,25,15,2,2,-1,2
44.07,-7,0,26,13,2,0,-2,-1
44.075,4,29,30,6,4,3,3,3
44.08,1,-11,-30,-1,5,1,0,0
44.085,-7,-27,15,-9,-7,-6,-5,-7
44.09,-1,5,-18,5,3,1,0,0
44.095,0,5,15,17,3,3,0,0
44.1,-7,-17,-28,-32,-13,-6,-4,-6
44.105,10,12,19,19,5,4,4,4
44.11,0,4,16,11,3,1,0,1
44.115,-6,-16,-20,-13,-7,-5,-3,-6
44.12,2,-3,-3,-5,0,2,1,1
44.125,-8,2,-9,-7,-8,-4,-3,-4
44.13,2,-6,9,12,-1,0,2,1
44.135,-12,6,-96,-56,-15,-8,-5,-4
44.14,-4,-5,41,9,1,-1,-3,-4
44.145,6,3,-6,3,5,4,1,2
44.15,-1,-17,-50,-3,-1,-3,-2,-1
44.155,11,21,116,53,15,7,3,6
44.16,-7,-10,-97,-32,-5,-4,-2,-6
44.165,-8,-15,-46,-19,-12,-6,-4,-5
44.17,8,21,39,22,11,5,4,3
44.175,1,-3,24,-4,-4,-4,-3,-1
44.18,-4,2,10,32,6,2,-1,1
44.185,-1,-6,23,-8,-1,0,0,-2
44.19,-4,-4,-21,-15,-8,-4,-3,-2
44.195,-1,-11,4,4,-1,0,-1,-1
44.2,7,-8,7,-16,-10,-7,-4,-2
44.205,5,14,-4,22,9,4,4,3
44.21,-4,-8,0,-14,-4,-4,-5,-3
44.215,-7,-13,-43,-9,-3,-3,-3,-3
44.22,3,21,47,19,5,5,2,4
44.225,-5,-23,-18,-11,-5,-5,-6,-5
44.23,0,7,30,-3,-2,-1,1,0
44.235,-9,-20,-53,1,-3,-3,-2,-5
44.24,2,13,49,-4,4,2,2,3
44.245,-2,-4,12,0,0,-3,-1,-2
44.25,-8,-12,-26,-8,-7,-5,-4,-7
44.255,14,23,45,31,11,7,5,7
44.26,-1,-23,15,-13,-7,-4,-3,-3
44.265,-8,11,-77,-12,-5,-2,0,-1
44.27,0,0,14,14,1,-2,0,0
44.275,3,2,1,0,4,3,1,0
44.28,-2,-5,-11,-13,-1,-1,0,-2
44.285,4,2,37,18,4,0,0,1
44.29,-5,-8,-22,-16,-6,-3,-1,-1
44.295,-2,5,7,0,-3,1,-3,0
44.3,0,7,3,9,5,2,6,3
44.305,4,1,4,-2,0,2,0,0
44.31,-4,-2,10,-10,-8,-6,-5,-5
44.315,4,0,10,2,1,0,-2,0
44.32,-5,-7,-15,-8,-4,-4,-4,-2
44.325,-3,0,13,-3,-2,-2,0,-2
44.33,2,-3,-31,-1,3,2,2,3
44.335,-5,-9,-9,-9,-4,-3,-3,-3
44.34,2,10,-10,9,0,0,-2,0
44.345,-2,-12,-24,-1,-3,-3,-3,0
44.35,-8,-9,4,0,2,-1,-4,-3
44.355,0,1,5,-6,-5,-2,1,-1
44.36,0,8,11,0,0,-3,0,-2
44.365,11,18,43,34,13,8,6,4
44.37,-6,-12,-34,-35,-14,-7,-4,-6
44.375,-6,-9,3,-13,-7,-6,-3,-3
44.38,10,-34,0,6,0,-1,-3,-3
44.385,2,9,-15,-14,-3,-2,-2,-1
44.39,4,8,42,14,3,3,1,1
44.395,1,-22,5,7,2,0,2,0
44.4,-9,6,-8,-18,-8,-5,-3,-2
44.405,-2,-5,-5,7,2,2,-1,0
44.41,6,-5,8,-6,-5,-5,-5,-1
44.415,-6,20,-30,-2,0,0,0,-2
44.42,-2,16,-30,-1,0,1,1,4
44.425,-20,11,16,1,0,-1,-3,-5
44.43,6,-68,-33,-20,-2,1,5,5
44.435,-1,15,36,3,-1,-5,-2,-2
44.44,-3,-4,-18,-2,-4,0,-1,-1
44.445,0,4,16,-2,1,1,1,0
44.45,-3,-28,-18,1,-3,-3,-5,-3
44.455,2,-4,-15,4,0,1,-1,1
44.46,-4,5,-1,6,5,2,0,-1
44.465,-4,-26,23,-18,-12,-7,-5,-4
44.47,-2,27,-20,2,2,0,1,0
44.475,1,-6,4,2,2,-1,1,0
44.48,-4,11,9,8,2,1,-3,-1
44.485,3,4,-4,0,0,1,1,0
44.49,2,27,30,9,0,-1,0,0
44.495,0,-29,-4,-5,-6,-2,-3,-4
44.5,15,-13,0,-9,0,0,-1,2
44.505,-6,-2,-14,-4,-1,-3,-2,0
44.51,-7,10,-4,-6,-1,-3,-1,-4
44.515,-6,-6,30,2,-1,-1,-1,-1
44.52,-6,15,-18,-1,-2,-3,-1,-2
44.525,6,9,0,4,3,4,1,0
44.53,-3,3,39,9,-1,-3,-1,0
44.535,-7,-9,-79,-27,-4,-2,-3,-2
44.54,-7,-7,17,1,-3,-3,-2,-5
44.545,-1,1,1,-1,-3,-2,-2,0
44.55,2,13,12,7,2,2,1,-1
44.555,3,5,1,4,-1,-2,-2,0
44.56,0,-3,1,-2,0,1,-1,0
44.565,-2,-11,-20,-4,-2,-2,-2,-2
44.57,1,9,17,4,3,1,-2,-1
44.575,1,0,23,2,-2,-2,-2,-2
44.58,-3,-4,-41,-8,-2,-1,0,-3
44.585,1,-10,7,3,-1,-1,-6,-3
44.59,-5,-28,-8,-6,-4,-5,-5,-1
44.595,16,21,6,1,0,1,7,28
44.6,-13,16,39,9,2,-2,-7,-16
44.605,1,-13,-20,-12,-4,-3,4,5
44.61,-5,2,-26,-4,0,3,-6,-22
44.615,8,-3,3,2,-1,11,1,24
44.62,17,2,11,-2,-7,-15,-2,-5
44.625,-7,-10,11,8,4,-1,-8,-6
44.63,8,8,-25,-11,-5,-5,21,13
44.635,-26,9,9,2,4,2,-6,-29
44.64,11,5,-2,7,1,-1,0,37
44.645,14,1,4,1,1,-7,-5,1
44.65,-3,1,-16,4,3,13,0,-16
44.655,-18,3,15,-3,-5,-11,-12,-4
44.66,20,2,16,4,4,16,17,-4
44.665,-22,-3,-12,-13,-11,-12,-6,-19
44.67,0,7,27,5,4,1,-22,3
44.675,-5,-9,-18,-1,-1,9,20,4
44.68,9,7,-1,-5,-5,-16,1,48
44.685,3,20,41,9,3,6,25,-19
44.69,-16,-5,30,-10,-8,2,-32,-62
44.695,-12,0,-9,0,1,-10,-36,-18
44.7,55,-16,-55,13,13,9,26,51
44.705,-38,-3,46,-22,-17,-29,-11,-67
44.71,24,16,8,10,1,7,16,61
44.715,7,2,-20,-4,-3,-1,36,-34
44.72,-25,8,28,-12,-15,-23,-82,-18
44.725,20,-12,-41,11,12,14,30,40
44.73,-6,-18,-32,-17,-7,-16,32,-5
44.735,24,52,12,8,1,-2,45,42
44.74,-41,-20,28,-7,-9,-16,-34,-15
44.745,4,-5,26,4,10,19,-9,53
44.75,-7,41,-64,22,8,8,78,47
44.755,28,-25,20,-17,-13,-24,-67,113
44.76,-53,13,37,2,-1,-7,-69,-128
44.765,0,-73,0,5,4,68,23,-19
44.77,-10,5,39,-28,-21,-40,17,53
44.775,40,-4,-4,10,7,2,-38,-128
44.78,25,-26,2,-1,-2,-41,57,11
44.785,39,49,-35,7,14,23,16,85
44.79,19,-6,9,4,1,18,3,50
44.795,-38,-16,-3,-18,-12,-2,-42,-49
44.8,-1,2,3,-9,-8,7,-58,13
44.805,-15,35,57,12,1,-44,17,19
44.81,31,3,-18,5,6,-12,5,75
44.815,17,15,-31,8,2,32,9,19
44.82,40,-20,9,-3,8,25,3,86
44.825,-18,18,41,1,-2,-22,28,-68
44.83,-5,7,-32,13,16,31,-4,-2
44.835,-29,1,35,-3,-10,-34,-33,19
44.84,6,0,26,0,5,51,127,-1
44.845,15,15,-28,-1,2,9,-86,-18
44.85,14,-14,48,-10,-14,-34,-28,-44
44.855,-27,14,-53,-1,3,10,-34,-101
44.86,-18,-17,-12,12,5,-4,69,-16
44.865,-16,11,-6,-3,-5,12,19,14
44.87,18,-2,-11,6,5,-5,-41,-128
44.875,9,-2,-5,0,3,13,68,53
44.88,-24,5,6,-1,-3,-4,-26,-23
44.885,-30,-20,-30,-4,-9,-26,-32,5
44.89,-6,-14,-15,-1,3,17,-21,2
44.895,-4,-26,-5,1,-1,-14,-2,8
44.9,15,26,18,-5,3,6,21,-15
44.905,32,-16,-59,10,7,12,-1,42
44.91,-28,-5,-12,-4,1,-1,-9,-12
44.915,-2,8,46,-3,2,9,49,-31
44.92,-21,3,-24,4,3,8,-59,-23
44.925,2,-27,49,-7,-12,-19,5,21
44.93,-20,96,-1,16,15,14,26,45
44.935,-8,-33,-24,-2,0,5,4,19
44.94,18,-14,4,6,-2,-24,-51,26
44.945,15,19,-45,8,13,38,40,-31
44.95,42,-28,54,-8,-15,-29,-50,59
44.955,9,18,18,10,13,12,37,95
44.96,-10,12,-34,-5,-4,8,6,12
44.965,-26,-9,18,-13,-14,-20,-37,-61
44.97,-9,-13,11,0,2,-3,-1,43
44.975,0,-4,14,-1,-3,-11,8,-31
44.98,8,-11,-17,-10,-2,34,12,-30
44.985,0,0,-2,-5,-7,-45,-43,-2
44.99,-43,-30,-14,-3,-4,9,19,-91
44.995,-15,-7,31,-24,-14,-11,15,-10
45,0,-8,-30,1,3,-5,-9,53
45.005,9,43,2,1,0,9,7,3
45.01,6,-20,-12,2,-2,31,-5,30
45.015,-5,-17,9,-2,-12,-45,-40,-81
45.02,-3,-22,17,-8,-5,-21,41,20
45.025,-21,72,0,-5,-5,-11,-22,-93
45.03,-11,-16,-10,-4,-5,2,-25,-20
45.035,-7,2,1,4,2,14,-25,11
45.04,23,0,-10,-4,-8,-6,30,25
45.045,-6,-23,20,-1,0,12,16,-38
45.05,-34,-5,14,-7,-8,-20,-15,-38
45.055,-6,-4,-12,4,1,0,-5,17
45.06,-3,10,-6,5,3,-5,-22,-10
45.065,13,-27,5,-5,-4,4,4,36
45.07,-27,9,5,0,-6,-14,-44,-79
45.075,40,21,65,12,13,3,54,-6
45.08,4,-2,-8,-6,-10,-10,-30,18
45.085,-3,-44,-21,0,-1,6,13,12
45.09,1,24,24,-1,1,9,-5,-15
45.095,9,7,-13,12,4,-7,-2,54
45.1,-53,-5,1,-4,1,16,-33,-99
45.105,0,20,1,0,2,4,25,-33
45.11,16,-8,-4,-4,-4,-28,25,20
45.115,1,5,2,0,2,16,-8,16
45.12,-9,2,11,-5,-4,7,11,4
45.125,-9,-33,-19,-13,-9,-26,-30,-36
45.13,-16,-3,35,-3,-3,1,3,33
45.135,-14,17,-1,2,0,-2,2,-3
45.14,-8,1,-9,0,-3,-2,6,-51
45.145,0,-19,13,-13,-12,-11,-1,46
45.15,-1,11,4,4,7,15,-19,-76
45.155,4,-16,-23,-5,1,4,2,12
45.16,-2,-8,-9,-1,0,-11,5,-2
45.165,-21,8,-16,3,-1,-8,11,21
45.17,5,-9,20,2,6,12,24,26
45.175,-2,-11,-24,-8,-6,6,-23,-1
45.18,7,9,-10,8,6,3,-4,-7
45.185,15,-2,-9,-4,-4,-7,4,13
45.19,-29,12,16,7,9,12,43,61
45.195,-3,15,-23,0,-1,-7,-30,-5
45.2,-19,-30,7,-17,-11,0,10,3
45.205,6,-21,10,-8,-5,-7,-15,16
45.21,17,-4,-26,-4,-5,-2,-16,7
45.215,-19,-29,-40,-3,-2,10,-13,-21
45.22,2,5,12,4,1,-8,0,57
45.225,8,10,7,7,7,-1,11,14
45.23,2,-16,-25,-9,-7,5,-8,-29
45.235,-7,-5,-14,-5,-6,-36,-4,-14
45.24,-5,-12,48,-3,-8,-16,-41,-23
45.245,-5,-12,-21,-4,-2,10,-7,10
45.25,18,-3,-21,4,-2,-10,8,4
45.255,6,-9,-13,5,3,10,-12,22
45.26,5,-2,-26,-2,3,7,22,-4
45.265,4,9,20,4,3,3,-8,22
45.27,-4,-17,-8,-8,-9,-6,-1,0
45.275,2,-11,-28,-5,-2,6,0,-3
45.28,22,8,6,1,4,9,13,-15
45.285,-27,-17,-15,-12,-7,0,8,-33
45.29,-3,20,-25,-2,-1,-23,1,-12
45.295,-2,-5,12,-5,-3,6,21,14
45.3,-10,7,24,-5,-4,-16,-16,0
45.305,10,-6,-12,2,0,14,-23,-5
45.31,-2,5,34,5,1,1,10,21
45.315,-6,-5,-4,-3,-2,4,12,-26
45.32,-22,18,-10,3,0,6,-11,-35
45.325,7,2,12,2,0,-4,2,8
45.33,-3,-2,8,-8,-7,-5,-5,16
45.335,0,5,19,0,0,-3,-8,9
45.34,2,-9,3,-4,-4,-4,10,13
45.345,-2,-4,15,-3,-4,-2,-2,4
45.35,19,2,-32,4,5,5,11,-15
45.355,10,-44,14,2,-5,-2,-5,-7
45.36,8,35,3,-3,-4,-7,-3,15
45.365,2,-3,12,1,-1,-6,1,7
45.37,4,-5,-9,-6,-5,2,-3,-9
45.375,5,10,31,3,2,-2,-3,5
45.38,-2,-12,-12,2,2,2,-2,16
45.385,-4,-1,3,2,1,0,3,4
45.39,1,-6,-6,-1,-3,-1,-9,-7
45.395,2,18,5,0,0,2,5,3
45.4,1,-9,3,-5,-6,-7,1,-18
45.405,-2,1,5,-3,2,1,0,9
45.41,7,-6,-8,-1,-2,-1,-3,-29
45.415,-2,12,9,-1,-2,-4,0,8
45.42,2,2,5,2,0,3,1,7
45.425,-2,-15,-1,0,-4,-4,-7,-4
45.43,-1,2,-5,4,0,4,3,7
45.435,0,-6,17,-4,-3,-3,4,-4
45.44,-1,-24,4,-24,-9,-10,-6,3
45.445,3,18,0,7,-6,-3,-1,4
45.45,-8,-7,0,10,8,2,3,1
45.455,-4,-3,-9,-2,4,2,1,-6
45.46,0,-1,5,13,1,1,-3,7
45.465,-2,7,7,-61,-15,-7,1,0
45.47,-2,-7,-3,17,-10,-3,-5,-1
45.475,-1,2,-8,14,17,3,0,0
45.48,0,3,22,28,12,6,4,6
45.485,-4,-7,-7,-66,-15,-5,-2,-3
45.49,-2,-8,5,48,-7,-7,-6,-1
45.495,-2,0,0,13,7,0,0,2
45.5,-6,16,8,0,-1,-1,0,2
45.505,0,-4,11,5,1,-1,-3,-3
45.51,13,-16,17,-40,-4,-1,-2,4
45.515,-3,11,19,-1,-11,-5,0,-4
45.52,0,-3,0,10,1,3,-2,1
45.525,-5,-16,-10,11,7,0,-2,-4
45.53,-2,-10,4,-12,3,3,1,3
45.535,0,0,5,-36,-9,-1,1,0
45.54,-7,16,-7,12,-2,-2,-2,0
45.545,13,16,5,26,7,3,3,4
45.55,-7,3,0,31,6,-5,-3,-4
45.555,-6,-9,9,-7,0,0,-1,-3
45.56,-6,-12,-13,-95,-22,-9,-6,-2
45.565,-3,-3,3,51,2,0,-2,-3
45.57,3,19,-4,-13,10,5,2,2
45.575,7,21,31,-38,-10,0,0,2
45.58,0,-9,-5,79,18,4,2,1
45.585,-9,-17,-63,-28,5,0,-2,-4
45.59,8,15,14,-45,-3,1,2,4
45.595,0,2,5,45,-7,-5,-3,-2
45.6,6,6,-17,19,9,5,4,4
45.605,-9,-13,-5,-9,-10,-6,-4,-5
45.61,-9,-4,-29,17,-5,-6,-6,-5
45.615,3,0,-22,-51,3,2,3,1
45.62,6,47,71,98,8,5,2,4
45.625,-4,-8,-55,-76,-14,-5,0,-1
45.63,8,9,-9,-49,-7,3,2,5
45.635,-19,-40,-89,41,-9,-11,-10,-12
45.64,-1,-15,54,-47,6,2,0,-1
45.645,5,6,-1,14,6,5,1,1
45.65,-4,-1,5,34,-5,-7,-5,-3
45.655,-9,-12,-66,-48,-7,-3,-1,-3
45.66,9,-1,13,1,5,5,4,4
45.665,2,10,79,30,3,-3,0,-1
45.67,-6,-19,-11,-41,-14,-8,-6,-5
45.675,4,4,40,19,-6,-2,-1,1
45.68,-3,-7,31,-33,-3,1,-2,-3
45.685,-1,-10,-56,15,-15,-7,-1,0
45.69,-8,-25,15,60,18,1,-4,-5
45.695,-18,-5,10,-26,-8,-9,-9,-8
45.7,11,66,-1,1,6,9,8,12
45.705,-9,-11,49,1,-3,-9,-8,-9
45.71,0,35,3,13,-2,-1,2,2
45.715,1,0,-21,-15,0,1,1,-1
45.72,-7,-28,-57,-50,-18,-12,-7,-6
45.725,7,18,36,37,7,5,-1,0
45.73,-3,8,17,-9,2,3,0,-2
45.735,12,78,-28,-12,-6,-3,0,3
45.74,15,25,-14,45,17,11,7,6
45.745,-13,-50,54,-10,-13,-13,-9,-10
45.75,-2,-10,-32,23,6,2,0,0
45.755,3,-28,-8,7,5,6,5,7
45.76,-15,-6,46,-30,-15,-13,-11,-17
45.765,6,21,-55,26,3,2,4,3
45.77,6,6,30,-3,8,7,-2,2
45.775,-3,-27,-45,-12,-7,-3,-5,0
45.78,-22,-27,-118,-25,-14,-12,-7,-10
45.785,1,5,33,30,12,5,-1,-2
45.79,7,23,30,-18,-3,0,5,3
45.795,4,7,69,49,10,6,2,-2
45.8,-10,-54,-27,-39,-15,-9,-7,-6
45.805,10,37,24,12,14,8,6,6
45.81,6,-37,-67,-40,-10,-6,-3,1
45.815,-7,5,78,45,3,-1,0,-4
45.82,-1,-7,53,26,0,-4,-2,-4
45.825,-5,-12,-12,-43,-9,0,1,0
45.83,-6,8,27,5,-1,1,1,1
45.835,7,1,-5,-22,-4,-1,0,3
45.84,-10,23,-41,6,-2,-1,0,1
45.845,-5,-12,-56,0,4,3,-1,0
45.85,-2,-9,96,12,-2,-3,-3,-4
45.855,4,63,3,5,4,3,2,3
45.86,-6,-22,-8,-17,-9,-7,-5,-5
45.865,7,12,2,10,4,0,0,3
45.87,-5,-10,-26,-3,-3,-1,-1,-4
45.875,0,-18,53,23,9,1,1,-3
45.88,5,-11,-30,-24,-5,-1,2,3
45.885,2,15,27,12,-1,2,0,1
45.89,-1,10,-13,7,-4,-2,-1,-2
45.895,2,-9,-9,-24,-1,-2,-1,2
45.9,1,-4,-5,23,9,1,0,0
45.905,-7,-14,-22,-15,-6,-4,-3,-4
45.91,-3,2,-29,-2,2,2,1,0
45.915,1,-26,30,-1,-6,-1,0,-3
45.92,4,13,22,0,-2,0,1,1
45.925,-1,-5,2,-8,-2,-1,0,1
45.93,-5,-14,5,5,-2,-3,-3,-3
45.935,-3,-11,-5,8,1,1,0,-1
45.94,5,-6,-37,-1,3,1,0,0
45.945,-3,0,-10,-19,-5,-3,-4,-3
45.95,9,-17,32,-6,-3,-1,1,1
45.955,2,24,-23,17,6,2,2,4
45.96,-10,-20,43,-11,-3,-3,-3,-5
45.965,-3,-1,1,-8,-4,-2,-1,-1
45.97,-1,-8,-31,-14,-8,-3,-5,-4
45.975,0,-5,14,3,1,-2,-1,-2
45.98,5,0,-4,8,-2,-2,0,3
45.985,0,1,5,-4,-1,-1,-2,-1
45.99,-3,7,11,-9,-1,-3,-1,-2
45.995,-7,-17,-30,-12,-9,-6,-5,-6
46,4,13,24,14,7,4,1,2
46.005,-3,-13,-22,-3,-7,-4,-2,-2
46.01,-2,4,-31,0,-1,0,-1,0
46.015,7,10,34,22,5,4,2,3
46.02,-10,-31,-72,-51,-14,-8,-8,-8
46.025,5,-6,-10,9,2,1,1,3
46.03,-1,-2,16,6,2,-1,0,0
46.035,-1,2,22,-6,1,3,-2,0
46.04,2,-2,7,20,1,-1,0,0
46.045,-1,-2,-24,-3,1,1,1,-1
46.05,0,2,-4,-3,-1,-1,-1,1
46.055,-12,16,-29,-7,-2,-3,-2,-3
46.06,-2,-8,-7,-6,-5,-3,-1,0
46.065,-2,9,14,10,0,-2,-2,-2
46.07,1,3,23,-7,0,-3,1,0
46.075,-5,-27,-35,-18,-6,-4,-3,-4
46.08,9,14,-2,28,7,6,4,5
46.085,-15,7,57,-20,-11,-11,-6,-10
46.09,-6,-12,-28,-7,-4,-1,-4,-4
46.095,2,10,-10,4,1,1,0,2
46.1,2,7,46,3,0,-1,1,0
46.105,1,-11,-12,0,4,2,-1,1
46.11,1,9,10,15,2,2,1,1
46.115,2,-5,13,6,4,0,0,0
46.12,-14,-30,-17,-34,-18,-13,-9,-10
46.125,-2,4,2,7,2,1,1,1
46.13,-5,1,-15,-10,-5,-2,-2,-2
46.135,7,5,23,-1,0,1,1,4
46.14,3,4,12,20,11,5,2,2
46.145,-5,-11,-45,-13,-7,-5,-3,-4
46.15,-2,6,2,1,0,0,-1,0
46.155,-4,-1,-20,-11,-10,-5,-4,-5
46.16,4,-2,35,-6,0,1,0,1
46.165,2,47,11,11,4,3,2,1
46.17,0,1,-20,0,3,1,2,0
46.175,-2,-5,2,0,-3,-4,-2,-2
46.18,-4,-9,-39,-9,-4,-4,-1,-3
46.185,5,1,17,12,6,4,0,3
46.19,-3,-4,-2,-9,-4,-4,-2,-4
46.195,-1,-3,35,-3,-1,-2,-3,-1
46.2,0,2,-24,5,1,2,0,1
46.205,2,-14,6,3,0,-2,-1,-1
46.21,-8,11,7,7,1,2,1,1
46.215,-1,-13,-3,-2,-4,-4,-3,-3
46.22,3,10,41,18,7,4,1,1
46.225,-2,-3,3,0,-2,-2,0,-2
46.23,0,-18,11,-5,-3,-2,-2,-3
46.235,-5,10,-18,-15,-2,1,2,0
46.24,0,14,23,10,0,2,1,2
46.245,-8,-11,-24,-10,-5,-3,-4,-4
46.25,1,-9,17,0,-4,-4,-2,-1
46.255,4,-5,-1,12,5,3,2,0
46.26,-6,-15,-71,-36,-12,-4,-4,-3
46.265,-4,-36,33,-4,-4,-3,-4,-7
46.27,-1,19,-8,4,3,2,0,-1
46.275,-4,-17,-28,-8,-2,-2,-3,-1
46.28,1,-2,12,6,2,0,0,0
46.285,5,1,-3,3,0,0,-1,2
46.29,7,9,32,17,4,3,1,2
46.295,-10,-18,-30,-27,-10,-8,-6,-6
46.3,-3,3,10,-7,-3,-2,-2,-3
46.305,-2,-1,-15,1,1,3,-1,-1
46.31,2,5,16,11,4,0,-1,-1
46.315,3,10,28,14,4,2,2,1
46.32,-4,-13,-43,-18,-8,-5,-4,-5
46.325,2,8,2,-2,-3,-3,-1,0
46.33,2,3,-19,-6,-1,0,0,0
46.335,-3,-11,-6,-3,-3,-1,-4,-5
46.34,-2,8,30,3,-1,-4,-1,-2
46.345,3,10,-8,11,6,3,2,3
46.35,-3,-9,2,-11,-4,-2,-2,-2
46.355,4,7,18,11,2,-1,0,2
46.36,-2,-2,4,-6,-3,-1,-2,-3
46.365,-4,-4,-25,-3,3,1,0,-2
46.37,-2,-3,-7,-2,-3,-4,-3,0
46.375,0,0,18,3,-1,0,-1,3
46.38,-2,-4,3,4,-1,-1,0,1
46.385,3,2,-3,2,0,0,-4,0
46.39,-5,-6,-5,-13,-7,-4,7,-4
46.395,-3,-10,-7,1,-3,7,-18,-5
46.4,0,5,0,6,6,-4,11,5
46.405,3,7,19,0,-4,-8,-4,-7
46.41,-6,-7,-16,-4,-1,1,-20,0
46.415,-4,-1,-25,-2,-1,-1,3,-5
46.42,-4,-1,20,-1,-10,-3,35,5
46.425,-2,-3,6,-14,-13,-33,-29,3
46.43,-3,-2,-11,1,0,5,25,0
46.435,-2,-5,-9,5,17,6,-8,-2
46.44,2,3,1,14,20,25,-9,-4
46.445,-4,-2,13,6,4,-2,-7,-1
46.45,12,0,-7,-10,-12,-2,5,7
46.455,-14,-7,26,-9,-16,-15,-10,-5
46.46,-3,0,19,-2,-8,-7,-11,-2
46.465,2,-2,-12,0,2,13,9,2
46.47,0,-4,6,-5,-5,-3,-12,-6
46.475,3,-1,-6,1,-1,-3,16,-3
46.48,-8,-3,-3,-3,6,10,-3,-8
46.485,20,-8,0,-8,-10,-11,-4,14
46.49,-12,9,15,1,2,-6,11,-7
46.495,-11,-5,-2,-9,-7,-5,13,-14
46.5,26,8,2,6,3,6,-14,16
46.505,-19,-12,-32,-3,4,14,-3,-9
46.51,-26,-25,-3,-6,-3,-3,2,-24
46.515,6,12,-4,0,2,3,15,27
46.52,6,-2,-6,-4,-9,-20,-36,56
46.525,3,8,41,11,4,-4,10,5
46.53,-8,1,-4,1,5,6,-14,-47
46.535,19,1,-19,4,-1,-12,25,23
46.54,-42,-17,-9,-6,-6,3,-25,-39
46.545,-14,-4,27,2,0,-5,10,-24
46.55,-3,-19,-26,-7,-5,3,-22,-11
46.555,-8,4,4,1,1,20,1,1
46.56,30,3,9,-5,-3,-37,27,-24
46.565,-19,9,9,1,-3,-10,-6,-26
46.57,15,-11,-16,-8,0,9,-21,34
46.575,11,11,30,5,1,-25,-15,-23
46.58,0,6,18,2,0,20,-9,-24
46.585,-15,8,1,-2,1,17,34,-40
46.59,29,-1,40,0,-7,-25,52,71
46.595,-17,-6,-49,16,14,39,3,-43
46.6,5,23,47,2,4,-21,-45,8
46.605,2,-16,-6,-6,-10,-19,-43,-16
46.61,22,-10,-44,22,13,21,26,20
46.615,18,25,68,2,2,-36,-12,61
46.62,0,-9,-23,4,1,6,95,-41
46.625,13,7,-59,-1,1,32,54,97
46.63,-22,43,88,20,20,-20,-58,-67
46.635,-14,-13,-18,-3,-7,11,-42,73
46.64,-53,-52,-52,-17,-19,38,41,-8
46.645,30,61,95,20,12,-52,-7,-26
46.65,-17,-34,-27,-30,-17,25,-10,35
46.655,-2,-8,27,-19,-18,-15,26,-31
46.66,12,42,31,15,14,-25,-13,58
46.665,2,-35,-50,-13,-9,38,-4,82
46.67,-13,0,-35,-29,-16,-2,-19,7
46.675,-12,-9,-7,5,11,19,-7,-62
46.68,3,25,62,-5,-11,1,17,-10
46.685,0,-13,-39,-17,-16,11,-12,-71
46.69,43,26,0,15,30,62,-31,6
46.695,18,11,-9,12,3,-53,82,17
46.7,-14,-37,-31,7,15,-10,-111,-56
46.705,7,-4,12,3,6,-8,46,-4
46.71,-21,-18,20,-1,-10,27,-7,-28
46.715,10,9,11,-12,-5,19,3,6
46.72,1,-29,-17,-20,-18,-23,-23,-6
46.725,-8,16,5,-9,-7,2,-14,16
46.73,-9,35,-17,9,6,-11,-57,81
46.735,-3,-30,14,-12,-4,1,68,-14
46.74,3,20,13,10,3,-14,-7,7
46.745,16,-20,0,6,10,63,45,-8
46.75,26,-4,0,0,-3,-77,-14,13
46.755,-29,-9,-37,-11,-2,17,-92,-23
46.76,-25,17,6,2,2,-20,-4,27
46.765,-14,-9,-32,0,5,4,25,-47
46.77,4,-2,-21,-3,-8,-14,16,-40
46.775,-25,18,4,1,2,62,-27,-57
46.78,10,-9,15,-4,-8,-55,31,16
46.785,-8,-11,-6,-2,0,-2,-13,-33
46.79,-2,-8,-5,-7,0,6,54,16
46.795,-1,-32,-3,-4,-9,-17,-28,13
46.8,-3,15,-19,0,3,50,-1,-37
46.805,-48,-63,-33,-30,-17,-39,-30,-19
46.81,-20,-2,3,4,-4,-14,-32,-54
46.815,11,20,-9,18,5,15,26,13
46.82,0,32,-6,13,16,17,40,38
46.825,48,34,74,11,4,-28,-24,4
46.83,0,-8,-13,-7,-9,11,32,-18
46.835,-3,-28,-13,-17,-15,-22,-45,8
46.84,-3,-11,1,-8,-11,-16,6,-34
46.845,-18,3,-11,5,-1,10,-35,43
46.85,7,9,2,4,5,-5,48,67
46.855,33,34,22,19,8,-13,-42,-31
46.86,2,-18,7,-10,-6,21,5,48
46.865,25,14,13,11,9,9,24,34
46.87,-39,-27,11,-6,-16,-32,-41,15
46.875,4,-2,-13,-2,2,-1,-16,24
46.88,7,-11,4,-3,-3,-2,-11,8
46.885,5,-27,-16,-7,0,-16,-9,6
46.89,-16,-3,-23,-11,-11,18,29,52
46.895,9,18,29,1,2,-8,4,15
46.9,-22,3,0,7,0,4,2,-46
46.905,13,13,-2,12,3,1,-36,15
46.91,9,2,-4,4,0,-18,-3,-15
46.915,-21,-31,-5,-24,-12,9,17,-12
46.92,25,0,31,4,3,-8,14,25
46.925,-11,10,-8,-1,-2,-3,11,13
46.93,-34,-18,-5,-9,-10,15,14,-111
46.935,-11,12,27,7,7,-14,-8,9
46.94,6,-3,-4,0,-5,-1,-30,-21
46.945,-14,-15,4,-10,-7,-5,-19,-3
46.95,0,22,25,14,12,15,10,-70
46.955,2,1,4,1,0,-14,26,56
46.96,1,-1,-18,-3,-4,44,-21,19
46.965,-51,1,6,3,4,-40,14,0
46.97,-4,-13,-15,-6,-7,-11,7,-9
46.975,5,6,-1,-2,-3,-1,-18,57
46.98,-7,-4,2,-3,-1,-6,-3,-13
46.985,17,8,3,-3,-9,14,25,10
46.99,26,4,23,-1,-2,-10,-34,10
46.995,3,13,7,3,6,1,35,-8
47,8,-3,-25,3,6,16,-20,-39
47.005,8,6,0,2,-1,-2,1,-4
47.01,5,5,18,-1,2,1,1,9
47.015,14,-14,-21,-7,-11,6,-10,-30
47.02,-15,1,-2,4,-3,-23,-2,-32
47.025,0,-17,-5,1,3,-1,27,6
47.03,4,3,11,-1,-3,-8,-31,7
47.035,4,-17,-11,-16,-9,-11,-9,-8
47.04,-13,4,-6,-4,2,11,-25,44
47.045,-1,-4,8,3,2,10,40,-7
47.05,-10,-13,-23,-4,1,0,-5,19
47.055,-10,-11,12,1,-2,5,6,0
47.06,-15,-26,-22,-16,-9,-7,-19,-3
47.065,-25,-4,12,-8,-13,-8,-15,-27
47.07,10,2,-9,1,2,-1,-4,-1
47.075,2,-1,4,3,1,-20,-8,-3
47.08,3,0,12,-4,-2,-1,50,10
47.085,10,-1,-7,1,-4,3,-38,-4
47.09,3,2,-9,-4,-1,3,1,-3
47.095,-20,5,-7,-4,-2,-1,7,-26
47.1,36,11,-4,5,3,-11,-15,39
47.105,-6,22,9,7,5,9,10,1
47.11,-7,7,22,-5,-9,-12,15,-65
47.115,8,5,3,-1,0,0,2,8
47.12,-1,0,-3,1,2,2,0,-7
47.125,4,12,-11,9,7,18,-13,1
47.13,-3,-6,-8,0,-2,-14,2,-3
47.135,-3,0,-18,-5,-4,-1,-30,44
47.14,21,8,9,-1,-6,-6,39,-53
47.145,8,-1,-19,-4,-3,-4,-22,-1
47.15,4,-11,-8,6,5,5,20,24
47.155,-5,29,5,-4,0,5,-16,-13
47.16,6,4,-7,1,2,12,-9,27
47.165,-4,-13,-11,-8,-5,-18,-14,4
47.17,11,2,5,4,5,6,15,19
47.175,-1,-20,7,4,1,5,14,-13
47.18,-10,-12,-14,-4,-3,2,-2,-6
47.185,5,46,4,-2,0,-5,-3,-6
47.19,-1,4,-3,-1,-3,-3,-19,20
47.195,-10,-20,-7,-12,-9,-15,23,-20
47.2,-14,-4,6,-5,-4,-5,0,0
47.205,-2,-21,-3,-4,-2,4,-15,2
47.21,5,3,-2,1,1,-4,-4,9
47.215,3,15,1,15,7,7,-4,-14
47.22,2,3,16,2,3,0,2,7
47.225,-6,-9,-10,-8,-4,-4,-3,2
47.23,-4,-1,2,-5,-3,-1,-6,-4
47.235,0,23,-7,-5,-1,5,4,-9
47.24,-1,-2,-1,-15,-9,-7,3,10
47.245,-3,-15,11,24,3,-4,-12,-5
47.25,0,16,8,9,8,7,7,4
47.255,3,-11,-8,4,1,3,-1,-4
47.26,-2,0,5,-1,2,-3,-2,6
47.265,0,-1,12,-15,-7,-1,-7,1
47.27,-1,-12,2,-2,-4,-1,5,-1
47.275,2,-5,3,0,2,-3,-4,0
47.28,-1,4,5,4,0,-1,0,1
47.285,4,-7,6,-4,0,5,0,0
47.29,-1,-1,-4,-3,-3,-4,-3,0
47.295,-3,-12,10,-8,-4,-6,-7,-7
47.3,-9,-14,4,-6,-5,-2,-1,0
47.305,-4,-14,-21,-12,-9,-3,-2,-4
47.31,3,5,6,-1,2,1,-2,2
47.315,-2,1,-1,-2,-4,-6,-4,-5
47.32,6,0,-4,7,3,1,1,3
47.325,-4,-1,-2,-10,-5,-4,-1,-1
47.33,-7,-12,-10,-8,-5,-4,-5,-4
47.335,1,0,5,2,-1,2,1,-3
47.34,1,-21,11,1,-1,-6,-4,0
47.345,4,6,8,-3,2,2,0,2
47.35,5,9,-3,-25,-4,3,3,3
47.355,-6,-8,9,34,0,-4,-3,-4
47.36,-6,-4,-3,4,5,0,-1,-2
47.365,-1,-8,9,3,-1,-1,-3,-3
47.37,-1,-6,8,-19,-8,-3,-2,-2
47.375,1,9,18,4,-6,-2,-1,-3
47.38,5,9,-7,-8,4,4,1,3
47.385,-3,-7,30,13,-2,-3,-2,-2
47.39,-1,3,-13,25,5,-1,-3,0
47.395,-8,3,-30,-31,-4,-3,0,-1
47.4,1,-9,-6,-3,-8,-5,-1,-3
47.405,7,-19,-1,-16,0,1,0,0
47.41,-5,-5,5,9,-5,-4,-1,-3
47.415,-1,-5,13,28,6,3,1,0
47.42,-4,-6,-12,-2,-1,-2,-3,-2
47.425,-1,3,2,-8,0,1,-2,0
47.43,0,-4,26,-10,-4,-3,-2,-2
47.435,3,-9,4,-35,-12,-4,-2,-1
47.44,-1,10,8,38,1,1,2,0
47.445,3,12,-2,13,12,7,3,2
47.45,-9,-7,-24,-2,0,-2,-4,-4
47.455,4,-1,22,-36,-2,-2,-2,-3
47.46,0,-1,-13,-33,-16,-1,0,2
47.465,-14,-5,4,43,-12,-16,-9,-10
47.47,6,10,8,6,17,8,3,4
47.475,1,-2,-18,18,5,-1,0,-2
47.48,-5,-12,-41,-51,-10,-6,-4,-3
47.485,-1,12,2,25,-1,-1,-1,-1
47.49,5,2,10,24,5,3,0,3
47.495,-3,0,-4,-23,-11,-5,-2,-3
47.5,6,18,37,10,6,4,4,2
47.505,-12,-13,-16,26,10,2,-4,-6
47.51,-18,4,-79,-67,-10,-8,-3,-3
47.515,2,14,14,-27,-2,3,2,2
47.52,-3,5,15,62,2,-3,-3,-1
47.525,4,2,0,-9,0,1,3,4
47.53,15,14,47,-78,-14,7,6,6
47.535,-10,-24,-44,98,7,-5,-8,-7
47.54,-10,-6,-71,-44,16,2,-2,-5
47.545,10,10,31,8,12,6,6,6
47.55,-7,-12,12,-20,-9,-6,-4,-6
47.555,11,32,76,-20,-9,5,5,5
47.56,-1,-18,-20,-33,-19,-7,-4,-2
