0.005,-5.0,0.0,6.0,5.0,6.0,2.0,2.0,2.0,0.154296875,-0.19256591796875,0.9068603515625,-0.34149169921875,0.1845703125,-0.42822265625,0.91259765625,-28.375,14.5,-21.0625
0.01,-5.0,0.0,6.0,5.0,6.0,2.0,2.0,2.0,0.154296875,-0.19256591796875,0.9068603515625,-0.34149169921875,0.1845703125,-0.42822265625,0.91259765625,-28.375,14.5,-21.0625
0.015,-2.0,1.0,-4.0,-16.0,-1.0,-1.0,-1.0,-5.0,0.154296875,-0.19256591796875,0.9068603515625,-0.34149169921875,0.1845703125,-0.42822265625,0.91259765625,-28.375,14.5,-21.0625
0.02,1.0,-2.0,-5.0,2.0,-3.0,-2.0,-1.0,-1.0,0.154296875,-0.19256591796875,0.9068603515625,-0.34149169921875,0.1845703125,-0.42822265625,0.91259765625,-28.375,14.5,-21.0625
0.025,1.0,-2.0,-5.0,2.0,-3.0,-2.0,-1.0,-1.0,0.1536865234375,-0.19720458984375,0.90765380859375,-0.33709716796875,0.14404296875,-0.45458984375,0.92138671875,-28.0,17.1875,-19.5
0.030000000000000002,1.0,-2.0,-5.0,2.0,-3.0,-2.0,-1.0,-1.0,0.1536865234375,-0.19720458984375,0.90765380859375,-0.33709716796875,0.14404296875,-0.45458984375,0.92138671875,-28.0,17.1875,-19.5
0.035,0.0,1.0,0.0,-1.0,-4.0,0.0,-2.0,0.0,0.1536865234375,-0.19720458984375,0.90765380859375,-0.33709716796875,0.14404296875,-0.45458984375,0.92138671875,-28.0,17.1875,-19.5
0.04,0.0,1.0,0.0,-1.0,-4.0,0.0,-2.0,0.0,0.1536865234375,-0.19720458984375,0.90765380859375,-0.33709716796875,0.14404296875,-0.45458984375,0.92138671875,-28.0,17.1875,-19.5
0.045,0.0,-3.0,-6.0,-17.0,-3.0,1.0,0.0,-2.0,0.1527099609375,-0.20086669921875,0.90838623046875,-0.33331298828125,0.1484375,-0.47216796875,0.90283203125,-20.3125,17.3125,-16.875
0.049999999999999996,0.0,-3.0,-6.0,-17.0,-3.0,1.0,0.0,-2.0,0.1527099609375,-0.20086669921875,0.90838623046875,-0.33331298828125,0.1484375,-0.47216796875,0.90283203125,-20.3125,17.3125,-16.875
0.05499999999999999,0.0,-3.0,-6.0,-17.0,-3.0,1.0,0.0,-2.0,0.1527099609375,-0.20086669921875,0.90838623046875,-0.33331298828125,0.1484375,-0.47216796875,0.90283203125,-20.3125,17.3125,-16.875
0.05999999999999999,-2.0,-1.0,3.0,13.0,5.0,0.0,1.0,-4.0,0.1527099609375,-0.20086669921875,0.90838623046875,-0.33331298828125,0.1484375,-0.47216796875,0.90283203125,-20.3125,17.3125,-16.875
0.06499999999999999,-2.0,-1.0,3.0,13.0,5.0,0.0,1.0,-4.0,0.1527099609375,-0.20086669921875,0.90838623046875,-0.33331298828125,0.1484375,-0.47216796875,0.90283203125,-20.3125,17.3125,-16.875
0.06999999999999999,-2.0,-1.0,-3.0,-14.0,-14.0,-9.0,-7.0,-6.0,0.1514892578125,-0.204345703125,0.909423828125,-0.3289794921875,0.1484375,-0.4794921875,0.8818359375,-18.6875,19.0,-19.75
0.075,-2.0,-1.0,-3.0,-14.0,-14.0,-9.0,-7.0,-6.0,0.1514892578125,-0.204345703125,0.909423828125,-0.3289794921875,0.1484375,-0.4794921875,0.8818359375,-18.6875,19.0,-19.75
0.08,-2.0,-1.0,-3.0,-14.0,-14.0,-9.0,-7.0,-6.0,0.1514892578125,-0.204345703125,0.909423828125,-0.3289794921875,0.1484375,-0.4794921875,0.8818359375,-18.6875,19.0,-19.75
0.085,-2.0,-1.0,-3.0,-14.0,-14.0,-9.0,-7.0,-6.0,0.1514892578125,-0.204345703125,0.909423828125,-0.3289794921875,0.1484375,-0.4794921875,0.8818359375,-18.6875,19.0,-19.75
0.09000000000000001,-14.0,-3.0,-3.0,-5.0,-3.0,-3.0,-4.0,-12.0,0.1514892578125,-0.204345703125,0.909423828125,-0.3289794921875,0.1484375,-0.4794921875,0.8818359375,-18.6875,19.0,-19.75
0.09500000000000001,-14.0,-3.0,-3.0,-5.0,-3.0,-3.0,-4.0,-12.0,0.1514892578125,-0.204345703125,0.909423828125,-0.3289794921875,0.1484375,-0.4794921875,0.8818359375,-18.6875,19.0,-19.75
0.10000000000000002,-14.0,-3.0,-3.0,-5.0,-3.0,-3.0,-4.0,-12.0,0.14971923828125,-0.20745849609375,0.91070556640625,-0.32421875,0.12841796875,-0.4931640625,0.87646484375,-14.4375,21.3125,-23.25
0.10500000000000002,-14.0,-3.0,-3.0,-5.0,-3.0,-3.0,-4.0,-12.0,0.14971923828125,-0.20745849609375,0.91070556640625,-0.32421875,0.12841796875,-0.4931640625,0.87646484375,-14.4375,21.3125,-23.25
0.11000000000000003,-3.0,-3.0,-1.0,-33.0,-4.0,0.0,0.0,-1.0,0.14971923828125,-0.20745849609375,0.91070556640625,-0.32421875,0.12841796875,-0.4931640625,0.87646484375,-14.4375,21.3125,-23.25
0.11500000000000003,-3.0,-3.0,-1.0,-33.0,-4.0,0.0,0.0,-1.0,0.14971923828125,-0.20745849609375,0.91070556640625,-0.32421875,0.12841796875,-0.4931640625,0.87646484375,-14.4375,21.3125,-23.25
0.12000000000000004,1.0,-4.0,-10.0,-12.0,-3.0,-3.0,-1.0,1.0,0.14715576171875,-0.2083740234375,0.91229248046875,-0.3203125,0.12451171875,-0.50048828125,0.8798828125,-0.1875,20.1875,-20.0625
0.12500000000000003,1.0,-4.0,-10.0,-12.0,-3.0,-3.0,-1.0,1.0,0.14715576171875,-0.2083740234375,0.91229248046875,-0.3203125,0.12451171875,-0.50048828125,0.8798828125,-0.1875,20.1875,-20.0625
0.13000000000000003,1.0,-4.0,-10.0,-12.0,-3.0,-3.0,-1.0,1.0,0.14715576171875,-0.2083740234375,0.91229248046875,-0.3203125,0.12451171875,-0.50048828125,0.8798828125,-0.1875,20.1875,-20.0625
0.13500000000000004,1.0,-4.0,-10.0,-12.0,-3.0,-3.0,-1.0,1.0,0.14715576171875,-0.2083740234375,0.91229248046875,-0.3203125,0.12451171875,-0.50048828125,0.8798828125,-0.1875,20.1875,-20.0625
0.14000000000000004,-2.0,-3.0,-7.0,-10.0,-2.0,-1.0,-1.0,1.0,0.14715576171875,-0.2083740234375,0.91229248046875,-0.3203125,0.12451171875,-0.50048828125,0.8798828125,-0.1875,20.1875,-20.0625
0.14500000000000005,-2.0,-3.0,-7.0,-10.0,-2.0,-1.0,-1.0,1.0,0.14715576171875,-0.2083740234375,0.91229248046875,-0.3203125,0.12451171875,-0.50048828125,0.8798828125,-0.1875,20.1875,-20.0625
0.15000000000000005,0.0,-4.0,0.0,34.0,-4.0,-5.0,-4.0,-3.0,0.14471435546875,-0.2078857421875,0.91387939453125,-0.31732177734375,0.134765625,-0.48193359375,0.8525390625,7.5,17.0,-16.0625
0.15500000000000005,0.0,-4.0,0.0,34.0,-4.0,-5.0,-4.0,-3.0,0.14471435546875,-0.2078857421875,0.91387939453125,-0.31732177734375,0.134765625,-0.48193359375,0.8525390625,7.5,17.0,-16.0625
0.16000000000000006,0.0,-4.0,0.0,34.0,-4.0,-5.0,-4.0,-3.0,0.14471435546875,-0.2078857421875,0.91387939453125,-0.31732177734375,0.134765625,-0.48193359375,0.8525390625,7.5,17.0,-16.0625
0.16500000000000006,0.0,-4.0,0.0,34.0,-4.0,-5.0,-4.0,-3.0,0.14471435546875,-0.2078857421875,0.91387939453125,-0.31732177734375,0.134765625,-0.48193359375,0.8525390625,7.5,17.0,-16.0625
0.17000000000000007,6.0,-1.0,-4.0,12.0,0.0,0.0,-1.0,-1.0,0.14471435546875,-0.2078857421875,0.91387939453125,-0.31732177734375,0.134765625,-0.48193359375,0.8525390625,7.5,17.0,-16.0625
0.17500000000000007,6.0,-1.0,-4.0,12.0,0.0,0.0,-1.0,-1.0,0.14471435546875,-0.2078857421875,0.91387939453125,-0.31732177734375,0.134765625,-0.48193359375,0.8525390625,7.5,17.0,-16.0625
0.18000000000000008,6.0,-1.0,-4.0,12.0,0.0,0.0,-1.0,-1.0,0.1427001953125,-0.20782470703125,0.915283203125,-0.3140869140625,0.1220703125,-0.455078125,0.84423828125,2.75,15.1875,-17.4375
0.18500000000000008,-2.0,-3.0,-2.0,7.0,-3.0,-3.0,-3.0,-7.0,0.1427001953125,-0.20782470703125,0.915283203125,-0.3140869140625,0.1220703125,-0.455078125,0.84423828125,2.75,15.1875,-17.4375
0.19000000000000009,-2.0,-3.0,-2.0,7.0,-3.0,-3.0,-3.0,-7.0,0.1427001953125,-0.20782470703125,0.915283203125,-0.3140869140625,0.1220703125,-0.455078125,0.84423828125,2.75,15.1875,-17.4375
0.1950000000000001,-2.0,-3.0,-2.0,7.0,-3.0,-3.0,-3.0,-7.0,0.1427001953125,-0.20782470703125,0.915283203125,-0.3140869140625,0.1220703125,-0.455078125,0.84423828125,2.75,15.1875,-17.4375
0.2000000000000001,5.0,0.0,1.0,1.0,4.0,1.0,1.0,4.0,0.14111328125,-0.20928955078125,0.91632080078125,-0.310791015625,0.10791015625,-0.45068359375,0.853515625,-6.875,14.5625,-16.4375
0.2050000000000001,5.0,0.0,1.0,1.0,4.0,1.0,1.0,4.0,0.14111328125,-0.20928955078125,0.91632080078125,-0.310791015625,0.10791015625,-0.45068359375,0.853515625,-6.875,14.5625,-16.4375
0.2100000000000001,5.0,0.0,1.0,1.0,4.0,1.0,1.0,4.0,0.14111328125,-0.20928955078125,0.91632080078125,-0.310791015625,0.10791015625,-0.45068359375,0.853515625,-6.875,14.5625,-16.4375
0.2150000000000001,-4.0,-1.0,-7.0,-21.0,-1.0,-1.0,-1.0,-1.0,0.14111328125,-0.20928955078125,0.91632080078125,-0.310791015625,0.10791015625,-0.45068359375,0.853515625,-6.875,14.5625,-16.4375
0.2200000000000001,-4.0,-1.0,-7.0,-21.0,-1.0,-1.0,-1.0,-1.0,0.14111328125,-0.20928955078125,0.91632080078125,-0.310791015625,0.10791015625,-0.45068359375,0.853515625,-6.875,14.5625,-16.4375
0.22500000000000012,-4.0,-1.0,-7.0,-21.0,-1.0,-1.0,-1.0,-1.0,0.14111328125,-0.20928955078125,0.91632080078125,-0.310791015625,0.10791015625,-0.45068359375,0.853515625,-6.875,14.5625,-16.4375
0.23000000000000012,-2.0,-2.0,-8.0,-11.0,2.0,0.0,0.0,-1.0,0.1400146484375,-0.2122802734375,0.916748046875,-0.30792236328125,0.10107421875,-0.4716796875,0.84521484375,-14.875,13.6875,-12.8125
0.23500000000000013,-2.0,-2.0,-8.0,-11.0,2.0,0.0,0.0,-1.0,0.1400146484375,-0.2122802734375,0.916748046875,-0.30792236328125,0.10107421875,-0.4716796875,0.84521484375,-14.875,13.6875,-12.8125
0.24000000000000013,-2.0,-2.0,-8.0,-11.0,2.0,0.0,0.0,-1.0,0.1400146484375,-0.2122802734375,0.916748046875,-0.30792236328125,0.10107421875,-0.4716796875,0.84521484375,-14.875,13.6875,-12.8125
0.24500000000000013,-2.0,-2.0,-8.0,-11.0,2.0,0.0,0.0,-1.0,0.1400146484375,-0.2122802734375,0.916748046875,-0.30792236328125,0.10107421875,-0.4716796875,0.84521484375,-14.875,13.6875,-12.8125
0.2500000000000001,-6.0,-2.0,5.0,40.0,-2.0,-4.0,-2.0,-1.0,0.1400146484375,-0.2122802734375,0.916748046875,-0.30792236328125,0.10107421875,-0.4716796875,0.84521484375,-14.875,13.6875,-12.8125
0.2550000000000001,-6.0,-2.0,5.0,40.0,-2.0,-4.0,-2.0,-1.0,0.1400146484375,-0.2122802734375,0.916748046875,-0.30792236328125,0.10107421875,-0.4716796875,0.84521484375,-14.875,13.6875,-12.8125
0.2600000000000001,-6.0,-2.0,5.0,40.0,-2.0,-4.0,-2.0,-1.0,0.13916015625,-0.21588134765625,0.91705322265625,-0.3050537109375,0.09033203125,-0.498046875,0.853515625,-18.0,12.6875,-13.0625
0.2650000000000001,-6.0,-2.0,5.0,40.0,-2.0,-4.0,-2.0,-1.0,0.13916015625,-0.21588134765625,0.91705322265625,-0.3050537109375,0.09033203125,-0.498046875,0.853515625,-18.0,12.6875,-13.0625
0.27000000000000013,13.0,-2.0,-5.0,-1.0,-13.0,-7.0,-6.0,1.0,0.13916015625,-0.21588134765625,0.91705322265625,-0.3050537109375,0.09033203125,-0.498046875,0.853515625,-18.0,12.6875,-13.0625
0.27500000000000013,13.0,-2.0,-5.0,-1.0,-13.0,-7.0,-6.0,1.0,0.13916015625,-0.21588134765625,0.91705322265625,-0.3050537109375,0.09033203125,-0.498046875,0.853515625,-18.0,12.6875,-13.0625
0.28000000000000014,-2.0,0.0,-1.0,-16.0,0.0,4.0,3.0,-1.0,0.1385498046875,-0.21978759765625,0.91729736328125,-0.3017578125,0.07958984375,-0.5126953125,0.8408203125,-19.625,11.8125,-15.5625
0.28500000000000014,-2.0,0.0,-1.0,-16.0,0.0,4.0,3.0,-1.0,0.1385498046875,-0.21978759765625,0.91729736328125,-0.3017578125,0.07958984375,-0.5126953125,0.8408203125,-19.625,11.8125,-15.5625
0.29000000000000015,-2.0,0.0,-1.0,-16.0,0.0,4.0,3.0,-1.0,0.1385498046875,-0.21978759765625,0.91729736328125,-0.3017578125,0.07958984375,-0.5126953125,0.8408203125,-19.625,11.8125,-15.5625
0.29500000000000015,-2.0,0.0,-1.0,-16.0,0.0,4.0,3.0,-1.0,0.1385498046875,-0.21978759765625,0.91729736328125,-0.3017578125,0.07958984375,-0.5126953125,0.8408203125,-19.625,11.8125,-15.5625
0.30000000000000016,-4.0,-2.0,-1.0,5.0,1.0,-1.0,2.0,0.0,0.1385498046875,-0.21978759765625,0.91729736328125,-0.3017578125,0.07958984375,-0.5126953125,0.8408203125,-19.625,11.8125,-15.5625
0.30500000000000016,-4.0,-2.0,-1.0,5.0,1.0,-1.0,2.0,0.0,0.1385498046875,-0.21978759765625,0.91729736328125,-0.3017578125,0.07958984375,-0.5126953125,0.8408203125,-19.625,11.8125,-15.5625
0.31000000000000016,12.0,1.0,-1.0,-14.0,-2.0,-1.0,0.0,1.0,0.1385498046875,-0.21978759765625,0.91729736328125,-0.3017578125,0.07958984375,-0.5126953125,0.8408203125,-19.625,11.8125,-15.5625
0.31500000000000017,12.0,1.0,-1.0,-14.0,-2.0,-1.0,0.0,1.0,0.1378173828125,-0.223388671875,0.91766357421875,-0.2982177734375,0.072265625,-0.5068359375,0.85546875,-18.75,12.0625,-17.25
0.3200000000000002,12.0,1.0,-1.0,-14.0,-2.0,-1.0,0.0,1.0,0.1378173828125,-0.223388671875,0.91766357421875,-0.2982177734375,0.072265625,-0.5068359375,0.85546875,-18.75,12.0625,-17.25
0.3250000000000002,-11.0,-5.0,-8.0,8.0,-10.0,-9.0,-6.0,-4.0,0.1378173828125,-0.223388671875,0.91766357421875,-0.2982177734375,0.072265625,-0.5068359375,0.85546875,-18.75,12.0625,-17.25
0.3300000000000002,-11.0,-5.0,-8.0,8.0,-10.0,-9.0,-6.0,-4.0,0.1378173828125,-0.223388671875,0.91766357421875,-0.2982177734375,0.072265625,-0.5068359375,0.85546875,-18.75,12.0625,-17.25
0.3350000000000002,-11.0,-5.0,-8.0,8.0,-10.0,-9.0,-6.0,-4.0,0.1368408203125,-0.22735595703125,0.91802978515625,-0.29461669921875,0.05908203125,-0.51708984375,0.85693359375,-20.5,13.25,-17.4375
0.3400000000000002,-3.0,-3.0,-12.0,-23.0,-9.0,-4.0,-3.0,-3.0,0.1368408203125,-0.22735595703125,0.91802978515625,-0.29461669921875,0.05908203125,-0.51708984375,0.85693359375,-20.5,13.25,-17.4375
0.3450000000000002,1.0,1.0,10.0,15.0,7.0,3.0,2.0,0.0,0.1368408203125,-0.22735595703125,0.91802978515625,-0.29461669921875,0.05908203125,-0.51708984375,0.85693359375,-20.5,13.25,-17.4375
0.3500000000000002,-6.0,-1.0,-4.0,10.0,5.0,0.0,-1.0,-4.0,0.13555908203125,-0.23126220703125,0.91839599609375,-0.291015625,0.04443359375,-0.51123046875,0.8505859375,-20.125,13.8125,-17.125
0.3550000000000002,-6.0,-1.0,-4.0,10.0,5.0,0.0,-1.0,-4.0,0.13555908203125,-0.23126220703125,0.91839599609375,-0.291015625,0.04443359375,-0.51123046875,0.8505859375,-20.125,13.8125,-17.125
0.3600000000000002,-2.0,-1.0,1.0,-13.0,0.0,1.0,1.0,0.0,0.13555908203125,-0.23126220703125,0.91839599609375,-0.291015625,0.04443359375,-0.51123046875,0.8505859375,-20.125,13.8125,-17.125
0.3650000000000002,-1.0,2.0,0.0,-20.0,3.0,2.0,0.0,2.0,0.13555908203125,-0.23126220703125,0.91839599609375,-0.291015625,0.04443359375,-0.51123046875,0.8505859375,-20.125,13.8125,-17.125
0.3700000000000002,-1.0,2.0,0.0,-20.0,3.0,2.0,0.0,2.0,0.13458251953125,-0.23504638671875,0.91864013671875,-0.28759765625,0.046875,-0.5244140625,0.83740234375,-19.0625,12.625,-16.8125
0.3750000000000002,-1.0,2.0,0.0,-20.0,3.0,2.0,0.0,2.0,0.13458251953125,-0.23504638671875,0.91864013671875,-0.28759765625,0.046875,-0.5244140625,0.83740234375,-19.0625,12.625,-16.8125
0.3800000000000002,-1.0,2.0,0.0,-20.0,3.0,2.0,0.0,2.0,0.13458251953125,-0.23504638671875,0.91864013671875,-0.28759765625,0.046875,-0.5244140625,0.83740234375,-19.0625,12.625,-16.8125
0.38500000000000023,-2.0,0.0,-5.0,-12.0,-5.0,-4.0,-3.0,-1.0,0.13458251953125,-0.23504638671875,0.91864013671875,-0.28759765625,0.046875,-0.5244140625,0.83740234375,-19.0625,12.625,-16.8125
0.39000000000000024,-2.0,0.0,-5.0,-12.0,-5.0,-4.0,-3.0,-1.0,0.13458251953125,-0.23504638671875,0.91864013671875,-0.28759765625,0.046875,-0.5244140625,0.83740234375,-19.0625,12.625,-16.8125
0.39500000000000024,-2.0,0.0,-5.0,-12.0,-5.0,-4.0,-3.0,-1.0,0.13348388671875,-0.2379150390625,0.91912841796875,-0.28424072265625,0.0517578125,-0.53271484375,0.84228515625,-14.1875,12.0,-17.125
0.40000000000000024,-2.0,0.0,-5.0,-12.0,-5.0,-4.0,-3.0,-1.0,0.13348388671875,-0.2379150390625,0.91912841796875,-0.28424072265625,0.0517578125,-0.53271484375,0.84228515625,-14.1875,12.0,-17.125
0.40500000000000025,-2.0,-6.0,-7.0,-34.0,-4.0,-1.0,1.0,1.0,0.13348388671875,-0.2379150390625,0.91912841796875,-0.28424072265625,0.0517578125,-0.53271484375,0.84228515625,-14.1875,12.0,-17.125
0.41000000000000025,-2.0,-2.0,3.0,18.0,-3.0,-2.0,-2.0,-1.0,0.132080078125,-0.2393798828125,0.91986083984375,-0.28125,0.04736328125,-0.53466796875,0.85205078125,-5.625,10.625,-16.0
0.41500000000000026,-2.0,-2.0,3.0,18.0,-3.0,-2.0,-2.0,-1.0,0.132080078125,-0.2393798828125,0.91986083984375,-0.28125,0.04736328125,-0.53466796875,0.85205078125,-5.625,10.625,-16.0
0.42000000000000026,-3.0,1.0,0.0,-15.0,7.0,4.0,1.0,3.0,0.132080078125,-0.2393798828125,0.91986083984375,-0.28125,0.04736328125,-0.53466796875,0.85205078125,-5.625,10.625,-16.0
0.42500000000000027,-3.0,1.0,0.0,-15.0,7.0,4.0,1.0,3.0,0.132080078125,-0.2393798828125,0.91986083984375,-0.28125,0.04736328125,-0.53466796875,0.85205078125,-5.625,10.625,-16.0
0.43000000000000027,4.0,3.0,1.0,-30.0,2.0,4.0,3.0,2.0,0.1309814453125,-0.239990234375,0.920654296875,-0.27862548828125,0.06884765625,-0.521484375,0.84228515625,-1.625,8.75,-14.875
0.4350000000000003,4.0,3.0,1.0,-30.0,2.0,4.0,3.0,2.0,0.1309814453125,-0.239990234375,0.920654296875,-0.27862548828125,0.06884765625,-0.521484375,0.84228515625,-1.625,8.75,-14.875
0.4400000000000003,4.0,3.0,1.0,-30.0,2.0,4.0,3.0,2.0,0.1309814453125,-0.239990234375,0.920654296875,-0.27862548828125,0.06884765625,-0.521484375,0.84228515625,-1.625,8.75,-14.875
0.4450000000000003,-2.0,-3.0,2.0,16.0,1.0,-2.0,0.0,-1.0,0.1309814453125,-0.239990234375,0.920654296875,-0.27862548828125,0.06884765625,-0.521484375,0.84228515625,-1.625,8.75,-14.875
0.4500000000000003,-2.0,-3.0,2.0,16.0,1.0,-2.0,0.0,-1.0,0.12982177734375,-0.240478515625,0.92144775390625,-0.276123046875,0.06787109375,-0.5263671875,0.8505859375,-1.0625,8.375,-14.125
0.4550000000000003,-1.0,2.0,-1.0,-9.0,0.0,0.0,0.0,-1.0,0.12982177734375,-0.240478515625,0.92144775390625,-0.276123046875,0.06787109375,-0.5263671875,0.8505859375,-1.0625,8.375,-14.125
0.4600000000000003,-3.0,-1.0,2.0,4.0,-3.0,-3.0,-3.0,-2.0,0.12982177734375,-0.240478515625,0.92144775390625,-0.276123046875,0.06787109375,-0.5263671875,0.8505859375,-1.0625,8.375,-14.125
0.4650000000000003,9.0,2.0,9.0,33.0,2.0,-1.0,-2.0,0.0,0.129150390625,-0.240478515625,0.922119140625,-0.27423095703125,0.09228515625,-0.50146484375,0.8525390625,-0.0625,5.875,-10.375
0.4700000000000003,9.0,2.0,9.0,33.0,2.0,-1.0,-2.0,0.0,0.129150390625,-0.240478515625,0.922119140625,-0.27423095703125,0.09228515625,-0.50146484375,0.8525390625,-0.0625,5.875,-10.375
0.4750000000000003,9.0,2.0,9.0,33.0,2.0,-1.0,-2.0,0.0,0.129150390625,-0.240478515625,0.922119140625,-0.27423095703125,0.09228515625,-0.50146484375,0.8525390625,-0.0625,5.875,-10.375
0.4800000000000003,-7.0,-7.0,-4.0,34.0,-3.0,-5.0,-3.0,-5.0,0.129150390625,-0.240478515625,0.922119140625,-0.27423095703125,0.09228515625,-0.50146484375,0.8525390625,-0.0625,5.875,-10.375
0.4850000000000003,-4.0,-2.0,0.0,-17.0,2.0,3.0,3.0,1.0,0.12957763671875,-0.24169921875,0.92242431640625,-0.27191162109375,0.12060546875,-0.48974609375,0.84130859375,-9.6875,3.875,-11.75
0.4900000000000003,-4.0,-2.0,0.0,-17.0,2.0,3.0,3.0,1.0,0.12957763671875,-0.24169921875,0.92242431640625,-0.27191162109375,0.12060546875,-0.48974609375,0.84130859375,-9.6875,3.875,-11.75
0.49500000000000033,-4.0,-2.0,0.0,-17.0,2.0,3.0,3.0,1.0,0.12957763671875,-0.24169921875,0.92242431640625,-0.27191162109375,0.12060546875,-0.48974609375,0.84130859375,-9.6875,3.875,-11.75
0.5000000000000003,-2.0,-4.0,-6.0,-18.0,-4.0,-2.0,-2.0,-1.0,0.12957763671875,-0.24169921875,0.92242431640625,-0.27191162109375,0.12060546875,-0.48974609375,0.84130859375,-9.6875,3.875,-11.75
0.5050000000000003,-2.0,-4.0,-6.0,-18.0,-4.0,-2.0,-2.0,-1.0,0.12957763671875,-0.24169921875,0.92242431640625,-0.27191162109375,0.12060546875,-0.48974609375,0.84130859375,-9.6875,3.875,-11.75
0.5100000000000003,-2.0,-4.0,-6.0,-18.0,-4.0,-2.0,-2.0,-1.0,0.13067626953125,-0.24468994140625,0.9222412109375,-0.269287109375,0.130859375,-0.49755859375,0.8544921875,-21.6875,3.625,-11.9375
0.5150000000000003,-2.0,-5.0,-11.0,-20.0,-4.0,-3.0,-3.0,-4.0,0.13067626953125,-0.24468994140625,0.9222412109375,-0.269287109375,0.130859375,-0.49755859375,0.8544921875,-21.6875,3.625,-11.9375
0.5200000000000004,-2.0,-5.0,-11.0,-20.0,-4.0,-3.0,-3.0,-4.0,0.13067626953125,-0.24468994140625,0.9222412109375,-0.269287109375,0.130859375,-0.49755859375,0.8544921875,-21.6875,3.625,-11.9375
0.5250000000000004,-1.0,0.0,4.0,9.0,4.0,2.0,1.0,-1.0,0.1319580078125,-0.2489013671875,0.921630859375,-0.26678466796875,0.12744140625,-0.52978515625,0.8623046875,-27.875,3.4375,-10.5
0.5300000000000004,-1.0,0.0,4.0,9.0,4.0,2.0,1.0,-1.0,0.1319580078125,-0.2489013671875,0.921630859375,-0.26678466796875,0.12744140625,-0.52978515625,0.8623046875,-27.875,3.4375,-10.5
0.5350000000000004,5.0,-4.0,-3.0,7.0,0.0,0.0,0.0,2.0,0.1319580078125,-0.2489013671875,0.921630859375,-0.26678466796875,0.12744140625,-0.52978515625,0.8623046875,-27.875,3.4375,-10.5
0.5400000000000004,-1.0,5.0,5.0,32.0,0.0,-2.0,0.0,0.0,0.1319580078125,-0.2489013671875,0.921630859375,-0.26678466796875,0.12744140625,-0.52978515625,0.8623046875,-27.875,3.4375,-10.5
0.5450000000000004,0.0,-1.0,-5.0,-13.0,-3.0,-2.0,0.0,2.0,0.1319580078125,-0.2489013671875,0.921630859375,-0.26678466796875,0.12744140625,-0.52978515625,0.8623046875,-27.875,3.4375,-10.5
0.5500000000000004,0.0,-1.0,-5.0,-13.0,-3.0,-2.0,0.0,2.0,0.13323974609375,-0.25311279296875,0.92095947265625,-0.2645263671875,0.12939453125,-0.5712890625,0.859375,-25.75,3.25,-9.0
0.5550000000000004,0.0,-1.0,-5.0,-13.0,-3.0,-2.0,0.0,2.0,0.13323974609375,-0.25311279296875,0.92095947265625,-0.2645263671875,0.12939453125,-0.5712890625,0.859375,-25.75,3.25,-9.0
0.5600000000000004,0.0,-1.0,-5.0,-13.0,-3.0,-2.0,0.0,2.0,0.13323974609375,-0.25311279296875,0.92095947265625,-0.2645263671875,0.12939453125,-0.5712890625,0.859375,-25.75,3.25,-9.0
0.5650000000000004,-2.0,0.0,2.0,3.0,-3.0,0.0,-2.0,-2.0,0.13323974609375,-0.25311279296875,0.92095947265625,-0.2645263671875,0.12939453125,-0.5712890625,0.859375,-25.75,3.25,-9.0
0.5700000000000004,-2.0,0.0,2.0,3.0,-3.0,0.0,-2.0,-2.0,0.13323974609375,-0.25311279296875,0.92095947265625,-0.2645263671875,0.12939453125,-0.5712890625,0.859375,-25.75,3.25,-9.0
0.5750000000000004,1.0,1.0,2.0,5.0,0.0,-1.0,-1.0,1.0,0.133544921875,-0.25579833984375,0.920654296875,-0.26287841796875,0.10595703125,-0.59814453125,0.8642578125,-14.1875,3.8125,-7.3125
0.5800000000000004,-1.0,-3.0,-5.0,-2.0,-2.0,-1.0,-1.0,0.0,0.133544921875,-0.25579833984375,0.920654296875,-0.26287841796875,0.10595703125,-0.59814453125,0.8642578125,-14.1875,3.8125,-7.3125
0.5850000000000004,-1.0,-3.0,-5.0,-2.0,-2.0,-1.0,-1.0,0.0,0.13299560546875,-0.25506591796875,0.921142578125,-0.26214599609375,0.099609375,-0.59130859375,0.861328125,6.875,2.4375,-5.3125
0.5900000000000004,-1.0,-3.0,-5.0,-2.0,-2.0,-1.0,-1.0,0.0,0.13299560546875,-0.25506591796875,0.921142578125,-0.26214599609375,0.099609375,-0.59130859375,0.861328125,6.875,2.4375,-5.3125
0.5950000000000004,-1.0,-3.0,-5.0,-2.0,-2.0,-1.0,-1.0,0.0,0.13299560546875,-0.25506591796875,0.921142578125,-0.26214599609375,0.099609375,-0.59130859375,0.861328125,6.875,2.4375,-5.3125
0.6000000000000004,-2.0,-3.0,-10.0,-4.0,-3.0,0.0,0.0,1.0,0.13299560546875,-0.25506591796875,0.921142578125,-0.26214599609375,0.099609375,-0.59130859375,0.861328125,6.875,2.4375,-5.3125
0.6050000000000004,-2.0,-3.0,-10.0,-4.0,-3.0,0.0,0.0,1.0,0.13299560546875,-0.25506591796875,0.921142578125,-0.26214599609375,0.099609375,-0.59130859375,0.861328125,6.875,2.4375,-5.3125
0.6100000000000004,-3.0,-3.0,-2.0,14.0,-3.0,-3.0,-3.0,-2.0,0.13214111328125,-0.25213623046875,0.922119140625,-0.26190185546875,0.11083984375,-0.541015625,0.84912109375,17.8125,1.125,-3.9375
0.6150000000000004,-3.0,-3.0,-2.0,14.0,-3.0,-3.0,-3.0,-2.0,0.13214111328125,-0.25213623046875,0.922119140625,-0.26190185546875,0.11083984375,-0.541015625,0.84912109375,17.8125,1.125,-3.9375
0.6200000000000004,-3.0,-3.0,-2.0,14.0,-3.0,-3.0,-3.0,-2.0,0.13214111328125,-0.25213623046875,0.922119140625,-0.26190185546875,0.11083984375,-0.541015625,0.84912109375,17.8125,1.125,-3.9375
0.6250000000000004,-3.0,-3.0,-2.0,14.0,-3.0,-3.0,-3.0,-2.0,0.13214111328125,-0.25213623046875,0.922119140625,-0.26190185546875,0.11083984375,-0.541015625,0.84912109375,17.8125,1.125,-3.9375
0.6300000000000004,0.0,-2.0,-3.0,1.0,0.0,-1.0,-1.0,-1.0,0.13214111328125,-0.25213623046875,0.922119140625,-0.26190185546875,0.11083984375,-0.541015625,0.84912109375,17.8125,1.125,-3.9375
0.6350000000000005,0.0,-2.0,-3.0,1.0,0.0,-1.0,-1.0,-1.0,0.1312255859375,-0.2498779296875,0.92291259765625,-0.26177978515625,0.09130859375,-0.5185546875,0.8486328125,13.3125,0.875,-3.0625
0.6400000000000005,0.0,-2.0,-3.0,1.0,0.0,-1.0,-1.0,-1.0,0.1312255859375,-0.2498779296875,0.92291259765625,-0.26177978515625,0.09130859375,-0.5185546875,0.8486328125,13.3125,0.875,-3.0625
0.6450000000000005,-5.0,-3.0,0.0,9.0,1.0,0.0,0.0,0.0,0.1312255859375,-0.2498779296875,0.92291259765625,-0.26177978515625,0.09130859375,-0.5185546875,0.8486328125,13.3125,0.875,-3.0625
0.6500000000000005,-5.0,-3.0,0.0,9.0,1.0,0.0,0.0,0.0,0.1312255859375,-0.2498779296875,0.92291259765625,-0.26177978515625,0.09130859375,-0.5185546875,0.8486328125,13.3125,0.875,-3.0625
0.6550000000000005,-1.0,-1.0,-11.0,-29.0,-7.0,-3.0,-2.0,0.0,0.1312255859375,-0.2498779296875,0.92291259765625,-0.26177978515625,0.09130859375,-0.5185546875,0.8486328125,13.3125,0.875,-3.0625
0.6600000000000005,-1.0,-1.0,-11.0,-29.0,-7.0,-3.0,-2.0,0.0,0.130615234375,-0.2486572265625,0.92333984375,-0.26190185546875,0.09521484375,-0.49609375,0.85595703125,5.8125,0.5625,-0.3125
0.6650000000000005,-1.0,-1.0,-11.0,-29.0,-7.0,-3.0,-2.0,0.0,0.130615234375,-0.2486572265625,0.92333984375,-0.26190185546875,0.09521484375,-0.49609375,0.85595703125,5.8125,0.5625,-0.3125
0.6700000000000005,-1.0,-1.0,-11.0,-29.0,-7.0,-3.0,-2.0,0.0,0.130615234375,-0.2486572265625,0.92333984375,-0.26190185546875,0.09521484375,-0.49609375,0.85595703125,5.8125,0.5625,-0.3125
0.6750000000000005,-2.0,-1.0,-1.0,-17.0,-2.0,0.0,0.0,2.0,0.130615234375,-0.2486572265625,0.92333984375,-0.26190185546875,0.09521484375,-0.49609375,0.85595703125,5.8125,0.5625,-0.3125
0.6800000000000005,-2.0,-1.0,-1.0,-17.0,-2.0,0.0,0.0,2.0,0.130615234375,-0.2486572265625,0.92333984375,-0.26190185546875,0.09521484375,-0.49609375,0.85595703125,5.8125,0.5625,-0.3125
0.6850000000000005,-3.0,1.0,2.0,22.0,2.0,1.0,-1.0,-1.0,0.130615234375,-0.2486572265625,0.92333984375,-0.26190185546875,0.09521484375,-0.49609375,0.85595703125,5.8125,0.5625,-0.3125
0.6900000000000005,-3.0,1.0,2.0,22.0,2.0,1.0,-1.0,-1.0,0.13067626953125,-0.2491455078125,0.92303466796875,-0.26226806640625,0.11083984375,-0.50732421875,0.84765625,-4.5,-0.375,2.9375
0.6950000000000005,-3.0,1.0,2.0,22.0,2.0,1.0,-1.0,-1.0,0.13067626953125,-0.2491455078125,0.92303466796875,-0.26226806640625,0.11083984375,-0.50732421875,0.84765625,-4.5,-0.375,2.9375
0.7000000000000005,-3.0,1.0,2.0,22.0,2.0,1.0,-1.0,-1.0,0.13067626953125,-0.2491455078125,0.92303466796875,-0.26226806640625,0.11083984375,-0.50732421875,0.84765625,-4.5,-0.375,2.9375
0.7050000000000005,0.0,1.0,7.0,6.0,3.0,0.0,0.0,0.0,0.13067626953125,-0.2491455078125,0.92303466796875,-0.26226806640625,0.11083984375,-0.50732421875,0.84765625,-4.5,-0.375,2.9375
0.7100000000000005,0.0,1.0,7.0,6.0,3.0,0.0,0.0,0.0,0.13067626953125,-0.2491455078125,0.92303466796875,-0.26226806640625,0.11083984375,-0.50732421875,0.84765625,-4.5,-0.375,2.9375
0.7150000000000005,0.0,1.0,7.0,6.0,3.0,0.0,0.0,0.0,0.1309814453125,-0.250732421875,0.9224853515625,-0.2626953125,0.10107421875,-0.51611328125,0.849609375,-10.5625,-1.0,3.6875
0.7200000000000005,0.0,1.0,7.0,6.0,3.0,0.0,0.0,0.0,0.1309814453125,-0.250732421875,0.9224853515625,-0.2626953125,0.10107421875,-0.51611328125,0.849609375,-10.5625,-1.0,3.6875
0.7250000000000005,1.0,1.0,1.0,1.0,-3.0,0.0,-2.0,1.0,0.1309814453125,-0.250732421875,0.9224853515625,-0.2626953125,0.10107421875,-0.51611328125,0.849609375,-10.5625,-1.0,3.6875
0.7300000000000005,1.0,1.0,1.0,1.0,-3.0,0.0,-2.0,1.0,0.1309814453125,-0.250732421875,0.9224853515625,-0.2626953125,0.10107421875,-0.51611328125,0.849609375,-10.5625,-1.0,3.6875
0.7350000000000005,-2.0,2.0,1.0,0.0,-2.0,-1.0,0.0,0.0,0.13134765625,-0.2528076171875,0.92169189453125,-0.26324462890625,0.0869140625,-0.52880859375,0.84814453125,-13.0625,-1.5,4.3125
0.7400000000000005,-2.0,2.0,1.0,0.0,-2.0,-1.0,0.0,0.0,0.13134765625,-0.2528076171875,0.92169189453125,-0.26324462890625,0.0869140625,-0.52880859375,0.84814453125,-13.0625,-1.5,4.3125
0.7450000000000006,-2.0,2.0,1.0,0.0,-2.0,-1.0,0.0,0.0,0.13134765625,-0.2528076171875,0.92169189453125,-0.26324462890625,0.0869140625,-0.52880859375,0.84814453125,-13.0625,-1.5,4.3125
0.7500000000000006,-4.0,-5.0,-4.0,-4.0,-3.0,-2.0,-2.0,-1.0,0.13134765625,-0.2528076171875,0.92169189453125,-0.26324462890625,0.0869140625,-0.52880859375,0.84814453125,-13.0625,-1.5,4.3125
0.7550000000000006,-4.0,-5.0,-4.0,-4.0,-3.0,-2.0,-2.0,-1.0,0.13134765625,-0.2528076171875,0.92169189453125,-0.26324462890625,0.0869140625,-0.52880859375,0.84814453125,-13.0625,-1.5,4.3125
0.7600000000000006,-4.0,-5.0,-4.0,-4.0,-3.0,-2.0,-2.0,-1.0,0.13134765625,-0.2528076171875,0.92169189453125,-0.26324462890625,0.0869140625,-0.52880859375,0.84814453125,-13.0625,-1.5,4.3125
0.7650000000000006,7.0,-3.0,-4.0,-18.0,-1.0,-1.0,-3.0,1.0,0.13153076171875,-0.25439453125,0.92095947265625,-0.2640380859375,0.0869140625,-0.5341796875,0.8564453125,-10.375,-1.75,5.25
0.7700000000000006,7.0,-3.0,-4.0,-18.0,-1.0,-1.0,-3.0,1.0,0.13153076171875,-0.25439453125,0.92095947265625,-0.2640380859375,0.0869140625,-0.5341796875,0.8564453125,-10.375,-1.75,5.25
0.7750000000000006,7.0,-3.0,-4.0,-18.0,-1.0,-1.0,-3.0,1.0,0.13153076171875,-0.25439453125,0.92095947265625,-0.2640380859375,0.0869140625,-0.5341796875,0.8564453125,-10.375,-1.75,5.25
0.7800000000000006,7.0,-3.0,-4.0,-18.0,-1.0,-1.0,-3.0,1.0,0.13153076171875,-0.25439453125,0.92095947265625,-0.2640380859375,0.0869140625,-0.5341796875,0.8564453125,-10.375,-1.75,5.25
0.7850000000000006,-2.0,-1.0,-2.0,-37.0,0.0,3.0,-1.0,-2.0,0.13153076171875,-0.25439453125,0.92095947265625,-0.2640380859375,0.0869140625,-0.5341796875,0.8564453125,-10.375,-1.75,5.25
0.7900000000000006,-2.0,-1.0,-2.0,-37.0,0.0,3.0,-1.0,-2.0,0.13153076171875,-0.25439453125,0.92095947265625,-0.2640380859375,0.0869140625,-0.5341796875,0.8564453125,-10.375,-1.75,5.25
0.7950000000000006,-2.0,-1.0,-2.0,-37.0,0.0,3.0,-1.0,-2.0,0.13153076171875,-0.25579833984375,0.92034912109375,-0.26483154296875,0.0751953125,-0.54443359375,0.85302734375,-8.0625,-1.625,4.875
0.8000000000000006,-2.0,-1.0,-2.0,-37.0,0.0,3.0,-1.0,-2.0,0.13153076171875,-0.25579833984375,0.92034912109375,-0.26483154296875,0.0751953125,-0.54443359375,0.85302734375,-8.0625,-1.625,4.875
0.8050000000000006,-8.0,-4.0,-6.0,-11.0,-2.0,-1.0,-2.0,-6.0,0.13153076171875,-0.25579833984375,0.92034912109375,-0.26483154296875,0.0751953125,-0.54443359375,0.85302734375,-8.0625,-1.625,4.875
0.8100000000000006,-8.0,-4.0,-6.0,-11.0,-2.0,-1.0,-2.0,-6.0,0.13153076171875,-0.25579833984375,0.92034912109375,-0.26483154296875,0.0751953125,-0.54443359375,0.85302734375,-8.0625,-1.625,4.875
0.8150000000000006,1.0,-1.0,0.0,-10.0,-1.0,-2.0,-2.0,0.0,0.1312255859375,-0.25628662109375,0.92010498046875,-0.2655029296875,0.06005859375,-0.53076171875,0.84619140625,-3.125,-1.4375,3.3125
0.8200000000000006,1.0,-1.0,0.0,-10.0,-1.0,-2.0,-2.0,0.0,0.1312255859375,-0.25628662109375,0.92010498046875,-0.2655029296875,0.06005859375,-0.53076171875,0.84619140625,-3.125,-1.4375,3.3125
0.8250000000000006,1.0,-1.0,0.0,-10.0,-1.0,-2.0,-2.0,0.0,0.1312255859375,-0.25628662109375,0.92010498046875,-0.2655029296875,0.06005859375,-0.53076171875,0.84619140625,-3.125,-1.4375,3.3125
0.8300000000000006,-4.0,-2.0,-5.0,-10.0,-1.0,-3.0,-2.0,0.0,0.1312255859375,-0.25628662109375,0.92010498046875,-0.2655029296875,0.06005859375,-0.53076171875,0.84619140625,-3.125,-1.4375,3.3125
0.8350000000000006,-4.0,-2.0,-5.0,-10.0,-1.0,-3.0,-2.0,0.0,0.1312255859375,-0.25628662109375,0.92010498046875,-0.2655029296875,0.06005859375,-0.53076171875,0.84619140625,-3.125,-1.4375,3.3125
0.8400000000000006,-7.0,-3.0,-3.0,-5.0,-5.0,0.0,1.0,-4.0,0.1312255859375,-0.25628662109375,0.92010498046875,-0.2655029296875,0.06005859375,-0.53076171875,0.84619140625,-3.125,-1.4375,3.3125
0.8450000000000006,-7.0,-3.0,-3.0,-5.0,-5.0,0.0,1.0,-4.0,0.1309814453125,-0.2562255859375,0.91998291015625,-0.26605224609375,0.0654296875,-0.50244140625,0.85400390625,-2.3125,-2.125,2.0625
0.8500000000000006,-7.0,-3.0,-3.0,-5.0,-5.0,0.0,1.0,-4.0,0.1309814453125,-0.2562255859375,0.91998291015625,-0.26605224609375,0.0654296875,-0.50244140625,0.85400390625,-2.3125,-2.125,2.0625
0.8550000000000006,-7.0,-3.0,-3.0,-5.0,-5.0,0.0,1.0,-4.0,0.1309814453125,-0.2562255859375,0.91998291015625,-0.26605224609375,0.0654296875,-0.50244140625,0.85400390625,-2.3125,-2.125,2.0625
0.8600000000000007,0.0,-3.0,1.0,21.0,2.0,-3.0,-1.0,-3.0,0.1309814453125,-0.2562255859375,0.91998291015625,-0.26605224609375,0.0654296875,-0.50244140625,0.85400390625,-2.3125,-2.125,2.0625
0.8650000000000007,0.0,-3.0,1.0,21.0,2.0,-3.0,-1.0,-3.0,0.1309814453125,-0.2562255859375,0.91998291015625,-0.26605224609375,0.0654296875,-0.50244140625,0.85400390625,-2.3125,-2.125,2.0625
0.8700000000000007,0.0,-3.0,1.0,21.0,2.0,-3.0,-1.0,-3.0,0.13116455078125,-0.25762939453125,0.9195556640625,-0.26605224609375,0.06201171875,-0.5068359375,0.85205078125,-11.125,-1.875,0.0625
0.8750000000000007,-1.0,-2.0,-6.0,-21.0,-6.0,-1.0,-2.0,-1.0,0.13116455078125,-0.25762939453125,0.9195556640625,-0.26605224609375,0.06201171875,-0.5068359375,0.85205078125,-11.125,-1.875,0.0625
0.8800000000000007,-1.0,-2.0,-6.0,-21.0,-6.0,-1.0,-2.0,-1.0,0.13116455078125,-0.25762939453125,0.9195556640625,-0.26605224609375,0.06201171875,-0.5068359375,0.85205078125,-11.125,-1.875,0.0625
0.8850000000000007,-3.0,1.0,6.0,3.0,4.0,3.0,1.0,-2.0,0.13140869140625,-0.25994873046875,0.91900634765625,-0.265625,0.056640625,-0.509765625,0.85595703125,-17.125,-0.5625,-1.5625
0.8900000000000007,-3.0,1.0,6.0,3.0,4.0,3.0,1.0,-2.0,0.13140869140625,-0.25994873046875,0.91900634765625,-0.265625,0.056640625,-0.509765625,0.85595703125,-17.125,-0.5625,-1.5625
0.8950000000000007,-3.0,1.0,6.0,3.0,4.0,3.0,1.0,-2.0,0.13140869140625,-0.25994873046875,0.91900634765625,-0.265625,0.056640625,-0.509765625,0.85595703125,-17.125,-0.5625,-1.5625
0.9000000000000007,-3.0,1.0,5.0,15.0,4.0,-1.0,-3.0,-5.0,0.13140869140625,-0.25994873046875,0.91900634765625,-0.265625,0.056640625,-0.509765625,0.85595703125,-17.125,-0.5625,-1.5625
0.9050000000000007,-3.0,1.0,5.0,15.0,4.0,-1.0,-3.0,-5.0,0.13140869140625,-0.25994873046875,0.91900634765625,-0.265625,0.056640625,-0.509765625,0.85595703125,-17.125,-0.5625,-1.5625
0.9100000000000007,0.0,0.0,-2.0,-5.0,-3.0,-2.0,0.0,-2.0,0.13189697265625,-0.26190185546875,0.91851806640625,-0.26513671875,0.0830078125,-0.53173828125,0.87060546875,-15.0625,-0.75,-1.6875
0.9150000000000007,0.0,0.0,-2.0,-5.0,-3.0,-2.0,0.0,-2.0,0.13189697265625,-0.26190185546875,0.91851806640625,-0.26513671875,0.0830078125,-0.53173828125,0.87060546875,-15.0625,-0.75,-1.6875
0.9200000000000007,4.0,-2.0,-1.0,-3.0,-4.0,-2.0,1.0,0.0,0.13189697265625,-0.26190185546875,0.91851806640625,-0.26513671875,0.0830078125,-0.53173828125,0.87060546875,-15.0625,-0.75,-1.6875
0.9250000000000007,4.0,-2.0,-1.0,-3.0,-4.0,-2.0,1.0,0.0,0.13189697265625,-0.26190185546875,0.91851806640625,-0.26513671875,0.0830078125,-0.53173828125,0.87060546875,-15.0625,-0.75,-1.6875
0.9300000000000007,-4.0,1.0,-3.0,-13.0,-8.0,-2.0,0.0,0.0,0.1328125,-0.26300048828125,0.91827392578125,-0.2645263671875,0.13037109375,-0.55517578125,0.859375,-9.0625,-1.375,-2.4375
0.9350000000000007,-4.0,1.0,-3.0,-13.0,-8.0,-2.0,0.0,0.0,0.1328125,-0.26300048828125,0.91827392578125,-0.2645263671875,0.13037109375,-0.55517578125,0.859375,-9.0625,-1.375,-2.4375
0.9400000000000007,8.0,2.0,6.0,15.0,2.0,-1.0,-2.0,-1.0,0.1328125,-0.26300048828125,0.91827392578125,-0.2645263671875,0.13037109375,-0.55517578125,0.859375,-9.0625,-1.375,-2.4375
0.9450000000000007,-2.0,1.0,3.0,2.0,0.0,1.0,2.0,0.0,0.1328125,-0.26300048828125,0.91827392578125,-0.2645263671875,0.13037109375,-0.55517578125,0.859375,-9.0625,-1.375,-2.4375
0.9500000000000007,-1.0,1.0,4.0,8.0,2.0,-3.0,0.0,-1.0,0.13311767578125,-0.26263427734375,0.91851806640625,-0.26385498046875,0.13330078125,-0.541015625,0.8671875,-1.0,0.25,-3.5625
0.9550000000000007,-1.0,1.0,4.0,8.0,2.0,-3.0,0.0,-1.0,0.13311767578125,-0.26263427734375,0.91851806640625,-0.26385498046875,0.13330078125,-0.541015625,0.8671875,-1.0,0.25,-3.5625
0.9600000000000007,-4.0,0.0,5.0,13.0,-1.0,-2.0,-1.0,0.0,0.13311767578125,-0.26263427734375,0.91851806640625,-0.26385498046875,0.13330078125,-0.541015625,0.8671875,-1.0,0.25,-3.5625
0.9650000000000007,-4.0,0.0,5.0,13.0,-1.0,-2.0,-1.0,0.0,0.13311767578125,-0.26263427734375,0.91851806640625,-0.26385498046875,0.13330078125,-0.541015625,0.8671875,-1.0,0.25,-3.5625
0.9700000000000008,5.0,-4.0,-8.0,-18.0,-1.0,-1.0,0.0,5.0,0.13299560546875,-0.2615966796875,0.9190673828125,-0.26312255859375,0.123046875,-0.54736328125,0.87548828125,3.75,1.3125,-4.875
0.9750000000000008,5.0,-4.0,-8.0,-18.0,-1.0,-1.0,0.0,5.0,0.13299560546875,-0.2615966796875,0.9190673828125,-0.26312255859375,0.123046875,-0.54736328125,0.87548828125,3.75,1.3125,-4.875
0.9800000000000008,6.0,2.0,2.0,18.0,3.0,0.0,1.0,2.0,0.13299560546875,-0.2615966796875,0.9190673828125,-0.26312255859375,0.123046875,-0.54736328125,0.87548828125,3.75,1.3125,-4.875
0.9850000000000008,6.0,2.0,2.0,18.0,3.0,0.0,1.0,2.0,0.13299560546875,-0.2615966796875,0.9190673828125,-0.26312255859375,0.123046875,-0.54736328125,0.87548828125,3.75,1.3125,-4.875
0.9900000000000008,4.0,0.0,0.0,15.0,-2.0,-1.0,1.0,1.0,0.13262939453125,-0.25994873046875,0.91973876953125,-0.26239013671875,0.130859375,-0.52978515625,0.87109375,6.9375,2.125,-4.3125
0.9950000000000008,-3.0,1.0,1.0,-8.0,4.0,1.0,0.0,0.0,0.13262939453125,-0.25994873046875,0.91973876953125,-0.26239013671875,0.130859375,-0.52978515625,0.87109375,6.9375,2.125,-4.3125
1.0000000000000007,3.0,-3.0,-7.0,-30.0,-9.0,-3.0,-4.0,1.0,0.13262939453125,-0.25994873046875,0.91973876953125,-0.26239013671875,0.130859375,-0.52978515625,0.87109375,6.9375,2.125,-4.3125
1.0050000000000006,-6.0,-2.0,-1.0,17.0,1.0,-1.0,-4.0,-7.0,0.1322021484375,-0.2587890625,0.92034912109375,-0.26165771484375,0.13330078125,-0.5185546875,0.86083984375,4.1875,3.375,-4.125
1.0100000000000005,-6.0,-2.0,-1.0,17.0,1.0,-1.0,-4.0,-7.0,0.1322021484375,-0.2587890625,0.92034912109375,-0.26165771484375,0.13330078125,-0.5185546875,0.86083984375,4.1875,3.375,-4.125
1.0150000000000003,-6.0,-2.0,-1.0,17.0,1.0,-1.0,-4.0,-7.0,0.1322021484375,-0.2587890625,0.92034912109375,-0.26165771484375,0.13330078125,-0.5185546875,0.86083984375,4.1875,3.375,-4.125
1.0200000000000002,0.0,-3.0,-8.0,11.0,0.0,0.0,-2.0,-1.0,0.1322021484375,-0.2587890625,0.92034912109375,-0.26165771484375,0.13330078125,-0.5185546875,0.86083984375,4.1875,3.375,-4.125
1.0250000000000001,0.0,-3.0,-8.0,11.0,0.0,0.0,-2.0,-1.0,0.1317138671875,-0.2589111328125,0.9207763671875,-0.2603759765625,0.11083984375,-0.52978515625,0.8564453125,-2.0625,4.875,-6.1875
1.03,-2.0,-1.0,0.0,21.0,-1.0,-4.0,-4.0,-1.0,0.1317138671875,-0.2589111328125,0.9207763671875,-0.2603759765625,0.11083984375,-0.52978515625,0.8564453125,-2.0625,4.875,-6.1875
1.035,-2.0,-1.0,0.0,21.0,-1.0,-4.0,-4.0,-1.0,0.1317138671875,-0.2589111328125,0.9207763671875,-0.2603759765625,0.11083984375,-0.52978515625,0.8564453125,-2.0625,4.875,-6.1875
1.0399999999999998,-2.0,-1.0,0.0,21.0,-1.0,-4.0,-4.0,-1.0,0.1317138671875,-0.2589111328125,0.9207763671875,-0.2603759765625,0.11083984375,-0.52978515625,0.8564453125,-2.0625,4.875,-6.1875
1.0449999999999997,1.0,1.0,7.0,37.0,-3.0,-4.0,-2.0,-4.0,0.1317138671875,-0.2589111328125,0.9207763671875,-0.2603759765625,0.11083984375,-0.52978515625,0.8564453125,-2.0625,4.875,-6.1875
1.0499999999999996,1.0,1.0,7.0,37.0,-3.0,-4.0,-2.0,-4.0,0.1317138671875,-0.2589111328125,0.9207763671875,-0.2603759765625,0.11083984375,-0.52978515625,0.8564453125,-2.0625,4.875,-6.1875
1.0549999999999995,1.0,1.0,7.0,37.0,-3.0,-4.0,-2.0,-4.0,0.1317138671875,-0.2589111328125,0.9207763671875,-0.2603759765625,0.11083984375,-0.52978515625,0.8564453125,-2.0625,4.875,-6.1875
1.0599999999999994,2.0,-1.0,-5.0,-12.0,-2.0,-1.0,0.0,3.0,0.13104248046875,-0.2593994140625,0.92108154296875,-0.2591552734375,0.10107421875,-0.5322265625,0.8662109375,-4.375,5.625,-5.75
1.0649999999999993,2.0,-1.0,-5.0,-12.0,-2.0,-1.0,0.0,3.0,0.13104248046875,-0.2593994140625,0.92108154296875,-0.2591552734375,0.10107421875,-0.5322265625,0.8662109375,-4.375,5.625,-5.75
1.0699999999999992,0.0,-1.0,5.0,23.0,4.0,-1.0,-2.0,-2.0,0.13104248046875,-0.2593994140625,0.92108154296875,-0.2591552734375,0.10107421875,-0.5322265625,0.8662109375,-4.375,5.625,-5.75
1.074999999999999,-9.0,-6.0,-20.0,-27.0,-8.0,-5.0,-4.0,-8.0,0.13055419921875,-0.2601318359375,0.9212646484375,-0.25799560546875,0.11669921875,-0.55224609375,0.86328125,-4.625,6.0,-4.8125
1.079999999999999,-9.0,-6.0,-20.0,-27.0,-8.0,-5.0,-4.0,-8.0,0.13055419921875,-0.2601318359375,0.9212646484375,-0.25799560546875,0.11669921875,-0.55224609375,0.86328125,-4.625,6.0,-4.8125
1.0849999999999989,0.0,0.0,2.0,21.0,-4.0,-3.0,-4.0,-5.0,0.13055419921875,-0.2601318359375,0.9212646484375,-0.25799560546875,0.11669921875,-0.55224609375,0.86328125,-4.625,6.0,-4.8125
1.0899999999999987,-2.0,-2.0,1.0,-4.0,5.0,3.0,1.0,-1.0,0.13055419921875,-0.2601318359375,0.9212646484375,-0.25799560546875,0.11669921875,-0.55224609375,0.86328125,-4.625,6.0,-4.8125
1.0949999999999986,-15.0,-6.0,6.0,10.0,0.0,0.0,-1.0,-5.0,0.12939453125,-0.26043701171875,0.921630859375,-0.25701904296875,0.0927734375,-0.54638671875,0.86083984375,-1.3125,7.3125,-4.125
1.0999999999999985,-15.0,-6.0,6.0,10.0,0.0,0.0,-1.0,-5.0,0.12939453125,-0.26043701171875,0.921630859375,-0.25701904296875,0.0927734375,-0.54638671875,0.86083984375,-1.3125,7.3125,-4.125
1.1049999999999984,-15.0,-6.0,6.0,10.0,0.0,0.0,-1.0,-5.0,0.12939453125,-0.26043701171875,0.921630859375,-0.25701904296875,0.0927734375,-0.54638671875,0.86083984375,-1.3125,7.3125,-4.125
1.1099999999999983,-15.0,-6.0,6.0,10.0,0.0,0.0,-1.0,-5.0,0.12939453125,-0.26043701171875,0.921630859375,-0.25701904296875,0.0927734375,-0.54638671875,0.86083984375,-1.3125,7.3125,-4.125
1.1149999999999982,1.0,0.0,0.0,10.0,2.0,-1.0,-1.0,1.0,0.12939453125,-0.26043701171875,0.921630859375,-0.25701904296875,0.0927734375,-0.54638671875,0.86083984375,-1.3125,7.3125,-4.125
1.119999999999998,14.0,6.0,11.0,5.0,1.0,-2.0,0.0,9.0,0.1279296875,-0.260498046875,0.92193603515625,-0.25640869140625,0.07470703125,-0.52978515625,0.85205078125,0.125,7.25,-2.375
1.124999999999998,14.0,6.0,11.0,5.0,1.0,-2.0,0.0,9.0,0.1279296875,-0.260498046875,0.92193603515625,-0.25640869140625,0.07470703125,-0.52978515625,0.85205078125,0.125,7.25,-2.375
1.129999999999998,14.0,6.0,11.0,5.0,1.0,-2.0,0.0,9.0,0.1279296875,-0.260498046875,0.92193603515625,-0.25640869140625,0.07470703125,-0.52978515625,0.85205078125,0.125,7.25,-2.375
1.1349999999999978,-6.0,-2.0,0.0,2.0,-4.0,-1.0,-1.0,-8.0,0.12701416015625,-0.26123046875,0.92205810546875,-0.255859375,0.1044921875,-0.5439453125,0.84814453125,-3.6875,6.75,-1.0625
1.1399999999999977,-6.0,-2.0,0.0,2.0,-4.0,-1.0,-1.0,-8.0,0.12701416015625,-0.26123046875,0.92205810546875,-0.255859375,0.1044921875,-0.5439453125,0.84814453125,-3.6875,6.75,-1.0625
1.1449999999999976,-2.0,-2.0,2.0,6.0,-1.0,-1.0,-2.0,-3.0,0.12701416015625,-0.26123046875,0.92205810546875,-0.255859375,0.1044921875,-0.5439453125,0.84814453125,-3.6875,6.75,-1.0625
1.1499999999999975,-2.0,-2.0,2.0,6.0,-1.0,-1.0,-2.0,-3.0,0.12701416015625,-0.26123046875,0.92205810546875,-0.255859375,0.1044921875,-0.5439453125,0.84814453125,-3.6875,6.75,-1.0625
1.1549999999999974,2.0,-1.0,0.0,3.0,0.0,-1.0,-2.0,2.0,0.126220703125,-0.26226806640625,0.922119140625,-0.25494384765625,0.12255859375,-0.55078125,0.8427734375,-5.3125,8.3125,-2.0625
1.1599999999999973,2.0,-1.0,0.0,3.0,0.0,-1.0,-2.0,2.0,0.126220703125,-0.26226806640625,0.922119140625,-0.25494384765625,0.12255859375,-0.55078125,0.8427734375,-5.3125,8.3125,-2.0625
1.1649999999999971,2.0,-1.0,0.0,3.0,0.0,-1.0,-2.0,2.0,0.126220703125,-0.26226806640625,0.922119140625,-0.25494384765625,0.12255859375,-0.55078125,0.8427734375,-5.3125,8.3125,-2.0625
1.169999999999997,2.0,-1.0,0.0,3.0,0.0,-1.0,-2.0,2.0,0.126220703125,-0.26226806640625,0.922119140625,-0.25494384765625,0.12255859375,-0.55078125,0.8427734375,-5.3125,8.3125,-2.0625
1.174999999999997,-5.0,-1.0,-2.0,-13.0,-2.0,-2.0,-1.0,-2.0,0.126220703125,-0.26226806640625,0.922119140625,-0.25494384765625,0.12255859375,-0.55078125,0.8427734375,-5.3125,8.3125,-2.0625
1.1799999999999968,-5.0,-1.0,-2.0,-13.0,-2.0,-2.0,-1.0,-2.0,0.126220703125,-0.26226806640625,0.922119140625,-0.25494384765625,0.12255859375,-0.55078125,0.8427734375,-5.3125,8.3125,-2.0625
1.1849999999999967,5.0,3.0,4.0,6.0,1.0,-2.0,-2.0,1.0,0.12506103515625,-0.2628173828125,0.92236328125,-0.25396728515625,0.1083984375,-0.54931640625,0.84326171875,-2.125,9.125,-3.0
1.1899999999999966,5.0,3.0,4.0,6.0,1.0,-2.0,-2.0,1.0,0.12506103515625,-0.2628173828125,0.92236328125,-0.25396728515625,0.1083984375,-0.54931640625,0.84326171875,-2.125,9.125,-3.0
1.1949999999999965,5.0,3.0,4.0,6.0,1.0,-2.0,-2.0,1.0,0.12506103515625,-0.2628173828125,0.92236328125,-0.25396728515625,0.1083984375,-0.54931640625,0.84326171875,-2.125,9.125,-3.0
1.1999999999999964,5.0,3.0,4.0,6.0,1.0,-2.0,-2.0,1.0,0.12506103515625,-0.2628173828125,0.92236328125,-0.25396728515625,0.1083984375,-0.54931640625,0.84326171875,-2.125,9.125,-3.0
1.2049999999999963,-3.0,1.0,-1.0,-1.0,-1.0,1.0,1.0,-2.0,0.1239013671875,-0.2633056640625,0.92266845703125,-0.2529296875,0.09375,-0.56640625,0.84228515625,-0.5,8.625,-4.0625
1.2099999999999962,-3.0,1.0,-1.0,-1.0,-1.0,1.0,1.0,-2.0,0.1239013671875,-0.2633056640625,0.92266845703125,-0.2529296875,0.09375,-0.56640625,0.84228515625,-0.5,8.625,-4.0625
1.214999999999996,-3.0,1.0,-1.0,-1.0,-1.0,1.0,1.0,-2.0,0.1239013671875,-0.2633056640625,0.92266845703125,-0.2529296875,0.09375,-0.56640625,0.84228515625,-0.5,8.625,-4.0625
1.219999999999996,-3.0,1.0,-1.0,-1.0,-1.0,1.0,1.0,-2.0,0.1239013671875,-0.2633056640625,0.92266845703125,-0.2529296875,0.09375,-0.56640625,0.84228515625,-0.5,8.625,-4.0625
1.2249999999999959,-1.0,-1.0,-5.0,-17.0,-1.0,1.0,0.0,-2.0,0.1239013671875,-0.2633056640625,0.92266845703125,-0.2529296875,0.09375,-0.56640625,0.84228515625,-0.5,8.625,-4.0625
1.2299999999999958,-1.0,-1.0,-5.0,-17.0,-1.0,1.0,0.0,-2.0,0.1239013671875,-0.2633056640625,0.92266845703125,-0.2529296875,0.09375,-0.56640625,0.84228515625,-0.5,8.625,-4.0625
1.2349999999999957,1.0,-2.0,-3.0,-3.0,-8.0,-4.0,-2.0,-2.0,0.122314453125,-0.26312255859375,0.92327880859375,-0.251708984375,0.08056640625,-0.5322265625,0.8369140625,1.875,9.375,-5.5
1.2399999999999956,1.0,-2.0,-3.0,-3.0,-8.0,-4.0,-2.0,-2.0,0.122314453125,-0.26312255859375,0.92327880859375,-0.251708984375,0.08056640625,-0.5322265625,0.8369140625,1.875,9.375,-5.5
1.2449999999999954,1.0,-2.0,-3.0,-3.0,-8.0,-4.0,-2.0,-2.0,0.122314453125,-0.26312255859375,0.92327880859375,-0.251708984375,0.08056640625,-0.5322265625,0.8369140625,1.875,9.375,-5.5
1.2499999999999953,-11.0,-5.0,-3.0,-1.0,0.0,-3.0,-2.0,-4.0,0.122314453125,-0.26312255859375,0.92327880859375,-0.251708984375,0.08056640625,-0.5322265625,0.8369140625,1.875,9.375,-5.5
1.2549999999999952,2.0,0.0,0.0,-14.0,1.0,1.0,-3.0,-2.0,0.122314453125,-0.26312255859375,0.92327880859375,-0.251708984375,0.08056640625,-0.5322265625,0.8369140625,1.875,9.375,-5.5
1.2599999999999951,2.0,0.0,0.0,-14.0,1.0,1.0,-3.0,-2.0,0.122314453125,-0.26312255859375,0.92327880859375,-0.251708984375,0.08056640625,-0.5322265625,0.8369140625,1.875,9.375,-5.5
1.264999999999995,0.0,-1.0,-10.0,-12.0,0.0,0.0,-1.0,0.0,0.1207275390625,-0.26361083984375,0.9237060546875,-0.25048828125,0.05908203125,-0.52001953125,0.8212890625,-1.5,9.5625,-5.5625
1.269999999999995,0.0,-1.0,-10.0,-12.0,0.0,0.0,-1.0,0.0,0.1207275390625,-0.26361083984375,0.9237060546875,-0.25048828125,0.05908203125,-0.52001953125,0.8212890625,-1.5,9.5625,-5.5625
1.2749999999999948,0.0,-1.0,-10.0,-12.0,0.0,0.0,-1.0,0.0,0.1207275390625,-0.26361083984375,0.9237060546875,-0.25048828125,0.05908203125,-0.52001953125,0.8212890625,-1.5,9.5625,-5.5625
1.2799999999999947,-2.0,0.0,-3.0,-6.0,-4.0,-2.0,-3.0,-5.0,0.1207275390625,-0.26361083984375,0.9237060546875,-0.25048828125,0.05908203125,-0.52001953125,0.8212890625,-1.5,9.5625,-5.5625
1.2849999999999946,-5.0,-3.0,-8.0,6.0,-4.0,-3.0,-3.0,-3.0,0.11944580078125,-0.26507568359375,0.92388916015625,-0.248779296875,0.04541015625,-0.53564453125,0.80322265625,-6.875,9.1875,-7.6875
1.2899999999999945,-5.0,-3.0,-8.0,6.0,-4.0,-3.0,-3.0,-3.0,0.11944580078125,-0.26507568359375,0.92388916015625,-0.248779296875,0.04541015625,-0.53564453125,0.80322265625,-6.875,9.1875,-7.6875
1.2949999999999944,-5.0,-3.0,-8.0,6.0,-4.0,-3.0,-3.0,-3.0,0.11944580078125,-0.26507568359375,0.92388916015625,-0.248779296875,0.04541015625,-0.53564453125,0.80322265625,-6.875,9.1875,-7.6875
1.2999999999999943,-2.0,-3.0,-2.0,2.0,-1.0,-2.0,1.0,1.0,0.11944580078125,-0.26507568359375,0.92388916015625,-0.248779296875,0.04541015625,-0.53564453125,0.80322265625,-6.875,9.1875,-7.6875
1.3049999999999942,-2.0,-3.0,-2.0,2.0,-1.0,-2.0,1.0,1.0,0.11944580078125,-0.26507568359375,0.92388916015625,-0.248779296875,0.04541015625,-0.53564453125,0.80322265625,-6.875,9.1875,-7.6875
1.309999999999994,-2.0,-3.0,-2.0,2.0,-1.0,-2.0,1.0,1.0,0.11944580078125,-0.26507568359375,0.92388916015625,-0.248779296875,0.04541015625,-0.53564453125,0.80322265625,-6.875,9.1875,-7.6875
1.314999999999994,-3.0,-1.0,-5.0,-15.0,0.0,1.0,1.0,-1.0,0.11822509765625,-0.26727294921875,0.92388916015625,-0.246826171875,0.03466796875,-0.5546875,0.80419921875,-10.0625,9.625,-9.25
1.3199999999999938,-3.0,-1.0,-5.0,-15.0,0.0,1.0,1.0,-1.0,0.11822509765625,-0.26727294921875,0.92388916015625,-0.246826171875,0.03466796875,-0.5546875,0.80419921875,-10.0625,9.625,-9.25
1.3249999999999937,-3.0,-1.0,-5.0,-15.0,0.0,1.0,1.0,-1.0,0.11822509765625,-0.26727294921875,0.92388916015625,-0.246826171875,0.03466796875,-0.5546875,0.80419921875,-10.0625,9.625,-9.25
1.3299999999999936,3.0,-1.0,-8.0,-32.0,-6.0,-3.0,-1.0,1.0,0.11822509765625,-0.26727294921875,0.92388916015625,-0.246826171875,0.03466796875,-0.5546875,0.80419921875,-10.0625,9.625,-9.25
1.3349999999999935,3.0,-1.0,-8.0,-32.0,-6.0,-3.0,-1.0,1.0,0.11822509765625,-0.26727294921875,0.92388916015625,-0.246826171875,0.03466796875,-0.5546875,0.80419921875,-10.0625,9.625,-9.25
1.3399999999999934,3.0,-1.0,-8.0,-32.0,-6.0,-3.0,-1.0,1.0,0.1173095703125,-0.2689208984375,0.924072265625,-0.244873046875,0.046875,-0.56103515625,0.80029296875,-7.0625,8.3125,-9.5
1.3449999999999933,-2.0,-1.0,-3.0,-16.0,-2.0,1.0,1.0,0.0,0.1173095703125,-0.2689208984375,0.924072265625,-0.244873046875,0.046875,-0.56103515625,0.80029296875,-7.0625,8.3125,-9.5
1.3499999999999932,-2.0,-1.0,-3.0,-16.0,-2.0,1.0,1.0,0.0,0.1173095703125,-0.2689208984375,0.924072265625,-0.244873046875,0.046875,-0.56103515625,0.80029296875,-7.0625,8.3125,-9.5
1.354999999999993,-2.0,-1.0,-3.0,-16.0,-2.0,1.0,1.0,0.0,0.1173095703125,-0.2689208984375,0.924072265625,-0.244873046875,0.046875,-0.56103515625,0.80029296875,-7.0625,8.3125,-9.5
1.359999999999993,-2.0,-1.0,-3.0,-16.0,-2.0,1.0,1.0,0.0,0.1173095703125,-0.2689208984375,0.924072265625,-0.244873046875,0.046875,-0.56103515625,0.80029296875,-7.0625,8.3125,-9.5
1.3649999999999929,0.0,-1.0,-6.0,-21.0,0.0,0.0,-1.0,-1.0,0.1168212890625,-0.26995849609375,0.92437744140625,-0.2427978515625,0.06494140625,-0.5771484375,0.78857421875,-3.125,6.5625,-11.125
1.3699999999999928,0.0,-1.0,-6.0,-21.0,0.0,0.0,-1.0,-1.0,0.1168212890625,-0.26995849609375,0.92437744140625,-0.2427978515625,0.06494140625,-0.5771484375,0.78857421875,-3.125,6.5625,-11.125
1.3749999999999927,0.0,-1.0,-6.0,-21.0,0.0,0.0,-1.0,-1.0,0.1168212890625,-0.26995849609375,0.92437744140625,-0.2427978515625,0.06494140625,-0.5771484375,0.78857421875,-3.125,6.5625,-11.125
1.3799999999999926,0.0,-1.0,-6.0,-21.0,0.0,0.0,-1.0,-1.0,0.1168212890625,-0.26995849609375,0.92437744140625,-0.2427978515625,0.06494140625,-0.5771484375,0.78857421875,-3.125,6.5625,-11.125
1.3849999999999925,-2.0,-2.0,-1.0,-3.0,-2.0,-1.0,0.0,0.0,0.1168212890625,-0.26995849609375,0.92437744140625,-0.2427978515625,0.06494140625,-0.5771484375,0.78857421875,-3.125,6.5625,-11.125
1.3899999999999924,-2.0,-2.0,-1.0,-3.0,-2.0,-1.0,0.0,0.0,0.1168212890625,-0.26995849609375,0.92437744140625,-0.2427978515625,0.06494140625,-0.5771484375,0.78857421875,-3.125,6.5625,-11.125
1.3949999999999922,-2.0,-4.0,2.0,34.0,2.0,-4.0,-1.0,-3.0,0.1162109375,-0.27020263671875,0.9249267578125,-0.24072265625,0.0537109375,-0.58154296875,0.787109375,2.1875,5.4375,-11.9375
1.3999999999999921,-2.0,-4.0,2.0,34.0,2.0,-4.0,-1.0,-3.0,0.1162109375,-0.27020263671875,0.9249267578125,-0.24072265625,0.0537109375,-0.58154296875,0.787109375,2.1875,5.4375,-11.9375
1.404999999999992,-2.0,-4.0,2.0,34.0,2.0,-4.0,-1.0,-3.0,0.1162109375,-0.27020263671875,0.9249267578125,-0.24072265625,0.0537109375,-0.58154296875,0.787109375,2.1875,5.4375,-11.9375
1.409999999999992,-3.0,0.0,0.0,9.0,0.0,0.0,-1.0,-4.0,0.1162109375,-0.27020263671875,0.9249267578125,-0.24072265625,0.0537109375,-0.58154296875,0.787109375,2.1875,5.4375,-11.9375
1.4149999999999918,-3.0,0.0,0.0,9.0,0.0,0.0,-1.0,-4.0,0.1162109375,-0.27020263671875,0.9249267578125,-0.24072265625,0.0537109375,-0.58154296875,0.787109375,2.1875,5.4375,-11.9375
1.4199999999999917,-3.0,0.0,0.0,9.0,0.0,0.0,-1.0,-4.0,0.1162109375,-0.27020263671875,0.9249267578125,-0.24072265625,0.0537109375,-0.58154296875,0.787109375,2.1875,5.4375,-11.9375
1.4249999999999916,1.0,-1.0,3.0,4.0,-1.0,-1.0,0.0,-1.0,0.11553955078125,-0.2689208984375,0.92584228515625,-0.23907470703125,0.05078125,-0.56103515625,0.79931640625,9.375,2.875,-11.125
1.4299999999999915,1.0,-1.0,3.0,4.0,-1.0,-1.0,0.0,-1.0,0.11553955078125,-0.2689208984375,0.92584228515625,-0.23907470703125,0.05078125,-0.56103515625,0.79931640625,9.375,2.875,-11.125
1.4349999999999914,1.0,-1.0,3.0,4.0,-1.0,-1.0,0.0,-1.0,0.11553955078125,-0.2689208984375,0.92584228515625,-0.23907470703125,0.05078125,-0.56103515625,0.79931640625,9.375,2.875,-11.125
1.4399999999999913,1.0,-1.0,3.0,4.0,-1.0,-1.0,0.0,-1.0,0.11553955078125,-0.2689208984375,0.92584228515625,-0.23907470703125,0.05078125,-0.56103515625,0.79931640625,9.375,2.875,-11.125
1.4449999999999912,1.0,-1.0,3.0,4.0,-1.0,-1.0,0.0,-1.0,0.11553955078125,-0.2689208984375,0.92584228515625,-0.23907470703125,0.05078125,-0.56103515625,0.79931640625,9.375,2.875,-11.125
1.449999999999991,0.0,3.0,1.0,-19.0,-2.0,2.0,0.0,-5.0,0.115478515625,-0.26739501953125,0.9266357421875,-0.23773193359375,0.07666015625,-0.56201171875,0.806640625,10.1875,0.3125,-9.75
1.454999999999991,0.0,3.0,1.0,-19.0,-2.0,2.0,0.0,-5.0,0.115478515625,-0.26739501953125,0.9266357421875,-0.23773193359375,0.07666015625,-0.56201171875,0.806640625,10.1875,0.3125,-9.75
1.4599999999999909,0.0,3.0,1.0,-19.0,-2.0,2.0,0.0,-5.0,0.115478515625,-0.26739501953125,0.9266357421875,-0.23773193359375,0.07666015625,-0.56201171875,0.806640625,10.1875,0.3125,-9.75
1.4649999999999908,-1.0,-2.0,3.0,3.0,-3.0,-2.0,-2.0,-1.0,0.115478515625,-0.26739501953125,0.9266357421875,-0.23773193359375,0.07666015625,-0.56201171875,0.806640625,10.1875,0.3125,-9.75
1.4699999999999906,-1.0,-2.0,3.0,3.0,-3.0,-2.0,-2.0,-1.0,0.115478515625,-0.26739501953125,0.9266357421875,-0.23773193359375,0.07666015625,-0.56201171875,0.806640625,10.1875,0.3125,-9.75
1.4749999999999905,1.0,1.0,3.0,9.0,3.0,0.0,0.0,2.0,0.1156005859375,-0.2662353515625,0.92724609375,-0.23651123046875,0.07763671875,-0.55224609375,0.80859375,7.25,-0.375,-8.75
1.4799999999999904,1.0,1.0,3.0,9.0,3.0,0.0,0.0,2.0,0.1156005859375,-0.2662353515625,0.92724609375,-0.23651123046875,0.07763671875,-0.55224609375,0.80859375,7.25,-0.375,-8.75
1.4849999999999903,1.0,1.0,3.0,9.0,3.0,0.0,0.0,2.0,0.1156005859375,-0.2662353515625,0.92724609375,-0.23651123046875,0.07763671875,-0.55224609375,0.80859375,7.25,-0.375,-8.75
1.4899999999999902,-2.0,-2.0,1.0,-17.0,-11.0,-6.0,-5.0,-5.0,0.1156005859375,-0.2662353515625,0.92724609375,-0.23651123046875,0.07763671875,-0.55224609375,0.80859375,7.25,-0.375,-8.75
1.4949999999999901,-2.0,-2.0,1.0,-17.0,-11.0,-6.0,-5.0,-5.0,0.1156005859375,-0.2662353515625,0.92724609375,-0.23651123046875,0.07763671875,-0.55224609375,0.80859375,7.25,-0.375,-8.75
1.49999999999999,0.0,-2.0,0.0,-3.0,0.0,-3.0,-1.0,-1.0,0.11590576171875,-0.2657470703125,0.9276123046875,-0.23541259765625,0.0712890625,-0.5478515625,0.81591796875,2.5625,-1.5625,-7.8125
1.50499999999999,0.0,-2.0,0.0,-3.0,0.0,-3.0,-1.0,-1.0,0.11590576171875,-0.2657470703125,0.9276123046875,-0.23541259765625,0.0712890625,-0.5478515625,0.81591796875,2.5625,-1.5625,-7.8125
1.5099999999999898,3.0,3.0,6.0,-3.0,6.0,3.0,1.0,4.0,0.11590576171875,-0.2657470703125,0.9276123046875,-0.23541259765625,0.0712890625,-0.5478515625,0.81591796875,2.5625,-1.5625,-7.8125
1.5149999999999897,-4.0,-1.0,0.0,11.0,-1.0,-1.0,-3.0,0.0,0.11669921875,-0.26617431640625,0.9276123046875,-0.23468017578125,0.072265625,-0.5634765625,0.8203125,-2.625,-3.5,-5.8125
1.5199999999999896,-4.0,-1.0,0.0,11.0,-1.0,-1.0,-3.0,0.0,0.11669921875,-0.26617431640625,0.9276123046875,-0.23468017578125,0.072265625,-0.5634765625,0.8203125,-2.625,-3.5,-5.8125
1.5249999999999895,-4.0,-1.0,0.0,11.0,-1.0,-1.0,-3.0,0.0,0.11669921875,-0.26617431640625,0.9276123046875,-0.23468017578125,0.072265625,-0.5634765625,0.8203125,-2.625,-3.5,-5.8125
1.5299999999999894,-1.0,2.0,0.0,-1.0,1.0,0.0,0.0,0.0,0.11669921875,-0.26617431640625,0.9276123046875,-0.23468017578125,0.072265625,-0.5634765625,0.8203125,-2.625,-3.5,-5.8125
1.5349999999999893,-1.0,2.0,0.0,-1.0,1.0,0.0,0.0,0.0,0.11669921875,-0.26617431640625,0.9276123046875,-0.23468017578125,0.072265625,-0.5634765625,0.8203125,-2.625,-3.5,-5.8125
1.5399999999999892,-4.0,-1.0,1.0,4.0,-1.0,-2.0,-4.0,-5.0,0.1177978515625,-0.2664794921875,0.92755126953125,-0.23388671875,0.08837890625,-0.57666015625,0.8349609375,-2.3125,-4.5,-5.875
1.544999999999989,-4.0,-1.0,1.0,4.0,-1.0,-2.0,-4.0,-5.0,0.1177978515625,-0.2664794921875,0.92755126953125,-0.23388671875,0.08837890625,-0.57666015625,0.8349609375,-2.3125,-4.5,-5.875
1.549999999999989,-3.0,-4.0,-9.0,1.0,-8.0,-4.0,-3.0,-1.0,0.1177978515625,-0.2664794921875,0.92755126953125,-0.23388671875,0.08837890625,-0.57666015625,0.8349609375,-2.3125,-4.5,-5.875
1.5549999999999888,-4.0,1.0,0.0,15.0,2.0,-1.0,-2.0,1.0,0.1185302734375,-0.2662353515625,0.92767333984375,-0.2333984375,0.0830078125,-0.58837890625,0.845703125,1.5625,-4.4375,-4.9375
1.5599999999999887,-8.0,-1.0,1.0,-1.0,5.0,3.0,0.0,-9.0,0.1185302734375,-0.2662353515625,0.92767333984375,-0.2333984375,0.0830078125,-0.58837890625,0.845703125,1.5625,-4.4375,-4.9375
1.5649999999999886,-8.0,-1.0,1.0,-1.0,5.0,3.0,0.0,-9.0,0.1185302734375,-0.2662353515625,0.92767333984375,-0.2333984375,0.0830078125,-0.58837890625,0.845703125,1.5625,-4.4375,-4.9375
1.5699999999999885,2.0,2.0,3.0,24.0,9.0,1.0,1.0,1.0,0.11907958984375,-0.2650146484375,0.927978515625,-0.23333740234375,0.08447265625,-0.5751953125,0.845703125,7.25,-4.9375,-2.875
1.5749999999999884,-1.0,1.0,-4.0,-12.0,-2.0,-1.0,-1.0,2.0,0.11907958984375,-0.2650146484375,0.927978515625,-0.23333740234375,0.08447265625,-0.5751953125,0.845703125,7.25,-4.9375,-2.875
1.5799999999999883,-1.0,1.0,-4.0,-12.0,-2.0,-1.0,-1.0,2.0,0.11907958984375,-0.2650146484375,0.927978515625,-0.23333740234375,0.08447265625,-0.5751953125,0.845703125,7.25,-4.9375,-2.875
1.5849999999999882,0.0,-5.0,-9.0,-17.0,-8.0,-3.0,-1.0,0.0,0.11907958984375,-0.2650146484375,0.927978515625,-0.23333740234375,0.08447265625,-0.5751953125,0.845703125,7.25,-4.9375,-2.875
1.589999999999988,0.0,-5.0,-9.0,-17.0,-8.0,-3.0,-1.0,0.0,0.11956787109375,-0.26324462890625,0.9283447265625,-0.233642578125,0.1064453125,-0.55517578125,0.8515625,9.375,-5.0625,-1.0
1.594999999999988,5.0,0.0,1.0,-1.0,2.0,1.0,1.0,1.0,0.11956787109375,-0.26324462890625,0.9283447265625,-0.233642578125,0.1064453125,-0.55517578125,0.8515625,9.375,-5.0625,-1.0
1.5999999999999879,2.0,-3.0,-2.0,-13.0,-2.0,-2.0,-1.0,4.0,0.11956787109375,-0.26324462890625,0.9283447265625,-0.233642578125,0.1064453125,-0.55517578125,0.8515625,9.375,-5.0625,-1.0
1.6049999999999878,2.0,-3.0,-2.0,-13.0,-2.0,-2.0,-1.0,4.0,0.11956787109375,-0.26324462890625,0.9283447265625,-0.233642578125,0.1064453125,-0.55517578125,0.8515625,9.375,-5.0625,-1.0
1.6099999999999877,-6.0,-1.0,0.0,-2.0,-3.0,-3.0,-4.0,-7.0,0.11956787109375,-0.26324462890625,0.9283447265625,-0.233642578125,0.1064453125,-0.55517578125,0.8515625,9.375,-5.0625,-1.0
1.6149999999999876,0.0,-4.0,-5.0,0.0,-1.0,-1.0,-1.0,1.0,0.11956787109375,-0.26324462890625,0.9283447265625,-0.233642578125,0.1064453125,-0.55517578125,0.8515625,9.375,-5.0625,-1.0
1.6199999999999875,5.0,1.0,1.0,-13.0,-1.0,0.0,1.0,3.0,0.12005615234375,-0.261962890625,0.92852783203125,-0.234130859375,0.1123046875,-0.54345703125,0.8603515625,5.875,-4.3125,1.1875
1.6249999999999873,5.0,1.0,1.0,-13.0,-1.0,0.0,1.0,3.0,0.12005615234375,-0.261962890625,0.92852783203125,-0.234130859375,0.1123046875,-0.54345703125,0.8603515625,5.875,-4.3125,1.1875
1.6299999999999872,5.0,1.0,1.0,-13.0,-1.0,0.0,1.0,3.0,0.12005615234375,-0.261962890625,0.92852783203125,-0.234130859375,0.1123046875,-0.54345703125,0.8603515625,5.875,-4.3125,1.1875
1.6349999999999871,1.0,0.0,-3.0,-18.0,1.0,1.0,-1.0,0.0,0.120361328125,-0.26104736328125,0.92852783203125,-0.23480224609375,0.1123046875,-0.544921875,0.861328125,3.875,-3.625,2.875
1.639999999999987,2.0,0.0,0.0,21.0,2.0,1.0,0.0,0.0,0.120361328125,-0.26104736328125,0.92852783203125,-0.23480224609375,0.1123046875,-0.544921875,0.861328125,3.875,-3.625,2.875
1.644999999999987,2.0,0.0,0.0,21.0,2.0,1.0,0.0,0.0,0.120361328125,-0.26104736328125,0.92852783203125,-0.23480224609375,0.1123046875,-0.544921875,0.861328125,3.875,-3.625,2.875
1.6499999999999868,-2.0,1.0,-1.0,3.0,0.0,-1.0,0.0,-1.0,0.120361328125,-0.26104736328125,0.92852783203125,-0.23480224609375,0.1123046875,-0.544921875,0.861328125,3.875,-3.625,2.875
1.6549999999999867,-2.0,1.0,-1.0,3.0,0.0,-1.0,0.0,-1.0,0.120361328125,-0.26104736328125,0.92852783203125,-0.23480224609375,0.1123046875,-0.544921875,0.861328125,3.875,-3.625,2.875
1.6599999999999866,-2.0,1.0,-1.0,3.0,0.0,-1.0,0.0,-1.0,0.120361328125,-0.26104736328125,0.92852783203125,-0.23480224609375,0.1123046875,-0.544921875,0.861328125,3.875,-3.625,2.875
1.6649999999999865,0.0,0.0,-2.0,-16.0,-2.0,0.0,-1.0,2.0,0.12066650390625,-0.2603759765625,0.928466796875,-0.2357177734375,0.10009765625,-0.54736328125,0.85791015625,3.0625,-4.1875,4.125
1.6699999999999864,0.0,0.0,-2.0,-16.0,-2.0,0.0,-1.0,2.0,0.12066650390625,-0.2603759765625,0.928466796875,-0.2357177734375,0.10009765625,-0.54736328125,0.85791015625,3.0625,-4.1875,4.125
1.6749999999999863,-1.0,-2.0,-3.0,2.0,-1.0,0.0,0.0,-3.0,0.12066650390625,-0.2603759765625,0.928466796875,-0.2357177734375,0.10009765625,-0.54736328125,0.85791015625,3.0625,-4.1875,4.125
1.6799999999999862,-1.0,-2.0,-3.0,2.0,-1.0,0.0,0.0,-3.0,0.12066650390625,-0.2603759765625,0.928466796875,-0.2357177734375,0.10009765625,-0.54736328125,0.85791015625,3.0625,-4.1875,4.125
1.684999999999986,1.0,-2.0,-9.0,19.0,-4.0,-4.0,-3.0,-4.0,0.12109375,-0.2596435546875,0.9283447265625,-0.23663330078125,0.11181640625,-0.53271484375,0.861328125,2.4375,-4.125,4.1875
1.689999999999986,1.0,-2.0,-9.0,19.0,-4.0,-4.0,-3.0,-4.0,0.12109375,-0.2596435546875,0.9283447265625,-0.23663330078125,0.11181640625,-0.53271484375,0.861328125,2.4375,-4.125,4.1875
1.6949999999999859,1.0,-2.0,-9.0,19.0,-4.0,-4.0,-3.0,-4.0,0.12109375,-0.2596435546875,0.9283447265625,-0.23663330078125,0.11181640625,-0.53271484375,0.861328125,2.4375,-4.125,4.1875
1.6999999999999857,-7.0,0.0,-4.0,-11.0,-3.0,1.0,0.0,-4.0,0.12109375,-0.2596435546875,0.9283447265625,-0.23663330078125,0.11181640625,-0.53271484375,0.861328125,2.4375,-4.125,4.1875
1.7049999999999856,-3.0,-3.0,-2.0,-3.0,-11.0,-6.0,-4.0,-3.0,0.12139892578125,-0.25909423828125,0.92822265625,-0.237548828125,0.115234375,-0.5439453125,0.86865234375,1.9375,-3.375,4.625
1.7099999999999855,-3.0,-3.0,-2.0,-3.0,-11.0,-6.0,-4.0,-3.0,0.12139892578125,-0.25909423828125,0.92822265625,-0.237548828125,0.115234375,-0.5439453125,0.86865234375,1.9375,-3.375,4.625
1.7149999999999854,-1.0,2.0,-2.0,-16.0,1.0,0.0,0.0,-2.0,0.12139892578125,-0.25909423828125,0.92822265625,-0.237548828125,0.115234375,-0.5439453125,0.86865234375,1.9375,-3.375,4.625
1.7199999999999853,-4.0,-1.0,3.0,24.0,2.0,-2.0,-1.0,-3.0,0.1214599609375,-0.2586669921875,0.9281005859375,-0.23858642578125,0.10107421875,-0.5498046875,0.86962890625,2.3125,-2.875,5.1875
1.7249999999999852,-4.0,-1.0,3.0,24.0,2.0,-2.0,-1.0,-3.0,0.1214599609375,-0.2586669921875,0.9281005859375,-0.23858642578125,0.10107421875,-0.5498046875,0.86962890625,2.3125,-2.875,5.1875
1.729999999999985,-4.0,-1.0,3.0,24.0,2.0,-2.0,-1.0,-3.0,0.1214599609375,-0.2586669921875,0.9281005859375,-0.23858642578125,0.10107421875,-0.5498046875,0.86962890625,2.3125,-2.875,5.1875
1.734999999999985,-3.0,-1.0,2.0,3.0,2.0,0.0,-3.0,-2.0,0.1214599609375,-0.2586669921875,0.9281005859375,-0.23858642578125,0.10107421875,-0.5498046875,0.86962890625,2.3125,-2.875,5.1875
1.739999999999985,-3.0,-1.0,2.0,3.0,2.0,0.0,-3.0,-2.0,0.1214599609375,-0.2586669921875,0.9281005859375,-0.23858642578125,0.10107421875,-0.5498046875,0.86962890625,2.3125,-2.875,5.1875
1.7449999999999848,-3.0,-1.0,2.0,3.0,2.0,0.0,-3.0,-2.0,0.1214599609375,-0.2586669921875,0.9281005859375,-0.23858642578125,0.10107421875,-0.5498046875,0.86962890625,2.3125,-2.875,5.1875
1.7499999999999847,5.0,-2.0,-8.0,-6.0,-6.0,-2.0,-3.0,-3.0,0.1212158203125,-0.25750732421875,0.92816162109375,-0.23968505859375,0.09130859375,-0.53662109375,0.859375,6.375,-2.625,4.875
1.7549999999999846,5.0,-2.0,-8.0,-6.0,-6.0,-2.0,-3.0,-3.0,0.1212158203125,-0.25750732421875,0.92816162109375,-0.23968505859375,0.09130859375,-0.53662109375,0.859375,6.375,-2.625,4.875
1.7599999999999845,5.0,-2.0,-8.0,-6.0,-6.0,-2.0,-3.0,-3.0,0.1212158203125,-0.25750732421875,0.92816162109375,-0.23968505859375,0.09130859375,-0.53662109375,0.859375,6.375,-2.625,4.875
1.7649999999999844,-4.0,-1.0,2.0,-1.0,0.0,1.0,1.0,1.0,0.12103271484375,-0.255859375,0.9283447265625,-0.2408447265625,0.10888671875,-0.5244140625,0.8671875,8.5,-2.875,5.0
1.7699999999999843,-4.0,-1.0,2.0,-1.0,0.0,1.0,1.0,1.0,0.12103271484375,-0.255859375,0.9283447265625,-0.2408447265625,0.10888671875,-0.5244140625,0.8671875,8.5,-2.875,5.0
1.7749999999999841,3.0,-1.0,-1.0,-14.0,-1.0,1.0,-1.0,1.0,0.12103271484375,-0.255859375,0.9283447265625,-0.2408447265625,0.10888671875,-0.5244140625,0.8671875,8.5,-2.875,5.0
1.779999999999984,3.0,-1.0,-1.0,-14.0,-1.0,1.0,-1.0,1.0,0.12103271484375,-0.255859375,0.9283447265625,-0.2408447265625,0.10888671875,-0.5244140625,0.8671875,8.5,-2.875,5.0
1.784999999999984,0.0,1.0,5.0,3.0,4.0,1.0,0.0,2.0,0.1209716796875,-0.25445556640625,0.92852783203125,-0.24163818359375,0.10888671875,-0.51513671875,0.85888671875,6.4375,-2.375,3.625
1.7899999999999838,0.0,1.0,5.0,3.0,4.0,1.0,0.0,2.0,0.1209716796875,-0.25445556640625,0.92852783203125,-0.24163818359375,0.10888671875,-0.51513671875,0.85888671875,6.4375,-2.375,3.625
1.7949999999999837,0.0,1.0,5.0,3.0,4.0,1.0,0.0,2.0,0.1209716796875,-0.25445556640625,0.92852783203125,-0.24163818359375,0.10888671875,-0.51513671875,0.85888671875,6.4375,-2.375,3.625
1.7999999999999836,-4.0,-5.0,-4.0,18.0,-3.0,-4.0,-2.0,-3.0,0.1209716796875,-0.25445556640625,0.92852783203125,-0.24163818359375,0.10888671875,-0.51513671875,0.85888671875,6.4375,-2.375,3.625
1.8049999999999835,-4.0,-5.0,-4.0,18.0,-3.0,-4.0,-2.0,-3.0,0.1209716796875,-0.25445556640625,0.92852783203125,-0.24163818359375,0.10888671875,-0.51513671875,0.85888671875,6.4375,-2.375,3.625
1.8099999999999834,-3.0,-2.0,1.0,4.0,1.0,0.0,-2.0,0.0,0.1207275390625,-0.253662109375,0.92864990234375,-0.24212646484375,0.0927734375,-0.517578125,0.8671875,3.625,-0.9375,2.125
1.8149999999999833,-3.0,-2.0,1.0,4.0,1.0,0.0,-2.0,0.0,0.1207275390625,-0.253662109375,0.92864990234375,-0.24212646484375,0.0927734375,-0.517578125,0.8671875,3.625,-0.9375,2.125
1.8199999999999832,-3.0,-2.0,1.0,4.0,1.0,0.0,-2.0,0.0,0.1207275390625,-0.253662109375,0.92864990234375,-0.24212646484375,0.0927734375,-0.517578125,0.8671875,3.625,-0.9375,2.125
1.824999999999983,-3.0,-2.0,1.0,4.0,1.0,0.0,-2.0,0.0,0.1207275390625,-0.253662109375,0.92864990234375,-0.24212646484375,0.0927734375,-0.517578125,0.8671875,3.625,-0.9375,2.125
1.829999999999983,-2.0,-2.0,-5.0,-2.0,1.0,0.0,-1.0,-2.0,0.1207275390625,-0.253662109375,0.92864990234375,-0.24212646484375,0.0927734375,-0.517578125,0.8671875,3.625,-0.9375,2.125
1.8349999999999829,-2.0,-2.0,-5.0,-2.0,1.0,0.0,-1.0,-2.0,0.1207275390625,-0.253662109375,0.92864990234375,-0.24212646484375,0.0927734375,-0.517578125,0.8671875,3.625,-0.9375,2.125
1.8399999999999828,0.0,3.0,5.0,-2.0,1.0,-2.0,-1.0,-5.0,0.12042236328125,-0.253173828125,0.9287109375,-0.24261474609375,0.09912109375,-0.529296875,0.8525390625,3.0,-0.1875,2.375
1.8449999999999827,0.0,3.0,5.0,-2.0,1.0,-2.0,-1.0,-5.0,0.12042236328125,-0.253173828125,0.9287109375,-0.24261474609375,0.09912109375,-0.529296875,0.8525390625,3.0,-0.1875,2.375
1.8499999999999825,-5.0,-1.0,5.0,11.0,0.0,-2.0,-3.0,-1.0,0.12042236328125,-0.253173828125,0.9287109375,-0.24261474609375,0.09912109375,-0.529296875,0.8525390625,3.0,-0.1875,2.375
1.8549999999999824,-5.0,-1.0,5.0,11.0,0.0,-2.0,-3.0,-1.0,0.12042236328125,-0.253173828125,0.9287109375,-0.24261474609375,0.09912109375,-0.529296875,0.8525390625,3.0,-0.1875,2.375
1.8599999999999823,0.0,2.0,-4.0,-52.0,0.0,3.0,3.0,2.0,0.1202392578125,-0.25238037109375,0.92889404296875,-0.24285888671875,0.111328125,-0.5341796875,0.849609375,4.875,0.25,1.125
1.8649999999999822,0.0,2.0,-4.0,-52.0,0.0,3.0,3.0,2.0,0.1202392578125,-0.25238037109375,0.92889404296875,-0.24285888671875,0.111328125,-0.5341796875,0.849609375,4.875,0.25,1.125
1.8699999999999821,0.0,2.0,-4.0,-52.0,0.0,3.0,3.0,2.0,0.1202392578125,-0.25238037109375,0.92889404296875,-0.24285888671875,0.111328125,-0.5341796875,0.849609375,4.875,0.25,1.125
1.874999999999982,0.0,2.0,-4.0,-52.0,0.0,3.0,3.0,2.0,0.1202392578125,-0.25238037109375,0.92889404296875,-0.24285888671875,0.111328125,-0.5341796875,0.849609375,4.875,0.25,1.125
1.879999999999982,0.0,0.0,-6.0,-25.0,-4.0,-2.0,-1.0,1.0,0.1202392578125,-0.25238037109375,0.92889404296875,-0.24285888671875,0.111328125,-0.5341796875,0.849609375,4.875,0.25,1.125
1.8849999999999818,0.0,0.0,-6.0,-25.0,-4.0,-2.0,-1.0,1.0,0.1202392578125,-0.25238037109375,0.92889404296875,-0.24285888671875,0.111328125,-0.5341796875,0.849609375,4.875,0.25,1.125
1.8899999999999817,0.0,0.0,1.0,11.0,1.0,-1.0,-2.0,-1.0,0.1199951171875,-0.251220703125,0.92919921875,-0.242919921875,0.1123046875,-0.5185546875,0.84375,6.6875,0.4375,-0.25
1.8949999999999816,0.0,0.0,1.0,11.0,1.0,-1.0,-2.0,-1.0,0.1199951171875,-0.251220703125,0.92919921875,-0.242919921875,0.1123046875,-0.5185546875,0.84375,6.6875,0.4375,-0.25
1.8999999999999815,0.0,0.0,1.0,11.0,1.0,-1.0,-2.0,-1.0,0.1199951171875,-0.251220703125,0.92919921875,-0.242919921875,0.1123046875,-0.5185546875,0.84375,6.6875,0.4375,-0.25
1.9049999999999814,-5.0,-6.0,-9.0,-8.0,-10.0,-3.0,-5.0,-3.0,0.1199951171875,-0.251220703125,0.92919921875,-0.242919921875,0.1123046875,-0.5185546875,0.84375,6.6875,0.4375,-0.25
1.9099999999999813,-5.0,-6.0,-9.0,-8.0,-10.0,-3.0,-5.0,-3.0,0.1199951171875,-0.251220703125,0.92919921875,-0.242919921875,0.1123046875,-0.5185546875,0.84375,6.6875,0.4375,-0.25
1.9149999999999812,-5.0,-6.0,-9.0,-8.0,-10.0,-3.0,-5.0,-3.0,0.1199951171875,-0.251220703125,0.92919921875,-0.242919921875,0.1123046875,-0.5185546875,0.84375,6.6875,0.4375,-0.25
1.919999999999981,-2.0,-1.0,-5.0,-17.0,-2.0,0.0,2.0,1.0,0.119873046875,-0.2506103515625,0.929443359375,-0.2427978515625,0.115234375,-0.53125,0.8408203125,4.1875,1.125,-0.75
1.924999999999981,2.0,0.0,4.0,-18.0,3.0,3.0,2.0,0.0,0.119873046875,-0.2506103515625,0.929443359375,-0.2427978515625,0.115234375,-0.53125,0.8408203125,4.1875,1.125,-0.75
1.9299999999999808,2.0,0.0,4.0,-18.0,3.0,3.0,2.0,0.0,0.119873046875,-0.2506103515625,0.929443359375,-0.2427978515625,0.115234375,-0.53125,0.8408203125,4.1875,1.125,-0.75
1.9349999999999807,2.0,0.0,4.0,-18.0,3.0,3.0,2.0,0.0,0.119873046875,-0.2506103515625,0.929443359375,-0.2427978515625,0.115234375,-0.53125,0.8408203125,4.1875,1.125,-0.75
1.9399999999999806,-1.0,-3.0,-7.0,-13.0,-3.0,-2.0,1.0,-2.0,0.119384765625,-0.24969482421875,0.9298095703125,-0.2425537109375,0.1083984375,-0.52197265625,0.837890625,6.375,2.375,-1.5
1.9449999999999805,-1.0,-3.0,-7.0,-13.0,-3.0,-2.0,1.0,-2.0,0.119384765625,-0.24969482421875,0.9298095703125,-0.2425537109375,0.1083984375,-0.52197265625,0.837890625,6.375,2.375,-1.5
1.9499999999999804,-1.0,-3.0,-7.0,-13.0,-3.0,-2.0,1.0,-2.0,0.119384765625,-0.24969482421875,0.9298095703125,-0.2425537109375,0.1083984375,-0.52197265625,0.837890625,6.375,2.375,-1.5
1.9549999999999803,2.0,2.0,6.0,-5.0,0.0,0.0,2.0,0.0,0.119384765625,-0.24969482421875,0.9298095703125,-0.2425537109375,0.1083984375,-0.52197265625,0.837890625,6.375,2.375,-1.5
1.9599999999999802,2.0,2.0,6.0,-5.0,0.0,0.0,2.0,0.0,0.119384765625,-0.24969482421875,0.9298095703125,-0.2425537109375,0.1083984375,-0.52197265625,0.837890625,6.375,2.375,-1.5
1.96499999999998,2.0,2.0,6.0,-5.0,0.0,0.0,2.0,0.0,0.119384765625,-0.24969482421875,0.9298095703125,-0.2425537109375,0.1083984375,-0.52197265625,0.837890625,6.375,2.375,-1.5
1.96999999999998,-1.0,0.0,3.0,11.0,-1.0,-1.0,-2.0,0.0,0.11883544921875,-0.2484130859375,0.93023681640625,-0.242431640625,0.1064453125,-0.5029296875,0.84619140625,7.0,1.9375,-1.0625
1.9749999999999799,-1.0,0.0,3.0,11.0,-1.0,-1.0,-2.0,0.0,0.11883544921875,-0.2484130859375,0.93023681640625,-0.242431640625,0.1064453125,-0.5029296875,0.84619140625,7.0,1.9375,-1.0625
1.9799999999999798,-1.0,0.0,3.0,11.0,-1.0,-1.0,-2.0,0.0,0.11883544921875,-0.2484130859375,0.93023681640625,-0.242431640625,0.1064453125,-0.5029296875,0.84619140625,7.0,1.9375,-1.0625
1.9849999999999797,-1.0,0.0,3.0,11.0,-1.0,-1.0,-2.0,0.0,0.11883544921875,-0.2484130859375,0.93023681640625,-0.242431640625,0.1064453125,-0.5029296875,0.84619140625,7.0,1.9375,-1.0625
1.9899999999999796,0.0,-1.0,-3.0,2.0,0.0,-1.0,-1.0,-2.0,0.11883544921875,-0.2484130859375,0.93023681640625,-0.242431640625,0.1064453125,-0.5029296875,0.84619140625,7.0,1.9375,-1.0625
1.9949999999999795,0.0,-1.0,-3.0,2.0,0.0,-1.0,-1.0,-2.0,0.11883544921875,-0.2484130859375,0.93023681640625,-0.242431640625,0.1064453125,-0.5029296875,0.84619140625,7.0,1.9375,-1.0625
1.9999999999999793,-4.0,-4.0,-6.0,-3.0,-3.0,-2.0,-1.0,-2.0,0.11846923828125,-0.24786376953125,0.930419921875,-0.242431640625,0.09130859375,-0.498046875,0.837890625,2.75,0.6875,-0.1875
2.0049999999999795,-4.0,-4.0,-6.0,-3.0,-3.0,-2.0,-1.0,-2.0,0.11846923828125,-0.24786376953125,0.930419921875,-0.242431640625,0.09130859375,-0.498046875,0.837890625,2.75,0.6875,-0.1875
2.0099999999999794,-6.0,-3.0,-4.0,2.0,-6.0,-5.0,-4.0,-4.0,0.11846923828125,-0.24786376953125,0.930419921875,-0.242431640625,0.09130859375,-0.498046875,0.837890625,2.75,0.6875,-0.1875
2.0149999999999793,-6.0,-3.0,-4.0,2.0,-6.0,-5.0,-4.0,-4.0,0.11846923828125,-0.24786376953125,0.930419921875,-0.242431640625,0.09130859375,-0.498046875,0.837890625,2.75,0.6875,-0.1875
2.019999999999979,0.0,-2.0,-6.0,-21.0,-4.0,-3.0,-1.0,-2.0,0.11834716796875,-0.24774169921875,0.93048095703125,-0.24249267578125,0.07861328125,-0.5087890625,0.83349609375,1.0,-0.6875,-0.5
2.024999999999979,0.0,-2.0,-6.0,-21.0,-4.0,-3.0,-1.0,-2.0,0.11834716796875,-0.24774169921875,0.93048095703125,-0.24249267578125,0.07861328125,-0.5087890625,0.83349609375,1.0,-0.6875,-0.5
2.029999999999979,0.0,-2.0,-6.0,-21.0,-4.0,-3.0,-1.0,-2.0,0.11834716796875,-0.24774169921875,0.93048095703125,-0.24249267578125,0.07861328125,-0.5087890625,0.83349609375,1.0,-0.6875,-0.5
2.034999999999979,1.0,-3.0,-5.0,9.0,-1.0,-2.0,-2.0,0.0,0.11834716796875,-0.24774169921875,0.93048095703125,-0.24249267578125,0.07861328125,-0.5087890625,0.83349609375,1.0,-0.6875,-0.5
2.0399999999999787,1.0,-3.0,-5.0,9.0,-1.0,-2.0,-2.0,0.0,0.11834716796875,-0.24774169921875,0.93048095703125,-0.24249267578125,0.07861328125,-0.5087890625,0.83349609375,1.0,-0.6875,-0.5
2.0449999999999786,-11.0,-3.0,2.0,16.0,-1.0,-3.0,-3.0,-6.0,0.1182861328125,-0.24737548828125,0.9305419921875,-0.24267578125,0.06103515625,-0.50341796875,0.8359375,1.625,-2.75,-0.4375
2.0499999999999785,-11.0,-3.0,2.0,16.0,-1.0,-3.0,-3.0,-6.0,0.1182861328125,-0.24737548828125,0.9305419921875,-0.24267578125,0.06103515625,-0.50341796875,0.8359375,1.625,-2.75,-0.4375
2.0549999999999784,0.0,-1.0,-3.0,7.0,2.0,0.0,-1.0,0.0,0.1182861328125,-0.24737548828125,0.9305419921875,-0.24267578125,0.06103515625,-0.50341796875,0.8359375,1.625,-2.75,-0.4375
2.0599999999999783,0.0,-1.0,-3.0,7.0,2.0,0.0,-1.0,0.0,0.1182861328125,-0.24737548828125,0.9305419921875,-0.24267578125,0.06103515625,-0.50341796875,0.8359375,1.625,-2.75,-0.4375
2.064999999999978,5.0,2.0,6.0,-3.0,5.0,2.0,1.0,4.0,0.1187744140625,-0.246826171875,0.93048095703125,-0.2432861328125,0.0712890625,-0.4697265625,0.83740234375,0.1875,-6.0625,1.25
2.069999999999978,0.0,-1.0,1.0,10.0,1.0,-1.0,-1.0,-1.0,0.1187744140625,-0.246826171875,0.93048095703125,-0.2432861328125,0.0712890625,-0.4697265625,0.83740234375,0.1875,-6.0625,1.25
2.074999999999978,0.0,-1.0,1.0,10.0,1.0,-1.0,-1.0,-1.0,0.1187744140625,-0.246826171875,0.93048095703125,-0.2432861328125,0.0712890625,-0.4697265625,0.83740234375,0.1875,-6.0625,1.25
2.079999999999978,0.0,-1.0,1.0,10.0,1.0,-1.0,-1.0,-1.0,0.1187744140625,-0.246826171875,0.93048095703125,-0.2432861328125,0.0712890625,-0.4697265625,0.83740234375,0.1875,-6.0625,1.25
2.0849999999999778,-3.0,-1.0,-3.0,8.0,-4.0,-3.0,-4.0,-3.0,0.1202392578125,-0.2470703125,0.92999267578125,-0.2440185546875,0.08642578125,-0.46044921875,0.837890625,-6.6875,-9.6875,2.3125
2.0899999999999777,-3.0,-1.0,-3.0,8.0,-4.0,-3.0,-4.0,-3.0,0.1202392578125,-0.2470703125,0.92999267578125,-0.2440185546875,0.08642578125,-0.46044921875,0.837890625,-6.6875,-9.6875,2.3125
2.0949999999999775,-3.0,-1.0,-3.0,8.0,-4.0,-3.0,-4.0,-3.0,0.1202392578125,-0.2470703125,0.92999267578125,-0.2440185546875,0.08642578125,-0.46044921875,0.837890625,-6.6875,-9.6875,2.3125
2.0999999999999774,0.0,2.0,-1.0,-13.0,-1.0,0.0,2.0,-2.0,0.1202392578125,-0.2470703125,0.92999267578125,-0.2440185546875,0.08642578125,-0.46044921875,0.837890625,-6.6875,-9.6875,2.3125
2.1049999999999773,0.0,2.0,-1.0,-13.0,-1.0,0.0,2.0,-2.0,0.1202392578125,-0.2470703125,0.92999267578125,-0.2440185546875,0.08642578125,-0.46044921875,0.837890625,-6.6875,-9.6875,2.3125
2.1099999999999772,1.0,-1.0,3.0,1.0,0.0,-1.0,-1.0,2.0,0.12261962890625,-0.24871826171875,0.92913818359375,-0.24456787109375,0.10400390625,-0.4619140625,0.849609375,-16.6875,-12.0,2.375
2.114999999999977,1.0,-2.0,-4.0,8.0,1.0,0.0,-3.0,-1.0,0.12261962890625,-0.24871826171875,0.92913818359375,-0.24456787109375,0.10400390625,-0.4619140625,0.849609375,-16.6875,-12.0,2.375
2.119999999999977,1.0,-2.0,-4.0,8.0,1.0,0.0,-3.0,-1.0,0.12261962890625,-0.24871826171875,0.92913818359375,-0.24456787109375,0.10400390625,-0.4619140625,0.849609375,-16.6875,-12.0,2.375
2.124999999999977,-1.0,-1.0,4.0,15.0,-2.0,-2.0,-1.0,-1.0,0.12261962890625,-0.24871826171875,0.92913818359375,-0.24456787109375,0.10400390625,-0.4619140625,0.849609375,-16.6875,-12.0,2.375
2.129999999999977,-1.0,-1.0,4.0,15.0,-2.0,-2.0,-1.0,-1.0,0.12261962890625,-0.24871826171875,0.92913818359375,-0.24456787109375,0.10400390625,-0.4619140625,0.849609375,-16.6875,-12.0,2.375
2.1349999999999767,-1.0,-1.0,4.0,15.0,-2.0,-2.0,-1.0,-1.0,0.12567138671875,-0.2513427734375,0.9278564453125,-0.2449951171875,0.1416015625,-0.5078125,0.857421875,-21.625,-12.3125,2.9375
2.1399999999999766,1.0,0.0,-10.0,-60.0,-6.0,2.0,0.0,1.0,0.12567138671875,-0.2513427734375,0.9278564453125,-0.2449951171875,0.1416015625,-0.5078125,0.857421875,-21.625,-12.3125,2.9375
2.1449999999999765,1.0,0.0,-10.0,-60.0,-6.0,2.0,0.0,1.0,0.12567138671875,-0.2513427734375,0.9278564453125,-0.2449951171875,0.1416015625,-0.5078125,0.857421875,-21.625,-12.3125,2.9375
2.1499999999999764,2.0,2.0,5.0,21.0,5.0,1.0,0.0,0.0,0.12847900390625,-0.25433349609375,0.9266357421875,-0.2451171875,0.15673828125,-0.591796875,0.85986328125,-19.0,-9.25,1.625
2.1549999999999763,2.0,2.0,5.0,21.0,5.0,1.0,0.0,0.0,0.12847900390625,-0.25433349609375,0.9266357421875,-0.2451171875,0.15673828125,-0.591796875,0.85986328125,-19.0,-9.25,1.625
2.159999999999976,2.0,2.0,5.0,21.0,5.0,1.0,0.0,0.0,0.12847900390625,-0.25433349609375,0.9266357421875,-0.2451171875,0.15673828125,-0.591796875,0.85986328125,-19.0,-9.25,1.625
2.164999999999976,1.0,-1.0,1.0,-5.0,0.0,1.0,0.0,0.0,0.12847900390625,-0.25433349609375,0.9266357421875,-0.2451171875,0.15673828125,-0.591796875,0.85986328125,-19.0,-9.25,1.625
2.169999999999976,-3.0,-1.0,-1.0,4.0,-3.0,-2.0,-3.0,-3.0,0.1290283203125,-0.25567626953125,0.92633056640625,-0.2447509765625,0.07666015625,-0.64453125,0.8564453125,-3.0,-3.3125,-3.8125
2.174999999999976,-3.0,-1.0,-1.0,4.0,-3.0,-2.0,-3.0,-3.0,0.1290283203125,-0.25567626953125,0.92633056640625,-0.2447509765625,0.07666015625,-0.64453125,0.8564453125,-3.0,-3.3125,-3.8125
2.1799999999999757,-1.0,-4.0,-6.0,13.0,-1.0,-3.0,-2.0,-3.0,0.1290283203125,-0.25567626953125,0.92633056640625,-0.2447509765625,0.07666015625,-0.64453125,0.8564453125,-3.0,-3.3125,-3.8125
2.1849999999999756,-1.0,-4.0,-6.0,13.0,-1.0,-3.0,-2.0,-3.0,0.1290283203125,-0.25567626953125,0.92633056640625,-0.2447509765625,0.07666015625,-0.64453125,0.8564453125,-3.0,-3.3125,-3.8125
2.1899999999999755,1.0,1.0,-1.0,0.0,0.0,0.0,1.0,0.0,0.12750244140625,-0.2535400390625,0.92730712890625,-0.24395751953125,-0.00390625,-0.625,0.8486328125,19.4375,0.1875,-10.0625
2.1949999999999754,1.0,1.0,-1.0,0.0,0.0,0.0,1.0,0.0,0.12750244140625,-0.2535400390625,0.92730712890625,-0.24395751953125,-0.00390625,-0.625,0.8486328125,19.4375,0.1875,-10.0625
2.1999999999999753,1.0,1.0,-1.0,0.0,0.0,0.0,1.0,0.0,0.12750244140625,-0.2535400390625,0.92730712890625,-0.24395751953125,-0.00390625,-0.625,0.8486328125,19.4375,0.1875,-10.0625
2.204999999999975,1.0,1.0,-1.0,0.0,0.0,0.0,1.0,0.0,0.12750244140625,-0.2535400390625,0.92730712890625,-0.24395751953125,-0.00390625,-0.625,0.8486328125,19.4375,0.1875,-10.0625
2.209999999999975,1.0,1.0,-1.0,0.0,0.0,0.0,1.0,0.0,0.12750244140625,-0.2535400390625,0.92730712890625,-0.24395751953125,-0.00390625,-0.625,0.8486328125,19.4375,0.1875,-10.0625
2.214999999999975,-8.0,-5.0,-8.0,22.0,-16.0,-10.0,-8.0,-9.0,0.12603759765625,-0.24822998046875,0.92926025390625,-0.24267578125,0.04052734375,-0.5634765625,0.85693359375,33.875,-0.875,-14.3125
2.219999999999975,-8.0,-5.0,-8.0,22.0,-16.0,-10.0,-8.0,-9.0,0.12603759765625,-0.24822998046875,0.92926025390625,-0.24267578125,0.04052734375,-0.5634765625,0.85693359375,33.875,-0.875,-14.3125
2.2249999999999748,-3.0,-2.0,0.0,6.0,1.0,-2.0,-2.0,-1.0,0.12603759765625,-0.24822998046875,0.92926025390625,-0.24267578125,0.04052734375,-0.5634765625,0.85693359375,33.875,-0.875,-14.3125
2.2299999999999747,-3.0,-2.0,0.0,6.0,1.0,-2.0,-2.0,-1.0,0.12603759765625,-0.24822998046875,0.92926025390625,-0.24267578125,0.04052734375,-0.5634765625,0.85693359375,33.875,-0.875,-14.3125
2.2349999999999746,-3.0,-2.0,0.0,6.0,1.0,-2.0,-2.0,-1.0,0.126220703125,-0.24267578125,0.93115234375,-0.24090576171875,0.1552734375,-0.521484375,0.86669921875,30.625,-2.875,-15.0
2.2399999999999745,-3.0,-2.0,0.0,6.0,1.0,-2.0,-2.0,-1.0,0.126220703125,-0.24267578125,0.93115234375,-0.24090576171875,0.1552734375,-0.521484375,0.86669921875,30.625,-2.875,-15.0
2.2449999999999743,1.0,-1.0,-2.0,-14.0,2.0,1.0,-1.0,1.0,0.126220703125,-0.24267578125,0.93115234375,-0.24090576171875,0.1552734375,-0.521484375,0.86669921875,30.625,-2.875,-15.0
2.2499999999999742,-1.0,-1.0,0.0,24.0,-2.0,-3.0,-4.0,0.0,0.126220703125,-0.24267578125,0.93115234375,-0.24090576171875,0.1552734375,-0.521484375,0.86669921875,30.625,-2.875,-15.0
2.254999999999974,-1.0,-1.0,0.0,24.0,-2.0,-3.0,-4.0,0.0,0.126220703125,-0.24267578125,0.93115234375,-0.24090576171875,0.1552734375,-0.521484375,0.86669921875,30.625,-2.875,-15.0
2.259999999999974,-5.0,-9.0,-9.0,19.0,-6.0,-9.0,-6.0,-4.0,0.1270751953125,-0.239013671875,0.9324951171875,-0.23907470703125,0.185546875,-0.47119140625,0.85107421875,16.875,-2.1875,-12.75
2.264999999999974,-5.0,-9.0,-9.0,19.0,-6.0,-9.0,-6.0,-4.0,0.1270751953125,-0.239013671875,0.9324951171875,-0.23907470703125,0.185546875,-0.47119140625,0.85107421875,16.875,-2.1875,-12.75
2.269999999999974,-5.0,-9.0,-9.0,19.0,-6.0,-9.0,-6.0,-4.0,0.1270751953125,-0.239013671875,0.9324951171875,-0.23907470703125,0.185546875,-0.47119140625,0.85107421875,16.875,-2.1875,-12.75
2.2749999999999737,0.0,1.0,8.0,12.0,2.0,2.0,0.0,1.0,0.1278076171875,-0.238037109375,0.9329833984375,-0.23779296875,0.14013671875,-0.45458984375,0.84130859375,1.1875,-2.375,-8.5625
2.2799999999999736,0.0,-2.0,-17.0,-41.0,-5.0,1.0,1.0,-1.0,0.1278076171875,-0.238037109375,0.9329833984375,-0.23779296875,0.14013671875,-0.45458984375,0.84130859375,1.1875,-2.375,-8.5625
2.2849999999999735,0.0,-2.0,-17.0,-41.0,-5.0,1.0,1.0,-1.0,0.1278076171875,-0.238037109375,0.9329833984375,-0.23779296875,0.14013671875,-0.45458984375,0.84130859375,1.1875,-2.375,-8.5625
2.2899999999999734,-3.0,-3.0,-4.0,-9.0,-5.0,-2.0,-2.0,-3.0,0.1278076171875,-0.238037109375,0.9329833984375,-0.23779296875,0.14013671875,-0.45458984375,0.84130859375,1.1875,-2.375,-8.5625
2.2949999999999733,-3.0,-3.0,-4.0,-9.0,-5.0,-2.0,-2.0,-3.0,0.1278076171875,-0.238037109375,0.9329833984375,-0.23779296875,0.14013671875,-0.45458984375,0.84130859375,1.1875,-2.375,-8.5625
2.299999999999973,-1.0,-1.0,6.0,30.0,4.0,-1.0,2.0,1.0,0.12957763671875,-0.23980712890625,0.9324951171875,-0.23681640625,0.14599609375,-0.49169921875,0.8408203125,-13.75,-4.875,-4.875
2.304999999999973,-1.0,-1.0,6.0,30.0,4.0,-1.0,2.0,1.0,0.12957763671875,-0.23980712890625,0.9324951171875,-0.23681640625,0.14599609375,-0.49169921875,0.8408203125,-13.75,-4.875,-4.875
2.309999999999973,1.0,0.0,-4.0,11.0,2.0,0.0,0.0,2.0,0.12957763671875,-0.23980712890625,0.9324951171875,-0.23681640625,0.14599609375,-0.49169921875,0.8408203125,-13.75,-4.875,-4.875
2.314999999999973,1.0,0.0,-4.0,11.0,2.0,0.0,0.0,2.0,0.12957763671875,-0.23980712890625,0.9324951171875,-0.23681640625,0.14599609375,-0.49169921875,0.8408203125,-13.75,-4.875,-4.875
2.3199999999999728,1.0,0.0,9.0,16.0,4.0,2.0,-1.0,2.0,0.131591796875,-0.24249267578125,0.9317626953125,-0.23590087890625,0.1591796875,-0.5322265625,0.84912109375,-17.8125,-4.9375,-3.875
2.3249999999999726,1.0,0.0,9.0,16.0,4.0,2.0,-1.0,2.0,0.131591796875,-0.24249267578125,0.9317626953125,-0.23590087890625,0.1591796875,-0.5322265625,0.84912109375,-17.8125,-4.9375,-3.875
2.3299999999999725,1.0,0.0,9.0,16.0,4.0,2.0,-1.0,2.0,0.131591796875,-0.24249267578125,0.9317626953125,-0.23590087890625,0.1591796875,-0.5322265625,0.84912109375,-17.8125,-4.9375,-3.875
2.3349999999999724,1.0,0.0,9.0,16.0,4.0,2.0,-1.0,2.0,0.131591796875,-0.24249267578125,0.9317626953125,-0.23590087890625,0.1591796875,-0.5322265625,0.84912109375,-17.8125,-4.9375,-3.875
2.3399999999999723,0.0,1.0,-3.0,-17.0,-2.0,1.0,0.0,0.0,0.133056640625,-0.2445068359375,0.93115234375,-0.2353515625,0.13623046875,-0.5634765625,0.85888671875,-12.0625,-4.375,-3.0625
2.344999999999972,0.0,1.0,-3.0,-17.0,-2.0,1.0,0.0,0.0,0.133056640625,-0.2445068359375,0.93115234375,-0.2353515625,0.13623046875,-0.5634765625,0.85888671875,-12.0625,-4.375,-3.0625
2.349999999999972,0.0,1.0,-3.0,-17.0,-2.0,1.0,0.0,0.0,0.133056640625,-0.2445068359375,0.93115234375,-0.2353515625,0.13623046875,-0.5634765625,0.85888671875,-12.0625,-4.375,-3.0625
2.354999999999972,1.0,1.0,4.0,20.0,-5.0,-1.0,-3.0,-1.0,0.133056640625,-0.2445068359375,0.93115234375,-0.2353515625,0.13623046875,-0.5634765625,0.85888671875,-12.0625,-4.375,-3.0625
2.359999999999972,1.0,1.0,4.0,20.0,-5.0,-1.0,-3.0,-1.0,0.133056640625,-0.2445068359375,0.93115234375,-0.2353515625,0.13623046875,-0.5634765625,0.85888671875,-12.0625,-4.375,-3.0625
2.364999999999972,1.0,1.0,4.0,20.0,-5.0,-1.0,-3.0,-1.0,0.13372802734375,-0.24468994140625,0.9310302734375,-0.2352294921875,0.1201171875,-0.57275390625,0.8466796875,1.0625,-4.375,-2.1875
2.3699999999999717,1.0,1.0,3.0,-1.0,2.0,3.0,0.0,-2.0,0.13372802734375,-0.24468994140625,0.9310302734375,-0.2352294921875,0.1201171875,-0.57275390625,0.8466796875,1.0625,-4.375,-2.1875
2.3749999999999716,1.0,1.0,3.0,-1.0,2.0,3.0,0.0,-2.0,0.13372802734375,-0.24468994140625,0.9310302734375,-0.2352294921875,0.1201171875,-0.57275390625,0.8466796875,1.0625,-4.375,-2.1875
2.3799999999999715,1.0,1.0,3.0,-1.0,2.0,3.0,0.0,-2.0,0.13372802734375,-0.24468994140625,0.9310302734375,-0.2352294921875,0.1201171875,-0.57275390625,0.8466796875,1.0625,-4.375,-2.1875
2.3849999999999714,-1.0,0.0,1.0,-12.0,1.0,1.0,2.0,-1.0,0.13372802734375,-0.24468994140625,0.9310302734375,-0.2352294921875,0.1201171875,-0.57275390625,0.8466796875,1.0625,-4.375,-2.1875
2.3899999999999713,-1.0,0.0,1.0,-12.0,1.0,1.0,2.0,-1.0,0.13372802734375,-0.24468994140625,0.9310302734375,-0.2352294921875,0.1201171875,-0.57275390625,0.8466796875,1.0625,-4.375,-2.1875
2.394999999999971,-9.0,-5.0,-6.0,-13.0,-5.0,-3.0,-4.0,-2.0,0.13409423828125,-0.24273681640625,0.9315185546875,-0.23516845703125,0.13330078125,-0.54736328125,0.84619140625,12.3125,-4.3125,-3.5
2.399999999999971,-9.0,-5.0,-6.0,-13.0,-5.0,-3.0,-4.0,-2.0,0.13409423828125,-0.24273681640625,0.9315185546875,-0.23516845703125,0.13330078125,-0.54736328125,0.84619140625,12.3125,-4.3125,-3.5
2.404999999999971,-9.0,-5.0,-6.0,-13.0,-5.0,-3.0,-4.0,-2.0,0.13409423828125,-0.24273681640625,0.9315185546875,-0.23516845703125,0.13330078125,-0.54736328125,0.84619140625,12.3125,-4.3125,-3.5
2.409999999999971,-9.0,-5.0,-6.0,-13.0,-5.0,-3.0,-4.0,-2.0,0.13409423828125,-0.24273681640625,0.9315185546875,-0.23516845703125,0.13330078125,-0.54736328125,0.84619140625,12.3125,-4.3125,-3.5
2.4149999999999707,1.0,0.0,-1.0,17.0,6.0,-1.0,0.0,-2.0,0.13409423828125,-0.2398681640625,0.932373046875,-0.23492431640625,0.1220703125,-0.50390625,0.8515625,15.9375,-3.8125,-5.0625
2.4199999999999706,1.0,0.0,-1.0,17.0,6.0,-1.0,0.0,-2.0,0.13409423828125,-0.2398681640625,0.932373046875,-0.23492431640625,0.1220703125,-0.50390625,0.8515625,15.9375,-3.8125,-5.0625
2.4249999999999705,1.0,0.0,-1.0,17.0,6.0,-1.0,0.0,-2.0,0.13409423828125,-0.2398681640625,0.932373046875,-0.23492431640625,0.1220703125,-0.50390625,0.8515625,15.9375,-3.8125,-5.0625
2.4299999999999704,-3.0,-2.0,0.0,-12.0,-1.0,-3.0,0.0,-1.0,0.13409423828125,-0.2398681640625,0.932373046875,-0.23492431640625,0.1220703125,-0.50390625,0.8515625,15.9375,-3.8125,-5.0625
2.4349999999999703,-3.0,-2.0,0.0,-12.0,-1.0,-3.0,0.0,-1.0,0.13409423828125,-0.2398681640625,0.932373046875,-0.23492431640625,0.1220703125,-0.50390625,0.8515625,15.9375,-3.8125,-5.0625
2.43999999999997,-3.0,-2.0,0.0,-12.0,-1.0,-3.0,0.0,-1.0,0.13409423828125,-0.2398681640625,0.932373046875,-0.23492431640625,0.1220703125,-0.50390625,0.8515625,15.9375,-3.8125,-5.0625
2.44499999999997,2.0,2.0,2.0,-16.0,-1.0,2.0,3.0,2.0,0.1343994140625,-0.23760986328125,0.93292236328125,-0.2347412109375,0.13671875,-0.4609375,0.86083984375,9.0625,-4.375,-3.75
2.44999999999997,2.0,2.0,2.0,-16.0,-1.0,2.0,3.0,2.0,0.1343994140625,-0.23760986328125,0.93292236328125,-0.2347412109375,0.13671875,-0.4609375,0.86083984375,9.0625,-4.375,-3.75
2.45499999999997,2.0,2.0,2.0,-16.0,-1.0,2.0,3.0,2.0,0.1343994140625,-0.23760986328125,0.93292236328125,-0.2347412109375,0.13671875,-0.4609375,0.86083984375,9.0625,-4.375,-3.75
2.4599999999999698,1.0,0.0,-5.0,-36.0,-4.0,-2.0,0.0,0.0,0.1343994140625,-0.23760986328125,0.93292236328125,-0.2347412109375,0.13671875,-0.4609375,0.86083984375,9.0625,-4.375,-3.75
2.4649999999999697,1.0,0.0,-5.0,-36.0,-4.0,-2.0,0.0,0.0,0.1343994140625,-0.23760986328125,0.93292236328125,-0.2347412109375,0.13671875,-0.4609375,0.86083984375,9.0625,-4.375,-3.75
2.4699999999999696,0.0,1.0,8.0,19.0,0.0,-1.0,-1.0,0.0,0.1356201171875,-0.23809814453125,0.9327392578125,-0.234375,0.158203125,-0.46533203125,0.861328125,-7.8125,-4.5,-1.8125
2.4749999999999694,0.0,1.0,8.0,19.0,0.0,-1.0,-1.0,0.0,0.1356201171875,-0.23809814453125,0.9327392578125,-0.234375,0.158203125,-0.46533203125,0.861328125,-7.8125,-4.5,-1.8125
2.4799999999999693,0.0,1.0,8.0,19.0,0.0,-1.0,-1.0,0.0,0.1356201171875,-0.23809814453125,0.9327392578125,-0.234375,0.158203125,-0.46533203125,0.861328125,-7.8125,-4.5,-1.8125
2.4849999999999692,0.0,1.0,8.0,19.0,0.0,-1.0,-1.0,0.0,0.1356201171875,-0.23809814453125,0.9327392578125,-0.234375,0.158203125,-0.46533203125,0.861328125,-7.8125,-4.5,-1.8125
2.489999999999969,-1.0,-1.0,1.0,2.0,1.0,2.0,0.0,-2.0,0.13702392578125,-0.24102783203125,0.931884765625,-0.23394775390625,0.15380859375,-0.48779296875,0.86669921875,-21.25,-3.3125,-0.0625
2.494999999999969,0.0,-1.0,-1.0,-8.0,2.0,1.0,2.0,1.0,0.13702392578125,-0.24102783203125,0.931884765625,-0.23394775390625,0.15380859375,-0.48779296875,0.86669921875,-21.25,-3.3125,-0.0625
2.499999999999969,0.0,-1.0,-1.0,-8.0,2.0,1.0,2.0,1.0,0.13702392578125,-0.24102783203125,0.931884765625,-0.23394775390625,0.15380859375,-0.48779296875,0.86669921875,-21.25,-3.3125,-0.0625
2.504999999999969,-1.0,-3.0,0.0,18.0,-3.0,-4.0,-2.0,-2.0,0.13702392578125,-0.24102783203125,0.931884765625,-0.23394775390625,0.15380859375,-0.48779296875,0.86669921875,-21.25,-3.3125,-0.0625
2.5099999999999687,-1.0,-3.0,0.0,18.0,-3.0,-4.0,-2.0,-2.0,0.13702392578125,-0.24102783203125,0.931884765625,-0.23394775390625,0.15380859375,-0.48779296875,0.86669921875,-21.25,-3.3125,-0.0625
2.5149999999999686,-1.0,-3.0,0.0,18.0,-3.0,-4.0,-2.0,-2.0,0.13702392578125,-0.24102783203125,0.931884765625,-0.23394775390625,0.15380859375,-0.48779296875,0.86669921875,-21.25,-3.3125,-0.0625
2.5199999999999685,-1.0,0.0,-5.0,-17.0,-3.0,-1.0,-1.0,-2.0,0.1380615234375,-0.24462890625,0.93072509765625,-0.23419189453125,0.12353515625,-0.5302734375,0.87890625,-22.875,-3.5,3.4375
2.5249999999999684,-1.0,0.0,-5.0,-17.0,-3.0,-1.0,-1.0,-2.0,0.1380615234375,-0.24462890625,0.93072509765625,-0.23419189453125,0.12353515625,-0.5302734375,0.87890625,-22.875,-3.5,3.4375
2.5299999999999683,-1.0,0.0,-5.0,-17.0,-3.0,-1.0,-1.0,-2.0,0.1380615234375,-0.24462890625,0.93072509765625,-0.23419189453125,0.12353515625,-0.5302734375,0.87890625,-22.875,-3.5,3.4375
2.534999999999968,1.0,0.0,-7.0,-41.0,-5.0,0.0,0.0,0.0,0.1380615234375,-0.24462890625,0.93072509765625,-0.23419189453125,0.12353515625,-0.5302734375,0.87890625,-22.875,-3.5,3.4375
2.539999999999968,1.0,0.0,-7.0,-41.0,-5.0,0.0,0.0,0.0,0.1380615234375,-0.24462890625,0.93072509765625,-0.23419189453125,0.12353515625,-0.5302734375,0.87890625,-22.875,-3.5,3.4375
2.544999999999968,1.0,1.0,6.0,-5.0,-1.0,0.0,1.0,1.0,0.13909912109375,-0.2471923828125,0.92962646484375,-0.235107421875,0.1318359375,-0.57080078125,0.880859375,-14.8125,-5.1875,6.0
2.549999999999968,1.0,1.0,6.0,-5.0,-1.0,0.0,1.0,1.0,0.13909912109375,-0.2471923828125,0.92962646484375,-0.235107421875,0.1318359375,-0.57080078125,0.880859375,-14.8125,-5.1875,6.0
2.5549999999999677,1.0,1.0,6.0,-5.0,-1.0,0.0,1.0,1.0,0.13909912109375,-0.2471923828125,0.92962646484375,-0.235107421875,0.1318359375,-0.57080078125,0.880859375,-14.8125,-5.1875,6.0
2.5599999999999676,1.0,1.0,6.0,-5.0,-1.0,0.0,1.0,1.0,0.13909912109375,-0.2471923828125,0.92962646484375,-0.235107421875,0.1318359375,-0.57080078125,0.880859375,-14.8125,-5.1875,6.0
2.5649999999999675,2.0,0.0,0.0,-17.0,1.0,-1.0,0.0,0.0,0.1397705078125,-0.24725341796875,0.92919921875,-0.23651123046875,0.142578125,-0.5712890625,0.8818359375,0.375,-6.3125,6.8125
2.5699999999999674,2.0,0.0,0.0,-17.0,1.0,-1.0,0.0,0.0,0.1397705078125,-0.24725341796875,0.92919921875,-0.23651123046875,0.142578125,-0.5712890625,0.8818359375,0.375,-6.3125,6.8125
2.5749999999999673,2.0,0.0,0.0,-17.0,1.0,-1.0,0.0,0.0,0.1397705078125,-0.24725341796875,0.92919921875,-0.23651123046875,0.142578125,-0.5712890625,0.8818359375,0.375,-6.3125,6.8125
2.579999999999967,-3.0,-3.0,2.0,16.0,1.0,-3.0,-2.0,-2.0,0.1397705078125,-0.24725341796875,0.92919921875,-0.23651123046875,0.142578125,-0.5712890625,0.8818359375,0.375,-6.3125,6.8125
2.584999999999967,-3.0,-3.0,2.0,16.0,1.0,-3.0,-2.0,-2.0,0.1397705078125,-0.24725341796875,0.92919921875,-0.23651123046875,0.142578125,-0.5712890625,0.8818359375,0.375,-6.3125,6.8125
2.589999999999967,-3.0,-3.0,2.0,16.0,1.0,-3.0,-2.0,-2.0,0.1397705078125,-0.24725341796875,0.92919921875,-0.23651123046875,0.142578125,-0.5712890625,0.8818359375,0.375,-6.3125,6.8125
2.594999999999967,-3.0,-3.0,2.0,16.0,1.0,-3.0,-2.0,-2.0,0.13983154296875,-0.244873046875,0.92926025390625,-0.23870849609375,0.140625,-0.53662109375,0.88720703125,13.375,-7.4375,9.125
2.599999999999967,-4.0,-5.0,-8.0,-8.0,-9.0,-7.0,-6.0,-4.0,0.13983154296875,-0.244873046875,0.92926025390625,-0.23870849609375,0.140625,-0.53662109375,0.88720703125,13.375,-7.4375,9.125
2.6049999999999667,-4.0,-5.0,-8.0,-8.0,-9.0,-7.0,-6.0,-4.0,0.13983154296875,-0.244873046875,0.92926025390625,-0.23870849609375,0.140625,-0.53662109375,0.88720703125,13.375,-7.4375,9.125
2.6099999999999666,-4.0,-5.0,-8.0,-8.0,-9.0,-7.0,-6.0,-4.0,0.13983154296875,-0.244873046875,0.92926025390625,-0.23870849609375,0.140625,-0.53662109375,0.88720703125,13.375,-7.4375,9.125
2.6149999999999665,1.0,1.0,1.0,-3.0,1.0,3.0,-1.0,1.0,0.13983154296875,-0.244873046875,0.92926025390625,-0.23870849609375,0.140625,-0.53662109375,0.88720703125,13.375,-7.4375,9.125
2.6199999999999664,1.0,1.0,1.0,-3.0,1.0,3.0,-1.0,1.0,0.13983154296875,-0.244873046875,0.92926025390625,-0.23870849609375,0.140625,-0.53662109375,0.88720703125,13.375,-7.4375,9.125
2.6249999999999662,-1.0,1.0,0.0,-1.0,1.0,1.0,0.0,0.0,0.139892578125,-0.24169921875,0.929443359375,-0.24114990234375,0.15234375,-0.49365234375,0.89111328125,15.875,-7.9375,10.875
2.629999999999966,-1.0,1.0,0.0,-1.0,1.0,1.0,0.0,0.0,0.139892578125,-0.24169921875,0.929443359375,-0.24114990234375,0.15234375,-0.49365234375,0.89111328125,15.875,-7.9375,10.875
2.634999999999966,-1.0,1.0,0.0,-1.0,1.0,1.0,0.0,0.0,0.139892578125,-0.24169921875,0.929443359375,-0.24114990234375,0.15234375,-0.49365234375,0.89111328125,15.875,-7.9375,10.875
2.639999999999966,-1.0,1.0,0.0,-1.0,1.0,1.0,0.0,0.0,0.139892578125,-0.24169921875,0.929443359375,-0.24114990234375,0.15234375,-0.49365234375,0.89111328125,15.875,-7.9375,10.875
2.644999999999966,-3.0,-2.0,1.0,15.0,-3.0,-4.0,-5.0,-2.0,0.14056396484375,-0.24017333984375,0.92913818359375,-0.2432861328125,0.18115234375,-0.4931640625,0.8994140625,5.4375,-7.1875,11.125
2.6499999999999657,-3.0,-2.0,1.0,15.0,-3.0,-4.0,-5.0,-2.0,0.14056396484375,-0.24017333984375,0.92913818359375,-0.2432861328125,0.18115234375,-0.4931640625,0.8994140625,5.4375,-7.1875,11.125
2.6549999999999656,2.0,0.0,-7.0,-47.0,-6.0,1.0,1.0,1.0,0.14056396484375,-0.24017333984375,0.92913818359375,-0.2432861328125,0.18115234375,-0.4931640625,0.8994140625,5.4375,-7.1875,11.125
2.6599999999999655,2.0,0.0,-7.0,-47.0,-6.0,1.0,1.0,1.0,0.14056396484375,-0.24017333984375,0.92913818359375,-0.2432861328125,0.18115234375,-0.4931640625,0.8994140625,5.4375,-7.1875,11.125
2.6649999999999654,1.0,0.0,-1.0,-7.0,1.0,1.0,0.0,-2.0,0.141357421875,-0.240478515625,0.92852783203125,-0.24493408203125,0.1806640625,-0.51611328125,0.90966796875,-4.75,-5.125,9.8125
2.6699999999999653,1.0,0.0,-1.0,-7.0,1.0,1.0,0.0,-2.0,0.141357421875,-0.240478515625,0.92852783203125,-0.24493408203125,0.1806640625,-0.51611328125,0.90966796875,-4.75,-5.125,9.8125
2.674999999999965,1.0,0.0,-1.0,-7.0,1.0,1.0,0.0,-2.0,0.141357421875,-0.240478515625,0.92852783203125,-0.24493408203125,0.1806640625,-0.51611328125,0.90966796875,-4.75,-5.125,9.8125
2.679999999999965,-2.0,0.0,-6.0,-13.0,-1.0,0.0,0.0,-1.0,0.141357421875,-0.240478515625,0.92852783203125,-0.24493408203125,0.1806640625,-0.51611328125,0.90966796875,-4.75,-5.125,9.8125
2.684999999999965,-2.0,0.0,-6.0,-13.0,-1.0,0.0,0.0,-1.0,0.141357421875,-0.240478515625,0.92852783203125,-0.24493408203125,0.1806640625,-0.51611328125,0.90966796875,-4.75,-5.125,9.8125
2.689999999999965,-2.0,0.0,-6.0,-13.0,-1.0,0.0,0.0,-1.0,0.141357421875,-0.240478515625,0.92852783203125,-0.24493408203125,0.1806640625,-0.51611328125,0.90966796875,-4.75,-5.125,9.8125
2.6949999999999648,-1.0,-5.0,-5.0,-25.0,-5.0,-1.0,-1.0,0.0,0.14190673828125,-0.24151611328125,0.9278564453125,-0.24609375,0.17333984375,-0.5390625,0.908203125,-7.5,-2.625,8.3125
2.6999999999999647,-1.0,-5.0,-5.0,-25.0,-5.0,-1.0,-1.0,0.0,0.14190673828125,-0.24151611328125,0.9278564453125,-0.24609375,0.17333984375,-0.5390625,0.908203125,-7.5,-2.625,8.3125
2.7049999999999645,-4.0,-3.0,-4.0,13.0,-4.0,-4.0,-4.0,-3.0,0.14190673828125,-0.24151611328125,0.9278564453125,-0.24609375,0.17333984375,-0.5390625,0.908203125,-7.5,-2.625,8.3125
2.7099999999999644,3.0,1.0,-3.0,10.0,2.0,0.0,1.0,0.0,0.1419677734375,-0.24261474609375,0.92730712890625,-0.2470703125,0.17041015625,-0.54345703125,0.9072265625,-7.0625,0.125,7.3125
2.7149999999999643,3.0,1.0,-3.0,10.0,2.0,0.0,1.0,0.0,0.1419677734375,-0.24261474609375,0.92730712890625,-0.2470703125,0.17041015625,-0.54345703125,0.9072265625,-7.0625,0.125,7.3125
2.7199999999999642,-8.0,-3.0,-1.0,-17.0,-3.0,-1.0,1.0,-2.0,0.1419677734375,-0.24261474609375,0.92730712890625,-0.2470703125,0.17041015625,-0.54345703125,0.9072265625,-7.0625,0.125,7.3125
2.724999999999964,-1.0,-2.0,2.0,15.0,0.0,0.0,-1.0,-1.0,0.1419677734375,-0.24261474609375,0.92730712890625,-0.2470703125,0.17041015625,-0.54345703125,0.9072265625,-7.0625,0.125,7.3125
2.729999999999964,-1.0,-1.0,-1.0,-5.0,-4.0,1.0,0.0,-1.0,0.141357421875,-0.2432861328125,0.927001953125,-0.2479248046875,0.1572265625,-0.54296875,0.900390625,-3.625,3.125,6.8125
2.734999999999964,-1.0,-1.0,-1.0,-5.0,-4.0,1.0,0.0,-1.0,0.141357421875,-0.2432861328125,0.927001953125,-0.2479248046875,0.1572265625,-0.54296875,0.900390625,-3.625,3.125,6.8125
2.739999999999964,-1.0,-1.0,-1.0,-5.0,-4.0,1.0,0.0,-1.0,0.141357421875,-0.2432861328125,0.927001953125,-0.2479248046875,0.1572265625,-0.54296875,0.900390625,-3.625,3.125,6.8125
2.7449999999999637,0.0,0.0,3.0,6.0,0.0,0.0,0.0,-1.0,0.141357421875,-0.2432861328125,0.927001953125,-0.2479248046875,0.1572265625,-0.54296875,0.900390625,-3.625,3.125,6.8125
2.7499999999999636,0.0,0.0,3.0,6.0,0.0,0.0,0.0,-1.0,0.141357421875,-0.2432861328125,0.927001953125,-0.2479248046875,0.1572265625,-0.54296875,0.900390625,-3.625,3.125,6.8125
2.7549999999999635,-1.0,1.0,-1.0,0.0,-2.0,0.0,-1.0,2.0,0.14019775390625,-0.24359130859375,0.9268798828125,-0.24871826171875,0.1455078125,-0.5361328125,0.8896484375,-0.125,5.25,6.25
2.7599999999999634,-1.0,1.0,-1.0,0.0,-2.0,0.0,-1.0,2.0,0.14019775390625,-0.24359130859375,0.9268798828125,-0.24871826171875,0.1455078125,-0.5361328125,0.8896484375,-0.125,5.25,6.25
2.7649999999999633,-1.0,1.0,-1.0,0.0,-2.0,0.0,-1.0,2.0,0.14019775390625,-0.24359130859375,0.9268798828125,-0.24871826171875,0.1455078125,-0.5361328125,0.8896484375,-0.125,5.25,6.25
2.769999999999963,-1.0,-1.0,-4.0,-19.0,-5.0,-1.0,-1.0,-3.0,0.13873291015625,-0.24359130859375,0.92694091796875,-0.2493896484375,0.1533203125,-0.5283203125,0.87255859375,1.6875,7.6875,6.1875
2.774999999999963,-1.0,-1.0,-4.0,-19.0,-5.0,-1.0,-1.0,-3.0,0.13873291015625,-0.24359130859375,0.92694091796875,-0.2493896484375,0.1533203125,-0.5283203125,0.87255859375,1.6875,7.6875,6.1875
2.779999999999963,-1.0,-1.0,-4.0,-19.0,-5.0,-1.0,-1.0,-3.0,0.13873291015625,-0.24359130859375,0.92694091796875,-0.2493896484375,0.1533203125,-0.5283203125,0.87255859375,1.6875,7.6875,6.1875
2.784999999999963,-3.0,-2.0,4.0,34.0,3.0,-1.0,-1.0,-1.0,0.13873291015625,-0.24359130859375,0.92694091796875,-0.2493896484375,0.1533203125,-0.5283203125,0.87255859375,1.6875,7.6875,6.1875
2.7899999999999627,-3.0,-2.0,4.0,34.0,3.0,-1.0,-1.0,-1.0,0.13873291015625,-0.24359130859375,0.92694091796875,-0.2493896484375,0.1533203125,-0.5283203125,0.87255859375,1.6875,7.6875,6.1875
2.7949999999999626,-4.0,0.0,-1.0,-3.0,-2.0,0.0,0.0,1.0,0.1368408203125,-0.2437744140625,0.92694091796875,-0.25006103515625,0.13916015625,-0.52294921875,0.85400390625,2.1875,9.75,6.5625
2.7999999999999625,-4.0,0.0,-1.0,-3.0,-2.0,0.0,0.0,1.0,0.1368408203125,-0.2437744140625,0.92694091796875,-0.25006103515625,0.13916015625,-0.52294921875,0.85400390625,2.1875,9.75,6.5625
2.8049999999999624,-4.0,0.0,-1.0,-3.0,-2.0,0.0,0.0,1.0,0.1368408203125,-0.2437744140625,0.92694091796875,-0.25006103515625,0.13916015625,-0.52294921875,0.85400390625,2.1875,9.75,6.5625
2.8099999999999623,-2.0,-2.0,-7.0,-11.0,-7.0,-3.0,-2.0,-2.0,0.1368408203125,-0.2437744140625,0.92694091796875,-0.25006103515625,0.13916015625,-0.52294921875,0.85400390625,2.1875,9.75,6.5625
2.814999999999962,-2.0,-2.0,-7.0,-11.0,-7.0,-3.0,-2.0,-2.0,0.1368408203125,-0.2437744140625,0.92694091796875,-0.25006103515625,0.13916015625,-0.52294921875,0.85400390625,2.1875,9.75,6.5625
2.819999999999962,-1.0,-1.0,0.0,-1.0,2.0,-1.0,-2.0,-2.0,0.13446044921875,-0.2440185546875,0.92706298828125,-0.25067138671875,0.099609375,-0.509765625,0.8447265625,2.0625,10.4375,5.5625
2.824999999999962,-1.0,-1.0,0.0,-1.0,2.0,-1.0,-2.0,-2.0,0.13446044921875,-0.2440185546875,0.92706298828125,-0.25067138671875,0.099609375,-0.509765625,0.8447265625,2.0625,10.4375,5.5625
2.829999999999962,-1.0,-1.0,0.0,-1.0,2.0,-1.0,-2.0,-2.0,0.13446044921875,-0.2440185546875,0.92706298828125,-0.25067138671875,0.099609375,-0.509765625,0.8447265625,2.0625,10.4375,5.5625
2.8349999999999618,-1.0,-1.0,0.0,-1.0,2.0,-1.0,-2.0,-2.0,0.13446044921875,-0.2440185546875,0.92706298828125,-0.25067138671875,0.099609375,-0.509765625,0.8447265625,2.0625,10.4375,5.5625
2.8399999999999617,1.0,-1.0,1.0,6.0,1.0,-2.0,-1.0,-2.0,0.1322021484375,-0.24432373046875,0.92718505859375,-0.25115966796875,0.08447265625,-0.50341796875,0.837890625,1.375,9.625,4.4375
2.8449999999999616,-1.0,-1.0,-3.0,0.0,-1.0,0.0,0.0,-1.0,0.1322021484375,-0.24432373046875,0.92718505859375,-0.25115966796875,0.08447265625,-0.50341796875,0.837890625,1.375,9.625,4.4375
2.8499999999999615,-2.0,-2.0,1.0,13.0,2.0,0.0,-3.0,-1.0,0.1322021484375,-0.24432373046875,0.92718505859375,-0.25115966796875,0.08447265625,-0.50341796875,0.837890625,1.375,9.625,4.4375
2.8549999999999613,-2.0,-2.0,1.0,13.0,2.0,0.0,-3.0,-1.0,0.1322021484375,-0.24432373046875,0.92718505859375,-0.25115966796875,0.08447265625,-0.50341796875,0.837890625,1.375,9.625,4.4375
2.8599999999999612,-2.0,-2.0,1.0,13.0,2.0,0.0,-3.0,-1.0,0.1322021484375,-0.24432373046875,0.92718505859375,-0.25115966796875,0.08447265625,-0.50341796875,0.837890625,1.375,9.625,4.4375
2.864999999999961,0.0,-2.0,-5.0,-26.0,-2.0,-2.0,-2.0,-3.0,0.130615234375,-0.24462890625,0.92724609375,-0.2515869140625,0.11083984375,-0.50390625,0.83349609375,0.6875,8.0625,4.625
2.869999999999961,0.0,-2.0,-5.0,-26.0,-2.0,-2.0,-2.0,-3.0,0.130615234375,-0.24462890625,0.92724609375,-0.2515869140625,0.11083984375,-0.50390625,0.83349609375,0.6875,8.0625,4.625
2.874999999999961,-3.0,-4.0,-6.0,-23.0,-9.0,-3.0,-2.0,-1.0,0.130615234375,-0.24462890625,0.92724609375,-0.2515869140625,0.11083984375,-0.50390625,0.83349609375,0.6875,8.0625,4.625
2.879999999999961,0.0,0.0,1.0,11.0,2.0,-1.0,-2.0,0.0,0.130615234375,-0.24462890625,0.92724609375,-0.2515869140625,0.11083984375,-0.50390625,0.83349609375,0.6875,8.0625,4.625
2.8849999999999607,-3.0,1.0,-2.0,-18.0,-4.0,-1.0,-2.0,-3.0,0.1292724609375,-0.24505615234375,0.92718505859375,-0.25213623046875,0.11669921875,-0.486328125,0.81591796875,-1.0,6.9375,5.3125
2.8899999999999606,-3.0,1.0,-2.0,-18.0,-4.0,-1.0,-2.0,-3.0,0.1292724609375,-0.24505615234375,0.92718505859375,-0.25213623046875,0.11669921875,-0.486328125,0.81591796875,-1.0,6.9375,5.3125
2.8949999999999605,-1.0,-2.0,1.0,30.0,-1.0,-3.0,-4.0,-2.0,0.1292724609375,-0.24505615234375,0.92718505859375,-0.25213623046875,0.11669921875,-0.486328125,0.81591796875,-1.0,6.9375,5.3125
2.8999999999999604,-1.0,-2.0,0.0,11.0,3.0,-1.0,-1.0,2.0,0.12823486328125,-0.2462158203125,0.9268798828125,-0.25262451171875,0.091796875,-0.49072265625,0.8154296875,-5.4375,5.4375,5.0
2.9049999999999603,-1.0,-2.0,0.0,11.0,3.0,-1.0,-1.0,2.0,0.12823486328125,-0.2462158203125,0.9268798828125,-0.25262451171875,0.091796875,-0.49072265625,0.8154296875,-5.4375,5.4375,5.0
2.90999999999996,-1.0,-2.0,0.0,11.0,3.0,-1.0,-1.0,2.0,0.12823486328125,-0.2462158203125,0.9268798828125,-0.25262451171875,0.091796875,-0.49072265625,0.8154296875,-5.4375,5.4375,5.0
2.91499999999996,-1.0,-1.0,2.0,1.0,-2.0,-1.0,1.0,0.0,0.12823486328125,-0.2462158203125,0.9268798828125,-0.25262451171875,0.091796875,-0.49072265625,0.8154296875,-5.4375,5.4375,5.0
2.91999999999996,-1.0,-1.0,2.0,1.0,-2.0,-1.0,1.0,0.0,0.12823486328125,-0.2462158203125,0.9268798828125,-0.25262451171875,0.091796875,-0.49072265625,0.8154296875,-5.4375,5.4375,5.0
2.92499999999996,0.0,0.0,4.0,2.0,3.0,1.0,0.0,-1.0,0.12744140625,-0.247314453125,0.926513671875,-0.25323486328125,0.08837890625,-0.49951171875,0.82080078125,-5.5,3.375,4.9375
2.9299999999999597,0.0,0.0,4.0,2.0,3.0,1.0,0.0,-1.0,0.12744140625,-0.247314453125,0.926513671875,-0.25323486328125,0.08837890625,-0.49951171875,0.82080078125,-5.5,3.375,4.9375
2.9349999999999596,0.0,0.0,4.0,2.0,3.0,1.0,0.0,-1.0,0.12744140625,-0.247314453125,0.926513671875,-0.25323486328125,0.08837890625,-0.49951171875,0.82080078125,-5.5,3.375,4.9375
2.9399999999999595,-1.0,-1.0,-1.0,4.0,0.0,1.0,-1.0,-1.0,0.12744140625,-0.247314453125,0.926513671875,-0.25323486328125,0.08837890625,-0.49951171875,0.82080078125,-5.5,3.375,4.9375
2.9449999999999594,-1.0,-1.0,-1.0,4.0,0.0,1.0,-1.0,-1.0,0.12744140625,-0.247314453125,0.926513671875,-0.25323486328125,0.08837890625,-0.49951171875,0.82080078125,-5.5,3.375,4.9375
2.9499999999999593,-1.0,-1.0,2.0,19.0,1.0,-1.0,-1.0,-2.0,0.12738037109375,-0.24822998046875,0.92608642578125,-0.25390625,0.11376953125,-0.50732421875,0.828125,-5.125,0.6875,4.9375
2.954999999999959,-1.0,-1.0,2.0,19.0,1.0,-1.0,-1.0,-2.0,0.12738037109375,-0.24822998046875,0.92608642578125,-0.25390625,0.11376953125,-0.50732421875,0.828125,-5.125,0.6875,4.9375
2.959999999999959,-1.0,-1.0,2.0,19.0,1.0,-1.0,-1.0,-2.0,0.12738037109375,-0.24822998046875,0.92608642578125,-0.25390625,0.11376953125,-0.50732421875,0.828125,-5.125,0.6875,4.9375
2.964999999999959,-1.0,-1.0,2.0,19.0,1.0,-1.0,-1.0,-2.0,0.12738037109375,-0.24822998046875,0.92608642578125,-0.25390625,0.11376953125,-0.50732421875,0.828125,-5.125,0.6875,4.9375
2.969999999999959,-1.0,-1.0,2.0,19.0,1.0,-1.0,-1.0,-2.0,0.12738037109375,-0.24822998046875,0.92608642578125,-0.25390625,0.11376953125,-0.50732421875,0.828125,-5.125,0.6875,4.9375
2.974999999999959,-4.0,-4.0,-9.0,-7.0,-3.0,-1.0,-2.0,-2.0,0.127685546875,-0.2490234375,0.9256591796875,-0.2545166015625,0.126953125,-0.50390625,0.81884765625,-5.3125,-0.4375,4.75
2.9799999999999587,-4.0,-4.0,-9.0,-7.0,-3.0,-1.0,-2.0,-2.0,0.127685546875,-0.2490234375,0.9256591796875,-0.2545166015625,0.126953125,-0.50390625,0.81884765625,-5.3125,-0.4375,4.75
2.9849999999999586,-4.0,-4.0,-9.0,-7.0,-3.0,-1.0,-2.0,-2.0,0.127685546875,-0.2490234375,0.9256591796875,-0.2545166015625,0.126953125,-0.50390625,0.81884765625,-5.3125,-0.4375,4.75
2.9899999999999585,-1.0,-2.0,-3.0,-7.0,-1.0,-2.0,-1.0,-3.0,0.127685546875,-0.2490234375,0.9256591796875,-0.2545166015625,0.126953125,-0.50390625,0.81884765625,-5.3125,-0.4375,4.75
2.9949999999999584,-1.0,-2.0,-3.0,-7.0,-1.0,-2.0,-1.0,-3.0,0.127685546875,-0.2490234375,0.9256591796875,-0.2545166015625,0.126953125,-0.50390625,0.81884765625,-5.3125,-0.4375,4.75
2.9999999999999583,1.0,-2.0,-3.0,9.0,1.0,-1.0,0.0,0.0,0.128173828125,-0.24969482421875,0.92529296875,-0.25494384765625,0.12890625,-0.51513671875,0.8330078125,-5.125,-1.375,3.5
3.004999999999958,1.0,-2.0,-3.0,9.0,1.0,-1.0,0.0,0.0,0.128173828125,-0.24969482421875,0.92529296875,-0.25494384765625,0.12890625,-0.51513671875,0.8330078125,-5.125,-1.375,3.5
3.009999999999958,1.0,-2.0,-3.0,9.0,1.0,-1.0,0.0,0.0,0.128173828125,-0.24969482421875,0.92529296875,-0.25494384765625,0.12890625,-0.51513671875,0.8330078125,-5.125,-1.375,3.5
3.014999999999958,1.0,-2.0,-3.0,9.0,1.0,-1.0,0.0,0.0,0.128173828125,-0.24969482421875,0.92529296875,-0.25494384765625,0.12890625,-0.51513671875,0.8330078125,-5.125,-1.375,3.5
3.019999999999958,2.0,2.0,9.0,22.0,6.0,4.0,1.0,1.0,0.128173828125,-0.24969482421875,0.92529296875,-0.25494384765625,0.12890625,-0.51513671875,0.8330078125,-5.125,-1.375,3.5
3.0249999999999577,2.0,2.0,9.0,22.0,6.0,4.0,1.0,1.0,0.128173828125,-0.24969482421875,0.92529296875,-0.25494384765625,0.12890625,-0.51513671875,0.8330078125,-5.125,-1.375,3.5
3.0299999999999576,1.0,1.0,3.0,-5.0,-2.0,1.0,1.0,0.0,0.1290283203125,-0.25042724609375,0.9249267578125,-0.2552490234375,0.14404296875,-0.52685546875,0.83544921875,-5.3125,-1.9375,2.875
3.0349999999999575,1.0,1.0,3.0,-5.0,-2.0,1.0,1.0,0.0,0.1290283203125,-0.25042724609375,0.9249267578125,-0.2552490234375,0.14404296875,-0.52685546875,0.83544921875,-5.3125,-1.9375,2.875
3.0399999999999574,1.0,1.0,3.0,-5.0,-2.0,1.0,1.0,0.0,0.1290283203125,-0.25042724609375,0.9249267578125,-0.2552490234375,0.14404296875,-0.52685546875,0.83544921875,-5.3125,-1.9375,2.875
3.0449999999999573,1.0,1.0,3.0,-5.0,-2.0,1.0,1.0,0.0,0.1290283203125,-0.25042724609375,0.9249267578125,-0.2552490234375,0.14404296875,-0.52685546875,0.83544921875,-5.3125,-1.9375,2.875
3.049999999999957,0.0,-2.0,1.0,-6.0,2.0,0.0,0.0,1.0,0.1295166015625,-0.25091552734375,0.9246826171875,-0.25537109375,0.1376953125,-0.5458984375,0.83740234375,-2.5625,-1.0,1.375
3.054999999999957,0.0,-2.0,1.0,-6.0,2.0,0.0,0.0,1.0,0.1295166015625,-0.25091552734375,0.9246826171875,-0.25537109375,0.1376953125,-0.5458984375,0.83740234375,-2.5625,-1.0,1.375
3.059999999999957,-1.0,1.0,2.0,13.0,1.0,-2.0,-2.0,-1.0,0.1295166015625,-0.25091552734375,0.9246826171875,-0.25537109375,0.1376953125,-0.5458984375,0.83740234375,-2.5625,-1.0,1.375
3.064999999999957,-1.0,1.0,2.0,13.0,1.0,-2.0,-2.0,-1.0,0.1295166015625,-0.25091552734375,0.9246826171875,-0.25537109375,0.1376953125,-0.5458984375,0.83740234375,-2.5625,-1.0,1.375
3.0699999999999568,-1.0,-1.0,-1.0,-10.0,-2.0,-2.0,-1.0,-1.0,0.1295166015625,-0.25091552734375,0.9246826171875,-0.25537109375,0.1376953125,-0.5458984375,0.83740234375,-2.5625,-1.0,1.375
3.0749999999999567,-1.0,-1.0,-1.0,-10.0,-2.0,-2.0,-1.0,-1.0,0.1295166015625,-0.25091552734375,0.9246826171875,-0.25537109375,0.1376953125,-0.5458984375,0.83740234375,-2.5625,-1.0,1.375
3.0799999999999566,-2.0,0.0,-1.0,4.0,-3.0,-3.0,-3.0,-1.0,0.12939453125,-0.25030517578125,0.92486572265625,-0.25531005859375,0.107421875,-0.5322265625,0.83935546875,3.75,-0.25,-1.1875
3.0849999999999564,-2.0,0.0,-1.0,4.0,-3.0,-3.0,-3.0,-1.0,0.12939453125,-0.25030517578125,0.92486572265625,-0.25531005859375,0.107421875,-0.5322265625,0.83935546875,3.75,-0.25,-1.1875
3.0899999999999563,-2.0,0.0,-1.0,4.0,-3.0,-3.0,-3.0,-1.0,0.12939453125,-0.25030517578125,0.92486572265625,-0.25531005859375,0.107421875,-0.5322265625,0.83935546875,3.75,-0.25,-1.1875
3.0949999999999562,-2.0,0.0,-1.0,4.0,-3.0,-3.0,-3.0,-1.0,0.12939453125,-0.25030517578125,0.92486572265625,-0.25531005859375,0.107421875,-0.5322265625,0.83935546875,3.75,-0.25,-1.1875
3.099999999999956,-2.0,-2.0,-8.0,-12.0,-5.0,-1.0,-2.0,-1.0,0.12939453125,-0.25030517578125,0.92486572265625,-0.25531005859375,0.107421875,-0.5322265625,0.83935546875,3.75,-0.25,-1.1875
3.104999999999956,-2.0,-2.0,-8.0,-12.0,-5.0,-1.0,-2.0,-1.0,0.12939453125,-0.25030517578125,0.92486572265625,-0.25531005859375,0.107421875,-0.5322265625,0.83935546875,3.75,-0.25,-1.1875
3.109999999999956,2.0,0.0,2.0,6.0,2.0,0.0,0.0,0.0,0.12945556640625,-0.24951171875,0.9251708984375,-0.2550048828125,0.09521484375,-0.5361328125,0.84130859375,4.875,-1.625,-3.4375
3.114999999999956,2.0,0.0,2.0,6.0,2.0,0.0,0.0,0.0,0.12945556640625,-0.24951171875,0.9251708984375,-0.2550048828125,0.09521484375,-0.5361328125,0.84130859375,4.875,-1.625,-3.4375
3.1199999999999557,2.0,0.0,2.0,6.0,2.0,0.0,0.0,0.0,0.12945556640625,-0.24951171875,0.9251708984375,-0.2550048828125,0.09521484375,-0.5361328125,0.84130859375,4.875,-1.625,-3.4375
3.1249999999999556,2.0,0.0,2.0,6.0,2.0,0.0,0.0,0.0,0.12945556640625,-0.24951171875,0.9251708984375,-0.2550048828125,0.09521484375,-0.5361328125,0.84130859375,4.875,-1.625,-3.4375
3.1299999999999555,0.0,-1.0,-1.0,-22.0,-5.0,-1.0,-2.0,0.0,0.12957763671875,-0.2486572265625,0.925537109375,-0.25439453125,0.09423828125,-0.5224609375,0.85009765625,3.75,-2.125,-5.125
3.1349999999999554,0.0,-1.0,-1.0,-22.0,-5.0,-1.0,-2.0,0.0,0.12957763671875,-0.2486572265625,0.925537109375,-0.25439453125,0.09423828125,-0.5224609375,0.85009765625,3.75,-2.125,-5.125
3.1399999999999553,-2.0,-3.0,0.0,9.0,-6.0,-5.0,-3.0,-2.0,0.12957763671875,-0.2486572265625,0.925537109375,-0.25439453125,0.09423828125,-0.5224609375,0.85009765625,3.75,-2.125,-5.125
3.144999999999955,-2.0,-3.0,0.0,9.0,-6.0,-5.0,-3.0,-2.0,0.12957763671875,-0.2486572265625,0.925537109375,-0.25439453125,0.09423828125,-0.5224609375,0.85009765625,3.75,-2.125,-5.125
3.149999999999955,-2.0,-2.0,1.0,12.0,1.0,-2.0,-1.0,-3.0,0.12957763671875,-0.2486572265625,0.925537109375,-0.25439453125,0.09423828125,-0.5224609375,0.85009765625,3.75,-2.125,-5.125
3.154999999999955,-2.0,-2.0,1.0,12.0,1.0,-2.0,-1.0,-3.0,0.12957763671875,-0.2486572265625,0.925537109375,-0.25439453125,0.09423828125,-0.5224609375,0.85009765625,3.75,-2.125,-5.125
3.159999999999955,1.0,0.0,2.0,-4.0,1.0,1.0,0.0,0.0,0.1298828125,-0.2486572265625,0.9256591796875,-0.25384521484375,0.09375,-0.51513671875,0.84033203125,-1.0625,-1.875,-4.25
3.1649999999999547,1.0,0.0,2.0,-4.0,1.0,1.0,0.0,0.0,0.1298828125,-0.2486572265625,0.9256591796875,-0.25384521484375,0.09375,-0.51513671875,0.84033203125,-1.0625,-1.875,-4.25
3.1699999999999546,1.0,0.0,2.0,-4.0,1.0,1.0,0.0,0.0,0.1298828125,-0.2486572265625,0.9256591796875,-0.25384521484375,0.09375,-0.51513671875,0.84033203125,-1.0625,-1.875,-4.25
3.1749999999999545,1.0,0.0,2.0,-4.0,1.0,1.0,0.0,0.0,0.1298828125,-0.2486572265625,0.9256591796875,-0.25384521484375,0.09375,-0.51513671875,0.84033203125,-1.0625,-1.875,-4.25
3.1799999999999544,2.0,-1.0,-2.0,-9.0,-1.0,0.0,-1.0,0.0,0.1298828125,-0.2486572265625,0.9256591796875,-0.25384521484375,0.09375,-0.51513671875,0.84033203125,-1.0625,-1.875,-4.25
3.1849999999999543,2.0,-1.0,-2.0,-9.0,-1.0,0.0,-1.0,0.0,0.1298828125,-0.2486572265625,0.9256591796875,-0.25384521484375,0.09375,-0.51513671875,0.84033203125,-1.0625,-1.875,-4.25
3.189999999999954,0.0,0.0,-2.0,-3.0,0.0,0.0,1.0,0.0,0.13037109375,-0.24945068359375,0.925537109375,-0.25323486328125,0.09765625,-0.5166015625,0.8330078125,-6.125,-1.8125,-3.9375
3.194999999999954,0.0,0.0,-2.0,-3.0,0.0,0.0,1.0,0.0,0.13037109375,-0.24945068359375,0.925537109375,-0.25323486328125,0.09765625,-0.5166015625,0.8330078125,-6.125,-1.8125,-3.9375
3.199999999999954,0.0,0.0,-2.0,-3.0,0.0,0.0,1.0,0.0,0.13037109375,-0.24945068359375,0.925537109375,-0.25323486328125,0.09765625,-0.5166015625,0.8330078125,-6.125,-1.8125,-3.9375
3.204999999999954,0.0,-1.0,0.0,2.0,-1.0,-2.0,1.0,-1.0,0.1309814453125,-0.25091552734375,0.92529296875,-0.25244140625,0.09375,-0.548828125,0.84326171875,-8.75,-1.375,-4.5
3.209999999999954,-3.0,0.0,-3.0,12.0,-5.0,-3.0,-3.0,-2.0,0.1309814453125,-0.25091552734375,0.92529296875,-0.25244140625,0.09375,-0.548828125,0.84326171875,-8.75,-1.375,-4.5
3.2149999999999537,-1.0,-2.0,-3.0,-13.0,-4.0,0.0,-1.0,-2.0,0.1309814453125,-0.25091552734375,0.92529296875,-0.25244140625,0.09375,-0.548828125,0.84326171875,-8.75,-1.375,-4.5
3.2199999999999536,-1.0,-2.0,-3.0,-13.0,-4.0,0.0,-1.0,-2.0,0.1309814453125,-0.25091552734375,0.92529296875,-0.25244140625,0.09375,-0.548828125,0.84326171875,-8.75,-1.375,-4.5
3.2249999999999535,-1.0,-2.0,-3.0,-13.0,-4.0,0.0,-1.0,-2.0,0.13140869140625,-0.251953125,0.92510986328125,-0.251708984375,0.08740234375,-0.55322265625,0.8330078125,-5.5,-1.5,-4.5625
3.2299999999999534,-3.0,-1.0,0.0,-9.0,-1.0,-1.0,0.0,-1.0,0.13140869140625,-0.251953125,0.92510986328125,-0.251708984375,0.08740234375,-0.55322265625,0.8330078125,-5.5,-1.5,-4.5625
3.2349999999999532,-3.0,-1.0,0.0,-9.0,-1.0,-1.0,0.0,-1.0,0.13140869140625,-0.251953125,0.92510986328125,-0.251708984375,0.08740234375,-0.55322265625,0.8330078125,-5.5,-1.5,-4.5625
3.239999999999953,-3.0,-1.0,0.0,-9.0,-1.0,-1.0,0.0,-1.0,0.13140869140625,-0.251953125,0.92510986328125,-0.251708984375,0.08740234375,-0.55322265625,0.8330078125,-5.5,-1.5,-4.5625
3.244999999999953,0.0,1.0,-3.0,-21.0,-4.0,-1.0,1.0,-1.0,0.13140869140625,-0.251953125,0.92510986328125,-0.251708984375,0.08740234375,-0.55322265625,0.8330078125,-5.5,-1.5,-4.5625
3.249999999999953,0.0,1.0,-3.0,-21.0,-4.0,-1.0,1.0,-1.0,0.13140869140625,-0.251953125,0.92510986328125,-0.251708984375,0.08740234375,-0.55322265625,0.8330078125,-5.5,-1.5,-4.5625
3.254999999999953,0.0,1.0,-3.0,-21.0,-4.0,-1.0,1.0,-1.0,0.13214111328125,-0.25244140625,0.925048828125,-0.25103759765625,0.11572265625,-0.548828125,0.83251953125,-3.0625,-2.5,-4.625
3.2599999999999527,-1.0,0.0,0.0,-3.0,-1.0,1.0,-2.0,0.0,0.13214111328125,-0.25244140625,0.925048828125,-0.25103759765625,0.11572265625,-0.548828125,0.83251953125,-3.0625,-2.5,-4.625
3.2649999999999526,-1.0,0.0,0.0,-3.0,-1.0,1.0,-2.0,0.0,0.13214111328125,-0.25244140625,0.925048828125,-0.25103759765625,0.11572265625,-0.548828125,0.83251953125,-3.0625,-2.5,-4.625
3.2699999999999525,-1.0,0.0,0.0,-3.0,-1.0,1.0,-2.0,0.0,0.13214111328125,-0.25244140625,0.925048828125,-0.25103759765625,0.11572265625,-0.548828125,0.83251953125,-3.0625,-2.5,-4.625
3.2749999999999524,-3.0,-3.0,-1.0,7.0,0.0,-2.0,1.0,-2.0,0.13311767578125,-0.25250244140625,0.92510986328125,-0.25042724609375,0.14111328125,-0.5341796875,0.83740234375,-2.3125,-2.875,-3.875
3.2799999999999523,-1.0,-2.0,1.0,17.0,1.0,-4.0,0.0,-2.0,0.13311767578125,-0.25250244140625,0.92510986328125,-0.25042724609375,0.14111328125,-0.5341796875,0.83740234375,-2.3125,-2.875,-3.875
