timestamp,ch1,ch2,ch3,ch4,ch5,ch6,ch7,ch8
15,2,11,-6,-4,-1,-1,-1,1
15.005,1,36,9,1,0,-2,-2,-2
15.01,0,-2,-5,-3,-1,0,-2,-1
15.015,-4,-14,5,2,-3,-3,-2,-2
15.02,6,23,4,0,-3,-2,-1,-1
15.025,1,-22,-10,0,-7,-2,-1,-1
15.03,3,21,0,-2,-3,-3,-3,-1
15.035,-3,15,6,-2,-3,-2,-2,-5
15.04,7,18,-4,-4,-4,-4,0,2
15.045,1,-8,2,0,1,0,-2,-4
15.05,2,6,-7,-2,0,-1,-1,1
15.055,-4,-15,1,5,-1,-2,-1,-3
15.06,5,-14,-26,-3,2,1,1,5
15.065,-10,-1,9,0,-3,0,-1,-1
15.07,-3,-6,6,3,1,0,0,-2
15.075,0,-17,-3,-1,-1,-2,0,1
15.08,-11,-9,4,2,3,1,-3,-6
15.085,3,14,1,-5,0,-1,-3,-5
15.09,0,0,-7,-3,-4,-1,-2,3
15.095,-4,-12,4,4,2,1,-1,-2
15.1,0,-3,-16,2,1,1,1,-1
15.105,2,23,6,-3,-1,-1,-1,1
15.11,-10,-41,-5,-3,-2,-1,-2,-4
15.115,5,-6,4,-4,-5,-3,0,1
15.12,-2,0,13,1,-3,-2,-2,0
15.125,-5,5,0,-1,0,-1,-1,-1
15.13,3,-1,4,1,1,-1,0,-3
15.135,-8,-11,0,0,2,2,0,-3
15.14,2,5,1,-5,-3,-3,0,0
15.145,1,0,5,0,-3,-1,-1,-1
15.15,6,22,7,2,0,-1,-1,0
15.155,0,-17,-26,-5,-1,-2,-3,-1
15.16,1,-8,-14,-3,-1,2,0,4
15.165,6,14,-1,0,-1,-2,0,1
15.17,-9,9,5,-4,4,5,2,-5
15.175,-6,-7,0,1,-4,-4,-4,-4
15.18,-1,5,11,1,-1,0,0,0
15.185,0,8,-4,-5,-2,-2,0,0
15.19,5,18,-5,0,-5,-2,0,3
15.195,0,11,5,-2,1,-1,-2,1
15.2,-1,-9,5,-2,-1,-2,-3,-3
15.205,-2,2,5,2,-1,-2,-2,-2
15.21,-4,-3,2,-1,-3,-3,-1,0
15.215,-3,6,1,-3,0,0,0,-3
15.22,2,1,2,0,-3,-2,-1,-3
15.225,-3,1,0,-2,1,0,0,1
15.23,-9,-13,-8,-4,-3,0,-3,-8
15.235,1,-4,-2,0,0,0,1,5
15.24,-2,-5,3,1,-2,-1,-1,-2
15.245,1,-3,0,-1,-1,-2,-3,-3
15.25,-2,-8,-1,-1,-2,-1,-1,4
15.255,-9,3,5,0,-1,-1,0,-6
15.26,-1,-7,7,-1,-2,-4,-4,-7
15.265,-1,0,-3,-1,-5,-2,-3,2
15.27,2,2,-2,-5,-3,0,-2,1
15.275,0,2,2,1,1,2,2,1
15.28,-4,-1,5,12,1,-1,0,3
15.285,-3,0,3,1,-4,2,0,-5
15.29,-2,-7,-14,-17,-1,-7,1,10
15.295,-17,-17,-12,-3,-4,-4,-4,-20
15.3,3,-5,0,-37,-4,-5,-3,3
15.305,-1,3,12,-8,-3,-3,-3,-2
15.31,13,27,47,83,21,6,5,10
15.315,45,22,-14,93,13,10,9,30
15.32,-79,-46,-23,-79,-33,-17,-23,-46
15.325,-4,-19,-5,29,-20,-11,-7,-16
15.33,5,-6,12,-4,-2,0,14,-3
15.335,7,21,29,65,26,14,5,9
15.34,14,15,8,24,-1,12,-2,11
15.345,-5,-18,-10,-24,-8,-13,-20,-7
15.35,-3,-16,-41,-110,-26,-5,3,-2
15.355,1,20,26,41,30,-8,28,-1
15.36,8,5,-5,27,18,6,-15,3
15.365,-11,15,10,15,7,13,-2,4
15.37,-14,9,57,119,8,0,-22,-3
15.375,-14,-55,-70,-119,-46,-25,-15,-20
15.38,32,8,-37,-10,-6,-4,22,16
15.385,-55,-26,-2,-33,-10,-11,-2,-33
15.39,24,13,38,70,10,9,3,2
15.395,3,15,-5,37,-1,6,-12,16
15.4,-19,2,127,70,-6,-19,-14,-33
15.405,36,-4,-86,-10,6,9,9,22
15.41,-7,-3,-32,-81,1,10,35,2
15.415,-29,-29,-55,-96,-26,-9,-39,-15
15.42,23,12,-36,28,9,5,4,41
15.425,15,17,97,101,8,-5,6,3
15.43,-35,-7,-16,21,-2,-4,-14,-42
15.435,19,-1,81,-60,-14,-7,7,-1
15.44,1,-18,-78,-78,-4,1,5,21
15.445,-22,1,-1,-22,-2,-1,-8,-8
15.45,12,-13,4,0,-2,-11,-4,10
15.455,10,2,19,25,-2,4,3,3
15.46,-14,6,24,9,2,5,-3,-33
15.465,6,8,-24,-24,7,4,8,17
15.47,5,18,-45,23,4,0,-8,0
15.475,-7,8,32,6,-12,-9,-7,-13
15.48,-2,24,14,46,16,8,11,10
15.485,-3,-35,-54,-24,-10,-8,1,-1
15.49,3,12,-31,-31,-6,-7,-7,1
15.495,-12,-34,12,13,3,4,-2,-4
15.5,13,11,-3,46,11,1,5,4
15.505,13,52,24,12,10,2,-1,-3
15.51,-20,-3,21,-19,-13,-3,-4,-1
15.515,-17,-20,26,3,-1,-1,0,-2
15.52,0,-19,-50,-3,-6,-1,1,0
15.525,18,16,87,0,0,-3,-1,5
15.53,16,-12,-7,22,15,7,1,8
15.535,21,22,-29,-21,23,23,10,13
15.54,4,-30,28,12,-68,-23,-10,4
15.545,-56,-1,-11,-21,1,-9,-9,-29
15.55,-7,-31,-1,17,5,-2,2,1
15.555,22,9,-25,13,17,11,8,14
15.56,61,38,1,-12,23,13,4,16
15.565,41,-10,-16,-12,21,13,5,12
15.57,-108,-26,15,2,-53,-35,-25,-41
15.575,-7,-11,-27,-14,-7,-16,-8,26
15.58,-27,-26,3,-22,3,-9,-9,-69
15.585,29,23,-6,15,0,3,7,1
15.59,19,4,-7,-20,32,17,14,25
15.595,89,39,35,44,-3,15,8,16
15.6,78,14,-30,-5,-5,5,1,41
15.605,-76,-62,-26,3,-2,-15,-22,-42
15.61,66,-9,-30,-98,-19,-13,-4,-16
15.615,54,16,25,18,8,17,30,50
15.62,127,50,29,24,7,11,5,74
15.625,-59,-19,-28,3,-9,-11,-25,23
15.63,-101,-51,10,9,-24,-34,-49,-89
15.635,-32,-82,-18,-18,-7,-23,-12,9
15.64,72,9,2,-7,60,50,65,58
15.645,127,47,-2,10,-40,21,24,95
15.65,-64,-57,29,-2,-2,-45,-72,-16
15.655,-23,-46,-50,-11,9,-24,-40,-60
15.66,4,13,9,-2,-9,-7,12,47
15.665,15,19,13,10,28,16,36,60
15.67,61,95,-13,2,9,40,48,48
15.675,72,52,11,22,19,18,10,96
15.68,-81,-30,-33,-4,-75,-7,1,-36
15.685,-79,-25,-17,-89,21,-9,-6,116
15.69,74,-52,79,107,-10,-6,-4,-80
15.695,-87,-64,-102,-14,-17,-45,-65,3
15.7,-71,-44,16,-17,8,-23,-30,5
15.705,118,115,90,25,11,17,31,55
15.71,-114,16,-36,-71,8,31,53,127
15.715,17,28,41,88,-11,0,13,-57
15.72,-25,-16,-20,6,17,-1,-8,-43
15.725,-40,-34,-7,3,-20,-11,-20,-63
15.73,106,-2,-6,-14,18,12,5,4
15.735,75,49,7,-45,0,17,9,-17
15.74,-128,-61,-18,-8,-19,-19,-23,-30
15.745,103,-10,15,19,22,-2,2,-68
15.75,86,31,-13,22,-18,-6,-8,18
15.755,-73,-78,-7,-40,6,-1,3,-49
15.76,127,54,6,8,0,-2,-5,15
15.765,-108,-27,4,-6,-12,-17,-15,-27
15.77,127,36,-20,16,22,12,10,23
15.775,-95,41,14,-26,-22,-3,9,69
15.78,50,-63,-5,-12,12,-3,-11,-29
15.785,19,-2,7,30,-3,5,11,38
15.79,-38,-5,-40,-29,-32,-10,-14,-18
15.795,71,18,38,33,2,6,15,32
15.8,-128,-32,-2,-38,-29,-18,-28,-43
15.805,3,58,-6,-9,-1,-11,-13,-67
15.81,32,-3,-3,-3,11,3,13,14
15.815,-55,-38,19,-9,-19,-7,-16,-72
15.82,68,21,3,13,19,8,14,32
15.825,-22,-21,-33,0,7,10,-1,-41
15.83,5,13,7,9,15,6,7,16
15.835,13,20,5,9,1,0,10,10
15.84,-4,44,3,0,9,4,-3,-11
15.845,-25,-25,-24,-15,-22,-6,-5,15
15.85,-74,-22,4,-9,-6,-4,-3,-30
15.855,26,12,20,0,-3,-4,9,-16
15.86,-43,1,2,-6,0,-9,-41,-13
15.865,76,-6,-8,37,8,7,-2,2
15.87,18,-5,-80,-71,-6,0,2,15
15.875,-1,26,73,37,1,10,20,30
15.88,-70,-33,47,-6,-9,-20,-47,-96
15.885,43,-8,-28,-38,-6,0,19,23
15.89,-74,3,4,81,9,-2,-14,-60
15.895,93,21,-13,7,13,1,16,26
15.9,-34,0,-44,-4,0,-2,14,31
15.905,-26,-35,9,-59,-23,-12,-26,-25
15.91,43,45,62,65,23,23,24,52
15.915,-50,8,-3,33,4,8,26,-10
15.92,31,-39,-61,-31,-29,-23,-35,26
15.925,24,23,51,115,19,6,10,5
15.93,-33,-27,-12,-42,-21,-19,-12,-26
15.935,8,6,-68,-42,-1,7,-4,-21
15.94,13,38,39,63,21,16,25,15
15.945,-19,-3,-77,37,2,7,-5,-10
15.95,45,4,-29,-59,-18,-2,-4,30
15.955,-48,-33,61,-11,-20,-26,-29,-33
15.96,15,3,-15,13,10,9,22,3
15.965,3,5,20,-8,8,8,4,10
15.97,9,19,54,97,10,-1,7,4
15.975,-16,-24,-32,-53,-12,-15,-22,-20
15.98,16,19,10,35,10,11,18,5
15.985,-12,-19,-7,-55,-8,-6,-1,2
15.99,-13,-8,-8,-32,-4,-5,-10,-4
15.995,-5,-8,-15,-50,-14,-4,-10,-8
16,20,19,39,8,10,8,15,15
16.005,-5,-2,32,24,-4,-4,-4,-6
16.01,-5,-10,-8,-26,-6,-10,-9,-8
16.015,0,7,-31,46,9,9,2,3
16.02,11,12,17,-7,11,4,14,10
16.025,-11,-16,-24,-17,-9,-6,-9,-11
16.03,-11,-13,10,-20,-13,-3,-5,-3
16.035,9,36,47,51,17,10,0,5
16.04,-4,-16,-6,-54,-16,-9,0,-2
16.045,-9,-3,-30,-35,-6,-5,-1,-9
16.05,3,3,37,36,5,1,0,0
16.055,-4,5,-29,0,-5,0,-4,3
16.06,-2,3,-7,0,-4,-4,-1,-7
16.065,6,9,75,102,13,6,5,4
16.07,-15,-31,-27,-91,-25,-10,-7,-12
16.075,-2,-10,-36,-14,-6,-4,-3,-4
16.08,3,-2,2,-22,-2,-2,2,2
16.085,1,11,24,34,8,4,1,-2
16.09,-3,9,6,33,7,6,-1,3
16.095,-3,0,1,-30,0,-4,-4,2
16.1,13,2,10,7,-1,-4,-1,-3
16.105,-8,-22,-34,-42,-10,-4,-7,-8
16.11,-2,-3,-9,-9,-1,2,-1,-1
16.115,-3,-4,-8,-18,-5,0,-1,-2
16.12,10,11,-19,31,8,6,7,18
16.125,4,-1,21,-7,-7,-6,-5,-8
16.13,-26,-8,-6,-44,-2,-7,-3,-5
16.135,3,-1,-31,-5,-1,2,-1,-8
16.14,-6,-1,-25,-14,5,2,4,2
16.145,-3,-5,24,28,-5,-3,-2,0
16.15,6,2,-7,31,8,0,-1,0
16.155,-2,-2,-23,-35,-5,0,-2,1
16.16,-3,-1,21,30,-4,-2,-3,-2
16.165,0,1,-41,2,2,3,0,0
16.17,-1,-15,-10,-82,-17,-7,-4,-8
16.175,-7,-8,-22,-46,-5,-7,-5,-3
16.18,2,-3,7,15,1,2,1,-2
16.185,-1,8,5,11,11,0,3,3
16.19,5,9,16,50,7,4,0,-1
16.195,0,1,19,10,-1,1,-3,1
16.2,-3,-3,-9,-19,-7,-4,-2,-2
16.205,-4,-7,-6,-17,-7,-10,-5,-5
16.21,7,13,-22,45,11,9,3,3
16.215,-8,-23,8,-21,-16,-8,-8,-7
16.22,-1,-4,-15,-22,-1,-3,-1,-3
16.225,-5,-1,16,-15,2,0,4,-2
16.23,5,0,-6,6,6,1,2,1
16.235,3,17,31,55,12,7,3,6
16.24,-3,6,-2,7,-3,-4,-5,-6
16.245,-11,-25,-16,-40,-21,-6,-6,-4
16.25,3,-3,13,4,1,-1,-3,1
16.255,2,4,40,-6,1,-5,2,-1
16.26,-2,-3,13,-21,2,-1,3,4
16.265,9,12,-11,4,5,3,2,4
16.27,23,9,-6,34,6,7,-2,-1
16.275,-42,-10,-1,-4,-18,-10,-10,-10
16.28,-8,-19,-17,-8,-7,-10,-6,-7
16.285,9,5,13,13,8,1,4,2
16.29,-5,-9,8,-3,1,1,3,4
16.295,26,10,-6,-3,6,6,2,3
16.3,-2,6,2,18,-2,2,0,0
16.305,-12,-4,-28,-20,-4,-1,-5,-1
16.31,12,7,22,22,-1,1,0,0
16.315,-9,-2,9,16,-1,-1,-3,-2
16.32,-10,-9,12,12,-5,-3,-2,-5
16.325,2,-2,-5,-16,-1,-5,1,0
16.33,-5,0,4,-7,-2,-1,1,1
16.335,4,1,-19,12,4,-3,1,2
16.34,-1,10,1,32,7,3,-2,3
16.345,-2,-3,-7,7,-1,2,-5,-7
16.35,-16,-26,22,-58,-23,-15,-7,-7
16.355,7,6,-11,12,11,7,10,7
16.36,23,4,1,-5,6,4,2,6
16.365,19,4,-14,12,0,1,-2,-1
16.37,-82,-8,-2,10,-5,-3,-8,-11
16.375,-15,-8,-12,23,0,-4,-4,-7
16.38,4,-7,16,-48,-6,-5,5,5
16.385,5,4,3,-5,2,2,1,1
16.39,28,4,-8,4,4,7,4,3
16.395,7,5,7,5,0,0,-3,6
16.4,-10,-10,-25,7,-2,1,-7,-3
16.405,-10,4,2,-6,-1,-2,3,5
16.41,-27,-25,17,-15,-10,-8,-14,-59
16.415,-3,0,0,-1,1,-2,2,15
16.42,6,6,14,0,-2,0,0,4
16.425,-5,-14,-52,-31,-10,-4,-1,17
16.43,27,34,14,96,24,12,8,-6
16.435,-26,-16,-2,-18,-9,-2,-7,-18
16.44,-27,-9,12,-18,-7,-5,-7,-25
16.445,-13,-13,-4,-40,-15,-14,-10,11
16.45,12,-1,-5,3,3,1,3,26
16.455,25,4,-22,49,7,0,1,-17
16.46,-48,10,20,-31,2,4,1,-10
16.465,13,-3,40,5,-6,-3,-3,-10
16.47,35,36,-15,14,9,8,8,29
16.475,-29,-14,21,-72,-17,-7,-9,-1
16.48,-11,-50,-65,1,-5,-7,-2,-14
16.485,6,6,19,4,5,7,3,-1
16.49,22,3,-4,11,-3,-5,-4,2
16.495,-34,29,15,22,3,1,-2,-5
16.5,9,-38,14,-4,0,-2,-5,0
16.505,-30,-4,30,2,0,-2,-3,-10
16.51,34,45,-2,9,1,1,3,9
16.515,25,-18,-6,-55,3,0,3,7
16.52,4,-4,15,17,-18,-5,0,12
16.525,-2,2,-29,34,19,2,-3,-9
16.53,-41,-10,7,-16,4,-6,-1,-6
16.535,22,-3,7,16,9,2,4,4
16.54,32,26,-23,-15,12,3,3,8
16.545,15,-2,18,-11,-18,1,2,19
16.55,-23,-26,-61,-24,-1,0,-6,-12
16.555,-21,-12,4,-5,-17,-9,-7,10
16.56,12,21,31,12,2,-5,-10,-24
16.565,4,-10,-29,4,-4,-1,12,-8
16.57,13,-34,-14,-19,15,5,8,55
16.575,56,2,3,28,-6,13,14,19
16.58,6,25,6,-7,-21,-10,-7,50
16.585,-85,-11,-23,-5,8,-17,-34,-96
16.59,23,-18,10,-35,-14,-16,-17,-119
16.595,59,-9,-4,43,21,13,21,71
16.6,43,41,17,34,25,28,32,57
16.605,48,7,-29,-14,-25,-20,-24,66
16.61,-120,-49,-25,-29,-23,-36,-54,-76
16.615,50,-16,21,-5,17,3,13,47
16.62,-39,-43,7,-9,12,3,6,8
16.625,21,37,10,29,-7,14,29,64
16.63,42,29,-3,-23,-4,7,18,70
16.635,0,18,-4,-5,-2,5,-6,-70
16.64,52,6,-7,12,-4,3,-1,12
16.645,-31,-23,6,0,10,6,-5,-13
16.65,31,11,8,1,-11,3,12,6
16.655,-125,-13,-16,-8,-13,-11,-16,-34
16.66,-2,0,-2,1,3,-8,-23,-29
16.665,2,-12,5,-13,-10,-12,-18,-125
16.67,14,-2,1,0,1,3,26,68
16.675,-23,-2,-3,-4,-2,-1,-22,1
16.68,21,4,-12,-2,-6,-6,-2,3
16.685,12,1,11,-6,-1,0,0,12
16.69,12,8,10,13,3,5,11,0
16.695,32,30,-9,3,6,5,11,22
16.7,-108,-72,-20,-16,-14,-14,-21,-47
16.705,35,-2,19,10,12,5,11,7
16.71,-20,-2,-2,-1,-5,2,8,27
16.715,33,18,1,-2,-2,-10,-8,-17
16.72,36,21,-8,2,-1,1,-3,-1
16.725,-11,-8,-2,-4,4,9,11,9
16.73,34,8,4,11,6,6,-3,24
16.735,-40,-18,26,10,-15,-18,-20,-44
16.74,15,14,-11,9,6,4,15,6
16.745,-10,-22,-8,-27,-6,-2,-2,16
16.75,-38,16,-1,-4,2,-3,-9,-12
16.755,-8,-7,-14,-12,-3,-1,2,-3
16.76,20,-9,4,7,0,-4,-3,-1
16.765,13,10,2,8,4,6,7,23
16.77,-4,-16,6,-5,-7,-6,-11,-13
16.775,-2,7,-4,-11,-3,-1,2,3
16.78,0,12,5,-2,-2,0,0,-7
16.785,-7,-9,-16,-8,-5,-2,-3,-2
16.79,-15,-3,15,3,0,1,2,2
16.795,2,-6,-9,5,2,0,-1,-4
16.8,-1,8,1,-8,-4,3,0,3
16.805,-15,1,1,-2,-4,-3,-5,-5
16.81,16,0,-2,3,4,1,0,1
16.815,17,2,-6,-5,-4,-6,0,11
16.82,-13,7,2,26,6,-1,2,-9
16.825,20,-1,-9,-33,-18,-5,2,7
16.83,9,-7,8,11,9,6,-2,-1
16.835,-13,1,-8,2,4,2,-3,-3
16.84,-1,-3,-3,-6,-5,-10,-2,-2
16.845,-3,1,4,18,8,-1,-3,-2
16.85,44,7,-1,-4,-3,-3,4,11
16.855,-24,-2,-4,-10,-7,1,-2,-3
16.86,-39,-7,-4,-1,2,4,0,-6
16.865,-3,2,9,3,0,-1,2,2
16.87,-23,-16,-5,-13,-11,-8,-9,-11
16.875,23,0,4,3,3,1,3,6
16.88,7,-4,1,-7,-7,1,-2,1
16.885,-29,-12,1,4,3,0,-5,0
16.89,-26,9,0,-17,-12,-2,0,-6
16.895,4,-8,-6,1,3,0,-1,-4
16.9,20,0,-8,-9,-6,-3,-2,13
16.905,-5,-7,11,5,-3,-4,-7,-14
16.91,1,3,1,10,7,0,1,1
16.915,23,9,-12,2,2,3,7,24
16.92,7,5,-22,-8,2,7,1,-20
16.925,-34,-9,24,16,-7,-16,-11,30
16.93,10,2,29,7,0,2,6,-7
16.935,-5,25,-8,44,14,16,2,13
16.94,-17,-17,13,69,-6,-3,-9,-12
16.945,58,32,1,-42,11,13,16,13
16.95,-77,-89,-93,-106,-50,-44,-26,-20
16.955,16,21,92,7,9,7,15,25
16.96,-9,38,71,60,24,10,7,9
16.965,15,-41,-76,-78,-26,-13,-16,-31
16.97,54,56,-15,115,43,30,24,48
16.975,-72,-88,-128,-128,-62,-43,-29,-52
16.98,5,6,30,-57,-5,-3,-8,28
16.985,9,54,58,106,34,22,12,5
16.99,-3,-13,-11,53,-11,-12,-12,-24
16.995,16,1,-44,-24,2,6,15,18
17,-6,-2,-21,14,3,0,4,-15
17.005,1,-7,0,-47,-5,0,1,15
17.01,-15,14,2,2,9,8,-1,2
17.015,14,-1,13,-1,-4,-4,-8,-18
17.02,7,-6,-8,-16,-11,-7,0,3
17.025,-10,-2,-14,20,8,4,1,-2
17.03,0,-8,4,-91,-19,-7,-3,-14
17.035,0,0,34,32,7,-7,2,-1
17.04,0,-8,-32,-10,-2,4,3,-10
17.045,-4,15,38,76,10,3,0,8
17.05,6,12,28,52,12,8,-2,-8
17.055,-2,-11,1,-44,-19,-11,-10,5
17.06,2,-1,-33,-51,-2,-1,-2,4
17.065,-15,-10,5,-47,-16,-10,-8,-20
17.07,15,3,0,-28,1,-1,1,3
17.075,-13,1,23,44,9,3,-3,-12
17.08,3,5,29,36,2,-1,1,15
17.085,-10,-11,-27,3,-6,-5,-2,-7
17.09,7,10,33,11,8,3,7,3
17.095,1,2,6,-35,0,-6,-3,-1
17.1,-6,-10,-12,5,-8,-3,-4,-12
17.105,-6,-10,-14,-24,-8,-6,-2,-2
17.11,2,5,-13,29,7,4,-2,3
17.115,5,11,1,51,10,4,2,0
17.12,-9,-19,-22,-43,-12,-6,-5,-4
17.125,0,-8,-23,-11,-7,-4,0,-3
17.13,-5,-5,25,-16,-7,-4,-4,-1
17.135,-1,-1,-12,-11,0,3,1,-3
17.14,2,4,-3,14,3,0,1,-3
17.145,0,10,24,62,11,7,4,5
17.15,19,-5,-41,-49,-9,-3,1,10
17.155,-28,-20,4,-21,-9,-9,-11,-21
17.16,9,12,24,15,5,2,4,7
17.165,-6,-7,-21,-16,-1,0,-1,-1
17.17,7,6,30,72,9,5,-1,-2
17.175,7,1,-8,-46,-8,2,-1,7
17.18,-12,2,15,3,-4,-8,0,-9
17.185,1,-4,-11,-8,1,-1,4,-1
17.19,-12,-3,-11,-28,4,1,-2,-4
17.195,10,7,5,28,2,6,-1,8
17.2,-8,-9,-3,-17,-11,-7,-7,-5
17.205,3,0,-1,4,2,-4,-2,0
17.21,-6,-2,-7,10,-3,0,-4,-7
17.215,4,13,21,61,8,6,1,0
17.22,-3,-18,-12,-47,-8,-5,-1,-2
17.225,-5,-6,9,-52,-9,-9,-5,-3
17.23,-6,-3,12,-9,0,2,0,-2
17.235,7,3,16,32,6,1,0,0
17.24,-2,4,3,1,2,-4,-7,-5
17.245,-1,0,-4,17,0,1,-1,3
17.25,-12,-11,-3,-40,-21,-7,-5,-2
17.255,4,2,6,11,4,3,-1,0
17.26,2,3,15,22,3,-2,1,-1
17.265,-8,-1,0,-22,0,-3,0,-6
17.27,13,6,9,11,7,0,4,1
17.275,6,6,-9,9,5,2,3,20
17.28,1,-4,-12,0,-9,4,3,7
17.285,-6,-6,6,-3,-3,1,-3,1
17.29,-1,0,3,-2,4,5,8,4
17.295,-6,-6,-1,-1,0,0,3,-12
17.3,5,5,-11,2,7,-5,10,33
17.305,-2,4,8,12,-5,-4,-34,-35
17.31,-3,-6,-3,-14,-8,-5,-1,4
17.315,6,-2,-18,-4,6,12,70,-6
17.32,-9,2,25,-3,-6,3,-55,14
17.325,-1,-3,6,10,-6,-18,-31,4
17.33,-1,2,-10,-6,4,-8,-5,-6
17.335,-14,-2,5,-4,-7,-7,-8,10
17.34,6,-10,-33,-15,-1,2,38,-9
17.345,-2,4,9,-4,-1,8,21,21
17.35,2,-2,-7,2,3,0,-20,-7
17.355,4,9,8,-7,-4,2,6,5
17.36,-6,-11,2,3,-3,-5,-6,-18
17.365,0,2,-12,-2,4,3,-4,8
17.37,-3,1,9,23,2,-1,9,1
17.375,-7,-13,-20,-47,-10,-7,-20,-15
17.38,-1,4,-20,-19,1,-1,-5,-9
17.385,1,3,-4,8,-2,-2,4,-2
17.39,0,12,62,68,10,6,13,-4
17.395,4,6,-11,30,3,0,-14,4
17.4,-10,-20,9,-6,-17,-12,-17,-14
17.405,8,3,10,13,2,2,20,4
17.41,-3,2,6,12,-4,-3,-4,-2
17.415,-4,1,10,4,1,-2,-20,-6
17.42,2,5,-3,3,3,1,12,0
17.425,-2,-4,3,-3,-1,3,7,-4
17.43,-1,1,-10,-7,-1,-2,-6,0
17.435,5,9,43,70,6,-7,-7,-4
17.44,-3,0,-38,-16,-1,2,9,-2
17.445,-6,-20,-12,-63,-17,-11,-3,1
17.45,0,5,20,12,0,-2,-6,0
17.455,-4,-11,-17,-18,-12,1,0,-1
17.46,8,14,28,47,17,10,2,6
17.465,7,9,12,33,9,3,-1,-15
17.47,-33,-20,-35,-55,-11,-9,-5,-6
17.475,3,-6,11,9,-2,-4,2,0
17.48,6,6,18,1,-4,0,-2,-5
17.485,25,14,-4,19,9,14,19,22
17.49,26,1,7,-43,-8,0,0,98
17.495,-67,-32,-59,-9,-5,-16,-33,-102
17.5,-26,-21,-12,-14,-7,-8,-8,6
17.505,14,1,-5,0,0,-1,3,4
17.51,61,22,8,19,5,11,18,20
17.515,-29,20,7,-1,6,12,8,51
17.52,10,-6,-5,-6,-14,-11,-11,47
17.525,-33,-19,2,7,-3,-6,-9,-96
17.53,61,-7,-11,3,1,1,4,90
17.535,-28,23,8,-16,-10,-13,-32,-101
17.54,-31,4,-17,2,7,1,8,-27
17.545,20,6,17,24,17,18,25,36
17.55,-128,-84,-33,-61,-33,-13,-2,62
17.555,-44,-52,-3,-14,-2,-23,-24,-56
17.56,93,46,34,-4,-10,-8,-10,58
17.565,95,8,-10,7,-3,-9,-24,-96
17.57,31,43,-4,24,4,18,17,-18
17.575,-75,-36,-10,-19,1,-1,2,6
17.58,33,-10,19,20,11,16,18,14
17.585,-10,32,7,-16,-8,-11,-12,73
17.59,43,-12,-43,-19,6,-4,-17,-89
17.595,13,18,45,3,-33,1,10,44
17.6,-38,-32,-23,0,15,6,6,-39
17.605,-16,-4,37,5,-1,4,8,37
17.61,2,23,-6,18,7,-4,-14,-22
17.615,47,7,3,-11,-1,0,7,26
17.62,-2,17,19,-2,-2,2,5,-31
17.625,-33,-22,-37,-6,-7,-4,-3,58
17.63,-20,16,10,9,-3,3,-5,-115
17.635,-50,-27,1,8,-6,-11,4,21
17.64,11,-16,2,-15,-2,-6,-21,20
17.645,-34,-4,-3,-7,3,1,4,-21
17.65,-6,3,0,-1,-5,-6,-9,21
17.655,70,19,6,21,9,5,-1,-32
17.66,48,22,-8,-15,-8,-4,3,33
17.665,-67,7,-2,20,3,1,1,-4
17.67,23,-8,12,-15,12,6,10,-43
17.675,-80,-18,12,2,-15,6,7,39
17.68,19,-17,-30,-12,7,-9,-5,-15
17.685,92,16,-13,6,-8,6,4,24
17.69,-26,8,7,5,-5,1,0,8
17.695,56,29,0,9,19,7,20,27
17.7,-4,37,5,12,12,9,13,51
17.705,-39,-51,-63,-22,-22,-10,-19,-45
17.71,16,59,41,15,-11,-1,-4,50
17.715,18,-42,-50,-26,-3,-8,-23,-60
17.72,-42,-26,0,1,-10,0,14,59
17.725,56,27,2,10,24,5,8,-17
17.73,-32,-20,13,-15,-29,-11,-3,13
17.735,88,26,18,10,13,4,-8,11
17.74,-55,-7,-1,-12,0,-2,1,-35
17.745,24,-6,4,-5,-7,-13,-13,40
17.75,-98,-30,-16,-6,6,-9,-9,-127
17.755,93,21,7,10,12,17,33,73
17.76,43,6,-1,22,9,9,-6,-5
17.765,-117,-17,-1,-36,-21,-5,-12,-22
17.77,61,21,10,9,2,-1,9,29
17.775,3,2,-23,0,24,10,3,13
17.78,26,-2,12,-2,-43,-9,-7,-30
17.785,35,3,6,-15,3,6,9,29
17.79,-45,69,-9,0,7,-9,-15,-20
17.795,4,10,10,5,10,-3,9,17
17.8,-88,-26,-6,-8,0,-6,-7,-59
17.805,0,-21,6,1,0,-3,5,25
17.81,21,-48,-24,-5,-1,4,13,19
17.815,28,27,0,-5,-8,7,4,55
17.82,-34,6,-8,-9,-6,-9,-19,-40
17.825,-14,-4,14,6,-2,1,-19,-18
17.83,-19,-36,-28,2,2,0,-1,-43
17.835,32,25,48,13,-7,2,20,16
17.84,38,8,-14,-36,5,2,-13,58
17.845,-69,-31,1,91,0,-23,-38,-81
17.85,27,-35,4,-97,-13,-9,33,-20
17.855,-12,-6,-102,-8,-7,-4,39,34
17.86,3,14,51,15,3,8,-16,9
17.865,38,40,40,36,18,6,17,9
17.87,-1,20,58,36,5,8,-22,82
17.875,-30,-22,7,34,-12,2,7,-44
17.88,-29,-44,-90,-115,-42,-28,-23,-37
17.885,6,-29,69,104,29,14,10,14
17.89,1,3,-40,64,-1,-2,15,16
17.895,-17,-11,30,-96,-11,-5,-42,-78
17.9,10,17,19,37,-21,5,24,14
17.905,-13,-20,-49,-59,6,-2,-8,-9
17.91,2,-18,-46,-40,5,-8,11,6
17.915,4,12,50,86,17,5,-27,24
17.92,-20,-19,-78,-58,-10,-15,-11,-36
17.925,0,27,105,-22,-9,5,52,9
17.93,16,2,18,31,14,5,-33,22
17.935,-3,25,-3,51,7,0,-23,-5
17.94,-32,-30,-16,-35,-14,-14,18,-55
17.945,27,23,-11,65,4,2,-5,63
17.95,1,-10,-53,-98,-11,3,11,-17
17.955,-4,-7,81,36,-12,-12,-7,5
17.96,39,-10,24,83,30,11,-17,16
17.965,4,0,-9,9,0,-7,-2,-6
17.97,-24,-19,-20,-46,-13,-2,-10,-15
17.975,28,9,-38,66,18,3,19,42
17.98,-30,-19,-41,-66,-26,-5,7,0
17.985,11,10,1,19,-11,2,-2,-10
17.99,-37,-1,47,68,6,0,-12,-2
17.995,-29,-22,-59,-52,-19,-21,-36,-31
18,1,30,81,78,29,5,6,9
18.005,1,3,-81,-67,-10,2,3,6
18.01,15,-4,103,127,16,6,14,9
18.015,-33,-55,-60,-121,-46,-17,-11,5
18.02,-3,8,40,91,12,3,4,-8
18.025,12,-2,-17,-37,-11,0,1,-1
18.03,20,12,61,83,21,12,5,11
18.035,-27,1,-36,-31,4,-3,7,-7
18.04,13,-4,-10,-34,-7,-5,-6,-3
18.045,-13,-5,28,-28,-12,-11,-8,-9
18.05,4,-10,-46,-17,-3,-4,1,0
18.055,0,-4,8,-9,0,0,-17,-2
18.06,3,12,34,41,7,8,8,2
18.065,-12,-3,-14,-9,4,2,3,5
18.07,-5,-3,-9,-38,-7,-10,-18,-6
18.075,18,16,45,71,10,9,21,-1
18.08,-5,9,-38,-43,4,3,1,2
18.085,-2,0,37,-5,-16,-7,-4,0
18.09,5,-7,-16,-36,-25,-14,-13,-13
18.095,2,-6,-9,-15,11,6,2,0
18.1,-7,17,34,48,10,6,-3,6
18.105,-7,5,12,60,10,-1,4,-8
18.11,-8,-7,-28,-3,-1,4,3,0
18.115,16,16,22,-52,-3,1,-4,5
18.12,18,28,24,57,11,7,6,2
18.125,-61,-38,-76,-124,-22,-19,-12,-18
18.13,-4,15,42,56,14,3,3,-1
18.135,4,-18,-10,3,-5,-1,-2,2
18.14,16,-5,-7,6,-4,4,4,5
18.145,17,22,-7,52,6,8,36,6
18.15,-8,-22,-27,-89,-17,-12,-68,-3
18.155,-4,2,17,14,5,-3,4,-4
18.16,-11,-6,-7,-23,2,0,1,7
18.165,8,1,-5,41,-3,-3,-10,-3
18.17,11,21,25,55,10,14,48,17
18.175,7,-18,-80,-97,-24,-11,-5,-10
18.18,-34,-7,19,-9,-1,-12,-52,-2
18.185,0,-3,-35,8,2,-1,-6,1
18.19,-1,-6,37,-33,-7,-3,16,-8
18.195,9,15,41,80,10,2,1,13
18.2,2,25,-11,18,4,4,22,-2
18.205,-5,-18,-34,-54,-14,-8,-14,-8
18.21,5,5,12,23,1,-3,-9,-2
18.215,-9,4,-7,5,-2,1,3,-5
18.22,0,-10,-1,1,2,1,5,-4
18.225,15,22,25,-11,4,2,-4,-1
18.23,-2,7,16,28,-4,-5,-2,-2
18.235,-18,-23,-49,-31,-2,-2,-6,-4
18.24,2,-15,-13,-16,-3,0,8,-1
18.245,7,2,50,17,-2,3,-7,8
18.25,1,-4,-4,-12,2,-2,3,-5
18.255,-8,-2,24,50,7,2,1,-1
18.26,-6,-26,-15,-42,-18,-6,-4,-6
18.265,-1,3,-35,-23,-2,3,-2,0
18.27,2,16,29,13,-1,3,2,3
18.275,-7,-12,-40,30,0,-5,-3,0
18.28,4,-1,29,15,3,-2,-2,-1
18.285,-7,-8,34,6,-3,-1,-2,-1
18.29,-1,-7,-28,-18,-6,-3,-1,0
18.295,3,22,32,27,8,8,8,2
18.3,-3,-10,-6,-10,-1,-3,10,-7
18.305,-3,-3,5,0,1,-6,-37,-3
18.31,2,-2,-28,-11,2,-3,6,-4
18.315,-4,-1,3,-18,-5,-5,-4,1
18.32,0,11,7,41,3,4,13,0
18.325,-7,-1,2,6,-1,2,5,0
18.33,-5,-32,-39,-53,-22,-14,-15,-8
18.335,-1,-2,43,-10,-4,-1,2,-1
18.34,-5,4,8,19,5,-3,-1,-4
18.345,18,13,11,50,16,5,8,5
18.35,-8,-6,-9,-19,-6,-1,-4,2
18.355,-8,-3,-30,-22,-8,-3,-1,-2
18.36,4,2,9,20,3,4,-6,0
18.365,-3,-8,19,-27,-3,-3,-3,-7
18.37,0,0,-29,0,5,3,7,-2
18.375,5,11,35,1,1,-3,-3,-1
18.38,5,-2,-29,3,3,6,-1,4
18.385,0,-13,-20,-16,-7,-7,1,-2
18.39,-51,-7,-12,-2,-2,-4,-6,-3
18.395,6,1,45,14,-4,0,-1,-1
18.4,-2,-4,8,8,1,-2,1,-2
18.405,8,1,-16,-15,-3,-2,5,-27
18.41,24,11,1,19,7,2,2,21
18.415,3,26,35,94,18,9,3,10
18.42,-3,-27,-66,-41,-23,-13,-5,5
18.425,2,-13,55,-3,-12,-2,-6,-13
18.43,-7,6,20,57,3,-1,-6,-44
18.435,4,2,9,18,2,1,5,9
18.44,32,34,35,60,20,9,12,10
18.445,-10,-10,-43,-76,-8,-2,-1,-1
18.45,21,28,10,71,21,13,9,37
18.455,-27,-43,-65,-60,-27,-14,-15,-54
18.46,-4,-27,2,-45,-18,-15,-10,-9
18.465,7,-6,-15,55,5,4,0,11
18.47,28,16,-61,-23,-2,-2,-1,1
18.475,1,63,102,46,10,4,6,9
18.48,-28,-16,-30,-24,-3,-5,-1,-11
18.485,-4,-19,-56,-20,1,2,5,9
18.49,19,-11,11,-17,-7,0,-5,-3
18.495,-27,-9,-15,-55,-11,-8,-5,1
18.5,-4,2,17,-12,-2,0,0,-9
18.505,0,12,21,17,12,1,3,12
18.51,16,-10,-2,55,11,6,2,9
18.515,-34,-31,-86,-111,-22,-11,-11,-9
18.52,-3,-8,-9,-10,-8,-12,-9,0
18.525,5,11,40,24,4,4,5,-1
18.53,-4,-5,-1,-16,1,-3,-3,-6
18.535,5,-8,-5,17,-5,3,4,4
18.54,-6,7,12,13,7,2,-3,1
18.545,2,-2,-10,4,-3,-2,-2,5
18.55,-13,-12,-3,-21,-12,-11,-6,-10
18.555,9,5,22,14,10,7,2,7
18.56,1,-3,1,2,-1,0,-4,1
18.565,-6,4,9,6,-4,-4,-3,-2
18.57,-15,-8,1,-24,-5,-5,2,-5
18.575,11,-7,-18,1,2,0,-2,1
18.58,9,15,45,43,-2,4,0,4
18.585,-8,-5,5,-25,-3,-5,1,-5
18.59,36,4,-14,4,11,12,15,13
18.595,-13,-4,-3,-17,-8,-2,-3,48
18.6,3,-3,-8,-26,-26,-11,-19,-57
18.605,-81,-38,-38,-2,-1,-14,-14,-19
18.61,16,-4,16,7,9,4,13,27
18.615,23,8,9,28,22,10,8,8
18.62,32,17,-4,-11,4,4,8,25
18.625,95,48,18,13,18,32,33,30
18.63,27,11,-11,-25,-25,-8,-1,79
18.635,7,-31,-34,-28,-42,-36,-33,55
18.64,-121,-119,-4,-11,3,-29,-42,-83
18.645,83,60,22,7,6,3,0,16
18.65,77,22,-14,-2,9,10,17,45
18.655,114,53,44,15,21,30,31,13
18.66,-69,18,-11,2,-3,-4,-14,8
18.665,-72,13,-22,-38,-37,-26,-24,-73
18.67,15,-8,19,-8,18,9,2,13
18.675,9,-19,-24,8,-8,0,4,67
18.68,-42,-35,0,-6,-7,-12,-23,22
18.685,40,-54,-55,11,18,20,19,-12
18.69,-75,33,6,-4,-10,7,11,59
18.695,-12,-6,88,12,1,-3,-15,-100
18.7,45,-4,-92,-17,-1,4,12,6
18.705,-23,-25,70,5,-13,-8,-5,23
18.71,-15,6,25,-2,-14,-14,-19,-61
18.715,-37,-10,21,9,16,-5,-2,-46
18.72,123,76,15,23,16,37,70,127
18.725,-87,20,-26,-9,-15,-18,-32,111
18.73,-128,3,31,-5,-3,-31,-75,-128
18.735,95,13,-58,13,13,11,30,127
18.74,43,63,35,18,0,6,4,53
18.745,-90,-99,-35,-32,-13,-14,-2,-33
18.75,109,2,9,-3,14,8,31,25
18.755,16,-3,-11,-6,-11,-5,-16,-9
18.76,86,0,3,19,4,7,6,14
18.765,55,32,-5,8,4,11,4,47
18.77,-73,-27,-3,-8,-13,-9,-18,-33
18.775,-87,-12,-8,-23,-17,-14,-2,-40
18.78,1,7,24,4,4,-4,1,-24
18.785,7,-25,1,9,7,-2,-8,-3
18.79,68,1,-7,3,-4,3,11,24
18.795,42,19,4,34,19,11,1,20
18.8,-93,-18,18,-47,-23,-7,-23,-79
18.805,-3,16,-11,-1,0,-11,-2,-38
18.81,25,-23,-12,-6,3,-2,1,-13
18.815,1,-1,10,13,3,0,-1,2
18.82,6,8,10,4,3,-2,-3,-2
18.825,36,1,3,0,-4,5,10,26
18.83,-18,-26,-19,-2,-13,-7,-9,-30
18.835,-36,4,6,-5,3,-2,-5,-29
18.84,44,-5,18,3,1,0,4,18
18.845,-19,49,9,6,1,3,-1,-36
18.85,-2,-29,-6,-1,-7,-1,5,49
18.855,-108,-19,-10,-18,-13,-14,-17,-46
18.86,11,-18,-3,-1,8,2,14,-20
18.865,51,10,1,7,0,5,-5,0
18.87,-1,-14,-14,-6,-4,-7,-17,4
18.875,37,-2,7,-2,-2,-4,18,22
18.88,17,0,-12,6,4,3,1,23
18.885,-33,-20,4,2,7,-2,-6,-4
18.89,7,3,-9,-10,-11,5,22,-14
18.895,-13,-1,15,21,10,10,-21,-8
18.9,5,1,-8,2,-3,-12,-11,-18
18.905,10,18,26,-16,-1,6,11,11
18.91,-4,9,6,55,13,10,44,60
18.915,-57,-34,-20,23,-13,-20,-46,-30
18.92,1,-36,-42,-72,-22,-15,-31,-50
18.925,49,25,13,45,5,3,14,5
18.93,-40,-4,45,73,7,-5,-8,24
18.935,27,12,-29,-60,0,12,30,-11
18.94,13,27,44,96,23,19,16,62
18.945,-28,-46,-25,-77,-38,-36,-42,-47
18.95,18,25,62,8,5,8,16,9
18.955,26,33,66,122,33,15,17,19
18.96,-33,-14,-24,9,-5,-5,-5,-10
18.965,35,-1,-49,-78,-2,2,7,16
18.97,-28,-36,-42,-91,-14,-10,-14,-29
18.975,-1,-3,27,3,-12,-4,-20,-7
18.98,-22,-7,47,-29,-2,-4,3,-13
18.985,-4,13,41,90,18,13,16,20
18.99,-3,1,1,40,5,-2,-16,-25
18.995,13,-9,-128,-51,-10,-6,9,13
19,-20,-15,-15,-71,-20,-9,6,8
19.005,-7,-14,22,-6,-9,-3,-8,-13
19.01,12,22,24,3,6,2,-6,-14
19.015,10,13,40,77,21,8,18,59
19.02,-25,-14,-57,-13,-10,-11,-18,-75
19.025,-3,-4,7,-23,-6,-6,-9,-5
19.03,7,13,-5,3,0,2,-5,3
19.035,-7,-6,1,-18,-4,1,6,-6
19.04,-9,-2,-3,-25,0,2,-4,23
19.045,1,0,16,11,3,1,4,9
19.05,-4,-5,-10,4,-2,-8,-1,-14
19.055,-5,-10,-1,-2,-5,-1,-6,-22
19.06,4,11,-3,-27,2,7,4,19
19.065,-1,5,16,61,7,1,5,-1
19.07,-6,-3,-31,-4,-1,0,-10,1
19.075,-6,-20,-64,-100,-21,-13,-9,-24
19.08,7,14,58,56,7,5,6,15
19.085,-6,-3,-29,10,-4,-2,2,7
19.09,-7,-12,-23,-43,-7,-4,-7,-8
19.095,1,-1,12,-8,-4,-4,-1,-11
19.1,1,2,-9,30,5,2,2,10
19.105,-1,9,23,39,11,7,0,2
19.11,-2,-7,-15,-9,-7,-1,-6,-8
19.115,-3,-8,0,-35,-8,-3,2,-11
19.12,3,11,31,59,15,3,4,11
19.125,1,3,11,23,1,-2,-1,-3
19.13,-2,-10,-24,-27,-9,-3,-4,0
19.135,2,13,86,37,8,3,1,-6
19.14,-14,-14,-57,-12,-8,-6,-6,-6
19.145,5,2,18,9,9,3,7,5
19.15,-3,6,-1,34,7,-1,1,1
19.155,-2,-8,-24,-47,-12,-7,-5,-9
19.16,7,21,44,104,16,10,3,7
19.165,-15,-27,-87,-117,-26,-8,-7,-9
19.17,9,6,79,47,-2,-5,-6,6
19.175,-5,-10,-51,-32,-9,-5,-6,-6
19.18,1,3,25,-15,2,3,5,4
19.185,1,5,7,25,6,1,5,3
19.19,-3,3,20,37,3,3,-4,-6
19.195,-2,4,16,14,-1,-3,-1,-2
19.2,-1,-4,-43,-59,-8,1,-2,-1
19.205,-1,-20,20,3,-9,-15,-15,-5
19.21,-1,-5,-30,-58,-1,1,2,-3
19.215,5,19,40,86,12,8,5,1
19.22,-18,-36,-79,-108,-30,-19,-9,3
19.225,3,14,21,30,7,4,5,5
19.23,-2,1,-9,13,6,2,0,-2
19.235,4,10,26,88,10,5,1,0
19.24,-12,-35,-38,-73,-29,-16,-10,3
19.245,-1,1,-14,-41,-2,-6,-3,-2
19.25,-1,-5,-10,-11,-3,-3,-1,-1
19.255,-3,4,-16,0,7,8,3,1
19.26,5,14,20,48,12,7,4,0
19.265,-1,12,43,68,13,9,1,0
19.27,-17,-31,-67,-87,-29,-16,-6,-14
19.275,-4,-14,-8,-67,-14,-11,-4,-3
19.28,2,8,22,32,5,3,0,0
19.285,-1,1,2,-8,2,3,-2,2
19.29,3,14,15,41,9,1,0,0
19.295,-7,-8,-15,-20,-7,-4,-2,1
19.3,4,10,24,37,6,2,5,1
19.305,-5,-13,-33,-35,-10,-2,-3,-3
19.31,-4,3,15,-6,-2,-3,-3,-2
19.315,-2,-8,-13,-24,-10,-8,-4,-4
19.32,7,17,29,36,16,8,6,2
19.325,-4,-3,-9,16,-3,0,1,-2
19.33,-6,-8,-8,-13,-6,0,-6,-2
19.335,-2,-2,-5,-18,2,1,-1,2
19.34,1,4,34,20,-1,-5,-3,-6
19.345,1,1,-9,-4,-1,0,0,-2
19.35,0,1,-11,-11,-3,-1,1,-2
19.355,0,3,-7,7,-2,-1,2,3
19.36,-4,-9,-9,-2,2,4,-4,-1
19.365,-3,-2,-5,-13,-8,-4,-7,-1
19.37,4,8,15,15,7,1,1,1
19.375,-2,3,-1,7,7,-1,1,-2
19.38,0,1,-12,-4,1,0,0,-2
19.385,-3,-6,5,-11,-16,-6,-2,1
19.39,-2,-1,-5,7,0,1,-1,1
19.395,-3,-4,11,6,-1,-1,1,0
19.4,-2,-2,-2,-5,2,2,1,-1
19.405,0,5,4,19,11,0,-1,-1
19.41,1,3,-1,0,-4,0,0,-2
19.415,-3,-9,-15,-25,-7,0,0,-2
19.42,-3,3,0,1,0,2,-1,-1
19.425,-1,-2,5,4,1,0,-1,10
19.43,-5,-3,1,-8,1,-4,-2,-19
19.435,1,1,12,15,2,-1,-3,1
19.44,-2,1,11,4,0,-4,1,0
19.445,1,0,-9,-4,2,2,2,-1
19.45,2,-3,11,-7,-9,-1,-1,5
19.455,-8,-4,-16,-12,-3,-5,-4,-17
19.46,2,-1,6,7,-3,-3,-1,1
19.465,0,-10,-6,-33,-5,-4,-3,-4
19.47,2,6,-3,9,5,2,2,6
19.475,8,4,12,5,4,7,5,3
19.48,-1,0,-11,-11,-7,-7,-6,40
19.485,-9,-4,-1,8,-2,-5,-11,-58
19.49,-18,-7,-13,-6,-3,1,-1,2
19.495,2,-1,30,-4,-2,-1,4,2
19.5,3,-2,-8,11,4,3,6,5
19.505,11,6,-4,8,2,7,3,16
19.51,6,-5,1,-10,-8,-7,-7,-5
19.515,-22,-3,-16,-4,-6,-5,-9,-5
19.52,5,-2,-7,-9,-1,-4,-3,-8
19.525,-5,-2,1,5,-3,-5,0,5
19.53,2,5,-6,4,6,2,2,-7
19.535,6,1,15,13,5,3,2,7
19.54,-2,-9,-6,3,-1,1,-1,-9
19.545,-12,-5,-13,-25,-4,-3,-4,2
19.55,7,6,27,16,1,1,-3,9
19.555,-2,-7,-48,-12,-4,-5,-4,-2
19.56,-2,-2,52,14,-1,1,0,-11
19.565,10,-3,-37,2,5,-2,4,6
19.57,8,8,1,-2,1,2,2,16
19.575,-2,-4,3,8,-1,0,-3,-13
19.58,-27,-10,-7,0,-5,-5,-8,-16
19.585,-25,-3,14,10,-4,-3,1,7
19.59,25,6,17,5,5,-2,5,12
19.595,-8,14,25,33,5,-2,-3,-17
19.6,15,-3,-59,-29,-7,-3,2,8
19.605,-25,-10,14,-25,-7,-3,-3,63
19.61,-19,-16,-10,-3,-5,-5,-14,-75
19.615,27,6,4,15,3,0,0,21
19.62,1,-12,-3,-20,0,-2,0,1
19.625,-13,8,14,16,3,4,5,8
19.63,1,3,-25,-13,-3,2,3,23
19.635,-3,-1,19,4,3,1,1,-7
19.64,12,15,19,17,1,-3,3,6
19.645,50,7,-16,3,0,3,1,9
19.65,3,-1,17,-1,-3,-4,-1,11
19.655,-85,-47,-32,-22,-14,-8,-18,-39
19.66,18,13,19,-8,1,-1,1,23
19.665,-8,18,-8,25,4,2,6,36
19.67,14,-9,-21,-44,-3,4,8,41
19.675,44,5,1,-7,-7,-3,-6,-43
19.68,-8,15,-9,4,0,-12,-19,34
19.685,-32,-39,18,0,-13,-8,-10,-15
19.69,39,20,3,40,20,11,13,-24
19.695,-16,4,-15,-40,-5,4,19,91
19.7,-38,-23,0,-8,-24,-12,-7,-31
19.705,6,0,26,3,-4,-14,-31,-98
19.71,47,-9,-28,-6,3,3,7,82
19.715,63,18,-13,14,15,20,20,36
19.72,-55,13,23,-1,12,12,22,63
19.725,-44,-33,-50,-28,-31,-28,-36,-44
19.73,-78,-43,11,-8,-13,-13,-17,-104
19.735,13,35,25,5,6,-3,4,54
19.74,56,-1,-20,12,5,8,1,-51
19.745,-98,-24,19,-2,10,5,8,9
19.75,62,27,7,-9,-1,-3,4,22
19.755,41,-28,-43,-17,-18,-6,3,102
19.76,29,1,17,-7,-5,-5,-17,-106
19.765,73,38,15,10,14,14,13,58
19.77,-14,5,10,15,-3,4,-3,-6
19.775,-96,-31,11,-5,-4,-8,-9,-58
19.78,56,33,-4,5,7,5,17,81
19.785,-51,-52,-15,-4,-16,-13,-41,-128
19.79,-12,-23,-1,1,6,-5,3,49
19.795,108,14,8,1,2,4,7,22
19.8,-71,-5,0,-1,-4,0,-3,-1
19.805,-46,2,-13,-9,7,4,5,-9
19.81,45,13,13,13,-4,1,4,14
19.815,-58,1,6,1,2,-5,-14,-41
19.82,1,-30,0,6,-2,-7,-5,-37
19.825,90,45,16,7,11,13,24,44
19.83,-57,-8,-3,12,-4,-3,-5,4
19.835,57,4,13,27,1,-3,-8,-47
19.84,-6,9,-17,-32,-5,-3,-1,10
19.845,23,5,3,-8,-3,3,7,42
19.85,-68,-21,-23,-19,-8,-7,-16,-42
19.855,-11,-6,-9,2,-2,-3,-2,-12
19.86,-31,-8,36,37,6,4,-4,-3
19.865,20,-12,-18,-73,-11,-8,4,-3
19.87,45,38,43,62,11,7,21,27
19.875,-21,17,28,53,7,10,11,-2
19.88,-71,-53,-72,-94,-22,-22,-51,-28
19.885,74,22,3,14,7,3,-8,19
19.89,-28,6,41,45,11,6,-1,-17
19.895,1,7,1,92,3,0,16,7
19.9,-6,-33,-53,-62,-23,-16,-19,-13
19.905,37,30,27,77,13,10,23,49
19.91,-58,-32,18,14,-15,-12,-14,-21
19.915,5,-34,-27,-107,-29,-20,-16,-39
19.92,61,30,31,68,21,22,31,38
19.925,-3,5,-53,1,9,6,8,20
19.93,-11,5,1,-18,3,4,-4,-17
19.935,5,2,-2,34,6,-1,-4,-4
19.94,10,2,32,-13,-7,-9,-5,3
19.945,-4,-16,-4,-18,-3,-2,6,-3
19.95,34,-5,-53,-82,-6,4,6,9
19.955,-23,1,-10,16,2,-3,-18,-7
19.96,7,1,-40,-55,-6,1,-1,-4
19.965,19,33,75,100,18,14,14,11
19.97,-16,-12,-26,56,-5,-10,-17,-14
19.975,-7,-15,-9,-94,-15,-13,-11,-7
19.98,-5,3,26,3,2,6,16,9
19.985,7,5,7,23,3,-2,5,-8
19.99,-8,-17,-74,-125,-20,-7,-8,2
19.995,-3,23,115,82,23,9,7,8
20,23,12,-24,111,21,8,9,1
20.005,-26,-34,-85,-115,-40,-17,-14,-17
20.01,16,19,37,86,10,2,1,0
20.015,-6,-1,-44,42,1,4,1,11
20.02,0,-7,14,-88,-21,-10,-3,-5
20.025,-13,-15,-26,-15,2,-4,-6,-5
20.03,-3,8,4,23,5,1,4,2
20.035,9,5,41,21,4,2,-4,-1
20.04,4,18,56,116,15,8,5,0
20.045,-6,-6,-17,-30,-6,-3,-5,0
20.05,10,-3,-13,-32,-6,-4,1,1
20.055,-11,-3,1,-9,-1,6,0,-5
20.06,-4,-4,-23,11,-3,-4,-1,3
20.065,-1,-2,11,-39,-10,-8,-4,-9
20.07,-2,-8,-16,0,-3,-5,-5,-3
20.075,3,8,6,-19,1,2,0,4
20.08,-19,-2,0,39,2,1,-1,-11
20.085,-5,-8,18,-12,-4,-2,-6,4
20.09,2,0,24,34,-2,-1,0,-2
20.095,-11,-6,-48,-75,-8,-5,0,-5
20.1,14,10,27,35,10,4,5,2
20.105,-4,14,31,70,11,1,0,-3
20.11,1,-4,-17,-42,-8,-5,-7,1
20.115,1,-2,4,29,-6,-2,-2,-1
20.12,4,4,-11,-8,5,-1,2,3
20.125,-16,-29,-62,-86,-22,-10,-7,-9
20.13,5,13,78,67,8,5,3,-1
20.135,-13,-23,-72,-110,-21,-10,-6,-6
20.14,6,11,39,55,6,0,0,3
20.145,-1,-6,-39,-53,-4,-2,-1,-4
20.15,8,10,15,12,12,7,5,8
20.155,-4,-6,-8,34,0,0,-4,-5
20.16,-8,-15,-30,-68,-15,-2,-6,-2
20.165,3,12,68,79,15,5,1,1
20.17,-5,-13,-37,-42,-18,-9,-5,-3
20.175,1,5,9,-3,7,5,2,2
20.18,1,-5,-31,-9,0,0,0,1
20.185,1,7,39,31,3,2,-1,-1
20.19,-3,4,8,-6,0,-3,-3,-1
20.195,-2,-6,1,-1,1,0,0,-1
20.2,1,-5,-10,-20,-6,-5,1,-1
20.205,4,18,18,62,16,5,1,4
20.21,-3,-7,0,30,-6,-4,-6,-4
20.215,-5,-15,-41,-83,-16,-10,-7,-4
20.22,2,-1,27,-9,-1,-2,-1,0
20.225,-1,5,13,24,2,0,3,2
20.23,5,7,-19,23,13,6,3,0
20.235,-4,0,26,42,-13,0,2,3
20.24,4,9,-12,75,18,7,1,2
20.245,-13,-32,-20,-84,-33,-13,-8,-7
20.25,-1,-8,5,-14,-9,-8,-5,-3
20.255,1,6,6,28,6,2,2,8
20.26,-3,2,14,-3,-4,-2,1,0
20.265,2,10,16,52,11,10,6,3
20.27,-3,-8,-20,-32,-8,-3,-5,-2
20.275,-1,-3,14,-17,-4,-2,-5,-3
20.28,-1,-2,-15,-4,-4,-2,-3,-1
20.285,0,-1,10,-8,2,-1,0,-2
20.29,-1,-5,1,-37,-3,-3,2,-1
20.295,0,6,4,26,8,2,-1,0
20.3,2,2,5,-1,5,0,1,-2
20.305,-4,-2,-20,-11,-10,-4,-3,-3
20.31,2,15,34,71,14,6,2,4
20.315,-9,-25,-53,-20,-16,-11,-6,-8
20.32,-2,-13,-2,-60,-12,-5,-5,-3
20.325,1,3,-2,27,6,6,4,3
20.33,2,5,-7,13,5,-1,2,3
20.335,6,15,13,45,11,1,-1,1
20.34,-10,-11,-17,-27,-10,-5,-7,-2
20.345,3,1,-12,-1,-1,0,-1,-1
20.35,-6,-3,21,-24,-2,-1,-1,-2
20.355,4,2,10,-9,3,3,2,-3
20.36,-1,-2,0,-11,-5,-6,-1,0
20.365,7,10,5,16,8,4,1,4
20.37,-8,-5,-13,-13,-7,2,-1,-1
20.375,-1,-2,1,-14,-7,-8,-4,-4
20.38,2,-4,-1,-2,-4,3,0,-2
20.385,-4,1,5,17,8,3,2,1
20.39,7,3,-7,0,2,-1,-1,0
20.395,1,0,1,-13,-17,-4,-1,1
20.4,21,4,8,17,6,3,3,4
20.405,-66,-18,-4,-8,0,-6,-8,-2
20.41,3,-8,-8,-21,-7,-7,-5,-23
20.415,5,9,5,20,15,2,2,6
20.42,16,14,6,32,8,2,1,3
20.425,25,2,-9,-30,-16,0,0,3
20.43,-23,-6,1,-9,-14,-2,1,11
20.435,7,1,6,2,1,0,-1,4
20.44,16,-2,0,-8,-2,-5,-7,-28
20.445,-62,-25,4,16,10,-4,-5,-11
20.45,-16,10,-10,-2,-2,0,0,3
20.455,20,1,5,0,0,3,6,9
20.46,48,0,-8,0,0,2,3,17
20.465,-13,15,-1,7,0,4,-3,-3
20.47,-11,-5,-12,4,-10,-5,-5,-11
20.475,-47,-17,-17,-59,-5,-9,-4,-17
20.48,6,0,3,2,4,-2,1,5
20.485,66,8,4,3,0,2,4,10
20.49,10,-5,-10,-9,-5,-2,-4,7
20.495,-6,15,6,21,7,2,-4,-6
20.5,-33,11,12,10,-4,-4,-3,-7
20.505,3,-1,-5,-9,-3,-6,0,-3
20.51,20,-3,2,4,7,5,2,5
20.515,23,-7,-1,0,-4,3,-2,3
20.52,-8,-2,-1,-22,-15,-4,-5,3
20.525,-9,-1,7,0,-3,0,0,-4
20.53,-23,-18,-7,-7,4,-9,-9,-16
20.535,39,28,8,16,3,1,7,10
20.54,15,-11,-7,-12,-1,-1,6,8
20.545,-65,-29,-10,-3,-9,-7,-8,-7
20.55,10,-12,0,-8,-6,-2,-3,-13
20.555,7,1,-6,-2,5,0,-5,-5
20.56,1,-3,-1,7,3,-2,-2,-2
20.565,54,7,4,13,4,5,13,25
20.57,12,7,-7,0,4,1,5,16
20.575,-27,-3,5,-22,-19,-12,-12,18
20.58,-113,-17,2,-6,1,-6,-16,-99
20.585,29,-4,-4,-7,-13,-4,-1,41
20.59,8,1,3,3,3,4,-4,-63
20.595,-2,-4,-1,21,3,0,4,15
20.6,1,3,-2,-9,-5,5,7,32
20.605,18,-7,-3,-5,1,1,2,4
20.61,45,7,5,3,5,4,4,33
20.615,-24,-3,1,-8,-9,-7,-16,-90
20.62,-34,-1,-6,1,1,-6,-3,48
20.625,25,10,7,14,11,6,0,-43
20.63,3,13,0,-7,-13,-6,-3,-33
20.635,-64,-17,2,1,3,-5,-3,2
20.64,13,-19,2,4,-3,-1,-1,3
20.645,53,30,0,11,8,-3,10,23
20.65,35,15,10,-8,-5,7,14,83
20.655,-87,-56,-19,-4,-4,-7,-15,1
20.66,53,-5,-14,-8,5,0,-11,-60
20.665,-54,12,8,-12,-23,-13,2,21
20.67,9,-11,4,-8,5,3,7,-40
20.675,80,23,17,16,16,9,12,82
20.68,91,18,1,4,-17,1,-1,44
20.685,-81,-35,-49,-24,-1,-8,-25,-97
20.69,-36,-4,-5,-5,1,-6,-1,20
20.695,44,-8,14,-6,-20,-3,5,-1
20.7,-11,-10,-5,4,6,0,-4,0
20.705,4,17,9,4,2,1,-3,-60
20.71,2,12,-5,5,-2,-5,-3,28
20.715,-37,7,-2,12,13,10,11,12
20.72,68,15,0,7,7,9,10,23
20.725,-44,30,2,10,-4,-6,-11,23
20.73,-105,-43,-29,-36,-7,-8,-5,64
20.735,-53,-12,13,-9,-12,-18,-23,-43
20.74,27,-10,8,3,-4,1,16,36
20.745,9,5,0,13,9,9,10,65
20.75,51,28,13,16,5,10,7,23
20.755,33,24,-10,3,4,2,-4,-21
20.76,-128,-27,-13,-2,-12,-13,-8,-24
20.765,119,13,5,-21,0,-3,-3,-6
20.77,-1,0,4,6,-8,3,3,4
20.775,95,-23,-2,-7,7,2,4,27
20.78,-88,-23,-8,2,-7,-7,-18,-64
20.785,52,-37,-7,-13,-15,-9,1,16
20.79,79,12,6,-22,5,0,1,-12
20.795,-54,11,6,34,4,5,5,-9
20.8,24,11,-5,-22,-9,-1,-2,21
20.805,-5,-6,7,5,7,5,1,4
20.81,-26,1,3,15,2,-1,-5,5
20.815,16,6,-6,-14,-12,-4,-5,-14
20.82,15,16,11,11,5,1,1,27
20.825,-45,-10,-9,-8,-4,-1,-3,-12
20.83,-4,-10,-7,-5,0,-5,-6,-31
20.835,13,15,6,14,10,6,13,18
20.84,34,2,-10,-15,-2,1,-1,2
20.845,-60,-15,5,11,-2,-5,-9,-17
20.85,-7,1,11,3,0,0,-3,-20
20.855,11,-5,-7,-21,-6,-5,19,3
20.86,0,7,-12,-11,8,4,-10,12
20.865,30,-7,-7,-2,-8,0,-3,-6
20.87,-3,-6,8,14,-3,-5,-5,2
20.875,-28,-3,-16,8,3,2,-1,-3
20.88,19,10,20,6,7,8,19,-16
20.885,20,7,-7,-5,6,-2,4,17
20.89,-29,-13,-29,-20,-14,-20,-33,-23
20.895,22,-5,33,-25,-9,6,-3,-8
20.9,5,11,-9,15,10,6,13,18
20.905,-7,-4,7,57,9,5,5,-6
20.91,7,16,56,47,6,9,7,-2
20.915,-10,-25,-68,-9,-19,-16,-18,-14
20.92,4,-11,34,-82,-18,-18,-12,-10
20.925,-22,-3,-53,-41,2,10,5,-7
20.93,4,0,7,72,8,-2,1,-1
20.935,31,35,64,68,21,15,8,30
20.94,-48,-16,29,75,-6,-7,-13,-39
20.945,11,-28,-84,-68,-23,-15,-7,-7
20.95,25,4,34,26,2,1,7,37
20.955,-18,-9,-58,24,2,-3,-5,-24
20.96,12,9,17,15,-1,1,2,10
20.965,8,35,107,83,19,12,4,10
20.97,-16,-17,-72,-45,-10,0,-3,-7
20.975,2,15,96,49,11,3,0,-8
20.98,14,-3,4,14,2,-4,1,9
20.985,-22,-4,7,7,-2,0,0,-1
20.99,-11,-48,-31,-107,-45,-17,-11,-10
20.995,15,30,92,79,24,14,4,17
21,-25,-13,-90,-74,-7,-5,-2,-12
21.005,27,-14,39,46,-15,-13,-11,2
21.01,-54,-18,-2,-70,-10,-9,-6,-18
21.015,1,-8,-43,-26,-9,-2,-2,-2
21.02,-6,21,56,127,19,11,3,15
21.025,23,43,85,119,37,16,13,17
21.03,-24,-59,-99,-85,-42,-22,-16,-16
21.035,-7,-5,56,38,-6,1,-1,-6
21.04,7,9,15,24,3,1,3,11
21.045,-3,-1,1,-25,-4,-5,-2,-2
21.05,7,23,23,40,21,4,3,-11
21.055,-5,1,-37,-11,5,1,-2,2
21.06,0,-26,-61,-118,-27,-7,-7,-2
21.065,-11,-1,-6,-34,-5,-6,-3,-5
21.07,11,15,4,14,22,11,8,-1
21.075,7,-3,3,-39,-4,-3,2,2
21.08,-3,2,-30,4,0,-1,-3,-6
21.085,-2,9,58,80,2,2,-1,-1
21.09,-12,-22,-59,-63,-23,-9,-8,-4
21.095,0,-4,17,1,1,-4,-1,0
21.1,2,0,20,27,0,-2,0,-2
21.105,-3,4,2,1,5,5,1,4
21.11,12,21,51,54,16,7,5,-2
21.115,-13,-21,-87,-69,-19,-14,-10,-6
21.12,5,7,35,33,5,2,0,-2
21.125,-6,-16,-39,-69,-15,-7,-3,-2
21.13,7,16,31,48,16,10,6,-2
21.135,-9,-15,-32,-51,-14,-4,-4,-3
21.14,3,4,35,4,4,2,1,1
21.145,-2,2,-3,4,2,-4,-1,0
21.15,-2,1,-4,36,3,-1,-1,-2
21.155,-7,-3,1,-39,-8,-3,-1,-2
21.16,-1,-5,-18,-11,-1,-1,3,-2
21.165,-1,-6,-26,-32,-4,-3,-6,-3
21.17,3,11,26,44,11,9,4,0
21.175,1,6,13,38,8,-4,2,2
21.18,-11,-27,-57,-90,-22,-9,-10,-8
21.185,-5,-6,-9,-27,-5,-2,0,-3
21.19,4,13,16,16,8,4,3,3
21.195,2,2,19,32,3,-1,-2,-2
21.2,1,2,5,0,-6,1,-1,1
21.205,-3,-5,-5,-6,1,2,3,-1
21.21,10,22,47,107,17,5,3,5
21.215,-15,-36,-84,-115,-31,-16,-9,-9
21.22,5,8,16,26,6,0,1,1
21.225,0,-1,-15,2,0,-1,-1,0
21.23,4,12,24,22,8,3,3,1
21.235,2,8,-2,37,7,6,2,1
21.24,-4,-6,-4,-4,-4,-5,-4,-2
21.245,-4,-5,8,-23,-5,-6,-5,-1
21.25,1,-3,-7,-21,-2,-1,-1,-4
21.255,3,6,5,15,7,4,2,2
21.26,3,3,2,-1,-1,0,2,1
21.265,4,-2,-3,-5,-8,-3,-3,7
21.27,-22,-16,-10,-24,-12,-10,-9,-24
21.275,5,-4,-3,-3,-8,-8,-7,-3
21.28,-4,0,15,28,10,7,3,2
21.285,-2,-1,-6,1,10,5,7,3
21.29,8,3,-3,-10,2,0,5,10
21.295,6,5,9,10,-2,1,-4,0
21.3,7,-3,-4,-2,-4,-3,-8,-17
21.305,-33,-1,29,44,3,4,-5,-3
21.31,4,-12,-50,-29,-11,-10,-8,-3
21.315,-5,-5,25,2,-1,-2,2,2
21.32,19,7,9,34,9,3,5,11
21.325,9,2,-15,-9,-2,0,3,0
21.33,10,7,20,12,-2,-1,-5,-3
21.335,-27,-4,-6,-6,-4,-4,-2,-1
21.34,-8,-6,-13,-20,-7,-3,-1,-4
21.345,-13,-2,3,2,2,-1,0,-8
21.35,11,2,8,-1,5,8,10,15
21.355,62,15,-7,4,10,12,5,18
21.36,9,-3,12,-2,-15,-12,-13,-5
21.365,-88,-47,-25,-33,-20,-18,-19,-66
21.37,26,-16,4,-15,-2,-7,0,2
21.375,12,9,0,4,4,0,5,5
21.38,1,12,11,25,12,13,13,20
21.385,89,25,-3,-2,-1,9,9,33
21.39,7,13,-12,-20,-8,-3,-8,-12
21.395,-59,-21,7,-1,-5,-9,-10,-13
21.4,-30,10,-5,-7,-4,-19,-13,-14
21.405,-34,-8,-9,-9,8,4,5,-10
21.41,34,-4,9,11,-4,19,23,36
21.415,112,25,3,8,-1,7,6,30
21.42,-103,-42,-19,-19,-19,-21,-38,-78
21.425,13,-21,-7,-16,-9,-24,-17,-29
21.43,54,19,9,14,16,2,8,11
21.435,25,30,6,7,4,8,13,9
21.44,42,6,2,7,1,11,17,37
21.445,-24,-14,-3,-2,-4,0,-3,6
21.45,-42,-11,-5,-8,-4,-1,-10,-15
21.455,-27,-7,1,3,-5,-3,-4,-2
21.46,21,11,4,-1,8,4,5,10
21.465,34,18,0,6,5,2,3,11
21.47,-68,-17,-4,-22,-21,-11,-10,-10
21.475,-21,-18,-8,3,2,-6,-7,-16
21.48,18,3,3,16,3,5,6,8
21.485,-8,-4,1,5,-7,-4,-2,2
21.49,24,18,-2,4,8,4,3,5
21.495,46,0,3,6,1,7,5,18
21.5,-83,-9,-6,-14,-11,-17,-27,-26
21.505,4,-11,-5,-14,-1,-2,1,-27
21.51,26,-8,6,2,-2,-5,-2,20
21.515,-18,-9,-3,4,2,1,5,21
21.52,68,43,-3,9,16,10,21,75
21.525,-7,-12,5,2,-8,-3,-18,-69
21.53,-50,-20,-9,-5,-2,-8,-8,-42
21.535,-49,-22,-6,10,7,-3,3,16
21.54,34,0,-2,-29,-17,4,8,7
21.545,6,20,-2,-1,0,-1,-1,44
21.55,49,19,3,10,9,3,8,18
21.555,-33,-9,-5,0,-13,-6,-6,-17
21.56,-28,-13,12,9,9,1,2,-6
21.565,39,23,-5,3,-4,1,-1,-10
21.57,-87,-52,-3,-14,-11,-11,-19,-6
21.575,36,28,16,10,19,7,10,-1
21.58,51,-14,-41,-2,-10,-1,-1,4
21.585,-42,-7,25,-3,-5,-2,-11,-51
21.59,2,17,-7,-14,-3,-6,-3,35
21.595,-86,-45,0,-20,-7,-12,-13,-45
21.6,19,21,24,18,2,4,11,37
21.605,67,-3,-31,1,5,8,9,36
21.61,-54,-38,3,2,-10,-6,-7,-10
21.615,54,24,4,6,6,2,3,-22
21.62,99,10,4,-8,-3,7,12,13
21.625,-93,-1,0,-22,-10,-7,-18,-11
21.63,17,11,15,3,7,-10,-9,-54
21.635,110,-4,1,-5,17,5,8,49
21.64,-91,-31,-7,2,-21,-10,-8,-40
21.645,-4,1,8,0,-15,-5,1,29
21.65,14,16,-5,2,0,7,4,24
21.655,-36,7,1,3,1,4,1,-16
21.66,28,0,8,12,19,1,1,9
21.665,74,10,0,3,3,7,15,64
21.67,-87,-11,-4,1,-12,-3,-12,-60
21.675,36,9,-6,-6,-8,-15,-16,-1
21.68,-63,5,3,-3,2,0,-1,-25
21.685,27,-13,-9,-4,0,0,5,24
21.69,54,6,2,-3,2,5,4,9
21.695,-30,-1,-5,1,-10,2,-2,-17
21.7,-19,-11,-6,2,-1,-7,-12,-16
21.705,7,4,22,17,5,-3,3,6
21.71,117,38,13,24,11,12,18,61
21.715,-104,-21,-57,-54,-16,-3,-11,-46
21.72,9,-18,8,-5,-1,-6,-7,-13
21.725,26,-2,24,17,6,0,3,6
21.73,-46,-16,-11,8,-13,-13,-9,-26
21.735,17,33,6,34,6,9,8,47
21.74,-2,-24,15,-3,-11,-4,-7,-19
21.745,-11,-1,11,-18,-5,-6,-5,-29
21.75,-15,-11,-15,-83,-11,-5,-1,6
21.755,37,15,52,77,14,1,10,8
21.76,-7,9,-20,-1,10,7,7,3
21.765,-21,-27,-44,-36,-18,-11,-21,16
21.77,9,12,27,57,7,5,-2,-14
21.775,0,-4,11,44,-4,-1,-5,1
21.78,15,23,19,67,16,10,9,11
21.785,-13,-13,-30,-58,-9,-3,5,-10
21.79,-3,-8,-49,-69,-6,-1,-3,-5
21.795,-4,5,19,60,8,-1,-2,-4
21.8,-5,-22,-61,-106,-21,-7,-5,-3
21.805,2,17,54,72,9,3,3,-3
21.81,5,5,-11,43,10,4,4,3
21.815,-18,-27,0,-98,-23,-13,-12,-11
21.82,11,16,24,90,16,4,1,-2
21.825,7,19,-7,65,17,10,9,9
21.83,-11,-27,-22,-75,-20,-10,-10,-8
21.835,-5,-7,-28,-25,-4,-1,0,-8
21.84,3,-4,-7,-79,-14,-3,-8,-5
21.845,1,8,17,38,6,4,3,-3
21.85,-2,9,18,53,10,5,3,2
21.855,-10,-17,-35,-37,-9,-7,-7,-8
21.86,4,2,12,18,-1,-6,-5,4
21.865,-3,5,-14,3,3,5,3,-1
21.87,-3,-4,12,0,-8,-5,-6,-4
21.875,-2,-8,-5,-6,-5,-4,-2,-5
21.88,-3,-6,-29,-46,-1,-1,0,3
21.885,-5,-1,-24,0,1,-2,0,-1
21.89,-1,-9,15,-43,-9,-8,-6,-5
21.895,-5,-2,-2,-22,-2,0,0,0
21.9,1,4,8,49,8,0,-1,-1
21.905,-2,0,-12,-8,-3,-2,0,-1
21.91,2,3,5,11,7,2,-1,-1
21.915,-3,-1,29,34,-5,-1,-1,-3
21.92,4,9,17,68,13,3,2,0
21.925,-6,-14,-44,-70,-10,-1,-4,-2
21.93,-4,-9,-2,-14,-11,-5,-2,0
21.935,-2,-5,-13,-42,-2,-3,-1,-5
21.94,-2,-6,0,-15,-6,-3,-2,-4
21.945,0,3,17,20,1,-1,1,1
21.95,2,11,-4,30,8,4,1,3
21.955,0,2,27,36,1,-3,-3,-4
21.96,-7,-11,-36,-39,-13,-1,-1,-2
21.965,0,3,10,11,4,-2,-1,0
21.97,-3,-4,-8,-27,-5,-1,1,-3
21.975,0,0,4,2,2,1,-2,2
21.98,0,2,25,29,2,-1,0,-2
21.985,-1,-2,-13,14,-2,3,-4,-2
21.99,4,5,14,24,-1,-1,-1,-1
21.995,0,0,-8,-4,-4,-9,-4,-2
22,-4,-5,10,-36,-3,-6,-2,-1
22.005,-5,-3,4,-8,-4,1,-1,-3
22.01,0,-1,-8,6,3,0,2,1
22.015,1,0,2,-14,-6,-1,-2,-2
22.02,12,8,6,12,11,6,6,6
22.025,11,-6,1,-31,-15,-6,-5,8
22.03,-33,-10,3,-2,0,-4,-10,-29
22.035,-17,-13,-5,13,-5,0,1,10
22.04,27,8,2,-10,-1,4,1,12
22.045,-32,1,11,6,8,-6,-1,-36
22.05,19,13,-7,2,4,8,13,31
22.055,99,24,0,17,15,23,18,86
22.06,-36,-8,-6,-19,-19,-15,-24,-58
22.065,-69,-41,-7,-27,-20,-34,-30,-66
22.07,79,-22,-22,19,6,-11,-4,-24
22.075,1,-22,7,-16,-3,-3,8,0
22.08,92,21,15,27,12,20,22,77
22.085,93,45,4,19,12,23,19,58
22.09,-19,11,6,-12,-3,1,-3,27
22.095,-92,-31,-8,-14,-43,-19,-33,-107
22.1,24,0,-6,-7,2,-7,-6,9
22.105,-31,-7,3,1,5,-2,-2,-4
22.11,6,6,7,7,-2,4,14,41
22.115,88,35,-4,6,13,10,7,71
22.12,-128,-35,-16,-22,-18,-21,-27,-124
22.125,28,2,6,0,6,5,4,-44
22.13,5,16,6,4,2,6,5,23
22.135,42,12,17,6,7,4,7,29
22.14,76,7,-27,9,-8,-3,2,17
22.145,-72,-44,4,-6,3,0,2,9
22.15,-37,-22,-16,-1,4,1,-3,-24
22.155,16,-1,-1,-12,-25,-14,-14,-39
22.16,-60,-18,13,-1,6,-10,-10,16
22.165,102,25,-19,3,3,6,9,34
22.17,-102,-3,9,2,-9,-9,-11,-16
22.175,-30,1,-13,1,11,-2,-6,-34
22.18,32,-8,4,3,4,7,12,26
22.185,10,1,9,-6,-9,-4,0,19
22.19,31,14,4,11,3,1,4,7
22.195,30,14,-7,1,11,5,7,7
22.2,-18,-6,2,2,-11,-6,-8,-19
22.205,0,7,-3,-9,-1,2,9,21
22.21,68,5,0,5,3,0,-4,25
22.215,-55,-17,-6,-13,-13,-7,-19,-104
22.22,-30,-3,1,-5,4,-3,5,27
22.225,-12,-27,-11,-29,-21,-7,-10,25
22.23,30,21,3,8,3,3,7,8
22.235,-66,-54,-3,-8,-1,-6,-4,-67
22.24,35,12,-7,-2,-2,2,2,6
22.245,-3,14,14,9,6,-2,0,15
22.25,30,-1,6,10,2,-4,-2,-7
22.255,31,13,-2,23,14,5,7,53
22.26,-30,-19,7,-51,-32,-8,-6,-32
22.265,12,5,-9,4,2,-7,-8,-28
22.27,64,27,16,19,9,15,12,23
22.275,-65,-12,7,-1,0,-7,-10,-3
22.28,-74,-26,-26,4,9,1,-1,-33
22.285,81,18,1,-1,-1,3,4,15
22.29,5,5,1,-2,-9,-2,-3,-15
22.295,1,-4,14,3,5,2,12,50
22.3,52,14,9,15,3,1,-6,14
22.305,-15,-8,-12,-11,-10,-6,-9,-25
22.31,-18,0,3,11,3,-2,-2,-4
22.315,30,16,-4,-8,-5,1,4,14
22.32,-40,-28,7,3,-1,-2,0,-9
22.325,8,2,-7,3,4,5,0,-2
22.33,-5,-7,1,-3,-7,-1,-2,7
22.335,-34,-23,-7,-10,-8,-9,-11,-13
22.34,37,11,0,5,7,3,10,12
22.345,-3,4,13,16,8,-1,2,6
22.35,-23,-15,-5,-8,-8,2,-7,-11
22.355,19,15,-5,10,4,5,6,21
22.36,24,16,-18,-12,6,5,4,17
22.365,-45,-34,-4,-62,-26,-16,-18,-41
22.37,-19,-17,-7,3,-2,-5,-5,-9
22.375,37,14,4,10,6,8,9,20
22.38,10,46,45,75,22,17,13,34
22.385,-35,-23,-51,50,-8,-4,-14,-18
22.39,-3,-57,-85,-108,-41,-29,-16,-14
22.395,15,15,17,23,10,2,4,12
22.4,23,12,-9,4,1,2,8,21
22.405,-24,36,86,88,29,19,14,-1
22.41,18,17,21,40,14,6,3,4
22.415,-13,-24,-90,-35,-21,-11,-14,2
22.42,-3,-11,-16,-89,-18,-13,-11,-4
22.425,6,-8,68,14,4,-3,2,4
22.43,-7,-11,-31,-73,-28,-6,4,-10
22.435,-12,43,100,104,37,20,12,1
22.44,11,-15,-2,17,-13,-15,-12,-9
22.445,-9,-57,-63,-76,-52,-26,-19,-13
22.45,4,44,50,92,42,19,15,4
22.455,-18,-18,-6,-82,-14,-8,-5,-13
22.46,31,39,86,82,25,13,5,7
22.465,-7,-13,-108,-24,-5,-7,-5,12
22.47,-35,-36,-21,-47,-25,-13,-12,-24
22.475,6,9,46,-12,1,1,-3,0
22.48,-6,-26,-69,-8,-17,-11,-7,-6
22.485,16,33,90,90,17,10,11,4
22.49,-19,-6,-57,21,2,-1,-4,-12
22.495,7,10,-1,41,13,5,6,6
22.5,-6,-20,-64,-63,-12,-5,-5,-9
22.505,-7,-4,48,-52,-8,-5,-4,-5
22.51,8,11,37,52,8,1,-2,1
22.515,-5,-12,-41,-62,-13,-5,-4,-1
22.52,3,18,44,88,20,8,5,-2
22.525,-8,-16,-82,-95,-19,-3,-3,1
22.53,-7,-1,34,-3,5,5,2,0
22.535,-1,-6,-20,-35,-9,-3,-3,-7
22.54,-6,0,71,53,3,-3,-1,-4
22.545,10,4,-42,-3,12,5,6,10
22.55,-7,-6,9,-16,-6,-5,-6,-10
22.555,-6,-10,-26,-8,-7,-6,-6,-5
22.56,5,-4,-41,-18,-2,4,0,0
22.565,4,23,66,69,12,7,7,6
22.57,-11,-6,-22,-14,-3,-5,-1,-5
22.575,-3,-11,-46,-9,-4,-8,-6,1
22.58,2,-3,36,1,-4,-1,0,0
22.585,-2,-2,-49,-12,3,1,0,-4
22.59,-1,3,34,19,4,1,-2,-2
22.595,3,6,-14,5,1,1,-1,-5
22.6,-5,-1,42,36,-2,0,0,6
22.605,0,-7,-53,-19,-5,-4,-2,-6
22.61,5,9,21,-7,2,1,-1,4
22.615,6,7,31,91,6,2,2,0
22.62,-14,-25,-44,-103,-23,-11,-9,-12
22.625,7,20,32,71,16,6,10,10
22.63,-10,-15,-7,-45,-6,-4,-6,-6
22.635,0,7,13,15,1,0,-1,0
22.64,2,4,0,21,4,5,1,-3
22.645,6,17,87,77,7,-1,-2,8
22.65,-13,-28,-107,-77,-21,-7,-5,-7
22.655,-7,-6,37,6,-6,-4,-4,-4
22.66,5,-1,3,42,-1,1,1,-1
22.665,-7,-5,15,-56,-9,-6,-1,-4
22.67,3,11,13,43,12,4,4,1
22.675,0,-2,-18,-19,2,1,-1,1
22.68,-3,-6,-26,-25,-17,-3,0,-1
22.685,-3,-3,-30,-17,6,5,2,1
22.69,3,13,47,77,8,0,1,-2
22.695,-14,-26,-3,-114,-28,-17,-12,-5
22.7,4,9,-2,27,13,4,3,-1
22.705,-1,-3,-6,-9,-2,-2,-2,-1
22.71,3,10,24,40,8,-2,1,1
22.715,1,3,3,63,6,10,4,5
22.72,-9,-17,-33,-96,-14,-9,-4,-7
22.725,-1,0,-5,-20,2,-1,-3,1
22.73,-5,-8,-15,-25,-11,-6,-5,-3
22.735,3,6,31,39,8,-1,4,-1
22.74,-1,2,-6,-5,3,4,-1,-1
22.745,-2,2,-13,2,-4,3,-1,-1
22.75,-1,-3,26,8,-3,-5,-4,-3
22.755,2,-4,-25,-14,-5,-7,1,-1
22.76,3,5,-6,0,9,4,2,2
22.765,-1,0,1,0,4,2,-2,1
22.77,-6,5,5,9,-6,0,-4,-2
22.775,5,-11,-6,-25,-18,-7,-4,-3
22.78,8,-9,-2,-3,-4,-2,-2,0
22.785,-28,-2,5,15,10,3,0,-1
22.79,20,12,-7,-1,-4,3,1,4
22.795,-14,7,-9,8,5,2,2,-5
22.8,1,-2,-2,2,6,-2,0,-4
22.805,5,-6,2,-25,-10,-10,-5,2
22.81,3,-12,-21,21,-2,-2,-5,-1
22.815,-10,0,-6,-12,-6,-1,-4,-2
22.82,2,6,4,7,0,3,1,-1
22.825,2,2,15,12,-2,5,1,0
22.83,-2,-3,-5,-17,1,-1,1,-2
22.835,8,0,-5,0,2,-1,3,3
22.84,-8,-1,-1,8,2,-5,-1,0
22.845,1,-1,-7,-2,-4,1,-2,-3
22.85,-1,-2,0,-12,-3,-4,-6,-1
22.855,-1,-2,7,4,-4,-2,-3,-3
22.86,-4,1,-8,-13,4,1,2,1
22.865,6,2,-2,-1,1,1,0,-2
22.87,-5,-5,-1,11,-8,-3,-1,-3
22.875,-3,-4,4,-3,2,1,-4,-3
22.88,-4,1,-12,-10,-4,-3,-3,-3
22.885,9,-3,-2,5,2,-1,-2,-1
22.89,-8,-4,4,-3,5,4,1,3
22.895,10,5,-9,8,0,2,2,5
22.9,14,-1,10,-2,-2,-3,-1,-4
22.905,-34,0,-10,-14,-4,-4,0,-5
22.91,-5,-9,-12,-9,4,-1,-1,-3
22.915,4,-5,2,6,1,-1,-2,0
22.92,13,0,0,11,-6,-2,-1,2
22.925,11,-3,-3,-13,-5,1,3,3
22.93,-18,-1,21,-9,-5,-1,2,1
22.935,-1,-4,0,0,1,2,-2,0
22.94,-10,-2,0,6,2,0,-5,-17
22.945,8,5,5,24,3,-1,-2,-3
22.95,2,7,8,5,1,3,3,2
22.955,2,1,5,-6,-2,0,-1,1
22.96,-11,-1,7,-10,-7,-1,-3,3
22.965,4,-3,-7,-9,-6,-9,-5,-2
22.97,7,7,-10,-7,3,-3,2,3
22.975,7,-2,13,19,4,5,11,1
22.98,33,4,14,20,2,5,4,42
22.985,-60,-13,-2,-4,-7,-6,-15,-26
22.99,15,-8,-6,-12,-6,-2,-6,4
22.995,17,12,-16,-9,-3,-7,-2,36
23,-3,0,5,-5,-2,0,4,-6
23.005,36,8,-1,-4,3,9,8,34
23.01,-4,3,15,33,5,3,-2,0
23.015,-20,-16,-10,-9,-9,-3,-6,-29
23.02,5,-5,2,-19,-5,-6,-5,5
23.025,3,24,1,-6,-3,-2,-1,-15
23.03,-16,-3,6,6,8,3,6,-4
23.035,42,9,-2,-6,-1,4,4,17
23.04,-6,-9,-6,2,0,-1,-6,-15
23.045,-97,-37,-17,-21,-10,-13,-14,-11
23.05,17,-3,20,12,1,-7,-6,-34
23.055,64,10,7,6,8,4,8,26
23.06,-9,9,-12,5,-2,0,-2,7
23.065,-2,-7,2,-4,0,-2,-1,-9
23.07,-7,-2,-19,6,3,7,7,17
23.075,0,-11,7,-11,-7,-4,-2,-1
23.08,6,19,3,8,10,3,1,-6
23.085,56,10,2,-2,-3,7,6,17
23.09,41,27,-11,5,1,2,-2,3
23.095,-93,-60,-3,2,-7,-16,-18,-37
23.1,37,-2,3,-9,-3,-5,5,-2
23.105,34,3,13,15,6,5,11,16
23.11,-67,-33,-5,-15,-3,-1,-8,-54
23.115,60,36,-9,1,8,-2,-1,4
23.12,-16,-1,7,4,-6,0,-1,4
23.125,42,7,2,-2,-2,1,5,18
23.13,10,8,37,1,-6,-2,2,62
23.135,-66,-22,-86,-36,-16,-7,-13,-87
23.14,-16,-16,11,2,-2,-16,-18,-21
23.145,-5,11,-4,-8,2,5,4,5
23.15,-4,-6,7,2,4,-1,2,18
23.155,-20,5,14,9,-1,2,7,19
23.16,15,-4,-13,2,3,8,10,13
23.165,-11,-6,14,4,7,-3,-8,-4
23.17,-30,-8,-16,6,-11,-6,-10,-40
23.175,39,13,21,2,0,0,4,18
23.18,-24,6,-22,3,9,6,4,-2
23.185,1,-5,9,0,-16,-6,-10,0
23.19,39,7,-8,-10,-2,-6,-1,8
23.195,-16,-2,9,4,5,1,1,6
23.2,-11,-2,0,1,0,1,0,6
23.205,-72,-40,-14,-9,-17,-9,-5,-21
23.21,26,-1,-3,-7,1,1,4,1
23.215,27,5,0,4,2,-2,1,7
23.22,14,0,5,-6,1,1,5,9
23.225,56,17,-11,9,7,6,2,1
23.23,-18,-4,4,-13,-16,-2,1,-5
23.235,-61,-12,10,12,10,-1,-1,24
23.24,21,2,-1,0,-1,-3,-4,-20
23.245,-1,11,3,2,9,9,6,9
23.25,-39,4,8,1,-2,-5,-6,-30
23.255,58,19,-4,-2,-4,-1,2,10
23.26,-64,-53,-8,-13,-5,-2,-2,7
23.265,81,29,-5,7,-7,2,10,17
23.27,-85,-24,-3,-12,-3,-10,-14,-13
23.275,17,-21,14,13,-5,-8,-10,-26
23.28,27,10,-15,-11,-2,1,3,1
23.285,12,5,4,1,8,-1,3,9
23.29,67,13,-1,3,2,9,12,31
23.295,-56,0,7,-2,-2,1,-4,-12
23.3,-10,-1,-4,-2,-5,-6,-6,-5
23.305,-9,-5,8,12,6,-3,-2,-4
23.31,56,19,-4,4,3,1,4,14
23.315,-28,7,-1,-14,-5,0,0,-6
23.32,-90,-51,-1,-4,-7,-12,-18,-20
23.325,-9,-21,-2,-19,-12,-5,-1,-8
23.33,57,12,-7,13,8,4,4,13
23.335,-24,-5,-6,-5,-1,2,2,9
23.34,2,-6,-6,-7,2,2,2,3
23.345,-101,-35,-14,-8,-12,-17,-20,-41
23.35,39,5,4,-1,1,-1,1,18
23.355,54,26,18,8,8,5,5,14
23.36,-5,15,4,-4,-17,-8,-4,-3
23.365,-22,2,38,-4,7,2,5,9
23.37,13,-8,-63,-2,5,0,-7,-38
23.375,-48,-14,-6,-17,-7,-4,-6,-6
23.38,17,3,-10,5,-5,-3,-8,-10
23.385,68,17,6,11,3,4,5,10
23.39,-109,-11,15,0,-2,-3,-1,15
23.395,79,7,3,5,3,1,0,-3
23.4,-60,-28,-2,-1,-9,-8,-2,-9
23.405,31,4,-7,-5,3,1,0,-9
23.41,35,12,-5,-11,2,3,5,10
23.415,-37,-21,-3,-1,-6,-5,-13,-10
23.42,46,35,14,-5,-2,6,7,17
23.425,-2,4,-4,9,7,4,3,-2
23.43,-19,-30,2,-12,-10,-6,-11,-13
23.435,1,21,-3,3,-3,-5,8,13
23.44,11,3,13,7,5,3,-2,-1
23.445,6,3,-15,3,3,0,-4,1
23.45,4,10,11,-5,-4,-4,-5,6
23.455,-41,-49,-6,9,-5,-3,0,-11
23.46,38,14,3,-5,5,3,3,-1
23.465,-13,-5,-6,0,0,-2,0,-2
23.47,20,10,8,-1,1,2,-1,4
23.475,4,6,1,-3,-2,-2,0,-3
23.48,-2,11,4,6,1,0,5,23
23.485,3,-10,-9,-5,-3,3,-6,-14
23.49,-10,-4,5,-3,-3,-5,-10,-16
23.495,-3,3,-1,-4,1,2,0,3
23.5,-1,-1,-6,-1,0,-2,3,-11
23.505,-4,-3,-2,-5,-4,-2,1,9
23.51,-7,-3,6,9,0,-1,5,3
23.515,-8,2,-3,-2,2,1,-3,-1
23.52,14,7,-7,-5,-2,0,-3,-4
23.525,15,6,-4,-2,-4,-2,1,21
23.53,-30,-10,5,-3,-3,2,4,-31
23.535,38,6,-5,-3,1,4,1,12
23.54,-32,-5,16,1,4,-2,1,-13
23.545,-13,-8,-7,-7,-6,-3,-8,-8
23.55,17,8,-8,0,1,4,32,29
23.555,-17,-11,20,12,-4,-10,-51,-25
23.56,2,6,10,5,0,1,-9,-17
23.565,-26,-2,29,37,3,-2,-5,-12
23.57,17,-5,-24,12,-1,2,8,10
23.575,-11,-13,-41,-82,-12,-8,15,2
23.58,30,-8,-19,-39,-7,-9,-5,11
23.585,-1,15,39,23,4,3,2,1
23.59,-10,8,68,116,17,10,2,-3
23.595,2,-12,-43,-73,-15,-1,8,6
23.6,-3,-6,-18,6,-6,-4,-7,-5
23.605,-4,2,-15,-10,3,5,2,0
23.61,-11,-9,22,5,-13,-9,-19,-4
23.615,0,12,-8,15,10,6,6,3
23.62,1,2,-4,8,-1,1,1,1
23.625,3,8,35,50,5,0,0,-8
23.63,-3,10,-19,23,10,4,-2,9
23.635,-12,-30,-49,-67,-23,-15,-6,-9
23.64,-4,-13,-57,-86,-12,-7,-1,-3
23.645,5,1,24,36,4,1,4,2
23.65,-2,0,5,57,8,1,-7,-3
23.655,0,6,-29,-22,-1,1,5,2
23.66,9,22,71,122,30,18,6,4
23.665,-13,-24,-82,-45,-21,-8,-9,-6
23.67,-17,-37,65,-117,-39,-28,-14,-22
23.675,21,21,40,111,17,6,6,4
23.68,7,10,-8,63,7,7,5,10
23.685,-10,4,-37,-50,9,5,3,-4
23.69,2,11,21,69,13,9,-2,6
23.695,-6,-30,-84,-101,-26,-12,-4,-8
23.7,-16,-3,74,42,0,-4,-2,-4
23.705,2,-3,-18,-51,-7,-4,-6,0
23.71,6,15,-8,34,15,7,3,3
23.715,-8,2,30,11,2,2,11,-2
23.72,-3,-16,-54,-88,-21,-12,-19,-5
23.725,7,7,22,25,2,1,-2,0
23.73,-14,-27,-17,-21,-16,-11,-19,-8
23.735,13,17,12,-1,13,3,9,9
23.74,-5,14,17,73,12,6,6,-1
23.745,-1,-19,-40,-77,-18,-10,3,7
23.75,6,10,28,28,4,4,5,3
23.755,-1,6,50,127,10,7,12,2
23.76,-11,-22,-39,-124,-27,-13,-23,-5
23.765,1,11,16,59,12,3,2,-1
23.77,4,4,-4,-10,0,-3,2,2
23.775,-8,-7,13,-22,-6,-4,-3,-7
23.78,9,11,19,32,10,8,9,6
23.785,-4,-5,-5,23,2,0,-1,-2
23.79,-5,-12,-49,-85,-14,-5,-5,-2
23.795,1,14,51,46,9,5,-5,0
23.8,3,-6,-17,24,-2,-2,2,0
23.805,-4,-12,32,5,-11,-8,-7,-6
23.81,-4,-3,-26,-43,-2,-2,5,0
23.815,-3,1,51,18,-3,0,-7,-1
23.82,5,9,2,29,10,3,5,0
23.825,-6,-7,-16,19,-5,-4,1,-2
23.83,3,7,-12,10,10,8,0,2
23.835,-11,-15,-18,-66,-16,-15,-13,-6
23.84,5,-2,-5,-18,-4,-3,2,1
23.845,12,5,15,32,4,1,6,2
23.85,23,9,1,11,7,3,2,0
23.855,-24,-4,-18,6,0,3,-6,0
23.86,-5,12,3,25,1,-3,2,-1
23.865,-52,-42,-13,-92,-20,-15,-9,-15
23.87,15,-5,-13,-30,-7,-1,-8,5
23.875,17,9,13,37,7,6,4,2
23.88,17,6,5,3,2,2,1,4
23.885,12,19,12,56,11,8,4,6
23.89,-15,6,27,52,3,0,1,-1
23.895,2,-9,-20,1,-11,-7,-6,-4
23.9,-9,-14,-3,43,-11,-1,8,-2
23.905,7,7,-3,48,8,4,-7,4
23.91,-10,-6,-9,8,-1,-2,1,-2
23.915,12,24,28,72,19,7,0,5
23.92,9,-6,-10,-37,-9,-2,-4,-5
23.925,-19,-7,-8,-40,-8,-3,-1,-3
23.93,5,-4,-6,17,-1,-6,-5,-1
23.935,-13,-4,1,-19,4,-4,5,-1
23.94,4,-6,-4,-31,-1,1,-2,0
23.945,23,6,-4,-9,-1,0,-3,4
23.95,-5,5,-7,-7,0,3,-2,-3
23.955,-20,-12,-11,-9,-16,0,-1,-6
23.96,-25,-1,-19,-14,2,-4,-2,-4
23.965,12,4,85,21,-2,-4,-2,-3
23.97,2,-9,-16,-16,-2,0,6,2
23.975,16,3,-3,7,3,-1,-2,3
23.98,15,4,-7,13,7,2,0,3
23.985,-27,-1,-3,16,1,6,0,-1
23.99,-14,-7,-1,-19,-11,-6,-3,-13
23.995,-1,-9,-35,-64,-7,1,-2,3
24,12,4,31,17,-1,-1,-3,2
24.005,9,0,-12,-3,0,-6,-1,-2
24.01,-4,-3,-4,-6,-3,-3,-1,0
24.015,-10,8,6,44,12,6,1,-1
24.02,-10,-6,-6,-16,-9,-6,-3,-4
24.025,7,-2,-22,-15,-6,-3,0,-1
24.03,-3,1,-13,-7,-3,-2,-3,-1
24.035,3,2,17,25,-1,-2,1,0
24.04,-4,-4,1,-5,2,-1,1,-1
24.045,-7,-2,-13,-1,6,0,1,2
24.05,15,0,-9,-9,-9,-4,-3,3
24.055,-31,-8,-1,-2,2,-8,-7,-10
24.06,-18,-4,13,10,-1,-1,-7,-8
24.065,7,-4,-11,-17,-15,0,4,-2
24.07,4,-4,-4,-13,6,3,0,1
24.075,15,3,13,14,3,1,1,5
24.08,-4,3,-15,0,2,-4,2,3
24.085,0,3,15,8,5,-7,-4,-2
24.09,-13,-9,15,5,-10,-2,-3,-3
24.095,19,6,11,-8,-6,-3,-3,-3
24.1,14,-9,-20,1,3,4,2,3
24.105,-16,0,-12,-8,-2,3,-1,-2
24.11,-28,3,-9,-13,-1,-6,-4,-9
24.115,-30,-3,5,11,2,-6,-4,-3
24.12,10,-7,11,2,0,0,2,1
24.125,19,-3,0,14,1,4,2,8
24.13,12,1,-14,-34,-5,-2,-2,18
24.135,2,-7,-12,4,-5,-1,-3,-17
24.14,-42,0,3,-6,-3,-4,-4,-7
24.145,3,-13,0,3,1,0,2,-4
24.15,17,3,2,11,1,-1,-1,4
24.155,-4,-8,-6,-17,-6,1,-5,4
24.16,11,4,5,11,-2,0,0,2
24.165,-2,6,-11,0,0,-3,-1,-1
24.17,7,2,9,5,1,-1,2,0
24.175,19,9,2,6,1,1,5,7
24.18,-10,-5,-6,-16,-5,-2,-2,15
24.185,-14,-6,-10,1,3,2,-7,-20
24.19,3,-4,-5,5,-2,-4,-2,2
24.195,22,-2,4,-15,-7,0,-4,-31
24.2,-35,11,2,-2,-2,-6,-2,-33
24.205,23,7,-7,-8,0,3,3,23
24.21,31,-2,0,0,-2,3,2,4
24.215,-48,-8,-1,9,2,0,1,10
24.22,-8,-2,-2,-7,-4,-3,-1,13
24.225,1,2,3,-4,1,0,4,-5
24.23,-9,-3,11,6,1,3,-1,-4
24.235,39,14,3,4,2,-1,-3,11
24.24,5,-1,-6,-3,-4,-2,-4,5
24.245,-18,-3,3,2,-4,-4,-6,-22
24.25,6,5,-4,2,2,0,2,8
24.255,13,-2,-5,-2,1,0,-1,8
24.26,11,-4,11,10,2,5,-1,1
24.265,23,10,-10,-10,-4,-1,-1,19
24.27,-100,-7,-15,-20,-12,-14,-8,-11
24.275,-10,-22,2,-2,2,-4,-7,-49
24.28,35,-7,-5,1,4,5,2,16
24.285,27,-4,20,2,-6,-4,-4,8
24.29,63,39,1,13,8,4,2,13
24.295,-97,-40,-13,-16,-5,-5,4,1
24.3,12,4,5,-6,1,5,2,13
24.305,-29,-1,-6,-12,-8,-5,-10,-39
24.31,21,-8,15,-13,-8,-8,-10,-12
24.315,43,33,-1,14,7,12,8,22
24.32,-26,-21,10,5,-8,-17,-15,-22
24.325,0,-4,-3,2,-1,-6,-1,12
24.33,-37,-9,-25,-19,-2,3,0,-13
24.335,27,-2,20,-7,-8,-3,-2,7
24.34,-1,8,4,13,0,8,18,12
24.345,7,2,4,13,4,1,-10,5
24.35,-24,-9,19,26,2,-2,-4,-34
24.355,17,-11,-79,-51,-6,-5,5,26
24.36,9,-4,-20,-35,-6,-7,-9,-18
24.365,-6,11,13,8,0,-4,1,-4
24.37,32,12,10,17,8,12,9,4
24.375,-57,6,20,0,-19,-8,-2,11
24.38,-5,-5,0,6,5,4,-1,1
24.385,-45,-45,-15,-11,-4,-6,-10,-60
24.39,82,3,-10,-3,0,-1,3,39
24.395,-63,-10,7,18,2,-6,-16,-84
24.4,26,8,-2,-13,-5,-5,4,23
24.405,15,27,11,6,5,6,9,55
24.41,-29,-26,-17,3,-11,-4,-7,-47
24.415,8,0,17,-6,-3,4,-1,7
24.42,4,14,-14,15,11,0,-2,-5
24.425,12,-18,-9,-28,-20,-7,-4,-7
24.43,-17,19,16,14,9,9,7,31
24.435,-3,-27,-46,-7,-2,-5,-9,5
24.44,54,19,17,-8,-5,-9,-10,-27
24.445,-48,8,-4,19,5,7,12,36
24.45,-52,-44,-7,-32,-11,-8,-10,-31
24.455,92,29,18,20,7,8,11,19
24.46,-12,-14,-6,-8,-6,-3,-9,-14
24.465,40,-4,-7,6,1,-2,3,1
24.47,-1,10,8,11,1,1,0,10
24.475,66,23,4,14,9,3,2,12
24.48,-39,20,-6,6,2,8,2,18
24.485,-1,-25,5,-21,-14,-13,-8,-23
24.49,31,1,-11,0,6,2,6,12
24.495,-15,-23,12,4,0,2,3,11
24.5,7,17,8,1,-4,3,8,3
24.505,17,-8,5,10,5,-2,-3,-4
24.51,-51,-11,-17,-18,-4,-5,-7,-14
24.515,57,28,8,14,6,1,2,21
24.52,-14,-9,-7,8,-1,3,1,-4
24.525,-11,-4,1,-10,3,3,1,-6
24.53,29,5,16,1,-4,-2,1,1
24.535,-30,0,-3,-5,-4,-4,-6,-4
24.54,-7,-17,17,7,-7,-2,-5,1
24.545,-35,-16,-11,-9,-2,-2,-2,-10
24.55,24,7,-4,-8,1,3,4,21
24.555,-30,-10,5,4,-1,-2,-4,-8
24.56,-19,5,2,-10,-5,-4,-4,-12
24.565,10,21,-1,1,1,-1,0,-3
24.57,-13,-12,2,0,-2,-4,-5,-22
24.575,23,0,3,4,5,1,5,4
24.58,-61,-33,-6,-8,-3,-1,-4,-8
24.585,14,9,-1,1,1,-3,-5,10
24.59,-18,-3,2,0,-3,-3,-1,4
24.595,21,9,-2,-2,1,1,1,-1
24.6,22,6,8,13,2,4,10,7
24.605,24,10,-10,-5,0,3,-3,24
24.61,-38,-15,9,0,-8,-5,-13,-28
24.615,-22,2,-1,4,0,0,19,18
24.62,19,-5,-8,-1,3,-3,-21,-9
24.625,13,1,-11,-13,-4,2,-12,7
24.63,36,19,5,25,10,6,20,28
24.635,-27,-8,-6,-20,-9,-9,-21,-46
24.64,4,-7,-6,0,-1,0,12,10
24.645,0,-9,-35,-21,-1,-1,3,-15
24.65,3,-1,-15,-21,-1,0,6,-1
24.655,5,-1,-41,9,-5,4,3,19
24.66,-3,3,108,-7,-7,-12,-4,-3
24.665,2,5,-35,-9,3,6,1,-3
24.67,-10,2,-7,22,3,1,-2,2
24.675,-10,-3,8,19,5,3,-1,-5
24.68,13,0,-22,16,-2,2,-11,0
24.685,-13,13,64,30,3,4,7,-1
24.69,-10,3,65,-1,-5,-8,-9,2
24.695,2,-35,-65,-37,-16,-15,-10,-10
24.7,4,-5,59,-12,3,-3,4,-6
24.705,-9,6,59,4,5,7,12,2
24.71,3,-4,-37,-1,5,7,-1,5
24.715,-10,5,9,-10,-5,-2,-5,-4
24.72,-5,-8,-26,1,3,-7,0,-4
24.725,-8,-12,-19,5,-6,-2,2,-3
24.73,1,2,6,-1,-4,0,-10,-5
24.735,-5,8,19,11,1,1,-1,1
24.74,-6,-6,-40,-18,-8,-2,0,-4
24.745,8,2,-11,-1,0,-1,-3,6
24.75,-14,-9,5,-9,-7,-5,-4,-11
24.755,0,2,19,-2,-2,0,0,4
24.76,1,-3,-11,-1,-2,-1,-1,-3
24.765,-3,0,-3,7,-2,-2,-4,-6
24.77,-6,-3,-19,-18,-1,0,2,-8
24.775,2,3,9,13,4,-4,0,21
24.78,-2,2,4,-10,-5,0,-3,-2
24.785,-9,-7,14,1,-1,-4,-2,-7
24.79,2,1,-2,13,-1,-2,-2,0
24.795,-2,3,-8,33,0,3,3,-3
24.8,4,-12,-52,-86,-10,-1,-3,2
24.805,-9,19,55,82,12,5,0,1
24.81,-4,-3,-75,-11,1,3,2,24
24.815,-32,-72,-66,-93,-55,-39,-29,-57
24.82,13,22,0,110,17,8,10,17
24.825,2,14,60,65,11,7,6,0
24.83,-4,-29,-52,-32,-17,-14,-9,-6
24.835,8,35,57,58,25,17,10,15
24.84,2,13,55,71,9,7,2,-4
24.845,21,-19,-82,-108,-15,-10,-5,3
24.85,-47,-25,39,17,-21,-11,-17,-26
24.855,19,16,85,47,5,1,3,15
24.86,-14,-17,-42,-28,-15,-6,-7,-14
24.865,18,46,91,123,35,17,12,10
24.87,-3,-25,-105,-98,-15,-4,-3,-9
24.875,-13,-17,51,-24,-14,-13,-8,-11
24.88,14,27,42,79,19,9,11,11
24.885,-16,-11,-34,-4,-10,-2,-5,-7
24.89,11,4,13,-4,-2,-9,-5,0
24.895,7,26,12,89,18,15,8,7
24.9,-14,-29,-37,-107,-20,-11,-3,-6
24.905,-13,-18,-9,-38,-15,-8,-6,-4
24.91,9,14,63,37,15,5,4,9
24.915,6,17,-20,-5,9,5,-1,8
24.92,-5,-6,14,47,-5,-1,-5,-4
24.925,-6,-13,-60,-26,-8,-2,-1,-5
24.93,5,10,33,-34,1,9,5,2
24.935,-10,-10,-39,-18,-6,-6,-3,-5
24.94,-2,-13,-43,-16,-6,-4,-3,-1
24.945,-6,-1,-3,-5,-6,-8,-5,0
24.95,13,16,16,83,11,5,3,3
24.955,-5,-2,-9,-11,1,5,4,1
24.96,-4,-5,-24,-53,-5,0,-2,-1
24.965,-2,2,36,31,2,-6,-2,-2
24.97,5,4,17,6,1,-2,1,-2
24.975,-1,-7,-17,-20,-3,0,-2,0
24.98,1,1,38,15,-6,1,-3,15
24.985,-10,-8,0,-37,-8,-2,-6,-32
24.99,-3,-6,-1,-13,-10,-2,1,1
24.995,-1,6,11,3,10,0,2,3
25,3,5,6,24,9,2,-2,2
25.005,0,-7,17,5,-10,-6,-5,0
25.01,-3,-1,-50,-45,-7,-4,-2,-6
25.015,1,5,23,-2,0,4,1,-1
25.02,2,4,2,-5,2,1,3,0
25.025,2,-1,-24,12,5,4,1,7
25.03,-9,8,79,86,10,2,3,-2
25.035,-5,-19,-80,-79,-13,-5,-4,-1
25.04,-3,1,65,9,-2,-9,-5,-6
25.045,1,-6,-28,-20,-6,1,-1,2
25.05,7,11,21,34,8,4,1,4
25.055,-1,4,7,9,3,-1,0,-1
25.06,-2,1,-6,4,-1,2,-1,-4
25.065,-4,-2,-23,-13,-3,-2,-2,2
25.07,0,-5,33,6,-2,0,-1,-1
25.075,-5,-1,9,16,2,-3,0,-1
25.08,-1,0,-26,-17,-4,-1,2,-2
25.085,-1,-5,11,-8,-1,-2,0,1
25.09,0,-4,-24,-9,3,2,-1,-2
25.095,0,3,8,14,-1,-2,-5,-2
25.1,-1,3,8,24,-1,-6,-5,-2
25.105,-6,-1,-31,-27,-5,-2,1,1
25.11,-1,-13,18,-30,-12,-8,-4,-3
25.115,3,6,19,15,6,7,3,0
25.12,-1,-2,-12,-13,2,3,1,-3
25.125,-5,-6,-17,-6,-7,0,-2,3
25.13,6,17,26,62,11,4,-1,1
25.135,-13,-28,-42,-66,-26,-14,-6,-8
25.14,3,0,-4,-27,0,-6,0,-1
25.145,1,2,-1,6,2,2,2,-2
25.15,-1,0,9,-6,0,4,3,-1
25.155,2,9,19,40,10,6,0,-1
25.16,-4,-4,-9,7,-5,-2,-3,-1
25.165,-3,-7,3,-16,-5,-6,-4,-2
25.17,2,1,-15,-11,-1,-3,-2,-2
25.175,3,6,10,14,2,2,2,2
25.18,-5,-9,-8,-17,-3,1,-2,-3
25.185,-1,-1,11,0,-1,-5,-2,1
25.19,0,-2,-18,1,-1,-1,-3,0
25.195,0,1,6,-15,-9,-4,-1,-2
25.2,-9,-3,-5,-8,0,2,0,-3
25.205,1,0,6,11,5,1,2,-2
25.21,-1,-1,-2,1,4,-3,0,-1
25.215,0,-1,-4,-13,-4,1,0,0
25.22,5,3,9,27,-5,-5,-4,0
25.225,-2,-2,-10,-18,-7,-1,-2,-5
25.23,1,-4,-26,-14,3,3,4,3
25.235,13,9,33,17,11,5,5,4
25.24,14,-7,-18,-12,-11,-5,-6,0
25.245,-61,-9,-2,5,-3,-5,-6,-14
25.25,4,-1,-11,-9,-3,-3,-1,-3
25.255,3,6,8,6,4,3,0,2
25.26,4,-1,-6,5,2,3,2,4
25.265,25,0,8,3,-3,-2,1,6
25.27,-4,-3,1,-8,-7,-7,-8,-1
25.275,-12,11,-4,3,-2,-2,-5,5
25.28,-12,-16,-7,-6,-1,0,-1,-13
25.285,9,-4,9,-5,-1,0,-1,2
25.29,-2,0,-5,8,3,0,2,-2
25.295,13,5,5,12,-1,-1,4,7
25.3,0,-2,-8,-14,-4,-5,-2,0
25.305,30,15,-7,-5,4,2,-3,-2
25.31,-29,-14,12,-5,-5,-3,0,-3
25.315,-7,-11,0,-4,4,3,1,-5
25.32,7,6,0,12,6,4,3,3
25.325,5,-5,-1,4,-4,-2,0,15
25.33,-32,-22,1,-27,-16,-13,-15,-13
25.335,-16,7,-20,-3,-1,-9,-8,-39
25.34,14,4,11,7,5,2,1,4
25.345,26,7,3,7,3,2,3,3
25.35,19,11,-4,2,1,6,5,31
25.355,-7,-1,2,-1,-3,2,-2,15
25.36,-11,-8,12,-2,-5,-6,-5,-49
25.365,-33,-9,-17,-6,-6,-5,-1,37
25.37,12,1,0,1,1,-5,-2,-58
25.375,9,0,3,2,0,1,-3,-4
25.38,23,22,-1,5,3,6,1,14
25.385,5,-3,5,-7,-6,0,2,3
25.39,-29,2,-3,8,4,-2,6,42
25.395,4,-7,-1,-6,4,-5,0,-32
25.4,-1,7,0,3,6,2,1,14
25.405,-28,-15,-1,-3,-9,-4,-9,-25
25.41,23,13,-4,-3,-1,4,-1,10
25.415,-7,-9,-9,4,2,2,4,10
25.42,-22,-11,1,-2,-4,-4,-2,1
25.425,16,5,6,0,0,-2,-1,-9
25.43,22,4,7,6,1,-1,-2,-9
25.435,-41,-10,-1,1,-6,-6,-4,0
25.44,-15,-7,-17,-8,-2,0,1,12
25.445,-1,1,10,4,4,1,-4,-33
25.45,10,-2,-3,-1,1,5,2,-23
25.455,20,-1,21,-6,-4,-2,-1,53
25.46,-21,-22,-13,-3,-6,-9,-10,-26
25.465,8,9,4,7,2,-3,2,40
25.47,6,2,2,-10,-4,-3,-6,-40
25.475,-22,3,7,-3,-2,3,2,3
25.48,9,-9,-6,2,-3,1,0,2
25.485,-46,-7,-1,-5,0,-2,-3,-4
25.49,27,-14,5,4,3,1,4,9
25.495,18,3,-9,1,2,-1,3,10
25.5,13,5,6,1,3,-1,5,37
25.505,42,0,-13,7,5,1,-4,-4
25.51,-51,9,-15,-14,-13,-8,-14,9
25.515,-98,-35,-14,-18,-17,-7,-10,-20
25.52,34,3,-9,-1,3,0,1,1
25.525,61,12,9,0,5,7,15,38
25.53,86,16,38,-1,-10,4,5,0
25.535,-68,-28,-46,7,4,-2,-11,10
25.54,-12,17,15,-6,-3,-4,-10,-82
25.545,7,-9,-16,-8,-6,-7,-5,6
25.55,-99,-67,3,-4,1,-6,-9,-56
25.555,125,30,20,12,3,1,9,-27
25.56,54,15,91,28,16,10,16,58
25.565,80,-25,-72,-61,-37,-5,-9,-3
25.57,-29,53,26,23,10,9,13,44
25.575,-25,-48,33,4,3,-14,-25,30
25.58,25,28,0,5,-13,1,4,6
25.585,-60,17,16,8,7,-3,-2,-82
25.59,127,11,-18,-8,10,8,19,101
25.595,-59,-10,-3,31,-1,1,-17,-57
25.6,-12,38,-29,-18,-13,-10,1,103
25.605,-98,-50,3,-3,-6,-17,-30,-118
25.61,48,28,-7,6,5,-1,5,73
25.615,127,88,-12,10,15,14,20,-58
25.62,-79,-47,-17,-28,-18,-3,-5,-28
25.625,65,-23,12,3,1,-7,9,22
25.63,64,-7,11,-8,7,2,6,-16
25.635,99,12,8,-7,-8,4,5,46
25.64,49,39,-9,8,1,7,-4,-10
25.645,-60,12,15,9,5,1,-4,9
25.65,-44,-23,-12,7,-4,-4,-7,-14
25.655,14,12,-10,-12,-6,0,4,5
25.66,-107,-39,-35,-16,-3,-5,-11,-61
25.665,-11,-1,36,18,8,2,4,52
25.67,3,-1,-7,-8,-10,-3,-5,-18
25.675,-44,-5,7,-13,-6,-2,2,20
25.68,14,-7,-24,1,11,-2,4,-26
25.685,0,18,20,19,5,7,2,17
25.69,-18,6,-25,5,-4,-3,-5,-32
25.695,-22,-24,-10,-15,-6,-3,-2,-7
25.7,-2,-26,49,-9,-5,-8,-6,14
25.705,50,23,-24,-3,2,3,6,31
25.71,-76,-10,-2,3,-3,-3,-7,-33
25.715,-10,-11,23,-3,5,3,3,-3
25.72,29,12,-6,41,10,8,1,6
25.725,2,-13,-21,-3,-11,-9,-3,16
25.73,-8,-22,-68,-100,-21,-9,-9,5
25.735,12,23,60,76,9,6,3,-14
25.74,-23,-16,-40,25,1,-8,-8,-26
25.745,4,9,41,16,5,-5,8,25
25.75,6,18,31,111,22,14,6,-13
25.755,-9,-9,-70,-10,-6,2,2,11
25.76,8,-19,-8,-69,-15,-5,-7,8
25.765,-16,-10,-39,-50,-13,-2,0,-13
25.77,3,8,37,46,10,2,-3,1
25.775,7,23,76,119,11,3,2,12
25.78,1,-14,-84,-87,-10,0,-4,0
25.785,18,-12,88,12,-8,-4,-6,8
25.79,-42,-7,-20,-40,-12,-11,-10,-45
25.795,6,-1,22,28,5,-4,-1,-8
25.8,10,5,60,45,1,-3,4,6
25.805,-9,2,-79,-26,6,8,0,-2
25.81,17,11,92,48,8,1,4,17
25.815,-18,-20,-15,-56,-11,-7,-4,2
25.82,0,4,-20,41,11,2,-3,-5
25.825,-2,-4,9,-35,-20,-4,-4,-8
25.83,3,6,4,57,12,10,5,5
25.835,-12,-14,-14,-58,-7,-10,-9,-10
25.84,15,8,25,24,3,2,4,6
25.845,-7,4,-10,12,10,6,-1,-3
25.85,1,-16,-43,-61,-17,-10,-7,1
25.855,-16,0,-76,-52,-7,1,-2,3
25.86,4,15,121,89,7,-2,4,-2
25.865,-5,-22,-74,-62,-8,-4,-2,-11
25.87,24,-6,11,42,-3,0,0,5
25.875,-34,12,8,-26,2,-6,2,-6
25.88,-4,-5,-26,-27,-15,-7,-2,-14
25.885,-4,15,-14,64,12,7,7,-10
25.89,18,-16,41,-61,-9,-4,-6,36
25.895,35,2,-17,1,-11,0,1,11
25.9,24,3,40,70,10,0,-1,-2
25.905,-95,-15,-20,-54,2,-4,-3,-30
25.91,-2,-38,-34,-20,-20,-10,-8,-20
25.915,14,5,15,56,16,8,7,18
25.92,6,3,9,-41,-1,3,1,1
25.925,40,41,57,39,10,5,1,8
25.93,-25,9,-76,15,11,-2,-1,-7
25.935,-8,-40,20,-79,-25,-14,-11,-9
25.94,-2,4,-46,3,-1,1,0,0
25.945,17,-15,15,-13,-5,-11,-8,5
25.95,-27,-13,-4,0,-1,0,7,-12
25.955,24,9,-2,0,9,5,6,12
25.96,-11,-8,-39,23,-3,-2,-5,3
25.965,10,8,34,66,8,9,5,-2
25.97,9,12,-4,-43,-5,-3,-3,8
25.975,12,1,38,-9,1,-3,-7,-8
25.98,-18,-12,7,-47,-15,0,-3,1
25.985,-12,2,22,41,-5,-9,-2,-5
25.99,22,1,-34,-17,0,-2,-1,-4
25.995,33,2,-26,14,0,0,-3,-1
26,-45,-8,11,-5,3,-3,-2,-11
26.005,9,-13,-15,6,-5,-4,1,-7
26.01,-1,7,18,-16,-4,2,0,2
26.015,35,9,13,7,3,3,1,2
26.02,27,0,-10,-4,-5,-2,-2,11
26.025,1,3,-24,-24,-5,-1,-6,2
26.03,10,9,12,15,4,-1,-2,-3
26.035,-75,-17,-32,15,-6,-4,-3,-12
26.04,10,-3,-29,-21,-2,0,-7,2
26.045,-2,-3,13,-5,3,0,1,-2
26.05,-2,15,-4,9,-7,-3,-2,-7
26.055,9,-5,-8,-24,-4,-6,3,1
26.06,-5,2,7,-16,11,5,8,5
26.065,25,-3,0,-3,-7,5,-1,13
26.07,38,11,23,10,2,-2,-17,-21
26.075,-97,-37,-16,-14,-7,-14,-10,-3
26.08,23,-20,-12,15,4,-3,4,-15
26.085,7,-12,25,-20,0,0,3,16
26.09,14,28,-19,6,6,5,7,-22
26.095,9,31,26,9,3,6,0,8
26.1,-1,-6,34,-8,-17,-9,-2,-1
26.105,14,3,-20,31,11,6,6,20
26.11,-37,-30,-40,-28,-18,-6,-5,40
26.115,28,35,25,2,10,-2,-7,0
26.12,-16,-5,-49,-12,-4,-7,-11,21
26.125,21,22,49,0,-1,0,4,-33
26.13,-91,-39,-41,-4,-2,-3,3,25
26.135,58,8,6,4,3,3,1,9
26.14,32,16,45,18,8,7,3,-50
26.145,-102,-38,-57,-35,-11,-8,-6,48
26.15,-5,-16,22,-1,0,-7,-14,-90
26.155,18,-7,-36,-13,-5,-1,3,16
26.16,18,12,8,17,4,-2,-1,18
26.165,22,5,-2,-9,-17,-3,1,-11
26.17,9,56,3,16,5,6,13,29
26.175,-33,-14,-1,-20,-9,-5,-6,-18
26.18,7,3,14,-1,5,4,0,-14
26.185,16,13,-5,10,3,5,-1,42
26.19,-2,-18,20,0,-2,-2,-3,-57
26.195,-12,8,24,22,5,2,0,-4
26.2,-1,7,-52,-32,-10,-3,-2,25
26.205,-51,-21,10,7,-1,-11,-16,-34
26.21,41,6,28,-14,-3,-2,-1,13
26.215,-47,-12,-4,12,5,0,1,-21
26.22,18,-9,-10,-8,-7,-1,4,16
26.225,-21,-1,-18,6,9,5,4,4
26.23,28,14,38,8,0,0,-4,3
26.235,-3,-6,-26,-10,-18,-4,2,-14
26.24,20,-2,27,-2,2,-4,-13,-6
26.245,51,43,43,32,9,-4,-4,-34
26.25,-93,-89,-47,-37,-15,-5,1,17
26.255,49,-6,15,7,6,11,18,10
26.26,-8,0,9,-13,-6,-3,-2,74
26.265,8,-13,-2,-4,-5,-12,-24,-107
26.27,36,33,17,17,11,1,0,2
26.275,16,3,0,1,-2,4,7,46
26.28,-44,5,-5,-8,-2,0,1,-29
26.285,25,-4,-19,4,1,7,14,37
26.29,-11,-8,15,0,1,-4,-2,11
26.295,33,-2,1,9,2,-7,-7,5
26.3,-3,21,11,3,-5,4,5,-61
26.305,-72,2,14,5,10,11,18,93
26.31,35,-1,-18,-2,-15,-9,-18,-94
26.315,-51,-25,-3,-19,-10,-14,-29,31
26.32,-32,-37,-4,-3,3,-10,-6,3
26.325,40,20,32,16,1,2,5,-13
26.33,46,-3,-62,8,8,8,9,-4
26.335,7,0,-8,-18,-4,-2,-1,7
26.34,-19,-1,12,0,-6,0,6,27
26.345,9,-9,-3,-6,1,2,-1,-17
26.35,-58,4,11,11,8,2,1,37
26.355,36,21,-17,2,2,3,0,35
26.36,10,5,32,5,4,4,2,-41
26.365,-13,-35,-48,-14,-16,-12,-16,52
26.37,67,32,-16,-24,0,-5,-1,9
26.375,-5,-28,-8,12,10,4,11,5
26.38,14,8,3,-8,-7,2,13,48
26.385,76,51,25,6,-2,-1,-16,-52
26.39,-101,-36,-16,-11,-11,-13,-11,20
26.395,-43,2,-6,1,-4,-5,-1,-82
26.4,64,-3,69,15,19,9,10,58
26.405,8,19,-105,-24,-16,-7,-12,-62
26.41,-27,23,30,7,6,0,-6,2
26.415,-16,13,32,1,-11,0,10,6
26.42,-18,-45,-27,-1,-4,-1,-2,-12
26.425,-36,-18,10,-3,8,0,2,17
26.43,9,8,-27,6,6,3,0,-4
26.435,1,35,21,8,2,-3,-12,-12
26.44,-7,59,26,-10,-23,-9,-8,-28
26.445,-23,-18,-4,-29,-27,-4,9,15
26.45,18,-45,-72,-19,4,3,6,27
26.455,1,-21,58,6,2,-2,-2,-6
26.46,0,-2,-6,11,9,-2,-6,-16
26.465,-21,-23,42,11,12,5,7,20
26.47,23,24,52,6,-4,12,29,16
26.475,-34,-29,-72,-8,-3,-10,-21,13
26.48,-10,-21,-22,-6,-2,-3,-18,-29
26.485,12,6,-7,2,4,-3,-10,-36
26.49,3,-19,2,-1,-7,-1,2,9
26.495,14,-1,5,-1,-3,4,23,18
26.5,-14,12,0,-1,1,-2,-19,-17
26.505,-11,-6,-11,-2,-2,-2,2,-2
26.51,41,14,26,-5,2,4,2,18
26.515,10,6,15,-16,-5,3,-11,-14
26.52,-51,-19,-51,10,0,-6,-2,-21
26.525,-4,-12,14,-9,-3,-6,-8,-1
26.53,9,10,49,31,6,5,31,22
26.535,34,10,-55,53,3,5,-5,2
26.54,-46,-24,-12,-56,-12,-10,-13,-5
26.545,13,6,11,-11,5,-3,8,11
26.55,-3,-1,39,30,-5,-4,-10,-3
26.555,10,10,-5,77,15,10,17,3
26.56,6,3,64,-83,-21,-9,-4,1
26.565,-6,-13,-22,45,4,0,-1,-5
26.57,8,19,0,-4,14,2,-3,9
26.575,-23,-17,34,-41,-13,-8,-13,-10
26.58,23,14,-58,45,11,10,10,9
26.585,-33,-21,33,-47,-21,-13,-15,-36
26.59,-3,8,0,52,9,0,-4,-11
26.595,-4,19,53,95,15,7,8,-13
26.6,0,-22,-112,-33,-2,3,2,13
26.605,9,-18,-51,-71,-31,-12,-3,8
26.61,-33,-13,73,26,-15,-16,-15,-36
26.615,26,8,-15,-9,0,-7,-2,-1
26.62,13,18,32,125,30,15,13,3
26.625,13,40,-5,90,28,15,3,14
26.63,-13,-34,-65,-93,-30,-13,0,5
26.635,-6,11,56,37,1,0,-21,-9
26.64,6,22,92,64,14,4,14,16
26.645,-1,-29,-8,-26,-6,-5,-12,-31
26.65,-7,-25,-38,-94,-18,-14,-8,-1
26.655,-16,-31,-30,-53,-14,-1,5,1
26.66,-3,1,-36,-22,-1,4,-5,4
26.665,15,-9,33,58,-2,-9,2,7
26.67,-26,11,6,29,4,2,0,0
26.675,-5,-4,-31,-52,-1,-4,1,-21
26.68,6,4,-64,65,7,4,1,19
26.685,-24,-18,-25,-89,-23,-14,-1,-1
26.69,12,-24,-39,-43,-9,-8,-18,-18
26.695,4,1,-5,-16,-3,-4,4,1
26.7,9,14,64,36,6,5,3,-5
26.705,3,22,-1,75,26,18,11,14
26.71,-9,0,11,31,-2,4,-4,2
26.715,-16,2,41,-34,-7,-13,-7,-9
26.72,10,-8,-60,-41,-8,-3,7,-7
26.725,7,33,37,31,5,6,-8,10
26.73,0,-15,28,-18,-1,-1,-3,4
26.735,10,24,-1,66,12,9,6,1
26.74,-17,-31,-66,-95,-31,-17,3,-6
26.745,19,25,72,52,12,6,-7,5
26.75,-25,-19,-101,-39,-4,-2,-7,-10
26.755,2,-12,-4,-23,-5,-5,1,-1
26.76,-9,-4,35,37,1,-4,-3,-6
26.765,-2,-9,4,-57,-9,1,10,9
26.77,18,19,78,101,18,11,5,9
26.775,-10,-9,-26,-21,-7,-10,-5,2
26.78,-3,-5,10,-30,-4,-3,-6,-11
26.785,5,-1,-30,10,3,2,-1,3
26.79,3,20,43,10,-4,2,-2,-2
26.795,-11,-5,-6,-9,-4,-2,2,3
26.8,6,39,-2,42,20,8,3,4
26.805,-6,-6,45,-24,-15,-8,-7,-8
26.81,0,-11,-42,-35,-5,-6,-1,3
26.815,0,-2,13,23,-3,0,0,-8
26.82,2,3,2,-7,-2,-3,-4,0
26.825,4,22,11,127,25,14,14,6
26.83,-3,0,-3,-79,-7,-3,-2,-1
26.835,-6,-21,-20,0,-1,2,-1,-8
26.84,-4,-15,36,-5,-6,-5,-4,2
26.845,2,-6,-15,-9,0,-4,0,-1
26.85,7,-7,17,51,6,4,4,11
26.855,10,27,6,16,9,6,1,2
26.86,-2,-22,-14,-47,-33,-13,-13,-5
26.865,-15,2,-12,1,2,-1,3,0
26.87,-3,-4,0,3,-2,-3,5,-1
26.875,-4,-6,14,-25,0,-4,-11,-14
26.88,5,6,44,16,8,2,5,5
26.885,13,-4,-48,-32,-3,1,-1,4
26.89,12,1,-70,34,8,4,4,1
26.895,-43,-17,18,-10,-11,-4,-6,-6
26.9,1,-3,5,13,-3,-1,-4,-4
26.905,0,-2,60,47,1,2,10,-2
26.91,4,-1,-6,7,-1,-2,-16,7
26.915,23,-4,-25,23,7,8,9,9
26.92,17,-2,-16,-18,-16,-5,-6,0
26.925,8,3,-1,2,-6,-4,-5,-5
26.93,-93,-13,10,15,1,-3,-5,-17
26.935,4,-5,-19,-40,-5,-3,-1,-5
26.94,6,9,32,41,18,7,4,4
26.945,37,-3,-14,-35,2,5,2,18
26.95,76,30,32,13,6,5,5,20
26.955,20,9,-19,8,-6,-4,-14,-7
26.96,-109,-65,-23,-69,-35,-24,-18,-2
26.965,-68,-28,-13,-22,-4,-13,-14,-95
26.97,42,11,4,1,12,6,8,13
26.975,54,25,36,44,17,11,19,26
26.98,127,52,-4,30,36,30,29,63
26.985,55,23,-24,-43,-35,-2,5,102
26.99,-98,-46,36,13,-22,-31,-40,-76
26.995,9,-36,-59,-27,-8,-21,-32,-101
27,67,-15,2,2,4,-3,2,8
27.005,99,41,33,28,23,30,44,75
27.01,108,78,6,21,29,46,62,127
27.015,-97,-21,1,-24,-72,-37,-37,48
27.02,-128,-109,-47,-37,-1,-54,-85,-128
27.025,83,-5,3,-9,3,-9,-4,58
27.03,63,7,-3,14,10,3,14,63
27.035,16,9,5,-2,17,31,39,59
27.04,45,49,14,31,-4,22,27,70
27.045,-43,-3,-9,-21,1,-3,-17,-20
27.05,-29,-17,-25,-11,-27,-11,-21,-116
27.055,-64,-6,-7,-7,9,-2,3,-18
27.06,-15,16,-4,-5,-3,-4,3,-17
27.065,-22,2,5,2,4,-6,-8,-27
27.07,65,1,30,18,3,5,12,17
27.075,20,-36,-17,-1,-2,4,-5,63
27.08,-95,-11,-26,-22,-6,-6,-13,-55
27.085,-19,1,-6,18,4,-4,3,-5
27.09,-39,-18,-3,-23,-23,-20,-24,-2
27.095,-38,-35,9,6,7,4,10,-16
27.1,84,20,20,15,7,7,15,78
27.105,88,12,-11,1,14,17,23,44
27.11,-50,14,-6,-34,-22,-7,-14,-16
27.115,38,12,-6,-10,2,-11,-28,-34
27.12,40,-15,15,3,-3,4,11,54
27.125,-20,-30,-36,9,17,5,3,17
27.13,127,51,22,13,7,11,25,88
27.135,-97,10,9,-26,-14,-8,-12,-49
27.14,38,-16,12,17,15,4,15,6
27.145,-2,-1,60,-14,-10,2,-3,37
27.15,16,-64,-48,-7,-12,-8,-17,-96
27.155,50,17,0,2,0,0,2,1
27.16,21,13,36,16,1,2,11,60
27.165,37,14,12,6,5,4,-1,31
27.17,-78,28,7,1,17,-3,-7,-32
27.175,-38,-30,-29,-4,-34,-9,-16,-45
27.18,-27,7,-14,-13,5,-9,-13,-5
27.185,48,3,-26,-7,-22,-12,-13,-27
27.19,-73,-57,-9,2,2,1,-4,-14
27.195,127,92,19,17,30,17,35,76
27.2,-89,-14,7,1,-17,1,-8,-33
27.205,-10,5,-15,-5,-12,-10,-16,-68
27.21,43,44,0,4,9,-1,0,29
27.215,-9,-28,9,3,17,9,11,47
27.22,47,-4,-38,-9,-14,-4,-5,-24
27.225,-13,3,-1,4,14,-2,-7,9
27.23,-92,-52,2,-14,-32,-10,-2,-45
27.235,104,16,55,9,19,7,7,49
27.24,-9,-17,-90,-10,-7,-4,-10,-18
27.245,-128,-44,19,-14,-2,-14,-9,-60
27.25,66,-7,-4,1,11,3,7,45
27.255,21,17,0,-6,-11,1,6,10
27.26,-6,0,16,5,-4,8,27,-14
27.265,-14,-1,-9,6,5,-3,-33,-25
27.27,-9,8,-5,4,0,-4,-1,32
27.275,29,0,-16,-4,0,-3,18,5
27.28,-47,11,19,4,1,2,2,-22
27.285,-36,-23,-17,-22,-18,-11,-37,-3
27.29,5,22,21,12,5,5,4,-6
27.295,-14,-26,-7,-14,-6,-16,-3,-20
27.3,60,32,2,17,6,8,16,59
27.305,-67,-7,4,9,1,16,26,3
27.31,-12,-16,-25,-28,-2,0,5,-18
27.315,-28,-9,-19,-24,0,-3,-42,-34
27.32,4,18,9,59,1,9,28,32
27.325,85,14,89,9,-6,-15,-21,26
27.33,-36,-19,-34,-3,1,-12,-25,-78
27.335,-9,-8,-38,-43,-1,6,9,15
27.34,7,-15,-27,-65,-18,-13,-30,-26
27.345,55,20,-34,-10,4,15,35,64
27.35,-27,21,19,67,10,15,27,12
27.355,-33,-5,106,103,4,-12,-27,-14
27.36,52,15,-29,20,15,8,-2,-9
27.365,-75,-71,-34,-50,-53,-32,-7,-25
27.37,20,12,30,40,1,1,2,24
27.375,-25,23,55,80,12,8,14,5
27.38,10,10,51,127,20,7,-6,2
27.385,-17,-44,-103,-82,-36,-13,-3,-27
27.39,-3,8,42,40,0,-2,-6,10
27.395,24,3,-30,59,6,4,-3,7
27.4,-18,-16,12,-96,-22,-13,-16,-16
27.405,-16,15,-3,43,15,0,0,-30
27.41,18,-5,-4,-42,-2,-3,-7,16
27.415,23,14,-14,-18,4,8,12,17
27.42,-19,-14,19,-47,-10,-16,-13,-19
27.425,1,9,-27,47,12,11,6,-4
27.43,11,-2,53,-76,-9,-5,-1,26
27.435,-5,-6,-10,15,-4,-1,5,-22
27.44,1,2,-40,-47,0,-1,0,40
27.445,-1,8,98,78,6,2,-3,-32
27.45,19,0,-51,-38,-3,-3,-2,12
27.455,-11,0,14,-25,-4,4,6,1
27.46,-31,-3,0,58,9,5,-4,-34
27.465,9,2,-11,-55,-1,-7,2,5
27.47,5,1,-32,9,0,-7,-4,3
27.475,-12,-4,-45,-74,-8,-3,-5,-9
27.48,3,8,79,-7,-7,-1,-10,2
27.485,2,2,-45,18,7,2,-8,5
27.49,-3,9,48,76,6,0,1,-12
27.495,-4,-37,-88,-59,-14,-4,-3,2
27.5,8,10,30,57,4,3,10,-1
27.505,-3,9,27,21,7,8,7,-8
27.51,2,-7,0,4,2,-3,-6,9
27.515,8,11,29,38,7,1,3,2
27.52,-7,-31,-86,-32,-13,-7,-10,-7
27.525,8,1,59,32,-6,1,1,7
27.53,2,10,-2,-39,0,1,0,-1
27.535,0,13,7,37,9,5,5,6
27.54,-14,-28,-27,-63,-26,-16,-5,-14
27.545,4,11,-40,30,15,11,-7,4
27.55,3,12,38,69,7,3,4,6
27.555,-1,-20,25,-42,-10,-6,-4,-15
27.56,6,10,7,13,6,3,17,11
27.565,18,9,31,13,6,0,-3,6
27.57,-32,-21,-37,-5,-11,-5,-30,-14
27.575,4,-2,-11,17,2,-1,3,5
27.58,-5,-1,56,-27,-15,-5,3,-5
27.585,-16,-8,-8,-69,-5,-8,2,-11
27.59,6,-2,-29,46,6,2,3,3
27.595,-4,-1,10,17,-5,-3,-8,2
27.6,5,13,-35,13,10,7,7,2
27.605,-4,8,40,38,-2,-3,1,1
27.61,7,-5,-51,-80,-3,2,1,3
27.615,-8,0,-14,-15,-6,-7,-6,-11
27.62,-12,-33,-52,-73,-16,-8,-8,-3
27.625,4,5,13,11,9,-3,6,-1
27.63,4,1,12,20,4,0,-2,2
27.635,2,4,-18,5,-6,1,2,-1
27.64,1,13,6,57,1,1,-6,-2
27.645,-3,-8,30,9,-2,-4,-4,1
27.65,-6,-19,-71,-98,-22,-8,0,-1
27.655,-4,3,13,7,3,-3,-2,-1
27.66,6,11,32,26,10,4,-3,-3
27.665,-3,2,-37,7,-2,-4,2,2
27.67,4,2,60,29,-5,-1,1,-2
27.675,-5,-13,-29,-20,-8,-1,-6,-4
27.68,0,3,7,3,6,3,1,1
27.685,0,0,-11,24,3,-2,1,2
27.69,2,8,30,24,8,4,3,-4
27.695,-5,-14,19,-15,-13,-9,-5,-1
27.7,3,14,24,25,6,2,0,3
27.705,4,-5,-55,-10,6,8,1,0
27.71,7,-9,10,2,-18,-5,1,0
27.715,-6,-1,-5,6,4,-4,-4,-5
27.72,-26,-7,-2,8,2,-4,-7,-9
27.725,3,16,21,31,7,6,5,2
27.73,-8,-31,-48,-92,-20,-14,-8,-6
27.735,22,7,-10,-14,5,0,10,8
27.74,20,8,37,13,1,1,-3,2
27.745,-24,-8,-27,-31,-8,-1,-7,-2
27.75,-2,3,16,42,1,3,-1,-4
27.755,3,3,18,6,-1,-3,-5,-6
27.76,25,7,-10,3,2,-5,0,0
27.765,-45,-7,-12,-29,-5,-2,2,1
27.77,30,3,12,41,10,10,7,13
27.775,79,28,10,-12,-8,3,7,22
27.78,5,2,-7,-7,2,-2,-4,13
27.785,-73,-71,-36,-19,-17,-18,-18,-66
27.79,73,-6,27,11,9,-6,1,-2
27.795,45,-11,-10,-64,-10,-3,4,-42
27.8,127,59,-5,17,11,22,29,107
27.805,62,67,14,0,23,26,14,-52
27.81,-128,-56,-31,-20,-26,-6,-18,-12
27.815,-124,-72,-9,47,-6,-48,-65,-39
27.82,-5,-21,-3,-22,-5,-32,-46,-74
27.825,83,25,-6,-5,14,16,29,99
27.83,106,63,28,-4,15,34,56,102
27.835,123,55,41,33,23,48,90,127
27.84,-112,-23,-11,-21,-28,-34,-70,-108
27.845,-89,-54,12,22,-16,-61,-90,-78
27.85,45,-6,-60,6,6,-3,-6,51
27.855,-115,-78,14,-24,-7,-2,3,-22
27.86,119,77,106,44,53,64,113,127
27.865,109,-52,-94,-57,-61,-27,-52,-83
27.87,-126,47,-21,21,-9,-24,-45,-73
27.875,-109,-28,1,-44,-4,-18,-33,-93
27.88,26,9,20,27,13,15,34,100
27.885,64,61,25,-5,17,31,54,127
27.89,54,-12,15,5,-1,7,10,64
27.895,4,19,-36,26,-3,7,-6,-29
27.9,-72,24,-27,-35,-22,-14,-8,-33
27.905,71,-6,6,31,8,3,9,-36
27.91,13,-5,55,-24,-2,-6,-23,-53
27.915,-45,-55,-92,-10,-20,-26,-37,-64
27.92,72,4,6,-49,-6,-9,-4,-20
27.925,51,-9,57,12,11,7,20,46
27.93,54,47,-3,-12,27,15,33,119
27.935,-62,13,34,-31,-37,4,-20,-31
27.94,-110,-74,-60,-7,-32,-44,-84,-100
27.945,39,17,20,6,20,-3,12,43
27.95,90,38,17,48,21,19,41,91
27.955,17,8,9,4,12,18,25,71
27.96,-39,-70,-29,9,-4,3,-4,-85
27.965,53,38,36,8,-5,1,1,56
27.97,11,-35,21,17,-5,-8,-18,-96
27.975,40,36,11,13,14,1,8,58
27.98,1,-8,-4,-5,-6,-3,-4,39
27.985,-62,-17,1,6,6,10,11,3
27.99,117,12,72,3,11,-4,-6,-4
27.995,-58,-47,13,-13,-21,-3,-3,50
28,34,-6,48,15,-14,2,6,-46
28.005,-75,-17,-12,-33,-1,-2,1,6
28.01,-8,14,9,8,0,-10,-13,-47
28.015,76,27,20,27,3,-1,-1,0
28.02,-60,-28,-18,-9,-3,-10,-16,-8
28.025,-29,18,-16,-18,-13,-2,-8,-70
28.03,30,-1,-18,-5,-5,1,7,25
28.035,74,27,10,24,24,6,15,61
28.04,0,22,-33,-12,-6,2,10,52
28.045,-12,-28,16,-3,-12,-7,-7,1
28.05,-79,-18,-35,-13,0,-3,-5,-7
28.055,47,27,11,11,5,6,8,-35
28.06,-25,-18,20,20,3,-3,-13,12
28.065,-28,16,-3,-11,-2,0,5,4
28.07,-26,-11,-13,4,-6,-4,-12,-35
28.075,36,6,-11,-7,7,10,11,31
28.08,-29,9,-1,0,5,5,7,5
28.085,-11,-7,-3,-1,1,-2,-3,1
28.09,-40,-21,-11,-2,-14,3,41,-5
28.095,22,13,8,-7,5,0,-41,11
28.1,31,3,-5,10,9,-1,-9,9
28.105,22,1,-9,-1,-4,-5,8,-6
28.11,-90,0,-12,-18,-1,-2,12,20
28.115,-4,-3,-15,-7,-5,-2,-2,-21
28.12,48,17,-6,8,6,15,55,35
28.125,5,-9,70,25,0,1,-3,-13
28.13,-18,-2,-55,-38,-10,-13,-90,-30
28.135,-24,-19,29,15,-8,-26,-23,-4
28.14,-7,-12,-36,-41,-7,-7,-13,-39
28.145,8,1,-17,-6,6,8,21,34
28.15,-12,-1,52,21,-1,6,32,-4
28.155,-1,5,-46,-21,0,8,14,4
28.16,25,11,16,8,12,10,21,32
28.165,-24,-6,22,62,-5,-11,-16,-24
28.17,-8,-15,-28,-47,-9,-8,-26,-19
28.175,6,-10,1,-7,-5,-4,-9,-2
28.18,6,7,-36,-6,-6,2,43,5
28.185,0,8,-20,-4,2,14,54,25
28.19,-11,-10,18,17,-3,-15,-109,-23
28.195,6,6,3,22,10,-5,58,-21
28.2,-12,-15,14,-9,-12,-10,-86,2
28.205,-20,-18,-16,-36,-8,-6,13,5
28.21,12,9,-12,10,-2,6,51,4
28.215,4,11,7,1,6,9,17,4
28.22,-2,3,11,8,2,-2,-32,-6
28.225,-8,-7,-3,-12,-11,-16,-31,2
28.23,0,1,-15,5,3,-3,23,-3
28.235,1,-3,40,7,-1,2,-4,-12
28.24,10,4,3,7,2,5,55,18
28.245,-9,10,29,5,6,5,-57,2
28.25,-6,-3,30,7,-1,-10,-5,-19
28.255,-5,-22,-55,-19,-8,-6,4,-14
28.26,3,-1,28,2,-4,-4,-25,-4
28.265,-4,5,0,-3,0,1,29,-1
28.27,1,-11,0,-10,-2,4,18,10
28.275,-2,4,15,3,1,-2,-42,-2
28.28,-1,8,-1,5,4,5,16,-4
28.285,-1,-5,-51,-12,-1,2,-2,-3
28.29,0,-6,-7,-3,-2,6,15,18
28.295,-5,8,-15,-3,-4,-4,-26,2
28.3,1,-6,-22,3,-3,0,11,-4
28.305,3,0,52,-13,1,-1,25,0
28.31,-19,5,68,48,2,-11,-42,-10
28.315,-6,-15,-65,-29,-5,-8,-3,-7
28.32,-1,-3,-7,-13,7,6,7,5
28.325,-11,-4,-23,-13,-10,-5,-5,-1
28.33,6,-11,-54,-25,-3,7,37,-3
28.335,7,24,54,82,12,12,3,12
28.34,-9,-14,-27,8,-16,-16,-3,-6
28.345,-3,-29,-79,-106,-23,-10,-19,-15
28.35,5,13,-3,87,15,2,-8,12
28.355,-20,-31,-61,-87,-29,-15,-12,-10
28.36,15,29,39,127,36,24,20,20
28.365,19,-5,-77,-38,-13,-5,13,13
28.37,-27,4,75,49,6,-4,-29,-31
28.375,-2,-6,8,39,-3,-1,-9,12
28.38,-11,-10,88,-71,-21,-15,-4,-14
28.385,8,23,25,85,24,13,19,-2
28.39,11,-1,-67,-12,4,6,-1,12
28.395,-13,6,51,5,3,1,7,-9
28.4,-3,-14,27,-18,-8,-3,-7,12
28.405,-2,19,95,-2,6,4,-15,10
28.41,1,-12,-62,3,-7,-4,6,-9
28.415,13,24,24,40,13,6,17,-1
28.42,-4,-6,-15,-16,-7,-6,-13,-8
28.425,-11,-7,-12,6,-2,-4,-6,-5
28.43,4,4,42,-24,-5,-2,2,-1
28.435,2,-14,-65,-25,-8,-4,-6,0
28.44,1,6,13,32,5,1,2,-4
28.445,-10,-13,-46,-78,-14,-5,-18,2
28.45,1,2,31,12,2,4,14,-5
28.455,4,12,49,34,6,-1,7,6
28.46,-1,3,-4,37,5,-3,-14,-6
28.465,-2,1,0,60,2,-2,3,-4
28.47,-10,-25,-43,-120,-22,-11,-3,-3
28.475,3,2,22,8,1,4,3,-2
28.48,-1,0,-18,-3,1,9,2,0
28.485,5,19,67,97,14,-1,-8,2
28.49,-9,-24,-60,-24,-21,-9,1,-2
28.495,4,-5,1,-51,-6,-8,-5,-1
28.5,-2,2,-9,24,6,5,5,0
28.505,-3,-3,20,-9,-3,1,-6,1
28.51,7,7,18,39,5,4,1,-1
28.515,2,6,-11,-5,-7,-2,0,-3
28.52,-4,4,4,12,-1,-5,-7,-5
28.525,-9,-15,-40,-51,-10,-2,-1,-3
28.53,0,-1,20,-19,2,-2,7,0
28.535,7,3,-3,12,5,5,2,0
28.54,-2,-4,-4,-11,-8,-3,-1,3
28.545,0,3,-16,37,7,1,-5,1
28.55,5,3,48,25,0,-4,-2,-4
28.555,-14,-13,-38,-21,-7,-8,-2,-1
28.56,2,-3,-14,-30,0,-4,-3,-5
28.565,-2,1,-4,2,9,10,4,2
28.57,1,-1,-10,-4,-3,-1,1,0
28.575,5,12,39,31,7,4,2,-2
28.58,-3,-7,-27,-8,-10,-5,-6,-4
28.585,-2,-2,2,-9,-6,-6,-6,-3
28.59,1,8,21,19,6,5,2,0
28.595,-2,-5,2,8,-1,2,0,-2
28.6,0,-1,-13,-21,-1,-4,-3,1
28.605,5,1,1,-6,-1,-1,-2,-1
28.61,9,4,-12,19,3,2,0,2
28.615,2,-2,6,-1,2,-5,-1,-4
28.62,-7,-17,-19,-33,-17,-4,-6,-6
28.625,-20,4,17,9,-1,-2,-4,-7
28.63,-15,-5,-12,-9,4,-8,1,-4
28.635,17,3,-2,-1,3,-5,2,6
28.64,14,7,10,12,10,1,1,1
28.645,4,-4,-6,19,-2,5,-1,4
28.65,-2,-4,-14,-23,-6,0,-5,-2
28.655,-11,-9,21,6,-7,-6,-8,-8
28.66,-6,-1,-2,-1,-1,-2,1,1
28.665,7,7,1,19,3,4,2,4
28.67,7,4,13,-21,-2,4,3,3
28.675,19,-2,-6,-9,-6,4,2,2
28.68,-49,-15,3,3,5,-5,-2,1
28.685,-1,-8,-1,-13,-7,-6,-10,-38
28.69,-19,-1,13,21,6,-3,-2,0
28.695,6,-5,-12,9,2,3,3,10
28.7,38,23,6,-20,-3,5,5,9
28.705,32,-3,-4,2,-7,1,5,20
28.71,-69,-16,-6,-21,-11,-7,-12,-10
28.715,-24,-17,-2,-2,-12,-8,-12,-41
28.72,-6,-4,-9,2,8,4,6,38
28.725,30,15,12,2,6,3,5,-72
28.73,29,7,-5,24,8,9,14,75
28.735,-81,-3,13,-19,-12,-14,-26,-67
28.74,24,6,-6,-18,-5,-7,-15,-41
28.745,-26,-29,-9,-7,-4,-10,-3,52
28.75,43,12,11,16,-1,6,9,12
28.755,-10,-5,16,0,-1,2,10,26
28.76,21,14,-8,-5,-1,3,8,11
28.765,-60,-27,-21,-34,-9,-3,-8,-25
28.77,41,10,2,7,7,1,3,-2
28.775,-7,-1,-7,4,-11,0,1,49
28.78,20,1,9,10,6,4,2,-35
28.785,24,7,0,2,7,0,4,45
28.79,22,16,4,-6,-12,-2,2,-21
28.795,12,25,-10,1,0,1,-3,53
28.8,-119,-64,-8,-10,-15,-20,-30,-106
28.805,29,9,-6,3,8,2,10,67
28.81,-71,-55,-4,-13,-12,-18,-20,-38
28.815,92,24,5,4,13,8,14,26
28.82,77,34,11,13,0,16,24,77
28.825,-67,12,-2,0,-5,-4,-11,29
28.83,25,5,-13,-7,2,-8,-3,15
28.835,-53,-5,1,1,12,5,16,2
28.84,4,-25,7,-6,-21,-16,-23,-41
28.845,31,-6,5,15,0,2,-14,-30
28.85,69,28,-6,18,15,13,17,111
28.855,-33,2,-9,-17,-11,-2,3,70
28.86,-5,0,-4,16,21,6,-4,-37
28.865,-20,-8,4,-21,-20,-8,2,27
28.87,-43,-16,4,-4,-17,-12,-18,-76
28.875,108,21,4,2,25,17,27,39
28.88,69,20,20,11,-16,0,3,57
28.885,-68,-4,-19,-7,-1,-12,-17,-13
28.89,-60,0,1,3,-5,-9,-18,-112
28.895,6,-2,4,-10,5,2,6,-33
28.9,92,27,2,8,14,4,15,86
28.905,104,37,10,18,-4,7,2,41
28.91,-49,-21,-21,-27,-5,1,-3,-5
28.915,-43,-8,-1,-2,-16,-11,-23,-57
28.92,-128,-21,-8,-10,1,0,2,-48
28.925,23,6,-2,3,-6,-5,8,-3
28.93,-83,-5,15,-10,2,-5,1,21
28.935,41,-27,-18,9,10,4,2,-12
28.94,82,54,-11,-8,-3,6,16,105
28.945,-106,-42,19,-8,-24,-12,-26,-68
28.95,127,-30,-26,-2,2,0,2,36
28.955,35,10,-3,3,2,7,11,23
28.96,-66,-27,16,6,0,-16,-39,-67
28.965,127,59,-9,8,14,18,33,116
28.97,-124,-59,55,-4,-9,-7,-23,1
28.975,-19,-5,-38,-10,-2,-19,-7,1
28.98,-3,-33,9,-4,0,5,22,55
28.985,-18,-69,2,3,-1,-4,-4,-48
28.99,102,40,-5,-2,0,9,9,26
28.995,17,19,12,7,-1,5,0,21
29,-22,2,-3,-3,-7,-1,-1,-15
29.005,-47,-14,-13,2,3,-8,-11,-20
29.01,0,19,-5,1,7,9,16,15
29.015,-27,-10,-5,-8,-6,-3,-14,-30
29.02,-14,2,-13,-14,-10,-9,-10,-30
29.025,16,10,20,13,7,3,7,6
29.03,3,15,-10,2,-1,-3,0,-5
29.035,-23,-6,-3,-4,-6,-5,-12,-27
29.04,-5,-13,-3,-1,-1,9,25,23
29.045,-15,10,9,4,8,6,43,6
29.05,-3,5,-16,-6,-4,-13,-96,-9
29.055,-25,-18,55,14,-9,-8,-11,-30
29.06,7,5,3,8,6,-9,-5,82
29.065,-12,-3,-24,-10,0,-1,1,-81
29.07,13,7,1,-6,-7,8,31,-53
29.075,-7,-1,1,-4,-5,1,-9,1
29.08,-21,-5,-21,-12,-5,-1,-4,-71
29.085,20,14,-8,-11,-3,-3,-4,35
29.09,13,14,20,16,4,3,15,33
29.095,-15,-6,-3,-3,-3,0,-1,1
29.1,4,-6,13,7,-1,0,6,-8
29.105,0,1,-15,-9,2,-4,-15,-13
29.11,24,11,-22,-8,-3,2,1,9
29.115,-44,-10,-24,-10,-1,-1,2,12
29.12,3,1,26,16,1,-1,-8,-5
29.125,-3,-3,40,7,-1,-2,-15,-3
29.13,12,6,-15,-1,4,7,27,27
29.135,7,-3,-4,0,0,-1,0,-6
29.14,-7,-7,-34,-15,-3,1,-9,1
29.145,-4,3,-5,-2,-5,3,34,13
29.15,-20,-12,14,-4,-12,-7,-42,-37
29.155,8,-5,-8,1,0,-6,-17,11
29.16,-4,-1,1,1,7,-7,2,5
29.165,9,6,6,2,1,1,-5,2
29.17,-9,-4,-7,-3,0,3,34,1
29.175,2,-2,-11,-5,-6,1,0,1
29.18,15,3,8,0,-7,-3,-14,9
29.185,-6,1,0,-2,0,1,-2,-4
29.19,-15,-10,2,5,2,-3,3,1
29.195,11,10,4,3,4,3,-3,8
29.2,-8,-1,28,6,5,1,9,-8
29.205,-16,-16,-57,-40,-10,-9,-18,4
29.21,16,0,5,-2,-6,-6,-3,-7
29.215,-20,13,106,47,3,1,1,5
29.22,41,-10,-77,-1,2,3,12,-2
29.225,-34,-8,21,-35,-9,2,-8,-10
29.23,16,-3,35,-1,-3,-7,-11,15
29.235,21,18,1,18,9,1,15,6
29.24,-32,1,-12,37,0,3,7,-6
29.245,18,-3,17,-10,-4,-3,-11,-10
29.25,-6,10,41,13,3,-3,-9,8
29.255,16,5,-78,8,5,1,22,20
29.26,-35,-19,-4,-63,-20,-10,-25,-4
29.265,15,15,11,120,30,12,10,-25
29.27,-19,-25,-96,-63,-22,-1,9,-7
29.275,27,-5,91,24,-16,-15,-8,36
29.28,-16,5,-44,42,7,9,3,-14
29.285,-1,-7,42,-22,-15,-7,-9,10
29.29,16,41,46,66,37,24,21,5
29.295,-37,-37,-65,3,-10,-9,-9,-15
29.3,-11,-1,9,-24,-4,-9,-27,-2
29.305,2,17,31,42,10,6,-1,-1
29.31,0,-18,-68,-94,-19,-9,-3,-5
29.315,4,-5,-23,-61,-9,5,5,-6
29.32,-3,-2,47,-21,-4,-8,0,-8
29.325,3,-6,10,19,8,-3,-2,9
29.33,-9,-2,-9,68,10,-3,7,2
29.335,-9,-6,1,-51,-6,-1,-6,-18
29.34,5,-11,-89,-45,-17,-4,-7,-1
29.345,-4,-1,24,-19,-7,-15,-10,-9
29.35,-1,-1,2,12,1,1,11,1
29.355,-2,4,47,42,8,4,-7,-11
29.36,14,8,5,16,4,5,4,7
29.365,-9,-3,-69,-5,-5,3,4,7
29.37,-14,-18,48,-54,-17,-13,-6,-8
29.375,1,6,-15,1,7,0,-7,-14
29.38,3,-3,9,32,0,1,5,7
29.385,-7,-7,0,-17,-9,-4,-4,-2
29.39,1,9,-6,48,8,3,-4,5
29.395,-6,-10,-52,-59,-11,-1,-5,-12
29.4,4,5,13,22,5,0,5,0
29.405,-2,6,53,34,6,0,2,-2
29.41,-7,-19,-66,-67,-9,-5,0,1
29.415,0,4,26,21,-1,-3,-3,-3
29.42,1,2,11,2,0,-1,0,-2
29.425,0,0,-23,-4,0,0,-6,5
29.43,2,16,43,75,9,7,3,3
29.435,8,21,41,84,15,12,7,-2
29.44,-16,-45,-67,-95,-44,-29,-16,-4
29.445,-5,1,54,56,2,-2,7,-3
29.45,2,-3,7,39,4,-3,4,-1
29.455,3,12,11,44,11,6,0,1
29.46,7,18,36,48,14,10,3,4
29.465,-8,-16,-68,-77,-14,-1,-5,-3
29.47,-10,4,25,-3,2,4,0,-11
29.475,11,-10,-4,0,-5,-12,-6,20
29.48,-9,-2,-17,-25,2,5,2,-7
29.485,-5,-11,-16,-38,-8,-5,-4,-4
29.49,3,6,-10,8,4,4,0,3
29.495,-6,-5,-22,-4,-2,-3,-1,-6
29.5,3,10,68,35,5,-2,2,1
29.505,5,6,-19,-18,4,2,-1,7
29.51,-10,-17,-28,-54,-19,-10,-9,-4
29.515,-7,-9,15,-5,-5,-3,0,-7
29.52,6,10,13,33,12,4,4,4
29.525,11,27,91,127,25,10,4,2
29.53,-6,-10,-64,-71,-12,-3,-4,0
29.535,-20,-46,-68,-105,-37,-23,-14,-15
29.54,10,9,54,19,4,7,5,-4
29.545,-1,2,-17,19,0,1,-1,0
29.55,-2,-3,13,42,3,3,4,0
29.555,7,19,13,48,16,2,8,5
29.56,-5,-3,-14,-13,3,3,-1,-7
29.565,-4,-10,-32,-28,-6,-6,-10,-5
29.57,4,6,32,29,-6,-1,-7,0
29.575,0,-2,-6,-28,-5,-2,3,-6
29.58,-1,1,6,6,4,0,4,4
29.585,-3,-4,-8,-18,0,-2,2,1
29.59,0,4,-5,20,3,2,-2,1
29.595,-1,5,0,40,0,4,-5,0
29.6,-3,-6,-24,-55,-14,-4,-9,-2
29.605,0,-4,-53,1,-5,-3,-2,2
29.61,-2,-2,46,-8,1,-3,3,-3
29.615,-3,-9,-2,-11,7,5,5,0
29.62,4,10,10,43,10,4,1,3
29.625,-2,-1,-11,-12,-6,-4,-5,-4
29.63,-2,-7,-11,7,-9,-2,-7,-3
29.635,-1,2,19,3,-3,0,-1,-2
29.64,1,2,9,4,5,0,4,2
29.645,5,-9,-15,-23,-5,-7,-1,2
29.65,25,5,-19,8,5,-4,-1,3
29.655,20,8,-11,-14,-5,6,2,2
29.66,-75,-23,-3,8,-5,-11,-8,14
29.665,4,-2,5,-7,-4,2,-5,-74
29.67,-2,2,19,-6,13,0,3,18
29.675,54,5,-5,-8,-35,-6,-4,69
29.68,89,38,13,34,7,16,19,-30
29.685,-86,-16,5,-54,-17,0,11,61
29.69,61,-46,3,43,-19,-14,-12,-53
29.695,-3,-9,-29,-10,16,-11,-19,59
29.7,-112,-40,12,-21,-22,-33,-42,-57
29.705,115,45,19,-2,34,32,45,98
29.71,90,55,7,-54,30,39,32,105
29.715,-92,-18,19,43,-82,-31,-15,-31
29.72,11,20,-12,47,17,4,0,-16
29.725,53,-13,-37,-17,12,-13,-22,-39
29.73,-128,-77,22,17,-19,-17,-10,11
29.735,31,14,-38,-17,5,24,6,-73
29.74,98,60,4,-84,-2,-3,4,0
29.745,-128,-73,-11,65,7,-31,-24,-79
29.75,124,31,43,50,48,23,31,53
29.755,78,-16,22,13,26,7,-3,-12
29.76,48,-15,0,-7,22,24,10,39
29.765,49,35,11,-46,-69,-9,0,64
29.77,-99,-8,-3,-28,-14,-21,-46,-128
29.775,-34,19,2,-49,34,2,6,18
29.78,-18,3,17,20,-54,-9,6,33
29.785,-53,3,0,13,10,-4,-5,-7
29.79,-49,-13,-15,-14,4,-8,-5,-13
29.795,7,-3,3,-38,-23,-4,3,0
29.8,13,-19,-11,44,8,2,3,14
29.805,8,-7,-12,2,12,8,2,-14
29.81,23,26,1,40,4,1,10,69
29.815,-79,-23,-6,3,-5,-12,-15,-75
29.82,-59,-20,-13,-3,-6,-10,-6,3
29.825,33,19,28,6,4,5,9,-1
29.83,52,3,-11,-2,3,11,11,18
29.835,101,14,16,-11,15,14,19,64
29.84,-95,-46,-7,12,-32,-14,-40,-38
29.845,12,10,-6,-37,-1,-8,-5,39
29.85,-52,-18,-17,-12,-14,-3,-1,-3
29.855,31,-3,-5,26,15,-6,-1,15
29.86,40,7,-1,-38,-26,6,18,15
29.865,39,7,-8,-9,22,10,2,38
29.87,-59,-11,-27,-8,-24,-20,-23,-95
29.875,18,-32,7,-16,5,1,12,13
29.88,96,2,2,17,36,6,17,58
29.885,22,-14,16,-6,-13,3,-10,-33
29.89,-66,-27,-4,-11,-26,-5,-4,2
29.895,-42,14,-1,1,1,-4,-12,-18
29.9,33,4,-21,-17,8,-2,-3,6
29.905,106,21,24,25,2,7,10,43
29.91,-81,1,-3,-10,-10,-8,-16,-35
29.915,82,33,-3,-27,6,-6,4,-30
29.92,75,3,-3,3,6,5,6,31
29.925,-109,-53,-26,-18,-11,-16,-21,-55
29.93,107,20,-2,-2,7,11,17,44
29.935,-25,0,5,27,3,4,2,3
29.94,20,15,27,1,3,-3,-2,-8
29.945,-9,4,-15,0,-9,1,-7,-5
29.95,-22,-3,-20,-11,-3,-4,-10,2
29.955,-35,-2,18,12,-8,-7,-2,-6
29.96,-11,8,15,1,8,-3,5,25
29.965,-18,-2,-30,28,14,5,8,-18
29.97,-26,-1,14,-25,2,0,0,2
29.975,-21,-12,-1,8,1,0,-5,-3
29.98,-22,-4,11,-13,-7,-7,-2,-12
29.985,-26,4,16,9,-3,8,39,-20
29.99,94,22,-6,16,2,-5,-29,24
29.995,-60,-10,-41,-16,-11,-3,-14,18
30,-11,7,-10,9,9,11,16,8
30.005,-49,-47,-57,-81,-28,-34,-56,-55
30.01,24,19,19,24,14,17,58,-2
30.015,2,-7,28,-17,-3,-2,-32,-3
30.02,-37,-1,-48,-17,-11,-3,10,6
30.025,92,60,59,116,34,41,107,95
30.03,-6,-18,-24,-45,-8,-20,-72,-31
30.035,-42,-18,63,61,1,-26,-81,-39
30.04,-23,-43,-88,-69,-21,-26,5,-38
30.045,2,6,8,14,2,-1,-4,-8
30.05,8,19,91,-21,-1,14,44,26
30.055,19,17,54,42,17,15,41,20
30.06,-20,-17,-44,37,0,0,-20,-17
30.065,-2,21,68,18,4,3,-16,8
30.07,-4,-34,-128,-6,-17,-22,-10,-8
30.075,6,1,16,-77,-9,6,13,-2
30.08,-5,-3,2,75,8,-1,-6,-11
30.085,-8,-11,-74,-74,-17,-10,-19,-10
30.09,17,25,77,54,14,11,3,9
30.095,5,1,-30,35,9,3,17,0
30.1,1,11,37,9,4,6,0,-1
30.105,-9,1,22,-30,-7,-2,-15,4
30.11,-6,-14,-27,25,-5,-11,-8,-11
30.115,4,5,11,-3,1,7,20,10
30.12,-6,-7,21,-11,5,7,-6,-3
30.125,-5,7,41,2,-5,-9,-15,-10
30.13,1,1,-3,-28,-5,-4,5,2
30.135,6,-1,-22,14,2,5,14,7
30.14,1,11,43,1,3,9,-5,-5
30.145,-7,-15,-28,-16,-7,-9,-11,-7
30.15,0,0,8,6,-2,2,4,3
30.155,2,-2,-24,5,-3,-2,4,1
30.16,-7,1,-20,-31,1,0,-3,-5
30.165,-6,-9,1,2,-2,-5,-7,-2
30.17,5,4,-11,31,8,2,-1,4
30.175,1,1,11,-19,-8,0,-1,1
30.18,-12,-16,-11,-65,-14,-16,-9,-5
30.185,11,14,15,25,7,9,4,4
30.19,-7,0,13,9,0,-2,-3,-6
30.195,-8,-23,-10,-12,-17,-11,-5,7
30.2,7,10,18,18,3,0,15,-1
30.205,-9,-13,-29,-23,-5,-5,-20,-4
30.21,8,13,28,8,4,8,12,6
30.215,-4,1,-38,5,6,-1,4,-5
30.22,6,7,28,38,14,6,2,2
30.225,4,-4,7,-15,-10,-4,-4,-6
30.23,-6,-2,23,19,-3,-3,-2,-6
30.235,-9,-9,-24,2,-4,-3,-9,-12
30.24,-9,-13,-66,-66,-18,-7,-9,16
30.245,22,15,17,54,12,10,9,-1
30.25,-29,-22,-64,-29,-14,-10,-10,-16
30.255,2,-11,-31,-54,-12,-6,-5,7
30.26,-1,17,43,39,8,4,-1,0
30.265,-21,-15,45,-11,-4,-6,-3,-2
30.27,40,12,5,-10,-5,-6,52,24
30.275,17,33,42,81,25,41,-9,-11
30.28,7,-13,-28,-59,-1,-17,-54,-18
30.285,-23,-10,-14,-8,2,-4,22,-1
30.29,-25,2,33,13,-2,4,-13,-3
30.295,-18,-16,12,-45,-18,-13,28,-1
30.3,2,9,67,26,-2,7,9,-2
30.305,-13,-33,-86,-32,-11,-7,-29,-10
30.31,7,5,51,-4,-1,-8,3,0
30.315,16,20,-70,32,13,5,5,7
30.32,3,2,-47,-6,-2,3,0,-4
30.325,9,3,10,-20,-5,-10,-4,-11
30.33,11,8,-57,-2,6,7,-3,12
30.335,51,6,72,16,0,-7,-4,-3
30.34,-3,33,21,83,18,7,6,3
30.345,5,-1,-56,-63,-17,-2,4,0
30.35,9,3,83,-11,-6,-5,-21,-46
30.355,-2,32,31,58,13,5,1,5
30.36,-25,-34,-2,-41,-17,-11,18,0
30.365,19,14,45,56,12,1,-14,28
30.37,-35,-28,8,-54,-12,2,-14,-3
30.375,-17,5,-34,-29,-5,-8,-14,-13
30.38,1,35,40,0,-10,-7,-5,2
30.385,-7,45,62,76,12,6,5,-8
30.39,12,19,-56,-14,3,0,5,16
30.395,-26,28,-56,-52,-11,-7,8,-5
30.4,-5,19,-3,5,3,4,1,8
30.405,-8,-3,12,7,3,5,-1,-6
30.41,1,-35,-9,52,8,7,1,7
30.415,-19,-66,28,-73,-16,-12,-8,-8
30.42,1,-55,11,5,-1,-4,-3,-5
30.425,-3,-23,52,44,4,3,3,-1
30.43,-10,-30,-82,-25,2,-2,-2,-2
30.435,-17,-19,21,-1,-10,-10,-13,5
30.44,8,16,36,42,9,12,12,-7
30.445,-11,3,-47,18,12,-4,11,-1
30.45,5,-1,27,15,-4,-5,5,11
30.455,2,-10,35,16,-2,-5,-12,-4
30.46,-2,-14,-13,-8,0,0,-2,-6
30.465,1,-9,10,16,-6,-3,-21,1
30.47,3,0,-14,23,3,2,-11,0
30.475,1,-16,-19,-17,-3,-2,5,-4
30.48,4,-16,-8,-11,-3,-2,21,4
30.485,-5,-9,-46,-17,-2,3,-2,1
30.49,3,-13,22,-8,-8,-6,-10,-4
30.495,13,-16,7,12,2,4,13,1
30.5,2,-8,-19,1,5,5,-7,-6
30.505,8,5,73,61,8,3,6,-1
30.51,-6,-7,-113,-76,-16,-1,-6,0
30.515,-3,-6,22,0,-8,-7,0,0
30.52,3,10,31,25,4,-5,-1,0
30.525,-2,7,-20,-27,-6,-5,-2,-4
30.53,6,42,44,50,14,7,6,3
30.535,-2,25,-43,-3,3,2,-4,3
30.54,-6,-1,-33,-38,-12,-3,-7,-6
30.545,-1,-1,32,-4,-8,1,2,-2
30.55,-7,10,20,5,-1,-4,-1,-4
30.555,-1,-1,-47,-18,-3,-3,-1,-1
30.56,-1,3,-3,4,2,1,1,-1
30.565,-3,-3,-21,-22,0,-2,4,2
30.57,1,3,17,7,-3,-1,-4,-1
30.575,-3,2,5,-25,-2,-1,-3,1
30.58,-3,-5,-9,0,-5,-2,-2,-3
30.585,2,-6,-9,-12,-5,2,-1,0
30.59,3,1,4,-16,-5,-5,-9,-1
30.595,1,2,-3,18,-9,-7,7,0
30.6,0,-5,1,13,12,7,4,3
30.605,-10,-8,-16,-43,-8,-6,-1,-8
30.61,2,-2,-3,2,-1,-3,-4,0
30.615,1,4,31,37,3,6,-2,4
30.62,6,-4,13,-14,2,1,1,0
30.625,15,-14,-26,-20,-13,2,3,14
30.63,-42,-6,15,-1,-3,0,-5,4
30.635,8,6,-11,5,7,1,1,-22
30.64,24,4,-12,-11,-13,-12,-12,74
30.645,-37,7,-6,6,19,12,9,-99
30.65,101,32,17,5,-6,16,34,117
30.655,-100,-45,5,-17,-19,-33,-50,-96
30.66,-109,-32,-2,-9,-6,-33,-46,-106
30.665,56,-3,-14,-1,6,0,8,90
30.67,52,22,8,-1,5,8,11,25
30.675,-12,5,3,22,20,24,41,80
30.68,67,5,-3,7,-3,12,18,23
30.685,-30,-9,-3,-11,-13,-7,-15,-18
30.69,-3,-2,-3,3,1,-9,-15,-49
30.695,88,10,-12,-11,-7,3,0,31
30.7,-20,17,25,-1,1,5,-2,-16
30.705,-56,5,-7,-11,-4,-4,-7,-20
30.71,-37,-22,-11,2,4,0,6,-4
30.715,43,10,-19,4,6,3,-1,22
30.72,-104,-67,-18,-6,1,-11,-18,-55
30.725,127,30,2,-3,-6,-8,-1,-3
30.73,-41,-12,20,-3,-11,-13,-18,-26
30.735,36,30,7,8,6,2,7,-10
30.74,111,29,18,7,5,23,30,71
30.745,-42,-1,-1,9,4,-2,-4,15
30.75,-65,-35,-9,-9,-26,-10,-14,-36
30.755,-6,-16,-11,5,1,-3,-3,4
30.76,-14,10,-31,-20,-9,1,-1,5
30.765,45,12,-4,3,2,4,8,38
30.77,-46,9,10,3,6,0,-18,-80
30.775,-70,-38,-9,-3,-5,-9,0,-13
30.78,67,38,35,17,4,-3,4,54
30.785,-92,-20,-56,-23,-6,-7,-11,-82
30.79,30,-57,-12,-3,4,-5,1,21
30.795,89,29,-6,-3,9,10,2,11
30.8,31,8,-1,10,-9,-1,-1,-2
30.805,87,28,20,5,-6,2,6,45
30.81,37,34,10,8,0,1,-1,11
30.815,-110,-14,-9,1,1,1,-9,-29
30.82,51,-3,0,2,9,10,13,-1
30.825,-10,-4,-3,-6,-3,0,-2,4
30.83,-36,-4,1,-4,-3,-6,-3,-13
30.835,43,19,19,7,7,-1,1,11
30.84,0,2,7,-21,-25,-11,-6,-8
30.845,-112,-42,16,6,3,-3,-6,-11
30.85,46,8,6,-3,7,-2,2,4
30.855,-38,8,2,-3,-8,3,1,7
30.86,-23,-12,-2,2,5,-2,5,-12
30.865,8,-10,6,-7,-2,-2,-6,1
30.87,-19,14,19,4,2,2,3,13
30.875,8,-11,23,5,-5,0,-2,-6
30.88,-5,-8,-15,-29,-9,-12,-13,-25
30.885,32,-6,16,0,-9,-9,-3,11
30.89,8,11,-3,13,9,13,10,0
30.895,6,-5,-7,-7,6,0,18,6
30.9,-12,5,-6,14,6,0,-7,16
30.905,2,-2,5,-8,-8,-7,-17,-21
30.91,-7,-4,9,-1,-5,-6,-6,-7
30.915,18,-6,-38,5,-3,-2,0,-5
30.92,-11,-4,-26,-10,-1,-4,5,-5
30.925,7,8,-14,23,9,9,14,16
30.93,25,-1,-26,-10,-4,-1,-7,-1
30.935,-31,-10,-18,-6,-8,-3,-4,-7
30.94,-1,0,-11,1,7,7,7,11
30.945,-10,-10,2,-5,-12,-10,-12,-34
30.95,2,5,-28,2,6,3,8,3
30.955,34,34,7,65,20,15,5,23
30.96,-12,-23,31,14,-14,-7,-13,-16
30.965,-17,-52,-78,-98,-41,-26,-7,6
30.97,5,11,40,28,-4,-12,8,-12
30.975,12,27,33,48,16,7,-15,17
30.98,-3,47,110,127,36,28,42,13
30.985,-14,-55,-6,-73,-35,-31,-66,-29
30.99,-2,-42,-19,-64,-25,-15,-6,11
30.995,6,12,102,77,0,4,11,-13
31,-25,-15,-26,-42,-5,-1,-1,24
31.005,24,26,28,60,27,16,27,8
31.01,5,9,-51,-2,14,10,8,14
31.015,-7,-19,-57,-65,-20,-15,-16,-17
31.02,7,10,46,20,0,-2,-6,-6
31.025,2,28,49,35,13,13,15,13
31.03,-6,-18,11,-29,-16,-10,-17,-12
31.035,4,14,-28,19,8,4,9,1
31.04,-8,-30,-128,-128,-24,-14,-19,-24
31.045,17,46,127,127,23,8,13,28
31.05,-16,-23,-74,-61,-14,-5,-9,-6
31.055,18,12,-28,79,17,8,4,5
31.06,-13,-16,25,6,-25,-19,-11,-16
31.065,10,16,47,62,25,17,10,1
31.07,8,28,98,89,15,10,7,13
31.075,-19,-13,29,-15,-3,-8,-5,-8
31.08,10,0,7,3,2,-2,-10,-7
31.085,-7,0,-3,16,-1,9,11,4
31.09,-3,1,19,-35,-2,-10,-6,-3
31.095,-24,-19,-25,-69,-14,-5,-5,-8
31.1,-5,-14,-83,-75,-16,-6,-7,-7
31.105,0,-1,-53,-18,-4,-2,-3,0
31.11,-5,-6,-79,-34,-7,2,-3,-1
31.115,8,2,8,26,13,8,4,2
31.12,-6,-4,53,2,-1,-13,1,-4
31.125,-1,4,10,-17,2,-1,2,1
31.13,-3,-8,0,4,-3,-10,-8,-6
31.135,2,-5,11,-23,-7,3,3,2
31.14,-4,6,20,32,9,11,-2,-3
31.145,3,5,32,63,6,2,2,1
31.15,-1,-16,-24,-11,-10,-8,-5,-4
31.155,7,-2,-11,-11,-3,-5,-5,1
31.16,0,-4,-50,6,2,3,4,-4
31.165,3,8,-6,50,4,-3,1,3
31.17,-9,-5,-32,-66,-18,1,-3,-11
31.175,-5,-13,-5,-97,-9,-5,-4,16
31.18,18,8,24,59,12,2,5,-1
31.185,-20,-12,4,-9,-7,-10,-4,-2
31.19,11,4,-6,33,5,0,0,10
31.195,14,-7,-11,20,-10,-13,-8,-16
31.2,-15,4,19,-55,-7,-2,-7,2
31.205,8,4,14,19,6,7,5,6
31.21,-3,10,30,10,12,5,8,2
31.215,8,5,34,14,3,-1,0,8
31.22,-9,-22,-71,-66,-16,-10,-8,-8
31.225,-1,-3,-16,0,-4,0,-2,-6
31.23,13,17,31,3,9,10,4,4
31.235,-7,-16,22,-45,-20,-10,-9,-2
31.24,7,5,5,41,13,-3,2,-2
31.245,-5,-2,2,-19,-4,5,2,4
31.25,4,11,0,94,20,5,3,-5
31.255,-11,-7,-30,-90,-15,-8,-1,-6
31.26,-5,-4,46,8,-14,-11,-10,-1
31.265,16,-13,-40,-53,-14,-10,-6,6
31.27,-10,14,72,71,24,17,11,7
31.275,3,8,-1,68,10,5,3,-6
31.28,-31,-16,62,-16,-8,-4,-3,-2
31.285,-5,-19,-56,-52,-11,-13,-2,-1
31.29,-1,0,18,-14,-11,-3,-9,-8
31.295,0,-1,-50,22,2,0,0,2
31.3,11,17,1,40,12,13,8,5
31.305,-4,5,-33,-38,3,3,-1,-4
31.31,-6,-4,7,28,-12,-9,-2,-6
31.315,-11,-11,-11,-23,-12,-2,-5,-8
31.32,20,17,-17,48,14,10,5,7
31.325,-10,-11,-21,-35,-7,-8,-2,-10
31.33,2,1,11,-9,-1,-1,-1,1
31.335,3,6,-6,46,7,6,2,-4
31.34,9,18,22,64,9,6,0,-1
31.345,-21,-42,-60,-88,-43,-20,-9,-8
31.35,6,3,43,58,18,1,12,7
31.355,-2,-14,2,6,-8,-1,-4,-4
31.36,7,11,16,32,15,2,2,-2
31.365,7,19,9,55,19,13,-2,2
31.37,-10,-18,-59,-53,-24,-6,-9,-1
31.375,-2,-5,50,-26,-3,-7,-1,-5
31.38,0,-8,-80,-25,4,6,4,2
31.385,2,11,10,3,9,-3,-1,-3
31.39,-4,-5,-56,-26,-4,-6,-3,-4
31.395,-3,5,5,4,0,-1,-1,3
31.4,-2,-2,1,-26,-13,-6,-7,-2
31.405,1,3,53,25,-4,-1,-2,-1
31.41,-4,2,46,-56,0,6,6,0
31.415,-5,-6,-2,7,3,4,3,0
31.42,1,0,15,-2,3,-6,-3,-4
31.425,-2,-5,-31,-12,-13,1,-4,1
31.43,-1,-1,1,60,3,0,-7,-2
31.435,2,18,36,40,12,5,1,-3
31.44,-21,-43,-42,-99,-38,-15,-11,-10
31.445,2,2,34,19,-1,-13,-2,-4
31.45,8,0,-7,17,2,1,1,-1
31.455,1,2,3,20,5,-1,4,4
31.46,7,19,11,62,21,11,7,3
31.465,-5,-5,-14,-43,-11,1,-4,1
31.47,-3,1,40,43,-1,0,-1,-1
31.475,-4,-7,-29,-71,-4,-3,-5,-5
31.48,-6,-6,-7,-17,-8,-6,-2,1
31.485,4,11,27,-8,11,1,2,0
31.49,-1,1,-22,1,-3,-7,-6,-4
31.495,-11,-11,-7,7,-4,2,-4,0
31.5,-1,-7,-1,-10,-4,-7,-11,-3
31.505,-6,-2,4,9,2,4,4,0
31.51,4,5,21,-13,10,0,4,-1
31.515,6,8,8,-10,-6,-3,-1,3
31.52,17,2,32,0,-3,-9,3,3
31.525,-21,-4,14,34,10,7,0,-6
31.53,-17,-9,-15,-17,-12,-7,-11,-6
31.535,1,0,24,62,6,10,5,0
31.54,-19,-20,-81,-84,-24,-13,-8,-7
31.545,20,-1,-25,1,3,1,1,3
31.55,12,3,-46,2,22,6,3,3
31.555,-8,-12,10,-13,-42,-10,-3,19
31.56,24,15,17,46,16,0,-2,-18
31.565,-20,-2,-10,-22,-9,-10,-9,-7
31.57,-10,4,11,-13,4,11,10,-2
31.575,14,15,-53,19,56,8,10,6
31.58,-4,-13,-72,-8,-41,11,15,36
31.585,72,9,-96,8,8,2,-4,95
31.59,10,28,-55,-8,-51,-24,-33,-47
31.595,-104,-37,-33,-26,7,-18,-16,-84
31.6,25,-5,-2,28,20,2,9,-27
31.605,-83,-21,25,-23,15,-7,8,2
31.61,46,-42,12,0,11,13,19,64
31.615,113,27,-5,27,-2,11,7,42
31.62,-97,-30,27,-14,-9,-5,-12,-21
31.625,30,5,20,80,11,10,5,-22
31.63,-8,-30,-51,-99,-29,-19,-11,-3
31.635,-15,-26,67,-89,-34,-21,-9,-8
31.64,40,38,70,42,39,18,10,12
31.645,5,28,77,-13,-3,4,-5,-13
31.65,-50,-4,96,46,-44,-5,-8,-15
31.655,3,-7,60,37,9,-1,-3,15
31.66,7,-4,19,-45,-9,-4,-8,7
31.665,34,-8,6,-12,12,1,12,21
31.67,105,30,-18,20,1,11,16,108
31.675,-99,-42,-87,-6,-7,-8,-21,-54
31.68,-14,-27,-49,11,0,-21,-29,-94
31.685,17,1,-63,-7,4,-5,3,-46
31.69,31,8,-1,-18,16,0,20,90
31.695,97,52,-14,19,36,23,35,26
31.7,20,27,30,5,-59,26,19,127
31.705,-95,-61,6,13,-21,-58,-100,-115
31.71,30,1,-57,9,50,17,37,75
31.715,33,46,46,11,-56,-6,5,84
31.72,-52,-2,8,-16,38,-28,-36,-93
31.725,127,14,101,7,29,43,62,127
31.73,-128,-46,-54,0,-79,-19,-36,18
31.735,114,22,-20,-21,37,-10,-19,-42
31.74,84,15,-3,53,-54,15,32,88
31.745,-103,-31,8,-19,3,-13,-11,44
31.75,25,-13,67,-8,55,-6,-24,-127
31.755,53,16,51,-8,-4,15,32,127
31.76,70,41,40,27,20,11,2,60
31.765,-50,-18,-101,-45,-6,1,-11,-54
31.77,44,34,-94,-6,-11,5,6,-42
31.775,-128,-66,-30,9,-39,-13,-25,-83
31.78,4,27,43,-8,28,-9,2,-44
31.785,29,14,-19,12,-13,13,28,24
31.79,104,-7,-14,10,19,7,0,-22
31.795,-86,-32,-37,-8,-5,-3,-7,-10
31.8,-8,9,-30,-9,8,-11,-9,-20
31.805,16,9,20,-4,-18,4,8,-8
31.81,20,12,13,-16,-8,-7,-7,-22
31.815,-17,2,50,6,18,1,-1,7
31.82,-11,-25,32,3,-6,3,2,2
31.825,-11,23,-3,-5,-7,-1,-7,-17
31.83,17,12,77,14,11,-1,0,-7
31.835,45,-10,0,2,-7,-1,2,2
31.84,-109,-1,-39,-38,-2,-4,-10,-31
31.845,110,14,-8,6,-13,-2,-4,-4
31.85,0,18,30,12,9,7,14,19
31.855,57,-12,24,2,1,-7,-3,-4
31.86,36,-7,-19,15,10,5,2,8
31.865,9,-14,-17,-7,-8,-6,-5,34
31.87,-69,-19,-2,-5,-3,-2,-1,-20
31.875,-1,6,-44,6,6,-7,-2,-15
31.88,-38,-31,-7,-44,-5,-7,-10,-37
31.885,-23,7,-9,8,-4,15,16,18
31.89,-21,24,28,23,12,10,15,-15
31.895,-9,18,-70,-47,-29,-23,-51,-17
31.9,5,27,31,21,5,2,3,23
31.905,-12,42,-13,17,5,-2,-6,-29
31.91,-9,8,30,-9,1,-1,10,1
31.915,0,-2,22,1,14,12,13,3
31.92,-22,-26,-15,-14,-4,4,4,9
31.925,7,-41,0,25,-5,-5,-5,-40
31.93,20,-51,28,16,1,-5,-7,30
31.935,-18,-42,-15,-17,-14,-6,12,-29
31.94,37,-60,20,29,2,-7,-6,39
31.945,26,-21,17,-48,5,10,10,-10
31.95,-67,-24,48,55,10,-6,-13,-25
31.955,-3,-16,16,62,13,9,10,14
31.96,109,-9,-75,-52,-7,-2,13,58
31.965,-33,12,41,-21,-8,-9,-19,-43
31.97,-83,-51,-118,-120,-34,-18,-24,-45
31.975,65,61,106,84,35,24,26,26
31.98,-21,11,-112,-50,-19,-9,6,-16
31.985,-33,54,127,-19,0,-5,6,36
31.99,-2,5,-125,-73,-8,-3,-6,-10
31.995,-37,-18,-12,-63,-33,-23,-26,-36
32,30,71,111,92,36,24,13,9
32.005,3,-32,-46,-8,-29,-16,-10,11
32.01,9,41,46,52,6,7,4,-5
32.015,-16,15,-38,-63,2,9,3,18
32.02,-5,-35,-46,0,-7,-16,-14,-29
32.025,6,-35,-72,-74,-37,-16,-7,3
32.03,-32,-4,7,-30,-10,-15,-13,-35
32.035,28,33,105,106,41,21,18,17
32.04,-26,-13,-71,-79,-15,-4,-2,-7
32.045,2,-19,-17,42,-14,-8,-6,17
32.05,38,15,36,-30,-3,-1,0,15
32.055,-2,-4,5,38,-2,-4,-4,-4
32.06,-9,31,63,123,25,7,7,-6
32.065,1,12,-19,62,25,14,8,8
32.07,9,2,24,34,-1,2,-1,9
32.075,3,-1,-44,-48,-11,-10,-5,-8
32.08,-10,2,26,14,5,10,4,2
32.085,-9,1,-11,-33,4,1,-4,-2
32.09,11,3,7,10,-13,-2,1,11
32.095,-13,-12,-49,-43,-2,-7,-3,-1
32.1,-7,-10,4,9,-3,-6,-5,-11
32.105,-7,0,8,40,11,7,2,2
32.11,5,-6,2,-30,0,0,-4,2
32.115,13,23,38,81,16,-2,5,8
32.12,-12,-31,-76,-84,-31,-7,-4,-5
32.125,-37,-22,3,-31,-4,-6,-7,-9
32.13,17,1,12,52,20,6,7,-1
32.135,0,-10,31,16,-6,-2,-4,10
32.14,3,21,48,85,21,11,1,2
32.145,-14,21,6,40,7,5,3,-2
32.15,18,-38,-57,-93,-45,-24,-11,-9
32.155,-20,-1,-22,39,8,6,2,2
32.16,3,-2,8,-36,-10,-3,1,8
32.165,-2,-3,1,20,3,-2,-2,-2
32.17,2,22,1,5,16,9,3,10
32.175,5,-5,-5,-12,-16,-7,-9,-15
32.18,-8,-8,40,31,5,-1,-3,-10
32.185,15,15,-10,28,9,5,6,5
32.19,-16,-20,-70,-68,-11,-11,-8,0
32.195,12,10,29,19,5,6,5,-1
32.2,-19,-28,-21,-77,-26,-18,-12,-6
32.205,4,5,43,25,4,3,1,-4
32.21,16,29,52,126,34,16,11,11
32.215,-28,-24,-72,-79,-20,-11,-12,-23
32.22,-5,-5,14,-34,-2,-3,0,9
32.225,20,15,18,0,11,2,4,2
32.23,-14,-19,-49,40,-9,-3,-6,-5
32.235,-2,-7,-12,-75,-14,1,-2,6
32.24,5,14,47,92,14,6,2,-7
32.245,2,-9,-19,-43,-9,-8,-4,1
32.25,1,12,39,27,12,7,2,5
32.255,-7,-12,-35,-12,-8,-8,-5,0
32.26,6,4,-11,13,6,1,0,1
32.265,3,3,9,16,6,4,2,-1
32.27,-5,3,30,43,-5,-4,-1,-2
32.275,-4,-10,-19,-99,-13,-2,0,0
32.28,-7,-13,3,-48,-12,-6,-3,-7
32.285,-3,-7,2,2,3,-4,-3,-6
32.29,2,3,46,10,12,4,0,0
32.295,10,4,69,15,11,1,0,1
32.3,7,7,125,38,-8,3,-2,6
32.305,-30,-27,14,-47,-22,-7,-7,-12
32.31,-22,15,6,14,7,-7,-4,-4
32.315,-3,-9,-52,-15,-4,-1,3,-3
32.32,0,-12,-115,-22,7,-5,2,2
32.325,32,9,-95,20,5,6,5,16
32.33,42,39,-39,0,28,4,-1,19
32.335,-53,-24,-70,-21,-58,-16,-15,-55
32.34,-37,-5,41,27,8,-3,-3,-4
32.345,0,-8,31,-50,-5,-4,3,-3
32.35,11,-10,25,-3,4,-2,5,11
32.355,55,39,51,-21,14,10,11,28
32.36,10,-24,-108,43,-3,5,-5,21
32.365,-17,43,74,80,-31,3,-12,-57
32.37,-46,-9,36,96,37,3,0,2
32.375,-22,-82,-72,-76,-46,-28,-17,2
32.38,24,28,86,68,12,5,8,2
32.385,38,-14,-46,22,11,6,9,46
32.39,13,8,101,7,-23,-5,-10,-60
32.395,-16,24,-19,37,22,5,3,-9
32.4,-60,-13,-12,-1,-7,-4,-1,-7
32.405,2,-1,-42,-55,-2,-9,-14,-5
32.41,28,-3,-104,-41,-10,4,9,5
32.415,33,12,-37,33,21,6,5,16
32.42,37,25,-40,-39,11,9,11,-6
32.425,8,19,10,11,13,2,8,15
32.43,-33,-24,-34,-37,-12,-4,-6,-45
32.435,-24,-17,42,13,0,-2,3,7
32.44,64,29,6,-24,18,4,1,16
32.445,37,30,50,2,-23,-2,5,29
32.45,-77,-47,1,-43,-27,-19,-22,-40
32.455,-30,-28,31,8,23,1,-1,23
32.46,45,-16,67,-4,-8,11,17,16
32.465,117,14,15,17,13,0,2,103
32.47,-56,-38,-9,5,-25,-11,-36,-43
32.475,23,36,47,37,18,8,8,94
32.48,25,13,-10,-21,-24,-11,-21,13
32.485,-47,-83,-57,-26,18,-18,-14,-46
32.49,100,38,28,-34,-19,2,24,113
32.495,-76,-13,-16,21,10,4,-3,-73
32.5,32,0,41,19,24,7,-3,-1
32.505,4,-1,-80,-4,-13,5,8,-11
32.51,-53,15,15,0,-1,-6,-2,-9
32.515,45,19,46,-13,7,-1,-1,10
32.52,-99,-21,-12,-16,-21,-3,6,-4
32.525,21,-12,-83,-6,-5,1,-2,-11
32.53,-72,22,34,9,11,6,2,-20
32.535,90,59,32,11,-12,7,14,69
32.54,-83,-60,-43,-16,-3,-23,-32,-114
32.545,-33,-7,63,7,-11,0,-5,-36
32.55,127,35,-23,-1,22,7,20,115
32.555,-25,0,3,22,-12,-2,-13,-34
32.56,-20,-33,-32,-21,-3,-12,-10,-25
32.565,16,-7,34,4,-9,2,7,8
32.57,52,5,14,-1,-23,5,10,35
32.575,-68,-16,-39,7,-1,-7,-15,-31
32.58,17,-13,-28,6,0,-11,-12,-9
32.585,-46,12,14,-11,12,0,-3,-22
32.59,-1,-29,-4,3,0,4,1,-15
32.595,84,23,47,20,2,8,16,26
32.6,-31,14,-11,-9,7,5,7,33
32.605,-105,-4,11,-5,8,-9,-14,-55
32.61,44,-9,-16,25,-31,-4,-11,-5
32.615,-100,-52,0,-7,3,-12,-22,-94
32.62,90,48,13,1,5,3,12,41
32.625,12,0,9,-2,7,3,7,34
32.63,-13,15,44,-3,13,-1,5,1
32.635,23,-20,-109,-5,-10,-4,-3,-9
32.64,16,5,24,1,-12,2,0,23
32.645,12,-2,-6,2,-3,3,0,0
32.65,-41,-14,-6,-5,2,-2,-8,-37
32.655,14,17,20,5,17,8,6,4
32.66,-14,-7,-11,-27,-46,-7,-2,12
32.665,21,5,11,-5,6,4,2,9
32.67,-22,-24,-15,-3,7,-3,-3,-14
32.675,47,20,-4,5,-1,-3,-1,13
32.68,-83,-17,7,15,3,-2,-6,-3
32.685,4,4,14,1,-3,-6,2,3
32.69,7,-1,-19,-17,-4,-4,-2,1
32.695,5,5,-1,-4,-2,-4,1,11
32.7,40,17,4,2,8,7,7,-7
32.705,-92,-19,7,-2,-5,2,-5,-8
32.71,12,5,-17,1,11,-4,6,5
32.715,10,-12,6,3,-12,-14,-9,7
32.72,45,25,32,31,18,10,9,9
32.725,-37,-5,-34,-1,0,1,-8,-4
32.73,14,-9,42,-12,-11,5,-2,-22
32.735,-11,-13,-52,7,-6,-1,-3,3
32.74,3,3,12,8,-1,-10,2,20
32.745,52,24,63,81,10,3,25,19
32.75,-62,-45,-103,-91,-15,-17,-40,-17
32.755,-1,-1,25,20,-2,5,-2,-29
32.76,-16,3,36,77,11,3,-2,-20
32.765,48,-31,-78,-117,-47,-22,-11,12
32.77,14,29,50,109,24,19,25,13
32.775,-36,-13,-32,-46,-2,2,-3,-6
32.78,-5,-31,-95,-73,-18,-13,-17,-8
32.785,-2,13,40,26,10,1,-4,-14
32.79,22,5,3,-10,-3,-1,1,3
32.795,4,9,16,33,8,8,2,-1
32.8,1,5,-22,-34,1,3,6,2
32.805,-9,-10,-3,-11,-7,-4,-9,-4
32.81,1,-1,-12,-63,-1,0,2,-5
32.815,12,20,53,37,13,6,13,12
32.82,-13,-8,-25,-21,-10,-9,-6,-2
32.825,6,-1,7,-11,0,2,-4,-5
32.83,2,8,17,46,7,3,2,0
32.835,10,11,44,70,11,3,4,4
32.84,-21,-44,-90,-101,-50,-20,-15,-7
32.845,-1,13,54,59,16,2,0,-8
32.85,5,0,-26,33,3,3,4,3
32.855,2,-7,4,-19,-8,-4,-1,4
32.86,9,31,63,110,34,16,6,0
32.865,-20,-25,-68,-79,-23,-7,-5,-2
32.87,-10,-22,-8,-62,-25,-21,-10,-4
32.875,6,-4,-1,-9,-2,0,0,3
32.88,2,19,41,40,16,1,4,3
32.885,8,20,58,59,25,12,6,2
32.89,7,6,-44,44,13,11,6,13
32.895,-24,-37,-36,-115,-41,-17,-18,-11
32.9,7,1,18,5,-1,1,-2,-4
32.905,21,14,9,26,9,8,8,10
32.91,7,1,13,42,0,-4,-4,7
32.915,-12,1,-4,2,4,0,-3,-19
32.92,1,-1,-16,-25,-3,-1,-1,4
32.925,-6,-8,13,-24,-9,-9,-7,-7
32.93,19,16,22,24,10,7,9,12
32.935,8,13,8,111,11,2,3,10
32.94,-18,-20,-3,-97,-19,-5,-6,-11
32.945,0,-6,7,-31,-4,-2,0,-1
32.95,-10,-3,18,6,-1,0,-1,-7
32.955,6,9,31,35,5,1,0,5
32.96,-3,-4,-41,0,0,1,-2,-3
32.965,1,11,14,59,11,0,-2,3
32.97,-2,0,-1,-64,-2,-3,2,-8
32.975,-11,-24,-48,-66,-18,-10,-2,-1
32.98,-1,-8,-7,-74,-15,-5,-4,5
32.985,-5,-1,-2,13,-2,-2,-2,-3
32.99,-2,3,14,35,5,-1,-3,-8
32.995,13,14,11,27,12,4,2,4
33,-3,1,-6,28,2,2,0,-1
33.005,-9,-7,-8,-15,-6,-8,-6,-4
33.01,-2,-2,-17,30,2,1,1,-3
33.015,2,-2,-2,-33,-8,3,1,5
33.02,-2,3,41,57,7,1,1,-2
33.025,-1,-3,-10,-2,-4,-7,-3,-10
33.03,0,5,12,-11,-3,-1,-2,1
33.035,2,-2,-7,-3,11,-2,-2,0
33.04,-7,-4,8,16,-26,2,1,0
33.045,-3,0,-10,5,9,1,-1,-2
33.05,0,5,23,56,12,5,1,1
33.055,-11,-18,-26,-117,-34,-18,-10,-4
33.06,20,16,30,23,18,2,3,1
33.065,28,21,-14,-18,5,5,6,6
33.07,-13,-17,-19,12,-10,2,-6,-3
33.075,-59,-21,25,71,15,4,1,-9
33.08,7,1,-4,8,12,-3,0,0
33.085,58,22,3,-27,-11,-1,-2,7
33.09,100,40,35,-4,31,13,7,15
33.095,-72,-19,-91,4,9,-1,-7,-10
33.1,-49,-30,38,-36,-27,-7,-8,-17
33.105,-4,-7,-101,33,-19,-5,-5,-10
33.11,-102,-33,63,-55,-35,-35,-15,-30
33.115,127,78,122,1,10,13,19,38
33.12,-110,-50,-44,50,24,0,-4,-23
33.125,76,-7,-72,-16,33,16,15,36
33.13,-19,-4,-16,-22,-39,-4,-7,11
33.135,32,19,48,6,15,-8,-12,-21
33.14,-16,18,56,26,-18,-2,-3,29
33.145,-40,-7,35,10,-4,0,-5,-16
33.15,-41,13,-2,-8,22,3,3,-22
33.155,22,-35,-92,-8,-1,-4,1,25
33.16,65,9,6,-2,-12,7,8,14
33.165,-30,4,35,-11,21,2,1,8
33.17,60,26,14,9,-10,0,15,36
33.175,-65,-8,52,36,-38,0,-7,-14
33.18,22,-23,-115,11,27,1,-4,-54
33.185,-5,-3,55,-56,49,7,5,49
33.19,-6,-20,-8,28,-47,-11,0,-28
33.195,-74,-71,-21,-23,9,-17,-11,-51
33.2,84,32,56,6,-38,-20,-33,90
33.205,-21,-14,39,22,-7,-11,-15,-84
33.21,83,31,-29,-26,41,26,27,83
33.215,5,22,-30,-17,-7,-3,1,106
33.22,-119,-62,-32,-11,-6,0,6,-61
33.225,115,17,-70,-32,31,17,17,41
33.23,-114,-29,83,51,-64,-17,-26,-28
33.235,-59,-25,-7,-21,13,2,5,-46
33.24,72,46,48,31,29,6,9,17
33.245,77,18,34,-30,-17,1,14,43
33.25,-53,4,-78,27,-32,2,-9,0
33.255,-70,-48,-29,-15,-11,-18,-31,-34
33.26,69,16,2,-25,16,-6,-6,-11
33.265,-6,-26,46,29,-25,-11,2,-5
33.27,127,52,25,-21,35,18,23,73
33.275,-38,23,28,13,-8,4,7,32
33.28,73,11,-27,1,2,4,-4,-64
33.285,-128,-57,-15,-7,-32,-19,-37,-72
33.29,87,-3,-6,-25,20,-7,-1,18
33.295,113,29,15,-3,2,11,11,10
33.3,18,7,-9,-51,-40,3,8,35
33.305,-9,25,4,20,-5,1,-3,20
33.31,-128,-80,-36,-35,3,-23,-27,-116
33.315,41,5,-1,20,-7,0,13,-19
33.32,2,9,8,1,17,5,13,57
33.325,3,2,31,14,-13,-10,-5,15
33.33,57,-5,-31,-9,4,10,5,22
33.335,68,55,16,-21,17,1,-10,21
33.34,-102,-72,-12,-6,-18,-7,-16,-50
33.345,38,1,-1,7,-6,-12,1,-13
33.35,69,4,-2,2,29,4,6,-5
33.355,-36,22,16,3,-9,4,7,24
33.36,10,22,8,5,6,-2,-5,5
33.365,-60,-21,-10,15,-15,-4,-7,-29
33.37,-3,7,-5,-17,-1,-1,4,11
33.375,77,-5,-33,-10,9,-1,-1,4
33.38,-4,24,6,40,25,7,3,12
33.385,-42,23,-38,-12,-3,-1,0,20
33.39,28,-2,-25,-3,4,-6,-5,-16
33.395,-6,-6,5,-1,-4,-4,-5,-19
33.4,18,16,13,5,21,0,7,2
33.405,33,9,-1,12,-5,4,7,21
33.41,-57,-26,2,-11,-3,-4,-7,-6
33.415,48,0,2,0,-2,7,-2,-17
33.42,57,25,13,-2,2,5,15,33
33.425,-78,-43,-12,1,-7,-3,-7,-18
33.43,-33,-26,6,-16,-14,-10,-13,-25
33.435,107,2,2,5,1,1,13,30
33.44,-44,2,-2,-11,-10,-1,-3,5
33.445,41,26,-3,-7,14,-5,-13,-39
33.45,14,-13,-9,27,-1,4,5,10
33.455,-110,-17,16,3,-7,-7,-6,-9
33.46,67,18,-5,-1,2,-3,3,6
33.465,2,2,0,0,5,6,6,8
33.47,-3,5,4,-4,1,-3,-2,5
33.475,30,11,-13,5,-8,0,-3,-5
33.48,-23,-9,36,-3,-7,-11,-4,-7
33.485,17,-6,-15,3,-1,5,9,12
33.49,17,24,6,-3,6,0,2,3
33.495,-20,-11,-4,2,-8,2,-5,0
33.5,6,-7,6,11,5,-4,-12,-11
33.505,-13,-8,18,14,-10,-4,-1,2
33.51,13,7,-36,-39,-1,-3,5,10
33.515,-24,-10,-21,12,1,-1,-3,-13
33.52,-3,17,13,11,3,15,14,-4
33.525,12,-31,-46,-36,-15,-10,26,50
33.53,-23,11,102,31,-2,-6,-70,-26
33.535,-30,-6,-50,6,1,-4,-17,-47
33.54,-63,-26,49,-21,-9,-20,-47,-41
33.545,9,18,-39,32,4,9,24,10
33.55,-31,-12,-37,36,2,-2,21,3
33.555,36,-19,84,-1,-14,-8,13,34
33.56,24,43,-13,60,27,31,36,44
33.565,-38,-23,60,-24,-19,-13,-41,-54
33.57,-27,5,0,-14,9,5,18,-1
33.575,15,9,3,12,2,1,-11,-2
33.58,27,-3,6,41,-1,1,5,9
33.585,41,48,76,127,36,23,24,36
33.59,-15,-43,-128,-117,-33,-23,-26,-23
33.595,-3,2,46,-37,-4,-1,15,8
33.6,-5,-9,-7,-10,-8,-6,-4,1
33.605,6,4,1,42,-2,-4,-18,-12
33.61,-1,26,78,76,23,14,15,-1
33.615,-1,5,-74,30,14,7,6,5
33.62,-23,-47,-27,-116,-41,-27,-15,-10
33.625,0,1,-16,1,-1,-2,-7,-18
33.63,-1,-5,19,-20,-3,-1,10,11
33.635,1,-4,-50,-21,-8,2,-2,2
33.64,0,6,24,14,-6,-5,-7,-2
33.645,-9,-13,-65,-22,-6,-3,2,-7
33.65,-3,5,45,30,13,11,1,-1
33.655,13,16,-7,35,3,4,0,8
33.66,0,-4,18,52,13,1,9,-7
33.665,6,-2,33,-11,-12,-7,-9,1
33.67,23,-5,-25,-39,-10,-8,0,14
33.675,-11,19,18,43,16,15,6,-12
33.68,-14,-18,-45,-16,-6,-3,-2,0
33.685,9,-1,-24,-12,-3,-5,-4,7
33.69,-7,7,10,-17,7,4,5,-14
33.695,-6,-32,81,-45,-40,-22,-12,23
33.7,6,-1,-21,43,-1,-6,-3,-3
33.705,-11,12,4,47,17,9,4,-17
33.71,0,4,-1,-18,1,6,5,13
33.715,-2,8,22,45,-4,-6,-5,-5
33.72,-4,-14,-83,-25,-1,3,-2,-5
33.725,12,2,-26,-59,-3,-2,-5,16
33.73,-61,-16,-9,-15,-10,-11,-11,-45
33.735,10,-21,34,-64,-15,-13,-6,-19
33.74,-18,-3,-94,40,10,8,1,7
33.745,3,-9,39,-33,-7,-4,1,-6
33.75,32,27,24,58,17,7,9,18
33.755,-18,-21,-76,-53,-2,-1,-8,3
33.76,-1,31,108,15,2,-1,0,-8
33.765,-14,-21,-23,-21,-5,1,2,0
33.77,14,-9,-23,71,4,0,1,-2
33.775,-14,10,3,-36,4,-1,0,-8
33.78,27,25,41,34,9,10,8,11
33.785,-11,-41,-13,-43,-24,-13,-15,-9
33.79,3,1,56,56,2,-2,-1,1
33.795,20,34,82,104,18,5,11,0
33.8,17,-6,-64,-98,-26,-9,-7,21
33.805,-57,-27,-8,-2,-4,-14,-17,-34
33.81,15,3,-16,-34,-7,2,3,4
33.815,3,1,4,17,16,9,5,5
33.82,3,-1,19,16,0,-3,1,-3
33.825,10,15,-26,39,10,7,5,10
33.83,-5,-10,-48,-30,-9,-1,-3,2
33.835,3,4,77,-21,1,2,1,-1
33.84,-21,-23,-29,-27,-19,-13,-8,-9
33.845,19,1,-5,-33,-2,-2,-2,-3
33.85,19,25,19,60,11,6,5,5
33.855,-16,-15,-42,48,8,0,2,-2
33.86,-3,4,18,-58,10,4,-1,-4
33.865,-9,-4,9,-4,-16,-3,-4,-3
33.87,15,3,-76,-47,6,13,7,7
33.875,-12,-9,65,19,-19,-22,-8,-3
33.88,-3,1,25,25,5,2,2,-2
33.885,11,21,30,50,11,3,4,4
33.89,-9,-6,-40,9,-1,-1,-3,3
33.895,4,7,-4,48,6,5,-2,-2
33.9,4,1,-19,22,1,2,1,-7
33.905,-12,-32,-51,-82,-28,-10,-7,19
33.91,-18,-14,57,30,-11,-17,-14,-42
33.915,9,12,1,17,9,3,5,0
33.92,1,7,28,26,19,4,2,-1
33.925,0,1,-23,5,-30,7,4,9
33.93,-9,-13,15,-15,-3,-5,-4,5
33.935,0,-2,-13,-1,-2,1,-4,-6
33.94,-5,-12,-10,-57,-12,-10,-2,-6
33.945,-3,12,-1,-4,9,-3,0,-7
33.95,-6,-5,16,1,0,3,4,10
33.955,16,21,-30,0,28,6,3,-5
33.96,-4,-9,-7,-13,-28,-1,-4,4
33.965,-7,-4,25,46,-7,2,-3,-3
33.97,-15,-5,85,71,4,-1,-2,0
33.975,-5,-29,-91,-85,-27,-18,-10,-4
33.98,4,12,24,38,22,4,9,1
33.985,27,12,-22,4,30,3,2,-1
33.99,36,7,21,23,-33,3,1,11
33.995,-73,-20,-33,-37,-8,-7,-10,-12
34,-51,-30,-9,-31,-23,-15,-11,-14
34.005,20,21,80,53,17,3,11,4
34.01,18,2,-37,-30,25,9,12,12
34.015,70,18,11,-9,25,8,7,19
34.02,71,8,-13,11,-43,4,-12,11
34.025,-107,-30,-51,-8,-5,-16,-7,-41
34.03,-46,-22,-2,-36,-6,-15,-19,-11
34.035,34,-8,-5,-27,-17,-4,0,-3
34.04,32,5,-15,17,49,16,16,19
34.045,61,22,-5,10,-13,9,2,34
34.05,-18,-5,46,-8,-41,-14,-15,-38
34.055,-25,0,-20,3,11,6,28,27
34.06,-12,6,41,45,10,-4,-21,-2
34.065,-21,-9,11,-44,1,-6,-14,-46
34.07,-16,-11,-90,-27,0,-13,-31,-3
34.075,0,0,56,20,-10,9,-1,0
34.08,-9,8,18,-4,10,3,19,13
34.085,-4,-9,4,4,-2,-3,6,9
34.09,13,12,23,9,-2,0,7,9
34.095,8,-7,-10,-6,-4,-5,-2,-14
34.1,-25,-11,-57,-10,18,-1,3,-7
34.105,7,8,44,14,-23,1,-6,4
34.11,36,8,-23,-9,6,4,7,10
34.115,17,1,-10,7,-8,0,-1,12
34.12,-79,-11,24,4,-2,-3,-3,-2
34.125,25,9,0,14,18,-4,-17,-30
34.13,-26,-5,-10,-26,-18,-3,1,-6
34.135,13,4,-19,-1,4,8,10,-3
34.14,-2,-15,4,10,-9,-11,-13,14
34.145,13,1,6,-9,5,-6,-7,-11
34.15,22,5,4,7,16,5,15,26
34.155,21,16,13,15,-11,10,15,23
34.16,22,6,-20,-9,5,10,8,89
34.165,-98,-42,0,-6,-32,-26,-35,-57
34.17,15,11,34,0,16,-4,-4,-54
34.175,9,-17,-64,7,-5,-10,-11,12
34.18,2,12,14,-5,1,5,11,-13
34.185,117,36,20,10,19,21,36,74
34.19,-38,-4,-13,0,-9,1,0,52
34.195,-105,-62,15,-7,-7,-10,-19,-36
34.2,81,3,-31,-14,-16,-19,-32,-108
34.205,-12,31,25,-9,16,1,10,27
34.21,-58,-30,-21,-12,6,4,15,26
34.215,116,42,1,7,9,14,16,58
34.22,4,18,10,6,-18,2,0,45
34.225,-69,-46,-16,-22,1,-12,-15,-59
34.23,127,67,37,15,15,6,24,13
34.235,33,-9,11,-4,23,11,8,98
34.24,-26,-6,-46,25,-4,-11,-47,-96
34.245,74,23,0,6,-24,12,14,38
34.25,-119,-30,5,-5,-7,-15,-31,-1
34.255,-43,-12,17,-5,9,-5,-4,-26
34.26,-44,-15,-7,3,-6,-6,20,50
34.265,-127,-37,-11,6,10,6,19,69
34.27,52,1,-26,-47,10,0,1,-91
34.275,127,47,4,30,-17,6,6,27
34.28,18,-37,3,-17,-5,11,8,65
34.285,-4,-6,-9,-18,-7,-5,-4,-14
34.29,92,57,18,19,13,4,6,82
34.295,-79,23,-16,-9,-17,-21,-48,-69
34.3,88,4,24,-11,-2,0,-3,10
34.305,-67,-73,-31,-39,-8,-27,-56,2
34.31,123,55,13,45,28,21,41,127
34.315,-60,-50,-18,-45,-28,-11,16,65
34.32,48,18,47,52,-9,11,13,35
34.325,-23,-5,-29,-35,54,-2,-16,-66
34.33,25,-3,-4,67,-74,-11,-6,-55
34.335,-95,-41,5,-8,30,-10,-9,23
34.34,-70,-16,14,-23,-39,-4,10,-12
34.345,69,68,5,-4,15,13,3,-26
34.35,30,-3,-11,-14,19,3,13,96
34.355,-50,-77,-23,9,13,6,-17,-63
34.36,-80,-3,0,-24,-23,-27,-20,-41
34.365,127,39,49,-8,14,7,27,110
34.37,-128,-89,-34,-4,-13,0,-4,-34
34.375,127,78,15,7,11,12,7,9
34.38,-101,-35,4,1,20,-6,-14,-26
34.385,-20,8,-40,6,-31,4,11,21
34.39,68,-8,29,-16,9,-5,4,-1
34.395,-44,14,-1,3,-10,-1,-1,5
34.4,64,-37,-12,3,17,2,-10,-87
34.405,-20,-10,3,16,-18,3,11,15
34.41,-62,-7,-12,-17,0,-1,-3,-13
34.415,-48,-14,7,-14,-24,-15,-32,-63
34.42,27,32,17,6,4,11,20,49
34.425,5,-12,-15,20,4,12,26,-2
34.43,-3,-1,30,-2,0,-4,-23,6
34.435,47,43,-28,4,9,12,66,39
34.44,-62,-22,18,-18,-3,-11,-50,-1
34.445,19,7,-2,11,-1,6,-12,31
34.45,-11,11,-3,-28,0,-10,-34,-49
34.455,-21,-4,43,57,-1,-5,0,-32
34.46,-36,-15,-62,18,8,9,26,-9
34.465,-4,17,37,-61,-18,0,40,19
34.47,5,3,26,56,1,-1,-28,-25
34.475,21,11,24,105,22,7,-4,-5
34.48,17,23,-69,-51,-5,21,99,31
34.485,-96,-87,63,69,-48,-63,-105,-44
34.49,70,30,35,78,25,20,42,-5
34.495,-87,-42,44,-97,-30,-33,-66,-46
34.5,104,60,-24,5,43,42,104,82
34.505,-28,-17,-50,-43,-17,-9,-17,-10
34.51,-126,-99,-106,-128,-55,-64,-79,-90
34.515,44,38,74,126,15,9,27,-57
34.52,41,7,14,-17,-7,-10,12,52
34.525,64,21,0,45,22,32,56,20
34.53,-24,3,88,26,10,9,22,39
34.535,-7,-2,-117,-128,-18,-5,-34,22
34.54,-17,-9,127,-8,-12,-14,-50,-51
34.545,16,14,-24,-67,6,1,0,2
34.55,-5,23,-6,39,25,11,5,8
34.555,-32,-64,-11,-57,-65,-26,-4,18
34.56,13,11,-10,-6,3,-3,-15,-2
34.565,0,-6,-40,-6,-3,-3,-23,-14
34.57,6,23,49,72,19,14,17,12
34.575,15,16,1,24,20,6,21,15
34.58,-11,3,-7,63,7,-8,-37,-10
34.585,11,18,1,28,-3,-2,5,-5
34.59,-4,-39,-128,-128,-28,-4,14,-1
34.595,0,19,-22,16,13,18,4,10
34.6,-10,13,104,88,13,-7,-23,-10
34.605,3,-23,-36,-28,-34,-12,5,-3
34.61,15,9,20,119,12,7,7,3
34.615,-20,-26,16,-100,-44,-23,-19,-11
34.62,17,12,-14,85,31,10,0,7
34.625,3,21,21,20,11,8,11,0
34.63,-13,-12,8,9,-4,1,-6,0
34.635,15,11,-7,-5,20,9,8,10
34.64,-37,-9,11,-13,-3,-6,-9,-11
34.645,23,0,-1,36,11,1,4,0
34.65,-10,-10,-8,-69,-23,-6,-7,3
34.655,13,7,26,45,22,13,10,11
34.66,4,-6,7,1,-8,-4,-2,2
34.665,-4,6,-3,-3,12,0,4,4
34.67,5,19,38,2,15,8,5,1
34.675,8,6,-3,45,7,3,5,5
34.68,3,3,-23,-2,-13,-2,-8,1
34.685,-6,-21,16,-1,-16,-11,-9,-5
34.69,4,2,-22,1,4,1,8,-2
34.695,-7,-2,-10,-32,4,2,-3,3
34.7,-2,-1,17,4,-11,-12,-7,-7
34.705,13,16,12,45,21,9,7,2
34.71,-1,-3,-11,-25,-11,-5,-5,2
34.715,-2,-1,17,6,-8,-9,-1,-5
34.72,1,-1,-20,-27,12,0,-3,0
34.725,13,4,22,49,14,8,6,2
34.73,-16,-21,-32,-28,-38,-9,-6,0
34.735,-1,7,11,29,23,0,4,-1
34.74,-3,-9,-54,-19,-12,0,-4,1
34.745,1,-6,57,-19,-9,-9,-2,-5
34.75,-1,2,-7,-16,7,-3,-2,-1
34.755,-1,2,-6,10,-4,4,2,1
34.76,-2,-8,-16,-28,-3,-5,-2,-2
34.765,10,11,1,38,10,9,-1,-1
34.77,0,10,27,24,9,5,3,1
34.775,-4,-7,-21,-12,-14,-9,-1,-2
34.78,-6,-14,20,-29,-14,-9,-6,-5
34.785,4,12,21,-3,2,1,2,3
34.79,-3,-10,-48,-37,-6,-4,-1,-3
34.795,2,11,29,46,8,6,0,2
34.8,-1,0,-18,17,-1,3,1,0
34.805,-1,-2,-7,-21,-4,-1,-1,-2
34.81,0,0,8,24,1,-2,-1,-1
34.815,5,27,23,104,29,14,4,5
34.82,-6,-18,-60,-112,-30,-5,-7,-7
34.825,0,-11,79,9,-16,-16,-6,2
34.83,10,9,37,83,20,6,2,3
34.835,-5,-7,-20,15,-10,-3,0,-3
34.84,9,20,32,46,24,9,5,1
34.845,3,7,-38,-5,0,5,1,4
34.85,-8,-11,-32,-40,-13,-9,-6,-3
34.855,-3,-5,8,-50,-10,2,1,-1
34.86,-1,-7,2,-15,2,-9,0,0
34.865,-2,-3,-30,-7,3,2,3,-2
34.87,-2,-2,22,2,-5,-5,-3,-2
34.875,-4,-8,-36,-32,-8,-5,-7,-2
34.88,-5,-4,8,5,-3,-3,-5,0
34.885,-5,-1,-12,12,-4,-4,0,-2
34.89,0,8,-18,-28,9,8,2,5
34.895,-1,-6,25,-23,-12,-7,-4,-3
34.9,-3,-7,-9,-8,-9,-4,-4,-1
34.905,4,7,8,30,11,7,2,2
34.91,-5,-2,-8,-3,0,-3,-2,-1
34.915,-6,-10,-17,-29,-8,-4,-3,0
34.92,-3,-2,19,20,-8,2,0,1
34.925,2,4,-8,24,13,2,0,-2
34.93,-4,4,9,-9,-12,-6,0,-4
34.935,-1,-4,5,-10,-5,-7,-1,-2
34.94,1,4,-15,4,9,0,-1,3
34.945,2,-1,5,4,-4,1,0,-4
34.95,0,1,6,15,-2,2,-3,-3
