1.000000000000000021e-02,-3.000000000000000000e+00,0.000000000000000000e+00,3.000000000000000000e+00,-1.000000000000000000e+00,-4.000000000000000000e+00,-2.000000000000000000e+00,2.000000000000000000e+00,-1.000000000000000000e+00,-6.121826171875000000e-01,4.022216796875000000e-02,8.923339843750000000e-02,7.846069335937500000e-01,-1.748046875000000000e-01,-9.721679687500000000e-01,2.568359375000000000e-01,1.812500000000000000e+00,6.187500000000000000e+00,-1.500000000000000000e+00
1.499999999999999944e-02,-3.000000000000000000e+00,0.000000000000000000e+00,3.000000000000000000e+00,-1.000000000000000000e+00,-4.000000000000000000e+00,-2.000000000000000000e+00,2.000000000000000000e+00,-1.000000000000000000e+00,-6.120605468750000000e-01,4.095458984375000000e-02,8.831787109375000000e-02,7.847900390625000000e-01,-1.728515625000000000e-01,-9.716796875000000000e-01,2.539062500000000000e-01,1.750000000000000000e+00,6.500000000000000000e+00,-1.375000000000000000e+00
2.000000000000000042e-02,-3.000000000000000000e+00,0.000000000000000000e+00,3.000000000000000000e+00,-1.000000000000000000e+00,-4.000000000000000000e+00,-2.000000000000000000e+00,2.000000000000000000e+00,-1.000000000000000000e+00,-6.120605468750000000e-01,4.095458984375000000e-02,8.831787109375000000e-02,7.847900390625000000e-01,-1.728515625000000000e-01,-9.716796875000000000e-01,2.539062500000000000e-01,1.750000000000000000e+00,6.500000000000000000e+00,-1.375000000000000000e+00
2.500000000000000139e-02,-6.000000000000000000e+00,-2.000000000000000000e+00,-1.000000000000000000e+00,1.000000000000000000e+00,3.000000000000000000e+00,2.000000000000000000e+00,0.000000000000000000e+00,-3.000000000000000000e+00,-6.120605468750000000e-01,4.095458984375000000e-02,8.831787109375000000e-02,7.847900390625000000e-01,-1.728515625000000000e-01,-9.716796875000000000e-01,2.539062500000000000e-01,1.750000000000000000e+00,6.500000000000000000e+00,-1.375000000000000000e+00
2.999999999999999889e-02,-3.000000000000000000e+00,2.000000000000000000e+00,-1.000000000000000000e+00,-4.000000000000000000e+00,-4.000000000000000000e+00,-1.000000000000000000e+00,-4.000000000000000000e+00,-2.000000000000000000e+00,-6.120605468750000000e-01,4.095458984375000000e-02,8.831787109375000000e-02,7.847900390625000000e-01,-1.728515625000000000e-01,-9.716796875000000000e-01,2.539062500000000000e-01,1.750000000000000000e+00,6.500000000000000000e+00,-1.375000000000000000e+00
3.500000000000000333e-02,-3.000000000000000000e+00,2.000000000000000000e+00,-1.000000000000000000e+00,-4.000000000000000000e+00,-4.000000000000000000e+00,-1.000000000000000000e+00,-4.000000000000000000e+00,-2.000000000000000000e+00,-6.120605468750000000e-01,4.095458984375000000e-02,8.831787109375000000e-02,7.847900390625000000e-01,-1.728515625000000000e-01,-9.716796875000000000e-01,2.539062500000000000e-01,1.750000000000000000e+00,6.500000000000000000e+00,-1.375000000000000000e+00
4.000000000000000083e-02,-3.000000000000000000e+00,2.000000000000000000e+00,-1.000000000000000000e+00,-4.000000000000000000e+00,-4.000000000000000000e+00,-1.000000000000000000e+00,-4.000000000000000000e+00,-2.000000000000000000e+00,-6.120605468750000000e-01,4.095458984375000000e-02,8.831787109375000000e-02,7.847900390625000000e-01,-1.728515625000000000e-01,-9.716796875000000000e-01,2.539062500000000000e-01,1.750000000000000000e+00,6.500000000000000000e+00,-1.375000000000000000e+00
4.499999999999999833e-02,-3.000000000000000000e+00,2.000000000000000000e+00,-1.000000000000000000e+00,-4.000000000000000000e+00,-4.000000000000000000e+00,-1.000000000000000000e+00,-4.000000000000000000e+00,-2.000000000000000000e+00,-6.120605468750000000e-01,4.095458984375000000e-02,8.831787109375000000e-02,7.847900390625000000e-01,-1.728515625000000000e-01,-9.716796875000000000e-01,2.539062500000000000e-01,1.750000000000000000e+00,6.500000000000000000e+00,-1.375000000000000000e+00
4.999999999999989869e-02,-3.000000000000000000e+00,-1.000000000000000000e+00,3.000000000000000000e+00,-1.000000000000000000e+00,-4.000000000000000000e+00,-4.000000000000000000e+00,-3.000000000000000000e+00,-1.000000000000000000e+00,-6.118774414062500000e-01,4.168701171875000000e-02,8.740234375000000000e-02,7.850341796875000000e-01,-1.748046875000000000e-01,-9.697265625000000000e-01,2.568359375000000000e-01,1.937500000000000000e+00,6.500000000000000000e+00,-1.375000000000000000e+00
5.499999999999990313e-02,-1.000000000000000000e+00,-1.000000000000000000e+00,3.000000000000000000e+00,-2.000000000000000000e+00,4.000000000000000000e+00,0.000000000000000000e+00,1.000000000000000000e+00,-1.000000000000000000e+00,-6.118774414062500000e-01,4.168701171875000000e-02,8.740234375000000000e-02,7.850341796875000000e-01,-1.748046875000000000e-01,-9.697265625000000000e-01,2.568359375000000000e-01,1.937500000000000000e+00,6.500000000000000000e+00,-1.375000000000000000e+00
5.999999999999990064e-02,-1.000000000000000000e+00,-1.000000000000000000e+00,3.000000000000000000e+00,-2.000000000000000000e+00,4.000000000000000000e+00,0.000000000000000000e+00,1.000000000000000000e+00,-1.000000000000000000e+00,-6.118774414062500000e-01,4.168701171875000000e-02,8.740234375000000000e-02,7.850341796875000000e-01,-1.748046875000000000e-01,-9.697265625000000000e-01,2.568359375000000000e-01,1.937500000000000000e+00,6.500000000000000000e+00,-1.375000000000000000e+00
6.499999999999990508e-02,-1.000000000000000000e+00,-1.000000000000000000e+00,3.000000000000000000e+00,-2.000000000000000000e+00,4.000000000000000000e+00,0.000000000000000000e+00,1.000000000000000000e+00,-1.000000000000000000e+00,-6.118164062500000000e-01,4.254150390625000000e-02,8.648681640625000000e-02,7.850952148437500000e-01,-1.796875000000000000e-01,-9.711914062500000000e-01,2.504882812500000000e-01,1.250000000000000000e+00,6.625000000000000000e+00,-1.625000000000000000e+00
6.999999999999989564e-02,-1.000000000000000000e+00,-1.000000000000000000e+00,3.000000000000000000e+00,-2.000000000000000000e+00,4.000000000000000000e+00,0.000000000000000000e+00,1.000000000000000000e+00,-1.000000000000000000e+00,-6.118164062500000000e-01,4.254150390625000000e-02,8.648681640625000000e-02,7.850952148437500000e-01,-1.796875000000000000e-01,-9.711914062500000000e-01,2.504882812500000000e-01,1.250000000000000000e+00,6.625000000000000000e+00,-1.625000000000000000e+00
7.499999999999999722e-02,0.000000000000000000e+00,-2.000000000000000000e+00,-6.000000000000000000e+00,-6.000000000000000000e+00,-5.000000000000000000e+00,-2.000000000000000000e+00,-1.000000000000000000e+00,-1.000000000000000000e+00,-6.118164062500000000e-01,4.254150390625000000e-02,8.648681640625000000e-02,7.850952148437500000e-01,-1.796875000000000000e-01,-9.711914062500000000e-01,2.504882812500000000e-01,1.250000000000000000e+00,6.625000000000000000e+00,-1.625000000000000000e+00
8.000000000000000167e-02,0.000000000000000000e+00,-2.000000000000000000e+00,-6.000000000000000000e+00,-6.000000000000000000e+00,-5.000000000000000000e+00,-2.000000000000000000e+00,-1.000000000000000000e+00,-1.000000000000000000e+00,-6.118164062500000000e-01,4.254150390625000000e-02,8.648681640625000000e-02,7.850952148437500000e-01,-1.796875000000000000e-01,-9.711914062500000000e-01,2.504882812500000000e-01,1.250000000000000000e+00,6.625000000000000000e+00,-1.625000000000000000e+00
8.500000000000000611e-02,-1.000000000000000000e+00,0.000000000000000000e+00,3.000000000000000000e+00,1.000000000000000000e+00,0.000000000000000000e+00,-1.000000000000000000e+00,-1.000000000000000000e+00,0.000000000000000000e+00,-6.118164062500000000e-01,4.254150390625000000e-02,8.648681640625000000e-02,7.850952148437500000e-01,-1.796875000000000000e-01,-9.711914062500000000e-01,2.504882812500000000e-01,1.250000000000000000e+00,6.625000000000000000e+00,-1.625000000000000000e+00
8.999999999999999667e-02,-1.000000000000000000e+00,0.000000000000000000e+00,3.000000000000000000e+00,1.000000000000000000e+00,0.000000000000000000e+00,-1.000000000000000000e+00,-1.000000000000000000e+00,0.000000000000000000e+00,-6.118164062500000000e-01,4.254150390625000000e-02,8.648681640625000000e-02,7.850952148437500000e-01,-1.796875000000000000e-01,-9.711914062500000000e-01,2.504882812500000000e-01,1.250000000000000000e+00,6.625000000000000000e+00,-1.625000000000000000e+00
9.500000000000000111e-02,-1.000000000000000000e+00,0.000000000000000000e+00,3.000000000000000000e+00,1.000000000000000000e+00,0.000000000000000000e+00,-1.000000000000000000e+00,-1.000000000000000000e+00,0.000000000000000000e+00,-6.115722656250000000e-01,4.333496093750000000e-02,8.557128906250000000e-02,7.853393554687500000e-01,-1.826171875000000000e-01,-9.667968750000000000e-01,2.558593750000000000e-01,2.187500000000000000e+00,6.500000000000000000e+00,-1.937500000000000000e+00
1.000000000000000056e-01,-1.000000000000000000e+00,0.000000000000000000e+00,3.000000000000000000e+00,1.000000000000000000e+00,0.000000000000000000e+00,-1.000000000000000000e+00,-1.000000000000000000e+00,0.000000000000000000e+00,-6.115722656250000000e-01,4.333496093750000000e-02,8.557128906250000000e-02,7.853393554687500000e-01,-1.826171875000000000e-01,-9.667968750000000000e-01,2.558593750000000000e-01,2.187500000000000000e+00,6.500000000000000000e+00,-1.937500000000000000e+00
1.049999999999999961e-01,-2.000000000000000000e+00,-1.000000000000000000e+00,0.000000000000000000e+00,-8.000000000000000000e+00,-6.000000000000000000e+00,-2.000000000000000000e+00,0.000000000000000000e+00,-1.000000000000000000e+00,-6.115722656250000000e-01,4.333496093750000000e-02,8.557128906250000000e-02,7.853393554687500000e-01,-1.826171875000000000e-01,-9.667968750000000000e-01,2.558593750000000000e-01,2.187500000000000000e+00,6.500000000000000000e+00,-1.937500000000000000e+00
1.100000000000000006e-01,-2.000000000000000000e+00,-1.000000000000000000e+00,0.000000000000000000e+00,-8.000000000000000000e+00,-6.000000000000000000e+00,-2.000000000000000000e+00,0.000000000000000000e+00,-1.000000000000000000e+00,-6.115722656250000000e-01,4.333496093750000000e-02,8.557128906250000000e-02,7.853393554687500000e-01,-1.826171875000000000e-01,-9.667968750000000000e-01,2.558593750000000000e-01,2.187500000000000000e+00,6.500000000000000000e+00,-1.937500000000000000e+00
1.150000000000000050e-01,-2.000000000000000000e+00,-1.000000000000000000e+00,0.000000000000000000e+00,-8.000000000000000000e+00,-6.000000000000000000e+00,-2.000000000000000000e+00,0.000000000000000000e+00,-1.000000000000000000e+00,-6.115722656250000000e-01,4.333496093750000000e-02,8.557128906250000000e-02,7.853393554687500000e-01,-1.826171875000000000e-01,-9.667968750000000000e-01,2.558593750000000000e-01,2.187500000000000000e+00,6.500000000000000000e+00,-1.937500000000000000e+00
1.199999999999999956e-01,-2.000000000000000000e+00,-1.000000000000000000e+00,0.000000000000000000e+00,-8.000000000000000000e+00,-6.000000000000000000e+00,-2.000000000000000000e+00,0.000000000000000000e+00,-1.000000000000000000e+00,-6.115722656250000000e-01,4.333496093750000000e-02,8.557128906250000000e-02,7.853393554687500000e-01,-1.826171875000000000e-01,-9.667968750000000000e-01,2.558593750000000000e-01,2.187500000000000000e+00,6.500000000000000000e+00,-1.937500000000000000e+00
1.250000000000000000e-01,0.000000000000000000e+00,-3.000000000000000000e+00,-7.000000000000000000e+00,-1.100000000000000000e+01,-4.000000000000000000e+00,-3.000000000000000000e+00,-3.000000000000000000e+00,-3.000000000000000000e+00,-6.114501953125000000e-01,4.406738281250000000e-02,8.459472656250000000e-02,7.854614257812500000e-01,-1.782226562500000000e-01,-9.663085937500000000e-01,2.558593750000000000e-01,1.187500000000000000e+00,6.937500000000000000e+00,-2.187500000000000000e+00
1.300000000000000044e-01,0.000000000000000000e+00,-3.000000000000000000e+00,-7.000000000000000000e+00,-1.100000000000000000e+01,-4.000000000000000000e+00,-3.000000000000000000e+00,-3.000000000000000000e+00,-3.000000000000000000e+00,-6.114501953125000000e-01,4.406738281250000000e-02,8.459472656250000000e-02,7.854614257812500000e-01,-1.782226562500000000e-01,-9.663085937500000000e-01,2.558593750000000000e-01,1.187500000000000000e+00,6.937500000000000000e+00,-2.187500000000000000e+00
1.350000000000000089e-01,0.000000000000000000e+00,-3.000000000000000000e+00,-7.000000000000000000e+00,-1.100000000000000000e+01,-4.000000000000000000e+00,-3.000000000000000000e+00,-3.000000000000000000e+00,-3.000000000000000000e+00,-6.114501953125000000e-01,4.406738281250000000e-02,8.459472656250000000e-02,7.854614257812500000e-01,-1.782226562500000000e-01,-9.663085937500000000e-01,2.558593750000000000e-01,1.187500000000000000e+00,6.937500000000000000e+00,-2.187500000000000000e+00
1.400000000000000133e-01,0.000000000000000000e+00,-3.000000000000000000e+00,-7.000000000000000000e+00,-1.100000000000000000e+01,-4.000000000000000000e+00,-3.000000000000000000e+00,-3.000000000000000000e+00,-3.000000000000000000e+00,-6.114501953125000000e-01,4.406738281250000000e-02,8.459472656250000000e-02,7.854614257812500000e-01,-1.782226562500000000e-01,-9.663085937500000000e-01,2.558593750000000000e-01,1.187500000000000000e+00,6.937500000000000000e+00,-2.187500000000000000e+00
1.449999999999999900e-01,-3.000000000000000000e+00,-1.000000000000000000e+00,4.000000000000000000e+00,8.000000000000000000e+00,1.000000000000000000e+00,1.000000000000000000e+00,2.000000000000000000e+00,0.000000000000000000e+00,-6.113891601562500000e-01,4.473876953125000000e-02,8.343505859375000000e-02,7.855834960937500000e-01,-1.762695312500000000e-01,-9.682617187500000000e-01,2.548828125000000000e-01,1.062500000000000000e+00,6.937500000000000000e+00,-2.937500000000000000e+00
1.499999999999999944e-01,-3.000000000000000000e+00,-1.000000000000000000e+00,4.000000000000000000e+00,8.000000000000000000e+00,1.000000000000000000e+00,1.000000000000000000e+00,2.000000000000000000e+00,0.000000000000000000e+00,-6.113891601562500000e-01,4.473876953125000000e-02,8.343505859375000000e-02,7.855834960937500000e-01,-1.762695312500000000e-01,-9.682617187500000000e-01,2.548828125000000000e-01,1.062500000000000000e+00,6.937500000000000000e+00,-2.937500000000000000e+00
1.549999999999999989e-01,1.100000000000000000e+01,-1.000000000000000000e+00,-6.000000000000000000e+00,-6.000000000000000000e+00,-3.000000000000000000e+00,-2.000000000000000000e+00,-2.000000000000000000e+00,-1.000000000000000000e+00,-6.113891601562500000e-01,4.473876953125000000e-02,8.343505859375000000e-02,7.855834960937500000e-01,-1.762695312500000000e-01,-9.682617187500000000e-01,2.548828125000000000e-01,1.062500000000000000e+00,6.937500000000000000e+00,-2.937500000000000000e+00
1.600000000000000033e-01,-1.000000000000000000e+00,-1.000000000000000000e+00,2.000000000000000000e+00,-1.000000000000000000e+00,2.000000000000000000e+00,-2.000000000000000000e+00,0.000000000000000000e+00,-2.000000000000000000e+00,-6.113891601562500000e-01,4.473876953125000000e-02,8.343505859375000000e-02,7.855834960937500000e-01,-1.762695312500000000e-01,-9.682617187500000000e-01,2.548828125000000000e-01,1.062500000000000000e+00,6.937500000000000000e+00,-2.937500000000000000e+00
1.650000000000000078e-01,-1.000000000000000000e+00,-1.000000000000000000e+00,2.000000000000000000e+00,-1.000000000000000000e+00,2.000000000000000000e+00,-2.000000000000000000e+00,0.000000000000000000e+00,-2.000000000000000000e+00,-6.113891601562500000e-01,4.473876953125000000e-02,8.343505859375000000e-02,7.855834960937500000e-01,-1.762695312500000000e-01,-9.682617187500000000e-01,2.548828125000000000e-01,1.062500000000000000e+00,6.937500000000000000e+00,-2.937500000000000000e+00
1.700000000000000122e-01,-1.000000000000000000e+00,-1.000000000000000000e+00,2.000000000000000000e+00,-1.000000000000000000e+00,2.000000000000000000e+00,-2.000000000000000000e+00,0.000000000000000000e+00,-2.000000000000000000e+00,-6.112670898437500000e-01,4.541015625000000000e-02,8.227539062500000000e-02,7.858276367187500000e-01,-1.733398437500000000e-01,-9.711914062500000000e-01,2.553710937500000000e-01,1.750000000000000000e+00,7.000000000000000000e+00,-2.937500000000000000e+00
1.749999999999999889e-01,-1.000000000000000000e+00,-1.000000000000000000e+00,2.000000000000000000e+00,-1.000000000000000000e+00,2.000000000000000000e+00,-2.000000000000000000e+00,0.000000000000000000e+00,-2.000000000000000000e+00,-6.112670898437500000e-01,4.541015625000000000e-02,8.227539062500000000e-02,7.858276367187500000e-01,-1.733398437500000000e-01,-9.711914062500000000e-01,2.553710937500000000e-01,1.750000000000000000e+00,7.000000000000000000e+00,-2.937500000000000000e+00
1.799999999999999933e-01,-1.000000000000000000e+00,-1.000000000000000000e+00,2.000000000000000000e+00,-1.000000000000000000e+00,2.000000000000000000e+00,-2.000000000000000000e+00,0.000000000000000000e+00,-2.000000000000000000e+00,-6.112670898437500000e-01,4.541015625000000000e-02,8.227539062500000000e-02,7.858276367187500000e-01,-1.733398437500000000e-01,-9.711914062500000000e-01,2.553710937500000000e-01,1.750000000000000000e+00,7.000000000000000000e+00,-2.937500000000000000e+00
1.849999999999999978e-01,-7.000000000000000000e+00,-2.000000000000000000e+00,7.000000000000000000e+00,1.000000000000000000e+00,-5.000000000000000000e+00,-5.000000000000000000e+00,-3.000000000000000000e+00,-4.000000000000000000e+00,-6.112670898437500000e-01,4.541015625000000000e-02,8.227539062500000000e-02,7.858276367187500000e-01,-1.733398437500000000e-01,-9.711914062500000000e-01,2.553710937500000000e-01,1.750000000000000000e+00,7.000000000000000000e+00,-2.937500000000000000e+00
1.900000000000000022e-01,-7.000000000000000000e+00,-2.000000000000000000e+00,7.000000000000000000e+00,1.000000000000000000e+00,-5.000000000000000000e+00,-5.000000000000000000e+00,-3.000000000000000000e+00,-4.000000000000000000e+00,-6.112670898437500000e-01,4.541015625000000000e-02,8.227539062500000000e-02,7.858276367187500000e-01,-1.733398437500000000e-01,-9.711914062500000000e-01,2.553710937500000000e-01,1.750000000000000000e+00,7.000000000000000000e+00,-2.937500000000000000e+00
1.950000000000000899e-01,-7.000000000000000000e+00,-2.000000000000000000e+00,7.000000000000000000e+00,1.000000000000000000e+00,-5.000000000000000000e+00,-5.000000000000000000e+00,-3.000000000000000000e+00,-4.000000000000000000e+00,-6.112670898437500000e-01,4.541015625000000000e-02,8.227539062500000000e-02,7.858276367187500000e-01,-1.733398437500000000e-01,-9.711914062500000000e-01,2.553710937500000000e-01,1.750000000000000000e+00,7.000000000000000000e+00,-2.937500000000000000e+00
2.000000000000000944e-01,-7.000000000000000000e+00,-2.000000000000000000e+00,7.000000000000000000e+00,1.000000000000000000e+00,-5.000000000000000000e+00,-5.000000000000000000e+00,-3.000000000000000000e+00,-4.000000000000000000e+00,-6.110229492187500000e-01,4.608154296875000000e-02,8.111572265625000000e-02,7.860717773437500000e-01,-1.733398437500000000e-01,-9.697265625000000000e-01,2.631835937500000000e-01,2.062500000000000000e+00,7.125000000000000000e+00,-2.812500000000000000e+00
2.050000000000000988e-01,0.000000000000000000e+00,1.000000000000000000e+00,4.000000000000000000e+00,1.000000000000000000e+01,1.000000000000000000e+00,0.000000000000000000e+00,3.000000000000000000e+00,1.000000000000000000e+00,-6.110229492187500000e-01,4.608154296875000000e-02,8.111572265625000000e-02,7.860717773437500000e-01,-1.733398437500000000e-01,-9.697265625000000000e-01,2.631835937500000000e-01,2.062500000000000000e+00,7.125000000000000000e+00,-2.812500000000000000e+00
2.100000000000001033e-01,-1.000000000000000000e+00,-1.000000000000000000e+00,-9.000000000000000000e+00,-7.000000000000000000e+00,1.000000000000000000e+00,-2.000000000000000000e+00,-3.000000000000000000e+00,0.000000000000000000e+00,-6.110229492187500000e-01,4.608154296875000000e-02,8.111572265625000000e-02,7.860717773437500000e-01,-1.733398437500000000e-01,-9.697265625000000000e-01,2.631835937500000000e-01,2.062500000000000000e+00,7.125000000000000000e+00,-2.812500000000000000e+00
2.150000000000001077e-01,-1.000000000000000000e+00,-1.000000000000000000e+00,-9.000000000000000000e+00,-7.000000000000000000e+00,1.000000000000000000e+00,-2.000000000000000000e+00,-3.000000000000000000e+00,0.000000000000000000e+00,-6.110229492187500000e-01,4.608154296875000000e-02,8.111572265625000000e-02,7.860717773437500000e-01,-1.733398437500000000e-01,-9.697265625000000000e-01,2.631835937500000000e-01,2.062500000000000000e+00,7.125000000000000000e+00,-2.812500000000000000e+00
2.200000000000001121e-01,-1.000000000000000000e+00,-1.000000000000000000e+00,-9.000000000000000000e+00,-7.000000000000000000e+00,1.000000000000000000e+00,-2.000000000000000000e+00,-3.000000000000000000e+00,0.000000000000000000e+00,-6.107788085937500000e-01,4.675292968750000000e-02,7.995605468750000000e-02,7.863769531250000000e-01,-1.733398437500000000e-01,-9.672851562500000000e-01,2.685546875000000000e-01,1.812500000000000000e+00,7.187500000000000000e+00,-2.937500000000000000e+00
2.250000000000000888e-01,-1.000000000000000000e+00,-1.000000000000000000e+00,-9.000000000000000000e+00,-7.000000000000000000e+00,1.000000000000000000e+00,-2.000000000000000000e+00,-3.000000000000000000e+00,0.000000000000000000e+00,-6.107788085937500000e-01,4.675292968750000000e-02,7.995605468750000000e-02,7.863769531250000000e-01,-1.733398437500000000e-01,-9.672851562500000000e-01,2.685546875000000000e-01,1.812500000000000000e+00,7.187500000000000000e+00,-2.937500000000000000e+00
2.300000000000000933e-01,-2.000000000000000000e+00,-2.000000000000000000e+00,6.000000000000000000e+00,-1.000000000000000000e+00,-5.000000000000000000e+00,0.000000000000000000e+00,-2.000000000000000000e+00,0.000000000000000000e+00,-6.107788085937500000e-01,4.675292968750000000e-02,7.995605468750000000e-02,7.863769531250000000e-01,-1.733398437500000000e-01,-9.672851562500000000e-01,2.685546875000000000e-01,1.812500000000000000e+00,7.187500000000000000e+00,-2.937500000000000000e+00
2.350000000000000977e-01,-2.000000000000000000e+00,-2.000000000000000000e+00,6.000000000000000000e+00,-1.000000000000000000e+00,-5.000000000000000000e+00,0.000000000000000000e+00,-2.000000000000000000e+00,0.000000000000000000e+00,-6.107788085937500000e-01,4.675292968750000000e-02,7.995605468750000000e-02,7.863769531250000000e-01,-1.733398437500000000e-01,-9.672851562500000000e-01,2.685546875000000000e-01,1.812500000000000000e+00,7.187500000000000000e+00,-2.937500000000000000e+00
2.400000000000001021e-01,-1.000000000000000000e+00,3.000000000000000000e+00,-6.000000000000000000e+00,0.000000000000000000e+00,7.000000000000000000e+00,2.000000000000000000e+00,0.000000000000000000e+00,-2.000000000000000000e+00,-6.107788085937500000e-01,4.675292968750000000e-02,7.995605468750000000e-02,7.863769531250000000e-01,-1.733398437500000000e-01,-9.672851562500000000e-01,2.685546875000000000e-01,1.812500000000000000e+00,7.187500000000000000e+00,-2.937500000000000000e+00
2.450000000000001066e-01,-1.000000000000000000e+00,3.000000000000000000e+00,-6.000000000000000000e+00,0.000000000000000000e+00,7.000000000000000000e+00,2.000000000000000000e+00,0.000000000000000000e+00,-2.000000000000000000e+00,-6.107788085937500000e-01,4.675292968750000000e-02,7.995605468750000000e-02,7.863769531250000000e-01,-1.733398437500000000e-01,-9.672851562500000000e-01,2.685546875000000000e-01,1.812500000000000000e+00,7.187500000000000000e+00,-2.937500000000000000e+00
2.500000000000001110e-01,-1.000000000000000000e+00,3.000000000000000000e+00,-6.000000000000000000e+00,0.000000000000000000e+00,7.000000000000000000e+00,2.000000000000000000e+00,0.000000000000000000e+00,-2.000000000000000000e+00,-6.107788085937500000e-01,4.748535156250000000e-02,7.879638671875000000e-02,7.864379882812500000e-01,-1.733398437500000000e-01,-9.711914062500000000e-01,2.558593750000000000e-01,5.625000000000000000e-01,7.125000000000000000e+00,-2.812500000000000000e+00
2.550000000000001155e-01,-1.000000000000000000e+00,3.000000000000000000e+00,-6.000000000000000000e+00,0.000000000000000000e+00,7.000000000000000000e+00,2.000000000000000000e+00,0.000000000000000000e+00,-2.000000000000000000e+00,-6.107788085937500000e-01,4.748535156250000000e-02,7.879638671875000000e-02,7.864379882812500000e-01,-1.733398437500000000e-01,-9.711914062500000000e-01,2.558593750000000000e-01,5.625000000000000000e-01,7.125000000000000000e+00,-2.812500000000000000e+00
2.600000000000001199e-01,-1.000000000000000000e+00,-5.000000000000000000e+00,-8.000000000000000000e+00,0.000000000000000000e+00,-3.000000000000000000e+00,-2.000000000000000000e+00,-4.000000000000000000e+00,-2.000000000000000000e+00,-6.107788085937500000e-01,4.748535156250000000e-02,7.879638671875000000e-02,7.864379882812500000e-01,-1.733398437500000000e-01,-9.711914062500000000e-01,2.558593750000000000e-01,5.625000000000000000e-01,7.125000000000000000e+00,-2.812500000000000000e+00
2.650000000000001243e-01,1.000000000000000000e+00,-2.000000000000000000e+00,-1.000000000000000000e+00,-1.000000000000000000e+00,-6.000000000000000000e+00,-2.000000000000000000e+00,-2.000000000000000000e+00,-1.000000000000000000e+00,-6.107788085937500000e-01,4.748535156250000000e-02,7.879638671875000000e-02,7.864379882812500000e-01,-1.733398437500000000e-01,-9.711914062500000000e-01,2.558593750000000000e-01,5.625000000000000000e-01,7.125000000000000000e+00,-2.812500000000000000e+00
2.700000000000000733e-01,1.000000000000000000e+00,-2.000000000000000000e+00,-1.000000000000000000e+00,-1.000000000000000000e+00,-6.000000000000000000e+00,-2.000000000000000000e+00,-2.000000000000000000e+00,-1.000000000000000000e+00,-6.107788085937500000e-01,4.748535156250000000e-02,7.879638671875000000e-02,7.864379882812500000e-01,-1.733398437500000000e-01,-9.711914062500000000e-01,2.558593750000000000e-01,5.625000000000000000e-01,7.125000000000000000e+00,-2.812500000000000000e+00
2.750000000000000777e-01,1.000000000000000000e+00,-2.000000000000000000e+00,-1.000000000000000000e+00,-1.000000000000000000e+00,-6.000000000000000000e+00,-2.000000000000000000e+00,-2.000000000000000000e+00,-1.000000000000000000e+00,-6.107788085937500000e-01,4.748535156250000000e-02,7.879638671875000000e-02,7.864379882812500000e-01,-1.733398437500000000e-01,-9.711914062500000000e-01,2.558593750000000000e-01,5.625000000000000000e-01,7.125000000000000000e+00,-2.812500000000000000e+00
2.800000000000000822e-01,1.000000000000000000e+00,-2.000000000000000000e+00,-1.000000000000000000e+00,-1.000000000000000000e+00,-6.000000000000000000e+00,-2.000000000000000000e+00,-2.000000000000000000e+00,-1.000000000000000000e+00,-6.107788085937500000e-01,4.748535156250000000e-02,7.879638671875000000e-02,7.864379882812500000e-01,-1.733398437500000000e-01,-9.711914062500000000e-01,2.558593750000000000e-01,5.625000000000000000e-01,7.125000000000000000e+00,-2.812500000000000000e+00
2.850000000000000866e-01,-2.000000000000000000e+00,2.000000000000000000e+00,3.000000000000000000e+00,4.000000000000000000e+00,6.000000000000000000e+00,-1.000000000000000000e+00,0.000000000000000000e+00,0.000000000000000000e+00,-6.107788085937500000e-01,4.821777343750000000e-02,7.763671875000000000e-02,7.864990234375000000e-01,-1.757812500000000000e-01,-9.755859375000000000e-01,2.558593750000000000e-01,6.875000000000000000e-01,7.375000000000000000e+00,-2.562500000000000000e+00
2.900000000000000910e-01,-2.000000000000000000e+00,-4.000000000000000000e+00,3.000000000000000000e+00,1.000000000000000000e+00,-5.000000000000000000e+00,-4.000000000000000000e+00,-1.000000000000000000e+00,-1.000000000000000000e+00,-6.107788085937500000e-01,4.821777343750000000e-02,7.763671875000000000e-02,7.864990234375000000e-01,-1.757812500000000000e-01,-9.755859375000000000e-01,2.558593750000000000e-01,6.875000000000000000e-01,7.375000000000000000e+00,-2.562500000000000000e+00
2.950000000000000955e-01,-2.000000000000000000e+00,-4.000000000000000000e+00,3.000000000000000000e+00,1.000000000000000000e+00,-5.000000000000000000e+00,-4.000000000000000000e+00,-1.000000000000000000e+00,-1.000000000000000000e+00,-6.107788085937500000e-01,4.821777343750000000e-02,7.763671875000000000e-02,7.864990234375000000e-01,-1.757812500000000000e-01,-9.755859375000000000e-01,2.558593750000000000e-01,6.875000000000000000e-01,7.375000000000000000e+00,-2.562500000000000000e+00
3.000000000000000999e-01,-2.000000000000000000e+00,-4.000000000000000000e+00,3.000000000000000000e+00,1.000000000000000000e+00,-5.000000000000000000e+00,-4.000000000000000000e+00,-1.000000000000000000e+00,-1.000000000000000000e+00,-6.106567382812500000e-01,4.901123046875000000e-02,7.647705078125000000e-02,7.866821289062500000e-01,-1.762695312500000000e-01,-9.755859375000000000e-01,2.568359375000000000e-01,1.750000000000000000e+00,7.562500000000000000e+00,-2.437500000000000000e+00
3.050000000000001044e-01,-2.000000000000000000e+00,-4.000000000000000000e+00,3.000000000000000000e+00,1.000000000000000000e+00,-5.000000000000000000e+00,-4.000000000000000000e+00,-1.000000000000000000e+00,-1.000000000000000000e+00,-6.106567382812500000e-01,4.901123046875000000e-02,7.647705078125000000e-02,7.866821289062500000e-01,-1.762695312500000000e-01,-9.755859375000000000e-01,2.568359375000000000e-01,1.750000000000000000e+00,7.562500000000000000e+00,-2.437500000000000000e+00
3.100000000000001088e-01,-1.000000000000000000e+00,-3.000000000000000000e+00,-2.000000000000000000e+00,1.000000000000000000e+00,-4.000000000000000000e+00,1.000000000000000000e+00,-7.000000000000000000e+00,-3.000000000000000000e+00,-6.106567382812500000e-01,4.901123046875000000e-02,7.647705078125000000e-02,7.866821289062500000e-01,-1.762695312500000000e-01,-9.755859375000000000e-01,2.568359375000000000e-01,1.750000000000000000e+00,7.562500000000000000e+00,-2.437500000000000000e+00
3.150000000000001132e-01,-1.000000000000000000e+00,-3.000000000000000000e+00,-2.000000000000000000e+00,1.000000000000000000e+00,-4.000000000000000000e+00,1.000000000000000000e+00,-7.000000000000000000e+00,-3.000000000000000000e+00,-6.106567382812500000e-01,4.901123046875000000e-02,7.647705078125000000e-02,7.866821289062500000e-01,-1.762695312500000000e-01,-9.755859375000000000e-01,2.568359375000000000e-01,1.750000000000000000e+00,7.562500000000000000e+00,-2.437500000000000000e+00
3.200000000000001732e-01,-7.000000000000000000e+00,-2.000000000000000000e+00,-2.000000000000000000e+00,-1.000000000000000000e+00,1.000000000000000000e+00,1.000000000000000000e+00,0.000000000000000000e+00,-1.000000000000000000e+00,-6.106567382812500000e-01,4.901123046875000000e-02,7.647705078125000000e-02,7.866821289062500000e-01,-1.762695312500000000e-01,-9.755859375000000000e-01,2.568359375000000000e-01,1.750000000000000000e+00,7.562500000000000000e+00,-2.437500000000000000e+00
3.250000000000001776e-01,-7.000000000000000000e+00,-2.000000000000000000e+00,-2.000000000000000000e+00,-1.000000000000000000e+00,1.000000000000000000e+00,1.000000000000000000e+00,0.000000000000000000e+00,-1.000000000000000000e+00,-6.104736328125000000e-01,4.998779296875000000e-02,7.537841796875000000e-02,7.868652343750000000e-01,-1.762695312500000000e-01,-9.721679687500000000e-01,2.519531250000000000e-01,2.312500000000000000e+00,7.937500000000000000e+00,-2.000000000000000000e+00
3.300000000000001821e-01,7.000000000000000000e+00,-1.000000000000000000e+00,-6.000000000000000000e+00,-4.000000000000000000e+00,-4.000000000000000000e+00,-1.000000000000000000e+00,0.000000000000000000e+00,1.000000000000000000e+00,-6.104736328125000000e-01,4.998779296875000000e-02,7.537841796875000000e-02,7.868652343750000000e-01,-1.762695312500000000e-01,-9.721679687500000000e-01,2.519531250000000000e-01,2.312500000000000000e+00,7.937500000000000000e+00,-2.000000000000000000e+00
3.350000000000001865e-01,0.000000000000000000e+00,-2.000000000000000000e+00,-7.000000000000000000e+00,-4.000000000000000000e+00,-4.000000000000000000e+00,1.000000000000000000e+00,0.000000000000000000e+00,-2.000000000000000000e+00,-6.104736328125000000e-01,4.998779296875000000e-02,7.537841796875000000e-02,7.868652343750000000e-01,-1.762695312500000000e-01,-9.721679687500000000e-01,2.519531250000000000e-01,2.312500000000000000e+00,7.937500000000000000e+00,-2.000000000000000000e+00
3.400000000000001910e-01,0.000000000000000000e+00,-2.000000000000000000e+00,-7.000000000000000000e+00,-4.000000000000000000e+00,-4.000000000000000000e+00,1.000000000000000000e+00,0.000000000000000000e+00,-2.000000000000000000e+00,-6.104736328125000000e-01,4.998779296875000000e-02,7.537841796875000000e-02,7.868652343750000000e-01,-1.762695312500000000e-01,-9.721679687500000000e-01,2.519531250000000000e-01,2.312500000000000000e+00,7.937500000000000000e+00,-2.000000000000000000e+00
3.450000000000001954e-01,0.000000000000000000e+00,-2.000000000000000000e+00,-7.000000000000000000e+00,-4.000000000000000000e+00,-4.000000000000000000e+00,1.000000000000000000e+00,0.000000000000000000e+00,-2.000000000000000000e+00,-6.104736328125000000e-01,4.998779296875000000e-02,7.537841796875000000e-02,7.868652343750000000e-01,-1.762695312500000000e-01,-9.721679687500000000e-01,2.519531250000000000e-01,2.312500000000000000e+00,7.937500000000000000e+00,-2.000000000000000000e+00
3.500000000000001998e-01,0.000000000000000000e+00,-2.000000000000000000e+00,-7.000000000000000000e+00,-4.000000000000000000e+00,-4.000000000000000000e+00,1.000000000000000000e+00,0.000000000000000000e+00,-2.000000000000000000e+00,-6.102294921875000000e-01,5.090332031250000000e-02,7.421875000000000000e-02,7.870483398437500000e-01,-1.767578125000000000e-01,-9.697265625000000000e-01,2.539062500000000000e-01,2.437500000000000000e+00,8.062500000000000000e+00,-2.312500000000000000e+00
3.550000000000002043e-01,-1.000000000000000000e+00,-1.000000000000000000e+00,-5.000000000000000000e+00,-2.000000000000000000e+00,-3.000000000000000000e+00,-1.000000000000000000e+00,0.000000000000000000e+00,0.000000000000000000e+00,-6.102294921875000000e-01,5.090332031250000000e-02,7.421875000000000000e-02,7.870483398437500000e-01,-1.767578125000000000e-01,-9.697265625000000000e-01,2.539062500000000000e-01,2.437500000000000000e+00,8.062500000000000000e+00,-2.312500000000000000e+00
3.600000000000002087e-01,-1.000000000000000000e+00,-1.000000000000000000e+00,-5.000000000000000000e+00,-2.000000000000000000e+00,-3.000000000000000000e+00,-1.000000000000000000e+00,0.000000000000000000e+00,0.000000000000000000e+00,-6.102294921875000000e-01,5.090332031250000000e-02,7.421875000000000000e-02,7.870483398437500000e-01,-1.767578125000000000e-01,-9.697265625000000000e-01,2.539062500000000000e-01,2.437500000000000000e+00,8.062500000000000000e+00,-2.312500000000000000e+00
3.650000000000002132e-01,-1.000000000000000000e+00,-1.000000000000000000e+00,-5.000000000000000000e+00,-2.000000000000000000e+00,-3.000000000000000000e+00,-1.000000000000000000e+00,0.000000000000000000e+00,0.000000000000000000e+00,-6.102294921875000000e-01,5.090332031250000000e-02,7.421875000000000000e-02,7.870483398437500000e-01,-1.767578125000000000e-01,-9.697265625000000000e-01,2.539062500000000000e-01,2.437500000000000000e+00,8.062500000000000000e+00,-2.312500000000000000e+00
3.700000000000002176e-01,-1.000000000000000000e+00,-1.000000000000000000e+00,-5.000000000000000000e+00,-2.000000000000000000e+00,-3.000000000000000000e+00,-1.000000000000000000e+00,0.000000000000000000e+00,0.000000000000000000e+00,-6.102294921875000000e-01,5.090332031250000000e-02,7.421875000000000000e-02,7.870483398437500000e-01,-1.767578125000000000e-01,-9.697265625000000000e-01,2.539062500000000000e-01,2.437500000000000000e+00,8.062500000000000000e+00,-2.312500000000000000e+00
3.750000000000002220e-01,-1.000000000000000000e+00,-1.000000000000000000e+00,-5.000000000000000000e+00,-2.000000000000000000e+00,-3.000000000000000000e+00,-1.000000000000000000e+00,0.000000000000000000e+00,0.000000000000000000e+00,-6.100463867187500000e-01,5.181884765625000000e-02,7.305908203125000000e-02,7.872924804687500000e-01,-1.738281250000000000e-01,-9.672851562500000000e-01,2.617187500000000000e-01,1.875000000000000000e+00,8.125000000000000000e+00,-2.062500000000000000e+00
3.800000000000002265e-01,3.000000000000000000e+00,-1.000000000000000000e+00,-5.000000000000000000e+00,0.000000000000000000e+00,-1.000000000000000000e+00,-4.000000000000000000e+00,-2.000000000000000000e+00,-1.000000000000000000e+00,-6.100463867187500000e-01,5.181884765625000000e-02,7.305908203125000000e-02,7.872924804687500000e-01,-1.738281250000000000e-01,-9.672851562500000000e-01,2.617187500000000000e-01,1.875000000000000000e+00,8.125000000000000000e+00,-2.062500000000000000e+00
3.850000000000001754e-01,3.000000000000000000e+00,-1.000000000000000000e+00,-5.000000000000000000e+00,0.000000000000000000e+00,-1.000000000000000000e+00,-4.000000000000000000e+00,-2.000000000000000000e+00,-1.000000000000000000e+00,-6.100463867187500000e-01,5.181884765625000000e-02,7.305908203125000000e-02,7.872924804687500000e-01,-1.738281250000000000e-01,-9.672851562500000000e-01,2.617187500000000000e-01,1.875000000000000000e+00,8.125000000000000000e+00,-2.062500000000000000e+00
3.900000000000001799e-01,3.000000000000000000e+00,-1.000000000000000000e+00,-5.000000000000000000e+00,0.000000000000000000e+00,-1.000000000000000000e+00,-4.000000000000000000e+00,-2.000000000000000000e+00,-1.000000000000000000e+00,-6.099853515625000000e-01,5.273437500000000000e-02,7.189941406250000000e-02,7.873535156250000000e-01,-1.738281250000000000e-01,-9.702148437500000000e-01,2.583007812500000000e-01,8.750000000000000000e-01,8.000000000000000000e+00,-2.000000000000000000e+00
3.950000000000001843e-01,3.000000000000000000e+00,-1.000000000000000000e+00,-5.000000000000000000e+00,0.000000000000000000e+00,-1.000000000000000000e+00,-4.000000000000000000e+00,-2.000000000000000000e+00,-1.000000000000000000e+00,-6.099853515625000000e-01,5.273437500000000000e-02,7.189941406250000000e-02,7.873535156250000000e-01,-1.738281250000000000e-01,-9.702148437500000000e-01,2.583007812500000000e-01,8.750000000000000000e-01,8.000000000000000000e+00,-2.000000000000000000e+00
4.000000000000001887e-01,0.000000000000000000e+00,-1.000000000000000000e+00,1.000000000000000000e+00,0.000000000000000000e+00,2.000000000000000000e+00,3.000000000000000000e+00,0.000000000000000000e+00,2.000000000000000000e+00,-6.099853515625000000e-01,5.273437500000000000e-02,7.189941406250000000e-02,7.873535156250000000e-01,-1.738281250000000000e-01,-9.702148437500000000e-01,2.583007812500000000e-01,8.750000000000000000e-01,8.000000000000000000e+00,-2.000000000000000000e+00
4.050000000000001932e-01,0.000000000000000000e+00,-1.000000000000000000e+00,1.000000000000000000e+00,0.000000000000000000e+00,2.000000000000000000e+00,3.000000000000000000e+00,0.000000000000000000e+00,2.000000000000000000e+00,-6.099853515625000000e-01,5.273437500000000000e-02,7.189941406250000000e-02,7.873535156250000000e-01,-1.738281250000000000e-01,-9.702148437500000000e-01,2.583007812500000000e-01,8.750000000000000000e-01,8.000000000000000000e+00,-2.000000000000000000e+00
4.100000000000001976e-01,0.000000000000000000e+00,-1.000000000000000000e+00,1.000000000000000000e+00,0.000000000000000000e+00,2.000000000000000000e+00,3.000000000000000000e+00,0.000000000000000000e+00,2.000000000000000000e+00,-6.099853515625000000e-01,5.273437500000000000e-02,7.189941406250000000e-02,7.873535156250000000e-01,-1.738281250000000000e-01,-9.702148437500000000e-01,2.583007812500000000e-01,8.750000000000000000e-01,8.000000000000000000e+00,-2.000000000000000000e+00
4.150000000000002021e-01,0.000000000000000000e+00,-1.000000000000000000e+00,1.000000000000000000e+00,0.000000000000000000e+00,2.000000000000000000e+00,3.000000000000000000e+00,0.000000000000000000e+00,2.000000000000000000e+00,-6.099853515625000000e-01,5.273437500000000000e-02,7.189941406250000000e-02,7.873535156250000000e-01,-1.738281250000000000e-01,-9.702148437500000000e-01,2.583007812500000000e-01,8.750000000000000000e-01,8.000000000000000000e+00,-2.000000000000000000e+00
4.200000000000002065e-01,-1.000000000000000000e+00,0.000000000000000000e+00,1.000000000000000000e+00,-1.000000000000000000e+00,-1.000000000000000000e+00,-3.000000000000000000e+00,0.000000000000000000e+00,-2.000000000000000000e+00,-6.098632812500000000e-01,5.371093750000000000e-02,7.080078125000000000e-02,7.874755859375000000e-01,-1.743164062500000000e-01,-9.711914062500000000e-01,2.607421875000000000e-01,1.250000000000000000e+00,8.062500000000000000e+00,-1.750000000000000000e+00
4.250000000000002109e-01,3.000000000000000000e+00,-2.000000000000000000e+00,-5.000000000000000000e+00,-4.000000000000000000e+00,-2.000000000000000000e+00,-4.000000000000000000e+00,-3.000000000000000000e+00,-2.000000000000000000e+00,-6.098022460937500000e-01,5.468750000000000000e-02,6.976318359375000000e-02,7.875366210937500000e-01,-1.801757812500000000e-01,-9.711914062500000000e-01,2.587890625000000000e-01,8.750000000000000000e-01,8.125000000000000000e+00,-1.625000000000000000e+00
4.300000000000002154e-01,3.000000000000000000e+00,-2.000000000000000000e+00,-5.000000000000000000e+00,-4.000000000000000000e+00,-2.000000000000000000e+00,-4.000000000000000000e+00,-3.000000000000000000e+00,-2.000000000000000000e+00,-6.098022460937500000e-01,5.468750000000000000e-02,6.976318359375000000e-02,7.875366210937500000e-01,-1.801757812500000000e-01,-9.711914062500000000e-01,2.587890625000000000e-01,8.750000000000000000e-01,8.125000000000000000e+00,-1.625000000000000000e+00
4.350000000000002753e-01,-1.000000000000000000e+00,-2.000000000000000000e+00,-4.000000000000000000e+00,-1.000000000000000000e+00,6.000000000000000000e+00,2.000000000000000000e+00,2.000000000000000000e+00,1.000000000000000000e+00,-6.098022460937500000e-01,5.468750000000000000e-02,6.976318359375000000e-02,7.875366210937500000e-01,-1.801757812500000000e-01,-9.711914062500000000e-01,2.587890625000000000e-01,8.750000000000000000e-01,8.125000000000000000e+00,-1.625000000000000000e+00
4.400000000000002798e-01,-1.000000000000000000e+00,-2.000000000000000000e+00,-4.000000000000000000e+00,-1.000000000000000000e+00,6.000000000000000000e+00,2.000000000000000000e+00,2.000000000000000000e+00,1.000000000000000000e+00,-6.098022460937500000e-01,5.468750000000000000e-02,6.976318359375000000e-02,7.875366210937500000e-01,-1.801757812500000000e-01,-9.711914062500000000e-01,2.587890625000000000e-01,8.750000000000000000e-01,8.125000000000000000e+00,-1.625000000000000000e+00
4.450000000000002842e-01,-1.000000000000000000e+00,-2.000000000000000000e+00,-4.000000000000000000e+00,-1.000000000000000000e+00,6.000000000000000000e+00,2.000000000000000000e+00,2.000000000000000000e+00,1.000000000000000000e+00,-6.098022460937500000e-01,5.468750000000000000e-02,6.976318359375000000e-02,7.875366210937500000e-01,-1.801757812500000000e-01,-9.711914062500000000e-01,2.587890625000000000e-01,8.750000000000000000e-01,8.125000000000000000e+00,-1.625000000000000000e+00
4.500000000000002887e-01,-1.000000000000000000e+00,1.000000000000000000e+00,0.000000000000000000e+00,-1.000000000000000000e+00,-2.000000000000000000e+00,-2.000000000000000000e+00,-2.000000000000000000e+00,0.000000000000000000e+00,-6.097412109375000000e-01,5.572509765625000000e-02,6.878662109375000000e-02,7.876586914062500000e-01,-1.831054687500000000e-01,-9.672851562500000000e-01,2.587890625000000000e-01,1.125000000000000000e+00,7.812500000000000000e+00,-1.437500000000000000e+00
4.550000000000002931e-01,-1.000000000000000000e+00,1.000000000000000000e+00,0.000000000000000000e+00,-1.000000000000000000e+00,-2.000000000000000000e+00,-2.000000000000000000e+00,-2.000000000000000000e+00,0.000000000000000000e+00,-6.097412109375000000e-01,5.572509765625000000e-02,6.878662109375000000e-02,7.876586914062500000e-01,-1.831054687500000000e-01,-9.672851562500000000e-01,2.587890625000000000e-01,1.125000000000000000e+00,7.812500000000000000e+00,-1.437500000000000000e+00
4.600000000000002975e-01,-1.000000000000000000e+00,-2.000000000000000000e+00,3.000000000000000000e+00,-6.000000000000000000e+00,0.000000000000000000e+00,-1.000000000000000000e+00,-2.000000000000000000e+00,-2.000000000000000000e+00,-6.097412109375000000e-01,5.572509765625000000e-02,6.878662109375000000e-02,7.876586914062500000e-01,-1.831054687500000000e-01,-9.672851562500000000e-01,2.587890625000000000e-01,1.125000000000000000e+00,7.812500000000000000e+00,-1.437500000000000000e+00
4.650000000000003020e-01,-1.000000000000000000e+00,-2.000000000000000000e+00,3.000000000000000000e+00,-6.000000000000000000e+00,0.000000000000000000e+00,-1.000000000000000000e+00,-2.000000000000000000e+00,-2.000000000000000000e+00,-6.097412109375000000e-01,5.572509765625000000e-02,6.878662109375000000e-02,7.876586914062500000e-01,-1.831054687500000000e-01,-9.672851562500000000e-01,2.587890625000000000e-01,1.125000000000000000e+00,7.812500000000000000e+00,-1.437500000000000000e+00
4.700000000000003064e-01,-1.000000000000000000e+00,-2.000000000000000000e+00,3.000000000000000000e+00,-6.000000000000000000e+00,0.000000000000000000e+00,-1.000000000000000000e+00,-2.000000000000000000e+00,-2.000000000000000000e+00,-6.097412109375000000e-01,5.572509765625000000e-02,6.878662109375000000e-02,7.876586914062500000e-01,-1.831054687500000000e-01,-9.672851562500000000e-01,2.587890625000000000e-01,1.125000000000000000e+00,7.812500000000000000e+00,-1.437500000000000000e+00
4.750000000000003109e-01,-1.000000000000000000e+00,-2.000000000000000000e+00,3.000000000000000000e+00,-6.000000000000000000e+00,0.000000000000000000e+00,-1.000000000000000000e+00,-2.000000000000000000e+00,-2.000000000000000000e+00,-6.097412109375000000e-01,5.572509765625000000e-02,6.878662109375000000e-02,7.876586914062500000e-01,-1.831054687500000000e-01,-9.672851562500000000e-01,2.587890625000000000e-01,1.125000000000000000e+00,7.812500000000000000e+00,-1.437500000000000000e+00
4.800000000000003153e-01,-3.000000000000000000e+00,-4.000000000000000000e+00,-7.000000000000000000e+00,-2.000000000000000000e+00,3.000000000000000000e+00,-1.000000000000000000e+00,-2.000000000000000000e+00,0.000000000000000000e+00,-6.096191406250000000e-01,5.682373046875000000e-02,6.781005859375000000e-02,7.877197265625000000e-01,-1.840820312500000000e-01,-9.697265625000000000e-01,2.558593750000000000e-01,1.187500000000000000e+00,7.937500000000000000e+00,-1.187500000000000000e+00
4.850000000000003197e-01,-3.000000000000000000e+00,-2.000000000000000000e+00,-7.000000000000000000e+00,-9.000000000000000000e+00,-5.000000000000000000e+00,-3.000000000000000000e+00,-4.000000000000000000e+00,-1.000000000000000000e+00,-6.096191406250000000e-01,5.682373046875000000e-02,6.781005859375000000e-02,7.877197265625000000e-01,-1.840820312500000000e-01,-9.697265625000000000e-01,2.558593750000000000e-01,1.187500000000000000e+00,7.937500000000000000e+00,-1.187500000000000000e+00
4.900000000000003242e-01,-3.000000000000000000e+00,-2.000000000000000000e+00,-7.000000000000000000e+00,-9.000000000000000000e+00,-5.000000000000000000e+00,-3.000000000000000000e+00,-4.000000000000000000e+00,-1.000000000000000000e+00,-6.096191406250000000e-01,5.682373046875000000e-02,6.781005859375000000e-02,7.877197265625000000e-01,-1.840820312500000000e-01,-9.697265625000000000e-01,2.558593750000000000e-01,1.187500000000000000e+00,7.937500000000000000e+00,-1.187500000000000000e+00
4.950000000000002731e-01,-3.000000000000000000e+00,-2.000000000000000000e+00,-7.000000000000000000e+00,-9.000000000000000000e+00,-5.000000000000000000e+00,-3.000000000000000000e+00,-4.000000000000000000e+00,-1.000000000000000000e+00,-6.096191406250000000e-01,5.786132812500000000e-02,6.683349609375000000e-02,7.877807617187500000e-01,-1.865234375000000000e-01,-9.721679687500000000e-01,2.563476562500000000e-01,9.375000000000000000e-01,8.062500000000000000e+00,-1.375000000000000000e+00
5.000000000000003331e-01,-3.000000000000000000e+00,-2.000000000000000000e+00,-7.000000000000000000e+00,-9.000000000000000000e+00,-5.000000000000000000e+00,-3.000000000000000000e+00,-4.000000000000000000e+00,-1.000000000000000000e+00,-6.096191406250000000e-01,5.786132812500000000e-02,6.683349609375000000e-02,7.877807617187500000e-01,-1.865234375000000000e-01,-9.721679687500000000e-01,2.563476562500000000e-01,9.375000000000000000e-01,8.062500000000000000e+00,-1.375000000000000000e+00
5.050000000000003375e-01,-2.000000000000000000e+00,2.000000000000000000e+00,-2.000000000000000000e+00,-7.000000000000000000e+00,-7.000000000000000000e+00,-4.000000000000000000e+00,-2.000000000000000000e+00,-2.000000000000000000e+00,-6.096191406250000000e-01,5.786132812500000000e-02,6.683349609375000000e-02,7.877807617187500000e-01,-1.865234375000000000e-01,-9.721679687500000000e-01,2.563476562500000000e-01,9.375000000000000000e-01,8.062500000000000000e+00,-1.375000000000000000e+00
5.100000000000003419e-01,2.000000000000000000e+00,1.000000000000000000e+00,-4.000000000000000000e+00,0.000000000000000000e+00,5.000000000000000000e+00,-1.000000000000000000e+00,3.000000000000000000e+00,0.000000000000000000e+00,-6.096191406250000000e-01,5.786132812500000000e-02,6.683349609375000000e-02,7.877807617187500000e-01,-1.865234375000000000e-01,-9.721679687500000000e-01,2.563476562500000000e-01,9.375000000000000000e-01,8.062500000000000000e+00,-1.375000000000000000e+00
5.150000000000003464e-01,2.000000000000000000e+00,1.000000000000000000e+00,-4.000000000000000000e+00,0.000000000000000000e+00,5.000000000000000000e+00,-1.000000000000000000e+00,3.000000000000000000e+00,0.000000000000000000e+00,-6.096191406250000000e-01,5.786132812500000000e-02,6.683349609375000000e-02,7.877807617187500000e-01,-1.865234375000000000e-01,-9.721679687500000000e-01,2.563476562500000000e-01,9.375000000000000000e-01,8.062500000000000000e+00,-1.375000000000000000e+00
5.200000000000003508e-01,2.000000000000000000e+00,1.000000000000000000e+00,-4.000000000000000000e+00,0.000000000000000000e+00,5.000000000000000000e+00,-1.000000000000000000e+00,3.000000000000000000e+00,0.000000000000000000e+00,-6.094360351562500000e-01,5.889892578125000000e-02,6.585693359375000000e-02,7.879028320312500000e-01,-1.855468750000000000e-01,-9.677734375000000000e-01,2.597656250000000000e-01,1.625000000000000000e+00,7.812500000000000000e+00,-1.687500000000000000e+00
5.250000000000003553e-01,2.000000000000000000e+00,1.000000000000000000e+00,-4.000000000000000000e+00,0.000000000000000000e+00,5.000000000000000000e+00,-1.000000000000000000e+00,3.000000000000000000e+00,0.000000000000000000e+00,-6.094360351562500000e-01,5.889892578125000000e-02,6.585693359375000000e-02,7.879028320312500000e-01,-1.855468750000000000e-01,-9.677734375000000000e-01,2.597656250000000000e-01,1.625000000000000000e+00,7.812500000000000000e+00,-1.687500000000000000e+00
5.300000000000003597e-01,2.000000000000000000e+00,1.000000000000000000e+00,-4.000000000000000000e+00,0.000000000000000000e+00,5.000000000000000000e+00,-1.000000000000000000e+00,3.000000000000000000e+00,0.000000000000000000e+00,-6.094360351562500000e-01,5.889892578125000000e-02,6.585693359375000000e-02,7.879028320312500000e-01,-1.855468750000000000e-01,-9.677734375000000000e-01,2.597656250000000000e-01,1.625000000000000000e+00,7.812500000000000000e+00,-1.687500000000000000e+00
5.350000000000003642e-01,0.000000000000000000e+00,-3.000000000000000000e+00,0.000000000000000000e+00,4.000000000000000000e+00,-2.000000000000000000e+00,-3.000000000000000000e+00,-3.000000000000000000e+00,-1.000000000000000000e+00,-6.094360351562500000e-01,5.889892578125000000e-02,6.585693359375000000e-02,7.879028320312500000e-01,-1.855468750000000000e-01,-9.677734375000000000e-01,2.597656250000000000e-01,1.625000000000000000e+00,7.812500000000000000e+00,-1.687500000000000000e+00
5.400000000000003686e-01,-1.000000000000000000e+00,-3.000000000000000000e+00,-4.000000000000000000e+00,4.000000000000000000e+00,-5.000000000000000000e+00,0.000000000000000000e+00,-2.000000000000000000e+00,-3.000000000000000000e+00,-6.094360351562500000e-01,5.889892578125000000e-02,6.585693359375000000e-02,7.879028320312500000e-01,-1.855468750000000000e-01,-9.677734375000000000e-01,2.597656250000000000e-01,1.625000000000000000e+00,7.812500000000000000e+00,-1.687500000000000000e+00
5.450000000000003730e-01,-1.000000000000000000e+00,-3.000000000000000000e+00,-4.000000000000000000e+00,4.000000000000000000e+00,-5.000000000000000000e+00,0.000000000000000000e+00,-2.000000000000000000e+00,-3.000000000000000000e+00,-6.093750000000000000e-01,5.975341796875000000e-02,6.475830078125000000e-02,7.879638671875000000e-01,-1.787109375000000000e-01,-9.643554687500000000e-01,2.583007812500000000e-01,4.375000000000000000e-01,7.562500000000000000e+00,-2.062500000000000000e+00
5.500000000000003775e-01,0.000000000000000000e+00,-1.000000000000000000e+00,1.000000000000000000e+00,2.000000000000000000e+00,-1.000000000000000000e+00,1.000000000000000000e+00,0.000000000000000000e+00,0.000000000000000000e+00,-6.093750000000000000e-01,5.975341796875000000e-02,6.475830078125000000e-02,7.879638671875000000e-01,-1.787109375000000000e-01,-9.643554687500000000e-01,2.583007812500000000e-01,4.375000000000000000e-01,7.562500000000000000e+00,-2.062500000000000000e+00
5.550000000000003819e-01,-1.000000000000000000e+00,-2.000000000000000000e+00,2.000000000000000000e+00,0.000000000000000000e+00,-4.000000000000000000e+00,-3.000000000000000000e+00,-3.000000000000000000e+00,-4.000000000000000000e+00,-6.093750000000000000e-01,5.975341796875000000e-02,6.475830078125000000e-02,7.879638671875000000e-01,-1.787109375000000000e-01,-9.643554687500000000e-01,2.583007812500000000e-01,4.375000000000000000e-01,7.562500000000000000e+00,-2.062500000000000000e+00
5.600000000000003864e-01,-1.000000000000000000e+00,-2.000000000000000000e+00,2.000000000000000000e+00,0.000000000000000000e+00,-4.000000000000000000e+00,-3.000000000000000000e+00,-3.000000000000000000e+00,-4.000000000000000000e+00,-6.093750000000000000e-01,5.975341796875000000e-02,6.475830078125000000e-02,7.879638671875000000e-01,-1.787109375000000000e-01,-9.643554687500000000e-01,2.583007812500000000e-01,4.375000000000000000e-01,7.562500000000000000e+00,-2.062500000000000000e+00
5.650000000000003908e-01,-1.000000000000000000e+00,-2.000000000000000000e+00,2.000000000000000000e+00,0.000000000000000000e+00,-4.000000000000000000e+00,-3.000000000000000000e+00,-3.000000000000000000e+00,-4.000000000000000000e+00,-6.093750000000000000e-01,6.048583984375000000e-02,6.359863281250000000e-02,7.879638671875000000e-01,-1.728515625000000000e-01,-9.648437500000000000e-01,2.612304687500000000e-01,2.500000000000000000e-01,7.500000000000000000e+00,-2.500000000000000000e+00
5.700000000000003952e-01,-1.000000000000000000e+00,-2.000000000000000000e+00,2.000000000000000000e+00,0.000000000000000000e+00,-4.000000000000000000e+00,-3.000000000000000000e+00,-3.000000000000000000e+00,-4.000000000000000000e+00,-6.093750000000000000e-01,6.048583984375000000e-02,6.359863281250000000e-02,7.879638671875000000e-01,-1.728515625000000000e-01,-9.648437500000000000e-01,2.612304687500000000e-01,2.500000000000000000e-01,7.500000000000000000e+00,-2.500000000000000000e+00
5.750000000000003997e-01,-3.000000000000000000e+00,-4.000000000000000000e+00,-1.000000000000000000e+00,-7.000000000000000000e+00,0.000000000000000000e+00,0.000000000000000000e+00,1.000000000000000000e+00,1.000000000000000000e+00,-6.093750000000000000e-01,6.048583984375000000e-02,6.359863281250000000e-02,7.879638671875000000e-01,-1.728515625000000000e-01,-9.648437500000000000e-01,2.612304687500000000e-01,2.500000000000000000e-01,7.500000000000000000e+00,-2.500000000000000000e+00
5.800000000000004041e-01,-1.000000000000000000e+00,-1.000000000000000000e+00,0.000000000000000000e+00,3.000000000000000000e+00,2.000000000000000000e+00,1.000000000000000000e+00,-2.000000000000000000e+00,0.000000000000000000e+00,-6.093750000000000000e-01,6.048583984375000000e-02,6.359863281250000000e-02,7.879638671875000000e-01,-1.728515625000000000e-01,-9.648437500000000000e-01,2.612304687500000000e-01,2.500000000000000000e-01,7.500000000000000000e+00,-2.500000000000000000e+00
5.850000000000004086e-01,-1.000000000000000000e+00,-1.000000000000000000e+00,0.000000000000000000e+00,3.000000000000000000e+00,2.000000000000000000e+00,1.000000000000000000e+00,-2.000000000000000000e+00,0.000000000000000000e+00,-6.093750000000000000e-01,6.048583984375000000e-02,6.359863281250000000e-02,7.879638671875000000e-01,-1.728515625000000000e-01,-9.648437500000000000e-01,2.612304687500000000e-01,2.500000000000000000e-01,7.500000000000000000e+00,-2.500000000000000000e+00
5.900000000000004130e-01,-1.000000000000000000e+00,-1.000000000000000000e+00,0.000000000000000000e+00,3.000000000000000000e+00,2.000000000000000000e+00,1.000000000000000000e+00,-2.000000000000000000e+00,0.000000000000000000e+00,-6.093750000000000000e-01,6.121826171875000000e-02,6.243896484375000000e-02,7.880249023437500000e-01,-1.743164062500000000e-01,-9.731445312500000000e-01,2.592773437500000000e-01,4.375000000000000000e-01,7.500000000000000000e+00,-2.500000000000000000e+00
5.950000000000004174e-01,-2.000000000000000000e+00,-2.000000000000000000e+00,-8.000000000000000000e+00,5.000000000000000000e+00,1.000000000000000000e+01,3.000000000000000000e+00,0.000000000000000000e+00,0.000000000000000000e+00,-6.093750000000000000e-01,6.121826171875000000e-02,6.243896484375000000e-02,7.880249023437500000e-01,-1.743164062500000000e-01,-9.731445312500000000e-01,2.592773437500000000e-01,4.375000000000000000e-01,7.500000000000000000e+00,-2.500000000000000000e+00
6.000000000000004219e-01,-2.000000000000000000e+00,-2.000000000000000000e+00,-8.000000000000000000e+00,5.000000000000000000e+00,1.000000000000000000e+01,3.000000000000000000e+00,0.000000000000000000e+00,0.000000000000000000e+00,-6.093750000000000000e-01,6.121826171875000000e-02,6.243896484375000000e-02,7.880249023437500000e-01,-1.743164062500000000e-01,-9.731445312500000000e-01,2.592773437500000000e-01,4.375000000000000000e-01,7.500000000000000000e+00,-2.500000000000000000e+00
6.050000000000004263e-01,1.000000000000000000e+00,1.000000000000000000e+00,2.000000000000000000e+00,0.000000000000000000e+00,0.000000000000000000e+00,-1.000000000000000000e+00,1.000000000000000000e+00,-2.000000000000000000e+00,-6.092529296875000000e-01,6.201171875000000000e-02,6.127929687500000000e-02,7.881469726562500000e-01,-1.762695312500000000e-01,-9.721679687500000000e-01,2.636718750000000000e-01,9.375000000000000000e-01,7.437500000000000000e+00,-2.687500000000000000e+00
6.100000000000004308e-01,1.000000000000000000e+00,1.000000000000000000e+00,2.000000000000000000e+00,0.000000000000000000e+00,0.000000000000000000e+00,-1.000000000000000000e+00,1.000000000000000000e+00,-2.000000000000000000e+00,-6.092529296875000000e-01,6.201171875000000000e-02,6.127929687500000000e-02,7.881469726562500000e-01,-1.762695312500000000e-01,-9.721679687500000000e-01,2.636718750000000000e-01,9.375000000000000000e-01,7.437500000000000000e+00,-2.687500000000000000e+00
6.150000000000004352e-01,-1.000000000000000000e+00,-1.000000000000000000e+00,2.000000000000000000e+00,-5.000000000000000000e+00,-7.000000000000000000e+00,-5.000000000000000000e+00,-2.000000000000000000e+00,-2.000000000000000000e+00,-6.092529296875000000e-01,6.201171875000000000e-02,6.127929687500000000e-02,7.881469726562500000e-01,-1.762695312500000000e-01,-9.721679687500000000e-01,2.636718750000000000e-01,9.375000000000000000e-01,7.437500000000000000e+00,-2.687500000000000000e+00
6.200000000000004396e-01,-1.000000000000000000e+00,-1.000000000000000000e+00,2.000000000000000000e+00,-5.000000000000000000e+00,-7.000000000000000000e+00,-5.000000000000000000e+00,-2.000000000000000000e+00,-2.000000000000000000e+00,-6.092529296875000000e-01,6.201171875000000000e-02,6.127929687500000000e-02,7.881469726562500000e-01,-1.762695312500000000e-01,-9.721679687500000000e-01,2.636718750000000000e-01,9.375000000000000000e-01,7.437500000000000000e+00,-2.687500000000000000e+00
6.250000000000004441e-01,-1.000000000000000000e+00,-1.000000000000000000e+00,2.000000000000000000e+00,-5.000000000000000000e+00,-7.000000000000000000e+00,-5.000000000000000000e+00,-2.000000000000000000e+00,-2.000000000000000000e+00,-6.091918945312500000e-01,6.274414062500000000e-02,6.011962890625000000e-02,7.882080078125000000e-01,-1.757812500000000000e-01,-9.624023437500000000e-01,2.534179687500000000e-01,1.312500000000000000e+00,7.375000000000000000e+00,-3.000000000000000000e+00
6.300000000000004485e-01,-1.000000000000000000e+00,-1.000000000000000000e+00,2.000000000000000000e+00,-5.000000000000000000e+00,-7.000000000000000000e+00,-5.000000000000000000e+00,-2.000000000000000000e+00,-2.000000000000000000e+00,-6.091918945312500000e-01,6.274414062500000000e-02,6.011962890625000000e-02,7.882080078125000000e-01,-1.757812500000000000e-01,-9.624023437500000000e-01,2.534179687500000000e-01,1.312500000000000000e+00,7.375000000000000000e+00,-3.000000000000000000e+00
6.350000000000004530e-01,0.000000000000000000e+00,1.000000000000000000e+00,-1.000000000000000000e+00,-2.000000000000000000e+00,1.000000000000000000e+00,0.000000000000000000e+00,0.000000000000000000e+00,-1.000000000000000000e+00,-6.091918945312500000e-01,6.274414062500000000e-02,6.011962890625000000e-02,7.882080078125000000e-01,-1.757812500000000000e-01,-9.624023437500000000e-01,2.534179687500000000e-01,1.312500000000000000e+00,7.375000000000000000e+00,-3.000000000000000000e+00
6.400000000000004574e-01,-2.000000000000000000e+00,0.000000000000000000e+00,4.000000000000000000e+00,0.000000000000000000e+00,-2.000000000000000000e+00,4.000000000000000000e+00,-1.000000000000000000e+00,0.000000000000000000e+00,-6.091918945312500000e-01,6.274414062500000000e-02,6.011962890625000000e-02,7.882080078125000000e-01,-1.757812500000000000e-01,-9.624023437500000000e-01,2.534179687500000000e-01,1.312500000000000000e+00,7.375000000000000000e+00,-3.000000000000000000e+00
6.450000000000004619e-01,-2.000000000000000000e+00,0.000000000000000000e+00,4.000000000000000000e+00,0.000000000000000000e+00,-2.000000000000000000e+00,4.000000000000000000e+00,-1.000000000000000000e+00,0.000000000000000000e+00,-6.091918945312500000e-01,6.274414062500000000e-02,6.011962890625000000e-02,7.882080078125000000e-01,-1.757812500000000000e-01,-9.624023437500000000e-01,2.534179687500000000e-01,1.312500000000000000e+00,7.375000000000000000e+00,-3.000000000000000000e+00
6.500000000000004663e-01,-2.000000000000000000e+00,0.000000000000000000e+00,4.000000000000000000e+00,0.000000000000000000e+00,-2.000000000000000000e+00,4.000000000000000000e+00,-1.000000000000000000e+00,0.000000000000000000e+00,-6.091308593750000000e-01,6.347656250000000000e-02,5.895996093750000000e-02,7.883300781250000000e-01,-1.796875000000000000e-01,-9.667968750000000000e-01,2.592773437500000000e-01,9.375000000000000000e-01,7.437500000000000000e+00,-2.812500000000000000e+00
6.550000000000004707e-01,-2.000000000000000000e+00,0.000000000000000000e+00,4.000000000000000000e+00,0.000000000000000000e+00,-2.000000000000000000e+00,4.000000000000000000e+00,-1.000000000000000000e+00,0.000000000000000000e+00,-6.091308593750000000e-01,6.347656250000000000e-02,5.895996093750000000e-02,7.883300781250000000e-01,-1.796875000000000000e-01,-9.667968750000000000e-01,2.592773437500000000e-01,9.375000000000000000e-01,7.437500000000000000e+00,-2.812500000000000000e+00
6.600000000000004752e-01,0.000000000000000000e+00,-2.000000000000000000e+00,-1.000000000000000000e+00,-1.000000000000000000e+00,-7.000000000000000000e+00,-7.000000000000000000e+00,2.000000000000000000e+00,-1.000000000000000000e+00,-6.091308593750000000e-01,6.347656250000000000e-02,5.895996093750000000e-02,7.883300781250000000e-01,-1.796875000000000000e-01,-9.667968750000000000e-01,2.592773437500000000e-01,9.375000000000000000e-01,7.437500000000000000e+00,-2.812500000000000000e+00
6.650000000000004796e-01,0.000000000000000000e+00,-2.000000000000000000e+00,-1.000000000000000000e+00,-1.000000000000000000e+00,-7.000000000000000000e+00,-7.000000000000000000e+00,2.000000000000000000e+00,-1.000000000000000000e+00,-6.091308593750000000e-01,6.347656250000000000e-02,5.895996093750000000e-02,7.883300781250000000e-01,-1.796875000000000000e-01,-9.667968750000000000e-01,2.592773437500000000e-01,9.375000000000000000e-01,7.437500000000000000e+00,-2.812500000000000000e+00
6.700000000000004841e-01,0.000000000000000000e+00,-2.000000000000000000e+00,-1.000000000000000000e+00,-1.000000000000000000e+00,-7.000000000000000000e+00,-7.000000000000000000e+00,2.000000000000000000e+00,-1.000000000000000000e+00,-6.091308593750000000e-01,6.347656250000000000e-02,5.895996093750000000e-02,7.883300781250000000e-01,-1.796875000000000000e-01,-9.667968750000000000e-01,2.592773437500000000e-01,9.375000000000000000e-01,7.437500000000000000e+00,-2.812500000000000000e+00
6.750000000000004885e-01,-1.000000000000000000e+00,-1.000000000000000000e+00,-2.000000000000000000e+00,-3.000000000000000000e+00,-1.000000000000000000e+00,0.000000000000000000e+00,1.000000000000000000e+00,0.000000000000000000e+00,-6.091308593750000000e-01,6.347656250000000000e-02,5.895996093750000000e-02,7.883300781250000000e-01,-1.796875000000000000e-01,-9.667968750000000000e-01,2.592773437500000000e-01,9.375000000000000000e-01,7.437500000000000000e+00,-2.812500000000000000e+00
6.800000000000004929e-01,-1.000000000000000000e+00,-1.000000000000000000e+00,-2.000000000000000000e+00,-3.000000000000000000e+00,-1.000000000000000000e+00,0.000000000000000000e+00,1.000000000000000000e+00,0.000000000000000000e+00,-6.091308593750000000e-01,6.347656250000000000e-02,5.895996093750000000e-02,7.883300781250000000e-01,-1.796875000000000000e-01,-9.667968750000000000e-01,2.592773437500000000e-01,9.375000000000000000e-01,7.437500000000000000e+00,-2.812500000000000000e+00
6.850000000000004974e-01,0.000000000000000000e+00,-2.000000000000000000e+00,-1.000000000000000000e+00,1.000000000000000000e+00,1.000000000000000000e+00,5.000000000000000000e+00,2.000000000000000000e+00,1.000000000000000000e+00,-6.091918945312500000e-01,6.445312500000000000e-02,5.792236328125000000e-02,7.882690429687500000e-01,-1.923828125000000000e-01,-9.707031250000000000e-01,2.534179687500000000e-01,2.500000000000000000e-01,7.500000000000000000e+00,-2.500000000000000000e+00
6.900000000000005018e-01,0.000000000000000000e+00,-2.000000000000000000e+00,-1.000000000000000000e+00,1.000000000000000000e+00,1.000000000000000000e+00,5.000000000000000000e+00,2.000000000000000000e+00,1.000000000000000000e+00,-6.091918945312500000e-01,6.445312500000000000e-02,5.792236328125000000e-02,7.882690429687500000e-01,-1.923828125000000000e-01,-9.707031250000000000e-01,2.534179687500000000e-01,2.500000000000000000e-01,7.500000000000000000e+00,-2.500000000000000000e+00
6.950000000000005063e-01,0.000000000000000000e+00,-1.000000000000000000e+00,-4.000000000000000000e+00,-3.000000000000000000e+00,-1.000000000000000000e+00,-1.000000000000000000e+00,-3.000000000000000000e+00,-2.000000000000000000e+00,-6.091918945312500000e-01,6.445312500000000000e-02,5.792236328125000000e-02,7.882690429687500000e-01,-1.923828125000000000e-01,-9.707031250000000000e-01,2.534179687500000000e-01,2.500000000000000000e-01,7.500000000000000000e+00,-2.500000000000000000e+00
7.000000000000005107e-01,0.000000000000000000e+00,-1.000000000000000000e+00,-4.000000000000000000e+00,-3.000000000000000000e+00,-1.000000000000000000e+00,-1.000000000000000000e+00,-3.000000000000000000e+00,-2.000000000000000000e+00,-6.091308593750000000e-01,6.524658203125000000e-02,5.688476562500000000e-02,7.883300781250000000e-01,-1.826171875000000000e-01,-9.697265625000000000e-01,2.529296875000000000e-01,1.125000000000000000e+00,7.250000000000000000e+00,-2.500000000000000000e+00
7.050000000000005151e-01,0.000000000000000000e+00,-1.000000000000000000e+00,-4.000000000000000000e+00,-3.000000000000000000e+00,-1.000000000000000000e+00,-1.000000000000000000e+00,-3.000000000000000000e+00,-2.000000000000000000e+00,-6.091308593750000000e-01,6.524658203125000000e-02,5.688476562500000000e-02,7.883300781250000000e-01,-1.826171875000000000e-01,-9.697265625000000000e-01,2.529296875000000000e-01,1.125000000000000000e+00,7.250000000000000000e+00,-2.500000000000000000e+00
7.100000000000005196e-01,-3.000000000000000000e+00,-4.000000000000000000e+00,-1.000000000000000000e+01,-1.800000000000000000e+01,0.000000000000000000e+00,2.000000000000000000e+00,-1.000000000000000000e+00,-1.000000000000000000e+00,-6.091308593750000000e-01,6.524658203125000000e-02,5.688476562500000000e-02,7.883300781250000000e-01,-1.826171875000000000e-01,-9.697265625000000000e-01,2.529296875000000000e-01,1.125000000000000000e+00,7.250000000000000000e+00,-2.500000000000000000e+00
7.150000000000005240e-01,-3.000000000000000000e+00,-4.000000000000000000e+00,-1.000000000000000000e+01,-1.800000000000000000e+01,0.000000000000000000e+00,2.000000000000000000e+00,-1.000000000000000000e+00,-1.000000000000000000e+00,-6.091308593750000000e-01,6.524658203125000000e-02,5.688476562500000000e-02,7.883300781250000000e-01,-1.826171875000000000e-01,-9.697265625000000000e-01,2.529296875000000000e-01,1.125000000000000000e+00,7.250000000000000000e+00,-2.500000000000000000e+00
7.200000000000005285e-01,0.000000000000000000e+00,-1.000000000000000000e+00,4.000000000000000000e+00,5.000000000000000000e+00,4.000000000000000000e+00,-3.000000000000000000e+00,-1.000000000000000000e+00,-1.000000000000000000e+00,-6.091308593750000000e-01,6.524658203125000000e-02,5.688476562500000000e-02,7.883300781250000000e-01,-1.826171875000000000e-01,-9.697265625000000000e-01,2.529296875000000000e-01,1.125000000000000000e+00,7.250000000000000000e+00,-2.500000000000000000e+00
7.250000000000005329e-01,0.000000000000000000e+00,-1.000000000000000000e+00,4.000000000000000000e+00,5.000000000000000000e+00,4.000000000000000000e+00,-3.000000000000000000e+00,-1.000000000000000000e+00,-1.000000000000000000e+00,-6.091308593750000000e-01,6.524658203125000000e-02,5.688476562500000000e-02,7.883300781250000000e-01,-1.826171875000000000e-01,-9.697265625000000000e-01,2.529296875000000000e-01,1.125000000000000000e+00,7.250000000000000000e+00,-2.500000000000000000e+00
7.300000000000005373e-01,0.000000000000000000e+00,-1.000000000000000000e+00,4.000000000000000000e+00,5.000000000000000000e+00,4.000000000000000000e+00,-3.000000000000000000e+00,-1.000000000000000000e+00,-1.000000000000000000e+00,-6.091308593750000000e-01,6.597900390625000000e-02,5.578613281250000000e-02,7.883300781250000000e-01,-1.743164062500000000e-01,-9.697265625000000000e-01,2.578125000000000000e-01,6.250000000000000000e-02,7.125000000000000000e+00,-2.187500000000000000e+00
7.350000000000005418e-01,0.000000000000000000e+00,-1.000000000000000000e+00,4.000000000000000000e+00,5.000000000000000000e+00,4.000000000000000000e+00,-3.000000000000000000e+00,-1.000000000000000000e+00,-1.000000000000000000e+00,-6.091308593750000000e-01,6.597900390625000000e-02,5.578613281250000000e-02,7.883300781250000000e-01,-1.743164062500000000e-01,-9.697265625000000000e-01,2.578125000000000000e-01,6.250000000000000000e-02,7.125000000000000000e+00,-2.187500000000000000e+00
7.400000000000005462e-01,1.000000000000000000e+00,0.000000000000000000e+00,0.000000000000000000e+00,6.000000000000000000e+00,1.000000000000000000e+00,-1.000000000000000000e+00,-5.000000000000000000e+00,0.000000000000000000e+00,-6.091308593750000000e-01,6.597900390625000000e-02,5.578613281250000000e-02,7.883300781250000000e-01,-1.743164062500000000e-01,-9.697265625000000000e-01,2.578125000000000000e-01,6.250000000000000000e-02,7.125000000000000000e+00,-2.187500000000000000e+00
7.450000000000005507e-01,1.000000000000000000e+00,0.000000000000000000e+00,0.000000000000000000e+00,6.000000000000000000e+00,1.000000000000000000e+00,-1.000000000000000000e+00,-5.000000000000000000e+00,0.000000000000000000e+00,-6.091308593750000000e-01,6.597900390625000000e-02,5.578613281250000000e-02,7.883300781250000000e-01,-1.743164062500000000e-01,-9.697265625000000000e-01,2.578125000000000000e-01,6.250000000000000000e-02,7.125000000000000000e+00,-2.187500000000000000e+00
7.500000000000005551e-01,-3.000000000000000000e+00,-2.000000000000000000e+00,4.000000000000000000e+00,-3.000000000000000000e+00,-5.000000000000000000e+00,-3.000000000000000000e+00,-2.000000000000000000e+00,-2.000000000000000000e+00,-6.091308593750000000e-01,6.597900390625000000e-02,5.578613281250000000e-02,7.883300781250000000e-01,-1.743164062500000000e-01,-9.697265625000000000e-01,2.578125000000000000e-01,6.250000000000000000e-02,7.125000000000000000e+00,-2.187500000000000000e+00
7.550000000000005596e-01,-3.000000000000000000e+00,-2.000000000000000000e+00,4.000000000000000000e+00,-3.000000000000000000e+00,-5.000000000000000000e+00,-3.000000000000000000e+00,-2.000000000000000000e+00,-2.000000000000000000e+00,-6.091308593750000000e-01,6.597900390625000000e-02,5.578613281250000000e-02,7.883300781250000000e-01,-1.743164062500000000e-01,-9.697265625000000000e-01,2.578125000000000000e-01,6.250000000000000000e-02,7.125000000000000000e+00,-2.187500000000000000e+00
7.600000000000005640e-01,-3.000000000000000000e+00,-2.000000000000000000e+00,4.000000000000000000e+00,-3.000000000000000000e+00,-5.000000000000000000e+00,-3.000000000000000000e+00,-2.000000000000000000e+00,-2.000000000000000000e+00,-6.092529296875000000e-01,6.671142578125000000e-02,5.480957031250000000e-02,7.882690429687500000e-01,-1.767578125000000000e-01,-9.672851562500000000e-01,2.529296875000000000e-01,-1.250000000000000000e-01,6.750000000000000000e+00,-1.937500000000000000e+00
7.650000000000005684e-01,-3.000000000000000000e+00,-2.000000000000000000e+00,4.000000000000000000e+00,-3.000000000000000000e+00,-5.000000000000000000e+00,-3.000000000000000000e+00,-2.000000000000000000e+00,-2.000000000000000000e+00,-6.092529296875000000e-01,6.671142578125000000e-02,5.480957031250000000e-02,7.882690429687500000e-01,-1.767578125000000000e-01,-9.672851562500000000e-01,2.529296875000000000e-01,-1.250000000000000000e-01,6.750000000000000000e+00,-1.937500000000000000e+00
7.700000000000005729e-01,-8.000000000000000000e+00,-2.000000000000000000e+00,0.000000000000000000e+00,2.000000000000000000e+00,2.000000000000000000e+00,5.000000000000000000e+00,0.000000000000000000e+00,-3.000000000000000000e+00,-6.092529296875000000e-01,6.671142578125000000e-02,5.480957031250000000e-02,7.882690429687500000e-01,-1.767578125000000000e-01,-9.672851562500000000e-01,2.529296875000000000e-01,-1.250000000000000000e-01,6.750000000000000000e+00,-1.937500000000000000e+00
7.750000000000005773e-01,-8.000000000000000000e+00,-2.000000000000000000e+00,0.000000000000000000e+00,2.000000000000000000e+00,2.000000000000000000e+00,5.000000000000000000e+00,0.000000000000000000e+00,-3.000000000000000000e+00,-6.092529296875000000e-01,6.671142578125000000e-02,5.480957031250000000e-02,7.882690429687500000e-01,-1.767578125000000000e-01,-9.672851562500000000e-01,2.529296875000000000e-01,-1.250000000000000000e-01,6.750000000000000000e+00,-1.937500000000000000e+00
7.800000000000005818e-01,-8.000000000000000000e+00,-2.000000000000000000e+00,0.000000000000000000e+00,2.000000000000000000e+00,2.000000000000000000e+00,5.000000000000000000e+00,0.000000000000000000e+00,-3.000000000000000000e+00,-6.091308593750000000e-01,6.750488281250000000e-02,5.389404296875000000e-02,7.883300781250000000e-01,-1.752929687500000000e-01,-9.697265625000000000e-01,2.602539062500000000e-01,9.375000000000000000e-01,6.562500000000000000e+00,-1.562500000000000000e+00
7.850000000000005862e-01,-8.000000000000000000e+00,-2.000000000000000000e+00,0.000000000000000000e+00,2.000000000000000000e+00,2.000000000000000000e+00,5.000000000000000000e+00,0.000000000000000000e+00,-3.000000000000000000e+00,-6.091308593750000000e-01,6.750488281250000000e-02,5.389404296875000000e-02,7.883300781250000000e-01,-1.752929687500000000e-01,-9.697265625000000000e-01,2.602539062500000000e-01,9.375000000000000000e-01,6.562500000000000000e+00,-1.562500000000000000e+00
7.900000000000005906e-01,0.000000000000000000e+00,-1.000000000000000000e+00,-7.000000000000000000e+00,-6.000000000000000000e+00,-6.000000000000000000e+00,-4.000000000000000000e+00,-5.000000000000000000e+00,-1.000000000000000000e+00,-6.091308593750000000e-01,6.750488281250000000e-02,5.389404296875000000e-02,7.883300781250000000e-01,-1.752929687500000000e-01,-9.697265625000000000e-01,2.602539062500000000e-01,9.375000000000000000e-01,6.562500000000000000e+00,-1.562500000000000000e+00
7.950000000000005951e-01,0.000000000000000000e+00,-1.000000000000000000e+00,-7.000000000000000000e+00,-6.000000000000000000e+00,-6.000000000000000000e+00,-4.000000000000000000e+00,-5.000000000000000000e+00,-1.000000000000000000e+00,-6.091308593750000000e-01,6.750488281250000000e-02,5.389404296875000000e-02,7.883300781250000000e-01,-1.752929687500000000e-01,-9.697265625000000000e-01,2.602539062500000000e-01,9.375000000000000000e-01,6.562500000000000000e+00,-1.562500000000000000e+00
8.000000000000005995e-01,-4.000000000000000000e+00,1.000000000000000000e+00,1.000000000000000000e+00,-2.000000000000000000e+00,-3.000000000000000000e+00,-4.000000000000000000e+00,-1.000000000000000000e+00,-3.000000000000000000e+00,-6.091308593750000000e-01,6.750488281250000000e-02,5.389404296875000000e-02,7.883300781250000000e-01,-1.752929687500000000e-01,-9.697265625000000000e-01,2.602539062500000000e-01,9.375000000000000000e-01,6.562500000000000000e+00,-1.562500000000000000e+00
8.050000000000006040e-01,-4.000000000000000000e+00,1.000000000000000000e+00,1.000000000000000000e+00,-2.000000000000000000e+00,-3.000000000000000000e+00,-4.000000000000000000e+00,-1.000000000000000000e+00,-3.000000000000000000e+00,-6.091308593750000000e-01,6.750488281250000000e-02,5.389404296875000000e-02,7.883300781250000000e-01,-1.752929687500000000e-01,-9.697265625000000000e-01,2.602539062500000000e-01,9.375000000000000000e-01,6.562500000000000000e+00,-1.562500000000000000e+00
8.100000000000006084e-01,-4.000000000000000000e+00,1.000000000000000000e+00,1.000000000000000000e+00,-2.000000000000000000e+00,-3.000000000000000000e+00,-4.000000000000000000e+00,-1.000000000000000000e+00,-3.000000000000000000e+00,-6.091308593750000000e-01,6.829833984375000000e-02,5.310058593750000000e-02,7.883300781250000000e-01,-1.850585937500000000e-01,-9.711914062500000000e-01,2.509765625000000000e-01,6.250000000000000000e-01,6.437500000000000000e+00,-1.375000000000000000e+00
8.150000000000006128e-01,-4.000000000000000000e+00,1.000000000000000000e+00,1.000000000000000000e+00,-2.000000000000000000e+00,-3.000000000000000000e+00,-4.000000000000000000e+00,-1.000000000000000000e+00,-3.000000000000000000e+00,-6.091308593750000000e-01,6.829833984375000000e-02,5.310058593750000000e-02,7.883300781250000000e-01,-1.850585937500000000e-01,-9.711914062500000000e-01,2.509765625000000000e-01,6.250000000000000000e-01,6.437500000000000000e+00,-1.375000000000000000e+00
8.200000000000006173e-01,1.000000000000000000e+00,0.000000000000000000e+00,0.000000000000000000e+00,-3.000000000000000000e+00,4.000000000000000000e+00,1.000000000000000000e+00,-1.000000000000000000e+00,0.000000000000000000e+00,-6.091308593750000000e-01,6.829833984375000000e-02,5.310058593750000000e-02,7.883300781250000000e-01,-1.850585937500000000e-01,-9.711914062500000000e-01,2.509765625000000000e-01,6.250000000000000000e-01,6.437500000000000000e+00,-1.375000000000000000e+00
8.250000000000006217e-01,1.000000000000000000e+00,0.000000000000000000e+00,0.000000000000000000e+00,-3.000000000000000000e+00,4.000000000000000000e+00,1.000000000000000000e+00,-1.000000000000000000e+00,0.000000000000000000e+00,-6.091308593750000000e-01,6.829833984375000000e-02,5.310058593750000000e-02,7.883300781250000000e-01,-1.850585937500000000e-01,-9.711914062500000000e-01,2.509765625000000000e-01,6.250000000000000000e-01,6.437500000000000000e+00,-1.375000000000000000e+00
8.300000000000006262e-01,0.000000000000000000e+00,-1.000000000000000000e+00,-1.000000000000000000e+00,-7.000000000000000000e+00,-3.000000000000000000e+00,-1.000000000000000000e+00,-1.000000000000000000e+00,-1.000000000000000000e+00,-6.091308593750000000e-01,6.829833984375000000e-02,5.310058593750000000e-02,7.883300781250000000e-01,-1.850585937500000000e-01,-9.711914062500000000e-01,2.509765625000000000e-01,6.250000000000000000e-01,6.437500000000000000e+00,-1.375000000000000000e+00
8.350000000000006306e-01,0.000000000000000000e+00,-1.000000000000000000e+00,-1.000000000000000000e+00,-7.000000000000000000e+00,-3.000000000000000000e+00,-1.000000000000000000e+00,-1.000000000000000000e+00,-1.000000000000000000e+00,-6.091308593750000000e-01,6.829833984375000000e-02,5.310058593750000000e-02,7.883300781250000000e-01,-1.850585937500000000e-01,-9.711914062500000000e-01,2.509765625000000000e-01,6.250000000000000000e-01,6.437500000000000000e+00,-1.375000000000000000e+00
8.400000000000006350e-01,0.000000000000000000e+00,-1.000000000000000000e+00,-1.000000000000000000e+00,-7.000000000000000000e+00,-3.000000000000000000e+00,-1.000000000000000000e+00,-1.000000000000000000e+00,-1.000000000000000000e+00,-6.092529296875000000e-01,6.915283203125000000e-02,5.224609375000000000e-02,7.882080078125000000e-01,-1.855468750000000000e-01,-9.643554687500000000e-01,2.460937500000000000e-01,-3.750000000000000000e-01,6.562500000000000000e+00,-1.625000000000000000e+00
8.450000000000006395e-01,0.000000000000000000e+00,-1.000000000000000000e+00,-1.000000000000000000e+00,-7.000000000000000000e+00,-3.000000000000000000e+00,-1.000000000000000000e+00,-1.000000000000000000e+00,-1.000000000000000000e+00,-6.092529296875000000e-01,6.915283203125000000e-02,5.224609375000000000e-02,7.882080078125000000e-01,-1.855468750000000000e-01,-9.643554687500000000e-01,2.460937500000000000e-01,-3.750000000000000000e-01,6.562500000000000000e+00,-1.625000000000000000e+00
8.500000000000006439e-01,2.000000000000000000e+00,0.000000000000000000e+00,2.000000000000000000e+00,3.000000000000000000e+00,-5.000000000000000000e+00,-1.000000000000000000e+00,1.000000000000000000e+00,0.000000000000000000e+00,-6.092529296875000000e-01,6.915283203125000000e-02,5.224609375000000000e-02,7.882080078125000000e-01,-1.855468750000000000e-01,-9.643554687500000000e-01,2.460937500000000000e-01,-3.750000000000000000e-01,6.562500000000000000e+00,-1.625000000000000000e+00
8.550000000000006484e-01,2.000000000000000000e+00,0.000000000000000000e+00,2.000000000000000000e+00,3.000000000000000000e+00,-5.000000000000000000e+00,-1.000000000000000000e+00,1.000000000000000000e+00,0.000000000000000000e+00,-6.093139648437500000e-01,7.006835937500000000e-02,5.145263671875000000e-02,7.880859375000000000e-01,-1.958007812500000000e-01,-9.687500000000000000e-01,2.568359375000000000e-01,-4.375000000000000000e-01,6.500000000000000000e+00,-1.937500000000000000e+00
8.600000000000006528e-01,2.000000000000000000e+00,0.000000000000000000e+00,2.000000000000000000e+00,3.000000000000000000e+00,-5.000000000000000000e+00,-1.000000000000000000e+00,1.000000000000000000e+00,0.000000000000000000e+00,-6.093139648437500000e-01,7.006835937500000000e-02,5.145263671875000000e-02,7.880859375000000000e-01,-1.958007812500000000e-01,-9.687500000000000000e-01,2.568359375000000000e-01,-4.375000000000000000e-01,6.500000000000000000e+00,-1.937500000000000000e+00
8.650000000000006573e-01,-3.000000000000000000e+00,-2.000000000000000000e+00,1.000000000000000000e+00,3.000000000000000000e+00,1.000000000000000000e+00,0.000000000000000000e+00,1.000000000000000000e+00,1.000000000000000000e+00,-6.093139648437500000e-01,7.006835937500000000e-02,5.145263671875000000e-02,7.880859375000000000e-01,-1.958007812500000000e-01,-9.687500000000000000e-01,2.568359375000000000e-01,-4.375000000000000000e-01,6.500000000000000000e+00,-1.937500000000000000e+00
8.700000000000006617e-01,-3.000000000000000000e+00,-2.000000000000000000e+00,1.000000000000000000e+00,3.000000000000000000e+00,1.000000000000000000e+00,0.000000000000000000e+00,1.000000000000000000e+00,1.000000000000000000e+00,-6.093139648437500000e-01,7.006835937500000000e-02,5.145263671875000000e-02,7.880859375000000000e-01,-1.958007812500000000e-01,-9.687500000000000000e-01,2.568359375000000000e-01,-4.375000000000000000e-01,6.500000000000000000e+00,-1.937500000000000000e+00
8.750000000000006661e-01,1.000000000000000000e+00,-1.000000000000000000e+00,-8.000000000000000000e+00,-5.000000000000000000e+00,-7.000000000000000000e+00,-2.000000000000000000e+00,-1.000000000000000000e+00,2.000000000000000000e+00,-6.093139648437500000e-01,7.006835937500000000e-02,5.145263671875000000e-02,7.880859375000000000e-01,-1.958007812500000000e-01,-9.687500000000000000e-01,2.568359375000000000e-01,-4.375000000000000000e-01,6.500000000000000000e+00,-1.937500000000000000e+00
8.800000000000006706e-01,1.000000000000000000e+00,-1.000000000000000000e+00,-8.000000000000000000e+00,-5.000000000000000000e+00,-7.000000000000000000e+00,-2.000000000000000000e+00,-1.000000000000000000e+00,2.000000000000000000e+00,-6.093139648437500000e-01,7.006835937500000000e-02,5.145263671875000000e-02,7.880859375000000000e-01,-1.958007812500000000e-01,-9.687500000000000000e-01,2.568359375000000000e-01,-4.375000000000000000e-01,6.500000000000000000e+00,-1.937500000000000000e+00
8.850000000000006750e-01,1.000000000000000000e+00,-1.000000000000000000e+00,-8.000000000000000000e+00,-5.000000000000000000e+00,-7.000000000000000000e+00,-2.000000000000000000e+00,-1.000000000000000000e+00,2.000000000000000000e+00,-6.094360351562500000e-01,7.086181640625000000e-02,5.078125000000000000e-02,7.880249023437500000e-01,-2.026367187500000000e-01,-9.663085937500000000e-01,2.548828125000000000e-01,-6.250000000000000000e-01,5.812500000000000000e+00,-2.125000000000000000e+00
8.900000000000006795e-01,1.000000000000000000e+00,-1.000000000000000000e+00,-8.000000000000000000e+00,-5.000000000000000000e+00,-7.000000000000000000e+00,-2.000000000000000000e+00,-1.000000000000000000e+00,2.000000000000000000e+00,-6.094360351562500000e-01,7.086181640625000000e-02,5.078125000000000000e-02,7.880249023437500000e-01,-2.026367187500000000e-01,-9.663085937500000000e-01,2.548828125000000000e-01,-6.250000000000000000e-01,5.812500000000000000e+00,-2.125000000000000000e+00
8.950000000000006839e-01,-4.000000000000000000e+00,-2.000000000000000000e+00,0.000000000000000000e+00,-6.000000000000000000e+00,-9.000000000000000000e+00,-7.000000000000000000e+00,-3.000000000000000000e+00,-2.000000000000000000e+00,-6.094360351562500000e-01,7.086181640625000000e-02,5.078125000000000000e-02,7.880249023437500000e-01,-2.026367187500000000e-01,-9.663085937500000000e-01,2.548828125000000000e-01,-6.250000000000000000e-01,5.812500000000000000e+00,-2.125000000000000000e+00
9.000000000000006883e-01,-1.000000000000000000e+00,-1.000000000000000000e+00,3.000000000000000000e+00,3.000000000000000000e+00,-1.000000000000000000e+00,-2.000000000000000000e+00,-2.000000000000000000e+00,-3.000000000000000000e+00,-6.094360351562500000e-01,7.086181640625000000e-02,5.078125000000000000e-02,7.880249023437500000e-01,-2.026367187500000000e-01,-9.663085937500000000e-01,2.548828125000000000e-01,-6.250000000000000000e-01,5.812500000000000000e+00,-2.125000000000000000e+00
9.050000000000008038e-01,0.000000000000000000e+00,-3.000000000000000000e+00,3.000000000000000000e+00,-1.000000000000000000e+00,-3.000000000000000000e+00,-1.000000000000000000e+00,-1.000000000000000000e+00,1.000000000000000000e+00,-6.094360351562500000e-01,7.086181640625000000e-02,5.078125000000000000e-02,7.880249023437500000e-01,-2.026367187500000000e-01,-9.663085937500000000e-01,2.548828125000000000e-01,-6.250000000000000000e-01,5.812500000000000000e+00,-2.125000000000000000e+00
9.100000000000008082e-01,0.000000000000000000e+00,-3.000000000000000000e+00,3.000000000000000000e+00,-1.000000000000000000e+00,-3.000000000000000000e+00,-1.000000000000000000e+00,-1.000000000000000000e+00,1.000000000000000000e+00,-6.094360351562500000e-01,7.153320312500000000e-02,5.004882812500000000e-02,7.880249023437500000e-01,-1.982421875000000000e-01,-9.687500000000000000e-01,2.573242187500000000e-01,6.250000000000000000e-02,5.000000000000000000e+00,-2.500000000000000000e+00
9.150000000000008127e-01,0.000000000000000000e+00,-3.000000000000000000e+00,3.000000000000000000e+00,-1.000000000000000000e+00,-3.000000000000000000e+00,-1.000000000000000000e+00,-1.000000000000000000e+00,1.000000000000000000e+00,-6.094360351562500000e-01,7.153320312500000000e-02,5.004882812500000000e-02,7.880249023437500000e-01,-1.982421875000000000e-01,-9.687500000000000000e-01,2.573242187500000000e-01,6.250000000000000000e-02,5.000000000000000000e+00,-2.500000000000000000e+00
9.200000000000008171e-01,1.000000000000000000e+00,1.000000000000000000e+00,-2.000000000000000000e+00,-5.000000000000000000e+00,6.000000000000000000e+00,4.000000000000000000e+00,1.000000000000000000e+00,-1.000000000000000000e+00,-6.094360351562500000e-01,7.153320312500000000e-02,5.004882812500000000e-02,7.880249023437500000e-01,-1.982421875000000000e-01,-9.687500000000000000e-01,2.573242187500000000e-01,6.250000000000000000e-02,5.000000000000000000e+00,-2.500000000000000000e+00
9.250000000000008216e-01,1.000000000000000000e+00,1.000000000000000000e+00,-2.000000000000000000e+00,-5.000000000000000000e+00,6.000000000000000000e+00,4.000000000000000000e+00,1.000000000000000000e+00,-1.000000000000000000e+00,-6.094360351562500000e-01,7.196044921875000000e-02,4.937744140625000000e-02,7.880249023437500000e-01,-1.962890625000000000e-01,-9.619140625000000000e-01,2.519531250000000000e-01,2.500000000000000000e-01,4.125000000000000000e+00,-2.937500000000000000e+00
9.300000000000008260e-01,1.000000000000000000e+00,1.000000000000000000e+00,-2.000000000000000000e+00,-5.000000000000000000e+00,6.000000000000000000e+00,4.000000000000000000e+00,1.000000000000000000e+00,-1.000000000000000000e+00,-6.094360351562500000e-01,7.196044921875000000e-02,4.937744140625000000e-02,7.880249023437500000e-01,-1.962890625000000000e-01,-9.619140625000000000e-01,2.519531250000000000e-01,2.500000000000000000e-01,4.125000000000000000e+00,-2.937500000000000000e+00
9.350000000000008304e-01,-2.000000000000000000e+00,-2.000000000000000000e+00,-5.000000000000000000e+00,-1.000000000000000000e+01,-6.000000000000000000e+00,-5.000000000000000000e+00,-2.000000000000000000e+00,-3.000000000000000000e+00,-6.094360351562500000e-01,7.196044921875000000e-02,4.937744140625000000e-02,7.880249023437500000e-01,-1.962890625000000000e-01,-9.619140625000000000e-01,2.519531250000000000e-01,2.500000000000000000e-01,4.125000000000000000e+00,-2.937500000000000000e+00
9.400000000000008349e-01,-2.000000000000000000e+00,-2.000000000000000000e+00,-5.000000000000000000e+00,-1.000000000000000000e+01,-6.000000000000000000e+00,-5.000000000000000000e+00,-2.000000000000000000e+00,-3.000000000000000000e+00,-6.094360351562500000e-01,7.196044921875000000e-02,4.937744140625000000e-02,7.880249023437500000e-01,-1.962890625000000000e-01,-9.619140625000000000e-01,2.519531250000000000e-01,2.500000000000000000e-01,4.125000000000000000e+00,-2.937500000000000000e+00
9.450000000000008393e-01,-2.000000000000000000e+00,-2.000000000000000000e+00,-5.000000000000000000e+00,-1.000000000000000000e+01,-6.000000000000000000e+00,-5.000000000000000000e+00,-2.000000000000000000e+00,-3.000000000000000000e+00,-6.094360351562500000e-01,7.196044921875000000e-02,4.937744140625000000e-02,7.880249023437500000e-01,-1.962890625000000000e-01,-9.619140625000000000e-01,2.519531250000000000e-01,2.500000000000000000e-01,4.125000000000000000e+00,-2.937500000000000000e+00
9.500000000000008438e-01,0.000000000000000000e+00,-2.000000000000000000e+00,-3.000000000000000000e+00,-2.000000000000000000e+00,0.000000000000000000e+00,-5.000000000000000000e+00,-3.000000000000000000e+00,-1.000000000000000000e+00,-6.094360351562500000e-01,7.196044921875000000e-02,4.937744140625000000e-02,7.880249023437500000e-01,-1.962890625000000000e-01,-9.619140625000000000e-01,2.519531250000000000e-01,2.500000000000000000e-01,4.125000000000000000e+00,-2.937500000000000000e+00
9.550000000000008482e-01,0.000000000000000000e+00,-2.000000000000000000e+00,-3.000000000000000000e+00,-2.000000000000000000e+00,0.000000000000000000e+00,-5.000000000000000000e+00,-3.000000000000000000e+00,-1.000000000000000000e+00,-6.094970703125000000e-01,7.226562500000000000e-02,4.870605468750000000e-02,7.879638671875000000e-01,-1.923828125000000000e-01,-9.667968750000000000e-01,2.514648437500000000e-01,-5.625000000000000000e-01,3.375000000000000000e+00,-3.062500000000000000e+00
9.600000000000008527e-01,0.000000000000000000e+00,0.000000000000000000e+00,-1.000000000000000000e+00,2.000000000000000000e+00,-4.000000000000000000e+00,0.000000000000000000e+00,5.000000000000000000e+00,1.000000000000000000e+00,-6.094970703125000000e-01,7.226562500000000000e-02,4.870605468750000000e-02,7.879638671875000000e-01,-1.923828125000000000e-01,-9.667968750000000000e-01,2.514648437500000000e-01,-5.625000000000000000e-01,3.375000000000000000e+00,-3.062500000000000000e+00
9.650000000000007461e-01,0.000000000000000000e+00,0.000000000000000000e+00,-1.000000000000000000e+00,2.000000000000000000e+00,-4.000000000000000000e+00,0.000000000000000000e+00,5.000000000000000000e+00,1.000000000000000000e+00,-6.094970703125000000e-01,7.226562500000000000e-02,4.870605468750000000e-02,7.879638671875000000e-01,-1.923828125000000000e-01,-9.667968750000000000e-01,2.514648437500000000e-01,-5.625000000000000000e-01,3.375000000000000000e+00,-3.062500000000000000e+00
9.700000000000007505e-01,-1.000000000000000000e+00,1.000000000000000000e+00,-6.000000000000000000e+00,-7.000000000000000000e+00,-2.000000000000000000e+00,1.000000000000000000e+00,0.000000000000000000e+00,0.000000000000000000e+00,-6.094970703125000000e-01,7.226562500000000000e-02,4.870605468750000000e-02,7.879638671875000000e-01,-1.923828125000000000e-01,-9.667968750000000000e-01,2.514648437500000000e-01,-5.625000000000000000e-01,3.375000000000000000e+00,-3.062500000000000000e+00
9.750000000000007550e-01,-1.000000000000000000e+00,1.000000000000000000e+00,-6.000000000000000000e+00,-7.000000000000000000e+00,-2.000000000000000000e+00,1.000000000000000000e+00,0.000000000000000000e+00,0.000000000000000000e+00,-6.096801757812500000e-01,7.244873046875000000e-02,4.815673828125000000e-02,7.878417968750000000e-01,-1.933593750000000000e-01,-9.741210937500000000e-01,2.456054687500000000e-01,-2.500000000000000000e-01,2.437500000000000000e+00,-2.875000000000000000e+00
9.800000000000007594e-01,-3.000000000000000000e+00,-2.000000000000000000e+00,-5.000000000000000000e+00,-6.000000000000000000e+00,-6.000000000000000000e+00,-5.000000000000000000e+00,-3.000000000000000000e+00,-2.000000000000000000e+00,-6.096801757812500000e-01,7.244873046875000000e-02,4.815673828125000000e-02,7.878417968750000000e-01,-1.933593750000000000e-01,-9.741210937500000000e-01,2.456054687500000000e-01,-2.500000000000000000e-01,2.437500000000000000e+00,-2.875000000000000000e+00
9.850000000000007638e-01,0.000000000000000000e+00,0.000000000000000000e+00,3.000000000000000000e+00,9.000000000000000000e+00,4.000000000000000000e+00,1.000000000000000000e+00,0.000000000000000000e+00,0.000000000000000000e+00,-6.096801757812500000e-01,7.244873046875000000e-02,4.815673828125000000e-02,7.878417968750000000e-01,-1.933593750000000000e-01,-9.741210937500000000e-01,2.456054687500000000e-01,-2.500000000000000000e-01,2.437500000000000000e+00,-2.875000000000000000e+00
9.900000000000007683e-01,0.000000000000000000e+00,0.000000000000000000e+00,3.000000000000000000e+00,9.000000000000000000e+00,4.000000000000000000e+00,1.000000000000000000e+00,0.000000000000000000e+00,0.000000000000000000e+00,-6.097412109375000000e-01,7.244873046875000000e-02,4.772949218750000000e-02,7.878417968750000000e-01,-1.850585937500000000e-01,-9.702148437500000000e-01,2.431640625000000000e-01,0.000000000000000000e+00,1.375000000000000000e+00,-2.562500000000000000e+00
9.950000000000007727e-01,0.000000000000000000e+00,0.000000000000000000e+00,3.000000000000000000e+00,9.000000000000000000e+00,4.000000000000000000e+00,1.000000000000000000e+00,0.000000000000000000e+00,0.000000000000000000e+00,-6.097412109375000000e-01,7.244873046875000000e-02,4.772949218750000000e-02,7.878417968750000000e-01,-1.850585937500000000e-01,-9.702148437500000000e-01,2.431640625000000000e-01,0.000000000000000000e+00,1.375000000000000000e+00,-2.562500000000000000e+00
1.000000000000000888e+00,-1.000000000000000000e+00,-2.000000000000000000e+00,-4.000000000000000000e+00,-6.000000000000000000e+00,-3.000000000000000000e+00,-2.000000000000000000e+00,-3.000000000000000000e+00,-3.000000000000000000e+00,-6.097412109375000000e-01,7.244873046875000000e-02,4.772949218750000000e-02,7.878417968750000000e-01,-1.850585937500000000e-01,-9.702148437500000000e-01,2.431640625000000000e-01,0.000000000000000000e+00,1.375000000000000000e+00,-2.562500000000000000e+00
1.005000000000000560e+00,-1.000000000000000000e+00,-2.000000000000000000e+00,-3.000000000000000000e+00,0.000000000000000000e+00,-4.000000000000000000e+00,-1.000000000000000000e+00,-2.000000000000000000e+00,-3.000000000000000000e+00,-6.097412109375000000e-01,7.244873046875000000e-02,4.772949218750000000e-02,7.878417968750000000e-01,-1.850585937500000000e-01,-9.702148437500000000e-01,2.431640625000000000e-01,0.000000000000000000e+00,1.375000000000000000e+00,-2.562500000000000000e+00
1.010000000000000453e+00,-1.000000000000000000e+00,-2.000000000000000000e+00,-3.000000000000000000e+00,0.000000000000000000e+00,-4.000000000000000000e+00,-1.000000000000000000e+00,-2.000000000000000000e+00,-3.000000000000000000e+00,-6.099243164062500000e-01,7.238769531250000000e-02,4.736328125000000000e-02,7.877197265625000000e-01,-1.811523437500000000e-01,-9.750976562500000000e-01,2.397460937500000000e-01,-5.000000000000000000e-01,8.750000000000000000e-01,-2.437500000000000000e+00
1.015000000000000346e+00,-1.000000000000000000e+00,-2.000000000000000000e+00,-3.000000000000000000e+00,0.000000000000000000e+00,-4.000000000000000000e+00,-1.000000000000000000e+00,-2.000000000000000000e+00,-3.000000000000000000e+00,-6.099243164062500000e-01,7.238769531250000000e-02,4.736328125000000000e-02,7.877197265625000000e-01,-1.811523437500000000e-01,-9.750976562500000000e-01,2.397460937500000000e-01,-5.000000000000000000e-01,8.750000000000000000e-01,-2.437500000000000000e+00
1.020000000000000240e+00,-1.000000000000000000e+00,-2.000000000000000000e+00,-5.000000000000000000e+00,-5.000000000000000000e+00,-5.000000000000000000e+00,-5.000000000000000000e+00,-3.000000000000000000e+00,0.000000000000000000e+00,-6.099243164062500000e-01,7.238769531250000000e-02,4.736328125000000000e-02,7.877197265625000000e-01,-1.811523437500000000e-01,-9.750976562500000000e-01,2.397460937500000000e-01,-5.000000000000000000e-01,8.750000000000000000e-01,-2.437500000000000000e+00
1.024999999999999911e+00,-1.000000000000000000e+00,-4.000000000000000000e+00,-9.000000000000000000e+00,2.000000000000000000e+00,0.000000000000000000e+00,-3.000000000000000000e+00,1.000000000000000000e+00,-1.000000000000000000e+00,-6.099243164062500000e-01,7.238769531250000000e-02,4.736328125000000000e-02,7.877197265625000000e-01,-1.811523437500000000e-01,-9.750976562500000000e-01,2.397460937500000000e-01,-5.000000000000000000e-01,8.750000000000000000e-01,-2.437500000000000000e+00
1.030000000000000027e+00,-1.000000000000000000e+00,-4.000000000000000000e+00,-9.000000000000000000e+00,2.000000000000000000e+00,0.000000000000000000e+00,-3.000000000000000000e+00,1.000000000000000000e+00,-1.000000000000000000e+00,-6.098022460937500000e-01,7.232666015625000000e-02,4.705810546875000000e-02,7.878417968750000000e-01,-1.796875000000000000e-01,-9.736328125000000000e-01,2.568359375000000000e-01,6.875000000000000000e-01,3.750000000000000000e-01,-1.937500000000000000e+00
1.034999999999999920e+00,-1.000000000000000000e+00,-4.000000000000000000e+00,-9.000000000000000000e+00,2.000000000000000000e+00,0.000000000000000000e+00,-3.000000000000000000e+00,1.000000000000000000e+00,-1.000000000000000000e+00,-6.098022460937500000e-01,7.232666015625000000e-02,4.705810546875000000e-02,7.878417968750000000e-01,-1.796875000000000000e-01,-9.736328125000000000e-01,2.568359375000000000e-01,6.875000000000000000e-01,3.750000000000000000e-01,-1.937500000000000000e+00
1.039999999999999813e+00,-1.000000000000000000e+00,0.000000000000000000e+00,5.000000000000000000e+00,5.000000000000000000e+00,0.000000000000000000e+00,1.000000000000000000e+00,0.000000000000000000e+00,1.000000000000000000e+00,-6.098022460937500000e-01,7.232666015625000000e-02,4.705810546875000000e-02,7.878417968750000000e-01,-1.796875000000000000e-01,-9.736328125000000000e-01,2.568359375000000000e-01,6.875000000000000000e-01,3.750000000000000000e-01,-1.937500000000000000e+00
1.044999999999999707e+00,-1.000000000000000000e+00,0.000000000000000000e+00,5.000000000000000000e+00,5.000000000000000000e+00,0.000000000000000000e+00,1.000000000000000000e+00,0.000000000000000000e+00,1.000000000000000000e+00,-6.098022460937500000e-01,7.232666015625000000e-02,4.705810546875000000e-02,7.878417968750000000e-01,-1.796875000000000000e-01,-9.736328125000000000e-01,2.568359375000000000e-01,6.875000000000000000e-01,3.750000000000000000e-01,-1.937500000000000000e+00
1.049999999999999600e+00,-1.000000000000000000e+00,0.000000000000000000e+00,5.000000000000000000e+00,5.000000000000000000e+00,0.000000000000000000e+00,1.000000000000000000e+00,0.000000000000000000e+00,1.000000000000000000e+00,-6.098022460937500000e-01,7.232666015625000000e-02,4.711914062500000000e-02,7.877807617187500000e-01,-1.894531250000000000e-01,-9.916992187500000000e-01,2.470703125000000000e-01,1.875000000000000000e-01,-1.250000000000000000e-01,-1.000000000000000000e+00
1.054999999999999494e+00,-1.000000000000000000e+00,-1.000000000000000000e+00,-1.000000000000000000e+00,2.000000000000000000e+00,1.000000000000000000e+00,4.000000000000000000e+00,2.000000000000000000e+00,0.000000000000000000e+00,-6.098022460937500000e-01,7.232666015625000000e-02,4.711914062500000000e-02,7.877807617187500000e-01,-1.894531250000000000e-01,-9.916992187500000000e-01,2.470703125000000000e-01,1.875000000000000000e-01,-1.250000000000000000e-01,-1.000000000000000000e+00
1.059999999999999387e+00,-1.000000000000000000e+00,-1.000000000000000000e+00,-1.000000000000000000e+00,2.000000000000000000e+00,1.000000000000000000e+00,4.000000000000000000e+00,2.000000000000000000e+00,0.000000000000000000e+00,-6.098022460937500000e-01,7.232666015625000000e-02,4.711914062500000000e-02,7.877807617187500000e-01,-1.894531250000000000e-01,-9.916992187500000000e-01,2.470703125000000000e-01,1.875000000000000000e-01,-1.250000000000000000e-01,-1.000000000000000000e+00
1.064999999999999281e+00,-1.000000000000000000e+00,-1.000000000000000000e+00,-2.000000000000000000e+00,-8.000000000000000000e+00,-6.000000000000000000e+00,-4.000000000000000000e+00,-2.000000000000000000e+00,-2.000000000000000000e+00,-6.098022460937500000e-01,7.232666015625000000e-02,4.711914062500000000e-02,7.877807617187500000e-01,-1.894531250000000000e-01,-9.916992187500000000e-01,2.470703125000000000e-01,1.875000000000000000e-01,-1.250000000000000000e-01,-1.000000000000000000e+00
1.069999999999999174e+00,-1.000000000000000000e+00,-1.000000000000000000e+00,-2.000000000000000000e+00,-8.000000000000000000e+00,-6.000000000000000000e+00,-4.000000000000000000e+00,-2.000000000000000000e+00,-2.000000000000000000e+00,-6.098022460937500000e-01,7.232666015625000000e-02,4.711914062500000000e-02,7.877807617187500000e-01,-1.894531250000000000e-01,-9.916992187500000000e-01,2.470703125000000000e-01,1.875000000000000000e-01,-1.250000000000000000e-01,-1.000000000000000000e+00
1.074999999999999067e+00,-1.000000000000000000e+00,-1.000000000000000000e+00,-2.000000000000000000e+00,-8.000000000000000000e+00,-6.000000000000000000e+00,-4.000000000000000000e+00,-2.000000000000000000e+00,-2.000000000000000000e+00,-6.095581054687500000e-01,7.244873046875000000e-02,4.705810546875000000e-02,7.880249023437500000e-01,-1.884765625000000000e-01,-9.643554687500000000e-01,2.480468750000000000e-01,2.125000000000000000e+00,3.125000000000000000e-01,-8.125000000000000000e-01
1.079999999999998961e+00,0.000000000000000000e+00,0.000000000000000000e+00,0.000000000000000000e+00,2.000000000000000000e+00,2.000000000000000000e+00,-2.000000000000000000e+00,-1.000000000000000000e+00,-3.000000000000000000e+00,-6.095581054687500000e-01,7.244873046875000000e-02,4.705810546875000000e-02,7.880249023437500000e-01,-1.884765625000000000e-01,-9.643554687500000000e-01,2.480468750000000000e-01,2.125000000000000000e+00,3.125000000000000000e-01,-8.125000000000000000e-01
1.084999999999998854e+00,0.000000000000000000e+00,0.000000000000000000e+00,0.000000000000000000e+00,2.000000000000000000e+00,2.000000000000000000e+00,-2.000000000000000000e+00,-1.000000000000000000e+00,-3.000000000000000000e+00,-6.095581054687500000e-01,7.244873046875000000e-02,4.705810546875000000e-02,7.880249023437500000e-01,-1.884765625000000000e-01,-9.643554687500000000e-01,2.480468750000000000e-01,2.125000000000000000e+00,3.125000000000000000e-01,-8.125000000000000000e-01
1.089999999999998748e+00,3.000000000000000000e+00,0.000000000000000000e+00,-3.000000000000000000e+00,1.000000000000000000e+00,2.000000000000000000e+00,2.000000000000000000e+00,2.000000000000000000e+00,1.000000000000000000e+00,-6.095581054687500000e-01,7.244873046875000000e-02,4.705810546875000000e-02,7.880249023437500000e-01,-1.884765625000000000e-01,-9.643554687500000000e-01,2.480468750000000000e-01,2.125000000000000000e+00,3.125000000000000000e-01,-8.125000000000000000e-01
1.094999999999998641e+00,3.000000000000000000e+00,0.000000000000000000e+00,-3.000000000000000000e+00,1.000000000000000000e+00,2.000000000000000000e+00,2.000000000000000000e+00,2.000000000000000000e+00,1.000000000000000000e+00,-6.095581054687500000e-01,7.244873046875000000e-02,4.705810546875000000e-02,7.880249023437500000e-01,-1.884765625000000000e-01,-9.643554687500000000e-01,2.480468750000000000e-01,2.125000000000000000e+00,3.125000000000000000e-01,-8.125000000000000000e-01
1.099999999999998312e+00,3.000000000000000000e+00,0.000000000000000000e+00,-3.000000000000000000e+00,1.000000000000000000e+00,2.000000000000000000e+00,2.000000000000000000e+00,2.000000000000000000e+00,1.000000000000000000e+00,-6.095581054687500000e-01,7.250976562500000000e-02,4.705810546875000000e-02,7.880249023437500000e-01,-1.875000000000000000e-01,-9.707031250000000000e-01,2.548828125000000000e-01,-6.250000000000000000e-02,2.500000000000000000e-01,6.250000000000000000e-02
1.104999999999998428e+00,3.000000000000000000e+00,0.000000000000000000e+00,-3.000000000000000000e+00,1.000000000000000000e+00,2.000000000000000000e+00,2.000000000000000000e+00,2.000000000000000000e+00,1.000000000000000000e+00,-6.095581054687500000e-01,7.250976562500000000e-02,4.705810546875000000e-02,7.880249023437500000e-01,-1.875000000000000000e-01,-9.707031250000000000e-01,2.548828125000000000e-01,-6.250000000000000000e-02,2.500000000000000000e-01,6.250000000000000000e-02
1.109999999999998321e+00,-2.000000000000000000e+00,-1.000000000000000000e+00,-1.100000000000000000e+01,-1.600000000000000000e+01,-4.000000000000000000e+00,-2.000000000000000000e+00,-3.000000000000000000e+00,-3.000000000000000000e+00,-6.095581054687500000e-01,7.250976562500000000e-02,4.705810546875000000e-02,7.880249023437500000e-01,-1.875000000000000000e-01,-9.707031250000000000e-01,2.548828125000000000e-01,-6.250000000000000000e-02,2.500000000000000000e-01,6.250000000000000000e-02
1.114999999999998215e+00,-2.000000000000000000e+00,-1.000000000000000000e+00,-1.100000000000000000e+01,-1.600000000000000000e+01,-4.000000000000000000e+00,-2.000000000000000000e+00,-3.000000000000000000e+00,-3.000000000000000000e+00,-6.095581054687500000e-01,7.250976562500000000e-02,4.705810546875000000e-02,7.880249023437500000e-01,-1.875000000000000000e-01,-9.707031250000000000e-01,2.548828125000000000e-01,-6.250000000000000000e-02,2.500000000000000000e-01,6.250000000000000000e-02
1.119999999999998108e+00,-2.000000000000000000e+00,-1.000000000000000000e+00,-1.100000000000000000e+01,-1.600000000000000000e+01,-4.000000000000000000e+00,-2.000000000000000000e+00,-3.000000000000000000e+00,-3.000000000000000000e+00,-6.098632812500000000e-01,7.263183593750000000e-02,4.724121093750000000e-02,7.877197265625000000e-01,-1.855468750000000000e-01,-9.687500000000000000e-01,2.451171875000000000e-01,-2.250000000000000000e+00,0.000000000000000000e+00,6.875000000000000000e-01
1.124999999999998002e+00,1.000000000000000000e+00,-1.000000000000000000e+00,4.000000000000000000e+00,2.000000000000000000e+00,9.000000000000000000e+00,3.000000000000000000e+00,0.000000000000000000e+00,1.000000000000000000e+00,-6.098632812500000000e-01,7.263183593750000000e-02,4.724121093750000000e-02,7.877197265625000000e-01,-1.855468750000000000e-01,-9.687500000000000000e-01,2.451171875000000000e-01,-2.250000000000000000e+00,0.000000000000000000e+00,6.875000000000000000e-01
1.129999999999997895e+00,1.000000000000000000e+00,-1.000000000000000000e+00,4.000000000000000000e+00,2.000000000000000000e+00,9.000000000000000000e+00,3.000000000000000000e+00,0.000000000000000000e+00,1.000000000000000000e+00,-6.098632812500000000e-01,7.263183593750000000e-02,4.724121093750000000e-02,7.877197265625000000e-01,-1.855468750000000000e-01,-9.687500000000000000e-01,2.451171875000000000e-01,-2.250000000000000000e+00,0.000000000000000000e+00,6.875000000000000000e-01
1.134999999999997788e+00,1.000000000000000000e+00,-1.000000000000000000e+00,4.000000000000000000e+00,2.000000000000000000e+00,9.000000000000000000e+00,3.000000000000000000e+00,0.000000000000000000e+00,1.000000000000000000e+00,-6.098632812500000000e-01,7.263183593750000000e-02,4.724121093750000000e-02,7.877197265625000000e-01,-1.855468750000000000e-01,-9.687500000000000000e-01,2.451171875000000000e-01,-2.250000000000000000e+00,0.000000000000000000e+00,6.875000000000000000e-01
1.139999999999997682e+00,-2.000000000000000000e+00,-1.000000000000000000e+00,0.000000000000000000e+00,-5.000000000000000000e+00,-4.000000000000000000e+00,-9.000000000000000000e+00,-3.000000000000000000e+00,-2.000000000000000000e+00,-6.098632812500000000e-01,7.263183593750000000e-02,4.724121093750000000e-02,7.877197265625000000e-01,-1.855468750000000000e-01,-9.687500000000000000e-01,2.451171875000000000e-01,-2.250000000000000000e+00,0.000000000000000000e+00,6.875000000000000000e-01
1.144999999999997575e+00,-2.000000000000000000e+00,-1.000000000000000000e+00,0.000000000000000000e+00,-5.000000000000000000e+00,-4.000000000000000000e+00,-9.000000000000000000e+00,-3.000000000000000000e+00,-2.000000000000000000e+00,-6.099853515625000000e-01,7.281494140625000000e-02,4.748535156250000000e-02,7.875976562500000000e-01,-1.796875000000000000e-01,-9.858398437500000000e-01,2.465820312500000000e-01,-8.750000000000000000e-01,-6.250000000000000000e-02,1.312500000000000000e+00
1.149999999999997691e+00,-2.000000000000000000e+00,-4.000000000000000000e+00,4.000000000000000000e+00,2.000000000000000000e+00,-5.000000000000000000e+00,-2.000000000000000000e+00,0.000000000000000000e+00,0.000000000000000000e+00,-6.099853515625000000e-01,7.281494140625000000e-02,4.748535156250000000e-02,7.875976562500000000e-01,-1.796875000000000000e-01,-9.858398437500000000e-01,2.465820312500000000e-01,-8.750000000000000000e-01,-6.250000000000000000e-02,1.312500000000000000e+00
1.154999999999997362e+00,-1.000000000000000000e+00,-2.000000000000000000e+00,2.000000000000000000e+00,5.000000000000000000e+00,9.000000000000000000e+00,3.000000000000000000e+00,3.000000000000000000e+00,0.000000000000000000e+00,-6.099853515625000000e-01,7.281494140625000000e-02,4.748535156250000000e-02,7.875976562500000000e-01,-1.796875000000000000e-01,-9.858398437500000000e-01,2.465820312500000000e-01,-8.750000000000000000e-01,-6.250000000000000000e-02,1.312500000000000000e+00
1.159999999999997256e+00,-1.000000000000000000e+00,-2.000000000000000000e+00,2.000000000000000000e+00,5.000000000000000000e+00,9.000000000000000000e+00,3.000000000000000000e+00,3.000000000000000000e+00,0.000000000000000000e+00,-6.098632812500000000e-01,7.312011718750000000e-02,4.772949218750000000e-02,7.876586914062500000e-01,-1.870117187500000000e-01,-9.707031250000000000e-01,2.553710937500000000e-01,2.500000000000000000e-01,2.500000000000000000e-01,1.687500000000000000e+00
1.164999999999997149e+00,-1.000000000000000000e+00,-2.000000000000000000e+00,2.000000000000000000e+00,5.000000000000000000e+00,9.000000000000000000e+00,3.000000000000000000e+00,3.000000000000000000e+00,0.000000000000000000e+00,-6.098632812500000000e-01,7.312011718750000000e-02,4.772949218750000000e-02,7.876586914062500000e-01,-1.870117187500000000e-01,-9.707031250000000000e-01,2.553710937500000000e-01,2.500000000000000000e-01,2.500000000000000000e-01,1.687500000000000000e+00
1.169999999999997042e+00,0.000000000000000000e+00,-2.000000000000000000e+00,-4.000000000000000000e+00,-9.000000000000000000e+00,-7.000000000000000000e+00,0.000000000000000000e+00,-3.000000000000000000e+00,0.000000000000000000e+00,-6.097412109375000000e-01,7.336425781250000000e-02,4.809570312500000000e-02,7.877197265625000000e-01,-1.821289062500000000e-01,-9.643554687500000000e-01,2.602539062500000000e-01,6.250000000000000000e-02,-1.875000000000000000e-01,1.875000000000000000e+00
1.174999999999996936e+00,0.000000000000000000e+00,-2.000000000000000000e+00,-4.000000000000000000e+00,-9.000000000000000000e+00,-7.000000000000000000e+00,0.000000000000000000e+00,-3.000000000000000000e+00,0.000000000000000000e+00,-6.097412109375000000e-01,7.336425781250000000e-02,4.809570312500000000e-02,7.877197265625000000e-01,-1.821289062500000000e-01,-9.643554687500000000e-01,2.602539062500000000e-01,6.250000000000000000e-02,-1.875000000000000000e-01,1.875000000000000000e+00
1.179999999999996829e+00,1.000000000000000000e+00,-1.000000000000000000e+00,3.000000000000000000e+00,8.000000000000000000e+00,-1.000000000000000000e+00,0.000000000000000000e+00,-1.000000000000000000e+00,-1.000000000000000000e+00,-6.097412109375000000e-01,7.336425781250000000e-02,4.809570312500000000e-02,7.877197265625000000e-01,-1.821289062500000000e-01,-9.643554687500000000e-01,2.602539062500000000e-01,6.250000000000000000e-02,-1.875000000000000000e-01,1.875000000000000000e+00
1.184999999999996723e+00,1.000000000000000000e+00,-1.000000000000000000e+00,3.000000000000000000e+00,8.000000000000000000e+00,-1.000000000000000000e+00,0.000000000000000000e+00,-1.000000000000000000e+00,-1.000000000000000000e+00,-6.097412109375000000e-01,7.336425781250000000e-02,4.809570312500000000e-02,7.877197265625000000e-01,-1.821289062500000000e-01,-9.643554687500000000e-01,2.602539062500000000e-01,6.250000000000000000e-02,-1.875000000000000000e-01,1.875000000000000000e+00
1.189999999999996616e+00,-2.000000000000000000e+00,-1.000000000000000000e+00,-1.000000000000000000e+00,5.000000000000000000e+00,1.000000000000000000e+00,-1.000000000000000000e+00,0.000000000000000000e+00,-3.000000000000000000e+00,-6.097412109375000000e-01,7.336425781250000000e-02,4.809570312500000000e-02,7.877197265625000000e-01,-1.821289062500000000e-01,-9.643554687500000000e-01,2.602539062500000000e-01,6.250000000000000000e-02,-1.875000000000000000e-01,1.875000000000000000e+00
1.194999999999996509e+00,-2.000000000000000000e+00,-1.000000000000000000e+00,-1.000000000000000000e+00,5.000000000000000000e+00,1.000000000000000000e+00,-1.000000000000000000e+00,0.000000000000000000e+00,-3.000000000000000000e+00,-6.097412109375000000e-01,7.336425781250000000e-02,4.809570312500000000e-02,7.877197265625000000e-01,-1.821289062500000000e-01,-9.643554687500000000e-01,2.602539062500000000e-01,6.250000000000000000e-02,-1.875000000000000000e-01,1.875000000000000000e+00
1.199999999999996403e+00,-2.000000000000000000e+00,-1.000000000000000000e+00,-1.000000000000000000e+00,5.000000000000000000e+00,1.000000000000000000e+00,-1.000000000000000000e+00,0.000000000000000000e+00,-3.000000000000000000e+00,-6.098022460937500000e-01,7.354736328125000000e-02,4.852294921875000000e-02,7.875976562500000000e-01,-1.831054687500000000e-01,-9.624023437500000000e-01,2.534179687500000000e-01,-1.500000000000000000e+00,-7.500000000000000000e-01,2.062500000000000000e+00
1.204999999999996296e+00,-2.000000000000000000e+00,-1.000000000000000000e+00,-1.000000000000000000e+00,5.000000000000000000e+00,1.000000000000000000e+00,-1.000000000000000000e+00,0.000000000000000000e+00,-3.000000000000000000e+00,-6.098022460937500000e-01,7.354736328125000000e-02,4.852294921875000000e-02,7.875976562500000000e-01,-1.831054687500000000e-01,-9.624023437500000000e-01,2.534179687500000000e-01,-1.500000000000000000e+00,-7.500000000000000000e-01,2.062500000000000000e+00
1.209999999999996190e+00,0.000000000000000000e+00,1.000000000000000000e+00,-1.000000000000000000e+00,0.000000000000000000e+00,2.000000000000000000e+00,0.000000000000000000e+00,-3.000000000000000000e+00,-1.000000000000000000e+00,-6.098022460937500000e-01,7.354736328125000000e-02,4.852294921875000000e-02,7.875976562500000000e-01,-1.831054687500000000e-01,-9.624023437500000000e-01,2.534179687500000000e-01,-1.500000000000000000e+00,-7.500000000000000000e-01,2.062500000000000000e+00
1.214999999999996083e+00,-4.000000000000000000e+00,-4.000000000000000000e+00,-4.000000000000000000e+00,3.000000000000000000e+00,1.000000000000000000e+00,0.000000000000000000e+00,-3.000000000000000000e+00,-2.000000000000000000e+00,-6.098022460937500000e-01,7.354736328125000000e-02,4.852294921875000000e-02,7.875976562500000000e-01,-1.831054687500000000e-01,-9.624023437500000000e-01,2.534179687500000000e-01,-1.500000000000000000e+00,-7.500000000000000000e-01,2.062500000000000000e+00
1.219999999999995977e+00,-4.000000000000000000e+00,-4.000000000000000000e+00,-4.000000000000000000e+00,3.000000000000000000e+00,1.000000000000000000e+00,0.000000000000000000e+00,-3.000000000000000000e+00,-2.000000000000000000e+00,-6.098022460937500000e-01,7.354736328125000000e-02,4.852294921875000000e-02,7.875976562500000000e-01,-1.831054687500000000e-01,-9.624023437500000000e-01,2.534179687500000000e-01,-1.500000000000000000e+00,-7.500000000000000000e-01,2.062500000000000000e+00
1.224999999999996092e+00,-4.000000000000000000e+00,-4.000000000000000000e+00,-4.000000000000000000e+00,3.000000000000000000e+00,1.000000000000000000e+00,0.000000000000000000e+00,-3.000000000000000000e+00,-2.000000000000000000e+00,-6.101074218750000000e-01,7.348632812500000000e-02,4.882812500000000000e-02,7.874145507812500000e-01,-1.767578125000000000e-01,-9.702148437500000000e-01,2.470703125000000000e-01,-2.000000000000000000e+00,-1.250000000000000000e+00,1.437500000000000000e+00
1.229999999999995763e+00,-4.000000000000000000e+00,-4.000000000000000000e+00,-4.000000000000000000e+00,3.000000000000000000e+00,1.000000000000000000e+00,0.000000000000000000e+00,-3.000000000000000000e+00,-2.000000000000000000e+00,-6.101074218750000000e-01,7.348632812500000000e-02,4.882812500000000000e-02,7.874145507812500000e-01,-1.767578125000000000e-01,-9.702148437500000000e-01,2.470703125000000000e-01,-2.000000000000000000e+00,-1.250000000000000000e+00,1.437500000000000000e+00
1.234999999999995657e+00,-1.000000000000000000e+00,-2.000000000000000000e+00,-6.000000000000000000e+00,-6.000000000000000000e+00,-2.000000000000000000e+00,-5.000000000000000000e+00,-3.000000000000000000e+00,-1.000000000000000000e+00,-6.101074218750000000e-01,7.348632812500000000e-02,4.882812500000000000e-02,7.874145507812500000e-01,-1.767578125000000000e-01,-9.702148437500000000e-01,2.470703125000000000e-01,-2.000000000000000000e+00,-1.250000000000000000e+00,1.437500000000000000e+00
1.239999999999995550e+00,0.000000000000000000e+00,-1.000000000000000000e+00,3.000000000000000000e+00,3.000000000000000000e+00,1.000000000000000000e+00,-1.000000000000000000e+00,1.000000000000000000e+00,-1.000000000000000000e+00,-6.101074218750000000e-01,7.348632812500000000e-02,4.882812500000000000e-02,7.874145507812500000e-01,-1.767578125000000000e-01,-9.702148437500000000e-01,2.470703125000000000e-01,-2.000000000000000000e+00,-1.250000000000000000e+00,1.437500000000000000e+00
