1.650499999999999901e+01,0.000000000000000000e+00,0.000000000000000000e+00,4.000000000000000000e+00,8.000000000000000000e+00,5.000000000000000000e+00,3.000000000000000000e+00,0.000000000000000000e+00,1.000000000000000000e+00,0.000000000000000000e+00
1.651000000000000156e+01,-3.000000000000000000e+00,0.000000000000000000e+00,-1.000000000000000000e+00,-2.800000000000000000e+01,-2.000000000000000000e+00,0.000000000000000000e+00,0.000000000000000000e+00,-2.000000000000000000e+00,0.000000000000000000e+00
1.651500000000000057e+01,-1.000000000000000000e+00,2.000000000000000000e+00,-1.000000000000000000e+00,-5.000000000000000000e+00,3.000000000000000000e+00,1.000000000000000000e+00,-1.000000000000000000e+00,-2.000000000000000000e+00,0.000000000000000000e+00
1.651999999999999957e+01,-5.000000000000000000e+00,-6.000000000000000000e+00,-7.000000000000000000e+00,1.100000000000000000e+01,-5.000000000000000000e+00,-1.000000000000000000e+00,-2.000000000000000000e+00,-4.000000000000000000e+00,0.000000000000000000e+00
1.652499999999999858e+01,0.000000000000000000e+00,-2.000000000000000000e+00,1.000000000000000000e+00,1.000000000000000000e+00,-4.000000000000000000e+00,-5.000000000000000000e+00,-4.000000000000000000e+00,-4.000000000000000000e+00,0.000000000000000000e+00
1.653000000000000114e+01,-1.000000000000000000e+00,-1.000000000000000000e+00,0.000000000000000000e+00,5.000000000000000000e+00,3.000000000000000000e+00,1.000000000000000000e+00,0.000000000000000000e+00,-1.000000000000000000e+00,0.000000000000000000e+00
1.653500000000000014e+01,-4.000000000000000000e+00,-5.000000000000000000e+00,-9.000000000000000000e+00,-9.000000000000000000e+00,-6.000000000000000000e+00,-5.000000000000000000e+00,-2.000000000000000000e+00,-3.000000000000000000e+00,0.000000000000000000e+00
1.653999999999999915e+01,-1.000000000000000000e+00,0.000000000000000000e+00,-6.000000000000000000e+00,-1.800000000000000000e+01,1.000000000000000000e+00,2.000000000000000000e+00,-2.000000000000000000e+00,-1.000000000000000000e+00,0.000000000000000000e+00
1.654500000000000171e+01,0.000000000000000000e+00,0.000000000000000000e+00,5.000000000000000000e+00,2.600000000000000000e+01,-3.000000000000000000e+00,-9.000000000000000000e+00,-1.000000000000000000e+00,-2.000000000000000000e+00,0.000000000000000000e+00
1.655000000000000071e+01,-1.000000000000000000e+00,-4.000000000000000000e+00,-5.000000000000000000e+00,-2.600000000000000000e+01,-3.000000000000000000e+00,1.000000000000000000e+00,-2.000000000000000000e+00,0.000000000000000000e+00,0.000000000000000000e+00
1.655499999999999972e+01,-2.000000000000000000e+00,-3.000000000000000000e+00,-6.000000000000000000e+00,-1.700000000000000000e+01,-7.000000000000000000e+00,-3.000000000000000000e+00,-3.000000000000000000e+00,-1.000000000000000000e+00,0.000000000000000000e+00
1.655999999999999872e+01,-2.000000000000000000e+00,-2.000000000000000000e+00,0.000000000000000000e+00,8.000000000000000000e+00,-3.000000000000000000e+00,-6.000000000000000000e+00,-3.000000000000000000e+00,-4.000000000000000000e+00,0.000000000000000000e+00
1.656500000000000128e+01,0.000000000000000000e+00,1.000000000000000000e+00,0.000000000000000000e+00,-8.000000000000000000e+00,0.000000000000000000e+00,0.000000000000000000e+00,2.000000000000000000e+00,0.000000000000000000e+00,0.000000000000000000e+00
1.657000000000000028e+01,3.000000000000000000e+00,4.000000000000000000e+00,1.500000000000000000e+01,4.600000000000000000e+01,1.100000000000000000e+01,7.000000000000000000e+00,3.000000000000000000e+00,1.000000000000000000e+00,0.000000000000000000e+00
1.657499999999999929e+01,-4.000000000000000000e+00,-1.000000000000000000e+01,-2.500000000000000000e+01,-3.000000000000000000e+01,-1.100000000000000000e+01,-6.000000000000000000e+00,-4.000000000000000000e+00,-3.000000000000000000e+00,0.000000000000000000e+00
1.658000000000000185e+01,-5.000000000000000000e+00,-7.000000000000000000e+00,-3.000000000000000000e+00,1.500000000000000000e+01,-9.000000000000000000e+00,-8.000000000000000000e+00,-5.000000000000000000e+00,-4.000000000000000000e+00,0.000000000000000000e+00
1.658500000000000085e+01,-3.000000000000000000e+00,-1.000000000000000000e+00,-3.000000000000000000e+00,-6.000000000000000000e+00,-1.000000000000000000e+00,0.000000000000000000e+00,-3.000000000000000000e+00,-3.000000000000000000e+00,0.000000000000000000e+00
1.658999999999999986e+01,-1.000000000000000000e+00,0.000000000000000000e+00,-2.000000000000000000e+00,-2.100000000000000000e+01,-3.000000000000000000e+00,-3.000000000000000000e+00,0.000000000000000000e+00,0.000000000000000000e+00,0.000000000000000000e+00
1.659499999999999886e+01,3.000000000000000000e+00,7.000000000000000000e+00,1.600000000000000000e+01,2.400000000000000000e+01,9.000000000000000000e+00,4.000000000000000000e+00,5.000000000000000000e+00,3.000000000000000000e+00,0.000000000000000000e+00
1.660000000000000142e+01,-4.000000000000000000e+00,-4.000000000000000000e+00,-5.000000000000000000e+00,-1.900000000000000000e+01,-8.000000000000000000e+00,-3.000000000000000000e+00,-3.000000000000000000e+00,-3.000000000000000000e+00,0.000000000000000000e+00
1.660500000000000043e+01,-2.000000000000000000e+00,-4.000000000000000000e+00,-7.000000000000000000e+00,-2.000000000000000000e+00,-5.000000000000000000e+00,-2.000000000000000000e+00,1.200000000000000000e+01,2.900000000000000000e+01,0.000000000000000000e+00
1.660999999999999943e+01,-1.000000000000000000e+00,0.000000000000000000e+00,-8.000000000000000000e+00,-2.500000000000000000e+01,-1.000000000000000000e+00,-1.000000000000000000e+00,-1.600000000000000000e+01,-5.700000000000000000e+01,0.000000000000000000e+00
1.661500000000000199e+01,-2.000000000000000000e+00,-1.000000000000000000e+00,9.000000000000000000e+00,2.800000000000000000e+01,0.000000000000000000e+00,-2.000000000000000000e+00,-1.000000000000000000e+00,1.000000000000000000e+00,0.000000000000000000e+00
1.662000000000000099e+01,2.000000000000000000e+00,3.000000000000000000e+00,4.000000000000000000e+00,1.000000000000000000e+00,1.000000000000000000e+00,1.000000000000000000e+00,3.000000000000000000e+00,1.000000000000000000e+00,0.000000000000000000e+00
1.662500000000000000e+01,0.000000000000000000e+00,-1.000000000000000000e+00,-4.000000000000000000e+00,-3.000000000000000000e+01,2.000000000000000000e+00,2.000000000000000000e+00,0.000000000000000000e+00,-1.000000000000000000e+00,0.000000000000000000e+00
1.662999999999999901e+01,-1.000000000000000000e+00,1.000000000000000000e+00,1.000000000000000000e+00,4.000000000000000000e+00,3.000000000000000000e+00,0.000000000000000000e+00,-3.000000000000000000e+00,-8.000000000000000000e+00,0.000000000000000000e+00
1.663500000000000156e+01,1.000000000000000000e+00,2.000000000000000000e+00,5.000000000000000000e+00,4.000000000000000000e+00,-1.000000000000000000e+00,1.000000000000000000e+00,-3.000000000000000000e+00,6.000000000000000000e+00,0.000000000000000000e+00
1.664000000000000057e+01,0.000000000000000000e+00,2.000000000000000000e+00,-1.000000000000000000e+00,5.000000000000000000e+00,2.000000000000000000e+00,3.000000000000000000e+00,3.000000000000000000e+00,8.000000000000000000e+00,0.000000000000000000e+00
1.664499999999999957e+01,-2.000000000000000000e+00,-5.000000000000000000e+00,-4.000000000000000000e+00,-2.000000000000000000e+00,-6.000000000000000000e+00,-4.000000000000000000e+00,-6.000000000000000000e+00,-8.000000000000000000e+00,0.000000000000000000e+00
1.664999999999999858e+01,-1.000000000000000000e+00,-3.000000000000000000e+00,-1.200000000000000000e+01,-1.000000000000000000e+01,-2.000000000000000000e+00,0.000000000000000000e+00,2.000000000000000000e+00,8.000000000000000000e+00,0.000000000000000000e+00
1.665500000000000114e+01,-2.000000000000000000e+00,-3.000000000000000000e+00,-1.000000000000000000e+00,8.000000000000000000e+00,0.000000000000000000e+00,-1.000000000000000000e+00,-2.000000000000000000e+00,-9.000000000000000000e+00,0.000000000000000000e+00
1.666000000000000014e+01,-1.000000000000000000e+00,-2.000000000000000000e+00,-8.000000000000000000e+00,-1.800000000000000000e+01,1.000000000000000000e+00,-3.000000000000000000e+00,-1.000000000000000000e+00,5.000000000000000000e+00,0.000000000000000000e+00
1.666499999999999915e+01,-1.000000000000000000e+00,1.000000000000000000e+00,7.000000000000000000e+00,2.500000000000000000e+01,2.000000000000000000e+00,-1.000000000000000000e+00,0.000000000000000000e+00,-3.000000000000000000e+00,0.000000000000000000e+00
1.667000000000000171e+01,1.000000000000000000e+00,-3.000000000000000000e+00,-9.000000000000000000e+00,-3.800000000000000000e+01,-9.000000000000000000e+00,-6.000000000000000000e+00,-1.000000000000000000e+00,-1.000000000000000000e+00,0.000000000000000000e+00
1.667500000000000071e+01,3.000000000000000000e+00,4.000000000000000000e+00,1.200000000000000000e+01,2.400000000000000000e+01,9.000000000000000000e+00,2.000000000000000000e+00,1.000000000000000000e+00,-5.000000000000000000e+00,0.000000000000000000e+00
1.667999999999999972e+01,-6.000000000000000000e+00,-9.000000000000000000e+00,-2.300000000000000000e+01,-3.000000000000000000e+01,-1.200000000000000000e+01,-6.000000000000000000e+00,-6.000000000000000000e+00,-2.000000000000000000e+00,0.000000000000000000e+00
1.668499999999999872e+01,0.000000000000000000e+00,-1.000000000000000000e+00,2.000000000000000000e+00,7.000000000000000000e+00,-1.000000000000000000e+00,-1.000000000000000000e+00,1.000000000000000000e+00,7.000000000000000000e+00,0.000000000000000000e+00
1.669000000000000128e+01,0.000000000000000000e+00,1.000000000000000000e+00,1.000000000000000000e+00,8.000000000000000000e+00,2.000000000000000000e+00,0.000000000000000000e+00,-1.000000000000000000e+00,-2.000000000000000000e+00,0.000000000000000000e+00
1.669500000000000028e+01,0.000000000000000000e+00,1.000000000000000000e+00,1.000000000000000000e+00,-1.100000000000000000e+01,-5.000000000000000000e+00,-2.000000000000000000e+00,-5.000000000000000000e+00,-8.000000000000000000e+00,0.000000000000000000e+00
1.669999999999999929e+01,0.000000000000000000e+00,-2.000000000000000000e+00,-4.000000000000000000e+00,9.000000000000000000e+00,4.000000000000000000e+00,1.000000000000000000e+00,4.000000000000000000e+00,8.000000000000000000e+00,0.000000000000000000e+00
1.670500000000000185e+01,0.000000000000000000e+00,-2.000000000000000000e+00,-2.000000000000000000e+00,-8.000000000000000000e+00,3.000000000000000000e+00,-1.000000000000000000e+00,-1.000000000000000000e+00,0.000000000000000000e+00,0.000000000000000000e+00
1.671000000000000085e+01,-1.000000000000000000e+00,-1.000000000000000000e+00,2.000000000000000000e+00,6.000000000000000000e+00,4.000000000000000000e+00,1.000000000000000000e+00,-1.000000000000000000e+00,-3.000000000000000000e+00,0.000000000000000000e+00
1.671499999999999986e+01,-3.000000000000000000e+00,-2.000000000000000000e+00,-5.000000000000000000e+00,-3.000000000000000000e+00,-4.000000000000000000e+00,1.000000000000000000e+00,-2.000000000000000000e+00,-4.000000000000000000e+00,0.000000000000000000e+00
1.671999999999999886e+01,3.000000000000000000e+00,2.000000000000000000e+00,7.000000000000000000e+00,1.500000000000000000e+01,7.000000000000000000e+00,2.000000000000000000e+00,4.000000000000000000e+00,4.000000000000000000e+00,0.000000000000000000e+00
1.672500000000000142e+01,1.000000000000000000e+00,2.000000000000000000e+00,-5.000000000000000000e+00,-1.400000000000000000e+01,-6.000000000000000000e+00,-2.000000000000000000e+00,-2.000000000000000000e+00,-1.000000000000000000e+00,0.000000000000000000e+00
1.673000000000000043e+01,-3.000000000000000000e+00,-2.000000000000000000e+00,5.000000000000000000e+00,3.100000000000000000e+01,-5.000000000000000000e+00,-3.000000000000000000e+00,-3.000000000000000000e+00,-3.000000000000000000e+00,0.000000000000000000e+00
1.673499999999999943e+01,-3.000000000000000000e+00,-5.000000000000000000e+00,-7.000000000000000000e+00,-1.000000000000000000e+01,-5.000000000000000000e+00,-2.000000000000000000e+00,-1.000000000000000000e+00,-1.000000000000000000e+00,0.000000000000000000e+00
1.674000000000000199e+01,0.000000000000000000e+00,1.000000000000000000e+00,8.000000000000000000e+00,7.000000000000000000e+00,-5.000000000000000000e+00,-5.000000000000000000e+00,-2.000000000000000000e+00,2.000000000000000000e+00,0.000000000000000000e+00
1.674500000000000099e+01,2.000000000000000000e+00,4.000000000000000000e+00,5.000000000000000000e+00,-1.000000000000000000e+00,1.400000000000000000e+01,8.000000000000000000e+00,5.000000000000000000e+00,3.000000000000000000e+00,0.000000000000000000e+00
1.675000000000000000e+01,-3.000000000000000000e+00,-2.000000000000000000e+00,3.000000000000000000e+00,-3.000000000000000000e+00,5.000000000000000000e+00,2.000000000000000000e+00,0.000000000000000000e+00,0.000000000000000000e+00,0.000000000000000000e+00
1.675499999999999901e+01,-2.000000000000000000e+00,-3.000000000000000000e+00,-1.000000000000000000e+01,-2.000000000000000000e+00,-9.000000000000000000e+00,-1.000000000000000000e+00,-2.000000000000000000e+00,-5.000000000000000000e+00,0.000000000000000000e+00
1.676000000000000156e+01,-2.000000000000000000e+00,-1.000000000000000000e+00,6.000000000000000000e+00,9.000000000000000000e+00,-2.000000000000000000e+00,-2.000000000000000000e+00,-3.000000000000000000e+00,0.000000000000000000e+00,0.000000000000000000e+00
1.676500000000000057e+01,-1.000000000000000000e+00,0.000000000000000000e+00,9.000000000000000000e+00,-3.000000000000000000e+00,-4.000000000000000000e+00,-1.000000000000000000e+01,-2.000000000000000000e+00,-3.000000000000000000e+00,0.000000000000000000e+00
1.676999999999999957e+01,0.000000000000000000e+00,2.000000000000000000e+00,-7.000000000000000000e+00,-2.000000000000000000e+00,3.000000000000000000e+00,6.000000000000000000e+00,3.000000000000000000e+00,2.000000000000000000e+00,0.000000000000000000e+00
1.677499999999999858e+01,-1.000000000000000000e+00,-6.000000000000000000e+00,-1.500000000000000000e+01,-2.100000000000000000e+01,-4.000000000000000000e+00,-4.000000000000000000e+00,-3.000000000000000000e+00,-4.000000000000000000e+00,0.000000000000000000e+00
1.678000000000000114e+01,0.000000000000000000e+00,-1.000000000000000000e+00,6.000000000000000000e+00,2.600000000000000000e+01,1.100000000000000000e+01,2.000000000000000000e+00,2.000000000000000000e+00,0.000000000000000000e+00,0.000000000000000000e+00
1.678500000000000014e+01,-3.000000000000000000e+00,-5.000000000000000000e+00,-5.000000000000000000e+00,-3.100000000000000000e+01,-1.400000000000000000e+01,-7.000000000000000000e+00,-5.000000000000000000e+00,-2.000000000000000000e+00,0.000000000000000000e+00
1.678999999999999915e+01,0.000000000000000000e+00,0.000000000000000000e+00,5.000000000000000000e+00,8.000000000000000000e+00,-1.000000000000000000e+00,-2.000000000000000000e+00,-2.000000000000000000e+00,-2.000000000000000000e+00,0.000000000000000000e+00
1.679500000000000171e+01,3.000000000000000000e+00,3.000000000000000000e+00,5.000000000000000000e+00,-3.000000000000000000e+00,4.000000000000000000e+00,2.000000000000000000e+00,1.000000000000000000e+00,2.000000000000000000e+00,0.000000000000000000e+00
1.680000000000000071e+01,-2.000000000000000000e+00,-2.000000000000000000e+00,-5.000000000000000000e+00,2.000000000000000000e+01,-1.100000000000000000e+01,3.000000000000000000e+00,2.000000000000000000e+00,3.000000000000000000e+00,0.000000000000000000e+00
1.680499999999999972e+01,-1.000000000000000000e+00,-2.000000000000000000e+00,-6.000000000000000000e+00,8.000000000000000000e+00,2.000000000000000000e+00,0.000000000000000000e+00,-4.000000000000000000e+00,-1.000000000000000000e+00,0.000000000000000000e+00
1.680999999999999872e+01,0.000000000000000000e+00,-1.000000000000000000e+00,2.000000000000000000e+00,-3.000000000000000000e+00,3.000000000000000000e+00,1.000000000000000000e+00,0.000000000000000000e+00,-1.000000000000000000e+00,0.000000000000000000e+00
1.681500000000000128e+01,-1.000000000000000000e+00,0.000000000000000000e+00,4.000000000000000000e+00,2.000000000000000000e+00,-3.000000000000000000e+00,-3.000000000000000000e+00,-2.000000000000000000e+00,-1.000000000000000000e+00,0.000000000000000000e+00
1.682000000000000028e+01,-3.000000000000000000e+00,-1.000000000000000000e+00,0.000000000000000000e+00,-1.300000000000000000e+01,-3.000000000000000000e+00,-7.000000000000000000e+00,-2.000000000000000000e+00,-3.000000000000000000e+00,0.000000000000000000e+00
1.682499999999999929e+01,-1.000000000000000000e+00,-1.000000000000000000e+00,1.000000000000000000e+00,8.000000000000000000e+00,2.000000000000000000e+00,-5.000000000000000000e+00,0.000000000000000000e+00,-1.000000000000000000e+00,0.000000000000000000e+00
1.683000000000000185e+01,-2.000000000000000000e+00,-1.000000000000000000e+00,0.000000000000000000e+00,-8.000000000000000000e+00,-4.000000000000000000e+00,-1.000000000000000000e+00,-2.000000000000000000e+00,-1.000000000000000000e+00,0.000000000000000000e+00
1.683500000000000085e+01,1.000000000000000000e+00,0.000000000000000000e+00,-3.000000000000000000e+00,-3.000000000000000000e+00,8.000000000000000000e+00,8.000000000000000000e+00,1.000000000000000000e+00,2.000000000000000000e+00,0.000000000000000000e+00
1.683999999999999986e+01,1.000000000000000000e+00,5.000000000000000000e+00,8.000000000000000000e+00,6.000000000000000000e+00,4.000000000000000000e+00,-3.000000000000000000e+00,2.000000000000000000e+00,1.000000000000000000e+00,0.000000000000000000e+00
1.684499999999999886e+01,-2.000000000000000000e+00,-5.000000000000000000e+00,-7.000000000000000000e+00,-5.000000000000000000e+00,-1.000000000000000000e+01,0.000000000000000000e+00,-2.000000000000000000e+00,-5.000000000000000000e+00,0.000000000000000000e+00
1.685000000000000142e+01,0.000000000000000000e+00,-1.000000000000000000e+00,-1.000000000000000000e+00,-6.000000000000000000e+00,-2.000000000000000000e+00,-4.000000000000000000e+00,-1.000000000000000000e+00,1.000000000000000000e+00,0.000000000000000000e+00
1.685500000000000043e+01,-2.000000000000000000e+00,0.000000000000000000e+00,9.000000000000000000e+00,1.100000000000000000e+01,5.000000000000000000e+00,-3.000000000000000000e+00,-3.000000000000000000e+00,-1.000000000000000000e+00,0.000000000000000000e+00
1.685999999999999943e+01,-4.000000000000000000e+00,-7.000000000000000000e+00,-1.100000000000000000e+01,-1.400000000000000000e+01,-1.100000000000000000e+01,-2.000000000000000000e+00,-4.000000000000000000e+00,-4.000000000000000000e+00,0.000000000000000000e+00
1.686500000000000199e+01,2.000000000000000000e+00,0.000000000000000000e+00,-1.000000000000000000e+00,1.000000000000000000e+00,7.000000000000000000e+00,4.000000000000000000e+00,1.000000000000000000e+00,2.000000000000000000e+00,0.000000000000000000e+00
1.687000000000000099e+01,-2.000000000000000000e+00,-1.000000000000000000e+00,0.000000000000000000e+00,8.000000000000000000e+00,-7.000000000000000000e+00,-6.000000000000000000e+00,-3.000000000000000000e+00,-3.000000000000000000e+00,0.000000000000000000e+00
1.687500000000000000e+01,-1.000000000000000000e+00,0.000000000000000000e+00,3.000000000000000000e+00,-2.000000000000000000e+00,0.000000000000000000e+00,5.000000000000000000e+00,0.000000000000000000e+00,-1.000000000000000000e+00,0.000000000000000000e+00
1.687999999999999901e+01,3.000000000000000000e+00,5.000000000000000000e+00,3.000000000000000000e+00,-8.000000000000000000e+00,7.000000000000000000e+00,5.000000000000000000e+00,3.000000000000000000e+00,3.000000000000000000e+00,0.000000000000000000e+00
1.688500000000000156e+01,-3.000000000000000000e+00,-6.000000000000000000e+00,-1.000000000000000000e+00,1.100000000000000000e+01,-3.000000000000000000e+00,4.000000000000000000e+00,-2.000000000000000000e+00,-2.000000000000000000e+00,0.000000000000000000e+00
1.689000000000000057e+01,-1.000000000000000000e+00,-4.000000000000000000e+00,-1.000000000000000000e+00,3.000000000000000000e+00,-4.000000000000000000e+00,2.000000000000000000e+00,-3.000000000000000000e+00,-2.000000000000000000e+00,0.000000000000000000e+00
1.689499999999999957e+01,-3.000000000000000000e+00,-4.000000000000000000e+00,-6.000000000000000000e+00,-3.000000000000000000e+00,-3.000000000000000000e+00,-1.500000000000000000e+01,-4.000000000000000000e+00,-3.000000000000000000e+00,0.000000000000000000e+00
1.689999999999999858e+01,-2.000000000000000000e+00,0.000000000000000000e+00,-5.000000000000000000e+00,-3.600000000000000000e+01,-1.200000000000000000e+01,-1.700000000000000000e+01,-1.000000000000000000e+00,-2.000000000000000000e+00,0.000000000000000000e+00
1.690500000000000114e+01,-1.000000000000000000e+00,-1.000000000000000000e+00,-5.000000000000000000e+00,0.000000000000000000e+00,-4.000000000000000000e+00,1.000000000000000000e+00,-1.000000000000000000e+00,0.000000000000000000e+00,0.000000000000000000e+00
1.691000000000000014e+01,2.000000000000000000e+00,1.000000000000000000e+00,3.000000000000000000e+00,-1.400000000000000000e+01,2.100000000000000000e+01,2.300000000000000000e+01,1.000000000000000000e+00,0.000000000000000000e+00,0.000000000000000000e+00
1.691499999999999915e+01,-7.000000000000000000e+00,-8.000000000000000000e+00,-1.000000000000000000e+01,1.300000000000000000e+01,-1.300000000000000000e+01,-8.000000000000000000e+00,-2.000000000000000000e+00,-5.000000000000000000e+00,0.000000000000000000e+00
1.692000000000000171e+01,1.000000000000000000e+00,0.000000000000000000e+00,-2.000000000000000000e+00,-1.100000000000000000e+01,-1.000000000000000000e+00,-3.000000000000000000e+00,-6.000000000000000000e+00,0.000000000000000000e+00,0.000000000000000000e+00
1.692500000000000071e+01,3.000000000000000000e+00,3.000000000000000000e+00,4.000000000000000000e+00,9.000000000000000000e+00,5.000000000000000000e+00,-1.100000000000000000e+01,2.000000000000000000e+00,4.000000000000000000e+00,0.000000000000000000e+00
1.692999999999999972e+01,2.000000000000000000e+00,3.000000000000000000e+00,2.000000000000000000e+00,4.000000000000000000e+00,1.200000000000000000e+01,1.400000000000000000e+01,1.100000000000000000e+01,6.000000000000000000e+00,0.000000000000000000e+00
1.693499999999999872e+01,-1.000000000000000000e+00,-5.000000000000000000e+00,-1.300000000000000000e+01,-1.900000000000000000e+01,-1.500000000000000000e+01,-4.000000000000000000e+00,-1.300000000000000000e+01,5.000000000000000000e+00,0.000000000000000000e+00
1.694000000000000128e+01,-9.000000000000000000e+00,-5.000000000000000000e+00,1.000000000000000000e+00,5.000000000000000000e+00,-2.000000000000000000e+00,5.000000000000000000e+00,-2.000000000000000000e+00,-2.000000000000000000e+01,0.000000000000000000e+00
1.694500000000000028e+01,0.000000000000000000e+00,0.000000000000000000e+00,0.000000000000000000e+00,-5.000000000000000000e+00,-4.000000000000000000e+00,-6.000000000000000000e+00,-7.000000000000000000e+00,-3.000000000000000000e+00,0.000000000000000000e+00
1.694999999999999929e+01,3.000000000000000000e+00,0.000000000000000000e+00,1.000000000000000000e+00,7.000000000000000000e+00,5.000000000000000000e+00,-2.400000000000000000e+01,2.000000000000000000e+00,4.000000000000000000e+00,0.000000000000000000e+00
1.695500000000000185e+01,3.000000000000000000e+00,2.000000000000000000e+00,2.000000000000000000e+00,0.000000000000000000e+00,1.400000000000000000e+01,2.800000000000000000e+01,9.000000000000000000e+00,3.900000000000000000e+01,0.000000000000000000e+00
1.696000000000000085e+01,-4.000000000000000000e+00,-3.000000000000000000e+00,-2.000000000000000000e+00,1.100000000000000000e+01,-7.000000000000000000e+00,-6.000000000000000000e+00,-8.000000000000000000e+00,-3.800000000000000000e+01,0.000000000000000000e+00
1.696499999999999986e+01,-3.000000000000000000e+00,-1.000000000000000000e+00,1.000000000000000000e+00,-7.000000000000000000e+00,-1.100000000000000000e+01,-2.000000000000000000e+00,0.000000000000000000e+00,-2.000000000000000000e+00,0.000000000000000000e+00
1.696999999999999886e+01,-2.000000000000000000e+00,-3.000000000000000000e+00,-8.000000000000000000e+00,-2.100000000000000000e+01,-8.000000000000000000e+00,4.000000000000000000e+00,1.200000000000000000e+01,1.000000000000000000e+01,0.000000000000000000e+00
1.697500000000000142e+01,0.000000000000000000e+00,-1.000000000000000000e+00,1.000000000000000000e+00,5.000000000000000000e+00,1.000000000000000000e+01,2.200000000000000000e+01,5.000000000000000000e+00,-1.300000000000000000e+01,0.000000000000000000e+00
1.698000000000000043e+01,3.000000000000000000e+00,8.000000000000000000e+00,-7.000000000000000000e+00,-8.000000000000000000e+00,-9.000000000000000000e+00,-1.400000000000000000e+01,1.100000000000000000e+01,3.600000000000000000e+01,0.000000000000000000e+00
1.698499999999999943e+01,-1.000000000000000000e+00,-5.000000000000000000e+00,9.000000000000000000e+00,3.000000000000000000e+00,6.000000000000000000e+00,-1.600000000000000000e+01,-1.400000000000000000e+01,1.000000000000000000e+00,0.000000000000000000e+00
1.699000000000000199e+01,-8.000000000000000000e+00,-5.000000000000000000e+00,-3.000000000000000000e+00,6.000000000000000000e+00,1.000000000000000000e+00,2.000000000000000000e+00,-3.000000000000000000e+01,-6.500000000000000000e+01,0.000000000000000000e+00
1.699500000000000099e+01,-4.000000000000000000e+00,-4.000000000000000000e+00,-5.000000000000000000e+00,-1.000000000000000000e+00,-4.000000000000000000e+00,1.600000000000000000e+01,6.000000000000000000e+00,-9.000000000000000000e+00,0.000000000000000000e+00
1.700000000000000000e+01,2.000000000000000000e+00,0.000000000000000000e+00,-1.000000000000000000e+00,-2.000000000000000000e+00,3.000000000000000000e+00,-7.000000000000000000e+00,3.000000000000000000e+00,1.900000000000000000e+01,0.000000000000000000e+00
1.700499999999999901e+01,-1.000000000000000000e+00,3.000000000000000000e+00,-5.000000000000000000e+00,5.000000000000000000e+00,8.000000000000000000e+00,1.000000000000000000e+01,3.100000000000000000e+01,-3.800000000000000000e+01,0.000000000000000000e+00
1.701000000000000156e+01,2.000000000000000000e+00,0.000000000000000000e+00,-2.000000000000000000e+00,-1.100000000000000000e+01,-1.400000000000000000e+01,-1.200000000000000000e+01,1.100000000000000000e+01,1.900000000000000000e+01,0.000000000000000000e+00
1.701500000000000057e+01,-2.000000000000000000e+00,-5.000000000000000000e+00,-7.000000000000000000e+00,-2.000000000000000000e+00,-2.000000000000000000e+00,-1.000000000000000000e+00,-3.000000000000000000e+01,-7.000000000000000000e+00,0.000000000000000000e+00
1.701999999999999957e+01,-5.000000000000000000e+00,-5.000000000000000000e+00,4.000000000000000000e+00,0.000000000000000000e+00,8.000000000000000000e+00,1.000000000000000000e+01,-6.000000000000000000e+00,-5.000000000000000000e+00,0.000000000000000000e+00
1.702499999999999858e+01,-2.000000000000000000e+00,-3.000000000000000000e+00,-8.000000000000000000e+00,-4.000000000000000000e+00,-6.000000000000000000e+00,-6.000000000000000000e+00,-4.000000000000000000e+00,1.500000000000000000e+01,0.000000000000000000e+00
1.703000000000000114e+01,-4.000000000000000000e+00,-2.000000000000000000e+00,1.000000000000000000e+00,-5.000000000000000000e+00,-1.100000000000000000e+01,-8.000000000000000000e+00,5.000000000000000000e+00,-4.000000000000000000e+00,0.000000000000000000e+00
1.703500000000000014e+01,2.000000000000000000e+00,2.000000000000000000e+00,3.000000000000000000e+00,-4.000000000000000000e+00,-4.000000000000000000e+00,-9.000000000000000000e+00,3.200000000000000000e+01,1.000000000000000000e+00,0.000000000000000000e+00
1.703999999999999915e+01,3.000000000000000000e+00,-2.000000000000000000e+00,0.000000000000000000e+00,-1.000000000000000000e+00,-3.000000000000000000e+00,-2.000000000000000000e+00,-3.100000000000000000e+01,7.000000000000000000e+00,0.000000000000000000e+00
1.704500000000000171e+01,-3.000000000000000000e+00,0.000000000000000000e+00,-1.000000000000000000e+00,3.000000000000000000e+00,7.000000000000000000e+00,4.000000000000000000e+00,-6.000000000000000000e+00,3.500000000000000000e+01,0.000000000000000000e+00
1.705000000000000071e+01,-5.000000000000000000e+00,4.000000000000000000e+00,2.000000000000000000e+00,3.000000000000000000e+00,3.000000000000000000e+00,6.000000000000000000e+00,3.000000000000000000e+00,-6.300000000000000000e+01,0.000000000000000000e+00
1.705499999999999972e+01,2.000000000000000000e+00,-2.000000000000000000e+00,-6.000000000000000000e+00,-3.000000000000000000e+00,-1.100000000000000000e+01,-1.300000000000000000e+01,1.000000000000000000e+01,1.400000000000000000e+01,0.000000000000000000e+00
1.705999999999999872e+01,8.000000000000000000e+00,1.000000000000000000e+00,1.000000000000000000e+00,1.000000000000000000e+00,-2.000000000000000000e+00,9.000000000000000000e+00,2.200000000000000000e+01,2.300000000000000000e+01,0.000000000000000000e+00
1.706500000000000128e+01,-1.600000000000000000e+01,-9.000000000000000000e+00,-7.000000000000000000e+00,-5.000000000000000000e+00,-3.000000000000000000e+00,-6.000000000000000000e+00,-3.100000000000000000e+01,-5.500000000000000000e+01,0.000000000000000000e+00
1.707000000000000028e+01,6.000000000000000000e+00,4.000000000000000000e+00,2.000000000000000000e+00,5.000000000000000000e+00,2.000000000000000000e+00,-3.000000000000000000e+00,-1.300000000000000000e+01,2.600000000000000000e+01,0.000000000000000000e+00
1.707499999999999929e+01,6.000000000000000000e+00,5.000000000000000000e+00,8.000000000000000000e+00,2.000000000000000000e+00,3.000000000000000000e+00,-6.000000000000000000e+00,3.000000000000000000e+00,3.700000000000000000e+01,0.000000000000000000e+00
1.708000000000000185e+01,-1.100000000000000000e+01,-3.000000000000000000e+00,2.000000000000000000e+00,0.000000000000000000e+00,5.000000000000000000e+00,4.000000000000000000e+00,1.900000000000000000e+01,-7.900000000000000000e+01,0.000000000000000000e+00
1.708500000000000085e+01,1.500000000000000000e+01,5.000000000000000000e+00,-1.000000000000000000e+00,-1.200000000000000000e+01,-3.000000000000000000e+00,1.400000000000000000e+01,1.700000000000000000e+01,3.100000000000000000e+01,0.000000000000000000e+00
1.708999999999999986e+01,-1.400000000000000000e+01,-7.000000000000000000e+00,-9.000000000000000000e+00,4.000000000000000000e+00,-6.000000000000000000e+00,-2.000000000000000000e+00,-3.200000000000000000e+01,-8.500000000000000000e+01,0.000000000000000000e+00
1.709499999999999886e+01,-1.000000000000000000e+00,-6.000000000000000000e+00,-1.000000000000000000e+01,-5.000000000000000000e+00,-9.000000000000000000e+00,-2.700000000000000000e+01,1.000000000000000000e+00,2.000000000000000000e+01,0.000000000000000000e+00
1.710000000000000142e+01,0.000000000000000000e+00,8.000000000000000000e+00,1.000000000000000000e+01,1.200000000000000000e+01,1.100000000000000000e+01,-5.000000000000000000e+00,-5.300000000000000000e+01,-1.800000000000000000e+01,0.000000000000000000e+00
1.710500000000000043e+01,3.000000000000000000e+00,3.000000000000000000e+00,3.000000000000000000e+00,4.000000000000000000e+00,1.000000000000000000e+01,2.400000000000000000e+01,1.700000000000000000e+01,-2.800000000000000000e+01,0.000000000000000000e+00
1.710999999999999943e+01,0.000000000000000000e+00,-1.000000000000000000e+00,-4.000000000000000000e+00,-3.000000000000000000e+00,-1.000000000000000000e+00,0.000000000000000000e+00,2.500000000000000000e+01,4.700000000000000000e+01,0.000000000000000000e+00
1.711500000000000199e+01,2.000000000000000000e+00,-8.000000000000000000e+00,3.000000000000000000e+01,4.000000000000000000e+00,0.000000000000000000e+00,2.000000000000000000e+00,-1.200000000000000000e+01,-1.300000000000000000e+01,0.000000000000000000e+00
1.712000000000000099e+01,3.000000000000000000e+00,-3.000000000000000000e+00,-8.000000000000000000e+00,-9.000000000000000000e+00,-1.000000000000000000e+01,-4.000000000000000000e+00,3.800000000000000000e+01,3.000000000000000000e+00,0.000000000000000000e+00
1.712500000000000000e+01,-8.000000000000000000e+00,7.000000000000000000e+00,-2.000000000000000000e+00,-2.000000000000000000e+00,-1.100000000000000000e+01,-2.300000000000000000e+01,-5.100000000000000000e+01,8.000000000000000000e+00,0.000000000000000000e+00
1.712999999999999901e+01,2.000000000000000000e+00,-4.000000000000000000e+00,6.000000000000000000e+00,3.000000000000000000e+00,1.000000000000000000e+00,7.000000000000000000e+00,-2.000000000000000000e+00,-4.000000000000000000e+00,0.000000000000000000e+00
1.713500000000000156e+01,-6.000000000000000000e+00,1.000000000000000000e+00,-7.000000000000000000e+00,1.100000000000000000e+01,9.000000000000000000e+00,4.000000000000000000e+00,-6.000000000000000000e+00,-3.600000000000000000e+01,0.000000000000000000e+00
1.714000000000000057e+01,3.000000000000000000e+00,-3.000000000000000000e+00,0.000000000000000000e+00,-7.000000000000000000e+00,-4.000000000000000000e+00,-7.000000000000000000e+00,0.000000000000000000e+00,2.800000000000000000e+01,0.000000000000000000e+00
1.714499999999999957e+01,0.000000000000000000e+00,-5.000000000000000000e+00,-9.000000000000000000e+00,-1.100000000000000000e+01,-8.000000000000000000e+00,2.000000000000000000e+00,2.400000000000000000e+01,-7.000000000000000000e+00,0.000000000000000000e+00
1.715000000000000213e+01,0.000000000000000000e+00,0.000000000000000000e+00,-5.000000000000000000e+00,-1.200000000000000000e+01,-3.000000000000000000e+00,0.000000000000000000e+00,2.000000000000000000e+01,6.500000000000000000e+01,0.000000000000000000e+00
1.715500000000000114e+01,-7.000000000000000000e+00,1.000000000000000000e+00,4.000000000000000000e+00,7.000000000000000000e+00,0.000000000000000000e+00,-1.200000000000000000e+01,-3.900000000000000000e+01,-1.300000000000000000e+01,0.000000000000000000e+00
1.716000000000000014e+01,3.000000000000000000e+00,1.000000000000000000e+00,8.000000000000000000e+00,6.000000000000000000e+00,7.000000000000000000e+00,9.000000000000000000e+00,-1.900000000000000000e+01,-4.000000000000000000e+00,0.000000000000000000e+00
1.716499999999999915e+01,4.000000000000000000e+00,-1.000000000000000000e+00,-8.000000000000000000e+00,2.000000000000000000e+00,5.000000000000000000e+00,9.000000000000000000e+00,2.900000000000000000e+01,1.300000000000000000e+01,0.000000000000000000e+00
1.717000000000000171e+01,4.000000000000000000e+00,1.000000000000000000e+00,-2.000000000000000000e+00,-1.800000000000000000e+01,-9.000000000000000000e+00,6.000000000000000000e+00,-3.500000000000000000e+01,4.800000000000000000e+01,0.000000000000000000e+00
1.717500000000000071e+01,-3.200000000000000000e+01,-8.000000000000000000e+00,-1.000000000000000000e+01,6.000000000000000000e+00,-4.000000000000000000e+00,-4.200000000000000000e+01,1.000000000000000000e+01,-9.400000000000000000e+01,0.000000000000000000e+00
1.717999999999999972e+01,3.000000000000000000e+00,-2.000000000000000000e+00,-3.000000000000000000e+00,-3.000000000000000000e+00,-4.000000000000000000e+00,3.000000000000000000e+00,1.700000000000000000e+01,5.700000000000000000e+01,0.000000000000000000e+00
1.718499999999999872e+01,-1.000000000000000000e+00,-1.000000000000000000e+00,-3.000000000000000000e+00,-7.000000000000000000e+00,-4.000000000000000000e+00,-8.000000000000000000e+00,-3.000000000000000000e+01,8.000000000000000000e+00,0.000000000000000000e+00
1.719000000000000128e+01,1.000000000000000000e+00,2.600000000000000000e+01,-6.400000000000000000e+01,-3.000000000000000000e+00,-6.000000000000000000e+00,4.000000000000000000e+00,1.800000000000000000e+01,-3.200000000000000000e+01,0.000000000000000000e+00
1.719500000000000028e+01,8.000000000000000000e+00,7.000000000000000000e+00,-1.300000000000000000e+01,-1.200000000000000000e+01,-1.000000000000000000e+00,9.000000000000000000e+00,2.400000000000000000e+01,6.300000000000000000e+01,0.000000000000000000e+00
1.719999999999999929e+01,-1.300000000000000000e+01,-1.200000000000000000e+01,-1.800000000000000000e+01,-8.000000000000000000e+00,-7.000000000000000000e+00,-1.100000000000000000e+01,-1.200000000000000000e+01,-3.400000000000000000e+01,0.000000000000000000e+00
1.720500000000000185e+01,-1.100000000000000000e+01,2.000000000000000000e+00,8.000000000000000000e+00,1.000000000000000000e+00,5.000000000000000000e+00,2.000000000000000000e+00,3.000000000000000000e+00,-9.000000000000000000e+00,0.000000000000000000e+00
1.721000000000000085e+01,1.000000000000000000e+01,6.000000000000000000e+00,6.000000000000000000e+00,1.400000000000000000e+01,2.000000000000000000e+00,4.000000000000000000e+00,2.400000000000000000e+01,-4.300000000000000000e+01,0.000000000000000000e+00
1.721499999999999986e+01,-4.000000000000000000e+00,-1.000000000000000000e+00,-5.000000000000000000e+00,-5.000000000000000000e+00,-2.000000000000000000e+00,-2.000000000000000000e+00,-4.800000000000000000e+01,6.000000000000000000e+00,0.000000000000000000e+00
1.721999999999999886e+01,-1.900000000000000000e+01,-8.000000000000000000e+00,-3.000000000000000000e+00,-7.000000000000000000e+00,-5.000000000000000000e+00,-1.000000000000000000e+00,9.000000000000000000e+00,1.200000000000000000e+01,0.000000000000000000e+00
1.722500000000000142e+01,5.000000000000000000e+00,-4.000000000000000000e+00,-7.000000000000000000e+00,0.000000000000000000e+00,1.000000000000000000e+00,0.000000000000000000e+00,4.000000000000000000e+00,-4.200000000000000000e+01,0.000000000000000000e+00
1.723000000000000043e+01,-5.000000000000000000e+00,-1.000000000000000000e+01,1.000000000000000000e+00,-7.000000000000000000e+00,-1.000000000000000000e+00,-1.600000000000000000e+01,-1.000000000000000000e+00,-1.900000000000000000e+01,0.000000000000000000e+00
1.723499999999999943e+01,7.000000000000000000e+00,6.000000000000000000e+00,9.000000000000000000e+00,1.300000000000000000e+01,5.000000000000000000e+00,1.300000000000000000e+01,6.500000000000000000e+01,1.500000000000000000e+01,0.000000000000000000e+00
1.724000000000000199e+01,-5.000000000000000000e+00,-1.200000000000000000e+01,5.000000000000000000e+00,-1.100000000000000000e+01,2.000000000000000000e+00,5.000000000000000000e+00,-3.700000000000000000e+01,3.800000000000000000e+01,0.000000000000000000e+00
1.724500000000000099e+01,3.000000000000000000e+00,-5.000000000000000000e+00,9.000000000000000000e+00,1.200000000000000000e+01,5.000000000000000000e+00,3.000000000000000000e+00,-6.000000000000000000e+00,0.000000000000000000e+00,0.000000000000000000e+00
1.725000000000000000e+01,2.000000000000000000e+00,-8.000000000000000000e+00,1.400000000000000000e+01,9.000000000000000000e+00,2.000000000000000000e+00,-1.000000000000000000e+00,1.500000000000000000e+01,3.500000000000000000e+01,0.000000000000000000e+00
1.725499999999999901e+01,-3.000000000000000000e+00,1.000000000000000000e+00,0.000000000000000000e+00,8.000000000000000000e+00,-2.000000000000000000e+00,-4.000000000000000000e+00,-2.100000000000000000e+01,-4.400000000000000000e+01,0.000000000000000000e+00
1.726000000000000156e+01,3.600000000000000000e+01,1.200000000000000000e+01,-6.000000000000000000e+00,-1.600000000000000000e+01,-8.000000000000000000e+00,7.000000000000000000e+00,1.100000000000000000e+01,-4.000000000000000000e+00,0.000000000000000000e+00
1.726500000000000057e+01,-7.100000000000000000e+01,-2.500000000000000000e+01,-4.000000000000000000e+00,-2.000000000000000000e+00,-3.000000000000000000e+00,-1.300000000000000000e+01,-6.000000000000000000e+00,-6.000000000000000000e+00,0.000000000000000000e+00
1.726999999999999957e+01,2.000000000000000000e+00,-1.000000000000000000e+01,1.000000000000000000e+01,8.000000000000000000e+00,1.000000000000000000e+00,-4.000000000000000000e+00,6.000000000000000000e+00,-2.500000000000000000e+01,0.000000000000000000e+00
1.727500000000000213e+01,-5.000000000000000000e+00,1.000000000000000000e+00,1.000000000000000000e+00,-6.000000000000000000e+00,0.000000000000000000e+00,8.000000000000000000e+00,-9.000000000000000000e+00,1.000000000000000000e+00,0.000000000000000000e+00
1.728000000000000114e+01,-4.000000000000000000e+00,-8.000000000000000000e+00,-2.100000000000000000e+01,-9.000000000000000000e+00,-4.000000000000000000e+00,0.000000000000000000e+00,8.500000000000000000e+01,1.600000000000000000e+01,0.000000000000000000e+00
1.728500000000000014e+01,4.200000000000000000e+01,1.400000000000000000e+01,9.000000000000000000e+00,8.000000000000000000e+00,-5.000000000000000000e+00,-1.600000000000000000e+01,-6.800000000000000000e+01,-4.200000000000000000e+01,0.000000000000000000e+00
1.728999999999999915e+01,4.000000000000000000e+00,2.200000000000000000e+01,1.200000000000000000e+01,-5.000000000000000000e+00,2.000000000000000000e+00,6.000000000000000000e+00,7.700000000000000000e+01,-1.000000000000000000e+01,0.000000000000000000e+00
1.729500000000000171e+01,-1.200000000000000000e+01,-2.300000000000000000e+01,-1.100000000000000000e+01,-5.000000000000000000e+00,-9.000000000000000000e+00,-1.300000000000000000e+01,-4.500000000000000000e+01,-1.500000000000000000e+01,0.000000000000000000e+00
1.730000000000000071e+01,-4.400000000000000000e+01,-3.400000000000000000e+01,-5.000000000000000000e+00,3.000000000000000000e+00,1.000000000000000000e+00,2.000000000000000000e+00,-6.000000000000000000e+00,-2.300000000000000000e+01,0.000000000000000000e+00
1.730499999999999972e+01,1.000000000000000000e+01,1.200000000000000000e+01,6.000000000000000000e+00,3.000000000000000000e+00,6.000000000000000000e+00,1.100000000000000000e+01,3.400000000000000000e+01,1.800000000000000000e+01,0.000000000000000000e+00
1.730999999999999872e+01,4.600000000000000000e+01,1.800000000000000000e+01,-1.200000000000000000e+01,-1.500000000000000000e+01,-8.000000000000000000e+00,-1.200000000000000000e+01,-5.600000000000000000e+01,7.000000000000000000e+00,0.000000000000000000e+00
1.731500000000000128e+01,4.200000000000000000e+01,5.700000000000000000e+01,1.600000000000000000e+01,-1.000000000000000000e+00,2.000000000000000000e+00,1.000000000000000000e+01,1.170000000000000000e+02,9.200000000000000000e+01,0.000000000000000000e+00
1.732000000000000028e+01,-7.300000000000000000e+01,-6.300000000000000000e+01,-1.100000000000000000e+01,8.000000000000000000e+00,8.000000000000000000e+00,4.000000000000000000e+00,-5.100000000000000000e+01,-5.000000000000000000e+00,0.000000000000000000e+00
1.732499999999999929e+01,2.300000000000000000e+01,1.700000000000000000e+01,-1.400000000000000000e+01,-2.000000000000000000e+00,-5.000000000000000000e+00,-1.700000000000000000e+01,-5.100000000000000000e+01,-6.000000000000000000e+00,0.000000000000000000e+00
1.733000000000000185e+01,-1.200000000000000000e+01,-1.500000000000000000e+01,-5.000000000000000000e+00,-1.000000000000000000e+00,-8.000000000000000000e+00,-6.000000000000000000e+00,-3.200000000000000000e+01,-4.100000000000000000e+01,0.000000000000000000e+00
1.733500000000000085e+01,4.100000000000000000e+01,7.000000000000000000e+00,2.000000000000000000e+00,-3.000000000000000000e+00,-1.000000000000000000e+00,6.000000000000000000e+00,5.400000000000000000e+01,7.200000000000000000e+01,0.000000000000000000e+00
1.733999999999999986e+01,-7.000000000000000000e+00,1.000000000000000000e+00,1.000000000000000000e+00,-1.000000000000000000e+00,-2.000000000000000000e+00,-1.000000000000000000e+00,5.000000000000000000e+01,7.600000000000000000e+01,0.000000000000000000e+00
1.734499999999999886e+01,5.100000000000000000e+01,2.900000000000000000e+01,1.700000000000000000e+01,0.000000000000000000e+00,2.000000000000000000e+00,1.700000000000000000e+01,2.000000000000000000e+01,-5.000000000000000000e+01,0.000000000000000000e+00
1.735000000000000142e+01,-9.200000000000000000e+01,-7.000000000000000000e+01,-6.000000000000000000e+01,-2.100000000000000000e+01,-1.200000000000000000e+01,-1.800000000000000000e+01,-8.000000000000000000e+01,-7.000000000000000000e+00,0.000000000000000000e+00
1.735500000000000043e+01,-5.000000000000000000e+01,-4.500000000000000000e+01,1.100000000000000000e+01,-3.000000000000000000e+00,-6.000000000000000000e+00,-9.000000000000000000e+00,-5.900000000000000000e+01,-5.700000000000000000e+01,0.000000000000000000e+00
1.735999999999999943e+01,6.200000000000000000e+01,1.500000000000000000e+01,-1.000000000000000000e+01,4.000000000000000000e+00,4.000000000000000000e+00,-1.000000000000000000e+00,1.800000000000000000e+01,-5.400000000000000000e+01,0.000000000000000000e+00
1.736500000000000199e+01,-2.000000000000000000e+01,0.000000000000000000e+00,-6.000000000000000000e+00,-7.000000000000000000e+00,-7.000000000000000000e+00,8.000000000000000000e+00,9.400000000000000000e+01,9.000000000000000000e+01,0.000000000000000000e+00
1.737000000000000099e+01,1.300000000000000000e+01,3.500000000000000000e+01,1.100000000000000000e+01,8.000000000000000000e+00,0.000000000000000000e+00,-1.000000000000000000e+00,-4.400000000000000000e+01,-4.000000000000000000e+00,0.000000000000000000e+00
1.737500000000000000e+01,5.800000000000000000e+01,2.300000000000000000e+01,1.600000000000000000e+01,5.200000000000000000e+01,1.100000000000000000e+01,2.000000000000000000e+00,7.000000000000000000e+00,2.900000000000000000e+01,0.000000000000000000e+00
1.737999999999999901e+01,-7.800000000000000000e+01,-3.900000000000000000e+01,1.600000000000000000e+01,7.000000000000000000e+00,7.000000000000000000e+00,-3.000000000000000000e+00,-3.200000000000000000e+01,-8.800000000000000000e+01,0.000000000000000000e+00
1.738500000000000156e+01,8.000000000000000000e+00,-1.700000000000000000e+01,-4.100000000000000000e+01,-8.000000000000000000e+01,-2.700000000000000000e+01,-8.000000000000000000e+00,1.300000000000000000e+01,5.100000000000000000e+01,0.000000000000000000e+00
1.739000000000000057e+01,4.000000000000000000e+00,2.100000000000000000e+01,3.900000000000000000e+01,1.700000000000000000e+01,8.000000000000000000e+00,9.000000000000000000e+00,3.000000000000000000e+01,2.000000000000000000e+00,0.000000000000000000e+00
1.739499999999999957e+01,2.800000000000000000e+01,1.600000000000000000e+01,-1.800000000000000000e+01,-1.300000000000000000e+01,-1.000000000000000000e+00,-5.000000000000000000e+00,-3.700000000000000000e+01,4.500000000000000000e+01,0.000000000000000000e+00
1.740000000000000213e+01,-3.600000000000000000e+01,3.000000000000000000e+00,2.000000000000000000e+01,3.200000000000000000e+01,8.000000000000000000e+00,4.000000000000000000e+00,-4.000000000000000000e+00,-5.600000000000000000e+01,0.000000000000000000e+00
1.740500000000000114e+01,6.900000000000000000e+01,-3.100000000000000000e+01,-5.000000000000000000e+00,7.000000000000000000e+00,0.000000000000000000e+00,-3.000000000000000000e+00,-5.000000000000000000e+00,-1.700000000000000000e+01,0.000000000000000000e+00
1.741000000000000014e+01,4.900000000000000000e+01,0.000000000000000000e+00,1.300000000000000000e+01,0.000000000000000000e+00,1.000000000000000000e+00,5.000000000000000000e+00,6.100000000000000000e+01,4.000000000000000000e+01,0.000000000000000000e+00
1.741499999999999915e+01,5.100000000000000000e+01,3.800000000000000000e+01,4.000000000000000000e+00,-1.000000000000000000e+00,2.000000000000000000e+00,-3.000000000000000000e+00,-6.800000000000000000e+01,-2.700000000000000000e+01,0.000000000000000000e+00
1.742000000000000171e+01,1.200000000000000000e+01,6.000000000000000000e+01,1.000000000000000000e+01,0.000000000000000000e+00,-2.000000000000000000e+00,-3.000000000000000000e+00,3.700000000000000000e+01,4.500000000000000000e+01,0.000000000000000000e+00
1.742500000000000071e+01,-3.700000000000000000e+01,-3.200000000000000000e+01,-2.200000000000000000e+01,-4.000000000000000000e+00,-3.000000000000000000e+00,-5.000000000000000000e+00,-2.200000000000000000e+01,9.200000000000000000e+01,0.000000000000000000e+00
1.742999999999999972e+01,7.000000000000000000e+00,-1.900000000000000000e+01,-2.700000000000000000e+01,-7.000000000000000000e+00,-9.000000000000000000e+00,-1.000000000000000000e+01,-8.000000000000000000e+00,4.500000000000000000e+01,0.000000000000000000e+00
1.743499999999999872e+01,-3.400000000000000000e+01,-2.700000000000000000e+01,-1.200000000000000000e+01,0.000000000000000000e+00,5.000000000000000000e+00,1.100000000000000000e+01,6.300000000000000000e+01,-8.900000000000000000e+01,0.000000000000000000e+00
1.744000000000000128e+01,1.160000000000000000e+02,0.000000000000000000e+00,-1.200000000000000000e+01,-1.900000000000000000e+01,-1.200000000000000000e+01,-1.000000000000000000e+01,1.900000000000000000e+01,8.300000000000000000e+01,0.000000000000000000e+00
1.744500000000000028e+01,-6.000000000000000000e+00,7.100000000000000000e+01,2.200000000000000000e+01,1.400000000000000000e+01,4.000000000000000000e+00,-4.000000000000000000e+00,2.300000000000000000e+01,-8.300000000000000000e+01,0.000000000000000000e+00
1.744999999999999929e+01,2.000000000000000000e+01,1.000000000000000000e+01,5.100000000000000000e+01,2.600000000000000000e+01,1.100000000000000000e+01,6.000000000000000000e+00,6.300000000000000000e+01,2.000000000000000000e+01,0.000000000000000000e+00
1.745500000000000185e+01,-7.500000000000000000e+01,2.800000000000000000e+01,8.000000000000000000e+00,-7.000000000000000000e+00,-7.000000000000000000e+00,3.000000000000000000e+00,2.800000000000000000e+01,-6.200000000000000000e+01,0.000000000000000000e+00
1.746000000000000085e+01,-6.100000000000000000e+01,-4.900000000000000000e+01,2.000000000000000000e+00,-4.000000000000000000e+00,-3.000000000000000000e+00,-9.000000000000000000e+00,-5.100000000000000000e+01,1.700000000000000000e+01,0.000000000000000000e+00
1.746499999999999986e+01,4.700000000000000000e+01,-1.500000000000000000e+01,-1.000000000000000000e+01,8.000000000000000000e+00,3.000000000000000000e+00,-3.000000000000000000e+00,-3.200000000000000000e+01,-3.700000000000000000e+01,0.000000000000000000e+00
1.746999999999999886e+01,-2.200000000000000000e+01,9.000000000000000000e+00,-1.300000000000000000e+01,-1.100000000000000000e+01,-7.000000000000000000e+00,-3.000000000000000000e+00,-5.000000000000000000e+01,-6.800000000000000000e+01,0.000000000000000000e+00
1.747500000000000142e+01,1.230000000000000000e+02,3.900000000000000000e+01,2.500000000000000000e+01,1.000000000000000000e+01,6.000000000000000000e+00,1.200000000000000000e+01,8.100000000000000000e+01,-4.800000000000000000e+01,0.000000000000000000e+00
1.748000000000000043e+01,6.000000000000000000e+00,1.800000000000000000e+01,-6.000000000000000000e+00,-3.000000000000000000e+00,-9.000000000000000000e+00,-1.600000000000000000e+01,-1.030000000000000000e+02,-1.000000000000000000e+00,0.000000000000000000e+00
1.748499999999999943e+01,5.600000000000000000e+01,2.400000000000000000e+01,1.000000000000000000e+01,-1.300000000000000000e+01,-1.000000000000000000e+00,8.000000000000000000e+00,9.000000000000000000e+01,7.000000000000000000e+01,0.000000000000000000e+00
1.749000000000000199e+01,8.200000000000000000e+01,-4.000000000000000000e+01,-8.000000000000000000e+00,-4.000000000000000000e+00,1.000000000000000000e+00,-3.000000000000000000e+00,-1.500000000000000000e+01,1.600000000000000000e+01,0.000000000000000000e+00
1.749500000000000099e+01,-1.100000000000000000e+01,-6.500000000000000000e+01,-6.000000000000000000e+00,8.000000000000000000e+00,8.000000000000000000e+00,3.000000000000000000e+00,-4.000000000000000000e+00,-6.900000000000000000e+01,0.000000000000000000e+00
1.750000000000000000e+01,-1.200000000000000000e+01,5.800000000000000000e+01,1.000000000000000000e+00,2.500000000000000000e+01,-3.000000000000000000e+00,8.000000000000000000e+00,-6.000000000000000000e+00,-4.800000000000000000e+01,0.000000000000000000e+00
1.750499999999999901e+01,5.900000000000000000e+01,-6.000000000000000000e+00,1.100000000000000000e+01,1.900000000000000000e+01,8.000000000000000000e+00,0.000000000000000000e+00,-1.900000000000000000e+01,3.000000000000000000e+01,0.000000000000000000e+00
1.751000000000000156e+01,-6.300000000000000000e+01,3.700000000000000000e+01,-7.000000000000000000e+00,1.100000000000000000e+01,-3.000000000000000000e+00,-1.600000000000000000e+01,5.000000000000000000e+00,-3.600000000000000000e+01,0.000000000000000000e+00
1.751500000000000057e+01,-1.500000000000000000e+01,-6.200000000000000000e+01,-3.000000000000000000e+00,1.000000000000000000e+00,6.000000000000000000e+00,8.000000000000000000e+00,-1.500000000000000000e+01,4.200000000000000000e+01,0.000000000000000000e+00
1.751999999999999957e+01,1.600000000000000000e+01,-1.100000000000000000e+01,-2.300000000000000000e+01,-3.900000000000000000e+01,3.000000000000000000e+00,9.000000000000000000e+00,2.000000000000000000e+01,-5.400000000000000000e+01,0.000000000000000000e+00
1.752500000000000213e+01,-7.800000000000000000e+01,-1.000000000000000000e+01,5.000000000000000000e+00,-6.000000000000000000e+00,-1.100000000000000000e+01,-2.000000000000000000e+00,6.600000000000000000e+01,-4.700000000000000000e+01,0.000000000000000000e+00
1.753000000000000114e+01,1.020000000000000000e+02,-8.000000000000000000e+00,0.000000000000000000e+00,1.100000000000000000e+01,-6.000000000000000000e+00,-9.000000000000000000e+00,-9.900000000000000000e+01,8.200000000000000000e+01,0.000000000000000000e+00
1.753500000000000014e+01,5.000000000000000000e+00,-3.000000000000000000e+00,0.000000000000000000e+00,9.000000000000000000e+00,6.000000000000000000e+00,2.000000000000000000e+00,6.000000000000000000e+00,-1.000000000000000000e+01,0.000000000000000000e+00
1.753999999999999915e+01,-6.000000000000000000e+00,6.000000000000000000e+00,0.000000000000000000e+00,-4.000000000000000000e+00,4.000000000000000000e+00,0.000000000000000000e+00,-8.000000000000000000e+00,-2.000000000000000000e+00,0.000000000000000000e+00
1.754500000000000171e+01,-1.000000000000000000e+00,3.000000000000000000e+00,-3.000000000000000000e+00,-1.200000000000000000e+01,-7.000000000000000000e+00,2.000000000000000000e+00,-1.000000000000000000e+00,-1.000000000000000000e+01,0.000000000000000000e+00
1.755000000000000071e+01,-3.000000000000000000e+00,2.000000000000000000e+00,-1.000000000000000000e+00,6.000000000000000000e+00,-7.000000000000000000e+00,1.000000000000000000e+00,2.000000000000000000e+00,-9.000000000000000000e+00,0.000000000000000000e+00
1.755499999999999972e+01,-2.000000000000000000e+00,-3.000000000000000000e+00,-2.000000000000000000e+00,6.000000000000000000e+00,2.000000000000000000e+00,8.000000000000000000e+00,8.000000000000000000e+00,2.000000000000000000e+00,0.000000000000000000e+00
1.755999999999999872e+01,-6.000000000000000000e+00,-3.000000000000000000e+00,-2.000000000000000000e+00,5.000000000000000000e+00,2.000000000000000000e+01,1.500000000000000000e+01,-2.000000000000000000e+00,-6.000000000000000000e+00,0.000000000000000000e+00
1.756500000000000128e+01,-3.000000000000000000e+00,-2.000000000000000000e+00,-7.000000000000000000e+00,-1.500000000000000000e+01,-2.000000000000000000e+00,-3.000000000000000000e+00,-1.000000000000000000e+00,-2.000000000000000000e+00,0.000000000000000000e+00
1.757000000000000028e+01,0.000000000000000000e+00,1.000000000000000000e+00,-3.000000000000000000e+00,-4.000000000000000000e+00,-3.000000000000000000e+00,1.000000000000000000e+00,4.000000000000000000e+00,1.000000000000000000e+00,0.000000000000000000e+00
1.757499999999999929e+01,-4.000000000000000000e+00,2.000000000000000000e+00,-1.500000000000000000e+01,-1.000000000000000000e+00,-1.500000000000000000e+01,-3.000000000000000000e+00,-6.000000000000000000e+00,-8.000000000000000000e+00,0.000000000000000000e+00
1.758000000000000185e+01,-5.000000000000000000e+00,-9.000000000000000000e+00,9.000000000000000000e+00,1.600000000000000000e+01,-2.000000000000000000e+00,-1.500000000000000000e+01,-3.000000000000000000e+00,-4.000000000000000000e+00,0.000000000000000000e+00
1.758500000000000085e+01,2.000000000000000000e+00,3.000000000000000000e+00,3.000000000000000000e+00,0.000000000000000000e+00,-9.000000000000000000e+00,2.000000000000000000e+00,1.000000000000000000e+00,3.000000000000000000e+00,0.000000000000000000e+00
1.758999999999999986e+01,-4.000000000000000000e+00,-4.000000000000000000e+00,-7.000000000000000000e+00,-1.800000000000000000e+01,-6.000000000000000000e+00,6.000000000000000000e+00,-2.000000000000000000e+00,-1.000000000000000000e+00,0.000000000000000000e+00
1.759499999999999886e+01,-3.000000000000000000e+00,-3.000000000000000000e+00,-1.900000000000000000e+01,-2.400000000000000000e+01,-7.000000000000000000e+00,-1.900000000000000000e+01,-6.000000000000000000e+00,-5.000000000000000000e+00,0.000000000000000000e+00
1.760000000000000142e+01,-5.000000000000000000e+00,0.000000000000000000e+00,-2.000000000000000000e+00,1.000000000000000000e+00,-3.000000000000000000e+00,-7.000000000000000000e+00,-5.000000000000000000e+00,0.000000000000000000e+00,0.000000000000000000e+00
1.760500000000000043e+01,2.000000000000000000e+00,-1.000000000000000000e+00,2.000000000000000000e+00,1.100000000000000000e+01,1.300000000000000000e+01,1.100000000000000000e+01,1.000000000000000000e+00,0.000000000000000000e+00,0.000000000000000000e+00
1.760999999999999943e+01,2.000000000000000000e+00,3.000000000000000000e+00,6.000000000000000000e+00,7.000000000000000000e+00,-8.000000000000000000e+00,-7.000000000000000000e+00,2.000000000000000000e+00,-3.000000000000000000e+00,0.000000000000000000e+00
1.761500000000000199e+01,-3.000000000000000000e+00,-4.000000000000000000e+00,5.000000000000000000e+00,6.000000000000000000e+00,7.000000000000000000e+00,1.300000000000000000e+01,2.000000000000000000e+00,-2.000000000000000000e+00,0.000000000000000000e+00
1.762000000000000099e+01,-7.000000000000000000e+00,-6.000000000000000000e+00,-1.400000000000000000e+01,-1.800000000000000000e+01,-1.200000000000000000e+01,-9.000000000000000000e+00,-5.000000000000000000e+00,-4.000000000000000000e+00,0.000000000000000000e+00
1.762500000000000000e+01,-3.000000000000000000e+00,-2.000000000000000000e+00,-5.000000000000000000e+00,-1.300000000000000000e+01,-1.700000000000000000e+01,-2.100000000000000000e+01,-5.000000000000000000e+00,-1.000000000000000000e+00,0.000000000000000000e+00
1.762999999999999901e+01,1.000000000000000000e+00,4.000000000000000000e+00,6.000000000000000000e+00,2.000000000000000000e+01,2.500000000000000000e+01,1.800000000000000000e+01,4.000000000000000000e+00,1.000000000000000000e+00,0.000000000000000000e+00
1.763500000000000156e+01,-3.000000000000000000e+00,0.000000000000000000e+00,3.000000000000000000e+00,1.000000000000000000e+00,-1.200000000000000000e+01,-2.000000000000000000e+01,-1.000000000000000000e+00,-1.000000000000000000e+00,0.000000000000000000e+00
1.764000000000000057e+01,-3.000000000000000000e+00,-3.000000000000000000e+00,-6.000000000000000000e+00,-2.400000000000000000e+01,-1.500000000000000000e+01,6.000000000000000000e+00,-7.000000000000000000e+00,-3.000000000000000000e+00,0.000000000000000000e+00
1.764499999999999957e+01,1.000000000000000000e+00,1.000000000000000000e+00,-7.000000000000000000e+00,1.100000000000000000e+01,1.100000000000000000e+01,1.700000000000000000e+01,6.000000000000000000e+00,-1.000000000000000000e+00,0.000000000000000000e+00
1.765000000000000213e+01,1.000000000000000000e+00,4.000000000000000000e+00,1.100000000000000000e+01,2.700000000000000000e+01,3.000000000000000000e+01,4.000000000000000000e+00,2.000000000000000000e+00,2.000000000000000000e+00,0.000000000000000000e+00
1.765500000000000114e+01,-3.000000000000000000e+00,-5.000000000000000000e+00,-9.000000000000000000e+00,-6.700000000000000000e+01,-1.100000000000000000e+01,-1.000000000000000000e+00,-3.000000000000000000e+00,-3.000000000000000000e+00,0.000000000000000000e+00
1.766000000000000014e+01,-5.000000000000000000e+00,-5.000000000000000000e+00,-4.000000000000000000e+00,2.300000000000000000e+01,-2.700000000000000000e+01,-2.000000000000000000e+01,-5.000000000000000000e+00,-3.000000000000000000e+00,0.000000000000000000e+00
1.766499999999999915e+01,-1.000000000000000000e+00,-2.000000000000000000e+00,3.000000000000000000e+00,9.000000000000000000e+00,-3.900000000000000000e+01,-8.000000000000000000e+00,-8.000000000000000000e+00,-6.000000000000000000e+00,0.000000000000000000e+00
1.767000000000000171e+01,0.000000000000000000e+00,-1.000000000000000000e+00,-1.100000000000000000e+01,1.200000000000000000e+01,3.500000000000000000e+01,1.200000000000000000e+01,2.000000000000000000e+00,2.000000000000000000e+00,0.000000000000000000e+00
1.767500000000000071e+01,0.000000000000000000e+00,0.000000000000000000e+00,-1.500000000000000000e+01,-7.200000000000000000e+01,-8.000000000000000000e+00,8.000000000000000000e+00,3.000000000000000000e+00,3.000000000000000000e+00,0.000000000000000000e+00
1.767999999999999972e+01,-4.000000000000000000e+00,-1.000000000000000000e+00,-1.000000000000000000e+00,2.700000000000000000e+01,1.800000000000000000e+01,-2.000000000000000000e+00,-1.000000000000000000e+00,-1.000000000000000000e+00,0.000000000000000000e+00
1.768499999999999872e+01,0.000000000000000000e+00,0.000000000000000000e+00,2.000000000000000000e+00,5.000000000000000000e+00,-9.000000000000000000e+00,3.000000000000000000e+00,5.000000000000000000e+00,0.000000000000000000e+00,0.000000000000000000e+00
1.769000000000000128e+01,2.000000000000000000e+00,3.000000000000000000e+00,1.400000000000000000e+01,4.300000000000000000e+01,1.300000000000000000e+01,-4.000000000000000000e+00,0.000000000000000000e+00,-1.000000000000000000e+00,0.000000000000000000e+00
1.769500000000000028e+01,-3.000000000000000000e+00,0.000000000000000000e+00,0.000000000000000000e+00,1.300000000000000000e+01,1.100000000000000000e+01,3.000000000000000000e+00,-3.000000000000000000e+00,-3.000000000000000000e+00,0.000000000000000000e+00
1.769999999999999929e+01,1.000000000000000000e+00,3.000000000000000000e+00,-9.000000000000000000e+00,-1.400000000000000000e+01,1.000000000000000000e+00,1.300000000000000000e+01,2.000000000000000000e+00,-2.000000000000000000e+00,0.000000000000000000e+00
1.770500000000000185e+01,-1.200000000000000000e+01,-1.500000000000000000e+01,-3.100000000000000000e+01,-8.900000000000000000e+01,-6.700000000000000000e+01,-3.800000000000000000e+01,-1.200000000000000000e+01,-6.000000000000000000e+00,0.000000000000000000e+00
1.771000000000000085e+01,2.000000000000000000e+00,5.000000000000000000e+00,1.100000000000000000e+01,-1.600000000000000000e+01,-2.200000000000000000e+01,-3.000000000000000000e+00,3.000000000000000000e+00,4.000000000000000000e+00,0.000000000000000000e+00
1.771499999999999986e+01,6.000000000000000000e+00,8.000000000000000000e+00,2.100000000000000000e+01,1.220000000000000000e+02,4.000000000000000000e+01,1.400000000000000000e+01,1.000000000000000000e+01,3.000000000000000000e+00,0.000000000000000000e+00
1.771999999999999886e+01,-7.000000000000000000e+00,-1.100000000000000000e+01,-1.400000000000000000e+01,-5.900000000000000000e+01,-1.000000000000000000e+01,-1.200000000000000000e+01,-1.100000000000000000e+01,-9.000000000000000000e+00,0.000000000000000000e+00
1.772500000000000142e+01,1.000000000000000000e+00,4.000000000000000000e+00,1.600000000000000000e+01,8.800000000000000000e+01,8.000000000000000000e+00,4.000000000000000000e+00,1.000000000000000000e+00,-1.000000000000000000e+00,0.000000000000000000e+00
1.773000000000000043e+01,1.000000000000000000e+00,3.000000000000000000e+00,-6.000000000000000000e+00,-8.800000000000000000e+01,1.800000000000000000e+01,4.000000000000000000e+00,3.000000000000000000e+00,-2.000000000000000000e+00,0.000000000000000000e+00
1.773499999999999943e+01,-5.000000000000000000e+00,-6.000000000000000000e+00,-6.000000000000000000e+00,-2.400000000000000000e+01,-4.800000000000000000e+01,-1.900000000000000000e+01,-7.000000000000000000e+00,-3.000000000000000000e+00,0.000000000000000000e+00
1.774000000000000199e+01,4.000000000000000000e+00,1.200000000000000000e+01,3.700000000000000000e+01,8.600000000000000000e+01,3.100000000000000000e+01,3.000000000000000000e+00,2.000000000000000000e+00,2.000000000000000000e+00,0.000000000000000000e+00
1.774500000000000099e+01,-5.000000000000000000e+00,-4.000000000000000000e+00,-5.000000000000000000e+00,-2.300000000000000000e+01,1.500000000000000000e+01,2.100000000000000000e+01,-1.000000000000000000e+00,0.000000000000000000e+00,0.000000000000000000e+00
1.775000000000000000e+01,-4.000000000000000000e+00,-6.000000000000000000e+00,-1.200000000000000000e+01,-3.300000000000000000e+01,1.100000000000000000e+01,4.000000000000000000e+00,0.000000000000000000e+00,-2.000000000000000000e+00,0.000000000000000000e+00
1.775499999999999901e+01,9.000000000000000000e+00,1.400000000000000000e+01,2.700000000000000000e+01,7.500000000000000000e+01,4.400000000000000000e+01,1.000000000000000000e+01,9.000000000000000000e+00,5.000000000000000000e+00,0.000000000000000000e+00
1.776000000000000156e+01,-7.000000000000000000e+00,-1.100000000000000000e+01,-2.700000000000000000e+01,-8.900000000000000000e+01,-5.200000000000000000e+01,-1.100000000000000000e+01,-1.000000000000000000e+01,-6.000000000000000000e+00,0.000000000000000000e+00
1.776500000000000057e+01,2.000000000000000000e+00,5.000000000000000000e+00,1.500000000000000000e+01,7.900000000000000000e+01,2.000000000000000000e+01,-3.000000000000000000e+01,-1.000000000000000000e+00,2.000000000000000000e+00,0.000000000000000000e+00
1.776999999999999957e+01,-8.000000000000000000e+00,-1.000000000000000000e+01,-3.400000000000000000e+01,-7.000000000000000000e+01,-3.600000000000000000e+01,-1.000000000000000000e+00,-3.000000000000000000e+00,-5.000000000000000000e+00,0.000000000000000000e+00
1.777500000000000213e+01,-2.000000000000000000e+00,2.000000000000000000e+00,1.800000000000000000e+01,4.600000000000000000e+01,1.200000000000000000e+01,1.000000000000000000e+00,-2.000000000000000000e+00,0.000000000000000000e+00,0.000000000000000000e+00
1.778000000000000114e+01,4.000000000000000000e+00,5.000000000000000000e+00,3.000000000000000000e+00,-1.400000000000000000e+01,1.700000000000000000e+01,6.000000000000000000e+00,5.000000000000000000e+00,4.000000000000000000e+00,0.000000000000000000e+00
1.778500000000000014e+01,3.000000000000000000e+00,4.000000000000000000e+00,2.600000000000000000e+01,1.170000000000000000e+02,2.200000000000000000e+01,1.200000000000000000e+01,0.000000000000000000e+00,-1.000000000000000000e+00,0.000000000000000000e+00
1.778999999999999915e+01,-3.000000000000000000e+00,-9.000000000000000000e+00,-4.000000000000000000e+01,-7.600000000000000000e+01,-2.500000000000000000e+01,-8.000000000000000000e+00,-8.000000000000000000e+00,-6.000000000000000000e+00,0.000000000000000000e+00
1.779500000000000171e+01,6.000000000000000000e+00,6.000000000000000000e+00,2.300000000000000000e+01,3.500000000000000000e+01,1.000000000000000000e+01,1.000000000000000000e+00,6.000000000000000000e+00,1.300000000000000000e+01,0.000000000000000000e+00
1.780000000000000071e+01,-3.000000000000000000e+00,4.000000000000000000e+00,-1.300000000000000000e+01,-6.700000000000000000e+01,1.000000000000000000e+01,8.000000000000000000e+00,2.000000000000000000e+00,-8.000000000000000000e+00,0.000000000000000000e+00
1.780499999999999972e+01,1.000000000000000000e+00,-3.000000000000000000e+00,-1.000000000000000000e+00,-6.000000000000000000e+00,2.000000000000000000e+00,4.000000000000000000e+00,5.000000000000000000e+00,1.100000000000000000e+01,0.000000000000000000e+00
1.780999999999999872e+01,4.000000000000000000e+00,7.000000000000000000e+00,1.000000000000000000e+01,-1.000000000000000000e+01,-2.000000000000000000e+00,-6.000000000000000000e+00,1.000000000000000000e+00,5.000000000000000000e+00,0.000000000000000000e+00
1.781500000000000128e+01,-1.200000000000000000e+01,-2.100000000000000000e+01,-5.700000000000000000e+01,-5.700000000000000000e+01,-1.900000000000000000e+01,-4.000000000000000000e+00,-1.500000000000000000e+01,-2.400000000000000000e+01,0.000000000000000000e+00
1.782000000000000028e+01,-1.000000000000000000e+01,-1.400000000000000000e+01,-4.000000000000000000e+00,-2.400000000000000000e+01,-4.700000000000000000e+01,-2.000000000000000000e+01,-1.100000000000000000e+01,3.000000000000000000e+00,0.000000000000000000e+00
1.782499999999999929e+01,3.000000000000000000e+00,1.000000000000000000e+01,2.400000000000000000e+01,4.300000000000000000e+01,2.600000000000000000e+01,9.000000000000000000e+00,2.000000000000000000e+00,-8.000000000000000000e+00,0.000000000000000000e+00
1.783000000000000185e+01,-6.000000000000000000e+00,-1.100000000000000000e+01,-2.900000000000000000e+01,-3.300000000000000000e+01,-1.300000000000000000e+01,-3.000000000000000000e+00,-3.000000000000000000e+00,-1.100000000000000000e+01,0.000000000000000000e+00
1.783500000000000085e+01,1.000000000000000000e+00,-1.000000000000000000e+00,1.400000000000000000e+01,5.700000000000000000e+01,8.000000000000000000e+00,1.000000000000000000e+00,2.000000000000000000e+00,1.500000000000000000e+01,0.000000000000000000e+00
1.783999999999999986e+01,9.000000000000000000e+00,7.000000000000000000e+00,5.000000000000000000e+00,1.500000000000000000e+01,3.500000000000000000e+01,5.000000000000000000e+00,8.000000000000000000e+00,4.000000000000000000e+00,0.000000000000000000e+00
1.784499999999999886e+01,-9.000000000000000000e+00,-6.000000000000000000e+00,-4.000000000000000000e+00,3.700000000000000000e+01,-1.100000000000000000e+01,-4.000000000000000000e+00,-4.000000000000000000e+00,-1.000000000000000000e+01,0.000000000000000000e+00
1.785000000000000142e+01,2.000000000000000000e+00,4.000000000000000000e+00,5.000000000000000000e+00,-1.600000000000000000e+01,-1.100000000000000000e+01,0.000000000000000000e+00,1.000000000000000000e+00,5.000000000000000000e+00,0.000000000000000000e+00
1.785500000000000043e+01,-1.100000000000000000e+01,-1.300000000000000000e+01,-9.000000000000000000e+00,6.100000000000000000e+01,-2.900000000000000000e+01,-7.000000000000000000e+00,-1.000000000000000000e+01,-1.300000000000000000e+01,0.000000000000000000e+00
1.785999999999999943e+01,2.000000000000000000e+00,0.000000000000000000e+00,-7.000000000000000000e+00,-2.800000000000000000e+01,1.000000000000000000e+01,-4.000000000000000000e+00,1.000000000000000000e+00,-1.000000000000000000e+00,0.000000000000000000e+00
1.786500000000000199e+01,-2.000000000000000000e+00,-2.000000000000000000e+00,1.000000000000000000e+00,-1.100000000000000000e+01,6.000000000000000000e+00,0.000000000000000000e+00,-3.000000000000000000e+00,-5.000000000000000000e+00,0.000000000000000000e+00
1.787000000000000099e+01,0.000000000000000000e+00,2.000000000000000000e+00,-5.000000000000000000e+00,-1.700000000000000000e+01,4.000000000000000000e+00,2.000000000000000000e+00,1.000000000000000000e+00,3.000000000000000000e+00,0.000000000000000000e+00
1.787500000000000000e+01,6.000000000000000000e+00,9.000000000000000000e+00,6.000000000000000000e+00,-5.900000000000000000e+01,1.100000000000000000e+01,8.000000000000000000e+00,9.000000000000000000e+00,6.000000000000000000e+00,0.000000000000000000e+00
1.787999999999999901e+01,0.000000000000000000e+00,-8.000000000000000000e+00,-1.000000000000000000e+00,1.020000000000000000e+02,-1.500000000000000000e+01,-4.000000000000000000e+00,4.000000000000000000e+00,3.300000000000000000e+01,0.000000000000000000e+00
1.788500000000000156e+01,-1.600000000000000000e+01,-1.100000000000000000e+01,-1.700000000000000000e+01,-6.200000000000000000e+01,-6.000000000000000000e+00,-6.000000000000000000e+00,-1.200000000000000000e+01,-6.000000000000000000e+01,0.000000000000000000e+00
1.789000000000000057e+01,-3.000000000000000000e+00,-2.000000000000000000e+00,1.100000000000000000e+01,1.000000000000000000e+00,-1.300000000000000000e+01,-8.000000000000000000e+00,-2.100000000000000000e+01,0.000000000000000000e+00,0.000000000000000000e+00
1.789499999999999957e+01,2.000000000000000000e+00,-3.000000000000000000e+00,-1.400000000000000000e+01,-1.800000000000000000e+01,-2.000000000000000000e+00,-1.000000000000000000e+00,1.000000000000000000e+00,-3.000000000000000000e+00,0.000000000000000000e+00
1.790000000000000213e+01,4.000000000000000000e+00,6.000000000000000000e+00,2.000000000000000000e+01,2.500000000000000000e+01,1.000000000000000000e+01,0.000000000000000000e+00,4.000000000000000000e+00,1.200000000000000000e+01,0.000000000000000000e+00
1.790500000000000114e+01,6.000000000000000000e+00,2.000000000000000000e+00,-1.800000000000000000e+01,-3.700000000000000000e+01,4.000000000000000000e+00,6.000000000000000000e+00,9.000000000000000000e+00,1.500000000000000000e+01,0.000000000000000000e+00
1.791000000000000014e+01,-6.000000000000000000e+00,-4.000000000000000000e+00,3.600000000000000000e+01,1.270000000000000000e+02,0.000000000000000000e+00,-7.000000000000000000e+00,-4.000000000000000000e+00,-9.000000000000000000e+00,0.000000000000000000e+00
1.791499999999999915e+01,-1.000000000000000000e+01,-1.500000000000000000e+01,-3.200000000000000000e+01,-6.000000000000000000e+01,-2.600000000000000000e+01,-7.000000000000000000e+00,-1.300000000000000000e+01,-1.700000000000000000e+01,0.000000000000000000e+00
1.792000000000000171e+01,2.000000000000000000e+00,4.000000000000000000e+00,1.000000000000000000e+00,-6.000000000000000000e+00,2.000000000000000000e+00,-5.000000000000000000e+00,-5.000000000000000000e+00,-1.100000000000000000e+01,0.000000000000000000e+00
1.792500000000000071e+01,3.000000000000000000e+00,5.000000000000000000e+00,2.000000000000000000e+00,-1.700000000000000000e+01,6.000000000000000000e+00,6.000000000000000000e+00,4.000000000000000000e+00,1.600000000000000000e+01,0.000000000000000000e+00
1.792999999999999972e+01,0.000000000000000000e+00,1.000000000000000000e+00,8.000000000000000000e+00,2.900000000000000000e+01,5.000000000000000000e+00,1.300000000000000000e+01,1.400000000000000000e+01,-4.000000000000000000e+00,0.000000000000000000e+00
1.793499999999999872e+01,2.000000000000000000e+00,8.000000000000000000e+00,2.000000000000000000e+01,0.000000000000000000e+00,2.800000000000000000e+01,1.500000000000000000e+01,1.000000000000000000e+01,2.100000000000000000e+01,0.000000000000000000e+00
1.794000000000000128e+01,-3.000000000000000000e+00,-7.000000000000000000e+00,3.400000000000000000e+01,4.300000000000000000e+01,-1.000000000000000000e+00,-5.000000000000000000e+00,0.000000000000000000e+00,-9.000000000000000000e+00,0.000000000000000000e+00
1.794500000000000028e+01,-6.000000000000000000e+00,-1.100000000000000000e+01,-3.500000000000000000e+01,-7.000000000000000000e+01,-2.000000000000000000e+01,-1.200000000000000000e+01,-1.100000000000000000e+01,-5.000000000000000000e+00,0.000000000000000000e+00
1.794999999999999929e+01,0.000000000000000000e+00,-5.000000000000000000e+00,-1.000000000000000000e+00,9.000000000000000000e+00,-1.200000000000000000e+01,-1.200000000000000000e+01,-6.000000000000000000e+00,5.000000000000000000e+00,0.000000000000000000e+00
1.795500000000000185e+01,-2.000000000000000000e+00,-3.000000000000000000e+00,2.000000000000000000e+00,-2.000000000000000000e+01,-3.000000000000000000e+00,-4.000000000000000000e+00,-5.000000000000000000e+00,-9.000000000000000000e+00,0.000000000000000000e+00
1.796000000000000085e+01,-5.000000000000000000e+00,1.000000000000000000e+00,-1.400000000000000000e+01,-1.300000000000000000e+01,-1.000000000000000000e+00,5.000000000000000000e+00,-4.000000000000000000e+00,-9.000000000000000000e+00,0.000000000000000000e+00
1.796499999999999986e+01,7.000000000000000000e+00,7.000000000000000000e+00,1.100000000000000000e+01,1.000000000000000000e+01,1.500000000000000000e+01,1.200000000000000000e+01,1.400000000000000000e+01,1.400000000000000000e+01,0.000000000000000000e+00
1.796999999999999886e+01,1.000000000000000000e+00,-3.000000000000000000e+00,1.300000000000000000e+01,3.800000000000000000e+01,0.000000000000000000e+00,-1.000000000000000000e+00,0.000000000000000000e+00,-1.000000000000000000e+00,0.000000000000000000e+00
1.797500000000000142e+01,-4.000000000000000000e+00,-5.000000000000000000e+00,-2.400000000000000000e+01,-3.600000000000000000e+01,-1.400000000000000000e+01,-1.500000000000000000e+01,-6.000000000000000000e+00,-8.000000000000000000e+00,0.000000000000000000e+00
1.798000000000000043e+01,3.000000000000000000e+00,6.000000000000000000e+00,-7.000000000000000000e+00,-1.700000000000000000e+01,3.000000000000000000e+00,2.000000000000000000e+00,-4.000000000000000000e+00,-7.000000000000000000e+00,0.000000000000000000e+00
1.798499999999999943e+01,-3.000000000000000000e+00,-6.000000000000000000e+00,0.000000000000000000e+00,1.700000000000000000e+01,-1.000000000000000000e+01,1.000000000000000000e+00,-5.000000000000000000e+00,1.000000000000000000e+01,0.000000000000000000e+00
1.799000000000000199e+01,-2.000000000000000000e+00,2.000000000000000000e+00,-2.000000000000000000e+00,3.200000000000000000e+01,1.300000000000000000e+01,0.000000000000000000e+00,5.000000000000000000e+00,-4.000000000000000000e+00,0.000000000000000000e+00
1.799500000000000099e+01,1.000000000000000000e+00,4.000000000000000000e+00,1.600000000000000000e+01,-1.000000000000000000e+00,-3.000000000000000000e+00,-4.000000000000000000e+00,-5.000000000000000000e+00,-4.000000000000000000e+00,0.000000000000000000e+00
1.800000000000000000e+01,1.200000000000000000e+01,0.000000000000000000e+00,3.000000000000000000e+01,-6.000000000000000000e+00,7.000000000000000000e+00,4.000000000000000000e+00,1.000000000000000000e+00,8.000000000000000000e+00,0.000000000000000000e+00
1.800499999999999901e+01,-7.000000000000000000e+00,3.000000000000000000e+00,-8.000000000000000000e+00,-2.500000000000000000e+01,0.000000000000000000e+00,-2.000000000000000000e+00,7.000000000000000000e+00,9.000000000000000000e+00,0.000000000000000000e+00
1.801000000000000156e+01,-1.000000000000000000e+00,-3.000000000000000000e+00,-5.000000000000000000e+00,-5.000000000000000000e+00,-4.000000000000000000e+00,2.000000000000000000e+00,-2.000000000000000000e+00,-4.000000000000000000e+00,0.000000000000000000e+00
1.801500000000000057e+01,1.000000000000000000e+00,4.000000000000000000e+00,8.000000000000000000e+00,2.300000000000000000e+01,6.000000000000000000e+00,0.000000000000000000e+00,8.000000000000000000e+00,1.000000000000000000e+00,0.000000000000000000e+00
1.801999999999999957e+01,-9.000000000000000000e+00,-1.000000000000000000e+01,-2.700000000000000000e+01,-2.600000000000000000e+01,-7.000000000000000000e+00,5.000000000000000000e+00,-4.000000000000000000e+00,2.500000000000000000e+01,0.000000000000000000e+00
1.802499999999999858e+01,4.000000000000000000e+00,6.000000000000000000e+00,4.000000000000000000e+00,-4.000000000000000000e+00,5.000000000000000000e+00,-2.000000000000000000e+00,-8.000000000000000000e+00,-1.100000000000000000e+01,0.000000000000000000e+00
1.803000000000000114e+01,-7.000000000000000000e+00,-6.000000000000000000e+00,-6.000000000000000000e+00,-1.600000000000000000e+01,-1.000000000000000000e+01,-1.100000000000000000e+01,-4.000000000000000000e+00,-6.000000000000000000e+00,0.000000000000000000e+00
1.803500000000000014e+01,-4.000000000000000000e+00,1.000000000000000000e+00,9.000000000000000000e+00,-4.000000000000000000e+00,1.100000000000000000e+01,3.000000000000000000e+00,0.000000000000000000e+00,4.000000000000000000e+00,0.000000000000000000e+00
1.803999999999999915e+01,-3.000000000000000000e+00,1.000000000000000000e+00,-8.000000000000000000e+00,4.700000000000000000e+01,-1.100000000000000000e+01,5.000000000000000000e+00,5.000000000000000000e+00,-3.000000000000000000e+00,0.000000000000000000e+00
1.804500000000000171e+01,2.000000000000000000e+00,0.000000000000000000e+00,-3.000000000000000000e+00,2.900000000000000000e+01,7.000000000000000000e+00,-6.000000000000000000e+00,-7.000000000000000000e+00,4.000000000000000000e+00,0.000000000000000000e+00
1.805000000000000071e+01,1.000000000000000000e+00,2.000000000000000000e+00,0.000000000000000000e+00,4.000000000000000000e+00,7.000000000000000000e+00,-3.000000000000000000e+00,-1.000000000000000000e+00,-1.000000000000000000e+00,0.000000000000000000e+00
1.805499999999999972e+01,1.000000000000000000e+00,1.000000000000000000e+00,-2.000000000000000000e+00,3.000000000000000000e+00,-2.000000000000000000e+00,0.000000000000000000e+00,3.000000000000000000e+00,2.000000000000000000e+00,0.000000000000000000e+00
1.805999999999999872e+01,-7.000000000000000000e+00,-4.000000000000000000e+00,-1.400000000000000000e+01,3.000000000000000000e+00,-5.000000000000000000e+00,-5.000000000000000000e+00,-7.000000000000000000e+00,-1.900000000000000000e+01,0.000000000000000000e+00
1.806500000000000128e+01,3.000000000000000000e+00,1.000000000000000000e+00,1.700000000000000000e+01,5.600000000000000000e+01,1.000000000000000000e+00,4.000000000000000000e+00,-2.000000000000000000e+00,0.000000000000000000e+00,0.000000000000000000e+00
1.807000000000000028e+01,1.000000000000000000e+00,0.000000000000000000e+00,2.000000000000000000e+00,-1.400000000000000000e+01,-1.100000000000000000e+01,-1.400000000000000000e+01,-1.000000000000000000e+00,-4.000000000000000000e+00,0.000000000000000000e+00
1.807499999999999929e+01,3.000000000000000000e+00,2.000000000000000000e+00,1.100000000000000000e+01,1.400000000000000000e+01,1.100000000000000000e+01,1.300000000000000000e+01,1.000000000000000000e+00,3.000000000000000000e+00,0.000000000000000000e+00
1.807999999999999829e+01,-2.000000000000000000e+00,0.000000000000000000e+00,4.000000000000000000e+00,3.400000000000000000e+01,5.000000000000000000e+00,7.000000000000000000e+00,7.000000000000000000e+00,-9.000000000000000000e+00,0.000000000000000000e+00
1.808500000000000085e+01,0.000000000000000000e+00,-1.000000000000000000e+00,0.000000000000000000e+00,-2.300000000000000000e+01,8.000000000000000000e+00,3.000000000000000000e+00,2.000000000000000000e+00,2.000000000000000000e+00,0.000000000000000000e+00
1.808999999999999986e+01,-3.000000000000000000e+00,2.000000000000000000e+00,2.000000000000000000e+00,9.000000000000000000e+00,-5.000000000000000000e+00,-6.000000000000000000e+00,-2.000000000000000000e+00,3.000000000000000000e+00,0.000000000000000000e+00
1.809499999999999886e+01,1.000000000000000000e+00,-8.000000000000000000e+00,4.000000000000000000e+00,-6.000000000000000000e+00,-2.000000000000000000e+00,4.000000000000000000e+00,-6.000000000000000000e+00,-6.000000000000000000e+00,0.000000000000000000e+00
1.810000000000000142e+01,5.000000000000000000e+00,1.000000000000000000e+00,0.000000000000000000e+00,2.400000000000000000e+01,-2.000000000000000000e+00,-1.600000000000000000e+01,-3.000000000000000000e+00,1.000000000000000000e+00,0.000000000000000000e+00
1.810500000000000043e+01,-8.000000000000000000e+00,-6.000000000000000000e+00,-8.000000000000000000e+00,-3.800000000000000000e+01,-8.000000000000000000e+00,2.000000000000000000e+00,8.000000000000000000e+00,-2.000000000000000000e+00,0.000000000000000000e+00
1.810999999999999943e+01,-3.000000000000000000e+00,-3.000000000000000000e+00,-2.600000000000000000e+01,-3.700000000000000000e+01,-4.000000000000000000e+00,5.000000000000000000e+00,0.000000000000000000e+00,0.000000000000000000e+00,0.000000000000000000e+00
1.811499999999999844e+01,-2.000000000000000000e+00,0.000000000000000000e+00,5.000000000000000000e+00,1.600000000000000000e+01,-7.000000000000000000e+00,-7.000000000000000000e+00,-5.000000000000000000e+00,-6.000000000000000000e+00,0.000000000000000000e+00
1.812000000000000099e+01,5.000000000000000000e+00,6.000000000000000000e+00,2.000000000000000000e+00,-4.000000000000000000e+01,4.000000000000000000e+00,1.000000000000000000e+00,-2.000000000000000000e+00,-8.000000000000000000e+00,0.000000000000000000e+00
1.812500000000000000e+01,-7.000000000000000000e+00,-1.500000000000000000e+01,-1.100000000000000000e+01,3.000000000000000000e+01,-1.700000000000000000e+01,-9.000000000000000000e+00,-9.000000000000000000e+00,-3.000000000000000000e+00,0.000000000000000000e+00
1.812999999999999901e+01,-1.000000000000000000e+00,0.000000000000000000e+00,3.000000000000000000e+00,-6.000000000000000000e+00,2.000000000000000000e+00,1.000000000000000000e+00,-2.000000000000000000e+00,-1.000000000000000000e+00,0.000000000000000000e+00
1.813500000000000156e+01,-6.000000000000000000e+00,4.000000000000000000e+00,-3.400000000000000000e+01,3.000000000000000000e+00,-6.000000000000000000e+00,-5.000000000000000000e+00,-3.000000000000000000e+00,-6.000000000000000000e+00,0.000000000000000000e+00
1.814000000000000057e+01,-1.000000000000000000e+00,1.000000000000000000e+01,-9.000000000000000000e+00,0.000000000000000000e+00,0.000000000000000000e+00,0.000000000000000000e+00,1.000000000000000000e+00,3.000000000000000000e+00,0.000000000000000000e+00
1.814499999999999957e+01,0.000000000000000000e+00,-5.000000000000000000e+00,-2.000000000000000000e+01,-9.400000000000000000e+01,-2.000000000000000000e+00,0.000000000000000000e+00,-2.000000000000000000e+00,-1.000000000000000000e+00,0.000000000000000000e+00
1.814999999999999858e+01,-2.000000000000000000e+00,1.000000000000000000e+00,1.000000000000000000e+00,1.600000000000000000e+01,4.000000000000000000e+00,4.000000000000000000e+00,0.000000000000000000e+00,-7.000000000000000000e+00,0.000000000000000000e+00
1.815500000000000114e+01,0.000000000000000000e+00,2.000000000000000000e+00,-6.000000000000000000e+00,-1.200000000000000000e+01,-7.000000000000000000e+00,-6.000000000000000000e+00,-1.000000000000000000e+00,5.000000000000000000e+00,0.000000000000000000e+00
1.816000000000000014e+01,-2.000000000000000000e+00,-4.000000000000000000e+00,0.000000000000000000e+00,3.600000000000000000e+01,-1.200000000000000000e+01,-1.000000000000000000e+01,-5.000000000000000000e+00,-9.000000000000000000e+00,0.000000000000000000e+00
1.816499999999999915e+01,2.000000000000000000e+00,-1.000000000000000000e+00,5.000000000000000000e+00,-1.000000000000000000e+00,4.000000000000000000e+00,4.000000000000000000e+00,2.000000000000000000e+00,4.000000000000000000e+00,0.000000000000000000e+00
1.817000000000000171e+01,-1.000000000000000000e+00,-2.000000000000000000e+00,-2.000000000000000000e+00,9.000000000000000000e+00,1.000000000000000000e+00,1.000000000000000000e+00,-1.000000000000000000e+00,-1.000000000000000000e+00,0.000000000000000000e+00
1.817500000000000071e+01,6.000000000000000000e+00,8.000000000000000000e+00,3.400000000000000000e+01,-1.300000000000000000e+01,3.000000000000000000e+00,2.000000000000000000e+00,5.000000000000000000e+00,3.000000000000000000e+00,0.000000000000000000e+00
1.817999999999999972e+01,3.000000000000000000e+00,5.000000000000000000e+00,2.500000000000000000e+01,-3.000000000000000000e+00,9.000000000000000000e+00,1.000000000000000000e+00,6.000000000000000000e+00,3.000000000000000000e+00,0.000000000000000000e+00
1.818499999999999872e+01,-4.000000000000000000e+00,-9.000000000000000000e+00,-2.000000000000000000e+01,9.000000000000000000e+00,0.000000000000000000e+00,3.000000000000000000e+00,-5.000000000000000000e+00,-5.000000000000000000e+00,0.000000000000000000e+00
1.819000000000000128e+01,1.000000000000000000e+00,-3.000000000000000000e+00,7.000000000000000000e+00,-1.400000000000000000e+01,-8.000000000000000000e+00,-4.000000000000000000e+00,-4.000000000000000000e+00,0.000000000000000000e+00,0.000000000000000000e+00
1.819500000000000028e+01,-1.000000000000000000e+00,-4.000000000000000000e+00,-3.000000000000000000e+00,3.800000000000000000e+01,-4.000000000000000000e+00,-8.000000000000000000e+00,-4.000000000000000000e+00,-5.000000000000000000e+00,0.000000000000000000e+00
1.819999999999999929e+01,0.000000000000000000e+00,-4.000000000000000000e+00,-9.000000000000000000e+00,-2.300000000000000000e+01,4.000000000000000000e+00,1.000000000000000000e+01,6.000000000000000000e+00,1.000000000000000000e+00,0.000000000000000000e+00
1.820499999999999829e+01,1.000000000000000000e+00,7.000000000000000000e+00,8.000000000000000000e+00,-9.000000000000000000e+00,9.000000000000000000e+00,3.000000000000000000e+00,0.000000000000000000e+00,1.000000000000000000e+00,0.000000000000000000e+00
1.821000000000000085e+01,0.000000000000000000e+00,0.000000000000000000e+00,4.000000000000000000e+00,-1.100000000000000000e+01,1.100000000000000000e+01,1.000000000000000000e+01,-3.000000000000000000e+00,3.000000000000000000e+00,0.000000000000000000e+00
1.821499999999999986e+01,-7.000000000000000000e+00,-9.000000000000000000e+00,-3.000000000000000000e+01,-1.000000000000000000e+01,-9.000000000000000000e+00,-1.000000000000000000e+01,-1.000000000000000000e+00,-4.000000000000000000e+00,0.000000000000000000e+00
1.821999999999999886e+01,-8.000000000000000000e+00,-1.100000000000000000e+01,-8.000000000000000000e+00,1.600000000000000000e+01,-2.400000000000000000e+01,-2.000000000000000000e+01,-1.000000000000000000e+01,-1.500000000000000000e+01,0.000000000000000000e+00
1.822500000000000142e+01,1.000000000000000000e+00,3.000000000000000000e+00,7.000000000000000000e+00,2.000000000000000000e+00,1.000000000000000000e+00,-1.000000000000000000e+01,-6.000000000000000000e+00,0.000000000000000000e+00,0.000000000000000000e+00
1.823000000000000043e+01,5.000000000000000000e+00,2.000000000000000000e+00,0.000000000000000000e+00,7.000000000000000000e+00,1.200000000000000000e+01,1.800000000000000000e+01,7.000000000000000000e+00,9.000000000000000000e+00,0.000000000000000000e+00
1.823499999999999943e+01,-2.000000000000000000e+00,-2.000000000000000000e+00,7.000000000000000000e+00,-6.000000000000000000e+00,1.100000000000000000e+01,3.000000000000000000e+00,1.000000000000000000e+00,-1.000000000000000000e+00,0.000000000000000000e+00
1.823999999999999844e+01,-2.000000000000000000e+00,-2.000000000000000000e+00,3.000000000000000000e+00,1.300000000000000000e+01,-4.000000000000000000e+00,-3.000000000000000000e+00,-6.000000000000000000e+00,-3.000000000000000000e+00,0.000000000000000000e+00
1.824500000000000099e+01,2.000000000000000000e+00,0.000000000000000000e+00,-1.000000000000000000e+01,-5.700000000000000000e+01,-7.000000000000000000e+00,4.000000000000000000e+00,2.000000000000000000e+00,0.000000000000000000e+00,0.000000000000000000e+00
1.825000000000000000e+01,-2.000000000000000000e+00,1.000000000000000000e+00,7.000000000000000000e+00,2.400000000000000000e+01,-2.000000000000000000e+00,-1.500000000000000000e+01,1.000000000000000000e+00,-2.000000000000000000e+00,0.000000000000000000e+00
1.825499999999999901e+01,-2.000000000000000000e+00,-3.000000000000000000e+00,-9.000000000000000000e+00,-6.000000000000000000e+00,-7.000000000000000000e+00,7.000000000000000000e+00,-3.000000000000000000e+00,-3.000000000000000000e+00,0.000000000000000000e+00
1.826000000000000156e+01,-2.000000000000000000e+00,0.000000000000000000e+00,-3.000000000000000000e+00,-1.700000000000000000e+01,3.000000000000000000e+00,9.000000000000000000e+00,4.000000000000000000e+00,4.000000000000000000e+00,0.000000000000000000e+00
1.826500000000000057e+01,-6.000000000000000000e+00,-5.000000000000000000e+00,-5.000000000000000000e+00,8.000000000000000000e+00,-1.100000000000000000e+01,-1.100000000000000000e+01,-9.000000000000000000e+00,-4.000000000000000000e+00,0.000000000000000000e+00
1.826999999999999957e+01,-1.000000000000000000e+00,-3.000000000000000000e+00,-1.000000000000000000e+00,1.000000000000000000e+01,-1.400000000000000000e+01,-1.300000000000000000e+01,-8.000000000000000000e+00,-8.000000000000000000e+00,0.000000000000000000e+00
1.827499999999999858e+01,1.000000000000000000e+00,-3.000000000000000000e+00,-2.000000000000000000e+00,-9.000000000000000000e+00,-3.000000000000000000e+00,-5.000000000000000000e+00,2.000000000000000000e+00,-1.000000000000000000e+00,0.000000000000000000e+00
1.828000000000000114e+01,-1.000000000000000000e+00,0.000000000000000000e+00,-1.000000000000000000e+00,-1.400000000000000000e+01,1.700000000000000000e+01,0.000000000000000000e+00,2.000000000000000000e+00,1.000000000000000000e+00,0.000000000000000000e+00
1.828500000000000014e+01,2.000000000000000000e+00,-1.000000000000000000e+01,1.300000000000000000e+01,1.200000000000000000e+01,8.000000000000000000e+00,2.500000000000000000e+01,8.000000000000000000e+00,4.000000000000000000e+00,0.000000000000000000e+00
1.828999999999999915e+01,-5.000000000000000000e+00,-4.000000000000000000e+00,-1.700000000000000000e+01,1.000000000000000000e+00,-1.000000000000000000e+00,-4.000000000000000000e+00,-2.000000000000000000e+00,2.000000000000000000e+00,0.000000000000000000e+00
1.829500000000000171e+01,-5.000000000000000000e+00,-1.500000000000000000e+01,1.900000000000000000e+01,-8.000000000000000000e+00,-1.300000000000000000e+01,-1.700000000000000000e+01,-9.000000000000000000e+00,-4.000000000000000000e+00,0.000000000000000000e+00
1.830000000000000071e+01,-1.000000000000000000e+00,-1.600000000000000000e+01,3.000000000000000000e+00,-1.100000000000000000e+01,-6.000000000000000000e+00,9.000000000000000000e+00,3.000000000000000000e+00,-1.000000000000000000e+00,0.000000000000000000e+00
1.830499999999999972e+01,-1.000000000000000000e+00,3.000000000000000000e+00,2.000000000000000000e+00,-1.000000000000000000e+00,5.000000000000000000e+00,-1.700000000000000000e+01,0.000000000000000000e+00,-2.000000000000000000e+00,0.000000000000000000e+00
1.830999999999999872e+01,-2.000000000000000000e+00,-1.000000000000000000e+00,-4.000000000000000000e+00,7.000000000000000000e+00,-1.000000000000000000e+01,-1.700000000000000000e+01,-5.000000000000000000e+00,-3.000000000000000000e+00,0.000000000000000000e+00
1.831500000000000128e+01,0.000000000000000000e+00,0.000000000000000000e+00,-8.000000000000000000e+00,-8.000000000000000000e+00,-1.000000000000000000e+00,4.000000000000000000e+00,-6.000000000000000000e+00,0.000000000000000000e+00,0.000000000000000000e+00
1.832000000000000028e+01,-1.000000000000000000e+00,2.000000000000000000e+00,-5.000000000000000000e+00,-2.000000000000000000e+00,2.000000000000000000e+00,1.000000000000000000e+00,1.000000000000000000e+00,-2.000000000000000000e+00,0.000000000000000000e+00
1.832499999999999929e+01,1.000000000000000000e+00,1.000000000000000000e+00,3.000000000000000000e+00,7.000000000000000000e+00,2.000000000000000000e+00,6.000000000000000000e+00,3.000000000000000000e+00,3.000000000000000000e+00,0.000000000000000000e+00
1.832999999999999829e+01,-3.000000000000000000e+00,-5.000000000000000000e+00,-2.000000000000000000e+00,-1.900000000000000000e+01,2.000000000000000000e+00,6.000000000000000000e+00,2.000000000000000000e+00,-4.000000000000000000e+00,0.000000000000000000e+00
1.833500000000000085e+01,0.000000000000000000e+00,2.000000000000000000e+00,-3.000000000000000000e+00,7.000000000000000000e+00,-1.100000000000000000e+01,-1.000000000000000000e+01,-5.000000000000000000e+00,-2.000000000000000000e+00,0.000000000000000000e+00
1.833999999999999986e+01,-2.000000000000000000e+00,-1.000000000000000000e+00,-6.000000000000000000e+00,-9.000000000000000000e+00,2.000000000000000000e+00,5.000000000000000000e+00,-1.000000000000000000e+00,0.000000000000000000e+00,0.000000000000000000e+00
1.834499999999999886e+01,1.000000000000000000e+00,5.000000000000000000e+00,5.000000000000000000e+00,8.000000000000000000e+00,0.000000000000000000e+00,-1.000000000000000000e+01,-5.000000000000000000e+00,-4.000000000000000000e+00,0.000000000000000000e+00
1.835000000000000142e+01,-1.000000000000000000e+00,1.000000000000000000e+00,-3.000000000000000000e+00,-9.000000000000000000e+00,-1.000000000000000000e+00,3.000000000000000000e+00,6.000000000000000000e+00,3.000000000000000000e+00,0.000000000000000000e+00
1.835500000000000043e+01,0.000000000000000000e+00,3.000000000000000000e+00,2.000000000000000000e+00,0.000000000000000000e+00,1.300000000000000000e+01,1.600000000000000000e+01,7.000000000000000000e+00,3.000000000000000000e+00,0.000000000000000000e+00
1.835999999999999943e+01,-5.000000000000000000e+00,-2.000000000000000000e+00,-1.700000000000000000e+01,-1.100000000000000000e+01,-4.000000000000000000e+00,3.000000000000000000e+00,-5.000000000000000000e+00,-4.000000000000000000e+00,0.000000000000000000e+00
1.836499999999999844e+01,2.000000000000000000e+00,0.000000000000000000e+00,-2.000000000000000000e+00,6.000000000000000000e+00,-1.200000000000000000e+01,-2.100000000000000000e+01,-6.000000000000000000e+00,-2.000000000000000000e+00,0.000000000000000000e+00
1.837000000000000099e+01,0.000000000000000000e+00,-1.000000000000000000e+00,4.000000000000000000e+00,0.000000000000000000e+00,3.000000000000000000e+00,1.200000000000000000e+01,0.000000000000000000e+00,2.000000000000000000e+00,0.000000000000000000e+00
1.837500000000000000e+01,-4.000000000000000000e+00,-5.000000000000000000e+00,-5.000000000000000000e+00,-6.000000000000000000e+00,-2.000000000000000000e+00,-7.000000000000000000e+00,1.000000000000000000e+00,-2.000000000000000000e+00,0.000000000000000000e+00
1.837999999999999901e+01,6.000000000000000000e+00,1.000000000000000000e+00,-2.000000000000000000e+00,-1.000000000000000000e+01,-2.000000000000000000e+00,2.000000000000000000e+00,8.000000000000000000e+00,1.100000000000000000e+01,0.000000000000000000e+00
1.838500000000000156e+01,-1.500000000000000000e+01,-2.000000000000000000e+00,-6.000000000000000000e+00,-2.000000000000000000e+00,-1.000000000000000000e+00,-9.000000000000000000e+00,-1.000000000000000000e+01,-1.600000000000000000e+01,0.000000000000000000e+00
1.839000000000000057e+01,0.000000000000000000e+00,2.000000000000000000e+00,5.000000000000000000e+00,5.000000000000000000e+00,-3.000000000000000000e+00,5.000000000000000000e+00,-5.000000000000000000e+00,1.000000000000000000e+00,0.000000000000000000e+00
1.839499999999999957e+01,3.000000000000000000e+00,0.000000000000000000e+00,-2.000000000000000000e+00,-4.000000000000000000e+00,1.000000000000000000e+00,5.000000000000000000e+00,3.000000000000000000e+00,3.200000000000000000e+01,0.000000000000000000e+00
1.839999999999999858e+01,-2.000000000000000000e+00,2.000000000000000000e+00,-1.000000000000000000e+00,3.000000000000000000e+00,-2.000000000000000000e+00,-1.000000000000000000e+01,-9.000000000000000000e+00,-1.400000000000000000e+01,0.000000000000000000e+00
1.840500000000000114e+01,3.000000000000000000e+00,1.000000000000000000e+00,-1.000000000000000000e+00,-6.000000000000000000e+00,-3.000000000000000000e+00,6.000000000000000000e+00,5.000000000000000000e+00,1.300000000000000000e+01,0.000000000000000000e+00
1.841000000000000014e+01,-1.000000000000000000e+00,-2.000000000000000000e+00,-2.000000000000000000e+00,9.000000000000000000e+00,0.000000000000000000e+00,-5.000000000000000000e+00,2.000000000000000000e+00,-1.300000000000000000e+01,0.000000000000000000e+00
1.841499999999999915e+01,-2.000000000000000000e+00,2.000000000000000000e+00,1.000000000000000000e+00,3.000000000000000000e+00,2.000000000000000000e+00,-1.000000000000000000e+00,-4.000000000000000000e+00,2.000000000000000000e+00,0.000000000000000000e+00
1.842000000000000171e+01,-5.000000000000000000e+00,-3.000000000000000000e+00,-4.000000000000000000e+00,-3.000000000000000000e+00,2.000000000000000000e+00,-4.000000000000000000e+00,1.000000000000000000e+00,9.000000000000000000e+00,0.000000000000000000e+00
1.842500000000000071e+01,5.000000000000000000e+00,-2.000000000000000000e+00,1.000000000000000000e+00,-9.000000000000000000e+00,0.000000000000000000e+00,5.000000000000000000e+00,1.000000000000000000e+01,-4.000000000000000000e+00,0.000000000000000000e+00
1.842999999999999972e+01,-2.000000000000000000e+00,5.000000000000000000e+00,-5.000000000000000000e+00,0.000000000000000000e+00,-2.000000000000000000e+00,0.000000000000000000e+00,-2.200000000000000000e+01,-2.000000000000000000e+00,0.000000000000000000e+00
1.843499999999999872e+01,-5.000000000000000000e+00,-2.000000000000000000e+00,-1.000000000000000000e+00,-2.000000000000000000e+00,2.000000000000000000e+00,1.000000000000000000e+00,-4.000000000000000000e+00,-1.400000000000000000e+01,0.000000000000000000e+00
1.844000000000000128e+01,4.000000000000000000e+00,-2.000000000000000000e+00,-3.000000000000000000e+00,2.000000000000000000e+00,2.000000000000000000e+00,4.000000000000000000e+00,1.000000000000000000e+00,-2.000000000000000000e+00,0.000000000000000000e+00
1.844500000000000028e+01,-6.000000000000000000e+00,-5.000000000000000000e+00,-8.000000000000000000e+00,-6.000000000000000000e+00,-7.000000000000000000e+00,-4.000000000000000000e+00,-1.600000000000000000e+01,-1.000000000000000000e+01,0.000000000000000000e+00
1.844999999999999929e+01,-1.000000000000000000e+00,-5.000000000000000000e+00,0.000000000000000000e+00,3.000000000000000000e+00,-2.000000000000000000e+00,-7.000000000000000000e+00,2.000000000000000000e+00,-4.000000000000000000e+00,0.000000000000000000e+00
1.845499999999999829e+01,2.000000000000000000e+00,0.000000000000000000e+00,-3.000000000000000000e+00,-8.000000000000000000e+00,-9.000000000000000000e+00,-5.000000000000000000e+00,-8.000000000000000000e+00,-5.000000000000000000e+00,0.000000000000000000e+00
1.846000000000000085e+01,-1.000000000000000000e+00,0.000000000000000000e+00,-3.000000000000000000e+00,-1.000000000000000000e+00,4.000000000000000000e+00,2.000000000000000000e+00,4.000000000000000000e+00,-1.300000000000000000e+01,0.000000000000000000e+00
1.846499999999999986e+01,-3.000000000000000000e+00,-1.000000000000000000e+00,-1.000000000000000000e+00,1.000000000000000000e+00,1.000000000000000000e+00,5.000000000000000000e+00,2.000000000000000000e+00,1.200000000000000000e+01,0.000000000000000000e+00
1.846999999999999886e+01,7.000000000000000000e+00,-2.000000000000000000e+00,4.000000000000000000e+00,0.000000000000000000e+00,0.000000000000000000e+00,-6.000000000000000000e+00,1.000000000000000000e+01,4.000000000000000000e+00,0.000000000000000000e+00
1.847500000000000142e+01,-1.100000000000000000e+01,-2.000000000000000000e+00,-5.000000000000000000e+00,-9.000000000000000000e+00,-3.000000000000000000e+00,1.000000000000000000e+00,-8.000000000000000000e+00,1.800000000000000000e+01,0.000000000000000000e+00
1.848000000000000043e+01,-6.000000000000000000e+00,-1.000000000000000000e+00,2.000000000000000000e+00,0.000000000000000000e+00,-4.000000000000000000e+00,-5.000000000000000000e+00,-2.000000000000000000e+00,-5.600000000000000000e+01,0.000000000000000000e+00
1.848499999999999943e+01,3.000000000000000000e+00,3.000000000000000000e+00,-1.000000000000000000e+00,2.000000000000000000e+00,4.000000000000000000e+00,5.000000000000000000e+00,-3.000000000000000000e+00,5.000000000000000000e+00,0.000000000000000000e+00
1.848999999999999844e+01,-2.000000000000000000e+00,0.000000000000000000e+00,0.000000000000000000e+00,-1.000000000000000000e+00,-1.000000000000000000e+00,1.300000000000000000e+01,-2.000000000000000000e+00,-4.000000000000000000e+00,0.000000000000000000e+00
1.849500000000000099e+01,2.000000000000000000e+00,-1.000000000000000000e+00,-4.000000000000000000e+00,1.000000000000000000e+00,-1.000000000000000000e+00,-2.200000000000000000e+01,1.200000000000000000e+01,5.000000000000000000e+00,0.000000000000000000e+00
1.850000000000000000e+01,0.000000000000000000e+00,0.000000000000000000e+00,0.000000000000000000e+00,-2.000000000000000000e+00,-6.000000000000000000e+00,2.000000000000000000e+00,-3.000000000000000000e+00,1.700000000000000000e+01,0.000000000000000000e+00
1.850499999999999901e+01,-3.000000000000000000e+00,2.000000000000000000e+00,0.000000000000000000e+00,3.000000000000000000e+00,6.000000000000000000e+00,-1.000000000000000000e+00,7.000000000000000000e+00,-1.600000000000000000e+01,0.000000000000000000e+00
1.851000000000000156e+01,-2.000000000000000000e+00,-2.000000000000000000e+00,0.000000000000000000e+00,0.000000000000000000e+00,-2.000000000000000000e+00,4.000000000000000000e+00,5.000000000000000000e+00,1.300000000000000000e+01,0.000000000000000000e+00
1.851500000000000057e+01,3.000000000000000000e+00,-2.000000000000000000e+00,-3.000000000000000000e+00,0.000000000000000000e+00,1.000000000000000000e+00,6.000000000000000000e+00,-2.000000000000000000e+00,-7.000000000000000000e+00,0.000000000000000000e+00
1.851999999999999957e+01,-1.100000000000000000e+01,2.000000000000000000e+00,-2.000000000000000000e+00,-9.000000000000000000e+00,-5.000000000000000000e+00,-1.100000000000000000e+01,-8.000000000000000000e+00,-1.400000000000000000e+01,0.000000000000000000e+00
1.852499999999999858e+01,-5.000000000000000000e+00,1.000000000000000000e+00,-3.000000000000000000e+00,0.000000000000000000e+00,-7.000000000000000000e+00,1.000000000000000000e+00,0.000000000000000000e+00,-4.000000000000000000e+00,0.000000000000000000e+00
1.853000000000000114e+01,-1.000000000000000000e+00,-5.000000000000000000e+00,-1.000000000000000000e+00,-2.000000000000000000e+00,-5.000000000000000000e+00,-1.600000000000000000e+01,-2.000000000000000000e+00,3.000000000000000000e+00,0.000000000000000000e+00
1.853500000000000014e+01,6.000000000000000000e+00,1.000000000000000000e+00,1.000000000000000000e+00,3.000000000000000000e+00,-1.000000000000000000e+00,1.000000000000000000e+00,6.000000000000000000e+00,2.000000000000000000e+00,0.000000000000000000e+00
1.853999999999999915e+01,-5.000000000000000000e+00,-1.000000000000000000e+00,2.000000000000000000e+00,1.000000000000000000e+00,1.300000000000000000e+01,8.000000000000000000e+00,2.100000000000000000e+01,1.000000000000000000e+00,0.000000000000000000e+00
1.854500000000000171e+01,1.000000000000000000e+01,0.000000000000000000e+00,3.000000000000000000e+00,-5.000000000000000000e+00,3.000000000000000000e+00,1.300000000000000000e+01,-2.900000000000000000e+01,2.700000000000000000e+01,0.000000000000000000e+00
1.855000000000000071e+01,-7.000000000000000000e+00,-2.000000000000000000e+00,-6.000000000000000000e+00,1.000000000000000000e+00,-3.000000000000000000e+00,-5.000000000000000000e+00,1.000000000000000000e+00,-6.700000000000000000e+01,0.000000000000000000e+00
1.855499999999999972e+01,-1.000000000000000000e+00,0.000000000000000000e+00,0.000000000000000000e+00,-6.000000000000000000e+00,-7.000000000000000000e+00,-1.200000000000000000e+01,-2.000000000000000000e+01,-1.800000000000000000e+01,0.000000000000000000e+00
1.855999999999999872e+01,3.000000000000000000e+00,-3.000000000000000000e+00,-3.000000000000000000e+00,0.000000000000000000e+00,-8.000000000000000000e+00,3.000000000000000000e+00,2.000000000000000000e+01,1.900000000000000000e+01,0.000000000000000000e+00
1.856500000000000128e+01,5.000000000000000000e+00,0.000000000000000000e+00,1.000000000000000000e+00,-1.000000000000000000e+00,1.000000000000000000e+00,-2.000000000000000000e+00,-5.000000000000000000e+00,5.000000000000000000e+00,0.000000000000000000e+00
1.857000000000000028e+01,-7.000000000000000000e+00,-3.000000000000000000e+00,-1.000000000000000000e+00,-2.000000000000000000e+00,3.000000000000000000e+00,-1.000000000000000000e+00,6.000000000000000000e+00,1.600000000000000000e+01,0.000000000000000000e+00
1.857499999999999929e+01,1.000000000000000000e+01,3.000000000000000000e+00,2.000000000000000000e+00,2.000000000000000000e+00,3.000000000000000000e+00,9.000000000000000000e+00,-1.000000000000000000e+00,-1.100000000000000000e+01,0.000000000000000000e+00
1.857999999999999829e+01,-1.300000000000000000e+01,-1.200000000000000000e+01,-6.000000000000000000e+00,-4.000000000000000000e+00,-6.000000000000000000e+00,-9.000000000000000000e+00,1.000000000000000000e+00,-3.000000000000000000e+00,0.000000000000000000e+00
1.858500000000000085e+01,-3.000000000000000000e+00,3.000000000000000000e+00,2.000000000000000000e+00,-3.000000000000000000e+00,-2.000000000000000000e+00,-3.000000000000000000e+00,1.100000000000000000e+01,-2.000000000000000000e+01,0.000000000000000000e+00
1.858999999999999986e+01,-4.200000000000000000e+01,-2.900000000000000000e+01,-8.000000000000000000e+00,-2.000000000000000000e+00,-3.000000000000000000e+00,-8.000000000000000000e+00,-4.200000000000000000e+01,-8.000000000000000000e+00,0.000000000000000000e+00
1.859499999999999886e+01,1.100000000000000000e+01,6.000000000000000000e+00,1.000000000000000000e+00,1.000000000000000000e+00,5.000000000000000000e+00,1.300000000000000000e+01,1.700000000000000000e+01,1.000000000000000000e+00,0.000000000000000000e+00
1.860000000000000142e+01,-1.000000000000000000e+01,-7.000000000000000000e+00,0.000000000000000000e+00,-1.000000000000000000e+00,0.000000000000000000e+00,-4.000000000000000000e+00,-1.200000000000000000e+01,1.000000000000000000e+01,0.000000000000000000e+00
1.860500000000000043e+01,1.500000000000000000e+01,4.000000000000000000e+00,1.000000000000000000e+00,1.000000000000000000e+00,0.000000000000000000e+00,-8.000000000000000000e+00,2.100000000000000000e+01,1.000000000000000000e+01,0.000000000000000000e+00
1.860999999999999943e+01,8.000000000000000000e+00,4.000000000000000000e+00,-2.000000000000000000e+00,-5.000000000000000000e+00,-3.000000000000000000e+00,1.100000000000000000e+01,2.600000000000000000e+01,9.000000000000000000e+00,0.000000000000000000e+00
1.861499999999999844e+01,-2.300000000000000000e+01,-9.000000000000000000e+00,0.000000000000000000e+00,-1.000000000000000000e+00,0.000000000000000000e+00,1.000000000000000000e+00,-2.300000000000000000e+01,4.000000000000000000e+00,0.000000000000000000e+00
1.862000000000000099e+01,3.200000000000000000e+01,5.000000000000000000e+00,-4.000000000000000000e+00,-4.000000000000000000e+00,-8.000000000000000000e+00,-1.200000000000000000e+01,-4.400000000000000000e+01,-8.000000000000000000e+00,0.000000000000000000e+00
1.862500000000000000e+01,-1.400000000000000000e+01,-1.400000000000000000e+01,-2.000000000000000000e+00,0.000000000000000000e+00,-3.000000000000000000e+00,-1.000000000000000000e+00,-7.000000000000000000e+00,-1.800000000000000000e+01,0.000000000000000000e+00
1.862999999999999901e+01,-5.000000000000000000e+00,1.000000000000000000e+01,5.000000000000000000e+00,5.000000000000000000e+00,6.000000000000000000e+00,3.000000000000000000e+00,7.000000000000000000e+00,1.400000000000000000e+01,0.000000000000000000e+00
1.863500000000000156e+01,-1.200000000000000000e+01,-1.500000000000000000e+01,-9.000000000000000000e+00,-7.000000000000000000e+00,-3.000000000000000000e+00,2.000000000000000000e+00,2.100000000000000000e+01,2.000000000000000000e+00,0.000000000000000000e+00
1.864000000000000057e+01,-2.800000000000000000e+01,8.000000000000000000e+00,3.000000000000000000e+00,-2.000000000000000000e+00,-2.000000000000000000e+00,1.000000000000000000e+00,6.000000000000000000e+00,2.400000000000000000e+01,0.000000000000000000e+00
1.864499999999999957e+01,2.800000000000000000e+01,-1.000000000000000000e+01,-4.000000000000000000e+00,2.000000000000000000e+00,-3.000000000000000000e+00,-2.000000000000000000e+00,-3.000000000000000000e+00,9.000000000000000000e+00,0.000000000000000000e+00
1.864999999999999858e+01,-1.600000000000000000e+01,-1.000000000000000000e+00,-3.000000000000000000e+00,0.000000000000000000e+00,-2.000000000000000000e+00,-6.000000000000000000e+00,-4.000000000000000000e+00,-3.000000000000000000e+01,0.000000000000000000e+00
1.865500000000000114e+01,2.100000000000000000e+01,5.000000000000000000e+00,-5.000000000000000000e+00,-7.000000000000000000e+00,-4.000000000000000000e+00,-2.000000000000000000e+00,0.000000000000000000e+00,1.300000000000000000e+01,0.000000000000000000e+00
1.866000000000000014e+01,1.000000000000000000e+00,1.000000000000000000e+00,4.000000000000000000e+00,6.000000000000000000e+00,3.000000000000000000e+00,-1.000000000000000000e+00,-2.000000000000000000e+01,-6.000000000000000000e+00,0.000000000000000000e+00
1.866499999999999915e+01,-8.000000000000000000e+00,6.000000000000000000e+00,0.000000000000000000e+00,-1.000000000000000000e+00,0.000000000000000000e+00,-1.000000000000000000e+00,-1.100000000000000000e+01,-1.300000000000000000e+01,0.000000000000000000e+00
1.867000000000000171e+01,-1.000000000000000000e+00,4.000000000000000000e+00,2.000000000000000000e+00,0.000000000000000000e+00,0.000000000000000000e+00,3.000000000000000000e+00,2.900000000000000000e+01,1.300000000000000000e+01,0.000000000000000000e+00
1.867500000000000071e+01,-3.000000000000000000e+00,-8.000000000000000000e+00,-1.000000000000000000e+00,-8.000000000000000000e+00,-7.000000000000000000e+00,-8.000000000000000000e+00,-2.100000000000000000e+01,-1.300000000000000000e+01,0.000000000000000000e+00
1.867999999999999972e+01,3.000000000000000000e+00,7.000000000000000000e+00,-4.000000000000000000e+00,-2.000000000000000000e+00,-3.000000000000000000e+00,-4.000000000000000000e+00,-3.000000000000000000e+00,-1.400000000000000000e+01,0.000000000000000000e+00
1.868499999999999872e+01,-6.000000000000000000e+00,-2.000000000000000000e+00,-2.000000000000000000e+00,0.000000000000000000e+00,-4.000000000000000000e+00,-3.000000000000000000e+00,3.300000000000000000e+01,5.100000000000000000e+01,0.000000000000000000e+00
1.869000000000000128e+01,1.900000000000000000e+01,9.000000000000000000e+00,-2.000000000000000000e+00,-3.000000000000000000e+00,-1.000000000000000000e+00,1.000000000000000000e+00,-1.900000000000000000e+01,-2.900000000000000000e+01,0.000000000000000000e+00
1.869500000000000028e+01,4.700000000000000000e+01,2.700000000000000000e+01,1.000000000000000000e+00,6.000000000000000000e+00,7.000000000000000000e+00,3.000000000000000000e+00,1.500000000000000000e+01,1.600000000000000000e+01,0.000000000000000000e+00
1.869999999999999929e+01,-4.600000000000000000e+01,-3.400000000000000000e+01,-1.000000000000000000e+01,-9.000000000000000000e+00,-2.000000000000000000e+00,0.000000000000000000e+00,-4.000000000000000000e+00,3.000000000000000000e+00,0.000000000000000000e+00
1.870499999999999829e+01,1.900000000000000000e+01,1.200000000000000000e+01,1.300000000000000000e+01,5.000000000000000000e+00,4.000000000000000000e+00,5.000000000000000000e+00,2.500000000000000000e+01,3.600000000000000000e+01,0.000000000000000000e+00
1.871000000000000085e+01,2.300000000000000000e+01,-8.000000000000000000e+00,1.000000000000000000e+00,-2.000000000000000000e+00,-4.000000000000000000e+00,-4.000000000000000000e+00,-4.000000000000000000e+01,-9.000000000000000000e+00,0.000000000000000000e+00
1.871499999999999986e+01,-4.900000000000000000e+01,3.300000000000000000e+01,-7.000000000000000000e+00,2.000000000000000000e+00,-3.000000000000000000e+00,-2.000000000000000000e+00,2.200000000000000000e+01,-1.300000000000000000e+01,0.000000000000000000e+00
1.871999999999999886e+01,7.300000000000000000e+01,2.400000000000000000e+01,7.000000000000000000e+00,3.000000000000000000e+00,-1.000000000000000000e+00,-6.000000000000000000e+00,-3.700000000000000000e+01,1.800000000000000000e+01,0.000000000000000000e+00
1.872500000000000142e+01,-7.300000000000000000e+01,2.000000000000000000e+00,0.000000000000000000e+00,-4.000000000000000000e+00,0.000000000000000000e+00,0.000000000000000000e+00,4.000000000000000000e+00,-2.900000000000000000e+01,0.000000000000000000e+00
1.873000000000000043e+01,-4.500000000000000000e+01,-5.800000000000000000e+01,-1.400000000000000000e+01,-7.000000000000000000e+00,-3.000000000000000000e+00,-3.000000000000000000e+00,2.000000000000000000e+00,1.300000000000000000e+01,0.000000000000000000e+00
1.873499999999999943e+01,7.400000000000000000e+01,3.400000000000000000e+01,1.800000000000000000e+01,9.000000000000000000e+00,5.000000000000000000e+00,5.000000000000000000e+00,3.100000000000000000e+01,6.100000000000000000e+01,0.000000000000000000e+00
1.873999999999999844e+01,-7.100000000000000000e+01,-4.800000000000000000e+01,-1.100000000000000000e+01,4.000000000000000000e+00,-5.000000000000000000e+00,-6.000000000000000000e+00,-9.000000000000000000e+00,-9.000000000000000000e+00,0.000000000000000000e+00
1.874500000000000099e+01,5.600000000000000000e+01,1.800000000000000000e+01,1.000000000000000000e+00,3.000000000000000000e+00,-2.000000000000000000e+00,2.000000000000000000e+00,-3.000000000000000000e+01,2.800000000000000000e+01,0.000000000000000000e+00
1.875000000000000000e+01,3.100000000000000000e+01,6.000000000000000000e+00,7.000000000000000000e+00,0.000000000000000000e+00,-1.000000000000000000e+00,4.000000000000000000e+00,1.400000000000000000e+01,-1.600000000000000000e+01,0.000000000000000000e+00
1.875499999999999901e+01,-4.200000000000000000e+01,-8.000000000000000000e+00,-5.000000000000000000e+00,-8.000000000000000000e+00,-2.000000000000000000e+00,-4.000000000000000000e+00,-1.000000000000000000e+01,2.900000000000000000e+01,0.000000000000000000e+00
1.876000000000000156e+01,4.400000000000000000e+01,2.700000000000000000e+01,6.000000000000000000e+00,1.000000000000000000e+00,2.000000000000000000e+00,4.000000000000000000e+00,2.900000000000000000e+01,-1.600000000000000000e+01,0.000000000000000000e+00
1.876500000000000057e+01,4.000000000000000000e+00,-1.400000000000000000e+01,-2.000000000000000000e+00,0.000000000000000000e+00,-2.000000000000000000e+00,-3.000000000000000000e+00,-1.600000000000000000e+01,1.400000000000000000e+01,0.000000000000000000e+00
1.876999999999999957e+01,5.300000000000000000e+01,9.000000000000000000e+00,-1.000000000000000000e+00,-1.000000000000000000e+00,0.000000000000000000e+00,-2.000000000000000000e+00,1.600000000000000000e+01,-3.900000000000000000e+01,0.000000000000000000e+00
1.877499999999999858e+01,-8.100000000000000000e+01,-6.500000000000000000e+01,-1.200000000000000000e+01,0.000000000000000000e+00,-4.000000000000000000e+00,-6.000000000000000000e+00,-1.100000000000000000e+01,-5.000000000000000000e+01,0.000000000000000000e+00
1.878000000000000114e+01,9.900000000000000000e+01,2.500000000000000000e+01,1.300000000000000000e+01,3.000000000000000000e+00,4.000000000000000000e+00,7.000000000000000000e+00,-1.000000000000000000e+00,1.800000000000000000e+01,0.000000000000000000e+00
1.878500000000000014e+01,6.000000000000000000e+00,2.300000000000000000e+01,-1.000000000000000000e+00,-1.000000000000000000e+00,-1.000000000000000000e+00,-4.000000000000000000e+00,-2.000000000000000000e+01,-4.000000000000000000e+01,0.000000000000000000e+00
1.878999999999999915e+01,3.700000000000000000e+01,1.600000000000000000e+01,-8.000000000000000000e+00,-7.000000000000000000e+00,-2.000000000000000000e+00,-1.000000000000000000e+00,-6.000000000000000000e+00,1.400000000000000000e+01,0.000000000000000000e+00
1.879500000000000171e+01,7.000000000000000000e+01,1.000000000000000000e+01,1.300000000000000000e+01,1.000000000000000000e+00,-1.000000000000000000e+00,3.000000000000000000e+00,2.800000000000000000e+01,-4.300000000000000000e+01,0.000000000000000000e+00
1.880000000000000071e+01,-1.130000000000000000e+02,-7.300000000000000000e+01,-3.100000000000000000e+01,-1.300000000000000000e+01,-6.000000000000000000e+00,-6.000000000000000000e+00,-1.400000000000000000e+01,2.300000000000000000e+01,0.000000000000000000e+00
1.880499999999999972e+01,3.000000000000000000e+01,3.800000000000000000e+01,0.000000000000000000e+00,-1.000000000000000000e+00,-1.000000000000000000e+00,2.000000000000000000e+00,-2.000000000000000000e+00,-3.900000000000000000e+01,0.000000000000000000e+00
1.880999999999999872e+01,9.700000000000000000e+01,0.000000000000000000e+00,7.000000000000000000e+00,1.600000000000000000e+01,9.000000000000000000e+00,-8.000000000000000000e+00,-2.200000000000000000e+01,1.270000000000000000e+02,0.000000000000000000e+00
1.881500000000000128e+01,-1.000000000000000000e+00,2.000000000000000000e+00,4.000000000000000000e+00,-1.000000000000000000e+00,-2.000000000000000000e+00,-1.000000000000000000e+00,-3.000000000000000000e+00,-5.000000000000000000e+00,0.000000000000000000e+00
1.882000000000000028e+01,-2.000000000000000000e+00,5.000000000000000000e+00,-1.000000000000000000e+00,-7.000000000000000000e+00,-3.000000000000000000e+00,-1.000000000000000000e+00,2.000000000000000000e+00,1.000000000000000000e+00,0.000000000000000000e+00
1.882499999999999929e+01,-2.000000000000000000e+00,-1.000000000000000000e+00,0.000000000000000000e+00,2.000000000000000000e+00,-1.000000000000000000e+00,-5.000000000000000000e+00,-3.000000000000000000e+00,-1.000000000000000000e+00,0.000000000000000000e+00
1.882999999999999829e+01,-9.000000000000000000e+00,-2.000000000000000000e+00,-4.000000000000000000e+00,0.000000000000000000e+00,1.000000000000000000e+00,1.000000000000000000e+00,-2.000000000000000000e+00,0.000000000000000000e+00,0.000000000000000000e+00
1.883500000000000085e+01,1.000000000000000000e+00,2.000000000000000000e+00,-1.000000000000000000e+00,-1.000000000000000000e+00,-1.000000000000000000e+00,0.000000000000000000e+00,1.000000000000000000e+00,2.000000000000000000e+00,0.000000000000000000e+00
1.883999999999999986e+01,2.000000000000000000e+00,0.000000000000000000e+00,1.000000000000000000e+00,4.000000000000000000e+00,1.000000000000000000e+00,3.000000000000000000e+00,3.000000000000000000e+00,-2.000000000000000000e+00,0.000000000000000000e+00
1.884499999999999886e+01,6.000000000000000000e+00,3.000000000000000000e+00,-6.000000000000000000e+00,-1.200000000000000000e+01,-3.000000000000000000e+00,0.000000000000000000e+00,-1.000000000000000000e+00,-1.000000000000000000e+00,0.000000000000000000e+00
1.885000000000000142e+01,-7.000000000000000000e+00,-7.000000000000000000e+00,1.000000000000000000e+00,2.000000000000000000e+00,-3.000000000000000000e+00,-5.000000000000000000e+00,-3.000000000000000000e+00,-1.000000000000000000e+00,0.000000000000000000e+00
1.885500000000000043e+01,0.000000000000000000e+00,0.000000000000000000e+00,-6.000000000000000000e+00,-2.000000000000000000e+00,-7.000000000000000000e+00,-6.000000000000000000e+00,-5.000000000000000000e+00,-5.000000000000000000e+00,0.000000000000000000e+00
1.885999999999999943e+01,-3.000000000000000000e+00,-2.000000000000000000e+00,-3.000000000000000000e+00,-1.000000000000000000e+00,-6.000000000000000000e+00,-1.000000000000000000e+01,0.000000000000000000e+00,0.000000000000000000e+00,0.000000000000000000e+00
