0.01,1,0,1,0,4,4,0,2
0.015,1,2,1,4,1,1,3,2
0.02,0,1,2,3,2,2,2,3
0.025,1,1,1,17,4,1,1,0
0.03,0,1,2,10,2,2,4,1
0.035,3,3,1,20,4,0,1,1
0.04,1,1,2,3,5,6,3,1
0.045,0,2,0,5,5,2,1,0
0.05,1,3,0,0,6,4,3,3
0.055,0,1,1,5,1,1,0,0
0.06,2,17,1,6,5,1,0,1
0.065,1,3,1,1,6,2,2,1
0.07,3,0,1,1,9,0,1,3
0.075,2,2,3,2,1,3,1,3
0.08,1,2,0,1,7,1,1,2
0.085,2,2,1,1,0,0,3,1
0.09,1,2,3,5,3,1,0,1
0.095,4,2,3,2,6,2,1,0
0.1,1,9,0,3,4,1,1,2
0.105,1,2,2,2,3,1,2,2
0.11,1,2,2,0,2,1,2,0
0.115,2,1,1,4,2,0,3,1
0.12,0,5,1,4,5,3,3,0
0.125,0,1,1,2,9,2,1,0
0.13,2,2,3,0,8,1,1,1
0.135,3,0,3,0,3,3,0,3
0.14,2,1,2,1,2,1,2,0
0.145,1,1,0,0,9,3,1,3
0.15,1,1,2,3,8,2,2,1
0.155,0,1,0,6,3,3,4,0
0.16,5,5,0,9,4,1,1,3
0.165,0,5,2,19,6,5,3,0
0.17,1,1,4,2,6,3,0,2
0.175,1,4,1,6,5,2,2,1
0.18,1,0,2,3,2,2,2,1
0.185,4,3,4,4,2,2,0,3
0.19,1,2,2,7,8,3,3,2
0.195,0,0,0,2,2,1,0,1
0.2,0,9,0,1,4,3,0,1
0.205,2,4,1,5,2,0,1,0
0.21,1,3,1,9,4,2,1,1
0.215,0,1,1,3,5,1,1,3
0.22,1,7,7,3,1,3,2,1
0.225,0,3,2,8,4,1,0,0
0.23,0,2,2,5,3,2,3,1
0.235,1,1,0,8,6,1,0,0
0.24,1,2,5,5,4,0,2,1
0.245,1,4,1,4,2,1,0,2
0.25,3,2,1,4,3,2,1,1
0.255,1,2,2,3,3,0,0,0
0.26,0,3,0,7,7,1,0,0
0.265,2,4,1,1,6,1,3,0
0.27,1,8,3,6,1,2,3,1
0.275,2,0,2,19,4,0,2,2
0.28,3,5,2,4,1,2,1,1
0.285,1,2,1,2,8,1,2,2
0.29,0,1,1,5,0,2,1,0
0.295,3,2,1,5,2,0,0,2
0.3,2,5,0,1,1,1,1,2
0.305,3,0,2,5,4,3,1,1
0.31,3,3,0,0,1,0,1,2
0.315,1,2,0,4,4,0,2,0
0.32,1,4,0,2,1,0,0,2
0.325,1,2,3,2,1,0,1,2
0.33,3,2,3,8,1,0,0,1
0.335,1,3,1,1,1,1,1,1
0.34,0,2,1,0,2,1,2,1
0.345,1,1,3,3,0,2,2,2
0.35,1,2,3,1,3,2,1,0
0.355,1,4,2,1,3,0,1,1
0.36,1,3,3,1,4,2,1,2
0.365,2,2,1,4,1,0,1,2
0.37,1,5,1,4,7,3,0,1
0.375,0,2,1,2,6,3,0,2
0.38,2,4,1,3,4,0,3,0
0.385,0,4,1,2,13,3,0,0
0.39,1,3,0,1,4,1,2,0
0.395,1,0,0,12,5,2,2,0
0.4,1,15,1,3,9,3,2,0
0.405,2,1,0,4,1,1,2,2
0.41,2,2,1,2,2,2,1,1
0.415,0,2,2,3,2,1,2,1
0.42,1,3,4,0,1,2,0,0
0.425,1,2,0,1,1,0,2,1
0.43,1,5,2,1,1,1,0,2
0.435,1,3,1,6,2,3,2,1
0.44,2,2,0,2,3,2,1,1
0.445,2,0,2,5,2,0,2,0
0.45,1,1,1,3,2,0,2,0
0.455,0,3,2,2,3,2,0,3
0.46,1,1,0,3,1,1,0,2
0.465,2,3,4,1,2,1,1,1
0.47,4,11,5,1,1,1,0,1
0.475,2,1,1,2,4,2,1,2
0.48,1,1,2,6,2,0,1,0
0.485,1,1,1,0,1,0,2,3
0.49,0,7,0,3,3,1,3,1
0.495,1,4,1,1,7,4,1,1
0.5,1,3,0,1,1,2,2,1
0.505,2,2,6,1,7,3,1,1
0.51,0,17,3,3,5,0,1,1
0.515,1,4,2,4,5,2,1,2
0.52,0,1,2,0,1,1,0,0
0.525,1,2,0,1,2,0,2,2
0.53,0,4,2,12,4,2,2,0
0.535,3,1,1,2,3,1,3,1
0.54,3,1,3,3,1,1,0,0
0.545,1,2,2,1,2,3,0,3
0.55,3,0,0,5,2,1,1,0
0.555,1,3,1,3,1,1,2,0
0.56,1,2,5,1,1,3,2,3
0.565,1,1,4,9,6,2,1,2
0.57,0,3,1,0,4,3,2,1
0.575,1,1,1,0,4,2,0,1
0.58,0,1,1,0,3,1,2,2
0.585,3,9,0,2,1,1,2,1
0.59,2,3,0,2,4,1,1,2
0.595,1,4,3,1,5,1,1,0
0.6,2,4,2,0,6,1,0,2
0.605,1,3,3,4,0,3,1,2
0.61,1,2,2,2,0,1,0,1
0.615,1,0,1,1,3,2,1,0
0.62,1,0,2,1,3,1,0,0
0.625,2,7,2,3,2,2,2,2
0.63,1,1,1,1,6,1,0,1
0.635,3,5,1,7,2,1,0,0
0.64,3,4,1,12,3,0,3,0
0.645,1,4,2,3,5,1,1,1
0.65,1,2,2,2,2,4,3,3
0.655,1,3,3,0,4,1,1,0
0.66,0,3,0,1,6,4,2,2
0.665,3,4,0,1,1,0,1,1
0.67,3,1,0,3,1,0,0,0
0.675,1,2,2,2,6,4,0,1
0.68,0,1,1,1,3,1,1,1
0.685,1,6,7,0,1,1,3,4
0.69,1,1,2,0,2,0,1,2
0.695,1,3,0,2,2,0,2,1
0.7,0,0,0,1,4,2,2,0
0.705,1,0,2,2,1,2,2,1
0.71,0,3,1,1,4,2,3,1
0.715,1,2,1,0,1,0,1,2
0.72,0,6,1,1,1,0,0,0
0.725,2,13,3,2,0,1,0,0
0.73,1,0,1,2,6,1,1,1
0.735,0,2,1,4,7,2,0,2
0.74,1,4,4,9,0,2,1,1
0.745,1,4,1,1,2,1,2,2
0.75,1,1,1,2,2,1,2,0
0.755,0,2,0,3,6,1,1,0
0.76,1,0,1,5,2,2,2,1
0.765,2,4,2,5,1,4,1,1
0.77,4,8,6,3,4,1,2,2
0.775,0,5,1,5,5,2,3,0
0.78,2,3,0,0,4,1,1,1
0.785,4,31,1,5,1,1,1,1
0.79,1,3,1,1,1,2,3,0
0.795,1,3,1,1,10,3,1,0
0.8,1,0,2,1,0,1,0,0
0.805,0,10,3,2,7,3,3,2
0.81,2,3,2,0,2,2,1,2
0.815,4,7,4,1,2,0,1,0
0.82,1,4,1,2,4,4,1,2
0.825,1,4,2,1,3,3,1,3
0.83,1,4,1,2,1,2,1,3
0.835,3,7,1,3,8,3,3,0
0.84,2,0,3,3,3,1,0,1
0.845,0,1,2,12,5,1,0,2
0.85,1,10,4,3,1,1,1,2
0.855,2,6,2,0,2,0,1,0
0.86,0,0,3,0,4,3,1,3
0.865,2,8,0,3,0,0,0,2
0.87,2,1,2,2,7,4,2,0
0.875,2,9,2,3,1,0,1,1
0.88,0,0,1,0,4,3,1,1
0.885,0,5,2,0,1,3,2,2
0.89,3,21,3,2,6,2,1,2
0.895,0,1,4,0,2,2,1,1
0.9,1,1,2,4,4,1,1,1
0.905,2,8,1,1,1,1,0,1
0.91,1,0,4,0,2,2,3,0
0.915,2,0,2,7,5,1,3,1
0.92,2,6,1,2,0,0,0,1
0.925,1,1,0,2,3,2,1,1
0.93,0,6,2,2,3,1,0,4
0.935,2,5,2,3,4,2,0,0
0.94,0,1,4,3,6,2,0,1
0.945,3,15,5,3,0,1,3,3
0.95,0,3,1,1,0,0,1,1
0.955,1,4,3,3,1,2,1,2
0.96,0,8,4,2,5,4,2,0
0.965,0,2,1,1,1,3,1,3
0.97,1,1,0,8,5,1,2,1
0.975,0,0,0,1,3,4,1,2
0.98,1,11,2,0,3,0,2,2
0.985,2,5,1,4,6,2,1,1
0.99,2,1,1,0,0,1,0,3
0.995,1,1,1,4,2,1,2,1
1,3,1,1,2,3,0,2,1
1.005,2,3,2,0,3,0,0,2
1.01,3,0,0,3,1,1,0,0
1.015,3,6,3,0,6,1,1,0
1.02,2,5,2,6,2,2,2,0
1.025,1,7,1,0,4,1,1,0
1.03,0,1,2,0,1,1,2,2
1.035,1,0,2,0,0,1,0,0
1.04,0,6,2,2,4,0,1,0
1.045,1,3,0,0,0,3,1,1
1.05,1,2,0,2,4,2,0,2
1.055,0,10,1,1,0,1,1,0
1.06,1,2,0,1,2,0,1,1
1.065,2,2,1,1,1,1,1,0
1.07,1,1,0,6,2,0,0,1
1.075,1,5,3,14,3,1,2,2
1.08,1,0,1,0,1,1,3,0
1.085,1,1,1,1,2,1,0,1
1.09,2,18,5,2,5,4,3,2
1.095,2,5,1,2,5,1,1,1
1.1,4,0,0,2,5,3,3,2
1.105,2,4,2,3,1,1,0,1
1.11,3,9,1,3,3,3,1,1
1.115,1,7,2,1,2,0,0,1
1.12,0,0,1,1,5,2,0,2
1.125,0,6,2,1,3,3,2,1
1.13,1,3,0,1,5,0,0,1
1.135,1,1,2,1,1,0,1,2
1.14,1,8,2,1,1,3,2,1
1.145,2,3,3,1,2,3,1,1
1.15,2,3,2,6,0,1,2,2
1.155,3,5,1,2,4,2,0,0
1.16,1,22,7,3,1,0,1,0
1.165,1,4,3,2,2,1,2,1
1.17,2,4,1,4,5,3,3,2
1.175,1,2,1,1,9,2,3,1
1.18,3,13,2,3,0,1,1,0
1.185,2,2,9,0,1,0,0,0
1.19,4,3,3,1,1,2,3,2
1.195,2,6,6,0,5,4,3,3
1.2,1,6,0,3,4,2,1,1
1.205,2,1,1,5,4,2,3,0
1.21,2,3,2,1,4,2,3,2
1.215,2,3,0,0,4,4,1,0
1.22,0,9,1,2,1,1,1,0
1.225,3,15,1,2,3,2,1,4
1.23,1,2,0,2,6,3,3,1
1.235,0,6,2,5,2,1,2,0
1.24,2,6,1,4,6,0,1,1
1.245,3,6,5,0,2,0,2,2
1.25,2,12,2,3,2,1,1,2
1.255,2,1,3,2,2,4,0,0
1.26,3,14,4,4,6,0,1,0
1.265,0,1,1,0,0,2,2,1
1.27,2,3,3,1,0,2,0,3
1.275,2,4,2,1,5,0,1,2
1.28,2,2,0,4,8,4,0,1
1.285,0,5,1,2,4,2,3,1
1.29,1,5,1,3,2,1,1,0
1.295,2,5,6,5,2,1,0,1
1.3,2,0,0,11,5,4,2,1
1.305,2,2,2,0,2,1,3,1
1.31,1,0,3,4,6,2,2,1
1.315,2,1,1,2,4,1,0,1
1.32,1,2,1,5,2,3,0,1
1.325,0,2,4,1,2,3,1,0
1.33,3,15,0,4,4,1,0,1
1.335,2,0,4,2,7,1,0,3
1.34,0,3,1,3,4,2,0,1
1.345,1,0,0,5,8,3,5,1
1.35,2,4,1,0,3,2,2,0
1.355,0,2,3,0,4,1,0,0
1.36,0,3,3,2,1,1,1,2
1.365,3,1,0,0,5,4,0,4
1.37,1,3,0,1,2,1,1,2
1.375,3,5,3,2,2,1,3,1
1.38,2,1,0,6,8,2,3,2
1.385,6,9,0,2,2,1,0,1
1.39,0,1,1,1,0,1,0,1
1.395,3,0,4,2,1,3,0,3
1.4,1,6,1,11,2,0,3,2
1.405,2,3,3,0,2,1,2,2
1.41,2,4,0,2,5,2,1,1
1.415,0,4,2,1,2,2,2,1
1.42,1,10,0,3,0,1,0,2
1.425,0,1,0,2,3,1,1,1
1.43,1,2,3,2,1,1,2,3
1.435,4,2,5,3,1,1,2,1
1.44,3,9,1,5,2,2,0,0
1.445,2,29,4,1,1,1,1,1
1.45,3,4,2,2,0,2,1,2
1.455,0,1,0,3,6,2,2,0
1.46,1,4,1,1,4,2,2,1
1.465,1,5,2,3,1,1,0,0
1.47,1,2,3,2,1,1,1,1
1.475,1,14,3,1,6,1,1,2
1.48,2,6,6,1,11,1,0,2
1.485,3,11,2,0,5,1,2,1
1.49,1,1,3,5,5,0,1,1
1.495,0,7,3,0,2,1,1,1
1.5,3,4,0,3,2,2,0,1
1.505,0,9,2,2,1,1,1,1
1.51,1,8,2,2,0,1,2,1
1.515,0,1,4,1,3,1,1,0
1.52,2,2,1,4,3,0,0,0
1.525,3,11,2,7,2,1,2,0
1.53,2,4,4,3,4,4,2,0
1.535,2,4,2,3,1,0,2,3
1.54,2,5,2,0,5,2,3,1
1.545,2,11,3,3,3,1,0,2
1.55,1,2,0,2,2,1,2,1
1.555,3,3,1,3,1,0,2,2
1.56,0,2,3,0,6,4,3,2
1.565,2,6,1,16,1,1,1,1
1.57,1,1,1,1,6,3,1,1
1.575,3,24,6,1,0,0,2,3
1.58,1,6,1,1,7,3,1,0
1.585,2,2,2,1,6,3,2,1
1.59,2,2,0,2,0,2,1,2
1.595,1,4,0,0,1,3,2,0
1.6,2,18,2,1,3,1,0,2
1.605,4,4,3,4,1,1,2,2
1.61,2,2,1,3,2,2,0,2
1.615,1,0,1,1,1,1,0,2
1.62,0,16,4,1,1,0,0,1
1.625,2,1,0,3,6,2,1,2
1.63,0,1,1,0,4,0,2,3
1.635,0,4,2,0,2,0,0,1
1.64,3,8,1,2,2,1,0,0
1.645,1,4,1,4,2,3,2,0
1.65,2,18,5,5,3,2,3,2
1.655,0,12,1,5,1,2,2,2
1.66,3,4,1,0,2,1,3,3
1.665,0,2,0,4,2,2,0,1
1.67,0,1,1,1,5,3,0,0
1.675,3,0,2,2,1,2,0,2
1.68,6,25,6,1,0,1,1,1
1.685,1,2,1,2,3,3,3,0
1.69,3,0,0,10,3,4,3,0
1.695,2,4,1,2,6,3,1,1
1.7,0,9,4,1,6,0,1,0
1.705,1,3,0,4,2,0,2,0
1.71,1,1,1,2,1,3,1,2
1.715,3,5,2,3,1,0,0,2
1.72,3,0,5,3,3,1,0,2
1.725,1,5,2,5,5,1,0,1
1.73,3,16,0,5,4,1,1,3
1.735,2,5,1,1,3,1,0,0
1.74,2,5,2,0,3,2,2,2
1.745,2,5,3,0,6,3,1,1
1.75,1,7,3,3,0,1,2,0
1.755,1,2,1,3,1,1,1,3
1.76,3,3,2,4,6,3,3,0
1.765,3,6,2,1,1,0,0,0
1.77,4,12,4,6,3,1,0,3
1.775,0,1,2,3,5,0,1,1
1.78,0,1,0,6,5,1,1,1
1.785,1,2,2,1,1,2,0,1
1.79,1,4,1,2,6,5,3,1
1.795,2,4,1,2,6,4,3,1
1.8,5,8,0,4,5,5,3,1
1.805,3,6,1,4,1,0,1,2
1.81,3,22,4,0,1,1,1,2
1.815,1,2,5,1,1,2,2,0
1.82,1,2,1,2,1,1,2,0
1.825,2,3,4,2,2,0,2,1
1.83,1,5,3,1,8,3,2,2
1.835,7,10,1,3,1,0,0,2
1.84,3,7,0,1,4,2,1,1
1.845,2,4,1,3,2,4,1,2
1.85,5,8,1,0,4,2,0,2
1.855,1,0,2,0,0,1,2,1
1.86,1,4,3,0,3,3,4,1
1.865,2,1,4,2,8,2,3,1
1.87,0,1,1,4,2,2,0,3
1.875,5,19,0,1,4,0,1,0
1.88,2,3,2,4,6,3,2,0
1.885,0,6,1,3,2,0,1,0
1.89,2,0,0,5,8,4,1,2
1.895,2,3,0,2,0,1,1,1
1.9,1,1,3,2,2,1,2,2
1.905,3,1,2,2,1,2,2,0
1.91,2,9,2,2,5,2,2,2
1.915,0,1,1,3,2,1,1,1
1.92,3,18,5,0,1,2,0,3
1.925,1,1,0,6,1,1,1,1
1.93,5,2,2,3,3,2,2,1
1.935,3,6,3,2,5,5,1,1
1.94,1,6,3,1,3,3,3,3
1.945,2,6,2,3,1,0,1,1
1.95,0,2,3,1,5,1,0,2
1.955,1,5,1,3,4,1,2,1
1.96,2,19,4,0,1,0,0,0
1.965,5,4,5,0,4,2,1,2
1.97,1,3,0,2,2,0,1,1
1.975,1,6,4,0,2,1,2,0
1.98,0,1,3,4,2,1,0,1
1.985,1,3,2,2,5,3,2,2
1.99,0,2,0,2,6,3,1,1
1.995,2,9,4,3,2,0,0,1
2,1,8,4,1,1,0,0,1
2.005,1,3,1,1,7,2,1,2
2.01,3,6,3,3,0,0,2,1
2.015,2,22,4,1,3,4,4,0
2.02,1,1,5,2,1,2,0,1
2.025,1,1,2,2,1,1,2,1
2.03,2,2,2,0,6,4,4,2
2.035,0,3,4,0,3,0,0,2
2.04,3,4,6,1,1,1,1,0
2.045,5,14,0,1,4,3,1,1
2.05,1,1,1,3,1,0,0,0
2.055,1,2,1,4,3,1,1,1
2.06,1,2,5,4,2,2,1,0
2.065,1,6,2,1,1,0,2,2
2.07,1,4,1,0,5,2,2,1
2.075,2,2,3,0,1,0,0,1
2.08,1,6,2,2,1,3,2,0
2.085,2,12,2,1,6,3,2,1
2.09,0,8,4,0,2,0,0,3
2.095,3,14,6,1,3,1,0,2
2.1,2,12,3,5,3,2,1,1
2.105,1,1,3,1,0,1,1,0
2.11,1,2,2,0,5,2,1,1
2.115,1,3,0,2,5,1,2,0
2.12,1,7,3,2,1,2,2,3
2.125,0,8,2,2,3,2,1,1
2.13,3,3,3,1,1,2,2,1
2.135,2,4,3,8,2,2,1,1
2.14,2,6,3,0,3,3,3,4
2.145,1,8,1,0,1,2,1,2
2.15,1,8,2,1,6,5,4,1
2.155,2,2,0,2,4,0,2,1
2.16,2,1,1,2,1,0,0,0
2.165,3,2,3,1,1,2,2,0
2.17,2,8,1,1,4,4,3,2
2.175,4,5,2,2,1,0,1,1
2.18,0,21,0,1,3,1,1,5
2.185,0,1,1,0,1,1,0,0
2.19,2,6,0,0,5,2,2,0
2.195,2,4,4,0,1,2,1,1
2.2,4,9,2,0,2,1,1,4
2.205,1,4,3,0,0,0,0,0
2.21,1,10,2,0,4,1,1,1
2.215,5,6,3,1,3,0,0,0
2.22,2,4,3,2,0,0,1,1
2.225,1,1,0,8,1,3,2,0
2.23,1,4,1,5,1,2,1,0
2.235,1,6,2,1,5,2,4,2
2.24,1,7,2,1,2,2,2,2
2.245,0,3,1,1,2,1,1,2
2.25,2,1,3,2,2,2,3,1
2.255,4,5,2,2,1,1,1,1
2.26,1,4,5,4,7,3,3,0
2.265,3,28,0,1,1,2,0,1
2.27,1,29,5,0,6,2,1,1
2.275,1,4,3,0,2,0,0,1
2.28,2,8,2,3,1,0,1,1
2.285,1,5,3,1,3,2,2,0
2.29,1,9,4,2,3,0,3,1
2.295,1,3,1,2,1,3,1,3
2.3,3,3,6,2,3,1,2,0
2.305,2,1,1,1,1,2,1,1
2.31,1,5,3,5,3,1,1,0
2.315,1,4,2,2,4,2,0,0
2.32,1,6,0,2,1,1,0,2
2.325,2,3,3,0,1,1,2,2
2.33,1,7,0,0,5,4,2,2
2.335,4,14,2,3,3,0,2,1
2.34,1,8,1,0,1,1,1,1
2.345,2,19,1,1,2,2,2,0
2.35,3,6,2,1,3,0,2,1
2.355,0,6,2,1,2,3,1,1
2.36,1,2,1,1,5,2,2,0
2.365,0,4,4,2,2,4,1,1
2.37,1,4,2,5,4,2,2,2
2.375,1,1,0,2,0,1,1,0
2.38,2,5,1,1,1,0,1,0
2.385,1,1,4,4,4,4,1,2
2.39,3,10,4,2,0,1,1,1
2.395,2,2,2,4,2,0,0,1
2.4,2,2,2,0,1,1,2,1
2.405,1,1,2,3,4,2,3,1
2.41,4,4,0,3,1,1,0,2
2.415,2,5,1,2,2,1,1,1
2.42,0,1,5,2,4,3,2,1
2.425,3,7,2,0,5,0,2,2
2.43,1,5,3,2,5,4,2,1
2.435,1,14,1,1,6,1,1,0
2.44,2,3,4,5,3,3,1,2
2.445,1,2,1,1,4,1,0,1
2.45,0,2,2,1,3,1,1,1
2.455,3,4,0,1,0,1,0,3
2.46,2,11,1,0,2,2,0,2
2.465,2,3,0,1,4,0,1,0
2.47,0,4,4,1,3,1,1,1
2.475,1,1,2,5,4,2,3,0
2.48,2,3,2,19,1,0,1,2
2.485,2,3,3,2,6,3,1,0
2.49,1,2,0,2,1,1,1,2
2.495,4,1,1,2,6,5,1,0
2.5,3,6,1,7,1,1,0,2
2.505,4,36,0,10,4,1,1,0
2.51,1,1,1,1,5,2,1,1
2.515,2,5,1,1,5,1,2,4
2.52,1,3,1,3,2,1,2,1
2.525,3,7,1,3,3,2,1,2
2.53,0,0,1,1,10,2,2,2
2.535,0,3,2,1,0,0,2,0
2.54,1,1,1,1,1,2,0,0
2.545,2,3,1,1,4,1,1,2
2.55,1,2,3,3,5,1,1,1
2.555,2,11,1,2,2,1,2,1
2.56,2,1,1,3,1,1,1,1
2.565,2,4,2,1,4,1,2,2
2.57,1,3,1,2,3,4,0,0
2.575,3,1,1,4,2,1,1,0
2.58,2,16,7,2,4,1,0,2
2.585,1,2,2,1,2,1,2,0
2.59,3,6,2,1,9,2,1,0
2.595,2,4,2,0,0,0,0,1
2.6,0,1,3,3,0,1,3,5
2.605,3,9,0,1,1,1,2,0
2.61,0,4,1,0,2,0,0,0
2.615,0,3,1,0,1,0,0,1
2.62,2,0,3,0,2,2,1,0
2.625,1,2,3,0,0,2,1,1
2.63,1,1,2,4,6,2,1,1
2.635,3,5,0,3,1,0,1,1
2.64,1,6,0,0,0,2,1,0
2.645,0,2,0,1,7,3,1,0
2.65,1,4,4,0,1,2,0,2
2.655,1,3,1,2,2,2,3,0
2.66,1,5,1,4,4,1,3,1
2.665,2,5,0,1,2,3,0,1
2.67,0,5,1,0,1,0,1,1
2.675,2,43,6,2,5,3,2,2
2.68,0,5,1,1,1,1,2,1
2.685,1,4,1,0,2,3,2,1
2.69,4,4,2,2,1,3,0,1
2.695,3,7,3,2,5,3,1,1
2.7,2,3,6,2,3,2,1,0
2.705,0,5,2,2,1,1,0,2
2.71,2,3,0,1,5,3,2,0
2.715,1,8,2,2,2,0,0,0
2.72,4,1,0,1,5,2,0,3
2.725,1,7,1,0,3,1,2,1
2.73,3,5,3,1,0,1,2,2
2.735,0,6,4,1,2,0,1,1
2.74,2,4,1,3,2,1,2,2
2.745,1,5,2,0,2,3,2,1
2.75,3,7,3,1,1,0,1,0
2.755,3,13,1,0,0,1,0,3
2.76,1,4,1,0,2,0,1,1
2.765,3,0,2,1,4,2,2,2
2.77,0,1,2,1,2,0,3,1
2.775,3,12,3,7,2,1,2,1
2.78,1,7,1,1,1,1,0,1
2.785,1,8,3,2,2,1,1,0
2.79,0,2,1,0,2,1,1,0
2.795,3,1,1,0,1,0,1,1
2.8,1,1,3,2,2,3,1,1
2.805,2,4,3,0,0,1,1,0
2.81,3,6,3,2,4,5,2,1
2.815,4,6,1,1,4,1,0,0
2.82,1,5,1,2,1,0,3,3
2.825,2,1,3,1,1,0,2,0
2.83,0,1,0,3,1,0,0,1
2.835,1,8,2,1,2,3,3,2
2.84,5,4,1,1,2,2,1,0
2.845,3,9,1,0,0,1,1,1
2.85,1,0,1,1,2,1,1,0
2.855,1,6,0,1,2,1,0,1
2.86,4,1,6,2,3,1,2,0
2.865,3,3,6,0,1,1,2,1
2.87,0,3,1,0,0,1,2,0
2.875,2,0,2,1,0,1,1,1
2.88,1,4,2,0,1,1,3,2
2.885,3,6,2,2,3,2,1,1
2.89,3,9,4,0,4,1,1,2
2.895,0,0,2,5,5,3,1,2
2.9,0,3,2,2,1,1,3,2
2.905,1,10,5,1,3,2,2,3
2.91,1,1,2,6,6,1,0,1
2.915,4,1,1,1,1,2,1,1
2.92,1,6,2,3,1,2,2,0
2.925,1,1,5,3,1,0,2,4
2.93,1,0,4,4,1,3,1,1
2.935,1,1,0,2,3,3,2,2
2.94,2,1,0,1,5,2,0,2
2.945,0,0,3,1,1,1,0,0
2.95,1,0,2,0,3,0,2,2
2.955,0,6,1,1,2,2,2,0
2.96,0,1,0,2,4,4,1,3
2.965,4,3,3,1,0,2,2,2
2.97,3,26,5,0,2,1,1,0
2.975,1,3,3,0,4,1,0,1
2.98,2,1,1,3,2,1,0,1
2.985,2,2,4,2,1,0,2,2
2.99,1,16,1,1,0,1,2,1
2.995,1,4,2,1,5,2,4,3
3,1,7,4,4,5,3,1,0
3.005,2,0,1,2,3,3,2,1
3.01,2,12,1,1,4,2,1,0
3.015,3,4,4,3,3,0,2,1
3.02,3,8,1,1,2,0,3,1
3.025,1,6,4,2,2,0,1,0
3.03,1,0,3,2,2,1,1,2
3.035,1,2,1,1,5,1,1,0
3.04,1,0,1,0,3,2,1,2
3.045,2,28,7,1,1,3,1,2
3.05,2,1,2,1,5,2,1,1
3.055,2,0,1,2,0,2,0,2
3.06,0,5,0,1,1,0,3,1
3.065,1,6,1,3,6,2,1,2
3.07,4,24,2,1,1,2,2,0
3.075,1,4,1,5,3,1,1,1
3.08,2,10,3,1,0,1,1,0
3.085,1,5,4,0,3,1,3,3
3.09,1,3,2,2,3,1,1,0
3.095,1,5,1,1,5,3,3,2
3.1,3,1,2,1,4,1,1,1
3.105,6,13,1,1,5,3,0,2
3.11,1,2,0,2,2,1,1,2
3.115,1,12,3,5,5,4,2,2
3.12,1,1,5,1,0,2,1,1
3.125,2,5,0,4,2,3,1,1
3.13,1,2,2,2,3,2,4,3
3.135,0,1,3,0,3,1,1,2
3.14,1,1,2,1,1,1,0,0
3.145,2,9,4,1,4,2,1,1
3.15,4,4,2,1,1,0,1,1
3.155,1,4,1,2,3,0,1,0
3.16,0,7,0,3,2,2,0,2
3.165,1,0,5,1,0,2,2,2
3.17,1,1,2,1,0,2,2,2
3.175,2,5,0,2,4,0,2,4
3.18,1,14,0,5,1,0,2,2
3.185,6,24,10,1,3,0,1,0
3.19,0,5,1,1,0,0,0,1
3.195,1,1,1,0,0,1,2,0
3.2,1,3,2,2,5,3,0,1
3.205,0,1,1,1,6,2,3,1
3.21,2,2,1,6,1,1,2,1
3.215,1,6,3,2,1,0,0,1
3.22,1,3,2,2,4,2,1,1
3.225,1,5,0,3,2,2,2,2
3.23,1,1,0,1,2,2,2,2
3.235,1,1,1,1,3,2,1,1
3.24,1,12,1,0,5,3,2,2
3.245,1,10,1,1,0,0,1,3
3.25,1,3,2,2,1,1,2,2
3.255,3,3,1,0,4,1,0,3
3.26,0,1,0,1,2,2,3,1
3.265,1,12,0,1,4,4,2,2
3.27,5,13,8,0,4,0,0,3
3.275,2,7,2,2,2,1,2,3
3.28,2,4,4,1,2,0,2,2
3.285,0,1,0,3,2,1,2,3
3.29,3,8,5,1,1,0,1,1
3.295,3,1,0,1,3,2,0,2
3.3,0,9,2,5,0,1,0,3
3.305,1,2,0,2,0,2,0,1
3.31,1,4,1,3,3,2,1,2
3.315,0,4,2,3,0,2,1,3
3.32,1,3,0,3,2,0,0,0
3.325,2,3,3,1,3,1,2,1
3.33,3,7,7,1,7,1,1,1
3.335,4,1,1,2,3,0,1,0
3.34,0,3,2,2,5,3,3,1
3.345,0,2,4,0,1,0,1,1
3.35,3,31,4,4,3,4,2,2
3.355,2,11,4,0,3,2,0,3
3.36,2,4,3,4,4,2,0,2
3.365,1,3,5,0,1,0,2,1
3.37,1,7,0,4,3,1,2,2
3.375,2,5,3,1,4,3,2,0
3.38,2,5,1,1,1,0,1,1
3.385,0,2,2,3,7,1,1,1
3.39,1,3,7,3,6,0,2,1
3.395,1,4,0,1,5,1,1,1
3.4,2,5,1,5,2,1,1,1
3.405,4,7,3,1,2,0,3,3
3.41,0,1,0,3,5,0,3,1
3.415,2,5,3,0,2,0,1,0
3.42,1,3,1,3,2,4,3,0
3.425,0,3,3,1,7,2,1,1
3.43,1,10,2,0,1,2,1,2
3.435,1,12,0,0,4,1,1,2
3.44,2,1,3,2,3,1,3,0
3.445,1,0,1,3,1,2,1,1
3.45,0,5,4,2,2,2,0,1
3.455,3,19,1,1,0,2,2,2
3.46,1,1,0,4,3,0,0,0
3.465,3,6,2,12,1,0,2,0
3.47,1,1,0,0,3,3,2,1
3.475,2,4,4,3,2,3,2,3
3.48,0,1,3,3,3,0,0,1
3.485,0,14,2,0,6,2,1,0
3.49,4,5,1,2,1,0,0,0
3.495,1,9,6,2,1,0,3,2
3.5,1,12,0,3,1,0,0,1
3.505,0,5,0,0,1,2,3,2
3.51,1,3,2,3,5,1,1,3
3.515,1,5,2,1,2,1,1,2
3.52,2,8,2,1,2,0,4,0
3.525,4,2,2,1,1,1,1,1
3.53,0,4,0,1,0,1,2,2
3.535,0,8,4,4,4,3,1,2
3.54,3,6,1,2,2,4,2,1
3.545,1,2,4,6,2,0,3,0
3.55,3,1,3,0,2,1,1,1
3.555,1,15,5,3,0,1,1,2
3.56,2,12,3,2,2,1,0,2
3.565,0,6,1,1,2,1,0,3
3.57,1,20,3,2,1,0,1,1
3.575,0,1,1,1,2,1,3,1
3.58,1,1,0,2,5,0,1,0
3.585,1,12,3,0,1,2,0,1
3.59,0,8,2,1,1,0,1,1
3.595,2,4,4,3,2,2,1,1
3.6,3,10,1,1,3,0,1,2
3.605,1,8,4,3,3,2,1,1
3.61,1,2,5,2,0,1,2,3
3.615,2,13,3,3,1,1,0,1
3.62,0,5,5,4,3,1,1,2
3.625,2,3,3,4,4,3,1,1
3.63,0,3,2,3,1,2,1,1
3.635,1,6,2,3,4,4,2,3
3.64,7,25,1,5,8,4,2,1
3.645,3,26,7,2,1,1,1,3
3.65,3,3,0,1,4,1,1,2
3.655,2,0,2,1,5,1,3,2
3.66,0,7,0,1,3,1,1,3
3.665,3,10,4,1,1,3,2,3
3.67,4,5,2,2,3,1,1,1
3.675,0,6,1,1,0,1,1,0
3.68,1,11,2,1,2,0,0,1
3.685,0,10,4,1,2,3,2,0
3.69,2,2,3,2,1,1,1,3
3.695,0,10,3,2,3,0,0,1
3.7,0,4,3,0,3,0,3,2
3.705,0,4,2,2,5,3,0,2
3.71,0,1,3,1,1,3,3,1
3.715,1,2,4,1,0,0,1,3
3.72,2,16,8,7,3,1,0,0
3.725,1,4,3,7,2,0,1,1
3.73,3,2,2,4,1,1,3,1
3.735,0,3,0,0,0,1,1,1
3.74,1,3,2,2,6,2,1,1
3.745,4,7,1,5,4,0,1,2
3.75,3,2,3,0,3,1,1,1
3.755,1,2,1,2,4,3,4,0
3.76,1,8,6,4,6,3,2,2
3.765,2,6,2,1,3,1,2,2
3.77,4,7,1,3,2,0,0,1
3.775,0,7,0,1,2,3,1,1
3.78,1,3,3,1,0,2,2,0
3.785,1,5,1,1,3,0,1,1
3.79,0,10,5,1,0,1,2,1
3.795,2,3,1,1,1,3,2,1
3.8,1,13,0,4,4,3,1,2
3.805,2,1,0,1,1,2,1,0
3.81,0,2,0,2,2,0,1,0
3.815,1,1,1,3,5,1,3,2
3.82,3,4,0,3,3,1,1,1
3.825,1,1,1,2,6,3,1,1
3.83,1,4,5,2,4,0,0,2
3.835,4,0,4,0,6,1,1,3
3.84,1,3,3,1,0,1,0,1
3.845,1,5,1,4,5,2,4,1
3.85,2,1,3,0,2,2,0,1
3.855,0,2,2,4,2,1,2,3
3.86,1,4,3,6,0,1,1,2
3.865,1,5,1,5,4,3,1,3
3.87,4,14,1,0,1,0,0,1
3.875,1,20,2,1,4,1,1,0
3.88,0,3,0,3,3,2,2,2
3.885,2,1,4,1,5,3,0,0
3.89,0,15,1,1,0,0,1,1
3.895,2,6,0,2,1,1,1,2
3.9,2,3,1,1,3,2,3,3
3.905,1,0,2,2,0,1,4,1
3.91,0,17,3,5,1,2,1,1
3.915,2,8,2,3,1,2,1,1
3.92,1,3,1,2,5,1,1,1
3.925,3,9,1,1,1,0,1,0
3.93,2,7,3,1,1,1,4,3
3.935,1,1,3,1,4,3,3,2
3.94,0,4,2,3,5,2,1,1
3.945,1,9,2,1,3,1,0,1
3.95,1,22,5,0,1,1,1,0
3.955,1,6,3,5,1,1,0,0
3.96,3,0,6,0,0,2,3,1
3.965,1,0,1,1,2,1,1,0
3.97,2,6,3,1,1,1,0,2
3.975,2,0,4,1,1,4,3,2
3.98,1,3,2,3,2,1,2,1
3.985,0,9,2,2,5,2,1,2
3.99,1,1,3,5,1,0,0,0
3.995,3,3,0,18,3,1,1,1
4,6,14,1,1,6,2,1,1
4.005,1,2,1,2,5,1,2,1
4.01,0,12,1,1,3,1,1,2
4.015,1,0,2,4,1,1,1,2
4.02,1,6,4,2,0,0,0,1
4.025,1,4,1,2,4,1,0,0
4.03,1,35,1,3,3,2,3,0
4.035,0,4,2,1,7,2,0,1
4.04,1,4,3,3,3,2,1,1
4.045,3,4,1,1,4,2,3,1
4.05,1,16,4,5,2,1,2,0
4.055,1,1,1,1,4,3,1,1
4.06,0,3,2,0,1,0,1,0
4.065,1,3,0,1,4,4,1,1
4.07,0,3,2,1,4,3,3,2
4.075,2,9,4,1,2,1,2,3
4.08,1,4,3,3,1,1,3,0
4.085,2,5,3,11,5,1,2,1
4.09,3,7,2,1,1,1,1,1
4.095,1,3,1,1,1,2,3,0
4.1,2,2,3,1,5,3,1,2
4.105,1,27,7,3,2,2,1,1
4.11,0,6,3,4,3,1,1,1
4.115,0,8,1,1,2,1,2,1
4.12,1,3,1,2,3,1,0,0
4.125,2,10,2,0,6,0,0,0
4.13,1,2,1,5,4,4,1,1
4.135,2,2,0,5,2,3,1,0
4.14,4,4,1,1,0,2,1,1
4.145,1,5,1,1,2,2,1,3
4.15,1,2,1,0,5,2,3,0
4.155,1,5,1,0,3,3,0,0
4.16,0,4,1,1,3,2,3,2
4.165,2,8,4,1,1,1,1,1
4.17,1,2,0,1,2,1,2,1
4.175,1,10,2,2,2,2,0,2
4.18,2,21,3,3,2,2,1,1
4.185,4,9,3,2,6,3,2,1
4.19,1,11,2,5,3,0,0,1
4.195,2,1,1,1,2,0,1,1
4.2,1,2,1,2,4,1,1,3
4.205,4,10,2,1,5,2,4,1
4.21,3,4,1,2,0,1,1,2
4.215,0,6,0,1,0,1,0,1
4.22,0,3,3,3,3,1,2,1
4.225,1,1,3,1,5,2,1,1
4.23,5,2,4,2,2,0,0,1
4.235,1,1,1,1,6,1,1,0
4.24,1,3,1,4,5,0,3,0
4.245,0,2,2,2,3,1,1,0
4.25,2,1,2,3,5,3,3,2
4.255,1,32,4,0,4,2,2,0
4.26,3,8,2,0,4,2,0,0
4.265,1,4,0,2,6,1,3,0
4.27,0,9,5,1,4,0,1,2
4.275,1,15,2,2,3,2,2,1
4.28,1,8,0,3,8,1,3,1
4.285,1,1,1,1,2,4,3,0
4.29,2,18,2,0,1,0,0,1
4.295,2,4,0,1,1,1,0,4
4.3,5,0,2,1,3,2,1,0
4.305,1,13,4,2,3,1,2,1
4.31,1,7,0,1,0,2,1,0
4.315,2,1,5,1,0,2,2,2
4.32,1,3,5,4,2,2,0,0
4.325,0,11,0,2,5,3,2,1
4.33,4,6,1,1,2,3,1,1
4.335,1,8,0,1,1,0,1,3
4.34,1,2,3,0,4,1,1,3
4.345,2,2,5,1,0,1,4,0
4.35,0,2,1,3,1,2,2,2
4.355,2,15,2,5,1,1,2,2
4.36,0,1,0,1,4,2,1,2
4.365,1,2,1,3,2,2,2,1
4.37,4,5,2,1,4,2,1,0
4.375,2,11,3,4,3,3,1,1
4.38,0,3,3,0,4,1,0,1
4.385,1,6,3,3,5,2,1,2
4.39,1,1,1,3,3,3,1,0
4.395,3,7,5,4,0,1,0,1
4.4,2,5,2,1,3,1,2,1
4.405,1,0,0,0,5,2,2,2
4.41,0,4,1,1,1,3,3,1
4.415,1,26,2,1,2,1,1,4
4.42,1,3,2,5,1,2,2,1
4.425,2,3,2,0,1,0,1,1
4.43,1,12,2,1,2,1,1,0
4.435,2,10,1,1,3,0,2,2
4.44,0,1,2,2,3,2,2,0
4.445,2,1,1,1,2,3,3,2
4.45,2,5,1,2,2,0,1,0
4.455,0,11,1,5,1,0,0,1
4.46,0,1,2,0,0,2,1,3
4.465,0,5,2,2,7,3,0,0
4.47,1,9,0,2,7,3,1,2
4.475,2,8,4,2,1,1,2,0
4.48,2,2,2,0,0,2,2,1
4.485,1,5,2,2,7,0,0,2
4.49,2,7,2,2,4,3,2,0
4.495,1,1,1,7,3,0,0,1
4.5,1,26,2,1,4,3,2,1
4.505,2,5,1,2,6,2,1,1
4.51,2,2,1,1,3,0,1,2
4.515,0,1,4,0,3,1,2,3
4.52,1,0,3,7,5,2,2,1
4.525,3,5,1,2,0,3,1,2
4.53,4,15,2,3,5,3,3,3
4.535,3,11,6,3,3,2,2,0
4.54,1,5,0,2,1,1,1,0
4.545,1,0,0,3,3,3,1,1
4.55,1,5,4,0,2,2,2,0
4.555,5,9,4,0,1,1,1,1
4.56,0,3,1,5,2,1,1,1
4.565,3,12,2,3,2,0,0,1
4.57,2,28,6,4,2,1,1,0
4.575,0,6,3,1,6,4,3,2
4.58,1,2,0,0,3,0,1,0
4.585,0,1,3,2,3,1,0,1
4.59,3,1,2,5,2,1,2,1
4.595,2,1,1,1,3,1,0,0
4.6,0,7,3,1,4,1,1,2
4.605,1,2,1,2,2,3,2,2
4.61,3,7,7,1,3,0,0,0
4.615,2,4,2,1,1,2,1,0
4.62,4,2,4,1,1,1,0,1
4.625,0,3,3,3,2,1,1,1
4.63,1,5,1,1,1,2,2,4
4.635,0,8,3,0,3,0,1,3
4.64,2,9,0,0,0,1,2,1
4.645,1,27,6,2,2,1,2,0
4.65,1,5,4,1,0,1,1,5
4.655,1,1,2,2,1,3,1,1
4.66,1,1,0,2,6,1,1,2
4.665,2,13,2,1,0,0,1,3
4.67,2,1,1,2,2,1,2,1
4.675,1,0,1,1,7,2,1,0
4.68,3,3,3,2,1,2,0,1
4.685,2,2,1,2,1,1,2,1
4.69,1,8,1,4,7,3,1,1
4.695,2,1,4,2,1,1,0,2
4.7,0,0,5,1,3,1,2,3
4.705,0,9,0,8,2,2,1,1
4.71,0,1,1,2,0,1,0,2
4.715,2,11,2,3,1,3,3,2
4.72,0,3,2,2,0,1,3,2
4.725,4,3,5,2,2,1,0,1
4.73,5,9,2,1,7,2,2,0
4.735,3,14,4,2,4,0,2,0
4.74,2,1,2,0,2,1,1,1
4.745,1,4,1,1,4,1,0,2
4.75,0,7,1,2,0,0,1,1
4.755,1,2,0,2,2,2,2,3
4.76,1,5,1,1,7,3,1,2
4.765,3,8,4,2,1,3,1,1
4.77,4,8,4,3,0,2,2,0
4.775,3,8,0,1,2,1,0,2
4.78,6,26,4,1,2,2,3,0
4.785,2,17,1,0,1,3,0,0
4.79,0,48,18,3,1,1,2,1
4.795,4,7,2,3,0,2,1,1
4.8,3,12,5,2,1,0,1,2
4.805,3,7,2,1,3,3,2,1
4.81,0,13,6,0,1,3,0,3
4.815,0,5,16,0,5,3,2,5
4.82,0,14,9,0,7,1,1,1
4.825,6,0,7,1,4,1,2,1
4.83,0,22,8,1,1,3,2,2
4.835,2,6,2,0,2,0,0,2
4.84,1,12,2,5,2,1,0,0
4.845,3,8,8,3,1,1,1,1
4.85,3,12,6,5,0,0,0,1
4.855,1,6,4,2,5,3,1,0
4.86,3,6,1,1,1,0,0,1
4.865,2,2,0,0,4,1,2,0
4.87,1,8,1,1,1,3,4,0
4.875,2,8,2,4,5,1,3,1
4.88,2,9,3,3,3,0,0,0
4.885,1,6,0,3,7,0,0,1
4.89,1,7,6,0,4,1,5,2
4.895,1,8,3,2,2,2,1,1
4.9,5,2,1,0,4,1,0,0
4.905,1,15,1,2,2,1,2,1
4.91,1,0,0,5,4,1,0,1
4.915,1,5,2,0,2,0,2,2
4.92,3,19,5,2,2,1,2,1
4.925,1,5,2,1,0,1,0,2
4.93,0,3,0,1,6,4,3,2
4.935,4,1,4,2,3,1,0,3
4.94,2,19,6,1,1,3,1,0
4.945,0,1,0,3,5,2,1,1
4.95,0,22,6,2,3,1,1,2
4.955,1,0,2,1,4,0,1,1
4.96,2,11,1,3,5,4,2,2
4.965,1,8,2,1,0,1,2,1
4.97,2,6,1,4,0,0,0,1
4.975,0,5,3,0,8,3,2,0
4.98,1,3,1,2,1,1,0,3
4.985,2,2,1,1,6,0,0,2
4.99,2,5,5,0,2,0,0,1
4.995,0,5,1,1,4,2,4,0
5,0,1,2,0,3,2,3,1
5.005,6,7,8,0,1,0,1,2
5.01,0,11,2,1,1,1,1,0
5.015,3,24,3,1,0,1,3,0
5.02,3,10,2,0,6,3,2,0
5.025,2,8,0,3,2,4,2,5
5.03,3,11,1,0,1,2,1,2
5.035,0,11,4,1,2,2,1,2
5.04,2,2,3,4,0,2,2,1
5.045,1,7,0,0,1,1,1,0
5.05,1,11,4,0,2,0,0,0
5.055,1,7,0,0,1,4,2,4
5.06,1,2,4,0,1,1,1,1
5.065,3,3,2,3,0,0,2,2
5.07,2,4,3,0,1,0,2,1
5.075,0,14,5,4,7,4,2,1
5.08,1,13,4,0,5,0,1,0
5.085,0,9,5,1,3,1,0,1
5.09,1,8,3,2,3,3,2,4
5.095,0,8,0,0,2,2,1,2
5.1,3,35,4,1,1,1,2,1
5.105,2,6,0,5,0,2,1,1
5.11,2,9,3,0,2,1,1,1
5.115,3,1,3,1,4,2,3,2
5.12,2,9,0,1,6,1,2,2
5.125,2,12,0,0,1,2,0,0
5.13,2,2,2,1,5,2,2,0
5.135,2,9,1,4,5,3,3,3
5.14,5,8,10,2,0,0,0,3
5.145,7,42,7,0,3,2,1,0
5.15,6,39,13,2,1,2,2,2
5.155,4,4,6,2,4,2,3,2
5.16,2,29,0,2,2,0,1,1
5.165,1,7,1,5,7,3,3,0
5.17,4,28,6,3,8,3,1,1
5.175,6,10,0,2,7,4,1,1
5.18,0,3,0,0,1,3,1,1
5.185,4,26,3,1,6,3,2,1
5.19,2,3,3,0,3,2,1,1
5.195,2,19,6,2,6,3,2,1
5.2,1,13,6,2,3,0,0,1
5.205,4,20,11,1,5,4,1,2
5.21,1,11,4,0,2,0,0,0
5.215,2,3,2,1,2,2,2,1
5.22,2,16,3,0,1,1,1,1
5.225,2,9,1,1,1,1,1,2
5.23,5,0,3,2,6,1,1,1
5.235,2,7,1,1,5,1,2,1
5.24,1,12,1,2,1,1,1,0
5.245,0,9,1,3,3,2,1,1
5.25,2,5,6,2,4,2,1,0
5.255,1,6,11,3,2,2,2,1
5.26,6,32,12,3,6,3,3,4
5.265,0,4,6,1,4,1,1,0
5.27,1,25,8,3,3,0,0,1
5.275,4,5,1,2,0,2,0,1
5.28,1,2,2,1,3,3,1,3
5.285,1,3,0,1,2,0,2,3
5.29,1,2,4,1,2,3,2,2
5.295,2,3,1,2,5,1,0,0
5.3,3,8,3,1,2,0,0,1
5.305,3,3,0,2,2,2,4,3
5.31,1,8,1,1,1,0,1,2
5.315,3,6,2,1,2,0,1,1
5.32,4,4,6,0,4,3,3,1
5.325,2,9,3,4,2,1,2,1
5.33,0,11,2,0,2,2,0,2
5.335,1,1,1,2,4,2,2,3
5.34,0,5,0,1,1,3,3,2
5.345,2,11,2,2,3,1,1,1
5.35,3,22,5,1,2,3,1,0
5.355,1,9,5,1,1,0,1,1
5.36,2,5,2,5,4,3,2,1
5.365,1,5,1,1,3,2,1,1
5.37,0,0,2,2,1,0,3,2
5.375,3,26,3,2,5,3,2,2
5.38,3,17,8,0,1,1,1,1
5.385,2,0,4,6,0,1,0,2
5.39,4,20,0,1,1,1,1,1
5.395,2,7,8,1,1,2,2,2
5.4,0,3,2,1,2,1,0,3
5.405,4,15,1,1,3,4,2,2
5.41,3,5,1,2,1,0,4,1
5.415,4,36,3,2,5,2,2,2
5.42,3,3,2,2,2,1,2,1
5.425,0,8,1,1,2,2,0,2
5.43,2,0,1,1,1,0,1,1
5.435,0,10,0,0,2,1,1,0
5.44,4,7,8,3,7,1,2,4
5.445,4,4,3,1,6,5,5,1
5.45,1,1,3,0,1,2,3,2
5.455,3,9,1,2,3,1,1,1
5.46,3,2,3,2,2,2,2,2
5.465,1,2,6,1,1,2,2,1
5.47,1,1,4,1,4,2,2,1
5.475,2,5,1,1,0,3,3,0
5.48,6,21,2,1,2,0,2,1
5.485,0,12,0,6,3,2,1,3
5.49,0,1,5,1,3,1,1,2
5.495,2,9,4,2,6,1,3,2
5.5,0,0,2,2,3,1,2,1
5.505,0,10,1,0,0,1,0,3
5.51,2,13,7,0,7,4,1,1
5.515,0,12,2,0,5,4,1,2
5.52,4,6,2,2,10,8,2,2
5.525,2,10,2,2,1,3,3,2
5.53,5,34,17,0,3,2,4,2
5.535,1,12,1,2,3,3,2,1
5.54,4,7,3,2,2,2,1,0
5.545,3,14,2,1,4,2,0,0
5.55,2,16,7,1,5,3,5,1
5.555,5,25,2,1,4,1,0,1
5.56,1,12,0,2,8,5,5,2
5.565,4,14,1,2,2,0,0,0
5.57,1,8,6,1,2,0,0,1
5.575,1,16,2,2,7,1,1,0
5.58,0,5,7,1,1,3,4,0
5.585,3,5,2,1,5,3,1,0
5.59,10,23,8,0,1,2,2,0
5.595,2,4,4,2,2,0,1,4
5.6,2,1,6,0,6,2,1,0
5.605,1,4,0,1,2,1,2,0
5.61,2,23,6,0,6,0,1,2
5.615,1,8,2,2,1,2,2,0
5.62,1,17,0,0,2,4,2,1
5.625,3,10,1,2,1,0,0,3
5.63,1,17,6,0,2,1,2,0
5.635,4,4,3,6,0,0,1,0
5.64,0,4,1,1,4,1,0,0
5.645,0,1,2,0,3,2,0,4
5.65,0,2,7,1,1,1,2,0
5.655,1,20,7,1,3,1,2,3
5.66,1,13,0,3,2,1,3,1
5.665,5,11,4,1,3,2,4,1
5.67,2,17,0,2,1,3,2,4
5.675,0,7,1,0,1,0,1,2
5.68,2,7,6,4,4,3,3,0
5.685,1,8,2,2,4,2,3,1
5.69,2,1,6,5,1,2,2,4
5.695,1,4,2,1,1,3,0,1
5.7,2,2,1,0,2,2,0,0
5.705,1,2,0,3,4,2,1,2
5.71,1,1,4,2,1,2,1,0
5.715,3,26,7,3,1,1,0,2
5.72,2,13,5,1,1,2,1,2
5.725,5,22,7,1,0,0,1,1
5.73,1,11,3,3,6,2,4,2
5.735,0,6,2,3,2,1,2,1
5.74,1,1,0,0,2,1,3,0
5.745,1,7,2,0,1,0,2,2
5.75,0,7,3,1,2,3,2,1
5.755,4,5,6,4,3,0,0,1
5.76,1,0,0,5,8,2,3,1
5.765,2,17,4,5,6,2,2,3
5.77,2,9,1,1,3,1,0,0
5.775,2,3,1,2,2,1,2,1
5.78,0,7,2,0,1,1,0,1
5.785,2,2,4,1,2,2,1,0
5.79,1,2,3,2,2,1,2,0
5.795,5,3,3,2,9,4,2,1
5.8,7,26,0,2,4,1,0,0
5.805,0,3,0,5,3,1,2,3
5.81,3,6,4,3,1,0,1,1
5.815,0,8,5,2,2,1,1,1
5.82,1,17,5,2,7,4,3,3
5.825,1,1,2,1,3,1,1,3
5.83,2,5,1,1,0,0,2,2
5.835,2,7,1,0,0,0,0,2
5.84,2,4,1,1,1,2,0,1
5.845,3,5,1,2,4,1,0,1
5.85,1,0,2,3,2,0,4,2
5.855,1,6,3,3,4,2,2,2
5.86,2,12,13,0,1,1,3,3
5.865,2,9,2,1,6,1,2,1
5.87,0,5,1,2,5,2,1,0
5.875,1,1,4,3,4,1,1,0
5.88,0,5,2,0,1,1,1,2
5.885,1,4,0,1,5,2,2,0
5.89,4,3,0,1,3,0,1,4
5.895,2,0,1,2,6,5,4,0
5.9,5,3,4,3,5,5,3,2
5.905,1,18,3,2,3,2,0,0
5.91,0,0,3,0,2,0,1,3
5.915,3,22,2,0,5,2,1,2
5.92,2,10,6,3,1,2,1,2
5.925,1,2,1,3,6,1,3,0
5.93,0,8,1,1,1,1,0,1
5.935,4,1,4,3,2,1,2,1
5.94,4,14,1,4,2,3,0,1
5.945,0,4,0,2,2,2,1,0
5.95,3,2,1,5,3,3,1,1
5.955,1,3,4,2,3,1,1,1
5.96,1,7,2,1,6,4,1,2
5.965,1,1,4,2,1,1,2,1
5.97,2,2,2,2,0,1,2,0
5.975,2,6,5,3,4,1,2,1
5.98,3,12,5,4,4,0,1,2
5.985,1,5,2,2,4,1,1,1
5.99,4,5,3,1,3,2,2,2
5.995,0,3,6,5,3,1,2,0
6,4,1,3,0,6,4,3,1
6.005,0,1,0,1,3,2,3,2
6.01,6,11,1,1,6,1,2,2
6.015,1,16,7,0,2,1,0,1
6.02,2,4,0,1,5,2,1,1
6.025,0,0,1,1,1,1,2,2
6.03,1,23,2,2,2,1,2,1
6.035,2,1,1,2,2,1,0,1
6.04,1,4,2,2,1,0,1,1
6.045,1,1,1,3,6,2,0,0
6.05,1,9,4,2,2,0,1,1
6.055,3,7,1,4,1,3,3,1
6.06,1,3,0,6,1,1,1,1
6.065,2,2,3,1,4,1,1,0
6.07,0,6,1,1,2,3,3,3
6.075,3,6,2,2,0,2,1,1
6.08,2,0,2,2,1,1,1,1
6.085,4,3,4,0,2,0,0,0
6.09,1,3,0,0,0,1,1,1
6.095,2,12,2,4,3,2,2,0
6.1,2,1,7,4,0,1,1,2
6.105,4,27,5,5,10,3,1,0
6.11,1,5,2,2,1,1,3,1
6.115,3,16,2,2,3,2,1,3
6.12,4,16,0,0,2,1,2,1
6.125,2,4,2,0,3,1,1,3
6.13,1,6,2,1,2,0,0,2
6.135,0,16,1,2,4,2,2,1
6.14,2,9,2,0,3,3,1,2
6.145,2,8,0,0,1,1,1,2
6.15,2,6,0,1,4,2,5,1
6.155,5,18,1,4,5,4,1,1
6.16,4,15,2,3,3,2,3,2
6.165,4,8,0,3,0,1,2,0
6.17,1,2,0,0,5,2,0,1
6.175,1,5,2,5,2,1,1,2
6.18,4,14,2,0,1,2,0,2
6.185,3,6,0,2,1,0,0,1
6.19,1,7,0,1,1,1,0,1
6.195,3,7,2,1,1,0,2,0
6.2,5,4,5,1,1,1,1,1
6.205,0,5,4,1,1,1,0,1
6.21,3,2,1,3,1,0,2,1
6.215,1,3,1,0,0,3,3,0
6.22,0,10,1,3,7,1,3,1
6.225,3,2,4,0,2,0,2,0
6.23,1,17,2,1,1,1,0,0
6.235,2,11,1,3,2,0,0,2
6.24,2,4,10,3,3,1,2,2
6.245,0,0,2,0,4,5,3,3
6.25,2,14,5,1,4,4,2,2
6.255,5,35,1,3,4,2,0,1
6.26,2,4,0,1,1,2,2,2
6.265,1,1,2,1,4,1,0,1
6.27,1,14,1,2,0,1,2,1
6.275,3,24,1,4,3,1,2,1
6.28,1,5,4,2,6,0,1,1
6.285,2,4,1,5,0,1,0,1
6.29,1,19,3,0,5,4,0,0
6.295,1,6,1,3,5,4,1,2
6.3,2,1,2,0,1,1,0,1
6.305,0,7,0,0,5,2,1,0
6.31,2,16,3,2,2,1,3,0
6.315,1,10,3,0,4,2,1,0
6.32,1,2,2,0,1,0,1,0
6.325,1,2,4,3,2,2,2,2
6.33,2,7,1,2,0,1,0,3
6.335,2,3,0,0,10,6,1,2
6.34,2,2,0,1,1,3,4,1
6.345,2,2,1,1,2,0,0,2
6.35,2,3,2,1,0,2,0,0
6.355,1,4,0,2,6,1,0,0
6.36,2,7,1,1,5,2,3,0
6.365,0,16,4,0,5,0,1,0
6.37,2,4,1,4,0,1,1,3
6.375,0,3,4,0,2,1,1,1
6.38,0,1,3,2,0,2,1,0
6.385,1,2,3,3,1,1,3,1
6.39,1,5,5,0,2,1,2,0
6.395,4,30,2,1,3,1,0,1
6.4,2,15,1,2,5,1,0,1
6.405,2,5,4,1,0,2,3,0
6.41,2,1,8,1,2,1,2,4
6.415,1,4,5,5,4,2,3,1
6.42,1,31,6,0,2,1,1,1
6.425,0,2,0,1,1,2,2,2
6.43,1,2,1,3,3,0,1,2
6.435,1,8,3,0,3,1,1,0
6.44,0,3,3,3,7,4,2,1
6.445,2,1,1,1,2,3,0,2
6.45,1,4,2,2,1,0,2,2
6.455,2,2,1,1,1,1,0,2
6.46,1,8,1,0,8,2,1,3
6.465,2,5,2,5,3,0,1,1
6.47,1,1,2,6,5,3,4,1
6.475,4,23,3,0,0,0,0,1
6.48,2,8,3,1,9,0,2,1
6.485,1,1,0,6,0,1,2,0
6.49,2,3,4,0,3,1,1,2
6.495,1,3,2,2,2,1,2,0
6.5,2,21,8,3,8,2,2,1
6.505,0,2,3,1,8,5,0,1
6.51,1,4,1,2,0,1,1,1
6.515,0,3,5,3,6,3,2,0
6.52,2,2,4,0,1,0,1,1
6.525,2,2,0,6,3,1,2,3
6.53,1,4,1,4,2,2,1,2
6.535,0,15,8,2,1,1,0,2
6.54,2,6,5,1,2,3,3,2
6.545,2,3,1,2,3,1,1,2
6.55,2,4,1,2,2,1,1,0
6.555,2,4,4,1,0,2,3,2
6.56,0,5,2,3,5,1,2,0
6.565,2,23,2,3,0,0,1,2
6.57,3,13,6,0,0,0,1,1
6.575,1,7,1,3,2,1,0,3
6.58,1,7,2,2,1,0,1,2
6.585,2,7,3,1,5,2,4,1
6.59,0,4,0,4,1,0,1,2
6.595,3,7,1,2,2,1,0,0
6.6,1,5,5,2,0,2,1,1
6.605,3,14,1,0,1,2,0,1
6.61,1,1,1,0,0,0,3,0
6.615,3,2,2,0,6,0,2,3
6.62,1,1,1,2,0,2,2,2
6.625,1,2,1,0,3,2,0,0
6.63,2,1,1,3,2,1,1,1
6.635,2,7,7,1,7,5,3,0
6.64,2,0,1,1,3,1,0,1
6.645,1,4,1,3,0,1,0,1
6.65,3,6,4,0,2,1,0,4
6.655,1,3,4,0,2,2,1,0
6.66,0,5,0,6,3,2,1,0
6.665,2,3,1,0,3,2,2,0
6.67,0,1,1,0,0,3,1,4
6.675,0,1,1,0,1,0,2,2
6.68,1,18,11,2,1,1,1,0
6.685,2,1,2,2,6,3,2,1
6.69,4,2,2,2,3,2,1,1
6.695,0,5,1,1,7,2,3,2
6.7,2,8,5,1,1,3,2,3
6.705,0,7,1,0,3,3,1,1
6.71,2,12,2,1,3,3,0,1
6.715,1,9,0,1,2,0,1,0
6.72,4,10,2,0,2,2,0,2
6.725,2,8,1,3,1,0,1,1
6.73,1,1,3,3,1,1,4,1
6.735,4,3,4,1,4,0,1,1
6.74,4,7,11,0,10,2,1,1
6.745,2,10,2,2,2,1,1,0
6.75,1,2,0,1,2,1,2,2
6.755,1,10,0,4,7,2,4,1
6.76,1,11,5,4,5,1,1,0
6.765,0,9,3,1,1,0,1,1
6.77,0,15,4,2,3,0,0,1
6.775,1,5,2,0,3,2,4,3
6.78,2,8,2,1,3,1,0,0
6.785,0,10,0,1,9,4,2,1
6.79,4,15,0,3,6,3,1,1
6.795,0,0,1,0,3,1,0,3
6.8,1,3,3,3,4,2,1,2
6.805,3,2,3,4,4,1,2,0
6.81,5,6,3,2,2,0,0,0
6.815,1,16,5,4,4,2,0,1
6.82,1,2,0,1,3,3,2,1
6.825,1,1,2,2,0,2,2,1
6.83,0,2,1,0,0,1,2,1
6.835,5,15,3,4,1,1,1,3
6.84,0,4,1,1,4,1,2,1
6.845,2,2,4,1,4,1,0,2
6.85,2,9,6,1,2,1,0,1
6.855,1,10,1,0,6,2,2,1
6.86,2,5,4,1,1,2,2,0
6.865,2,20,7,0,3,0,1,1
6.87,1,7,5,1,0,1,1,0
6.875,0,4,1,0,12,3,2,1
6.88,2,13,0,5,1,1,1,1
6.885,5,13,0,1,2,0,1,2
6.89,1,5,1,1,4,3,2,2
6.895,0,19,1,1,3,3,2,2
6.9,2,4,5,3,1,0,1,4
6.905,1,1,3,1,9,4,3,1
6.91,1,2,4,4,9,3,1,1
6.915,4,17,3,0,7,3,0,0
6.92,2,1,1,0,4,2,3,1
6.925,1,3,4,3,2,2,2,4
6.93,1,9,4,1,0,0,1,0
6.935,1,2,1,3,3,3,2,2
6.94,1,3,2,2,1,2,1,0
6.945,3,6,0,3,3,2,1,0
6.95,0,6,3,0,6,3,4,1
6.955,3,17,7,3,0,0,1,3
6.96,1,14,2,3,5,0,0,1
6.965,3,9,3,0,1,2,1,0
6.97,2,8,1,0,1,1,0,2
6.975,1,5,1,2,1,2,3,1
6.98,1,18,3,3,4,1,1,2
6.985,4,8,4,1,4,1,0,1
6.99,0,0,0,1,4,2,1,0
6.995,0,1,2,0,2,2,1,1
7,2,5,2,1,5,1,3,1
7.005,3,8,4,1,1,1,1,0
7.01,1,3,1,1,2,2,0,0
7.015,2,7,2,2,1,2,1,3
7.02,2,4,2,2,3,0,0,1
7.025,1,9,4,2,2,2,2,1
7.03,2,1,3,2,2,1,0,1
7.035,0,2,0,1,1,0,1,2
7.04,1,6,2,0,0,2,1,3
7.045,1,10,7,3,7,1,2,0
7.05,5,31,8,1,2,2,0,1
7.055,4,5,2,3,4,2,0,1
7.06,1,2,6,4,1,1,1,0
7.065,2,17,1,0,0,2,1,0
7.07,2,8,4,4,6,3,2,2
7.075,0,4,1,1,2,1,2,2
7.08,0,2,1,0,2,1,2,1
7.085,1,19,5,2,7,4,1,1
7.09,4,4,0,1,4,0,2,1
7.095,0,3,4,4,4,4,2,2
7.1,3,16,2,1,6,4,2,1
7.105,1,10,2,2,1,2,2,1
7.11,0,8,7,2,4,1,1,1
7.115,1,6,1,2,5,2,1,1
7.12,1,1,0,0,2,0,1,1
7.125,2,1,0,1,3,0,1,0
7.13,2,0,2,1,3,2,1,2
7.135,0,6,6,2,4,4,3,2
7.14,0,3,3,1,2,2,1,2
7.145,2,20,6,0,3,0,2,0
7.15,2,19,0,2,2,1,2,2
7.155,3,8,2,3,3,3,1,1
7.16,2,3,3,2,1,0,1,0
7.165,0,2,1,1,1,2,0,2
7.17,2,2,1,3,9,5,2,1
7.175,1,2,0,1,1,1,0,1
7.18,0,3,2,0,0,2,2,1
7.185,3,2,1,1,1,0,2,3
7.19,0,4,3,0,2,0,1,2
7.195,2,2,2,0,2,1,1,2
7.2,1,1,2,6,3,0,1,1
7.205,2,9,0,1,3,2,2,1
7.21,1,13,2,3,8,5,3,1
7.215,3,8,2,2,3,0,2,3
7.22,0,13,1,0,2,0,1,1
7.225,3,0,1,1,3,2,1,1
7.23,2,0,1,3,4,2,1,0
7.235,1,3,0,2,1,1,1,3
7.24,2,2,2,0,0,2,1,1
7.245,2,0,1,2,0,1,2,1
7.25,1,1,0,0,1,1,3,1
7.255,0,2,0,1,4,2,2,0
7.26,0,2,2,1,1,1,1,1
7.265,1,2,2,0,3,2,0,1
7.27,1,0,2,4,5,2,1,0
7.275,2,2,1,1,0,0,1,2
7.28,0,4,2,2,1,2,0,0
7.285,1,0,1,5,1,2,0,0
7.29,2,17,0,1,3,1,0,0
7.295,0,3,0,2,6,1,1,2
7.3,1,1,1,6,2,0,1,1
7.305,5,11,8,5,4,1,2,2
7.31,0,3,4,6,1,2,0,1
7.315,1,0,2,5,1,1,0,1
7.32,1,16,3,0,1,1,2,2
7.325,1,10,1,1,1,3,2,1
7.33,2,6,3,2,3,1,3,2
7.335,2,1,0,1,1,1,1,1
7.34,2,11,3,1,2,3,2,1
7.345,2,5,0,1,2,0,0,0
7.35,3,4,0,1,0,3,1,1
7.355,0,10,5,0,6,3,3,0
7.36,4,12,4,3,3,0,0,2
7.365,4,4,2,0,2,1,1,0
7.37,0,8,0,3,4,1,1,1
7.375,2,12,2,3,1,1,1,2
7.38,2,14,4,0,1,3,2,2
7.385,3,22,2,0,1,0,0,1
7.39,2,5,3,4,4,0,2,2
7.395,2,6,4,0,3,2,1,2
7.4,1,6,0,3,4,2,2,2
7.405,0,4,3,1,1,1,1,2
7.41,1,0,1,1,1,1,1,0
7.415,2,4,2,0,1,2,0,1
7.42,3,10,4,1,3,0,1,2
7.425,1,4,1,3,3,2,1,0
7.43,1,3,2,3,2,2,1,0
7.435,0,9,2,0,0,2,1,1
7.44,1,5,1,0,3,2,1,0
7.445,0,5,1,0,6,2,0,1
7.45,0,5,2,1,1,2,2,1
7.455,2,2,1,1,0,1,0,2
7.46,1,2,1,0,1,0,2,2
7.465,0,3,2,1,4,2,2,0
7.47,0,0,3,1,3,2,2,2
7.475,3,2,4,3,2,1,1,0
7.48,1,12,11,0,1,1,1,1
7.485,1,5,0,1,1,0,0,2
7.49,3,10,4,1,0,0,1,1
7.495,1,1,1,1,1,0,1,1
7.5,4,14,8,3,5,2,3,1
7.505,1,0,5,0,2,2,0,0
7.51,2,4,3,2,4,1,1,1
7.515,1,2,2,1,1,3,4,1
7.52,3,8,4,1,0,0,0,1
7.525,1,1,1,4,1,3,1,1
7.53,3,2,7,0,3,1,2,3
7.535,1,2,1,1,4,0,1,1
7.54,4,14,4,2,7,1,1,1
7.545,2,7,2,0,5,0,1,0
7.55,0,6,2,3,1,4,2,2
7.555,0,4,2,6,2,2,3,2
7.56,2,4,2,1,2,4,1,1
7.565,1,1,0,1,4,1,2,2
7.57,0,2,1,0,1,1,0,1
7.575,5,5,1,1,4,0,1,1
7.58,0,5,1,0,0,2,1,2
7.585,1,2,0,2,2,0,2,1
7.59,1,3,2,2,3,3,1,2
7.595,2,2,1,1,3,1,2,1
7.6,1,4,0,0,1,0,3,0
7.605,2,1,2,2,3,1,2,1
7.61,0,3,3,3,7,2,1,0
7.615,0,2,0,2,5,2,1,1
7.62,2,4,1,0,2,2,2,0
7.625,3,1,1,4,1,4,4,1
7.63,0,0,1,5,5,1,0,2
7.635,2,2,1,2,4,5,3,0
7.64,1,5,1,2,2,1,2,1
7.645,1,1,2,0,2,0,1,1
7.65,1,1,1,1,1,5,5,4
7.655,1,1,1,1,1,4,1,3
7.66,1,1,3,2,3,4,1,0
7.665,2,5,3,4,3,1,2,1
7.67,3,2,1,3,4,0,4,1
7.675,4,3,3,1,7,3,3,1
7.68,1,1,2,1,3,4,4,3
7.685,2,3,0,1,3,1,1,2
7.69,1,1,2,2,1,2,1,1
7.695,2,2,0,5,6,4,3,4
7.7,1,0,2,1,0,2,1,2
7.705,4,1,2,2,3,2,2,2
7.71,8,2,0,4,0,1,2,2
7.715,3,3,1,3,1,2,1,1
7.72,2,2,1,5,3,2,3,0
7.725,1,4,2,9,6,4,0,0
7.73,7,1,1,4,2,2,1,1
7.735,1,8,2,2,1,0,4,1
7.74,2,0,1,4,10,5,5,1
7.745,1,0,1,1,0,3,1,1
7.75,2,1,2,3,0,1,1,2
7.755,1,2,1,2,2,0,3,2
7.76,3,3,1,3,3,2,3,3
7.765,1,1,2,0,0,2,1,1
7.77,2,0,1,2,1,2,2,1
7.775,1,1,3,2,1,0,2,2
7.78,4,4,1,0,1,1,2,1
7.785,7,1,4,4,4,6,2,2
7.79,2,2,2,3,1,1,0,0
7.795,1,0,0,2,2,0,1,4
7.8,1,1,3,1,3,0,2,2
7.805,6,3,1,2,1,3,3,0
7.81,2,2,0,1,1,1,1,1
7.815,2,0,1,1,1,2,1,0
7.82,0,2,3,1,1,1,2,3
7.825,3,3,0,3,0,0,1,2
7.83,1,1,1,0,0,1,1,3
7.835,1,2,1,1,2,1,0,0
7.84,1,2,1,1,1,1,0,2
7.845,0,2,2,1,2,2,3,1
7.85,0,0,2,1,1,0,0,3
7.855,1,0,1,2,4,2,1,0
7.86,1,3,2,3,1,1,1,0
7.865,1,1,1,1,1,0,2,2
7.87,2,1,0,3,1,1,2,1
7.875,1,2,2,1,2,2,0,1
7.88,0,1,1,1,1,0,1,1
7.885,3,2,2,3,2,1,0,1
7.89,1,2,2,0,1,2,1,3
7.895,1,2,1,0,3,3,1,2
7.9,2,1,0,1,3,3,0,2
7.905,1,2,0,2,1,1,1,1
7.91,1,1,1,2,1,1,4,1
7.915,2,1,1,2,1,1,1,2
7.92,2,2,0,2,0,0,0,1
7.925,1,0,1,2,1,1,1,0
7.93,2,3,2,1,4,1,1,2
7.935,2,0,2,0,5,0,2,2
7.94,0,1,1,3,4,1,2,2
7.945,0,2,1,1,2,2,1,1
7.95,2,1,2,1,2,2,1,2
7.955,1,1,1,0,0,1,3,0
7.96,1,1,1,1,1,0,1,0
7.965,1,3,2,0,3,2,1,3
7.97,1,4,1,1,2,2,1,1
7.975,0,4,2,2,3,3,2,1
7.98,2,0,0,1,0,0,2,1
7.985,1,1,0,3,1,0,0,4
7.99,0,1,1,0,1,1,1,1
7.995,2,1,1,2,1,0,1,1
8,2,1,0,1,1,0,0,1
8.005,1,2,0,1,5,0,2,0
8.01,1,2,0,0,2,0,2,3
8.015,0,1,2,1,0,2,0,1
8.02,1,2,2,1,4,1,2,2
8.025,0,0,1,1,1,2,1,0
8.03,1,2,3,2,3,2,0,1
8.035,0,2,1,3,2,1,1,4
8.04,0,2,0,1,1,2,2,2
8.045,1,1,1,1,2,0,1,1
8.05,0,1,2,1,1,1,2,1
8.055,0,0,3,4,1,1,2,1
8.06,2,2,2,1,1,2,0,0
8.065,2,1,2,2,2,0,0,1
8.07,2,2,1,1,2,0,1,2
8.075,1,2,2,2,1,3,0,3
8.08,1,1,0,1,2,3,1,1
8.085,0,1,0,2,3,1,1,1
8.09,1,2,1,0,1,2,0,1
8.095,3,3,1,1,1,0,1,0
8.1,1,0,1,2,3,0,0,0
8.105,1,2,1,0,1,1,2,1
8.11,0,0,1,1,4,0,0,1
8.115,3,0,1,1,3,0,2,3
8.12,3,1,1,2,1,1,2,0
8.125,1,0,2,1,2,1,1,1
8.13,0,0,1,2,2,0,1,1
8.135,1,2,3,1,2,0,1,0
8.14,1,2,0,0,3,1,1,0
8.145,1,1,0,2,2,1,2,4
8.15,1,1,2,0,2,2,2,1
8.155,2,2,0,1,1,1,2,0
8.16,1,0,1,4,1,1,0,0
8.165,2,0,4,1,0,1,1,2
8.17,1,1,2,2,2,1,2,1
8.175,1,1,1,2,1,2,1,2
8.18,2,0,3,0,1,0,2,3
8.185,1,2,1,3,1,0,2,1
8.19,0,2,1,1,4,2,0,3
8.195,1,0,1,1,4,1,2,0
8.2,1,2,1,1,4,1,0,3
8.205,1,1,1,1,2,2,1,0
8.21,0,2,3,1,2,1,1,2
8.215,1,4,0,1,7,3,1,1
8.22,1,1,1,0,6,2,1,0
8.225,1,2,1,2,1,0,2,2
8.23,0,2,1,1,2,2,1,2
8.235,1,3,1,0,7,1,2,1
8.24,1,2,1,2,0,1,0,2
8.245,1,2,2,4,2,4,1,5
8.25,1,2,3,3,0,0,1,1
8.255,1,2,2,0,4,3,4,1
8.26,2,1,2,1,1,1,0,0
8.265,0,0,4,1,3,2,1,2
8.27,3,2,1,2,0,2,1,0
8.275,1,3,1,0,4,2,1,1
8.28,0,2,1,1,1,1,1,2
8.285,4,2,2,2,2,2,1,2
8.29,0,1,2,1,1,0,1,1
8.295,1,1,3,1,5,0,1,0
8.3,2,1,5,3,1,2,0,1
8.305,3,1,3,2,0,1,3,4
8.31,0,2,1,1,2,1,2,1
8.315,0,2,0,1,1,0,2,1
8.32,0,1,0,1,2,0,0,0
8.325,0,1,0,0,0,2,1,1
8.33,2,0,0,0,2,1,1,3
8.335,1,0,2,0,1,0,0,2
8.34,0,1,1,0,1,1,2,1
8.345,1,3,1,2,1,2,0,2
8.35,2,1,0,3,2,0,2,2
8.355,1,3,0,2,3,0,0,1
8.36,2,2,1,1,2,1,2,1
8.365,0,0,3,2,3,1,0,1
8.37,1,2,2,1,3,0,0,1
8.375,0,2,2,0,4,2,3,0
8.38,0,1,1,1,5,2,3,3
8.385,3,3,0,1,2,0,2,1
8.39,2,1,0,2,3,2,1,1
8.395,2,4,1,3,1,1,1,1
8.4,2,1,0,0,2,1,1,1
8.405,2,0,0,1,1,0,0,0
8.41,1,1,1,2,4,1,2,1
8.415,0,3,1,1,1,3,1,2
8.42,2,1,3,1,1,2,0,0
8.425,1,0,1,0,2,0,2,0
8.43,1,1,1,1,0,0,2,1
8.435,1,0,0,2,2,2,1,4
8.44,1,2,3,2,0,0,2,4
8.445,1,0,3,2,1,1,1,2
8.45,2,1,1,1,0,1,1,1
8.455,2,0,0,2,1,2,1,1
8.46,1,0,1,1,1,3,1,2
8.465,2,2,0,1,2,2,0,1
8.47,3,3,3,0,2,2,0,0
8.475,3,1,1,2,2,1,0,1
8.48,2,2,2,1,1,1,2,1
8.485,0,0,1,3,1,0,2,2
8.49,0,2,0,1,2,2,1,1
8.495,0,1,5,2,1,1,1,1
8.5,2,2,0,2,0,1,2,1
8.505,1,0,1,1,3,1,0,1
8.51,1,1,1,1,0,1,2,2
8.515,0,1,1,1,1,1,1,0
8.52,1,2,2,1,1,0,1,1
8.525,5,1,3,3,1,1,1,1
8.53,0,2,0,0,1,3,0,1
8.535,0,0,1,0,3,0,2,0
8.54,1,1,0,1,1,1,0,1
8.545,0,1,0,4,0,1,1,2
8.55,0,2,2,2,2,0,1,1
8.555,2,1,2,1,3,2,2,0
8.56,1,0,1,1,2,0,3,1
8.565,2,2,3,1,0,1,1,1
8.57,2,1,1,1,0,2,2,1
8.575,1,2,0,2,3,1,1,1
8.58,1,2,1,1,5,2,3,1
8.585,1,2,5,2,0,3,2,1
8.59,1,0,1,2,1,1,1,2
8.595,1,0,3,1,3,2,2,2
8.6,2,2,2,2,0,2,0,1
8.605,4,2,1,1,0,1,2,2
8.61,1,3,0,1,1,0,3,1
8.615,0,0,2,1,3,1,0,0
8.62,0,1,2,1,1,1,1,1
8.625,1,0,1,1,0,1,1,2
8.63,1,1,4,2,1,1,2,1
8.635,0,1,1,1,3,1,1,0
8.64,2,2,2,2,3,2,2,2
8.645,2,1,5,1,1,1,0,3
8.65,0,1,2,1,3,1,1,2
8.655,1,1,0,0,4,2,1,0
8.66,1,2,0,1,2,2,1,0
8.665,2,1,3,2,1,0,3,1
8.67,2,0,1,1,1,1,2,1
8.675,1,2,1,1,2,1,1,0
8.68,1,2,2,1,0,0,1,0
8.685,2,1,1,1,0,1,1,2
8.69,0,0,3,3,2,1,2,2
8.695,1,2,1,0,3,1,1,1
8.7,2,2,1,1,3,1,0,0
8.705,2,1,1,2,1,0,2,1
8.71,2,1,1,0,0,3,2,2
8.715,1,2,1,0,4,1,2,1
8.72,1,0,1,0,1,0,0,1
8.725,1,2,4,2,4,2,2,3
8.73,1,2,1,1,2,2,1,1
8.735,1,2,1,2,3,1,3,2
8.74,1,1,2,3,1,1,0,2
8.745,2,1,0,1,2,1,1,1
8.75,1,1,1,1,1,0,1,1
8.755,1,1,2,2,4,3,1,2
8.76,2,4,1,1,1,0,1,1
8.765,1,1,2,2,1,2,2,1
8.77,0,1,1,1,1,0,2,1
8.775,2,1,2,1,4,0,2,1
8.78,2,0,1,2,3,1,1,1
8.785,1,1,1,2,1,0,0,1
8.79,3,4,2,1,3,1,1,3
8.795,0,2,0,1,1,1,0,2
8.8,1,1,1,1,2,0,1,1
8.805,0,1,2,2,2,1,0,2
8.81,1,0,0,2,0,0,0,2
8.815,0,3,2,0,3,3,1,1
8.82,0,1,0,1,1,1,3,0
8.825,2,0,2,1,3,0,1,1
8.83,2,1,0,0,1,1,0,1
8.835,2,1,2,1,4,2,1,0
8.84,2,3,2,0,1,3,1,1
8.845,4,0,1,4,0,0,1,2
8.85,0,2,3,2,0,1,2,0
8.855,1,2,1,1,0,2,2,3
8.86,1,1,2,1,0,2,0,1
8.865,0,2,3,2,2,0,0,4
8.87,2,0,0,0,1,1,0,1
8.875,1,0,5,2,2,2,1,0
8.88,0,1,0,1,2,1,1,3
8.885,1,1,2,2,0,2,1,2
8.89,2,1,2,1,0,1,1,0
8.895,1,2,1,2,2,0,3,0
8.9,3,0,2,1,0,1,0,0
8.905,2,1,0,3,1,1,0,3
8.91,2,0,1,2,3,1,2,0
8.915,2,1,2,0,2,0,1,1
8.92,1,1,2,1,2,0,2,1
8.925,0,0,1,2,2,1,0,1
8.93,2,1,4,1,0,1,2,1
8.935,0,1,3,0,2,1,1,0
8.94,0,1,0,3,1,1,1,3
8.945,0,1,2,1,1,1,1,1
8.95,1,3,1,4,4,0,2,1
8.955,1,2,1,3,0,1,1,0
8.96,1,2,0,1,3,1,1,3
8.965,3,2,0,1,3,1,1,1
8.97,1,1,1,0,4,1,1,3
8.975,0,4,2,1,3,0,2,1
8.98,0,0,3,1,2,1,0,2
8.985,1,1,0,1,0,0,1,1
8.99,1,2,1,1,1,1,0,2
8.995,1,3,1,2,4,0,3,1
9,2,3,1,3,5,2,2,2
9.005,2,2,2,2,0,1,2,1
9.01,1,0,2,3,3,1,2,1
9.015,1,1,2,2,5,1,2,2
9.02,0,1,3,0,1,0,0,3
9.025,0,0,0,2,0,2,2,1
9.03,1,2,1,1,1,1,0,1
9.035,1,2,2,1,2,1,1,0
9.04,2,3,2,0,1,2,1,4
9.045,0,0,0,2,2,2,1,1
9.05,2,1,1,0,1,2,1,1
9.055,1,2,3,1,2,3,2,1
9.06,1,2,0,2,2,0,2,2
9.065,1,2,0,1,1,1,3,1
9.07,0,2,0,3,0,0,0,1
9.075,2,2,1,1,2,2,2,2
9.08,1,1,1,0,1,0,0,1
9.085,3,1,1,1,4,1,1,0
9.09,0,4,0,0,2,1,1,2
9.095,0,1,1,1,3,1,0,2
9.1,1,3,2,2,2,1,2,1
9.105,1,1,1,2,3,0,1,0
9.11,0,1,2,2,3,1,3,0
9.115,1,2,2,1,1,1,1,2
9.12,2,1,0,0,4,2,3,0
9.125,2,3,2,3,4,1,0,2
9.13,0,0,1,1,2,1,1,1
9.135,1,2,1,0,2,1,0,1
9.14,0,1,0,0,2,3,3,0
9.145,1,2,1,1,5,3,4,1
9.15,2,0,2,3,7,4,5,1
9.155,0,0,0,1,3,4,4,3
9.16,1,1,1,1,7,7,4,2
9.165,0,3,1,0,4,0,1,2
9.17,2,2,1,0,3,1,1,1
9.175,2,1,4,3,2,2,3,2
9.18,3,2,1,2,2,4,0,0
9.185,0,0,3,3,4,3,3,2
9.19,3,2,2,3,2,3,3,4
9.195,2,1,0,2,9,6,5,2
9.2,0,3,2,2,2,2,1,1
9.205,1,1,0,3,4,2,1,1
9.21,0,1,2,2,10,4,6,1
9.215,1,1,2,3,6,2,1,1
9.22,1,2,1,3,8,7,4,1
9.225,0,2,2,5,2,0,0,2
9.23,2,2,0,11,1,3,2,0
9.235,2,1,2,5,6,1,3,3
9.24,1,1,2,12,5,4,4,3
9.245,0,1,2,9,1,5,2,2
9.25,1,1,0,1,2,1,2,0
9.255,2,2,1,24,5,8,3,0
9.26,2,1,1,30,0,4,5,2
9.265,2,0,1,32,1,1,6,0
9.27,2,1,2,32,7,4,16,4
9.275,0,2,6,21,2,4,0,3
9.28,3,2,2,11,6,10,24,2
9.285,0,1,1,1,9,8,14,0
9.29,1,1,1,24,1,5,1,1
9.295,3,3,1,24,7,1,2,1
9.3,2,5,3,21,10,3,0,1
9.305,1,0,1,16,10,8,5,1
9.31,1,3,2,6,5,5,8,1
9.315,0,3,1,14,2,1,3,1
9.32,1,0,4,0,0,3,2,2
9.325,2,4,1,6,2,0,2,1
9.33,3,1,1,9,1,2,3,0
9.335,2,1,0,4,3,1,4,1
9.34,2,1,2,6,0,0,7,3
9.345,2,1,0,4,1,1,0,0
9.35,1,1,1,0,0,1,5,3
9.355,0,0,2,5,1,2,0,2
9.36,1,1,2,0,1,1,1,3
9.365,2,1,1,3,0,1,1,1
9.37,1,0,0,2,1,2,4,1
9.375,2,2,1,3,0,2,2,3
9.38,1,1,3,1,3,1,3,2
9.385,2,2,2,2,2,1,0,1
9.39,1,1,1,1,0,3,3,3
9.395,1,0,2,3,4,2,2,1
9.4,1,2,3,1,2,1,1,3
9.405,0,2,1,2,10,8,6,0
9.41,3,4,4,2,3,3,5,1
9.415,1,0,1,2,11,9,9,2
9.42,1,1,0,2,1,3,0,0
9.425,2,0,3,5,9,7,1,2
9.43,0,2,2,2,4,1,2,1
9.435,2,1,2,7,9,7,7,4
9.44,3,1,2,1,4,3,3,2
9.445,2,1,1,8,0,0,0,1
9.45,1,1,2,0,7,1,2,1
9.455,2,2,0,4,1,2,4,1
9.46,1,1,0,4,0,1,0,1
9.465,2,1,2,3,1,0,0,0
9.47,1,1,2,3,3,1,0,0
9.475,1,2,2,1,1,1,1,1
9.48,1,4,1,4,4,3,3,2
9.485,1,3,1,2,1,2,2,0
9.49,0,0,0,3,1,1,1,0
9.495,1,1,3,0,5,1,2,2
9.5,2,2,1,3,7,6,7,1
9.505,2,1,1,1,1,1,2,0
9.51,2,1,1,2,1,1,1,1
9.515,0,1,0,2,2,2,1,1
9.52,0,1,1,3,1,2,1,1
9.525,0,1,0,4,9,3,1,1
9.53,1,0,3,5,8,8,3,0
9.535,2,0,3,0,0,2,1,3
9.54,4,1,1,2,4,2,1,0
9.545,2,2,0,1,0,1,1,2
9.55,1,1,2,1,6,4,2,0
9.555,1,3,2,2,0,0,2,2
9.56,0,1,4,0,5,2,3,1
9.565,1,2,1,3,1,1,2,1
9.57,2,1,2,0,3,3,2,2
9.575,2,1,2,2,2,1,2,1
9.58,0,2,2,2,1,2,2,1
9.585,1,3,1,1,0,1,1,1
9.59,0,2,2,1,4,2,3,0
9.595,1,0,1,3,2,7,2,3
9.6,1,1,3,3,5,0,1,2
9.605,1,3,0,0,7,3,1,1
9.61,1,2,0,2,2,4,2,1
9.615,1,1,1,1,1,1,0,2
9.62,3,1,2,1,1,1,0,3
9.625,1,2,1,3,1,2,3,0
9.63,1,1,0,1,5,0,2,1
9.635,0,1,1,1,2,3,3,1
9.64,2,0,5,3,1,2,0,1
9.645,2,2,3,0,4,3,2,1
9.65,1,1,1,2,2,3,0,0
9.655,5,0,1,0,3,0,0,0
9.66,1,2,1,1,0,4,5,4
9.665,3,1,0,2,1,2,1,1
9.67,0,3,1,3,0,1,0,1
9.675,1,4,2,5,2,1,1,0
9.68,1,1,3,2,0,3,3,1
9.685,1,2,3,3,6,4,3,0
9.69,0,0,1,2,3,3,1,1
9.695,1,1,0,0,1,1,0,0
9.7,1,0,3,3,4,2,1,1
9.705,1,1,0,2,2,5,1,1
9.71,0,1,3,0,2,2,1,0
9.715,2,2,2,1,1,2,3,2
9.72,1,1,1,4,1,3,1,2
9.725,0,1,1,0,5,1,3,1
9.73,1,2,1,2,7,4,3,2
9.735,1,1,1,0,2,2,3,1
9.74,0,0,0,2,0,1,1,1
9.745,2,0,2,1,3,1,1,0
9.75,1,4,1,0,3,0,3,0
9.755,1,1,2,2,3,3,3,2
9.76,2,1,2,0,3,3,1,1
9.765,1,1,2,1,4,3,2,1
9.77,0,1,1,1,6,0,1,1
9.775,0,0,2,2,1,2,0,3
9.78,1,1,0,4,2,1,0,1
9.785,1,2,2,2,2,1,1,2
9.79,1,2,2,0,7,2,1,0
9.795,2,1,1,2,2,3,1,1
9.8,1,1,3,4,1,1,0,2
9.805,1,1,0,1,1,1,1,2
9.81,0,4,0,1,7,0,2,1
9.815,1,0,2,0,2,3,0,1
9.82,1,0,6,3,2,1,1,0
9.825,1,3,1,0,0,1,2,1
9.83,1,3,1,1,4,0,1,1
9.835,0,0,1,1,0,2,3,0
9.84,3,1,1,5,1,2,1,3
9.845,1,1,0,4,3,2,1,0
9.85,0,3,1,3,4,2,2,0
9.855,2,1,6,1,3,1,1,2
9.86,3,1,1,3,3,4,2,3
9.865,0,0,1,4,0,0,0,3
9.87,1,2,3,4,3,1,1,1
9.875,1,3,2,1,1,1,2,2
9.88,3,1,4,1,2,2,0,1
9.885,1,1,2,1,3,1,2,0
9.89,1,2,2,0,11,3,3,1
9.895,2,0,2,2,3,0,2,2
9.9,1,0,1,4,1,0,2,2
9.905,2,2,2,0,1,2,2,2
9.91,1,2,1,3,5,1,0,0
9.915,0,3,0,1,1,0,2,1
9.92,0,1,2,1,2,1,0,3
9.925,0,2,1,2,1,2,1,2
9.93,0,1,3,1,5,3,3,0
9.935,1,0,14,5,5,4,3,2
9.94,4,3,7,2,0,2,0,1
9.945,2,0,15,1,1,4,4,4
9.95,2,3,12,3,5,4,5,2
9.955,2,3,10,0,4,2,1,1
9.96,1,2,3,2,1,2,2,2
9.965,1,3,6,3,10,2,2,0
9.97,1,2,0,2,10,4,3,1
9.975,1,3,1,2,1,0,2,0
9.98,2,0,5,4,0,3,1,6
9.985,2,1,4,0,0,1,0,1
9.99,1,2,1,4,1,2,3,1
9.995,0,1,2,1,1,1,1,2
10,3,1,1,2,4,0,1,3
10.005,0,1,0,4,3,3,2,1
10.01,1,1,1,1,13,6,6,1
10.015,2,1,2,2,8,2,3,2
10.02,2,1,3,0,15,3,5,2
10.025,1,1,1,4,6,6,4,0
10.03,0,4,2,0,11,4,3,1
10.035,0,1,1,1,7,4,2,2
10.04,2,1,3,7,1,4,3,3
10.045,0,1,0,0,3,4,1,3
10.05,1,5,1,3,5,3,0,2
10.055,0,1,1,2,1,1,2,2
10.06,2,1,4,7,1,1,0,3
10.065,3,1,2,2,9,5,5,2
10.07,2,0,2,2,21,14,13,5
10.075,5,1,1,1,11,2,10,1
10.08,2,1,1,4,28,18,15,8
10.085,2,4,2,1,2,2,2,2
10.09,1,7,1,1,9,1,3,1
10.095,0,1,0,5,9,6,8,5
10.1,3,3,3,5,5,7,6,4
10.105,2,1,0,1,3,1,0,2
10.11,1,4,1,2,4,3,1,0
10.115,2,0,0,1,2,1,1,1
10.12,1,1,1,4,1,1,1,1
10.125,0,3,3,1,3,2,0,3
10.13,0,3,1,2,2,0,1,1
10.135,0,0,2,0,5,4,0,0
10.14,1,0,4,2,1,2,3,2
10.145,3,1,1,4,4,3,3,0
10.15,1,2,0,1,1,3,4,3
10.155,0,3,3,1,0,1,1,2
10.16,2,1,1,3,4,4,4,4
10.165,2,4,1,2,6,3,2,1
10.17,3,2,2,2,0,3,2,0
10.175,1,0,4,1,1,4,2,0
10.18,1,1,2,3,3,2,3,4
10.185,1,2,0,0,0,1,0,0
10.19,0,3,1,0,4,2,1,3
10.195,1,2,1,0,1,1,1,1
10.2,2,2,2,4,0,3,3,4
10.205,0,0,2,0,2,1,0,1
10.21,1,2,1,1,4,0,3,1
10.215,1,1,1,3,3,1,3,1
10.22,1,1,2,3,1,3,1,0
10.225,1,2,0,1,2,2,1,2
10.23,1,1,1,4,2,0,1,1
10.235,0,1,1,0,2,2,0,3
10.24,5,1,3,2,4,4,5,3
10.245,1,1,2,2,1,0,1,1
10.25,1,2,1,0,6,3,4,1
10.255,1,2,4,2,4,6,0,2
10.26,0,2,3,3,1,3,1,2
10.265,0,2,1,0,6,7,4,2
10.27,2,0,0,4,8,6,5,0
10.275,2,3,3,4,1,1,1,3
10.28,0,1,1,4,4,0,2,0
10.285,2,4,3,3,4,3,1,4
10.29,1,1,1,1,1,4,1,1
10.295,1,1,2,1,0,3,1,0
10.3,1,2,1,2,4,4,1,0
10.305,1,0,1,0,3,5,1,2
10.31,0,2,3,0,5,1,4,3
10.315,2,3,3,1,2,6,5,0
10.32,0,0,0,4,3,1,1,4
10.325,0,2,1,1,3,4,1,1
10.33,1,1,1,0,4,1,2,2
10.335,2,2,6,4,3,8,5,2
10.34,2,3,0,3,5,3,3,3
10.345,1,2,1,3,4,2,1,1
10.35,2,6,6,3,4,3,0,1
10.355,0,0,1,3,8,5,2,1
10.36,2,1,0,2,8,5,3,2
10.365,1,2,4,2,6,8,6,2
10.37,1,2,2,2,12,2,3,4
10.375,3,1,1,0,1,4,2,1
10.38,0,2,3,1,5,3,1,2
10.385,0,1,2,2,3,3,0,0
10.39,1,0,2,2,3,4,3,2
10.395,3,3,0,2,5,0,1,5
10.4,3,2,5,1,7,7,6,5
10.405,2,2,2,0,2,1,5,0
10.41,1,1,2,5,10,5,4,1
10.415,3,4,2,1,1,1,1,0
10.42,1,2,1,2,2,3,3,3
10.425,3,2,2,4,10,7,4,1
10.43,2,0,0,1,1,0,1,2
10.435,0,1,1,2,1,3,1,1
10.44,1,0,1,3,2,2,0,2
10.445,1,3,2,0,4,1,2,0
10.45,0,0,2,1,6,3,3,2
10.455,2,2,0,3,4,3,6,3
10.46,1,3,0,1,4,1,0,1
10.465,1,2,4,0,5,2,1,0
10.47,0,0,2,3,5,2,3,2
10.475,0,1,2,0,7,1,4,1
10.48,3,4,2,4,4,3,2,1
10.485,2,2,1,0,2,1,2,2
10.49,1,2,2,0,1,4,1,2
10.495,1,0,1,4,5,3,3,0
10.5,0,2,3,1,2,2,1,0
10.505,3,3,2,1,4,2,2,0
10.51,1,1,4,3,4,1,1,4
10.515,0,1,1,1,2,1,3,1
10.52,1,2,1,3,12,7,7,3
10.525,1,0,3,0,4,6,7,1
10.53,1,0,3,3,16,7,8,6
10.535,0,2,3,1,2,0,0,1
10.54,1,6,1,1,2,0,3,0
10.545,0,3,2,4,13,7,8,3
10.55,4,1,3,3,5,4,2,3
10.555,2,0,1,3,2,1,1,2
10.56,3,2,3,0,0,1,1,1
10.565,0,3,3,1,1,4,3,1
10.57,0,1,1,1,2,1,0,3
10.575,2,1,2,1,1,3,2,0
10.58,0,2,2,1,3,1,0,1
10.585,0,1,1,1,2,1,0,1
10.59,2,1,5,3,0,3,3,3
10.595,1,1,4,2,3,1,1,1
10.6,2,3,1,0,5,1,1,2
10.605,1,1,0,2,5,4,2,2
10.61,2,3,1,3,4,1,1,1
10.615,2,0,1,0,2,0,2,2
10.62,0,1,4,1,0,3,2,1
10.625,2,2,1,2,5,2,4,3
10.63,3,1,8,6,12,9,10,5
10.635,5,2,2,1,2,1,4,2
10.64,3,3,2,6,7,0,1,4
10.645,0,1,1,0,3,2,2,2
10.65,1,0,7,5,0,1,3,4
10.655,0,2,1,5,7,2,6,2
10.66,1,0,3,0,15,9,5,1
10.665,0,5,1,3,18,8,9,3
10.67,1,1,2,7,3,2,3,4
10.675,4,3,0,0,3,4,2,1
10.68,1,3,8,0,14,0,3,0
10.685,0,7,9,4,9,8,4,1
10.69,3,6,5,1,2,1,2,2
10.695,0,4,61,2,7,1,0,1
10.7,1,2,95,4,2,1,1,1
10.705,2,5,53,2,4,2,2,2
10.71,3,2,74,6,0,2,0,3
10.715,2,0,78,3,9,1,4,3
10.72,2,2,46,0,11,10,3,2
10.725,0,1,26,3,8,0,5,2
10.73,1,2,17,5,11,4,1,4
10.735,1,4,4,1,6,2,2,1
10.74,0,2,5,2,6,5,2,1
10.745,0,1,14,3,9,7,3,2
10.75,3,3,12,3,0,6,1,4
10.755,2,4,18,2,7,5,4,4
10.76,1,7,5,4,6,6,3,1
10.765,0,2,4,2,7,0,6,4
10.77,3,2,21,3,0,4,2,2
10.775,1,0,7,2,6,7,8,3
10.78,2,3,20,3,6,1,1,0
10.785,0,1,4,2,3,1,0,3
10.79,1,0,16,4,3,0,3,1
10.795,1,1,0,2,2,1,2,1
10.8,0,2,14,0,6,5,4,2
10.805,4,1,7,1,1,4,3,3
10.81,2,3,11,2,6,1,1,1
10.815,0,2,7,1,1,3,2,2
10.82,1,7,9,3,9,1,6,2
10.825,2,6,10,1,4,1,4,5
10.83,1,0,3,3,5,3,1,1
10.835,0,1,2,0,1,4,0,2
10.84,1,4,2,4,3,1,0,0
10.845,1,4,8,9,10,5,5,1
10.85,1,3,0,6,8,5,0,4
10.855,1,3,5,1,2,1,4,1
10.86,1,3,4,3,0,4,1,1
10.865,1,6,4,1,2,2,3,2
10.87,2,3,6,1,3,2,2,1
10.875,1,0,1,3,0,4,3,3
10.88,0,2,2,1,3,2,0,2
10.885,0,3,3,3,4,2,3,0
10.89,3,0,1,4,2,2,1,3
10.895,1,0,6,2,2,0,1,0
10.9,0,5,2,1,2,2,0,1
10.905,1,0,9,2,2,2,0,1
10.91,1,1,11,6,11,8,7,4
10.915,4,4,2,0,2,3,0,1
10.92,0,1,16,1,2,5,4,3
10.925,0,3,1,1,8,3,0,0
10.93,2,4,3,4,4,3,3,2
10.935,3,1,0,1,2,3,2,1
10.94,2,2,4,3,11,5,5,4
10.945,2,1,1,1,3,1,1,1
10.95,2,4,2,1,10,4,3,2
10.955,0,8,14,4,9,3,8,3
10.96,1,2,3,3,7,5,2,2
10.965,1,1,1,1,8,0,5,3
10.97,0,4,0,2,2,1,1,2
10.975,0,2,3,1,1,1,1,2
10.98,2,1,3,2,6,1,3,1
10.985,1,5,6,3,2,4,1,2
10.99,2,2,3,4,1,1,1,0
10.995,2,5,2,5,0,1,1,0
11,1,0,0,2,6,0,5,1
11.005,4,1,2,1,1,1,1,3
11.01,0,1,1,0,3,3,2,1
11.015,0,0,2,3,1,5,1,1
11.02,1,5,4,0,2,3,1,0
11.025,1,3,13,1,11,4,5,0
11.03,2,0,3,1,6,6,4,5
11.035,2,2,15,4,4,5,5,2
11.04,0,4,12,0,1,5,2,4
11.045,0,1,9,4,2,5,3,1
11.05,1,5,4,3,4,0,3,4
11.055,3,7,4,0,5,5,7,3
11.06,3,1,3,0,0,4,4,2
11.065,2,4,2,0,2,3,1,0
11.07,1,3,1,3,6,4,2,1
11.075,1,3,0,2,3,0,0,2
11.08,2,0,1,3,2,3,1,2
11.085,0,4,0,4,2,1,1,1
11.09,1,2,5,3,2,2,2,0
11.095,2,0,2,3,10,3,5,2
11.1,4,4,1,5,3,5,3,3
11.105,4,2,2,2,1,4,3,1
11.11,0,3,6,1,2,1,6,2
11.115,0,3,0,1,2,2,3,3
11.12,1,1,3,5,4,8,4,3
11.125,1,2,3,2,2,5,4,0
11.13,1,6,0,9,3,3,3,1
11.135,1,4,2,4,1,3,2,2
11.14,1,2,2,3,1,4,0,2
11.145,3,2,2,1,5,1,0,2
11.15,0,2,3,3,8,4,5,3
11.155,2,2,2,12,5,5,0,1
11.16,2,3,2,15,2,9,2,1
11.165,2,2,1,6,6,0,1,1
11.17,0,2,1,6,10,11,4,1
11.175,1,0,2,2,5,0,0,1
11.18,2,3,1,4,7,6,2,2
11.185,1,2,5,2,2,3,3,3
11.19,0,0,1,10,15,17,3,1
11.195,2,1,1,6,5,7,0,1
11.2,1,3,2,14,8,15,5,1
11.205,3,9,2,4,17,4,3,0
11.21,0,1,6,3,1,4,3,3
11.215,4,10,6,3,13,8,2,0
11.22,0,3,1,24,8,4,2,1
11.225,0,0,7,18,9,6,5,2
11.23,4,4,3,7,16,8,2,0
11.235,0,0,3,7,5,2,1,0
11.24,1,1,0,10,11,3,3,1
11.245,1,2,3,5,1,5,3,0
11.25,1,6,5,15,0,6,1,0
11.255,1,1,2,11,3,2,0,2
11.26,1,1,3,2,2,2,3,1
11.265,1,3,3,1,3,3,2,0
11.27,3,6,3,7,15,12,5,3
11.275,1,2,2,1,2,1,2,3
11.28,0,3,5,13,5,5,1,1
11.285,3,10,35,10,3,3,1,1
11.29,4,4,36,46,14,11,6,4
11.295,1,7,18,36,4,2,1,0
11.3,2,5,7,3,0,1,1,2
11.305,2,8,7,32,5,6,3,5
11.31,3,9,3,34,9,6,5,3
11.315,7,22,42,59,17,9,6,3
11.32,0,4,23,17,6,3,1,1
11.325,0,3,17,9,1,0,1,1
11.33,1,1,10,27,0,2,1,2
11.335,1,3,25,6,0,3,0,0
11.34,5,14,48,18,11,7,7,0
11.345,3,6,12,9,6,2,0,2
11.35,2,3,2,9,3,1,5,1
11.355,1,5,61,37,1,4,18,0
11.36,0,4,11,19,4,2,9,1
11.365,2,10,69,48,6,4,6,0
11.37,8,23,101,20,15,10,1,0
11.375,4,14,4,30,12,8,37,1
11.38,11,25,55,26,13,9,28,2
11.385,37,11,9,46,6,9,46,3
11.39,4,1,37,82,4,0,4,1
11.395,42,15,9,36,4,7,38,2
11.4,27,18,48,14,11,9,35,1
11.405,20,9,24,3,3,3,13,0
11.41,9,2,15,11,7,1,28,1
11.415,19,3,2,12,5,5,34,4
11.42,5,2,7,31,6,1,35,1
11.425,4,3,48,52,5,7,9,2
11.43,5,10,44,15,5,8,5,1
11.435,1,1,6,32,3,1,12,1
11.44,0,10,27,43,17,12,8,5
11.445,6,6,3,5,5,8,6,0
11.45,3,2,15,33,7,3,8,1
11.455,5,1,4,24,2,12,9,3
11.46,6,5,84,30,7,2,3,3
11.465,9,4,86,14,11,2,13,3
11.47,3,3,31,39,5,8,10,3
11.475,1,10,22,9,1,2,16,0
11.48,4,2,22,50,4,1,6,5
11.485,5,12,82,57,10,5,9,0
11.49,0,7,30,87,7,6,7,1
11.495,2,8,62,62,3,6,10,2
11.5,7,1,108,11,10,6,11,6
11.505,6,6,127,4,6,3,2,1
11.51,0,9,27,2,4,2,9,4
11.515,4,4,60,0,1,5,0,5
11.52,2,2,93,46,2,1,3,0
11.525,1,11,76,16,11,4,4,1
11.53,3,3,88,41,1,0,6,2
11.535,1,10,25,20,2,4,2,1
11.54,7,4,85,8,2,6,21,0
11.545,3,8,54,11,6,5,17,2
11.55,2,14,28,21,4,3,3,9
11.555,3,2,21,26,1,7,15,4
11.56,9,4,43,23,2,3,28,3
11.565,0,5,61,52,3,8,0,1
11.57,11,10,73,30,18,8,18,7
11.575,15,8,8,79,10,6,12,9
11.58,6,3,6,12,9,8,66,0
11.585,12,8,1,2,15,11,71,3
11.59,23,16,20,53,11,6,6,4
11.595,1,6,35,12,8,3,4,1
11.6,5,7,25,17,4,6,10,1
11.605,55,3,10,30,4,1,37,2
11.61,111,3,18,71,8,1,17,1
11.615,36,2,23,29,2,1,17,5
11.62,68,4,8,40,3,2,40,1
11.625,115,13,24,22,11,10,13,1
11.63,128,11,20,8,9,3,4,5
11.635,104,6,30,32,4,1,10,1
11.64,117,3,3,33,5,0,28,3
11.645,128,8,7,10,7,4,13,2
11.65,27,8,4,3,6,5,6,5
11.655,43,0,14,14,2,2,9,1
11.66,121,1,14,24,2,1,13,5
11.665,111,19,5,2,13,9,10,5
11.67,63,2,10,13,4,1,8,2
11.675,38,5,6,40,4,1,4,1
11.68,21,14,5,6,13,3,20,1
11.685,29,5,0,37,1,3,38,0
11.69,10,1,16,6,4,3,33,5
11.695,14,0,17,5,3,2,60,10
11.7,8,7,4,14,7,6,19,3
11.705,10,6,4,36,2,4,5,3
11.71,15,11,6,15,4,5,34,2
11.715,2,1,7,66,6,0,34,10
11.72,6,1,10,1,1,1,11,8
11.725,3,2,5,34,1,1,2,0
11.73,3,4,2,28,3,1,14,1
11.735,4,3,5,10,5,6,30,1
11.74,4,5,0,2,2,4,6,2
11.745,7,4,2,49,4,1,8,1
11.75,3,4,4,14,0,5,4,2
11.755,6,5,7,11,5,2,5,1
11.76,2,1,3,24,0,0,3,2
11.765,5,3,5,9,0,1,8,4
11.77,3,5,2,57,5,1,17,3
11.775,3,4,5,3,4,2,15,2
11.78,0,2,3,10,0,2,8,1
11.785,6,1,2,37,4,1,5,6
11.79,8,5,3,13,4,3,3,0
11.795,1,0,12,7,6,0,17,2
11.8,2,5,8,0,7,4,22,1
11.805,0,0,3,2,4,1,11,4
11.81,5,2,6,30,1,3,18,10
11.815,2,4,5,18,1,2,34,2
11.82,1,2,1,11,1,1,4,3
11.825,1,1,4,12,1,1,6,1
11.83,1,4,1,20,2,2,19,2
11.835,0,3,0,8,6,3,21,2
11.84,1,4,0,25,1,1,10,2
11.845,5,1,3,4,5,3,0,1
11.85,2,1,1,28,0,1,2,4
11.855,5,1,6,1,2,2,4,0
11.86,3,7,2,3,8,2,1,2
11.865,2,0,5,11,2,3,18,1
11.87,12,1,5,16,3,1,30,6
11.875,2,1,1,10,6,4,13,2
11.88,2,2,2,1,4,1,1,1
11.885,0,6,4,23,7,0,6,3
11.89,4,0,2,2,3,2,2,3
11.895,10,5,12,5,2,4,7,8
11.9,8,6,5,28,0,0,2,2
11.905,1,6,5,28,7,1,7,2
11.91,3,3,11,7,6,0,18,2
11.915,3,1,1,10,1,1,5,1
11.92,9,0,12,13,2,1,15,6
11.925,7,3,1,8,4,1,16,5
11.93,8,4,1,4,1,2,2,2
11.935,3,2,1,16,1,0,2,5
11.94,6,2,14,1,3,2,0,0
11.945,11,3,4,15,1,1,13,13
11.95,4,5,18,4,5,2,5,21
11.955,13,6,3,9,3,2,2,4
11.96,15,4,9,7,0,0,1,7
11.965,12,6,9,24,2,3,11,7
11.97,3,2,6,15,5,4,6,3
11.975,18,7,31,22,5,2,5,4
11.98,15,38,24,42,12,5,12,3
11.985,21,30,15,15,2,0,4,3
11.99,33,19,21,4,3,0,6,11
11.995,5,8,24,28,7,5,1,3
12,30,27,41,39,5,2,0,4
12.005,12,1,26,66,2,3,7,5
12.01,12,17,42,11,4,1,1,10
12.015,20,23,30,13,2,4,3,4
12.02,34,4,12,34,4,5,1,4
12.025,3,53,13,1,10,6,6,3
12.03,13,41,38,117,1,0,3,3
12.035,27,0,107,113,24,4,3,8
12.04,6,68,119,128,40,5,7,7
12.045,14,76,21,49,44,14,9,0
12.05,18,6,42,121,6,4,3,1
12.055,39,67,114,127,32,6,1,15
12.06,22,81,128,127,48,8,3,14
12.065,11,15,98,94,31,4,0,13
12.07,14,30,41,38,26,2,2,5
12.075,22,46,31,64,12,0,3,8
12.08,1,1,45,52,0,4,4,1
12.085,5,19,25,73,0,3,1,1
12.09,9,9,33,54,5,1,0,1
12.095,1,18,2,95,1,1,0,0
12.1,5,5,49,102,2,0,1,1
12.105,2,18,18,122,12,3,3,5
12.11,3,20,46,115,6,1,3,0
12.115,1,23,4,100,13,0,1,4
12.12,1,6,8,73,5,6,6,1
12.125,3,18,59,42,7,3,2,1
12.13,3,48,60,90,16,0,3,6
12.135,10,26,48,127,16,3,0,3
12.14,13,33,10,127,20,6,1,3
12.145,10,28,1,91,15,1,2,2
12.15,3,14,7,61,11,4,1,0
12.155,14,13,7,44,10,5,2,1
12.16,15,4,10,26,3,2,1,3
12.165,0,2,15,25,1,1,3,2
12.17,2,9,15,20,0,2,1,2
12.175,2,5,1,3,2,1,0,4
12.18,5,9,6,20,1,1,1,1
12.185,4,2,8,38,0,1,0,2
12.19,2,7,7,9,6,2,2,3
12.195,3,20,6,10,2,1,0,2
12.2,4,11,8,12,3,1,4,2
12.205,2,10,4,2,2,0,2,0
12.21,4,14,4,1,1,0,3,3
12.215,0,10,4,13,2,1,1,2
12.22,0,5,12,4,9,3,1,2
12.225,4,5,8,13,0,1,2,2
12.23,3,1,7,11,2,1,0,0
12.235,1,2,0,2,1,1,2,4
12.24,3,5,2,26,5,0,0,0
12.245,5,6,1,24,3,2,2,2
12.25,10,1,8,32,6,0,2,1
12.255,3,0,4,4,2,1,0,1
12.26,1,1,0,4,1,1,0,5
12.265,9,1,6,9,0,2,0,5
12.27,3,7,1,11,1,1,1,1
12.275,0,5,4,7,1,3,1,1
12.28,14,2,6,11,1,1,2,1
12.285,9,9,1,2,3,2,1,2
12.29,4,3,3,13,0,1,1,5
12.295,3,2,5,9,3,1,2,2
12.3,3,2,4,5,2,0,0,3
12.305,5,6,1,6,6,2,2,2
12.31,1,4,2,7,1,2,3,4
12.315,1,10,0,12,1,1,0,4
12.32,1,1,1,1,2,0,3,0
12.325,7,1,3,13,4,2,2,2
12.33,2,6,0,12,3,2,2,2
12.335,7,3,5,11,1,1,0,4
12.34,2,2,3,3,2,1,1,1
12.345,0,7,2,4,2,0,2,1
12.35,3,1,7,3,3,0,1,0
12.355,4,7,3,4,3,2,1,2
12.36,1,4,0,3,3,2,0,3
12.365,3,4,1,7,1,1,1,2
12.37,3,3,3,21,0,0,1,1
12.375,3,2,0,28,0,2,0,3
12.38,2,0,2,4,0,0,1,3
12.385,6,3,5,4,4,3,1,3
12.39,0,3,4,0,1,0,1,0
12.395,1,7,8,2,0,1,0,0
12.4,1,1,3,3,4,2,1,0
12.405,1,2,1,4,3,1,0,0
12.41,4,0,4,6,1,3,2,4
12.415,2,4,0,30,5,1,0,2
12.42,5,9,2,56,13,3,3,2
12.425,2,1,5,9,0,1,0,1
12.43,5,1,1,1,2,0,2,2
12.435,1,4,4,13,1,2,1,0
12.44,1,3,0,15,2,0,1,4
12.445,2,11,0,1,2,2,2,3
12.45,0,9,2,12,3,1,2,2
12.455,2,5,1,6,1,1,1,1
12.46,1,0,1,9,1,1,1,3
12.465,0,10,4,11,2,3,7,1
12.47,2,13,1,10,3,2,8,0
12.475,2,1,1,7,2,2,2,1
12.48,3,3,2,4,1,1,2,0
12.485,11,6,0,10,1,1,4,1
12.49,1,1,1,6,1,0,4,2
12.495,0,9,6,9,2,1,1,1
12.5,2,3,1,13,2,5,9,2
12.505,2,2,2,20,3,0,0,1
12.51,3,0,0,1,0,0,0,1
12.515,0,6,5,16,1,1,4,3
12.52,6,6,2,25,5,2,43,1
12.525,0,14,1,31,14,5,28,4
12.53,3,3,1,2,0,2,23,0
12.535,0,9,12,17,1,2,23,2
12.54,1,3,2,3,2,2,4,2
12.545,4,4,4,15,5,1,17,5
12.55,2,7,3,8,6,1,6,0
12.555,2,8,6,22,2,0,9,2
12.56,6,3,14,44,6,3,20,2
12.565,2,20,0,25,3,0,3,4
12.57,2,2,12,17,3,3,26,4
12.575,1,10,8,5,5,5,23,4
12.58,0,9,8,1,5,1,7,5
12.585,2,16,20,6,9,4,36,3
12.59,1,3,6,5,3,1,3,0
12.595,2,11,0,8,3,1,5,0
12.6,2,8,1,26,2,1,15,3
12.605,1,12,7,32,4,2,0,5
12.61,2,0,7,4,2,2,9,4
12.615,2,21,12,5,3,1,4,3
12.62,1,5,10,1,0,0,1,1
12.625,1,8,6,4,1,4,31,2
12.63,0,2,18,18,4,3,12,4
12.635,0,3,5,48,7,1,18,0
12.64,0,0,1,2,2,5,23,0
12.645,1,9,3,5,8,1,32,2
12.65,3,10,5,6,5,1,3,1
12.655,3,1,4,7,1,2,10,2
12.66,1,16,2,9,7,4,43,2
12.665,1,6,2,0,6,7,19,0
12.67,0,12,1,14,5,1,9,1
12.675,2,16,4,1,4,1,15,2
12.68,1,2,11,20,2,3,17,1
12.685,1,9,9,11,1,0,0,2
12.69,0,11,7,19,2,1,4,3
12.695,2,24,0,32,17,5,10,0
12.7,2,1,3,11,3,2,16,1
12.705,4,3,5,11,0,5,2,3
12.71,1,1,2,29,4,1,10,1
12.715,0,3,15,2,4,1,2,1
12.72,0,4,9,4,1,2,12,3
12.725,2,1,4,13,4,1,1,1
12.73,1,0,1,13,1,1,14,1
12.735,1,7,3,38,1,2,14,0
12.74,0,5,3,0,5,1,9,1
12.745,1,14,10,15,8,4,18,1
12.75,2,10,9,21,12,6,5,2
12.755,2,6,2,8,3,1,5,2
12.76,3,13,21,10,4,3,0,0
12.765,1,12,12,14,5,1,7,0
12.77,2,6,7,32,3,2,1,1
12.775,1,10,6,9,1,1,6,2
12.78,1,7,6,34,3,3,1,2
12.785,4,11,1,20,4,1,1,1
12.79,0,9,1,44,3,4,2,1
12.795,1,4,3,31,2,0,1,2
12.8,2,3,2,3,2,3,0,3
12.805,0,3,1,2,3,2,3,4
12.81,3,4,3,6,1,2,3,1
12.815,0,10,4,21,7,3,1,1
12.82,4,9,5,25,3,4,4,5
12.825,2,4,5,25,6,2,0,1
12.83,2,2,4,20,0,1,3,1
12.835,1,16,0,37,10,3,4,2
12.84,1,1,4,13,1,1,2,2
12.845,2,1,4,6,1,3,2,0
12.85,0,8,3,2,5,2,4,2
12.855,2,5,4,23,1,3,2,2
12.86,1,1,0,10,2,0,0,1
12.865,1,6,2,6,0,0,1,0
12.87,1,0,2,10,2,1,0,2
12.875,1,5,6,34,4,4,4,0
12.88,1,13,1,9,7,1,1,0
12.885,1,10,5,4,2,2,0,2
12.89,0,5,1,1,4,1,2,1
12.895,2,7,0,2,2,0,1,5
12.9,1,4,4,1,4,0,2,3
12.905,1,2,0,6,0,1,0,1
12.91,0,3,2,27,3,1,1,2
12.915,2,10,6,28,4,1,2,1
12.92,2,0,2,2,1,2,0,0
12.925,0,5,1,12,1,4,0,0
12.93,2,16,2,23,6,1,11,2
12.935,0,6,1,7,4,2,10,2
12.94,2,2,4,11,3,1,0,1
12.945,1,5,5,14,4,1,2,1
12.95,1,1,2,7,2,1,10,3
12.955,3,0,3,2,0,1,2,2
12.96,0,6,6,11,7,1,2,1
12.965,0,0,2,2,2,4,6,2
12.97,1,3,6,11,5,2,4,2
12.975,1,0,0,1,2,0,2,0
12.98,0,2,2,48,3,1,5,1
12.985,1,5,1,3,4,0,4,3
12.99,0,7,4,7,1,0,0,0
12.995,2,6,0,14,4,0,9,2
13,0,4,3,11,0,1,5,1
13.005,1,3,0,2,1,1,3,0
13.01,1,5,4,13,6,1,4,3
13.015,0,1,3,12,0,1,7,3
13.02,0,3,1,16,1,1,0,1
13.025,2,2,7,15,0,0,5,3
13.03,4,7,1,9,4,4,3,0
13.035,0,9,1,6,3,3,0,1
13.04,0,2,2,13,0,1,2,2
13.045,2,2,1,8,2,2,11,3
13.05,3,1,2,2,4,1,2,2
13.055,0,5,1,11,2,1,0,4
13.06,1,8,4,12,1,2,0,0
13.065,1,5,2,9,0,1,6,1
13.07,2,3,2,6,2,1,8,4
13.075,1,9,5,14,8,2,15,1
13.08,5,17,4,24,6,1,12,1
13.085,0,12,3,12,5,3,28,1
13.09,0,3,5,41,1,2,6,1
13.095,1,17,6,37,9,5,0,0
13.1,1,9,0,1,2,2,13,0
13.105,1,13,1,18,1,4,29,6
13.11,3,5,6,35,2,2,13,4
13.115,0,4,0,6,4,1,33,3
13.12,1,18,9,10,6,6,37,5
13.125,2,13,8,7,6,4,15,2
13.13,2,17,3,16,8,3,39,4
13.135,3,5,7,1,10,4,32,8
13.14,2,9,7,6,7,5,42,3
13.145,4,7,3,19,2,3,24,9
13.15,1,7,1,7,5,4,5,3
13.155,1,2,2,18,3,2,8,1
13.16,0,2,3,7,5,0,6,1
13.165,4,5,2,29,10,3,13,4
13.17,3,5,1,7,7,2,7,1
13.175,2,1,8,20,2,2,12,2
13.18,0,1,5,14,1,2,3,2
13.185,2,2,5,20,1,2,3,3
13.19,2,4,4,8,5,5,1,2
13.195,1,9,7,18,5,2,5,0
13.2,2,5,1,27,2,5,29,2
13.205,0,8,8,8,2,2,15,3
13.21,1,8,23,22,0,5,7,3
13.215,1,2,1,3,1,1,19,2
13.22,2,3,2,24,3,2,23,2
13.225,6,6,4,48,3,2,4,5
13.23,0,2,4,21,4,1,2,2
13.235,1,1,2,8,7,2,0,3
13.24,2,10,4,23,7,6,5,4
13.245,1,9,0,13,8,3,2,0
13.25,2,1,4,4,2,3,2,2
13.255,5,20,4,19,8,7,21,3
13.26,1,14,1,32,6,3,9,1
13.265,0,6,2,28,2,1,5,1
13.27,0,2,7,24,4,2,3,0
13.275,1,0,1,11,4,0,16,2
13.28,1,2,5,1,2,0,5,2
13.285,0,2,1,11,1,2,8,2
13.29,0,4,1,5,3,0,15,2
13.295,1,1,1,2,1,1,6,1
13.3,1,3,5,5,3,2,8,1
13.305,1,0,0,19,1,0,1,0
13.31,1,2,8,4,2,3,5,1
13.315,1,4,1,7,2,2,3,2
13.32,2,6,3,13,0,1,3,1
13.325,1,1,3,16,3,2,1,2
13.33,0,2,4,1,2,1,3,2
13.335,0,0,1,1,1,2,2,1
13.34,0,3,3,0,5,1,0,1
13.345,1,1,2,3,1,1,1,1
13.35,3,1,2,2,2,4,3,2
13.355,2,2,1,1,1,1,4,0
13.36,1,5,4,4,2,2,2,2
13.365,1,5,4,5,2,1,0,1
13.37,1,7,1,15,7,3,3,3
13.375,0,2,1,6,3,1,5,1
13.38,1,4,1,6,0,2,2,0
13.385,2,1,2,4,1,0,2,0
13.39,0,1,1,2,3,0,5,2
13.395,0,7,2,0,3,2,3,0
13.4,2,4,2,2,3,1,2,1
13.405,3,2,4,3,2,1,3,4
13.41,3,3,1,3,1,1,2,2
13.415,1,4,1,3,1,0,3,3
13.42,1,6,2,8,0,1,0,1
13.425,0,5,4,9,2,0,2,2
13.43,2,3,0,2,2,4,2,2
13.435,1,5,1,1,2,2,2,0
13.44,0,8,2,5,5,2,2,2
13.445,2,3,1,1,1,3,1,1
13.45,3,5,1,15,0,1,1,1
13.455,0,4,0,8,4,1,1,1
13.46,1,6,0,3,3,1,2,0
13.465,2,5,2,3,3,1,0,0
13.47,1,4,5,9,2,0,1,2
13.475,3,4,2,2,2,3,3,3
13.48,3,5,3,4,3,0,15,2
13.485,0,6,1,4,0,2,19,4
13.49,1,7,4,3,1,1,2,0
13.495,1,2,2,3,3,0,5,0
13.5,1,7,4,5,4,3,2,0
13.505,2,6,1,8,1,1,8,5
13.51,0,2,1,19,1,2,2,0
13.515,0,2,2,25,2,3,11,2
13.52,1,2,4,24,3,1,4,0
13.525,0,14,6,20,6,3,73,5
13.53,2,8,1,13,8,10,86,7
13.535,1,1,0,0,3,5,8,0
13.54,0,16,6,12,9,7,45,4
13.545,0,7,6,26,8,4,15,4
13.55,6,12,1,51,16,12,31,6
13.555,0,3,2,37,7,2,22,3
13.56,2,5,10,19,9,1,4,0
13.565,0,4,5,12,5,2,4,1
13.57,0,10,2,41,7,5,29,1
13.575,1,3,0,13,10,5,33,2
13.58,0,3,7,15,10,5,38,4
13.585,3,19,11,16,8,4,20,1
13.59,0,17,2,7,16,6,21,1
13.595,1,8,3,14,12,10,13,4
13.6,1,4,10,28,0,2,5,0
13.605,2,4,0,12,7,2,9,2
13.61,1,4,5,23,2,5,27,4
13.615,4,1,8,47,2,2,0,0
13.62,3,4,10,29,10,8,9,3
13.625,3,16,1,40,5,11,2,3
13.63,1,7,4,2,2,4,1,3
13.635,1,1,0,32,6,2,5,2
13.64,4,3,8,17,3,2,8,3
13.645,3,0,6,36,5,6,35,4
13.65,2,3,21,56,8,5,37,2
13.655,1,1,9,4,5,2,6,1
13.66,0,17,11,17,17,12,9,3
13.665,2,5,3,20,5,4,0,2
13.67,4,2,1,5,0,5,0,5
13.675,1,1,0,31,2,1,1,0
13.68,2,7,7,21,6,4,2,5
13.685,1,7,8,21,3,0,10,2
13.69,0,1,2,24,1,1,0,1
13.695,0,0,5,19,3,1,11,1
13.7,4,1,13,38,1,2,10,0
13.705,1,3,10,35,6,4,16,2
13.71,0,1,11,21,3,1,13,4
13.715,0,8,10,14,3,3,5,1
13.72,1,2,2,2,0,2,13,3
13.725,1,5,7,2,1,1,5,1
13.73,2,5,2,4,3,3,10,2
13.735,0,5,7,0,4,1,0,2
13.74,2,4,5,1,4,1,11,0
13.745,2,1,2,7,1,1,0,0
13.75,1,1,7,5,2,0,4,1
13.755,1,4,2,3,1,3,4,0
13.76,0,5,4,5,2,1,1,1
13.765,1,0,3,7,0,1,1,3
13.77,1,0,0,11,2,2,1,0
13.775,1,2,3,0,2,0,2,1
13.78,1,12,3,8,10,5,6,1
13.785,2,3,1,1,1,4,3,2
13.79,0,7,0,7,6,3,2,1
13.795,0,4,5,8,3,1,2,1
13.8,2,15,3,2,6,0,3,3
13.805,1,1,6,7,3,4,6,2
13.81,4,7,3,38,3,2,5,2
13.815,2,10,2,5,0,3,1,0
13.82,2,10,4,6,4,2,3,2
13.825,1,2,4,3,0,0,2,0
13.83,4,11,1,9,3,1,2,4
13.835,1,2,7,8,1,0,0,2
13.84,2,17,13,26,5,5,3,0
13.845,1,6,4,35,7,3,3,0
13.85,1,17,2,26,5,1,0,3
13.855,1,1,5,8,6,3,4,1
13.86,1,13,14,14,8,3,3,1
13.865,3,3,4,47,3,1,1,1
13.87,1,8,8,18,13,3,7,2
13.875,1,11,0,15,2,2,4,1
13.88,1,11,7,7,5,4,2,2
13.885,1,7,6,10,5,3,2,0
13.89,1,15,4,6,1,1,4,3
13.895,3,4,10,46,9,2,15,2
13.9,0,13,15,97,6,1,10,2
13.905,0,3,4,56,4,5,6,1
13.91,3,5,2,21,2,3,5,3
13.915,1,1,9,8,1,0,4,1
13.92,2,12,3,22,17,7,6,2
13.925,0,4,5,4,2,0,12,3
13.93,1,8,5,39,8,4,9,2
13.935,2,12,1,86,18,4,1,1
13.94,4,18,5,38,7,8,1,2
13.945,1,6,0,4,16,4,2,0
13.95,3,10,7,14,1,10,7,2
13.955,2,2,4,31,2,3,15,3
13.96,1,14,4,6,2,4,6,3
13.965,3,5,1,10,5,3,2,0
13.97,2,20,21,7,6,0,59,0
13.975,2,7,1,5,3,0,57,2
13.98,1,17,6,19,6,3,29,1
13.985,2,4,15,46,4,0,19,0
13.99,2,1,4,32,1,5,22,6
13.995,1,8,4,46,6,4,15,2
14,3,0,13,60,4,3,20,0
14.005,2,12,4,65,15,2,23,3
14.01,0,8,3,3,4,4,11,0
14.015,1,6,13,14,2,1,3,0
14.02,0,2,5,3,2,9,17,2
14.025,2,1,13,20,8,1,9,1
14.03,3,10,6,24,1,2,10,2
14.035,4,5,2,17,5,1,4,1
14.04,1,1,4,20,3,1,9,1
14.045,2,6,2,28,7,2,2,2
14.05,1,17,1,46,13,7,2,0
14.055,0,3,8,35,6,2,2,2
14.06,0,3,3,16,1,2,6,0
14.065,2,3,7,30,7,2,2,0
14.07,1,5,1,16,2,2,21,5
14.075,1,2,1,3,7,7,13,3
14.08,2,9,2,1,7,1,27,2
14.085,0,3,6,27,7,1,22,3
14.09,4,12,1,7,4,0,1,2
14.095,1,5,2,5,0,2,16,1
14.1,2,2,1,1,6,2,30,4
14.105,1,6,4,14,2,1,6,1
14.11,2,6,16,2,6,7,12,3
14.115,0,3,1,34,1,2,6,0
14.12,0,3,3,11,8,4,5,1
14.125,0,5,3,20,3,2,1,2
14.13,2,6,3,13,4,0,12,3
14.135,2,2,2,8,1,4,5,1
14.14,1,2,5,12,6,1,10,2
14.145,1,3,2,13,7,2,6,2
14.15,1,1,6,9,2,5,3,1
14.155,2,5,4,18,1,0,7,0
14.16,2,8,4,11,4,3,3,0
14.165,2,1,2,7,2,0,8,2
14.17,4,8,2,19,13,4,9,1
14.175,0,2,0,3,4,3,1,0
14.18,1,9,3,49,15,9,3,2
14.185,1,5,1,4,2,0,1,1
14.19,0,2,1,20,6,1,2,2
14.195,1,0,0,0,2,2,2,4
14.2,1,3,5,22,2,0,4,1
14.205,1,4,3,15,2,0,4,3
14.21,0,3,0,61,5,5,8,2
14.215,3,3,2,11,4,2,2,0
14.22,2,1,4,25,1,2,0,0
14.225,0,6,3,14,6,4,1,2
14.23,1,3,4,31,6,1,1,2
14.235,0,3,8,25,13,5,6,2
14.24,3,3,3,7,1,2,2,0
14.245,2,3,0,8,0,1,0,0
14.25,2,0,1,14,2,3,1,3
14.255,0,2,3,22,2,4,2,0
14.26,1,7,2,35,9,1,0,0
14.265,0,6,0,50,4,3,2,1
14.27,2,1,0,19,1,1,0,1
14.275,0,3,2,8,2,2,2,1
14.28,1,2,1,5,4,1,2,0
14.285,1,1,1,9,4,1,2,2
14.29,0,1,6,22,3,0,2,2
14.295,0,4,0,5,3,0,1,1
14.3,2,2,3,28,0,2,4,1
14.305,0,1,1,1,1,0,0,2
14.31,1,1,0,10,1,2,2,1
14.315,3,2,1,3,4,2,1,3
14.32,3,0,4,29,1,1,1,1
14.325,1,6,6,18,7,3,8,3
14.33,3,8,0,42,0,2,5,3
14.335,2,0,2,3,6,1,4,1
14.34,1,7,3,5,3,1,2,0
14.345,0,5,0,2,3,1,1,1
14.35,2,6,4,14,2,1,6,4
14.355,1,6,2,2,2,2,9,3
14.36,1,5,1,5,3,0,3,0
14.365,1,2,3,9,2,1,0,1
14.37,1,2,0,8,1,2,5,2
14.375,2,1,0,2,0,2,5,3
14.38,0,0,4,7,2,1,0,2
14.385,2,9,1,13,0,2,0,2
14.39,0,7,1,35,5,2,8,2
14.395,2,1,1,2,3,0,1,0
14.4,2,0,2,15,3,0,4,2
14.405,0,1,1,8,1,2,3,0
14.41,1,6,2,12,0,1,3,1
14.415,0,4,2,0,3,2,3,0
14.42,1,1,1,16,2,4,3,0
14.425,2,3,3,7,4,4,1,1
14.43,1,5,0,12,1,1,2,1
14.435,1,2,5,8,3,1,1,2
14.44,2,7,2,17,1,1,5,1
14.445,3,0,2,0,1,0,0,3
14.45,0,5,1,4,2,3,2,3
14.455,0,4,3,25,1,3,1,2
14.46,1,0,1,3,1,1,1,2
14.465,1,0,2,2,2,1,2,3
14.47,1,6,0,0,1,0,2,0
14.475,0,1,3,6,2,0,2,2
14.48,0,6,2,11,0,3,0,2
14.485,1,2,1,12,2,0,4,1
14.49,2,5,2,13,1,1,1,0
14.495,1,4,3,13,0,1,10,2
14.5,3,3,4,2,4,3,0,3
