99.005,2,0,5,5,5,5,2,3
99.01,1,2,5,5,7,2,2,0
99.015,1,0,0,2,2,3,3,0
99.02,0,3,2,5,0,4,1,1
99.025,2,1,3,2,2,1,0,1
99.03,2,2,6,0,4,1,1,4
99.035,2,4,12,3,9,8,1,3
99.04,4,1,17,3,3,5,2,1
99.045,0,1,4,3,1,2,2,0
99.05,1,0,0,1,4,1,1,2
99.055,1,1,1,2,1,2,2,0
99.06,2,2,1,3,5,2,0,0
99.065,2,1,2,5,0,1,3,0
99.07,2,1,3,7,2,3,0,2
99.075,1,2,1,3,8,6,5,0
99.08,4,2,2,3,0,4,2,0
99.085,2,2,2,1,0,1,1,0
99.09,1,1,2,1,1,1,0,1
99.095,0,2,2,0,5,2,3,1
99.1,1,0,1,0,2,4,2,1
99.105,1,4,3,3,4,4,2,0
99.11,2,3,3,5,2,2,1,0
99.115,2,1,2,2,0,2,0,5
99.12,1,1,2,1,3,0,1,1
99.125,0,0,3,2,3,4,5,1
99.13,2,2,3,3,3,0,1,1
99.135,7,1,2,1,2,1,3,0
99.14,0,2,6,2,1,0,1,1
99.145,2,0,1,1,0,1,0,3
99.15,0,0,3,4,3,3,3,3
99.155,0,1,2,2,1,0,1,0
99.16,1,2,6,1,2,1,0,4
99.165,3,0,0,0,1,1,0,4
99.17,4,2,1,5,6,6,4,0
99.175,0,1,0,0,1,1,0,1
99.18,1,1,5,2,4,1,4,1
99.185,1,1,3,2,2,5,6,1
99.19,2,1,0,4,3,2,0,1
99.195,3,0,3,1,1,1,1,1
99.2,1,3,5,0,7,1,2,0
99.205,2,2,0,4,5,7,3,0
99.21,4,3,4,1,1,3,1,3
99.215,1,1,1,1,1,1,1,0
99.22,0,2,4,2,2,0,0,1
99.225,2,0,3,4,4,3,2,1
99.23,2,3,7,2,1,6,1,2
99.235,2,4,8,5,4,5,2,1
99.24,2,3,1,2,2,0,0,1
99.245,1,0,1,1,5,5,0,2
99.25,0,2,1,3,4,1,1,0
99.255,2,3,1,1,1,1,0,1
99.26,1,2,0,0,3,3,3,1
99.265,1,1,0,2,2,2,1,0
99.27,2,0,1,3,2,2,1,3
99.275,1,2,2,0,5,3,2,0
99.28,1,0,3,2,1,2,1,1
99.285,1,1,2,3,1,3,1,2
99.29,0,3,1,3,2,0,1,1
99.295,3,2,3,0,2,4,1,4
99.3,0,3,7,3,2,0,2,1
99.305,2,1,1,3,6,1,2,3
99.31,0,1,2,2,2,3,1,1
99.315,2,1,2,4,2,2,0,2
99.32,2,2,5,3,5,1,1,0
99.325,2,3,7,7,2,3,2,4
99.33,1,3,2,0,0,2,1,2
99.335,4,4,2,0,5,5,2,0
99.34,3,3,1,0,1,2,2,1
99.345,1,1,5,5,1,3,2,0
99.35,0,3,4,7,7,2,0,2
99.355,0,0,0,4,2,1,2,1
99.36,2,1,7,1,2,4,1,1
99.365,0,1,0,3,0,3,0,0
99.37,2,1,1,6,3,2,0,0
99.375,0,4,9,7,8,1,0,0
99.38,2,0,5,7,1,0,2,4
99.385,1,0,2,3,2,1,1,0
99.39,4,3,8,14,1,3,0,3
99.395,0,3,5,1,1,5,2,2
99.4,0,2,6,3,1,5,0,2
99.405,2,1,4,0,2,3,2,1
99.41,2,1,4,2,1,2,1,3
99.415,1,2,5,1,2,5,0,1
99.42,0,0,6,5,4,1,0,1
99.425,1,2,3,0,2,0,1,0
99.43,1,1,2,1,2,2,2,0
99.435,0,1,0,3,1,2,0,0
99.44,1,2,2,0,7,1,4,1
99.445,2,1,4,1,6,2,3,1
99.45,1,2,3,1,0,2,1,1
99.455,1,2,5,2,2,4,3,0
99.46,3,1,6,4,6,0,1,2
99.465,1,2,7,1,2,2,2,2
99.47,3,2,2,4,0,0,0,2
99.475,1,2,0,1,4,1,1,3
99.48,0,2,1,1,2,1,1,2
99.485,0,0,6,2,2,4,2,2
99.49,1,1,1,4,1,2,0,0
99.495,1,2,4,4,1,2,2,0
99.5,2,1,1,1,6,5,3,2
99.505,2,2,3,3,6,3,2,1
99.51,2,1,3,1,2,0,2,2
99.515,1,2,4,1,3,1,0,0
99.52,1,2,1,3,1,5,0,3
99.525,1,1,4,3,2,2,1,1
99.53,0,1,3,2,1,3,3,0
99.535,1,1,12,10,4,1,0,2
99.54,2,5,8,5,1,1,2,3
99.545,3,0,5,3,7,4,2,2
99.55,2,0,4,0,2,3,2,1
99.555,2,0,1,5,0,1,3,3
99.56,0,1,14,2,2,2,0,1
99.565,1,1,5,1,5,1,2,0
99.57,2,0,2,3,2,0,1,2
99.575,1,1,1,0,3,3,2,1
99.58,2,3,13,4,0,2,1,2
99.585,2,3,0,3,1,4,0,1
99.59,1,3,4,14,8,1,1,3
99.595,1,2,6,3,9,3,0,0
99.6,3,1,1,4,0,1,0,1
99.605,2,0,7,3,3,1,1,0
99.61,2,2,12,4,4,4,2,2
99.615,2,12,1,10,4,1,0,1
99.62,2,4,9,5,4,6,4,2
99.625,0,0,1,3,3,4,3,1
99.63,1,1,4,2,0,2,0,0
99.635,1,5,1,3,0,1,2,2
99.64,3,2,2,2,3,2,2,0
99.645,3,2,3,5,4,4,3,1
99.65,1,8,3,3,1,3,3,3
99.655,1,0,3,1,1,1,15,2
99.66,16,7,7,5,5,3,30,15
99.665,26,4,10,4,5,1,48,14
99.67,6,8,1,2,9,10,51,12
99.675,11,12,8,3,5,4,42,9
99.68,9,19,6,3,6,9,36,6
99.685,14,13,18,11,23,21,127,57
99.69,15,10,13,7,17,23,108,27
99.695,40,5,9,10,11,9,30,77
99.7,7,18,10,3,0,1,38,14
99.705,13,8,2,2,3,6,36,3
99.71,1,5,16,9,7,10,59,19
99.715,19,12,3,6,10,5,20,36
99.72,5,12,4,1,1,4,4,17
99.725,2,6,3,6,6,2,29,12
99.73,3,3,4,8,8,7,16,14
99.735,0,12,5,9,6,2,30,3
99.74,6,8,2,2,10,7,12,9
99.745,6,5,1,11,6,8,32,0
99.75,8,2,2,10,1,2,14,5
99.755,5,1,2,3,2,5,5,7
99.76,4,15,11,0,1,2,5,4
99.765,7,5,2,6,11,8,18,7
99.77,4,3,7,6,1,2,22,12
99.775,0,11,5,5,5,3,5,4
99.78,0,6,16,22,2,5,1,6
99.785,2,6,3,4,3,5,12,14
99.79,4,0,15,2,0,6,15,1
99.795,8,2,1,2,3,3,10,12
99.8,4,1,3,14,5,1,4,8
99.805,2,0,1,15,3,2,3,2
99.81,2,2,4,7,9,4,7,2
99.815,3,0,5,0,3,5,4,4
99.82,3,2,0,5,4,4,4,5
99.825,1,4,2,1,6,0,8,5
99.83,1,4,2,5,1,1,6,3
99.835,2,3,1,2,10,1,4,1
99.84,3,2,3,1,6,0,2,2
99.845,1,4,8,2,3,5,7,1
99.85,4,0,1,0,7,4,1,2
99.855,0,1,5,3,2,0,2,1
99.86,1,1,0,4,7,2,1,1
99.865,1,1,2,2,2,2,5,1
99.87,2,2,4,6,5,1,5,2
99.875,0,12,3,6,2,1,1,2
99.88,0,1,5,3,3,0,1,5
99.885,2,1,4,3,3,0,11,15
99.89,8,3,0,3,2,3,25,2
99.895,6,7,1,1,2,6,10,26
99.9,2,7,3,6,6,10,20,23
99.905,14,6,5,3,5,3,40,8
99.91,15,9,5,7,7,12,93,7
99.915,0,17,0,1,10,6,69,31
99.92,79,11,3,1,0,7,24,18
99.925,49,10,2,6,17,15,8,91
99.93,21,23,21,9,31,20,117,107
99.935,82,40,18,2,28,1,25,66
99.94,54,9,15,8,13,6,93,4
99.945,41,35,4,9,7,6,55,40
99.95,31,18,14,14,13,2,8,78
99.955,37,2,5,9,12,2,61,25
99.96,47,32,15,14,8,13,100,6
99.965,13,38,0,6,10,6,9,84
99.97,0,20,9,2,15,7,10,10
99.975,26,24,4,11,17,13,74,43
99.98,8,21,19,14,45,25,127,14
99.985,22,7,26,20,27,24,128,96
99.99,29,15,26,2,16,11,119,13
99.995,47,3,4,12,4,8,119,51
100,4,17,10,13,34,19,104,14
100,30,10,26,22,16,20,95,11
100.01,21,9,44,21,41,23,121,128
100.02,19,13,25,3,11,16,108,67
100.02,26,22,1,10,0,6,9,20
100.03,30,45,3,14,9,9,47,39
100.03,27,8,14,1,1,8,10,8
100.03,46,35,6,4,9,3,42,5
100.04,25,3,9,5,6,3,13,22
100.05,14,11,14,7,5,13,90,75
100.05,27,9,15,5,9,0,54,21
100.06,5,20,2,6,5,8,36,15
100.06,5,13,10,2,3,8,20,4
100.06,9,21,9,3,1,5,48,1
100.07,32,19,5,7,6,3,19,41
100.08,26,7,21,0,9,14,77,29
100.08,3,10,2,2,14,13,23,15
100.08,12,5,2,5,3,2,4,27
100.09,8,0,1,1,12,6,3,12
100.09,16,0,6,6,2,2,22,10
100.1,25,15,7,8,27,11,36,17
100.11,6,24,4,2,4,1,26,11
100.11,1,6,1,1,1,1,7,9
100.11,1,1,10,8,0,1,57,32
100.12,3,0,9,0,3,2,8,2
100.12,0,7,11,3,9,13,11,9
100.13,3,7,8,10,4,15,22,13
100.14,5,1,3,3,1,1,8,2
100.14,6,9,3,21,8,3,17,6
100.14,3,2,10,17,4,7,4,5
100.15,4,6,4,11,34,37,9,0
100.16,7,2,15,31,21,3,12,15
100.16,8,19,15,38,39,27,13,9
100.17,4,24,7,15,29,16,7,1
100.17,3,8,3,52,10,30,1,15
100.17,3,46,18,46,28,23,12,2
100.18,1,64,6,36,13,8,4,5
100.19,8,1,1,71,6,0,7,6
100.19,2,1,27,58,10,19,8,10
100.19,5,9,4,33,15,30,9,4
100.2,13,1,12,32,23,11,5,13
100.2,4,3,5,6,13,27,1,7
100.21,3,5,20,4,13,9,12,2
100.22,4,9,12,34,10,17,5,1
100.22,12,23,13,28,22,3,3,4
100.22,8,8,5,56,30,28,6,8
100.23,0,23,6,6,15,11,3,8
100.23,3,1,1,6,10,3,11,1
100.24,4,12,5,34,15,45,14,8
100.25,10,13,2,114,26,4,12,2
100.25,5,21,22,62,16,7,15,4
100.25,1,6,0,20,10,3,10,3
100.26,3,5,9,52,3,10,5,5
100.27,3,16,12,40,26,32,1,11
100.27,2,8,14,18,2,31,2,8
100.28,3,2,0,7,19,17,5,3
100.28,4,24,7,41,8,12,6,4
100.28,0,4,8,19,1,2,3,4
100.29,2,14,6,100,14,7,3,3
100.3,1,5,8,3,1,12,2,1
100.3,2,18,12,43,17,18,4,1
100.31,0,3,6,17,1,17,2,0
100.31,2,11,20,40,14,8,1,3
100.31,2,6,28,18,17,22,3,1
100.32,2,0,19,4,0,10,9,2
100.33,1,5,3,66,20,8,4,3
100.33,5,9,23,30,5,6,3,1
100.33,1,9,6,42,15,7,5,1
100.34,1,5,24,28,11,5,2,0
100.34,6,6,32,11,14,29,7,2
100.35,5,13,48,33,42,48,14,1
100.36,4,17,63,104,45,22,10,4
100.36,2,4,12,39,17,4,2,2
100.36,1,1,9,43,11,14,2,3
100.37,3,0,17,43,5,4,1,2
100.38,0,9,29,57,2,1,0,4
100.38,2,5,18,40,7,3,3,0
100.39,4,19,10,18,2,5,0,3
100.39,1,7,5,34,26,5,1,1
100.39,0,3,19,1,14,2,0,1
100.4,1,21,5,14,14,7,2,1
100.41,0,3,9,13,0,2,5,1
100.41,2,9,29,48,32,28,9,3
100.42,2,7,14,13,8,9,6,1
100.42,1,8,20,14,1,2,3,0
100.42,2,2,12,19,2,1,1,2
100.43,1,11,13,54,15,17,6,0
100.44,2,4,29,22,8,4,1,3
100.44,8,4,13,4,13,5,1,3
100.44,2,0,20,31,3,1,1,2
100.45,1,1,6,30,7,3,2,2
100.45,2,4,8,9,4,2,7,1
100.46,2,1,13,24,7,7,4,1
100.47,1,4,8,19,4,4,5,1
100.47,6,1,11,15,3,4,1,2
100.47,7,2,1,1,4,4,3,2
100.48,2,1,7,12,1,2,0,2
100.48,5,0,2,16,4,4,2,0
100.49,6,1,2,0,3,2,1,0
100.5,1,1,5,4,3,1,8,0
100.5,2,8,6,2,3,4,4,3
100.5,14,4,4,14,6,9,35,13
100.51,17,1,13,5,7,9,55,23
100.52,7,6,10,4,11,10,33,35
100.52,9,3,3,1,8,5,12,7
100.53,1,15,1,4,2,3,16,7
100.53,6,7,4,12,13,12,11,0
100.53,4,15,3,0,7,9,35,6
100.54,6,3,4,7,2,1,10,6
100.55,17,9,5,1,2,4,20,8
100.55,12,0,7,5,2,7,33,17
100.56,27,9,14,4,10,2,34,11
100.56,15,6,12,15,19,28,76,8
100.56,13,7,10,7,4,10,96,12
100.57,7,8,4,4,8,10,3,7
100.58,0,13,8,3,9,8,72,8
100.58,9,9,5,6,5,7,13,1
100.58,13,19,7,2,10,12,68,28
100.59,3,2,4,3,2,2,26,13
100.59,13,13,8,8,8,1,16,14
100.6,20,35,6,5,2,7,11,13
100.61,14,8,6,8,5,10,30,44
100.61,5,8,9,12,14,6,121,51
100.61,8,15,19,11,24,14,112,14
100.62,19,15,25,5,12,11,90,47
100.62,9,1,0,17,7,5,15,7
100.63,46,43,15,16,28,19,128,46
100.64,17,1,1,3,5,2,51,28
100.64,22,2,9,6,15,62,29,31
100.64,27,9,12,2,8,17,52,14
100.65,9,37,28,21,35,50,126,92
100.66,21,37,18,9,60,37,79,29
100.66,3,14,44,20,3,119,91,10
100.67,17,30,18,3,52,89,112,11
100.67,16,24,22,11,40,6,62,8
100.67,33,70,13,1,11,106,79,66
100.68,35,22,125,26,15,32,27,1
100.69,33,33,112,5,87,90,7,44
100.69,65,67,2,21,27,79,71,48
100.69,5,66,28,65,26,128,33,73
100.7,43,52,77,29,90,75,11,22
100.7,30,33,126,25,29,20,13,34
100.71,56,31,62,14,8,39,0,20
100.72,96,22,67,5,53,72,4,116
100.72,3,19,127,77,4,33,69,12
100.72,12,15,105,110,63,77,66,105
100.73,8,33,84,127,120,17,128,126
100.73,43,25,128,78,28,22,74,127
100.74,24,5,122,96,49,13,56,65
100.75,29,10,128,128,127,44,127,128
100.75,25,26,86,128,92,13,122,102
100.75,19,44,124,128,96,37,49,22
100.76,28,7,24,107,31,56,58,20
100.77,6,5,75,112,38,8,67,68
100.77,0,1,127,49,23,12,112,103
100.78,9,23,124,6,41,30,93,128
100.78,20,11,61,63,16,11,102,124
100.78,17,7,30,84,119,32,9,128
100.79,6,17,66,108,28,20,48,35
100.8,5,4,35,102,25,30,98,64
100.8,2,4,1,103,81,17,87,127
100.81,23,14,8,65,43,1,17,127
100.81,18,30,9,26,23,33,41,93
100.81,9,3,10,7,11,10,64,77
100.82,9,2,13,11,39,22,11,44
100.83,3,0,16,11,0,5,42,39
100.83,13,16,2,16,10,23,10,10
100.83,8,13,1,21,20,9,18,13
100.84,6,21,14,7,4,4,7,2
100.84,20,22,22,14,17,24,6,9
100.85,2,5,4,14,2,2,3,10
100.86,7,4,8,13,13,13,20,4
100.86,14,32,14,3,7,13,8,17
100.86,6,47,12,10,12,12,17,6
100.87,0,5,10,4,5,4,8,10
100.88,9,34,0,11,8,26,3,18
100.88,2,17,4,2,0,5,7,4
100.89,7,35,6,4,1,8,2,1
100.89,2,11,7,3,1,5,0,3
100.89,8,16,3,4,4,15,1,17
100.9,6,0,6,5,3,16,7,5
100.91,3,10,2,0,13,8,4,1
100.91,5,31,2,0,13,19,7,10
100.92,6,15,1,3,1,3,6,2
100.92,2,3,2,2,9,4,7,6
100.92,8,6,5,2,8,10,3,7
100.93,1,12,1,3,7,4,2,2
100.94,4,1,3,3,6,8,1,4
100.94,5,1,4,1,1,2,0,3
100.94,4,5,6,6,4,7,3,6
100.95,14,11,2,3,5,5,0,6
100.95,2,6,4,6,7,3,1,0
100.96,1,13,8,7,10,4,5,8
100.97,1,9,12,12,3,0,1,3
100.97,7,9,1,4,5,6,3,0
100.97,0,4,3,7,4,11,1,1
100.98,5,7,6,0,1,1,2,4
100.98,6,3,0,1,1,1,4,0
100.99,3,9,0,3,3,4,0,1
101,1,11,3,22,10,7,1,0
101,5,1,21,21,12,6,1,0
101,4,0,5,2,7,5,3,1
101.01,1,4,16,19,11,9,4,3
101.02,2,3,6,1,2,5,2,0
101.02,8,7,10,13,1,2,3,3
101.03,2,2,13,32,1,0,2,1
101.03,2,5,2,6,5,5,1,2
101.03,2,2,2,4,3,6,2,3
101.04,3,1,3,4,8,9,1,2
101.05,1,3,2,6,3,5,2,2
101.05,1,1,1,34,2,5,4,4
101.06,2,3,20,12,0,1,2,3
101.06,2,3,15,20,9,7,3,1
101.06,1,2,5,9,6,3,5,2
101.07,3,3,7,54,7,3,1,3
101.08,2,3,3,27,3,3,1,2
101.08,1,1,8,8,2,3,1,1
101.08,5,2,4,19,6,5,4,2
101.09,6,1,8,19,8,16,4,2
101.09,2,3,5,4,3,2,1,3
101.1,0,0,3,15,11,7,3,0
101.11,3,1,18,13,5,6,2,3
101.11,0,2,31,18,1,3,0,2
101.11,0,7,9,0,6,6,1,3
101.12,0,2,9,11,6,7,2,2
101.12,3,0,4,24,5,0,0,4
101.13,2,1,5,10,8,3,2,2
101.14,1,0,4,6,8,3,2,0
101.14,3,8,7,25,4,3,0,1
101.14,1,5,2,21,3,3,2,4
101.15,0,4,20,36,7,2,2,1
101.16,1,1,14,7,5,2,0,3
101.16,0,0,3,13,5,8,2,1
101.17,1,3,4,18,10,12,1,1
101.17,1,1,1,19,3,0,3,3
101.17,1,1,7,11,9,3,0,1
101.18,2,1,9,11,0,3,0,2
101.19,3,1,4,6,2,11,5,4
101.19,1,1,4,7,6,1,2,2
101.19,4,1,3,8,9,8,2,2
101.2,0,3,3,6,4,3,1,5
101.2,1,14,11,15,2,4,5,2
101.21,4,1,1,1,12,6,7,5
101.22,3,0,2,2,8,1,0,1
101.22,2,1,0,4,10,7,1,2
101.22,2,0,7,3,2,0,1,3
101.23,1,2,3,4,1,1,0,3
101.23,0,4,3,1,7,6,3,0
101.24,0,4,1,1,1,5,1,2
101.25,2,2,6,8,4,1,3,4
101.25,3,3,5,1,2,5,25,3
101.25,6,1,2,2,3,5,17,24
101.26,29,15,5,4,7,2,26,28
101.27,15,11,3,7,2,7,54,10
101.27,18,6,4,9,1,2,49,36
101.28,14,23,2,4,10,14,2,0
101.28,17,7,10,0,0,8,15,46
101.28,10,2,12,13,18,10,80,86
101.29,7,2,2,1,3,3,5,2
101.3,12,14,7,2,10,2,11,22
101.3,10,5,10,6,10,3,42,31
101.31,0,8,4,10,1,5,49,31
101.31,16,13,4,5,1,0,19,22
101.31,32,13,3,1,16,6,3,7
101.32,12,1,3,2,1,3,7,43
101.33,4,7,7,5,9,4,23,14
101.33,5,3,2,2,1,3,13,11
101.33,4,11,4,2,3,0,6,16
101.34,3,1,5,4,2,6,3,38
101.34,4,1,4,1,6,7,3,5
101.35,0,3,1,5,2,1,14,21
101.36,16,24,5,5,5,1,9,15
101.36,11,13,2,1,2,5,19,16
101.36,21,6,11,10,7,4,43,3
101.37,10,30,7,2,22,11,33,28
101.38,2,1,8,6,4,1,13,29
101.38,1,18,7,2,2,2,13,12
101.39,17,1,6,8,7,0,7,8
101.39,7,1,5,0,9,5,2,0
101.39,28,7,2,2,8,14,21,13
101.4,22,1,3,0,13,13,13,14
101.41,14,20,6,1,14,8,13,37
101.41,3,3,1,2,2,1,1,2
101.42,4,9,5,0,10,5,1,12
101.42,5,10,3,1,3,2,2,7
101.42,15,5,10,6,9,3,5,16
101.43,30,16,7,2,12,6,9,6
101.44,23,34,1,3,7,1,0,3
101.44,4,1,4,1,2,0,3,10
101.44,13,4,6,5,3,4,1,5
101.45,5,4,1,5,4,2,8,1
101.45,14,6,1,1,0,4,4,7
101.46,9,31,1,1,6,2,12,0
101.47,20,16,11,3,3,2,2,7
101.47,4,4,1,3,2,3,4,12
101.47,1,13,2,1,1,0,1,8
101.48,5,16,1,3,3,1,5,6
101.48,4,35,4,7,2,2,6,6
101.49,4,47,1,1,13,10,6,8
101.5,2,22,1,2,2,0,0,4
101.5,4,0,2,3,3,6,1,2
101.5,9,8,0,5,2,0,1,3
101.51,1,11,0,2,1,2,0,1
101.52,1,5,1,2,1,4,3,2
101.52,12,8,1,3,4,5,1,3
101.53,5,10,0,2,5,0,1,9
101.53,3,26,2,1,1,1,0,12
101.53,9,16,1,2,8,6,7,0
101.54,16,9,5,7,9,6,1,0
101.55,16,14,2,5,4,5,3,1
101.55,3,23,2,2,7,3,7,13
101.56,0,29,4,9,3,6,0,0
101.56,11,5,2,2,2,2,2,1
101.56,8,21,6,4,4,4,4,3
101.57,3,6,2,2,2,1,2,1
101.58,0,18,2,3,0,1,0,9
101.58,4,9,6,3,1,2,4,2
101.58,3,3,0,9,1,2,3,1
101.59,8,13,1,3,4,3,5,9
101.59,0,1,2,0,1,7,3,3
101.6,2,2,0,5,6,28,3,2
101.61,3,8,6,7,6,12,3,0
101.61,3,6,0,10,6,9,1,3
101.61,5,0,4,14,8,3,4,4
101.62,1,0,0,3,4,5,1,6
101.62,3,1,5,1,0,6,1,2
101.63,4,8,2,2,3,6,1,1
101.64,0,2,1,3,15,9,1,0
101.64,1,2,0,4,6,8,0,8
101.64,2,4,3,12,5,4,2,2
101.65,1,7,4,8,16,6,6,1
101.66,1,5,3,9,6,0,1,0
101.66,2,3,3,5,6,13,6,3
101.67,0,4,4,12,14,9,3,4
101.67,2,16,5,6,9,2,2,2
101.67,6,21,11,16,5,9,1,2
101.68,3,11,6,13,10,5,3,3
101.69,4,11,5,10,5,7,2,3
101.69,1,7,3,32,11,5,4,0
101.69,2,7,2,17,8,11,2,2
101.7,1,7,12,34,3,8,3,3
101.7,4,0,7,10,6,5,1,3
101.71,2,0,8,14,2,3,4,3
101.72,0,8,10,11,4,1,2,1
101.72,1,3,5,26,7,3,4,1
101.72,1,5,10,36,8,13,2,2
101.73,7,9,23,0,8,8,4,1
101.73,2,1,13,11,1,9,2,3
101.74,1,2,4,1,8,5,1,0
101.75,5,2,2,19,2,3,0,1
101.75,1,1,17,29,5,10,1,2
101.75,2,1,4,25,14,9,3,2
101.76,5,6,15,5,10,1,2,2
101.77,2,10,31,1,2,2,1,3
101.77,5,2,13,17,15,10,4,2
101.78,1,7,20,25,4,3,2,1
101.78,2,3,11,3,3,2,1,2
101.78,1,0,0,4,15,9,1,0
101.79,1,2,0,8,10,2,2,0
101.8,2,2,1,3,7,6,2,2
101.8,1,4,2,3,0,4,0,1
101.81,2,1,1,12,9,10,4,1
101.81,3,2,0,17,8,8,2,0
101.81,0,2,0,10,0,0,1,1
101.82,3,2,15,29,6,8,1,1
101.83,0,3,12,18,1,5,1,1
101.83,1,1,1,8,0,10,3,1
101.83,1,5,0,8,3,3,3,0
101.84,0,2,4,15,3,5,3,3
101.84,1,1,6,3,5,3,1,5
101.85,2,1,8,11,5,4,1,4
101.86,1,3,2,8,1,7,3,2
101.86,2,2,9,17,3,1,3,2
101.86,1,7,2,11,3,7,2,1
101.87,2,5,1,12,4,0,4,2
101.88,3,17,4,21,1,3,1,2
101.88,0,1,9,5,0,3,1,1
101.89,1,1,4,7,2,2,0,1
101.89,2,2,3,4,0,3,4,1
101.89,3,4,1,9,6,2,2,1
101.9,0,2,3,4,1,2,4,1
101.91,2,6,4,15,2,3,0,0
101.91,1,2,4,9,0,3,1,2
101.92,3,0,6,3,6,5,2,1
101.92,2,3,4,5,1,1,1,1
101.92,1,2,1,7,5,3,0,4
101.93,0,2,0,3,2,1,0,2
101.94,1,2,9,4,1,4,0,3
101.94,3,4,0,3,1,5,3,1
101.94,0,1,3,1,2,6,4,1
101.95,4,3,6,5,4,4,4,1
101.95,0,0,7,3,6,6,37,1
101.96,4,1,3,3,2,3,17,2
101.97,5,13,3,3,7,4,11,17
101.97,5,11,4,9,4,8,4,4
101.97,1,10,2,4,0,2,15,2
101.98,1,9,4,5,10,7,56,10
101.98,15,6,5,3,4,3,9,2
101.99,34,16,0,2,13,8,76,2
102,4,31,4,1,1,9,0,7
102,3,5,1,5,3,2,9,1
102,2,3,4,1,4,3,36,22
102.01,6,5,3,9,4,8,8,8
102.02,17,21,7,5,3,4,57,10
102.02,26,4,6,3,13,9,31,11
102.03,13,12,0,1,1,5,14,1
102.03,25,6,3,1,5,4,31,11
102.03,21,10,3,8,5,1,42,17
102.04,5,5,0,0,1,0,44,5
102.05,16,4,13,1,7,5,15,20
102.05,29,60,1,1,24,13,44,10
102.06,15,19,4,5,16,8,58,2
102.06,25,21,5,3,3,7,20,8
102.06,4,33,5,12,4,3,11,22
102.07,20,15,5,1,5,6,35,14
102.08,26,46,3,8,23,11,21,43
102.08,33,8,7,4,7,9,23,46
102.08,2,9,0,5,5,0,16,1
102.09,7,36,16,7,9,2,54,4
102.09,41,22,12,1,5,4,20,34
102.1,19,4,13,13,3,2,18,25
102.11,67,29,25,10,24,7,7,79
102.11,39,25,21,29,13,4,20,41
102.11,4,19,21,25,0,15,4,29
102.12,1,24,10,2,9,6,14,3
102.12,38,35,17,13,15,16,13,24
102.13,12,24,11,17,2,4,0,0
102.14,1,26,5,7,2,1,10,37
102.14,40,7,5,6,5,8,10,11
102.14,15,11,1,16,10,15,10,23
102.15,8,11,13,0,7,5,31,5
102.16,16,2,13,1,4,3,9,14
102.16,1,19,4,8,3,0,3,9
102.17,10,1,45,14,1,8,9,3
102.17,2,20,5,6,6,4,20,36
102.17,6,5,10,5,2,0,14,62
102.18,1,12,8,1,2,2,4,0
102.19,3,6,1,1,18,10,10,4
102.19,27,4,7,1,3,5,16,13
102.19,16,5,6,7,1,15,7,2
102.2,4,21,45,14,2,2,13,1
102.2,16,19,50,18,17,15,15,12
102.21,12,5,13,9,8,5,11,9
102.22,10,2,25,1,4,4,11,2
102.22,11,8,5,0,9,4,4,14
102.22,14,14,10,4,2,7,10,24
102.23,3,10,3,1,3,2,2,13
102.23,4,10,30,3,2,8,2,7
102.24,3,17,21,3,1,1,19,4
102.25,14,12,3,3,13,8,19,3
102.25,6,1,17,4,0,7,4,2
102.25,4,8,24,4,1,6,1,7
102.26,3,5,5,1,5,4,3,9
102.27,1,4,8,6,10,9,18,5
102.27,16,17,14,2,5,5,7,12
102.28,11,3,13,4,8,3,17,34
102.28,24,32,2,0,11,8,16,19
102.28,4,14,0,0,3,0,4,9
102.29,0,15,6,5,12,11,3,2
102.3,1,2,2,3,7,2,2,6
102.3,4,11,4,3,0,0,4,8
102.31,12,8,2,2,2,2,2,8
102.31,11,9,2,3,7,6,8,4
102.31,5,4,4,3,4,1,11,2
102.32,6,10,9,7,1,10,2,8
102.33,5,1,3,1,0,10,6,2
102.33,2,2,2,1,1,6,2,5
102.33,10,4,11,0,3,6,3,7
102.34,14,9,2,3,6,5,1,2
102.34,4,6,6,3,4,5,0,5
102.35,0,2,7,4,1,6,3,1
102.36,1,4,3,6,4,5,2,3
102.36,4,1,2,12,5,2,4,4
102.36,0,2,2,10,3,2,2,2
102.37,2,3,3,4,1,0,1,2
102.38,1,2,9,6,1,6,0,1
102.38,3,0,0,14,0,4,3,1
102.39,1,4,2,7,2,1,1,1
102.39,7,2,3,21,2,2,2,1
102.39,6,5,8,4,5,8,1,6
102.4,2,1,15,13,7,9,1,1
102.41,5,4,11,13,8,1,1,1
102.41,2,4,10,1,7,6,4,1
102.42,4,0,23,9,4,8,8,4
102.42,3,6,19,13,5,8,1,0
102.42,3,3,4,11,9,1,2,4
102.43,3,6,2,8,8,1,0,2
102.44,1,2,17,6,1,1,1,1
102.44,2,1,18,32,14,12,3,2
102.44,4,2,3,28,1,0,4,2
102.45,2,2,1,14,1,15,0,2
102.45,3,1,2,6,8,13,2,4
102.46,1,1,17,17,18,11,2,2
102.47,1,6,10,19,12,12,2,1
102.47,0,2,1,35,17,7,0,1
102.47,2,7,8,8,2,0,0,2
102.48,0,3,10,2,6,10,1,1
102.48,1,0,5,9,10,7,4,1
102.49,1,3,9,8,0,6,3,1
102.5,1,0,6,16,3,10,1,2
102.5,5,7,4,20,15,19,5,5
102.5,4,5,3,29,11,12,5,1
102.51,2,1,3,4,3,1,3,1
102.52,2,2,2,8,1,2,2,2
102.52,1,0,11,4,8,6,2,1
102.53,0,0,5,12,16,5,1,1
102.53,2,4,9,23,1,4,2,2
102.53,7,4,9,2,15,2,0,1
102.54,1,1,8,13,7,6,1,0
102.55,0,3,2,18,6,0,3,2
102.55,1,1,4,1,5,6,1,2
102.56,1,1,8,3,4,3,4,6
102.56,1,1,3,10,5,2,1,1
102.56,2,3,1,14,2,1,3,1
102.57,2,1,1,9,2,3,0,0
102.58,0,1,1,4,2,1,0,2
102.58,0,0,1,4,7,3,2,1
102.58,1,2,3,3,4,2,1,2
102.59,0,2,5,3,4,3,2,3
102.59,1,1,3,5,2,2,0,1
102.6,2,1,1,5,3,2,3,0
102.61,1,2,0,3,2,2,2,1
102.61,0,1,4,5,3,6,2,2
102.61,2,2,2,4,5,4,1,0
102.62,0,0,0,1,1,1,1,3
102.62,0,2,1,4,4,1,1,4
102.63,1,1,0,1,3,3,2,1
102.64,0,1,4,7,3,1,2,2
102.64,3,1,1,3,3,4,1,0
102.64,1,2,3,6,1,1,0,0
102.65,2,2,1,4,6,2,1,0
102.66,1,1,1,7,4,0,2,1
102.66,3,1,1,1,5,8,4,1
102.67,2,3,0,0,1,2,2,2
102.67,1,0,1,0,1,2,0,0
102.67,10,3,3,1,1,2,1,3
102.68,4,4,6,3,2,4,3,5
102.69,1,1,1,2,4,0,1,0
102.69,6,1,1,2,5,3,2,1
102.69,4,1,5,2,7,0,1,0
102.7,2,1,4,1,6,4,4,12
102.7,16,3,3,1,3,1,3,1
102.71,3,1,2,2,0,0,7,3
102.72,4,0,1,5,2,2,2,2
102.72,17,2,1,2,1,5,27,14
102.72,34,2,2,0,1,1,11,5
102.73,21,14,2,6,2,1,20,5
102.73,3,10,5,5,7,0,32,6
102.74,42,12,7,4,6,5,26,8
102.75,7,9,2,1,12,13,28,3
102.75,10,17,6,0,3,1,10,31
102.75,5,3,5,2,1,1,6,19
102.76,6,9,3,2,2,5,36,7
102.77,20,11,2,0,5,1,17,2
102.77,12,21,5,5,6,2,41,30
102.78,5,17,2,3,10,6,42,22
102.78,10,7,1,1,8,5,10,19
102.78,14,9,2,1,4,9,20,22
102.79,7,28,3,5,8,1,13,16
102.8,9,19,0,4,7,2,24,32
102.8,8,1,0,3,3,6,11,26
102.81,15,4,2,3,2,3,0,7
102.81,21,12,2,2,1,7,38,15
102.81,0,10,0,4,4,4,9,9
102.82,4,1,5,2,15,6,55,8
102.83,13,24,8,2,0,3,4,18
102.83,2,5,14,1,1,1,9,1
102.83,9,69,16,4,9,6,15,9
102.84,17,37,2,5,11,9,15,15
102.84,24,78,25,3,11,3,3,10
102.85,2,89,117,2,5,6,35,1
102.86,25,102,44,4,2,4,5,31
102.86,12,62,77,5,6,6,0,26
102.86,16,56,86,2,9,0,1,2
102.87,15,57,32,5,3,6,2,1
102.88,15,14,25,5,4,4,5,2
102.88,2,31,87,3,26,8,12,9
102.89,0,23,82,5,8,6,3,7
102.89,8,30,105,11,5,4,4,1
102.89,10,6,11,4,1,4,4,7
102.9,9,30,3,4,8,7,2,7
102.91,2,5,30,2,11,10,1,6
102.91,11,14,46,4,9,4,2,1
102.92,26,21,37,5,10,1,7,9
102.92,11,1,64,0,3,6,1,8
102.92,0,41,63,7,2,6,0,2
102.93,7,13,17,7,8,1,6,4
102.94,3,1,15,6,7,9,3,4
102.94,4,10,19,4,1,3,5,4
102.94,9,9,21,5,5,3,1,5
102.95,19,13,5,2,2,0,2,3
102.95,1,10,22,4,5,4,1,4
102.96,0,10,13,3,0,0,3,4
102.97,2,18,11,0,8,2,3,2
102.97,2,11,18,1,4,5,1,2
102.97,2,13,12,2,5,4,2,3
102.98,3,3,10,1,4,0,5,4
102.98,4,29,1,0,4,3,0,3
102.99,0,7,6,2,2,0,3,1
103,1,8,9,2,0,3,3,2
103,8,18,3,2,10,9,5,10
103,1,7,1,2,6,3,1,6
103.01,3,7,6,0,8,7,2,3
103.02,3,4,4,4,5,4,1,4
103.02,7,7,4,4,8,8,5,8
103.03,1,12,1,0,5,2,0,6
103.03,12,0,4,1,5,0,3,0
103.03,4,6,5,2,3,0,3,5
103.04,8,8,5,3,3,2,3,7
103.05,1,21,3,0,3,6,3,1
103.05,2,3,5,3,1,0,1,1
103.06,1,19,3,3,14,5,3,1
103.06,2,1,2,1,4,3,3,1
103.06,2,4,2,4,2,4,0,1
103.07,2,14,4,5,6,5,0,4
103.08,3,11,1,2,8,4,0,2
103.08,0,8,2,6,0,5,4,0
103.08,3,4,3,3,4,4,2,2
103.09,6,14,2,3,1,3,5,2
103.09,4,2,5,18,7,1,2,4
103.1,6,12,3,5,2,9,2,2
103.11,3,15,2,22,2,3,2,0
103.11,5,0,3,2,0,3,1,2
103.11,3,1,3,3,3,1,1,1
103.12,0,6,2,7,4,5,2,2
103.12,3,0,4,14,0,4,1,4
103.13,4,4,4,1,2,4,1,0
103.14,3,4,4,1,3,3,1,5
103.14,0,1,2,13,3,4,2,5
103.14,1,2,6,20,15,12,2,0
103.15,2,1,4,26,17,13,0,0
103.16,1,1,3,1,2,5,2,1
103.16,2,1,37,3,7,1,1,4
103.17,3,5,20,24,12,7,3,1
103.17,0,4,11,6,5,10,3,1
103.17,2,4,10,27,5,4,3,1
103.18,1,6,29,26,7,1,0,1
103.19,1,1,16,38,5,4,3,3
103.19,5,5,3,11,5,3,0,1
103.19,2,1,13,28,3,1,2,2
103.2,3,2,11,48,17,11,0,2
103.2,0,1,7,11,7,3,1,0
103.21,1,6,1,7,2,9,4,2
103.22,1,4,27,10,2,3,2,3
103.22,1,7,0,10,6,4,4,1
103.22,1,1,13,16,11,9,3,1
103.23,4,5,7,22,6,1,1,3
103.23,2,5,4,31,5,4,2,1
103.24,0,3,13,5,12,6,3,1
103.25,3,2,7,28,13,13,1,1
103.25,0,1,11,35,24,16,4,0
103.25,3,3,1,33,4,7,6,5
103.26,3,2,19,22,4,9,0,0
103.27,1,5,7,18,11,1,0,2
103.27,1,3,11,13,12,6,2,2
103.28,0,3,7,20,6,1,1,1
103.28,1,2,6,23,1,1,2,1
103.28,2,8,10,5,1,6,3,0
103.29,2,2,5,33,11,6,0,2
103.3,4,3,6,23,13,5,0,2
103.3,0,7,7,5,2,2,1,1
103.31,1,0,8,22,13,5,5,0
103.31,2,4,9,15,5,3,1,1
103.31,0,2,4,10,4,3,3,5
103.32,4,4,7,3,8,10,4,3
103.33,3,4,7,26,10,11,1,3
103.33,0,5,15,25,10,3,2,0
103.33,0,1,6,23,2,3,4,3
103.34,1,0,7,1,1,7,0,3
103.34,1,3,3,10,4,1,0,2
103.35,0,3,5,1,1,3,0,1
103.36,2,1,6,5,0,2,0,1
103.36,1,0,1,14,9,7,3,1
103.36,1,4,2,25,1,3,2,1
103.37,1,1,5,11,5,6,1,0
103.38,1,2,9,16,7,2,1,2
103.38,4,3,10,31,12,4,1,4
103.39,1,2,2,0,0,1,2,0
103.39,1,6,9,31,12,8,2,1
103.39,0,0,10,8,3,5,3,5
103.4,3,1,6,2,1,0,0,2
103.41,2,2,4,1,2,5,1,0
103.41,1,1,9,13,1,3,3,2
103.42,1,1,1,7,0,4,0,2
103.42,2,0,5,1,6,2,1,3
103.42,1,1,1,1,1,2,1,2
103.43,10,4,5,2,2,0,0,2
103.44,1,6,0,5,2,2,0,1
103.44,0,2,1,2,2,1,1,0
103.44,3,3,8,9,1,0,2,2
103.45,1,1,4,10,0,1,1,2
103.45,3,1,3,6,1,2,10,0
103.46,3,1,2,7,2,1,31,1
103.47,13,6,2,4,4,2,24,7
103.47,5,2,5,1,2,1,20,8
103.47,11,9,2,5,1,1,27,7
103.48,5,0,9,3,2,0,38,4
103.48,4,3,0,1,3,5,18,11
103.49,16,4,4,8,3,14,59,14
103.5,9,24,5,8,4,2,3,4
103.5,22,11,3,2,1,2,9,21
103.5,16,4,3,0,5,4,20,19
103.51,2,11,2,4,10,5,12,13
103.52,10,20,3,6,7,4,14,6
103.52,7,25,2,1,14,11,24,11
103.53,10,9,4,4,4,3,1,3
103.53,1,9,2,2,2,1,12,3
103.53,5,10,3,5,8,5,14,1
103.54,7,19,5,2,1,2,8,4
103.55,3,17,5,5,5,4,32,3
103.55,3,2,10,4,14,7,18,38
103.56,6,5,9,7,2,1,1,33
103.56,27,26,4,3,4,5,20,8
103.56,21,31,8,2,10,3,33,4
103.57,2,13,7,5,13,7,13,23
103.58,15,14,0,6,2,2,32,47
103.58,23,15,9,10,20,13,35,8
103.58,11,15,4,4,5,2,51,42
103.59,6,10,7,5,1,0,33,16
103.59,3,20,7,4,12,9,5,9
103.6,7,32,14,8,18,3,24,21
103.61,20,34,1,5,14,11,28,13
103.61,8,1,7,3,20,10,4,11
103.61,10,18,13,2,11,4,26,25
103.62,1,13,3,2,3,5,11,19
103.62,3,21,1,4,1,1,1,0
103.63,9,20,1,1,0,2,1,20
103.64,17,39,3,1,9,4,2,45
103.64,25,67,1,8,1,1,3,37
103.64,11,10,2,5,3,1,9,43
103.65,4,7,7,9,3,3,14,27
103.66,3,4,8,5,2,1,26,26
103.66,17,33,5,3,16,6,11,6
103.67,10,13,5,4,9,4,11,3
103.67,5,4,9,1,5,3,10,0
103.67,27,19,3,6,8,7,5,50
103.68,14,20,16,7,2,7,14,33
103.69,2,32,4,3,2,6,4,14
103.69,14,16,5,3,1,0,18,0
103.69,12,33,4,6,5,2,14,9
103.7,5,13,1,6,3,5,13,1
103.7,2,19,5,1,7,7,23,7
103.71,3,12,1,5,3,7,34,34
103.72,9,2,5,1,2,0,8,4
103.72,0,35,1,0,7,4,6,51
103.72,15,4,7,2,8,2,6,2
103.73,25,6,8,5,3,4,23,8
103.73,6,8,5,1,13,10,9,20
103.74,20,11,2,6,12,1,5,91
103.75,18,17,6,16,24,10,111,86
103.75,63,12,2,18,18,8,101,11
103.75,46,44,6,2,9,6,12,27
103.76,19,29,6,4,4,9,2,48
103.77,6,1,6,11,1,4,9,0
103.77,7,22,10,1,8,12,22,4
103.78,14,22,0,1,2,1,13,5
103.78,3,23,13,8,5,6,2,12
103.78,16,12,3,2,5,3,21,24
103.79,25,12,1,3,8,0,17,6
103.8,21,11,0,1,6,2,23,5
103.8,4,8,6,2,6,3,17,17
103.81,5,1,3,4,2,3,21,14
103.81,5,3,6,4,13,5,7,8
103.81,4,3,5,9,2,4,16,13
103.82,0,6,6,0,11,5,8,4
103.83,8,13,1,3,4,8,19,7
103.83,4,15,3,2,3,2,14,4
103.83,3,5,2,8,4,4,3,3
103.84,2,5,7,0,2,0,0,7
103.84,8,9,0,5,7,0,16,6
103.85,7,12,2,6,5,9,15,2
103.86,2,23,0,8,9,4,7,3
103.86,4,1,1,25,2,3,8,8
103.86,0,5,5,6,2,4,4,2
103.87,6,12,2,6,16,17,1,5
103.88,12,6,9,12,1,3,6,4
103.88,5,9,2,4,11,8,1,8
103.89,7,3,2,7,3,0,0,4
103.89,3,10,1,3,10,11,6,1
103.89,2,1,2,5,2,4,5,1
103.9,3,8,4,22,1,7,2,1
103.91,3,7,2,7,5,4,6,5
103.91,2,1,0,11,19,7,3,0
103.92,1,6,1,11,3,5,3,1
103.92,2,1,6,28,4,2,4,7
103.92,2,1,5,26,4,9,5,0
103.93,4,2,7,3,3,4,1,2
103.94,3,1,6,39,8,2,1,3
103.94,0,11,5,4,3,3,1,3
103.94,1,5,2,14,4,4,8,2
103.95,1,3,1,46,5,2,1,0
103.95,0,6,1,14,2,5,2,5
103.96,4,3,8,50,3,13,4,1
103.97,0,3,9,32,1,16,1,0
103.97,2,3,8,24,1,1,1,3
103.97,4,2,18,21,18,10,0,5
103.98,2,2,25,35,6,4,1,0
103.98,2,9,2,10,4,11,2,1
103.99,1,6,11,4,14,2,3,2
104,0,2,7,14,2,4,2,0
104,2,6,1,7,6,3,1,3
104,1,0,2,21,8,0,2,2
104.01,2,6,6,22,20,12,3,6
104.02,1,0,1,20,9,7,2,0
104.02,3,0,7,18,5,0,3,4
104.03,0,1,12,1,17,11,3,4
104.03,3,3,3,5,6,3,0,1
104.03,5,1,14,6,19,26,7,4
104.04,4,3,1,16,3,13,1,5
104.05,7,11,11,13,3,3,3,2
104.05,2,2,2,40,6,4,2,1
104.06,1,4,2,1,1,9,1,1
104.06,5,6,16,28,9,2,2,2
104.06,1,3,11,24,6,3,1,3
104.07,2,2,4,11,7,3,2,2
104.08,2,4,2,17,9,4,4,1
104.08,2,2,1,7,2,8,3,0
104.08,0,1,4,22,7,2,2,0
104.09,0,1,6,17,5,13,1,2
104.09,1,0,2,15,16,9,2,2
104.1,3,2,0,3,2,10,3,4
104.11,2,5,8,9,1,4,2,0
104.11,1,1,11,0,9,7,4,0
104.11,2,1,7,12,3,7,1,0
104.12,2,1,16,14,27,15,0,2
104.12,0,18,4,5,8,1,3,1
104.13,1,0,2,2,10,6,4,1
104.14,2,3,7,2,2,1,0,2
104.14,1,2,5,7,2,0,1,0
104.14,0,4,9,5,6,2,4,1
104.15,0,2,4,11,3,0,2,1
104.16,0,4,7,26,5,5,5,1
104.16,2,2,9,12,6,4,2,1
104.17,2,4,2,7,3,2,2,2
104.17,2,2,0,15,2,4,3,2
104.17,2,3,5,7,10,8,4,0
104.18,0,1,1,22,4,4,3,2
104.19,1,0,2,4,3,1,0,1
104.19,2,0,3,6,5,8,3,3
104.19,6,1,6,2,2,3,2,3
104.2,2,0,1,3,5,1,3,0
104.2,2,2,1,2,3,5,2,1
104.21,2,6,1,6,2,2,3,0
104.22,0,1,9,7,5,6,67,10
104.22,1,1,2,3,7,7,68,0
104.22,6,15,6,2,5,6,33,38
104.23,11,1,3,4,6,4,17,5
104.23,11,17,4,1,6,3,23,21
104.24,0,11,11,12,15,17,110,15
104.25,7,12,4,2,18,14,92,1
104.25,23,10,1,4,4,1,81,18
104.25,3,12,4,15,12,5,58,52
104.26,3,2,3,1,3,8,21,37
104.27,8,9,1,1,12,15,44,50
104.27,22,5,4,4,0,0,109,11
104.28,33,8,12,6,11,9,80,18
104.28,9,18,6,1,13,14,90,39
104.28,18,10,6,1,12,12,112,3
104.29,24,1,3,4,2,1,128,5
104.3,14,13,0,2,7,4,56,10
104.3,7,1,6,11,6,4,27,65
104.31,22,11,13,10,4,3,8,35
104.31,27,12,6,2,13,11,7,37
104.31,3,1,2,3,7,4,54,21
104.32,1,12,8,3,9,5,34,15
104.33,44,27,9,2,38,25,73,37
104.33,31,14,4,6,9,8,20,59
104.33,6,10,2,6,2,3,29,12
104.34,2,11,7,2,4,10,7,35
104.34,4,17,11,6,15,9,30,10
104.35,21,3,6,10,1,1,37,10
104.36,11,18,6,3,35,27,35,22
104.36,16,115,20,8,3,3,2,73
104.36,7,16,8,1,2,5,2,9
104.37,2,76,2,1,12,6,32,4
104.38,7,106,19,3,12,8,20,16
104.38,5,92,34,1,5,3,26,43
104.39,1,7,9,13,1,6,8,55
104.39,8,52,9,4,16,9,4,29
104.39,11,52,38,7,0,5,19,7
104.4,0,47,38,4,0,5,0,24
104.41,4,27,39,4,8,6,18,12
104.41,4,15,18,4,2,3,37,16
104.42,1,10,24,3,3,1,22,11
104.42,12,7,30,5,7,18,11,6
104.42,1,23,17,1,9,7,38,9
104.43,4,17,2,2,13,10,38,9
104.44,7,2,9,0,5,7,10,3
104.44,8,16,5,4,4,1,19,2
104.44,27,9,5,1,4,2,5,1
104.45,3,10,10,1,3,0,5,6
104.45,6,24,3,4,3,1,8,3
104.46,3,13,9,5,3,4,6,7
104.47,13,10,7,1,1,0,8,7
104.47,2,21,7,1,1,1,3,0
104.47,2,7,1,0,0,2,7,5
104.48,8,15,8,4,4,3,3,3
104.48,9,13,11,1,5,1,1,1
104.49,1,3,2,1,5,4,3,25
104.5,7,28,2,3,5,6,11,6
104.5,6,27,0,2,5,1,3,15
104.5,17,1,0,4,3,6,19,10
104.51,4,17,1,1,2,2,9,14
104.52,19,7,1,1,5,3,5,8
104.52,1,2,1,1,3,0,4,20
104.53,31,16,4,2,1,1,4,7
104.53,7,28,2,1,8,7,1,2
104.53,2,5,0,1,1,1,4,9
104.54,3,2,3,0,0,2,4,11
104.55,8,8,1,2,6,1,2,1
104.55,5,8,1,1,1,2,6,0
104.56,9,13,3,4,1,1,0,2
104.56,1,11,2,2,1,2,1,1
104.56,3,2,2,3,4,2,2,5
104.57,5,3,3,4,2,1,0,9
104.58,2,2,1,3,5,1,5,4
104.58,1,8,4,4,2,5,3,0
104.58,6,6,2,1,4,7,1,3
104.59,1,3,8,15,13,8,0,3
104.59,2,16,2,14,5,1,2,3
104.6,3,13,3,12,2,0,1,3
104.61,1,15,3,3,16,13,2,1
104.61,9,2,5,1,1,8,6,8
104.61,9,7,4,2,12,11,2,6
104.62,1,2,2,3,4,4,2,4
104.62,7,1,2,4,1,4,1,0
104.63,0,11,7,14,5,4,1,5
104.64,4,18,5,12,1,7,2,0
104.64,4,5,6,28,5,5,0,2
104.64,2,3,4,16,1,4,3,2
104.65,2,2,4,3,11,4,1,0
104.66,6,6,4,22,12,2,2,2
104.66,1,4,7,10,19,14,2,2
104.67,0,6,12,1,0,4,1,0
104.67,5,20,9,1,5,5,1,1
104.67,5,7,19,26,8,9,4,1
104.68,1,7,4,11,5,17,1,2
104.69,4,15,18,32,7,16,2,2
104.69,1,8,6,9,4,4,1,1
104.69,3,0,9,28,19,13,2,4
104.7,1,4,4,15,8,1,2,2
104.7,1,6,4,15,8,13,3,5
104.71,1,1,4,10,20,20,3,4
104.72,3,2,17,10,3,4,2,1
104.72,3,3,16,29,14,7,2,3
104.72,2,4,6,38,10,7,0,2
104.73,1,2,7,19,15,11,4,4
104.73,2,0,4,32,3,8,1,0
104.74,2,3,5,9,4,1,1,2
104.75,4,14,3,7,16,13,2,0
104.75,2,3,7,11,1,2,3,0
104.75,2,6,21,16,0,10,5,3
104.76,1,4,10,18,6,5,0,0
104.77,4,2,9,4,6,8,6,1
104.77,1,4,17,67,0,5,2,2
104.78,1,4,7,16,10,9,0,4
104.78,0,2,1,16,10,2,0,0
104.78,1,1,2,24,4,2,1,1
104.79,2,0,12,16,15,12,3,2
104.8,1,1,12,9,9,9,4,1
104.8,0,3,11,12,15,7,0,1
104.81,3,6,9,4,3,1,1,0
104.81,1,7,8,2,0,3,2,1
104.81,3,1,5,12,18,13,2,2
104.82,3,8,6,6,6,3,1,1
104.83,0,1,5,17,5,0,2,3
104.83,0,1,6,8,6,6,3,3
104.83,1,1,2,12,1,1,1,1
104.84,0,2,2,10,5,1,0,1
104.84,0,2,0,0,8,2,1,1
104.85,4,2,18,17,11,6,2,4
104.86,4,0,12,18,7,4,1,2
104.86,2,0,5,1,2,2,2,3
104.86,1,2,4,8,3,1,0,1
104.87,0,1,1,7,1,2,3,4
104.88,1,2,5,10,2,2,3,0
104.88,1,2,4,25,8,4,4,2
104.89,1,2,9,12,3,3,0,0
104.89,2,1,0,4,6,1,2,1
104.89,3,4,7,21,0,3,1,0
104.9,1,2,2,4,8,2,2,0
104.91,2,0,1,1,1,2,3,0
104.91,1,1,4,2,1,4,3,3
104.92,1,2,6,2,3,2,1,0
104.92,2,1,4,10,2,1,0,2
104.92,0,1,0,3,11,5,4,2
104.93,1,1,5,9,11,4,2,2
104.94,3,4,1,4,3,0,2,2
104.94,0,1,2,6,3,4,3,8
104.94,2,7,3,3,1,1,1,14
104.95,1,0,0,0,1,2,3,31
104.95,3,4,2,3,1,1,1,6
104.96,11,14,4,3,3,3,40,3
104.97,8,6,3,0,8,1,20,6
104.97,9,1,1,0,1,2,56,37
104.97,3,9,6,10,6,5,25,82
104.98,8,8,2,3,6,3,23,6
104.98,19,11,3,14,18,9,74,85
104.99,45,15,4,20,20,9,24,82
105,46,13,3,13,27,21,89,44
105,24,8,9,0,11,4,63,15
105,24,7,7,2,12,4,10,19
105.01,6,4,13,4,8,3,23,12
105.02,50,9,8,11,16,11,32,24
105.02,26,5,16,4,8,1,12,6
105.03,3,3,6,5,4,7,23,29
105.03,12,1,5,7,2,5,8,16
105.03,4,16,4,0,0,3,21,36
105.04,16,1,5,3,3,1,3,23
105.05,12,3,3,4,3,2,23,22
105.05,19,11,10,2,6,6,36,1
105.06,7,13,9,2,13,11,54,66
105.06,4,5,4,5,6,0,5,0
105.06,32,25,4,2,14,9,26,29
105.07,36,42,1,0,7,8,0,30
105.08,7,13,1,3,8,1,2,23
105.08,9,7,1,6,6,5,4,25
105.08,20,8,0,0,11,1,25,57
105.09,5,26,7,3,2,0,8,48
105.09,9,16,41,4,6,0,12,35
105.1,7,13,113,7,12,1,11,3
105.11,4,1,31,4,8,1,11,15
105.11,6,3,86,8,16,8,12,11
105.11,3,20,112,2,1,3,20,1
105.12,0,63,128,2,0,8,17,18
105.12,31,87,97,2,0,5,3,63
105.13,21,7,83,1,4,4,8,11
105.14,6,85,37,10,22,14,11,15
105.14,7,123,27,6,1,2,2,12
105.14,23,64,108,15,2,6,4,12
105.15,14,68,92,6,6,9,9,20
105.16,8,117,18,2,8,1,12,14
105.16,10,50,24,1,7,11,5,21
105.17,0,28,122,11,11,8,3,19
105.17,7,13,98,2,2,6,1,8
105.17,6,39,95,10,38,33,8,9
105.18,23,27,43,2,10,14,11,13
105.19,13,29,43,4,2,10,1,21
105.19,22,40,26,10,24,16,10,3
105.19,1,7,1,6,11,23,7,21
105.2,5,1,9,4,51,3,10,8
105.2,8,28,4,3,34,90,22,24
105.21,23,35,27,7,2,106,37,3
105.22,8,20,9,4,40,93,9,3
105.22,6,1,4,6,16,13,4,3
105.22,8,7,7,0,22,71,23,32
105.23,2,3,0,1,29,19,4,22
105.23,7,21,4,4,12,12,20,11
105.24,12,11,0,9,5,49,2,10
105.25,1,14,1,5,40,9,21,17
105.25,5,6,3,7,21,37,4,6
105.25,6,16,1,5,14,40,6,1
105.26,10,21,10,3,10,8,2,19
105.27,0,3,2,4,0,19,0,2
105.27,2,4,2,0,2,39,10,10
105.28,11,6,6,3,4,34,9,12
105.28,7,12,3,1,6,14,5,13
105.28,9,16,4,7,5,9,1,3
105.29,0,98,3,7,1,5,2,16
105.3,7,33,1,2,4,10,8,0
105.3,2,26,4,3,6,16,9,14
105.31,19,34,6,4,9,3,4,1
105.31,3,102,1,0,2,24,3,0
105.31,2,39,2,1,5,26,2,1
105.32,4,38,1,7,8,5,5,4
105.33,7,11,4,4,8,6,2,4
105.33,5,12,3,8,7,12,2,2
105.33,1,8,3,0,13,14,2,2
105.34,2,17,3,1,5,9,4,1
105.34,2,32,3,9,3,2,2,3
105.35,6,7,5,8,1,3,2,2
105.36,1,15,7,3,16,5,2,4
105.36,5,6,3,8,4,6,6,5
105.36,3,18,4,12,3,8,4,1
105.37,0,13,1,2,10,18,3,1
105.38,5,5,10,19,6,7,1,5
105.38,0,8,3,13,7,11,1,1
105.39,1,6,8,0,8,7,2,3
105.39,1,8,2,5,8,6,2,2
105.39,2,4,2,2,7,5,1,4
105.4,4,12,4,17,1,9,2,0
105.41,3,0,2,10,3,1,1,0
105.41,4,3,8,1,6,17,2,2
105.42,1,2,6,12,1,7,0,3
105.42,1,0,3,1,0,5,2,1
105.42,1,2,3,20,2,1,3,3
105.43,1,2,6,9,4,3,0,1
105.44,1,3,7,41,0,3,1,1
105.44,2,0,1,13,5,2,3,2
105.44,2,3,11,9,4,7,1,2
105.45,6,2,1,23,6,5,2,3
105.45,1,4,2,2,3,8,1,1
105.46,5,11,13,10,3,0,1,1
105.47,1,5,5,14,8,11,2,2
105.47,0,1,2,12,4,8,1,4
105.47,0,2,16,34,0,5,1,0
105.48,2,0,9,18,11,0,0,0
105.48,0,4,6,8,3,4,2,2
105.49,1,1,9,10,0,2,0,1
105.5,1,6,11,23,10,10,5,2
105.5,5,9,3,23,0,4,2,0
105.5,1,4,5,4,5,3,1,1
105.51,2,1,7,21,12,8,2,1
105.52,0,4,6,6,2,2,2,3
105.52,1,1,3,6,7,2,4,1
105.53,2,5,7,5,2,0,0,0
105.53,1,1,8,26,7,3,0,1
105.53,3,3,13,1,1,3,1,2
105.54,1,1,2,21,2,0,1,1
105.55,2,0,2,24,18,8,3,1
105.55,1,5,6,13,5,1,2,0
105.56,1,2,10,10,6,0,1,4
105.56,2,1,1,15,6,4,0,0
105.56,0,4,0,15,2,3,0,1
105.57,3,2,6,4,3,1,1,1
105.58,1,4,3,5,2,4,1,1
105.58,2,3,2,13,14,7,5,4
105.58,2,4,10,5,3,2,1,1
105.59,1,13,9,43,5,8,2,1
105.59,0,1,0,12,4,3,1,2
105.6,0,5,3,5,2,2,0,0
105.61,2,2,10,14,4,0,1,1
105.61,1,1,6,4,9,12,4,3
105.61,1,1,5,5,3,1,0,1
105.62,0,0,1,3,8,8,1,0
105.62,1,2,0,5,6,1,1,1
105.63,4,0,3,7,6,3,4,0
105.64,4,4,3,0,2,0,1,1
105.64,1,1,0,4,0,2,2,1
105.64,2,3,0,0,5,0,0,0
105.65,3,1,1,5,4,2,3,3
105.66,0,0,2,3,0,2,2,4
105.66,0,1,3,3,1,1,2,0
105.67,1,5,2,2,6,5,5,1
105.67,3,1,3,2,0,2,1,1
105.67,2,1,3,6,6,3,1,1
105.68,1,0,3,2,2,1,0,3
105.69,1,1,4,0,5,1,2,0
105.69,5,2,2,2,4,5,11,1
105.69,11,2,5,3,1,3,15,16
105.7,2,4,3,6,0,1,17,7
105.7,2,7,1,6,3,3,8,1
105.71,7,10,3,4,5,6,5,6
105.72,6,15,1,4,3,6,14,4
105.72,6,4,6,2,2,5,22,19
105.72,13,9,1,6,5,3,40,6
105.73,24,2,5,6,12,12,72,11
105.73,10,1,10,3,10,5,35,7
105.74,26,8,4,1,11,5,32,5
105.75,2,16,2,3,0,3,5,2
105.75,3,3,1,3,3,2,18,16
105.75,0,9,5,6,5,3,15,8
105.76,3,2,2,1,1,0,23,1
105.77,2,5,1,3,4,5,25,12
105.77,22,21,0,1,9,9,19,33
105.78,13,10,0,2,4,6,4,23
105.78,45,15,3,0,2,1,6,9
105.78,46,7,2,1,7,1,0,18
105.79,6,8,8,7,7,0,23,4
105.8,22,2,2,2,3,3,5,8
105.8,24,4,0,0,8,5,23,3
105.81,7,15,7,1,11,2,6,3
105.81,25,32,1,1,0,0,7,0
105.81,54,12,2,2,11,0,7,0
105.82,0,18,3,6,4,2,5,18
105.83,4,109,3,7,20,5,6,19
105.83,53,50,1,4,1,0,17,9
105.83,84,59,6,6,27,13,19,7
105.84,98,54,1,9,29,9,2,6
105.84,44,94,16,22,16,7,36,7
105.85,106,100,2,12,11,18,24,23
105.86,73,28,10,10,22,1,18,23
105.86,10,60,10,3,1,11,11,3
105.86,28,6,5,12,13,3,2,14
105.87,1,65,0,1,5,12,11,24
105.88,11,86,5,13,4,6,17,10
105.88,31,36,4,13,17,1,7,4
105.89,13,23,3,5,1,1,17,18
105.89,36,50,0,1,10,19,6,29
105.89,25,77,1,2,6,12,6,4
105.9,53,42,6,3,6,6,4,18
105.91,18,8,10,16,10,23,25,13
105.91,0,9,3,4,2,15,21,16
105.92,41,60,5,3,5,13,4,9
105.92,14,82,16,2,6,3,5,17
105.92,99,127,1,9,10,13,11,19
105.93,1,96,6,1,19,2,2,17
105.94,13,89,6,13,8,3,12,6
105.94,60,84,9,1,7,11,18,8
105.94,82,60,5,9,9,19,5,7
105.95,21,100,0,8,4,1,16,11
105.95,55,65,1,20,9,9,18,9
105.96,39,2,2,7,16,14,8,22
105.97,29,25,7,3,11,0,6,2
105.97,38,10,4,4,2,1,7,14
105.97,26,13,8,3,1,1,14,7
105.98,34,24,16,1,13,6,6,5
105.98,57,42,30,6,7,11,14,18
105.99,38,50,22,5,6,2,12,21
106,28,48,13,10,2,10,5,4
106,79,57,64,10,2,7,15,36
106,24,4,48,1,9,8,2,14
106.01,12,14,48,0,11,2,9,2
106.02,25,40,11,3,9,11,7,4
106.02,36,38,21,1,10,5,11,3
106.03,4,41,6,1,12,7,38,13
106.03,47,79,2,3,7,2,1,5
106.03,54,26,11,5,15,16,8,5
106.04,24,14,18,4,5,4,18,6
106.05,5,11,17,10,2,0,17,3
106.05,21,2,17,1,4,2,17,10
106.06,10,4,16,3,6,3,1,6
106.06,9,45,2,6,1,14,4,9
106.06,13,47,24,2,5,9,5,12
106.07,32,8,4,4,5,7,6,5
106.08,38,14,12,3,1,3,5,7
106.08,0,8,7,4,9,2,0,4
106.08,5,7,12,9,2,8,9,3
106.09,20,13,3,3,6,3,0,2
106.09,11,3,10,6,8,3,3,2
106.1,3,11,9,17,14,0,12,3
106.11,0,13,10,9,3,12,7,1
106.11,18,7,8,1,6,8,1,3
106.11,5,13,1,8,6,1,1,5
106.12,4,5,5,0,7,13,1,4
106.12,3,5,5,7,2,7,9,1
106.13,12,3,1,7,7,7,4,4
106.14,1,3,3,1,3,10,1,8
106.14,1,12,1,5,16,15,3,1
106.14,0,5,0,1,9,12,8,4
106.15,15,10,10,4,2,5,1,1
106.16,4,6,2,3,1,14,5,3
106.16,2,16,7,7,6,13,1,0
106.17,4,15,7,24,9,6,0,3
106.17,5,0,4,0,2,1,0,2
106.17,4,0,8,8,3,1,1,2
106.18,2,3,3,14,18,10,1,1
106.19,2,11,4,5,6,5,4,3
106.19,6,1,2,7,6,3,0,1
106.19,0,2,29,10,4,4,1,3
106.2,2,3,19,15,2,1,2,1
106.2,1,0,3,7,2,3,0,2
106.21,7,10,12,38,6,5,2,0
106.22,0,0,2,3,0,4,1,4
106.22,0,1,7,3,7,4,0,1
106.22,1,1,20,20,10,5,7,2
106.23,4,1,5,18,3,7,3,0
106.23,1,2,0,15,1,3,3,2
106.24,0,1,4,20,1,3,2,0
106.25,0,2,6,3,10,3,3,1
106.25,5,5,0,15,0,5,0,3
106.25,2,1,8,21,8,6,5,3
106.26,1,1,2,6,3,1,0,1
106.27,2,4,3,16,7,2,2,1
106.27,2,2,8,7,1,0,2,2
106.28,0,1,10,12,2,0,1,1
106.28,0,1,2,12,7,5,0,2
106.28,3,11,6,13,4,4,1,1
106.29,2,4,1,14,7,4,0,1
106.3,1,4,4,7,4,3,2,2
106.3,0,1,0,7,0,4,1,1
106.31,3,2,7,2,10,9,1,0
106.31,3,3,3,15,15,3,0,2
106.31,0,4,4,14,1,2,1,1
106.32,3,5,14,9,11,9,3,1
106.33,0,4,12,13,6,4,2,0
106.33,1,3,7,15,6,1,2,1
106.33,2,1,11,3,5,4,1,2
106.34,1,2,7,8,0,1,3,3
106.34,1,2,7,1,12,7,3,0
106.35,2,2,4,5,3,5,2,0
106.36,0,1,10,13,5,4,0,4
106.36,0,2,3,4,0,2,1,1
106.36,0,4,4,3,4,0,0,4
106.37,2,0,5,2,3,2,3,2
106.38,3,4,5,5,2,4,2,1
106.38,1,18,0,8,4,2,0,0
106.39,0,0,4,8,8,2,2,1
106.39,2,2,7,5,2,4,1,3
106.39,3,2,4,17,0,0,1,1
106.4,1,4,0,8,3,3,2,2
106.41,2,2,0,13,1,0,0,1
106.41,3,2,1,4,2,2,1,0
106.42,8,4,5,13,1,4,2,6
106.42,1,1,4,3,1,3,2,1
106.42,0,0,2,12,4,0,2,1
106.43,3,1,4,0,4,0,2,1
106.44,3,4,12,21,3,2,2,4
106.44,1,5,7,3,2,6,1,0
106.44,2,3,1,4,5,2,6,5
106.45,2,4,8,7,0,12,10,2
106.45,2,7,12,11,1,5,9,13
106.46,2,1,11,17,8,26,6,12
106.47,8,19,0,7,1,12,0,18
106.47,7,2,2,47,16,24,17,13
106.47,3,1,6,44,10,15,22,24
106.48,12,5,5,11,6,5,11,1
106.48,7,10,3,5,9,10,45,17
106.49,24,7,1,1,10,4,5,61
106.5,4,6,3,14,10,8,53,19
106.5,6,2,3,2,6,1,70,2
106.5,2,9,6,1,8,28,26,4
106.51,4,11,0,1,1,5,14,37
106.52,13,3,1,2,2,9,10,2
106.52,3,2,1,10,4,2,45,12
106.53,1,3,0,0,2,2,5,15
106.53,7,7,7,9,5,9,4,7
106.53,3,5,4,2,3,1,2,1
106.54,1,1,4,7,1,7,4,9
106.55,3,32,7,1,12,9,48,12
106.55,3,31,2,9,12,7,42,47
106.56,12,3,6,2,6,5,27,43
106.56,45,11,7,6,6,1,38,24
106.56,19,5,2,6,19,15,33,115
106.57,23,15,2,11,9,11,67,77
106.58,53,12,6,6,11,11,62,52
106.58,30,32,1,2,1,23,21,42
106.58,20,25,15,14,6,21,72,68
106.59,5,14,1,7,4,10,41,17
106.59,10,31,1,9,8,10,7,3
106.6,44,9,8,8,4,31,31,14
106.61,10,4,5,4,6,36,64,39
106.61,18,3,2,5,0,27,42,2
106.61,14,39,2,0,4,10,29,57
106.62,3,9,4,2,7,15,7,12
106.62,1,5,5,5,3,17,21,15
106.63,25,2,1,4,5,26,37,24
106.64,11,16,3,0,2,3,1,10
106.64,7,11,12,16,6,2,6,16
106.64,4,0,5,2,2,0,4,14
106.65,32,36,1,2,5,0,4,9
106.66,30,30,3,10,18,3,3,10
106.66,5,13,4,5,21,14,6,14
106.67,8,1,4,10,6,32,13,23
106.67,12,22,5,5,9,17,30,17
106.67,16,5,0,8,20,18,11,32
106.68,5,34,3,2,5,47,6,5
106.69,13,26,1,6,13,30,20,1
106.69,3,3,4,2,2,5,3,15
106.69,10,17,3,2,2,9,18,4
106.7,2,6,4,7,13,2,6,5
106.7,6,8,3,3,3,1,10,5
106.71,8,3,1,3,6,6,6,3
106.72,16,28,2,5,4,27,5,43
106.72,9,7,3,3,10,7,32,11
106.72,2,19,5,2,4,3,24,2
106.73,0,4,4,2,9,9,25,2
106.73,1,14,3,2,5,3,0,15
106.74,1,15,2,1,5,20,18,2
106.75,4,31,0,5,2,27,14,33
106.75,11,26,5,3,1,23,21,34
106.75,15,5,0,0,5,11,24,23
106.76,7,1,2,1,14,23,8,41
106.77,5,23,0,3,15,21,5,34
106.77,7,2,3,2,8,7,24,37
106.78,3,9,3,5,5,1,26,31
106.78,7,5,5,1,9,17,11,2
106.78,23,15,1,6,6,13,7,12
106.79,20,0,9,1,30,4,7,9
106.8,21,5,8,1,23,37,4,23
106.8,16,28,3,1,8,22,8,10
106.81,17,18,6,2,16,15,5,22
106.81,7,20,9,1,8,5,11,1
106.81,12,50,2,23,7,22,1,8
106.82,23,5,1,1,9,28,3,9
106.83,10,7,6,3,20,4,11,21
106.83,0,0,4,3,5,14,4,11
106.83,11,16,1,8,12,7,7,10
106.84,5,19,2,5,0,7,3,20
106.84,10,8,1,3,3,6,7,4
106.85,16,10,1,12,5,2,6,0
106.86,2,8,3,0,1,5,3,0
106.86,2,14,6,2,1,9,2,3
106.86,4,1,2,3,6,13,0,5
106.87,4,6,1,9,2,5,7,7
106.88,8,4,0,17,2,3,6,3
106.88,2,2,4,16,3,14,1,10
106.89,3,14,4,4,7,5,4,5
106.89,7,20,1,7,11,9,1,8
106.89,2,8,1,5,5,4,2,1
106.9,3,11,2,5,3,5,7,2
106.91,3,1,0,5,8,9,6,2
106.91,7,10,3,3,7,1,3,4
106.92,1,6,5,11,5,1,1,1
106.92,1,6,2,3,4,7,2,2
106.92,2,6,5,1,2,15,6,1
106.93,4,8,4,0,1,9,1,6
106.94,0,2,7,10,6,12,1,6
106.94,1,1,4,32,5,1,0,2
106.94,2,6,2,8,3,6,4,1
106.95,9,0,1,18,1,4,1,0
106.95,0,4,1,3,3,1,1,2
106.96,1,4,1,4,1,1,1,1
106.97,4,8,8,4,11,0,4,1
106.97,1,5,3,3,7,0,0,3
106.97,4,2,7,3,16,12,3,1
106.98,3,0,6,7,6,5,1,4
106.98,2,5,3,1,1,4,1,2
106.99,0,1,0,14,2,6,0,1
107,1,2,3,55,4,1,1,0
107,2,0,1,11,12,8,6,4
107,2,0,1,19,2,1,3,1
107.01,1,1,9,0,12,0,2,2
107.02,1,2,1,10,8,1,1,1
107.02,1,3,4,2,7,2,1,0
107.03,3,0,4,25,2,2,2,3
107.03,2,1,2,17,9,7,4,1
107.03,1,1,15,10,2,1,1,0
107.04,0,2,6,0,4,2,1,3
107.05,1,6,5,13,5,2,1,1
107.05,2,2,2,17,1,0,0,1
107.06,1,1,1,38,3,1,0,0
107.06,3,8,5,51,8,6,4,1
107.06,1,2,4,5,2,3,1,2
107.07,0,5,3,19,14,11,6,1
107.08,0,0,6,15,5,0,1,3
107.08,1,3,2,33,1,1,0,1
107.08,0,0,2,9,10,8,2,2
107.09,1,1,4,19,6,10,2,1
107.09,4,4,9,9,4,5,0,3
107.1,2,2,1,7,5,6,1,2
107.11,0,1,0,25,8,10,0,1
107.11,0,3,6,21,3,12,3,3
107.11,1,2,5,18,4,4,2,1
107.12,0,3,6,2,1,0,3,1
107.12,1,2,2,21,2,1,0,2
107.13,0,2,2,11,6,1,3,1
107.14,1,1,6,12,2,0,1,3
107.14,4,4,4,5,2,2,1,1
107.14,1,2,7,27,2,2,0,1
107.15,1,1,1,3,9,4,2,1
107.16,0,1,2,9,4,1,2,1
107.16,0,2,4,2,3,0,0,1
107.17,2,2,2,27,7,3,3,2
107.17,2,1,1,4,5,1,1,1
107.17,1,1,4,14,6,5,3,0
107.18,1,4,6,17,5,3,1,0
107.19,2,1,7,13,3,7,1,1
107.19,1,0,2,8,2,0,3,1
107.19,1,1,5,22,8,0,1,1
107.2,2,5,10,8,12,7,0,1
107.2,1,2,4,8,10,1,0,4
107.21,0,0,2,7,3,4,2,2
107.22,1,2,0,10,2,4,0,0
107.22,0,0,1,7,2,2,1,3
107.22,3,4,9,10,3,0,1,2
107.23,2,2,1,11,1,3,1,3
107.23,3,3,1,4,1,1,2,1
107.24,0,1,6,6,2,1,3,1
107.25,3,1,2,0,1,1,0,3
107.25,1,1,6,4,2,0,2,2
107.25,0,1,2,1,6,1,0,1
107.26,0,2,2,1,1,1,3,1
107.27,1,1,6,0,4,7,2,3
107.27,1,1,1,1,3,0,3,1
107.28,2,4,5,10,3,1,0,1
107.28,1,0,2,0,2,1,1,2
107.28,0,3,2,1,4,0,1,5
107.29,3,1,1,6,4,3,2,13
107.3,0,2,3,4,6,4,1,2
107.3,2,0,0,1,6,5,3,3
107.31,7,2,0,9,3,1,17,10
107.31,26,0,1,1,4,1,31,2
107.31,8,1,3,5,3,5,19,14
107.32,18,5,2,0,3,1,25,16
107.33,48,5,6,1,15,11,51,35
107.33,9,16,1,7,10,6,53,88
107.33,33,13,5,4,0,0,65,21
107.34,53,11,4,4,2,2,39,35
107.34,0,1,8,8,9,1,42,26
107.35,7,1,2,5,1,3,22,11
107.36,13,12,6,5,8,0,18,8
107.36,24,11,3,1,2,0,19,40
107.36,5,4,7,5,1,2,16,12
107.37,7,6,1,4,6,3,16,33
107.38,7,10,2,4,8,3,19,38
107.38,2,23,0,7,4,1,11,15
107.39,5,9,1,2,6,3,4,27
107.39,12,24,9,9,12,9,55,9
107.39,19,22,0,5,3,6,8,58
107.4,24,5,9,15,10,9,111,1
107.41,24,44,8,1,7,3,21,4
107.41,16,16,4,3,4,1,20,18
107.42,10,7,4,4,5,4,10,49
107.42,29,2,4,1,1,4,18,40
107.42,3,2,3,1,5,0,52,86
107.43,7,1,0,4,4,3,15,35
107.44,14,4,2,2,3,7,8,13
107.44,26,17,1,3,3,3,9,1
107.44,13,27,6,4,2,1,2,64
107.45,5,11,6,3,5,10,28,4
107.45,7,38,3,7,9,0,9,0
107.46,4,48,3,4,15,11,8,5
107.47,6,12,8,5,16,12,72,52
107.47,1,13,3,1,18,15,32,10
107.47,0,1,1,2,5,7,26,13
107.48,5,14,4,3,4,1,30,11
107.48,9,24,3,8,5,5,6,17
107.49,11,11,9,9,7,0,54,2
107.5,12,13,10,6,15,8,89,14
107.5,6,19,3,0,11,13,5,33
107.5,19,29,1,0,2,11,10,13
107.51,3,7,4,2,0,14,3,2
107.52,10,12,6,2,4,4,4,26
107.52,10,5,2,2,6,4,9,16
107.53,21,21,1,3,2,2,33,2
107.53,25,5,3,3,3,1,25,13
107.53,8,28,2,0,1,7,15,3
107.54,4,15,5,1,8,10,19,0
107.55,8,15,6,3,2,1,7,7
107.55,7,28,4,6,7,7,38,1
107.56,3,1,2,4,6,12,19,8
107.56,6,0,1,1,6,3,2,13
107.56,1,9,3,4,3,7,8,5
107.57,3,5,2,0,7,1,12,2
107.58,1,3,1,1,7,5,7,6
107.58,2,10,1,0,4,2,15,2
107.58,10,3,3,3,5,6,12,9
107.59,3,1,1,4,1,5,4,11
107.59,3,1,3,2,9,6,1,11
107.6,1,10,0,2,4,5,3,6
107.61,9,2,1,4,2,16,6,0
107.61,3,7,0,1,2,3,5,2
107.61,6,8,5,1,6,3,6,1
107.62,0,12,0,6,4,2,1,5
107.62,9,2,0,6,7,1,14,4
107.63,5,6,0,2,0,4,4,3
107.64,3,3,3,1,3,8,1,6
107.64,9,1,2,1,1,10,3,2
107.64,9,17,1,5,7,4,8,2
107.65,0,24,3,9,4,5,1,2
107.66,4,5,0,5,4,14,3,0
107.66,2,4,2,2,11,8,1,1
107.67,3,3,3,6,2,5,4,3
107.67,7,10,1,7,4,2,1,2
107.67,3,7,3,4,2,1,2,0
107.68,0,3,1,2,6,4,5,1
107.69,4,6,3,1,6,5,4,0
107.69,1,3,2,2,1,1,2,2
107.69,3,5,1,1,1,3,1,3
107.7,1,11,3,9,10,6,2,1
107.7,3,9,10,11,11,15,3,1
107.71,1,1,7,5,10,9,5,0
107.72,0,2,1,2,4,1,2,2
107.72,4,2,0,3,2,1,0,5
107.72,2,3,2,9,5,5,4,0
107.73,2,0,1,33,11,7,1,1
107.73,4,1,0,15,7,2,1,1
107.74,2,7,6,10,0,2,2,2
107.75,1,8,6,5,2,2,2,3
107.75,1,1,5,8,1,1,1,4
107.75,4,1,1,10,4,4,1,1
107.76,1,0,9,17,11,10,1,1
107.77,1,0,6,6,4,1,3,1
107.77,0,1,2,4,5,3,3,2
107.78,1,2,3,15,10,7,2,2
107.78,1,2,1,32,3,1,1,0
107.78,0,4,3,13,8,2,2,2
107.79,0,4,2,6,3,3,0,1
107.8,0,3,6,17,9,2,1,0
107.8,2,2,1,14,11,8,4,2
107.81,1,0,1,16,6,11,2,0
107.81,1,0,1,6,0,2,4,1
107.81,3,1,5,23,1,3,0,2
107.82,1,4,0,23,6,1,3,1
107.83,0,9,2,22,19,15,5,3
107.83,1,4,2,11,17,6,3,2
107.83,1,1,3,2,1,5,1,1
107.84,0,1,5,22,5,1,0,2
107.84,4,4,10,8,6,8,5,1
107.85,2,1,13,24,1,1,1,2
107.86,3,3,2,6,7,6,1,1
107.86,1,2,6,5,4,7,2,0
107.86,0,0,5,32,1,1,2,1
107.87,1,5,13,5,3,5,2,1
107.88,0,1,3,5,8,4,2,1
107.88,3,3,5,1,3,6,0,2
107.89,3,1,8,12,11,6,2,1
107.89,1,4,4,7,6,6,1,0
107.89,2,1,10,35,5,3,3,0
107.9,2,2,6,37,9,11,4,1
107.91,1,1,1,18,9,3,1,5
107.91,2,4,11,13,1,0,1,1
107.92,2,3,3,16,1,1,1,2
107.92,0,2,4,24,4,1,4,1
107.92,3,2,4,7,4,7,2,5
107.93,0,4,4,7,5,4,0,3
107.94,1,1,4,22,2,0,1,1
107.94,0,2,7,11,6,4,2,1
107.94,1,3,4,14,3,5,3,3
107.95,4,2,1,2,3,15,1,2
107.95,0,0,8,9,3,13,4,0
107.96,1,2,4,1,9,1,5,1
107.97,1,1,14,11,2,3,3,0
107.97,1,7,5,4,2,7,2,1
107.97,4,15,3,1,7,12,4,3
107.98,3,3,3,3,2,9,1,1
107.98,1,6,4,5,1,6,3,3
107.99,3,2,9,4,1,2,0,9
108,11,4,2,15,2,3,8,3
108,7,4,0,10,7,2,15,15
108,7,8,4,9,4,7,3,15
108.01,2,18,3,4,10,6,13,16
108.02,4,3,10,5,7,3,46,63
108.02,1,6,8,5,14,7,3,91
108.03,4,20,4,9,8,3,10,72
108.03,19,7,3,2,5,4,41,22
108.03,5,5,9,0,11,13,71,6
108.04,4,11,9,2,17,2,86,18
108.05,5,1,1,3,6,8,7,6
108.05,33,2,4,2,13,1,6,70
108.06,11,0,0,8,4,9,7,39
108.06,4,17,3,2,9,17,47,30
108.06,3,1,4,0,8,1,19,40
108.07,13,15,4,3,10,6,7,34
108.08,6,5,2,2,4,5,1,44
108.08,24,10,2,3,1,8,42,57
108.08,14,18,4,1,2,6,65,21
108.09,33,11,1,3,5,2,4,1
108.09,25,9,5,6,1,1,26,11
108.1,30,6,10,10,10,6,31,20
108.11,8,11,8,6,5,2,30,1
108.11,18,6,1,7,1,6,34,28
108.11,16,16,7,2,0,1,24,28
108.12,35,17,9,4,12,11,32,78
108.12,20,23,12,2,11,2,28,16
108.13,14,7,2,1,5,1,4,2
108.14,26,5,9,5,2,0,8,3
108.14,30,13,5,3,7,11,6,29
108.14,6,23,2,1,3,6,6,19
108.15,51,17,6,14,7,7,35,26
108.16,4,17,9,5,13,27,66,5
108.16,11,33,7,7,5,10,22,35
108.17,15,80,14,6,28,22,21,7
108.17,42,4,14,4,14,8,26,36
108.17,6,15,2,6,1,2,9,49
108.18,18,9,1,6,2,2,13,86
108.19,7,24,3,1,3,0,16,11
108.19,9,23,2,6,9,12,6,24
108.19,35,8,1,2,4,5,8,18
108.2,42,10,11,2,5,8,24,63
108.2,1,43,4,6,5,1,29,25
108.21,2,28,4,2,0,4,12,1
108.22,32,8,4,2,10,4,14,21
108.22,30,7,3,6,1,9,25,10
108.22,8,20,1,8,10,13,3,26
108.23,1,21,1,2,3,9,22,44
108.23,7,4,2,2,2,12,1,1
108.24,3,8,1,3,14,10,23,21
108.25,6,1,5,0,3,2,11,10
108.25,0,2,1,2,7,5,12,4
108.25,2,30,6,2,2,5,24,7
108.26,0,8,0,1,5,1,3,19
108.27,9,3,1,5,7,15,5,28
108.27,7,16,3,1,4,11,1,8
108.28,8,19,8,0,1,8,5,17
108.28,3,33,2,1,1,4,10,5
108.28,3,3,2,1,3,2,8,8
108.29,12,10,2,4,6,4,13,32
108.3,2,14,2,1,3,5,22,22
108.3,2,18,0,6,3,4,11,16
108.31,0,15,0,2,4,5,13,2
108.31,5,4,1,4,0,2,10,28
108.31,3,0,6,0,10,5,22,48
108.32,1,15,1,1,5,1,27,21
108.33,2,9,2,2,1,4,21,11
108.33,0,3,2,0,1,7,6,4
108.33,4,7,3,5,2,5,5,2
108.34,6,2,0,0,3,1,9,10
108.34,9,6,2,2,1,1,1,5
108.35,14,2,4,0,1,2,5,11
108.36,4,6,1,1,4,4,6,15
108.36,12,7,1,2,4,11,3,1
108.36,2,6,3,1,4,2,6,14
108.37,3,2,0,3,1,10,3,8
108.38,1,5,1,6,9,10,3,2
108.38,2,3,1,4,10,7,3,14
108.39,3,3,4,2,7,1,7,1
108.39,3,6,8,6,5,1,1,9
108.39,4,5,5,4,5,8,3,2
108.4,15,7,1,5,3,1,6,0
108.41,4,1,7,10,4,1,6,1
108.41,3,4,5,21,1,1,2,2
108.42,7,2,3,24,10,8,5,14
108.42,7,5,5,17,13,6,9,2
108.42,2,4,5,3,1,4,1,1
108.43,2,1,11,33,4,10,3,2
108.44,2,5,3,28,11,8,5,2
108.44,2,5,7,16,0,2,0,1
108.44,3,0,3,3,2,5,1,1
108.45,1,5,3,23,1,3,1,3
108.45,6,5,5,46,12,6,2,2
108.46,4,2,0,8,2,1,1,0
108.47,1,3,3,10,11,10,3,0
108.47,1,7,1,11,3,1,2,1
108.47,1,4,7,7,5,11,6,5
108.48,1,3,1,6,6,1,2,1
108.48,1,1,1,8,5,3,2,2
108.49,2,1,3,2,10,7,0,0
108.5,1,2,8,18,5,5,0,1
108.5,6,3,1,3,4,4,1,2
108.5,2,4,1,7,10,13,2,3
108.51,2,1,9,25,5,0,0,1
108.52,2,3,2,21,2,6,2,4
108.52,6,0,2,12,7,3,1,1
108.53,1,3,6,28,7,4,4,3
108.53,5,6,17,1,13,10,5,4
108.53,2,3,8,4,12,11,1,3
108.54,3,1,16,2,8,10,0,1
108.55,1,0,10,19,17,3,0,1
108.55,3,3,7,7,12,2,0,1
108.56,3,3,5,22,2,0,2,0
108.56,1,3,4,11,5,5,3,3
108.56,0,0,1,26,3,6,3,0
108.57,1,2,4,14,8,6,2,0
108.58,0,4,5,15,13,0,0,3
108.58,2,1,4,14,8,3,0,2
108.58,2,6,11,19,20,11,4,4
108.59,2,0,3,12,9,4,2,2
108.59,1,0,5,1,0,5,1,1
108.6,3,4,7,5,19,12,5,0
108.61,2,1,8,5,1,1,2,1
108.61,1,1,2,29,17,11,0,1
108.61,0,4,5,30,11,2,2,2
108.62,2,2,6,14,4,3,2,0
108.62,2,3,2,19,3,2,2,2
108.63,3,4,7,16,11,10,3,4
108.64,2,3,17,34,3,1,1,1
108.64,0,6,12,28,9,1,1,2
108.64,0,2,12,3,5,8,2,1
108.65,1,1,2,2,7,6,3,1
108.66,0,2,6,25,4,3,1,1
108.66,2,1,1,8,11,6,3,3
108.67,2,0,7,3,7,3,2,2
108.67,3,5,14,21,8,4,0,1
108.67,0,2,1,12,5,1,2,0
108.68,0,2,9,40,8,4,4,1
108.69,2,4,6,28,4,14,1,1
108.69,2,3,7,13,9,7,2,4
108.69,3,1,5,6,1,4,1,3
108.7,1,1,2,3,2,4,3,2
108.7,2,1,4,14,3,3,0,3
108.71,1,0,10,25,1,3,3,3
108.72,3,3,4,8,7,2,2,2
108.72,0,0,7,29,1,8,2,2
108.72,0,0,5,47,8,1,2,1
108.73,1,5,13,6,3,3,0,3
108.73,1,1,2,17,11,10,3,2
108.74,0,0,1,9,3,6,0,1
108.75,1,2,3,5,0,2,1,1
108.75,3,0,2,13,3,10,2,5
108.75,1,1,4,11,2,2,1,2
108.76,2,4,0,15,8,2,3,1
108.77,7,1,2,20,0,2,1,2
108.77,3,2,1,7,1,1,2,0
108.78,1,1,1,13,0,2,1,0
108.78,2,0,5,0,0,0,2,0
108.78,0,2,5,8,0,3,2,2
108.79,5,6,1,5,3,2,1,2
108.8,2,2,0,6,1,3,1,13
108.8,2,1,7,0,7,2,30,22
108.81,3,0,1,5,7,4,12,4
108.81,4,2,6,4,4,1,5,42
108.81,18,2,4,6,12,9,57,63
108.82,15,5,3,7,10,24,50,27
108.83,9,6,2,2,2,19,41,4
108.83,36,16,4,0,17,38,72,8
108.83,7,1,7,1,5,9,87,8
108.84,2,2,4,3,14,3,78,29
108.84,1,14,2,1,3,1,8,41
108.85,18,9,1,3,11,9,49,31
108.86,11,4,12,7,6,1,76,1
108.86,4,0,9,6,0,1,56,22
108.86,5,11,4,2,7,10,29,41
108.87,9,1,2,11,3,11,37,66
108.88,20,2,3,1,2,6,6,52
108.88,8,1,1,0,3,6,34,18
108.89,20,1,2,5,4,1,5,34
108.89,1,3,2,2,3,12,7,47
108.89,8,14,1,2,11,3,65,78
108.9,2,11,1,1,6,1,15,30
108.91,20,22,5,5,8,2,36,32
108.91,21,4,1,7,1,5,19,12
108.92,43,35,1,0,2,10,8,5
108.92,41,21,3,1,4,18,17,9
108.92,7,0,5,4,4,1,25,2
108.93,41,17,7,5,10,6,19,48
108.94,71,26,4,7,1,0,26,24
108.94,50,4,1,1,13,8,4,39
108.94,67,30,2,1,3,10,14,34
108.95,3,20,1,1,9,3,37,10
108.95,4,20,3,4,9,31,2,44
108.96,51,37,6,3,4,10,1,26
108.97,36,5,10,8,7,2,12,37
108.97,33,33,0,4,3,3,3,11
108.97,1,22,2,2,0,8,4,45
108.98,21,15,2,4,2,7,17,10
108.98,10,8,5,2,9,9,11,49
108.99,23,10,1,5,6,5,27,25
109,3,15,6,6,13,14,37,46
109,14,14,4,11,5,1,6,14
109,19,17,0,0,16,40,16,24
109.01,14,4,1,3,13,7,11,35
109.02,4,8,3,1,3,16,28,24
109.02,1,13,7,2,14,10,17,19
109.03,10,0,2,2,10,7,9,2
109.03,6,4,0,3,15,22,3,24
109.03,19,0,3,8,8,12,24,29
109.04,10,7,5,4,16,23,7,11
109.05,0,12,3,0,10,17,58,13
109.05,4,6,6,1,5,1,15,12
109.06,9,4,0,1,14,44,23,36
109.06,14,23,8,10,1,6,4,39
109.06,7,14,1,2,11,18,13,1
109.07,3,7,4,7,3,7,7,32
109.08,8,3,5,3,9,4,4,20
109.08,2,8,5,2,10,13,8,12
109.08,2,11,4,2,7,1,17,5
109.09,23,1,2,4,4,4,3,10
109.09,13,4,2,2,1,2,2,7
109.1,3,11,1,5,10,11,5,1
109.11,7,8,2,0,1,2,13,12
109.11,1,4,4,2,7,2,0,5
109.11,2,13,10,7,3,8,8,9
109.12,0,3,1,7,3,6,2,5
109.12,4,5,2,2,0,2,6,4
109.13,5,3,1,6,2,5,3,5
109.14,3,12,3,14,8,5,6,3
109.14,3,3,6,2,1,6,3,2
109.14,4,5,2,1,12,10,7,4
109.15,3,7,1,1,1,1,4,3
109.16,3,9,2,3,6,8,4,5
109.16,7,3,1,4,10,1,2,8
109.17,0,3,3,21,3,2,5,0
109.17,3,0,2,1,3,4,3,2
109.17,4,5,1,4,7,4,3,3
109.18,2,8,2,10,4,6,1,4
109.19,1,10,8,0,6,3,4,1
109.19,6,1,1,13,10,10,1,1
109.19,8,5,5,36,9,0,3,6
109.2,4,1,8,12,6,10,3,3
109.2,2,4,11,18,18,2,6,5
109.21,6,1,5,18,10,6,1,3
109.22,1,1,2,0,2,18,0,0
109.22,1,3,18,17,3,16,5,3
109.22,6,8,12,3,5,1,5,3
109.23,0,4,5,7,14,10,1,2
109.23,1,2,12,30,18,12,3,2
109.24,2,1,1,17,4,3,0,2
109.25,3,2,3,11,7,19,8,1
109.25,4,2,2,3,2,11,1,1
109.25,2,1,12,29,8,6,2,2
109.26,3,1,8,28,10,8,1,4
109.27,5,9,7,12,9,10,1,3
109.27,1,1,3,0,9,6,1,2
109.28,0,3,14,17,4,2,1,1
109.28,1,1,1,25,8,6,2,5
109.28,1,6,8,34,1,1,2,0
109.29,2,7,1,12,5,6,4,2
109.3,2,2,7,25,2,7,1,0
109.3,2,4,9,5,3,4,0,1
109.31,1,4,3,10,1,2,1,3
109.31,1,4,0,6,4,5,0,0
109.31,2,0,1,19,1,13,5,3
109.32,3,1,3,21,1,2,0,2
109.33,1,2,4,38,3,3,2,1
109.33,2,1,1,6,10,7,1,0
109.33,3,1,2,17,0,4,1,0
109.34,0,2,4,7,1,6,1,0
109.34,3,2,7,3,10,12,5,3
109.35,0,5,4,9,2,4,1,1
109.36,3,2,1,19,3,2,1,0
109.36,2,0,0,0,9,2,0,3
109.36,1,1,10,12,11,6,2,3
109.37,1,1,3,0,1,4,4,2
109.38,1,0,4,16,1,1,1,1
109.38,1,2,6,35,10,4,1,0
109.39,1,0,3,5,4,3,3,1
109.39,1,0,3,15,1,0,1,0
109.39,1,1,1,3,7,5,5,4
109.4,1,2,2,5,2,4,1,2
109.41,1,1,4,10,3,2,2,1
109.41,0,1,8,11,1,2,0,0
109.42,4,2,8,15,5,2,3,2
109.42,1,3,7,7,2,5,2,0
109.42,1,2,1,5,7,3,2,1
109.43,2,1,1,4,0,2,1,1
109.44,0,0,4,15,0,9,2,0
109.44,0,2,0,2,8,2,0,1
109.44,4,3,6,1,6,6,2,0
109.45,1,1,1,11,8,4,5,1
109.45,3,3,1,2,0,2,1,1
109.46,1,0,4,4,5,6,3,0
109.47,2,0,4,11,5,2,1,4
109.47,1,4,4,16,0,5,1,0
109.47,1,0,5,8,1,3,1,2
109.48,0,2,1,2,4,1,0,3
109.48,0,0,2,2,3,2,3,1
109.49,1,1,2,2,8,4,1,1
109.5,0,6,7,1,5,2,3,3
109.5,5,3,3,2,1,3,6,3
109.5,1,1,3,5,1,2,10,1
109.51,3,2,4,8,1,1,1,1
109.52,0,3,3,11,2,1,13,1
109.52,6,5,5,11,3,2,37,2
109.53,2,4,3,18,4,4,39,6
109.53,1,1,4,15,7,2,10,5
109.53,0,2,3,4,6,10,19,2
109.54,3,0,1,9,3,3,29,1
109.55,1,1,4,5,0,5,21,4
109.55,3,1,0,14,5,3,28,5
109.56,0,2,2,4,1,3,3,0
109.56,2,7,1,2,6,2,3,3
109.56,4,23,13,2,7,0,1,3
109.57,1,8,9,5,12,6,15,2
109.58,2,5,6,15,8,3,44,0
109.58,1,1,1,1,2,0,17,2
109.58,2,6,2,5,1,1,1,2
109.59,7,1,6,1,5,3,17,4
109.59,4,3,4,2,1,1,11,2
109.6,2,2,5,9,1,2,8,1
109.61,12,4,5,4,1,4,41,20
109.61,10,2,1,3,2,1,0,20
109.61,6,3,2,0,20,5,15,13
109.62,2,8,10,3,19,3,15,34
109.62,1,6,8,5,20,27,41,26
109.63,16,3,4,2,5,13,1,14
109.64,16,33,2,3,3,7,8,16
109.64,13,15,5,4,3,4,19,5
109.64,6,6,0,3,6,15,19,23
109.65,3,12,0,0,2,6,19,12
109.66,7,15,4,1,10,1,26,10
109.66,7,3,2,0,18,6,44,21
109.67,7,20,2,5,5,11,42,11
109.67,22,11,3,3,15,18,32,32
109.67,12,3,5,0,1,4,9,13
109.68,0,11,8,5,7,3,30,17
109.69,4,33,2,9,6,7,21,11
109.69,9,56,11,5,3,2,19,3
109.69,17,5,2,0,6,5,7,8
109.7,3,10,9,7,14,12,55,15
109.7,12,14,8,10,14,5,47,41
109.71,39,3,1,4,2,3,7,21
109.72,3,14,5,1,2,2,32,8
109.72,12,12,5,1,2,4,33,15
109.72,6,1,1,2,3,11,42,5
109.73,20,31,8,5,9,4,21,13
109.73,0,3,1,3,3,3,1,5
109.74,21,8,4,0,9,7,25,6
109.75,2,2,6,9,11,6,35,7
109.75,1,5,4,1,8,7,9,7
109.75,8,16,2,2,4,1,2,5
109.76,26,5,1,7,6,1,10,44
109.77,15,15,10,6,7,1,24,11
109.77,31,12,9,6,17,6,21,29
109.78,20,20,5,2,6,4,2,14
109.78,17,22,5,10,3,6,2,12
109.78,18,24,3,3,2,3,3,72
109.79,15,9,1,0,6,4,9,2
109.8,7,1,3,4,1,3,3,9
109.8,6,12,1,1,1,2,12,16
109.81,6,2,8,4,5,0,13,36
109.81,8,21,8,3,2,3,4,9
109.81,2,6,1,2,5,5,15,24
109.82,11,8,1,2,5,2,7,1
109.83,12,3,2,3,1,2,1,6
109.83,12,0,1,3,2,3,1,11
109.83,8,6,3,3,4,3,3,1
109.84,17,6,1,1,4,3,4,4
109.84,24,22,1,6,1,3,3,20
109.85,5,10,1,4,2,2,0,6
109.86,8,8,1,1,3,2,2,2
109.86,10,0,3,1,8,1,7,7
109.86,4,5,7,11,4,2,2,12
109.87,0,9,1,4,2,4,11,1
109.88,5,7,5,6,8,6,1,2
109.88,5,0,2,1,3,3,4,1
109.89,5,1,1,2,6,5,5,4
109.89,6,12,6,7,9,1,4,2
109.89,3,9,7,3,7,4,3,1
109.9,1,7,3,15,2,2,3,3
109.91,5,7,3,0,2,1,1,3
109.91,4,11,4,4,2,0,1,4
109.92,2,9,2,8,6,4,0,4
109.92,0,1,1,9,7,5,5,2
109.92,1,7,5,1,5,5,5,7
109.93,4,11,3,0,7,9,4,1
109.94,8,5,1,7,8,4,1,3
109.94,2,26,1,1,7,6,0,0
109.94,9,2,2,8,6,2,2,2
109.95,18,5,2,11,1,3,2,1
109.95,2,11,6,8,2,10,3,6
109.96,4,10,2,16,10,7,3,8
109.97,0,5,6,18,6,11,4,2
109.97,7,0,7,6,4,1,0,0
109.97,2,2,4,16,1,0,1,0
109.98,1,7,4,1,10,12,5,1
109.98,8,4,0,21,10,10,0,2
109.99,1,4,2,41,5,14,1,0
110,0,1,3,4,2,0,1,1
110,1,2,13,6,2,3,4,5
110,4,3,7,33,6,4,2,2
110.01,5,3,5,34,8,4,0,3
110.02,1,6,8,1,0,14,4,3
110.02,5,3,3,12,2,18,2,0
110.03,0,2,9,13,2,8,2,1
110.03,4,3,4,35,8,12,2,2
110.03,1,5,9,10,9,20,0,2
110.04,0,2,3,35,5,17,5,2
110.05,2,3,6,21,5,2,2,0
110.05,1,0,2,24,2,8,1,3
110.06,3,2,2,3,13,7,3,3
110.06,2,0,4,6,1,1,0,0
110.06,4,11,14,29,8,3,2,0
110.07,3,4,7,2,4,2,0,0
110.08,1,2,24,4,10,1,2,0
110.08,1,1,10,26,7,9,2,1
110.08,2,1,5,40,8,15,5,2
110.09,0,1,12,8,8,2,1,1
110.09,2,6,8,15,16,10,3,0
110.1,1,3,10,37,13,12,2,2
110.11,0,1,11,14,1,3,0,2
110.11,0,3,3,20,5,4,2,3
110.11,2,1,0,14,2,1,0,3
110.12,2,4,1,3,0,0,0,1
110.12,2,4,12,6,3,9,3,0
110.13,3,2,8,21,7,4,1,2
110.14,0,1,1,11,7,7,1,0
110.14,2,2,3,2,2,7,3,3
110.14,3,0,3,8,2,4,0,2
110.15,1,1,4,7,3,1,1,2
110.16,1,0,7,7,1,0,2,1
110.16,1,1,1,9,6,1,2,0
110.17,2,2,10,4,1,4,3,3
110.17,2,0,3,15,4,0,1,3
110.17,1,1,6,6,3,7,4,1
110.18,2,2,7,12,6,3,0,0
110.19,0,5,4,58,7,3,1,1
110.19,2,3,8,8,1,4,1,0
110.19,0,2,0,11,9,5,1,0
110.2,2,0,4,5,1,4,3,1
110.2,3,1,0,15,3,2,1,1
110.21,1,2,10,9,2,4,3,1
110.22,0,1,5,6,5,4,0,0
110.22,1,1,7,3,0,1,3,0
110.22,1,3,4,9,2,4,4,2
110.23,2,1,7,7,1,5,4,0
110.23,1,2,0,10,4,1,1,2
110.24,1,1,3,8,2,5,1,0
110.25,0,0,2,5,0,2,1,1
110.25,1,1,1,5,6,3,1,4
110.25,0,1,2,4,5,3,3,0
110.26,3,1,0,3,1,2,0,1
110.27,1,3,4,4,1,2,2,3
110.27,1,1,0,5,0,0,0,1
110.28,0,4,1,2,2,1,1,0
110.28,2,4,0,14,3,3,4,1
110.28,2,0,2,8,3,4,9,1
110.29,1,1,0,3,5,2,2,5
110.3,2,1,1,2,1,1,9,1
110.3,2,2,2,6,2,3,5,15
110.31,7,2,1,5,4,9,9,22
110.31,4,4,1,1,9,3,13,1
110.31,10,7,2,3,2,3,21,1
110.32,9,6,1,0,4,4,36,13
110.33,3,1,17,11,16,6,91,29
110.33,20,2,13,9,14,5,106,7
110.33,6,15,4,3,5,5,55,4
110.34,2,5,3,5,9,5,4,21
110.34,5,9,6,1,6,3,3,7
110.35,6,1,1,4,2,2,39,8
110.36,1,5,1,3,7,8,18,14
110.36,7,7,1,1,1,5,40,2
110.36,12,11,3,0,2,0,84,10
110.37,17,9,1,2,3,6,13,28
110.38,6,12,1,0,2,0,30,19
110.38,13,8,2,7,7,4,19,21
110.39,16,27,9,0,4,5,10,28
110.39,8,15,2,0,1,0,28,9
110.39,15,8,2,5,4,2,12,25
110.4,5,1,0,5,4,1,21,14
110.41,7,22,1,0,9,6,22,4
110.41,4,13,3,10,1,1,7,10
110.42,12,4,2,7,8,12,22,31
110.42,10,1,0,6,2,6,11,0
110.42,1,0,5,7,3,4,36,43
110.43,14,12,5,2,2,1,58,5
110.44,3,12,5,6,7,1,39,17
110.44,13,17,7,3,0,4,2,14
110.44,3,8,1,10,3,0,27,2
110.45,6,4,8,4,4,2,14,19
110.45,5,4,1,3,1,5,7,18
110.46,1,7,1,3,4,0,5,1
110.47,11,4,1,0,19,8,55,1
110.47,7,23,4,9,10,2,37,8
110.47,24,7,1,3,18,8,34,29
110.48,8,12,1,2,4,4,18,0
110.48,9,1,3,5,2,1,18,3
110.49,1,8,4,2,2,8,33,22
110.5,3,8,4,6,26,17,24,19
110.5,12,3,2,4,9,3,38,3
110.5,1,2,2,0,2,4,33,12
110.51,9,2,2,8,1,0,16,9
110.52,2,6,6,1,0,1,2,10
110.52,2,3,3,2,10,10,14,0
110.53,8,9,0,6,2,0,19,18
110.53,0,9,5,2,4,5,2,10
110.53,9,1,5,0,3,6,6,12
110.54,0,3,1,3,4,8,4,1
110.55,5,7,1,2,1,2,1,14
110.55,5,1,7,4,4,4,16,4
110.56,3,5,3,2,7,7,21,4
110.56,13,1,1,2,9,8,26,25
110.56,9,0,1,3,10,8,17,6
110.57,1,4,1,3,2,1,9,23
110.58,2,10,1,2,0,0,1,1
110.58,9,10,1,6,5,5,5,2
110.58,1,0,6,4,2,3,24,5
110.59,4,11,0,3,5,2,5,5
110.59,3,7,0,3,5,8,13,5
110.6,11,2,3,4,8,4,30,19
110.61,2,8,2,6,5,9,1,14
110.61,1,12,3,7,2,2,6,3
110.61,1,31,4,7,2,2,13,12
110.62,2,2,0,2,6,1,25,3
110.62,2,0,2,1,5,0,22,6
110.63,1,3,3,1,3,2,1,4
110.64,4,11,2,1,1,5,0,3
110.64,2,6,1,1,2,9,2,1
110.64,2,2,1,3,4,3,10,6
110.65,4,14,2,2,3,4,1,9
110.66,9,4,2,6,8,13,1,3
110.66,2,6,5,1,3,1,0,2
110.67,1,7,2,27,11,4,16,1
110.67,3,2,1,3,1,6,8,1
110.67,0,8,6,11,9,6,7,0
110.68,3,1,2,26,12,1,1,2
110.69,1,2,3,12,2,1,9,5
110.69,1,5,8,10,9,10,3,3
110.69,3,2,12,28,11,1,3,2
110.7,0,4,1,13,6,5,3,0
110.7,2,7,5,15,3,3,2,5
110.71,1,6,5,8,11,1,1,1
110.72,1,3,7,2,11,10,0,2
110.72,1,0,2,29,4,3,0,1
110.72,4,7,0,8,5,9,8,5
110.73,1,6,10,32,10,6,3,3
110.73,1,3,1,4,4,3,2,0
110.74,1,6,3,38,3,2,1,0
110.75,2,4,12,24,5,1,3,3
110.75,4,6,13,25,2,1,0,3
110.75,2,3,5,34,2,1,1,1
110.76,0,3,0,17,1,2,1,1
110.77,3,3,5,42,1,2,4,2
110.77,1,5,15,54,15,3,1,1
110.78,1,0,8,19,4,6,3,4
110.78,2,0,2,2,0,6,1,1
110.78,2,3,3,5,2,3,5,5
110.79,1,2,6,13,13,5,4,3
110.8,3,6,10,29,25,10,3,1
110.8,1,3,2,35,1,2,2,0
110.81,1,4,4,78,13,6,2,3
110.81,0,3,0,18,8,1,1,0
110.81,0,1,15,19,0,1,2,1
110.82,1,1,21,40,9,1,0,1
110.83,2,4,10,2,2,0,5,3
110.83,1,1,13,31,4,1,2,1
110.83,1,2,4,8,1,6,2,1
110.84,2,0,2,14,0,7,1,2
110.84,1,3,7,27,9,4,0,5
110.85,1,4,3,22,0,1,1,2
110.86,3,4,1,23,7,4,0,2
110.86,3,8,4,9,1,5,2,2
110.86,3,1,13,7,4,2,1,3
110.87,0,1,8,28,1,2,1,2
110.88,1,7,1,22,11,1,1,4
110.88,1,3,8,5,4,2,2,2
110.89,1,0,10,4,2,4,1,2
110.89,1,1,6,5,2,1,1,2
110.89,3,2,6,10,4,5,1,0
110.9,0,1,5,19,2,2,1,2
110.91,4,2,9,20,1,0,0,1
110.91,0,2,2,9,3,3,1,1
110.92,1,1,0,8,6,2,0,0
110.92,2,4,0,23,9,1,1,1
110.92,2,0,1,16,1,3,3,3
110.93,2,2,1,8,3,1,0,0
110.94,2,8,1,8,14,9,6,1
110.94,2,3,7,1,10,6,0,0
110.94,1,1,1,5,7,3,2,2
110.95,1,0,5,11,3,1,4,1
110.95,1,3,1,10,1,2,4,3
110.96,3,2,2,3,5,4,3,1
110.97,0,2,11,2,5,0,1,1
110.97,0,3,1,16,7,4,3,0
110.97,1,2,0,4,2,3,3,0
110.98,2,1,2,9,2,1,0,2
110.98,2,4,1,8,7,4,3,4
110.99,1,2,1,9,4,4,4,0
111,1,1,4,3,5,2,2,0
111,1,3,0,13,5,3,1,1
111,2,2,3,12,3,2,1,2
111.01,3,1,1,2,0,3,6,1
111.02,3,2,3,7,5,0,6,1
111.02,1,3,2,3,4,10,7,2
111.03,2,3,2,7,2,1,17,1
111.03,0,2,9,5,2,4,9,4
111.03,2,2,7,8,4,2,13,7
111.04,2,2,3,2,8,7,18,7
111.05,0,3,7,11,7,2,2,4
111.05,8,0,0,3,0,0,27,9
111.06,12,9,8,9,11,2,41,4
111.06,1,1,3,3,0,0,12,24
111.06,3,2,2,4,2,5,13,2
111.07,1,1,1,2,2,0,13,7
111.08,1,2,8,4,9,9,50,15
111.08,0,3,9,6,6,1,32,7
111.08,3,0,0,3,4,1,15,10
111.09,1,1,0,4,5,3,7,6
111.09,9,5,1,7,7,5,2,10
111.1,11,12,1,0,2,4,14,1
111.11,30,17,6,6,7,7,22,8
111.11,4,4,3,4,6,3,12,14
111.11,11,7,6,0,12,11,15,9
111.12,1,20,3,4,1,1,9,6
111.12,17,26,4,0,8,5,32,5
111.13,1,33,2,0,1,1,2,9
111.14,15,27,3,1,2,0,11,27
111.14,24,39,3,2,7,7,17,7
111.14,10,7,0,7,8,4,7,6
111.15,2,32,5,7,8,9,16,0
111.16,9,19,8,7,10,9,59,8
111.16,3,19,5,9,4,0,64,11
111.17,7,23,1,8,1,4,29,23
111.17,6,32,2,11,17,5,41,14
111.17,5,25,6,3,1,1,15,6
111.18,1,10,1,3,10,6,40,11
111.19,10,6,4,7,5,7,12,10
111.19,11,9,4,2,9,11,3,22
111.19,2,10,5,2,2,9,35,21
111.2,10,11,1,1,11,13,24,2
111.2,17,9,2,1,3,16,24,6
111.21,0,12,3,3,7,17,12,1
111.22,36,16,8,2,1,13,18,13
111.22,7,21,1,4,5,17,51,6
111.22,8,10,7,9,12,5,78,15
111.23,6,17,3,3,0,6,1,17
111.23,3,26,2,3,6,1,30,16
111.24,6,9,0,4,5,2,36,9
111.25,16,18,3,3,2,10,2,21
111.25,5,14,3,5,0,28,24,1
111.25,6,14,4,3,22,38,63,31
111.26,3,16,10,1,4,1,38,14
111.27,9,2,15,5,8,27,6,10
111.27,9,15,10,3,37,54,10,4
111.28,1,9,3,2,13,26,8,30
111.28,9,21,3,1,12,67,10,27
111.28,27,17,3,5,0,15,25,43
111.29,1,10,14,13,2,4,5,13
111.3,6,28,11,13,38,13,4,18
111.3,37,50,5,19,116,76,8,18
111.31,12,46,18,20,40,72,27,25
111.31,3,54,0,11,83,44,3,5
111.31,6,23,10,5,7,33,26,26
111.32,7,0,11,32,81,79,19,8
111.33,13,1,5,20,22,22,3,47
111.33,12,11,7,11,33,21,4,21
111.33,28,47,2,14,24,20,1,13
111.34,5,20,2,7,35,5,5,11
111.34,8,7,0,13,31,25,2,19
111.35,4,11,6,14,12,12,6,6
111.36,20,6,6,10,3,4,11,14
111.36,7,12,3,4,27,31,4,11
111.36,6,16,8,8,18,26,10,16
111.37,1,4,3,3,2,7,7,6
111.38,11,9,2,0,18,17,5,6
111.38,17,28,0,2,5,20,3,2
111.39,1,16,1,3,7,37,1,3
111.39,1,7,2,7,10,14,3,0
111.39,3,5,1,0,2,7,11,3
111.4,8,8,4,15,14,3,0,8
111.41,7,9,0,23,9,7,5,8
111.41,1,7,2,3,9,11,3,8
111.42,0,4,1,6,5,5,1,4
111.42,4,13,3,4,2,4,2,2
111.42,11,1,3,2,8,12,7,7
111.43,5,2,2,3,3,7,3,4
111.44,5,6,1,7,10,20,10,3
111.44,2,3,4,3,1,2,2,1
111.44,1,3,2,7,2,3,3,1
111.45,1,5,6,1,3,1,5,5
111.45,23,21,2,0,1,5,2,1
111.46,1,1,3,9,4,3,3,1
111.47,2,7,2,21,2,2,2,1
111.47,3,5,4,20,2,5,0,1
111.47,5,7,3,6,3,8,2,2
111.48,8,6,3,9,5,9,3,1
111.48,4,5,14,22,13,22,4,1
111.49,7,1,6,1,0,1,3,5
111.5,5,7,6,6,1,2,2,1
111.5,4,11,1,8,4,3,1,3
111.5,5,3,9,62,5,1,3,1
111.51,4,5,9,57,5,13,1,0
111.52,3,2,7,0,8,5,1,2
111.52,2,10,5,33,8,9,2,2
111.53,4,4,4,33,8,13,4,1
111.53,4,1,5,12,3,1,2,2
111.53,3,3,4,5,3,4,3,1
111.54,2,1,1,12,7,7,4,1
111.55,1,3,7,0,10,5,2,2
111.55,4,0,7,23,7,1,4,0
111.56,8,14,5,21,3,5,0,0
111.56,2,11,2,11,1,5,1,3
111.56,1,7,20,79,14,3,3,2
111.57,0,5,7,6,7,9,3,1
111.58,2,3,6,35,6,6,1,2
111.58,1,2,0,29,9,1,0,1
111.58,3,5,14,6,14,7,1,1
111.59,1,1,3,14,20,15,4,1
111.59,2,5,4,18,16,12,3,1
111.6,3,5,16,8,4,3,5,1
111.61,0,3,1,5,3,4,0,1
111.61,1,0,14,2,2,0,2,0
111.61,1,8,13,3,6,6,5,1
111.62,1,0,9,21,2,2,1,0
111.62,1,3,2,5,0,1,0,3
111.63,3,1,0,27,2,2,3,3
111.64,0,1,4,8,6,2,1,2
111.64,2,2,2,17,11,2,1,2
111.64,0,1,0,30,7,3,1,0
111.65,1,5,7,6,4,3,1,2
111.66,0,4,3,22,1,3,1,1
111.66,1,9,1,25,6,6,3,1
111.67,1,3,3,18,2,0,4,1
111.67,0,2,5,21,11,7,2,2
111.67,1,10,4,25,0,2,0,1
111.68,2,2,3,21,6,9,2,3
111.69,0,0,6,3,5,1,0,2
111.69,2,3,3,15,2,2,1,3
111.69,1,9,5,46,2,2,0,0
111.7,1,3,6,8,6,4,1,0
111.7,0,1,1,9,4,4,1,0
111.71,3,2,9,12,1,2,0,1
111.72,2,2,4,7,4,3,1,4
111.72,1,2,0,3,8,3,2,1
111.72,1,4,2,2,1,0,2,0
111.73,1,2,1,7,4,2,1,1
111.73,0,1,2,4,0,0,1,1
111.74,2,0,3,4,7,1,1,3
111.75,7,5,4,12,2,1,0,1
111.75,2,1,4,2,2,2,2,3
111.75,0,3,2,11,4,5,4,1
111.76,1,2,3,1,2,3,2,3
111.77,2,2,3,9,6,1,0,1
111.77,2,1,7,9,2,1,17,0
111.78,1,7,1,4,1,0,30,5
111.78,2,10,1,7,4,4,20,6
111.78,6,4,0,2,7,4,4,2
111.79,5,4,1,10,1,2,10,13
111.8,1,13,0,2,7,10,24,4
111.8,22,13,1,1,1,1,22,2
111.81,8,6,2,0,9,6,35,2
111.81,3,4,4,1,11,0,40,9
111.81,9,6,3,3,2,2,32,4
111.82,12,1,1,0,6,8,23,3
111.83,5,10,3,3,3,1,47,11
111.83,5,2,3,2,3,1,11,8
111.83,4,3,1,11,1,3,1,3
111.84,3,7,9,27,7,1,30,7
111.84,1,3,4,8,6,5,12,7
111.85,1,4,2,1,6,4,52,2
111.86,4,1,6,1,3,3,16,3
111.86,1,4,7,12,1,2,12,10
111.86,2,4,0,4,12,4,88,3
111.87,2,8,3,1,0,2,13,5
111.88,5,3,2,2,1,4,17,6
111.88,3,0,0,3,0,1,34,21
111.89,2,0,3,3,0,1,20,17
111.89,0,8,4,3,4,3,8,4
111.89,8,9,5,11,3,0,25,4
111.9,3,1,2,7,0,0,26,7
111.91,2,3,1,2,2,1,25,0
111.91,0,3,2,4,2,2,15,2
111.92,1,14,4,3,1,2,0,2
111.92,3,3,0,2,3,2,29,2
111.92,14,3,7,6,9,3,39,17
111.93,2,6,3,3,1,2,3,3
111.94,11,8,3,1,1,3,25,10
111.94,8,8,4,4,4,0,10,3
111.94,14,26,0,1,12,10,7,11
111.95,10,3,3,5,9,6,1,43
111.95,32,17,2,2,9,0,9,41
111.96,7,2,2,0,9,7,11,7
111.97,11,3,1,3,3,2,1,4
111.97,12,27,4,2,2,3,4,17
111.97,16,25,2,3,1,1,7,10
111.98,4,13,1,0,1,1,25,11
111.98,17,14,1,2,6,1,15,8
111.99,0,28,1,2,5,0,9,13
112,14,32,3,2,1,2,16,13
112,14,46,6,1,1,1,9,2
112,22,40,1,0,6,3,6,11
112.01,14,4,3,3,6,6,0,15
112.02,6,8,0,4,4,3,7,1
112.02,10,7,2,3,0,4,17,2
112.03,6,11,2,1,5,2,12,6
112.03,25,19,0,0,1,2,6,3
112.03,39,4,1,1,4,1,5,1
112.04,28,43,4,1,0,3,7,7
112.05,17,21,4,2,1,2,0,2
112.05,3,4,5,6,10,9,14,4
112.06,23,5,15,16,3,6,9,7
112.06,5,10,1,2,1,0,0,5
112.06,15,15,5,5,1,8,3,1
112.07,11,21,2,9,3,2,15,5
112.08,18,13,6,1,4,4,12,3
112.08,2,22,2,8,1,4,1,5
112.08,15,16,5,4,1,0,9,2
112.09,3,5,2,13,5,4,1,2
112.09,1,1,10,6,14,1,7,0
112.1,1,6,4,10,1,12,2,1
112.11,6,2,6,17,4,5,1,1
112.11,8,3,3,12,6,1,4,0
112.11,1,4,5,19,3,5,0,0
112.12,4,4,8,15,16,8,4,2
112.12,2,2,1,1,4,2,1,1
112.13,8,2,7,5,17,7,9,2
112.14,3,1,4,20,5,4,0,1
112.14,1,3,13,26,3,10,5,2
112.14,4,6,8,13,4,2,2,2
112.15,4,2,4,5,3,5,5,1
112.16,2,3,7,13,15,7,2,1
112.16,2,0,2,2,13,11,3,2
112.17,1,2,0,44,2,1,0,0
112.17,1,3,9,40,4,4,3,2
112.17,2,0,10,22,1,1,1,1
112.18,5,15,14,31,12,11,6,4
112.19,2,5,6,0,7,6,3,0
112.19,4,2,3,40,6,5,2,1
112.19,1,0,4,15,10,9,0,3
112.2,4,8,7,99,10,5,0,2
112.2,2,2,5,5,3,7,4,2
112.21,1,2,1,25,7,9,1,2
112.22,1,10,2,15,5,12,0,1
112.22,3,5,3,39,0,3,2,3
112.22,2,1,10,50,3,11,2,4
112.23,3,0,24,44,9,9,3,1
112.23,2,2,8,57,19,8,2,1
112.24,0,2,4,16,4,4,2,1
112.25,2,0,6,8,13,15,2,2
112.25,2,9,15,17,10,12,2,3
112.25,1,5,11,30,10,1,1,1
112.26,1,4,14,4,3,9,5,2
112.27,0,1,5,6,4,3,0,1
112.27,1,2,7,9,4,3,1,4
112.28,1,2,5,19,6,7,1,2
112.28,2,1,7,3,9,1,1,0
112.28,0,1,15,8,11,7,2,2
112.29,8,1,17,34,2,1,0,1
112.3,1,1,8,15,3,4,1,2
112.3,1,3,16,16,7,0,2,2
112.31,0,3,12,6,8,0,2,0
112.31,1,1,2,30,7,13,3,0
112.31,1,0,0,17,5,2,2,2
112.32,3,18,6,27,3,0,1,2
112.33,1,8,21,27,1,0,3,0
112.33,4,7,12,13,2,1,0,0
112.33,3,2,1,8,1,5,2,1
112.34,2,1,2,13,4,8,4,2
112.34,3,0,10,16,1,4,1,2
112.35,0,6,14,0,11,4,0,1
112.36,0,1,4,7,6,7,2,1
112.36,1,6,2,8,3,5,3,2
112.36,0,4,2,6,5,7,0,2
112.37,2,4,2,2,3,5,1,2
112.38,1,1,2,3,0,1,2,0
112.38,1,2,9,13,8,9,2,3
112.39,2,1,5,5,2,1,3,3
112.39,0,0,6,2,5,3,0,0
112.39,1,1,5,10,5,3,0,1
112.4,1,0,2,4,1,2,1,2
112.41,0,0,2,19,7,7,2,2
112.41,2,0,2,6,6,3,2,0
112.42,3,1,15,18,5,2,0,3
112.42,1,1,6,6,1,4,2,0
112.42,0,2,7,15,3,1,1,1
112.43,2,2,8,0,4,1,2,0
112.44,3,11,3,7,7,2,4,1
112.44,0,4,8,13,0,2,1,0
112.44,6,2,1,2,2,3,1,2
112.45,1,4,0,7,4,1,0,0
112.45,3,3,11,2,8,5,5,2
112.46,3,0,1,0,0,1,1,1
112.47,28,6,2,1,4,2,4,1
112.47,3,5,3,7,5,7,4,0
112.47,4,6,4,10,5,7,4,1
112.48,2,4,3,1,0,4,9,0
112.48,13,10,1,3,2,2,28,4
112.49,6,7,4,3,16,17,58,2
112.5,3,1,3,1,5,6,11,28
112.5,8,8,2,6,4,1,51,5
112.5,5,9,1,8,2,2,8,1
112.51,6,16,6,7,1,3,24,2
112.52,6,8,5,1,6,10,16,31
112.52,2,11,1,4,0,1,8,0
112.53,11,17,1,5,0,5,25,9
112.53,20,8,0,1,9,7,14,25
112.53,9,14,4,3,0,2,7,9
112.54,9,21,1,4,6,3,5,3
112.55,28,19,1,2,2,1,9,10
112.55,2,1,2,1,5,13,9,12
112.56,41,3,2,3,2,13,4,6
112.56,31,9,0,3,6,9,17,5
112.56,6,11,2,1,8,2,9,8
112.57,3,5,3,1,4,4,9,13
112.58,0,13,3,8,13,6,5,45
112.58,29,43,0,1,3,7,11,1
112.58,16,65,0,2,13,8,14,20
112.59,46,23,1,9,6,3,10,1
112.59,41,18,3,1,6,8,3,4
112.6,0,30,2,1,2,3,13,1
112.61,2,0,2,5,5,8,1,3
112.61,57,64,8,1,9,8,2,21
112.61,43,94,2,0,14,1,3,4
112.62,51,40,10,5,7,5,22,53
112.62,85,42,5,5,8,3,2,13
112.63,27,6,3,3,6,2,6,0
112.64,34,27,3,8,0,4,3,31
112.64,26,34,4,8,5,0,8,4
112.64,21,21,4,6,5,8,5,14
112.65,52,0,5,1,6,1,5,10
112.66,9,21,1,5,3,0,0,10
112.66,31,8,10,10,8,4,9,14
112.67,46,42,2,3,8,0,5,6
112.67,2,3,3,3,5,2,8,20
112.67,3,53,10,8,12,9,1,1
112.68,58,96,2,2,2,8,1,2
112.69,8,27,3,2,4,2,2,15
112.69,33,16,4,2,9,3,12,26
112.69,17,13,7,3,12,6,7,1
112.7,4,6,6,3,6,2,3,17
112.7,9,24,2,5,1,1,4,2
112.71,5,13,3,3,3,7,5,5
112.72,53,30,1,5,7,4,5,8
112.72,31,44,3,2,3,2,12,31
112.72,16,30,4,1,9,20,15,0
112.73,8,17,2,2,7,13,3,9
112.73,3,5,3,2,5,11,7,30
112.74,0,7,2,4,0,9,2,20
112.75,2,4,1,2,4,7,6,8
112.75,26,1,1,0,3,0,6,5
112.75,22,6,6,2,5,4,5,3
112.76,10,16,2,5,5,4,2,16
112.77,6,8,1,1,3,2,1,0
112.77,11,9,0,2,3,6,1,8
112.78,6,16,2,3,2,5,4,4
112.78,6,3,6,1,3,1,1,2
112.78,5,3,5,2,4,4,3,8
112.79,19,0,0,6,3,3,6,18
112.8,11,6,5,6,1,7,3,3
112.8,1,3,1,6,4,3,5,3
112.81,1,3,5,11,7,2,0,2
112.81,7,1,5,14,15,13,4,3
112.81,7,0,3,1,12,15,5,3
112.82,8,8,4,13,1,2,5,9
112.83,4,7,9,24,5,16,1,6
112.83,11,3,4,57,7,11,2,3
112.83,8,12,3,17,13,21,5,8
112.84,26,28,1,9,22,16,2,3
112.84,0,0,1,3,5,4,2,1
112.85,7,16,5,2,1,6,4,1
112.86,11,2,0,13,10,15,1,1
112.86,2,11,8,10,12,4,0,6
112.86,0,1,13,5,7,1,2,0
112.87,4,7,2,31,3,4,2,3
112.88,3,11,4,8,5,7,1,3
112.88,1,9,9,14,9,2,0,3
112.89,3,9,2,8,1,7,2,3
112.89,7,13,6,28,3,6,2,7
112.89,6,12,7,28,3,1,2,0
112.9,3,10,2,35,6,6,3,4
112.91,1,1,4,21,4,3,1,1
112.91,3,5,5,38,22,16,4,2
112.92,8,11,3,0,29,24,3,2
112.92,2,6,6,7,3,4,2,2
112.92,1,4,8,1,8,8,2,2
112.93,4,2,11,48,1,8,1,4
112.94,3,3,0,17,4,4,5,2
112.94,4,1,16,77,19,10,2,4
112.94,3,3,8,46,1,3,1,0
112.95,2,5,6,2,9,10,1,1
112.95,4,4,13,6,12,1,2,1
112.96,4,3,3,5,12,1,1,3
112.97,6,6,4,21,8,4,0,3
112.97,2,3,0,9,7,5,1,3
112.97,1,3,1,16,1,1,3,2
112.98,2,5,5,18,13,12,4,3
112.98,2,2,14,12,10,14,2,1
112.99,5,5,5,42,3,2,1,4
113,4,1,2,20,14,9,3,3
113,1,0,12,16,3,6,2,2
113,3,8,1,44,15,8,4,2
113.01,0,1,0,31,25,17,6,0
113.02,0,6,4,12,19,12,5,1
113.02,2,4,7,29,9,5,2,0
113.03,0,2,19,111,2,1,1,2
113.03,4,11,16,58,15,2,5,1
113.03,4,6,3,38,1,6,1,1
113.04,2,6,24,48,2,7,0,2
113.05,1,1,19,14,3,10,2,0
113.05,1,0,26,13,21,20,5,1
113.06,3,0,6,46,18,9,3,4
113.06,1,6,7,52,12,2,3,1
113.06,2,2,10,26,16,18,3,1
113.07,1,4,8,26,19,18,2,1
113.08,4,11,26,43,18,10,5,1
113.08,1,0,1,2,4,2,2,2
113.08,1,4,1,27,4,2,1,0
113.09,0,2,3,1,0,2,2,1
113.09,2,7,10,18,1,4,2,1
113.1,4,1,7,5,5,2,3,4
113.11,2,7,2,36,7,8,0,2
113.11,1,4,2,13,14,11,5,1
113.11,1,4,12,20,28,8,5,1
113.12,3,2,4,26,6,2,3,2
113.12,0,9,6,34,9,6,2,1
113.13,0,6,12,30,13,8,0,1
113.14,2,0,10,42,0,1,1,1
113.14,0,1,4,32,7,0,1,1
113.14,0,3,2,9,7,3,0,1
113.15,2,4,16,29,0,1,1,2
113.16,0,4,9,14,9,2,1,0
113.16,4,1,7,16,3,0,3,6
113.17,1,2,0,15,6,5,1,1
113.17,1,8,8,11,2,3,3,2
113.17,0,16,11,5,10,8,0,0
113.18,5,2,12,4,10,1,1,6
113.19,1,0,1,9,3,11,1,0
113.19,3,1,1,4,4,12,8,4
113.19,1,6,5,2,2,4,1,2
113.2,4,5,11,2,0,3,1,3
113.2,1,1,0,7,5,7,2,1
113.21,2,2,4,1,8,5,3,1
113.22,4,13,2,11,4,2,1,0
113.22,2,5,7,6,8,3,1,1
113.22,4,1,12,0,3,2,26,2
113.23,4,1,4,11,4,1,47,15
113.23,15,3,2,8,13,6,77,29
113.24,8,24,5,8,7,3,1,16
113.25,1,7,8,6,1,5,23,9
113.25,3,11,1,1,1,2,40,41
113.25,9,15,1,4,5,5,64,4
113.26,31,4,9,9,2,2,19,41
113.27,14,15,1,3,8,7,50,1
113.27,22,3,4,4,3,1,14,28
113.28,11,9,1,5,3,10,16,31
113.28,10,11,3,7,1,3,20,4
113.28,14,11,2,1,2,1,11,12
113.29,3,3,1,3,3,3,31,18
113.3,7,6,5,2,3,4,18,4
113.3,21,11,8,8,0,2,17,15
113.31,28,13,1,1,5,3,1,0
113.31,14,35,1,1,11,8,26,7
113.31,7,37,1,3,6,2,14,11
113.32,2,12,4,9,7,0,20,44
113.33,3,16,2,0,5,8,9,18
113.33,43,0,5,8,1,1,18,23
113.33,1,50,3,1,6,6,12,5
113.34,48,34,5,3,4,33,27,11
113.34,7,28,0,6,1,11,6,6
113.35,12,39,6,5,10,4,10,1
113.36,5,14,2,5,1,2,0,10
113.36,13,63,8,1,2,1,9,20
113.36,37,15,2,3,5,2,11,2
113.37,43,8,2,1,5,6,11,13
113.38,84,50,9,3,1,2,8,7
113.38,34,38,1,1,3,11,14,14
113.39,3,81,8,6,9,12,2,22
113.39,3,13,5,5,4,1,4,4
113.39,4,55,4,5,4,2,5,2
113.4,5,7,1,4,12,12,8,12
113.41,22,16,2,0,10,9,12,6
113.41,14,2,6,2,4,3,17,11
113.42,12,2,0,4,7,1,11,22
113.42,33,15,1,2,0,10,1,5
113.42,14,6,11,12,11,12,10,7
113.43,6,39,2,5,3,25,7,9
113.44,19,11,7,5,11,1,0,4
113.44,31,40,3,7,11,7,3,23
113.44,9,5,28,1,7,9,3,15
113.45,38,33,10,2,5,3,7,19
113.45,7,24,3,4,6,4,4,10
113.46,0,5,92,2,0,1,10,6
113.47,16,10,112,5,13,6,14,42
113.47,20,15,25,1,20,9,5,23
113.47,5,4,11,6,4,0,4,5
113.48,3,6,45,6,3,2,0,1
113.48,8,22,76,6,15,4,4,3
113.49,10,21,60,7,6,0,4,1
113.5,35,11,71,8,5,1,5,19
113.5,17,5,72,1,0,7,2,1
113.5,5,27,88,3,9,5,6,2
113.51,21,14,38,1,4,10,1,7
113.52,35,25,28,4,4,13,7,12
113.52,16,35,52,0,6,0,4,1
113.53,9,69,50,2,18,5,3,8
113.53,1,28,40,4,9,15,7,4
113.53,6,12,34,5,0,2,2,3
113.54,3,10,43,1,2,7,3,4
113.55,7,33,17,2,7,5,0,6
113.55,10,19,3,14,2,7,4,5
113.56,13,16,15,26,10,6,5,4
113.56,8,1,0,6,9,3,2,5
113.56,1,16,2,4,7,10,4,6
113.57,0,22,9,4,15,16,6,8
113.58,18,13,4,11,8,4,3,1
113.58,3,45,3,10,2,5,2,1
113.58,1,26,4,12,5,0,3,1
113.59,4,19,17,2,9,14,1,0
113.59,5,5,3,14,20,13,6,3
113.6,3,27,9,10,9,7,2,3
113.61,2,2,10,14,22,19,3,4
113.61,6,14,7,2,8,15,4,2
113.61,1,1,1,7,6,5,1,1
113.62,6,5,3,22,5,2,3,2
113.62,5,7,0,6,9,8,1,4
113.63,1,10,11,8,14,9,0,2
113.64,0,2,3,6,3,2,2,1
113.64,5,5,6,2,12,9,4,3
113.64,2,3,3,4,2,9,1,1
113.65,3,7,8,0,4,5,2,2
113.66,6,4,8,13,10,12,4,0
113.66,1,3,6,4,4,4,0,2
113.67,0,13,0,36,3,4,1,0
113.67,9,6,0,4,4,2,1,1
113.67,4,3,2,16,7,2,4,1
113.68,4,4,5,47,7,3,1,1
113.69,2,27,1,38,1,6,0,0
113.69,1,32,3,8,6,4,2,2
113.69,0,9,5,9,2,0,1,3
113.7,1,4,0,60,1,5,3,0
113.7,4,10,9,29,14,17,5,5
113.71,6,7,1,21,19,12,3,3
113.72,2,10,2,1,11,5,2,2
113.72,3,1,6,4,1,7,1,0
113.72,0,1,5,16,4,0,1,0
113.73,5,2,9,3,8,4,4,4
113.73,0,3,4,0,5,2,0,1
113.74,2,2,2,5,11,8,1,1
113.75,2,4,1,26,2,2,3,1
113.75,5,0,5,11,18,14,4,5
113.75,1,3,14,13,8,3,1,2
113.76,1,1,7,3,9,5,2,0
113.77,0,1,5,10,2,4,0,2
113.77,1,2,5,1,5,6,2,0
113.78,1,2,4,32,7,8,1,1
113.78,0,1,11,8,0,2,1,1
113.78,1,3,6,4,3,3,1,1
113.79,2,3,6,19,1,11,3,1
113.8,0,1,4,3,7,3,1,1
113.8,3,9,2,0,14,0,1,1
113.81,1,0,7,11,5,1,0,0
113.81,1,0,1,4,2,9,1,0
113.81,1,0,7,5,5,4,1,1
113.82,0,1,6,9,1,2,1,0
113.83,1,1,11,0,8,7,4,3
113.83,1,0,6,15,3,5,0,1
113.83,3,8,1,29,8,5,2,1
113.84,2,3,8,11,2,0,0,1
113.84,2,1,5,2,10,2,2,0
113.85,1,5,4,16,16,1,0,1
113.86,0,6,4,1,3,4,1,1
113.86,1,3,19,35,0,4,3,1
113.86,1,0,3,5,5,2,1,1
113.87,3,4,6,7,1,3,2,2
113.88,2,1,0,37,1,4,3,1
113.88,1,3,4,37,12,2,2,1
113.89,1,0,6,9,8,3,0,2
113.89,2,2,4,13,5,1,1,2
113.89,3,8,2,33,7,6,3,0
113.9,0,2,8,12,9,2,4,0
113.91,1,4,0,12,3,1,0,1
113.91,0,2,0,8,5,1,0,2
113.92,2,0,1,1,1,2,2,1
113.92,4,0,2,22,2,5,1,1
113.92,1,1,6,12,3,4,2,0
113.93,1,6,20,24,3,2,3,2
113.94,2,7,7,40,6,26,0,1
113.94,1,3,3,27,5,5,1,0
113.94,6,10,6,15,6,4,3,1
113.95,20,0,2,3,7,3,4,1
113.95,3,4,3,4,4,4,3,0
113.96,0,5,1,17,1,6,8,2
113.97,7,15,1,11,5,1,36,10
113.97,14,10,5,15,3,8,29,1
113.97,12,11,7,7,3,11,2,24
113.98,4,13,3,10,1,12,11,18
113.98,27,31,1,6,2,6,1,7
113.99,20,45,4,7,2,10,39,7
114,2,13,2,8,7,5,18,24
114,19,11,0,0,3,8,35,25
114,7,27,10,5,6,2,47,34
114.01,50,25,2,3,0,1,14,48
114.02,6,38,0,3,6,6,50,57
114.02,78,71,6,10,12,13,44,3
114.03,17,82,8,8,1,4,17,64
114.03,12,52,11,10,7,2,10,30
114.03,53,33,2,7,1,10,21,32
114.04,37,57,3,8,6,8,29,56
114.05,53,39,5,1,16,8,11,18
114.05,7,7,6,3,5,12,2,50
114.06,18,67,3,1,22,26,15,2
114.06,20,32,5,1,12,7,1,12
114.06,4,65,3,1,16,9,2,3
114.07,20,33,7,5,0,12,11,42
114.08,1,11,6,1,5,1,4,101
114.08,18,51,34,7,0,0,24,38
114.08,28,104,23,6,1,3,31,20
114.09,1,77,19,2,5,5,23,48
114.09,13,54,6,1,5,1,13,13
114.1,69,115,8,1,28,17,39,73
114.11,46,90,73,1,4,8,0,11
114.11,32,34,15,5,3,2,19,22
114.11,25,27,96,4,1,1,20,16
114.12,16,32,60,9,5,3,17,23
114.12,9,10,22,6,9,8,18,21
114.13,30,12,14,1,13,12,12,43
114.14,10,13,35,3,10,15,2,1
114.14,20,23,13,2,0,1,4,1
114.14,12,42,1,2,4,7,4,15
114.15,11,19,16,2,3,4,14,17
114.16,1,24,15,4,4,3,7,16
114.16,3,33,9,1,0,10,22,15
114.17,9,15,6,6,22,17,37,19
114.17,2,4,15,1,13,3,6,33
114.17,13,28,8,1,0,3,30,13
114.18,0,48,15,8,0,5,1,35
114.19,22,10,8,2,10,12,19,17
114.19,7,28,13,2,7,0,7,13
114.19,5,3,9,2,1,3,7,8
114.2,15,2,18,1,5,1,3,23
114.2,32,6,0,5,4,4,5,6
114.21,11,18,7,8,10,7,7,3
114.22,7,2,16,0,9,3,8,4
114.22,13,6,3,2,3,1,11,7
114.22,20,6,7,3,5,2,9,6
114.23,3,1,2,4,1,3,2,16
114.23,4,4,12,2,7,5,2,6
114.24,7,5,7,0,4,2,1,6
114.25,5,11,7,3,8,7,6,7
114.25,4,16,8,2,5,2,1,1
114.25,5,5,1,10,13,11,8,8
114.26,5,5,10,6,2,1,2,2
114.27,2,12,5,8,10,8,7,8
114.27,1,4,1,5,3,1,3,10
114.28,19,8,4,9,6,1,5,2
114.28,6,11,5,19,10,5,4,6
114.28,4,4,1,10,4,4,4,4
114.29,1,7,2,3,7,5,2,1
114.3,20,10,1,11,5,1,2,10
114.3,5,4,8,3,11,8,4,1
114.31,13,3,2,12,3,3,4,1
114.31,6,0,2,6,12,9,3,2
114.31,11,5,4,20,8,7,5,2
114.32,0,4,2,6,11,8,1,2
114.33,10,3,4,16,5,4,2,4
114.33,0,1,2,5,2,7,2,5
114.33,1,4,0,2,7,12,3,1
114.34,3,2,2,8,4,1,4,4
114.34,7,14,7,13,5,8,2,6
114.35,6,8,8,19,9,3,0,3
114.36,4,4,1,9,19,8,1,3
114.36,1,4,2,2,9,0,3,3
114.36,6,12,19,20,3,8,1,3
114.37,2,2,1,22,4,8,3,4
114.38,6,9,5,4,1,1,0,2
114.38,6,2,2,3,9,7,3,1
114.39,30,5,7,12,8,9,1,2
114.39,3,9,4,40,9,2,2,5
114.39,5,5,6,28,1,4,2,0
114.4,0,3,10,3,1,2,1,2
114.41,2,3,5,5,22,11,3,2
114.41,1,7,5,16,26,9,0,4
114.42,1,5,5,4,15,8,3,2
114.42,2,1,10,13,11,0,1,0
114.42,1,0,1,36,2,4,4,2
114.43,0,1,11,4,8,7,1,4
114.44,0,4,2,27,6,8,1,4
114.44,1,1,2,13,3,2,1,3
114.44,0,2,6,28,13,5,0,0
114.45,2,5,16,16,30,14,2,2
114.45,2,1,11,20,11,0,0,0
114.46,2,1,4,22,4,4,1,2
114.47,1,7,1,7,2,4,3,3
114.47,2,3,8,32,8,2,0,2
114.47,2,11,8,5,7,0,1,1
114.48,2,4,2,9,2,5,0,1
114.48,0,0,11,40,15,8,4,2
114.49,5,5,0,31,1,5,0,1
114.5,1,2,11,24,2,9,1,0
114.5,1,0,12,14,1,2,2,0
114.5,0,2,8,17,3,1,1,2
114.51,2,5,7,1,17,5,3,2
114.52,2,0,3,13,8,2,1,3
114.52,1,2,7,18,6,5,1,0
114.53,0,3,2,11,1,3,0,3
114.53,0,1,4,1,14,7,4,2
114.53,1,0,13,7,5,4,2,2
114.54,2,4,5,7,1,3,2,1
114.55,2,3,1,10,6,0,2,0
114.55,0,0,9,3,2,2,1,0
114.56,1,2,3,3,4,5,1,0
114.56,0,16,8,2,7,4,2,1
114.56,1,1,13,6,13,10,3,2
114.57,1,0,8,3,5,9,6,0
114.58,4,2,7,15,7,10,2,1
114.58,0,3,3,19,3,0,1,3
114.58,1,4,0,8,0,2,2,3
114.59,2,1,3,8,8,2,1,2
114.59,5,2,4,3,1,5,1,1
114.6,2,5,1,16,3,3,1,1
114.61,1,5,6,12,1,0,2,2
114.61,2,1,11,7,4,5,2,1
114.61,0,5,1,3,6,5,3,2
114.62,2,0,1,0,1,2,0,1
114.62,2,1,3,7,9,2,1,2
114.63,0,2,1,4,6,3,1,3
114.64,1,2,4,5,3,7,4,3
114.64,0,8,0,14,7,1,2,2
114.64,3,21,4,5,0,2,2,0
114.65,7,2,4,5,2,1,1,2
114.66,6,2,3,5,3,2,1,0
114.66,3,13,1,8,0,7,0,6
114.67,5,10,0,1,3,5,8,9
114.67,5,10,9,5,0,2,5,1
114.67,10,10,2,0,2,3,16,4
114.68,12,24,2,7,2,1,15,1
114.69,14,26,2,4,8,0,20,3
114.69,2,15,5,4,3,1,10,21
114.69,6,4,1,1,4,6,6,29
114.7,14,1,3,4,4,2,2,45
114.7,8,12,1,1,3,5,4,51
114.71,5,2,3,2,3,2,2,27
114.72,8,10,1,4,2,2,5,6
114.72,4,5,3,1,5,3,5,24
114.72,17,30,2,0,2,0,9,27
114.73,14,12,0,3,2,1,0,5
114.73,6,8,0,0,1,0,0,19
114.74,10,72,3,3,1,4,2,6
114.75,8,22,3,1,1,3,2,6
114.75,5,38,0,2,6,5,3,6
114.75,9,14,1,0,7,3,2,7
114.76,8,20,0,1,5,2,4,5
114.77,1,7,0,6,5,0,3,13
114.77,4,7,3,11,6,1,3,7
114.78,5,28,5,1,13,15,2,10
114.78,1,38,4,1,6,3,0,15
114.78,13,34,5,2,1,5,4,25
114.79,35,19,1,7,2,0,3,1
114.8,34,12,0,2,0,2,1,4
114.8,6,40,4,2,10,7,13,19
114.81,28,0,2,2,5,0,20,14
114.81,1,6,3,2,2,1,21,18
114.81,9,12,2,1,3,2,18,6
114.82,5,5,1,2,12,9,9,16
114.83,10,7,3,2,3,3,2,17
114.83,8,66,2,0,5,2,8,8
114.83,15,32,2,3,5,9,11,5
114.84,7,4,2,1,10,12,11,8
114.84,5,14,3,4,19,14,11,38
114.85,3,53,7,4,6,3,4,8
114.86,6,17,8,4,11,11,0,7
114.86,3,2,10,2,11,5,2,4
114.86,2,98,31,5,13,9,10,23
114.87,14,90,8,13,9,33,5,38
114.88,12,23,6,1,1,3,4,4
114.88,2,10,10,2,2,3,2,1
114.89,18,78,11,3,5,12,9,17
114.89,21,56,1,4,4,3,17,2
114.89,2,43,4,7,8,9,10,20
114.9,18,15,6,4,7,11,8,11
114.91,26,3,27,6,6,10,12,30
114.91,14,44,2,0,7,5,13,41
114.92,2,42,9,5,0,1,45,32
114.92,9,23,17,3,3,2,4,3
114.92,0,49,6,4,10,14,34,8
114.93,2,2,9,2,5,9,7,33
114.94,7,28,17,2,5,5,8,3
114.94,0,9,10,5,1,7,5,1
114.94,4,23,20,2,6,3,18,12
114.95,15,17,1,1,14,10,12,24
114.95,20,25,10,1,1,14,13,16
114.96,9,3,6,0,3,15,3,8
114.97,10,47,9,4,12,7,5,18
114.97,15,65,1,17,5,4,7,1
114.97,10,49,3,10,3,2,9,9
114.98,5,4,0,12,8,9,13,8
114.98,5,25,10,11,8,13,2,16
114.99,1,42,7,8,0,6,9,6
115,4,13,2,14,2,6,10,7
115,12,5,14,3,12,16,5,12
115,9,47,17,2,3,4,0,8
115.01,3,27,4,1,4,3,12,4
115.02,1,6,0,5,6,8,10,15
115.02,7,10,2,9,6,4,6,1
115.03,11,13,7,1,4,10,3,1
115.03,2,22,1,0,2,3,2,0
115.03,2,6,1,8,5,11,1,5
115.04,21,4,2,8,7,3,7,4
115.05,9,40,6,2,8,1,6,1
115.05,13,96,3,6,3,0,6,10
115.06,4,49,4,14,2,1,7,3
115.06,2,42,6,5,1,6,1,0
115.06,0,4,1,17,9,1,1,6
115.07,6,20,5,49,6,5,1,4
115.08,6,4,6,12,0,7,3,1
115.08,1,10,3,2,12,4,5,1
115.08,4,3,2,8,1,5,3,1
115.09,1,5,0,1,4,3,2,2
115.09,2,20,2,3,9,7,2,4
115.1,3,10,9,25,1,6,1,1
115.11,3,9,0,16,1,7,1,2
115.11,2,8,8,21,5,8,3,0
115.11,1,8,1,15,9,9,1,5
115.12,5,6,1,31,6,9,4,4
115.12,4,0,13,11,1,7,2,0
115.13,8,1,7,8,5,7,2,4
115.14,2,5,2,16,2,6,4,1
115.14,4,3,5,1,11,7,2,0
115.14,1,5,6,4,8,7,0,0
115.15,2,2,1,10,4,4,1,3
115.16,1,1,4,17,9,0,1,1
115.16,1,9,4,8,4,3,0,2
115.17,2,8,2,12,4,2,2,3
115.17,2,7,4,3,7,6,2,4
115.17,1,5,18,50,10,1,1,5
115.18,1,4,3,20,0,9,1,1
115.19,1,3,7,35,18,14,3,0
115.19,7,1,4,16,9,1,4,1
115.19,1,19,5,13,4,7,1,1
115.2,7,4,2,8,0,4,2,0
115.2,5,1,0,37,0,0,2,1
115.21,0,4,5,5,22,15,2,1
115.22,1,1,5,29,9,4,0,3
115.22,0,3,2,28,9,15,4,4
115.22,2,1,10,8,11,6,2,2
115.23,1,2,4,13,3,2,1,2
115.23,1,1,1,23,14,5,1,0
115.24,1,4,0,41,2,10,1,3
115.25,0,5,7,72,20,12,0,1
115.25,3,7,10,81,24,6,4,0
115.25,2,1,2,19,5,1,0,1
115.26,2,0,5,16,4,0,0,2
115.27,1,1,3,15,3,5,0,4
115.27,1,2,9,22,14,12,0,3
115.28,3,0,8,18,19,6,2,4
115.28,0,10,6,22,17,5,7,0
115.28,1,18,6,18,4,1,2,3
115.29,1,1,3,6,6,9,2,4
115.3,1,1,4,36,4,9,1,2
115.3,1,5,3,31,1,1,1,1
115.31,1,4,6,28,6,4,4,0
115.31,0,5,5,3,5,8,2,4
115.31,1,1,11,21,9,6,3,3
115.32,1,1,9,34,6,1,0,2
115.33,1,6,0,44,19,6,1,1
115.33,3,1,9,4,2,2,2,1
115.33,2,2,8,9,9,2,1,3
115.34,1,7,5,8,7,1,0,1
115.34,4,5,6,3,8,2,0,1
115.35,0,6,5,22,9,1,1,1
115.36,3,2,3,38,1,0,0,4
115.36,2,1,11,76,12,3,4,2
115.36,2,3,0,4,4,9,5,3
115.37,1,3,3,18,4,1,0,2
115.38,3,2,2,6,4,4,5,1
115.38,0,3,12,23,2,2,13,4
115.39,1,5,16,17,4,6,15,9
115.39,1,2,7,24,13,1,50,12
115.39,3,1,11,53,12,8,17,7
115.4,2,9,9,6,0,3,3,4
115.41,4,9,5,9,3,14,0,14
115.41,2,10,4,11,1,32,10,24
115.42,3,20,7,6,3,10,15,5
115.42,9,4,5,8,4,4,37,11
115.42,14,8,3,0,6,4,19,56
115.43,0,14,15,3,4,17,11,44
115.44,5,30,4,6,0,5,15,20
115.44,11,11,5,4,13,8,70,98
115.44,11,5,4,1,3,11,18,57
115.45,13,9,8,14,5,12,57,4
115.45,29,20,1,6,4,7,80,37
115.46,15,19,4,2,7,9,106,84
115.47,26,3,0,8,20,5,114,41
115.47,6,22,2,10,8,13,33,25
115.47,10,5,6,14,3,0,55,31
115.48,20,7,1,5,6,3,34,23
115.48,2,25,5,1,3,0,50,4
115.49,19,35,10,8,1,3,24,23
115.5,27,9,5,2,2,5,14,17
115.5,11,11,4,4,7,12,25,14
115.5,40,15,0,2,6,15,25,10
115.51,9,9,2,1,2,16,15,48
115.52,19,10,1,4,12,7,24,5
115.52,10,40,2,1,9,6,2,48
115.53,17,35,2,5,2,9,34,52
115.53,1,9,1,1,1,2,10,2
115.53,3,38,1,11,6,4,15,35
115.54,6,45,4,1,8,4,4,23
115.55,2,52,1,6,3,1,5,28
115.55,7,14,2,5,1,5,23,13
115.56,22,3,3,3,5,5,35,19
115.56,32,43,1,2,5,8,13,17
115.56,22,7,4,6,11,12,57,50
115.57,12,1,1,1,13,1,20,22
115.58,6,4,0,3,6,6,19,67
115.58,17,18,1,0,4,5,21,32
115.58,4,45,9,3,4,1,10,25
115.59,23,29,10,5,13,8,3,48
115.59,14,1,13,2,6,0,5,32
115.6,1,10,3,2,0,5,5,24
115.61,4,11,0,3,5,11,11,5
115.61,4,11,5,1,18,14,29,8
115.61,15,6,17,2,1,5,6,10
115.62,27,15,63,5,6,10,6,5
115.62,7,48,24,1,10,8,18,0
115.63,4,28,38,2,4,2,21,12
115.64,14,20,22,1,5,7,20,26
115.64,9,1,30,7,7,6,8,41
115.64,16,0,32,6,4,11,4,13
115.65,3,26,15,3,8,10,27,54
115.66,4,21,18,6,7,18,31,26
115.66,4,23,1,3,3,6,8,2
115.67,1,33,28,2,1,4,38,10
115.67,13,30,9,3,12,18,46,6
115.67,10,6,10,6,13,8,62,12
115.68,2,67,12,11,11,5,56,20
115.69,1,12,10,6,4,11,13,28
115.69,1,24,7,1,1,2,11,13
115.69,11,42,12,2,12,11,19,7
115.7,13,24,4,3,3,4,17,6
115.7,8,18,8,1,1,2,18,11
115.71,3,40,7,13,11,13,32,8
115.72,2,22,2,1,6,13,27,5
115.72,1,11,8,3,0,5,1,2
115.72,6,10,19,1,6,5,7,15
115.73,22,1,5,1,1,5,12,20
115.73,13,10,10,2,3,9,13,6
115.74,5,34,2,2,5,1,3,16
115.75,4,36,14,3,5,15,2,16
115.75,6,9,6,1,9,17,5,9
115.75,7,8,6,1,8,11,3,1
115.76,1,27,5,7,4,3,2,1
115.77,8,0,3,2,7,9,6,7
115.77,2,2,1,3,7,8,6,4
115.78,1,3,5,11,10,14,6,4
115.78,3,21,7,1,1,13,3,8
115.78,10,33,3,5,1,2,4,7
115.79,6,3,2,11,1,10,1,5
115.8,7,11,10,26,0,6,7,5
115.8,1,18,3,18,7,2,4,3
115.81,2,12,3,15,0,4,6,5
115.81,0,11,2,10,9,11,0,6
115.81,3,7,5,2,7,1,3,1
115.82,0,7,5,9,2,3,0,5
115.83,2,4,9,0,11,11,1,8
115.83,1,2,7,23,4,9,1,0
115.83,6,4,11,23,3,3,0,1
115.84,3,2,5,11,12,6,1,1
115.84,1,4,6,37,2,3,4,6
115.85,4,17,8,0,5,1,1,0
115.86,1,11,4,11,13,17,7,2
115.86,4,4,1,6,3,2,0,2
115.86,2,7,4,22,13,5,2,0
115.87,4,19,8,16,8,4,3,0
115.88,4,4,4,3,5,6,1,3
115.88,1,2,5,23,1,6,2,2
115.89,0,2,1,9,3,6,2,2
115.89,0,5,1,7,4,1,2,2
115.89,1,8,1,44,5,3,2,1
115.9,1,1,1,19,16,12,3,1
115.91,2,5,6,65,11,8,1,1
115.91,2,7,5,1,14,13,5,1
115.92,2,1,5,6,11,10,1,0
115.92,1,1,1,18,12,13,4,2
115.92,3,5,6,43,11,0,1,2
115.93,1,1,6,2,1,7,1,1
115.94,0,0,6,8,30,24,6,2
115.94,0,4,1,5,11,6,3,1
115.94,0,1,9,23,5,3,0,1
115.95,2,4,5,8,7,3,1,1
115.95,0,3,1,7,9,9,5,1
115.96,0,3,7,19,0,6,1,3
115.97,1,1,4,18,3,8,0,0
115.97,1,17,19,19,12,3,2,1
115.97,3,0,13,15,4,3,1,2
115.98,2,2,1,17,6,4,0,2
115.98,2,0,11,37,6,8,2,2
115.99,1,6,1,23,8,2,1,2
116,1,3,12,47,9,5,2,0
116,1,5,2,19,0,0,1,1
116,0,0,9,11,4,2,2,2
116.01,1,3,5,4,8,2,0,0
116.02,0,6,1,14,10,8,3,1
116.02,0,3,1,12,6,7,1,3
116.03,0,2,3,24,16,6,3,3
116.03,1,2,2,28,7,4,2,0
116.03,2,3,8,27,12,8,3,1
116.04,2,2,10,46,10,12,0,0
116.05,1,1,6,0,3,3,1,4
116.05,2,1,1,9,1,1,2,1
116.06,0,1,13,17,14,7,3,1
116.06,3,2,9,19,4,6,3,1
116.06,0,6,1,15,4,8,2,2
116.07,2,7,8,11,3,2,3,1
116.08,1,6,10,1,11,4,2,1
116.08,1,1,3,4,1,3,3,0
116.08,2,3,2,11,3,6,1,3
116.09,0,2,6,4,4,5,3,0
116.09,2,3,2,8,1,6,1,2
116.1,0,6,3,2,2,2,0,1
116.11,1,4,1,14,1,5,1,3
116.11,2,3,5,14,3,2,1,1
116.11,2,3,6,6,1,1,1,1
116.12,0,1,2,1,3,2,2,0
116.12,0,3,11,5,3,2,0,3
116.13,1,0,4,3,2,2,1,1
116.14,1,3,2,1,3,3,0,1
116.14,1,4,1,3,7,5,2,5
116.14,3,5,3,4,3,4,4,1
116.15,2,3,0,1,0,4,0,2
116.16,0,1,2,6,5,5,2,2
116.16,0,2,1,4,7,1,3,3
116.17,5,2,3,3,0,0,4,3
116.17,1,18,1,4,4,8,14,5
116.17,3,3,4,1,9,4,14,12
116.18,1,4,1,4,6,1,10,0
116.19,5,2,4,2,10,1,4,3
116.19,10,6,5,1,1,3,17,19
116.19,4,8,4,5,4,1,29,32
116.2,7,7,3,0,9,9,43,14
116.2,7,20,2,0,5,8,3,6
116.21,27,16,2,2,13,11,21,12
116.22,12,9,2,0,1,6,50,33
116.22,2,18,1,3,3,2,12,9
116.22,9,6,1,4,1,1,16,33
116.23,12,14,2,7,8,1,9,19
116.23,13,9,1,4,3,3,25,0
116.24,10,4,4,4,8,2,26,4
116.25,1,26,3,1,1,2,31,41
116.25,7,2,7,3,4,3,18,8
116.25,12,8,2,3,0,3,34,16
116.26,5,3,0,2,0,1,20,10
116.27,5,6,3,3,9,9,26,1
116.27,9,13,3,3,5,5,32,14
116.28,6,5,5,0,2,3,26,12
116.28,5,14,1,0,6,1,2,46
116.28,2,2,2,6,3,6,34,29
116.29,0,2,4,5,7,0,15,18
116.3,13,21,5,3,4,3,6,7
116.3,15,36,3,5,4,3,12,6
116.31,17,15,1,1,1,2,2,14
116.31,4,37,2,3,0,2,3,20
116.31,15,24,2,3,7,2,19,17
116.32,6,7,3,2,4,7,8,19
116.33,13,13,5,3,6,0,10,3
116.33,5,1,4,3,6,3,9,2
116.33,2,13,0,1,8,4,3,3
116.34,26,5,3,0,4,3,1,9
116.34,8,10,8,2,11,7,11,19
116.35,16,3,0,3,1,3,5,4
116.36,1,4,5,1,10,7,7,3
116.36,10,12,12,3,6,6,9,4
116.36,2,1,5,3,6,6,8,11
116.37,10,24,1,3,9,2,7,14
116.38,10,38,8,3,10,5,11,4
116.38,8,7,4,2,1,3,2,2
116.39,17,3,6,6,3,3,17,22
116.39,15,8,3,2,1,7,11,14
116.39,5,1,0,1,7,8,3,5
116.4,6,15,0,4,5,5,3,6
116.41,4,21,2,9,4,1,1,8
116.41,14,15,5,4,2,2,17,31
116.42,10,15,3,3,5,9,29,10
116.42,9,31,11,0,12,2,11,24
116.42,2,12,3,2,8,1,10,8
116.43,0,3,4,7,5,5,6,3
116.44,4,14,1,0,1,1,16,4
116.44,24,5,5,2,2,4,16,14
116.44,2,42,1,1,11,6,3,3
116.45,0,4,1,0,1,1,13,23
116.45,4,9,2,2,4,1,14,9
116.46,9,17,0,2,1,3,4,7
116.47,6,2,3,1,1,4,3,16
116.47,3,22,4,0,1,1,1,4
116.47,5,7,2,1,6,3,8,1
116.48,2,5,4,5,3,2,15,7
116.48,2,2,3,4,7,9,13,5
116.49,1,12,2,3,3,1,1,2
116.5,2,12,1,2,4,5,3,6
116.5,0,20,3,8,1,5,1,6
116.5,9,2,2,2,10,7,0,16
116.51,5,8,0,3,5,6,4,4
116.52,7,2,3,11,7,16,0,0
116.52,7,0,0,6,4,4,4,4
116.53,2,7,4,6,5,8,7,3
116.53,7,32,5,11,2,0,3,3
116.53,5,1,3,2,16,13,4,1
116.54,1,1,2,13,14,12,6,5
116.55,5,15,3,2,12,7,2,5
116.55,1,5,2,2,16,16,7,1
116.56,2,1,5,13,2,1,0,2
116.56,4,19,2,31,2,3,2,1
116.56,1,12,5,6,4,2,4,2
116.57,3,0,18,11,3,3,1,6
116.58,0,3,2,13,6,4,7,1
116.58,4,1,3,30,6,4,2,0
116.58,3,2,16,22,16,9,2,1
116.59,3,1,12,11,6,3,4,0
116.59,6,6,4,3,0,6,2,0
116.6,2,0,10,10,8,2,2,2
116.61,2,4,7,53,0,11,2,0
116.61,2,3,5,3,4,7,2,1
116.61,0,5,2,46,7,8,0,4
116.62,4,7,5,23,4,2,1,0
116.62,1,3,2,24,0,6,1,1
116.63,1,5,3,51,15,1,0,1
116.64,2,5,8,10,8,20,3,2
116.64,4,1,1,27,4,12,3,3
116.64,4,2,13,24,1,7,1,3
116.65,0,4,14,30,3,7,0,0
116.66,2,2,8,37,4,7,4,1
116.66,4,4,3,17,6,2,3,3
116.67,1,6,8,33,11,7,4,2
116.67,0,4,12,1,3,2,1,2
116.67,3,7,13,14,5,3,4,2
116.68,2,3,6,6,1,11,3,1
116.69,0,1,3,24,6,9,2,1
116.69,2,8,4,51,7,2,3,0
116.69,2,5,22,13,12,0,1,1
116.7,1,2,12,36,12,13,3,4
116.7,4,9,5,4,10,10,3,2
116.71,0,2,0,15,3,2,1,0
116.72,2,2,6,12,4,4,2,1
116.72,0,5,10,11,5,0,1,0
116.72,1,3,12,5,0,4,1,1
116.73,3,1,3,7,7,5,1,1
116.73,2,4,1,7,7,3,2,0
116.74,1,2,12,26,3,3,1,2
116.75,1,2,20,7,3,0,3,2
116.75,1,5,5,19,1,1,1,3
116.75,1,4,5,12,2,2,0,3
116.76,1,1,1,9,4,7,3,0
116.77,3,2,8,24,3,3,1,0
116.77,0,2,5,33,3,0,1,3
116.78,1,1,0,3,0,4,2,0
116.78,0,3,5,5,0,2,1,0
116.78,4,2,8,6,1,1,1,4
116.79,1,0,3,6,1,0,0,3
116.8,1,1,6,25,1,1,0,1
116.8,0,4,5,33,3,4,4,2
116.81,1,1,3,0,3,3,0,1
116.81,2,2,6,4,3,3,2,0
116.81,0,2,1,19,6,4,1,0
116.82,0,1,1,10,0,0,1,1
116.83,2,2,1,10,2,2,2,1
116.83,1,11,7,16,4,10,5,0
116.83,1,3,1,8,1,1,3,1
116.84,3,3,3,15,0,4,2,2
116.84,1,1,11,9,7,4,2,1
116.85,1,1,3,14,0,2,1,2
116.86,1,1,6,19,2,2,1,2
116.86,2,3,0,4,6,6,1,1
116.86,3,2,1,5,4,0,1,0
116.87,2,1,0,4,2,1,1,1
116.88,1,4,2,4,6,2,3,2
116.88,2,2,0,0,2,2,0,0
116.89,2,1,1,3,2,0,0,1
116.89,2,4,6,11,10,7,29,1
116.89,12,11,1,8,7,7,14,1
116.9,5,2,0,10,10,9,63,3
116.91,2,5,4,3,1,3,13,14
116.91,7,7,1,5,1,1,7,19
116.92,13,6,2,2,7,10,46,11
116.92,10,14,3,2,3,11,1,22
116.92,2,5,0,3,16,19,40,26
116.93,12,14,5,3,5,3,23,47
116.94,3,9,2,3,7,4,29,12
116.94,2,18,0,3,2,1,8,16
116.94,22,15,0,2,2,4,6,18
116.95,19,19,0,3,12,7,49,15
116.95,8,5,3,4,17,9,28,19
116.96,3,3,3,5,1,5,10,34
116.97,7,7,1,12,10,2,18,28
116.97,10,2,1,3,6,7,19,0
116.97,12,7,3,6,5,0,38,36
116.98,5,2,2,7,4,1,8,5
116.98,3,8,1,2,8,1,7,3
116.99,4,4,3,11,1,3,9,9
117,2,6,0,5,10,6,48,2
117,2,6,5,3,2,6,50,9
117,8,1,1,3,4,11,25,9
117.01,11,5,4,2,2,2,28,14
117.02,3,1,1,0,7,7,1,5
117.02,8,13,6,1,13,12,4,22
117.03,6,11,3,7,16,5,9,58
117.03,8,4,0,2,5,7,1,28
117.03,5,5,3,2,0,4,5,18
117.04,12,8,1,3,17,9,26,49
117.05,12,13,3,2,8,10,3,39
117.05,22,13,1,1,12,7,11,36
117.06,18,13,1,1,4,0,20,16
117.06,5,27,6,2,4,5,35,33
117.06,4,32,4,8,7,5,63,17
117.07,20,37,2,0,22,20,106,0
117.08,3,29,6,5,2,7,36,8
117.08,19,18,2,4,9,4,21,13
117.08,29,15,0,5,5,5,15,1
117.09,8,5,1,3,5,4,30,11
117.09,1,3,11,2,5,7,23,4
117.1,6,16,3,8,6,3,12,16
117.11,8,4,4,0,10,8,2,16
117.11,7,18,7,5,7,0,7,13
117.11,6,2,3,4,8,14,4,3
117.12,1,14,1,5,5,5,6,0
117.12,3,1,2,7,10,13,14,9
117.13,3,2,6,5,5,5,15,2
117.14,6,9,1,0,2,2,6,1
117.14,4,12,6,1,1,1,8,3
117.14,11,18,12,3,1,3,9,6
117.15,3,10,2,3,6,6,7,3
117.16,3,5,0,1,2,2,12,5
117.16,1,24,3,6,3,2,5,11
117.17,7,46,12,2,5,3,5,6
117.17,2,5,4,6,7,1,10,1
117.17,3,0,1,6,13,9,1,3
117.18,5,8,12,11,3,1,2,1
117.19,0,3,10,7,2,2,4,3
117.19,2,1,5,12,1,2,3,0
117.19,3,7,4,10,10,13,6,5
117.2,1,3,6,0,10,11,7,4
117.2,8,1,1,12,7,8,3,6
117.21,6,1,3,19,8,12,0,4
117.22,0,4,1,1,16,11,7,2
117.22,2,3,6,5,11,3,1,3
117.22,0,1,4,2,5,0,3,5
117.23,4,5,1,4,3,3,1,4
117.23,19,5,2,5,12,8,2,1
117.24,1,3,1,7,10,0,2,3
117.25,5,3,1,0,1,5,5,4
117.25,3,6,0,4,3,9,1,1
117.25,7,4,1,8,11,12,3,0
117.26,4,1,4,9,4,3,0,1
117.27,1,8,1,6,3,2,4,2
117.27,1,4,3,12,0,0,0,3
117.28,4,1,0,10,3,0,2,1
117.28,3,2,2,9,6,3,3,3
117.28,6,19,7,38,6,5,1,0
117.29,7,34,4,2,6,5,0,3
117.3,0,4,1,12,8,0,1,4
117.3,1,1,2,1,8,5,5,3
117.31,1,5,3,35,14,3,4,3
117.31,6,6,12,6,5,15,4,4
117.31,5,3,7,1,15,13,3,4
117.32,3,7,7,2,1,2,1,1
117.33,7,3,5,41,2,3,0,4
117.33,0,3,11,23,5,1,2,2
117.33,2,1,4,10,11,12,4,2
117.34,1,11,8,9,4,2,2,1
117.34,4,1,9,13,7,13,2,1
117.35,3,5,1,15,2,5,2,0
117.36,0,2,4,22,17,2,1,3
117.36,1,4,1,17,31,19,1,3
117.36,2,4,10,34,8,11,5,2
117.37,2,0,5,10,0,4,3,3
117.38,1,4,1,5,4,3,2,0
117.38,2,3,1,15,16,10,3,1
117.39,0,2,5,21,1,3,2,2
117.39,2,0,12,27,39,19,4,0
117.39,0,4,2,17,12,6,1,0
117.4,1,3,4,13,13,8,5,0
117.41,1,3,2,6,11,3,2,3
117.41,1,6,4,7,16,16,3,5
117.42,4,6,7,20,20,4,0,2
117.42,1,1,10,39,13,3,1,4
117.42,0,1,7,1,5,10,5,1
117.43,1,1,4,23,6,8,3,4
117.44,2,2,8,4,2,4,0,1
117.44,3,4,1,23,17,14,4,2
117.44,5,9,3,5,11,13,4,2
117.45,3,0,2,22,3,2,2,2
117.45,2,4,4,6,2,7,4,0
117.46,3,2,6,12,1,0,1,1
117.47,1,2,7,1,4,3,2,2
117.47,2,0,12,20,4,3,1,0
117.47,2,1,1,38,6,1,1,0
117.48,0,4,1,4,2,12,2,1
117.48,2,4,3,0,3,7,2,3
117.49,2,3,0,7,6,4,2,3
117.5,0,15,7,3,9,8,4,1
117.5,2,0,3,0,7,7,3,3
117.5,0,2,4,41,0,2,1,1
117.51,1,3,23,82,5,4,2,1
117.52,0,2,9,8,10,6,4,2
117.52,1,3,2,21,4,1,1,0
117.53,3,0,3,2,5,2,1,2
117.53,3,1,4,22,0,6,4,1
117.53,2,1,10,1,9,5,2,2
117.54,2,0,8,18,4,4,0,2
117.55,3,4,7,13,2,1,1,3
117.55,2,2,5,17,3,0,2,2
117.56,2,1,1,23,0,1,1,2
117.56,1,4,0,20,14,10,2,0
117.56,5,4,6,3,2,4,1,2
117.57,1,1,0,2,2,0,2,2
117.58,1,0,1,15,2,2,0,1
117.58,0,1,0,12,5,1,0,2
117.58,0,0,5,10,0,0,0,2
117.59,2,1,4,5,3,1,1,3
117.59,1,1,1,10,5,1,2,2
117.6,2,2,1,2,5,4,4,0
117.61,2,2,4,7,2,1,1,1
117.61,2,4,1,2,5,2,19,1
117.61,4,3,2,1,5,0,17,2
117.62,1,0,0,3,5,3,15,2
117.62,4,4,1,5,2,4,64,4
117.63,13,10,1,3,11,18,89,6
117.64,14,8,3,2,1,1,7,6
117.64,3,10,3,1,12,11,4,38
117.64,10,23,5,3,11,9,71,35
117.65,9,19,0,8,6,18,52,5
117.66,6,8,2,19,26,17,104,21
117.66,2,9,2,1,5,3,87,3
117.67,1,8,1,5,7,6,55,13
117.67,25,6,3,4,12,7,64,4
117.67,16,10,0,16,11,5,101,43
117.68,12,9,1,1,1,6,32,15
117.69,38,26,1,2,11,14,82,16
117.69,28,7,1,10,17,12,97,3
117.69,15,2,5,12,10,0,68,33
117.7,38,21,2,3,5,5,6,23
117.7,0,17,5,19,12,4,108,52
117.71,43,32,7,5,2,0,51,5
117.72,24,11,5,9,20,22,109,2
117.72,18,31,13,5,7,1,28,58
117.72,14,13,5,7,8,5,22,25
117.73,7,24,6,4,1,0,50,26
117.73,9,7,1,9,13,19,30,25
117.74,1,17,5,12,5,6,16,58
117.75,13,8,4,2,8,1,40,40
117.75,7,22,5,4,1,4,2,41
117.75,5,18,3,0,2,7,17,2
117.76,27,12,4,7,8,9,30,27
117.77,2,8,13,8,1,2,13,19
117.77,35,21,11,6,5,2,0,31
117.78,24,13,4,1,13,6,41,26
117.78,3,16,8,6,1,6,4,7
117.78,14,8,3,6,9,2,26,48
117.79,4,3,2,1,12,4,2,13
117.8,14,7,14,6,10,3,5,23
117.8,3,6,20,12,8,8,23,20
117.81,6,1,1,6,3,9,10,27
117.81,2,22,29,3,0,7,7,2
117.81,18,8,15,2,3,0,8,51
117.82,5,13,7,5,1,5,14,50
117.83,13,2,16,2,7,1,38,6
117.83,24,9,11,6,4,0,18,7
117.83,16,18,4,4,11,2,2,0
117.84,9,4,21,2,3,8,16,31
117.84,11,9,2,3,7,24,47,20
117.85,9,9,7,3,9,9,26,19
117.86,11,2,3,7,2,8,9,16
117.86,10,5,2,3,12,8,22,14
117.86,3,0,2,5,1,5,10,3
117.87,28,4,1,8,8,4,2,49
117.88,2,1,2,10,8,6,7,5
117.88,2,5,2,26,1,6,9,9
117.89,4,3,3,11,2,1,6,9
117.89,7,0,1,23,5,15,5,9
117.89,5,1,1,10,8,5,10,9
117.9,5,4,5,8,2,9,1,19
117.91,5,10,0,3,7,7,0,16
117.91,5,8,11,3,14,11,2,11
117.92,2,4,2,13,9,6,4,13
117.92,5,5,8,21,12,4,5,7
117.92,2,6,3,7,19,0,7,4
117.93,2,7,0,7,10,11,7,11
117.94,6,5,4,6,6,4,1,7
117.94,0,9,12,20,20,16,6,11
117.94,1,1,7,31,8,2,3,1
117.95,5,15,0,15,3,8,2,10
117.95,2,20,2,11,0,3,0,2
117.96,15,30,7,26,0,2,1,1
117.97,3,2,3,10,3,2,1,11
117.97,0,2,1,2,12,11,2,5
117.97,7,3,7,34,12,12,1,4
117.98,2,3,13,14,8,5,0,11
117.98,1,4,0,29,18,3,1,6
117.99,4,8,4,7,6,13,5,13
118,1,7,2,13,6,7,3,4
118,6,15,0,4,1,3,2,10
118,7,11,3,24,0,3,1,7
118.01,3,0,11,34,8,8,4,1
118.02,5,2,10,11,7,8,1,0
118.02,3,2,4,3,1,1,0,0
118.03,2,2,4,5,8,1,1,0
118.03,4,5,3,8,23,9,1,3
118.03,4,8,12,40,10,9,7,0
118.04,1,3,8,24,12,0,1,2
118.05,3,7,10,49,8,5,2,1
118.05,2,0,13,22,10,1,3,1
118.06,4,5,6,15,10,11,1,0
118.06,2,0,5,21,5,3,0,2
118.06,0,3,6,0,9,11,1,2
118.07,1,2,10,3,4,9,2,2
118.08,1,2,4,24,3,7,2,2
118.08,2,2,10,4,10,2,2,3
118.08,0,2,8,2,4,3,2,2
118.09,1,9,11,52,12,5,3,0
118.09,1,1,0,3,0,3,0,2
118.1,2,0,5,6,2,2,1,2
118.11,2,4,4,4,10,6,2,1
118.11,3,6,14,42,6,1,3,1
118.11,2,0,5,34,3,1,1,2
118.12,0,3,1,38,4,9,3,1
118.12,4,11,3,30,23,17,7,4
118.13,2,1,12,14,13,12,6,5
118.14,1,1,5,12,12,10,3,1
118.14,5,6,7,28,4,13,4,4
118.14,1,2,3,6,6,15,6,3
118.15,1,2,21,2,3,4,1,0
118.16,1,3,6,3,0,3,2,1
118.16,1,0,0,17,8,10,1,3
118.17,1,2,0,11,0,7,1,1
118.17,1,1,3,17,4,3,0,1
118.17,1,2,14,8,2,3,2,1
118.18,1,1,10,11,5,7,0,1
118.19,1,4,2,21,7,5,2,1
118.19,1,2,9,10,4,0,2,1
118.19,2,3,6,0,7,1,3,1
118.2,2,14,0,69,4,1,1,3
118.2,2,1,3,36,2,1,0,2
118.21,1,0,5,14,6,6,5,2
118.22,0,2,5,24,7,8,1,1
118.22,3,1,8,19,9,1,0,2
118.22,0,2,9,15,4,9,3,0
118.23,1,3,10,25,8,2,1,0
118.23,8,1,1,0,6,6,4,0
118.24,0,1,1,1,2,2,1,3
118.25,0,1,1,2,2,2,1,1
118.25,1,2,5,2,2,3,2,0
118.25,2,0,2,13,1,1,0,1
118.26,2,1,1,11,2,6,5,2
118.27,3,1,6,8,2,4,1,2
118.27,1,1,2,1,0,6,0,2
118.28,0,4,1,2,1,1,1,1
118.28,1,1,3,1,9,9,3,1
118.28,0,2,0,7,5,3,1,3
118.29,3,2,1,8,2,4,1,2
118.3,3,1,2,3,4,2,3,0
118.3,1,2,2,8,2,2,1,2
118.31,4,0,2,8,1,2,15,11
118.31,7,1,2,0,12,3,24,12
118.31,6,8,0,2,5,7,5,26
118.32,6,5,3,2,6,0,17,5
118.33,10,2,1,1,1,7,17,14
118.33,16,1,2,3,6,8,3,31
118.33,2,3,0,1,1,5,21,12
118.34,1,0,2,4,8,8,65,20
118.34,20,13,1,5,8,11,25,15
118.35,5,2,2,2,3,5,53,20
118.36,2,6,0,2,2,3,27,1
118.36,4,3,2,1,8,11,36,32
118.36,8,2,3,6,4,5,17,7
118.37,4,4,1,1,6,2,32,8
118.38,5,4,3,5,1,2,29,17
118.38,1,7,4,4,6,0,25,5
118.39,1,1,3,2,4,1,45,12
118.39,5,2,0,0,2,2,12,16
118.39,1,6,2,1,3,0,6,17
118.4,32,22,0,0,3,3,9,17
118.41,0,4,3,7,2,3,3,6
118.41,5,1,3,2,3,2,8,3
118.42,7,6,3,5,6,4,6,2
118.42,1,15,0,1,3,2,12,3
118.42,11,14,2,4,8,8,11,33
118.43,4,4,6,1,15,13,13,22
118.44,10,33,0,6,6,5,24,46
118.44,18,7,2,1,2,1,19,17
118.44,24,3,5,2,16,8,47,69
118.45,6,13,5,7,19,7,63,105
118.45,8,6,4,1,27,19,14,12
118.46,22,2,7,10,14,3,18,36
118.47,35,9,7,6,6,4,7,11
118.47,23,11,0,3,2,1,12,39
118.47,0,31,3,3,13,11,5,13
118.48,6,3,1,1,2,1,1,4
118.48,4,16,7,0,2,7,18,16
118.49,25,1,2,4,2,3,11,31
118.5,11,12,6,4,7,4,20,47
118.5,5,9,3,4,2,1,27,0
118.5,2,14,1,2,1,0,14,14
118.51,3,6,3,5,3,3,3,22
118.52,5,9,6,3,13,14,19,36
118.52,0,13,0,2,5,5,2,15
118.53,4,3,0,1,7,3,15,4
118.53,6,15,2,0,3,0,14,4
118.53,4,8,8,14,8,16,3,34
118.54,17,5,0,4,0,1,5,28
118.55,9,4,4,1,8,0,37,26
118.55,6,19,6,2,1,2,33,42
118.56,9,27,7,3,3,9,33,8
118.56,13,42,2,2,2,3,37,14
118.56,1,25,6,5,9,8,8,11
118.57,3,4,3,1,1,4,11,8
118.58,2,10,11,1,12,7,1,21
118.58,9,11,15,5,7,0,10,49
118.58,15,8,12,5,1,5,0,2
118.59,11,2,3,4,13,9,22,47
118.59,6,18,14,3,7,6,4,7
118.6,5,17,8,2,0,3,14,1
118.61,8,21,4,2,3,5,11,17
118.61,5,20,5,2,3,0,12,1
118.61,3,4,3,2,11,12,18,15
118.62,5,6,2,21,5,4,4,12
118.62,5,12,11,32,1,4,3,8
118.63,0,1,11,5,5,11,13,1
118.64,4,5,1,0,3,2,9,8
118.64,7,9,4,2,1,5,12,15
118.64,4,15,9,3,9,10,15,9
118.65,5,5,11,5,1,0,4,15
118.66,6,12,1,2,7,10,6,6
118.66,6,7,2,4,4,1,2,7
118.67,1,10,5,1,10,14,3,5
118.67,9,1,8,2,13,18,3,17
118.67,1,15,1,20,0,2,5,12
118.68,4,3,1,24,7,8,1,7
118.69,3,2,5,5,14,8,3,7
118.69,0,12,1,8,13,6,8,5
118.69,1,0,16,47,46,27,0,4
118.7,1,1,3,43,15,9,0,4
118.7,3,5,4,1,3,1,4,3
118.71,2,4,2,25,6,9,3,1
118.72,4,4,1,38,9,4,1,3
118.72,1,6,26,13,20,16,1,4
118.72,0,5,1,63,4,5,1,2
118.73,2,2,7,16,17,36,4,3
118.73,7,0,5,26,5,9,3,4
118.74,3,3,9,26,11,10,3,3
118.75,4,4,5,43,10,6,0,3
118.75,3,8,18,27,9,3,1,0
118.75,1,5,13,7,19,10,7,3
118.76,6,10,8,51,3,5,0,5
118.77,4,2,20,30,17,18,3,4
118.77,0,0,10,61,3,10,2,5
118.78,1,5,14,73,0,1,3,2
118.78,4,5,7,9,16,9,5,2
118.78,2,2,9,8,15,2,1,4
118.79,0,2,2,27,10,4,4,3
118.8,2,7,6,8,2,8,2,2
118.8,4,1,2,34,8,4,1,12
118.81,3,9,4,30,18,13,2,2
118.81,4,8,1,17,14,9,2,0
118.81,8,10,3,60,10,12,5,6
118.82,4,1,11,70,15,12,4,4
118.83,2,5,11,21,21,21,6,4
118.83,1,3,9,23,10,5,1,2
118.83,0,2,0,13,7,6,3,2
118.84,0,0,1,15,7,2,4,2
118.84,3,1,2,5,5,0,0,3
118.85,1,1,3,7,4,1,1,1
118.86,1,3,0,6,10,11,1,1
118.86,0,3,1,6,15,13,2,2
118.86,2,4,8,16,23,12,4,5
118.87,2,4,7,16,5,1,2,0
118.88,1,1,2,27,20,4,1,1
118.88,2,4,2,27,22,3,0,4
118.89,1,0,0,14,23,7,3,1
118.89,1,5,2,7,2,1,2,1
118.89,0,2,0,3,7,3,2,0
118.9,2,2,7,3,6,9,2,1
118.91,2,2,4,9,7,6,1,0
118.91,2,5,7,21,0,1,3,1
118.92,2,4,7,5,9,4,2,2
118.92,4,0,2,27,4,2,1,1
118.92,7,1,1,24,12,9,1,3
118.93,5,2,3,75,10,3,1,1
118.94,1,7,1,16,9,6,0,2
118.94,3,1,10,19,2,3,1,1
118.94,2,10,4,19,0,6,3,0
118.95,3,11,1,28,6,2,1,2
118.95,21,11,2,5,14,4,3,4
118.96,8,2,3,16,7,2,0,3
118.97,1,6,1,4,4,1,2,1
118.97,8,1,2,6,2,0,0,2
118.97,5,3,5,8,1,3,0,4
118.98,3,1,1,14,5,1,2,2
118.98,12,2,1,11,4,4,2,0
118.99,4,4,1,6,4,1,0,1
119,4,2,1,7,8,1,2,0
119,2,1,2,6,5,3,1,3
119,6,1,1,4,7,3,14,1
119.01,1,5,0,3,4,1,9,9
119.02,3,10,2,1,6,2,16,6
119.02,1,2,2,1,6,6,16,22
119.03,17,6,3,3,7,2,31,23
119.03,3,3,1,5,5,4,14,21
119.03,3,5,1,3,9,1,23,19
119.04,16,8,0,1,7,9,22,8
119.05,12,1,2,8,2,4,6,13
119.05,18,1,3,11,9,5,39,2
119.06,29,1,1,2,1,3,30,30
119.06,15,2,3,2,6,3,39,8
119.06,8,4,0,5,5,2,25,1
119.07,0,5,1,2,3,1,18,5
119.08,4,5,2,3,3,1,23,2
119.08,4,6,3,3,1,0,8,4
119.08,8,10,3,7,3,3,10,4
119.09,2,8,3,1,5,1,11,23
119.09,8,15,4,1,3,3,1,3
119.1,20,15,2,0,0,1,12,5
119.11,33,9,2,3,5,2,3,3
119.11,5,1,2,0,2,1,7,8
119.11,8,7,4,4,14,9,10,33
119.12,15,5,4,1,0,5,2,8
119.12,2,8,1,0,3,2,10,4
119.13,27,23,3,3,5,2,13,9
119.14,25,12,3,15,17,7,8,6
119.14,23,6,3,17,8,13,11,4
119.14,8,43,1,1,14,11,17,1
119.15,8,16,2,3,1,3,7,10
119.16,28,22,1,7,11,1,12,18
119.16,13,4,1,13,18,8,20,87
119.17,1,5,3,6,8,2,21,75
119.17,2,38,8,9,26,6,10,59
119.17,10,20,2,4,14,6,0,41
119.18,34,32,1,2,25,11,22,36
119.19,13,12,3,2,10,6,2,55
119.19,5,27,6,2,3,4,7,23
119.19,15,11,7,5,7,1,26,17
119.2,29,17,10,4,22,15,10,8
119.2,15,13,1,10,12,8,0,7
119.21,0,34,3,0,19,8,14,34
119.22,4,10,1,1,11,6,10,15
119.22,21,30,5,25,15,14,29,18
119.22,6,1,13,1,1,4,24,16
119.23,3,18,46,3,3,1,10,2
119.23,11,15,24,7,17,10,5,42
119.24,19,17,60,14,8,5,0,11
119.25,20,11,52,6,10,10,28,1
119.25,5,5,26,8,7,7,25,23
119.25,4,9,23,6,3,3,22,8
119.26,13,30,11,0,10,4,41,8
119.27,25,36,2,1,19,11,38,46
119.27,3,10,10,1,1,1,11,7
119.28,13,5,29,7,2,4,16,35
119.28,13,17,10,4,4,8,26,34
119.28,24,30,21,3,3,8,20,29
119.29,11,19,4,13,14,2,19,57
119.3,10,14,22,11,2,2,9,32
119.3,13,15,15,10,17,5,19,30
119.31,32,1,3,1,6,1,27,30
119.31,48,6,5,6,3,1,11,14
119.31,6,2,6,4,2,1,3,13
119.32,2,2,9,11,5,4,6,40
119.33,5,22,4,15,14,3,15,41
119.33,6,10,6,6,0,0,14,8
119.33,1,1,18,2,9,5,4,25
119.34,22,2,4,9,0,4,2,62
119.34,15,7,2,2,10,7,1,4
119.35,36,4,4,0,9,3,7,8
119.36,36,10,8,3,7,9,5,31
119.36,2,9,3,1,6,10,16,11
119.36,17,13,2,14,8,7,2,13
119.37,2,1,4,0,7,8,4,18
119.38,3,3,1,24,5,2,4,3
119.38,9,13,5,30,25,14,6,20
119.39,15,10,8,1,9,4,6,26
119.39,16,11,0,10,1,4,1,16
119.39,8,8,7,5,14,3,4,19
119.4,3,5,4,24,14,6,6,1
119.41,3,8,2,3,5,5,1,9
119.41,2,3,7,10,7,3,4,7
119.42,4,4,0,5,8,4,1,7
119.42,10,10,3,5,10,4,6,25
119.42,7,7,3,3,6,11,2,8
119.43,3,4,3,35,10,16,2,6
119.44,1,4,10,1,18,15,2,2
119.44,2,12,11,9,7,1,1,8
119.44,4,3,5,7,10,0,0,0
119.45,0,1,7,19,18,6,1,12
119.45,0,6,3,5,2,8,2,4
119.46,4,8,6,7,1,8,4,8
119.47,1,5,16,19,7,11,4,3
119.47,7,7,6,16,5,2,3,5
119.47,10,2,31,25,2,13,5,4
119.48,8,19,12,13,20,17,6,12
119.48,4,16,1,14,28,17,5,4
119.49,6,6,6,32,5,1,3,1
119.5,6,1,9,41,6,15,6,11
119.5,2,1,8,55,1,5,2,2
119.5,10,7,10,4,2,2,3,3
119.51,18,10,9,28,8,10,4,1
119.52,6,2,6,10,19,19,3,1
119.52,1,8,3,8,9,9,4,8
119.53,5,4,23,17,2,3,0,1
119.53,1,11,6,1,13,6,1,3
119.53,3,1,11,16,19,7,5,8
119.54,6,7,1,16,16,6,6,6
119.55,2,2,3,61,11,4,3,4
119.55,2,7,7,43,15,8,4,1
119.56,5,6,15,15,6,6,3,3
119.56,5,5,4,49,2,17,3,1
119.56,5,4,8,4,26,18,4,2
119.57,1,4,8,43,18,14,4,2
119.58,2,5,11,19,22,13,3,8
119.58,4,5,5,11,4,7,6,11
119.58,5,4,10,10,13,4,2,4
119.59,1,3,3,25,15,8,1,4
119.59,3,6,11,56,5,8,2,2
119.6,2,1,5,16,5,4,2,5
119.61,1,1,15,46,4,1,1,4
119.61,0,1,4,44,0,3,0,2
119.61,1,5,8,21,19,9,4,0
119.62,5,12,10,9,4,7,4,3
119.62,3,4,1,16,0,10,1,2
119.63,1,0,1,5,8,3,1,9
119.64,3,2,7,39,15,17,5,4
119.64,3,2,8,15,11,9,3,3
119.64,1,2,2,17,5,5,1,2
119.65,2,2,3,1,11,5,1,0
119.66,4,6,4,29,7,3,3,8
119.66,1,5,1,50,3,6,4,2
119.67,0,4,7,64,14,7,1,5
119.67,1,0,9,25,15,7,1,2
119.67,3,1,10,22,11,2,0,5
119.68,5,1,1,6,5,6,0,7
119.69,7,0,3,6,11,5,0,20
119.69,1,4,1,7,1,3,4,3
119.69,2,1,6,14,15,10,2,1
119.7,2,1,8,5,17,13,1,4
119.7,6,1,15,29,12,6,2,1
119.71,0,2,2,16,6,13,2,1
119.72,1,3,2,1,2,5,2,1
119.72,0,1,3,0,5,4,1,1
119.72,2,0,6,11,5,2,2,3
119.73,0,6,1,7,5,4,4,2
119.73,3,4,6,1,9,4,0,2
119.74,2,1,3,31,3,10,1,4
119.75,0,0,7,3,8,2,3,3
119.75,1,1,6,14,8,3,0,0
119.75,2,0,5,11,7,4,1,1
119.76,4,3,1,3,9,13,4,3
119.77,0,0,11,18,36,16,3,2
119.77,2,3,8,6,11,1,2,3
119.78,5,0,4,16,3,1,1,7
119.78,2,5,2,2,4,1,4,1
119.78,5,0,3,3,10,6,6,9
119.79,0,5,8,3,4,2,2,3
119.8,13,1,5,13,3,3,6,27
119.8,10,4,4,6,0,1,3,8
119.81,17,4,2,3,1,1,1,21
119.81,5,2,2,6,5,2,15,2
119.81,8,9,3,6,5,1,17,28
119.82,10,6,0,7,15,13,68,59
119.83,3,13,3,9,6,9,16,38
119.83,10,5,1,1,2,4,31,11
119.83,25,8,1,8,7,7,6,14
119.84,17,14,3,0,12,13,21,25
119.84,10,5,0,1,8,1,42,14
119.85,31,7,1,1,9,3,25,1
119.86,25,13,2,1,4,0,27,37
119.86,76,38,1,14,36,15,51,84
119.86,18,3,3,4,5,2,5,6
119.87,3,6,5,6,2,2,1,15
119.88,10,11,1,6,3,4,11,5
119.88,31,6,2,13,9,3,16,47
119.89,17,1,0,2,1,3,3,72
119.89,9,4,5,11,3,11,31,81
119.89,6,3,5,17,11,0,10,51
119.9,35,7,2,3,15,2,20,9
119.91,12,4,0,1,23,0,0,23
119.91,36,6,4,12,30,8,12,3
119.92,10,4,5,5,1,0,4,18
119.92,43,26,2,6,6,0,7,41
119.92,37,12,14,3,3,7,18,12
119.93,43,14,40,14,20,3,25,8
119.94,49,18,20,9,19,2,23,22
119.94,22,18,8,12,2,9,24,32
119.94,14,8,70,23,3,9,16,75
119.95,11,10,32,20,6,7,21,33
119.95,8,6,92,7,4,5,19,28
119.96,4,9,68,9,2,9,0,4
119.97,6,16,77,10,2,2,3,42
119.97,26,3,2,6,0,2,20,15
119.97,31,7,40,2,11,9,37,26
119.98,8,0,3,13,11,1,28,49
119.98,9,7,7,0,11,3,33,13
119.99,0,6,23,7,2,4,22,14
120,9,8,19,6,3,5,3,22
120,11,26,41,3,3,3,2,41
120,8,53,14,5,4,10,12,8
120.01,9,8,7,3,8,0,22,7
120.02,12,4,29,1,3,13,14,13
120.02,12,6,16,5,4,0,4,15
120.03,2,19,12,5,7,6,14,17
120.03,3,30,1,7,8,10,7,24
120.03,9,19,16,6,7,12,1,11
120.04,4,12,4,10,3,6,13,6
120.05,5,5,6,7,10,10,4,16
120.05,8,12,6,0,1,18,1,3
120.06,20,7,7,2,1,3,7,9
120.06,5,2,12,5,12,8,8,2
120.06,5,7,12,1,3,8,17,30
120.07,8,8,6,4,1,1,10,7
120.08,2,3,22,3,9,0,7,14
120.08,3,4,7,0,1,4,1,14
120.08,1,3,1,4,14,13,11,40
120.09,11,5,2,0,3,3,5,0
120.09,4,45,16,9,6,11,6,10
120.1,5,11,4,3,0,3,2,1
120.11,4,5,1,7,9,2,1,4
120.11,3,6,4,6,9,6,2,19
120.11,12,13,1,10,2,10,11,4
120.12,4,9,3,0,8,7,13,2
120.12,4,1,5,10,9,6,1,5
120.13,2,4,7,12,2,6,0,13
120.14,1,23,8,19,10,3,4,11
120.14,1,8,4,4,7,7,0,4
120.14,3,3,3,0,1,3,1,2
120.15,4,17,2,71,24,7,4,9
120.16,8,18,11,33,4,11,3,0
120.16,4,5,10,1,11,2,3,1
120.17,5,7,18,22,21,31,4,2
120.17,0,5,6,2,12,11,2,5
120.17,3,1,10,2,13,9,7,9
120.18,2,4,8,25,23,27,5,3
120.19,6,2,35,44,22,26,3,3
120.19,1,8,8,27,5,6,2,2
120.19,7,8,8,80,7,8,1,6
120.2,8,1,5,14,9,12,0,8
120.2,0,1,17,12,8,23,1,3
120.21,1,9,7,5,18,5,1,7
120.22,2,4,26,20,6,24,5,0
120.22,8,8,10,45,21,42,11,6
120.22,1,0,2,1,18,22,6,5
120.23,2,1,1,29,12,1,0,5
120.23,2,0,5,9,7,2,0,9
120.24,0,1,12,27,9,7,2,1
120.25,3,5,1,30,8,5,0,13
120.25,3,4,5,6,4,11,3,4
120.25,1,1,1,21,17,1,2,2
120.26,4,3,14,17,14,7,2,9
120.27,2,1,2,25,12,10,2,1
120.27,3,2,4,16,18,18,6,1
120.28,3,2,18,41,11,4,1,4
120.28,7,4,13,76,21,17,4,6
120.28,1,2,16,33,21,24,4,2
120.29,4,1,7,21,0,5,3,5
120.3,4,4,9,18,14,5,2,2
120.3,1,5,8,19,2,4,3,3
120.31,1,3,3,2,22,15,2,1
120.31,0,6,3,12,13,7,4,2
120.31,3,11,21,55,15,14,0,6
120.32,0,5,9,20,4,8,2,3
120.33,1,0,7,20,14,18,6,2
120.33,0,4,3,26,17,14,6,3
120.33,3,5,2,27,6,0,1,1
120.34,3,1,9,15,10,4,1,4
120.34,0,6,2,1,5,1,4,1
120.35,2,3,5,19,2,3,0,1
120.36,2,2,1,22,8,1,1,6
120.36,1,1,4,16,4,1,3,2
120.36,2,1,1,2,6,9,1,1
120.37,1,1,1,5,1,3,0,0
120.38,2,2,2,1,6,0,5,4
120.38,3,2,1,19,1,7,0,4
120.39,1,4,4,6,4,0,0,9
120.39,1,6,5,7,3,2,0,0
120.39,2,3,2,14,0,4,3,3
120.4,2,4,5,11,11,8,1,4
120.41,1,2,5,17,2,1,2,4
120.41,2,1,3,10,3,3,0,2
120.42,1,1,1,3,12,4,1,1
120.42,3,2,8,23,2,2,0,4
120.42,0,2,9,17,2,6,4,5
120.43,2,3,0,26,6,7,3,4
120.44,5,5,1,20,1,1,0,3
120.44,2,2,3,19,0,3,1,1
120.44,1,4,11,53,7,0,3,1
120.45,7,1,3,1,1,2,7,10
120.45,9,2,5,5,4,2,13,12
120.46,13,3,0,7,9,7,23,34
120.47,1,0,2,19,7,6,1,16
120.47,2,3,7,10,2,8,5,6
120.47,6,4,1,0,5,6,18,16
120.48,2,1,2,3,9,7,1,1
120.48,12,3,1,7,2,7,7,12
120.49,0,2,4,5,8,7,0,10
120.5,3,1,1,1,7,7,11,5
120.5,4,4,7,5,0,3,5,5
120.5,6,3,4,3,9,2,13,12
120.51,1,2,4,0,3,4,4,7
120.52,5,0,2,4,3,2,2,9
120.52,2,2,2,9,0,1,20,9
120.53,4,2,2,11,1,6,11,4
120.53,0,2,0,1,6,5,17,12
120.53,1,3,4,3,4,2,7,6
120.54,3,3,2,2,5,0,13,8
120.55,1,4,1,9,5,0,26,35
120.55,5,5,1,1,1,1,13,2
120.56,6,14,5,4,6,2,17,2
120.56,9,0,4,6,6,0,40,12
120.56,12,1,3,4,8,4,22,14
120.57,1,3,5,2,5,6,10,1
120.58,0,10,0,4,6,4,11,51
120.58,11,8,0,6,11,2,38,78
120.58,10,4,0,0,4,6,16,0
120.59,4,0,1,1,5,6,12,8
120.59,1,8,3,0,13,13,22,12
120.6,4,3,1,5,6,12,2,31
120.61,1,28,3,3,0,4,8,9
120.61,34,3,0,2,15,15,55,60
120.61,14,14,2,2,3,2,3,19
120.62,2,17,0,2,12,16,0,14
120.62,2,10,1,5,5,4,5,55
120.63,4,31,2,6,6,1,33,13
120.64,12,10,4,7,0,7,6,61
120.64,3,14,5,1,6,2,56,5
120.64,18,29,3,2,1,2,27,10
120.65,9,48,4,2,15,11,16,16
120.66,27,40,2,2,3,2,21,21
120.66,27,7,2,8,5,3,5,36
120.67,15,31,5,5,13,8,22,52
120.67,16,21,0,3,8,10,8,29
120.67,18,12,4,3,5,3,18,14
120.68,14,30,2,2,1,1,14,31
120.69,55,57,9,7,10,0,2,109
120.69,55,64,6,0,14,7,9,101
120.69,0,53,9,7,0,0,37,57
120.7,14,13,3,7,2,7,8,18
120.7,20,46,5,6,1,7,9,34
120.71,13,42,4,2,2,1,1,45
120.72,16,2,12,10,4,10,2,10
120.72,25,23,13,3,1,10,9,13
120.72,5,22,29,8,8,9,7,25
120.73,28,65,56,5,3,9,5,16
120.73,20,76,31,0,5,1,5,23
120.74,34,83,43,2,3,4,15,37
120.75,22,112,10,6,11,11,25,54
120.75,17,19,27,4,2,4,8,18
120.75,4,43,9,1,6,1,4,9
120.76,33,83,26,8,3,0,3,4
120.77,11,23,8,5,7,5,10,21
120.77,8,11,3,1,2,3,10,17
120.78,35,16,4,4,0,4,1,13
120.78,18,15,12,1,16,5,2,2
120.78,33,31,18,2,9,4,8,21
120.79,20,16,1,4,3,2,8,9
120.8,10,49,3,0,2,4,7,19
120.8,1,14,9,7,17,18,1,19
120.81,9,23,0,7,13,2,2,7
120.81,6,25,9,2,14,22,3,1
120.81,2,19,0,30,20,32,5,3
120.82,8,3,2,19,8,4,3,1
120.83,3,3,14,27,13,9,3,1
120.83,2,11,8,6,12,16,0,1
120.83,6,6,5,10,6,4,9,5
120.84,1,5,1,9,0,0,2,7
120.84,10,14,7,15,4,3,2,4
120.85,5,16,1,5,6,3,1,8
120.86,1,22,9,4,4,6,3,0
120.86,1,48,1,41,13,1,3,1
120.86,0,16,4,8,2,12,1,1
120.87,7,23,11,20,5,5,3,5
120.88,8,8,10,13,12,13,3,0
120.88,1,22,3,46,16,15,3,1
120.89,13,8,3,4,4,8,0,6
120.89,1,20,4,20,29,13,1,4
120.89,0,3,8,3,1,8,1,2
120.9,3,13,6,30,11,8,0,5
120.91,5,10,1,16,9,22,6,2
120.91,2,3,4,20,13,13,0,4
120.92,4,4,2,27,8,9,3,2
120.92,0,12,8,10,5,1,1,4
120.92,1,4,2,3,12,2,0,2
120.93,2,2,2,20,22,14,2,5
120.94,0,12,24,53,11,2,5,3
120.94,2,6,4,19,2,9,1,2
120.94,1,3,4,8,2,13,1,1
120.95,2,6,6,9,18,3,1,1
120.95,2,1,12,6,7,5,1,1
120.96,6,12,4,15,3,0,2,0
120.97,6,10,4,48,22,13,2,1
120.97,2,3,3,45,3,2,1,1
120.97,3,2,2,9,1,1,1,0
120.98,1,5,5,11,5,10,3,1
120.98,7,4,1,45,4,15,6,3
120.99,1,13,7,69,2,2,1,0
121,4,2,0,9,11,1,1,1
121,1,3,12,25,2,5,0,1
121,3,4,6,2,1,6,3,0
121.01,3,4,1,23,8,3,1,1
121.02,0,1,7,31,4,11,3,1
121.02,5,6,5,38,18,6,3,5
121.03,1,4,9,30,3,2,1,2
121.03,1,2,11,2,11,11,2,2
121.03,4,3,2,12,2,4,2,2
121.04,3,2,3,16,1,4,1,3
121.05,1,5,17,14,3,1,0,0
121.05,1,17,0,22,12,6,1,2
121.06,3,15,9,16,4,7,1,2
121.06,3,2,4,58,2,7,1,1
121.06,1,4,2,24,11,7,3,1
121.07,1,1,5,13,23,6,2,2
121.08,1,3,5,27,3,2,2,1
121.08,3,5,6,7,5,9,3,3
121.08,1,3,3,8,0,10,3,3
121.09,3,8,4,13,4,5,4,3
121.09,1,0,5,11,0,17,6,3
121.1,2,3,3,14,11,4,0,1
121.11,1,0,1,16,3,0,4,2
121.11,0,4,3,10,16,13,5,1
121.11,2,1,4,3,1,8,5,3
121.12,2,5,1,6,2,1,1,1
121.12,1,0,4,16,2,3,1,0
121.13,1,7,2,3,7,0,1,0
121.14,2,0,4,4,5,3,1,0
121.14,0,5,5,2,8,4,1,1
121.14,5,3,5,7,2,3,0,1
121.15,1,3,0,4,2,2,1,0
121.16,3,6,7,22,10,8,3,1
121.16,1,4,7,0,3,9,3,5
121.17,1,0,1,12,1,2,2,1
121.17,1,4,1,2,3,3,1,2
121.17,0,6,1,14,8,7,1,3
121.18,4,15,2,5,2,3,4,3
121.19,1,3,0,8,1,5,0,0
121.19,2,1,4,14,9,1,1,1
121.19,7,1,8,1,2,7,4,4
121.2,5,11,4,12,5,4,7,2
121.2,2,2,3,1,5,4,1,1
121.21,2,13,0,1,6,1,2,0
121.22,0,34,3,3,4,2,3,0
121.22,7,10,3,4,5,6,0,2
121.22,2,3,5,7,1,0,7,14
121.23,2,2,4,8,2,4,2,5
121.23,11,15,1,2,5,3,2,6
121.24,1,1,3,7,3,0,0,4
121.25,6,1,1,0,0,1,14,19
121.25,8,31,3,6,2,2,17,26
121.25,6,13,4,2,1,3,7,9
121.26,19,17,2,2,6,6,57,11
121.27,8,3,0,1,2,5,13,11
121.27,11,7,3,1,4,1,1,11
121.28,1,1,1,0,1,1,15,18
121.28,11,19,2,3,6,1,15,24
121.28,4,16,0,3,8,9,6,25
121.29,11,18,1,3,1,4,1,14
121.3,1,14,0,1,4,5,20,33
121.3,4,6,3,0,3,8,15,15
121.31,6,14,2,0,2,0,5,11
121.31,10,49,4,0,2,2,19,15
121.31,9,32,5,2,7,7,65,9
121.32,5,24,1,1,13,15,81,53
121.33,3,15,0,1,5,6,10,34
121.33,8,17,1,5,9,4,15,2
121.33,2,0,1,0,3,0,15,24
121.34,3,34,1,9,11,15,58,15
121.34,6,4,5,6,2,12,8,4
121.35,0,29,0,5,19,10,53,17
121.36,3,25,4,1,6,5,7,42
121.36,10,43,4,8,5,0,33,35
121.36,9,49,1,3,3,3,25,23
121.37,3,27,4,6,8,2,33,73
121.38,17,56,4,4,14,7,24,20
121.38,5,40,1,3,1,7,16,7
121.39,17,1,3,3,3,2,23,42
121.39,15,10,5,2,11,2,3,108
121.39,3,13,7,4,3,0,11,43
121.4,10,5,0,2,3,2,15,3
121.41,6,2,5,1,9,9,7,2
121.41,3,8,1,5,2,3,11,22
121.42,2,1,1,3,0,6,9,31
121.42,27,5,1,1,8,8,8,15
121.42,3,29,5,2,4,2,1,10
121.43,7,12,7,5,3,7,3,3
121.44,1,22,4,1,4,2,3,8
121.44,4,15,2,2,8,8,4,12
121.44,1,4,24,4,3,1,0,11
121.45,7,18,9,3,0,2,6,9
121.45,4,15,47,5,9,8,2,6
121.46,8,3,38,6,2,2,3,20
121.47,14,40,0,1,1,5,3,7
121.47,12,12,24,2,5,7,2,6
121.47,6,10,8,1,2,6,1,6
121.48,2,30,18,7,2,9,3,0
121.48,3,13,6,6,12,12,5,10
121.49,11,20,29,11,10,17,4,5
121.5,2,11,4,3,5,12,1,3
121.5,3,5,15,9,3,12,2,3
121.5,7,5,1,1,13,0,3,5
121.51,1,2,22,2,5,16,4,0
121.52,1,2,1,5,4,0,1,6
121.52,2,7,15,4,9,9,6,0
121.53,0,2,3,1,8,3,2,6
121.53,1,6,17,4,2,2,3,1
121.53,3,7,0,12,10,16,4,4
121.54,6,7,10,10,16,21,3,2
121.55,5,2,8,5,6,4,1,2
121.55,2,9,3,16,18,7,3,1
121.56,4,4,12,39,11,8,5,1
121.56,6,3,16,22,5,24,5,3
121.56,0,0,5,4,12,17,2,2
121.57,0,5,11,46,3,3,1,2
121.58,3,23,8,31,9,13,2,5
121.58,2,13,6,15,2,3,1,2
121.58,1,1,8,45,11,10,3,1
121.59,1,8,1,16,12,11,3,0
121.59,2,1,7,1,3,3,3,2
121.6,2,8,1,15,7,3,1,0
121.61,0,1,10,20,5,7,2,4
121.61,0,6,3,13,6,5,1,0
121.61,3,10,9,16,24,24,3,0
121.62,1,2,18,18,1,3,1,2
121.62,0,11,18,36,6,11,5,2
121.63,3,7,19,1,12,4,1,0
121.64,0,3,5,36,11,9,2,5
121.64,4,7,15,45,11,8,1,1
121.64,1,6,3,40,25,31,7,4
121.65,1,5,1,15,18,2,3,1
121.66,4,2,0,5,6,13,5,3
121.66,1,4,7,25,3,1,2,2
121.67,0,2,13,19,19,24,4,1
121.67,2,0,5,40,4,2,2,1
121.67,0,9,17,52,3,15,4,1
121.68,1,2,1,1,2,11,5,4
121.69,0,0,5,9,5,8,2,2
121.69,1,0,6,33,3,8,1,1
121.69,3,7,1,20,0,2,1,1
121.7,4,2,23,15,6,1,1,3
121.7,3,9,6,34,5,0,3,1
121.71,0,0,9,13,3,7,1,1
121.72,0,2,1,26,1,2,4,2
121.72,0,4,6,1,3,1,0,2
121.72,3,5,6,2,3,2,1,2
121.73,3,4,2,13,8,5,1,1
121.73,5,12,5,12,11,4,1,1
121.74,1,1,8,16,1,2,1,4
121.75,3,2,5,20,14,13,4,0
121.75,0,1,4,9,7,3,1,1
121.75,0,0,7,12,13,1,0,0
121.76,1,0,6,3,4,2,0,1
121.77,2,3,4,12,0,7,1,4
121.77,1,2,3,27,0,7,2,1
121.78,1,6,1,10,5,10,2,4
121.78,4,8,16,12,3,7,3,1
121.78,2,0,3,18,8,10,4,4
121.79,4,5,5,5,2,6,3,1
121.8,2,3,5,11,1,0,1,0
121.8,1,3,1,0,3,3,4,2
121.81,1,1,2,20,2,2,2,1
121.81,1,5,8,55,10,7,4,3
121.81,2,2,0,23,1,6,1,1
121.82,1,7,3,4,7,8,2,1
121.83,2,1,6,5,0,1,2,1
121.83,1,6,8,7,3,10,1,2
121.83,1,6,1,12,6,1,2,3
121.84,1,6,18,37,3,0,3,1
121.84,1,7,2,15,1,0,4,2
121.85,1,0,8,16,2,2,0,1
121.86,1,1,6,6,4,5,0,0
121.86,3,1,4,2,11,1,2,3
121.86,2,1,1,8,1,4,0,0
121.87,3,2,2,13,0,3,2,1
121.88,3,1,1,9,5,1,1,1
121.88,14,6,4,23,9,8,1,0
121.89,1,6,2,7,1,2,1,1
121.89,2,11,0,1,0,1,0,0
121.89,7,12,7,9,2,3,1,0
121.9,16,3,5,6,0,1,2,2
121.91,12,10,1,1,2,2,0,1
121.91,25,7,3,4,6,2,3,4
121.92,13,1,3,1,3,1,0,1
121.92,21,3,4,1,6,0,3,2
121.92,21,27,2,3,6,2,1,2
121.93,17,7,3,6,7,5,3,2
121.94,31,14,2,2,4,3,2,1
121.94,9,10,0,5,6,3,1,2
121.94,38,21,4,5,1,4,1,2
121.95,43,5,0,1,2,4,4,2
121.95,24,25,5,4,11,9,11,9
121.96,38,30,1,4,10,9,6,7
121.97,28,8,1,1,3,4,7,1
121.97,3,2,5,1,2,0,3,2
121.97,49,77,1,3,11,3,16,11
121.98,8,9,2,5,15,15,37,4
121.98,110,18,5,2,28,13,83,32
121.99,4,104,0,7,11,3,4,4
122,3,36,2,1,6,5,2,36
122,79,11,5,2,10,6,5,22
122,70,26,1,2,17,11,19,1
122.01,37,3,2,2,8,4,11,8
122.02,13,10,1,0,5,8,17,14
122.02,50,16,1,1,9,8,30,68
122.03,34,17,4,5,6,3,10,28
122.03,25,20,1,1,1,2,8,46
122.03,9,14,3,3,3,2,0,23
122.04,29,77,7,5,4,8,14,2
122.05,8,9,7,0,8,1,11,13
122.05,10,4,17,11,7,8,0,0
122.06,52,19,103,8,2,6,6,3
122.06,19,42,120,1,7,2,1,8
122.06,50,6,125,17,9,4,3,9
122.07,66,2,41,4,4,7,19,26
122.08,57,31,119,6,19,16,23,5
122.08,19,4,11,4,1,6,2,27
122.08,15,9,4,7,8,4,1,10
122.09,16,127,16,13,11,2,7,1
122.09,6,113,4,12,20,4,8,2
122.1,6,69,43,11,19,6,15,23
122.11,13,101,86,2,8,7,1,36
122.11,2,119,100,18,39,11,10,41
122.11,32,128,128,31,29,4,19,51
122.12,18,13,128,33,41,0,4,31
122.12,7,106,12,13,12,19,18,11
122.13,24,123,95,10,30,9,11,15
122.14,21,127,127,27,24,5,3,24
122.14,37,72,127,15,26,5,2,2
122.14,10,29,46,8,21,17,18,6
122.15,22,8,41,10,2,0,3,3
122.16,20,74,61,3,1,4,4,12
122.16,4,18,17,3,3,1,2,17
122.17,0,28,31,8,8,11,8,1
122.17,5,10,13,3,6,7,6,1
122.17,9,35,3,1,3,4,8,0
122.18,7,14,35,9,2,4,5,2
122.19,4,1,24,7,3,3,9,1
122.19,7,22,2,1,5,4,7,1
122.19,1,11,4,3,1,7,10,1
122.2,8,9,30,18,13,11,9,11
122.2,13,4,1,17,2,4,5,9
122.21,7,8,1,10,3,11,6,12
122.22,5,6,22,19,1,12,3,2
122.22,1,14,2,12,13,12,6,6
122.22,1,13,14,12,4,3,4,3
122.23,4,8,13,17,22,23,4,0
122.23,5,6,20,1,29,25,3,0
122.24,4,6,2,16,5,8,3,3
122.25,2,2,13,22,5,3,6,3
122.25,2,12,8,25,10,1,3,6
122.25,10,9,4,8,10,15,1,2
122.26,3,2,11,5,19,14,6,8
122.27,6,6,9,26,13,5,1,1
122.27,2,13,7,15,3,5,0,3
122.28,9,8,4,5,4,5,2,2
122.28,3,4,8,19,17,1,4,0
122.28,2,1,1,39,13,7,7,1
122.29,3,16,7,15,16,1,6,1
122.3,4,10,4,6,13,4,1,0
122.3,1,12,5,15,19,10,5,7
122.31,1,8,2,17,4,3,2,0
122.31,0,1,8,5,18,21,4,2
122.31,8,8,2,62,12,13,5,1
122.32,1,5,5,13,11,14,2,2
122.33,3,8,8,45,8,9,0,1
122.33,0,2,5,45,12,16,3,1
122.33,1,3,10,13,12,8,4,1
122.34,7,8,5,9,2,5,5,1
122.34,5,7,4,2,3,8,1,2
122.35,4,2,6,9,5,11,4,4
122.36,0,6,9,40,0,8,5,1
122.36,0,1,6,5,2,2,1,1
122.36,4,6,11,11,10,1,2,0
122.37,6,4,10,16,2,14,6,6
122.38,2,3,5,40,10,5,3,1
122.38,4,3,1,14,13,12,3,2
122.39,1,6,2,21,3,2,0,0
122.39,0,0,6,6,4,6,2,1
122.39,2,5,1,3,5,7,2,3
122.4,0,2,5,11,11,4,2,1
122.41,2,7,4,26,8,6,2,2
122.41,2,1,5,22,1,8,1,1
122.42,5,3,3,27,2,3,2,4
122.42,1,1,5,22,9,5,5,1
122.42,3,4,9,31,2,8,5,2
122.43,1,4,5,11,17,5,2,1
122.44,2,3,4,9,17,2,4,1
122.44,0,6,5,30,7,6,4,1
122.44,2,2,2,8,10,9,5,3
122.45,1,3,2,10,11,9,5,1
122.45,1,7,3,23,8,3,1,0
122.46,0,5,2,3,5,4,3,2
122.47,0,1,0,25,5,7,5,0
122.47,2,0,4,20,5,2,1,3
122.47,5,6,6,4,3,1,0,1
122.48,1,2,4,34,2,4,0,1
122.48,1,4,4,24,1,3,0,0
122.49,0,1,0,30,10,5,1,3
122.5,2,3,8,9,5,1,0,0
122.5,1,1,2,17,8,11,4,0
122.5,2,3,3,22,9,11,2,1
122.51,4,11,2,19,18,6,3,5
122.52,1,1,3,27,3,4,2,4
122.52,0,1,1,17,9,4,2,2
122.53,2,2,7,33,7,5,4,1
122.53,1,1,0,32,10,8,4,3
122.53,3,4,4,13,12,5,4,2
122.54,2,8,12,2,9,1,2,1
122.55,1,2,10,12,0,2,2,3
122.55,1,0,4,14,3,1,1,0
122.56,1,4,7,12,10,12,5,4
122.56,2,10,6,14,8,15,4,0
122.56,1,3,9,8,3,3,0,1
122.57,0,2,2,23,0,3,2,3
122.58,8,1,2,5,4,2,0,0
122.58,0,3,0,5,5,6,1,1
122.58,2,1,2,4,2,3,1,2
122.59,3,6,2,6,2,3,1,1
122.59,0,2,2,10,3,3,5,4
122.6,7,2,1,3,1,2,0,0
122.61,15,3,0,8,2,3,1,2
122.61,2,11,1,1,10,3,1,2
122.61,16,1,5,0,3,5,5,3
122.62,1,6,1,2,6,2,4,0
122.62,12,22,1,11,2,1,6,3
122.63,12,1,0,0,5,4,3,13
122.64,15,1,1,4,0,0,8,12
122.64,9,3,2,3,4,0,10,1
122.64,23,26,1,3,0,5,11,2
122.65,19,17,3,1,5,2,11,5
122.66,6,13,0,1,2,1,6,7
122.66,11,35,4,1,8,4,2,6
122.67,1,18,1,5,1,1,6,11
122.67,27,9,0,0,1,0,3,3
122.67,24,0,3,2,2,0,3,9
122.68,5,16,3,2,1,2,1,7
122.69,9,0,3,1,1,1,0,10
122.69,15,5,0,5,5,2,1,2
122.69,15,9,6,2,6,5,1,3
122.7,38,10,6,1,5,2,5,5
122.7,6,39,4,3,1,1,1,1
122.71,2,12,5,6,1,3,4,3
122.72,11,15,2,2,7,5,5,3
122.72,10,21,1,1,12,7,4,4
122.72,18,18,1,1,3,1,1,1
122.73,43,22,11,4,0,1,1,0
122.73,5,25,6,2,0,4,3,3
122.74,25,20,2,4,1,1,3,4
122.75,32,31,2,4,12,8,10,16
122.75,29,22,5,2,2,5,4,9
122.75,21,17,1,0,4,1,0,2
122.76,32,1,4,1,9,6,6,15
122.77,14,16,5,4,7,4,8,24
122.77,26,2,2,1,6,2,4,12
122.78,15,33,2,1,3,2,5,14
122.78,5,13,2,1,15,8,8,4
122.78,14,19,0,1,1,3,8,15
122.79,33,2,7,8,3,1,3,0
122.8,15,10,3,4,2,2,6,20
122.8,5,10,2,4,3,1,4,5
122.81,5,8,2,8,3,1,16,31
122.81,0,14,2,2,5,5,3,16
122.81,19,9,1,3,4,0,8,19
122.82,21,10,1,4,14,10,15,4
122.83,8,3,11,9,5,7,3,12
122.83,25,9,0,4,3,1,5,6
122.83,15,8,2,3,0,2,3,6
122.84,8,16,1,3,11,7,7,15
122.84,32,30,3,2,14,17,27,0
122.85,39,7,0,5,6,6,3,10
122.86,64,36,5,5,18,14,20,4
122.86,16,14,4,1,7,3,3,28
122.86,3,8,1,2,11,9,5,2
122.87,42,22,0,2,6,8,8,5
122.88,4,26,3,6,6,7,5,18
122.88,10,20,7,3,5,0,6,21
122.89,11,30,3,5,3,0,5,18
122.89,20,25,9,1,2,1,10,17
122.89,3,25,1,1,4,2,1,19
122.9,16,27,11,0,4,5,4,10
122.91,14,6,1,2,2,2,1,6
122.91,7,22,0,9,4,5,1,5
122.92,23,7,3,3,1,5,2,13
122.92,15,6,10,2,8,3,1,11
122.92,9,1,5,2,7,5,4,10
122.93,17,18,4,1,10,4,4,10
122.94,3,12,8,3,2,8,3,1
122.94,22,33,8,10,3,7,4,2
122.94,35,2,15,31,7,2,5,8
122.95,6,21,0,2,2,2,1,2
122.95,11,18,11,17,5,1,7,1
122.96,4,5,0,28,2,1,7,6
122.97,1,27,9,25,18,14,7,7
122.97,4,11,4,42,7,4,1,9
122.97,4,5,21,10,8,11,0,3
122.98,6,3,2,13,3,10,2,4
122.98,7,15,9,41,20,4,6,8
122.99,14,27,14,74,11,6,2,0
123,2,17,10,30,13,26,4,5
123,1,11,10,0,2,10,3,7
123,3,1,10,0,10,3,2,1
123.01,3,3,2,1,14,12,5,2
123.02,4,9,12,39,4,2,3,2
123.02,6,8,15,16,6,8,0,2
123.03,0,14,1,15,5,1,2,1
123.03,1,12,4,34,2,3,0,2
123.03,4,5,4,17,4,1,2,0
123.04,0,3,1,46,10,1,2,1
123.05,2,13,10,4,0,10,4,5
123.05,0,5,5,24,2,1,4,1
123.06,1,3,2,20,12,6,1,2
123.06,6,2,4,7,17,3,0,1
123.06,4,5,16,47,8,6,3,4
123.07,0,7,7,78,8,3,0,0
123.08,1,1,5,16,4,4,2,2
123.08,2,5,2,19,4,4,1,1
123.08,1,4,9,37,8,1,2,1
123.09,2,3,1,15,0,5,1,1
123.09,2,5,8,10,10,6,5,3
123.1,2,2,9,28,9,0,0,1
123.11,0,0,6,40,1,2,0,0
123.11,1,4,11,19,2,4,0,3
123.11,2,4,1,5,9,6,2,1
123.12,4,1,3,5,9,10,3,2
123.12,2,2,3,19,5,3,4,0
123.13,0,3,12,51,2,2,0,0
123.14,2,1,9,19,3,4,0,0
123.14,2,1,2,14,6,2,3,1
123.14,0,2,1,7,10,13,4,1
123.15,2,5,1,25,14,5,0,1
123.16,3,1,17,3,5,5,0,2
123.16,3,2,0,12,14,5,0,3
123.17,0,2,2,40,6,1,2,3
123.17,3,7,8,19,4,1,3,4
