timestamp,ch1,ch2,ch3,ch4,ch5,ch6,ch7,ch8
39.5,39,-35,50,49,-11,-13,-10,-3
39.505,-31,-39,54,43,3,-7,-5,-1
39.51,-40,-24,42,42,-2,-3,-5,0
39.515,-37,-3,-10,4,-7,-3,-8,-4
39.52,-19,-24,-7,-8,-5,-5,1,2
39.525,-10,-22,-24,23,2,-5,2,2
39.53,-24,17,-79,14,0,-4,0,-2
39.535,-36,0,-39,-9,-7,-9,-6,-2
39.54,-14,-8,-43,-17,-1,-8,-16,-2
39.545,-17,2,78,15,8,5,3,-3
39.55,-13,17,127,5,-3,-8,2,3
39.555,-21,10,107,-13,-4,-3,3,1
39.56,-16,20,127,-7,7,3,0,-1
39.565,0,13,76,0,6,2,-7,-2
39.57,7,10,-15,-4,5,6,7,2
39.575,-1,6,-68,-3,0,0,5,0
39.58,25,11,-74,-3,1,0,1,-1
39.585,23,9,-32,6,-2,-3,-10,0
39.59,15,-3,-15,5,5,13,-1,-9
39.595,4,-4,-23,-1,-4,-5,7,4
39.6,5,2,14,-8,-2,-3,-4,0
39.605,3,-3,-21,5,3,10,1,-6
39.61,4,-1,-70,-2,-5,-14,-6,1
39.615,-20,-12,46,3,3,4,14,0
39.62,1,7,-31,-4,-4,-1,-4,-2
39.625,-9,-4,-31,7,-1,0,4,-1
39.63,5,3,-5,7,-6,-7,-12,3
39.635,3,-3,-24,2,1,11,-6,-6
39.64,2,-6,-34,-5,-6,-6,14,9
39.645,-7,0,38,-2,1,1,-1,-1
39.65,-20,-5,28,-3,-2,5,3,-2
39.655,-19,6,4,-5,0,-12,-8,-2
39.66,-48,-6,24,0,-1,-3,-1,-5
39.665,-19,-3,-31,1,-1,-4,3,0
39.67,5,-6,16,2,-2,-9,3,0
39.675,11,1,2,-1,-1,-1,-5,-4
39.68,47,1,-11,-3,3,-4,-4,-4
39.685,28,-6,2,1,-5,-11,5,1
39.69,21,-8,31,0,-3,-7,1,-4
39.695,12,4,-21,-2,-7,-13,-17,-9
39.7,-4,-6,23,-3,-6,-14,8,6
39.705,8,0,-42,0,-7,-19,-9,5
39.71,2,-6,30,-1,-1,5,8,-1
39.715,3,-1,-19,-4,1,-1,-1,-1
39.72,5,2,12,-5,2,8,-14,-6
39.725,-15,-8,7,-2,1,11,10,-2
39.73,-20,1,-21,-1,-4,1,-3,1
39.735,-15,1,-28,-2,-1,4,-1,1
39.74,-14,-3,-57,-1,0,3,-1,-1
39.745,-9,1,-7,0,1,6,-3,-1
39.75,-11,-2,0,-1,2,0,-1,0
39.755,-4,-3,6,-3,0,-1,5,2
39.76,-2,1,-3,-1,1,3,-4,-6
39.765,2,-3,13,-1,-2,-2,-4,0
39.77,0,-5,2,-2,0,3,-3,-3
39.775,3,1,9,2,-3,-4,-1,-1
39.78,3,-3,-9,-3,0,-1,-2,0
39.785,4,-1,87,0,4,-4,-4,-1
39.79,6,-2,41,-1,0,-3,-3,1
39.795,0,-4,16,-2,1,2,-3,-1
39.8,-2,0,10,-2,0,5,-1,-3
39.805,4,-1,12,0,-2,-1,-1,-3
39.81,1,-2,29,0,-1,3,-5,-1
39.815,0,-1,40,0,-6,0,-1,0
39.82,3,0,10,2,-3,-2,-2,-2
39.825,4,0,-29,-1,-6,-1,-2,-1
39.83,1,-2,-26,-1,-1,-1,-1,-1
39.835,-1,-4,-35,-3,-3,0,1,1
39.84,-1,-5,8,-1,-3,-3,0,0
39.845,1,-1,-4,0,-3,-1,0,-2
39.85,0,1,-4,-1,-5,-4,-2,0
39.855,0,1,-4,-1,-3,-2,-2,-1
39.86,1,-1,24,-1,-1,0,-1,-1
39.865,1,-1,-26,-2,-1,-1,-1,0
39.87,-3,0,12,0,-2,0,-1,-2
39.875,1,1,-7,-1,-2,-2,-2,-3
39.88,-1,-1,-21,-2,-4,0,-3,-2
39.885,-2,1,-10,0,-4,2,-3,-3
39.89,0,1,-6,1,-2,1,-1,-1
39.895,-3,0,10,-3,-2,-1,-2,0
39.9,-4,0,-1,-3,0,-1,-1,-1
39.905,0,-1,-7,-2,-1,0,0,-2
39.91,0,0,1,-2,1,0,-1,-2
39.915,-1,1,-3,0,2,1,1,0
39.92,0,-1,10,-1,0,1,-1,-3
39.925,-1,-1,-28,0,1,0,-1,-1
39.93,1,-1,-13,-1,1,-1,1,0
39.935,1,-2,-3,-1,-2,-3,0,0
39.94,-1,-2,-9,-1,0,-3,2,1
39.945,-1,-2,6,1,2,-2,0,0
39.95,-2,-1,-25,-1,2,-2,1,-1
39.955,2,0,-14,1,0,-2,-1,1
39.96,0,1,13,1,-1,-4,-1,0
39.965,0,-2,4,-2,-3,-5,-3,0
39.97,1,-1,11,-4,0,-3,-1,0
39.975,0,2,-13,-2,0,1,1,-3
39.98,2,0,17,-2,1,0,0,-1
39.985,1,-3,-39,-1,-2,0,-1,0
39.99,0,2,1,-1,-5,-1,-1,-1
39.995,1,2,-11,-1,-3,-1,-3,-2
40,-2,3,-17,0,-4,-2,0,0
40.005,-1,-1,31,0,-4,-2,0,-1
40.01,-1,-4,-13,-1,-3,-3,-2,-1
40.015,-2,-8,-8,-2,0,-2,-2,0
40.02,0,-10,3,0,-1,-2,0,-4
40.025,-1,-4,34,0,0,-2,-1,-3
40.03,1,-5,-6,1,-5,-4,-1,-3
40.035,1,-10,11,-1,-5,-3,-2,-1
40.04,-2,-8,-4,-3,-3,-2,0,-2
40.045,3,-13,-27,-2,-4,-3,-1,-1
40.05,5,-4,25,1,-2,-3,-3,-2
40.055,5,4,22,-1,-3,-3,-2,-1
40.06,7,5,8,-2,-1,-3,-3,-1
40.065,2,17,3,-3,0,-2,-1,0
40.07,7,8,-17,-2,2,0,0,-2
40.075,12,3,-29,-1,2,-1,1,-2
40.08,23,3,-9,-3,0,0,0,-1
40.085,15,6,-18,-1,0,-1,1,-1
40.09,8,27,1,-1,0,0,0,-2
40.095,-8,18,-1,0,0,2,0,-1
40.1,-18,14,1,-1,0,-1,-1,1
40.105,-20,4,17,-2,1,2,1,-1
40.11,-17,-12,11,-4,-1,0,0,1
40.115,-11,-22,3,-1,0,0,0,-1
40.12,-13,4,-1,-1,0,1,0,1
40.125,-17,11,6,-2,-1,1,-1,-1
40.13,-18,15,7,0,0,3,1,-2
40.135,-13,2,14,-2,-1,1,-1,-1
40.14,-9,-8,8,0,-1,-1,-3,-2
40.145,-4,-17,8,-4,-1,-2,-2,-2
40.15,-3,-19,-31,2,0,3,0,-1
40.155,-1,-9,-17,-2,-1,13,0,-2
40.16,-3,-6,-14,-2,-1,11,1,-1
40.165,1,-2,2,0,-3,2,0,-1
40.17,0,-9,10,-3,-1,-8,-2,-1
40.175,1,2,11,-1,-2,-13,-1,-1
40.18,-1,-3,-1,1,-3,-10,-1,0
40.185,3,-5,9,1,-3,-10,-3,-1
40.19,4,-10,20,0,-1,-6,-4,0
40.195,-2,-1,-2,0,-1,-6,-1,-1
40.2,1,2,11,-1,-1,-4,-1,-1
40.205,2,-1,2,0,-1,-2,-1,-2
40.21,0,-4,-2,-1,-1,0,-2,-1
40.215,0,2,-7,-2,-3,1,-3,0
40.22,2,-2,19,-2,-1,-1,-1,0
40.225,1,-2,13,0,0,-1,-1,1
40.23,-2,2,1,0,-2,0,-2,-2
40.235,-2,-2,13,0,-2,0,-1,-2
40.24,-1,-4,1,-2,-1,1,-3,-1
40.245,-1,0,-49,-1,0,1,-1,-1
40.25,1,2,1,-2,-1,1,-2,0
40.255,1,0,10,-1,1,0,-1,0
40.26,1,-2,1,-2,-1,1,-2,-2
40.265,0,-3,-7,-2,-1,0,0,-1
40.27,-2,-2,-11,1,-1,-1,0,-2
40.275,0,-2,-4,0,-1,-2,1,-3
40.28,0,-3,-1,0,-1,-1,-1,0
40.285,-1,-1,2,-1,-2,0,0,-1
40.29,1,-2,16,-2,-2,-1,0,-1
40.295,-1,-2,-1,0,0,-2,-1,-2
40.3,1,-4,-10,0,0,0,-1,-2
40.305,1,-2,0,-1,-2,2,-2,0
40.31,-1,0,1,0,-3,-1,-1,0
40.315,-1,4,-6,-2,-2,-2,-1,-1
40.32,0,1,-5,-2,-1,-2,0,-2
40.325,2,-3,0,0,-2,0,0,-1
40.33,-2,-3,9,-1,-2,-2,-2,0
40.335,-1,3,2,-1,-1,0,1,0
40.34,-1,-3,-4,1,-3,-3,-1,-2
40.345,-2,-2,2,-1,0,-2,-1,-3
40.35,2,0,0,-1,0,0,-1,-1
40.355,-3,1,7,-1,-1,-1,-1,1
40.36,1,2,-3,-1,-1,-2,-1,-2
40.365,0,-1,8,-1,-3,-2,-1,-1
40.37,-2,0,-5,0,-1,0,-2,-3
40.375,0,-6,2,-1,-2,-1,-2,1
40.38,-4,-5,0,-1,-1,0,-1,-1
40.385,-2,0,6,0,-3,-1,-1,0
40.39,0,3,-2,-2,-1,0,-2,-1
40.395,2,3,1,-1,-2,-3,-1,-1
40.4,-1,-2,4,0,1,-1,0,1
40.405,-1,-5,9,-1,1,-1,-1,-1
40.41,-2,-4,-5,0,1,-1,-1,-2
40.415,1,-5,4,-1,0,-1,-1,-3
40.42,-2,4,9,-2,-1,-1,-1,-3
40.425,-2,4,-14,-2,-1,-1,-2,0
40.43,-1,0,-6,-1,-2,0,-2,-2
40.435,-2,-1,-6,0,-2,-1,-1,-2
40.44,-1,-1,-11,-1,-5,-2,0,-3
40.445,-1,-3,3,4,1,1,1,1
40.45,-1,-3,-24,-10,-3,-1,0,1
40.455,1,1,2,-7,-3,0,0,-2
40.46,-6,-1,-19,1,-7,-3,-4,-4
40.465,-1,4,-24,-1,4,4,-3,1
40.47,0,-6,-8,-1,-6,-8,-4,0
40.475,-3,-1,-2,11,4,2,0,-1
40.48,-4,-3,45,-17,-6,-7,-2,-5
40.485,-4,-13,-30,6,2,2,-4,-3
40.49,-1,9,-17,-13,-1,-13,-9,-2
40.495,-3,-2,5,-17,-7,0,-8,-4
40.5,5,-2,7,-1,8,-5,7,5
40.505,-2,-6,-21,8,2,2,7,0
40.51,-2,3,31,4,1,5,4,-3
40.515,-6,-10,-23,1,-6,-5,-7,-6
40.52,-3,-3,-19,-2,-3,4,-4,-3
40.525,2,2,14,-8,-4,-4,-4,-4
40.53,0,-2,6,6,-1,0,1,-1
40.535,2,0,5,1,-2,-2,0,-2
40.54,1,-1,-8,3,-2,2,-3,-1
40.545,3,4,16,-5,-4,-5,-1,-1
40.55,-4,-3,3,3,0,5,0,-2
40.555,-1,-4,-31,-2,-2,-2,-3,-1
40.56,1,3,-14,0,-3,-15,-5,2
40.565,1,2,-2,-3,1,-5,-3,-2
40.57,2,-1,1,-2,-2,1,4,-2
40.575,2,1,-4,3,5,3,7,2
40.58,-1,1,11,4,2,7,7,0
40.585,-1,3,-11,0,2,3,7,2
40.59,-1,-1,16,-1,1,8,4,-1
40.595,-2,0,19,-2,1,5,-4,-3
40.6,3,4,-35,-3,0,5,-9,-2
40.605,2,0,-35,-9,-5,-7,-5,1
40.61,0,-2,10,0,6,-5,2,1
40.615,1,-4,-15,0,5,3,8,4
40.62,0,-6,3,-2,7,7,4,1
40.625,-3,-2,-25,-4,7,8,0,-2
40.63,-6,-3,34,1,-1,0,2,3
40.635,8,6,24,-2,4,3,8,-1
40.64,4,3,-4,2,8,8,5,2
40.645,2,-4,-3,-13,5,4,1,-2
40.65,4,-2,-16,-3,12,8,2,2
40.655,-6,3,2,-8,14,11,8,-1
40.66,16,2,-20,-8,10,13,10,8
40.665,-14,4,29,0,1,6,-3,-9
40.67,-5,6,-11,10,3,4,4,-1
40.675,-17,-2,75,21,-5,-4,-6,-7
40.68,-16,-2,3,-10,-8,5,4,0
40.685,-16,3,113,9,-17,-5,-7,0
40.69,10,-1,19,0,-25,-16,-10,-4
40.695,-3,-1,57,14,-27,-22,-10,0
40.7,-1,-5,53,19,-38,-31,-21,-7
40.705,10,-2,19,4,-33,-36,-15,-6
40.71,-5,0,-13,-2,-25,-12,-22,-6
40.715,14,2,2,-2,-16,-28,-18,-7
40.72,5,4,0,-3,-9,-21,-17,-8
40.725,3,-8,-25,-9,-4,-5,-4,-8
40.73,2,-10,12,-4,-1,-13,-5,-2
40.735,-2,-16,-34,-15,1,-4,-7,4
40.74,-10,-11,13,-3,4,10,-3,-1
40.745,-5,-8,0,3,2,13,40,18
40.75,-14,-10,-40,-7,2,3,-51,-32
40.755,25,-8,-31,-7,6,17,5,11
40.76,-22,-3,-14,7,12,2,20,-6
40.765,-5,3,-43,-11,13,6,-17,-2
40.77,-20,9,-5,2,12,-1,19,-24
40.775,4,12,-50,-15,6,-1,3,20
40.78,-2,14,-4,3,8,0,27,42
40.785,84,6,7,2,6,-1,-8,-2
40.79,-58,-10,63,-7,0,-5,1,26
40.795,0,9,-29,8,2,-8,-23,-80
40.8,-2,-16,-12,-13,-5,-4,15,9
40.805,-16,8,-7,11,3,7,24,57
40.81,22,-14,-7,-3,-3,0,0,-6
40.815,7,-7,2,3,2,5,4,17
40.82,-27,-3,-2,1,0,4,-10,-18
40.825,-14,-19,-16,1,-3,-3,-3,-15
40.83,8,-12,-14,-6,-1,2,-2,-3
40.835,-6,-26,-5,8,-1,1,4,31
40.84,23,-98,8,2,1,8,60,23
40.845,-11,-84,27,-4,-6,-10,-80,52
40.85,15,89,-32,-4,2,2,41,52
40.855,-28,103,-5,-3,-3,3,19,28
40.86,10,127,-13,-14,-6,-3,-33,-16
40.865,-6,101,23,-6,0,2,25,-11
40.87,8,-12,-2,18,3,5,3,25
40.875,2,-47,5,-9,-2,1,-2,-18
40.88,0,-56,-2,4,-2,1,-15,-18
40.885,-9,-65,7,-2,2,2,8,-25
40.89,10,-44,20,12,1,-3,2,-14
40.895,-19,-33,-15,-11,0,0,20,7
40.9,-2,-46,0,4,-2,-11,-74,-47
40.905,-9,-4,18,-7,-4,-14,13,-10
40.91,7,-8,-8,0,1,10,-4,-14
40.915,-1,-14,-13,4,-3,-5,0,0
40.92,0,4,-10,-4,-1,-4,3,7
40.925,0,17,-5,3,-2,-3,-6,-21
40.93,5,0,0,-4,-3,-1,-2,20
40.935,6,-10,-14,-6,-2,-3,-3,-3
40.94,2,12,1,1,2,0,3,0
40.945,-1,14,3,4,3,6,6,-8
40.95,1,-3,-42,-7,-2,-1,9,-8
40.955,1,1,47,-2,0,4,-7,-6
40.96,16,-12,-4,2,1,0,-4,1
40.965,31,-32,-4,-7,-5,-4,7,-4
40.97,14,-40,-27,-2,2,-1,2,-4
40.975,-6,-32,-14,-2,3,-1,-7,-4
40.98,2,-21,22,3,3,2,5,5
40.985,35,-22,38,0,0,6,-3,-7
40.99,67,-14,31,0,-6,-4,-5,-9
40.995,77,-10,38,3,-8,-8,-2,0
41,60,11,28,-1,-1,2,8,4
41.005,108,18,0,-4,-1,-1,-1,-5
41.01,107,28,33,12,-11,-9,-6,-10
41.015,-67,30,4,-3,-2,-2,-5,-3
41.02,-98,55,-4,-7,-4,-5,-4,-2
41.025,-128,19,-42,-3,2,-2,-2,-4
41.03,-128,10,-27,-11,7,1,0,1
41.035,-104,12,-27,1,2,1,0,-1
41.04,-97,-26,-20,1,-1,-2,1,0
41.045,-128,-16,-23,-3,2,3,3,-3
41.05,-58,-21,-10,-7,4,0,1,-3
41.055,1,-9,-16,-3,3,2,1,-1
41.06,35,2,-15,-7,3,2,3,0
41.065,98,13,24,3,5,3,2,-1
41.07,57,8,41,-4,-2,1,0,0
41.075,20,2,30,2,1,-2,-2,-2
41.08,63,8,29,2,-1,-1,1,2
41.085,50,4,19,2,-6,-4,1,-3
41.09,5,-8,11,-1,-5,-2,-2,-2
41.095,52,-2,13,-1,-2,0,-3,0
41.1,57,-1,12,1,-4,-3,-3,1
41.105,51,13,-1,1,-5,-5,-4,-1
41.11,35,18,-8,-2,-4,-1,-1,-2
41.115,39,10,-20,1,-4,-2,-3,-2
41.12,0,1,-21,-2,-3,-3,-2,-3
41.125,-5,9,-17,2,-2,-2,-3,-1
41.13,-9,4,-12,-2,0,0,-1,-2
41.135,12,-5,-2,1,0,1,-1,0
41.14,15,0,2,-2,-2,-1,-2,2
41.145,-3,-2,-1,-3,-5,-1,-1,-2
41.15,5,-4,0,-2,-1,-2,0,-2
41.155,46,7,-6,-3,-2,0,-2,-2
41.16,18,27,-7,1,-3,-2,-1,-3
41.165,-10,2,-12,-3,-2,-2,-1,-2
41.17,-14,-11,-2,0,0,-2,-3,-2
41.175,-24,-14,-31,-3,-2,-1,-1,-1
41.18,-34,-8,-51,-2,-1,0,-3,-2
41.185,-58,35,-38,-2,2,0,0,-1
41.19,-53,-18,3,-3,2,2,0,-2
41.195,-48,-37,43,-3,1,0,1,-2
41.2,-39,-25,50,-4,1,0,-1,0
41.205,-26,-5,41,1,1,0,-2,0
41.21,15,7,1,-1,0,0,2,-1
41.215,7,29,6,3,0,0,-1,-1
41.22,9,-14,-7,0,-3,-4,-5,-2
41.225,-7,-14,-9,-3,-4,0,-2,2
41.23,-13,4,9,2,2,1,9,5
41.235,-12,-40,-27,1,-2,-2,-1,-1
41.24,6,-35,-22,1,-2,-3,-9,-4
41.245,32,-37,-21,-3,-3,0,-5,-6
41.25,-15,-22,1,0,1,-3,2,6
41.255,4,-11,37,-2,1,7,6,1
41.26,-32,-9,21,1,-3,-4,0,-1
41.265,-12,-15,4,-5,-4,-4,-4,-3
41.27,6,23,-27,-5,-5,-4,-8,-4
41.275,20,9,7,-3,-4,-5,-3,-1
41.28,16,18,24,-2,0,-1,0,-1
41.285,3,-2,39,-3,1,0,0,0
41.29,7,1,23,-4,-2,-1,-3,-4
41.295,-7,-14,-7,-9,-2,-3,-2,-1
41.3,13,4,-18,-8,-1,-2,2,-1
41.305,7,12,-20,-5,-1,-2,1,1
41.31,23,-17,-14,-11,0,-1,-4,0
41.315,1,-4,5,-6,0,-2,-4,-1
41.32,2,-10,7,-4,2,0,0,0
41.325,-3,-64,-17,9,-4,-1,2,0
41.33,3,-25,-3,8,-4,-3,-4,-7
41.335,23,-92,-14,2,-12,-7,-12,-10
41.34,25,95,-54,0,-10,-9,-13,-8
41.345,46,121,-26,3,12,-12,19,16
41.35,63,87,-2,6,12,35,21,10
41.355,7,15,-24,4,-1,-7,0,-3
41.36,-19,1,2,-7,2,2,-1,-4
41.365,-65,24,-57,-4,-9,-7,-15,-12
41.37,-38,25,10,-6,-2,-11,-7,-3
41.375,-28,32,39,-6,4,5,2,3
41.38,-3,-46,41,-12,-1,3,0,-1
41.385,9,-47,38,-14,2,3,-1,0
41.39,1,-78,39,1,-4,-8,-2,-3
41.395,17,-41,27,-14,-1,2,-1,-1
41.4,-3,-48,50,-6,0,-3,2,2
41.405,9,-59,33,-15,5,8,3,0
41.41,-11,-26,50,-4,-1,0,-4,-3
41.415,-13,24,-34,13,0,-1,0,0
41.42,0,15,-44,33,1,5,6,2
41.425,-5,2,-22,39,-2,6,-3,-4
41.43,-2,17,-3,20,-4,-11,-7,-3
41.435,9,-1,14,16,8,2,12,9
41.44,15,-41,4,-3,4,4,2,1
41.445,13,-39,-27,1,-4,2,-14,-10
41.45,2,-31,-29,3,-20,-10,-8,-7
41.455,12,18,-4,10,3,-3,11,8
41.46,9,-34,35,22,18,8,14,23
41.465,1,-8,14,28,7,4,9,-2
41.47,-8,32,-27,14,2,6,-2,-6
41.475,-6,69,-21,12,-13,2,-12,-10
41.48,-9,68,-50,-13,-18,-10,-14,-3
41.485,2,57,-28,-44,-18,-28,7,25
41.49,-10,20,-84,-32,-3,-19,-34,-40
41.495,0,33,-39,-23,1,-3,2,-9
41.5,5,14,-60,-14,-2,5,4,0
41.505,-4,3,14,-16,-1,8,4,-8
41.51,-4,3,55,-22,-3,3,28,18
41.515,0,1,25,-24,-6,-15,60,92
41.52,-18,-19,45,-10,-5,-20,-86,-99
41.525,-7,-6,25,10,3,-6,22,41
41.53,-2,-12,14,7,-4,-8,-32,-64
41.535,4,-5,24,14,8,15,-4,2
41.54,-3,-5,42,6,1,13,17,-27
41.545,-1,5,27,-1,-6,-4,44,33
41.55,6,3,-44,-7,-6,-7,24,103
41.555,-18,-5,44,0,-10,-25,-2,-49
41.56,21,19,75,38,37,30,-54,36
41.565,17,16,-57,4,-3,-2,-22,44
41.57,-21,-14,-22,9,1,2,-21,-79
41.575,1,31,-81,-20,-15,-4,13,26
41.58,-5,46,-49,-43,-20,-18,105,95
41.585,-21,44,27,-7,6,16,-104,-121
41.59,9,10,-22,10,8,13,78,119
41.595,-3,-73,-28,-20,0,0,22,-3
41.6,-11,-118,84,13,5,9,-39,-49
41.605,23,-104,55,-25,-5,-11,33,65
41.61,2,-81,-8,-17,0,7,42,-7
41.615,-17,-29,59,1,2,-8,-85,-94
41.62,18,24,-29,4,4,6,48,51
41.625,0,27,15,16,-3,-5,13,-17
41.63,-4,31,28,9,6,-8,-33,-13
41.635,8,30,-10,11,4,0,6,27
41.64,4,28,-17,-12,-9,-22,22,17
41.645,13,18,36,12,1,-1,-15,-23
41.65,47,25,29,-4,-3,12,-1,18
41.655,-2,15,51,32,-12,-11,-15,-7
41.66,37,19,-51,-13,-10,-7,-18,-37
41.665,16,33,29,11,3,8,-9,-24
41.67,48,17,82,-17,-1,9,-6,7
41.675,80,63,60,3,-1,15,8,16
41.68,34,51,51,17,-16,-9,-11,-6
41.685,-9,-18,-117,-1,-6,-2,2,5
41.69,-58,-39,-113,12,-3,-7,-5,-5
41.695,-98,-77,-128,-8,-1,2,-13,-2
41.7,-84,-88,-88,-4,14,1,-2,5
41.705,-60,-74,-80,-20,19,8,13,15
41.71,-40,-49,57,14,15,5,-7,-31
41.715,-11,-27,75,29,4,9,-2,-5
41.72,9,4,35,16,-13,0,9,16
41.725,-18,19,87,12,-30,-15,-3,-13
41.73,-18,61,-59,20,-24,-20,-24,-7
41.735,-10,57,-39,-19,-11,-11,-15,-1
41.74,18,47,75,-11,-7,-8,9,28
41.745,-4,25,-20,-28,4,-6,3,6
41.75,21,-1,69,-30,3,-9,-18,-22
41.755,27,0,7,-22,7,4,1,-4
41.76,-21,4,38,-4,4,2,-2,-10
41.765,0,9,78,6,6,5,5,9
41.77,-23,13,-22,-17,8,6,13,8
41.775,28,-9,14,-15,5,5,6,5
41.78,6,-14,-5,-7,2,1,1,-4
41.785,-3,-11,27,15,3,8,5,-4
41.79,1,-19,3,35,1,0,-1,4
41.795,-7,-8,-1,1,-3,-1,-6,-5
41.8,3,3,2,-31,-9,-5,-5,-8
41.805,27,4,31,-24,-8,-3,-2,-5
41.81,7,4,19,-54,-6,-5,-5,-2
41.815,-1,-9,45,-39,-3,0,-1,5
41.82,-3,-16,-37,-35,-6,0,-3,-7
41.825,3,1,-9,4,-2,1,-1,-6
41.83,0,5,-8,30,-2,-5,-2,-1
41.835,-2,2,1,43,-1,-2,0,0
41.84,-6,-1,-35,42,0,-2,-1,-2
41.845,-4,3,-7,27,-1,-2,-3,-5
41.85,3,6,26,17,1,-2,-1,-1
41.855,5,10,-7,17,2,1,0,3
41.86,-8,2,6,-17,-4,-3,-3,-6
41.865,-1,-5,-16,12,4,0,-1,-2
41.87,1,-5,25,-19,-18,-6,-1,2
41.875,-5,-10,16,2,6,2,1,-1
41.88,-5,-15,10,5,-5,-4,-2,-3
41.885,1,0,2,-7,3,-2,-1,-3
41.89,2,7,-25,6,6,1,-1,-1
41.895,-6,0,-1,-5,-1,0,0,-1
41.9,-4,-9,-2,1,-2,-1,-1,-3
41.905,4,-16,-15,2,0,-1,0,-2
41.91,5,-12,12,-6,-9,2,1,0
41.915,-3,-10,-20,-8,4,-2,0,0
41.92,-5,-13,-27,9,6,1,1,-1
41.925,-7,-4,-2,-6,-3,0,-1,-1
41.93,-8,-6,4,-6,3,2,0,2
41.935,2,-11,-42,-3,-1,0,0,-2
41.94,2,-11,-14,2,1,1,2,-2
41.945,-4,-14,-6,-3,1,2,1,-1
41.95,-4,-10,19,2,3,-2,-2,-1
41.955,-2,-4,20,5,0,1,-2,-1
41.96,-1,-2,7,6,1,-1,-3,-1
41.965,3,-4,13,-29,-21,-5,-3,-3
41.97,-6,12,22,11,11,1,-5,-6
41.975,4,13,6,0,-21,-7,0,3
41.98,-6,-25,2,-10,-4,-6,-4,-4
41.985,1,4,-7,2,6,1,-2,-2
41.99,1,5,-5,-8,-1,0,-1,-1
41.995,0,11,9,0,-3,-1,-4,-3
42,0,0,12,4,-1,0,-1,-1
42.005,-2,2,9,3,-3,-4,-2,-1
42.01,0,10,-4,-1,2,-1,-1,-1
42.015,-1,-13,11,-2,0,-1,-2,-1
42.02,0,6,-5,2,-5,-2,1,-1
42.025,1,1,-5,-1,1,-1,-2,-3
42.03,2,-5,-21,-2,-1,-2,0,0
42.035,-2,-5,-22,-8,1,0,-2,0
42.04,-1,10,-8,-1,-1,-1,-2,-3
42.045,-1,2,-16,3,1,-1,-2,-1
42.05,-2,-7,-1,3,-5,-2,-3,-1
42.055,-2,2,0,-2,-1,0,1,-2
42.06,-1,4,-15,4,2,-1,-1,-1
42.065,0,-4,4,-5,-2,1,-2,-2
42.07,1,-1,0,-1,-5,-2,-3,1
42.075,-2,2,-5,-2,4,0,-2,-2
42.08,4,6,18,7,0,0,-1,0
42.085,4,-1,-14,-5,-8,-4,0,-1
42.09,8,-17,-11,-12,-2,-3,0,-1
42.095,9,25,-20,-1,4,1,1,2
42.1,1,-9,-13,1,-2,-2,-2,-4
42.105,1,5,12,4,1,-1,-3,0
42.11,2,30,23,-1,0,0,1,-1
42.115,7,11,16,1,-2,-3,0,-3
42.12,4,18,18,0,-3,-1,-1,0
42.125,-4,-5,-14,1,-3,-2,0,-3
42.13,-10,-15,2,3,-3,-4,-4,-1
42.135,-13,-10,16,4,-3,-2,-1,0
42.14,3,3,-4,-8,-6,-3,-3,-2
42.145,2,-6,-11,1,1,-2,-4,0
42.15,4,-17,-40,-7,-3,-2,-2,-2
42.155,-9,-20,-17,-6,0,-1,-1,-1
42.16,-25,-1,-13,-2,4,-1,0,0
42.165,-33,-3,-14,2,-2,0,1,1
42.17,-25,6,-16,1,0,0,0,0
42.175,-12,11,-23,-1,2,1,-1,-1
42.18,-13,-1,-6,-1,3,4,0,0
42.185,-6,12,-11,2,-7,-2,-3,-3
42.19,10,13,11,7,-1,1,-1,-1
42.195,11,-5,24,-10,-3,-2,-2,-4
42.2,12,0,27,3,2,0,0,1
42.205,15,2,25,-3,1,-1,2,0
42.21,4,-1,19,-4,0,-1,-1,-1
42.215,7,-9,6,-1,-2,-2,-1,-1
42.22,5,-5,-5,1,-1,-3,-2,-2
42.225,7,1,4,3,0,-2,-1,-1
42.23,2,-10,0,-11,-6,1,-1,1
42.235,-1,1,0,-1,-2,-1,0,-1
42.24,0,-2,-6,-3,-1,0,0,0
42.245,-2,2,0,-2,-1,0,1,-2
42.25,-1,4,-15,4,2,-1,-1,-1
42.255,0,-4,4,-5,-2,1,-2,-2
42.26,1,-1,0,-1,-5,-2,-3,1
42.265,-2,2,-5,-2,4,0,-2,-2
42.27,4,6,18,7,0,0,-1,0
42.275,4,-1,-14,-5,-8,-4,0,-1
42.28,8,-17,-11,-12,-2,-3,0,-1
42.285,7,1,4,3,0,-2,-1,-1
42.29,2,-10,0,-11,-6,1,-1,1
42.295,-1,1,0,-1,-2,-1,0,-1
42.3,0,-2,-6,-3,-1,0,0,0
42.305,2,-6,4,0,2,1,-1,-1
42.31,0,-5,-1,3,3,-1,-1,-1
42.315,-1,-7,-3,0,-1,-2,1,-1
42.32,2,-3,2,-3,-2,-1,0,-2
42.325,-2,-4,3,2,2,0,1,1
42.33,-2,0,1,-2,-2,-3,-2,-2
42.335,-3,-4,-3,2,0,-1,-1,0
42.34,1,-3,2,2,-6,-5,-1,-2
42.345,2,-1,-2,-18,-2,-4,-1,-2
42.35,-1,1,4,0,-1,0,-1,0
42.355,-3,-3,2,11,-5,-2,-3,0
42.36,1,-2,1,2,1,-3,-2,1
42.365,-1,-2,-1,-1,-2,0,-1,-4
42.37,-3,-2,-5,3,-1,-3,0,-1
42.375,-4,-2,0,-4,2,3,-1,-2
42.38,0,1,0,-1,-1,0,0,-2
42.385,0,3,-1,2,0,0,-2,0
42.39,-2,1,1,-3,-1,-1,-2,-2
42.395,-3,-1,4,0,-3,-3,-1,-1
42.4,-3,-1,-7,-5,1,0,-3,-1
42.405,0,0,-1,0,-2,-2,0,-2
42.41,-1,1,-1,-3,-4,-1,-1,-2
42.415,0,-2,-4,-7,-1,-4,-3,-2
42.42,-1,1,1,-1,0,1,-1,0
42.425,2,-1,3,1,1,-3,-5,1
42.43,0,-2,-2,0,2,-2,-1,1
42.435,-2,-2,-1,-1,-1,-2,-1,-2
42.44,-1,-2,-9,-4,-2,-2,-2,0
42.445,-2,-2,2,5,0,0,1,-3
42.45,0,2,2,3,0,-3,1,-1
42.455,-2,0,0,-8,0,2,-1,0
42.46,0,-2,4,-3,-3,-3,0,-1
42.465,0,-4,3,-4,-5,-1,-1,0
42.47,0,-2,1,-5,-11,-3,-2,-1
42.475,0,-2,1,4,2,-1,-1,-3
42.48,-4,-4,0,0,1,1,0,-2
42.485,3,-4,3,-2,1,-2,2,-1
42.49,-2,-5,-3,-2,0,0,-1,-4
42.495,-1,-6,-2,-1,-4,-1,-2,0
42.5,-3,-3,0,1,-2,-1,-1,-2
42.505,-2,-1,1,2,0,-2,-1,-1
42.51,-1,-5,-3,-2,0,0,-1,0
42.515,0,-4,-4,-2,0,0,-2,-1
42.52,-3,-3,-6,-4,0,-2,-2,-2
42.525,-3,-3,-4,-3,-2,-2,0,0
42.53,1,-1,-4,3,-1,-2,-1,-2
42.535,-2,2,0,-2,-4,-3,-1,-1
42.54,-1,2,0,1,-1,0,-1,-1
42.545,-2,0,-5,1,-2,-1,-3,-2
42.55,-1,0,-2,-1,-1,-2,-3,1
42.555,-2,0,2,-5,-3,-2,0,-1
42.56,1,2,0,-2,-2,-1,0,-1
42.565,-2,2,1,-2,-4,-1,-2,-1
42.57,-1,-1,1,0,2,3,2,1
42.575,-1,1,-1,0,0,11,-4,4
42.58,-2,0,-2,-1,-5,-14,39,6
42.585,-5,-1,4,-1,-1,-19,-33,-14
42.59,1,-1,-1,-2,3,8,-8,1
42.595,-1,-2,-1,0,-1,-4,0,-9
42.6,2,0,-1,-1,-2,0,-3,16
42.605,5,0,-3,-3,-1,2,23,-3
42.61,-2,-2,-2,-3,-1,-13,-17,6
42.615,5,2,0,3,2,9,0,-8
42.62,0,-3,-7,-5,1,1,-3,53
42.625,5,1,0,2,-1,6,10,-10
42.63,-3,1,-2,-4,-1,7,18,11
42.635,-7,-1,-3,-2,-1,-1,-7,50
42.64,-4,0,-6,-7,-2,1,53,0
42.645,-5,1,8,2,-4,-2,-14,-39
42.65,2,-1,-12,-8,-1,-11,-6,71
42.655,-9,-5,1,4,4,-10,-42,-25
42.66,2,3,14,2,-3,0,-24,-76
42.665,-3,-1,1,-1,2,15,-1,-10
42.67,2,2,2,2,-5,-4,34,-12
42.675,7,4,-1,-4,-3,-4,44,-12
42.68,-4,-2,10,-2,-3,0,-73,-39
42.685,1,-2,-9,-7,3,-2,10,17
42.69,-7,-4,13,8,-14,-4,-22,-80
42.695,-4,-3,-2,-15,-1,-8,-21,-9
42.7,-1,0,-2,10,5,3,-6,29
42.705,2,-1,-4,-12,6,-2,-9,13
42.71,-4,-1,-1,-1,-7,5,5,-6
42.715,1,-1,4,2,-5,-2,1,6
42.72,-3,-5,-1,-7,-5,-2,4,5
42.725,-3,-3,-1,-3,0,-2,2,3
42.73,2,-2,-3,-5,11,4,0,3
42.735,1,1,4,9,-5,-1,5,-10
42.74,0,-1,-3,5,1,-1,-1,3
42.745,0,0,3,4,-9,-2,2,10
42.75,-1,-1,2,-8,2,-2,-10,-15
42.755,0,-4,-4,4,0,-2,5,5
42.76,1,-3,1,1,3,1,4,-5
42.765,-3,-5,-7,-5,-2,-1,-5,8
42.77,2,-3,1,1,-7,-3,-3,2
42.775,0,0,1,-7,-2,-1,1,-7
42.78,1,-2,-7,-1,-2,0,2,12
42.785,-2,0,4,7,-2,-1,-1,-3
42.79,0,0,-4,-2,2,1,0,3
42.795,-3,-3,-5,1,2,3,2,1
42.8,-1,-2,2,-1,-3,-2,-9,-12
42.805,-2,-1,-2,-3,-8,-2,0,6
42.81,0,1,0,-3,0,-1,-1,-3
42.815,0,0,-4,-2,13,1,-1,-3
42.82,-2,-1,-6,-8,-9,-1,2,-1
42.825,1,4,19,25,-29,-18,-4,3
42.83,-3,0,-1,-3,6,2,-2,-2
42.835,0,-1,-4,-6,2,-1,1,-4
42.84,-3,-1,-6,1,12,4,1,0
42.845,0,-4,-9,-5,9,7,4,4
42.85,-3,-1,7,-4,-10,-3,-2,-2
42.855,-1,-2,-6,0,-3,-4,6,4
42.86,-2,-2,-3,-3,-1,-2,-5,-4
42.865,-1,-1,1,-2,1,3,6,2
42.87,1,-1,-2,7,3,-1,1,1
42.875,-2,-1,-3,-4,-4,-4,6,4
42.88,-2,3,-1,-2,-6,-3,-5,-7
42.885,1,1,3,-2,3,3,-3,0
42.89,-1,-1,-4,-3,5,1,-1,-1
42.895,0,0,8,2,3,-1,0,1
42.9,2,-3,-3,-2,-3,1,1,-1
42.905,-1,1,1,-12,-6,-5,-2,0
42.91,-3,2,8,5,-4,-2,-2,-1
42.915,-1,-2,-1,8,-6,-3,-3,-4
42.92,-2,4,3,4,7,0,-2,-1
42.925,-1,-2,-6,-2,7,2,0,-2
42.93,-1,-1,-3,-11,3,1,0,4
42.935,0,0,-2,-6,-5,0,-5,-3
42.94,0,-8,-1,-1,-3,-2,-1,1
42.945,-2,-1,-4,-2,1,0,2,0
42.95,-2,-2,-3,5,-4,-4,0,-3
42.955,-1,1,-2,-4,0,1,0,0
42.96,-2,4,1,-5,-3,2,4,-12
42.965,-3,-3,-6,-1,-1,-2,-11,30
42.97,0,-3,-2,0,-1,-4,3,13
42.975,-2,0,2,-4,-5,-3,-16,-60
42.98,-1,1,-4,1,-1,-2,3,58
42.985,4,5,1,-1,3,6,37,52
42.99,-15,-3,12,5,-8,-11,-60,-77
42.995,-2,-3,-2,-2,3,-1,-3,60
43,1,-13,4,2,-8,-1,22,13
43.005,0,-9,2,-1,0,-2,-9,-25
43.01,3,-4,-7,0,5,5,19,19
43.015,1,-2,0,1,0,-1,1,3
43.02,-6,3,2,1,2,-2,-10,-46
43.025,0,2,-3,1,-1,-1,1,-1
43.03,2,4,-1,0,-1,0,5,4
43.035,-1,1,-4,-3,-2,-2,-7,-11
43.04,0,4,8,8,0,-3,2,8
43.045,-3,-2,7,6,-4,-3,-10,-14
43.05,1,1,-8,-2,1,1,0,22
43.055,2,2,3,1,1,6,12,5
43.06,2,0,-4,-12,-5,1,-4,-5
43.065,0,0,4,-4,-4,-3,-9,-15
43.07,-2,0,1,1,-6,-1,6,-2
43.075,-3,-1,-6,-4,1,0,-1,6
43.08,-4,0,-1,3,3,-3,-8,-5
43.085,-4,1,-1,-3,1,-1,-10,-15
43.09,-2,-1,-5,-5,-1,1,10,14
43.095,-3,-2,0,2,-5,-5,-3,-3
43.1,-3,0,0,-1,-2,-3,-4,0
43.105,-3,-2,-3,-2,1,-3,1,0
43.11,1,-1,1,3,0,-4,0,0
43.115,-1,-1,3,-1,-5,-4,-1,-10
43.12,1,-2,-4,-2,-2,2,2,-2
43.125,-1,-2,-1,-1,-1,-3,-19,2
43.13,-5,-6,-12,-8,0,-6,-1,78
43.135,-4,-3,4,-2,-2,-4,-12,-66
43.14,1,0,-1,0,0,-3,-5,-9
43.145,-3,0,-3,0,2,-1,3,-13
43.15,0,-2,0,1,-1,1,5,-21
43.155,2,1,-1,-2,-8,-2,1,21
43.16,-2,0,-4,-5,-2,1,1,10
43.165,-4,-1,1,1,-1,0,6,-3
43.17,1,1,3,7,-3,0,3,-19
43.175,-4,-3,-3,2,7,-3,-19,7
43.18,1,-2,-4,-6,0,-1,-2,-14
43.185,-1,-2,1,1,11,3,2,3
43.19,-1,-1,3,-9,-10,-4,-3,-19
43.195,-1,-2,3,4,-5,-2,5,3
43.2,0,0,1,-3,-8,-3,1,-1
43.205,-2,-3,-2,-1,0,-1,-4,-12
43.21,0,-5,-5,-2,7,2,3,52
43.215,0,-3,2,0,2,3,10,15
43.22,-5,-5,4,2,-1,-5,-13,-22
43.225,0,-4,-1,-4,-3,-2,4,-5
43.23,4,2,2,3,-1,5,26,-15
43.235,-2,-6,-8,-1,-3,-3,-10,63
43.24,-5,-6,-11,-1,-2,-7,-13,21
43.245,0,-5,1,0,-6,-5,6,12
43.25,2,-1,5,2,0,-2,-12,-71
43.255,2,-1,-4,-5,0,3,11,57
43.26,4,0,3,-1,-1,0,1,-14
43.265,-12,2,5,3,-4,9,14,-94
43.27,2,-5,-13,-6,-2,0,8,72
43.275,-15,-3,0,-5,-9,-20,-83,-85
43.28,-4,-2,-7,-12,-1,-27,-17,63
43.285,7,3,-10,1,4,6,25,105
43.29,-11,0,9,-2,-6,-8,-54,-108
43.295,10,7,3,5,3,15,59,50
43.3,-5,-1,-14,-9,-2,12,41,85
43.305,7,8,7,-6,-11,-18,-81,-20
43.31,-17,0,-16,-1,8,2,45,127
43.315,-6,1,3,1,-3,-5,-36,-107
43.32,5,10,8,5,2,23,12,-44
43.325,14,2,-11,-2,1,4,90,124
43.33,1,1,6,-9,-11,-21,-47,-94
43.335,-13,-2,21,11,6,14,-4,-87
43.34,-16,-8,3,9,-1,-11,-43,-94
43.345,-3,0,-5,2,-2,11,25,-35
43.35,-6,14,20,-5,-4,5,19,13
43.355,-20,3,-16,-3,0,-6,50,107
43.36,-17,12,3,-9,1,8,13,43
43.365,-8,0,1,-3,-1,-21,-5,41
43.37,0,1,0,14,10,25,30,-89
43.375,32,2,1,-11,-11,-12,-46,-94
43.38,32,7,-22,2,1,2,42,4
43.385,23,-3,-17,-10,1,1,-17,-76
43.39,-23,-2,-6,7,2,-2,-19,27
43.395,-40,-18,-8,-11,-10,-2,23,44
43.4,13,-13,-13,3,4,-1,40,59
43.405,26,-13,2,-2,-2,5,2,-40
43.41,-7,-15,8,8,-12,-8,-46,-17
43.415,-49,-12,-5,-7,-1,0,-11,-5
43.42,-114,-13,4,12,-2,-4,4,-14
43.425,-76,-22,-11,-7,5,-2,-6,23
43.43,-20,-22,-15,-10,10,4,-2,15
43.435,32,3,19,1,-5,-5,8,37
43.44,54,-4,7,-11,-11,-12,-4,-7
43.445,31,14,26,-8,1,3,-33,-37
43.45,27,11,0,-1,7,-1,-6,-5
43.455,50,25,-7,-25,13,6,34,19
43.46,40,19,19,42,-16,-9,-12,-46
43.465,4,3,-3,-16,-8,-4,-23,-14
43.47,27,7,-3,-14,11,5,23,24
43.475,14,-2,-10,-16,-4,2,2,17
43.48,7,-5,2,-1,4,1,-17,-7
43.485,1,-5,-6,-10,-1,-2,-2,7
43.49,13,0,-3,-5,12,3,17,24
43.495,11,-2,-8,21,-10,-2,4,-9
43.5,-4,-4,15,-9,-11,-6,-17,-14
43.505,-5,-2,-1,21,0,-2,9,-4
43.51,5,4,11,20,-16,-7,-1,1
43.515,-6,-9,-19,-37,13,3,-7,-8
43.52,1,-4,-1,-18,3,4,3,-7
43.525,-4,2,-1,1,-3,0,-5,1
43.53,-6,-3,-1,3,-4,-4,-8,-6
43.535,-4,0,6,15,-2,-2,4,6
43.54,0,-3,-4,10,2,3,1,13
43.545,-8,-3,-4,-13,-2,-3,-26,-43
43.55,-3,-1,0,7,-7,-3,5,7
43.555,-7,-6,-4,-3,-3,-2,2,-3
43.56,-2,-3,-6,23,1,-2,-16,-13
43.565,-4,0,-1,-2,3,-4,-2,8
43.57,-3,-1,-3,-13,-12,-1,0,-2
43.575,2,8,18,35,-5,-2,1,10
43.58,3,0,-5,-34,2,-1,2,-6
43.585,-4,-1,-2,-23,-3,0,7,13
43.59,-3,0,-2,1,0,-4,2,0
43.595,-3,-5,-8,13,5,1,-2,-4
43.6,0,1,-7,-17,3,2,-6,-8
43.605,0,3,7,25,-3,-1,8,6
43.61,0,-4,-16,-65,3,3,0,1
43.615,-6,0,12,48,-12,-11,-4,-4
43.62,-2,-3,0,26,4,-1,-9,-8
43.625,0,-3,-9,-21,-2,3,1,10
43.63,-2,2,7,29,-9,-9,0,-5
43.635,2,-1,-3,-25,4,1,-1,-11
43.64,-6,-3,-3,3,2,-1,-6,22
43.645,8,6,3,4,6,9,15,23
43.65,9,4,1,-1,1,4,4,18
43.655,1,-2,-8,-18,-3,0,-3,-7
43.66,-18,-5,0,3,-10,-5,-16,-46
43.665,5,-2,-1,1,1,-4,-3,5
43.67,0,-7,1,14,3,3,15,31
43.675,-1,-6,4,12,-8,-4,-2,-10
43.68,31,15,-4,-10,3,0,-4,-42
43.685,-36,-4,10,5,-8,-11,-16,-35
43.69,-3,-5,-14,-64,-2,-2,3,-3
43.695,-6,0,-9,-4,3,6,20,19
43.7,3,-12,-4,-16,-2,1,-10,4
43.705,19,10,5,21,-6,-3,1,-7
43.71,6,8,6,17,9,0,2,3
43.715,-10,-6,3,70,-3,-2,-2,-34
43.72,-9,1,-3,-36,-1,0,7,11
43.725,-4,-3,3,33,2,-1,-9,-5
43.73,-8,-6,1,-4,-9,-3,-12,-4
43.735,7,2,-3,-28,6,0,0,0
43.74,-2,3,-1,-6,2,3,-1,11
43.745,-6,-7,1,51,-1,-3,4,-3
43.75,-4,-6,-6,-13,-11,-9,-10,-17
43.755,-1,0,5,-27,-2,4,-4,-31
43.76,-8,-3,0,-32,0,-4,-15,17
43.765,6,3,1,-7,1,2,5,-28
43.77,-7,-7,-8,34,0,-5,-2,47
43.775,5,6,3,0,0,3,24,1
43.78,-9,-2,6,-12,-2,-5,-24,-66
43.785,0,-1,-9,-23,-6,0,-6,-16
43.79,4,3,5,38,6,0,4,29
43.795,0,6,4,-7,3,8,7,-15
43.8,10,8,21,40,13,7,27,23
43.805,-15,-13,-16,3,-4,-8,-18,-5
43.81,-3,-1,5,-14,-25,-12,-5,-83
43.815,-1,-5,-16,40,5,-3,-22,105
43.82,1,-1,-3,-17,5,4,4,28
43.825,5,4,8,16,8,4,5,13
43.83,-5,-3,-2,0,9,2,-17,-25
43.835,2,-4,-2,-21,0,-2,-4,14
43.84,-2,-6,-6,25,-14,-5,4,-17
43.845,6,-3,-8,-31,6,0,11,60
43.85,-13,12,7,-5,-1,2,4,1
43.855,-16,-7,4,-3,-5,-4,4,-8
43.86,-7,-8,-2,0,-10,-2,-4,-33
43.865,1,-13,-9,0,-7,-3,-2,-13
43.87,-2,-1,0,-39,-5,0,0,-8
43.875,8,19,6,-13,1,-4,-7,-25
43.88,-9,0,7,23,-2,-1,6,2
43.885,-7,-5,5,-19,-6,-4,-3,-37
43.89,2,-11,-9,66,5,1,-5,49
43.895,-1,-6,-5,-21,2,0,-2,-40
43.9,2,2,4,1,-4,-1,6,25
43.905,5,8,3,2,8,8,5,-2
43.91,2,-1,4,55,2,-1,5,1
43.915,-5,-10,-12,-49,-10,-7,-9,0
43.92,3,0,-4,19,3,0,-1,-1
43.925,-2,1,0,13,-2,-1,-1,53
43.93,-2,2,4,1,4,2,2,-26
43.935,3,1,4,9,-1,-1,4,-27
43.94,-1,-1,-6,-16,-2,-2,-6,-21
43.945,-1,2,4,2,-4,-5,0,-14
43.95,5,-2,-6,-36,-2,-1,-1,21
43.955,2,-4,-1,18,1,2,9,-30
43.96,-11,-7,-6,-12,-10,-7,-7,-13
43.965,-23,3,4,-7,-6,-10,-26,-68
43.97,11,10,3,-10,2,6,9,-57
43.975,-5,-10,-7,-15,-3,-7,-11,-20
43.98,12,-2,2,17,-2,0,2,-20
43.985,-5,0,-1,2,0,4,8,13
43.99,-10,-2,-1,-13,-2,0,2,13
43.995,3,3,4,17,5,5,2,-21
44,-1,-6,-22,-39,-6,-4,-11,89
44.005,6,2,8,-12,-3,-1,3,-38
44.01,0,-3,-4,-21,-2,-2,-6,9
44.015,3,2,3,23,-5,-4,-1,24
44.02,-9,-1,3,13,0,-4,-12,-90
44.025,4,-3,-9,-31,-5,0,-6,-15
44.03,-1,-4,-5,-1,7,4,2,26
44.035,1,2,3,8,-12,-3,0,15
44.04,2,7,6,6,5,4,7,2
44.045,0,-4,-5,-4,-1,-1,5,40
44.05,1,-2,6,4,-5,-4,-2,-42
44.055,-1,0,-4,-12,1,-1,-5,-15
44.06,-6,-4,-7,4,3,0,4,95
44.065,0,-3,4,39,-3,-2,-2,-34
44.07,-5,-6,-2,-36,-16,-7,-4,-9
44.075,-9,1,-1,2,3,-2,-7,11
44.08,4,-1,2,1,4,2,7,-8
44.085,-3,-2,4,3,2,2,1,1
44.09,3,5,-5,-9,-2,-1,4,50
44.095,-1,-1,1,14,1,0,-2,16
44.1,0,-3,-3,-24,3,3,1,-36
44.105,0,-6,-5,-16,-5,-7,2,28
44.11,1,1,9,39,-1,-5,3,-12
44.115,-5,-7,-16,-42,-8,-4,-1,71
44.12,0,5,7,17,3,2,4,11
44.125,-2,-6,-16,12,-6,-6,-6,42
44.13,-2,-3,-9,-38,-4,0,-8,-32
44.135,2,1,5,19,8,4,1,-16
44.14,-1,-1,0,-13,0,1,-2,-2
44.145,2,3,7,11,-7,-6,10,8
44.15,-4,7,0,14,2,-3,-4,2
44.155,-2,-3,-2,-21,-3,-2,-6,-18
44.16,-1,-2,0,11,-4,-4,-3,-34
44.165,-1,0,-2,-2,9,6,2,22
44.17,-4,-7,-5,3,0,-1,-4,-2
44.175,-2,0,4,-8,-11,-3,-1,-39
44.18,-2,-1,0,5,-3,-4,0,23
44.185,3,1,5,3,3,2,3,-26
44.19,-5,-5,-9,-24,-2,-7,-14,33
44.195,-1,0,-3,11,3,0,-2,7
44.2,-3,-4,-5,-19,-6,-2,-2,-5
44.205,0,2,4,-8,-9,-5,-7,-11
44.21,3,2,8,8,2,4,6,-76
44.215,-1,1,-1,9,2,1,6,2
44.22,-3,-1,-3,-7,-3,-5,-5,-7
44.225,1,0,0,-1,2,2,1,2
44.23,-2,1,6,-1,0,2,5,-25
44.235,-1,-2,-3,1,-2,-3,0,32
44.24,1,1,0,10,1,1,2,7
44.245,-5,-1,-7,-36,-6,0,-2,-14
44.25,-3,-3,0,34,-2,-4,-4,9
44.255,-4,-4,-5,-15,-3,-6,-8,-1
44.26,0,1,2,9,-3,0,-2,2
44.265,0,1,2,-13,3,3,3,-7
44.27,2,-3,-3,-1,5,-2,-2,21
44.275,-2,-2,-2,-8,4,2,8,-14
44.28,0,-5,-8,-7,-9,-6,0,57
44.285,0,-1,3,24,2,-2,-4,-7
44.29,0,-3,-6,-29,0,2,-1,3
44.295,-1,-2,-2,-3,2,-1,-5,-10
44.3,-1,-2,0,-4,-2,1,3,-17
44.305,-1,-4,-3,-4,-3,-1,2,8
44.31,4,-1,3,13,-2,-1,2,16
44.315,-2,0,-3,-4,-3,-3,-4,-9
44.32,-3,-2,-2,-17,-1,-1,-3,-7
44.325,1,0,0,5,0,-3,-3,5
44.33,-2,-3,-1,-4,2,2,-1,-14
44.335,2,3,8,15,-8,-5,-3,6
44.34,-2,1,2,6,3,-1,-1,-22
44.345,-4,-2,-5,-6,-5,1,-6,8
44.35,2,3,2,8,-1,1,6,0
44.355,-4,-6,-13,-49,-8,-2,-7,-4
44.36,-1,-1,2,1,1,-3,0,-11
44.365,-1,0,4,4,2,0,1,-27
44.37,-3,-1,-3,2,1,-1,0,15
44.375,2,-1,2,12,0,0,0,0
44.38,-1,1,-1,20,3,-2,1,-6
44.385,-2,-2,-4,-22,-1,-2,-2,30
44.39,-3,-2,-7,-15,-8,-2,-7,-17
44.395,-2,-1,4,10,1,0,-14,-11
44.4,2,-1,1,0,0,3,-2,-1
44.405,1,1,0,-1,1,3,1,-3
44.41,2,0,2,14,-3,-3,-2,-6
44.415,1,-3,0,-12,-3,-2,1,7
44.42,2,1,-1,6,-1,-3,0,13
44.425,0,-1,1,-6,4,3,-1,0
44.43,0,3,6,14,-16,-8,-3,0
44.435,-4,-4,-9,-7,5,1,0,0
44.44,-6,-2,-6,-35,-5,-4,-1,-17
44.445,-6,-3,-4,1,0,-3,0,34
44.45,-5,-4,-4,-30,-3,-2,0,2
44.455,0,1,4,20,4,-1,1,4
44.46,-3,0,-3,-8,-5,-3,-2,-5
44.465,1,2,1,-8,-3,-1,0,-23
44.47,2,2,4,9,3,1,0,-17
44.475,-1,-1,-2,2,0,-1,-4,53
44.48,1,-3,3,11,-3,1,0,-8
44.485,0,-1,1,4,-3,-5,-14,-47
44.49,-3,-1,-1,0,-1,-1,-2,4
44.495,-3,-3,-10,-26,-4,-2,1,-15
44.5,-3,1,-1,-2,-1,1,0,3
44.505,8,-2,0,0,-3,-2,0,9
44.51,0,-1,1,11,4,1,2,1
44.515,2,-2,1,-16,-3,-2,-3,-7
44.52,-4,-3,-6,4,1,2,-1,3
44.525,-5,1,-1,-10,-4,-5,1,-4
44.53,-4,-2,-4,4,3,0,-1,10
44.535,-3,-2,-1,-18,0,3,4,-10
44.54,2,2,6,17,-5,-6,-3,1
44.545,0,-1,1,9,0,2,2,-1
44.55,-3,-3,-3,-6,0,-2,-1,-1
44.555,-1,2,2,17,1,0,0,-1
44.56,-1,1,0,-5,0,-1,-1,-2
44.565,-3,-1,-2,-2,-5,-4,-6,1
44.57,2,-3,-1,-4,2,0,-1,2
44.575,-1,-3,3,20,-7,-5,-1,-5
44.58,-1,0,-2,-13,2,1,1,2
44.585,-3,0,-1,9,-1,1,4,3
44.59,1,-2,-1,-5,-5,-1,-3,0
44.595,-1,1,0,5,2,-2,1,-4
44.6,-1,-3,-2,1,-3,-2,-3,-4
44.605,-3,-1,-5,-6,-2,-2,1,1
44.61,-3,0,1,-10,-2,-2,-1,-1
44.615,2,-1,-6,-4,-2,1,-1,-2
44.62,1,0,3,7,-3,-6,-2,2
44.625,0,0,1,5,3,0,1,0
44.63,4,2,0,2,1,2,5,2
44.635,-1,0,2,-3,-3,-1,-1,-1
44.64,-3,-5,-4,1,0,-1,-2,-2
44.645,-1,-2,-4,-6,-9,-3,-4,-1
44.65,-2,-2,-2,8,-2,-2,-5,-3
44.655,-1,1,5,3,4,-1,1,-1
44.66,1,3,1,-10,10,7,5,4
44.665,1,-2,4,22,-16,-5,0,-1
44.67,-3,0,2,16,-1,-4,-4,-3
44.675,-1,-1,-4,-13,-2,1,-3,-5
44.68,-1,3,0,-5,3,-1,-3,-2
44.685,-1,0,1,-3,9,4,5,2
44.69,2,-1,1,11,-1,3,3,3
44.695,0,-8,-4,-26,-3,-2,-2,-2
44.7,1,-2,-1,4,2,-2,-2,-1
44.705,0,0,-2,0,-7,-2,-1,0
44.71,-1,-1,-2,-8,-5,-4,-2,-2
44.715,-1,3,5,20,1,-3,-3,-1
44.72,-1,0,0,-1,-2,1,2,1
44.725,-2,-4,-5,-10,5,-1,-3,-2
44.73,-1,0,3,-21,-2,-4,0,1
44.735,-1,1,-1,2,-4,1,1,-2
44.74,-3,-1,0,7,-3,-2,0,0
44.745,-2,-3,-4,4,6,1,-3,0
44.75,-2,1,1,-3,-3,-2,-4,0
44.755,0,0,3,3,-6,-4,-2,-3
44.76,0,-3,-1,-5,2,1,-2,-3
44.765,0,-1,0,2,-3,-4,-1,0
44.77,-1,-3,-2,7,0,1,1,2
44.775,-1,-1,3,6,5,-1,2,1
44.78,0,-3,-6,-7,-3,-3,-1,1
44.785,0,0,-2,-11,3,1,-1,5
44.79,-1,-2,-3,-8,-1,-1,-1,-6
44.795,15,7,0,14,-1,-3,-3,1
44.8,-8,-1,6,-16,-9,-3,-4,-7
44.805,0,-2,0,-2,-1,0,1,1
44.81,1,1,-7,5,6,2,1,3
44.815,5,1,4,25,-17,-12,-4,-1
44.82,-7,1,-3,-15,-2,-1,-1,0
44.825,-3,-1,-2,13,5,3,-1,-6
44.83,0,-2,-3,-15,0,1,1,0
44.835,-3,-5,-3,-7,5,3,1,-1
44.84,4,2,-1,11,-3,-1,-1,-6
44.845,-1,-1,4,-5,-4,0,1,0
44.85,-3,-5,-4,-11,0,2,-2,0
44.855,-8,-6,0,16,-4,-4,-1,-1
44.86,4,-5,-1,0,-2,-2,-1,12
44.865,-5,-2,0,-13,1,-3,-5,-26
44.87,3,6,1,1,2,0,0,1
44.875,-5,0,-6,-7,-1,0,-3,1
44.88,-3,-7,-5,-10,-5,-2,0,-1
44.885,8,-1,-1,0,-2,-2,1,12
44.89,-4,-6,-1,-5,-6,-2,-3,-9
44.895,-12,-6,0,-3,3,-1,-6,-21
44.9,-3,0,1,7,-3,-3,1,-2
44.905,0,1,-4,-2,-1,0,-1,3
44.91,-2,0,7,-1,-1,-4,-4,-9
44.915,1,2,-2,-8,5,7,9,11
44.92,0,-2,2,4,0,-5,-5,-3
44.925,-5,-1,0,-4,-5,-3,-2,-2
44.93,-5,0,-3,7,2,2,2,3
44.935,-3,-5,-6,19,-5,-5,-1,-3
44.94,9,7,0,0,-4,0,3,-5
44.945,-5,8,12,13,-1,-6,-9,7
44.95,-7,-4,-4,-8,1,-1,-2,21
44.955,7,0,-5,-9,8,9,5,-5
44.96,4,-4,0,10,-6,-5,5,26
44.965,-7,-5,2,16,-16,-12,-16,-48
44.97,1,0,-3,12,4,-3,0,2
44.975,1,1,-4,-18,-2,0,-2,3
44.98,0,-1,-2,-1,4,1,-2,13
44.985,0,-3,-14,-72,-1,12,10,10
44.99,-1,-3,9,59,-5,-10,-14,-4
44.995,-17,-3,3,-28,-2,-1,-3,-72
45,11,2,-10,-24,5,1,3,78
45.005,-9,-8,-10,7,-9,-9,5,97
45.01,-6,-5,-12,-18,-2,6,3,-48
45.015,-4,0,19,18,-8,-6,-10,-62
45.02,0,-4,-9,-30,4,-3,-2,34
45.025,2,3,2,18,26,14,13,-13
45.03,5,-2,-5,-35,-13,-7,-5,18
45.035,1,6,9,39,-28,-15,-2,31
45.04,-16,-5,9,7,-2,-1,3,-78
45.045,0,-8,-13,19,1,-10,-18,16
45.05,6,2,5,-14,10,11,10,-64
45.055,5,-6,-16,-30,8,-1,25,90
45.06,-5,-4,1,11,-5,2,-24,-128
45.065,4,-3,-10,-19,6,4,2,-33
45.07,-3,-1,11,7,-18,-9,-10,-30
45.075,-8,-2,4,14,0,-3,3,34
45.08,-4,9,3,-5,5,5,10,20
45.085,2,7,4,-7,1,0,2,16
45.09,12,7,6,3,-1,-2,11,15
45.095,-20,-13,-4,-7,2,2,-15,-54
45.1,-6,-10,-12,15,-1,-4,-6,54
45.105,1,-2,6,-16,-4,7,0,-95
45.11,-2,0,-2,29,-5,-10,-15,35
45.115,11,6,-1,-39,2,-1,-9,18
45.12,-7,-2,4,5,-2,-2,1,-7
45.125,4,1,6,4,1,2,7,-12
45.13,3,0,-3,-2,-8,-1,-7,-67
45.135,7,1,0,9,9,5,1,17
45.14,-10,-3,2,3,-6,-4,-3,-40
45.145,-5,-1,4,-8,14,7,8,2
45.15,-18,-6,-8,-2,6,5,5,25
45.155,-3,-1,2,-1,-28,-15,-13,2
45.16,2,1,-2,9,-1,-6,-4,12
45.165,-1,-4,-12,-9,3,4,1,5
45.17,-3,-4,5,22,-6,-8,-5,-6
45.175,-4,-5,1,-1,0,-1,-2,-18
45.18,33,13,-4,-12,5,7,14,59
45.185,-16,-8,2,14,-4,-4,-19,7
45.19,4,-3,-5,-10,5,0,4,35
45.195,-5,4,2,-3,-2,-2,-5,-68
45.2,-1,1,9,5,-1,0,-1,-22
45.205,4,1,-1,14,3,1,1,-19
45.21,-23,-12,-2,-17,-8,-6,-14,-76
45.215,12,0,-4,10,4,5,35,91
45.22,-2,-5,-3,5,-1,-2,-18,-81
45.225,7,3,-3,-19,-8,-3,-3,4
45.23,3,4,2,3,-3,3,13,16
45.235,6,4,6,16,3,-1,-16,-93
45.24,-21,-9,-4,-4,-3,-1,-3,33
45.245,-5,-5,-2,-2,-5,-9,-5,44
45.25,11,5,-1,5,5,5,7,-20
45.255,3,-2,-9,-24,17,9,-2,-3
45.26,-6,-6,-12,-28,-22,-4,2,-22
45.265,9,0,9,41,-18,-16,-8,12
45.27,-6,0,15,-11,-13,-9,-3,27
45.275,-14,-1,1,-2,10,2,-7,-16
45.28,3,4,2,-2,10,6,5,20
45.285,3,2,-9,-31,3,6,13,1
45.29,-3,-1,-5,-1,4,2,-3,-47
45.295,10,-4,-15,3,-2,-5,-7,79
45.3,10,4,7,15,3,2,4,-15
45.305,-9,-4,-8,21,-4,-5,-7,44
45.31,10,3,2,3,6,2,5,44
45.315,-4,-3,-5,-3,0,0,15,76
45.32,-2,0,3,6,0,-2,4,-8
45.325,5,3,5,-3,-5,-1,-1,-19
45.33,-15,-5,-5,-17,-1,-3,-5,20
45.335,7,1,0,2,0,3,6,11
45.34,-2,-4,2,1,-4,-5,-2,6
45.345,-2,-1,3,-4,-6,-5,-1,-31
45.35,17,-1,-9,-9,5,3,5,7
45.355,-2,2,1,0,-1,1,-5,-45
45.36,-6,-3,0,3,-4,-2,-8,-14
45.365,2,-2,2,-6,-1,-1,-6,-18
45.37,-6,-1,0,6,1,-2,-4,10
45.375,-8,-3,7,10,-3,-5,-9,-20
45.38,2,-2,0,-7,-1,-1,2,9
45.385,0,0,2,11,2,3,9,8
45.39,-6,-3,-12,-34,-5,-4,-3,9
45.395,-2,-4,-2,0,-5,-1,-3,-24
45.4,-3,-1,-4,2,-1,-1,1,0
45.405,-3,0,4,-6,-1,-2,0,-18
45.41,-1,-1,-1,5,2,1,-2,-1
45.415,2,-1,-4,-2,-2,-2,-4,-10
45.42,-1,-1,-1,-8,2,-3,-3,-2
45.425,-2,-1,1,13,-1,-1,-1,-6
45.43,4,2,1,-6,0,0,-1,8
45.435,-4,-3,-1,-9,-3,-2,-1,0
45.44,0,2,-3,-1,-1,-2,-2,2
45.445,-2,-1,-3,-5,3,-2,0,-5
45.45,-2,0,-2,-7,-1,3,1,1
45.455,-3,2,-2,-7,-3,-2,-3,-10
45.46,-4,-1,0,3,-2,-2,-3,-3
45.465,0,-2,0,-4,-1,-1,-1,-5
45.47,-1,-5,-2,-8,0,-2,-4,3
45.475,0,-2,0,7,2,1,1,0
45.48,1,-2,-1,6,3,-1,4,1
45.485,-1,1,3,-4,-12,-3,0,1
45.49,1,-4,-2,-1,-2,-2,-2,1
45.495,-2,0,-2,-1,1,-2,-2,-8
45.5,-1,-2,-4,-2,-1,1,-3,-1
45.505,-1,-2,1,-3,4,-1,0,-4
45.51,-1,2,0,5,-1,1,0,0
45.515,-2,-1,-3,-4,-3,-2,-2,-4
45.52,-1,-1,-1,-2,-2,-4,-2,-1
45.525,-2,0,1,8,-1,-3,-2,-2
45.53,2,-1,-1,5,-3,-2,-4,1
45.535,-1,-3,-3,-3,-1,1,-1,-1
45.54,-2,-3,0,-7,6,3,1,0
45.545,-1,1,3,20,-2,0,3,0
45.55,-2,0,2,-7,-8,-6,0,1
45.555,-1,-1,3,9,3,-2,-2,-5
45.56,-2,-2,-2,0,-8,-4,-4,-4
45.565,-2,-3,-7,-14,7,2,-3,-3
45.57,0,1,-1,-3,1,2,-1,2
45.575,-3,1,1,-1,-6,-1,-1,-1
45.58,0,-1,0,-4,-1,-3,-2,-1
45.585,2,2,-2,-1,-3,-1,0,1
45.59,-2,-2,-3,-2,0,0,-1,-1
45.595,0,-2,-3,-8,-1,-1,0,-4
45.6,-1,-1,2,4,-4,-1,2,0
45.605,-4,-2,-1,-7,-1,0,-2,-1
45.61,-2,-1,-2,3,-1,-2,-3,-2
45.615,0,-1,-4,-7,1,1,0,-2
45.62,-1,-1,2,6,0,-1,-2,0
45.625,0,1,-1,-14,-3,-1,-2,0
45.63,-1,-1,1,5,1,-2,-1,-1
45.635,1,-1,2,4,1,0,-2,0
45.64,-2,2,-3,-4,-4,-2,-2,-2
45.645,-3,0,0,1,-3,-2,-1,-4
45.65,-1,1,0,-4,1,-1,-1,-2
45.655,1,1,2,-2,1,0,0,-1
45.66,2,1,1,2,-2,-3,-1,-1
45.665,-1,0,0,-1,0,-2,-4,-4
45.67,-4,-1,-7,-9,-2,-1,-2,8
45.675,-2,-5,1,-4,-2,0,-1,-10
45.68,0,-1,7,18,5,1,0,-11
45.685,-3,-8,-12,-13,0,-4,21,87
45.69,2,-3,1,19,-2,2,3,-23
45.695,0,-5,-3,-5,-2,2,1,-53
45.7,-2,-6,-3,-4,-4,-6,15,50
45.705,0,2,8,9,0,6,1,-82
45.71,-8,-7,2,-13,-9,-18,-86,-68
45.715,2,-4,-14,16,6,-2,-19,19
45.72,7,-3,-7,-30,1,7,21,24
45.725,1,1,-1,3,-3,-1,-11,-24
45.73,5,-2,-13,-6,0,5,12,2
45.735,26,10,16,11,-8,-8,-27,-85
45.74,-7,0,-1,-5,-4,1,6,-19
45.745,-23,-8,-4,-1,-1,-13,-44,-4
45.75,-20,3,18,7,5,5,18,4
45.755,-22,-2,-11,-1,0,5,21,49
45.76,-2,-3,5,18,3,4,6,24
45.765,11,1,5,-18,-3,-1,7,47
45.77,-4,-5,1,14,-1,-3,13,6
45.775,0,0,-6,-27,-4,-2,2,-4
45.78,1,2,6,7,0,-1,-9,-11
45.785,-2,-2,-7,2,0,0,-3,-46
45.79,6,6,7,11,-1,0,1,8
45.795,-3,-3,0,0,-2,1,8,27
45.8,-3,1,-3,-27,-2,-6,-14,-14
45.805,2,0,4,12,2,3,4,12
45.81,4,0,-4,-4,3,1,14,9
45.815,-2,0,1,-2,-10,-7,-1,12
45.82,-2,-1,-4,7,-1,0,-6,-4
45.825,0,-2,-1,0,-3,0,-2,-15
45.83,3,0,-3,-11,1,0,2,8
45.835,-1,-2,-3,-2,-1,-1,3,12
45.84,4,2,2,3,2,2,-4,-18
45.845,1,1,-4,-7,5,2,6,6
45.85,3,1,0,-3,-14,-3,4,11
45.855,-5,1,7,12,-9,-7,-6,9
45.86,-5,1,-4,-3,-3,-6,-8,-23
45.865,2,-4,3,-1,2,-1,3,-5
45.87,4,-8,-7,-6,4,3,15,50
45.875,2,-7,1,-4,3,3,-5,-47
45.88,-6,-8,-2,0,-2,-5,-6,0
45.885,7,-1,3,3,1,11,15,51
45.89,27,2,4,2,-1,4,23,90
45.895,-31,-9,-14,-9,-6,-18,-31,-83
45.9,1,0,-2,-4,-1,-3,-15,33
45.905,-3,4,3,-2,-3,-5,11,-2
45.91,3,9,7,7,-1,9,6,-62
45.915,2,-4,7,-2,2,13,24,119
45.92,-19,-8,-24,-1,-5,-9,-14,22
45.925,0,5,11,1,-3,-21,-37,-60
45.93,22,18,26,-16,0,-6,-15,-12
45.935,13,40,-16,3,4,2,-1,-13
45.94,-23,24,0,6,1,16,11,-22
45.945,0,-4,-31,9,1,23,32,63
45.95,-38,-6,65,19,-4,-19,28,46
45.955,-17,-41,-46,-29,-8,-21,-53,28
45.96,29,-22,-2,5,3,-6,5,23
45.965,3,-6,25,-18,-5,-9,-13,15
45.97,3,-25,-39,-12,1,8,-7,-32
45.975,5,6,33,9,7,16,32,41
45.98,-4,4,0,2,-5,-9,-16,-72
45.985,-7,-5,-4,4,-2,4,23,19
45.99,10,0,-5,4,0,5,-3,-54
45.995,16,3,10,-8,-9,-4,9,-41
46,-8,-17,4,-1,2,3,1,-5
46.005,-3,-18,-6,-2,-1,-2,9,-17
46.01,-20,-16,-13,-3,2,13,3,13
46.015,-37,-8,-20,-7,-5,-12,-1,76
46.02,20,24,0,-20,-5,-8,-9,-73
46.025,10,18,-6,-12,1,1,-4,-43
46.03,-3,22,-13,-17,-4,-9,-17,2
46.035,14,11,4,8,8,19,14,-17
46.04,3,-11,-9,-12,-7,4,14,77
46.045,-3,-2,-4,11,1,0,-27,-48
46.05,-26,-6,39,-7,-8,-17,3,26
46.055,8,1,-48,-12,-2,-9,-7,-60
46.06,-10,-1,-7,-22,-2,-5,-7,-17
46.065,-16,1,-7,-16,0,-1,-3,-43
46.07,11,78,-2,5,7,8,8,-2
46.075,-10,17,22,19,1,-3,-16,53
46.08,-21,-69,-4,10,-3,-8,-25,36
46.085,-34,-85,-9,3,-2,2,2,24
46.09,31,-65,-33,14,5,0,-11,-15
46.095,-9,-14,4,17,-2,-6,-8,-47
46.1,23,34,8,32,3,9,10,-37
46.105,23,4,11,24,-3,-1,4,26
46.11,0,2,-6,9,-7,-6,-14,-64
46.115,22,31,9,2,4,4,19,41
46.12,1,94,25,2,-1,11,35,-15
46.125,4,67,-1,-2,-6,-2,4,-49
46.13,-35,-12,-27,0,-1,-10,-20,-15
46.135,18,-56,17,11,1,4,24,-14
46.14,-21,-108,-6,24,4,-2,-11,23
46.145,5,-29,-7,14,-1,-1,4,5
46.15,19,3,-8,9,0,5,-6,-35
46.155,14,10,9,-12,-1,5,-1,-17
46.16,19,31,5,-31,-4,-5,1,-5
46.165,25,15,3,-36,-3,-7,-13,-6
46.17,17,-5,0,-27,-1,1,4,31
46.175,-12,12,9,-19,-3,-2,1,-14
46.18,-23,10,-1,-14,-5,-3,1,-17
46.185,-38,16,2,-6,-2,-3,2,4
46.19,-74,18,0,0,-4,-4,-13,-64
46.195,-116,37,-6,-2,0,-2,-1,11
46.2,-120,-11,-3,11,1,2,-5,-14
46.205,-128,-4,6,8,-3,-3,-5,7
46.21,-42,-22,3,5,1,7,27,67
46.215,5,-22,3,7,1,4,39,23
46.22,119,-1,16,5,-7,-15,-19,-90
46.225,127,52,-14,1,5,5,4,21
46.23,124,32,2,0,-2,-7,-17,-28
46.235,127,-15,2,2,-2,1,-1,-9
46.24,60,-44,5,2,-2,3,17,-6
46.245,31,-24,-4,-4,-5,-3,-2,34
46.25,-35,-40,9,5,-4,-2,4,2
46.255,-81,-15,-14,-9,-1,-5,-9,39
46.26,-58,-8,-34,-11,-2,-2,-7,15
46.265,-25,-5,-4,0,1,-3,-11,-5
46.27,-22,-16,-17,-1,1,1,5,31
46.275,-21,-16,-24,-16,-4,-7,-47,-57
46.28,-20,40,18,-110,0,2,4,35
46.285,-16,17,7,-111,0,1,12,19
46.29,-15,3,-11,-52,-7,-6,-15,-49
46.295,7,5,10,70,0,1,5,1
46.3,1,-3,-4,127,1,1,2,56
46.305,-17,-20,-8,123,-3,-3,-4,4
46.31,-14,-22,2,89,0,1,6,25
46.315,-3,-14,7,58,-4,-7,-28,-73
46.32,-4,9,2,33,-1,-3,-3,34
46.325,-4,1,14,-5,1,1,6,33
46.33,-3,-5,-5,-44,2,2,-3,8
46.335,6,18,8,-76,-1,6,16,14
46.34,12,5,-1,-58,-2,4,9,4
46.345,-4,-27,-7,-48,-2,2,2,-16
46.35,-13,-9,-4,-26,-2,-4,-17,-91
46.355,5,8,-42,-21,10,7,36,88
46.36,10,39,31,1,6,1,-8,-47
46.365,15,24,16,-27,-40,-17,-6,-47
46.37,19,44,17,-32,-7,-18,-20,8
46.375,-33,-7,-5,1,1,-18,-20,-33
46.38,-12,-2,-9,13,5,3,1,2
46.385,4,-4,-21,30,14,18,26,79
46.39,25,43,0,36,3,12,40,31
46.395,17,-8,27,32,-2,-4,1,-4
46.4,26,-13,-9,8,-3,-5,-8,-61
46.405,70,31,9,0,4,12,29,-57
46.41,-46,-64,3,-6,-17,-16,-27,77
46.415,15,-10,-8,-7,4,-6,-42,-63
46.42,28,12,48,-9,-17,4,13,63
46.425,15,23,-43,-10,7,19,95,60
46.43,-26,-51,-26,-12,-5,-24,-94,-14
46.435,44,41,79,24,5,25,54,44
46.44,-90,-65,-56,14,9,-12,-52,-56
46.445,25,5,102,59,23,23,15,-38
46.45,28,23,-83,-24,-11,-14,-29,20
46.455,-11,6,-21,-4,6,12,4,28
46.46,78,35,15,-41,-10,-14,38,70
46.465,-75,-24,10,23,2,-25,-52,38
46.47,-5,-19,56,19,7,35,57,36
46.475,27,-31,-38,17,10,-24,-64,-86
46.48,-87,27,53,-15,-13,1,17,-50
46.485,-50,2,-116,36,16,3,-36,-87
46.49,-47,-11,69,-55,-40,-41,21,-34
46.495,60,8,-58,-49,-16,-6,-18,-33
46.5,26,-28,-8,5,6,-1,-12,-5
46.505,52,-20,18,30,7,-19,-56,-64
46.51,70,26,33,37,12,27,40,7
46.515,-23,9,15,-4,-1,7,16,16
46.52,22,-18,-12,27,2,5,17,-5
46.525,-56,-73,-15,-46,-28,-53,-93,-58
46.53,47,43,-35,3,7,-6,-4,-12
46.535,-3,-11,22,-19,-9,-7,7,-5
46.54,2,10,8,10,2,10,4,18
46.545,28,-1,-8,17,0,17,27,15
46.55,-49,-24,6,-39,6,-1,14,-13
46.555,-106,-25,2,-13,-9,-7,14,69
46.56,15,18,-43,8,8,-3,-2,-17
46.565,25,21,15,-22,-14,-8,-16,34
46.57,4,-10,-22,18,9,2,-10,-2
46.575,1,-5,24,13,0,16,25,38
46.58,-16,-16,-31,0,8,4,-1,35
46.585,-37,14,36,-35,-15,-9,2,16
46.59,-20,-3,5,29,14,10,4,-10
46.595,12,2,-3,-9,0,7,11,-12
46.6,7,5,1,-26,-14,-11,-12,6
46.605,-5,-22,26,24,4,-1,-1,-8
46.61,41,75,-4,-43,11,16,24,21
46.615,-17,3,1,11,-13,-7,-21,-83
46.62,-68,-26,-10,-4,-3,-7,-20,-18
46.625,-8,11,11,-18,-9,-5,-7,16
46.63,36,6,-9,28,5,6,8,9
46.635,48,-11,-34,6,5,2,13,1
46.64,83,-8,3,-9,-3,-1,9,0
46.645,25,32,7,-23,2,5,7,-47
46.65,-3,-36,-30,0,-8,-8,-6,44
46.655,-7,8,8,-29,1,0,-3,4
46.66,13,-3,6,8,1,2,4,29
46.665,-5,-16,-17,-3,2,6,10,0
46.67,-6,-2,9,25,-8,-9,-16,-36
46.675,-2,1,19,12,4,-1,-16,57
46.68,-10,-4,0,-11,11,16,10,44
46.685,-19,-7,4,-18,-5,-7,-13,-28
46.69,-23,17,10,9,-20,-28,-15,-15
46.695,-8,-15,-10,-22,-9,3,3,15
46.7,-9,2,16,13,-2,-16,-11,-21
46.705,16,10,-72,-15,11,19,15,44
46.71,3,-3,5,10,0,7,10,11
46.715,8,-6,-3,1,6,1,4,-33
46.72,5,17,9,-6,-7,-2,-4,5
46.725,-16,-32,2,13,-2,-6,-17,-25
46.73,-3,-2,-46,-4,6,6,3,-6
46.735,-8,17,55,-13,-3,3,-1,3
46.74,-13,-13,38,27,0,-12,-8,-6
46.745,3,-11,38,30,-7,-4,5,39
46.75,5,29,-26,60,8,10,8,9
46.755,2,8,11,46,-3,-3,0,-4
46.76,13,47,-102,124,-4,4,11,41
46.765,14,-9,41,123,-18,-13,-13,-39
46.77,-4,-14,37,124,6,11,10,0
46.775,4,15,-5,-83,11,1,4,17
46.78,-51,-18,-2,-128,1,17,-2,-20
46.785,-36,10,21,-128,12,-12,8,30
46.79,-51,-15,-19,-128,-4,11,4,8
46.795,-115,-21,-5,-19,-42,-45,-17,2
46.8,-120,-14,1,88,5,10,6,9
46.805,-76,53,-8,125,12,21,11,8
46.81,88,-15,41,127,13,2,-9,-24
46.815,127,-17,-22,9,-4,-2,-9,-6
46.82,75,-19,8,-123,-11,-27,-25,-39
46.825,-11,-9,-22,-122,5,-1,2,-3
46.83,-16,-4,-20,-128,-7,-2,3,17
46.835,-51,0,-41,-94,15,22,13,-26
46.84,-21,2,5,22,1,9,3,-11
46.845,9,24,39,44,16,20,17,32
46.85,-37,-10,9,116,-8,-25,-18,1
46.855,-10,-9,11,127,-3,-5,-5,-9
46.86,-11,-10,34,96,-4,-5,-3,-2
46.865,37,-3,-68,43,-4,6,16,-2
46.87,-5,-20,11,28,-2,5,6,-1
46.875,22,65,-46,43,-2,-2,-3,57
46.88,-18,-41,34,19,2,-1,-11,-14
46.885,16,33,-15,34,-11,-9,-7,18
46.89,-19,-16,-28,-6,-26,-18,-12,-13
46.895,-16,12,15,32,4,-7,-5,-24
46.9,-3,-23,-28,17,2,4,9,4
46.905,19,48,-3,-23,13,13,9,28
46.91,-23,-6,13,-29,13,21,6,-13
46.915,-5,-26,4,48,-40,-70,-61,-33
46.92,15,27,-10,-8,-10,0,0,3
46.925,6,13,-35,60,-3,-3,0,-4
46.93,-6,-8,-8,105,12,13,2,-7
46.935,-16,-29,-14,97,7,14,7,-8
46.94,2,1,-21,-76,3,-2,-2,15
46.945,-32,-12,-7,-120,-18,-25,-35,-50
46.95,-39,-12,1,-128,-13,-13,-4,9
46.955,-4,-4,3,-125,11,15,17,12
46.96,3,-8,32,-61,0,-6,-5,-17
46.965,29,-48,-42,-34,7,12,15,46
46.97,21,20,-15,1,1,-5,-3,-12
46.975,27,6,44,16,-1,3,5,-10
46.98,2,-15,13,48,-1,1,1,-1
46.985,10,39,62,56,-6,-5,-1,-10
46.99,1,-4,-15,41,-3,5,3,-4
46.995,2,-6,6,21,18,4,9,20
47,4,7,0,50,-19,-13,-6,-9
47.005,-8,-47,17,41,-7,-7,-2,-11
47.01,-4,-8,-8,-7,0,-1,0,-3
47.015,-8,0,17,-28,9,19,9,-8
47.02,-4,-12,-19,21,9,0,-3,-5
47.025,-9,23,19,13,-20,-19,-12,-22
47.03,0,0,18,-11,-3,-1,-2,-6
47.035,-14,20,7,-12,-4,-3,-10,-12
47.04,15,-7,25,9,-6,-10,-4,6
47.045,2,-6,-12,-17,-8,1,4,-5
47.05,8,15,1,-5,4,-2,7,4
47.055,-4,-32,-6,-10,-4,1,-1,-12
47.06,1,11,-2,2,6,-4,-5,6
47.065,-4,6,-6,-6,-9,-2,0,18
47.07,-18,-4,-8,-18,-1,4,-1,-34
47.075,-11,-23,-3,-3,1,-6,-12,9
47.08,-6,-28,15,8,3,-6,-2,-9
47.085,-3,38,-18,8,-9,-7,-6,-26
47.09,7,7,-6,-12,-5,1,1,7
47.095,6,-17,-3,-5,5,5,6,49
47.1,-10,-3,8,-4,-1,-4,-9,-14
47.105,-4,-11,-4,1,1,1,2,-4
47.11,7,6,-8,-5,2,0,-4,0
47.115,0,-24,-10,-3,0,4,6,-12
47.12,6,42,17,-3,-1,-1,2,6
47.125,2,-8,0,1,-4,-4,-4,1
47.13,12,11,3,-3,2,6,4,6
47.135,-6,-23,7,-4,-3,-3,-4,0
47.14,1,-3,-38,-2,-3,2,5,6
47.145,1,-2,0,2,-2,-2,-6,-18
47.15,3,10,18,-1,0,2,3,8
47.155,5,-2,4,2,-1,-2,1,-5
47.16,1,1,11,0,1,4,5,5
47.165,4,-5,-9,-1,-2,-2,11,-14
47.17,9,-3,-12,0,-1,-9,-47,-58
47.175,10,-20,-5,-4,-6,-4,5,22
47.18,-7,55,42,12,0,-3,-12,-40
47.185,-1,-5,-27,-13,-6,1,5,-23
47.19,-9,-3,-1,1,-2,0,9,-4
47.195,0,-14,-14,6,1,-1,3,-3
47.2,-4,-4,20,6,0,18,46,-6
47.205,8,-5,2,18,-1,-18,-8,-8
47.21,4,-5,14,-45,-18,-39,-81,-19
47.215,0,9,0,-5,1,3,-6,27
47.22,-11,-22,-23,-4,-3,-10,-6,-6
47.225,-4,-4,-6,19,16,13,-3,-20
47.23,6,10,49,-23,-29,29,92,55
47.235,1,-20,27,-9,-8,-46,-61,0
47.24,-33,-53,-44,26,14,19,17,25
47.245,-13,63,54,-37,-37,-29,-18,-6
47.25,-8,-23,-69,6,17,11,-11,24
47.255,0,-1,-4,-22,-2,-2,-12,44
47.26,8,-4,20,0,-3,-7,14,31
47.265,-18,-26,-4,21,12,14,-9,-69
47.27,48,51,7,16,14,38,95,88
47.275,-26,7,-95,-30,-26,-34,-54,-128
47.28,-28,-33,14,-35,-32,-14,-32,-16
47.285,-56,-19,12,7,0,2,3,3
47.29,-87,15,90,21,5,3,1,-27
47.295,-127,16,-76,18,18,42,68,87
47.3,99,-10,-51,7,8,18,15,6
47.305,117,20,-11,-40,-10,-30,-21,-32
47.31,127,-15,-11,4,15,-7,-31,-25
47.315,-10,-27,59,28,2,1,-26,-107
47.32,5,30,98,6,5,-2,25,8
47.325,-95,-57,7,12,-10,-17,12,83
47.33,17,10,-128,-60,2,-5,-10,32
47.335,19,66,37,4,2,12,27,-7
47.34,-84,-47,-70,-48,-22,-40,-88,-74
47.345,59,5,34,-46,-13,5,1,-50
47.35,5,-7,37,26,10,1,0,29
47.355,20,-2,18,-24,-3,0,3,-56
47.36,4,-1,-64,15,5,4,-10,-44
47.365,-6,-1,23,12,5,17,35,-12
47.37,49,16,-86,-69,-30,-15,-82,-89
47.375,51,21,10,7,4,10,40,27
47.38,7,0,-19,-26,7,9,15,-5
47.385,-84,-18,8,10,-15,-23,-63,-61
47.39,-63,-19,-34,-12,-15,-19,-43,-57
47.395,33,0,42,37,14,0,1,61
47.4,-42,-14,-28,-1,-17,-10,0,-7
47.405,16,35,30,-2,2,6,11,63
47.41,-6,-31,-11,-21,-8,-6,16,-6
47.415,21,63,0,6,4,7,5,-65
47.42,10,20,5,-6,3,8,7,-30
47.425,17,-9,-20,11,-2,0,-8,-27
47.43,-5,-11,13,3,0,-10,0,16
47.435,18,0,0,-2,-4,5,26,31
47.44,29,-3,-18,-10,11,10,25,29
47.445,-9,-9,-45,15,0,-8,-29,16
47.45,2,16,46,-17,-12,-16,-37,-31
47.455,-17,-35,-5,-5,1,6,14,4
47.46,-5,10,-18,-25,2,0,-10,3
47.465,-1,-13,23,19,1,-4,5,2
47.47,13,18,-15,6,0,7,18,35
47.475,5,-5,13,-7,-3,2,15,18
47.48,-32,-47,-20,6,-12,-16,-22,-90
47.485,9,54,-12,-12,8,8,-16,-28
47.49,1,-29,5,9,10,0,12,-16
47.495,19,24,13,-3,-14,-12,1,-45
47.5,-4,-31,-21,15,13,2,4,17
47.505,14,-4,34,-24,-14,3,22,11
47.51,11,0,-20,-2,14,18,20,35
47.515,3,-11,-56,-7,6,5,-2,17
47.52,-5,4,9,1,5,0,-3,18
47.525,17,-16,-10,31,-1,-15,-14,5
47.53,-8,9,9,-3,-6,-4,-7,11
47.535,-4,1,35,1,-5,1,6,8
47.54,-4,3,-22,-7,-11,-10,-13,-16
47.545,-8,-32,-40,7,7,7,11,10
47.55,10,63,55,7,7,4,18,44
47.555,-4,-14,-24,-24,14,16,7,20
47.56,3,17,13,6,4,1,-1,3
47.565,-11,-2,-14,-35,-9,1,9,5
47.57,-8,-25,13,28,-47,-41,-13,3
47.575,17,3,12,7,13,7,3,2
47.58,6,13,2,-11,10,12,7,-1
47.585,8,-10,-16,-11,3,-2,5,-1
47.59,-29,-41,-19,9,18,-1,-2,12
47.595,15,72,32,-2,-11,-13,2,17
47.6,-4,16,5,3,-7,-2,-5,1
47.605,6,-2,-1,13,9,6,8,-9
47.61,6,7,6,-21,-1,5,1,-4
47.615,-15,-14,2,7,-2,-7,-31,1
47.62,-7,-13,9,-14,5,6,7,-2
47.625,-6,4,-29,-34,-12,4,3,-11
47.63,11,9,20,25,10,-11,-1,11
47.635,18,-7,-40,-13,8,15,14,7
47.64,29,6,14,17,-8,-8,-8,-6
47.645,27,-2,18,7,-19,-11,-5,12
47.65,5,-10,-19,-17,2,2,0,3
47.655,-17,-16,-12,-1,2,4,6,-13
47.66,9,15,1,-21,-2,9,3,5
47.665,-11,-1,11,27,8,-15,-10,1
47.67,-6,-4,6,0,-1,2,-3,-15
47.675,4,25,41,1,-15,-11,0,-5
47.68,-24,0,-12,-5,-5,4,10,3
47.685,4,-11,-3,-15,3,2,-6,36
47.69,-28,4,-29,-24,0,6,-2,2
47.695,-51,-21,7,14,-6,-15,-8,-7
47.7,-24,-4,3,4,3,-4,-4,-10
47.705,-21,5,-13,-26,3,14,10,-2
47.71,-5,-6,0,22,3,-15,-4,9
47.715,4,-12,5,-14,-15,-6,8,-6
47.72,6,-7,-4,6,-2,-7,-7,28
47.725,6,0,2,3,7,9,9,-38
47.73,7,1,-25,-32,-9,2,-11,20
47.735,1,-1,-16,-5,6,-1,8,-1
47.74,1,27,-5,1,-9,-10,-9,42
47.745,0,-28,-18,13,7,-10,-2,-4
47.75,23,40,19,-11,-7,7,8,-22
47.755,-17,-17,6,10,-12,-5,-14,19
47.76,-1,-11,-2,-16,11,6,15,4
47.765,-6,-5,8,3,-16,-6,-20,-47
47.77,3,2,-10,-8,2,4,-4,1
47.775,4,-46,-35,0,-2,0,1,15
47.78,25,58,10,-10,-4,6,12,3
47.785,5,-12,-79,6,37,1,8,22
47.79,14,44,48,-4,5,2,4,6
47.795,-26,-21,22,-1,-18,-2,-15,-99
47.8,-33,-30,-25,-2,-25,-23,-46,-55
47.805,11,15,5,-17,-20,-1,4,37
47.81,1,-18,-3,8,-1,6,13,-5
47.815,-16,-11,-46,-19,2,-2,-27,-47
47.82,-7,-23,8,16,-6,-15,-6,-7
47.825,-8,9,42,10,-11,-2,6,-8
47.83,-5,-13,-11,5,10,4,5,8
47.835,18,18,4,-20,4,12,23,10
47.84,-16,-34,13,-17,-6,1,-16,-54
47.845,-14,7,34,28,-9,-28,-24,5
47.85,7,3,-2,7,-3,0,3,-13
47.855,16,4,-3,-5,8,6,10,38
47.86,25,3,-20,-13,6,11,17,-5
47.865,-12,-38,-23,-2,3,4,-6,43
47.87,11,7,-26,-11,-6,-3,-1,13
47.875,5,56,22,19,-7,-14,-8,10
47.88,-7,-4,-1,0,5,3,9,9
47.885,6,2,15,-6,-6,6,6,-23
47.89,2,-21,-11,-3,0,0,-1,9
47.895,-8,-15,6,-3,0,-1,-6,5
47.9,16,5,12,14,3,-1,6,0
47.905,-11,15,8,-5,-4,-2,4,-8
47.91,14,-18,-22,-11,-5,-2,-6,17
47.915,5,0,12,7,5,-4,3,21
47.92,-6,2,-3,3,0,1,-1,12
47.925,16,1,7,-6,2,6,16,3
47.93,4,-5,-1,-3,-1,-6,-12,-4
47.935,34,-9,1,3,-2,-2,1,5
47.94,13,0,-6,0,2,-1,0,9
47.945,-15,-2,-1,-2,-5,-2,-2,-1
47.95,-2,4,1,-1,3,6,1,7
47.955,2,7,2,0,-1,5,-7,0
47.96,-4,5,-1,0,1,-6,1,-3
47.965,-14,2,1,-1,-2,-1,-1,0
47.97,-15,-1,-5,-5,2,-2,-6,0
47.975,-34,-2,1,-3,-21,-19,-4,-4
47.98,-15,6,4,4,14,12,13,8
47.985,5,3,1,0,3,1,3,1
47.99,30,1,-1,0,-1,0,-2,-2
47.995,1,-2,-7,-2,-2,-1,-8,-5
48,9,3,-3,-5,-7,-6,-5,-4
48.005,-22,5,-4,0,-1,2,-1,1
48.01,6,-1,-5,-2,-1,1,0,0
48.015,15,-6,-2,-1,0,-3,-5,-3
48.02,24,-5,1,1,-4,-2,-3,-1
48.025,23,-4,-3,0,0,3,2,2
48.03,2,-3,-7,0,-5,-5,-1,0
48.035,4,1,-9,0,3,0,-1,0
48.04,3,-1,-2,0,-2,2,-1,-4
48.045,14,0,1,-3,-1,0,0,-1
48.05,-11,-3,5,0,-4,-5,1,2
48.055,-20,-1,3,-2,2,0,-3,-1
48.06,-3,-3,1,-2,1,0,-3,-4
48.065,7,-3,0,-2,-2,-1,-2,0
48.07,5,1,1,0,-3,-2,2,1
48.075,-4,4,3,-2,3,2,2,0
48.08,-27,-2,-2,0,-4,-2,-2,-3
48.085,-16,3,3,1,-2,-3,-1,-1
48.09,-8,2,3,1,-1,-1,0,-1
48.095,2,-2,-4,-3,0,1,-3,-3
48.1,5,-4,-6,-1,-2,-3,0,-3
48.105,11,-5,-6,-2,-1,0,-1,0
48.11,16,0,-1,1,0,0,0,1
48.115,-4,11,1,0,0,-1,-1,-2
48.12,-8,-2,2,0,-3,-3,-3,-2
48.125,-7,-4,-2,-1,-1,-1,-2,-2
48.13,-14,-8,-4,-3,-2,-1,-1,0
48.135,-17,-6,-2,-4,-3,-1,-1,-2
48.14,-19,-8,0,-3,-1,-1,-2,0
48.145,-10,-4,0,-1,1,-2,-2,-2
48.15,-2,-9,0,-2,0,1,0,0
48.155,12,-10,-1,1,0,-2,1,0
48.16,10,-3,-1,0,-2,0,0,-2
48.165,17,0,-5,-1,-1,1,-2,0
48.17,12,3,-4,-1,-1,-1,-1,-2
48.175,1,2,-3,-1,0,-1,-2,-2
48.18,-9,-8,-21,0,-1,-2,-2,-1
48.185,-22,4,-2,-1,-2,-3,-2,-1
48.19,-17,-4,-1,-1,-1,-2,-2,-2
48.195,-5,0,-2,0,-1,-1,-2,1
48.2,1,-6,3,-3,1,-1,1,-2
48.205,0,-10,-1,-3,-1,0,1,-2
48.21,4,3,3,-2,1,2,0,-1
48.215,-5,-2,1,0,-3,1,-1,0
48.22,-7,1,0,-3,-4,-2,-5,-4
48.225,2,1,-2,0,-3,-2,-3,-1
48.23,5,2,4,3,4,0,7,8
48.235,6,4,2,1,0,5,4,2
48.24,0,5,2,0,-2,-1,-2,-2
48.245,-3,-7,-4,-2,-3,0,-4,-2
48.25,-2,-1,-2,-5,-7,-6,-9,-5
48.255,1,-6,-1,0,-1,-3,-1,0
48.26,3,7,5,-1,-3,1,1,0
48.265,1,0,0,2,1,-4,-1,-3
48.27,5,1,1,0,-2,-1,-1,0
48.275,-12,-5,-2,-2,0,-3,-4,-2
48.28,-1,-2,-3,-3,-2,-5,-7,-2
48.285,0,-1,-2,-1,-4,-7,-7,-2
48.29,1,0,-1,1,-3,-5,-2,0
48.295,5,5,3,2,3,0,5,4
48.3,5,3,2,2,1,3,2,3
48.305,3,-2,-1,0,0,5,-1,-5
48.31,-6,-7,-3,-4,-7,-7,-10,-6
48.315,-4,-7,-4,-6,-6,-7,-7,-6
48.32,2,1,3,1,3,6,8,5
48.325,-1,2,0,0,2,-2,3,1
48.33,-1,0,0,0,4,4,3,1
48.335,-6,-4,-3,-3,-5,-1,-4,-5
48.34,-8,-4,-7,-4,-7,-8,-11,-6
48.345,-2,1,-2,-4,0,-3,-2,1
48.35,4,2,3,-1,5,5,9,4
48.355,1,0,2,-2,-3,0,-1,0
48.36,-4,-9,-3,-1,-2,2,-2,-6
48.365,0,-2,-1,-3,-7,-7,-10,-4
48.37,-3,-3,-5,-3,-8,-4,-9,-3
48.375,6,5,3,3,6,-5,7,7
48.38,6,3,0,1,0,2,1,1
48.385,-3,0,-2,-3,-3,-2,0,0
48.39,-5,-1,-2,-4,-5,-5,-8,-6
48.395,-6,0,-5,-1,-5,-2,0,0
48.4,9,7,4,3,9,7,11,6
48.405,1,-1,1,1,2,2,1,1
48.41,3,2,0,-2,-2,0,2,-1
48.415,-2,-5,-2,-2,-4,0,-9,-7
48.42,-5,-4,-4,-4,-9,-12,-9,-2
48.425,0,0,-2,-1,-1,-3,-2,-4
48.43,-1,2,1,-1,3,-1,-2,1
48.435,0,-3,-1,-1,1,10,2,-7
48.44,-2,-1,0,-4,-8,-9,-6,-3
48.445,6,4,2,2,9,-4,12,8
48.45,-5,-6,-2,1,2,6,6,-3
48.455,-1,0,0,0,-2,-4,-3,-1
48.46,-8,-3,-3,-5,-5,-2,-11,-6
48.465,-1,-5,-4,-1,-7,-6,-6,-6
48.47,2,-1,1,0,2,-1,2,1
48.475,1,-1,1,-1,0,0,0,-1
48.48,-5,-6,-6,-5,-10,-8,-10,-10
48.485,2,-2,-1,-3,-1,1,2,1
48.49,13,5,3,2,9,13,14,5
48.495,1,2,0,-1,1,1,3,2
48.5,0,-1,0,0,-2,-1,-1,-4
48.505,-5,-4,-2,-2,-8,-3,-8,-4
48.51,-1,0,-2,2,-1,-1,-5,-1
48.515,-5,-2,-2,-4,-6,-9,-4,0
48.52,0,-1,0,1,5,4,4,2
48.525,-5,-1,0,0,-2,3,-2,-5
48.53,-1,-1,0,1,-4,-9,0,2
48.535,6,6,6,7,-4,-1,-3,-2
48.54,-8,-2,-1,-4,-1,-5,-2,-1
48.545,-7,-3,-6,-4,1,2,-2,-3
48.55,-6,-5,-6,-5,-1,-3,-4,-1
48.555,-4,-7,-5,-4,2,-1,-1,-1
48.56,2,-1,-1,-1,0,1,1,-1
48.565,1,0,-1,1,-1,1,0,1
48.57,-2,-1,-1,1,-3,-5,-1,-3
48.575,2,-1,1,-1,3,4,5,2
48.58,-1,-1,-1,1,0,1,-1,0
48.585,-6,-4,-2,-2,1,0,-1,-3
48.59,-1,-3,-3,-2,-3,-1,-2,0
48.595,-3,-1,-1,-2,-3,-2,-4,-3
48.6,0,-1,-1,1,0,-1,-1,1
48.605,1,0,0,-2,1,1,0,2
48.61,-1,-1,-1,0,-1,-1,-1,-1
48.615,-1,-2,-2,-2,-3,0,-2,-3
48.62,2,0,0,-1,-1,1,2,-2
48.625,1,1,-1,2,0,-4,0,0
48.63,1,0,-1,-1,-2,0,-2,-1
48.635,-1,-1,-4,1,2,-2,-1,0
48.64,1,-1,1,-1,-3,-1,-1,-2
48.645,0,1,1,-1,-3,0,-2,-2
48.65,0,-2,0,-1,-2,-2,0,0
48.655,-2,-1,-2,1,0,-1,1,-2
48.66,2,1,0,1,-1,-3,-1,0
48.665,3,-1,1,0,-1,-1,-1,-2
48.67,0,-17,10,0,-2,-1,-4,-1
48.675,6,41,5,0,-2,-1,0,-1
48.68,-4,-4,-2,-2,0,-2,-2,0
48.685,0,-2,-3,-3,-2,-2,0,-1
48.69,-2,2,0,-2,1,-1,-2,-1
48.695,-4,-14,-2,-2,-3,-1,-2,-2
48.7,0,0,-1,-1,1,-2,2,-1
48.705,0,4,0,1,0,0,-1,0
48.71,1,-3,-4,0,0,-1,-2,-2
48.715,-2,-6,-2,-2,-2,-1,0,-1
48.72,-1,2,-2,-3,-2,-1,-2,-2
48.725,-4,-9,-2,-5,0,-1,-1,-2
48.73,-1,2,-3,0,-2,-2,0,0
48.735,2,-6,-1,-1,1,0,0,-2
48.74,-2,0,2,-1,-1,1,-1,0
48.745,1,1,0,0,-2,-2,-1,-1
48.75,-1,3,-2,0,-3,0,-2,-1
48.755,-2,-3,0,-1,0,0,-1,-1
48.76,-1,-2,-1,-2,0,-1,-1,1
48.765,-1,1,1,1,-1,1,-1,1
48.77,1,3,-1,-2,-1,-1,1,-2
48.775,-1,-6,-1,-2,-2,0,-1,-2
48.78,2,2,0,2,-2,-1,-1,-1
48.785,0,3,0,-2,-3,-2,-2,-2
48.79,-1,4,1,-2,-3,-3,-4,1
48.795,1,-11,1,3,-2,0,0,-1
48.8,0,-2,2,-1,-5,-2,-3,-1
48.805,1,1,-1,0,-1,-1,1,-1
48.81,-3,0,-2,-2,-1,-2,-2,-1
48.815,-1,0,-3,-3,-1,-2,-3,0
48.82,-2,1,-1,-4,-1,-1,1,-1
48.825,-1,-5,-2,1,-2,-2,-1,-1
48.83,0,-1,-1,-1,-1,-2,0,-4
48.835,-2,-2,5,-2,-3,-2,-2,-1
48.84,0,-2,11,-1,1,0,0,-1
48.845,-3,1,11,-4,1,0,-1,-1
48.85,-3,1,16,-1,1,0,0,-1
48.855,-4,-2,9,-2,2,0,-2,-1
48.86,-1,-1,29,0,-2,-2,-1,0
48.865,5,-2,7,1,-3,-1,-1,0
48.87,0,-3,5,2,-2,-2,-1,-1
48.875,-1,-1,-34,-2,-2,-3,-2,-2
48.88,-5,-2,-23,-4,0,-1,-1,-2
48.885,-4,0,31,1,1,2,-1,-1
48.89,-2,1,-36,-1,-3,-1,-1,-2
48.895,-2,-1,-34,-1,0,-2,0,0
48.9,-1,0,-32,-3,-2,-1,-1,-2
48.905,-2,2,33,0,0,-2,0,1
48.91,1,-4,36,0,-3,0,-1,0
48.915,-1,-1,2,-1,-2,-2,-1,0
48.92,0,-4,-54,-3,-1,-1,-1,0
48.925,-2,-5,-81,-2,1,-1,-1,-2
48.93,-3,-2,-37,-4,0,0,1,0
48.935,-2,-6,-54,-1,-1,2,-1,1
48.94,-1,-2,21,-3,-1,0,-2,-2
48.945,-3,-4,-9,-1,0,-1,0,-1
48.95,-4,-3,19,-2,0,-1,0,0
48.955,-1,-3,13,-2,-2,0,-1,0
48.96,3,-1,49,3,-1,-1,-1,-1
48.965,2,1,38,1,-4,-1,-3,-2
48.97,3,2,25,0,-3,-1,-1,-2
48.975,1,-1,43,-1,-3,-2,1,-1
48.98,0,-2,15,0,-4,-2,-2,-2
48.985,-1,0,6,0,-2,-2,-4,-1
48.99,-4,0,18,0,1,-1,-3,-1
48.995,0,0,19,-2,0,-3,-2,0
49,0,0,19,-1,0,-3,0,-2
49.005,-2,1,-22,-2,-3,-2,-2,-1
49.01,-2,0,-57,0,-3,0,0,-2
49.015,2,-3,-40,-6,1,0,-1,0
49.02,0,-6,-96,-26,3,2,1,-3
49.025,-2,-7,-42,-28,2,0,0,-1
49.03,-6,-4,28,-12,0,2,2,0
49.035,2,1,80,5,-2,0,0,0
49.04,3,1,73,13,-3,-2,1,0
49.045,4,3,33,11,-3,-2,-2,-2
49.05,-3,-1,-23,4,-2,-2,-3,-2
49.055,-3,0,-10,16,-3,-2,-2,-2
49.06,-1,1,-1,34,-3,-3,-2,-2
49.065,2,4,15,61,-5,-3,-2,-2
49.07,2,3,-1,33,-5,-3,-3,-1
49.075,5,1,-9,3,-3,-4,-2,-3
49.08,-5,-1,19,-30,0,-4,-2,0
49.085,-5,0,58,-41,-1,-2,-1,0
49.09,-3,-2,31,-42,-3,-2,0,-1
49.095,-2,-1,-45,-29,1,-1,-1,0
49.1,2,0,-53,-13,0,-3,0,-2
49.105,-1,-4,-69,-26,2,0,-1,0
49.11,13,-2,-71,-26,3,0,-1,1
49.115,13,-4,-29,-19,1,1,0,-2
49.12,8,-4,8,-11,-1,1,-1,0
49.125,2,-2,0,-10,1,1,-1,-2
49.13,-9,-1,-4,-3,0,0,1,-2
49.135,-8,-1,31,10,-1,2,-4,0
49.14,-11,-1,40,28,-1,-1,0,-2
49.145,-5,0,43,25,-1,2,-2,-2
49.15,-3,0,23,23,-1,-1,-3,1
49.155,-4,1,17,14,-3,-1,0,-1
49.16,-5,1,10,6,-2,-2,-2,-1
49.165,-8,-2,0,-4,-1,-1,0,-2
49.17,-6,2,-12,3,-1,-3,1,-2
49.175,4,-1,-5,1,-3,-2,0,1
49.18,20,2,-4,-4,-2,-3,-1,0
49.185,15,0,0,-4,-2,-4,0,-2
49.19,-1,-2,-14,-1,-1,-2,-2,-3
49.195,-14,-2,-4,-3,-3,-1,-1,-1
49.2,-13,0,4,-6,-2,-1,-1,-1
49.205,-4,0,1,-4,-1,-1,-1,-1
49.21,-2,0,-1,2,0,0,-2,0
49.215,-4,-3,5,0,-2,-1,-3,-3
49.22,0,-2,5,-2,-2,0,0,-1
49.225,-1,0,7,-2,-1,-2,-2,-1
49.23,-5,-3,-2,0,-1,-3,-1,-1
49.235,-2,-1,2,-3,1,-2,0,0
49.24,-4,-2,-4,-2,-1,-1,-2,-1
49.245,1,0,-5,0,-3,0,-2,0
49.25,3,-2,-1,-1,-2,-1,0,-1
49.255,6,1,-6,-1,-2,-3,0,-1
49.26,1,-3,-11,-2,-1,-2,-2,0
49.265,-4,-3,-18,-1,1,-1,-2,-1
49.27,-5,-2,-27,-2,0,0,-4,-1
49.275,-3,-2,-14,0,0,0,0,-3
49.28,-3,-5,7,-2,0,1,-1,-1
49.285,0,-4,-16,1,-1,-2,0,-1
49.29,0,-5,-12,-2,-2,-1,-1,0
49.295,-14,-1,-10,-3,-1,-1,-1,1
49.3,-4,-5,-5,-3,1,0,0,-1
49.305,-3,-5,4,-1,0,0,-2,0
49.31,2,-3,4,-3,0,1,0,-3
49.315,3,-2,2,-3,0,2,0,0
49.32,-5,-2,6,-2,-3,-1,-7,-7
49.325,5,1,7,0,-6,-1,-6,-3
49.33,20,12,1,4,3,-6,9,8
49.335,16,6,-6,2,1,5,4,1
49.34,-1,4,-16,-3,-4,-4,-9,-7
49.345,-9,-1,-8,-4,-8,-4,-6,-7
49.35,4,-5,10,4,6,-2,6,8
49.355,-1,-5,11,0,5,7,8,3
49.36,-1,-7,6,-2,0,0,1,1
49.365,-4,-6,5,-8,-1,1,-6,-3
49.37,-8,-4,-2,-8,-3,-3,-8,-8
49.375,-1,1,0,-1,0,-3,0,-1
49.38,5,7,10,6,0,2,1,-2
49.385,3,8,14,6,-7,-5,-2,-1
49.39,-2,4,12,5,-6,0,-1,-1
49.395,-16,-7,-9,-10,1,-3,-4,-1
49.4,-9,-5,-1,-6,4,0,1,1
49.405,0,-3,8,-1,4,3,5,2
49.41,1,3,14,2,-1,3,-1,-2
49.415,6,3,25,3,-8,-4,-6,-4
49.42,4,1,26,6,-6,-4,-1,2
49.425,1,7,33,7,2,1,4,2
49.43,0,11,27,15,-5,-1,-4,-4
49.435,0,8,31,29,-4,-5,-6,-4
49.44,5,14,61,93,0,-4,1,-1
49.445,10,15,67,121,-4,-3,-1,-2
49.45,7,15,112,127,-11,-4,-7,-4
49.455,9,-5,-86,-3,-8,-9,-6,-3
49.46,-7,-34,-109,-104,-1,-4,-3,-1
49.465,-21,-48,-92,-128,11,2,0,2
49.47,-20,-38,3,-128,16,8,2,0
49.475,-3,-8,115,-62,11,8,7,2
49.48,8,15,101,81,-1,8,3,2
49.485,-1,16,46,108,-9,-1,-5,-6
49.49,5,8,0,127,-9,-4,3,2
49.495,10,10,15,116,11,11,15,11
49.5,1,-4,-24,47,-5,3,1,-3
49.505,1,-5,-2,45,-2,-1,-2,-3
49.51,-5,-5,-38,2,-9,-3,-10,-7
49.515,-5,-2,-24,0,-9,-10,-10,-5
49.52,-2,8,-4,-18,1,-4,-1,1
49.525,1,10,-10,-21,1,2,-2,1
49.53,-1,2,-21,-40,2,-2,-1,-2
49.535,1,2,2,-7,-2,-5,-2,-4
49.54,-2,0,6,-4,-1,2,-1,-2
49.545,4,5,22,-25,-4,-2,-1,1
49.55,3,-7,0,-21,3,-1,1,2
49.555,-7,-13,16,-14,3,1,-1,-2
49.56,2,0,-19,-8,-1,-1,2,-2
49.565,4,-8,-42,-17,5,1,3,1
49.57,-4,-4,-48,-16,2,3,1,1
49.575,-2,-2,-19,6,-4,-1,-4,-3
49.58,4,-5,18,1,-7,-3,-3,-2
49.585,3,2,18,-1,-7,-4,0,-2
49.59,1,3,12,5,-7,-5,-5,-2
49.595,-2,1,6,2,-6,-4,-5,-3
49.6,0,5,0,-1,0,-2,2,3
49.605,-1,4,8,15,-1,-2,0,-1
49.61,-3,0,1,18,-4,-2,-3,-4
49.615,-8,-3,-5,21,-6,-6,-6,-5
49.62,-11,-7,0,-29,-4,-5,-8,-5
49.625,0,-1,-1,-69,4,0,5,6
49.63,-1,1,-1,-62,6,3,7,3
49.635,3,-1,2,-26,-2,1,1,-2
49.64,5,-1,1,13,-2,-2,-3,-3
49.645,0,-6,-1,31,-5,-3,-4,-5
49.65,-2,-5,-8,29,-5,-5,-5,-2
49.655,3,-1,0,23,3,-3,1,1
49.66,2,-2,-2,12,1,-2,2,0
49.665,-4,-6,-10,1,2,-2,-1,-1
49.67,-2,-1,-5,1,2,3,3,-1
49.675,-3,-1,-2,0,-3,0,-2,1
49.68,-3,-2,-2,-6,-1,-2,-3,-1
49.685,-3,-1,1,-2,0,0,-1,0
49.69,-3,0,-4,0,1,0,1,-3
49.695,-2,-2,-1,-6,-1,-2,0,-1
49.7,-2,4,-2,-5,0,-1,1,1
49.705,-3,1,3,-2,0,-1,-2,-1
49.71,-2,-1,2,0,-4,-2,-3,-4
49.715,3,2,2,-5,-3,-1,-1,-1
49.72,-1,1,2,-4,2,-1,1,0
49.725,0,2,2,0,0,-2,0,2
49.73,2,-1,3,3,-3,-1,-4,-1
49.735,-1,0,-3,1,-1,-2,0,-2
49.74,1,2,-2,1,-2,-2,1,-1
49.745,-2,0,-3,2,-3,-2,-1,-3
49.75,0,-1,-3,-4,-2,-3,-1,-1
49.755,3,1,2,-6,-4,-2,-3,-1
49.76,0,0,5,1,-3,0,-2,-1
49.765,1,1,-2,0,-3,-1,-1,-1
49.77,-3,0,-5,-1,-1,-4,-1,-1
49.775,-3,-4,-8,-3,0,1,-1,-1
49.78,-1,-4,-9,-4,0,-1,0,-2
49.785,0,-2,-4,0,0,-1,0,-2
49.79,0,2,1,1,-2,-2,1,1
49.795,-3,-3,-3,-3,0,-3,-2,-1
49.8,-3,-5,-4,-4,-1,-1,-2,1
49.805,-3,-2,-2,-3,1,2,2,0
49.81,-2,-1,-3,-3,0,1,0,-3
49.815,-3,-1,-1,-3,-1,0,-1,1
49.82,-1,-1,2,-2,0,0,0,-1
49.825,1,-2,1,-1,0,0,0,0
49.83,0,-2,2,-2,0,-1,-1,0
49.835,1,-1,1,-2,0,0,0,1
49.84,1,-2,1,-1,-2,1,1,-1
49.845,-1,-1,1,2,-2,-3,-2,-3
49.85,2,0,2,2,-2,-1,1,-1
49.855,1,0,1,1,-4,-1,-1,-3
49.86,-1,-1,0,-1,-1,-5,0,-2
49.865,-1,-1,-4,-1,-2,-3,-2,0
49.87,-2,-2,-4,0,-1,-2,-4,0
49.875,-2,-1,-2,0,0,0,0,0
49.88,1,-1,-2,-3,-3,0,-1,0
49.885,1,-1,-1,-3,0,1,-2,-1
49.89,4,-2,1,0,-2,-3,-2,-1
49.895,-2,-1,1,0,-2,-1,-1,-3
49.9,0,-3,0,-1,-1,-2,-1,-1
49.905,-1,0,0,-1,0,-1,2,0
49.91,-1,-2,0,0,-2,-2,0,-2
49.915,1,-3,1,-3,-1,0,-1,-2
49.92,-1,-1,0,-1,-1,-1,0,-2
49.925,-2,-1,0,-2,-1,-2,-2,-2
49.93,0,-2,-2,-2,-2,-2,-4,-3
49.935,1,1,0,2,1,-2,4,2
49.94,-3,1,-1,0,2,2,-1,-2
49.945,0,-1,0,-3,0,0,-1,0
49.95,2,0,2,1,0,1,-1,-1
49.955,0,-2,-1,-1,-6,-4,-7,-3
49.96,-2,0,0,-1,-5,-3,-6,-3
49.965,3,2,0,1,2,-2,6,3
49.97,0,2,3,0,2,6,4,2
49.975,-1,-1,-1,0,-3,-2,-1,-3
49.98,-1,-1,-2,-2,-3,-2,-4,-3
49.985,-6,-3,-2,-3,-5,-4,-7,-5
49.99,-2,-1,-5,-2,0,-3,-3,-2
49.995,0,1,-2,-1,1,-1,-2,0
50,-2,-2,-2,2,0,-3,-1,-1
50.005,-2,-2,1,-1,1,0,0,-2
50.01,-1,-1,2,0,-1,-2,0,-1
50.015,-1,-2,1,-1,-2,0,0,-1
50.02,-4,-9,5,0,-1,-2,1,-4
50.025,1,11,4,2,0,0,2,1
50.03,-2,1,-1,-4,-1,-3,-1,-1
50.035,-3,-3,-2,0,0,0,-1,-2
50.04,-2,-1,2,-3,2,-1,1,0
50.045,-1,-5,0,-1,-3,1,0,-1
50.05,-3,-3,-2,-1,-4,-3,0,-2
50.055,-1,0,0,-1,2,0,0,0
50.06,3,0,-2,1,3,1,0,1
50.065,-2,-4,-4,-1,-2,0,-3,-3
50.07,-1,-1,-3,0,-2,-1,0,-2
50.075,-3,-2,-4,-2,0,-1,-2,-1
50.08,2,0,-3,-2,-2,1,1,0
50.085,0,-3,0,-2,-3,-3,-3,-2
50.09,0,-3,2,1,-1,-1,0,0
50.095,0,3,0,1,2,0,3,1
50.1,-1,1,0,-1,-2,-2,-2,-3
50.105,0,0,0,0,-3,-2,-2,-2
50.11,0,0,-1,-2,-2,-2,-4,-2
50.115,-2,-1,-1,-3,-1,-3,-1,-1
50.12,2,2,-1,1,-1,1,-1,-1
50.125,-1,-3,-4,1,-1,-1,0,-2
50.13,0,-2,-2,-2,-2,0,-2,-3
50.135,-2,1,0,-2,-1,-1,-3,-2
50.14,1,-1,1,-1,0,-1,-1,1
50.145,3,-1,-2,-1,-2,-2,-1,1
50.15,-2,-1,1,-3,-1,-1,-2,1
50.155,-2,-1,0,0,-3,-1,-1,-4
50.16,-1,0,-3,-2,0,-1,-2,-1
50.165,-3,-2,-2,-1,-1,-1,-1,-2
50.17,0,-1,-3,-1,-2,-1,0,-2
50.175,-2,-1,-2,-1,-3,-2,-1,1
50.18,-1,1,-2,-2,-1,0,-1,-1
50.185,0,0,0,1,1,-1,0,1
50.19,1,0,2,0,0,1,-1,1
50.195,1,-2,1,-2,-3,-3,-1,-3
50.2,-2,-1,-2,-1,-2,-2,-1,-1
50.205,1,-1,0,0,-1,0,-1,-2
50.21,-1,-4,0,-1,-1,-1,-2,-4
50.215,-1,-2,-1,-1,0,0,0,-2
50.22,-1,-1,0,-2,-1,0,1,0
50.225,0,-1,2,0,-2,0,-3,-4
50.23,1,0,1,-1,-2,-3,-1,0
50.235,0,-1,2,-1,-2,0,-2,1
50.24,1,-4,-2,-3,-1,-1,-1,0
50.245,-3,-1,-4,-2,0,0,-1,-1
50.25,-2,-1,-7,0,-1,0,-2,-2
50.255,-1,0,-5,-3,-2,-2,-1,-1
50.26,-2,0,-1,-2,0,-1,-1,1
50.265,0,-1,0,-3,-1,2,-2,-1
50.27,-2,0,1,0,-3,-1,-2,-2
50.275,0,-1,1,1,-1,-3,-2,0
50.28,0,-1,1,-2,-2,-1,0,-2
50.285,0,-2,-1,-3,0,-3,-1,-1
50.29,0,1,1,1,-1,-1,-1,-2
50.295,2,-1,0,1,-2,0,1,-1
50.3,3,0,2,3,-1,-1,-3,-3
50.305,5,2,1,-1,-3,-2,-1,-1
50.31,7,-1,-2,-3,2,-1,1,-1
50.315,30,-2,-2,-3,-1,-1,0,-1
50.32,60,-2,0,-3,-2,-1,-3,-1
50.325,1,-2,2,1,-3,-5,0,-1
50.33,-8,-2,0,1,-2,-1,-2,0
50.335,-31,-1,-2,-1,-2,-2,-4,5
50.34,-33,-1,-3,-1,-1,-1,1,2
50.345,-17,-1,2,1,0,1,2,-2
50.35,-16,1,-3,-4,1,-2,0,-3
50.355,-15,-1,-1,-1,2,0,-1,-3
50.36,-13,-1,3,-1,1,-1,-2,-2
50.365,-3,0,11,0,-3,-2,-2,0
50.37,-4,-1,19,1,-3,-1,-3,-1
50.375,4,3,10,0,-4,-2,-1,-2
50.38,-4,1,1,2,-2,-2,-2,0
50.385,1,0,-7,2,0,1,0,1
50.39,5,-3,-8,-1,-1,-2,-3,1
50.395,2,0,-1,-1,-1,-3,-4,-3
50.4,-4,0,7,-2,-3,-2,-1,-5
50.405,-2,-3,20,-3,-1,-1,-1,0
50.41,2,-1,18,-2,-2,-1,-1,1
50.415,-1,1,4,1,-2,-1,-1,-3
50.42,-4,-2,-3,5,-1,-1,-1,-3
50.425,13,2,8,8,-2,-1,-2,-1
50.43,47,0,68,13,-2,0,-2,0
50.435,36,1,26,13,-2,-2,1,2
50.44,-8,5,8,30,-4,-2,-2,0
50.445,-27,9,-17,47,-5,-4,-2,-2
50.45,-33,16,-70,68,-4,-3,-1,-4
50.455,-19,18,-5,82,0,-2,-1,-3
50.46,-1,7,-73,56,-1,-2,-1,0
50.465,-1,-10,-87,-30,2,-2,2,-2
50.47,-1,-14,-24,-67,6,1,2,1
50.475,4,4,-44,-108,2,2,0,-1
50.48,-7,7,15,-102,-1,1,-3,-3
50.485,-5,5,54,-32,-1,-2,-4,-1
50.49,-4,21,34,-39,0,0,4,3
50.495,-5,2,20,50,-2,1,1,0
50.5,-3,1,10,76,-4,-3,-1,-3
50.505,5,-3,-45,56,-3,-1,-4,-2
50.51,-5,22,-7,-9,-5,-3,-1,-1
50.515,-7,-67,3,-95,0,1,-2,1
50.52,0,-96,-8,-128,1,0,-3,0
50.525,1,-69,9,-128,5,3,5,2
50.53,-4,-42,-7,-122,2,-1,0,0
50.535,-3,-5,16,-50,0,1,-1,-3
50.54,2,12,18,26,0,0,3,-2
50.545,8,34,25,69,-3,0,-1,0
50.55,2,16,-11,105,-2,-3,0,-4
50.555,2,29,-1,103,-1,-2,2,-1
50.56,3,25,26,73,-2,-3,-1,0
50.565,5,23,20,68,-5,-3,-4,-3
50.57,-1,11,-22,42,-6,-6,-7,-4
50.575,-3,-4,-38,15,-4,-4,-3,-2
50.58,0,7,-22,-31,5,3,5,4
50.585,1,7,-18,-95,1,1,1,0
50.59,-4,-12,5,-65,-1,0,-5,-2
50.595,-1,-4,24,-36,0,-1,0,-1
50.6,0,8,29,22,-3,-3,-2,-2
50.605,3,0,24,56,0,-3,-1,-1
50.61,0,-14,6,73,-2,0,-1,-1
50.615,-3,1,-5,52,-3,-3,-3,-4
50.62,1,3,0,23,-2,-1,0,0
50.625,3,-8,7,19,-1,-2,-1,-2
50.63,-1,-5,5,16,0,1,1,1
50.635,-1,3,11,1,-3,-1,-3,-3
50.64,-2,-2,2,-12,-4,-2,-3,-2
50.645,-3,-4,-7,-10,-1,-6,-2,-3
50.65,0,-1,-16,-3,1,-1,-1,-1
50.655,-1,-1,-19,-11,-1,0,1,0
50.66,-1,-1,-35,-11,-1,-1,-3,-2
50.665,-2,1,-33,-12,-2,0,-2,-1
50.67,-2,0,-10,-9,0,0,1,-1
50.675,3,4,8,-4,1,-2,1,2
50.68,0,6,20,-4,-1,-4,0,1
50.685,0,4,25,-2,-1,0,-2,-1
50.69,2,-3,10,0,-2,-3,-3,-4
50.695,-1,-1,-7,-4,-4,-1,-5,-1
50.7,-2,1,-6,-4,-1,1,-4,-2
50.705,0,1,-1,-6,0,2,2,1
50.71,-1,-6,-5,0,-2,-3,-2,-4
50.715,-1,-1,-2,-2,0,0,0,-2
50.72,0,-2,-8,-7,3,1,3,2
50.725,-3,-4,-4,-2,-3,-2,-2,-1
50.73,-2,-2,-21,-5,-1,-1,-1,0
50.735,-1,3,-36,-6,-3,-2,-2,-5
50.74,-4,-4,-26,-12,0,0,-2,-2
50.745,-4,-4,-24,-15,0,0,1,-1
50.75,-1,-1,-1,-4,1,2,3,3
50.755,1,1,21,-1,0,-1,2,0
50.76,0,5,25,7,-3,0,1,-2
50.765,0,2,24,8,-4,0,-3,-2
50.77,0,-1,23,6,-1,0,-4,-2
50.775,1,0,10,5,-2,-2,-3,-1
50.78,0,1,10,5,-3,-1,-1,-1
50.785,0,1,7,4,-2,-3,0,0
50.79,0,0,2,1,-5,-4,-3,-3
50.795,-1,-2,-1,-3,2,0,-1,0
50.8,1,1,-3,-2,-3,-3,-4,-1
50.805,-2,-3,-4,-3,0,-3,-2,-2
50.81,-3,-2,-1,-5,-1,1,1,0
50.815,-1,-1,-2,-3,-1,-1,2,1
50.82,-2,-1,-1,-4,0,-1,1,0
50.825,0,-1,-3,-2,1,-2,-1,-2
50.83,1,-1,1,-1,1,1,4,1
50.835,-4,-3,0,-1,1,1,0,-3
50.84,-1,-4,-1,-3,-1,0,-3,-4
50.845,0,-2,-2,1,-2,-1,0,1
50.85,-3,-4,-3,-5,0,-3,-3,0
50.855,-3,-1,-2,-1,-1,-1,-1,0
50.86,0,0,0,0,1,0,-2,1
50.865,-2,-1,-5,-2,0,-2,-2,-3
50.87,1,1,-1,3,-3,1,-2,-1
50.875,1,-1,0,-1,-3,-2,-2,-2
50.88,-3,-2,-1,0,-3,-3,-1,-1
50.885,0,-1,2,2,-4,-1,0,1
50.89,4,3,0,0,1,1,2,1
50.895,-1,-3,-2,-2,-4,-2,-3,-1
50.9,3,-1,0,3,-1,0,0,-1
50.905,2,-2,0,0,-4,-3,-4,-5
50.91,-5,-3,-1,-2,-4,-4,-4,-4
50.915,-2,-2,-3,-3,0,-1,2,0
50.92,1,1,0,-1,1,-1,1,1
50.925,-3,-2,2,-1,2,0,-1,0
50.93,-1,-2,5,-2,0,0,-2,-2
50.935,-2,0,-1,-1,-3,-2,-5,-1
50.94,1,0,-7,-1,-2,-2,0,-1
50.945,-3,-1,-8,-2,-1,-1,1,0
50.95,-1,-1,-3,-2,-1,-3,-1,-1
50.955,1,1,23,3,2,3,2,1
50.96,2,0,21,0,-2,-2,-1,-2
50.965,1,0,-25,0,-2,-2,0,-1
50.97,-2,-1,-34,1,-1,-1,-1,-1
50.975,-1,-2,-30,0,-1,-3,1,-2
50.98,0,0,-7,-3,1,1,1,1
50.985,0,-1,13,3,-1,0,-1,-2
50.99,1,-1,19,2,-2,-1,-3,-2
50.995,2,-1,28,0,-4,-2,-4,-1
51,-4,-1,7,-3,-3,-6,-2,-2
51.005,-2,-5,-33,-8,0,-2,-2,-2
51.01,-4,-2,-26,-3,-2,-3,-3,0
51.015,-1,0,-6,0,0,-2,0,-2
51.02,1,2,13,1,0,4,4,2
51.025,1,1,25,-2,1,0,1,2
51.03,2,1,18,1,-3,-2,-1,-2
51.035,1,0,6,-3,0,0,-4,-1
51.04,1,0,-9,1,-3,-3,-4,-4
51.045,0,2,2,2,-3,-1,0,-2
51.05,0,-2,5,0,-3,-1,-3,-3
51.055,-1,2,1,1,-3,-5,0,-12
51.06,-1,-3,-4,-2,-1,-1,-6,20
51.065,2,0,3,-2,1,1,3,-3
51.07,-1,1,4,0,-1,-2,0,-1
51.075,0,0,-7,-2,-2,0,1,-1
51.08,-2,-3,-9,0,-3,-1,-3,-10
51.085,0,-2,1,2,1,5,-10,1
51.09,-2,-3,5,-2,-5,-6,26,-3
51.095,0,1,0,6,2,7,13,-31
51.1,-5,-4,-7,-4,-3,-13,-35,-60
51.105,2,1,5,1,3,6,21,-16
51.11,2,12,26,18,4,30,26,-56
51.115,1,-8,-28,-19,-8,-40,-11,52
51.12,7,5,15,2,-4,-11,-29,-55
51.125,2,6,21,13,-2,19,-9,-116
51.13,2,6,5,13,-3,-4,-15,-20
51.135,-3,-1,-15,2,-5,3,-16,-46
51.14,-3,2,-8,2,-1,11,59,4
51.145,-15,-12,-10,-20,-9,-44,-106,-85
51.15,12,4,35,8,11,17,20,-86
51.155,-10,-6,10,-1,-5,-8,0,36
51.16,-2,4,-5,8,-1,6,-38,-53
51.165,0,-1,1,2,-2,10,67,88
51.17,-2,-7,-25,-13,-2,-21,-17,73
51.175,6,3,1,-3,3,11,2,17
51.18,0,-2,5,4,-2,0,14,-12
51.185,0,0,6,2,1,3,24,69
51.19,-6,-7,-8,-7,-4,-7,-10,-46
51.195,1,-1,-30,-6,0,3,-2,4
51.2,-11,5,-12,1,-1,-2,6,-63
51.205,-7,-6,-13,-5,2,3,-8,-15
51.21,3,-20,-13,-18,-6,-5,18,47
51.215,0,1,53,25,2,-1,-35,-7
51.22,-26,-51,-16,-19,-6,5,33,103
51.225,-5,-12,-6,-10,-17,-44,-29,-89
51.23,-2,-13,17,1,13,5,-11,82
51.235,1,-15,-4,3,2,18,70,0
51.24,15,3,-6,-7,-7,-1,-22,-31
51.245,2,31,14,2,0,-4,-28,100
51.25,-19,24,-41,17,-6,-2,18,29
51.255,-16,25,2,-15,-10,-35,-81,-62
51.26,9,33,21,-2,9,11,-1,45
51.265,-1,-3,-32,3,-5,15,43,60
51.27,21,26,106,7,-1,-23,-28,-3
51.275,8,1,-43,-4,1,11,-3,-46
51.28,5,-2,2,6,-4,-19,2,30
51.285,10,-5,-13,-3,2,2,-1,-22
51.29,-42,-8,1,7,6,5,-7,58
51.295,0,10,17,0,2,21,26,-18
51.3,-16,-10,-8,-7,-8,-31,-3,9
51.305,6,-10,-30,14,16,13,2,92
51.31,0,8,18,-52,-29,-18,-16,-37
51.315,3,1,9,8,4,3,1,-17
51.32,2,7,-18,0,7,18,15,-4
51.325,15,5,25,0,0,0,9,26
51.33,-17,-16,-35,1,-3,-7,30,-56
51.335,24,7,19,-3,-4,-10,2,38
51.34,6,-1,17,1,4,3,3,-20
51.345,-21,-4,0,-1,-5,-8,-12,24
51.35,23,-37,-43,-8,5,6,-17,-21
51.355,2,-29,46,-12,-7,-3,18,50
51.36,5,-54,-23,4,-3,-1,-3,29
51.365,3,-67,47,-6,-1,6,5,-40
51.37,23,-16,-28,7,5,26,19,8
51.375,-1,28,-3,12,3,-6,-9,-48
51.38,11,95,-40,5,14,25,16,32
51.385,-28,72,2,-53,-37,-25,-28,-15
51.39,-5,34,24,-22,-5,-6,-17,-24
51.395,-5,-24,-28,12,11,18,-3,-56
51.4,37,1,31,-28,-9,-16,5,26
51.405,-78,-13,-24,27,5,12,16,-93
51.41,16,8,-5,30,7,19,7,-18
51.415,-72,-43,40,5,-5,0,20,111
51.42,66,42,-53,-28,-5,-1,-10,-55
51.425,-51,-15,16,5,0,-14,13,-1
51.43,-14,-16,-18,-6,-3,-12,-14,17
51.435,-25,-12,-22,23,1,9,-15,-40
51.44,-18,-30,32,15,-11,-7,3,5
51.445,31,8,17,12,7,9,12,-27
51.45,3,13,-18,-25,1,5,-12,11
51.455,-8,39,-19,1,2,-6,3,52
51.46,-54,94,13,14,-7,-7,-16,-63
51.465,18,-44,2,3,-5,-7,-17,-53
51.47,16,-90,-7,22,-1,-5,-4,-49
51.475,-34,-31,-4,-3,-8,-5,-3,10
51.48,-16,-2,1,-2,-5,-14,-36,-54
51.485,-7,-46,-28,-8,8,14,19,56
51.49,-10,-76,-21,17,2,-19,-18,-5
51.495,78,-43,26,-28,-1,0,3,2
51.5,7,-66,19,-11,4,9,8,30
51.505,35,39,0,6,0,6,16,0
51.51,-7,26,16,1,0,-1,2,33
51.515,-6,48,-24,2,-4,-5,-2,-51
51.52,-37,-7,6,-5,-3,-4,-6,35
51.525,2,4,-10,3,14,9,5,28
51.53,-111,47,49,-14,-23,-14,-4,-9
51.535,117,11,-1,-9,5,3,2,-5
51.54,111,-14,-10,17,10,7,5,13
51.545,97,3,-10,-6,0,-1,0,7
51.55,-64,-3,-33,-20,-4,1,-11,2
51.555,-88,-17,-11,-27,2,2,0,3
51.56,-117,-63,8,-17,4,4,5,-9
51.565,-77,-34,-15,-12,-2,2,-9,11
51.57,60,20,3,-5,5,7,26,-22
51.575,-30,4,-2,7,-11,-6,-6,-63
51.58,-14,47,-4,9,0,-9,-13,17
51.585,23,75,9,3,-6,-5,-6,-29
51.59,-18,44,11,8,0,6,18,36
51.595,-63,8,-6,-4,-5,4,19,-10
51.6,4,-19,-22,-21,-3,-14,-12,43
51.605,-2,6,-11,-2,3,-5,-10,-49
51.61,-16,35,43,-23,-13,-14,-8,-2
51.615,15,8,-28,1,1,-1,-6,7
51.62,-87,24,-45,14,-3,7,25,39
51.625,39,-11,-45,3,-2,9,29,39
51.63,120,4,0,22,2,-10,-25,-109
51.635,-5,-29,-33,10,-1,-11,-24,-1
51.64,36,-21,49,5,-4,-1,-10,-34
51.645,-59,-17,10,12,-5,-2,5,9
51.65,-26,-32,-51,7,3,7,4,-4
51.655,-20,21,27,16,-1,5,18,-6
51.66,59,23,17,4,3,4,9,-13
51.665,18,5,-4,-14,-4,-9,-22,28
51.67,-1,-60,-15,-7,0,-6,-34,28
51.675,82,-32,28,-4,4,3,6,-13
51.68,64,-30,-3,-1,-3,4,-2,-43
51.685,12,-11,18,-8,-8,-13,-41,-116
51.69,-31,-13,-14,0,4,-7,-16,31
51.695,-33,3,29,-41,-15,-5,6,50
51.7,-31,-21,3,7,-4,3,4,-19
51.705,17,-1,0,5,5,2,5,6
51.71,22,23,8,-7,1,10,18,33
51.715,5,-11,-19,8,-5,-10,-20,-16
51.72,4,19,-2,-9,1,0,-4,72
51.725,-25,39,22,-3,-9,-13,-8,-50
51.73,3,24,-1,0,-4,-3,6,-26
51.735,21,27,-6,6,9,6,5,20
51.74,-18,4,1,-20,-8,2,11,-32
51.745,-14,-25,-3,20,-12,-11,-11,-41
51.75,23,11,10,-12,-5,-5,-4,17
51.755,-6,9,3,7,-6,-6,-2,-46
51.76,-2,-14,-10,9,6,-2,-3,23
51.765,18,-2,0,-22,2,15,19,44
51.77,7,-8,-12,-3,4,4,4,-11
51.775,-17,-10,-5,-1,-6,-6,-14,39
51.78,-15,-12,-12,0,6,4,5,14
51.785,-5,-15,6,2,-7,-11,-19,-25
51.79,12,9,-9,2,4,8,10,-7
51.795,29,9,7,-5,5,5,6,-3
51.8,5,-9,3,-3,1,3,3,-10
51.805,5,0,3,-1,8,9,12,42
51.81,1,-7,-3,2,-14,-12,-27,-41
51.815,3,-7,-1,-8,-1,-3,-4,9
51.82,-14,-38,-3,0,-18,-18,-27,-31
51.825,-44,44,18,11,3,1,13,16
51.83,-97,3,-5,4,4,4,16,23
51.835,-81,1,-7,1,5,5,2,-10
51.84,-71,2,-12,-38,-1,11,-2,50
51.845,-36,-17,-9,4,19,13,6,28
51.85,100,-11,-9,8,-12,-14,-8,-19
51.855,59,20,7,30,-23,-19,-10,-30
51.86,76,8,23,1,9,12,20,-9
51.865,43,-10,-16,7,7,1,0,2
51.87,15,-18,2,-11,7,11,4,12
51.875,35,-2,-14,-19,10,15,15,-5
51.88,4,-10,-7,-1,3,-1,-7,50
51.885,-19,-31,-7,-15,-7,-3,-4,-2
51.89,-3,-5,-2,13,8,-1,1,-9
51.895,-13,11,0,9,-16,-13,-10,-11
51.9,-51,30,8,5,-7,-2,6,-22
51.905,0,22,9,-1,11,6,-2,11
51.91,-12,5,-7,-18,-8,15,12,1
51.915,-31,4,17,-9,-18,-16,-26,-18
51.92,19,18,8,13,3,-3,11,-5
51.925,11,-9,13,6,-11,-3,-5,4
51.93,-34,-24,23,19,20,7,-3,-16
51.935,7,33,-18,-27,-7,-4,-5,9
51.94,12,-10,-4,10,-6,-6,-8,-19
51.945,-12,-9,-7,-12,-9,-6,-4,-23
51.95,-14,4,-2,-6,-11,-5,-5,-11
51.955,4,-16,0,-16,8,10,4,2
51.96,-8,-17,-20,8,11,-7,-10,-16
51.965,-1,0,-4,12,-32,-18,0,-6
51.97,1,8,7,-2,-16,-10,4,39
51.975,2,2,28,-5,5,5,6,14
51.98,4,0,-10,-15,9,12,8,-13
51.985,2,-4,18,-23,7,21,4,1
51.99,14,14,-53,16,-8,-25,-22,10
51.995,-25,-40,-10,24,-14,-21,-20,-22
52,-25,-24,-2,9,6,-2,-13,-44
52.005,31,23,-2,-18,4,0,-1,10
52.01,-21,2,-39,-30,3,26,16,-33
52.015,4,-6,18,42,3,-25,-5,10
52.02,-11,-3,2,15,-9,-6,-5,-21
52.025,-4,-23,-28,-16,-10,-1,3,-28
52.03,0,-3,8,-5,9,6,-3,-34
52.035,24,2,-13,-2,17,14,5,-3
52.04,-12,-1,-11,-26,-10,-1,12,19
52.045,23,6,14,13,27,-3,-9,26
52.05,11,20,10,-19,-19,8,20,71
52.055,1,-6,6,21,-12,-16,-15,-1
52.06,12,3,4,9,-1,-4,-3,-11
52.065,-24,3,-9,-5,1,4,-3,-53
52.07,18,8,3,-9,-4,4,9,16
52.075,-22,-1,7,6,10,8,12,-21
52.08,10,2,0,2,-14,-6,-5,17
52.085,13,13,4,-3,11,4,9,72
52.09,-10,-6,25,22,1,-11,-16,-43
52.095,9,23,-23,-23,9,24,28,28
52.1,21,-2,3,-5,-4,-12,-33,-36
52.105,-25,-17,-11,-1,-16,-7,-4,-24
52.11,-8,-3,12,7,-6,-4,2,-14
52.115,23,-14,-22,-23,-4,-1,-11,30
52.12,-12,0,18,5,4,-1,4,4
52.125,-15,-11,-5,9,-12,-20,-15,12
52.13,-48,-16,-17,-9,2,-2,-11,-51
52.135,8,9,10,-13,-2,5,11,15
52.14,15,-2,-19,-3,7,1,1,4
52.145,-29,0,13,16,-7,-3,2,13
52.15,-13,-39,37,18,-3,-26,-28,15
52.155,-22,16,7,-25,-6,-4,-25,39
52.16,13,27,-9,0,-1,4,7,19
52.165,8,-10,-8,6,6,-4,-3,-21
52.17,46,20,6,-6,11,12,13,25
52.175,-9,-38,-8,-7,-14,-19,-29,-86
52.18,7,-1,9,10,-21,-20,-2,59
52.185,54,26,14,9,9,5,10,-4
52.19,6,15,4,16,20,4,16,1
52.195,-15,-9,-9,-6,8,20,11,34
52.2,14,10,-7,-1,2,5,11,37
52.205,-32,-24,-15,-21,-18,-7,-19,-33
52.21,37,13,-1,2,2,-9,6,57
52.215,-36,8,7,6,0,-1,11,-20
52.22,11,-2,10,6,18,14,9,18
52.225,2,-12,-4,-6,-16,-11,-4,27
52.23,3,4,-12,-21,-13,-4,-17,3
52.235,26,15,1,10,18,15,30,49
52.24,-59,-35,-4,-19,4,14,-11,-70
52.245,74,33,9,-13,9,25,42,62
52.25,-39,-18,-3,25,-57,-54,-47,-107
52.255,-12,-10,-12,-11,-8,-10,-2,25
52.26,7,-5,12,-4,-3,-4,9,-21
52.265,35,29,-9,-30,62,45,6,9
52.27,-8,26,15,17,5,26,33,111
52.275,6,-2,1,-7,-86,-54,-14,28
52.28,0,1,2,1,15,3,0,-26
52.285,-30,-22,-6,9,-9,-5,-1,-39
52.29,12,24,-23,-28,69,17,12,50
52.295,10,-10,9,10,-27,13,-21,-54
52.3,-12,-9,-10,9,24,-13,-8,-13
52.305,7,-9,-9,-12,-90,-19,-9,-9
52.31,-8,-24,-15,-19,-8,5,11,-16
52.315,12,-1,-3,14,60,7,12,49
52.32,-18,7,-10,47,95,30,9,55
52.325,-7,-2,-3,-11,-79,8,-10,-34
52.33,-12,-21,7,19,30,-55,-12,-29
52.335,24,13,-20,2,85,38,22,-14
52.34,-3,1,6,-55,-121,19,33,-49
52.345,-68,-47,-22,42,74,-77,-68,-101
52.35,-2,11,16,37,23,-2,-3,-1
52.355,13,-13,3,113,57,7,4,-24
52.36,5,38,15,88,21,8,-1,7
52.365,-7,-21,11,-104,-34,28,22,27
52.37,15,40,-29,-128,-50,-2,-14,-2
52.375,-21,0,-3,-128,5,0,2,-16
52.38,2,-1,38,-128,-37,-6,-14,8
52.385,33,25,-24,-45,19,1,17,55
52.39,-10,-8,2,-15,-4,34,21,47
52.395,-17,-22,3,21,-9,-20,-11,-19
52.4,0,-26,-5,-44,-28,-19,-12,12
52.405,23,21,-5,11,30,-10,-5,96
52.41,7,-26,-1,46,21,28,15,-37
52.415,-21,4,-18,45,-28,7,-6,20
52.42,37,-20,5,52,-12,-26,-19,-20
52.425,-17,1,4,91,30,-1,1,-5
52.43,-6,-22,-4,57,-13,13,-4,-24
52.435,20,3,10,8,-48,-16,-4,2
52.44,-24,5,-17,32,30,-9,0,11
52.445,-8,0,21,34,25,11,8,-6
52.45,15,11,-12,-16,-26,9,-2,-2
52.455,-11,-13,4,1,0,-34,-21,-51
52.46,5,19,10,27,-9,1,10,2
52.465,4,1,0,2,-16,-8,-11,-31
52.47,-16,-18,23,-4,-3,-13,-21,-28
52.475,15,11,-28,-31,11,16,3,11
52.48,-14,-16,0,-7,-8,-4,-11,-25
52.485,-5,4,19,20,-1,-7,-1,-6
52.49,2,1,-15,-34,10,5,-2,2
52.495,3,1,5,-24,-10,7,6,17
52.5,16,6,-11,2,-41,-26,-3,19
52.505,-11,-4,-3,-7,7,6,8,7
52.51,-3,10,-3,7,32,-1,-9,-3
52.515,-7,2,6,-2,-30,2,4,-31
52.52,-6,-5,-5,4,17,7,0,-7
52.525,2,0,27,-7,20,6,2,42
52.53,15,3,10,6,-26,8,9,5
52.535,1,4,8,-13,25,-2,-3,21
52.54,1,-8,-39,-14,-14,1,-8,-13
52.545,-6,-10,42,-8,-42,-39,-10,-30
52.55,-12,8,19,1,20,4,3,0
52.555,18,16,-51,-10,1,8,5,8
52.56,1,-10,0,-18,12,6,0,4
52.565,5,11,-12,2,12,13,6,4
52.57,-4,-20,1,-4,-21,-14,-1,-17
52.575,-6,-8,11,-8,0,-3,-5,-2
52.58,5,7,4,10,-3,-4,-4,-6
52.585,3,-8,-16,-9,-20,-4,0,-2
52.59,0,6,-4,7,0,-8,1,3
52.595,-7,-7,3,-5,2,7,4,-12
52.6,-8,3,2,-2,15,3,-3,5
52.605,1,-1,-2,-1,-5,1,-3,-2
52.61,-3,-5,-8,-4,-10,-4,0,1
52.615,-7,7,12,1,0,4,14,-37
52.62,0,-6,5,-2,-3,-7,-12,-6
52.625,-2,7,-7,6,-1,1,5,-20
52.63,-4,-3,-9,-2,1,-2,-3,6
52.635,0,-8,2,3,-4,0,-1,-3
52.64,1,4,3,-3,0,-5,2,0
52.645,-5,0,-8,1,5,5,0,8
52.65,0,-1,-1,1,0,-3,-6,-9
52.655,2,-4,5,-2,-6,-4,-7,13
52.66,-3,1,1,-6,1,0,0,9
52.665,-3,-6,6,0,5,4,0,7
52.67,-1,-3,-9,0,-7,-6,-3,3
52.675,-2,-3,0,0,-7,-4,-5,5
52.68,1,6,-4,-2,2,3,2,8
52.685,-3,-9,-2,5,3,2,1,-11
52.69,-1,0,3,-13,-3,-3,-1,-2
52.695,0,1,0,1,0,0,-3,-1
52.7,-1,-6,-2,0,4,0,0,1
52.705,2,4,-2,0,-6,0,0,-1
52.71,0,0,2,-2,-6,0,-1,1
52.715,1,-2,-6,6,-1,-4,-4,8
52.72,1,3,10,-3,0,-3,1,5
52.725,2,5,-6,3,1,0,0,-3
52.73,-2,2,-2,2,-1,-2,-2,0
52.735,-2,-8,-1,-3,-4,0,-1,-1
52.74,3,0,-3,-1,-1,0,-2,2
52.745,-1,3,-6,-3,0,0,0,-6
52.75,-1,-6,-2,1,1,-1,-1,-2
52.755,1,0,2,-3,0,-1,0,2
52.76,-3,-1,1,-2,0,-1,0,2
52.765,-3,0,-4,-5,-3,-2,-1,0
52.77,2,-3,2,3,-3,-2,-3,0
52.775,0,0,2,1,0,-1,-2,0
52.78,-4,-1,-2,-1,0,-1,0,0
52.785,0,-3,-2,-3,-1,-1,-2,-6
52.79,-3,0,2,1,-1,-2,-1,1
52.795,-1,0,3,-1,1,0,3,2
52.8,-1,-5,-2,4,1,3,1,0
52.805,5,-2,0,-4,-2,0,-1,-1
52.81,-3,-4,-2,-3,0,-1,-1,-2
52.815,-3,-5,0,-5,-1,-1,-5,0
52.82,-3,-6,-10,-10,-2,-2,-2,-1
52.825,-1,-2,-1,1,1,0,-2,-3
52.83,13,0,1,2,-1,0,-1,0
52.835,17,-2,0,4,-1,1,1,0
52.84,29,5,4,0,-2,-2,-1,-1
52.845,9,3,1,2,-4,-3,-1,-2
52.85,-2,3,3,2,-3,-4,-3,-3
52.855,18,7,0,1,-5,-3,-2,2
52.86,10,9,4,4,-3,-4,0,-1
52.865,19,10,1,1,-6,-5,-1,0
52.87,-1,7,1,1,-1,-2,-2,-1
52.875,-10,5,-2,-5,-1,-3,-5,-2
52.88,-7,5,-3,-4,-4,-8,-5,20
52.885,-35,10,-4,-6,2,-2,2,-4
52.89,-18,13,8,13,10,16,10,8
52.895,-12,-4,9,3,0,-1,-2,-2
52.9,-2,-7,7,1,1,0,4,3
52.905,-14,-17,7,-1,-6,-4,1,3
52.91,10,-31,-24,-21,-8,-9,-22,-13
52.915,-16,-14,-11,-4,0,-1,-3,-5
52.92,-16,6,-4,-1,5,6,11,0
52.925,7,-50,-11,-5,0,1,-2,1
52.93,-14,-42,0,-1,-2,-3,4,-6
52.935,-29,-16,-6,-5,-3,-1,0,-3
52.94,-28,-6,-3,-3,-3,-3,-6,1
52.945,-21,13,4,1,1,2,4,-11
52.95,12,17,1,1,-3,-2,0,4
52.955,30,12,3,2,-2,-2,-3,1
52.96,20,14,2,-1,1,2,2,-2
52.965,14,16,-3,2,0,1,-1,-4
52.97,12,4,-1,-8,-4,-4,-2,-8
52.975,4,-1,7,2,0,1,-1,1
52.98,4,28,16,3,-1,0,-1,-1
52.985,2,-4,-4,-10,-3,-2,-5,-24
52.99,-4,8,-1,0,-1,-4,0,2
52.995,-10,4,-1,-2,0,-1,4,-5
53,-2,-10,-3,2,0,1,0,-3
53.005,5,2,0,3,0,0,-2,3
53.01,-8,13,3,4,-2,-2,-1,-10
53.015,-3,1,-1,-3,-2,0,4,6
53.02,-5,-13,-5,-2,-3,-2,-3,-9
53.025,-5,8,-5,-1,1,-1,-3,0
53.03,-3,-1,-2,0,-3,-2,-3,4
53.035,-14,-6,-6,-1,-3,-4,-6,-7
53.04,-3,-9,-4,-2,-4,0,6,3
53.045,6,6,3,3,3,0,-15,3
53.05,-2,1,3,0,0,2,4,10
53.055,1,-2,-4,-3,0,-2,-6,-12
53.06,-6,-5,-5,-4,-2,-3,-6,4
53.065,-2,-2,-2,-2,1,-1,6,3
53.07,0,-1,1,-1,-1,1,0,0
53.075,3,1,0,-3,-2,-1,-2,7
53.08,-4,-12,-5,-2,-1,-1,-3,-10
53.085,0,-5,-2,0,-1,-1,1,4
53.09,-2,-4,1,-2,-1,-1,-2,-1
53.095,-1,0,0,1,0,0,3,-4
53.1,2,-5,-1,0,-2,-2,-4,-3
53.105,4,-1,0,0,-5,0,1,1
53.11,1,-2,-1,2,-3,0,0,-4
53.115,0,-2,-1,-1,0,-2,-2,2
53.12,1,-3,-2,1,-2,-1,-3,-5
53.125,-1,-1,-1,-1,-3,-3,-5,2
53.13,-2,-1,-4,-2,-1,-2,1,0
53.135,5,2,1,2,3,0,6,5
53.14,-1,0,-2,-3,-1,-1,-2,-5
53.145,-2,1,0,0,-5,-4,-1,-2
53.15,-3,-1,-3,-3,-1,-5,-4,-2
53.155,-3,-1,-3,-3,2,2,2,-1
53.16,0,-3,-3,-6,-1,1,-3,-7
53.165,-3,-1,-2,0,-3,-1,4,1
53.17,11,9,5,7,-3,-3,5,4
53.175,2,2,-1,-2,0,1,0,10
53.18,1,-1,-1,1,0,-4,-4,-1
53.185,4,-2,0,-4,-1,1,-5,-1
53.19,4,-3,-2,0,-2,-4,-8,-8
53.195,8,1,1,0,-3,-2,0,2
53.2,5,0,-1,-2,-1,1,-2,-9
53.205,-4,-3,-4,-2,-3,-5,-3,-3
53.21,-12,0,-2,-3,-1,2,5,6
53.215,-2,5,2,4,0,-1,3,-3
53.22,-3,1,1,2,1,-1,-1,-2
53.225,0,4,-3,-2,1,1,0,0
53.23,-8,-9,-1,-4,-2,-1,-1,-5
53.235,3,-3,-14,-6,-2,-1,-4,1
53.24,11,-6,2,2,-2,-5,-1,1
53.245,35,-4,2,1,1,0,3,1
53.25,21,-3,-2,-1,-2,0,-3,8
53.255,-3,-5,0,-1,-2,-6,-8,-14
53.26,-19,0,-2,-2,-2,-1,0,2
53.265,-33,0,-2,1,2,2,-1,-5
53.27,-23,-2,-1,2,-2,-3,-1,-5
53.275,-12,-2,1,-2,0,1,3,1
53.28,-8,3,-1,-6,1,0,2,3
53.285,-6,-2,1,3,1,0,5,6
53.29,1,6,0,-3,3,5,1,-10
53.295,-2,5,2,2,-6,-5,-6,-9
53.3,8,2,-1,-2,-2,-2,-2,8
53.305,0,-6,-3,-4,-4,-3,-7,-15
53.31,2,-6,0,-1,-2,-3,-2,-1
53.315,9,-6,0,-5,-4,-3,-6,-5
53.32,15,-3,1,0,1,0,0,-3
53.325,25,1,1,1,4,1,5,9
53.33,15,0,-4,1,1,4,4,9
53.335,0,-4,0,1,-10,-10,-12,-22
53.34,-11,-1,-2,-3,-5,-3,-2,1
53.345,-18,9,5,6,4,9,12,13
53.35,-20,6,6,0,5,3,3,-5
53.355,-8,1,-1,-3,1,2,2,0
53.36,-21,-6,-6,-1,-3,-3,-7,-21
53.365,-14,-7,-8,-8,-7,-9,-12,-9
53.37,-6,-2,-4,-7,-1,-2,0,2
53.375,5,2,-1,3,3,5,6,19
53.38,4,-2,0,3,7,-1,9,5
53.385,1,-3,0,-3,-1,6,0,-2
53.39,5,-3,0,-2,-5,-3,-8,7
53.395,3,-5,-3,-5,-4,-2,0,27
53.4,3,1,2,3,3,-1,6,8
53.405,4,3,3,3,1,3,4,-12
53.41,2,-2,-2,0,-4,-2,-2,3
53.415,-5,-1,-1,-4,-2,1,-3,-2
53.42,-2,-3,-5,-4,-6,-2,-10,-12
53.425,1,-3,-2,-3,-2,-8,-4,13
53.43,0,-2,-3,-2,-2,-1,-4,-11
53.435,-2,-4,0,-2,-1,-1,-1,-11
53.44,9,2,2,1,3,2,5,9
53.445,2,1,-2,-1,-1,1,0,-3
53.45,-2,-2,-2,-2,-2,-2,2,-5
53.455,0,-2,-1,0,-2,-3,-1,-7
53.46,8,-2,-3,-6,-5,1,-6,-4
53.465,6,1,0,-1,-4,-6,-6,-7
53.47,2,-3,-3,-1,-3,3,-2,-7
53.475,2,4,3,3,6,2,10,3
53.48,4,3,3,5,3,5,5,5
53.485,2,-4,-3,-3,-5,-5,-5,-9
53.49,21,-2,-1,0,-2,-6,-6,-7
53.495,6,-1,-4,-2,-2,-4,-5,-2
53.5,-16,-2,-1,0,-4,-5,-3,-1
53.505,-28,-3,-3,-3,0,0,-4,1
53.51,-27,-2,-3,-5,-4,-3,-6,-2
53.515,-15,-3,-2,0,-5,-7,-4,1
53.52,11,7,6,5,13,13,14,7
53.525,-4,-4,-2,-1,-3,5,5,13
53.53,-1,-3,-2,-4,-3,-6,-5,-11
53.535,-6,-5,-4,-5,-3,-2,-6,26
53.54,6,-3,-2,-2,-4,-3,0,-13
53.545,6,0,0,-1,-2,-2,-4,-14
53.55,5,1,0,3,2,3,5,9
53.555,3,1,1,-1,-3,-5,-6,-7
53.56,0,-4,-3,-5,-5,-3,-5,2
53.565,9,4,1,0,1,0,1,12
53.57,-2,2,-1,-1,-2,-6,-1,-3
53.575,3,1,0,-1,4,7,6,-12
53.58,-5,-6,-5,0,-9,-11,-10,8
53.585,6,2,1,1,6,8,9,10
53.59,0,1,1,1,-4,-6,-8,-24
53.595,-5,-1,-2,-1,0,1,-4,-14
53.6,-4,-3,-3,-5,-8,-4,-5,-3
53.605,3,0,-2,-2,-2,-8,-3,6
53.61,-7,0,-1,0,1,1,0,14
53.615,1,-1,-2,2,-5,3,2,-12
53.62,5,1,-1,0,-1,-5,2,0
53.625,-5,2,3,1,6,2,0,-13
53.63,3,3,1,-2,-1,3,4,17
53.635,8,-2,-3,-3,-3,-4,-5,-10
53.64,-7,-2,-3,-3,-4,-1,-6,9
53.645,1,-2,-1,-1,-1,-3,3,0
53.65,3,-1,-2,0,1,-1,2,3
53.655,1,0,1,1,-3,-4,-5,-23
53.66,-2,-3,-1,-2,-1,3,0,-3
53.665,-5,-5,-4,-4,-5,-6,-7,-8
53.67,6,2,0,1,0,0,-1,-4
53.675,5,-1,1,-1,2,3,4,8
53.68,4,-1,3,-1,-4,-5,-8,-21
53.685,2,-5,-4,-3,-8,-6,-10,-8
53.69,2,-4,-2,0,2,-3,7,9
53.695,18,9,8,4,6,10,10,19
53.7,25,0,1,2,-3,-1,-6,-32
53.705,18,2,-2,1,-4,-1,-2,3
53.71,-12,0,-1,-4,-8,-10,-8,-9
53.715,-21,-3,-2,-1,-2,-1,2,7
53.72,-23,-1,0,-1,1,-1,-3,8
53.725,-20,-2,0,-5,-2,-2,0,-7
53.73,-5,-2,-2,-2,2,5,1,21
53.735,-12,1,0,0,-3,-5,-3,-4
53.74,-8,1,-2,-2,3,3,9,40
53.745,-15,-3,-2,-2,-1,0,1,-7
53.75,0,-2,0,-3,1,2,0,-1
53.755,-1,-4,-3,-6,-3,-3,-5,1
53.76,-2,-1,-3,-2,-2,-2,-4,2
53.765,-1,-1,0,1,0,-1,1,3
53.77,2,-1,1,1,-1,1,-2,-4
53.775,1,-2,-2,-1,-2,-3,-3,-10
53.78,-4,-2,-1,-1,0,-4,-4,-10
53.785,3,0,-3,-1,-2,1,-2,1
53.79,-1,0,0,1,0,-1,-1,-10
53.795,7,-2,-3,-1,0,0,0,1
53.8,0,-1,-1,-1,0,-1,0,-1
53.805,2,1,2,-2,-1,-2,0,0
53.81,2,1,-1,-2,-2,0,-1,-1
53.815,-1,-1,-3,-2,-1,-1,-3,-1
53.82,-4,-2,0,0,-1,-1,0,-9
53.825,2,-1,-1,0,-1,-4,-1,5
53.83,-1,-2,0,-1,-2,-2,1,-9
53.835,-4,-3,1,0,0,-2,-2,2
53.84,-4,-2,-1,-3,-1,-1,-1,-6
53.845,-1,-3,-2,-1,0,1,0,-2
53.85,2,-2,-2,-1,0,-2,-2,-2
53.855,-5,-3,0,1,-2,-2,-4,-5
53.86,0,-1,-3,0,-1,-3,0,-2
53.865,1,0,-1,3,-2,-2,-3,-2
53.87,0,1,-2,1,1,0,-1,-1
53.875,-1,0,1,-1,-1,0,-1,3
53.88,1,-1,1,0,-3,-1,-1,-5
53.885,1,-3,-2,-2,-1,-1,-2,-8
53.89,-2,0,0,-1,-2,0,0,-1
53.895,5,2,1,1,1,0,1,2
53.9,-3,-1,0,-1,-1,0,-1,-1
53.905,-5,-3,-2,-3,0,-2,-1,-1
53.91,-1,-1,-2,-3,-2,-2,-1,-4
53.915,0,0,-2,-4,-3,-3,0,-3
53.92,1,1,1,0,-1,0,-1,3
53.925,3,-1,-1,-3,-2,-2,-2,-5
53.93,3,0,0,-2,1,-1,1,5
53.935,2,0,-1,-1,1,2,2,4
53.94,0,-2,-1,0,-2,1,-2,-2
53.945,-3,-1,-3,-1,-3,-1,0,1
53.95,0,-1,1,-2,0,1,0,-1
53.955,-1,-2,0,-6,-2,-2,-2,-5
53.96,2,-2,1,3,-5,-3,-3,0
53.965,0,-1,-1,-4,3,0,2,3
53.97,0,-1,1,11,-5,-5,-3,-4
53.975,0,0,1,-3,0,-1,-1,0
53.98,-3,-3,-1,-15,6,6,2,-4
53.985,1,-1,-6,-12,-4,-1,-4,0
53.99,4,1,3,-1,-9,-11,0,2
53.995,1,-1,0,26,5,2,1,1
54,-4,0,7,29,1,-1,-1,-1
54.005,-3,-3,-17,-24,0,2,-1,-3
54.01,-3,-1,-6,1,8,12,3,2
54.015,4,4,3,11,-16,-20,-6,-4
54.02,1,0,4,-22,-1,3,1,0
54.025,-10,-5,-1,32,4,2,-4,-6
54.03,2,-2,-3,-19,-8,-11,-4,-5
54.035,0,-4,8,18,8,6,2,2
54.04,1,0,-22,-37,-3,-4,-2,1
54.045,5,4,17,-27,1,6,6,5
54.05,0,-3,-5,52,1,-3,-5,-7
54.055,-8,6,6,3,-11,-4,-4,-10
54.06,-1,-4,-8,15,-10,-8,-4,-4
54.065,2,0,1,-4,5,2,0,1
54.07,2,0,7,-21,1,2,1,0
54.075,2,-2,-8,-25,0,0,-1,2
54.08,-3,-4,0,14,3,4,4,-1
54.085,-2,-2,0,8,-6,-5,-4,-4
54.09,-4,-2,-3,-14,-4,1,-3,-4
54.095,-1,3,-1,5,1,-1,1,-2
54.1,-2,-1,-1,-32,-3,-1,-2,-7
54.105,0,-4,3,33,-2,-7,-3,10
54.11,-3,-4,-5,-27,-4,4,3,-1
54.115,-4,-7,-7,-13,-5,3,-2,-2
54.12,3,1,3,16,5,-3,0,2
54.125,3,5,-2,-12,-4,-5,-1,-1
54.13,-7,0,5,61,-1,-6,-6,-5
54.135,0,-5,-6,-18,3,2,-1,1
54.14,0,2,6,-7,-4,-1,-2,-1
54.145,-1,3,3,4,-5,-3,-3,-6
54.15,-3,2,-3,-6,5,3,-2,-1
54.155,-3,-4,-11,-28,-5,0,1,0
54.16,2,-2,0,17,2,-5,-6,0
54.165,0,3,-5,-5,-3,1,1,-1
54.17,1,3,1,7,-1,-1,-2,-4
54.175,1,3,4,-1,2,-2,-1,7
54.18,-2,0,2,20,-4,0,2,-1
54.185,-4,-3,-8,-18,1,3,1,-3
54.19,-1,-2,0,3,-3,0,0,0
54.195,0,-2,-1,1,-2,-4,-5,-3
54.2,-4,5,5,3,0,0,0,-3
54.205,-2,-3,1,-5,-2,0,1,-1
54.21,3,-2,-6,-15,-2,2,0,-1
54.215,-2,-3,0,5,1,-1,-1,-2
54.22,-3,-5,-4,-11,-3,0,-4,-8
54.225,-3,-5,-1,3,0,-4,-2,-1
54.23,3,-2,-5,-10,-1,-4,1,3
54.235,-2,2,0,14,-2,0,2,6
54.24,2,-1,-3,-10,1,-1,-3,-2
54.245,-2,-2,6,18,-1,-8,-2,-5
54.25,5,-3,0,11,-1,-2,-1,5
54.255,-4,5,-1,-9,2,3,-1,-11
54.26,-3,-1,-3,16,-1,-5,0,-5
54.265,-2,-3,-1,-10,-1,3,0,1
54.27,2,-2,-6,-9,2,2,2,5
54.275,3,0,-1,-5,2,5,0,-12
54.28,0,-5,-5,-16,-1,-1,-3,5
54.285,-1,7,7,7,-13,-12,-3,-4
54.29,-2,1,1,-6,2,-1,1,-4
54.295,4,-1,-1,1,4,1,2,13
54.3,-5,-2,-6,-19,3,7,0,-13
54.305,6,-5,2,11,-6,-5,-3,4
54.31,7,-2,-13,-4,-5,-4,-2,4
54.315,-9,-5,-6,-11,3,-2,-3,7
54.32,4,10,21,18,-5,-10,-5,-1
54.325,-2,-3,-6,0,4,7,-1,-14
54.33,-4,-3,-2,-14,-2,-1,-2,1
54.335,0,-7,-5,0,-3,0,3,-6
54.34,9,0,-4,-1,0,0,-1,15
54.345,-8,-3,-2,-12,-2,0,-4,-18
54.35,-4,2,6,-4,3,0,-1,7
54.355,2,-1,3,4,-5,1,4,-9
54.36,0,1,-6,-9,-2,3,4,-16
54.365,-2,-4,3,18,1,-9,-9,-11
54.37,-15,-10,-2,-12,-7,4,-1,-23
54.375,9,11,2,15,5,-15,-5,9
54.38,2,3,3,6,-9,-8,-3,-3
54.385,-3,-1,-3,-9,6,9,2,-12
54.39,-8,-6,-1,1,0,2,2,-21
54.395,0,-4,0,-18,2,4,-4,0
54.4,1,2,-3,0,-3,-2,-5,-7
54.405,2,0,-8,-8,-9,-7,-1,10
54.41,3,3,5,-1,-6,1,2,10
54.415,2,-4,0,11,-3,-3,0,-2
54.42,-7,-6,0,4,2,-3,-2,1
54.425,6,4,-4,-9,-3,5,3,5
54.43,4,3,-1,-13,-1,-3,-4,-30
54.435,2,1,3,20,-1,0,2,10
54.44,1,-1,-6,-3,-7,-4,1,-15
54.445,14,4,0,-3,5,0,-2,23
54.45,-1,2,5,5,-2,-1,-3,-28
54.455,-1,-6,-10,-20,-4,-3,-5,-19
54.46,3,-1,3,6,2,2,0,-14
54.465,1,0,1,0,-1,2,7,31
54.47,3,4,0,-5,4,0,5,36
54.475,0,3,6,6,-3,0,3,-43
54.48,-9,-7,-8,-2,0,-3,-8,20
54.485,-8,-5,-2,-9,-5,0,-3,-15
54.49,-1,0,-1,1,0,-1,0,14
54.495,-2,-1,0,16,-2,-3,-3,-2
54.5,-1,-2,-7,-1,1,-2,1,15
54.505,1,0,-1,-1,0,-1,-3,0
54.51,0,-1,-1,-5,0,0,1,2
54.515,-1,-2,-1,-2,-2,-3,-4,15
54.52,-3,-3,-1,-5,-2,0,2,2
54.525,2,1,-1,4,0,-1,-1,-2
54.53,-4,-2,-2,2,-3,-3,-4,1
54.535,-6,-6,-6,-14,-5,-2,-6,5
54.54,2,-2,1,0,2,2,2,7
54.545,-4,-2,-2,-3,-1,-3,3,-12
54.55,-2,-2,0,-1,-1,-3,-4,2
54.555,-1,-1,0,-3,1,2,1,10
54.56,-3,-2,0,-3,-1,-1,-1,-5
54.565,0,-3,-1,0,0,-2,-4,-1
54.57,3,0,-1,-1,0,-2,-1,0
54.575,-1,0,0,-1,-2,-1,-1,3
54.58,1,-2,-2,-1,-1,0,-2,2
54.585,-4,-3,-3,-2,-3,-3,-3,-5
54.59,0,-1,-1,3,0,-4,-2,4
54.595,-1,2,1,-1,1,3,1,-2
54.6,-3,-1,-1,-2,-2,0,-2,-1
54.605,-2,-2,0,-2,-1,-1,-1,-2
54.61,-1,-1,0,-1,-3,-3,-1,-4
54.615,-1,-3,-1,-4,-1,-2,-2,5
54.62,-2,0,-3,-4,-1,-1,-2,-3
54.625,-3,-1,-1,-1,-2,0,-2,-2
54.63,0,-1,-1,0,-2,1,-2,0
54.635,-1,0,-2,-3,1,1,1,3
54.64,-1,-2,0,1,1,-1,0,-1
54.645,0,-1,-2,-1,-1,-3,-2,-2
54.65,-2,-4,-1,1,-1,-2,-2,-1
54.655,2,-1,-1,0,-5,-6,-1,1
54.66,1,0,0,-2,1,0,0,-1
54.665,-3,1,1,1,-1,-1,0,-1
54.67,-2,-1,-1,-1,-2,-1,-3,-2
54.675,-2,-2,-2,-1,-2,-2,-2,-2
54.68,-1,0,-1,-1,-1,1,3,2
54.685,2,1,0,0,1,1,0,-1
54.69,-1,-1,0,1,-2,-2,-2,0
54.695,-2,-2,-2,-1,-4,0,-4,-2
54.7,1,-2,-1,-2,-2,-3,-4,-1
54.705,-4,0,-3,-2,-2,-3,-2,0
54.71,0,0,-2,-2,0,1,1,0
54.715,-1,0,1,-1,-2,2,0,0
54.72,0,0,0,-2,-1,-1,-2,-2
54.725,0,-1,2,0,-1,-2,-1,0
54.73,0,1,-1,-1,1,0,-2,0
54.735,2,-2,0,-3,0,-1,1,0
54.74,0,-3,-2,0,0,-1,0,-2
54.745,0,-4,-1,-1,-2,-3,0,-2
54.75,0,1,1,1,-2,0,0,1
54.755,-2,-2,1,0,-2,-2,-5,-1
54.76,0,-1,-2,-4,-2,-1,0,-2
54.765,4,1,3,4,2,2,5,3
54.77,0,-1,-3,0,-1,-1,0,-1
54.775,0,1,-3,-2,-2,-1,-2,-3
54.78,-3,-2,0,-2,-5,-4,-3,-3
54.785,0,-2,-2,-3,0,-1,-3,-1
54.79,0,-1,-2,-1,1,1,0,-1
54.795,1,-1,1,0,-2,-2,-3,-1
54.8,4,0,0,2,-1,-1,0,1
54.805,-1,0,1,0,-2,2,-2,0
54.81,0,2,0,-1,-3,-4,-4,-3
54.815,-1,-2,-1,-1,-1,-2,0,-2
54.82,1,0,0,0,-1,-1,-1,0
54.825,0,-2,2,0,-1,-2,-1,-2
54.83,-2,-1,0,-1,-3,-3,-1,-2
54.835,-1,-2,0,1,-1,1,1,-1
54.84,-2,-3,-4,-2,-1,-2,-3,-3
54.845,0,-1,-4,-2,-3,-3,-3,-2
54.85,0,-1,-3,-2,0,1,0,1
54.855,-2,-2,-1,0,1,-4,0,-2
54.86,-3,-1,-1,1,2,4,2,1
54.865,-2,-2,-3,-3,-3,-2,-5,-5
54.87,-2,-1,-1,-2,-1,-1,0,-2
54.875,-4,0,-2,-2,-3,-4,-5,0
54.88,-3,0,-2,-3,0,-1,-4,-3
54.885,1,1,0,0,3,2,4,2
54.89,-1,-1,-1,1,0,1,-1,1
54.895,1,-4,-3,-1,-3,-1,-1,-2
54.9,-2,-1,-2,-2,-3,-3,-3,-1
54.905,-3,-1,-2,-2,-2,-1,-2,-1
54.91,-2,-2,-1,-3,-2,-3,-2,-2
54.915,0,-1,-1,-1,-1,-1,-2,-1
54.92,0,0,0,3,-1,4,5,2
54.925,0,-1,0,1,-2,-2,-2,-2
54.93,-2,-2,-2,-2,-1,-2,-1,0
54.935,-3,0,-2,-4,-3,-1,-3,-3
54.94,-2,-1,-1,-4,-3,-5,-3,-3
54.945,-1,-3,-2,-2,-1,0,-2,-2
54.95,4,0,1,1,-2,-4,0,-2
54.955,0,2,0,0,4,3,3,2
54.96,0,-1,0,-1,-1,-1,-2,-1
54.965,-3,-3,-2,-2,-3,-2,-2,-2
54.97,0,-2,-1,-2,-1,-2,-4,-5
54.975,-3,-2,-1,-2,-2,-2,-1,-1
54.98,-2,-1,-2,-1,-1,-2,-1,-1
54.985,0,-1,-3,0,1,2,3,0
54.99,1,0,-1,1,-2,-2,2,2
54.995,0,3,2,2,1,1,3,1
55,0,-2,-2,-1,-3,-2,-2,-2
55.005,-3,0,-1,-2,-4,-5,-5,-5
55.01,-2,0,1,-1,-3,-1,-2,-2
55.015,-1,-2,-1,-2,1,0,0,1
55.02,1,-2,-1,2,-1,-4,-2,-2
55.025,0,1,1,-1,2,1,2,2
55.03,0,-1,-1,0,-1,-1,-1,0
55.035,-1,-1,0,-2,-3,-3,-3,-4
55.04,-1,0,-1,-1,-1,-2,-1,-2
55.045,0,0,-1,-1,-1,0,-1,0
55.05,-3,-4,0,-1,-3,0,-2,-1
55.055,0,-3,-3,0,-2,-1,-1,-2
55.06,-1,0,0,0,-1,-1,1,-1
55.065,3,-1,1,2,0,2,2,-2
55.07,1,1,1,-1,0,1,1,0
55.075,1,-1,-2,1,-3,-1,-2,0
55.08,-1,-2,1,-1,-1,-1,-3,-1
55.085,-2,-2,-3,-2,-3,-4,-4,0
55.09,-3,-3,-1,1,-1,-2,-3,-2
55.095,1,0,-1,-1,0,-1,0,-3
55.1,0,-1,-1,0,-1,0,-2,0
55.105,-2,0,0,-2,-4,-3,-4,-3
55.11,2,-2,-3,0,-1,-1,1,-1
55.115,1,2,0,1,1,2,3,4
55.12,0,-3,-2,0,-1,0,0,-2
55.125,-2,0,-1,1,0,1,2,1
55.13,-1,-1,0,-3,-2,0,-3,-3
55.135,-1,-2,-1,-4,-3,-3,-2,-2
55.14,3,2,-1,-1,0,-2,1,1
55.145,0,0,0,0,-1,-2,-1,-2
55.15,0,-1,-3,-3,-2,-3,-3,-2
55.155,-2,0,-2,-1,-2,-2,-3,-3
55.16,-2,-2,-1,-1,-2,0,-2,-3
55.165,0,-4,-1,0,-3,-3,-1,-2
55.17,0,3,0,-1,0,-1,3,1
55.175,1,0,1,0,-1,4,1,-2
55.18,-3,1,2,-1,-2,-3,-1,-1
55.185,-1,-3,0,-2,-2,-5,-3,-4
55.19,-1,-2,5,2,0,1,0,-1
55.195,-3,-3,-3,-1,-3,-2,-2,-1
55.2,-3,-1,-4,-1,-1,-1,0,0
55.205,-3,-1,-2,0,0,-1,-1,-1
55.21,-4,-2,-5,-1,0,-1,-1,-1
55.215,-1,-1,-1,-3,1,-2,-1,-1
55.22,-1,-3,-3,-1,-1,0,-2,1
55.225,-2,-2,-3,-3,-1,0,-3,-3
55.23,-1,0,-4,-1,1,1,0,0
55.235,0,-1,-1,0,-1,2,2,0
55.24,0,-1,1,-2,-1,-3,-1,0
55.245,-1,-1,-1,0,-1,0,-1,-1
55.25,-2,-4,-4,-1,-1,-4,-2,-2
55.255,-1,-4,-4,-3,-1,-2,-4,-2
55.26,-1,0,-2,1,0,-1,-1,-1
55.265,3,-1,0,0,0,0,2,2
55.27,-2,0,-1,-1,-2,2,1,0
55.275,-3,-1,1,-2,-3,-3,-3,-3
55.28,-3,-4,-1,-2,-1,0,-2,-2
55.285,-3,-3,-1,-3,-1,-2,-3,-1
55.29,-2,-1,-1,-3,-3,0,0,-3
55.295,2,1,0,1,0,0,1,2
55.3,0,0,-2,-1,-3,2,1,0
55.305,-1,0,-2,-3,-3,-1,-4,-3
55.31,-1,1,1,-1,0,-3,0,1
55.315,0,-1,0,2,0,1,-1,-1
55.32,0,-1,-2,0,-4,-3,-3,-2
55.325,-2,-2,-2,0,-1,-1,-1,0
55.33,1,1,0,0,0,-1,-3,-2
55.335,-3,-2,-1,1,-1,-2,-2,-1
55.34,0,-2,-1,-1,1,-1,2,-1
55.345,0,0,1,-2,0,0,1,1
55.35,2,-1,-1,-2,-1,-1,-2,-1
55.355,-2,0,0,1,-1,-1,-2,-1
55.36,2,-3,-1,-2,-2,-2,-4,-4
55.365,-2,-1,-1,-1,-3,0,-2,-2
55.37,3,-1,0,-2,-2,-1,-1,-1
55.375,0,0,0,-1,-1,0,1,0
55.38,-2,-2,0,-2,-1,-3,1,0
55.385,0,-2,1,-1,0,0,-1,-1
55.39,1,0,0,-1,-1,-1,-2,-1
55.395,0,-2,0,-1,-4,-3,-2,-2
55.4,1,0,-2,-2,-1,-2,-2,0
55.405,2,0,-1,0,2,3,5,2
55.41,-1,-2,-3,-2,-2,-1,-2,-1
55.415,0,-2,-2,-3,-2,-2,-2,-2
55.42,0,0,-1,-1,-2,-1,-1,-2
55.425,-1,-1,-2,-1,-2,-3,-3,-1
55.43,0,1,0,-2,-4,0,0,-1
55.435,1,0,-1,-1,3,2,1,2
55.44,2,1,-1,-1,-2,0,0,-2
55.445,1,0,-1,2,-2,-1,-1,-3
55.45,-1,0,-1,1,-1,0,-1,-2
55.455,-1,-2,-1,-3,-5,-5,-2,-3
55.46,-1,0,-1,-3,0,0,1,0
55.465,-2,-1,0,-4,-1,-2,-1,1
55.47,-1,0,-1,2,-1,-3,-4,-1
55.475,3,-1,1,1,-1,1,-1,-1
55.48,-3,-1,-1,0,-1,1,-3,-2
55.485,-2,-2,-2,-4,-2,-3,1,0
55.49,2,-1,2,0,0,1,1,-1
55.495,-2,-2,-3,-2,-1,-2,-2,-1
55.5,0,-2,0,1,-1,0,0,2
55.505,0,-1,-1,-2,-1,-2,-1,0
55.51,-4,-2,0,-2,-2,-4,-2,-3
55.515,-2,-2,-1,0,-1,-3,-1,-2
55.52,0,0,-1,0,0,-2,-2,-3
55.525,1,0,-1,-1,-2,0,1,-1
55.53,-1,0,-2,-2,0,-1,-2,1
55.535,0,0,0,1,-1,-1,1,1
55.54,0,-1,-2,-1,-2,-3,-2,-2
55.545,1,-1,0,-1,-1,-2,-3,-4
55.55,-2,-2,0,-3,-3,-1,-1,-1
55.555,0,0,-1,0,-1,0,0,-1
55.56,0,1,1,-3,0,0,1,-1
55.565,2,2,0,0,1,-2,-3,1
55.57,-3,-2,-2,-1,-2,-2,-1,-2
55.575,-1,-1,0,-3,-1,0,-1,-2
55.58,0,-3,0,0,-3,-2,-3,-2
55.585,-1,0,-2,-1,-1,0,-1,-1
55.59,0,1,-1,1,2,2,5,3
55.595,-1,0,-1,-4,-1,0,-2,-1
55.6,-2,-3,-4,-2,-2,0,0,-1
55.605,-3,-3,-1,-2,-2,-1,-5,-4
55.61,-1,-4,-2,-2,-1,-2,-3,-2
55.615,-1,-1,-3,-1,-1,-1,0,0
55.62,-2,0,-1,-2,0,-1,-1,-1
55.625,-2,-3,-1,-1,-1,-2,0,-1
55.63,-2,-1,-2,-1,-1,1,1,1
55.635,0,-3,-2,-1,-1,-2,-2,-2
55.64,-1,-2,-1,0,-3,-2,-2,0
55.645,0,-2,-2,0,-1,0,2,0
55.65,1,0,-1,-2,0,-2,1,2
55.655,1,-2,0,1,0,2,0,0
55.66,-1,-2,-1,0,-1,1,0,0
55.665,-1,0,-1,-1,-1,2,-2,-3
55.67,1,0,-2,-1,-4,-2,-2,-1
55.675,-3,-3,0,-3,-3,-4,-3,-1
55.68,-1,-1,-1,0,2,2,0,1
55.685,0,-1,-1,2,-1,3,3,0
55.69,0,-2,0,-2,-3,-1,-3,-4
55.695,-2,0,-1,-4,0,-2,-1,0
55.7,2,0,-1,-3,-1,-1,-1,-2
55.705,-2,-2,-2,-1,-1,-2,-2,-1
55.71,0,0,0,0,0,-2,1,-3
55.715,-2,0,1,-1,-3,-1,0,-1
55.72,-2,-2,-1,-1,-2,-1,-1,-2
55.725,1,-2,-1,-2,-1,-3,-3,-3
55.73,2,0,2,2,0,2,2,2
55.735,-1,-1,-2,0,1,-1,1,-1
55.74,-1,0,-1,-1,-1,1,0,0
55.745,2,1,0,-2,-3,-1,-4,-2
55.75,-1,-1,-3,-2,0,-2,-4,-4
55.755,0,0,-3,0,0,-2,-3,0
55.76,-2,0,-2,0,-2,-1,-1,0
55.765,-1,0,0,-2,-1,1,2,1
55.77,-2,-1,1,-4,-1,0,0,-2
55.775,0,1,3,0,1,-1,-1,-1
55.78,1,1,1,1,-1,-2,-2,-2
55.785,-1,1,-1,-1,-1,-1,0,-3
55.79,0,0,-2,-2,-3,-2,-3,-1
55.795,-1,-1,-2,-1,-1,2,1,-2
55.8,-1,-2,-1,-1,-1,-1,-3,-2
55.805,0,1,0,1,-2,-2,-3,0
55.81,2,0,-1,0,-1,0,0,-1
55.815,0,-1,-2,-1,-3,-2,-1,0
55.82,0,1,0,-1,-1,-3,1,-1
55.825,1,-3,-2,-1,-1,0,-2,0
55.83,1,-2,-2,-3,-2,-1,-5,-2
55.835,-1,0,-1,-1,-1,-3,-1,-1
55.84,0,0,-1,-2,-1,-2,1,-2
55.845,0,0,0,2,-3,0,2,-2
55.85,-1,-3,-1,0,-2,-2,-1,-2
55.855,0,-1,0,-1,-1,0,-1,-1
55.86,1,-3,1,-1,-1,-1,0,1
55.865,-2,-3,-1,-3,-1,-3,-1,-1
55.87,0,0,-1,-1,0,-1,-1,-1
55.875,2,0,0,-3,-2,-1,-2,-1
55.88,-1,-3,-1,-2,0,-2,-1,-1
55.885,-2,-2,-2,1,0,-1,-3,-1
55.89,-2,-3,-2,-1,0,-1,1,0
55.895,0,-3,-3,-1,-2,-1,-2,-1
55.9,-1,-2,0,-3,-3,-2,-2,-2
55.905,2,-2,-1,-2,-1,0,0,-1
55.91,1,-1,-1,0,1,1,2,-1
55.915,2,-1,1,0,-2,0,-1,-4
55.92,1,-1,-1,-1,-3,-1,-2,-3
55.925,-1,-2,0,-2,-4,-1,-5,-2
55.93,-2,-2,-1,-1,-2,-3,-3,0
55.935,1,1,0,0,2,0,4,2
55.94,1,-1,-1,0,-1,0,3,1
55.945,-3,-3,-1,-1,-3,-2,-2,-4
55.95,3,1,-2,1,-1,-1,1,3
55.955,0,-3,-2,-2,-5,-2,-5,-3
55.96,-3,-1,-3,-3,-1,0,-2,-1
55.965,0,1,-1,-2,1,-2,-1,-3
55.97,-3,-1,-1,-2,-3,-2,-6,-3
55.975,-6,-3,-3,-1,-3,-3,-1,-2
55.98,-3,-1,-1,-1,1,0,-2,1
55.985,0,1,1,0,0,0,3,2
55.99,1,1,-1,-1,2,3,2,-1
55.995,-1,-2,-1,0,-3,-1,0,0
56,-2,-2,-2,-2,-4,0,-2,-4
56.005,-3,-2,-1,-2,-1,-1,-1,0
56.01,-3,1,-2,-2,-1,0,-3,-1
56.015,-2,0,0,0,1,-3,-3,-2
56.02,-3,1,-1,-3,-1,-1,0,-2
56.025,1,0,-3,-2,-2,0,-1,-1
56.03,-2,-1,-1,-2,-2,-3,-2,0
56.035,1,0,-2,-2,-1,-1,-1,-1
56.04,-1,1,-1,0,0,-2,-2,2
56.045,1,3,-1,0,0,-2,1,-2
56.05,-2,-1,-1,0,-4,-6,-3,-2
56.055,-5,-3,1,-1,-1,-2,-3,-3
56.06,-1,1,0,-2,-1,1,1,0
56.065,-1,0,-1,1,0,-1,1,1
56.07,1,-3,1,-2,-2,-2,-1,1
56.075,1,0,-3,0,-2,-2,0,-2
56.08,0,0,-1,1,-2,0,-1,-2
56.085,-2,-3,-2,-3,-2,-3,-3,-1
56.09,-3,-2,-1,-1,-1,-1,0,-3
56.095,-1,0,1,-1,-1,-1,1,1
56.1,-4,-1,-2,-3,-1,-2,-3,-1
56.105,-3,-1,-3,-1,-1,0,-1,-1
56.11,2,-2,-1,-2,-2,-2,-3,-4
56.115,1,0,0,-1,-1,0,1,0
56.12,5,1,0,2,1,0,3,1
56.125,1,1,2,0,0,-1,5,1
56.13,-2,0,-1,-1,-1,2,-1,-3
56.135,-2,-1,-3,1,-3,-2,-2,-2
56.14,-1,-3,-1,-3,-2,-4,-5,-2
56.145,-2,-4,-2,-1,-1,-2,0,0
56.15,1,1,1,-1,-1,-2,0,0
56.155,2,-1,0,-3,1,1,0,0
56.16,-1,-3,-2,0,0,-1,-1,-3
56.165,-1,-3,-1,1,-2,0,0,-1
56.17,-1,-1,1,1,-2,-2,-2,-2
56.175,-1,-2,-1,-2,1,-1,-2,-1
56.18,2,-2,-1,2,0,-1,2,-2
56.185,3,-3,-1,-2,-3,-4,-4,-2
56.19,6,-1,-2,-2,0,-2,0,0
56.195,8,1,-1,1,-1,2,0,0
56.2,8,0,2,-1,-2,-1,-2,0
56.205,4,-1,0,-1,0,-1,-3,-2
56.21,-13,-2,0,-2,-2,-1,2,-1
56.215,-4,-2,-2,-1,-1,-2,-1,-1
56.22,-8,0,-1,-1,-1,-2,0,-2
56.225,-4,-1,-2,1,-2,-2,-4,-1
56.23,-3,-1,-1,-1,-2,-3,-4,-3
56.235,-7,-1,-2,-1,2,2,0,-2
56.24,-1,-1,0,0,0,1,0,2
56.245,1,1,0,-1,-2,0,1,-1
56.25,2,-1,-2,-1,-2,-1,-2,-4
56.255,-2,-1,-2,-2,-2,-3,-1,-2
56.26,1,0,-2,0,0,-2,-2,-1
56.265,1,1,0,0,1,0,-2,-2
56.27,1,0,-1,0,-2,-2,-3,-2
56.275,3,1,1,0,-3,-2,-2,-1
56.28,4,0,1,-1,1,-1,2,2
56.285,0,2,-2,-1,0,-1,0,-1
56.29,0,1,0,0,-1,0,0,-1
56.295,0,1,1,-1,-2,-2,-1,-2
56.3,-3,1,-2,-2,-5,-4,-3,-3
56.305,1,0,0,-3,-3,-2,-1,-1
56.31,3,0,0,1,0,0,-1,1
56.315,-2,0,0,-1,-2,-1,-1,-1
56.32,-2,1,0,1,-1,-2,0,-3
56.325,0,0,-1,2,-1,0,-2,-2
56.33,-1,-1,1,-3,-3,-1,0,-3
56.335,2,-1,0,-2,-2,-2,-1,0
56.34,0,-5,-1,-1,-2,-1,-1,-1
56.345,-1,-2,-1,1,-2,-1,0,0
56.35,2,-1,0,2,0,-1,3,3
56.355,-1,-1,0,-3,-2,-1,-2,-3
56.36,-2,-2,-2,-1,1,0,-2,-2
56.365,0,-1,0,-3,-1,-2,-2,-1
56.37,-3,-4,-3,-1,-2,0,-4,-3
56.375,1,-1,-1,0,-2,0,-3,0
56.38,0,-1,-2,-2,1,0,-1,-1
56.385,-2,-2,-1,0,-2,-2,1,-2
56.39,-4,1,-1,-1,0,0,-1,-1
56.395,-1,-1,-2,-1,-1,-1,1,0
56.4,-3,-1,0,-2,-2,-2,-1,-2
56.405,0,-1,0,-2,-1,0,0,0
56.41,-1,-1,0,-4,-1,-3,1,-1
56.415,-3,-3,-3,0,-1,-2,-2,-1
56.42,0,0,-2,-1,-2,-1,-2,-1
56.425,-2,-1,-2,-5,0,-1,-2,-1
56.43,-2,0,0,-1,0,-1,0,0
56.435,-4,0,-2,-2,-2,0,-1,0
56.44,-2,-2,-2,-1,-1,-1,-1,0
56.445,-1,-4,-1,-1,-1,-1,-4,0
56.45,1,-1,-1,0,-2,-1,-1,-3
56.455,1,0,-1,0,-2,-1,0,-2
56.46,-1,0,-1,0,-2,0,0,-2
56.465,-2,0,0,-1,-1,-2,-2,-2
56.47,0,-1,-2,-3,0,0,-2,-1
56.475,1,0,-1,-1,-1,0,-1,-2
56.48,0,0,1,0,-1,-1,-3,-1
56.485,0,-1,-1,-1,0,1,1,-1
56.49,0,-2,-3,0,-4,0,0,0
56.495,-3,-2,-1,-1,-1,0,-1,0
56.5,-1,-2,0,-3,-2,-2,1,-2
56.505,1,-2,0,-1,-1,-2,-2,0
56.51,1,0,-1,-1,0,-2,-2,1
56.515,1,-1,-1,1,-2,-2,0,-1
56.52,1,0,-1,-1,-1,-1,-1,0
56.525,-2,0,-2,-1,-1,-2,-3,-2
56.53,-2,-1,0,-1,-1,-1,0,-1
56.535,-1,0,-2,-3,-1,-1,-5,-3
56.54,0,-1,-1,0,-2,-1,-1,-1
56.545,0,0,0,1,0,-2,-1,1
56.55,-1,-1,-1,0,-1,0,1,0
56.555,-2,-1,0,-1,-2,-1,0,0
56.56,1,-2,-2,-3,-3,-3,-3,-2
56.565,-1,0,-2,-3,-2,-1,-1,-2
56.57,1,-3,0,0,0,-1,-1,-2
56.575,1,0,0,1,1,-1,0,-1
56.58,0,-1,0,-1,-1,1,0,1
56.585,-1,-1,-1,-3,-1,-1,0,1
56.59,2,2,0,-2,0,-1,0,-1
56.595,1,-1,0,1,-2,0,0,0
56.6,0,-1,-1,-1,-2,-1,-1,0
56.605,-2,0,-1,0,-3,-2,-1,-1
56.61,-1,-1,0,-2,-2,-4,-3,0
56.615,1,-2,-2,-1,0,-1,0,-1
56.62,1,1,0,-2,0,1,3,0
56.625,0,0,1,0,-2,-1,2,-1
56.63,0,-2,-1,-1,-2,-1,-2,-3
56.635,-2,0,0,-1,-1,-1,0,-2
56.64,0,0,-2,-1,-2,-2,-3,-2
56.645,2,-2,0,0,-1,-3,0,-1
56.65,-1,-1,0,0,-2,-2,-1,0
56.655,0,0,-1,-1,0,-1,1,-1
56.66,-2,0,-1,-1,-1,0,1,0
56.665,2,0,-2,-1,-3,-1,-4,-2
56.67,1,-1,-1,0,-1,-2,-2,-1
56.675,0,-1,-1,-3,0,-1,-2,-2
56.68,0,-1,-1,0,-1,-3,-1,-2
56.685,-1,-2,-2,-4,-4,-2,-1,0
56.69,-2,-1,1,-1,-2,-2,-2,-2
56.695,2,0,-1,0,-1,1,-1,0
56.7,1,0,0,0,-2,-2,-1,-1
56.705,-1,-2,0,-2,-1,1,-1,-2
56.71,0,-2,-1,-2,-2,1,-2,-1
56.715,2,0,0,2,-2,4,-1,-1
56.72,-4,-1,1,-1,-2,-5,-2,-2
56.725,-4,-2,-3,1,-1,-1,0,-1
56.73,-2,-2,1,-2,0,-2,-3,-2
56.735,-1,-1,-2,-3,-1,-4,-2,-2
56.74,2,-4,-2,0,-1,0,-1,-1
56.745,0,0,0,0,-1,-1,-1,-2
56.75,-1,-4,-2,-1,1,-2,1,-1
56.755,-4,-1,-1,-1,-1,-2,-4,-1
56.76,0,-2,-2,0,-2,0,-1,-1
56.765,0,0,0,1,0,2,0,-1
56.77,-2,1,-2,-1,-2,0,0,-1
56.775,-3,-4,0,-3,-1,-2,0,-2
56.78,-2,-2,-3,-1,-1,-2,-2,-1
56.785,1,-2,-3,-1,-1,-2,-2,0
56.79,2,-1,-1,-1,-3,1,-2,0
56.795,-4,-3,-2,-1,-1,-5,-3,0
56.8,-4,-2,0,-2,-1,0,0,-1
56.805,-3,1,-1,-4,1,-1,-2,-2
56.81,-2,-1,-2,2,0,-2,0,-2
56.815,0,-1,-1,-2,-2,0,1,1
56.82,1,1,0,0,1,2,1,0
56.825,-2,0,1,0,-1,-1,-2,0
56.83,-2,-1,-2,-1,-1,1,-1,-1
56.835,-1,0,-2,-3,-2,-3,-1,-2
56.84,-1,2,-3,1,-1,-2,-1,-1
56.845,0,-1,-2,-1,-1,0,0,-1
56.85,-2,0,-1,-1,-1,-2,0,-1
56.855,1,1,-1,0,-2,-1,-3,-2
56.86,0,0,0,-2,-3,-2,0,0
56.865,-1,-1,0,0,-2,-3,-1,-1
56.87,-2,0,0,1,-1,-2,-1,-1
56.875,-1,-3,-1,-4,1,-1,-3,-3
56.88,-2,-2,-2,-1,-4,-3,-3,-3
56.885,-2,-1,1,0,1,-1,2,-2
56.89,0,0,1,-2,-2,0,-1,0
56.895,1,2,0,-1,-4,0,0,0
56.9,-1,-1,-3,-1,-2,-1,-2,-1
56.905,1,-1,-2,-1,-4,-3,-2,-1
56.91,-2,-1,-2,-1,0,0,-1,-3
56.915,1,-2,-4,-1,0,0,-1,0
56.92,3,0,6,0,0,0,-1,0
56.925,0,1,6,0,0,-1,-1,-1
56.93,-1,-3,8,-2,0,-2,-4,-3
56.935,0,-2,4,1,0,0,0,1
56.94,29,-2,-6,-2,-1,-3,-2,-1
56.945,27,-2,-8,-1,-2,-1,0,-2
56.95,0,-1,-7,0,-3,-3,1,0
56.955,-15,-1,-4,1,1,-3,-1,-3
56.96,-24,-3,-3,-3,-1,-1,-1,0
56.965,-13,-1,-2,-4,0,0,-1,-1
56.97,-1,-2,-2,-2,-2,-2,-2,-1
56.975,-1,1,2,0,0,1,0,0
56.98,-6,0,1,-1,1,0,0,-1
56.985,-1,-2,0,-2,-1,-3,-2,0
56.99,-4,-1,0,-2,-1,0,0,1
56.995,2,-2,0,1,-2,-2,-2,1
57,1,0,1,-1,-2,-1,-2,-2
57.005,-3,1,-2,-2,-2,0,-1,0
57.01,-1,0,0,1,-1,0,-1,1
57.015,3,1,-2,1,-2,-4,-2,0
57.02,1,-3,-3,1,0,0,1,0
57.025,-1,-2,-1,-2,-4,-1,-3,-2
57.03,4,-1,-1,-1,-2,-2,-2,-2
57.035,2,-1,0,-4,0,-2,1,0
57.04,-2,0,0,-1,1,0,0,0
57.045,-3,-3,-1,0,-1,-1,-3,1
57.05,0,-1,-3,-1,0,1,-2,-3
57.055,0,-2,0,0,-3,1,-2,-1
57.06,-1,-1,2,0,-1,1,-1,1
57.065,-3,-2,-1,-1,-1,-2,0,-1
57.07,-2,-1,-2,-2,-2,-3,-4,-1
57.075,4,-1,-2,-1,-3,-1,1,0
57.08,-1,-2,0,-1,1,1,0,-1
57.085,-4,0,-1,1,-3,-2,-1,-2
57.09,2,-1,0,-1,0,-1,-1,-1
57.095,-1,0,-1,0,-1,-1,-2,-2
57.1,-2,-2,-3,-2,-1,-3,-2,-3
57.105,-2,-1,0,-2,-1,0,-1,0
57.11,-2,0,-2,0,-1,-2,-1,-3
57.115,-1,-2,-1,-1,-2,0,-2,-2
57.12,3,1,1,-1,-4,-2,-2,-2
57.125,0,0,1,1,-1,-3,-1,0
57.13,0,1,0,-1,-3,-1,0,-2
57.135,0,-1,-2,-1,-2,-1,-1,-1
57.14,-2,-2,-2,-1,-2,-1,-1,-3
57.145,-2,-1,-1,-1,-3,-2,-2,-1
57.15,-2,-1,-2,-2,-2,-2,-1,1
57.155,-1,-1,1,-3,0,2,3,0
57.16,-2,-3,-4,-4,-1,-2,-2,-1
57.165,-1,1,-2,0,1,0,0,0
57.17,-1,-2,0,0,-2,-2,-2,-1
57.175,2,2,0,0,-2,-5,-2,-2
57.18,5,1,-1,2,-3,-2,-1,0
57.185,0,-1,0,1,-2,-2,0,-1
57.19,0,-1,-3,-1,0,-2,0,-1
57.195,1,-1,-1,-4,-1,-4,-1,-1
57.2,-3,-2,-2,-2,-1,1,-2,-2
57.205,-4,0,-1,-4,-1,-2,-1,-1
57.21,-5,-4,-1,-2,0,2,1,-1
57.215,-2,-1,-1,-1,2,-1,1,0
57.22,-3,-1,1,-2,1,-1,-2,-1
57.225,-2,-1,-3,-1,-3,-1,-4,1
57.23,-1,0,-3,0,-2,-1,1,1
57.235,3,-1,-4,2,-1,1,-1,-3
57.24,-1,0,-3,2,-2,-1,0,-1
57.245,0,-1,0,-2,-2,-1,1,-1
57.25,-1,-1,-1,-1,-1,-1,-2,0
57.255,-3,-1,-2,0,-3,-2,-3,-2
57.26,-2,0,1,-3,-2,0,0,0
57.265,2,0,0,1,-2,-1,-1,-2
57.27,3,3,2,0,-2,3,0,-1
57.275,1,1,-1,0,0,0,0,-3
57.28,0,0,0,0,-2,-1,-3,0
57.285,-2,-1,0,-1,-1,0,0,-2
57.29,0,-2,0,-2,-1,1,-1,-1
57.295,0,1,1,0,-3,0,-1,0
57.3,2,2,2,1,-2,1,-1,0
57.305,-1,0,-2,1,-2,1,-2,-3
57.31,0,3,0,-1,-2,-1,-1,0
57.315,1,0,0,0,0,1,0,1
57.32,3,1,2,1,-4,-4,-1,-1
57.325,3,1,3,1,-1,-4,0,-2
57.33,1,0,1,1,-3,-7,-1,-4
57.335,-9,-5,-6,-7,1,-5,-4,-1
57.34,-3,-7,-6,-5,1,0,-1,-1
57.345,-2,-3,-2,-3,2,-2,0,1
57.35,-2,-4,-4,-3,2,0,1,0
57.355,-5,-4,0,-2,2,0,2,0
57.36,-2,-2,11,0,0,-1,-1,-2
57.365,-2,-1,7,-3,-1,2,1,-1
57.37,0,0,-8,0,1,0,1,1
57.375,0,0,-13,0,1,-2,-1,-1
57.38,-2,-4,-21,-3,0,1,1,0
57.385,1,-7,-8,-2,-1,0,-2,-3
57.39,1,-5,2,-2,-3,0,-6,-4
57.395,-1,-6,3,-1,-2,1,1,1
57.4,8,4,8,2,2,2,7,5
57.405,-1,1,4,1,-1,1,0,-1
57.41,-4,-4,2,-1,-4,-3,-4,-4
57.415,-1,-1,1,1,-4,-4,-6,-4
57.42,-2,-2,0,-1,-2,-3,-2,-2
57.425,-3,0,-1,0,-2,-1,0,1
57.43,1,3,0,0,0,-5,-4,-1
57.435,1,0,1,-1,-4,-2,-4,0
57.44,3,4,0,0,0,2,2,2
57.445,-3,0,-6,-1,0,0,0,-3
57.45,3,2,0,-2,-1,4,1,1
57.455,-6,-4,-4,-4,-8,-6,-10,-10
57.46,0,-1,-3,-2,-1,-5,3,3
57.465,6,6,4,3,11,4,7,9
57.47,-2,1,0,-1,-2,2,1,-1
57.475,0,2,-1,-1,-3,-2,-3,0
57.48,-7,-6,-5,-4,-7,0,-14,-9
57.485,-8,-7,-6,-5,-4,-7,-7,-8
57.49,-3,-3,0,1,2,-2,4,1
57.495,2,-1,0,-1,2,1,0,-1
57.5,-3,-3,0,-2,-2,-6,2,1
57.505,-1,0,-1,-2,0,3,1,1
57.51,-4,-3,-2,-3,-2,-4,-4,-3
57.515,0,-1,-2,-1,-3,-4,-1,-1
57.52,-3,0,0,0,1,-3,-4,-2
57.525,1,0,-1,0,-1,1,0,3
57.53,1,1,-1,-1,0,6,3,-2
57.535,-4,1,0,-1,-4,-1,-2,-2
57.54,-4,-4,-2,0,-4,-3,-3,-4
57.545,0,-1,-2,-2,-4,-10,-3,-2
57.55,1,4,3,3,7,5,5,4
57.555,6,3,2,3,5,6,9,3
57.56,-2,1,-1,-1,-3,3,-3,-5
57.565,-5,-3,-5,-5,-9,-5,-8,-7
57.57,-2,0,0,1,-1,-9,1,3
57.575,0,0,2,1,1,1,0,0
57.58,0,0,1,-3,0,1,-3,-1
57.585,-1,-1,-2,-2,-4,1,-3,-1
57.59,-1,-2,-3,-3,-5,-4,-7,-2
57.595,-2,-2,0,1,2,3,4,-3
57.6,1,-2,-1,-1,-5,-12,-5,-1
57.605,4,-1,1,0,2,-1,6,2
57.61,1,0,-1,0,-2,2,-5,-1
57.615,1,-3,0,0,-3,0,-1,0
57.62,4,2,1,2,4,6,5,3
57.625,-2,-2,-4,-1,-3,-2,-2,-2
57.63,-5,-5,-4,-6,-5,-4,-4,-6
57.635,-1,-2,0,-4,-3,-1,-6,-3
57.64,-4,-4,-4,-2,0,-2,-1,-2
57.645,6,2,2,5,8,-3,9,8
57.65,3,3,2,0,2,7,1,1
57.655,-5,-3,-2,-3,-4,0,-4,-4
57.66,-1,-1,-3,-2,-3,-2,-4,-1
57.665,-6,-5,-2,-4,-7,-5,-10,-6
57.67,-3,-3,-3,-1,6,0,7,-1
57.675,-3,-2,0,0,1,-3,-1,-1
57.68,2,1,2,4,-3,1,0,1
57.685,2,1,2,-4,-3,2,-3,-5
57.69,0,0,-1,-4,-6,-4,-4,-1
57.695,0,1,-2,-7,-1,-3,-2,-1
57.7,-5,-2,-2,-6,-2,-5,-5,-3
57.705,0,0,1,0,0,2,0,-1
57.71,1,-1,0,1,1,1,4,4
57.715,2,2,-1,-1,-1,-1,-2,0
57.72,-1,-3,0,1,2,1,4,2
57.725,7,3,3,3,-9,-9,-8,-2
57.73,-6,-1,0,-3,-5,-5,-6,-6
57.735,0,0,-2,0,-1,-4,-3,0
57.74,-2,-3,-1,0,-1,-3,-3,-4
57.745,-2,-2,-2,1,-1,4,3,0
57.75,8,1,3,2,-2,-5,-1,-1
57.755,6,-2,0,1,-7,-5,-7,-4
57.76,10,-2,-1,-6,2,-6,6,4
57.765,27,3,2,2,7,14,7,2
57.77,29,-3,-1,-1,-5,-3,-3,-3
57.775,28,-1,0,1,-2,-3,-3,-2
57.78,3,-6,-5,-5,-5,-4,-7,-6
57.785,-32,-7,-8,-7,0,-4,-4,-2
57.79,-36,-4,-6,-5,3,2,-2,3
57.795,-34,-2,0,-2,2,4,4,0
57.8,-23,3,4,1,0,5,5,1
57.805,-5,0,6,6,-3,-3,-2,-2
57.81,-7,2,2,4,-7,-2,-4,-6
57.815,-7,-1,-2,-2,-2,-5,1,1
57.82,-5,-3,-6,-4,0,2,0,2
57.825,-5,-4,-5,-8,0,0,-3,-4
57.83,-4,-6,-6,-5,0,-5,-1,-1
57.835,6,-1,0,0,5,2,4,2
57.84,6,4,2,1,0,1,-1,0
57.845,1,-3,1,-2,-1,-3,-3,-2
57.85,3,0,0,0,-3,-2,0,-2
57.855,2,2,0,-1,-1,-1,-1,1
57.86,5,1,-2,-1,-1,1,-1,-3
57.865,-1,-2,-2,-1,-2,-1,0,-1
57.87,-4,0,-1,-2,-2,0,0,-1
57.875,-1,0,-2,0,0,1,-1,-1
57.88,-1,0,1,-1,-1,-3,-1,-1
57.885,1,-2,-2,0,-3,-3,0,-2
57.89,2,-1,0,-3,0,0,-2,-1
57.895,-4,-1,-2,-1,-1,0,-1,-2
57.9,1,0,-1,1,-1,0,-2,0
57.905,0,0,0,-3,0,-2,-2,0
57.91,0,-2,-1,-1,2,-3,-2,-1
57.915,2,-2,0,-2,-1,-3,-2,0
57.92,0,1,2,-1,-2,0,-1,-1
57.925,-2,-3,-4,-4,-3,-1,-3,-3
57.93,-1,-1,-2,0,-2,-1,-1,-1
57.935,-1,0,0,-1,-1,2,0,1
57.94,0,1,-3,2,0,0,-1,-2
57.945,-2,-1,-1,-2,-1,0,-2,-1
57.95,1,-2,1,1,-1,-1,-1,-1
57.955,-2,1,-2,-1,-3,-2,-1,-2
57.96,-1,-2,-2,-1,-3,-1,0,-2
57.965,-1,-1,-1,-2,1,-1,2,0
57.97,1,-2,-1,-3,-1,0,0,0
57.975,1,-1,-1,-1,-2,1,0,0
57.98,-1,-1,0,-1,0,0,-2,-3
57.985,-3,1,-2,0,-2,-2,-1,-1
57.99,1,0,1,-1,-1,-2,-2,-3
57.995,0,-1,-2,0,-2,-1,0,-2
58,-1,-1,0,0,-3,-1,0,-2
58.005,-1,-1,-2,2,-2,0,-2,-1
58.01,1,0,-1,0,-4,0,-2,1
58.015,1,-2,-1,-1,-1,-1,-1,1
58.02,1,-1,0,-1,-3,-1,-2,-1
58.025,0,0,-2,-1,-2,0,0,-1
58.03,-2,0,-3,-1,-3,-1,-1,-1
58.035,-1,-1,-1,1,0,-2,-2,0
58.04,3,1,1,-4,-1,0,-1,0
58.045,-2,-2,-3,-2,-1,0,-1,-1
58.05,-2,-2,-3,-2,-1,-1,0,1
58.055,0,0,-1,-2,0,-2,0,-4
58.06,-3,-2,-3,-2,-5,-2,-2,-1
58.065,1,0,0,3,-1,-2,-2,-2
58.07,0,1,0,0,1,-2,1,0
58.075,1,1,0,0,-1,1,0,-2
58.08,2,0,0,0,0,0,2,0
58.085,-1,-1,-3,-1,-2,-3,-4,-1
58.09,1,0,1,4,-5,-3,-5,-2
58.095,-4,-2,2,-5,-3,-4,-3,-1
58.1,-1,-1,6,0,1,-1,-1,-1
58.105,-2,-1,3,-1,-2,-1,2,-1
58.11,-1,-2,-1,-4,0,1,-1,0
58.115,1,0,-3,-1,0,0,0,-1
58.12,-1,-2,-4,-1,-1,-2,-4,-3
58.125,-1,-1,-2,-1,-1,0,0,-2
58.13,-1,-2,-2,0,-1,-2,-1,-2
58.135,-1,-3,-3,-2,-1,0,0,-2
58.14,-2,-3,-4,-3,-2,-2,-2,0
58.145,-2,-2,-1,-1,2,0,0,0
58.15,-1,-1,1,-2,-3,1,-2,-1
58.155,0,-1,0,0,-3,-1,-2,1
58.16,2,1,1,0,0,-1,3,-1
58.165,0,-1,-2,0,-1,0,-1,0
58.17,-1,1,-2,-3,0,0,-2,-1
58.175,2,2,1,2,-2,-1,-2,0
58.18,-1,-1,1,0,-3,-3,-1,-3
58.185,0,-1,0,-1,-1,-1,-3,1
58.19,2,0,-2,-1,-1,-2,1,-2
58.195,2,0,1,0,-1,-3,-2,-1
58.2,-2,0,-2,1,-1,-2,0,-1
58.205,-2,-1,-1,-3,-2,0,-2,0
58.21,-3,-2,-1,-4,-1,0,-1,1
58.215,-2,-2,-2,-4,1,0,-1,0
58.22,1,0,-1,-1,-2,0,-1,-1
58.225,-1,0,-2,-1,0,-2,0,-2
58.23,-1,2,0,1,0,-2,-4,-2
58.235,0,-2,0,-1,-3,0,1,-2
58.24,7,-1,3,4,-3,-3,-2,1
58.245,-2,-2,0,1,-4,-3,-1,-3
58.25,2,-1,0,-2,-1,-3,0,-2
58.255,-3,-3,-2,-3,0,0,-1,-1
58.26,-6,-3,-4,-6,1,0,-3,-3
58.265,12,-1,-1,1,-1,0,-1,-1
58.27,5,-3,-2,-1,1,-1,-1,-1
58.275,10,1,-2,2,-2,0,-3,0
58.28,-2,-3,-3,-1,-2,-2,-2,-2
58.285,-4,-2,0,-1,-3,-1,-2,-2
58.29,-11,-2,0,-2,-3,-2,0,-1
58.295,-8,-1,-3,-1,0,-2,-2,-1
58.3,-7,2,3,0,-1,-2,-1,-1
58.305,-7,4,2,-3,-1,1,0,-1
58.31,-2,-1,2,-1,-1,-2,-1,-1
58.315,4,0,3,-2,-1,-2,-2,-1
58.32,16,-1,2,-2,0,-1,-1,-1
58.325,-6,-2,-4,-1,0,-1,-1,-1
58.33,-8,-3,-7,-1,-1,0,-1,-2
58.335,-7,-2,-13,-1,-1,-1,-3,0
58.34,-7,-3,-9,-2,0,-1,0,-2
58.345,2,-1,-2,-2,-3,-2,-1,0
58.35,0,1,5,1,-4,-3,1,0
58.355,8,3,7,1,-3,-1,1,1
58.36,1,0,-3,-1,-3,0,-3,-2
58.365,-5,-5,-5,-6,0,-2,0,0
58.37,-8,-5,-8,-6,5,0,-3,-2
58.375,-4,-3,-1,-6,2,2,2,-2
58.38,0,1,2,2,1,1,1,1
58.385,5,2,5,2,-3,-2,0,-2
58.39,4,1,2,1,-3,-1,0,-2
58.395,0,-2,0,0,-3,-1,-1,-1
58.4,-4,0,-2,-2,-1,-1,0,-2
58.405,0,0,0,0,-2,-3,-4,-2
58.41,2,-1,-1,1,-2,0,1,1
58.415,-4,0,0,1,-2,-1,-1,-3
58.42,-3,-1,5,-1,-1,-2,-2,-2
58.425,2,0,10,-1,0,-1,-1,0
58.43,2,-1,4,-1,-1,0,-1,-1
58.435,-1,0,1,0,-1,-1,-2,-2
58.44,-4,-1,-8,-1,-1,-2,-3,-2
58.445,0,0,-14,-1,0,-2,-1,-2
58.45,0,-1,-14,-2,-3,0,-3,-1
58.455,-2,0,-11,-1,-1,-1,-2,-1
58.46,3,0,-1,0,-2,-1,1,0
58.465,-1,-1,4,-3,-1,0,0,-3
58.47,-2,-1,9,-1,-2,-2,-1,-1
58.475,1,1,6,2,-1,-2,-1,-3
58.48,-2,-1,2,-1,-2,-2,-1,-1
58.485,0,-2,0,-1,-2,0,-1,0
58.49,1,1,2,-1,0,-3,0,-1
58.495,1,-1,3,-3,-2,-1,0,0
58.5,-1,0,1,-1,-1,-1,-2,-3
58.505,2,-1,-3,0,-1,-1,-1,0
58.51,0,-2,-3,0,0,0,-1,0
58.515,-1,-4,-2,0,1,-2,-1,0
58.52,2,-1,1,2,-2,0,-1,-1
58.525,0,0,-2,0,-2,-4,-2,0
58.53,-1,1,0,-1,-4,-2,-3,-3
58.535,-2,-1,2,-2,-1,0,-2,-1
58.54,2,0,-2,1,-1,-1,-2,-1
58.545,-2,1,-3,0,-2,-1,-1,-2
58.55,1,1,-3,-3,0,0,-1,-2
58.555,-2,0,-5,-1,-2,-2,-1,-1
58.56,-4,-1,-4,-3,0,-1,0,-1
58.565,-1,-2,-2,-1,-1,0,0,0
58.57,1,1,-3,-2,0,-2,0,0
58.575,-2,1,-3,-2,-1,-1,-1,-2
58.58,0,-3,-1,-1,-1,-1,1,0
58.585,0,-5,0,-1,0,-1,-2,-1
58.59,-2,-3,0,-1,0,1,1,-1
58.595,-1,-4,2,0,-2,0,-2,-3
58.6,2,-2,2,-1,-2,-1,0,1
58.605,-4,4,1,0,-1,-1,0,-2
58.61,-1,-7,0,0,0,-2,0,0
58.615,2,-3,0,2,-1,-3,-1,1
58.62,-2,0,-1,-1,-1,-1,-3,-1
58.625,-3,-1,-1,-1,-3,-2,0,-1
58.63,3,3,0,1,-1,0,-2,-2
58.635,-2,-2,-1,-3,-1,0,1,0
58.64,-2,-3,-1,-2,0,-1,-2,-2
58.645,0,0,-2,0,-2,0,-2,-2
58.65,-1,-1,-2,1,0,-1,0,-2
58.655,1,-1,0,0,-2,-2,-4,0
58.66,2,2,0,-1,0,0,0,-2
58.665,1,0,0,-2,-1,0,-1,-1
58.67,-4,-4,0,-3,-2,-2,-2,-1
58.675,0,-2,6,0,0,-1,0,-1
58.68,-1,-2,1,-1,-1,-1,-1,-1
58.685,1,-1,-15,-1,-1,-1,-1,0
58.69,1,0,-1,-2,-4,-2,-1,-2
58.695,4,5,26,2,-5,-5,-1,-3
58.7,-9,-4,38,-5,-1,0,-3,-2
58.705,-3,-4,-8,-3,1,0,1,-1
58.71,1,1,-46,-1,-1,1,-1,0
58.715,3,4,-48,3,-3,-3,-2,-3
58.72,4,3,-25,4,-4,-3,1,-1
58.725,-4,-1,5,-4,1,-4,-3,0
58.73,-7,-5,11,-6,1,1,0,-1
58.735,-9,-3,4,-7,3,2,0,2
58.74,5,-5,0,-1,1,1,-1,-1
58.745,12,-1,8,0,0,1,0,0
58.75,1,1,11,3,-3,-1,-1,-2
58.755,-5,-2,7,-1,-3,0,-3,-1
58.76,-12,1,-4,0,-4,-1,-3,0
58.765,-5,-1,0,2,-2,-1,-1,1
58.77,2,0,5,1,-4,-2,-1,0
58.775,-4,-2,2,0,-3,0,0,-2
58.78,-1,1,-8,-2,1,-2,-1,-2
58.785,2,1,-2,1,0,-3,-3,0
58.79,1,0,2,-2,-2,-3,-3,-1
58.795,-2,-1,-2,-4,1,0,0,-3
58.8,0,0,-7,-4,-2,-2,1,-1
58.805,0,-1,1,-1,-2,0,-1,-1
58.81,-4,0,3,1,-1,-1,0,1
58.815,3,-2,-1,-2,-2,0,-1,1
58.82,-1,-1,-2,-2,0,-1,0,1
58.825,-3,-2,1,-1,-3,-2,-2,-1
58.83,-1,0,0,-3,0,0,-1,-2
58.835,-1,0,-1,-1,1,-2,0,-2
58.84,0,-2,1,1,-2,-1,-1,-1
58.845,-1,-1,-4,-1,-2,-1,-1,-3
58.85,1,1,-1,0,-1,-1,-3,0
58.855,2,1,-6,0,-1,-1,-1,1
58.86,0,1,-3,2,-1,-2,-1,0
58.865,-1,-2,1,-3,0,1,0,-1
58.87,0,-1,3,-1,-2,-1,-1,-1
58.875,0,0,4,0,-2,0,-1,-1
58.88,-2,-3,0,-1,-1,0,-1,-1
58.885,-2,0,0,-1,0,0,-1,0
58.89,-1,-2,2,2,0,-3,-2,-1
58.895,-2,-2,6,-2,-1,-1,-2,-3
58.9,1,-2,-4,-2,1,0,0,1
58.905,-4,-1,-7,-1,0,-1,-2,-1
58.91,-1,0,-5,0,0,1,0,1
58.915,2,0,-3,2,-3,0,0,-2
58.92,0,0,1,-1,-2,2,-1,-1
58.925,-1,1,2,-1,-1,-1,-1,-2
58.93,1,-2,0,-1,-2,0,0,-1
58.935,0,-2,-2,0,0,-3,-3,-1
58.94,1,-2,0,-3,-3,-1,-1,-2
58.945,3,-2,0,-1,-3,-1,0,0
58.95,-3,-2,-2,-2,1,0,-1,-2
58.955,-3,-1,-2,-2,-1,-2,-1,0
58.96,0,-1,0,1,2,0,0,-1
58.965,-4,0,0,-1,-2,-3,-2,-3
58.97,-1,0,1,0,-2,-2,-1,-1
58.975,2,-3,-4,-3,-1,-2,-4,-2
58.98,-1,0,-3,-1,-1,-1,-3,-2
58.985,-2,1,1,1,0,-1,1,3
58.99,-2,-1,-1,-1,-1,2,2,0
58.995,-2,-3,-2,-3,-2,0,1,-1
59,3,-1,0,1,-3,-1,-2,-8
59.005,1,0,0,-1,-3,-2,-2,-3
59.01,-3,-1,0,0,0,-1,-1,-5
59.015,3,1,-2,-2,1,1,1,24
59.02,2,1,2,2,0,2,2,8
59.025,-15,-10,-4,-5,-7,-9,-14,-34
59.03,2,-2,-3,-4,-2,-4,0,-1
59.035,5,2,-1,-3,0,2,5,18
59.04,-12,-3,-3,-2,-4,-6,-10,-22
59.045,9,3,-2,0,-1,0,4,17
59.05,-4,-2,7,-4,-5,-8,-13,-17
59.055,-9,-2,17,-4,-1,-2,-4,-2
59.06,-1,1,57,-4,-2,-3,0,-8
59.065,-3,-1,55,2,-1,0,-3,-12
59.07,2,-1,-5,0,0,1,2,9
59.075,6,3,-36,-1,-1,-1,1,8
59.08,-3,-2,-37,-3,-4,-3,-4,-3
59.085,-17,-4,-26,-1,-2,-5,-9,-35
59.09,6,2,9,0,4,1,6,14
59.095,-7,-5,-21,-4,0,1,0,-4
59.1,-1,-1,-40,-3,0,2,2,8
59.105,3,-2,-39,-2,1,4,1,12
59.11,1,-5,-28,-2,-2,-1,-3,-8
59.115,-1,-3,-7,-1,0,2,3,1
59.12,-6,-5,-2,0,-2,-2,-3,-1
59.125,8,1,7,-1,0,4,9,19
59.13,-1,3,9,1,1,2,4,3
59.135,1,-1,19,2,-3,-2,-2,-8
59.14,1,0,10,2,-2,-2,-3,1
59.145,-1,-1,2,1,-1,1,0,-1
59.15,0,0,2,-3,-3,-2,-1,2
59.155,-2,0,9,1,-2,-4,-5,-16
59.16,2,-1,-1,-1,-2,-1,-1,-1
59.165,0,2,1,-1,0,0,2,5
59.17,1,-1,1,-2,-1,-4,-2,-2
59.175,-1,2,4,3,-1,1,-3,-6
59.18,0,-1,-1,-2,0,0,1,1
59.185,6,1,-1,-1,-1,-1,1,7
59.19,-2,-1,-3,0,-3,-2,0,-1
59.195,-1,-1,2,0,-2,-4,-3,-9
59.2,4,1,3,2,0,0,2,3
59.205,-1,-1,-1,-1,1,-3,-1,2
59.21,-2,-1,-1,0,-3,-2,-4,-4
59.215,0,-1,1,-3,0,-1,-1,-4
59.22,1,0,1,-1,1,-1,0,2
59.225,4,-2,0,-1,-1,0,-2,1
59.23,-1,-1,-1,-2,-2,0,-1,0
59.235,-1,-1,1,-2,0,-1,0,-2
59.24,-3,1,-2,-2,-1,-2,-1,0
59.245,-3,0,0,0,-2,-2,-2,-2
59.25,4,-2,-1,0,-3,-1,-2,-1
59.255,2,-1,0,0,-2,-1,-1,-5
59.26,3,-1,-1,0,0,-1,0,1
59.265,-4,0,0,0,-2,-3,1,0
59.27,-7,0,3,-1,0,0,-2,-1
59.275,-2,1,0,-1,-1,-1,-1,-2
59.28,4,1,1,0,0,0,-1,1
59.285,9,0,5,-1,-3,0,-1,1
59.29,5,0,3,1,-2,-1,-1,-1
59.295,21,-1,-3,0,-2,0,-5,-3
59.3,12,0,4,1,-1,-4,0,-1
59.305,6,-2,2,-2,0,1,0,0
59.31,-14,-2,-5,-3,-1,-1,-1,-2
59.315,-23,-1,-7,-2,-2,-1,-3,0
59.32,-16,-2,-13,-4,-2,-1,-2,1
59.325,-13,-1,-11,1,-3,-1,-1,0
59.33,-4,-1,-7,-3,-3,1,0,0
59.335,-2,0,-3,0,-2,-1,0,-3
59.34,0,-1,-1,-3,-1,1,-1,-1
59.345,0,-1,-1,1,0,-2,2,-1
59.35,1,-1,0,1,-2,-1,-1,-1
59.355,0,-2,2,-1,-2,-1,0,-2
59.36,1,-1,0,-1,-1,-1,0,-1
59.365,2,-1,-2,-3,-1,0,0,0
59.37,5,-1,-1,-1,1,-1,1,-1
59.375,0,1,2,-2,0,-3,0,-3
59.38,-2,-1,1,0,-1,-1,-2,-1
59.385,2,-1,-1,-2,-2,0,-2,0
59.39,2,1,1,0,-1,-1,0,-1
59.395,-2,0,0,-3,-1,0,-5,-1
59.4,-1,-1,-2,-1,-1,1,3,-2
59.405,0,0,1,-1,0,-1,1,-1
59.41,-1,0,2,-1,0,-2,-2,-2
59.415,0,-1,1,1,-1,-1,1,0
59.42,1,-1,1,-2,-1,0,-3,0
59.425,0,0,0,-1,-2,0,-3,0
59.43,1,-1,0,-2,-2,-2,-3,-2
59.435,-3,-1,-1,-2,-3,0,-1,-1
59.44,0,-1,-1,2,-2,-3,-3,-1
59.445,-3,-1,-2,-1,2,-4,-2,1
59.45,3,2,3,0,5,8,6,5
59.455,-3,0,-1,0,-4,-1,-1,-3
59.46,-3,-2,1,-3,-4,-2,-2,-4
59.465,-3,-3,-2,-4,-4,-2,-6,-4
59.47,-3,-1,-2,-1,-1,-2,-2,-1
59.475,1,0,2,-1,2,-1,1,1
59.48,1,-2,-2,0,-2,-1,0,-1
59.485,2,-3,-1,0,0,-1,-1,-2
59.49,1,-2,-2,0,-3,-3,-2,-2
59.495,1,-3,-2,0,-2,-1,-1,-3
59.5,-2,-1,0,-1,-3,-3,-2,-3
59.505,2,0,1,0,-1,-1,0,2
59.51,0,-1,-1,1,0,1,1,1
59.515,0,-2,0,-2,-4,-4,-2,-2
59.52,-2,-2,-2,-1,-2,-4,-3,-1
59.525,0,-2,-2,-1,1,-4,0,-1
59.53,4,2,0,-1,3,5,9,1
59.535,1,-3,0,1,1,-1,-3,0
59.54,-1,-2,-1,-1,-3,0,-1,2
59.545,-2,-2,-3,-4,-2,3,0,-2
59.55,-2,-3,-2,-1,-3,-6,-6,-3
59.555,0,-3,-2,-1,-2,1,-1,-1
59.56,2,1,-1,1,-1,-1,-4,0
59.565,2,1,2,0,-4,-3,-1,1
59.57,0,-1,0,1,-2,0,-2,-3
59.575,2,0,-3,-2,-3,-3,-2,-1
59.58,0,1,0,-2,-1,-4,-5,-1
59.585,0,-3,-2,-2,0,0,0,1
59.59,-3,1,-1,-2,-7,-5,-6,-5
59.595,0,0,-1,-2,1,1,1,-1
59.6,3,3,2,1,2,1,10,4
59.605,2,1,2,-1,4,3,3,1
59.61,-5,-5,-4,-1,-5,-3,-10,-5
59.615,-4,-2,-3,-3,-4,-6,-7,-3
59.62,1,-5,-3,-2,-1,-1,2,-1
59.625,5,4,4,5,6,9,7,4
59.63,-3,-2,-1,-3,-2,-4,-2,-2
59.635,-1,-2,0,-2,-2,-3,-2,-2
59.64,-5,-4,-4,-3,-5,-4,-7,-4
59.645,-1,-2,-2,-3,-3,-5,-5,-5
59.65,1,-2,-2,0,-2,1,2,2
59.655,0,0,0,2,-2,-1,-3,1
59.66,4,2,2,2,3,5,6,3
59.665,-2,-4,-2,-1,-6,-2,-5,-5
59.67,0,0,-1,-2,-3,-3,-5,-2
59.675,2,0,0,0,-3,-5,-1,-3
59.68,0,-2,3,-2,2,2,0,-1
59.685,2,0,2,0,-2,2,-1,-4
59.69,-2,-3,0,0,-1,-2,1,0
59.695,0,1,-1,0,3,4,7,4
59.7,-3,0,-2,-1,-4,-7,-8,-4
59.705,-3,-1,-5,-2,-2,-4,-1,1
59.71,-1,-1,-3,-3,-2,2,-1,-4
59.715,1,-3,-3,-1,1,-2,0,-1
59.72,1,0,-2,0,3,0,1,0
59.725,-2,-3,-2,-1,-4,-3,-5,-2
59.73,-2,-2,-2,0,-1,-1,-5,-3
59.735,-2,-3,-4,-1,-1,0,-3,-2
59.74,-2,-1,-3,-1,-2,-5,-3,-1
59.745,-5,-1,0,-4,-2,-6,-4,-4
59.75,2,2,1,-2,3,4,7,5
59.755,1,2,2,0,2,7,6,2
59.76,2,3,1,2,0,3,0,-1
59.765,-3,-4,-4,-1,-5,-6,-5,-4
59.77,-1,-4,-2,-2,-1,-3,0,-2
59.775,-3,0,0,-2,-1,-3,-3,-2
59.78,-4,-4,-1,0,-1,4,-1,-1
59.785,-3,0,0,1,0,0,-4,-1
59.79,0,-1,-1,0,-3,-5,-3,-2
59.795,-1,-1,-2,-1,-2,-3,-1,-2
59.8,1,-2,-1,-2,-2,1,1,-1
59.805,0,-2,-1,0,-3,0,-3,-4
59.81,-1,-2,0,1,3,-4,4,1
59.815,3,3,4,2,7,9,7,5
59.82,-3,-2,-2,-3,-6,-5,-9,-7
59.825,-6,0,-4,-5,0,-4,-5,-5
59.83,-3,-2,1,-2,-1,-1,0,1
59.835,7,1,4,1,2,4,5,5
59.84,-3,-3,0,-3,-2,-2,-1,0
59.845,0,-3,-2,-1,-2,0,-3,0
59.85,-4,0,-2,0,-3,-5,-9,-5
59.855,-4,-3,-3,-4,-3,-6,-2,-3
59.86,-1,0,-1,0,-2,1,-2,2
59.865,2,-1,3,1,0,0,3,0
59.87,1,1,-1,-2,0,2,1,1
59.875,-1,-2,-2,0,-4,-5,-3,-1
59.88,1,-1,0,0,0,0,-1,-1
59.885,-2,0,-3,0,-2,-1,0,2
59.89,2,-1,-1,1,-1,0,-2,0
59.895,-1,-2,1,-3,-3,0,-3,-1
59.9,0,1,-2,-1,1,-2,2,0
59.905,2,0,1,0,0,-1,1,0
59.91,2,0,1,0,-1,3,1,-4
59.915,-4,-2,-2,-1,-5,-5,-7,-4
59.92,-3,-1,-2,-3,-1,2,2,-1
59.925,1,-1,-2,-1,-2,-2,-1,1
59.93,-2,-1,-1,0,-1,-1,-2,1
59.935,-2,-1,-3,-1,-3,-4,-5,-2
59.94,0,-1,2,0,-3,-1,1,-1
59.945,-2,0,-3,-2,1,0,1,0
59.95,0,1,-1,-3,-1,0,-1,-2
59.955,2,-1,-1,1,-2,-1,0,-1
59.96,-1,0,-1,0,-2,-3,-1,1
59.965,-1,-2,0,-1,0,1,-1,-1
59.97,0,-2,0,0,-2,-2,1,0
59.975,-2,0,-2,-3,0,-1,-1,0
59.98,-1,0,0,-1,1,-1,-1,-1
59.985,-1,0,0,0,0,-1,1,-1
59.99,-3,-1,0,-1,0,0,-1,-2
59.995,-1,-1,1,1,-2,0,-2,-2
60,0,-4,-2,-1,-3,-3,-4,-1
60.005,0,-1,0,0,0,0,0,0
60.01,0,-1,-2,-1,-3,-1,-2,-2
60.015,-3,-1,-1,-2,1,0,-1,-3
60.02,-1,-1,-1,1,-2,-1,-3,-1
60.025,0,0,0,0,-1,1,-1,0
60.03,2,0,0,1,-2,0,-1,-3
60.035,-1,1,0,-3,1,-1,-1,-1
60.04,1,-2,-1,0,-2,-1,0,-2
60.045,0,0,0,1,-3,-3,-2,0
60.05,1,0,-1,0,-2,0,-2,-1
60.055,0,1,-1,1,-1,-2,-2,-1
60.06,0,0,1,0,-2,-1,-2,-1
60.065,-2,-2,-3,-1,0,-2,-1,-2
60.07,-2,-3,-1,-3,3,-2,-2,0
60.075,0,-2,-2,-2,-2,0,-1,0
60.08,-3,-2,0,-3,-4,-1,1,-1
60.085,0,0,-1,-1,-2,2,1,-2
60.09,0,-1,-1,0,-1,-1,-1,-1
60.095,1,-3,-2,-3,-2,-1,-3,-2
60.1,-3,0,-2,0,1,-1,-2,-2
60.105,-1,-1,-3,-2,-2,-1,-3,-2
60.11,0,0,-1,-3,-1,-2,0,0
60.115,-2,-2,0,-1,-2,-1,-1,0
60.12,1,0,-1,0,0,-2,-3,-1
60.125,-1,-2,0,-1,-2,-1,0,1
60.13,-1,1,0,-1,0,0,0,2
60.135,-4,-1,0,0,1,0,-2,-2
60.14,-3,-3,-3,-2,0,-1,-2,-1
60.145,-3,-1,-1,-1,0,-1,-3,0
60.15,0,-3,-3,-3,0,-1,-1,-2
60.155,0,-1,-2,-2,0,0,-1,0
60.16,-2,0,-2,-2,-1,-1,-1,-2
60.165,1,-1,-1,-2,-1,-1,-1,0
60.17,0,-1,-2,-2,-3,-1,-2,-1
60.175,-2,-2,-1,-1,-2,-2,-1,-1
60.18,1,0,1,0,1,0,-1,0
60.185,2,-2,-1,-1,1,-2,0,0
60.19,-2,1,1,0,-4,-1,1,-1
60.195,3,0,1,0,-1,-2,-2,-6
60.2,-1,-2,-4,-2,-1,-2,-1,-1
60.205,-1,0,1,-1,-2,-2,-2,-1
60.21,0,0,0,-1,-1,-1,-1,-2
60.215,-1,-1,8,0,-1,-1,1,-1
60.22,-2,0,13,-1,0,-1,-2,0
60.225,-2,0,7,-1,0,0,0,-2
60.23,-2,-1,-3,0,-2,-2,-3,0
60.235,-2,-3,-12,-2,-2,-1,0,1
60.24,2,-2,-14,-1,-1,0,1,-2
60.245,-3,-2,-9,-1,-1,0,0,0
60.25,-2,-2,-4,-2,0,0,-2,0
60.255,0,0,-3,2,-2,-1,0,1
60.26,-2,-1,-4,1,-1,-1,-2,-1
60.265,0,0,-4,-1,0,-1,-3,1
60.27,2,0,0,-1,-1,0,1,-1
60.275,1,0,1,-2,-1,-1,1,0
60.28,-2,0,1,-3,-2,-1,-1,-2
60.285,-1,-1,-2,0,-2,-1,-2,-2
60.29,0,0,1,0,-2,-2,-3,-1
60.295,-2,0,1,0,0,-3,-1,-1
60.3,0,0,0,-2,-1,0,1,-1
60.305,-1,-2,-3,-3,-3,0,-1,-2
60.31,1,0,2,-1,-2,0,-3,-2
60.315,3,0,2,0,-2,-2,0,-2
60.32,-2,-2,0,0,-2,-3,-2,-2
60.325,-2,-3,0,-4,-1,-1,0,0
60.33,-1,-1,-1,-1,0,-1,0,-1
60.335,-2,-1,-2,-1,-1,0,0,-1
60.34,-1,-1,-2,-2,-1,0,0,0
60.345,-1,-1,1,-2,-2,0,-2,-2
60.35,0,-1,1,1,-2,-1,-2,-2
60.355,-2,-3,-1,-1,0,0,-1,-2
60.36,1,-1,1,-1,-1,0,-1,1
60.365,-5,-3,-4,-2,0,1,1,-1
60.37,-12,-7,-11,-10,4,1,0,-1
60.375,-2,-2,-4,-5,2,1,0,0
60.38,4,0,3,0,-2,3,1,0
60.385,14,8,9,10,-8,-5,-2,-1
60.39,10,4,8,10,-7,-6,-3,-3
60.395,0,3,2,4,-5,-5,-4,-3
60.4,-1,0,-1,1,-6,-5,-1,-2
60.405,-3,-2,-4,-2,-2,-3,-2,-2
60.41,-2,-3,-3,-1,-1,0,-1,1
60.415,-3,1,-3,-2,-1,0,0,1
60.42,-3,-1,-2,-2,0,-1,-2,-2
60.425,-3,-3,-3,-5,-1,-3,-1,-1
60.43,-1,0,-1,-3,2,2,2,0
60.435,0,-2,-3,-1,0,1,-1,-2
60.44,2,-2,0,1,-3,-2,-2,-2
60.445,-3,-2,-2,0,-1,-1,-2,-1
60.45,0,-2,-1,-1,-1,-3,-3,0
60.455,0,-2,-1,-1,-3,0,-2,2
60.46,-2,-3,-5,-4,-1,0,-1,0
60.465,0,-1,0,-1,1,-1,0,-1
60.47,-1,-1,1,0,-2,-1,1,-1
60.475,2,0,0,-3,-3,-1,0,-2
60.48,0,0,0,0,-4,-4,-2,-1
60.485,2,0,0,0,-2,0,-1,-2
60.49,0,-2,0,0,-1,-2,-1,0
60.495,-4,-2,0,-1,-1,-3,-1,-1
60.5,-1,-1,-2,-4,2,-1,-1,1
60.505,-2,0,-2,-2,-2,0,2,-1
60.51,-4,-1,-3,-2,1,0,-1,1
60.515,-3,-4,-2,-6,1,0,0,-1
60.52,-2,-1,0,1,1,0,-1,-1
60.525,-2,-3,-1,-1,0,2,0,-1
60.53,2,-2,1,-1,-4,-2,0,-2
60.535,-2,-2,-1,-1,-1,-1,-3,0
60.54,-2,0,0,-1,-2,-2,-1,-3
60.545,-3,-1,-3,1,-2,-2,-3,-2
60.55,-1,-2,-1,-4,-4,-2,0,-3
60.555,-1,1,-3,0,2,1,2,-1
60.56,0,-2,-2,-3,0,0,1,1
60.565,-1,-2,-1,-1,-1,0,-2,-1
60.57,0,0,-2,-2,-3,-1,-3,-1
60.575,-3,-2,-1,1,-1,-1,-3,-3
60.58,-1,-2,-2,-2,-2,-2,-2,-2
60.585,-1,-2,1,-2,-3,0,-1,0
60.59,-1,-1,-1,-1,-1,-2,-3,-1
60.595,2,-2,0,-1,-2,-5,-2,0
60.6,-2,-1,0,-1,-1,-1,2,1
60.605,4,1,0,-2,2,4,3,3
60.61,0,1,-1,0,-1,0,-2,-2
60.615,0,-1,-2,-3,-3,0,-3,-1
60.62,-3,-2,-2,-2,-3,-2,-6,-3
60.625,-2,-2,-3,-2,-3,-1,-2,1
60.63,1,0,-2,1,1,-2,0,-1
60.635,1,-2,1,1,-2,-1,-2,-2
