timestamp,ch1,ch2,ch3,ch4,ch5,ch6,ch7,ch8
27.5,-2,-14,-81,-11,-7,-10,-15,0
27.505,-5,15,86,5,-4,-9,-4,-5
27.51,-3,-1,-11,0,-2,-81,-22,-6
27.515,0,4,50,11,3,85,26,-11
27.52,3,-2,21,2,2,-21,-29,-8
27.525,5,2,-36,10,9,24,28,2
27.53,-16,-1,28,-8,8,34,-9,19
27.535,0,-11,-53,-5,-1,17,3,-64
27.54,5,-8,0,-5,-7,-14,9,98
27.545,1,-1,26,1,-9,-61,-3,-88
27.55,-4,0,-41,9,23,111,29,-43
27.555,9,13,73,5,0,-57,-51,-10
27.56,-23,-11,-1,-5,8,26,10,0
27.565,-5,-16,-49,-19,-10,-19,24,8
27.57,6,1,-8,5,-11,-37,-26,-6
27.575,-1,-13,-37,-7,-7,-42,-24,26
27.58,4,17,26,8,0,-29,11,-37
27.585,-1,-3,86,6,-6,-37,-11,13
27.59,-6,-1,-20,-14,-8,-38,-14,-6
27.595,-1,-1,-19,-3,6,58,15,16
27.6,9,17,27,11,5,30,9,31
27.605,-10,-21,-72,-10,-1,11,-28,-39
27.61,-7,-4,43,6,-7,-11,10,1
27.615,8,7,-28,2,3,3,76,101
27.62,1,-7,13,-4,-6,-1,-77,-30
27.625,-6,1,-2,-2,-15,-114,3,-20
27.63,4,9,30,10,16,113,12,-11
27.635,-11,7,-2,1,9,63,59,-67
27.64,-4,-7,-10,-1,-1,-3,29,-109
27.645,-5,-3,-11,-9,-10,-28,-12,11
27.65,-12,5,-3,-1,5,43,18,-15
27.655,15,-1,-32,-4,-6,-30,-4,85
27.66,-15,-9,7,6,12,35,-39,-39
27.665,22,17,57,9,3,29,52,26
27.67,-23,-24,-9,-20,-18,-62,-51,-106
27.675,-3,-16,-117,-2,-7,-3,-3,2
27.68,1,8,35,-2,-5,-5,-4,4
27.685,-1,0,-23,2,3,2,0,-5
27.69,1,12,2,-4,-4,2,2,0
27.695,1,7,-12,5,4,1,2,-4
27.7,1,0,-12,0,-1,2,0,0
27.705,0,-13,-51,-2,4,3,1,0
27.71,0,18,14,3,-2,-1,-3,-3
27.715,1,2,28,4,-2,0,2,1
27.72,-1,12,94,-9,-3,-5,-3,-1
27.725,2,-3,-7,-1,-1,-2,-4,0
27.73,-3,-2,-13,2,1,11,9,1
27.735,-4,2,-13,4,1,-6,-8,-9
27.74,-2,-6,-32,-7,-3,-2,2,2
27.745,-4,-1,-16,1,-1,1,-3,-1
27.75,-1,5,57,0,-3,-8,-5,0
27.755,5,16,58,5,-1,-4,2,0
27.76,-3,-5,7,1,1,-5,-4,-6
27.765,-1,-8,-30,-7,3,4,3,3
27.77,-7,-12,19,5,0,-4,-2,-7
27.775,0,3,-23,6,1,1,0,-3
27.78,-2,0,30,-15,-4,-3,-2,16
27.785,-4,-6,17,-1,-1,2,1,-8
27.79,3,-1,-43,-5,-1,-3,1,-5
27.795,-5,-12,-37,-4,2,2,-2,4
27.8,-2,1,-1,2,-2,-1,0,-3
27.805,-2,2,11,3,-2,-1,-2,6
27.81,-1,-2,-12,-4,-1,-9,-8,-2
27.815,0,-6,11,3,-3,12,8,43
27.82,-3,14,5,5,4,0,5,-25
27.825,-2,-19,-60,-26,-13,-6,-12,-11
27.83,-3,-1,8,-5,-3,-11,-7,-4
27.835,-2,-2,31,-1,0,17,2,-2
27.84,3,0,1,2,1,-6,1,4
27.845,0,4,-10,0,0,-1,-3,4
27.85,-1,5,20,6,0,2,2,-2
27.855,-2,-14,-76,-17,-2,-10,-3,-8
27.86,0,-6,46,-1,0,11,-1,13
27.865,-2,12,42,6,-2,-4,0,-15
27.87,0,-17,-19,-7,-4,-2,-2,-1
27.875,-3,7,2,1,2,-1,0,-2
27.88,-1,-11,-43,0,-2,-2,-4,-6
27.885,1,10,31,7,2,0,5,10
27.89,-4,-4,1,-5,-3,2,-1,3
27.895,-2,-10,-53,-2,-5,-6,-4,-13
27.9,1,12,20,-3,3,-3,-1,2
27.905,2,-10,-22,-3,-2,1,0,5
27.91,-1,5,26,4,2,6,4,-3
27.915,-3,-1,-44,-4,-4,-6,-4,-9
27.92,1,-3,-36,-1,-1,-2,0,1
27.925,-3,-5,25,-1,-1,1,-2,4
27.93,-3,-7,25,2,2,-5,-1,-7
27.935,2,5,16,0,-1,6,1,1
27.94,-4,-2,-34,-5,-4,-3,-2,-1
27.945,1,3,19,3,2,3,3,0
27.95,-2,-3,-70,-2,-2,0,0,-3
27.955,-1,-4,50,-4,-4,-9,-7,-7
27.96,-3,-4,8,2,1,-1,4,0
27.965,2,7,0,1,0,-8,-1,13
27.97,-4,-3,-22,-10,-1,26,4,-13
27.975,-3,3,-13,-3,-4,-12,1,-20
27.98,-6,-11,-17,2,0,14,-6,-8
27.985,3,6,16,4,3,-5,4,-7
27.99,2,3,21,3,0,-2,0,9
27.995,5,7,-6,-1,1,-1,1,3
28,-10,-8,-16,-7,-3,-7,-7,-5
28.005,-3,4,44,5,0,4,2,4
28.01,1,3,-22,4,-3,-7,-6,-3
28.015,1,-10,-62,-20,-10,-5,-6,-5
28.02,3,-2,9,0,-2,-7,-1,3
28.025,2,12,41,10,2,5,0,2
28.03,-4,-26,-60,-16,-5,-4,1,-2
28.035,-3,8,59,4,-1,-4,-4,-2
28.04,2,-2,-26,-4,1,3,-4,1
28.045,-12,-15,-26,-11,-7,-2,-4,5
28.05,6,12,26,5,0,-2,7,-13
28.055,-3,-4,-5,0,1,-2,-6,-22
28.06,0,4,26,2,-3,-5,-3,0
28.065,5,5,-29,4,1,-1,1,-3
28.07,0,2,-2,-4,-2,-5,-1,6
28.075,-6,-7,41,6,-1,17,10,17
28.08,4,-4,-1,-2,1,-1,-5,-33
28.085,1,-9,-34,-6,-2,-4,-5,-7
28.09,-3,1,29,5,3,-14,-4,6
28.095,-1,1,8,-3,-3,0,3,1
28.1,-2,1,-5,3,0,1,3,11
28.105,0,-9,-1,-3,-4,-4,0,1
28.11,3,5,44,1,-1,2,-2,-3
28.115,0,8,15,1,0,-4,-4,3
28.12,0,-4,-8,3,-3,0,1,7
28.125,-1,1,6,0,1,3,-3,-4
28.13,-4,-3,-35,-9,-3,2,2,2
28.135,-2,-3,-8,6,2,-3,-1,12
28.14,-1,-8,-38,-6,-2,-7,-2,-10
28.145,1,10,44,0,-2,5,-2,-2
28.15,-5,-2,-6,5,1,-1,-3,-5
28.155,-1,-3,-1,6,1,-12,-3,-3
28.16,0,2,11,-1,0,13,0,7
28.165,-2,-6,-17,-5,-3,-6,1,-2
28.17,0,1,-1,1,1,13,-3,13
28.175,-1,-2,7,-4,0,-5,1,-1
28.18,2,2,17,3,-1,-6,-2,-6
28.185,-4,0,-18,-1,-2,-8,-6,-14
28.19,-2,-2,-7,-3,-7,-18,-2,11
28.195,1,0,-22,0,3,2,-4,-14
28.2,1,0,-3,1,4,23,6,9
28.205,-1,-4,6,-3,-2,1,1,5
28.21,1,4,21,4,0,-12,-4,-1
28.215,2,-2,-14,-2,-1,-2,3,-12
28.22,-1,1,5,0,0,-4,-3,0
28.225,-2,-2,0,-5,-2,-6,4,7
28.23,-5,0,10,1,1,3,5,-6
28.235,-4,-9,20,-1,-3,-1,-4,3
28.24,-3,-3,-26,-7,-3,-8,-11,17
28.245,1,5,20,7,-1,-15,-4,-27
28.25,3,3,9,1,1,-2,3,-12
28.255,-2,3,11,1,2,6,-2,7
28.26,-4,-2,15,2,-2,11,89,-1
28.265,-1,-2,-14,-4,-1,-11,-76,0
28.27,0,-3,6,-3,-3,22,5,-19
28.275,0,2,-4,-3,-2,-22,-1,-1
28.28,-13,-11,-6,-2,0,12,-23,-7
28.285,-2,-5,-5,-3,-6,34,53,14
28.29,3,-1,-7,-1,4,8,-4,4
28.295,-5,1,19,4,0,11,0,-2
28.3,5,-5,-43,-11,-6,-23,-9,7
28.305,6,12,28,12,8,2,-7,-26
28.31,-3,1,18,0,1,15,18,21
28.315,0,-7,-12,-8,-8,-22,-18,6
28.32,-3,-1,20,8,-3,-55,-39,-5
28.325,-1,-1,-20,-6,2,37,27,-9
28.33,-11,-8,-7,-7,-12,-47,-5,-10
28.335,-9,-10,-19,-3,-5,11,7,-3
28.34,4,12,23,2,3,25,48,0
28.345,-9,-10,-16,-8,-8,-22,-84,2
28.35,7,8,12,4,3,2,14,-29
28.355,-2,9,25,12,1,-20,6,-3
28.36,-5,-18,-28,-13,-6,34,-13,14
28.365,4,1,-5,-6,-4,-22,1,-30
28.37,-15,-10,-2,-2,2,32,-38,-9
28.375,-2,2,7,2,1,12,5,3
28.38,-1,2,1,7,8,13,10,-49
28.385,-14,-22,0,-3,-5,-10,11,36
28.39,-1,-2,-19,-7,-3,-14,-3,-15
28.395,0,1,6,-1,-3,-11,-18,-23
28.4,-7,-3,-20,-1,-5,7,3,6
28.405,1,5,13,1,-2,11,36,37
28.41,10,-1,-29,-3,6,-14,-57,4
28.415,-4,-16,-20,-10,-9,-18,-2,-44
28.42,-5,6,-6,-1,-4,-15,28,33
28.425,-6,-12,8,3,0,15,28,-63
28.43,-2,3,10,4,-4,-7,0,47
28.435,9,5,14,3,7,28,74,47
28.44,-4,-10,14,1,0,0,7,-37
28.445,-6,-6,-19,-6,-7,-19,-38,-29
28.45,7,7,18,4,5,5,3,18
28.455,6,1,-17,-1,4,24,13,-43
28.46,-1,4,4,3,-2,3,-37,-31
28.465,-5,-3,-31,-4,-4,10,31,69
28.47,-5,13,14,2,1,-7,-42,-50
28.475,2,-16,0,1,-2,-18,-38,-1
28.48,-9,-9,9,-4,5,-12,9,-12
28.485,1,9,62,17,5,22,26,-8
28.49,8,-8,-65,-10,-3,-5,0,68
28.495,-9,14,25,-2,2,42,1,28
28.5,7,6,-5,8,0,-7,-57,-31
28.505,-3,-5,11,-2,6,39,3,-13
28.51,5,15,13,-2,6,11,89,-25
28.515,12,-4,37,-1,1,2,-25,-2
28.52,1,7,-54,10,-4,11,36,67
28.525,-4,1,7,-9,-13,-45,-25,19
28.53,-4,-4,8,-4,14,41,26,-17
28.535,5,13,-15,6,4,1,39,28
28.54,-9,-30,-21,-7,-12,-2,-22,4
28.545,-4,-11,-17,-6,-4,-18,1,-7
28.55,-6,7,12,-3,-7,-32,17,11
28.555,0,13,22,1,0,-6,-44,12
28.56,7,-2,23,2,4,34,43,17
28.565,-17,-17,-40,-3,-9,-20,-34,23
28.57,-3,3,23,1,-3,24,14,-21
28.575,-11,-22,-51,-16,-4,-15,17,59
28.58,-9,2,5,6,-5,-9,-41,-65
28.585,2,9,-2,10,11,2,13,-42
28.59,13,-6,-12,-6,-7,-1,1,76
28.595,-6,-3,31,4,-4,-21,-12,-61
28.6,-2,3,13,-8,-2,29,11,37
28.605,-12,3,2,7,7,-1,-28,-36
28.61,-6,0,3,-2,1,5,-17,-33
28.615,15,4,4,7,-4,5,-5,-17
28.62,-3,0,-14,-3,-3,-29,-23,20
28.625,5,-4,-19,-3,-3,-17,-11,-6
28.63,-2,4,45,2,0,9,25,3
28.635,0,-3,-48,-8,-4,22,-35,-30
28.64,-9,-3,27,0,-3,-4,24,20
28.645,-4,-8,-10,0,-2,1,0,-11
28.65,-4,-2,20,-3,-2,-5,9,18
28.655,-1,1,-16,-2,0,-6,-12,-22
28.66,-1,-5,18,-3,-3,-15,6,-9
28.665,-2,3,2,-5,-6,-22,-12,-21
28.67,3,-2,-26,7,6,22,8,-9
28.675,-2,-3,30,-3,-1,2,5,-11
28.68,-5,-2,-12,-4,-7,-5,3,0
28.685,3,4,-3,-3,0,2,-5,14
28.69,-2,2,-11,-5,-4,-9,-17,-15
28.695,-5,6,12,-1,-1,-4,3,4
28.7,1,3,1,8,7,-9,-3,-1
28.705,4,-1,8,0,-4,5,3,3
28.71,-4,-7,-37,-8,-10,-8,-8,-12
28.715,1,-3,30,-2,3,0,6,1
28.72,-4,-2,3,2,-2,-2,6,-4
28.725,2,1,-7,-7,6,15,2,0
28.73,-2,0,-1,13,4,-1,-6,-8
28.735,-4,-8,0,-6,6,-2,0,3
28.74,-6,-7,-18,18,-1,0,-1,-4
28.745,1,-5,41,-9,-6,0,-1,3
28.75,1,-1,20,-7,-7,-14,-11,-9
28.755,-2,0,-42,-1,-3,-4,1,-2
28.76,-4,-5,46,-8,-3,-2,1,-2
28.765,1,4,6,4,0,4,2,2
28.77,-3,-11,-32,-4,0,-2,-3,-3
28.775,-7,-8,60,-11,-6,-2,0,-5
28.78,-1,10,14,1,1,1,-1,-1
28.785,2,0,-83,-17,2,3,0,3
28.79,1,2,25,24,3,1,-3,-3
28.795,-1,5,-6,2,-2,-2,0,0
28.8,-6,-17,-69,-25,-3,-5,-1,-4
28.805,0,3,21,17,1,0,0,1
28.81,-1,26,79,-3,-1,-4,-3,-3
28.815,-1,-28,-41,-9,-10,-2,-1,-1
28.82,-1,6,62,-13,-9,-6,-2,-3
28.825,3,4,-40,3,2,2,2,1
28.83,-3,-4,-11,2,6,0,0,-1
28.835,-2,-11,-32,9,-3,-1,-3,0
28.84,1,23,4,-17,-8,-9,-5,-3
28.845,2,14,39,10,4,-1,0,0
28.85,0,-13,-75,-3,-4,2,1,-4
28.855,0,2,41,-4,3,0,-3,0
28.86,-5,-19,-40,10,-4,-4,-2,-4
28.865,0,-5,-7,-7,2,-2,0,1
28.87,2,16,-17,8,2,3,0,0
28.875,-2,-1,22,0,-9,-3,-1,0
28.88,-6,-9,-11,-27,-9,-6,-4,-5
28.885,1,10,6,11,8,3,3,3
28.89,2,-13,-14,10,14,10,3,2
28.895,1,19,-43,-5,0,-2,1,3
28.9,-1,-25,4,-6,-5,-3,-5,-3
28.905,1,3,13,-1,-6,-1,2,0
28.91,-6,-16,-22,-1,-2,-4,-3,-2
28.915,1,3,46,2,-3,-2,-1,-4
28.92,-1,15,49,-5,0,-2,-2,-3
28.925,0,1,-51,-8,-2,-1,-2,0
28.93,0,1,-38,1,-2,-1,-1,0
28.935,-3,-21,22,-3,-4,-4,-4,-2
28.94,-3,-12,-2,1,1,3,-1,0
28.945,0,13,-9,2,0,-1,-1,-2
28.95,-3,3,39,-7,-4,-4,-3,-4
28.955,1,5,-42,6,1,1,2,2
28.96,0,-11,-20,-10,-2,-4,-3,-2
28.965,-3,-4,-4,0,-1,0,-1,1
28.97,1,2,-16,-2,-1,-1,0,1
28.975,0,6,30,6,2,1,0,-1
28.98,-5,-13,-38,-10,-2,0,-2,-2
28.985,0,-10,-1,-2,-4,0,-4,0
28.99,3,18,4,9,0,2,1,0
28.995,-2,-20,13,-11,1,-1,-4,-3
29,-1,0,4,7,1,-2,0,1
29.005,-1,3,72,-2,-2,1,-2,-3
29.01,0,-7,-39,3,-1,-2,0,0
29.015,-3,-3,57,0,-1,-1,-1,-2
29.02,2,20,-32,-4,-3,0,0,0
29.025,-6,-23,-52,-10,-2,-6,0,-3
29.03,1,2,-32,-6,-3,-3,-2,-1
29.035,0,1,-10,4,0,0,0,-1
29.04,-1,-7,39,5,0,1,1,0
29.045,-1,-1,-74,0,0,-2,-1,0
29.05,-2,7,85,-4,-3,-2,-3,-7
29.055,-3,0,-39,-1,0,-1,0,0
29.06,1,3,-1,-1,1,-1,0,-1
29.065,-1,-2,13,0,-1,-1,0,2
29.07,-1,-9,-23,-1,0,-1,0,2
29.075,-2,-2,-27,-3,-5,0,-1,-4
29.08,2,15,30,13,3,0,1,1
29.085,-2,-3,-40,-9,-2,-3,-2,-5
29.09,-1,-2,28,-2,-2,-4,-1,0
29.095,0,1,-32,0,-1,-10,-7,-2
29.1,-2,-9,-38,-5,1,14,7,-1
29.105,5,12,36,8,1,-1,-1,-1
29.11,-4,-2,36,-2,-2,2,-2,-2
29.115,-1,7,53,2,-2,-4,-4,0
29.12,-3,-10,-57,-12,-4,-7,-2,-1
29.125,-2,-3,-5,-4,-5,-2,-3,-1
29.13,1,-1,26,4,-2,0,2,-2
29.135,0,-8,61,-3,-2,-1,-2,17
29.14,-2,10,-17,5,2,-1,-1,-21
29.145,1,-1,9,3,1,0,1,1
29.15,2,1,14,2,-2,-4,-2,1
29.155,-4,-9,-87,-16,-4,1,-1,-5
29.16,1,-3,16,-2,1,-6,1,5
29.165,-2,0,19,0,0,-2,-2,13
29.17,-1,-3,-7,3,0,-1,-3,-8
29.175,2,3,-23,-2,-1,4,5,-1
29.18,-1,-1,-17,4,0,-5,-8,3
29.185,-3,-11,-20,-8,-2,-14,0,-5
29.19,-1,2,-22,0,1,18,7,6
29.195,-4,2,37,-1,-4,0,-2,-14
29.2,1,-5,-29,3,0,-5,0,0
29.205,-3,-4,40,-3,-4,-3,-5,-5
29.21,-1,0,-16,-4,-1,-9,-5,0
29.215,-1,0,-30,-1,2,-1,1,6
29.22,-5,-3,-7,4,-1,3,-1,-16
29.225,-2,7,27,-5,1,-1,-3,1
29.23,1,-8,-66,-10,-4,-2,-1,-5
29.235,0,7,36,1,-5,-1,-1,-2
29.24,4,-4,-8,-2,-1,-2,-3,8
29.245,-2,-2,28,0,-3,1,3,-5
29.25,-2,-7,-11,2,3,1,-2,3
29.255,2,-4,-16,-4,-2,1,5,0
29.26,-1,3,19,1,-2,-1,-7,-6
29.265,0,5,-2,-2,2,2,6,5
29.27,1,-4,17,2,1,-5,3,8
29.275,-3,-8,-25,-5,-3,-11,-8,-11
29.28,-2,-3,17,-1,-1,18,7,5
29.285,0,-1,-8,-1,-1,-4,-6,-6
29.29,0,0,3,1,0,-8,-4,12
29.295,-4,-3,0,5,3,5,4,-12
29.3,1,2,-9,-7,-2,3,1,6
29.305,0,0,-3,3,-1,1,-2,-5
29.31,2,4,-4,-2,-3,-8,-6,0
29.315,-4,0,3,0,-3,6,4,3
29.32,-1,-2,-9,0,1,-6,-1,-1
29.325,-1,-6,26,1,1,4,2,-4
29.33,-1,4,-12,-1,-1,-3,-1,-5
29.335,-1,0,25,4,1,0,-4,1
29.34,0,-1,-42,-10,-4,-3,0,-5
29.345,0,6,5,3,0,-10,-7,1
29.35,-3,2,3,-2,-2,4,11,-4
29.355,0,8,6,2,2,1,-11,-2
29.36,-5,-10,15,-1,-5,-17,2,4
29.365,1,-7,-15,1,1,14,-1,-1
29.37,-4,-10,-15,-5,-3,1,4,-3
29.375,0,7,7,1,0,-14,-6,-2
29.38,1,1,15,-4,-4,4,3,9
29.385,0,5,-15,3,5,10,0,-23
29.39,0,-1,12,3,0,-3,-1,4
29.395,0,0,7,-1,0,4,-1,6
29.4,-7,-5,-1,-8,-4,-12,-12,-14
29.405,1,-2,-5,-2,0,-2,4,13
29.41,2,0,5,3,3,5,-4,-8
29.415,-3,-4,-3,0,0,-2,3,7
29.42,0,1,9,-1,-2,-5,1,-1
29.425,-1,1,-2,-1,-4,-2,-1,-3
29.43,-3,-6,-12,-4,-4,4,0,-4
29.435,-1,-2,0,2,2,-4,-4,-2
29.44,-3,0,17,0,1,1,-5,-4
29.445,-3,0,-14,1,1,-10,3,-2
29.45,0,-5,-1,-3,2,14,7,5
29.455,-3,-5,2,-5,-7,-7,4,-8
29.46,-1,-2,1,0,-2,-9,-2,5
29.465,0,1,-2,-1,0,16,7,20
29.47,-3,5,7,-2,-1,-16,-2,-30
29.475,0,-3,-7,-2,-5,-6,-7,-16
29.48,1,2,6,-5,-4,0,-3,9
29.485,1,-1,0,-2,-2,-6,3,12
29.49,2,3,-2,5,-1,-3,-1,-19
29.495,0,0,-8,-1,-1,-14,-8,5
29.5,-4,3,7,3,8,29,8,-6
29.505,3,0,9,2,-1,-1,-3,-2
29.51,3,3,-10,4,4,6,2,-1
29.515,-4,0,-5,-3,-3,-3,4,-9
29.52,-3,-3,-4,1,3,5,-8,-23
29.525,1,0,-5,-2,-4,-8,-4,-25
29.53,6,5,7,2,5,12,0,2
29.535,-5,-1,-1,0,1,19,10,12
29.54,3,-1,2,-8,-4,-13,-11,-23
29.545,-4,-4,-2,5,1,-4,10,36
29.55,1,2,4,1,0,23,1,-14
29.555,5,-1,-8,0,-1,-14,3,-35
29.56,-4,-5,5,-6,-4,14,14,33
29.565,0,-4,-3,-4,-5,-34,-20,-26
29.57,2,0,1,3,-1,19,6,-25
29.575,2,-2,-16,-3,6,4,-4,3
29.58,-3,4,27,1,-5,0,10,11
29.585,4,2,-31,-2,0,-19,18,15
29.59,15,4,18,5,-4,2,-18,9
29.595,-9,11,-29,-13,7,-10,-10,16
29.6,-3,-24,-15,-1,0,19,11,-21
29.605,8,21,21,-1,-10,-36,-20,78
29.61,-2,-23,-12,-2,-4,-20,-2,4
29.615,1,-1,13,8,-2,12,-14,51
29.62,-7,15,12,-1,1,32,-2,-68
29.625,9,-1,-10,-4,-2,30,-3,9
29.63,-23,-4,-3,-7,-8,-40,10,-72
29.635,5,-3,4,1,-3,-6,1,-108
29.64,-1,-1,-5,-3,-5,20,7,7
29.645,-15,-4,10,7,6,24,1,-46
29.65,-12,2,-7,-4,-7,-31,3,102
29.655,6,-47,-20,-12,-15,-47,-41,9
29.66,-13,-3,19,0,-1,16,6,7
29.665,-55,-15,-4,-9,-11,-29,38,-4
29.67,-8,0,15,-7,-23,-88,-54,-23
29.675,-20,12,-3,-5,2,-21,-27,-118
29.68,-1,-4,-15,-3,-2,-31,-34,21
29.685,1,-12,-21,1,-3,-29,-6,11
29.69,-35,-23,-20,-8,-4,59,49,69
29.695,-10,15,8,10,12,54,43,94
29.7,-9,-11,2,-3,1,-7,-7,-60
29.705,6,4,3,-1,-4,5,21,-23
29.71,16,-4,-13,1,0,-38,-51,20
29.715,-31,-12,-11,-5,-11,19,83,37
29.72,-4,-8,-6,-4,-5,-6,-55,86
29.725,7,4,7,7,11,18,9,-58
29.73,12,-3,-10,1,10,34,13,-89
29.735,-10,-5,6,-1,4,14,2,-4
29.74,11,27,5,2,-1,24,32,-118
29.745,-12,-14,9,0,-1,-34,-27,39
29.75,18,-1,21,3,15,-35,-27,115
29.755,-5,-32,-75,-10,-4,-52,-15,-58
29.76,34,17,17,9,16,8,14,34
29.765,2,2,-9,0,1,53,47,76
29.77,1,6,12,4,3,57,48,5
29.775,-4,2,9,-4,-15,-39,-43,-87
29.78,-8,-11,1,-2,-1,-82,-65,-23
29.785,6,1,-11,-8,-3,14,-14,-16
29.79,-11,-15,-14,-3,-5,31,36,29
29.795,1,0,8,-1,-3,9,7,-11
29.8,15,2,-5,-1,-6,-1,13,32
29.805,-26,-13,10,-3,-12,-23,64,83
29.81,11,-1,-15,-9,11,-14,-63,-128
29.815,-4,0,2,0,2,33,13,-46
29.82,-4,-11,1,0,-2,18,39,-6
29.825,19,6,-1,-3,-11,-64,-49,83
29.83,-27,-8,-11,-1,-3,31,28,-23
29.835,3,-1,2,0,7,-5,7,92
29.84,10,0,-4,-4,2,-34,0,48
29.845,35,3,19,9,7,78,13,-128
29.85,-10,7,-22,-8,-22,-62,19,-8
29.855,20,0,21,6,0,-17,-49,62
29.86,-1,28,-4,-4,-2,59,63,-28
29.865,23,12,0,7,11,14,-2,-2
29.87,-9,-8,9,2,-4,-44,-35,-11
29.875,4,12,4,5,7,33,32,-64
29.88,-9,-15,-13,-3,-8,11,9,44
29.885,6,13,2,-5,-11,-28,-19,-23
29.89,-3,-2,4,0,3,2,8,-17
29.895,6,7,-1,-2,-14,-7,-35,-78
29.9,0,-2,3,3,13,-20,16,43
29.905,-10,-1,-6,-2,-7,-4,40,-68
29.91,35,-6,-2,3,1,48,43,90
29.915,-1,11,7,2,4,-4,-33,29
29.92,-16,-7,9,-2,-1,27,29,41
29.925,-13,-11,-15,-5,3,0,-16,-12
29.93,-7,1,0,-1,0,-7,13,29
29.935,8,1,-8,-8,-10,-1,-5,24
29.94,18,4,7,6,0,-2,-22,-34
29.945,-3,3,3,2,5,-10,-3,21
29.95,-10,-11,-20,-4,-6,1,-17,-5
29.955,8,6,22,3,4,8,-2,1
29.96,-14,-13,-27,-6,-5,3,-21,-46
29.965,-6,-5,6,1,0,1,2,2
29.97,-5,4,3,-3,-6,-2,-19,-39
29.975,-4,-6,-18,-5,1,7,3,-9
29.98,-2,0,64,5,-7,-5,1,4
29.985,4,-3,-51,2,24,2,-10,-4
29.99,4,4,13,-3,-6,-4,-12,-9
29.995,1,7,30,5,-5,-2,6,21
30,-4,-11,-72,-10,3,4,-6,-9
30.005,5,14,49,-1,-4,-7,-13,-14
30.01,-2,2,35,24,10,10,-3,-12
30.015,-8,-14,-39,13,-7,1,6,9
30.02,0,5,14,-2,-2,-5,-11,-24
30.025,-4,-9,-38,-28,-9,-5,-7,-14
30.03,-5,1,20,-5,-5,-4,-1,5
30.035,1,5,32,1,5,4,0,6
30.04,3,-3,-16,7,-11,-4,-6,-8
30.045,-2,-11,-6,4,2,3,-1,3
30.05,-7,3,-74,2,0,0,-4,-3
30.055,7,11,31,-5,6,4,3,5
30.06,-8,-18,-96,-9,0,-3,-8,-11
30.065,0,11,93,6,-2,1,1,3
30.07,2,10,-17,45,4,-2,-5,-10
30.075,-3,-15,-99,-36,-3,-1,0,-1
30.08,-6,-18,45,8,1,-2,0,-2
30.085,3,3,47,3,-7,-5,-3,-2
30.09,-1,-9,-26,-18,-2,0,-3,-2
30.095,-1,9,51,10,1,2,1,5
30.1,0,9,-7,-4,1,-1,-3,-2
30.105,-3,-10,-50,-18,-12,-5,-5,-4
30.11,0,3,94,-4,4,0,0,-3
30.115,-6,-17,13,-10,-12,-2,-1,-3
30.12,0,1,-45,-3,7,0,-4,-5
30.125,1,12,51,0,-2,0,-2,-6
30.13,-3,-3,12,6,3,1,1,1
30.135,4,12,-18,14,3,2,1,5
30.14,-3,-10,40,-20,-8,-2,-3,-4
30.145,-2,-1,13,1,4,1,2,1
30.15,0,2,29,9,-2,-1,-3,-2
30.155,0,-9,1,24,6,1,0,-1
30.16,1,4,29,-9,-6,2,-2,1
30.165,-3,10,-36,-20,-5,-5,-3,-4
30.17,0,-35,4,0,-3,-4,-2,-5
30.175,0,8,25,18,2,1,0,0
30.18,0,4,-18,-3,-3,1,1,0
30.185,-4,-16,-11,-12,-1,-2,-2,0
30.19,-2,-7,-55,-4,-6,-3,0,1
30.195,-2,6,-1,-3,0,-1,-3,-1
30.2,0,-1,-62,-3,-2,-2,-1,-1
30.205,1,-7,13,-2,-3,-3,0,-1
30.21,0,33,29,-7,-6,-3,-4,-2
30.215,-1,-2,-25,-5,-3,-4,0,3
30.22,-2,-12,45,2,1,10,-1,11
30.225,-5,5,29,-4,-6,-5,0,-9
30.23,1,10,-39,-7,-2,-3,-3,-3
30.235,2,-4,13,0,0,-2,-2,8
30.24,-3,3,-13,2,-1,-6,-4,-20
30.245,-2,-6,-102,-6,-1,0,2,7
30.25,2,27,79,16,7,-1,-2,-9
30.255,1,-23,-66,-8,-1,5,5,0
30.26,-1,3,-25,-1,-1,-8,4,-6
30.265,3,3,25,2,-2,-1,-13,14
30.27,-2,-13,7,-1,2,25,26,12
30.275,7,18,-37,0,2,-8,-13,3
30.28,-2,-10,-7,-7,1,2,1,0
30.285,-1,11,18,3,-3,-3,2,-16
30.29,-6,-16,-113,-3,2,-6,-7,-7
30.295,0,12,24,5,3,5,8,39
30.3,-6,-4,-42,0,-2,4,-4,-23
30.305,-5,2,50,-5,-4,-5,2,41
30.31,1,-9,-68,-1,0,-7,-16,-31
30.315,3,13,-4,1,-2,-2,5,-17
30.32,-12,-21,-9,-4,-5,-5,-12,5
30.325,-1,-1,8,0,0,5,13,6
30.33,0,-5,-5,-3,-2,-1,-1,-2
30.335,1,0,29,6,3,0,-4,0
30.34,-3,3,33,-7,-4,-3,0,12
30.345,-2,-7,15,-2,-6,-1,-4,-8
30.35,0,-6,-52,-23,-8,-10,-1,20
30.355,3,4,14,1,4,2,-1,-34
30.36,3,3,14,6,2,2,3,-10
30.365,-7,-2,-4,3,1,2,-1,-79
30.37,0,-3,14,0,-5,-9,-2,41
30.375,-6,-4,-32,0,4,-2,-3,-4
30.38,0,7,97,-8,-2,-2,1,11
30.385,-4,-3,5,2,1,0,-4,-3
30.39,-4,-4,7,-1,-7,-6,-1,-17
30.395,-2,2,-12,-4,-3,1,2,15
30.4,2,4,-22,11,5,1,2,15
30.405,-3,1,2,-5,-2,-5,-10,0
30.41,-3,-8,29,1,2,1,0,-23
30.415,-1,-5,-47,-10,-7,3,4,6
30.42,3,4,1,-1,-3,-1,-1,41
30.425,0,-2,28,3,1,1,4,-7
30.43,-1,-1,-3,3,2,-4,-2,-4
30.435,1,1,23,-1,-1,-4,-4,2
30.44,2,-6,-22,-1,-1,0,1,10
30.445,-2,14,12,5,-2,-1,2,11
30.45,5,-7,-26,-16,-4,-5,0,21
30.455,-4,-5,8,2,-2,-1,-3,-20
30.46,-4,4,-7,5,4,3,1,-10
30.465,4,-7,2,-2,0,-1,-9,-9
30.47,-6,3,26,-1,-5,-12,-3,31
30.475,0,0,-11,-5,-4,-8,-7,-27
30.48,4,-1,-12,-2,0,9,-2,-41
30.485,3,-2,-12,-5,0,-4,5,9
30.49,2,0,14,0,-4,5,0,15
30.495,-8,-2,-8,0,-3,-1,2,-27
30.5,0,6,21,4,2,-1,-4,-1
30.505,2,-3,-13,0,4,3,3,-6
30.51,8,-2,-10,-1,-2,-1,-3,8
30.515,2,0,13,1,0,-1,1,13
30.52,-8,4,-2,-7,-7,-11,-5,-17
30.525,2,-2,-11,-1,-1,8,6,53
30.53,-4,-5,-7,5,2,-3,-10,-76
30.535,-10,-3,3,-4,-4,3,5,5
30.54,7,-1,0,-3,1,-11,-4,46
30.545,-2,-4,-13,-10,-12,-11,-10,-66
30.55,-9,-5,-7,1,6,17,3,35
30.555,11,11,17,7,2,2,3,23
30.56,-14,-14,-15,-9,-7,-9,0,-17
30.565,4,0,-5,2,4,16,16,33
30.57,-6,1,1,0,-3,-17,-26,-72
30.575,-3,-3,0,-3,-4,2,1,2
30.58,4,2,3,4,1,-4,-6,3
30.585,-17,-6,-7,-3,1,11,9,-10
30.59,-8,-3,1,-2,-3,-9,5,-14
30.595,1,0,-4,0,2,-2,-6,23
30.6,10,0,15,1,-3,-2,-2,-15
30.605,-7,-7,-21,-8,-9,-21,-5,-8
30.61,9,6,2,-2,3,27,2,28
30.615,1,10,30,7,6,-2,-3,-9
30.62,-11,-13,-19,-2,-2,10,23,26
30.625,-5,-2,3,-2,-3,-16,-29,-72
30.63,4,8,6,0,0,-9,10,3
30.635,6,-6,-10,-13,-8,-9,-7,30
30.64,2,0,2,2,1,5,-12,-28
30.645,5,9,22,7,1,-1,10,25
30.65,-9,-7,-20,-9,-2,4,-18,-49
30.655,-7,-8,-3,-6,-7,-18,-11,-57
30.66,-10,2,-2,4,4,12,-3,32
30.665,8,-4,-8,-5,0,15,11,31
30.67,-9,4,8,5,-2,-11,-11,45
30.675,-15,-9,-2,-1,-1,-4,1,-16
30.68,-3,-3,3,-3,-4,-1,19,7
30.685,10,-1,-29,-1,1,-18,-22,-24
30.69,3,14,22,7,-4,5,-5,-72
30.695,8,-17,-25,1,10,14,1,98
30.7,0,-3,-12,-17,-12,-27,-13,-69
30.705,-9,-4,23,7,6,-18,-1,1
30.71,19,0,-9,-1,-3,3,33,93
30.715,25,7,7,2,-6,-14,1,10
30.72,-2,15,13,3,1,-1,-16,-28
30.725,-11,-18,-7,-3,-7,15,54,127
30.73,12,7,-14,-4,5,19,-10,-89
30.735,15,-2,11,0,-4,-7,-3,127
30.74,-15,-2,0,2,7,16,-16,-47
30.745,-6,8,17,-1,-3,6,-27,-81
30.75,-30,-14,-13,-3,-2,18,44,118
30.755,-15,-1,-7,-5,0,-3,17,57
30.76,10,3,1,1,-2,-10,-3,-28
30.765,-7,-4,-10,-2,-2,-17,-38,20
30.77,-34,-9,-4,-6,-12,-25,-17,93
30.775,22,14,1,1,6,85,28,-80
30.78,26,3,4,8,6,4,-7,-52
30.785,56,-9,-10,-12,-9,11,60,90
30.79,9,0,8,3,1,-10,-5,-18
30.795,-35,-11,-5,-12,-25,-109,3,60
30.8,35,-5,-24,-7,-5,-6,62,28
30.805,12,7,-10,-3,-1,24,-29,41
30.81,-50,-14,0,-5,-14,-13,3,19
30.815,-35,1,9,2,-6,-32,-91,-116
30.82,-19,-12,-3,-5,-9,-13,15,32
30.825,13,15,18,-3,-4,-41,-61,27
30.83,-16,-16,-18,-4,-10,-47,-31,127
30.835,5,5,-2,2,4,-50,-39,-50
30.84,-54,-21,-24,-12,-20,-49,-22,-47
30.845,-20,-7,9,0,-6,14,-15,-74
30.85,-6,-4,-5,-3,-4,-51,-55,-15
30.855,27,14,10,18,7,28,2,28
30.86,13,-5,2,-7,11,55,46,53
30.865,21,-11,-28,2,11,-4,21,63
30.87,-14,5,2,1,1,-28,-48,-40
30.875,-47,-12,-7,-4,7,19,37,40
30.88,4,-9,-25,-6,-2,-12,-51,82
30.885,-6,13,5,7,12,-15,-10,-60
30.89,-12,-9,-8,-1,6,87,3,14
30.895,-7,14,14,1,-13,-48,-56,-85
30.9,25,1,13,4,-10,-4,-35,6
30.905,7,-14,-50,-11,0,15,-56,47
30.91,-8,1,6,1,-4,-8,18,-9
30.915,-5,-2,1,-6,-11,-34,-22,-36
30.92,14,8,14,9,22,63,52,-27
30.925,-17,-8,1,-5,-19,-61,-14,44
30.93,31,7,-4,8,19,53,25,-24
30.935,-10,-6,-1,-9,-14,16,16,127
30.94,16,9,47,4,0,-3,-48,52
30.945,17,17,-5,4,7,24,-45,-60
30.95,30,-12,-33,-5,1,33,16,90
30.955,-36,-16,-33,-10,-12,4,39,-57
30.96,23,9,11,1,-4,13,47,70
30.965,7,1,5,3,-3,-60,-34,16
30.97,0,11,24,-2,-18,2,-42,23
30.975,16,-5,-22,0,15,61,4,68
30.98,-49,-13,-36,-13,-6,-35,-73,-112
30.985,3,-2,7,-4,-5,-4,25,-28
30.99,-10,-10,-15,-1,-6,-48,-1,43
30.995,-4,2,13,-2,0,9,2,-19
31,-4,-1,1,-2,-4,-35,-16,-104
31.005,-3,3,-2,0,-1,10,29,29
31.01,-16,0,8,-2,-3,-5,-21,-35
31.015,9,8,18,7,6,31,4,-44
31.02,19,6,-2,8,6,17,21,7
31.025,12,-5,4,-9,-2,14,1,-45
31.03,-11,-10,-32,-4,-7,-25,6,2
31.035,8,7,12,2,9,23,14,20
31.04,8,10,12,2,2,-29,-8,-43
31.045,-7,-1,-2,3,2,3,33,84
31.05,-10,-4,5,-7,-2,-14,-7,-29
31.055,8,1,1,8,4,-4,-10,-15
31.06,-9,1,7,1,-3,1,13,-18
31.065,-7,-17,-9,-11,-7,7,5,10
31.07,-1,3,-11,-1,3,4,15,10
31.075,1,-5,-53,-3,-6,-10,-6,-10
31.08,-4,10,53,5,12,2,16,21
31.085,-2,11,64,5,5,-1,7,17
31.09,-3,7,3,5,-11,-15,-3,0
31.095,-3,-13,20,-38,-4,-13,-4,-13
31.1,-5,3,-65,26,8,-6,0,-7
31.105,2,-5,25,-4,10,10,10,11
31.11,-4,9,-79,18,-1,1,7,-9
31.115,0,-3,113,8,-3,-3,-7,-9
31.12,-1,-21,-64,-22,-21,-4,3,6
31.125,-10,-1,-52,-9,-2,-2,3,1
31.13,-3,-7,17,2,-3,0,7,9
31.135,5,8,-1,14,1,-4,-3,-1
31.14,-1,5,31,-4,-1,-3,0,4
31.145,-15,-37,-12,-13,-10,-3,5,1
31.15,-1,1,4,-12,-4,-7,-3,-5
31.155,-5,5,-22,0,4,1,-2,-4
31.16,-3,2,27,-8,-1,-5,-1,-5
31.165,0,0,-62,6,-2,1,1,4
31.17,-1,-1,61,-4,2,2,2,2
31.175,-5,-7,27,-6,-2,-3,-3,-6
31.18,0,9,-43,3,-5,0,3,5
31.185,3,6,-15,-7,-1,0,2,3
31.19,-4,-12,-20,-9,-6,-7,-2,-1
31.195,-3,0,-21,9,1,-6,-3,-5
31.2,1,-5,21,-19,-8,-3,-1,-2
31.205,1,1,13,-6,2,0,1,2
31.21,1,3,8,17,12,7,4,0
31.215,1,1,-25,9,2,3,-1,1
31.22,-10,-27,-3,-11,-6,-7,-4,-4
31.225,-1,19,7,7,-6,-5,-3,0
31.23,-4,-15,24,-16,-4,-2,0,-3
31.235,3,0,-51,-1,0,-1,0,2
31.24,-2,1,19,5,7,0,-1,0
31.245,0,5,13,8,1,1,3,0
31.25,2,0,-1,-4,-4,-3,-2,-3
31.255,1,4,49,7,0,-2,0,1
31.26,-6,-7,21,-7,-2,0,-2,-5
31.265,-1,-11,-78,1,1,1,0,-1
31.27,0,19,50,-3,-2,-3,-1,0
31.275,2,-5,-23,-6,0,-3,-2,-2
31.28,0,5,13,6,0,-1,-1,2
31.285,4,21,31,-6,2,0,0,2
31.29,1,3,19,-5,-2,0,-1,0
31.295,-3,4,-22,-11,-5,-5,-3,-2
31.3,0,-4,-20,1,-2,0,-1,-1
31.305,-2,-13,-6,1,1,2,1,-1
31.31,-1,10,5,5,0,0,-1,-1
31.315,-4,-11,-8,-3,-2,-1,0,-2
31.32,-1,1,13,-6,-3,-3,0,-1
31.325,-1,4,14,5,0,0,-1,-1
31.33,-2,-12,-33,-5,-4,-1,-1,-2
31.335,-1,2,11,1,-4,-1,-2,0
31.34,1,-4,2,0,2,2,0,-2
31.345,0,0,-12,1,0,-1,1,1
31.35,0,5,28,1,0,0,3,3
31.355,0,-1,-28,-1,3,4,2,1
31.36,-5,-2,21,-1,1,3,1,2
31.365,1,4,-5,-4,0,-3,-2,0
31.37,0,0,3,-2,0,0,-2,-2
31.375,5,5,20,2,0,0,0,0
31.38,3,7,-1,1,1,1,-1,-1
31.385,1,6,27,3,1,3,5,5
31.39,-1,1,-8,-2,-2,-3,-2,1
31.395,-1,-3,14,-2,-3,0,-2,-5
31.4,0,-1,11,1,-1,-1,0,-1
31.405,0,-1,-36,-7,0,-1,-3,-2
31.41,-1,1,30,4,0,-3,-4,-4
31.415,1,-12,-17,-1,-3,-2,-2,-3
31.42,-4,1,15,-6,-6,-6,-3,0
31.425,-4,-6,30,1,-1,-1,-5,-7
31.43,-5,-3,41,-7,-5,-5,1,1
31.435,-1,-3,-8,0,1,4,1,3
31.44,2,4,-1,6,0,-3,1,-2
31.445,-1,3,15,1,2,-1,0,5
31.45,2,-4,-10,-2,-4,2,-2,-5
31.455,-4,-11,-18,-7,-7,-3,-2,-1
31.46,2,4,23,5,1,0,-3,1
31.465,-5,-16,-29,-2,2,0,-1,-4
31.47,0,4,-37,-11,-1,-4,-2,-3
31.475,-2,-2,-7,-2,-3,2,-2,0
31.48,0,-1,12,2,0,1,-2,8
31.485,1,7,9,1,3,-6,-5,0
31.49,-1,-3,-21,2,0,-2,1,-4
31.495,-4,-3,21,-3,-4,-2,-2,-2
31.5,-4,-5,-25,-9,-4,-2,-2,-4
31.505,-1,-2,17,-3,-5,-5,0,5
31.51,2,2,-9,3,5,10,1,0
31.515,-1,-1,8,1,0,-4,-4,-2
31.52,-1,-3,-19,-4,-3,4,4,-2
31.525,-4,-1,28,2,-1,-3,-3,-27
31.53,-1,1,-8,-1,0,-3,0,4
31.535,0,-2,-10,-3,-3,-5,-3,2
31.54,-1,-3,3,0,0,-1,0,1
31.545,2,2,-1,-1,-1,1,-1,8
31.55,0,-1,18,2,-2,-2,1,-6
31.555,-1,-2,-15,0,-1,4,0,-2
31.56,-1,1,-4,-3,-5,-4,-3,-7
31.565,-3,-6,-5,-2,3,2,0,6
31.57,-1,-5,-12,-3,-1,-3,-1,-3
31.575,-1,1,-13,-3,3,-1,3,-3
31.58,0,7,33,-1,-2,1,-1,-5
31.585,0,0,-3,3,-2,-3,-3,4
31.59,0,0,-6,3,-1,-1,-1,-3
31.595,-1,-4,19,0,-1,-1,3,-2
31.6,-4,-8,-18,-4,0,1,-3,-4
31.605,0,7,15,2,-2,-1,-2,2
31.61,-1,-5,-23,-6,-3,-7,-2,-1
31.615,-1,0,-7,-3,-1,-2,-3,-1
31.62,-2,-6,-4,-2,1,1,1,-9
31.625,1,2,8,0,-4,-4,-7,7
31.63,0,2,20,6,0,0,2,5
31.635,-2,-3,-34,-4,-2,8,-1,-14
31.64,-1,-6,-2,-2,-4,0,2,0
31.645,0,2,1,-1,4,-4,0,6
31.65,-4,-3,-1,0,-2,0,-4,-1
31.655,-1,2,8,-3,0,-4,-4,-3
31.66,-1,-8,-6,-1,1,-2,0,6
31.665,0,2,-1,-2,-5,2,2,-4
31.67,-1,3,1,-1,0,-3,-2,-1
31.675,-2,1,20,2,-1,-3,1,0
31.68,0,-2,-6,-2,-1,0,-4,-4
31.685,-2,-5,-16,-3,-3,-3,0,0
31.69,0,1,9,1,0,-1,-2,-5
31.695,2,2,6,1,-1,-3,0,4
31.7,-1,3,-5,-2,-2,-4,-1,2
31.705,1,1,-1,0,0,4,-2,6
31.71,-4,-9,-15,-5,-3,-1,-4,-7
31.715,1,3,7,2,0,-1,0,1
31.72,0,0,-4,0,2,4,1,7
31.725,-3,0,0,-4,-7,-2,-1,3
31.73,-3,0,-7,-1,6,-2,-4,-15
31.735,-1,-1,10,4,1,-4,-3,-4
31.74,-2,-3,-4,-3,-1,-6,-5,3
31.745,1,-1,-10,-1,-2,0,8,11
31.75,-1,0,-1,-6,-6,-3,-4,3
31.755,2,-1,1,2,0,3,0,1
31.76,-1,3,3,1,-1,-4,-2,-7
31.765,-1,-5,-9,-4,-1,-4,-3,-7
31.77,0,4,14,1,-1,-3,3,3
31.775,-5,-8,-20,-9,-4,-2,-3,-2
31.78,1,3,-6,3,-2,1,-2,-1
31.785,-3,-1,12,0,-1,-3,-2,-6
31.79,0,0,-9,-1,-3,1,0,1
31.795,1,0,10,3,-2,2,0,9
31.8,-5,-1,-14,-3,-3,-3,-5,-12
31.805,0,1,15,0,3,-1,-3,-3
31.81,1,1,-2,0,3,1,1,6
31.815,-4,-4,4,-1,-3,-5,-1,-10
31.82,-1,-6,-6,-5,-4,-1,3,-8
31.825,0,1,-1,2,1,3,-2,6
31.83,0,-2,5,1,-2,-5,-3,0
31.835,1,-2,-4,-2,0,1,1,8
31.84,0,0,-2,-1,2,-2,-1,-7
31.845,-2,-1,-6,-5,-2,-2,2,-10
31.85,-2,-1,0,-1,-3,-6,-2,37
31.855,-2,-4,-6,-1,0,8,2,-15
31.86,-1,0,5,0,0,0,-6,-23
31.865,1,-2,-6,-4,-2,0,1,2
31.87,1,0,2,4,2,-3,-2,2
31.875,-2,-3,-1,-3,-1,1,1,1
31.88,1,-5,-9,-1,-4,1,7,12
31.885,2,3,28,-2,2,2,-6,-3
31.89,-3,-3,-30,-2,-3,-9,0,-13
31.895,-2,-2,10,0,-1,5,-6,0
31.9,-3,-4,3,-3,0,-1,1,-5
31.905,3,0,-20,-1,-4,1,0,-5
31.91,-1,-1,9,-1,-3,0,1,-7
31.915,1,2,7,0,2,-6,0,0
31.92,-3,-3,7,0,-5,-9,-4,9
31.925,-5,-4,-14,-2,-1,-1,0,3
31.93,0,2,15,1,1,3,-4,-15
31.935,-4,-3,-11,-4,-3,-6,-8,-23
31.94,-2,-2,-3,-5,-5,-16,-5,11
31.945,1,-1,-8,-1,-1,9,8,0
31.95,1,-5,2,0,2,3,2,-1
31.955,-6,-1,-1,-2,-4,-1,3,12
31.96,2,2,-6,1,4,5,2,-22
31.965,-3,-3,-2,-2,-3,-8,-7,-6
31.97,-4,0,1,-1,-1,1,6,1
31.975,2,0,-7,-2,-1,-1,2,6
31.98,-1,-1,2,-4,-1,-6,-10,2
31.985,-1,-3,-8,-1,-2,2,1,8
31.99,0,2,12,1,2,3,2,5
31.995,0,2,7,1,2,4,3,-10
32,-2,-8,-23,-3,2,2,-5,-1
32.005,2,1,-1,-5,-7,-11,-8,-8
32.01,-5,-5,0,0,1,4,2,-9
32.015,0,2,3,1,0,2,0,-2
32.02,5,5,15,2,-1,1,0,8
32.025,-1,0,3,5,7,7,1,-2
32.03,-1,-7,-12,-7,-9,-16,-8,-1
32.035,4,-2,-11,-1,-1,5,-3,23
32.04,-5,2,10,2,4,11,7,-31
32.045,-4,-2,-8,-2,-1,-9,-7,-8
32.05,-2,-2,-4,-5,-3,2,2,-2
32.055,-2,-2,0,0,-1,-7,-6,4
32.06,3,2,2,-5,-3,-2,3,14
32.065,-5,-9,-18,-5,-4,-2,-5,-19
32.07,1,1,0,1,4,4,1,6
32.075,-4,0,1,-1,-4,-19,-9,-41
32.08,-2,-1,2,0,-3,18,5,63
32.085,2,-1,2,-3,6,-5,-7,-20
32.09,-1,-4,2,-4,-10,-4,0,-34
32.095,-1,0,1,1,1,-6,-2,20
32.1,-1,5,5,2,-1,20,6,28
32.105,1,3,13,8,5,-5,-11,-73
32.11,5,0,-4,-6,-1,2,-7,20
32.115,0,6,11,2,-8,-15,6,36
32.12,1,-3,-9,2,13,13,5,-33
32.125,2,2,1,0,-7,-2,-16,-19
32.13,-5,-1,-1,2,-2,7,5,19
32.135,10,5,5,3,7,28,-6,-32
32.14,-9,-7,-5,-2,-3,-28,-3,30
32.145,-3,-2,-4,0,-2,13,11,68
32.15,-8,-5,-6,-10,-6,-2,3,3
32.155,4,6,8,2,-4,-28,-5,-2
32.16,7,-3,-9,6,5,19,6,0
32.165,-31,-10,-4,-10,-7,-32,-22,-53
32.17,1,-2,2,5,4,16,-11,-3
32.175,-8,-2,-5,-6,-3,-4,22,-3
32.18,-6,-4,-3,-8,-10,-52,-21,-15
32.185,1,0,-3,3,3,31,19,47
32.19,8,5,0,5,8,41,14,-77
32.195,11,-4,-12,-6,-2,7,36,60
32.2,11,4,9,5,2,11,-18,-74
32.205,4,0,3,-1,1,-27,-1,4
32.21,-4,-5,-8,-4,0,20,-26,-61
32.215,2,-1,1,-3,-1,-14,20,44
32.22,14,10,2,6,2,3,20,57
32.225,-6,-6,-2,1,-9,-42,-48,47
32.23,21,4,4,1,11,28,49,-6
32.235,-3,3,13,7,8,-10,-49,-92
32.24,-23,-11,-2,-3,-6,13,64,101
32.245,28,0,-23,-3,-7,-10,-5,-83
32.25,-1,3,16,4,9,-7,1,-40
32.255,4,3,-21,-6,-13,-15,-5,46
32.26,-24,0,5,2,2,12,-15,-83
32.265,15,-5,5,-1,1,-7,-34,-76
32.27,-11,2,-6,-3,-7,-31,-10,97
32.275,-14,-1,-4,0,-2,-3,30,-72
32.28,32,5,2,5,-2,-12,-18,-5
32.285,-39,-16,-9,-9,-6,-52,-60,-107
32.29,8,-1,-2,-5,-8,23,-47,-55
32.295,18,6,7,7,9,58,48,68
32.3,5,1,0,-9,-3,-17,5,61
32.305,-4,-5,-5,-5,-4,34,35,-85
32.31,16,8,6,7,6,4,-1,56
32.315,1,-12,-13,-9,-6,10,18,20
32.32,2,9,13,2,0,-15,-43,-86
32.325,-4,2,9,-2,-4,-31,-14,-80
32.33,-37,-24,-40,-8,-1,39,48,87
32.335,-11,-2,3,-5,-5,-20,-60,40
32.34,5,7,6,1,1,-28,-24,-103
32.345,16,3,-3,-4,-1,5,14,122
32.35,3,2,6,0,-7,-5,-1,-80
32.355,17,-2,5,-6,-5,-30,9,36
32.36,6,-11,-13,-3,-1,-27,-26,-29
32.365,37,11,-5,5,10,19,-12,34
32.37,-9,2,16,1,-6,-28,-14,-41
32.375,28,9,-1,1,3,-2,23,-50
32.38,-15,-12,14,3,-1,5,-27,-48
32.385,9,-13,-25,-5,-7,-14,3,99
32.39,-1,1,6,2,6,24,-8,23
32.395,-2,5,6,-1,-7,-21,4,-45
32.4,1,-3,-6,-1,-2,-5,13,99
32.405,-22,-8,2,0,10,90,55,54
32.41,-15,-1,-4,-5,-10,-39,-33,-111
32.415,-32,-18,-5,-2,-1,26,22,29
32.42,-1,7,-4,1,5,18,8,101
32.425,-11,3,3,2,8,30,41,23
32.43,1,-19,-13,-13,-15,-7,-6,25
32.435,1,10,6,6,4,-14,-39,-74
32.44,-5,-3,-12,-6,-2,-30,24,96
32.445,15,15,17,8,5,11,-13,-81
32.45,-31,5,-4,-1,9,6,29,-38
32.455,30,-2,-5,-3,-3,-20,-54,-117
32.46,-24,-13,2,-2,-11,-23,-11,6
32.465,-9,17,2,1,4,-3,-38,51
32.47,-34,-5,0,-2,-7,16,61,39
32.475,14,-3,1,4,11,16,8,28
32.48,-1,-9,-7,2,-4,-8,-3,18
32.485,10,4,9,-5,-14,0,-4,-20
32.49,4,-2,-7,0,4,47,43,72
32.495,-5,7,5,0,-6,1,-32,20
32.5,-30,-13,-10,-5,-5,7,20,-46
32.505,12,4,-3,1,11,29,-1,-128
32.51,-4,2,-5,-6,-13,-25,25,36
32.515,-29,-20,-1,-1,4,-12,-29,-44
32.52,-10,-7,0,-6,-2,-5,-7,-18
32.525,-14,5,-5,-3,-2,-15,1,-30
32.53,17,2,4,5,1,-23,-25,0
32.535,-29,-11,-13,-3,-3,17,55,71
32.54,25,10,-5,-1,-2,5,-3,-59
32.545,-7,-7,3,-6,-6,-35,-9,-4
32.55,27,-1,4,3,-2,-27,-20,-27
32.555,2,14,22,4,-5,6,-8,-51
32.56,-2,-12,-10,-1,3,9,16,34
32.565,-33,-25,-16,-7,-5,-34,-35,-21
32.57,12,25,20,0,0,4,0,-13
32.575,0,4,-6,5,8,14,-22,-24
32.58,-19,-13,5,-5,-5,-1,9,73
32.585,-14,-6,5,-7,-3,6,-1,-12
32.59,-3,-3,-24,0,3,-21,-30,-12
32.595,-13,-15,1,-7,-5,-12,10,79
32.6,3,16,-13,10,6,3,-9,-70
32.605,-14,-15,-15,-5,-5,-16,5,23
32.61,-2,-17,-22,-12,-11,-7,-18,-4
32.615,6,6,8,-22,-10,6,13,25
32.62,12,8,5,9,9,10,8,-19
32.625,7,12,15,32,11,3,-1,19
32.63,0,-12,-5,-8,1,-2,-11,-13
32.635,0,1,-3,3,-4,5,3,-7
32.64,2,3,2,-19,-10,-13,-13,-17
32.645,-4,-4,-4,-9,-6,-11,-1,14
32.65,2,6,47,13,-1,-5,-12,5
32.655,-5,-12,-88,-16,6,-3,10,10
32.66,1,-6,46,-1,-7,0,-6,-8
32.665,-1,-7,-22,-11,-5,-2,-3,11
32.67,4,7,16,-14,1,2,0,0
32.675,4,7,-3,32,10,6,3,7
32.68,2,-1,-9,1,2,-2,-4,-13
32.685,-2,-1,30,15,-8,-6,-3,-5
32.69,-2,-3,-13,-26,8,-1,-8,-1
32.695,-1,-1,-18,-3,-3,0,5,5
32.7,5,10,13,-15,-6,-3,-5,-5
32.705,0,1,19,33,-6,-9,-2,4
32.71,-2,-3,13,1,-1,1,-2,-1
32.715,3,-6,-23,-11,-2,-1,-1,3
32.72,-2,-2,-8,14,3,2,2,-4
32.725,3,3,-25,-18,-2,2,-1,5
32.73,-4,-5,23,7,3,-2,-4,-4
32.735,-1,4,35,2,-3,1,0,-1
32.74,1,-19,-41,-1,-4,-5,-4,-6
32.745,-3,5,44,-12,-6,-7,-3,4
32.75,0,23,-24,11,3,-2,-3,1
32.755,-2,-14,-32,-3,-1,2,1,2
32.76,3,30,42,17,1,1,-3,-2
32.765,-3,-36,-10,-16,-1,0,0,5
32.77,1,-5,-43,6,-4,-6,-3,-3
32.775,-3,0,8,-3,-9,-2,-1,-2
32.78,2,-7,-84,7,14,6,2,-1
32.785,3,15,90,-5,-1,-1,-1,-1
32.79,1,10,14,4,0,-1,-2,-2
32.795,-4,-10,-5,13,2,-1,0,0
32.8,3,-4,19,-23,-9,-3,-2,-1
32.805,-1,10,-5,26,2,1,0,0
32.81,4,-2,83,-1,0,-1,0,1
32.815,-2,6,-18,-9,-1,0,-1,2
32.82,-2,-9,-20,12,-3,-2,1,-3
32.825,-2,8,16,-20,-2,-1,-1,-1
32.83,-4,-14,-22,-8,1,0,-1,-3
32.835,1,7,41,3,-4,-3,1,0
32.84,-3,-10,1,-13,-1,-2,-2,-3
32.845,-2,2,-9,10,3,-3,0,0
32.85,0,-3,-27,-7,-1,1,0,2
32.855,2,8,1,20,-3,0,0,0
32.86,-5,-7,-19,-8,9,4,1,-1
32.865,2,13,32,-27,-24,-7,-5,-2
32.87,-4,-33,-81,27,8,-3,1,0
32.875,4,12,111,-36,4,2,0,2
32.88,-2,0,-94,84,-16,-7,-3,-4
32.885,-8,-21,-50,-26,18,7,1,-1
32.89,5,16,14,-15,-22,-8,-5,-1
32.895,-1,0,1,33,1,-1,-2,-3
32.9,1,5,65,-40,1,1,1,-1
32.905,-2,-7,-8,-28,-3,-4,-1,-2
32.91,-3,6,55,26,2,1,-1,-2
32.915,-8,-23,-53,-32,-7,-2,-1,-1
32.92,0,-12,-12,-9,-3,-4,-5,-2
32.925,4,14,-3,26,2,1,-1,1
32.93,-7,-7,-69,-36,-3,-3,-5,-5
32.935,2,-1,8,21,6,2,2,3
32.94,-4,0,62,-32,-7,-4,-3,-4
32.945,-2,-13,-31,15,1,-2,1,0
32.95,-3,-7,-17,-5,-6,-2,-2,-1
32.955,2,14,23,-5,4,1,1,1
32.96,3,15,3,8,6,1,4,3
32.965,0,-8,-19,-7,-5,-3,-4,-2
32.97,-1,-1,-36,-1,-5,-1,0,-3
32.975,0,8,75,-3,16,5,1,1
32.98,0,-13,-26,-3,8,4,0,0
32.985,-5,3,-5,12,-4,-4,-4,-2
32.99,-5,-5,-14,-10,-11,-7,-4,-2
32.995,-3,-11,-59,-3,-14,-8,-1,-4
33,1,-5,36,-6,-3,-3,-2,0
33.005,-4,4,-18,-7,0,-3,0,-1
33.01,3,-11,-20,4,0,0,0,1
33.015,-1,5,-2,-6,-3,-3,-2,-1
33.02,-1,7,27,0,0,1,-1,0
33.025,1,-7,-87,-3,0,0,-1,0
33.03,5,13,84,9,7,5,1,1
33.035,-3,-6,-78,-1,-3,-3,-4,-3
33.04,-2,9,44,-1,-3,-3,-1,-1
33.045,0,-7,-3,-4,-1,-1,0,-2
33.05,2,4,6,2,3,1,1,1
33.055,-2,-8,-21,1,-1,-2,0,0
33.06,1,9,16,-3,-6,-2,-4,-4
33.065,-2,-19,-21,-4,0,-1,-1,-2
33.07,0,1,-27,-3,4,1,2,0
33.075,-3,-7,-29,-3,-5,-3,0,-1
33.08,-2,6,-38,-9,-4,-4,-1,-2
33.085,4,14,76,8,3,2,0,0
33.09,-3,-4,24,4,2,1,0,0
33.095,-1,2,2,-2,-2,-2,-2,-2
33.1,0,3,8,-2,-2,1,-1,0
33.105,-3,-13,-26,2,0,-1,0,-2
33.11,-1,6,-42,3,3,1,1,1
33.115,2,8,83,-2,0,0,-1,0
33.12,3,5,-79,2,0,0,-1,-1
33.125,0,11,40,-1,-2,-1,-2,-1
33.13,-2,-19,-2,-2,-3,-6,-1,-1
33.135,-1,-1,4,-3,-3,0,-1,0
33.14,-3,-9,-24,-3,2,-2,-1,-2
33.145,-1,4,-10,0,-2,-2,0,1
33.15,-2,-6,42,-3,-1,1,-2,-3
33.155,-4,-12,-2,-20,-9,-6,-5,-4
33.16,-3,-7,-14,-7,-3,-3,-1,-1
33.165,1,3,-16,4,4,2,2,27
33.17,-5,-1,34,2,-2,0,4,-23
33.175,7,-11,-35,1,-3,-11,-14,1
33.18,0,5,59,3,-1,5,2,-14
33.185,1,-21,-43,-5,2,1,-5,1
33.19,4,34,-57,7,2,1,7,11
33.195,-5,-23,-28,-7,-2,2,2,3
33.2,-2,13,88,2,-2,-4,-2,2
33.205,1,0,-18,-2,-4,-4,-3,2
33.21,0,-2,30,1,1,0,-4,-7
33.215,-2,5,-1,5,0,-5,2,-9
33.22,0,-3,-57,-11,0,4,1,8
33.225,-5,-8,28,0,-1,2,3,-9
33.23,-2,-3,6,-4,-4,-2,-5,9
33.235,0,3,9,2,-3,-2,2,2
33.24,-4,-17,-2,0,-3,-8,-4,-9
33.245,0,12,-4,-4,0,2,2,2
33.25,-2,-7,-11,-5,1,0,-3,1
33.255,1,2,-16,8,5,3,-3,6
33.26,-2,2,-5,1,-2,-4,-2,-2
33.265,-2,2,28,-2,-2,-3,-8,-22
33.27,-5,-12,-28,-7,-4,-4,-1,9
33.275,1,14,22,-4,-2,0,2,-20
33.28,-2,1,44,-4,-2,-4,-11,-4
33.285,-1,1,2,-2,-5,-2,-1,7
33.29,2,-5,6,6,8,2,-2,-10
33.295,-2,4,17,8,3,2,2,14
33.3,-1,-9,-35,-5,-5,0,0,-3
33.305,-5,2,5,-6,0,-10,1,-23
33.31,-1,-6,21,-6,-8,6,-3,8
33.315,0,-5,-23,-4,-9,7,-6,-4
33.32,2,2,-2,5,25,-4,11,-8
33.325,-2,-5,-2,21,5,10,3,-3
33.33,3,-1,-6,-2,-9,-10,1,10
33.335,-1,2,7,2,0,-12,-11,-15
33.34,-4,-4,-10,-6,-5,12,7,18
33.345,-2,1,0,-5,-4,-16,-10,-11
33.35,1,4,38,-1,-1,-7,-1,14
33.355,-2,-17,13,6,-5,2,10,-16
33.36,0,12,-33,-17,1,-1,-4,6
33.365,-2,12,10,9,-1,2,3,-20
33.37,-2,2,5,-9,-3,-2,-10,-17
33.375,0,-7,-13,-3,4,-10,-12,26
33.38,-2,6,39,11,1,6,15,46
33.385,-2,-20,19,-7,-2,-3,-14,-34
33.39,1,3,-10,-1,-5,3,16,1
33.395,-1,7,-4,0,14,10,12,-17
33.4,1,-13,-29,5,-3,-7,-30,4
33.405,-1,3,-6,-2,-7,-2,8,24
33.41,-1,-2,1,-5,-14,-21,-4,-35
33.415,-3,-4,1,3,8,-2,11,21
33.42,0,2,-2,-7,-12,-16,-19,3
33.425,-8,0,4,-10,13,23,3,-28
33.43,7,-3,-22,16,8,10,-1,7
33.435,-1,7,8,-11,-14,1,-2,0
33.44,2,-8,-1,21,5,-13,18,20
33.445,-2,-9,25,-24,-24,-34,-29,7
33.45,0,6,-106,-10,15,11,16,32
33.455,-5,-4,13,7,-1,7,-5,24
33.46,3,4,24,0,-10,2,7,-20
33.465,-2,-15,-33,4,14,26,14,36
33.47,1,6,-11,-9,3,6,-9,-7
33.475,7,9,49,19,11,-9,-5,1
33.48,-15,-3,-22,-8,-8,-4,-8,-1
33.485,-3,-10,-33,-17,-11,-7,10,10
33.49,-7,-1,19,31,8,5,6,-44
33.495,1,3,-17,-27,-7,18,-5,21
33.5,7,-9,-2,2,-20,4,13,-24
33.505,-2,5,-6,5,8,-13,4,-1
33.51,-6,-10,18,-38,-36,-34,-30,25
33.515,4,-5,-11,5,6,-1,-15,-26
33.52,-2,1,5,11,32,23,41,14
33.525,4,2,-2,23,-10,-17,-15,-2
33.53,4,-10,46,-40,5,5,-7,-16
33.535,-3,-10,-70,30,-7,-1,9,-5
33.54,15,15,79,6,13,4,-6,-17
33.545,13,-14,-86,-72,-29,4,24,-5
33.55,-19,5,19,80,38,-8,-7,11
33.555,-11,11,42,-46,-35,-2,-4,-46
33.56,-11,-6,-40,35,24,4,-9,-7
33.565,26,7,28,8,-80,-42,-23,29
33.57,-26,-24,-103,-100,27,40,5,-84
33.575,16,23,28,98,109,19,6,32
33.58,11,-19,29,14,16,18,5,63
33.585,-4,12,2,-53,-55,-29,26,-21
33.59,6,-16,-7,-115,-74,-54,-55,-24
33.595,-40,-11,-30,11,-104,-45,4,33
33.6,-29,8,-3,-107,55,41,-9,-111
33.605,4,7,24,127,106,54,-5,46
33.61,39,13,-12,18,-13,-17,10,-7
33.615,-1,-3,32,-33,28,7,25,17
33.62,-15,-21,-51,-21,-79,-62,-39,-16
33.625,-24,-3,-2,-122,-9,20,12,-19
33.63,8,16,40,127,50,89,30,35
33.635,5,-5,-85,-58,-43,-53,-14,-7
33.64,11,3,44,65,62,41,-14,1
33.645,-5,-1,-31,26,28,-6,7,-11
33.65,-6,-6,39,-5,-14,-66,-19,20
33.655,10,-9,-18,-109,-69,23,17,8
33.66,-8,-6,-20,-7,-90,-63,-27,-28
33.665,4,9,4,-7,69,31,8,23
33.67,3,4,13,42,85,7,-8,8
33.675,6,-6,-2,52,-41,61,31,1
33.68,18,-1,-15,-59,-13,-32,-4,38
33.685,-5,6,40,42,-40,-13,-16,-21
33.69,-23,-13,-31,-65,-112,-61,-5,-31
33.695,2,8,15,-113,69,20,32,-17
33.7,1,3,6,111,43,1,8,38
33.705,-4,-6,-5,-70,-38,-32,-1,-8
33.71,11,12,11,93,50,73,7,-2
33.715,1,-7,-17,-19,10,-7,-31,-3
33.72,-1,4,8,-112,-61,-20,11,-1
33.725,-6,-15,-68,46,77,-37,-20,3
33.73,-5,9,33,-43,-57,15,-4,-14
33.735,-2,7,20,66,-1,-3,13,-4
33.74,2,-7,-37,-44,-26,2,8,-10
33.745,5,-8,-6,-41,-54,-27,-33,-11
33.75,-6,-7,-3,18,32,18,12,16
33.755,-4,5,22,-1,18,-9,-6,-66
33.76,2,-4,-5,36,9,22,5,72
33.765,-9,-10,-3,-21,-41,23,4,-9
33.77,-10,5,16,30,62,19,3,4
33.775,5,-8,8,-18,-55,-20,-1,-10
33.78,-1,5,-11,-88,-45,29,26,5
33.785,2,15,44,111,89,38,-8,-5
33.79,-15,-10,-8,-87,-85,-73,-8,-5
33.795,15,7,18,-50,-39,-2,-7,30
33.8,7,1,-1,100,48,51,17,-22
33.805,5,4,14,-113,24,39,10,11
33.81,7,-3,37,59,8,-33,-2,68
33.815,-36,-18,-102,-17,-84,-122,-55,-89
33.82,-10,-2,-16,-114,-40,-35,-33,-10
33.825,8,23,50,1,18,-18,19,15
33.83,20,6,-2,115,82,62,24,16
33.835,-31,-28,-46,-13,-32,-16,-40,-60
33.84,-8,1,15,-27,17,29,34,27
33.845,0,0,-4,84,42,-14,-1,2
33.85,-10,2,9,8,-32,17,18,-25
33.855,33,17,36,-3,53,53,27,55
33.86,-6,-2,-14,106,26,-21,-29,-47
33.865,-22,-12,-1,-29,-75,-94,-48,0
33.87,6,7,-3,-99,-17,41,18,14
33.875,10,4,20,96,112,45,-21,39
33.88,-7,-4,8,-51,-67,7,0,-86
33.885,14,11,20,82,15,55,-4,23
33.89,-15,-26,-40,-52,-47,-81,-24,-34
33.895,-7,8,19,-65,20,-42,-4,59
33.9,8,-3,-7,37,-21,-29,-41,21
33.905,-15,-3,-13,31,53,39,20,-23
33.91,2,5,17,-44,-35,5,6,-8
33.915,-2,-4,-12,21,-8,-9,11,-8
33.92,-3,-12,-9,-43,20,-3,18,-31
33.925,-1,-2,-5,-14,-48,5,8,0
33.93,0,10,36,29,49,-4,-23,33
33.935,-6,-1,19,31,5,29,37,1
33.94,5,-10,-30,-18,25,2,-7,-8
33.945,-6,-12,-18,-10,16,0,-11,7
33.95,7,5,-2,7,5,-7,5,-3
33.955,-1,0,25,11,14,28,-7,5
33.96,12,1,-4,-15,-58,-12,4,76
33.965,4,-1,-12,-21,-22,-27,2,-10
33.97,-4,-9,-17,-47,1,-7,0,14
33.975,-4,6,5,22,-5,8,4,2
33.98,-4,2,-4,21,31,-9,-1,-14
33.985,4,0,34,-12,-12,2,3,-13
33.99,-5,-12,-39,-39,-33,-5,-4,2
33.995,4,0,-61,14,24,4,-9,-15
34,-5,5,45,-11,11,-3,3,-13
34.005,-2,0,16,-1,-9,5,1,0
34.01,-3,3,-12,16,3,6,5,-10
34.015,2,-7,-32,-30,2,-8,-6,3
34.02,-3,-2,43,44,14,-1,2,8
34.025,-3,-15,-69,-44,-30,3,5,-3
34.03,4,14,23,19,14,1,3,1
34.035,-9,-7,64,24,-18,-21,-13,-10
34.04,-3,11,42,-10,21,10,2,1
34.045,4,3,-24,-6,-10,4,-1,-8
34.05,-1,-9,49,-19,-19,-4,0,-4
34.055,6,0,-5,9,19,7,1,8
34.06,-6,-5,-13,11,0,-3,2,-9
34.065,-8,-15,-49,3,10,4,0,-6
34.07,4,10,49,2,-16,-7,-1,5
34.075,1,2,-27,-20,-8,0,2,0
34.08,-1,0,-8,14,14,-9,-3,-1
34.085,1,-3,-32,-3,-4,2,0,-2
34.09,-4,-5,-19,-13,-6,-4,-4,-3
34.095,2,-3,-13,1,10,2,-3,-4
34.1,-3,4,6,8,5,-2,0,-3
34.105,-4,-7,-10,-20,-12,-3,-2,-3
34.11,-5,1,11,5,3,-2,-5,-6
34.115,0,0,28,9,-1,-1,-1,0
34.12,-2,-4,-36,-7,-3,3,2,-1
34.125,1,4,28,5,0,0,3,-1
34.13,-2,-7,-36,5,5,3,2,0
34.135,2,-6,18,-8,-4,-4,-1,-1
34.14,-5,-5,-48,-10,-9,-5,-2,-4
34.145,-2,-10,6,-10,-4,0,-2,-3
34.15,-2,2,43,4,-5,-5,-3,-1
34.155,2,7,10,-5,-1,-1,-1,1
34.16,1,0,-17,9,9,7,4,2
34.165,0,4,38,2,5,-2,2,-3
34.17,0,-11,-63,-8,-4,-1,1,1
34.175,0,4,13,5,9,2,0,0
34.18,2,5,71,5,-6,-1,-1,-1
34.185,-2,8,-43,-14,-3,-5,-1,-2
34.19,2,-2,-1,5,-3,-1,0,2
34.195,-3,0,22,4,0,-1,-3,-1
34.2,2,9,-28,0,7,0,1,0
34.205,-2,-13,-30,-5,-6,-1,-2,0
34.21,-6,-5,-19,-9,2,-1,-4,-5
34.215,2,4,12,1,-4,1,0,2
34.22,-5,-10,-16,1,-5,-4,-4,-1
34.225,0,9,64,0,-1,-3,-1,0
34.23,-1,-8,-87,-4,6,2,-1,0
34.235,-1,1,6,-2,0,0,-1,-1
34.24,-1,0,-33,-2,-8,-6,-3,-3
34.245,3,-3,5,4,-1,-1,1,-1
34.25,-1,0,94,-2,1,-3,0,-3
34.255,0,6,-21,-3,-7,-7,-1,0
34.26,0,-1,-26,-5,3,11,-1,-2
34.265,-1,1,40,12,9,7,2,1
34.27,2,-3,-16,-2,3,-3,-2,0
34.275,-4,0,-16,-5,-7,-6,-3,-3
34.28,-4,-5,-28,-3,-5,-7,-3,-2
34.285,0,14,60,3,0,-1,-1,0
34.29,0,-4,-28,1,1,2,2,-1
34.295,-6,-20,-54,-12,-4,0,-1,-4
34.3,4,11,32,12,4,1,-2,0
34.305,0,0,1,-1,-1,-2,-2,-1
34.31,-3,3,-33,-8,-1,-2,1,2
34.315,-4,-6,33,2,-1,-1,-1,-2
34.32,-2,-4,9,2,1,0,0,-1
34.325,-2,-5,-30,-6,-8,-5,-1,-2
34.33,0,4,69,5,3,0,-1,-1
34.335,-1,-6,-8,-2,-2,1,-2,0
34.34,-3,-7,-17,-3,-4,-3,-2,-2
34.345,-2,0,-17,-5,-5,-6,-6,-1
34.35,-1,-6,-61,-2,2,1,0,-1
34.355,-1,-1,32,-4,-5,-2,-1,-4
34.36,0,-3,7,3,1,-1,0,-1
34.365,-2,4,-14,-1,1,1,0,0
34.37,0,-2,51,7,1,1,0,-1
34.375,-3,4,-19,-6,-1,-3,0,-2
34.38,-3,1,13,1,-1,-2,-1,-1
34.385,1,-10,29,1,0,1,2,-1
34.39,2,16,35,3,-3,-1,-2,-2
34.395,0,1,-54,2,0,0,1,0
34.4,-3,0,24,-5,-6,-4,0,-2
34.405,1,0,-40,-2,4,-1,0,0
34.41,-2,-4,11,0,0,0,-2,-2
34.415,1,1,17,2,1,1,-2,0
34.42,2,4,-49,-3,-2,-2,-1,-1
34.425,-2,-5,64,-2,-6,-5,-4,-5
34.43,-1,7,17,-1,-4,-3,1,-2
34.435,-5,-31,-51,-11,-2,-3,-4,-3
34.44,1,5,1,11,4,1,0,2
34.445,-2,1,44,-3,-5,-2,-1,-2
34.45,-1,-9,-120,-14,-4,-3,-2,0
34.455,1,8,127,3,-3,-1,-2,-3
34.46,-3,-12,-48,-2,-1,-11,-4,-2
34.465,-5,8,61,-13,-7,5,2,-5
34.47,4,-8,24,8,1,-7,-5,0
34.475,-6,-9,-66,-3,1,5,7,-1
34.48,-1,-5,-28,-3,-3,14,3,-2
34.485,1,4,69,0,2,14,3,-1
34.49,2,5,52,4,-1,-20,-12,1
34.495,1,5,-41,-2,-5,0,4,-1
34.5,-2,-10,76,1,1,-8,-5,2
34.505,1,-14,-47,3,0,6,4,0
34.51,-4,12,-80,-9,-4,-2,-4,-6
34.515,-2,-10,-45,4,-1,-19,-7,-1
34.52,1,3,99,7,1,3,3,-2
34.525,-3,4,-128,-12,-4,-3,-4,-2
34.53,0,3,98,4,3,2,4,0
34.535,-1,-25,-92,-3,1,4,-1,-1
34.54,0,17,87,3,-4,-1,-3,-3
34.545,3,4,14,11,3,-5,-1,4
34.55,2,1,-35,-1,-2,2,0,0
34.555,-2,-5,-14,-2,1,4,0,0
34.56,-3,8,53,-5,-3,-1,-2,-4
34.565,-3,-15,4,6,3,-6,-1,2
34.57,-2,0,2,-14,-6,4,1,-3
34.575,3,31,114,10,4,3,-2,1
34.58,-1,-9,-48,-3,-2,-5,1,1
34.585,-5,-2,-69,-8,-5,-8,-2,-3
34.59,-5,-9,31,-4,-2,4,3,-3
34.595,5,13,49,7,0,2,1,0
34.6,-5,-7,-41,-16,-10,-8,-3,-3
34.605,4,0,35,7,4,-9,-1,1
34.61,-8,-23,-41,-2,0,15,2,-3
34.615,3,18,4,0,-2,1,-8,-3
34.62,-4,-18,-47,-10,-1,-4,3,-3
34.625,-1,-6,-19,-6,-4,-6,-10,1
34.63,-2,-13,-42,8,4,2,6,1
34.635,0,4,-69,-21,-6,-4,-2,0
34.64,0,1,-1,1,-1,-5,4,2
34.645,-3,-4,-6,-6,-2,13,6,-1
34.65,-1,9,20,5,3,-14,-9,-3
34.655,-4,-12,26,9,0,-4,-3,-2
34.66,3,3,15,0,0,8,3,1
34.665,-2,2,0,0,-1,-18,-7,-3
34.67,1,-1,-50,1,-1,-5,-1,1
34.675,-3,0,-4,-7,-3,-1,-2,-2
34.68,-1,2,48,3,3,32,9,0
34.685,-2,-9,-18,-5,-4,-15,-5,-2
34.69,-2,4,61,-1,-3,-1,1,-1
34.695,-2,-12,34,8,-3,-22,-4,0
34.7,-5,-16,-79,-6,2,-6,-6,-3
34.705,1,6,16,7,0,7,0,-3
34.71,3,-3,17,1,3,1,1,2
34.715,-5,-2,3,-2,0,1,2,-2
34.72,2,2,-18,1,-2,1,-5,1
34.725,-1,5,33,6,1,0,1,-1
34.73,-2,-3,-12,-13,-2,9,3,0
34.735,-2,-3,-27,2,2,8,3,0
34.74,-1,7,52,6,1,-6,-5,-3
34.745,-1,1,-76,-8,-2,-6,-2,-1
34.75,-2,-7,30,9,1,-6,1,0
34.755,1,4,14,-6,-1,15,1,-1
34.76,-1,-3,-49,-1,-1,-6,-3,-1
34.765,-1,-6,-19,1,-3,-5,0,0
34.77,0,9,-14,3,2,-11,-7,-2
34.775,3,7,74,14,6,32,8,2
34.78,-1,-10,-45,-10,-4,-10,0,0
34.785,-1,-1,29,-1,1,3,-1,-3
34.79,-4,-10,-45,-9,-6,-8,-3,-3
34.795,-3,-2,11,-4,-3,-16,-7,-1
34.8,2,6,34,2,2,5,3,0
34.805,0,14,-39,-3,-3,2,-1,0
34.81,-6,-21,-52,-9,-1,1,-1,-2
34.815,1,-1,0,-1,1,-3,1,0
34.82,-2,-3,-25,0,-4,-1,-3,-2
34.825,0,6,93,2,-1,-1,1,-1
34.83,0,4,-56,-4,-2,-1,-1,-1
34.835,0,3,39,-1,0,-3,1,0
34.84,-3,-1,0,4,1,-3,-2,-1
34.845,-1,-6,1,-1,-2,4,0,0
34.85,-1,6,35,0,-4,1,-1,-2
34.855,0,-4,-42,-11,-2,-2,-3,-1
34.86,-3,2,53,7,0,-9,-3,-1
34.865,0,-5,-72,-6,-2,2,2,-1
34.87,1,8,104,10,0,2,-2,-1
34.875,-2,-5,-5,3,1,-11,-11,-1
34.88,0,-3,-6,-1,2,4,5,0
34.885,-2,-6,21,2,1,-1,-4,-2
34.89,-2,-7,-35,-11,-4,-12,4,-1
34.895,-1,4,29,7,-1,7,-4,0
34.9,-3,-5,-19,-5,-1,1,2,-2
34.905,0,1,-35,-5,-2,-7,-7,-1
34.91,0,2,5,2,0,1,-1,-1
34.915,1,1,-5,-2,-2,-11,-1,-1
34.92,-1,-1,-23,-10,-5,-4,-3,0
34.925,-2,-6,-16,-4,-2,4,2,-2
34.93,3,5,86,13,4,2,0,-2
34.935,-6,-3,-81,-21,-3,-8,-2,-9
34.94,-1,3,-25,4,-1,4,-4,-9
34.945,2,-3,21,0,-1,-11,4,10
34.95,-2,-6,-10,-1,-5,-3,-16,-6
34.955,5,-1,19,8,1,19,16,0
34.96,-3,-3,48,-12,-3,6,-5,-2
34.965,-1,0,6,4,0,-5,5,10
34.97,1,1,-27,-2,3,5,-2,11
34.975,-2,-3,6,0,-4,-34,1,-21
34.98,-7,-1,-20,-4,-1,20,-18,-16
34.985,3,1,18,3,0,-26,-1,-5
34.99,0,-3,-53,-11,-5,45,14,16
34.995,-11,-4,-2,-4,-1,-15,-5,7
35,-3,-2,-29,1,3,-17,-5,18
35.005,-8,3,20,5,6,11,6,1
35.01,-8,-4,24,5,1,-3,-15,-23
35.015,9,3,-24,-14,-7,2,4,27
35.02,5,-2,6,19,-2,-5,-2,-22
35.025,2,-2,19,-10,-3,-13,4,-5
35.03,3,16,43,-64,-18,-15,5,-23
35.035,-9,-14,-46,89,11,-16,-19,1
35.04,3,5,-20,6,17,10,-7,-6
35.045,3,-11,-40,-12,-2,49,20,50
35.05,6,0,-4,7,13,56,13,25
35.055,7,12,47,-21,-4,78,46,-32
35.06,-1,-11,-50,-11,-9,-27,-10,53
35.065,4,7,24,12,1,-20,-18,-46
35.07,-7,0,-52,-6,-13,-62,-11,-14
35.075,-8,-7,16,-7,6,-18,-19,22
35.08,7,2,-4,4,-3,56,4,1
35.085,-5,2,8,-10,-2,29,18,6
35.09,0,-4,18,9,0,-25,-4,-13
35.095,-2,-7,-9,-9,-8,-33,-16,-16
35.1,5,1,-2,-4,10,17,19,-3
35.105,-4,7,7,8,-8,-3,-6,0
35.11,-5,0,-1,17,7,5,11,33
35.115,0,-4,-7,-7,3,27,-7,-40
35.12,-9,-3,27,-5,-9,-17,3,-23
35.125,3,-2,-16,-3,-1,-2,-9,7
35.13,5,0,-9,14,0,-16,2,3
35.135,-7,2,17,-14,-2,15,-3,43
35.14,-8,-1,17,-3,-9,-37,-14,-5
35.145,8,5,30,21,16,38,14,-11
35.15,-2,-12,-78,-15,-12,-6,10,9
35.155,1,-10,28,-12,-3,-32,-21,2
35.16,2,22,30,6,-7,-61,-13,-18
35.165,2,18,14,10,1,44,-11,45
35.17,9,-8,-1,-9,-1,-13,18,-23
35.175,0,-17,-50,-15,-11,2,5,-21
35.18,-14,-6,28,-10,-12,-41,19,-27
35.185,-2,-10,-39,-5,1,23,-8,51
35.19,-14,6,18,12,-2,-13,2,11
35.195,-10,-2,-18,-11,-4,-19,-13,-25
35.2,8,4,6,7,14,58,17,-50
35.205,-6,-10,-21,-20,-18,-59,-5,-16
35.21,-1,0,-3,8,11,53,13,-12
35.215,20,13,12,10,12,35,35,64
35.22,-5,1,-9,-4,1,-19,-38,41
35.225,3,-8,1,1,4,-8,7,-6
35.23,-11,-10,-15,-9,-9,-9,-15,8
35.235,-8,5,19,2,-4,13,-4,-40
35.24,7,-1,-5,1,3,40,18,24
35.245,-7,-7,-17,-8,-1,-54,-12,-10
35.25,-6,6,14,8,4,2,-20,-88
35.255,2,-9,7,-7,-9,-36,-24,-10
35.26,-11,-1,-24,-3,1,1,0,9
35.265,-1,9,68,2,-6,-40,-32,-2
35.27,-2,3,-23,-1,4,19,-2,18
35.275,4,-6,-31,-2,15,86,37,5
35.28,11,-7,-11,-6,-15,-62,-45,-94
35.285,-4,-9,3,0,5,51,28,44
35.29,-2,-2,28,5,6,7,6,10
35.295,-21,1,17,-3,-11,-75,-10,-53
35.3,7,3,9,-4,-3,-10,7,52
35.305,14,2,-19,0,-6,-16,30,-14
35.31,1,-12,-13,-1,3,4,-15,54
35.315,41,12,4,-1,-5,-10,3,23
35.32,-33,-13,-11,-5,-3,6,24,71
35.325,6,-1,-11,-3,9,60,57,-25
35.33,26,3,3,2,-16,-98,-69,-30
35.335,-22,5,9,3,3,-56,-27,-95
35.34,29,10,0,0,13,10,-12,83
35.345,-1,-9,-24,-12,-18,-48,-14,18
35.35,-16,-21,-7,-2,7,40,75,101
35.355,4,7,8,4,-1,-9,-55,-26
35.36,-13,-5,13,0,-3,-15,-23,-80
35.365,-21,-9,-27,-3,3,-8,0,1
35.37,19,7,-14,0,-5,-15,-40,-105
35.375,-7,-1,-3,-3,-11,-41,13,127
35.38,-1,-2,26,2,5,62,21,-50
35.385,13,12,45,9,-4,-5,-1,-61
35.39,-6,-8,-33,-10,-3,-1,-11,-84
35.395,-48,-17,-7,-1,2,50,78,74
35.4,17,11,4,6,7,-13,-13,-43
35.405,15,1,14,2,-2,-1,-4,86
35.41,28,-11,-26,-13,-16,-36,-25,-43
35.415,2,3,12,7,14,69,16,-23
35.42,3,8,22,0,-4,-27,-11,-16
35.425,12,6,-4,1,-1,11,3,54
35.43,-21,6,3,7,9,23,43,109
35.435,-45,-14,-8,-6,-9,-27,-22,-68
35.44,14,-4,-7,-6,-8,-4,42,-43
35.445,-19,13,8,-1,2,1,-22,38
35.45,-3,-35,-2,1,6,18,20,4
35.455,5,18,-9,-13,-6,31,22,-5
35.46,18,3,14,3,-2,-12,22,127
35.465,-25,-11,9,2,6,24,37,76
35.47,-32,3,-6,1,0,-4,-27,-46
35.475,8,-14,-10,-9,-1,7,11,36
35.48,-6,-2,-20,5,7,39,-8,27
35.485,19,4,-14,-5,-2,3,-7,-85
35.49,7,-7,-16,-2,-5,-4,11,97
35.495,9,11,50,8,3,-33,-27,-1
35.5,-19,-1,-31,-8,-5,-18,-3,-65
35.505,0,-5,1,2,1,-16,-55,-94
35.51,0,1,-6,-4,-7,-7,4,28
35.515,-20,-5,-10,8,7,47,54,127
35.52,-13,2,24,-10,-9,-17,-63,-48
35.525,-42,-32,-16,-12,-20,-31,-28,-54
35.53,34,13,0,-3,7,43,33,60
35.535,28,8,-6,0,5,-3,-15,-51
35.54,-16,-7,11,3,-2,-12,-8,91
35.545,8,5,0,-2,4,9,21,-20
35.55,-4,6,9,5,-3,-10,-19,-44
35.555,-2,-6,5,0,0,3,8,7
35.56,4,-6,-11,-2,-6,-1,-14,71
35.565,9,3,-4,-3,-3,-11,19,-92
35.57,0,1,2,-4,-6,-22,-1,-63
35.575,21,4,-6,7,15,10,3,81
35.58,-5,8,7,-5,-5,-35,-47,-87
35.585,9,0,-1,-1,2,-5,-2,15
35.59,-22,-12,-10,-4,-3,5,-1,-2
35.595,-1,-1,1,0,-3,4,-4,-30
35.6,0,0,8,3,2,2,7,16
35.605,-1,-1,-3,-3,-1,-2,0,7
35.61,-4,5,7,-1,-2,-3,-4,-25
35.615,0,-3,7,4,0,-2,-6,-17
35.62,-6,-8,-23,-9,0,2,8,24
35.625,-4,0,11,1,2,5,3,-1
35.63,2,6,0,-11,-8,-6,-8,3
35.635,0,-2,9,12,-4,-4,-4,-2
35.64,1,6,11,6,6,6,6,-18
35.645,-3,-11,-10,12,2,-6,1,20
35.65,-1,6,-2,-10,6,1,-3,2
35.655,1,-1,-48,-8,-2,0,-4,-19
35.66,-4,-3,18,1,-4,-2,5,-6
35.665,-1,-4,-2,-1,-5,-2,-2,12
35.67,-3,7,30,9,-1,2,-1,7
35.675,-4,-7,-1,-13,-2,-1,-2,-19
35.68,3,5,5,13,5,0,3,11
35.685,-1,-3,-4,-11,-3,-5,-1,12
35.69,-1,4,9,5,-1,0,-3,-13
35.695,-2,-3,-15,1,-1,-7,-2,-4
35.7,-2,-3,-2,-3,-1,1,1,5
35.705,-3,0,16,-14,-3,-2,-3,-1
35.71,-2,-4,-15,4,4,-1,-3,-7
35.715,0,-4,20,3,10,2,0,-3
35.72,1,1,-15,7,-7,-2,0,5
35.725,-4,-1,42,0,-1,-1,-3,-3
35.73,0,-3,-20,-1,-3,-1,-2,3
35.735,-2,-9,-49,-3,-2,0,-1,-6
35.74,-4,-7,46,-10,-5,-2,0,-2
35.745,3,11,-9,12,6,4,2,4
35.75,-7,-21,8,-19,-12,-6,-6,-7
35.755,3,7,44,12,2,0,0,0
35.76,-2,-8,-48,-5,-4,-2,-2,-1
35.765,-3,-5,20,0,0,0,-1,-1
35.77,0,5,-6,6,-2,-5,-3,-5
35.775,-3,-6,-3,-13,-4,-2,-1,-3
35.78,0,-2,-14,1,-9,-3,-1,-2
35.785,-2,-1,26,25,17,1,-1,2
35.79,0,3,36,-11,-10,-2,-1,-1
35.795,-2,-4,-52,5,2,-1,-2,-1
35.8,4,10,29,-9,-10,-2,0,-1
35.805,-3,-2,-8,-16,-2,1,-1,-1
35.81,0,-4,-53,17,0,-3,-2,1
35.815,-2,-13,16,-21,-7,-4,-1,-3
35.82,-2,-8,-52,-3,0,-2,2,0
35.825,2,13,52,9,1,-2,0,1
35.83,1,9,48,5,2,-2,0,2
35.835,-1,-7,-54,-11,3,-2,-1,-1
35.84,-2,15,-9,-7,-6,-4,-4,-4
35.845,1,-38,-14,16,-4,0,0,1
35.85,-4,5,-27,-15,2,0,0,-3
35.855,-5,-9,-13,-10,-5,1,-4,-3
35.86,0,-7,-12,4,1,1,-1,-1
35.865,3,10,-32,-9,-4,-2,0,1
35.87,-2,-5,20,-4,1,0,-3,-2
35.875,-2,-9,-21,6,1,0,-1,-2
35.88,0,2,-24,-3,-3,-2,-2,-1
35.885,-3,4,67,-5,-3,-3,-3,-2
35.89,-3,-11,-20,2,1,-1,-2,-2
35.895,-1,1,-19,-10,-5,-2,-2,-2
35.9,0,-1,10,24,1,2,-1,2
35.905,-4,1,12,-7,-4,-3,-2,-3
35.91,-4,-4,-17,-12,-5,-2,-1,-1
35.915,-2,0,-22,-8,-2,-1,-1,-1
35.92,0,6,48,5,-1,-1,-2,-3
35.925,-3,-14,-26,0,-4,-2,1,-1
35.93,-3,-10,-56,-9,-4,-3,-3,-1
35.935,1,-3,-11,4,-1,-1,0,0
35.94,3,12,55,-3,-2,-1,-2,-1
35.945,-3,2,-1,2,2,1,-3,-1
35.95,1,-6,33,-2,-2,-1,1,-1
35.955,-3,-2,-4,0,1,-2,0,0
35.96,-2,-3,-28,2,0,0,0,0
35.965,0,2,-40,-8,-3,-3,-3,-1
35.97,-2,0,-46,-7,-3,-4,-3,-2
35.975,-1,-4,-27,-2,-2,0,-1,-1
35.98,0,7,68,4,0,-1,-1,0
35.985,-4,-3,-15,0,-3,-2,0,-2
35.99,0,-1,-38,-3,1,4,3,2
35.995,3,13,15,5,3,1,2,0
36,-6,-11,-14,-6,-3,-4,-3,-3
36.005,-1,-4,44,1,-2,-1,-2,0
36.01,-2,8,58,2,-2,-2,-1,-2
36.015,-3,-8,-100,-6,0,-1,-1,-2
36.02,1,8,63,4,0,2,2,0
36.025,0,6,6,-3,-1,0,-3,0
36.03,-1,-5,0,3,-1,-1,-3,-2
36.035,-5,-12,-19,-2,0,-1,-2,-2
36.04,-1,-5,-50,-3,-1,1,-2,-2
36.045,0,4,1,-4,0,0,0,1
36.05,-2,6,-56,-10,-5,-2,-2,-1
36.055,0,1,60,4,-1,-2,-2,-1
36.06,-1,-10,-62,-8,-3,-2,-3,0
36.065,-2,-3,6,2,1,-1,1,-1
36.07,0,-11,-20,-3,1,-1,1,0
36.075,2,1,62,-2,-2,-2,0,1
36.08,-1,11,-33,-7,-4,-5,-1,6
36.085,-7,-3,2,2,-1,-2,-2,-15
36.09,1,5,11,1,-3,-1,-1,5
36.095,0,-3,-5,-1,-1,1,3,6
36.1,-7,-8,11,-1,-1,-1,2,-25
36.105,9,1,2,5,-1,-3,-4,7
36.11,-4,-1,-40,4,3,1,0,-5
36.115,-3,3,-10,-6,-5,-1,0,20
36.12,-1,-6,15,-1,-1,-3,-3,-2
36.125,-4,-7,-41,-5,0,0,4,5
36.13,3,2,25,3,-1,0,0,-12
36.135,-4,6,46,7,1,-1,0,-22
36.14,-1,-11,-82,-13,-4,-3,-1,15
36.145,-5,-9,-43,-5,-1,0,-1,-6
36.15,5,5,4,-1,-1,-2,3,55
36.155,-1,-2,29,-2,-1,0,-1,-12
36.16,2,-10,35,-5,-2,-1,-6,-20
36.165,2,10,51,3,-2,0,0,17
36.17,-5,-7,-37,-6,-1,0,-2,2
36.175,-7,-3,-26,-3,-2,-1,-7,-44
36.18,12,13,30,10,1,0,6,38
36.185,-12,-13,-39,5,2,2,-3,-48
36.19,-7,-17,-6,-12,-7,-5,-6,-4
36.195,2,11,-7,0,2,-2,-4,-4
36.2,3,-4,49,6,-1,0,1,21
36.205,6,10,-57,-1,1,-1,3,17
36.21,1,5,-11,1,-2,-6,-5,-24
36.215,-2,-11,3,-8,-4,1,-1,-17
36.22,-1,13,15,4,3,2,2,3
36.225,4,-7,-7,-8,-8,-3,-2,38
36.23,-2,5,4,0,2,0,1,-25
36.235,3,-6,-9,-6,-4,-9,-2,23
36.24,-6,-2,-6,5,0,0,0,-16
36.245,-2,1,33,-4,-3,-7,3,-2
36.25,4,1,20,-1,-5,-10,-16,1
36.255,-7,-4,-21,-6,-1,30,14,5
36.26,-11,-4,11,-2,2,11,1,-22
36.265,7,-4,-35,3,2,-5,0,8
36.27,-1,-1,15,-1,-3,-2,-1,18
36.275,4,4,-22,-1,-2,-26,-10,15
36.28,-12,-6,-29,-6,-4,-3,-4,-38
36.285,-1,3,25,2,0,-2,-5,-22
36.29,-9,-7,9,-2,-3,0,5,-2
36.295,6,6,-51,4,3,-3,1,18
36.3,-5,-12,32,-6,-4,2,-9,5
36.305,-4,3,7,-1,-2,9,8,6
36.31,1,1,1,1,1,-15,-23,-50
36.315,11,0,-7,4,3,23,20,28
36.32,-9,-3,-1,2,0,-3,1,-12
36.325,7,2,42,11,5,15,3,-16
36.33,-2,4,-78,-16,-2,-1,1,-6
36.335,-11,-3,68,4,-3,-24,-7,0
36.34,3,-3,-29,-5,-6,-7,3,5
36.345,-5,-7,-11,-5,0,7,-15,0
36.35,6,9,44,7,1,3,12,7
36.355,-10,-15,-10,-5,-3,-24,-16,21
36.36,-1,2,-18,0,-3,5,16,-17
36.365,-2,-5,-10,-4,-4,-18,-14,-10
36.37,3,3,26,5,4,28,4,-4
36.375,4,0,-5,-7,-4,-4,0,13
36.38,3,-2,13,1,-1,-2,2,8
36.385,-4,2,8,-2,-4,-6,1,-4
36.39,-2,-4,4,2,-1,-5,1,-1
36.395,5,1,48,1,0,-11,-4,-22
36.4,4,-1,-24,-3,-1,7,-5,2
36.405,-1,-2,-6,-3,-3,-7,-9,-26
36.41,4,4,54,5,-2,-12,10,36
36.415,-11,-9,-79,-10,0,23,1,-12
36.42,13,16,40,7,4,-7,-11,-2
36.425,-6,-5,-12,-4,2,9,10,17
36.43,-14,-12,-6,-5,-1,-3,1,31
36.435,-9,0,16,4,-1,1,-9,-72
36.44,1,-3,-4,-5,-8,-32,2,63
36.445,16,7,-14,-6,-4,12,-3,34
36.45,-7,-11,4,-3,3,1,-11,-65
36.455,-2,3,7,4,2,11,13,-8
36.46,-2,-3,-19,-7,-5,-12,-7,-2
36.465,-4,-6,8,-1,-3,-16,9,20
36.47,-4,3,-3,1,-2,-2,1,10
36.475,13,11,17,5,1,23,7,31
36.48,-13,-8,-3,-7,-4,-8,-9,-56
36.485,-9,-5,-35,-1,-2,-23,-10,-41
36.49,3,-2,1,-11,-3,5,0,36
36.495,4,5,7,5,2,11,-14,-56
36.5,-6,-3,7,0,2,4,-17,-12
36.505,-7,7,19,6,3,6,3,-39
36.51,-9,1,-24,-1,-1,-14,-9,-63
36.515,-6,2,30,5,-1,-7,8,15
36.52,6,-3,-19,-2,-1,8,-6,-1
36.525,-13,-11,4,-9,-1,23,22,68
36.53,15,1,3,3,-3,-21,-33,-31
36.535,-6,2,2,2,2,21,3,30
36.54,1,1,1,6,5,0,14,14
36.545,1,9,9,3,2,12,14,69
36.55,-5,-12,-3,-4,0,-22,-2,-12
36.555,-2,-10,-18,-6,-5,7,16,36
36.56,8,-1,-13,-3,4,12,10,23
36.565,-5,-3,6,-5,-7,-11,-28,-65
36.57,1,6,9,1,1,28,0,-22
36.575,-19,-9,4,-1,-1,-30,0,-13
36.58,9,-6,-8,0,-2,9,42,96
36.585,-5,-10,-17,-6,1,-26,-15,-57
36.59,9,11,9,3,-4,-11,-19,25
36.595,3,-5,-14,-2,-2,-14,25,6
36.6,-14,7,9,2,6,39,3,37
36.605,-11,-6,-1,1,-3,28,26,52
36.61,-7,-8,0,-7,0,26,34,107
36.615,3,8,1,4,7,-14,-25,-93
36.62,-10,-5,0,-3,-9,-29,-23,-11
36.625,-4,1,-5,0,-2,6,-2,-8
36.63,-15,-11,-9,-5,-6,-3,2,-22
36.635,-5,3,5,-4,-7,-7,18,1
36.64,21,-4,-12,-3,1,-13,-24,-72
36.645,3,2,6,4,6,0,16,45
36.65,-7,-2,-5,-4,-3,5,27,127
36.655,26,9,3,1,2,-49,-26,1
36.66,-12,-10,-5,-8,-7,1,11,21
36.665,20,12,6,3,-8,-39,-10,59
36.67,3,0,-1,1,2,2,-8,-81
36.675,-5,3,5,0,5,-12,-19,-43
36.68,2,-2,8,2,2,10,20,86
36.685,22,-2,-2,-6,-6,-23,-27,-73
36.69,-9,10,20,4,4,-4,-16,2
36.695,-10,-11,-7,-4,-2,18,24,-105
36.7,-9,-2,-8,1,4,14,0,-100
36.705,-19,-4,1,-7,-4,1,-1,18
36.71,18,-3,-3,0,-1,15,12,-58
36.715,8,-5,-11,-1,4,19,1,12
36.72,2,4,3,-3,-3,-13,-11,-34
36.725,10,-8,-9,-3,-14,0,53,107
36.73,36,19,5,2,9,14,-13,56
36.735,-28,-1,6,-4,-2,-5,-27,-51
36.74,30,13,16,6,6,6,1,-66
36.745,-4,-11,-17,-4,-3,-7,32,112
36.75,3,0,0,-3,0,-9,-28,-123
36.755,8,4,3,4,4,12,3,4
36.76,-7,0,-15,-4,1,-5,7,-13
36.765,-20,-6,-7,-5,1,-8,-59,-83
36.77,-21,-14,-5,-4,-1,-1,34,127
36.775,26,5,14,0,0,-23,-33,-37
36.78,-24,0,-2,0,-2,11,-1,-86
36.785,5,1,-10,-1,2,-17,-49,31
36.79,-10,-2,7,1,-4,0,19,9
36.795,-6,-6,-7,-9,-1,10,9,-33
36.8,16,1,5,5,-5,-15,-14,67
36.805,-59,-18,-5,-3,3,2,11,-81
36.81,21,2,8,3,-3,-26,-14,19
36.815,11,-7,-10,-4,-3,36,5,53
36.82,1,3,6,1,2,2,-3,18
36.825,7,-3,0,-3,-5,1,-17,35
36.83,-11,-14,-11,-8,-4,22,-10,-84
36.835,0,0,0,-2,-4,-6,1,-46
36.84,-9,-12,-4,-3,-1,-18,-10,-51
36.845,23,8,-2,0,-2,-3,-17,-42
36.85,-7,3,6,0,-2,-9,0,-24
36.855,-20,-7,-6,-1,0,15,25,75
36.86,23,12,7,1,3,14,10,-37
36.865,10,-2,-5,-2,-3,-3,11,4
36.87,-13,-3,2,-1,-5,8,-8,3
36.875,5,1,0,-1,-1,-5,20,-8
36.88,-15,0,6,7,2,3,7,70
36.885,4,5,-8,-3,0,-13,17,43
36.89,-4,-1,4,-2,-1,-14,-14,-36
36.895,-13,-5,-7,1,5,-2,2,-26
36.9,35,2,-6,-3,-3,-4,-17,117
36.905,15,10,10,7,1,6,28,-85
36.91,4,-1,0,6,14,0,-15,81
36.915,2,1,4,-4,-13,-38,-26,62
36.92,-11,-4,0,0,0,10,47,65
36.925,29,7,5,0,0,-12,-20,39
36.93,-4,3,-1,-2,-5,6,-25,-58
36.935,-10,-3,-2,-2,-3,-31,-4,27
36.94,-5,-8,-3,0,0,-4,-5,-23
36.945,-8,2,3,2,-3,-1,-6,19
36.95,-7,-3,-1,-5,-2,-16,-1,-42
36.955,4,1,1,2,2,16,-2,-69
36.96,-57,-20,-13,-10,-11,-15,-20,-99
36.965,22,0,8,0,5,30,10,-47
36.97,-5,2,-4,-2,-5,-19,0,-19
36.975,2,0,4,1,-1,-1,-2,-24
36.98,-3,-5,-17,-5,-6,-10,-11,29
36.985,-14,-2,2,-2,-2,5,-15,2
36.99,3,2,-1,-3,-1,15,26,10
36.995,14,-9,-10,2,1,3,12,55
37,3,7,9,1,5,8,7,-3
37.005,-20,-10,-6,-4,-6,-7,-20,-48
37.01,9,0,-6,0,-1,3,2,24
37.015,-3,3,3,-2,-1,-8,-4,-17
37.02,2,-3,4,-2,-1,4,-6,-15
37.025,-12,-2,-9,-1,-3,-4,-7,6
37.03,-13,-7,-4,-2,-2,-6,10,18
37.035,-14,-3,-3,-3,-1,4,-9,-16
37.04,3,3,5,-2,2,1,-2,-25
37.045,-2,-2,4,1,-1,1,1,14
37.05,-3,-1,-1,1,0,3,5,-11
37.055,7,2,7,0,0,-7,-8,24
37.06,5,3,-12,1,-2,-3,-4,-18
37.065,-9,0,5,-1,0,4,4,6
37.07,-2,-4,-12,-1,-1,-7,-5,0
37.075,2,-7,6,-4,-2,3,-1,-19
37.08,4,3,14,1,-1,-1,1,16
37.085,-4,-10,-35,-2,-3,-1,-1,1
37.09,-1,3,11,0,0,4,-1,-6
37.095,0,-1,-12,-1,-2,-7,-4,4
37.1,-2,3,12,2,0,-1,-1,-5
37.105,-1,-1,10,1,1,3,-1,11
37.11,0,1,-5,0,-1,-1,-1,-11
37.115,-1,4,-5,-3,-3,-4,-2,0
37.12,1,3,0,0,2,-2,-4,-1
37.125,-4,-1,-1,-3,-3,3,-1,-8
37.13,-1,-12,-2,-1,-2,-1,-1,7
37.135,4,-20,9,2,-2,0,1,2
37.14,9,51,-18,-5,-3,-3,-2,-2
37.145,-7,-18,3,-2,-2,1,-1,0
37.15,6,26,5,-1,1,-2,-1,-5
37.155,-4,-15,12,2,2,-1,-2,4
37.16,-2,-21,-26,-2,-2,-1,-2,-4
37.165,2,4,2,-4,-2,-2,1,2
37.17,-3,-9,-4,-2,1,-3,-3,-4
37.175,-1,8,6,1,-1,1,0,-5
37.18,-4,-10,1,-3,-2,-3,-1,1
37.185,0,8,-2,0,1,3,-1,1
37.19,-3,-14,0,-1,-3,0,-2,-2
37.195,3,8,-3,-4,1,-4,-3,0
37.2,-2,-5,12,0,-2,-2,-1,-3
37.205,1,0,7,-9,-1,-3,-1,3
37.21,-8,-19,-45,7,8,1,0,-4
37.215,-1,7,1,-8,-7,-5,-2,-3
37.22,-5,-7,39,4,-4,-2,0,-1
37.225,1,-2,-32,4,0,2,-1,-1
37.23,6,21,4,-7,-1,-3,0,0
37.235,-4,-10,-3,-1,1,-1,0,-2
37.24,-2,-10,-31,7,4,-2,-2,-3
37.245,0,0,39,-12,-5,-1,2,1
37.25,3,4,6,10,-4,-1,0,-1
37.255,1,7,-11,-5,0,-2,-2,0
37.26,2,7,4,-5,-6,-1,-1,-1
37.265,-2,-10,24,5,2,0,-2,-1
37.27,-4,-16,-16,-11,-4,-2,-1,-3
37.275,3,13,14,8,-1,2,-2,-2
37.28,2,1,-10,4,12,3,2,1
37.285,-3,6,2,-9,-7,-4,-3,-2
37.29,2,-8,9,9,-2,-1,1,0
37.295,-5,8,4,-13,-7,-3,-1,0
37.3,-7,-28,-25,8,3,0,0,-2
37.305,4,11,13,5,3,1,-1,0
37.31,0,7,2,-14,-4,0,0,-1
37.315,-4,-9,-67,15,2,0,-2,-1
37.32,1,-1,-6,-12,-8,-1,0,1
37.325,3,6,16,2,-1,-2,1,-1
37.33,-5,0,14,-7,-2,-1,0,-1
37.335,0,-1,-6,5,3,1,-1,0
37.34,-2,-5,-10,-7,-6,-1,-1,0
37.345,0,6,10,6,-3,0,-2,-2
37.35,-3,-9,24,-15,-5,-1,-2,-2
37.355,-4,5,-10,15,-3,-3,-2,-2
37.36,-6,-23,-7,-5,4,0,-2,-2
37.365,-1,11,44,-7,-6,-3,0,-1
37.37,1,9,-35,7,7,0,-3,-1
37.375,0,-2,2,-13,-7,0,0,1
37.38,1,-1,24,-3,-7,-3,-3,0
37.385,-2,1,3,10,1,-1,-1,-1
37.39,-6,-14,-24,-14,-6,-3,0,-1
37.395,-1,-6,13,2,-1,-1,-3,-3
37.4,5,15,-14,-3,-2,0,1,-1
37.405,-2,-8,-31,0,2,1,1,1
37.41,0,-6,25,5,0,4,3,2
37.415,1,-6,-17,5,2,2,1,-1
37.42,-4,-5,2,-7,2,1,0,-2
37.425,5,2,-31,-8,0,-2,-1,1
37.43,1,21,37,18,0,-1,1,0
37.435,-2,-13,9,-13,-2,-2,0,0
37.44,2,10,10,4,-1,0,0,1
37.445,-2,-7,-5,-2,3,1,1,-1
37.45,3,10,16,8,3,0,1,1
37.455,1,-9,-17,-4,1,-1,-2,-2
37.46,-2,-3,6,2,-1,-3,0,0
37.465,1,0,-16,-5,-1,0,-1,0
37.47,2,15,-15,-3,0,-1,0,1
37.475,-3,-16,20,-6,-2,-4,-2,-3
37.48,-1,-2,-14,2,-1,-1,-1,-2
37.485,0,4,8,-5,3,0,1,0
37.49,-3,-4,-13,11,6,0,-1,-2
37.495,3,3,-8,-8,-3,-1,1,2
37.5,-1,-2,17,-1,-3,-3,0,-1
37.505,-1,-7,-33,-11,-2,-3,-2,-1
37.51,-2,-3,-1,7,-2,-5,-3,-2
37.515,1,2,38,0,4,2,0,0
37.52,-1,-7,-34,-2,-3,-4,-2,-1
37.525,-4,3,10,1,-1,-1,-2,-2
37.53,0,-7,7,-8,0,0,1,-2
37.535,-1,5,-22,8,3,-1,-1,0
37.54,0,11,38,-5,-4,-6,-5,-4
37.545,2,0,56,11,-1,-2,-2,-3
37.55,-2,-8,-60,-13,-4,-1,-2,0
37.555,-2,6,14,-1,1,0,-1,-2
37.56,0,1,-14,-1,4,1,-1,1
37.565,-6,-13,-6,1,-4,-3,-1,-3
37.57,-1,0,18,-5,-1,-2,-4,-3
37.575,-2,2,2,-5,-2,-3,0,-1
37.58,-2,-8,-14,4,-3,-1,0,-1
37.585,4,1,-35,1,7,5,1,2
37.59,-1,-5,22,3,-4,-5,-2,-2
37.595,1,-1,-35,-4,-1,-2,-2,0
37.6,-5,-2,16,-2,-3,-3,-2,-4
37.605,-1,3,1,-4,-4,-1,1,0
37.61,-4,-15,-80,-7,-1,-1,-1,-1
37.615,2,0,54,-8,-5,-4,-3,0
37.62,0,3,-4,3,1,0,-1,0
37.625,0,1,4,2,-1,-4,-2,-3
37.63,-2,0,55,1,-1,-2,-1,-2
37.635,2,1,-29,-1,-1,-1,2,-2
37.64,3,-5,-26,-9,-2,-2,-2,-1
37.645,-2,-4,11,2,-2,0,-2,-2
37.65,1,0,1,-3,-1,-1,-1,0
37.655,-1,-3,25,4,1,-1,-1,0
37.66,1,7,9,-3,-1,-1,-1,0
37.665,-2,-6,-33,0,-1,0,-1,0
37.67,0,-1,4,1,-2,-2,-1,-3
37.675,-4,3,0,-1,-1,-2,-3,-2
37.68,-4,-4,-1,1,-1,-1,0,0
37.685,-3,-6,-9,-2,-4,-2,-4,-1
37.69,1,2,10,0,0,-1,0,1
37.695,-2,0,1,0,-1,0,-1,-1
37.7,1,0,2,2,3,1,1,0
37.705,-5,1,-3,-2,-5,-5,-3,-2
37.71,-3,-2,5,-1,-2,-1,-3,-2
37.715,-2,-3,-16,-4,-2,-1,-1,1
37.72,-3,0,8,0,2,-2,1,-1
37.725,4,-3,-2,0,2,2,0,1
37.73,-1,2,-15,-2,-3,0,-1,0
37.735,2,0,5,2,1,0,1,-2
37.74,2,1,10,-5,-4,0,-2,-1
37.745,-5,-10,-10,-4,-2,-2,-3,-5
37.75,1,9,9,-6,-3,-2,-2,1
37.755,-3,-4,3,2,3,0,0,-1
37.76,-4,-1,-19,-4,-2,-1,-1,1
37.765,-2,-9,-10,1,-1,-2,-3,-1
37.77,-5,-9,-24,-5,-4,-3,-1,-3
37.775,-1,1,7,2,0,-1,-1,2
37.78,2,5,23,-3,-1,0,0,-2
37.785,-5,-6,1,-1,-1,0,0,-1
37.79,5,1,-9,-6,-2,-2,-3,0
37.795,-3,6,-40,8,2,1,0,-3
37.8,5,12,15,-5,-2,-1,0,0
37.805,-5,-15,-28,-5,-4,-2,-2,-4
37.81,-2,-6,31,-1,-1,0,-1,0
37.815,2,1,-51,-2,1,1,-1,0
37.82,-1,-1,20,2,-1,-2,-2,-1
37.825,2,11,-12,-2,2,1,-1,2
37.83,-4,-6,36,2,-1,-2,-1,-1
37.835,0,-1,-19,-7,-1,-1,-2,-2
37.84,2,-3,9,1,-1,-2,-2,-2
37.845,4,5,22,2,0,0,0,1
37.85,-9,-21,-41,0,-2,1,1,-3
37.855,1,17,44,2,-1,-2,-1,-1
37.86,0,-2,-2,1,0,0,-1,0
37.865,-1,1,-6,0,-2,-1,1,0
37.87,-2,1,8,-1,0,-2,-2,-2
37.875,0,-19,19,-1,-4,-1,0,-2
37.88,0,14,11,2,1,2,-2,0
37.885,2,3,-12,2,-2,-4,-2,0
37.89,2,-7,-1,3,4,3,2,2
37.895,-3,0,20,-3,-7,-6,-5,-3
37.9,-4,6,-12,-1,-2,-1,0,-2
37.905,-4,-9,-21,-6,-1,-1,-2,-3
37.91,-4,1,20,-3,-5,-5,-4,-4
37.915,-2,3,10,4,1,1,0,0
37.92,1,1,-33,4,0,-2,-1,0
37.925,-3,-7,-4,-3,-1,-1,1,-1
37.93,-1,-4,-44,-3,-1,0,1,-1
37.935,1,-6,-24,-4,-1,0,-1,-1
37.94,-2,-5,46,-3,-1,0,1,0
37.945,0,3,75,2,1,-1,-2,-2
37.95,3,2,-22,1,3,1,-2,0
37.955,-2,-2,72,-7,-5,0,0,0
37.96,-6,-14,-111,-7,-2,-3,-3,-4
37.965,1,-4,81,6,1,1,0,0
37.97,1,11,58,0,0,1,1,-2
37.975,3,7,11,1,-1,-2,-2,-2
37.98,-8,-25,-42,-4,0,1,-1,-1
37.985,-1,6,19,0,-2,1,1,2
37.99,3,9,-35,4,0,-1,0,0
37.995,-1,-4,-23,0,1,3,1,2
38,-3,11,12,2,-1,-4,-1,-3
38.005,0,-9,-126,-1,1,0,1,-1
38.01,-1,10,127,-1,-4,-4,-3,-3
38.015,0,-2,-103,0,1,1,2,2
38.02,-1,0,-2,-8,-4,-1,-2,0
38.025,4,2,-56,7,0,-2,-2,1
38.03,-2,-9,-56,-5,-4,-3,1,-1
38.035,-2,3,-12,-1,1,-1,-1,-3
38.04,1,-11,16,5,1,-1,0,-1
38.045,-2,-2,-49,-6,0,-1,1,0
38.05,-3,24,-16,3,1,-1,-1,-1
38.055,-5,-20,69,-9,-7,-6,-5,-3
38.06,0,-4,-81,-1,-1,1,1,0
38.065,-7,-5,70,-4,-7,-5,-4,-4
38.07,1,11,3,-2,0,1,1,1
38.075,-1,-2,3,2,2,2,0,-1
38.08,1,3,64,5,1,-2,-2,-1
38.085,-3,-19,-51,-9,-2,0,-1,-2
38.09,-5,3,-6,-1,-3,-3,-2,-2
38.095,1,5,15,-2,-4,-5,-3,-3
38.1,1,0,38,-2,1,-1,-2,1
38.105,0,11,10,0,-1,1,0,-1
38.11,-2,-25,-19,-4,-1,-1,-1,1
38.115,1,5,-15,3,-1,0,-1,0
38.12,0,-2,-4,-2,1,-1,0,16
38.125,-5,-1,3,-1,-2,-3,2,-11
38.13,-3,-7,-25,-4,-3,-10,-11,-37
38.135,0,-1,18,3,2,9,-4,-4
38.14,4,-4,8,-3,-5,-2,6,21
38.145,0,7,15,1,4,13,12,6
38.15,0,-3,13,0,0,-6,1,16
38.155,-8,-3,-15,-4,-3,-4,-10,-20
38.16,-12,-2,5,-2,-2,-8,7,-27
38.165,6,0,1,-4,-2,3,-31,5
38.17,4,1,1,4,0,-5,-2,-2
38.175,5,2,-6,-4,-1,15,12,22
38.18,-3,-6,-7,-1,0,-9,1,-19
38.185,-2,1,23,3,-3,3,16,45
38.19,-13,-3,-17,-2,-1,-15,-19,-46
38.195,6,-1,-9,-2,-3,-16,4,35
38.2,-10,-6,8,0,2,17,-10,-72
38.205,5,11,12,1,-1,-17,-4,7
38.21,-4,-7,6,-1,-2,20,10,-1
38.215,-2,2,-5,-3,4,14,-1,-22
38.22,-5,-9,-37,-4,-9,-25,-4,5
38.225,-1,-9,-13,-5,-3,4,16,65
38.23,9,3,-1,1,-1,0,-25,-11
38.235,-2,0,4,-3,-6,-32,-6,-32
38.24,5,4,17,4,8,30,0,24
38.245,-8,-7,-10,-2,2,5,-11,-29
38.25,-3,-3,-4,0,-2,-16,10,24
38.255,-7,-4,0,0,3,11,-9,-27
38.26,7,0,9,-2,-3,-11,-19,-5
38.265,-7,4,1,0,-4,-14,11,-27
38.27,3,-3,3,-1,2,12,11,19
38.275,-8,-9,-9,-3,-4,-11,-2,4
38.28,4,2,1,0,-2,0,8,2
38.285,-5,1,5,-2,1,4,-10,-43
38.29,3,3,4,0,-1,1,3,4
38.295,-3,-2,-18,0,-1,-3,1,2
38.3,0,0,7,-1,-3,0,-4,11
38.305,4,0,2,2,0,1,-1,5
38.31,-1,-1,4,-3,-3,-5,-2,6
38.315,2,-1,1,0,1,2,0,-2
38.32,-7,-5,-4,-3,-2,1,-1,4
38.325,1,4,9,2,-1,-6,0,-16
38.33,9,-4,-23,-3,-1,2,4,60
38.335,-12,-4,3,-4,-3,-2,-11,-39
38.34,3,-1,10,0,-1,-3,12,45
38.345,-7,0,-2,-2,-4,-7,22,-36
38.35,-3,4,14,1,1,3,-30,-54
38.355,11,10,-2,1,-1,0,8,23
38.36,-12,-20,-4,-3,-2,-9,-9,12
38.365,-2,0,-23,-6,-2,2,8,15
38.37,-2,-2,1,-2,-1,3,2,30
38.375,-6,-1,5,1,-3,-13,6,4
38.38,6,8,1,0,-6,3,16,24
38.385,7,1,23,2,8,10,-11,-2
38.39,2,-15,-44,-2,-5,-13,13,34
38.395,-10,2,16,-7,-4,-1,-5,-45
38.4,7,5,3,2,0,-12,-18,18
38.405,9,6,-15,-2,-6,-20,2,40
38.41,-7,8,3,0,0,6,-3,-47
38.415,0,-37,0,-1,-1,-3,2,12
38.42,-9,-7,-39,-4,0,3,12,-23
38.425,5,10,34,-2,-2,-3,-18,-34
38.43,-3,10,-6,-2,2,-22,16,22
38.435,4,7,13,-2,-1,19,-1,29
38.44,-3,4,2,4,0,3,12,-17
38.445,-13,-17,-21,-2,-4,3,-24,-17
38.45,-2,-2,14,0,-2,-4,-11,-89
38.455,-6,-1,-11,-5,-11,-39,3,51
38.46,-2,-4,-1,-1,1,-5,-26,-15
38.465,-5,-2,19,1,-6,11,22,13
38.47,-9,-4,-19,-4,-2,5,4,-59
38.475,11,1,-7,-2,2,18,38,90
38.48,7,9,16,1,7,7,-14,-63
38.485,-10,-5,-24,-1,-7,-15,-6,85
38.49,-12,-6,34,-1,-2,14,-18,-45
38.495,9,-9,-38,-4,-2,-11,-15,-26
38.5,1,27,17,-1,-8,-9,-22,-50
38.505,-16,-29,19,-5,6,27,14,-70
38.51,33,2,-27,-4,-2,22,25,74
38.515,-3,17,28,10,1,-22,-41,-14
38.52,-7,-19,-27,-3,4,24,26,45
38.525,-15,21,38,-2,-7,-19,-41,-94
38.53,2,-9,-10,1,0,17,37,76
38.535,0,-3,-9,-1,-2,14,16,22
38.54,8,6,12,3,-5,-30,-18,31
38.545,15,6,-10,6,8,13,63,108
38.55,10,-6,-13,-4,-5,-13,-52,58
38.555,6,12,2,0,-1,-10,9,-51
38.56,4,-1,33,1,-6,-10,56,81
38.565,-11,-4,-31,-5,1,-29,-90,-29
38.57,-4,-16,-41,-4,2,16,53,48
38.575,-23,0,35,4,4,9,-37,4
38.58,8,-9,-22,-9,-3,-14,46,-56
38.585,-6,-8,-7,-3,-2,-13,23,108
38.59,-17,-3,24,2,-3,-30,-6,-77
38.595,8,10,14,2,1,54,-16,-19
38.6,-3,-11,-43,3,4,-7,9,43
38.605,9,5,36,-2,-2,20,19,46
38.61,6,32,7,2,5,-20,-66,-75
38.615,-10,-28,-10,-10,-12,-39,-57,-66
38.62,17,18,-2,-1,-8,8,-88,46
38.625,8,1,22,2,-2,33,69,-115
38.63,-19,-20,2,-1,7,-16,49,-38
38.635,-4,-4,1,-12,-14,-27,17,82
38.64,5,1,7,-3,1,10,1,-25
38.645,-6,-17,-46,-12,-16,-17,-42,6
38.65,-34,8,48,-2,-5,-11,-56,-30
38.655,7,-3,4,6,16,21,31,-75
38.66,-24,-9,-22,-13,-10,-20,-13,-25
38.665,8,0,-2,7,6,21,50,75
38.67,14,-11,-66,-18,-5,24,27,-29
38.675,28,15,20,13,-4,-15,6,38
38.68,-30,3,40,-2,-7,-13,-64,-45
38.685,27,30,29,11,6,-29,-23,6
38.69,-1,-3,13,6,1,6,-55,-44
38.695,0,-9,-26,-10,-5,-26,58,27
38.7,8,7,22,4,10,-14,-85,-51
38.705,-3,-6,-26,-4,4,43,-11,-34
38.71,-3,-4,9,2,-5,-4,65,69
38.715,3,8,-2,-1,6,15,-35,14
38.72,-6,-3,8,4,1,13,52,-35
38.725,-12,-26,-60,-13,-8,-22,-35,-29
38.73,9,16,20,6,5,3,-12,29
38.735,-3,-3,-7,-2,-2,19,15,-15
38.74,-5,-14,-16,-3,-3,7,16,10
38.745,-4,4,-1,3,5,-4,-26,-62
38.75,7,22,39,6,-1,9,6,23
38.755,-8,-21,-46,-6,-1,-2,12,12
38.76,-3,-3,1,-2,3,5,8,4
38.765,2,1,33,2,-2,-10,-17,12
38.77,-1,-10,-26,-9,-4,-5,4,-2
38.775,-13,6,15,10,5,5,-11,-16
38.78,5,0,4,0,0,7,6,22
38.785,-3,0,-10,0,0,-1,13,-19
38.79,8,-1,14,1,-2,0,4,34
38.795,-3,0,-14,-4,1,-2,-7,-16
38.8,-2,-8,-2,-1,-2,6,13,6
38.805,-1,1,0,-1,-2,-8,3,4
38.81,-5,-8,-8,0,-1,-4,-6,1
38.815,1,10,19,-1,-1,-2,-12,5
38.82,-6,-12,-28,-4,0,2,13,-4
38.825,0,-3,-20,-3,-2,-4,-3,-6
38.83,-1,-5,1,-7,-6,-5,-9,9
38.835,2,9,20,6,5,4,5,-8
38.84,0,-1,-20,-6,1,6,12,13
38.845,-4,-8,-44,12,5,-4,-2,-10
38.85,-5,-1,47,-10,-8,-5,-2,4
38.855,2,14,49,5,-2,-1,0,1
38.86,-2,-4,-45,7,1,-1,2,-1
38.865,3,5,23,-16,-5,-7,-4,2
38.87,-3,-17,-62,-6,2,-1,-3,-4
38.875,-4,-3,47,17,-3,0,-2,-5
38.88,4,-7,25,-12,-6,-1,-2,4
38.885,-3,-4,-16,-2,-2,0,1,-4
38.89,6,14,13,-2,-3,0,1,7
38.895,-8,-15,-15,-13,-3,-5,-4,-6
38.9,3,12,-40,26,10,6,6,3
38.905,1,2,4,3,-4,-5,-1,-1
38.91,-2,-11,-26,-5,0,-2,-3,-4
38.915,-1,-5,5,-10,-4,3,-2,1
38.92,-5,3,22,-3,1,-4,2,-4
38.925,1,4,-10,-10,3,2,0,0
38.93,-7,-7,-8,19,-1,-3,-2,-1
38.935,4,10,4,-13,-5,-1,-2,-2
38.94,-3,2,41,-6,-3,0,1,5
38.945,-5,-8,5,6,-1,-5,-3,-4
38.95,2,-4,-2,9,1,2,-1,2
38.955,-5,3,-79,-13,2,-3,-1,-2
38.96,-1,-6,45,4,3,4,1,1
38.965,1,4,10,0,2,0,0,2
38.97,0,15,32,0,1,0,0,1
38.975,-1,-2,-45,-5,1,-1,-1,-1
38.98,2,7,19,-10,-7,-3,-3,0
38.985,0,-11,-1,6,0,1,2,-3
38.99,0,2,-24,-1,-2,-1,0,2
38.995,-1,-15,-14,-2,-4,-2,0,0
39,-4,-8,13,-10,-1,-1,1,-2
39.005,0,9,-11,-2,-2,-3,-3,-1
39.01,-5,-7,32,-1,1,1,-2,-2
39.015,-1,-3,-13,-2,-1,1,-1,-1
39.02,1,-2,-18,3,-3,-2,0,-1
39.025,0,11,50,0,0,0,-2,-2
39.03,3,5,-4,-11,-4,-2,-1,0
39.035,-8,-27,-25,12,3,0,-4,-3
39.04,3,2,-24,-4,-2,-2,0,1
39.045,-5,3,-10,-3,-4,-2,-3,-3
39.05,0,2,-8,-5,-1,-1,0,0
39.055,-2,-20,-8,6,0,0,1,-3
39.06,-1,32,13,-9,-1,-3,-2,-4
39.065,0,-35,-13,1,0,-1,0,-1
39.07,-4,-5,7,3,-3,-1,-1,-2
39.075,3,23,-4,0,-3,-2,-1,-1
39.08,-3,-36,-4,3,-2,0,0,-2
39.085,0,17,57,-4,0,-1,0,-1
39.09,-4,-5,-19,1,-1,-4,1,-1
39.095,1,7,8,-2,-2,-1,1,0
39.1,0,8,16,-3,-2,1,0,0
39.105,-1,-10,-8,-1,-1,-2,-2,-3
39.11,1,-7,-81,-2,-2,1,-1,2
39.115,-4,11,108,-3,-3,-6,-4,-4
39.12,-1,-10,-30,-1,-4,-1,0,0
39.125,1,18,-7,2,0,0,0,0
39.13,0,-12,12,3,2,-1,0,0
39.135,-4,-21,-45,-9,-4,-2,-1,-2
39.14,-5,-6,-25,0,-1,1,-1,-2
39.145,0,-2,18,-4,-2,-4,-2,-2
39.15,3,18,64,4,1,-3,-1,-1
39.155,2,3,-32,-2,0,-1,0,1
39.16,3,-1,49,9,4,0,1,2
39.165,-12,-9,-14,-11,-6,-5,-5,-4
39.17,3,7,4,0,-1,-1,-2,-1
39.175,-2,-6,-31,3,0,2,2,0
39.18,5,12,10,0,-1,-3,-1,-1
39.185,-3,-3,17,-2,0,1,1,1
39.19,-8,-30,12,-4,1,0,-1,-2
39.195,5,17,-28,3,3,2,1,3
39.2,-4,1,-1,-3,-3,-1,-1,0
39.205,6,17,20,2,0,1,1,2
39.21,-7,-23,-53,2,0,-2,-1,-2
39.215,1,8,20,2,2,-1,-1,-1
39.22,-1,-3,-35,3,0,0,0,-2
39.225,1,14,-36,0,-2,0,-1,0
39.23,2,21,65,3,-2,0,-1,1
39.235,-3,-22,-40,-7,-4,-1,-3,-1
39.24,-2,-1,32,1,-2,-1,-1,-1
39.245,-1,-10,-42,-1,0,1,0,1
39.25,1,17,12,-6,-5,-3,-3,-5
39.255,-1,1,10,1,3,0,-1,-3
39.26,-4,-31,-90,-2,1,0,-3,-1
39.265,-1,2,21,0,-1,-1,-1,-1
39.27,3,1,70,7,0,0,1,1
39.275,-5,-12,-79,-19,-9,-6,-3,-4
39.28,-2,-15,74,1,-2,-3,-3,-3
39.285,-4,4,-51,10,2,1,0,0
39.29,-2,4,12,-13,-5,-4,-1,-4
39.295,-5,-5,8,0,-1,0,-2,-3
39.3,2,9,-15,-4,-4,-5,-1,1
39.305,-1,-12,-11,0,-1,-9,0,-1
39.31,0,3,-33,-2,3,13,1,-2
39.315,0,6,40,-3,-2,-5,-1,1
39.32,0,28,-43,-5,0,-8,-6,-1
39.325,-5,-27,36,-4,1,37,13,-3
39.33,-3,-18,-36,0,1,-7,1,1
39.335,2,5,6,1,1,2,4,1
39.34,2,9,3,2,2,-3,-6,1
39.345,5,21,66,5,0,-6,-5,2
39.35,-10,-39,-88,-9,-5,-5,-5,-6
39.355,5,26,76,15,1,1,2,0
39.36,1,24,-53,-7,-2,-3,2,2
39.365,-14,-56,-9,-3,0,-10,-7,-7
39.37,1,14,-1,-2,0,1,1,1
39.375,-4,-11,21,-2,-2,-6,-6,-3
39.38,5,29,85,9,2,5,5,1
39.385,0,9,-71,-14,-3,-5,-3,-2
39.39,3,-11,20,4,0,-2,-1,2
39.395,-2,22,-13,-4,-4,-2,-4,-3
39.4,-4,-24,30,1,1,1,1,-3
39.405,-1,-6,-17,-6,-2,-4,-1,-2
39.41,-2,2,-32,-3,-2,-4,-3,-1
39.415,3,2,44,3,3,4,2,0
39.42,-4,-17,-40,-6,-1,2,1,-3
39.425,7,8,-62,2,3,-5,-1,1
39.43,5,57,37,11,1,2,1,0
39.435,-15,-89,-31,-13,-5,-4,-3,-6
39.44,-6,-15,2,0,-1,-1,1,-2
39.445,3,25,-4,4,-1,-3,-2,1
39.45,4,19,11,-1,1,1,-1,0
39.455,2,19,-1,3,-1,-1,-2,-1
39.46,-1,-9,-20,-3,-4,-6,-1,-1
39.465,-1,-1,0,-4,-5,-12,-11,-2
39.47,1,6,30,-2,0,-16,-6,1
39.475,-2,-2,-32,1,2,23,10,-1
39.48,-4,-7,11,0,-1,11,3,1
39.485,1,2,-35,-7,-1,-3,-2,0
39.49,-3,-22,46,-3,-4,-7,-6,-2
39.495,-1,9,50,1,-1,-17,-7,0
39.5,2,2,-7,1,0,0,-2,1
39.505,-3,3,3,1,-2,1,2,0
39.51,0,-13,-10,-2,0,-1,0,0
39.515,1,16,-14,5,4,0,-1,2
39.52,-3,2,13,-3,-4,1,-1,-4
39.525,-2,-11,14,-2,-4,-5,-3,-3
39.53,-4,-2,-31,-4,0,3,1,-2
39.535,0,-3,-2,-2,-2,-1,-2,-2
39.54,-2,-4,-5,-1,-1,-5,-1,-1
39.545,1,1,14,3,0,0,1,0
39.55,-2,-7,-30,-2,-1,4,1,-2
39.555,1,10,13,0,0,-3,-8,0
39.56,-4,-7,-13,-2,-1,-18,-11,-3
39.565,-5,-11,26,-3,-3,13,15,-2
39.57,3,2,-7,-3,2,9,-2,2
39.575,-3,-11,12,6,1,-7,-10,-2
39.58,-1,-6,13,-9,0,22,13,-2
39.585,-1,0,22,1,-2,-16,-7,-2
39.59,-4,-7,-17,1,-5,-9,-3,-2
39.595,0,1,-33,-10,-5,-16,-7,-2
39.6,-2,1,4,7,1,-2,0,0
39.605,-1,1,10,-1,1,8,2,-1
39.61,-1,-6,0,-4,-3,-13,-6,-1
39.615,-2,-1,-15,1,1,-11,-3,-3
39.62,-3,5,25,0,2,17,6,-1
39.625,1,-2,9,2,-6,-49,-12,-2
39.63,-4,-17,-42,-2,-3,20,7,-2
39.635,-4,1,7,-1,-1,-17,-7,0
39.64,2,0,-19,-6,-16,-86,-21,3
39.645,-6,-4,6,1,12,116,48,-11
39.65,3,14,47,8,1,-43,-12,14
39.655,-3,-21,-43,-9,-10,-69,-11,20
39.66,0,0,31,6,9,93,16,-31
39.665,0,6,-6,-5,-14,-78,-53,-4
39.67,-6,-3,1,-6,-2,18,46,-11
39.675,1,4,-2,4,7,10,11,-7
39.68,0,9,7,0,-6,-55,-7,14
39.685,-1,-22,-14,-10,-3,-21,-30,6
39.69,5,22,-26,-1,1,61,10,-17
39.695,0,-3,96,3,-10,-35,-19,-2
39.7,-9,-11,-52,-13,-3,-31,-12,3
39.705,-4,21,16,4,-3,-28,19,-6
39.71,4,-35,9,-1,4,33,11,16
39.715,0,22,-57,-7,1,35,9,-5
39.72,7,20,18,8,-5,35,1,22
39.725,-7,-51,-40,-18,-14,-93,-63,-13
39.73,-1,21,-2,12,-6,8,-4,-5
39.735,-14,-7,-1,-14,2,45,20,2
39.74,8,16,22,1,12,28,38,-27
39.745,-1,-8,-60,-2,-1,-57,7,18
39.75,0,2,75,6,5,-31,-35,3
39.755,-6,7,-47,-1,-16,38,-16,-21
39.76,-18,-58,-23,-17,-8,-24,7,-8
39.765,7,44,49,2,17,38,-63,-19
39.77,-8,-5,-24,-24,-26,-58,3,-14
39.775,2,-6,12,19,-21,-36,-33,5
39.78,-1,-1,-17,-17,32,-30,-64,-13
39.785,-5,11,25,25,10,77,77,10
39.79,1,3,-26,22,8,-32,-34,-2
39.795,-1,-3,20,0,9,3,41,1
39.8,-4,7,-15,-4,-19,19,48,7
39.805,8,-13,-1,-5,-8,8,-56,1
39.81,1,8,3,-25,-10,22,13,3
39.815,3,3,32,7,-5,-10,2,-21
39.82,-14,-46,-76,-10,-12,-95,-56,-9
39.825,-5,16,49,0,21,46,29,-9
39.83,6,1,-13,-14,-14,52,32,-1
39.835,9,4,8,21,17,-8,12,55
39.84,1,6,7,-17,-7,53,-17,-19
39.845,4,-2,1,49,38,14,14,1
39.85,-7,-18,-37,-11,-4,-108,-37,-9
39.855,-3,3,9,-11,-2,40,26,-11
39.86,10,25,29,30,10,38,32,38
39.865,5,-5,-32,-48,-21,-16,-12,-12
39.87,-4,-24,-10,-77,-18,33,-32,-17
39.875,11,22,44,79,21,-30,-8,16
39.88,8,13,-20,24,9,-20,15,12
39.885,-6,-5,5,-11,-6,45,44,-18
39.89,-1,7,36,21,-16,-24,-27,6
39.895,-17,-28,-121,-67,0,2,-14,-5
39.9,-7,14,122,17,13,26,15,-15
39.905,-4,-22,-6,21,55,57,25,11
39.91,3,12,1,10,-32,-27,5,33
39.915,-4,-12,2,-59,-30,4,15,-10
39.92,1,-9,-21,31,29,-9,-24,-50
39.925,-3,7,-24,-12,10,-70,8,32
39.93,5,2,64,-40,51,75,14,-12
39.935,3,15,12,110,61,-51,13,25
39.94,10,-22,-35,-21,-17,33,-14,103
39.945,-17,-11,-4,-44,-83,-87,-43,-90
39.95,-10,-4,-23,-27,20,49,57,-5
39.955,-4,-6,-2,-61,-13,-26,-32,-21
39.96,0,18,5,23,-3,-67,-44,-37
39.965,0,-9,-57,1,-38,-44,7,44
39.97,-2,9,8,20,2,2,5,1
39.975,0,6,12,-48,8,6,21,7
39.98,-4,-8,-5,32,12,12,22,-18
39.985,11,24,24,-23,-3,34,-8,-1
39.99,-18,-22,-35,19,-1,-55,-18,6
39.995,14,4,31,1,-21,10,13,2
40,-1,-13,-21,5,-14,8,4,29
40.005,-7,-15,-12,27,99,29,16,-19
40.01,4,13,-33,31,-92,-23,-5,37
40.015,-6,-1,13,-81,-1,-11,-10,-16
40.02,8,43,40,30,28,-3,29,14
40.025,0,29,41,15,-41,-46,-34,-17
40.03,-13,-89,-45,-40,-24,55,6,-45
40.035,17,29,7,116,94,112,67,39
40.04,-9,-56,-23,8,19,-35,-31,-3
40.045,16,28,19,0,-37,68,-5,23
40.05,2,11,-4,-57,-66,-89,22,74
40.055,10,35,18,-46,-53,-17,-12,-59
40.06,-21,-75,-69,-93,-109,-50,-9,-44
40.065,-6,-22,34,47,59,22,27,14
40.07,3,45,38,-17,27,-35,-59,16
40.075,-6,-36,-26,88,48,19,-8,-23
40.08,2,62,37,-1,22,11,13,28
40.085,-3,-22,-12,-42,-104,-44,-11,-1
40.09,6,-3,-14,-60,10,30,-18,-8
40.095,7,0,29,81,55,-7,-3,20
40.1,8,24,-2,-1,-33,20,-41,-15
40.105,-11,-34,-18,46,-53,41,52,7
40.11,-4,14,17,-41,-4,-7,1,-81
40.115,7,-7,-10,17,-22,0,11,67
40.12,-9,-20,-10,-55,-13,0,0,-2
40.125,-4,-6,-7,-16,25,-31,-22,-31
40.13,14,32,23,117,76,100,42,-39
40.135,-21,-22,-25,-70,-75,-105,-84,-41
40.14,-7,1,-23,-43,4,6,27,-29
40.145,2,13,37,-4,14,-19,-21,11
40.15,3,15,36,87,28,-27,-9,-36
40.155,-8,-13,-2,-44,-82,-33,-13,29
40.16,14,22,11,0,50,26,12,18
40.165,6,26,44,-8,41,24,48,16
40.17,-10,-17,-38,0,17,-105,-74,-18
40.175,2,-5,19,-12,26,74,35,2
40.18,3,24,17,38,-19,-56,-49,-11
40.185,-4,-31,-42,20,19,-75,-14,-4
40.19,-7,3,7,-55,-50,15,-2,42
40.195,-3,7,3,62,77,33,-8,-57
40.2,-4,-1,13,4,-41,39,24,-10
40.205,12,-2,-10,-22,73,-4,-14,25
40.21,7,-23,-4,28,44,34,-10,9
40.215,-14,-6,-26,-87,-96,-31,-24,-84
40.22,-9,5,25,18,8,2,23,6
40.225,-9,-8,-10,-10,-54,2,0,36
40.23,0,4,-5,-7,-1,-52,-27,15
40.235,-8,5,-7,-10,-30,21,8,12
40.24,-7,-22,-15,-74,11,-25,-10,-21
40.245,2,25,21,52,32,25,17,-5
40.25,-11,-19,-48,42,37,50,14,7
40.255,-2,4,24,-56,-57,-64,-29,-4
40.26,-1,7,-3,9,54,-14,-23,-8
40.265,1,-5,-9,-9,-100,-29,-2,5
40.27,-1,-9,-12,13,89,81,63,3
40.275,14,14,6,24,28,23,6,17
40.28,-9,-20,-2,-79,-119,-46,0,28
40.285,-2,12,-45,14,102,39,5,3
40.29,1,11,30,62,-26,-6,26,40
40.295,-6,-14,-53,-63,-44,-29,-32,-65
40.3,-4,0,23,22,22,24,10,-9
40.305,1,3,-4,67,31,35,21,2
40.31,-2,1,-1,-40,-85,-37,-7,-24
40.315,-12,-8,-1,-26,47,1,-2,66
40.32,8,10,-6,75,-39,36,23,-13
40.325,-1,4,-26,-78,-54,-40,-23,-12
40.33,-4,-32,31,6,49,3,28,-9
40.335,-1,8,-11,31,-20,-19,-1,-9
40.34,9,10,29,13,37,6,11,2
40.345,-1,-5,-52,-110,32,53,-9,2
40.35,9,34,33,93,62,18,22,-6
40.355,14,-19,3,19,-14,-9,2,56
40.36,-6,11,3,-19,-5,-53,-37,-59
40.365,-10,-10,-11,-44,-86,-35,-3,39
40.37,-10,-26,-36,-73,-41,-22,-6,23
40.375,10,41,23,36,62,34,-11,-14
40.38,-15,-51,-35,-3,-10,1,18,40
40.385,5,13,45,11,14,-7,-20,-29
40.39,-4,14,-11,2,14,23,1,20
40.395,-3,-9,-22,15,-8,5,23,4
40.4,10,23,43,-41,3,-32,-12,38
40.405,-4,-20,-36,7,14,5,-5,-3
40.41,-5,-5,18,8,49,22,5,-8
40.415,-8,-13,-30,31,36,14,-7,-17
40.42,9,10,-22,-57,-54,47,26,4
40.425,-11,-7,-22,25,-9,-47,-35,-27
40.43,9,-2,13,-54,-32,-28,-24,3
40.435,1,11,23,51,20,11,-15,-30
40.44,-12,-35,-14,-33,29,-40,-6,16
40.445,1,10,50,40,-13,-13,-6,3
40.45,0,-2,-30,-19,-26,27,6,-19
40.455,-1,2,25,-20,3,31,6,11
40.46,1,7,-10,15,-19,0,2,15
40.465,1,11,8,30,35,-21,-21,-37
40.47,-5,-18,6,-4,60,-76,-32,-4
40.475,2,10,-3,-16,-78,72,41,-11
40.48,-6,-28,-16,42,43,12,-17,-22
40.485,11,1,20,-50,-14,40,-5,-9
40.49,5,-4,-65,-15,7,-13,-22,-44
40.495,-17,-14,-13,44,-10,-59,-12,0
40.5,0,28,-1,-13,-11,15,19,5
40.505,-7,-39,17,-19,-34,-20,23,-57
40.51,-6,-1,-35,-28,-40,-25,-1,35
40.515,2,-10,15,-60,29,8,9,13
40.52,12,17,1,119,26,12,-15,30
40.525,-3,-2,23,-17,4,13,25,2
40.53,10,21,23,23,-69,-10,-2,-1
40.535,-16,-23,-26,-13,23,18,24,13
40.54,0,2,5,-57,-9,29,-3,-27
40.545,0,7,15,70,33,32,12,13
40.55,-12,-3,-26,-46,-54,-48,-24,-16
40.555,5,-3,-4,-10,20,37,-11,-14
40.56,-2,-2,17,24,20,27,23,31
40.565,-11,0,-40,-79,-71,-11,-41,-40
40.57,-6,24,37,65,33,27,-3,-37
40.575,-2,-16,40,22,35,-25,-3,3
40.58,-6,-11,-62,-10,19,25,18,-20
40.585,5,11,-6,-10,-15,-24,-5,16
40.59,-7,-1,37,53,18,12,12,-13
40.595,0,0,-20,-28,-35,-9,-1,4
40.6,2,-12,-2,-49,-22,-20,-21,-16
40.605,11,14,37,83,25,-13,9,37
40.61,-3,-9,-17,-41,-11,-5,-9,-18
40.615,0,10,13,31,11,-17,23,37
40.62,10,17,-2,8,22,35,-13,-22
40.625,1,-13,-21,-75,-25,42,30,2
40.63,6,17,50,41,-12,22,8,36
40.635,-9,-40,-38,-48,-10,-52,-12,-13
40.64,8,15,15,50,0,33,5,33
40.645,-7,11,12,9,8,-44,-12,-23
40.65,-2,-26,-61,-54,20,27,21,8
40.655,4,10,-28,20,-5,20,-4,-3
40.66,-4,-2,78,-7,12,-24,-10,-3
40.665,3,20,13,-3,-9,-23,2,18
40.67,-1,5,23,-10,-46,-22,-1,11
40.675,0,-8,-21,-35,18,-11,-24,-22
40.68,1,-3,-16,24,51,25,24,18
40.685,-2,-5,0,-5,-21,-3,-14,34
40.69,0,-1,4,8,-6,-30,-17,-6
40.695,-5,-4,-7,-64,-29,10,4,-28
40.7,1,11,13,57,58,4,6,-6
40.705,3,-3,-1,5,-21,41,42,48
40.71,2,-13,-27,-14,-56,-22,-9,8
40.715,-4,8,15,-10,14,19,-3,-9
40.72,-7,-16,-23,-31,-37,-48,0,-18
40.725,-2,-6,-12,5,19,15,-9,-12
40.73,1,-4,0,0,9,-9,6,12
40.735,0,1,7,18,-10,-4,-2,8
40.74,-2,0,-6,-40,-44,1,2,0
40.745,-11,-2,-7,13,39,10,-18,-82
40.75,11,-4,11,27,39,46,16,34
40.755,3,-3,5,24,6,-42,-21,-6
40.76,4,-3,-25,-24,-27,42,21,6
40.765,-2,7,23,26,-35,-7,1,-7
40.77,-5,-22,-57,-109,5,-4,-2,0
40.775,3,-1,-3,65,23,3,5,-1
40.78,-3,1,38,-10,-24,-24,-15,1
40.785,0,4,-50,-11,-4,5,10,53
40.79,4,12,28,-2,11,3,11,-39
40.795,-11,1,12,5,-27,22,26,30
40.8,-6,-16,-47,-10,-35,-67,-20,0
40.805,-3,-8,18,15,39,49,20,2
40.81,-4,15,-3,25,8,0,-4,8
40.815,1,-12,21,13,-2,-20,-6,10
40.82,3,12,20,-22,-18,-12,-1,-28
40.825,3,-1,0,26,47,35,7,-6
40.83,-2,-2,1,25,-7,-20,-4,14
40.835,1,14,6,-20,-15,7,13,-7
40.84,-7,-7,-18,-28,12,-10,-18,-15
40.845,3,-3,29,58,20,-3,-2,0
40.85,2,13,12,9,-13,21,5,-21
40.855,4,6,11,-3,33,-14,-24,17
40.86,-4,0,-12,1,-17,-8,26,-6
40.865,-10,-19,-45,-32,-12,-16,-12,1
40.87,-4,-4,80,7,-9,-1,-5,-2
40.875,0,-7,-94,-26,-35,-22,-1,-7
40.88,1,21,77,49,63,36,-1,4
40.885,1,-2,-1,3,-13,-15,-6,-6
40.89,0,2,-14,-4,17,5,6,5
40.895,0,-14,-23,-26,-27,-16,-10,-10
40.9,-6,7,11,-3,-1,-2,-20,-6
40.905,8,-5,-1,-13,-2,12,15,34
40.91,2,3,-30,8,-7,-8,-14,-13
40.915,-9,-11,28,-16,-7,2,1,-8
40.92,4,12,-20,19,7,2,-1,14
40.925,-3,-7,20,-18,-9,-18,-9,-4
40.93,-2,-3,-16,4,-4,-1,3,1
40.935,7,4,82,-9,2,11,5,7
40.94,3,22,-4,6,-13,-8,0,-2
40.945,-15,-43,-43,6,17,2,-10,-13
40.95,8,13,-16,6,7,-2,2,-3
40.955,-2,-1,-16,0,5,9,-1,1
40.96,11,79,94,-20,-10,-1,-3,-1
40.965,-11,-85,-76,10,-20,-17,-8,-11
40.97,1,10,-48,1,9,-4,-1,6
40.975,-5,4,29,13,-3,6,0,-5
40.98,0,-19,16,-21,-24,-18,-6,-2
40.985,7,30,8,-14,18,4,1,0
40.99,4,23,33,37,7,11,4,0
40.995,5,5,-43,9,11,3,-3,-1
41,-3,-65,-34,5,10,10,3,14
41.005,3,30,-41,-27,-19,-10,8,2
41.01,-7,4,61,-20,-27,-27,-11,-32
41.015,2,25,23,-24,8,10,4,-7
41.02,-11,-57,-34,28,31,-9,-4,-8
41.025,6,61,103,16,22,17,6,19
41.03,3,-8,66,0,-14,-2,-1,0
41.035,-8,19,85,-15,-23,0,-2,-4
41.04,2,-13,-31,16,1,11,2,-4
41.045,-6,16,24,-19,-13,-20,-11,-3
41.05,-3,-32,28,-12,-25,-1,2,1
41.055,1,10,-40,8,27,-5,-3,3
41.06,-5,-9,-46,9,0,4,-3,-1
41.065,2,11,-12,-15,-18,-11,-7,-13
41.07,-3,-25,-13,6,10,11,0,7
41.075,-3,-11,-60,-10,-12,-6,1,3
41.08,-4,0,1,8,5,-1,0,-4
41.085,3,14,-35,-11,-3,-3,-3,-6
41.09,-8,-23,-64,-12,3,-8,-2,-1
41.095,-3,-27,14,7,0,5,-3,2
41.1,6,36,36,-13,-6,3,1,-3
41.105,-12,-54,-53,-7,-12,-15,-9,-8
41.11,-5,-16,-4,4,0,2,-2,3
41.115,6,35,94,23,19,11,1,-4
41.12,-2,-14,-30,-4,5,4,2,-1
41.125,2,21,17,-3,-12,-7,-1,-2
41.13,-1,25,-82,-2,5,-3,-4,1
41.135,-4,-45,-19,-6,-6,-8,-2,-3
41.14,-5,5,40,-8,-16,-1,-1,-1
41.145,-3,-7,-12,-7,7,3,-8,-13
41.15,2,8,-76,1,-4,-3,-1,-1
41.155,5,35,35,-10,-7,1,-2,1
41.16,-5,-40,-8,16,5,1,-1,-2
41.165,-1,-2,3,-5,-7,-2,1,1
41.17,6,13,-48,1,9,6,3,4
41.175,-7,-24,-28,-3,-9,-10,-3,-4
41.18,-2,10,19,2,-3,-5,-2,-3
41.185,5,23,-48,-7,-6,2,1,0
41.19,2,12,-14,-2,14,7,-1,-3
41.195,-3,-12,25,9,-5,-4,0,2
41.2,3,1,-37,1,16,-5,-2,0
41.205,-8,1,-36,-16,-21,-3,-2,-2
41.21,-3,-18,73,13,10,0,0,-2
41.215,3,1,20,10,7,2,1,2
41.22,-5,-2,-103,-20,-10,-1,-2,-3
41.225,-2,0,107,18,11,-7,-5,-3
41.23,0,21,-21,-18,3,4,1,1
41.235,-1,-19,-5,-1,-6,-6,-2,-2
41.24,3,17,-40,-1,-8,-2,0,-2
41.245,1,-52,51,-7,-9,-1,1,3
41.25,-10,-7,55,2,-6,-2,-3,-1
41.255,1,9,-51,8,-1,0,1,2
41.26,3,5,-18,-7,3,0,-1,1
41.265,-6,-24,-61,-4,-3,-1,0,-2
41.27,4,2,-49,-4,11,4,0,0
41.275,-2,-5,-88,-13,-5,-3,-1,0
41.28,6,28,106,21,-1,0,-3,-2
41.285,-6,-17,-1,-5,3,-3,-1,-1
41.29,-7,-26,81,6,-5,-2,-1,-3
41.295,2,13,-4,-8,-6,-7,-3,-1
41.3,-3,-8,-81,-9,0,-2,-4,-4
41.305,-1,13,86,9,4,1,2,-3
41.31,6,35,48,2,-6,-3,0,0
41.315,-6,-83,-27,-4,-6,-1,-2,-1
41.32,-5,-6,71,0,8,4,0,0
41.325,2,-5,-38,3,-4,-3,-2,-2
41.33,-2,2,-41,-10,0,0,0,0
41.335,1,20,49,9,-7,-9,0,-2
41.34,-6,-18,25,-2,2,9,0,-1
41.345,12,69,73,11,4,6,5,6
41.35,-12,-65,2,-10,-7,-10,-7,-8
41.355,2,11,-59,-7,0,1,1,1
41.36,-8,-19,-85,-20,-9,-12,-5,-4
41.365,-2,16,25,-4,-2,-2,-3,-2
41.37,-4,-33,15,-3,-2,-1,2,1
41.375,-3,3,96,-1,-2,-3,-2,-4
41.38,3,13,37,3,0,-3,1,-2
41.385,-5,-27,-54,3,7,3,0,0
41.39,3,18,-43,1,1,2,0,1
41.395,2,8,-12,10,3,2,0,0
41.4,-9,-64,-61,-19,-12,-7,-5,-6
41.405,-5,-5,54,-5,-2,-3,-3,-2
41.41,-2,4,-62,-8,0,2,0,-1
41.415,-1,7,9,5,2,1,3,0
41.42,4,14,28,6,-1,0,0,1
41.425,0,-4,28,-3,-2,-3,-1,-2
41.43,0,-9,6,3,-4,-4,-2,-1
41.435,3,35,-43,-8,0,0,0,-2
41.44,6,25,20,-5,-1,0,2,2
41.445,-13,-33,-49,-14,-1,-6,-8,-9
41.45,1,20,-13,10,3,2,3,-1
41.455,2,9,32,2,5,-4,-3,1
41.46,-1,-2,12,-4,-8,-2,-1,-2
41.465,5,5,11,3,9,0,3,3
41.47,-1,3,111,-1,-6,4,-2,-4
41.475,1,2,-124,-4,2,-8,-3,-1
41.48,-6,-16,-20,1,-8,3,0,-4
41.485,5,18,26,7,2,-1,1,2
41.49,0,-3,-14,2,3,-3,-1,1
41.495,-2,-7,10,-1,1,2,1,-2
41.5,-2,4,28,1,-2,-6,-3,-1
41.505,3,1,-18,-3,-4,2,-1,1
41.51,-3,0,-27,-2,0,-2,1,0
41.515,-4,-1,46,-4,-1,0,-3,-2
41.52,1,1,7,6,1,-2,-1,-2
41.525,0,-2,40,-1,-2,-4,-5,-3
41.53,-4,-6,-18,-2,-2,-13,0,14
41.535,-3,11,66,13,-1,27,3,-22
41.54,-10,-20,-69,-18,-4,-8,-9,-3
41.545,-2,-2,-52,-8,-5,-5,-5,-20
41.55,7,14,84,11,1,1,0,14
41.555,0,-3,-37,-10,0,-11,-3,-9
41.56,-7,-8,2,6,4,3,0,16
41.565,-2,0,-34,-8,-11,0,3,-26
41.57,-2,7,79,3,-3,-7,-9,8
41.575,-2,-15,16,-4,-1,-3,1,-20
41.58,7,9,5,5,4,4,4,41
41.585,-1,-1,-19,1,-1,1,-4,-31
41.59,-7,-6,-13,9,2,6,-3,14
41.595,-1,0,17,-5,-5,-4,5,24
41.6,-2,-7,0,-9,-9,-14,-7,-23
41.605,-2,8,29,2,6,-3,-4,-5
41.61,2,1,-23,-7,-7,8,19,-3
41.615,-3,-6,16,6,8,0,-3,23
41.62,4,7,-39,9,8,1,5,7
41.625,-2,2,-1,1,-4,-6,-8,8
41.63,-4,-8,-19,-6,-4,-3,6,-4
41.635,-1,-12,-47,-10,-8,-7,-2,-11
41.64,3,27,56,5,1,-13,-4,-18
41.645,-1,5,42,9,8,23,3,8
41.65,-1,-14,-98,-21,-8,-18,-12,1
41.655,-3,2,19,11,-1,6,-2,-15
41.66,2,-5,13,2,2,-4,-2,46
41.665,1,3,11,1,-5,8,4,-41
41.67,-4,-2,-81,-14,-3,-7,-7,-27
41.675,3,-6,-32,-8,-7,16,9,56
41.68,-1,2,13,3,7,-21,-11,-12
41.685,-1,-7,-64,3,11,-2,1,52
41.69,4,11,27,4,-1,7,-7,-47
41.695,-11,-6,36,-6,-1,-17,-2,-33
41.7,2,-3,2,-4,-11,33,5,17
41.705,4,-1,-20,2,3,-24,-8,10
41.71,-4,-5,5,2,2,25,18,-19
41.715,3,1,-18,-15,-4,-17,-12,9
41.72,-3,-6,-44,8,2,3,3,-23
41.725,-1,5,83,-3,-6,-12,-7,-21
41.73,-1,-6,-48,0,4,6,-8,46
41.735,1,13,31,9,-2,-15,-14,-60
41.74,0,-14,-25,-10,-5,13,24,-21
41.745,-2,-7,20,4,5,13,-1,61
41.75,0,2,-11,2,5,-5,4,-4
41.755,-4,-9,-83,-14,-7,3,-1,12
41.76,-4,31,101,9,-3,-17,-16,-21
41.765,-7,-16,-28,-2,-2,-3,18,-33
41.77,-1,-7,30,-9,0,9,-6,54
41.775,9,-1,-9,13,9,12,-12,3
41.78,-9,6,-5,6,13,28,18,-56
41.785,-4,-6,11,-11,-14,-7,5,13
41.79,1,-5,-13,-8,-4,-20,-1,26
41.795,-8,-6,-5,3,-4,-21,5,-1
41.8,0,-8,7,-4,-1,-16,-2,10
41.805,5,12,-8,2,-3,12,14,31
41.81,-7,-9,12,-15,-7,-9,-16,-11
41.815,1,-1,11,10,-2,-14,-8,-16
41.82,1,-5,-5,-2,6,21,7,5
41.825,0,-1,-24,2,0,-6,-5,14
41.83,4,4,23,0,-12,-9,5,-65
41.835,-16,-12,-3,-8,2,-5,5,-14
41.84,11,4,9,0,1,40,-3,22
41.845,9,-13,-90,-10,5,-1,6,40
41.85,-1,37,74,21,8,15,2,-21
41.855,-11,-47,-25,-11,-10,-28,-24,-18
41.86,2,-5,3,7,3,9,27,58
41.865,-3,-4,9,-9,-1,15,10,-11
41.87,6,-2,5,10,2,9,11,45
41.875,10,25,10,6,5,29,36,19
41.88,-14,-16,-24,-10,-3,-23,-32,-88
41.885,2,9,10,6,1,-13,-14,30
41.89,-1,-16,10,1,0,8,-5,-8
41.895,12,13,10,-3,-3,-6,-26,26
41.9,-12,-6,-9,-5,-2,17,24,6
41.905,-8,9,6,-2,0,-7,-14,-36
41.91,-2,-10,-6,2,3,4,12,-28
41.915,-3,-19,15,-1,-3,-4,-24,10
41.92,2,67,20,-3,-8,-41,-53,-4
41.925,20,-3,-17,4,0,21,37,1
41.93,-8,-15,-10,-7,0,-13,-6,4
41.935,2,-30,12,-2,0,3,18,15
41.94,-38,-64,-29,-6,-3,31,-7,-38
41.945,26,85,31,10,16,2,14,43
41.95,-11,-91,-6,-11,-10,-1,-15,-26
41.955,11,-10,-67,-13,-10,-10,18,4
41.96,0,5,80,7,-1,5,-7,20
41.965,-25,1,-72,-6,-7,-6,-93,-59
41.97,28,48,25,14,6,-4,58,20
41.975,-11,0,3,2,6,-2,26,3
41.98,-2,4,24,-7,-14,-47,-32,4
41.985,-16,-28,-4,-8,-10,-8,17,-50
41.99,-1,19,-11,-6,3,9,-46,46
41.995,-4,-11,0,8,3,25,73,45
42,21,-4,-28,-7,-6,-44,-43,-14
42.005,-7,-2,43,5,7,-3,-12,42
42.01,-10,-12,-34,-8,-12,-9,19,1
42.015,7,1,67,4,5,-13,-21,23
42.02,29,29,-44,-6,-5,2,23,46
42.025,-32,-68,-85,-24,-13,-11,1,-40
42.03,15,23,47,9,2,20,2,5
42.035,-26,16,6,2,2,14,-19,-91
42.04,11,7,9,7,9,-33,7,3
42.045,15,-16,25,-3,-21,-61,-35,92
42.05,40,-14,-24,11,24,57,24,-71
42.055,-18,52,1,-9,-6,17,20,32
42.06,-12,-26,-37,-5,-2,40,-5,-38
42.065,-29,13,35,7,3,-33,-18,-69
42.07,-13,16,1,-7,-19,-31,-6,-4
42.075,-8,-42,-11,2,15,1,-62,113
42.08,-20,22,-3,0,-5,-9,-22,-55
42.085,15,-22,36,6,0,12,30,-75
42.09,-18,10,-17,-13,-21,-46,-19,8
42.095,-31,-21,15,4,7,0,59,18
42.1,8,15,-32,-9,4,6,2,68
42.105,30,8,3,13,6,29,-35,-28
42.11,-14,-11,39,-1,-7,31,32,73
42.115,43,-1,-24,3,-3,-14,25,68
42.12,-11,1,13,9,13,-12,33,-59
42.125,-23,-1,12,-7,-3,12,-17,-9
42.13,12,-9,-8,-6,-4,-43,16,72
42.135,9,35,-17,-7,-6,-9,-20,-76
42.14,24,-23,22,5,13,27,42,69
42.145,-8,-16,3,8,4,19,10,24
42.15,-6,24,-19,-6,-7,-38,4,37
42.155,-19,-14,19,-1,-8,8,-19,-54
42.16,2,12,12,2,-2,-43,-81,-36
42.165,-38,-9,7,-17,1,10,8,26
42.17,11,1,-35,-11,-4,-38,-49,-119
42.175,-23,-21,-37,-13,-13,-30,-17,12
42.18,9,4,23,10,-5,42,41,-54
42.185,6,30,13,0,-5,6,46,80
42.19,-26,11,22,10,-4,-48,-42,2
42.195,27,17,12,-3,2,70,39,-109
42.2,28,-35,-102,-5,6,31,33,57
42.205,-7,24,1,-10,-8,18,25,-25
42.21,-13,-34,-1,-13,-9,-21,-2,48
42.215,38,34,3,12,5,-26,-30,21
42.22,-6,-30,44,1,-3,17,1,127
42.225,0,-3,1,0,-2,23,-9,-100
42.23,2,-4,-27,4,19,58,26,-26
42.235,-3,-10,-4,-1,0,2,-30,47
42.24,34,41,29,-1,-1,-20,-28,-103
42.245,9,-24,-27,-4,-13,-36,26,-4
42.25,6,-28,9,5,14,29,-50,-59
42.255,4,25,5,8,3,71,17,-109
42.26,-101,-99,-25,-19,-19,-70,-4,-46
42.265,49,75,12,11,11,11,42,-28
42.27,34,0,14,1,-1,-30,-33,55
42.275,-29,-34,-49,-15,-19,-19,22,-14
42.28,5,-21,-26,-14,-7,-8,13,-17
42.285,-12,-15,39,16,-1,-28,20,90
42.29,42,37,-2,8,15,79,28,-128
42.295,29,5,-13,-1,2,-23,-40,94
42.3,-17,27,109,-1,-6,25,8,-30
42.305,16,-3,-70,-13,-3,-21,-23,80
42.31,-28,-6,-3,3,-1,0,37,19
42.315,-18,-14,-12,-4,-4,-34,-39,-68
42.32,33,49,-41,4,2,-37,-40,-4
42.325,-2,-35,1,-4,3,31,25,46
42.33,-18,-7,9,1,-9,1,-41,-19
42.335,2,32,23,-3,3,-3,12,-52
42.34,32,-10,-16,-8,-12,-19,-16,41
42.345,-42,-24,-5,-7,10,28,21,39
42.35,-8,13,0,9,5,-8,-45,-67
42.355,-17,-30,-5,0,1,48,25,83
42.36,36,36,-1,5,9,48,27,-128
42.365,18,-2,28,8,6,-25,-33,-53
42.37,38,3,18,0,-12,23,47,109
42.375,-9,-19,-4,-8,5,-12,15,55
42.38,-27,-18,-39,5,12,33,23,63
42.385,17,4,-2,-6,-13,-10,-22,-51
42.39,-15,38,31,0,-4,-17,-14,-51
42.395,-1,-10,-21,-2,-8,-45,2,29
42.4,-9,-6,26,0,1,-8,-7,88
42.405,-15,-20,-23,-1,-1,5,25,-43
42.41,-2,4,-37,-2,-1,-28,-6,-3
42.415,25,16,33,0,-5,-28,-35,37
42.42,-31,-6,-7,3,4,13,41,10
42.425,-2,-14,-29,-7,-7,-11,-27,-9
42.43,-19,-20,35,-8,0,-9,-5,27
42.435,16,19,2,6,1,33,20,-33
42.44,3,-10,4,-2,-3,-43,-37,-32
42.445,-11,12,31,5,-3,-2,-19,7
42.45,-14,-19,-27,-10,-2,2,11,5
42.455,-2,-6,-23,-18,-4,2,-5,-55
42.46,-18,5,17,21,10,-19,12,43
42.465,13,13,9,-1,2,35,-20,-22
42.47,-8,-12,3,7,3,-2,-8,-47
42.475,-16,10,10,-5,-6,-11,9,-6
42.48,-1,11,-26,-17,-6,26,-4,2
42.485,4,-20,-41,-8,-25,-43,-33,1
42.49,-12,1,-49,-30,3,13,21,19
42.495,1,-4,18,37,15,-5,-11,-23
42.5,3,19,38,0,-1,0,-1,-56
42.505,4,0,-42,-11,6,-1,-1,39
42.51,-10,2,96,23,-8,-5,5,-12
42.515,-7,-9,-88,-21,-16,-11,-17,-31
42.52,-1,7,29,-9,3,2,-7,-21
42.525,-7,2,11,-7,11,21,-12,1
42.53,-9,-18,-25,9,2,-28,-12,-3
42.535,13,13,34,-18,-27,-12,-1,-6
42.54,-13,-6,-5,4,-9,-23,-15,20
42.545,-16,-25,-39,-12,-11,-45,-16,-1
42.55,6,25,33,-33,26,52,28,18
42.555,9,7,21,63,46,2,-24,1
42.56,-14,-12,-30,7,-3,32,35,41
42.565,1,9,8,13,-18,-20,-2,-20
42.57,-5,-17,7,-32,-55,-24,-18,-10
42.575,-1,11,12,9,4,-26,3,-4
42.58,6,-7,-22,-28,12,16,0,-1
42.585,7,7,37,57,18,0,-7,-7
42.59,-13,-35,-40,-7,-27,13,22,23
42.595,-7,0,26,-31,7,-5,-2,-42
42.6,2,2,-3,-28,-19,-6,-6,11
42.605,-1,4,-8,34,8,-4,11,-7
42.61,1,10,-44,0,2,17,2,-15
42.615,-16,-19,21,-65,26,24,-5,-6
42.62,5,-2,-7,127,8,-3,-6,-13
42.625,-6,0,-21,-128,-82,-30,15,-6
42.63,-1,-1,-5,120,37,-15,-24,43
42.635,-12,-8,-12,-27,-41,21,-11,-23
42.64,4,9,48,-3,63,-6,34,-16
42.645,6,-8,-14,-12,-4,33,-17,0
42.65,3,7,18,-3,15,-9,31,-2
42.655,-2,0,-21,20,22,13,-13,12
42.66,-4,-7,47,-51,-39,-39,-15,1
42.665,-2,12,-56,43,15,-5,2,-13
42.67,-1,-16,-22,-63,3,-6,-15,-13
42.675,1,1,32,85,14,9,14,14
42.68,-1,-9,-60,-24,-15,1,-2,-8
42.685,1,-8,46,-2,-2,-8,10,2
42.69,-3,14,7,-6,-2,19,-4,-8
42.695,-3,4,-51,-5,-14,-10,2,1
42.7,2,-25,-34,-22,-3,-15,-16,-1
42.705,-6,6,79,34,3,15,5,-3
42.71,-3,-26,-90,-122,-56,-30,-17,-9
42.715,7,8,70,76,29,43,20,10
42.72,2,17,12,-61,29,18,20,29
42.725,12,8,-12,-1,29,10,-4,21
42.73,0,-6,21,-3,-11,1,6,-20
42.735,3,8,55,3,-11,3,-2,9
42.74,-10,-22,-44,-39,-60,-15,-12,-15
42.745,-1,1,-14,33,10,-7,0,0
42.75,-2,6,-4,-35,0,-35,-19,-2
42.755,-3,-20,-39,-14,-21,17,7,-4
42.76,-2,1,11,28,-17,-1,-3,-1
42.765,6,2,26,-54,16,-14,-2,-7
42.77,1,0,-29,89,72,15,-10,-2
42.775,-1,1,32,-50,-22,12,2,-2
42.78,-3,-4,35,13,-33,-18,-12,-9
42.785,-2,8,34,-43,-6,-38,-8,-5
42.79,6,12,-33,89,-16,35,13,5
42.795,-1,-1,6,-22,12,-63,-21,6
42.8,7,-10,-29,49,20,39,19,5
42.805,-7,-13,-28,-2,-18,15,2,-22
42.81,7,28,67,-10,13,-13,4,-17
42.815,-5,-43,-43,-50,-19,-46,-24,19
42.82,-5,-3,-76,17,8,8,10,-26
42.825,0,13,19,38,32,-8,-3,-6
42.83,-6,-8,106,-45,-2,-6,-10,0
42.835,5,14,-20,7,25,40,16,6
42.84,-1,10,-22,30,24,-11,-14,-11
42.845,-6,-19,-28,8,18,25,12,2
42.85,2,27,13,-13,-16,-13,-6,1
42.855,-3,-8,-7,-17,-49,-31,-11,-7
42.86,5,10,53,0,8,25,12,11
42.865,-7,-12,-36,-13,-13,0,-4,-7
42.87,-4,-31,-33,0,-9,0,2,9
42.875,5,18,2,3,-7,16,7,-8
42.88,-1,-11,-48,-36,-44,-39,-13,-2
42.885,-1,17,110,-21,4,5,4,3
42.89,8,-5,40,53,68,64,31,16
42.895,5,13,-37,19,5,-22,-3,11
42.9,-6,10,-38,-7,88,-18,-8,-11
42.905,-3,-32,-8,-52,-124,6,-2,0
42.91,-6,-15,-25,-14,-12,-15,-11,-8
42.915,2,18,49,8,13,16,7,-3
42.92,6,-1,43,29,-25,-3,-4,13
42.925,-1,5,-57,-11,24,-13,-12,-7
42.93,-4,8,-25,-2,-6,3,1,-2
42.935,-6,-11,-42,-31,-11,2,-2,-5
42.94,-9,-23,20,-11,13,16,3,-5
42.945,3,-1,-16,40,16,6,2,1
42.95,-4,0,-74,-16,-11,-36,-9,-3
42.955,-3,-2,-21,-25,-14,27,0,-12
42.96,0,-3,1,10,-5,10,1,2
42.965,-2,-5,14,6,-4,-26,-19,-3
42.97,4,20,-6,3,-27,8,9,1
42.975,2,-7,0,-17,13,-9,-4,-11
42.98,-9,-29,-36,-17,-19,-15,3,-10
42.985,-3,4,33,8,25,18,-2,3
42.99,2,5,11,28,-4,-21,-13,-2
42.995,-3,-9,33,19,18,6,4,4
43,7,27,25,1,11,15,-3,0
43.005,-5,-10,-17,5,-6,-16,0,-2
43.01,-5,-16,1,-48,-3,4,2,-1
43.015,7,10,-17,54,22,9,2,-1
43.02,-5,-11,-15,-24,-29,-15,-11,2
43.025,1,11,43,9,20,9,9,1
43.03,-2,4,-33,-11,-20,-2,-6,-1
43.035,-11,-42,35,-6,-12,-15,-4,-6
43.04,1,20,79,-16,-12,-3,-3,0
43.045,0,-8,-102,4,1,1,0,1
43.05,-2,4,79,15,13,7,0,-4
43.055,-5,2,-41,-25,-11,-36,-9,-2
43.06,-3,8,92,1,-39,0,23,-2
43.065,0,-5,-89,17,46,43,11,-1
43.07,-5,-16,16,11,-4,-10,0,2
43.075,-6,6,34,10,33,-5,-4,-11
43.08,3,-5,18,-23,-15,2,-8,4
43.085,4,14,68,25,-12,-8,1,0
43.09,1,-4,-10,-12,-4,-1,-1,-3
43.095,-2,2,-14,-5,-2,-5,2,3
43.1,1,7,-12,7,9,-3,-8,-3
43.105,-1,2,-30,-24,-8,-5,-1,9
43.11,-10,-12,55,9,4,-5,-10,-10
43.115,-1,6,-19,-20,-27,-4,-2,3
43.12,0,0,-17,17,17,4,-2,2
43.125,1,-7,-7,-10,5,6,4,2
43.13,-1,-2,-11,1,-11,-9,-4,2
43.135,0,2,2,-3,-5,3,2,0
43.14,-4,-4,-18,1,4,6,1,-1
43.145,-2,-2,25,-3,-12,-8,-4,-4
43.15,-4,-3,-17,-7,4,-1,-2,-2
43.155,2,5,5,0,-8,2,2,0
43.16,1,-4,-34,-5,3,-2,-4,2
43.165,1,-2,26,-2,-2,0,0,-4
43.17,-2,-4,-50,-10,-11,-6,-4,-5
43.175,-5,-3,26,3,-13,-16,-5,-2
43.18,4,6,-70,1,14,15,1,1
43.185,-1,0,8,6,23,16,5,1
43.19,3,4,13,11,4,6,3,1
43.195,-1,-5,-17,-5,-17,-7,-4,-1
43.2,-5,-16,11,-11,-11,-17,-7,-3
43.205,-2,20,55,-1,-19,-11,-6,-10
43.21,2,-5,-68,-4,13,5,1,1
43.215,-2,2,-33,3,-2,3,1,1
43.22,-1,-3,4,-7,-1,-2,-3,-1
43.225,1,-7,-19,-4,1,3,0,2
43.23,1,1,16,3,-6,-5,-2,-2
43.235,-1,1,25,-4,-1,1,-1,-3
43.24,-1,0,-8,-2,1,1,0,-1
43.245,-2,-6,-14,-3,-3,-5,-1,-1
43.25,-3,5,21,4,-1,-1,-1,0
43.255,2,-5,0,-3,3,2,-1,-2
43.26,0,2,-9,12,2,7,0,0
43.265,-3,-2,-29,-5,-7,-9,-4,-2
43.27,-3,-9,-20,-19,-15,-10,-3,-1
43.275,0,6,4,-1,12,9,0,1
43.28,0,-3,21,20,14,5,1,2
43.285,-2,-4,-1,-9,-13,-4,-1,-3
43.29,2,2,-52,-1,4,0,-6,-1
43.295,-1,2,59,-3,0,2,1,0
43.3,-1,-2,-26,-8,-5,-7,-4,-2
43.305,-1,2,29,8,3,-1,0,0
43.31,0,-2,-40,-14,-4,-1,-1,-1
43.315,-1,-4,-1,0,-9,-3,-2,-2
43.32,-1,0,-2,-1,3,0,-1,-2
43.325,-3,-6,0,-2,-1,-3,-2,-1
43.33,-1,-1,43,2,-2,-1,0,1
43.335,-3,-1,-6,8,5,2,0,-3
43.34,1,4,-11,-13,-7,-2,-2,0
43.345,-4,-11,-10,-2,-3,-2,-2,-2
43.35,-1,-4,-1,-7,-3,-1,-1,-3
43.355,0,7,71,10,1,2,0,0
43.36,-3,-13,-43,-10,-5,-4,-3,-2
43.365,-1,-4,-6,-4,0,0,1,-2
43.37,2,-2,-3,6,3,4,-2,-2
43.375,-2,-6,39,1,-1,0,1,1
43.38,4,20,21,-1,-2,-3,-1,0
43.385,-1,1,-15,4,4,0,0,-1
43.39,-2,-1,-6,2,-4,-3,-1,0
43.395,-1,-7,2,-7,-4,-3,-3,-1
43.4,-1,-5,-13,-1,-2,0,1,2
43.405,0,1,1,-7,-1,-1,1,0
43.41,-1,6,15,3,-1,2,1,-1
43.415,0,-2,-75,13,25,8,3,1
43.42,0,-2,18,0,-4,0,-1,-2
43.425,-1,8,62,2,-2,-4,-2,-2
43.43,-1,-7,-1,-5,-11,-7,-2,0
43.435,-2,-4,-49,-12,-10,-6,-2,0
43.44,-2,-2,11,2,3,0,-3,-2
43.445,1,-2,-18,0,0,1,0,-1
43.45,0,4,22,2,2,-2,-1,-1
43.455,-1,1,-16,-2,-2,-2,-2,0
43.46,-2,-3,11,7,3,-1,-2,-3
43.465,5,8,6,0,0,0,1,0
43.47,-2,-6,-9,-3,0,0,-2,-3
43.475,0,-1,-28,-4,-4,0,-1,0
43.48,-3,-7,-15,-3,-7,-4,-2,-1
43.485,-2,5,13,1,-2,-2,-3,-3
43.49,0,-1,11,5,5,1,1,-1
43.495,2,2,-20,-7,-3,-1,1,0
43.5,-1,-5,15,7,4,1,1,1
43.505,-3,-9,-77,-4,1,1,1,0
43.51,-5,5,51,-7,-4,-5,-4,-4
43.515,-3,-9,-6,-1,-7,-6,-2,-3
43.52,-1,4,6,-1,-1,0,0,-2
43.525,-1,-9,-25,-6,0,-1,-1,1
43.53,0,1,16,-4,-2,-1,0,1
43.535,-1,-1,-6,7,3,3,1,0
43.54,0,-5,-38,-7,-1,-4,-2,-2
43.545,1,7,49,1,-2,-2,-1,-1
43.55,-3,-4,-6,4,-2,1,-1,1
43.555,-1,4,13,-15,-9,-4,-2,-2
43.56,0,4,27,10,3,1,1,1
43.565,-1,-7,-2,3,5,5,0,0
43.57,1,0,12,4,3,0,-1,1
43.575,-3,-4,-44,4,-3,-1,-2,-1
43.58,-3,-12,-6,-16,-8,-4,-2,-4
43.585,-1,4,-17,-2,-7,-6,-2,-2
43.59,-2,1,28,3,7,2,1,-2
43.595,0,-5,-7,0,-1,0,-1,-1
43.6,-1,10,-8,-3,-5,-5,-3,-3
43.605,-4,-10,8,-2,-6,1,-1,-2
43.61,2,9,-27,-7,7,1,1,0
43.615,2,-4,19,8,5,3,0,0
43.62,-2,-5,16,-4,-2,-2,-1,-1
43.625,-2,1,-14,-3,-7,-5,-2,-1
43.63,-2,11,1,-6,-8,-4,-2,-2
43.635,3,1,-13,-21,-4,-1,2,2
43.64,-3,-2,15,55,20,6,1,0
43.645,-2,-3,3,-3,2,-1,0,-1
43.65,6,19,-5,-1,-12,-6,-3,-2
43.655,-10,-33,27,-9,4,3,0,-1
43.66,0,17,42,-13,-12,-3,-4,-1
43.665,-7,-30,-11,2,2,-3,0,-4
43.67,-5,-9,-23,0,-3,-1,-2,-2
43.675,-1,10,25,1,-9,-7,-5,-5
43.68,-1,-4,-33,-9,-8,-6,-1,1
43.685,0,0,14,13,16,11,4,2
43.69,-1,-12,43,12,11,6,4,2
43.695,-3,-1,-65,-1,-5,-6,-6,-4
43.7,6,11,33,-4,-7,-4,-2,-1
43.705,1,-7,-32,-18,-1,2,2,-1
43.71,5,7,30,20,7,2,1,3
43.715,-3,4,-45,-1,-11,-9,-3,-3
43.72,-3,-20,-4,-12,4,-2,-2,-2
43.725,2,-1,6,-4,-2,2,1,1
43.73,-3,-10,-19,4,9,6,2,1
43.735,-1,7,49,-5,-1,-4,-3,-2
43.74,-3,-13,-16,-13,-8,-6,-3,-1
43.745,-1,23,9,3,-6,-4,-3,-3
43.75,-4,-15,-47,-19,-15,-6,-2,-3
43.755,0,-4,25,11,-2,0,-2,1
43.76,-1,-1,-10,2,15,2,1,0
43.765,-1,-7,-52,-30,4,3,-1,0
43.77,-2,12,-29,4,0,-1,-1,-1
43.775,-3,-16,-21,1,6,2,3,-1
43.78,1,5,32,6,-5,-1,0,0
43.785,2,0,29,5,-15,-11,-5,-2
43.79,-2,-12,-27,-32,-9,-4,-5,-1
43.795,12,52,15,38,13,6,5,2
43.8,-13,-69,-19,-11,-6,-3,-2,-4
43.805,-2,17,7,-12,4,2,0,-2
43.81,2,24,-31,10,2,2,2,-1
43.815,1,6,47,3,1,-2,-2,-1
43.82,0,11,-18,-12,-13,1,-2,-2
43.825,1,-8,16,12,3,-3,0,2
43.83,2,10,26,19,4,4,0,-1
43.835,-6,-15,-39,-14,0,-1,-2,-1
43.84,6,-6,2,16,3,-1,3,3
43.845,-6,6,11,-4,-1,-4,-3,-2
43.85,-5,-21,3,-7,-5,-10,-1,-2
43.855,-2,8,22,-5,-1,10,5,2
43.86,0,22,5,-1,-3,-1,-1,1
43.865,1,-4,16,17,3,1,-2,-1
43.87,-1,0,79,45,-4,-10,-4,-4
43.875,6,29,-17,-46,-11,-4,-1,-1
43.88,-1,-9,-43,14,11,6,2,1
43.885,-8,2,12,-7,5,6,0,-2
43.89,3,27,-58,-10,-1,-11,-6,-3
43.895,-4,-38,27,-37,-15,-6,-1,-1
43.9,-10,-2,30,27,5,3,-1,-4
43.905,-2,-30,-52,-20,-3,-2,2,-2
43.91,-3,-27,42,-24,-3,0,-2,-2
43.915,-12,-4,-53,11,1,-16,-7,-7
43.92,4,21,10,-21,-1,12,4,3
43.925,-6,-2,-25,14,-4,-4,5,0
43.93,3,2,42,-41,-20,8,-5,-2
43.935,-6,3,-39,68,25,3,-3,-4
43.94,2,12,-25,-16,-7,-3,-5,-4
43.945,-10,-38,8,0,-1,-12,-6,-6
43.95,-4,-13,-19,-17,-3,1,2,0
43.955,3,-8,31,-8,-11,-9,0,2
43.96,-3,-5,-7,11,2,5,5,1
43.965,11,41,-10,-10,-14,-11,-7,0
43.97,7,4,-24,-2,7,5,0,2
43.975,-6,40,63,1,-4,-5,-5,-5
43.98,-8,-50,10,-10,-14,-6,-2,-1
43.985,3,7,-28,10,16,1,2,6
43.99,-14,-41,17,-43,-12,-8,-4,-3
43.995,14,3,-17,-11,4,3,3,4
44,1,6,-78,36,3,-6,-3,-4
44.005,-7,-2,26,-3,-4,-8,-5,-6
44.01,-3,12,27,-13,-14,4,4,-1
44.015,-6,-70,-14,40,15,0,-7,1
44.02,0,51,26,-37,-5,-8,-3,-7
44.025,-1,0,13,-16,-4,8,14,3
44.03,-5,-32,-10,37,12,-14,-15,-1
44.035,6,38,-31,-47,-13,34,26,-1
44.04,-17,-89,-30,57,22,-3,-16,-3
44.045,6,87,85,19,1,-7,-8,-1
44.05,5,51,-9,-30,-11,-1,0,0
44.055,13,12,64,43,16,10,7,8
44.06,-14,-20,8,-80,-30,-7,-1,-6
44.065,-1,-18,7,-49,10,10,12,2
44.07,3,-21,-40,53,12,-14,-9,-3
44.075,-9,19,-62,-10,-16,-18,-16,-11
44.08,16,46,58,-7,-24,3,8,1
44.085,-3,26,86,-69,-35,1,-9,-5
44.09,-7,-8,-53,57,29,-5,3,-1
44.095,-11,-85,-116,39,50,29,6,1
44.1,4,85,42,10,9,-2,-5,0
44.105,-11,-115,-94,-45,-10,-4,-5,-5
44.11,16,44,-11,-26,-24,6,7,3
44.115,-24,-51,114,25,-3,-22,-10,-8
44.12,9,5,-35,-88,-70,-37,-11,1
44.125,-11,-48,-103,127,81,20,3,3
44.13,11,48,4,-7,-6,11,0,-2
44.135,-24,-35,10,-51,-11,-21,-7,-5
44.14,-4,-80,37,-45,-4,7,3,0
44.145,14,81,30,-59,-49,-30,-15,-4
44.15,-15,-98,99,18,-16,6,7,-2
44.155,13,49,-76,-120,31,20,-12,2
44.16,1,5,98,21,19,6,3,0
44.165,20,36,-81,-34,-19,-6,1,4
44.17,-14,39,89,20,1,0,-1,-2
44.175,-6,-62,-10,-14,-22,3,-1,-1
44.18,12,69,29,40,-1,-7,-1,5
44.185,10,0,13,68,42,24,5,6
44.19,-1,-2,62,-91,-25,-17,-4,-7
44.195,-5,-12,65,-14,8,-4,5,1
44.2,4,-4,-65,-79,-23,1,-2,2
44.205,-5,-18,44,-39,-10,4,0,-1
44.21,-2,-7,-32,118,27,15,1,1
44.215,1,19,27,110,13,11,-2,-3
44.22,-7,-10,27,20,11,15,7,-3
44.225,11,53,0,5,-7,4,4,5
44.23,-23,-53,9,-105,-35,-24,-12,-12
44.235,41,59,8,19,7,17,18,18
44.24,-17,42,99,-7,30,-3,-2,-2
44.245,-2,42,-75,115,20,4,2,2
44.25,6,17,17,-8,13,5,3,4
44.255,12,60,53,29,-17,-18,-4,-1
44.26,16,62,9,-10,-3,-4,0,2
44.265,-6,-68,24,-13,-7,14,-3,-9
44.27,-18,10,-97,10,5,-1,-4,-7
44.275,-25,-13,-11,-46,-42,-54,-22,-19
44.28,7,-19,23,104,74,59,23,9
44.285,11,20,-58,-9,-19,-13,-2,3
44.29,0,-20,4,-33,11,12,3,0
44.295,-14,-86,-106,-73,-24,-6,-5,-6
44.3,-14,-23,14,75,-19,-22,-11,-10
44.305,-7,16,127,0,-6,-8,-2,-1
44.31,7,-26,-89,-46,2,0,3,2
44.315,0,0,-52,-24,-6,12,5,3
44.32,-1,6,-13,-51,-14,1,-5,-6
44.325,4,12,96,30,13,-8,-7,0
44.33,-25,-72,-59,60,10,5,0,-6
44.335,-9,-11,93,59,3,0,-2,-2
44.34,0,-13,-22,-26,-11,-14,-6,-3
44.345,-14,-30,40,-32,-10,-9,-7,-8
44.35,12,37,-42,2,-2,-13,10,5
44.355,7,30,60,12,-8,9,-17,0
44.36,-3,-27,-98,15,3,-13,2,-2
44.365,-6,-17,-24,-24,-6,-32,4,2
44.37,0,5,34,9,6,43,-8,13
44.375,3,20,-24,-15,0,-57,-12,-33
44.38,-3,-10,-73,-41,-15,52,17,-15
44.385,0,-22,-6,-18,-5,-14,-15,7
44.39,-12,-32,-119,-67,-4,-22,-4,-23
44.395,3,22,87,5,0,-3,-2,10
44.4,-2,-6,54,5,4,-34,-9,34
44.405,-1,-2,-12,3,-6,5,1,-25
44.41,1,13,45,25,-1,-7,-3,-11
44.415,6,7,-49,-6,2,30,17,19
44.42,-3,-14,51,11,2,-17,-9,-32
44.425,0,-10,-31,-14,-10,19,-1,30
44.43,14,29,32,1,6,-30,-2,20
44.435,7,9,-34,-31,-3,6,10,31
44.44,1,-2,-10,9,3,-5,-16,2
44.445,-16,-12,1,-1,-3,-3,10,-37
44.45,-9,2,-9,-9,3,77,3,4
44.455,19,17,44,13,8,20,4,-5
44.46,-5,-6,-34,1,2,-59,-7,12
44.465,-5,-9,-6,2,-2,4,-5,10
44.47,-8,-2,4,-7,-6,-25,-5,1
44.475,-1,6,8,0,-3,0,-19,3
44.48,3,1,-24,-8,4,45,6,26
44.485,7,-3,13,-1,7,-7,-4,-39
44.49,5,16,24,11,4,-8,23,6
44.495,-2,-4,-27,3,-2,46,-5,-31
44.5,3,2,-12,-3,-2,-63,-2,20
44.505,-6,-7,10,-3,-1,39,5,-14
44.51,24,28,32,46,5,-12,29,84
44.515,-20,-22,-89,-16,-10,-59,-4,-52
44.52,6,7,84,4,3,33,1,-9
44.525,-3,-7,-28,-12,1,-10,-2,17
44.53,-3,2,20,-5,-6,12,-18,-52
44.535,-9,1,22,8,4,39,27,12
44.54,-8,-22,-40,1,-7,-3,5,39
44.545,-4,8,43,-2,-1,-35,-41,-27
44.55,3,6,17,5,9,4,-15,-19
44.555,7,7,18,-12,-12,-10,1,50
44.56,-13,-5,-34,-12,-13,-41,-25,-95
44.565,-8,-10,9,3,2,61,40,18
44.57,-17,-14,-16,-19,-15,-89,-35,-43
44.575,11,5,14,-2,7,66,26,35
44.58,6,2,-6,2,10,43,7,41
44.585,1,-3,-24,-4,-5,-31,12,15
44.59,-2,0,-15,-11,-9,-19,-36,15
44.595,-9,-2,-1,-1,1,1,34,-1
44.6,0,11,77,6,-4,-19,-14,-6
44.605,-7,-11,-91,-11,3,-26,-1,-40
44.61,2,8,23,5,5,10,-2,18
44.615,-4,1,22,-2,2,-3,0,-31
44.62,-2,0,-12,-4,1,42,14,9
44.625,11,-1,25,5,-3,-52,-38,-21
44.63,5,1,-2,4,1,-6,9,10
44.635,-9,-8,-34,-6,-2,-2,3,0
44.64,7,6,4,2,-5,-19,-6,-44
44.645,4,-5,-15,-7,-6,16,2,72
44.65,0,7,3,-2,4,-30,0,-71
44.655,11,5,42,12,-2,-9,-30,66
44.66,-4,-10,-35,-6,4,47,39,64
44.665,-14,5,20,1,-8,-4,3,-5
44.67,-2,-11,-12,-14,2,32,19,-51
44.675,-10,-3,-6,-10,-10,-29,-29,-37
44.68,-2,-6,-21,-3,4,17,12,-23
44.685,-2,1,19,2,-1,-6,10,44
44.69,-4,-4,-2,-1,1,2,-17,-57
44.695,-1,4,-6,-4,-6,-24,-13,-31
44.7,-2,-4,-17,-3,0,-19,-9,18
44.705,8,-7,15,-1,-3,-7,-23,-25
44.71,-8,6,64,0,-5,14,3,41
44.715,7,-4,-20,-5,2,10,-3,-45
44.72,2,3,-27,-1,-3,-24,-7,-29
44.725,-10,5,26,2,-4,2,3,0
44.73,21,-5,-43,0,2,1,25,127
44.735,-2,-9,10,-3,0,16,7,-111
44.74,-8,3,1,-6,-1,-10,-6,-22
44.745,-5,0,-17,5,0,11,-3,-29
44.75,4,-5,4,-1,0,21,13,49
44.755,15,12,-2,3,-10,-38,27,-70
44.76,-20,-22,-15,-9,-7,-39,-84,99
44.765,19,29,10,4,13,58,57,69
44.77,-22,-30,-8,-2,-4,-27,1,-53
44.775,6,7,4,1,1,25,102,-13
44.78,-11,-5,-13,-5,-5,12,-34,55
44.785,18,-9,25,8,5,-19,-38,-71
44.79,4,14,17,-4,-4,0,18,59
44.795,-14,4,-3,1,9,29,-18,32
44.8,-29,-31,-59,-10,2,28,61,-54
44.805,10,2,-8,-4,-6,-7,24,111
44.81,-17,20,93,8,3,40,-6,-94
44.815,17,-20,-83,0,-4,-48,-55,5
44.82,-4,34,34,4,-2,-22,-19,14
44.825,-8,-16,40,-8,-9,6,51,38
44.83,29,8,-56,-6,-1,-13,-38,-30
44.835,-10,-5,15,-3,-4,-19,16,74
44.84,0,5,15,5,3,13,-4,16
44.845,8,-3,-30,0,-1,-5,-5,-7
44.85,-26,3,-3,1,-2,-2,35,-86
44.855,12,-9,19,-7,-6,-9,36,116
44.86,23,-2,-25,-1,7,15,31,-48
44.865,-6,15,7,0,1,4,-47,-27
44.87,9,-27,-24,-3,2,-43,-5,41
44.875,-47,-10,-10,-9,-10,-25,-34,118
44.88,35,31,39,7,12,47,53,-128
44.885,15,-5,-31,-4,-8,-8,29,38
44.89,-9,9,-5,0,2,35,3,-94
44.895,-6,-1,53,7,5,-5,-37,-54
44.9,33,25,-5,5,-2,-9,55,127
44.905,-18,-57,-44,-16,-7,-87,-80,-128
44.91,-7,15,-2,-2,-4,29,16,93
44.915,-22,-9,8,-10,1,5,-20,-94
44.92,27,15,18,10,-1,7,7,54
44.925,-8,17,-2,-1,1,19,14,-10
44.93,2,-7,-17,1,-5,-22,-12,39
44.935,18,12,16,6,11,36,-14,-62
44.94,-37,-23,-2,-10,-21,-55,-40,9
44.945,-15,4,-11,-2,-4,30,12,31
44.95,-35,-18,-7,-11,-5,-27,-49,27
44.955,19,5,-3,1,4,9,72,98
44.96,9,-4,8,2,1,-2,-32,-70
44.965,5,-2,-1,-4,-5,-2,5,-21
44.97,13,12,16,1,-7,29,23,22
44.975,8,4,5,7,-1,0,-30,-60
44.98,-31,-26,-26,-14,1,-14,-17,15
44.985,1,2,-16,-10,-6,4,-29,-116
44.99,-49,-21,-23,-5,-9,-29,-27,-5
44.995,-21,-7,9,4,-8,-17,-23,-16
45,7,-11,-20,-9,-1,12,7,-25
45.005,-4,22,62,2,-2,2,-6,-27
45.01,-2,-17,-36,-12,-4,6,9,-18
45.015,11,6,35,-10,-2,-6,-6,-31
45.02,-19,-3,7,2,1,11,27,-3
45.025,-17,-9,-33,4,-2,-5,14,87
45.03,15,-10,-4,0,-5,1,-30,-53
45.035,-9,1,-47,11,8,-5,15,76
45.04,19,3,36,-12,-9,-13,-28,-25
45.045,-14,-9,-6,-2,2,4,-8,-4
45.05,19,-1,21,8,5,7,7,-13
45.055,-6,6,31,1,-5,3,-1,10
45.06,-5,-11,-43,-3,-1,-2,-7,2
45.065,8,0,-7,2,2,3,10,15
45.07,4,12,-2,-1,4,2,5,-2
45.075,-1,1,-2,-6,-3,-9,-7,-43
45.08,11,13,-9,5,4,-6,-4,33
45.085,-5,-11,22,-6,-3,9,19,-31
45.09,15,-1,-1,3,8,2,-3,7
45.095,3,5,-8,-5,-6,-10,15,69
45.1,1,1,51,3,0,0,-22,-93
45.105,-6,-1,-34,2,4,13,8,5
45.11,10,-4,28,-1,-4,-3,-6,37
45.115,2,-5,-36,-9,-3,-7,-14,-5
45.12,-16,-16,34,3,-2,-3,6,2
45.125,-2,19,-2,0,3,2,0,-17
45.13,4,6,0,-1,-3,-11,12,38
45.135,14,-6,6,4,0,0,-9,-5
45.14,-10,-3,-21,0,-1,0,5,-14
45.145,11,0,26,0,-2,-6,-3,19
45.15,7,12,-9,-1,3,11,14,14
45.155,9,-4,-60,1,2,7,20,30
45.16,-4,-9,25,-3,-1,3,-7,-40
45.165,4,16,26,6,2,-9,-5,32
45.17,1,-26,-88,-10,0,3,4,-14
45.175,-21,12,23,-1,-6,-8,-16,-7
45.18,8,0,-11,0,0,-1,1,18
45.185,-1,-2,-25,2,3,1,-3,11
45.19,6,2,13,-3,3,2,5,-5
45.195,-11,-6,25,0,-1,-4,-17,-37
45.2,3,0,-49,-2,-2,3,7,-8
45.205,-8,-2,24,-4,-7,-13,-14,0
45.21,-4,-4,-41,-3,-2,0,0,-7
45.215,8,10,59,3,1,1,-1,-30
45.22,-7,-10,-20,-1,3,-6,-14,11
45.225,-10,-16,-23,-2,-1,9,4,14
45.23,-7,5,8,1,-2,-4,8,-3
45.235,2,-1,13,-2,-3,-2,-11,-23
45.24,-1,10,19,1,0,0,1,15
45.245,1,-7,-10,-1,0,-3,-5,-10
45.25,-4,-2,-15,1,4,5,8,-3
45.255,-3,-1,-21,-9,-6,-11,-34,-81
45.26,0,-3,-23,4,0,11,8,15
45.265,5,-13,-37,-12,-1,-11,-6,-9
45.27,6,20,56,8,0,0,0,-4
45.275,3,-8,-33,-3,-2,1,8,17
45.28,-7,2,19,1,-3,-4,0,-10
45.285,-2,4,12,6,2,3,1,-8
45.29,-1,-5,-15,-2,1,-3,-7,-4
45.295,-2,5,37,2,0,2,1,-10
45.3,-4,-17,-37,-13,-9,-8,-4,5
45.305,1,5,19,-3,-7,-2,2,24
45.31,-2,4,37,4,12,5,-4,-14
45.315,0,-2,-6,9,10,9,3,18
45.32,-2,3,6,-2,-2,-2,1,5
45.325,-1,-2,7,-3,-10,-6,-3,5
45.33,0,-4,-18,-18,-14,-5,-3,-13
45.335,-3,-6,-19,-1,3,1,0,1
45.34,1,5,9,3,2,-3,-1,8
45.345,-5,-5,1,-3,-4,-1,-3,-9
45.35,1,2,20,-11,-7,-4,-4,-3
45.355,-1,-2,-13,16,6,-1,0,12
45.36,-4,-7,14,-10,-4,-4,-1,-2
45.365,-2,0,-16,-6,-5,-3,0,6
45.37,-2,3,31,7,-8,-2,-4,-5
45.375,2,-1,-27,-16,9,1,3,5
45.38,-2,0,5,23,7,3,1,-1
45.385,-2,-2,12,0,3,3,1,-3
45.39,0,-2,2,2,-10,-9,-5,-3
45.395,0,-5,-2,-22,-15,-6,-3,-3
45.4,-1,6,17,9,-3,-2,-3,-1
45.405,3,7,-12,22,6,1,1,7
45.41,-8,-13,10,-8,3,-2,-1,-7
45.415,2,6,28,-5,-3,1,1,5
45.42,-3,-8,15,-14,-6,-2,-3,-1
45.425,-8,-7,-36,-25,-13,-9,-7,-5
45.43,4,-2,15,34,8,2,0,-2
45.435,-6,-10,-35,-4,-3,1,-1,0
45.44,-2,-7,-24,-12,-6,1,0,1
45.445,2,5,34,5,3,1,-1,-4
45.45,-5,-5,12,-1,-5,-2,-3,-3
45.455,-3,-15,-35,-6,-3,-2,-1,3
45.46,-2,4,6,-1,3,-1,-1,-1
45.465,-2,-9,-27,-7,0,0,0,2
45.47,1,10,33,-12,4,-2,1,-1
45.475,-1,-10,-8,17,4,2,1,1
45.48,0,11,23,-9,-2,-1,0,0
45.485,-2,-11,-12,1,-2,-3,-2,-4
45.49,3,22,-32,-8,-4,-3,0,1
45.495,0,-17,-21,-18,0,1,0,0
45.5,-3,-12,-73,7,0,0,0,0
45.505,1,25,75,7,-4,-2,-3,-1
45.51,-3,-20,-45,-2,-2,-4,-3,-2
45.515,0,-8,7,-5,0,1,-1,2
45.52,1,8,15,-2,1,-3,-2,-2
45.525,-3,-8,-19,6,0,2,0,0
45.53,0,8,10,-2,-1,1,-1,0
45.535,-2,9,28,5,0,-2,-1,-1
45.54,0,-13,-23,-7,-1,-1,0,-1
45.545,-2,6,14,-1,-4,0,-1,-3
45.55,-1,-2,29,6,0,-1,1,0
45.555,-1,-5,-45,-2,-6,-4,-2,0
45.56,1,-2,75,20,2,2,-1,2
45.565,-5,0,-31,-20,-8,-6,-4,-4
45.57,-4,-10,-11,-4,-2,-2,-3,-2
45.575,-3,-2,49,-11,-3,1,-2,-3
45.58,-3,14,60,8,-1,-3,-2,-2
45.585,-3,6,-13,0,-9,-6,-3,-3
45.59,0,-3,-37,-3,3,-1,-3,-2
45.595,3,-2,60,12,10,7,3,0
45.6,0,-2,-3,-3,4,3,2,2
45.605,4,10,2,0,-3,-2,-1,1
45.61,-4,-9,15,2,-6,-5,-3,-2
45.615,10,26,-72,-10,-3,0,3,8
45.62,-12,-23,75,-3,-4,-5,-6,-8
45.625,0,1,34,9,2,2,0,0
45.63,-4,-6,-46,-6,3,4,2,-2
45.635,3,20,104,26,1,0,0,1
45.64,-8,-27,-93,-19,-7,-4,-2,-3
45.645,3,13,5,20,4,1,1,3
45.65,-5,-5,77,-5,-6,-6,-5,-4
45.655,-9,-9,23,1,-1,-1,-1,-3
45.66,3,-1,-59,0,-2,0,-2,-1
45.665,0,-1,9,-10,2,0,-1,0
45.67,-7,-22,-89,-39,-5,-3,-3,-4
45.675,3,2,23,11,-1,-3,-3,-2
45.68,3,-1,-43,-15,-4,-1,0,0
45.685,1,15,84,12,2,0,-1,-2
45.69,-7,-19,-27,0,-7,-2,-5,-2
45.695,-4,-18,-68,-8,5,-2,-2,-1
45.7,2,4,-24,19,10,7,3,2
45.705,-1,5,-14,-8,-2,-5,-4,-2
45.71,0,6,32,12,-2,-3,-1,-2
45.715,1,0,-4,11,-4,-5,0,-2
45.72,0,0,56,14,3,1,0,0
45.725,0,-2,-128,-42,1,3,4,2
45.73,3,3,51,13,-2,-3,-2,0
45.735,-2,-6,-48,-15,-7,-5,-3,-3
45.74,-1,-1,29,5,2,1,0,0
45.745,-5,-13,-62,-9,0,-1,-1,-3
45.75,4,19,104,-4,-2,1,0,0
45.755,-8,-19,-68,-22,-3,-2,-2,-3
45.76,-2,0,46,-1,-8,-5,-5,-5
45.765,3,7,10,13,0,-2,-2,0
45.77,0,3,17,11,2,1,1,1
45.775,-4,-3,28,-2,2,2,2,0
45.78,0,0,-43,3,-2,-3,-2,-1
45.785,-3,2,17,-6,-1,-1,0,-1
45.79,1,1,-18,-3,-1,-1,-3,-2
45.795,-1,-3,52,2,-5,-2,-4,-4
45.8,-4,-4,53,1,-4,-4,-3,-3
45.805,2,-8,23,-18,-5,-2,0,2
45.81,-3,1,-84,-7,4,2,0,-2
45.815,1,4,-10,3,-1,-2,-1,0
45.82,-1,5,69,4,-4,-6,-3,-2
45.825,-5,-14,4,-11,-10,-4,-3,-3
45.83,3,5,-44,2,7,2,2,2
45.835,1,5,-17,5,4,3,0,1
45.84,-1,-3,-34,-1,1,1,0,-2
45.845,-4,5,77,12,-3,-1,-3,-2
45.85,5,8,76,-8,-2,-2,-2,2
45.855,-5,-2,-27,-2,-5,-3,-1,-3
45.86,-6,-16,-66,-14,-6,-5,-4,-3
45.865,0,-9,-34,9,5,2,0,-1
45.87,-3,-6,48,12,0,2,0,-1
45.875,-1,6,-41,-7,-4,-3,-3,-1
45.88,3,4,17,-2,-3,2,0,1
45.885,-3,-4,-1,1,4,1,-1,-1
45.89,-1,-6,-97,-7,-1,-3,-1,-2
45.895,1,-11,53,0,2,0,1,1
45.9,-2,3,-44,-10,-3,-3,-2,-2
45.905,-4,-6,-13,5,-2,-7,-5,0
45.91,0,1,24,3,-4,-1,1,0
45.915,-1,-2,0,-3,1,5,0,-1
45.92,-2,-2,-65,-5,2,6,8,-1
45.925,2,11,81,9,-3,1,-2,0
45.93,-3,-12,-9,-5,-4,-7,-2,-2
45.935,1,-8,-94,-7,-3,-4,-3,-1
45.94,0,2,-1,-3,0,-4,-3,0
45.945,0,-3,-32,2,1,1,0,-1
45.95,-1,3,53,4,-6,1,1,-3
45.955,0,-1,-18,-1,1,-3,1,-2
45.96,1,1,9,8,0,7,-1,0
45.965,0,-5,-43,-6,2,-6,0,-1
45.97,1,6,-18,1,3,11,1,-1
45.975,-4,-2,37,3,-1,-4,-2,0
45.98,-1,0,-10,-5,-2,-4,-1,11
45.985,-2,-6,-2,-6,-6,-11,-6,-15
45.99,-2,-5,-3,-3,1,-1,0,-1
45.995,-1,-2,8,2,-1,-1,-3,0
46,0,3,22,2,1,-2,-2,-1
46.005,-5,-6,35,-13,-6,3,3,2
46.01,0,-2,-58,0,0,-8,-2,1
46.015,1,14,60,6,0,8,1,-2
46.02,1,-3,-23,-3,3,-3,-9,-1
46.025,0,0,-2,9,4,2,9,7
46.03,0,2,0,-2,1,18,-7,-7
46.035,0,-2,30,2,-1,3,10,1
46.04,-2,-2,-18,-7,-7,-11,7,-4
46.045,1,-1,-3,1,-3,-10,-13,1
46.05,-3,-5,15,0,-1,-16,-6,-3
46.055,-1,-2,-20,0,1,15,6,-3
46.06,-2,1,14,-5,-2,11,1,-5
46.065,-1,-5,-20,2,0,-8,-4,-2
46.07,-1,3,20,2,-3,-8,0,6
46.075,-1,-4,-10,-6,0,-8,-8,-2
46.08,-2,0,-12,-11,-6,-10,-4,-6
46.085,1,1,11,12,-2,5,5,4
46.09,1,3,-8,-13,7,1,-1,-1
46.095,-1,-1,-10,-28,-12,-6,-3,-3
46.1,0,-2,1,32,13,3,-1,1
46.105,0,-1,-8,-8,-10,1,-1,-1
46.11,2,10,35,5,0,5,2,2
46.115,-4,-10,-17,-6,-9,-9,-5,-4
46.12,-1,-4,-7,-13,-3,-2,-1,2
46.125,0,-1,9,2,3,1,3,-3
46.13,4,3,3,3,-2,-5,-6,-2
46.135,-4,0,8,2,1,13,3,3
46.14,1,3,-4,-5,-4,-3,-7,-1
46.145,-7,-2,-35,-3,-1,-30,-7,-4
46.15,5,3,-2,2,6,87,37,8
46.155,-3,-4,5,6,4,-8,-8,-10
46.16,2,2,17,-1,0,12,0,5
46.165,-2,-1,-12,2,0,-48,-23,-4
46.17,-4,-3,11,7,0,19,18,1
46.175,2,-4,-66,-17,-7,3,-3,17
46.18,-4,-2,4,3,3,5,-7,-29
46.185,2,4,20,1,-4,-20,-10,6
46.19,-5,-5,-5,-1,-6,-27,-9,-11
46.195,-1,0,13,6,1,-6,-2,2
46.2,2,6,4,-5,3,4,9,10
46.205,-4,-13,-25,-10,-1,28,-1,-1
46.21,-6,-5,7,-1,-9,-19,4,-3
46.215,1,5,-1,-1,0,1,-3,0
46.22,-1,-5,7,-7,-6,-29,-12,2
46.225,-6,2,13,8,-5,-34,2,-9
46.23,-2,-4,8,-7,4,47,7,3
46.235,-3,-9,-5,-2,-8,-28,-4,-9
46.24,1,0,-4,-4,3,-8,3,-4
46.245,4,4,16,5,-2,27,-13,-2
46.25,-9,-10,-17,-7,-11,-87,-2,-10
46.255,3,7,8,12,9,66,18,2
46.26,-1,-2,-7,0,-4,17,-3,31
46.265,-3,-3,-2,-7,7,30,16,-16
46.27,4,0,-5,-1,-7,-67,-44,-24
46.275,-3,1,11,-3,-3,-34,12,-6
46.28,-6,-6,-11,4,0,-14,-15,2
46.285,-1,2,-4,-3,0,0,17,8
46.29,-3,7,9,2,8,96,20,-3
46.295,-5,-9,9,-3,-3,-27,-23,-13
46.3,4,11,3,4,-6,-30,2,4
46.305,-7,-19,-45,-19,-7,-3,10,11
46.31,-1,-3,1,-1,1,8,-13,2
46.315,0,-3,9,7,-7,-30,-21,2
46.32,1,8,46,3,8,4,2,-5
46.325,6,1,-42,-1,4,17,-25,-6
46.33,2,3,14,-4,3,16,39,16
46.335,4,4,10,0,2,10,-26,-11
46.34,-1,-7,-5,0,-9,-15,0,3
46.345,-2,1,7,2,1,0,10,-31
46.35,6,4,-5,0,-1,-47,-41,19
46.355,-3,3,-8,9,4,11,36,10
46.36,1,1,-3,-5,6,52,24,-36
46.365,5,2,18,2,-9,-30,-11,34
46.37,6,4,-1,6,-1,-16,9,29
46.375,-11,-8,-38,-29,-17,-36,20,-24
46.38,-6,-3,-17,1,10,43,-35,-5
46.385,4,8,17,4,7,43,34,5
46.39,2,-3,7,4,-6,-23,-23,-20
46.395,1,-2,-4,-3,3,-14,-28,5
46.4,-12,2,1,0,-8,-10,26,-2
46.405,7,-14,-16,-12,-7,4,-5,7
46.41,8,17,26,18,16,-12,5,3
46.415,11,3,-3,-2,-2,23,14,4
46.42,-5,4,17,1,-3,-28,-19,-15
46.425,1,3,-7,1,1,50,10,-4
46.43,-38,-44,-45,-23,-13,-34,-11,-11
46.435,7,10,15,3,8,24,-2,3
46.44,-4,-17,-31,-7,-12,-23,-26,21
46.445,-7,11,29,7,0,7,21,-2
46.45,5,2,-24,-3,6,12,-24,-18
46.455,1,-6,-4,-6,-8,-20,4,60
46.46,2,-12,-7,-14,-9,11,16,-30
46.465,-14,-11,-3,-5,2,-5,6,-20
46.47,9,12,5,9,-3,-4,13,-5
46.475,-10,-4,-3,-4,0,-6,-9,0
46.48,-1,5,5,5,5,-12,4,5
46.485,11,-1,1,-1,-4,-50,-24,50
46.49,-1,2,12,-1,-8,-25,-15,-8
46.495,4,6,14,13,11,55,22,14
46.5,-2,-3,-3,-2,-4,-31,-31,-55
46.505,-5,2,-6,-5,0,3,-16,-28
46.51,1,-5,-18,-2,-3,-3,34,50
46.515,-3,0,5,6,9,-4,-12,7
46.52,-7,0,-14,-7,-3,-6,18,-48
46.525,-9,-6,14,1,-2,11,10,4
46.53,-1,-1,-16,-8,-10,-23,-18,-11
46.535,-4,-7,-1,-5,-2,0,17,-31
46.54,8,9,-4,7,12,11,3,37
46.545,-7,-6,-3,-3,-7,5,-16,-17
46.55,-21,-6,2,-3,-6,-9,-4,-3
46.555,8,3,6,-1,-3,-2,-5,-18
46.56,-8,-9,-18,-6,-10,-34,-10,36
46.565,4,4,18,2,0,-9,6,9
46.57,3,-3,-12,0,7,20,4,-9
46.575,-2,6,8,9,2,-4,15,24
46.58,9,2,-2,-6,-2,-16,13,19
46.585,-9,-3,-8,-4,-3,-31,-14,-2
46.59,3,6,11,2,0,44,14,-28
46.595,-4,-5,-11,-5,1,-4,-22,-23
46.6,1,-6,-2,-1,-2,17,15,23
46.605,1,1,9,19,16,37,2,-3
46.61,6,-6,-14,-8,-13,-22,-34,2
46.615,-3,2,-1,-1,1,11,-25,-11
46.62,-1,-3,-4,-8,-7,-1,8,1
46.625,-1,-1,5,-5,-2,-3,-4,-2
46.63,-1,-7,-15,-2,-2,-1,-4,-6
46.635,2,7,-12,-5,0,1,1,0
46.64,-1,-2,7,12,6,3,0,0
46.645,0,-5,-17,1,0,1,-1,1
46.65,1,6,15,-2,-7,0,-3,0
46.655,1,-2,18,2,-2,-3,-2,-3
46.66,-6,-12,-12,-5,-2,2,-2,-3
46.665,3,7,18,3,7,1,1,3
46.67,1,2,-35,6,-5,-2,-2,1
46.675,1,-1,8,3,-3,-2,-2,1
46.68,-5,-19,-55,-8,-3,1,1,-3
46.685,2,1,31,4,4,5,2,2
46.69,-6,7,37,1,-4,-5,-4,-6
46.695,2,-4,-110,3,9,3,-1,2
46.7,0,16,87,-3,-6,-3,-1,-1
46.705,-5,-19,-7,-6,-3,-3,-2,-4
46.71,4,-10,-24,-4,-6,-1,0,-1
46.715,0,7,10,3,-2,-1,-3,-2
46.72,1,-2,-94,-14,-4,-2,0,3
46.725,-3,11,14,1,2,-1,-2,-2
46.73,-4,-12,-33,-12,0,0,-2,-2
46.735,0,1,31,5,-4,-1,3,0
46.74,4,6,-20,-1,-1,-3,-2,-3
46.745,-2,-2,28,-8,-7,-3,-3,-1
46.75,-3,-6,-24,-2,3,0,-2,-2
46.755,-7,-14,-10,-6,-2,-2,-1,-3
46.76,1,10,46,6,0,3,0,1
46.765,-1,-1,43,4,-1,-3,-1,-3
46.77,-4,-4,-28,-10,-2,-2,0,0
46.775,0,9,41,-1,-1,0,-1,0
46.78,-3,6,41,5,0,-1,-3,-3
46.785,4,-13,-3,11,0,-1,0,0
46.79,-8,-23,-68,-14,-5,-3,-3,-4
46.795,-1,4,10,-2,-3,-2,-3,-1
46.8,3,3,7,7,3,0,2,-1
46.805,-1,9,9,-15,-4,1,1,2
46.81,3,12,56,8,-3,-3,-2,-1
46.815,-2,-4,-5,0,-2,-2,-3,-1
46.82,-4,-10,23,-9,-8,-8,-5,-6
46.825,-2,-11,-17,5,6,2,1,0
46.83,2,1,-34,-3,0,1,1,0
46.835,0,1,22,4,2,-1,0,-2
46.84,-3,0,38,7,0,-1,-2,-2
46.845,1,1,-28,-4,-2,-2,-1,1
46.85,2,6,66,7,-1,1,1,2
46.855,-5,-8,-46,-9,-5,-1,-3,-3
46.86,0,5,6,0,2,1,-2,1
46.865,-3,-4,-40,-7,-4,-2,-3,-2
46.87,0,-4,-22,12,4,0,-1,1
46.875,2,5,23,-7,-5,-3,-2,1
46.88,-7,-21,-116,-9,-1,0,0,-2
46.885,-1,11,87,8,-2,0,-2,-2
46.89,2,6,-13,2,3,-2,-1,-1
46.895,-4,-16,-47,-7,-5,-4,-2,-2
46.9,2,-5,12,-8,-2,1,0,2
46.905,-4,-17,-30,-1,0,0,-1,-2
46.91,0,8,-16,-2,-2,-2,0,-1
46.915,-4,-1,66,10,3,0,0,0
46.92,0,4,31,-7,1,0,1,0
46.925,1,11,63,11,1,0,-1,1
46.93,6,-1,9,-8,-3,0,-1,2
46.935,-1,1,-16,0,-1,-1,-1,1
46.94,-6,-6,1,1,-2,-1,-3,-3
46.945,0,-9,-85,-9,-4,-3,-1,0
46.95,-4,3,44,10,0,-2,-1,-2
46.955,-3,-6,-23,-2,-2,-1,-1,-2
46.96,5,8,35,5,1,-2,1,1
46.965,-4,-11,-104,-26,-2,-2,-1,-2
46.97,1,3,29,22,3,4,1,-1
46.975,-3,3,70,3,-4,-6,-4,-9
46.98,-2,-1,-31,-2,-13,-6,-6,4
46.985,-1,-14,-79,-31,-3,1,0,5
46.99,4,2,24,27,23,7,4,-4
46.995,-2,-9,-16,-6,0,6,3,31
47,-4,-4,-11,2,-6,-6,-7,-30
47.005,8,19,56,18,-5,-4,-5,-9
47.01,-6,-11,-4,-9,-7,-4,-4,1
47.015,1,-2,-34,3,1,-1,-1,-3
47.02,0,1,17,-5,-2,-1,-1,11
47.025,4,21,92,22,9,6,7,3
47.03,-1,-13,-87,-17,-3,1,-4,-3
47.035,-3,2,71,5,1,0,1,-6
47.04,-7,-9,-29,-10,-5,-1,-1,0
47.045,1,10,52,5,2,-1,2,0
47.05,-2,-1,2,-2,6,-1,-1,1
47.055,0,3,1,0,-1,-5,-6,-5
47.06,-5,-16,-66,-11,-1,6,4,-1
47.065,1,6,113,26,2,2,-5,-2
47.07,-5,-16,-82,-34,-13,-7,-3,0
47.075,-4,-12,-47,-18,-7,-4,-5,-7
47.08,4,7,42,8,7,2,2,2
47.085,-9,-8,-37,-13,-6,-10,-5,-3
47.09,-1,7,55,4,-3,1,-1,-3
47.095,-2,-4,-80,-15,-9,-5,3,-4
47.1,-2,-6,-30,-2,1,-3,-6,-1
47.105,1,4,51,-6,0,-5,-1,0
47.11,1,11,51,3,-1,-19,-2,0
47.115,-5,-18,-37,-5,-2,19,4,-5
47.12,-1,4,10,7,3,-2,-3,0
47.125,1,-4,-44,-3,-5,-4,-3,0
47.13,-3,-7,5,-5,-7,-8,-2,-3
47.135,0,17,27,4,-1,-5,-5,-3
47.14,1,-6,-47,-6,-1,0,3,1
47.145,-6,-9,-6,0,3,2,-4,-2
47.15,-5,-4,-21,1,-2,3,-3,-1
47.155,3,5,18,8,4,-3,-1,-1
47.16,5,3,-32,-8,-5,-1,0,0
47.165,0,-5,-48,-7,-5,1,2,0
47.17,-1,10,53,7,-3,0,2,0
47.175,-1,-8,-44,-5,0,0,-2,0
47.18,0,6,61,6,2,-4,4,2
47.185,3,-9,-77,-10,3,-10,-5,2
47.19,2,-4,18,-4,-5,22,3,-2
47.195,-1,6,23,8,2,-10,-3,-4
47.2,-3,-7,28,2,0,-10,-7,-3
47.205,-4,-5,-46,-3,-4,-3,2,-4
47.21,5,6,-10,1,7,-5,-1,3
47.215,0,-6,-22,-3,1,10,-1,1
47.22,-3,3,41,10,1,13,1,0
47.225,0,-4,1,-1,-2,-13,-6,-3
47.23,-4,-7,-14,-3,-5,-6,-4,-2
47.235,1,3,16,-1,-1,7,8,-1
47.24,0,0,-6,1,-1,-6,-3,2
47.245,-2,-2,0,-4,1,13,0,6
47.25,-3,3,0,6,3,13,3,-16
47.255,4,-3,15,3,1,-8,-2,5
47.26,-3,-3,-9,-5,-5,-8,1,-3
47.265,0,1,0,-2,-1,6,0,2
47.27,-3,-3,5,-3,-4,-16,-8,7
47.275,-2,1,-10,-3,-7,-3,-4,-16
47.28,4,-1,-3,-1,5,-3,-1,10
47.285,-9,-1,5,2,-3,-2,-4,-15
47.29,-1,-1,-6,-1,0,-13,-4,-17
47.295,5,6,13,2,2,17,15,26
47.3,-9,-5,-15,-8,-7,-14,0,-10
47.305,6,4,16,4,1,8,1,16
47.31,-2,-3,-9,-3,-2,-1,-8,35
47.315,-5,0,3,-1,-5,-31,-13,-34
47.32,-2,-1,3,1,3,39,21,-23
47.325,3,-3,-9,-2,9,10,-8,-35
47.33,-5,-5,0,0,-10,-26,-12,61
47.335,7,0,2,-4,-5,-34,-7,28
47.34,-7,-6,-6,1,5,48,21,15
47.345,-12,-3,4,-6,-7,-37,-15,-60
47.35,-1,-5,-9,-2,-1,13,11,27
47.355,-1,-3,-2,-2,6,-9,-14,-10
47.36,9,9,5,1,-5,-34,-23,-5
47.365,-10,-6,-3,0,0,21,33,44
47.37,7,5,-1,-2,1,-1,-33,-94
47.375,-3,-10,-9,-4,-5,-5,10,18
47.38,-4,1,3,-4,5,6,-17,-6
47.385,-6,0,9,4,-7,-23,4,39
47.39,-9,-6,-20,-5,0,17,-3,-60
47.395,5,7,-8,0,9,24,18,16
47.4,-3,-13,-19,-3,-7,-17,-12,29
47.405,-1,-12,-13,-7,-6,-4,7,-5
47.41,-4,-4,-3,-4,-4,-3,11,2
47.415,1,3,6,-6,-5,6,-18,-12
47.42,1,1,-1,0,-3,-17,-10,-5
47.425,-3,2,3,1,-2,9,4,-7
47.43,8,1,-4,-1,4,2,26,65
47.435,2,2,6,11,11,7,3,-21
47.44,-4,-2,4,-7,-9,-31,-13,-3
47.445,6,3,8,-1,-8,8,-1,8
47.45,-3,-1,-4,-7,-1,-5,0,-17
47.455,-8,-9,-15,7,1,-2,-3,-2
47.46,3,3,4,-4,-1,-7,2,0
47.465,0,2,9,-2,0,0,-3,-1
47.47,5,-1,-22,1,-4,-12,7,14
47.475,-2,1,28,-3,-1,6,-17,-15
47.48,3,4,-16,4,9,31,23,17
47.485,-2,0,-8,-5,-8,-22,-12,-20
47.49,2,3,12,5,2,5,8,4
47.495,-8,-7,-5,-1,13,30,12,2
47.5,3,7,10,3,0,1,-7,-25
47.505,6,0,3,1,2,12,3,58
47.51,-3,-6,-10,-5,-5,-24,-11,-8
47.515,3,7,18,2,-4,-8,6,29
47.52,-7,-6,4,-3,-1,1,1,14
47.525,3,1,-52,-6,-1,-15,-10,-28
47.53,1,2,19,7,6,26,0,-15
47.535,-8,-5,-4,-7,-6,-7,-7,-8
47.54,5,6,5,7,3,-2,4,-4
47.545,-6,-7,-1,2,-3,-11,-11,3
47.55,2,-2,2,-7,1,-4,10,4
47.555,-13,-7,-9,-4,1,39,17,-22
47.56,8,3,-17,-6,-8,-17,-15,13
47.565,-10,0,24,2,7,10,10,-31
47.57,3,1,8,13,7,19,-6,24
47.575,-3,2,8,-4,-6,-20,-4,-18
47.58,-15,-5,3,-4,-7,-20,-26,-83
47.585,10,5,10,3,-4,12,27,29
47.59,3,-9,4,-5,-10,-6,8,24
47.595,2,1,4,-5,-5,-33,-14,-1
47.6,-10,-11,0,3,8,16,15,23
47.605,0,-2,-20,5,12,-15,-19,-21
47.61,3,6,4,1,4,21,4,-22
47.615,-1,8,13,7,-10,-15,4,-1
47.62,-3,-22,-46,-26,-9,18,5,10
47.625,5,15,36,-6,-5,11,5,7
47.63,-20,-6,2,22,11,-22,-18,-19
47.635,6,-7,3,-19,-9,4,6,23
47.64,11,12,14,25,23,-10,-4,-3
47.645,-11,1,2,18,-2,-2,3,-58
47.65,17,2,6,-13,-16,38,5,69
47.655,-18,-15,-19,-12,3,-2,3,-27
47.66,6,-21,5,3,-9,3,31,60
47.665,22,75,9,-5,11,20,-36,-13
47.67,-6,-5,-13,-10,-19,-53,3,-6
47.675,4,14,15,8,8,24,4,-36
47.68,-17,-7,-38,-4,3,5,-8,83
47.685,16,-28,-17,-5,1,-19,19,-96
47.69,4,-1,4,-10,-5,-12,-12,14
47.695,6,7,-14,11,5,26,0,2
47.7,-10,-3,13,-5,-3,-26,-12,-30
47.705,-16,-19,-2,-9,-12,-5,-9,9
47.71,-9,-4,-2,1,3,-9,-18,0
47.715,5,-6,9,1,-14,-28,3,15
47.72,0,5,13,11,-4,9,-10,-48
47.725,-15,-28,-46,-20,-3,-10,5,72
47.73,2,10,1,-8,-7,-3,1,-51
47.735,3,-5,-5,7,9,-10,-23,9
47.74,8,19,20,-5,-5,-13,0,1
47.745,-2,-8,16,1,1,12,-5,50
47.75,-2,-2,8,8,7,-4,-3,-54
47.755,4,5,-18,0,3,-8,-7,-14
47.76,2,-5,-25,-16,-15,0,18,37
47.765,-12,-18,1,-5,-6,4,-2,27
47.77,-6,4,-7,1,4,9,7,-33
47.775,-8,-8,-5,-5,0,-8,-1,53
47.78,12,14,17,15,12,24,-10,-87
47.785,0,-5,-1,-8,-12,-22,-7,38
47.79,-1,-1,-7,-1,-6,-4,8,5
47.795,8,7,8,-3,2,-1,-6,7
47.8,-15,-6,-7,-3,4,8,-5,-26
47.805,5,-1,17,15,5,20,4,-10
47.81,-3,4,-3,-3,-1,-11,-31,24
47.815,-12,-14,-14,-8,-8,16,22,-35
47.82,14,6,19,2,-6,-21,-24,35
47.825,0,2,7,0,4,20,-4,-5
47.83,-4,-3,2,4,11,22,10,23
47.835,4,-1,-22,2,-11,-36,-6,24
47.84,-12,-4,12,-7,-3,6,-6,-23
47.845,2,6,-10,6,4,-4,-18,-70
47.85,0,-4,-3,-1,-4,12,12,73
47.855,3,-7,-6,-8,-16,-45,-30,-31
47.86,-3,1,10,-2,15,15,22,41
47.865,6,2,-7,10,3,-2,-6,-4
47.87,-7,-8,-2,-9,-4,-37,13,-1
47.875,1,3,10,5,3,25,-12,36
47.88,-2,4,9,-6,-12,19,17,-47
47.885,-10,-7,-4,-8,-3,-20,15,3
47.89,-2,-1,-5,0,1,0,1,8
