0.01,4,0,1,0,1,2,3,8
0.015,1,1,0,0,1,0,2,1
0.02,10,4,3,2,4,3,6,9
0.025,1,0,1,1,2,1,0,3
0.03,2,1,3,3,3,1,1,2
0.035,2,2,4,2,2,0,0,1
0.04,6,0,1,2,0,2,3,3
0.045,1,1,2,2,0,1,0,2
0.05,1,2,3,0,2,3,7,9
0.055,4,0,2,3,3,2,6,5
0.06,2,2,3,1,0,1,1,2
0.065,7,4,1,0,0,1,2,3
0.07,13,4,1,0,2,4,8,11
0.075,4,4,1,3,3,6,10,8
0.08,11,2,2,1,1,5,6,10
0.085,1,2,2,2,2,2,1,0
0.09,10,1,3,3,0,1,3,0
0.095,4,1,5,1,1,6,6,5
0.1,3,2,0,2,2,2,1,0
0.105,1,3,1,1,0,1,1,0
0.11,4,1,2,1,0,1,0,0
0.115,4,0,2,0,3,3,5,4
0.12,3,2,1,0,0,1,2,3
0.125,4,2,1,1,1,1,3,2
0.13,0,1,2,1,1,0,1,0
0.135,11,1,1,1,1,0,0,2
0.14,15,4,1,1,2,1,2,6
0.145,3,3,2,1,2,3,3,4
0.15,1,3,2,3,3,3,1,1
0.155,1,2,7,6,4,2,2,1
0.16,1,0,1,0,2,2,1,3
0.165,0,2,0,1,1,1,1,3
0.17,7,2,1,1,2,2,5,7
0.175,4,6,8,3,1,2,3,1
0.18,3,0,1,1,2,2,1,2
0.185,9,1,0,2,0,0,1,1
0.19,8,3,3,0,2,0,0,5
0.195,8,1,1,0,2,4,2,5
0.2,6,3,6,3,3,1,1,4
0.205,0,1,1,2,2,2,1,0
0.21,0,5,1,2,1,1,2,0
0.215,8,2,2,1,1,1,1,3
0.22,0,1,0,1,1,0,0,3
0.225,6,6,6,5,2,0,2,12
0.23,2,0,1,2,0,1,2,0
0.235,3,0,3,2,2,2,1,0
0.24,5,1,0,1,0,2,1,2
0.245,2,2,1,2,3,2,1,2
0.25,1,3,3,1,4,2,2,2
0.255,11,2,3,3,4,7,3,7
0.26,6,3,1,2,1,2,9,1
0.265,5,3,1,4,14,10,1,1
0.27,3,1,1,4,8,4,4,5
0.275,9,3,1,1,9,8,5,4
0.28,6,1,2,2,2,2,5,5
0.285,2,0,6,3,2,1,5,3
0.29,9,1,0,3,0,0,2,4
0.295,6,1,0,2,2,4,4,3
0.3,10,2,0,2,8,9,6,16
0.305,2,5,2,3,9,6,3,0
0.31,0,2,0,0,1,1,4,2
0.315,10,3,2,0,1,2,8,4
0.32,7,2,2,4,2,1,1,6
0.325,18,1,0,2,0,4,0,12
0.33,8,0,3,2,4,4,5,13
0.335,10,2,2,1,1,5,4,8
0.34,16,2,7,2,4,2,1,4
0.345,6,2,1,0,3,3,1,4
0.35,7,1,3,2,3,1,3,8
0.355,25,1,3,1,1,3,5,9
0.36,18,2,3,2,3,2,3,3
0.365,3,5,2,3,5,5,0,6
0.37,2,2,1,2,2,2,0,3
0.375,5,2,2,1,0,2,0,1
0.38,2,1,1,3,2,4,8,2
0.385,3,2,3,2,3,2,1,1
0.39,3,3,0,1,3,1,2,3
0.395,2,3,3,2,3,1,1,3
0.4,1,2,1,1,3,1,1,1
0.405,12,1,2,1,2,0,1,3
0.41,4,3,5,5,3,2,3,4
0.415,6,1,2,3,0,0,3,3
0.42,2,3,4,0,1,2,1,5
0.425,7,3,4,4,2,2,3,5
0.43,2,2,4,3,3,1,4,3
0.435,4,2,3,2,0,1,1,1
0.44,1,4,3,4,2,2,1,1
0.445,2,2,1,1,1,0,1,0
0.45,2,3,1,1,1,1,2,3
0.455,1,0,1,1,1,2,3,3
0.46,2,2,0,1,0,0,0,1
0.465,1,3,2,1,1,1,0,0
0.47,1,0,2,1,1,1,1,0
0.475,17,4,1,1,1,0,1,5
0.48,20,4,5,3,4,2,3,4
0.485,5,11,4,4,5,6,4,12
0.49,12,2,2,2,1,2,1,5
0.495,2,0,0,1,1,2,1,1
0.5,6,0,1,2,1,0,1,1
0.505,2,2,1,0,1,0,0,1
0.51,8,2,1,1,0,0,2,3
0.515,6,1,2,2,3,3,3,2
0.52,2,1,0,0,4,2,4,3
0.525,5,2,1,1,0,1,5,4
0.53,5,2,0,3,0,2,0,5
0.535,1,4,2,2,3,4,8,12
0.54,6,3,1,1,2,4,3,2
0.545,6,1,0,0,2,6,11,7
0.55,5,2,2,4,2,5,10,9
0.555,1,2,1,1,1,5,7,3
0.56,9,3,1,1,3,5,6,5
0.565,17,1,1,2,1,2,2,7
0.57,2,4,3,0,1,4,8,5
0.575,7,6,8,4,2,4,4,8
0.58,5,1,0,2,1,0,3,3
0.585,13,2,1,1,0,6,10,8
0.59,3,1,4,2,3,2,3,2
0.595,15,2,1,1,0,2,0,1
0.6,0,3,0,0,2,1,1,1
0.605,1,1,0,1,0,2,1,1
0.61,6,2,1,1,2,0,6,8
0.615,2,2,2,2,2,1,0,5
0.62,6,1,1,1,3,2,5,2
0.625,3,3,2,2,1,2,1,6
0.63,8,3,0,2,0,0,0,3
0.635,12,1,2,3,0,2,1,9
0.64,1,3,3,4,5,5,4,6
0.645,4,2,3,5,6,4,6,4
0.65,1,2,1,1,1,0,2,2
0.655,0,4,1,3,1,1,2,2
0.66,7,2,1,1,1,1,0,7
0.665,1,0,0,1,1,1,2,3
0.67,3,2,3,3,1,2,3,3
0.675,3,1,1,1,0,0,2,3
0.68,3,1,2,0,2,3,1,0
0.685,5,0,2,1,0,0,0,3
0.69,0,2,0,0,4,2,1,2
0.695,0,3,1,1,2,2,1,2
0.7,0,4,4,4,1,1,1,1
0.705,10,1,5,1,3,2,3,1
0.71,7,5,0,3,3,1,3,4
0.715,1,0,3,2,2,3,3,5
0.72,2,0,4,3,2,1,2,3
0.725,2,4,3,3,2,1,1,1
0.73,2,1,2,1,2,1,1,1
0.735,3,1,1,1,1,1,1,2
0.74,5,5,4,2,2,1,4,11
0.745,5,1,0,1,0,0,1,1
0.75,4,1,2,2,0,1,2,1
0.755,1,0,0,2,2,0,1,2
0.76,2,2,1,0,3,1,3,3
0.765,3,1,2,1,0,2,2,5
0.77,7,0,0,0,1,0,2,2
0.775,7,1,2,0,2,4,2,4
0.78,2,0,1,0,2,1,0,0
0.785,6,1,1,2,0,0,1,3
0.79,11,1,4,4,4,0,1,5
0.795,4,1,3,0,1,1,2,3
0.8,1,0,4,3,0,3,4,2
0.805,3,5,1,2,0,1,0,2
0.81,5,3,1,1,1,2,0,2
0.815,10,3,2,2,0,3,3,6
0.82,4,4,1,1,2,3,5,1
0.825,2,0,1,1,2,0,0,1
0.83,2,1,2,1,2,2,0,1
0.835,7,3,2,2,1,0,1,3
0.84,2,1,0,0,1,1,0,1
0.845,0,9,5,4,3,5,9,6
0.85,4,1,1,1,0,3,4,3
0.855,9,2,2,2,1,0,0,5
0.86,8,5,4,1,1,0,3,3
0.865,1,3,1,4,3,4,5,5
0.87,5,1,3,2,1,4,0,1
0.875,0,3,3,3,1,1,1,4
0.88,1,3,2,1,1,5,1,1
0.885,1,0,1,0,1,0,0,2
0.89,1,2,3,1,1,1,1,1
0.895,0,2,0,2,0,0,3,1
0.9,8,0,1,3,5,3,6,8
0.905,1,5,4,1,1,1,3,6
0.91,2,1,4,4,1,1,3,6
0.915,3,2,1,1,0,2,3,2
0.92,2,2,0,2,0,1,2,2
0.925,1,1,4,4,3,1,1,0
0.93,3,2,1,1,1,0,2,5
0.935,1,5,2,1,2,0,0,1
0.94,2,2,0,3,2,0,1,1
0.945,3,1,0,1,1,3,0,1
0.95,2,3,2,2,1,1,2,5
0.955,19,4,4,3,4,3,1,1
0.96,21,1,3,3,1,1,4,5
0.965,1,1,5,2,2,3,2,0
0.97,7,4,3,4,2,1,1,2
0.975,2,4,0,2,2,2,4,3
0.98,14,5,3,1,3,1,0,2
0.985,2,3,0,1,2,6,2,0
0.99,2,0,1,2,1,0,4,3
0.995,6,0,2,1,2,2,1,0
1,3,1,1,1,0,1,0,1
1.005,3,3,1,1,1,1,2,2
1.01,4,4,3,1,2,1,1,0
1.015,4,2,5,3,3,4,5,3
1.02,1,0,4,3,0,0,1,2
1.025,8,8,3,1,2,2,3,2
1.03,1,1,5,4,3,3,1,1
1.035,2,1,1,0,1,2,2,2
1.04,1,0,0,2,1,2,2,5
1.045,11,2,3,3,2,5,7,14
1.05,2,1,1,0,1,0,3,4
1.055,2,1,3,4,3,5,6,5
1.06,6,3,2,2,1,1,2,4
1.065,2,1,1,1,1,0,2,4
1.07,4,6,7,5,2,0,3,1
1.075,3,2,4,2,3,0,4,1
1.08,0,1,0,1,1,1,2,2
1.085,3,2,3,2,1,7,29,6
1.09,4,6,5,3,1,11,36,9
1.095,1,4,2,3,2,4,5,5
1.1,12,3,3,2,4,18,39,21
1.105,8,3,4,2,2,0,5,3
1.11,2,1,1,1,1,6,9,2
1.115,3,2,2,0,3,3,13,6
1.12,3,2,2,3,1,6,10,4
1.125,2,1,1,3,1,1,10,2
1.13,1,1,0,0,2,1,7,0
1.135,3,2,2,3,3,4,12,3
1.14,1,2,0,2,0,2,8,1
1.145,2,1,2,0,0,3,11,6
1.15,0,1,2,0,2,1,3,0
1.155,1,2,2,4,3,6,5,4
1.16,0,1,0,0,2,0,3,0
1.165,2,1,1,0,1,1,2,5
1.17,3,4,1,1,0,3,2,4
1.175,3,0,3,0,1,0,3,4
1.18,2,0,1,2,2,0,6,0
1.185,1,1,0,0,0,3,7,0
1.19,1,1,3,2,0,1,3,4
1.195,0,3,1,1,1,4,4,5
1.2,1,1,2,1,0,2,4,2
1.205,1,1,0,3,2,1,3,1
1.21,17,4,3,1,2,1,6,9
1.215,13,2,6,4,1,3,1,6
1.22,2,3,0,1,1,1,2,0
1.225,1,4,2,1,0,1,0,2
1.23,6,1,1,2,1,3,2,1
1.235,11,1,0,1,2,2,2,9
1.24,2,2,2,2,2,2,1,4
1.245,1,1,2,2,2,1,2,2
1.25,8,3,2,1,3,0,4,1
1.255,2,2,2,1,1,1,1,0
1.26,8,1,1,3,2,1,0,6
1.265,4,1,3,2,2,0,1,3
1.27,1,2,1,2,3,4,5,7
1.275,5,0,2,1,0,2,2,0
1.28,2,1,0,1,1,0,1,0
1.285,1,2,3,4,2,2,3,0
1.29,3,1,1,4,2,1,1,1
1.295,1,1,0,2,0,1,1,1
1.3,0,2,1,1,3,1,3,1
1.305,0,2,2,4,1,3,3,2
1.31,0,1,0,1,1,0,1,0
1.315,4,1,1,2,0,1,1,1
1.32,2,1,2,0,2,1,1,1
1.325,5,2,2,1,2,3,5,8
1.33,2,2,3,1,1,1,0,2
1.335,2,0,3,3,2,2,1,1
1.34,1,1,4,3,0,2,1,2
1.345,0,1,1,1,0,0,1,2
1.35,1,0,1,0,0,1,1,0
1.355,3,4,5,3,3,1,4,3
1.36,0,0,2,1,1,2,2,1
1.365,1,2,1,1,2,2,1,2
1.37,1,4,4,2,1,2,1,2
1.375,0,1,1,1,1,1,0,0
1.38,1,3,2,1,2,0,1,2
1.385,3,3,0,1,0,0,3,2
1.39,1,0,2,0,0,1,1,1
1.395,1,1,1,0,1,1,3,3
1.4,4,5,1,2,2,1,1,0
1.405,1,2,1,1,0,3,2,2
1.41,5,1,2,2,4,3,7,9
1.415,1,2,0,0,1,2,1,1
1.42,1,2,2,2,1,2,1,0
1.425,2,3,2,0,0,0,3,1
1.43,3,2,1,2,2,0,2,5
1.435,4,2,1,1,3,1,1,3
1.44,3,0,0,0,1,0,1,0
1.445,1,1,3,1,1,1,3,1
1.45,0,0,3,2,2,2,2,2
1.455,1,0,2,3,2,4,1,1
1.46,0,1,0,0,3,1,2,2
1.465,2,2,3,3,4,5,7,3
1.47,1,1,0,1,2,0,2,2
1.475,2,1,0,0,1,1,0,1
1.48,4,5,2,2,2,2,4,3
1.485,0,1,0,1,1,1,2,1
1.49,3,3,3,1,3,2,6,7
1.495,0,1,1,0,0,1,1,1
1.5,2,2,1,3,0,1,0,0
1.505,5,3,1,2,2,3,3,2
1.51,0,0,1,2,2,3,5,1
1.515,2,2,3,1,2,0,0,1
1.52,1,1,3,1,3,1,1,4
1.525,1,4,0,0,1,0,1,0
1.53,1,1,0,1,2,2,1,0
1.535,2,1,1,0,3,2,4,2
1.54,1,2,1,0,0,2,4,0
1.545,1,1,1,1,4,1,8,3
1.55,0,0,4,0,6,0,7,0
1.555,1,3,0,0,0,7,8,6
1.56,1,4,1,1,7,3,4,1
1.565,1,1,3,0,2,3,2,1
1.57,1,3,0,2,1,9,21,3
1.575,2,2,4,5,5,7,9,3
1.58,2,2,3,2,2,7,23,8
1.585,2,2,2,3,5,5,5,4
1.59,3,2,2,2,2,2,8,3
1.595,1,4,3,3,0,0,1,0
1.6,1,2,1,1,1,3,5,1
1.605,2,3,1,3,2,2,1,3
1.61,2,4,5,8,11,3,2,1
1.615,0,1,1,2,9,1,4,0
1.62,1,4,1,9,22,6,4,1
1.625,0,0,6,3,1,2,3,2
1.63,4,6,2,1,5,5,21,8
1.635,2,5,0,2,6,6,2,2
1.64,1,1,0,2,8,4,6,1
1.645,2,0,1,0,2,2,5,2
1.65,3,2,0,0,4,0,11,4
1.655,0,0,2,0,1,2,1,0
1.66,2,1,1,1,1,2,4,1
1.665,2,1,0,2,0,0,4,1
1.67,3,1,1,1,4,7,10,4
1.675,0,1,3,1,6,4,5,2
1.68,1,2,0,2,1,1,15,2
1.685,2,0,1,1,2,0,10,1
1.69,6,5,3,3,1,5,13,8
1.695,3,0,1,1,0,5,10,4
1.7,3,3,1,4,7,2,1,4
1.705,3,3,2,0,1,0,3,0
1.71,1,1,2,2,1,6,8,3
1.715,0,0,0,1,4,2,4,2
1.72,2,3,4,3,3,4,7,3
1.725,0,2,3,2,3,5,4,2
1.73,1,1,2,4,2,1,2,1
1.735,5,2,2,0,0,1,2,2
1.74,5,1,2,2,1,2,0,4
1.745,4,2,1,1,0,1,5,8
1.75,4,4,8,3,2,2,2,2
1.755,2,1,4,5,4,0,0,2
1.76,2,1,1,2,0,3,1,2
1.765,0,1,2,2,3,6,13,2
1.77,0,0,0,2,0,0,5,1
1.775,2,1,1,1,1,1,3,1
1.78,1,2,1,2,2,2,1,0
1.785,2,2,1,0,0,2,0,3
1.79,2,1,1,4,2,1,3,4
1.795,1,3,3,0,1,1,2,0
1.8,3,3,3,5,4,2,2,2
1.805,0,1,2,2,2,1,3,1
1.81,1,3,2,3,5,5,2,1
1.815,0,0,0,0,3,2,2,0
1.82,1,0,1,2,0,2,6,3
1.825,1,0,1,1,1,3,2,1
1.83,0,3,1,1,2,1,3,1
1.835,1,0,2,1,0,0,1,0
1.84,0,0,2,5,5,2,3,2
1.845,1,0,1,1,1,2,3,2
1.85,0,1,1,1,0,2,6,3
1.855,3,3,1,1,0,0,1,0
1.86,2,1,1,0,0,1,3,0
1.865,0,1,2,1,1,2,5,1
1.87,2,0,1,2,2,3,8,3
1.875,0,0,1,1,1,0,1,2
1.88,3,1,1,0,1,0,6,1
1.885,0,3,0,4,4,2,1,0
1.89,1,1,2,1,1,0,5,0
1.895,0,2,2,5,2,1,1,0
1.9,3,5,2,7,4,4,3,2
1.905,2,0,1,2,1,0,3,1
1.91,1,2,2,2,1,1,2,0
1.915,0,0,0,1,1,2,0,0
1.92,0,1,0,0,1,1,0,3
1.925,0,3,1,2,0,2,2,1
1.93,1,0,2,3,2,3,4,3
1.935,0,1,5,12,4,3,1,2
1.94,5,9,14,19,7,1,2,1
1.945,3,0,2,4,5,6,11,4
1.95,2,1,2,1,0,2,5,3
1.955,2,2,7,5,1,3,2,0
1.96,1,1,2,6,1,1,2,0
1.965,0,1,1,1,0,2,6,0
1.97,3,1,2,1,0,1,5,3
1.975,0,1,2,0,1,2,4,0
1.98,1,2,1,3,2,1,0,2
1.985,2,1,2,5,2,2,1,0
1.99,0,1,2,2,0,0,6,1
1.995,1,5,8,12,4,2,14,4
2,1,1,5,4,1,5,8,3
2.005,1,2,1,1,1,0,3,0
2.01,4,3,1,2,3,0,2,0
2.015,3,1,1,3,0,2,2,3
2.02,3,0,5,5,1,1,0,1
2.025,4,2,7,1,1,3,8,5
2.03,0,2,7,8,2,1,5,5
2.035,0,3,1,3,3,3,1,0
2.04,3,1,4,1,2,0,5,3
2.045,3,5,3,5,3,1,2,2
2.05,0,2,2,2,2,0,2,1
2.055,1,3,4,0,4,3,0,0
2.06,2,0,3,5,0,0,2,1
2.065,14,7,8,5,4,1,1,3
2.07,8,11,41,22,4,3,10,0
2.075,10,13,65,31,7,1,1,3
2.08,3,1,8,5,1,2,1,2
2.085,2,9,26,9,1,2,6,1
2.09,12,18,46,26,11,3,1,5
2.095,5,6,20,13,4,0,1,0
2.1,1,1,2,2,1,0,3,1
2.105,2,1,3,0,1,0,0,1
2.11,2,4,8,1,0,0,0,1
2.115,1,2,9,3,0,1,1,1
2.12,2,6,12,12,4,2,5,1
2.125,5,10,21,15,8,6,10,4
2.13,2,2,4,0,2,1,1,1
2.135,4,3,0,3,2,0,2,1
2.14,1,2,2,2,5,3,6,1
2.145,3,1,1,5,1,0,0,0
2.15,3,0,4,0,0,1,0,3
2.155,1,3,0,4,0,0,1,0
2.16,3,1,4,2,0,0,0,2
2.165,3,2,1,0,1,1,7,8
2.17,4,7,8,4,3,4,2,1
2.175,1,1,11,5,2,3,2,7
2.18,10,4,8,6,4,2,0,3
2.185,10,0,3,2,0,1,3,3
2.19,4,1,2,1,1,4,5,1
2.195,5,1,2,2,2,7,13,4
2.2,0,3,6,2,2,1,1,1
2.205,8,1,7,7,1,0,3,1
2.21,1,2,6,2,3,1,1,2
2.215,5,0,4,0,1,1,1,3
2.22,3,0,12,6,2,1,1,0
2.225,2,2,5,4,2,0,0,1
2.23,8,2,1,1,0,0,0,6
2.235,2,0,4,1,3,4,2,4
2.24,1,3,1,4,4,4,7,1
2.245,5,2,1,0,0,1,0,6
2.25,2,1,5,3,1,1,3,1
2.255,4,2,2,0,1,0,3,3
2.26,4,1,6,3,1,0,4,2
2.265,7,1,1,1,2,3,5,5
2.27,2,1,1,4,1,2,0,1
2.275,3,2,3,3,3,3,1,4
2.28,8,4,11,3,1,1,4,8
2.285,10,0,7,0,3,6,12,9
2.29,3,5,14,1,3,2,1,0
2.295,4,10,36,24,9,3,0,2
2.3,5,3,0,3,2,1,1,0
2.305,1,2,3,1,0,1,2,2
2.31,0,5,18,8,0,1,3,1
2.315,0,1,12,6,2,3,1,0
2.32,3,4,14,7,4,3,4,1
2.325,1,4,6,2,2,1,3,1
2.33,8,0,2,2,1,2,0,1
2.335,10,0,0,1,1,6,12,4
2.34,4,2,1,0,2,7,18,11
2.345,1,2,1,2,2,1,4,4
2.35,3,0,1,2,0,4,5,1
2.355,1,2,3,1,2,2,0,2
2.36,1,3,9,1,0,1,1,2
2.365,3,5,11,8,5,2,1,4
2.37,0,1,1,1,1,0,3,1
2.375,5,1,6,5,1,1,5,1
2.38,1,1,2,1,2,1,1,1
2.385,7,2,3,4,2,6,8,6
2.39,2,2,4,3,1,1,8,3
2.395,0,2,9,3,0,2,1,5
2.4,17,3,4,3,3,1,1,5
2.405,23,3,2,2,4,3,4,6
2.41,3,1,3,2,1,1,2,2
2.415,7,3,0,1,1,0,3,5
2.42,2,2,3,2,2,1,2,3
2.425,5,0,1,3,1,0,3,7
2.43,1,2,0,0,1,2,2,1
2.435,9,2,0,1,1,2,6,5
2.44,2,3,4,1,2,0,3,4
2.445,7,4,7,3,0,1,3,6
2.45,1,1,2,1,1,1,0,1
2.455,6,0,4,3,1,1,3,2
2.46,0,2,6,2,1,1,1,2
2.465,2,0,1,1,2,2,2,2
2.47,0,2,3,3,2,0,1,2
2.475,0,1,2,0,0,1,1,2
2.48,0,1,0,2,1,2,1,1
2.485,6,0,2,2,3,1,1,1
2.49,8,5,2,3,5,3,3,3
2.495,0,1,2,1,1,1,4,0
2.5,6,5,3,2,1,1,0,2
2.505,11,0,1,2,4,2,6,1
2.51,19,0,4,2,2,4,11,3
2.515,3,2,0,1,1,2,2,0
2.52,7,0,1,2,0,1,5,1
2.525,4,1,0,2,1,2,1,1
2.53,5,0,1,2,1,0,4,0
2.535,1,3,1,1,2,1,1,0
2.54,3,2,1,1,2,2,2,0
2.545,1,1,0,4,2,1,1,0
2.55,3,0,1,1,1,0,0,4
2.555,1,5,1,1,2,2,3,1
2.56,3,3,0,2,0,1,4,0
2.565,3,2,1,0,3,4,7,4
2.57,0,3,2,2,1,0,2,0
2.575,4,0,1,1,2,5,3,1
2.58,0,1,1,2,3,2,2,4
2.585,4,1,2,1,2,5,6,0
2.59,3,0,3,1,4,0,2,0
2.595,4,2,0,1,3,3,6,1
2.6,8,1,2,2,1,3,1,8
2.605,1,5,2,0,3,3,6,3
2.61,6,2,1,0,1,0,2,1
2.615,1,2,1,3,1,4,3,2
2.62,4,3,2,1,1,2,3,2
2.625,1,2,2,0,0,0,2,1
2.63,5,1,0,1,2,2,1,2
2.635,3,1,1,1,2,2,2,1
2.64,4,1,2,1,1,3,2,2
2.645,7,1,1,4,1,1,4,2
2.65,5,2,1,2,2,2,6,1
2.655,2,0,1,0,0,1,1,1
2.66,2,0,0,2,1,0,3,2
2.665,6,1,1,1,0,4,3,4
2.67,5,2,0,1,0,0,0,2
2.675,1,1,0,0,1,3,2,1
2.68,0,1,2,6,4,2,7,2
2.685,14,3,2,1,2,1,0,9
2.69,5,2,2,2,0,1,0,2
2.695,0,5,1,1,1,1,2,2
2.7,5,1,2,1,2,2,0,1
2.705,4,2,1,2,1,1,1,3
2.71,7,2,5,0,2,0,1,2
2.715,3,1,1,3,1,1,3,4
2.72,2,1,3,3,1,4,2,1
2.725,0,1,1,1,0,0,1,1
2.73,3,0,1,1,3,0,1,2
2.735,2,2,0,2,3,1,2,1
2.74,3,1,1,0,1,1,5,4
2.745,1,2,5,5,1,0,2,1
2.75,6,2,1,1,0,0,4,1
2.755,0,1,3,3,2,3,7,2
2.76,3,2,0,0,1,3,1,4
2.765,7,2,0,2,2,1,0,1
2.77,18,5,1,0,3,0,3,1
2.775,3,2,4,3,1,1,5,18
2.78,7,3,0,2,2,1,0,3
2.785,4,0,0,0,2,3,2,1
2.79,3,2,5,5,6,4,3,4
2.795,2,0,2,1,1,0,1,5
2.8,8,3,3,1,2,0,2,2
2.805,2,1,0,1,3,2,1,2
2.81,0,1,1,1,1,2,3,1
2.815,3,4,3,2,2,0,1,3
2.82,4,1,1,1,2,1,0,2
2.825,3,2,0,0,2,0,1,3
2.83,1,0,5,8,2,1,0,1
2.835,1,2,1,3,2,0,3,1
2.84,8,2,1,0,0,2,5,3
2.845,7,1,1,2,1,4,6,0
2.85,2,1,1,3,0,0,2,0
2.855,8,2,2,0,0,0,2,1
2.86,16,0,1,1,3,3,7,0
2.865,18,2,1,1,2,1,5,3
2.87,20,3,0,3,1,2,9,11
2.875,3,1,2,1,2,3,0,2
2.88,1,3,2,3,1,0,2,0
2.885,0,3,1,1,1,0,1,3
2.89,2,1,2,1,0,1,2,2
2.895,2,0,1,1,3,1,0,5
2.9,2,2,0,0,0,1,5,3
2.905,3,1,4,2,1,1,4,2
2.91,10,2,1,3,1,4,6,6
2.915,9,2,1,2,0,2,2,1
2.92,5,4,0,0,0,2,4,2
2.925,7,2,2,3,0,0,3,4
2.93,6,1,0,1,0,0,1,1
2.935,0,0,2,1,4,2,0,1
2.94,3,2,3,3,2,4,4,0
2.945,5,1,0,1,0,0,3,2
2.95,6,2,3,2,0,2,3,1
2.955,2,2,1,2,1,3,4,1
2.96,3,2,2,0,2,0,0,3
2.965,3,1,4,5,3,1,3,2
2.97,2,0,1,1,1,1,1,2
2.975,0,3,3,2,1,0,0,3
2.98,3,0,0,1,0,1,4,1
2.985,2,2,0,1,3,3,7,6
2.99,4,1,1,1,2,0,4,3
2.995,2,2,1,1,0,1,4,3
3,3,1,1,3,0,2,4,2
3.005,1,2,2,3,1,2,1,0
3.01,2,1,0,1,0,0,1,2
3.015,9,1,0,0,0,0,0,6
3.02,19,3,0,2,2,4,2,8
3.025,4,1,2,1,3,2,1,2
3.03,3,1,1,0,1,0,2,2
3.035,1,3,3,1,0,2,5,0
3.04,0,1,2,2,0,3,2,3
3.045,2,0,0,1,3,2,2,3
3.05,1,4,2,2,2,2,1,1
3.055,0,3,0,1,1,0,1,1
3.06,4,3,2,0,0,2,0,1
3.065,3,3,1,1,2,3,5,1
3.07,1,2,1,3,3,3,3,4
3.075,3,1,1,0,2,1,3,2
3.08,2,0,1,0,3,0,5,1
3.085,4,3,4,2,1,4,1,4
3.09,1,2,1,2,2,1,0,1
3.095,6,0,1,0,2,1,2,2
3.1,2,0,2,1,2,1,1,1
3.105,13,2,2,1,1,1,2,2
3.11,5,1,1,3,0,0,2,4
3.115,4,3,3,2,2,4,6,2
3.12,10,2,1,1,0,1,1,1
3.125,3,2,1,0,0,0,0,1
3.13,1,1,2,2,3,2,1,3
3.135,3,1,1,1,0,0,1,1
3.14,3,1,1,1,3,2,2,1
3.145,1,2,1,0,3,1,2,0
3.15,4,1,1,1,2,2,2,6
3.155,7,0,1,2,4,2,1,2
3.16,14,2,2,3,2,2,2,5
3.165,4,1,0,1,0,1,0,2
3.17,2,0,0,0,1,1,0,0
3.175,3,1,1,1,2,1,1,1
3.18,3,0,0,0,2,1,2,0
3.185,2,1,3,1,1,2,2,2
3.19,3,2,2,1,0,1,1,0
3.195,6,1,1,1,1,1,2,4
3.2,13,2,0,1,1,1,0,4
3.205,3,0,0,1,0,2,2,0
3.21,5,1,0,1,1,3,4,2
3.215,6,2,1,1,0,2,1,3
3.22,5,0,1,1,1,0,3,3
3.225,4,2,2,3,0,0,1,0
3.23,1,2,3,2,1,4,0,3
3.235,1,1,1,1,1,2,5,5
3.24,3,2,0,1,2,0,3,3
3.245,4,3,3,0,3,1,2,9
3.25,4,0,3,3,2,2,0,0
3.255,1,0,1,0,2,1,1,3
3.26,3,3,2,0,2,2,2,0
3.265,2,2,3,1,2,0,2,0
3.27,0,1,1,1,0,0,2,3
3.275,2,1,2,3,2,4,2,1
3.28,6,1,1,2,1,1,2,2
3.285,2,0,3,3,4,3,4,0
3.29,14,3,1,1,0,2,1,1
3.295,2,0,0,1,0,2,3,0
3.3,3,1,2,1,2,3,2,1
3.305,1,1,1,1,2,3,2,4
3.31,2,2,2,1,3,2,3,1
3.315,2,2,1,1,1,1,1,4
3.32,5,2,1,0,2,1,0,3
3.325,7,2,1,1,2,0,1,0
3.33,8,2,2,3,1,4,3,0
3.335,2,1,0,2,2,2,1,1
3.34,2,1,1,0,1,1,1,2
3.345,0,1,0,1,1,1,1,5
3.35,1,1,2,3,1,1,0,1
3.355,1,1,1,3,1,0,2,1
3.36,3,1,4,2,4,4,3,8
3.365,1,6,4,1,1,0,1,1
3.37,2,1,0,2,1,1,0,0
3.375,0,4,4,1,2,4,3,4
3.38,2,3,1,1,3,2,0,5
3.385,5,2,1,0,0,1,1,5
3.39,1,0,2,2,3,1,2,1
3.395,0,1,2,1,1,2,1,0
3.4,4,2,3,3,0,1,4,6
3.405,0,1,0,3,2,1,2,1
3.41,1,1,0,1,3,0,2,3
3.415,1,0,1,0,1,0,1,2
3.42,3,2,1,1,1,0,0,1
3.425,2,0,1,0,2,5,3,4
3.43,1,1,1,0,1,0,0,1
3.435,2,3,2,2,1,0,1,1
3.44,3,2,3,2,0,0,1,0
3.445,1,2,1,2,1,2,1,1
3.45,0,2,2,2,2,3,5,5
3.455,3,1,1,0,1,1,3,4
3.46,9,1,0,1,3,4,1,7
3.465,1,0,2,1,3,3,5,2
3.47,4,2,1,0,2,1,1,2
3.475,0,1,0,2,3,2,5,3
3.48,4,2,0,2,2,1,0,1
3.485,4,0,2,0,1,1,3,8
3.49,2,1,2,0,1,0,1,4
3.495,4,2,2,3,4,0,1,1
3.5,2,1,0,3,1,1,1,1
3.505,1,4,1,0,1,2,1,1
3.51,2,2,1,1,0,1,2,0
3.515,1,1,2,1,0,3,0,1
3.52,0,4,2,4,3,1,4,4
3.525,4,2,0,0,1,1,2,3
3.53,4,2,2,3,2,1,0,0
3.535,0,1,2,0,0,1,3,1
3.54,4,1,1,0,0,1,0,2
3.545,0,1,3,3,1,1,3,2
3.55,4,0,1,0,1,1,2,0
3.555,1,2,2,1,3,4,6,0
3.56,1,2,3,1,0,0,1,2
3.565,0,1,0,1,2,2,1,1
3.57,16,4,2,0,3,0,2,5
3.575,11,3,1,1,2,2,2,3
3.58,3,0,1,1,1,1,3,4
3.585,4,1,4,4,3,4,3,3
3.59,1,0,2,2,2,1,2,2
3.595,4,0,1,1,2,3,1,3
3.6,5,2,1,1,1,0,3,0
3.605,1,1,2,1,1,1,0,1
3.61,1,0,1,0,2,3,1,3
3.615,6,2,0,3,2,2,4,5
3.62,0,1,3,0,1,0,3,1
3.625,3,0,1,2,1,0,1,1
3.63,2,2,2,1,2,1,2,3
3.635,5,0,0,0,0,1,1,1
3.64,1,2,1,1,0,0,1,2
3.645,1,3,2,2,3,1,3,2
3.65,1,1,0,1,1,1,2,0
3.655,4,0,1,1,1,3,3,1
3.66,3,2,2,3,2,1,2,2
3.665,2,2,0,1,2,4,1,1
3.67,4,1,2,1,0,0,2,3
3.675,15,2,1,1,1,3,11,14
3.68,3,1,2,1,2,3,3,2
3.685,0,0,2,0,1,0,1,1
3.69,1,0,1,3,0,1,0,1
3.695,3,1,1,3,2,4,6,2
3.7,0,0,1,1,2,2,4,1
3.705,7,2,3,2,2,3,3,2
3.71,1,0,1,1,1,1,2,4
3.715,1,1,2,0,1,1,2,3
3.72,9,1,2,1,1,0,2,8
3.725,5,3,2,2,2,1,1,6
3.73,1,0,1,0,2,0,3,4
3.735,0,3,2,1,0,1,1,2
3.74,0,2,2,2,2,1,1,1
3.745,1,0,0,0,2,4,4,4
3.75,2,3,1,3,0,1,3,3
3.755,2,0,3,3,0,3,4,0
3.76,1,1,1,1,1,0,1,1
3.765,5,1,0,3,3,2,4,4
3.77,7,0,0,2,3,2,3,5
3.775,13,2,1,0,3,1,2,4
3.78,0,3,2,1,0,1,2,0
3.785,3,1,2,3,1,2,0,0
3.79,2,2,5,3,3,3,4,6
3.795,2,2,2,3,1,1,2,1
3.8,2,1,1,2,2,2,3,3
3.805,2,0,1,1,1,2,2,1
3.81,4,3,1,1,3,3,3,5
3.815,3,2,0,2,2,1,1,1
3.82,4,2,1,1,1,0,1,2
3.825,1,1,0,2,0,0,1,3
3.83,6,0,1,0,1,2,2,2
3.835,0,1,2,2,2,2,5,2
3.84,1,1,3,5,1,4,1,3
3.845,5,3,1,1,1,1,0,3
3.85,0,4,1,0,1,0,4,1
3.855,0,1,0,1,0,1,1,0
3.86,2,2,1,0,2,1,1,1
3.865,4,1,1,0,0,0,1,2
3.87,2,2,3,4,2,1,1,1
3.875,2,3,2,2,2,1,2,2
3.88,2,1,0,1,1,2,2,9
3.885,1,0,0,1,1,0,0,1
3.89,1,2,0,0,1,2,3,2
3.895,3,2,1,2,2,2,1,0
3.9,0,0,0,3,0,1,4,4
3.905,1,4,4,0,2,1,2,1
3.91,5,1,1,2,2,3,1,2
3.915,3,0,3,2,1,0,1,2
3.92,0,1,1,2,0,2,1,2
3.925,3,2,0,1,2,0,2,3
3.93,4,2,1,1,2,2,5,4
3.935,5,2,2,3,1,0,0,1
3.94,1,2,1,1,0,1,1,1
3.945,1,0,0,2,0,1,2,4
3.95,1,1,3,1,2,2,0,1
3.955,4,1,0,1,1,1,1,4
3.96,1,0,2,1,0,1,2,0
3.965,1,2,1,1,1,1,0,2
3.97,3,0,2,1,1,0,4,0
3.975,7,2,2,2,2,2,1,2
3.98,1,1,2,3,2,3,1,1
3.985,1,1,0,0,3,0,1,4
3.99,2,2,0,1,1,1,0,2
3.995,7,2,2,2,1,0,2,1
4,1,1,2,0,0,2,2,2
4.005,2,0,1,0,0,2,5,0
4.01,5,1,1,1,2,0,1,3
4.015,13,1,1,1,2,0,0,5
4.02,18,3,4,1,5,2,3,4
4.025,0,3,0,0,2,1,1,1
4.03,7,1,3,0,1,1,1,5
4.035,3,2,3,0,1,0,3,4
4.04,5,0,1,0,2,1,0,4
4.045,3,1,2,4,2,3,2,2
4.05,4,3,0,0,1,1,2,3
4.055,1,1,1,2,1,1,2,1
4.06,1,0,0,0,1,2,4,3
4.065,3,1,2,2,0,0,0,1
4.07,9,2,0,0,1,1,1,3
4.075,4,1,0,1,3,2,3,2
4.08,5,1,1,0,1,0,1,2
4.085,2,0,2,0,0,0,0,0
4.09,2,1,4,3,2,3,1,1
4.095,3,0,0,0,2,1,0,0
4.1,0,4,3,2,3,2,2,1
4.105,3,0,0,2,1,1,5,0
4.11,2,0,3,2,1,3,7,1
4.115,1,2,2,4,2,1,1,5
4.12,23,1,1,0,2,0,1,8
4.125,26,0,1,1,2,2,0,12
4.13,1,1,2,1,4,1,0,0
4.135,3,1,0,1,0,1,2,2
4.14,4,0,2,3,1,2,1,7
4.145,11,1,1,0,1,2,4,6
4.15,1,1,1,0,1,1,2,0
4.155,2,2,2,0,0,2,1,0
4.16,1,0,0,1,1,2,1,5
4.165,5,2,2,3,3,2,2,3
4.17,1,3,1,2,3,1,4,0
4.175,2,0,2,3,4,0,1,1
4.18,0,1,1,1,1,0,0,1
4.185,3,1,0,1,0,1,3,2
4.19,3,2,0,0,1,1,2,0
4.195,0,3,1,0,1,2,4,2
4.2,1,0,1,3,2,5,2,0
4.205,6,0,1,2,2,0,4,5
4.21,3,1,0,0,2,0,1,3
4.215,9,5,3,3,1,2,3,11
4.22,6,0,1,3,1,0,0,3
4.225,6,3,3,0,0,0,0,2
4.23,2,1,0,1,1,0,1,0
4.235,2,2,3,0,2,1,0,2
4.24,2,1,1,1,1,1,5,3
4.245,5,2,3,3,3,3,1,5
4.25,2,0,1,0,1,1,3,4
4.255,4,0,0,1,0,1,0,2
4.26,0,1,1,1,1,0,0,1
4.265,1,1,2,0,2,0,1,1
4.27,1,0,2,0,2,3,2,2
4.275,0,1,2,0,0,1,2,0
4.28,3,1,0,0,2,2,4,2
4.285,2,2,1,1,0,1,2,0
4.29,2,3,1,2,1,2,1,2
4.295,7,1,2,2,1,0,2,4
4.3,8,0,0,0,0,1,1,3
4.305,3,1,0,1,0,1,0,1
4.31,1,2,0,1,2,0,2,0
4.315,5,0,2,2,3,1,0,2
4.32,4,0,1,2,5,2,2,1
4.325,3,2,1,1,1,1,4,1
4.33,4,0,2,1,1,1,1,1
4.335,3,0,0,1,0,1,3,3
4.34,6,1,1,3,1,1,1,2
4.345,3,3,2,1,2,2,1,2
4.35,2,1,1,0,0,1,1,1
4.355,4,1,0,1,2,1,0,2
4.36,1,0,1,1,0,1,3,5
4.365,0,2,2,1,2,0,1,2
4.37,1,1,1,3,0,1,3,1
4.375,3,0,2,1,2,1,0,1
4.38,7,2,4,1,0,0,1,2
4.385,3,1,3,4,3,1,4,1
4.39,3,2,0,1,1,2,2,2
4.395,1,0,2,3,2,1,1,0
4.4,0,0,2,0,0,1,1,0
4.405,4,2,1,0,2,2,3,5
4.41,0,3,1,3,0,2,0,0
4.415,2,3,2,0,1,1,1,2
4.42,2,0,3,1,1,0,2,0
4.425,2,1,2,0,0,1,1,2
4.43,3,5,3,3,2,4,3,1
4.435,6,0,2,2,1,3,4,5
4.44,9,0,0,3,1,1,2,4
4.445,0,2,1,0,2,1,0,2
4.45,7,1,0,1,4,2,3,6
4.455,6,2,1,1,2,0,1,3
4.46,4,1,1,1,0,2,0,1
4.465,6,1,2,2,0,1,2,3
4.47,5,1,0,1,1,2,0,2
4.475,7,2,0,1,2,1,3,3
4.48,9,1,1,4,3,1,1,5
4.485,12,4,1,3,0,0,2,7
4.49,2,0,1,1,0,1,0,3
4.495,2,2,1,0,0,2,2,1
4.5,1,2,0,2,1,1,0,1
4.505,2,1,0,1,1,1,1,2
4.51,0,1,1,0,1,0,2,2
4.515,1,1,1,2,2,0,0,3
4.52,7,1,1,1,2,2,2,5
4.525,1,2,3,1,1,4,3,2
4.53,2,1,1,2,0,2,1,1
4.535,1,1,3,2,1,0,3,3
4.54,9,3,1,0,1,0,1,4
4.545,4,0,2,1,2,2,1,0
4.55,1,3,1,1,2,1,2,0
4.555,0,1,1,2,0,0,0,0
4.56,4,1,2,0,1,1,2,2
4.565,4,4,1,1,1,0,1,3
4.57,2,0,1,1,2,2,1,1
4.575,5,1,2,2,1,3,1,2
4.58,3,3,2,2,0,3,4,5
4.585,2,0,1,1,0,2,3,1
4.59,4,1,2,0,0,1,1,2
4.595,5,3,4,5,1,1,3,3
4.6,1,1,0,1,1,2,4,3
4.605,0,1,1,1,2,2,1,2
4.61,2,1,2,0,0,3,2,1
4.615,4,1,0,2,2,2,1,0
4.62,1,1,0,0,2,1,3,2
4.625,2,4,3,3,4,2,0,1
4.63,1,1,3,3,2,1,2,0
4.635,2,2,1,0,1,0,3,0
4.64,3,0,2,2,2,1,0,3
4.645,0,0,1,1,2,1,0,1
4.65,0,2,1,2,2,2,3,2
4.655,2,4,2,0,1,1,1,0
4.66,3,1,1,2,1,2,1,1
4.665,0,3,3,2,2,1,0,1
4.67,2,1,2,0,1,0,1,1
4.675,2,1,1,0,0,1,1,1
4.68,2,0,0,2,2,3,1,2
4.685,8,1,1,1,3,2,2,4
4.69,8,2,0,2,3,2,4,3
4.695,3,1,2,0,0,0,4,0
4.7,3,4,1,3,3,4,7,0
4.705,4,0,2,2,1,1,0,4
4.71,4,3,1,1,1,1,1,1
4.715,1,1,5,2,2,1,3,6
4.72,5,2,1,2,1,2,0,1
4.725,2,1,2,0,1,3,2,0
4.73,1,1,1,0,1,0,0,3
4.735,2,1,1,1,1,1,1,0
4.74,3,2,0,1,1,1,1,0
4.745,0,0,0,2,1,2,3,1
4.75,1,0,2,0,0,1,0,1
4.755,2,2,0,0,3,1,1,2
4.76,3,1,1,2,1,2,1,4
4.765,3,1,1,1,1,2,1,2
4.77,2,1,3,3,3,2,2,4
4.775,3,1,0,1,0,2,0,1
4.78,0,0,1,2,1,2,0,4
4.785,3,1,2,1,1,0,2,4
4.79,2,1,1,0,2,0,1,3
4.795,1,0,1,0,1,3,3,2
4.8,5,0,1,0,3,1,3,5
4.805,2,0,2,1,2,0,2,2
4.81,2,3,3,1,2,2,1,2
4.815,4,0,0,4,2,2,2,2
4.82,1,2,1,1,1,0,0,1
4.825,5,1,2,2,2,2,1,3
4.83,7,3,0,0,2,1,1,0
4.835,0,0,3,1,3,3,0,1
4.84,1,0,1,1,2,0,0,3
4.845,2,1,2,0,0,1,1,1
4.85,6,0,2,4,1,1,1,3
4.855,1,2,1,2,1,0,1,0
4.86,2,2,2,3,2,2,2,2
4.865,3,2,1,3,2,3,1,3
4.87,6,2,3,0,2,1,0,4
4.875,9,1,2,1,0,1,2,2
4.88,1,0,3,1,1,3,1,1
4.885,0,2,0,1,1,1,2,3
4.89,2,0,1,1,0,1,2,1
4.895,1,1,2,1,3,0,0,1
4.9,8,1,0,0,1,2,1,3
4.905,6,0,0,3,3,2,3,1
4.91,2,0,1,2,4,3,1,3
4.915,3,2,1,0,1,1,2,0
4.92,1,2,3,1,3,1,2,1
4.925,3,2,3,2,1,2,2,2
4.93,1,2,0,1,2,2,2,3
4.935,2,0,0,0,0,0,2,0
4.94,1,2,1,2,2,1,1,0
4.945,0,4,1,2,2,0,0,3
4.95,3,2,2,4,4,2,1,0
4.955,1,1,1,1,1,1,1,1
4.96,2,1,1,2,1,1,0,2
4.965,1,2,1,0,0,1,2,3
4.97,2,1,2,1,4,2,1,0
4.975,1,2,1,2,2,3,0,2
4.98,6,2,1,0,1,1,2,4
4.985,8,0,1,2,0,1,1,5
4.99,3,3,1,1,1,0,2,5
4.995,1,1,2,0,1,3,3,1
5,3,3,0,1,0,2,3,1
5.005,7,0,1,1,1,1,1,3
5.01,1,1,0,2,3,3,3,2
5.015,0,1,1,0,1,1,0,0
5.02,6,0,1,1,0,2,3,4
5.025,2,1,3,3,1,3,1,1
5.03,6,0,2,1,2,0,3,0
5.035,2,2,2,2,0,1,1,2
5.04,2,1,1,0,3,4,6,3
5.045,3,1,0,2,1,1,6,3
5.05,1,1,0,2,3,3,1,0
5.055,4,3,1,1,1,0,0,4
5.06,0,1,0,0,0,0,1,1
5.065,0,2,2,1,1,1,1,0
5.07,1,0,1,0,1,1,2,1
5.075,3,0,0,1,3,1,2,1
5.08,0,2,0,1,2,2,3,0
5.085,3,3,0,0,1,1,2,2
5.09,3,3,1,1,0,1,2,1
5.095,2,0,1,1,2,2,5,2
5.1,5,1,2,0,1,3,1,4
5.105,8,1,1,1,0,3,0,5
5.11,1,0,2,1,2,1,2,0
5.115,4,2,2,2,1,2,4,3
5.12,1,4,4,3,3,2,1,2
5.125,3,3,3,1,1,0,2,2
5.13,0,2,1,0,2,2,0,1
5.135,1,2,1,0,2,0,2,2
5.14,3,1,1,1,2,3,3,2
5.145,2,0,2,1,1,4,1,5
5.15,0,0,1,0,0,2,3,2
5.155,1,2,3,0,1,1,0,2
5.16,0,1,2,3,0,1,1,0
5.165,4,2,0,0,2,2,1,1
5.17,5,0,0,1,2,1,2,8
5.175,1,2,1,2,1,3,3,2
5.18,0,3,2,3,0,0,0,0
5.185,4,1,2,1,3,1,2,1
5.19,1,0,2,2,1,0,0,1
5.195,2,1,2,1,1,2,3,0
5.2,1,1,1,3,1,0,1,2
5.205,3,0,1,1,1,1,3,1
5.21,0,1,1,1,2,3,0,1
5.215,2,3,2,0,1,1,0,3
5.22,1,0,0,1,2,1,1,0
5.225,1,1,1,1,0,1,0,1
5.23,1,1,0,1,2,0,1,0
5.235,2,3,1,2,0,1,0,0
5.24,4,1,1,1,1,2,1,2
5.245,5,3,1,3,1,1,0,2
5.25,2,4,5,3,3,1,1,0
5.255,1,3,1,1,1,1,1,1
5.26,5,1,1,2,2,3,4,2
5.265,4,4,2,4,3,2,1,0
5.27,1,4,0,1,1,1,3,4
5.275,5,3,0,1,1,1,2,2
5.28,2,1,1,0,1,1,2,1
5.285,5,1,2,2,1,1,2,3
5.29,1,2,0,2,0,2,2,1
5.295,2,1,1,1,3,2,1,1
5.3,1,2,2,0,1,0,1,1
5.305,0,2,2,1,1,2,1,0
5.31,0,1,2,0,0,1,0,0
5.315,0,2,0,3,0,1,1,0
5.32,1,4,1,1,2,1,1,3
5.325,5,0,2,1,2,1,0,8
5.33,0,1,2,0,1,3,1,0
5.335,0,0,2,2,2,2,1,1
5.34,0,0,0,1,2,1,1,0
5.345,3,2,0,0,2,1,1,2
5.35,0,1,0,0,1,1,1,3
5.355,1,1,1,2,1,2,2,0
5.36,4,1,1,2,1,0,0,3
5.365,3,1,1,1,1,1,3,0
5.37,1,1,1,1,0,0,1,1
5.375,3,3,0,0,1,1,1,2
5.38,2,2,1,2,2,2,1,1
5.385,3,1,1,1,1,2,2,1
5.39,1,1,3,1,2,1,2,1
5.395,0,1,2,1,0,1,0,1
5.4,2,2,3,2,1,1,4,3
5.405,4,1,0,1,0,0,0,2
5.41,10,3,3,1,3,2,2,1
5.415,2,1,2,2,3,3,1,1
5.42,1,1,1,0,1,0,1,0
5.425,4,1,1,0,2,1,0,1
5.43,5,2,2,2,1,0,4,4
5.435,1,0,0,1,0,0,0,1
5.44,3,1,2,1,3,2,2,1
5.445,2,0,1,2,1,0,1,0
5.45,3,0,0,1,1,2,1,1
5.455,1,0,2,1,1,0,2,0
5.46,2,1,0,3,1,2,2,0
5.465,2,5,3,0,3,2,1,3
5.47,2,1,0,0,0,0,1,2
5.475,0,1,1,2,2,1,2,2
5.48,1,0,0,1,1,1,1,0
5.485,0,3,0,1,0,0,0,0
5.49,6,1,0,1,0,1,0,2
5.495,5,2,2,2,2,3,0,1
5.5,1,0,1,1,1,0,0,1
5.505,5,2,2,4,1,1,1,1
5.51,3,2,2,3,2,2,4,0
5.515,2,0,1,3,0,3,0,2
5.52,1,2,1,2,0,1,0,2
5.525,1,1,1,2,1,1,0,1
5.53,4,1,1,1,1,2,1,2
5.535,2,3,2,0,0,2,3,1
5.54,2,2,1,2,2,5,3,1
5.545,2,1,1,1,1,2,4,1
5.55,1,0,1,1,0,2,1,1
5.555,0,1,2,1,1,1,2,3
5.56,2,1,2,2,1,2,0,1
5.565,2,3,1,0,1,1,1,1
5.57,2,2,1,0,3,1,2,1
5.575,7,2,3,2,2,1,2,4
5.58,3,1,2,2,4,1,1,1
5.585,1,1,0,2,2,0,1,2
5.59,1,1,1,1,0,1,2,0
5.595,1,3,1,1,2,1,1,1
5.6,4,2,2,1,2,1,0,2
5.605,2,0,0,1,1,1,1,2
5.61,6,2,1,1,0,1,0,2
5.615,5,1,1,4,3,3,1,1
5.62,0,2,2,0,2,1,1,0
5.625,2,2,0,0,1,3,4,1
5.63,1,1,1,2,1,1,1,3
5.635,3,2,2,2,1,1,0,1
5.64,3,1,2,0,1,1,1,1
5.645,2,0,2,0,0,2,0,0
5.65,1,2,1,2,0,1,2,1
5.655,1,1,1,1,0,3,2,1
5.66,1,1,0,2,2,3,1,2
5.665,3,2,0,2,1,0,2,1
5.67,1,4,1,1,2,3,1,3
5.675,1,2,1,0,2,0,0,1
5.68,6,1,3,0,0,1,1,5
5.685,4,0,0,1,2,2,1,3
5.69,9,1,0,0,2,1,2,4
5.695,0,1,1,1,1,2,3,2
5.7,1,0,3,2,0,4,4,1
5.705,3,3,1,1,3,2,2,1
5.71,7,2,3,0,4,3,1,2
5.715,1,1,1,0,0,0,2,1
5.72,3,1,1,2,2,1,2,1
5.725,2,2,3,0,1,2,3,4
5.73,1,0,0,2,0,1,0,0
5.735,3,0,1,0,1,0,0,1
5.74,2,3,1,1,2,0,0,2
5.745,2,1,1,0,1,0,3,2
5.75,3,0,2,1,1,2,2,1
5.755,1,1,2,2,2,3,1,1
5.76,0,2,1,0,1,1,0,1
5.765,3,1,2,2,2,2,1,1
5.77,1,2,0,3,2,1,1,1
5.775,0,1,2,3,1,2,2,1
5.78,1,1,4,2,0,1,3,0
5.785,5,2,1,0,0,1,1,3
5.79,2,2,2,3,1,1,2,1
5.795,3,1,0,2,1,1,3,3
5.8,0,4,2,2,2,3,2,7
5.805,7,3,1,2,2,3,1,2
5.81,3,0,0,1,0,1,0,0
5.815,4,1,2,1,1,1,1,2
5.82,5,1,2,0,2,0,1,3
5.825,1,2,1,0,1,1,3,1
5.83,2,1,2,1,1,1,1,3
5.835,0,2,1,3,1,2,2,2
5.84,1,0,1,1,0,2,1,0
5.845,0,0,1,2,1,2,1,3
5.85,1,0,0,2,1,1,3,1
5.855,2,2,0,2,1,0,1,4
5.86,2,1,1,2,2,1,1,2
5.865,1,0,1,2,3,2,1,1
5.87,6,2,2,1,0,1,0,4
5.875,6,0,1,2,3,3,0,3
5.88,1,1,1,0,1,2,0,2
5.885,0,2,1,1,1,2,0,1
5.89,1,2,1,2,1,0,3,2
5.895,4,2,1,0,2,0,2,3
5.9,1,2,1,5,1,2,3,0
5.905,1,1,1,2,0,1,1,0
5.91,2,1,1,1,1,1,1,3
5.915,5,3,1,0,3,0,1,2
5.92,4,4,1,2,0,2,1,0
5.925,1,3,1,2,1,2,2,2
5.93,3,0,0,2,4,4,2,6
5.935,2,1,2,2,1,0,0,2
5.94,5,1,2,2,2,2,0,3
5.945,1,0,1,1,0,1,1,0
5.95,2,1,1,0,2,1,0,2
5.955,1,1,1,1,0,1,1,1
5.96,3,1,2,2,3,2,1,0
5.965,0,1,1,0,1,2,1,0
5.97,0,0,0,2,5,1,2,1
5.975,6,4,1,0,1,2,4,3
5.98,0,2,1,1,0,1,1,0
5.985,4,3,1,0,1,1,1,0
5.99,1,1,2,1,3,2,1,1
5.995,3,0,0,3,0,2,1,2
6,5,0,1,2,3,2,2,2
6.005,0,1,1,1,1,1,0,0
6.01,1,3,1,0,0,1,0,1
6.015,2,2,3,1,0,1,0,1
6.02,3,0,1,0,1,2,1,2
6.025,0,1,3,0,3,0,2,1
6.03,1,3,2,1,0,3,1,0
6.035,3,2,1,0,2,0,0,0
6.04,0,0,1,0,1,3,1,2
6.045,5,2,4,1,2,0,1,4
6.05,6,2,3,1,1,1,0,3
6.055,2,5,2,1,0,2,1,2
6.06,1,1,2,1,1,2,3,1
6.065,1,0,0,2,2,1,1,2
6.07,4,1,1,0,1,1,1,0
6.075,1,1,2,0,1,1,3,1
6.08,1,1,2,1,1,1,1,2
6.085,0,3,1,1,2,2,4,2
6.09,3,1,3,3,2,3,2,1
6.095,3,1,1,1,1,1,1,0
6.1,0,1,0,0,2,0,1,1
6.105,1,2,0,0,1,0,0,0
6.11,2,1,1,0,3,2,0,4
6.115,1,1,1,0,3,2,2,0
6.12,0,0,0,4,2,0,0,2
6.125,1,1,2,0,0,1,0,0
6.13,2,2,0,1,1,1,2,7
6.135,1,1,2,0,1,4,2,2
6.14,5,0,2,1,1,0,0,4
6.145,3,0,1,1,1,2,2,2
6.15,1,1,0,0,1,0,1,2
6.155,0,1,3,1,2,1,1,1
6.16,3,0,2,1,0,0,1,2
6.165,1,1,1,2,1,0,2,3
6.17,9,0,0,0,2,1,0,7
6.175,14,3,2,2,2,1,2,5
6.18,2,1,2,2,2,2,4,1
6.185,2,1,0,0,2,2,1,2
6.19,1,3,0,1,1,2,1,0
6.195,6,0,0,3,0,2,1,3
6.2,1,3,1,2,2,2,1,1
6.205,5,0,1,2,2,3,3,4
6.21,1,2,1,3,2,2,2,2
6.215,3,1,1,1,0,1,2,2
6.22,2,1,1,0,0,2,0,2
6.225,3,0,0,2,2,0,2,2
6.23,1,2,0,3,2,2,4,0
6.235,1,1,0,4,0,1,3,2
6.24,3,1,3,0,2,2,1,2
6.245,0,2,0,0,2,2,0,0
6.25,1,1,1,1,1,0,1,1
6.255,9,3,0,1,2,2,4,7
6.26,7,1,1,3,3,2,1,6
6.265,2,3,3,2,3,4,3,2
6.27,2,1,4,1,3,1,0,1
6.275,0,2,1,2,2,1,2,4
6.28,6,1,1,0,1,3,2,4
6.285,1,1,2,1,0,1,1,1
6.29,3,0,0,0,2,2,0,6
6.295,10,2,2,1,0,1,2,8
6.3,2,0,2,1,2,2,1,4
6.305,1,1,3,5,3,2,3,0
6.31,2,4,3,2,2,1,1,2
6.315,2,2,1,3,0,0,2,1
6.32,4,0,0,1,0,3,1,1
6.325,3,3,0,1,1,2,0,2
6.33,1,0,1,2,1,1,2,2
6.335,0,1,2,1,1,0,1,2
6.34,3,3,2,1,1,1,3,0
6.345,0,2,1,2,0,1,0,1
6.35,9,3,2,0,3,1,3,6
6.355,8,2,2,0,1,1,2,3
6.36,3,0,0,2,1,0,1,3
6.365,0,2,3,2,2,1,1,2
6.37,4,2,2,1,1,3,1,3
6.375,6,0,1,1,1,1,3,3
6.38,1,1,2,2,0,1,0,1
6.385,1,2,1,1,2,1,1,1
6.39,1,1,1,0,1,0,0,2
6.395,2,2,1,0,0,1,0,1
6.4,3,1,2,0,0,0,0,0
6.405,6,0,1,0,0,2,0,4
6.41,8,0,2,3,2,1,1,3
6.415,2,2,1,1,2,2,2,3
6.42,5,2,1,2,2,0,0,3
6.425,4,1,0,0,1,2,3,4
6.43,1,3,0,2,1,0,0,1
6.435,6,1,0,1,3,1,3,7
6.44,9,0,1,0,2,1,1,2
6.445,1,1,0,3,1,1,1,0
6.45,0,0,0,1,1,1,3,1
6.455,4,0,2,1,1,3,2,1
6.46,7,2,0,2,2,1,1,5
6.465,1,1,3,1,4,2,3,0
6.47,0,1,1,2,2,2,2,0
6.475,2,0,1,1,0,0,1,1
6.48,3,3,1,1,3,0,2,0
6.485,1,2,2,3,1,3,3,2
6.49,2,0,0,1,2,2,0,3
6.495,0,2,4,3,3,0,1,3
6.5,6,1,2,2,0,0,1,5
6.505,1,2,1,0,0,0,1,1
6.51,4,3,2,1,0,1,2,1
6.515,5,1,1,1,2,1,3,2
6.52,8,0,2,2,2,2,1,3
6.525,12,0,2,0,1,1,1,4
6.53,3,1,2,1,0,1,3,2
6.535,2,3,1,3,5,1,0,4
6.54,1,0,3,3,3,2,0,2
6.545,6,2,1,1,0,0,1,3
6.55,3,3,3,1,2,2,1,2
6.555,2,1,1,0,2,0,0,1
6.56,1,1,0,0,2,5,1,2
6.565,5,2,0,1,1,1,2,3
6.57,5,1,2,2,2,3,1,2
6.575,4,1,1,1,2,1,2,3
6.58,0,3,1,2,0,1,2,1
6.585,3,0,2,0,2,1,0,1
6.59,4,1,2,1,1,0,2,3
6.595,0,1,0,1,1,0,0,1
6.6,1,2,2,1,0,1,3,2
6.605,0,1,1,2,1,3,2,1
6.61,9,2,1,1,1,1,2,7
6.615,3,1,4,3,2,4,3,1
6.62,1,2,2,2,2,1,1,1
6.625,4,0,1,0,1,3,2,2
6.63,1,0,0,1,2,2,1,0
6.635,2,1,1,1,1,0,3,1
6.64,1,2,1,2,4,4,2,1
6.645,1,2,2,1,2,3,2,5
6.65,0,2,1,1,0,1,2,1
6.655,4,2,0,1,2,1,0,3
6.66,0,1,2,1,0,0,0,1
6.665,2,0,0,3,1,1,1,1
6.67,3,2,1,0,0,3,0,2
6.675,4,1,2,3,0,3,1,1
6.68,1,1,2,1,4,1,5,2
6.685,1,0,3,2,1,2,2,0
6.69,0,2,2,2,3,2,0,0
6.695,3,1,1,0,1,0,2,0
6.7,1,2,2,1,0,1,1,0
6.705,2,3,2,1,1,1,1,1
6.71,0,0,3,1,0,2,1,0
6.715,0,2,0,2,1,2,2,3
6.72,5,1,0,2,2,1,2,4
6.725,2,0,1,1,0,1,1,1
6.73,2,3,1,2,1,1,1,2
6.735,2,0,0,2,3,1,1,3
6.74,1,1,2,0,1,1,0,2
6.745,11,1,1,0,0,1,1,4
6.75,16,1,1,2,1,1,0,8
6.755,0,0,0,1,1,2,3,2
6.76,1,1,0,1,1,1,1,0
6.765,3,2,3,1,2,1,3,3
6.77,5,1,1,0,3,0,1,4
6.775,1,0,0,1,1,2,0,0
6.78,0,2,0,1,0,1,1,0
6.785,1,1,1,1,0,2,1,1
6.79,1,0,1,0,1,2,1,1
6.795,2,2,1,0,2,1,0,2
6.8,4,2,2,2,1,2,0,0
6.805,0,2,1,1,4,0,0,0
6.81,2,1,1,1,1,2,1,1
6.815,4,3,5,1,1,0,1,1
6.82,3,1,4,1,0,0,1,3
6.825,9,1,1,1,0,2,1,9
6.83,1,0,2,0,1,1,1,2
6.835,4,1,2,2,1,1,1,0
6.84,4,4,2,2,0,0,1,1
6.845,3,1,0,1,1,3,4,1
6.85,10,1,1,2,2,1,0,6
6.855,4,3,2,0,1,1,1,0
6.86,2,1,0,0,1,1,1,1
6.865,2,1,0,0,1,3,2,1
6.87,1,1,1,2,1,2,2,3
6.875,4,2,1,1,3,0,1,0
6.88,1,2,1,1,2,2,4,1
6.885,2,2,1,1,1,0,0,3
6.89,1,4,1,1,1,0,2,1
6.895,3,1,1,2,1,1,2,1
6.9,3,0,2,3,3,2,2,2
6.905,1,1,2,1,0,2,1,1
6.91,1,2,0,1,3,3,1,0
6.915,2,2,0,1,1,0,2,1
6.92,1,0,2,1,1,1,2,3
6.925,3,0,2,1,2,1,1,1
6.93,5,1,2,0,1,2,1,3
6.935,0,0,1,1,1,1,1,1
6.94,9,0,1,1,1,2,2,6
6.945,12,0,0,0,2,2,0,6
6.95,6,3,3,2,3,1,0,7
6.955,4,0,0,1,1,2,1,1
6.96,3,2,3,2,2,3,0,3
6.965,1,3,0,2,0,1,0,3
6.97,1,2,0,1,2,2,0,1
6.975,1,0,1,1,0,1,1,5
6.98,1,1,0,0,0,1,1,1
6.985,4,1,3,1,1,0,1,1
6.99,1,0,1,1,0,1,2,1
6.995,1,0,2,3,3,1,3,3
7,3,0,3,1,1,1,0,1
7.005,2,0,3,1,1,3,2,3
7.01,2,1,2,0,0,1,0,0
7.015,4,2,1,1,2,2,1,3
7.02,2,1,0,2,1,1,2,1
7.025,7,3,0,0,1,2,1,2
7.03,6,1,1,2,3,1,1,1
7.035,0,2,1,1,1,2,1,0
7.04,2,0,0,2,1,2,4,3
7.045,2,1,0,1,1,1,1,2
7.05,4,2,1,1,0,0,0,3
7.055,2,2,3,1,2,1,1,3
7.06,3,3,3,0,1,1,1,3
7.065,3,2,2,2,2,1,3,5
7.07,5,2,1,1,3,1,0,1
7.075,1,1,0,3,1,0,3,0
7.08,0,3,0,1,1,0,1,2
7.085,1,1,1,0,1,1,3,0
7.09,3,1,1,2,1,1,1,5
7.095,2,1,2,2,2,1,2,1
7.1,0,3,3,1,1,1,0,1
7.105,2,0,0,2,1,2,1,1
7.11,1,1,2,7,5,5,5,1
7.115,1,1,0,1,2,2,2,4
7.12,1,0,0,2,1,1,0,1
7.125,4,2,2,5,1,2,0,1
7.13,1,2,1,4,0,1,0,1
7.135,8,2,4,6,4,1,0,4
7.14,2,0,0,1,3,1,4,3
7.145,5,0,2,3,3,4,1,3
7.15,1,0,1,1,1,0,1,0
7.155,1,2,1,1,2,0,1,2
7.16,2,0,1,1,1,0,1,1
7.165,2,1,2,1,0,1,0,2
7.17,1,2,0,3,2,1,2,0
7.175,0,0,0,1,1,1,1,0
7.18,3,3,4,3,2,1,2,4
7.185,0,1,0,3,2,1,1,1
7.19,8,3,2,1,1,1,1,2
7.195,1,1,3,0,1,2,3,1
7.2,0,0,2,4,1,1,1,2
7.205,0,2,5,11,5,0,2,1
7.21,0,1,1,2,0,1,1,1
7.215,2,2,1,1,0,3,3,1
7.22,0,2,1,1,2,0,2,0
7.225,1,2,2,1,1,3,4,4
7.23,1,0,1,2,1,0,3,4
7.235,4,0,1,1,1,1,2,6
7.24,0,0,1,2,1,2,3,3
7.245,7,0,1,1,1,1,0,3
7.25,2,1,1,1,4,2,3,2
7.255,7,1,1,2,3,1,2,6
7.26,4,1,2,3,1,1,2,4
7.265,0,1,1,1,2,0,1,2
7.27,3,3,0,2,1,2,3,2
7.275,1,0,0,3,2,2,1,1
7.28,2,1,0,1,1,0,2,1
7.285,3,2,2,3,2,2,2,2
7.29,5,0,1,3,0,2,1,2
7.295,8,0,0,1,0,0,1,0
7.3,2,1,0,1,0,3,1,1
7.305,2,1,1,1,2,1,2,1
7.31,2,1,3,2,1,2,2,2
7.315,2,2,1,0,1,1,2,2
7.32,0,2,3,3,2,2,1,1
7.325,1,0,0,2,0,0,0,2
7.33,8,2,1,0,1,1,2,5
7.335,7,1,1,2,2,0,3,5
7.34,5,1,1,2,3,0,1,2
7.345,0,1,1,1,1,2,0,2
7.35,0,0,0,2,1,2,2,1
7.355,2,1,2,1,1,0,0,3
7.36,2,1,2,1,3,0,1,3
7.365,2,0,0,1,1,2,1,1
7.37,2,1,2,1,1,1,2,0
7.375,1,2,1,0,0,2,0,2
7.38,1,1,1,0,1,0,0,2
7.385,3,0,2,1,2,3,3,4
7.39,3,1,2,3,3,3,4,0
7.395,2,1,3,2,1,1,2,2
7.4,2,1,1,1,0,1,0,4
7.405,8,3,0,0,1,2,1,8
7.41,7,1,0,2,3,1,1,2
7.415,2,0,2,0,3,2,1,0
7.42,1,2,2,2,1,3,0,3
7.425,0,0,0,0,0,3,3,2
7.43,0,1,1,1,1,0,1,2
7.435,4,2,3,1,1,1,2,1
7.44,1,2,2,2,3,1,2,0
7.445,4,3,1,0,1,1,1,2
7.45,4,1,3,1,0,3,6,2
7.455,1,1,2,2,2,0,2,1
7.46,2,1,1,3,3,2,2,3
7.465,1,3,1,3,2,1,4,1
7.47,5,1,1,3,3,1,0,0
7.475,1,3,6,6,5,3,2,1
7.48,3,3,1,2,0,1,1,3
7.485,0,2,1,1,1,1,1,1
7.49,2,1,2,0,1,1,3,2
7.495,1,2,1,2,1,2,3,1
7.5,1,1,0,3,1,1,1,1
7.505,4,1,2,3,1,1,2,1
7.51,3,4,8,19,6,1,2,1
7.515,3,1,0,1,0,0,0,2
7.52,0,2,0,2,1,1,0,2
7.525,0,1,3,2,1,1,2,1
7.53,2,2,0,1,1,0,1,3
7.535,1,0,1,0,2,0,1,2
7.54,1,3,4,6,2,0,4,1
7.545,1,1,0,2,3,1,1,1
7.55,9,0,1,2,1,1,1,4
7.555,6,1,1,1,2,3,1,6
7.56,1,1,1,1,0,0,2,4
7.565,0,2,4,3,1,1,2,0
7.57,3,3,3,1,2,0,0,3
7.575,4,0,1,2,0,0,1,2
7.58,1,2,3,3,2,2,0,0
7.585,1,3,1,4,2,1,1,1
7.59,3,0,0,2,0,1,1,2
7.595,3,0,1,1,1,1,1,3
7.6,1,2,2,2,0,1,1,0
7.605,1,0,1,1,1,2,1,2
7.61,2,0,2,4,1,1,0,1
7.615,2,1,0,4,1,1,0,1
7.62,4,1,0,1,1,4,1,0
7.625,3,1,1,0,0,0,0,1
7.63,0,3,1,0,1,0,0,1
7.635,3,1,1,2,2,2,3,3
7.64,2,0,0,2,1,1,3,1
7.645,1,1,2,4,5,3,1,1
7.65,2,1,1,2,0,1,1,2
7.655,2,2,3,5,0,2,1,2
7.66,0,0,1,3,0,1,3,1
7.665,1,1,2,2,1,0,1,0
7.67,0,0,1,1,1,2,3,2
7.675,3,1,0,0,0,1,0,1
7.68,2,2,1,1,0,0,0,0
7.685,2,0,0,0,0,2,3,1
7.69,3,1,1,1,3,2,1,0
7.695,0,3,3,2,2,0,2,1
7.7,0,1,1,2,2,1,1,2
7.705,0,3,3,2,0,1,1,1
7.71,1,1,2,1,1,0,4,3
7.715,2,1,2,1,3,3,3,0
7.72,5,0,2,2,2,0,1,5
7.725,2,0,1,2,0,2,0,1
7.73,0,2,1,1,1,0,1,0
7.735,2,1,2,0,2,1,1,0
7.74,0,3,4,4,1,4,2,0
7.745,2,1,0,1,0,2,3,0
7.75,1,2,0,1,1,1,0,1
7.755,1,1,2,2,0,0,0,4
7.76,0,0,1,0,4,3,0,0
7.765,1,2,2,3,3,3,4,0
7.77,1,1,1,0,3,4,3,3
7.775,1,1,0,2,0,1,2,1
7.78,3,2,3,3,4,0,1,0
7.785,2,0,0,2,3,5,3,4
7.79,0,1,0,1,3,3,4,2
7.795,1,3,2,2,1,2,1,0
7.8,2,0,1,1,4,3,2,1
7.805,3,1,1,1,3,3,11,5
7.81,0,2,1,2,1,4,4,3
7.815,5,3,3,2,3,1,1,3
7.82,5,1,1,1,0,0,6,2
7.825,0,2,0,1,0,3,3,3
7.83,1,1,1,1,3,2,2,2
7.835,0,1,1,8,0,0,1,0
7.84,4,2,4,12,4,1,2,2
7.845,0,2,2,6,3,0,0,0
7.85,3,3,6,18,6,3,1,4
7.855,1,1,1,2,1,1,0,0
7.86,3,1,2,5,0,2,2,1
7.865,0,2,2,1,1,0,1,2
7.87,7,2,7,3,1,1,2,3
7.875,4,2,1,2,1,1,1,2
7.88,1,5,1,1,1,0,2,0
7.885,0,0,4,5,3,1,2,2
7.89,6,2,0,3,0,1,0,1
7.895,7,3,3,6,2,2,4,2
7.9,3,1,1,3,1,3,1,2
7.905,1,1,0,6,3,1,2,1
7.91,4,2,1,0,2,0,0,5
7.915,8,0,0,1,1,1,0,8
7.92,2,2,5,2,0,1,3,2
7.925,2,3,3,4,2,1,0,1
7.93,0,0,0,2,0,2,2,1
7.935,1,2,7,11,5,1,0,1
7.94,2,0,0,3,1,1,2,3
7.945,2,0,2,1,2,0,1,3
7.95,1,1,0,1,3,1,2,1
7.955,1,1,2,3,1,0,2,1
7.96,2,1,2,1,0,0,1,1
7.965,1,1,2,0,2,1,1,2
7.97,5,4,2,3,0,0,3,4
7.975,3,0,1,0,3,4,6,2
7.98,3,1,0,1,2,3,1,3
7.985,0,0,2,0,1,1,1,1
7.99,0,1,1,4,3,1,0,0
7.995,8,1,1,0,1,2,0,5
8,1,4,2,4,2,2,0,0
8.005,0,1,1,0,3,4,4,2
8.01,3,1,2,0,1,1,3,2
8.015,11,5,1,2,1,1,0,1
8.02,2,0,1,0,3,2,2,3
8.025,3,1,1,0,0,1,0,1
8.03,0,0,2,2,1,1,5,2
8.035,4,1,1,1,0,2,1,3
8.04,1,0,1,0,1,1,3,3
8.045,3,1,2,3,2,1,2,1
8.05,1,2,1,0,0,2,2,2
8.055,1,1,1,1,3,2,1,2
8.06,5,0,0,3,0,1,1,1
8.065,1,2,1,1,1,0,1,1
8.07,2,1,0,1,1,2,2,1
8.075,0,1,1,1,0,1,0,2
8.08,2,2,1,0,1,1,0,0
8.085,8,1,2,2,2,2,3,5
8.09,6,0,1,2,4,0,2,3
8.095,5,3,2,1,1,2,5,8
8.1,4,2,0,2,2,3,2,1
8.105,4,2,2,1,0,1,2,5
8.11,3,0,0,1,2,0,2,2
8.115,5,1,0,2,2,1,2,2
8.12,3,1,1,1,2,1,1,4
8.125,3,2,1,1,1,1,0,1
8.13,0,2,2,2,3,1,1,3
8.135,2,0,2,1,0,2,1,1
8.14,0,2,2,0,1,0,1,0
8.145,1,2,2,0,2,2,1,0
8.15,1,0,0,2,0,2,0,2
8.155,1,2,0,1,1,1,2,0
8.16,4,1,0,1,0,1,1,4
8.165,6,0,1,2,1,1,4,3
8.17,1,0,1,1,1,0,2,2
8.175,1,2,1,1,1,1,1,1
8.18,1,2,1,4,4,3,1,1
8.185,3,2,1,1,0,0,1,2
8.19,3,1,2,0,0,0,3,3
8.195,1,1,1,1,3,2,4,0
8.2,5,1,2,2,2,1,1,3
8.205,0,1,1,2,1,2,3,0
8.21,1,0,0,0,0,1,1,1
8.215,0,0,2,3,1,2,4,1
8.22,1,2,2,1,2,3,1,1
8.225,3,2,2,2,1,1,3,3
8.23,3,1,0,0,2,2,1,1
8.235,2,0,0,1,3,3,6,3
8.24,3,2,0,2,1,0,0,0
8.245,1,1,0,0,1,0,3,0
8.25,1,3,2,1,1,3,2,1
8.255,2,1,1,1,2,2,2,1
8.26,0,1,0,2,1,2,0,0
8.265,0,1,1,2,2,0,1,1
8.27,2,0,3,3,0,1,1,1
8.275,2,2,1,2,1,1,0,1
8.28,0,1,0,0,1,3,1,1
8.285,0,1,1,1,1,0,1,3
8.29,1,0,1,1,1,1,2,2
8.295,1,0,0,1,1,1,3,2
8.3,4,2,0,1,0,1,1,2
8.305,3,1,3,2,3,4,3,3
8.31,5,3,1,0,2,0,0,1
8.315,5,1,1,1,1,2,1,2
8.32,2,2,3,3,1,0,2,2
8.325,3,2,2,2,4,2,3,5
8.33,2,4,1,2,0,1,2,1
8.335,3,1,1,1,1,0,1,2
8.34,0,2,1,0,1,3,2,3
8.345,1,2,1,3,1,1,2,3
8.35,0,0,1,1,2,0,2,3
8.355,5,3,4,3,3,0,4,3
8.36,1,3,2,1,1,1,1,3
8.365,1,0,2,5,1,1,2,2
8.37,0,3,1,2,1,1,1,1
8.375,0,2,0,1,0,2,4,2
8.38,1,0,1,1,3,0,0,1
8.385,1,2,1,1,2,2,2,1
8.39,1,1,2,2,0,0,2,1
8.395,9,2,1,2,2,0,0,6
8.4,10,1,2,1,0,3,1,4
8.405,5,1,1,5,1,0,1,3
8.41,2,1,2,4,1,1,1,0
8.415,1,0,0,0,2,2,1,1
8.42,2,1,0,1,1,2,4,1
8.425,5,0,0,0,2,1,1,2
8.43,1,2,2,0,2,3,1,0
8.435,0,1,4,3,1,2,2,0
8.44,5,1,3,1,2,2,0,1
8.445,3,0,1,1,1,1,1,4
8.45,7,1,3,4,2,3,5,15
8.455,1,0,1,1,1,1,1,0
8.46,1,0,1,2,1,1,0,0
8.465,3,2,2,3,1,3,0,2
8.47,1,1,2,1,1,1,0,2
8.475,1,1,1,1,2,0,3,2
8.48,1,1,1,2,0,2,1,3
8.485,2,2,3,0,1,0,3,0
8.49,3,2,0,0,0,1,2,2
8.495,3,4,3,2,1,1,1,1
8.5,2,1,1,0,2,2,5,1
8.505,4,2,1,0,2,2,1,2
8.51,3,1,3,3,4,4,3,0
8.515,2,0,0,2,1,1,1,0
8.52,4,0,0,1,0,1,0,0
8.525,2,2,2,1,1,1,1,2
8.53,3,1,2,3,3,2,1,1
8.535,1,1,1,2,1,2,1,2
8.54,4,3,2,1,2,2,6,4
8.545,1,1,1,2,1,1,2,3
8.55,1,0,2,1,2,3,2,1
8.555,1,0,2,1,3,2,1,2
8.56,1,2,2,2,0,1,1,0
8.565,1,3,0,1,1,2,3,2
8.57,1,3,1,1,2,1,1,0
8.575,3,2,2,1,0,0,3,1
8.58,1,2,3,2,3,3,3,2
8.585,0,2,2,4,1,3,2,0
8.59,0,1,2,0,0,1,2,4
8.595,1,2,0,0,1,2,0,2
8.6,1,2,0,1,1,1,0,1
8.605,1,1,0,3,3,3,2,1
8.61,4,1,0,2,3,1,0,1
8.615,1,1,4,5,2,0,4,0
8.62,3,2,2,2,0,1,2,1
8.625,1,1,0,0,0,1,2,1
8.63,6,2,2,2,1,2,2,5
8.635,13,0,0,0,0,2,0,9
8.64,2,3,2,2,1,0,2,0
8.645,2,0,3,1,1,1,2,0
8.65,2,0,1,0,3,1,0,1
8.655,5,1,1,1,1,0,1,3
8.66,1,0,0,3,3,2,4,4
8.665,0,1,1,0,0,1,0,1
8.67,0,0,0,2,3,1,3,0
8.675,2,3,1,0,3,1,1,0
8.68,2,1,0,0,1,1,1,2
8.685,1,2,1,2,2,1,3,3
8.69,1,0,2,3,0,1,2,1
8.695,3,2,1,1,0,2,2,2
8.7,1,1,0,1,2,3,3,1
8.705,2,1,0,1,2,2,2,3
8.71,0,2,3,2,1,0,0,0
8.715,0,0,2,0,2,0,0,2
8.72,4,0,0,0,1,0,4,0
8.725,2,0,3,1,0,1,3,1
8.73,0,1,1,1,2,2,1,1
8.735,3,3,2,3,4,2,3,2
8.74,1,2,0,0,0,1,0,1
8.745,2,1,1,2,1,1,1,0
8.75,0,1,2,1,1,1,0,1
8.755,4,2,1,0,0,1,1,3
8.76,4,1,1,1,2,0,2,3
8.765,7,2,0,0,1,2,0,4
8.77,7,1,2,1,2,2,1,4
8.775,1,1,0,0,2,3,1,2
8.78,0,1,2,1,1,1,1,1
8.785,1,3,5,2,2,2,0,0
8.79,3,0,1,1,0,1,0,3
8.795,3,1,1,3,0,2,2,2
8.8,1,0,1,2,1,1,0,0
8.805,1,0,0,0,0,1,0,1
8.81,3,3,2,2,2,2,1,0
8.815,0,1,2,0,1,1,5,0
8.82,6,1,1,1,1,3,1,1
8.825,0,2,3,3,5,4,0,1
8.83,3,1,2,1,1,1,3,3
8.835,1,0,0,1,1,1,2,0
8.84,0,0,1,2,1,0,0,3
8.845,2,0,1,1,0,1,0,0
8.85,1,0,0,2,2,0,1,0
8.855,3,4,2,0,1,1,3,2
8.86,2,0,1,1,1,0,1,2
8.865,1,0,1,0,1,4,5,4
8.87,2,2,1,0,1,0,0,2
8.875,1,2,3,3,4,3,1,1
8.88,0,1,3,1,1,3,1,2
8.885,0,2,2,2,1,2,2,2
8.89,0,2,0,1,1,2,3,1
8.895,1,3,1,0,1,0,0,4
8.9,1,2,1,0,1,1,1,0
8.905,7,1,3,1,1,2,1,2
8.91,1,2,1,0,1,3,6,1
8.915,1,0,2,2,3,2,2,1
8.92,5,3,0,1,1,1,0,1
8.925,1,0,1,1,2,1,3,2
8.93,2,2,1,3,2,1,0,0
8.935,1,0,2,1,0,4,1,2
8.94,0,1,2,1,0,0,1,1
8.945,1,3,3,1,0,2,2,0
8.95,1,1,2,1,1,0,1,0
8.955,0,0,0,2,1,3,3,0
8.96,2,0,2,1,2,2,3,4
8.965,3,3,2,1,1,1,1,0
8.97,2,0,0,0,0,2,1,1
8.975,1,2,1,0,0,0,1,1
8.98,1,1,1,3,1,2,2,0
8.985,0,0,0,0,1,0,1,0
8.99,1,0,1,1,1,0,0,5
8.995,0,3,2,1,1,1,0,0
9,2,1,1,1,2,2,3,1
9.005,2,1,0,1,1,2,2,2
9.01,2,2,0,0,2,1,4,2
9.015,1,0,0,0,1,0,0,2
9.02,1,1,0,0,2,1,1,0
9.025,2,0,0,1,1,0,0,1
9.03,5,3,2,1,1,1,0,2
9.035,7,0,0,2,1,3,2,5
9.04,2,2,2,2,0,1,3,4
9.045,1,0,2,1,0,2,1,2
9.05,0,0,2,0,1,2,2,0
9.055,4,2,0,1,2,1,1,3
9.06,2,2,2,0,1,1,2,1
9.065,3,2,1,1,1,0,2,2
9.07,0,0,1,1,1,1,1,0
9.075,3,1,2,0,1,1,5,1
9.08,2,2,2,2,3,0,1,1
9.085,2,1,0,2,2,2,0,3
9.09,0,1,2,1,1,3,4,5
9.095,2,2,2,4,2,0,1,1
9.1,1,1,1,3,0,1,0,1
9.105,3,3,3,0,1,1,2,1
9.11,1,1,0,0,2,0,0,2
9.115,0,0,0,1,2,2,1,1
9.12,2,3,1,1,0,0,3,1
9.125,2,0,0,2,2,0,2,2
9.13,3,1,3,0,1,1,0,1
9.135,2,0,3,0,0,0,2,1
9.14,2,2,2,1,1,1,1,3
9.145,3,1,4,1,3,1,0,4
9.15,10,0,0,3,3,0,2,3
9.155,4,2,0,1,0,2,1,5
9.16,0,1,1,2,2,1,3,0
9.165,1,1,2,3,1,1,0,0
9.17,3,1,1,1,2,0,1,3
9.175,2,0,1,1,3,2,2,4
9.18,1,2,0,0,3,0,1,0
9.185,0,2,1,1,0,2,2,0
9.19,7,3,1,1,2,0,1,3
9.195,1,2,1,1,2,3,2,0
9.2,2,1,1,1,3,2,0,2
9.205,1,1,2,3,3,1,0,1
9.21,1,2,1,1,1,2,0,2
9.215,1,2,1,0,0,2,1,2
9.22,4,2,2,3,1,0,0,3
9.225,0,0,0,1,0,2,2,0
9.23,1,1,2,3,1,0,1,3
9.235,1,3,1,3,0,1,1,0
9.24,3,1,0,0,1,0,4,1
9.245,0,3,3,3,1,1,0,1
9.25,3,3,3,1,1,1,2,1
9.255,2,0,2,0,1,1,1,0
9.26,3,0,1,1,3,0,1,3
9.265,1,0,0,1,1,1,4,0
9.27,3,1,1,0,1,1,1,2
9.275,4,2,2,1,1,1,1,3
9.28,2,0,2,2,1,1,1,2
9.285,2,1,0,0,0,0,1,1
9.29,4,2,1,1,1,1,1,2
9.295,0,2,2,2,2,2,1,0
9.3,0,1,2,2,1,4,5,3
9.305,3,0,1,0,2,1,0,1
9.31,1,1,0,0,1,6,5,0
9.315,3,3,3,2,1,1,3,2
9.32,4,1,0,0,2,2,2,1
9.325,5,2,2,0,1,4,1,4
9.33,1,2,2,2,1,0,2,1
9.335,3,0,1,1,2,2,2,3
9.34,1,2,0,2,3,1,1,0
9.345,1,1,2,2,0,1,1,1
9.35,1,0,0,0,1,1,2,1
9.355,2,1,1,1,1,1,5,2
9.36,2,0,1,1,1,1,2,4
9.365,2,2,1,0,1,1,1,1
9.37,2,1,1,1,1,1,1,2
9.375,0,1,1,1,1,1,2,1
9.38,0,2,2,1,1,0,3,2
9.385,1,1,0,2,4,2,0,1
9.39,5,2,2,2,0,1,1,1
9.395,2,2,0,1,3,2,0,2
9.4,5,1,0,1,3,0,0,2
9.405,8,1,2,3,2,3,1,1
9.41,2,0,0,1,3,0,1,1
9.415,3,1,1,0,1,2,3,4
9.42,1,0,0,2,0,1,0,0
9.425,5,0,3,1,0,0,2,2
9.43,2,1,1,0,3,2,1,1
9.435,1,1,1,3,0,0,1,1
9.44,2,2,1,1,1,1,1,0
9.445,3,1,2,0,3,0,1,2
9.45,1,1,2,1,2,1,4,1
9.455,4,1,0,2,0,1,0,3
9.46,2,1,1,1,1,1,1,3
9.465,3,2,1,0,2,0,4,3
9.47,2,1,1,1,1,0,0,2
9.475,1,2,2,0,2,1,2,2
9.48,0,1,1,2,1,0,0,0
9.485,1,2,0,1,3,1,1,0
9.49,2,1,1,3,3,2,2,1
9.495,10,2,0,0,1,0,1,4
9.5,9,3,1,1,1,2,2,7
9.505,2,1,1,1,3,2,1,1
9.51,2,3,1,0,2,2,1,2
9.515,1,1,1,2,3,2,2,2
9.52,5,1,1,1,3,1,2,5
9.525,4,2,0,1,0,0,0,2
9.53,0,3,2,1,2,3,0,0
9.535,0,0,1,2,1,0,1,2
9.54,2,1,1,2,2,2,0,3
9.545,2,1,1,1,3,4,6,3
9.55,0,0,1,2,0,0,1,1
9.555,3,2,0,1,0,1,1,0
9.56,1,1,3,3,3,2,1,1
9.565,4,0,1,2,1,2,1,2
9.57,5,3,3,1,2,0,0,2
9.575,0,0,0,2,0,0,1,1
9.58,1,1,1,0,0,1,2,2
9.585,0,2,1,1,0,1,1,0
9.59,4,2,1,2,3,3,3,2
9.595,0,1,2,0,2,1,1,0
9.6,4,0,1,1,0,0,2,2
9.605,1,2,0,0,1,1,0,3
9.61,7,1,0,0,2,1,0,3
9.615,4,1,1,0,0,0,0,6
9.62,0,1,2,3,0,1,0,2
9.625,2,2,2,1,2,0,3,1
9.63,1,1,0,1,1,4,2,1
9.635,4,1,1,2,1,1,1,1
9.64,3,2,1,1,0,5,2,4
9.645,2,0,2,1,1,0,0,0
9.65,3,0,1,2,1,1,1,1
9.655,0,1,2,1,0,1,4,1
9.66,1,1,2,1,1,2,6,3
9.665,2,2,1,1,1,0,1,1
9.67,1,0,0,1,0,0,1,2
9.675,2,2,0,2,2,2,2,2
9.68,1,1,2,2,2,2,1,1
9.685,3,0,1,1,0,2,3,1
9.69,1,1,1,1,0,1,1,0
9.695,4,2,1,3,2,2,1,1
9.7,2,2,1,1,1,2,3,1
9.705,1,2,1,1,1,3,2,1
9.71,1,2,1,1,1,0,0,0
9.715,3,2,1,0,3,1,2,5
9.72,2,0,1,2,3,1,0,0
9.725,0,2,1,2,3,2,2,0
9.73,0,1,0,1,1,0,0,0
9.735,7,3,2,2,2,1,3,5
9.74,4,2,1,1,2,1,3,4
9.745,4,1,2,1,1,2,1,1
9.75,3,2,4,1,1,1,1,0
9.755,1,2,2,0,1,0,2,0
9.76,3,2,1,1,0,1,1,2
9.765,2,1,1,2,0,3,3,3
9.77,1,0,0,3,3,1,1,3
9.775,1,1,0,0,0,0,1,1
9.78,2,1,0,1,0,0,1,2
9.785,0,2,3,3,2,2,5,1
9.79,4,2,1,2,0,0,0,2
9.795,4,1,1,1,0,2,2,0
9.8,5,2,1,1,1,0,1,1
9.805,0,1,1,0,1,0,2,2
9.81,3,2,1,1,2,1,1,1
9.815,1,2,0,2,2,2,2,2
9.82,1,1,2,0,2,1,0,0
9.825,5,4,1,0,2,3,1,3
9.83,1,3,4,1,2,4,3,0
9.835,0,0,0,0,1,2,0,1
9.84,1,2,1,1,3,1,1,3
9.845,0,0,1,1,2,1,1,0
9.85,2,0,1,3,1,1,0,2
9.855,3,1,3,3,3,3,5,5
9.86,0,2,2,2,1,1,1,0
9.865,2,2,3,1,2,2,2,2
9.87,1,1,2,2,1,0,1,3
9.875,0,0,1,1,0,0,1,1
9.88,1,0,1,0,1,1,1,1
9.885,0,0,0,1,1,1,1,1
9.89,2,2,0,1,1,2,2,2
9.895,4,3,2,1,0,2,3,4
9.9,4,1,3,2,1,2,0,2
9.905,4,2,0,2,3,1,1,2
9.91,3,0,0,1,2,2,1,2
9.915,1,1,1,3,4,0,0,1
9.92,3,0,1,2,0,1,3,2
9.925,2,0,3,0,1,1,1,3
9.93,1,0,1,3,2,1,1,0
9.935,1,0,1,1,0,1,4,0
9.94,2,2,2,4,1,3,3,2
9.945,4,0,4,2,2,0,1,0
9.95,0,2,0,1,3,2,3,3
9.955,1,1,1,0,2,2,4,1
9.96,1,1,0,0,0,1,1,2
9.965,2,1,1,2,0,2,1,2
9.97,2,2,2,1,2,2,0,3
9.975,0,1,3,1,2,0,1,1
9.98,1,1,0,2,1,1,0,1
9.985,2,1,1,1,2,1,2,1
9.99,1,2,1,1,2,2,2,2
9.995,2,0,0,1,4,3,1,1
10,1,2,2,1,1,1,0,2
10.005,0,2,1,1,0,2,1,1
10.01,1,0,2,2,2,3,2,1
10.015,0,2,1,2,1,0,0,1
10.02,1,1,0,0,1,0,2,1
10.025,4,3,0,0,1,1,3,2
10.03,2,2,2,3,1,2,5,0
10.035,4,2,2,0,1,1,1,3
10.04,3,3,1,4,3,2,2,0
10.045,1,2,1,1,0,1,1,2
10.05,1,1,1,3,3,2,1,0
10.055,6,1,2,4,2,3,1,5
10.06,3,2,3,3,1,1,6,0
10.065,1,1,2,1,2,2,1,2
10.07,3,2,1,1,2,2,1,3
10.075,0,1,1,0,1,1,1,1
10.08,2,2,0,0,1,0,0,3
10.085,1,1,0,2,1,0,1,2
10.09,1,3,1,0,4,1,3,1
10.095,0,1,2,0,1,2,0,3
10.1,0,2,0,3,3,3,3,2
10.105,1,3,3,1,0,1,1,2
10.11,2,0,1,1,1,1,2,3
10.115,1,1,0,1,2,2,5,0
10.12,4,2,1,0,2,3,1,1
10.125,2,2,4,0,2,0,3,0
10.13,1,0,2,2,2,2,1,3
10.135,2,0,1,2,2,1,1,2
10.14,3,1,1,1,0,1,1,1
10.145,0,1,1,2,2,2,1,0
10.15,2,2,0,1,1,2,0,2
10.155,0,3,2,0,1,1,5,1
10.16,3,3,3,2,1,2,2,3
10.165,1,2,0,0,1,2,4,2
10.17,0,1,0,0,3,1,1,0
10.175,1,1,1,1,0,1,2,0
10.18,1,1,1,1,1,2,1,1
10.185,3,1,0,1,0,0,1,1
10.19,0,2,2,1,2,1,0,1
10.195,1,2,2,1,2,3,0,0
10.2,1,2,3,2,1,0,1,1
10.205,1,0,0,2,1,0,2,1
10.21,2,1,2,1,1,2,3,2
10.215,0,1,0,0,1,0,1,3
10.22,2,0,1,1,1,1,0,1
10.225,0,3,1,1,2,1,0,2
10.23,3,1,1,1,0,0,1,1
10.235,0,3,3,2,1,1,0,1
10.24,0,1,0,3,3,5,2,2
10.245,0,2,2,2,3,1,3,2
10.25,1,2,1,0,0,0,1,1
10.255,2,1,1,3,1,1,3,2
10.26,2,1,0,0,1,3,2,2
10.265,1,0,2,2,2,1,2,0
10.27,3,0,1,1,3,2,4,7
10.275,1,2,0,1,0,0,1,1
10.28,1,0,1,0,1,1,0,1
10.285,8,2,2,1,2,0,2,3
10.29,5,1,1,2,1,2,1,3
10.295,2,0,1,1,1,1,1,1
10.3,1,1,0,0,2,2,3,1
10.305,3,2,1,0,1,0,2,2
10.31,2,2,3,1,2,0,2,2
10.315,1,2,2,2,3,3,3,1
10.32,2,2,2,0,1,1,2,0
10.325,1,1,2,1,0,1,1,1
10.33,2,2,2,1,0,1,0,1
10.335,1,0,1,2,1,1,2,2
10.34,0,2,2,1,0,1,1,2
10.345,1,0,0,1,2,3,4,3
10.35,2,0,2,1,2,3,2,1
10.355,2,1,2,1,0,1,2,3
10.36,1,2,4,3,1,0,0,1
10.365,0,0,0,0,2,1,2,3
10.37,1,1,2,3,0,2,1,1
10.375,0,1,1,1,4,0,3,2
10.38,2,3,2,2,2,1,0,0
10.385,0,3,1,0,1,1,5,0
10.39,0,0,2,0,2,1,0,2
10.395,5,1,1,1,1,1,2,0
10.4,0,1,1,1,2,1,1,2
10.405,0,2,2,2,0,2,3,1
10.41,2,1,1,2,0,1,1,2
10.415,3,0,1,1,1,1,0,1
10.42,2,2,1,2,0,1,1,1
10.425,1,1,2,1,1,2,1,1
10.43,1,2,0,1,2,1,2,1
10.435,2,0,2,2,1,2,3,2
10.44,2,0,0,1,0,3,0,0
10.445,2,1,2,2,1,1,1,1
10.45,2,1,1,0,2,1,1,0
10.455,1,3,2,0,3,2,1,1
10.46,1,1,3,2,3,3,4,4
10.465,1,0,2,1,1,0,0,0
10.47,1,2,0,0,1,1,1,0
10.475,1,3,1,2,1,0,2,1
10.48,3,1,1,0,1,1,0,1
10.485,1,1,0,2,2,2,1,2
10.49,2,1,1,0,2,2,1,2
10.495,2,0,1,0,2,1,1,2
10.5,0,3,1,1,4,3,2,3
10.505,1,0,1,2,2,1,1,0
10.51,0,1,0,1,1,0,1,0
10.515,3,2,2,0,2,1,1,2
10.52,1,0,0,0,1,1,1,0
10.525,0,2,2,1,1,1,1,2
10.53,1,1,2,2,2,1,2,2
10.535,2,1,2,3,3,1,1,0
10.54,3,2,0,2,1,0,1,4
10.545,8,1,1,1,1,2,1,5
10.55,0,2,2,1,0,2,1,1
10.555,1,3,1,0,2,2,4,3
10.56,2,0,2,1,2,0,2,1
10.565,3,3,1,1,2,1,2,4
10.57,2,2,2,1,1,3,0,1
10.575,1,2,0,2,1,4,2,1
10.58,2,1,2,1,1,2,2,0
10.585,2,1,1,1,0,4,4,2
10.59,2,2,2,2,1,2,3,1
10.595,0,1,0,1,1,0,2,0
10.6,2,0,0,3,1,1,3,0
10.605,2,3,2,1,1,0,2,2
10.61,0,0,1,0,0,1,1,0
10.615,6,1,2,2,2,2,1,4
10.62,10,1,1,1,1,2,3,3
10.625,3,2,1,2,2,1,2,1
10.63,1,0,3,2,1,3,3,2
10.635,0,2,1,1,0,0,2,2
10.64,4,1,1,1,1,0,1,0
10.645,2,0,1,1,0,2,2,1
10.65,1,1,2,1,2,2,2,0
10.655,0,0,1,1,1,0,3,1
10.66,2,1,2,3,1,1,1,4
10.665,0,0,2,1,2,1,1,0
10.67,2,3,1,2,2,1,2,0
10.675,5,2,1,1,1,0,1,4
10.68,4,1,1,2,3,1,3,3
10.685,1,2,1,1,2,0,6,2
10.69,1,3,1,2,1,1,1,3
10.695,1,2,2,1,0,4,4,1
10.7,4,0,0,1,2,1,0,1
10.705,3,0,1,1,1,0,1,3
10.71,2,3,1,1,0,0,2,1
10.715,2,1,0,3,1,1,1,0
10.72,4,4,1,2,1,3,2,3
10.725,2,2,0,2,4,2,5,2
10.73,1,1,0,0,1,0,1,3
10.735,1,1,0,1,2,1,3,1
10.74,2,5,3,1,2,1,1,2
10.745,2,2,0,1,0,4,0,0
10.75,1,1,5,2,0,2,0,1
10.755,2,1,3,1,3,2,1,0
10.76,2,1,1,2,0,1,1,1
10.765,3,1,1,0,1,2,1,0
10.77,2,1,1,3,1,3,5,3
10.775,0,2,1,1,0,0,1,0
10.78,4,2,2,1,2,0,0,4
10.785,4,1,1,1,1,1,0,3
10.79,2,0,0,1,2,2,2,1
10.795,3,1,2,3,1,4,6,2
10.8,2,2,0,0,0,1,3,1
10.805,1,1,0,0,1,0,3,1
10.81,1,2,2,2,3,2,1,0
10.815,2,3,1,0,3,0,2,2
10.82,2,0,1,1,1,1,2,2
10.825,8,2,2,1,1,3,0,4
10.83,6,0,2,2,3,2,1,2
10.835,2,0,2,1,1,2,2,1
10.84,1,3,2,0,1,2,0,1
10.845,0,1,1,1,2,1,0,1
10.85,3,2,0,0,1,2,4,3
10.855,3,1,1,2,0,1,1,0
10.86,0,2,3,1,2,1,2,1
10.865,0,1,1,0,0,0,1,1
10.87,1,1,1,2,3,1,2,3
10.875,4,1,0,0,0,0,1,1
10.88,1,1,0,0,1,1,3,6
10.885,1,1,1,0,0,0,0,1
10.89,0,0,1,2,0,1,2,1
10.895,2,3,3,2,1,1,0,2
10.9,3,1,1,0,1,2,1,1
10.905,1,1,1,2,2,2,1,0
10.91,3,2,1,1,1,2,1,1
10.915,1,2,3,2,1,0,2,2
10.92,2,2,1,2,2,0,1,1
10.925,0,2,2,1,0,2,4,1
10.93,4,1,1,0,0,1,1,1
10.935,1,2,0,1,1,3,3,1
10.94,1,0,1,1,1,2,0,1
10.945,8,2,0,2,0,0,2,6
10.95,8,1,3,2,2,4,1,4
10.955,0,1,2,1,0,2,0,3
10.96,2,1,0,1,1,1,2,0
10.965,0,3,1,3,3,2,4,0
10.97,5,1,1,1,0,2,2,4
10.975,0,2,2,0,1,2,3,1
10.98,0,1,2,2,1,2,0,0
10.985,1,0,2,0,1,1,2,0
10.99,4,3,0,2,0,0,1,2
10.995,0,1,2,1,0,4,1,1
11,1,0,2,1,0,1,3,2
11.005,1,2,3,1,0,2,2,1
11.01,2,1,3,1,2,0,2,0
11.015,0,1,1,0,3,0,0,1
11.02,1,1,1,0,1,0,1,1
11.025,1,0,2,0,2,2,0,1
11.03,2,1,0,0,1,2,0,4
11.035,6,0,0,1,1,2,0,1
11.04,1,4,2,3,3,2,0,1
11.045,2,1,1,1,2,1,0,1
11.05,2,3,2,0,0,1,1,2
11.055,3,2,2,2,2,1,3,2
11.06,1,1,0,1,2,3,2,1
11.065,1,1,1,1,1,2,4,1
11.07,0,1,0,1,1,3,1,0
11.075,6,1,1,1,0,0,2,7
11.08,7,1,1,1,2,3,3,1
11.085,1,1,2,1,2,2,1,1
11.09,2,1,3,0,2,0,1,0
11.095,0,0,1,1,0,1,2,1
11.1,3,1,1,1,0,0,4,2
11.105,1,0,1,2,1,1,0,2
11.11,3,1,2,1,1,1,1,3
11.115,1,1,0,1,1,3,3,1
11.12,4,0,1,2,2,1,1,1
11.125,1,2,2,2,0,2,1,0
11.13,2,2,1,1,0,1,1,1
11.135,2,1,1,1,0,2,1,1
11.14,2,1,1,2,2,1,1,4
11.145,4,2,0,3,1,0,0,1
11.15,1,1,1,3,2,0,2,0
11.155,0,1,2,2,2,3,2,1
11.16,1,1,0,0,0,1,0,2
11.165,1,1,0,1,1,1,0,1
11.17,1,0,1,2,3,1,1,2
11.175,0,2,1,2,0,3,5,1
11.18,1,1,2,1,2,2,2,3
11.185,3,1,1,2,3,1,1,2
11.19,1,3,1,1,1,0,0,3
11.195,0,2,1,1,1,3,3,1
11.2,2,2,2,0,0,0,1,2
11.205,2,3,2,1,1,3,5,5
11.21,1,1,1,2,3,2,0,4
11.215,3,1,1,1,1,2,0,1
11.22,0,1,1,0,1,1,3,1
11.225,1,0,1,0,1,1,2,1
11.23,4,2,2,2,0,0,3,1
11.235,6,0,0,0,1,4,1,1
11.24,3,0,0,1,2,1,1,3
11.245,2,1,2,1,0,1,2,0
11.25,2,2,1,1,1,1,1,0
11.255,5,2,1,2,3,0,0,2
11.26,2,1,2,1,2,2,0,1
11.265,1,0,0,1,1,1,1,0
11.27,3,0,0,1,1,1,0,0
11.275,1,2,2,1,1,0,2,3
11.28,2,2,3,1,1,1,1,2
11.285,1,1,2,3,1,0,0,0
11.29,1,1,0,2,1,0,3,0
11.295,0,0,0,2,1,0,2,1
11.3,0,1,0,2,0,1,2,1
11.305,3,4,0,0,2,1,1,3
11.31,1,0,1,0,0,2,2,2
11.315,2,1,3,2,3,1,0,1
11.32,4,1,0,0,2,0,4,1
11.325,2,0,2,0,0,1,1,1
11.33,3,4,2,1,2,3,1,2
11.335,0,1,0,0,1,0,1,2
11.34,4,0,1,0,1,2,0,3
11.345,1,2,0,2,1,0,0,1
11.35,0,1,1,0,3,3,3,1
11.355,2,2,2,1,1,0,0,1
11.36,1,0,1,0,1,2,2,0
11.365,1,0,1,0,1,0,2,1
11.37,1,2,1,4,2,1,1,0
11.375,4,3,1,1,1,1,0,1
11.38,1,1,1,2,0,0,2,0
11.385,2,2,2,1,3,3,3,0
11.39,1,1,1,1,0,1,1,0
11.395,0,2,2,3,2,1,1,5
11.4,1,3,1,0,1,0,1,2
11.405,3,2,2,2,0,1,2,2
11.41,1,2,2,2,0,2,1,1
11.415,2,2,2,0,1,1,3,2
11.42,1,2,0,1,2,0,1,1
11.425,4,2,0,1,0,1,0,1
11.43,6,2,0,2,1,0,3,5
11.435,8,1,3,2,1,1,1,3
11.44,1,2,1,1,0,0,2,2
11.445,0,0,1,1,3,1,0,2
11.45,3,2,1,0,1,1,0,1
11.455,2,1,1,1,1,1,0,2
11.46,1,2,1,2,2,0,1,2
11.465,2,0,2,2,1,1,1,2
11.47,2,0,2,0,2,1,1,3
11.475,2,1,1,1,2,3,6,2
11.48,0,0,2,2,4,2,1,1
11.485,5,1,1,1,1,0,2,1
11.49,3,1,3,1,1,3,0,0
11.495,2,0,0,1,2,1,1,1
11.5,2,1,0,0,2,3,2,4
11.505,0,2,3,1,4,2,1,3
11.51,0,1,1,2,1,1,3,0
11.515,3,1,1,1,1,0,0,1
11.52,4,3,1,0,1,0,2,1
11.525,1,1,2,0,0,1,0,0
11.53,0,1,1,1,1,1,3,1
11.535,1,1,2,2,3,3,6,3
11.54,2,0,0,1,2,0,1,1
11.545,3,2,1,0,0,0,1,2
11.55,7,3,1,2,1,1,2,4
11.555,8,0,1,2,3,4,0,3
11.56,2,1,5,3,2,1,1,1
11.565,1,1,2,0,1,1,4,3
11.57,1,1,1,1,2,1,1,2
11.575,3,3,0,2,1,1,2,0
11.58,3,0,1,1,0,0,4,5
11.585,1,3,1,1,3,2,3,2
11.59,0,1,0,1,1,1,3,2
11.595,4,1,1,1,1,1,1,3
11.6,0,2,1,0,0,1,1,1
11.605,1,1,1,1,0,3,2,2
11.61,0,1,2,1,0,3,2,0
11.615,1,1,0,1,0,0,1,2
11.62,5,1,0,1,0,1,0,0
11.625,1,0,1,2,0,1,1,1
11.63,0,1,4,2,3,0,1,0
11.635,2,4,3,1,0,1,2,3
11.64,2,1,1,3,1,1,5,3
11.645,0,0,1,0,0,1,1,1
11.65,1,0,0,3,0,2,2,0
11.655,2,1,0,0,3,1,2,3
11.66,1,2,2,1,1,1,1,1
11.665,4,1,1,1,4,2,3,2
11.67,0,2,2,1,1,0,4,1
11.675,3,1,1,1,0,1,2,3
11.68,2,3,1,2,2,2,2,0
11.685,1,1,2,1,2,0,2,2
11.69,1,0,1,2,2,0,1,4
11.695,0,2,0,1,2,1,1,1
11.7,1,0,2,0,2,0,2,1
11.705,0,2,1,2,1,2,1,1
11.71,1,0,1,1,2,1,2,1
11.715,1,1,1,2,0,0,0,2
11.72,0,1,0,0,1,2,2,2
11.725,3,3,4,0,1,1,2,1
11.73,4,2,1,0,2,3,2,0
11.735,2,2,1,3,1,0,1,1
11.74,3,3,1,0,0,0,0,3
11.745,2,1,0,1,0,3,1,0
11.75,3,0,0,2,2,3,2,2
11.755,0,1,1,0,1,2,1,1
11.76,1,1,1,0,2,0,0,1
11.765,0,1,1,2,1,0,2,2
11.77,7,2,0,0,0,0,2,5
11.775,7,1,2,3,1,0,3,4
11.78,1,2,1,2,3,0,1,1
11.785,2,2,1,1,1,4,2,3
11.79,1,0,1,1,0,1,2,3
11.795,5,1,2,1,1,1,4,7
11.8,4,0,0,1,1,0,1,1
11.805,1,1,3,3,2,2,1,1
11.81,2,4,2,1,0,0,1,0
11.815,2,2,0,0,1,2,3,3
11.82,0,0,2,0,3,0,0,2
11.825,3,1,1,1,0,1,1,0
11.83,1,1,0,0,1,1,1,1
11.835,1,1,3,1,0,2,1,0
11.84,0,2,1,0,1,1,2,2
11.845,2,1,1,1,1,1,3,1
11.85,2,2,1,2,0,1,1,0
11.855,1,1,0,0,0,1,1,0
11.86,3,1,1,4,1,3,4,1
11.865,1,1,1,2,1,0,1,0
11.87,2,1,1,0,0,1,0,3
11.875,6,2,2,2,2,2,3,4
11.88,2,4,3,2,2,3,3,2
11.885,0,2,2,1,2,1,2,1
11.89,1,0,2,2,1,2,2,0
11.895,5,2,1,1,0,0,0,0
11.9,3,1,3,2,0,1,1,2
11.905,1,1,2,3,1,3,2,0
11.91,4,0,1,0,1,1,2,4
11.915,2,1,2,2,1,1,2,2
11.92,1,1,0,1,1,0,3,3
11.925,0,1,1,2,2,0,0,2
11.93,0,1,3,1,2,3,3,3
11.935,1,1,1,1,0,1,0,0
11.94,3,2,0,2,1,2,3,0
11.945,5,2,0,2,1,0,0,0
11.95,1,1,1,2,1,1,2,0
11.955,2,1,1,1,3,1,2,0
11.96,1,3,2,0,0,2,2,0
11.965,3,2,2,0,3,4,3,4
11.97,4,2,2,3,2,1,2,0
11.975,1,1,0,1,1,1,0,2
11.98,2,3,1,0,0,2,0,1
11.985,1,0,1,4,0,0,0,0
11.99,5,3,3,1,1,2,3,3
11.995,4,2,2,2,1,1,6,2
12,2,1,1,2,3,2,2,2
12.005,1,1,0,1,2,1,1,1
12.01,4,2,2,0,0,2,2,3
12.015,2,3,2,1,0,2,1,1
12.02,1,1,0,2,3,1,3,1
12.025,1,2,1,0,1,2,2,2
12.03,1,1,0,1,1,1,3,1
12.035,2,0,1,1,2,2,0,2
12.04,1,0,2,0,0,0,3,2
12.045,2,0,3,2,2,0,1,0
12.05,0,1,1,1,1,0,3,1
12.055,2,3,1,2,2,1,2,3
12.06,1,1,1,0,0,2,0,4
12.065,0,1,2,1,0,1,0,2
12.07,4,1,1,2,1,4,3,1
12.075,0,1,2,1,2,2,2,2
12.08,4,0,1,2,1,1,1,1
12.085,1,0,2,3,0,0,1,1
12.09,0,1,2,1,2,0,0,1
12.095,3,2,0,1,2,1,0,0
12.1,2,2,1,0,0,1,2,1
12.105,0,1,1,1,0,3,2,3
12.11,2,2,0,2,1,1,1,0
12.115,2,1,1,1,1,2,2,1
12.12,2,1,3,1,1,0,1,1
12.125,2,0,1,2,1,1,0,3
12.13,2,1,3,0,1,1,2,1
12.135,2,0,1,4,2,0,2,0
12.14,4,1,3,3,1,2,5,5
12.145,0,1,1,1,1,2,1,3
12.15,1,1,0,0,2,1,2,2
12.155,0,1,2,0,1,0,0,1
12.16,1,0,0,1,3,1,0,0
12.165,2,2,1,2,2,2,2,0
12.17,2,0,1,1,0,2,1,0
12.175,6,3,3,3,1,1,1,2
12.18,1,1,1,0,1,2,2,0
12.185,2,1,3,2,2,2,0,1
12.19,2,2,1,1,1,2,1,1
12.195,2,1,1,1,1,2,2,1
12.2,2,0,0,0,1,0,0,1
12.205,0,1,2,2,3,2,1,1
12.21,4,0,1,0,3,2,2,1
12.215,4,1,2,0,2,3,0,1
12.22,1,2,0,2,1,3,2,1
12.225,8,1,1,1,2,1,1,3
12.23,4,1,3,2,1,2,2,1
12.235,2,3,1,2,2,2,3,1
12.24,1,1,4,1,2,0,2,2
12.245,2,1,1,1,2,1,1,0
12.25,4,2,2,2,1,0,2,5
12.255,1,1,1,1,1,1,1,2
12.26,0,1,1,1,1,1,0,2
12.265,1,1,1,2,1,2,0,2
12.27,5,1,0,1,1,1,2,4
12.275,8,2,2,1,2,0,0,4
12.28,0,1,1,1,1,1,3,2
12.285,0,1,1,1,3,2,1,1
12.29,1,1,1,0,1,1,4,1
12.295,7,0,2,1,0,1,0,5
12.3,1,1,0,0,2,2,5,0
12.305,2,2,2,0,2,1,0,1
12.31,2,1,0,1,1,2,0,0
12.315,3,1,0,4,0,0,0,0
12.32,2,1,1,2,0,0,1,1
12.325,2,0,3,1,1,2,5,2
12.33,1,0,2,1,1,1,1,1
12.335,4,0,0,0,3,2,1,4
12.34,1,0,0,1,2,2,0,5
12.345,5,1,1,0,2,1,1,0
12.35,1,1,1,0,1,1,2,1
12.355,0,1,0,1,1,1,1,1
12.36,4,1,1,1,3,3,1,2
12.365,3,1,1,1,1,1,0,6
12.37,0,3,3,2,3,3,3,0
12.375,0,2,2,1,2,0,2,3
12.38,0,0,2,0,0,1,1,1
12.385,1,1,0,1,1,1,1,1
12.39,1,2,0,3,1,1,1,2
12.395,2,1,3,1,1,1,1,1
12.4,0,2,1,2,3,0,0,2
12.405,3,2,2,1,1,0,1,1
12.41,5,2,1,2,2,1,1,2
12.415,4,2,3,4,0,3,4,1
12.42,6,1,1,0,0,0,1,3
12.425,3,1,2,3,1,0,1,2
12.43,4,1,2,0,2,2,1,1
12.435,1,1,0,1,1,2,2,1
12.44,1,1,3,1,1,1,1,2
12.445,5,2,1,0,2,3,3,4
12.45,4,1,3,0,2,2,1,2
12.455,0,2,0,1,1,0,3,1
12.46,2,2,1,1,0,2,3,1
12.465,0,2,1,2,2,0,0,2
12.47,5,1,0,2,2,3,1,5
12.475,2,0,2,1,4,1,1,4
12.48,0,1,1,0,1,1,4,0
12.485,4,0,3,2,2,3,2,1
12.49,2,2,2,2,2,1,1,1
12.495,0,1,2,2,2,1,0,1
12.5,1,0,0,2,3,2,0,3
12.505,0,2,1,2,0,2,3,2
12.51,2,1,3,0,2,2,1,2
12.515,1,3,0,0,3,0,1,0
12.52,0,0,1,3,1,2,0,0
12.525,1,3,0,2,1,0,1,0
12.53,1,1,1,1,2,2,1,1
12.535,0,0,1,1,0,0,1,2
12.54,5,1,1,2,1,0,2,0
12.545,0,1,1,1,1,1,0,0
12.55,1,3,1,1,0,1,0,0
12.555,6,1,1,2,2,2,1,2
12.56,4,0,2,0,1,0,0,3
12.565,1,1,1,3,2,2,3,1
12.57,1,1,1,0,1,0,1,2
12.575,1,1,1,1,2,2,5,2
12.58,3,1,2,2,2,1,1,4
12.585,0,1,1,2,1,0,2,1
12.59,2,1,1,1,1,0,1,0
12.595,2,1,1,1,4,3,1,2
12.6,3,1,1,0,1,2,1,2
12.605,2,2,1,2,2,3,2,0
12.61,1,3,0,2,0,2,1,2
12.615,1,1,2,2,1,1,3,0
12.62,1,1,2,0,0,1,1,1
12.625,3,2,1,2,1,0,1,1
12.63,0,2,2,2,3,0,1,2
12.635,1,2,0,1,1,0,2,0
12.64,1,1,0,0,2,4,2,1
12.645,3,1,1,0,1,0,1,1
12.65,2,2,3,1,0,1,0,2
12.655,2,2,1,1,2,3,5,2
12.66,1,0,2,2,2,2,3,1
12.665,1,1,1,2,0,1,1,2
12.67,2,3,1,1,2,2,1,1
12.675,0,0,2,2,1,2,2,1
12.68,3,4,3,1,0,1,1,1
12.685,3,1,2,1,0,1,0,2
12.69,0,0,1,1,0,1,2,0
12.695,1,1,0,1,2,2,1,2
12.7,1,1,0,3,1,2,0,2
12.705,1,2,2,1,1,0,1,0
12.71,3,1,0,2,3,0,0,0
12.715,1,2,1,0,0,1,3,1
12.72,3,1,0,1,3,1,2,3
12.725,0,0,1,1,3,1,0,2
12.73,2,1,3,2,0,3,1,2
12.735,2,2,1,1,2,1,1,1
12.74,1,2,0,0,2,1,3,1
12.745,3,1,2,1,1,0,2,0
12.75,1,0,0,2,2,1,3,0
12.755,5,0,1,1,3,2,2,0
12.76,1,1,3,1,1,2,3,0
12.765,1,2,0,1,2,2,3,0
12.77,1,2,1,0,1,2,0,1
12.775,2,1,1,1,0,1,1,4
12.78,5,1,2,1,1,2,1,3
12.785,0,0,2,4,1,4,1,1
12.79,2,2,0,1,1,1,0,1
12.795,4,2,2,1,2,2,1,0
12.8,3,1,0,1,1,0,2,2
12.805,1,1,0,3,0,2,2,2
12.81,0,3,1,0,0,1,1,0
12.815,4,1,3,3,3,1,3,5
12.82,5,1,0,1,4,1,1,5
12.825,2,3,1,0,0,0,1,2
12.83,1,1,0,1,1,1,3,1
12.835,0,0,1,1,1,0,2,0
12.84,3,1,0,0,0,0,1,2
12.845,1,0,1,1,0,2,1,1
12.85,1,1,1,1,1,1,0,1
12.855,3,1,1,2,1,1,0,1
12.86,1,3,2,1,1,0,1,2
12.865,2,0,1,1,0,2,0,2
12.87,0,2,3,1,2,2,2,3
12.875,3,0,1,1,2,2,3,1
12.88,1,1,1,0,0,1,2,1
12.885,3,1,2,4,2,1,4,3
12.89,3,2,2,0,0,0,0,2
12.895,1,0,1,0,0,0,0,2
12.9,2,3,2,0,2,1,0,1
12.905,0,2,1,2,3,5,7,3
12.91,1,1,1,1,1,0,0,0
12.915,2,2,1,2,2,1,3,1
12.92,7,3,2,3,1,1,1,4
12.925,3,1,2,2,2,0,0,3
12.93,2,0,1,2,0,1,2,0
12.935,2,1,1,0,0,1,3,2
12.94,2,0,0,0,2,2,1,2
12.945,1,2,1,0,3,1,0,1
12.95,0,1,1,3,0,2,0,1
12.955,2,3,2,1,1,0,2,2
12.96,1,2,1,2,2,3,3,3
12.965,3,3,0,1,1,2,3,3
12.97,2,1,2,2,2,0,2,1
12.975,1,2,1,2,1,2,1,2
12.98,0,0,3,2,2,1,1,1
12.985,2,2,0,2,1,1,3,0
12.99,3,1,1,0,3,1,1,0
12.995,2,0,2,1,3,2,1,0
13,1,2,2,1,2,1,3,4
13.005,0,3,3,4,2,0,0,2
13.01,3,1,1,1,1,1,1,2
13.015,1,1,2,0,3,2,2,1
13.02,2,1,2,1,2,2,2,1
13.025,11,1,0,1,1,1,2,6
13.03,8,1,0,2,2,2,1,5
13.035,1,1,2,1,0,4,1,1
13.04,3,1,0,0,0,0,1,5
13.045,0,0,1,0,0,0,0,2
13.05,4,0,1,1,1,1,2,2
13.055,2,2,1,1,2,0,1,1
13.06,2,0,0,3,1,1,2,1
13.065,3,1,1,1,1,1,1,0
13.07,0,3,0,2,1,0,0,0
13.075,0,2,0,1,2,1,1,3
13.08,5,3,1,2,1,1,3,2
13.085,3,1,2,2,3,2,1,0
13.09,2,0,2,1,1,3,3,2
13.095,2,0,0,1,0,1,1,2
13.1,0,2,2,2,1,1,0,1
13.105,0,2,1,1,2,1,1,1
13.11,2,1,1,1,2,2,1,4
13.115,2,1,1,0,1,0,0,0
13.12,1,2,2,1,3,0,2,1
13.125,4,0,3,1,0,3,5,1
13.13,2,3,1,0,1,0,0,2
13.135,0,2,0,2,0,3,2,6
13.14,1,0,0,2,1,0,2,3
13.145,7,2,2,0,0,0,2,3
13.15,4,2,0,1,0,1,1,2
13.155,2,2,1,2,1,3,4,3
13.16,0,0,1,0,1,0,1,1
13.165,2,0,0,1,0,1,1,1
13.17,2,2,3,4,2,2,2,1
13.175,1,1,0,1,1,0,2,1
13.18,1,2,1,1,0,2,3,2
13.185,2,2,1,1,1,0,2,1
13.19,4,1,0,1,2,2,1,2
13.195,0,2,3,2,3,3,1,1
13.2,4,2,0,1,1,0,1,2
13.205,4,1,1,2,0,2,3,1
13.21,0,0,2,0,3,4,4,1
13.215,1,1,1,0,1,1,3,2
13.22,3,1,0,0,0,1,1,1
13.225,3,3,1,3,1,1,2,0
13.23,0,0,0,0,1,1,2,1
13.235,0,0,2,1,3,2,1,2
13.24,0,0,1,1,2,1,0,2
13.245,2,0,1,0,1,1,2,0
13.25,2,1,2,2,1,1,2,2
13.255,6,4,1,0,1,1,0,3
13.26,7,0,2,2,1,4,0,3
13.265,2,1,1,1,3,1,1,2
13.27,1,0,0,1,2,0,3,2
13.275,4,1,1,0,0,0,3,2
13.28,3,2,2,1,1,1,3,3
13.285,0,1,2,1,1,3,0,0
13.29,1,0,1,0,1,0,4,5
13.295,1,1,4,2,0,2,1,1
13.3,2,2,2,1,1,1,0,1
13.305,1,2,1,1,1,1,0,0
13.31,2,1,0,0,0,1,2,1
13.315,3,1,2,2,2,2,3,1
13.32,0,2,3,1,2,2,3,2
13.325,3,1,0,1,2,1,2,1
13.33,1,0,2,0,2,2,2,0
13.335,1,0,1,0,1,0,0,0
13.34,6,2,1,0,1,2,1,2
13.345,1,1,3,4,1,2,1,1
13.35,3,2,2,2,2,0,2,2
13.355,2,0,0,2,0,1,3,1
13.36,0,0,0,1,3,0,4,0
13.365,4,1,1,1,1,2,4,4
13.37,4,3,4,2,1,0,1,2
13.375,2,1,2,3,1,1,1,3
13.38,1,1,1,1,1,0,1,1
13.385,1,0,1,1,1,1,1,1
13.39,6,2,2,2,1,3,1,4
13.395,3,3,1,0,1,1,1,3
13.4,1,0,1,3,1,1,1,2
13.405,0,1,1,2,1,1,2,1
13.41,2,2,2,1,2,2,1,1
13.415,0,1,1,1,2,3,3,0
13.42,2,0,1,0,1,0,0,0
13.425,2,3,3,1,2,1,2,1
13.43,3,1,1,1,2,0,3,1
13.435,1,0,2,1,1,3,0,2
13.44,3,3,1,2,1,2,3,2
13.445,2,1,1,2,0,0,2,2
13.45,0,3,1,2,2,1,2,1
13.455,6,1,1,2,0,1,0,4
13.46,5,1,2,2,1,1,3,4
13.465,2,1,1,2,3,4,1,1
13.47,2,0,0,1,1,0,0,1
13.475,2,1,0,1,3,1,2,0
13.48,4,2,3,0,1,2,4,4
13.485,1,2,0,1,0,1,2,1
13.49,1,1,2,1,1,1,0,1
13.495,2,3,1,1,2,0,1,0
13.5,5,2,1,0,2,1,2,5
13.505,8,2,0,0,2,1,2,4
13.51,3,1,1,1,1,0,7,6
13.515,0,1,4,1,0,2,2,0
13.52,3,1,0,2,1,0,2,3
13.525,4,4,2,1,0,2,1,2
13.53,2,3,1,1,1,3,0,0
13.535,0,0,2,1,1,0,1,2
13.54,3,1,1,1,1,0,0,1
13.545,2,1,3,1,1,3,1,1
13.55,0,2,1,1,3,4,5,2
13.555,1,1,2,2,1,1,1,0
13.56,2,2,0,2,3,3,3,3
13.565,5,0,1,1,1,1,1,1
13.57,3,1,1,1,0,1,1,1
13.575,1,1,0,1,0,2,2,2
13.58,0,0,1,0,0,1,0,0
13.585,3,0,3,1,3,1,2,3
13.59,3,2,1,2,2,0,4,3
13.595,0,1,1,1,1,2,1,0
13.6,2,2,0,2,1,0,1,0
13.605,5,3,1,1,0,4,4,6
13.61,0,0,2,0,2,1,1,1
13.615,2,1,4,3,3,2,1,0
13.62,1,0,1,0,1,1,0,0
13.625,2,1,1,0,0,1,0,1
13.63,2,2,1,2,3,0,2,1
13.635,5,1,1,0,1,2,3,3
13.64,2,2,2,2,1,1,3,0
13.645,2,1,1,2,2,0,4,0
13.65,0,1,0,1,1,2,1,2
13.655,2,1,1,0,2,2,3,1
13.66,3,1,2,1,1,1,0,1
13.665,2,1,1,3,1,2,1,0
13.67,5,1,3,0,1,0,0,3
13.675,6,0,0,1,1,3,1,3
13.68,1,1,2,1,1,1,1,1
13.685,1,1,1,2,2,2,2,1
13.69,1,0,1,1,1,2,0,1
13.695,5,2,1,1,0,0,3,6
13.7,0,1,2,2,2,1,1,2
13.705,1,0,1,1,0,1,1,1
13.71,8,2,0,2,1,0,2,2
13.715,4,0,1,1,1,0,3,1
13.72,1,1,0,0,3,3,2,1
13.725,2,2,0,1,3,0,1,2
13.73,1,1,1,0,1,0,1,2
13.735,1,2,0,1,3,1,2,1
13.74,1,2,1,0,0,0,1,4
13.745,3,2,2,0,1,1,2,1
13.75,0,3,1,2,1,3,2,1
13.755,3,1,2,1,1,0,2,0
13.76,2,0,3,2,3,3,3,1
13.765,1,2,1,1,2,1,0,2
13.77,3,1,0,1,0,0,1,3
13.775,5,0,2,1,0,3,1,3
13.78,4,1,0,2,2,0,0,3
13.785,6,0,3,1,2,0,3,5
13.79,3,1,2,1,2,3,1,2
13.795,7,5,1,0,2,1,3,6
13.8,1,2,1,0,0,1,1,1
13.805,1,2,1,3,2,0,2,2
13.81,1,3,3,3,2,1,0,0
13.815,4,1,3,0,1,2,1,1
13.82,0,2,0,1,2,0,2,1
13.825,3,0,0,1,0,0,1,3
13.83,5,0,0,1,0,2,4,2
13.835,0,0,2,2,2,1,1,1
13.84,5,0,1,2,2,1,1,2
13.845,2,2,0,0,2,1,0,0
13.85,2,1,2,3,1,2,4,1
13.855,3,2,3,1,2,0,0,0
13.86,0,1,2,2,0,1,3,2
13.865,1,1,3,0,1,2,3,1
13.87,1,3,2,2,2,0,1,1
13.875,2,1,0,1,0,0,0,0
13.88,2,2,0,1,1,1,1,1
13.885,2,1,0,1,3,4,4,1
13.89,1,1,3,0,2,2,2,5
13.895,1,0,0,0,1,0,1,2
13.9,1,0,0,1,1,0,0,1
13.905,1,1,1,3,0,2,1,0
13.91,8,0,2,1,1,2,2,3
13.915,4,1,0,0,1,3,4,3
13.92,2,2,3,1,1,1,1,0
13.925,1,2,1,1,2,0,1,0
13.93,2,1,1,1,0,1,2,1
13.935,5,2,1,2,2,1,3,4
13.94,1,0,2,1,2,1,0,0
13.945,1,0,1,1,3,1,1,1
13.95,2,1,2,3,3,2,2,2
13.955,3,0,1,1,0,2,1,3
13.96,2,1,0,0,1,5,2,3
13.965,0,2,3,2,2,1,0,1
13.97,1,1,1,1,1,2,2,0
13.975,3,1,1,1,0,2,2,3
13.98,3,2,3,3,1,1,2,2
13.985,2,1,0,1,0,2,1,3
13.99,4,1,1,0,1,3,2,1
13.995,1,1,2,2,2,1,1,1
14,2,0,1,0,1,1,1,0
14.005,2,2,1,2,2,0,4,2
14.01,1,3,1,2,1,1,1,0
14.015,3,1,1,0,0,1,1,2
14.02,0,2,0,2,1,1,1,2
14.025,2,2,1,0,1,1,2,1
14.03,0,1,2,0,3,2,3,5
14.035,4,1,2,2,1,2,3,3
14.04,0,2,1,1,1,2,3,2
14.045,1,0,1,2,0,2,3,1
14.05,1,0,1,0,2,2,2,0
14.055,0,2,0,3,0,2,1,0
14.06,3,1,1,1,3,0,3,3
14.065,1,3,0,1,1,1,0,1
14.07,0,1,1,0,1,2,0,0
14.075,1,0,2,2,1,2,0,4
14.08,1,1,0,0,2,3,3,3
14.085,2,1,3,1,0,2,1,3
14.09,2,2,1,0,2,1,2,5
14.095,2,1,0,1,1,0,1,1
14.1,0,1,2,2,0,0,3,0
14.105,1,0,1,2,3,2,1,1
14.11,1,1,0,0,0,0,1,0
14.115,1,1,2,1,3,2,0,2
14.12,3,2,1,0,1,1,0,1
14.125,2,1,1,0,1,1,2,3
14.13,0,1,3,5,2,2,0,1
14.135,1,1,2,1,2,1,1,1
14.14,0,2,1,1,1,1,1,1
14.145,2,1,3,2,3,0,3,4
14.15,0,1,2,2,0,2,2,4
14.155,1,2,1,1,1,1,1,2
14.16,0,1,1,3,3,1,1,0
14.165,1,3,1,1,0,3,2,0
14.17,1,3,2,2,1,4,3,1
14.175,1,3,2,1,1,1,2,1
14.18,1,1,2,1,2,3,0,3
14.185,1,2,0,0,3,1,2,1
14.19,0,1,2,0,1,1,2,0
14.195,2,2,2,2,0,0,1,1
14.2,0,0,1,0,0,1,2,0
14.205,0,0,1,2,0,1,1,2
14.21,1,2,1,2,2,2,2,1
14.215,3,1,1,2,1,0,0,2
14.22,0,0,2,2,2,3,1,3
14.225,2,2,3,1,0,1,1,2
14.23,3,1,2,0,2,0,4,0
14.235,0,1,2,1,0,2,1,1
14.24,3,4,3,2,1,0,4,0
14.245,0,0,1,1,2,3,2,3
14.25,1,2,0,0,2,0,0,2
14.255,0,2,1,2,1,1,3,0
14.26,2,1,0,1,2,2,2,3
14.265,8,1,3,1,0,1,4,7
14.27,7,0,2,4,3,2,1,1
14.275,1,0,0,1,0,0,1,2
14.28,1,1,1,0,1,0,3,3
14.285,3,0,2,0,1,1,0,1
14.29,3,2,1,1,2,2,1,3
14.295,2,1,0,2,2,0,0,2
14.3,2,2,0,0,1,1,0,0
14.305,1,2,0,2,3,1,0,0
14.31,2,1,2,1,0,4,6,4
14.315,1,3,2,1,1,1,2,0
14.32,2,1,2,0,1,1,1,1
14.325,1,1,1,0,0,3,0,2
14.33,0,0,2,1,1,1,0,1
14.335,4,2,0,2,3,2,2,3
14.34,1,1,2,2,2,3,6,4
14.345,1,0,1,0,2,1,2,2
14.35,3,3,2,1,1,4,1,2
14.355,1,1,1,1,1,1,1,1
14.36,0,0,1,0,2,1,4,1
14.365,1,2,2,2,1,4,6,3
14.37,5,1,1,1,1,1,1,1
14.375,1,2,4,3,2,2,2,1
14.38,0,1,2,2,1,2,0,0
14.385,2,1,4,4,2,0,0,1
14.39,1,0,0,0,0,0,1,1
14.395,3,1,1,1,0,4,2,0
14.4,2,2,2,3,0,0,0,1
14.405,0,0,1,1,3,2,1,1
14.41,5,2,0,1,2,1,2,3
14.415,1,3,2,0,1,2,2,3
14.42,0,1,2,0,0,2,2,1
14.425,1,2,1,1,0,0,2,3
14.43,1,0,1,2,2,1,2,0
14.435,2,2,1,2,3,2,2,3
14.44,0,0,2,3,4,2,2,0
14.445,1,3,2,1,1,1,2,3
14.45,1,2,1,0,1,1,2,1
14.455,2,2,0,0,1,0,1,1
14.46,2,1,1,0,2,1,1,2
14.465,1,1,0,0,0,3,1,2
14.47,1,2,4,1,1,1,3,2
14.475,1,1,1,0,2,2,1,1
14.48,0,1,2,1,1,0,1,1
14.485,1,0,2,0,0,0,2,3
14.49,2,0,2,1,1,1,2,2
14.495,1,1,1,1,1,1,2,4
14.5,2,1,1,2,0,1,0,1
14.505,1,1,3,2,2,1,1,0
14.51,1,2,1,1,1,1,0,2
14.515,6,1,0,0,1,1,3,2
14.52,2,1,1,0,3,2,0,0
14.525,2,0,2,1,1,1,3,4
14.53,0,0,2,0,2,2,1,2
14.535,5,1,1,0,1,1,0,4
14.54,1,2,2,0,1,1,0,1
14.545,0,1,1,1,1,2,1,0
14.55,4,1,0,0,2,1,2,2
14.555,2,0,1,1,1,1,1,1
14.56,1,0,1,1,1,4,3,1
14.565,1,1,0,0,1,1,1,1
14.57,1,1,0,1,0,2,3,2
14.575,0,1,1,2,2,0,1,0
14.58,1,2,1,2,1,1,4,2
14.585,2,1,0,1,1,1,2,2
14.59,0,2,2,1,1,0,0,0
14.595,2,1,2,2,2,0,0,2
14.6,3,0,2,4,1,1,2,3
14.605,0,1,1,1,1,2,1,1
14.61,2,1,1,2,2,3,1,1
14.615,0,1,2,1,1,0,0,0
14.62,0,2,1,1,1,0,0,1
14.625,1,0,3,1,1,2,2,0
14.63,0,3,1,0,1,2,0,2
14.635,3,2,1,2,2,1,1,3
14.64,2,1,0,0,0,1,1,0
14.645,0,3,2,1,1,0,0,0
14.65,3,0,1,1,0,2,0,1
14.655,1,1,1,2,0,1,4,2
14.66,1,1,1,1,1,1,2,2
14.665,0,2,1,3,4,3,4,2
14.67,6,2,1,1,0,1,0,4
14.675,3,1,0,0,1,1,1,2
14.68,2,2,1,0,1,1,2,2
14.685,0,0,0,1,1,0,0,1
14.69,3,1,3,3,2,3,0,2
14.695,8,1,0,1,0,2,0,3
14.7,6,0,0,2,2,3,2,3
14.705,3,2,1,1,2,1,3,4
14.71,1,0,0,1,2,3,0,1
14.715,2,2,2,1,1,3,1,0
14.72,3,2,1,1,1,3,1,2
14.725,1,3,1,0,2,0,1,1
14.73,1,0,0,1,0,3,1,1
14.735,3,2,2,2,1,0,3,2
14.74,4,1,0,3,2,1,0,2
14.745,1,1,2,2,1,2,1,2
14.75,1,2,2,1,2,0,2,1
14.755,0,0,3,0,2,1,0,1
14.76,2,1,2,2,2,1,2,1
14.765,1,2,2,1,0,1,2,1
14.77,6,1,1,2,1,2,0,2
14.775,8,0,1,3,2,3,2,4
14.78,1,2,2,2,2,0,1,1
14.785,0,1,2,0,0,1,0,1
14.79,1,2,2,1,1,0,0,1
14.795,2,2,0,2,2,2,3,2
14.8,2,0,0,0,0,1,1,0
14.805,1,1,2,2,1,2,1,1
14.81,3,2,1,2,2,1,2,0
14.815,1,2,0,0,2,1,1,1
14.82,0,2,2,0,3,1,0,3
14.825,3,1,1,1,1,3,3,1
14.83,0,1,1,0,1,0,1,2
14.835,2,2,1,2,0,2,2,2
14.84,3,3,2,1,1,2,1,1
14.845,1,1,3,4,4,3,1,2
14.85,4,0,1,0,1,0,1,3
14.855,4,2,1,2,2,0,2,5
14.86,0,1,1,0,1,2,2,1
14.865,1,2,2,3,1,0,0,0
14.87,0,1,1,3,1,4,3,3
14.875,2,2,2,1,1,1,1,3
14.88,2,3,1,1,0,0,1,0
14.885,2,0,0,1,1,1,1,4
14.89,2,1,1,0,2,1,5,0
14.895,2,2,0,1,0,1,2,1
14.9,2,2,0,0,2,1,1,2
14.905,4,1,0,2,1,2,1,1
14.91,1,2,4,2,2,2,5,2
14.915,2,2,2,2,1,2,1,2
14.92,2,1,2,1,2,1,1,1
14.925,1,1,1,1,0,1,0,1
14.93,0,2,0,1,0,1,1,2
14.935,9,1,2,2,1,2,1,4
14.94,6,0,0,2,4,1,1,5
14.945,1,1,2,2,3,1,3,1
14.95,1,1,0,1,1,4,2,3
14.955,2,1,1,1,1,1,1,2
14.96,2,0,2,0,1,2,4,3
14.965,2,0,2,0,1,1,0,2
14.97,2,2,3,2,1,0,2,2
14.975,1,3,2,1,1,2,3,3
14.98,2,0,0,0,0,0,1,2
14.985,3,1,1,0,1,0,2,0
14.99,5,1,0,1,3,2,4,5
14.995,0,0,3,2,3,3,3,4
15,2,1,3,1,2,1,2,1
15.005,1,2,2,2,3,1,1,1
15.01,2,1,0,1,2,2,3,0
15.015,1,0,1,2,1,1,1,1
15.02,0,1,0,1,2,1,5,3
15.025,2,2,0,1,2,0,3,0
15.03,1,1,1,3,3,1,1,0
15.035,0,1,1,2,2,2,1,1
15.04,2,1,2,0,1,1,0,0
15.045,2,2,1,1,2,1,0,3
15.05,2,0,1,1,1,1,4,0
15.055,1,3,3,0,0,3,0,2
15.06,1,1,1,0,2,1,0,1
15.065,3,2,0,2,2,4,3,0
15.07,4,2,1,1,1,1,2,0
15.075,0,1,3,1,1,1,0,1
15.08,3,2,1,0,0,0,2,1
15.085,1,0,0,3,2,2,4,2
15.09,1,1,0,3,3,0,1,0
15.095,4,1,0,2,2,1,2,2
15.1,0,2,3,1,0,1,1,1
15.105,1,0,1,1,1,0,1,2
15.11,2,2,0,0,0,2,2,1
15.115,1,1,1,1,0,2,4,3
15.12,1,1,2,2,1,1,0,1
15.125,2,2,3,3,1,0,2,1
15.13,0,0,1,0,2,1,1,0
15.135,0,1,1,1,2,1,4,2
15.14,1,2,1,1,2,1,0,1
15.145,2,1,1,2,0,0,0,0
15.15,4,3,3,1,2,3,1,2
15.155,2,1,1,2,0,1,1,1
15.16,3,1,3,3,0,1,2,2
15.165,2,0,0,0,2,0,4,0
15.17,0,2,2,1,2,0,0,1
15.175,5,2,0,1,2,1,1,1
15.18,0,1,2,3,3,1,2,1
15.185,3,1,1,0,2,1,0,2
15.19,1,1,1,1,1,0,1,1
15.195,3,3,2,1,0,0,1,0
15.2,2,0,2,2,1,2,4,3
15.205,3,2,0,1,1,1,0,1
15.21,3,2,0,0,2,0,1,2
15.215,1,1,1,3,3,1,0,0
15.22,0,1,1,1,0,0,1,1
15.225,1,0,0,1,1,1,1,1
15.23,3,2,1,1,3,2,3,1
15.235,0,3,4,1,0,0,2,0
15.24,5,3,1,1,0,1,4,4
15.245,5,2,1,1,1,1,0,1
15.25,0,2,2,1,0,1,1,0
15.255,1,0,1,2,0,3,5,2
15.26,1,1,1,3,4,1,0,3
15.265,3,1,0,1,2,1,1,0
15.27,2,2,2,1,1,1,0,0
15.275,2,1,1,2,1,2,3,1
15.28,2,1,1,2,0,1,1,1
15.285,6,2,3,3,3,0,1,2
15.29,1,0,2,1,1,1,4,2
15.295,0,2,0,0,0,0,0,1
15.3,1,1,1,1,1,2,0,1
15.305,1,1,2,1,1,1,1,2
15.31,2,3,3,1,1,1,0,2
15.315,4,0,3,2,3,2,2,0
15.32,0,0,1,1,1,0,1,1
15.325,3,2,0,1,1,3,2,0
15.33,3,2,1,2,2,3,0,6
15.335,0,1,1,1,2,0,2,1
15.34,0,3,2,0,3,0,3,1
15.345,1,2,0,0,0,1,2,1
15.35,0,0,1,0,1,4,4,1
15.355,0,1,1,1,2,2,4,1
15.36,1,2,2,0,0,1,2,2
15.365,1,3,1,2,2,2,2,0
15.37,2,1,2,1,1,2,3,0
15.375,0,0,0,1,2,1,2,2
15.38,3,1,1,1,0,2,3,3
15.385,1,1,2,1,0,2,1,1
15.39,0,0,0,0,2,2,0,2
15.395,2,2,1,1,1,0,0,1
15.4,1,3,0,1,1,3,0,0
15.405,2,0,1,1,2,2,6,3
15.41,1,0,1,0,1,0,0,0
15.415,3,1,2,1,1,4,3,2
15.42,4,1,1,2,0,1,1,1
15.425,0,2,1,1,1,2,1,0
15.43,0,3,2,2,2,1,3,0
15.435,5,2,0,1,2,2,3,1
15.44,2,1,0,2,1,1,1,1
15.445,4,0,1,2,1,1,1,1
15.45,1,1,2,2,1,2,0,1
15.455,2,1,2,3,1,1,0,3
15.46,0,2,1,1,1,0,3,1
15.465,1,1,1,1,3,2,1,1
15.47,2,0,1,1,1,2,2,6
15.475,2,1,2,1,1,1,1,1
15.48,0,1,2,2,0,0,0,1
15.485,1,1,3,1,1,2,0,2
15.49,2,3,2,2,2,1,4,1
15.495,1,0,0,2,3,2,2,1
15.5,0,0,0,2,3,0,2,0
15.505,3,1,1,0,1,2,0,3
15.51,1,1,1,0,0,1,0,1
15.515,1,1,1,1,0,1,1,0
15.52,1,1,1,1,1,0,2,1
15.525,2,1,1,2,3,2,1,1
15.53,4,0,1,0,0,1,1,3
15.535,5,1,0,1,1,1,3,2
15.54,2,1,2,2,1,2,2,1
15.545,0,3,1,3,1,1,1,2
15.55,3,1,0,0,0,1,3,0
15.555,0,3,1,1,1,3,2,1
15.56,6,1,3,2,2,2,1,6
15.565,8,0,1,3,3,2,0,3
15.57,1,2,4,2,1,1,0,1
15.575,3,1,1,2,1,2,2,3
15.58,0,2,2,1,1,1,2,1
15.585,3,2,1,1,1,0,0,4
15.59,0,0,1,1,2,2,4,1
15.595,1,1,1,2,2,1,2,1
15.6,1,2,1,0,0,2,3,1
15.605,3,2,1,2,2,2,4,4
15.61,2,1,2,1,2,0,0,0
15.615,6,4,2,0,1,1,0,2
15.62,1,1,0,2,1,1,1,1
15.625,1,1,2,2,1,3,2,1
15.63,0,1,1,1,1,3,1,0
15.635,0,2,1,3,1,1,4,6
15.64,2,1,2,1,1,2,1,1
15.645,4,0,2,1,0,0,0,1
15.65,1,2,2,1,1,1,1,0
15.655,1,0,1,1,1,1,3,2
15.66,1,3,1,0,0,0,1,1
15.665,4,1,1,2,1,2,4,4
15.67,0,0,1,1,2,2,1,2
15.675,0,0,1,2,1,1,1,2
15.68,2,1,1,2,1,2,3,1
15.685,0,2,1,0,3,2,2,2
15.69,4,2,3,2,1,2,1,2
15.695,2,2,1,2,1,1,1,2
15.7,0,2,3,1,4,4,0,0
15.705,3,1,1,1,1,2,1,2
15.71,1,0,1,2,1,1,1,1
15.715,1,2,2,1,1,0,1,0
15.72,1,0,0,0,1,4,3,4
15.725,2,1,1,1,3,0,1,0
15.73,2,1,2,1,2,1,2,0
15.735,2,0,0,1,2,1,0,2
15.74,1,1,1,1,2,3,2,1
15.745,1,1,3,2,1,1,2,1
15.75,1,1,1,1,2,1,1,0
15.755,2,0,1,1,1,1,0,1
15.76,2,2,4,3,2,1,3,1
15.765,2,1,2,1,1,0,4,2
15.77,2,2,1,1,1,3,6,4
15.775,3,0,1,2,2,2,0,2
15.78,4,3,3,3,1,2,2,0
15.785,1,1,2,2,0,2,3,2
15.79,0,1,0,0,0,1,1,0
15.795,6,2,0,1,0,2,4,6
15.8,4,0,2,3,3,3,1,4
15.805,1,0,1,3,2,2,1,2
15.81,1,1,0,0,1,1,2,0
15.815,0,2,1,0,1,0,1,1
15.82,4,1,2,1,1,1,2,1
15.825,1,2,0,0,2,2,1,1
15.83,3,2,2,1,2,2,0,3
15.835,4,1,2,0,1,2,0,3
15.84,1,1,0,1,2,0,1,1
15.845,1,1,1,2,2,2,0,0
15.85,3,1,2,0,1,0,0,2
15.855,0,0,2,2,1,1,2,2
15.86,3,2,0,2,2,0,1,1
15.865,2,2,4,1,2,3,2,3
15.87,2,2,0,2,1,1,2,0
15.875,1,0,1,1,0,2,2,0
15.88,2,0,1,0,0,1,3,2
15.885,0,0,1,0,2,0,0,0
15.89,6,2,0,0,2,2,1,4
15.895,7,0,3,3,3,1,3,3
15.9,2,1,3,1,2,2,4,2
15.905,2,1,2,1,1,2,1,0
15.91,0,1,2,3,2,0,4,1
15.915,2,1,1,1,1,1,3,2
15.92,3,2,1,1,1,0,0,1
15.925,1,2,1,2,2,2,1,0
15.93,0,3,3,1,1,0,1,1
15.935,1,1,1,2,1,5,1,1
15.94,0,2,0,1,2,1,1,0
15.945,3,0,1,2,2,2,3,2
15.95,0,1,2,1,2,2,0,0
15.955,3,2,1,1,3,3,2,0
15.96,1,2,2,0,2,1,1,1
15.965,1,1,0,0,0,1,1,1
15.97,1,1,0,1,3,3,3,1
15.975,2,2,0,2,2,0,2,4
15.98,1,2,2,1,0,3,0,4
15.985,4,2,0,1,2,0,1,1
15.99,1,1,2,1,1,1,1,1
15.995,3,0,2,2,1,1,1,1
16,1,1,1,1,0,1,4,1
16.005,0,3,3,1,1,2,1,0
16.01,2,3,3,2,3,2,3,1
16.015,1,1,0,0,2,1,0,0
16.02,2,0,1,2,1,1,0,1
16.025,4,0,1,1,1,1,1,2
16.03,1,1,1,2,0,2,1,3
16.035,1,0,2,1,2,0,0,0
16.04,1,1,1,1,2,0,1,1
16.045,1,2,1,2,2,2,1,1
16.05,3,3,3,3,2,3,3,1
16.055,5,2,2,0,1,0,0,3
16.06,0,1,1,2,0,1,2,1
16.065,2,1,1,2,2,1,4,3
16.07,1,1,1,1,2,1,1,2
16.075,0,3,1,0,0,2,1,1
16.08,1,1,2,0,2,2,3,4
16.085,1,0,0,2,0,1,1,1
16.09,0,1,1,2,1,1,1,0
16.095,0,2,1,1,0,2,1,0
16.1,1,2,2,0,2,1,2,2
16.105,0,1,3,3,2,2,2,2
16.11,2,1,2,1,0,1,0,1
16.115,1,2,0,0,2,1,1,0
16.12,4,3,1,1,0,2,2,3
16.125,3,0,0,2,0,2,0,1
16.13,10,1,0,3,3,1,1,6
16.135,7,3,1,2,2,5,3,5
16.14,2,0,0,2,0,2,1,1
16.145,0,2,2,1,1,0,0,1
16.15,2,1,1,0,0,1,2,1
16.155,6,1,0,1,0,0,2,5
16.16,2,1,1,2,2,1,2,1
16.165,1,1,3,3,1,0,1,2
16.17,2,1,1,0,0,1,0,1
16.175,6,0,0,1,0,3,1,4
16.18,1,1,1,1,1,2,1,1
16.185,2,1,0,1,2,0,2,2
16.19,1,0,2,0,1,0,2,2
16.195,1,1,2,0,0,1,1,1
16.2,3,2,4,2,3,1,0,3
16.205,2,2,1,1,2,0,0,1
16.21,1,1,3,2,2,2,4,0
16.215,0,0,0,0,1,1,1,2
16.22,2,2,1,1,1,1,1,2
16.225,5,1,0,0,2,1,0,6
16.23,10,0,0,2,1,2,0,10
16.235,0,2,0,3,3,0,3,2
16.24,2,1,2,3,1,2,1,1
16.245,3,0,1,0,2,1,0,0
16.25,1,1,1,1,4,3,1,3
16.255,1,1,2,1,1,0,1,3
16.26,1,0,0,1,1,0,2,1
16.265,2,2,1,1,2,3,1,3
16.27,2,1,1,2,3,2,2,3
16.275,1,1,0,1,2,0,1,0
16.28,2,2,3,0,2,3,1,3
16.285,1,2,1,2,2,3,1,1
16.29,2,2,3,2,2,2,4,2
16.295,1,0,1,1,2,4,0,0
16.3,1,0,0,1,2,0,1,2
16.305,2,1,0,2,0,2,2,1
16.31,3,4,0,0,0,2,1,1
16.315,3,1,3,1,2,1,1,3
16.32,0,0,1,0,1,2,0,1
16.325,1,2,2,2,0,1,4,1
16.33,8,1,1,0,1,3,3,4
16.335,1,1,2,1,0,1,1,1
16.34,3,2,1,2,2,1,3,1
16.345,1,1,0,0,1,1,0,0
16.35,2,1,0,0,1,1,2,0
16.355,0,1,3,1,1,0,0,1
16.36,2,3,2,1,2,2,1,2
16.365,2,1,0,1,1,0,3,1
16.37,1,1,1,0,1,0,0,2
16.375,2,1,1,1,1,1,2,1
16.38,1,3,0,1,0,1,3,1
16.385,2,1,3,1,2,1,2,1
16.39,1,1,0,0,2,2,2,0
16.395,4,1,1,3,1,0,0,3
16.4,1,1,1,2,3,2,0,0
16.405,3,1,2,3,1,1,4,5
16.41,2,2,3,0,1,0,1,5
16.415,0,3,0,1,2,2,2,0
16.42,2,1,0,2,0,2,1,2
16.425,3,0,1,1,2,1,2,0
16.43,0,1,2,1,2,2,1,1
16.435,7,2,0,2,1,1,0,4
16.44,2,2,0,1,2,0,1,0
16.445,3,1,0,1,1,1,1,0
16.45,3,2,0,1,1,1,0,0
16.455,5,2,1,4,2,2,4,2
16.46,2,1,2,1,3,0,1,0
16.465,4,2,2,1,1,2,0,1
16.47,2,0,1,0,2,0,0,2
16.475,0,0,2,0,1,0,0,1
16.48,0,2,1,0,1,0,3,1
16.485,1,1,1,1,0,1,0,2
16.49,0,1,0,1,2,0,1,4
16.495,1,0,0,2,3,0,1,1
16.5,1,0,3,1,1,1,1,0
16.505,0,2,2,0,2,0,0,2
16.51,3,2,3,1,0,3,0,0
16.515,1,1,1,2,1,2,1,1
16.52,1,2,1,1,0,2,0,0
16.525,1,1,1,1,4,2,5,2
16.53,4,2,0,1,2,1,1,2
16.535,1,0,3,0,1,0,1,1
16.54,3,1,0,1,1,0,0,3
16.545,1,2,2,3,1,1,1,1
16.55,2,1,1,2,2,3,3,2
16.555,5,1,0,1,1,0,2,0
16.56,2,1,2,1,1,1,2,2
16.565,1,1,2,0,0,1,1,2
16.57,2,1,1,1,0,1,1,0
16.575,1,1,1,2,1,1,1,0
16.58,0,1,0,2,0,1,1,2
16.585,3,3,1,0,1,1,0,1
16.59,0,0,1,1,1,1,0,2
16.595,0,0,0,1,1,1,2,1
16.6,2,1,1,2,1,2,2,4
16.605,7,3,1,2,2,1,2,4
16.61,13,2,2,3,0,1,2,7
16.615,2,1,0,1,1,3,3,2
16.62,1,1,2,0,1,2,1,1
16.625,3,2,0,4,5,3,4,4
16.63,6,4,12,18,6,4,1,3
16.635,1,2,2,1,2,1,1,0
16.64,1,1,0,3,1,0,1,2
16.645,2,0,0,1,0,1,1,1
16.65,3,1,1,4,2,0,0,3
16.655,1,1,1,4,3,1,0,2
16.66,3,2,1,1,1,1,1,3
16.665,1,2,0,0,1,2,1,0
16.67,1,1,1,1,1,2,1,1
16.675,2,1,3,1,0,1,1,0
16.68,0,0,1,1,1,1,0,1
16.685,4,1,2,1,2,3,1,1
16.69,3,2,0,0,0,1,0,3
16.695,2,0,1,1,2,1,1,1
16.7,1,4,0,1,2,2,1,2
16.705,4,0,3,3,0,1,1,3
16.71,5,1,1,1,2,5,2,3
16.715,7,1,0,0,1,1,1,5
16.72,0,1,0,1,1,0,1,1
16.725,0,4,4,7,6,3,3,2
16.73,5,1,1,0,2,1,4,3
16.735,1,1,1,1,4,1,8,10
16.74,0,2,1,3,0,1,1,2
16.745,3,1,1,0,2,1,2,1
16.75,5,0,1,0,2,1,2,2
16.755,3,1,2,2,2,2,1,2
16.76,2,3,1,1,1,3,3,3
16.765,2,0,0,1,0,1,2,2
16.77,1,1,1,0,3,1,1,4
16.775,2,3,2,4,0,0,2,1
16.78,1,3,3,1,4,2,3,3
16.785,5,0,0,1,1,0,1,2
16.79,8,0,1,1,2,1,1,3
16.795,2,1,1,1,0,2,1,0
16.8,0,1,1,2,2,3,0,0
16.805,3,1,0,1,2,1,1,1
16.81,3,1,1,1,2,2,3,4
16.815,1,2,2,0,3,2,1,0
16.82,2,3,1,1,1,0,3,0
16.825,1,0,3,2,2,2,1,1
16.83,2,2,1,1,2,1,2,2
16.835,7,1,0,1,0,0,0,2
16.84,7,4,2,1,0,1,1,1
16.845,2,2,0,1,1,1,1,0
16.85,5,1,3,3,2,1,3,1
16.855,2,0,1,1,1,2,1,0
16.86,5,1,0,0,0,0,2,5
16.865,4,0,0,0,1,1,0,0
16.87,0,1,4,3,3,2,4,5
16.875,0,0,1,1,0,2,2,0
16.88,3,2,2,1,0,0,0,2
16.885,0,4,1,0,3,3,3,1
16.89,5,0,1,1,0,3,0,5
16.895,2,1,3,2,5,2,1,1
16.9,1,1,3,2,1,1,2,2
16.905,2,3,1,0,1,0,1,1
16.91,3,1,1,1,1,2,3,2
16.915,1,3,1,0,1,0,3,0
16.92,3,0,0,1,1,2,1,1
16.925,0,2,1,2,2,0,3,2
16.93,1,2,1,1,1,1,5,2
16.935,3,2,2,0,0,1,2,1
16.94,3,1,0,3,1,1,1,1
16.945,1,0,0,2,2,0,2,0
16.95,4,0,2,1,2,0,0,1
16.955,1,0,1,2,3,2,4,2
16.96,2,0,1,1,0,2,3,1
16.965,4,1,1,1,1,1,1,3
16.97,5,2,1,1,1,0,0,2
16.975,5,1,1,1,1,4,3,2
16.98,3,0,3,1,4,2,3,3
16.985,2,1,0,1,3,2,1,0
16.99,5,2,1,0,2,1,1,4
16.995,2,3,2,2,2,2,0,1
17,2,1,2,2,2,1,1,2
17.005,1,1,2,2,0,1,3,1
17.01,2,0,1,0,0,0,1,0
17.015,1,1,0,0,1,0,0,1
17.02,1,0,1,0,1,1,0,1
17.025,6,3,2,0,1,0,1,2
17.03,7,0,1,2,1,1,1,7
17.035,2,0,1,1,2,1,3,2
17.04,3,2,2,5,3,2,0,1
17.045,7,1,0,0,0,1,1,4
17.05,4,4,2,7,4,4,2,1
17.055,10,1,3,6,2,1,2,5
17.06,10,2,1,3,2,1,2,3
17.065,0,0,4,6,2,2,0,3
17.07,2,2,2,2,1,2,0,3
17.075,3,0,1,3,1,1,3,0
17.08,2,1,0,1,0,2,0,2
17.085,7,0,1,0,1,3,3,0
17.09,0,0,1,5,1,0,3,1
17.095,3,4,4,6,1,1,0,4
17.1,8,3,0,0,1,1,2,5
17.105,5,0,0,4,2,2,0,6
17.11,3,1,4,10,1,0,3,8
17.115,2,2,4,7,6,0,1,1
17.12,5,2,1,3,2,2,2,2
17.125,12,2,5,5,1,1,1,7
17.13,14,2,1,1,1,2,3,0
17.135,1,1,0,1,1,0,1,0
17.14,0,1,2,1,1,0,2,3
17.145,3,1,2,3,2,2,1,1
17.15,6,2,2,2,1,1,0,3
17.155,4,1,0,1,0,0,1,6
17.16,8,2,5,7,5,5,6,3
17.165,2,0,0,1,1,1,1,0
17.17,4,0,1,3,3,0,3,0
17.175,4,0,1,1,0,2,2,1
17.18,11,0,0,1,1,0,1,3
17.185,0,3,4,0,2,2,5,5
17.19,6,1,1,5,1,1,1,0
17.195,1,1,5,10,2,0,1,1
17.2,3,4,7,11,8,3,0,2
17.205,0,2,1,1,1,1,1,1
17.21,3,1,1,3,1,0,3,2
17.215,9,0,1,2,1,2,3,7
17.22,10,0,1,2,2,6,13,14
17.225,6,1,0,0,2,3,1,2
17.23,3,2,4,3,2,2,0,5
17.235,5,2,3,4,0,1,3,4
17.24,8,1,1,0,1,3,4,2
17.245,0,1,1,2,2,2,10,9
17.25,2,1,1,0,0,1,7,10
17.255,3,4,4,7,4,2,3,2
17.26,4,2,1,2,3,1,11,22
17.265,6,1,1,5,1,0,13,21
17.27,17,5,4,4,4,5,19,30
17.275,8,0,2,5,4,4,15,28
17.28,3,1,1,4,1,1,3,4
17.285,4,4,5,6,0,1,1,9
17.29,4,1,3,4,0,0,1,1
17.295,5,4,1,6,2,2,13,4
17.3,17,1,3,6,0,0,11,21
17.305,6,3,4,2,3,1,11,3
17.31,4,1,3,4,2,3,1,3
17.315,2,2,3,1,2,6,9,21
17.32,7,1,4,6,2,1,4,3
17.325,6,7,0,11,5,3,5,1
17.33,1,8,2,4,8,3,2,3
17.335,3,2,0,1,4,1,8,7
17.34,2,0,3,4,1,3,1,7
17.345,3,3,3,7,3,1,3,21
17.35,7,5,3,4,7,3,1,1
17.355,25,5,10,10,2,1,9,4
17.36,3,4,1,3,2,2,10,8
17.365,29,0,1,6,4,5,7,1
17.37,26,1,0,3,1,1,1,12
17.375,11,3,3,3,2,4,0,8
17.38,6,6,7,9,5,1,1,9
17.385,18,3,8,7,6,1,4,7
17.39,40,4,3,4,4,3,3,15
17.395,6,1,6,9,2,1,9,1
17.4,9,7,16,14,2,2,1,9
17.405,12,5,0,7,1,2,1,1
17.41,7,1,1,2,2,1,2,2
17.415,24,6,4,7,1,0,2,16
17.42,6,0,3,0,2,4,6,5
17.425,3,0,4,11,1,1,0,10
17.43,11,3,10,16,4,3,1,13
17.435,22,0,5,3,3,1,5,18
17.44,10,0,2,3,5,1,2,2
17.445,13,9,6,4,4,4,3,1
17.45,3,5,2,3,3,0,0,1
17.455,16,2,5,6,2,1,1,5
17.46,5,1,0,3,2,1,1,1
17.465,2,0,2,1,0,1,1,0
17.47,3,1,2,6,2,1,1,3
17.475,14,4,6,7,6,3,4,10
17.48,1,3,6,5,2,4,2,6
17.485,28,4,3,5,5,1,1,17
17.49,9,4,1,3,1,1,1,5
17.495,3,1,2,3,1,0,1,5
17.5,3,0,0,4,2,1,3,6
17.505,10,1,2,3,1,1,0,4
17.51,9,2,1,2,0,3,1,3
17.515,6,5,3,3,3,1,1,4
17.52,11,3,2,3,4,1,0,2
17.525,2,3,3,6,1,3,1,3
17.53,10,3,8,10,2,1,3,3
17.535,1,0,1,3,1,1,1,2
17.54,8,1,0,0,1,1,2,3
17.545,24,3,0,4,3,1,0,1
17.55,33,7,3,1,3,4,11,8
17.555,0,0,2,1,1,1,3,1
17.56,4,2,7,7,3,0,0,1
17.565,9,2,3,8,4,0,1,2
17.57,10,2,3,6,5,1,0,1
17.575,4,1,3,2,2,3,5,0
17.58,21,2,1,0,2,2,2,18
17.585,6,0,0,1,0,1,1,3
17.59,0,2,1,1,0,1,3,2
17.595,13,1,2,1,1,1,3,3
17.6,31,0,4,1,3,3,3,2
17.605,13,4,8,6,3,2,1,1
17.61,10,3,0,0,2,2,1,3
17.615,7,0,2,3,1,1,0,1
17.62,4,3,6,4,2,4,3,8
17.625,0,1,1,3,1,3,5,2
17.63,5,4,4,5,3,2,1,2
17.635,5,2,1,1,0,1,1,1
17.64,2,2,1,3,1,1,4,6
17.645,5,1,2,1,1,0,2,4
17.65,4,0,2,2,1,1,1,4
17.655,5,2,1,0,2,1,0,4
17.66,17,1,1,3,2,0,0,7
17.665,13,1,1,1,1,0,3,1
17.67,6,2,0,0,0,0,3,7
17.675,19,1,1,0,2,1,1,4
17.68,7,3,1,1,1,2,4,1
17.685,10,3,5,7,3,3,1,3
17.69,2,0,1,0,2,2,1,4
17.695,0,3,2,1,1,1,1,3
17.7,9,4,1,3,1,2,7,16
17.705,6,1,0,0,2,2,6,8
17.71,1,3,2,1,1,0,2,1
17.715,3,1,1,0,0,3,3,3
17.72,9,4,5,3,1,0,0,2
17.725,9,3,1,3,3,1,3,0
17.73,3,1,0,0,1,0,4,7
17.735,0,0,1,2,0,0,3,2
17.74,2,3,2,0,2,1,1,5
17.745,9,1,1,0,0,0,2,6
17.75,0,0,0,1,2,2,1,2
17.755,2,0,5,6,3,1,5,5
17.76,4,3,1,1,2,1,4,3
17.765,9,3,2,1,2,1,4,6
17.77,1,1,1,1,2,3,2,0
17.775,4,1,1,2,1,2,1,2
17.78,8,2,2,2,4,3,3,0
17.785,6,0,1,1,1,1,1,2
17.79,2,2,2,0,0,1,1,1
17.795,1,1,1,1,1,2,0,1
17.8,1,3,1,2,1,2,1,2
17.805,3,0,0,4,3,1,1,1
17.81,3,0,1,2,2,1,3,3
17.815,1,4,0,5,5,3,5,2
17.82,2,4,0,1,1,1,3,3
17.825,4,2,2,3,1,1,4,5
17.83,2,2,2,1,2,5,8,6
17.835,0,5,7,2,5,1,4,5
17.84,8,2,5,5,1,1,3,1
17.845,7,1,1,0,0,2,2,11
17.85,3,1,5,2,2,1,1,4
17.855,5,1,0,6,0,1,4,4
17.86,8,0,1,0,3,3,3,4
17.865,22,2,2,0,2,0,1,1
17.87,28,6,1,3,2,0,0,4
17.875,3,4,4,5,1,3,5,5
17.88,0,1,1,1,2,0,1,2
17.885,4,1,3,2,1,1,2,0
17.89,10,1,1,0,1,1,1,1
17.895,7,3,4,2,1,0,1,1
17.9,4,3,1,0,0,0,0,2
17.905,7,1,1,1,1,2,2,3
17.91,10,4,5,3,4,2,5,15
17.915,5,0,1,1,0,1,3,0
17.92,6,1,2,2,2,1,3,1
17.925,7,3,1,1,4,1,0,1
17.93,2,2,5,2,0,0,2,3
17.935,13,2,2,2,0,1,2,3
17.94,3,0,2,0,1,2,0,3
17.945,21,2,1,4,1,4,4,5
17.95,7,0,4,3,2,1,2,4
17.955,7,3,2,1,1,2,2,5
17.96,2,3,1,4,3,0,0,5
17.965,4,3,1,2,0,0,2,3
17.97,5,3,2,1,3,1,2,2
17.975,7,3,1,3,0,1,1,2
17.98,4,2,1,0,2,2,0,0
17.985,3,1,1,5,1,3,2,3
17.99,5,3,4,2,3,1,3,1
17.995,1,1,1,1,1,0,0,1
18,4,2,3,0,2,1,0,0
18.005,2,1,2,5,3,4,4,2
18.01,0,0,0,0,1,1,4,0
18.015,4,2,0,1,2,2,0,3
18.02,1,1,1,1,1,2,2,2
18.025,1,3,7,2,1,1,0,0
18.03,2,5,1,3,1,3,0,1
18.035,3,2,0,1,4,0,3,5
18.04,4,3,4,2,2,2,2,2
18.045,0,2,3,1,2,2,3,1
18.05,1,0,1,1,2,0,1,1
18.055,6,2,4,2,0,1,0,3
18.06,0,3,1,2,1,3,2,1
18.065,1,3,2,0,0,0,0,2
18.07,1,0,3,3,2,1,2,1
18.075,2,1,1,2,1,3,2,2
18.08,0,2,2,6,4,0,2,1
18.085,2,2,1,3,2,0,1,1
18.09,2,1,1,2,2,0,3,2
18.095,3,1,3,2,1,0,1,0
18.1,3,3,0,2,3,3,3,3
18.105,0,1,2,4,3,2,1,1
18.11,2,2,2,0,1,1,2,1
18.115,5,4,4,3,2,3,3,4
18.12,0,7,2,3,2,1,0,2
18.125,3,1,0,3,2,1,2,0
18.13,3,1,4,5,0,1,0,2
18.135,6,8,5,5,6,1,3,2
18.14,2,0,0,1,2,0,0,2
18.145,3,2,1,10,3,3,4,2
18.15,1,1,3,14,1,2,0,1
18.155,2,1,1,2,1,1,1,0
18.16,0,0,2,3,1,1,1,1
18.165,4,2,3,2,0,2,1,0
18.17,1,3,3,3,3,0,1,0
18.175,1,2,2,4,2,2,1,2
18.18,1,3,0,6,2,1,3,4
18.185,0,3,2,0,2,1,0,0
18.19,1,2,3,7,2,2,1,0
18.195,3,1,1,1,3,1,1,1
18.2,2,3,2,6,2,1,3,1
18.205,1,0,1,4,3,7,3,3
18.21,1,3,4,4,1,2,4,3
18.215,1,1,0,2,1,2,3,2
18.22,1,0,0,4,1,3,3,2
18.225,1,3,0,7,3,5,4,3
18.23,0,1,4,6,5,2,3,5
18.235,0,1,2,6,1,2,0,1
18.24,1,3,8,16,3,2,0,0
18.245,3,3,0,5,1,3,3,5
18.25,1,1,2,5,1,1,0,1
18.255,3,0,0,0,1,1,4,2
18.26,1,0,1,1,1,1,1,2
18.265,1,1,1,8,2,3,0,1
18.27,1,1,1,4,6,4,5,3
18.275,3,2,2,0,2,3,3,2
18.28,1,0,3,6,1,0,2,0
18.285,2,0,3,3,3,2,2,2
18.29,0,2,0,2,1,1,3,1
18.295,4,1,2,2,3,3,5,3
18.3,1,2,0,0,1,0,0,3
18.305,1,1,1,2,0,1,1,3
18.31,1,3,1,1,0,1,3,0
18.315,1,2,2,5,2,1,4,3
18.32,2,1,2,3,0,1,1,1
18.325,1,2,0,2,2,2,2,2
18.33,0,0,4,5,0,1,0,1
18.335,3,3,3,4,5,2,1,1
18.34,3,2,1,0,3,5,4,4
18.345,0,2,2,3,1,3,3,0
18.35,6,0,4,7,2,0,0,2
18.355,2,1,0,2,1,2,2,2
18.36,1,2,3,4,3,2,3,1
18.365,3,7,5,4,4,0,1,0
18.37,0,0,1,1,1,1,2,0
18.375,4,3,3,2,2,3,3,2
18.38,1,1,1,3,2,2,0,2
18.385,1,2,2,1,0,2,1,1
18.39,1,1,1,3,3,1,2,0
18.395,1,1,1,4,1,1,0,0
18.4,1,1,2,1,2,2,2,4
18.405,2,1,1,1,2,3,6,3
18.41,1,1,2,2,0,1,3,1
18.415,7,2,1,2,0,0,0,3
18.42,1,2,1,1,1,3,0,1
18.425,1,1,0,1,1,0,1,0
18.43,0,2,1,2,2,2,3,2
18.435,0,1,2,2,3,2,3,2
18.44,2,0,2,4,0,0,0,3
18.445,2,2,2,13,2,0,1,1
18.45,0,1,8,14,6,4,5,1
18.455,0,3,1,0,2,1,2,1
18.46,4,0,1,4,2,1,2,2
18.465,1,1,0,4,2,2,3,0
18.47,0,0,0,1,1,2,0,2
18.475,3,1,1,6,2,2,1,0
18.48,0,1,1,6,2,2,2,1
18.485,3,1,0,0,1,0,1,1
18.49,0,1,2,3,0,0,1,1
18.495,1,2,2,5,2,3,7,3
18.5,2,2,1,1,1,3,1,0
18.505,1,1,2,5,2,1,3,1
18.51,5,5,1,1,0,1,1,1
18.515,1,0,0,0,1,1,2,1
18.52,1,1,3,1,4,5,5,4
18.525,0,0,3,2,1,1,2,1
18.53,1,3,3,1,0,0,0,1
18.535,1,1,2,3,1,0,1,1
18.54,2,2,0,3,4,4,4,2
18.545,1,1,3,6,2,3,2,1
18.55,2,1,1,4,0,1,0,1
18.555,3,1,5,3,2,4,0,1
18.56,2,2,1,1,0,1,3,1
18.565,1,3,3,2,3,3,1,2
18.57,1,1,2,3,3,3,4,3
18.575,4,1,2,2,2,1,3,3
18.58,3,1,1,0,0,0,1,2
18.585,3,1,2,5,1,3,1,3
18.59,1,2,2,2,1,2,3,2
18.595,0,0,3,3,3,1,0,1
18.6,1,0,0,0,2,0,2,1
18.605,1,3,2,1,0,1,0,1
18.61,1,1,1,2,1,0,1,0
18.615,1,1,2,2,2,1,1,4
18.62,4,1,0,0,3,0,2,2
18.625,3,1,0,1,1,2,3,2
18.63,8,0,0,1,0,1,0,3
18.635,4,0,3,1,0,0,3,2
18.64,2,1,2,0,1,1,2,1
18.645,1,1,3,4,4,2,1,3
18.65,0,0,1,0,1,0,0,1
18.655,1,2,2,4,1,1,0,0
18.66,1,3,2,1,1,0,0,1
18.665,5,0,1,1,1,3,3,2
18.67,2,0,2,0,1,0,1,1
18.675,2,1,0,2,0,0,1,2
18.68,5,3,3,2,3,5,3,3
18.685,2,1,0,1,3,1,0,1
18.69,2,1,2,4,2,3,3,1
18.695,0,4,6,5,9,6,4,2
18.7,3,1,1,6,12,10,4,0
18.705,1,1,3,6,14,13,5,2
18.71,2,2,2,0,0,2,1,1
18.715,3,1,1,3,7,6,4,3
18.72,2,1,1,3,9,8,4,3
18.725,4,2,4,3,7,6,2,1
18.73,1,2,1,1,1,1,0,2
18.735,0,2,2,3,1,0,1,1
18.74,1,1,1,1,4,3,3,0
18.745,1,3,4,3,2,2,1,1
18.75,1,3,2,2,2,4,3,1
18.755,1,2,0,1,1,2,2,2
18.76,2,1,2,1,3,2,2,3
18.765,2,3,5,4,1,4,3,2
18.77,1,3,3,5,4,3,0,1
18.775,1,1,1,1,1,0,3,1
18.78,0,0,1,2,3,3,5,2
18.785,2,2,1,1,5,6,4,0
18.79,3,1,3,5,8,4,4,4
18.795,2,2,1,5,7,6,6,2
18.8,0,1,1,2,2,4,6,2
18.805,0,0,1,3,2,4,3,0
18.81,1,1,2,3,2,2,1,1
18.815,1,2,2,2,7,2,3,2
18.82,2,3,3,4,6,4,0,2
18.825,1,3,1,3,5,7,2,1
18.83,0,0,1,2,4,2,0,1
18.835,2,5,7,8,2,4,4,4
18.84,2,3,4,3,5,1,1,1
18.845,1,1,1,2,4,4,2,1
18.85,1,4,2,2,1,1,2,1
18.855,1,2,0,1,2,0,2,2
18.86,0,1,2,3,1,3,1,0
18.865,0,2,3,6,8,2,3,3
18.87,1,1,6,6,2,4,4,3
18.875,2,3,4,4,1,1,2,0
18.88,2,0,7,6,3,4,6,7
18.885,0,1,0,7,2,0,1,1
18.89,1,2,0,1,1,1,1,2
18.895,1,2,1,0,4,1,2,1
18.9,2,1,2,4,2,2,1,1
18.905,1,1,1,2,1,3,2,3
18.91,1,1,1,1,0,1,2,1
18.915,0,3,3,4,4,1,2,1
18.92,3,2,5,3,2,2,0,1
18.925,1,2,1,1,1,1,0,2
18.93,1,1,1,1,2,2,2,2
18.935,2,1,1,4,5,1,1,2
18.94,1,3,2,1,5,2,3,1
18.945,4,3,5,5,3,2,7,3
18.95,2,3,4,3,2,2,2,2
18.955,1,1,1,3,5,1,2,1
18.96,1,1,2,3,3,1,2,4
18.965,1,1,3,1,4,2,3,1
18.97,0,2,2,1,2,2,2,3
18.975,0,1,1,0,0,0,2,1
18.98,1,0,3,3,2,2,1,1
18.985,1,2,0,4,1,3,2,0
18.99,1,0,5,10,2,1,1,1
18.995,2,1,3,1,2,1,0,1
19,0,4,3,1,1,2,0,1
19.005,2,2,4,2,0,1,3,1
19.01,0,2,2,0,3,1,1,0
19.015,1,2,3,2,1,3,2,2
19.02,1,2,4,6,4,1,0,1
19.025,1,1,2,1,0,1,0,0
19.03,3,4,1,2,4,4,2,1
19.035,0,0,1,2,2,4,1,0
19.04,1,1,1,1,5,2,1,1
19.045,2,1,2,5,2,4,2,3
19.05,0,1,6,4,3,4,2,6
19.055,0,2,0,0,0,0,1,1
19.06,1,1,1,2,0,2,0,2
19.065,1,3,1,1,0,3,2,1
19.07,2,1,2,2,4,4,4,0
19.075,1,2,1,3,2,1,3,1
19.08,1,3,9,10,3,1,1,2
19.085,1,0,3,1,1,2,2,1
19.09,0,1,0,2,0,1,2,2
19.095,1,0,1,1,1,2,2,0
19.1,1,3,0,0,1,1,2,0
19.105,1,0,2,2,0,0,1,0
19.11,3,4,3,2,0,0,0,1
19.115,1,1,0,2,1,2,2,1
19.12,0,2,2,2,0,1,0,1
19.125,1,2,2,3,2,4,5,0
19.13,2,3,7,15,5,1,1,0
19.135,1,1,6,4,1,2,4,0
19.14,2,2,1,2,4,0,0,0
19.145,0,1,2,7,5,3,3,1
19.15,1,2,3,4,0,0,1,0
19.155,1,1,0,3,2,0,2,3
19.16,0,0,2,0,3,4,3,3
19.165,1,0,0,1,0,2,1,2
19.17,1,1,0,3,1,2,1,1
19.175,2,1,3,3,2,2,2,3
19.18,0,1,0,1,3,3,5,2
19.185,1,1,3,5,2,1,1,1
19.19,0,1,1,3,4,2,1,1
19.195,1,2,2,2,3,0,0,1
19.2,0,1,1,0,1,0,1,1
19.205,2,2,1,6,9,5,2,1
19.21,1,4,1,2,2,1,1,1
19.215,2,1,2,6,4,1,1,1
19.22,2,2,3,9,4,5,4,3
19.225,0,1,3,2,0,0,0,1
19.23,1,0,3,4,2,0,2,1
19.235,2,1,3,5,0,0,3,4
19.24,0,1,2,2,1,1,1,0
19.245,1,1,0,2,0,2,2,2
19.25,1,1,1,2,3,1,2,1
19.255,3,5,2,1,2,1,1,0
19.26,2,0,1,4,1,0,1,1
19.265,0,0,0,2,0,2,1,1
19.27,2,0,3,2,0,2,4,2
19.275,1,2,1,2,3,4,2,2
19.28,4,4,1,2,2,0,0,1
19.285,2,2,3,3,1,0,1,1
19.29,0,1,2,8,6,0,1,0
19.295,0,2,1,1,0,1,2,1
19.3,2,1,2,4,2,0,0,1
19.305,2,2,1,0,0,1,0,0
19.31,1,0,5,2,1,2,1,1
19.315,0,0,6,6,2,0,3,2
19.32,0,5,2,2,0,1,0,1
19.325,0,1,2,1,2,1,6,4
19.33,4,2,3,2,3,2,0,2
19.335,0,1,5,7,1,1,1,0
19.34,1,0,2,1,2,4,2,1
19.345,2,2,0,0,2,2,1,1
19.35,1,1,1,1,1,3,1,2
19.355,2,2,0,0,0,0,1,0
19.36,2,1,2,1,2,1,1,1
19.365,0,1,2,2,0,0,5,2
19.37,0,1,0,1,2,1,1,1
19.375,2,3,2,0,1,1,0,2
19.38,0,1,1,0,2,0,3,2
19.385,2,1,3,1,1,1,2,3
19.39,0,2,2,4,1,1,1,2
19.395,0,1,0,1,3,2,0,2
19.4,1,1,3,3,1,0,2,0
19.405,1,4,3,3,2,1,3,1
19.41,2,0,1,1,1,0,0,4
19.415,6,1,1,2,1,3,8,7
19.42,3,1,3,0,1,3,1,2
19.425,0,2,4,5,2,3,0,1
19.43,0,1,3,2,2,1,1,0
19.435,2,2,3,1,0,0,2,1
19.44,3,3,3,3,1,1,4,3
19.445,0,1,2,1,0,1,0,1
19.45,2,1,1,1,1,2,3,1
19.455,0,2,0,0,1,2,1,1
19.46,2,1,2,3,3,0,0,1
19.465,1,0,3,2,2,0,1,0
19.47,2,0,0,3,1,0,0,0
19.475,1,3,1,1,0,1,1,2
19.48,1,0,1,1,0,0,2,3
19.485,1,1,1,2,4,4,4,2
19.49,1,1,3,2,3,1,2,0
19.495,0,0,1,7,0,0,3,2
19.5,1,4,2,1,1,3,1,2
19.505,1,1,4,3,3,1,1,2
19.51,0,2,1,3,0,0,3,2
19.515,1,3,1,2,2,1,1,1
19.52,2,1,0,1,0,2,1,0
19.525,0,1,1,1,1,1,1,1
19.53,1,2,3,0,2,5,2,1
19.535,2,0,3,1,2,1,1,2
19.54,1,1,1,0,1,0,3,0
19.545,3,2,4,4,2,3,2,2
19.55,1,3,2,4,3,0,0,1
19.555,2,2,1,2,2,3,2,1
19.56,0,3,2,3,2,2,4,1
19.565,0,2,3,4,2,1,1,1
19.57,1,1,0,2,0,1,5,1
19.575,2,2,1,1,1,1,3,2
19.58,1,1,1,2,2,1,2,3
19.585,2,1,2,2,3,1,0,0
19.59,1,3,2,5,3,1,2,3
19.595,4,1,1,2,1,1,2,1
19.6,2,1,1,3,5,1,3,4
19.605,1,0,2,2,2,3,6,4
19.61,2,2,5,4,2,1,0,1
19.615,0,4,1,2,2,1,4,4
19.62,4,2,0,1,4,5,9,6
19.625,2,3,6,8,1,2,0,2
19.63,1,3,5,2,1,0,2,2
19.635,1,0,1,4,3,2,1,1
19.64,0,0,2,3,4,5,3,1
19.645,4,0,2,1,1,1,1,2
19.65,0,1,2,8,1,1,0,2
19.655,0,1,4,4,1,3,8,6
19.66,1,4,1,0,1,2,8,6
19.665,3,2,3,6,3,0,1,4
19.67,3,1,2,2,0,2,2,2
19.675,1,3,1,4,1,0,1,0
19.68,3,1,1,1,2,0,1,5
19.685,2,1,1,2,1,4,5,3
19.69,1,3,2,3,2,1,4,2
19.695,0,0,3,9,3,2,1,1
19.7,1,3,9,16,8,1,2,2
19.705,1,4,0,3,0,1,2,1
19.71,2,2,7,11,4,3,3,1
19.715,1,3,0,0,0,0,2,1
19.72,2,4,1,4,1,1,0,1
19.725,1,3,1,1,1,2,4,1
19.73,2,0,3,2,1,3,5,0
19.735,3,0,1,2,0,1,1,2
19.74,7,9,2,2,0,1,3,4
19.745,10,16,1,8,4,2,1,2
19.75,6,9,9,10,3,2,2,3
19.755,3,12,2,2,4,2,1,3
19.76,7,7,2,2,2,0,2,1
19.765,17,20,6,4,1,2,1,5
19.77,11,13,4,4,1,3,2,6
19.775,5,8,3,1,1,1,1,1
19.78,5,1,5,5,4,5,4,1
19.785,8,18,4,2,0,2,3,2
19.79,5,9,6,6,4,3,3,3
19.795,1,3,3,5,2,3,0,1
19.8,4,1,3,1,0,1,5,3
19.805,1,7,2,6,5,1,1,1
19.81,2,3,6,2,0,0,0,3
19.815,1,1,5,7,3,0,0,2
19.82,6,8,7,9,3,3,0,2
19.825,1,1,2,2,0,1,5,7
19.83,3,4,3,2,3,0,4,7
19.835,2,5,3,6,0,1,2,3
19.84,9,15,7,8,4,3,4,4
19.845,3,2,1,4,2,2,1,2
19.85,3,5,3,6,4,2,3,1
19.855,4,3,5,5,3,3,0,3
19.86,8,10,2,3,1,3,2,2
19.865,1,1,6,3,3,2,1,2
19.87,1,3,1,1,3,1,0,0
19.875,1,9,4,6,3,1,1,0
19.88,1,16,6,6,7,6,1,1
19.885,3,6,4,3,3,5,1,1
19.89,4,8,3,3,3,2,3,2
19.895,2,2,3,1,2,2,0,0
19.9,0,3,0,5,1,1,1,0
19.905,3,3,1,4,4,1,0,2
19.91,2,7,1,3,1,1,1,1
19.915,2,4,1,1,0,1,1,2
19.92,4,6,7,10,4,2,1,1
19.925,2,6,3,0,2,1,2,2
19.93,3,3,8,5,5,2,3,2
19.935,1,1,2,2,0,1,2,2
19.94,7,2,4,5,3,1,1,2
19.945,1,10,0,0,1,1,4,4
19.95,2,3,3,7,5,1,0,6
19.955,2,10,4,4,3,2,3,3
19.96,3,1,1,0,3,1,1,2
19.965,2,4,2,3,3,1,1,1
19.97,0,5,1,1,1,2,6,3
19.975,0,3,1,4,1,1,2,3
19.98,2,1,1,0,0,2,2,1
19.985,2,9,1,1,1,1,1,1
19.99,1,8,1,2,2,0,2,2
19.995,0,5,10,10,7,5,3,6
20,9,11,0,2,2,3,2,3
20.005,1,6,0,6,1,1,1,1
20.01,1,5,0,1,1,0,1,1
20.015,0,2,2,7,4,1,1,1
20.02,2,3,0,2,2,1,1,1
20.025,2,4,1,4,0,2,1,1
20.03,2,4,0,4,5,2,1,1
20.035,10,14,1,7,2,2,2,1
20.04,2,2,7,8,4,0,0,3
20.045,1,2,4,11,5,0,0,3
20.05,1,2,8,14,4,2,0,1
20.055,2,7,2,1,2,1,5,3
20.06,2,3,3,1,0,2,0,0
20.065,3,10,2,1,2,3,3,4
20.07,2,4,4,11,6,0,2,3
20.075,3,6,2,4,5,0,2,4
20.08,4,4,4,8,7,0,1,1
20.085,0,5,1,4,1,1,0,0
20.09,0,8,1,2,0,1,2,4
20.095,2,2,2,0,1,2,1,2
20.1,0,11,0,3,0,0,2,0
20.105,2,7,2,3,1,1,1,2
20.11,2,0,5,2,3,1,1,1
20.115,0,1,2,4,1,1,1,2
20.12,2,2,1,1,3,3,4,2
20.125,2,5,2,3,3,3,2,2
20.13,3,10,3,5,3,1,0,2
20.135,0,1,2,7,2,2,3,4
20.14,3,3,6,2,1,1,2,3
20.145,1,4,5,1,0,2,1,1
20.15,2,2,0,2,1,1,2,2
20.155,3,4,1,2,1,3,5,5
20.16,2,6,0,3,2,0,4,2
20.165,2,2,0,6,4,1,2,1
20.17,1,1,1,4,2,1,0,2
20.175,0,7,8,8,1,0,2,1
20.18,1,1,4,2,2,2,2,2
20.185,2,0,7,10,4,0,1,1
20.19,0,10,2,0,0,1,0,0
20.195,6,14,4,3,1,3,1,2
20.2,1,3,4,2,2,2,0,1
20.205,0,0,2,1,2,0,1,1
20.21,2,4,4,3,2,2,1,2
20.215,2,4,3,3,1,1,1,0
20.22,1,3,2,2,1,1,2,2
20.225,2,2,3,0,3,3,3,2
20.23,1,4,4,3,0,0,2,2
20.235,1,3,1,0,1,2,2,1
20.24,2,2,2,2,2,2,1,1
20.245,2,4,6,9,6,5,1,2
20.25,6,5,1,1,4,2,2,2
20.255,1,1,0,1,1,0,2,0
20.26,1,9,1,3,3,1,0,1
20.265,6,21,2,1,2,2,3,2
20.27,2,5,1,2,1,2,2,1
20.275,2,10,6,2,1,0,2,0
20.28,4,4,0,2,1,1,1,1
20.285,5,9,2,0,1,0,3,0
20.29,4,2,2,1,1,3,1,1
20.295,6,11,0,0,2,2,0,1
20.3,4,7,4,3,1,3,1,1
20.305,3,2,1,2,2,1,0,3
20.31,2,0,1,4,0,0,2,5
20.315,2,6,3,3,0,3,6,4
20.32,2,4,3,3,0,2,4,3
20.325,1,2,1,4,2,1,1,2
20.33,1,8,4,6,2,2,2,3
20.335,1,2,1,0,0,2,2,2
20.34,1,0,4,4,5,2,0,3
20.345,0,2,1,1,0,4,3,1
20.35,2,1,3,1,1,2,2,0
20.355,0,1,1,1,1,2,1,3
20.36,6,11,3,1,4,3,2,1
20.365,1,0,0,3,5,2,5,4
20.37,0,4,0,0,6,6,5,2
20.375,1,4,8,9,4,2,1,4
20.38,1,7,5,4,2,2,1,3
20.385,1,7,0,1,1,2,2,1
20.39,2,5,4,3,5,4,4,3
20.395,3,1,1,1,0,0,1,2
20.4,2,9,3,1,3,1,0,1
20.405,4,4,3,1,1,0,2,0
20.41,1,1,0,1,0,1,2,0
20.415,2,1,0,2,1,1,0,1
20.42,0,7,2,0,1,0,4,2
20.425,2,4,4,4,1,1,1,1
20.43,1,2,3,4,5,1,0,3
20.435,3,2,2,1,0,0,4,2
20.44,2,3,2,2,0,5,2,2
20.445,3,5,5,9,5,2,3,3
20.45,1,5,4,5,5,2,0,2
20.455,1,1,4,1,3,0,1,1
20.46,4,3,2,5,3,3,1,1
20.465,0,1,2,0,1,1,1,2
20.47,1,2,2,0,2,6,3,1
20.475,2,2,3,5,3,3,4,3
20.48,0,5,1,0,2,0,1,1
20.485,2,2,1,0,0,1,2,0
20.49,0,2,0,1,2,0,3,2
20.495,3,3,2,3,1,0,1,1
20.5,0,3,0,1,1,3,2,1
20.505,3,5,1,4,3,2,3,1
20.51,4,6,1,4,5,1,1,1
20.515,2,8,2,4,3,0,2,4
20.52,2,6,3,8,9,2,2,2
20.525,1,3,1,3,3,3,3,3
20.53,1,2,2,4,4,4,2,3
20.535,4,2,1,0,2,4,3,1
20.54,1,3,1,3,0,1,0,1
20.545,0,4,1,1,0,3,2,1
20.55,3,4,1,3,2,3,2,1
20.555,0,7,0,1,1,0,2,2
20.56,3,1,0,0,2,1,1,2
20.565,4,2,1,0,0,2,3,2
20.57,1,9,2,2,4,0,0,1
20.575,0,1,1,4,5,3,2,2
20.58,0,3,3,3,5,2,1,2
20.585,2,1,3,3,1,1,0,2
20.59,0,2,1,2,0,2,3,1
20.595,3,8,4,7,0,1,3,1
20.6,1,8,7,6,2,0,1,2
20.605,2,1,1,0,1,1,3,2
20.61,3,3,4,3,1,1,2,1
20.615,0,7,6,2,0,1,2,2
20.62,2,5,2,0,0,1,3,0
20.625,1,5,1,3,3,6,8,3
20.63,1,2,3,2,2,3,2,2
20.635,1,4,2,2,2,4,2,1
20.64,0,3,5,6,2,1,2,0
20.645,1,1,3,3,4,2,1,0
20.65,2,2,6,8,6,2,3,0
20.655,2,4,4,6,0,0,3,0
20.66,1,0,3,3,5,1,1,2
20.665,0,3,1,2,4,1,2,2
20.67,0,5,1,1,1,1,2,0
20.675,1,7,2,10,7,1,6,1
20.68,0,3,1,8,6,0,5,2
20.685,3,4,6,5,4,4,1,2
20.69,3,6,0,4,2,3,5,3
20.695,1,3,4,7,3,4,2,0
20.7,2,2,0,1,1,1,0,0
20.705,2,9,2,3,1,2,1,1
20.71,1,3,3,2,2,1,1,3
20.715,2,2,2,3,2,4,3,1
20.72,2,5,3,3,2,2,2,0
20.725,0,1,2,3,0,2,1,0
20.73,3,5,2,1,2,0,2,0
20.735,1,1,4,7,4,4,2,1
20.74,1,6,2,3,2,0,0,1
20.745,6,2,1,4,3,2,0,0
20.75,1,4,2,3,1,0,3,2
20.755,0,0,2,4,2,4,3,2
20.76,1,4,1,1,1,2,1,1
20.765,6,8,4,4,0,1,2,2
20.77,11,8,3,8,3,0,1,1
20.775,5,20,6,3,1,5,5,1
20.78,3,0,2,5,2,1,0,1
20.785,4,7,1,1,0,1,0,0
20.79,3,3,1,2,0,3,1,0
20.795,2,2,1,2,3,3,2,1
20.8,6,2,1,2,2,5,1,2
20.805,3,6,4,4,3,2,2,2
20.81,1,1,2,1,1,2,2,1
20.815,3,0,2,5,5,1,1,4
20.82,0,2,1,3,0,0,5,3
20.825,3,9,2,0,1,3,8,6
20.83,2,2,4,3,3,5,1,3
20.835,1,1,2,1,1,0,1,3
20.84,2,1,1,1,0,0,1,0
20.845,3,3,3,4,4,0,0,2
20.85,0,4,1,2,1,2,3,2
20.855,2,2,2,2,1,0,0,1
20.86,2,0,4,4,1,0,0,2
20.865,2,2,3,3,2,0,2,0
20.87,0,2,3,9,2,2,0,1
20.875,2,3,1,6,1,1,1,2
20.88,0,2,2,5,1,3,5,1
20.885,1,1,3,1,1,0,1,1
20.89,1,1,2,0,3,0,2,1
20.895,2,2,2,8,2,0,0,2
20.9,1,4,0,0,2,2,2,0
20.905,2,0,0,0,0,2,1,0
20.91,0,1,1,1,3,1,1,3
20.915,2,5,2,1,1,0,1,1
20.92,0,1,1,2,1,1,4,2
20.925,4,1,7,11,5,1,1,4
20.93,2,4,4,0,1,1,1,0
20.935,1,1,1,5,3,4,5,1
20.94,1,4,8,7,7,2,1,1
20.945,2,1,2,0,2,0,0,3
20.95,2,2,1,1,1,2,1,1
20.955,0,3,4,5,2,1,0,0
20.96,3,3,1,2,2,1,1,1
20.965,0,4,0,2,3,3,2,2
20.97,7,5,7,7,2,0,4,0
20.975,3,5,6,4,0,2,3,3
20.98,2,8,3,4,0,3,2,3
20.985,1,14,1,3,0,1,0,0
20.99,7,3,3,9,1,0,2,8
20.995,3,3,2,4,2,2,0,3
21,0,6,5,4,0,1,2,2
21.005,4,1,3,2,2,3,3,2
21.01,4,3,1,2,2,1,1,0
21.015,5,5,2,2,0,1,1,2
21.02,0,2,2,3,4,3,5,3
21.025,1,2,4,1,2,1,1,1
21.03,1,2,1,0,0,1,4,1
21.035,13,4,6,8,6,3,1,4
21.04,10,0,4,7,2,1,2,3
21.045,1,3,2,0,1,1,3,3
21.05,3,1,2,8,3,2,4,0
21.055,1,2,3,2,0,1,1,1
21.06,17,4,7,11,7,5,3,5
21.065,1,5,3,6,4,0,1,1
21.07,1,1,3,8,2,2,2,1
21.075,1,4,2,3,0,1,3,3
21.08,1,5,5,3,1,0,3,0
21.085,2,0,0,0,1,2,3,5
21.09,3,4,4,7,4,4,4,1
21.095,2,5,2,3,4,4,4,1
21.1,5,5,5,10,2,2,2,4
21.105,11,14,1,3,2,2,1,8
21.11,0,1,5,5,1,2,4,3
21.115,3,1,2,1,0,0,3,4
21.12,1,5,0,3,2,1,2,2
21.125,1,8,0,2,2,2,4,6
21.13,1,2,1,4,0,3,4,2
21.135,0,8,2,0,3,3,2,1
21.14,2,5,0,1,1,1,2,1
21.145,1,7,1,3,3,0,4,4
21.15,3,7,0,3,1,0,0,0
21.155,2,6,1,0,2,1,1,0
21.16,3,11,2,2,1,0,4,3
21.165,6,3,0,2,1,4,4,4
21.17,0,1,0,3,3,4,1,3
21.175,2,5,1,2,2,1,2,3
21.18,1,3,3,5,2,1,1,2
21.185,2,4,2,2,3,0,0,1
21.19,3,1,2,1,0,0,1,3
21.195,0,1,1,1,4,4,4,2
21.2,1,0,4,2,0,1,1,1
21.205,2,2,1,0,1,1,2,0
21.21,1,2,4,9,5,2,1,3
21.215,1,6,3,5,1,2,3,2
21.22,1,5,0,4,1,0,2,2
21.225,4,3,1,4,3,3,1,2
21.23,1,3,2,1,2,2,1,0
21.235,1,3,1,5,1,1,0,0
21.24,4,3,2,5,1,2,1,3
21.245,1,3,3,6,4,2,2,0
21.25,1,0,1,1,0,0,3,1
21.255,2,4,2,1,1,0,1,0
21.26,2,1,3,0,1,0,0,2
21.265,2,5,1,3,1,0,1,1
21.27,3,1,0,1,1,2,6,1
21.275,1,1,3,2,1,0,1,0
21.28,1,1,1,2,3,1,4,1
21.285,1,4,2,0,1,2,2,1
21.29,2,1,1,3,3,0,0,1
21.295,4,3,2,3,1,0,0,2
21.3,0,1,2,0,4,3,2,2
21.305,2,0,1,2,2,3,4,1
21.31,0,4,0,3,0,1,1,1
21.315,1,2,0,1,0,1,2,1
21.32,1,1,1,0,1,0,0,0
21.325,4,8,8,7,7,4,5,5
21.33,1,1,0,0,2,3,3,4
21.335,0,3,0,3,0,0,1,1
21.34,0,1,1,2,1,0,1,3
21.345,0,0,2,4,2,4,4,1
21.35,1,0,0,0,0,0,3,0
21.355,2,1,2,4,1,1,3,2
21.36,3,5,4,2,3,2,1,0
21.365,0,1,0,4,2,1,1,0
21.37,2,2,1,2,5,4,4,4
21.375,0,1,1,1,1,2,3,1
21.38,1,0,0,2,1,1,2,1
21.385,1,3,3,5,3,1,0,1
21.39,1,4,5,5,5,3,1,1
21.395,3,1,1,1,0,3,2,0
21.4,2,1,1,7,1,2,2,0
21.405,0,1,2,3,2,2,2,1
21.41,2,2,2,6,4,2,1,1
21.415,1,2,0,6,5,3,2,2
21.42,3,4,2,0,3,3,1,3
21.425,0,2,0,2,2,2,1,1
21.43,0,0,2,1,1,2,0,0
21.435,1,2,1,0,1,3,2,0
21.44,1,1,1,0,2,0,3,7
21.445,0,0,1,2,2,1,6,8
21.45,0,1,2,6,1,1,0,1
21.455,0,2,4,6,3,2,3,2
21.46,2,7,1,10,1,1,1,1
21.465,1,1,3,6,1,2,4,4
21.47,2,2,7,13,0,0,1,2
21.475,1,1,6,7,2,2,1,1
21.48,1,5,3,6,2,4,4,3
21.485,4,6,2,1,3,3,4,5
21.49,2,2,7,15,6,2,1,2
21.495,1,1,1,10,3,1,1,2
21.5,1,2,0,7,2,1,1,1
21.505,1,0,0,5,1,3,2,2
21.51,1,2,3,3,1,1,1,2
21.515,1,1,3,4,2,1,3,1
21.52,0,2,2,2,1,2,1,0
21.525,1,1,4,5,1,2,2,8
21.53,2,2,0,2,2,2,1,5
21.535,3,2,1,3,2,1,3,3
21.54,1,1,0,0,3,4,5,2
21.545,0,4,4,4,2,2,1,3
21.55,0,2,3,5,2,0,4,5
21.555,2,3,3,0,1,0,3,1
21.56,1,2,3,2,2,1,1,2
21.565,2,3,5,6,4,1,0,0
21.57,0,1,1,4,1,0,0,1
21.575,0,1,4,4,5,3,3,1
21.58,3,3,1,2,2,2,2,3
21.585,0,0,3,2,2,0,4,3
21.59,2,3,0,1,0,3,1,3
21.595,1,0,2,4,2,0,5,9
21.6,0,1,2,1,3,3,2,6
21.605,0,1,0,1,0,0,0,0
21.61,3,5,2,2,1,1,2,3
21.615,1,1,3,1,2,0,0,1
21.62,0,0,2,1,2,1,2,3
21.625,1,1,1,2,2,3,4,1
21.63,1,1,3,3,3,1,4,3
21.635,1,3,1,0,2,3,0,1
21.64,1,4,3,3,0,0,0,2
21.645,3,1,1,1,1,0,1,1
21.65,1,1,1,3,2,1,1,2
21.655,2,5,3,1,3,2,4,1
21.66,0,1,3,2,2,0,2,1
21.665,1,1,2,3,2,5,5,4
21.67,1,0,2,2,4,1,3,2
21.675,3,1,3,4,6,2,0,0
21.68,0,4,1,2,0,0,2,2
21.685,0,4,4,0,4,4,3,2
21.69,1,4,5,2,3,1,1,0
21.695,2,1,3,4,5,5,4,3
21.7,3,1,1,1,1,2,2,0
21.705,0,1,1,1,3,1,5,3
21.71,1,1,1,2,3,3,3,4
21.715,2,4,0,0,2,1,1,2
21.72,1,2,1,1,0,0,2,2
21.725,1,0,1,2,2,2,2,1
21.73,2,2,1,1,0,0,2,2
21.735,1,2,2,0,1,2,1,2
21.74,1,0,1,0,3,1,3,1
21.745,1,0,1,1,0,3,1,2
21.75,1,1,0,1,0,4,2,5
21.755,1,3,0,2,1,1,0,5
21.76,0,2,3,4,2,1,1,3
21.765,1,3,3,2,1,1,4,1
21.77,2,9,0,1,2,2,5,2
21.775,6,18,4,3,3,2,1,4
21.78,2,1,0,0,1,4,0,1
21.785,4,12,7,6,4,2,1,3
21.79,2,2,0,1,1,1,1,1
21.795,3,5,2,0,2,2,1,1
21.8,1,3,3,3,1,1,2,3
21.805,0,2,0,0,2,2,2,0
21.81,2,1,1,4,0,0,3,5
21.815,1,5,5,5,1,2,1,2
21.82,1,2,0,1,1,3,2,3
21.825,0,0,2,2,2,2,2,1
21.83,0,6,2,1,1,0,0,1
21.835,8,4,0,2,2,1,1,3
21.84,2,7,1,0,1,2,2,3
21.845,3,2,3,2,1,1,2,4
21.85,0,3,1,0,3,2,2,2
21.855,3,2,4,1,2,1,1,1
21.86,1,4,1,2,1,0,0,2
21.865,1,2,2,1,2,2,1,1
21.87,1,7,2,2,0,3,5,3
21.875,1,4,3,1,0,1,2,2
21.88,1,4,0,1,2,2,5,2
21.885,3,11,1,1,3,1,1,0
21.89,7,2,0,1,0,1,3,1
21.895,1,4,5,6,4,4,5,1
21.9,1,0,1,1,1,0,1,0
21.905,2,0,7,1,0,0,1,0
21.91,3,3,1,4,4,2,0,0
21.915,3,3,1,1,0,3,4,4
21.92,2,0,1,1,1,1,2,3
21.925,1,3,1,5,0,5,2,4
21.93,2,11,10,16,6,7,2,4
21.935,5,1,1,1,3,3,1,4
21.94,4,5,3,1,0,0,5,9
21.945,3,10,2,4,1,3,1,0
21.95,1,4,1,3,0,1,2,6
21.955,1,7,2,0,1,1,1,5
21.96,1,2,2,1,3,3,0,0
21.965,6,4,1,2,3,2,0,6
21.97,1,15,3,3,0,2,3,0
21.975,6,7,2,4,1,0,1,1
21.98,5,9,1,0,4,3,0,1
21.985,5,20,1,0,2,2,3,3
21.99,0,3,3,1,1,1,1,0
21.995,1,0,2,3,1,2,1,1
22,1,8,5,3,1,2,4,6
22.005,4,0,2,1,2,3,1,0
22.01,7,10,2,3,2,2,1,3
22.015,1,1,1,0,0,2,3,2
22.02,4,8,1,0,5,1,0,2
22.025,0,1,4,4,3,1,5,5
22.03,2,2,1,2,3,1,2,2
22.035,3,9,1,2,6,0,1,1
22.04,1,0,1,6,6,7,2,0
22.045,5,13,7,11,7,0,0,2
22.05,0,4,6,2,4,7,4,3
22.055,4,9,4,4,1,1,3,2
22.06,4,0,2,3,0,1,1,2
22.065,4,12,4,3,1,2,2,3
22.07,2,1,3,1,1,1,1,2
22.075,0,7,1,1,2,1,0,0
22.08,2,4,4,4,8,4,1,0
22.085,2,5,3,1,5,2,1,0
22.09,4,2,5,2,0,4,8,7
22.095,3,1,1,3,4,0,1,1
22.1,6,3,4,5,5,0,0,0
22.105,3,4,2,4,5,2,1,1
22.11,0,3,1,9,3,7,2,3
22.115,9,5,3,6,2,4,2,2
22.12,1,23,5,5,3,3,2,1
22.125,5,8,5,2,2,8,4,2
22.13,4,5,2,6,3,0,1,0
22.135,1,7,1,0,7,5,2,3
22.14,4,0,2,1,9,4,0,1
22.145,4,1,1,10,12,0,3,2
22.15,2,4,5,7,3,2,2,2
22.155,6,8,0,2,3,1,2,1
22.16,3,7,5,7,2,1,3,1
22.165,6,0,3,4,8,4,5,8
22.17,4,3,2,2,1,2,3,0
22.175,1,10,2,4,9,11,5,1
22.18,7,0,1,2,16,9,1,3
22.185,16,6,0,12,31,22,8,13
22.19,3,4,2,5,16,8,0,9
22.195,8,5,0,1,5,7,4,4
22.2,8,5,1,2,4,5,2,1
22.205,9,4,4,9,18,10,6,2
22.21,4,2,2,2,4,5,6,2
22.215,1,3,2,1,2,1,1,4
22.22,3,4,2,1,4,6,5,4
22.225,2,4,0,5,6,2,5,3
22.23,12,6,0,4,1,0,1,4
22.235,4,0,4,8,6,1,1,4
22.24,6,6,2,3,0,4,12,15
22.245,2,0,2,4,4,5,1,1
22.25,9,1,0,2,7,1,2,9
22.255,5,3,6,1,4,2,0,4
22.26,2,1,2,2,4,5,9,7
22.265,1,1,1,4,9,6,5,4
22.27,4,4,3,6,8,4,2,3
22.275,5,10,7,1,3,2,2,5
22.28,0,1,1,3,2,2,3,0
22.285,1,1,3,3,2,3,2,2
22.29,3,2,2,3,1,1,0,6
22.295,2,3,1,5,3,4,8,7
22.3,3,3,3,1,4,1,1,0
22.305,7,4,2,4,11,6,2,5
22.31,6,2,1,2,3,1,0,5
22.315,2,1,0,0,0,1,1,2
22.32,5,0,2,5,3,3,0,1
22.325,0,0,5,7,8,3,0,1
22.33,1,4,3,0,3,1,3,2
22.335,0,0,1,2,1,1,1,2
22.34,0,1,0,1,5,3,2,0
22.345,1,2,1,5,10,8,2,2
22.35,3,2,3,7,9,8,0,3
22.355,3,4,4,1,3,1,0,1
22.36,2,4,3,1,9,0,2,2
22.365,1,5,3,0,6,3,2,3
22.37,4,1,6,5,3,2,0,3
22.375,2,1,3,1,1,1,3,2
22.38,1,2,3,2,4,1,2,2
22.385,1,1,2,2,5,6,3,1
22.39,1,1,0,1,3,2,1,2
22.395,2,1,0,2,2,1,4,1
22.4,0,2,2,3,6,5,2,4
22.405,2,1,2,5,4,8,4,1
22.41,1,3,0,1,6,2,2,2
22.415,2,1,0,4,8,5,1,0
22.42,3,5,2,0,1,6,4,2
22.425,2,3,3,3,0,0,4,1
22.43,3,11,1,4,6,7,4,5
22.435,0,1,2,1,4,4,3,4
22.44,2,1,1,1,3,2,6,2
22.445,2,7,1,0,2,3,1,1
22.45,0,4,2,2,2,2,8,1
22.455,6,5,1,2,2,2,1,4
22.46,4,5,1,2,3,0,3,4
22.465,1,7,1,1,1,1,5,4
22.47,3,1,0,3,1,1,3,0
22.475,2,2,1,2,1,0,1,4
22.48,5,5,4,1,1,1,1,3
22.485,4,8,5,2,0,3,3,2
22.49,1,3,2,1,0,2,1,2
22.495,0,3,2,0,2,1,1,1
22.5,3,3,1,4,5,6,7,4
22.505,4,7,3,1,2,0,2,3
22.51,6,0,6,5,0,0,1,0
22.515,10,8,3,1,1,4,1,3
22.52,4,2,0,2,5,0,3,1
22.525,2,4,0,2,2,1,6,4
22.53,7,6,2,4,2,0,1,1
22.535,2,0,1,2,1,1,0,7
22.54,2,2,4,1,0,3,3,2
22.545,24,7,0,0,1,6,6,5
22.55,9,5,0,0,1,0,1,4
22.555,1,1,3,5,4,2,4,1
22.56,0,4,2,2,2,3,0,1
22.565,2,2,3,2,1,1,4,2
22.57,9,1,4,1,2,2,4,1
22.575,6,0,3,2,1,2,3,1
22.58,7,2,2,1,2,4,7,3
22.585,8,7,4,1,0,2,10,7
22.59,4,6,1,0,2,6,10,8
22.595,4,2,2,4,1,1,6,6
22.6,11,2,4,0,2,3,9,11
22.605,6,5,5,1,2,1,3,1
22.61,12,1,2,1,0,3,3,12
22.615,21,3,1,3,4,6,3,21
22.62,3,3,1,1,1,2,7,2
22.625,3,1,3,3,3,0,2,3
22.63,9,3,1,2,2,0,1,7
22.635,7,3,6,6,6,4,7,6
22.64,0,3,4,1,1,1,2,2
22.645,7,5,3,1,2,2,4,8
22.65,6,4,9,13,4,3,2,5
22.655,6,3,0,1,1,1,5,18
22.66,4,8,5,1,2,2,1,1
22.665,1,2,2,0,1,2,1,0
22.67,1,0,2,5,2,1,5,11
22.675,0,3,6,2,2,1,1,3
22.68,1,16,3,7,1,1,12,11
22.685,4,6,0,2,1,1,1,1
22.69,2,3,2,2,3,1,1,3
22.695,4,2,0,2,0,2,1,5
22.7,1,1,4,5,3,2,7,12
22.705,1,4,2,1,1,0,1,5
22.71,1,2,2,5,4,0,0,3
22.715,4,7,4,6,1,1,4,4
22.72,2,1,0,2,4,2,0,1
22.725,1,0,1,1,6,6,4,6
22.73,6,8,0,1,1,1,1,0
22.735,6,17,4,3,1,0,0,2
22.74,3,11,0,0,0,0,2,3
22.745,3,2,3,2,1,1,2,8
22.75,1,5,4,2,2,2,4,5
22.755,3,9,5,4,0,0,3,10
22.76,4,0,1,3,2,2,1,5
22.765,3,8,3,2,2,3,2,7
22.77,2,7,3,3,4,1,1,3
22.775,1,2,5,3,0,0,0,1
22.78,4,3,2,1,3,2,1,2
22.785,4,5,1,2,0,1,1,0
22.79,2,3,3,5,2,3,0,2
22.795,2,2,1,3,1,3,7,4
22.8,2,6,10,4,1,0,2,3
22.805,1,0,1,1,1,2,0,0
22.81,1,2,1,2,1,1,0,6
22.815,7,0,3,4,2,2,2,6
22.82,6,0,1,2,1,3,7,1
22.825,2,1,1,2,1,3,0,6
22.83,1,6,2,2,1,2,0,3
22.835,1,6,4,3,3,2,1,3
22.84,1,4,1,0,1,0,2,2
22.845,2,2,2,1,4,4,2,4
22.85,2,2,1,1,1,2,3,3
22.855,2,1,1,1,0,3,3,5
22.86,2,0,0,0,0,0,3,4
22.865,1,2,4,2,2,2,2,1
22.87,1,1,1,1,2,1,0,2
22.875,0,0,1,1,2,1,2,2
22.88,1,1,2,0,2,1,0,1
22.885,2,4,3,0,1,2,4,0
22.89,5,2,1,2,2,0,2,4
22.895,0,0,4,2,1,2,4,3
22.9,1,2,1,1,1,2,2,4
22.905,1,1,1,0,1,1,2,1
22.91,3,2,3,2,2,1,2,3
22.915,2,1,1,0,1,0,2,1
22.92,2,1,4,2,0,1,2,3
22.925,1,3,2,0,0,2,3,0
22.93,6,0,2,3,4,1,0,3
22.935,2,1,0,1,0,7,13,7
22.94,2,3,1,0,1,1,3,1
22.945,2,1,3,4,1,0,2,2
22.95,4,4,1,0,2,0,6,0
22.955,2,2,2,1,2,1,2,1
22.96,4,1,0,2,2,5,7,5
22.965,0,2,1,2,2,1,1,2
22.97,0,0,2,0,4,2,0,2
22.975,0,1,0,1,1,3,1,1
22.98,0,1,3,0,2,1,1,2
22.985,0,1,1,0,1,0,2,2
22.99,1,0,2,5,3,1,2,3
22.995,1,0,2,4,1,1,3,3
23,0,1,1,5,2,2,2,0
23.005,1,2,1,1,0,1,2,1
23.01,4,4,1,1,0,3,5,4
23.015,0,1,1,2,1,0,3,1
23.02,2,1,2,0,3,3,2,0
23.025,0,0,1,2,2,1,3,0
23.03,2,1,2,0,0,1,1,3
23.035,1,1,0,0,0,1,1,0
23.04,2,2,2,4,2,1,4,4
23.045,2,2,3,1,1,1,1,0
23.05,2,1,1,4,3,3,4,2
23.055,1,1,3,2,2,2,2,2
23.06,1,2,1,0,1,1,2,1
23.065,1,1,2,0,0,2,4,4
23.07,3,5,7,3,3,2,3,0
23.075,1,2,1,1,1,0,0,5
23.08,1,1,1,1,1,1,1,2
23.085,0,2,0,2,1,1,2,2
23.09,1,1,3,0,0,1,3,3
23.095,1,0,0,1,1,0,1,0
23.1,1,3,0,4,1,3,3,1
23.105,3,2,1,0,1,5,4,1
23.11,1,2,4,1,4,1,0,0
23.115,1,3,3,3,2,2,2,1
23.12,1,2,1,1,0,1,1,0
23.125,1,3,1,1,2,2,0,3
23.13,1,1,1,3,1,1,1,1
23.135,2,0,2,3,0,2,2,0
23.14,2,4,0,1,3,2,3,3
23.145,2,3,3,1,2,0,0,0
23.15,0,3,0,0,0,2,1,1
23.155,1,3,0,1,2,1,1,2
23.16,0,2,0,0,1,0,1,2
23.165,1,0,0,2,2,3,4,2
23.17,0,1,1,1,3,2,1,0
23.175,1,1,2,2,0,1,6,3
23.18,2,3,3,0,3,4,1,6
23.185,1,1,1,2,1,1,1,0
23.19,2,1,2,1,1,0,3,4
23.195,1,2,2,1,2,1,0,1
23.2,1,0,1,1,3,1,2,3
23.205,3,4,1,1,1,1,0,1
23.21,0,1,2,2,1,0,0,3
23.215,1,1,2,2,0,2,0,1
23.22,2,2,4,4,2,3,2,1
23.225,1,4,2,3,1,2,2,0
23.23,2,3,1,2,4,1,0,3
23.235,1,3,2,1,2,0,2,2
23.24,1,5,4,2,2,3,4,0
23.245,3,1,1,1,2,1,1,2
23.25,0,2,2,1,1,0,1,1
23.255,2,2,1,1,3,2,2,1
23.26,0,2,0,1,1,0,1,2
23.265,1,1,4,3,2,1,1,1
23.27,2,0,3,4,1,2,2,4
23.275,2,1,3,1,0,0,1,1
23.28,0,1,1,2,1,1,1,4
23.285,1,0,1,3,3,1,1,3
23.29,1,1,2,1,2,3,2,0
23.295,2,1,1,1,1,2,0,1
23.3,0,0,1,0,1,1,0,0
23.305,2,0,1,2,0,2,2,2
23.31,1,3,1,1,1,1,1,0
23.315,3,4,3,4,3,3,1,0
23.32,0,2,1,3,1,1,1,1
23.325,2,2,1,0,2,2,3,3
23.33,0,2,0,2,2,3,0,0
23.335,0,3,6,1,1,1,0,4
23.34,2,1,5,2,0,1,1,3
23.345,1,2,4,0,1,0,2,2
23.35,0,0,2,2,1,0,1,1
23.355,1,1,0,1,0,1,4,4
23.36,1,1,1,1,2,0,1,1
23.365,1,0,3,3,3,3,2,2
23.37,0,2,3,1,4,5,4,3
23.375,0,1,3,1,1,2,2,1
23.38,1,0,1,0,2,2,0,0
23.385,2,1,2,2,0,1,1,1
23.39,1,0,2,1,2,1,1,0
23.395,1,1,2,0,2,2,4,4
23.4,3,2,1,2,1,3,1,1
23.405,2,2,3,4,0,0,2,0
23.41,3,3,2,2,0,0,1,2
23.415,2,0,1,0,0,0,1,2
23.42,0,1,1,1,2,1,1,2
23.425,0,1,0,0,1,1,0,0
23.43,2,1,2,3,2,0,1,0
23.435,1,1,1,1,0,1,1,0
23.44,4,4,4,1,1,1,1,3
23.445,2,0,1,1,3,0,1,0
23.45,0,1,0,1,0,2,3,2
23.455,1,1,1,2,1,2,2,0
23.46,2,3,2,2,1,4,2,1
23.465,3,3,2,4,2,2,2,3
23.47,1,2,1,0,1,0,1,0
23.475,0,3,2,0,1,1,3,2
23.48,1,1,0,0,2,2,1,2
23.485,3,2,3,1,3,1,2,2
23.49,0,2,1,1,2,1,2,2
23.495,0,0,1,1,1,1,0,1
23.5,1,1,2,3,1,1,3,1
23.505,1,1,1,1,0,0,0,1
23.51,1,1,1,1,2,1,0,1
23.515,1,2,0,1,0,1,2,1
23.52,0,1,2,1,1,2,0,3
23.525,1,2,2,1,1,2,1,1
23.53,3,1,0,1,1,2,0,1
23.535,1,0,2,3,2,1,0,2
23.54,2,1,0,0,0,1,1,0
23.545,2,1,0,2,2,1,1,3
23.55,0,3,0,1,1,0,3,1
23.555,1,3,3,1,1,1,0,4
23.56,0,1,2,2,1,2,4,1
23.565,1,2,1,0,1,0,0,2
23.57,2,1,3,2,2,2,4,0
23.575,2,2,0,1,3,1,1,0
23.58,1,1,2,2,2,2,2,1
23.585,1,2,2,0,1,2,1,2
23.59,1,1,1,3,1,0,0,1
23.595,0,3,2,2,4,1,3,3
23.6,0,2,1,2,2,1,2,1
23.605,1,1,4,3,2,3,4,2
23.61,1,1,2,2,1,4,4,2
23.615,0,2,3,1,3,2,1,1
23.62,2,1,0,2,2,2,3,3
23.625,1,3,2,1,2,2,3,1
23.63,2,1,1,1,1,2,4,2
23.635,3,1,1,0,1,1,0,3
23.64,0,2,2,2,2,1,0,2
23.645,1,1,1,0,2,2,3,2
23.65,8,5,2,2,1,0,2,1
23.655,6,2,1,1,1,3,3,3
23.66,1,2,1,0,1,1,1,0
23.665,1,2,2,0,1,0,0,0
23.67,0,0,1,1,2,0,1,2
23.675,5,0,1,3,3,4,3,4
23.68,1,2,1,0,1,1,1,1
23.685,0,2,1,5,1,1,1,1
23.69,1,3,1,0,2,2,3,2
23.695,3,2,3,2,2,1,2,2
23.7,1,3,0,1,3,1,1,3
23.705,0,2,2,1,1,1,1,0
23.71,1,5,4,4,3,2,1,3
23.715,0,2,1,0,1,0,4,1
23.72,1,1,0,0,0,2,2,1
23.725,3,2,3,0,2,4,0,1
23.73,1,4,3,2,0,1,1,3
23.735,3,2,1,0,1,0,2,1
23.74,0,1,2,2,1,0,2,1
23.745,1,1,1,0,1,1,3,2
23.75,1,1,0,0,1,1,3,1
23.755,2,1,4,2,1,2,1,3
23.76,2,2,3,3,2,3,1,3
23.765,0,0,0,1,2,2,1,1
23.77,1,1,0,0,2,3,3,0
23.775,0,1,1,1,2,1,0,1
23.78,0,1,0,0,1,1,1,1
23.785,2,1,3,4,4,3,2,2
23.79,1,1,0,0,0,0,0,2
23.795,2,3,0,1,2,1,0,1
23.8,2,4,2,0,0,1,2,0
23.805,1,1,1,2,0,0,2,1
23.81,1,1,3,5,2,2,2,1
23.815,1,2,1,3,3,0,1,0
23.82,3,0,2,1,2,0,1,1
23.825,3,3,1,1,1,0,2,0
23.83,0,1,0,3,0,0,1,1
23.835,3,0,1,2,0,2,1,3
23.84,1,1,1,1,3,3,1,0
23.845,0,1,1,0,2,1,1,1
23.85,1,1,2,1,1,1,4,2
23.855,1,3,2,1,2,2,1,2
23.86,0,0,1,1,0,1,2,0
23.865,1,2,1,0,2,1,1,3
23.87,1,0,3,4,1,1,1,3
23.875,0,1,1,1,2,0,0,1
23.88,2,2,2,3,2,2,3,3
23.885,0,2,4,1,3,4,3,1
23.89,0,3,0,2,1,1,2,0
23.895,1,1,1,1,2,3,2,2
23.9,1,0,3,3,1,0,2,1
23.905,1,3,1,3,0,1,0,0
23.91,0,1,2,1,0,2,0,1
23.915,2,0,1,0,1,0,1,1
23.92,0,1,2,0,1,3,3,3
23.925,1,2,4,2,4,0,1,1
23.93,1,2,2,2,2,1,1,1
23.935,1,1,4,2,2,2,1,0
23.94,2,2,0,1,1,1,1,3
23.945,0,1,1,1,0,0,0,0
23.95,0,1,3,2,1,1,1,2
23.955,0,0,1,1,1,1,1,1
23.96,1,1,0,1,1,0,0,1
23.965,3,1,2,5,3,1,4,4
23.97,3,0,2,1,1,0,1,0
23.975,3,1,0,1,1,2,1,1
23.98,2,2,1,1,1,1,1,1
23.985,0,1,1,1,1,3,4,3
23.99,0,0,0,2,2,1,0,1
23.995,1,1,0,0,1,1,1,2
24,1,1,3,6,3,0,1,1
24.005,4,1,2,2,3,2,0,2
24.01,2,6,8,6,4,2,3,2
24.015,2,2,0,2,1,0,2,1
24.02,3,3,0,1,1,1,2,4
24.025,2,3,1,1,0,2,0,1
24.03,0,1,2,1,1,2,2,1
24.035,2,2,1,2,3,0,1,0
24.04,0,0,2,2,1,1,2,3
24.045,0,0,0,0,2,1,2,1
24.05,1,1,2,0,1,0,1,0
24.055,1,1,2,4,2,1,3,3
24.06,2,1,0,1,2,1,2,0
24.065,0,1,0,1,1,0,0,1
24.07,2,2,2,3,0,2,0,3
24.075,0,1,2,1,1,3,2,1
24.08,1,0,1,3,3,2,2,0
24.085,0,1,1,2,1,0,1,1
24.09,1,2,1,0,3,4,0,1
24.095,2,3,3,3,3,3,2,1
24.1,0,3,5,2,2,3,5,2
24.105,1,3,2,1,2,0,1,1
24.11,1,1,1,2,3,3,2,1
24.115,1,1,1,0,1,0,2,1
24.12,1,2,0,1,2,1,1,1
24.125,2,1,1,2,0,0,2,1
24.13,1,6,3,1,0,1,2,1
24.135,0,1,1,1,1,2,0,3
24.14,1,0,0,1,1,3,1,0
24.145,2,0,0,3,2,3,2,2
24.15,1,0,0,0,1,2,1,1
24.155,2,1,1,0,2,0,2,0
24.16,1,2,2,0,1,1,1,0
24.165,0,2,2,0,1,1,1,0
24.17,4,2,1,2,3,1,4,0
24.175,1,1,1,2,4,3,2,1
24.18,2,1,2,2,0,2,1,0
24.185,2,1,1,0,1,1,1,1
24.19,1,0,1,1,4,2,2,1
24.195,1,2,2,0,1,1,0,1
24.2,1,0,0,2,1,0,0,2
24.205,2,1,2,1,1,0,2,1
24.21,1,2,3,3,1,1,2,2
24.215,1,0,1,2,4,0,3,2
24.22,0,3,2,2,2,0,3,2
24.225,0,3,2,0,1,0,1,0
24.23,0,2,0,0,0,0,1,1
24.235,0,1,1,1,1,1,2,0
24.24,3,2,1,2,2,3,3,1
24.245,1,2,1,3,1,1,2,2
24.25,1,0,1,0,1,3,2,0
24.255,0,0,1,2,1,0,0,1
24.26,1,2,1,0,0,1,0,1
24.265,0,1,2,1,1,1,0,1
24.27,2,1,0,0,2,1,0,2
24.275,1,0,0,0,0,3,3,1
24.28,1,0,0,0,0,1,0,0
24.285,2,0,1,1,2,0,3,2
24.29,1,1,2,4,2,0,2,1
24.295,1,0,1,0,0,2,1,2
24.3,4,2,3,2,2,2,3,3
24.305,0,1,1,2,3,2,2,1
24.31,0,2,3,3,2,1,1,0
24.315,2,2,1,1,2,1,4,3
24.32,1,1,1,0,1,1,0,2
24.325,2,1,5,5,0,3,2,2
24.33,1,1,1,1,1,1,2,1
24.335,2,2,2,2,0,1,1,2
24.34,1,2,1,3,2,3,0,1
24.345,4,3,1,1,0,1,0,1
24.35,1,1,0,1,2,2,1,2
24.355,3,1,4,4,1,2,0,1
24.36,2,1,1,1,1,2,1,0
24.365,2,3,2,0,0,2,3,2
24.37,3,1,2,2,1,0,2,1
24.375,1,2,1,1,1,1,2,2
24.38,1,2,3,3,4,2,1,2
24.385,0,0,0,1,1,1,0,1
24.39,2,0,1,3,1,1,1,0
24.395,2,4,4,1,0,1,3,1
24.4,0,2,4,1,1,0,1,2
24.405,1,1,2,1,1,1,3,1
24.41,1,0,1,1,1,0,0,0
24.415,1,0,0,2,3,3,2,0
24.42,1,1,1,3,3,1,3,2
24.425,2,3,2,0,3,0,1,2
24.43,0,1,1,1,1,2,0,0
24.435,1,3,0,0,1,1,1,0
24.44,0,1,1,3,1,1,1,0
24.445,2,2,1,0,2,2,1,1
24.45,2,2,2,3,3,3,3,2
24.455,2,1,2,4,2,0,2,0
24.46,1,1,1,1,1,1,1,1
24.465,1,0,2,4,3,1,2,1
24.47,1,4,1,1,2,0,2,2
24.475,1,1,1,0,0,1,1,0
24.48,0,0,3,4,1,5,2,1
24.485,1,1,2,0,1,2,0,0
24.49,2,1,0,1,1,1,1,1
24.495,1,2,2,0,2,0,2,2
24.5,1,2,1,1,2,0,2,2
24.505,1,4,3,3,1,1,4,1
24.51,0,1,1,0,1,0,0,0
24.515,1,1,0,1,0,2,1,2
24.52,0,0,1,2,4,1,3,0
24.525,1,1,3,3,2,1,1,2
24.53,1,2,2,3,2,1,4,3
24.535,0,0,1,0,1,0,1,1
24.54,1,0,2,4,1,1,0,1
24.545,1,1,2,5,0,1,0,2
24.55,2,0,1,0,3,3,0,4
24.555,1,1,2,4,2,1,2,1
24.56,4,5,4,3,3,2,3,4
24.565,1,1,0,3,0,1,2,1
24.57,2,1,0,1,1,1,1,0
24.575,0,1,1,5,4,2,0,1
24.58,1,0,3,0,0,1,1,0
24.585,2,0,0,2,0,0,0,3
24.59,0,2,2,1,2,2,2,2
24.595,2,3,0,1,5,2,5,3
24.6,1,0,1,2,1,0,2,2
24.605,0,2,0,4,1,2,2,2
24.61,0,1,2,3,2,0,0,1
24.615,2,0,1,2,0,0,1,1
24.62,0,1,6,12,5,1,1,2
24.625,1,3,7,14,8,4,3,3
24.63,0,2,2,3,1,2,2,0
24.635,4,5,2,0,2,2,4,3
24.64,2,1,1,2,3,1,0,0
24.645,1,2,0,4,1,2,1,1
24.65,1,3,2,4,1,0,3,1
24.655,2,2,3,5,4,3,3,3
24.66,1,1,0,1,1,0,1,0
24.665,1,3,1,2,1,2,2,2
24.67,1,3,6,8,3,0,1,1
24.675,0,0,4,1,1,1,1,0
24.68,1,1,3,6,2,1,3,2
24.685,0,0,2,4,4,4,3,0
24.69,2,3,2,1,3,3,1,0
24.695,1,2,1,3,0,1,1,2
24.7,2,2,3,6,4,3,3,3
24.705,2,2,0,2,4,1,3,2
24.71,1,0,2,5,2,5,2,1
24.715,1,4,2,3,2,2,1,0
24.72,1,2,1,4,2,3,0,0
24.725,2,2,2,1,2,2,3,1
24.73,1,1,1,2,2,3,0,1
24.735,2,1,1,2,2,1,3,0
24.74,0,0,3,2,0,0,1,0
24.745,1,1,1,0,3,1,2,0
24.75,3,2,2,0,1,1,3,2
24.755,0,1,1,2,1,0,1,2
24.76,2,2,0,2,0,2,4,3
24.765,0,3,1,1,2,1,0,0
24.77,1,1,0,2,1,3,0,2
24.775,0,2,2,2,2,1,1,2
24.78,1,4,6,3,1,1,0,1
24.785,3,3,1,2,2,2,0,1
24.79,1,1,1,2,3,0,3,1
24.795,2,2,1,1,1,2,1,0
24.8,1,1,1,2,4,3,2,1
24.805,1,1,0,1,1,0,3,2
24.81,3,3,3,2,3,4,3,2
24.815,1,1,0,2,2,1,2,2
24.82,2,3,1,1,4,0,0,0
24.825,0,1,1,1,0,3,0,1
24.83,0,1,1,1,2,1,1,0
24.835,0,1,0,0,1,1,2,1
24.84,0,0,1,3,5,1,2,1
24.845,1,1,0,1,0,1,0,2
24.85,1,0,1,2,6,4,2,2
24.855,1,1,2,1,5,3,1,1
24.86,1,1,1,1,2,1,3,1
24.865,0,1,2,2,1,2,1,2
24.87,1,0,1,1,2,1,4,0
24.875,3,1,2,1,5,4,2,0
24.88,0,0,0,1,3,2,1,1
24.885,2,1,4,1,2,0,0,1
24.89,1,4,12,4,2,4,1,1
24.895,0,2,6,0,0,1,1,1
24.9,0,1,5,2,1,4,1,1
24.905,1,6,5,3,4,1,1,1
24.91,2,0,1,0,2,1,3,1
24.915,1,1,4,2,0,2,1,2
24.92,0,0,1,0,0,1,1,2
24.925,1,1,1,3,1,2,2,0
24.93,1,0,2,1,1,0,1,3
24.935,2,2,3,3,4,3,5,1
24.94,2,2,2,0,1,0,0,1
24.945,2,3,0,1,0,2,0,1
24.95,3,2,4,5,2,5,7,3
24.955,0,3,3,0,1,1,0,1
24.96,1,0,0,1,3,2,3,3
24.965,3,2,2,2,4,2,4,2
24.97,0,0,5,1,0,1,0,0
24.975,0,0,1,1,2,2,4,2
24.98,1,4,4,3,1,0,2,3
24.985,0,1,1,0,0,3,0,0
24.99,1,1,2,2,3,3,2,1
24.995,2,5,2,4,6,3,2,0
25,2,1,0,2,7,2,2,3
25.005,0,0,0,2,2,0,0,0
25.01,1,1,3,1,0,2,0,1
25.015,0,3,1,1,1,1,0,2
25.02,2,1,2,2,6,3,2,1
25.025,1,0,1,1,1,0,1,0
25.03,0,3,3,2,3,1,0,1
25.035,1,3,3,2,1,0,2,3
25.04,3,0,0,4,2,3,0,1
25.045,0,1,4,2,0,2,2,2
25.05,1,0,1,0,1,1,1,3
25.055,1,0,2,2,2,2,1,1
25.06,2,1,2,3,3,3,3,3
25.065,0,1,3,1,1,0,1,0
25.07,0,3,1,2,1,0,1,1
25.075,2,2,1,1,1,1,3,1
25.08,0,1,1,2,3,1,1,1
25.085,2,1,2,4,0,0,0,1
25.09,2,3,3,2,1,3,4,2
25.095,1,0,2,2,2,2,2,1
25.1,1,1,2,0,1,1,2,1
25.105,1,0,1,3,0,3,2,1
25.11,2,1,1,1,0,1,3,1
25.115,0,0,0,0,0,0,1,2
25.12,0,2,5,2,6,2,4,1
25.125,1,3,0,1,0,1,2,3
25.13,2,1,1,1,1,0,2,0
25.135,1,3,1,1,1,2,3,1
25.14,1,2,2,0,2,1,1,2
25.145,0,1,2,2,2,1,1,0
25.15,1,3,2,1,0,2,2,2
25.155,2,1,2,3,4,3,0,2
25.16,1,2,1,2,2,2,2,2
25.165,1,0,1,1,1,1,0,1
25.17,0,1,3,4,3,2,1,2
25.175,0,0,1,0,0,2,1,1
25.18,0,1,1,2,3,3,2,3
25.185,3,2,5,3,1,1,0,0
25.19,0,1,2,3,0,1,1,0
25.195,1,1,1,1,1,0,0,1
25.2,2,1,1,1,0,1,2,2
25.205,0,1,0,0,1,0,3,3
25.21,2,3,1,1,2,1,4,1
25.215,2,3,1,3,0,1,1,1
25.22,1,1,1,0,4,0,1,2
25.225,3,5,4,1,2,2,2,1
25.23,1,1,4,3,3,0,2,1
25.235,1,0,2,1,1,3,1,1
25.24,1,2,1,1,1,0,3,0
25.245,0,1,0,1,4,4,3,3
25.25,0,0,1,1,1,0,1,0
25.255,2,3,5,0,1,1,0,0
25.26,1,1,1,2,0,0,0,3
25.265,1,2,4,8,5,2,2,1
25.27,1,2,1,1,3,3,4,1
25.275,0,2,0,2,2,2,2,0
25.28,2,2,2,1,1,0,1,1
25.285,0,0,0,0,1,0,0,1
25.29,3,2,5,1,1,2,3,2
25.295,1,3,3,0,1,0,1,0
25.3,1,3,2,2,2,2,2,0
25.305,1,2,1,2,2,3,1,2
25.31,1,2,0,1,0,1,1,0
25.315,2,1,0,1,1,0,1,0
25.32,2,2,3,3,1,1,1,3
25.325,2,0,1,0,2,4,2,2
25.33,1,0,1,1,0,0,1,1
25.335,2,2,0,3,2,1,2,0
25.34,1,1,1,0,2,1,0,1
25.345,1,2,3,1,4,1,2,1
25.35,0,0,1,2,3,1,2,2
25.355,1,1,3,2,3,3,1,4
25.36,1,1,0,1,0,1,0,1
25.365,0,2,1,0,0,2,0,0
25.37,2,1,3,0,3,1,2,1
25.375,1,0,3,4,2,1,1,1
25.38,0,2,0,0,2,0,2,1
25.385,2,3,2,0,2,1,0,1
25.39,1,0,1,4,1,0,2,0
25.395,4,3,0,2,1,2,4,3
25.4,2,1,1,3,5,3,3,3
25.405,1,0,0,0,0,2,2,1
25.41,1,1,1,0,1,0,0,0
25.415,1,2,2,2,2,1,1,1
25.42,2,1,0,1,1,3,1,0
25.425,1,1,1,2,3,2,5,2
25.43,3,3,2,2,1,1,0,1
25.435,0,2,1,2,2,2,0,1
25.44,1,1,0,2,1,1,1,3
25.445,1,3,2,1,1,2,0,1
25.45,1,2,3,4,0,1,1,3
25.455,0,1,1,1,3,2,4,3
25.46,0,1,2,3,1,0,0,2
25.465,2,2,0,0,0,1,2,1
25.47,1,2,5,1,2,3,3,0
25.475,1,2,1,1,3,1,3,0
25.48,1,0,2,0,2,1,1,1
25.485,1,3,1,0,2,1,2,3
25.49,0,1,2,1,0,2,1,1
25.495,0,1,1,1,3,0,2,1
25.5,2,0,2,3,5,5,3,2
25.505,1,3,0,0,2,2,1,1
25.51,2,2,3,2,4,1,0,1
25.515,1,0,1,2,1,1,3,1
25.52,1,2,3,3,4,3,3,1
25.525,2,2,0,2,3,2,1,2
25.53,1,0,1,2,0,1,1,1
25.535,2,2,2,3,5,4,4,1
25.54,2,3,4,2,5,2,3,4
25.545,2,0,0,1,1,1,1,1
25.55,1,1,1,2,2,1,2,0
25.555,0,1,0,1,1,0,0,4
25.56,2,3,2,2,3,2,2,1
25.565,1,2,4,3,2,2,2,2
25.57,2,0,2,0,3,2,1,1
25.575,2,1,2,1,0,1,1,1
25.58,1,3,4,2,1,1,1,0
25.585,3,0,3,3,4,3,2,3
25.59,0,1,0,0,0,2,1,0
25.595,0,2,1,1,2,0,2,0
25.6,1,1,1,1,1,1,2,0
25.605,1,1,1,0,2,1,1,1
25.61,0,1,0,1,2,2,2,2
25.615,1,0,2,0,0,2,2,1
25.62,1,2,4,2,1,3,2,1
25.625,1,0,1,2,2,0,1,2
25.63,3,3,3,2,2,1,2,3
25.635,2,6,4,1,1,0,0,1
25.64,2,0,0,1,1,0,3,2
25.645,0,0,0,1,1,1,0,1
25.65,1,0,1,3,1,3,1,2
25.655,1,0,1,1,0,1,0,1
25.66,1,2,1,2,0,2,2,1
25.665,1,1,1,0,1,1,1,1
25.67,2,2,2,1,2,2,1,1
25.675,0,0,1,1,0,0,0,1
25.68,2,2,3,2,2,2,1,1
25.685,2,0,0,0,0,0,0,1
25.69,0,2,0,0,1,1,0,0
25.695,1,2,1,1,2,2,3,3
25.7,1,1,0,1,2,3,1,2
25.705,2,1,2,2,0,2,2,3
25.71,0,2,2,1,0,3,3,1
25.715,1,3,2,1,3,1,2,2
25.72,0,1,1,1,1,0,1,1
25.725,0,2,2,2,0,2,2,0
25.73,2,2,1,1,1,1,3,2
25.735,0,2,0,1,0,2,1,0
25.74,2,1,2,1,2,0,0,1
25.745,0,2,5,3,1,1,1,2
25.75,1,2,2,1,0,1,1,2
25.755,0,1,2,1,1,0,0,3
25.76,1,1,1,1,1,1,1,1
25.765,1,2,0,2,1,2,0,2
25.77,1,2,1,1,0,1,1,1
25.775,2,0,3,4,1,3,1,0
25.78,2,1,0,0,1,1,1,1
25.785,1,4,1,1,0,1,2,2
25.79,0,1,2,2,3,1,2,1
25.795,1,2,1,1,1,1,1,1
25.8,2,2,0,1,2,1,2,2
25.805,3,3,2,2,4,2,2,3
25.81,3,1,2,1,1,1,2,4
25.815,0,3,3,1,1,4,2,0
25.82,1,3,2,1,4,0,2,0
25.825,2,3,0,1,0,1,2,2
25.83,1,1,3,0,1,0,0,2
25.835,1,2,1,2,2,0,1,2
25.84,0,1,1,0,0,0,5,2
25.845,1,1,1,0,2,3,1,1
25.85,0,2,0,1,0,1,2,1
25.855,2,1,1,2,1,2,1,3
25.86,3,0,2,2,1,3,2,0
25.865,0,1,1,0,2,1,2,1
25.87,2,3,3,2,1,2,4,1
25.875,1,2,1,2,1,2,0,1
25.88,2,2,2,2,2,0,0,0
25.885,1,3,0,1,1,1,0,0
25.89,1,1,0,1,1,5,1,2
25.895,1,1,2,0,2,0,1,2
25.9,1,1,0,1,0,0,1,1
25.905,3,3,3,1,2,3,4,3
25.91,0,1,1,0,2,3,5,4
25.915,0,2,2,1,0,3,3,0
25.92,2,3,0,2,2,2,0,2
25.925,1,2,2,1,4,0,3,1
25.93,1,3,2,4,5,2,4,2
25.935,0,1,1,0,2,1,0,2
25.94,0,2,0,1,1,1,1,2
25.945,1,3,2,1,1,1,1,1
25.95,1,0,0,0,0,1,3,2
25.955,1,2,1,1,0,1,1,0
25.96,2,2,3,6,5,3,3,3
25.965,2,1,1,0,1,0,1,2
25.97,0,1,1,2,2,0,1,0
25.975,0,3,3,2,0,0,1,3
25.98,0,2,1,1,0,3,2,2
25.985,2,1,0,1,0,1,0,1
25.99,2,1,1,3,3,1,2,1
25.995,3,3,3,3,1,2,7,3
26,1,0,1,1,0,0,2,4
26.005,0,1,0,1,0,1,1,0
26.01,1,1,3,3,0,0,2,1
26.015,2,0,1,2,4,2,0,1
26.02,0,1,3,0,1,2,1,1
26.025,0,2,3,1,1,0,0,0
26.03,2,3,3,5,2,2,2,2
26.035,0,0,1,0,2,0,0,2
26.04,4,2,1,2,2,1,4,2
26.045,2,0,0,1,3,1,0,2
26.05,1,1,1,2,2,2,1,0
26.055,2,4,1,0,2,2,3,1
26.06,3,2,4,4,4,2,0,3
26.065,0,0,2,2,1,1,2,0
26.07,1,1,1,1,0,2,2,1
26.075,2,0,2,2,3,1,2,1
26.08,0,1,2,1,3,0,2,2
26.085,2,0,1,1,2,0,1,1
26.09,3,2,4,7,4,2,4,1
26.095,0,1,3,1,1,2,0,1
26.1,1,4,6,6,2,0,0,0
26.105,0,2,0,3,5,2,0,1
26.11,1,5,2,1,2,2,4,2
26.115,3,1,2,3,2,3,3,2
26.12,1,1,2,4,1,3,2,0
26.125,3,2,2,4,1,0,2,2
26.13,1,1,1,1,3,3,1,1
26.135,1,1,2,2,1,1,0,0
26.14,1,1,1,2,1,1,0,1
26.145,0,3,2,2,1,3,0,2
26.15,2,1,0,1,0,2,2,4
26.155,1,2,0,1,2,2,0,2
26.16,1,1,1,1,3,1,0,2
26.165,3,4,3,3,7,3,3,1
26.17,0,4,6,1,3,0,1,1
26.175,2,3,1,4,4,2,1,1
26.18,2,1,4,4,4,3,2,2
26.185,1,1,1,2,1,1,0,1
26.19,1,1,1,2,5,2,2,4
26.195,1,1,1,1,3,2,5,1
26.2,2,1,2,6,1,2,1,2
26.205,2,4,8,10,2,0,1,2
26.21,1,1,2,5,3,2,4,1
26.215,0,1,2,1,1,1,0,0
26.22,2,1,2,0,0,1,0,1
26.225,2,4,0,3,2,3,4,2
26.23,1,0,1,0,1,0,2,2
26.235,0,1,1,1,1,1,2,1
26.24,1,0,0,0,1,1,2,5
26.245,1,1,2,0,1,1,5,3
26.25,0,1,0,0,1,5,5,1
26.255,1,1,1,1,2,0,2,1
26.26,0,2,1,0,1,3,2,2
26.265,0,2,2,2,2,1,2,3
26.27,2,3,2,1,0,1,4,1
26.275,3,1,2,1,3,3,2,2
26.28,2,0,2,4,4,0,1,1
26.285,0,3,2,3,7,2,0,0
26.29,0,0,3,2,1,2,3,0
26.295,3,4,2,0,2,1,4,2
26.3,0,1,0,2,1,2,1,2
26.305,2,0,1,0,4,3,3,1
26.31,1,0,0,1,2,0,0,1
26.315,1,2,5,5,2,1,2,1
26.32,0,1,0,1,1,1,3,1
26.325,2,0,1,2,0,1,2,5
26.33,1,3,2,3,2,2,2,3
26.335,3,2,3,3,3,2,1,3
26.34,2,0,1,2,1,0,0,1
26.345,0,0,0,1,1,1,0,1
26.35,1,0,0,0,0,1,1,3
26.355,1,1,0,1,3,5,1,3
26.36,0,1,0,2,1,1,1,1
26.365,1,2,3,4,2,3,1,1
26.37,2,2,6,8,7,4,4,2
26.375,0,0,2,3,1,1,0,0
26.38,2,4,3,2,2,2,2,5
26.385,0,2,4,0,2,3,1,4
26.39,1,4,3,0,0,4,2,2
26.395,2,0,6,14,7,3,2,3
26.4,0,2,2,0,2,1,1,0
26.405,2,1,2,9,1,0,0,3
26.41,1,2,1,5,5,1,1,1
26.415,0,2,8,23,9,2,1,0
26.42,1,3,10,32,13,5,3,4
26.425,3,2,12,18,7,3,1,3
26.43,1,2,2,10,7,2,2,2
26.435,2,2,2,7,5,4,4,4
26.44,2,3,8,14,8,3,3,4
26.445,1,0,4,14,8,1,4,3
26.45,3,4,5,7,7,4,1,4
26.455,3,3,6,14,10,1,2,2
26.46,3,3,1,0,2,2,3,4
26.465,1,0,0,4,3,0,1,2
26.47,1,0,0,6,5,0,2,3
26.475,0,0,1,1,3,3,0,1
26.48,1,0,0,3,1,2,1,1
26.485,1,1,2,2,3,1,2,0
26.49,0,2,1,3,0,2,0,0
26.495,2,2,4,8,3,2,0,2
26.5,2,3,4,3,1,4,4,3
26.505,2,3,1,3,0,4,2,1
26.51,0,0,4,3,1,4,2,0
26.515,2,3,8,12,4,0,1,0
26.52,1,3,5,9,3,2,4,4
26.525,2,1,1,0,2,0,1,2
26.53,3,5,4,10,6,2,2,0
26.535,1,2,4,6,5,6,3,4
26.54,4,2,2,1,1,2,1,2
26.545,1,2,1,0,5,6,7,3
26.55,2,4,0,5,1,2,4,7
26.555,4,4,0,5,4,2,0,3
26.56,2,6,4,3,6,2,1,2
26.565,3,2,1,2,1,2,5,3
26.57,3,15,5,1,0,0,2,4
26.575,2,6,0,1,2,1,2,4
26.58,3,3,2,6,5,2,1,3
26.585,6,7,6,13,9,5,3,0
26.59,1,5,0,1,3,0,4,3
26.595,1,1,4,10,7,2,0,1
26.6,3,2,2,0,6,1,2,1
26.605,3,2,2,1,13,12,2,3
26.61,2,5,1,2,4,6,4,0
26.615,1,2,0,2,2,2,2,1
26.62,2,8,2,6,2,2,3,2
26.625,1,2,2,8,8,0,3,1
26.63,2,2,1,1,1,3,0,1
26.635,1,3,3,6,2,2,1,1
26.64,2,3,6,9,5,5,3,0
26.645,4,2,0,3,1,7,11,6
26.65,0,0,5,11,5,1,1,2
26.655,3,4,3,2,2,5,7,6
26.66,1,1,5,3,3,5,6,4
26.665,0,5,2,2,1,0,3,0
26.67,1,4,0,3,2,3,2,0
26.675,1,1,2,0,2,1,3,5
26.68,3,2,5,9,3,2,4,1
26.685,1,2,2,0,1,1,3,1
26.69,2,5,1,2,1,1,5,1
26.695,0,6,2,1,1,2,1,1
26.7,1,1,3,6,3,3,11,9
26.705,3,3,1,2,5,4,3,3
26.71,1,3,1,4,3,2,3,3
26.715,2,3,3,0,2,3,6,2
26.72,4,0,4,5,3,2,2,1
26.725,1,1,2,1,0,2,3,3
26.73,1,0,2,6,1,1,3,4
26.735,1,6,1,6,0,1,0,0
26.74,0,1,2,3,3,2,0,1
26.745,3,2,3,4,1,1,2,0
26.75,2,5,1,3,0,2,3,2
26.755,3,5,1,4,2,4,4,3
26.76,0,3,2,2,0,1,0,0
26.765,4,0,0,1,1,0,0,6
26.77,4,1,1,0,2,1,1,2
26.775,4,4,4,5,2,3,4,1
26.78,1,1,0,1,2,1,0,0
26.785,7,1,2,3,0,0,4,2
26.79,8,0,1,8,5,3,8,8
26.795,14,2,2,5,2,3,4,9
26.8,7,1,5,9,0,0,3,4
26.805,12,3,1,7,4,2,4,9
26.81,10,3,1,0,2,1,1,2
26.815,29,4,1,2,2,1,5,5
26.82,1,5,0,2,0,3,7,4
26.825,6,6,5,2,1,0,1,2
26.83,16,4,3,8,1,4,1,10
26.835,12,1,1,2,1,0,5,2
26.84,26,4,3,6,3,1,4,1
26.845,5,1,2,9,2,5,10,15
26.85,2,8,6,5,3,1,8,8
26.855,6,0,2,4,1,1,7,10
26.86,4,2,6,4,2,2,0,5
26.865,1,1,4,4,3,4,6,6
26.87,4,2,1,0,2,2,2,5
26.875,2,0,1,0,0,1,2,2
26.88,8,7,2,7,0,4,9,0
26.885,7,0,7,9,1,1,2,2
26.89,5,1,3,4,0,2,0,2
26.895,6,5,7,6,2,4,5,4
26.9,2,2,2,11,2,2,4,11
26.905,0,10,1,1,1,1,5,20
26.91,1,2,1,4,4,3,4,2
26.915,5,1,3,6,4,1,2,4
26.92,1,2,1,4,4,3,3,6
26.925,2,1,5,9,1,2,1,4
26.93,3,5,10,14,6,4,8,9
26.935,1,6,0,0,3,2,3,8
26.94,2,7,4,7,4,3,6,14
26.945,0,0,2,3,1,1,1,3
26.95,2,5,1,3,1,0,0,2
26.955,4,0,2,1,1,3,3,3
26.96,5,7,3,6,3,4,5,2
26.965,6,9,10,17,5,3,5,3
26.97,2,1,4,6,1,2,3,6
26.975,5,0,4,5,4,5,2,3
26.98,0,2,5,7,1,0,3,3
26.985,1,2,0,0,1,2,3,1
26.99,0,5,0,2,1,2,2,4
26.995,3,1,1,1,2,0,2,4
27,2,2,1,2,2,1,1,5
27.005,0,3,0,4,2,1,5,8
27.01,1,2,6,1,2,0,5,6
27.015,2,7,4,1,3,5,3,0
27.02,0,1,1,2,2,3,0,4
27.025,0,4,1,8,1,1,6,2
27.03,2,0,6,11,5,5,9,10
27.035,8,1,2,3,5,3,0,3
27.04,3,4,3,2,5,5,2,2
27.045,0,0,3,4,1,0,2,1
27.05,2,0,1,1,2,2,5,3
27.055,2,3,0,1,3,0,4,3
27.06,2,2,4,4,2,3,3,3
27.065,2,0,4,3,7,2,1,1
27.07,1,2,1,2,2,1,2,2
27.075,1,2,4,2,1,3,4,7
27.08,2,2,3,1,0,0,6,4
27.085,1,1,2,2,1,1,15,6
