0.01,1,3,6,25,22,9,7,7
0.015,0,3,0,4,2,2,2,1
0.02,1,1,3,6,2,1,1,1
0.025,1,1,2,13,14,0,3,1
0.03,1,1,0,3,1,4,3,2
0.035,0,2,1,1,3,0,1,0
0.04,0,1,1,8,8,2,2,0
0.045,2,1,0,4,4,1,1,2
0.05,2,4,4,9,10,4,3,3
0.055,1,3,2,4,4,1,0,1
0.06,3,2,5,8,8,2,1,2
0.065,2,1,2,7,6,4,1,3
0.07,4,0,0,0,3,0,1,1
0.075,2,1,2,7,1,3,0,3
0.08,4,4,10,2,4,3,1,3
0.085,6,5,7,0,8,7,5,4
0.09,1,1,5,7,3,2,4,2
0.095,1,0,2,0,2,2,1,1
0.1,1,1,1,8,6,1,0,0
0.105,0,1,1,6,8,3,2,1
0.11,0,3,2,5,7,6,4,2
0.115,2,3,4,5,3,1,4,3
0.12,2,0,2,7,1,3,2,2
0.125,3,2,4,4,1,1,1,1
0.13,0,0,2,3,2,3,1,0
0.135,1,3,2,7,3,1,1,2
0.14,2,8,4,12,1,4,0,2
0.145,1,1,1,4,2,1,2,1
0.15,1,2,0,0,0,1,2,5
0.155,1,2,4,11,10,5,2,1
0.16,1,3,3,0,0,0,2,1
0.165,2,3,1,2,1,1,1,3
0.17,2,3,0,8,0,4,2,2
0.175,0,2,1,4,4,0,3,1
0.18,0,1,1,1,1,0,3,0
0.185,0,2,3,0,2,1,4,1
0.19,0,1,2,5,3,1,0,0
0.195,2,2,1,1,0,2,0,3
0.2,2,2,3,5,1,1,2,1
0.205,1,2,1,0,0,0,3,1
0.21,1,0,0,0,2,3,1,1
0.215,0,1,4,2,1,1,0,0
0.22,1,1,1,3,4,0,1,2
0.225,1,2,2,2,0,1,0,3
0.23,2,2,1,2,1,1,0,1
0.235,1,2,1,3,1,2,0,0
0.24,1,0,0,4,3,2,0,1
0.245,0,0,0,1,2,0,1,0
0.25,1,2,0,2,1,1,0,1
0.255,1,2,0,5,2,1,0,2
0.26,3,2,1,2,0,2,2,2
0.265,0,2,1,0,1,2,2,0
0.27,1,3,0,4,1,0,0,2
0.275,1,1,1,0,1,1,1,1
0.28,2,1,1,4,1,1,1,2
0.285,1,1,0,2,0,2,0,0
0.29,1,0,1,3,0,0,2,1
0.295,0,2,1,1,1,1,0,2
0.3,0,2,2,3,0,1,1,1
0.305,1,1,1,2,2,1,1,0
0.31,1,0,1,2,2,1,0,1
0.315,2,2,0,1,0,1,1,2
0.32,2,1,1,2,0,0,0,3
0.325,0,2,0,1,2,4,1,0
0.33,1,3,1,3,3,1,1,2
0.335,2,0,1,1,1,1,1,2
0.34,0,1,1,2,3,2,1,2
0.345,2,2,0,1,2,1,0,2
0.35,1,3,3,3,1,1,1,1
0.355,1,1,2,2,2,1,2,2
0.36,1,0,1,2,1,0,0,3
0.365,1,0,2,0,1,0,3,2
0.37,1,0,1,1,1,2,3,2
0.375,1,1,1,1,2,0,0,2
0.38,1,1,0,1,1,1,1,0
0.385,1,2,1,2,2,1,0,0
0.39,3,0,1,1,2,0,2,1
0.395,2,1,0,1,1,0,3,1
0.4,2,1,3,3,1,1,0,1
0.405,1,3,2,0,1,2,1,2
0.41,0,1,0,2,1,3,0,1
0.415,1,2,1,0,1,1,1,2
0.42,1,2,0,1,0,1,2,2
0.425,2,1,1,2,0,0,0,2
0.43,0,3,1,1,1,0,3,1
0.435,2,1,1,2,1,2,2,0
0.44,1,1,2,0,1,2,2,2
0.445,0,2,2,2,0,2,1,0
0.45,1,1,0,1,0,3,1,1
0.455,2,1,3,1,1,1,0,1
0.46,0,1,2,1,2,2,2,0
0.465,3,0,1,2,0,2,0,1
0.47,1,1,2,0,2,1,1,2
0.475,1,1,2,2,2,1,2,2
0.48,1,2,0,1,1,2,2,2
0.485,0,1,1,0,2,1,4,3
0.49,2,1,0,0,1,1,2,1
0.495,1,0,0,2,1,1,1,2
0.5,1,0,1,3,1,2,1,1
0.505,1,2,1,1,2,1,1,1
0.51,1,1,1,2,2,0,1,3
0.515,1,0,2,0,0,0,1,0
0.52,0,1,2,5,1,1,2,1
0.525,1,1,1,0,1,1,1,1
0.53,1,1,2,0,1,2,0,1
0.535,2,1,1,0,2,1,2,2
0.54,2,1,1,0,1,0,0,2
0.545,0,1,2,1,1,0,4,2
0.55,0,2,1,2,1,1,1,1
0.555,1,0,1,3,1,1,3,0
0.56,3,2,2,1,2,1,0,1
0.565,0,1,0,3,1,1,0,1
0.57,2,0,0,0,1,2,1,1
0.575,0,1,1,0,0,1,1,0
0.58,0,1,1,2,0,1,4,1
0.585,1,5,10,11,7,4,3,1
0.59,7,10,8,15,13,6,4,5
0.595,2,3,6,7,4,0,1,1
0.6,0,2,2,1,2,0,1,2
0.605,0,1,0,12,3,3,1,1
0.61,3,0,3,11,2,2,2,2
0.615,0,0,1,1,0,1,1,2
0.62,2,0,3,4,6,3,2,1
0.625,1,1,1,7,5,3,1,2
0.63,2,5,10,10,7,1,1,2
0.635,1,1,2,7,1,0,2,1
0.64,3,1,2,5,2,1,0,2
0.645,1,1,3,17,5,0,2,0
0.65,5,5,6,2,6,7,6,5
0.655,0,2,3,1,3,1,1,1
0.66,1,1,1,3,3,3,5,2
0.665,1,1,0,4,6,0,4,2
0.67,6,11,26,20,7,1,1,4
0.675,7,8,17,19,4,0,2,3
0.68,3,2,7,18,9,2,2,0
0.685,4,6,6,6,3,2,0,2
0.69,1,2,0,9,5,2,0,1
0.695,2,5,10,11,0,0,2,0
0.7,2,1,3,2,2,1,2,1
0.705,7,5,10,6,10,6,6,4
0.71,1,1,2,8,1,3,4,1
0.715,5,7,11,22,9,3,5,2
0.72,8,11,17,18,9,9,12,9
0.725,5,7,10,5,18,12,10,8
0.73,3,3,7,1,7,0,6,5
0.735,1,3,3,20,6,6,4,3
0.74,2,6,9,16,22,5,6,3
0.745,3,6,4,14,15,4,5,5
0.75,2,2,8,18,2,0,1,2
0.755,2,2,6,0,6,4,2,1
0.76,2,3,8,13,2,1,2,1
0.765,1,2,4,6,9,3,1,0
0.77,1,2,4,3,0,0,1,2
0.775,1,2,3,12,2,4,1,1
0.78,0,3,2,1,3,2,2,0
0.785,1,0,6,10,1,0,1,1
0.79,2,1,0,3,5,3,4,2
0.795,3,3,1,9,3,2,0,1
0.8,0,1,1,0,5,0,0,1
0.805,1,3,4,1,0,1,1,2
0.81,1,1,2,1,1,0,1,2
0.815,3,3,0,16,6,1,3,1
0.82,0,2,5,17,11,3,0,0
0.825,0,1,1,15,6,0,0,1
0.83,2,5,10,24,10,7,8,3
0.835,1,1,0,2,2,1,2,0
0.84,2,2,2,6,4,0,0,2
0.845,0,2,0,0,5,1,1,2
0.85,2,1,4,9,2,2,1,0
0.855,2,2,3,5,4,3,4,1
0.86,1,0,2,5,0,2,1,0
0.865,0,1,4,12,3,0,3,2
0.87,4,4,4,4,4,4,3,3
0.875,4,2,2,4,5,1,1,1
0.88,0,1,3,7,1,1,0,0
0.885,1,2,2,8,0,2,0,0
0.89,1,0,1,1,0,0,1,1
0.895,3,4,4,5,4,1,1,2
0.9,2,4,2,5,1,3,1,3
0.905,8,8,10,3,8,7,6,7
0.91,1,2,4,3,1,1,0,0
0.915,1,1,0,1,0,2,0,3
0.92,0,3,4,12,5,2,2,3
0.925,3,4,3,13,0,4,4,3
0.93,3,1,3,9,4,1,3,4
0.935,4,5,7,6,13,4,2,4
0.94,4,6,7,6,4,4,4,2
0.945,1,0,1,2,1,1,1,1
0.95,2,1,0,1,0,0,0,2
0.955,1,4,3,2,4,2,0,0
0.96,1,2,5,9,7,3,1,2
0.965,1,3,4,2,4,1,3,2
0.97,2,1,0,1,1,0,2,0
0.975,2,5,5,5,3,6,6,4
0.98,1,4,13,3,3,1,1,0
0.985,3,5,16,4,2,0,0,2
0.99,1,0,4,11,1,1,1,3
0.995,5,7,12,23,13,6,6,4
1,2,1,0,12,2,2,4,0
1.005,3,5,8,1,2,2,2,2
1.01,1,1,2,3,2,0,3,0
1.015,1,1,0,3,1,0,0,1
1.02,5,6,5,2,4,4,6,3
1.025,2,1,4,1,0,0,2,2
1.03,0,3,2,9,2,0,1,1
1.035,0,0,1,1,1,0,1,2
1.04,1,2,1,10,3,1,1,1
1.045,2,4,5,2,1,2,1,3
1.05,1,0,2,6,0,2,4,3
1.055,1,0,1,1,1,2,2,1
1.06,3,2,2,3,2,1,0,2
1.065,1,2,2,4,4,1,0,2
1.07,2,0,0,11,4,1,1,1
1.075,1,1,1,16,4,0,2,2
1.08,0,2,5,5,3,2,2,0
1.085,0,2,6,2,3,0,1,1
1.09,5,7,12,17,13,4,4,4
1.095,0,1,1,4,4,1,2,1
1.1,0,1,2,3,2,2,2,1
1.105,0,1,3,3,2,1,4,2
1.11,1,1,1,3,2,0,1,0
1.115,2,3,4,1,3,2,3,1
1.12,1,0,2,3,2,0,0,2
1.125,1,1,1,4,3,1,1,0
1.13,0,0,1,2,1,1,0,2
1.135,2,1,1,2,2,2,1,2
1.14,1,0,2,1,3,2,1,2
1.145,1,2,1,3,1,1,1,1
1.15,1,1,1,1,1,1,3,1
1.155,1,0,0,0,2,2,2,3
1.16,0,1,1,10,4,1,1,1
1.165,3,4,8,28,9,5,2,2
1.17,2,0,0,4,1,1,1,0
1.175,1,2,0,0,1,1,1,1
1.18,2,1,3,2,1,2,0,0
1.185,1,2,2,5,1,1,1,4
1.19,0,1,2,1,1,1,0,2
1.195,1,5,7,10,6,2,2,5
1.2,1,4,1,7,1,1,2,1
1.205,1,1,2,1,1,1,1,2
1.21,2,2,1,2,1,1,2,3
1.215,1,0,0,3,1,0,1,1
1.22,2,2,4,7,3,2,0,1
1.225,1,1,1,2,1,2,1,1
1.23,1,0,1,1,3,1,0,0
1.235,1,0,1,1,3,1,0,1
1.24,0,2,0,1,0,1,0,1
1.245,1,1,0,2,0,2,1,0
1.25,1,2,3,3,2,2,1,2
1.255,1,1,1,5,3,2,2,1
1.26,2,1,6,15,9,3,4,3
1.265,1,0,1,3,1,1,1,0
1.27,2,1,2,4,1,0,0,1
1.275,1,4,2,0,0,1,2,2
1.28,0,2,0,1,1,1,0,1
1.285,2,4,2,1,0,1,1,1
1.29,1,3,0,2,2,3,1,1
1.295,1,1,1,7,5,3,1,1
1.3,5,4,7,22,10,5,4,4
1.305,3,2,2,4,2,1,2,2
1.31,0,0,0,0,1,1,2,2
1.315,0,0,1,2,0,2,1,2
1.32,0,0,0,4,1,1,1,1
1.325,2,1,2,3,1,0,1,1
1.33,3,0,1,0,3,3,4,0
1.335,1,0,0,1,1,1,0,0
1.34,1,1,1,1,1,1,1,1
1.345,3,2,3,1,2,0,1,2
1.35,2,2,0,2,1,1,0,1
1.355,2,1,3,8,3,2,2,3
1.36,1,1,2,3,0,1,1,3
1.365,1,1,2,2,1,0,2,0
1.37,2,2,3,8,1,1,1,0
1.375,1,1,2,3,3,0,2,2
1.38,3,1,1,4,0,1,2,1
1.385,0,1,0,1,1,1,1,0
1.39,0,1,1,3,1,0,2,2
1.395,4,5,6,8,4,3,2,2
1.4,1,1,0,3,1,0,1,1
1.405,1,2,4,2,0,1,3,1
1.41,2,2,1,2,1,0,0,0
1.415,1,1,1,3,1,1,1,1
1.42,2,2,0,0,0,1,3,1
1.425,0,2,2,2,2,0,0,3
1.43,1,0,3,2,1,2,0,1
1.435,0,1,1,3,1,0,3,1
1.44,0,1,2,0,0,2,0,1
1.445,1,1,0,1,1,2,1,2
1.45,3,1,1,1,0,2,1,2
1.455,0,3,0,1,2,0,1,1
1.46,1,1,4,2,1,2,3,0
1.465,2,1,1,0,0,1,3,2
1.47,1,1,0,1,3,1,1,0
1.475,2,2,0,5,1,1,2,2
1.48,1,2,1,1,0,1,1,1
1.485,1,2,2,0,1,1,1,1
1.49,0,1,2,1,1,1,0,2
1.495,1,1,0,2,3,0,1,1
1.5,1,1,2,0,0,1,1,0
1.505,0,3,1,2,3,2,1,1
1.51,0,3,2,2,1,0,1,1
1.515,1,0,3,1,3,1,1,0
1.52,2,1,1,0,1,0,0,2
1.525,1,1,2,2,3,4,2,2
1.53,2,0,2,1,2,2,1,1
1.535,2,0,1,1,1,0,0,3
1.54,1,1,1,1,0,2,1,1
1.545,0,1,0,2,1,0,3,0
1.55,2,0,0,0,1,0,2,1
1.555,2,3,2,0,1,3,0,0
1.56,0,1,0,0,0,1,2,1
1.565,1,2,1,3,0,0,1,0
1.57,0,1,3,0,1,2,2,1
1.575,0,1,0,1,2,1,1,1
1.58,2,2,2,4,2,1,2,2
1.585,1,2,1,3,2,0,0,2
1.59,0,0,2,1,1,1,1,2
1.595,2,3,1,0,1,1,1,1
1.6,2,2,2,2,1,1,1,1
1.605,1,2,0,0,1,2,1,0
1.61,2,1,0,2,1,1,0,2
1.615,0,1,2,1,0,0,3,1
1.62,2,0,2,1,1,1,1,0
1.625,2,0,1,1,0,1,2,2
1.63,1,2,1,2,1,0,1,2
1.635,0,1,3,0,4,1,0,1
1.64,1,2,1,1,1,1,1,1
1.645,2,2,1,1,1,0,0,1
1.65,0,4,0,2,1,2,1,2
1.655,0,3,1,1,0,1,3,1
1.66,0,1,1,2,2,2,1,1
1.665,2,2,1,0,2,2,2,2
1.67,2,0,2,1,1,1,2,1
1.675,3,1,2,4,3,0,1,3
1.68,2,1,1,2,1,1,0,1
1.685,1,3,0,1,0,1,0,1
1.69,0,1,0,1,2,0,2,0
1.695,1,2,1,0,0,2,0,1
1.7,1,1,1,2,1,2,2,2
1.705,2,1,0,0,1,0,0,1
1.71,2,1,3,2,0,2,1,1
1.715,2,1,0,2,2,1,3,1
1.72,1,1,0,0,3,1,1,1
1.725,1,1,1,2,1,1,2,0
1.73,1,1,2,2,1,0,0,2
1.735,0,0,1,1,0,1,1,2
1.74,1,1,2,3,0,1,1,1
1.745,0,0,1,1,2,2,3,1
1.75,2,3,1,1,2,0,1,1
1.755,1,0,1,1,0,0,1,1
1.76,1,2,0,1,0,1,1,1
1.765,1,1,3,1,0,1,1,0
1.77,1,1,3,2,2,0,1,2
1.775,1,1,1,1,1,2,2,0
1.78,1,0,2,1,2,0,0,1
1.785,0,2,0,2,0,0,1,1
1.79,1,1,0,1,2,2,2,1
1.795,2,1,0,2,1,1,0,1
1.8,0,0,1,1,2,0,3,1
1.805,1,1,1,2,0,1,0,2
1.81,2,1,0,1,2,1,1,2
1.815,3,4,2,2,1,1,1,2
1.82,1,1,2,2,0,3,2,1
1.825,2,1,2,1,2,3,3,0
1.83,1,0,1,2,1,1,3,2
1.835,1,1,1,0,0,3,2,1
1.84,1,1,1,3,0,1,0,0
1.845,0,3,1,1,2,1,1,1
1.85,0,0,1,0,2,3,1,0
1.855,0,1,1,3,1,2,2,1
1.86,2,0,2,1,1,1,0,1
1.865,1,1,2,0,2,0,0,2
1.87,3,3,2,3,1,0,1,1
1.875,0,0,1,0,1,0,2,2
1.88,0,0,0,0,1,2,1,0
1.885,1,0,1,0,2,0,2,0
1.89,0,2,0,1,1,3,1,1
1.895,1,2,2,1,2,2,1,2
1.9,1,1,1,1,1,2,2,3
1.905,1,2,1,3,0,3,2,2
1.91,2,2,0,1,0,2,1,1
1.915,1,0,1,1,1,1,1,4
1.92,2,2,2,1,1,0,1,1
1.925,3,1,1,0,1,1,1,1
1.93,2,1,0,2,0,0,1,1
1.935,1,0,2,2,0,2,1,0
1.94,0,2,1,2,1,1,2,0
1.945,0,0,1,0,2,1,1,3
1.95,0,0,0,1,1,1,1,3
1.955,0,1,2,0,1,1,1,1
1.96,1,3,0,3,2,2,1,2
1.965,1,2,2,1,2,2,1,0
1.97,1,1,0,2,1,1,1,0
1.975,2,0,1,1,0,1,1,0
1.98,2,1,1,1,1,1,1,2
1.985,1,0,2,2,1,0,1,1
1.99,0,1,0,1,2,0,0,2
1.995,1,1,1,1,1,0,0,1
2,1,1,1,0,2,1,1,1
2.005,1,3,3,2,1,1,0,1
2.01,0,0,2,0,1,2,1,1
2.015,0,0,1,0,1,1,1,0
2.02,1,2,0,2,0,2,3,1
2.025,2,2,1,2,1,0,0,2
2.03,3,0,1,1,1,2,0,1
2.035,2,1,2,0,2,1,1,0
2.04,2,1,1,2,0,0,1,1
2.045,1,2,3,1,0,2,2,1
2.05,3,1,1,0,0,3,2,2
2.055,1,2,0,3,1,2,1,1
2.06,1,0,1,1,2,0,0,3
2.065,1,0,1,0,1,1,0,0
2.07,1,1,2,2,0,1,0,0
2.075,1,2,2,0,1,3,1,2
2.08,2,1,2,1,0,3,1,0
2.085,1,2,1,2,1,2,2,0
2.09,1,0,1,0,0,1,1,0
2.095,2,0,1,1,1,0,2,2
2.1,1,1,1,1,2,1,2,0
2.105,2,0,1,0,3,1,0,1
2.11,1,2,2,0,2,0,1,1
2.115,2,1,0,2,1,1,0,1
2.12,3,1,1,0,0,1,0,0
2.125,1,3,0,2,2,2,1,1
2.13,1,3,1,2,0,0,2,2
2.135,2,1,2,0,2,1,1,2
2.14,2,2,2,2,1,2,0,1
2.145,2,2,1,0,2,1,1,1
2.15,0,0,1,0,2,1,0,1
2.155,0,0,0,1,2,1,3,0
2.16,0,0,2,1,0,1,1,0
2.165,1,1,0,2,0,3,1,2
2.17,1,0,1,3,1,0,1,1
2.175,1,2,3,0,1,1,1,1
2.18,1,2,1,0,3,1,0,2
2.185,2,1,2,0,1,1,2,1
2.19,0,2,0,0,1,1,2,2
2.195,0,1,1,1,2,1,2,2
2.2,1,0,0,1,1,0,2,1
2.205,0,1,0,2,3,1,1,1
2.21,3,1,0,2,1,0,1,1
2.215,2,2,1,1,2,0,2,2
2.22,0,1,2,1,1,4,3,0
2.225,1,1,3,0,1,0,1,2
2.23,2,1,2,1,1,1,1,0
2.235,1,3,2,2,2,1,1,1
2.24,0,2,1,1,2,1,1,2
2.245,3,1,1,1,2,3,2,2
2.25,1,1,2,1,2,1,1,0
2.255,1,1,0,1,0,1,0,1
2.26,1,0,1,1,1,0,2,3
2.265,2,3,2,1,0,2,0,0
2.27,1,1,1,0,0,1,1,1
2.275,1,1,1,3,1,1,1,2
2.28,3,1,1,1,1,0,2,1
2.285,1,1,0,1,1,0,1,1
2.29,1,1,2,1,1,3,0,1
2.295,1,0,1,1,0,2,1,0
2.3,0,2,0,1,0,1,1,3
2.305,2,2,2,1,1,1,0,1
2.31,0,1,2,0,1,1,1,2
2.315,1,2,1,2,1,1,1,1
2.32,0,0,0,2,1,2,1,1
2.325,0,0,1,2,1,2,1,0
2.33,2,2,1,1,0,2,2,2
2.335,2,0,0,1,0,1,1,2
2.34,1,0,0,1,2,0,0,0
2.345,1,1,0,1,2,1,3,2
2.35,0,2,0,2,1,1,1,0
2.355,2,2,2,1,0,2,0,1
2.36,1,1,1,2,1,0,1,0
2.365,2,0,1,1,2,2,1,3
2.37,1,1,0,2,2,1,0,1
2.375,1,2,2,1,2,3,1,0
2.38,2,1,4,1,0,0,2,0
2.385,1,2,1,0,1,0,2,1
2.39,2,1,1,1,2,0,1,0
2.395,1,2,1,0,1,2,1,2
2.4,2,1,1,3,2,1,0,1
2.405,1,2,1,3,0,2,0,1
2.41,1,1,1,1,0,1,2,0
2.415,1,1,1,1,4,2,1,2
2.42,1,0,2,2,2,0,1,1
2.425,2,1,2,0,0,0,0,1
2.43,1,1,2,1,1,2,1,2
2.435,0,0,1,1,1,1,3,1
2.44,0,2,0,0,0,3,2,3
2.445,1,2,2,1,2,1,3,1
2.45,1,1,2,0,1,2,2,2
2.455,0,1,0,0,1,0,0,0
2.46,3,1,0,0,1,2,1,2
2.465,0,0,3,0,1,0,2,0
2.47,0,1,1,0,1,0,1,0
2.475,0,2,2,1,0,2,2,1
2.48,1,1,1,1,1,2,0,1
2.485,1,3,1,1,3,2,1,0
2.49,1,2,1,2,2,1,2,0
2.495,2,0,0,1,1,3,2,0
2.5,2,1,0,2,1,2,0,3
2.505,1,2,0,2,1,1,3,1
2.51,1,2,1,1,1,1,1,1
2.515,1,1,1,2,0,2,1,0
2.52,2,1,3,2,2,0,2,1
2.525,1,1,0,0,1,0,1,0
2.53,3,1,0,2,0,1,1,1
2.535,1,1,2,4,0,0,0,1
2.54,0,3,2,1,1,1,1,1
2.545,0,1,1,0,2,0,3,2
2.55,0,1,1,1,2,2,1,1
2.555,2,1,2,0,1,1,1,1
2.56,1,0,1,1,1,0,1,0
2.565,1,2,1,2,2,0,1,1
2.57,2,3,1,1,2,1,1,1
2.575,1,0,0,2,1,0,2,3
2.58,1,4,0,3,1,1,0,0
2.585,2,1,1,2,0,2,1,2
2.59,3,1,0,0,0,2,1,1
2.595,0,1,1,1,3,3,1,2
2.6,2,1,1,0,0,0,3,0
2.605,0,1,1,1,0,0,0,1
2.61,2,1,1,1,1,1,1,1
2.615,2,2,2,1,1,1,1,1
2.62,1,2,2,1,0,0,1,0
2.625,1,1,0,0,2,2,3,0
2.63,2,1,0,1,2,1,1,1
2.635,3,2,1,1,2,0,1,1
2.64,1,0,4,1,1,2,1,2
2.645,0,0,2,2,1,1,1,1
2.65,0,1,1,3,1,0,2,1
2.655,1,2,2,0,2,3,0,1
2.66,2,1,1,2,0,0,2,1
2.665,2,0,0,1,0,0,2,1
2.67,1,3,2,0,1,1,2,1
2.675,1,2,1,1,1,0,1,1
2.68,2,1,2,1,1,0,1,1
2.685,2,1,1,1,1,1,1,1
2.69,1,0,1,2,1,0,1,3
2.695,0,1,2,2,1,2,1,2
2.7,1,1,1,0,0,3,1,3
2.705,1,3,1,1,2,1,1,1
2.71,1,1,3,1,4,1,1,1
2.715,1,1,2,1,2,2,1,1
2.72,1,0,1,0,2,1,0,0
2.725,0,0,1,1,0,1,2,0
2.73,0,2,1,0,0,1,0,3
2.735,3,1,1,2,1,1,1,1
2.74,2,1,1,1,3,1,1,1
2.745,1,1,0,2,0,2,2,2
2.75,1,1,3,1,1,1,1,2
2.755,2,1,1,1,1,1,1,2
2.76,0,2,1,1,2,2,2,2
2.765,1,1,1,3,0,3,2,1
2.77,2,1,0,1,1,0,1,1
2.775,1,0,2,1,0,2,1,1
2.78,1,2,2,1,2,0,1,3
2.785,1,2,2,1,2,0,1,1
2.79,0,1,3,1,1,3,1,1
2.795,1,1,1,1,3,0,1,0
2.8,2,0,0,1,2,1,1,0
2.805,0,0,0,2,3,2,1,1
2.81,1,0,1,1,1,0,1,0
2.815,0,0,0,1,0,3,3,2
2.82,0,1,2,3,0,3,1,1
2.825,1,1,0,0,0,0,0,2
2.83,1,2,1,0,1,1,2,2
2.835,1,1,2,1,1,1,1,0
2.84,0,2,1,1,0,2,3,0
2.845,1,1,2,2,1,1,2,0
2.85,1,2,0,1,0,2,2,1
2.855,2,1,1,0,2,1,3,0
2.86,2,2,0,1,2,1,0,2
2.865,0,0,2,2,2,2,1,1
2.87,0,1,1,1,0,1,1,0
2.875,1,2,1,2,2,2,3,2
2.88,1,1,2,2,2,1,2,0
2.885,1,1,2,1,1,0,1,3
2.89,0,2,2,2,0,1,1,2
2.895,3,1,1,2,0,2,1,1
2.9,1,2,0,0,1,2,0,1
2.905,2,1,1,2,1,2,1,1
2.91,1,2,1,2,2,2,1,1
2.915,2,1,2,1,1,1,1,0
2.92,0,2,0,1,0,2,0,1
2.925,1,2,1,0,1,1,1,0
2.93,1,1,2,2,2,3,1,0
2.935,2,1,2,1,2,2,1,1
2.94,2,2,1,3,1,1,0,2
2.945,2,2,1,1,2,1,1,1
2.95,2,1,1,1,0,2,2,2
2.955,1,0,0,3,1,1,0,4
2.96,2,0,1,2,0,0,1,2
2.965,1,0,0,2,1,2,0,0
2.97,2,0,1,1,1,0,1,2
2.975,2,1,1,1,2,1,2,0
2.98,1,0,4,0,3,0,1,2
2.985,1,0,1,2,0,0,1,0
2.99,1,2,2,1,1,1,2,1
2.995,1,1,2,2,1,0,2,1
3,2,1,0,0,0,1,2,0
3.005,0,2,3,0,1,0,2,2
3.01,2,0,1,2,2,2,0,2
3.015,0,2,1,0,1,3,0,1
3.02,2,2,1,1,2,1,2,1
3.025,1,0,1,1,1,1,2,0
3.03,3,1,2,1,2,1,0,2
3.035,1,1,0,0,0,1,1,1
3.04,2,2,0,0,0,2,1,1
3.045,1,1,3,1,2,3,1,1
3.05,2,2,1,0,2,1,0,1
3.055,0,0,0,0,3,2,1,0
3.06,1,2,2,0,2,1,1,1
3.065,2,3,0,3,2,1,1,2
3.07,0,0,1,0,0,2,0,1
3.075,0,0,2,2,0,2,1,0
3.08,1,3,1,2,1,1,1,1
3.085,1,1,2,0,2,2,1,1
3.09,2,1,3,0,3,0,1,2
3.095,0,2,2,2,1,2,1,3
3.1,0,1,0,1,2,0,0,1
3.105,2,1,0,0,1,0,2,0
3.11,1,1,0,3,3,2,1,3
3.115,1,3,2,1,3,1,3,2
3.12,2,1,2,3,1,3,1,0
3.125,1,0,0,1,2,1,1,1
3.13,0,2,1,2,0,2,1,1
3.135,1,0,0,2,0,2,2,0
3.14,0,0,2,2,1,1,0,1
3.145,2,0,3,1,2,2,1,0
3.15,1,1,2,0,1,0,1,2
3.155,0,2,1,1,1,1,0,1
3.16,1,1,1,2,3,2,0,2
3.165,0,2,0,0,0,2,0,2
3.17,1,2,0,2,2,2,1,0
3.175,1,2,1,1,2,0,2,0
3.18,2,1,0,1,1,0,3,1
3.185,0,0,2,0,1,1,1,2
3.19,1,0,2,1,0,1,0,2
3.195,1,1,0,0,0,1,1,3
3.2,1,1,1,1,1,1,2,0
3.205,1,0,3,3,0,1,2,1
3.21,2,0,2,1,1,2,2,2
3.215,1,1,1,3,1,1,0,2
3.22,1,1,1,3,0,0,1,0
3.225,1,1,1,5,2,1,1,0
3.23,1,1,1,4,0,2,1,0
3.235,2,0,3,0,1,2,2,0
3.24,1,3,0,1,2,2,2,0
3.245,1,1,1,0,2,0,2,1
3.25,2,1,2,2,1,0,1,1
3.255,0,1,0,1,0,1,1,1
3.26,1,0,1,4,0,3,1,3
3.265,1,5,0,1,3,2,2,1
3.27,1,1,2,1,1,1,0,1
3.275,3,5,5,1,5,4,4,2
3.28,1,1,1,4,0,1,2,0
3.285,2,1,1,0,0,1,1,2
3.29,1,0,0,3,0,0,1,1
3.295,2,1,3,3,0,0,0,1
3.3,2,1,5,4,4,2,4,2
3.305,1,1,1,1,1,0,1,1
3.31,0,3,3,4,0,0,1,1
3.315,4,2,5,5,4,4,2,1
3.32,4,2,1,1,3,2,5,1
3.325,1,1,7,3,0,1,0,0
3.33,0,1,0,6,2,3,3,1
3.335,1,0,7,4,2,2,1,1
3.34,1,2,12,2,2,0,0,1
3.345,4,7,17,4,5,3,3,1
3.35,3,1,5,6,5,1,3,3
3.355,2,0,5,2,0,2,2,1
3.36,9,11,10,6,2,5,5,8
3.365,2,3,3,2,4,0,1,2
3.37,6,4,0,8,1,2,0,1
3.375,2,7,11,0,2,2,4,0
3.38,5,3,0,5,13,1,2,2
3.385,4,0,1,5,1,0,1,1
3.39,0,1,9,2,3,3,3,2
3.395,0,2,18,0,2,1,1,1
3.4,4,4,5,0,1,7,3,2
3.405,2,2,11,4,2,0,3,2
3.41,3,9,26,13,5,2,1,0
3.415,3,7,2,2,0,1,1,1
3.42,0,6,9,3,1,2,3,0
3.425,2,0,7,2,3,0,2,2
3.43,2,1,5,0,1,1,2,1
3.435,1,1,3,2,0,1,1,1
3.44,2,5,4,8,2,1,2,2
3.445,1,3,15,5,5,5,1,0
3.45,3,1,6,3,4,1,1,2
3.455,4,12,37,4,3,4,4,3
3.46,4,3,5,21,7,0,6,2
3.465,3,10,14,3,6,2,3,3
3.47,7,11,11,5,5,1,7,3
3.475,1,6,14,14,1,0,1,2
3.48,4,2,7,7,5,1,2,2
3.485,3,7,6,7,5,2,3,4
3.49,2,6,8,2,0,1,1,0
3.495,1,3,1,2,1,1,1,0
3.5,1,1,7,7,0,0,1,2
3.505,4,7,19,5,4,2,0,1
3.51,2,2,12,9,1,1,0,1
3.515,4,5,11,14,1,1,3,3
3.52,2,3,10,5,0,2,2,2
3.525,3,7,11,6,0,1,2,3
3.53,8,18,36,22,9,3,6,4
3.535,8,1,4,4,2,0,0,0
3.54,6,5,28,2,3,6,6,5
3.545,3,6,20,8,2,2,9,4
3.55,3,1,4,4,3,0,4,2
3.555,1,2,2,8,1,4,5,2
3.56,0,6,4,3,0,1,3,2
3.565,1,3,18,6,2,2,0,0
3.57,1,2,10,1,1,2,4,3
3.575,3,9,30,6,3,0,3,3
3.58,4,9,38,20,1,2,0,0
3.585,0,2,12,14,1,1,1,1
3.59,1,6,4,5,2,1,1,1
3.595,10,20,18,7,7,2,6,6
3.6,0,1,14,1,1,1,1,2
3.605,0,1,8,3,1,1,2,1
3.61,1,1,2,5,1,4,1,4
3.615,5,10,16,2,1,4,1,1
3.62,2,6,2,6,6,1,0,1
3.625,1,1,1,6,1,2,1,1
3.63,0,0,0,24,8,1,3,0
3.635,5,2,0,18,2,3,3,4
3.64,1,1,8,5,1,2,2,3
3.645,2,7,5,5,6,3,1,0
3.65,4,3,5,15,9,1,0,1
3.655,2,2,2,33,11,3,1,1
3.66,1,1,2,6,1,0,2,1
3.665,4,5,5,3,0,2,3,2
3.67,4,6,17,2,0,0,2,2
3.675,1,0,6,4,6,3,3,1
3.68,2,2,3,11,2,0,2,2
3.685,0,2,6,11,2,3,1,1
3.69,1,2,14,4,4,1,4,1
3.695,3,1,7,5,5,4,3,3
3.7,3,3,8,5,3,1,2,3
3.705,3,2,9,2,1,0,2,3
3.71,1,1,14,16,3,2,0,1
3.715,4,6,10,17,1,2,7,4
3.72,2,3,8,5,5,0,1,2
3.725,6,6,15,1,0,7,4,4
3.73,5,5,2,12,5,2,0,2
3.735,8,13,22,33,30,11,6,7
3.74,3,2,2,14,9,1,6,4
3.745,5,4,2,1,1,5,11,1
3.75,3,0,0,1,4,2,6,4
3.755,3,0,3,8,7,1,1,2
3.76,0,0,4,33,24,1,2,2
3.765,5,11,31,56,32,7,5,6
3.77,2,1,2,10,2,3,1,0
3.775,1,4,4,0,5,0,1,0
3.78,1,1,4,4,3,6,5,3
3.785,4,3,7,12,1,2,0,3
3.79,3,2,14,17,6,5,4,0
3.795,10,10,3,10,10,2,2,2
3.8,6,7,13,16,11,3,4,3
3.805,2,4,4,6,1,6,7,1
3.81,1,2,7,16,12,4,3,1
3.815,3,5,2,7,4,7,4,2
3.82,0,1,7,1,23,1,0,5
3.825,5,6,7,16,31,0,0,2
3.83,4,3,4,2,4,8,6,5
3.835,2,1,5,0,2,7,5,3
3.84,3,6,9,17,14,2,4,4
3.845,2,0,6,13,15,5,5,4
3.85,3,5,3,0,2,2,0,2
3.855,0,0,4,4,4,4,5,0
3.86,0,0,2,6,10,1,2,3
3.865,1,10,4,11,11,2,2,2
3.87,4,8,5,6,7,2,0,4
3.875,1,4,4,2,1,1,2,0
3.88,1,8,1,2,7,0,0,1
3.885,2,1,3,2,2,0,1,1
3.89,2,4,8,11,3,5,5,2
3.895,1,1,2,3,5,3,2,1
3.9,2,2,2,8,5,0,1,1
3.905,0,3,0,4,3,2,2,1
3.91,2,1,1,6,3,1,3,3
3.915,1,2,2,5,4,2,3,2
3.92,3,4,4,8,10,3,3,3
3.925,1,1,2,13,8,0,0,2
3.93,1,0,1,8,6,3,1,1
3.935,1,0,2,2,5,6,2,1
3.94,2,2,1,1,2,1,1,1
3.945,1,2,2,3,1,1,1,1
3.95,1,3,0,6,2,1,0,1
3.955,4,2,3,10,7,4,6,3
3.96,4,2,6,2,4,4,3,3
3.965,1,1,1,0,0,2,2,0
3.97,1,2,0,1,2,0,2,2
3.975,1,4,2,6,3,1,2,4
3.98,0,0,0,3,0,2,2,1
3.985,3,1,0,2,1,3,4,1
3.99,0,1,1,1,1,2,2,2
3.995,1,1,6,5,0,2,1,4
4,1,1,2,3,1,4,2,2
4.005,3,3,1,3,9,5,1,0
4.01,1,0,1,5,0,6,0,0
4.015,0,3,1,3,1,5,3,0
4.02,12,6,3,9,4,1,4,6
4.025,9,5,2,8,2,1,2,2
4.03,1,4,8,5,5,2,5,7
4.035,6,1,3,6,2,7,4,3
4.04,4,4,2,6,2,1,3,0
4.045,8,9,2,8,1,0,2,5
4.05,7,10,6,6,2,1,2,5
4.055,2,3,3,3,0,11,1,1
4.06,13,3,3,1,4,15,3,0
4.065,16,6,2,9,2,25,2,5
4.07,14,4,1,16,1,26,0,2
4.075,10,6,2,2,1,12,4,4
4.08,10,1,3,3,3,1,3,1
4.085,22,2,7,2,3,10,4,4
4.09,14,6,5,12,1,13,1,3
4.095,25,1,8,12,3,16,1,4
4.1,40,1,19,24,7,27,0,3
4.105,20,20,26,27,1,81,4,2
4.11,7,12,11,36,9,74,2,5
4.115,4,12,7,23,10,66,5,5
4.12,7,9,11,6,0,25,16,17
4.125,18,9,4,9,5,6,2,5
4.13,27,11,3,9,2,16,1,6
4.135,3,3,1,8,2,16,0,8
4.14,25,5,0,10,2,15,8,8
4.145,1,2,7,20,7,25,1,3
4.15,14,5,8,5,1,19,2,8
4.155,4,1,8,11,4,20,4,0
4.16,17,5,0,1,6,19,6,3
4.165,27,7,2,1,1,17,6,0
4.17,2,8,6,10,4,7,0,1
4.175,1,7,24,1,5,4,8,3
4.18,8,1,2,8,2,10,2,9
4.185,2,0,8,1,0,2,3,5
4.19,7,3,14,8,1,5,1,0
4.195,4,1,5,2,4,1,3,1
4.2,4,2,14,6,3,4,2,4
4.205,13,0,17,2,0,4,1,1
4.21,2,4,8,4,1,1,1,7
4.215,5,4,3,4,1,5,4,4
4.22,5,6,8,6,9,13,7,0
4.225,5,0,1,2,0,5,1,0
4.23,3,2,3,2,0,2,2,8
4.235,3,1,0,4,3,4,2,8
4.24,10,5,0,3,1,4,1,5
4.245,1,3,2,4,4,1,3,9
4.25,23,18,19,14,8,2,9,17
4.255,3,1,1,0,5,9,5,9
4.26,4,5,1,6,1,8,3,3
4.265,4,9,9,11,4,1,3,1
4.27,6,1,4,15,11,1,11,17
4.275,5,3,1,3,2,1,5,7
4.28,4,4,9,5,9,5,8,3
4.285,8,5,11,14,19,1,1,3
4.29,3,6,7,15,4,0,1,5
4.295,2,5,1,10,3,1,5,0
4.3,1,2,5,9,3,0,3,3
4.305,14,6,9,13,4,4,4,3
4.31,8,0,1,0,1,6,11,13
4.315,3,0,2,2,2,1,10,1
4.32,3,4,3,0,3,0,2,3
4.325,9,7,4,4,5,1,0,1
4.33,5,8,2,1,2,3,3,1
4.335,6,6,6,25,3,2,5,8
4.34,6,5,3,18,4,1,0,4
4.345,2,1,12,12,6,4,3,1
4.35,7,9,0,2,3,4,0,5
4.355,3,1,3,14,5,2,5,4
4.36,4,4,0,7,2,10,3,6
4.365,5,3,2,10,4,3,1,3
4.37,6,3,4,7,7,10,2,3
4.375,2,3,1,1,2,0,1,2
4.38,5,6,4,7,3,6,3,6
4.385,0,4,6,20,5,5,1,2
4.39,1,2,1,3,5,9,2,1
4.395,3,3,0,9,3,4,7,2
4.4,0,2,4,10,2,7,2,1
4.405,6,4,2,16,1,0,2,3
4.41,2,1,1,8,12,3,7,0
4.415,5,4,3,1,5,1,3,4
4.42,0,5,8,3,3,3,5,5
4.425,1,3,9,9,0,7,4,4
4.43,11,13,25,37,15,11,7,7
4.435,5,5,14,26,18,0,4,0
4.44,18,15,21,12,10,5,4,8
4.445,7,11,23,2,6,5,2,6
4.45,3,7,10,19,1,8,0,2
4.455,2,2,6,12,6,4,1,2
4.46,3,0,1,18,1,7,6,0
4.465,3,3,13,9,2,2,1,6
4.47,0,2,1,9,13,10,5,2
4.475,2,2,0,8,13,7,1,3
4.48,4,9,13,27,24,8,4,6
4.485,2,4,9,2,17,4,5,2
4.49,1,2,4,9,7,15,6,2
4.495,4,3,3,5,6,12,2,3
4.5,9,13,15,8,12,17,9,9
4.505,2,1,4,12,20,5,0,0
4.51,12,16,20,23,22,10,13,13
4.515,12,25,36,30,27,24,14,8
4.52,0,0,2,26,15,17,8,3
4.525,4,4,5,18,8,5,5,5
4.53,2,7,10,17,21,3,4,4
4.535,6,0,5,0,5,5,0,6
4.54,5,3,7,21,9,7,3,1
4.545,0,2,14,40,17,5,4,2
4.55,4,0,8,11,5,8,5,4
4.555,2,0,4,9,3,4,2,0
4.56,1,3,3,16,20,14,2,2
4.565,2,9,16,12,7,4,4,3
4.57,6,3,4,4,2,1,1,2
4.575,7,4,4,16,13,3,6,5
4.58,1,6,20,19,17,35,7,3
4.585,7,19,34,20,19,29,3,3
4.59,3,4,1,17,6,3,2,4
4.595,3,6,30,28,10,11,2,0
4.6,9,16,31,33,21,7,9,8
4.605,4,14,24,21,9,10,1,0
4.61,11,17,25,21,16,0,5,3
4.615,14,20,26,17,7,19,4,0
4.62,0,5,18,6,3,13,5,2
4.625,4,10,14,15,14,15,8,7
4.63,1,0,3,4,31,38,15,5
4.635,4,6,14,19,9,13,1,2
4.64,2,7,10,9,5,3,2,3
4.645,4,10,15,19,6,6,5,2
4.65,3,2,5,2,7,14,6,2
4.655,6,3,0,1,3,1,5,3
4.66,2,2,13,6,47,47,12,7
4.665,1,2,3,1,8,14,7,5
4.67,6,8,6,6,25,23,11,9
4.675,4,1,4,6,8,11,7,3
4.68,3,3,6,9,12,6,4,2
4.685,1,3,9,3,2,2,1,1
4.69,14,17,22,15,5,6,8,11
4.695,3,2,0,4,21,37,15,6
4.7,1,0,4,2,7,11,4,1
4.705,1,4,10,10,8,12,3,3
4.71,3,8,9,10,2,7,2,3
4.715,3,8,4,13,2,1,3,0
4.72,5,7,7,18,16,3,3,8
4.725,1,5,1,3,5,2,1,1
4.73,6,11,10,3,9,11,9,7
4.735,8,9,12,8,10,1,6,5
4.74,2,3,3,7,17,17,5,0
4.745,3,3,3,10,3,9,4,3
4.75,2,5,4,7,0,3,2,1
4.755,3,6,2,4,14,7,5,3
4.76,1,8,5,3,6,2,5,0
4.765,7,10,3,0,7,4,5,3
4.77,10,2,3,10,9,12,6,5
4.775,12,13,24,19,17,11,9,6
4.78,8,11,9,13,1,5,2,2
4.785,3,10,8,22,3,0,0,1
4.79,2,13,37,37,18,21,3,1
4.795,6,14,31,2,17,20,6,6
4.8,10,3,11,27,27,5,10,8
4.805,2,1,1,5,5,6,7,3
4.81,3,3,1,16,12,8,1,1
4.815,4,7,4,12,11,7,0,0
4.82,1,2,4,11,6,5,3,3
4.825,4,4,2,14,17,16,5,4
4.83,2,2,10,5,14,6,3,2
4.835,6,7,6,1,9,7,0,2
4.84,2,8,5,3,15,2,2,0
4.845,2,1,4,5,28,10,6,3
4.85,2,6,14,18,9,3,2,1
4.855,2,7,14,15,14,3,1,2
4.86,5,3,2,3,7,7,3,3
4.865,9,3,1,11,19,5,7,10
4.87,2,6,1,5,7,16,6,5
4.875,1,8,8,11,16,13,9,4
4.88,9,3,1,9,5,9,2,0
4.885,1,2,4,10,7,7,3,5
4.89,0,5,4,1,4,8,0,3
4.895,7,7,6,3,15,7,9,14
4.9,4,3,5,2,2,2,0,3
4.905,3,12,2,1,4,2,2,1
4.91,5,4,4,6,9,4,2,1
4.915,1,5,2,3,1,1,1,5
4.92,2,1,7,10,4,2,2,2
4.925,1,6,7,3,14,6,1,0
4.93,0,4,4,8,10,4,2,1
4.935,0,3,5,6,3,2,2,1
4.94,7,1,2,6,29,7,5,1
4.945,0,1,6,1,5,0,6,2
4.95,1,6,13,19,2,5,8,3
4.955,17,41,19,20,5,2,2,1
4.96,9,28,10,12,11,13,7,8
4.965,16,20,2,6,13,6,3,6
4.97,8,7,2,9,17,16,10,9
4.975,4,3,4,7,30,20,7,6
4.98,14,12,2,0,7,2,2,1
4.985,6,7,1,1,13,2,1,1
4.99,9,22,4,3,18,12,5,2
4.995,4,1,2,4,3,4,2,2
5,1,7,8,9,10,9,2,1
5.005,0,3,10,8,17,8,3,0
5.01,7,10,1,3,1,3,3,10
5.015,12,20,10,0,11,7,4,13
5.02,19,20,3,7,35,28,12,10
5.025,64,61,21,13,16,20,32,63
5.03,3,3,1,5,4,4,0,5
5.035,5,17,1,0,13,10,0,5
5.04,14,7,8,9,4,0,6,18
5.045,31,40,14,3,2,5,8,22
5.05,5,20,23,5,7,9,7,6
5.055,8,6,4,2,3,5,1,3
5.06,5,9,2,2,7,15,5,5
5.065,3,10,6,7,4,10,5,3
5.07,4,8,12,1,8,9,19,20
5.075,17,19,4,20,12,2,9,15
5.08,30,17,12,11,19,5,13,22
5.085,5,13,22,13,8,7,3,7
5.09,17,12,21,5,36,20,18,31
5.095,26,14,18,13,1,4,26,58
5.1,29,12,25,8,9,4,24,76
5.105,23,18,32,18,14,6,7,26
5.11,17,26,20,8,10,12,46,52
5.115,18,16,10,10,0,4,6,17
5.12,5,5,7,2,3,1,7,28
5.125,43,37,8,10,5,6,26,50
5.13,20,38,8,4,8,3,6,2
5.135,23,5,2,3,13,4,30,41
5.14,12,43,25,25,33,20,4,12
5.145,28,13,10,7,17,7,11,29
5.15,11,42,27,5,20,10,18,32
5.155,26,29,23,21,1,6,26,40
5.16,0,13,2,7,9,10,9,5
5.165,2,5,5,3,12,11,8,6
5.17,7,18,15,1,2,1,1,19
5.175,23,10,3,9,6,3,11,33
5.18,13,3,2,1,5,13,28,56
5.185,4,1,5,2,0,5,13,9
5.19,4,7,5,2,0,5,1,2
5.195,10,4,13,13,8,13,24,34
5.2,6,9,3,7,12,8,2,6
5.205,9,2,8,6,36,22,32,35
5.21,3,13,13,1,41,20,20,25
5.215,0,11,0,4,1,2,5,11
5.22,1,6,4,17,0,2,10,21
5.225,3,3,4,23,7,3,4,4
5.23,8,23,13,1,18,12,11,14
5.235,2,5,14,9,14,6,31,43
5.24,4,12,2,0,8,6,34,52
5.245,7,12,12,22,6,1,18,10
5.25,7,16,11,22,14,0,1,4
5.255,3,1,5,15,7,6,10,13
5.26,0,5,18,12,9,9,35,42
5.265,3,9,8,14,9,2,3,5
5.27,2,3,4,11,13,12,11,3
5.275,9,14,19,16,2,2,4,13
5.28,6,5,8,11,6,9,20,39
5.285,10,15,27,9,5,7,9,27
5.29,3,6,14,19,3,0,9,13
5.295,2,4,6,15,10,6,7,19
5.3,8,1,17,14,2,1,4,7
5.305,4,0,8,12,1,4,13,20
5.31,3,6,16,9,11,7,7,1
5.315,1,1,1,11,7,9,21,24
5.32,1,3,5,6,1,1,7,13
5.325,1,12,10,19,14,12,16,19
5.33,14,20,6,17,10,2,5,5
5.335,2,5,7,28,22,15,3,3
5.34,3,4,7,13,2,12,1,12
5.345,1,10,1,8,8,3,0,1
5.35,3,12,2,10,1,1,4,2
5.355,7,7,3,15,1,3,6,4
5.36,2,0,5,7,2,6,16,6
5.365,8,2,4,19,8,4,1,7
5.37,13,5,7,7,6,1,2,20
5.375,6,3,2,13,11,5,12,28
5.38,6,13,2,3,1,0,3,1
5.385,10,5,7,6,9,6,7,5
5.39,4,6,6,6,1,2,8,31
5.395,12,9,8,1,5,5,21,32
5.4,2,7,6,4,9,8,4,2
5.405,9,21,6,10,3,1,5,4
5.41,8,2,6,5,0,1,2,7
5.415,4,18,3,2,2,3,2,6
5.42,0,1,12,15,4,1,1,8
5.425,2,4,5,10,4,2,4,5
5.43,0,4,3,6,14,10,8,0
5.435,9,10,9,31,10,5,7,3
5.44,3,5,11,16,14,3,5,0
5.445,32,2,1,4,9,3,7,1
5.45,20,7,3,1,2,3,0,12
5.455,7,5,15,26,10,3,2,8
5.46,24,8,8,19,9,4,4,0
5.465,1,1,11,10,6,3,3,7
5.47,18,4,4,3,1,0,2,9
5.475,1,1,2,2,4,2,0,5
5.48,6,2,1,6,7,6,5,10
5.485,11,0,6,6,3,1,1,2
5.49,4,4,5,10,4,3,2,3
5.495,4,0,6,8,15,10,4,2
5.5,3,9,16,20,6,3,2,3
5.505,2,3,15,2,1,0,11,6
5.51,15,14,53,70,32,17,24,18
5.515,17,3,1,13,2,3,7,2
5.52,19,21,8,8,13,9,14,7
5.525,12,8,12,12,14,10,18,22
5.53,4,2,17,14,1,1,9,0
5.535,13,16,0,5,5,3,6,4
5.54,3,32,14,14,6,3,12,14
5.545,9,4,7,8,2,4,5,8
5.55,7,6,14,13,8,3,2,7
5.555,7,6,32,12,12,8,9,18
5.56,9,6,20,0,4,5,1,3
5.565,10,11,47,40,17,7,3,2
5.57,9,1,1,5,5,7,0,2
5.575,12,1,19,18,18,6,0,1
5.58,3,4,9,0,0,3,4,3
5.585,0,6,5,11,3,6,5,2
5.59,5,26,26,16,0,6,1,2
5.595,9,9,2,5,6,1,7,7
5.6,7,18,12,7,1,0,1,2
5.605,43,8,5,1,1,1,5,16
5.61,5,35,13,6,5,7,8,8
5.615,0,7,2,3,8,3,4,1
5.62,14,12,11,6,0,3,4,0
5.625,15,11,6,10,11,1,6,14
5.63,2,9,5,7,5,0,7,9
5.635,10,22,14,11,9,8,5,8
5.64,4,7,5,8,9,6,7,9
5.645,7,10,5,6,2,5,3,7
5.65,12,16,13,5,0,0,1,2
5.655,7,2,2,4,5,5,8,16
5.66,10,16,20,13,11,4,4,2
5.665,16,9,12,2,4,1,2,3
5.67,2,12,8,6,8,5,5,9
5.675,2,14,2,6,5,5,7,11
5.68,6,6,5,1,2,0,4,6
5.685,7,4,2,3,1,2,5,2
5.69,3,4,5,3,7,3,2,4
5.695,0,9,3,1,1,1,1,1
5.7,2,3,9,9,3,2,7,6
5.705,9,10,5,4,2,0,4,7
5.71,7,7,1,0,3,1,1,5
5.715,12,15,9,12,8,4,4,3
5.72,10,13,10,8,11,10,10,11
5.725,13,7,0,6,6,7,6,11
5.73,10,73,5,3,8,6,0,3
5.735,30,81,18,1,5,6,6,10
5.74,1,11,4,3,5,5,1,1
5.745,6,12,2,3,3,1,0,2
5.75,6,15,1,2,0,1,4,0
5.755,17,29,8,2,8,2,1,4
5.76,1,1,4,11,10,6,2,1
5.765,3,2,3,0,2,1,1,3
5.77,2,16,0,0,1,1,8,4
5.775,5,18,4,2,1,0,3,2
5.78,0,8,2,1,3,2,2,3
5.785,9,7,5,2,0,1,2,5
5.79,4,24,4,4,1,0,3,1
5.795,2,6,3,2,0,2,8,2
5.8,7,16,4,2,5,0,0,6
5.805,10,2,6,11,10,10,15,19
5.81,2,18,2,3,5,2,4,3
5.815,4,1,2,0,4,3,2,0
5.82,15,9,3,2,4,2,3,7
5.825,6,3,6,2,3,0,4,0
5.83,4,17,5,5,1,0,1,0
5.835,6,17,1,3,3,0,1,0
5.84,5,4,4,3,0,0,1,2
5.845,4,4,3,2,3,0,6,3
5.85,3,1,3,3,4,3,2,4
5.855,4,3,5,7,4,4,6,10
5.86,14,8,5,3,6,10,20,30
5.865,0,3,4,0,1,4,2,4
5.87,1,1,3,5,1,1,3,2
5.875,3,1,1,0,0,1,2,8
5.88,2,0,2,2,0,2,6,0
5.885,10,1,7,1,0,1,11,1
5.89,7,6,6,6,2,3,9,16
5.895,6,5,4,3,1,1,2,1
5.9,7,6,3,5,3,0,2,3
5.905,6,1,3,2,1,1,6,3
5.91,1,4,5,1,1,4,7,7
5.915,4,2,1,2,2,2,9,12
5.92,1,7,2,1,1,1,0,4
5.925,1,0,1,4,3,0,4,5
5.93,4,19,13,8,2,2,2,0
5.935,0,8,1,7,7,8,5,11
5.94,2,4,2,3,3,5,8,8
5.945,4,2,1,6,3,3,5,5
5.95,5,9,2,3,0,2,4,8
5.955,3,2,0,3,3,3,1,2
5.96,1,5,3,2,0,3,2,2
5.965,4,0,4,6,3,2,5,4
5.97,3,1,7,1,1,5,9,5
5.975,0,5,6,4,5,4,6,4
5.98,2,1,0,3,0,1,2,2
5.985,2,7,3,7,3,3,5,1
5.99,9,16,5,4,2,4,2,4
5.995,2,3,2,0,3,3,3,1
6,5,1,1,1,4,0,3,3
6.005,1,2,2,2,1,2,8,7
6.01,4,8,3,0,1,3,2,0
6.015,0,0,2,1,0,1,5,1
6.02,3,5,1,2,3,1,3,2
6.025,2,1,3,5,5,4,1,2
6.03,1,3,0,2,3,2,1,1
6.035,1,1,4,1,0,1,1,2
6.04,0,1,4,0,1,0,2,2
6.045,4,6,3,1,5,3,3,4
6.05,3,1,3,3,4,2,1,1
6.055,0,2,4,2,2,1,1,1
6.06,5,4,4,0,0,4,10,20
6.065,5,4,1,0,2,5,13,17
6.07,4,1,4,0,1,3,3,16
6.075,1,5,1,4,3,5,3,13
6.08,2,1,2,1,0,3,3,5
6.085,5,6,9,7,4,4,12,17
6.09,4,1,3,0,2,4,4,7
6.095,1,1,1,2,2,2,2,6
6.1,1,1,0,2,2,2,4,10
6.105,3,1,3,1,2,2,7,12
6.11,2,0,2,1,3,1,2,1
6.115,1,2,1,1,2,0,0,3
6.12,3,5,5,4,4,3,6,8
6.125,2,1,4,2,1,1,3,0
6.13,0,1,4,2,1,2,6,5
6.135,1,1,0,1,0,4,9,2
6.14,4,0,2,1,2,3,4,8
6.145,3,5,3,1,2,1,3,7
6.15,2,6,0,2,2,3,6,1
6.155,9,2,1,0,2,2,9,22
6.16,1,0,5,6,3,2,3,6
6.165,1,5,3,2,1,0,3,5
6.17,3,4,5,2,3,2,6,15
6.175,2,2,0,1,2,2,0,8
6.18,4,6,2,4,0,3,7,11
6.185,0,2,6,2,2,1,2,7
6.19,1,3,1,0,2,1,0,4
6.195,1,1,2,4,3,2,0,1
6.2,1,5,4,4,4,1,0,1
6.205,4,6,3,3,3,4,5,7
6.21,0,1,0,0,1,2,3,4
6.215,0,2,4,1,1,0,1,2
6.22,2,1,2,2,1,2,1,0
6.225,1,1,1,2,1,0,4,4
6.23,5,4,3,3,2,2,4,7
6.235,0,4,1,1,0,1,5,4
6.24,0,0,1,1,1,2,1,1
6.245,3,4,7,5,3,4,7,7
6.25,2,1,3,1,2,1,1,1
6.255,1,4,1,1,1,3,4,4
6.26,2,5,3,0,1,0,7,5
6.265,1,1,1,2,1,1,1,1
6.27,1,2,4,6,3,0,0,4
6.275,2,2,2,1,3,2,3,0
6.28,1,2,0,0,1,4,1,4
6.285,2,2,2,3,3,3,3,5
6.29,1,4,1,0,1,3,2,2
6.295,0,0,4,3,3,3,0,1
6.3,0,3,1,0,0,2,5,0
6.305,1,3,2,1,1,2,1,2
6.31,6,1,3,2,1,2,4,5
6.315,2,2,2,3,3,3,4,4
6.32,4,3,3,4,5,4,7,8
6.325,5,1,0,2,0,3,12,16
6.33,4,5,3,3,1,3,13,22
6.335,3,1,1,3,3,3,2,4
6.34,4,2,6,3,1,2,5,12
6.345,3,2,2,5,1,3,3,9
6.35,2,0,0,2,3,1,1,4
6.355,0,0,1,1,1,1,1,1
6.36,1,1,2,1,2,1,3,3
6.365,1,0,0,2,0,1,4,6
6.37,2,0,2,1,2,0,3,5
6.375,2,2,3,3,4,5,5,4
6.38,2,2,0,2,1,3,9,7
6.385,4,1,2,2,2,0,9,2
6.39,6,0,2,1,1,3,6,12
6.395,2,0,5,1,4,3,2,11
6.4,8,7,3,3,1,1,0,6
6.405,1,1,2,0,0,1,1,2
6.41,0,1,3,1,1,1,1,0
6.415,0,2,3,0,2,1,3,1
6.42,4,3,2,5,3,2,1,1
6.425,1,1,4,3,1,3,2,4
6.43,0,1,1,0,1,2,1,3
6.435,1,2,2,2,2,0,0,2
6.44,2,5,3,0,1,2,4,4
6.445,3,2,4,1,2,3,3,3
6.45,1,1,2,3,4,1,2,2
6.455,2,3,2,1,2,2,2,5
6.46,2,1,0,2,2,1,2,4
6.465,1,2,3,1,2,1,1,0
6.47,0,4,4,2,0,2,2,6
6.475,0,4,2,1,1,0,0,1
6.48,3,0,3,5,1,0,5,5
6.485,1,1,1,2,0,0,2,2
6.49,1,1,1,1,4,2,0,1
6.495,3,3,1,0,1,2,2,3
6.5,0,2,0,1,1,4,4,6
6.505,3,2,1,3,0,0,1,1
6.51,5,1,6,5,2,0,2,3
6.515,2,3,0,1,0,2,1,3
6.52,2,2,2,1,0,1,0,2
6.525,2,3,4,0,2,2,3,2
6.53,1,3,3,2,0,0,5,7
6.535,0,2,2,0,2,2,0,2
6.54,1,1,3,4,4,3,1,0
6.545,3,2,5,1,1,5,11,13
6.55,7,3,2,2,1,3,9,15
6.555,0,2,2,2,1,1,0,2
6.56,7,9,1,1,3,5,9,14
6.565,3,2,0,1,1,0,3,0
6.57,1,2,1,0,1,2,6,6
6.575,1,3,1,1,1,2,7,2
6.58,2,3,2,1,1,1,0,6
6.585,1,1,3,2,0,0,7,9
6.59,7,4,3,2,1,6,12,23
6.595,1,0,1,1,2,1,1,5
6.6,3,3,4,1,2,0,1,6
6.605,0,1,3,0,3,0,0,2
6.61,6,0,1,3,2,1,8,21
6.615,1,1,2,0,2,2,1,4
6.62,3,3,0,2,2,5,5,4
6.625,4,1,3,3,1,1,2,13
6.63,3,6,4,1,4,1,0,4
6.635,1,0,2,3,1,4,4,4
6.64,3,2,1,0,1,3,7,6
6.645,3,4,1,1,1,0,2,3
6.65,5,4,3,1,1,0,0,0
6.655,9,7,3,5,3,2,6,5
6.66,3,9,3,3,1,4,2,1
6.665,4,5,6,6,7,6,7,13
6.67,7,11,1,3,0,2,4,9
6.675,15,1,3,0,4,2,4,10
6.68,10,25,7,4,0,2,0,2
6.685,0,11,2,6,1,2,3,7
6.69,3,7,0,7,4,3,1,5
6.695,13,12,3,1,0,2,1,4
6.7,1,1,0,2,0,1,0,1
6.705,5,10,0,2,1,2,2,5
6.71,0,4,4,5,1,0,0,1
6.715,3,3,2,0,3,2,3,2
6.72,2,2,2,0,0,1,2,6
6.725,3,6,1,1,2,2,4,2
6.73,4,2,1,0,0,3,1,0
6.735,1,5,6,1,3,1,3,2
6.74,1,0,6,6,4,5,5,4
6.745,0,2,3,6,2,3,5,3
6.75,0,0,4,1,1,3,2,2
6.755,3,7,1,0,1,0,2,2
6.76,1,2,2,1,1,2,1,0
6.765,0,0,0,1,1,0,4,2
6.77,1,1,3,5,2,0,1,1
6.775,1,4,1,2,2,1,1,3
6.78,0,3,0,3,2,0,1,0
6.785,0,2,4,1,2,3,1,1
6.79,4,8,3,2,1,0,0,4
6.795,4,3,2,2,1,1,5,5
6.8,1,4,1,1,0,0,4,2
6.805,1,0,0,1,1,0,2,3
6.81,1,2,1,2,2,1,3,0
6.815,3,8,1,1,1,1,5,12
6.82,2,0,3,3,2,1,1,2
6.825,0,0,1,2,4,2,0,1
6.83,3,3,0,2,2,2,6,13
6.835,3,5,4,0,0,1,2,7
6.84,4,1,1,0,2,0,1,4
6.845,7,4,3,3,4,4,6,6
6.85,5,1,1,0,0,0,4,11
6.855,3,2,0,1,1,2,1,3
6.86,2,2,2,2,2,0,0,2
6.865,3,3,7,3,3,1,1,2
6.87,1,2,6,3,4,4,3,2
6.875,5,2,1,1,2,0,3,9
6.88,5,0,1,3,1,1,2,1
6.885,0,5,0,1,3,2,4,6
6.89,5,1,2,1,2,3,3,10
6.895,2,3,3,2,1,2,5,1
6.9,11,2,0,1,2,3,14,35
6.905,16,5,5,2,1,7,19,42
6.91,1,0,2,3,1,2,5,9
6.915,2,8,6,3,3,0,9,12
6.92,1,0,1,2,2,2,8,3
6.925,9,4,7,3,2,4,11,25
6.93,0,2,0,2,2,4,2,4
6.935,4,1,2,3,3,4,5,4
6.94,4,3,1,2,2,2,2,9
6.945,1,1,1,1,1,1,2,1
6.95,2,3,3,1,0,2,1,0
6.955,1,1,2,3,3,1,1,1
6.96,7,7,3,4,1,4,12,14
6.965,0,2,3,3,3,2,4,7
6.97,1,4,2,2,3,2,4,8
6.975,4,2,4,5,2,1,1,0
6.98,5,2,3,1,1,0,3,14
6.985,9,3,3,1,1,2,2,13
6.99,0,1,2,2,1,1,9,5
6.995,1,0,3,1,1,3,1,1
7,3,2,0,6,3,2,0,3
7.005,4,2,6,2,1,1,4,9
7.01,4,3,1,1,0,3,2,4
7.015,0,1,4,3,2,0,3,5
7.02,1,1,1,2,1,0,1,3
7.025,2,0,1,2,1,1,1,8
7.03,4,1,6,5,0,1,5,12
7.035,1,4,4,3,1,1,1,3
7.04,1,1,2,2,2,1,1,2
7.045,7,6,6,5,1,1,1,5
7.05,2,2,19,15,9,1,1,5
7.055,1,1,3,2,0,2,4,12
7.06,11,5,4,2,2,4,14,33
7.065,2,3,3,2,0,3,3,1
7.07,0,2,9,3,0,1,5,6
7.075,3,3,0,1,0,1,2,0
7.08,1,0,7,6,4,1,5,8
7.085,0,2,3,4,0,1,2,2
7.09,3,0,3,1,1,1,4,2
7.095,5,2,3,3,2,2,7,6
7.1,3,2,6,3,5,4,4,13
7.105,7,1,2,0,2,2,5,12
7.11,4,1,4,3,3,1,0,8
7.115,9,2,1,2,1,1,1,7
7.12,2,1,4,4,1,1,1,0
7.125,8,3,1,2,1,0,7,21
7.13,6,0,3,1,2,2,5,1
7.135,4,2,1,1,1,0,6,8
7.14,2,3,3,0,2,0,6,13
7.145,11,11,5,5,4,3,10,29
7.15,5,9,0,2,3,0,5,10
7.155,0,3,0,3,1,0,1,2
7.16,2,1,4,2,0,1,1,0
7.165,7,8,1,5,1,1,1,14
7.17,1,2,2,10,4,3,4,9
7.175,4,4,2,5,2,1,1,6
7.18,1,1,3,13,2,1,1,1
7.185,2,1,2,8,3,4,6,3
7.19,6,15,8,7,1,1,2,4
7.195,7,5,5,3,2,2,3,1
7.2,26,20,10,17,5,3,8,10
7.205,2,3,2,1,0,1,1,2
7.21,8,1,8,11,4,3,8,16
7.215,11,10,4,0,4,5,15,14
7.22,1,2,3,4,2,1,4,12
7.225,1,15,4,1,2,1,1,0
7.23,2,8,0,1,1,4,5,0
7.235,2,3,4,4,0,1,3,9
7.24,5,11,1,1,2,1,1,4
7.245,3,12,3,2,0,2,4,2
7.25,8,37,11,5,4,4,4,0
7.255,11,1,7,8,5,5,7,22
7.26,6,0,3,0,2,2,2,2
7.265,8,10,2,4,2,0,5,2
7.27,4,3,3,1,1,1,2,2
7.275,3,5,3,12,1,2,1,0
7.28,8,10,3,6,5,2,3,1
7.285,19,16,6,6,2,2,1,1
7.29,4,12,6,0,8,1,7,10
7.295,7,20,18,17,12,7,3,1
7.3,14,16,19,10,6,7,7,12
7.305,11,3,9,9,1,0,3,1
7.31,1,5,12,8,2,2,2,0
7.315,8,9,13,7,1,1,6,1
7.32,9,5,6,5,1,3,0,4
7.325,14,33,4,4,10,7,10,20
7.33,8,30,17,15,2,0,2,12
7.335,11,24,13,5,1,0,1,6
7.34,0,10,0,7,6,6,6,4
7.345,4,19,0,3,1,3,2,3
7.35,15,27,30,13,9,1,3,12
7.355,10,1,3,16,8,1,1,9
7.36,0,2,4,11,4,1,0,2
7.365,4,8,3,0,5,4,3,4
7.37,4,7,12,1,8,7,4,5
7.375,4,10,1,1,1,0,0,9
7.38,0,4,0,7,4,4,5,11
7.385,2,3,8,3,0,2,4,9
7.39,2,1,3,8,2,1,1,2
7.395,14,20,7,2,3,6,11,16
7.4,7,16,8,4,0,3,6,5
7.405,11,38,17,14,10,7,6,10
7.41,8,4,9,4,1,3,2,1
7.415,13,27,27,9,0,5,6,14
7.42,6,3,2,1,2,2,3,15
7.425,12,11,4,6,1,3,1,4
7.43,4,3,7,0,2,4,3,12
7.435,1,5,14,10,3,3,1,6
7.44,1,10,15,8,6,9,1,1
7.445,6,18,11,0,1,1,0,1
7.45,5,4,6,7,3,1,2,8
7.455,7,8,8,3,0,4,4,7
7.46,21,21,8,4,2,8,12,38
7.465,3,32,6,2,0,2,0,5
7.47,2,23,11,1,3,0,3,7
7.475,17,23,1,4,2,4,7,8
7.48,4,15,1,3,5,0,5,18
7.485,19,4,11,5,3,2,12,29
7.49,7,15,7,5,1,2,2,4
7.495,8,17,3,1,3,0,3,15
7.5,1,7,1,0,2,2,2,4
7.505,3,2,4,10,4,1,7,27
7.51,7,7,4,6,2,3,4,4
7.515,5,4,6,10,11,3,3,5
7.52,5,5,4,1,1,1,3,14
7.525,12,6,2,7,1,3,4,25
7.53,15,4,13,22,9,3,12,32
7.535,0,8,1,2,1,1,1,4
7.54,1,5,0,0,3,6,6,10
7.545,12,13,7,1,1,3,7,12
7.55,1,0,0,2,0,4,0,0
7.555,6,8,2,6,5,2,3,5
7.56,6,6,4,1,2,1,5,12
7.565,6,10,4,1,0,0,0,0
7.57,2,2,3,3,1,0,1,1
7.575,4,6,2,7,4,1,1,7
7.58,1,7,6,3,0,0,2,7
7.585,9,10,2,0,2,5,7,11
7.59,12,7,1,2,1,1,1,4
7.595,3,6,5,10,2,1,4,6
7.6,8,3,2,4,4,1,1,2
7.605,8,1,9,9,3,1,4,6
7.61,2,4,8,10,6,1,2,1
7.615,2,14,15,9,6,3,3,1
7.62,9,0,2,3,1,1,4,4
7.625,2,1,3,3,3,3,3,1
7.63,2,1,1,1,1,1,1,1
7.635,2,1,0,1,4,2,1,3
7.64,0,4,2,6,4,2,1,0
7.645,2,3,1,8,2,1,2,6
7.65,11,16,7,3,4,4,11,28
7.655,0,0,1,4,4,3,1,8
7.66,10,8,3,0,0,2,7,19
7.665,0,2,3,5,1,1,1,8
7.67,3,4,6,9,5,2,0,11
7.675,0,0,1,2,0,0,0,10
7.68,5,2,1,4,1,0,2,8
7.685,5,3,5,5,0,1,0,1
7.69,3,10,3,1,3,5,6,1
7.695,4,4,3,2,3,1,1,11
7.7,8,0,0,2,0,2,7,19
7.705,5,24,6,2,1,0,3,9
7.71,16,29,3,0,1,5,12,26
7.715,4,3,3,1,1,2,4,1
7.72,2,2,1,1,2,3,4,6
7.725,2,4,2,0,1,3,3,3
7.73,10,14,5,2,1,0,8,13
7.735,0,1,3,2,1,0,1,3
7.74,1,11,3,1,3,3,3,4
7.745,0,9,7,7,4,1,1,11
7.75,5,7,2,2,1,1,1,4
7.755,4,3,3,2,1,2,4,10
7.76,1,4,3,2,1,2,3,16
7.765,8,6,3,1,1,3,11,25
7.77,9,4,2,2,3,1,9,23
7.775,2,6,1,4,5,1,1,1
7.78,1,1,3,1,4,2,1,7
7.785,6,9,4,7,5,1,4,0
7.79,10,5,11,9,6,4,12,26
7.795,8,5,1,2,1,1,5,15
7.8,8,1,3,5,2,0,2,13
7.805,1,2,3,3,4,3,2,6
7.81,6,6,8,7,2,3,5,12
7.815,3,1,3,0,1,2,6,11
7.82,4,0,4,3,1,2,3,8
7.825,1,4,4,4,3,0,0,2
7.83,3,2,5,1,0,1,1,5
7.835,2,2,8,7,1,4,4,9
7.84,1,2,3,5,2,2,4,7
7.845,8,5,5,9,6,5,9,27
7.85,4,0,1,4,2,1,3,15
7.855,12,7,3,3,1,2,10,21
7.86,3,2,0,2,1,2,2,5
7.865,4,4,4,4,2,0,0,2
7.87,2,0,3,3,2,3,2,3
7.875,8,0,3,3,2,0,5,15
7.88,5,2,4,6,1,2,4,17
7.885,1,9,7,3,3,2,3,4
7.89,6,4,1,3,4,2,3,10
7.895,5,0,1,2,2,0,2,10
7.9,3,0,4,6,2,1,2,12
7.905,10,1,2,3,1,2,9,36
7.91,1,0,2,3,2,0,1,2
7.915,1,3,1,2,2,2,1,6
7.92,3,0,3,4,2,0,3,11
7.925,10,3,1,1,0,3,8,29
7.93,1,1,0,1,1,2,1,3
7.935,2,2,3,1,0,1,2,2
7.94,1,0,2,1,2,0,2,5
7.945,9,1,1,1,2,1,8,26
7.95,8,3,3,0,3,4,6,21
7.955,3,2,0,1,1,0,2,5
7.96,6,3,4,3,4,2,5,7
7.965,3,1,3,2,1,2,4,11
7.97,2,0,7,4,2,0,0,2
7.975,1,2,6,6,2,1,1,7
7.98,9,6,2,5,3,4,7,12
7.985,2,2,1,1,3,1,2,4
7.99,0,0,1,4,3,2,1,2
7.995,2,1,1,2,2,3,5,8
8,4,1,2,0,1,2,0,1
8.005,4,1,0,2,2,0,3,20
8.01,5,0,2,2,2,2,2,8
8.015,7,9,4,1,2,1,0,7
8.02,1,2,1,0,2,2,3,3
8.025,2,0,1,3,1,1,1,4
8.03,7,5,0,1,2,4,6,16
8.035,11,1,1,3,3,3,6,11
8.04,2,0,1,4,0,2,4,14
8.045,5,4,6,5,5,6,4,1
8.05,2,1,0,0,0,3,3,3
8.055,9,3,0,0,0,1,6,20
8.06,8,6,6,4,2,3,5,15
8.065,4,5,0,0,1,0,2,4
8.07,0,1,0,2,1,0,0,2
8.075,2,1,1,1,0,0,0,4
8.08,2,2,0,5,3,4,3,2
8.085,1,2,2,1,3,2,3,2
8.09,1,0,0,1,2,2,0,2
8.095,0,0,2,2,1,1,1,4
8.1,2,2,2,2,0,0,1,4
8.105,0,7,2,3,2,1,2,11
8.11,10,10,2,1,1,1,1,4
8.115,5,3,0,0,2,6,8,18
8.12,2,4,2,3,2,1,1,6
8.125,1,2,3,2,1,0,2,5
8.13,1,1,4,0,0,0,2,11
8.135,2,2,1,1,1,1,2,2
8.14,1,1,2,2,2,2,1,1
8.145,2,3,1,1,3,1,2,5
8.15,0,4,4,5,4,1,1,2
8.155,2,2,0,0,2,1,3,2
8.16,0,1,1,2,0,1,1,1
8.165,3,5,2,3,2,0,0,3
8.17,1,2,2,4,3,3,5,1
8.175,2,3,1,1,3,3,4,6
8.18,5,1,2,3,2,1,3,11
8.185,1,0,2,0,1,0,2,5
8.19,6,4,2,1,4,4,7,15
8.195,7,2,2,1,0,0,8,18
8.2,7,9,3,1,0,1,1,1
8.205,1,6,5,1,3,2,3,7
8.21,3,2,1,3,2,2,1,11
8.215,1,4,1,1,1,1,0,5
8.22,4,1,1,3,0,1,3,13
8.225,6,2,0,1,0,0,8,20
8.23,3,5,2,1,1,0,4,12
8.235,4,3,5,1,3,4,8,16
8.24,4,0,1,3,1,1,1,5
8.245,4,0,5,3,1,2,5,15
8.25,14,3,1,4,1,1,9,30
8.255,10,3,0,1,0,2,4,22
8.26,11,10,3,3,4,4,3,13
8.265,5,2,0,0,2,5,13,20
8.27,1,1,1,1,0,1,3,9
8.275,4,5,4,2,1,2,1,4
8.28,4,5,1,1,1,2,2,3
8.285,3,1,1,2,1,1,3,10
8.29,2,1,1,1,2,2,2,4
8.295,0,4,2,1,2,2,4,3
8.3,0,0,1,0,0,0,2,1
8.305,4,0,1,0,0,1,1,3
8.31,0,7,1,1,0,2,1,6
8.315,9,7,4,1,1,3,5,8
8.32,1,1,0,0,1,1,2,9
8.325,5,2,3,2,4,3,2,5
8.33,3,3,0,3,2,1,1,4
8.335,3,1,1,1,1,2,7,13
8.34,12,4,0,2,0,3,12,27
8.345,2,1,3,2,1,0,2,9
8.35,0,1,2,1,1,3,2,3
8.355,3,0,3,5,3,1,2,9
8.36,3,1,1,2,2,3,2,2
8.365,1,2,1,1,1,2,2,3
8.37,3,1,0,1,1,1,1,4
8.375,6,3,0,1,0,2,6,19
8.38,2,0,4,3,2,3,1,3
8.385,2,3,1,1,1,0,0,1
8.39,6,0,3,0,3,2,4,12
8.395,10,3,3,3,3,2,8,13
8.4,8,2,0,2,1,0,0,15
8.405,3,2,1,2,3,3,0,11
8.41,8,1,1,1,0,0,11,30
8.415,2,2,1,1,0,2,1,4
8.42,1,2,4,5,2,4,1,1
8.425,7,1,1,2,2,2,4,14
8.43,0,0,1,1,1,2,2,7
8.435,1,1,3,1,1,2,1,7
8.44,6,1,2,2,1,4,6,12
8.445,7,1,0,1,3,2,3,6
8.45,5,3,0,3,1,3,7,13
8.455,0,0,0,0,2,2,3,2
8.46,1,1,0,1,2,3,1,0
8.465,3,2,3,1,2,3,1,3
8.47,2,1,1,2,0,1,1,5
8.475,0,1,0,2,1,0,1,4
8.48,1,1,1,1,0,0,1,6
8.485,6,0,1,2,0,4,6,17
8.49,1,1,2,3,3,1,1,1
8.495,2,2,6,2,0,0,1,4
8.5,5,1,2,3,3,3,5,6
8.505,5,0,1,2,2,1,1,1
8.51,1,1,1,0,0,2,2,15
8.515,6,1,1,1,1,2,5,13
8.52,2,4,3,5,0,0,2,3
8.525,4,2,1,1,1,0,2,11
8.53,7,1,4,2,0,0,5,10
8.535,2,4,5,3,5,3,3,2
8.54,5,2,1,2,0,1,1,5
8.545,5,1,4,3,1,0,2,6
8.55,0,2,0,0,1,1,6,7
8.555,15,7,3,3,3,6,17,37
8.56,3,2,0,2,3,1,2,1
8.565,2,2,4,5,2,1,8,11
8.57,6,4,2,2,2,3,7,4
8.575,2,4,6,5,3,1,3,5
8.58,3,2,3,1,1,1,2,1
8.585,5,1,5,8,5,5,8,13
8.59,1,0,1,0,2,1,2,1
8.595,2,1,6,3,0,1,3,6
8.6,5,3,16,14,3,2,2,10
8.605,9,12,27,18,11,5,3,0
8.61,4,1,0,2,0,3,12,24
8.615,1,5,10,10,3,2,2,9
8.62,1,4,9,8,4,3,6,9
8.625,2,3,7,7,3,1,0,13
8.63,4,2,5,1,1,2,2,17
8.635,1,1,2,3,5,4,3,4
8.64,4,1,3,2,4,1,0,5
8.645,4,1,2,0,1,1,4,12
8.65,10,0,5,4,1,1,3,10
8.655,10,4,6,3,2,2,5,22
8.66,17,6,9,9,3,4,10,38
8.665,0,1,2,0,0,2,2,0
8.67,7,0,7,8,0,0,3,14
8.675,4,2,8,2,2,1,6,13
8.68,4,5,12,6,4,0,4,11
8.685,12,5,9,8,3,5,9,24
8.69,1,5,21,14,4,1,1,7
8.695,5,3,13,11,5,1,4,2
8.7,2,13,58,46,18,6,5,7
8.705,17,2,7,10,2,1,5,20
8.71,32,10,17,13,7,2,1,1
8.715,41,4,1,6,3,6,8,27
8.72,20,5,21,30,14,2,3,3
8.725,13,4,3,25,11,6,8,6
8.73,1,8,18,24,11,5,13,13
8.735,15,2,7,4,3,3,6,0
8.74,7,12,31,26,10,6,8,21
8.745,32,14,36,17,4,0,3,22
8.75,9,9,28,15,4,1,2,4
8.755,1,5,18,8,3,2,7,18
8.76,10,3,0,2,2,4,6,7
8.765,19,5,27,18,1,2,9,25
8.77,19,9,24,20,9,6,7,17
8.775,14,5,13,3,3,5,9,5
8.78,16,3,4,6,2,3,8,18
8.785,2,7,22,20,7,3,4,6
8.79,7,7,28,1,4,4,3,4
8.795,13,4,29,39,15,4,5,1
8.8,18,4,30,24,5,0,0,5
8.805,1,3,8,6,3,2,7,11
8.81,1,5,17,14,9,3,0,17
8.815,5,3,14,17,7,2,8,16
8.82,4,2,10,5,1,1,4,9
8.825,1,3,9,9,0,0,1,6
8.83,6,7,9,15,8,3,0,12
8.835,5,4,0,4,2,2,3,1
8.84,2,3,1,4,2,1,4,8
8.845,2,3,12,8,2,2,1,10
8.85,5,1,4,0,0,1,2,7
8.855,8,3,3,2,6,3,13,29
8.86,9,5,10,12,7,0,1,1
8.865,4,11,8,6,7,3,4,0
8.87,11,6,18,25,10,2,3,1
8.875,9,3,7,1,1,1,3,6
8.88,6,1,3,6,2,2,1,3
8.885,6,8,8,22,11,2,2,1
8.89,13,12,15,25,14,10,7,3
8.895,5,4,7,5,1,1,0,1
8.9,2,1,4,19,2,0,5,5
8.905,2,1,3,9,0,3,3,2
8.91,1,1,1,7,1,1,1,1
8.915,8,1,1,0,1,3,2,5
8.92,5,4,2,11,0,2,6,10
8.925,3,1,4,4,2,1,2,2
8.93,5,0,1,11,3,0,2,9
8.935,15,0,0,1,1,2,8,22
8.94,4,4,8,3,3,4,6,1
8.945,4,0,4,2,2,6,8,16
8.95,7,4,5,2,1,1,1,7
8.955,7,3,3,2,1,1,2,0
8.96,1,2,3,6,3,0,4,2
8.965,15,8,3,3,4,3,5,12
8.97,2,0,3,7,2,2,6,5
8.975,4,2,3,5,0,2,1,1
8.98,0,4,4,1,1,3,1,2
8.985,3,1,4,8,2,1,3,2
8.99,0,1,2,10,3,1,3,5
8.995,4,3,2,1,3,2,4,1
9,1,2,2,13,2,1,1,3
9.005,7,1,0,4,1,1,4,4
9.01,7,4,3,3,0,0,2,2
9.015,1,1,6,8,3,1,1,7
9.02,4,0,3,7,3,1,0,2
9.025,1,1,1,1,1,0,6,14
9.03,4,1,0,3,2,3,3,8
9.035,0,1,0,2,2,3,8,12
9.04,3,4,0,3,1,0,2,2
9.045,2,3,3,4,2,1,1,4
9.05,2,5,3,6,1,2,4,1
9.055,8,8,7,16,3,2,3,6
9.06,1,1,2,9,0,1,3,0
9.065,5,13,3,4,1,0,3,5
9.07,10,26,10,9,4,3,6,6
9.075,2,0,2,7,2,3,0,2
9.08,2,16,2,1,0,3,5,12
9.085,6,16,4,5,6,0,1,1
9.09,0,0,2,4,0,0,2,1
9.095,2,10,3,2,1,1,1,5
9.1,2,1,2,1,2,5,9,28
9.105,3,4,3,10,5,5,0,18
9.11,2,7,2,13,4,2,5,0
9.115,1,1,4,15,2,1,1,5
9.12,6,3,3,4,4,5,0,4
9.125,2,0,1,5,2,0,6,13
9.13,3,6,1,0,3,1,1,1
9.135,0,9,1,4,2,2,6,3
9.14,8,6,0,0,1,0,3,10
9.145,0,1,1,0,0,0,5,1
9.15,6,1,0,6,3,0,5,7
9.155,11,3,1,3,1,4,18,33
9.16,4,4,4,6,1,1,12,10
9.165,12,6,1,2,0,5,7,6
9.17,8,9,2,2,1,14,29,12
9.175,6,8,3,2,1,3,16,15
9.18,2,8,1,1,5,4,8,0
9.185,1,3,2,0,3,2,15,0
9.19,1,8,1,0,0,2,5,6
9.195,6,5,3,1,1,2,10,6
9.2,2,14,4,4,1,1,8,8
9.205,0,3,3,0,1,2,6,6
9.21,8,3,0,3,3,0,0,5
9.215,2,29,2,7,14,9,2,2
9.22,5,0,1,4,4,2,2,2
9.225,7,12,6,7,27,15,3,4
9.23,3,3,0,0,7,1,5,6
9.235,10,3,4,1,2,3,0,10
9.24,8,0,3,3,8,3,0,19
9.245,19,7,3,12,24,19,21,33
9.25,1,7,5,0,2,1,8,10
9.255,7,1,0,4,11,8,2,8
9.26,2,4,3,4,0,1,6,1
9.265,3,1,1,4,0,3,3,10
9.27,2,3,3,3,2,1,4,3
9.275,1,3,2,0,3,3,2,3
9.28,2,1,5,2,3,2,1,2
9.285,4,7,5,4,0,1,1,2
9.29,5,3,5,10,14,7,6,12
9.295,3,21,12,6,0,1,3,1
9.3,9,3,3,1,7,6,2,10
9.305,1,1,2,0,5,1,0,2
9.31,1,5,2,4,6,5,1,3
9.315,2,4,3,3,4,2,2,1
9.32,0,1,2,1,5,2,0,5
9.325,0,6,2,2,5,2,0,4
9.33,0,1,3,1,0,2,1,4
9.335,1,14,1,3,0,1,3,4
9.34,5,7,5,1,6,3,7,8
9.345,4,2,2,4,4,5,8,5
9.35,5,4,4,3,5,2,9,11
9.355,1,8,3,1,2,3,3,0
9.36,2,3,1,1,0,2,10,6
9.365,2,7,0,1,3,2,1,2
9.37,4,5,3,1,0,2,2,2
9.375,3,1,2,0,4,3,3,4
9.38,0,7,2,1,2,1,1,7
9.385,0,7,2,2,0,0,3,4
9.39,7,8,6,0,1,1,1,6
9.395,2,2,1,0,1,0,5,2
9.4,1,3,1,1,2,0,3,4
9.405,2,2,2,1,2,4,5,4
9.41,1,5,4,3,1,5,4,1
9.415,5,9,5,3,0,2,4,11
9.42,3,6,1,2,2,2,2,1
9.425,1,2,2,1,3,1,1,9
9.43,4,1,1,2,2,1,5,0
9.435,4,6,0,2,1,1,3,8
9.44,1,1,1,1,1,3,4,8
9.445,1,1,4,1,3,1,4,4
9.45,6,10,5,2,3,5,7,11
9.455,2,24,4,1,2,1,2,1
9.46,18,33,3,0,4,4,6,17
9.465,1,0,1,2,3,2,3,4
9.47,1,4,3,3,8,5,10,1
9.475,2,12,8,0,3,1,1,4
9.48,9,10,0,3,2,3,6,10
9.485,2,7,1,4,0,0,3,11
9.49,0,14,1,0,1,2,0,3
9.495,2,3,4,0,1,3,1,0
9.5,0,3,3,3,6,5,1,10
9.505,4,3,4,1,3,1,2,10
9.51,1,3,0,1,2,2,2,4
9.515,1,3,1,4,2,3,1,2
9.52,9,4,2,0,3,5,11,19
9.525,3,4,1,2,1,2,0,2
9.53,3,3,3,5,4,0,1,4
9.535,0,4,5,1,0,2,5,10
9.54,1,6,5,3,1,0,3,1
9.545,3,1,4,7,9,6,5,4
9.55,3,7,2,4,8,3,5,5
9.555,4,3,2,1,4,0,1,0
9.56,2,4,0,1,4,3,4,1
9.565,2,4,2,2,2,0,1,1
9.57,2,7,3,6,3,3,2,2
9.575,5,7,1,3,3,2,4,7
9.58,3,7,3,4,3,0,6,13
9.585,6,16,3,0,2,1,3,2
9.59,1,4,3,2,2,2,1,1
9.595,1,0,2,4,3,3,2,1
9.6,0,2,2,0,1,2,1,3
9.605,3,3,0,1,1,0,2,3
9.61,1,1,3,4,8,3,3,0
9.615,1,2,1,3,2,2,6,7
9.62,3,11,1,1,4,1,4,4
9.625,2,2,0,1,7,6,5,10
9.63,18,13,3,3,6,8,15,41
9.635,1,1,0,0,6,4,2,0
9.64,1,3,0,2,5,2,1,3
9.645,0,1,4,3,2,2,0,1
9.65,2,1,2,1,4,1,1,4
9.655,5,20,4,2,1,6,3,2
9.66,2,2,2,3,5,3,1,1
9.665,2,9,3,2,2,1,0,3
9.67,0,1,0,2,4,2,2,1
9.675,3,1,1,0,0,0,0,3
9.68,2,2,3,2,2,1,2,1
9.685,0,5,4,4,5,4,4,5
9.69,1,3,2,1,2,0,6,6
9.695,1,2,2,1,1,0,13,8
9.7,1,1,2,0,5,1,2,1
9.705,1,1,1,3,3,4,1,1
9.71,2,1,1,1,3,1,0,2
9.715,0,3,0,1,1,3,3,2
9.72,2,0,1,0,1,2,2,1
9.725,5,6,4,0,1,0,1,5
9.73,0,4,0,1,2,1,1,7
9.735,1,7,1,0,0,5,4,5
9.74,2,3,1,2,1,2,4,0
9.745,2,3,0,1,2,2,4,0
9.75,8,4,1,1,3,2,2,2
9.755,4,5,1,2,1,1,3,7
9.76,1,4,2,1,2,2,2,4
9.765,9,1,0,3,4,5,3,1
9.77,3,1,0,0,1,0,2,3
9.775,4,3,3,5,1,1,1,5
9.78,6,5,0,1,0,0,4,12
9.785,14,3,3,3,2,2,6,19
9.79,1,3,1,2,2,3,5,3
9.795,3,6,5,3,0,1,2,0
9.8,6,22,9,3,5,3,5,5
9.805,2,8,4,2,0,1,4,21
9.81,1,9,4,2,1,0,3,4
9.815,0,8,4,3,4,1,2,3
9.82,4,17,3,1,0,3,5,6
9.825,11,14,0,2,2,4,14,30
9.83,0,2,4,4,1,0,0,5
9.835,1,6,8,6,7,2,1,2
9.84,1,5,1,4,5,3,0,3
9.845,1,4,2,2,7,2,0,6
9.85,3,3,2,2,5,3,2,0
9.855,0,1,2,0,2,3,3,5
9.86,3,7,4,1,7,2,4,15
9.865,8,3,4,2,2,4,2,8
9.87,6,4,4,1,1,1,1,3
9.875,3,5,1,3,2,1,2,5
9.88,6,1,8,1,5,4,8,15
9.885,3,7,3,0,0,0,2,5
9.89,8,9,7,2,6,5,3,7
9.895,2,1,2,1,3,2,2,2
9.9,2,1,2,0,2,1,1,3
9.905,7,9,2,2,1,1,0,7
9.91,3,5,0,3,4,2,3,2
9.915,4,12,4,0,0,0,6,11
9.92,5,1,1,0,1,1,5,3
9.925,5,11,4,1,2,3,0,1
9.93,2,1,1,2,2,2,0,6
9.935,1,2,1,3,2,1,2,6
9.94,3,6,0,3,4,5,2,4
9.945,2,2,1,1,4,0,2,6
9.95,7,0,1,5,4,1,1,4
9.955,5,1,4,8,4,3,5,4
9.96,4,5,1,4,5,0,0,0
9.965,2,11,0,0,0,1,3,2
9.97,2,2,3,6,3,1,1,3
9.975,7,1,1,1,4,4,6,6
9.98,9,18,6,3,0,2,0,1
9.985,0,4,2,2,3,0,1,2
9.99,4,0,1,5,0,1,0,2
9.995,4,2,0,1,2,0,1,1
10,5,1,3,1,0,0,1,4
10.005,4,10,2,1,0,1,2,5
10.01,7,8,6,6,0,1,1,0
10.015,1,0,1,1,1,0,2,4
10.02,4,4,1,1,1,3,4,8
10.025,4,0,3,1,2,0,1,6
10.03,4,8,2,1,1,1,3,9
10.035,3,0,3,2,1,1,2,1
10.04,1,8,4,1,4,0,3,7
10.045,7,1,0,1,3,1,3,14
10.05,7,7,9,5,6,3,4,8
10.055,10,10,1,2,2,1,10,26
10.06,3,11,1,1,1,2,6,9
10.065,5,1,4,3,2,4,6,7
10.07,7,1,1,1,3,1,5,17
10.075,5,1,2,1,2,3,4,8
10.08,0,4,0,2,3,3,2,2
10.085,2,2,3,0,3,2,2,1
10.09,6,6,0,0,11,6,4,6
10.095,3,2,3,0,2,3,4,6
10.1,5,8,4,3,4,1,2,6
10.105,1,2,2,2,12,7,0,7
10.11,5,4,0,0,10,5,1,9
10.115,3,11,4,1,5,2,2,17
10.12,4,18,4,2,4,1,0,4
10.125,2,13,0,2,8,1,3,2
10.13,3,9,0,2,6,5,1,1
10.135,2,17,3,1,1,1,1,6
10.14,1,2,1,3,5,2,5,7
10.145,0,13,0,2,2,1,1,3
10.15,1,13,4,3,3,0,2,6
10.155,1,4,0,0,2,0,1,0
10.16,0,4,1,2,0,0,0,5
10.165,2,6,1,1,5,2,1,5
10.17,3,6,2,4,7,4,3,1
10.175,2,3,1,4,5,2,2,5
10.18,2,0,2,2,0,0,2,2
10.185,4,4,2,3,1,3,4,13
10.19,3,1,1,0,3,2,1,5
10.195,2,2,3,1,1,1,4,6
10.2,0,3,2,0,1,1,1,2
10.205,4,5,2,2,0,1,3,4
10.21,0,2,2,3,5,3,4,3
10.215,7,10,6,3,1,2,4,11
10.22,6,5,3,3,0,1,0,4
10.225,3,13,2,1,2,4,5,8
10.23,0,8,5,1,2,1,3,3
10.235,4,5,6,5,6,1,0,3
10.24,0,3,5,2,1,1,1,0
10.245,0,5,2,2,2,2,0,1
10.25,1,10,4,6,5,4,0,1
10.255,3,2,4,3,1,1,0,8
10.26,6,6,3,1,0,1,6,18
10.265,1,1,4,2,1,0,1,3
10.27,3,8,1,1,1,1,2,0
10.275,4,5,0,0,3,2,1,1
10.28,6,5,1,1,1,1,4,13
10.285,7,0,4,3,1,3,3,15
10.29,16,19,7,3,4,6,9,14
10.295,2,2,0,1,1,2,1,3
10.3,1,1,0,1,4,1,2,0
10.305,2,4,6,2,1,1,0,1
10.31,4,4,1,1,3,1,0,1
10.315,0,5,2,1,2,2,0,1
10.32,6,15,7,5,4,3,2,0
10.325,2,0,2,3,3,1,0,6
10.33,3,8,1,4,2,2,1,3
10.335,2,2,0,2,2,2,0,1
10.34,0,2,0,2,1,1,4,5
10.345,5,2,2,5,3,5,4,9
10.35,1,13,6,0,3,0,1,3
10.355,7,25,2,2,2,0,4,9
10.36,9,15,2,1,0,3,6,19
10.365,10,14,9,1,7,4,2,1
10.37,1,3,5,6,4,2,3,2
10.375,0,3,0,2,2,3,1,1
10.38,2,3,1,1,2,0,2,2
10.385,3,6,4,1,1,2,4,0
10.39,2,2,1,4,2,1,0,2
10.395,1,7,0,2,4,3,2,1
10.4,4,4,0,3,1,3,0,1
10.405,1,11,2,1,1,1,1,0
10.41,3,7,2,3,0,0,1,4
10.415,3,4,1,3,4,5,5,7
10.42,0,1,0,1,1,1,2,3
10.425,3,4,2,1,3,1,1,5
10.43,2,2,2,1,2,0,1,0
10.435,7,12,1,0,3,3,1,6
10.44,1,10,2,0,1,2,0,1
10.445,2,0,0,3,4,4,2,2
10.45,1,5,2,2,1,2,1,5
10.455,4,4,1,2,1,0,1,4
10.46,7,5,2,2,1,3,4,14
10.465,3,4,4,5,5,3,4,6
10.47,4,2,1,3,1,3,1,3
10.475,0,1,6,1,1,1,2,1
10.48,4,7,3,1,2,0,1,2
10.485,5,13,8,11,8,2,2,2
10.49,2,4,2,6,1,1,1,2
10.495,11,8,0,4,2,1,1,9
10.5,3,12,7,7,3,1,0,1
10.505,6,9,15,18,9,5,9,20
10.51,3,24,13,7,7,8,16,37
10.515,24,1,6,18,8,5,7,5
10.52,28,3,6,8,8,4,10,9
10.525,52,14,0,4,1,3,1,7
10.53,2,16,18,15,8,6,4,8
10.535,31,11,4,15,1,2,7,17
10.54,6,6,15,30,11,4,8,13
10.545,14,4,6,2,5,2,9,14
10.55,5,8,5,21,7,5,8,13
10.555,8,4,13,15,5,2,2,4
10.56,8,9,3,9,1,6,8,11
10.565,16,7,2,1,3,0,4,9
10.57,2,9,2,9,2,1,4,1
10.575,4,2,0,0,3,2,5,10
10.58,8,6,7,1,4,3,3,3
10.585,3,3,11,6,0,1,3,2
10.59,1,1,1,11,5,5,3,4
10.595,2,4,2,0,1,1,2,8
10.6,1,7,9,1,0,1,2,1
10.605,5,12,1,7,1,3,5,6
10.61,7,13,12,21,4,1,1,0
10.615,2,4,1,4,6,2,2,5
10.62,4,6,8,1,2,2,5,5
10.625,17,18,7,6,2,0,1,7
10.63,2,8,1,0,1,1,1,4
10.635,1,1,1,4,4,1,4,5
10.64,5,7,1,1,3,1,1,2
10.645,2,3,0,5,4,4,3,2
10.65,3,6,0,4,2,0,1,2
10.655,0,2,1,1,0,1,0,2
10.66,16,4,5,9,3,1,0,3
10.665,3,10,1,2,2,1,1,1
10.67,0,5,4,2,2,2,2,1
10.675,7,0,2,3,1,3,2,11
10.68,1,2,3,4,1,1,4,8
10.685,3,3,5,11,7,3,1,3
10.69,3,3,2,9,1,1,1,7
10.695,12,3,1,8,4,3,8,18
10.7,4,5,1,1,1,1,2,2
10.705,1,7,2,1,1,1,1,3
10.71,8,8,3,6,3,1,1,4
10.715,3,4,1,3,2,1,2,3
10.72,14,3,3,6,6,2,1,2
10.725,5,2,0,2,2,3,2,3
10.73,8,12,4,5,1,3,4,7
10.735,5,17,1,3,0,4,4,1
10.74,9,9,2,5,3,2,3,7
10.745,7,5,5,0,5,5,2,1
10.75,4,1,2,0,2,0,3,5
10.755,7,12,8,6,2,2,2,2
10.76,5,9,16,17,10,6,2,6
10.765,5,10,6,13,6,5,4,3
10.77,5,3,4,20,3,1,2,10
10.775,2,4,3,4,0,1,2,6
10.78,1,2,6,7,5,0,2,3
10.785,4,9,3,0,0,2,2,2
10.79,7,3,6,12,3,2,2,1
10.795,4,2,3,6,3,1,4,5
10.8,4,2,1,2,1,4,7,1
10.805,4,6,2,1,2,0,7,5
10.81,24,9,0,1,2,5,12,21
10.815,3,5,8,4,1,2,1,1
10.82,9,1,3,7,4,3,6,7
10.825,6,4,3,2,1,2,0,1
10.83,4,0,4,0,1,0,7,8
10.835,5,5,2,3,1,1,0,2
10.84,5,1,2,3,2,4,2,10
10.845,4,9,4,3,0,1,2,1
10.85,6,2,11,9,5,3,2,5
10.855,2,0,4,3,3,2,3,3
10.86,4,2,2,4,0,4,3,9
10.865,3,3,3,8,1,3,4,11
10.87,11,0,3,1,3,1,1,10
10.875,4,6,5,8,6,5,0,5
10.88,10,4,2,4,1,1,11,32
10.885,5,11,8,3,1,2,2,1
10.89,6,5,3,0,1,1,1,0
10.895,6,0,3,5,4,5,7,9
10.9,5,5,1,5,0,2,5,12
10.905,0,8,5,4,5,1,2,3
10.91,5,3,6,5,1,1,0,4
10.915,3,9,4,1,2,2,4,11
10.92,0,2,3,4,0,5,7,7
10.925,3,8,2,9,4,3,0,6
10.93,14,5,5,12,9,3,1,3
10.935,13,5,3,6,6,2,1,4
10.94,7,6,5,9,2,0,1,0
10.945,23,45,20,12,9,6,7,13
10.95,1,12,1,0,1,1,2,6
10.955,8,4,6,11,7,1,1,0
10.96,22,11,9,5,1,0,4,11
10.965,13,12,9,21,4,0,2,0
10.97,46,6,5,17,9,4,7,3
10.975,0,6,0,1,0,4,1,1
10.98,4,10,6,10,6,4,3,5
10.985,3,11,1,5,5,1,0,2
10.99,13,6,8,15,4,1,1,1
10.995,10,2,1,4,1,2,8,13
11,4,2,3,4,6,2,2,4
11.005,11,1,0,4,8,0,3,7
11.01,13,8,3,3,3,4,1,5
11.015,5,6,1,2,1,3,4,9
11.02,29,46,10,5,0,1,2,10
11.025,1,6,5,0,1,1,0,2
11.03,7,7,4,20,1,2,8,7
11.035,12,9,4,20,10,5,7,8
11.04,12,5,3,7,6,2,1,18
11.045,17,0,10,20,13,7,8,6
11.05,6,11,7,11,4,2,1,7
11.055,2,14,0,0,2,3,5,2
11.06,0,3,2,2,0,0,1,17
11.065,7,8,1,1,6,0,2,2
11.07,8,31,13,7,2,3,0,4
11.075,14,59,13,7,1,1,1,4
11.08,21,34,13,22,1,3,2,7
11.085,29,42,12,20,6,3,4,9
11.09,34,19,14,3,3,0,5,3
11.095,42,23,1,3,3,2,9,2
11.1,11,5,7,1,1,2,2,2
11.105,14,38,6,3,2,1,2,10
11.11,15,19,1,15,6,0,4,12
11.115,8,1,2,9,1,1,3,4
11.12,4,10,13,17,12,3,4,2
11.125,6,17,4,1,0,0,2,4
11.13,4,4,4,5,2,1,1,0
11.135,9,20,2,16,2,0,3,8
11.14,19,26,7,7,6,4,6,10
11.145,4,6,1,4,5,2,3,5
11.15,5,13,3,3,1,4,4,5
11.155,12,23,1,3,10,4,3,3
11.16,22,15,5,2,4,2,3,10
11.165,19,4,6,1,4,4,2,5
11.17,6,10,3,15,5,3,0,1
11.175,8,6,7,29,11,6,3,4
11.18,7,1,1,2,3,1,1,3
11.185,2,23,7,7,0,0,1,5
11.19,10,26,5,10,4,1,3,6
11.195,12,12,4,16,0,1,0,2
11.2,12,11,2,2,2,3,1,1
11.205,9,17,7,0,1,1,5,4
11.21,13,17,10,12,9,7,9,8
11.215,12,22,7,9,4,0,2,0
11.22,13,17,21,31,12,5,7,7
11.225,14,3,8,19,12,8,4,1
11.23,17,19,12,15,6,3,4,9
11.235,16,20,2,13,6,1,4,2
11.24,13,1,2,2,2,2,0,2
11.245,2,4,2,1,4,0,3,4
11.25,9,15,4,6,3,1,2,3
11.255,4,3,1,2,1,2,3,1
11.26,2,7,1,3,3,3,6,5
11.265,0,4,7,3,2,3,4,2
11.27,3,1,2,6,6,3,0,1
11.275,1,17,1,9,5,2,3,3
11.28,1,10,20,40,11,2,2,8
11.285,10,12,6,4,5,6,6,5
11.29,4,33,10,4,0,4,0,3
11.295,0,10,4,8,1,2,2,8
11.3,10,4,1,4,3,6,6,16
11.305,1,10,1,4,0,1,7,6
11.31,9,24,6,4,3,1,1,5
11.315,2,6,4,11,7,4,2,5
11.32,6,1,9,11,8,2,3,4
11.325,1,3,9,7,6,1,2,2
11.33,1,5,3,1,3,2,2,11
11.335,4,14,4,4,0,5,7,3
11.34,2,9,5,1,3,1,1,1
11.345,5,14,5,6,4,0,3,0
11.35,4,15,3,1,1,1,2,2
11.355,5,11,2,4,6,0,1,4
11.36,5,5,5,10,5,5,4,2
11.365,3,0,4,15,7,4,0,0
11.37,2,8,6,16,11,4,0,0
11.375,11,16,0,13,4,1,1,3
11.38,3,2,5,17,1,5,2,0
11.385,18,34,5,1,3,1,1,5
11.39,10,20,1,1,1,1,1,0
11.395,12,16,4,8,4,3,8,10
11.4,3,3,3,6,1,2,0,4
11.405,1,2,1,0,3,4,4,3
11.41,5,5,1,0,0,3,6,9
11.415,5,8,1,6,3,3,7,12
11.42,5,2,4,6,4,1,2,5
11.425,4,0,2,0,1,0,0,2
11.43,5,5,0,10,4,3,1,10
11.435,0,10,1,6,3,2,3,7
11.44,3,4,1,9,1,1,1,1
11.445,3,0,11,18,6,2,4,6
11.45,3,28,2,3,1,1,1,1
11.455,5,20,14,14,9,2,3,1
11.46,6,24,13,14,7,1,2,2
11.465,5,7,1,2,4,3,2,7
11.47,0,4,1,4,6,0,3,3
11.475,1,6,10,12,6,1,3,1
11.48,2,10,3,8,3,2,1,2
11.485,0,2,1,0,1,0,0,4
11.49,8,2,3,3,0,2,5,10
11.495,4,2,1,1,0,1,0,3
11.5,6,5,1,3,4,1,2,6
11.505,14,8,8,8,2,1,3,2
11.51,20,10,1,0,5,5,4,5
11.515,12,5,3,4,3,1,0,9
11.52,12,2,1,1,0,2,5,8
11.525,1,2,1,2,4,1,6,9
11.53,1,9,13,16,8,0,7,1
11.535,1,0,3,0,1,2,0,7
11.54,5,5,9,3,6,2,3,10
11.545,0,2,0,1,1,1,5,12
11.55,25,8,0,7,2,0,4,14
11.555,8,4,2,1,1,0,0,3
11.56,5,9,5,2,2,0,1,1
11.565,9,10,0,6,0,1,1,8
11.57,13,18,10,4,1,1,3,7
11.575,12,1,1,3,2,2,2,6
11.58,10,2,3,2,0,1,1,4
11.585,8,1,5,4,5,4,6,8
11.59,2,1,0,0,3,2,1,1
11.595,4,0,2,1,2,1,1,1
11.6,7,0,1,6,1,1,5,9
11.605,7,27,5,1,1,1,4,6
11.61,13,13,5,0,1,4,4,4
11.615,1,4,7,9,3,4,6,4
11.62,15,12,5,5,4,1,3,6
11.625,1,3,2,6,2,1,3,2
11.63,13,16,6,1,0,2,2,12
11.635,5,5,3,1,1,2,3,3
11.64,7,10,7,6,6,2,1,2
11.645,5,12,5,3,1,2,2,0
11.65,2,3,1,3,7,4,6,8
11.655,1,3,1,4,1,3,5,4
11.66,3,9,2,4,2,0,4,4
11.665,2,7,8,5,6,4,4,7
11.67,2,4,1,4,1,1,5,6
11.675,2,1,3,2,2,2,0,2
11.68,0,2,4,2,3,1,1,2
11.685,2,1,1,1,4,2,2,2
11.69,5,5,8,8,2,0,2,4
11.695,1,8,6,4,3,2,2,4
11.7,0,12,2,4,4,1,2,2
11.705,9,19,1,2,5,6,5,1
11.71,0,5,1,2,2,4,3,2
11.715,1,6,6,4,3,0,3,5
11.72,0,7,3,2,2,1,3,3
11.725,4,0,3,3,1,2,2,9
11.73,1,13,7,6,1,0,2,1
11.735,7,10,3,3,3,3,2,7
11.74,10,10,4,4,0,5,9,17
11.745,0,9,1,1,2,1,0,1
11.75,9,6,6,4,1,0,0,9
11.755,2,0,1,2,1,0,2,4
11.76,1,3,3,1,1,1,2,3
11.765,2,3,2,10,3,2,1,0
11.77,1,10,2,3,1,0,1,1
11.775,9,20,5,6,4,1,4,3
11.78,1,4,3,0,2,3,3,1
11.785,5,2,0,1,0,1,1,3
11.79,1,2,6,3,3,3,1,5
11.795,4,11,1,1,1,1,2,2
11.8,2,2,1,3,0,2,4,3
11.805,3,2,1,1,0,1,2,5
11.81,7,1,5,1,1,1,3,6
11.815,5,13,3,1,3,2,2,3
11.82,7,25,9,8,3,3,1,3
11.825,6,7,4,1,1,3,1,2
11.83,3,1,6,1,0,0,2,3
11.835,2,3,9,7,0,3,3,1
11.84,0,0,3,1,0,1,1,5
11.845,8,12,1,0,1,0,0,3
11.85,2,5,1,1,1,3,5,4
11.855,2,4,1,0,2,0,1,1
11.86,2,2,2,1,0,1,2,1
11.865,3,1,3,5,3,1,1,0
11.87,4,2,5,6,7,6,3,3
11.875,1,4,2,5,3,3,4,3
11.88,2,2,3,1,5,4,4,7
11.885,9,6,1,3,3,4,8,16
11.89,6,3,2,4,3,1,1,4
11.895,14,7,2,4,5,6,15,26
11.9,4,4,3,5,1,3,4,6
11.905,5,1,2,1,2,2,3,10
11.91,11,4,5,1,1,0,1,3
11.915,12,2,0,3,1,2,2,8
11.92,10,3,1,1,3,3,5,3
11.925,13,1,2,1,1,0,7,14
11.93,0,1,1,1,0,2,2,3
11.935,4,4,0,4,5,1,1,4
11.94,7,2,1,0,2,3,6,10
11.945,6,4,6,2,7,7,3,0
11.95,0,4,7,5,1,1,1,4
11.955,8,2,0,3,4,3,1,11
11.96,11,4,1,2,2,3,1,3
11.965,4,1,3,2,2,3,1,3
11.97,0,1,4,4,2,3,7,3
11.975,2,3,3,2,4,3,2,2
11.98,8,1,3,4,2,1,2,7
11.985,3,2,1,1,0,0,0,0
11.99,7,5,11,9,3,1,0,0
11.995,9,7,8,2,1,1,0,5
12,6,0,3,5,7,2,3,1
12.005,5,2,8,4,0,2,0,6
12.01,4,2,2,4,2,3,4,1
12.015,0,9,10,5,2,4,3,10
12.02,4,4,8,1,2,2,3,6
12.025,14,13,4,2,0,0,1,1
12.03,1,2,5,3,3,2,1,4
12.035,3,5,2,9,5,2,1,1
12.04,15,9,2,14,9,4,0,6
12.045,1,3,1,4,0,1,4,3
12.05,1,0,6,9,6,5,2,5
12.055,1,5,8,7,4,5,3,5
12.06,3,5,2,3,1,1,0,2
12.065,4,2,5,8,7,3,6,5
12.07,5,13,5,1,2,3,4,5
12.075,13,12,4,7,7,2,2,7
12.08,11,10,2,5,0,2,1,2
12.085,10,15,6,3,0,2,0,1
12.09,22,16,10,2,1,0,1,11
12.095,9,6,4,6,4,4,4,6
12.1,7,5,1,2,1,2,0,4
12.105,1,4,8,8,1,2,4,6
12.11,21,16,1,4,1,1,4,3
12.115,2,1,4,8,3,0,1,2
12.12,7,7,8,20,5,2,1,5
12.125,6,1,3,16,3,0,1,0
12.13,5,2,10,13,5,3,2,4
12.135,3,6,3,0,3,2,0,15
12.14,2,14,6,1,0,1,4,27
12.145,9,1,5,5,4,2,2,6
12.15,1,6,2,0,1,1,4,6
12.155,5,3,2,2,2,3,3,4
12.16,2,1,2,2,3,3,5,18
12.165,12,5,3,2,2,2,1,1
12.17,8,17,6,5,1,3,4,1
12.175,9,3,0,9,3,1,4,3
12.18,10,7,3,5,1,3,3,10
12.185,3,12,0,7,3,2,2,2
12.19,4,1,4,12,5,2,2,12
12.195,1,10,3,7,3,0,2,1
12.2,10,5,16,24,4,2,0,1
12.205,1,16,16,20,7,0,1,2
12.21,13,9,6,4,7,8,7,4
12.215,0,2,1,4,1,1,0,4
12.22,5,14,5,2,1,3,2,2
12.225,1,16,3,0,1,2,3,5
12.23,2,23,1,1,1,2,3,3
12.235,3,9,4,2,2,1,0,6
12.24,11,13,3,2,4,0,5,23
12.245,9,12,1,1,1,1,2,23
12.25,9,15,3,1,2,1,3,3
12.255,4,2,3,15,4,0,1,0
12.26,0,4,11,18,7,0,3,9
12.265,13,5,1,4,4,0,0,4
12.27,2,1,7,10,5,1,1,0
12.275,1,10,5,1,1,1,2,1
12.28,3,3,3,8,5,0,2,4
12.285,3,3,3,1,5,2,0,6
12.29,3,1,1,6,3,1,1,4
12.295,6,5,6,5,1,1,3,11
12.3,3,11,6,4,2,0,0,2
12.305,13,14,9,15,2,7,12,21
12.31,1,1,1,6,3,4,5,7
12.315,2,0,3,2,1,2,0,6
12.32,2,2,0,5,2,2,5,9
12.325,8,15,12,17,7,3,4,10
12.33,5,6,5,5,6,4,8,13
12.335,4,9,9,13,3,1,7,3
12.34,3,4,5,9,5,3,2,1
12.345,4,10,1,12,3,0,2,13
12.35,6,24,15,7,3,2,1,11
12.355,1,13,2,8,4,4,5,6
12.36,18,12,9,2,7,5,3,2
12.365,2,24,0,5,2,3,1,2
12.37,2,3,5,8,2,1,2,2
12.375,6,4,6,8,4,3,2,2
12.38,11,5,4,5,3,1,5,3
12.385,3,11,7,3,3,0,2,1
12.39,5,5,2,8,1,1,6,6
12.395,12,10,1,11,0,2,2,18
12.4,1,4,3,1,1,1,1,1
12.405,8,1,5,10,5,2,2,6
12.41,11,2,9,26,5,2,3,22
12.415,6,6,3,4,1,1,6,18
12.42,7,18,8,16,6,3,1,1
12.425,3,2,3,6,2,2,2,5
12.43,1,6,7,17,10,3,4,7
12.435,5,16,11,17,6,4,6,11
12.44,8,10,5,7,2,2,2,4
12.445,10,21,0,0,2,2,1,3
12.45,18,6,5,2,1,1,1,6
12.455,1,15,3,2,2,2,8,3
12.46,12,19,5,0,1,3,5,4
12.465,2,6,3,14,4,8,2,3
12.47,1,2,12,20,1,3,7,7
12.475,4,0,4,17,1,0,2,1
12.48,2,4,7,14,3,2,2,3
12.485,1,5,8,11,3,0,0,1
12.49,2,2,3,4,1,2,0,1
12.495,7,2,2,1,2,2,2,17
12.5,5,8,0,10,2,6,5,8
12.505,7,0,10,12,6,2,2,6
12.51,1,7,0,10,3,1,2,8
12.515,13,2,3,7,2,0,3,7
12.52,0,12,4,2,1,3,2,4
12.525,14,26,2,1,1,3,8,8
12.53,3,3,3,4,7,2,4,0
12.535,10,31,10,7,0,5,4,0
12.54,7,18,7,16,8,7,5,0
12.545,10,12,1,13,1,1,2,2
12.55,2,4,5,7,2,1,0,1
12.555,0,15,1,5,1,1,0,1
12.56,5,28,3,3,2,1,1,3
12.565,2,12,10,9,2,1,2,2
12.57,0,5,1,8,1,2,3,0
12.575,3,9,8,7,3,0,0,0
12.58,1,9,4,2,0,2,2,3
12.585,2,4,2,1,5,4,2,4
12.59,11,25,6,2,3,2,1,1
12.595,17,32,7,2,3,4,3,9
12.6,1,6,3,1,1,2,2,1
12.605,5,2,2,6,1,1,5,7
12.61,1,10,5,2,2,1,5,3
12.615,5,15,10,5,3,4,4,8
12.62,2,7,10,21,4,4,3,2
12.625,4,9,26,45,17,7,2,3
12.63,3,1,2,0,0,0,0,0
12.635,4,8,5,5,4,1,2,3
12.64,2,2,1,2,3,0,3,1
12.645,4,5,2,13,1,4,3,4
12.65,4,7,0,5,4,5,4,8
12.655,6,4,1,7,4,1,3,2
12.66,2,4,2,16,2,3,2,8
12.665,4,8,5,13,1,1,0,1
12.67,11,32,7,7,1,0,3,3
12.675,2,18,10,17,4,1,0,0
12.68,3,14,10,15,8,4,2,1
12.685,2,13,7,2,1,0,2,1
12.69,8,3,8,15,4,5,7,1
12.695,10,6,1,8,1,2,2,6
12.7,3,1,7,12,6,5,4,3
12.705,1,5,8,8,1,2,1,0
12.71,4,7,1,10,4,1,4,5
12.715,10,6,0,2,1,0,2,8
12.72,4,3,1,5,1,0,1,2
12.725,4,6,3,2,2,0,0,0
12.73,6,6,2,5,1,1,1,0
12.735,7,0,2,7,3,3,6,5
12.74,3,9,10,18,5,2,4,2
12.745,1,11,7,7,1,3,4,3
12.75,10,19,10,8,6,5,5,8
12.755,3,0,4,4,0,4,1,1
12.76,2,19,9,7,3,1,4,1
12.765,4,11,2,2,1,1,3,3
12.77,5,2,3,0,1,1,1,1
12.775,3,1,0,2,1,1,1,2
12.78,1,1,1,1,3,3,0,3
12.785,2,4,1,3,1,2,3,3
12.79,2,1,3,3,2,2,1,1
12.795,1,8,3,1,3,4,2,1
12.8,3,1,5,6,5,3,1,2
12.805,6,12,8,7,5,3,2,2
12.81,1,4,1,6,9,5,1,4
12.815,3,9,1,6,1,2,1,1
12.82,0,16,2,1,2,2,4,7
12.825,9,23,3,1,6,3,0,6
12.83,8,3,3,3,1,2,6,15
12.835,1,4,2,0,4,2,6,3
12.84,5,4,5,1,6,5,7,19
12.845,5,2,0,4,7,3,2,0
12.85,1,4,2,1,1,0,3,1
12.855,2,9,3,0,2,0,6,7
12.86,5,4,4,0,8,5,4,4
12.865,5,14,3,2,8,3,4,6
12.87,4,5,2,2,2,4,9,9
12.875,0,2,7,5,2,1,0,4
12.88,4,14,4,3,0,0,3,7
12.885,3,8,3,1,5,4,1,3
12.89,2,12,1,0,2,3,9,11
12.895,17,31,9,5,6,3,1,9
12.9,2,2,2,1,3,2,2,9
12.905,15,12,3,0,2,1,9,19
12.91,2,3,6,5,4,4,1,1
12.915,3,2,2,0,6,3,0,2
12.92,4,0,0,2,8,9,8,8
12.925,0,1,3,3,1,4,11,3
12.93,1,0,2,3,9,1,1,1
12.935,1,13,2,6,16,4,8,6
12.94,1,14,3,0,2,1,3,1
12.945,4,7,1,0,6,2,4,5
12.95,6,1,6,7,14,10,9,9
12.955,3,17,10,6,6,2,4,2
12.96,0,1,3,1,11,10,2,2
12.965,2,2,1,1,2,2,1,3
12.97,11,4,0,1,1,2,3,1
12.975,8,5,0,3,1,0,1,1
12.98,3,6,4,0,2,1,3,4
12.985,1,6,6,6,5,0,3,6
12.99,7,2,3,3,3,1,6,1
12.995,0,12,1,5,5,5,5,7
13,5,5,1,1,1,0,8,5
13.005,6,8,1,1,4,6,13,3
13.01,3,1,0,1,2,0,2,4
13.015,0,18,3,0,1,4,2,3
13.02,6,5,0,2,2,4,3,2
13.025,0,3,4,7,13,3,1,2
13.03,1,2,0,2,8,8,2,2
13.035,1,2,5,6,2,1,0,1
13.04,5,14,4,5,3,1,2,5
13.045,7,5,2,2,2,2,5,14
13.05,6,9,3,2,5,6,3,1
13.055,2,13,2,3,4,0,4,5
13.06,2,7,2,5,6,4,2,1
13.065,1,2,4,3,0,0,0,1
13.07,2,10,5,0,0,1,5,4
13.075,7,33,8,2,5,5,2,2
13.08,3,4,2,0,2,0,11,8
13.085,3,7,5,7,3,1,2,6
13.09,1,2,0,2,3,1,1,5
13.095,2,11,2,1,6,1,1,2
13.1,1,2,3,2,5,2,3,1
13.105,1,9,0,5,6,3,1,3
13.11,2,0,0,1,1,1,1,2
13.115,4,4,10,7,6,9,7,3
13.12,6,11,5,4,6,2,3,3
13.125,1,14,3,1,2,2,2,1
13.13,0,5,1,1,3,3,2,1
13.135,2,3,2,1,3,0,2,2
13.14,3,7,6,2,1,3,4,6
13.145,3,8,3,3,1,1,1,1
13.15,3,3,1,0,4,2,0,2
13.155,3,2,5,10,7,2,3,5
13.16,3,4,6,4,4,5,8,5
13.165,4,1,0,2,0,2,5,2
13.17,11,7,5,1,3,1,2,2
13.175,1,2,5,3,2,2,3,1
13.18,1,1,1,4,5,0,1,0
13.185,1,3,4,0,0,1,1,0
13.19,6,12,3,4,3,1,7,5
13.195,2,4,1,3,6,6,1,7
13.2,3,8,6,2,9,2,1,4
13.205,7,1,3,1,7,5,1,1
13.21,14,32,12,1,3,3,6,13
13.215,5,9,1,2,0,1,2,7
13.22,8,4,8,4,3,4,3,5
13.225,7,9,5,2,5,3,3,5
13.23,4,0,4,7,7,4,10,7
13.235,0,7,6,5,4,1,5,1
13.24,2,9,4,3,7,3,3,2
13.245,4,3,4,3,5,3,4,3
13.25,1,1,0,3,4,3,2,1
13.255,1,2,1,1,5,6,1,2
13.26,2,6,7,6,6,2,1,3
13.265,5,2,4,1,4,0,6,7
13.27,1,11,1,1,4,1,2,7
13.275,8,16,6,2,1,1,1,1
13.28,3,1,2,0,3,0,0,6
13.285,11,19,12,4,7,6,9,8
13.29,0,8,6,5,0,1,3,0
13.295,5,7,3,3,4,1,2,4
13.3,1,3,1,2,4,0,1,1
13.305,3,6,4,1,1,0,2,1
13.31,6,10,7,2,0,1,2,5
13.315,3,2,4,5,2,2,3,0
13.32,4,3,5,1,6,1,4,2
13.325,1,7,1,0,1,1,4,4
13.33,7,9,4,1,4,3,0,1
13.335,3,3,2,3,4,7,5,1
13.34,0,0,3,2,1,1,2,5
13.345,1,0,0,5,2,1,3,5
13.35,2,2,3,1,1,1,8,6
13.355,5,3,3,2,3,6,5,13
13.36,6,3,3,0,4,2,1,0
13.365,6,9,1,6,6,3,2,3
13.37,2,8,3,4,4,1,1,1
13.375,4,2,2,2,5,2,0,1
13.38,3,1,1,2,4,3,1,1
13.385,2,7,0,1,0,1,1,1
13.39,3,7,4,3,1,1,2,1
13.395,2,1,1,2,5,1,1,1
13.4,3,16,3,0,1,1,1,3
13.405,0,1,4,4,4,3,4,1
13.41,14,15,8,6,4,3,6,9
13.415,3,2,5,0,7,4,3,2
13.42,1,7,3,2,3,4,1,1
13.425,2,18,2,0,1,2,1,5
13.43,4,4,1,2,0,2,1,2
13.435,6,10,1,3,1,0,2,6
13.44,2,1,5,1,4,2,0,1
13.445,2,6,7,8,8,6,4,1
13.45,2,1,6,2,7,9,6,2
13.455,8,2,5,3,3,0,3,7
13.46,1,3,4,2,4,1,2,0
13.465,1,3,1,1,2,2,0,4
13.47,4,24,3,4,5,1,2,2
13.475,6,17,0,1,1,1,0,1
13.48,10,17,3,0,0,3,1,4
13.485,7,18,1,2,5,1,6,6
13.49,0,11,3,3,0,2,4,1
13.495,1,5,4,1,1,1,3,6
13.5,1,5,4,6,8,3,1,2
13.505,0,9,1,3,4,0,5,4
13.51,1,1,2,2,5,5,3,1
13.515,1,6,1,2,1,1,1,1
13.52,0,5,3,2,0,0,4,3
13.525,1,2,2,3,2,0,2,2
13.53,0,2,1,1,3,4,4,1
13.535,6,0,2,2,3,0,5,7
13.54,4,14,10,5,4,0,2,6
13.545,13,24,11,4,4,2,4,8
13.55,12,32,11,4,5,7,7,14
13.555,4,13,0,0,2,3,2,3
13.56,4,3,0,1,11,7,3,3
13.565,5,14,0,0,3,3,1,1
13.57,2,1,8,3,1,1,1,0
13.575,2,2,5,4,7,5,1,4
13.58,1,5,0,3,3,2,5,3
13.585,5,10,2,4,0,1,1,4
13.59,1,2,2,5,7,2,0,2
13.595,0,1,0,5,2,1,3,2
13.6,4,7,2,2,1,1,4,1
13.605,1,3,0,1,5,1,2,0
13.61,2,13,5,0,0,1,1,1
13.615,8,7,2,4,5,5,4,8
13.62,11,7,6,6,7,5,8,18
13.625,3,14,7,5,8,6,4,8
13.63,4,6,4,2,3,2,2,2
13.635,3,1,3,1,1,4,1,0
13.64,2,8,3,4,8,6,4,4
13.645,3,20,2,6,9,4,2,4
13.65,7,2,4,2,4,3,1,0
13.655,2,20,7,2,2,0,0,2
13.66,3,13,3,1,1,0,3,5
13.665,3,9,5,2,4,2,4,6
13.67,3,9,4,1,1,1,1,3
13.675,3,1,8,4,8,6,4,4
13.68,2,2,1,3,1,1,0,1
13.685,2,4,2,3,1,1,1,3
13.69,8,1,2,0,1,6,4,5
13.695,0,3,8,8,2,0,2,1
13.7,3,2,4,5,2,1,2,6
13.705,8,2,2,3,2,3,4,18
13.71,3,2,3,1,5,4,2,5
13.715,2,9,5,1,1,1,1,4
13.72,18,20,12,9,7,3,2,10
13.725,0,9,1,2,3,0,3,5
13.73,2,6,6,4,1,2,1,1
13.735,1,3,6,4,0,1,2,3
13.74,7,1,0,2,0,0,6,12
13.745,3,1,2,1,3,6,7,8
13.75,3,1,1,2,1,1,0,1
13.755,6,1,2,2,5,3,2,6
13.76,2,11,6,1,0,1,3,6
13.765,6,5,5,1,3,3,0,1
13.77,2,4,3,5,2,1,1,3
13.775,3,5,0,4,1,1,0,4
13.78,3,10,0,1,3,2,1,2
13.785,4,1,1,2,2,4,2,3
13.79,0,4,1,2,4,0,1,1
13.795,5,6,1,1,0,0,1,2
13.8,2,1,1,5,6,4,8,7
13.805,2,1,2,2,2,1,4,1
13.81,2,4,3,4,3,2,2,2
13.815,1,4,2,2,2,0,0,4
13.82,1,3,1,5,5,2,1,3
13.825,2,4,1,2,2,1,1,10
13.83,2,4,0,3,3,2,5,5
13.835,6,3,6,6,2,1,1,7
13.84,2,1,1,3,1,3,2,0
13.845,3,3,2,2,3,0,0,2
13.85,3,7,2,0,1,2,0,2
13.855,7,10,3,1,3,3,2,6
13.86,3,9,5,3,2,1,2,9
13.865,2,20,7,0,5,3,6,4
13.87,3,4,2,1,4,2,4,3
13.875,2,5,7,4,4,2,0,5
13.88,1,4,7,4,6,2,0,1
13.885,2,2,3,5,3,1,2,1
13.89,5,3,1,0,3,1,1,1
13.895,1,3,0,1,1,1,4,1
13.9,4,3,2,3,4,4,1,1
13.905,2,0,3,3,2,1,3,3
13.91,5,1,0,4,3,1,3,6
13.915,2,16,1,2,1,0,1,4
13.92,15,36,17,6,5,5,6,2
13.925,7,0,0,1,2,2,6,12
13.93,2,1,1,1,3,4,1,0
13.935,7,1,2,2,2,0,1,1
13.94,4,2,1,0,1,0,1,3
13.945,2,3,0,0,1,2,2,7
13.95,0,3,5,3,1,2,4,9
13.955,7,3,3,3,1,1,2,4
13.96,4,3,1,2,1,1,3,5
13.965,1,2,3,8,1,1,3,4
13.97,0,4,0,3,3,0,2,5
13.975,19,13,3,0,1,4,13,12
13.98,4,3,3,5,2,2,4,4
13.985,2,0,4,14,10,5,4,0
13.99,5,9,3,0,1,0,2,2
13.995,19,13,0,4,1,2,5,7
14,12,14,10,9,8,10,7,4
14.005,2,3,0,1,2,0,1,2
14.01,12,11,7,3,1,1,6,6
14.015,13,13,0,1,2,2,2,2
14.02,8,18,9,6,5,6,3,1
14.025,2,5,2,5,3,0,3,3
14.03,7,4,3,5,2,2,1,7
14.035,3,7,4,8,1,1,1,7
14.04,11,7,2,1,4,1,3,11
14.045,4,0,6,7,2,1,3,2
14.05,8,18,7,1,1,3,6,3
14.055,2,8,4,1,2,2,1,3
14.06,2,23,5,20,10,6,2,3
14.065,15,32,12,4,3,1,1,1
14.07,3,4,3,0,3,3,0,5
14.075,12,6,2,1,1,0,1,6
14.08,5,53,18,10,4,4,4,3
14.085,12,68,14,1,6,4,8,12
14.09,2,3,3,6,0,2,1,1
14.095,4,6,2,5,0,0,0,2
14.1,3,8,0,6,3,4,4,2
14.105,14,37,11,4,2,1,1,0
14.11,3,7,3,18,5,0,1,2
14.115,7,10,10,21,8,5,1,5
14.12,6,6,1,0,3,2,4,3
14.125,7,8,6,14,7,7,7,7
14.13,11,2,2,1,0,1,1,6
14.135,4,24,3,10,1,0,2,1
14.14,0,29,0,3,1,0,1,2
14.145,10,7,10,16,7,2,3,1
14.15,5,2,2,2,0,1,1,3
14.155,9,6,2,6,1,0,2,5
14.16,19,0,1,5,1,1,1,8
14.165,11,16,10,18,5,0,1,1
14.17,8,3,6,15,5,1,2,6
14.175,13,9,0,5,1,3,2,1
14.18,11,13,8,5,4,4,4,6
14.185,8,20,5,0,2,1,1,0
14.19,6,2,1,5,2,3,0,5
14.195,4,16,6,10,6,1,4,8
14.2,12,11,5,8,0,1,0,1
14.205,11,15,6,14,4,0,2,5
14.21,3,10,4,2,1,1,2,5
14.215,7,6,4,0,1,1,0,3
14.22,5,2,0,4,2,0,0,0
14.225,3,2,1,5,0,1,4,2
14.23,4,12,6,7,5,6,5,8
14.235,9,10,1,9,5,2,1,4
14.24,7,7,9,9,6,1,3,9
14.245,0,19,4,3,1,1,2,4
14.25,5,2,2,1,0,1,1,2
14.255,0,6,0,1,1,1,1,1
14.26,5,2,1,5,0,3,3,4
14.265,4,6,7,7,5,3,4,5
14.27,4,3,1,14,2,3,1,6
14.275,3,3,2,3,0,3,1,3
14.28,1,3,2,4,1,1,0,1
14.285,2,7,4,9,4,3,3,1
14.29,2,2,1,7,3,0,0,0
14.295,3,3,2,2,1,0,0,2
14.3,4,5,5,1,4,3,1,3
14.305,12,6,6,0,1,1,2,5
14.31,1,8,7,1,2,1,1,5
14.315,10,2,1,4,1,2,5,3
14.32,4,20,7,6,2,0,2,4
14.325,8,12,5,3,3,3,3,3
14.33,1,1,1,3,1,4,1,1
14.335,3,7,3,2,5,3,5,6
14.34,2,6,2,4,2,0,2,1
14.345,3,10,2,9,3,3,2,1
14.35,8,12,5,2,3,0,1,3
14.355,2,7,5,4,5,3,2,4
14.36,4,12,1,1,3,2,2,3
14.365,4,13,6,2,3,2,2,1
14.37,5,31,7,1,3,1,1,5
14.375,5,20,1,2,3,2,1,2
14.38,2,18,1,1,2,1,3,7
14.385,9,3,5,1,4,2,0,2
14.39,2,6,0,0,2,1,1,1
14.395,3,1,4,4,2,1,1,0
14.4,6,10,1,1,2,3,1,4
14.405,4,6,0,4,1,3,2,1
14.41,2,3,5,5,2,1,1,1
14.415,2,7,1,3,2,1,0,1
14.42,1,16,3,1,1,3,3,1
14.425,7,21,0,6,1,1,3,1
14.43,2,11,4,7,4,2,0,2
14.435,5,4,5,4,1,2,1,5
14.44,1,6,0,1,1,0,1,0
14.445,1,9,1,1,0,1,2,1
14.45,9,14,2,0,1,1,2,7
14.455,7,15,1,2,1,1,0,3
14.46,11,6,1,1,1,1,0,2
14.465,5,5,1,2,1,1,1,2
14.47,7,17,2,3,1,2,0,2
14.475,2,11,4,5,5,1,1,1
14.48,2,7,3,3,0,1,0,2
14.485,0,6,4,5,1,1,1,2
14.49,0,3,1,1,0,4,3,1
14.495,4,1,1,0,1,2,1,0
14.5,1,4,3,4,2,3,3,1
14.505,7,10,4,5,7,5,8,9
14.51,13,15,6,4,3,0,3,6
14.515,1,0,1,2,3,1,2,5
14.52,2,5,3,1,1,0,1,1
14.525,7,4,0,4,2,4,1,1
14.53,1,3,2,2,6,4,3,2
14.535,2,6,8,3,1,0,3,0
14.54,3,8,3,2,0,2,4,0
14.545,3,5,1,0,1,0,5,6
14.55,4,9,2,2,1,1,2,6
14.555,3,5,1,2,3,3,4,1
14.56,1,8,1,0,3,1,3,0
14.565,3,7,5,1,0,0,0,1
14.57,6,11,0,0,1,4,3,6
14.575,5,0,5,7,5,3,5,8
14.58,18,23,10,4,4,5,8,11
14.585,1,2,4,2,1,1,0,1
14.59,12,8,2,0,3,1,2,4
14.595,4,11,2,3,1,2,4,6
14.6,9,27,9,5,2,2,2,8
14.605,4,9,0,4,0,0,1,2
14.61,1,7,1,4,1,1,1,3
14.615,9,13,6,3,4,1,3,2
14.62,2,8,1,2,2,2,1,3
14.625,9,17,8,4,2,2,3,7
14.63,1,2,1,0,0,2,2,1
14.635,2,15,2,4,2,2,1,1
14.64,6,32,4,0,1,0,0,2
14.645,6,16,4,1,1,1,1,1
14.65,5,3,4,3,3,5,3,5
14.655,5,10,2,0,0,0,2,3
14.66,5,5,2,1,1,0,1,7
14.665,6,11,1,1,0,2,2,2
14.67,5,5,0,1,1,1,2,4
14.675,2,5,5,4,2,0,2,4
14.68,3,0,2,3,2,2,1,0
14.685,6,1,1,1,3,3,0,1
14.69,0,0,1,3,3,1,1,7
14.695,4,1,2,2,0,1,5,12
14.7,3,5,0,5,6,2,6,5
14.705,9,12,5,3,3,1,1,4
14.71,1,5,0,2,2,4,4,2
14.715,2,15,5,4,0,1,1,3
14.72,6,6,3,6,2,0,2,0
14.725,1,7,1,4,3,1,2,0
14.73,2,7,2,2,2,0,0,1
14.735,0,3,0,0,2,2,2,6
14.74,7,5,3,2,2,2,0,0
14.745,4,4,4,2,2,4,5,0
14.75,3,5,3,4,2,1,1,3
14.755,1,1,2,3,2,0,4,4
14.76,4,22,9,5,4,1,1,1
14.765,1,5,7,8,6,3,4,4
14.77,1,6,4,15,9,5,7,5
14.775,3,13,3,4,1,4,2,4
14.78,10,19,7,1,1,1,1,4
14.785,10,27,6,2,1,1,4,7
14.79,5,3,1,1,3,3,3,1
14.795,2,3,1,2,1,1,1,1
14.8,7,14,9,0,1,1,1,1
14.805,1,2,1,2,1,0,2,2
14.81,3,8,0,1,1,4,5,3
14.815,8,8,5,7,5,4,5,6
14.82,2,8,1,7,1,0,1,0
14.825,7,12,1,1,0,3,1,5
14.83,16,5,1,5,2,2,1,0
14.835,7,1,2,2,1,2,1,3
14.84,6,23,7,4,4,2,1,6
14.845,0,3,0,6,3,0,1,1
14.85,6,1,3,3,2,0,1,1
14.855,2,11,1,8,4,4,2,2
14.86,5,9,4,5,3,3,6,1
14.865,11,16,8,7,4,1,11,10
14.87,26,16,2,3,1,1,14,20
14.875,15,3,3,8,7,4,2,6
14.88,2,2,0,0,0,0,1,1
14.885,8,4,4,1,0,1,0,4
14.89,8,11,0,4,2,2,5,3
14.895,6,5,1,3,6,3,6,4
14.9,8,30,16,7,6,4,4,4
14.905,7,7,7,9,7,6,4,3
14.91,13,48,5,9,6,2,1,3
14.915,28,56,12,0,0,4,8,12
14.92,4,2,1,3,3,3,1,2
14.925,1,0,6,4,3,3,9,7
14.93,8,4,1,5,3,2,5,5
14.935,3,4,10,7,6,5,4,2
14.94,1,2,1,6,2,3,1,0
14.945,7,8,7,12,9,6,7,9
14.95,3,5,2,2,4,2,3,3
14.955,4,9,3,7,3,1,1,8
14.96,4,6,5,2,3,2,1,5
14.965,13,2,1,5,1,3,8,9
14.97,5,16,3,1,1,3,3,5
14.975,5,5,3,0,1,2,1,0
14.98,3,6,3,3,1,2,2,1
14.985,4,20,7,9,5,3,2,4
14.99,1,20,11,19,12,4,1,3
14.995,3,3,4,4,2,3,2,0
15,3,17,11,12,8,4,6,6
15.005,1,3,0,1,3,2,2,4
15.01,9,6,7,18,12,5,6,7
15.015,3,4,1,7,4,1,2,4
15.02,4,19,4,12,6,2,0,0
15.025,2,17,3,11,3,1,1,2
15.03,1,5,5,3,7,4,4,7
15.035,6,2,2,2,1,1,1,8
15.04,3,14,0,3,4,1,2,6
15.045,10,0,1,4,2,3,6,19
15.05,1,4,1,3,2,2,6,7
15.055,4,3,0,3,1,0,0,4
15.06,5,5,3,2,1,1,2,8
15.065,2,3,0,1,4,1,4,7
15.07,8,3,1,6,1,2,1,1
15.075,13,5,7,16,6,2,0,3
15.08,1,11,8,14,8,7,3,7
15.085,4,3,5,3,5,2,2,6
15.09,0,10,6,10,8,5,2,4
15.095,23,29,14,15,5,4,3,17
15.1,1,7,0,0,5,4,7,1
15.105,2,5,0,1,2,0,2,13
15.11,3,5,5,8,8,2,6,6
15.115,16,16,4,5,2,3,1,7
15.12,29,28,8,3,4,5,6,8
15.125,2,6,11,3,11,6,6,7
15.13,6,0,3,11,1,1,6,1
15.135,8,9,1,20,3,2,0,9
15.14,13,0,3,1,8,4,4,5
15.145,0,16,1,10,3,0,2,4
15.15,8,25,6,4,3,3,2,5
15.155,0,1,5,1,3,1,1,3
15.16,2,5,3,5,3,2,1,3
15.165,0,23,7,31,3,2,3,5
15.17,12,26,10,10,2,3,4,10
15.175,7,15,4,13,9,8,8,6
15.18,12,17,8,12,4,2,5,10
15.185,10,8,1,13,2,4,8,19
15.19,5,10,4,24,6,4,0,3
15.195,3,10,7,20,1,2,5,5
15.2,2,2,5,10,1,1,1,1
15.205,5,22,3,11,3,4,4,3
15.21,1,10,0,2,1,1,0,2
15.215,3,11,2,3,6,6,8,1
15.22,5,3,3,9,2,1,3,0
15.225,20,7,3,8,3,6,5,0
15.23,7,4,4,9,3,1,2,1
15.235,2,5,2,2,4,1,3,2
15.24,5,5,0,2,0,1,0,1
15.245,11,2,1,4,2,1,3,1
15.25,1,3,2,9,4,2,5,11
15.255,20,1,11,18,6,6,6,8
15.26,2,8,6,10,2,1,1,3
15.265,12,20,13,10,4,3,6,12
15.27,2,19,8,3,2,4,3,1
15.275,7,11,0,2,3,2,3,7
15.28,1,5,7,2,6,7,11,14
15.285,3,3,4,2,4,4,4,3
15.29,2,9,0,5,0,1,2,4
15.295,9,1,3,4,1,1,2,5
15.3,9,14,1,0,5,2,2,2
15.305,1,1,3,1,2,0,0,2
15.31,13,9,10,9,8,3,6,9
15.315,6,8,3,8,5,3,1,3
15.32,1,19,6,15,3,5,4,3
15.325,15,25,0,10,1,2,6,16
15.33,6,9,2,14,1,1,3,3
15.335,16,6,8,18,5,3,3,6
15.34,3,7,1,14,3,1,1,4
15.345,8,17,2,20,5,4,6,7
15.35,12,0,2,1,2,1,1,5
15.355,5,7,6,22,8,2,2,0
15.36,3,3,5,8,1,2,3,1
15.365,15,6,5,6,3,3,1,7
15.37,3,5,4,4,1,0,2,2
15.375,1,2,4,1,0,0,3,10
15.38,19,16,5,2,1,3,5,19
15.385,19,8,5,16,5,1,3,3
15.39,14,1,10,12,4,4,0,4
15.395,6,15,2,7,1,1,3,3
15.4,2,5,3,4,5,1,1,10
15.405,4,8,6,2,3,0,2,1
15.41,2,1,9,16,7,4,8,11
15.415,0,0,15,18,6,1,5,11
15.42,3,8,26,21,7,3,3,4
15.425,13,3,0,14,6,3,1,5
15.43,5,5,0,12,3,2,1,2
15.435,1,3,10,12,7,5,4,3
15.44,5,4,9,10,2,0,2,1
15.445,3,2,4,3,2,1,1,8
15.45,8,5,2,6,1,3,3,0
15.455,5,0,4,9,3,4,10,8
15.46,7,0,9,6,1,1,1,8
15.465,7,1,3,3,3,5,2,10
15.47,10,1,9,7,5,2,5,20
15.475,1,3,9,5,2,2,4,7
15.48,0,1,0,10,3,1,2,5
15.485,1,0,2,13,1,1,0,3
15.49,6,5,7,7,3,2,0,4
15.495,3,1,3,12,8,2,4,4
15.5,1,0,7,8,8,4,2,1
15.505,2,7,1,6,0,2,2,2
15.51,7,3,10,3,6,0,3,5
15.515,10,2,5,4,1,2,1,3
15.52,2,1,1,5,9,4,5,4
15.525,4,5,1,4,1,0,1,4
15.53,3,12,3,4,0,1,0,1
15.535,5,3,1,2,1,1,1,2
15.54,12,0,1,1,1,3,1,6
15.545,5,2,3,7,3,3,3,8
15.55,4,2,4,1,2,1,2,2
15.555,2,1,4,7,3,1,1,5
15.56,0,7,6,2,0,0,1,1
15.565,2,5,4,8,1,1,0,1
15.57,3,10,6,5,6,2,1,1
15.575,3,13,0,14,4,0,0,4
15.58,11,4,5,5,4,6,5,7
15.585,3,3,1,1,0,2,2,3
15.59,7,3,9,31,9,2,0,1
15.595,7,2,9,37,8,2,1,5
15.6,6,4,2,2,2,0,1,3
15.605,2,7,15,30,5,5,5,6
15.61,3,3,15,21,4,3,2,2
15.615,4,15,1,4,3,2,2,3
15.62,8,31,6,11,7,3,0,2
15.625,10,4,4,4,3,3,5,16
15.63,7,11,11,9,0,3,5,5
15.635,2,1,6,26,7,3,2,1
15.64,1,2,5,12,2,4,5,3
15.645,4,14,18,27,8,2,3,1
15.65,5,7,3,2,1,2,0,1
15.655,3,4,2,3,2,1,0,1
15.66,0,7,11,33,8,3,1,2
15.665,14,6,1,15,9,5,1,2
15.67,19,1,3,3,2,0,2,2
15.675,1,3,10,8,5,2,5,1
15.68,2,3,1,20,4,1,3,2
15.685,15,21,5,33,6,1,1,2
15.69,19,37,10,37,15,2,3,3
15.695,29,45,25,35,17,8,9,13
15.7,0,7,3,2,8,2,1,4
15.705,2,23,18,18,5,0,5,8
15.71,2,5,13,14,7,1,1,5
15.715,10,9,13,18,7,5,4,4
15.72,5,1,3,15,4,1,3,3
15.725,12,5,0,9,1,0,4,7
15.73,1,6,7,8,4,5,3,7
15.735,3,7,3,3,2,3,4,5
15.74,5,10,5,15,5,2,2,2
15.745,10,8,2,11,1,2,7,0
15.75,10,8,2,4,3,1,4,9
15.755,4,1,2,2,1,0,2,5
15.76,5,1,1,4,3,3,1,8
15.765,2,1,7,4,2,3,3,1
15.77,10,4,3,4,0,3,4,1
15.775,1,0,4,7,1,0,6,6
15.78,24,7,5,1,2,2,2,2
15.785,10,21,10,12,3,1,1,0
15.79,10,14,3,10,8,5,3,5
15.795,0,7,5,6,1,1,2,0
15.8,30,11,3,1,3,4,5,7
15.805,15,4,4,3,1,2,1,3
15.81,11,21,9,17,1,1,1,7
15.815,7,1,4,2,1,2,3,0
15.82,14,16,3,10,4,4,2,10
15.825,2,6,5,3,2,0,2,1
15.83,15,30,16,23,6,2,2,8
15.835,39,54,15,9,3,5,3,10
15.84,10,4,3,4,3,1,1,1
15.845,2,6,4,2,7,3,2,2
15.85,9,1,3,7,1,0,1,3
15.855,11,21,5,2,0,2,2,0
15.86,15,3,8,12,6,2,3,6
15.865,10,8,5,5,0,1,3,19
15.87,11,3,3,9,2,3,2,9
15.875,11,14,2,7,2,3,3,24
15.88,17,11,5,3,1,0,4,4
15.885,12,8,11,17,8,7,9,5
15.89,1,4,12,14,11,6,3,3
15.895,10,13,7,16,6,4,4,3
15.9,8,7,3,2,1,1,3,7
15.905,3,5,7,6,3,2,6,11
15.91,0,3,2,2,0,2,5,4
15.915,1,11,3,6,0,1,1,4
15.92,11,8,4,5,0,1,5,4
15.925,7,18,8,3,0,6,10,13
15.93,1,5,9,9,2,0,1,13
15.935,23,8,0,5,1,2,5,6
15.94,15,11,7,1,0,1,10,10
15.945,18,2,4,5,1,2,1,3
15.95,2,2,18,8,0,1,1,3
15.955,3,1,22,15,8,2,17,12
15.96,1,4,2,18,4,4,22,25
15.965,3,4,9,16,9,9,22,10
15.97,0,1,2,11,1,11,22,3
15.975,9,3,1,9,7,3,4,22
15.98,10,2,6,5,1,2,10,1
15.985,3,15,1,4,4,1,3,1
15.99,5,26,14,9,2,3,6,2
15.995,1,5,1,5,0,2,2,1
16,1,3,1,8,1,3,1,0
16.005,4,2,5,21,5,5,14,8
16.01,3,9,3,18,4,5,12,9
16.015,4,4,0,15,2,4,10,2
16.02,5,7,2,7,3,1,0,3
16.025,5,7,3,10,3,2,3,8
16.03,10,12,9,11,1,2,5,3
16.035,16,10,12,13,6,7,16,16
16.04,12,1,7,27,11,6,2,5
16.045,16,4,1,2,0,1,0,10
16.05,6,3,5,6,2,1,2,4
16.055,19,18,7,10,1,3,10,7
16.06,3,3,1,5,4,1,10,1
16.065,16,5,1,0,1,2,4,4
16.07,2,4,6,10,2,6,14,10
16.075,14,9,5,1,2,3,1,3
16.08,11,4,4,16,2,3,6,7
16.085,32,5,1,7,1,7,9,1
16.09,10,14,1,4,2,3,8,2
16.095,10,14,10,3,1,0,2,5
16.1,15,35,14,5,3,3,1,11
16.105,15,6,3,7,5,7,14,16
16.11,4,11,15,25,13,3,1,1
16.115,14,1,1,1,4,2,4,12
16.12,5,9,6,24,6,2,0,1
16.125,13,11,3,14,1,3,7,6
16.13,19,6,1,6,3,5,1,3
16.135,2,8,7,6,4,3,4,3
16.14,15,19,16,20,7,2,9,14
16.145,25,20,16,31,16,10,8,3
16.15,6,2,2,1,3,5,7,2
16.155,13,3,4,16,10,3,2,3
16.16,10,11,3,13,7,4,1,4
16.165,27,14,4,7,2,1,4,11
16.17,13,5,5,4,0,1,3,8
16.175,15,5,7,2,4,2,2,10
16.18,28,10,5,7,0,0,3,11
16.185,23,2,8,20,14,8,3,9
16.19,7,1,4,2,1,2,9,13
16.195,4,3,0,2,1,2,14,18
16.2,4,7,1,4,1,1,2,0
16.205,18,4,3,16,4,3,4,4
16.21,8,6,2,8,1,1,1,2
16.215,8,1,1,5,1,0,5,5
16.22,18,12,7,21,8,3,1,7
16.225,7,5,6,16,7,3,0,4
16.23,2,8,6,1,4,3,11,11
16.235,10,6,0,7,3,1,2,11
16.24,7,8,6,1,2,3,4,10
16.245,25,18,3,5,5,5,5,8
16.25,2,7,1,5,2,3,6,4
16.255,7,22,6,4,1,3,5,4
16.26,1,1,3,0,4,2,4,11
16.265,12,3,2,1,1,0,8,15
16.27,1,2,8,9,1,2,13,11
16.275,10,1,11,18,8,5,6,10
16.28,1,7,2,12,3,3,5,6
16.285,5,2,8,7,3,0,3,2
16.29,3,1,5,5,4,2,1,4
16.295,1,3,1,6,2,0,1,3
16.3,8,9,2,12,5,1,0,2
16.305,3,11,6,29,7,4,2,6
16.31,18,18,4,4,0,0,2,2
16.315,14,31,9,10,6,1,3,4
16.32,3,5,7,2,3,4,7,5
16.325,1,1,19,4,1,2,5,8
16.33,10,5,0,1,1,1,4,1
16.335,3,21,10,2,2,0,2,0
16.34,16,21,12,19,6,0,2,5
16.345,9,4,7,10,1,4,19,32
16.35,13,12,6,6,4,3,0,8
16.355,5,11,10,26,11,3,3,8
16.36,11,8,4,2,1,0,1,1
16.365,8,3,2,12,7,5,13,14
16.37,1,8,2,8,0,0,0,2
16.375,8,0,0,0,0,2,7,6
16.38,11,8,3,1,1,1,7,5
16.385,2,3,0,6,2,1,4,8
16.39,12,3,2,9,0,0,2,1
16.395,5,1,2,11,2,0,2,2
16.4,0,3,10,21,7,2,0,0
16.405,2,7,9,7,3,3,2,4
16.41,1,3,2,2,1,3,5,7
16.415,8,9,3,5,2,3,3,5
16.42,9,2,2,8,1,2,3,9
16.425,15,0,1,4,0,3,6,7
16.43,1,0,0,3,3,2,8,5
16.435,20,2,3,12,7,5,11,12
16.44,0,0,0,2,1,1,4,1
16.445,1,2,1,1,1,1,3,4
16.45,13,1,0,7,4,2,2,1
16.455,29,7,3,0,2,2,1,4
16.46,4,2,0,4,2,4,6,6
16.465,12,2,7,8,3,2,3,8
16.47,0,6,7,5,6,5,5,7
16.475,4,2,2,7,2,1,3,1
16.48,1,3,8,7,3,2,3,1
16.485,9,0,1,9,3,0,3,3
16.49,19,3,7,22,7,3,6,10
16.495,10,1,10,12,4,1,0,4
16.5,0,4,18,37,16,3,0,4
16.505,24,1,17,30,9,4,0,3
16.51,0,9,22,45,19,6,3,3
16.515,1,5,5,8,3,1,4,1
16.52,12,4,3,1,2,1,5,4
16.525,37,6,4,20,8,3,0,7
16.53,2,1,5,19,9,2,1,3
16.535,6,9,9,3,1,0,3,6
16.54,11,1,11,11,6,3,1,0
16.545,19,6,1,1,2,0,2,4
16.55,3,11,9,4,4,3,2,5
16.555,13,4,13,3,2,2,4,3
16.56,12,13,17,11,10,3,4,6
16.565,4,4,27,37,21,8,6,3
16.57,1,1,13,13,4,2,3,6
16.575,6,0,6,7,1,5,17,17
16.58,6,10,7,0,3,4,3,1
16.585,13,9,6,14,4,5,3,1
16.59,0,1,2,3,2,4,7,4
16.595,7,10,6,5,5,1,5,4
16.6,0,1,7,13,6,5,5,1
16.605,1,1,9,7,2,2,1,6
16.61,2,1,0,6,1,3,3,1
16.615,14,6,3,1,1,0,4,6
16.62,2,2,0,6,3,3,3,9
16.625,4,1,3,1,6,4,4,1
16.63,12,7,8,2,2,1,1,0
16.635,8,2,3,10,4,0,2,2
16.64,13,3,3,3,0,0,2,11
16.645,8,8,10,8,3,1,4,13
16.65,3,1,5,1,2,3,3,9
16.655,1,10,3,5,3,1,1,3
16.66,2,3,2,5,5,0,2,6
16.665,11,9,5,0,4,1,1,4
16.67,14,3,6,0,4,2,2,4
16.675,15,2,5,6,2,3,9,1
16.68,7,6,3,4,1,1,6,4
16.685,3,4,2,8,2,1,3,7
16.69,23,0,3,1,2,5,11,1
16.695,2,7,4,3,5,6,10,4
16.7,9,17,11,6,4,2,4,4
16.705,2,1,3,2,4,1,1,3
16.71,1,0,7,6,2,5,6,2
16.715,4,2,1,4,5,1,1,1
16.72,2,7,0,0,1,0,6,6
16.725,19,3,4,10,8,5,5,1
16.73,36,3,2,2,2,2,1,5
16.735,13,3,4,4,1,0,5,1
16.74,9,4,2,4,5,2,2,7
16.745,16,0,7,12,7,6,7,7
16.75,9,3,4,2,2,2,0,3
16.755,1,7,1,7,4,5,0,5
16.76,6,17,1,1,2,0,0,1
16.765,7,5,2,2,7,4,9,4
16.77,2,5,5,1,2,6,16,3
16.775,3,14,5,5,1,5,8,3
16.78,0,8,2,2,3,4,4,3
16.785,16,0,6,1,2,4,2,2
16.79,37,10,2,7,1,1,8,17
16.795,10,10,10,7,3,1,0,8
16.8,5,9,1,10,5,4,1,3
16.805,5,14,10,1,8,6,4,5
16.81,25,14,8,6,9,5,7,3
16.815,12,4,4,4,1,1,2,1
16.82,3,1,0,2,3,2,5,9
16.825,1,0,8,4,5,5,7,11
16.83,4,5,4,12,7,0,3,12
16.835,9,5,9,16,11,5,4,3
16.84,2,1,1,4,4,0,0,1
16.845,12,6,4,9,5,1,4,4
16.85,6,0,3,3,3,4,7,7
16.855,7,8,1,6,3,3,7,1
16.86,1,1,2,2,3,1,1,5
16.865,1,7,3,0,0,2,3,0
16.87,25,10,1,6,2,0,1,0
16.875,8,6,5,1,1,4,9,2
16.88,0,0,2,1,2,1,4,14
16.885,15,1,6,17,4,0,4,16
16.89,14,1,3,9,5,6,6,2
16.895,11,10,1,2,2,1,1,3
16.9,3,4,1,3,2,1,1,0
16.905,7,2,7,0,5,4,3,5
16.91,8,4,0,7,1,1,5,2
16.915,5,8,4,1,0,2,6,9
16.92,16,3,4,2,1,2,1,2
16.925,1,2,2,5,1,4,0,1
16.93,3,1,4,1,0,3,2,3
16.935,6,2,3,3,2,1,5,0
16.94,1,1,0,1,0,2,1,0
16.945,14,6,1,9,2,4,6,8
16.95,15,8,2,2,1,2,2,0
16.955,0,7,4,10,3,1,3,4
16.96,7,2,1,6,4,2,4,7
16.965,4,4,6,4,3,4,4,5
16.97,1,5,2,11,2,0,4,1
16.975,3,9,2,4,1,6,11,4
16.98,11,12,1,3,1,1,3,0
16.985,5,4,4,3,2,2,3,0
16.99,0,2,2,4,2,3,7,6
16.995,2,1,4,7,2,2,4,1
17,2,1,5,1,4,4,1,7
17.005,7,6,2,3,0,3,0,0
17.01,2,6,0,1,1,0,2,3
17.015,0,9,3,6,2,1,3,3
17.02,3,5,9,4,2,3,5,4
17.025,4,4,7,12,3,0,0,3
17.03,8,7,5,5,5,4,6,6
17.035,1,2,2,0,1,4,6,1
17.04,2,3,0,1,1,1,3,9
17.045,4,4,3,2,2,0,0,7
17.05,13,3,9,9,4,5,10,16
17.055,8,19,14,14,9,5,1,1
17.06,14,1,1,7,6,3,5,8
17.065,2,2,4,3,0,2,2,3
17.07,0,11,8,4,6,3,7,8
17.075,5,1,3,5,1,1,1,1
17.08,14,3,7,1,1,2,2,18
17.085,18,3,0,7,7,5,4,27
17.09,13,3,12,13,10,6,11,20
17.095,3,6,1,2,1,1,1,2
17.1,18,0,6,9,3,1,4,4
17.105,12,0,1,1,1,3,10,22
17.11,4,1,1,11,3,4,6,7
17.115,2,7,8,14,8,4,1,1
17.12,3,10,1,2,2,2,1,3
17.125,9,11,5,8,1,1,4,4
17.13,21,8,3,9,6,4,8,6
17.135,1,4,1,0,0,1,3,3
17.14,6,4,1,5,2,5,6,2
17.145,5,10,10,22,3,1,2,7
17.15,7,4,1,15,2,3,5,8
17.155,24,1,4,8,1,4,8,8
17.16,15,1,1,3,5,3,2,2
17.165,18,7,3,3,1,3,4,7
17.17,6,4,6,6,2,2,4,7
17.175,22,7,2,5,4,1,1,6
17.18,5,2,4,6,2,2,2,3
17.185,13,4,4,1,3,3,10,10
17.19,29,10,4,5,3,2,0,3
17.195,34,10,3,6,0,4,4,16
17.2,6,12,5,9,4,3,5,11
17.205,2,8,5,5,6,7,14,12
17.21,2,6,2,5,1,5,17,13
17.215,9,0,9,7,4,3,2,3
17.22,2,2,4,1,2,0,1,2
17.225,3,7,4,1,4,2,5,8
17.23,20,4,13,11,5,3,2,5
17.235,8,17,7,8,5,4,8,15
17.24,13,15,11,8,6,5,1,18
17.245,23,5,7,2,3,2,4,19
17.25,29,8,4,6,0,2,6,10
17.255,10,5,3,11,3,1,10,8
17.26,11,7,13,19,6,4,4,13
17.265,7,7,7,17,1,1,5,5
17.27,10,2,1,12,4,0,3,8
17.275,8,24,1,22,6,4,5,29
17.28,16,28,3,8,4,4,7,53
17.285,15,3,8,13,6,2,1,2
17.29,11,14,14,23,9,5,1,29
17.295,9,12,0,8,2,2,2,9
17.3,0,4,6,2,6,1,3,10
17.305,5,2,4,9,1,0,1,7
17.31,16,8,2,2,5,1,0,5
17.315,11,10,5,11,2,0,4,2
17.32,3,6,0,5,0,2,1,2
17.325,12,4,5,4,5,5,6,5
17.33,7,7,3,6,3,2,3,11
17.335,34,4,3,12,5,3,1,28
17.34,8,3,5,15,8,5,2,11
17.345,11,3,4,4,5,5,13,27
17.35,2,12,5,4,2,2,5,10
17.355,4,15,4,7,6,4,13,25
17.36,12,4,3,2,1,3,0,3
17.365,2,0,7,9,1,2,1,6
17.37,14,8,14,25,10,4,5,6
17.375,24,1,5,12,4,3,0,20
17.38,1,8,1,1,3,2,1,15
17.385,6,8,7,14,15,8,1,30
17.39,12,5,8,10,7,6,1,2
17.395,3,5,8,11,1,3,5,2
17.4,4,2,5,19,8,1,4,9
17.405,6,21,5,1,2,4,8,20
17.41,11,4,6,6,8,5,5,2
17.415,13,3,3,6,1,1,10,52
17.42,4,1,2,9,2,6,2,32
17.425,23,10,12,5,4,3,8,0
17.43,0,11,7,13,11,3,4,10
17.435,6,2,3,20,3,3,3,7
17.44,5,1,1,20,1,0,9,27
17.445,5,4,10,14,8,5,7,13
17.45,4,3,2,15,6,1,6,14
17.455,23,4,10,15,9,4,3,9
17.46,6,0,3,1,4,1,3,8
17.465,10,17,5,1,2,6,7,6
17.47,8,10,0,5,2,2,1,2
17.475,1,8,5,6,3,2,2,6
17.48,12,9,1,7,3,1,8,17
17.485,10,3,13,17,12,9,6,8
17.49,9,12,5,10,1,0,1,8
17.495,3,4,1,6,3,3,1,29
17.5,3,12,6,9,9,4,0,7
17.505,8,3,2,19,3,1,5,10
17.51,9,9,8,16,8,3,0,6
17.515,9,8,3,6,2,1,4,11
17.52,1,1,5,8,8,2,5,4
17.525,4,17,5,4,2,2,2,6
17.53,5,19,17,9,7,3,1,2
17.535,4,1,1,5,3,2,1,5
17.54,4,2,1,6,2,4,3,2
17.545,2,3,4,11,2,1,2,2
17.55,2,3,1,10,1,3,5,10
17.555,18,6,12,28,12,6,9,16
17.56,4,5,0,1,2,5,3,2
17.565,2,4,4,6,1,6,13,9
17.57,21,30,13,2,1,7,8,4
17.575,6,2,7,16,6,3,2,3
17.58,3,7,1,2,6,3,6,33
17.585,9,4,1,4,0,0,9,32
17.59,11,2,31,52,28,14,8,8
17.595,2,5,4,2,3,2,3,1
17.6,0,9,6,6,11,2,5,8
17.605,3,25,8,1,2,4,4,5
17.61,1,2,0,9,3,2,9,10
17.615,0,6,9,14,12,3,5,10
17.62,1,0,2,10,2,3,3,2
17.625,6,7,2,9,4,0,5,8
17.63,1,3,7,1,9,5,2,2
17.635,6,15,10,10,11,13,8,10
17.64,1,12,7,9,8,11,8,11
17.645,4,20,8,12,1,2,4,4
17.65,1,4,0,5,10,5,2,2
17.655,6,4,5,9,3,6,8,25
17.66,2,6,9,10,14,13,8,0
17.665,2,2,4,8,8,4,4,3
17.67,1,11,7,5,1,2,1,1
17.675,2,0,2,1,9,6,0,3
17.68,4,10,3,3,3,4,2,6
17.685,0,4,0,4,7,2,3,6
17.69,6,0,4,3,1,0,4,1
17.695,7,4,3,6,14,8,0,3
17.7,4,9,5,1,11,4,2,3
17.705,10,10,7,3,12,4,5,11
17.71,6,3,4,2,11,8,9,10
17.715,3,1,3,2,7,4,7,13
17.72,1,5,17,9,9,5,3,3
17.725,1,3,3,1,5,3,2,6
17.73,0,2,1,2,2,1,6,5
17.735,4,6,7,7,9,3,1,4
17.74,5,1,1,1,4,3,1,0
17.745,2,4,3,4,5,2,5,2
17.75,2,5,3,3,9,13,5,1
17.755,3,1,0,2,2,2,1,4
17.76,1,8,5,2,4,6,8,3
17.765,0,0,2,2,0,8,0,3
17.77,3,3,2,0,0,5,1,2
17.775,6,4,2,2,0,3,1,1
17.78,2,4,2,4,5,4,5,0
17.785,10,3,3,8,4,0,1,2
17.79,1,4,1,1,0,1,5,6
17.795,5,2,1,0,6,1,1,12
17.8,8,25,12,6,3,1,3,5
17.805,2,7,3,0,0,2,5,4
17.81,1,1,2,0,1,1,1,1
17.815,1,4,3,9,8,4,2,1
17.82,2,5,10,2,5,0,4,1
17.825,2,11,1,3,9,5,1,3
17.83,3,5,1,3,5,1,0,9
17.835,2,1,4,4,19,10,5,1
17.84,4,1,1,6,19,12,7,4
17.845,3,2,4,1,10,6,1,8
17.85,1,4,2,0,2,3,2,4
17.855,2,2,3,3,4,4,4,6
17.86,0,0,2,6,16,8,3,3
17.865,1,6,4,1,6,1,5,20
17.87,9,3,2,1,4,7,14,17
17.875,8,19,4,0,3,0,8,13
17.88,4,0,2,0,4,4,0,2
17.885,0,0,1,2,1,1,4,9
17.89,1,2,0,1,4,2,5,1
17.895,0,4,4,5,4,3,5,9
17.9,7,1,3,3,0,2,2,7
17.905,1,4,2,5,6,3,3,0
17.91,4,1,1,1,3,2,6,3
17.915,4,4,8,1,5,1,2,1
17.92,8,3,2,3,3,4,5,15
17.925,0,5,1,1,6,0,5,6
17.93,9,2,5,3,3,1,1,4
17.935,11,4,3,0,1,0,1,3
17.94,6,6,4,0,2,1,5,3
17.945,1,5,4,2,7,6,4,23
17.95,1,2,2,5,2,2,0,5
17.955,11,11,2,4,1,1,1,8
17.96,2,13,2,1,6,6,8,3
17.965,6,0,0,2,1,1,2,5
17.97,4,13,3,4,1,2,3,3
17.975,0,13,6,4,9,3,5,15
17.98,8,31,7,0,1,4,3,9
17.985,12,0,3,1,13,8,0,15
17.99,18,6,1,4,8,8,1,16
17.995,3,21,2,2,3,1,3,6
18,0,5,0,3,4,2,1,5
18.005,4,5,2,2,6,3,1,2
18.01,8,4,1,0,1,1,5,9
18.015,15,9,2,2,2,1,2,5
18.02,11,8,1,0,2,2,2,3
18.025,8,8,8,6,7,4,6,12
18.03,0,4,2,1,6,4,2,0
18.035,6,11,0,3,4,0,2,9
18.04,11,1,4,2,2,3,3,0
18.045,4,1,5,5,5,4,12,18
18.05,10,13,7,7,11,5,7,3
18.055,4,8,0,1,0,1,6,9
18.06,0,7,4,3,4,1,9,11
18.065,2,4,1,2,2,3,10,16
18.07,2,3,4,2,2,2,4,7
18.075,3,5,3,2,1,0,7,13
18.08,0,10,9,1,2,3,2,1
18.085,1,0,3,6,4,3,1,2
18.09,7,3,1,1,3,2,3,6
18.095,3,2,3,7,11,4,5,2
18.1,5,3,0,3,2,2,2,5
18.105,2,6,7,10,1,5,6,1
18.11,6,3,4,5,5,1,1,10
18.115,5,7,4,6,5,4,8,10
18.12,0,0,1,4,3,1,1,5
18.125,4,1,4,5,1,0,0,5
18.13,8,3,2,1,1,2,2,6
18.135,3,2,3,3,2,1,0,2
18.14,2,6,2,4,1,2,3,2
18.145,7,13,5,4,2,4,5,6
18.15,1,2,6,4,1,3,1,0
18.155,1,7,3,4,2,0,4,4
18.16,6,4,6,3,2,4,6,5
18.165,3,11,2,2,1,0,4,8
18.17,37,22,3,3,2,1,0,9
18.175,18,5,4,4,2,4,1,6
18.18,15,4,8,15,12,9,10,14
18.185,0,4,0,2,3,1,1,6
18.19,10,6,1,1,1,1,1,8
18.195,7,9,2,1,1,1,3,9
18.2,35,4,8,9,1,0,3,3
18.205,51,8,8,9,3,0,1,10
18.21,49,15,2,4,5,2,4,7
18.215,4,5,14,9,6,5,6,5
18.22,4,4,0,5,3,3,2,3
18.225,16,4,1,5,7,7,8,1
18.23,30,11,7,7,6,0,3,14
18.235,27,4,2,5,6,5,7,13
18.24,2,3,3,2,1,1,3,5
18.245,7,0,2,2,4,2,1,5
18.25,16,13,3,3,4,1,2,8
18.255,6,13,5,1,2,2,2,0
18.26,1,21,16,39,14,4,3,4
18.265,16,26,10,2,2,1,4,6
18.27,8,17,14,16,14,10,9,7
18.275,4,13,8,17,10,5,4,3
18.28,9,6,4,2,1,1,6,6
18.285,19,0,2,3,1,0,1,3
18.29,14,10,9,9,10,6,10,11
18.295,6,8,21,10,6,4,7,9
18.3,24,7,16,30,15,5,12,12
18.305,14,6,12,22,10,8,15,16
18.31,20,4,25,9,0,3,5,9
18.315,8,3,3,7,1,1,2,2
18.32,14,6,3,24,12,6,0,4
18.325,30,18,7,3,5,1,0,5
18.33,2,6,9,24,6,4,2,9
18.335,16,16,34,36,14,7,6,1
18.34,9,6,0,7,12,1,0,3
18.345,19,2,3,4,0,2,1,8
18.35,7,1,5,14,9,3,1,0
18.355,0,6,8,23,5,3,2,2
18.36,1,25,37,44,25,9,13,8
18.365,0,4,1,4,3,5,1,1
18.37,9,1,3,7,19,11,16,12
18.375,1,3,3,0,4,1,2,2
18.38,6,3,1,2,3,8,4,0
18.385,4,2,1,1,5,5,1,5
18.39,10,12,10,3,6,2,0,3
18.395,9,4,1,1,2,1,0,1
18.4,1,3,2,3,3,3,3,4
18.405,1,7,11,11,7,3,5,4
18.41,7,11,4,3,0,0,1,5
18.415,5,3,0,19,9,3,1,7
18.42,40,24,15,21,9,3,10,24
18.425,7,7,1,6,4,4,3,3
18.43,7,1,9,8,7,2,4,2
18.435,2,4,1,1,1,0,1,3
18.44,24,37,25,18,11,4,3,9
18.445,3,6,2,0,4,0,2,1
18.45,4,7,11,15,12,6,5,12
18.455,16,1,7,8,9,3,2,13
18.46,29,20,11,1,2,2,10,23
18.465,4,1,8,7,2,4,0,1
18.47,10,19,8,6,6,0,2,5
18.475,26,40,30,12,14,6,13,21
18.48,6,4,5,3,3,0,4,10
18.485,4,15,0,3,9,2,0,3
18.49,5,12,3,1,5,2,4,3
18.495,9,14,8,7,6,3,1,1
18.5,6,1,4,6,5,2,3,5
18.505,38,72,22,11,17,12,11,15
18.51,47,70,26,5,1,0,15,30
18.515,83,93,78,31,20,12,28,53
18.52,11,5,8,3,9,7,3,4
18.525,12,3,6,8,11,6,6,3
18.53,6,23,6,1,3,6,8,10
18.535,37,39,28,12,11,3,7,23
18.54,8,2,5,5,1,4,2,14
18.545,4,19,10,4,6,5,7,8
18.55,7,25,2,7,3,1,0,6
18.555,8,1,8,1,5,1,5,8
18.56,7,13,4,8,4,3,1,3
18.565,10,6,5,6,0,0,1,0
18.57,7,18,17,16,7,7,11,16
18.575,19,12,17,4,10,7,8,9
18.58,10,12,6,5,1,1,3,5
18.585,46,60,30,14,15,14,17,28
18.59,11,10,4,18,2,2,0,1
18.595,4,43,14,19,10,1,0,5
18.6,16,26,14,7,0,3,2,11
18.605,3,16,2,1,1,2,2,4
18.61,11,41,17,9,4,5,6,9
18.615,49,96,31,27,12,3,6,3
18.62,17,46,19,20,15,7,9,4
18.625,3,14,9,10,7,2,2,1
18.63,6,1,9,3,3,1,3,4
18.635,4,2,5,9,9,3,5,1
18.64,21,27,9,3,13,5,5,7
18.645,1,5,1,4,1,1,3,1
18.65,10,8,6,16,16,8,9,10
18.655,15,18,1,4,4,6,1,7
18.66,3,7,2,6,3,0,8,12
18.665,10,21,15,2,1,1,2,1
18.67,2,19,1,2,2,4,7,9
18.675,19,29,14,12,12,5,4,7
18.68,8,17,9,3,3,2,0,3
18.685,8,13,3,1,5,0,3,3
18.69,5,12,5,1,6,1,3,2
18.695,17,22,7,4,3,3,3,7
18.7,12,27,9,4,8,6,8,6
18.705,8,6,3,1,1,1,0,5
18.71,21,37,6,3,7,4,7,11
18.715,5,10,2,9,3,4,1,4
18.72,2,11,3,4,1,3,4,4
18.725,7,10,1,1,2,1,0,1
18.73,9,0,11,9,4,5,8,10
18.735,8,15,4,1,4,4,4,1
18.74,9,26,9,5,2,0,1,3
18.745,0,15,2,0,4,2,6,5
18.75,0,9,2,2,1,0,0,2
18.755,0,9,1,0,0,3,1,0
18.76,3,8,2,1,1,1,4,6
18.765,5,4,7,4,0,1,3,8
18.77,2,9,9,5,3,0,3,2
18.775,6,7,5,2,1,1,4,5
18.78,1,3,1,0,0,0,0,0
18.785,1,6,0,0,2,2,1,0
18.79,4,6,7,3,3,0,1,3
18.795,1,10,3,4,4,3,1,1
18.8,12,11,10,2,1,1,1,7
18.805,1,3,1,3,4,5,4,2
18.81,4,8,2,0,0,1,2,1
18.815,6,12,3,8,11,3,2,4
18.82,3,5,4,5,8,3,6,6
18.825,6,14,10,22,10,7,7,8
18.83,2,5,3,3,2,0,0,2
18.835,3,5,6,5,3,1,2,2
18.84,2,7,2,14,1,7,4,3
18.845,0,6,9,24,13,1,1,1
18.85,8,25,12,1,9,13,11,13
18.855,5,18,5,13,4,0,1,4
18.86,29,20,13,17,14,5,11,15
18.865,5,3,8,1,0,4,0,0
18.87,19,16,2,11,6,2,7,11
18.875,31,9,9,30,18,10,8,12
18.88,7,4,8,16,6,4,5,7
18.885,7,10,1,2,9,3,1,1
18.89,14,16,20,43,27,2,9,9
18.895,3,1,7,22,16,4,4,3
18.9,6,6,0,3,17,1,0,0
18.905,7,1,0,17,6,14,9,6
18.91,1,4,3,16,15,8,2,2
18.915,12,11,5,8,11,1,1,1
18.92,2,9,8,21,3,1,1,1
18.925,5,9,8,36,26,1,0,1
18.93,5,1,18,18,3,2,3,2
18.935,19,30,6,33,19,9,7,0
18.94,9,9,19,4,7,3,7,15
18.945,3,13,4,17,4,6,9,18
18.95,33,34,13,32,8,7,3,5
18.955,8,6,21,17,8,5,4,6
18.96,1,15,6,8,10,1,1,1
18.965,5,6,5,15,1,5,6,10
18.97,8,9,0,15,14,7,3,4
18.975,16,37,17,11,9,11,9,12
18.98,6,36,6,19,9,3,3,2
18.985,8,13,5,28,15,6,4,1
18.99,10,18,3,15,7,2,1,2
18.995,27,31,16,14,10,1,1,5
19,14,17,12,11,9,13,6,4
19.005,9,9,5,4,3,3,1,0
19.01,5,23,10,7,9,5,4,3
19.015,1,12,2,2,6,3,1,2
19.02,17,45,12,18,6,6,4,0
19.025,4,8,0,4,8,1,2,0
19.03,1,1,13,35,9,1,2,0
19.035,12,33,25,46,12,10,0,7
19.04,3,7,7,7,3,2,4,3
19.045,11,17,19,37,17,0,0,1
19.05,9,17,13,34,23,2,6,4
19.055,6,16,3,13,6,5,4,2
19.06,10,11,6,15,15,4,7,8
19.065,7,23,8,1,4,2,6,5
19.07,9,8,7,8,4,2,3,2
19.075,8,26,8,2,4,6,3,14
19.08,4,6,7,10,1,3,9,5
19.085,2,10,8,11,3,9,12,5
19.09,22,10,12,15,7,7,9,37
19.095,3,12,5,8,7,7,5,11
19.1,12,6,9,13,5,1,6,3
19.105,8,3,1,3,5,6,11,19
19.11,11,14,8,12,4,3,4,12
19.115,8,5,2,11,5,8,5,2
19.12,7,5,2,1,1,2,3,11
19.125,16,3,3,6,3,1,5,36
19.13,6,3,6,9,2,0,5,17
19.135,2,3,3,10,4,1,2,14
19.14,3,0,3,3,2,4,7,14
19.145,7,3,7,9,11,9,8,2
19.15,9,1,0,3,2,3,5,2
19.155,16,9,4,3,7,14,27,37
19.16,3,1,1,3,1,1,5,11
19.165,2,1,1,0,3,5,12,10
19.17,4,2,1,0,0,3,3,8
19.175,6,7,3,4,5,4,8,1
19.18,3,0,2,4,1,0,1,5
19.185,3,2,3,1,6,5,3,0
19.19,0,1,4,10,7,3,1,2
19.195,2,1,1,6,15,9,0,1
19.2,2,5,7,2,6,10,8,12
19.205,5,7,10,5,1,3,1,3
19.21,1,10,0,6,0,1,1,4
19.215,7,1,1,7,3,0,4,13
19.22,4,11,15,23,13,4,4,3
19.225,2,6,3,7,11,2,2,5
19.23,3,5,2,5,3,3,1,3
19.235,0,13,1,8,8,4,4,3
19.24,11,29,6,11,9,4,7,3
19.245,6,18,2,6,13,8,7,3
19.25,33,27,22,7,3,1,11,16
19.255,15,21,1,0,2,3,2,7
19.26,12,18,7,2,3,0,8,10
19.265,4,9,9,3,3,4,8,8
19.27,5,14,2,2,7,8,7,0
19.275,2,5,5,2,5,3,9,13
19.28,10,1,6,14,8,16,4,2
19.285,3,5,1,4,3,2,4,7
19.29,14,11,5,0,6,3,2,4
19.295,8,39,4,2,2,4,1,3
19.3,14,24,3,6,4,7,6,11
19.305,0,8,2,2,6,2,1,2
19.31,12,22,11,2,10,1,3,4
19.315,9,13,1,7,4,4,2,4
19.32,10,17,5,4,1,4,4,5
19.325,11,12,4,0,7,1,2,4
19.33,3,5,4,10,11,5,7,10
19.335,10,11,5,1,1,4,13,15
19.34,2,0,1,1,2,6,17,12
19.345,2,4,3,7,7,1,7,4
19.35,2,9,5,1,4,6,16,7
19.355,11,15,2,5,6,0,8,17
19.36,0,0,4,4,6,3,5,1
19.365,1,2,0,5,15,5,2,1
19.37,9,16,4,1,8,3,10,10
19.375,1,12,2,5,8,1,2,6
19.38,1,7,2,4,8,0,3,1
19.385,4,7,0,6,4,5,2,3
19.39,2,1,2,1,1,2,4,1
19.395,2,6,5,4,3,6,7,3
19.4,4,2,2,1,8,4,2,1
19.405,2,10,3,4,3,7,5,4
19.41,8,6,2,2,3,5,6,5
19.415,7,14,4,1,4,0,3,8
19.42,2,8,1,5,17,10,10,9
19.425,6,18,7,3,2,2,3,7
19.43,1,3,0,2,2,1,1,1
19.435,6,6,3,0,14,6,3,7
19.44,0,8,3,4,2,5,3,3
19.445,10,27,10,9,8,6,5,10
19.45,3,1,1,4,4,0,2,1
19.455,2,7,8,2,10,2,2,2
19.46,4,4,3,4,4,0,3,3
19.465,1,5,9,4,3,2,5,2
19.47,2,2,4,1,2,2,2,0
19.475,6,7,1,1,8,7,5,1
19.48,3,9,7,5,1,4,4,1
19.485,1,8,3,1,6,3,1,1
19.49,2,1,2,4,3,3,1,2
19.495,4,4,2,0,11,5,4,5
19.5,7,7,3,9,2,5,1,6
19.505,2,2,2,11,6,4,2,2
19.51,4,6,2,2,7,6,2,1
19.515,2,0,1,2,1,5,3,3
19.52,0,4,1,8,10,3,0,3
19.525,5,0,1,6,2,0,0,5
19.53,10,7,5,2,2,2,7,8
19.535,1,1,1,2,6,1,2,2
19.54,1,3,2,2,0,1,1,4
19.545,1,7,1,3,4,4,7,3
19.55,5,5,1,9,5,0,1,3
19.555,4,11,1,10,4,6,2,1
19.56,1,1,1,0,3,6,4,4
19.565,0,5,2,0,3,0,4,2
19.57,1,7,1,2,0,3,1,0
19.575,3,3,1,8,9,6,2,2
19.58,0,4,5,11,15,11,6,2
19.585,0,2,2,4,10,8,5,2
19.59,5,7,5,9,9,5,3,3
19.595,5,3,4,10,6,1,3,5
19.6,9,9,3,8,1,2,3,2
19.605,2,1,2,3,0,2,5,5
19.61,0,1,1,2,8,8,5,0
19.615,5,2,1,3,2,4,2,3
19.62,1,1,2,5,3,4,1,0
19.625,3,0,0,3,2,3,1,2
19.63,3,1,5,4,6,2,1,1
19.635,1,1,1,2,1,3,3,3
19.64,0,1,3,8,1,2,3,1
19.645,1,0,0,1,4,4,5,1
19.65,1,1,4,4,6,6,3,3
19.655,2,1,0,2,0,2,1,3
19.66,2,2,2,4,0,0,2,1
19.665,1,6,3,2,9,1,9,3
19.67,3,3,2,5,14,0,21,9
19.675,0,1,0,5,5,6,5,3
19.68,1,1,3,3,1,2,2,0
19.685,2,2,2,3,6,6,1,1
19.69,9,7,9,7,11,10,4,6
19.695,0,1,3,7,2,1,1,1
19.7,0,1,1,1,2,1,1,0
19.705,1,1,0,3,4,4,4,0
19.71,1,2,1,6,5,6,11,3
19.715,2,4,1,4,11,1,11,3
19.72,0,5,3,4,1,1,1,0
19.725,3,2,1,2,1,4,5,4
19.73,1,1,0,4,11,4,0,2
19.735,3,5,10,14,10,6,2,3
19.74,4,6,0,16,4,0,2,1
19.745,2,3,4,14,1,0,6,2
19.75,3,1,3,9,14,7,4,2
19.755,6,5,1,12,13,9,3,6
19.76,0,1,1,6,2,2,3,5
19.765,0,0,2,6,7,6,5,1
19.77,4,1,3,5,6,4,5,9
19.775,2,1,0,6,0,2,4,4
19.78,0,2,3,6,3,4,5,1
19.785,2,0,1,2,0,0,0,2
19.79,2,1,1,2,6,1,1,2
19.795,1,1,1,0,7,3,7,7
19.8,3,1,1,7,3,4,4,0
19.805,1,0,2,3,16,2,2,2
19.81,2,3,1,3,8,7,2,4
19.815,1,1,0,2,1,4,3,2
19.82,3,3,1,6,5,5,6,2
19.825,11,8,6,6,7,2,6,7
19.83,1,1,0,6,3,4,1,1
19.835,3,4,4,9,14,6,3,3
19.84,2,6,0,8,1,2,2,4
19.845,2,2,4,9,7,4,3,0
19.85,5,4,2,2,2,2,2,6
19.855,9,14,3,4,3,3,4,1
19.86,3,3,7,10,0,3,8,2
19.865,1,5,3,5,8,5,5,0
19.87,8,5,4,2,3,2,0,1
19.875,5,1,2,4,6,4,1,2
19.88,8,6,0,11,5,6,0,9
19.885,2,2,2,4,7,3,6,1
19.89,4,6,2,7,0,2,3,4
19.895,1,3,1,4,2,1,4,3
19.9,2,2,1,1,0,1,1,7
19.905,1,0,8,14,8,3,1,0
19.91,2,0,0,2,2,2,1,2
19.915,5,7,4,5,6,1,5,1
19.92,11,16,8,8,9,2,7,12
19.925,42,58,17,3,10,1,10,23
19.93,2,10,2,1,1,2,1,3
19.935,1,5,4,1,2,0,1,3
19.94,11,12,3,6,2,1,0,4
19.945,11,16,5,6,13,1,10,10
19.95,5,5,3,2,6,7,22,10
19.955,0,1,2,7,4,2,0,3
19.96,4,7,2,5,5,5,2,2
19.965,4,2,2,12,3,1,2,1
19.97,2,4,6,11,14,2,7,2
19.975,3,7,5,0,2,2,2,2
19.98,8,14,7,5,3,0,1,2
19.985,3,1,1,6,9,4,3,3
19.99,1,4,3,8,14,3,1,2
19.995,5,2,0,4,1,4,5,4
20,5,6,3,2,0,4,2,2
20.005,6,4,2,7,12,6,6,2
20.01,1,4,3,5,4,1,2,2
20.015,1,2,1,2,6,1,2,2
20.02,5,6,0,1,0,1,2,1
20.025,7,8,3,4,0,1,3,2
20.03,7,4,6,5,4,4,3,3
20.035,6,6,5,1,1,3,1,3
20.04,1,4,3,6,8,4,4,0
20.045,0,6,2,0,3,0,3,1
20.05,1,1,2,5,1,1,2,1
20.055,4,5,5,6,5,3,6,4
20.06,4,5,5,4,3,4,4,3
20.065,3,4,3,2,4,1,0,0
20.07,0,3,6,7,4,6,10,6
20.075,1,0,1,2,2,0,2,0
20.08,6,7,9,17,10,5,8,7
20.085,1,1,2,4,2,1,2,2
20.09,4,2,0,1,9,5,1,5
20.095,4,2,1,3,2,2,2,9
20.1,3,3,2,14,5,0,1,2
20.105,2,1,3,13,12,8,11,5
20.11,1,3,7,2,8,9,0,1
20.115,2,2,4,4,4,1,2,1
20.12,2,1,0,1,3,1,3,9
20.125,8,3,9,9,3,5,9,16
20.13,2,1,1,4,11,10,6,2
20.135,0,1,2,4,16,5,3,1
20.14,2,1,2,5,2,2,2,5
20.145,11,1,6,22,13,10,13,16
20.15,1,2,1,8,9,8,8,3
20.155,1,2,2,4,11,8,10,1
20.16,1,1,2,1,3,1,3,0
20.165,5,1,3,8,8,4,7,4
20.17,3,1,3,5,2,1,1,4
20.175,1,2,1,1,0,3,8,7
20.18,3,3,5,6,5,3,1,2
20.185,1,1,1,6,18,5,3,3
20.19,1,5,7,6,25,8,1,4
20.195,5,7,5,10,15,8,1,1
20.2,3,1,0,4,5,2,2,4
20.205,3,5,1,6,4,9,10,5
20.21,7,2,2,7,5,2,33,14
20.215,5,1,2,4,18,3,12,9
20.22,17,11,9,10,18,14,11,17
20.225,8,4,1,0,1,5,8,7
20.23,2,7,3,6,21,5,14,7
20.235,5,6,7,1,2,1,2,7
20.24,6,8,2,2,6,1,0,2
20.245,5,1,5,2,9,2,4,3
20.25,6,12,4,7,4,1,4,0
20.255,2,4,3,2,1,1,3,2
20.26,4,1,4,5,8,5,3,1
20.265,5,3,2,0,1,3,2,11
20.27,0,4,4,7,3,2,6,7
20.275,2,1,0,9,12,11,22,8
20.28,9,10,7,0,1,3,3,13
20.285,11,12,7,6,9,6,11,3
20.29,17,23,4,4,2,0,7,5
20.295,1,1,3,8,4,3,5,5
20.3,10,10,2,0,13,5,3,8
20.305,3,2,3,1,6,5,0,3
20.31,3,4,0,4,5,0,3,1
20.315,3,10,9,0,16,7,1,2
20.32,6,7,8,8,14,9,4,2
20.325,1,8,9,10,1,4,4,2
20.33,9,12,5,2,2,2,4,2
20.335,7,19,6,3,0,2,0,1
20.34,11,25,10,16,3,4,2,2
20.345,15,18,4,3,4,1,4,5
20.35,1,1,3,0,10,4,0,2
20.355,3,3,7,7,3,7,5,1
20.36,9,15,4,1,10,3,1,2
20.365,9,2,5,2,4,1,1,9
20.37,10,26,4,1,3,3,2,4
20.375,8,4,7,8,4,6,6,5
20.38,5,21,7,11,11,9,7,1
20.385,8,15,2,2,7,3,2,1
20.39,1,10,5,3,4,2,1,0
20.395,0,8,0,5,11,9,4,3
20.4,3,5,0,3,5,1,3,1
20.405,6,5,5,2,8,7,13,10
20.41,1,2,3,8,17,8,2,2
20.415,7,3,2,9,3,2,1,5
20.42,1,3,2,4,14,0,4,0
20.425,3,6,3,2,5,10,20,8
20.43,6,9,0,6,20,14,6,5
20.435,0,4,1,6,7,12,13,2
20.44,1,2,1,3,14,9,7,0
20.445,12,19,3,0,1,4,4,7
20.45,8,5,2,3,2,0,9,7
20.455,1,12,0,3,8,2,2,7
20.46,4,13,7,6,8,1,3,3
20.465,2,0,4,10,9,5,1,6
20.47,1,5,3,10,9,5,1,3
20.475,4,5,0,7,10,1,6,9
20.48,1,2,4,13,21,13,5,3
20.485,2,3,6,4,9,3,4,4
20.49,4,4,1,0,10,6,6,8
20.495,2,1,3,10,12,10,2,0
20.5,1,5,3,4,17,11,13,2
20.505,2,3,3,9,14,19,7,7
20.51,3,6,2,1,18,4,37,17
20.515,3,1,3,4,5,1,8,2
20.52,2,7,4,3,3,3,12,11
20.525,4,0,1,6,10,16,14,7
20.53,3,5,2,3,12,4,10,4
20.535,2,3,5,8,10,4,9,2
20.54,5,5,3,0,3,2,2,4
20.545,4,1,0,1,0,6,7,3
20.55,7,8,2,0,1,8,3,4
20.555,6,8,4,4,0,2,2,7
20.56,4,4,1,5,11,1,4,5
20.565,2,1,1,0,1,4,6,3
20.57,0,3,1,2,12,9,3,3
20.575,0,2,2,1,5,2,8,7
20.58,0,1,0,2,3,4,7,1
20.585,4,1,3,2,5,9,12,12
20.59,5,5,7,8,13,7,4,1
20.595,2,5,1,7,5,8,4,7
20.6,5,3,6,3,13,2,6,3
20.605,5,6,3,5,5,4,2,6
20.61,14,18,8,6,9,8,2,5
20.615,9,7,5,5,1,0,2,6
20.62,1,7,1,0,0,1,4,1
20.625,1,3,5,3,1,1,5,5
20.63,12,6,3,4,1,3,3,2
20.635,8,4,3,3,2,5,5,1
20.64,4,3,0,1,4,2,0,4
20.645,2,4,1,3,6,5,5,2
20.65,1,9,2,1,2,1,3,1
20.655,2,19,4,2,4,4,2,0
20.66,4,6,3,2,1,4,5,8
20.665,13,5,3,1,2,3,10,18
20.67,4,5,2,3,6,7,7,7
20.675,6,6,2,2,3,1,0,0
20.68,3,3,9,6,7,4,4,3
20.685,8,12,2,4,4,5,12,13
20.69,2,16,3,1,1,0,2,1
20.695,5,16,0,1,1,3,3,6
20.7,6,2,2,8,11,9,9,2
20.705,0,4,4,4,3,3,1,3
20.71,1,1,3,6,9,4,8,4
20.715,2,3,2,0,5,1,1,5
20.72,2,4,2,2,4,3,5,5
20.725,2,4,1,1,3,3,3,3
20.73,10,8,3,1,2,5,4,5
20.735,0,1,2,1,2,0,3,1
20.74,2,8,11,9,6,4,7,6
20.745,7,17,1,1,3,2,2,1
20.75,0,17,2,2,2,2,3,4
20.755,12,13,4,5,4,1,4,1
20.76,1,1,2,1,2,0,1,3
20.765,2,4,1,4,6,5,2,2
20.77,9,15,4,4,3,2,2,2
20.775,3,4,5,6,6,4,3,4
20.78,5,11,2,2,2,2,6,4
20.785,3,6,8,3,4,2,2,3
20.79,0,2,2,1,1,2,1,2
20.795,5,6,1,3,10,7,6,2
20.8,5,6,2,0,2,8,2,3
20.805,6,19,2,3,13,5,5,8
20.81,4,7,1,1,3,2,5,5
20.815,14,23,9,6,10,8,4,2
20.82,3,11,4,1,0,0,1,5
20.825,4,8,3,3,3,5,1,5
20.83,1,6,4,7,10,7,2,1
20.835,11,23,5,9,8,4,4,0
20.84,7,13,2,10,2,3,1,3
20.845,5,6,15,26,13,7,6,6
20.85,0,3,4,2,2,3,2,1
20.855,4,7,5,2,0,1,4,3
20.86,3,1,1,3,11,8,6,8
20.865,3,5,1,4,3,7,9,11
20.87,3,3,3,4,6,2,6,3
20.875,3,2,0,2,2,2,2,1
20.88,2,13,5,3,4,5,9,3
20.885,6,14,1,0,8,19,5,0
20.89,5,11,10,2,5,9,5,0
20.895,3,4,1,6,6,0,1,1
20.9,1,6,6,9,5,1,4,2
20.905,1,2,2,4,4,2,3,2
20.91,3,5,5,15,8,6,2,3
20.915,0,1,3,2,1,2,0,2
20.92,2,5,3,3,3,2,5,3
20.925,2,2,0,1,3,4,5,0
20.93,1,1,2,12,7,1,1,2
20.935,1,1,1,5,2,2,4,6
20.94,0,3,1,4,5,7,5,0
20.945,1,1,4,1,3,0,1,2
20.95,1,2,13,10,4,1,3,2
20.955,4,5,16,2,1,2,3,5
20.96,1,2,1,2,6,2,2,3
20.965,2,0,9,5,3,2,2,1
20.97,3,0,1,5,6,3,4,4
20.975,4,2,9,10,8,4,1,2
20.98,5,8,26,15,10,9,7,4
20.985,1,0,4,2,5,2,1,0
20.99,2,1,4,0,4,3,4,3
20.995,1,4,11,1,0,0,0,1
21,0,3,8,15,16,7,8,3
21.005,2,0,1,1,1,1,3,1
21.01,0,2,5,11,9,9,6,2
21.015,2,5,24,13,5,1,5,3
21.02,7,9,20,13,3,1,0,4
21.025,3,1,1,2,2,1,2,1
21.03,1,0,9,3,4,1,2,3
21.035,3,1,15,3,3,3,3,2
21.04,5,1,3,8,2,0,2,5
21.045,6,3,10,16,10,8,0,4
21.05,1,3,13,2,3,5,3,0
21.055,2,4,16,16,6,8,2,1
21.06,4,0,10,2,0,6,1,2
21.065,2,4,1,5,3,1,1,0
21.07,3,1,4,4,0,0,3,1
21.075,3,3,6,1,4,4,6,5
21.08,1,4,3,1,0,2,2,2
21.085,0,1,9,5,5,3,1,3
21.09,4,9,20,8,2,1,1,2
21.095,0,2,8,3,2,3,2,3
21.1,3,1,6,2,2,0,1,0
21.105,4,1,10,17,6,1,7,7
21.11,4,9,8,1,0,3,3,2
21.115,5,5,7,4,2,1,2,1
21.12,16,4,9,4,5,6,6,3
21.125,9,4,10,15,5,2,6,1
21.13,7,4,14,15,7,3,5,3
21.135,10,3,25,10,1,4,4,3
21.14,11,3,5,4,3,4,2,4
21.145,6,0,4,2,3,4,5,4
21.15,7,3,16,14,2,2,2,3
21.155,4,5,14,14,3,2,1,2
21.16,6,20,31,29,6,2,1,1
21.165,8,1,3,25,1,4,4,3
21.17,4,6,9,5,2,2,4,3
21.175,3,12,4,13,5,1,2,3
21.18,7,5,3,8,3,5,6,3
21.185,4,0,15,7,10,0,2,1
21.19,7,10,22,22,3,0,4,3
21.195,1,11,3,15,11,4,2,2
21.2,4,1,5,9,18,18,20,8
21.205,0,5,4,33,2,2,3,3
21.21,8,15,5,15,4,2,4,4
21.215,2,0,9,19,14,14,12,9
21.22,7,2,21,22,1,4,4,1
21.225,2,11,4,3,10,4,2,1
21.23,4,12,19,39,1,4,4,4
21.235,12,7,14,47,2,6,3,4
21.24,10,2,10,22,4,5,4,4
21.245,10,1,6,7,24,14,5,4
21.25,15,7,14,17,1,2,11,10
21.255,8,11,34,26,10,8,7,8
21.26,15,3,2,11,8,11,9,3
21.265,13,9,16,34,2,0,2,1
21.27,19,10,4,18,12,12,9,11
21.275,11,2,16,12,29,26,2,0
21.28,10,0,4,16,70,51,19,8
21.285,10,2,4,12,1,1,1,3
21.29,12,9,0,7,1,1,1,3
21.295,15,10,13,2,8,1,0,1
21.3,11,0,12,9,25,23,12,9
21.305,8,1,4,11,5,2,2,1
21.31,5,10,22,0,5,8,3,4
21.315,11,7,18,19,8,0,7,5
21.32,2,8,8,17,20,17,6,3
21.325,6,9,2,8,5,1,0,2
21.33,8,9,1,9,12,10,5,3
21.335,10,9,8,19,1,7,3,2
21.34,0,2,14,12,14,6,6,2
21.345,3,5,21,8,7,3,4,6
21.35,2,0,5,2,11,7,2,1
21.355,10,7,1,11,19,15,5,3
21.36,0,2,4,0,1,4,0,1
21.365,0,5,10,7,18,7,4,4
21.37,3,2,1,13,15,7,3,2
21.375,2,4,2,5,7,1,0,2
21.38,5,3,11,4,27,15,9,6
21.385,3,8,13,18,16,9,5,3
21.39,2,4,10,11,1,1,2,4
21.395,5,8,5,12,13,6,2,1
21.4,6,4,9,10,13,7,5,3
21.405,2,2,15,9,13,8,3,6
21.41,6,18,14,2,6,6,4,0
21.415,1,2,7,2,10,4,4,5
21.42,4,2,8,18,14,6,5,4
21.425,10,17,6,1,0,2,5,7
21.43,9,17,17,19,1,1,4,4
21.435,0,6,2,2,26,12,3,1
21.44,4,2,3,11,6,7,2,2
21.445,4,1,1,3,7,2,1,0
21.45,3,2,4,9,8,6,2,2
21.455,1,4,4,16,0,2,1,1
21.46,1,3,1,3,9,9,7,3
21.465,2,2,7,7,18,14,6,3
21.47,0,7,7,9,3,2,0,1
21.475,1,3,9,22,5,5,3,2
21.48,2,2,4,3,1,3,5,4
21.485,1,0,10,10,21,10,8,4
21.49,3,13,23,3,1,4,15,3
21.495,0,7,24,6,6,5,6,4
21.5,3,6,4,1,7,5,5,1
21.505,2,5,9,11,3,4,4,3
21.51,6,5,5,6,13,0,4,4
21.515,0,2,6,1,9,2,1,6
21.52,13,6,4,0,2,1,13,2
21.525,4,7,1,0,5,23,23,17
21.53,2,9,2,11,14,6,39,14
21.535,3,4,6,3,17,12,10,11
21.54,4,10,3,1,5,8,1,2
21.545,3,1,1,0,5,5,2,3
21.55,0,1,11,13,1,12,21,9
21.555,2,3,15,8,11,2,2,1
21.56,2,1,3,4,9,1,1,1
21.565,1,2,1,2,0,2,2,2
21.57,2,1,3,3,0,6,0,0
21.575,1,8,19,13,0,0,2,4
21.58,2,2,3,2,19,7,17,6
21.585,1,8,6,4,8,4,10,2
21.59,0,6,6,12,31,11,23,13
21.595,10,10,7,1,2,9,1,5
21.6,7,16,11,0,7,5,12,13
21.605,7,11,5,7,1,6,2,2
21.61,1,1,6,7,6,4,21,9
21.615,1,6,6,0,1,6,1,4
21.62,1,1,2,0,4,0,4,2
21.625,2,4,3,1,7,4,7,3
21.63,1,1,3,0,0,3,1,0
21.635,0,5,8,2,9,0,1,3
21.64,1,1,4,0,17,5,4,0
21.645,5,2,0,1,8,1,1,4
21.65,1,6,8,3,0,3,8,1
21.655,2,2,9,3,2,3,4,3
21.66,3,4,5,1,12,3,6,3
21.665,3,2,4,5,12,13,10,5
21.67,0,1,5,3,9,5,3,3
21.675,1,3,5,16,8,7,7,4
21.68,1,0,13,25,1,0,3,1
21.685,1,2,2,0,0,4,8,1
21.69,0,6,4,5,7,4,4,3
21.695,5,4,4,3,1,2,1,0
21.7,0,2,0,4,3,1,7,1
21.705,1,3,0,1,3,3,2,4
21.71,0,4,5,4,4,2,7,4
21.715,1,2,1,1,5,2,1,2
21.72,1,1,9,9,2,2,2,1
21.725,1,0,4,4,2,3,2,1
21.73,5,0,6,3,5,3,3,4
21.735,0,2,6,9,2,3,3,2
21.74,0,4,0,1,4,2,3,2
21.745,2,12,2,1,3,2,4,5
21.75,1,3,1,2,5,4,0,1
21.755,4,8,7,1,3,2,0,1
21.76,2,2,2,2,2,0,0,1
21.765,3,2,3,1,4,3,0,1
21.77,2,1,7,5,6,6,2,0
21.775,4,3,4,5,5,0,2,3
21.78,13,4,0,0,3,4,7,16
21.785,0,2,1,1,5,2,2,0
21.79,3,1,0,1,1,1,8,7
21.795,2,5,2,3,1,9,19,10
21.8,4,2,0,1,4,0,3,2
21.805,6,5,5,6,10,8,7,6
21.81,3,4,2,1,3,2,4,0
21.815,0,1,1,6,9,8,7,5
21.82,2,4,0,6,5,2,3,2
21.825,1,1,0,3,4,5,1,4
21.83,2,2,4,0,4,3,2,1
21.835,5,2,1,4,10,6,0,3
21.84,1,3,3,0,0,3,4,0
21.845,3,3,3,1,2,3,0,1
21.85,3,1,0,1,6,4,1,3
21.855,2,3,0,1,5,0,0,0
21.86,2,2,3,2,4,2,1,2
21.865,3,2,0,5,8,7,3,0
21.87,1,2,2,4,10,7,4,4
21.875,3,3,0,2,1,0,3,1
21.88,4,4,2,2,5,7,2,4
21.885,5,2,1,3,1,1,1,3
21.89,1,3,0,1,8,5,2,3
21.895,1,2,5,5,6,4,2,7
21.9,7,5,6,5,10,10,12,8
21.905,4,4,3,1,1,1,2,2
21.91,2,1,2,5,1,2,0,0
21.915,4,1,0,2,5,1,5,6
21.92,2,3,4,3,0,0,2,1
21.925,0,0,5,7,2,4,3,2
21.93,1,1,0,1,3,0,4,0
21.935,2,0,3,1,6,2,2,0
21.94,1,2,0,3,8,4,4,1
21.945,4,4,3,4,26,12,7,3
21.95,1,2,1,2,2,3,6,7
21.955,1,3,5,6,1,3,3,3
21.96,2,2,2,0,14,9,0,0
21.965,7,6,3,4,15,7,3,3
21.97,3,6,5,4,2,1,4,7
21.975,12,4,0,1,1,0,4,8
21.98,0,3,5,1,4,4,8,4
21.985,2,2,4,3,2,5,11,4
21.99,0,5,1,0,5,6,3,4
21.995,1,1,1,0,3,2,4,1
22,1,2,3,3,6,5,1,3
22.005,0,0,0,2,5,7,13,4
22.01,1,1,1,2,3,3,3,1
22.015,1,1,0,1,3,0,1,0
22.02,2,0,3,4,1,2,3,1
22.025,1,4,1,4,19,9,14,4
22.03,4,0,2,4,2,17,28,11
22.035,9,2,5,6,3,20,76,32
22.04,1,2,1,0,3,7,41,14
22.045,5,1,2,4,12,19,44,16
22.05,11,9,7,18,32,21,3,12
22.055,3,1,1,7,3,27,42,19
22.06,1,4,5,13,39,21,20,9
22.065,0,1,1,2,6,1,8,1
22.07,3,1,1,0,3,16,7,4
22.075,3,0,2,5,16,3,5,4
22.08,2,2,4,12,31,9,9,4
22.085,2,1,2,6,19,22,21,14
22.09,4,1,1,1,13,2,35,19
22.095,2,1,5,10,5,6,8,1
22.1,2,7,15,20,3,6,3,3
22.105,9,5,2,2,10,15,13,14
22.11,1,3,6,11,19,27,10,13
22.115,1,0,3,2,6,0,4,1
22.12,1,2,1,1,9,8,7,4
22.125,0,2,1,4,14,9,8,6
22.13,1,0,1,1,3,7,4,0
22.135,2,0,3,4,4,4,9,8
22.14,3,2,6,3,10,8,8,3
22.145,0,0,2,5,2,1,5,3
22.15,4,2,6,0,4,1,6,1
22.155,1,2,3,1,4,14,3,2
22.16,7,4,1,6,9,7,3,0
22.165,4,6,10,3,11,0,0,2
22.17,2,2,1,0,6,2,2,0
22.175,5,6,7,5,11,13,4,4
22.18,4,4,7,2,10,8,2,2
22.185,1,1,0,2,13,1,2,2
22.19,1,2,0,7,11,6,8,4
22.195,0,3,6,9,4,4,2,2
22.2,2,5,7,15,3,2,2,2
22.205,1,4,6,17,11,4,5,0
22.21,0,1,3,6,14,11,13,7
22.215,3,2,2,4,8,13,4,5
22.22,3,5,12,17,10,17,17,14
22.225,2,7,22,2,37,8,2,3
22.23,2,3,0,5,17,7,5,3
22.235,2,5,2,5,9,26,11,5
22.24,4,6,5,6,12,19,4,8
22.245,1,5,10,10,2,1,7,8
22.25,7,4,11,10,9,3,10,1
22.255,6,1,2,6,12,8,9,1
22.26,3,3,4,10,11,13,9,7
22.265,2,1,7,3,3,0,3,3
22.27,0,0,1,4,7,7,0,0
22.275,3,1,1,1,0,1,2,3
22.28,0,1,4,8,1,6,1,0
22.285,3,2,4,2,10,4,7,6
22.29,1,0,3,5,3,0,2,2
22.295,3,0,3,1,5,8,6,5
22.3,1,2,1,1,10,1,3,1
22.305,4,6,4,1,11,12,5,5
22.31,1,0,1,2,0,2,2,0
22.315,1,2,4,5,8,13,10,5
22.32,4,2,3,3,1,3,1,4
22.325,1,3,6,1,9,3,0,1
22.33,1,2,1,4,1,1,0,0
22.335,3,3,2,4,8,7,10,11
22.34,0,5,3,1,4,3,8,10
22.345,2,3,4,1,3,4,4,4
22.35,1,6,2,0,0,4,7,2
22.355,0,2,2,5,5,3,5,3
22.36,0,1,5,4,3,1,7,5
22.365,4,2,2,1,3,3,2,2
22.37,3,0,4,3,1,5,7,5
22.375,1,2,1,3,1,2,2,5
22.38,2,2,9,4,1,1,1,1
22.385,1,0,3,3,2,2,0,1
22.39,8,8,10,10,6,5,3,3
22.395,2,2,1,0,6,3,1,2
22.4,3,3,0,5,15,12,12,5
22.405,5,5,0,1,1,3,1,2
22.41,4,4,0,1,0,2,0,0
22.415,1,1,3,0,1,2,1,2
22.42,2,3,3,2,1,1,2,1
22.425,1,6,0,1,1,1,0,1
22.43,1,1,0,2,4,1,4,3
22.435,2,1,1,6,1,1,2,0
22.44,3,0,8,11,0,3,2,2
22.445,2,7,9,6,7,4,4,4
22.45,0,1,5,1,7,2,1,0
22.455,4,12,26,11,5,1,1,1
22.46,1,0,5,8,4,3,2,3
22.465,1,1,3,2,0,0,0,3
22.47,3,2,2,5,8,3,2,4
22.475,7,12,5,15,1,1,3,2
22.48,3,4,19,16,8,3,0,0
22.485,1,3,3,4,0,4,2,1
22.49,2,4,2,8,2,1,6,7
22.495,2,1,5,14,1,2,0,3
22.5,4,5,7,9,5,2,5,4
22.505,3,1,11,13,15,9,10,8
22.51,2,0,3,8,5,4,4,1
22.515,5,4,8,23,2,0,4,3
22.52,3,7,6,12,5,3,0,2
22.525,9,3,8,9,6,2,5,6
22.53,1,1,8,11,0,1,0,0
22.535,1,2,5,14,4,4,4,2
22.54,8,1,8,8,5,6,8,8
22.545,1,1,5,5,8,4,2,1
22.55,12,4,4,4,1,4,6,9
22.555,15,7,21,26,11,1,3,13
22.56,4,10,17,24,12,7,14,30
22.565,1,3,4,19,1,2,3,2
22.57,1,4,2,8,5,5,5,6
22.575,15,4,13,17,5,5,8,8
22.58,6,15,31,11,13,8,4,2
22.585,0,4,12,26,7,2,2,4
22.59,4,1,3,4,2,0,4,6
22.595,2,1,6,10,3,2,4,1
22.6,0,6,16,17,7,2,4,5
22.605,11,6,5,12,2,1,2,0
22.61,2,3,2,2,0,2,3,5
22.615,8,0,5,5,3,2,1,3
22.62,3,1,3,11,6,1,3,8
22.625,23,1,3,1,2,1,3,3
22.63,2,4,4,9,2,2,8,21
22.635,3,1,5,8,3,1,2,7
22.64,6,2,2,1,3,1,1,1
22.645,7,2,1,5,1,0,1,6
22.65,5,3,5,1,5,4,2,1
22.655,5,3,5,13,9,3,6,8
22.66,2,2,10,3,3,4,8,7
22.665,8,1,12,16,9,0,4,3
22.67,6,13,16,25,14,10,8,4
22.675,7,7,13,6,7,3,4,2
22.68,1,4,3,0,3,2,4,3
22.685,7,4,13,6,3,0,1,1
22.69,1,4,6,6,6,2,4,2
22.695,3,4,7,2,1,1,0,2
22.7,0,3,8,11,4,3,4,3
22.705,8,1,4,4,3,2,5,7
22.71,3,0,1,4,1,2,2,4
22.715,2,1,0,3,1,2,4,0
22.72,1,3,1,5,1,1,0,2
22.725,8,5,3,1,2,2,1,2
22.73,1,5,1,0,0,1,3,0
22.735,0,3,2,5,0,1,1,3
22.74,7,3,3,4,2,4,5,9
22.745,1,4,1,8,4,3,2,4
22.75,0,4,5,6,7,3,2,1
22.755,2,1,2,2,1,1,0,2
22.76,3,1,1,1,1,1,2,4
22.765,5,2,12,7,2,5,1,7
22.77,5,1,6,4,1,0,3,4
22.775,1,4,1,2,0,0,1,2
22.78,0,0,1,4,4,1,1,1
22.785,1,1,4,7,1,0,2,3
22.79,0,1,1,4,1,1,1,3
22.795,2,1,7,8,1,1,0,2
22.8,1,12,9,8,1,2,2,1
22.805,5,9,7,11,4,4,4,1
22.81,2,7,1,2,1,4,2,3
22.815,2,1,2,0,1,2,0,2
22.82,0,1,8,1,1,4,5,3
22.825,3,3,3,1,6,4,4,3
22.83,0,2,0,1,2,2,3,4
22.835,2,3,3,3,4,1,3,1
22.84,1,4,1,4,0,1,1,0
22.845,2,1,1,0,1,1,1,1
22.85,3,1,0,3,2,2,4,1
22.855,1,1,1,1,3,0,0,1
22.86,1,2,3,0,1,1,1,1
22.865,2,6,5,0,3,3,1,3
22.87,0,0,3,4,3,1,5,2
22.875,5,3,3,1,2,1,2,3
22.88,10,0,3,2,6,5,10,4
22.885,15,3,0,1,4,2,1,6
22.89,1,2,0,1,2,4,4,2
22.895,1,3,7,5,2,1,1,2
22.9,2,2,2,6,7,2,4,4
22.905,4,3,4,1,0,0,1,0
22.91,2,2,1,1,0,1,1,0
22.915,3,1,5,3,3,3,4,2
22.92,1,1,3,4,3,4,7,3
22.925,3,1,1,1,1,2,4,1
22.93,1,1,1,5,4,2,1,3
22.935,4,0,2,1,3,2,4,1
22.94,3,1,13,1,3,4,0,3
22.945,13,5,9,3,2,0,1,11
22.95,3,10,10,8,10,7,14,18
22.955,13,23,11,9,4,1,6,10
22.96,2,33,6,13,6,3,5,5
22.965,9,2,5,2,5,4,12,15
22.97,1,1,14,9,4,2,0,1
22.975,12,15,12,11,8,5,2,1
22.98,1,12,8,5,2,1,0,7
22.985,5,1,3,2,2,0,0,3
22.99,3,2,6,2,3,1,7,9
22.995,5,9,6,7,4,4,4,2
23,6,1,4,1,2,1,0,3
23.005,4,15,9,7,6,4,4,2
23.01,7,5,2,5,2,2,3,2
23.015,25,6,2,5,2,5,4,13
23.02,15,5,2,2,2,3,0,10
23.025,3,0,1,4,1,2,5,17
23.03,6,0,9,8,1,6,4,17
23.035,32,24,20,8,4,2,9,25
23.04,18,4,0,1,0,2,4,5
23.045,4,5,6,0,2,0,7,9
23.05,4,1,3,0,1,2,3,8
23.055,7,3,6,1,2,2,2,8
23.06,9,1,6,2,2,2,2,2
23.065,1,3,2,2,3,2,5,5
23.07,5,2,7,1,2,0,3,2
23.075,8,2,4,1,1,2,0,3
23.08,6,1,0,2,1,1,4,5
23.085,6,1,0,1,0,3,2,2
23.09,9,4,4,4,6,5,7,8
23.095,12,4,3,1,1,1,1,1
23.1,21,3,2,1,4,4,4,5
23.105,5,1,2,0,0,2,3,6
23.11,1,2,1,4,5,5,10,15
23.115,6,2,3,2,5,2,2,4
23.12,5,2,3,1,0,1,1,1
23.125,3,0,1,1,2,0,1,4
23.13,3,0,1,2,3,2,3,4
23.135,8,1,7,3,1,0,0,4
23.14,6,1,8,3,3,1,3,3
23.145,8,1,7,1,2,1,1,0
23.15,7,2,10,2,1,3,1,4
23.155,2,1,9,4,5,7,2,1
23.16,2,2,8,5,6,0,5,3
23.165,7,1,7,1,4,3,2,0
23.17,1,1,1,5,7,7,1,1
23.175,0,1,8,0,1,2,4,6
23.18,6,2,12,3,3,2,3,2
23.185,6,9,12,2,1,2,2,2
23.19,3,4,12,3,3,3,4,2
23.195,5,0,10,4,7,8,10,12
23.2,2,1,6,2,3,8,26,7
23.205,5,3,1,0,1,0,6,6
23.21,0,1,3,0,2,11,17,6
23.215,4,16,2,1,4,11,8,10
23.22,3,22,4,5,10,21,26,1
23.225,11,3,4,4,9,12,28,12
23.23,2,3,2,1,8,7,10,4
23.235,7,0,5,6,7,1,7,1
23.24,10,4,5,4,8,17,5,5
23.245,4,0,6,3,7,1,12,9
23.25,12,7,5,3,1,14,3,6
23.255,4,16,2,7,11,42,5,0
23.26,3,14,1,1,6,3,27,7
23.265,9,14,3,6,10,27,36,6
23.27,2,12,2,5,7,6,12,9
23.275,3,5,4,5,13,18,21,2
23.28,13,4,2,5,7,7,18,5
23.285,13,4,4,5,7,9,13,6
23.29,12,5,2,1,13,21,1,3
23.295,6,5,4,8,14,14,11,4
23.3,2,4,3,5,5,14,15,5
23.305,6,6,0,5,6,28,9,1
23.31,11,6,1,1,8,32,7,9
23.315,6,1,1,1,1,3,3,6
23.32,6,1,4,4,3,21,11,8
23.325,5,1,0,0,1,7,1,10
23.33,5,7,4,3,0,0,4,1
23.335,2,2,0,2,7,12,5,4
23.34,5,4,0,2,0,11,9,3
23.345,2,1,1,0,0,0,8,1
23.35,2,7,2,0,3,5,1,2
23.355,1,9,3,4,2,17,3,2
23.36,0,3,3,7,9,2,13,5
23.365,4,2,0,3,5,12,7,2
23.37,2,3,6,1,3,0,0,1
23.375,1,5,2,2,1,11,3,0
23.38,5,6,4,1,4,1,7,4
23.385,0,3,3,1,0,6,1,2
23.39,2,5,9,4,3,7,1,1
23.395,2,5,6,2,7,6,2,2
23.4,0,2,8,11,2,8,4,2
23.405,1,3,0,2,0,0,3,1
23.41,1,5,3,4,4,5,3,0
23.415,2,2,0,0,3,0,3,2
23.42,3,0,1,4,1,3,8,2
23.425,2,5,6,0,1,2,0,2
23.43,2,3,7,3,6,2,2,2
23.435,2,1,4,8,0,54,1,1
23.44,6,4,1,21,13,37,3,4
23.445,1,4,11,7,5,10,4,2
23.45,2,1,0,0,1,6,2,1
23.455,0,1,1,2,5,28,0,0
23.46,1,0,0,7,3,15,1,1
23.465,1,3,5,1,2,6,0,2
23.47,1,1,1,2,0,9,2,2
23.475,0,4,3,3,2,12,3,1
23.48,4,7,7,5,2,3,2,2
23.485,0,1,7,4,2,5,0,0
23.49,2,3,6,2,4,9,1,2
23.495,2,1,8,2,1,12,3,2
23.5,1,1,4,4,4,11,1,2
23.505,2,0,5,1,0,9,1,1
23.51,0,3,3,0,3,2,1,0
23.515,1,3,11,2,4,6,3,2
23.52,4,3,2,1,4,9,1,0
23.525,1,2,4,3,4,2,0,1
23.53,0,3,0,4,5,5,2,0
23.535,1,0,4,1,1,5,0,2
23.54,1,2,2,2,1,3,3,2
23.545,1,3,6,2,0,1,0,1
23.55,4,3,9,4,3,3,1,3
23.555,3,2,4,1,3,2,0,1
23.56,0,3,3,2,0,1,1,0
23.565,2,9,2,0,2,1,1,2
23.57,0,1,4,4,1,5,4,2
23.575,3,10,6,3,1,3,1,0
23.58,1,4,6,1,1,2,3,2
23.585,1,1,3,4,2,2,0,1
23.59,1,0,2,0,0,0,0,1
23.595,0,1,5,2,0,1,2,2
23.6,0,3,1,1,1,1,2,0
23.605,0,1,3,2,1,0,3,2
23.61,4,7,10,3,1,1,1,0
23.615,1,1,5,2,0,3,1,0
23.62,1,1,8,3,1,1,1,1
23.625,1,1,13,2,0,2,1,1
23.63,2,1,6,0,3,2,0,1
23.635,0,2,6,6,3,3,0,1
23.64,0,2,3,1,4,1,3,0
23.645,1,1,3,6,7,0,1,1
23.65,2,3,1,5,5,2,3,3
23.655,3,3,5,7,5,6,3,3
23.66,1,2,2,2,0,2,3,2
23.665,2,1,0,2,2,1,1,1
23.67,3,3,7,0,1,1,2,3
23.675,2,4,5,2,2,1,3,0
23.68,1,0,2,1,0,2,2,2
23.685,0,0,1,0,1,1,2,1
23.69,2,4,5,2,1,1,1,1
23.695,1,1,4,1,0,1,1,1
23.7,2,4,7,5,3,2,0,2
23.705,1,5,11,3,0,2,1,0
23.71,2,7,13,5,2,0,1,2
23.715,1,4,2,0,2,1,1,2
23.72,3,5,17,6,2,0,3,2
23.725,1,0,2,1,2,0,1,0
23.73,2,14,27,5,1,2,1,0
23.735,5,14,19,7,1,2,1,2
23.74,0,1,2,2,0,2,0,1
23.745,5,7,3,5,5,1,0,2
23.75,1,4,5,3,2,2,1,1
23.755,2,1,13,2,1,0,1,2
23.76,1,3,30,4,3,1,3,2
23.765,1,0,12,1,0,3,0,0
23.77,3,10,24,6,2,7,3,2
23.775,2,0,8,3,3,14,2,2
23.78,1,0,0,0,0,7,1,2
23.785,3,3,4,3,3,0,0,2
23.79,0,1,7,2,4,8,0,2
23.795,2,8,12,9,0,6,2,3
23.8,1,4,7,0,4,2,2,1
23.805,3,6,22,14,6,3,2,0
23.81,6,7,22,15,10,0,3,2
23.815,0,3,15,8,6,4,1,1
23.82,3,7,8,9,2,4,1,1
23.825,3,10,15,26,15,0,2,1
23.83,0,1,7,9,3,1,1,0
23.835,2,9,13,2,3,3,3,0
23.84,5,3,15,7,3,1,1,2
23.845,0,0,11,2,0,0,3,0
23.85,5,5,4,2,11,5,4,3
23.855,4,2,11,14,6,54,3,1
23.86,0,4,22,8,1,83,0,2
23.865,0,1,3,0,2,23,3,2
23.87,0,4,4,3,7,38,0,1
23.875,6,11,16,4,2,79,4,1
23.88,1,5,7,3,3,77,2,1
23.885,1,2,14,1,1,40,3,1
23.89,2,4,10,8,1,8,0,0
23.895,0,2,7,20,1,3,1,0
23.9,6,8,4,1,1,1,1,5
23.905,5,5,10,11,5,1,13,1
23.91,1,3,6,3,2,10,3,1
23.915,3,2,9,10,3,14,9,3
23.92,3,1,6,3,4,4,16,2
23.925,0,0,5,6,7,0,10,0
23.93,0,5,11,3,1,5,0,3
23.935,2,7,1,3,1,2,3,0
23.94,2,4,6,0,3,9,2,1
23.945,4,12,18,4,2,1,2,2
23.95,2,6,3,2,2,7,2,1
23.955,2,2,6,6,3,4,0,1
23.96,3,4,25,3,0,3,2,1
23.965,1,10,21,3,2,2,1,1
23.97,1,5,11,5,4,3,1,0
23.975,3,3,5,10,9,3,0,5
23.98,1,3,4,5,2,4,0,0
23.985,2,4,2,1,3,1,3,0
23.99,0,3,3,3,1,2,3,1
23.995,1,3,4,4,4,3,2,3
24,1,1,1,15,10,4,1,1
24.005,1,4,7,8,1,3,4,2
24.01,1,4,25,8,0,4,1,1
24.015,0,4,8,5,6,7,3,0
24.02,1,1,4,4,2,1,0,1
24.025,2,5,1,3,4,2,4,3
24.03,0,3,7,2,2,4,1,0
24.035,3,12,7,12,6,1,1,2
24.04,6,13,17,19,9,4,7,5
24.045,2,0,1,1,1,2,3,1
24.05,4,7,9,12,8,4,3,3
24.055,1,0,4,1,1,1,0,1
24.06,2,2,5,2,1,2,2,3
24.065,2,1,4,9,3,3,0,0
24.07,1,2,9,1,3,3,3,2
24.075,2,1,10,11,8,1,3,1
24.08,2,2,5,3,0,3,2,0
24.085,0,0,4,6,3,2,1,2
24.09,1,1,4,1,0,1,2,0
24.095,1,2,1,2,1,0,1,2
24.1,1,6,10,3,3,1,1,3
24.105,0,2,1,1,1,2,1,0
24.11,1,0,9,13,3,3,1,3
24.115,2,2,6,4,2,3,1,3
24.12,2,4,6,3,0,4,2,2
24.125,1,1,3,1,1,3,2,2
24.13,0,0,3,1,0,1,3,2
24.135,1,3,2,1,1,1,1,0
24.14,2,7,11,1,1,0,0,2
24.145,1,1,8,3,1,1,1,1
24.15,1,8,6,1,1,0,2,3
24.155,1,2,10,18,9,0,2,1
24.16,0,2,1,2,3,1,0,1
24.165,2,0,7,2,2,1,2,0
24.17,0,3,2,3,0,1,2,1
24.175,4,4,7,5,5,0,2,1
24.18,1,1,7,1,0,2,1,0
24.185,0,6,15,3,2,1,4,1
24.19,1,4,6,1,1,1,2,0
24.195,1,5,4,2,0,1,1,1
24.2,0,3,5,4,4,2,1,0
24.205,0,2,8,4,2,1,1,1
24.21,1,4,1,1,3,2,2,0
24.215,3,1,5,1,2,1,1,3
24.22,0,7,2,3,1,0,2,1
24.225,4,13,10,2,2,0,0,2
24.23,1,6,8,20,12,1,1,0
24.235,3,7,10,1,1,4,1,2
24.24,2,5,3,2,1,1,1,0
24.245,0,3,6,3,0,3,3,2
24.25,1,1,1,1,2,3,0,1
24.255,0,1,5,1,0,2,2,1
24.26,3,3,7,6,5,6,4,3
24.265,2,0,3,5,1,1,1,1
24.27,1,5,7,1,1,1,1,4
24.275,0,2,6,3,0,1,1,1
24.28,2,0,3,3,1,1,2,0
24.285,0,0,8,3,4,0,2,0
24.29,3,0,4,1,1,0,1,1
24.295,2,5,1,4,3,0,1,1
24.3,3,5,4,4,1,0,2,4
24.305,0,3,5,5,1,2,1,3
24.31,2,5,17,18,8,1,0,0
24.315,1,4,3,5,1,4,2,1
24.32,0,5,8,6,0,1,2,3
24.325,0,2,9,2,2,1,2,1
24.33,1,4,8,11,7,3,1,1
24.335,0,3,10,3,2,0,1,1
24.34,2,6,0,6,2,3,2,1
24.345,0,2,0,5,3,1,1,2
24.35,2,2,0,1,1,0,1,1
24.355,0,2,5,3,3,4,1,1
24.36,1,0,3,4,2,2,0,3
24.365,2,5,16,9,4,1,1,2
24.37,1,2,1,1,1,2,4,1
24.375,0,1,1,8,6,2,0,1
24.38,1,2,4,9,4,3,2,3
24.385,3,3,2,2,3,3,0,1
24.39,0,7,15,12,4,1,2,2
24.395,6,13,21,8,1,1,1,3
24.4,2,3,6,5,5,1,1,0
24.405,4,5,12,9,5,3,2,4
24.41,1,1,3,2,4,3,1,0
24.415,2,2,4,2,4,0,2,0
24.42,1,3,1,2,1,1,3,1
24.425,1,2,4,3,2,1,0,1
24.43,4,7,8,3,2,3,2,3
24.435,0,3,1,4,2,0,0,1
24.44,2,1,1,3,0,1,1,1
24.445,2,3,5,7,4,3,3,2
24.45,0,2,4,6,4,2,2,1
24.455,1,0,8,10,5,4,3,1
24.46,1,1,7,0,1,0,2,1
24.465,2,4,1,1,0,0,2,2
24.47,2,2,2,0,2,1,2,1
24.475,2,1,3,1,2,1,0,0
24.48,0,0,0,5,2,4,0,1
24.485,1,2,3,1,1,2,0,2
24.49,2,3,9,8,4,2,4,1
24.495,0,8,23,7,0,1,2,0
24.5,2,1,6,11,3,0,3,2
24.505,0,2,6,1,0,0,2,0
24.51,1,1,1,0,1,1,1,3
24.515,2,0,0,2,1,1,2,2
24.52,0,1,5,4,2,2,0,0
24.525,2,2,8,2,1,3,0,2
24.53,2,1,0,1,0,0,0,2
24.535,1,1,9,2,0,2,0,3
24.54,3,3,8,9,9,3,1,1
24.545,1,2,3,3,1,0,1,0
24.55,0,3,3,1,0,1,1,0
24.555,3,3,1,10,5,1,1,2
24.56,0,1,8,5,2,1,1,1
24.565,1,1,3,2,0,1,1,1
24.57,0,2,0,0,1,1,1,1
24.575,2,5,10,1,1,0,1,2
24.58,0,0,4,1,3,1,1,0
24.585,2,2,1,1,3,1,2,0
24.59,1,2,0,0,1,1,0,1
24.595,2,0,2,5,2,1,2,2
24.6,2,2,2,3,1,3,1,1
24.605,0,0,4,5,2,0,0,1
24.61,0,1,2,10,7,3,1,2
24.615,0,0,1,0,0,0,2,0
24.62,2,1,4,0,1,1,1,2
24.625,2,3,4,3,2,1,0,2
24.63,2,0,0,1,1,1,1,0
24.635,1,0,3,3,3,2,1,1
24.64,1,3,10,2,0,1,2,0
24.645,1,0,1,5,1,2,1,2
24.65,1,2,4,6,5,1,2,3
24.655,1,0,1,0,1,2,2,2
24.66,3,3,5,0,1,2,2,3
24.665,2,1,1,1,5,1,0,0
24.67,2,4,5,3,1,1,1,0
24.675,2,2,4,1,0,0,2,2
24.68,1,1,2,0,2,0,1,1
24.685,1,2,0,3,0,2,1,1
24.69,0,4,8,4,1,1,1,0
24.695,4,8,3,7,3,2,1,4
24.7,1,1,0,5,5,2,1,1
24.705,1,0,4,7,1,2,1,1
24.71,0,2,1,1,1,2,2,1
24.715,1,2,0,4,2,1,2,1
24.72,0,3,5,3,2,3,1,1
24.725,4,6,17,9,3,1,4,4
24.73,2,3,10,2,1,0,0,2
24.735,1,1,2,0,0,2,1,1
24.74,1,4,2,1,1,3,0,0
24.745,1,0,3,1,1,1,2,1
24.75,2,8,10,0,1,1,2,2
24.755,1,0,7,3,1,4,0,1
24.76,0,2,1,6,5,2,2,1
24.765,3,3,2,3,0,1,1,2
24.77,1,1,4,2,1,1,0,3
24.775,1,3,1,2,4,5,2,0
24.78,2,0,1,4,1,2,2,1
24.785,1,0,4,1,3,1,2,1
24.79,1,1,7,2,0,1,2,3
24.795,3,1,5,4,1,0,2,2
24.8,2,2,6,5,2,3,2,1
24.805,1,2,5,5,2,1,1,3
24.81,2,0,5,3,1,1,3,2
24.815,1,1,2,0,0,1,1,1
24.82,2,1,1,6,2,1,3,4
24.825,0,4,5,3,2,4,2,1
24.83,4,4,7,4,2,3,2,3
24.835,1,1,3,6,6,3,1,0
24.84,2,1,2,4,2,0,1,2
24.845,1,0,0,2,1,2,1,2
24.85,0,2,1,1,0,1,1,2
24.855,1,2,6,2,1,3,1,1
24.86,2,1,6,3,3,0,1,1
24.865,0,1,6,4,3,2,3,3
24.87,1,2,0,6,3,1,2,1
24.875,1,1,2,1,0,2,3,1
24.88,1,1,1,2,2,2,0,1
24.885,0,2,3,2,0,1,1,1
24.89,0,2,0,1,1,1,1,2
24.895,0,0,1,6,2,1,2,1
24.9,2,1,1,7,6,2,2,1
24.905,2,1,5,1,1,2,3,1
24.91,1,1,5,1,1,2,0,1
24.915,1,3,6,4,2,1,2,0
24.92,0,0,1,1,0,3,2,1
24.925,1,0,2,3,1,1,0,0
24.93,0,1,2,1,2,3,1,0
24.935,0,2,3,2,2,3,1,3
24.94,3,4,6,6,3,1,1,0
24.945,2,1,6,4,3,0,0,1
24.95,2,1,8,5,1,1,1,1
24.955,1,0,2,4,3,1,1,1
24.96,0,0,6,4,3,2,1,2
24.965,1,1,3,3,2,1,1,3
24.97,0,0,1,4,0,0,1,1
24.975,1,2,3,1,1,0,0,1
24.98,1,5,16,10,3,3,2,2
24.985,0,2,4,1,1,0,0,1
24.99,2,3,3,3,1,2,2,1
24.995,0,1,0,0,1,1,0,0
25,1,0,2,1,1,1,1,2
25.005,1,0,2,0,1,2,2,0
25.01,1,1,1,5,4,1,1,0
25.015,4,4,3,2,1,1,0,4
25.02,2,3,7,4,1,0,2,1
25.025,4,11,16,5,2,3,2,2
25.03,1,1,1,10,6,0,1,1
25.035,0,1,1,2,0,1,3,1
25.04,2,1,0,0,1,2,1,1
25.045,1,1,3,4,2,1,1,1
25.05,1,2,6,3,1,2,2,1
25.055,1,4,2,3,4,2,3,1
25.06,2,3,3,1,1,1,2,2
25.065,1,2,4,2,1,2,1,1
25.07,2,1,3,0,0,2,1,1
25.075,1,2,0,0,1,0,1,1
25.08,1,3,1,1,0,0,0,1
25.085,0,0,0,2,2,1,2,1
25.09,2,4,2,2,0,0,3,2
25.095,3,1,2,7,5,4,2,2
25.1,2,2,2,2,2,1,3,0
25.105,2,1,5,5,5,1,1,0
25.11,2,4,3,0,0,2,3,2
25.115,1,1,4,0,2,1,0,1
25.12,2,0,5,1,3,1,2,0
25.125,0,2,3,2,1,1,0,1
25.13,0,0,1,2,2,3,2,0
25.135,1,0,6,12,3,3,2,0
25.14,0,0,21,19,8,5,1,2
25.145,2,4,2,1,4,3,2,0
25.15,3,0,0,2,1,2,2,0
25.155,2,1,1,3,1,2,1,2
25.16,1,1,1,3,2,1,3,2
25.165,1,1,4,0,3,0,1,1
25.17,0,2,2,1,0,1,3,1
25.175,1,2,13,5,4,1,0,2
25.18,1,3,3,4,0,1,0,1
25.185,0,2,2,2,2,2,0,1
25.19,0,5,4,1,3,1,3,2
25.195,0,2,5,2,0,2,1,1
25.2,2,5,7,4,5,3,2,1
25.205,0,2,2,2,2,1,1,0
25.21,2,4,6,2,1,2,3,2
25.215,1,3,3,3,2,2,1,3
25.22,1,3,3,7,2,1,1,0
25.225,2,4,14,11,7,0,2,2
25.23,1,5,15,2,2,1,1,2
25.235,2,2,12,7,4,1,1,2
25.24,0,2,12,5,1,0,0,0
25.245,2,3,3,1,0,2,2,2
25.25,0,1,2,4,1,2,0,0
25.255,1,0,0,0,1,4,0,1
25.26,1,1,4,1,1,0,1,3
25.265,1,1,7,6,3,1,1,1
25.27,3,5,16,11,6,3,1,2
25.275,1,2,3,0,4,0,0,1
25.28,3,1,5,2,1,0,3,1
25.285,1,1,1,0,0,1,1,1
25.29,3,3,2,2,1,0,1,2
25.295,0,1,4,3,0,2,1,0
25.3,0,1,0,1,2,2,1,1
25.305,2,2,0,1,3,5,1,2
25.31,2,3,9,5,2,1,2,2
25.315,4,5,1,2,1,2,3,0
25.32,1,1,4,4,1,0,0,1
25.325,0,1,4,2,1,1,0,1
25.33,1,3,4,3,1,1,1,1
25.335,0,3,7,4,2,2,2,3
25.34,1,0,2,3,4,2,2,1
25.345,1,2,5,1,0,1,0,1
25.35,1,1,4,4,4,2,2,2
25.355,1,0,7,0,1,0,1,2
25.36,3,2,4,1,4,2,0,1
25.365,0,1,6,1,1,1,2,1
25.37,0,0,9,4,2,0,3,1
25.375,1,1,3,2,1,1,1,2
25.38,3,3,7,7,5,2,3,3
25.385,3,1,1,3,2,1,0,2
25.39,1,3,2,1,1,0,0,1
25.395,0,0,2,0,2,0,1,1
25.4,2,3,2,2,2,2,0,1
25.405,1,4,4,1,0,0,1,1
25.41,1,2,2,7,1,2,1,1
25.415,0,2,3,1,1,0,0,1
25.42,1,1,1,3,3,1,0,0
25.425,0,3,6,1,1,0,1,0
25.43,3,7,7,3,3,3,0,5
25.435,2,2,2,3,3,2,2,0
25.44,1,0,0,4,5,0,1,0
25.445,2,2,3,2,2,3,2,2
25.45,2,1,5,5,3,1,1,0
25.455,2,1,7,1,0,0,0,1
25.46,1,1,11,2,1,2,0,1
25.465,4,3,10,2,1,1,1,3
25.47,1,2,7,6,2,1,3,0
25.475,1,1,2,2,2,1,3,3
25.48,2,0,9,6,4,1,1,1
25.485,1,4,18,10,4,1,1,1
25.49,0,3,6,6,1,1,1,2
25.495,2,4,10,7,2,2,1,1
25.5,1,1,3,0,0,2,2,1
25.505,0,1,4,1,0,1,0,1
25.51,3,5,5,6,6,3,3,4
25.515,0,1,1,5,2,0,0,1
25.52,4,3,8,7,5,0,2,2
25.525,1,1,2,2,2,0,1,0
25.53,1,1,5,1,0,1,1,1
25.535,1,2,5,1,1,0,0,0
25.54,1,1,6,5,4,3,3,3
25.545,1,0,6,4,0,1,1,2
25.55,2,2,4,4,0,1,4,3
25.555,2,3,6,2,2,1,2,2
25.56,1,1,1,1,0,2,0,0
25.565,1,0,3,1,2,1,1,2
25.57,0,2,7,2,0,2,0,2
25.575,1,2,4,3,1,3,2,2
25.58,1,2,2,0,2,1,0,2
25.585,0,3,1,1,1,1,0,1
25.59,1,1,4,3,3,1,1,1
25.595,2,1,1,2,3,2,2,1
25.6,3,3,6,1,1,2,1,1
25.605,3,4,5,0,2,2,3,2
25.61,1,1,0,3,4,0,2,1
25.615,0,1,2,1,2,3,2,1
25.62,1,2,1,0,4,0,2,2
25.625,0,1,6,4,2,0,0,1
25.63,3,4,15,1,1,1,1,1
25.635,1,7,21,2,4,1,1,0
25.64,1,5,11,6,5,1,3,0
25.645,1,1,0,4,2,0,2,0
25.65,1,1,3,5,2,2,2,1
25.655,2,4,14,8,4,1,1,2
25.66,0,4,7,2,2,1,1,0
25.665,1,1,1,1,2,2,0,1
25.67,1,2,0,2,1,2,1,1
25.675,0,1,10,6,4,1,1,2
25.68,2,1,2,8,3,2,3,1
25.685,2,1,4,3,3,3,1,2
25.69,0,0,1,1,0,3,2,0
25.695,0,0,3,4,2,1,2,1
25.7,1,2,4,3,4,1,1,1
25.705,1,0,1,1,0,1,1,3
25.71,0,2,2,2,1,1,1,2
25.715,1,1,6,3,0,1,0,1
25.72,0,1,3,5,3,1,0,0
25.725,5,5,4,5,2,1,3,1
25.73,1,1,2,3,2,1,1,1
25.735,2,0,1,0,0,1,2,3
25.74,0,0,6,3,3,1,1,3
25.745,1,0,1,3,0,2,1,1
25.75,2,3,4,4,3,0,0,1
25.755,2,4,9,3,2,2,3,3
25.76,2,1,2,4,3,1,1,1
25.765,1,1,3,4,2,2,1,1
25.77,0,0,2,2,1,2,1,2
25.775,1,1,1,1,0,1,1,0
25.78,1,1,2,2,1,0,1,0
25.785,1,6,9,5,6,1,2,2
25.79,1,1,3,2,1,2,0,1
25.795,2,2,4,5,3,1,0,1
25.8,0,1,0,1,1,1,2,1
25.805,1,0,0,1,0,2,1,1
25.81,1,1,8,2,2,1,3,1
25.815,3,4,4,1,1,1,1,0
25.82,2,2,0,5,1,1,0,1
25.825,1,6,11,5,2,0,0,2
25.83,1,1,0,1,2,1,1,4
25.835,2,1,5,2,0,1,2,2
25.84,1,0,4,6,3,0,0,1
25.845,2,3,8,1,2,0,3,1
25.85,0,2,1,7,5,2,2,0
25.855,1,1,2,0,1,1,1,1
25.86,3,4,4,9,5,1,2,3
25.865,1,1,2,4,0,0,1,2
25.87,1,0,3,2,1,0,1,1
25.875,2,0,0,0,2,3,1,4
25.88,0,2,10,3,0,4,1,1
25.885,3,2,15,8,3,2,0,0
25.89,1,1,7,4,1,0,0,1
25.895,1,1,4,0,1,0,1,0
25.9,2,1,4,1,2,2,2,1
25.905,0,1,4,2,2,1,1,1
25.91,0,2,8,0,0,1,1,0
25.915,1,1,4,1,1,2,1,2
25.92,1,6,8,5,3,2,0,3
25.925,1,1,3,5,5,2,1,0
25.93,1,0,1,2,2,2,2,1
25.935,1,2,3,4,0,0,1,0
25.94,3,4,2,1,1,1,4,1
25.945,0,1,3,6,7,1,2,3
25.95,1,3,7,4,3,1,0,2
25.955,1,3,7,1,2,0,2,1
25.96,0,1,8,1,0,0,1,2
25.965,2,0,0,4,3,0,2,2
25.97,2,3,3,2,2,2,2,1
25.975,0,4,3,3,1,3,1,0
25.98,1,3,3,4,1,1,0,1
25.985,3,3,3,2,3,1,0,2
25.99,4,3,5,3,2,3,1,1
25.995,1,1,4,4,4,2,3,0
26,0,3,1,0,1,0,0,1
26.005,0,1,6,0,1,2,1,3
26.01,3,7,6,0,0,0,3,3
26.015,1,0,3,5,1,3,1,2
26.02,1,1,3,1,2,4,1,2
26.025,0,1,3,6,1,1,0,0
26.03,1,1,2,1,3,2,0,1
26.035,3,5,3,8,6,0,1,1
26.04,1,0,0,1,1,1,1,1
26.045,0,2,1,1,0,1,0,0
26.05,1,2,8,2,1,2,2,2
26.055,1,2,11,2,0,0,4,1
26.06,1,1,14,1,3,1,1,1
26.065,1,3,4,1,2,1,2,1
26.07,1,1,6,3,2,1,0,1
26.075,3,2,1,4,2,2,0,1
26.08,3,4,15,8,2,1,1,2
26.085,0,4,2,2,2,1,0,2
26.09,4,6,2,0,1,2,1,3
26.095,2,1,5,1,3,1,1,2
26.1,0,1,4,2,1,2,0,1
26.105,3,5,3,2,4,3,3,1
26.11,1,2,4,1,2,2,1,0
26.115,1,1,5,1,2,4,2,1
26.12,1,2,1,2,2,2,1,1
26.125,2,0,0,1,1,2,2,3
26.13,0,1,1,2,1,0,1,1
26.135,0,1,5,3,1,1,0,2
26.14,1,2,9,1,3,1,3,2
26.145,0,1,6,4,4,0,2,1
26.15,2,1,2,6,6,1,0,1
26.155,2,0,3,1,3,0,2,3
26.16,2,0,1,2,1,1,0,3
26.165,2,1,4,6,1,1,1,1
26.17,1,1,2,5,4,1,1,0
26.175,1,2,6,2,1,2,1,1
26.18,0,0,3,6,1,2,2,1
26.185,1,1,3,7,6,3,1,2
