0.01,1,2,1,2,0,1,2,1
0.015,1,0,0,3,1,2,0,2
0.02,2,1,1,2,1,0,0,3
0.025,1,0,1,0,2,4,2,1
0.03,1,2,1,1,3,1,2,1
0.035,0,1,2,0,1,0,2,3
0.04,2,1,2,0,0,1,1,0
0.045,1,2,0,1,1,1,2,1
0.05,0,0,1,2,1,3,0,2
0.055,1,2,0,1,1,2,2,1
0.06,0,1,0,0,1,2,2,2
0.065,2,1,2,0,1,0,2,2
0.07,2,1,1,1,1,2,1,1
0.075,0,1,2,2,2,0,2,3
0.08,1,1,1,1,2,1,3,1
0.085,1,2,1,1,0,2,1,1
0.09,2,1,1,2,1,1,1,0
0.095,2,0,2,1,1,2,2,0
0.1,1,1,0,2,1,1,4,0
0.105,1,1,1,1,1,1,1,2
0.11,0,0,1,1,0,1,2,2
0.115,1,2,2,0,1,0,3,1
0.12,1,1,3,2,1,1,1,1
0.125,1,1,1,0,1,0,0,2
0.13,2,0,0,1,2,4,1,1
0.135,0,1,1,1,2,0,2,2
0.14,1,0,1,3,2,2,0,0
0.145,0,1,3,2,0,2,0,1
0.15,1,2,1,0,0,0,1,0
0.155,1,2,1,2,1,3,0,0
0.16,0,1,1,1,1,0,3,0
0.165,0,2,2,0,1,1,1,1
0.17,1,1,1,1,2,5,2,2
0.175,1,1,0,2,1,2,1,2
0.18,0,2,0,2,0,1,2,1
0.185,2,0,3,1,1,1,1,0
0.19,2,0,2,0,0,1,2,1
0.195,2,0,1,1,1,1,2,0
0.2,3,1,3,3,0,2,2,4
0.205,1,0,0,2,0,0,2,0
0.21,1,2,0,2,2,0,2,1
0.215,1,0,1,2,2,1,1,1
0.22,1,2,1,1,2,1,1,0
0.225,2,2,1,0,0,0,0,4
0.23,0,1,1,1,3,2,2,0
0.235,1,0,1,0,0,2,1,1
0.24,0,0,1,1,2,1,1,1
0.245,1,1,0,0,2,3,4,2
0.25,0,1,0,2,1,1,1,1
0.255,2,2,2,0,3,1,1,0
0.26,0,1,1,0,1,1,0,2
0.265,2,1,1,1,2,2,1,1
0.27,1,0,1,3,2,1,2,1
0.275,1,1,0,1,1,2,3,2
0.28,1,2,2,2,2,1,3,1
0.285,2,1,1,0,1,0,1,1
0.29,1,1,1,2,1,0,0,3
0.295,1,2,0,0,2,0,1,1
0.3,0,1,2,1,3,1,2,0
0.305,0,1,1,1,1,1,2,0
0.31,1,1,1,1,1,1,0,1
0.315,2,3,0,0,1,2,3,2
0.32,3,1,0,2,1,1,1,2
0.325,1,1,0,1,2,1,2,2
0.33,3,1,1,1,0,2,0,2
0.335,1,1,1,1,3,1,3,0
0.34,0,1,1,1,1,2,2,3
0.345,0,1,1,2,2,1,3,2
0.35,1,1,1,0,1,2,3,4
0.355,0,0,1,1,2,0,0,0
0.36,0,2,1,1,3,2,2,0
0.365,2,2,2,1,2,2,1,4
0.37,2,0,3,0,3,1,0,0
0.375,1,0,1,2,0,1,2,3
0.38,1,0,0,0,3,1,0,2
0.385,1,1,1,2,0,1,3,4
0.39,0,4,2,1,1,1,3,0
0.395,0,1,1,3,3,1,2,0
0.4,2,2,1,1,1,0,3,2
0.405,1,1,2,3,2,0,2,2
0.41,1,2,1,0,0,3,0,0
0.415,2,1,1,1,1,0,3,1
0.42,1,1,0,1,2,0,0,4
0.425,2,2,0,1,4,0,0,2
0.43,0,0,0,2,1,1,1,1
0.435,1,1,1,1,0,3,2,0
0.44,3,1,2,1,1,1,2,0
0.445,0,1,0,1,2,1,1,0
0.45,2,2,0,1,4,1,0,0
0.455,1,1,0,0,1,2,1,2
0.46,0,2,2,1,1,3,0,0
0.465,3,2,1,1,1,3,1,3
0.47,0,2,1,3,1,0,3,1
0.475,2,1,3,1,0,2,1,0
0.48,0,0,2,0,2,0,1,3
0.485,1,1,1,1,0,1,0,1
0.49,1,2,1,1,1,1,0,1
0.495,0,2,0,1,2,1,2,2
0.5,0,0,2,1,2,1,1,1
0.505,2,2,0,1,0,2,1,3
0.51,1,1,0,2,2,2,3,1
0.515,1,0,2,2,0,0,2,2
0.52,2,2,2,0,1,2,1,4
0.525,1,1,1,1,1,1,0,0
0.53,0,2,1,2,0,1,2,0
0.535,0,2,0,2,1,1,3,1
0.54,0,0,0,2,1,2,4,1
0.545,1,0,2,0,0,2,2,1
0.55,1,1,1,2,1,1,0,2
0.555,2,0,0,0,1,1,3,1
0.56,3,1,1,1,1,1,0,1
0.565,1,1,0,3,1,1,2,3
0.57,1,1,0,1,1,2,2,1
0.575,0,0,0,3,1,2,2,2
0.58,1,1,1,0,3,1,1,2
0.585,2,1,2,2,0,0,1,1
0.59,0,0,1,1,1,0,0,2
0.595,2,1,2,2,0,1,2,4
0.6,1,1,0,2,0,2,3,2
0.605,1,1,0,1,2,1,2,2
0.61,0,0,2,0,0,3,1,3
0.615,1,2,0,1,1,1,3,1
0.62,2,0,1,3,1,0,2,1
0.625,0,2,1,0,2,1,2,1
0.63,2,0,0,0,2,0,1,1
0.635,0,0,1,0,1,2,1,0
0.64,2,2,1,0,0,2,1,2
0.645,1,0,1,0,1,2,1,3
0.65,2,0,1,1,0,2,3,0
0.655,2,3,1,0,2,0,2,1
0.66,1,1,0,2,1,0,2,0
0.665,0,0,2,1,0,1,0,0
0.67,1,1,1,2,3,3,0,3
0.675,3,1,3,1,3,1,3,3
0.68,1,2,0,3,1,3,0,2
0.685,3,1,1,2,0,2,0,2
0.69,1,1,2,1,1,1,2,2
0.695,0,1,0,1,2,2,1,1
0.7,3,2,0,1,0,1,0,1
0.705,1,0,0,1,1,0,3,1
0.71,1,3,3,3,5,2,1,1
0.715,1,0,1,1,0,2,2,1
0.72,1,0,1,3,1,1,4,2
0.725,0,2,2,2,0,0,0,1
0.73,1,0,1,2,0,0,1,3
0.735,1,2,0,1,3,2,1,3
0.74,0,3,0,0,0,0,1,2
0.745,0,1,1,0,1,2,1,0
0.75,2,1,0,3,2,1,2,1
0.755,0,1,1,3,1,0,2,2
0.76,1,1,2,1,2,1,0,0
0.765,2,2,1,2,0,1,0,4
0.77,2,2,2,0,2,3,0,1
0.775,3,0,2,0,3,1,4,1
0.78,1,1,0,0,1,1,4,2
0.785,2,1,0,1,2,1,0,2
0.79,1,0,1,2,1,1,1,2
0.795,3,2,1,0,0,1,0,3
0.8,1,1,4,0,3,1,1,2
0.805,1,1,1,0,2,3,3,1
0.81,1,3,2,0,1,0,2,2
0.815,1,2,1,0,1,0,0,0
0.82,1,1,0,3,1,3,2,3
0.825,2,1,0,2,0,0,2,1
0.83,1,2,3,0,3,1,0,2
0.835,1,1,0,3,1,3,1,0
0.84,2,2,0,1,0,2,2,1
0.845,1,2,4,2,2,2,1,1
0.85,1,4,0,2,2,3,2,3
0.855,1,3,0,0,1,2,1,0
0.86,1,0,1,2,1,1,1,1
0.865,1,0,1,0,0,4,1,1
0.87,3,2,2,1,1,2,4,0
0.875,0,1,1,1,1,1,1,1
0.88,0,1,2,2,0,0,1,0
0.885,2,1,1,1,2,0,0,0
0.89,1,0,1,1,1,1,1,0
0.895,2,0,1,1,2,0,1,2
0.9,1,0,0,0,0,1,0,0
0.905,2,0,1,2,4,1,2,3
0.91,1,1,1,0,2,0,0,1
0.915,1,1,1,1,1,2,3,0
0.92,2,1,2,2,2,1,2,0
0.925,4,1,2,0,1,2,2,1
0.93,3,2,1,1,0,0,2,2
0.935,2,0,1,1,2,2,1,0
0.94,0,0,1,0,2,1,0,1
0.945,0,2,0,1,0,0,0,2
0.95,1,0,1,1,2,1,2,2
0.955,2,2,1,1,1,2,2,1
0.96,2,1,1,2,1,2,1,2
0.965,3,1,0,1,2,0,2,2
0.97,0,2,1,1,4,0,4,1
0.975,1,0,0,1,1,4,2,3
0.98,0,3,1,1,4,2,0,2
0.985,0,1,0,2,1,0,0,3
0.99,0,1,1,2,1,3,1,1
0.995,0,1,1,2,2,1,1,0
1,1,1,2,0,1,1,1,1
1.005,1,1,1,2,2,1,3,0
1.01,0,1,1,1,3,1,0,3
1.015,2,2,0,1,2,2,1,0
1.02,0,2,1,2,1,0,1,2
1.025,0,1,1,1,1,1,3,0
1.03,1,1,0,2,0,1,2,1
1.035,2,1,1,2,4,1,1,1
1.04,1,1,0,1,3,3,1,1
1.045,2,1,3,1,0,1,2,0
1.05,1,1,1,2,2,0,0,1
1.055,1,2,0,2,1,2,2,1
1.06,0,1,2,1,0,1,3,0
1.065,2,1,0,1,1,2,1,3
1.07,1,2,0,0,2,3,0,3
1.075,2,3,1,1,1,0,1,1
1.08,1,0,0,2,1,1,2,3
1.085,1,2,1,2,1,0,2,1
1.09,1,1,2,1,1,0,0,1
1.095,1,0,2,1,2,1,1,1
1.1,1,1,1,1,1,0,2,3
1.105,0,0,1,0,1,1,1,1
1.11,1,1,1,0,1,1,2,1
1.115,1,0,1,1,1,3,1,2
1.12,2,3,0,2,1,2,1,0
1.125,2,1,1,2,2,1,2,1
1.13,2,0,1,1,3,0,1,1
1.135,1,1,1,1,1,0,1,1
1.14,2,2,1,1,1,1,0,1
1.145,0,0,2,2,4,0,4,3
1.15,1,0,1,1,0,0,0,3
1.155,3,1,1,0,0,1,1,2
1.16,2,0,1,1,1,0,0,1
1.165,1,0,0,0,1,0,0,2
1.17,1,3,2,2,0,0,2,2
1.175,2,0,2,2,2,1,4,1
1.18,0,1,2,1,0,1,3,4
1.185,2,1,0,1,1,2,0,1
1.19,1,1,2,2,2,1,2,0
1.195,1,0,2,1,2,1,1,1
1.2,1,1,1,1,2,2,3,1
1.205,0,0,0,1,2,1,1,2
1.21,3,2,2,2,0,1,1,1
1.215,3,1,0,4,4,0,2,0
1.22,2,1,2,0,2,0,1,0
1.225,1,2,2,2,0,1,1,2
1.23,0,2,3,0,0,1,2,0
1.235,1,0,1,1,1,1,0,3
1.24,1,1,1,3,1,0,0,0
1.245,1,0,1,3,0,0,1,1
1.25,0,0,1,1,1,0,0,1
1.255,0,2,3,0,1,4,1,4
1.26,1,1,2,2,2,1,1,1
1.265,0,1,2,1,1,1,0,2
1.27,1,2,0,2,2,5,1,3
1.275,1,1,1,0,1,1,5,1
1.28,0,2,1,1,3,1,0,2
1.285,2,0,3,2,2,2,0,3
1.29,0,2,1,1,0,0,2,1
1.295,1,0,1,1,3,1,4,1
1.3,1,1,1,1,0,0,2,6
1.305,1,1,1,2,2,0,0,0
1.31,0,1,0,1,0,1,4,1
1.315,1,1,3,2,3,1,2,1
1.32,2,1,2,0,1,1,2,2
1.325,1,1,1,2,1,3,2,0
1.33,2,1,1,2,3,1,2,1
1.335,1,0,0,1,2,1,1,2
1.34,3,4,2,1,0,1,5,1
1.345,0,1,0,1,0,1,1,3
1.35,0,1,1,1,0,1,1,1
1.355,1,2,0,4,1,0,2,2
1.36,1,1,2,3,2,2,0,1
1.365,2,2,1,0,2,0,2,0
1.37,2,0,1,1,2,0,2,3
1.375,0,0,1,2,1,2,0,1
1.38,2,1,0,0,1,3,1,1
1.385,0,2,2,1,3,0,3,1
1.39,3,1,1,1,2,2,2,1
1.395,0,3,3,0,2,1,1,2
1.4,1,0,2,3,2,3,2,1
1.405,0,1,2,2,3,0,1,2
1.41,1,2,2,1,1,0,1,1
1.415,2,1,1,2,1,1,1,0
1.42,1,1,2,2,0,2,0,1
1.425,1,2,1,1,2,2,1,0
1.43,0,1,0,1,3,3,0,3
1.435,1,1,0,2,0,3,2,2
1.44,0,0,0,0,0,0,2,0
1.445,2,1,0,3,0,2,5,1
1.45,2,1,1,1,1,2,1,1
1.455,1,2,1,2,2,1,0,1
1.46,1,2,1,2,1,0,1,2
1.465,1,0,2,2,1,2,1,1
1.47,1,1,0,1,0,0,3,1
1.475,0,2,0,1,1,0,1,1
1.48,1,2,1,0,2,2,2,0
1.485,2,1,0,0,3,0,1,0
1.49,1,0,1,2,3,0,1,0
1.495,2,1,1,0,1,1,1,3
1.5,1,2,0,0,1,1,1,4
1.505,1,1,2,0,0,2,0,1
1.51,2,0,2,1,2,0,2,1
1.515,2,1,0,3,1,3,1,1
1.52,2,0,1,1,1,2,2,2
1.525,1,2,1,1,2,1,0,1
1.53,1,1,1,2,1,1,3,1
1.535,1,1,0,0,2,1,0,1
1.54,1,1,3,2,1,0,2,2
1.545,1,1,0,0,1,2,0,2
1.55,2,2,1,0,2,2,4,1
1.555,2,0,1,0,0,1,0,2
1.56,1,2,0,0,3,2,3,0
1.565,0,1,3,4,0,1,4,1
1.57,0,0,1,0,2,1,0,3
1.575,0,1,3,2,1,1,2,1
1.58,3,1,0,1,2,0,3,2
1.585,2,1,1,0,2,1,0,1
1.59,1,0,2,1,0,3,1,2
1.595,0,0,2,1,0,3,3,0
1.6,1,1,1,3,2,4,2,1
1.605,1,1,1,1,1,2,2,1
1.61,2,2,0,4,3,0,0,0
1.615,3,2,2,0,1,3,1,1
1.62,2,2,1,2,0,2,3,0
1.625,2,1,0,3,2,0,0,4
1.63,2,1,0,2,0,2,1,0
1.635,0,0,1,2,3,4,1,1
1.64,0,1,1,0,3,1,1,0
1.645,1,0,0,1,1,2,1,1
1.65,0,2,3,1,0,3,1,1
1.655,2,0,1,1,0,0,2,0
1.66,2,1,3,1,1,0,3,0
1.665,1,3,3,2,1,1,0,1
1.67,0,2,1,2,1,0,1,1
1.675,1,3,1,2,1,2,4,0
1.68,0,0,2,1,2,2,0,2
1.685,1,1,0,1,1,0,0,2
1.69,0,1,3,1,3,2,1,3
1.695,0,0,1,1,1,0,1,1
1.7,0,0,1,3,1,0,2,1
1.705,0,2,2,2,0,0,1,0
1.71,1,1,2,1,1,2,2,0
1.715,2,2,1,1,4,0,2,1
1.72,2,1,2,3,1,1,0,3
1.725,1,2,1,3,4,0,2,1
1.73,1,2,1,1,1,2,0,1
1.735,1,0,0,2,0,3,2,1
1.74,1,2,0,0,4,0,1,0
1.745,1,1,2,4,2,0,3,0
1.75,0,1,1,1,1,2,2,1
1.755,2,0,1,1,1,0,1,0
1.76,2,1,2,1,1,1,0,1
1.765,2,1,2,0,1,4,2,1
1.77,2,1,1,3,1,1,2,1
1.775,1,1,1,0,1,2,0,4
1.78,0,2,1,0,3,2,1,0
1.785,1,0,0,2,4,0,0,1
1.79,1,1,1,2,1,1,4,1
1.795,1,2,0,2,2,2,1,1
1.8,1,0,0,0,0,1,1,1
1.805,1,1,0,1,0,2,1,2
1.81,1,1,1,1,3,1,1,0
1.815,1,1,2,0,2,1,4,1
1.82,0,3,0,2,0,2,2,1
1.825,1,1,2,1,1,1,1,2
1.83,1,1,1,1,1,2,1,1
1.835,1,0,0,3,2,1,4,2
1.84,2,0,1,1,2,0,1,0
1.845,1,0,2,0,1,3,2,2
1.85,1,1,0,1,1,2,1,1
1.855,2,1,1,0,2,1,0,1
1.86,1,2,1,1,0,1,2,2
1.865,1,2,2,1,1,0,0,1
1.87,0,0,2,1,1,1,4,1
1.875,1,2,2,0,1,1,1,0
1.88,0,1,0,1,5,1,1,2
1.885,2,2,2,3,2,0,2,0
1.89,3,2,1,1,3,0,3,1
1.895,0,3,0,1,1,0,1,2
1.9,2,1,1,2,1,1,3,0
1.905,2,1,0,0,0,0,0,2
1.91,1,2,3,1,2,1,3,1
1.915,3,0,0,2,1,1,1,1
1.92,0,2,1,0,1,2,0,1
1.925,3,1,1,2,2,2,4,1
1.93,1,2,1,0,0,1,2,3
1.935,1,1,2,1,1,2,0,1
1.94,1,1,1,2,4,3,3,2
1.945,1,0,0,1,1,4,3,0
1.95,0,2,1,3,1,1,0,3
1.955,1,3,3,1,1,0,3,1
1.96,4,3,2,0,1,2,1,1
1.965,1,2,0,2,3,1,3,1
1.97,1,4,2,1,2,1,3,1
1.975,1,1,1,0,1,1,0,1
1.98,3,2,1,1,1,2,0,2
1.985,2,1,0,0,0,1,0,0
1.99,4,1,1,1,0,1,2,1
1.995,4,1,1,2,2,2,2,0
2,0,1,1,0,3,1,1,1
2.005,0,2,2,0,0,2,2,4
2.01,2,3,2,1,1,1,1,0
2.015,4,0,3,1,3,0,1,1
2.02,1,1,0,1,1,4,1,1
2.025,2,2,2,2,2,2,0,1
2.03,0,1,1,2,0,1,0,2
2.035,3,2,3,1,2,2,0,1
2.04,1,0,2,2,3,1,1,2
2.045,2,1,1,1,1,2,4,1
2.05,0,2,2,0,0,3,3,1
2.055,0,0,0,0,2,1,3,2
2.06,0,0,1,0,0,0,3,1
2.065,1,2,2,0,1,3,2,1
2.07,1,3,0,2,2,1,1,1
2.075,1,1,1,1,3,1,1,2
2.08,0,2,0,0,1,0,1,0
2.085,1,2,2,1,1,1,1,1
2.09,2,0,2,5,2,0,0,1
2.095,2,1,0,4,3,2,0,3
2.1,1,0,0,2,1,0,2,3
2.105,1,0,2,4,2,1,1,0
2.11,0,0,0,2,2,3,1,2
2.115,1,1,1,2,1,1,1,0
2.12,2,3,2,0,1,1,3,1
2.125,2,2,1,1,0,0,2,2
2.13,1,0,1,0,2,1,0,0
2.135,1,0,1,3,0,1,2,2
2.14,1,1,0,3,2,3,1,1
2.145,2,1,1,2,1,1,3,2
2.15,2,4,0,2,1,1,2,3
2.155,2,2,0,2,2,0,4,2
2.16,0,3,3,0,2,1,1,0
2.165,0,2,1,2,0,2,2,2
2.17,1,2,1,1,1,1,3,2
2.175,1,2,2,2,1,3,1,0
2.18,0,0,0,2,0,0,2,2
2.185,0,0,0,1,3,1,0,1
2.19,2,2,2,1,1,1,3,0
2.195,1,3,2,3,1,0,1,0
2.2,2,0,0,1,4,1,3,0
2.205,1,1,1,1,1,2,2,1
2.21,1,1,0,2,2,1,3,1
2.215,2,1,2,0,1,0,2,0
2.22,2,3,1,2,1,0,3,1
2.225,1,4,0,1,3,1,1,2
2.23,0,1,0,0,1,2,1,3
2.235,1,2,0,2,2,0,3,2
2.24,3,0,1,0,1,0,0,2
2.245,1,0,0,0,1,4,1,1
2.25,2,1,0,3,1,1,1,1
2.255,1,1,0,2,0,1,0,2
2.26,0,0,2,1,2,1,3,2
2.265,4,2,0,2,1,2,2,1
2.27,1,1,2,2,2,4,1,1
2.275,2,0,1,1,1,5,2,2
2.28,2,1,2,1,0,0,3,1
2.285,1,0,1,0,2,1,1,3
2.29,2,1,0,1,2,0,1,1
2.295,1,2,1,3,0,2,3,1
2.3,0,2,1,1,2,0,1,1
2.305,1,1,1,3,1,2,2,0
2.31,1,1,2,0,1,3,3,1
2.315,3,1,0,0,0,0,1,2
2.32,0,1,1,2,1,1,5,1
2.325,1,1,3,2,0,0,0,1
2.33,3,1,1,1,0,2,1,2
2.335,1,1,1,0,3,1,0,0
2.34,0,0,0,2,1,1,0,1
2.345,2,0,1,3,2,0,0,4
2.35,2,1,1,1,1,3,4,1
2.355,3,0,1,0,5,3,1,2
2.36,1,0,0,1,3,3,1,0
2.365,1,1,2,2,1,3,1,0
2.37,0,1,1,1,2,2,2,0
2.375,1,2,1,0,2,1,3,1
2.38,1,1,0,0,2,6,3,3
2.385,1,0,0,0,1,2,0,1
2.39,1,1,0,1,4,2,0,2
2.395,1,3,1,2,1,0,0,1
2.4,1,4,2,2,2,3,2,0
2.405,1,4,1,0,4,1,1,0
2.41,0,4,1,1,2,4,1,1
2.415,2,1,1,1,0,0,0,1
2.42,1,3,1,2,1,2,3,3
2.425,2,3,1,1,0,1,3,1
2.43,2,1,1,1,2,2,2,0
2.435,0,1,0,2,2,1,1,1
2.44,1,2,1,1,0,1,1,1
2.445,2,1,1,2,1,0,1,1
2.45,2,1,0,2,1,1,2,2
2.455,3,1,3,0,1,1,2,1
2.46,1,1,2,2,1,1,2,1
2.465,1,2,2,2,2,1,1,0
2.47,2,1,1,1,1,1,1,0
2.475,0,3,1,1,1,0,3,2
2.48,1,1,2,1,2,1,3,2
2.485,0,1,0,0,0,0,1,1
2.49,1,1,2,1,2,2,3,2
2.495,1,0,0,2,1,1,1,1
2.5,1,0,1,1,1,1,3,1
2.505,0,0,1,1,2,3,0,2
2.51,1,1,2,3,0,1,1,1
2.515,1,1,1,1,2,1,2,1
2.52,1,2,2,2,2,2,0,0
2.525,3,3,1,1,2,1,1,3
2.53,2,1,2,0,3,0,0,1
2.535,1,1,1,2,3,2,3,3
2.54,1,1,0,1,1,0,0,0
2.545,3,0,1,2,0,1,2,1
2.55,1,0,1,1,0,2,1,0
2.555,1,1,0,1,2,0,1,0
2.56,1,2,0,3,1,1,2,0
2.565,1,2,1,0,0,2,1,3
2.57,1,1,1,1,2,3,1,1
2.575,0,1,2,1,1,0,1,1
2.58,1,1,0,0,1,1,1,1
2.585,0,2,0,4,3,1,3,2
2.59,2,1,2,1,1,1,1,2
2.595,1,1,2,0,3,2,0,0
2.6,1,3,1,1,1,2,3,2
2.605,1,1,2,2,2,2,2,0
2.61,1,1,0,1,0,3,3,2
2.615,1,1,0,0,2,2,2,2
2.62,2,1,1,1,2,2,3,2
2.625,1,2,3,2,1,1,0,0
2.63,1,0,0,0,0,0,0,2
2.635,2,2,1,1,1,0,0,1
2.64,0,0,1,1,0,3,1,1
2.645,1,0,0,0,1,0,4,2
2.65,1,2,0,1,2,0,0,0
2.655,1,2,1,2,1,0,3,1
2.66,2,1,0,1,2,1,1,1
2.665,4,2,1,0,2,2,0,0
2.67,0,0,2,3,1,1,1,2
2.675,1,2,1,2,2,3,1,1
2.68,2,3,2,1,0,1,2,2
2.685,1,1,2,2,1,0,1,1
2.69,1,0,0,3,5,1,2,2
2.695,4,0,2,0,3,1,3,2
2.7,0,1,2,2,1,3,4,2
2.705,0,1,2,1,0,0,0,3
2.71,1,3,2,1,1,0,2,1
2.715,1,2,2,1,0,1,0,1
2.72,1,2,1,1,1,2,1,1
2.725,0,1,0,2,4,3,1,0
2.73,1,0,1,1,0,3,0,1
2.735,0,3,2,1,0,2,1,1
2.74,1,1,1,1,2,1,0,2
2.745,1,2,0,1,2,0,2,3
2.75,1,3,0,2,2,0,2,0
2.755,0,1,2,2,2,1,1,2
2.76,1,2,2,2,2,3,1,4
2.765,3,0,0,1,1,3,4,1
2.77,1,1,0,1,1,4,3,0
2.775,2,1,2,3,1,0,1,0
2.78,0,3,0,1,3,0,1,1
2.785,0,1,1,0,2,1,1,1
2.79,1,0,1,1,2,0,1,0
2.795,1,2,2,2,3,2,0,1
2.8,0,2,1,1,1,1,2,2
2.805,2,4,0,1,1,1,5,4
2.81,0,0,1,1,0,1,0,3
2.815,3,0,1,3,1,1,1,1
2.82,1,0,2,1,0,2,4,4
2.825,2,1,1,2,1,2,1,0
2.83,1,0,2,0,0,2,3,1
2.835,0,2,0,1,1,0,2,2
2.84,1,2,1,2,2,0,0,2
2.845,1,0,2,1,1,1,2,1
2.85,0,2,0,3,1,1,1,2
2.855,2,1,0,0,1,0,3,0
2.86,0,2,1,2,2,0,1,0
2.865,1,1,0,2,1,1,0,3
2.87,2,2,3,1,1,0,2,1
2.875,2,2,2,2,0,2,0,2
2.88,0,1,1,5,1,0,0,0
2.885,1,2,2,4,1,1,1,2
2.89,1,2,0,0,3,1,2,0
2.895,1,0,1,1,4,1,3,2
2.9,1,1,2,1,0,1,0,1
2.905,1,1,2,2,2,0,1,0
2.91,1,1,1,0,1,2,1,4
2.915,1,2,0,1,0,1,1,2
2.92,1,1,2,1,2,0,3,1
2.925,1,2,2,0,2,3,2,3
2.93,1,2,2,2,0,2,0,3
2.935,3,0,1,1,0,1,0,1
2.94,1,0,2,1,0,0,1,1
2.945,2,2,2,1,2,0,0,2
2.95,2,1,2,1,1,1,0,1
2.955,1,0,2,2,1,2,1,1
2.96,3,1,1,1,0,1,0,3
2.965,1,1,1,1,1,1,1,0
2.97,1,1,0,2,1,0,1,2
2.975,2,0,1,2,1,1,3,1
2.98,2,2,2,0,2,0,2,2
2.985,2,1,1,0,1,0,1,1
2.99,1,2,1,1,0,1,3,1
2.995,1,1,2,2,1,1,3,1
3,1,1,0,1,1,2,3,0
3.005,2,0,1,3,4,1,2,4
3.01,2,1,1,1,1,0,2,1
3.015,0,0,1,2,3,0,4,2
3.02,1,0,0,1,1,1,1,1
3.025,2,0,1,1,0,3,2,1
3.03,2,2,0,1,2,1,1,1
3.035,4,4,2,1,2,0,0,2
3.04,1,1,1,3,1,2,1,1
3.045,0,1,1,2,0,1,0,0
3.05,1,0,0,0,0,0,0,2
3.055,2,1,2,0,1,2,1,2
3.06,0,3,1,0,1,0,0,4
3.065,0,0,1,2,2,2,2,1
3.07,1,1,2,1,2,1,3,1
3.075,2,1,0,2,1,0,1,1
3.08,2,0,1,1,1,3,0,1
3.085,0,2,1,0,2,0,2,1
3.09,2,1,1,1,1,2,1,3
3.095,1,0,1,1,0,0,2,2
3.1,3,1,1,1,1,0,1,1
3.105,1,1,3,2,1,0,2,1
3.11,1,2,1,2,1,1,0,3
3.115,2,2,3,1,4,3,0,1
3.12,0,3,1,2,0,1,1,1
3.125,1,2,3,2,1,2,1,2
3.13,1,0,2,0,1,0,0,2
3.135,0,0,1,1,3,1,2,2
3.14,1,1,1,1,1,3,1,0
3.145,1,3,1,0,2,2,0,1
3.15,0,3,3,0,1,1,1,0
3.155,1,0,0,3,1,0,1,1
3.16,2,0,4,1,3,1,1,0
3.165,1,1,1,1,1,2,1,1
3.17,3,0,2,1,3,3,1,2
3.175,1,0,0,0,1,1,1,1
3.18,1,1,0,2,1,0,1,1
3.185,2,2,0,0,2,2,2,0
3.19,1,1,0,1,1,1,3,1
3.195,3,2,0,3,4,0,3,2
3.2,0,0,2,1,1,1,1,2
3.205,1,1,2,1,1,0,2,1
3.21,1,0,1,0,3,1,1,1
3.215,1,2,2,3,0,2,0,1
3.22,5,2,0,0,0,1,0,0
3.225,1,2,2,1,1,0,1,1
3.23,1,3,1,2,5,2,0,2
3.235,0,0,0,0,0,1,2,1
3.24,1,2,1,3,2,1,2,1
3.245,2,1,1,1,3,2,2,1
3.25,2,1,2,2,0,2,0,2
3.255,0,3,2,0,1,2,2,0
3.26,0,2,2,0,2,2,1,3
3.265,2,0,1,1,1,1,1,4
3.27,0,0,1,1,2,2,4,1
3.275,2,2,2,1,0,2,3,1
3.28,1,1,1,2,3,2,2,1
3.285,2,2,1,0,1,2,1,1
3.29,1,1,1,1,0,1,1,1
3.295,0,1,2,0,2,0,0,1
3.3,1,2,0,1,2,1,0,1
3.305,1,1,0,3,2,1,1,0
3.31,3,1,1,0,1,1,3,2
3.315,1,1,2,1,0,1,4,0
3.32,2,1,2,0,2,1,2,1
3.325,1,1,1,1,2,1,0,0
3.33,2,3,1,3,0,1,3,0
3.335,2,1,1,1,0,0,4,1
3.34,2,3,0,1,4,1,2,0
3.345,1,0,0,2,2,1,6,1
3.35,0,1,2,0,2,1,1,3
3.355,1,1,1,2,1,2,0,2
3.36,1,0,0,2,0,0,2,1
3.365,3,0,0,1,1,2,2,1
3.37,1,3,0,2,0,1,0,2
3.375,3,1,1,0,0,1,2,2
3.38,2,1,2,1,3,1,4,2
3.385,1,1,2,1,0,3,1,1
3.39,2,1,2,2,0,0,1,2
3.395,0,1,1,1,3,3,1,0
3.4,1,0,1,2,0,1,2,3
3.405,2,0,1,3,1,2,2,1
3.41,2,1,0,2,2,2,1,2
3.415,1,1,2,1,3,0,3,1
3.42,1,1,2,1,1,1,2,1
3.425,0,1,2,2,0,1,2,3
3.43,1,2,1,2,2,1,1,0
3.435,1,0,0,2,2,1,2,1
3.44,2,3,1,0,2,0,1,1
3.445,2,2,1,1,2,1,1,0
3.45,1,2,1,2,2,1,2,0
3.455,1,2,3,1,2,2,2,1
3.46,2,0,0,1,0,1,2,4
3.465,1,1,0,2,1,1,0,1
3.47,1,3,2,1,0,3,1,3
3.475,2,0,1,0,1,0,1,2
3.48,0,2,0,0,0,3,1,2
3.485,1,0,2,2,2,3,1,1
3.49,2,1,1,1,4,1,2,1
3.495,0,1,2,1,0,2,1,2
3.5,2,2,1,1,2,2,0,2
3.505,1,1,2,1,1,1,1,1
3.51,1,0,1,1,1,0,2,2
3.515,1,3,0,1,1,0,1,3
3.52,2,1,1,2,1,2,1,1
3.525,1,2,1,0,0,2,1,0
3.53,1,1,1,1,1,1,0,5
3.535,0,0,0,0,1,2,1,1
3.54,1,1,1,1,1,1,1,1
3.545,1,0,2,2,4,1,1,2
3.55,0,3,1,0,2,1,0,1
3.555,4,2,2,1,2,0,2,2
3.56,0,1,3,1,0,0,2,1
3.565,1,1,0,3,2,0,0,1
3.57,0,2,1,0,1,2,1,1
3.575,0,2,0,2,1,1,0,2
3.58,1,1,2,1,1,2,1,1
3.585,1,3,0,2,0,0,2,2
3.59,1,1,2,2,1,3,1,1
3.595,1,0,0,2,1,1,3,2
3.6,0,0,1,0,2,2,2,0
3.605,0,1,0,2,1,1,2,1
3.61,0,2,1,1,3,1,0,0
3.615,0,1,3,1,1,0,1,3
3.62,0,2,3,0,4,1,1,3
3.625,1,1,0,1,1,0,2,1
3.63,1,1,1,0,3,2,1,2
3.635,1,0,2,4,2,2,1,3
3.64,1,0,0,1,0,0,2,2
3.645,0,2,0,2,0,3,1,1
3.65,1,2,0,1,3,1,1,1
3.655,1,2,1,2,1,3,1,1
3.66,1,1,2,0,1,0,4,1
3.665,3,1,3,2,1,2,1,2
3.67,2,1,2,1,2,2,2,0
3.675,1,2,0,1,0,1,4,0
3.68,1,1,1,3,0,3,0,1
3.685,1,1,1,2,3,1,2,1
3.69,1,0,1,0,2,4,3,1
3.695,1,0,1,3,1,2,1,3
3.7,2,0,0,2,1,1,1,0
3.705,2,2,3,0,3,1,1,3
3.71,1,1,1,3,1,2,0,2
3.715,1,1,1,1,1,1,3,2
3.72,1,2,0,1,1,2,1,2
3.725,3,0,1,1,0,2,2,4
3.73,1,0,0,1,0,3,1,3
3.735,1,2,2,1,2,1,3,2
3.74,1,0,0,1,1,0,1,0
3.745,2,1,1,2,3,0,1,1
3.75,2,3,1,2,1,2,0,3
3.755,3,2,1,3,1,1,2,0
3.76,2,0,2,2,2,2,2,3
3.765,1,1,1,2,2,1,2,1
3.77,1,1,0,2,4,2,4,0
3.775,1,2,2,2,0,3,1,1
3.78,1,2,1,0,1,0,1,2
3.785,1,0,0,1,2,1,1,3
3.79,2,0,2,1,0,3,0,2
3.795,2,1,1,3,2,1,2,2
3.8,0,0,1,1,3,2,0,1
3.805,0,2,2,0,1,0,1,0
3.81,1,2,0,1,1,1,1,3
3.815,2,2,3,1,4,1,1,0
3.82,0,2,0,2,0,2,0,3
3.825,2,2,0,0,1,1,1,1
3.83,2,0,2,3,0,1,2,0
3.835,2,2,1,1,1,2,2,3
3.84,3,0,1,0,1,1,0,2
3.845,1,1,3,1,3,1,2,1
3.85,1,1,3,1,2,0,2,0
3.855,1,3,2,2,1,4,1,1
3.86,1,1,2,4,4,1,2,1
3.865,1,0,0,0,1,3,3,2
3.87,0,1,2,2,1,1,1,0
3.875,1,1,1,0,0,1,1,0
3.88,1,2,1,1,1,2,1,0
3.885,2,2,1,2,0,1,2,2
3.89,2,1,0,1,3,1,3,1
3.895,0,0,2,2,1,2,2,1
3.9,3,3,0,1,2,0,1,0
3.905,1,1,1,0,2,2,2,1
3.91,1,1,0,1,1,1,1,4
3.915,2,0,2,2,1,0,1,2
3.92,1,0,3,1,3,1,1,1
3.925,1,2,0,2,2,1,0,0
3.93,1,2,1,1,1,1,2,1
3.935,0,1,0,0,2,3,0,0
3.94,2,2,1,1,1,2,1,1
3.945,2,2,1,1,2,0,1,1
3.95,1,1,2,1,3,1,0,1
3.955,2,1,0,1,1,1,1,3
3.96,1,1,0,1,0,1,2,3
3.965,2,2,1,2,1,2,2,3
3.97,2,1,0,0,2,1,2,0
3.975,1,3,3,1,5,0,3,0
3.98,0,0,1,1,1,1,3,0
3.985,1,0,3,0,1,1,2,1
3.99,0,2,0,1,1,0,0,1
3.995,1,0,2,1,0,1,1,1
4,1,0,1,1,1,0,2,2
4.005,2,1,0,0,2,0,4,2
4.01,2,1,1,1,1,0,2,2
4.015,2,1,1,2,1,0,2,1
4.02,2,2,2,0,2,1,2,2
4.025,1,1,1,1,1,1,1,1
4.03,3,0,2,0,2,2,2,1
4.035,2,2,1,1,1,3,6,4
4.04,2,0,2,0,1,1,2,0
4.045,2,1,0,1,1,1,1,2
4.05,0,3,2,1,1,2,0,2
4.055,1,2,1,2,1,1,1,2
4.06,1,2,2,2,0,1,2,1
4.065,2,2,2,0,3,1,1,3
4.07,1,1,0,1,1,0,3,3
4.075,0,1,4,0,1,2,2,3
4.08,1,2,0,1,3,0,2,0
4.085,1,1,2,1,1,0,3,0
4.09,2,3,2,1,1,1,2,2
4.095,0,2,1,2,2,1,2,3
4.1,2,0,1,1,3,2,1,1
4.105,2,0,1,0,2,2,2,2
4.11,2,0,1,1,1,2,0,2
4.115,1,0,1,1,0,0,2,1
4.12,0,1,1,3,2,2,1,3
4.125,2,0,1,3,0,2,0,1
4.13,1,2,1,0,3,1,2,0
4.135,0,1,2,1,2,1,2,1
4.14,2,2,0,0,1,0,2,1
4.145,1,0,0,3,2,1,4,1
4.15,1,3,2,2,1,2,1,1
4.155,1,3,1,1,1,1,1,1
4.16,1,1,2,2,3,1,1,3
4.165,1,3,1,0,1,0,2,2
4.17,0,1,0,3,3,2,2,2
4.175,3,1,0,1,1,1,1,0
4.18,1,2,0,1,3,0,0,1
4.185,2,1,2,1,3,0,2,3
4.19,0,1,1,2,3,1,0,1
4.195,1,2,0,2,2,2,1,1
4.2,1,0,3,3,2,3,0,0
4.205,2,1,2,0,2,0,3,0
4.21,1,1,2,1,2,0,0,3
4.215,1,1,2,0,0,1,1,1
4.22,0,1,0,1,2,2,1,1
4.225,1,0,1,2,2,4,0,2
4.23,1,2,1,1,1,1,1,1
4.235,1,0,1,2,3,1,2,1
4.24,1,3,2,1,2,1,0,0
4.245,2,2,3,1,1,0,2,0
4.25,2,1,2,1,1,3,1,0
4.255,1,1,1,0,2,3,2,3
4.26,1,1,0,1,1,0,2,3
4.265,1,2,0,1,4,1,1,0
4.27,0,1,2,1,1,1,2,1
4.275,1,0,2,3,0,2,1,1
4.28,1,1,0,3,3,1,2,4
4.285,0,1,0,1,0,1,2,1
4.29,2,0,2,0,0,2,0,1
4.295,2,1,0,2,1,0,0,0
4.3,1,0,2,2,0,1,1,2
4.305,1,0,1,0,1,2,0,3
4.31,2,1,0,2,2,1,3,2
4.315,1,1,1,0,0,3,2,4
4.32,1,1,1,1,1,1,1,2
4.325,1,2,1,1,1,0,1,1
4.33,3,2,1,3,1,0,2,2
4.335,2,1,2,0,1,0,0,1
4.34,1,1,2,1,1,1,3,0
4.345,1,0,1,1,2,2,3,0
4.35,0,2,0,3,1,1,2,1
4.355,0,1,1,1,2,0,0,1
4.36,2,2,1,0,1,2,1,1
4.365,1,1,2,1,4,1,4,1
4.37,1,2,1,1,0,1,0,0
4.375,1,1,0,0,0,1,2,1
4.38,1,2,2,2,1,2,0,2
4.385,1,2,0,1,1,0,2,4
4.39,2,0,1,1,3,1,2,4
4.395,1,0,1,1,1,1,2,0
4.4,1,4,0,1,1,1,1,2
4.405,1,1,2,1,0,0,0,3
4.41,1,2,2,2,3,0,1,1
4.415,1,0,2,1,2,0,4,1
4.42,1,1,1,1,2,1,3,2
4.425,2,1,2,4,3,1,2,1
4.43,1,2,2,0,1,0,0,2
4.435,3,0,3,3,1,1,1,0
4.44,1,3,1,1,1,1,0,1
4.445,0,2,0,1,1,1,1,2
4.45,1,1,2,4,1,2,1,1
4.455,0,2,0,2,2,1,1,1
4.46,0,1,0,2,2,1,0,2
4.465,2,0,1,2,1,1,0,1
4.47,0,2,1,1,1,1,2,1
4.475,1,1,1,2,1,1,2,4
4.48,2,0,1,3,0,0,2,1
4.485,0,3,3,1,2,1,0,2
4.49,1,1,0,1,1,3,1,1
4.495,1,2,1,2,0,0,2,1
4.5,1,1,1,1,1,0,2,1
4.505,1,2,1,2,3,1,2,2
4.51,1,1,2,0,3,1,1,0
4.515,1,1,1,1,1,1,1,1
4.52,2,0,0,1,2,2,2,1
4.525,0,2,1,1,0,3,1,3
4.53,1,1,1,0,1,4,2,3
4.535,1,2,1,0,0,0,1,1
4.54,3,1,2,0,2,2,1,0
4.545,1,0,2,2,2,1,4,1
4.55,1,1,1,1,0,0,2,1
4.555,1,3,1,1,1,1,0,3
4.56,0,1,1,0,1,1,1,1
4.565,2,0,3,0,2,1,1,1
4.57,1,0,1,1,3,2,1,4
4.575,0,0,1,1,5,1,0,2
4.58,1,0,3,3,2,0,1,3
4.585,2,1,2,0,3,1,2,1
4.59,1,3,0,0,1,1,1,1
4.595,0,0,0,1,1,1,0,1
4.6,2,2,0,2,2,2,1,3
4.605,1,0,1,2,1,1,2,1
4.61,2,2,1,0,2,1,2,1
4.615,2,3,4,1,4,3,1,2
4.62,1,2,0,1,2,0,1,1
4.625,1,1,1,1,0,1,1,2
4.63,3,1,0,3,3,2,1,0
4.635,2,1,2,3,1,2,2,0
4.64,1,0,2,2,0,1,2,2
4.645,0,0,1,1,1,1,1,2
4.65,1,2,0,1,0,2,0,0
4.655,1,1,1,2,1,1,1,3
4.66,1,3,1,0,2,2,0,1
4.665,1,1,2,2,2,0,1,0
4.67,1,1,0,1,1,5,0,1
4.675,1,1,0,1,1,0,3,3
4.68,1,1,2,0,1,2,1,5
4.685,1,2,1,1,0,0,2,0
4.69,0,1,0,1,2,2,1,4
4.695,2,0,1,0,1,1,1,1
4.7,0,1,0,3,3,1,3,0
4.705,0,2,2,1,2,1,2,2
4.71,2,0,2,2,2,0,3,1
4.715,2,1,0,1,0,1,1,1
4.72,2,2,2,0,1,1,3,2
4.725,1,0,1,0,2,1,1,3
4.73,2,1,0,3,1,2,3,1
4.735,0,0,1,2,2,4,1,1
4.74,0,1,2,0,1,2,1,2
4.745,2,1,2,3,1,1,1,1
4.75,1,0,1,1,1,3,0,3
4.755,0,2,2,1,2,0,2,2
4.76,2,1,0,1,2,2,1,1
4.765,1,0,0,1,2,1,4,1
4.77,1,2,0,2,3,0,1,2
4.775,2,1,2,1,1,1,2,3
4.78,0,2,1,0,0,1,0,1
4.785,1,2,1,0,2,1,0,2
4.79,1,0,3,2,2,0,2,1
4.795,0,1,1,3,2,3,2,0
4.8,0,0,0,1,0,1,3,0
4.805,0,1,2,3,2,2,2,1
4.81,0,0,1,1,2,1,1,1
4.815,2,1,2,1,0,2,2,4
4.82,2,1,0,0,2,1,0,1
4.825,3,0,1,2,0,2,1,2
4.83,2,0,1,0,1,1,1,0
4.835,0,2,2,0,1,2,2,1
4.84,2,0,1,2,2,1,0,3
4.845,1,2,1,2,0,0,1,1
4.85,0,2,1,1,0,1,2,3
4.855,1,2,1,0,1,1,1,2
4.86,1,3,1,0,1,1,2,1
4.865,0,1,2,2,3,1,1,2
4.87,1,0,1,2,1,0,1,0
4.875,2,1,2,3,1,2,2,3
4.88,0,1,1,2,2,1,0,3
4.885,0,1,1,0,2,2,1,1
4.89,1,1,1,0,0,2,1,1
4.895,1,2,0,0,0,3,2,2
4.9,2,2,1,3,3,2,2,0
4.905,2,0,1,2,2,0,2,1
4.91,2,0,2,1,1,1,4,1
4.915,3,2,0,1,3,1,1,0
4.92,2,1,1,2,0,2,2,1
4.925,3,2,1,0,1,1,2,1
4.93,1,0,1,1,1,3,4,1
4.935,0,1,2,2,1,1,1,2
4.94,2,1,1,2,0,2,1,2
4.945,1,0,1,1,3,1,2,4
4.95,0,2,0,1,2,0,1,2
4.955,2,0,0,0,2,4,1,2
4.96,1,0,1,1,4,1,2,2
4.965,0,1,1,1,1,3,3,3
4.97,2,1,1,0,1,1,1,2
4.975,2,1,3,1,0,1,1,0
4.98,2,2,1,2,3,3,1,1
4.985,3,0,1,1,0,1,1,1
4.99,2,1,2,2,3,2,1,3
4.995,0,1,0,1,2,1,2,2
5,1,0,0,2,1,0,1,3
5.005,0,2,1,1,0,2,4,2
5.01,2,0,0,4,4,1,1,2
5.015,1,1,2,0,2,1,1,1
5.02,1,1,1,2,1,0,2,2
5.025,1,3,2,1,1,2,0,2
5.03,2,2,3,0,1,1,1,1
5.035,0,0,1,1,1,2,1,2
5.04,1,2,1,1,0,2,1,3
5.045,2,1,1,1,3,0,1,1
5.05,2,1,0,0,1,4,2,0
5.055,2,3,1,1,2,1,2,1
5.06,1,0,1,1,0,1,4,2
5.065,0,0,0,1,2,1,1,0
5.07,2,2,0,0,1,3,2,0
5.075,0,1,1,0,2,2,3,2
5.08,1,2,1,1,2,1,1,0
5.085,2,1,2,1,1,3,1,1
5.09,1,2,1,0,1,1,2,1
5.095,1,2,1,1,1,1,1,1
5.1,1,1,2,2,0,1,3,3
5.105,1,1,0,2,0,0,0,2
5.11,0,2,2,2,2,1,2,1
5.115,1,1,1,0,3,2,4,0
5.12,1,2,2,0,3,2,2,3
5.125,0,1,2,0,1,1,2,3
5.13,1,0,1,1,1,1,1,1
5.135,3,1,2,1,1,1,0,1
5.14,1,1,0,2,1,1,0,2
5.145,1,1,0,3,0,1,0,2
5.15,1,1,1,2,3,2,0,1
5.155,1,0,1,0,1,1,3,2
5.16,2,2,1,0,1,2,0,1
5.165,0,3,1,1,2,2,2,0
5.17,0,1,1,2,1,3,2,1
5.175,0,2,1,1,0,1,2,3
5.18,1,0,1,1,2,0,3,1
5.185,1,1,0,0,2,0,3,2
5.19,0,2,1,1,1,1,1,1
5.195,2,0,1,1,2,0,0,1
5.2,0,1,0,2,2,2,3,2
5.205,1,3,1,3,1,1,1,1
5.21,0,0,1,2,1,3,1,1
5.215,2,1,1,2,0,1,3,0
5.22,2,1,1,0,0,1,2,2
5.225,2,1,2,1,2,2,2,1
5.23,0,0,2,2,0,0,1,2
5.235,0,3,2,2,1,2,1,1
5.24,0,1,3,0,1,1,2,1
5.245,0,1,1,1,0,1,1,2
5.25,2,1,1,0,0,0,1,1
5.255,0,2,0,1,0,3,1,0
5.26,1,2,1,2,2,2,1,1
5.265,1,1,1,1,0,2,3,0
5.27,1,0,2,2,2,2,3,2
5.275,1,1,2,0,1,1,0,0
5.28,1,1,0,2,0,1,2,2
5.285,0,2,2,0,1,1,2,2
5.29,2,0,1,1,2,1,1,0
5.295,1,0,0,1,0,1,4,2
5.3,1,1,1,1,3,1,0,2
5.305,2,1,2,2,3,2,2,1
5.31,0,1,0,2,0,0,3,2
5.315,1,2,1,0,1,1,0,0
5.32,2,0,0,1,1,2,3,0
5.325,1,1,1,1,3,2,0,3
5.33,1,1,2,4,0,3,2,2
5.335,0,0,0,1,2,0,2,2
5.34,1,0,1,1,1,1,1,1
5.345,0,1,1,2,3,1,2,0
5.35,0,3,2,2,2,0,1,2
5.355,1,1,0,1,4,1,1,2
5.36,1,2,2,1,0,0,0,0
5.365,1,1,0,0,0,1,3,2
5.37,2,2,0,1,1,0,1,0
5.375,1,2,2,0,1,1,0,0
5.38,2,2,0,1,2,1,2,1
5.385,1,1,0,2,0,1,1,2
5.39,1,0,0,1,2,2,2,2
5.395,2,3,2,2,2,1,4,2
5.4,1,1,0,0,0,0,1,1
5.405,0,2,2,1,0,0,0,1
5.41,1,1,1,2,3,4,2,1
5.415,1,1,0,2,0,1,2,1
5.42,1,1,1,2,0,0,1,0
5.425,0,1,1,2,1,1,1,1
5.43,1,0,1,1,2,1,0,0
5.435,1,0,1,1,2,1,0,0
5.44,1,1,0,2,1,1,2,3
5.445,1,0,3,1,2,2,1,1
5.45,2,4,2,1,0,1,1,0
5.455,2,1,0,1,0,2,3,1
5.46,3,2,2,1,3,1,1,0
5.465,2,0,2,1,1,1,3,1
5.47,1,2,2,0,2,2,1,2
5.475,1,1,2,2,2,1,4,0
5.48,0,1,1,0,1,2,2,3
5.485,2,0,1,3,1,0,1,1
5.49,3,1,0,0,2,2,2,2
5.495,2,1,1,1,0,4,3,1
5.5,1,0,0,0,2,2,1,1
5.505,0,0,2,2,3,2,0,1
5.51,0,3,1,1,2,1,2,1
5.515,1,1,0,0,2,1,2,3
5.52,2,1,3,0,2,0,2,1
5.525,1,1,1,0,3,1,3,1
5.53,0,1,0,2,3,4,0,1
5.535,2,1,3,0,0,3,0,1
5.54,1,1,1,1,1,2,2,2
5.545,2,1,0,2,2,3,4,2
5.55,2,2,1,1,1,1,1,1
5.555,1,2,0,1,2,0,1,0
5.56,0,1,0,0,1,1,2,1
5.565,2,0,1,1,3,1,0,2
5.57,1,0,3,1,1,1,3,2
5.575,1,1,1,2,0,0,0,0
5.58,2,1,1,1,1,0,0,1
5.585,1,2,0,0,4,2,2,1
5.59,0,0,0,0,3,1,1,1
5.595,1,1,1,1,3,0,1,0
5.6,0,0,0,2,1,0,0,0
5.605,0,3,1,1,0,0,1,2
5.61,0,1,0,0,0,0,1,1
5.615,2,0,1,0,1,0,2,1
5.62,0,0,2,0,2,1,3,2
5.625,1,0,0,2,4,0,0,1
5.63,1,3,1,2,0,2,0,1
5.635,1,1,0,1,0,1,0,4
5.64,1,1,0,2,0,0,5,1
5.645,0,1,3,1,1,1,2,2
5.65,1,1,1,1,1,1,3,2
5.655,1,1,2,0,1,3,2,0
5.66,1,1,2,1,1,0,2,2
5.665,2,1,0,1,1,2,0,1
5.67,1,1,1,0,0,0,3,3
5.675,1,2,2,2,1,2,1,3
5.68,3,1,0,0,3,2,1,0
5.685,1,2,2,0,3,1,2,3
5.69,2,1,1,0,1,1,2,4
5.695,2,0,1,1,0,1,1,3
5.7,0,3,2,0,1,0,1,0
5.705,1,0,0,0,1,2,1,1
5.71,3,0,1,2,4,0,1,3
5.715,1,0,1,1,2,1,2,3
5.72,0,0,1,1,2,2,0,2
5.725,1,1,1,3,2,2,4,0
5.73,2,1,3,2,1,3,1,1
5.735,2,2,1,2,2,1,2,0
5.74,0,1,3,2,0,1,1,3
5.745,0,2,2,2,1,1,1,1
5.75,0,1,0,1,0,3,1,3
5.755,2,1,0,3,5,0,1,1
5.76,2,1,1,1,3,2,1,2
5.765,1,2,1,0,0,1,1,2
5.77,0,1,0,4,2,1,3,2
5.775,1,2,1,0,1,0,1,1
5.78,1,0,1,2,0,0,3,0
5.785,3,0,2,1,0,4,1,1
5.79,0,2,3,1,1,0,1,1
5.795,2,1,2,1,0,2,1,2
5.8,1,2,1,1,1,4,0,2
5.805,0,1,0,2,1,3,1,2
5.81,2,1,0,1,2,2,2,1
5.815,1,1,1,1,2,1,2,1
5.82,1,2,1,0,3,1,3,0
5.825,0,1,0,2,2,0,1,3
5.83,2,0,1,3,1,1,2,2
5.835,0,1,2,0,2,0,1,2
5.84,2,1,1,0,1,1,1,1
5.845,1,1,2,0,1,0,4,0
5.85,0,2,2,1,1,0,2,1
5.855,1,2,2,3,2,3,0,4
5.86,1,2,1,2,0,1,2,2
5.865,1,2,2,2,2,1,1,0
5.87,1,2,1,0,0,1,1,0
5.875,1,3,1,0,0,1,4,0
5.88,0,1,0,1,1,2,2,3
5.885,2,2,0,1,0,0,3,0
5.89,1,0,2,4,1,0,1,0
5.895,0,0,1,1,2,0,2,2
5.9,1,1,1,2,1,0,0,2
5.905,1,2,1,1,0,1,1,1
5.91,1,0,1,0,1,1,2,1
5.915,1,2,0,3,1,0,2,2
5.92,2,2,1,0,4,0,1,1
5.925,1,1,2,1,1,1,3,1
5.93,1,0,0,0,3,3,2,1
5.935,2,1,0,1,1,1,0,0
5.94,1,1,3,2,0,1,1,0
5.945,1,1,1,1,1,1,2,1
5.95,2,3,1,3,3,1,3,2
5.955,0,1,1,1,1,1,4,1
5.96,1,1,1,2,1,1,0,2
5.965,0,3,1,2,0,0,1,3
5.97,1,0,1,2,0,1,2,4
5.975,2,0,2,0,2,3,2,0
5.98,1,2,0,1,2,0,2,2
5.985,2,1,0,1,1,0,3,1
5.99,1,1,1,0,0,0,1,1
5.995,3,2,2,1,2,0,0,2
6,2,0,1,1,1,2,2,1
6.005,2,2,1,2,2,3,2,1
6.01,1,1,0,1,2,1,0,1
6.015,1,1,0,2,1,0,1,0
6.02,3,1,1,3,0,2,2,0
6.025,1,2,1,1,4,1,2,3
6.03,2,2,1,1,0,2,1,2
6.035,0,0,1,1,2,0,4,1
6.04,2,1,1,1,1,2,2,1
6.045,1,0,1,0,4,3,0,1
6.05,1,0,1,1,1,2,0,3
6.055,1,1,1,2,3,1,1,2
6.06,2,2,1,3,2,2,3,1
6.065,2,0,1,2,1,1,1,0
6.07,1,2,1,1,1,1,3,1
6.075,0,1,2,0,2,2,1,0
6.08,0,2,1,1,0,1,1,0
6.085,2,2,2,1,0,0,3,2
6.09,4,2,1,0,2,3,2,2
6.095,0,1,0,2,2,1,0,3
6.1,0,0,1,2,0,2,1,1
6.105,1,0,0,1,1,2,2,1
6.11,1,1,1,1,1,0,0,1
6.115,4,0,0,1,2,2,2,0
6.12,0,1,0,0,1,1,1,2
6.125,1,0,2,2,0,2,1,2
6.13,2,0,3,2,2,2,1,0
6.135,0,3,1,2,5,0,1,3
6.14,1,0,3,1,2,1,3,1
6.145,1,2,1,1,1,1,0,1
6.15,1,1,2,0,1,1,2,3
6.155,1,1,0,1,1,1,1,0
6.16,1,1,1,3,2,1,3,1
6.165,1,1,0,1,2,2,0,2
6.17,0,2,2,0,1,0,0,0
6.175,1,2,0,1,0,0,2,1
6.18,1,1,0,0,1,3,1,1
6.185,1,2,1,2,2,1,2,2
6.19,1,1,1,3,3,2,2,3
6.195,1,0,2,1,0,1,3,1
6.2,2,0,1,1,0,1,0,0
6.205,1,2,1,0,2,1,1,2
6.21,0,1,2,2,1,2,4,2
6.215,1,2,1,0,1,2,1,2
6.22,1,0,2,2,3,1,2,0
6.225,2,1,1,1,1,0,1,1
6.23,2,4,0,2,0,0,2,2
6.235,1,2,0,2,1,1,2,3
6.24,3,3,0,2,2,0,1,1
6.245,1,0,2,1,0,0,3,1
6.25,0,0,0,2,3,2,1,1
6.255,1,0,2,1,1,0,1,0
6.26,2,0,2,2,1,0,2,2
6.265,1,0,3,3,1,1,1,4
6.27,2,1,3,0,1,1,1,1
6.275,2,2,1,1,3,2,2,0
6.28,1,1,0,2,3,1,2,1
6.285,1,1,1,0,1,0,1,0
6.29,1,0,0,0,1,3,2,0
6.295,1,1,1,1,1,1,3,1
6.3,0,3,2,3,1,3,3,0
6.305,0,0,2,1,2,1,3,2
6.31,0,1,1,1,2,2,1,1
6.315,1,2,2,2,2,1,2,2
6.32,1,1,2,1,1,2,3,2
6.325,2,1,0,1,1,1,1,1
6.33,1,1,1,1,3,1,2,3
6.335,1,1,0,2,1,4,1,1
6.34,1,1,0,1,0,0,0,0
6.345,1,1,1,1,3,2,1,0
6.35,1,2,1,1,2,4,3,2
6.355,0,0,1,2,0,0,2,0
6.36,0,1,0,1,2,1,1,3
6.365,2,0,1,0,4,1,0,0
6.37,2,0,1,2,0,0,0,2
6.375,1,0,1,2,3,1,2,2
6.38,2,1,2,0,1,4,2,2
6.385,0,1,1,2,0,0,3,0
6.39,1,1,1,2,1,1,0,0
6.395,1,1,1,0,1,1,1,2
6.4,1,0,1,1,2,0,0,3
6.405,1,0,0,0,1,0,2,2
6.41,0,1,1,1,1,2,0,2
6.415,0,3,1,1,0,2,2,1
6.42,1,2,0,1,2,2,0,2
6.425,2,2,2,0,3,2,2,3
6.43,0,0,1,1,2,1,1,1
6.435,3,2,2,3,1,1,0,1
6.44,1,1,1,1,2,2,2,1
6.445,2,1,3,3,0,1,1,4
6.45,2,2,0,1,1,1,1,1
6.455,1,0,1,2,2,3,2,0
6.46,1,0,0,2,1,0,1,0
6.465,1,0,1,2,0,1,2,1
6.47,3,2,2,1,2,0,3,0
6.475,3,1,1,4,2,3,1,1
6.48,0,2,2,1,1,2,0,1
6.485,1,1,1,1,0,0,0,0
6.49,0,0,0,1,1,1,2,0
6.495,0,1,2,1,3,0,1,0
6.5,1,1,1,3,2,3,2,1
6.505,0,1,1,0,2,2,0,1
6.51,0,3,2,2,0,1,1,1
6.515,0,0,1,0,1,2,2,2
6.52,0,2,1,0,0,0,0,1
6.525,1,2,0,0,4,1,2,1
6.53,0,0,0,0,2,1,1,0
6.535,1,2,1,0,1,3,0,1
6.54,1,0,0,1,0,1,2,1
6.545,0,1,0,0,1,1,0,3
6.55,2,1,2,1,3,0,2,3
6.555,2,4,2,1,0,1,1,1
6.56,1,0,0,0,1,0,1,0
6.565,2,3,1,0,1,2,2,3
6.57,1,0,1,0,0,2,0,4
6.575,2,1,2,0,3,2,1,0
6.58,0,2,1,0,1,3,0,0
6.585,1,1,0,2,2,2,3,0
6.59,1,0,2,2,0,2,2,0
6.595,2,0,1,3,2,1,0,1
6.6,1,1,0,2,3,2,3,1
6.605,1,1,0,2,1,2,1,1
6.61,2,2,1,2,0,1,1,1
6.615,0,1,1,1,2,1,2,4
6.62,0,0,2,0,4,0,3,3
6.625,1,2,2,2,0,1,0,1
6.63,2,1,0,0,2,1,2,2
6.635,0,1,2,0,0,0,3,1
6.64,0,2,2,2,3,2,1,3
6.645,1,0,1,1,1,2,2,0
6.65,2,1,3,1,2,5,1,1
6.655,1,1,1,1,3,1,1,3
6.66,1,1,2,1,1,1,1,1
6.665,3,1,1,0,1,1,3,2
6.67,1,1,0,0,0,0,1,0
6.675,0,0,0,1,1,1,4,4
6.68,1,1,2,1,3,0,2,1
6.685,1,1,1,2,2,1,1,3
6.69,2,2,1,2,0,0,3,2
6.695,3,1,1,1,1,1,1,1
6.7,1,2,0,0,0,0,3,1
6.705,0,2,1,0,2,0,3,1
6.71,1,0,0,3,2,1,1,2
6.715,1,1,1,0,1,0,0,0
6.72,3,0,0,0,0,1,2,6
6.725,2,1,2,2,1,3,1,1
6.73,2,1,1,0,0,3,2,1
6.735,2,2,1,3,1,1,1,0
6.74,1,0,1,4,1,0,1,1
6.745,2,2,1,2,3,1,1,0
6.75,0,2,0,1,1,2,4,2
6.755,0,2,1,2,3,1,2,0
6.76,0,1,1,0,3,2,3,1
6.765,1,1,1,1,0,2,1,0
6.77,1,1,1,2,1,1,0,2
6.775,1,1,1,1,0,2,2,0
6.78,1,2,0,3,0,1,1,1
6.785,1,0,3,1,2,1,0,1
6.79,1,1,1,1,0,2,0,2
6.795,1,1,1,1,2,2,1,1
6.8,2,1,1,0,0,1,2,1
6.805,1,0,1,2,3,1,5,0
6.81,1,1,3,2,0,0,2,1
6.815,1,0,0,1,2,1,4,0
6.82,3,1,2,1,3,2,1,1
6.825,1,0,1,2,3,2,2,1
6.83,1,1,1,1,2,0,1,1
6.835,2,1,2,2,0,1,1,1
6.84,1,2,0,1,3,1,1,1
6.845,1,1,1,2,0,1,2,1
6.85,1,2,2,2,1,0,0,1
6.855,1,1,1,0,3,3,0,2
6.86,0,1,2,2,0,3,2,1
6.865,1,1,1,1,0,4,1,2
6.87,2,1,2,1,1,1,2,1
6.875,1,2,0,2,2,1,3,3
6.88,1,2,1,2,1,3,1,0
6.885,1,1,0,2,2,1,1,0
6.89,0,2,2,0,2,0,2,3
6.895,1,2,2,0,0,0,2,1
6.9,0,0,2,3,2,1,3,1
6.905,1,0,2,0,1,0,1,2
6.91,2,0,2,1,1,2,0,4
6.915,1,1,1,1,1,1,2,0
6.92,2,1,2,2,2,1,1,1
6.925,2,1,0,1,0,1,0,1
6.93,1,2,0,0,2,1,2,0
6.935,1,1,0,2,0,3,1,1
6.94,0,1,1,0,1,1,1,1
6.945,0,3,1,3,0,1,2,0
6.95,1,1,1,1,1,1,0,0
6.955,1,1,2,2,0,1,2,0
6.96,3,0,1,0,1,0,1,1
6.965,1,0,1,1,1,4,1,3
6.97,2,0,2,2,2,1,2,2
6.975,0,2,0,2,1,0,2,4
6.98,0,2,1,1,3,2,3,3
6.985,0,2,0,3,1,1,2,0
6.99,3,1,1,0,1,1,3,2
6.995,2,1,1,0,0,1,0,0
7,1,2,1,1,1,0,2,2
7.005,1,0,1,1,0,1,1,0
7.01,1,3,0,1,3,1,1,2
7.015,2,2,1,1,1,3,1,0
7.02,2,1,1,1,3,2,1,1
7.025,2,1,2,1,0,2,2,0
7.03,1,1,2,1,1,1,2,1
7.035,0,0,0,1,1,1,0,0
7.04,0,1,1,2,1,1,3,1
7.045,1,1,0,1,1,1,4,1
7.05,0,1,2,1,1,2,1,3
7.055,2,1,0,3,2,2,3,1
7.06,1,0,4,0,2,1,1,1
7.065,1,2,0,1,1,3,0,2
7.07,1,1,1,1,2,3,1,1
7.075,2,0,2,2,0,2,1,0
7.08,1,2,0,2,1,1,2,0
7.085,1,1,4,1,2,1,1,2
7.09,1,0,2,1,0,0,2,0
7.095,0,0,0,1,3,2,3,4
7.1,3,1,1,1,1,0,2,1
7.105,2,2,1,0,3,2,0,3
7.11,1,1,1,0,1,1,2,1
7.115,2,0,2,1,1,1,2,2
7.12,1,3,1,2,1,0,1,3
7.125,0,1,1,1,3,2,0,2
7.13,2,0,0,2,5,1,2,1
7.135,0,1,1,1,0,0,2,3
7.14,2,1,0,1,1,2,0,1
7.145,2,2,2,1,3,2,1,0
7.15,2,1,1,0,1,1,1,2
7.155,2,1,0,1,1,3,3,1
7.16,2,2,2,2,1,0,0,1
7.165,1,1,2,2,1,2,2,2
7.17,0,0,2,1,1,1,0,2
7.175,1,3,0,0,0,2,0,3
7.18,2,1,1,1,2,1,3,0
7.185,2,2,0,2,1,2,2,1
7.19,3,3,1,2,1,0,4,1
7.195,1,0,0,1,0,2,2,1
7.2,2,3,2,2,1,1,0,4
7.205,1,2,0,1,1,1,2,1
7.21,3,0,1,2,0,0,1,2
7.215,2,0,1,2,1,0,0,2
7.22,0,1,2,0,2,2,2,1
7.225,3,1,1,1,0,1,0,1
7.23,1,1,1,2,1,2,1,3
7.235,1,2,0,1,2,2,2,0
7.24,1,1,1,0,2,1,2,2
7.245,1,1,2,2,0,1,2,3
7.25,0,1,1,0,1,1,2,2
7.255,2,3,2,1,2,2,1,0
7.26,2,2,1,0,0,1,2,1
7.265,0,2,3,1,1,0,0,1
7.27,1,3,0,1,2,0,2,2
7.275,1,1,1,2,1,1,0,1
7.28,1,0,2,3,1,3,2,1
7.285,1,3,0,0,1,1,0,3
7.29,2,2,3,0,3,0,0,1
7.295,1,1,1,2,1,1,3,0
7.3,1,1,0,0,2,0,3,0
7.305,2,1,1,1,3,0,2,0
7.31,1,1,1,0,1,1,3,2
7.315,1,2,1,1,2,3,1,2
7.32,1,2,2,2,1,3,1,0
7.325,0,0,0,1,1,0,0,0
7.33,1,0,1,1,1,5,1,3
7.335,3,1,3,1,2,0,1,1
7.34,0,0,1,0,0,1,2,3
7.345,1,3,0,1,3,2,0,1
7.35,0,1,1,1,2,1,1,2
7.355,1,2,1,2,0,0,1,0
7.36,2,3,1,0,2,0,1,1
7.365,3,0,0,0,3,0,2,0
7.37,2,2,1,2,1,1,1,0
7.375,2,1,2,1,1,2,1,0
7.38,0,4,0,2,1,3,1,2
7.385,1,0,2,2,2,1,1,2
7.39,2,1,1,4,0,0,2,2
7.395,0,0,2,1,1,1,2,2
7.4,2,0,0,1,1,0,2,2
7.405,1,0,1,1,0,1,2,0
7.41,1,1,2,1,1,2,0,2
7.415,1,0,1,1,2,1,2,2
7.42,1,0,1,1,1,2,0,4
7.425,1,2,2,0,2,1,3,0
7.43,2,1,2,0,1,1,2,1
7.435,2,1,1,1,1,2,3,2
7.44,1,0,1,3,2,1,1,2
7.445,0,2,0,1,0,1,1,3
7.45,1,1,1,2,3,2,0,1
7.455,2,0,2,1,1,0,0,0
7.46,1,2,0,0,1,1,1,1
7.465,3,1,0,1,1,0,5,2
7.47,1,1,1,2,1,1,2,1
7.475,0,0,1,1,2,4,2,0
7.48,1,1,0,0,1,0,1,2
7.485,1,0,0,1,1,2,2,1
7.49,3,1,0,1,1,1,3,0
7.495,0,1,1,2,1,0,2,3
7.5,1,1,1,0,1,1,2,2
7.505,0,1,1,1,1,3,1,2
7.51,0,2,2,1,2,0,2,2
7.515,0,2,2,0,1,2,1,2
7.52,1,1,0,2,3,2,2,0
7.525,2,1,0,1,0,1,1,0
7.53,2,1,3,2,3,3,1,0
7.535,1,0,0,1,2,2,4,1
7.54,1,2,1,2,0,2,1,0
7.545,1,1,2,0,2,1,2,0
7.55,2,2,0,0,3,0,2,2
7.555,1,2,0,1,1,2,1,1
7.56,1,0,1,2,2,1,2,0
7.565,0,3,2,2,2,2,2,3
7.57,2,1,0,1,1,0,1,1
7.575,2,1,1,0,1,0,1,0
7.58,2,1,2,2,1,2,1,1
7.585,0,0,0,0,1,0,0,2
7.59,1,2,1,3,2,0,1,2
7.595,1,3,1,0,2,1,0,3
7.6,2,2,1,1,1,1,0,1
7.605,1,2,0,1,3,0,1,2
7.61,1,2,0,1,2,1,1,2
7.615,3,2,3,0,3,1,2,2
7.62,2,3,2,1,2,3,1,1
7.625,1,0,1,2,1,1,2,1
7.63,2,0,2,1,0,0,2,2
7.635,0,2,2,2,1,1,2,2
7.64,0,2,2,0,0,1,1,1
7.645,1,1,1,1,2,0,0,2
7.65,0,0,0,3,1,3,0,1
7.655,2,1,1,2,0,1,1,3
7.66,2,1,0,2,2,1,4,2
7.665,3,2,1,1,1,1,0,0
7.67,1,3,2,1,0,2,0,0
7.675,1,1,1,1,2,1,2,2
7.68,0,0,0,1,0,3,0,2
7.685,1,0,0,2,1,1,0,2
7.69,2,1,1,3,1,1,0,2
7.695,3,1,2,1,0,2,0,1
7.7,0,3,1,1,3,1,0,0
7.705,0,1,1,1,3,2,0,2
7.71,1,1,1,1,1,1,3,3
7.715,1,0,0,2,2,1,3,1
7.72,2,1,1,2,2,0,1,1
7.725,0,0,0,2,3,2,1,1
7.73,0,2,2,0,2,1,1,0
7.735,0,2,3,0,2,2,1,3
7.74,1,2,3,2,0,2,1,1
7.745,0,1,1,1,1,2,2,2
7.75,1,2,2,0,0,1,2,1
7.755,1,2,0,3,1,0,1,1
7.76,2,0,1,2,3,1,0,1
7.765,2,2,1,1,1,0,2,0
7.77,1,1,2,2,1,3,0,3
7.775,2,1,2,0,1,0,1,2
7.78,1,0,1,2,0,0,2,0
7.785,1,2,2,3,3,2,2,1
7.79,0,0,0,1,3,0,1,1
7.795,1,1,2,0,3,1,2,2
7.8,2,0,1,0,2,1,2,3
7.805,2,1,2,0,0,0,3,2
7.81,2,1,0,0,0,2,2,2
7.815,0,1,1,1,1,1,3,2
7.82,1,1,0,0,2,2,3,1
7.825,0,1,0,3,2,3,2,1
7.83,1,1,2,1,0,0,2,1
7.835,0,1,0,0,1,2,2,2
7.84,1,2,1,1,1,1,2,2
7.845,2,1,1,1,0,1,1,1
7.85,1,0,0,1,2,2,1,1
7.855,1,0,2,1,1,0,2,2
7.86,2,1,1,0,3,1,1,2
7.865,2,2,2,1,0,3,0,0
7.87,0,1,1,0,1,0,0,3
7.875,2,0,1,1,0,1,1,0
7.88,1,1,1,1,2,1,2,1
7.885,1,2,2,3,0,1,2,0
7.89,1,2,2,0,2,2,3,0
7.895,0,3,0,1,0,2,1,0
7.9,1,0,0,3,1,1,0,2
7.905,1,1,1,0,1,0,3,1
7.91,1,2,0,0,2,1,0,2
7.915,0,1,1,0,1,0,3,0
7.92,1,4,2,2,2,2,1,4
7.925,2,0,0,1,1,1,0,3
7.93,1,1,1,1,1,1,1,0
7.935,2,0,1,1,2,1,2,2
7.94,1,2,1,0,0,1,1,3
7.945,1,1,2,0,2,1,3,1
7.95,0,1,1,2,2,2,1,2
7.955,0,1,0,2,1,2,2,2
7.96,1,1,1,3,2,1,2,2
7.965,2,1,2,3,1,1,0,2
7.97,3,3,1,0,2,2,1,1
7.975,0,0,0,2,3,0,1,1
7.98,0,2,1,0,1,2,1,0
7.985,0,1,1,1,2,2,1,0
7.99,0,1,3,1,0,1,4,1
7.995,3,2,1,1,1,2,1,0
8,1,2,0,0,2,1,2,1
8.005,2,2,2,1,1,1,1,5
8.01,0,3,0,3,1,2,0,0
8.015,1,1,1,2,2,3,1,1
8.02,1,1,1,1,0,1,0,1
8.025,1,2,0,2,0,1,0,1
8.03,2,0,2,3,2,0,0,3
8.035,2,1,0,1,2,1,2,1
8.04,0,1,2,1,3,3,1,0
8.045,2,2,2,1,0,1,0,2
8.05,1,2,0,1,0,1,2,2
8.055,0,3,0,0,5,1,1,0
8.06,0,0,1,2,0,1,2,1
8.065,1,2,2,3,2,1,0,2
8.07,1,0,1,0,1,0,0,1
8.075,1,1,1,1,3,1,1,2
8.08,1,0,2,2,0,1,3,0
8.085,0,0,1,1,1,0,1,3
8.09,2,0,2,0,2,2,1,2
8.095,1,2,1,1,1,0,2,2
8.1,2,0,3,2,1,1,1,3
8.105,1,0,2,2,0,3,1,1
8.11,1,0,0,1,1,0,3,0
8.115,1,1,0,1,3,1,1,0
8.12,1,2,1,0,2,1,2,0
8.125,2,2,1,2,0,1,1,0
8.13,1,2,1,2,0,1,0,4
8.135,1,1,1,1,1,1,1,1
8.14,1,1,1,2,1,1,4,0
8.145,0,1,1,0,4,0,2,2
8.15,0,1,2,3,0,2,1,1
8.155,1,0,1,1,2,1,0,4
8.16,2,0,2,1,2,2,1,2
8.165,1,1,1,1,1,2,0,4
8.17,1,2,0,2,0,0,2,1
8.175,2,1,2,1,0,1,2,1
8.18,1,2,0,2,0,0,3,1
8.185,1,1,0,0,2,1,1,2
8.19,1,1,1,0,5,0,2,1
8.195,1,1,0,1,1,2,0,4
8.2,2,2,1,1,2,3,1,0
8.205,3,2,0,2,1,2,2,3
8.21,1,0,1,0,1,1,1,3
8.215,1,1,2,0,1,0,3,1
8.22,1,2,1,1,2,0,1,3
8.225,2,0,1,2,2,1,2,2
8.23,2,0,0,1,2,2,3,0
8.235,1,2,0,2,2,3,2,1
8.24,2,2,1,2,1,1,4,0
8.245,0,2,1,2,2,0,0,4
8.25,1,0,1,3,2,1,1,0
8.255,0,0,2,1,0,0,1,1
8.26,1,1,2,1,0,1,2,2
8.265,0,2,1,1,1,3,1,2
8.27,0,1,1,0,2,1,0,3
8.275,0,0,0,0,3,0,3,1
8.28,1,1,1,1,2,2,1,2
8.285,0,0,0,0,2,1,1,2
8.29,3,1,1,0,1,1,2,1
8.295,1,1,1,1,0,1,0,4
8.3,3,0,2,2,0,0,1,4
8.305,1,1,3,2,2,0,2,1
8.31,2,2,1,1,2,1,0,1
8.315,2,2,0,2,0,1,3,2
8.32,0,2,0,0,3,1,1,0
8.325,1,0,1,2,2,2,2,1
8.33,2,2,1,2,1,0,2,2
8.335,2,2,1,2,1,0,3,0
8.34,1,1,1,1,1,2,1,2
8.345,2,2,3,0,2,0,0,0
8.35,3,0,2,1,1,1,0,2
8.355,0,1,3,2,3,1,2,1
8.36,3,1,1,0,1,1,2,3
8.365,0,1,1,1,2,1,1,1
8.37,0,1,0,4,0,3,2,3
8.375,2,1,0,1,2,1,1,1
8.38,1,1,2,1,1,0,1,1
8.385,0,0,2,1,2,1,1,0
8.39,2,2,1,1,1,1,1,2
8.395,2,1,0,1,2,3,2,0
8.4,0,1,2,2,1,0,1,1
8.405,1,1,1,2,1,5,1,2
8.41,2,2,1,1,2,1,1,2
8.415,2,1,1,1,1,1,1,4
8.42,1,1,0,1,1,3,1,0
8.425,3,1,0,1,1,1,3,2
8.43,0,1,1,2,4,4,3,2
8.435,3,3,2,1,3,3,2,2
8.44,0,1,1,0,4,3,1,2
8.445,0,3,1,3,1,1,2,1
8.45,1,0,2,1,1,1,0,1
8.455,0,0,1,3,1,1,1,5
8.46,2,2,2,0,2,2,2,0
8.465,1,2,2,2,1,0,2,0
8.47,0,0,1,0,1,2,2,2
8.475,1,1,1,1,1,2,1,1
8.48,0,1,0,0,0,1,2,1
8.485,2,1,2,0,2,1,1,4
8.49,0,1,3,0,3,2,3,0
8.495,1,2,2,0,0,2,1,1
8.5,0,1,0,2,2,1,1,1
8.505,2,3,0,1,1,0,1,0
8.51,2,1,2,2,1,2,1,2
8.515,0,2,3,1,2,4,2,0
8.52,2,2,2,0,3,1,1,2
8.525,1,0,1,0,2,1,2,1
8.53,1,0,0,1,0,1,0,2
8.535,0,0,1,1,0,1,3,2
8.54,2,1,1,1,1,1,2,3
8.545,0,0,1,0,0,2,0,1
8.55,2,3,1,3,3,0,1,1
8.555,2,0,2,2,1,1,2,0
8.56,1,1,1,0,3,0,2,1
8.565,2,0,1,0,1,1,2,4
8.57,0,0,2,3,0,1,2,0
8.575,1,0,1,2,2,2,1,1
8.58,0,1,1,2,1,1,1,3
8.585,1,0,0,1,1,0,1,0
8.59,0,0,1,0,1,0,1,1
8.595,0,0,1,0,2,2,1,2
8.6,1,3,1,1,1,1,0,0
8.605,0,1,3,2,1,1,2,1
8.61,0,1,1,1,2,1,0,1
8.615,1,2,1,2,1,1,1,1
8.62,1,2,1,1,1,1,3,1
8.625,3,2,1,0,1,1,1,1
8.63,1,1,1,3,1,1,0,0
8.635,0,2,3,0,0,2,3,3
8.64,0,2,1,1,2,1,0,2
8.645,2,2,2,1,4,0,3,0
8.65,1,2,1,0,2,2,3,1
8.655,0,1,1,0,1,1,1,0
8.66,2,2,2,1,0,0,0,1
8.665,1,1,1,1,3,3,1,3
8.67,2,2,0,0,2,2,1,1
8.675,1,1,1,1,3,1,1,3
8.68,1,3,1,2,3,0,2,0
8.685,0,0,1,2,2,3,0,1
8.69,2,3,1,2,2,1,2,3
8.695,2,0,0,2,0,1,2,2
8.7,1,0,1,1,2,0,3,0
8.705,1,1,2,0,1,4,1,0
8.71,2,2,2,2,0,0,0,1
8.715,0,3,2,1,4,1,1,4
8.72,2,2,1,2,0,1,1,2
8.725,0,1,1,2,0,1,1,3
8.73,0,1,1,2,2,3,3,0
8.735,2,2,1,0,2,0,0,2
8.74,0,1,0,1,2,5,1,2
8.745,0,2,0,2,2,1,3,1
8.75,1,2,2,2,1,0,0,1
8.755,1,0,1,0,2,2,2,3
8.76,0,1,0,2,1,1,2,1
8.765,2,2,2,2,1,1,0,1
8.77,2,1,1,2,2,1,3,2
8.775,3,1,0,2,1,1,2,0
8.78,1,0,3,1,2,3,0,1
8.785,1,2,1,0,1,1,2,1
8.79,1,1,1,1,2,1,0,1
8.795,0,2,1,3,1,0,1,0
8.8,1,1,0,3,2,1,1,1
8.805,1,0,0,0,3,2,1,2
8.81,1,1,0,0,2,1,1,2
8.815,1,0,1,1,2,0,2,2
8.82,1,0,1,1,1,0,2,3
8.825,1,4,2,1,3,1,1,0
8.83,0,0,0,0,0,2,0,1
8.835,3,1,2,1,1,1,2,0
8.84,2,1,1,0,0,1,2,1
8.845,1,1,3,1,1,2,2,2
8.85,2,1,1,2,0,1,0,0
8.855,0,3,0,2,1,2,0,1
8.86,2,0,3,1,3,1,0,2
8.865,1,2,0,1,0,0,2,1
8.87,0,1,3,0,2,4,1,0
8.875,1,1,3,1,0,1,2,1
8.88,1,1,0,1,1,0,1,4
8.885,3,1,2,1,0,1,1,1
8.89,1,2,1,2,3,1,2,2
8.895,1,0,1,1,1,3,0,0
8.9,2,0,3,2,2,2,1,2
8.905,0,2,1,1,0,1,1,0
8.91,1,2,1,2,1,0,2,3
8.915,1,1,2,1,2,2,2,0
8.92,1,0,2,1,2,1,1,2
8.925,0,0,2,2,2,1,1,2
8.93,1,2,2,2,0,1,1,1
8.935,1,1,2,2,1,1,1,1
8.94,1,2,2,1,2,0,1,2
8.945,1,2,0,1,1,0,2,1
8.95,0,1,1,0,1,1,3,1
8.955,1,0,0,1,2,0,0,0
8.96,1,2,1,1,1,0,0,0
8.965,1,1,1,2,2,2,1,2
8.97,2,1,1,0,1,1,0,2
8.975,1,1,1,0,1,3,1,0
8.98,2,2,1,2,2,0,1,2
8.985,1,2,1,0,0,1,2,4
8.99,1,1,2,0,2,2,3,1
8.995,2,0,1,1,1,1,2,2
9,1,1,2,3,2,4,0,2
9.005,1,2,1,0,2,1,0,1
9.01,0,1,1,0,4,0,0,3
9.015,1,0,0,1,0,1,4,1
9.02,0,2,1,1,1,1,1,1
9.025,2,1,2,1,1,3,0,0
9.03,1,1,0,2,1,2,3,2
9.035,0,0,1,1,2,0,0,1
9.04,1,1,1,0,1,1,2,1
9.045,0,0,2,2,1,1,2,1
9.05,2,2,1,0,1,3,2,1
9.055,1,2,2,2,2,1,2,2
9.06,1,0,1,1,2,1,1,1
9.065,1,1,1,0,3,1,3,0
9.07,2,0,0,2,1,2,2,3
9.075,1,1,2,1,3,3,3,4
9.08,2,0,2,0,2,3,2,0
9.085,1,0,1,0,2,1,0,0
9.09,2,2,0,1,1,1,1,0
9.095,1,2,1,0,0,1,1,1
9.1,1,1,2,1,1,1,2,1
9.105,0,2,1,1,1,0,3,0
9.11,0,0,3,0,4,1,1,1
9.115,1,0,0,0,3,3,1,1
9.12,2,1,0,2,2,1,1,3
9.125,0,1,1,1,0,0,1,0
9.13,1,2,1,1,2,1,1,2
9.135,1,0,1,1,3,0,0,0
9.14,1,2,2,2,1,1,1,0
9.145,1,1,2,1,2,3,1,2
9.15,1,0,1,2,2,2,1,1
9.155,2,0,0,1,0,0,0,0
9.16,0,1,3,2,1,2,1,6
9.165,1,0,1,1,3,0,0,0
9.17,1,1,2,1,2,3,1,1
9.175,1,1,1,2,1,0,2,3
9.18,1,2,1,2,2,1,2,2
9.185,0,2,1,1,0,1,0,2
9.19,1,1,3,2,2,0,0,1
9.195,0,2,2,3,0,1,2,1
9.2,0,2,0,0,2,2,0,3
9.205,1,0,1,2,0,1,2,3
9.21,0,3,1,2,1,2,2,1
9.215,1,1,0,1,0,1,1,1
9.22,0,1,0,2,2,3,1,2
9.225,1,1,1,3,1,0,1,1
9.23,1,1,0,1,3,2,3,4
9.235,1,3,0,1,3,1,3,1
9.24,1,1,1,0,2,1,2,2
9.245,0,0,1,2,1,2,1,4
9.25,1,0,2,2,0,3,1,0
9.255,1,0,2,0,0,1,1,0
9.26,2,2,1,4,3,1,1,2
9.265,1,1,0,2,2,0,2,0
9.27,2,1,1,0,1,1,0,2
9.275,1,2,1,1,1,3,1,2
9.28,1,0,2,0,0,1,1,2
9.285,3,1,1,1,3,1,1,1
9.29,1,2,2,1,0,1,1,2
9.295,1,0,1,0,2,1,1,2
9.3,2,2,1,1,2,1,2,2
9.305,0,0,0,1,3,2,2,2
9.31,1,1,1,2,1,1,1,0
9.315,1,1,1,1,0,3,1,2
9.32,0,3,0,2,2,2,0,1
9.325,3,2,1,1,1,1,2,0
9.33,2,0,0,0,3,1,1,1
9.335,2,1,0,2,1,1,3,0
9.34,0,2,1,0,2,1,2,1
9.345,0,1,1,2,0,3,1,3
9.35,2,2,2,2,1,1,1,1
9.355,1,2,0,2,1,1,0,1
9.36,1,1,3,2,0,0,2,1
9.365,0,1,0,2,1,1,2,2
9.37,1,2,2,1,0,1,4,2
9.375,1,0,1,1,2,1,0,3
9.38,3,0,1,2,2,2,1,2
9.385,0,1,2,1,0,1,1,1
9.39,0,0,3,1,2,0,1,4
9.395,1,0,1,0,1,0,5,0
9.4,1,0,1,1,1,0,2,3
9.405,1,1,0,2,1,1,1,1
9.41,0,0,1,3,1,1,4,0
9.415,0,2,2,3,0,1,1,0
9.42,0,0,1,1,2,1,1,0
9.425,2,2,0,0,3,1,1,1
9.43,1,3,2,1,1,2,1,3
9.435,1,0,0,1,3,0,2,1
9.44,1,1,3,2,1,1,1,2
9.445,1,1,1,0,0,1,0,1
9.45,2,1,4,1,1,1,1,1
9.455,3,1,2,1,2,1,2,3
9.46,0,0,1,1,2,0,2,0
9.465,2,1,1,1,2,1,1,4
9.47,0,2,0,0,1,0,2,0
9.475,1,1,3,3,1,0,1,1
9.48,2,1,2,1,0,1,2,1
9.485,3,2,1,1,3,0,0,0
9.49,1,1,0,2,2,0,0,1
9.495,0,1,0,2,2,4,1,0
9.5,2,2,1,2,0,1,1,1
9.505,1,1,1,1,1,1,1,1
9.51,2,1,0,1,4,1,1,1
9.515,1,0,1,0,2,2,1,2
9.52,1,2,2,2,1,2,2,3
9.525,2,3,4,1,2,1,1,1
9.53,1,2,2,1,2,1,2,1
9.535,1,1,1,1,2,1,1,3
9.54,1,2,0,1,2,1,0,1
9.545,0,1,2,1,0,0,2,0
9.55,0,2,1,0,1,0,1,1
9.555,0,1,3,2,1,1,1,2
9.56,0,0,0,0,1,0,0,0
9.565,0,0,1,3,1,4,1,1
9.57,1,3,0,0,2,2,1,0
9.575,1,1,0,2,0,1,1,1
9.58,1,3,2,1,3,1,1,1
9.585,1,1,1,1,4,1,0,1
9.59,1,3,1,1,2,3,1,3
9.595,0,1,0,1,3,2,2,1
9.6,1,1,1,3,2,2,0,0
9.605,0,3,2,2,0,0,2,2
9.61,0,0,1,0,2,1,1,3
9.615,3,1,0,0,1,0,1,4
9.62,1,0,1,3,1,1,2,0
9.625,2,1,1,0,1,2,1,1
9.63,1,1,1,2,1,3,2,3
9.635,2,1,2,1,1,1,0,0
9.64,2,3,2,2,0,1,1,0
9.645,0,1,0,2,2,2,1,2
9.65,1,0,1,2,5,2,3,3
9.655,1,1,2,0,2,2,2,1
9.66,2,0,2,0,0,3,2,2
9.665,0,1,1,1,0,0,1,2
9.67,2,2,1,1,2,1,0,2
9.675,1,1,0,5,3,2,1,1
9.68,1,2,1,2,3,2,3,1
9.685,2,2,1,2,1,0,1,2
9.69,0,0,1,1,2,0,0,0
9.695,0,2,2,0,1,1,2,3
9.7,1,1,1,2,0,1,1,2
9.705,1,2,0,2,0,0,2,1
9.71,0,2,2,1,0,1,2,1
9.715,0,1,0,0,0,2,1,1
9.72,1,2,0,1,0,1,2,2
9.725,1,0,0,1,3,2,1,2
9.73,1,0,2,0,0,0,2,0
9.735,3,1,2,2,1,0,1,2
9.74,3,1,1,1,1,3,2,0
9.745,1,2,2,1,2,3,0,1
9.75,1,1,0,0,1,1,1,0
9.755,0,0,1,2,1,1,2,0
9.76,1,1,1,2,2,0,1,1
9.765,1,1,2,2,2,2,2,1
9.77,2,2,1,2,1,1,2,0
9.775,2,0,1,0,1,1,1,1
9.78,0,2,2,1,1,3,2,0
9.785,2,1,2,2,3,0,3,2
9.79,0,1,2,1,1,0,4,1
9.795,1,3,0,1,2,1,1,1
9.8,0,1,1,0,3,2,1,1
9.805,2,1,2,2,1,0,1,2
9.81,3,0,1,0,2,2,1,2
9.815,2,3,2,1,1,3,1,1
9.82,2,2,2,1,0,0,3,1
9.825,1,3,0,0,1,1,3,1
9.83,1,4,2,3,1,0,1,5
9.835,3,1,0,0,2,0,2,3
9.84,3,1,0,1,2,0,3,1
9.845,1,0,1,0,1,1,3,4
9.85,2,1,2,1,2,0,2,1
9.855,1,1,2,0,0,2,0,3
9.86,1,0,2,0,0,0,1,1
9.865,2,1,2,1,2,1,1,3
9.87,1,1,2,1,2,2,1,0
9.875,1,1,2,0,1,2,2,1
9.88,0,0,2,2,1,3,1,1
9.885,0,2,0,1,2,2,1,1
9.89,2,2,1,0,0,1,0,1
9.895,0,1,1,0,2,2,3,0
9.9,2,2,2,1,2,2,1,1
9.905,1,0,0,1,3,2,0,1
9.91,0,1,1,1,1,1,1,0
9.915,1,2,1,1,1,0,2,1
9.92,1,4,1,1,1,3,2,3
9.925,2,2,2,2,1,0,1,1
9.93,2,1,1,0,0,3,0,2
9.935,2,0,0,1,2,0,2,1
9.94,0,1,0,1,0,1,1,1
9.945,1,0,2,2,1,1,0,0
9.95,2,1,0,0,2,3,0,0
9.955,2,0,2,1,3,0,3,1
9.96,0,2,0,1,1,0,1,0
9.965,1,1,0,2,0,1,0,2
9.97,0,3,3,1,2,2,1,1
9.975,2,1,1,1,1,2,0,4
9.98,0,0,1,0,3,1,1,0
9.985,0,3,2,1,1,2,2,0
9.99,2,2,3,1,1,0,1,2
9.995,1,2,1,1,1,3,2,1
10,3,0,1,1,1,0,1,4
10.005,1,1,2,0,1,1,3,1
10.01,2,2,1,2,2,0,1,1
10.015,0,3,1,1,1,2,1,3
10.02,2,1,0,3,3,2,1,1
10.025,1,2,0,0,0,1,0,4
10.03,2,2,0,0,4,2,2,2
10.035,0,2,0,1,2,1,0,4
10.04,0,2,0,2,3,0,3,2
10.045,2,2,1,0,1,1,0,1
10.05,1,1,1,2,1,2,2,3
10.055,0,2,1,1,1,1,0,2
10.06,1,1,2,0,3,3,2,1
10.065,1,0,1,1,1,0,2,1
10.07,1,1,1,1,3,1,1,2
10.075,2,0,0,2,2,1,1,0
10.08,1,0,0,0,2,0,1,2
10.085,1,1,2,1,2,3,3,2
10.09,2,2,0,0,2,1,2,2
10.095,2,1,2,2,2,3,1,0
10.1,1,1,1,1,0,0,1,2
10.105,1,3,1,1,0,0,2,2
10.11,1,2,1,1,0,1,3,2
10.115,1,1,1,2,0,1,4,1
10.12,3,2,1,3,0,0,1,0
10.125,2,2,0,2,4,0,2,1
10.13,1,1,2,3,0,0,0,0
10.135,1,2,0,1,3,3,2,2
10.14,2,1,1,2,1,1,2,0
10.145,2,0,1,1,1,0,2,1
10.15,2,1,3,1,0,0,1,1
10.155,1,2,0,3,1,0,3,0
10.16,0,2,2,1,2,3,3,1
10.165,1,0,2,1,1,1,1,2
10.17,2,1,1,1,2,0,0,2
10.175,0,2,1,1,1,0,0,1
10.18,0,1,2,2,0,2,4,0
10.185,0,1,2,2,2,2,2,1
10.19,0,1,0,2,1,0,3,2
10.195,2,1,1,1,2,0,2,1
10.2,1,3,0,2,1,2,2,2
10.205,2,1,2,1,0,3,1,1
10.21,1,0,2,2,1,1,2,2
10.215,1,1,1,3,1,1,2,2
10.22,3,0,1,1,1,3,0,1
10.225,2,1,0,2,0,2,1,3
10.23,1,2,0,0,2,1,1,2
10.235,1,2,1,2,1,1,1,1
10.24,1,1,0,2,4,3,0,1
10.245,1,2,0,0,3,2,1,3
10.25,1,1,0,1,0,0,2,3
10.255,1,0,1,0,0,2,1,2
10.26,1,2,2,2,1,0,2,1
10.265,2,0,1,0,3,1,2,1
10.27,1,0,1,1,2,1,0,3
10.275,2,0,1,0,2,1,0,2
10.28,1,0,1,2,2,0,0,0
10.285,0,1,2,1,0,1,2,3
10.29,1,1,1,1,2,0,1,1
10.295,0,2,1,2,2,2,1,3
10.3,1,3,2,1,2,2,0,2
10.305,2,2,0,1,1,0,0,0
10.31,2,2,1,1,3,2,2,1
10.315,0,2,3,1,2,1,2,1
10.32,2,2,2,0,0,1,2,2
10.325,1,0,1,1,0,1,2,0
10.33,0,0,1,2,2,1,2,1
10.335,1,1,2,1,1,0,2,2
10.34,2,0,0,1,2,1,2,2
10.345,2,1,1,1,3,3,2,0
10.35,2,1,0,2,1,2,2,0
10.355,0,1,1,3,2,2,2,2
10.36,0,2,1,0,2,2,1,1
10.365,1,1,1,1,1,0,2,5
10.37,0,2,2,1,2,3,3,1
10.375,1,1,1,0,0,2,1,0
10.38,2,1,2,1,1,1,4,3
10.385,1,0,1,1,1,0,0,0
10.39,2,2,3,0,2,1,2,3
10.395,1,1,2,0,0,3,2,1
10.4,1,1,1,1,3,2,2,1
10.405,1,1,3,1,0,1,1,3
10.41,2,2,1,2,1,2,2,4
10.415,1,1,0,1,5,2,2,2
10.42,0,2,0,0,3,1,2,0
10.425,1,1,1,1,1,1,3,3
10.43,0,2,2,2,1,0,3,1
10.435,2,1,1,0,0,0,1,3
10.44,0,1,1,2,3,3,3,1
10.445,0,0,3,3,0,1,0,1
10.45,2,2,0,1,3,0,2,0
10.455,0,1,1,2,0,2,2,1
10.46,0,2,2,2,2,0,1,0
10.465,2,1,0,0,2,4,3,1
10.47,2,3,0,0,2,1,2,1
10.475,1,1,3,2,4,1,2,1
10.48,1,0,1,1,3,0,0,3
10.485,0,1,1,1,0,2,0,1
10.49,1,0,1,1,3,0,1,2
10.495,2,2,2,1,1,1,1,2
10.5,1,2,3,2,2,2,1,0
10.505,0,2,3,2,1,1,2,2
10.51,1,2,0,2,2,2,1,0
10.515,0,1,1,0,0,1,2,1
10.52,2,1,0,1,1,2,1,1
10.525,1,2,1,0,3,1,0,2
10.53,0,2,1,2,0,1,1,3
10.535,1,1,0,2,0,1,2,3
10.54,0,0,2,2,2,2,0,0
10.545,1,0,2,0,0,1,2,1
10.55,1,1,1,0,2,1,2,2
10.555,1,0,1,1,2,1,1,2
10.56,1,0,2,0,0,0,1,1
10.565,4,0,1,4,1,1,1,0
10.57,2,1,2,3,3,0,1,1
10.575,3,2,0,2,4,2,1,0
10.58,2,4,2,3,0,0,2,0
10.585,0,2,2,2,1,2,0,1
10.59,0,2,2,2,0,1,2,3
10.595,1,1,1,0,1,1,0,3
10.6,1,0,1,0,2,0,2,1
10.605,0,0,1,0,3,0,3,2
10.61,2,1,0,1,2,2,0,0
10.615,0,2,0,2,0,2,1,1
10.62,1,1,2,1,0,4,1,0
10.625,2,1,1,1,1,3,4,0
10.63,2,4,0,1,2,1,1,1
10.635,1,1,1,0,1,0,0,0
10.64,1,2,1,0,0,0,2,3
10.645,0,1,1,0,4,0,1,4
10.65,1,1,2,3,2,1,1,0
10.655,1,2,1,2,2,2,0,1
10.66,0,1,1,2,3,2,1,0
10.665,1,0,2,1,3,2,0,1
10.67,1,0,2,0,1,0,1,2
10.675,1,0,3,2,0,1,3,3
10.68,0,2,1,0,1,1,0,1
10.685,1,1,1,2,1,1,1,2
10.69,2,1,0,2,3,2,3,3
10.695,3,1,2,2,2,2,2,0
10.7,0,0,2,0,1,2,2,4
10.705,0,2,1,1,1,0,0,0
10.71,3,2,1,1,2,1,1,0
10.715,0,1,1,1,3,0,0,1
10.72,3,2,2,2,0,1,2,2
10.725,1,1,1,1,1,0,1,2
10.73,1,3,3,0,3,1,1,3
10.735,1,3,2,1,1,2,2,1
10.74,1,2,2,2,1,0,2,1
10.745,2,2,1,2,2,4,0,1
10.75,0,0,1,2,1,0,2,4
10.755,2,2,1,2,2,1,2,3
10.76,4,2,1,0,0,1,0,1
10.765,4,1,0,1,2,2,2,0
10.77,0,2,0,1,3,3,1,1
10.775,1,1,0,1,3,1,1,0
10.78,1,2,1,1,3,1,2,1
10.785,1,2,1,3,2,0,2,1
10.79,0,1,1,1,1,2,0,1
10.795,1,1,0,0,2,1,2,2
10.8,2,1,1,1,0,3,0,1
10.805,0,2,0,0,1,0,1,1
10.81,0,2,1,2,3,1,2,1
10.815,0,2,1,0,1,0,0,3
10.82,0,0,2,3,3,0,1,0
10.825,2,1,1,0,2,1,2,4
10.83,1,1,4,0,2,1,2,1
10.835,1,2,1,0,1,2,3,0
10.84,2,0,3,3,3,2,1,2
10.845,0,0,1,0,1,0,1,1
10.85,1,1,1,1,2,1,1,3
10.855,0,1,1,1,0,1,3,2
10.86,1,3,0,1,1,2,1,2
10.865,0,1,2,3,2,0,3,0
10.87,1,1,0,2,1,1,1,2
10.875,1,0,1,1,2,2,2,1
10.88,1,0,1,2,1,1,1,2
10.885,3,1,2,0,0,0,1,2
10.89,3,1,1,1,2,2,0,1
10.895,2,2,1,2,0,0,0,1
10.9,2,0,1,0,0,1,3,2
10.905,0,2,0,1,3,1,0,1
10.91,1,1,3,2,3,1,2,1
10.915,1,0,1,2,2,1,1,1
10.92,3,1,2,1,0,1,2,1
10.925,1,3,1,1,1,1,3,0
10.93,2,2,0,1,2,2,2,2
10.935,1,2,3,1,4,5,0,2
10.94,1,2,0,3,1,2,2,1
10.945,2,1,1,1,0,5,2,2
10.95,0,3,0,1,2,0,4,0
10.955,1,1,1,0,2,1,1,1
10.96,0,0,2,0,3,0,2,1
10.965,2,2,2,1,1,1,0,2
10.97,0,3,2,1,0,3,0,2
10.975,1,2,2,1,0,0,1,0
10.98,0,1,1,2,2,1,2,0
10.985,2,1,0,1,0,3,0,3
10.99,2,2,1,0,0,0,0,2
10.995,1,0,1,0,0,2,2,0
11,1,2,0,1,2,1,0,1
11.005,0,3,0,2,1,0,1,2
11.01,3,1,0,1,2,1,1,2
11.015,0,2,2,0,2,1,1,1
11.02,1,2,1,1,2,0,1,0
11.025,0,1,2,1,0,2,1,1
11.03,1,2,2,2,0,1,2,0
11.035,1,1,1,3,1,1,3,1
11.04,2,1,3,1,0,2,1,2
11.045,1,3,1,0,2,0,1,0
11.05,2,2,0,0,2,2,1,1
11.055,1,1,1,2,4,1,2,2
11.06,0,2,1,1,1,2,2,1
11.065,1,3,2,3,1,0,1,0
11.07,0,0,2,3,4,4,0,2
11.075,3,1,0,1,1,1,0,1
11.08,3,1,1,1,2,0,2,1
11.085,2,2,2,1,1,1,0,0
11.09,0,2,1,1,1,2,2,2
11.095,2,2,2,0,1,1,0,1
11.1,1,1,0,1,1,0,3,2
11.105,2,2,0,0,2,1,1,1
11.11,1,2,3,1,1,1,3,1
11.115,2,1,1,3,1,3,3,3
11.12,1,1,2,1,1,2,1,1
11.125,2,2,1,1,2,0,1,2
11.13,0,1,1,1,0,2,2,0
11.135,2,1,3,0,0,2,3,1
11.14,2,2,1,0,1,1,1,1
11.145,0,2,1,4,2,0,0,1
11.15,2,0,1,0,1,0,3,3
11.155,0,0,0,1,3,1,4,1
11.16,1,2,1,1,4,1,0,1
11.165,1,0,2,1,0,2,2,1
11.17,1,1,1,0,1,1,0,1
11.175,1,1,2,3,0,2,1,0
11.18,1,0,0,1,3,0,2,2
11.185,1,3,1,0,2,3,1,2
11.19,1,2,2,2,3,2,2,2
11.195,0,5,0,0,2,0,3,1
11.2,1,1,2,1,0,4,1,1
11.205,1,0,1,2,1,2,1,2
11.21,1,1,0,0,2,0,2,1
11.215,2,2,2,1,1,2,1,3
11.22,0,1,0,0,2,2,1,3
11.225,1,2,2,1,1,2,3,1
11.23,0,3,0,1,2,2,1,2
11.235,2,0,2,3,2,1,3,1
11.24,1,0,0,0,1,1,0,1
11.245,3,1,0,1,0,1,2,0
11.25,1,2,1,2,1,1,1,0
11.255,1,0,3,2,0,1,0,2
11.26,3,2,0,3,2,1,2,1
11.265,1,0,0,2,3,0,2,2
11.27,1,1,1,0,2,1,2,0
11.275,1,1,1,0,2,0,0,1
11.28,1,1,2,1,0,1,3,0
11.285,1,0,0,1,0,1,3,2
11.29,2,1,1,3,2,2,4,2
11.295,0,4,0,1,0,1,4,1
11.3,1,2,1,1,2,1,2,2
11.305,0,1,0,1,4,0,0,3
11.31,0,2,2,1,0,0,1,1
11.315,2,1,1,0,1,2,1,3
11.32,2,2,1,1,1,2,2,2
11.325,3,1,1,3,4,0,2,2
11.33,0,0,1,3,1,2,1,1
11.335,1,0,0,1,1,1,0,0
11.34,1,1,1,0,1,1,0,4
11.345,2,0,0,0,0,2,0,1
11.35,2,0,1,1,2,4,4,1
11.355,2,3,1,0,2,1,2,0
11.36,2,2,1,2,3,1,1,3
11.365,1,3,2,2,1,2,0,1
11.37,3,2,0,1,2,1,0,0
11.375,1,3,1,0,1,1,0,1
11.38,1,1,1,1,1,0,2,0
11.385,0,1,3,1,1,1,0,3
11.39,0,0,0,1,2,2,0,2
11.395,1,0,0,3,3,1,2,2
11.4,1,2,1,1,0,0,1,0
11.405,2,1,1,3,2,1,0,2
11.41,3,3,3,1,3,2,1,0
11.415,2,0,2,1,2,2,2,2
11.42,0,1,0,1,2,1,3,1
11.425,0,3,1,2,0,2,0,0
11.43,2,3,1,2,1,0,0,0
11.435,2,2,0,1,1,1,2,1
11.44,2,0,1,2,1,4,4,2
11.445,1,0,2,1,2,0,1,2
11.45,1,0,2,1,1,1,1,2
11.455,1,1,4,1,1,2,3,0
11.46,0,2,1,0,0,0,2,1
11.465,1,3,0,2,1,1,1,2
11.47,0,2,1,1,0,1,1,3
11.475,1,3,1,2,1,1,0,1
11.48,0,2,1,1,2,1,1,2
11.485,2,1,3,2,1,0,2,1
11.49,2,0,2,1,0,1,1,1
11.495,0,1,2,1,0,1,1,1
11.5,3,2,2,1,0,2,1,1
11.505,2,1,1,3,1,0,1,1
11.51,2,3,1,2,3,1,2,1
11.515,1,1,1,2,0,0,0,4
11.52,1,0,2,0,3,2,0,2
11.525,1,2,2,1,0,2,2,0
11.53,0,1,1,2,2,0,5,1
11.535,0,1,0,1,1,2,0,0
11.54,1,1,1,0,2,2,1,3
11.545,1,3,0,2,1,1,0,1
11.55,1,0,1,2,2,2,4,4
11.555,0,0,1,2,0,1,2,3
11.56,1,0,2,1,1,2,3,0
11.565,0,1,2,0,3,1,2,2
11.57,1,1,0,0,1,2,1,0
11.575,1,1,1,1,2,0,0,0
11.58,1,1,2,3,1,0,0,2
11.585,1,1,1,1,1,2,1,2
11.59,1,2,0,0,1,1,1,1
11.595,3,1,0,1,2,3,2,0
11.6,2,1,1,1,1,1,1,3
11.605,1,2,1,1,2,1,1,1
11.61,0,3,2,1,2,1,1,7
11.615,1,1,2,1,3,1,2,2
11.62,0,1,0,3,0,2,2,1
11.625,1,1,1,0,1,3,3,1
11.63,3,1,1,2,1,0,1,0
11.635,2,1,1,3,3,1,1,1
11.64,1,1,1,1,0,2,0,3
11.645,1,0,0,3,3,0,2,0
11.65,1,0,2,0,1,2,0,2
11.655,1,2,3,0,0,0,2,0
11.66,1,2,1,1,2,0,2,1
11.665,2,1,0,1,0,0,1,2
11.67,1,0,0,1,0,0,4,0
11.675,1,1,1,3,2,0,2,1
11.68,2,0,2,1,1,2,1,2
11.685,1,1,2,1,2,0,2,0
11.69,1,1,1,1,5,1,1,0
11.695,1,1,2,0,2,2,0,1
11.7,0,2,2,1,3,1,2,1
11.705,0,1,0,1,1,1,3,1
11.71,1,3,2,0,0,3,1,5
11.715,1,1,2,2,1,0,0,1
11.72,1,2,2,0,2,1,1,1
11.725,2,2,1,0,2,2,1,0
11.73,0,3,0,0,1,1,3,0
11.735,1,3,1,0,0,0,0,1
11.74,0,1,2,2,2,1,1,1
11.745,1,2,2,0,3,0,1,1
11.75,2,1,1,0,0,1,2,0
11.755,1,1,0,0,1,1,0,2
11.76,1,0,1,1,0,0,0,2
11.765,0,2,2,1,1,2,0,3
11.77,0,1,1,1,1,1,0,1
11.775,1,2,1,2,1,0,4,3
11.78,1,1,1,1,2,1,0,1
11.785,2,1,1,1,1,1,1,3
11.79,1,1,1,1,1,2,1,2
11.795,1,1,1,2,3,2,0,1
11.8,1,2,2,2,2,2,1,3
11.805,1,0,2,2,0,1,3,0
11.81,0,1,1,2,1,4,0,0
11.815,1,1,1,0,0,1,0,3
11.82,2,3,3,2,1,0,1,1
11.825,1,3,2,2,2,2,1,0
11.83,0,2,2,1,0,1,1,1
11.835,0,0,1,1,2,2,3,1
11.84,2,1,1,1,0,1,3,2
11.845,0,1,1,1,2,0,1,3
11.85,2,0,0,1,3,1,3,2
11.855,1,0,1,0,0,0,1,3
11.86,1,3,1,2,1,2,1,1
11.865,2,0,1,0,0,3,1,1
11.87,0,3,0,2,0,2,2,3
11.875,2,1,2,3,0,1,0,0
11.88,0,0,1,1,1,1,2,2
11.885,1,1,0,2,2,1,2,2
11.89,2,1,0,1,0,1,1,1
11.895,1,2,0,3,0,3,2,2
11.9,3,2,1,0,3,1,2,0
11.905,1,3,1,2,2,1,2,1
11.91,1,1,1,3,1,0,2,2
11.915,3,1,2,1,1,2,0,1
11.92,2,1,2,2,2,1,0,0
11.925,2,1,2,1,0,0,2,1
11.93,1,0,1,1,1,1,0,0
11.935,1,2,4,1,1,1,6,0
11.94,1,1,1,2,0,3,3,1
11.945,2,0,1,1,2,1,1,2
11.95,0,0,2,0,1,1,1,0
11.955,0,1,1,0,0,1,1,1
11.96,1,1,2,1,0,1,2,2
11.965,0,2,1,1,1,0,0,2
11.97,2,0,1,1,1,0,2,1
11.975,2,0,1,0,3,4,1,2
11.98,0,0,0,1,2,1,1,0
11.985,2,0,1,1,1,2,0,2
11.99,3,4,0,2,3,2,1,0
11.995,2,0,1,2,1,1,1,1
12,1,1,2,3,2,1,0,3
12.005,0,1,2,1,0,4,1,1
12.01,1,0,2,0,0,0,2,3
12.015,1,2,0,3,2,1,1,2
12.02,2,0,1,0,1,1,0,4
12.025,1,0,1,0,1,0,1,2
12.03,0,1,3,1,3,2,4,0
12.035,2,1,3,1,0,0,0,2
12.04,3,1,1,0,1,0,2,1
12.045,2,0,1,1,4,0,1,2
12.05,1,2,1,1,0,4,0,0
12.055,0,2,0,1,1,0,2,1
12.06,1,3,1,0,0,0,1,2
12.065,0,2,2,1,2,0,2,1
12.07,0,2,1,0,1,1,1,2
12.075,0,0,1,1,3,1,1,1
12.08,0,2,3,1,0,2,1,2
12.085,2,2,2,0,3,2,2,3
12.09,2,1,2,0,2,3,1,3
12.095,2,0,2,1,2,2,1,1
12.1,0,0,0,3,2,2,0,1
12.105,2,1,1,3,0,2,0,0
12.11,2,2,3,1,4,3,0,3
12.115,1,3,1,2,0,1,1,1
12.12,1,1,3,2,2,0,1,1
12.125,0,2,1,0,4,1,1,0
12.13,3,2,1,0,0,0,1,0
12.135,2,1,1,1,2,2,2,3
12.14,1,2,0,1,1,4,0,2
12.145,0,1,0,1,2,1,2,1
12.15,2,0,0,3,3,0,1,3
12.155,0,1,2,2,1,4,2,0
12.16,1,1,2,1,2,1,1,0
12.165,1,1,1,2,1,2,3,3
12.17,0,1,0,0,1,1,1,1
12.175,2,0,2,0,2,1,0,3
12.18,0,0,1,0,1,1,1,1
12.185,1,1,1,0,1,2,2,0
12.19,2,0,2,2,1,1,3,2
12.195,1,1,1,1,1,2,1,0
12.2,1,2,2,1,1,0,2,1
12.205,2,1,0,2,3,1,0,3
12.21,1,1,0,0,2,1,1,0
12.215,1,1,0,1,2,2,3,0
12.22,1,2,0,2,3,2,2,2
12.225,0,1,1,0,2,1,1,1
12.23,0,3,1,1,0,1,3,0
12.235,0,2,2,3,0,2,1,2
12.24,1,1,1,2,2,1,2,2
12.245,2,0,2,2,3,2,3,1
12.25,1,1,1,0,0,2,0,0
12.255,2,3,1,1,2,1,1,2
12.26,1,0,2,0,1,0,3,1
12.265,2,1,3,2,1,0,0,0
12.27,1,0,0,0,1,0,1,1
12.275,0,1,1,1,2,1,4,0
12.28,1,2,1,1,2,1,3,2
12.285,0,1,1,1,0,0,2,2
12.29,1,1,2,1,3,3,3,4
12.295,1,0,1,1,1,0,3,0
12.3,3,1,1,2,2,2,0,1
12.305,1,1,3,2,0,3,1,1
12.31,2,1,2,1,3,3,2,1
12.315,1,1,0,2,2,1,2,2
12.32,1,2,0,1,2,1,2,1
12.325,1,3,1,2,0,2,2,1
12.33,1,1,1,0,1,2,2,3
12.335,1,0,0,2,2,4,1,2
12.34,1,1,1,2,0,0,1,2
12.345,3,1,0,1,4,2,2,1
12.35,1,2,0,2,0,1,1,1
12.355,2,1,2,3,1,2,1,0
12.36,1,1,0,1,1,0,1,1
12.365,1,1,3,2,1,2,2,2
12.37,1,2,3,2,0,2,0,1
12.375,2,1,1,1,1,1,1,2
12.38,0,1,2,2,1,2,1,1
12.385,0,0,0,1,2,1,1,1
12.39,1,1,1,3,2,2,3,1
12.395,1,1,1,1,2,0,2,2
12.4,2,1,1,0,0,3,1,3
12.405,2,3,0,1,2,1,3,2
12.41,3,1,3,1,0,3,1,1
12.415,0,1,1,2,2,0,0,3
12.42,2,1,0,1,4,2,0,1
12.425,1,0,0,2,1,0,3,1
12.43,2,2,2,1,0,1,0,0
12.435,1,3,2,1,3,0,1,2
12.44,1,2,1,0,1,0,3,2
12.445,0,1,1,0,0,0,1,2
12.45,1,3,2,2,0,2,1,0
12.455,1,1,1,1,1,0,2,0
12.46,0,2,0,2,4,2,1,3
12.465,1,0,2,0,1,1,1,2
12.47,1,0,1,0,1,1,2,1
12.475,1,2,0,0,2,1,0,3
12.48,1,1,2,3,1,0,2,1
12.485,1,2,1,2,3,0,1,1
12.49,0,1,1,3,0,3,0,3
12.495,2,2,1,2,1,1,0,3
12.5,1,0,1,2,2,0,2,1
12.505,1,1,1,2,2,2,1,0
12.51,1,3,1,0,2,2,2,0
12.515,0,1,0,2,1,3,3,3
12.52,2,1,2,2,0,0,0,1
12.525,1,1,1,2,0,1,1,2
12.53,1,1,1,1,1,1,1,1
12.535,1,1,1,2,2,1,1,0
12.54,1,2,2,0,2,3,2,1
12.545,1,2,2,0,2,1,1,1
12.55,2,0,2,1,2,2,2,2
12.555,0,1,0,2,0,2,2,1
12.56,0,1,0,0,0,1,1,0
12.565,1,0,0,4,0,2,1,1
12.57,1,0,3,1,3,4,2,2
12.575,0,1,1,3,0,2,4,1
12.58,1,1,0,1,1,1,1,1
12.585,0,3,1,1,0,1,1,1
12.59,1,0,1,0,0,0,2,2
12.595,1,0,3,0,3,3,1,0
12.6,1,0,1,1,3,1,3,1
12.605,1,1,2,2,0,0,2,2
12.61,1,1,0,5,1,0,1,1
12.615,1,2,1,4,1,1,1,1
12.62,2,1,1,1,2,1,3,0
12.625,2,1,1,3,1,2,1,2
12.63,2,1,0,0,0,1,2,1
12.635,1,1,1,0,3,1,1,2
12.64,1,0,0,2,0,0,0,2
12.645,1,2,1,1,1,2,3,4
12.65,0,2,1,0,3,1,1,2
12.655,2,0,0,0,0,1,1,1
12.66,1,2,1,0,1,1,2,1
12.665,2,1,1,1,1,0,3,2
12.67,1,0,1,1,1,3,0,1
12.675,1,3,1,1,1,2,0,3
12.68,1,1,1,2,0,2,3,1
12.685,1,1,2,0,2,2,3,2
12.69,1,0,2,1,4,0,0,1
12.695,0,1,2,0,3,1,0,0
12.7,1,1,1,2,1,0,0,3
12.705,1,1,1,2,0,1,2,1
12.71,0,1,2,4,3,1,3,2
12.715,1,1,1,1,2,2,1,3
12.72,0,1,0,0,0,1,3,2
12.725,1,0,1,2,1,0,1,1
12.73,2,2,0,0,1,1,0,2
12.735,2,0,2,3,1,0,3,1
12.74,3,1,0,0,3,1,2,1
12.745,0,1,1,0,1,1,4,2
12.75,0,0,2,0,1,1,1,0
12.755,1,1,4,2,2,0,2,1
12.76,0,3,1,1,0,3,0,0
12.765,2,0,1,3,0,1,0,1
12.77,2,3,1,1,2,1,4,1
12.775,1,1,1,2,1,3,2,0
12.78,1,2,1,1,2,0,1,0
12.785,0,2,0,0,2,1,1,1
12.79,0,2,2,2,1,1,1,0
12.795,0,2,1,1,1,2,0,1
12.8,3,1,2,1,2,1,3,0
12.805,1,1,1,1,6,2,1,3
12.81,1,1,2,1,1,1,2,2
12.815,1,2,0,1,2,1,3,2
12.82,1,0,1,3,2,0,1,0
12.825,3,1,2,2,3,1,1,1
12.83,1,1,1,1,3,1,1,0
12.835,1,2,1,1,2,2,3,2
12.84,2,1,2,1,1,1,1,1
12.845,1,1,1,1,0,3,1,3
12.85,1,2,1,1,1,3,0,2
12.855,1,0,3,1,1,1,2,0
12.86,1,2,1,2,2,1,4,1
12.865,0,1,2,0,0,2,0,1
12.87,2,1,1,1,0,1,1,1
12.875,1,1,1,1,1,2,2,2
12.88,2,1,2,0,2,3,3,4
12.885,1,1,0,1,1,0,2,0
12.89,0,2,0,3,0,1,0,3
12.895,1,1,0,0,3,3,3,0
12.9,1,1,1,2,1,1,1,1
12.905,1,1,2,2,2,1,3,3
12.91,0,2,1,0,1,1,0,2
12.915,2,1,1,2,1,3,0,0
12.92,2,2,1,2,2,0,2,3
12.925,1,1,1,2,3,3,1,0
12.93,2,1,3,3,1,0,2,0
12.935,2,1,1,0,1,1,1,4
12.94,2,1,1,0,4,4,1,2
12.945,1,1,1,0,2,2,2,1
12.95,1,1,0,1,1,2,1,2
12.955,1,0,1,2,2,1,1,1
12.96,0,1,1,1,1,2,2,1
12.965,0,1,0,1,3,0,1,3
12.97,1,2,1,1,0,2,2,0
12.975,2,0,0,1,0,2,1,3
12.98,0,0,1,0,1,2,0,1
12.985,0,2,0,3,1,1,0,1
12.99,1,1,2,0,1,0,2,1
12.995,1,2,1,2,3,1,1,1
13,1,0,3,0,1,1,1,1
13.005,3,0,0,0,0,1,0,3
13.01,1,1,1,1,2,1,1,3
13.015,0,1,3,2,3,1,1,2
13.02,3,0,0,0,2,2,0,1
13.025,2,1,3,1,4,0,0,2
13.03,1,2,1,1,2,2,0,2
13.035,2,4,0,2,1,1,1,0
13.04,1,1,1,0,1,2,4,1
13.045,0,2,1,2,2,0,0,1
13.05,1,2,0,1,3,1,3,1
13.055,1,2,1,1,1,2,3,3
13.06,1,1,1,3,1,2,1,1
13.065,0,1,0,1,1,2,2,3
13.07,2,1,0,1,1,1,2,1
13.075,1,1,1,1,1,1,2,1
13.08,1,1,1,0,1,2,2,1
13.085,2,1,1,1,1,1,1,3
13.09,2,0,0,0,0,1,2,1
13.095,0,2,1,1,1,0,2,0
13.1,1,3,1,1,1,1,1,1
13.105,2,1,1,2,1,1,2,1
13.11,2,1,1,3,1,1,0,1
13.115,1,0,1,1,0,0,3,2
13.12,1,2,1,3,2,0,0,1
13.125,1,1,2,1,0,1,1,1
13.13,1,1,0,1,2,1,3,0
13.135,2,2,0,1,0,3,3,0
13.14,1,1,1,2,1,1,2,4
13.145,1,1,0,1,2,2,1,2
13.15,1,1,0,1,1,1,2,2
13.155,1,3,2,0,2,0,1,3
13.16,1,1,1,1,2,1,0,2
13.165,1,2,1,3,1,1,2,0
13.17,1,2,0,1,1,2,2,2
13.175,1,1,0,1,3,0,2,2
13.18,4,2,0,0,1,0,2,4
13.185,1,2,2,0,0,2,2,1
13.19,1,0,1,0,3,0,1,0
13.195,1,0,0,0,0,2,0,2
13.2,0,2,2,2,3,1,3,1
13.205,3,1,2,1,2,0,2,2
13.21,2,2,2,1,3,2,3,1
13.215,1,1,2,0,1,0,2,2
13.22,2,1,1,1,1,0,1,1
13.225,2,0,1,0,0,2,4,1
13.23,1,1,1,3,2,2,1,0
13.235,0,1,1,1,1,0,1,1
13.24,2,0,1,1,1,2,1,0
13.245,2,4,0,0,3,1,1,2
13.25,1,3,3,1,0,1,1,2
13.255,1,0,0,3,1,3,0,2
13.26,1,1,1,2,2,1,1,2
13.265,1,2,0,2,1,2,1,2
13.27,2,1,1,2,1,2,1,3
13.275,1,1,1,2,1,0,0,1
13.28,2,2,1,0,1,1,3,1
13.285,0,0,1,0,1,0,0,0
13.29,0,1,1,0,0,1,3,3
13.295,2,2,2,3,0,1,1,3
13.3,0,1,1,0,3,2,1,2
13.305,1,1,2,1,1,2,1,2
13.31,2,3,3,3,0,2,0,1
13.315,0,1,1,1,2,2,2,2
13.32,1,2,2,2,1,3,2,3
13.325,0,1,0,0,1,0,0,0
13.33,1,0,3,0,3,0,2,3
13.335,2,2,0,1,0,3,0,1
13.34,1,0,2,2,4,0,0,1
13.345,1,1,1,3,1,1,0,0
13.35,3,0,0,0,3,2,3,3
13.355,1,2,1,2,2,1,2,2
13.36,0,1,2,0,1,3,0,1
13.365,1,1,0,1,3,2,3,3
13.37,0,1,1,1,2,1,4,2
13.375,2,0,6,1,1,4,1,1
13.38,1,0,4,2,0,2,3,4
13.385,1,2,3,3,2,0,0,2
13.39,1,3,2,0,2,0,2,1
13.395,1,2,0,1,0,1,2,3
13.4,1,1,2,0,2,3,3,1
13.405,1,1,2,2,3,0,1,1
13.41,1,0,0,1,1,1,4,2
13.415,4,0,1,0,3,2,3,3
13.42,1,4,2,0,1,0,1,0
13.425,0,3,2,3,0,1,6,1
13.43,2,1,1,3,1,1,2,1
13.435,0,1,0,0,1,1,2,0
13.44,1,1,1,2,3,0,1,1
13.445,1,0,2,0,1,0,3,3
13.45,2,1,1,1,2,1,0,1
13.455,1,3,2,2,1,0,2,2
13.46,1,2,2,1,1,0,1,3
13.465,2,0,2,2,1,1,1,0
13.47,1,1,2,3,2,2,1,2
13.475,2,2,0,2,4,1,3,3
13.48,2,1,0,1,1,1,2,3
13.485,1,1,1,2,1,1,1,2
13.49,1,2,0,1,1,3,4,1
13.495,0,1,1,0,4,1,2,2
13.5,2,1,0,1,0,0,1,0
13.505,3,1,0,2,0,3,1,1
13.51,1,0,1,1,1,2,2,0
13.515,1,2,2,0,1,2,2,3
13.52,0,2,2,3,2,2,3,0
13.525,2,2,1,0,1,0,2,4
13.53,1,1,0,1,2,0,0,1
13.535,1,1,1,0,0,1,3,1
13.54,1,0,1,3,3,2,2,2
13.545,0,0,1,1,1,1,0,0
13.55,0,2,2,2,0,2,2,2
13.555,2,0,1,2,0,1,2,1
13.56,2,1,1,0,0,0,0,1
13.565,1,1,0,2,0,2,2,0
13.57,3,1,1,0,0,2,1,1
13.575,0,0,1,0,1,0,4,2
13.58,0,1,2,1,3,2,2,1
13.585,2,4,2,0,4,2,1,3
13.59,1,4,0,0,1,0,0,1
13.595,2,3,0,3,3,1,0,2
13.6,2,2,0,1,0,2,1,1
13.605,2,2,1,1,4,1,0,2
13.61,1,1,1,2,0,3,5,0
13.615,2,1,0,0,0,0,3,1
13.62,1,1,0,0,0,0,2,0
13.625,2,1,2,1,2,1,3,2
13.63,1,1,1,1,1,1,0,1
13.635,1,1,3,2,1,2,2,1
13.64,1,2,2,1,0,2,0,2
13.645,1,2,1,2,0,0,1,0
13.65,2,0,2,0,2,0,2,1
13.655,0,1,1,0,1,3,1,2
13.66,3,1,1,0,0,0,2,1
13.665,1,2,2,2,2,1,1,2
13.67,2,4,2,3,0,1,0,1
13.675,0,3,2,1,1,2,1,1
13.68,1,1,0,2,1,3,1,1
13.685,1,0,1,1,3,1,2,1
13.69,1,1,1,0,0,0,1,1
13.695,0,0,2,2,1,1,3,1
13.7,0,2,0,1,3,2,1,3
13.705,2,2,1,3,1,0,0,1
13.71,3,1,3,1,0,1,1,3
13.715,1,0,1,0,4,1,2,1
13.72,1,0,2,2,1,2,3,1
13.725,2,0,1,0,2,2,2,3
13.73,1,1,1,1,0,0,2,0
13.735,1,1,1,4,0,1,1,0
13.74,1,0,2,2,3,0,2,1
13.745,1,3,1,2,3,0,0,2
13.75,1,1,1,1,1,5,2,2
13.755,1,1,1,1,2,3,0,1
13.76,6,5,1,2,3,1,1,3
13.765,4,1,2,0,1,1,3,1
13.77,4,5,4,3,1,1,3,1
13.775,12,14,14,8,5,1,6,6
13.78,3,1,1,0,1,0,1,3
13.785,0,2,4,2,1,1,2,2
13.79,1,2,1,2,1,2,2,0
13.795,2,3,5,1,1,1,2,1
13.8,0,4,10,1,3,2,2,2
13.805,2,3,2,2,2,2,1,3
13.81,0,1,3,1,0,1,2,1
13.815,1,1,1,1,0,1,2,2
13.82,2,3,1,1,2,1,2,1
13.825,0,0,2,2,1,1,4,3
13.83,2,3,7,2,2,3,2,2
13.835,0,2,12,1,2,3,3,4
13.84,2,3,4,3,0,1,1,5
13.845,1,0,3,1,3,1,3,2
13.85,4,8,15,6,1,1,4,4
13.855,0,2,1,1,0,2,1,1
13.86,1,1,3,0,1,2,2,2
13.865,3,2,5,2,1,0,3,2
13.87,1,2,6,1,2,1,3,1
13.875,2,1,1,2,1,1,1,1
13.88,1,1,4,0,3,1,1,4
13.885,5,9,10,4,4,0,2,3
13.89,1,1,7,2,2,2,1,2
13.895,1,1,3,0,1,2,3,2
13.9,1,2,3,1,0,3,2,1
13.905,1,3,3,1,1,2,0,0
13.91,1,2,2,0,1,2,4,1
13.915,2,1,2,2,2,2,2,2
13.92,0,0,5,2,3,1,3,3
13.925,0,2,1,1,0,2,1,0
13.93,2,6,7,3,3,0,2,3
13.935,4,7,5,2,1,3,1,2
13.94,1,5,1,4,2,2,1,0
13.945,4,11,26,6,2,0,5,2
13.95,7,6,6,4,6,1,8,3
13.955,1,0,0,0,3,1,2,1
13.96,0,6,2,1,2,1,1,3
13.965,0,4,7,2,0,4,1,1
13.97,2,1,2,1,1,0,2,1
13.975,1,3,1,0,1,1,0,2
13.98,1,7,3,4,3,1,3,2
13.985,0,0,10,3,1,0,0,1
13.99,1,6,16,3,2,1,1,2
13.995,7,21,20,7,6,5,8,1
14,7,12,6,4,4,4,5,3
14.005,1,1,18,4,3,3,1,3
14.01,1,7,13,3,1,1,2,1
14.015,5,7,6,2,0,1,3,4
14.02,16,4,4,2,3,2,4,4
14.025,3,3,5,2,1,3,3,2
14.03,9,10,13,5,2,1,5,3
14.035,16,9,8,3,1,2,5,3
14.04,3,3,5,1,0,3,1,1
14.045,0,3,3,2,4,4,3,1
14.05,2,7,5,1,1,3,3,1
14.055,2,14,2,1,5,0,9,2
14.06,2,0,8,4,0,3,2,2
14.065,2,1,7,1,1,1,0,3
14.07,4,4,12,3,1,2,1,3
14.075,1,4,4,4,3,0,2,2
14.08,7,3,6,2,3,1,2,1
14.085,4,5,8,0,0,0,1,2
14.09,19,3,10,0,0,1,1,1
14.095,0,5,13,3,2,2,1,0
14.1,2,3,7,5,2,6,1,7
14.105,3,5,4,2,1,1,4,1
14.11,8,4,7,2,3,1,3,0
14.115,14,11,6,4,1,3,5,1
14.12,2,17,11,6,3,3,4,1
14.125,9,3,6,0,0,1,1,2
14.13,4,2,2,3,2,1,2,0
14.135,10,3,7,1,0,2,1,3
14.14,11,8,22,8,1,0,3,2
14.145,5,1,3,2,3,1,4,2
14.15,8,1,3,2,1,3,2,3
14.155,5,4,1,2,1,0,1,1
14.16,4,6,4,0,2,2,1,0
14.165,8,22,14,10,7,4,7,1
14.17,1,13,14,12,9,2,16,1
14.175,0,7,19,8,4,2,6,2
14.18,5,5,5,0,1,0,1,1
14.185,2,0,0,1,3,0,1,1
14.19,7,8,11,5,5,3,7,0
14.195,6,1,2,2,2,3,4,2
14.2,3,1,6,5,1,1,2,3
14.205,5,9,4,6,6,0,6,2
14.21,3,0,2,4,0,2,1,5
14.215,3,5,6,6,4,1,6,4
14.22,2,5,0,1,2,0,4,4
14.225,3,2,9,1,0,1,4,3
14.23,9,5,11,1,1,2,1,0
14.235,2,2,12,1,0,1,0,4
14.24,3,4,8,3,3,1,5,1
14.245,2,1,6,1,3,2,3,0
14.25,0,4,2,2,2,1,0,0
14.255,9,9,14,5,1,1,6,1
14.26,6,2,1,6,5,2,4,4
14.265,6,7,6,4,4,4,6,2
14.27,5,2,15,6,3,2,0,2
14.275,3,2,6,2,2,3,1,1
14.28,3,2,1,4,5,2,6,3
14.285,3,4,8,1,5,3,3,2
14.29,1,5,5,3,0,1,3,2
14.295,1,4,29,9,2,2,2,3
14.3,5,10,30,17,8,1,6,1
14.305,8,5,5,4,4,1,4,0
14.31,1,2,1,2,5,2,0,3
14.315,1,2,4,0,1,1,2,1
14.32,6,1,3,2,2,2,6,4
14.325,7,4,5,0,2,6,1,2
14.33,3,1,3,2,1,2,1,4
14.335,1,1,3,1,2,3,2,1
14.34,1,2,2,2,1,1,1,1
14.345,6,5,6,8,6,2,5,3
14.35,3,2,6,4,4,5,3,2
14.355,2,2,5,3,1,14,0,4
14.36,0,1,1,3,1,7,3,2
14.365,1,1,1,0,3,4,8,0
14.37,0,1,2,3,3,2,3,0
14.375,0,0,3,0,2,7,5,0
14.38,2,2,1,1,1,2,6,3
14.385,1,4,3,1,1,16,5,1
14.39,1,3,0,0,2,2,4,3
14.395,3,5,3,7,10,12,6,3
14.4,0,0,4,0,2,6,0,1
14.405,3,2,3,1,3,5,3,1
14.41,1,0,3,0,2,3,3,3
14.415,0,1,0,0,0,2,3,3
14.42,1,1,2,1,1,4,1,0
14.425,3,1,3,2,5,2,4,3
14.43,3,2,1,4,1,2,2,0
14.435,1,1,1,0,3,8,1,0
14.44,0,0,3,3,0,5,1,0
14.445,4,1,1,3,0,7,4,3
14.45,3,2,0,1,1,1,1,1
14.455,3,1,2,4,2,4,3,2
14.46,2,1,1,2,0,2,1,1
14.465,1,1,1,1,0,1,2,1
14.47,1,1,4,2,5,5,1,1
14.475,0,2,1,2,1,1,2,1
14.48,1,0,1,2,3,2,0,1
14.485,2,0,3,2,4,4,2,1
14.49,3,0,0,1,2,1,2,0
14.495,1,1,2,2,2,2,1,0
14.5,1,2,0,1,2,1,1,3
14.505,1,0,1,4,2,2,1,0
14.51,0,1,1,1,0,0,3,1
14.515,0,1,1,0,0,1,1,2
14.52,1,2,1,3,1,4,2,0
14.525,1,2,0,1,3,2,1,1
14.53,3,1,5,5,1,2,4,5
14.535,1,0,1,5,3,2,4,2
14.54,1,1,2,1,1,3,1,2
14.545,2,2,1,3,2,1,2,1
14.55,0,1,1,1,1,2,0,3
14.555,0,2,1,4,2,1,3,2
14.56,0,0,3,1,0,1,2,3
14.565,1,0,2,3,0,1,5,0
14.57,1,1,1,0,2,1,1,0
14.575,0,1,1,1,1,2,3,1
14.58,3,1,3,2,0,1,0,0
14.585,1,1,2,2,1,5,2,4
14.59,1,3,3,2,2,1,2,1
14.595,1,0,2,3,2,0,1,0
14.6,0,0,1,5,0,1,1,1
14.605,3,1,3,6,3,2,4,3
14.61,2,0,1,1,2,1,3,1
14.615,3,4,7,8,7,6,4,4
14.62,0,1,3,5,4,4,2,1
14.625,1,2,8,10,6,10,0,1
14.63,1,1,1,5,5,4,2,1
14.635,0,1,2,1,2,0,0,1
14.64,2,4,3,4,0,4,2,1
14.645,0,0,0,1,1,1,2,2
14.65,3,3,1,0,2,1,0,1
14.655,1,2,5,3,3,1,3,1
14.66,2,1,2,0,2,2,0,1
14.665,1,1,1,1,2,3,2,1
14.67,1,1,3,5,2,4,2,0
14.675,2,1,1,2,2,2,1,1
14.68,2,2,0,4,4,4,2,1
14.685,1,1,1,1,4,0,3,3
14.69,1,4,4,4,2,1,3,1
14.695,1,1,2,0,0,1,1,3
14.7,3,0,2,1,5,0,0,1
14.705,1,1,0,1,2,2,1,0
14.71,0,1,0,1,0,2,0,2
14.715,2,2,1,1,1,1,1,0
14.72,1,2,0,4,2,0,1,1
14.725,3,3,4,5,0,3,2,0
14.73,2,2,2,0,4,1,1,0
14.735,0,1,2,1,4,1,1,1
14.74,2,3,2,2,3,0,1,2
14.745,1,2,2,1,2,2,0,3
14.75,0,0,0,0,3,2,1,0
14.755,1,3,1,1,0,3,1,2
14.76,1,1,0,0,0,1,1,3
14.765,2,1,0,2,3,0,1,1
14.77,3,2,2,2,1,1,0,1
14.775,0,2,0,2,0,3,0,1
14.78,1,2,2,1,4,1,3,0
14.785,1,2,0,1,1,1,2,0
14.79,1,1,0,2,3,1,3,3
14.795,2,0,2,1,1,2,1,0
14.8,3,0,0,3,3,2,2,1
14.805,2,2,1,1,2,1,2,3
14.81,1,3,1,2,3,3,2,2
14.815,2,2,0,1,2,1,1,0
14.82,0,0,1,2,1,1,2,1
14.825,1,1,1,1,4,1,2,2
14.83,3,2,2,1,1,2,1,0
14.835,1,1,2,1,2,2,2,3
14.84,2,0,2,3,0,1,2,2
14.845,2,2,0,3,1,2,1,1
14.85,2,0,1,2,1,1,2,2
14.855,1,2,3,0,3,2,4,4
14.86,1,1,2,0,2,1,1,3
14.865,1,0,3,3,1,1,3,3
14.87,0,3,0,2,3,0,3,1
14.875,0,1,0,1,2,2,1,0
14.88,1,1,2,0,1,2,2,1
14.885,2,1,1,3,2,1,2,1
14.89,0,0,1,3,3,4,3,1
14.895,1,3,3,0,0,1,2,2
14.9,1,3,2,0,0,3,1,0
14.905,1,0,0,1,4,2,2,1
14.91,0,1,1,2,2,1,1,0
14.915,2,2,1,0,3,3,2,2
14.92,3,4,6,4,2,0,3,3
14.925,1,1,0,4,4,2,3,2
14.93,1,2,1,8,2,2,1,2
14.935,1,0,1,1,6,4,1,0
14.94,4,1,1,2,2,0,2,1
14.945,1,4,0,4,0,2,2,2
14.95,0,1,1,1,2,2,1,1
14.955,0,2,1,0,3,3,2,2
14.96,1,1,1,1,1,1,0,0
14.965,1,2,1,2,1,2,3,1
14.97,1,2,0,1,0,1,0,0
14.975,2,0,1,3,3,2,0,1
14.98,1,1,1,1,0,1,0,1
14.985,3,1,1,3,2,1,3,2
14.99,2,2,0,2,2,1,0,1
14.995,1,1,4,0,2,1,0,3
15,2,1,1,0,1,0,1,1
15.005,1,2,1,3,0,1,2,0
15.01,1,0,0,2,3,0,3,1
15.015,3,3,1,2,1,0,2,3
15.02,0,1,1,0,2,1,0,0
15.025,2,2,1,2,1,0,0,3
15.03,0,0,1,0,2,1,2,3
15.035,0,3,0,2,0,4,0,0
15.04,1,1,2,1,1,2,1,0
15.045,0,2,2,0,1,1,2,2
15.05,1,1,1,1,1,2,2,1
15.055,1,1,1,1,3,0,2,1
15.06,2,2,0,3,0,3,0,1
15.065,1,1,1,0,1,1,2,1
15.07,0,0,1,1,1,2,3,2
15.075,1,1,0,2,3,1,0,1
15.08,2,2,3,2,2,2,2,4
15.085,3,2,1,1,1,2,2,3
15.09,2,2,1,0,2,1,3,2
15.095,0,2,1,1,2,2,1,2
15.1,1,1,1,0,2,0,1,0
15.105,1,0,0,3,0,3,1,0
15.11,1,2,3,3,1,2,1,0
15.115,3,2,1,0,0,3,3,4
15.12,0,1,0,0,1,2,2,0
15.125,2,1,1,1,3,0,0,0
15.13,1,1,1,1,1,1,0,1
15.135,1,0,2,2,2,3,0,1
15.14,1,3,4,3,2,0,0,2
15.145,1,0,0,1,2,2,0,1
15.15,3,1,0,0,4,1,3,0
15.155,0,1,1,1,2,2,1,2
15.16,1,0,1,2,1,1,3,3
15.165,0,1,1,1,1,1,1,1
15.17,0,1,0,1,3,1,1,1
15.175,0,2,0,1,0,2,2,2
15.18,1,1,1,2,2,0,3,2
15.185,2,1,2,2,3,0,2,2
15.19,2,0,1,1,3,2,1,0
15.195,0,0,2,0,0,0,2,1
15.2,0,1,1,1,3,1,1,1
15.205,0,2,1,1,3,2,1,2
15.21,3,1,2,2,1,1,1,1
15.215,2,1,0,1,2,1,1,1
15.22,3,1,0,1,2,1,2,1
15.225,1,1,1,0,1,1,1,1
15.23,0,1,0,0,2,2,1,0
15.235,1,3,0,2,1,3,2,1
15.24,0,1,2,2,1,2,2,2
15.245,2,0,1,0,1,1,4,2
15.25,0,1,1,1,1,2,1,1
15.255,1,2,1,0,1,0,2,2
15.26,0,2,1,0,1,0,1,0
15.265,2,1,2,0,1,1,1,1
15.27,1,0,2,3,2,3,0,1
15.275,1,1,1,1,3,0,1,2
15.28,1,0,0,1,1,2,1,0
15.285,2,1,1,0,1,0,2,2
15.29,0,1,2,1,1,2,1,0
15.295,3,2,2,1,2,0,4,0
15.3,0,2,2,3,1,3,1,3
15.305,0,1,2,0,3,1,4,2
15.31,3,1,0,2,1,0,2,0
15.315,0,0,1,1,1,0,2,1
15.32,2,0,2,1,2,0,1,0
15.325,0,3,1,3,2,1,1,0
15.33,0,0,0,1,0,2,1,2
15.335,1,0,2,1,0,0,2,2
15.34,1,1,0,1,2,2,3,2
15.345,0,1,1,1,2,1,1,0
15.35,2,2,0,1,0,1,2,0
15.355,2,3,1,0,3,0,0,1
15.36,2,0,2,1,1,1,1,2
15.365,1,1,2,3,2,2,2,0
15.37,0,2,1,1,2,1,3,1
15.375,0,2,1,0,1,0,2,2
15.38,1,2,1,1,0,2,0,2
15.385,0,0,1,2,1,0,1,0
15.39,1,0,0,3,1,1,1,0
15.395,0,0,0,1,4,2,2,1
15.4,2,2,2,2,0,1,1,0
15.405,2,0,2,0,0,1,1,1
15.41,1,0,1,0,0,1,0,0
15.415,2,0,2,1,1,1,1,1
15.42,2,2,1,1,1,0,1,2
15.425,1,1,2,1,3,1,1,2
15.43,2,0,0,0,0,2,2,1
15.435,0,1,0,1,0,2,1,1
15.44,1,1,1,0,2,1,2,1
15.445,3,2,0,1,1,0,1,0
15.45,2,0,1,0,2,2,3,3
15.455,1,2,2,0,1,0,3,1
15.46,0,3,1,1,1,1,0,1
15.465,0,1,1,1,1,2,2,1
15.47,1,1,2,1,2,0,1,0
15.475,2,2,2,1,2,1,1,0
15.48,1,1,2,1,0,0,2,1
15.485,2,1,1,2,2,1,1,1
15.49,0,1,1,3,2,1,2,4
15.495,0,0,0,2,0,0,2,4
15.5,0,0,2,0,1,1,2,0
15.505,1,2,1,0,2,3,0,1
15.51,3,1,2,2,1,1,0,2
15.515,3,0,1,2,1,1,0,1
15.52,2,1,1,1,0,2,2,1
15.525,1,1,1,2,1,0,2,2
15.53,1,2,1,2,0,0,1,1
15.535,1,2,2,2,2,2,1,2
15.54,1,0,1,2,1,0,2,1
15.545,1,0,3,1,2,2,2,2
15.55,2,2,3,2,0,0,2,0
15.555,1,1,1,1,0,2,2,2
15.56,1,0,0,0,1,3,1,0
15.565,0,2,2,1,1,0,1,0
15.57,1,1,3,1,1,0,2,1
15.575,0,0,1,2,0,1,4,3
15.58,2,2,1,1,0,1,0,1
15.585,0,0,0,1,1,2,4,2
15.59,1,1,0,1,0,3,1,1
15.595,2,2,1,1,1,0,1,1
15.6,1,0,0,1,2,1,2,3
15.605,1,2,1,3,1,1,1,3
15.61,2,1,1,0,2,1,3,1
15.615,1,0,2,2,0,3,2,1
15.62,0,0,1,2,2,1,0,0
15.625,1,2,1,1,0,0,0,1
15.63,0,1,2,1,1,2,1,1
15.635,1,1,1,1,1,0,2,2
15.64,1,3,1,1,2,1,2,2
15.645,1,0,0,0,1,2,1,1
15.65,2,2,1,1,1,0,1,2
15.655,1,1,1,3,1,0,1,1
15.66,1,1,1,1,0,3,0,2
15.665,3,1,0,1,3,0,2,2
15.67,0,2,2,0,1,1,1,1
15.675,1,2,0,2,4,1,0,3
15.68,1,1,2,3,1,1,2,1
15.685,2,2,1,1,0,1,3,2
15.69,2,1,1,2,1,1,0,0
15.695,0,2,0,2,1,0,3,2
15.7,0,0,2,1,2,1,2,2
15.705,1,1,1,0,2,1,1,1
15.71,2,1,0,2,1,1,0,1
15.715,0,0,1,1,3,0,2,1
15.72,1,0,1,1,1,1,1,1
15.725,0,1,2,2,2,1,3,1
15.73,0,1,2,2,1,0,3,0
15.735,1,1,3,1,0,1,0,2
15.74,0,1,0,2,0,3,1,1
15.745,2,1,1,0,1,1,0,2
15.75,3,2,1,0,1,0,1,1
15.755,2,2,0,1,0,1,1,2
15.76,3,1,1,1,2,3,3,1
15.765,1,1,2,2,1,1,1,0
15.77,2,2,2,2,1,2,2,1
15.775,1,2,1,1,0,2,1,3
15.78,1,2,0,1,3,2,3,2
15.785,1,0,1,1,3,0,0,1
15.79,1,1,1,0,0,1,1,0
15.795,1,0,0,0,0,1,1,0
15.8,0,1,0,0,0,1,1,2
15.805,0,2,1,1,1,1,1,2
15.81,2,1,1,2,2,0,2,0
15.815,1,2,1,0,1,2,1,1
15.82,2,1,2,2,0,1,3,2
15.825,1,2,2,2,0,1,1,0
15.83,2,0,0,2,1,1,0,3
15.835,1,0,1,1,2,3,1,0
15.84,2,3,2,0,2,1,1,3
15.845,1,2,1,0,2,1,1,4
15.85,0,2,0,0,1,3,1,1
15.855,1,2,2,2,0,1,1,2
15.86,0,0,0,1,2,1,0,3
15.865,1,0,3,0,0,2,0,0
15.87,1,0,0,0,3,1,4,1
15.875,2,0,1,1,0,1,0,0
15.88,1,1,0,2,1,2,1,1
15.885,1,2,0,3,1,3,1,1
15.89,0,1,2,2,2,0,1,3
15.895,0,2,1,2,1,3,1,2
15.9,3,1,1,2,2,1,3,1
15.905,1,2,2,0,0,0,3,1
15.91,1,3,0,0,1,0,1,0
15.915,2,1,0,1,1,2,0,2
15.92,1,1,1,0,1,2,1,2
15.925,1,1,0,0,2,1,1,1
15.93,1,0,3,1,1,0,1,3
15.935,1,1,2,0,1,1,2,4
15.94,2,0,1,0,0,4,1,0
15.945,2,0,2,3,2,1,1,1
15.95,0,3,1,1,1,1,1,1
15.955,1,2,0,0,1,0,3,3
15.96,0,1,1,1,2,0,2,1
15.965,2,2,2,1,3,1,4,0
15.97,2,1,2,1,1,3,1,1
15.975,1,1,1,2,3,2,3,0
15.98,1,1,3,0,0,1,1,2
15.985,0,1,3,4,0,1,1,0
15.99,1,0,0,2,1,2,2,0
15.995,0,0,1,1,2,3,1,2
16,1,2,1,0,2,1,0,1
16.005,1,0,1,1,2,1,0,3
16.01,1,3,2,1,0,1,1,2
16.015,1,2,1,3,1,2,2,1
16.02,0,0,2,2,2,1,1,0
16.025,1,2,1,1,1,2,1,3
16.03,1,0,1,0,1,2,0,0
16.035,0,0,2,1,1,0,1,1
16.04,2,1,0,1,0,3,4,3
16.045,1,0,1,0,2,0,2,1
16.05,2,2,0,1,1,1,1,2
16.055,1,2,2,1,1,0,1,2
16.06,1,1,1,1,3,2,2,0
16.065,2,0,2,0,0,1,3,0
16.07,0,2,1,1,3,0,0,1
16.075,0,2,1,0,0,1,4,0
16.08,1,1,0,1,3,2,2,0
16.085,2,2,2,0,1,0,2,2
16.09,1,1,1,1,2,1,3,1
16.095,2,1,0,2,2,0,0,3
16.1,0,2,0,1,1,2,1,1
16.105,2,1,0,1,2,1,1,0
16.11,1,0,2,0,2,1,1,1
16.115,1,2,0,3,3,2,2,1
16.12,3,2,1,0,1,1,2,1
16.125,1,2,0,1,2,0,0,1
16.13,0,3,1,1,1,0,3,2
16.135,1,0,1,0,2,2,2,1
16.14,2,0,0,1,4,1,1,1
16.145,1,1,0,1,3,1,3,0
16.15,1,1,1,0,1,1,0,0
16.155,2,3,0,1,1,1,0,1
16.16,1,0,1,2,1,0,0,2
16.165,1,2,0,2,0,1,1,1
16.17,1,1,3,2,1,1,2,1
16.175,2,0,2,1,1,1,1,1
16.18,1,0,3,2,2,1,0,2
16.185,2,2,0,3,1,4,0,1
16.19,0,1,2,1,4,3,2,2
16.195,2,1,2,2,3,1,0,0
16.2,2,3,1,0,0,0,1,3
16.205,1,0,2,2,3,1,0,3
16.21,1,1,0,4,3,1,1,3
16.215,0,0,3,0,1,1,1,1
16.22,2,2,0,0,1,1,0,0
16.225,1,2,2,2,1,0,1,0
16.23,0,0,1,1,1,1,1,3
16.235,0,1,1,1,0,1,0,2
16.24,1,2,2,1,2,1,0,2
16.245,2,1,2,2,0,0,2,0
16.25,1,2,1,2,0,2,0,1
16.255,2,2,2,2,1,2,1,0
16.26,1,2,2,1,2,3,0,2
16.265,0,0,2,1,4,1,3,2
16.27,1,2,0,2,2,3,1,3
16.275,2,1,1,1,1,2,0,2
16.28,1,2,0,2,0,1,0,1
16.285,2,3,1,1,0,2,0,0
16.29,3,2,0,2,1,1,3,3
16.295,0,0,2,1,1,2,1,1
16.3,1,1,1,3,3,1,1,1
16.305,1,1,2,0,1,1,1,3
16.31,2,1,2,1,1,0,0,1
16.315,0,1,1,0,0,2,1,3
16.32,0,1,1,3,1,2,2,3
16.325,0,0,0,1,3,1,0,3
16.33,1,0,1,2,0,1,2,0
16.335,2,3,1,1,1,1,2,2
16.34,1,1,1,1,3,2,2,0
16.345,1,1,0,3,2,0,2,3
16.35,2,1,1,1,1,1,1,1
16.355,0,2,2,3,1,2,3,1
16.36,1,0,0,1,0,0,1,1
16.365,1,1,1,2,1,1,0,1
16.37,1,0,2,3,1,0,3,0
16.375,2,1,0,1,3,0,1,2
16.38,3,2,2,1,1,1,1,2
16.385,0,1,1,1,0,1,1,1
16.39,0,2,1,1,2,1,2,0
16.395,1,0,0,1,2,0,2,0
16.4,0,0,1,3,3,1,2,5
16.405,2,1,2,1,1,2,0,1
16.41,2,1,1,1,0,3,0,0
16.415,3,1,2,3,0,2,0,1
16.42,0,1,2,1,1,0,2,1
16.425,0,3,2,1,3,1,1,0
16.43,0,0,2,1,1,1,0,1
16.435,2,2,1,2,1,2,3,0
16.44,2,2,2,1,0,2,3,1
16.445,0,1,1,1,1,1,2,0
16.45,1,1,0,1,3,1,2,1
16.455,1,1,1,1,1,0,0,4
16.46,0,0,1,1,0,0,3,1
16.465,0,1,2,1,1,0,3,3
16.47,2,1,1,2,0,0,0,1
16.475,1,1,3,0,5,1,3,1
16.48,2,0,1,1,0,1,2,1
16.485,1,1,2,2,1,2,1,0
16.49,1,1,1,1,1,0,1,1
16.495,2,3,1,1,0,0,2,2
16.5,0,2,0,1,2,2,1,1
16.505,2,1,1,1,5,1,3,0
16.51,3,1,2,0,2,1,0,3
16.515,1,3,4,2,1,1,1,1
16.52,1,1,1,1,0,1,1,0
16.525,2,1,0,1,1,1,3,3
16.53,3,2,1,3,3,5,0,0
16.535,1,1,0,1,2,0,0,1
16.54,3,1,0,0,2,2,3,0
16.545,1,0,1,1,0,3,1,2
16.55,0,1,1,1,2,1,1,1
16.555,2,0,0,1,0,1,1,2
16.56,0,2,1,1,2,4,3,0
16.565,0,2,2,1,0,2,0,1
16.57,1,2,1,2,0,1,5,3
16.575,1,2,3,1,2,1,0,0
16.58,2,1,2,1,1,0,0,3
16.585,2,3,0,2,2,1,2,2
16.59,0,1,1,3,1,0,2,1
16.595,1,0,1,1,2,1,3,3
16.6,2,0,3,1,4,2,0,2
16.605,1,1,0,2,0,2,1,1
16.61,0,2,4,2,1,0,1,1
16.615,1,1,1,1,1,2,3,1
16.62,0,2,2,1,1,0,2,0
16.625,1,1,3,0,0,2,1,3
16.63,2,0,1,2,1,1,1,1
16.635,2,2,2,1,1,0,2,1
16.64,1,2,0,3,0,0,0,2
16.645,0,0,2,1,1,3,0,0
16.65,1,3,0,0,3,3,0,1
16.655,2,1,2,1,3,3,1,1
16.66,0,1,1,2,0,1,2,1
16.665,0,1,0,0,2,1,1,0
16.67,0,3,0,2,2,0,3,1
16.675,1,1,2,1,0,1,1,0
16.68,2,1,1,1,1,1,1,1
16.685,3,0,2,1,2,1,1,0
16.69,1,1,2,0,1,2,3,1
16.695,1,1,0,1,3,1,1,4
16.7,2,1,1,0,0,2,1,3
16.705,1,1,2,1,2,2,5,0
16.71,2,1,1,1,5,1,0,0
16.715,2,1,3,1,0,2,0,1
16.72,1,0,0,1,1,2,0,0
16.725,1,1,0,2,2,1,2,3
16.73,1,1,1,1,1,0,1,2
16.735,0,0,1,1,3,3,1,2
16.74,1,1,1,1,2,1,1,1
16.745,2,1,1,2,1,2,3,1
16.75,2,0,2,1,2,2,0,1
16.755,1,4,1,1,1,1,2,3
16.76,1,0,2,1,2,3,1,1
16.765,1,1,2,1,0,0,0,3
16.77,2,3,0,2,2,0,0,2
16.775,2,0,0,0,0,0,0,0
16.78,0,1,2,2,3,1,1,1
16.785,1,2,0,0,1,1,2,1
16.79,0,2,0,1,1,2,1,1
16.795,2,1,1,0,3,2,4,1
16.8,0,3,2,1,2,0,0,3
16.805,1,0,2,3,3,3,1,1
16.81,2,1,1,2,0,1,2,1
16.815,2,1,0,2,3,1,3,1
16.82,2,0,1,1,2,1,3,1
16.825,0,1,1,2,0,2,1,2
16.83,0,1,1,0,2,3,1,0
16.835,3,2,2,3,0,4,0,0
16.84,2,1,1,1,1,1,1,1
16.845,1,1,3,1,3,0,0,2
16.85,2,1,1,2,0,1,4,3
16.855,2,0,1,1,2,1,3,2
16.86,2,2,1,3,2,2,0,0
16.865,1,1,0,1,2,0,2,1
16.87,0,3,1,0,1,1,0,2
16.875,1,0,1,3,0,2,3,3
16.88,0,2,0,3,1,0,2,3
16.885,2,1,1,1,1,1,1,2
16.89,0,0,2,4,3,2,1,5
16.895,2,0,1,0,1,1,0,2
16.9,0,1,1,1,0,0,1,1
16.905,1,1,0,3,1,1,2,0
16.91,2,2,0,1,3,1,2,0
16.915,1,1,1,0,1,1,1,0
16.92,0,1,1,1,2,0,2,2
16.925,0,1,0,2,3,0,1,3
16.93,1,1,1,2,1,0,2,1
16.935,2,1,1,1,2,1,1,2
16.94,0,1,2,1,1,1,1,1
16.945,2,2,0,2,0,1,4,2
16.95,2,1,2,0,0,1,3,2
16.955,0,1,2,2,3,1,3,0
16.96,1,1,1,0,3,2,1,1
16.965,1,1,1,2,0,2,2,2
16.97,3,2,0,1,4,1,0,2
16.975,1,1,1,2,0,0,1,1
16.98,1,2,1,0,1,1,1,2
16.985,2,2,2,1,3,1,1,3
16.99,0,0,1,1,2,3,1,2
16.995,1,1,2,1,1,1,1,3
17,0,1,1,1,1,2,0,0
17.005,1,2,1,0,1,1,0,2
17.01,1,1,2,0,2,1,1,0
17.015,1,1,0,0,1,3,1,1
17.02,2,1,1,0,2,1,0,3
17.025,1,1,1,0,0,2,0,2
17.03,0,1,2,2,1,0,1,4
17.035,2,1,1,2,2,0,0,1
17.04,1,1,2,2,0,1,0,3
17.045,0,1,2,1,2,2,2,1
17.05,1,2,1,0,1,2,2,3
17.055,1,3,1,0,2,2,1,0
17.06,2,0,3,1,1,1,0,1
17.065,1,1,0,0,1,0,1,0
17.07,0,3,1,2,1,4,2,2
17.075,2,0,3,1,0,1,0,4
17.08,2,1,1,2,1,2,2,2
17.085,2,1,2,1,3,1,2,3
17.09,2,1,0,2,1,2,3,1
17.095,1,3,1,1,2,0,0,1
17.1,1,3,3,3,0,1,1,2
17.105,1,2,0,3,0,0,0,2
17.11,1,2,1,2,2,1,1,1
17.115,1,1,1,0,2,3,2,0
17.12,0,1,1,2,0,1,2,1
17.125,1,1,1,1,0,0,0,1
17.13,1,1,0,1,2,1,0,1
17.135,1,1,2,0,0,0,1,1
17.14,1,2,2,0,2,2,1,0
17.145,1,1,2,1,1,2,1,2
17.15,1,2,1,3,3,1,1,3
17.155,1,2,0,1,0,3,2,2
17.16,2,2,1,3,0,1,0,1
17.165,2,2,2,3,0,0,1,3
17.17,2,1,2,2,1,0,0,0
17.175,1,3,1,0,1,0,1,0
17.18,0,0,1,2,2,2,2,1
17.185,1,1,1,1,2,2,1,2
17.19,1,1,0,1,2,1,1,2
17.195,2,2,3,1,1,0,1,2
17.2,2,0,2,1,1,3,0,2
17.205,3,2,1,4,2,0,3,2
17.21,0,1,4,1,0,2,0,0
17.215,0,0,1,1,3,0,1,2
17.22,1,1,0,2,2,0,0,3
17.225,1,3,1,0,0,1,1,2
17.23,2,2,0,1,3,1,0,1
17.235,1,1,2,2,0,2,4,1
17.24,1,0,2,1,2,2,4,1
17.245,1,1,2,1,1,1,2,0
17.25,2,2,1,0,2,1,3,0
17.255,3,3,1,1,1,1,2,5
17.26,2,1,0,2,1,1,2,3
17.265,0,0,1,1,4,1,0,1
17.27,0,0,2,1,0,3,3,0
17.275,0,0,0,2,2,2,2,2
17.28,1,1,0,2,2,0,3,2
17.285,2,1,1,2,2,2,1,2
17.29,1,2,1,1,1,3,1,0
17.295,1,0,1,0,2,2,0,0
17.3,1,0,0,0,1,0,0,3
17.305,0,1,1,2,0,0,1,1
17.31,3,1,0,2,1,1,1,1
17.315,1,1,3,0,1,3,3,2
17.32,1,2,1,1,2,3,2,0
17.325,1,1,2,1,3,1,4,3
17.33,1,0,2,3,2,3,1,3
17.335,2,3,1,1,4,1,1,1
17.34,4,2,0,2,1,1,0,1
17.345,2,4,0,0,1,3,1,0
17.35,0,0,1,1,0,0,1,1
17.355,2,1,1,1,1,2,5,1
17.36,0,0,1,0,0,1,2,1
17.365,2,1,4,1,0,0,0,1
17.37,1,3,2,1,0,0,1,2
17.375,0,1,2,0,2,0,1,1
17.38,0,4,1,0,2,2,2,0
17.385,0,0,1,0,2,2,3,2
17.39,1,1,1,0,2,1,1,1
17.395,2,1,1,1,2,0,1,1
17.4,2,4,2,0,1,1,2,3
17.405,1,1,0,0,1,1,2,2
17.41,2,1,1,1,1,1,3,2
17.415,0,0,1,2,1,2,1,3
17.42,1,1,2,0,1,2,2,0
17.425,3,1,1,0,1,1,1,2
17.43,2,1,0,1,1,1,0,1
17.435,0,2,1,0,2,2,1,1
17.44,2,1,2,2,1,2,1,0
17.445,1,3,0,0,1,0,2,1
17.45,1,1,2,1,1,1,1,1
17.455,0,0,0,1,1,0,0,1
17.46,0,1,0,2,2,0,0,1
17.465,0,1,1,0,2,0,5,3
17.47,1,3,1,2,2,3,1,0
17.475,3,1,1,2,2,2,2,1
17.48,1,1,1,0,2,2,3,4
17.485,2,0,0,2,3,1,0,1
17.49,1,0,1,0,1,3,0,2
17.495,3,2,2,2,0,3,1,1
17.5,2,1,0,0,2,2,1,1
17.505,1,2,1,2,1,0,3,2
17.51,0,1,2,1,1,0,0,2
17.515,1,1,0,2,0,1,1,1
17.52,1,0,1,1,1,3,0,1
17.525,1,0,0,2,3,3,2,1
17.53,1,0,0,0,1,1,2,1
17.535,1,1,1,1,1,1,1,2
17.54,1,1,0,2,1,0,2,3
17.545,1,1,0,2,1,2,0,2
17.55,1,4,0,1,0,2,3,1
17.555,1,1,2,1,1,3,1,1
17.56,2,1,3,0,1,2,3,1
17.565,2,2,2,2,1,1,1,1
17.57,2,2,1,0,2,0,1,2
17.575,0,3,2,0,1,0,3,2
17.58,1,1,0,1,1,1,0,0
17.585,0,1,2,0,0,1,1,3
17.59,2,1,2,0,4,3,0,2
17.595,1,1,2,0,2,1,1,2
17.6,1,0,3,2,2,2,3,0
17.605,0,1,1,0,1,0,1,2
17.61,0,0,1,2,0,1,1,1
17.615,2,1,1,2,3,2,2,1
17.62,1,2,0,0,1,1,2,1
17.625,2,3,1,1,3,0,1,1
17.63,2,2,1,2,0,1,2,2
17.635,2,2,2,1,4,1,2,2
17.64,1,0,2,1,0,0,3,1
17.645,1,2,2,0,1,0,2,1
17.65,0,0,1,1,0,2,1,1
17.655,0,0,1,1,0,3,3,3
17.66,3,1,2,0,3,2,3,2
17.665,1,0,2,1,3,3,1,3
17.67,1,0,1,1,2,1,3,1
17.675,2,0,0,2,0,1,2,2
17.68,1,0,2,1,2,1,0,1
17.685,0,0,3,2,2,1,1,1
17.69,1,2,1,1,1,1,1,1
17.695,1,2,1,0,1,0,2,2
17.7,1,2,1,1,2,1,2,0
17.705,2,2,2,1,1,2,1,1
17.71,2,1,0,1,1,2,0,4
17.715,2,2,1,0,2,1,0,1
17.72,0,1,0,2,1,1,0,2
17.725,0,1,1,1,1,2,0,1
17.73,3,0,1,1,1,1,1,1
17.735,1,2,0,1,3,0,2,0
17.74,3,1,1,2,2,0,1,1
17.745,1,0,1,1,1,1,1,1
17.75,2,3,1,0,0,1,1,1
17.755,2,1,3,1,0,2,2,2
17.76,1,2,1,0,1,0,1,2
17.765,1,2,0,0,0,0,0,0
17.77,0,2,2,2,3,1,2,1
17.775,1,1,0,2,1,1,1,1
17.78,1,3,1,2,2,1,2,3
17.785,2,2,1,1,1,1,1,2
17.79,1,1,2,2,2,2,2,0
17.795,1,2,1,2,0,1,0,0
17.8,1,1,2,0,1,1,1,1
17.805,1,0,0,2,2,4,1,1
17.81,1,0,1,1,1,0,0,1
17.815,2,1,0,1,2,1,0,0
17.82,2,2,1,1,1,0,2,1
17.825,2,2,2,0,2,0,1,1
17.83,1,0,1,1,0,1,1,1
17.835,2,1,1,2,1,1,2,2
17.84,2,1,2,3,1,0,0,0
17.845,1,1,1,1,1,2,2,3
17.85,0,0,2,3,0,3,0,1
17.855,1,0,1,0,1,1,1,3
17.86,2,0,2,3,2,2,2,1
17.865,0,0,1,2,1,0,2,1
17.87,1,1,1,2,1,0,1,1
17.875,1,1,2,2,1,2,0,2
17.88,0,1,0,0,0,1,1,3
17.885,2,0,0,1,1,0,0,1
17.89,2,0,1,1,2,1,3,3
17.895,1,1,2,1,1,1,1,0
17.9,1,0,1,1,1,1,1,0
17.905,1,3,0,2,3,1,3,2
17.91,1,1,0,0,3,3,3,1
17.915,0,2,1,1,3,0,1,3
17.92,1,1,1,1,0,2,1,1
17.925,1,0,1,3,0,3,2,0
17.93,2,1,1,1,0,1,3,1
17.935,1,1,1,1,2,1,2,1
17.94,1,1,1,2,3,1,1,0
17.945,2,1,0,0,0,1,2,1
17.95,1,2,1,3,2,2,3,0
17.955,0,2,1,0,1,2,1,1
17.96,1,1,1,0,0,2,0,3
17.965,0,1,0,0,2,1,2,0
17.97,1,1,1,2,5,2,0,4
17.975,1,0,2,2,2,1,2,0
17.98,3,2,0,1,2,0,1,1
17.985,1,2,2,3,0,2,1,3
17.99,1,1,2,0,1,0,4,0
17.995,1,1,1,1,2,0,0,1
18,2,1,1,1,3,4,2,2
18.005,2,0,2,1,4,2,0,1
18.01,2,0,1,1,1,1,3,0
18.015,2,1,1,0,1,2,1,2
18.02,1,2,1,1,3,1,5,1
18.025,1,1,1,0,0,1,2,1
18.03,0,2,1,1,2,2,1,0
18.035,0,2,1,2,1,2,2,1
18.04,1,2,1,4,1,2,1,1
18.045,0,0,2,2,1,3,5,2
18.05,2,2,2,1,2,0,0,1
18.055,1,1,1,4,1,1,0,1
18.06,1,2,1,1,3,0,2,1
18.065,0,1,2,0,0,1,2,2
18.07,1,1,1,2,2,1,2,1
18.075,1,1,1,2,0,1,0,3
18.08,2,1,3,3,1,1,0,1
18.085,0,2,1,2,0,1,2,1
18.09,0,1,0,1,1,1,3,0
18.095,2,2,1,1,2,2,3,1
18.1,0,1,0,1,1,0,1,0
18.105,1,4,2,1,0,0,1,3
18.11,0,0,2,1,0,1,1,0
18.115,1,2,2,1,3,2,3,1
18.12,0,1,1,1,0,2,1,0
18.125,1,1,0,0,0,1,0,1
18.13,1,3,3,1,0,2,0,3
18.135,1,1,1,0,1,1,1,2
18.14,1,0,1,1,0,0,1,1
18.145,1,0,2,1,2,1,0,1
18.15,1,2,1,2,2,2,3,3
18.155,1,0,2,1,0,1,2,0
18.16,0,3,1,2,3,2,2,4
18.165,2,1,1,0,1,2,0,2
18.17,0,3,2,1,1,2,1,1
18.175,1,2,1,2,1,2,1,3
18.18,1,0,3,1,4,1,0,4
18.185,2,0,1,0,2,3,2,1
18.19,1,3,1,1,3,1,1,0
18.195,0,1,1,1,2,1,0,0
18.2,0,1,2,2,2,1,1,1
18.205,1,0,0,1,3,0,3,3
18.21,2,0,0,2,2,2,2,3
18.215,0,1,2,0,1,3,0,2
18.22,1,1,2,1,0,0,3,1
18.225,2,1,1,2,2,0,0,1
18.23,1,1,1,0,2,1,1,1
18.235,2,0,0,1,2,0,1,1
18.24,1,1,1,1,0,2,2,0
18.245,1,2,0,0,0,1,1,1
18.25,0,0,0,1,0,1,1,2
18.255,2,1,1,2,3,2,1,1
18.26,2,2,1,0,3,0,2,2
18.265,2,1,1,2,1,1,1,1
18.27,3,1,0,1,0,2,1,4
18.275,3,1,0,2,1,1,1,0
18.28,2,0,1,0,1,2,2,1
18.285,0,1,1,3,1,0,1,0
18.29,0,0,2,1,5,3,3,2
18.295,0,3,0,2,3,0,2,2
18.3,2,2,1,1,1,3,1,1
18.305,1,0,1,0,0,0,1,1
18.31,2,2,3,2,0,1,1,2
18.315,1,1,1,3,1,1,1,0
18.32,0,1,1,1,0,0,2,0
18.325,1,2,2,1,1,2,0,1
18.33,1,0,3,1,3,1,2,1
18.335,0,3,0,0,0,0,1,1
18.34,2,2,2,2,1,2,0,0
18.345,3,2,1,2,2,2,2,0
18.35,1,0,1,0,0,1,2,1
18.355,1,1,0,1,3,1,2,1
18.36,0,1,0,1,1,2,1,0
18.365,1,1,2,1,3,2,0,3
18.37,0,1,2,2,1,0,3,1
18.375,2,0,2,0,2,0,2,4
18.38,0,1,1,1,3,0,4,2
18.385,0,2,2,1,3,1,3,1
18.39,3,1,2,1,2,1,3,0
18.395,1,2,0,0,1,0,0,2
18.4,2,2,1,1,0,1,2,1
18.405,1,2,1,1,2,1,2,2
18.41,0,2,1,2,3,1,0,2
18.415,2,1,1,2,2,2,3,1
18.42,1,2,2,1,1,2,1,2
18.425,1,0,1,1,1,1,0,3
18.43,1,1,1,2,1,3,1,0
18.435,2,0,2,2,3,2,3,1
18.44,1,1,1,0,1,0,1,3
18.445,2,1,1,2,0,3,1,0
18.45,3,3,2,1,2,3,1,3
18.455,2,2,1,1,2,1,1,2
18.46,1,2,2,2,3,3,1,1
18.465,0,2,2,0,0,0,0,0
18.47,1,1,1,1,2,2,1,2
18.475,1,1,2,2,1,1,1,0
18.48,2,1,0,0,3,3,1,1
18.485,1,1,2,1,0,2,0,0
18.49,2,3,1,1,1,0,1,1
18.495,0,1,2,1,1,4,0,5
18.5,2,1,0,2,3,0,4,1
18.505,2,0,2,0,1,4,3,1
18.51,1,3,0,1,1,1,0,1
18.515,2,0,1,0,1,2,1,0
18.52,1,1,1,1,1,0,0,1
18.525,2,1,1,1,4,2,1,1
18.53,2,1,1,1,3,1,4,2
18.535,2,1,1,3,2,1,1,1
18.54,1,1,0,2,1,2,1,1
18.545,0,0,0,1,2,2,3,2
18.55,1,0,1,1,1,2,5,0
18.555,0,2,1,2,2,2,2,3
18.56,1,2,2,1,3,2,2,1
18.565,0,1,1,1,0,1,1,2
18.57,3,0,1,2,0,1,1,0
18.575,1,0,2,2,1,1,2,3
18.58,3,1,2,2,3,0,0,1
18.585,2,2,1,1,0,0,0,2
18.59,0,2,1,0,0,2,2,0
18.595,0,3,2,1,1,2,1,1
18.6,2,2,1,2,1,2,0,0
18.605,2,1,1,1,2,1,3,2
18.61,0,0,1,1,3,1,1,4
18.615,1,2,2,3,0,1,1,0
18.62,2,1,1,0,0,2,0,1
18.625,1,1,1,1,0,1,1,1
18.63,1,1,1,1,1,0,1,1
18.635,0,1,0,2,3,1,2,1
18.64,1,1,0,2,1,2,2,4
18.645,1,3,1,2,2,4,1,1
18.65,2,3,1,0,0,3,2,1
18.655,1,2,1,1,3,2,1,1
18.66,1,1,1,5,1,0,0,0
18.665,1,1,1,0,1,1,1,5
18.67,1,1,3,1,1,0,0,1
18.675,1,2,1,2,2,1,1,0
18.68,2,3,1,0,1,0,2,3
18.685,0,0,0,0,0,0,0,0
18.69,2,1,2,1,3,3,4,1
18.695,1,1,2,0,1,1,2,1
18.7,0,0,1,1,1,0,3,3
18.705,2,1,0,3,3,0,0,4
18.71,2,2,0,1,1,1,1,2
18.715,1,1,1,3,1,2,1,0
18.72,1,1,1,0,1,1,2,0
18.725,0,0,1,2,1,2,0,1
18.73,1,0,1,3,3,2,1,1
18.735,2,1,1,0,4,0,2,1
18.74,1,1,0,1,1,1,2,1
18.745,3,2,1,1,0,1,3,2
18.75,2,2,0,2,1,3,1,0
18.755,1,0,1,1,1,2,2,0
18.76,0,1,2,1,2,3,1,0
18.765,1,1,1,0,1,0,0,2
18.77,1,1,1,0,1,0,2,3
18.775,2,1,2,0,1,0,3,0
18.78,2,1,1,0,2,1,1,0
18.785,1,1,2,1,2,3,3,0
18.79,1,3,0,2,1,2,0,1
18.795,0,2,1,1,1,0,2,1
18.8,2,2,2,2,0,0,3,2
18.805,2,0,1,0,1,0,2,2
18.81,2,1,1,1,2,0,3,0
18.815,1,1,1,2,1,1,1,2
18.82,1,3,1,1,2,1,3,0
18.825,1,2,2,2,3,1,0,0
18.83,0,0,0,0,0,1,2,2
18.835,2,1,1,0,1,1,0,2
18.84,1,1,1,3,2,3,0,1
18.845,1,1,1,0,0,2,3,1
18.85,1,0,1,2,1,0,0,0
18.855,0,0,2,2,4,1,0,1
18.86,2,2,2,2,1,3,2,3
18.865,0,3,1,1,3,2,1,0
18.87,2,1,1,1,0,1,0,2
18.875,0,1,1,2,1,2,2,0
18.88,0,1,0,1,1,1,2,0
18.885,1,3,0,0,1,2,0,1
18.89,1,1,3,2,0,2,3,2
18.895,2,2,2,2,3,0,1,1
18.9,2,2,0,1,0,2,0,0
18.905,0,0,1,0,0,2,1,2
18.91,2,2,1,1,1,0,1,0
18.915,0,1,3,1,0,2,2,0
18.92,2,1,0,2,2,3,2,1
18.925,1,0,1,1,2,1,1,0
18.93,1,1,1,1,3,4,1,1
18.935,1,1,3,0,0,1,0,1
18.94,3,3,2,1,1,2,0,2
18.945,0,0,1,2,0,1,2,3
18.95,1,1,1,2,3,1,2,2
18.955,4,0,0,0,2,4,4,2
18.96,1,2,0,1,1,2,2,1
18.965,2,1,2,0,2,1,0,0
18.97,1,0,1,3,4,1,2,1
18.975,1,1,1,0,0,2,2,1
18.98,0,0,1,1,2,1,2,3
18.985,2,2,0,0,1,0,1,0
18.99,1,2,0,0,0,2,0,1
18.995,1,2,0,3,2,1,1,0
19,1,0,1,1,2,1,2,1
19.005,2,1,2,3,1,0,2,1
19.01,1,1,2,0,0,0,2,0
19.015,2,1,0,0,1,1,1,2
19.02,1,3,0,3,2,1,2,1
19.025,0,1,1,1,1,2,3,0
19.03,0,1,2,1,1,1,1,1
19.035,0,0,0,1,0,1,2,0
19.04,0,0,1,1,1,1,0,1
19.045,1,0,0,1,1,1,1,4
19.05,1,0,2,2,4,0,1,2
19.055,1,1,0,2,2,2,2,4
19.06,2,2,3,2,2,0,1,1
19.065,1,1,2,0,1,1,3,0
19.07,1,3,0,2,1,3,1,2
19.075,1,3,0,1,3,0,2,4
19.08,2,1,2,2,2,2,1,3
19.085,3,2,1,2,0,1,2,1
19.09,1,3,2,0,1,1,3,2
19.095,2,0,1,1,3,1,2,2
19.1,2,1,0,0,1,4,1,4
19.105,2,0,1,3,2,1,4,2
19.11,1,2,0,2,1,1,2,0
19.115,2,0,1,1,1,0,0,2
19.12,1,1,2,0,3,1,2,2
19.125,1,1,1,2,1,2,1,1
19.13,3,2,1,1,1,1,2,2
19.135,0,2,1,2,3,2,2,2
19.14,0,2,1,1,1,1,1,1
19.145,0,1,2,0,1,3,1,3
19.15,0,0,0,2,1,0,3,2
19.155,0,1,2,1,2,1,1,0
19.16,1,1,2,1,4,1,2,3
19.165,3,2,1,0,0,0,0,0
19.17,1,1,1,1,3,3,0,1
19.175,3,0,1,2,1,0,2,2
19.18,0,1,1,1,0,1,1,2
19.185,1,0,2,2,2,1,3,1
19.19,1,0,1,1,1,0,1,2
19.195,2,0,1,1,2,0,2,1
19.2,0,2,1,3,2,2,1,0
19.205,1,2,0,0,4,0,3,0
19.21,2,0,2,1,2,2,0,2
19.215,1,1,2,1,1,3,1,0
19.22,3,3,1,1,1,1,0,1
19.225,0,0,2,1,3,1,1,0
19.23,1,2,2,0,2,1,0,1
19.235,2,1,2,1,0,1,1,2
19.24,2,2,0,2,1,0,3,0
19.245,1,1,1,2,0,1,0,1
19.25,1,1,2,2,1,2,4,2
19.255,1,2,1,1,1,0,1,0
19.26,1,1,2,2,0,4,0,0
19.265,0,0,1,1,1,2,0,2
19.27,1,2,1,0,0,1,0,1
19.275,0,2,0,0,1,2,2,2
19.28,1,0,1,1,0,0,2,1
19.285,0,1,1,1,1,1,2,2
19.29,2,3,1,3,2,2,1,2
19.295,1,0,1,0,3,3,2,1
19.3,0,0,2,3,1,0,0,0
19.305,1,0,2,1,2,2,3,3
19.31,1,1,3,0,1,0,2,0
19.315,3,0,3,3,1,1,1,1
19.32,1,1,1,1,0,1,3,0
19.325,2,2,2,0,1,0,3,1
19.33,1,1,0,2,2,3,0,1
19.335,2,3,0,1,0,0,1,4
19.34,1,1,1,1,2,1,2,2
19.345,1,3,1,1,1,0,4,2
19.35,1,0,2,4,1,1,4,1
19.355,1,2,1,0,1,1,0,0
19.36,1,2,2,1,1,1,3,2
19.365,1,0,1,2,0,1,2,0
19.37,2,1,0,1,3,2,2,2
19.375,1,1,1,2,1,1,1,0
19.38,3,0,0,2,2,1,3,1
19.385,2,1,0,2,1,1,3,2
19.39,1,1,1,0,1,0,3,0
19.395,1,2,1,0,2,1,2,0
19.4,1,2,3,2,2,2,1,0
19.405,0,1,0,1,3,0,1,3
19.41,2,2,0,0,1,0,2,2
19.415,0,1,0,0,1,1,2,3
19.42,2,1,1,2,2,2,2,3
19.425,1,2,1,2,4,0,0,0
19.43,0,1,1,0,3,2,1,2
19.435,1,0,2,0,2,1,1,0
19.44,1,2,1,1,1,1,1,1
19.445,2,0,0,1,1,1,3,1
19.45,2,1,1,1,0,0,2,2
19.455,1,1,0,0,1,1,1,2
19.46,0,2,1,2,3,2,2,0
19.465,0,3,1,2,0,1,1,1
19.47,1,0,2,3,2,2,3,1
19.475,0,2,1,3,3,3,1,2
19.48,1,1,0,2,1,1,1,0
19.485,1,3,2,0,0,1,0,1
19.49,1,3,3,1,0,2,0,3
19.495,1,1,0,1,2,0,2,1
19.5,1,1,1,1,1,1,1,2
19.505,1,2,1,1,1,2,4,2
19.51,1,2,2,2,2,2,0,2
19.515,3,1,2,3,1,1,3,1
19.52,1,2,0,2,0,1,1,1
19.525,2,1,1,0,2,1,3,0
19.53,1,1,0,1,3,2,0,2
19.535,0,2,0,2,2,1,1,0
19.54,3,1,0,1,2,1,0,0
19.545,0,1,1,3,0,0,1,1
19.55,0,1,2,0,1,0,1,2
19.555,2,1,1,1,0,2,2,0
19.56,0,3,2,0,0,2,0,1
19.565,2,1,0,3,3,2,3,2
19.57,0,1,0,2,5,2,1,1
19.575,3,1,2,2,2,2,2,3
19.58,1,1,2,2,0,2,1,0
19.585,2,0,1,1,0,1,3,1
19.59,3,1,0,0,1,2,1,0
19.595,0,3,3,1,3,2,0,0
19.6,1,1,2,1,2,2,0,0
19.605,2,0,2,2,2,2,3,1
19.61,1,0,0,1,0,3,0,0
19.615,2,0,1,2,2,0,1,0
19.62,1,2,2,1,1,2,1,2
19.625,1,1,2,2,1,1,1,1
19.63,1,2,0,0,2,1,3,2
19.635,2,0,1,1,0,1,0,2
19.64,2,1,2,3,1,3,3,0
19.645,1,1,1,1,2,1,0,1
19.65,1,1,1,1,1,2,1,2
19.655,1,2,1,0,2,1,2,2
19.66,1,1,1,0,1,0,1,1
19.665,1,2,1,1,1,3,1,1
19.67,2,0,1,1,1,1,2,0
19.675,0,0,1,1,1,0,1,1
19.68,2,1,2,3,2,0,2,2
19.685,1,2,2,1,2,0,1,1
19.69,1,1,1,1,2,1,2,2
19.695,2,3,0,0,0,1,1,2
19.7,1,2,1,0,0,3,2,0
19.705,1,0,2,2,2,1,2,2
19.71,0,1,0,3,0,1,1,3
19.715,1,1,2,1,3,0,1,0
19.72,0,0,1,2,0,0,1,1
19.725,0,1,0,1,1,1,3,1
19.73,1,1,2,2,1,0,1,1
19.735,0,2,2,1,3,1,4,2
19.74,1,1,2,0,2,1,1,2
19.745,2,1,0,1,0,3,0,1
19.75,2,2,2,1,0,1,1,2
19.755,1,3,0,1,0,2,0,0
19.76,2,1,1,1,1,0,3,1
19.765,0,1,3,1,1,1,1,0
19.77,1,2,1,2,1,1,3,1
19.775,3,1,2,0,0,2,3,3
19.78,1,0,0,0,2,1,1,1
19.785,0,2,1,0,0,0,1,4
19.79,2,0,2,2,2,1,1,0
19.795,1,0,0,2,1,2,4,1
19.8,1,1,1,1,2,3,1,0
19.805,2,1,0,1,1,0,2,1
19.81,2,1,1,1,0,2,1,2
19.815,1,1,2,0,2,1,1,1
19.82,1,1,2,2,2,2,5,2
19.825,1,1,3,2,2,1,0,2
19.83,0,2,0,1,1,1,1,3
19.835,0,1,0,1,0,0,2,3
19.84,2,2,1,3,3,3,2,1
19.845,1,0,2,1,1,1,2,0
19.85,1,1,2,3,0,2,3,2
19.855,1,1,1,3,2,2,0,1
19.86,1,2,3,1,0,1,2,2
19.865,4,2,1,1,1,2,1,0
19.87,1,1,0,1,0,1,1,0
19.875,2,3,1,0,1,1,2,1
19.88,3,0,0,3,1,2,2,4
19.885,2,0,0,1,1,1,0,1
19.89,2,0,1,0,4,0,1,1
19.895,0,3,2,0,3,1,1,1
19.9,2,2,1,1,1,2,0,1
19.905,2,1,1,2,2,2,3,1
19.91,1,1,0,1,2,1,0,2
19.915,1,0,2,1,2,0,0,2
19.92,1,3,2,0,1,1,2,1
19.925,1,1,0,1,1,2,1,2
19.93,2,2,1,1,2,0,3,2
19.935,2,1,1,2,1,3,0,1
19.94,0,1,0,1,1,1,1,2
19.945,0,3,0,2,1,1,3,1
19.95,0,3,3,2,2,1,3,0
19.955,0,2,1,3,2,1,2,2
19.96,1,1,3,1,3,1,0,1
19.965,2,1,2,1,2,4,1,0
19.97,2,1,0,1,0,1,1,4
19.975,1,1,1,1,0,1,3,2
19.98,3,1,0,1,2,2,0,1
19.985,0,1,0,2,1,1,0,1
19.99,3,2,0,0,2,1,0,0
19.995,1,1,1,0,1,3,1,1
20,2,1,0,3,1,1,0,2
20.005,1,2,2,1,1,0,1,1
20.01,2,3,3,0,0,2,0,0
20.015,1,1,1,0,0,1,1,1
20.02,1,0,1,1,1,2,1,1
20.025,2,2,2,1,4,2,0,2
20.03,1,1,0,1,1,0,2,1
20.035,1,1,2,1,0,2,3,0
20.04,1,0,2,0,1,2,0,1
20.045,0,0,0,0,2,1,1,1
20.05,1,0,0,1,0,1,4,4
20.055,1,0,1,2,2,1,0,1
20.06,1,1,1,2,2,2,3,0
20.065,1,4,1,1,1,0,0,0
20.07,2,1,0,1,4,2,3,1
20.075,1,1,0,1,1,1,0,2
20.08,0,0,2,1,0,1,1,0
20.085,0,2,1,3,1,0,1,2
20.09,1,1,1,0,0,1,3,3
20.095,2,3,1,2,3,2,0,1
20.1,1,0,1,2,2,2,3,0
20.105,1,1,1,1,1,1,2,5
20.11,2,2,0,1,2,1,1,2
20.115,1,1,1,0,2,1,2,1
20.12,3,2,1,1,0,1,1,2
20.125,0,0,2,1,3,0,0,2
20.13,0,1,2,1,2,1,3,0
20.135,2,1,1,2,1,2,3,2
20.14,2,2,2,0,1,2,0,1
20.145,2,2,1,1,1,1,3,1
20.15,1,1,1,2,1,0,0,0
20.155,0,0,1,2,3,1,2,2
20.16,0,2,0,1,1,0,2,1
20.165,1,1,1,2,1,0,2,1
20.17,1,0,1,1,1,1,2,2
20.175,1,2,2,1,1,1,2,0
20.18,1,1,2,1,1,3,2,5
20.185,1,1,1,0,1,2,0,1
20.19,1,2,2,1,2,1,2,2
20.195,0,1,0,1,2,0,0,1
20.2,2,0,2,1,3,1,2,1
20.205,1,2,0,0,1,1,2,0
20.21,0,2,1,3,2,1,0,1
20.215,0,2,0,2,1,1,2,0
20.22,1,2,1,1,2,1,0,0
20.225,1,0,2,1,0,0,3,1
20.23,1,2,1,1,3,1,2,2
20.235,1,2,1,3,2,4,1,2
20.24,0,1,2,2,2,0,3,1
20.245,1,2,2,3,5,1,1,1
20.25,2,1,2,2,2,2,2,2
20.255,1,0,1,1,0,2,1,0
20.26,1,1,1,2,1,2,1,2
20.265,1,1,3,3,1,2,3,2
20.27,1,1,1,3,1,2,1,2
20.275,2,1,0,0,2,2,2,3
20.28,1,1,1,0,1,1,2,2
20.285,2,2,1,1,2,2,1,1
20.29,0,0,2,0,2,2,2,1
20.295,0,0,1,1,2,1,3,0
20.3,3,0,1,0,2,1,1,3
20.305,1,1,1,1,0,2,0,0
20.31,1,1,1,2,1,1,3,1
20.315,1,0,2,0,4,0,3,1
20.32,1,2,1,1,1,1,4,1
20.325,3,1,1,0,4,2,2,3
20.33,3,0,0,1,1,2,0,1
20.335,1,2,0,0,0,1,1,1
20.34,2,1,2,3,1,1,2,1
20.345,1,2,1,1,1,1,1,2
20.35,1,3,3,4,2,1,2,0
20.355,2,0,1,1,0,1,0,2
20.36,0,3,2,1,3,1,1,1
20.365,1,0,1,0,1,0,0,2
20.37,1,3,1,2,2,1,0,1
20.375,0,2,1,2,3,1,3,1
20.38,2,1,2,1,1,2,2,1
20.385,0,0,1,1,2,2,5,0
20.39,2,1,1,1,1,2,1,0
20.395,1,1,1,1,1,1,0,4
20.4,2,0,0,1,1,0,0,1
20.405,1,1,2,0,1,0,0,1
20.41,1,0,2,1,0,0,1,0
20.415,1,0,0,1,1,1,3,3
20.42,1,1,1,0,0,0,1,0
20.425,1,2,1,3,1,0,2,2
20.43,1,0,0,1,1,2,2,1
20.435,2,3,1,0,2,1,1,0
20.44,1,2,1,0,2,1,1,1
20.445,1,2,0,1,1,1,2,1
20.45,1,3,1,0,2,0,0,5
20.455,1,0,2,2,1,1,2,0
20.46,2,1,0,0,0,2,1,1
20.465,2,2,1,0,2,2,2,1
20.47,2,1,1,3,1,0,2,3
20.475,1,0,2,1,0,3,1,2
20.48,0,1,2,3,2,1,3,1
20.485,0,1,2,2,1,0,3,1
20.49,0,3,1,1,0,2,1,1
20.495,1,1,3,0,3,2,2,2
20.5,0,0,0,2,1,2,2,1
20.505,0,1,2,1,2,1,1,3
20.51,0,1,1,2,1,1,1,1
20.515,1,0,2,1,1,1,1,2
20.52,1,2,2,1,0,1,0,0
20.525,1,1,1,1,1,1,2,3
20.53,1,3,1,0,0,2,1,2
20.535,0,0,0,1,1,3,1,1
20.54,1,0,0,1,3,4,1,0
20.545,1,2,1,1,1,1,2,0
20.55,0,0,1,1,1,0,1,2
20.555,1,3,0,0,1,2,2,0
20.56,0,1,1,2,2,0,2,5
20.565,2,1,3,1,3,0,1,1
20.57,1,1,2,2,0,4,1,2
20.575,1,1,1,2,1,0,1,2
20.58,1,0,1,2,1,1,0,1
20.585,0,2,1,2,1,1,2,1
20.59,0,1,1,2,2,1,1,1
20.595,0,1,1,1,2,2,3,1
20.6,0,2,1,0,1,2,2,0
20.605,1,1,1,2,2,0,2,2
20.61,2,2,1,0,1,2,0,0
20.615,2,2,0,2,2,0,0,1
20.62,0,2,1,1,1,2,3,2
20.625,2,2,0,0,0,2,1,2
20.63,2,4,2,1,4,1,2,2
20.635,0,0,2,2,2,1,1,4
20.64,4,0,0,3,0,0,2,3
20.645,3,1,2,2,0,3,3,3
20.65,2,0,0,1,1,1,1,1
20.655,0,0,2,0,2,1,0,2
20.66,0,1,2,2,0,1,1,0
20.665,2,2,0,2,2,1,2,3
20.67,1,1,0,1,2,1,3,1
20.675,1,1,0,1,1,3,0,1
20.68,2,1,2,1,1,1,1,2
20.685,1,1,1,0,1,4,0,1
20.69,0,0,1,1,1,2,1,2
20.695,1,1,1,3,0,0,4,3
20.7,1,1,1,0,3,0,1,3
20.705,0,2,2,2,2,3,1,1
20.71,1,0,3,1,0,2,1,0
20.715,1,2,1,0,2,1,0,1
20.72,2,0,1,1,2,5,0,3
20.725,0,0,1,0,2,2,1,0
20.73,1,1,3,1,2,1,0,2
20.735,1,1,2,0,2,1,1,1
20.74,2,1,3,0,1,2,0,2
20.745,1,0,2,2,1,1,1,0
20.75,1,3,1,2,1,0,1,1
20.755,1,3,1,1,0,1,0,5
20.76,1,1,0,2,0,1,1,1
20.765,2,0,1,1,1,1,0,1
20.77,2,2,1,2,1,2,2,2
20.775,1,0,2,1,3,0,3,1
20.78,1,1,2,0,1,1,3,1
20.785,2,0,2,0,1,2,1,1
20.79,2,1,1,0,2,0,0,1
20.795,1,1,0,2,0,0,2,2
20.8,2,1,2,2,1,1,0,2
20.805,1,1,1,2,2,2,1,1
20.81,1,0,2,1,3,2,2,1
20.815,1,1,2,2,3,1,1,0
20.82,2,2,2,2,0,1,1,2
20.825,2,2,1,1,2,0,2,3
20.83,1,0,2,1,1,0,0,3
20.835,1,1,1,1,1,1,0,0
20.84,1,0,0,1,2,3,2,0
20.845,1,1,1,3,1,3,0,0
20.85,1,1,1,1,2,3,2,0
20.855,0,1,2,1,1,1,2,2
20.86,1,1,3,1,1,1,0,1
20.865,2,1,1,1,1,1,4,1
20.87,1,0,0,1,3,2,2,0
20.875,2,1,1,2,1,2,1,2
20.88,0,1,1,1,2,2,1,2
20.885,2,2,1,1,0,3,0,3
20.89,1,1,1,2,1,1,0,0
20.895,1,2,2,1,2,2,2,1
20.9,1,1,0,0,1,2,2,1
20.905,3,1,1,1,2,1,0,1
20.91,2,0,2,0,0,1,1,1
20.915,1,1,1,2,0,0,1,1
20.92,3,2,0,0,2,3,1,0
20.925,2,1,1,1,1,1,2,2
20.93,1,1,0,1,1,0,1,2
20.935,1,3,2,1,4,1,2,1
20.94,0,1,2,0,2,0,1,2
20.945,1,1,0,2,3,1,3,1
20.95,2,0,3,1,1,3,2,0
20.955,2,1,1,1,2,1,1,1
20.96,2,0,1,2,1,1,1,1
20.965,1,2,2,3,2,2,0,2
20.97,2,1,1,0,1,2,1,1
20.975,0,1,1,1,1,0,2,0
20.98,2,3,0,1,2,1,3,0
20.985,1,2,0,2,1,2,1,3
20.99,1,1,0,0,2,2,1,4
20.995,1,1,0,0,2,2,2,2
21,1,0,1,1,4,0,2,1
21.005,1,1,1,2,3,1,1,3
21.01,1,1,0,0,1,1,2,1
21.015,1,1,0,0,1,1,0,0
21.02,1,2,1,2,1,1,1,2
21.025,2,0,1,0,1,1,1,0
21.03,0,0,0,0,2,2,1,1
21.035,1,2,0,3,0,1,2,2
21.04,0,2,1,1,2,2,2,1
21.045,0,0,3,1,1,1,2,1
21.05,1,1,1,0,2,1,2,1
21.055,0,0,2,0,1,2,1,3
21.06,1,2,1,2,1,1,1,2
21.065,0,3,2,0,0,0,3,2
21.07,1,1,1,1,3,1,3,1
21.075,1,0,1,2,3,0,1,1
21.08,1,1,2,1,0,2,2,0
21.085,2,1,1,1,1,2,1,1
21.09,1,1,1,2,1,2,0,0
21.095,3,1,1,0,2,1,2,3
21.1,2,1,1,2,2,1,1,0
21.105,1,1,2,2,3,2,2,0
21.11,0,3,3,0,1,1,0,2
21.115,1,1,1,0,0,1,1,1
21.12,1,1,2,0,2,1,4,2
21.125,1,1,0,0,1,0,1,5
21.13,1,1,0,2,3,3,2,2
21.135,1,1,1,0,0,0,1,1
21.14,1,1,1,2,1,2,3,1
21.145,1,1,1,0,3,2,0,1
21.15,1,2,0,3,0,1,2,1
21.155,0,1,1,2,0,0,3,3
21.16,0,0,1,0,1,3,1,1
21.165,1,1,0,2,0,1,0,2
21.17,1,2,2,0,1,0,0,1
21.175,2,1,0,1,3,1,0,0
21.18,2,1,1,0,3,3,2,2
21.185,0,0,1,1,2,2,1,1
21.19,1,1,1,2,1,2,2,2
21.195,2,1,2,2,1,1,1,2
21.2,0,0,1,3,2,2,3,0
21.205,2,1,1,2,1,3,2,1
21.21,0,0,0,1,0,0,0,1
21.215,2,1,1,2,2,2,1,1
21.22,2,1,1,1,1,1,1,1
21.225,0,0,0,2,1,3,2,1
21.23,0,1,1,1,2,1,2,1
21.235,1,1,2,2,1,2,0,2
21.24,1,1,0,0,2,2,0,3
21.245,0,1,1,1,1,0,1,1
21.25,2,3,1,1,2,2,2,1
21.255,1,0,1,0,2,0,2,1
21.26,2,1,2,1,0,1,1,1
21.265,3,2,1,1,1,3,1,2
21.27,3,0,2,1,0,1,2,1
21.275,1,1,2,0,1,1,2,1
21.28,1,0,1,1,1,1,0,2
21.285,1,1,1,1,3,0,0,2
21.29,0,1,2,2,1,0,0,1
21.295,2,1,1,2,1,1,1,1
21.3,0,2,2,2,1,1,0,0
21.305,1,1,4,2,1,0,1,1
21.31,2,4,1,1,3,0,0,1
21.315,1,3,0,2,1,2,1,3
21.32,0,0,1,1,2,3,2,1
21.325,2,3,2,0,1,3,3,1
21.33,1,3,2,1,2,2,1,1
21.335,1,0,1,2,1,0,1,1
21.34,1,0,2,0,3,1,0,2
21.345,0,0,1,2,1,1,0,1
21.35,2,0,2,1,1,1,2,1
21.355,2,1,0,0,3,2,3,1
21.36,1,0,1,3,2,2,2,2
21.365,1,1,0,2,1,0,1,0
21.37,3,1,1,1,1,0,0,2
21.375,3,1,3,1,2,2,4,2
21.38,0,1,4,1,0,0,1,2
21.385,1,1,0,3,3,2,1,1
21.39,0,1,0,1,2,0,1,1
21.395,1,2,1,2,1,0,3,1
21.4,1,1,1,2,2,1,3,0
21.405,2,0,2,1,2,0,1,0
21.41,0,1,2,2,2,0,4,0
21.415,3,2,1,1,1,0,0,5
21.42,3,2,1,0,1,0,1,2
21.425,0,2,1,1,1,2,2,2
21.43,0,1,0,1,0,2,2,0
21.435,2,0,2,1,1,1,0,1
21.44,1,0,1,2,1,2,2,1
21.445,2,2,0,1,2,2,1,1
21.45,2,1,1,1,1,0,0,2
21.455,1,1,0,1,1,0,1,1
21.46,1,3,0,0,2,2,2,2
21.465,2,1,1,2,0,1,1,1
21.47,0,2,2,1,2,0,1,2
21.475,2,1,1,1,1,1,0,0
21.48,1,1,2,2,0,0,1,1
21.485,2,1,4,1,2,2,2,1
21.49,3,1,2,3,1,2,1,0
21.495,2,0,1,2,0,1,2,1
21.5,3,3,1,0,3,2,2,1
21.505,1,2,0,0,0,0,1,1
21.51,3,0,2,1,1,4,2,0
21.515,1,2,1,1,0,1,0,1
21.52,2,0,1,1,0,2,1,2
21.525,1,0,1,1,1,1,1,3
21.53,1,2,1,2,1,0,2,0
21.535,0,0,1,1,2,2,1,1
21.54,0,2,2,0,3,2,1,2
21.545,2,1,1,1,1,1,0,0
21.55,2,1,2,2,1,1,1,0
21.555,0,1,1,1,3,1,2,2
21.56,1,1,0,0,0,2,1,2
21.565,0,1,2,1,1,1,2,3
21.57,1,0,2,1,1,3,2,0
21.575,1,0,0,1,0,0,2,2
21.58,2,2,1,3,2,0,1,0
21.585,0,0,2,1,2,0,2,2
21.59,0,1,3,0,2,2,1,3
21.595,2,2,2,0,1,2,1,2
21.6,2,0,1,1,2,0,3,2
21.605,0,0,1,2,2,2,3,1
21.61,1,1,0,1,1,0,0,1
21.615,1,0,2,0,2,2,2,2
21.62,1,1,0,1,3,0,1,2
21.625,2,0,1,2,1,0,1,0
21.63,2,0,2,0,1,1,1,1
21.635,1,1,1,2,1,3,1,2
21.64,1,1,1,1,2,0,1,1
21.645,2,2,0,2,1,0,1,2
21.65,1,0,0,1,2,1,2,3
21.655,1,2,1,3,1,2,0,1
21.66,0,2,1,1,1,0,0,1
21.665,1,0,0,1,1,0,0,1
21.67,2,2,1,0,0,2,2,1
21.675,1,1,2,3,2,1,1,2
21.68,1,1,0,1,1,3,2,1
21.685,0,2,2,0,2,2,1,1
21.69,1,0,1,2,1,1,0,1
21.695,1,1,3,0,0,2,4,1
21.7,0,0,2,2,1,1,3,3
21.705,1,1,1,0,4,2,2,0
21.71,2,0,1,1,2,1,1,2
21.715,1,3,0,0,0,1,2,1
21.72,0,1,1,1,3,2,0,0
21.725,2,1,0,2,0,0,3,1
21.73,1,3,1,0,2,2,2,2
21.735,1,1,1,1,4,0,1,1
21.74,2,2,2,0,0,2,0,2
21.745,2,1,1,1,1,2,1,0
21.75,1,1,2,0,1,0,1,2
21.755,2,1,1,1,1,1,0,0
21.76,1,1,0,2,3,2,3,1
21.765,1,2,0,1,1,1,2,1
21.77,2,2,2,2,1,0,2,1
21.775,1,1,1,0,2,2,2,1
21.78,1,0,1,1,3,1,3,0
21.785,0,1,2,0,0,0,1,2
21.79,2,1,2,0,3,1,2,2
21.795,2,2,2,1,0,2,3,1
21.8,3,1,0,1,1,2,3,1
21.805,0,1,2,2,0,1,3,1
21.81,0,1,0,1,0,1,0,1
21.815,2,1,1,0,4,3,4,0
21.82,2,3,1,3,2,0,0,2
21.825,1,2,1,0,3,3,3,1
21.83,2,0,1,2,0,0,1,4
21.835,0,1,0,2,0,1,2,2
21.84,2,1,0,2,0,0,1,1
21.845,1,1,0,2,3,0,1,4
21.85,2,1,1,3,2,3,1,2
21.855,0,1,0,1,3,2,2,2
21.86,2,3,0,0,0,1,0,1
21.865,1,3,1,1,3,1,1,0
21.87,0,1,0,1,2,1,2,1
21.875,1,0,0,1,1,1,1,2
21.88,1,0,2,1,1,3,1,2
21.885,0,0,1,0,0,2,1,3
21.89,1,1,1,0,1,1,1,0
21.895,0,1,2,2,4,0,1,0
21.9,1,1,1,1,3,0,1,1
21.905,2,1,1,1,1,2,0,3
21.91,0,1,0,2,3,1,3,2
21.915,2,0,1,1,1,1,3,1
21.92,1,3,3,1,2,0,1,2
21.925,2,3,1,2,1,1,0,1
21.93,2,1,1,0,1,1,1,0
21.935,1,1,2,1,1,2,0,3
21.94,0,1,2,2,0,2,0,1
21.945,0,3,1,2,2,1,2,2
21.95,0,2,1,0,2,0,2,2
21.955,1,0,0,1,1,1,1,2
21.96,2,1,1,2,1,3,1,1
21.965,2,0,1,1,1,1,0,3
21.97,2,2,2,2,1,2,1,2
21.975,1,1,1,1,0,1,1,1
21.98,1,2,1,2,1,0,1,2
21.985,0,1,2,1,2,3,2,1
21.99,1,1,1,1,1,2,2,1
21.995,2,3,0,3,1,3,0,1
22,2,2,0,4,3,1,2,2
22.005,2,0,2,0,0,1,3,1
22.01,1,0,3,0,1,3,1,0
22.015,0,1,1,2,2,0,0,1
22.02,1,1,0,1,3,3,4,0
22.025,1,1,0,0,2,1,4,2
22.03,1,3,2,1,0,0,0,1
22.035,1,1,1,0,1,0,1,3
22.04,1,1,2,0,0,1,2,1
22.045,1,1,1,2,1,4,1,1
22.05,2,1,1,3,2,1,1,1
22.055,1,1,1,1,3,2,2,0
22.06,1,2,1,1,1,1,0,3
22.065,1,1,3,1,1,0,2,1
22.07,0,1,1,2,4,1,2,1
22.075,1,0,0,2,2,1,2,1
22.08,1,3,2,1,3,3,0,1
22.085,0,2,2,1,1,1,1,1
22.09,0,3,2,1,2,2,2,3
22.095,0,1,1,0,3,1,2,1
22.1,2,0,0,1,0,2,1,2
22.105,1,0,2,0,0,1,1,2
22.11,2,1,1,0,1,0,1,1
22.115,1,0,0,2,0,1,2,1
22.12,1,1,0,1,1,2,4,2
22.125,2,3,0,3,2,0,1,0
22.13,1,3,1,1,1,3,0,0
22.135,3,2,3,0,2,0,4,2
22.14,2,0,1,0,0,1,2,1
22.145,0,0,2,0,2,2,2,3
22.15,1,0,0,2,0,1,3,2
22.155,1,2,0,0,1,1,2,1
22.16,0,1,2,1,2,0,3,1
22.165,1,2,0,1,1,1,1,0
22.17,2,1,1,1,1,0,1,1
22.175,0,1,1,1,1,1,0,2
22.18,0,1,1,3,1,1,4,0
22.185,0,1,1,0,3,1,2,2
22.19,0,2,1,2,2,1,2,0
22.195,1,0,1,1,2,0,2,2
22.2,1,0,1,1,1,2,1,2
22.205,3,1,1,3,0,0,2,2
22.21,0,1,0,0,2,2,1,2
22.215,2,2,1,0,0,0,1,0
22.22,2,2,0,1,0,0,2,4
22.225,0,0,1,0,1,2,0,1
22.23,2,1,2,1,0,0,1,1
22.235,3,0,1,1,1,0,2,0
22.24,2,0,1,3,1,1,1,1
22.245,1,0,2,0,2,1,2,1
22.25,0,1,1,1,0,3,1,4
22.255,1,1,1,0,4,1,0,0
22.26,1,0,1,1,3,2,2,2
22.265,1,2,1,0,2,1,0,2
22.27,1,1,1,3,1,2,1,1
22.275,0,0,2,0,2,1,1,0
22.28,2,2,2,2,3,1,1,0
22.285,1,2,0,1,2,1,1,2
22.29,0,1,1,0,2,0,1,2
22.295,1,1,1,1,2,3,1,2
22.3,0,1,1,1,0,0,1,0
22.305,2,1,2,1,2,0,1,0
22.31,1,1,3,2,0,1,2,1
22.315,3,1,0,0,1,0,5,0
22.32,0,2,1,2,1,3,1,2
22.325,1,0,0,1,0,1,0,3
22.33,3,1,0,0,1,0,2,0
22.335,1,2,2,1,0,2,1,2
22.34,2,1,1,2,3,2,1,1
22.345,1,1,1,1,2,1,2,1
22.35,2,2,0,1,2,3,1,1
22.355,2,2,1,2,2,1,1,2
22.36,1,2,2,0,1,0,1,1
22.365,0,1,1,4,2,0,3,0
22.37,1,1,2,1,0,1,2,0
22.375,0,1,0,0,2,0,0,0
22.38,2,1,2,1,1,2,0,2
22.385,1,0,0,2,2,2,3,2
22.39,1,2,0,2,0,3,2,4
22.395,0,2,2,2,1,1,1,1
22.4,0,1,2,0,2,2,4,1
22.405,2,1,1,1,0,2,0,2
22.41,2,1,2,0,1,3,0,0
22.415,0,2,2,3,1,2,1,2
22.42,1,0,0,2,3,0,1,2
22.425,1,1,2,2,1,0,2,2
22.43,2,1,1,1,1,1,0,2
22.435,2,1,0,1,1,1,2,3
22.44,1,1,1,0,0,1,2,0
22.445,1,3,2,2,0,1,0,1
22.45,2,2,0,2,2,2,2,1
22.455,1,1,2,0,2,3,0,0
22.46,0,0,1,1,3,1,3,1
22.465,2,2,0,1,2,3,0,1
22.47,0,0,1,2,1,3,0,0
22.475,0,0,2,2,3,1,1,1
22.48,0,1,0,4,3,2,2,1
22.485,1,1,0,1,3,1,1,5
22.49,1,3,0,1,1,1,3,1
22.495,2,0,1,1,0,1,2,1
22.5,0,0,1,1,2,3,0,2
22.505,1,1,1,1,1,0,1,1
22.51,0,1,2,2,2,1,0,1
22.515,0,2,1,2,3,3,1,5
22.52,1,2,2,1,1,1,1,1
22.525,0,1,1,2,1,1,2,1
22.53,1,1,0,0,3,0,2,2
22.535,2,1,1,1,2,0,2,0
22.54,3,0,1,2,1,2,0,1
22.545,3,2,1,3,3,3,1,1
22.55,3,1,4,2,4,0,3,0
22.555,3,1,1,1,1,1,1,2
22.56,1,2,0,1,1,3,3,2
22.565,0,1,0,1,1,0,0,1
22.57,1,2,1,3,2,0,3,3
22.575,0,1,0,1,3,3,1,2
22.58,1,1,2,0,2,1,2,2
22.585,0,2,2,2,1,1,2,0
22.59,1,0,1,1,1,3,0,1
22.595,1,2,1,0,2,1,4,1
22.6,0,1,0,3,1,2,1,1
22.605,2,1,3,1,0,1,2,1
22.61,0,2,0,0,2,2,0,1
22.615,5,1,2,2,3,1,2,1
22.62,1,0,2,0,0,0,1,0
22.625,1,1,2,0,3,0,0,3
22.63,0,2,2,2,0,1,0,2
22.635,1,2,1,2,0,1,0,1
22.64,2,0,1,1,2,0,1,2
22.645,1,0,1,0,1,1,1,2
22.65,0,1,2,2,2,1,3,0
22.655,1,3,0,0,3,4,1,1
22.66,2,2,1,0,2,1,1,1
22.665,1,2,0,1,0,0,1,0
22.67,2,0,0,1,3,3,1,4
22.675,1,2,0,3,1,1,2,0
22.68,0,0,1,0,0,2,1,0
22.685,0,2,3,0,1,2,2,0
22.69,2,1,0,1,0,1,3,0
22.695,1,0,0,3,0,1,1,2
22.7,1,0,1,1,1,1,2,1
22.705,3,1,1,3,0,2,2,1
22.71,0,2,1,1,0,1,2,5
22.715,1,2,0,2,0,3,3,3
22.72,1,2,0,1,2,0,0,2
22.725,1,1,2,1,3,1,2,2
22.73,2,3,2,1,1,0,3,1
22.735,2,1,1,1,1,3,1,4
22.74,2,1,2,3,2,1,0,1
22.745,1,2,0,1,1,2,3,0
22.75,2,1,1,1,1,2,0,0
22.755,1,1,1,1,1,0,0,2
22.76,2,2,1,2,2,2,1,0
22.765,1,2,2,2,0,3,0,5
22.77,1,0,1,1,1,2,0,1
22.775,3,1,2,0,2,2,0,1
22.78,1,3,1,2,1,0,1,2
22.785,0,1,1,2,2,1,2,1
22.79,0,1,1,2,2,3,1,3
22.795,3,2,2,1,2,2,1,2
22.8,1,0,0,2,2,2,0,2
22.805,0,1,1,1,1,1,2,0
22.81,1,0,2,1,1,1,3,1
22.815,1,2,2,0,0,0,2,1
22.82,0,2,1,1,2,2,1,2
22.825,2,1,0,2,3,1,1,0
22.83,1,2,0,1,1,0,1,3
22.835,1,2,0,1,3,2,2,1
22.84,1,1,1,1,0,2,2,0
22.845,1,1,2,0,2,1,1,3
22.85,1,0,0,2,2,3,2,0
22.855,2,0,1,1,1,1,0,2
22.86,2,2,1,1,1,0,2,4
22.865,3,1,1,3,2,3,0,2
22.87,2,2,0,1,1,2,2,0
22.875,0,1,1,1,0,1,3,0
22.88,2,1,2,1,1,2,3,2
22.885,1,0,0,4,1,2,2,2
22.89,1,1,0,2,2,3,1,5
22.895,0,1,3,2,1,2,3,0
22.9,0,2,0,0,1,2,3,1
22.905,1,2,3,0,3,0,1,0
22.91,2,1,2,1,2,2,1,0
22.915,1,0,2,3,2,1,1,1
22.92,1,2,1,0,1,1,3,1
22.925,0,2,0,2,0,0,1,2
22.93,2,1,2,2,1,1,1,5
22.935,2,1,0,0,1,1,0,0
22.94,2,1,2,2,1,1,0,3
22.945,0,0,0,0,2,0,2,1
22.95,0,0,3,0,2,1,2,0
22.955,0,3,1,0,2,1,1,3
22.96,0,0,1,2,2,1,2,0
22.965,2,1,1,1,0,1,3,1
22.97,2,0,1,0,1,0,3,4
22.975,0,0,0,0,0,2,1,2
22.98,1,0,2,2,3,0,1,0
22.985,2,3,1,0,0,0,1,0
22.99,1,1,1,0,2,1,0,2
22.995,3,1,1,0,1,1,0,2
23,2,0,1,1,1,3,0,1
23.005,2,1,2,1,4,2,0,1
23.01,2,0,0,1,2,1,1,1
23.015,1,1,0,2,1,1,2,0
23.02,1,1,0,1,1,1,1,2
23.025,1,3,1,0,1,1,1,2
23.03,1,3,1,2,1,0,0,1
23.035,2,0,2,1,0,2,0,0
23.04,2,1,0,1,1,0,2,4
23.045,1,1,2,2,1,1,0,1
23.05,2,1,2,2,1,1,1,0
23.055,1,1,0,1,3,0,4,2
23.06,2,2,2,0,1,1,1,1
23.065,0,1,3,1,2,2,1,2
23.07,1,0,2,1,0,2,1,1
23.075,1,2,2,3,1,0,1,2
23.08,2,1,1,1,2,2,1,0
23.085,1,1,1,2,2,4,1,1
23.09,1,2,2,3,2,2,1,0
23.095,2,0,0,1,0,1,1,0
23.1,1,0,1,2,3,0,2,2
23.105,0,1,2,1,5,2,0,1
23.11,1,2,0,2,2,2,0,2
23.115,0,4,1,1,2,0,0,2
23.12,0,3,2,0,3,1,3,1
23.125,1,1,2,0,2,2,2,1
23.13,1,0,0,1,1,2,3,0
23.135,2,0,2,1,2,0,3,2
23.14,1,1,1,0,0,1,2,2
23.145,2,2,1,1,2,1,2,1
23.15,3,2,0,2,2,0,3,1
23.155,2,3,2,1,0,5,3,1
23.16,1,0,0,2,2,1,1,2
23.165,3,0,1,1,1,1,1,1
23.17,0,2,2,2,0,2,0,2
23.175,2,0,2,0,2,0,2,0
23.18,0,2,2,1,1,1,0,0
23.185,1,0,0,0,1,2,3,2
23.19,0,1,0,1,3,0,2,3
23.195,1,0,0,1,0,2,1,1
23.2,0,0,2,1,1,3,1,2
23.205,2,1,2,0,3,2,1,1
23.21,2,2,1,1,0,0,1,0
23.215,1,1,2,2,0,1,2,1
23.22,3,1,0,0,2,1,2,1
23.225,0,2,2,1,2,1,2,1
23.23,1,1,0,3,2,3,3,4
23.235,2,1,1,0,3,1,1,2
23.24,0,3,1,2,1,1,2,2
23.245,0,0,0,1,0,1,1,0
23.25,0,2,1,0,2,2,3,0
23.255,1,1,1,1,0,2,3,1
23.26,1,0,1,0,3,2,3,2
23.265,2,1,0,0,3,1,1,1
23.27,2,1,2,0,1,0,2,1
23.275,1,0,2,2,2,1,0,2
23.28,1,0,1,0,1,2,2,1
23.285,2,2,1,1,0,2,0,1
23.29,1,3,1,2,2,1,0,1
23.295,4,1,0,2,2,0,1,1
23.3,2,1,1,1,1,1,1,2
23.305,1,0,2,2,1,1,2,0
23.31,1,0,0,2,2,1,0,2
23.315,1,0,2,0,1,1,1,0
23.32,1,1,0,1,3,3,2,4
23.325,1,2,1,1,1,1,2,0
23.33,1,1,3,1,2,1,1,3
23.335,1,1,1,0,2,2,1,0
23.34,0,1,1,3,1,2,3,0
23.345,1,1,1,1,0,2,0,3
23.35,1,1,1,1,2,1,2,1
23.355,0,1,2,1,4,2,1,2
23.36,1,1,1,3,2,1,1,1
23.365,0,1,2,0,4,3,0,4
23.37,1,3,3,0,1,1,2,1
23.375,2,1,0,3,1,2,2,1
23.38,2,0,2,0,2,1,0,0
23.385,0,2,2,1,1,1,1,1
23.39,1,1,0,2,1,1,1,2
23.395,0,3,2,1,0,1,2,0
23.4,0,1,3,0,2,0,1,2
23.405,0,1,0,2,1,0,0,1
23.41,1,0,2,1,1,0,3,2
23.415,2,1,0,1,1,1,4,3
23.42,2,3,2,1,1,0,1,2
23.425,1,1,1,2,4,3,1,1
23.43,1,1,1,2,2,0,1,1
23.435,0,1,0,1,1,1,1,1
23.44,1,0,1,1,2,2,0,3
23.445,2,3,2,2,2,1,2,0
23.45,0,1,1,3,0,1,3,1
23.455,2,2,2,2,2,2,2,1
23.46,0,1,2,1,1,3,2,2
23.465,1,4,1,2,0,1,2,4
23.47,2,1,1,1,1,0,0,0
23.475,1,2,4,1,2,1,2,3
23.48,3,1,2,0,0,1,1,1
23.485,0,1,0,0,3,1,1,3
23.49,1,2,1,2,2,1,2,1
23.495,0,2,0,2,3,2,1,0
23.5,1,0,0,1,0,3,1,1
23.505,1,0,3,0,2,4,0,0
23.51,2,1,1,2,0,2,1,1
23.515,0,2,1,2,1,2,1,1
23.52,0,1,1,0,2,1,2,1
23.525,0,1,2,0,1,1,2,1
23.53,1,1,0,1,0,2,2,4
23.535,2,2,2,2,1,1,1,1
23.54,1,1,1,1,1,0,3,1
23.545,1,0,1,1,1,1,0,0
23.55,1,2,0,2,2,2,3,0
23.555,1,1,0,1,0,1,3,3
23.56,0,1,1,2,2,1,2,2
23.565,1,1,0,1,1,2,3,1
23.57,1,1,0,0,2,3,1,4
23.575,1,2,2,1,2,3,2,3
23.58,1,0,1,0,2,1,3,2
23.585,1,0,1,1,0,3,2,2
23.59,2,0,0,0,0,1,1,1
23.595,3,1,0,0,1,1,2,0
23.6,1,2,1,2,1,1,2,0
23.605,1,2,0,1,1,0,2,0
23.61,0,1,1,1,1,2,0,2
23.615,0,1,0,0,3,0,2,2
23.62,2,1,0,2,0,4,2,0
23.625,1,1,0,3,2,0,1,1
23.63,2,3,1,2,0,1,0,2
23.635,2,0,1,0,2,1,1,1
23.64,1,0,0,3,2,1,0,0
23.645,1,1,2,2,2,1,2,4
23.65,1,1,2,1,4,1,3,0
23.655,1,1,1,2,2,2,2,2
23.66,0,0,0,1,1,1,2,3
23.665,1,0,2,0,1,0,1,1
23.67,1,2,1,0,0,0,0,0
23.675,2,2,1,3,3,1,1,2
23.68,1,1,1,1,2,0,1,1
23.685,1,1,0,0,1,1,2,2
23.69,1,0,0,0,2,2,3,0
23.695,1,3,1,0,1,4,2,2
23.7,1,1,2,3,1,2,3,1
23.705,0,3,2,0,0,3,2,0
23.71,0,1,0,1,1,1,1,1
23.715,1,1,1,0,1,4,0,3
23.72,0,1,2,2,2,0,3,3
23.725,1,2,1,2,0,1,2,2
23.73,0,2,0,1,0,1,1,1
23.735,0,1,2,1,0,0,1,2
23.74,2,2,2,2,1,2,1,1
23.745,0,0,0,1,3,2,0,1
23.75,1,0,2,1,1,1,2,2
23.755,1,1,1,2,2,1,2,1
23.76,0,1,1,2,2,0,1,1
23.765,2,1,3,1,1,1,1,1
23.77,0,1,3,0,1,0,2,1
23.775,0,1,3,1,1,2,2,1
23.78,1,1,2,1,3,2,0,0
23.785,1,2,1,1,0,2,1,1
23.79,1,3,1,1,1,1,1,1
23.795,2,1,1,1,1,3,1,1
23.8,2,0,3,1,1,2,1,0
23.805,2,2,1,0,2,1,2,0
23.81,0,0,1,1,0,3,2,2
23.815,2,3,0,1,2,1,0,1
23.82,0,2,1,2,1,0,1,4
23.825,1,1,1,1,1,2,3,1
23.83,1,1,1,1,1,1,0,3
23.835,3,0,1,1,3,0,2,1
23.84,2,1,1,0,1,1,4,0
23.845,0,0,3,3,1,2,2,2
23.85,0,0,2,2,2,1,1,1
23.855,1,1,0,2,1,3,2,1
23.86,1,1,1,2,0,1,2,1
23.865,2,1,2,0,1,1,0,1
23.87,2,2,1,1,3,2,0,2
23.875,0,0,1,1,2,1,2,2
23.88,3,1,2,2,1,1,1,2
23.885,1,1,0,1,1,0,2,1
23.89,2,1,1,1,2,1,3,1
23.895,2,1,1,0,2,0,4,2
23.9,1,1,1,1,1,1,1,1
23.905,0,1,2,0,1,1,1,1
23.91,2,2,2,0,0,0,2,0
23.915,2,1,2,1,1,2,3,3
23.92,2,1,1,1,1,1,1,4
23.925,0,1,0,0,3,1,1,3
23.93,1,0,1,3,2,2,0,1
23.935,2,1,2,1,2,1,3,1
23.94,1,2,2,0,0,2,1,1
23.945,1,1,2,2,3,2,2,0
23.95,0,0,0,1,1,1,1,0
23.955,2,1,1,3,0,0,1,0
23.96,0,0,2,1,1,1,0,1
23.965,1,1,2,0,0,1,1,2
23.97,2,1,2,3,2,1,2,2
23.975,0,2,1,1,0,0,1,0
23.98,0,1,0,2,2,0,1,1
23.985,1,1,1,2,1,1,1,1
23.99,1,0,0,1,3,0,3,0
23.995,2,3,3,1,3,2,1,2
24,1,1,1,2,3,3,1,0
24.005,2,2,2,0,1,3,1,2
24.01,2,1,2,2,2,0,1,4
24.015,0,2,1,1,1,0,0,1
24.02,1,2,2,1,1,0,3,1
24.025,1,1,1,2,1,3,1,2
24.03,1,0,1,1,2,2,5,1
24.035,0,2,1,1,2,1,1,3
24.04,1,1,0,2,2,1,1,1
24.045,2,2,1,2,1,0,1,0
24.05,2,1,1,0,1,0,1,1
24.055,1,1,0,2,3,2,0,1
24.06,2,1,0,1,2,1,0,2
24.065,1,0,0,2,1,0,1,3
24.07,1,1,1,1,3,1,1,1
24.075,1,1,1,2,1,1,1,2
24.08,0,2,3,2,3,2,0,1
24.085,3,1,2,1,2,1,1,1
24.09,2,2,0,3,3,2,0,1
24.095,0,1,1,2,1,0,2,0
24.1,1,3,1,2,3,1,2,1
24.105,1,2,2,1,1,3,1,0
24.11,1,1,0,2,1,0,2,0
24.115,1,2,1,1,0,0,0,2
24.12,2,1,3,3,1,0,1,0
24.125,0,1,0,0,3,3,3,2
24.13,1,0,3,0,2,3,3,0
24.135,1,1,0,2,0,1,0,2
24.14,2,1,1,1,2,0,0,4
24.145,1,0,0,1,3,0,1,1
24.15,2,1,1,1,1,3,3,1
24.155,2,0,2,0,4,1,3,2
24.16,0,0,0,0,1,2,2,1
24.165,0,1,1,2,4,0,1,1
24.17,0,1,0,2,0,1,1,2
24.175,0,0,2,1,2,1,3,1
24.18,1,0,0,1,3,2,1,0
24.185,2,1,1,1,0,2,0,2
24.19,1,0,3,1,1,2,1,1
24.195,1,0,0,0,0,0,2,2
24.2,1,1,1,1,1,1,0,2
24.205,1,1,1,2,3,1,2,0
24.21,1,1,2,4,2,2,0,3
24.215,0,1,2,1,1,1,2,0
24.22,0,0,1,0,3,0,2,2
24.225,3,1,1,1,0,0,3,3
24.23,1,1,1,1,0,1,1,0
24.235,1,1,1,1,1,4,1,3
24.24,0,1,2,2,2,1,1,3
24.245,1,1,1,1,1,3,1,0
24.25,1,2,1,1,3,2,1,4
24.255,1,0,1,1,3,2,2,1
24.26,0,1,0,1,0,0,1,2
24.265,0,0,2,1,1,0,2,2
24.27,0,2,2,2,2,2,2,0
24.275,2,1,2,3,2,1,0,2
24.28,2,1,2,0,1,0,1,1
24.285,1,0,1,1,3,2,2,3
24.29,1,2,0,1,1,2,1,1
24.295,0,2,0,2,1,0,0,0
24.3,1,1,3,1,3,1,1,1
24.305,1,1,2,1,2,1,3,1
24.31,2,0,2,1,1,2,1,1
24.315,0,1,0,1,1,1,2,0
24.32,0,1,1,5,0,0,3,1
24.325,1,1,0,1,0,2,1,0
24.33,1,0,1,0,4,1,1,1
24.335,2,2,2,3,1,0,0,1
24.34,1,2,0,1,1,0,1,3
24.345,0,1,0,1,2,1,1,0
24.35,1,1,3,1,0,2,3,0
24.355,1,0,3,1,1,0,4,3
24.36,3,0,1,3,3,0,1,0
24.365,1,1,1,0,1,0,1,3
24.37,3,3,0,0,1,3,1,2
24.375,2,0,0,0,3,0,2,0
24.38,1,1,2,2,0,2,2,0
24.385,2,2,2,3,0,0,0,1
24.39,0,1,1,1,3,1,2,2
24.395,2,2,0,1,0,1,0,4
24.4,0,3,2,1,2,0,0,0
24.405,1,2,2,1,1,2,0,1
24.41,1,0,2,1,2,1,1,0
24.415,2,1,2,0,3,0,1,1
24.42,1,1,0,2,1,2,1,1
24.425,1,1,1,3,0,3,1,1
24.43,1,1,1,2,0,3,0,2
24.435,0,0,2,2,1,0,0,1
24.44,1,0,2,0,0,2,2,4
24.445,2,2,1,2,0,1,1,1
24.45,2,2,0,3,1,2,0,1
24.455,1,0,0,1,1,2,2,2
24.46,3,3,1,3,2,1,1,4
24.465,2,2,1,1,1,1,2,3
24.47,2,2,0,1,0,3,0,2
24.475,1,1,1,0,2,2,0,1
24.48,1,1,2,1,0,2,3,1
24.485,0,1,1,0,1,0,1,1
24.49,1,1,0,0,2,1,2,1
24.495,0,1,0,2,1,2,1,0
24.5,0,0,1,0,0,1,1,1
24.505,1,1,1,0,3,1,3,1
24.51,1,1,2,1,1,1,1,2
24.515,2,2,0,0,4,0,0,0
24.52,1,2,1,0,1,1,1,0
24.525,3,1,2,3,0,0,3,2
24.53,0,1,2,0,0,2,0,3
24.535,1,1,2,1,1,2,2,1
24.54,2,0,1,1,3,0,2,1
24.545,2,2,1,0,1,3,2,0
24.55,2,2,2,0,1,1,2,0
24.555,0,3,1,0,0,0,0,2
24.56,1,1,0,1,0,1,2,1
24.565,0,2,2,3,2,2,1,1
24.57,1,2,1,2,1,2,2,0
24.575,2,1,0,1,2,2,0,1
24.58,1,1,1,1,0,0,0,1
24.585,1,1,2,0,1,2,1,0
24.59,0,1,1,3,1,1,0,0
24.595,2,1,2,0,4,1,2,1
24.6,1,3,1,1,2,3,0,2
24.605,0,2,1,0,1,1,2,2
24.61,0,0,2,0,1,2,4,1
24.615,1,0,1,1,1,1,0,2
24.62,0,1,0,0,0,1,0,0
24.625,2,0,2,0,5,2,2,0
24.63,1,1,2,1,1,3,2,1
24.635,1,1,1,3,0,0,3,3
24.64,2,1,1,3,1,2,0,1
24.645,2,1,1,0,1,0,3,1
24.65,1,2,1,1,2,2,1,2
24.655,2,2,1,3,1,0,0,2
24.66,1,1,2,3,3,1,1,3
24.665,0,1,2,1,1,1,2,2
24.67,2,1,3,1,1,1,2,2
24.675,0,1,2,2,0,1,1,2
24.68,1,2,2,1,3,1,2,2
24.685,1,2,1,0,0,0,1,2
24.69,2,1,1,0,3,1,1,3
24.695,1,2,0,2,1,1,1,1
24.7,2,1,0,1,1,1,2,0
24.705,1,1,0,0,3,0,2,0
24.71,0,1,1,1,1,0,2,2
24.715,2,1,1,1,1,2,1,2
24.72,2,1,3,1,1,0,1,1
24.725,0,1,1,3,1,1,2,2
24.73,0,3,1,2,2,0,0,0
24.735,0,0,2,0,2,1,3,1
24.74,1,1,2,1,1,2,2,1
24.745,1,2,1,1,2,1,2,3
24.75,2,0,0,2,3,1,3,1
24.755,0,2,0,2,0,3,1,1
24.76,1,1,0,1,0,2,2,2
24.765,1,2,3,2,0,2,1,1
24.77,1,0,1,2,4,0,3,3
24.775,2,1,1,1,1,2,2,2
24.78,1,1,0,1,1,1,1,0
24.785,0,1,1,1,2,0,0,4
24.79,3,0,2,0,1,0,1,1
24.795,2,0,0,0,1,1,3,2
24.8,2,1,0,4,2,0,0,0
24.805,0,2,0,2,0,1,1,1
24.81,2,1,0,1,1,1,0,3
24.815,2,0,0,0,3,1,0,2
24.82,1,1,3,0,1,3,2,1
24.825,0,1,2,0,2,2,4,0
24.83,1,0,2,0,4,1,1,1
24.835,1,2,2,0,1,1,2,1
24.84,1,1,2,1,3,1,1,0
24.845,1,1,0,1,1,1,1,1
24.85,0,1,0,1,0,3,0,1
24.855,0,1,1,0,3,2,1,1
24.86,1,2,1,0,0,2,3,1
24.865,2,1,1,2,2,1,2,1
24.87,3,1,2,1,1,2,1,0
24.875,2,2,1,1,0,3,0,0
24.88,0,2,0,1,0,1,2,2
24.885,1,2,1,4,1,0,0,2
24.89,0,1,1,0,0,1,1,1
24.895,2,0,1,1,2,1,2,1
24.9,2,0,2,3,2,1,0,1
24.905,2,1,1,2,2,2,0,0
24.91,2,2,2,1,3,1,1,1
24.915,0,1,0,3,2,1,1,0
24.92,1,0,1,0,1,1,1,2
24.925,0,2,2,2,1,1,1,3
24.93,0,3,1,2,1,1,1,2
24.935,1,1,2,0,2,1,1,2
24.94,1,1,1,0,2,0,0,1
24.945,0,0,1,0,3,0,0,1
24.95,1,2,0,1,2,0,1,2
24.955,3,2,0,1,1,3,2,1
24.96,3,0,1,2,1,0,2,1
24.965,2,0,3,0,0,0,1,2
24.97,1,0,0,1,0,0,2,1
24.975,1,1,1,1,1,0,1,2
24.98,1,0,1,2,2,0,3,3
24.985,2,2,0,2,0,1,2,1
24.99,0,3,1,3,3,2,1,0
24.995,2,1,1,1,2,1,2,1
25,2,1,3,2,3,1,2,3
25.005,0,1,2,1,1,1,1,1
25.01,2,1,0,0,0,1,4,2
25.015,1,3,1,1,3,1,2,0
25.02,0,2,2,1,2,1,1,1
25.025,2,0,1,0,1,1,1,4
25.03,1,0,0,2,1,2,1,1
25.035,1,0,3,1,1,0,2,2
25.04,1,0,1,1,2,0,0,3
25.045,0,1,1,0,2,1,2,0
25.05,2,0,1,0,2,4,1,2
25.055,0,1,0,2,2,0,3,1
25.06,0,2,1,1,0,2,1,2
25.065,0,1,2,3,0,2,0,1
25.07,1,1,2,1,1,1,2,1
25.075,1,0,2,1,1,1,2,2
25.08,0,1,0,1,2,2,2,1
25.085,2,3,2,3,1,1,0,1
25.09,0,4,3,2,2,2,1,2
25.095,1,2,0,0,1,2,1,3
25.1,1,1,3,1,1,0,2,1
25.105,1,1,1,1,0,2,1,1
25.11,1,2,0,1,2,2,2,3
25.115,0,2,2,1,4,1,0,0
25.12,0,2,0,3,0,1,3,1
25.125,1,1,2,1,2,2,2,1
25.13,0,1,2,0,3,2,1,2
25.135,2,0,1,0,2,3,2,0
25.14,3,1,2,0,0,1,3,1
25.145,1,1,1,1,0,1,1,1
25.15,3,1,1,1,0,1,0,1
25.155,1,1,0,0,2,0,3,3
25.16,0,3,2,1,1,1,0,1
25.165,0,2,1,1,1,0,2,0
25.17,2,1,1,2,0,0,2,2
25.175,1,1,1,0,1,1,3,1
25.18,1,0,0,0,3,1,0,2
25.185,1,0,0,0,2,1,1,2
25.19,2,1,1,2,0,1,1,2
25.195,1,2,1,2,1,1,2,2
25.2,0,1,1,2,0,1,3,0
25.205,3,1,1,1,0,2,1,1
25.21,0,0,2,1,2,3,1,1
25.215,3,1,0,2,0,2,2,3
25.22,2,2,2,1,4,0,1,1
25.225,2,0,0,0,2,1,0,2
25.23,0,0,3,0,3,2,3,4
25.235,2,2,1,1,2,2,1,0
25.24,1,2,0,0,1,0,3,0
25.245,2,2,2,0,1,1,1,0
25.25,1,3,1,1,1,1,1,1
25.255,1,1,1,2,1,1,0,2
25.26,1,0,1,1,2,1,2,1
25.265,1,2,2,1,2,3,2,1
25.27,2,0,1,0,1,1,3,4
25.275,0,2,0,1,0,2,1,2
25.28,1,0,1,3,2,2,0,2
25.285,1,1,0,2,1,2,1,2
25.29,2,2,2,1,1,1,2,1
25.295,1,0,2,0,1,1,1,1
25.3,1,2,3,1,1,2,2,3
25.305,1,0,0,0,1,0,2,1
25.31,1,1,2,1,1,1,3,0
25.315,1,2,1,0,4,1,0,0
25.32,1,2,0,1,1,1,1,1
25.325,1,2,2,1,0,1,1,2
25.33,1,2,0,3,1,1,1,2
25.335,1,0,2,3,2,1,2,1
25.34,3,1,0,2,1,1,0,3
25.345,2,2,2,2,4,1,1,4
25.35,0,0,2,1,1,1,1,3
25.355,2,2,1,0,1,1,1,1
25.36,1,1,0,1,0,0,2,4
25.365,1,1,1,2,1,0,1,2
25.37,1,1,1,1,3,1,0,1
25.375,1,3,1,2,2,1,1,2
25.38,1,2,1,2,1,0,1,1
25.385,2,2,0,0,1,1,1,1
25.39,1,1,1,4,2,2,1,2
25.395,1,1,3,1,1,2,2,1
25.4,3,0,4,1,2,2,2,1
25.405,0,2,1,2,2,2,2,1
25.41,1,1,3,2,0,1,0,0
25.415,0,2,1,1,3,0,1,3
25.42,1,2,0,1,2,1,1,3
25.425,1,1,2,2,2,0,2,1
25.43,2,2,1,2,0,0,0,1
25.435,0,0,1,1,3,3,3,0
25.44,2,0,2,3,1,2,1,2
25.445,1,0,1,1,1,1,2,1
25.45,1,1,1,0,1,1,1,1
25.455,1,1,1,2,0,0,2,1
25.46,0,1,1,0,2,2,1,0
25.465,1,0,0,1,1,1,2,1
25.47,0,1,0,1,1,1,3,1
25.475,3,2,0,3,4,1,2,2
25.48,2,1,0,1,2,0,3,3
25.485,1,2,1,1,3,0,1,1
25.49,1,1,2,2,2,0,1,4
25.495,3,1,0,2,2,2,0,0
25.5,1,2,0,1,1,1,2,2
25.505,1,3,3,1,2,2,0,2
25.51,1,1,1,0,2,1,3,0
25.515,1,1,4,2,0,2,1,1
25.52,3,1,0,2,3,5,0,0
25.525,2,2,0,2,2,1,1,0
25.53,2,1,1,0,0,3,3,2
25.535,1,2,1,1,1,1,0,2
25.54,2,2,1,1,2,0,0,0
25.545,1,1,1,1,2,1,2,3
25.55,2,2,1,2,4,0,2,1
25.555,1,2,1,1,0,0,2,2
25.56,1,1,3,1,3,1,1,0
25.565,0,1,0,1,0,1,1,2
25.57,0,1,1,1,2,1,1,0
25.575,2,3,0,1,1,2,1,0
25.58,1,2,1,1,2,2,1,1
25.585,1,3,2,3,0,2,1,1
25.59,1,2,2,1,3,1,0,1
25.595,0,1,2,0,1,1,0,1
25.6,3,2,1,2,0,2,1,1
25.605,2,0,1,1,0,3,2,0
25.61,1,2,2,0,1,1,2,0
25.615,2,1,1,1,2,2,1,0
25.62,2,2,1,1,3,0,3,3
25.625,2,2,3,2,0,0,2,1
25.63,1,1,1,0,1,1,2,1
25.635,1,1,0,2,2,0,2,4
25.64,1,2,3,4,2,0,1,0
25.645,0,0,1,2,1,0,1,3
25.65,2,2,2,3,3,1,1,0
25.655,0,0,3,3,2,1,1,0
25.66,1,0,0,2,1,2,1,4
25.665,2,0,1,1,3,5,4,3
25.67,1,1,1,2,1,0,0,2
25.675,0,2,2,1,2,1,3,1
25.68,1,2,1,2,1,1,0,1
25.685,1,1,0,1,2,2,1,0
25.69,1,2,2,4,1,0,1,2
25.695,1,2,1,2,3,2,2,2
25.7,0,1,0,1,1,0,0,1
25.705,1,2,1,3,0,1,1,1
25.71,1,2,4,7,1,2,3,0
25.715,1,1,3,1,0,2,1,1
25.72,2,1,1,1,2,3,1,2
25.725,1,2,7,10,5,2,1,3
25.73,0,3,9,13,9,2,3,3
25.735,1,2,4,5,2,2,2,1
25.74,1,2,1,6,1,0,1,0
25.745,1,0,0,7,5,1,2,0
25.75,1,1,8,11,0,0,1,2
25.755,1,0,0,5,0,1,0,1
25.76,0,3,5,2,1,0,2,0
25.765,1,3,3,3,4,0,1,0
25.77,1,2,0,1,0,2,1,0
25.775,2,1,0,1,3,0,2,2
25.78,3,0,0,2,1,1,0,1
25.785,1,1,3,0,2,1,3,1
25.79,1,2,4,3,1,2,1,4
25.795,0,1,2,3,2,2,2,2
25.8,1,0,2,1,1,1,1,2
25.805,2,2,3,4,2,2,0,2
25.81,2,1,3,2,1,1,1,0
25.815,1,1,0,1,0,2,1,1
25.82,0,2,1,1,3,2,1,3
25.825,1,2,4,2,2,1,3,3
25.83,0,2,1,1,1,1,1,1
25.835,1,1,1,1,2,0,0,3
25.84,1,0,0,0,0,2,4,1
25.845,1,0,1,4,2,1,1,5
25.85,2,0,1,2,1,1,1,2
25.855,2,3,1,4,4,4,3,0
25.86,1,1,1,1,1,0,3,0
25.865,1,1,4,0,0,1,3,2
25.87,2,1,1,0,1,1,2,1
25.875,2,3,3,2,0,0,1,1
25.88,2,1,1,2,2,1,2,2
25.885,1,2,0,1,2,0,3,0
25.89,1,1,0,1,1,1,1,1
25.895,2,1,1,1,2,1,0,0
25.9,2,3,3,3,3,0,0,2
25.905,1,0,0,0,1,1,3,3
25.91,2,2,1,0,0,1,0,1
25.915,0,1,0,3,1,0,2,3
25.92,2,1,3,4,0,1,0,1
25.925,0,2,0,2,3,2,1,1
25.93,2,0,0,3,1,2,0,1
25.935,1,0,2,1,2,1,1,1
25.94,1,3,2,3,1,2,3,4
25.945,2,1,1,1,1,0,1,1
25.95,1,0,4,0,0,2,4,0
25.955,0,1,2,1,0,1,1,1
25.96,1,1,1,1,1,3,2,0
25.965,1,1,1,2,4,0,0,1
25.97,1,2,3,0,1,2,1,0
25.975,2,0,1,1,1,1,0,3
25.98,0,1,2,1,3,0,0,1
25.985,1,1,1,2,0,2,1,0
25.99,0,2,0,1,2,3,0,2
25.995,3,2,1,2,0,0,2,0
26,2,2,0,1,0,1,0,1
26.005,0,1,2,1,1,0,1,1
26.01,1,1,0,1,1,2,4,2
26.015,1,0,1,1,2,0,3,3
26.02,2,1,1,2,2,1,1,2
26.025,3,0,1,1,2,1,2,2
26.03,0,2,0,1,2,0,0,2
26.035,0,1,0,1,0,1,0,2
26.04,1,0,1,1,2,1,1,1
26.045,0,2,1,1,1,1,3,0
26.05,2,0,0,2,1,2,0,1
26.055,1,3,0,0,1,1,1,3
26.06,2,1,1,1,2,1,3,0
26.065,0,2,1,2,0,1,2,2
26.07,1,2,4,2,2,0,3,2
26.075,1,0,2,0,2,0,1,1
26.08,1,0,1,0,1,2,1,4
26.085,3,2,0,0,1,2,0,0
26.09,1,1,1,4,3,0,2,1
26.095,1,1,1,1,1,2,2,0
26.1,1,1,1,1,1,2,2,2
26.105,1,1,0,2,1,1,1,2
26.11,1,1,0,0,0,0,1,1
26.115,0,1,2,3,3,0,2,1
26.12,1,2,3,1,2,3,1,2
26.125,2,2,1,2,0,1,2,1
26.13,0,0,1,0,1,1,0,3
26.135,2,1,0,1,0,2,4,0
26.14,1,1,1,1,1,2,0,1
26.145,1,1,0,4,1,3,1,0
26.15,2,2,0,0,2,1,2,0
26.155,2,3,1,0,1,2,1,3
26.16,0,2,0,2,3,0,2,2
26.165,0,0,1,1,1,1,1,1
26.17,2,0,1,3,1,2,5,2
26.175,0,3,2,2,1,1,1,1
26.18,1,1,3,0,0,0,2,0
26.185,1,1,1,1,1,1,0,1
26.19,1,1,1,1,1,0,2,0
26.195,3,2,3,2,3,0,1,2
26.2,0,1,0,2,2,1,4,0
26.205,1,1,2,1,4,2,1,0
26.21,1,1,1,1,1,1,4,2
26.215,1,1,1,0,3,2,0,0
26.22,0,1,0,1,0,1,3,1
26.225,0,1,1,1,1,1,2,1
26.23,1,1,1,1,0,1,0,1
26.235,1,0,1,0,0,2,3,2
26.24,2,1,1,0,1,1,2,3
26.245,3,1,2,0,3,4,1,4
26.25,0,2,1,1,2,0,1,2
26.255,1,1,2,1,0,2,1,0
26.26,0,1,1,1,1,1,0,0
26.265,2,2,2,1,2,1,1,1
26.27,3,0,2,0,1,2,2,2
26.275,1,0,1,2,2,1,1,2
26.28,3,1,2,0,0,3,3,1
26.285,0,1,0,2,2,5,2,1
26.29,1,0,1,2,1,0,0,2
26.295,0,2,2,2,2,0,1,2
26.3,1,1,3,0,4,2,0,2
26.305,1,3,1,2,2,2,1,3
26.31,1,2,1,0,2,3,0,1
26.315,0,1,0,4,1,1,1,4
26.32,0,1,2,2,3,2,2,0
26.325,1,0,0,1,1,2,1,1
26.33,1,1,2,1,1,1,1,2
26.335,2,1,1,1,0,0,3,0
26.34,1,1,1,0,0,4,1,1
26.345,1,0,2,0,2,2,1,1
26.35,2,1,1,1,0,1,0,0
26.355,1,0,0,1,1,2,0,1
26.36,0,4,1,2,3,1,2,1
26.365,0,0,1,1,2,1,2,1
26.37,3,1,1,2,1,1,0,1
26.375,1,0,1,2,3,2,0,3
26.38,2,0,1,1,1,1,1,1
26.385,2,1,2,0,1,0,2,2
26.39,2,2,2,4,2,3,1,0
26.395,2,1,1,1,1,1,0,0
26.4,0,0,1,0,1,2,3,3
26.405,1,2,1,1,1,1,1,1
26.41,2,0,0,2,2,0,1,3
26.415,0,1,2,0,2,0,4,0
26.42,0,0,1,1,2,0,0,1
26.425,1,1,0,1,1,1,4,3
26.43,1,2,3,0,1,1,2,0
26.435,0,2,1,0,3,2,1,1
26.44,2,2,1,2,0,1,2,2
26.445,1,0,1,2,2,2,1,1
26.45,1,1,1,0,0,0,1,1
26.455,1,2,2,2,0,3,1,1
26.46,0,0,0,0,5,1,0,0
26.465,1,1,0,1,1,0,0,1
26.47,1,1,1,1,2,1,1,2
26.475,2,0,2,2,2,0,2,2
26.48,2,2,0,1,1,3,2,0
26.485,0,1,2,0,3,2,2,1
26.49,0,0,0,1,2,2,0,0
26.495,0,0,2,0,0,1,3,2
26.5,2,0,1,1,2,4,2,0
26.505,2,1,1,1,3,1,2,5
26.51,1,1,2,1,1,2,1,1
26.515,3,2,1,1,2,1,1,1
26.52,0,2,2,0,0,1,1,1
26.525,2,0,0,1,2,2,1,0
26.53,1,3,2,0,1,1,2,3
26.535,1,2,1,2,1,0,0,1
26.54,1,2,2,0,2,1,3,0
26.545,1,3,2,1,2,2,2,2
26.55,2,2,2,2,4,0,2,3
26.555,1,0,2,2,0,2,0,2
26.56,0,2,1,3,2,2,1,2
26.565,0,2,2,2,0,1,0,0
26.57,0,1,1,1,1,0,2,1
26.575,0,2,0,6,2,2,3,0
26.58,1,1,1,1,2,2,1,3
26.585,1,2,1,1,2,2,1,2
26.59,0,0,0,1,1,0,3,1
26.595,0,1,1,3,2,1,0,0
26.6,1,0,1,3,3,2,0,3
26.605,2,4,0,3,3,0,2,0
26.61,2,0,2,0,1,2,3,1
26.615,1,0,1,1,2,2,2,2
26.62,1,0,0,1,0,2,2,0
26.625,2,4,1,0,0,1,3,3
26.63,2,1,1,1,0,0,3,1
26.635,1,2,0,3,3,3,2,2
26.64,1,2,1,1,1,1,0,1
26.645,1,1,1,2,3,1,1,1
26.65,1,2,2,3,5,1,3,2
26.655,3,2,1,3,1,1,2,0
26.66,2,1,2,4,1,1,0,2
26.665,1,3,0,1,1,5,1,2
26.67,2,0,2,3,2,0,0,1
26.675,3,2,2,3,4,2,2,0
26.68,1,1,1,1,0,2,4,1
26.685,2,4,1,1,0,0,1,2
26.69,1,4,0,2,2,4,1,3
26.695,1,1,2,3,1,4,1,3
26.7,1,1,1,0,1,1,1,0
26.705,0,1,2,2,0,1,1,1
26.71,2,1,0,1,1,3,0,1
26.715,1,0,1,1,0,0,0,0
26.72,3,0,1,2,2,1,3,1
26.725,0,1,0,2,0,1,0,0
26.73,2,2,2,2,2,1,1,3
26.735,0,2,2,1,1,0,2,2
26.74,1,2,1,1,0,2,2,2
26.745,1,3,3,3,0,0,2,2
26.75,0,2,1,0,0,1,2,1
26.755,3,2,0,0,3,2,1,2
26.76,2,2,0,1,0,1,1,3
26.765,1,2,1,2,3,2,2,2
26.77,0,1,1,1,0,0,1,5
26.775,1,3,4,2,1,1,0,1
26.78,1,1,1,1,2,0,1,2
26.785,1,0,2,2,0,1,1,2
26.79,2,1,1,0,1,0,3,0
26.795,1,2,2,0,2,2,0,1
26.8,1,1,0,2,3,3,1,2
26.805,1,0,2,2,2,2,1,2
26.81,1,1,1,1,3,1,1,1
26.815,1,1,1,2,0,1,2,3
26.82,1,1,2,2,3,4,2,1
26.825,2,1,1,0,2,2,1,3
26.83,2,3,2,0,1,2,2,2
26.835,2,1,2,2,0,1,1,2
26.84,2,1,1,2,3,2,1,0
26.845,2,0,3,2,0,1,0,1
26.85,1,0,0,2,0,1,0,3
26.855,2,1,1,1,2,1,0,1
26.86,1,2,2,0,1,0,1,0
26.865,0,1,0,0,0,0,3,5
26.87,0,2,2,1,1,2,1,1
26.875,0,3,2,1,1,1,3,0
26.88,2,1,1,0,2,2,1,1
26.885,0,2,1,2,2,0,2,2
26.89,0,0,1,0,1,1,1,2
26.895,0,0,1,1,0,3,1,1
26.9,1,1,0,0,3,0,3,1
26.905,0,1,1,0,0,2,0,2
26.91,1,1,0,3,1,0,1,3
26.915,2,1,1,0,1,1,1,1
26.92,2,0,2,1,3,3,2,0
26.925,0,1,1,2,0,2,3,0
26.93,1,1,1,2,1,1,4,1
26.935,1,1,1,2,2,0,1,4
26.94,0,1,0,2,0,3,1,2
26.945,2,1,0,1,2,2,1,1
26.95,0,0,1,2,2,1,2,0
26.955,0,1,2,2,2,1,2,2
26.96,2,2,0,1,1,1,4,0
26.965,1,1,2,0,0,1,1,0
26.97,1,2,1,1,1,1,1,1
26.975,1,1,1,3,0,1,4,2
26.98,1,0,2,0,2,2,1,3
26.985,1,2,2,3,2,1,2,1
26.99,3,1,3,2,0,2,1,1
26.995,0,1,3,0,2,0,1,0
27,0,3,2,4,2,3,1,1
27.005,2,2,2,0,0,2,1,0
27.01,2,1,0,2,0,1,1,1
27.015,2,1,0,2,0,1,0,2
27.02,0,0,1,0,2,1,0,3
27.025,2,0,0,1,0,1,1,1
27.03,1,1,1,2,1,1,2,1
27.035,2,0,0,0,2,1,1,1
27.04,1,1,1,1,2,2,3,1
27.045,1,0,0,2,2,1,2,1
27.05,0,1,1,1,1,1,2,2
27.055,1,1,4,3,3,1,3,2
27.06,2,1,1,1,2,2,1,1
27.065,3,2,3,0,2,2,1,0
27.07,1,0,1,0,3,4,1,2
27.075,1,1,1,0,0,3,3,3
27.08,1,2,2,2,0,1,3,0
27.085,1,1,2,1,3,1,0,1
27.09,1,1,2,0,0,2,2,1
27.095,1,0,1,2,4,1,3,1
27.1,1,1,3,2,2,1,3,1
27.105,1,1,1,0,0,1,2,1
27.11,0,2,1,2,1,1,1,1
27.115,2,2,1,1,2,1,1,0
27.12,2,0,1,4,2,3,2,2
27.125,2,1,1,0,3,0,2,3
27.13,2,3,2,2,0,0,1,1
27.135,1,3,2,2,1,0,1,1
27.14,1,1,1,2,1,0,1,2
27.145,1,1,1,2,1,1,0,0
27.15,3,1,1,1,2,3,1,3
27.155,0,1,1,1,1,1,2,1
27.16,2,1,2,1,2,3,1,1
27.165,1,1,0,3,1,3,0,1
27.17,2,2,2,0,1,2,0,3
27.175,1,2,2,0,2,1,1,1
