0.005,0.0,2.0,0.0,3.0,5.0,3.0,-2.0,0.0,0.65087890625,0.4012451171875,-0.5673828125,-0.3056640625,-0.50048828125,-0.87451171875,-0.17041015625,-3.6875,0.0,4.25
0.01,0.0,2.0,0.0,3.0,5.0,3.0,-2.0,0.0,0.65087890625,0.4012451171875,-0.5673828125,-0.3056640625,-0.50048828125,-0.87451171875,-0.17041015625,-3.6875,0.0,4.25
0.015,-2.0,-2.0,4.0,9.0,-4.0,1.0,-1.0,0.0,0.6512451171875,0.401123046875,-0.56744384765625,-0.304931640625,-0.501953125,-0.87744140625,-0.17529296875,-2.8125,-0.625,4.3125
0.02,-2.0,-2.0,4.0,9.0,-4.0,1.0,-1.0,0.0,0.6512451171875,0.401123046875,-0.56744384765625,-0.304931640625,-0.501953125,-0.87744140625,-0.17529296875,-2.8125,-0.625,4.3125
0.025,-2.0,-2.0,4.0,9.0,-4.0,1.0,-1.0,0.0,0.6512451171875,0.401123046875,-0.56744384765625,-0.304931640625,-0.501953125,-0.87744140625,-0.17529296875,-2.8125,-0.625,4.3125
0.030000000000000002,1.0,0.0,5.0,-2.0,-1.0,1.0,-4.0,0.0,0.6512451171875,0.401123046875,-0.56744384765625,-0.304931640625,-0.501953125,-0.87744140625,-0.17529296875,-2.8125,-0.625,4.3125
0.035,1.0,0.0,5.0,-2.0,-1.0,1.0,-4.0,0.0,0.6512451171875,0.401123046875,-0.56744384765625,-0.304931640625,-0.501953125,-0.87744140625,-0.17529296875,-2.8125,-0.625,4.3125
0.04,1.0,0.0,5.0,-2.0,-1.0,1.0,-4.0,0.0,0.651611328125,0.40087890625,-0.5677490234375,-0.30389404296875,-0.509765625,-0.8671875,-0.1728515625,-3.1875,-1.625,5.25
0.045,1.0,0.0,5.0,-2.0,-1.0,1.0,-4.0,0.0,0.651611328125,0.40087890625,-0.5677490234375,-0.30389404296875,-0.509765625,-0.8671875,-0.1728515625,-3.1875,-1.625,5.25
0.049999999999999996,-9.0,1.0,-2.0,-3.0,4.0,4.0,0.0,0.0,0.651611328125,0.40087890625,-0.5677490234375,-0.30389404296875,-0.509765625,-0.8671875,-0.1728515625,-3.1875,-1.625,5.25
0.05499999999999999,-9.0,1.0,-2.0,-3.0,4.0,4.0,0.0,0.0,0.651611328125,0.40087890625,-0.5677490234375,-0.30389404296875,-0.509765625,-0.8671875,-0.1728515625,-3.1875,-1.625,5.25
0.05999999999999999,-1.0,-3.0,-1.0,-5.0,-7.0,-5.0,-6.0,-1.0,0.65216064453125,0.4007568359375,-0.56781005859375,-0.3028564453125,-0.50537109375,-0.869140625,-0.1826171875,-3.75,-1.0,5.5
0.06499999999999999,-1.0,-3.0,-1.0,-5.0,-7.0,-5.0,-6.0,-1.0,0.65216064453125,0.4007568359375,-0.56781005859375,-0.3028564453125,-0.50537109375,-0.869140625,-0.1826171875,-3.75,-1.0,5.5
0.06999999999999999,0.0,-3.0,-5.0,0.0,-2.0,-2.0,0.0,1.0,0.65216064453125,0.4007568359375,-0.56781005859375,-0.3028564453125,-0.50537109375,-0.869140625,-0.1826171875,-3.75,-1.0,5.5
0.075,0.0,-3.0,-5.0,0.0,-2.0,-2.0,0.0,1.0,0.65216064453125,0.4007568359375,-0.56781005859375,-0.3028564453125,-0.50537109375,-0.869140625,-0.1826171875,-3.75,-1.0,5.5
0.08,0.0,-3.0,-5.0,0.0,-2.0,-2.0,0.0,1.0,0.65216064453125,0.4007568359375,-0.56781005859375,-0.3028564453125,-0.50537109375,-0.869140625,-0.1826171875,-3.75,-1.0,5.5
0.085,0.0,-3.0,-5.0,0.0,-2.0,-2.0,0.0,1.0,0.65216064453125,0.4007568359375,-0.56781005859375,-0.3028564453125,-0.50537109375,-0.869140625,-0.1826171875,-3.75,-1.0,5.5
0.09000000000000001,0.0,0.0,0.0,3.0,-2.0,-5.0,-10.0,-3.0,0.65283203125,0.4007568359375,-0.56768798828125,-0.30157470703125,-0.5048828125,-0.87548828125,-0.18115234375,-6.4375,-0.5625,6.1875
0.09500000000000001,0.0,0.0,0.0,3.0,-2.0,-5.0,-10.0,-3.0,0.65283203125,0.4007568359375,-0.56768798828125,-0.30157470703125,-0.5048828125,-0.87548828125,-0.18115234375,-6.4375,-0.5625,6.1875
0.10000000000000002,0.0,0.0,0.0,3.0,-2.0,-5.0,-10.0,-3.0,0.65283203125,0.4007568359375,-0.56768798828125,-0.30157470703125,-0.5048828125,-0.87548828125,-0.18115234375,-6.4375,-0.5625,6.1875
0.10500000000000002,0.0,-4.0,-8.0,6.0,-6.0,0.0,-3.0,-3.0,0.65283203125,0.4007568359375,-0.56768798828125,-0.30157470703125,-0.5048828125,-0.87548828125,-0.18115234375,-6.4375,-0.5625,6.1875
0.11000000000000003,0.0,-4.0,-8.0,6.0,-6.0,0.0,-3.0,-3.0,0.65283203125,0.4007568359375,-0.56768798828125,-0.30157470703125,-0.5048828125,-0.87548828125,-0.18115234375,-6.4375,-0.5625,6.1875
0.11500000000000003,0.0,-4.0,-8.0,6.0,-6.0,0.0,-3.0,-3.0,0.6536865234375,0.40093994140625,-0.5675048828125,-0.29986572265625,-0.50537109375,-0.87353515625,-0.185546875,-8.5,-1.0625,7.0
0.12000000000000004,0.0,-4.0,-8.0,6.0,-6.0,0.0,-3.0,-3.0,0.6536865234375,0.40093994140625,-0.5675048828125,-0.29986572265625,-0.50537109375,-0.87353515625,-0.185546875,-8.5,-1.0625,7.0
0.12500000000000003,0.0,-2.0,-4.0,-10.0,0.0,-1.0,0.0,-1.0,0.6536865234375,0.40093994140625,-0.5675048828125,-0.29986572265625,-0.50537109375,-0.87353515625,-0.185546875,-8.5,-1.0625,7.0
0.13000000000000003,0.0,-2.0,-4.0,-10.0,0.0,-1.0,0.0,-1.0,0.6536865234375,0.40093994140625,-0.5675048828125,-0.29986572265625,-0.50537109375,-0.87353515625,-0.185546875,-8.5,-1.0625,7.0
0.13500000000000004,0.0,-1.0,0.0,-8.0,3.0,0.0,0.0,-3.0,0.6536865234375,0.40093994140625,-0.5675048828125,-0.29986572265625,-0.50537109375,-0.87353515625,-0.185546875,-8.5,-1.0625,7.0
0.14000000000000004,0.0,-1.0,0.0,-8.0,3.0,0.0,0.0,-3.0,0.65435791015625,0.40087890625,-0.567626953125,-0.29815673828125,-0.50439453125,-0.8681640625,-0.18359375,-7.375,-2.1875,8.375
0.14500000000000005,0.0,-3.0,-1.0,6.0,-1.0,-4.0,-1.0,-3.0,0.65435791015625,0.40087890625,-0.567626953125,-0.29815673828125,-0.50439453125,-0.8681640625,-0.18359375,-7.375,-2.1875,8.375
0.15000000000000005,0.0,-3.0,-1.0,6.0,-1.0,-4.0,-1.0,-3.0,0.65435791015625,0.40087890625,-0.567626953125,-0.29815673828125,-0.50439453125,-0.8681640625,-0.18359375,-7.375,-2.1875,8.375
0.15500000000000005,0.0,-3.0,-1.0,6.0,-1.0,-4.0,-1.0,-3.0,0.65435791015625,0.40087890625,-0.567626953125,-0.29815673828125,-0.50439453125,-0.8681640625,-0.18359375,-7.375,-2.1875,8.375
0.16000000000000006,0.0,-3.0,-1.0,6.0,-1.0,-4.0,-1.0,-3.0,0.65435791015625,0.40087890625,-0.567626953125,-0.29815673828125,-0.50439453125,-0.8681640625,-0.18359375,-7.375,-2.1875,8.375
0.16500000000000006,0.0,-3.0,-1.0,6.0,-1.0,-4.0,-1.0,-3.0,0.65435791015625,0.40087890625,-0.567626953125,-0.29815673828125,-0.50439453125,-0.8681640625,-0.18359375,-7.375,-2.1875,8.375
0.17000000000000007,1.0,-4.0,-9.0,-9.0,-9.0,-9.0,-5.0,-5.0,0.6551513671875,0.400634765625,-0.5677490234375,-0.29644775390625,-0.51513671875,-0.859375,-0.18115234375,-6.5625,-1.4375,8.5625
0.17500000000000007,1.0,-4.0,-9.0,-9.0,-9.0,-9.0,-5.0,-5.0,0.6551513671875,0.400634765625,-0.5677490234375,-0.29644775390625,-0.51513671875,-0.859375,-0.18115234375,-6.5625,-1.4375,8.5625
0.18000000000000008,1.0,-4.0,-9.0,-9.0,-9.0,-9.0,-5.0,-5.0,0.6551513671875,0.400634765625,-0.5677490234375,-0.29644775390625,-0.51513671875,-0.859375,-0.18115234375,-6.5625,-1.4375,8.5625
0.18500000000000008,-5.0,-1.0,1.0,10.0,3.0,6.0,8.0,1.0,0.6551513671875,0.400634765625,-0.5677490234375,-0.29644775390625,-0.51513671875,-0.859375,-0.18115234375,-6.5625,-1.4375,8.5625
0.19000000000000009,-5.0,-1.0,1.0,10.0,3.0,6.0,8.0,1.0,0.6551513671875,0.400634765625,-0.5677490234375,-0.29644775390625,-0.51513671875,-0.859375,-0.18115234375,-6.5625,-1.4375,8.5625
0.1950000000000001,1.0,1.0,0.0,-8.0,2.0,2.0,-3.0,-1.0,0.65618896484375,0.4005126953125,-0.56768798828125,-0.29461669921875,-0.51708984375,-0.85400390625,-0.193359375,-7.875,-0.6875,8.5
0.2000000000000001,1.0,1.0,0.0,-8.0,2.0,2.0,-3.0,-1.0,0.65618896484375,0.4005126953125,-0.56768798828125,-0.29461669921875,-0.51708984375,-0.85400390625,-0.193359375,-7.875,-0.6875,8.5
0.2050000000000001,1.0,1.0,0.0,-8.0,2.0,2.0,-3.0,-1.0,0.65618896484375,0.4005126953125,-0.56768798828125,-0.29461669921875,-0.51708984375,-0.85400390625,-0.193359375,-7.875,-0.6875,8.5
0.2100000000000001,1.0,1.0,0.0,-8.0,2.0,2.0,-3.0,-1.0,0.65618896484375,0.4005126953125,-0.56768798828125,-0.29461669921875,-0.51708984375,-0.85400390625,-0.193359375,-7.875,-0.6875,8.5
0.2150000000000001,-1.0,-3.0,-3.0,14.0,-6.0,-10.0,-12.0,-6.0,0.6572265625,0.40045166015625,-0.56744384765625,-0.292724609375,-0.51611328125,-0.845703125,-0.19189453125,-9.1875,-0.1875,8.5
0.2200000000000001,-1.0,-3.0,-3.0,14.0,-6.0,-10.0,-12.0,-6.0,0.6572265625,0.40045166015625,-0.56744384765625,-0.292724609375,-0.51611328125,-0.845703125,-0.19189453125,-9.1875,-0.1875,8.5
0.22500000000000012,-11.0,1.0,3.0,-16.0,7.0,12.0,7.0,1.0,0.6572265625,0.40045166015625,-0.56744384765625,-0.292724609375,-0.51611328125,-0.845703125,-0.19189453125,-9.1875,-0.1875,8.5
0.23000000000000012,-11.0,1.0,3.0,-16.0,7.0,12.0,7.0,1.0,0.6572265625,0.40045166015625,-0.56744384765625,-0.292724609375,-0.51611328125,-0.845703125,-0.19189453125,-9.1875,-0.1875,8.5
0.23500000000000013,-11.0,1.0,3.0,-16.0,7.0,12.0,7.0,1.0,0.6572265625,0.40045166015625,-0.56744384765625,-0.292724609375,-0.51611328125,-0.845703125,-0.19189453125,-9.1875,-0.1875,8.5
0.24000000000000013,-11.0,1.0,3.0,-16.0,7.0,12.0,7.0,1.0,0.6572265625,0.40045166015625,-0.56744384765625,-0.292724609375,-0.51611328125,-0.845703125,-0.19189453125,-9.1875,-0.1875,8.5
0.24500000000000013,2.0,-1.0,-1.0,-2.0,-6.0,-13.0,-1.0,0.0,0.65838623046875,0.400390625,-0.56719970703125,-0.2906494140625,-0.5244140625,-0.85107421875,-0.19189453125,-9.8125,-0.125,9.0
0.2500000000000001,2.0,-1.0,-1.0,-2.0,-6.0,-13.0,-1.0,0.0,0.65838623046875,0.400390625,-0.56719970703125,-0.2906494140625,-0.5244140625,-0.85107421875,-0.19189453125,-9.8125,-0.125,9.0
0.2550000000000001,2.0,-1.0,-1.0,-2.0,-6.0,-13.0,-1.0,0.0,0.65838623046875,0.400390625,-0.56719970703125,-0.2906494140625,-0.5244140625,-0.85107421875,-0.19189453125,-9.8125,-0.125,9.0
0.2600000000000001,2.0,-1.0,-1.0,-2.0,-6.0,-13.0,-1.0,0.0,0.65838623046875,0.400390625,-0.56719970703125,-0.2906494140625,-0.5244140625,-0.85107421875,-0.19189453125,-9.8125,-0.125,9.0
0.2650000000000001,-5.0,1.0,1.0,-5.0,1.0,-6.0,0.0,1.0,0.65838623046875,0.400390625,-0.56719970703125,-0.2906494140625,-0.5244140625,-0.85107421875,-0.19189453125,-9.8125,-0.125,9.0
0.27000000000000013,-5.0,1.0,1.0,-5.0,1.0,-6.0,0.0,1.0,0.65838623046875,0.400390625,-0.56719970703125,-0.2906494140625,-0.5244140625,-0.85107421875,-0.19189453125,-9.8125,-0.125,9.0
0.27500000000000013,1.0,-3.0,0.0,14.0,-4.0,-4.0,-3.0,-2.0,0.65936279296875,0.40020751953125,-0.567138671875,-0.28875732421875,-0.53515625,-0.8564453125,-0.193359375,-8.5625,-0.375,8.625
0.28000000000000014,1.0,-3.0,0.0,14.0,-4.0,-4.0,-3.0,-2.0,0.65936279296875,0.40020751953125,-0.567138671875,-0.28875732421875,-0.53515625,-0.8564453125,-0.193359375,-8.5625,-0.375,8.625
0.28500000000000014,1.0,-3.0,0.0,14.0,-4.0,-4.0,-3.0,-2.0,0.65936279296875,0.40020751953125,-0.567138671875,-0.28875732421875,-0.53515625,-0.8564453125,-0.193359375,-8.5625,-0.375,8.625
0.29000000000000015,3.0,-1.0,-1.0,-6.0,0.0,2.0,6.0,1.0,0.66015625,0.39959716796875,-0.5673828125,-0.28729248046875,-0.537109375,-0.84814453125,-0.17822265625,-5.5,0.0,8.8125
0.29500000000000015,3.0,-1.0,-1.0,-6.0,0.0,2.0,6.0,1.0,0.66015625,0.39959716796875,-0.5673828125,-0.28729248046875,-0.537109375,-0.84814453125,-0.17822265625,-5.5,0.0,8.8125
0.30000000000000016,-1.0,0.0,-2.0,-17.0,6.0,2.0,2.0,0.0,0.66015625,0.39959716796875,-0.5673828125,-0.28729248046875,-0.537109375,-0.84814453125,-0.17822265625,-5.5,0.0,8.8125
0.30500000000000016,-1.0,0.0,-2.0,-17.0,6.0,2.0,2.0,0.0,0.66015625,0.39959716796875,-0.5673828125,-0.28729248046875,-0.537109375,-0.84814453125,-0.17822265625,-5.5,0.0,8.8125
0.31000000000000016,-1.0,0.0,-2.0,-17.0,6.0,2.0,2.0,0.0,0.66015625,0.39959716796875,-0.5673828125,-0.28729248046875,-0.537109375,-0.84814453125,-0.17822265625,-5.5,0.0,8.8125
0.31500000000000017,-1.0,0.0,-2.0,-17.0,6.0,2.0,2.0,0.0,0.66015625,0.39959716796875,-0.5673828125,-0.28729248046875,-0.537109375,-0.84814453125,-0.17822265625,-5.5,0.0,8.8125
0.3200000000000002,-3.0,-2.0,-2.0,19.0,-4.0,-4.0,-1.0,-3.0,0.660888671875,0.39886474609375,-0.5677490234375,-0.285888671875,-0.55126953125,-0.8525390625,-0.1875,-3.8125,-0.3125,8.5625
0.3250000000000002,2.0,0.0,-1.0,8.0,-4.0,-4.0,-3.0,-2.0,0.660888671875,0.39886474609375,-0.5677490234375,-0.285888671875,-0.55126953125,-0.8525390625,-0.1875,-3.8125,-0.3125,8.5625
0.3300000000000002,1.0,-1.0,0.0,-4.0,-3.0,-1.0,-2.0,-2.0,0.660888671875,0.39886474609375,-0.5677490234375,-0.285888671875,-0.55126953125,-0.8525390625,-0.1875,-3.8125,-0.3125,8.5625
0.3350000000000002,1.0,-1.0,0.0,-4.0,-3.0,-1.0,-2.0,-2.0,0.660888671875,0.39886474609375,-0.5677490234375,-0.285888671875,-0.55126953125,-0.8525390625,-0.1875,-3.8125,-0.3125,8.5625
0.3400000000000002,1.0,-1.0,0.0,-4.0,-3.0,-1.0,-2.0,-2.0,0.66156005859375,0.3980712890625,-0.56817626953125,-0.2845458984375,-0.55712890625,-0.8359375,-0.17578125,-3.5625,-0.375,8.0625
0.3450000000000002,-1.0,-1.0,1.0,-1.0,-3.0,-1.0,-5.0,0.0,0.66156005859375,0.3980712890625,-0.56817626953125,-0.2845458984375,-0.55712890625,-0.8359375,-0.17578125,-3.5625,-0.375,8.0625
0.3500000000000002,-1.0,-1.0,1.0,-1.0,-3.0,-1.0,-5.0,0.0,0.66156005859375,0.3980712890625,-0.56817626953125,-0.2845458984375,-0.55712890625,-0.8359375,-0.17578125,-3.5625,-0.375,8.0625
0.3550000000000002,-4.0,0.0,-3.0,9.0,1.0,1.0,3.0,1.0,0.662109375,0.3973388671875,-0.56854248046875,-0.2835693359375,-0.5625,-0.84814453125,-0.1787109375,-2.625,0.4375,6.625
0.3600000000000002,-2.0,-1.0,0.0,-11.0,0.0,0.0,-1.0,-1.0,0.662109375,0.3973388671875,-0.56854248046875,-0.2835693359375,-0.5625,-0.84814453125,-0.1787109375,-2.625,0.4375,6.625
0.3650000000000002,-2.0,-1.0,0.0,-11.0,0.0,0.0,-1.0,-1.0,0.662109375,0.3973388671875,-0.56854248046875,-0.2835693359375,-0.5625,-0.84814453125,-0.1787109375,-2.625,0.4375,6.625
0.3700000000000002,-2.0,-1.0,0.0,-11.0,0.0,0.0,-1.0,-1.0,0.662109375,0.3973388671875,-0.56854248046875,-0.2835693359375,-0.5625,-0.84814453125,-0.1787109375,-2.625,0.4375,6.625
0.3750000000000002,1.0,0.0,-1.0,4.0,-1.0,23.0,-2.0,1.0,0.662109375,0.3973388671875,-0.56854248046875,-0.2835693359375,-0.5625,-0.84814453125,-0.1787109375,-2.625,0.4375,6.625
0.3800000000000002,1.0,0.0,-1.0,4.0,-1.0,23.0,-2.0,1.0,0.6624755859375,0.3966064453125,-0.56903076171875,-0.282958984375,-0.5615234375,-0.84912109375,-0.1728515625,-0.9375,0.3125,5.25
0.38500000000000023,1.0,0.0,-1.0,4.0,-1.0,23.0,-2.0,1.0,0.6624755859375,0.3966064453125,-0.56903076171875,-0.282958984375,-0.5615234375,-0.84912109375,-0.1728515625,-0.9375,0.3125,5.25
0.39000000000000024,-4.0,-1.0,-2.0,-37.0,-2.0,-11.0,-1.0,-2.0,0.6624755859375,0.3966064453125,-0.56903076171875,-0.282958984375,-0.5615234375,-0.84912109375,-0.1728515625,-0.9375,0.3125,5.25
0.39500000000000024,1.0,-2.0,-4.0,-3.0,2.0,-12.0,0.0,0.0,0.6624755859375,0.3966064453125,-0.56903076171875,-0.282958984375,-0.5615234375,-0.84912109375,-0.1728515625,-0.9375,0.3125,5.25
0.40000000000000024,1.0,-2.0,-4.0,-3.0,2.0,-12.0,0.0,0.0,0.6624755859375,0.3966064453125,-0.56903076171875,-0.282958984375,-0.5615234375,-0.84912109375,-0.1728515625,-0.9375,0.3125,5.25
0.40500000000000025,-1.0,-2.0,-2.0,13.0,-1.0,7.0,1.0,0.0,0.66259765625,0.39605712890625,-0.5694580078125,-0.28253173828125,-0.55517578125,-0.84716796875,-0.16455078125,-1.125,0.125,4.0
0.41000000000000025,-1.0,-2.0,-2.0,13.0,-1.0,7.0,1.0,0.0,0.66259765625,0.39605712890625,-0.5694580078125,-0.28253173828125,-0.55517578125,-0.84716796875,-0.16455078125,-1.125,0.125,4.0
0.41500000000000026,-1.0,-2.0,-2.0,13.0,-1.0,7.0,1.0,0.0,0.66259765625,0.39605712890625,-0.5694580078125,-0.28253173828125,-0.55517578125,-0.84716796875,-0.16455078125,-1.125,0.125,4.0
0.42000000000000026,-4.0,-3.0,-7.0,3.0,-8.0,-12.0,-8.0,-4.0,0.66259765625,0.39605712890625,-0.5694580078125,-0.28253173828125,-0.55517578125,-0.84716796875,-0.16455078125,-1.125,0.125,4.0
0.42500000000000027,-4.0,-3.0,-7.0,3.0,-8.0,-12.0,-8.0,-4.0,0.66259765625,0.39556884765625,-0.56988525390625,-0.28228759765625,-0.55517578125,-0.8486328125,-0.158203125,-0.4375,-0.125,2.75
0.43000000000000027,-2.0,-1.0,1.0,12.0,2.0,0.0,2.0,-1.0,0.66259765625,0.39556884765625,-0.56988525390625,-0.28228759765625,-0.55517578125,-0.8486328125,-0.158203125,-0.4375,-0.125,2.75
0.4350000000000003,-2.0,-1.0,1.0,12.0,2.0,0.0,2.0,-1.0,0.66259765625,0.39556884765625,-0.56988525390625,-0.28228759765625,-0.55517578125,-0.8486328125,-0.158203125,-0.4375,-0.125,2.75
0.4400000000000003,-2.0,-1.0,1.0,12.0,2.0,0.0,2.0,-1.0,0.66259765625,0.39556884765625,-0.56988525390625,-0.28228759765625,-0.55517578125,-0.8486328125,-0.158203125,-0.4375,-0.125,2.75
0.4450000000000003,-1.0,-2.0,0.0,-1.0,1.0,-3.0,-1.0,0.0,0.662353515625,0.39520263671875,-0.57049560546875,-0.28216552734375,-0.56201171875,-0.86328125,-0.13818359375,-1.0625,-0.375,2.0625
0.4500000000000003,0.0,-3.0,-3.0,9.0,-2.0,3.0,2.0,0.0,0.662353515625,0.39520263671875,-0.57049560546875,-0.28216552734375,-0.56201171875,-0.86328125,-0.13818359375,-1.0625,-0.375,2.0625
0.4550000000000003,-4.0,-2.0,1.0,14.0,1.0,-1.0,-2.0,-2.0,0.662353515625,0.39520263671875,-0.57049560546875,-0.28216552734375,-0.56201171875,-0.86328125,-0.13818359375,-1.0625,-0.375,2.0625
0.4600000000000003,1.0,0.0,1.0,-7.0,0.0,-2.0,-7.0,-2.0,0.662353515625,0.39520263671875,-0.57049560546875,-0.28216552734375,-0.56201171875,-0.86328125,-0.13818359375,-1.0625,-0.375,2.0625
0.4650000000000003,1.0,0.0,1.0,-7.0,0.0,-2.0,-7.0,-2.0,0.662353515625,0.39520263671875,-0.57049560546875,-0.28216552734375,-0.56201171875,-0.86328125,-0.13818359375,-1.0625,-0.375,2.0625
0.4700000000000003,-2.0,-2.0,-1.0,6.0,4.0,1.0,2.0,1.0,0.66229248046875,0.395263671875,-0.5706787109375,-0.28192138671875,-0.556640625,-0.853515625,-0.16455078125,-2.5,-0.3125,0.1875
0.4750000000000003,-2.0,-2.0,-1.0,6.0,4.0,1.0,2.0,1.0,0.66229248046875,0.395263671875,-0.5706787109375,-0.28192138671875,-0.556640625,-0.853515625,-0.16455078125,-2.5,-0.3125,0.1875
0.4800000000000003,1.0,1.0,2.0,6.0,4.0,-6.0,-2.0,-1.0,0.6622314453125,0.39544677734375,-0.57080078125,-0.28155517578125,-0.5419921875,-0.84423828125,-0.1689453125,-3.125,-0.875,0.8125
0.4850000000000003,1.0,1.0,2.0,6.0,4.0,-6.0,-2.0,-1.0,0.6622314453125,0.39544677734375,-0.57080078125,-0.28155517578125,-0.5419921875,-0.84423828125,-0.1689453125,-3.125,-0.875,0.8125
0.4900000000000003,1.0,1.0,2.0,6.0,4.0,-6.0,-2.0,-1.0,0.6622314453125,0.39544677734375,-0.57080078125,-0.28155517578125,-0.5419921875,-0.84423828125,-0.1689453125,-3.125,-0.875,0.8125
0.49500000000000033,-1.0,0.0,-1.0,16.0,1.0,-2.0,-3.0,-4.0,0.6622314453125,0.39544677734375,-0.57080078125,-0.28155517578125,-0.5419921875,-0.84423828125,-0.1689453125,-3.125,-0.875,0.8125
0.5000000000000003,-1.0,0.0,-1.0,16.0,1.0,-2.0,-3.0,-4.0,0.6622314453125,0.39544677734375,-0.57080078125,-0.28155517578125,-0.5419921875,-0.84423828125,-0.1689453125,-3.125,-0.875,0.8125
0.5050000000000003,-1.0,0.0,-1.0,16.0,1.0,-2.0,-3.0,-4.0,0.6622314453125,0.39544677734375,-0.57080078125,-0.28155517578125,-0.5419921875,-0.84423828125,-0.1689453125,-3.125,-0.875,0.8125
0.5100000000000003,-1.0,1.0,-1.0,-10.0,-4.0,30.0,-1.0,-1.0,0.66217041015625,0.39544677734375,-0.571044921875,-0.2811279296875,-0.54931640625,-0.8603515625,-0.171875,-2.6875,-1.4375,2.0
0.5150000000000003,0.0,-2.0,-2.0,0.0,-5.0,-5.0,0.0,-1.0,0.66217041015625,0.39544677734375,-0.571044921875,-0.2811279296875,-0.54931640625,-0.8603515625,-0.171875,-2.6875,-1.4375,2.0
0.5200000000000004,0.0,-2.0,-2.0,0.0,-5.0,-5.0,0.0,-1.0,0.66217041015625,0.39544677734375,-0.571044921875,-0.2811279296875,-0.54931640625,-0.8603515625,-0.171875,-2.6875,-1.4375,2.0
0.5250000000000004,0.0,-2.0,-2.0,0.0,-5.0,-5.0,0.0,-1.0,0.66217041015625,0.39544677734375,-0.571044921875,-0.2811279296875,-0.54931640625,-0.8603515625,-0.171875,-2.6875,-1.4375,2.0
0.5300000000000004,0.0,-2.0,-2.0,0.0,-5.0,-5.0,0.0,-1.0,0.66217041015625,0.39544677734375,-0.571044921875,-0.2811279296875,-0.54931640625,-0.8603515625,-0.171875,-2.6875,-1.4375,2.0
0.5350000000000004,0.0,-1.0,-1.0,-10.0,-5.0,-14.0,-5.0,-3.0,0.6619873046875,0.3953857421875,-0.57147216796875,-0.28082275390625,-0.55908203125,-0.88134765625,-0.173828125,-1.375,-1.75,2.375
0.5400000000000004,-1.0,-1.0,0.0,6.0,3.0,9.0,2.0,0.0,0.6619873046875,0.3953857421875,-0.57147216796875,-0.28082275390625,-0.55908203125,-0.88134765625,-0.173828125,-1.375,-1.75,2.375
0.5450000000000004,-1.0,-1.0,0.0,6.0,3.0,9.0,2.0,0.0,0.6619873046875,0.3953857421875,-0.57147216796875,-0.28082275390625,-0.55908203125,-0.88134765625,-0.173828125,-1.375,-1.75,2.375
0.5500000000000004,0.0,-3.0,-1.0,6.0,-4.0,-5.0,-1.0,1.0,0.66162109375,0.39483642578125,-0.57208251953125,-0.28118896484375,-0.54736328125,-0.86669921875,-0.18017578125,4.125,-1.4375,1.75
0.5550000000000004,-10.0,-3.0,-7.0,3.0,-5.0,-4.0,-4.0,-4.0,0.66162109375,0.39483642578125,-0.57208251953125,-0.28118896484375,-0.54736328125,-0.86669921875,-0.18017578125,4.125,-1.4375,1.75
0.5600000000000004,1.0,0.0,-2.0,16.0,-4.0,-8.0,-7.0,-3.0,0.66162109375,0.39483642578125,-0.57208251953125,-0.28118896484375,-0.54736328125,-0.86669921875,-0.18017578125,4.125,-1.4375,1.75
0.5650000000000004,1.0,0.0,-2.0,16.0,-4.0,-8.0,-7.0,-3.0,0.66162109375,0.39483642578125,-0.57208251953125,-0.28118896484375,-0.54736328125,-0.86669921875,-0.18017578125,4.125,-1.4375,1.75
0.5700000000000004,-2.0,-3.0,-3.0,-10.0,3.0,-1.0,5.0,-1.0,0.661376953125,0.3941650390625,-0.5726318359375,-0.2816162109375,-0.53125,-0.84521484375,-0.19677734375,5.75,-1.125,2.5625
0.5750000000000004,-2.0,-3.0,-3.0,-10.0,3.0,-1.0,5.0,-1.0,0.661376953125,0.3941650390625,-0.5726318359375,-0.2816162109375,-0.53125,-0.84521484375,-0.19677734375,5.75,-1.125,2.5625
0.5800000000000004,-2.0,-3.0,-3.0,-10.0,3.0,-1.0,5.0,-1.0,0.661376953125,0.3941650390625,-0.5726318359375,-0.2816162109375,-0.53125,-0.84521484375,-0.19677734375,5.75,-1.125,2.5625
0.5850000000000004,-2.0,-3.0,-3.0,-10.0,3.0,-1.0,5.0,-1.0,0.661376953125,0.3941650390625,-0.5726318359375,-0.2816162109375,-0.53125,-0.84521484375,-0.19677734375,5.75,-1.125,2.5625
0.5900000000000004,-2.0,-2.0,-2.0,-13.0,-2.0,4.0,-1.0,0.0,0.661376953125,0.3941650390625,-0.5726318359375,-0.2816162109375,-0.53125,-0.84521484375,-0.19677734375,5.75,-1.125,2.5625
0.5950000000000004,-2.0,-2.0,-2.0,-13.0,-2.0,4.0,-1.0,0.0,0.661376953125,0.3941650390625,-0.5726318359375,-0.2816162109375,-0.53125,-0.84521484375,-0.19677734375,5.75,-1.125,2.5625
0.6000000000000004,-3.0,-1.0,0.0,5.0,-2.0,0.0,-3.0,-2.0,0.66143798828125,0.3934326171875,-0.57293701171875,-0.28179931640625,-0.53125,-0.82275390625,-0.2080078125,4.9375,-0.625,2.875
0.6050000000000004,-3.0,-1.0,0.0,5.0,-2.0,0.0,-3.0,-2.0,0.66143798828125,0.3934326171875,-0.57293701171875,-0.28179931640625,-0.53125,-0.82275390625,-0.2080078125,4.9375,-0.625,2.875
0.6100000000000004,-3.0,-1.0,0.0,5.0,-2.0,0.0,-3.0,-2.0,0.66143798828125,0.3934326171875,-0.57293701171875,-0.28179931640625,-0.53125,-0.82275390625,-0.2080078125,4.9375,-0.625,2.875
0.6150000000000004,-3.0,-1.0,0.0,5.0,-2.0,0.0,-3.0,-2.0,0.66143798828125,0.3934326171875,-0.57293701171875,-0.28179931640625,-0.53125,-0.82275390625,-0.2080078125,4.9375,-0.625,2.875
0.6200000000000004,-2.0,1.0,0.0,2.0,4.0,0.0,9.0,4.0,0.66180419921875,0.39300537109375,-0.57293701171875,-0.2816162109375,-0.53857421875,-0.822265625,-0.2138671875,1.9375,0.6875,2.8125
0.6250000000000004,-1.0,-3.0,-3.0,15.0,-5.0,-7.0,-1.0,-2.0,0.66180419921875,0.39300537109375,-0.57293701171875,-0.2816162109375,-0.53857421875,-0.822265625,-0.2138671875,1.9375,0.6875,2.8125
0.6300000000000004,-1.0,-3.0,-3.0,15.0,-5.0,-7.0,-1.0,-2.0,0.66180419921875,0.39300537109375,-0.57293701171875,-0.2816162109375,-0.53857421875,-0.822265625,-0.2138671875,1.9375,0.6875,2.8125
0.6350000000000005,-1.0,-3.0,-3.0,15.0,-5.0,-7.0,-1.0,-2.0,0.66180419921875,0.39300537109375,-0.57293701171875,-0.2816162109375,-0.53857421875,-0.822265625,-0.2138671875,1.9375,0.6875,2.8125
0.6400000000000005,-1.0,-3.0,-3.0,15.0,-5.0,-7.0,-1.0,-2.0,0.66180419921875,0.39300537109375,-0.57293701171875,-0.2816162109375,-0.53857421875,-0.822265625,-0.2138671875,1.9375,0.6875,2.8125
0.6450000000000005,2.0,-4.0,-8.0,18.0,-10.0,-9.0,-6.0,-2.0,0.66253662109375,0.392822265625,-0.57244873046875,-0.28118896484375,-0.55078125,-0.826171875,-0.2314453125,-0.875,2.0,2.3125
0.6500000000000005,2.0,-4.0,-8.0,18.0,-10.0,-9.0,-6.0,-2.0,0.66253662109375,0.392822265625,-0.57244873046875,-0.28118896484375,-0.55078125,-0.826171875,-0.2314453125,-0.875,2.0,2.3125
0.6550000000000005,7.0,1.0,-1.0,-14.0,-2.0,0.0,0.0,0.0,0.66253662109375,0.392822265625,-0.57244873046875,-0.28118896484375,-0.55078125,-0.826171875,-0.2314453125,-0.875,2.0,2.3125
0.6600000000000005,7.0,1.0,-1.0,-14.0,-2.0,0.0,0.0,0.0,0.66253662109375,0.392822265625,-0.57244873046875,-0.28118896484375,-0.55078125,-0.826171875,-0.2314453125,-0.875,2.0,2.3125
0.6650000000000005,7.0,1.0,-1.0,-14.0,-2.0,0.0,0.0,0.0,0.66253662109375,0.392822265625,-0.57244873046875,-0.28118896484375,-0.55078125,-0.826171875,-0.2314453125,-0.875,2.0,2.3125
0.6700000000000005,7.0,1.0,-1.0,-14.0,-2.0,0.0,0.0,0.0,0.66253662109375,0.392822265625,-0.57244873046875,-0.28118896484375,-0.55078125,-0.826171875,-0.2314453125,-0.875,2.0,2.3125
0.6750000000000005,-2.0,-2.0,-6.0,-45.0,-8.0,-6.0,-7.0,-3.0,0.66339111328125,0.3924560546875,-0.57183837890625,-0.28076171875,-0.54736328125,-0.80615234375,-0.2255859375,-0.8125,3.4375,2.8125
0.6800000000000005,-2.0,-2.0,-6.0,-45.0,-8.0,-6.0,-7.0,-3.0,0.66339111328125,0.3924560546875,-0.57183837890625,-0.28076171875,-0.54736328125,-0.80615234375,-0.2255859375,-0.8125,3.4375,2.8125
0.6850000000000005,-2.0,-2.0,-6.0,-45.0,-8.0,-6.0,-7.0,-3.0,0.66339111328125,0.3924560546875,-0.57183837890625,-0.28076171875,-0.54736328125,-0.80615234375,-0.2255859375,-0.8125,3.4375,2.8125
0.6900000000000005,-2.0,-2.0,-6.0,-45.0,-8.0,-6.0,-7.0,-3.0,0.66339111328125,0.3924560546875,-0.57183837890625,-0.28076171875,-0.54736328125,-0.80615234375,-0.2255859375,-0.8125,3.4375,2.8125
0.6950000000000005,-1.0,-1.0,-2.0,-2.0,-2.0,-8.0,-1.0,-1.0,0.6644287109375,0.39190673828125,-0.5712890625,-0.28033447265625,-0.5576171875,-0.8056640625,-0.2158203125,-1.1875,4.625,3.0
0.7000000000000005,-1.0,-1.0,-2.0,-2.0,-2.0,-8.0,-1.0,-1.0,0.6644287109375,0.39190673828125,-0.5712890625,-0.28033447265625,-0.5576171875,-0.8056640625,-0.2158203125,-1.1875,4.625,3.0
0.7050000000000005,-3.0,-1.0,2.0,10.0,3.0,1.0,1.0,-1.0,0.6644287109375,0.39190673828125,-0.5712890625,-0.28033447265625,-0.5576171875,-0.8056640625,-0.2158203125,-1.1875,4.625,3.0
0.7100000000000005,-3.0,-1.0,2.0,10.0,3.0,1.0,1.0,-1.0,0.6644287109375,0.39190673828125,-0.5712890625,-0.28033447265625,-0.5576171875,-0.8056640625,-0.2158203125,-1.1875,4.625,3.0
0.7150000000000005,-3.0,-1.0,2.0,10.0,3.0,1.0,1.0,-1.0,0.6644287109375,0.39190673828125,-0.5712890625,-0.28033447265625,-0.5576171875,-0.8056640625,-0.2158203125,-1.1875,4.625,3.0
0.7200000000000005,-3.0,-1.0,2.0,10.0,3.0,1.0,1.0,-1.0,0.6644287109375,0.39190673828125,-0.5712890625,-0.28033447265625,-0.5576171875,-0.8056640625,-0.2158203125,-1.1875,4.625,3.0
0.7250000000000005,-3.0,-1.0,0.0,-8.0,1.0,-5.0,-5.0,-2.0,0.66552734375,0.3916015625,-0.5704345703125,-0.27978515625,-0.56396484375,-0.8076171875,-0.21826171875,-3.0,5.375,2.25
0.7300000000000005,-1.0,1.0,-1.0,-4.0,-2.0,2.0,1.0,-2.0,0.66552734375,0.3916015625,-0.5704345703125,-0.27978515625,-0.56396484375,-0.8076171875,-0.21826171875,-3.0,5.375,2.25
0.7350000000000005,-1.0,1.0,-1.0,-4.0,-2.0,2.0,1.0,-2.0,0.66552734375,0.3916015625,-0.5704345703125,-0.27978515625,-0.56396484375,-0.8076171875,-0.21826171875,-3.0,5.375,2.25
0.7400000000000005,-1.0,1.0,-1.0,-4.0,-2.0,2.0,1.0,-2.0,0.66552734375,0.3916015625,-0.5704345703125,-0.27978515625,-0.56396484375,-0.8076171875,-0.21826171875,-3.0,5.375,2.25
0.7450000000000006,-1.0,1.0,-1.0,-4.0,-2.0,2.0,1.0,-2.0,0.66552734375,0.3916015625,-0.5704345703125,-0.27978515625,-0.56396484375,-0.8076171875,-0.21826171875,-3.0,5.375,2.25
0.7500000000000006,1.0,0.0,-1.0,1.0,2.0,-9.0,-5.0,-3.0,0.66552734375,0.3916015625,-0.5704345703125,-0.27978515625,-0.56396484375,-0.8076171875,-0.21826171875,-3.0,5.375,2.25
0.7550000000000006,-1.0,-1.0,-2.0,0.0,1.0,1.0,3.0,0.0,0.66650390625,0.3917236328125,-0.5694580078125,-0.27935791015625,-0.5595703125,-0.82861328125,-0.224609375,-4.4375,5.0625,1.0625
0.7600000000000006,-1.0,-1.0,-2.0,0.0,1.0,1.0,3.0,0.0,0.66650390625,0.3917236328125,-0.5694580078125,-0.27935791015625,-0.5595703125,-0.82861328125,-0.224609375,-4.4375,5.0625,1.0625
0.7650000000000006,-1.0,-1.0,-2.0,0.0,1.0,1.0,3.0,0.0,0.66650390625,0.3917236328125,-0.5694580078125,-0.27935791015625,-0.5595703125,-0.82861328125,-0.224609375,-4.4375,5.0625,1.0625
0.7700000000000006,0.0,-1.0,1.0,-4.0,-3.0,-13.0,-5.0,-2.0,0.66717529296875,0.3917236328125,-0.5687255859375,-0.27923583984375,-0.55224609375,-0.8349609375,-0.20458984375,-3.0625,4.4375,0.5625
0.7750000000000006,0.0,-1.0,1.0,-4.0,-3.0,-13.0,-5.0,-2.0,0.66717529296875,0.3917236328125,-0.5687255859375,-0.27923583984375,-0.55224609375,-0.8349609375,-0.20458984375,-3.0625,4.4375,0.5625
0.7800000000000006,-1.0,0.0,-1.0,-14.0,7.0,6.0,6.0,2.0,0.66717529296875,0.3917236328125,-0.5687255859375,-0.27923583984375,-0.55224609375,-0.8349609375,-0.20458984375,-3.0625,4.4375,0.5625
0.7850000000000006,-1.0,0.0,-1.0,-14.0,7.0,6.0,6.0,2.0,0.66717529296875,0.3917236328125,-0.5687255859375,-0.27923583984375,-0.55224609375,-0.8349609375,-0.20458984375,-3.0625,4.4375,0.5625
0.7900000000000006,-1.0,0.0,-1.0,-14.0,7.0,6.0,6.0,2.0,0.66717529296875,0.3917236328125,-0.5687255859375,-0.27923583984375,-0.55224609375,-0.8349609375,-0.20458984375,-3.0625,4.4375,0.5625
0.7950000000000006,-1.0,0.0,-1.0,-14.0,7.0,6.0,6.0,2.0,0.66717529296875,0.3917236328125,-0.5687255859375,-0.27923583984375,-0.55224609375,-0.8349609375,-0.20458984375,-3.0625,4.4375,0.5625
0.8000000000000006,-7.0,0.0,1.0,-2.0,3.0,8.0,8.0,2.0,0.6676025390625,0.39178466796875,-0.5682373046875,-0.279052734375,-0.5615234375,-0.8466796875,-0.2060546875,-2.625,2.8125,0.1875
0.8050000000000006,-7.0,0.0,1.0,-2.0,3.0,8.0,8.0,2.0,0.6676025390625,0.39178466796875,-0.5682373046875,-0.279052734375,-0.5615234375,-0.8466796875,-0.2060546875,-2.625,2.8125,0.1875
0.8100000000000006,-2.0,0.0,-1.0,21.0,-7.0,-10.0,-6.0,-5.0,0.6676025390625,0.39178466796875,-0.5682373046875,-0.279052734375,-0.5615234375,-0.8466796875,-0.2060546875,-2.625,2.8125,0.1875
0.8150000000000006,-2.0,0.0,-1.0,21.0,-7.0,-10.0,-6.0,-5.0,0.6676025390625,0.39178466796875,-0.5682373046875,-0.279052734375,-0.5615234375,-0.8466796875,-0.2060546875,-2.625,2.8125,0.1875
0.8200000000000006,-2.0,0.0,-1.0,21.0,-7.0,-10.0,-6.0,-5.0,0.6676025390625,0.39178466796875,-0.5682373046875,-0.279052734375,-0.5615234375,-0.8466796875,-0.2060546875,-2.625,2.8125,0.1875
0.8250000000000006,-2.0,0.0,-1.0,21.0,-7.0,-10.0,-6.0,-5.0,0.6676025390625,0.39178466796875,-0.5682373046875,-0.279052734375,-0.5615234375,-0.8466796875,-0.2060546875,-2.625,2.8125,0.1875
0.8300000000000006,-1.0,-2.0,0.0,0.0,-3.0,-5.0,-3.0,1.0,0.6676025390625,0.39178466796875,-0.5682373046875,-0.279052734375,-0.5615234375,-0.8466796875,-0.2060546875,-2.625,2.8125,0.1875
0.8350000000000006,-1.0,-2.0,0.0,-10.0,0.0,5.0,4.0,0.0,0.6678466796875,0.391845703125,-0.56805419921875,-0.27880859375,-0.564453125,-0.84423828125,-0.20068359375,-2.3125,1.0625,0.6875
0.8400000000000006,-1.0,-2.0,0.0,-10.0,0.0,5.0,4.0,0.0,0.6678466796875,0.391845703125,-0.56805419921875,-0.27880859375,-0.564453125,-0.84423828125,-0.20068359375,-2.3125,1.0625,0.6875
0.8450000000000006,-1.0,-2.0,0.0,-10.0,0.0,5.0,4.0,0.0,0.6678466796875,0.391845703125,-0.56805419921875,-0.27880859375,-0.564453125,-0.84423828125,-0.20068359375,-2.3125,1.0625,0.6875
0.8500000000000006,-1.0,-2.0,0.0,-10.0,0.0,5.0,4.0,0.0,0.6678466796875,0.391845703125,-0.56805419921875,-0.27880859375,-0.564453125,-0.84423828125,-0.20068359375,-2.3125,1.0625,0.6875
0.8550000000000006,-1.0,-2.0,0.0,-10.0,0.0,5.0,4.0,0.0,0.6678466796875,0.391845703125,-0.56805419921875,-0.27880859375,-0.564453125,-0.84423828125,-0.20068359375,-2.3125,1.0625,0.6875
0.8600000000000007,-1.0,-2.0,0.0,-10.0,0.0,5.0,4.0,0.0,0.6678466796875,0.391845703125,-0.56805419921875,-0.27880859375,-0.564453125,-0.84423828125,-0.20068359375,-2.3125,1.0625,0.6875
0.8650000000000007,-2.0,-5.0,-6.0,-12.0,-14.0,-28.0,-8.0,-6.0,0.66796875,0.3919677734375,-0.56805419921875,-0.27838134765625,-0.55322265625,-0.84326171875,-0.20166015625,-2.5625,-0.375,1.3125
0.8700000000000007,1.0,-1.0,3.0,13.0,-1.0,-3.0,-6.0,-1.0,0.66796875,0.3919677734375,-0.56805419921875,-0.27838134765625,-0.55322265625,-0.84326171875,-0.20166015625,-2.5625,-0.375,1.3125
0.8750000000000007,1.0,-1.0,3.0,13.0,-1.0,-3.0,-6.0,-1.0,0.66796875,0.3919677734375,-0.56805419921875,-0.27838134765625,-0.55322265625,-0.84326171875,-0.20166015625,-2.5625,-0.375,1.3125
0.8800000000000007,1.0,-1.0,3.0,13.0,-1.0,-3.0,-6.0,-1.0,0.66796875,0.3919677734375,-0.56805419921875,-0.27838134765625,-0.55322265625,-0.84326171875,-0.20166015625,-2.5625,-0.375,1.3125
0.8850000000000007,-1.0,0.0,-1.0,-1.0,2.0,14.0,1.0,-2.0,0.66802978515625,0.3922119140625,-0.56805419921875,-0.27777099609375,-0.55078125,-0.8515625,-0.2001953125,-3.75,-1.6875,1.875
0.8900000000000007,1.0,-1.0,-5.0,-11.0,-7.0,-15.0,-6.0,-3.0,0.66802978515625,0.3922119140625,-0.56805419921875,-0.27777099609375,-0.55078125,-0.8515625,-0.2001953125,-3.75,-1.6875,1.875
0.8950000000000007,-2.0,-2.0,-4.0,7.0,-2.0,-24.0,-7.0,-2.0,0.66802978515625,0.3922119140625,-0.56805419921875,-0.27777099609375,-0.55078125,-0.8515625,-0.2001953125,-3.75,-1.6875,1.875
0.9000000000000007,-2.0,-2.0,-4.0,7.0,-2.0,-24.0,-7.0,-2.0,0.66802978515625,0.3922119140625,-0.56805419921875,-0.27777099609375,-0.55078125,-0.8515625,-0.2001953125,-3.75,-1.6875,1.875
0.9050000000000007,-2.0,-2.0,-4.0,7.0,-2.0,-24.0,-7.0,-2.0,0.66802978515625,0.3922119140625,-0.56805419921875,-0.27777099609375,-0.55078125,-0.8515625,-0.2001953125,-3.75,-1.6875,1.875
0.9100000000000007,-1.0,-3.0,5.0,3.0,2.0,5.0,3.0,0.0,0.66802978515625,0.3922119140625,-0.56805419921875,-0.27777099609375,-0.55078125,-0.8515625,-0.2001953125,-3.75,-1.6875,1.875
0.9150000000000007,7.0,-2.0,-2.0,9.0,-1.0,0.0,1.0,-4.0,0.66796875,0.39239501953125,-0.56829833984375,-0.277099609375,-0.54833984375,-0.857421875,-0.208984375,-2.6875,-3.25,2.8125
0.9200000000000007,7.0,-2.0,-2.0,9.0,-1.0,0.0,1.0,-4.0,0.66796875,0.39239501953125,-0.56829833984375,-0.277099609375,-0.54833984375,-0.857421875,-0.208984375,-2.6875,-3.25,2.8125
0.9250000000000007,-1.0,-1.0,-1.0,-5.0,-1.0,0.0,-1.0,-1.0,0.66790771484375,0.39227294921875,-0.56890869140625,-0.2763671875,-0.544921875,-0.853515625,-0.20458984375,-1.1875,-4.125,4.875
0.9300000000000007,-1.0,-1.0,-1.0,-5.0,-1.0,0.0,-1.0,-1.0,0.66790771484375,0.39227294921875,-0.56890869140625,-0.2763671875,-0.544921875,-0.853515625,-0.20458984375,-1.1875,-4.125,4.875
0.9350000000000007,-1.0,-1.0,-1.0,-5.0,-1.0,0.0,-1.0,-1.0,0.66790771484375,0.39227294921875,-0.56890869140625,-0.2763671875,-0.544921875,-0.853515625,-0.20458984375,-1.1875,-4.125,4.875
0.9400000000000007,-6.0,-2.0,-1.0,-3.0,-2.0,10.0,-3.0,-2.0,0.66790771484375,0.39227294921875,-0.56890869140625,-0.2763671875,-0.544921875,-0.853515625,-0.20458984375,-1.1875,-4.125,4.875
0.9450000000000007,-6.0,-2.0,-1.0,-3.0,-2.0,10.0,-3.0,-2.0,0.66790771484375,0.39227294921875,-0.56890869140625,-0.2763671875,-0.544921875,-0.853515625,-0.20458984375,-1.1875,-4.125,4.875
0.9500000000000007,-2.0,-4.0,-3.0,3.0,-4.0,2.0,-2.0,-2.0,0.66802978515625,0.39178466796875,-0.5697021484375,-0.275146484375,-0.55224609375,-0.8466796875,-0.19775390625,-2.125,-4.3125,8.375
0.9550000000000007,2.0,0.0,0.0,7.0,0.0,-9.0,-4.0,-1.0,0.66802978515625,0.39178466796875,-0.5697021484375,-0.275146484375,-0.55224609375,-0.8466796875,-0.19775390625,-2.125,-4.3125,8.375
0.9600000000000007,-4.0,-1.0,-2.0,0.0,1.0,1.0,1.0,1.0,0.66802978515625,0.39178466796875,-0.5697021484375,-0.275146484375,-0.55224609375,-0.8466796875,-0.19775390625,-2.125,-4.3125,8.375
0.9650000000000007,-4.0,-1.0,-2.0,0.0,1.0,1.0,1.0,1.0,0.66802978515625,0.39178466796875,-0.5697021484375,-0.275146484375,-0.55224609375,-0.8466796875,-0.19775390625,-2.125,-4.3125,8.375
0.9700000000000008,-4.0,-1.0,-2.0,0.0,1.0,1.0,1.0,1.0,0.66802978515625,0.39178466796875,-0.5697021484375,-0.275146484375,-0.55224609375,-0.8466796875,-0.19775390625,-2.125,-4.3125,8.375
0.9750000000000008,-2.0,-3.0,-4.0,11.0,-4.0,-2.0,-1.0,-2.0,0.66802978515625,0.39178466796875,-0.5697021484375,-0.275146484375,-0.55224609375,-0.8466796875,-0.19775390625,-2.125,-4.3125,8.375
0.9800000000000008,0.0,-1.0,0.0,13.0,2.0,2.0,1.0,0.0,0.6683349609375,0.39105224609375,-0.5706787109375,-0.2734375,-0.56494140625,-0.841796875,-0.19677734375,-3.0625,-5.1875,10.75
0.9850000000000008,0.0,-1.0,0.0,13.0,2.0,2.0,1.0,0.0,0.6683349609375,0.39105224609375,-0.5706787109375,-0.2734375,-0.56494140625,-0.841796875,-0.19677734375,-3.0625,-5.1875,10.75
0.9900000000000008,-1.0,1.0,1.0,1.0,1.0,4.0,-4.0,-2.0,0.6683349609375,0.39105224609375,-0.5706787109375,-0.2734375,-0.56494140625,-0.841796875,-0.19677734375,-3.0625,-5.1875,10.75
0.9950000000000008,0.0,-2.0,-2.0,17.0,-4.0,6.0,2.0,1.0,0.6685791015625,0.39013671875,-0.57183837890625,-0.2716064453125,-0.5693359375,-0.84130859375,-0.19091796875,-2.75,-5.75,12.0
1.0000000000000007,0.0,-2.0,-2.0,17.0,-4.0,6.0,2.0,1.0,0.6685791015625,0.39013671875,-0.57183837890625,-0.2716064453125,-0.5693359375,-0.84130859375,-0.19091796875,-2.75,-5.75,12.0
1.0050000000000006,0.0,-2.0,-2.0,17.0,-4.0,6.0,2.0,1.0,0.6685791015625,0.39013671875,-0.57183837890625,-0.2716064453125,-0.5693359375,-0.84130859375,-0.19091796875,-2.75,-5.75,12.0
1.0100000000000005,-2.0,-1.0,0.0,-6.0,-3.0,-6.0,-3.0,-3.0,0.6685791015625,0.39013671875,-0.57183837890625,-0.2716064453125,-0.5693359375,-0.84130859375,-0.19091796875,-2.75,-5.75,12.0
1.0150000000000003,-4.0,-1.0,0.0,-23.0,0.0,-2.0,-3.0,-3.0,0.66888427734375,0.3890380859375,-0.57305908203125,-0.26983642578125,-0.57861328125,-0.83203125,-0.1962890625,-1.4375,-5.75,12.25
1.0200000000000002,-4.0,-1.0,0.0,-23.0,0.0,-2.0,-3.0,-3.0,0.66888427734375,0.3890380859375,-0.57305908203125,-0.26983642578125,-0.57861328125,-0.83203125,-0.1962890625,-1.4375,-5.75,12.25
1.0250000000000001,-4.0,-1.0,0.0,-23.0,0.0,-2.0,-3.0,-3.0,0.66888427734375,0.3890380859375,-0.57305908203125,-0.26983642578125,-0.57861328125,-0.83203125,-0.1962890625,-1.4375,-5.75,12.25
1.03,-4.0,-1.0,0.0,-23.0,0.0,-2.0,-3.0,-3.0,0.66888427734375,0.3890380859375,-0.57305908203125,-0.26983642578125,-0.57861328125,-0.83203125,-0.1962890625,-1.4375,-5.75,12.25
1.035,-7.0,-1.0,4.0,0.0,3.0,0.0,-2.0,-1.0,0.66888427734375,0.3890380859375,-0.57305908203125,-0.26983642578125,-0.57861328125,-0.83203125,-0.1962890625,-1.4375,-5.75,12.25
1.0399999999999998,-2.0,-2.0,-3.0,-5.0,-4.0,1.0,-3.0,-2.0,0.66912841796875,0.38787841796875,-0.5743408203125,-0.26812744140625,-0.5830078125,-0.82958984375,-0.1826171875,-1.4375,-5.0625,12.375
1.0449999999999997,-2.0,-2.0,-3.0,-5.0,-4.0,1.0,-3.0,-2.0,0.66912841796875,0.38787841796875,-0.5743408203125,-0.26812744140625,-0.5830078125,-0.82958984375,-0.1826171875,-1.4375,-5.0625,12.375
1.0499999999999996,-2.0,-2.0,-3.0,-5.0,-4.0,1.0,-3.0,-2.0,0.66912841796875,0.38787841796875,-0.5743408203125,-0.26812744140625,-0.5830078125,-0.82958984375,-0.1826171875,-1.4375,-5.0625,12.375
1.0549999999999995,-1.0,1.0,-2.0,-10.0,0.0,-2.0,1.0,2.0,0.66949462890625,0.3865966796875,-0.5755615234375,-0.2666015625,-0.59130859375,-0.81201171875,-0.18505859375,-0.25,-4.375,11.625
1.0599999999999994,-2.0,0.0,1.0,41.0,3.0,1.0,0.0,0.0,0.66949462890625,0.3865966796875,-0.5755615234375,-0.2666015625,-0.59130859375,-0.81201171875,-0.18505859375,-0.25,-4.375,11.625
1.0649999999999993,6.0,-2.0,-3.0,-10.0,-2.0,-12.0,-6.0,-2.0,0.66949462890625,0.3865966796875,-0.5755615234375,-0.2666015625,-0.59130859375,-0.81201171875,-0.18505859375,-0.25,-4.375,11.625
1.0699999999999992,6.0,-2.0,-3.0,-10.0,-2.0,-12.0,-6.0,-2.0,0.66949462890625,0.3865966796875,-0.5755615234375,-0.2666015625,-0.59130859375,-0.81201171875,-0.18505859375,-0.25,-4.375,11.625
1.074999999999999,-12.0,-2.0,0.0,-2.0,2.0,4.0,1.0,-4.0,0.66961669921875,0.38531494140625,-0.5767822265625,-0.2655029296875,-0.580078125,-0.80419921875,-0.18115234375,1.6875,-3.9375,10.0
1.079999999999999,-3.0,-3.0,-4.0,2.0,1.0,3.0,4.0,-1.0,0.66961669921875,0.38531494140625,-0.5767822265625,-0.2655029296875,-0.580078125,-0.80419921875,-0.18115234375,1.6875,-3.9375,10.0
1.0849999999999989,-3.0,-3.0,-4.0,2.0,1.0,3.0,4.0,-1.0,0.66961669921875,0.38531494140625,-0.5767822265625,-0.2655029296875,-0.580078125,-0.80419921875,-0.18115234375,1.6875,-3.9375,10.0
1.0899999999999987,-3.0,-3.0,-4.0,2.0,1.0,3.0,4.0,-1.0,0.66961669921875,0.38531494140625,-0.5767822265625,-0.2655029296875,-0.580078125,-0.80419921875,-0.18115234375,1.6875,-3.9375,10.0
1.0949999999999986,-2.0,-2.0,-4.0,-54.0,-9.0,-4.0,-6.0,-2.0,0.66986083984375,0.38427734375,-0.57757568359375,-0.2645263671875,-0.58642578125,-0.79736328125,-0.185546875,0.625,-2.25,8.0
1.0999999999999985,-2.0,-2.0,-4.0,-54.0,-9.0,-4.0,-6.0,-2.0,0.66986083984375,0.38427734375,-0.57757568359375,-0.2645263671875,-0.58642578125,-0.79736328125,-0.185546875,0.625,-2.25,8.0
1.1049999999999984,-2.0,-2.0,-4.0,-54.0,-9.0,-4.0,-6.0,-2.0,0.66986083984375,0.38427734375,-0.57757568359375,-0.2645263671875,-0.58642578125,-0.79736328125,-0.185546875,0.625,-2.25,8.0
1.1099999999999983,-2.0,-2.0,-4.0,-54.0,-9.0,-4.0,-6.0,-2.0,0.66986083984375,0.38427734375,-0.57757568359375,-0.2645263671875,-0.58642578125,-0.79736328125,-0.185546875,0.625,-2.25,8.0
1.1149999999999982,-4.0,0.0,0.0,-3.0,-3.0,-4.0,-2.0,-2.0,0.66986083984375,0.38427734375,-0.57757568359375,-0.2645263671875,-0.58642578125,-0.79736328125,-0.185546875,0.625,-2.25,8.0
1.119999999999998,-3.0,0.0,3.0,13.0,5.0,9.0,8.0,3.0,0.670166015625,0.38360595703125,-0.5780029296875,-0.26385498046875,-0.57861328125,-0.79150390625,-0.18017578125,-0.625,-0.625,5.625
1.124999999999998,-3.0,0.0,3.0,13.0,5.0,9.0,8.0,3.0,0.670166015625,0.38360595703125,-0.5780029296875,-0.26385498046875,-0.57861328125,-0.79150390625,-0.18017578125,-0.625,-0.625,5.625
1.129999999999998,-3.0,0.0,3.0,13.0,5.0,9.0,8.0,3.0,0.670166015625,0.38360595703125,-0.5780029296875,-0.26385498046875,-0.57861328125,-0.79150390625,-0.18017578125,-0.625,-0.625,5.625
1.1349999999999978,-3.0,0.0,3.0,13.0,5.0,9.0,8.0,3.0,0.670166015625,0.38360595703125,-0.5780029296875,-0.26385498046875,-0.57861328125,-0.79150390625,-0.18017578125,-0.625,-0.625,5.625
1.1399999999999977,-3.0,0.0,3.0,13.0,5.0,9.0,8.0,3.0,0.670166015625,0.38360595703125,-0.5780029296875,-0.26385498046875,-0.57861328125,-0.79150390625,-0.18017578125,-0.625,-0.625,5.625
1.1449999999999976,-1.0,-1.0,-2.0,-6.0,-3.0,-4.0,-8.0,-3.0,0.67041015625,0.38311767578125,-0.578125,-0.26361083984375,-0.58642578125,-0.80029296875,-0.1787109375,-0.0625,1.375,2.75
1.1499999999999975,-2.0,0.0,1.0,-2.0,-2.0,6.0,-3.0,0.0,0.67041015625,0.38311767578125,-0.578125,-0.26361083984375,-0.58642578125,-0.80029296875,-0.1787109375,-0.0625,1.375,2.75
1.1549999999999974,-2.0,0.0,1.0,-2.0,-2.0,6.0,-3.0,0.0,0.67041015625,0.38311767578125,-0.578125,-0.26361083984375,-0.58642578125,-0.80029296875,-0.1787109375,-0.0625,1.375,2.75
1.1599999999999973,-2.0,0.0,1.0,-2.0,-2.0,6.0,-3.0,0.0,0.67041015625,0.38311767578125,-0.578125,-0.26361083984375,-0.58642578125,-0.80029296875,-0.1787109375,-0.0625,1.375,2.75
1.1649999999999971,-3.0,0.0,1.0,-1.0,-1.0,4.0,2.0,0.0,0.67041015625,0.38311767578125,-0.578125,-0.26361083984375,-0.58642578125,-0.80029296875,-0.1787109375,-0.0625,1.375,2.75
1.169999999999997,-2.0,-3.0,-1.0,-2.0,-9.0,8.0,-5.0,-3.0,0.670654296875,0.38299560546875,-0.57794189453125,-0.26373291015625,-0.57958984375,-0.79931640625,-0.18212890625,-0.5,2.375,-0.125
1.174999999999997,-2.0,-3.0,-1.0,-2.0,-9.0,8.0,-5.0,-3.0,0.670654296875,0.38299560546875,-0.57794189453125,-0.26373291015625,-0.57958984375,-0.79931640625,-0.18212890625,-0.5,2.375,-0.125
1.1799999999999968,1.0,0.0,1.0,11.0,4.0,2.0,0.0,1.0,0.670654296875,0.38299560546875,-0.57794189453125,-0.26373291015625,-0.57958984375,-0.79931640625,-0.18212890625,-0.5,2.375,-0.125
1.1849999999999967,1.0,0.0,1.0,11.0,4.0,2.0,0.0,1.0,0.670654296875,0.38299560546875,-0.57794189453125,-0.26373291015625,-0.57958984375,-0.79931640625,-0.18212890625,-0.5,2.375,-0.125
1.1899999999999966,1.0,0.0,1.0,11.0,4.0,2.0,0.0,1.0,0.67083740234375,0.3834228515625,-0.5772705078125,-0.2640380859375,-0.58154296875,-0.8095703125,-0.1904296875,-2.625,3.375,-3.0625
1.1949999999999965,-1.0,0.0,-1.0,3.0,2.0,-4.0,0.0,0.0,0.67083740234375,0.3834228515625,-0.5772705078125,-0.2640380859375,-0.58154296875,-0.8095703125,-0.1904296875,-2.625,3.375,-3.0625
1.1999999999999964,-1.0,0.0,-1.0,3.0,2.0,-4.0,0.0,0.0,0.67083740234375,0.3834228515625,-0.5772705078125,-0.2640380859375,-0.58154296875,-0.8095703125,-0.1904296875,-2.625,3.375,-3.0625
1.2049999999999963,2.0,-2.0,-2.0,-18.0,-2.0,1.0,-3.0,-1.0,0.67083740234375,0.3834228515625,-0.5772705078125,-0.2640380859375,-0.58154296875,-0.8095703125,-0.1904296875,-2.625,3.375,-3.0625
1.2099999999999962,2.0,-2.0,-2.0,-18.0,-2.0,1.0,-3.0,-1.0,0.67120361328125,0.3841552734375,-0.5762939453125,-0.26416015625,-0.58984375,-0.814453125,-0.18994140625,-5.3125,4.75,-4.5
1.214999999999996,-6.0,1.0,-2.0,5.0,2.0,0.0,0.0,0.0,0.67120361328125,0.3841552734375,-0.5762939453125,-0.26416015625,-0.58984375,-0.814453125,-0.18994140625,-5.3125,4.75,-4.5
1.219999999999996,-6.0,1.0,-2.0,5.0,2.0,0.0,0.0,0.0,0.67120361328125,0.3841552734375,-0.5762939453125,-0.26416015625,-0.58984375,-0.814453125,-0.18994140625,-5.3125,4.75,-4.5
1.2249999999999959,-6.0,1.0,-2.0,5.0,2.0,0.0,0.0,0.0,0.67120361328125,0.3841552734375,-0.5762939453125,-0.26416015625,-0.58984375,-0.814453125,-0.18994140625,-5.3125,4.75,-4.5
1.2299999999999958,-6.0,1.0,-2.0,5.0,2.0,0.0,0.0,0.0,0.67120361328125,0.3841552734375,-0.5762939453125,-0.26416015625,-0.58984375,-0.814453125,-0.18994140625,-5.3125,4.75,-4.5
1.2349999999999957,1.0,-2.0,-3.0,-11.0,4.0,-4.0,3.0,0.0,0.67156982421875,0.3848876953125,-0.57525634765625,-0.26446533203125,-0.58544921875,-0.79833984375,-0.189453125,-4.75,5.125,-5.625
1.2399999999999956,1.0,0.0,-3.0,-14.0,-6.0,-22.0,-8.0,-4.0,0.67156982421875,0.3848876953125,-0.57525634765625,-0.26446533203125,-0.58544921875,-0.79833984375,-0.189453125,-4.75,5.125,-5.625
1.2449999999999954,1.0,0.0,-3.0,-14.0,-6.0,-22.0,-8.0,-4.0,0.67156982421875,0.3848876953125,-0.57525634765625,-0.26446533203125,-0.58544921875,-0.79833984375,-0.189453125,-4.75,5.125,-5.625
1.2499999999999953,1.0,0.0,-3.0,-14.0,-6.0,-22.0,-8.0,-4.0,0.67156982421875,0.3848876953125,-0.57525634765625,-0.26446533203125,-0.58544921875,-0.79833984375,-0.189453125,-4.75,5.125,-5.625
1.2549999999999952,-2.0,-2.0,-5.0,-70.0,-7.0,9.0,0.0,1.0,0.67156982421875,0.3848876953125,-0.57525634765625,-0.26446533203125,-0.58544921875,-0.79833984375,-0.189453125,-4.75,5.125,-5.625
1.2599999999999951,-2.0,-2.0,-5.0,-70.0,-7.0,9.0,0.0,1.0,0.67156982421875,0.3848876953125,-0.57525634765625,-0.26446533203125,-0.58544921875,-0.79833984375,-0.189453125,-4.75,5.125,-5.625
1.264999999999995,-4.0,-2.0,1.0,10.0,2.0,-2.0,5.0,1.0,0.6717529296875,0.38592529296875,-0.57415771484375,-0.2647705078125,-0.5869140625,-0.81103515625,-0.20068359375,-5.125,4.25,-6.875
1.269999999999995,-4.0,-2.0,1.0,10.0,2.0,-2.0,5.0,1.0,0.6717529296875,0.38592529296875,-0.57415771484375,-0.2647705078125,-0.5869140625,-0.81103515625,-0.20068359375,-5.125,4.25,-6.875
1.2749999999999948,-4.0,-2.0,1.0,10.0,2.0,-2.0,5.0,1.0,0.6717529296875,0.38592529296875,-0.57415771484375,-0.2647705078125,-0.5869140625,-0.81103515625,-0.20068359375,-5.125,4.25,-6.875
1.2799999999999947,-4.0,-2.0,1.0,10.0,2.0,-2.0,5.0,1.0,0.6717529296875,0.38592529296875,-0.57415771484375,-0.2647705078125,-0.5869140625,-0.81103515625,-0.20068359375,-5.125,4.25,-6.875
1.2849999999999946,3.0,1.0,0.0,15.0,0.0,-2.0,0.0,0.0,0.67181396484375,0.38714599609375,-0.57318115234375,-0.264892578125,-0.580078125,-0.8349609375,-0.20068359375,-6.375,2.9375,-6.0
1.2899999999999945,1.0,0.0,-7.0,0.0,-3.0,-6.0,-6.0,-3.0,0.67181396484375,0.38714599609375,-0.57318115234375,-0.264892578125,-0.580078125,-0.8349609375,-0.20068359375,-6.375,2.9375,-6.0
1.2949999999999944,1.0,0.0,-7.0,0.0,-3.0,-6.0,-6.0,-3.0,0.67181396484375,0.38714599609375,-0.57318115234375,-0.264892578125,-0.580078125,-0.8349609375,-0.20068359375,-6.375,2.9375,-6.0
1.2999999999999943,1.0,0.0,-7.0,0.0,-3.0,-6.0,-6.0,-3.0,0.67181396484375,0.38714599609375,-0.57318115234375,-0.264892578125,-0.580078125,-0.8349609375,-0.20068359375,-6.375,2.9375,-6.0
1.3049999999999942,1.0,0.0,-7.0,0.0,-3.0,-6.0,-6.0,-3.0,0.67181396484375,0.38714599609375,-0.57318115234375,-0.264892578125,-0.580078125,-0.8349609375,-0.20068359375,-6.375,2.9375,-6.0
1.309999999999994,-1.0,-1.0,0.0,9.0,-1.0,0.0,1.0,-1.0,0.67181396484375,0.38714599609375,-0.57318115234375,-0.264892578125,-0.580078125,-0.8349609375,-0.20068359375,-6.375,2.9375,-6.0
1.314999999999994,1.0,1.0,1.0,-2.0,3.0,2.0,-4.0,0.0,0.671875,0.388427734375,-0.57232666015625,-0.2647705078125,-0.58544921875,-0.8740234375,-0.22412109375,-6.625,0.8125,-4.0625
1.3199999999999938,1.0,1.0,1.0,-2.0,3.0,2.0,-4.0,0.0,0.671875,0.388427734375,-0.57232666015625,-0.2647705078125,-0.58544921875,-0.8740234375,-0.22412109375,-6.625,0.8125,-4.0625
1.3249999999999937,1.0,1.0,1.0,-2.0,3.0,2.0,-4.0,0.0,0.671875,0.388427734375,-0.57232666015625,-0.2647705078125,-0.58544921875,-0.8740234375,-0.22412109375,-6.625,0.8125,-4.0625
1.3299999999999936,3.0,-1.0,0.0,14.0,-4.0,-2.0,-1.0,-4.0,0.671875,0.388427734375,-0.57232666015625,-0.2647705078125,-0.58544921875,-0.8740234375,-0.22412109375,-6.625,0.8125,-4.0625
1.3349999999999935,3.0,-1.0,0.0,14.0,-4.0,-2.0,-1.0,-4.0,0.671875,0.388427734375,-0.57232666015625,-0.2647705078125,-0.58544921875,-0.8740234375,-0.22412109375,-6.625,0.8125,-4.0625
1.3399999999999934,6.0,-2.0,1.0,14.0,5.0,3.0,0.0,-1.0,0.67132568359375,0.38848876953125,-0.57281494140625,-0.26519775390625,-0.5859375,-0.86083984375,-0.19677734375,2.0,-2.25,-1.125
1.3449999999999933,6.0,-2.0,1.0,14.0,5.0,3.0,0.0,-1.0,0.67132568359375,0.38848876953125,-0.57281494140625,-0.26519775390625,-0.5859375,-0.86083984375,-0.19677734375,2.0,-2.25,-1.125
1.3499999999999932,6.0,-2.0,1.0,14.0,5.0,3.0,0.0,-1.0,0.67132568359375,0.38848876953125,-0.57281494140625,-0.26519775390625,-0.5859375,-0.86083984375,-0.19677734375,2.0,-2.25,-1.125
1.354999999999993,6.0,-2.0,1.0,14.0,5.0,3.0,0.0,-1.0,0.67132568359375,0.38848876953125,-0.57281494140625,-0.26519775390625,-0.5859375,-0.86083984375,-0.19677734375,2.0,-2.25,-1.125
1.359999999999993,-1.0,0.0,0.0,1.0,-4.0,-3.0,2.0,1.0,0.670654296875,0.3878173828125,-0.5738525390625,-0.265625,-0.58056640625,-0.82666015625,-0.19580078125,6.4375,-4.0,1.3125
1.3649999999999929,-1.0,0.0,0.0,1.0,-4.0,-3.0,2.0,1.0,0.670654296875,0.3878173828125,-0.5738525390625,-0.265625,-0.58056640625,-0.82666015625,-0.19580078125,6.4375,-4.0,1.3125
1.3699999999999928,-2.0,-3.0,-3.0,-25.0,-2.0,-5.0,-10.0,-2.0,0.670654296875,0.3878173828125,-0.5738525390625,-0.265625,-0.58056640625,-0.82666015625,-0.19580078125,6.4375,-4.0,1.3125
1.3749999999999927,-2.0,-3.0,-3.0,-25.0,-2.0,-5.0,-10.0,-2.0,0.670654296875,0.3878173828125,-0.5738525390625,-0.265625,-0.58056640625,-0.82666015625,-0.19580078125,6.4375,-4.0,1.3125
1.3799999999999926,-2.0,-3.0,-3.0,-25.0,-2.0,-5.0,-10.0,-2.0,0.670654296875,0.3878173828125,-0.5738525390625,-0.265625,-0.58056640625,-0.82666015625,-0.19580078125,6.4375,-4.0,1.3125
1.3849999999999925,-2.0,-3.0,-3.0,-25.0,-2.0,-5.0,-10.0,-2.0,0.670654296875,0.3878173828125,-0.5738525390625,-0.265625,-0.58056640625,-0.82666015625,-0.19580078125,6.4375,-4.0,1.3125
1.3899999999999924,-2.0,-2.0,-2.0,15.0,-2.0,0.0,1.0,-1.0,0.670654296875,0.3878173828125,-0.5738525390625,-0.265625,-0.58056640625,-0.82666015625,-0.19580078125,6.4375,-4.0,1.3125
1.3949999999999922,-2.0,-2.0,-2.0,15.0,-2.0,0.0,1.0,-1.0,0.67047119140625,0.38720703125,-0.57464599609375,-0.26513671875,-0.58349609375,-0.80859375,-0.1904296875,1.6875,-3.25,4.0
1.3999999999999921,-1.0,-1.0,-1.0,1.0,-1.0,0.0,-2.0,-3.0,0.67047119140625,0.38720703125,-0.57464599609375,-0.26513671875,-0.58349609375,-0.80859375,-0.1904296875,1.6875,-3.25,4.0
1.404999999999992,-1.0,-1.0,-1.0,1.0,-1.0,0.0,-2.0,-3.0,0.67047119140625,0.38720703125,-0.57464599609375,-0.26513671875,-0.58349609375,-0.80859375,-0.1904296875,1.6875,-3.25,4.0
1.409999999999992,-4.0,-1.0,0.0,-1.0,-8.0,-5.0,-9.0,-4.0,0.67047119140625,0.38720703125,-0.57464599609375,-0.26513671875,-0.58349609375,-0.80859375,-0.1904296875,1.6875,-3.25,4.0
1.4149999999999918,-4.0,-1.0,0.0,-1.0,-8.0,-5.0,-9.0,-4.0,0.67047119140625,0.38720703125,-0.57464599609375,-0.26513671875,-0.58349609375,-0.80859375,-0.1904296875,1.6875,-3.25,4.0
1.4199999999999917,-4.0,-1.0,0.0,-1.0,-8.0,-5.0,-9.0,-4.0,0.67047119140625,0.38720703125,-0.57464599609375,-0.26513671875,-0.58349609375,-0.80859375,-0.1904296875,1.6875,-3.25,4.0
1.4249999999999916,-4.0,-3.0,-7.0,5.0,-1.0,0.0,3.0,-2.0,0.67047119140625,0.38677978515625,-0.5751953125,-0.26446533203125,-0.5830078125,-0.8193359375,-0.19482421875,-0.5,-2.4375,4.5
1.4299999999999915,-4.0,-3.0,-7.0,5.0,-1.0,0.0,3.0,-2.0,0.67047119140625,0.38677978515625,-0.5751953125,-0.26446533203125,-0.5830078125,-0.8193359375,-0.19482421875,-0.5,-2.4375,4.5
1.4349999999999914,-4.0,-3.0,-7.0,5.0,-1.0,0.0,3.0,-2.0,0.67047119140625,0.38677978515625,-0.5751953125,-0.26446533203125,-0.5830078125,-0.8193359375,-0.19482421875,-0.5,-2.4375,4.5
1.4399999999999913,-1.0,0.0,1.0,17.0,4.0,2.0,3.0,2.0,0.67047119140625,0.38677978515625,-0.5751953125,-0.26446533203125,-0.5830078125,-0.8193359375,-0.19482421875,-0.5,-2.4375,4.5
1.4449999999999912,-1.0,0.0,1.0,17.0,4.0,2.0,3.0,2.0,0.6705322265625,0.386474609375,-0.57562255859375,-0.26397705078125,-0.57861328125,-0.81982421875,-0.20263671875,0.0,-2.25,4.0
1.449999999999991,-1.0,-2.0,0.0,-6.0,1.0,-4.0,-1.0,-3.0,0.6705322265625,0.386474609375,-0.57562255859375,-0.26397705078125,-0.57861328125,-0.81982421875,-0.20263671875,0.0,-2.25,4.0
1.454999999999991,-1.0,-2.0,0.0,-6.0,1.0,-4.0,-1.0,-3.0,0.6705322265625,0.386474609375,-0.57562255859375,-0.26397705078125,-0.57861328125,-0.81982421875,-0.20263671875,0.0,-2.25,4.0
1.4599999999999909,2.0,-1.0,2.0,21.0,5.0,5.0,2.0,1.0,0.6705322265625,0.386474609375,-0.57562255859375,-0.26397705078125,-0.57861328125,-0.81982421875,-0.20263671875,0.0,-2.25,4.0
1.4649999999999908,-2.0,-1.0,-7.0,6.0,-14.0,-1.0,-3.0,-3.0,0.670654296875,0.385986328125,-0.57598876953125,-0.2635498046875,-0.57958984375,-0.81005859375,-0.21630859375,1.375,-1.8125,3.75
1.4699999999999906,-2.0,-1.0,-7.0,6.0,-14.0,-1.0,-3.0,-3.0,0.670654296875,0.385986328125,-0.57598876953125,-0.2635498046875,-0.57958984375,-0.81005859375,-0.21630859375,1.375,-1.8125,3.75
1.4749999999999905,-2.0,-1.0,-7.0,6.0,-14.0,-1.0,-3.0,-3.0,0.670654296875,0.385986328125,-0.57598876953125,-0.2635498046875,-0.57958984375,-0.81005859375,-0.21630859375,1.375,-1.8125,3.75
1.4799999999999904,-2.0,-1.0,-7.0,6.0,-14.0,-1.0,-3.0,-3.0,0.670654296875,0.385986328125,-0.57598876953125,-0.2635498046875,-0.57958984375,-0.81005859375,-0.21630859375,1.375,-1.8125,3.75
1.4849999999999903,1.0,-1.0,-1.0,-6.0,6.0,-1.0,3.0,2.0,0.670654296875,0.385986328125,-0.57598876953125,-0.2635498046875,-0.57958984375,-0.81005859375,-0.21630859375,1.375,-1.8125,3.75
1.4899999999999902,1.0,-1.0,-1.0,-6.0,6.0,-1.0,3.0,2.0,0.670654296875,0.385986328125,-0.57598876953125,-0.2635498046875,-0.57958984375,-0.81005859375,-0.21630859375,1.375,-1.8125,3.75
1.4949999999999901,1.0,-1.0,-1.0,-6.0,6.0,-1.0,3.0,2.0,0.670654296875,0.385986328125,-0.57598876953125,-0.2635498046875,-0.57958984375,-0.81005859375,-0.21630859375,1.375,-1.8125,3.75
1.49999999999999,1.0,-1.0,-1.0,-6.0,6.0,-1.0,3.0,2.0,0.670654296875,0.3853759765625,-0.5765380859375,-0.2633056640625,-0.58251953125,-0.80322265625,-0.20703125,2.5625,-1.9375,3.5
1.50499999999999,-2.0,-2.0,-3.0,-5.0,-3.0,16.0,2.0,-2.0,0.67059326171875,0.3848876953125,-0.57696533203125,-0.26324462890625,-0.58837890625,-0.79150390625,-0.205078125,3.0625,-1.3125,1.625
1.5099999999999898,-2.0,-2.0,-3.0,-5.0,-3.0,16.0,2.0,-2.0,0.67059326171875,0.3848876953125,-0.57696533203125,-0.26324462890625,-0.58837890625,-0.79150390625,-0.205078125,3.0625,-1.3125,1.625
1.5149999999999897,-1.0,-2.0,1.0,-3.0,1.0,0.0,1.0,3.0,0.67059326171875,0.3848876953125,-0.57696533203125,-0.26324462890625,-0.58837890625,-0.79150390625,-0.205078125,3.0625,-1.3125,1.625
1.5199999999999896,-1.0,-2.0,1.0,-3.0,1.0,0.0,1.0,3.0,0.67059326171875,0.3848876953125,-0.57696533203125,-0.26324462890625,-0.58837890625,-0.79150390625,-0.205078125,3.0625,-1.3125,1.625
1.5249999999999895,-1.0,-2.0,1.0,-3.0,1.0,0.0,1.0,3.0,0.67059326171875,0.3848876953125,-0.57696533203125,-0.26324462890625,-0.58837890625,-0.79150390625,-0.205078125,3.0625,-1.3125,1.625
1.5299999999999894,-1.0,-2.0,-2.0,-1.0,-3.0,-16.0,-10.0,-3.0,0.67059326171875,0.3848876953125,-0.57696533203125,-0.26324462890625,-0.58837890625,-0.79150390625,-0.205078125,3.0625,-1.3125,1.625
1.5349999999999893,-1.0,-2.0,-2.0,-1.0,-3.0,-16.0,-10.0,-3.0,0.67059326171875,0.38470458984375,-0.57708740234375,-0.26318359375,-0.5869140625,-0.79296875,-0.19775390625,1.0625,-0.25,-0.1875
1.5399999999999892,-1.0,-2.0,2.0,1.0,2.0,4.0,6.0,-1.0,0.67059326171875,0.38470458984375,-0.57708740234375,-0.26318359375,-0.5869140625,-0.79296875,-0.19775390625,1.0625,-0.25,-0.1875
1.544999999999989,-1.0,0.0,-2.0,11.0,-2.0,-2.0,-3.0,-1.0,0.67059326171875,0.38470458984375,-0.57708740234375,-0.26318359375,-0.5869140625,-0.79296875,-0.19775390625,1.0625,-0.25,-0.1875
1.549999999999989,0.0,-2.0,-1.0,3.0,0.0,-10.0,0.0,-3.0,0.67059326171875,0.38470458984375,-0.57708740234375,-0.26318359375,-0.5869140625,-0.79296875,-0.19775390625,1.0625,-0.25,-0.1875
1.5549999999999888,2.0,0.0,-1.0,4.0,0.0,3.0,0.0,-1.0,0.67071533203125,0.38507080078125,-0.5767822265625,-0.26300048828125,-0.5859375,-0.80224609375,-0.205078125,-2.5625,0.6875,-1.625
1.5599999999999887,2.0,0.0,-1.0,4.0,0.0,3.0,0.0,-1.0,0.67071533203125,0.38507080078125,-0.5767822265625,-0.26300048828125,-0.5859375,-0.80224609375,-0.205078125,-2.5625,0.6875,-1.625
1.5649999999999886,2.0,0.0,-1.0,4.0,0.0,3.0,0.0,-1.0,0.67071533203125,0.38507080078125,-0.5767822265625,-0.26300048828125,-0.5859375,-0.80224609375,-0.205078125,-2.5625,0.6875,-1.625
1.5699999999999885,-2.0,-2.0,1.0,-6.0,3.0,-8.0,-3.0,-1.0,0.67071533203125,0.38507080078125,-0.5767822265625,-0.26300048828125,-0.5859375,-0.80224609375,-0.205078125,-2.5625,0.6875,-1.625
1.5749999999999884,-2.0,-2.0,1.0,-6.0,3.0,-8.0,-3.0,-1.0,0.6707763671875,0.38531494140625,-0.5765380859375,-0.26312255859375,-0.59326171875,-0.81591796875,-0.19873046875,-1.4375,1.0,-2.1875
1.5799999999999883,0.0,-1.0,0.0,-15.0,0.0,6.0,8.0,1.0,0.6707763671875,0.38531494140625,-0.5765380859375,-0.26312255859375,-0.59326171875,-0.81591796875,-0.19873046875,-1.4375,1.0,-2.1875
1.5849999999999882,0.0,-1.0,0.0,-15.0,0.0,6.0,8.0,1.0,0.6707763671875,0.38531494140625,-0.5765380859375,-0.26312255859375,-0.59326171875,-0.81591796875,-0.19873046875,-1.4375,1.0,-2.1875
1.589999999999988,0.0,-1.0,0.0,-15.0,0.0,6.0,8.0,1.0,0.6707763671875,0.38531494140625,-0.5765380859375,-0.26312255859375,-0.59326171875,-0.81591796875,-0.19873046875,-1.4375,1.0,-2.1875
1.594999999999988,0.0,-1.0,0.0,-15.0,0.0,6.0,8.0,1.0,0.6707763671875,0.38531494140625,-0.5765380859375,-0.26312255859375,-0.59326171875,-0.81591796875,-0.19873046875,-1.4375,1.0,-2.1875
1.5999999999999879,-1.0,-1.0,0.0,26.0,-2.0,1.0,1.0,-2.0,0.6707763671875,0.38531494140625,-0.5765380859375,-0.26312255859375,-0.59326171875,-0.81591796875,-0.19873046875,-1.4375,1.0,-2.1875
1.6049999999999878,-2.0,-2.0,1.0,13.0,-5.0,-7.0,-7.0,-5.0,0.670654296875,0.3856201171875,-0.5762939453125,-0.26336669921875,-0.587890625,-0.822265625,-0.20654296875,-0.375,0.625,-2.5625
1.6099999999999877,-2.0,-2.0,1.0,13.0,-5.0,-7.0,-7.0,-5.0,0.670654296875,0.3856201171875,-0.5762939453125,-0.26336669921875,-0.587890625,-0.822265625,-0.20654296875,-0.375,0.625,-2.5625
1.6149999999999876,-3.0,-3.0,-2.0,0.0,-2.0,5.0,0.0,-2.0,0.670654296875,0.3856201171875,-0.5762939453125,-0.26336669921875,-0.587890625,-0.822265625,-0.20654296875,-0.375,0.625,-2.5625
1.6199999999999875,0.0,0.0,-1.0,-6.0,-4.0,-2.0,5.0,2.0,0.67047119140625,0.38604736328125,-0.57611083984375,-0.26361083984375,-0.58447265625,-0.8251953125,-0.19970703125,-0.5625,0.0,-3.0
1.6249999999999873,0.0,0.0,-1.0,-6.0,-4.0,-2.0,5.0,2.0,0.67047119140625,0.38604736328125,-0.57611083984375,-0.26361083984375,-0.58447265625,-0.8251953125,-0.19970703125,-0.5625,0.0,-3.0
1.6299999999999872,0.0,0.0,-1.0,-6.0,-4.0,-2.0,5.0,2.0,0.67047119140625,0.38604736328125,-0.57611083984375,-0.26361083984375,-0.58447265625,-0.8251953125,-0.19970703125,-0.5625,0.0,-3.0
1.6349999999999871,-1.0,-1.0,0.0,4.0,-1.0,-1.0,-1.0,-1.0,0.67047119140625,0.38604736328125,-0.57611083984375,-0.26361083984375,-0.58447265625,-0.8251953125,-0.19970703125,-0.5625,0.0,-3.0
1.639999999999987,-1.0,-1.0,0.0,4.0,-1.0,-1.0,-1.0,-1.0,0.67010498046875,0.3861083984375,-0.57635498046875,-0.26397705078125,-0.58544921875,-0.82470703125,-0.18798828125,1.375,-0.75,-1.9375
1.644999999999987,-1.0,-2.0,-3.0,5.0,0.0,-3.0,-6.0,-2.0,0.67010498046875,0.3861083984375,-0.57635498046875,-0.26397705078125,-0.58544921875,-0.82470703125,-0.18798828125,1.375,-0.75,-1.9375
1.6499999999999868,-1.0,-2.0,-3.0,5.0,0.0,-3.0,-6.0,-2.0,0.67010498046875,0.3861083984375,-0.57635498046875,-0.26397705078125,-0.58544921875,-0.82470703125,-0.18798828125,1.375,-0.75,-1.9375
1.6549999999999867,-1.0,-2.0,-3.0,5.0,0.0,-3.0,-6.0,-2.0,0.67010498046875,0.3861083984375,-0.57635498046875,-0.26397705078125,-0.58544921875,-0.82470703125,-0.18798828125,1.375,-0.75,-1.9375
1.6599999999999866,1.0,0.0,-1.0,0.0,0.0,0.0,-2.0,0.0,0.6697998046875,0.38616943359375,-0.57659912109375,-0.26409912109375,-0.58837890625,-0.8232421875,-0.1943359375,0.875,-1.5625,-1.125
1.6649999999999865,1.0,0.0,-1.0,0.0,0.0,0.0,-2.0,0.0,0.6697998046875,0.38616943359375,-0.57659912109375,-0.26409912109375,-0.58837890625,-0.8232421875,-0.1943359375,0.875,-1.5625,-1.125
1.6699999999999864,-2.0,0.0,1.0,-1.0,4.0,-16.0,5.0,1.0,0.6697998046875,0.38616943359375,-0.57659912109375,-0.26409912109375,-0.58837890625,-0.8232421875,-0.1943359375,0.875,-1.5625,-1.125
1.6749999999999863,-2.0,0.0,1.0,-1.0,4.0,-16.0,5.0,1.0,0.6697998046875,0.38616943359375,-0.57659912109375,-0.26409912109375,-0.58837890625,-0.8232421875,-0.1943359375,0.875,-1.5625,-1.125
1.6799999999999862,-2.0,0.0,1.0,-1.0,4.0,-16.0,5.0,1.0,0.6697998046875,0.38616943359375,-0.57659912109375,-0.26409912109375,-0.58837890625,-0.8232421875,-0.1943359375,0.875,-1.5625,-1.125
1.684999999999986,-2.0,0.0,1.0,-1.0,4.0,-16.0,5.0,1.0,0.6697998046875,0.38616943359375,-0.57659912109375,-0.26409912109375,-0.58837890625,-0.8232421875,-0.1943359375,0.875,-1.5625,-1.125
1.689999999999986,-2.0,-2.0,-13.0,-57.0,-15.0,21.0,-1.0,-2.0,0.6697998046875,0.38616943359375,-0.57659912109375,-0.26409912109375,-0.58837890625,-0.8232421875,-0.1943359375,0.875,-1.5625,-1.125
1.6949999999999859,-2.0,0.0,0.0,14.0,-2.0,-4.0,-7.0,-4.0,0.66961669921875,0.38623046875,-0.5767822265625,-0.26397705078125,-0.5927734375,-0.8232421875,-0.19873046875,-0.3125,-1.5,-0.4375
1.6999999999999857,-2.0,0.0,0.0,14.0,-2.0,-4.0,-7.0,-4.0,0.66961669921875,0.38623046875,-0.5767822265625,-0.26397705078125,-0.5927734375,-0.8232421875,-0.19873046875,-0.3125,-1.5,-0.4375
1.7049999999999856,-2.0,0.0,0.0,14.0,-2.0,-4.0,-7.0,-4.0,0.66961669921875,0.38623046875,-0.5767822265625,-0.26397705078125,-0.5927734375,-0.8232421875,-0.19873046875,-0.3125,-1.5,-0.4375
1.7099999999999855,-1.0,-1.0,1.0,-5.0,-4.0,-4.0,1.0,0.0,0.66949462890625,0.38629150390625,-0.57696533203125,-0.26385498046875,-0.58251953125,-0.8203125,-0.1982421875,-0.1875,-1.625,0.25
1.7149999999999854,-2.0,0.0,-1.0,-2.0,-2.0,-2.0,-3.0,0.0,0.66949462890625,0.38629150390625,-0.57696533203125,-0.26385498046875,-0.58251953125,-0.8203125,-0.1982421875,-0.1875,-1.625,0.25
1.7199999999999853,1.0,-1.0,-4.0,-18.0,-4.0,0.0,-3.0,-3.0,0.66949462890625,0.38629150390625,-0.57696533203125,-0.26385498046875,-0.58251953125,-0.8203125,-0.1982421875,-0.1875,-1.625,0.25
1.7249999999999852,1.0,-1.0,-4.0,-18.0,-4.0,0.0,-3.0,-3.0,0.66949462890625,0.38629150390625,-0.57696533203125,-0.26385498046875,-0.58251953125,-0.8203125,-0.1982421875,-0.1875,-1.625,0.25
1.729999999999985,0.0,-1.0,-1.0,24.0,12.0,8.0,-1.0,0.0,0.6693115234375,0.38623046875,-0.5772705078125,-0.26373291015625,-0.57958984375,-0.82666015625,-0.193359375,0.25,-1.4375,1.125
1.734999999999985,0.0,-1.0,-1.0,24.0,12.0,8.0,-1.0,0.0,0.6693115234375,0.38623046875,-0.5772705078125,-0.26373291015625,-0.57958984375,-0.82666015625,-0.193359375,0.25,-1.4375,1.125
1.739999999999985,-1.0,-1.0,-1.0,-5.0,-1.0,5.0,-1.0,1.0,0.6693115234375,0.38623046875,-0.5772705078125,-0.26373291015625,-0.57958984375,-0.82666015625,-0.193359375,0.25,-1.4375,1.125
1.7449999999999848,-1.0,-1.0,-1.0,-5.0,-1.0,5.0,-1.0,1.0,0.6693115234375,0.38623046875,-0.5772705078125,-0.26373291015625,-0.57958984375,-0.82666015625,-0.193359375,0.25,-1.4375,1.125
1.7499999999999847,-2.0,-1.0,-3.0,-3.0,-1.0,-7.0,0.0,1.0,0.66925048828125,0.3861083984375,-0.5775146484375,-0.26348876953125,-0.57373046875,-0.82177734375,-0.19287109375,-0.3125,-1.625,2.0625
1.7549999999999846,-3.0,-1.0,0.0,-1.0,0.0,4.0,-3.0,-2.0,0.66925048828125,0.3861083984375,-0.5775146484375,-0.26348876953125,-0.57373046875,-0.82177734375,-0.19287109375,-0.3125,-1.625,2.0625
1.7599999999999845,-3.0,-1.0,0.0,-1.0,0.0,4.0,-3.0,-2.0,0.66925048828125,0.3861083984375,-0.5775146484375,-0.26348876953125,-0.57373046875,-0.82177734375,-0.19287109375,-0.3125,-1.625,2.0625
1.7649999999999844,-3.0,-1.0,0.0,-1.0,0.0,4.0,-3.0,-2.0,0.66925048828125,0.3861083984375,-0.5775146484375,-0.26348876953125,-0.57373046875,-0.82177734375,-0.19287109375,-0.3125,-1.625,2.0625
1.7699999999999843,-4.0,-3.0,-4.0,-3.0,-9.0,-30.0,-12.0,-5.0,0.66912841796875,0.38592529296875,-0.577880859375,-0.263427734375,-0.57861328125,-0.82275390625,-0.1884765625,0.75,-1.1875,1.6875
1.7749999999999841,-4.0,-3.0,-4.0,-3.0,-9.0,-30.0,-12.0,-5.0,0.66912841796875,0.38592529296875,-0.577880859375,-0.263427734375,-0.57861328125,-0.82275390625,-0.1884765625,0.75,-1.1875,1.6875
1.779999999999984,-2.0,-2.0,-1.0,7.0,2.0,2.0,2.0,1.0,0.66912841796875,0.38592529296875,-0.577880859375,-0.263427734375,-0.57861328125,-0.82275390625,-0.1884765625,0.75,-1.1875,1.6875
1.784999999999984,-2.0,-2.0,-1.0,7.0,2.0,2.0,2.0,1.0,0.66912841796875,0.38592529296875,-0.577880859375,-0.263427734375,-0.57861328125,-0.82275390625,-0.1884765625,0.75,-1.1875,1.6875
1.7899999999999838,-2.0,-2.0,-1.0,7.0,2.0,2.0,2.0,1.0,0.66912841796875,0.38592529296875,-0.577880859375,-0.263427734375,-0.57861328125,-0.82275390625,-0.1884765625,0.75,-1.1875,1.6875
1.7949999999999837,0.0,-1.0,-2.0,1.0,-2.0,0.0,-1.0,-2.0,0.66912841796875,0.38592529296875,-0.577880859375,-0.263427734375,-0.57861328125,-0.82275390625,-0.1884765625,0.75,-1.1875,1.6875
1.7999999999999836,0.0,-1.0,-2.0,1.0,-2.0,0.0,-1.0,-2.0,0.669189453125,0.3856201171875,-0.578125,-0.26318359375,-0.5869140625,-0.81103515625,-0.1923828125,0.3125,-0.75,2.0625
1.8049999999999835,0.0,-1.0,-2.0,1.0,-2.0,0.0,-1.0,-2.0,0.669189453125,0.3856201171875,-0.578125,-0.26318359375,-0.5869140625,-0.81103515625,-0.1923828125,0.3125,-0.75,2.0625
1.8099999999999834,0.0,-1.0,-2.0,1.0,-2.0,0.0,-1.0,-2.0,0.669189453125,0.3856201171875,-0.578125,-0.26318359375,-0.5869140625,-0.81103515625,-0.1923828125,0.3125,-0.75,2.0625
1.8149999999999833,0.0,-1.0,-2.0,1.0,-2.0,0.0,-1.0,-2.0,0.669189453125,0.3856201171875,-0.578125,-0.26318359375,-0.5869140625,-0.81103515625,-0.1923828125,0.3125,-0.75,2.0625
1.8199999999999832,-1.0,-2.0,1.0,2.0,-3.0,-6.0,-3.0,-2.0,0.669189453125,0.3856201171875,-0.578125,-0.26318359375,-0.5869140625,-0.81103515625,-0.1923828125,0.3125,-0.75,2.0625
1.824999999999983,-1.0,-2.0,1.0,2.0,-3.0,-6.0,-3.0,-2.0,0.669189453125,0.3856201171875,-0.578125,-0.26318359375,-0.5869140625,-0.81103515625,-0.1923828125,0.3125,-0.75,2.0625
1.829999999999983,-3.0,0.0,-2.0,9.0,1.0,6.0,-3.0,0.0,0.669189453125,0.385498046875,-0.5782470703125,-0.26300048828125,-0.57763671875,-0.8115234375,-0.18994140625,-0.4375,-0.5,1.4375
1.8349999999999829,0.0,-1.0,-4.0,-36.0,-5.0,2.0,0.0,-2.0,0.669189453125,0.385498046875,-0.5782470703125,-0.26300048828125,-0.57763671875,-0.8115234375,-0.18994140625,-0.4375,-0.5,1.4375
1.8399999999999828,0.0,-1.0,-4.0,-36.0,-5.0,2.0,0.0,-2.0,0.669189453125,0.385498046875,-0.5782470703125,-0.26300048828125,-0.57763671875,-0.8115234375,-0.18994140625,-0.4375,-0.5,1.4375
1.8449999999999827,0.0,-1.0,-4.0,-36.0,-5.0,2.0,0.0,-2.0,0.669189453125,0.385498046875,-0.5782470703125,-0.26300048828125,-0.57763671875,-0.8115234375,-0.18994140625,-0.4375,-0.5,1.4375
1.8499999999999825,0.0,-1.0,-4.0,-36.0,-5.0,2.0,0.0,-2.0,0.669189453125,0.385498046875,-0.5782470703125,-0.26300048828125,-0.57763671875,-0.8115234375,-0.18994140625,-0.4375,-0.5,1.4375
1.8549999999999824,0.0,-1.0,-4.0,-36.0,-5.0,2.0,0.0,-2.0,0.669189453125,0.385498046875,-0.5782470703125,-0.26300048828125,-0.57763671875,-0.8115234375,-0.18994140625,-0.4375,-0.5,1.4375
1.8599999999999823,-2.0,-1.0,-1.0,-6.0,-3.0,1.0,-2.0,-1.0,0.6693115234375,0.38543701171875,-0.57830810546875,-0.2626953125,-0.58349609375,-0.82763671875,-0.1884765625,-1.875,0.1875,2.0
1.8649999999999822,-1.0,-1.0,-1.0,1.0,-1.0,-1.0,-2.0,-2.0,0.6693115234375,0.38543701171875,-0.57830810546875,-0.2626953125,-0.58349609375,-0.82763671875,-0.1884765625,-1.875,0.1875,2.0
1.8699999999999821,-1.0,-1.0,-1.0,1.0,-1.0,-1.0,-2.0,-2.0,0.6693115234375,0.38543701171875,-0.57830810546875,-0.2626953125,-0.58349609375,-0.82763671875,-0.1884765625,-1.875,0.1875,2.0
1.874999999999982,-1.0,-1.0,-1.0,1.0,-1.0,-1.0,-2.0,-2.0,0.6693115234375,0.38543701171875,-0.57830810546875,-0.2626953125,-0.58349609375,-0.82763671875,-0.1884765625,-1.875,0.1875,2.0
1.879999999999982,0.0,-1.0,1.0,2.0,3.0,0.0,1.0,-1.0,0.66937255859375,0.38519287109375,-0.5784912109375,-0.262451171875,-0.58544921875,-0.8203125,-0.18798828125,-0.4375,-0.4375,2.25
1.8849999999999818,-1.0,-1.0,-3.0,-6.0,-2.0,-2.0,-4.0,-3.0,0.66937255859375,0.38519287109375,-0.5784912109375,-0.262451171875,-0.58544921875,-0.8203125,-0.18798828125,-0.4375,-0.4375,2.25
1.8899999999999817,-1.0,-1.0,-3.0,-6.0,-2.0,-2.0,-4.0,-3.0,0.66937255859375,0.38519287109375,-0.5784912109375,-0.262451171875,-0.58544921875,-0.8203125,-0.18798828125,-0.4375,-0.4375,2.25
1.8949999999999816,-1.0,-1.0,-3.0,-6.0,-2.0,-2.0,-4.0,-3.0,0.66937255859375,0.38519287109375,-0.5784912109375,-0.262451171875,-0.58544921875,-0.8203125,-0.18798828125,-0.4375,-0.4375,2.25
1.8999999999999815,-1.0,-1.0,-3.0,-6.0,-2.0,-2.0,-4.0,-3.0,0.66937255859375,0.38519287109375,-0.5784912109375,-0.262451171875,-0.58544921875,-0.8203125,-0.18798828125,-0.4375,-0.4375,2.25
1.9049999999999814,-1.0,-1.0,-3.0,-6.0,-2.0,-2.0,-4.0,-3.0,0.66937255859375,0.38519287109375,-0.5784912109375,-0.262451171875,-0.58544921875,-0.8203125,-0.18798828125,-0.4375,-0.4375,2.25
1.9099999999999813,0.0,2.0,-2.0,6.0,2.0,3.0,2.0,-1.0,0.66937255859375,0.384765625,-0.57879638671875,-0.26239013671875,-0.5869140625,-0.82373046875,-0.18505859375,1.0625,-0.3125,2.8125
1.9149999999999812,0.0,2.0,-2.0,6.0,2.0,3.0,2.0,-1.0,0.66937255859375,0.384765625,-0.57879638671875,-0.26239013671875,-0.5869140625,-0.82373046875,-0.18505859375,1.0625,-0.3125,2.8125
1.919999999999981,0.0,2.0,-2.0,6.0,2.0,3.0,2.0,-1.0,0.66937255859375,0.384765625,-0.57879638671875,-0.26239013671875,-0.5869140625,-0.82373046875,-0.18505859375,1.0625,-0.3125,2.8125
1.924999999999981,0.0,2.0,-2.0,6.0,2.0,3.0,2.0,-1.0,0.66937255859375,0.384765625,-0.57879638671875,-0.26239013671875,-0.5869140625,-0.82373046875,-0.18505859375,1.0625,-0.3125,2.8125
1.9299999999999808,-1.0,1.0,0.0,16.0,-3.0,-4.0,-3.0,-2.0,0.66943359375,0.38421630859375,-0.57916259765625,-0.26226806640625,-0.58984375,-0.81689453125,-0.18896484375,1.6875,-0.3125,3.0
1.9349999999999807,-3.0,-3.0,-7.0,10.0,0.0,0.0,0.0,-1.0,0.66943359375,0.38421630859375,-0.57916259765625,-0.26226806640625,-0.58984375,-0.81689453125,-0.18896484375,1.6875,-0.3125,3.0
1.9399999999999806,-3.0,-3.0,-7.0,10.0,0.0,0.0,0.0,-1.0,0.66943359375,0.38421630859375,-0.57916259765625,-0.26226806640625,-0.58984375,-0.81689453125,-0.18896484375,1.6875,-0.3125,3.0
1.9449999999999805,-3.0,-3.0,-7.0,10.0,0.0,0.0,0.0,-1.0,0.66943359375,0.38421630859375,-0.57916259765625,-0.26226806640625,-0.58984375,-0.81689453125,-0.18896484375,1.6875,-0.3125,3.0
1.9499999999999804,-3.0,-3.0,-7.0,10.0,0.0,0.0,0.0,-1.0,0.66943359375,0.38421630859375,-0.57916259765625,-0.26226806640625,-0.58984375,-0.81689453125,-0.18896484375,1.6875,-0.3125,3.0
1.9549999999999803,-2.0,-1.0,-1.0,17.0,4.0,-5.0,0.0,-1.0,0.66943359375,0.38421630859375,-0.57916259765625,-0.26226806640625,-0.58984375,-0.81689453125,-0.18896484375,1.6875,-0.3125,3.0
1.9599999999999802,0.0,-2.0,-2.0,-6.0,-2.0,4.0,1.0,-1.0,0.66961669921875,0.3836669921875,-0.57940673828125,-0.26214599609375,-0.58984375,-0.81640625,-0.1923828125,1.125,0.1875,3.25
1.96499999999998,0.0,-1.0,1.0,2.0,-1.0,0.0,-1.0,-1.0,0.66961669921875,0.3836669921875,-0.57940673828125,-0.26214599609375,-0.58984375,-0.81640625,-0.1923828125,1.125,0.1875,3.25
1.96999999999998,0.0,-1.0,1.0,2.0,-1.0,0.0,-1.0,-1.0,0.66961669921875,0.3836669921875,-0.57940673828125,-0.26214599609375,-0.58984375,-0.81640625,-0.1923828125,1.125,0.1875,3.25
1.9749999999999799,0.0,-1.0,1.0,2.0,-1.0,0.0,-1.0,-1.0,0.66961669921875,0.3836669921875,-0.57940673828125,-0.26214599609375,-0.58984375,-0.81640625,-0.1923828125,1.125,0.1875,3.25
1.9799999999999798,0.0,-1.0,1.0,2.0,-1.0,0.0,-1.0,-1.0,0.66961669921875,0.3836669921875,-0.57940673828125,-0.26214599609375,-0.58984375,-0.81640625,-0.1923828125,1.125,0.1875,3.25
1.9849999999999797,0.0,-1.0,1.0,2.0,-1.0,0.0,-1.0,-1.0,0.66961669921875,0.3836669921875,-0.57940673828125,-0.26214599609375,-0.58984375,-0.81640625,-0.1923828125,1.125,0.1875,3.25
1.9899999999999796,-5.0,0.0,-1.0,0.0,2.0,0.0,-6.0,1.0,0.66973876953125,0.38311767578125,-0.5797119140625,-0.26202392578125,-0.59033203125,-0.810546875,-0.19091796875,1.5,0.125,2.875
1.9949999999999795,-5.0,0.0,-1.0,0.0,2.0,0.0,-6.0,1.0,0.66973876953125,0.38311767578125,-0.5797119140625,-0.26202392578125,-0.59033203125,-0.810546875,-0.19091796875,1.5,0.125,2.875
1.9999999999999793,-5.0,0.0,-1.0,0.0,2.0,0.0,-6.0,1.0,0.66973876953125,0.38311767578125,-0.5797119140625,-0.26202392578125,-0.59033203125,-0.810546875,-0.19091796875,1.5,0.125,2.875
2.0049999999999795,-3.0,-3.0,-1.0,-26.0,-5.0,-1.0,-1.0,2.0,0.66973876953125,0.38311767578125,-0.5797119140625,-0.26202392578125,-0.59033203125,-0.810546875,-0.19091796875,1.5,0.125,2.875
2.0099999999999794,-3.0,-3.0,-1.0,-26.0,-5.0,-1.0,-1.0,2.0,0.66986083984375,0.3826904296875,-0.579833984375,-0.26190185546875,-0.59326171875,-0.80615234375,-0.185546875,0.75,0.75,1.9375
2.0149999999999793,-3.0,-3.0,-1.0,-26.0,-5.0,-1.0,-1.0,2.0,0.66986083984375,0.3826904296875,-0.579833984375,-0.26190185546875,-0.59326171875,-0.80615234375,-0.185546875,0.75,0.75,1.9375
2.019999999999979,0.0,-1.0,0.0,-4.0,-2.0,-3.0,-1.0,-2.0,0.66986083984375,0.3826904296875,-0.579833984375,-0.26190185546875,-0.59326171875,-0.80615234375,-0.185546875,0.75,0.75,1.9375
2.024999999999979,0.0,-1.0,0.0,-4.0,-2.0,-3.0,-1.0,-2.0,0.66986083984375,0.3826904296875,-0.579833984375,-0.26190185546875,-0.59326171875,-0.80615234375,-0.185546875,0.75,0.75,1.9375
2.029999999999979,0.0,-1.0,0.0,-4.0,-2.0,-3.0,-1.0,-2.0,0.66986083984375,0.3826904296875,-0.579833984375,-0.26190185546875,-0.59326171875,-0.80615234375,-0.185546875,0.75,0.75,1.9375
2.034999999999979,0.0,-1.0,0.0,-4.0,-2.0,-3.0,-1.0,-2.0,0.66986083984375,0.3826904296875,-0.579833984375,-0.26190185546875,-0.59326171875,-0.80615234375,-0.185546875,0.75,0.75,1.9375
2.0399999999999787,-1.0,2.0,3.0,29.0,0.0,3.0,-1.0,-2.0,0.6700439453125,0.38250732421875,-0.57977294921875,-0.2618408203125,-0.58447265625,-0.810546875,-0.185546875,-0.5625,1.25,1.625
2.0449999999999786,-1.0,2.0,3.0,29.0,0.0,3.0,-1.0,-2.0,0.6700439453125,0.38250732421875,-0.57977294921875,-0.2618408203125,-0.58447265625,-0.810546875,-0.185546875,-0.5625,1.25,1.625
2.0499999999999785,-2.0,-1.0,0.0,1.0,-1.0,0.0,1.0,-1.0,0.6700439453125,0.38250732421875,-0.57977294921875,-0.2618408203125,-0.58447265625,-0.810546875,-0.185546875,-0.5625,1.25,1.625
2.0549999999999784,-2.0,-1.0,0.0,1.0,-1.0,0.0,1.0,-1.0,0.6700439453125,0.38250732421875,-0.57977294921875,-0.2618408203125,-0.58447265625,-0.810546875,-0.185546875,-0.5625,1.25,1.625
2.0599999999999783,-2.0,-1.0,0.0,1.0,-1.0,0.0,1.0,-1.0,0.6700439453125,0.38250732421875,-0.57977294921875,-0.2618408203125,-0.58447265625,-0.810546875,-0.185546875,-0.5625,1.25,1.625
2.064999999999978,1.0,1.0,0.0,-13.0,-1.0,-2.0,-1.0,-1.0,0.6702880859375,0.38232421875,-0.5797119140625,-0.26165771484375,-0.5966796875,-0.810546875,-0.19287109375,-0.75,0.9375,1.25
2.069999999999978,1.0,-1.0,-2.0,-8.0,-4.0,-5.0,0.0,-1.0,0.6702880859375,0.38232421875,-0.5797119140625,-0.26165771484375,-0.5966796875,-0.810546875,-0.19287109375,-0.75,0.9375,1.25
2.074999999999978,1.0,-1.0,-2.0,-8.0,-4.0,-5.0,0.0,-1.0,0.6702880859375,0.38232421875,-0.5797119140625,-0.26165771484375,-0.5966796875,-0.810546875,-0.19287109375,-0.75,0.9375,1.25
2.079999999999978,-3.0,-2.0,-4.0,-39.0,-8.0,-4.0,-5.0,-1.0,0.6702880859375,0.38232421875,-0.5797119140625,-0.26165771484375,-0.5966796875,-0.810546875,-0.19287109375,-0.75,0.9375,1.25
2.0849999999999778,-1.0,-1.0,-2.0,0.0,3.0,6.0,3.0,-1.0,0.6702880859375,0.38232421875,-0.57977294921875,-0.26165771484375,-0.5966796875,-0.810546875,-0.197265625,0.0,0.625,0.3125
2.0899999999999777,-4.0,-3.0,-1.0,-1.0,-1.0,-2.0,-2.0,0.0,0.6702880859375,0.38232421875,-0.57977294921875,-0.26165771484375,-0.5966796875,-0.810546875,-0.197265625,0.0,0.625,0.3125
2.0949999999999775,-4.0,-3.0,-1.0,-1.0,-1.0,-2.0,-2.0,0.0,0.6702880859375,0.38232421875,-0.57977294921875,-0.26165771484375,-0.5966796875,-0.810546875,-0.197265625,0.0,0.625,0.3125
2.0999999999999774,-4.0,-3.0,-1.0,-1.0,-1.0,-2.0,-2.0,0.0,0.6702880859375,0.38232421875,-0.57977294921875,-0.26165771484375,-0.5966796875,-0.810546875,-0.197265625,0.0,0.625,0.3125
2.1049999999999773,-1.0,-2.0,-2.0,24.0,-6.0,-7.0,-5.0,-3.0,0.6702880859375,0.38232421875,-0.57977294921875,-0.26165771484375,-0.5908203125,-0.80810546875,-0.19189453125,-0.4375,0.5625,0.25
2.1099999999999772,1.0,0.0,-2.0,2.0,-1.0,-1.0,-2.0,-3.0,0.6702880859375,0.38232421875,-0.57977294921875,-0.26165771484375,-0.5908203125,-0.80810546875,-0.19189453125,-0.4375,0.5625,0.25
2.114999999999977,1.0,0.0,-2.0,2.0,-1.0,-1.0,-2.0,-3.0,0.6702880859375,0.38232421875,-0.57977294921875,-0.26165771484375,-0.5908203125,-0.80810546875,-0.19189453125,-0.4375,0.5625,0.25
2.119999999999977,1.0,0.0,-2.0,2.0,-1.0,-1.0,-2.0,-3.0,0.6702880859375,0.38232421875,-0.57977294921875,-0.26165771484375,-0.5908203125,-0.80810546875,-0.19189453125,-0.4375,0.5625,0.25
2.124999999999977,1.0,0.0,-2.0,2.0,-1.0,-1.0,-2.0,-3.0,0.6702880859375,0.38232421875,-0.57977294921875,-0.26165771484375,-0.5908203125,-0.80810546875,-0.19189453125,-0.4375,0.5625,0.25
2.129999999999977,-2.0,-1.0,3.0,-18.0,1.0,0.0,0.0,-1.0,0.6702880859375,0.38232421875,-0.57977294921875,-0.26165771484375,-0.5908203125,-0.80810546875,-0.19189453125,-0.4375,0.5625,0.25
2.1349999999999767,0.0,0.0,-1.0,20.0,0.0,1.0,2.0,1.0,0.6702880859375,0.38226318359375,-0.57977294921875,-0.26165771484375,-0.59326171875,-0.81103515625,-0.18994140625,-0.9375,0.875,0.3125
2.1399999999999766,0.0,0.0,-1.0,20.0,0.0,1.0,2.0,1.0,0.6702880859375,0.38226318359375,-0.57977294921875,-0.26165771484375,-0.59326171875,-0.81103515625,-0.18994140625,-0.9375,0.875,0.3125
2.1449999999999765,1.0,-2.0,-2.0,-7.0,0.0,0.0,1.0,0.0,0.6702880859375,0.38226318359375,-0.57977294921875,-0.26165771484375,-0.59326171875,-0.81103515625,-0.18994140625,-0.9375,0.875,0.3125
2.1499999999999764,1.0,-2.0,-2.0,-7.0,0.0,0.0,1.0,0.0,0.6702880859375,0.38226318359375,-0.57977294921875,-0.2615966796875,-0.59228515625,-0.80712890625,-0.18896484375,-0.1875,0.875,0.375
2.1549999999999763,-3.0,-3.0,-3.0,11.0,1.0,1.0,-1.0,-3.0,0.6702880859375,0.38226318359375,-0.57977294921875,-0.2615966796875,-0.59228515625,-0.80712890625,-0.18896484375,-0.1875,0.875,0.375
2.159999999999976,-3.0,-3.0,-3.0,11.0,1.0,1.0,-1.0,-3.0,0.6702880859375,0.38226318359375,-0.57977294921875,-0.2615966796875,-0.59228515625,-0.80712890625,-0.18896484375,-0.1875,0.875,0.375
2.164999999999976,-3.0,-3.0,-3.0,11.0,1.0,1.0,-1.0,-3.0,0.6702880859375,0.38226318359375,-0.57977294921875,-0.2615966796875,-0.59228515625,-0.80712890625,-0.18896484375,-0.1875,0.875,0.375
2.169999999999976,-3.0,-3.0,-3.0,11.0,1.0,1.0,-1.0,-3.0,0.6702880859375,0.38226318359375,-0.57977294921875,-0.2615966796875,-0.59228515625,-0.80712890625,-0.18896484375,-0.1875,0.875,0.375
2.174999999999976,-1.0,-1.0,-2.0,-10.0,-3.0,0.0,3.0,-1.0,0.67034912109375,0.3822021484375,-0.57977294921875,-0.2615966796875,-0.5927734375,-0.80908203125,-0.18115234375,-0.75,1.0625,0.125
2.1799999999999757,-1.0,-1.0,-2.0,-10.0,-3.0,0.0,3.0,-1.0,0.67034912109375,0.3822021484375,-0.57977294921875,-0.2615966796875,-0.5927734375,-0.80908203125,-0.18115234375,-0.75,1.0625,0.125
2.1849999999999756,-1.0,-1.0,-2.0,-10.0,-3.0,0.0,3.0,-1.0,0.67034912109375,0.3822021484375,-0.57977294921875,-0.2615966796875,-0.5927734375,-0.80908203125,-0.18115234375,-0.75,1.0625,0.125
2.1899999999999755,0.0,-1.0,0.0,0.0,-5.0,-5.0,0.0,0.0,0.67034912109375,0.3822021484375,-0.57977294921875,-0.2615966796875,-0.5927734375,-0.80908203125,-0.18115234375,-0.75,1.0625,0.125
2.1949999999999754,0.0,-1.0,0.0,0.0,-5.0,-5.0,0.0,0.0,0.67034912109375,0.3822021484375,-0.57977294921875,-0.2615966796875,-0.5927734375,-0.80908203125,-0.18115234375,-0.75,1.0625,0.125
2.1999999999999753,-2.0,-2.0,-1.0,-4.0,2.0,0.0,-4.0,0.0,0.6705322265625,0.3822021484375,-0.57952880859375,-0.2615966796875,-0.591796875,-0.814453125,-0.1923828125,-1.0625,1.4375,0.0625
2.204999999999975,-2.0,-2.0,-1.0,-4.0,2.0,0.0,-4.0,0.0,0.6705322265625,0.3822021484375,-0.57952880859375,-0.2615966796875,-0.591796875,-0.814453125,-0.1923828125,-1.0625,1.4375,0.0625
2.209999999999975,0.0,-2.0,-3.0,4.0,-4.0,-7.0,-2.0,-1.0,0.6705322265625,0.3822021484375,-0.57952880859375,-0.2615966796875,-0.591796875,-0.814453125,-0.1923828125,-1.0625,1.4375,0.0625
2.214999999999975,0.0,-2.0,-3.0,4.0,-4.0,-7.0,-2.0,-1.0,0.6705322265625,0.3822021484375,-0.57952880859375,-0.2615966796875,-0.591796875,-0.814453125,-0.1923828125,-1.0625,1.4375,0.0625
2.219999999999975,0.0,0.0,-2.0,-6.0,2.0,-3.0,-1.0,-1.0,0.67071533203125,0.3822021484375,-0.579345703125,-0.2615966796875,-0.59619140625,-0.81494140625,-0.19580078125,-0.875,1.5,0.0625
2.2249999999999748,0.0,0.0,-2.0,-6.0,2.0,-3.0,-1.0,-1.0,0.67071533203125,0.3822021484375,-0.579345703125,-0.2615966796875,-0.59619140625,-0.81494140625,-0.19580078125,-0.875,1.5,0.0625
2.2299999999999747,0.0,0.0,-2.0,-6.0,2.0,-3.0,-1.0,-1.0,0.67071533203125,0.3822021484375,-0.579345703125,-0.2615966796875,-0.59619140625,-0.81494140625,-0.19580078125,-0.875,1.5,0.0625
2.2349999999999746,0.0,0.0,3.0,-1.0,3.0,5.0,3.0,1.0,0.67083740234375,0.38214111328125,-0.57916259765625,-0.26165771484375,-0.5908203125,-0.81884765625,-0.19189453125,-0.75,1.4375,0.1875
2.2399999999999745,4.0,1.0,0.0,-15.0,2.0,8.0,0.0,1.0,0.67083740234375,0.38214111328125,-0.57916259765625,-0.26165771484375,-0.5908203125,-0.81884765625,-0.19189453125,-0.75,1.4375,0.1875
2.2449999999999743,-3.0,-2.0,-8.0,5.0,-8.0,-4.0,-3.0,-2.0,0.67083740234375,0.38214111328125,-0.57916259765625,-0.26165771484375,-0.5908203125,-0.81884765625,-0.19189453125,-0.75,1.4375,0.1875
2.2499999999999742,-3.0,-2.0,-8.0,5.0,-8.0,-4.0,-3.0,-2.0,0.67083740234375,0.38214111328125,-0.57916259765625,-0.26165771484375,-0.5908203125,-0.81884765625,-0.19189453125,-0.75,1.4375,0.1875
2.254999999999974,-3.0,-2.0,-8.0,5.0,-8.0,-4.0,-3.0,-2.0,0.67083740234375,0.38214111328125,-0.57916259765625,-0.26165771484375,-0.5908203125,-0.81884765625,-0.19189453125,-0.75,1.4375,0.1875
2.259999999999974,-2.0,-2.0,-2.0,-10.0,-4.0,-7.0,-6.0,-3.0,0.67083740234375,0.38214111328125,-0.57916259765625,-0.26165771484375,-0.5908203125,-0.81884765625,-0.19189453125,-0.75,1.4375,0.1875
2.264999999999974,-1.0,-4.0,-2.0,10.0,1.0,-3.0,0.0,0.0,0.67083740234375,0.38214111328125,-0.57916259765625,-0.26165771484375,-0.58935546875,-0.8173828125,-0.19384765625,-0.9375,0.8125,-0.125
2.269999999999974,0.0,0.0,-2.0,-37.0,-3.0,-1.0,2.0,0.0,0.67083740234375,0.38214111328125,-0.57916259765625,-0.26165771484375,-0.58935546875,-0.8173828125,-0.19384765625,-0.9375,0.8125,-0.125
2.2749999999999737,-2.0,-1.0,3.0,-7.0,-2.0,-3.0,-4.0,-3.0,0.67083740234375,0.38214111328125,-0.57916259765625,-0.26165771484375,-0.58935546875,-0.8173828125,-0.19384765625,-0.9375,0.8125,-0.125
2.2799999999999736,1.0,1.0,0.0,8.0,-4.0,0.0,3.0,1.0,0.67083740234375,0.38214111328125,-0.5792236328125,-0.26165771484375,-0.58984375,-0.81591796875,-0.1865234375,0.375,0.8125,0.125
2.2849999999999735,-6.0,-1.0,-1.0,19.0,1.0,-3.0,-3.0,-1.0,0.67083740234375,0.38214111328125,-0.5792236328125,-0.26165771484375,-0.58984375,-0.81591796875,-0.1865234375,0.375,0.8125,0.125
2.2899999999999734,-6.0,-1.0,-1.0,19.0,1.0,-3.0,-3.0,-1.0,0.67083740234375,0.38214111328125,-0.5792236328125,-0.26165771484375,-0.58984375,-0.81591796875,-0.1865234375,0.375,0.8125,0.125
2.2949999999999733,-4.0,0.0,-3.0,-7.0,2.0,6.0,10.0,1.0,0.67083740234375,0.38214111328125,-0.5792236328125,-0.26165771484375,-0.58984375,-0.81591796875,-0.1865234375,0.375,0.8125,0.125
2.299999999999973,-4.0,0.0,-3.0,-7.0,2.0,6.0,10.0,1.0,0.67108154296875,0.38201904296875,-0.57904052734375,-0.2615966796875,-0.59716796875,-0.81005859375,-0.19970703125,-0.1875,1.375,0.5625
2.304999999999973,-1.0,-2.0,-1.0,-1.0,1.0,-4.0,-1.0,-2.0,0.67108154296875,0.38201904296875,-0.57904052734375,-0.2615966796875,-0.59716796875,-0.81005859375,-0.19970703125,-0.1875,1.375,0.5625
2.309999999999973,0.0,0.0,1.0,-9.0,-1.0,6.0,-2.0,-2.0,0.67108154296875,0.38201904296875,-0.57904052734375,-0.2615966796875,-0.59716796875,-0.81005859375,-0.19970703125,-0.1875,1.375,0.5625
2.314999999999973,0.0,0.0,1.0,-9.0,-1.0,6.0,-2.0,-2.0,0.67108154296875,0.38201904296875,-0.57904052734375,-0.2615966796875,-0.59716796875,-0.81005859375,-0.19970703125,-0.1875,1.375,0.5625
2.3199999999999728,0.0,0.0,1.0,-9.0,-1.0,6.0,-2.0,-2.0,0.67108154296875,0.38201904296875,-0.57904052734375,-0.2615966796875,-0.59716796875,-0.81005859375,-0.19970703125,-0.1875,1.375,0.5625
2.3249999999999726,-3.0,-1.0,3.0,4.0,-1.0,-7.0,-1.0,-1.0,0.67108154296875,0.38201904296875,-0.57904052734375,-0.2615966796875,-0.59716796875,-0.81005859375,-0.19970703125,-0.1875,1.375,0.5625
2.3299999999999725,0.0,-3.0,1.0,12.0,-1.0,13.0,8.0,-2.0,0.67120361328125,0.38189697265625,-0.5789794921875,-0.2615966796875,-0.59423828125,-0.81103515625,-0.1884765625,-0.5,1.1875,0.5
2.3349999999999724,2.0,0.0,-2.0,7.0,3.0,13.0,1.0,0.0,0.67120361328125,0.38189697265625,-0.5789794921875,-0.2615966796875,-0.59423828125,-0.81103515625,-0.1884765625,-0.5,1.1875,0.5
2.3399999999999723,2.0,0.0,-2.0,7.0,3.0,13.0,1.0,0.0,0.67120361328125,0.38189697265625,-0.5789794921875,-0.2615966796875,-0.59423828125,-0.81103515625,-0.1884765625,-0.5,1.1875,0.5
2.344999999999972,-2.0,-1.0,-1.0,-3.0,-4.0,-9.0,-10.0,-3.0,0.67138671875,0.38177490234375,-0.57891845703125,-0.261474609375,-0.59619140625,-0.8125,-0.19384765625,-0.625,1.1875,0.8125
2.349999999999972,-2.0,-1.0,-1.0,-3.0,-4.0,-9.0,-10.0,-3.0,0.67138671875,0.38177490234375,-0.57891845703125,-0.261474609375,-0.59619140625,-0.8125,-0.19384765625,-0.625,1.1875,0.8125
2.354999999999972,-2.0,-1.0,-1.0,-3.0,-4.0,-9.0,-10.0,-3.0,0.67138671875,0.38177490234375,-0.57891845703125,-0.261474609375,-0.59619140625,-0.8125,-0.19384765625,-0.625,1.1875,0.8125
2.359999999999972,-2.0,-1.0,-1.0,-3.0,-4.0,-9.0,-10.0,-3.0,0.67138671875,0.38177490234375,-0.57891845703125,-0.261474609375,-0.59619140625,-0.8125,-0.19384765625,-0.625,1.1875,0.8125
2.364999999999972,-2.0,-4.0,-4.0,7.0,-5.0,-24.0,-8.0,-2.0,0.67156982421875,0.38153076171875,-0.578857421875,-0.2613525390625,-0.59765625,-0.8134765625,-0.1923828125,-0.5,1.125,1.3125
2.3699999999999717,1.0,0.0,3.0,5.0,3.0,1.0,7.0,2.0,0.67156982421875,0.38153076171875,-0.578857421875,-0.2613525390625,-0.59765625,-0.8134765625,-0.1923828125,-0.5,1.125,1.3125
2.3749999999999716,1.0,0.0,3.0,5.0,3.0,1.0,7.0,2.0,0.67156982421875,0.38153076171875,-0.578857421875,-0.2613525390625,-0.59765625,-0.8134765625,-0.1923828125,-0.5,1.125,1.3125
2.3799999999999715,1.0,0.0,3.0,5.0,3.0,1.0,7.0,2.0,0.67156982421875,0.38153076171875,-0.578857421875,-0.2613525390625,-0.59765625,-0.8134765625,-0.1923828125,-0.5,1.125,1.3125
2.3849999999999714,1.0,0.0,3.0,5.0,3.0,1.0,7.0,2.0,0.67156982421875,0.38153076171875,-0.578857421875,-0.2613525390625,-0.59765625,-0.8134765625,-0.1923828125,-0.5,1.125,1.3125
2.3899999999999713,-6.0,-3.0,-9.0,2.0,-9.0,-7.0,-7.0,-2.0,0.67156982421875,0.38153076171875,-0.578857421875,-0.2613525390625,-0.59765625,-0.8134765625,-0.1923828125,-0.5,1.125,1.3125
2.394999999999971,-2.0,-3.0,-2.0,8.0,3.0,-6.0,0.0,-1.0,0.67181396484375,0.38128662109375,-0.57879638671875,-0.26129150390625,-0.59375,-0.81005859375,-0.193359375,-0.375,1.375,1.4375
2.399999999999971,-2.0,-3.0,-2.0,8.0,3.0,-6.0,0.0,-1.0,0.67181396484375,0.38128662109375,-0.57879638671875,-0.26129150390625,-0.59375,-0.81005859375,-0.193359375,-0.375,1.375,1.4375
2.404999999999971,-2.0,-3.0,-2.0,8.0,3.0,-6.0,0.0,-1.0,0.67181396484375,0.38128662109375,-0.57879638671875,-0.26129150390625,-0.59375,-0.81005859375,-0.193359375,-0.375,1.375,1.4375
2.409999999999971,-1.0,-1.0,1.0,-32.0,-5.0,-4.0,-2.0,0.0,0.67181396484375,0.38128662109375,-0.57879638671875,-0.26129150390625,-0.59375,-0.81005859375,-0.193359375,-0.375,1.375,1.4375
2.4149999999999707,-1.0,-1.0,1.0,-32.0,-5.0,-4.0,-2.0,0.0,0.67181396484375,0.38128662109375,-0.57879638671875,-0.26129150390625,-0.59375,-0.81005859375,-0.193359375,-0.375,1.375,1.4375
2.4199999999999706,0.0,0.0,1.0,10.0,-2.0,5.0,-1.0,0.0,0.672119140625,0.3812255859375,-0.57861328125,-0.260986328125,-0.5966796875,-0.80322265625,-0.19775390625,-1.6875,1.5,1.1875
2.4249999999999705,0.0,0.0,1.0,10.0,-2.0,5.0,-1.0,0.0,0.672119140625,0.3812255859375,-0.57861328125,-0.260986328125,-0.5966796875,-0.80322265625,-0.19775390625,-1.6875,1.5,1.1875
2.4299999999999704,0.0,0.0,1.0,10.0,-2.0,5.0,-1.0,0.0,0.672119140625,0.3812255859375,-0.57861328125,-0.260986328125,-0.5966796875,-0.80322265625,-0.19775390625,-1.6875,1.5,1.1875
2.4349999999999703,0.0,0.0,1.0,10.0,-2.0,5.0,-1.0,0.0,0.672119140625,0.3812255859375,-0.57861328125,-0.260986328125,-0.5966796875,-0.80322265625,-0.19775390625,-1.6875,1.5,1.1875
2.43999999999997,0.0,-2.0,-2.0,8.0,0.0,-1.0,-2.0,-2.0,0.672119140625,0.3812255859375,-0.57861328125,-0.260986328125,-0.5966796875,-0.80322265625,-0.19775390625,-1.6875,1.5,1.1875
2.44499999999997,0.0,-2.0,-2.0,8.0,0.0,-1.0,-2.0,-2.0,0.67230224609375,0.38104248046875,-0.57855224609375,-0.2608642578125,-0.59521484375,-0.814453125,-0.18505859375,-1.25,1.1875,1.4375
2.44999999999997,0.0,-1.0,0.0,-4.0,-2.0,-4.0,-2.0,-2.0,0.67230224609375,0.38104248046875,-0.57855224609375,-0.2608642578125,-0.59521484375,-0.814453125,-0.18505859375,-1.25,1.1875,1.4375
2.45499999999997,0.0,-1.0,0.0,-4.0,-2.0,-4.0,-2.0,-2.0,0.67230224609375,0.38104248046875,-0.57855224609375,-0.2608642578125,-0.59521484375,-0.814453125,-0.18505859375,-1.25,1.1875,1.4375
2.4599999999999698,0.0,-1.0,0.0,-4.0,-2.0,-4.0,-2.0,-2.0,0.67230224609375,0.38104248046875,-0.57855224609375,-0.2608642578125,-0.59521484375,-0.814453125,-0.18505859375,-1.25,1.1875,1.4375
2.4649999999999697,0.0,-1.0,0.0,-4.0,-2.0,-4.0,-2.0,-2.0,0.67230224609375,0.38104248046875,-0.57855224609375,-0.2608642578125,-0.59521484375,-0.814453125,-0.18505859375,-1.25,1.1875,1.4375
2.4699999999999696,0.0,-1.0,0.0,-4.0,-2.0,-4.0,-2.0,-2.0,0.67230224609375,0.38104248046875,-0.57855224609375,-0.2608642578125,-0.59521484375,-0.814453125,-0.18505859375,-1.25,1.1875,1.4375
2.4749999999999694,0.0,-1.0,0.0,-4.0,-2.0,-4.0,-2.0,-2.0,0.67230224609375,0.38104248046875,-0.57855224609375,-0.2608642578125,-0.59521484375,-0.814453125,-0.18505859375,-1.25,1.1875,1.4375
2.4799999999999693,0.0,-1.0,0.0,-4.0,-2.0,-4.0,-2.0,-2.0,0.67230224609375,0.38104248046875,-0.57855224609375,-0.2608642578125,-0.59521484375,-0.814453125,-0.18505859375,-1.25,1.1875,1.4375
2.4849999999999692,1.0,0.0,2.0,0.0,0.0,31.0,6.0,1.0,0.67230224609375,0.38104248046875,-0.57861328125,-0.2608642578125,-0.59765625,-0.81396484375,-0.19091796875,-0.5625,0.875,0.8125
2.489999999999969,-6.0,-1.0,-1.0,22.0,-3.0,-2.0,0.0,0.0,0.67230224609375,0.38104248046875,-0.57861328125,-0.2608642578125,-0.59765625,-0.81396484375,-0.19091796875,-0.5625,0.875,0.8125
2.494999999999969,-6.0,-1.0,-1.0,22.0,-3.0,-2.0,0.0,0.0,0.67230224609375,0.38104248046875,-0.57861328125,-0.2608642578125,-0.59765625,-0.81396484375,-0.19091796875,-0.5625,0.875,0.8125
2.499999999999969,-3.0,-1.0,-4.0,7.0,0.0,-1.0,-5.0,-2.0,0.67230224609375,0.38104248046875,-0.57861328125,-0.2608642578125,-0.59228515625,-0.81005859375,-0.193359375,-0.0625,0.875,0.1875
2.504999999999969,-3.0,-1.0,-4.0,7.0,0.0,-1.0,-5.0,-2.0,0.67230224609375,0.38104248046875,-0.57861328125,-0.2608642578125,-0.59228515625,-0.81005859375,-0.193359375,-0.0625,0.875,0.1875
2.5099999999999687,-3.0,-1.0,-4.0,7.0,0.0,-1.0,-5.0,-2.0,0.67230224609375,0.38104248046875,-0.57861328125,-0.2608642578125,-0.59228515625,-0.81005859375,-0.193359375,-0.0625,0.875,0.1875
2.5149999999999686,-3.0,-1.0,-4.0,7.0,0.0,-1.0,-5.0,-2.0,0.67230224609375,0.38104248046875,-0.57861328125,-0.2608642578125,-0.59228515625,-0.81005859375,-0.193359375,-0.0625,0.875,0.1875
2.5199999999999685,3.0,0.0,5.0,-3.0,5.0,5.0,3.0,1.0,0.67242431640625,0.38104248046875,-0.5784912109375,-0.2608642578125,-0.595703125,-0.80810546875,-0.19482421875,-0.8125,1.0,-0.375
2.5249999999999684,3.0,0.0,5.0,-3.0,5.0,5.0,3.0,1.0,0.67242431640625,0.38104248046875,-0.5784912109375,-0.2608642578125,-0.595703125,-0.80810546875,-0.19482421875,-0.8125,1.0,-0.375
2.5299999999999683,-1.0,-2.0,0.0,-12.0,-1.0,-8.0,3.0,1.0,0.67242431640625,0.38104248046875,-0.5784912109375,-0.2608642578125,-0.595703125,-0.80810546875,-0.19482421875,-0.8125,1.0,-0.375
2.534999999999968,-1.0,-2.0,0.0,-12.0,-1.0,-8.0,3.0,1.0,0.67242431640625,0.38104248046875,-0.5784912109375,-0.2608642578125,-0.595703125,-0.80810546875,-0.19482421875,-0.8125,1.0,-0.375
2.539999999999968,-1.0,-2.0,0.0,-12.0,-1.0,-8.0,3.0,1.0,0.67242431640625,0.38104248046875,-0.5784912109375,-0.2608642578125,-0.595703125,-0.80810546875,-0.19482421875,-0.8125,1.0,-0.375
2.544999999999968,-1.0,-2.0,0.0,-12.0,-1.0,-8.0,3.0,1.0,0.67242431640625,0.38104248046875,-0.5784912109375,-0.2608642578125,-0.595703125,-0.80810546875,-0.19482421875,-0.8125,1.0,-0.375
2.549999999999968,0.0,-2.0,0.0,3.0,2.0,4.0,2.0,-2.0,0.6724853515625,0.381103515625,-0.57830810546875,-0.26080322265625,-0.59912109375,-0.80859375,-0.1982421875,-1.1875,0.8125,-0.5625
2.5549999999999677,0.0,-2.0,0.0,3.0,2.0,4.0,2.0,-2.0,0.6724853515625,0.381103515625,-0.57830810546875,-0.26080322265625,-0.59912109375,-0.80859375,-0.1982421875,-1.1875,0.8125,-0.5625
2.5599999999999676,-1.0,0.0,-4.0,-3.0,0.0,-6.0,-7.0,-2.0,0.6724853515625,0.381103515625,-0.57830810546875,-0.26080322265625,-0.59912109375,-0.80859375,-0.1982421875,-1.1875,0.8125,-0.5625
2.5649999999999675,-1.0,0.0,1.0,-4.0,-4.0,-25.0,-2.0,-1.0,0.6724853515625,0.381103515625,-0.57830810546875,-0.26080322265625,-0.59912109375,-0.80859375,-0.1982421875,-1.1875,0.8125,-0.5625
2.5699999999999674,-1.0,0.0,1.0,-4.0,-4.0,-25.0,-2.0,-1.0,0.6724853515625,0.381103515625,-0.57830810546875,-0.26080322265625,-0.59912109375,-0.80859375,-0.1982421875,-1.1875,0.8125,-0.5625
2.5749999999999673,-1.0,0.0,1.0,-4.0,-4.0,-25.0,-2.0,-1.0,0.6724853515625,0.381103515625,-0.57830810546875,-0.26080322265625,-0.59912109375,-0.80859375,-0.1982421875,-1.1875,0.8125,-0.5625
2.579999999999967,0.0,-2.0,-1.0,-10.0,-1.0,-8.0,-2.0,-1.0,0.6724853515625,0.381103515625,-0.57830810546875,-0.26080322265625,-0.59228515625,-0.8076171875,-0.1962890625,-0.8125,0.4375,-0.625
2.584999999999967,0.0,-2.0,-1.0,-10.0,-1.0,-8.0,-2.0,-1.0,0.6724853515625,0.381103515625,-0.57830810546875,-0.26080322265625,-0.59228515625,-0.8076171875,-0.1962890625,-0.8125,0.4375,-0.625
2.589999999999967,0.0,-2.0,-1.0,-10.0,-1.0,-8.0,-2.0,-1.0,0.6724853515625,0.381103515625,-0.57830810546875,-0.26080322265625,-0.59228515625,-0.8076171875,-0.1962890625,-0.8125,0.4375,-0.625
2.594999999999967,1.0,-1.0,-5.0,-4.0,-2.0,-3.0,-6.0,-1.0,0.6724853515625,0.381103515625,-0.57830810546875,-0.26080322265625,-0.59228515625,-0.8076171875,-0.1962890625,-0.8125,0.4375,-0.625
2.599999999999967,1.0,-1.0,-5.0,-4.0,-2.0,-3.0,-6.0,-1.0,0.6724853515625,0.381103515625,-0.57830810546875,-0.26080322265625,-0.59716796875,-0.8115234375,-0.20068359375,-0.875,-0.0625,-0.125
2.6049999999999667,0.0,-2.0,-1.0,12.0,-6.0,-12.0,-8.0,-4.0,0.6724853515625,0.381103515625,-0.57830810546875,-0.26080322265625,-0.59716796875,-0.8115234375,-0.20068359375,-0.875,-0.0625,-0.125
2.6099999999999666,0.0,-2.0,-1.0,12.0,-6.0,-12.0,-8.0,-4.0,0.6724853515625,0.381103515625,-0.57830810546875,-0.26080322265625,-0.59716796875,-0.8115234375,-0.20068359375,-0.875,-0.0625,-0.125
2.6149999999999665,0.0,-2.0,-1.0,12.0,-6.0,-12.0,-8.0,-4.0,0.6724853515625,0.381103515625,-0.57830810546875,-0.26080322265625,-0.59716796875,-0.8115234375,-0.20068359375,-0.875,-0.0625,-0.125
2.6199999999999664,0.0,-2.0,-1.0,12.0,-6.0,-12.0,-8.0,-4.0,0.6724853515625,0.381103515625,-0.57830810546875,-0.26080322265625,-0.59716796875,-0.8115234375,-0.20068359375,-0.875,-0.0625,-0.125
2.6249999999999662,0.0,-2.0,-1.0,12.0,-6.0,-12.0,-8.0,-4.0,0.6724853515625,0.381103515625,-0.57830810546875,-0.26080322265625,-0.59716796875,-0.8115234375,-0.20068359375,-0.875,-0.0625,-0.125
2.629999999999966,0.0,-1.0,0.0,-9.0,0.0,10.0,5.0,0.0,0.67254638671875,0.381103515625,-0.57830810546875,-0.2607421875,-0.59912109375,-0.81005859375,-0.20654296875,-0.5625,0.0625,0.3125
2.634999999999966,-2.0,-2.0,-4.0,5.0,-3.0,-13.0,2.0,-1.0,0.67254638671875,0.381103515625,-0.57830810546875,-0.2607421875,-0.59912109375,-0.81005859375,-0.20654296875,-0.5625,0.0625,0.3125
2.639999999999966,-2.0,-2.0,-4.0,5.0,-3.0,-13.0,2.0,-1.0,0.67254638671875,0.381103515625,-0.57830810546875,-0.2607421875,-0.59912109375,-0.81005859375,-0.20654296875,-0.5625,0.0625,0.3125
2.644999999999966,-2.0,-2.0,-4.0,5.0,-3.0,-13.0,2.0,-1.0,0.67254638671875,0.381103515625,-0.57830810546875,-0.2607421875,-0.59912109375,-0.81005859375,-0.20654296875,-0.5625,0.0625,0.3125
2.6499999999999657,0.0,-1.0,-2.0,4.0,1.0,6.0,2.0,-1.0,0.67254638671875,0.381103515625,-0.57830810546875,-0.2607421875,-0.59912109375,-0.81005859375,-0.20654296875,-0.5625,0.0625,0.3125
2.6549999999999656,0.0,-1.0,-2.0,4.0,1.0,6.0,2.0,-1.0,0.67254638671875,0.381103515625,-0.57830810546875,-0.2607421875,-0.59912109375,-0.81005859375,-0.20654296875,-0.5625,0.0625,0.3125
2.6599999999999655,-1.0,-1.0,-1.0,0.0,0.0,-9.0,-5.0,-3.0,0.6724853515625,0.381103515625,-0.57830810546875,-0.2607421875,-0.59326171875,-0.80810546875,-0.19287109375,-0.5,-0.25,0.75
2.6649999999999654,-1.0,-1.0,-1.0,0.0,0.0,-9.0,-5.0,-3.0,0.6724853515625,0.381103515625,-0.57830810546875,-0.2607421875,-0.59326171875,-0.80810546875,-0.19287109375,-0.5,-0.25,0.75
2.6699999999999653,-3.0,-2.0,0.0,-4.0,2.0,2.0,4.0,0.0,0.67254638671875,0.381103515625,-0.57830810546875,-0.2607421875,-0.5986328125,-0.810546875,-0.20556640625,-0.6875,0.1875,0.8125
2.674999999999965,2.0,0.0,-2.0,-3.0,-2.0,4.0,-4.0,-2.0,0.67254638671875,0.381103515625,-0.57830810546875,-0.2607421875,-0.5986328125,-0.810546875,-0.20556640625,-0.6875,0.1875,0.8125
2.679999999999965,2.0,0.0,-2.0,-3.0,-2.0,4.0,-4.0,-2.0,0.67254638671875,0.381103515625,-0.57830810546875,-0.2607421875,-0.5986328125,-0.810546875,-0.20556640625,-0.6875,0.1875,0.8125
2.684999999999965,2.0,0.0,-2.0,-3.0,-2.0,4.0,-4.0,-2.0,0.67254638671875,0.381103515625,-0.57830810546875,-0.2607421875,-0.5986328125,-0.810546875,-0.20556640625,-0.6875,0.1875,0.8125
2.689999999999965,-1.0,-1.0,-2.0,2.0,-2.0,14.0,1.0,1.0,0.67254638671875,0.38104248046875,-0.578369140625,-0.2606201171875,-0.5888671875,-0.81103515625,-0.193359375,-0.75,0.0,1.0625
2.6949999999999648,-1.0,-1.0,-2.0,2.0,-2.0,14.0,1.0,1.0,0.67254638671875,0.38104248046875,-0.578369140625,-0.2606201171875,-0.5888671875,-0.81103515625,-0.193359375,-0.75,0.0,1.0625
2.6999999999999647,-1.0,-1.0,-2.0,2.0,-2.0,14.0,1.0,1.0,0.67254638671875,0.38104248046875,-0.578369140625,-0.2606201171875,-0.5888671875,-0.81103515625,-0.193359375,-0.75,0.0,1.0625
2.7049999999999645,1.0,0.0,1.0,4.0,-1.0,-9.0,-5.0,-3.0,0.67254638671875,0.38104248046875,-0.578369140625,-0.2606201171875,-0.5888671875,-0.81103515625,-0.193359375,-0.75,0.0,1.0625
2.7099999999999644,1.0,0.0,1.0,4.0,-1.0,-9.0,-5.0,-3.0,0.67254638671875,0.38104248046875,-0.578369140625,-0.2606201171875,-0.5888671875,-0.81103515625,-0.193359375,-0.75,0.0,1.0625
2.7149999999999643,1.0,0.0,1.0,4.0,-1.0,-9.0,-5.0,-3.0,0.67254638671875,0.38104248046875,-0.578369140625,-0.2606201171875,-0.59033203125,-0.814453125,-0.1953125,-0.125,0.375,0.75
2.7199999999999642,1.0,0.0,1.0,4.0,-1.0,-9.0,-5.0,-3.0,0.67254638671875,0.38104248046875,-0.578369140625,-0.2606201171875,-0.59033203125,-0.814453125,-0.1953125,-0.125,0.375,0.75
2.724999999999964,5.0,-4.0,-5.0,-23.0,-2.0,-3.0,-2.0,-2.0,0.67254638671875,0.38104248046875,-0.578369140625,-0.2606201171875,-0.59033203125,-0.814453125,-0.1953125,-0.125,0.375,0.75
2.729999999999964,5.0,-4.0,-5.0,-23.0,-2.0,-3.0,-2.0,-2.0,0.67254638671875,0.38104248046875,-0.578369140625,-0.2606201171875,-0.59033203125,-0.814453125,-0.1953125,-0.125,0.375,0.75
2.734999999999964,0.0,0.0,1.0,-12.0,-5.0,8.0,2.0,0.0,0.67254638671875,0.38104248046875,-0.578369140625,-0.2606201171875,-0.59228515625,-0.8134765625,-0.19482421875,-0.125,0.25,0.6875
2.739999999999964,-1.0,1.0,2.0,-2.0,1.0,12.0,5.0,1.0,0.67254638671875,0.38104248046875,-0.578369140625,-0.2606201171875,-0.59228515625,-0.8134765625,-0.19482421875,-0.125,0.25,0.6875
2.7449999999999637,-1.0,1.0,2.0,-2.0,1.0,12.0,5.0,1.0,0.67254638671875,0.38104248046875,-0.578369140625,-0.2606201171875,-0.59228515625,-0.8134765625,-0.19482421875,-0.125,0.25,0.6875
2.7499999999999636,-1.0,1.0,2.0,-2.0,1.0,12.0,5.0,1.0,0.67254638671875,0.38104248046875,-0.578369140625,-0.2606201171875,-0.59228515625,-0.8134765625,-0.19482421875,-0.125,0.25,0.6875
2.7549999999999635,-1.0,-1.0,-2.0,-2.0,-3.0,-14.0,-8.0,-3.0,0.67254638671875,0.38104248046875,-0.578369140625,-0.2606201171875,-0.591796875,-0.8095703125,-0.20166015625,-1.0,-0.0625,0.1875
2.7599999999999634,-1.0,-1.0,-2.0,-2.0,-3.0,-14.0,-8.0,-3.0,0.67254638671875,0.38104248046875,-0.578369140625,-0.2606201171875,-0.591796875,-0.8095703125,-0.20166015625,-1.0,-0.0625,0.1875
2.7649999999999633,-3.0,0.0,1.0,-1.0,0.0,-12.0,1.0,-1.0,0.67254638671875,0.38104248046875,-0.578369140625,-0.2606201171875,-0.591796875,-0.8095703125,-0.20166015625,-1.0,-0.0625,0.1875
2.769999999999963,-3.0,0.0,1.0,-1.0,0.0,-12.0,1.0,-1.0,0.67254638671875,0.38104248046875,-0.578369140625,-0.2606201171875,-0.591796875,-0.8095703125,-0.20166015625,-1.0,-0.0625,0.1875
2.774999999999963,-3.0,0.0,1.0,-1.0,0.0,-12.0,1.0,-1.0,0.67254638671875,0.38104248046875,-0.578369140625,-0.2606201171875,-0.591796875,-0.8095703125,-0.20166015625,-1.0,-0.0625,0.1875
2.779999999999963,-3.0,-2.0,-1.0,-4.0,3.0,3.0,0.0,-1.0,0.67254638671875,0.38104248046875,-0.578369140625,-0.2606201171875,-0.591796875,-0.8095703125,-0.20166015625,-1.0,-0.0625,0.1875
2.784999999999963,0.0,0.0,-3.0,8.0,-3.0,-21.0,-12.0,-2.0,0.672607421875,0.38104248046875,-0.57843017578125,-0.26043701171875,-0.60107421875,-0.80859375,-0.19287109375,-1.125,-0.0625,0.5625
2.7899999999999627,0.0,0.0,-3.0,8.0,-3.0,-21.0,-12.0,-2.0,0.672607421875,0.38104248046875,-0.57843017578125,-0.26043701171875,-0.60107421875,-0.80859375,-0.19287109375,-1.125,-0.0625,0.5625
2.7949999999999626,-1.0,0.0,0.0,16.0,-3.0,-9.0,-1.0,-3.0,0.672607421875,0.38104248046875,-0.57843017578125,-0.26043701171875,-0.60107421875,-0.80859375,-0.19287109375,-1.125,-0.0625,0.5625
2.7999999999999625,-1.0,-2.0,-2.0,-48.0,-7.0,6.0,1.0,3.0,0.672607421875,0.3809814453125,-0.57843017578125,-0.26043701171875,-0.6005859375,-0.8076171875,-0.193359375,-0.3125,-0.3125,0.1875
2.8049999999999624,-3.0,-1.0,1.0,2.0,-3.0,11.0,4.0,0.0,0.672607421875,0.3809814453125,-0.57843017578125,-0.26043701171875,-0.6005859375,-0.8076171875,-0.193359375,-0.3125,-0.3125,0.1875
2.8099999999999623,-3.0,-1.0,1.0,2.0,-3.0,11.0,4.0,0.0,0.672607421875,0.3809814453125,-0.57843017578125,-0.26043701171875,-0.6005859375,-0.8076171875,-0.193359375,-0.3125,-0.3125,0.1875
2.814999999999962,-3.0,-1.0,1.0,2.0,-3.0,11.0,4.0,0.0,0.672607421875,0.3809814453125,-0.57843017578125,-0.26043701171875,-0.6005859375,-0.8076171875,-0.193359375,-0.3125,-0.3125,0.1875
2.819999999999962,-3.0,-1.0,1.0,2.0,-3.0,11.0,4.0,0.0,0.672607421875,0.3809814453125,-0.57843017578125,-0.26043701171875,-0.6005859375,-0.8076171875,-0.193359375,-0.3125,-0.3125,0.1875
2.824999999999962,-1.0,-1.0,0.0,12.0,2.0,-8.0,-11.0,-4.0,0.672607421875,0.3809814453125,-0.5784912109375,-0.26043701171875,-0.6015625,-0.8115234375,-0.1953125,-0.8125,0.1875,-0.125
2.829999999999962,-5.0,1.0,1.0,-8.0,0.0,14.0,2.0,3.0,0.672607421875,0.3809814453125,-0.5784912109375,-0.26043701171875,-0.6015625,-0.8115234375,-0.1953125,-0.8125,0.1875,-0.125
2.8349999999999618,-5.0,1.0,1.0,-8.0,0.0,14.0,2.0,3.0,0.672607421875,0.3809814453125,-0.5784912109375,-0.26043701171875,-0.6015625,-0.8115234375,-0.1953125,-0.8125,0.1875,-0.125
2.8399999999999617,-5.0,1.0,1.0,-8.0,0.0,14.0,2.0,3.0,0.672607421875,0.3809814453125,-0.5784912109375,-0.26043701171875,-0.6015625,-0.8115234375,-0.1953125,-0.8125,0.1875,-0.125
2.8449999999999616,3.0,-3.0,-3.0,2.0,-1.0,-7.0,0.0,0.0,0.672607421875,0.3809814453125,-0.5784912109375,-0.26043701171875,-0.6015625,-0.8115234375,-0.1953125,-0.8125,0.1875,-0.125
2.8499999999999615,0.0,0.0,-1.0,8.0,-2.0,-4.0,-5.0,-3.0,0.672607421875,0.3809814453125,-0.5784912109375,-0.2603759765625,-0.591796875,-0.80810546875,-0.20654296875,-0.5,-0.3125,0.375
2.8549999999999613,0.0,0.0,-1.0,8.0,-2.0,-4.0,-5.0,-3.0,0.672607421875,0.3809814453125,-0.5784912109375,-0.2603759765625,-0.591796875,-0.80810546875,-0.20654296875,-0.5,-0.3125,0.375
2.8599999999999612,0.0,0.0,-1.0,8.0,-2.0,-4.0,-5.0,-3.0,0.672607421875,0.3809814453125,-0.5784912109375,-0.2603759765625,-0.591796875,-0.80810546875,-0.20654296875,-0.5,-0.3125,0.375
2.864999999999961,0.0,0.0,-1.0,8.0,-2.0,-4.0,-5.0,-3.0,0.672607421875,0.3809814453125,-0.5784912109375,-0.2603759765625,-0.591796875,-0.80810546875,-0.20654296875,-0.5,-0.3125,0.375
2.869999999999961,0.0,-1.0,0.0,-1.0,-2.0,-5.0,-4.0,-1.0,0.672607421875,0.3809814453125,-0.5784912109375,-0.2603759765625,-0.59423828125,-0.8046875,-0.20068359375,-0.4375,-0.4375,0.8125
2.874999999999961,-1.0,-2.0,-3.0,1.0,0.0,-4.0,4.0,-1.0,0.672607421875,0.3809814453125,-0.5784912109375,-0.2603759765625,-0.59423828125,-0.8046875,-0.20068359375,-0.4375,-0.4375,0.8125
2.879999999999961,-1.0,-2.0,-3.0,1.0,0.0,-4.0,4.0,-1.0,0.672607421875,0.3809814453125,-0.5784912109375,-0.2603759765625,-0.59423828125,-0.8046875,-0.20068359375,-0.4375,-0.4375,0.8125
2.8849999999999607,-1.0,-2.0,-3.0,1.0,0.0,-4.0,4.0,-1.0,0.672607421875,0.3809814453125,-0.5784912109375,-0.2603759765625,-0.59423828125,-0.8046875,-0.20068359375,-0.4375,-0.4375,0.8125
2.8899999999999606,1.0,-2.0,-4.0,3.0,-7.0,-7.0,-1.0,-3.0,0.672607421875,0.3809814453125,-0.5784912109375,-0.2603759765625,-0.59912109375,-0.80224609375,-0.19677734375,-0.25,-0.5,0.75
2.8949999999999605,1.0,-2.0,-4.0,3.0,-7.0,-7.0,-1.0,-3.0,0.672607421875,0.3809814453125,-0.5784912109375,-0.2603759765625,-0.59912109375,-0.80224609375,-0.19677734375,-0.25,-0.5,0.75
2.8999999999999604,0.0,-1.0,-2.0,3.0,0.0,8.0,-2.0,-1.0,0.672607421875,0.3809814453125,-0.5784912109375,-0.2603759765625,-0.59912109375,-0.80224609375,-0.19677734375,-0.25,-0.5,0.75
2.9049999999999603,0.0,-1.0,-2.0,3.0,0.0,8.0,-2.0,-1.0,0.672607421875,0.3809814453125,-0.5784912109375,-0.2603759765625,-0.59912109375,-0.80224609375,-0.19677734375,-0.25,-0.5,0.75
2.90999999999996,0.0,-1.0,-2.0,3.0,0.0,8.0,-2.0,-1.0,0.672607421875,0.3809814453125,-0.5784912109375,-0.2603759765625,-0.59912109375,-0.80224609375,-0.19677734375,-0.25,-0.5,0.75
2.91499999999996,-2.0,-1.0,-1.0,-4.0,-1.0,-8.0,0.0,0.0,0.672607421875,0.3809814453125,-0.5784912109375,-0.2603759765625,-0.59912109375,-0.80224609375,-0.19677734375,-0.25,-0.5,0.75
2.91999999999996,0.0,-1.0,-3.0,-7.0,2.0,18.0,4.0,1.0,0.672607421875,0.3809814453125,-0.5784912109375,-0.2603759765625,-0.59912109375,-0.81298828125,-0.19921875,-0.5625,-0.4375,0.9375
2.92499999999996,-3.0,-2.0,-2.0,34.0,-3.0,-14.0,-10.0,-3.0,0.672607421875,0.38092041015625,-0.5784912109375,-0.2603759765625,-0.603515625,-0.8056640625,-0.1962890625,-0.1875,-0.6875,0.0
2.9299999999999597,-3.0,-2.0,-2.0,34.0,-3.0,-14.0,-10.0,-3.0,0.672607421875,0.38092041015625,-0.5784912109375,-0.2603759765625,-0.603515625,-0.8056640625,-0.1962890625,-0.1875,-0.6875,0.0
2.9349999999999596,0.0,-4.0,-2.0,7.0,1.0,1.0,6.0,2.0,0.672607421875,0.38092041015625,-0.5784912109375,-0.2603759765625,-0.603515625,-0.8056640625,-0.1962890625,-0.1875,-0.6875,0.0
2.9399999999999595,0.0,-4.0,-2.0,7.0,1.0,1.0,6.0,2.0,0.672607421875,0.38092041015625,-0.5784912109375,-0.2603759765625,-0.603515625,-0.8056640625,-0.1962890625,-0.1875,-0.6875,0.0
2.9449999999999594,0.0,-4.0,-2.0,7.0,1.0,1.0,6.0,2.0,0.672607421875,0.38092041015625,-0.5784912109375,-0.2603759765625,-0.603515625,-0.8056640625,-0.1962890625,-0.1875,-0.6875,0.0
2.9499999999999593,0.0,-4.0,-2.0,7.0,1.0,1.0,6.0,2.0,0.672607421875,0.38092041015625,-0.5784912109375,-0.2603759765625,-0.603515625,-0.8056640625,-0.1962890625,-0.1875,-0.6875,0.0
2.954999999999959,6.0,-1.0,-2.0,-1.0,3.0,4.0,5.0,-1.0,0.672607421875,0.38092041015625,-0.5784912109375,-0.2603759765625,-0.5966796875,-0.80712890625,-0.1982421875,-0.3125,-0.5,-0.25
2.959999999999959,-1.0,0.0,-3.0,-9.0,-5.0,-8.0,-7.0,-2.0,0.672607421875,0.38092041015625,-0.5784912109375,-0.2603759765625,-0.5966796875,-0.80712890625,-0.1982421875,-0.3125,-0.5,-0.25
2.964999999999959,-1.0,0.0,-3.0,-9.0,-5.0,-8.0,-7.0,-2.0,0.672607421875,0.38092041015625,-0.5784912109375,-0.2603759765625,-0.5966796875,-0.80712890625,-0.1982421875,-0.3125,-0.5,-0.25
2.969999999999959,-1.0,0.0,-3.0,-9.0,-5.0,-8.0,-7.0,-2.0,0.672607421875,0.38092041015625,-0.5784912109375,-0.2603759765625,-0.5966796875,-0.80712890625,-0.1982421875,-0.3125,-0.5,-0.25
2.974999999999959,-1.0,0.0,-3.0,-9.0,-5.0,-8.0,-7.0,-2.0,0.672607421875,0.38092041015625,-0.5784912109375,-0.2603759765625,-0.5966796875,-0.80712890625,-0.1982421875,-0.3125,-0.5,-0.25
2.9799999999999587,-1.0,0.0,-3.0,-9.0,-5.0,-8.0,-7.0,-2.0,0.672607421875,0.38092041015625,-0.5784912109375,-0.2603759765625,-0.5966796875,-0.80712890625,-0.1982421875,-0.3125,-0.5,-0.25
2.9849999999999586,0.0,-1.0,2.0,-4.0,4.0,7.0,-5.0,-1.0,0.672607421875,0.38092041015625,-0.5784912109375,-0.26031494140625,-0.595703125,-0.80322265625,-0.20263671875,-0.5,-1.0,-0.625
2.9899999999999585,0.0,-1.0,2.0,-4.0,4.0,7.0,-5.0,-1.0,0.672607421875,0.38092041015625,-0.5784912109375,-0.26031494140625,-0.595703125,-0.80322265625,-0.20263671875,-0.5,-1.0,-0.625
2.9949999999999584,0.0,-1.0,2.0,-4.0,4.0,7.0,-5.0,-1.0,0.672607421875,0.38092041015625,-0.5784912109375,-0.26031494140625,-0.595703125,-0.80322265625,-0.20263671875,-0.5,-1.0,-0.625
2.9999999999999583,-1.0,-1.0,-3.0,-11.0,-3.0,-12.0,-4.0,-2.0,0.67254638671875,0.381103515625,-0.57855224609375,-0.2601318359375,-0.59423828125,-0.8095703125,-0.19384765625,-1.5,-1.0,-0.375
3.004999999999958,-1.0,-1.0,-3.0,-11.0,-3.0,-12.0,-4.0,-2.0,0.67254638671875,0.381103515625,-0.57855224609375,-0.2601318359375,-0.59423828125,-0.8095703125,-0.19384765625,-1.5,-1.0,-0.375
3.009999999999958,-2.0,-1.0,-2.0,12.0,-5.0,-6.0,1.0,-2.0,0.67254638671875,0.381103515625,-0.57855224609375,-0.2601318359375,-0.59423828125,-0.8095703125,-0.19384765625,-1.5,-1.0,-0.375
3.014999999999958,-2.0,-1.0,-2.0,12.0,-5.0,-6.0,1.0,-2.0,0.67254638671875,0.381103515625,-0.57855224609375,-0.2601318359375,-0.59423828125,-0.8095703125,-0.19384765625,-1.5,-1.0,-0.375
3.019999999999958,-2.0,-1.0,-2.0,12.0,-5.0,-6.0,1.0,-2.0,0.67254638671875,0.381103515625,-0.57855224609375,-0.2601318359375,-0.59423828125,-0.8095703125,-0.19384765625,-1.5,-1.0,-0.375
3.0249999999999577,-2.0,-1.0,-2.0,12.0,-5.0,-6.0,1.0,-2.0,0.67254638671875,0.381103515625,-0.57855224609375,-0.2601318359375,-0.59423828125,-0.8095703125,-0.19384765625,-1.5,-1.0,-0.375
3.0299999999999576,-2.0,-1.0,0.0,6.0,0.0,1.0,4.0,1.0,0.67242431640625,0.3812255859375,-0.5787353515625,-0.25994873046875,-0.5986328125,-0.8173828125,-0.19140625,-1.1875,-1.25,0.0625
3.0349999999999575,-2.0,-1.0,0.0,6.0,0.0,1.0,4.0,1.0,0.67242431640625,0.3812255859375,-0.5787353515625,-0.25994873046875,-0.5986328125,-0.8173828125,-0.19140625,-1.1875,-1.25,0.0625
3.0399999999999574,-3.0,-2.0,-2.0,-2.0,-1.0,-5.0,0.0,0.0,0.67242431640625,0.3812255859375,-0.5787353515625,-0.25994873046875,-0.5986328125,-0.8173828125,-0.19140625,-1.1875,-1.25,0.0625
3.0449999999999573,-3.0,-2.0,-2.0,-2.0,-1.0,-5.0,0.0,0.0,0.67242431640625,0.3812255859375,-0.5787353515625,-0.25994873046875,-0.5986328125,-0.8173828125,-0.19140625,-1.1875,-1.25,0.0625
3.049999999999957,-3.0,-2.0,-2.0,-2.0,-1.0,-5.0,0.0,0.0,0.67242431640625,0.3812255859375,-0.5787353515625,-0.25994873046875,-0.5986328125,-0.8173828125,-0.19140625,-1.1875,-1.25,0.0625
3.054999999999957,-3.0,-2.0,-2.0,-2.0,-1.0,-5.0,0.0,0.0,0.67242431640625,0.3812255859375,-0.5787353515625,-0.25994873046875,-0.5986328125,-0.8173828125,-0.19140625,-1.1875,-1.25,0.0625
3.059999999999957,-2.0,-2.0,-3.0,-14.0,-1.0,0.0,-3.0,-3.0,0.67236328125,0.3812255859375,-0.57891845703125,-0.2596435546875,-0.599609375,-0.8193359375,-0.19482421875,-1.125,-1.25,1.375
3.064999999999957,2.0,-2.0,-4.0,0.0,-1.0,-9.0,1.0,-2.0,0.67236328125,0.3812255859375,-0.57891845703125,-0.2596435546875,-0.599609375,-0.8193359375,-0.19482421875,-1.125,-1.25,1.375
3.0699999999999568,2.0,-2.0,-4.0,0.0,-1.0,-9.0,1.0,-2.0,0.67236328125,0.3812255859375,-0.57891845703125,-0.2596435546875,-0.599609375,-0.8193359375,-0.19482421875,-1.125,-1.25,1.375
3.0749999999999567,2.0,-2.0,-4.0,0.0,-1.0,-9.0,1.0,-2.0,0.67236328125,0.3812255859375,-0.57891845703125,-0.2596435546875,-0.599609375,-0.8193359375,-0.19482421875,-1.125,-1.25,1.375
3.0799999999999566,4.0,-5.0,-6.0,11.0,2.0,7.0,0.0,0.0,0.67236328125,0.3812255859375,-0.57891845703125,-0.2596435546875,-0.599609375,-0.8193359375,-0.19482421875,-1.125,-1.25,1.375
3.0849999999999564,4.0,-5.0,-6.0,11.0,2.0,7.0,0.0,0.0,0.67236328125,0.381103515625,-0.5792236328125,-0.25927734375,-0.60107421875,-0.81689453125,-0.19482421875,-0.6875,-1.625,2.125
3.0899999999999563,-1.0,-1.0,-3.0,-11.0,-1.0,-9.0,-1.0,-1.0,0.67236328125,0.381103515625,-0.5792236328125,-0.25927734375,-0.60107421875,-0.81689453125,-0.19482421875,-0.6875,-1.625,2.125
3.0949999999999562,-1.0,-1.0,-3.0,-11.0,-1.0,-9.0,-1.0,-1.0,0.67236328125,0.381103515625,-0.5792236328125,-0.25927734375,-0.60107421875,-0.81689453125,-0.19482421875,-0.6875,-1.625,2.125
3.099999999999956,-1.0,-1.0,-3.0,-11.0,-1.0,-9.0,-1.0,-1.0,0.67236328125,0.381103515625,-0.5792236328125,-0.25927734375,-0.60107421875,-0.81689453125,-0.19482421875,-0.6875,-1.625,2.125
3.104999999999956,-1.0,-1.0,-3.0,-11.0,-1.0,-9.0,-1.0,-1.0,0.67236328125,0.381103515625,-0.5792236328125,-0.25927734375,-0.60107421875,-0.81689453125,-0.19482421875,-0.6875,-1.625,2.125
3.109999999999956,-1.0,2.0,1.0,-4.0,2.0,10.0,-2.0,1.0,0.67236328125,0.3807373046875,-0.57965087890625,-0.2587890625,-0.59912109375,-0.8056640625,-0.19287109375,-0.0625,-1.75,3.25
3.114999999999956,-1.0,2.0,1.0,-4.0,2.0,10.0,-2.0,1.0,0.67236328125,0.3807373046875,-0.57965087890625,-0.2587890625,-0.59912109375,-0.8056640625,-0.19287109375,-0.0625,-1.75,3.25
3.1199999999999557,-1.0,-4.0,-2.0,-3.0,-7.0,-11.0,-1.0,-1.0,0.67236328125,0.3807373046875,-0.57965087890625,-0.2587890625,-0.59912109375,-0.8056640625,-0.19287109375,-0.0625,-1.75,3.25
3.1249999999999556,-1.0,-4.0,-2.0,-3.0,-7.0,-11.0,-1.0,-1.0,0.67236328125,0.3807373046875,-0.57965087890625,-0.2587890625,-0.59912109375,-0.8056640625,-0.19287109375,-0.0625,-1.75,3.25
3.1299999999999555,-1.0,-4.0,-2.0,-3.0,-7.0,-11.0,-1.0,-1.0,0.67236328125,0.3807373046875,-0.57965087890625,-0.2587890625,-0.59912109375,-0.8056640625,-0.19287109375,-0.0625,-1.75,3.25
3.1349999999999554,-1.0,-4.0,-2.0,-3.0,-7.0,-11.0,-1.0,-1.0,0.67236328125,0.3807373046875,-0.57965087890625,-0.2587890625,-0.59912109375,-0.8056640625,-0.19287109375,-0.0625,-1.75,3.25
3.1399999999999553,-4.0,1.0,-1.0,3.0,0.0,7.0,-11.0,-1.0,0.67236328125,0.3807373046875,-0.57965087890625,-0.2587890625,-0.59912109375,-0.8056640625,-0.19287109375,-0.0625,-1.75,3.25
3.144999999999955,-2.0,1.0,4.0,9.0,6.0,13.0,2.0,1.0,0.67236328125,0.38031005859375,-0.580078125,-0.25836181640625,-0.5966796875,-0.80615234375,-0.19091796875,0.125,-1.625,3.625
3.149999999999955,-2.0,1.0,4.0,9.0,6.0,13.0,2.0,1.0,0.67236328125,0.38031005859375,-0.580078125,-0.25836181640625,-0.5966796875,-0.80615234375,-0.19091796875,0.125,-1.625,3.625
3.154999999999955,-2.0,1.0,4.0,9.0,6.0,13.0,2.0,1.0,0.67236328125,0.38031005859375,-0.580078125,-0.25836181640625,-0.5966796875,-0.80615234375,-0.19091796875,0.125,-1.625,3.625
3.159999999999955,-3.0,-2.0,-2.0,-2.0,-4.0,19.0,2.0,-1.0,0.67254638671875,0.3800048828125,-0.580322265625,-0.25787353515625,-0.60009765625,-0.8037109375,-0.19482421875,-0.625,-0.8125,3.5
3.1649999999999547,-3.0,-2.0,-2.0,-2.0,-4.0,19.0,2.0,-1.0,0.67254638671875,0.3800048828125,-0.580322265625,-0.25787353515625,-0.60009765625,-0.8037109375,-0.19482421875,-0.625,-0.8125,3.5
3.1699999999999546,-1.0,-1.0,-3.0,-5.0,-5.0,-12.0,-4.0,-2.0,0.67254638671875,0.3800048828125,-0.580322265625,-0.25787353515625,-0.60009765625,-0.8037109375,-0.19482421875,-0.625,-0.8125,3.5
3.1749999999999545,-1.0,-1.0,-3.0,-5.0,-5.0,-12.0,-4.0,-2.0,0.67254638671875,0.3800048828125,-0.580322265625,-0.25787353515625,-0.60009765625,-0.8037109375,-0.19482421875,-0.625,-0.8125,3.5
3.1799999999999544,-1.0,-1.0,-3.0,-5.0,-5.0,-12.0,-4.0,-2.0,0.67254638671875,0.3800048828125,-0.580322265625,-0.25787353515625,-0.60009765625,-0.8037109375,-0.19482421875,-0.625,-0.8125,3.5
3.1849999999999543,-1.0,-1.0,-3.0,-5.0,-5.0,-12.0,-4.0,-2.0,0.67254638671875,0.3800048828125,-0.580322265625,-0.25787353515625,-0.60009765625,-0.8037109375,-0.19482421875,-0.625,-0.8125,3.5
3.189999999999954,-1.0,-2.0,-1.0,-6.0,1.0,-7.0,2.0,0.0,0.6727294921875,0.37969970703125,-0.58050537109375,-0.2574462890625,-0.6015625,-0.80712890625,-0.19287109375,-0.9375,-0.6875,3.3125
3.194999999999954,-1.0,-2.0,-1.0,-6.0,1.0,-7.0,2.0,0.0,0.6727294921875,0.37969970703125,-0.58050537109375,-0.2574462890625,-0.6015625,-0.80712890625,-0.19287109375,-0.9375,-0.6875,3.3125
3.199999999999954,0.0,-2.0,-4.0,-5.0,-2.0,-1.0,-3.0,-1.0,0.6727294921875,0.37969970703125,-0.58050537109375,-0.2574462890625,-0.6015625,-0.80712890625,-0.19287109375,-0.9375,-0.6875,3.3125
3.204999999999954,0.0,-2.0,-4.0,-5.0,-2.0,-1.0,-3.0,-1.0,0.6727294921875,0.37969970703125,-0.58050537109375,-0.2574462890625,-0.6015625,-0.80712890625,-0.19287109375,-0.9375,-0.6875,3.3125
3.209999999999954,0.0,-2.0,-4.0,-5.0,-2.0,-1.0,-3.0,-1.0,0.6727294921875,0.37969970703125,-0.58050537109375,-0.2574462890625,-0.6015625,-0.80712890625,-0.19287109375,-0.9375,-0.6875,3.3125
3.2149999999999537,0.0,-2.0,-4.0,-5.0,-2.0,-1.0,-3.0,-1.0,0.6727294921875,0.37969970703125,-0.58050537109375,-0.2574462890625,-0.6015625,-0.80712890625,-0.19287109375,-0.9375,-0.6875,3.3125
3.2199999999999536,-3.0,-1.0,-2.0,22.0,-6.0,-9.0,-4.0,-3.0,0.67279052734375,0.37933349609375,-0.580810546875,-0.257080078125,-0.60107421875,-0.8037109375,-0.18798828125,-0.1875,-0.5625,2.9375
3.2249999999999535,-5.0,0.0,-2.0,0.0,-2.0,1.0,-2.0,0.0,0.67279052734375,0.37933349609375,-0.580810546875,-0.257080078125,-0.60107421875,-0.8037109375,-0.18798828125,-0.1875,-0.5625,2.9375
3.2299999999999534,-5.0,0.0,-2.0,0.0,-2.0,1.0,-2.0,0.0,0.67279052734375,0.37933349609375,-0.580810546875,-0.257080078125,-0.60107421875,-0.8037109375,-0.18798828125,-0.1875,-0.5625,2.9375
3.2349999999999532,-5.0,0.0,-2.0,0.0,-2.0,1.0,-2.0,0.0,0.67279052734375,0.37933349609375,-0.580810546875,-0.257080078125,-0.60107421875,-0.8037109375,-0.18798828125,-0.1875,-0.5625,2.9375
3.239999999999953,-5.0,0.0,-2.0,0.0,-2.0,1.0,-2.0,0.0,0.67279052734375,0.37933349609375,-0.580810546875,-0.257080078125,-0.60107421875,-0.8037109375,-0.18798828125,-0.1875,-0.5625,2.9375
3.244999999999953,-2.0,-2.0,-1.0,3.0,1.0,5.0,7.0,3.0,0.6728515625,0.3790283203125,-0.58111572265625,-0.25677490234375,-0.6064453125,-0.81005859375,-0.18310546875,-0.375,-0.625,2.5625
3.249999999999953,-2.0,-2.0,-1.0,3.0,1.0,5.0,7.0,3.0,0.6728515625,0.3790283203125,-0.58111572265625,-0.25677490234375,-0.6064453125,-0.81005859375,-0.18310546875,-0.375,-0.625,2.5625
3.254999999999953,-2.0,-2.0,-1.0,3.0,1.0,5.0,7.0,3.0,0.6728515625,0.3790283203125,-0.58111572265625,-0.25677490234375,-0.6064453125,-0.81005859375,-0.18310546875,-0.375,-0.625,2.5625
