0.01,12,3,11,10,1,1,2,5
0.015,5,2,9,5,3,2,3,2
0.02,5,33,11,0,2,4,14,5
0.025,3,13,14,11,1,1,5,4
0.03,4,1,3,7,5,7,18,4
0.035,2,29,9,5,3,4,0,1
0.04,5,0,3,0,1,1,4,4
0.045,5,22,9,3,0,1,15,7
0.05,8,22,20,4,1,5,3,1
0.055,26,13,2,7,1,3,9,4
0.06,31,17,8,1,1,3,2,10
0.065,23,9,13,5,0,1,2,2
0.07,1,18,1,11,2,0,0,3
0.075,2,6,14,21,7,4,3,4
0.08,12,16,20,15,4,3,2,2
0.085,9,3,3,7,1,1,6,0
0.09,16,63,16,0,4,1,2,1
0.095,8,15,2,15,3,0,2,7
0.1,17,22,28,25,7,4,10,5
0.105,25,4,10,6,3,2,3,5
0.11,11,37,30,39,4,1,5,1
0.115,5,10,14,36,8,3,0,0
0.12,12,9,12,4,0,2,2,7
0.125,13,73,16,2,2,4,3,1
0.13,6,13,43,1,5,4,1,0
0.135,5,19,27,32,5,4,2,2
0.14,3,5,2,7,0,1,0,2
0.145,3,32,33,76,15,8,5,3
0.15,1,9,17,2,3,1,1,3
0.155,2,5,10,5,1,1,2,2
0.16,2,2,5,18,1,1,1,2
0.165,0,12,34,55,5,0,1,2
0.17,8,3,15,56,6,7,7,5
0.175,10,47,4,2,4,2,3,1
0.18,15,13,3,7,3,1,3,6
0.185,11,50,14,7,2,4,0,0
0.19,1,42,14,20,0,1,2,1
0.195,2,11,1,30,5,1,1,0
0.2,1,14,26,46,12,8,5,3
0.205,16,40,1,26,0,0,6,3
0.21,3,23,33,24,3,0,1,0
0.215,4,14,7,14,7,4,4,2
0.22,4,33,11,24,1,1,0,1
0.225,2,2,3,6,0,2,1,1
0.23,3,3,1,4,1,1,1,2
0.235,3,16,22,1,1,4,3,2
0.24,0,45,3,7,3,1,0,1
0.245,1,1,5,4,0,2,4,1
0.25,4,10,4,1,2,1,2,3
0.255,5,16,2,7,3,4,0,2
0.26,1,65,4,6,4,4,0,4
0.265,10,14,17,2,0,4,0,2
0.27,2,5,4,11,0,2,1,0
0.275,5,28,24,17,6,8,6,3
0.28,0,4,21,0,1,0,1,3
0.285,8,6,4,17,0,2,0,1
0.29,8,23,38,20,3,2,1,2
0.295,15,30,3,9,1,2,3,1
0.3,2,29,0,2,1,0,3,2
0.305,10,20,14,6,1,8,13,6
0.31,3,52,5,7,3,1,0,0
0.315,5,9,2,5,1,2,16,2
0.32,4,36,7,0,0,0,10,4
0.325,8,15,16,4,1,4,9,5
0.33,3,10,16,1,5,2,4,1
0.335,4,37,26,11,5,7,4,1
0.34,17,20,21,9,6,4,18,11
0.345,11,19,8,7,1,0,14,2
0.35,3,23,5,3,8,14,62,30
0.355,3,39,20,12,4,2,0,1
0.36,3,2,24,2,2,4,1,1
0.365,1,5,6,0,1,8,33,18
0.37,2,25,7,2,1,5,73,1
0.375,2,8,8,4,5,17,100,30
0.38,4,9,9,5,2,3,1,3
0.385,4,49,37,4,0,3,2,3
0.39,7,19,12,1,1,0,1,7
0.395,4,12,17,9,2,1,29,7
0.4,5,13,7,3,0,2,10,5
0.405,1,3,3,0,1,2,3,1
0.41,8,2,12,3,2,8,70,17
0.415,6,3,24,3,5,17,96,36
0.42,2,5,31,8,1,2,36,1
0.425,5,61,21,0,4,4,25,3
0.43,1,30,6,11,2,0,15,2
0.435,8,21,27,5,3,10,53,24
0.44,1,35,29,1,3,5,32,2
0.445,1,25,4,1,2,3,82,18
0.45,3,42,12,2,4,2,11,19
0.455,0,17,24,4,5,2,29,1
0.46,10,22,31,15,1,10,63,22
0.465,8,33,6,1,7,13,79,37
0.47,4,15,11,5,2,2,37,1
0.475,13,11,15,1,8,29,46,51
0.48,0,14,23,1,1,3,68,5
0.485,0,1,9,12,5,8,5,5
0.49,9,14,3,0,2,9,27,23
0.495,21,0,15,3,1,8,37,32
0.5,41,22,5,1,1,1,39,29
0.505,4,4,46,12,6,9,14,12
0.51,11,18,37,3,1,1,30,1
0.515,18,18,19,8,2,4,0,18
0.52,31,31,21,8,6,7,24,11
0.525,28,17,35,11,8,4,8,24
0.53,12,15,19,5,2,7,20,8
0.535,2,6,13,1,1,1,1,9
0.54,18,16,9,2,1,4,11,20
0.545,5,2,13,8,3,3,4,1
0.55,13,41,9,8,3,9,32,23
0.555,1,51,27,10,0,10,24,13
0.56,2,8,26,0,4,1,3,1
0.565,2,1,8,5,1,5,5,9
0.57,0,10,0,4,1,5,22,6
0.575,2,4,12,8,1,2,21,9
0.58,6,8,9,4,0,1,1,3
0.585,4,17,1,23,9,5,9,0
0.59,0,17,10,31,2,6,5,2
0.595,30,1,12,1,3,8,13,6
0.6,5,17,7,10,3,3,11,1
0.605,10,26,8,18,4,0,3,6
0.61,2,25,51,9,0,1,4,3
0.615,13,6,6,7,5,4,3,5
0.62,15,35,12,2,0,1,6,3
0.625,4,1,0,0,1,4,2,1
0.63,6,47,12,4,4,1,4,9
0.635,3,3,20,6,3,1,1,2
0.64,6,22,0,1,3,2,2,3
0.645,16,28,14,2,0,2,3,4
0.65,19,23,21,6,1,4,9,7
0.655,7,11,23,7,1,1,2,0
0.66,1,1,9,9,2,0,2,3
0.665,3,4,16,6,3,2,0,1
0.67,7,21,1,0,0,8,45,13
0.675,4,6,17,3,4,5,62,17
0.68,19,10,14,11,5,10,33,36
0.685,4,17,8,2,0,2,3,2
0.69,7,9,7,6,1,1,3,3
0.695,0,27,29,7,1,4,31,8
0.7,31,3,29,2,1,1,7,23
0.705,39,7,25,7,2,4,5,14
0.71,6,2,13,2,8,7,2,13
0.715,10,2,11,4,4,1,16,7
0.72,3,29,35,10,4,0,1,3
0.725,12,13,6,0,1,3,12,11
0.73,1,6,4,3,1,2,5,1
0.735,12,29,0,3,3,1,6,5
0.74,1,13,8,3,1,3,6,7
0.745,11,11,41,5,3,4,2,3
0.75,7,6,22,5,1,2,12,8
0.755,14,10,2,5,3,4,0,11
0.76,3,5,13,1,2,2,7,3
0.765,0,0,16,2,2,1,1,7
0.77,12,4,7,6,2,1,10,11
0.775,6,17,15,4,2,3,31,6
0.78,47,38,5,4,2,3,13,28
0.785,11,21,5,2,8,10,47,12
0.79,10,22,17,9,5,4,1,7
0.795,3,4,47,2,4,5,6,6
0.8,0,8,10,8,1,4,17,6
0.805,8,8,7,4,1,1,6,1
0.81,18,40,9,8,2,5,4,9
0.815,5,10,23,6,5,1,10,8
0.82,32,6,19,10,2,5,16,7
0.825,50,5,16,3,0,2,6,16
0.83,17,4,13,6,8,10,45,65
0.835,4,54,39,7,2,5,52,17
0.84,19,9,30,2,3,8,38,6
0.845,5,19,17,6,0,2,15,6
0.85,8,32,21,2,1,0,16,18
0.855,7,1,24,3,0,0,11,8
0.86,4,4,22,1,1,1,18,2
0.865,16,7,14,2,3,1,8,8
0.87,21,11,7,4,2,1,4,1
0.875,12,13,0,6,3,5,19,13
0.88,8,6,23,4,3,3,13,20
0.885,21,21,17,4,4,2,12,19
0.89,16,29,23,1,2,0,17,17
0.895,3,19,18,6,2,3,26,11
0.9,11,27,4,1,4,4,4,1
0.905,12,56,21,1,3,2,11,14
0.91,8,17,47,17,8,6,4,18
0.915,12,1,29,16,2,2,11,6
0.92,4,18,19,14,1,1,2,1
0.925,11,74,48,19,3,0,9,2
0.93,15,6,9,1,3,0,3,22
0.935,16,1,11,8,0,2,13,11
0.94,11,25,26,2,1,1,7,6
0.945,3,11,14,4,4,5,3,11
0.95,6,2,6,2,3,2,9,2
0.955,14,14,11,5,0,1,0,2
0.96,16,63,30,22,9,3,1,8
0.965,16,45,10,7,0,1,3,8
0.97,9,21,38,13,1,2,11,28
0.975,8,37,16,9,1,2,3,6
0.98,2,5,4,6,1,1,9,4
0.985,3,9,14,1,1,2,3,2
0.99,4,4,12,1,2,2,1,8
0.995,7,38,13,2,1,1,5,1
1,13,42,9,6,0,1,3,7
1.005,9,7,1,3,0,2,2,5
1.01,11,40,5,7,2,1,1,7
1.015,18,12,16,8,5,3,1,5
1.02,46,39,46,10,5,4,10,29
1.025,2,14,22,10,3,0,4,8
1.03,5,31,9,3,5,4,4,2
1.035,7,33,5,4,0,1,3,2
1.04,18,31,14,6,4,2,5,5
1.045,16,22,11,1,2,4,2,26
1.05,16,10,5,2,1,4,9,20
1.055,7,8,9,0,1,1,1,3
1.06,9,19,6,1,2,1,2,4
1.065,1,32,0,4,3,1,4,15
1.07,9,2,11,17,1,2,0,17
1.075,16,15,13,1,0,1,2,12
1.08,9,5,3,7,2,3,1,6
1.085,27,52,35,17,3,0,1,9
1.09,6,4,7,9,2,4,4,5
1.095,3,1,9,6,1,1,2,1
1.1,2,2,2,3,4,6,2,2
1.105,10,0,3,3,0,1,0,2
1.11,11,44,19,5,1,3,0,0
1.115,8,6,12,13,4,3,4,7
1.12,6,15,13,5,0,0,1,3
1.125,1,9,12,3,2,2,2,3
1.13,8,2,2,14,1,1,1,0
1.135,5,5,3,17,0,0,1,4
1.14,6,3,28,92,20,11,8,8
1.145,2,0,13,12,5,2,1,1
1.15,10,2,6,19,2,2,2,4
1.155,6,6,10,17,3,1,0,4
1.16,5,18,9,33,2,1,2,2
1.165,6,13,18,18,1,0,2,7
1.17,2,6,12,1,3,3,1,1
1.175,8,12,18,2,1,2,2,3
1.18,6,57,36,34,3,3,3,3
1.185,4,78,9,12,0,2,1,0
1.19,4,16,15,29,7,5,5,6
1.195,5,18,37,55,13,9,5,5
1.2,7,24,20,20,1,2,0,4
1.205,3,3,12,18,2,1,0,0
1.21,1,3,11,25,6,2,3,3
1.215,1,11,5,20,1,2,1,1
1.22,5,6,8,9,1,2,2,3
1.225,1,1,0,6,5,1,2,1
1.23,12,0,15,1,2,4,0,0
1.235,9,2,14,7,5,6,5,4
1.24,2,50,16,19,2,5,5,7
1.245,12,5,4,3,4,4,1,1
1.25,1,16,5,6,4,4,3,19
1.255,1,3,4,27,4,1,1,2
1.26,6,24,18,6,0,3,3,3
1.265,11,18,6,11,5,2,0,4
1.27,10,9,16,10,2,1,4,8
1.275,1,6,4,1,1,0,2,4
1.28,10,4,7,32,5,3,1,3
1.285,1,0,22,6,3,8,7,11
1.29,6,8,4,18,5,1,1,3
1.295,3,28,29,51,5,1,1,2
1.3,8,54,8,53,3,1,0,4
1.305,5,12,4,25,6,4,5,4
1.31,6,11,9,2,3,4,4,3
1.315,1,8,8,5,4,1,2,1
1.32,4,0,15,51,4,1,2,2
1.325,5,4,12,2,9,6,12,1
1.33,17,43,14,4,4,3,22,7
1.335,31,9,19,22,4,1,2,7
1.34,52,30,4,1,10,10,12,39
1.345,11,7,5,2,4,3,3,16
1.35,7,13,6,1,3,0,6,9
1.355,3,3,4,21,4,2,2,0
1.36,14,6,4,24,1,1,2,8
1.365,3,13,12,35,3,1,3,6
1.37,0,38,9,9,1,3,3,4
1.375,2,50,67,7,2,3,2,3
1.38,30,10,0,63,1,1,4,7
1.385,43,9,18,20,6,3,4,4
1.39,3,13,40,99,17,6,3,1
1.395,0,2,7,1,5,2,1,1
1.4,23,21,3,26,3,2,1,9
1.405,16,54,3,54,2,0,4,2
1.41,2,16,4,59,6,4,6,0
1.415,11,22,21,3,4,0,3,2
1.42,5,18,2,87,14,8,4,4
1.425,16,14,15,35,10,5,10,8
1.43,19,3,3,5,0,5,5,21
1.435,23,21,11,15,8,6,10,3
1.44,1,5,1,30,5,1,4,8
1.445,21,4,10,5,2,4,8,1
1.45,1,1,6,9,2,1,13,3
1.455,10,39,40,9,10,5,2,2
1.46,7,34,5,17,1,2,5,1
1.465,14,9,2,9,9,14,0,2
1.47,28,61,6,19,13,17,5,4
1.475,2,7,11,16,6,6,3,2
1.48,18,18,1,20,3,3,2,5
1.485,4,42,22,36,5,0,6,6
1.49,32,36,5,87,29,19,15,8
1.495,9,2,4,24,4,2,1,1
1.5,17,36,6,12,6,5,10,1
1.505,23,10,22,44,10,7,4,2
1.51,32,23,13,33,5,1,1,8
1.515,37,26,17,20,3,2,4,7
1.52,9,11,4,14,6,6,4,0
1.525,5,0,11,3,1,4,1,3
1.53,12,7,11,3,3,3,1,3
1.535,6,19,10,19,5,6,0,1
1.54,16,2,7,15,7,6,1,4
1.545,6,14,30,21,6,4,7,1
1.55,12,29,1,1,1,3,1,4
1.555,28,29,9,7,2,1,0,5
1.56,14,17,10,11,2,0,2,3
1.565,2,19,13,9,1,1,1,1
1.57,28,3,3,14,0,0,2,9
1.575,13,20,16,1,2,1,5,1
1.58,8,16,7,14,2,0,3,2
1.585,24,7,18,1,1,0,2,5
1.59,1,3,6,16,1,1,0,4
1.595,5,14,11,5,3,2,3,0
1.6,7,18,16,7,2,2,0,5
1.605,0,1,7,0,3,1,1,2
1.61,10,5,5,1,2,3,3,1
1.615,5,22,6,0,1,1,1,7
1.62,7,15,1,10,6,1,2,0
1.625,11,1,7,1,1,3,0,1
1.63,11,1,8,3,0,2,1,8
1.635,6,15,10,9,4,2,4,12
1.64,0,2,2,3,0,4,3,1
1.645,7,9,12,1,1,1,2,1
1.65,2,4,16,2,0,1,0,2
1.655,1,2,2,4,5,3,3,9
1.66,9,6,3,2,4,4,9,0
1.665,8,23,38,8,3,1,0,0
1.67,3,35,87,19,6,4,6,1
1.675,3,18,17,2,0,1,6,7
1.68,13,14,8,5,2,1,4,3
1.685,9,15,26,5,1,1,2,0
1.69,2,7,12,10,3,3,14,2
1.695,4,13,3,5,2,1,4,1
1.7,5,4,2,6,2,2,17,2
1.705,1,42,8,1,3,3,1,5
1.71,4,53,23,4,4,1,12,3
1.715,1,13,33,11,7,3,8,3
1.72,5,6,12,3,8,5,12,3
1.725,5,7,22,1,3,6,7,8
1.73,15,29,17,6,2,1,5,1
1.735,5,7,12,11,0,0,1,5
1.74,8,11,5,18,7,6,7,9
1.745,0,28,13,14,1,1,0,0
1.75,8,30,11,3,1,2,1,2
1.755,1,13,34,3,1,1,5,2
1.76,4,11,19,11,2,2,1,3
1.765,11,17,35,8,1,3,4,0
1.77,5,9,7,25,3,2,2,4
1.775,11,24,28,29,5,4,6,3
1.78,11,12,2,1,6,1,2,9
1.785,14,40,11,2,3,3,0,5
1.79,1,18,21,10,4,1,4,3
1.795,8,34,11,9,1,2,2,3
1.8,15,27,23,1,1,4,0,2
1.805,0,6,24,1,2,3,3,10
1.81,14,6,11,1,2,2,4,8
1.815,21,44,22,14,1,4,2,0
1.82,12,54,37,26,5,1,3,5
1.825,7,15,18,16,4,3,9,4
1.83,2,9,14,12,1,2,5,1
1.835,8,30,10,3,2,1,1,5
1.84,5,6,11,17,1,0,2,5
1.845,3,18,5,5,0,0,2,0
1.85,1,3,5,10,5,3,6,0
1.855,5,11,4,2,3,2,4,7
1.86,3,7,13,1,2,1,1,3
1.865,14,29,5,8,3,2,2,2
1.87,6,46,19,5,0,2,1,1
1.875,1,71,19,1,2,1,3,2
1.88,4,4,35,5,2,6,3,4
1.885,6,53,0,2,4,5,5,2
1.89,11,12,10,4,6,6,3,5
1.895,4,9,28,7,6,0,1,4
1.9,6,6,1,1,3,3,2,2
1.905,4,20,8,25,4,1,2,5
1.91,7,8,1,9,5,5,2,11
1.915,3,3,9,30,0,2,0,2
1.92,7,10,10,3,1,4,1,0
1.925,2,4,0,2,0,2,0,0
1.93,0,15,15,9,1,1,2,3
1.935,4,8,20,9,1,1,0,3
1.94,2,2,18,8,5,4,2,1
1.945,1,2,3,1,1,0,1,2
1.95,7,6,5,7,6,6,2,1
1.955,4,0,39,4,2,1,2,5
1.96,20,17,24,1,2,2,2,9
1.965,4,26,1,6,3,0,3,5
1.97,3,16,12,8,8,5,4,2
1.975,1,10,13,16,2,0,1,2
1.98,1,13,47,30,10,6,1,2
1.985,9,22,15,21,3,2,1,4
1.99,3,1,14,4,0,1,4,2
1.995,7,37,9,11,2,3,2,2
2,6,15,27,19,3,1,1,5
2.005,6,13,0,2,2,2,0,5
2.01,1,29,5,8,2,0,1,5
2.015,2,45,13,9,3,2,0,1
2.02,3,2,31,2,1,0,1,2
2.025,6,37,11,8,3,2,4,6
2.03,2,10,15,8,9,6,1,1
2.035,7,21,10,13,4,3,2,8
2.04,3,13,13,4,1,1,0,6
2.045,5,3,13,1,4,4,2,17
2.05,0,3,21,5,5,4,7,6
2.055,0,18,2,5,6,7,5,3
2.06,7,2,3,2,4,3,1,1
2.065,3,1,1,2,0,0,0,6
2.07,1,6,6,3,1,1,0,6
2.075,7,17,4,2,1,2,3,2
2.08,3,38,14,4,1,2,2,2
2.085,2,19,35,3,5,2,1,1
2.09,12,3,5,0,3,3,3,2
2.095,0,35,15,9,2,1,1,3
2.1,6,0,14,8,1,2,1,2
2.105,10,19,12,3,3,2,0,3
2.11,3,11,11,5,3,5,3,4
2.115,6,24,20,2,2,1,1,1
2.12,13,68,11,6,0,0,4,0
2.125,3,3,15,8,6,3,1,2
2.13,2,10,5,1,0,2,1,5
2.135,4,4,10,2,1,3,1,3
2.14,8,32,8,2,1,1,1,2
2.145,2,3,3,1,2,2,2,5
2.15,1,1,3,2,1,1,1,2
2.155,0,6,13,3,2,1,1,0
2.16,1,4,5,12,4,4,3,4
2.165,1,7,2,0,1,4,2,4
2.17,7,8,2,3,1,1,1,1
2.175,1,24,0,2,0,2,2,1
2.18,1,13,7,4,4,2,1,1
2.185,1,2,3,4,1,0,4,1
2.19,0,5,7,32,1,1,1,1
2.195,1,10,15,11,0,1,1,3
2.2,0,16,3,54,7,5,4,3
2.205,11,30,6,24,8,4,2,4
2.21,13,37,14,1,3,3,5,2
2.215,16,3,2,33,1,5,4,1
2.22,5,8,3,26,5,2,3,0
2.225,1,30,3,29,3,3,0,1
2.23,1,2,0,16,4,5,4,3
2.235,8,4,4,10,3,5,4,0
2.24,1,1,6,54,12,5,2,3
2.245,1,9,13,25,0,0,2,4
2.25,1,8,14,11,2,2,5,1
2.255,4,8,25,4,1,0,1,1
2.26,0,4,8,21,1,0,2,2
2.265,9,1,2,29,3,2,2,3
2.27,24,7,4,17,0,1,1,3
2.275,54,30,22,51,17,8,7,10
2.28,18,6,18,24,7,1,0,2
2.285,1,10,7,1,1,1,2,3
2.29,1,13,6,28,2,2,2,1
2.295,23,9,10,11,2,2,4,4
2.3,15,6,10,13,1,0,3,1
2.305,18,22,13,7,4,2,0,2
2.31,6,12,11,28,1,2,2,1
2.315,8,4,12,48,9,7,5,3
2.32,1,23,8,27,1,6,1,2
2.325,2,30,1,29,8,6,5,3
2.33,9,0,12,2,5,2,3,3
2.335,2,23,13,8,1,0,3,2
2.34,11,3,19,8,4,3,2,2
2.345,33,13,18,30,10,5,2,5
2.35,52,35,30,13,1,5,4,7
2.355,53,3,5,15,3,1,3,4
2.36,2,11,47,87,20,11,3,8
2.365,17,21,18,65,8,4,3,5
2.37,34,26,40,81,15,9,3,8
2.375,7,14,11,89,2,1,2,4
2.38,41,89,87,75,59,34,23,25
2.385,26,22,47,89,8,3,4,2
2.39,9,22,33,73,8,2,0,1
2.395,5,13,22,51,19,8,3,4
2.4,3,34,26,44,24,15,7,6
2.405,6,39,25,59,11,8,5,6
2.41,11,6,1,31,2,0,2,5
2.415,18,2,14,36,1,0,0,1
2.42,3,28,34,12,7,1,3,0
2.425,5,39,25,59,12,6,4,2
2.43,22,8,10,67,8,5,3,5
2.435,6,10,14,32,9,6,2,4
2.44,4,1,8,11,9,6,4,4
2.445,12,7,2,18,3,1,1,1
2.45,5,17,16,29,9,4,3,4
2.455,6,1,5,19,7,1,3,0
2.46,10,10,14,55,12,5,2,3
2.465,8,0,16,19,14,6,4,0
2.47,7,27,24,46,12,12,5,8
2.475,5,24,35,13,8,4,4,3
2.48,9,38,40,42,12,5,4,4
2.485,12,33,44,15,1,0,2,2
2.49,3,41,4,37,10,3,5,0
2.495,5,14,2,1,6,3,4,0
2.5,4,2,11,13,4,3,1,0
2.505,4,7,10,11,7,3,3,1
2.51,17,40,20,19,8,3,1,2
2.515,7,13,5,0,0,2,2,2
2.52,22,7,2,20,5,3,5,3
2.525,23,6,8,30,8,8,8,7
2.53,7,12,12,38,1,2,9,46
2.535,10,17,10,24,16,12,12,12
2.54,14,43,14,18,2,5,5,75
2.545,4,5,22,19,5,2,3,9
2.55,17,5,1,28,10,7,13,6
2.555,19,39,2,8,3,3,5,25
2.56,5,4,4,1,4,0,4,23
2.565,2,10,3,45,4,1,0,2
2.57,7,0,7,0,4,1,1,16
2.575,6,6,9,3,1,3,3,4
2.58,0,27,27,26,3,6,3,1
2.585,3,11,9,20,2,1,0,6
2.59,11,3,1,3,3,6,3,6
2.595,5,15,1,3,0,3,0,11
2.6,20,19,24,43,6,3,5,18
2.605,9,21,5,26,9,7,5,3
2.61,9,16,4,36,8,6,5,18
2.615,3,4,15,17,4,1,3,4
2.62,7,27,16,18,3,3,0,12
2.625,10,7,21,8,2,4,8,3
2.63,6,14,6,1,1,3,2,17
2.635,3,14,2,5,4,0,0,8
2.64,1,33,7,4,0,1,3,12
2.645,3,25,1,6,3,6,7,5
2.65,1,1,14,20,5,5,5,2
2.655,2,18,13,38,4,3,0,14
2.66,26,85,24,80,15,9,8,44
2.665,4,14,22,17,3,3,2,5
2.67,0,6,7,15,2,5,5,3
2.675,4,12,28,6,1,6,5,6
2.68,10,30,6,22,2,0,3,18
2.685,2,7,7,0,0,1,5,5
2.69,2,5,10,5,0,4,3,5
2.695,22,44,5,32,6,1,2,3
2.7,4,34,11,9,2,1,3,6
2.705,5,37,6,12,3,2,3,5
2.71,2,1,36,19,3,1,2,13
2.715,3,7,11,2,3,1,2,3
2.72,2,19,61,9,7,6,5,14
2.725,2,12,5,0,2,1,1,0
2.73,3,13,33,10,2,3,0,0
2.735,1,11,10,30,7,6,4,3
2.74,7,4,20,23,1,3,1,10
2.745,4,21,23,11,0,1,1,3
2.75,12,14,21,13,5,3,3,1
2.755,3,6,6,8,5,4,7,2
2.76,1,10,41,4,1,4,4,26
2.765,1,9,0,24,4,2,1,36
2.77,2,6,49,48,3,0,3,23
2.775,18,57,41,53,8,7,5,9
2.78,10,9,6,40,6,2,0,9
2.785,1,0,20,29,5,0,2,2
2.79,4,7,10,75,8,3,1,4
2.795,9,6,13,41,3,2,2,6
2.8,4,7,1,19,2,2,0,7
2.805,15,40,10,18,9,1,2,15
2.81,5,4,15,26,1,1,2,7
2.815,1,7,8,2,3,4,4,11
2.82,3,3,2,16,1,1,0,9
2.825,3,8,1,4,0,3,2,6
2.83,0,9,13,8,1,0,2,2
2.835,3,5,2,9,2,1,2,5
2.84,3,8,8,23,4,4,0,6
2.845,6,2,1,8,5,1,3,6
2.85,2,3,18,19,10,5,3,1
2.855,1,10,23,1,2,1,1,2
2.86,6,32,4,10,4,2,3,8
2.865,1,0,8,5,2,3,2,8
2.87,2,8,14,8,4,2,0,1
2.875,8,15,11,31,5,3,1,6
2.88,4,7,8,26,4,2,3,10
2.885,0,15,15,72,13,7,7,2
2.89,12,22,10,24,3,3,3,14
2.895,7,23,16,21,2,1,1,1
2.9,2,8,1,21,4,3,1,1
2.905,5,2,1,30,0,2,3,1
2.91,6,7,11,9,0,1,1,9
2.915,6,20,9,15,5,2,1,8
2.92,2,1,2,10,2,1,1,0
2.925,2,11,0,6,2,3,0,4
2.93,1,10,14,1,4,1,2,2
2.935,1,39,3,9,6,3,2,2
2.94,0,6,8,11,5,1,1,0
2.945,5,29,12,11,4,0,1,5
2.95,2,7,0,17,3,0,2,0
2.955,1,12,17,23,4,3,1,1
2.96,8,24,14,12,3,4,6,1
2.965,6,10,3,1,3,2,2,4
2.97,3,11,12,37,5,1,1,3
2.975,1,24,19,1,4,3,1,4
2.98,3,10,3,13,3,2,2,6
2.985,7,21,7,1,1,1,0,6
2.99,3,3,16,4,2,1,4,4
2.995,1,25,7,10,2,1,1,0
3,3,1,7,1,4,2,3,0
3.005,2,8,9,3,7,4,1,3
3.01,3,23,4,9,0,3,1,1
3.015,3,33,2,2,2,4,2,5
3.02,1,12,15,8,6,5,4,1
3.025,2,11,3,2,2,1,2,1
3.03,1,8,6,4,4,3,1,1
3.035,4,0,11,7,6,6,2,2
3.04,7,22,18,12,0,1,0,0
3.045,10,27,3,3,7,3,3,2
3.05,3,0,7,36,4,1,1,3
3.055,3,21,20,30,10,7,2,3
3.06,2,16,8,15,2,1,1,3
3.065,2,8,3,5,5,2,1,2
3.07,0,3,1,5,2,3,0,3
3.075,0,9,14,19,0,1,2,2
3.08,5,1,10,11,1,3,2,0
3.085,2,11,12,14,3,0,1,1
3.09,3,8,3,11,0,0,1,0
3.095,4,10,2,6,2,1,2,5
3.1,2,16,1,4,1,2,2,5
3.105,2,1,9,4,5,2,1,1
3.11,1,6,9,15,3,0,0,0
3.115,0,8,12,9,5,4,3,1
3.12,0,14,8,2,3,2,1,0
3.125,11,6,2,15,3,2,0,3
3.13,4,21,9,22,4,3,1,6
3.135,0,4,15,2,8,2,0,1
3.14,3,19,4,21,3,1,2,2
3.145,7,5,18,12,4,4,5,1
3.15,1,2,2,9,2,1,2,1
3.155,1,8,4,6,4,0,2,1
3.16,5,4,12,3,6,4,1,1
3.165,1,14,3,3,6,3,2,1
3.17,8,13,4,0,0,1,3,0
3.175,2,3,9,4,2,1,4,1
3.18,1,30,38,13,8,0,4,8
3.185,3,24,23,5,2,8,0,7
3.19,1,13,10,7,1,0,0,2
3.195,6,19,8,5,2,1,2,3
3.2,1,20,5,1,1,1,0,1
3.205,3,11,3,3,1,1,3,3
3.21,6,3,12,6,2,2,0,3
3.215,3,9,7,0,2,0,1,1
3.22,4,24,17,1,1,1,2,3
3.225,0,19,35,1,3,3,1,1
3.23,6,11,13,4,7,7,3,2
3.235,3,14,5,8,4,2,0,3
3.24,9,24,0,11,9,6,4,2
3.245,1,4,20,11,8,4,2,1
3.25,2,0,5,4,2,0,0,1
3.255,4,3,23,8,0,1,2,4
3.26,5,18,15,9,3,1,2,0
3.265,16,25,18,17,7,5,4,12
3.27,5,1,0,7,1,3,2,3
3.275,7,1,5,9,0,2,0,0
3.28,9,21,14,15,1,2,0,6
3.285,6,11,17,16,3,4,4,1
3.29,5,10,3,22,3,3,4,4
3.295,5,7,25,8,2,3,0,1
3.3,1,33,16,16,2,0,2,0
3.305,9,33,6,12,1,0,2,1
3.31,4,5,6,4,0,0,0,3
3.315,3,22,1,5,3,4,4,2
3.32,3,12,4,5,2,0,2,3
3.325,12,5,3,6,3,4,3,11
3.33,15,22,4,2,1,2,2,4
3.335,14,6,16,10,3,5,4,18
3.34,2,25,6,14,4,2,1,3
3.345,8,6,8,3,3,1,2,1
3.35,5,1,2,5,0,1,2,12
3.355,5,17,3,4,3,2,4,2
3.36,1,4,6,4,0,0,1,3
3.365,4,15,0,6,0,0,3,1
3.37,5,18,8,6,3,2,0,4
3.375,7,35,30,3,1,3,2,4
3.38,2,14,18,9,9,3,3,6
3.385,1,13,0,20,8,4,3,0
3.39,0,2,6,2,1,0,2,3
3.395,1,9,16,8,4,0,1,2
3.4,8,11,19,31,2,5,4,1
3.405,1,16,8,6,0,4,3,5
3.41,0,26,18,6,1,1,0,2
3.415,4,5,15,7,1,1,1,7
3.42,3,2,8,14,4,3,0,1
3.425,3,14,3,2,3,2,2,6
3.43,0,56,23,5,4,2,3,2
3.435,7,48,21,2,1,3,1,1
3.44,3,11,40,5,1,2,1,2
3.445,5,2,9,4,1,2,2,3
3.45,8,4,6,3,1,1,1,4
3.455,3,23,19,0,4,7,3,5
3.46,4,6,12,3,0,1,1,0
3.465,1,4,0,2,6,0,1,3
3.47,3,3,5,4,2,1,2,2
3.475,1,23,3,21,3,1,3,0
3.48,4,16,11,23,3,1,1,2
3.485,1,5,20,9,3,1,2,1
3.49,1,22,23,3,2,2,3,4
3.495,2,1,4,1,2,1,0,2
3.5,13,5,1,20,3,3,1,0
3.505,0,9,6,0,4,4,3,5
3.51,42,3,10,14,0,3,1,5
3.515,14,8,7,7,0,0,0,3
3.52,5,12,3,7,1,1,1,0
3.525,2,38,14,13,2,2,3,2
3.53,11,12,26,0,1,0,0,2
3.535,1,3,7,5,2,1,2,1
3.54,14,8,12,5,4,5,1,2
3.545,7,14,5,8,4,1,2,3
3.55,2,1,21,2,3,3,3,1
3.555,5,10,7,6,1,2,2,3
3.56,12,33,16,3,6,4,6,1
3.565,14,29,0,2,1,2,2,1
3.57,7,19,1,4,2,0,2,1
3.575,5,4,12,4,1,1,2,2
3.58,3,8,6,6,4,4,3,3
3.585,4,1,1,4,3,0,1,1
3.59,16,7,14,1,1,1,1,1
3.595,8,10,3,2,6,2,1,1
3.6,5,7,10,1,2,2,2,1
3.605,4,10,1,0,2,2,1,1
3.61,10,16,15,12,3,3,3,1
3.615,10,4,5,9,0,1,1,1
3.62,3,7,8,17,6,3,1,1
3.625,21,4,31,5,4,5,2,4
3.63,41,51,11,11,3,2,2,5
3.635,6,8,21,7,2,0,1,1
3.64,7,8,0,8,1,4,2,3
3.645,1,8,16,19,3,5,5,1
3.65,4,36,6,23,8,1,5,2
3.655,8,18,24,9,1,3,2,0
3.66,0,10,9,9,0,5,0,1
3.665,1,8,2,7,3,5,0,1
3.67,9,0,1,4,1,2,1,2
3.675,7,22,2,6,0,3,1,2
3.68,4,31,12,5,2,1,2,3
3.685,6,8,1,10,2,0,1,1
3.69,7,4,6,8,5,5,0,1
3.695,2,15,6,27,0,1,6,8
3.7,9,24,8,1,9,4,1,1
3.705,9,26,7,3,1,0,0,2
3.71,0,17,5,6,0,2,0,2
3.715,2,4,1,8,2,2,0,1
3.72,0,8,6,7,1,3,2,1
3.725,3,4,2,0,0,0,2,4
3.73,7,8,2,3,1,4,4,0
3.735,5,22,18,10,1,2,4,3
3.74,12,25,3,17,1,6,3,3
3.745,1,7,5,25,16,6,1,2
3.75,3,12,2,9,5,3,3,2
3.755,7,16,2,21,1,3,1,1
3.76,5,7,1,8,1,5,2,4
3.765,2,16,1,10,1,0,1,3
3.77,2,9,19,0,5,1,1,0
3.775,2,12,31,22,2,2,2,1
3.78,0,19,2,10,6,0,3,0
3.785,0,11,5,4,3,1,1,1
3.79,0,9,18,4,1,3,3,1
3.795,3,3,9,19,3,3,5,1
3.8,6,4,4,5,1,4,2,3
3.805,2,9,12,20,4,3,1,1
3.81,4,1,0,8,5,0,1,3
3.815,5,6,4,1,1,1,1,0
3.82,3,26,0,5,2,3,5,0
3.825,4,32,9,2,3,0,1,4
3.83,7,16,10,2,3,0,1,4
3.835,0,9,1,11,5,3,1,1
3.84,8,16,9,24,8,1,1,1
3.845,2,15,9,11,5,2,2,3
3.85,2,16,8,16,5,0,2,0
3.855,2,21,5,13,3,2,2,1
3.86,6,11,19,10,1,2,1,0
3.865,4,21,3,7,4,2,0,1
3.87,0,2,4,21,4,0,0,1
3.875,1,5,1,15,3,4,4,2
3.88,4,21,2,7,7,3,0,1
3.885,1,1,10,1,1,1,1,1
3.89,0,16,3,12,3,1,3,3
3.895,1,9,8,6,2,4,3,1
3.9,6,32,5,4,2,1,1,2
3.905,11,8,13,4,3,0,3,5
3.91,5,23,29,9,1,5,4,2
3.915,11,5,6,1,3,0,1,1
3.92,0,19,4,8,4,2,2,1
3.925,4,23,9,1,4,3,0,0
3.93,1,11,12,0,1,1,1,0
3.935,1,3,12,2,3,3,3,2
3.94,6,23,28,4,0,0,2,2
3.945,6,12,9,9,2,2,3,1
3.95,11,7,8,16,2,0,1,4
3.955,1,10,1,8,5,2,1,1
3.96,3,1,14,3,1,2,3,4
3.965,1,12,12,5,1,1,0,1
3.97,3,22,8,1,0,0,0,1
3.975,2,6,9,4,4,2,1,4
3.98,2,6,21,13,1,1,0,1
3.985,5,19,27,11,6,2,2,4
3.99,1,6,11,26,6,1,1,0
3.995,0,5,12,9,2,4,4,0
4,9,3,11,2,3,2,2,3
4.005,7,81,4,6,0,2,2,1
4.01,1,12,4,6,1,2,2,1
4.015,2,14,7,6,1,1,3,2
4.02,6,6,12,5,5,4,2,0
4.025,1,17,6,2,3,5,4,3
4.03,4,17,2,5,0,1,1,3
4.035,5,7,6,2,2,3,1,1
4.04,3,1,3,0,3,0,0,1
4.045,2,6,16,7,0,1,2,1
4.05,0,8,11,16,2,0,2,3
4.055,2,8,7,19,12,0,2,2
4.06,3,4,2,7,2,2,1,1
4.065,2,7,12,6,2,2,1,3
4.07,1,21,11,3,1,2,0,2
4.075,6,1,25,1,1,2,0,0
4.08,5,2,8,8,2,2,0,1
4.085,1,12,18,8,4,2,3,1
4.09,4,33,2,3,3,2,1,0
4.095,1,24,1,0,1,0,1,1
4.1,5,15,13,5,1,1,1,1
4.105,0,15,4,4,6,1,0,0
4.11,1,9,13,2,3,0,1,1
4.115,6,15,9,1,3,1,3,2
4.12,2,6,14,9,2,2,1,0
4.125,4,5,5,2,1,1,0,0
4.13,0,14,9,5,1,4,3,1
4.135,5,6,6,13,6,3,2,1
4.14,6,24,6,4,6,3,1,2
4.145,4,11,8,4,4,2,1,1
4.15,8,26,12,3,5,0,1,0
4.155,2,1,12,2,2,0,1,4
4.16,1,4,9,10,6,3,4,0
4.165,0,0,4,4,2,3,1,3
4.17,3,5,3,2,5,1,2,2
4.175,2,9,10,14,1,2,1,0
4.18,5,16,2,12,0,2,0,1
4.185,4,10,11,2,3,2,1,3
4.19,8,18,3,27,7,1,2,2
4.195,1,14,12,43,8,3,2,1
4.2,0,10,15,35,5,5,5,4
4.205,1,8,4,22,7,6,4,2
4.21,2,20,12,6,2,1,2,1
4.215,10,1,7,30,12,4,2,2
4.22,0,13,28,24,5,3,0,1
4.225,0,15,4,25,3,3,2,1
4.23,6,9,3,12,0,3,2,3
4.235,7,12,1,23,10,0,1,3
4.24,6,16,20,7,4,2,2,0
4.245,1,21,7,8,4,1,1,1
4.25,3,7,17,10,4,1,1,0
4.255,13,46,12,45,8,3,0,3
4.26,2,5,10,1,4,0,1,2
4.265,0,5,1,7,3,1,1,1
4.27,1,3,25,22,4,0,1,0
4.275,7,8,28,33,5,2,5,4
4.28,2,4,10,11,11,5,3,1
4.285,1,12,3,3,1,2,1,0
4.29,3,17,13,11,3,3,4,2
4.295,0,46,1,26,0,2,1,0
4.3,1,6,8,4,1,1,2,2
4.305,5,3,7,6,5,2,4,1
4.31,8,13,4,9,1,2,1,1
4.315,0,4,3,3,3,4,3,1
4.32,9,6,7,25,4,2,1,3
4.325,2,26,2,1,2,6,2,0
4.33,11,1,19,43,0,4,0,3
4.335,8,9,15,17,10,1,2,1
4.34,4,4,8,1,1,1,1,1
4.345,9,13,8,3,5,1,3,1
4.35,3,6,7,3,0,1,0,1
4.355,3,14,14,1,4,2,1,3
4.36,2,8,5,6,3,3,3,2
4.365,5,4,8,7,3,4,3,0
4.37,11,27,17,1,0,0,3,2
4.375,6,13,26,5,1,1,1,2
4.38,2,14,49,13,8,3,2,2
4.385,5,8,8,8,3,2,1,1
4.39,4,25,8,11,4,4,0,1
4.395,2,10,5,9,7,0,0,0
4.4,4,7,9,22,1,1,2,1
4.405,0,14,9,6,1,4,4,2
4.41,12,18,2,6,3,0,1,5
4.415,5,10,25,8,1,2,0,1
4.42,0,5,16,7,4,2,0,3
4.425,1,12,2,3,5,1,2,3
4.43,6,2,0,4,3,3,2,3
4.435,5,6,3,4,0,1,2,1
4.44,24,35,26,2,2,4,5,20
4.445,1,19,16,14,3,1,1,5
4.45,9,3,8,11,1,1,1,3
4.455,6,16,2,7,4,1,2,3
4.46,3,3,4,6,0,0,2,12
4.465,9,1,4,4,1,2,3,12
4.47,17,31,3,1,2,2,0,5
4.475,3,19,1,1,0,2,5,6
4.48,4,10,3,4,0,1,1,5
4.485,4,10,3,5,3,1,1,3
4.49,13,12,7,13,1,2,1,8
4.495,3,16,2,4,1,2,2,1
4.5,0,13,13,5,3,0,0,1
4.505,8,2,5,16,2,2,1,1
4.51,2,17,29,5,5,2,4,2
4.515,4,11,6,0,2,2,2,5
4.52,8,0,1,3,0,2,0,7
4.525,2,3,7,21,5,1,0,4
4.53,17,28,2,12,2,0,1,9
4.535,6,16,22,1,0,0,2,1
4.54,13,16,14,4,2,0,2,8
4.545,3,12,20,4,6,5,4,5
4.55,1,34,38,9,5,3,2,2
4.555,7,1,8,8,3,1,2,2
4.56,0,8,7,3,1,2,1,1
4.565,9,8,2,4,2,1,1,5
4.57,9,5,7,1,1,2,1,0
4.575,5,8,6,5,1,3,0,1
4.58,1,5,7,1,0,0,0,1
4.585,8,7,5,10,1,0,3,3
4.59,1,19,10,5,1,0,1,3
4.595,2,2,1,2,1,1,2,0
4.6,3,7,2,3,3,0,2,1
4.605,2,2,2,1,1,4,0,3
4.61,2,2,20,1,2,2,2,4
4.615,3,5,16,6,1,3,4,3
4.62,12,52,17,6,3,2,0,2
4.625,4,6,10,10,3,2,1,0
4.63,1,6,6,6,10,2,2,2
4.635,2,16,22,4,1,3,2,3
4.64,2,23,2,9,3,4,2,3
4.645,20,32,23,8,1,2,0,3
4.65,1,14,12,3,4,4,3,3
4.655,2,2,1,6,1,1,0,1
4.66,3,7,5,5,1,3,1,0
4.665,3,20,5,5,4,4,4,0
4.67,3,49,5,3,2,1,1,0
4.675,0,7,6,7,5,4,3,2
4.68,0,12,12,10,0,1,2,2
4.685,1,12,10,3,1,1,0,1
4.69,6,2,3,4,0,3,4,4
4.695,6,6,13,6,5,2,2,2
4.7,13,32,4,6,4,2,2,3
4.705,8,23,10,4,2,2,2,0
4.71,6,1,15,13,2,0,0,5
4.715,14,19,15,2,1,3,1,11
4.72,3,26,7,6,3,2,2,0
4.725,9,37,26,13,9,4,4,14
4.73,3,10,44,5,3,0,2,0
4.735,4,26,3,7,1,2,1,0
4.74,7,13,0,2,2,3,1,3
4.745,23,30,8,4,0,3,2,7
4.75,17,21,1,6,1,2,3,5
4.755,2,5,13,8,5,3,6,11
4.76,7,1,2,3,1,1,1,5
4.765,4,19,13,6,2,0,1,1
4.77,30,28,8,4,1,3,2,12
4.775,30,14,6,19,6,4,4,2
4.78,12,26,3,13,4,6,9,28
4.785,5,15,6,4,1,2,4,10
4.79,1,24,35,6,1,6,8,10
4.795,4,14,4,1,1,1,0,6
4.8,15,13,9,3,4,1,0,31
4.805,1,47,16,4,2,1,1,0
4.81,1,11,9,1,1,4,3,10
4.815,6,21,11,3,0,2,1,4
4.82,5,16,10,14,3,2,4,6
4.825,11,13,5,3,4,1,5,7
4.83,9,0,18,7,1,3,0,5
4.835,10,8,28,13,3,6,3,3
4.84,6,78,1,0,2,2,0,6
4.845,20,38,17,4,0,1,4,2
4.85,6,2,10,0,4,6,14,11
4.855,3,10,30,4,2,0,1,2
4.86,7,7,14,3,6,0,2,3
4.865,5,13,9,0,0,1,2,6
4.87,2,22,3,1,3,1,1,1
4.875,13,39,7,8,2,2,0,3
4.88,14,15,2,11,1,2,1,3
4.885,1,13,2,3,2,0,0,7
4.89,3,32,1,5,1,1,1,3
4.895,11,35,10,5,3,0,3,1
4.9,9,3,8,1,2,1,1,5
4.905,6,22,7,2,0,0,4,3
4.91,3,9,2,6,2,1,1,4
4.915,9,0,9,7,4,1,3,9
4.92,1,2,5,3,1,2,2,3
4.925,3,6,1,11,1,1,2,3
4.93,16,8,3,34,6,1,1,1
4.935,12,13,16,4,2,2,1,1
4.94,3,55,0,2,2,1,0,3
4.945,5,10,12,7,1,1,2,4
4.95,1,27,18,17,6,4,4,1
4.955,1,13,12,6,7,0,2,4
4.96,3,24,1,2,1,3,3,7
4.965,1,7,10,1,2,3,2,3
4.97,19,52,3,9,2,2,2,23
4.975,9,31,3,17,5,3,3,10
4.98,5,10,27,9,1,0,1,3
4.985,1,0,27,13,6,3,1,4
4.99,2,1,0,1,4,0,0,2
4.995,1,5,4,6,1,2,1,3
5,13,1,0,1,2,0,1,9
5.005,18,30,5,3,1,0,4,7
5.01,4,13,10,1,0,3,1,2
5.015,6,13,26,3,0,1,1,1
5.02,1,13,15,3,4,4,0,3
5.025,4,27,39,43,9,4,2,2
5.03,3,12,36,11,1,1,1,2
5.035,14,19,3,1,3,3,2,2
5.04,4,22,8,11,1,0,2,2
5.045,1,18,11,8,0,0,1,0
5.05,2,1,7,1,1,0,1,5
5.055,13,10,3,5,0,0,2,15
5.06,4,10,5,1,2,1,2,3
5.065,1,17,20,15,0,0,2,1
5.07,0,15,23,12,4,4,0,5
5.075,16,6,7,5,3,0,0,4
5.08,6,31,24,5,7,3,0,2
5.085,1,2,8,45,8,6,7,17
5.09,7,0,10,15,0,2,3,14
5.095,15,18,10,3,0,0,4,17
5.1,4,34,1,3,0,0,2,3
5.105,8,2,12,16,3,3,1,5
5.11,3,33,16,0,1,2,1,8
5.115,1,6,4,11,2,1,1,1
5.12,3,11,2,2,5,2,0,3
5.125,3,21,5,26,4,5,1,0
5.13,11,14,17,7,2,1,2,5
5.135,8,2,15,2,0,2,2,8
5.14,5,6,2,13,4,3,1,4
5.145,1,11,8,8,2,1,0,5
5.15,4,3,11,21,6,3,7,8
5.155,4,7,21,25,6,2,1,2
5.16,7,6,53,76,13,4,0,7
5.165,8,27,8,23,4,1,1,5
5.17,5,10,28,10,3,2,1,4
5.175,3,15,8,17,1,3,2,1
5.18,1,44,11,5,7,4,5,2
5.185,6,27,10,6,3,2,1,9
5.19,3,1,18,9,2,2,1,11
5.195,7,16,24,45,5,2,1,2
5.2,10,5,21,36,7,3,5,1
5.205,10,16,17,32,5,2,3,3
5.21,25,50,73,88,35,17,10,14
5.215,0,3,9,29,6,2,5,9
5.22,6,7,24,61,4,2,1,6
5.225,4,24,10,17,6,0,1,2
5.23,5,20,16,53,16,11,4,6
5.235,0,12,45,47,7,5,3,2
5.24,22,15,0,28,7,4,3,14
5.245,33,20,10,35,14,10,4,19
5.25,10,5,32,24,0,0,0,2
5.255,11,11,9,6,4,1,3,1
5.26,12,6,14,24,5,9,8,3
5.265,23,4,14,27,9,8,7,0
5.27,6,22,45,98,21,9,8,6
5.275,1,4,7,23,2,2,4,0
5.28,16,8,2,17,0,0,2,6
5.285,17,7,4,59,6,1,2,12
5.29,10,30,13,62,4,0,0,13
5.295,25,22,2,27,1,2,3,19
5.3,22,9,7,22,3,4,0,23
5.305,3,1,5,5,0,3,1,21
5.31,6,23,33,18,8,6,6,16
5.315,22,6,1,4,5,4,4,10
5.32,10,9,12,1,4,1,1,3
5.325,25,42,4,4,2,2,2,3
5.33,23,13,24,78,11,1,1,17
5.335,17,20,13,22,6,1,1,1
5.34,3,10,3,12,3,4,2,1
5.345,24,7,2,20,8,4,7,16
5.35,8,27,17,34,14,9,7,7
5.355,20,31,2,13,8,5,5,15
5.36,5,6,8,4,1,1,3,8
5.365,1,15,0,20,3,1,0,1
5.37,0,1,16,44,1,3,4,3
5.375,6,25,5,20,1,2,2,6
5.38,6,1,14,3,1,2,0,1
5.385,0,12,4,24,6,7,6,5
5.39,1,6,1,2,2,0,0,2
5.395,11,12,6,11,6,1,0,11
5.4,15,3,16,24,1,1,1,4
5.405,25,4,7,13,2,1,0,7
5.41,16,8,13,17,3,2,1,3
5.415,1,11,17,11,0,6,3,0
5.42,23,4,17,21,1,6,0,13
5.425,22,10,9,1,2,1,1,8
5.43,1,35,1,4,3,2,4,7
5.435,2,8,12,2,3,3,1,1
5.44,1,34,15,15,4,4,1,1
5.445,9,3,21,46,8,7,6,8
5.45,11,1,21,8,2,0,2,7
5.455,15,17,2,7,2,0,3,29
5.46,10,10,15,13,2,3,2,12
5.465,21,13,1,20,3,3,6,21
5.47,29,4,14,3,2,4,6,20
5.475,4,4,7,2,3,2,4,13
5.48,1,10,4,1,2,0,2,2
5.485,2,4,12,10,2,4,5,6
5.49,7,0,7,3,4,0,2,10
5.495,7,3,17,10,1,1,3,6
5.5,1,19,8,21,3,2,5,9
5.505,8,0,43,15,6,1,3,7
5.51,1,2,98,18,1,5,4,4
5.515,2,4,37,11,1,1,2,5
5.52,22,9,2,1,4,3,6,19
5.525,24,3,3,10,3,4,12,13
5.53,17,1,33,2,0,3,4,1
5.535,16,10,4,0,2,3,17,7
5.54,45,7,9,20,3,0,3,19
5.545,22,27,5,11,2,4,1,11
5.55,8,4,15,23,6,2,13,15
5.555,3,1,18,15,1,1,24,4
5.56,1,6,4,28,1,1,14,1
5.565,5,2,13,14,8,13,5,7
5.57,14,23,12,21,8,6,10,7
5.575,22,38,1,15,5,9,17,8
5.58,7,29,63,98,21,17,5,6
5.585,1,4,10,29,6,3,19,14
5.59,4,6,14,15,9,8,6,16
5.595,29,8,12,1,4,1,1,38
5.6,24,12,5,39,7,5,2,22
5.605,30,20,7,5,1,1,6,26
5.61,21,4,2,2,1,3,12,3
5.615,34,4,36,32,0,3,2,11
5.62,1,21,22,19,1,0,1,1
5.625,5,23,26,8,1,4,2,5
5.63,14,34,98,83,24,10,9,2
5.635,32,20,10,14,2,1,6,26
5.64,25,7,14,31,3,1,4,24
5.645,3,11,3,0,8,9,0,11
5.65,7,21,17,2,1,0,3,15
5.655,1,51,32,31,7,4,7,4
5.66,3,18,3,18,1,3,10,7
5.665,4,2,4,16,1,1,2,11
5.67,3,16,4,15,10,5,7,11
5.675,12,7,21,18,2,0,1,6
5.68,15,2,60,80,10,3,2,5
5.685,19,33,8,9,11,8,4,9
5.69,10,30,35,53,12,12,8,6
5.695,1,14,15,12,6,6,2,2
5.7,20,1,34,56,3,0,2,15
5.705,3,11,21,30,6,2,6,6
5.71,13,13,2,39,10,6,3,7
5.715,14,7,4,21,4,5,3,11
5.72,14,2,7,8,0,2,7,5
5.725,0,6,22,28,8,7,6,12
5.73,4,27,6,36,6,5,8,12
5.735,1,7,11,56,10,4,1,7
5.74,5,7,4,3,8,3,2,2
5.745,29,13,17,18,1,1,1,23
5.75,67,12,17,58,2,4,12,34
5.755,58,23,13,77,16,12,20,45
5.76,30,1,19,42,9,1,3,19
5.765,4,14,17,61,14,9,9,7
5.77,19,8,20,4,7,5,10,26
5.775,22,5,52,21,5,4,2,10
5.78,2,61,16,49,7,5,6,1
5.785,8,11,16,68,9,2,4,13
5.79,15,16,54,76,17,10,7,23
5.795,1,45,21,25,9,8,0,10
5.8,30,9,7,14,1,2,3,16
5.805,12,12,17,11,1,1,4,21
5.81,45,18,31,52,11,1,3,5
5.815,37,15,13,9,2,4,1,7
5.82,2,1,1,6,11,7,1,8
5.825,3,16,2,5,5,6,8,5
5.83,23,6,29,73,3,1,2,0
5.835,20,19,53,100,24,16,8,2
5.84,2,17,21,19,1,3,32,6
5.845,0,1,7,11,3,1,10,6
5.85,19,14,4,18,4,4,7,5
5.855,8,2,3,7,0,2,26,6
5.86,4,9,2,12,5,4,15,9
5.865,8,7,22,20,0,6,49,8
5.87,5,27,7,16,5,2,12,5
5.875,5,47,35,49,5,4,0,12
5.88,10,10,33,33,1,5,19,3
5.885,11,50,24,55,5,1,16,3
5.89,17,34,77,96,27,14,23,3
5.895,85,19,22,10,2,0,18,18
5.9,13,12,15,42,7,2,18,3
5.905,15,10,2,8,3,6,3,12
5.91,9,23,29,33,8,1,2,11
5.915,17,1,5,28,6,2,1,4
5.92,6,20,2,17,2,0,12,8
5.925,6,1,32,94,12,2,16,4
5.93,28,23,36,18,0,1,30,19
5.935,35,3,21,28,1,1,13,11
5.94,31,7,4,15,7,5,10,6
5.945,15,6,11,20,1,3,3,2
5.95,7,7,47,63,11,1,9,5
5.955,21,20,32,55,5,1,19,10
5.96,27,26,15,38,3,1,14,3
5.965,10,2,9,3,2,1,7,3
5.97,20,19,39,59,3,5,24,5
5.975,7,24,38,62,13,10,64,11
5.98,72,31,27,8,8,7,1,12
5.985,17,7,13,5,2,3,1,7
5.99,6,3,16,43,8,4,9,11
5.995,52,11,16,29,3,1,8,6
6,25,15,6,10,2,0,4,2
6.005,9,52,5,7,2,2,7,4
6.01,1,1,9,21,9,4,2,2
6.015,10,11,11,22,2,3,5,9
6.02,56,13,18,68,15,5,8,5
6.025,106,32,0,1,6,8,2,37
6.03,9,4,2,13,0,6,8,4
6.035,2,14,31,22,6,0,2,10
6.04,22,0,18,38,6,9,14,15
6.045,39,18,12,44,7,2,5,6
6.05,34,23,0,15,7,2,8,2
6.055,7,8,36,18,4,4,4,18
6.06,23,4,25,17,4,1,4,1
6.065,0,12,7,4,1,1,1,4
6.07,21,1,1,3,3,2,9,4
6.075,19,0,22,0,3,3,11,17
6.08,3,5,8,17,4,4,4,0
6.085,12,1,1,27,1,0,5,9
6.09,14,1,11,19,7,2,8,1
6.095,43,27,7,20,6,6,17,18
6.1,12,17,7,21,8,5,11,11
6.105,18,4,3,35,8,2,5,3
6.11,34,7,1,16,3,1,4,2
6.115,9,1,3,19,4,7,8,10
6.12,29,23,7,25,6,3,3,5
6.125,64,22,13,17,0,5,4,8
6.13,33,5,12,5,3,7,4,16
6.135,22,4,17,15,3,0,6,9
6.14,13,9,26,14,1,3,5,9
6.145,51,9,22,2,1,5,2,28
6.15,10,6,22,14,5,5,9,17
6.155,71,23,6,6,4,7,6,30
6.16,6,3,10,5,0,0,2,9
6.165,3,10,2,7,7,6,4,10
6.17,2,8,9,12,1,0,3,21
6.175,30,8,11,0,1,2,4,6
6.18,9,3,1,2,4,4,4,5
6.185,9,1,8,5,2,4,2,3
6.19,11,35,2,9,7,3,5,4
6.195,12,8,13,9,2,2,3,7
6.2,23,19,12,1,3,0,0,7
6.205,5,24,1,3,3,1,0,6
6.21,12,12,19,1,1,1,9,5
6.215,20,15,7,5,0,1,3,9
6.22,0,38,25,14,1,1,0,6
6.225,5,5,4,4,0,0,3,5
6.23,3,36,25,17,8,6,4,10
6.235,40,4,16,4,2,2,6,29
6.24,61,27,26,6,2,2,1,24
6.245,21,20,11,9,7,5,8,13
6.25,4,3,29,7,2,2,1,9
6.255,4,5,21,18,4,5,4,2
6.26,16,6,9,22,2,2,4,12
6.265,4,12,12,5,2,1,3,15
6.27,26,14,8,17,4,3,0,16
6.275,26,3,30,35,7,3,3,11
6.28,29,17,49,22,2,4,0,6
6.285,4,15,40,2,11,9,3,1
6.29,13,14,5,13,8,5,3,6
6.295,11,3,7,35,8,4,6,3
6.3,33,1,19,30,6,5,4,7
6.305,45,13,15,35,9,4,2,8
6.31,12,21,14,17,7,8,8,32
6.315,4,4,21,2,2,2,4,3
6.32,7,9,8,30,5,2,3,9
6.325,46,11,28,24,2,2,0,16
6.33,3,30,69,1,1,3,3,4
6.335,33,1,22,31,7,1,3,15
6.34,5,14,10,13,14,7,23,6
6.345,15,5,42,62,14,11,5,23
6.35,9,2,17,0,4,2,4,13
6.355,2,23,5,6,3,3,1,8
6.36,8,22,1,47,16,8,14,25
6.365,14,19,4,28,1,2,8,32
6.37,7,54,2,35,2,2,1,7
6.375,5,26,21,93,12,3,8,2
6.38,25,3,16,29,4,1,1,10
6.385,5,8,17,37,2,5,1,11
6.39,8,4,38,50,0,2,1,1
6.395,3,4,18,25,6,2,2,2
6.4,1,21,3,8,1,2,1,4
6.405,7,4,10,2,1,0,0,5
6.41,4,24,13,26,5,3,2,2
6.415,3,21,15,25,1,1,3,2
6.42,6,5,9,17,16,9,4,10
6.425,11,12,8,15,8,3,1,6
6.43,4,11,21,12,7,6,3,5
6.435,10,16,1,16,4,4,4,3
6.44,7,4,23,26,11,3,5,1
6.445,3,8,27,1,1,0,1,0
6.45,5,8,7,11,2,1,3,1
6.455,1,2,12,17,7,3,0,5
6.46,2,19,29,1,0,0,1,1
6.465,0,20,12,5,2,1,3,2
6.47,4,2,29,10,0,1,1,3
6.475,2,28,40,31,3,4,3,1
6.48,14,4,8,4,1,2,2,1
6.485,11,76,65,32,10,9,10,22
6.49,8,23,20,1,2,1,7,32
6.495,12,49,17,40,4,1,0,14
6.5,7,31,8,28,2,2,2,3
6.505,16,82,18,16,1,3,1,8
6.51,11,10,29,4,0,6,6,10
6.515,25,26,5,5,0,1,7,16
6.52,42,19,16,2,2,4,4,14
6.525,4,5,26,11,1,0,2,15
6.53,0,21,6,11,3,0,2,0
6.535,28,27,24,2,3,3,4,29
6.54,10,7,14,10,2,1,1,14
6.545,12,6,1,3,0,4,20,0
6.55,9,1,9,4,2,1,10,8
6.555,8,22,12,2,1,2,13,2
6.56,11,49,5,15,3,6,9,13
6.565,2,6,22,5,3,2,5,5
6.57,25,84,60,4,7,12,10,6
6.575,5,106,95,7,4,6,3,13
6.58,7,76,11,41,13,3,1,4
6.585,7,22,16,18,2,9,6,25
6.59,13,27,51,19,4,5,3,10
6.595,12,66,55,15,0,0,1,3
6.6,9,10,1,13,1,2,0,5
6.605,22,37,38,13,1,2,0,7
6.61,3,12,5,18,8,4,4,2
6.615,11,4,15,0,5,1,3,12
6.62,12,2,15,15,3,1,3,1
6.625,15,33,15,1,1,2,7,13
6.63,2,36,32,1,1,7,8,8
6.635,21,32,9,5,1,0,1,8
6.64,16,7,5,7,0,1,1,4
6.645,19,52,27,3,1,3,4,5
6.65,0,6,3,2,6,2,5,2
6.655,0,14,27,11,0,2,4,3
6.66,9,10,4,10,1,2,2,6
6.665,8,10,3,1,1,3,4,3
6.67,9,9,5,9,1,3,1,12
6.675,25,15,2,5,7,7,4,13
6.68,4,58,17,0,0,1,4,4
6.685,5,19,22,3,2,1,1,8
6.69,3,28,4,1,0,3,4,5
6.695,6,36,22,3,2,0,1,7
6.7,9,1,9,9,0,1,1,8
6.705,6,9,5,7,3,2,2,0
6.71,2,15,47,8,1,2,2,1
6.715,7,24,69,17,6,3,5,5
6.72,0,16,43,15,2,2,1,3
6.725,0,3,9,2,3,2,5,1
6.73,24,20,10,0,3,4,3,4
6.735,9,2,4,3,4,2,4,7
6.74,9,38,10,3,4,3,1,2
6.745,1,17,18,2,2,1,0,1
6.75,14,32,1,2,1,2,4,1
6.755,18,37,2,6,3,1,2,13
6.76,50,8,23,10,3,5,3,32
6.765,7,34,13,1,8,4,2,0
6.77,21,20,17,3,2,1,1,24
6.775,40,23,12,2,7,6,9,41
6.78,30,2,7,1,5,4,1,20
6.785,1,24,11,5,4,1,0,0
6.79,17,6,13,8,7,5,6,1
6.795,26,40,8,1,1,1,5,19
6.8,28,70,12,1,5,3,0,7
6.805,12,7,19,2,1,0,1,2
6.81,25,1,2,2,1,4,3,8
6.815,5,26,6,1,3,3,1,4
6.82,19,34,7,1,0,4,4,3
6.825,14,31,0,1,3,1,3,3
6.83,12,15,52,10,2,0,0,10
6.835,52,27,27,4,3,0,2,2
6.84,19,15,30,1,2,4,4,2
6.845,1,25,45,3,2,2,3,1
6.85,5,33,45,5,3,1,0,3
6.855,19,8,60,16,4,3,1,10
6.86,20,0,4,5,3,4,6,27
6.865,19,48,11,2,3,5,8,31
6.87,10,11,31,5,0,1,2,4
6.875,10,9,27,8,2,1,2,4
6.88,22,10,15,5,5,2,5,8
6.885,13,11,10,2,4,0,3,13
6.89,6,32,16,1,3,2,2,6
6.895,3,6,14,0,1,2,3,4
6.9,3,50,16,2,1,3,3,6
6.905,10,23,26,1,0,3,5,10
6.91,6,7,9,1,4,1,2,17
6.915,6,16,29,6,5,6,7,38
6.92,21,28,7,2,3,2,4,5
6.925,21,24,19,3,5,4,8,11
6.93,6,8,10,1,2,1,4,0
6.935,12,27,26,6,0,2,1,8
6.94,5,54,26,1,3,1,0,2
6.945,5,5,9,1,0,0,3,2
6.95,15,2,55,4,4,3,3,10
6.955,13,11,22,3,2,1,0,6
6.96,5,12,6,17,2,5,3,10
6.965,15,53,25,2,5,5,6,16
6.97,23,50,30,8,7,4,5,7
6.975,10,7,20,8,7,2,3,8
6.98,9,19,19,1,8,4,3,3
6.985,3,0,20,8,0,0,2,14
6.99,8,15,7,3,5,2,2,1
6.995,9,17,21,14,10,8,7,10
7,8,48,10,2,3,1,1,8
7.005,8,19,11,7,2,2,5,21
7.01,9,23,7,6,2,1,1,1
7.015,4,9,8,9,0,2,0,6
7.02,4,40,44,7,4,4,6,8
7.025,5,15,35,40,7,4,2,12
7.03,11,6,2,7,0,2,4,18
7.035,4,0,12,1,2,1,2,4
7.04,31,22,14,4,0,1,0,3
7.045,43,4,9,11,1,5,5,5
7.05,12,49,30,3,5,5,4,7
7.055,21,34,20,1,4,0,2,5
7.06,15,7,0,1,1,1,1,12
7.065,9,53,29,3,0,0,1,10
7.07,12,79,2,1,7,2,7,15
7.075,3,9,16,11,5,3,1,1
7.08,6,6,22,1,4,1,1,7
7.085,22,14,29,4,1,1,1,20
7.09,4,18,7,1,3,5,1,0
7.095,8,33,19,1,1,2,2,2
7.1,13,0,26,0,1,4,6,4
7.105,1,24,5,0,2,0,3,24
7.11,1,4,8,2,2,1,2,3
7.115,7,5,6,1,3,1,1,3
7.12,12,14,19,8,3,1,1,0
7.125,1,46,20,14,3,1,3,10
7.13,12,13,28,15,3,2,0,1
7.135,19,36,36,16,0,0,4,12
7.14,2,27,11,35,14,5,2,2
7.145,19,15,13,4,2,4,2,0
7.15,35,5,19,4,0,1,1,9
7.155,36,17,11,6,1,1,3,0
7.16,6,7,20,15,7,0,1,5
7.165,4,59,17,17,2,1,1,7
7.17,6,4,16,17,4,2,0,0
7.175,2,15,21,11,5,5,6,23
7.18,1,5,6,12,4,1,2,2
7.185,19,26,6,0,4,6,4,6
7.19,13,3,22,20,8,3,3,1
7.195,23,16,13,1,5,2,1,10
7.2,18,1,1,8,4,3,6,23
7.205,13,2,15,1,2,1,2,6
7.21,12,2,5,5,1,3,3,7
7.215,11,19,5,11,1,2,2,3
7.22,4,1,2,7,3,3,7,4
7.225,5,45,3,19,5,7,11,9
7.23,6,13,0,1,2,3,6,22
7.235,15,1,0,15,9,8,14,5
7.24,19,18,22,14,5,0,2,5
7.245,7,25,17,17,9,9,10,8
7.25,7,43,23,0,0,1,7,11
7.255,4,7,9,31,3,1,4,6
7.26,7,5,3,10,1,4,11,9
7.265,7,13,6,10,1,1,12,8
7.27,6,27,9,14,9,7,5,13
7.275,4,7,3,5,1,2,0,4
7.28,8,1,2,1,1,4,3,1
7.285,1,16,11,11,3,1,9,2
7.29,16,39,8,19,3,1,2,5
7.295,3,0,18,0,2,0,2,8
7.3,1,11,3,7,3,3,1,7
7.305,17,21,21,6,0,0,1,1
7.31,2,11,7,9,4,3,11,13
7.315,4,5,3,6,0,1,5,7
7.32,10,7,8,20,1,1,5,9
7.325,13,13,8,6,7,6,4,0
7.33,3,11,9,34,7,3,2,0
7.335,1,14,24,11,2,4,6,1
7.34,0,33,20,4,3,4,6,5
7.345,0,58,15,10,0,0,1,2
7.35,12,40,9,31,2,3,4,2
7.355,13,7,10,4,2,3,1,5
7.36,12,12,6,13,3,2,4,10
7.365,1,3,14,7,2,3,0,2
7.37,1,5,7,6,1,1,0,5
7.375,9,7,7,6,1,0,0,1
7.38,10,1,5,22,3,1,1,3
7.385,3,40,6,13,2,2,1,0
7.39,2,25,17,7,0,0,0,1
7.395,2,2,24,11,2,1,1,4
7.4,8,22,12,9,2,0,1,8
7.405,1,2,33,16,5,2,2,3
7.41,4,2,1,1,3,4,2,6
7.415,16,11,17,2,2,0,3,27
7.42,11,29,8,1,3,0,0,3
7.425,3,8,4,8,1,5,6,0
7.43,2,12,3,0,4,1,1,6
7.435,2,5,21,2,2,1,2,5
7.44,3,16,1,5,1,2,0,2
7.445,4,9,6,3,1,1,1,4
7.45,4,13,2,1,1,1,1,2
7.455,4,2,11,3,1,1,2,1
7.46,11,46,7,2,2,0,2,7
7.465,32,34,8,2,4,5,12,24
7.47,5,20,2,2,0,1,0,7
7.475,5,16,10,14,2,2,2,10
7.48,2,8,17,32,5,3,3,3
7.485,4,11,1,25,5,2,0,4
7.49,9,10,4,1,6,0,0,1
7.495,6,22,6,0,6,4,2,4
7.5,2,22,10,13,6,2,0,1
7.505,10,24,11,9,0,1,0,0
7.51,8,1,7,8,3,0,0,8
7.515,6,17,8,1,1,3,1,9
7.52,3,14,3,2,2,2,3,6
7.525,14,8,1,1,2,2,4,23
7.53,29,11,7,3,5,6,10,28
7.535,8,1,21,5,3,1,0,5
7.54,11,14,9,1,5,3,3,2
7.545,10,15,9,2,0,0,2,5
7.55,5,11,3,2,1,0,1,2
7.555,8,5,10,6,2,1,2,2
7.56,7,12,1,2,1,1,4,4
7.565,2,22,0,0,1,1,2,1
7.57,7,14,21,5,3,2,1,0
7.575,1,73,1,9,4,0,2,2
7.58,12,9,31,9,5,1,0,1
7.585,3,17,7,2,2,2,2,6
7.59,1,4,16,3,2,3,2,0
7.595,9,15,10,5,2,0,2,3
7.6,4,2,17,3,4,4,0,4
7.605,9,12,2,0,3,2,1,4
7.61,11,3,5,6,2,1,1,4
7.615,11,20,13,2,2,2,2,0
7.62,3,6,13,7,3,4,8,7
7.625,2,13,2,1,1,1,1,3
7.63,2,10,21,0,1,1,3,4
7.635,4,23,9,7,4,2,1,6
7.64,9,23,1,3,1,1,2,2
7.645,1,16,10,3,0,1,3,0
7.65,5,3,38,9,5,3,1,1
7.655,13,12,10,2,5,3,0,8
7.66,6,2,0,2,1,2,0,8
7.665,14,11,4,3,2,1,3,28
7.67,4,12,12,4,1,3,1,3
7.675,2,37,5,3,1,2,2,3
7.68,2,3,12,4,0,0,0,0
7.685,1,5,6,3,2,2,1,6
7.69,5,22,18,2,1,2,1,3
7.695,5,0,2,4,2,3,3,2
7.7,17,22,6,0,4,4,4,5
7.705,15,7,1,3,3,3,0,13
7.71,24,3,13,10,4,3,7,27
7.715,10,17,3,20,0,1,2,17
7.72,6,19,10,20,3,6,4,6
7.725,16,17,29,7,6,6,5,2
7.73,6,14,1,1,3,1,2,9
7.735,1,3,3,2,4,3,1,2
7.74,1,9,7,17,2,5,5,7
7.745,1,18,12,5,2,2,1,1
7.75,8,4,9,4,1,2,1,3
7.755,3,6,2,7,3,3,1,1
7.76,2,2,9,22,7,3,2,2
7.765,5,23,1,8,3,4,2,1
7.77,2,9,3,5,3,2,2,1
7.775,3,16,0,7,0,1,0,4
7.78,2,6,2,33,7,5,2,7
7.785,16,10,19,20,1,0,1,6
7.79,17,1,14,27,8,4,6,5
7.795,5,25,7,24,7,5,4,12
7.8,2,5,7,61,13,5,1,2
7.805,11,5,20,7,4,2,1,5
7.81,7,40,34,27,3,1,0,11
7.815,2,12,4,18,3,1,1,6
7.82,11,12,8,4,4,2,5,10
7.825,20,10,20,4,3,1,2,7
7.83,5,1,6,14,2,1,0,10
7.835,3,9,2,2,3,1,0,5
7.84,1,23,2,5,3,0,1,1
7.845,6,24,14,6,2,3,1,3
7.85,0,8,3,4,3,1,1,0
7.855,6,1,1,5,1,0,2,4
7.86,2,28,21,17,3,1,1,1
7.865,12,5,16,7,5,2,3,6
7.87,13,8,1,8,0,0,3,9
7.875,22,9,3,4,5,2,2,3
7.88,31,21,5,5,2,1,2,14
7.885,1,11,11,12,4,4,6,5
7.89,13,2,5,11,4,2,3,8
7.895,1,27,1,5,3,1,1,9
7.9,3,4,17,1,2,0,1,3
7.905,2,69,10,16,1,1,3,2
7.91,6,9,6,9,10,6,6,0
7.915,3,19,23,45,5,0,4,6
7.92,7,15,17,13,1,2,2,0
7.925,3,26,32,12,1,3,2,5
7.93,10,3,5,24,5,1,1,1
7.935,10,14,13,7,3,3,1,7
7.94,15,11,8,10,2,1,2,8
7.945,29,0,17,11,0,2,1,7
7.95,5,1,2,10,2,2,7,8
7.955,0,23,15,3,2,1,1,2
7.96,11,19,13,1,4,2,2,14
7.965,19,43,0,16,0,4,10,40
7.97,2,6,29,76,11,6,1,0
7.975,6,3,11,25,0,2,3,0
7.98,14,25,5,8,3,2,0,0
7.985,11,22,2,1,1,2,3,19
7.99,6,29,14,23,4,2,5,9
7.995,10,31,4,9,2,2,10,29
8,10,5,2,4,1,1,1,3
8.005,1,12,14,19,9,4,3,1
8.01,22,6,15,21,2,4,1,13
8.015,26,0,1,5,3,0,3,4
8.02,18,9,4,8,7,6,2,5
8.025,1,4,5,5,1,3,2,3
8.03,10,46,45,9,2,0,3,7
8.035,11,0,25,11,1,3,3,8
8.04,6,21,18,14,3,4,4,5
8.045,12,3,25,12,4,5,3,2
8.05,1,11,10,11,5,3,3,1
8.055,13,13,11,13,2,1,2,10
8.06,24,17,11,22,3,2,6,18
8.065,6,21,8,1,1,2,2,1
8.07,3,5,16,10,1,5,5,11
8.075,3,46,12,9,3,1,2,6
8.08,9,4,10,12,3,0,3,6
8.085,17,10,6,3,3,2,1,20
8.09,17,18,3,4,4,3,3,18
8.095,2,45,24,9,5,1,3,1
8.1,2,6,1,9,1,4,2,2
8.105,1,28,17,2,0,1,2,8
8.11,5,13,18,2,0,2,3,6
8.115,4,27,2,1,1,1,1,1
8.12,3,1,22,28,1,3,3,0
8.125,0,0,18,14,2,0,4,3
8.13,4,2,9,48,8,5,5,3
8.135,4,4,11,5,1,0,0,4
8.14,2,0,15,1,0,1,1,5
8.145,4,28,4,14,1,6,3,8
8.15,2,28,5,12,5,3,1,4
8.155,2,15,13,3,5,6,3,4
8.16,0,2,7,4,5,2,1,4
8.165,2,3,14,2,4,3,4,3
8.17,0,5,15,6,2,4,0,5
8.175,3,27,26,0,4,1,1,3
8.18,8,0,16,10,0,0,2,4
8.185,3,22,29,36,12,5,4,3
8.19,4,27,0,4,3,0,2,1
8.195,9,16,1,9,1,1,0,1
8.2,0,13,13,12,3,0,1,2
8.205,1,4,25,17,2,3,2,3
8.21,1,15,33,16,2,2,0,0
8.215,4,1,15,33,9,8,5,8
8.22,2,2,9,4,6,1,3,0
8.225,1,22,19,13,2,2,2,3
8.23,4,17,9,1,1,0,1,4
8.235,4,37,4,24,6,2,0,1
8.24,12,10,23,18,5,2,4,0
8.245,3,1,25,5,2,2,1,1
8.25,2,15,36,2,1,4,2,3
8.255,3,13,32,8,4,6,4,4
8.26,1,38,62,36,4,2,1,1
8.265,5,4,53,83,21,13,8,12
8.27,0,8,1,19,2,5,4,8
8.275,4,9,9,0,3,2,1,3
8.28,0,12,10,7,2,0,0,4
8.285,2,26,29,45,7,1,1,1
8.29,7,26,14,29,5,2,4,7
8.295,0,27,15,16,2,1,0,1
8.3,0,9,25,20,1,3,4,2
8.305,2,14,11,1,2,2,1,1
8.31,15,10,10,12,7,6,2,3
8.315,19,47,22,1,1,0,2,11
8.32,3,31,7,2,1,0,7,1
8.325,2,15,2,5,2,2,12,14
8.33,3,2,19,19,0,3,2,2
8.335,3,3,4,12,1,0,2,4
8.34,5,23,0,17,4,1,4,4
8.345,26,4,22,31,4,1,3,23
8.35,36,4,24,2,5,1,4,36
8.355,16,23,4,19,2,2,1,3
8.36,4,11,16,20,3,3,2,1
8.365,2,7,3,17,7,2,2,3
8.37,3,10,5,5,5,3,2,5
8.375,1,30,6,5,0,3,1,1
8.38,2,5,1,4,8,7,3,5
8.385,1,3,8,24,2,2,1,4
8.39,8,48,4,9,4,7,3,4
8.395,8,4,36,14,8,3,3,5
8.4,2,6,3,15,3,1,1,4
8.405,6,5,13,5,1,0,2,5
8.41,12,15,11,12,2,4,2,0
8.415,5,41,18,13,0,1,5,1
8.42,1,4,1,16,5,4,3,4
8.425,14,5,12,18,5,1,0,9
8.43,8,0,7,2,3,2,1,4
8.435,6,12,5,8,3,1,5,3
8.44,11,6,20,42,7,1,2,2
8.445,26,23,11,34,3,1,5,13
8.45,29,9,2,21,4,5,5,10
8.455,11,16,30,13,1,1,12,2
8.46,34,51,57,14,2,4,21,23
8.465,10,2,10,8,2,1,1,4
8.47,27,3,9,12,0,1,3,16
8.475,1,5,11,7,1,2,3,7
8.48,2,2,23,6,0,2,4,5
8.485,50,4,31,3,6,7,36,29
8.49,58,5,8,2,8,9,12,34
8.495,1,8,1,17,1,3,70,23
8.5,11,15,14,41,8,7,9,14
8.505,14,7,14,18,1,2,1,0
8.51,55,95,52,10,0,4,20,16
8.515,26,4,38,6,1,2,10,6
8.52,53,25,41,47,6,4,0,19
8.525,53,41,52,50,9,4,6,16
8.53,2,9,3,27,7,7,20,9
8.535,0,16,3,1,0,4,16,20
8.54,7,6,20,26,4,0,5,10
8.545,9,16,20,19,0,2,20,6
8.55,5,31,33,19,4,4,11,10
8.555,1,24,11,19,6,10,6,3
8.56,12,28,20,5,4,10,32,18
8.565,56,12,23,7,3,2,6,24
8.57,16,20,44,3,2,8,75,18
8.575,18,3,9,2,3,1,20,15
8.58,12,7,12,11,5,4,4,4
8.585,92,47,21,5,2,0,5,4
8.59,79,13,13,1,1,2,10,9
8.595,5,50,8,7,2,2,4,7
8.6,15,3,12,1,1,1,4,1
8.605,23,23,9,3,2,4,10,1
8.61,37,3,14,6,1,2,8,14
8.615,9,21,8,13,1,4,5,1
8.62,38,12,14,1,4,2,2,10
8.625,11,8,4,4,2,4,12,3
8.63,4,1,10,1,0,2,6,4
8.635,21,19,6,2,8,3,2,7
8.64,8,13,10,5,0,0,10,0
8.645,32,25,18,4,6,3,6,5
8.65,20,8,2,6,2,2,10,8
8.655,3,15,14,4,1,0,0,1
8.66,7,1,3,1,3,5,7,3
8.665,25,22,4,6,1,1,2,7
8.67,3,8,13,10,2,1,4,1
8.675,7,1,9,1,0,1,1,1
8.68,8,24,1,21,7,3,4,4
8.685,5,11,8,7,1,0,3,1
8.69,1,17,26,28,20,7,2,3
8.695,5,12,11,6,1,0,4,2
8.7,13,14,14,21,1,3,1,1
8.705,13,14,13,24,3,2,2,2
8.71,8,19,2,1,6,3,3,1
8.715,29,33,12,37,9,0,2,4
8.72,19,102,41,20,20,8,5,9
8.725,9,21,32,1,4,1,5,1
8.73,15,12,14,26,2,0,5,6
8.735,5,33,17,18,3,1,2,1
8.74,0,35,30,41,13,4,2,2
8.745,3,41,10,6,6,8,7,4
8.75,2,17,13,10,1,1,1,1
8.755,11,17,9,2,1,4,1,2
8.76,0,18,4,15,4,5,8,0
8.765,19,24,23,20,16,6,2,2
8.77,0,42,68,25,22,10,3,1
8.775,5,10,3,39,7,3,1,0
8.78,3,56,39,26,9,4,2,2
8.785,4,9,9,2,8,3,0,0
8.79,22,18,30,32,20,7,0,2
8.795,31,36,18,10,4,2,4,5
8.8,2,10,19,1,1,2,1,0
8.805,3,16,4,22,1,2,2,2
8.81,38,0,25,48,12,8,2,7
8.815,4,74,26,7,2,1,0,2
8.82,4,25,50,25,7,0,2,3
8.825,4,5,17,26,5,0,2,3
8.83,19,11,40,1,9,1,0,5
8.835,6,54,75,31,6,2,1,0
8.84,7,1,20,14,1,0,2,1
8.845,10,39,3,8,8,2,1,0
8.85,16,24,27,8,5,2,2,2
8.855,20,5,31,39,10,3,1,7
8.86,5,5,30,34,11,4,2,2
8.865,1,15,12,18,1,0,0,2
8.87,13,14,8,8,12,6,1,1
8.875,8,5,11,5,22,9,4,1
8.88,2,8,16,8,8,4,2,2
8.885,2,10,1,49,8,3,2,5
8.89,59,3,18,31,9,4,1,3
8.895,13,18,9,1,1,4,1,2
8.9,6,82,15,1,0,3,3,3
8.905,4,25,5,2,14,5,4,0
8.91,22,4,18,26,3,2,1,1
8.915,7,19,2,25,1,2,3,1
8.92,8,3,4,16,1,2,0,4
8.925,6,35,5,16,1,3,2,1
8.93,20,11,5,3,10,1,2,0
8.935,13,33,16,3,0,1,0,0
8.94,11,23,8,7,3,3,5,0
8.945,7,17,34,4,6,1,2,2
8.95,9,10,19,0,9,5,3,3
8.955,3,33,7,1,10,5,1,4
8.96,2,28,5,7,6,6,2,2
8.965,3,39,31,14,17,7,2,1
8.97,4,10,19,47,5,1,3,3
8.975,8,11,15,5,7,5,5,2
8.98,6,4,4,12,2,1,3,2
8.985,2,1,8,14,5,2,3,0
8.99,23,15,18,17,5,1,0,0
8.995,25,9,3,4,2,2,1,3
9,19,14,22,14,2,4,1,1
9.005,13,30,1,11,2,2,0,4
9.01,6,34,14,1,6,4,3,4
9.015,14,15,3,5,2,2,3,1
9.02,1,20,15,11,8,4,1,1
9.025,5,10,7,41,11,4,3,1
9.03,1,81,24,3,3,1,4,2
9.035,5,13,2,4,3,2,2,1
9.04,2,29,8,14,5,1,2,1
9.045,6,6,7,5,3,1,3,1
9.05,3,28,10,1,4,1,3,4
9.055,1,14,3,3,0,2,1,2
9.06,0,14,10,6,3,3,2,3
9.065,10,0,13,8,10,5,1,2
9.07,3,5,4,4,6,4,2,1
9.075,5,9,42,8,9,3,4,5
9.08,9,13,4,10,8,1,3,3
9.085,13,56,16,1,4,1,1,4
9.09,7,13,18,10,0,2,3,1
9.095,9,17,17,2,1,1,2,1
9.1,4,1,1,7,6,6,3,0
9.105,14,11,24,28,4,0,3,0
9.11,9,37,38,28,8,3,3,5
9.115,7,8,3,15,4,1,1,1
9.12,4,13,6,0,3,5,0,1
9.125,1,31,20,4,2,3,1,0
9.13,3,7,14,8,4,2,2,2
9.135,22,37,27,3,1,2,2,3
9.14,4,4,3,3,2,1,0,1
9.145,16,3,35,4,2,2,1,4
9.15,22,2,43,5,1,4,4,7
9.155,3,13,10,3,9,3,0,1
9.16,6,49,22,15,9,1,1,3
9.165,14,3,20,3,11,7,4,1
9.17,10,25,33,6,1,0,2,1
9.175,6,19,5,6,3,1,2,1
9.18,2,7,35,1,1,0,2,2
9.185,2,24,59,13,7,0,1,2
9.19,2,15,10,0,3,2,3,4
9.195,1,9,19,5,4,4,3,4
9.2,4,1,2,2,6,2,2,3
9.205,0,5,10,9,2,3,2,3
9.21,23,12,6,6,2,1,1,4
9.215,12,63,2,1,3,1,0,4
9.22,2,5,18,10,20,8,3,6
9.225,32,27,13,3,4,2,0,5
9.23,12,1,16,1,1,0,2,4
9.235,19,1,4,3,6,3,1,4
9.24,15,25,16,5,7,2,2,1
9.245,12,39,11,6,4,2,1,1
9.25,3,56,14,1,3,0,1,1
9.255,10,3,14,1,4,3,0,1
9.26,32,13,50,0,0,1,3,4
9.265,25,2,11,4,3,0,0,6
9.27,20,15,4,2,0,1,0,1
9.275,6,57,22,7,9,10,10,13
9.28,4,7,19,1,5,6,5,5
9.285,23,10,2,6,4,7,4,17
9.29,14,76,30,7,6,8,6,27
9.295,73,25,60,10,3,2,9,53
9.3,9,48,24,9,7,10,12,33
9.305,9,57,4,11,2,1,1,3
9.31,15,33,9,8,3,4,3,5
9.315,23,42,31,4,4,6,8,33
9.32,7,24,17,19,1,5,0,10
9.325,1,49,31,15,6,0,5,35
9.33,5,43,64,16,21,6,1,64
9.335,37,7,63,8,7,5,9,69
9.34,10,51,26,32,6,8,5,26
9.345,14,17,10,18,2,0,9,51
9.35,4,2,8,2,3,4,9,5
9.355,27,44,25,1,1,3,3,3
9.36,6,54,88,10,1,2,1,8
9.365,33,22,64,23,4,2,2,29
9.37,18,3,1,4,1,6,4,13
9.375,13,31,33,4,2,2,8,40
9.38,6,16,84,17,10,8,4,3
9.385,24,18,27,7,1,4,1,9
9.39,0,47,16,2,3,5,2,18
9.395,37,25,2,3,8,0,1,19
9.4,13,27,46,2,1,6,4,5
9.405,23,72,37,15,5,1,5,6
9.41,17,36,85,2,4,4,5,11
9.415,37,19,10,5,4,2,2,5
9.42,45,12,35,15,13,13,12,37
9.425,31,3,41,11,10,9,9,4
9.43,27,48,73,10,2,6,1,39
9.435,33,3,42,14,3,5,1,34
9.44,42,6,34,3,1,2,6,15
9.445,9,79,39,16,7,5,4,2
9.45,36,10,42,15,5,4,1,12
9.455,31,52,16,3,2,6,9,1
9.46,8,22,40,15,7,11,8,17
9.465,34,13,60,5,11,6,4,0
9.47,29,58,69,17,4,7,6,6
9.475,9,2,44,14,0,4,5,22
9.48,2,23,106,18,2,0,2,7
9.485,4,21,3,0,2,3,3,6
9.49,12,77,41,19,4,1,3,15
9.495,26,53,4,9,1,0,2,5
9.5,2,26,77,23,6,0,2,8
9.505,7,5,29,5,4,7,3,8
9.51,22,13,76,7,0,2,4,25
9.515,11,79,35,11,6,1,0,0
9.52,3,5,71,14,8,3,4,4
9.525,12,23,0,1,1,4,1,13
9.53,10,14,34,3,1,2,5,8
9.535,8,20,5,8,2,1,2,2
9.54,1,65,24,10,0,0,2,1
9.545,1,8,46,4,4,6,8,5
9.55,8,0,22,1,5,1,0,3
9.555,18,46,32,5,1,2,3,7
9.56,9,86,64,23,3,6,5,21
9.565,5,51,27,8,2,0,2,11
9.57,1,35,11,0,3,1,2,7
9.575,2,21,20,11,0,4,0,3
9.58,20,116,24,24,10,2,5,3
9.585,1,53,102,38,4,3,2,6
9.59,8,40,50,3,8,5,4,6
9.595,2,9,14,22,5,1,2,5
9.6,34,14,41,6,1,3,2,3
9.605,11,7,11,12,7,0,2,0
9.61,10,8,10,1,4,2,3,0
9.615,5,18,17,4,2,4,3,5
9.62,8,17,11,3,7,2,0,2
9.625,2,0,10,9,2,3,4,2
9.63,9,17,9,15,4,3,2,4
9.635,6,37,38,10,1,2,2,8
9.64,1,6,29,17,11,7,2,2
9.645,4,41,27,14,0,0,1,2
9.65,2,23,15,7,0,0,4,7
9.655,4,1,8,0,2,0,4,0
9.66,8,20,34,6,0,2,1,7
9.665,6,2,28,4,1,2,4,0
9.67,10,0,4,19,12,8,1,3
9.675,9,3,25,22,12,3,4,2
9.68,2,1,55,30,20,8,1,1
9.685,8,8,15,1,1,2,1,4
9.69,0,38,34,1,3,2,2,1
9.695,1,22,11,9,8,0,2,1
9.7,2,4,55,19,3,1,1,2
9.705,1,3,16,5,3,1,2,5
9.71,5,18,22,7,8,0,3,1
9.715,9,3,26,0,33,9,4,6
9.72,9,7,17,15,2,1,0,4
9.725,3,11,3,3,3,4,2,4
9.73,10,45,26,4,8,4,2,4
9.735,9,53,4,11,13,5,0,1
9.74,1,16,20,33,4,2,0,0
9.745,12,3,4,11,4,0,3,1
9.75,5,3,1,61,37,10,2,2
9.755,29,57,56,1,5,2,5,3
9.76,11,3,6,2,3,0,3,2
9.765,3,1,3,21,7,1,0,1
9.77,13,11,8,13,0,2,1,1
9.775,11,14,28,10,3,1,1,1
9.78,0,0,35,12,1,0,2,0
9.785,5,90,11,6,1,1,3,1
9.79,7,5,40,10,4,1,2,1
9.795,0,22,22,7,2,1,1,3
9.8,2,3,21,5,1,0,1,4
9.805,7,17,5,10,6,4,4,3
9.81,3,3,23,10,1,3,1,1
9.815,13,14,9,9,6,2,1,1
9.82,4,18,22,8,3,0,3,1
9.825,8,9,11,11,5,3,3,1
9.83,4,24,9,13,0,2,4,0
9.835,0,3,10,1,1,1,2,1
9.84,2,39,6,9,4,1,0,1
9.845,19,31,33,9,9,4,2,2
9.85,3,9,43,43,13,1,1,2
9.855,7,35,7,37,11,3,1,1
9.86,7,8,26,5,1,2,1,2
9.865,13,8,16,5,1,2,2,0
9.87,30,12,7,2,0,2,2,3
9.875,2,9,26,12,4,1,1,2
9.88,5,23,17,3,3,3,1,4
9.885,3,25,18,2,1,0,1,1
9.89,13,17,4,2,3,1,2,2
9.895,1,33,40,14,10,7,4,2
9.9,7,95,19,38,6,1,1,1
9.905,3,34,11,3,1,3,4,5
9.91,2,18,25,0,3,2,1,1
9.915,4,2,11,16,6,0,1,3
9.92,4,7,6,6,0,2,1,1
9.925,2,17,8,4,1,1,2,1
9.93,5,8,6,5,2,1,1,1
9.935,3,2,2,0,3,3,3,0
9.94,9,26,24,1,2,1,2,2
9.945,1,9,5,0,4,3,2,0
9.95,5,43,30,9,5,6,2,1
9.955,9,20,15,0,6,3,1,0
9.96,12,15,41,2,10,8,6,10
9.965,4,34,26,8,1,3,0,5
9.97,16,2,1,7,5,1,1,1
9.975,22,9,1,1,5,2,3,4
9.98,5,20,18,9,2,1,2,1
9.985,1,2,28,5,1,2,3,1
9.99,2,20,21,3,1,0,1,2
9.995,10,10,13,2,1,3,2,1
10,7,13,50,2,0,1,1,1
10.005,6,28,58,6,0,0,0,5
10.01,3,8,6,8,1,1,2,1
10.015,2,4,11,9,3,2,1,0
10.02,4,7,36,7,2,0,0,2
10.025,3,4,0,1,2,2,1,2
10.03,3,4,7,0,0,1,0,1
10.035,1,14,1,1,2,1,0,5
10.04,3,5,23,5,2,0,1,0
10.045,1,11,25,4,3,3,2,2
10.05,10,25,8,1,1,5,3,2
10.055,6,1,4,1,4,7,2,1
10.06,5,92,17,4,0,2,0,6
10.065,4,36,38,10,4,1,1,2
10.07,5,36,2,8,6,4,3,2
10.075,2,20,21,6,0,4,3,10
10.08,9,21,15,1,3,7,2,8
10.085,9,5,37,8,3,4,1,1
10.09,11,22,12,7,2,5,0,3
10.095,4,18,7,2,0,0,3,2
10.1,0,3,0,1,2,6,3,2
10.105,4,0,13,8,1,1,2,3
10.11,2,8,2,2,3,1,2,1
10.115,7,17,9,2,0,0,2,7
10.12,3,13,16,0,5,3,2,2
10.125,5,51,6,4,3,4,2,7
10.13,1,4,14,0,7,8,4,1
10.135,5,20,20,2,1,2,1,5
10.14,3,6,7,11,6,4,3,1
10.145,5,34,46,6,1,4,5,2
10.15,5,18,28,8,4,2,1,0
10.155,3,4,72,26,1,2,2,6
10.16,1,4,38,19,0,1,1,4
10.165,11,6,3,19,6,2,2,18
10.17,0,48,60,19,7,1,5,17
10.175,15,76,48,5,5,1,0,7
10.18,4,21,14,6,4,2,5,16
10.185,16,22,42,5,1,1,3,8
10.19,0,17,27,2,3,3,0,4
10.195,2,19,38,6,1,3,4,9
10.2,5,46,23,4,1,3,2,3
10.205,5,1,1,6,3,2,1,2
10.21,1,10,13,7,1,1,2,2
10.215,2,26,10,2,0,0,2,2
10.22,4,52,6,5,5,5,1,1
10.225,10,7,19,6,2,2,1,3
10.23,2,36,20,0,5,4,2,4
10.235,9,11,13,3,1,4,1,0
10.24,3,19,3,3,1,3,4,6
10.245,8,14,16,3,1,3,4,4
10.25,1,9,11,2,4,6,3,1
10.255,3,24,4,1,1,2,0,1
10.26,2,4,36,8,6,4,3,2
10.265,3,79,58,8,3,4,1,1
10.27,1,18,17,2,4,5,0,5
10.275,3,48,50,3,1,4,1,3
10.28,0,8,17,2,5,3,4,5
10.285,5,4,7,3,0,1,0,4
10.29,9,14,41,7,5,2,0,2
10.295,4,9,25,2,2,2,3,9
10.3,3,19,7,4,3,0,1,2
10.305,4,16,22,0,1,0,2,0
10.31,9,18,4,1,1,0,1,1
10.315,1,8,5,5,3,2,2,0
10.32,3,38,14,6,2,1,1,5
10.325,2,13,49,11,3,0,2,2
10.33,11,14,0,9,2,1,2,3
10.335,1,9,10,2,1,2,3,2
10.34,3,17,3,7,0,2,0,1
10.345,1,33,14,3,2,0,1,3
10.35,4,8,40,8,3,3,1,3
10.355,14,30,4,1,2,4,1,3
10.36,1,11,7,2,0,0,1,1
10.365,1,19,3,5,3,5,2,3
10.37,1,2,26,6,0,0,1,1
10.375,2,11,14,3,1,0,1,1
10.38,1,12,11,3,4,2,3,3
10.385,3,15,6,0,4,3,1,0
10.39,2,28,6,6,1,2,1,2
10.395,7,9,7,2,0,2,2,1
10.4,6,17,19,10,7,2,0,7
10.405,9,16,4,4,6,1,2,3
10.41,3,4,25,0,1,1,4,1
10.415,1,41,19,3,4,3,5,1
10.42,9,11,8,2,1,0,0,1
10.425,0,20,5,7,0,4,2,0
10.43,7,36,32,0,1,1,2,1
10.435,8,26,15,3,5,3,3,0
10.44,1,4,1,0,1,0,1,1
10.445,3,22,6,9,2,1,0,4
10.45,6,25,4,5,0,2,0,5
10.455,6,0,19,3,1,1,2,2
10.46,7,40,2,1,2,3,1,1
10.465,1,7,10,6,2,4,3,2
10.47,6,1,13,3,2,3,2,3
10.475,5,7,10,3,2,5,2,3
10.48,2,35,9,6,4,5,2,0
10.485,2,31,1,3,1,3,3,2
10.49,14,22,2,3,1,5,0,0
10.495,7,42,23,1,3,6,5,2
10.5,9,29,4,3,3,1,1,0
10.505,1,19,4,3,1,4,0,1
10.51,11,78,21,3,5,2,1,7
10.515,12,27,40,3,2,2,1,8
10.52,14,8,61,14,2,3,3,9
10.525,3,1,5,1,0,1,2,2
10.53,5,30,30,5,1,4,3,2
10.535,1,33,38,4,0,0,1,3
10.54,5,11,17,6,6,1,1,5
10.545,1,1,2,2,1,0,1,1
10.55,3,3,5,6,0,1,4,3
10.555,4,24,12,7,0,3,0,0
10.56,26,27,29,5,1,3,0,10
10.565,26,11,18,1,1,1,0,9
10.57,1,33,28,9,0,1,4,1
10.575,1,6,8,3,5,0,1,0
10.58,0,8,18,3,1,1,1,1
10.585,11,6,1,5,2,0,2,5
10.59,2,1,5,1,0,4,0,4
10.595,2,1,19,2,1,2,1,4
10.6,3,17,3,4,0,1,2,1
10.605,0,42,6,0,2,2,1,1
10.61,11,9,20,7,3,4,5,5
10.615,1,1,7,2,0,2,2,2
10.62,5,18,5,3,0,4,4,4
10.625,0,26,13,4,2,2,1,6
10.63,2,11,18,3,2,0,1,0
10.635,2,12,29,11,0,1,0,2
10.64,5,64,32,13,0,1,1,0
10.645,4,5,6,7,3,2,2,2
10.65,5,10,2,1,1,2,0,1
10.655,5,33,5,3,3,2,1,1
10.66,2,20,20,2,1,2,3,5
10.665,1,4,6,2,3,1,0,5
10.67,3,9,9,5,2,0,3,0
10.675,4,10,3,3,1,1,1,3
10.68,2,12,2,2,3,2,1,0
10.685,8,23,25,6,4,4,2,3
10.69,4,12,12,1,3,2,4,2
10.695,1,71,13,1,2,4,3,1
10.7,33,73,9,1,3,1,5,12
10.705,5,1,19,9,2,1,1,2
10.71,1,20,4,1,1,1,1,5
10.715,8,20,25,4,2,1,2,1
10.72,5,25,30,1,2,4,1,4
10.725,11,3,10,0,3,2,5,2
10.73,10,2,2,3,1,2,2,2
10.735,10,34,54,16,7,3,1,2
10.74,4,15,3,2,1,1,3,4
10.745,3,18,2,5,1,1,1,2
10.75,11,3,6,4,2,2,2,2
10.755,1,5,9,5,1,1,0,0
10.76,1,5,2,3,2,1,2,3
10.765,4,25,10,6,3,5,2,2
10.77,2,66,35,7,9,4,4,3
10.775,13,10,64,6,4,3,2,4
10.78,5,2,13,2,0,3,2,1
10.785,2,7,11,6,3,0,2,2
10.79,1,27,14,4,3,4,1,1
10.795,6,18,22,4,5,3,3,2
10.8,12,26,7,2,3,4,3,1
10.805,4,7,2,2,1,0,1,1
10.81,2,7,13,5,5,3,2,0
10.815,2,16,10,1,2,1,1,2
10.82,5,31,5,3,2,1,1,1
10.825,9,40,31,9,6,5,4,4
10.83,4,16,15,4,1,2,1,2
10.835,0,24,20,1,1,2,0,1
10.84,1,12,0,0,1,1,1,1
10.845,1,1,6,3,0,1,0,0
10.85,1,29,1,4,2,1,4,3
10.855,8,39,22,6,6,4,1,2
10.86,5,38,5,2,1,3,1,2
10.865,21,11,33,2,0,1,1,8
10.87,0,3,22,11,6,5,5,0
10.875,4,5,32,6,3,0,0,0
10.88,4,18,4,4,5,3,4,1
10.885,2,16,0,2,2,1,1,0
10.89,3,8,7,1,5,2,2,1
10.895,0,3,11,0,2,1,0,2
10.9,7,10,11,1,0,0,1,1
10.905,3,18,11,2,2,3,2,4
10.91,3,5,9,0,1,1,1,4
10.915,0,0,4,2,1,1,1,5
10.92,2,19,18,3,3,1,3,2
10.925,3,3,4,2,1,1,1,0
10.93,2,24,7,0,1,1,1,3
10.935,2,10,7,2,1,0,0,0
10.94,0,5,4,1,3,1,2,4
10.945,3,18,8,7,1,1,2,2
10.95,7,9,18,16,8,7,4,2
10.955,2,1,15,15,7,4,0,3
10.96,5,31,22,15,8,4,5,7
10.965,4,36,28,9,5,1,1,6
10.97,2,11,19,2,1,2,1,6
10.975,3,10,25,17,4,1,3,2
10.98,3,8,2,34,7,2,1,2
10.985,7,20,12,23,5,3,0,1
10.99,9,24,35,93,22,11,6,6
10.995,5,37,5,6,3,0,0,0
11,8,14,6,3,3,2,1,6
11.005,21,5,10,2,1,1,1,13
11.01,6,7,20,23,3,1,6,2
11.015,4,0,3,10,4,2,1,2
11.02,18,14,7,7,3,1,0,8
11.025,13,4,7,18,0,2,9,4
11.03,5,34,9,0,1,1,12,9
11.035,7,37,3,10,6,9,45,5
11.04,19,12,0,9,2,7,9,3
11.045,6,0,8,9,4,1,2,2
11.05,2,0,2,5,0,0,4,1
11.055,0,27,2,45,11,7,15,6
11.06,9,4,18,19,4,5,9,10
11.065,2,34,28,64,15,8,8,2
11.07,4,0,24,2,2,1,2,3
11.075,3,47,20,14,2,0,6,2
11.08,9,7,10,11,4,5,10,17
11.085,4,0,17,25,2,3,4,1
11.09,3,21,1,12,10,6,10,0
11.095,1,31,5,0,0,2,4,4
11.1,1,8,8,12,2,3,0,0
11.105,11,3,7,11,1,2,2,5
11.11,31,14,14,9,2,2,10,24
11.115,1,9,0,8,4,4,4,4
11.12,4,1,8,7,1,2,2,7
11.125,11,14,11,7,1,1,8,3
11.13,4,23,1,10,4,4,1,1
11.135,15,4,9,14,3,2,1,8
11.14,6,17,4,3,2,1,1,3
11.145,6,22,3,10,1,3,0,4
11.15,3,21,7,0,4,2,1,6
11.155,5,6,24,25,5,3,3,8
11.16,6,27,32,68,9,5,3,2
11.165,1,29,19,14,1,0,1,1
11.17,2,48,24,2,1,3,2,1
11.175,4,7,30,5,0,1,2,1
11.18,2,11,12,27,3,1,1,2
11.185,4,10,0,4,2,1,2,1
11.19,8,39,18,20,6,3,2,1
11.195,5,37,10,3,0,1,2,0
11.2,7,27,23,14,7,6,3,3
11.205,10,20,1,10,2,1,1,6
11.21,6,15,1,8,6,4,2,6
11.215,1,17,13,24,7,4,5,3
11.22,4,5,7,53,15,9,8,10
11.225,4,47,3,24,10,4,2,1
11.23,3,16,21,18,0,2,2,4
11.235,5,3,12,42,8,4,1,5
11.24,2,1,8,37,6,3,1,0
11.245,6,32,13,29,1,1,2,3
11.25,9,46,45,58,10,3,3,4
11.255,6,17,9,12,1,3,2,1
11.26,6,1,14,63,10,5,4,2
11.265,4,5,11,1,3,2,3,0
11.27,13,66,26,25,6,1,1,4
11.275,10,29,5,51,8,3,4,2
11.28,1,14,17,40,6,3,0,3
11.285,1,2,4,1,3,7,3,4
11.29,14,26,23,75,10,5,2,5
11.295,5,27,22,95,11,7,2,4
11.3,18,37,28,92,23,7,5,11
11.305,1,5,30,42,16,6,2,1
11.31,6,3,0,7,9,5,2,3
11.315,1,7,14,26,5,4,4,3
11.32,11,37,53,86,14,7,1,4
11.325,2,11,30,78,10,1,3,4
11.33,3,8,16,29,6,10,7,8
11.335,5,25,37,20,2,0,2,0
11.34,1,18,43,3,4,3,0,3
11.345,9,27,7,60,5,2,5,3
11.35,7,17,62,112,8,7,3,6
11.355,8,24,41,87,3,3,4,10
11.36,5,21,27,30,4,1,1,7
11.365,4,3,0,9,1,1,0,2
11.37,2,15,29,14,3,1,4,0
11.375,9,50,11,34,1,1,1,4
11.38,12,20,1,15,13,8,5,10
11.385,9,29,39,121,9,13,8,1
11.39,1,19,85,100,18,10,8,1
11.395,7,77,26,94,13,20,12,10
11.4,8,13,16,62,22,3,5,10
11.405,12,4,45,107,15,6,8,17
11.41,3,13,21,10,5,2,5,6
11.415,3,0,12,15,12,0,4,0
11.42,14,13,2,25,4,3,1,7
11.425,2,65,48,28,10,1,1,5
11.43,6,20,53,57,12,4,3,0
11.435,29,51,20,11,0,3,6,3
11.44,10,46,39,60,13,2,2,8
11.445,3,28,32,3,3,7,5,0
11.45,13,24,21,24,6,2,1,6
11.455,10,16,54,45,2,1,5,5
11.46,13,19,23,42,9,7,3,5
11.465,5,1,22,32,12,13,11,8
11.47,7,2,7,21,0,3,1,3
11.475,16,7,28,5,10,1,2,4
11.48,3,9,31,88,22,10,8,9
11.485,16,31,49,42,12,5,1,12
11.49,43,4,71,80,9,3,0,18
11.495,21,4,38,19,1,1,3,4
11.5,31,37,58,75,13,6,5,16
11.505,34,11,2,22,10,3,6,19
11.51,1,45,27,12,1,1,0,1
11.515,26,2,47,29,1,3,3,10
11.52,48,30,43,13,0,4,2,13
11.525,38,57,19,6,1,6,9,16
11.53,64,57,38,22,15,15,23,65
11.535,24,18,14,11,2,5,31,13
11.54,3,6,18,11,3,6,29,5
11.545,32,22,9,4,3,1,7,30
11.55,16,0,11,11,2,18,106,51
11.555,14,16,5,15,2,12,101,12
11.56,9,23,26,18,6,9,15,45
11.565,46,6,36,26,0,4,16,43
11.57,5,25,6,30,5,11,61,32
11.575,6,16,2,18,3,12,79,3
11.58,5,28,55,32,6,1,7,21
11.585,0,24,37,14,5,1,25,7
11.59,13,8,17,49,7,1,1,34
11.595,0,10,1,123,23,10,6,5
11.6,27,56,36,104,45,20,11,6
11.605,3,14,12,54,5,4,19,2
11.61,10,15,17,33,2,3,11,3
11.615,2,7,29,7,1,2,11,13
11.62,22,16,12,55,16,7,14,12
11.625,35,3,6,21,2,0,1,2
11.63,23,18,29,23,0,1,9,4
11.635,30,4,8,12,1,1,3,24
11.64,14,12,14,1,3,1,9,24
11.645,2,10,15,35,8,3,3,13
11.65,32,25,0,0,1,2,19,5
11.655,18,4,9,23,5,1,24,3
11.66,9,3,2,0,3,2,23,15
11.665,13,10,8,10,2,5,41,8
11.67,14,6,17,6,4,2,14,0
11.675,1,19,13,14,5,0,3,1
11.68,6,17,29,3,1,4,13,6
11.685,2,2,12,9,3,3,7,5
11.69,3,10,12,5,3,0,6,2
11.695,4,4,3,17,6,4,4,2
11.7,8,13,1,16,4,1,6,5
11.705,9,6,7,6,3,1,4,1
11.71,1,17,18,5,5,2,3,2
11.715,1,3,31,11,4,3,9,0
11.72,14,3,8,18,6,3,6,6
11.725,6,2,14,27,8,4,3,1
11.73,3,16,18,2,0,0,0,5
11.735,0,6,2,2,0,2,2,3
11.74,4,31,4,6,4,2,14,6
11.745,5,23,8,3,1,2,4,2
11.75,3,41,16,5,3,2,37,5
11.755,3,7,1,11,6,7,69,16
11.76,0,3,8,1,0,2,10,4
11.765,3,20,7,5,1,1,5,5
11.77,6,0,8,9,4,3,0,0
11.775,16,16,18,1,6,6,19,1
11.78,3,2,12,2,1,0,0,0
11.785,1,22,17,2,2,2,1,4
11.79,1,18,5,5,3,2,8,1
11.795,1,11,22,1,2,0,3,0
11.8,4,3,12,4,2,0,7,5
11.805,8,9,11,4,2,1,8,6
11.81,6,8,8,1,0,1,10,2
11.815,2,11,15,2,0,3,1,6
11.82,2,8,2,2,2,2,5,1
11.825,9,16,8,1,1,0,0,3
11.83,33,7,12,9,3,5,3,3
11.835,12,10,2,7,6,4,0,5
11.84,0,7,13,2,0,1,2,2
11.845,3,1,10,2,0,0,2,4
11.85,7,18,5,5,1,1,8,2
11.855,5,3,3,2,3,1,8,1
11.86,11,55,8,1,0,3,3,9
11.865,10,2,18,2,3,2,6,7
11.87,8,52,17,1,0,2,2,2
11.875,4,4,13,3,1,1,2,6
11.88,11,9,2,6,4,4,4,0
11.885,6,3,3,1,1,1,2,3
11.89,1,18,21,2,2,3,4,7
11.895,3,5,17,4,2,1,2,4
11.9,3,10,17,6,3,1,1,4
11.905,9,30,18,12,3,3,1,10
11.91,14,59,63,8,2,1,5,1
11.915,6,2,34,9,1,3,3,7
11.92,9,15,103,37,16,5,5,13
11.925,3,1,29,1,1,0,2,4
11.93,11,26,19,0,0,0,0,2
11.935,10,42,30,10,2,4,4,11
11.94,10,30,33,13,4,2,3,2
11.945,4,15,3,3,1,0,2,0
11.95,51,21,70,12,1,2,7,33
11.955,80,14,27,3,2,3,6,47
11.96,10,3,2,0,2,3,2,2
11.965,8,16,62,0,2,1,1,3
11.97,11,23,3,4,1,3,1,4
11.975,39,3,32,4,2,1,5,10
11.98,11,9,13,13,4,2,2,29
11.985,13,13,14,1,4,6,11,32
11.99,3,1,1,5,2,2,4,4
11.995,9,15,11,5,4,2,1,2
12,5,25,30,8,3,1,8,13
12.005,19,32,2,4,0,1,2,14
12.01,28,33,20,5,0,2,1,15
12.015,4,15,18,7,6,4,5,13
12.02,6,12,19,5,4,2,1,10
12.025,11,0,38,7,5,5,1,9
12.03,9,1,27,20,1,1,7,31
12.035,3,22,77,24,3,2,7,30
12.04,5,5,4,16,8,7,11,16
12.045,6,47,36,2,1,0,1,5
12.05,10,4,10,4,2,2,0,6
12.055,16,2,15,8,0,0,1,14
12.06,14,15,8,6,3,3,2,12
12.065,3,3,19,6,3,2,2,16
12.07,12,20,8,4,1,3,4,9
12.075,3,21,4,2,3,1,1,3
12.08,2,2,3,3,1,2,4,11
12.085,3,1,10,3,0,4,2,5
12.09,5,19,37,5,1,0,1,0
12.095,0,63,23,7,1,3,5,2
12.1,6,34,2,1,0,0,1,3
12.105,6,20,2,4,2,6,3,2
12.11,4,28,43,12,3,4,2,1
12.115,9,2,22,3,0,0,2,6
12.12,23,15,8,8,1,1,4,17
12.125,44,20,9,6,3,5,4,14
12.13,3,2,2,4,0,1,1,4
12.135,11,19,35,3,2,5,7,2
12.14,0,10,3,2,3,0,0,1
12.145,2,19,17,2,0,3,3,8
12.15,6,1,3,2,2,2,1,6
12.155,4,12,0,2,3,0,1,5
12.16,9,5,11,3,3,4,6,11
12.165,12,24,8,2,2,1,3,3
12.17,12,33,1,2,3,0,2,5
12.175,1,7,6,4,1,3,0,2
12.18,11,4,3,1,2,2,2,9
12.185,1,9,6,1,1,2,0,2
12.19,6,2,1,3,1,2,2,5
12.195,11,0,11,1,2,3,1,6
12.2,0,5,2,1,2,1,3,5
12.205,4,2,9,1,1,1,1,3
12.21,32,10,15,2,0,1,0,16
12.215,75,52,60,21,8,1,3,30
12.22,0,1,27,6,2,2,1,7
12.225,10,35,12,2,2,4,2,2
12.23,8,19,7,2,3,1,2,3
12.235,20,21,13,6,4,1,2,11
12.24,6,7,14,2,3,3,1,2
12.245,9,10,5,7,2,2,2,6
12.25,6,1,5,1,3,1,0,0
12.255,5,16,18,8,3,1,2,3
12.26,7,1,10,6,3,3,2,7
12.265,6,28,3,1,0,1,1,8
12.27,11,11,10,6,4,3,5,10
12.275,11,16,9,2,0,2,1,3
12.28,5,2,1,0,1,0,0,2
12.285,0,8,8,3,2,1,1,1
12.29,11,6,3,0,1,0,1,4
12.295,0,27,9,3,2,2,3,4
12.3,4,11,12,0,2,3,1,5
12.305,0,34,5,3,1,1,0,6
12.31,53,28,6,7,9,7,13,49
12.315,26,7,11,1,1,0,1,7
12.32,4,3,12,5,7,0,1,0
12.325,30,27,75,4,0,3,4,19
12.33,13,21,72,16,6,5,2,5
12.335,10,15,7,2,1,3,3,18
12.34,0,8,41,2,2,1,1,3
12.345,3,26,5,9,5,4,1,7
12.35,13,24,26,8,2,1,5,17
12.355,1,47,1,5,6,4,3,2
12.36,1,12,27,3,5,2,1,1
12.365,14,1,15,4,2,3,3,6
12.37,4,3,3,0,0,1,1,3
12.375,0,8,11,1,3,1,0,2
12.38,0,0,3,1,3,0,2,2
12.385,10,17,30,6,2,2,1,3
12.39,1,7,13,1,1,0,2,1
12.395,2,8,7,4,0,0,0,3
12.4,1,11,8,0,3,3,4,3
12.405,9,31,17,2,2,2,2,6
12.41,4,0,0,4,3,1,0,1
12.415,5,7,7,3,1,0,3,14
12.42,8,21,9,7,2,1,0,6
12.425,10,24,15,2,4,3,2,4
12.43,9,2,10,2,1,1,1,2
12.435,2,6,3,1,2,5,3,0
12.44,8,21,16,1,1,1,2,4
12.445,1,26,13,0,1,2,3,4
12.45,4,10,6,3,2,1,2,1
12.455,5,0,11,5,0,1,2,0
12.46,0,3,21,1,0,3,1,11
12.465,19,17,18,15,10,9,15,40
12.47,2,36,17,0,1,1,1,4
12.475,5,17,3,3,4,1,2,3
12.48,13,5,18,1,2,1,1,8
12.485,1,21,7,2,0,1,2,7
12.49,8,23,1,1,1,1,3,5
12.495,11,4,2,4,1,1,0,1
12.5,3,18,8,5,1,2,2,6
12.505,6,7,14,8,1,2,1,5
12.51,7,46,12,1,3,1,0,2
12.515,2,10,34,9,4,2,3,2
12.52,1,7,21,3,3,4,4,7
12.525,1,6,7,1,1,1,2,1
12.53,6,15,19,5,2,1,1,7
12.535,0,3,4,4,2,3,1,1
12.54,7,6,22,5,0,1,1,5
12.545,4,12,4,4,0,0,3,2
12.55,4,20,2,1,1,1,2,1
12.555,4,5,1,0,5,3,0,1
12.56,16,22,28,7,3,3,1,11
12.565,8,12,5,6,2,2,1,15
12.57,2,10,1,3,1,3,2,0
12.575,6,5,7,0,4,0,1,1
12.58,5,12,16,3,2,3,1,1
12.585,2,35,6,0,4,2,2,1
12.59,11,40,4,7,3,2,4,4
12.595,3,1,1,3,4,3,1,1
12.6,1,7,16,1,0,1,1,1
12.605,8,25,64,10,1,3,0,5
12.61,5,17,13,1,7,6,8,18
12.615,3,22,10,2,1,1,1,1
12.62,2,4,23,6,3,1,3,1
12.625,2,8,7,3,0,1,0,1
12.63,0,4,3,2,2,1,3,4
12.635,3,7,5,2,0,1,3,1
12.64,5,10,5,1,1,1,2,1
12.645,8,7,11,0,0,2,2,2
12.65,2,0,2,5,3,4,1,1
12.655,4,8,12,4,4,3,1,4
12.66,1,4,4,3,1,3,1,2
12.665,1,3,7,1,0,2,2,0
12.67,1,14,1,2,0,1,0,1
12.675,5,11,2,1,0,1,1,3
12.68,2,2,2,0,2,2,1,1
12.685,1,5,3,1,1,1,2,1
12.69,2,10,2,7,4,2,3,1
12.695,0,9,5,4,3,1,1,1
12.7,2,1,11,1,0,4,4,3
12.705,9,12,7,2,1,4,2,3
12.71,8,16,10,5,1,2,0,0
12.715,1,13,45,5,4,2,2,1
12.72,2,2,6,2,2,2,1,4
12.725,1,13,11,0,1,1,0,0
12.73,19,24,3,1,0,3,2,1
12.735,7,14,12,1,1,1,1,2
12.74,2,1,17,2,1,1,1,4
12.745,12,27,7,2,2,1,2,2
12.75,0,2,5,1,2,1,2,7
12.755,7,9,12,0,1,1,0,2
12.76,5,3,2,0,3,1,1,3
12.765,1,2,9,1,1,2,0,1
12.77,4,3,19,2,3,3,3,4
12.775,5,11,5,1,2,2,1,1
12.78,1,2,2,2,1,0,2,1
12.785,5,15,2,1,4,1,2,2
12.79,4,4,2,2,1,0,2,2
12.795,8,25,64,10,1,3,0,5
12.8,5,17,13,1,7,6,8,18
12.805,3,22,10,2,1,1,1,1
12.81,2,4,23,6,3,1,3,1
12.815,2,8,7,3,0,1,0,1
12.82,0,4,3,2,2,1,3,4
12.825,5,21,3,3,4,3,0,3
12.83,2,14,1,3,3,4,0,1
12.835,6,35,45,9,2,5,4,5
12.84,7,15,25,0,1,2,3,1
12.845,12,9,3,1,2,3,3,4
12.85,2,3,3,3,1,1,1,5
12.855,2,14,12,1,1,1,3,3
12.86,2,8,6,1,5,2,2,1
12.865,6,1,4,0,1,0,3,5
12.87,2,3,3,1,3,3,1,1
12.875,5,8,5,0,2,1,2,1
12.88,2,9,3,6,3,1,1,3
12.885,13,0,39,9,0,1,3,6
12.89,19,12,3,7,9,6,12,28
12.895,5,8,5,1,1,0,1,1
12.9,1,6,23,4,5,4,2,1
12.905,8,13,6,1,0,0,2,9
12.91,4,10,1,1,0,0,2,4
12.915,10,4,2,2,1,1,4,6
12.92,10,10,19,6,3,2,1,4
12.925,1,5,50,1,4,2,0,2
12.93,1,7,2,7,3,1,2,2
12.935,2,13,1,3,2,1,2,2
12.94,2,3,6,3,0,4,5,9
12.945,2,16,11,1,0,1,3,8
12.95,2,18,6,3,1,0,0,6
12.955,7,7,8,0,3,2,1,4
12.96,6,4,11,1,3,0,2,1
12.965,1,1,8,6,6,3,1,6
12.97,9,4,6,1,1,1,2,1
12.975,1,16,10,2,1,4,1,1
12.98,9,8,14,2,7,5,1,3
12.985,4,0,8,6,3,2,3,9
12.99,11,20,8,0,0,1,1,5
12.995,9,29,33,2,3,1,2,4
13,0,3,12,2,1,0,0,1
13.005,3,9,3,1,0,1,1,2
13.01,4,5,6,1,2,3,1,3
13.015,2,22,11,2,4,4,3,3
13.02,8,16,16,1,2,1,0,1
13.025,2,34,20,4,3,2,1,9
13.03,11,6,9,8,5,1,6,14
13.035,4,7,9,3,1,0,2,1
13.04,15,7,7,1,0,2,1,8
13.045,2,14,12,1,1,1,3,3
13.05,2,8,6,1,5,2,2,1
13.055,6,1,4,0,1,0,3,5
13.06,2,3,3,1,3,3,1,1
13.065,5,8,5,0,2,1,2,1
13.07,2,9,3,6,3,1,1,3
13.075,7,3,5,1,1,1,0,7
13.08,9,7,8,2,1,2,2,18
13.085,1,4,6,0,0,0,1,2
13.09,3,11,8,4,3,3,1,2
13.095,2,12,5,2,1,0,1,4
13.1,4,5,1,2,1,0,3,9
13.105,11,26,9,2,2,3,4,7
13.11,4,7,2,1,2,0,2,0
13.115,5,4,32,3,2,0,0,2
13.12,0,9,20,5,1,0,1,6
13.125,3,6,9,5,5,3,2,0
13.13,1,16,9,4,2,0,0,0
13.135,3,3,1,1,0,1,3,0
13.14,4,5,15,4,4,3,1,1
13.145,1,4,11,3,1,2,0,2
13.15,7,13,1,1,1,2,3,4
13.155,1,13,4,3,1,2,2,7
13.16,2,6,2,2,1,1,1,3
13.165,8,34,2,2,0,1,3,1
13.17,5,8,4,3,3,2,0,3
13.175,2,6,8,4,0,3,1,3
13.18,1,2,5,2,0,0,2,2
13.185,7,6,9,2,1,3,1,1
13.19,2,26,26,8,1,0,3,3
13.195,2,14,6,6,3,1,2,2
13.2,0,6,31,5,4,0,1,1
13.205,4,15,17,1,1,3,1,1
13.21,3,1,5,2,1,1,1,0
13.215,2,1,13,3,0,0,1,7
13.22,5,19,2,1,1,2,1,4
13.225,0,91,27,7,4,2,1,4
13.23,6,4,3,7,5,3,0,6
13.235,4,6,16,4,0,3,1,2
13.24,5,12,27,5,0,3,1,1
13.245,2,17,8,4,2,1,1,3
13.25,2,4,1,1,1,2,1,1
13.255,6,3,8,3,4,3,4,6
13.26,0,8,12,2,3,2,1,2
13.265,0,7,9,0,2,1,1,1
13.27,1,0,22,3,2,2,0,2
13.275,2,10,12,0,0,2,1,1
13.28,3,28,13,2,1,1,0,3
13.285,1,12,13,8,3,3,3,0
13.29,3,35,3,2,1,0,1,3
13.295,3,2,0,0,2,1,0,1
13.3,3,2,11,2,3,1,2,7
13.305,4,12,5,1,2,1,1,0
13.31,2,10,5,2,4,3,3,3
13.315,10,3,9,2,4,0,2,5
13.32,11,10,0,12,0,3,0,1
13.325,1,18,12,3,2,2,2,3
13.33,0,18,12,5,0,0,1,2
13.335,5,42,26,8,8,3,2,3
13.34,1,13,1,2,1,1,2,0
13.345,2,7,16,2,1,1,3,1
13.35,2,3,5,5,1,2,1,5
13.355,1,24,6,3,1,0,1,2
13.36,4,10,24,5,2,3,1,7
13.365,10,6,57,14,6,5,5,12
13.37,2,4,24,1,0,1,1,3
13.375,6,28,8,4,0,2,2,1
13.38,1,19,3,3,5,0,1,2
13.385,2,6,11,4,3,2,2,3
13.39,0,8,21,5,0,2,2,2
13.395,9,13,4,1,1,1,1,5
13.4,3,6,1,0,0,4,1,5
13.405,5,16,9,3,5,5,4,10
13.41,7,40,1,1,2,3,2,0
13.415,6,4,17,1,1,1,0,1
13.42,2,10,11,3,1,3,3,5
13.425,4,35,16,5,3,2,1,3
13.43,2,13,18,3,3,3,4,6
13.435,3,1,2,0,1,3,3,3
13.44,4,11,13,4,3,3,1,2
13.445,1,30,3,3,2,0,1,1
13.45,3,15,14,1,2,2,2,0
13.455,6,4,25,1,0,1,1,1
13.46,7,9,4,1,4,4,5,13
13.465,10,27,15,0,2,1,1,12
13.47,10,14,22,4,2,2,1,16
13.475,4,1,5,3,2,1,3,6
13.48,8,11,6,3,3,1,1,3
13.485,2,38,6,1,0,1,1,9
13.49,6,5,2,8,4,1,1,1
13.495,2,7,10,2,3,3,2,4
13.5,0,2,5,3,2,2,1,0
13.505,14,15,2,1,0,3,0,3
13.51,15,5,3,4,3,2,0,0
13.515,3,6,1,1,0,0,1,2
13.52,8,4,23,0,2,0,0,8
13.525,11,14,2,1,2,3,3,11
13.53,7,26,8,2,1,2,2,6
13.535,4,1,13,9,1,3,0,2
13.54,6,6,13,6,0,1,1,2
13.545,5,9,12,3,0,0,2,0
13.55,1,31,9,1,1,3,3,7
13.555,3,15,8,1,2,0,1,4
13.56,4,15,19,4,0,1,1,1
13.565,3,7,10,1,2,2,4,4
13.57,2,2,6,1,1,1,1,2
13.575,4,2,5,2,2,1,1,2
13.58,8,1,5,0,1,1,1,2
13.585,3,4,10,2,3,1,2,1
13.59,1,5,0,3,3,5,2,2
13.595,3,5,7,0,2,3,1,1
13.6,4,28,24,4,3,1,1,2
13.605,22,3,23,3,2,1,2,13
13.61,1,1,38,1,3,2,2,0
13.615,5,37,25,4,1,2,1,6
13.62,20,18,24,4,6,4,7,20
13.625,16,16,8,1,0,0,1,5
13.63,3,20,2,5,5,2,0,6
13.635,5,3,3,1,2,0,0,3
13.64,9,32,0,1,1,3,1,5
13.645,11,15,8,2,1,2,2,5
13.65,2,0,6,3,4,2,2,3
13.655,4,3,18,4,0,1,2,9
13.66,7,19,6,3,1,1,4,9
13.665,4,4,11,2,3,5,1,0
13.67,5,0,14,1,0,1,0,1
13.675,1,15,1,1,1,3,0,6
13.68,1,2,7,2,3,0,2,3
13.685,1,3,9,3,4,3,3,1
13.69,0,4,9,1,2,2,2,0
13.695,0,40,15,4,2,1,2,2
13.7,2,12,12,2,3,0,0,0
13.705,6,26,9,1,0,3,2,2
13.71,1,14,3,3,2,3,1,0
13.715,2,4,7,1,2,0,2,3
13.72,3,61,11,5,1,0,0,4
13.725,2,3,4,1,4,2,2,1
13.73,12,5,2,7,6,2,0,1
13.735,9,15,7,2,1,0,1,2
13.74,4,27,18,3,0,1,0,2
13.745,15,6,1,3,4,2,5,14
13.75,0,5,6,2,3,0,2,3
13.755,2,1,9,2,3,2,0,1
13.76,2,9,5,2,0,2,0,2
13.765,1,1,10,0,2,1,1,1
13.77,5,12,4,3,1,0,1,1
13.775,2,22,13,4,0,0,0,2
13.78,20,23,24,8,1,0,1,1
13.785,3,3,7,0,4,4,6,8
13.79,9,16,13,2,0,3,1,1
13.795,4,17,1,1,2,1,0,3
13.8,8,5,9,5,4,2,2,1
13.805,3,8,2,3,0,1,1,5
13.81,3,24,5,5,2,0,1,3
13.815,1,4,7,1,3,2,4,0
13.82,5,26,3,1,2,0,3,2
13.825,3,22,24,5,2,0,1,2
13.83,2,27,5,2,1,1,1,2
13.835,2,1,6,6,6,4,0,2
13.84,2,4,6,2,3,1,1,2
13.845,0,0,8,4,1,1,0,5
13.85,2,7,3,2,1,0,1,2
13.855,3,8,12,3,1,1,0,3
13.86,8,18,12,6,2,1,2,1
13.865,16,3,14,3,3,1,2,6
13.87,5,46,4,1,1,1,0,0
13.875,7,4,7,0,0,2,3,4
13.88,1,22,1,8,3,1,1,3
13.885,1,4,3,3,1,1,0,4
13.89,8,32,10,2,3,3,3,3
13.895,1,7,1,0,3,5,1,4
13.9,3,26,4,3,0,2,1,11
13.905,7,7,18,2,2,2,0,2
13.91,9,10,54,12,6,3,4,3
13.915,5,12,2,0,1,0,0,0
13.92,12,6,3,2,3,3,2,4
13.925,7,8,8,3,4,4,4,5
13.93,3,6,12,2,0,3,2,1
13.935,1,12,12,3,0,1,0,1
13.94,7,10,3,3,1,2,2,7
13.945,12,7,4,8,1,0,3,6
13.95,4,24,2,1,3,2,1,0
13.955,6,24,9,13,6,0,1,3
13.96,3,4,4,2,4,3,3,1
13.965,2,4,4,2,5,3,0,3
13.97,3,21,10,4,3,4,2,2
13.975,3,11,17,2,1,2,2,5
13.98,6,5,9,1,0,2,1,4
13.985,4,6,3,1,2,0,0,10
13.99,6,12,18,4,1,1,3,9
13.995,14,15,8,3,2,2,1,10
14,9,38,11,1,3,2,4,1
14.005,4,1,2,4,2,1,0,6
14.01,1,9,11,4,2,2,1,2
14.015,3,18,3,2,2,1,2,3
14.02,1,5,17,4,2,1,3,4
14.025,4,11,22,10,3,2,1,3
14.03,2,19,13,2,3,0,1,1
14.035,3,1,15,1,0,2,1,0
14.04,3,5,13,2,0,2,2,0
14.045,1,2,1,0,0,0,0,1
14.05,3,9,3,3,1,4,3,1
14.055,4,22,13,0,4,3,1,2
14.06,10,50,2,2,1,2,1,3
14.065,5,25,8,1,1,2,2,3
14.07,13,12,20,2,5,2,2,10
14.075,4,2,6,2,3,1,1,5
14.08,4,13,5,1,0,2,4,9
14.085,1,2,1,1,2,0,2,4
14.09,8,0,5,2,1,0,2,1
14.095,1,3,22,6,0,1,1,4
14.1,5,16,3,3,2,0,2,0
14.105,8,11,4,1,1,0,1,5
14.11,5,5,1,3,1,2,1,5
14.115,1,7,6,3,1,0,1,2
14.12,8,3,29,4,1,2,2,11
14.125,12,10,12,1,5,6,9,36
14.13,4,12,2,1,2,3,1,5
14.135,1,5,10,4,4,3,1,5
14.14,14,6,13,3,1,1,2,10
14.145,11,21,15,3,3,0,2,1
14.15,1,9,4,2,1,0,2,3
14.155,1,10,18,8,3,0,2,0
14.16,2,4,10,7,7,5,6,9
14.165,8,4,2,0,1,1,2,5
14.17,5,14,11,1,0,1,4,2
14.175,3,4,2,1,1,2,2,2
14.18,3,20,14,2,4,4,2,2
14.185,8,4,9,5,5,3,2,3
14.19,2,10,2,0,1,1,1,1
14.195,6,36,19,9,0,0,3,2
14.2,3,5,21,11,4,3,2,6
14.205,0,2,14,2,2,3,1,2
14.21,2,2,4,1,2,2,0,6
14.215,1,6,3,1,2,0,0,3
14.22,9,6,6,3,0,2,3,8
14.225,9,1,18,4,3,1,1,9
14.23,5,5,7,1,3,0,4,4
14.235,9,0,6,1,0,0,1,5
14.24,1,4,34,10,5,1,0,3
14.245,2,2,17,4,1,2,2,4
14.25,12,12,17,0,2,3,5,14
14.255,3,1,45,12,4,2,1,1
14.26,2,32,19,7,2,1,1,1
14.265,3,6,3,0,2,2,2,2
14.27,9,8,5,1,1,0,1,7
14.275,5,9,5,0,2,1,1,0
14.28,5,22,9,1,2,1,1,3
14.285,6,22,21,4,0,2,1,6
14.29,3,7,11,3,3,0,0,2
14.295,5,29,20,3,3,3,2,2
14.3,11,6,15,1,1,1,0,1
14.305,3,18,10,4,1,2,0,6
14.31,2,1,3,2,2,4,2,0
14.315,0,2,5,3,3,1,1,4
14.32,0,7,7,1,0,2,0,2
14.325,2,28,7,0,0,0,3,3
14.33,15,54,5,2,2,1,0,4
14.335,19,12,23,8,4,0,2,2
14.34,2,21,8,1,4,3,3,2
14.345,3,2,8,2,0,1,1,5
14.35,4,21,5,1,2,2,1,2
14.355,1,14,6,6,6,1,0,5
14.36,1,24,15,2,2,0,0,3
14.365,5,18,17,6,4,2,4,3
14.37,1,4,7,7,2,0,1,1
14.375,7,3,11,1,1,1,3,1
14.38,13,2,7,0,1,1,1,4
14.385,1,12,11,4,3,0,2,0
14.39,7,20,4,4,2,2,1,2
14.395,1,9,9,2,2,3,1,1
14.4,4,17,3,1,1,2,3,0
14.405,4,1,24,4,1,1,1,1
14.41,19,43,1,5,0,3,0,1
14.415,5,6,6,1,1,1,3,4
14.42,4,11,2,2,3,3,1,1
14.425,1,8,2,2,2,4,1,1
14.43,3,10,4,2,0,1,2,2
14.435,4,2,6,1,3,3,3,1
14.44,11,5,10,7,1,1,1,5
14.445,0,19,18,3,6,2,0,3
14.45,0,1,1,2,4,4,5,1
14.455,4,3,2,3,1,2,1,0
14.46,8,15,17,3,1,0,1,3
14.465,5,45,48,7,0,4,3,8
14.47,3,19,100,12,2,3,0,3
14.475,0,34,19,4,1,1,1,2
14.48,4,1,32,2,3,2,2,4
14.485,4,3,1,1,1,1,2,2
14.49,4,8,18,3,1,2,0,4
14.495,5,56,4,2,2,0,3,1
14.5,0,11,11,2,3,2,0,1
14.505,2,31,4,2,0,1,2,3
14.51,11,12,19,2,1,1,0,14
14.515,14,17,5,2,2,2,0,13
14.52,3,1,0,1,0,1,1,1
14.525,5,7,3,2,4,3,2,2
14.53,3,5,2,2,4,4,1,2
14.535,12,15,4,4,2,1,0,3
14.54,12,3,1,1,5,1,1,6
14.545,1,8,1,0,1,1,1,1
14.55,2,22,12,2,1,0,0,7
14.555,3,40,36,7,2,0,1,3
14.56,1,37,28,1,4,5,3,3
14.565,3,1,19,4,2,1,2,0
14.57,8,4,20,3,2,0,0,4
14.575,0,0,4,0,1,1,0,3
14.58,4,47,3,4,0,1,2,4
14.585,3,20,20,1,1,1,1,2
14.59,14,8,2,4,4,4,4,13
14.595,7,12,3,1,0,1,2,0
14.6,1,0,16,6,2,2,4,1
14.605,4,11,10,0,6,0,1,2
14.61,1,6,9,2,2,1,2,0
14.615,2,10,4,2,1,1,1,1
14.62,6,22,1,2,3,1,3,2
14.625,0,5,13,4,2,2,1,2
14.63,8,23,7,0,0,2,2,4
14.635,11,10,2,1,3,5,5,4
14.64,4,27,10,8,6,6,8,30
14.645,5,34,2,2,1,3,1,3
14.65,0,15,33,2,2,1,0,0
14.655,7,0,26,2,1,2,2,3
14.66,0,3,14,2,1,1,1,6
14.665,6,13,2,1,2,2,2,6
14.67,3,4,6,2,2,2,2,4
14.675,7,16,6,2,0,1,1,4
14.68,7,7,22,5,2,2,2,8
14.685,2,11,10,1,0,1,3,8
14.69,6,7,14,4,1,0,0,7
14.695,0,22,1,3,3,4,3,4
14.7,4,12,4,3,4,2,2,1
14.705,4,6,14,2,2,2,1,2
14.71,2,6,2,4,3,0,2,6
14.715,1,5,1,1,1,1,2,4
14.72,6,20,8,4,0,2,0,2
14.725,6,9,4,3,1,1,4,4
14.73,1,29,11,2,4,0,3,2
14.735,3,15,14,3,5,3,3,2
14.74,4,11,12,2,1,0,2,1
14.745,2,14,16,0,3,0,3,3
14.75,1,10,4,0,1,2,1,5
14.755,10,13,7,2,3,2,1,2
14.76,3,3,7,6,1,2,3,2
14.765,3,1,13,0,1,0,0,2
14.77,0,11,6,2,4,3,2,0
14.775,2,5,3,1,0,5,5,11
14.78,1,4,4,0,1,2,0,1
14.785,4,8,3,0,1,0,0,1
14.79,4,2,7,0,0,1,0,4
14.795,5,32,9,1,1,0,1,2
14.8,4,36,8,7,3,4,1,2
14.805,2,1,9,4,2,5,2,5
14.81,7,3,13,1,2,1,0,6
14.815,3,55,0,1,2,1,3,3
14.82,3,1,13,0,1,2,2,1
14.825,4,7,14,1,0,2,1,0
14.83,0,8,7,1,3,3,2,1
14.835,2,2,17,1,1,2,1,3
14.84,5,14,12,3,2,1,1,7
14.845,11,11,12,4,2,1,2,10
14.85,3,21,10,1,5,3,2,1
14.855,3,7,2,2,3,2,1,0
14.86,1,4,7,1,2,1,1,2
14.865,1,15,4,2,0,2,1,2
14.87,11,59,1,1,2,1,4,0
14.875,9,3,6,1,2,3,2,3
14.88,2,7,5,2,6,6,4,1
14.885,6,2,1,1,1,0,0,1
14.89,3,17,15,1,2,4,2,1
14.895,0,2,13,4,2,1,0,1
14.9,6,19,2,1,4,1,1,4
14.905,2,9,6,1,1,1,2,6
14.91,12,15,20,4,5,2,1,8
14.915,3,12,11,1,2,3,0,2
14.92,10,1,22,3,2,0,0,6
14.925,1,3,66,12,3,1,1,4
14.93,0,22,21,3,1,0,1,3
14.935,1,10,12,3,1,3,1,0
14.94,1,10,2,3,1,0,0,1
14.945,4,4,2,5,1,3,2,1
14.95,3,5,8,6,3,0,0,0
14.955,11,29,10,1,2,2,1,2
14.96,5,1,5,2,1,2,1,3
14.965,0,5,11,0,1,2,5,1
14.97,0,15,5,2,2,1,2,1
14.975,9,12,3,1,0,0,2,1
14.98,8,15,9,3,1,1,1,1
14.985,6,10,17,0,1,3,1,6
14.99,1,15,5,5,3,1,0,4
14.995,13,12,29,9,7,5,5,19
15,1,9,1,0,4,1,1,0
15.005,2,33,11,1,1,1,2,1
15.01,2,9,6,2,0,1,2,1
15.015,3,5,19,3,1,4,1,1
15.02,6,15,0,3,1,0,1,5
15.025,3,19,28,3,1,2,3,3
15.03,2,10,8,2,1,0,1,2
15.035,0,24,11,5,2,2,1,0
15.04,1,15,2,3,3,0,0,4
15.045,1,16,7,2,1,0,1,2
15.05,14,39,28,8,3,0,2,2
15.055,16,47,29,11,0,2,3,12
15.06,6,20,14,7,5,2,1,0
15.065,3,5,1,1,4,2,1,1
15.07,0,7,0,5,3,1,3,7
15.075,0,20,9,6,1,1,2,6
15.08,3,9,10,3,3,1,0,1
15.085,3,6,10,2,3,2,2,2
15.09,7,1,33,11,0,4,0,2
15.095,5,9,21,6,1,3,1,10
15.1,27,15,7,6,6,4,5,36
15.105,0,2,18,0,2,2,4,17
15.11,20,41,12,1,6,8,10,23
15.115,1,10,18,1,0,0,2,3
15.12,9,3,6,2,1,1,1,8
15.125,2,9,0,2,1,1,2,1
15.13,7,7,2,0,0,0,0,2
15.135,5,28,8,2,2,2,1,1
15.14,15,34,6,7,3,5,4,6
15.145,2,20,12,5,1,2,2,7
15.15,1,2,22,4,4,0,1,8
15.155,1,5,10,2,1,2,1,5
15.16,2,11,10,1,1,0,1,4
15.165,9,22,4,5,4,1,0,6
15.17,7,2,7,7,1,1,1,5
15.175,8,29,4,1,0,1,2,0
15.18,2,0,9,5,2,1,0,1
15.185,4,10,1,1,2,2,2,2
15.19,13,12,19,7,4,5,6,11
15.195,1,16,6,6,1,0,2,0
15.2,11,5,8,1,0,1,1,3
15.205,1,19,23,4,2,0,0,0
15.21,1,11,9,1,1,2,1,6
15.215,1,4,1,1,3,1,2,3
15.22,7,0,15,1,3,5,5,1
15.225,0,15,8,3,2,1,1,1
15.23,9,5,2,1,1,3,0,7
15.235,1,2,13,2,5,2,4,4
15.24,4,7,12,3,1,1,1,1
15.245,3,17,7,0,0,1,3,4
15.25,5,53,6,2,2,2,2,3
15.255,5,9,5,0,0,1,1,0
15.26,1,16,0,1,1,2,3,0
15.265,4,5,8,4,1,2,1,3
15.27,1,9,3,2,2,3,1,7
15.275,1,24,0,1,4,1,2,6
15.28,17,5,14,5,7,5,5,17
15.285,3,9,9,2,3,3,2,1
15.29,5,22,1,1,1,0,0,1
15.295,2,20,8,4,1,0,0,2
15.3,3,10,0,1,1,2,2,6
15.305,2,30,5,2,4,4,2,5
15.31,3,17,6,2,1,0,0,3
15.315,2,3,18,4,3,2,3,1
15.32,1,9,1,1,2,3,2,1
15.325,2,8,1,4,3,0,1,2
15.33,4,2,1,2,2,2,2,1
15.335,1,28,1,3,1,0,0,0
15.34,8,4,8,0,3,1,2,6
15.345,10,1,2,2,0,0,5,10
15.35,2,20,10,1,1,2,1,7
15.355,8,1,11,3,1,2,1,5
15.36,1,4,12,2,1,2,3,1
15.365,1,6,4,11,1,0,0,0
15.37,1,0,0,0,1,0,2,3
15.375,8,55,10,2,2,1,0,1
15.38,1,3,11,5,1,1,0,1
15.385,1,19,15,1,1,1,2,1
15.39,1,8,2,2,3,2,2,2
15.395,9,3,1,1,2,3,0,1
15.4,3,1,11,5,3,2,1,0
15.405,7,4,13,6,1,2,2,6
15.41,2,16,17,7,1,0,0,3
15.415,2,20,5,0,0,0,2,2
15.42,3,18,6,0,1,0,2,3
15.425,0,1,1,1,2,1,1,0
15.43,9,10,14,1,0,0,0,3
15.435,11,30,1,3,1,0,1,5
15.44,2,21,9,6,1,1,1,3
15.445,1,10,2,0,1,2,0,1
15.45,6,2,5,0,1,0,1,4
15.455,6,5,5,2,3,1,2,1
15.46,3,6,5,0,0,4,3,4
15.465,1,51,9,2,2,5,1,1
15.47,11,13,5,1,2,0,3,4
15.475,15,40,24,3,1,1,1,5
15.48,26,12,34,2,4,2,5,15
15.485,15,27,10,4,1,1,2,4
15.49,6,17,1,2,1,3,1,3
15.495,1,3,1,0,1,2,1,1
15.5,0,15,3,4,1,1,0,7
15.505,6,25,1,1,4,1,2,4
15.51,4,20,7,1,2,1,2,0
15.515,1,7,1,3,1,2,1,3
15.52,8,1,6,2,2,2,2,2
15.525,9,13,7,5,1,0,4,1
15.53,6,14,6,3,4,1,1,2
15.535,5,1,3,1,3,5,5,5
15.54,4,8,4,1,2,2,3,1
15.545,2,10,0,1,2,4,0,3
15.55,0,12,1,4,0,1,5,3
15.555,3,46,12,7,1,0,1,3
15.56,5,5,21,5,3,2,2,5
15.565,3,28,35,3,2,1,2,1
15.57,6,9,16,5,5,2,1,2
15.575,10,51,9,3,1,0,2,1
15.58,5,22,8,3,3,1,1,1
15.585,6,5,6,3,1,3,0,2
15.59,1,4,6,4,4,2,3,3
15.595,1,4,2,0,2,1,0,1
15.6,5,15,14,3,0,2,0,5
15.605,0,11,2,4,1,2,1,4
15.61,3,6,31,7,1,2,1,1
15.615,2,19,0,1,3,0,2,1
15.62,1,5,8,1,3,2,3,1
15.625,7,13,10,1,1,2,0,2
15.63,12,9,4,2,2,0,2,7
15.635,5,13,6,3,7,2,0,1
15.64,3,45,10,7,4,2,0,1
15.645,3,9,4,0,4,3,4,2
15.65,0,14,15,1,3,1,2,3
15.655,15,37,7,5,3,5,8,15
15.66,8,12,6,6,3,3,2,0
15.665,6,7,13,2,1,0,0,4
15.67,7,4,13,4,1,0,1,1
15.675,8,34,7,3,1,1,0,1
15.68,11,2,2,1,4,3,1,1
15.685,5,3,13,1,3,1,1,2
15.69,1,4,10,5,4,4,4,1
15.695,7,8,23,2,1,1,1,8
15.7,5,15,1,4,3,4,5,8
15.705,2,15,9,2,2,1,0,1
15.71,0,7,9,1,5,2,1,0
15.715,3,14,1,4,0,3,1,2
15.72,1,11,6,3,0,0,1,2
15.725,1,21,26,4,2,3,2,4
15.73,14,16,9,2,0,3,1,5
15.735,1,27,1,3,3,2,2,0
15.74,4,30,2,1,3,1,0,0
15.745,6,16,0,1,1,0,3,4
15.75,6,66,26,1,1,0,0,1
15.755,8,6,7,0,1,1,3,0
15.76,1,3,1,1,3,1,1,6
15.765,4,28,4,1,1,0,2,2
15.77,11,24,0,1,1,1,2,7
15.775,10,13,20,1,1,1,1,8
15.78,8,12,0,3,4,3,1,1
15.785,2,6,11,1,0,1,0,2
15.79,4,2,4,4,0,1,3,1
15.795,1,6,10,0,4,2,2,0
15.8,4,17,10,0,1,1,0,1
15.805,1,6,3,3,4,4,3,0
15.81,5,12,13,3,1,5,2,5
15.815,1,7,17,2,2,3,0,1
15.82,4,48,14,0,1,0,2,1
15.825,1,0,16,5,6,2,1,2
15.83,2,3,1,7,0,3,3,3
15.835,2,5,4,3,1,1,1,0
15.84,4,13,4,2,0,2,1,3
15.845,5,51,5,3,0,3,2,8
15.85,13,8,5,1,0,0,1,9
15.855,6,1,9,2,2,1,0,4
15.86,6,1,5,4,4,0,0,1
15.865,10,29,13,3,2,0,0,5
15.87,1,3,9,2,2,2,2,1
15.875,2,27,14,3,4,2,1,4
15.88,3,3,24,1,1,2,2,2
15.885,1,15,28,6,4,2,3,1
15.89,5,0,9,1,3,3,0,1
15.895,0,1,4,2,0,2,3,0
15.9,4,5,12,4,1,2,3,2
15.905,1,56,4,6,0,1,1,0
15.91,4,3,9,2,1,2,1,0
15.915,5,14,8,1,2,4,3,1
15.92,6,43,8,3,2,2,1,1
15.925,5,24,10,0,1,3,2,4
15.93,8,21,7,5,2,3,2,3
15.935,17,37,9,2,0,4,3,0
15.94,1,3,13,3,5,1,1,2
15.945,4,1,9,1,2,0,3,3
15.95,2,2,19,3,2,4,4,1
15.955,19,68,6,4,2,1,2,1
15.96,10,14,8,3,2,1,0,1
15.965,9,2,18,0,7,4,5,9
15.97,8,5,19,1,2,1,2,0
15.975,3,1,10,1,2,2,1,3
15.98,6,9,3,0,2,0,3,4
15.985,2,15,0,2,0,2,1,1
15.99,5,4,8,2,2,2,0,3
15.995,0,7,4,0,1,2,0,1
16,2,9,2,2,2,3,2,4
16.005,5,34,5,0,1,1,1,3
16.01,5,13,26,4,0,3,1,1
16.015,7,20,11,6,3,2,4,3
16.02,2,6,1,1,2,2,3,2
16.025,3,1,8,1,1,2,2,1
16.03,7,29,21,3,1,0,0,2
16.035,11,8,22,4,1,0,1,1
16.04,0,12,9,6,6,5,3,2
16.045,6,24,5,5,4,3,3,1
16.05,2,14,0,3,6,3,2,0
16.055,0,12,11,2,2,3,1,1
16.06,2,0,2,3,1,2,2,3
16.065,4,9,9,0,2,2,0,2
16.07,3,22,1,3,1,3,1,1
16.075,1,8,8,1,4,3,0,1
16.08,2,21,17,8,3,2,0,0
16.085,1,3,7,2,3,1,1,1
16.09,2,23,2,5,2,2,2,3
16.095,1,43,9,3,2,1,1,2
16.1,2,13,25,3,0,3,2,1
16.105,7,32,8,4,2,0,1,3
16.11,3,10,17,1,1,2,1,2
16.115,2,20,18,6,3,0,1,1
16.12,1,2,1,2,0,1,2,1
16.125,12,8,1,2,1,2,1,8
16.13,18,27,5,1,0,1,3,15
16.135,0,7,9,1,1,2,4,3
16.14,1,5,1,4,0,0,2,1
16.145,5,4,20,7,2,3,0,2
16.15,5,5,9,1,3,2,2,4
16.155,3,2,3,3,5,2,0,1
16.16,2,4,5,0,1,1,2,3
16.165,2,15,18,2,1,1,1,1
16.17,1,4,10,1,4,2,1,2
16.175,2,4,10,2,0,1,1,5
16.18,2,18,12,8,2,0,0,1
16.185,7,1,6,0,1,1,2,1
16.19,1,5,3,2,1,2,1,1
16.195,4,14,1,2,1,2,0,1
16.2,3,49,1,1,4,4,4,4
16.205,0,22,6,0,4,2,4,1
16.21,10,6,9,1,2,4,3,3
16.215,3,10,7,1,9,1,1,0
16.22,3,3,3,1,1,1,0,1
16.225,3,19,18,3,1,1,1,3
16.23,1,5,11,1,4,3,3,1
16.235,5,2,9,4,5,5,4,3
16.24,5,11,9,2,1,1,0,1
16.245,1,16,9,1,1,1,1,1
16.25,7,17,0,3,1,1,2,3
16.255,0,5,1,2,1,0,0,2
16.26,7,2,5,1,3,0,3,2
16.265,8,12,0,1,4,2,1,2
16.27,2,5,10,1,4,2,1,5
16.275,9,3,5,3,3,3,4,11
16.28,2,12,10,2,2,1,2,5
16.285,1,1,24,1,0,1,2,3
16.29,8,10,24,6,2,1,2,3
16.295,3,4,14,0,6,2,2,2
16.3,1,3,14,1,1,0,1,1
16.305,6,10,9,4,0,1,2,2
16.31,2,4,13,1,2,4,2,3
16.315,5,9,7,0,2,1,1,1
16.32,3,17,7,2,1,1,1,1
16.325,8,15,6,1,3,1,1,0
16.33,0,1,0,2,1,2,2,3
16.335,1,8,10,2,1,0,1,3
16.34,3,20,19,2,1,1,1,3
16.345,0,12,14,2,1,2,1,1
16.35,1,13,8,4,6,7,8,10
16.355,14,58,1,1,1,2,3,1
16.36,10,1,12,4,4,1,0,0
16.365,0,5,4,0,0,3,3,2
16.37,1,3,3,6,0,1,0,2
16.375,4,8,6,2,0,4,2,0
16.38,2,2,7,2,2,2,1,0
16.385,6,21,3,2,1,2,1,1
16.39,5,56,3,4,0,3,2,0
16.395,2,2,3,3,8,4,2,3
16.4,2,5,7,2,3,3,0,2
16.405,3,2,2,2,0,2,0,1
16.41,1,25,1,1,2,3,0,2
16.415,4,1,1,2,3,0,1,5
16.42,5,5,2,1,1,0,1,4
16.425,2,11,3,1,3,1,3,2
16.43,4,18,6,0,2,2,2,0
16.435,0,3,1,2,0,0,0,1
16.44,7,0,11,1,0,4,4,0
16.445,14,26,8,1,0,5,1,2
16.45,0,4,8,1,0,0,1,6
16.455,8,54,5,7,7,3,1,3
16.46,0,1,2,1,1,1,1,1
16.465,8,11,18,0,2,4,3,0
16.47,6,2,53,8,1,3,0,1
16.475,7,28,19,2,2,1,0,3
16.48,8,18,60,10,3,1,2,2
16.485,0,1,18,3,2,2,1,2
16.49,4,25,6,2,1,1,1,4
16.495,6,10,2,0,3,1,0,3
16.5,1,10,0,2,4,2,2,3
16.505,0,13,4,2,3,3,1,2
16.51,2,37,6,2,1,2,0,3
16.515,11,10,0,1,0,2,1,3
16.52,1,14,8,4,1,1,0,1
16.525,2,12,1,0,1,0,1,3
16.53,7,12,16,1,1,0,0,2
16.535,3,11,7,0,1,2,2,2
16.54,4,18,9,3,4,2,0,0
16.545,2,2,2,0,4,4,1,2
16.55,6,11,0,1,3,2,2,2
16.555,8,3,18,0,0,0,2,2
16.56,9,32,18,0,2,2,3,1
16.565,2,6,8,5,3,0,0,1
16.57,1,48,26,4,3,5,4,2
16.575,3,2,18,1,1,2,0,4
16.58,1,7,10,2,3,3,2,1
16.585,2,1,1,1,1,0,1,1
16.59,1,33,1,2,1,0,1,3
16.595,2,8,6,1,0,1,1,4
16.6,11,11,3,3,3,1,3,11
16.605,1,6,3,0,0,0,2,2
16.61,3,17,14,1,1,1,0,1
16.615,5,0,13,3,1,2,4,1
16.62,0,11,17,2,2,1,3,0
16.625,6,11,31,3,2,1,2,2
16.63,0,7,6,0,1,1,0,4
16.635,2,16,7,1,1,1,2,5
16.64,0,35,9,0,4,1,2,2
16.645,5,7,1,3,1,2,4,4
16.65,2,19,6,6,1,2,1,1
16.655,3,3,9,1,2,1,1,2
16.66,1,5,8,1,1,3,0,0
16.665,2,11,3,4,5,0,1,2
16.67,3,2,18,1,4,1,0,1
16.675,5,44,12,1,1,1,0,1
16.68,7,11,2,2,1,3,0,0
16.685,0,5,11,2,2,3,3,8
16.69,1,5,7,2,1,2,1,1
16.695,1,12,1,3,4,2,4,0
16.7,6,11,0,3,0,2,1,3
16.705,3,7,2,3,1,0,1,1
16.71,11,33,21,3,1,2,3,3
16.715,4,1,7,0,2,0,1,4
16.72,4,2,5,3,2,5,5,3
16.725,2,28,3,1,3,1,0,1
16.73,2,5,6,0,1,2,1,1
16.735,5,16,4,0,1,2,2,2
16.74,4,4,0,2,2,4,2,1
16.745,11,23,18,1,2,1,2,0
16.75,7,21,3,2,1,3,0,0
16.755,4,38,11,5,2,2,2,0
16.76,4,14,0,1,2,2,1,1
16.765,3,1,5,1,3,1,1,3
16.77,9,3,1,1,0,0,0,4
16.775,2,17,4,3,1,3,5,1
16.78,4,1,1,1,0,0,1,0
16.785,0,27,2,2,1,1,3,1
16.79,3,6,14,1,1,1,1,1
16.795,2,7,1,7,1,1,2,1
16.8,2,14,3,2,5,3,0,2
16.805,1,7,4,0,1,1,1,1
16.81,2,10,1,1,0,1,1,2
16.815,0,1,1,1,2,4,2,3
16.82,0,17,20,5,1,1,0,1
16.825,9,15,11,2,3,2,0,0
16.83,3,0,10,0,0,1,0,1
16.835,4,2,12,3,5,3,3,5
16.84,3,64,1,0,1,0,3,1
16.845,6,21,11,1,2,2,0,1
16.85,3,16,10,4,1,1,0,2
16.855,6,14,6,3,0,1,0,0
16.86,3,2,7,2,3,3,1,5
16.865,7,15,4,4,2,2,2,1
16.87,8,5,5,0,1,2,3,1
16.875,12,2,11,0,0,0,2,2
16.88,0,14,1,1,0,1,4,2
16.885,3,20,18,3,3,2,1,1
16.89,7,31,9,1,0,2,1,0
16.895,0,8,11,2,1,1,3,1
16.9,8,15,6,5,2,2,1,7
16.905,15,48,4,9,1,1,0,13
16.91,4,1,12,1,3,1,3,0
16.915,2,22,10,1,2,1,0,0
16.92,4,2,2,4,5,7,2,1
16.925,1,54,18,6,6,4,0,1
16.93,7,10,2,2,7,4,2,7
16.935,4,29,19,1,1,1,0,2
16.94,3,18,11,4,1,0,0,2
16.945,6,2,2,2,4,2,2,2
16.95,0,3,4,3,1,1,1,4
16.955,4,9,19,4,3,4,3,5
16.96,12,13,6,1,1,1,1,4
16.965,8,13,14,6,4,2,1,1
16.97,2,3,2,2,1,0,1,1
16.975,6,19,13,5,2,1,2,1
16.98,0,20,2,4,4,1,2,5
16.985,3,23,19,4,4,2,1,0
16.99,1,16,2,1,1,2,0,3
16.995,6,2,2,2,1,2,2,2
17,14,20,17,7,2,1,0,4
17.005,2,39,4,0,5,5,4,0
17.01,5,31,7,1,1,1,1,4
17.015,5,3,8,1,1,1,2,6
17.02,4,10,6,2,0,0,2,3
17.025,3,5,5,3,1,1,1,3
17.03,6,20,7,2,2,1,3,7
17.035,3,54,7,2,3,1,1,0
17.04,0,14,4,1,3,2,1,3
17.045,2,28,7,1,3,1,1,3
17.05,5,1,3,0,2,0,0,6
17.055,2,0,14,3,1,1,0,6
17.06,12,2,2,6,4,4,1,3
17.065,11,19,3,4,0,0,0,1
17.07,0,34,11,5,1,3,1,3
17.075,6,17,2,4,3,0,0,2
17.08,8,7,3,3,0,1,2,4
17.085,2,3,18,1,2,0,0,0
17.09,2,7,25,7,3,1,1,0
17.095,2,2,13,3,1,2,0,2
17.1,1,22,22,3,3,2,1,1
17.105,1,14,17,3,3,3,2,1
17.11,2,5,1,2,0,1,0,0
17.115,3,15,10,3,2,1,1,2
17.12,2,11,31,3,1,2,1,1
17.125,1,8,17,4,2,2,1,1
17.13,4,1,12,5,6,4,1,5
17.135,1,0,3,1,0,0,1,0
17.14,4,12,7,1,3,2,1,1
17.145,4,1,1,3,2,0,0,1
17.15,5,4,3,2,1,1,1,2
17.155,2,8,12,5,0,2,2,4
17.16,7,18,2,7,2,0,2,0
17.165,4,1,9,3,1,0,2,2
17.17,1,49,10,3,4,3,1,2
17.175,2,2,3,0,4,2,2,1
17.18,0,16,2,1,2,2,2,2
17.185,2,6,17,5,1,1,1,2
17.19,2,16,24,1,0,2,1,3
17.195,1,27,29,1,1,2,0,3
17.2,15,7,6,1,1,2,1,10
17.205,9,16,11,2,0,3,2,2
17.21,1,37,9,4,2,2,2,4
17.215,2,3,7,3,1,1,2,1
17.22,5,11,6,6,0,2,2,2
17.225,12,9,8,6,0,1,2,4
17.23,5,10,17,1,3,3,4,4
17.235,0,14,2,2,2,1,0,2
17.24,0,5,1,1,1,2,1,1
17.245,2,1,2,3,1,2,4,1
17.25,3,27,3,2,0,2,1,1
17.255,2,8,1,5,3,3,3,1
17.26,7,18,6,0,4,2,1,1
17.265,0,17,20,2,4,3,3,5
17.27,5,27,2,0,0,2,1,3
17.275,1,4,1,1,1,1,1,2
17.28,14,6,8,0,0,1,1,7
17.285,4,14,11,1,3,4,3,1
17.29,2,17,19,4,0,0,0,2
17.295,0,17,25,6,1,3,2,2
17.3,8,4,1,2,1,1,0,0
17.305,5,4,10,0,3,1,1,1
17.31,3,5,9,3,0,1,1,3
17.315,1,5,7,0,0,2,1,0
17.32,5,4,8,2,4,2,3,1
17.325,3,2,12,0,0,0,1,2
17.33,2,6,14,1,2,4,4,4
17.335,15,6,1,0,0,3,2,3
17.34,1,31,8,3,4,2,2,0
17.345,4,15,8,5,1,0,1,1
17.35,6,5,32,2,2,0,4,5
17.355,9,15,50,10,8,4,6,12
17.36,3,2,4,3,1,3,2,2
17.365,2,5,6,1,2,1,0,0
17.37,2,0,13,4,3,4,2,0
17.375,3,2,14,3,1,1,1,1
17.38,2,6,5,0,1,1,1,1
17.385,1,3,0,4,1,1,1,4
17.39,3,5,13,0,1,2,1,1
17.395,1,11,20,0,1,1,0,1
17.4,0,8,15,5,1,3,1,2
17.405,7,3,4,0,1,2,0,1
17.41,3,1,2,5,3,2,2,2
17.415,13,6,21,1,0,2,2,1
17.42,15,10,5,1,0,1,0,5
17.425,14,2,0,1,2,1,2,6
17.43,1,8,7,2,3,1,1,4
17.435,6,9,5,0,3,2,1,3
17.44,1,9,1,5,4,1,1,1
17.445,4,19,10,2,2,0,1,4
17.45,2,57,6,0,3,3,2,3
17.455,13,26,24,1,1,2,3,4
17.46,19,16,37,0,4,2,1,0
17.465,2,5,13,1,5,3,2,3
17.47,0,8,20,4,1,3,2,4
17.475,3,11,0,2,1,2,1,1
17.48,3,10,5,0,2,3,3,2
17.485,3,3,12,4,0,2,1,4
17.49,21,34,7,5,3,5,0,4
17.495,3,6,3,3,5,2,2,5
17.5,4,21,12,4,0,1,3,3
17.505,13,2,3,5,2,1,1,3
17.51,15,19,0,2,2,4,3,1
17.515,6,1,2,5,1,2,1,3
17.52,4,15,6,1,1,1,3,5
17.525,4,5,34,8,2,3,3,2
17.53,8,39,13,5,4,0,0,5
17.535,3,22,1,4,1,1,1,2
17.54,6,0,13,1,0,1,1,3
17.545,4,6,15,1,1,1,2,2
17.55,1,29,1,1,1,1,2,1
17.555,1,20,5,2,2,2,1,3
17.56,2,9,10,0,0,3,1,3
17.565,1,10,4,1,0,1,1,1
17.57,5,22,4,4,2,3,2,5
17.575,2,5,7,3,1,0,4,2
17.58,2,18,2,1,2,6,2,1
17.585,2,25,11,0,1,2,1,2
17.59,6,18,0,3,3,5,3,8
17.595,0,9,22,1,1,0,2,1
17.6,7,21,2,5,0,1,0,2
17.605,8,23,20,0,2,1,2,2
17.61,5,15,24,6,2,1,1,3
17.615,4,8,11,3,5,4,2,3
17.62,1,2,8,1,1,0,1,3
17.625,1,7,19,3,2,1,0,0
17.63,3,13,6,2,1,2,2,2
17.635,1,22,10,5,0,2,1,0
17.64,3,7,3,6,1,3,4,4
17.645,6,13,16,7,1,0,0,2
17.65,5,7,3,1,6,2,2,1
17.655,7,15,3,1,2,1,2,2
17.66,1,9,4,3,4,1,0,4
17.665,2,9,23,3,5,3,0,6
17.67,7,15,45,8,2,0,1,3
17.675,9,18,4,2,2,1,2,0
17.68,11,18,5,4,1,5,3,0
17.685,4,17,7,5,1,1,3,3
17.69,0,5,4,0,1,1,2,0
17.695,2,4,14,0,0,1,2,1
17.7,1,58,23,5,2,1,0,1
17.705,4,16,14,3,2,0,0,1
17.71,1,12,19,1,4,2,1,0
17.715,4,2,4,0,1,1,2,2
17.72,9,19,8,2,2,0,1,7
17.725,2,7,3,2,2,3,2,0
17.73,2,1,13,1,2,0,1,4
17.735,5,36,18,5,1,1,2,3
17.74,6,9,19,4,3,1,1,9
17.745,7,13,18,6,8,6,5,9
17.75,6,3,5,5,0,1,2,1
17.755,0,31,2,1,2,4,2,3
17.76,2,2,17,2,5,1,1,2
17.765,13,26,7,3,2,1,1,3
17.77,2,4,6,1,5,4,0,1
17.775,3,6,3,1,2,2,1,4
17.78,1,4,3,1,2,1,0,3
17.785,2,59,2,2,1,2,2,6
17.79,7,2,5,3,3,3,7,12
17.795,5,0,0,2,0,1,0,1
17.8,5,39,10,3,2,1,2,4
17.805,6,7,10,1,1,0,2,3
17.81,10,24,15,5,3,1,1,0
17.815,7,12,48,5,2,1,3,4
17.82,1,14,4,1,2,4,1,2
17.825,5,26,1,1,1,0,0,0
17.83,2,7,12,0,0,2,3,1
17.835,5,18,5,0,2,1,2,0
17.84,1,12,0,6,4,5,3,0
17.845,1,21,18,6,3,3,3,3
17.85,12,20,20,7,1,3,0,4
17.855,14,1,13,6,0,1,1,4
17.86,4,27,18,2,2,2,2,3
17.865,1,27,6,5,3,0,1,1
17.87,2,5,12,3,3,2,2,2
17.875,4,7,5,3,2,1,0,4
17.88,8,2,7,0,4,1,1,3
17.885,6,3,6,2,2,3,3,8
17.89,2,28,24,5,3,2,1,0
17.895,1,3,6,3,1,1,1,0
17.9,1,0,1,1,3,1,1,4
17.905,5,6,9,1,2,2,0,2
17.91,14,12,21,3,2,0,0,3
17.915,4,4,29,1,2,1,1,3
17.92,1,0,7,2,2,1,1,4
17.925,1,14,14,6,1,1,1,5
17.93,9,7,6,0,3,3,3,13
17.935,3,17,18,6,2,1,1,4
17.94,8,13,1,0,3,1,1,3
17.945,1,6,4,4,0,0,1,0
17.95,5,53,1,1,4,3,2,2
17.955,1,1,16,1,0,2,0,3
17.96,5,8,1,2,2,1,3,1
17.965,3,3,19,6,1,3,0,1
17.97,1,35,3,0,1,1,0,1
17.975,2,13,7,0,1,1,3,2
17.98,5,6,2,2,2,1,1,1
17.985,3,15,5,0,0,0,1,3
17.99,1,17,4,3,1,1,1,0
17.995,2,20,12,3,2,3,2,2
18,3,28,6,5,2,2,2,1
18.005,2,6,14,1,1,1,1,3
18.01,1,20,6,1,0,0,2,4
18.015,4,7,17,3,1,5,0,2
18.02,1,12,3,6,0,0,1,3
18.025,6,21,2,10,2,1,1,3
18.03,7,39,9,1,3,2,0,2
18.035,4,7,11,1,3,1,3,4
18.04,13,29,20,3,1,1,1,4
18.045,8,7,1,0,3,3,5,7
18.05,6,1,10,7,2,0,3,0
18.055,10,11,15,2,4,1,0,1
18.06,5,12,3,1,3,2,1,2
18.065,5,5,5,1,1,1,0,2
18.07,4,35,11,0,1,1,3,0
18.075,2,3,25,5,1,1,2,2
18.08,9,18,19,1,1,3,2,2
18.085,10,1,34,3,2,1,3,3
18.09,5,19,5,1,2,0,1,1
18.095,2,6,8,1,1,1,1,9
18.1,15,23,0,1,1,2,4,13
18.105,1,14,10,4,2,1,0,1
18.11,4,8,16,7,5,3,3,5
18.115,6,11,4,1,1,1,2,0
18.12,1,18,9,1,0,2,1,2
18.125,6,4,4,1,2,2,2,6
18.13,2,12,6,3,4,1,2,1
18.135,0,10,0,1,1,3,3,1
18.14,7,8,15,3,3,2,0,2
18.145,17,51,28,2,2,5,4,6
18.15,5,0,16,4,2,1,4,10
18.155,8,12,9,1,8,4,2,1
18.16,2,6,2,3,4,0,0,3
18.165,7,12,11,1,0,0,0,5
18.17,1,7,6,1,1,0,1,2
18.175,0,2,1,5,3,2,1,0
18.18,5,6,10,1,3,1,1,1
18.185,1,15,16,2,4,0,1,1
18.19,3,15,9,3,3,3,3,0
18.195,1,22,13,1,1,0,0,3
18.2,3,3,4,2,2,1,0,1
18.205,5,27,6,4,1,1,1,1
18.21,3,4,12,5,4,3,1,2
18.215,6,2,17,6,2,0,1,1
18.22,7,5,17,2,0,0,2,4
18.225,2,25,8,1,2,1,2,1
18.23,1,25,0,0,1,2,3,6
18.235,10,12,11,1,3,1,2,11
18.24,11,27,1,4,2,0,2,0
18.245,5,7,10,3,2,4,3,3
18.25,5,1,0,1,1,1,1,0
18.255,0,1,8,7,1,0,1,2
18.26,1,12,5,1,3,2,2,4
18.265,2,15,14,1,0,0,1,1
18.27,6,20,11,0,2,3,2,0
18.275,1,1,10,5,2,2,1,3
18.28,2,6,8,4,1,2,0,3
18.285,3,15,41,5,1,1,1,2
18.29,0,29,52,7,7,2,2,3
18.295,8,3,2,2,2,2,0,1
18.3,4,20,1,0,5,2,4,6
18.305,8,17,13,3,1,2,2,1
18.31,1,24,4,3,4,4,1,0
18.315,6,30,8,3,3,2,0,2
18.32,6,7,1,0,3,5,1,3
18.325,4,15,12,4,1,0,1,3
18.33,2,1,7,1,0,5,2,1
18.335,1,5,1,0,1,0,1,2
18.34,6,12,3,0,1,1,1,1
18.345,9,4,8,2,2,3,2,3
18.35,2,5,4,0,3,4,2,1
18.355,0,22,16,1,2,2,0,0
18.36,3,31,5,1,3,0,3,1
18.365,4,15,11,1,3,1,2,11
18.37,10,2,1,1,1,4,4,10
18.375,5,16,1,4,7,6,2,4
18.38,6,6,2,4,6,6,3,1
18.385,3,4,0,4,3,2,0,2
18.39,0,5,9,1,4,1,1,2
18.395,6,41,11,1,1,0,2,0
18.4,2,22,1,5,2,2,3,1
18.405,10,6,24,2,2,1,0,3
18.41,0,2,11,4,3,1,1,3
18.415,0,23,3,1,3,4,3,1
18.42,4,11,6,0,1,0,1,4
18.425,3,11,9,1,3,4,2,5
18.43,0,19,12,0,2,2,2,0
18.435,7,19,3,1,0,1,0,0
18.44,11,7,8,3,3,1,1,2
18.445,3,3,1,1,1,1,3,0
18.45,0,3,8,3,5,2,0,0
18.455,1,3,2,3,2,0,2,3
18.46,9,13,0,3,4,4,3,1
18.465,7,2,5,1,1,0,0,2
18.47,2,57,37,4,1,0,2,4
18.475,16,3,36,2,3,5,7,8
18.48,9,25,11,6,4,2,2,0
18.485,3,11,24,4,2,2,3,3
18.49,6,6,2,2,0,3,3,1
18.495,6,37,17,1,2,0,3,0
18.5,4,12,1,1,1,2,1,1
18.505,4,5,14,0,1,1,0,3
18.51,0,8,2,2,3,5,3,2
18.515,5,1,6,0,1,2,1,0
18.52,0,10,14,5,2,0,1,2
18.525,0,11,0,4,2,1,0,1
18.53,2,6,17,5,2,1,4,4
18.535,2,15,8,1,1,3,3,2
18.54,5,29,12,0,0,2,2,1
18.545,6,23,9,6,1,1,0,5
18.55,12,10,24,7,2,3,2,2
18.555,0,15,17,0,3,2,1,0
18.56,2,3,1,1,0,2,0,3
18.565,1,15,7,0,4,5,7,16
18.57,4,8,24,4,1,1,2,8
18.575,5,23,6,0,1,0,1,0
18.58,6,45,14,6,2,2,1,1
18.585,2,7,7,0,1,3,0,4
18.59,4,8,20,6,2,1,0,3
18.595,4,3,28,6,4,4,3,0
18.6,8,13,5,1,0,0,0,3
18.605,2,8,7,3,1,0,2,1
18.61,3,33,9,6,0,3,1,3
18.615,5,9,5,0,3,1,2,0
18.62,4,1,11,1,1,2,2,5
18.625,0,19,1,0,4,4,2,2
18.63,4,10,8,1,1,0,4,2
18.635,18,12,2,3,2,4,3,4
18.64,12,20,1,3,3,3,3,0
18.645,11,6,7,3,2,2,0,7
18.65,16,11,22,6,4,3,0,8
18.655,15,20,10,4,3,3,1,2
18.66,9,23,25,1,4,1,2,5
18.665,3,12,16,1,0,2,3,0
18.67,3,1,15,2,1,2,0,2
18.675,7,14,4,1,0,0,2,3
18.68,1,2,13,4,1,3,1,2
18.685,1,12,4,2,1,2,4,1
18.69,3,9,3,1,0,1,2,0
18.695,2,11,6,1,0,2,0,3
18.7,8,3,12,2,3,2,2,3
18.705,18,10,16,2,1,3,1,1
18.71,3,9,3,1,1,3,3,2
18.715,7,13,2,1,3,1,2,2
18.72,1,17,9,2,1,1,1,2
18.725,1,3,3,2,9,2,2,3
18.73,2,17,10,5,0,0,1,0
18.735,7,8,4,1,4,4,3,2
18.74,4,6,3,1,1,2,3,0
18.745,4,6,22,1,3,2,2,1
18.75,4,28,1,2,1,3,1,0
18.755,6,5,2,6,1,1,3,1
18.76,10,8,1,1,0,1,0,2
18.765,0,17,7,4,1,2,3,2
18.77,1,14,13,1,0,2,1,4
18.775,2,11,1,4,1,0,1,3
18.78,3,0,5,2,0,2,2,1
18.785,1,14,15,4,0,1,3,3
18.79,1,1,2,1,3,1,2,1
18.795,3,16,0,1,4,3,3,3
18.8,8,7,7,1,1,1,1,9
18.805,4,9,12,1,3,3,0,3
18.81,2,2,5,2,1,1,1,1
18.815,9,21,6,3,0,1,1,1
18.82,5,5,15,11,4,1,0,3
18.825,2,42,25,0,1,2,0,2
18.83,0,11,2,4,4,0,1,1
18.835,4,7,6,2,2,3,2,1
18.84,1,14,15,2,0,2,1,5
18.845,0,6,5,4,0,0,3,1
18.85,0,6,2,3,2,2,3,0
18.855,2,3,17,1,0,4,1,2
18.86,11,28,9,6,0,1,1,4
18.865,2,12,21,0,2,1,0,2
18.87,15,20,13,0,0,2,2,8
18.875,20,9,16,5,1,0,1,11
18.88,7,3,13,1,2,3,4,0
18.885,5,29,12,3,5,4,1,4
18.89,5,17,6,2,2,3,4,5
18.895,4,12,4,1,0,1,2,3
18.9,4,12,15,2,2,3,1,1
18.905,8,7,7,4,4,2,1,5
18.91,5,6,2,1,1,0,1,3
18.915,0,1,1,2,1,1,0,4
18.92,1,10,16,3,4,0,2,1
18.925,5,17,4,6,1,0,3,0
18.93,1,61,0,10,2,1,1,3
18.935,9,6,2,3,0,0,1,1
18.94,0,5,4,1,0,0,1,1
18.945,3,10,9,2,1,5,2,1
18.95,3,21,20,0,1,2,2,3
18.955,2,15,6,1,2,0,2,1
18.96,4,15,4,1,1,3,3,1
18.965,5,19,20,4,1,2,1,0
18.97,5,5,2,3,2,1,2,6
18.975,5,3,8,1,4,0,1,3
18.98,11,18,5,1,3,1,4,11
18.985,3,15,10,4,1,0,1,2
18.99,2,13,5,4,1,1,0,3
18.995,3,24,9,3,0,2,2,1
19,0,15,6,2,1,0,2,1
19.005,3,10,7,2,1,1,1,2
19.01,0,44,18,7,2,4,3,0
19.015,11,11,7,3,2,2,1,5
19.02,2,12,13,1,1,2,2,1
19.025,1,10,14,1,2,1,3,5
19.03,8,0,4,3,1,2,3,5
19.035,3,6,2,2,1,2,2,2
19.04,0,5,14,3,3,2,3,1
19.045,0,17,17,3,2,1,1,1
19.05,5,17,14,0,1,0,2,5
19.055,1,37,26,5,3,1,1,1
19.06,6,8,3,4,3,2,1,1
19.065,3,15,3,3,1,2,1,0
19.07,14,22,9,0,4,1,1,2
19.075,8,13,7,4,4,2,1,0
19.08,3,12,1,0,2,1,0,1
19.085,0,3,7,3,4,2,4,1
19.09,5,3,3,6,2,0,3,3
19.095,6,6,7,4,3,5,4,1
19.1,8,2,5,0,2,2,0,4
19.105,4,67,15,4,1,4,0,4
19.11,5,9,13,0,1,1,2,2
19.115,1,12,2,3,2,2,1,4
19.12,7,21,5,4,2,3,3,2
19.125,4,45,28,2,0,1,1,0
19.13,3,9,28,1,2,2,3,1
19.135,2,22,9,1,1,2,1,0
19.14,2,9,2,2,3,5,0,2
19.145,4,11,9,2,1,1,0,6
19.15,1,6,6,4,3,2,2,1
19.155,1,7,4,2,1,0,1,2
19.16,11,3,6,0,1,1,2,5
19.165,10,4,10,0,3,1,1,5
19.17,7,8,11,1,0,3,4,1
19.175,4,13,7,3,2,2,4,2
19.18,3,11,17,5,0,1,3,1
19.185,2,1,8,2,3,1,0,1
19.19,2,1,17,5,4,3,3,1
19.195,3,7,20,0,0,2,0,1
19.2,6,42,20,9,1,1,2,5
19.205,3,7,15,1,3,3,1,3
19.21,6,6,3,0,1,2,2,4
19.215,5,13,21,6,3,3,1,1
19.22,4,24,36,3,0,1,2,2
19.225,6,10,26,3,2,0,0,2
19.23,6,2,10,2,1,1,4,6
19.235,21,11,5,2,3,3,9,20
19.24,5,4,22,0,0,1,0,0
19.245,4,6,3,1,3,4,4,2
19.25,5,3,2,1,2,1,1,0
19.255,6,1,0,1,3,4,2,2
19.26,5,3,2,1,1,3,1,2
19.265,3,11,2,3,3,2,2,3
19.27,1,48,3,0,0,0,4,3
19.275,6,28,9,3,4,3,1,2
19.28,7,10,7,0,3,3,2,1
19.285,4,30,12,1,0,1,1,4
19.29,4,10,9,4,3,2,2,4
19.295,4,18,2,3,0,1,3,0
19.3,5,1,5,2,1,1,1,3
19.305,2,14,13,2,1,0,2,3
19.31,2,32,16,2,1,2,0,4
19.315,5,25,15,1,4,1,1,2
19.32,3,12,12,2,1,1,1,1
19.325,7,5,4,1,0,0,1,2
19.33,1,4,12,4,1,2,2,3
19.335,0,20,13,17,3,4,0,4
19.34,2,23,25,7,6,3,3,2
19.345,4,74,4,5,2,2,1,3
19.35,0,8,20,6,9,6,4,1
19.355,1,12,22,22,3,2,3,1
19.36,2,5,64,106,9,4,1,3
19.365,5,11,103,109,24,4,4,2
19.37,1,54,14,39,2,0,1,5
19.375,3,14,30,18,3,1,5,4
19.38,1,13,22,60,5,6,4,0
19.385,5,3,31,41,4,1,5,7
19.39,5,4,41,6,0,1,5,4
19.395,4,1,30,37,5,14,4,4
19.4,2,16,14,10,5,7,4,5
19.405,0,8,4,49,8,4,5,8
19.41,9,75,63,104,32,20,4,4
19.415,20,35,1,79,37,20,15,22
19.42,1,18,53,13,10,10,3,4
19.425,7,5,36,54,0,9,8,6
19.43,1,4,57,29,3,5,29,2
19.435,6,30,88,100,19,8,5,2
19.44,8,10,3,7,1,9,10,10
19.445,12,17,24,57,8,11,0,3
19.45,2,8,55,30,2,13,13,7
19.455,5,41,39,88,9,3,5,2
19.46,9,45,15,0,4,2,5,1
19.465,4,0,41,90,17,4,4,5
19.47,6,40,7,24,2,1,3,11
19.475,16,1,35,38,12,4,5,6
19.48,7,40,58,4,9,15,4,15
19.485,1,11,69,62,1,5,3,6
19.49,0,0,12,53,17,2,2,1
19.495,7,47,20,24,18,14,8,10
19.5,4,9,8,13,27,13,5,8
19.505,6,37,46,28,24,19,11,3
19.51,1,47,115,89,23,17,15,4
19.515,2,9,15,27,0,1,8,1
19.52,3,19,30,10,0,5,7,5
19.525,0,33,38,114,27,22,15,11
19.53,6,34,39,15,1,2,6,7
19.535,0,16,5,122,17,9,3,12
19.54,6,11,54,86,18,9,10,8
19.545,19,96,27,18,3,1,8,8
19.55,6,19,33,57,15,4,4,4
19.555,20,52,46,111,22,15,7,12
19.56,7,14,36,69,6,1,0,12
19.565,0,14,5,89,11,1,0,12
19.57,32,22,101,104,28,20,12,25
19.575,3,2,84,7,3,4,5,2
19.58,10,41,58,26,4,7,1,5
19.585,16,14,36,5,1,4,1,2
19.59,1,67,13,17,10,5,2,6
19.595,8,25,72,28,6,4,1,7
19.6,28,11,58,20,3,3,3,12
19.605,12,4,16,4,0,0,1,1
19.61,19,3,1,16,9,11,13,11
19.615,0,90,6,32,7,2,3,2
19.62,3,15,10,50,12,7,4,12
19.625,13,31,28,18,3,0,4,7
19.63,1,26,63,41,7,1,1,5
19.635,1,41,36,10,3,4,3,5
19.64,14,16,18,21,6,0,3,12
19.645,6,45,2,9,4,2,3,2
19.65,6,46,43,20,9,0,1,5
19.655,8,27,43,4,2,2,3,8
19.66,2,28,55,28,2,1,2,0
19.665,1,5,15,26,7,6,3,4
19.67,0,5,62,34,3,6,0,6
19.675,3,12,16,5,2,1,3,3
19.68,5,14,36,26,7,2,2,5
19.685,0,39,8,5,1,0,0,0
19.69,1,6,47,3,3,0,3,4
19.695,10,30,31,22,5,0,5,1
19.7,13,14,21,4,2,7,4,22
19.705,6,35,37,9,1,1,4,15
19.71,7,68,33,7,0,2,3,4
19.715,2,6,19,4,5,3,1,8
19.72,11,6,19,15,6,2,3,6
19.725,15,35,6,61,12,3,2,1
19.73,0,31,32,17,3,8,3,6
19.735,6,99,45,6,3,1,2,2
19.74,0,8,44,57,6,3,0,4
19.745,3,45,48,27,0,4,8,1
19.75,12,65,41,40,9,2,2,10
19.755,7,13,50,28,2,1,3,3
19.76,4,17,34,3,2,4,1,3
19.765,3,20,27,11,7,1,3,1
19.77,2,7,63,21,4,2,1,4
19.775,9,108,42,20,2,2,4,4
19.78,7,17,14,76,22,10,5,10
19.785,9,57,4,6,2,3,2,3
19.79,8,0,23,4,2,3,1,5
19.795,7,9,7,5,2,6,2,0
19.8,3,32,20,27,3,6,2,1
19.805,2,15,5,5,2,4,0,0
19.81,25,58,16,2,1,0,1,3
19.815,11,10,8,5,2,2,1,3
19.82,8,11,16,13,2,4,4,5
19.825,3,2,9,10,4,4,6,2
19.83,1,3,12,2,3,2,1,3
19.835,3,38,38,25,7,1,2,3
19.84,2,4,5,57,3,3,1,4
19.845,5,17,111,34,6,3,1,3
19.85,6,13,79,28,5,8,3,1
19.855,6,53,86,6,2,8,0,1
19.86,3,32,59,12,2,4,0,1
19.865,0,35,0,33,5,3,1,5
19.87,7,44,27,1,3,4,1,2
19.875,0,100,80,12,0,1,5,8
19.88,14,30,23,10,11,15,11,9
19.885,3,26,20,9,1,4,0,3
19.89,8,3,1,5,1,11,5,8
19.895,2,12,24,7,6,3,2,3
19.9,4,59,39,16,4,11,2,6
19.905,18,34,22,4,0,3,2,7
19.91,4,12,1,3,3,10,1,1
19.915,18,67,14,3,1,8,3,5
19.92,14,17,4,6,4,2,3,3
19.925,6,14,5,3,3,4,5,1
19.93,5,9,2,8,1,13,1,1
19.935,4,15,30,9,3,1,4,5
19.94,19,43,9,3,3,6,5,9
19.945,8,4,24,7,3,2,0,6
19.95,4,35,15,13,3,3,2,1
19.955,15,11,80,31,6,2,7,7
19.96,14,32,27,0,3,5,1,1
19.965,4,4,24,2,7,2,2,3
19.97,10,70,10,1,6,4,5,8
19.975,12,2,28,3,1,4,2,4
19.98,2,23,8,3,3,7,0,1
19.985,1,3,10,11,1,7,1,5
19.99,2,15,1,12,7,3,4,3
19.995,1,19,9,1,0,6,1,0
20,3,55,16,8,8,7,3,6
20.005,4,16,19,2,1,9,1,1
20.01,3,4,24,12,5,1,0,2
20.015,11,47,27,0,4,2,0,1
20.02,7,17,6,16,3,2,2,1
20.025,9,46,2,8,6,5,2,1
20.03,2,62,8,23,8,3,1,2
20.035,15,4,8,24,15,4,3,1
20.04,5,17,3,8,10,6,3,1
20.045,3,33,11,19,6,9,1,1
20.05,10,3,6,10,6,0,0,2
20.055,0,6,17,15,6,2,6,4
20.06,3,13,0,16,9,11,3,1
20.065,7,18,1,23,4,12,4,7
20.07,2,6,7,46,13,3,0,1
20.075,1,33,7,40,7,32,4,0
20.08,4,2,4,35,5,6,3,11
20.085,5,3,7,3,0,10,4,6
20.09,3,10,5,15,8,8,1,3
20.095,14,1,9,11,2,35,3,3
20.1,23,11,3,2,3,15,7,9
20.105,1,0,4,5,6,13,2,3
20.11,5,11,5,18,2,11,3,3
20.115,12,15,9,11,0,24,8,6
20.12,8,12,4,27,18,13,7,6
20.125,4,19,3,53,17,21,3,6
20.13,6,26,0,2,0,11,1,4
20.135,2,15,3,4,8,31,8,3
20.14,5,3,1,24,2,4,4,0
20.145,1,7,0,49,8,43,1,2
20.15,6,0,1,48,19,10,0,3
20.155,7,12,1,3,13,15,8,3
20.16,5,13,4,35,12,77,5,1
20.165,3,25,1,38,1,91,4,2
20.17,0,8,4,45,2,37,5,1
20.175,0,6,3,64,17,43,6,2
20.18,4,15,3,11,17,53,8,1
20.185,1,3,0,29,15,124,0,2
20.19,8,8,5,0,4,120,3,10
20.195,1,3,2,7,3,104,7,12
20.2,10,11,1,4,3,85,2,3
20.205,8,4,8,18,5,46,5,1
20.21,10,8,21,10,3,52,3,6
20.215,3,13,14,24,5,15,2,1
20.22,14,9,5,60,10,14,1,1
20.225,10,19,9,22,8,8,6,4
20.23,4,9,2,15,10,14,8,2
20.235,5,0,10,24,5,4,4,3
20.24,0,1,3,41,2,0,1,4
20.245,4,10,10,20,3,24,3,2
20.25,1,0,5,4,1,10,15,5
20.255,7,3,3,25,5,1,4,2
20.26,5,4,8,30,12,1,0,5
20.265,5,2,3,1,4,10,8,8
20.27,10,6,1,41,6,29,6,10
20.275,12,8,10,4,10,8,12,10
20.28,2,4,1,14,5,3,11,2
20.285,4,3,6,1,1,11,2,2
20.29,9,1,5,32,11,0,7,6
20.295,5,8,5,4,2,2,9,1
20.3,1,1,1,12,0,14,7,1
20.305,4,8,1,2,12,2,12,5
20.31,12,14,3,29,7,7,1,2
20.315,3,2,2,18,6,4,8,6
20.32,7,4,1,1,9,3,8,1
20.325,3,5,6,10,4,0,6,4
20.33,8,2,0,18,3,2,2,0
20.335,2,4,2,5,6,3,1,4
20.34,11,8,3,31,2,3,5,2
20.345,0,3,3,23,3,0,11,6
20.35,1,3,1,3,11,2,12,2
20.355,4,3,1,9,4,2,4,8
20.36,4,2,4,19,9,7,14,1
20.365,4,5,3,4,8,3,9,8
20.37,8,0,3,8,6,3,8,2
20.375,3,2,5,19,2,8,11,8
20.38,15,4,3,15,1,7,0,3
20.385,7,10,3,39,9,1,14,5
20.39,5,1,6,39,4,4,12,2
20.395,12,4,13,16,1,2,3,3
20.4,4,3,5,15,1,4,7,2
20.405,1,8,14,6,8,4,10,10
20.41,5,10,13,1,7,3,1,3
20.415,8,2,1,19,0,1,2,1
20.42,3,11,9,15,11,3,7,6
20.425,3,4,14,41,12,6,2,3
20.43,4,1,14,19,7,6,1,1
20.435,11,5,1,24,4,3,3,3
20.44,3,0,6,18,2,25,10,2
20.445,5,3,19,0,10,52,1,7
20.45,7,6,17,9,9,33,14,5
20.455,2,2,2,11,10,17,5,4
20.46,2,5,4,41,6,27,0,1
20.465,6,9,3,47,9,17,11,5
20.47,6,9,1,16,17,37,20,11
20.475,3,3,9,1,5,21,9,6
20.48,9,10,11,14,12,12,18,9
20.485,2,3,6,1,4,3,8,8
20.49,5,1,15,7,1,9,5,18
20.495,6,5,2,0,9,20,8,3
20.5,1,2,5,8,5,1,4,7
20.505,1,1,20,5,3,58,6,1
20.51,6,4,17,15,2,114,2,2
20.515,2,0,3,29,2,128,4,5
20.52,0,1,7,13,4,83,10,1
20.525,1,4,3,19,17,27,6,4
20.53,4,1,19,12,7,11,4,3
20.535,3,9,9,8,6,21,6,6
20.54,0,2,19,6,9,43,9,5
20.545,2,3,7,14,3,68,3,2
20.55,3,4,0,6,4,69,9,5
20.555,8,7,8,12,8,75,2,1
20.56,4,7,1,10,1,77,10,7
20.565,1,2,16,27,8,96,9,8
20.57,4,8,33,43,29,83,4,0
20.575,0,6,12,20,7,59,3,6
20.58,4,5,3,19,13,40,3,4
20.585,0,4,5,6,6,12,4,5
20.59,2,4,2,15,19,21,1,1
20.595,2,10,18,6,13,7,1,2
20.6,6,4,1,1,42,15,5,3
20.605,8,2,12,6,41,33,8,0
20.61,25,8,27,11,15,3,9,9
20.615,4,6,20,18,6,18,3,8
20.62,14,15,9,1,27,17,6,18
20.625,7,5,4,15,27,17,1,8
20.63,13,5,23,3,13,9,3,5
20.635,6,7,9,12,19,0,4,0
20.64,2,4,19,6,1,9,2,1
20.645,7,7,21,13,13,12,3,1
20.65,15,3,15,3,1,6,5,2
20.655,2,5,27,4,4,8,6,3
20.66,1,9,26,2,1,5,3,1
20.665,3,17,9,18,12,8,4,7
20.67,8,36,89,49,26,18,15,6
20.675,5,0,20,32,8,7,8,7
20.68,4,10,9,4,14,9,13,6
20.685,7,6,4,5,13,7,1,3
20.69,6,3,10,2,5,5,5,5
20.695,3,1,18,11,2,5,10,6
20.7,4,6,2,23,2,9,8,2
20.705,10,8,12,0,0,20,4,3
20.71,5,7,21,22,13,4,5,1
20.715,1,9,2,16,5,10,11,2
20.72,2,4,33,4,15,11,13,9
20.725,3,9,16,21,15,7,10,1
20.73,6,1,8,21,9,0,5,1
20.735,2,15,16,1,23,13,18,23
20.74,16,17,3,27,15,3,6,24
20.745,8,4,17,20,20,11,12,13
20.75,3,6,5,7,10,10,13,9
20.755,2,6,17,0,5,1,2,2
20.76,8,11,4,6,17,4,14,17
20.765,8,6,5,8,5,5,5,2
20.77,1,5,24,2,13,10,7,5
20.775,3,0,21,5,4,5,1,1
20.78,2,1,17,10,10,3,5,3
20.785,3,8,17,6,10,8,10,0
20.79,4,6,2,20,31,5,5,3
20.795,10,4,20,11,9,2,4,3
20.8,1,2,15,12,2,4,5,1
20.805,4,3,5,15,5,1,3,2
20.81,6,11,35,1,5,2,0,2
20.815,12,11,29,3,1,7,5,6
20.82,2,6,52,10,2,3,4,2
20.825,3,2,35,0,10,6,2,2
20.83,16,8,8,3,2,4,2,0
20.835,7,2,15,15,7,8,1,5
20.84,5,4,17,19,6,0,7,1
20.845,2,2,13,5,0,1,4,0
20.85,4,4,31,14,16,16,6,2
20.855,0,7,2,40,34,11,11,21
20.86,1,0,3,13,9,4,1,5
20.865,1,3,16,21,25,8,5,6
20.87,0,10,19,0,11,2,4,2
20.875,0,7,27,11,3,7,1,1
20.88,2,18,33,32,12,7,10,6
20.885,0,4,22,2,1,11,3,6
20.89,3,10,2,9,20,20,9,10
20.895,5,5,10,20,7,4,5,0
20.9,5,2,2,11,7,1,9,7
20.905,6,1,34,8,4,0,3,0
20.91,9,1,5,6,2,13,4,0
20.915,2,2,21,1,14,10,9,3
20.92,7,5,8,8,8,2,0,2
20.925,1,6,15,25,27,5,8,4
20.93,6,1,1,3,4,10,7,7
20.935,4,3,34,5,11,12,3,0
20.94,5,6,25,4,18,3,1,6
20.945,1,4,7,5,7,22,4,5
20.95,3,2,17,4,31,1,3,1
20.955,2,4,20,12,27,6,4,5
20.96,4,4,16,2,5,3,6,5
20.965,7,4,45,6,5,15,5,0
20.97,12,16,2,3,4,30,7,8
20.975,2,0,2,14,9,1,7,14
20.98,4,5,24,8,18,8,1,5
20.985,3,1,8,1,3,5,1,5
20.99,1,1,9,6,0,11,8,4
20.995,3,14,49,1,4,3,1,9
21,1,13,24,12,5,2,7,5
21.005,4,4,0,1,24,23,7,2
21.01,2,18,10,16,3,9,2,7
21.015,8,5,15,49,21,13,7,4
21.02,2,3,15,26,3,13,3,0
21.025,5,20,37,3,11,0,6,8
21.03,5,16,16,20,19,1,8,4
21.035,6,2,6,3,9,1,7,3
21.04,5,0,4,22,11,3,9,0
21.045,4,7,19,4,0,5,4,3
21.05,6,6,4,21,6,0,7,0
21.055,3,1,2,4,4,4,10,7
21.06,2,1,5,2,12,5,17,2
21.065,1,9,10,16,16,3,7,6
21.07,1,13,18,19,21,6,14,11
21.075,10,11,17,8,3,15,5,6
21.08,1,9,2,6,11,8,8,2
21.085,3,1,0,14,11,10,6,4
21.09,0,10,8,6,8,3,7,5
21.095,7,2,3,3,1,1,4,7
21.1,3,5,7,17,13,6,11,4
21.105,3,6,1,27,21,2,2,6
21.11,12,9,5,3,5,4,3,10
21.115,1,5,2,19,8,8,2,2
21.12,3,1,0,9,0,3,13,4
21.125,14,9,24,5,3,6,6,8
21.13,2,7,7,26,17,6,2,0
21.135,8,0,4,0,4,4,6,2
21.14,6,2,10,10,4,0,4,1
21.145,12,3,2,5,10,7,5,0
21.15,2,1,6,15,24,11,14,3
21.155,2,7,3,10,5,2,7,8
21.16,5,5,9,21,15,15,5,0
21.165,5,12,4,27,8,13,10,1
21.17,3,2,17,14,17,4,5,1
21.175,1,1,14,0,14,1,0,2
21.18,10,18,11,18,25,3,10,3
21.185,3,3,4,17,15,8,6,0
21.19,0,1,18,2,2,5,1,0
21.195,2,7,9,4,9,9,10,16
21.2,2,1,14,9,6,3,4,13
21.205,1,6,1,20,7,1,13,7
21.21,0,1,11,12,24,9,6,4
21.215,2,4,4,10,22,11,15,5
21.22,1,4,17,15,13,9,10,5
21.225,1,1,5,2,1,1,1,2
21.23,8,1,5,13,2,1,6,0
21.235,4,4,20,11,3,8,8,8
21.24,9,4,1,41,35,1,1,4
21.245,7,5,1,1,20,8,0,2
21.25,9,5,6,2,7,6,2,2
21.255,0,8,13,8,4,1,6,5
21.26,3,7,34,19,3,1,3,1
21.265,0,5,37,3,0,3,6,3
21.27,3,2,25,2,3,5,3,1
21.275,6,8,2,6,16,7,0,1
21.28,1,8,22,13,9,1,3,4
21.285,9,4,7,9,12,0,4,5
21.29,3,14,7,17,19,7,2,6
21.295,3,2,3,20,14,1,2,1
21.3,6,3,6,24,4,12,2,2
21.305,11,3,21,16,6,4,0,1
21.31,7,2,13,12,4,1,3,1
21.315,1,10,36,16,17,3,10,3
21.32,4,2,17,10,4,18,1,0
21.325,1,5,5,27,9,1,4,4
21.33,1,7,5,0,7,18,0,0
21.335,7,7,35,18,13,15,2,1
21.34,3,6,18,0,1,10,2,0
21.345,6,15,8,42,44,2,6,6
21.35,2,5,4,3,3,17,0,5
21.355,13,19,2,17,27,1,6,1
21.36,9,35,10,12,19,3,2,0
21.365,8,2,17,8,32,16,12,3
21.37,9,12,11,10,12,19,4,2
21.375,12,20,48,37,24,15,5,2
21.38,11,41,56,11,13,15,2,1
21.385,0,13,2,0,6,2,4,3
21.39,12,2,11,19,19,10,12,5
21.395,12,3,9,13,19,0,3,3
21.4,4,19,13,11,22,1,6,3
21.405,17,4,0,4,3,5,7,2
21.41,20,20,27,2,1,1,0,1
21.415,1,5,19,7,7,3,6,6
21.42,15,4,36,17,30,11,8,2
21.425,4,11,6,13,4,6,7,1
21.43,5,8,14,2,19,9,10,1
21.435,9,11,1,11,5,1,5,0
21.44,22,28,25,25,23,3,3,0
21.445,11,12,9,13,16,6,4,2
21.45,4,2,9,21,4,7,8,4
21.455,5,20,70,9,16,17,1,1
21.46,8,4,8,2,15,1,6,2
21.465,10,9,17,31,17,8,12,6
21.47,6,11,0,34,19,10,7,4
21.475,1,2,21,28,15,0,15,7
21.48,1,3,13,2,7,1,2,6
21.485,1,0,14,17,14,14,2,0
21.49,1,16,7,8,9,1,8,2
21.495,6,2,25,6,14,10,7,3
21.5,3,12,13,1,12,1,4,2
21.505,2,3,18,33,8,1,7,2
21.51,8,2,12,15,10,3,2,3
21.515,1,1,18,2,4,0,2,3
21.52,1,2,4,12,1,3,4,1
21.525,12,4,1,9,6,2,4,3
21.53,6,20,48,1,2,2,1,2
21.535,12,21,68,14,10,2,13,8
21.54,13,0,22,27,1,1,5,1
21.545,6,6,2,33,6,1,2,4
21.55,2,2,5,35,0,5,7,2
21.555,2,0,33,26,8,1,1,2
21.56,2,3,15,11,17,0,14,5
21.565,16,5,3,17,16,1,5,0
21.57,5,1,6,24,4,2,1,3
21.575,2,1,13,3,4,1,2,1
21.58,15,20,16,2,10,10,0,3
21.585,7,3,18,14,3,3,1,3
21.59,8,5,9,14,2,4,4,5
21.595,2,10,20,16,8,3,8,3
21.6,2,15,8,6,1,4,3,1
21.605,7,1,0,18,1,9,6,2
21.61,6,16,1,34,26,9,9,2
21.615,0,4,18,4,8,2,2,2
21.62,12,23,21,12,5,5,8,4
21.625,10,8,7,9,9,3,10,6
21.63,0,7,3,25,9,1,6,4
21.635,9,1,20,29,6,8,9,3
21.64,12,11,4,26,18,1,7,5
21.645,11,10,9,13,6,2,1,2
21.65,2,7,3,28,26,14,14,4
21.655,11,45,3,40,6,6,1,0
21.66,19,25,2,7,19,3,7,4
21.665,7,25,3,13,18,6,6,2
21.67,7,23,3,42,22,1,9,2
21.675,2,27,9,24,16,8,7,0
21.68,20,31,1,37,9,7,3,2
21.685,10,5,24,15,8,1,5,1
21.69,9,16,6,7,11,1,5,4
21.695,4,4,12,5,0,13,2,4
21.7,4,6,23,9,8,11,5,1
21.705,2,7,5,8,8,5,6,3
21.71,18,2,8,7,1,1,5,1
21.715,5,2,0,20,0,1,2,1
21.72,1,8,14,8,0,6,6,1
21.725,11,14,4,11,15,2,7,0
21.73,19,7,0,4,13,3,4,2
21.735,2,2,11,21,8,7,10,2
21.74,5,6,1,18,9,5,2,2
21.745,2,22,6,37,25,2,3,2
21.75,4,3,10,16,8,5,4,2
21.755,4,54,5,32,9,3,3,3
21.76,6,10,6,5,22,7,9,0
21.765,17,7,17,6,2,9,3,4
21.77,13,33,8,10,17,9,14,0
21.775,10,37,7,7,1,2,4,2
21.78,17,13,2,7,12,1,1,4
21.785,19,1,20,8,6,1,7,4
21.79,1,9,9,5,8,7,11,3
21.795,4,7,18,3,2,4,5,1
21.8,1,14,0,15,12,7,13,4
21.805,1,9,4,12,8,5,5,4
21.81,2,14,8,14,11,2,0,4
21.815,3,15,10,7,3,3,7,3
21.82,13,10,0,24,21,9,9,4
21.825,10,6,17,7,3,2,4,2
21.83,3,19,6,29,4,4,1,1
21.835,11,15,4,18,18,13,8,6
21.84,16,4,10,41,7,4,1,3
21.845,14,14,0,3,7,2,1,2
21.85,4,5,13,14,16,14,11,5
21.855,0,0,0,12,12,7,2,1
21.86,2,23,9,11,0,6,5,0
21.865,6,13,26,8,9,6,3,2
21.87,7,1,11,2,2,8,5,2
21.875,3,1,2,9,6,1,2,0
21.88,3,8,13,6,2,4,5,1
21.885,1,8,1,5,4,7,2,1
21.89,0,1,17,1,10,1,3,1
21.895,1,5,9,16,7,2,3,3
21.9,2,8,5,27,2,2,2,2
21.905,5,19,33,13,9,9,2,2
21.91,1,3,0,17,5,1,0,1
21.915,0,6,3,15,9,4,2,3
21.92,1,3,0,1,16,6,7,0
21.925,1,5,19,21,21,8,10,0
21.93,8,7,3,6,5,0,2,3
21.935,1,4,12,17,2,6,6,4
21.94,4,10,6,5,2,0,0,2
21.945,1,8,0,12,20,2,6,2
21.95,3,2,2,22,17,4,2,4
21.955,3,8,16,5,4,6,2,1
21.96,3,4,12,10,5,4,2,0
21.965,4,4,18,27,10,1,2,5
21.97,6,24,23,11,3,7,3,3
21.975,2,19,17,15,28,8,9,4
21.98,3,7,3,18,15,3,5,0
21.985,1,1,6,9,6,1,5,2
21.99,4,20,11,29,15,2,1,0
21.995,3,2,16,18,28,9,13,2
22,2,5,2,4,4,2,5,5
22.005,2,6,4,2,7,0,6,1
22.01,0,1,24,10,2,7,5,3
22.015,0,14,3,21,4,1,2,2
22.02,4,59,6,5,8,2,2,0
22.025,0,15,22,2,10,8,11,1
22.03,10,37,5,11,12,6,4,1
22.035,0,5,8,22,19,4,0,3
22.04,5,3,6,6,11,4,3,3
22.045,2,11,8,22,15,8,7,9
22.05,1,19,7,1,7,6,8,4
22.055,4,0,7,13,1,3,1,0
22.06,4,14,3,14,4,1,11,2
22.065,1,2,0,30,12,6,3,1
22.07,3,7,2,4,1,4,5,4
22.075,1,7,12,20,12,6,8,2
22.08,1,2,2,14,4,2,2,3
22.085,4,5,1,4,2,7,2,2
22.09,3,2,5,6,5,1,3,2
22.095,1,9,5,15,3,1,1,1
22.1,4,13,31,5,2,3,2,0
22.105,3,31,41,21,6,9,7,4
22.11,4,17,15,1,4,2,3,2
22.115,2,10,7,5,20,10,3,1
22.12,0,6,4,6,2,5,2,1
22.125,0,15,0,8,8,13,8,3
22.13,5,22,6,2,13,1,2,2
22.135,8,15,10,7,17,3,2,2
22.14,3,10,11,17,12,1,8,3
22.145,2,8,19,6,15,5,7,0
22.15,5,1,10,16,1,2,4,2
22.155,5,19,28,2,21,6,2,0
22.16,4,9,19,4,3,1,0,3
22.165,1,19,10,2,9,2,3,1
22.17,3,3,16,4,0,0,2,2
22.175,0,6,5,7,4,1,0,0
22.18,1,4,7,4,0,6,3,0
22.185,6,10,1,5,5,2,1,3
22.19,1,20,27,25,9,5,3,4
22.195,4,13,8,45,18,3,2,1
22.2,7,68,10,19,12,3,1,3
22.205,3,33,1,3,11,1,2,0
22.21,7,34,45,3,18,9,8,4
22.215,7,12,38,1,9,2,6,6
22.22,1,5,14,1,3,3,2,3
22.225,1,19,17,13,15,4,3,2
22.23,2,28,21,27,17,9,0,0
22.235,4,13,47,24,18,4,6,3
22.24,1,20,1,9,0,0,0,1
22.245,2,4,16,1,1,3,2,0
22.25,3,13,3,16,8,7,5,2
22.255,2,6,3,10,5,3,0,2
22.26,1,11,6,9,2,2,2,2
22.265,2,7,25,18,18,8,6,1
22.27,0,8,9,16,2,2,1,1
22.275,4,10,18,32,7,2,2,0
22.28,2,4,2,30,10,4,2,1
22.285,1,2,7,21,13,3,1,1
22.29,4,3,3,10,4,6,2,1
22.295,2,23,3,12,3,1,2,1
22.3,2,42,21,7,8,3,2,1
22.305,3,9,24,12,12,8,4,3
22.31,2,3,30,4,2,2,1,1
22.315,2,35,8,8,8,4,5,5
22.32,2,20,14,13,2,2,1,1
22.325,1,3,11,6,0,1,0,1
22.33,2,10,16,11,7,8,0,3
22.335,0,4,9,5,0,8,3,1
22.34,0,3,4,10,4,7,4,5
22.345,4,5,16,12,10,1,4,1
22.35,2,1,1,7,1,6,5,3
22.355,2,18,6,15,7,8,4,3
22.36,1,5,2,3,6,5,5,0
22.365,3,18,22,2,7,3,3,1
22.37,1,0,11,13,9,5,1,1
22.375,5,9,48,14,5,3,2,2
22.38,2,36,81,20,6,6,7,5
22.385,5,4,43,16,20,2,1,1
22.39,2,8,16,0,4,5,4,4
22.395,0,19,4,7,6,1,5,1
22.4,2,3,19,14,3,3,6,4
22.405,7,7,21,29,8,8,5,6
22.41,7,3,4,6,2,3,1,1
22.415,1,0,10,6,4,4,3,1
22.42,2,12,29,10,4,0,7,2
22.425,7,15,19,26,8,6,1,3
22.43,1,11,1,2,14,1,2,0
22.435,2,6,49,10,2,1,1,3
22.44,4,8,4,5,7,9,6,3
22.445,4,24,8,12,1,0,0,2
22.45,0,40,17,3,3,4,3,4
22.455,2,56,13,10,11,1,3,0
22.46,6,13,12,40,17,1,3,1
22.465,5,10,18,3,4,2,3,1
22.47,3,16,9,1,14,2,1,1
22.475,1,19,15,30,12,0,1,2
22.48,5,3,5,62,19,1,6,2
22.485,1,4,34,0,3,1,3,1
22.49,0,33,55,18,7,6,4,2
22.495,1,38,58,9,1,5,8,0
22.5,1,11,20,16,4,5,1,2
22.505,3,8,14,2,8,1,4,0
22.51,1,10,3,5,1,2,2,0
22.515,2,5,14,4,3,3,2,2
22.52,1,6,14,7,14,0,5,1
22.525,5,10,15,22,17,13,5,3
22.53,4,11,8,2,3,1,3,3
22.535,3,57,49,38,10,1,2,2
22.54,8,50,54,29,4,0,3,1
22.545,0,5,22,3,1,1,3,0
22.55,2,9,1,1,2,1,1,1
22.555,1,35,10,2,1,2,2,1
22.56,3,33,24,14,1,4,5,2
22.565,2,8,40,22,11,2,3,2
22.57,9,6,24,14,9,0,0,0
22.575,2,14,0,14,7,2,3,1
22.58,3,9,3,6,3,1,2,1
22.585,2,3,41,2,3,1,1,1
22.59,0,15,32,4,12,15,6,5
22.595,7,7,20,9,18,3,4,2
22.6,2,20,16,3,15,3,4,2
22.605,1,8,15,9,7,1,2,0
22.61,3,28,13,23,6,8,1,0
22.615,1,12,13,11,7,7,3,2
22.62,1,6,1,9,2,2,1,2
22.625,1,6,19,5,0,1,4,1
22.63,0,6,5,5,5,5,1,0
22.635,3,18,6,10,5,3,1,1
22.64,4,21,8,30,6,2,6,6
22.645,3,5,21,1,3,0,2,0
22.65,4,7,23,7,5,6,2,1
22.655,4,8,10,3,2,7,4,2
22.66,1,10,2,2,8,3,1,2
22.665,1,9,33,8,3,1,1,0
22.67,4,28,13,13,2,4,1,0
22.675,3,6,1,22,6,4,2,6
22.68,4,7,9,28,17,9,1,4
22.685,6,9,11,5,1,3,2,1
22.69,2,12,11,3,1,12,6,4
22.695,1,13,3,9,9,2,3,0
22.7,2,22,20,1,0,6,7,3
22.705,1,8,6,0,10,3,1,1
22.71,4,1,17,4,4,4,5,1
22.715,0,2,21,10,4,1,0,1
22.72,3,2,35,5,1,8,7,3
22.725,0,16,36,1,7,1,4,3
22.73,4,19,10,22,11,1,1,2
22.735,2,11,0,6,19,0,3,1
22.74,5,4,8,16,11,4,6,3
22.745,1,38,24,11,6,7,3,3
22.75,0,17,3,4,1,1,4,1
22.755,4,24,14,15,8,8,1,3
22.76,0,18,13,1,7,2,2,5
22.765,2,15,6,2,6,6,2,0
22.77,3,20,14,14,1,3,0,2
22.775,0,6,9,20,1,11,5,0
22.78,1,6,15,2,6,5,1,0
22.785,7,17,9,7,13,0,0,2
22.79,1,20,19,6,0,4,3,1
22.795,3,2,7,7,2,1,1,0
22.8,0,12,3,2,2,4,2,3
22.805,0,14,21,1,9,2,0,0
22.81,1,0,17,12,15,2,4,3
22.815,6,33,13,25,7,6,2,0
22.82,4,43,1,2,8,5,5,2
22.825,0,6,25,0,3,1,1,1
22.83,3,8,16,7,6,1,2,2
22.835,4,10,45,16,13,8,4,4
22.84,4,10,11,4,5,11,6,2
22.845,2,4,1,38,15,9,9,5
22.85,6,10,3,14,0,1,1,3
22.855,1,12,21,22,2,2,3,1
22.86,2,0,6,7,1,9,10,1
22.865,0,11,34,26,13,9,3,2
22.87,2,4,17,15,9,5,5,4
22.875,4,11,7,2,1,7,2,1
22.88,6,10,1,7,4,2,0,4
22.885,0,12,42,6,2,5,2,3
22.89,4,20,47,2,2,3,3,1
22.895,0,7,7,2,1,1,2,1
22.9,0,10,5,2,3,2,2,2
22.905,3,5,11,1,7,2,4,2
22.91,1,10,2,14,10,7,2,1
22.915,4,4,5,14,6,3,2,1
22.92,1,28,3,7,5,6,6,4
22.925,7,4,9,4,19,3,1,0
22.93,3,2,14,8,2,7,1,2
22.935,9,6,20,24,1,3,6,6
22.94,1,3,9,4,2,7,5,1
22.945,3,5,14,10,12,0,0,1
22.95,2,4,26,14,2,5,1,1
22.955,1,11,37,26,10,4,3,3
22.96,7,17,2,12,1,3,2,0
22.965,0,2,18,10,2,2,4,2
22.97,0,12,8,3,3,3,2,0
22.975,4,21,19,31,9,9,4,0
22.98,6,8,17,12,3,11,5,0
22.985,2,6,12,11,9,0,2,1
22.99,3,18,6,5,8,2,4,3
22.995,4,6,12,4,5,3,7,2
23,1,11,9,5,10,1,0,2
23.005,3,15,2,15,2,1,1,0
23.01,4,5,4,7,4,1,1,0
23.015,0,9,12,4,7,2,1,1
23.02,3,37,15,3,2,5,2,1
23.025,3,25,14,9,4,2,5,3
23.03,2,6,1,3,6,2,2,2
23.035,1,1,10,10,6,6,6,1
23.04,2,1,4,26,12,8,2,1
23.045,2,18,3,19,4,1,2,3
23.05,1,9,24,10,6,2,1,1
23.055,2,5,13,7,4,6,2,0
23.06,4,21,0,6,10,8,6,3
23.065,2,6,33,9,2,1,1,2
23.07,2,4,4,11,8,5,4,1
23.075,4,11,32,8,1,0,4,1
23.08,2,4,25,19,4,2,1,2
23.085,2,1,4,4,10,3,1,0
23.09,2,11,8,10,7,5,3,0
23.095,6,4,2,13,12,6,5,3
23.1,2,5,3,6,1,3,0,2
23.105,0,6,5,9,5,4,1,0
23.11,4,9,10,8,2,4,4,3
23.115,5,4,6,10,1,4,1,1
23.12,2,9,13,6,7,4,5,2
23.125,2,4,37,11,5,1,1,1
23.13,3,5,23,21,10,6,0,1
23.135,4,5,5,1,3,1,2,1
23.14,1,2,16,6,4,7,2,0
23.145,3,1,8,15,12,6,5,1
23.15,0,8,23,8,10,1,1,4
23.155,2,1,21,5,6,1,5,2
23.16,3,9,23,3,8,2,1,1
23.165,1,18,18,1,8,2,2,0
23.17,2,13,24,8,4,1,4,1
23.175,1,1,16,2,2,6,0,2
23.18,4,3,6,4,2,3,0,3
23.185,5,20,36,27,19,6,3,2
23.19,1,10,15,15,12,2,2,0
23.195,2,7,11,20,12,3,1,0
23.2,0,6,32,13,8,6,0,1
23.205,3,11,10,1,6,5,1,1
23.21,7,15,7,19,13,5,1,1
23.215,1,13,22,10,8,10,7,6
23.22,4,9,11,13,1,6,3,1
23.225,1,7,13,8,2,1,0,1
23.23,4,4,6,15,6,6,5,2
23.235,0,4,9,1,5,1,1,1
23.24,2,29,37,7,5,5,5,4
23.245,1,36,45,11,16,1,2,1
23.25,10,28,15,6,8,10,3,3
23.255,3,1,3,4,1,9,1,0
23.26,4,1,2,2,3,4,4,3
23.265,2,26,8,3,7,2,3,4
23.27,1,27,7,7,6,1,1,0
23.275,5,7,14,4,4,4,1,4
23.28,3,11,15,2,2,5,4,3
23.285,0,3,15,3,10,5,5,0
23.29,4,2,0,5,3,2,1,2
23.295,1,4,15,9,4,0,8,1
23.3,4,4,3,19,7,8,2,2
23.305,5,12,6,1,3,7,1,3
23.31,0,7,3,4,12,0,4,0
23.315,0,5,7,9,1,1,2,3
23.32,1,13,5,29,2,6,4,2
23.325,1,1,4,45,23,3,2,2
23.33,1,23,13,16,12,2,4,2
23.335,2,53,15,6,5,4,1,1
23.34,1,13,9,27,16,11,4,2
23.345,8,17,26,26,9,2,1,2
23.35,5,6,18,22,14,8,5,0
23.355,1,2,10,2,4,2,5,1
23.36,4,7,20,6,6,3,1,2
23.365,3,11,38,13,2,2,5,1
23.37,2,17,4,19,9,1,3,0
23.375,2,22,4,5,2,0,2,2
23.38,1,52,5,14,7,0,3,0
23.385,1,42,6,9,5,1,3,1
23.39,0,14,14,16,0,2,3,2
23.395,2,8,17,2,9,3,4,3
23.4,0,7,6,1,1,1,3,1
23.405,1,10,12,10,6,3,6,1
23.41,3,18,6,11,8,1,2,1
23.415,3,10,11,8,5,2,6,4
23.42,1,1,19,21,9,2,6,4
23.425,1,5,16,11,2,1,3,2
23.43,1,4,1,3,6,5,1,0
23.435,3,6,14,9,3,0,2,1
23.44,2,5,6,1,2,4,4,3
23.445,4,4,5,26,1,3,1,1
23.45,1,1,12,1,11,6,1,1
23.455,1,2,17,1,5,6,1,1
23.46,5,4,1,18,8,7,2,4
23.465,0,12,2,6,13,3,3,2
23.47,1,12,9,15,12,7,4,4
23.475,1,7,7,4,3,3,3,0
23.48,5,11,25,8,3,1,7,2
23.485,6,18,33,1,3,1,3,3
23.49,1,9,10,7,3,1,1,2
23.495,2,3,25,15,3,2,1,1
23.5,1,73,17,1,9,3,8,3
23.505,3,76,16,8,4,1,3,2
23.51,1,6,7,0,8,1,4,1
23.515,3,22,23,1,9,3,1,4
23.52,1,36,5,3,7,4,3,3
23.525,2,1,26,13,7,1,2,1
23.53,2,7,1,1,1,5,3,4
23.535,2,22,17,3,1,0,3,1
23.54,4,1,4,5,4,1,1,0
23.545,0,15,10,8,4,5,4,1
23.55,2,15,14,1,0,5,3,0
23.555,4,15,41,5,1,4,2,2
23.56,0,33,19,1,2,1,4,0
23.565,5,8,3,13,8,7,3,1
23.57,5,22,1,16,11,1,4,1
23.575,1,3,75,0,4,5,2,1
23.58,3,25,26,3,8,2,3,0
23.585,6,9,10,8,15,0,0,5
23.59,0,5,17,2,8,4,3,1
23.595,3,8,7,7,8,7,3,1
23.6,5,22,1,3,4,0,0,5
23.605,7,37,20,5,3,3,4,3
23.61,0,4,14,16,10,5,5,1
23.615,0,1,9,11,5,0,0,1
23.62,3,15,16,2,9,0,0,1
23.625,5,40,5,2,1,2,2,5
23.63,1,11,25,6,10,5,9,3
23.635,1,14,20,10,13,6,7,2
23.64,4,4,3,10,1,1,8,2
23.645,1,14,26,6,11,12,12,4
23.65,0,1,6,18,2,4,2,0
23.655,0,2,23,7,5,2,0,1
23.66,2,14,40,4,20,3,11,2
23.665,2,8,36,15,12,7,10,2
23.67,2,0,1,0,6,7,1,2
23.675,3,6,27,16,12,2,5,0
23.68,2,7,22,11,5,3,5,0
23.685,2,13,9,5,3,2,1,2
23.69,0,22,1,9,3,1,1,1
23.695,4,6,18,4,4,3,7,5
23.7,0,12,26,4,2,6,5,2
23.705,5,4,7,5,8,6,3,1
23.71,2,7,17,8,3,1,2,1
23.715,4,17,16,18,3,1,8,4
23.72,8,12,11,28,6,2,3,4
23.725,2,3,70,14,1,2,2,0
23.73,6,18,20,19,9,3,3,3
23.735,3,74,21,12,0,2,3,4
23.74,9,0,25,16,10,3,4,1
23.745,2,8,4,2,1,2,1,1
23.75,4,23,9,14,22,1,4,1
23.755,5,7,6,8,10,3,2,0
23.76,3,8,12,14,10,4,3,1
23.765,2,3,25,1,4,4,6,3
23.77,3,10,19,12,7,2,2,0
23.775,1,20,19,3,3,11,3,0
23.78,1,6,3,11,4,0,1,0
23.785,2,3,22,5,2,1,0,2
23.79,0,8,4,4,4,2,3,3
23.795,1,6,5,2,5,1,3,1
23.8,0,9,10,3,2,1,1,1
23.805,1,7,39,6,2,1,2,2
23.81,4,23,33,13,10,3,2,3
23.815,3,5,4,27,4,3,0,0
23.82,1,14,7,27,8,2,2,1
23.825,2,46,4,10,3,0,2,1
23.83,0,11,1,11,5,5,1,1
23.835,3,3,5,8,10,3,0,1
23.84,1,4,1,6,1,1,1,1
23.845,4,13,36,1,0,6,0,4
23.85,0,0,8,0,1,1,2,1
23.855,2,8,9,13,2,5,2,5
23.86,3,3,22,5,3,0,1,0
23.865,7,18,2,2,12,6,3,2
23.87,5,0,4,3,2,6,3,2
23.875,4,5,3,3,8,3,1,2
23.88,1,2,20,0,9,4,3,0
23.885,5,25,14,2,10,3,2,1
23.89,3,16,20,2,4,3,3,3
23.895,3,2,0,12,6,3,5,1
23.9,2,13,3,1,13,8,3,2
23.905,1,15,1,12,3,2,2,1
23.91,5,8,6,4,5,3,2,2
23.915,3,43,24,0,1,2,1,3
23.92,5,17,5,1,5,1,3,2
23.925,1,18,1,8,3,3,3,2
23.93,2,5,23,10,11,6,1,2
23.935,3,23,36,19,7,1,0,1
23.94,3,3,9,8,4,3,1,0
23.945,2,25,9,4,3,3,1,0
23.95,0,10,9,1,2,0,2,1
23.955,2,1,14,17,4,3,4,1
23.96,1,1,1,5,1,2,2,0
23.965,1,2,9,9,4,0,3,1
23.97,5,22,31,1,3,0,3,3
23.975,2,9,11,16,5,2,0,4
23.98,4,9,13,13,5,4,1,3
23.985,4,4,2,10,11,4,1,3
23.99,2,9,7,2,7,3,2,1
23.995,2,1,16,14,0,2,2,2
24,1,47,2,14,7,1,4,4
24.005,0,33,9,8,1,0,1,0
24.01,7,8,31,18,4,3,1,2
24.015,4,36,4,15,7,4,3,3
24.02,0,27,5,15,7,2,0,0
24.025,2,12,6,13,1,1,2,1
24.03,4,9,21,20,11,4,2,4
24.035,9,10,3,15,8,4,2,2
24.04,2,7,5,7,0,2,2,3
24.045,1,4,2,14,3,1,3,3
24.05,1,1,16,20,4,0,1,0
24.055,2,4,1,7,5,1,0,0
24.06,2,2,1,5,7,2,3,1
24.065,4,6,16,4,7,2,1,2
24.07,0,6,3,2,5,3,2,2
24.075,3,16,2,1,2,0,2,2
24.08,3,2,3,2,5,3,2,3
24.085,1,5,20,11,7,1,3,2
24.09,1,1,11,8,2,5,5,2
24.095,1,3,1,14,5,9,4,4
24.1,2,5,7,9,7,2,2,1
24.105,2,36,6,5,4,2,3,2
24.11,6,15,1,3,4,2,1,0
24.115,1,19,13,10,1,0,1,3
24.12,1,5,6,8,1,1,3,3
24.125,7,30,6,22,1,1,1,0
24.13,1,7,18,7,2,5,2,2
24.135,1,2,10,9,6,0,0,0
24.14,4,10,7,2,2,0,1,0
24.145,11,73,14,1,2,0,3,0
24.15,3,7,16,1,1,4,1,3
24.155,1,6,6,12,5,5,2,2
24.16,0,4,12,7,5,0,1,1
24.165,4,6,1,10,7,3,3,2
24.17,6,5,6,2,5,2,1,2
24.175,2,4,24,12,3,0,2,2
24.18,1,2,14,2,2,3,2,1
24.185,4,28,9,4,1,3,1,1
24.19,4,51,9,6,2,2,0,0
24.195,6,6,17,4,6,7,3,2
24.2,2,49,28,9,6,1,3,2
24.205,11,36,54,21,5,1,2,1
24.21,0,18,2,2,2,4,1,2
24.215,2,4,7,9,2,2,2,2
24.22,2,7,2,3,6,5,5,4
24.225,2,6,9,10,2,1,2,2
24.23,0,8,4,9,7,3,0,2
24.235,5,7,14,7,7,4,2,3
24.24,0,13,1,12,1,2,4,3
24.245,2,12,3,2,3,2,4,4
24.25,3,4,0,4,11,1,1,1
24.255,0,7,12,3,3,1,1,2
24.26,2,17,5,4,4,3,1,2
24.265,1,2,10,25,2,1,1,1
24.27,1,17,2,8,2,1,0,2
24.275,1,6,13,1,2,5,1,1
24.28,4,0,2,4,0,1,0,2
24.285,1,4,2,14,2,2,3,2
24.29,1,5,8,3,3,0,1,1
24.295,1,3,13,4,8,3,4,4
24.3,7,58,21,6,0,1,2,1
24.305,2,14,15,2,6,4,3,1
24.31,2,1,3,2,2,1,1,2
24.315,0,31,8,8,2,1,0,0
24.32,0,13,1,8,4,0,1,1
24.325,1,6,17,10,3,3,2,1
24.33,5,0,5,0,2,1,1,2
24.335,2,8,0,5,2,2,4,3
24.34,2,16,14,2,4,4,3,3
24.345,4,9,13,1,4,2,2,0
24.35,5,2,9,16,1,1,1,0
24.355,2,9,21,7,1,1,2,1
24.36,0,6,11,7,5,2,0,3
24.365,5,3,13,27,13,4,1,2
24.37,2,8,1,4,3,5,2,4
24.375,2,22,4,13,6,2,0,1
24.38,3,12,2,7,5,2,1,1
24.385,1,21,1,1,3,3,2,1
24.39,0,1,5,4,1,1,1,0
24.395,2,2,10,4,1,2,1,1
24.4,4,19,4,19,3,3,4,0
24.405,1,5,19,19,9,2,1,0
24.41,5,15,23,7,8,5,2,2
24.415,2,7,10,4,0,0,0,1
24.42,3,8,12,9,5,3,1,0
24.425,0,8,0,11,2,3,2,2
24.43,1,26,13,15,3,3,2,3
24.435,6,3,2,13,1,0,0,1
24.44,1,6,8,1,4,3,1,2
24.445,6,16,9,5,3,1,1,0
24.45,3,3,5,7,0,2,4,1
24.455,1,2,9,15,7,2,1,0
24.46,4,3,3,21,6,2,0,3
24.465,1,3,7,2,12,0,0,0
24.47,5,18,14,9,1,2,1,1
24.475,9,0,7,20,5,1,2,4
24.48,3,6,39,6,4,3,4,1
24.485,2,4,4,14,9,5,2,1
24.49,1,7,11,1,4,0,1,3
24.495,5,8,2,11,2,4,0,2
24.5,5,11,6,9,2,0,0,1
24.505,2,7,6,3,5,3,0,5
24.51,1,1,2,4,4,1,2,3
24.515,3,9,5,3,3,2,2,2
24.52,4,18,86,14,4,3,2,1
24.525,9,26,9,2,2,1,1,3
24.53,1,4,45,8,23,3,3,17
24.535,2,13,82,1,11,2,4,24
24.54,10,5,5,11,17,4,2,41
24.545,22,23,91,1,1,15,15,66
24.55,9,31,12,11,4,24,11,2
24.555,4,17,30,26,14,14,4,10
24.56,7,8,59,1,5,10,18,7
24.565,12,4,34,20,2,9,17,43
24.57,7,1,8,1,1,4,30,41
24.575,5,25,64,5,2,11,1,3
24.58,3,58,64,34,2,0,2,11
24.585,5,25,64,5,2,11,1,3
24.59,3,58,64,34,2,0,2,11
24.595,2,2,10,4,1,2,1,1
24.6,4,19,4,19,3,3,4,0
24.605,1,5,19,19,9,2,1,0
24.61,5,15,23,7,8,5,2,2
24.615,2,17,91,11,2,0,3,9
24.62,15,17,86,11,8,7,12,17
24.625,2,1,39,4,8,1,2,3
24.63,18,65,51,5,13,11,13,13
24.635,9,48,34,19,2,2,5,2
24.64,8,28,59,39,16,7,1,5
24.645,12,49,27,29,1,4,8,5
24.65,14,53,35,35,4,3,4,2
24.655,0,0,31,8,5,2,1,3
24.66,3,36,69,21,5,7,4,7
24.665,0,1,14,18,6,0,4,1
24.67,2,11,12,1,2,5,6,2
24.675,3,8,7,4,2,2,1,2
24.68,4,6,30,12,1,4,3,2
24.685,1,3,25,0,6,2,5,3
24.69,3,1,24,11,8,6,6,2
24.695,2,10,3,19,14,4,0,0
24.7,5,6,5,2,0,1,3,5
24.705,1,24,6,0,5,0,1,0
24.71,0,2,5,9,0,4,1,3
24.715,5,8,33,1,2,4,4,1
24.72,0,4,10,4,3,1,0,3
24.725,0,10,34,5,3,2,1,2
24.73,8,5,11,4,6,6,4,7
24.735,5,25,24,1,1,1,2,1
24.74,2,19,22,3,2,0,1,1
24.745,8,33,6,9,6,1,1,2
24.75,11,24,35,2,3,3,1,4
24.755,10,31,44,16,9,4,2,3
24.76,7,22,71,45,22,8,3,3
24.765,1,10,25,6,4,2,2,2
24.77,1,8,27,10,2,3,3,2
24.775,3,19,84,3,1,3,1,0
24.78,3,7,21,7,1,1,1,1
24.785,7,27,24,10,2,0,2,2
24.79,7,21,13,4,1,4,5,5
24.795,5,17,63,14,5,2,2,4
24.8,1,9,32,5,3,6,4,5
24.805,5,35,14,9,3,4,1,6
24.81,2,21,15,15,5,6,2,2
24.815,3,14,34,2,6,5,2,2
24.82,3,9,11,15,6,0,5,0
24.825,1,1,21,1,1,1,5,0
24.83,3,25,4,7,4,1,7,3
24.835,5,39,28,13,9,4,1,0
24.84,4,9,7,19,1,3,2,0
24.845,1,10,11,4,3,2,3,1
24.85,6,5,18,5,5,0,1,0
24.855,6,26,16,2,1,5,8,6
24.86,4,29,6,11,0,0,6,0
24.865,4,16,15,20,15,2,2,3
24.87,1,12,43,6,6,2,3,3
24.875,8,29,12,2,2,2,3,3
24.88,0,2,42,16,3,2,5,2
24.885,5,28,80,23,8,4,5,6
24.89,9,45,4,7,0,2,0,1
24.895,1,5,13,6,1,2,1,1
24.9,2,19,24,12,6,3,0,2
24.905,3,10,23,4,5,2,1,1
24.91,4,15,60,2,1,1,4,1
24.915,4,9,18,11,3,1,1,3
24.92,2,24,53,15,4,2,1,1
24.925,2,3,23,15,2,1,1,2
24.93,3,4,10,9,6,8,6,1
24.935,8,12,27,4,2,6,2,3
24.94,10,16,7,10,2,2,8,6
24.945,2,4,3,14,7,1,2,1
24.95,2,11,10,6,1,0,0,1
24.955,4,40,4,3,9,4,2,0
24.96,6,20,21,6,1,5,4,5
24.965,4,23,13,15,6,1,0,3
24.97,6,8,3,5,2,2,1,1
24.975,10,32,2,23,0,2,3,1
24.98,5,34,4,11,7,1,1,0
24.985,4,2,51,2,2,1,3,4
24.99,5,25,30,14,9,3,4,2
24.995,0,8,1,1,0,1,1,3
25,2,12,11,9,3,0,2,5
25.005,2,10,3,18,4,3,1,5
25.01,5,7,13,21,7,1,2,2
25.015,6,36,35,15,3,4,0,1
25.02,1,7,39,22,5,2,0,5
25.025,4,3,58,23,4,2,1,0
25.03,10,64,24,5,5,1,3,0
25.035,2,7,28,7,4,2,0,3
25.04,2,12,9,4,3,2,1,2
25.045,4,4,13,8,8,1,0,0
25.05,6,4,1,6,2,4,0,3
25.055,1,14,13,7,8,2,2,3
25.06,5,5,24,10,2,2,1,2
25.065,12,37,37,12,3,2,5,7
25.07,3,3,12,2,2,0,2,3
25.075,1,6,25,1,5,2,4,0
25.08,2,19,24,20,1,1,2,1
25.085,2,1,24,15,7,4,2,1
25.09,12,82,12,1,0,5,1,2
25.095,3,20,4,39,2,3,2,3
