139,2,1,3,1,2,2,2,0
139.01,2,1,1,1,0,1,2,1
139.01,2,2,4,3,0,2,1,3
139.02,1,1,5,1,1,0,3,5
139.03,2,0,3,1,2,0,0,4
139.03,2,0,5,1,2,0,1,1
139.03,0,4,3,4,3,3,1,2
139.04,2,3,1,0,0,2,1,2
139.04,0,2,6,4,0,0,1,2
139.05,0,0,1,2,1,2,2,2
139.06,1,1,2,1,2,0,2,2
139.06,2,1,3,0,4,2,1,1
139.06,2,3,1,1,1,2,0,0
139.07,5,1,0,3,5,1,2,0
139.07,3,1,0,2,1,1,1,0
139.08,0,0,2,1,2,1,1,0
139.09,5,2,6,2,1,0,1,1
139.09,2,0,0,1,2,0,1,6
139.09,2,1,1,1,3,0,1,2
139.1,1,2,1,3,2,3,4,0
139.1,0,2,1,2,2,0,0,1
139.11,1,3,3,1,0,2,1,0
139.12,1,0,1,0,0,2,2,4
139.12,1,1,1,1,2,1,1,2
139.12,2,3,1,0,0,2,3,3
139.13,1,0,2,2,0,2,2,1
139.13,2,2,2,3,3,1,0,2
139.14,1,1,3,3,4,1,1,3
139.15,3,0,2,2,1,0,1,1
139.15,1,3,1,1,1,0,1,1
139.16,2,1,1,2,2,0,3,1
139.16,2,2,0,2,0,1,2,1
139.16,1,0,0,1,1,0,2,2
139.17,1,2,4,3,3,2,1,1
139.18,0,2,0,3,0,1,2,1
139.18,1,2,1,3,0,2,1,3
139.19,0,0,1,3,3,1,3,0
139.19,2,3,2,2,2,0,2,3
139.19,5,1,1,0,2,0,0,1
139.2,0,0,4,2,0,1,2,1
139.21,1,2,2,1,1,2,2,1
139.21,1,1,3,1,1,1,0,2
139.22,2,2,2,1,3,1,0,0
139.22,4,2,3,0,2,0,3,2
139.22,3,1,2,2,1,2,1,3
139.23,0,3,8,4,3,1,2,2
139.24,1,1,0,2,1,3,2,2
139.24,4,1,2,0,3,0,0,1
139.25,1,1,0,0,0,1,1,2
139.25,4,3,6,1,1,1,0,2
139.25,1,2,2,1,0,0,3,1
139.26,2,0,1,2,0,1,1,2
139.26,2,2,1,0,2,2,1,1
139.27,5,2,2,1,0,1,0,1
139.28,1,1,1,3,0,0,0,1
139.28,2,4,0,3,0,2,2,2
139.28,0,5,3,1,3,2,2,3
139.29,3,0,1,0,0,3,1,2
139.29,2,3,0,2,1,1,1,0
139.3,0,3,1,2,2,0,1,3
139.31,1,3,1,5,2,0,0,1
139.31,2,1,2,1,2,2,1,1
139.31,5,2,1,2,1,1,2,4
139.32,3,3,2,1,2,3,1,0
139.32,1,1,1,1,1,1,1,1
139.33,2,2,2,2,1,1,2,1
139.34,2,1,2,0,1,2,2,1
139.34,1,0,2,2,2,1,0,3
139.34,2,3,2,1,2,1,1,2
139.35,1,1,1,1,2,2,2,2
139.35,2,1,1,1,0,0,1,2
139.36,0,4,0,2,0,2,1,2
139.37,2,1,1,2,1,3,2,0
139.37,1,0,3,0,3,0,0,1
139.38,1,1,0,0,2,1,0,0
139.38,4,1,4,1,1,2,0,1
139.38,1,1,6,1,1,0,0,3
139.39,2,1,1,2,1,1,0,1
139.4,2,1,3,2,1,0,0,2
139.4,2,0,2,3,2,0,2,1
139.41,2,1,5,0,0,2,2,1
139.41,4,1,3,2,2,2,3,0
139.41,1,1,4,2,2,0,4,2
139.42,1,4,4,2,1,1,0,0
139.43,1,3,2,0,1,0,2,2
139.43,6,4,1,2,2,1,2,3
139.44,1,0,1,3,0,2,1,1
139.44,1,2,2,1,1,0,1,1
139.44,0,1,1,2,4,3,1,1
139.45,2,3,1,2,1,0,1,4
139.46,3,0,1,2,1,1,2,0
139.46,1,1,5,3,0,2,2,1
139.47,0,0,2,2,1,0,0,4
139.47,0,1,4,1,1,1,1,2
139.47,3,2,3,0,2,0,4,1
139.48,1,3,2,0,2,2,1,2
139.49,1,3,0,0,1,1,1,0
139.49,3,2,1,0,2,1,2,3
139.5,3,1,0,1,2,0,0,1
139.5,1,3,0,1,1,0,1,1
139.5,2,2,1,4,2,1,1,1
139.51,2,3,2,0,1,1,1,1
139.51,3,4,2,1,2,2,0,0
139.52,4,4,0,2,3,0,1,3
139.53,1,1,1,1,1,2,0,1
139.53,0,1,1,0,1,1,2,2
139.53,2,0,3,1,2,1,2,2
139.54,2,3,1,1,2,2,1,0
139.54,3,3,1,4,0,0,1,3
139.55,5,0,0,4,2,2,1,1
139.56,1,4,2,3,2,1,1,0
139.56,0,1,3,0,1,0,1,0
139.56,1,1,4,2,0,1,1,3
139.57,1,0,2,2,4,3,2,1
139.57,1,3,2,0,0,2,1,2
139.58,0,0,1,0,2,1,0,1
139.59,1,1,0,1,3,3,3,2
139.59,3,2,1,0,1,0,1,2
139.59,0,1,2,1,3,0,1,3
139.6,1,0,3,2,3,4,3,0
139.6,0,1,2,3,1,1,2,2
139.61,0,1,6,4,2,2,1,1
139.62,1,2,0,1,3,1,0,0
139.62,2,0,1,1,2,1,1,1
139.62,2,3,4,2,3,1,1,4
139.63,0,1,5,0,2,1,0,1
139.63,2,1,5,4,3,0,1,2
139.64,1,1,1,0,0,0,0,1
139.65,4,1,2,1,3,1,1,0
139.65,1,4,6,1,1,0,0,0
139.66,2,2,1,3,2,1,2,2
139.66,4,1,2,1,1,0,3,3
139.66,0,2,2,1,2,2,0,2
139.67,2,1,1,1,0,1,3,0
139.68,2,0,7,2,0,3,0,2
139.68,4,2,2,3,2,2,0,0
139.69,1,3,2,1,3,2,4,1
139.69,2,1,4,1,1,3,0,2
139.69,2,0,3,2,0,2,1,4
139.7,2,0,1,0,2,1,1,0
139.71,0,1,4,3,1,1,0,1
139.71,3,1,1,3,2,2,1,3
139.72,0,1,1,2,1,1,2,1
139.72,2,2,3,0,1,1,1,1
139.72,1,1,4,1,3,2,1,1
139.73,0,2,3,1,2,2,2,2
139.74,2,1,1,0,4,2,1,0
139.74,0,2,4,2,2,3,1,1
139.75,2,0,3,0,0,1,2,1
139.75,2,1,2,0,1,2,4,1
139.75,1,2,4,0,1,3,0,0
139.76,1,4,5,1,1,0,1,4
139.76,4,1,4,2,0,1,1,0
139.77,1,2,2,1,1,1,1,1
139.78,0,0,4,2,0,1,2,0
139.78,1,1,4,2,1,1,1,6
139.78,1,1,1,0,1,0,2,2
139.79,4,2,1,2,2,2,0,2
139.79,1,1,4,0,1,1,1,2
139.8,0,1,1,0,2,1,1,2
139.81,0,1,3,3,2,1,2,1
139.81,2,2,2,3,2,0,1,1
139.81,1,2,3,0,1,2,0,0
139.82,3,1,3,2,0,1,4,2
139.82,0,4,3,1,1,2,1,3
139.83,0,0,1,2,2,1,0,1
139.84,1,2,2,2,0,1,2,4
139.84,1,2,1,1,1,0,1,1
139.84,1,4,0,1,3,2,3,1
139.85,0,0,1,1,2,4,1,0
139.85,4,1,1,2,1,2,2,4
139.86,4,0,3,1,1,0,1,2
139.87,0,3,1,1,1,0,2,2
139.87,3,1,1,3,2,0,0,0
139.88,0,2,2,0,2,0,0,1
139.88,2,1,0,1,1,2,1,0
139.88,0,1,3,1,0,2,1,1
139.89,0,1,1,1,3,1,2,2
139.9,0,4,1,2,3,2,2,1
139.9,2,1,1,0,1,2,0,2
139.91,3,0,1,0,1,1,0,1
139.91,2,4,0,3,1,1,1,1
139.91,1,0,5,3,2,2,2,0
139.92,2,0,1,3,2,1,3,2
139.93,1,2,1,0,1,1,1,0
139.93,4,2,0,0,1,0,1,2
139.94,0,0,2,0,3,2,2,1
139.94,1,3,1,2,4,2,0,6
139.94,1,2,2,2,3,2,2,0
139.95,1,2,2,1,1,0,2,1
139.96,4,2,0,0,2,1,2,1
139.96,3,2,4,0,2,1,3,1
139.97,0,4,2,1,1,1,0,3
139.97,2,1,2,3,1,2,3,1
139.97,0,1,3,1,4,1,2,2
139.98,1,0,4,1,2,0,1,0
139.99,2,3,2,2,2,1,1,1
139.99,2,2,1,1,3,2,3,2
140,0,1,0,2,2,2,1,1
140,0,2,2,2,1,0,3,2
140,1,1,1,1,4,3,0,1
140.01,2,1,3,1,0,1,0,3
140.01,2,2,0,0,1,1,2,0
140.02,3,6,4,4,3,0,0,1
140.03,1,4,2,2,0,1,1,5
140.03,2,34,11,3,1,2,3,5
140.03,5,7,2,2,5,1,3,1
140.04,6,2,2,0,0,4,0,2
140.04,0,7,3,1,3,4,3,4
140.05,2,43,15,7,2,5,1,8
140.06,1,3,3,1,2,1,0,4
140.06,2,4,4,2,2,1,1,1
140.06,2,4,2,2,2,2,2,4
140.07,2,2,4,3,2,4,1,6
140.07,4,2,2,2,1,1,1,1
140.08,1,9,6,0,2,2,1,1
140.09,3,1,10,2,2,1,0,2
140.09,1,5,1,0,2,2,3,1
140.09,0,1,5,0,1,0,3,2
140.1,3,11,1,4,2,1,0,1
140.1,2,3,5,4,5,0,2,1
140.11,3,5,1,3,2,2,2,2
140.12,0,3,2,0,0,4,4,0
140.12,2,31,6,5,2,1,1,2
140.12,3,14,3,1,0,1,2,3
140.13,1,4,1,2,3,1,0,1
140.13,0,1,6,1,3,3,1,2
140.14,3,3,6,6,0,2,0,5
140.15,1,10,8,0,3,1,1,4
140.15,3,22,13,1,4,1,1,5
140.16,2,38,1,2,2,3,1,3
140.16,6,15,3,2,1,4,1,4
140.16,6,14,0,3,4,1,3,0
140.17,3,9,1,3,2,3,2,1
140.18,2,19,0,5,1,0,2,0
140.18,1,12,2,0,4,1,1,2
140.19,2,8,4,1,1,3,0,2
140.19,4,4,0,1,1,0,0,3
140.19,2,3,1,3,2,3,1,1
140.2,0,8,5,4,0,1,1,1
140.21,4,13,1,1,1,0,3,1
140.21,1,1,2,1,1,0,1,2
140.22,1,13,4,0,1,2,1,3
140.22,2,10,2,1,1,2,2,1
140.22,0,6,4,4,3,0,0,2
140.23,4,2,3,4,0,2,3,2
140.24,2,0,1,2,0,0,2,1
140.24,0,5,2,1,2,2,2,2
140.25,0,3,2,0,1,1,0,0
140.25,3,0,3,0,0,1,0,2
140.25,2,8,1,0,1,2,1,1
140.26,1,2,2,1,0,0,1,5
140.26,0,4,2,1,1,4,0,0
140.27,2,13,4,4,2,1,0,0
140.28,1,24,4,1,0,1,2,1
140.28,1,2,3,3,4,0,2,2
140.28,1,10,2,0,0,1,0,3
140.29,1,5,3,2,5,2,1,1
140.29,2,1,1,2,0,1,2,0
140.3,1,7,0,4,2,0,1,1
140.31,2,5,1,1,3,2,3,2
140.31,4,2,0,1,2,2,3,3
140.31,4,0,2,1,2,0,1,1
140.32,4,4,5,2,2,1,1,0
140.32,0,3,5,4,4,1,2,2
140.33,1,0,2,2,1,0,0,4
140.34,4,4,2,1,1,1,2,2
140.34,1,7,1,9,1,1,3,4
140.34,1,4,0,0,0,1,3,2
140.35,1,5,3,2,4,3,2,1
140.35,3,0,3,0,1,1,0,3
140.36,1,0,1,9,0,0,1,0
140.37,4,1,6,1,3,0,1,1
140.37,2,6,3,5,0,1,2,2
140.38,3,3,21,35,8,6,2,1
140.38,1,2,2,10,2,3,1,0
140.38,1,3,1,0,3,1,7,1
140.39,5,2,3,3,1,1,0,0
140.4,0,3,2,6,2,1,2,0
140.4,2,0,7,4,3,5,5,4
140.41,2,4,6,2,1,2,5,2
140.41,2,1,4,3,4,20,11,0
140.41,1,2,5,6,2,16,3,8
140.42,1,3,3,5,2,5,14,5
140.43,1,0,3,4,4,9,3,5
140.43,3,4,9,6,6,15,14,1
140.44,2,2,2,5,5,17,17,2
140.44,4,3,2,25,5,1,3,1
140.44,4,1,9,8,21,23,26,3
140.45,3,0,2,0,9,21,17,12
140.46,8,9,4,25,12,14,8,4
140.46,2,6,28,35,20,14,17,5
140.47,1,3,3,18,3,6,9,1
140.47,1,1,15,1,1,14,11,3
140.47,2,6,34,29,14,8,20,7
140.48,5,5,18,12,3,4,5,3
140.49,7,4,7,17,32,22,18,10
140.49,1,4,39,1,21,2,2,5
140.5,3,6,44,12,23,21,34,9
140.5,0,2,40,0,35,0,12,7
140.5,1,1,0,17,17,4,13,2
140.51,4,6,6,7,30,19,13,6
140.51,4,7,1,41,39,20,26,7
140.52,4,3,26,32,41,7,12,4
140.53,2,9,14,8,13,5,12,2
140.53,5,5,32,34,8,8,44,1
140.53,2,6,8,3,18,1,23,2
140.54,2,4,1,13,20,4,21,6
140.54,0,2,28,29,15,15,10,3
140.55,2,5,14,13,5,7,5,7
140.56,3,3,3,6,13,1,6,5
140.56,0,2,0,3,37,6,10,2
140.56,3,0,7,5,29,0,3,3
140.57,4,1,0,9,2,10,14,1
140.57,0,6,4,2,3,9,6,7
140.58,1,1,6,6,9,16,4,0
140.59,7,3,7,6,15,1,4,1
140.59,1,4,1,8,12,7,0,2
140.59,1,4,12,1,4,1,14,3
140.6,0,4,0,1,12,7,1,4
140.6,0,3,10,6,4,4,5,1
140.61,1,4,1,0,3,5,3,4
140.62,2,1,2,9,18,3,7,1
140.62,2,2,3,4,20,1,10,0
140.62,4,2,9,8,2,11,3,4
140.63,3,2,6,11,3,3,8,0
140.63,3,6,8,6,3,5,0,1
140.64,2,5,10,6,6,6,2,2
140.65,0,1,5,4,21,3,3,3
140.65,3,3,21,7,3,8,5,3
140.66,7,10,8,9,5,4,1,2
140.66,1,4,7,11,10,4,2,1
140.66,1,3,1,4,2,5,5,1
140.67,2,1,14,2,2,0,1,4
140.68,2,5,15,4,11,8,2,0
140.68,1,0,9,5,4,8,2,1
140.69,2,0,7,3,9,9,9,2
140.69,5,5,9,6,6,7,5,1
140.69,4,6,5,1,2,2,5,2
140.7,1,4,9,1,9,1,4,0
140.71,0,3,5,4,12,10,0,2
140.71,0,2,10,14,2,7,0,0
140.72,1,7,0,11,2,3,1,3
140.72,0,0,11,5,2,4,5,5
140.72,4,4,4,11,0,2,1,2
140.73,0,9,2,2,0,1,0,1
140.74,3,8,0,12,6,7,1,2
140.74,3,4,0,19,20,3,3,4
140.75,2,7,3,22,24,11,4,1
140.75,1,3,0,5,0,3,7,5
140.75,3,4,1,8,3,3,5,6
140.76,2,8,7,4,1,3,2,1
140.76,4,0,13,9,11,2,1,2
140.77,2,2,3,2,0,2,1,1
140.78,0,0,2,1,9,3,4,1
140.78,1,1,2,8,1,4,4,3
140.78,2,0,3,1,1,4,1,0
140.79,0,3,8,9,11,2,2,0
140.79,3,1,7,13,0,1,1,1
140.8,5,2,5,14,3,8,4,1
140.81,1,2,11,7,10,6,4,1
140.81,1,8,12,26,15,3,4,3
140.81,1,5,5,7,5,3,0,2
140.82,1,0,2,15,1,4,3,2
140.82,0,7,5,9,3,4,0,0
140.83,3,13,6,5,11,0,3,5
140.84,6,18,3,23,2,4,7,2
140.84,4,19,2,6,2,4,0,5
140.84,2,1,11,3,5,4,6,1
140.85,0,7,3,6,1,2,2,5
140.85,2,4,3,15,7,1,6,1
140.86,1,9,10,34,6,8,1,5
140.87,4,22,47,95,25,19,11,3
140.87,0,7,11,18,7,2,0,1
140.88,0,1,4,7,6,2,4,3
140.88,3,3,0,4,7,1,5,1
140.88,1,3,8,34,6,9,3,2
140.89,2,7,1,3,0,5,6,6
140.9,2,12,13,76,29,16,12,4
140.9,1,1,6,26,8,2,4,4
140.91,6,3,18,17,5,4,3,3
140.91,6,10,19,61,12,10,4,0
140.91,2,13,27,70,27,14,13,3
140.92,6,17,30,67,19,12,18,2
140.93,2,2,20,29,1,0,4,2
140.93,2,3,4,20,7,4,0,1
140.94,2,1,27,28,10,8,5,1
140.94,1,4,19,24,1,1,0,0
140.94,1,7,3,13,9,5,1,3
140.95,4,6,7,29,10,7,3,0
140.96,8,2,7,15,7,7,4,2
140.96,4,1,5,9,0,0,0,1
140.97,1,5,16,23,14,9,8,8
140.97,2,2,10,50,5,3,1,4
140.97,3,1,21,30,2,1,3,1
140.98,0,4,0,1,3,1,3,2
140.99,5,12,2,10,4,1,0,4
140.99,6,5,1,18,11,4,9,4
141,1,3,0,30,2,3,2,0
141,5,7,16,10,7,11,1,5
141,3,4,5,0,1,1,5,0
141.01,3,1,1,9,3,5,3,3
141.01,2,2,5,3,2,3,4,3
141.02,1,4,8,10,0,0,1,3
141.03,1,3,3,7,5,2,3,2
141.03,5,1,3,6,4,0,10,0
141.03,4,1,9,0,3,3,1,2
141.04,3,18,9,18,2,0,0,0
141.04,2,4,2,3,2,3,2,1
141.05,0,2,8,3,5,4,5,1
141.06,2,5,8,3,7,3,5,1
141.06,1,2,6,12,1,0,3,4
141.06,1,1,14,6,2,0,1,9
141.07,2,2,4,10,1,2,3,9
141.07,0,4,4,4,4,1,2,1
141.08,2,0,14,26,5,3,1,0
141.09,1,2,2,9,2,2,3,1
141.09,3,0,0,4,4,6,1,3
141.09,4,1,5,1,2,5,3,1
141.1,2,0,5,5,1,2,3,1
141.1,6,4,7,12,8,3,9,6
141.11,2,6,5,5,2,1,1,2
141.12,0,1,8,1,7,5,4,1
141.12,1,1,3,1,7,8,9,1
141.12,1,5,2,6,3,1,5,1
141.13,1,3,1,1,6,1,6,1
141.13,0,3,1,8,7,7,7,2
141.14,2,4,6,2,2,1,2,0
141.15,4,3,4,2,4,4,1,4
141.15,2,4,1,1,4,1,1,2
141.16,0,1,0,2,4,4,4,2
141.16,4,2,4,2,6,3,3,2
141.16,1,3,8,2,3,1,2,0
141.17,2,1,6,1,4,3,5,2
141.18,2,1,5,5,6,7,7,5
141.18,0,0,1,2,3,1,1,2
141.19,2,2,5,2,4,3,6,2
141.19,1,1,9,3,0,6,1,0
141.19,1,5,13,1,2,0,1,1
141.2,1,2,1,0,2,3,2,0
141.21,1,3,4,7,6,5,6,3
141.21,0,5,3,0,2,1,4,2
141.22,1,2,8,1,3,0,5,2
141.22,0,1,1,5,4,4,2,2
141.22,2,1,1,1,1,3,0,3
141.23,0,3,3,4,4,2,1,4
141.24,2,1,2,8,4,0,4,6
141.24,3,3,7,5,2,0,2,3
141.25,9,13,21,69,21,14,13,9
141.25,0,3,12,4,1,0,6,1
141.25,4,3,4,2,4,1,5,7
141.26,7,2,6,10,1,1,1,14
141.26,1,2,2,20,15,8,6,3
141.27,3,5,6,8,4,3,5,1
141.28,0,2,5,10,8,7,4,0
141.28,3,1,6,0,1,4,1,2
141.28,1,4,2,6,5,3,6,3
141.29,0,3,5,3,2,4,1,1
141.29,1,0,3,6,1,2,1,1
141.3,3,3,9,10,6,7,8,3
141.31,1,3,8,1,5,4,3,0
141.31,1,4,13,0,2,13,7,2
141.31,3,0,9,0,1,7,5,2
141.32,2,1,1,18,7,9,9,1
141.32,2,2,16,11,0,8,2,1
141.33,1,2,12,13,3,5,5,7
141.34,3,4,1,14,9,4,6,1
141.34,2,1,5,6,3,1,2,3
141.34,1,6,4,8,2,1,2,5
141.35,7,4,9,4,1,1,1,2
141.35,2,1,2,0,1,2,1,1
141.36,1,1,4,2,2,1,3,0
141.37,1,0,1,1,1,4,2,9
141.37,1,1,1,8,3,3,4,1
141.38,3,2,3,12,2,3,3,4
141.38,3,6,3,0,2,12,2,1
141.38,3,2,17,21,2,1,0,2
141.39,5,1,2,10,1,4,1,3
141.4,3,9,6,23,4,8,4,1
141.4,1,2,1,8,1,0,0,1
141.41,0,5,5,11,9,5,6,2
141.41,1,4,10,5,2,5,2,1
141.41,1,1,2,12,3,2,12,6
141.42,1,5,3,15,0,2,11,0
141.43,4,3,8,20,5,1,0,3
141.43,5,8,4,32,11,10,5,4
141.44,4,0,19,27,4,2,1,5
141.44,4,10,21,41,14,8,1,2
141.44,4,3,12,15,2,5,1,0
141.45,4,6,7,14,5,1,5,2
141.46,0,1,2,3,6,2,5,1
141.46,1,7,3,14,5,9,3,2
141.47,2,6,2,3,3,4,1,2
141.47,3,2,2,2,5,4,11,2
141.47,1,2,6,1,10,7,10,4
141.48,1,5,3,1,12,2,3,7
141.49,5,5,1,8,6,0,2,1
141.49,0,0,3,12,3,1,1,1
141.5,1,0,3,10,1,2,0,0
141.5,2,7,2,2,2,0,4,1
141.5,4,1,2,5,8,2,2,0
141.51,2,1,8,4,2,2,1,1
141.51,5,3,4,15,11,7,6,2
141.52,2,1,8,3,4,5,1,1
141.53,0,2,3,8,6,8,3,0
141.53,3,5,14,9,4,4,0,1
141.53,0,3,19,2,3,10,6,4
141.54,2,2,4,1,2,4,2,2
141.54,2,1,3,6,4,3,1,0
141.55,2,3,7,5,4,2,4,0
141.56,4,7,4,12,18,4,8,0
141.56,3,2,2,2,1,3,4,2
141.56,1,0,0,2,4,8,2,3
141.57,2,1,3,7,10,0,5,1
141.57,2,0,8,3,2,4,0,2
141.58,1,0,3,1,3,7,3,3
141.59,1,1,4,7,14,8,11,1
141.59,2,1,0,4,13,14,7,5
141.59,1,2,6,1,6,4,1,4
141.6,3,1,0,6,7,10,5,1
141.6,2,0,0,1,5,7,7,2
141.61,0,2,2,3,1,0,6,1
141.62,1,1,2,0,4,7,8,2
141.62,0,1,6,7,9,14,8,3
141.62,2,1,1,3,4,3,1,2
141.63,2,2,6,1,3,4,4,1
141.63,1,4,10,3,2,4,2,2
141.64,3,3,4,2,1,8,1,3
141.65,1,5,4,1,6,4,2,1
141.65,1,2,2,1,2,0,5,1
141.66,1,1,1,6,2,1,1,1
141.66,0,3,15,4,2,1,5,2
141.66,2,1,21,17,3,4,1,6
141.67,2,8,14,47,7,3,0,1
141.68,2,0,4,10,7,2,3,0
141.68,2,3,9,1,2,1,1,1
141.69,3,4,2,13,1,8,4,6
141.69,0,2,5,6,5,9,11,8
141.69,6,5,17,22,2,5,4,5
141.7,2,0,4,3,3,1,2,1
141.71,4,3,3,1,1,3,1,1
141.71,0,1,0,9,4,1,6,1
141.72,1,2,4,3,5,8,0,2
141.72,0,1,1,9,4,2,10,4
141.72,1,0,18,1,1,1,1,4
141.73,1,3,32,31,5,4,2,1
141.74,2,17,35,95,27,17,5,7
141.74,2,3,6,19,5,7,0,3
141.75,5,2,2,2,1,7,1,3
141.75,0,9,13,2,2,4,4,0
141.75,1,1,9,36,8,6,2,2
141.76,2,12,7,35,7,3,11,3
141.76,0,3,16,6,4,2,1,5
141.77,1,1,4,9,3,3,12,7
141.78,2,3,11,14,4,2,3,0
141.78,1,0,6,9,7,3,3,0
141.78,0,3,7,4,6,0,5,4
141.79,3,2,9,13,5,2,1,1
141.79,0,0,13,13,7,5,2,1
141.8,4,2,7,14,1,3,2,2
141.81,4,9,14,39,20,6,6,2
141.81,1,6,2,3,1,10,3,6
141.81,1,1,2,12,10,4,4,2
141.82,0,2,1,4,10,10,5,3
141.82,0,2,3,7,3,2,6,2
141.83,4,4,14,1,2,5,0,1
141.84,17,8,29,8,6,13,5,8
141.84,27,2,8,2,1,8,4,3
141.84,29,7,4,2,3,6,2,5
141.85,20,2,1,5,5,6,10,2
141.85,48,9,0,5,1,0,4,3
141.86,65,7,4,10,7,1,1,6
141.87,40,5,3,5,4,4,2,3
141.87,15,6,15,4,6,7,5,1
141.88,9,1,6,3,2,0,3,0
141.88,12,5,7,3,2,3,2,3
141.88,2,1,7,12,0,1,1,5
141.89,4,8,11,28,11,4,8,3
141.9,10,3,4,7,5,1,1,4
141.9,1,2,1,6,0,5,2,3
141.91,7,1,6,5,3,4,3,3
141.91,1,0,5,0,3,2,3,2
141.91,2,8,3,19,0,1,7,7
141.92,4,2,1,2,4,6,22,1
141.93,0,1,2,4,4,5,2,2
141.93,8,3,1,12,7,12,8,8
141.94,1,2,8,13,7,9,7,1
141.94,5,4,2,1,3,1,6,1
141.94,2,1,3,2,8,0,0,4
141.95,0,4,7,19,10,5,2,1
141.96,14,9,4,15,3,1,1,5
141.96,12,1,2,11,15,8,4,2
141.97,1,2,33,15,8,1,41,3
141.97,0,9,1,28,16,0,53,0
141.97,9,6,13,1,8,2,23,10
141.98,4,11,4,57,20,10,14,8
141.99,5,8,6,19,13,5,9,13
141.99,17,12,11,7,2,9,16,5
142,8,19,14,10,8,2,21,1
142,8,17,5,7,5,6,0,0
142,8,12,0,34,8,4,1,1
142.01,15,7,7,23,2,1,2,2
142.01,84,27,6,7,15,4,21,5
142.02,9,4,7,13,5,2,13,5
142.03,23,14,12,12,1,1,10,2
142.03,26,20,1,16,4,3,8,2
142.03,35,8,1,1,5,2,3,2
142.04,5,24,1,14,10,7,10,3
142.04,4,43,3,12,13,12,15,9
142.05,9,54,8,19,10,0,11,3
142.06,4,8,3,18,14,12,16,2
142.06,12,5,6,1,6,3,9,0
142.06,5,33,9,12,3,1,15,1
142.07,20,5,3,13,3,1,1,2
142.07,10,7,18,8,19,16,9,8
142.08,3,9,1,27,6,11,8,3
142.09,11,8,2,6,5,2,5,0
142.09,3,12,6,24,5,4,5,1
142.09,0,8,6,18,2,5,1,1
142.1,10,14,27,69,27,22,15,4
142.1,4,12,13,20,11,5,11,4
142.11,0,3,5,0,7,6,12,5
142.12,9,6,14,10,9,6,10,3
142.12,6,18,13,23,0,6,10,0
142.12,2,1,3,4,8,1,15,1
142.13,4,16,5,5,4,0,4,6
142.13,4,6,10,12,4,0,2,5
142.14,3,5,4,6,11,8,8,1
142.15,3,10,22,42,0,9,3,1
142.15,5,2,16,48,8,4,1,4
142.16,2,9,9,10,9,7,7,3
142.16,5,1,10,23,0,1,1,6
142.16,1,17,2,11,11,10,7,4
142.17,11,4,3,4,4,4,6,1
142.18,2,18,26,58,12,8,10,4
142.18,4,3,16,5,5,8,3,1
142.19,6,3,9,2,6,1,2,2
142.19,5,4,6,24,9,2,6,2
142.19,1,3,3,28,4,6,1,3
142.2,2,0,13,13,6,2,0,1
142.21,4,6,19,39,9,5,4,0
142.21,3,4,17,14,4,4,6,3
142.22,2,9,10,23,7,1,1,3
142.22,1,11,25,27,9,14,4,4
142.22,6,24,41,39,15,7,10,2
142.23,2,3,18,52,17,5,12,2
142.24,1,38,31,60,14,6,7,1
142.24,6,26,17,51,7,10,0,6
142.25,1,48,9,26,16,1,6,7
142.25,4,1,8,19,10,12,4,3
142.25,2,7,7,95,30,17,14,6
142.26,6,39,6,89,38,19,19,9
142.26,3,16,8,23,8,13,4,9
142.27,3,7,5,24,4,1,3,1
142.28,0,13,0,51,22,17,15,7
142.28,5,15,41,33,5,1,8,3
142.28,5,29,47,18,12,0,5,5
142.29,1,3,5,7,2,2,8,1
142.29,3,17,47,23,8,8,8,5
142.3,1,13,46,2,9,3,11,1
142.31,1,2,2,43,25,11,14,2
142.31,1,7,53,92,23,12,10,1
142.31,0,28,54,49,22,3,2,8
142.32,2,8,45,75,25,12,12,3
142.32,2,1,23,60,16,3,6,1
142.33,4,21,15,75,7,6,3,10
142.34,2,0,9,2,4,4,6,5
142.34,8,14,11,48,15,16,4,1
142.34,3,20,23,91,41,10,3,4
142.35,2,3,42,14,6,12,8,1
142.35,6,7,4,64,9,6,1,2
142.36,4,26,19,34,18,12,32,7
142.37,4,6,88,16,14,0,33,5
142.37,1,14,15,46,14,20,23,8
142.38,0,26,19,65,25,7,22,11
142.38,0,5,2,55,28,29,18,17
142.38,1,4,3,4,13,15,2,11
142.39,13,57,66,48,65,19,24,10
142.4,1,13,7,42,24,2,28,1
142.4,7,8,55,45,17,1,7,7
142.41,3,17,72,103,35,22,16,5
142.41,5,4,29,3,16,9,1,10
142.41,6,14,4,27,3,9,8,1
142.42,4,4,33,40,20,4,14,2
142.43,6,7,1,0,11,10,2,15
142.43,13,27,104,63,29,24,12,2
142.44,4,51,21,52,48,28,10,3
142.44,25,83,75,63,92,62,56,17
142.44,6,3,24,44,18,2,1,2
142.45,1,4,109,50,4,8,2,11
142.46,1,9,17,56,30,4,2,3
142.46,6,9,3,47,14,22,0,7
142.47,12,22,26,22,26,10,26,14
142.47,3,28,3,127,34,20,1,3
142.47,0,56,78,128,87,49,37,9
142.48,3,18,87,86,10,5,1,8
142.49,3,4,26,8,3,3,5,4
142.49,8,10,15,17,2,3,8,5
142.5,6,7,8,30,8,7,12,7
142.5,4,5,17,34,0,1,1,5
142.5,1,29,48,72,44,13,12,2
142.51,14,34,24,109,56,31,22,8
142.51,6,5,4,68,19,15,19,9
142.52,1,5,53,60,2,1,8,5
142.53,2,26,3,34,35,33,30,5
142.53,0,18,85,73,51,14,21,14
142.53,12,37,30,99,92,48,50,3
142.54,10,29,10,41,25,22,10,5
142.54,8,29,6,40,25,8,13,3
142.55,11,36,62,18,39,14,8,7
142.56,9,58,7,90,67,28,41,3
142.56,1,13,56,19,19,17,4,6
142.56,5,15,8,54,10,16,6,2
142.57,7,16,53,104,38,10,5,6
142.57,6,53,45,39,26,15,23,2
142.58,12,31,18,105,46,21,22,15
142.59,7,22,38,70,52,32,22,1
142.59,28,79,52,93,36,5,15,20
142.59,15,36,57,85,53,13,0,9
142.6,4,35,24,8,36,28,21,3
142.6,22,62,127,79,33,12,38,15
142.61,11,22,46,103,65,41,16,9
142.62,25,36,69,128,113,63,20,2
142.62,3,49,52,104,85,30,12,0
142.62,37,125,119,107,118,61,58,16
142.63,11,36,73,73,18,8,7,3
142.63,9,64,17,112,41,34,29,11
142.64,18,57,31,39,15,4,7,2
142.65,16,65,79,46,49,20,18,5
142.65,15,47,43,35,61,27,64,20
142.66,9,36,105,116,73,40,76,7
142.66,30,97,45,62,82,50,5,20
142.66,25,15,36,24,7,30,12,3
142.67,1,6,43,54,72,61,63,14
142.68,6,46,3,2,8,18,29,9
142.68,11,25,63,117,45,20,30,5
142.69,59,128,123,100,100,66,73,29
142.69,5,22,67,54,12,18,4,3
142.69,3,34,65,45,46,16,2,18
142.7,21,25,107,36,25,9,42,5
142.71,10,62,13,90,76,41,44,27
142.71,29,49,17,8,44,12,21,5
142.72,42,124,79,99,78,28,106,17
142.72,4,21,31,18,17,11,54,5
142.72,1,28,50,12,7,1,23,2
142.73,9,28,2,44,1,1,13,7
142.74,32,86,59,81,58,12,10,8
142.74,17,59,36,30,53,8,8,10
142.75,1,12,20,7,13,9,3,12
142.75,26,53,23,61,63,60,37,8
142.75,0,37,64,32,37,8,13,4
142.76,3,4,57,22,10,7,9,2
142.76,5,13,6,20,3,0,16,5
142.77,10,21,59,74,47,5,25,6
142.78,12,48,36,7,46,34,34,4
142.78,5,9,1,10,14,15,9,2
142.78,9,3,27,14,35,38,14,2
142.79,3,22,29,2,18,14,18,5
142.79,5,5,40,69,2,6,51,7
142.8,14,45,0,96,44,7,34,8
142.81,10,27,14,107,58,30,25,9
142.81,2,5,8,47,11,2,3,3
142.81,5,4,16,12,4,7,37,7
142.82,2,10,19,13,2,3,27,0
142.82,5,9,43,4,7,6,12,19
142.83,12,13,9,15,20,11,21,2
142.84,16,40,10,33,50,27,28,7
142.84,11,32,40,25,4,8,8,0
142.84,6,30,16,50,28,24,5,2
142.85,13,46,13,40,44,22,86,15
142.85,3,7,7,27,1,3,96,5
142.86,2,2,12,34,4,11,42,1
142.87,6,28,53,9,22,3,24,2
142.87,8,40,33,7,39,30,104,4
142.88,2,14,3,8,4,5,61,4
142.88,4,10,8,18,11,18,6,19
142.88,3,22,17,8,10,7,37,6
142.89,0,2,6,12,14,7,5,3
142.9,2,9,1,7,7,15,35,6
142.9,2,5,7,11,1,1,16,2
142.91,12,24,18,23,29,24,86,1
142.91,10,40,13,6,21,31,128,14
142.91,7,8,12,20,7,10,78,1
142.92,11,5,8,4,12,4,4,1
142.93,3,2,11,14,11,13,4,1
142.93,6,2,56,50,1,26,94,24
142.94,1,9,21,25,10,3,49,6
142.94,14,37,18,9,40,65,83,40
142.94,13,21,13,29,19,12,60,5
142.95,2,11,13,14,10,14,15,6
142.96,10,24,37,2,2,6,69,10
142.96,1,18,12,21,4,33,48,28
142.97,3,4,5,6,17,11,29,9
142.97,7,26,11,3,26,49,116,19
142.97,2,6,12,9,10,0,52,3
142.98,3,6,6,14,2,12,6,4
142.99,8,8,18,23,11,1,7,4
142.99,2,13,6,11,18,16,41,3
143,4,4,7,9,17,11,79,17
143,2,10,17,11,11,4,96,6
143,0,8,33,18,9,1,16,2
143.01,17,50,7,95,54,19,19,3
143.01,7,15,4,41,19,5,29,2
143.02,12,23,1,1,3,13,47,6
143.03,5,11,32,28,1,14,10,3
143.03,3,9,44,20,8,8,3,2
143.03,4,4,12,12,11,3,16,0
143.04,15,28,33,7,18,24,45,2
143.04,3,8,12,22,14,7,119,0
143.05,2,5,8,21,1,17,29,8
143.06,0,5,25,19,8,1,64,4
143.06,7,24,31,6,4,7,26,1
143.06,0,1,5,36,13,11,16,4
143.07,12,30,35,45,12,16,51,4
143.07,14,34,31,9,20,12,8,4
143.08,5,4,15,25,7,21,21,3
143.09,5,19,11,15,10,21,0,11
143.09,1,10,4,43,10,13,41,0
143.09,7,16,36,18,47,71,2,52
143.1,14,31,14,20,1,17,113,28
143.1,22,49,5,44,40,28,72,24
143.11,3,1,2,29,1,19,25,8
143.12,8,15,68,45,11,0,49,7
143.12,21,60,3,17,36,29,44,4
143.12,12,31,46,23,19,12,120,4
143.13,6,12,9,8,30,46,99,11
143.13,7,49,8,47,0,8,87,21
143.14,19,53,14,52,52,15,77,11
143.15,14,35,9,1,27,19,113,11
143.15,2,4,2,7,18,16,106,5
143.16,2,21,4,3,3,13,66,21
143.16,8,0,2,10,4,13,18,2
143.16,5,15,12,7,4,0,1,12
143.17,4,16,4,13,12,3,46,9
143.18,3,6,22,69,19,1,12,9
143.18,11,38,44,101,43,11,62,3
143.19,11,25,20,9,11,8,30,4
143.19,2,9,4,20,25,11,5,0
143.19,20,30,1,27,15,1,101,4
143.2,5,4,11,7,13,12,17,7
143.21,2,10,2,29,37,24,16,15
143.21,2,5,24,36,1,14,17,6
143.22,2,22,21,24,4,14,32,4
143.22,2,4,8,52,16,2,13,5
143.22,9,4,24,5,7,9,22,5
143.23,0,3,2,19,7,11,12,9
143.24,3,21,10,0,11,2,30,4
143.24,9,33,5,20,5,3,21,0
143.25,4,0,29,11,0,1,21,2
143.25,3,31,25,5,7,4,20,2
143.25,2,6,22,2,17,23,51,10
143.26,2,2,16,28,5,12,17,1
143.26,0,20,1,11,3,5,6,7
143.27,2,38,19,40,15,5,11,3
143.28,4,2,22,63,23,9,6,1
143.28,4,21,21,7,1,4,15,2
143.28,8,3,23,25,1,3,13,3
143.29,6,18,6,23,7,1,10,4
143.29,11,30,23,36,25,8,16,5
143.3,1,11,20,19,10,5,5,3
143.31,5,4,2,14,5,6,13,2
143.31,2,15,14,22,4,3,21,1
143.31,1,19,25,67,19,9,4,0
143.32,13,36,26,88,45,16,16,1
143.32,11,30,21,32,12,4,4,5
143.33,7,3,37,23,0,12,6,3
143.34,4,24,5,22,8,12,8,6
143.34,6,12,9,45,18,13,6,3
143.34,1,5,9,19,10,1,0,2
143.35,15,62,13,104,58,28,32,0
143.35,3,21,18,41,2,4,7,1
143.36,1,10,29,3,15,20,9,9
143.37,7,6,15,6,0,1,11,10
143.37,5,30,4,40,27,13,13,0
143.38,5,17,1,41,27,12,5,4
143.38,8,10,3,36,1,0,0,1
143.38,6,6,8,13,2,0,6,4
143.39,10,35,4,112,55,26,46,3
143.4,24,62,21,128,94,40,53,6
143.4,4,38,27,126,51,16,32,3
143.41,6,1,10,6,0,2,2,2
143.41,8,5,19,57,7,1,3,5
143.41,7,27,2,41,44,28,20,1
143.42,14,35,24,112,55,14,25,0
143.43,11,25,20,23,17,18,4,1
143.43,5,24,22,64,30,17,10,4
143.44,5,13,26,17,9,18,3,10
143.44,13,36,39,66,9,2,11,8
143.44,16,36,18,32,55,26,35,4
143.45,14,39,13,37,68,36,29,4
143.46,14,47,35,30,60,42,54,4
143.46,8,31,37,127,68,23,36,5
143.47,3,6,28,35,32,21,17,0
143.47,19,59,1,31,9,6,1,14
143.47,36,86,61,37,55,21,28,8
143.48,3,12,55,49,18,5,5,1
143.49,13,29,34,94,40,25,32,2
143.49,22,100,72,69,90,44,47,7
143.5,15,60,50,108,79,36,44,3
143.5,19,55,65,78,74,31,25,4
143.5,5,37,30,37,20,13,41,7
143.51,6,33,24,123,71,48,58,15
143.51,8,29,3,89,57,40,36,18
143.52,4,49,25,15,21,0,5,11
143.53,8,24,28,53,2,10,6,2
143.53,3,22,16,71,15,23,9,6
143.53,7,29,39,95,89,60,41,13
143.54,2,22,30,113,87,46,46,15
143.54,11,35,7,39,21,3,11,1
143.55,29,49,2,32,14,15,16,7
143.56,3,30,25,53,21,1,25,5
143.56,24,46,40,48,65,26,20,9
143.56,14,31,8,49,54,16,20,0
143.57,24,58,56,71,44,1,29,4
143.57,6,15,4,63,30,21,25,5
143.58,4,3,53,11,10,10,28,2
143.59,9,11,19,111,48,9,39,5
143.59,5,21,30,58,15,9,37,1
143.59,1,8,50,31,11,18,10,5
143.6,8,19,14,73,23,9,20,1
143.6,2,12,43,53,18,13,23,1
143.61,13,40,16,70,50,29,45,4
143.62,0,8,86,80,50,17,17,2
143.62,9,18,46,28,38,29,15,14
143.62,5,23,32,37,37,29,34,7
143.63,19,49,51,75,63,33,61,9
143.63,8,14,41,52,23,15,17,4
143.64,15,69,15,127,94,52,46,8
143.65,0,18,62,40,41,12,16,3
143.65,3,2,41,88,17,19,10,7
143.66,22,74,69,93,19,18,4,9
143.66,31,87,22,6,38,20,23,0
143.66,6,69,21,11,29,14,6,1
143.67,20,79,83,117,101,53,45,7
143.68,3,5,74,56,54,48,44,7
143.68,1,19,9,89,18,1,22,6
143.69,21,35,5,19,12,19,25,3
143.69,1,20,64,79,32,17,4,3
143.69,13,50,29,3,36,28,35,1
143.7,4,26,44,8,23,21,10,6
143.71,15,23,20,36,5,35,6,12
143.71,9,71,80,82,76,48,31,5
143.72,26,81,55,89,109,53,66,8
143.72,8,37,49,103,53,23,32,4
143.72,19,63,38,127,124,74,70,10
143.73,8,13,105,80,74,70,55,23
143.74,10,8,39,51,55,28,27,13
143.74,3,25,26,49,30,25,0,2
143.75,28,72,44,64,85,91,70,18
143.75,21,35,6,65,4,2,3,11
143.75,9,3,8,38,33,23,16,7
143.76,11,0,68,12,8,5,22,8
143.76,3,6,27,10,12,26,5,2
143.77,0,3,13,56,33,7,4,5
143.78,4,9,3,2,17,14,5,7
143.78,7,12,0,42,2,4,15,2
143.78,12,13,41,21,20,1,42,6
143.79,11,6,79,34,12,9,45,4
143.79,10,27,4,85,48,11,40,0
143.8,13,22,27,18,25,10,0,4
143.81,8,56,54,28,26,13,25,8
143.81,26,84,38,105,65,19,2,8
143.81,5,24,7,7,5,10,10,4
143.82,4,10,16,76,41,11,9,7
143.82,15,39,24,45,21,7,32,4
143.83,8,28,44,46,45,13,22,2
143.84,7,13,32,60,21,10,1,1
143.84,11,20,61,112,47,24,9,7
143.84,1,3,62,6,19,16,14,2
143.85,3,1,21,17,5,16,26,15
143.85,10,50,43,39,72,38,34,7
143.86,0,14,11,91,72,46,34,11
143.87,0,13,7,39,22,20,9,11
143.87,7,27,56,45,26,14,25,2
143.88,24,94,69,128,93,48,41,9
143.88,4,21,29,71,33,17,19,2
143.88,2,0,9,37,3,12,18,7
143.89,5,18,13,40,28,8,2,1
143.9,6,21,5,19,15,12,1,2
143.9,2,4,0,39,11,4,5,1
143.91,4,4,35,2,9,11,37,4
143.91,10,16,26,14,2,6,20,5
143.91,6,11,9,1,7,5,34,2
143.92,1,33,12,33,1,3,2,1
143.93,20,71,2,121,67,44,34,5
143.93,2,6,5,37,7,8,12,11
143.94,9,41,28,47,21,6,22,0
143.94,6,23,19,6,10,8,6,4
143.94,1,2,30,4,9,6,6,3
143.95,12,23,25,62,17,4,9,4
143.96,2,27,21,77,20,11,11,0
143.96,8,5,22,41,4,14,11,4
143.97,7,18,9,48,10,9,61,13
143.97,5,20,12,12,22,4,114,2
143.97,8,25,41,21,13,2,17,5
143.98,16,41,55,39,29,1,53,7
143.99,8,11,36,8,10,16,40,1
143.99,19,29,1,21,0,11,27,14
144,2,14,16,11,8,11,2,10
144,4,18,17,34,13,2,3,1
144,6,12,21,27,24,1,8,4
144.01,6,38,56,54,24,13,17,4
144.01,14,50,18,74,47,25,35,1
144.02,13,42,0,1,7,20,29,19
144.03,6,22,22,19,7,2,25,8
144.03,1,6,26,6,11,8,37,4
144.03,2,0,25,2,14,0,2,3
144.04,7,6,12,25,3,10,72,9
144.04,17,46,0,13,18,23,97,12
144.05,2,7,6,32,7,11,56,2
144.06,8,28,7,12,23,6,18,5
144.06,3,6,58,76,28,11,51,1
144.06,1,31,8,11,2,21,20,22
144.07,5,1,20,19,5,17,45,13
144.07,9,17,8,10,12,1,18,21
144.08,27,84,22,58,62,29,58,7
144.09,11,32,25,19,9,4,11,6
144.09,2,3,8,3,5,6,13,5
144.09,1,15,21,7,2,3,1,4
144.1,3,27,9,32,13,5,17,10
144.1,6,24,20,64,29,0,11,7
144.11,6,5,15,8,9,24,49,3
144.12,5,11,2,7,12,10,1,11
144.12,4,21,1,8,9,6,1,3
144.12,1,3,3,9,4,0,31,5
144.13,8,19,8,18,15,18,28,1
144.13,7,16,32,16,18,9,22,3
144.14,4,25,32,4,24,6,37,1
144.15,8,3,17,17,0,6,3,16
144.15,8,4,7,9,10,6,18,6
144.16,4,12,3,4,5,2,2,1
144.16,7,25,1,13,2,1,9,6
144.16,1,17,86,38,9,6,1,0
144.17,1,2,21,27,15,18,13,9
144.18,4,9,19,40,20,16,4,12
144.18,9,10,9,26,9,5,8,3
144.19,12,31,26,13,17,14,54,4
144.19,3,3,3,4,2,1,14,1
144.19,3,14,13,49,21,13,14,7
144.2,0,15,23,84,40,21,40,12
144.21,5,8,15,18,3,13,22,1
144.21,2,9,14,1,14,5,41,3
144.22,6,11,16,12,2,5,32,4
144.22,3,11,10,21,8,0,16,1
144.22,0,2,32,10,8,4,18,2
144.23,3,1,14,9,8,4,21,6
144.24,5,12,5,21,10,12,36,13
144.24,7,14,10,10,2,21,23,2
144.25,11,9,6,3,1,4,21,1
144.25,0,4,20,3,11,6,31,2
144.25,11,15,11,5,1,9,45,6
144.26,11,17,5,13,7,2,21,0
144.26,5,3,16,14,3,9,28,12
144.27,1,2,1,2,4,5,34,12
144.28,1,4,27,45,19,12,20,5
144.28,5,2,2,8,4,9,2,6
144.28,6,7,1,2,8,3,18,9
144.29,1,1,13,16,14,4,9,0
144.29,4,17,49,27,19,10,27,3
144.3,4,4,25,4,9,5,11,0
144.31,2,3,9,15,10,1,5,0
144.31,9,14,7,6,9,7,4,2
144.31,2,13,29,12,1,4,20,5
144.32,2,3,20,19,5,1,35,7
144.32,4,5,9,21,19,19,11,9
144.33,7,22,4,5,3,1,35,0
144.34,3,10,29,23,5,0,16,6
144.34,8,31,64,44,25,4,17,7
144.34,9,13,30,14,2,7,38,3
144.35,6,9,5,4,0,5,7,1
144.35,7,13,4,13,5,9,4,2
144.36,8,25,8,24,16,7,4,5
144.37,1,0,7,11,2,0,6,3
144.37,5,14,39,18,9,6,1,2
144.38,6,6,3,24,6,2,3,4
144.38,8,11,29,15,4,1,0,5
144.38,8,6,1,1,5,2,5,3
144.39,1,0,10,30,0,3,2,4
144.4,16,31,7,85,37,13,38,1
144.4,3,8,18,32,11,6,6,3
144.41,5,7,1,11,7,9,6,5
144.41,1,6,10,30,1,6,9,3
144.41,1,3,4,29,6,4,4,3
144.42,5,6,6,29,7,5,2,1
144.43,3,5,8,22,9,4,9,1
144.43,0,8,8,16,10,11,26,4
144.44,1,1,19,17,7,8,5,2
144.44,5,5,4,4,3,3,23,4
144.44,2,1,2,23,8,6,3,0
144.45,3,1,8,20,8,6,2,0
144.46,0,3,1,8,2,1,9,2
144.46,5,3,7,17,4,4,2,6
144.47,0,3,7,12,7,6,4,3
144.47,6,15,6,15,9,6,11,3
144.47,3,7,0,17,9,3,2,4
144.48,6,8,20,1,5,3,3,0
144.49,7,24,50,66,20,10,18,1
144.49,1,3,5,10,7,3,0,1
144.5,5,16,4,18,17,7,9,0
144.5,2,5,20,25,8,3,2,3
144.5,1,5,3,7,2,0,7,2
144.51,2,4,2,2,3,1,6,0
144.51,1,2,7,5,5,6,2,3
144.52,1,2,8,3,4,1,4,4
144.53,1,1,9,10,5,0,8,3
144.53,2,2,1,3,4,0,1,0
144.53,1,3,13,6,1,4,1,4
144.54,1,1,10,17,4,0,5,1
144.54,2,1,14,17,0,0,2,1
144.55,2,8,6,13,7,5,5,3
144.56,3,4,7,11,4,0,4,4
144.56,5,16,45,34,8,0,0,3
144.56,3,3,15,11,1,4,1,0
144.57,3,3,6,44,6,5,3,0
144.57,9,34,11,74,39,24,24,0
144.58,0,8,8,25,19,10,7,1
144.59,3,8,19,4,5,3,2,0
144.59,0,1,23,25,2,2,0,0
144.59,5,13,41,32,6,13,5,1
144.6,1,2,10,11,7,10,5,2
144.6,3,6,12,7,0,3,1,5
144.61,1,4,11,13,8,9,1,1
144.62,1,13,22,4,7,13,9,2
144.62,3,11,2,21,2,11,3,3
144.62,5,17,31,30,11,3,9,3
144.63,3,0,21,33,10,5,6,5
144.63,3,2,7,40,15,10,7,1
144.64,7,21,9,16,12,7,7,3
144.65,2,4,22,4,15,20,10,6
144.65,4,6,19,49,26,14,16,3
144.66,0,1,9,44,22,9,12,4
144.66,2,2,4,26,15,9,1,2
144.66,7,29,23,17,34,23,18,3
144.67,11,30,18,39,37,10,18,8
144.68,3,7,32,25,15,14,13,3
144.68,4,1,15,7,1,7,1,1
144.69,3,4,8,34,9,0,5,6
144.69,2,5,2,35,19,10,7,5
144.69,13,31,38,127,72,31,28,4
144.7,18,49,83,105,87,28,38,1
144.71,14,25,9,69,34,0,22,6
144.71,5,7,16,41,18,12,8,2
144.72,7,21,16,58,44,21,24,7
144.72,9,31,26,48,49,20,22,0
144.72,20,59,29,48,45,5,24,4
144.73,12,29,67,78,29,17,11,0
144.74,12,39,53,96,43,17,22,1
144.74,11,9,3,39,9,5,13,4
144.75,15,34,15,62,48,14,34,2
144.75,6,22,49,81,49,18,11,0
144.75,14,34,12,96,54,23,23,3
144.76,1,4,2,100,27,12,15,3
144.76,17,36,13,19,35,28,19,2
144.77,3,0,51,2,1,0,6,0
144.78,18,42,12,16,31,9,29,2
144.78,6,31,48,93,45,14,15,1
144.78,9,26,79,2,15,20,1,4
144.79,6,30,47,76,53,38,16,5
144.79,29,83,108,100,99,51,48,3
144.8,9,16,65,99,70,46,23,8
144.81,17,49,38,85,55,20,4,5
144.81,6,4,56,72,21,23,10,6
144.81,7,11,29,36,7,14,23,5
144.82,7,16,84,67,59,31,50,3
144.82,20,52,20,47,8,4,8,7
144.83,9,21,45,0,19,15,59,9
144.84,2,4,19,53,32,21,44,8
144.84,29,62,81,114,104,65,65,9
144.84,2,5,29,56,21,4,27,2
144.85,1,11,38,57,27,27,15,8
144.85,14,36,64,35,28,10,7,3
144.86,13,24,2,28,4,8,16,5
144.87,19,43,9,82,59,20,20,5
144.87,1,3,71,27,26,20,3,7
144.88,12,33,26,59,34,20,12,1
144.88,3,14,31,57,9,1,1,2
144.88,9,24,46,89,47,20,38,2
144.89,4,20,45,125,32,7,13,4
144.9,2,9,22,16,12,15,3,5
144.9,1,0,25,4,19,18,2,8
144.91,20,58,87,93,78,34,45,2
144.91,11,31,83,74,10,5,8,8
144.91,21,62,27,80,23,2,14,6
144.92,24,48,11,24,15,2,81,1
144.93,21,64,9,84,47,25,5,4
144.93,2,2,75,66,13,2,11,3
144.94,41,88,79,124,61,10,56,7
144.94,1,4,30,52,35,51,1,14
144.94,2,24,10,63,38,13,7,5
144.95,7,9,61,66,18,8,7,2
144.96,19,39,85,73,83,62,51,8
144.96,4,32,55,87,62,44,27,10
144.97,4,17,47,47,24,12,10,5
144.97,34,86,18,70,44,17,38,4
144.97,10,31,82,31,30,16,21,4
144.98,0,7,69,13,5,7,20,5
144.99,3,1,9,21,11,1,21,2
144.99,8,21,7,27,34,14,17,1
145,17,48,62,106,81,18,40,1
145,9,14,88,20,13,22,10,6
145,14,46,40,102,47,26,21,5
145.01,27,90,47,128,112,62,42,7
145.01,17,58,22,87,75,43,27,8
145.02,20,21,3,80,90,56,50,14
145.03,4,10,45,64,0,8,13,4
145.03,11,17,14,45,9,14,25,1
145.03,10,19,51,70,22,6,20,7
145.04,6,12,120,113,73,45,28,3
145.04,25,44,61,9,11,32,1,11
145.05,8,3,16,44,11,7,4,4
145.06,13,30,48,4,3,8,2,1
145.06,14,46,24,85,65,36,37,0
145.06,6,11,47,3,10,3,9,2
145.07,8,25,84,10,4,2,8,3
145.07,10,27,16,9,8,7,3,4
145.08,30,98,32,80,90,42,38,0
145.09,3,5,9,42,6,4,2,2
145.09,9,48,43,90,73,43,33,7
145.09,10,24,45,69,25,4,9,8
145.1,9,43,43,98,44,22,23,2
145.1,27,51,69,4,16,8,9,4
145.11,2,14,37,41,5,6,6,3
145.12,3,17,38,56,25,25,28,5
145.12,14,35,17,57,11,2,15,9
145.12,33,64,66,102,55,19,45,5
145.13,11,37,16,62,64,24,72,2
145.13,5,4,7,31,17,9,25,3
145.14,16,49,33,78,81,46,47,5
145.15,9,39,34,57,7,11,9,5
145.15,0,8,24,23,2,3,14,3
145.16,3,16,8,25,8,9,23,2
145.16,7,27,3,33,4,13,1,3
145.16,19,42,32,60,20,1,9,1
145.17,26,57,1,102,40,12,13,6
145.18,31,73,18,19,46,8,26,4
145.18,4,9,53,76,55,24,24,5
145.19,14,46,27,2,38,21,27,3
145.19,2,1,21,66,4,0,10,2
145.19,17,42,2,86,48,26,26,5
145.2,10,11,0,4,6,1,1,2
145.21,5,9,2,40,11,9,10,12
145.21,8,25,30,28,9,4,8,0
145.22,52,109,62,62,73,5,25,16
145.22,14,34,69,3,9,30,6,10
145.22,11,20,48,27,3,7,8,5
145.23,1,18,19,29,6,2,8,5
145.24,8,10,41,14,1,7,17,10
145.24,11,26,25,55,24,7,21,2
145.25,5,5,35,7,3,3,1,4
145.25,4,13,6,3,20,4,5,5
145.25,3,4,29,1,1,3,4,3
145.26,3,10,7,5,3,2,3,4
145.26,4,12,16,16,2,3,7,1
145.27,6,17,59,23,10,8,21,4
145.28,8,7,60,35,18,20,26,6
145.28,10,15,20,7,3,2,8,8
145.28,11,21,3,29,16,0,15,4
145.29,3,14,5,8,8,3,15,3
145.29,3,4,21,38,1,3,26,4
145.3,0,5,26,60,16,9,15,0
145.31,8,26,5,78,44,19,13,3
145.31,4,14,67,35,11,3,2,2
145.31,2,12,14,23,8,8,11,5
145.32,5,1,8,13,3,4,17,3
145.32,7,9,29,16,9,9,18,0
145.33,7,8,12,7,10,5,32,4
145.34,6,15,15,10,1,4,6,6
145.34,2,2,47,12,0,5,9,16
145.34,4,19,26,29,24,4,12,5
145.35,5,1,33,35,22,15,19,6
145.35,8,8,9,22,10,15,72,4
145.36,2,3,3,14,16,13,11,7
145.37,1,3,6,11,7,1,13,2
145.37,5,20,18,81,16,5,15,0
145.38,7,14,12,28,1,5,39,0
145.38,8,9,40,17,9,10,15,2
145.38,3,2,23,3,9,13,18,11
145.39,0,12,11,11,15,13,37,8
145.4,12,34,11,39,29,15,43,10
145.4,0,1,21,6,3,0,3,1
145.41,10,11,6,24,11,5,12,13
145.41,5,12,39,63,9,1,4,5
145.41,4,2,18,16,3,8,51,9
145.42,0,8,16,2,7,2,21,2
145.43,7,6,12,3,12,3,31,8
145.43,1,11,21,37,10,11,4,1
145.44,3,1,6,0,4,10,30,5
145.44,1,0,2,10,1,2,3,5
145.44,0,3,9,7,2,0,8,6
145.45,4,7,1,7,7,3,29,1
145.46,5,25,7,25,12,2,40,1
145.46,4,16,42,54,25,10,23,5
145.47,8,8,8,3,7,5,13,2
145.47,1,12,12,55,6,1,1,0
145.47,4,16,28,87,38,23,55,1
145.48,2,2,16,28,16,17,31,5
145.49,3,0,30,6,4,4,1,4
145.49,0,1,2,7,1,3,32,5
145.5,1,4,8,21,8,2,17,3
145.5,1,0,4,3,2,8,7,3
145.5,3,0,2,1,5,1,3,1
145.51,10,18,13,4,3,4,22,1
145.51,2,2,6,7,13,5,42,3
145.52,0,8,4,0,4,3,30,9
145.53,3,4,17,7,4,7,24,3
145.53,1,52,17,17,11,9,17,6
145.53,5,48,6,1,1,3,30,1
145.54,4,7,6,0,8,5,1,1
145.54,0,25,7,1,0,3,11,1
145.55,7,32,1,12,7,8,3,3
145.56,5,6,38,36,24,16,29,0
145.56,4,1,18,36,23,22,26,2
145.56,1,17,5,3,8,5,14,3
145.57,4,20,10,2,2,1,8,4
145.57,10,1,0,26,7,5,5,4
145.58,1,3,10,7,10,4,2,6
145.59,6,30,4,7,7,5,13,0
145.59,3,17,4,2,6,6,15,4
145.59,11,24,12,25,15,5,21,6
145.6,1,10,3,2,3,0,8,4
145.6,4,6,7,13,4,2,6,7
145.61,1,11,6,7,5,5,5,2
145.62,5,2,18,12,4,7,13,5
145.62,2,3,8,6,2,1,2,5
145.62,2,2,8,21,4,8,17,5
145.63,7,11,4,6,6,8,17,5
145.63,2,2,11,0,2,5,18,4
145.64,3,4,18,37,8,4,7,0
145.65,9,22,6,32,13,5,5,4
145.65,2,5,14,12,9,1,4,3
145.66,0,8,30,19,3,3,1,1
145.66,4,16,51,33,9,8,19,5
145.66,2,3,14,41,14,5,7,0
145.67,14,20,18,33,18,7,0,1
145.68,4,5,4,1,1,8,2,3
145.68,3,6,17,13,7,11,11,1
145.69,2,2,5,3,2,0,6,2
145.69,1,11,6,15,7,8,1,1
145.69,5,1,8,3,6,2,9,1
145.7,4,1,3,1,5,1,12,0
145.71,8,5,6,8,5,7,8,0
145.71,5,14,14,31,11,6,7,0
145.72,4,9,3,11,5,1,4,5
145.72,5,3,7,3,4,1,26,12
145.72,0,4,7,10,3,13,1,6
145.73,6,2,1,4,6,4,5,0
145.74,5,3,6,3,4,3,17,2
145.74,0,7,4,12,3,0,9,4
145.75,3,9,18,38,6,6,1,4
145.75,1,6,9,3,0,1,2,6
145.75,3,0,4,9,4,2,5,3
145.76,2,19,16,11,14,3,19,1
145.76,10,23,41,23,25,14,15,5
145.77,0,7,9,14,2,4,3,2
145.78,2,10,8,0,0,0,9,4
145.78,1,6,2,4,0,0,13,1
145.78,0,9,2,22,7,5,3,2
145.79,2,4,9,1,2,3,5,1
145.79,3,2,1,12,2,7,6,3
145.8,1,7,4,3,1,3,12,2
145.81,4,1,2,3,6,3,6,1
145.81,1,11,2,20,1,5,2,3
145.81,2,3,13,20,11,2,3,2
145.82,1,0,6,5,4,1,2,3
145.82,6,0,10,1,2,2,6,3
145.83,3,3,7,4,5,2,4,12
145.84,2,0,1,10,1,0,4,15
145.84,9,14,32,26,11,1,9,6
145.84,1,8,20,2,7,6,6,1
145.85,4,3,5,15,9,8,5,0
145.85,7,7,5,1,4,8,5,1
145.86,4,21,20,96,38,19,19,7
145.87,0,8,18,30,17,3,17,1
145.87,5,4,21,9,4,8,4,1
145.88,1,12,14,42,7,6,3,3
145.88,2,1,24,16,7,11,4,4
145.88,0,7,22,9,0,3,4,2
145.89,1,3,4,4,6,1,2,3
145.9,7,14,33,19,2,10,2,1
145.9,10,10,0,38,24,15,16,6
145.91,2,3,58,10,5,8,15,10
145.91,5,17,38,7,8,3,9,2
145.91,6,17,24,14,11,9,10,2
145.92,2,1,63,26,9,12,7,3
145.93,2,6,73,1,7,2,8,2
145.93,2,3,46,3,3,0,3,4
145.94,1,1,16,22,3,10,3,3
145.94,9,23,23,32,6,9,5,2
145.94,8,23,39,29,1,5,3,4
145.95,2,18,32,34,19,3,10,3
145.96,9,20,10,51,24,7,4,5
145.96,2,12,62,67,18,2,2,2
145.97,5,4,24,73,11,1,4,1
145.97,7,10,7,16,19,4,10,4
145.97,4,10,38,14,19,2,7,4
145.98,0,12,26,65,22,9,5,5
145.99,7,10,10,3,19,6,12,5
145.99,1,9,20,16,9,2,8,7
146,9,30,4,69,29,12,11,1
146,31,81,9,92,83,44,44,4
146,7,27,18,99,33,9,25,7
146.01,13,30,61,49,31,2,15,2
146.01,13,37,32,47,30,6,27,4
146.02,8,24,10,3,6,4,35,3
146.03,1,0,21,62,4,7,10,2
146.03,2,2,39,12,12,8,4,0
146.03,10,21,19,28,6,0,6,14
146.04,4,22,21,47,28,12,15,6
146.04,8,13,31,28,23,13,17,4
146.05,17,6,30,59,4,8,2,14
146.06,11,16,28,54,26,18,19,4
146.06,4,23,23,52,24,8,22,3
146.06,11,19,21,27,23,15,6,5
146.07,14,33,77,82,45,13,5,0
146.07,3,4,17,37,5,10,13,2
146.08,16,57,2,105,61,36,30,1
146.09,0,26,43,102,60,43,34,6
146.09,14,35,9,44,26,14,30,2
146.09,5,19,23,39,47,32,22,5
146.1,9,11,7,31,22,21,3,8
146.1,20,69,21,69,37,33,16,3
146.11,28,79,81,58,68,34,34,2
146.12,21,47,71,88,34,1,21,3
146.12,11,19,3,22,1,18,0,5
146.12,7,21,8,88,25,9,7,2
146.13,17,59,32,6,12,1,6,4
146.13,13,18,13,27,8,18,4,8
146.14,3,18,3,46,29,27,7,11
146.15,6,16,23,6,17,11,9,1
146.15,28,49,11,69,55,28,34,1
146.16,6,18,9,79,16,2,8,2
146.16,26,58,70,127,77,37,34,5
146.16,9,35,48,118,77,47,51,9
146.17,20,50,75,127,66,34,39,3
146.18,26,78,73,128,77,26,36,1
146.18,20,36,79,115,38,16,14,4
146.19,5,17,9,87,16,8,11,1
146.19,17,63,83,76,76,39,38,1
146.19,55,102,58,114,116,87,77,7
146.2,3,18,33,44,23,2,6,4
146.21,5,6,66,12,7,5,8,3
146.21,21,42,28,75,33,15,23,6
146.22,20,28,46,6,1,4,7,6
146.22,16,37,15,83,28,18,19,0
146.22,8,2,11,51,43,26,17,9
146.23,1,22,34,87,35,17,12,1
146.24,15,28,7,65,61,42,47,2
146.24,8,34,83,28,43,40,20,11
146.25,4,8,49,106,37,10,19,2
146.25,1,12,1,40,19,13,5,4
146.25,8,1,5,91,20,18,3,6
146.26,5,31,8,69,40,43,35,11
146.26,7,7,4,53,37,21,11,5
146.27,5,16,40,48,12,11,5,5
146.28,14,16,49,23,4,4,14,3
146.28,19,52,76,106,62,49,29,7
146.28,18,47,20,95,86,42,44,5
146.29,1,2,34,28,11,8,10,4
146.29,0,2,87,71,19,4,16,2
146.3,3,17,13,77,1,7,3,0
146.31,13,30,18,98,62,37,29,1
146.31,24,86,16,80,94,55,50,10
146.31,10,26,22,77,31,1,24,3
146.32,18,33,17,5,22,6,12,2
146.32,2,4,22,3,20,11,15,0
146.33,2,4,100,22,12,13,2,1
146.34,14,19,6,18,28,8,26,3
146.34,9,8,65,27,3,11,11,6
146.34,9,4,17,32,14,18,3,8
146.35,18,55,49,35,40,21,21,4
146.35,2,29,17,59,48,41,25,10
146.36,1,23,7,68,39,40,19,8
146.37,12,36,12,63,42,16,7,3
146.37,22,53,16,16,10,30,6,8
146.38,3,4,19,70,31,16,6,2
146.38,20,65,67,38,46,21,21,2
146.38,3,13,19,37,1,3,0,1
146.39,33,75,91,63,41,9,27,1
146.4,14,23,16,43,10,1,4,3
146.4,13,31,40,53,15,10,6,3
146.41,14,36,54,40,33,12,14,6
146.41,23,57,80,66,2,12,0,4
146.41,3,25,24,10,15,28,1,8
146.42,5,32,6,95,50,46,22,14
146.43,14,20,24,1,6,0,1,1
146.43,7,26,27,38,19,12,11,2
146.44,7,4,30,78,21,10,6,1
146.44,34,61,6,108,73,28,44,4
146.44,3,22,31,37,26,4,17,1
146.45,3,28,1,13,22,20,13,6
146.46,20,76,71,31,67,50,49,11
146.46,4,6,55,6,7,9,5,0
146.47,3,9,18,33,20,18,15,6
146.47,1,1,7,36,23,24,18,6
146.47,4,0,70,16,21,10,12,1
146.48,18,51,4,85,50,22,17,1
146.49,38,66,56,38,66,22,30,0
146.49,11,40,69,27,25,1,19,1
146.5,9,46,52,96,54,29,20,3
146.5,20,44,57,66,79,42,41,0
146.5,6,10,3,61,25,9,10,3
146.51,2,6,32,29,1,6,3,0
146.51,18,46,0,82,36,11,26,1
146.52,18,46,66,20,26,14,16,3
146.53,1,3,20,43,8,4,8,5
146.53,0,0,16,2,8,8,4,3
146.53,17,37,14,69,40,18,16,2
146.54,2,15,44,56,35,18,11,8
146.54,3,14,28,48,21,14,9,0
146.55,6,22,10,44,19,8,6,1
146.56,1,4,18,34,5,4,10,1
146.56,1,7,13,15,21,19,6,0
146.56,0,0,23,43,19,4,24,2
146.57,0,22,9,10,4,13,20,0
146.57,4,30,18,39,32,24,10,1
146.58,1,7,7,33,30,12,2,3
146.59,2,11,10,2,4,3,2,16
146.59,6,6,24,9,3,0,3,4
146.59,2,12,15,6,19,11,13,0
146.6,8,23,51,9,29,22,21,3
146.6,11,9,20,49,4,4,8,3
146.61,4,11,18,9,12,12,14,4
146.62,7,26,18,32,22,11,2,7
146.62,5,2,11,20,20,12,4,3
146.62,5,8,28,5,6,8,4,11
146.63,0,18,15,27,30,19,72,6
146.63,6,2,14,7,9,1,33,3
146.64,0,9,26,30,8,14,41,1
146.65,7,26,6,55,18,15,22,9
146.65,2,9,23,38,16,7,41,3
146.66,3,4,14,13,14,10,72,4
146.66,6,2,44,38,13,9,12,6
146.66,1,4,19,52,7,11,23,5
146.67,12,8,24,3,4,4,25,11
146.68,5,27,10,1,21,13,5,11
146.68,1,1,6,28,4,33,28,19
146.69,1,1,15,1,6,22,7,14
146.69,14,33,17,8,14,4,116,11
146.69,11,8,2,10,14,29,26,21
146.7,11,27,4,19,13,24,77,4
146.71,4,11,3,5,1,12,64,5
146.71,18,37,21,19,23,19,76,4
146.72,3,1,15,24,4,13,111,8
146.72,4,2,5,2,2,8,43,5
146.72,1,3,0,16,8,7,7,8
146.73,10,8,34,38,15,13,7,10
146.74,7,15,37,16,16,8,20,9
146.74,15,6,14,13,5,7,37,1
146.75,3,13,2,5,11,10,27,0
146.75,6,16,5,44,18,0,29,3
146.75,12,28,51,32,27,6,2,1
146.76,5,3,12,0,0,4,17,2
146.76,3,4,32,31,18,19,14,5
146.77,6,3,3,6,5,34,0,4
146.78,2,3,2,8,2,9,39,9
146.78,1,5,5,8,5,9,10,7
146.78,0,1,3,12,3,8,2,2
146.79,2,4,56,1,3,6,9,5
146.79,3,4,8,11,1,2,19,2
146.8,5,2,65,3,4,2,15,1
146.81,2,1,64,38,8,1,9,3
146.81,8,21,45,58,12,8,4,1
146.81,3,13,5,19,18,4,21,0
146.82,2,11,25,27,7,4,1,0
146.82,3,1,32,24,5,7,8,2
146.83,7,6,50,54,7,7,11,5
146.84,1,5,11,33,6,6,17,2
146.84,4,17,19,1,24,17,30,12
146.84,3,2,7,4,3,11,4,6
146.85,1,4,1,14,2,6,6,0
146.85,5,12,18,9,2,5,14,10
146.86,5,14,25,34,16,7,8,4
146.87,1,1,7,13,4,1,1,4
146.87,0,3,9,8,1,3,8,0
146.88,1,4,9,1,6,11,8,0
146.88,7,3,5,10,5,1,7,1
146.88,0,4,5,0,8,12,12,1
146.89,2,1,14,5,1,0,11,1
146.9,3,3,4,10,7,3,0,1
146.9,2,8,4,1,5,2,10,1
146.91,0,0,5,6,4,2,3,2
146.91,4,11,1,29,9,1,1,1
146.91,7,9,3,23,9,8,9,1
146.92,7,6,12,15,2,4,2,7
146.93,0,2,5,1,2,6,0,1
146.93,6,12,7,18,12,4,3,3
146.94,2,10,8,37,7,2,9,0
146.94,3,5,15,32,12,8,2,3
146.94,11,20,16,51,15,0,7,3
146.95,1,7,1,20,5,1,6,2
146.96,3,5,15,16,1,10,3,3
146.96,3,6,8,1,6,5,3,3
146.97,3,11,9,16,1,0,5,0
146.97,2,7,6,5,1,2,1,2
146.97,2,3,4,3,2,1,3,6
146.98,7,8,13,8,10,7,17,9
146.99,1,6,25,20,6,1,5,1
146.99,1,6,2,10,1,2,6,2
147,1,4,6,3,3,1,2,3
147,1,3,10,12,3,6,3,4
147,5,4,21,9,6,5,6,0
147.01,2,3,19,23,3,2,4,5
147.01,7,26,44,41,17,6,1,1
147.02,3,15,6,1,2,1,2,1
147.03,0,5,20,4,2,3,1,5
147.03,3,1,9,7,1,1,2,1
147.03,1,9,22,43,12,1,4,2
147.04,2,0,19,18,9,9,0,2
147.04,5,1,1,13,9,5,8,5
147.05,10,15,24,0,1,4,4,3
147.06,1,1,4,2,12,7,6,7
147.06,3,6,1,9,11,7,11,9
147.06,2,2,13,15,3,5,6,0
147.07,6,7,18,17,11,5,9,0
147.07,2,5,9,7,5,0,1,1
147.08,4,3,6,7,0,5,8,4
147.09,2,1,7,14,3,6,6,5
147.09,4,20,1,4,8,2,12,2
147.09,3,3,16,13,6,7,2,1
147.1,4,7,4,10,4,3,1,4
147.1,7,12,10,29,4,1,2,1
147.11,12,17,37,11,5,9,6,2
147.12,5,10,33,16,1,1,3,0
147.12,4,1,1,33,6,10,7,2
147.12,2,5,6,6,3,1,2,2
147.13,1,7,9,15,4,5,3,1
147.13,4,2,6,6,2,7,1,2
147.14,0,6,18,19,8,6,2,4
147.15,6,5,1,4,4,0,2,8
147.15,2,1,32,7,4,5,4,3
147.16,5,13,5,14,3,1,0,8
147.16,2,3,4,3,5,6,6,2
147.16,5,8,1,3,0,2,2,5
147.17,3,2,4,2,2,8,8,2
147.18,5,2,27,24,4,6,2,3
147.18,0,17,1,5,4,16,2,9
147.19,3,4,7,47,4,4,0,1
147.19,1,1,17,64,18,7,7,1
147.19,2,3,17,4,5,4,14,6
147.2,3,11,29,48,14,14,16,5
147.21,3,3,4,32,5,5,4,1
147.21,2,2,2,12,4,3,5,4
147.22,9,12,28,7,11,8,12,1
147.22,4,0,10,28,21,15,10,4
147.22,5,6,7,72,29,18,19,2
147.23,8,0,5,0,6,4,5,4
147.24,7,3,4,10,4,4,1,0
147.24,0,9,3,22,18,15,12,2
147.25,1,2,17,17,1,2,1,4
147.25,3,11,6,5,5,5,7,0
147.25,6,16,27,16,3,1,1,2
147.26,0,5,3,7,0,1,6,5
147.26,16,15,40,33,9,19,8,8
147.27,2,1,39,40,26,20,11,7
147.28,5,8,25,24,19,2,9,5
147.28,5,7,7,5,4,1,2,2
147.28,2,7,2,9,7,1,5,2
147.29,12,28,84,56,22,9,8,0
147.29,2,3,33,2,3,8,2,5
147.3,1,2,17,1,5,6,5,5
147.31,8,15,23,49,30,19,16,6
147.31,10,9,21,15,22,11,15,1
147.31,5,4,24,5,5,2,3,2
147.32,7,12,10,19,5,0,5,2
147.32,3,5,33,1,8,9,15,2
147.33,15,22,3,35,40,20,26,5
147.34,12,17,11,9,16,0,3,4
147.34,15,36,16,46,9,11,2,6
147.34,2,5,1,34,8,1,4,3
147.35,7,17,19,14,3,1,7,4
147.35,0,4,21,66,22,18,8,5
147.36,25,66,77,104,58,23,20,3
147.37,7,42,37,5,24,25,8,10
147.37,1,5,1,39,22,13,8,2
147.38,2,14,47,11,6,4,4,2
147.38,8,19,16,6,28,6,13,5
147.38,6,1,23,49,20,2,9,0
147.39,4,17,24,6,19,19,8,2
147.4,6,16,22,14,5,6,1,1
147.4,1,2,6,33,7,9,1,2
147.41,1,16,3,32,11,10,6,2
147.41,4,16,79,75,12,11,1,1
147.41,9,26,15,16,15,1,13,4
147.42,4,18,72,77,9,19,7,4
147.43,19,71,10,80,77,48,23,7
147.43,0,9,87,24,31,15,11,4
147.44,18,76,107,74,55,41,29,11
147.44,5,7,19,24,7,6,3,4
147.44,9,7,45,31,6,18,6,2
147.45,11,8,10,11,8,2,8,5
147.46,4,4,17,46,41,20,20,0
147.46,4,9,29,19,16,9,10,5
147.47,7,8,54,22,10,8,9,7
147.47,8,25,30,34,0,7,5,0
147.47,22,64,43,1,39,3,9,3
147.48,11,12,39,56,0,0,5,4
147.49,6,7,50,31,5,12,5,3
147.49,6,12,10,27,10,5,1,3
147.5,4,13,67,17,5,1,11,3
147.5,6,19,20,16,5,4,13,5
147.5,7,7,53,60,43,22,24,8
147.51,45,98,14,124,91,34,44,2
147.51,6,37,49,39,21,4,12,2
147.52,0,5,79,69,12,5,10,5
147.53,14,36,83,6,14,6,1,7
147.53,27,46,59,85,72,51,52,4
147.53,3,37,22,108,78,42,41,13
147.54,20,44,27,39,0,16,7,9
147.54,33,81,7,52,60,44,29,3
147.55,50,68,15,38,82,83,84,2
147.56,4,38,1,91,27,10,8,3
147.56,11,9,23,14,32,16,26,15
147.56,22,50,23,16,32,18,17,9
147.57,35,69,11,127,89,76,49,6
147.57,11,56,62,101,95,62,58,17
147.58,3,2,20,49,8,4,1,3
147.59,1,3,37,3,17,20,2,3
147.59,36,64,64,82,67,21,48,13
147.59,27,62,16,108,38,21,17,7
147.6,14,35,4,83,37,14,18,9
147.6,13,25,23,75,40,1,28,3
147.61,6,1,58,34,31,12,23,24
147.62,6,13,18,81,23,17,18,21
147.62,4,5,45,41,12,15,9,2
147.62,13,38,46,2,6,9,4,7
147.63,17,51,26,62,52,41,40,15
147.63,3,28,7,12,27,10,5,21
147.64,6,8,17,18,18,16,1,3
147.65,25,29,57,8,15,8,14,11
147.65,21,31,79,90,39,17,38,1
147.66,8,44,57,11,13,2,5,1
147.66,1,20,37,45,52,37,23,5
147.66,17,51,1,17,4,20,6,7
147.67,16,63,27,85,55,31,15,1
147.68,6,3,63,41,1,9,7,6
147.68,22,87,18,87,60,22,39,4
147.69,6,17,12,54,20,1,15,8
147.69,1,2,1,31,7,10,1,2
147.69,13,46,60,53,13,25,0,4
147.7,6,23,7,7,10,3,9,3
147.71,13,23,3,13,4,18,8,8
147.71,8,30,30,128,37,32,4,8
147.72,9,5,13,21,19,24,0,10
147.72,17,61,94,120,69,45,39,12
147.72,6,18,21,8,5,3,2,3
147.73,16,45,53,112,83,47,42,2
147.74,15,39,41,38,37,32,28,12
147.74,4,39,71,78,22,19,5,1
147.75,9,49,6,62,65,51,35,8
147.75,0,16,38,3,3,3,3,3
147.75,7,8,49,18,6,12,7,1
147.76,2,14,15,12,7,1,4,4
147.76,0,5,14,12,7,9,2,4
147.77,32,68,36,79,53,24,25,8
147.78,4,21,79,36,20,21,6,12
147.78,11,35,28,30,20,5,6,4
147.78,2,4,15,13,5,7,6,1
147.79,3,0,7,12,1,13,3,9
147.79,2,33,4,49,36,30,16,4
147.8,1,2,30,3,11,9,1,4
147.81,1,11,6,24,11,0,10,0
147.81,7,14,59,19,14,2,2,7
147.81,12,7,50,17,7,3,21,4
147.82,2,13,43,22,4,1,6,2
147.82,7,7,19,9,2,2,24,4
147.83,2,0,15,18,14,8,4,5
147.84,2,17,3,5,4,5,19,5
147.84,6,2,31,28,10,17,2,4
147.84,10,19,71,101,38,27,14,8
147.85,2,1,53,5,6,8,12,0
147.85,3,6,45,6,18,11,12,5
147.86,9,21,1,4,5,5,23,1
147.87,7,9,61,37,4,2,23,0
147.87,2,1,16,11,2,0,12,9
147.88,1,3,8,6,4,1,8,6
147.88,0,2,8,9,3,1,1,3
147.88,6,11,0,5,10,2,7,0
147.89,10,1,19,4,12,7,64,6
147.9,7,3,2,1,7,3,16,11
147.9,14,13,23,8,4,5,1,2
147.91,3,3,18,21,5,6,28,1
147.91,0,2,12,17,1,2,41,6
147.91,14,11,3,18,26,23,79,19
147.92,19,82,15,10,46,40,105,29
147.93,9,3,36,1,13,8,48,10
147.93,5,6,30,19,3,19,33,1
147.94,7,21,2,8,2,1,9,1
147.94,15,25,9,6,6,7,27,19
147.94,4,13,1,18,15,21,2,0
147.95,3,36,17,1,2,4,21,1
147.96,3,11,2,3,10,16,12,4
147.96,6,6,9,2,8,5,14,3
147.97,5,2,7,20,5,11,30,7
147.97,2,15,6,9,7,3,2,3
147.97,10,14,23,17,5,2,27,5
147.98,1,16,7,10,4,2,32,4
147.99,13,17,22,19,19,6,67,4
147.99,12,32,17,38,20,3,49,1
148,3,1,13,26,4,15,1,7
148,10,3,13,2,2,4,25,3
148,1,5,1,1,3,0,5,12
148.01,5,15,35,8,7,4,11,2
148.01,7,7,5,1,14,0,8,5
148.02,1,11,8,6,2,4,9,1
148.03,2,6,17,9,4,0,4,1
148.03,2,16,4,16,11,4,5,5
148.03,7,14,26,41,15,3,4,1
148.04,6,2,5,12,4,1,17,11
148.04,3,6,6,1,6,10,20,1
148.05,6,2,2,3,4,5,0,3
148.06,1,6,4,2,5,4,2,1
148.06,8,16,6,3,3,6,21,1
148.06,4,8,6,14,3,0,31,1
148.07,4,3,9,5,2,6,3,3
148.07,3,12,4,17,2,4,2,8
148.08,4,4,14,6,0,4,4,3
148.09,1,0,6,5,1,2,5,1
148.09,1,10,3,20,2,6,13,2
148.09,2,5,18,2,3,3,27,5
148.1,3,4,20,0,2,3,7,4
148.1,4,16,5,35,11,9,16,1
148.11,6,7,12,19,4,6,5,0
148.12,2,9,3,14,1,3,17,1
148.12,0,0,3,5,2,4,8,1
148.12,1,2,11,7,2,2,6,4
148.13,7,9,2,18,6,1,10,3
148.13,2,1,21,4,3,2,1,3
148.14,1,3,2,3,1,1,0,0
148.15,6,6,3,1,6,0,9,1
148.15,3,6,1,10,2,0,9,3
148.16,6,2,10,3,2,5,6,7
148.16,8,10,0,5,13,21,16,21
148.16,5,14,0,6,8,1,15,5
148.17,4,5,1,2,0,3,7,14
148.18,12,5,4,9,0,0,0,1
148.18,1,15,27,1,3,8,6,1
148.19,5,1,33,14,0,8,0,0
148.19,3,1,2,56,14,4,9,1
148.19,2,0,2,10,6,5,4,1
148.2,4,6,7,23,13,11,3,1
148.21,9,26,13,46,19,13,11,2
148.21,10,21,1,32,12,3,27,3
148.22,1,3,3,29,13,6,10,6
148.22,7,2,1,10,5,2,10,5
148.22,1,0,1,15,5,5,9,2
148.23,0,1,13,1,0,3,8,4
148.24,3,6,3,9,2,5,4,3
148.24,2,3,10,11,2,0,6,0
148.25,3,1,18,1,5,1,21,3
148.25,5,12,8,3,1,0,11,0
148.25,0,4,18,2,7,4,4,2
148.26,2,3,4,18,6,3,18,1
148.26,3,6,14,6,5,5,27,0
148.27,2,1,12,21,1,2,17,4
148.28,1,3,16,3,1,1,4,7
148.28,3,2,10,17,12,3,5,16
148.28,2,6,1,23,7,10,9,5
148.29,4,3,2,0,5,3,2,1
148.29,1,2,10,34,1,0,5,2
148.3,6,11,19,30,5,9,0,3
148.31,13,27,20,59,60,34,36,1
148.31,6,13,17,60,12,9,4,7
148.31,6,7,2,14,3,1,7,2
148.32,3,12,5,25,13,6,5,1
148.32,3,1,19,12,2,5,13,9
148.33,2,8,15,35,10,9,3,7
148.34,8,4,11,3,2,16,1,9
148.34,4,9,5,15,4,0,2,3
148.34,1,11,16,1,4,1,13,1
148.35,15,24,27,62,14,8,14,1
148.35,5,14,17,17,4,7,17,5
148.36,3,4,15,7,4,4,3,4
148.37,2,7,10,27,11,3,0,3
148.37,2,4,21,25,4,8,0,0
148.38,4,1,29,25,9,7,1,0
148.38,11,27,9,65,37,19,18,2
148.38,7,20,8,37,25,7,13,3
148.39,2,2,1,33,2,4,8,3
148.4,3,6,32,5,11,8,8,3
148.4,10,14,14,54,23,15,13,8
148.41,2,11,14,31,21,10,5,8
148.41,4,9,22,3,9,15,9,11
148.41,6,12,24,52,18,8,11,3
148.42,3,3,28,45,19,5,15,4
148.43,12,36,69,97,39,4,32,8
148.43,4,26,3,54,13,4,0,2
148.44,2,8,28,1,9,16,5,7
148.44,4,6,3,22,9,2,29,9
148.44,3,16,30,29,10,8,5,2
148.45,0,4,26,33,14,2,9,1
148.46,6,7,6,17,7,1,14,4
148.46,6,4,3,8,2,0,1,2
148.47,10,16,20,17,5,2,2,1
148.47,0,1,18,25,8,12,7,1
148.47,3,16,3,56,19,10,8,2
148.48,9,32,22,106,36,14,17,5
148.49,10,34,53,68,22,4,11,4
148.49,1,2,25,70,38,33,15,4
148.5,25,67,59,125,105,69,53,6
148.5,3,27,15,122,50,38,29,9
148.5,3,13,17,71,23,4,3,0
148.51,5,8,25,65,21,17,17,4
148.51,4,11,22,4,20,14,25,5
148.52,0,2,19,45,22,15,3,4
148.53,13,37,45,93,19,6,25,3
148.53,13,58,12,66,52,20,41,6
148.53,1,10,44,44,3,5,30,3
148.54,18,46,30,86,49,16,11,0
148.54,25,68,80,115,83,33,48,4
148.55,8,19,26,68,22,2,3,19
148.56,6,12,21,32,11,2,4,4
148.56,7,7,12,5,6,12,6,5
148.56,0,1,41,13,3,20,14,4
148.57,22,69,28,117,56,31,35,2
148.57,4,36,49,5,18,3,7,1
148.58,17,56,9,93,74,47,36,1
148.59,43,71,18,83,80,46,43,2
148.59,7,21,16,4,6,14,20,4
148.59,4,3,43,47,15,18,16,15
148.6,4,3,21,42,32,29,27,25
148.6,7,8,57,127,82,45,63,12
148.61,4,27,102,77,65,42,60,10
148.62,1,20,18,49,20,8,5,4
148.62,0,3,39,38,42,39,29,7
148.62,10,15,88,34,48,68,48,20
148.63,6,5,59,44,58,35,58,14
148.63,6,13,5,85,47,37,10,6
148.64,2,23,57,52,80,55,39,6
148.65,9,32,38,3,37,22,12,0
148.65,6,33,2,14,6,9,24,3
148.66,4,34,25,34,25,35,20,11
148.66,29,50,1,88,33,3,21,7
148.66,8,24,33,80,1,0,8,3
148.67,4,6,39,61,20,7,16,7
148.68,2,7,26,11,9,8,10,7
148.68,7,13,8,52,9,6,2,2
148.69,17,43,13,13,6,3,7,4
148.69,6,22,1,108,63,32,37,7
148.69,11,29,12,69,52,35,18,1
148.7,8,32,23,83,33,48,9,5
148.71,12,35,22,43,35,13,10,1
148.71,19,4,60,62,63,54,38,9
148.72,19,30,93,35,50,48,29,16
148.72,7,27,22,52,40,22,8,9
148.72,11,46,22,104,67,49,21,0
148.73,0,5,20,36,47,65,33,13
148.74,8,4,22,18,11,1,0,6
148.74,0,20,18,31,32,22,8,2
148.75,8,10,9,47,28,11,5,5
148.75,11,21,2,65,16,8,8,5
148.75,9,12,5,12,5,11,5,0
148.76,20,67,74,128,83,23,33,1
148.76,5,19,58,20,14,15,7,3
148.77,9,22,3,23,18,7,3,4
148.78,2,2,6,62,2,16,6,4
148.78,7,32,28,104,75,50,40,9
148.78,1,18,50,9,2,12,2,9
148.79,15,24,15,7,4,10,16,5
148.79,7,33,9,63,27,14,12,4
148.8,35,71,32,105,67,38,38,5
148.81,31,66,74,24,26,7,10,6
148.81,14,28,118,24,45,45,28,6
148.81,7,11,35,74,8,17,2,5
148.82,47,110,127,60,74,43,36,4
148.82,2,25,62,10,48,59,60,9
148.83,4,33,15,39,32,4,5,0
148.84,4,21,9,68,32,18,10,2
148.84,0,19,52,35,50,22,19,7
148.84,4,2,35,36,16,16,13,0
148.85,4,9,25,27,3,4,11,5
148.85,11,21,34,79,32,14,10,2
148.86,6,53,36,91,89,53,38,4
148.87,4,6,6,114,68,36,32,9
148.87,1,10,62,31,22,11,11,4
148.88,9,19,9,26,6,3,2,2
148.88,11,40,78,41,9,3,0,3
148.88,12,29,3,33,23,24,20,9
148.89,5,2,54,3,14,3,5,5
148.9,12,24,45,31,20,0,20,0
148.9,8,8,20,36,11,3,7,3
148.91,11,27,21,22,38,14,13,3
148.91,3,0,89,19,0,4,4,0
148.91,27,50,14,52,76,32,43,5
148.92,11,24,10,18,29,34,13,6
148.93,17,26,26,13,17,11,5,4
148.93,6,1,30,15,26,31,16,6
148.94,26,82,46,38,65,34,39,4
148.94,24,53,13,11,41,25,23,0
148.94,27,52,63,49,6,4,6,5
148.95,20,70,45,127,66,35,32,5
148.96,37,61,34,6,51,24,30,5
148.96,3,6,26,4,11,12,6,5
148.97,0,21,40,44,50,34,30,4
148.97,1,8,70,73,33,28,23,6
148.97,17,50,18,22,21,13,17,7
148.98,15,14,39,41,5,10,8,23
148.99,11,70,71,63,40,18,1,12
148.99,28,66,17,87,90,64,47,8
149,11,38,21,88,30,8,8,3
149,8,27,24,2,7,8,4,0
149,17,22,3,54,19,9,8,5
149.01,17,42,12,80,61,37,30,1
149.01,1,9,21,66,68,36,29,14
149.02,10,11,50,35,4,7,2,6
149.03,1,60,15,34,6,0,7,2
149.03,7,14,27,20,16,9,4,1
149.03,20,51,6,29,42,31,19,1
149.04,11,31,12,27,3,2,3,1
149.04,1,29,22,88,39,21,14,4
149.05,15,33,14,46,3,6,3,5
149.06,36,109,56,124,112,50,55,1
149.06,32,62,2,128,114,78,83,13
149.06,4,7,46,127,42,7,12,6
149.07,0,18,6,64,12,6,5,2
149.07,0,17,19,24,1,1,4,8
149.08,10,25,4,35,4,4,13,2
149.09,9,17,66,36,26,18,11,3
149.09,3,24,23,30,32,25,3,11
149.09,12,40,38,96,25,9,7,5
149.1,3,8,34,62,24,27,17,10
149.1,1,5,1,12,16,18,7,11
149.11,2,1,18,11,16,21,9,4
149.12,5,14,28,63,7,5,2,2
149.12,1,22,19,6,15,12,0,7
149.12,6,1,61,25,16,9,13,1
149.13,22,72,81,87,80,32,27,3
149.13,2,5,19,53,60,32,14,11
149.14,6,37,27,94,45,16,5,1
149.15,0,11,5,27,8,4,0,4
149.15,6,10,25,16,14,4,11,3
149.16,5,9,7,15,12,21,2,7
149.16,2,6,32,10,10,6,22,0
149.16,5,3,4,38,17,12,11,5
149.17,3,23,22,55,17,12,23,1
149.18,9,4,73,24,8,2,11,10
149.18,26,61,2,96,95,52,42,1
149.19,4,0,2,55,9,1,8,1
149.19,4,6,3,9,15,10,16,1
149.19,6,8,7,3,3,2,25,1
149.2,11,16,18,9,30,21,43,1
149.21,9,17,30,38,14,9,29,7
149.21,6,29,6,47,27,15,2,4
149.22,0,2,17,27,7,1,26,3
149.22,4,4,2,32,10,2,33,2
149.22,12,21,3,9,2,4,45,1
149.23,8,25,55,24,19,10,13,1
149.24,2,0,30,25,4,4,7,7
149.24,4,3,14,4,13,18,24,3
149.25,2,3,5,3,4,8,32,1
149.25,2,2,2,21,1,4,0,0
149.25,2,10,27,11,6,6,7,9
149.26,8,7,21,21,1,6,17,3
149.26,2,7,30,9,5,3,16,6
149.27,3,14,25,10,14,4,61,1
149.28,14,7,19,11,4,3,34,2
149.28,2,0,41,7,5,23,43,11
149.28,4,4,27,3,2,0,88,7
149.29,3,11,17,44,26,6,44,12
149.29,14,19,12,45,4,2,40,10
149.3,10,16,5,14,57,42,65,23
149.31,26,52,13,13,22,18,108,11
149.31,1,12,1,14,9,17,70,21
149.31,1,4,1,11,1,3,14,24
149.32,13,19,2,33,2,8,4,22
149.32,7,21,79,2,14,10,32,8
149.33,21,62,8,87,61,16,39,15
149.34,5,4,13,17,11,20,91,28
149.34,1,5,40,29,1,3,8,10
149.34,3,12,1,17,14,10,33,8
149.35,2,3,19,15,12,2,5,1
149.35,6,7,7,18,5,1,28,9
149.36,4,5,2,33,17,5,27,4
149.37,5,14,34,2,3,1,1,15
149.37,1,1,15,11,7,3,4,4
149.38,4,1,6,21,1,0,5,0
149.38,2,7,21,14,2,3,8,3
149.38,2,8,14,7,13,8,22,4
149.39,2,0,19,43,12,1,38,6
149.4,5,5,15,2,5,1,7,4
149.4,18,37,89,104,37,12,14,4
149.41,6,1,31,28,3,6,41,15
149.41,0,9,13,11,1,23,66,40
149.41,1,4,23,16,12,7,16,8
149.42,1,10,15,42,19,6,5,0
149.43,18,32,45,86,44,12,9,5
149.43,0,7,6,45,23,14,13,8
149.44,1,2,8,14,2,5,34,13
149.44,1,10,8,17,9,4,28,8
149.44,10,23,9,2,4,3,10,22
149.45,9,3,32,4,4,4,14,11
149.46,2,6,40,3,9,11,7,1
149.46,7,19,6,23,26,19,13,11
149.47,1,2,36,0,9,4,22,11
149.47,7,1,50,1,0,1,13,5
149.47,9,7,30,0,9,3,34,5
149.48,6,7,4,26,18,9,21,3
149.49,3,13,2,5,1,0,24,9
149.49,1,0,10,11,6,8,17,23
149.5,2,1,19,4,5,5,8,3
149.5,6,9,77,54,8,7,11,1
149.5,11,11,36,79,19,22,11,7
149.51,8,3,9,26,14,12,3,14
149.51,3,5,1,22,5,3,18,4
149.52,1,6,14,10,22,8,21,20
149.53,3,9,5,27,13,3,24,6
149.53,4,3,6,5,0,2,4,3
149.53,4,4,4,4,7,3,9,4
149.54,8,19,53,20,17,5,14,1
149.54,5,15,40,13,8,3,1,3
149.55,1,10,5,11,11,1,16,4
149.56,7,13,20,32,13,6,6,0
149.56,7,10,33,6,7,11,3,4
149.56,2,4,2,15,5,4,23,10
149.57,2,1,8,6,2,1,12,5
149.57,6,6,0,7,4,8,2,5
149.58,5,9,8,7,9,3,2,3
149.59,8,13,5,10,8,1,15,5
149.59,2,3,3,17,15,12,1,4
149.59,5,15,8,21,8,7,11,2
149.6,1,7,12,2,10,4,8,2
149.6,5,5,5,19,4,1,1,2
149.61,6,5,4,7,4,2,1,1
149.62,2,4,24,30,1,2,1,0
149.62,0,1,21,9,0,4,6,4
149.62,5,15,11,11,7,6,17,2
149.63,1,2,20,22,3,0,3,1
149.63,6,14,27,46,25,7,4,4
149.64,8,17,22,12,15,3,3,3
149.65,6,9,10,0,4,4,9,2
149.65,1,4,2,17,5,5,2,4
149.66,5,5,34,43,12,7,5,0
149.66,11,14,13,13,15,5,8,2
149.66,6,5,8,1,12,2,5,1
149.67,5,5,4,6,9,3,6,1
149.68,0,3,3,3,6,8,1,5
149.68,10,17,6,1,0,2,36,8
149.69,4,9,40,8,4,1,6,4
149.69,3,3,3,28,11,6,7,0
149.69,2,4,3,4,1,4,1,1
149.7,4,0,2,6,1,1,4,3
149.71,2,0,19,6,0,1,4,2
149.71,4,8,9,4,4,4,1,1
149.72,1,2,12,20,0,1,4,1
149.72,3,7,12,33,10,5,3,1
149.72,3,13,16,12,3,2,6,0
149.73,1,3,17,50,6,10,8,1
149.74,4,13,21,59,18,21,18,1
149.74,0,0,0,18,18,5,14,1
149.75,3,5,0,6,1,6,4,0
149.75,4,1,6,7,7,5,8,1
149.75,1,2,7,22,2,3,1,2
149.76,8,20,22,64,20,7,14,1
149.76,11,32,71,87,28,11,13,0
149.77,5,8,49,21,1,8,6,7
149.78,3,6,40,3,3,0,5,1
149.78,5,5,15,5,4,5,5,0
149.78,6,8,36,57,19,12,4,4
149.79,3,6,22,34,8,1,2,3
149.79,6,10,20,19,13,11,10,4
149.8,5,9,21,19,11,4,4,1
149.81,2,4,30,26,2,5,1,3
149.81,7,15,21,6,12,2,14,3
149.81,9,23,10,10,18,3,7,2
149.82,16,35,11,20,24,12,13,2
149.82,7,17,31,13,4,1,5,2
149.83,0,6,17,29,26,15,12,3
149.84,6,7,7,15,13,8,5,5
149.84,6,7,42,13,5,3,2,0
149.84,1,5,30,3,1,6,3,6
149.85,1,1,28,10,9,9,5,2
149.85,2,5,11,11,5,7,4,2
149.86,5,5,2,19,1,5,9,0
149.87,8,29,46,11,10,3,8,1
149.87,11,29,33,10,8,0,2,1
149.88,1,7,22,25,15,1,2,0
149.88,8,25,4,18,16,7,1,2
149.88,10,24,54,10,1,3,7,3
149.89,9,41,58,1,22,3,4,3
149.9,6,48,18,6,24,23,12,6
149.9,9,26,78,27,17,4,9,12
149.91,4,65,55,23,4,13,14,1
149.91,5,7,18,7,10,7,3,1
149.91,16,10,57,79,18,4,7,13
149.92,1,16,5,52,2,4,6,4
149.93,1,15,42,64,16,3,24,1
149.93,5,23,6,63,14,1,11,0
149.94,1,1,0,48,16,10,1,0
149.94,1,33,55,86,42,30,20,10
149.94,6,31,9,79,50,29,32,11
149.95,13,24,56,16,9,5,1,4
149.96,9,21,16,16,10,2,7,3
149.96,14,26,18,91,42,22,23,0
149.97,25,39,53,58,56,26,35,3
149.97,7,13,22,43,8,19,1,8
149.97,2,32,24,6,26,31,5,14
149.98,7,39,73,87,55,37,29,7
149.99,38,85,16,49,67,36,26,3
149.99,0,24,30,82,0,21,25,13
150,2,2,23,60,15,15,4,5
150,47,78,67,33,39,10,23,7
150,13,33,22,16,56,25,35,0
150.01,3,3,31,9,8,16,8,1
150.01,5,15,45,4,16,13,4,5
150.02,9,9,6,53,17,19,0,6
150.03,18,57,72,2,33,20,9,2
150.03,12,23,35,27,4,0,5,4
150.03,10,2,1,54,16,17,5,6
150.04,15,36,14,30,9,14,7,7
150.04,19,47,78,127,90,57,35,8
150.05,0,1,5,80,73,48,28,12
150.06,14,36,15,111,62,32,32,4
150.06,7,25,21,60,46,44,31,13
150.06,30,71,9,99,61,25,32,1
150.07,1,9,4,34,13,18,10,1
150.07,3,3,51,51,28,11,20,0
150.08,35,70,38,95,98,54,49,0
150.09,13,34,48,69,88,57,46,14
150.09,9,22,34,43,29,3,17,2
150.09,10,8,49,34,10,2,18,3
150.1,10,27,22,30,32,13,19,1
150.1,15,42,30,62,34,0,7,6
150.11,7,18,10,25,2,4,2,2
150.12,3,11,32,21,20,12,4,4
150.12,14,31,15,10,9,6,12,2
150.12,5,22,1,24,23,16,4,2
150.13,2,3,22,25,17,24,8,8
150.13,1,25,19,12,12,8,9,4
150.14,35,63,6,10,63,12,29,1
150.15,13,2,24,27,1,15,1,4
150.15,1,23,6,23,20,13,13,5
150.16,4,4,4,17,6,4,11,5
150.16,35,29,85,84,72,24,30,4
150.16,14,14,15,36,52,54,62,5
150.17,1,21,53,58,40,19,7,3
150.18,10,21,71,49,74,21,21,2
150.18,9,14,13,59,36,8,5,2
150.19,6,45,4,80,53,47,31,8
150.19,8,66,70,61,40,14,10,1
150.19,7,28,9,70,58,25,26,4
150.2,1,10,36,57,49,26,11,1
150.21,13,63,42,127,89,45,55,12
150.21,17,37,120,58,51,12,22,8
150.22,29,12,96,64,82,32,42,2
150.22,4,53,18,74,31,26,16,5
150.22,7,14,21,83,53,52,51,13
150.23,4,21,74,106,30,9,15,3
150.24,5,18,4,16,12,17,8,2
150.24,38,84,26,46,82,16,19,4
150.25,18,33,40,33,49,19,39,2
150.25,2,12,30,32,7,9,2,3
150.25,7,3,33,3,4,11,3,5
150.26,2,13,2,63,19,9,2,3
150.26,18,38,6,81,60,8,20,1
150.27,5,12,5,41,14,18,7,4
150.28,3,22,8,1,53,5,11,4
150.28,2,24,14,9,1,2,5,7
150.28,1,36,17,77,5,11,9,2
150.29,16,34,51,35,10,1,2,8
150.29,26,54,26,7,23,22,24,2
150.3,14,29,33,19,22,15,13,2
150.31,23,92,58,125,60,37,36,4
150.31,17,61,93,1,2,6,1,1
150.31,9,21,57,106,57,37,12,6
150.32,16,51,23,26,59,17,22,1
150.32,2,5,44,65,17,28,23,5
150.33,12,29,46,50,12,9,5,0
150.34,15,51,28,7,29,4,7,5
150.34,4,10,8,54,25,34,15,3
150.34,1,22,17,45,21,18,6,3
150.35,6,18,61,39,9,2,0,1
150.35,3,0,6,52,4,2,1,5
150.36,9,11,16,27,5,10,1,2
150.37,1,1,21,46,24,26,26,4
150.37,9,4,77,31,30,17,26,2
150.38,28,71,3,57,68,22,21,0
150.38,30,58,92,102,93,34,31,3
150.38,12,28,77,75,47,5,16,0
150.39,13,64,61,34,28,4,20,1
150.4,16,29,27,23,11,3,3,1
150.4,8,7,33,68,34,19,13,3
150.41,27,74,36,128,73,40,27,5
150.41,8,5,27,52,23,18,11,1
150.41,15,30,91,9,9,3,5,5
150.42,7,56,0,5,27,15,10,5
150.43,21,59,90,127,108,39,35,2
150.43,5,39,38,1,40,30,29,9
150.44,4,6,116,85,19,6,1,3
150.44,0,23,56,8,1,3,1,2
150.44,34,49,50,82,70,37,33,1
150.45,1,14,17,15,35,4,13,1
150.46,7,37,21,20,9,16,4,1
150.46,5,24,112,26,23,8,8,5
150.47,1,15,33,17,3,4,5,0
150.47,3,28,16,12,0,5,2,1
150.47,7,26,28,98,45,30,21,2
150.48,7,36,11,61,31,23,6,1
150.49,7,19,68,2,15,12,0,2
150.49,13,35,4,57,16,14,1,8
150.5,7,38,49,46,35,15,20,4
150.5,5,53,6,15,5,2,2,3
150.5,26,61,26,52,43,29,22,0
150.51,15,45,64,127,45,28,25,2
150.51,8,13,32,62,19,21,6,3
150.52,6,44,45,63,32,32,21,11
150.53,4,8,18,44,22,11,13,2
150.53,7,43,4,44,24,21,1,5
150.53,38,61,35,103,80,43,29,4
150.54,18,63,47,119,73,39,41,5
150.54,34,56,40,59,30,10,9,12
150.55,7,16,74,82,25,8,19,2
150.56,19,52,70,24,22,11,5,3
150.56,3,15,32,58,16,4,10,2
150.56,1,15,17,21,1,11,2,3
150.57,4,9,34,43,18,15,10,8
150.57,0,6,38,20,4,0,1,2
150.58,1,2,20,8,4,8,8,2
150.59,11,23,53,54,33,13,16,2
150.59,3,15,12,75,31,9,7,4
150.59,11,53,45,10,27,15,14,6
150.6,9,34,12,33,15,13,3,0
150.6,3,19,43,39,17,18,15,17
150.61,7,9,3,8,3,10,26,16
150.62,5,12,29,7,5,5,5,2
150.62,1,7,11,10,1,7,9,2
150.62,1,3,25,14,4,0,30,1
150.63,0,9,32,4,7,15,19,5
150.63,2,11,18,19,16,5,27,2
150.64,4,7,15,6,4,6,14,2
150.65,7,18,39,10,12,3,27,2
150.65,1,13,7,2,15,22,48,4
150.66,7,20,4,6,6,6,10,4
150.66,14,33,65,34,21,4,3,14
150.66,7,2,1,3,7,8,42,3
150.67,12,21,1,13,6,15,76,4
150.68,3,16,15,23,4,2,21,17
150.68,5,10,13,26,10,1,13,1
150.69,3,32,6,8,5,0,9,8
150.69,0,44,3,17,1,9,55,18
150.69,5,12,10,7,1,1,13,1
150.7,5,5,4,1,4,6,18,11
150.71,5,12,28,13,4,7,19,8
150.71,7,24,7,25,13,3,59,3
150.72,12,17,23,10,5,3,93,8
150.72,9,30,14,12,15,10,75,2
150.72,1,4,4,1,11,16,78,1
150.73,14,30,12,15,10,13,18,12
150.74,2,13,42,6,3,1,55,8
150.74,12,28,17,10,10,2,26,5
150.75,14,30,19,10,4,7,2,3
150.75,7,9,34,10,9,9,12,5
150.75,3,2,22,9,3,5,28,6
150.76,0,7,65,8,1,6,44,4
150.76,8,10,27,11,1,19,17,7
150.77,0,9,39,64,16,6,13,0
150.78,3,5,12,49,31,8,8,5
150.78,3,26,69,11,21,9,21,2
150.78,7,25,26,22,3,3,23,8
150.79,1,14,26,19,1,0,2,2
150.79,9,35,20,24,21,4,25,5
150.8,5,3,39,18,5,6,21,9
150.81,3,6,9,6,0,2,14,4
150.81,3,17,48,45,25,11,23,5
150.81,10,6,30,43,19,20,25,2
150.82,26,63,17,92,70,34,45,6
150.82,3,12,16,58,18,6,17,2
150.83,1,10,63,28,2,19,3,1
150.84,22,74,84,91,40,25,37,6
150.84,7,27,74,57,22,2,2,2
150.84,13,15,41,101,27,7,1,1
150.85,7,53,6,5,18,9,9,0
150.85,3,6,8,18,17,12,31,3
150.86,0,86,45,18,8,5,15,2
150.87,3,5,0,9,9,1,24,8
150.87,0,4,28,12,4,2,13,0
150.88,5,14,13,4,2,0,9,3
150.88,4,21,23,0,0,2,17,2
150.88,6,11,11,49,21,7,1,3
150.89,1,4,25,30,0,9,17,0
150.9,1,11,35,24,2,2,5,1
150.9,4,17,6,16,2,2,3,4
150.91,9,6,4,15,12,5,8,4
150.91,1,9,12,12,0,1,15,5
150.91,1,5,6,9,1,2,6,8
150.92,5,27,22,11,6,5,61,0
150.93,10,1,1,12,4,15,20,2
150.93,9,10,18,27,6,4,21,7
150.94,10,32,26,41,19,2,7,3
150.94,4,38,51,45,13,6,8,0
150.94,6,13,21,35,12,1,26,2
150.95,4,23,5,10,2,1,8,0
150.96,9,5,26,68,23,5,15,4
150.96,3,23,81,32,8,4,7,5
150.97,6,35,1,18,21,10,2,5
150.97,5,8,1,8,3,8,32,7
150.97,1,15,6,3,6,6,63,12
150.98,0,24,3,16,6,2,43,7
150.99,4,21,2,0,10,12,23,1
150.99,3,3,21,19,3,6,11,3
151,4,8,8,3,12,16,22,0
151,2,8,1,7,1,1,13,1
151,3,17,14,49,15,13,5,4
151.01,15,46,77,111,53,21,19,0
151.01,15,8,16,29,1,1,52,3
151.02,0,13,29,37,3,10,10,7
151.03,1,7,47,14,8,5,18,6
151.03,2,5,15,6,8,10,13,6
151.03,23,39,28,84,7,12,76,8
151.04,4,33,30,7,11,9,52,11
151.04,4,39,4,4,1,2,7,3
151.05,6,53,31,54,21,10,13,1
151.06,10,25,16,13,4,4,27,3
151.06,1,29,10,9,4,7,8,0
151.06,3,23,38,22,5,4,2,1
151.07,5,14,3,17,12,13,11,6
151.07,16,32,23,4,3,2,3,9
151.08,1,10,1,1,2,2,4,12
151.09,0,3,21,1,7,6,12,5
151.09,1,38,8,9,2,1,7,4
151.09,10,23,68,72,6,3,5,2
151.1,2,13,15,45,14,9,2,15
151.1,11,14,15,13,1,3,33,15
151.11,2,3,8,40,3,7,23,2
151.12,2,15,18,9,11,6,2,2
151.12,4,18,23,29,10,3,7,3
151.12,8,18,4,13,1,1,4,5
151.13,2,11,7,3,2,6,9,6
151.13,0,16,23,38,21,16,24,5
151.14,13,51,23,73,30,12,4,1
151.15,7,10,11,3,1,4,9,3
151.15,3,13,18,14,10,9,8,7
151.16,12,4,5,1,5,10,8,3
151.16,2,17,9,28,11,12,12,3
151.16,9,8,5,6,5,4,5,3
151.17,3,61,5,13,4,6,8,5
151.18,8,7,4,3,4,3,2,1
151.18,1,55,2,20,13,1,5,7
151.19,2,6,30,11,3,2,8,1
151.19,1,21,67,50,22,15,1,1
151.19,5,2,11,41,11,7,1,1
151.2,3,0,6,37,16,8,4,6
151.21,2,8,13,20,3,0,4,1
151.21,11,5,8,58,10,9,24,2
151.22,4,6,10,14,4,10,10,3
151.22,4,8,11,9,6,4,32,4
151.22,5,29,34,14,4,1,8,6
151.23,7,39,16,25,6,0,4,2
151.24,1,1,18,14,4,3,2,2
151.24,6,5,13,1,2,5,8,3
151.25,2,13,19,24,4,1,11,8
151.25,2,6,35,18,7,5,9,0
151.25,4,11,23,12,1,4,12,1
151.26,4,6,25,3,3,6,5,5
151.26,4,64,24,13,2,3,7,3
151.27,3,12,12,19,10,6,4,4
151.28,5,24,28,44,23,11,13,1
151.28,2,47,11,43,17,6,9,3
151.28,1,22,1,41,18,6,2,3
151.29,7,32,8,71,29,8,4,0
151.29,10,7,4,60,51,27,29,3
151.3,3,20,33,17,12,6,7,0
151.31,7,47,21,21,9,7,4,1
151.31,14,15,31,20,20,19,34,6
151.31,3,7,25,55,24,16,18,0
151.32,6,2,5,6,17,9,5,1
151.32,5,30,55,114,35,25,19,2
151.33,8,3,10,12,6,8,10,4
151.34,11,32,13,91,52,28,22,3
151.34,7,12,17,57,4,5,4,2
151.34,18,28,46,71,0,23,8,7
151.35,9,49,58,38,2,4,11,0
151.35,15,71,49,58,50,42,40,6
151.36,3,0,67,43,40,21,10,6
151.37,6,9,50,23,1,9,3,2
151.37,4,25,76,14,17,9,8,2
151.38,15,3,67,6,2,23,6,16
151.38,5,18,61,6,5,0,8,3
151.38,28,55,48,34,26,2,8,3
151.39,26,76,86,65,18,12,4,9
151.4,6,19,24,105,37,37,10,6
151.4,8,10,6,55,78,76,44,16
151.41,1,13,102,106,33,12,15,2
151.41,10,41,100,119,94,62,54,12
151.41,1,30,28,82,85,53,53,14
151.42,8,13,104,97,41,8,20,0
151.43,23,94,90,127,103,84,59,11
151.43,15,32,62,91,110,106,73,22
151.44,15,61,76,93,91,49,43,11
151.44,68,119,117,59,66,30,71,2
151.44,4,43,38,1,20,35,0,11
151.45,18,53,67,85,76,53,40,15
151.46,53,99,98,128,128,67,63,4
151.46,20,35,64,21,37,18,19,2
151.47,24,58,84,8,13,6,3,8
151.47,19,18,49,128,109,69,58,11
151.47,9,15,14,2,18,21,10,2
151.48,20,42,77,119,82,68,56,12
151.49,35,51,39,107,128,69,67,7
151.49,15,62,38,41,40,19,35,1
151.5,33,75,70,81,68,25,44,2
151.5,11,19,64,61,24,6,19,0
151.5,15,18,46,26,13,2,2,9
151.51,2,16,0,34,5,1,0,2
151.51,8,9,84,77,38,22,24,4
151.52,19,55,83,41,47,32,25,2
151.53,8,36,56,17,48,32,16,2
151.53,10,12,18,4,4,12,7,3
151.53,33,70,84,107,84,39,41,5
151.54,41,84,9,104,89,60,57,8
151.54,14,60,41,127,75,26,28,4
151.55,5,34,36,12,7,3,14,2
151.56,28,47,47,49,16,28,0,12
151.56,4,0,64,32,13,31,13,11
151.56,11,77,19,121,79,44,30,14
151.57,9,32,59,12,9,16,5,1
151.57,16,62,67,65,84,56,31,12
151.58,18,43,99,121,97,54,31,8
151.59,20,49,124,127,88,43,37,5
151.59,41,106,82,48,56,22,35,9
151.59,14,38,59,2,9,23,5,2
151.6,13,1,52,4,33,19,5,2
151.6,23,109,83,46,50,15,36,2
151.61,24,88,45,87,88,49,49,7
151.62,2,7,45,127,65,31,20,7
151.62,26,77,25,90,83,44,43,11
151.62,22,24,38,68,29,6,16,0
151.63,2,7,43,96,41,24,14,7
151.63,14,34,70,124,83,60,31,13
151.64,20,3,57,34,11,24,19,12
151.65,11,15,8,50,67,45,10,3
151.65,4,5,59,4,1,0,18,6
151.66,13,24,47,4,18,16,15,4
151.66,26,45,53,103,57,23,36,3
151.66,24,54,12,83,18,7,9,4
151.67,27,52,101,8,19,6,6,2
151.68,6,40,42,80,28,6,18,4
151.68,11,15,29,62,15,1,7,9
151.69,6,25,35,31,5,7,0,2
151.69,17,47,78,38,61,35,37,6
151.69,18,72,13,100,50,6,24,2
151.7,9,102,21,49,20,20,6,6
151.71,9,6,52,4,32,12,18,1
151.71,27,49,49,66,69,46,36,5
151.72,2,17,17,17,55,61,59,18
151.72,4,18,19,109,50,17,20,7
151.72,6,14,18,2,1,10,12,0
151.73,16,46,22,65,45,14,14,2
151.74,7,23,58,56,29,8,2,4
151.74,6,37,20,83,3,4,4,4
151.75,6,17,19,47,62,44,28,8
151.75,5,19,12,7,9,3,1,5
151.75,5,15,2,20,7,20,24,2
151.76,18,64,108,82,28,13,4,4
151.76,6,22,21,67,15,14,10,2
151.77,13,22,2,4,14,9,11,3
151.78,1,6,83,24,17,10,1,2
151.78,14,32,48,84,44,34,27,6
151.78,5,1,60,26,4,4,11,4
151.79,0,17,9,5,0,7,1,1
151.79,6,7,17,22,6,5,6,5
151.8,15,36,1,25,44,29,19,3
151.81,14,41,84,65,34,7,15,1
151.81,6,44,18,25,15,22,48,5
151.81,9,51,17,19,3,6,11,5
151.82,14,28,31,99,78,26,46,5
151.82,31,74,82,110,96,43,33,7
151.83,6,17,61,46,29,23,28,6
151.84,6,9,3,27,1,15,34,9
151.84,13,53,10,30,22,11,20,1
151.84,11,1,35,37,12,8,6,3
151.85,8,8,3,20,1,3,12,2
151.85,7,2,12,40,22,2,7,4
151.86,1,19,32,23,7,8,18,1
151.87,7,30,32,30,26,20,1,11
151.87,4,9,30,10,14,13,7,3
151.88,0,18,100,58,4,8,27,3
151.88,5,21,62,40,27,14,86,4
151.88,11,23,49,53,39,17,38,4
151.89,6,24,36,33,32,29,9,11
151.9,20,27,39,75,44,24,42,6
151.9,14,31,36,44,6,18,118,2
151.91,13,37,25,27,30,25,62,22
151.91,25,50,31,17,43,58,108,48
151.91,3,21,32,9,11,12,125,5
151.92,23,54,4,18,5,27,50,9
151.93,2,9,9,45,10,6,106,24
151.93,13,7,15,48,3,4,26,1
151.94,3,20,20,51,12,1,62,1
151.94,9,6,27,9,11,25,72,14
151.94,3,30,18,23,5,4,10,15
151.95,5,16,63,36,5,21,18,21
151.96,3,59,36,45,18,12,11,6
151.96,3,3,16,38,12,25,40,1
151.97,5,14,10,19,8,20,13,4
151.97,9,24,15,49,13,0,18,8
151.97,16,28,38,29,13,12,100,2
151.98,24,45,14,12,4,2,2,18
151.99,2,2,17,36,26,35,11,16
151.99,5,12,45,32,19,13,49,8
152,21,38,6,59,37,2,17,18
152,2,14,5,33,11,6,0,6
152,1,16,12,7,8,21,77,25
152.01,2,5,12,24,0,19,44,3
152.01,3,9,17,32,10,3,24,6
152.02,4,4,5,26,15,16,10,14
152.03,12,32,7,23,2,15,23,18
152.03,2,5,3,1,2,4,41,4
152.03,1,10,67,16,5,3,3,12
152.04,8,9,26,31,0,6,12,6
152.04,0,6,5,4,2,3,58,9
152.05,3,5,10,7,11,19,15,19
152.06,2,4,12,32,2,15,21,8
152.06,7,14,25,7,1,5,59,3
152.06,4,5,10,1,10,6,19,1
152.07,1,16,5,30,7,14,22,5
152.07,3,0,51,32,16,12,12,5
152.08,1,6,20,25,5,1,8,1
152.09,1,1,7,2,11,6,70,22
152.09,2,3,5,7,3,4,19,17
152.09,3,11,29,11,7,10,9,3
152.1,1,17,17,15,13,12,19,9
152.1,12,26,28,12,29,23,40,19
152.11,10,16,17,25,9,8,10,5
152.12,0,3,11,19,8,1,12,5
152.12,4,5,5,8,15,6,21,13
152.12,7,13,21,0,23,16,55,10
152.13,8,19,3,5,1,5,2,4
152.13,1,2,12,2,3,8,8,8
152.14,3,7,7,3,4,0,19,0
152.15,5,14,1,5,2,6,25,2
152.15,2,1,13,26,10,1,1,5
152.16,1,12,12,24,15,4,6,0
152.16,3,2,9,6,6,4,9,1
152.16,0,3,0,4,4,3,1,0
152.17,1,5,74,40,12,7,8,5
152.18,6,7,28,20,2,5,12,8
152.18,3,9,14,13,10,3,12,1
152.19,3,2,29,12,2,2,38,4
152.19,1,8,30,6,10,6,0,3
152.19,2,10,12,26,3,3,4,2
152.2,0,19,19,52,19,10,22,2
152.21,2,0,3,14,11,11,13,1
152.21,0,2,3,7,6,4,3,6
152.22,9,9,9,3,10,6,13,11
152.22,2,0,27,27,3,1,5,6
152.22,4,7,5,16,9,6,11,4
152.23,0,4,3,4,0,4,16,1
152.24,4,4,9,2,3,5,14,2
152.24,2,6,10,9,2,4,5,9
152.25,1,9,1,10,3,1,2,1
152.25,3,7,8,8,5,1,17,4
152.25,5,11,50,34,14,8,6,3
152.26,9,13,28,14,8,0,5,4
152.26,6,1,20,24,11,15,4,2
152.27,3,14,27,16,9,1,5,4
152.28,2,5,23,1,4,9,0,3
152.28,4,10,25,19,4,3,12,2
152.28,5,9,13,31,3,2,5,3
152.29,2,3,11,3,1,6,3,5
152.29,2,6,7,3,2,3,3,1
152.3,2,4,4,9,0,1,7,5
152.31,1,10,0,30,3,3,2,3
152.31,2,3,10,5,1,2,1,6
152.31,7,14,11,18,7,3,8,6
152.32,1,7,4,8,2,9,2,0
152.32,7,5,11,2,1,1,3,2
152.33,0,2,3,11,4,5,0,0
152.34,1,6,33,18,1,4,0,7
152.34,4,15,4,55,16,9,18,3
152.34,2,2,18,14,0,3,3,1
152.35,2,2,18,17,3,1,5,2
152.35,3,9,4,2,11,6,7,1
152.36,2,2,2,27,1,2,4,0
152.37,5,9,17,27,8,1,5,1
152.37,7,19,5,31,18,5,16,7
152.38,6,8,3,13,10,4,18,1
152.38,11,22,23,47,24,14,10,4
152.38,9,15,23,13,14,2,7,4
152.39,7,0,22,23,4,9,5,7
152.4,9,17,46,28,14,6,11,2
152.4,3,1,11,42,7,0,14,12
152.41,1,4,1,10,8,9,8,1
152.41,4,18,9,35,17,9,12,6
152.41,8,15,7,8,15,8,6,8
152.42,3,3,25,82,13,3,1,3
152.43,4,14,4,66,19,15,12,1
152.43,10,11,40,33,9,0,7,1
152.44,8,4,39,5,3,8,9,5
152.44,4,6,46,13,11,0,6,5
152.44,3,10,6,57,15,6,4,0
152.45,1,1,5,12,6,5,4,2
152.46,5,1,17,21,2,3,2,4
152.46,11,17,10,107,51,26,20,7
152.47,17,31,18,60,82,38,42,9
152.47,5,9,19,31,3,8,1,5
152.47,3,0,5,13,3,5,5,2
152.48,9,19,33,34,21,15,11,2
152.49,1,1,11,7,20,16,7,1
152.49,2,9,54,14,4,3,1,2
152.5,9,34,70,52,25,15,8,4
152.5,11,31,34,15,6,1,22,7
152.5,3,9,39,36,25,13,4,5
152.51,13,45,21,73,50,35,12,11
152.51,9,28,17,56,47,24,22,6
152.52,6,19,56,54,34,7,14,4
152.53,6,6,2,3,9,3,3,1
152.53,13,36,53,127,69,45,28,3
152.53,15,28,44,75,49,31,27,9
152.54,0,2,35,20,17,30,10,8
152.54,6,27,75,84,37,24,22,7
152.55,0,9,87,56,57,43,19,3
152.56,20,76,33,77,85,62,48,13
152.56,3,1,53,84,27,5,9,1
152.56,18,38,24,97,45,19,18,3
152.57,8,26,40,14,36,7,18,0
152.57,20,42,59,52,30,9,19,1
152.58,12,19,5,80,29,7,23,4
152.59,6,10,2,16,10,3,17,1
152.59,0,13,29,6,16,12,13,2
152.59,3,5,73,45,27,19,19,5
152.6,16,40,19,97,85,53,71,5
152.6,5,13,35,24,5,5,4,1
152.61,5,12,21,44,19,8,10,1
152.62,9,42,101,127,75,52,35,9
152.62,4,22,18,67,51,51,31,13
152.62,16,26,1,17,16,2,15,4
152.63,2,17,64,20,26,26,19,6
152.63,0,8,16,14,18,8,17,1
152.64,2,30,108,57,60,62,30,10
152.65,20,69,4,128,79,49,37,8
152.65,2,2,3,47,13,19,2,2
152.66,1,15,25,33,26,22,9,4
152.66,11,44,69,33,8,0,1,4
152.66,2,2,75,69,23,17,8,4
152.67,2,4,48,19,3,5,8,0
152.68,1,0,81,49,6,8,3,0
152.68,5,47,45,10,13,15,7,10
152.69,13,36,18,70,46,22,21,2
152.69,11,28,43,28,11,7,1,5
152.69,30,64,85,97,101,49,55,6
152.7,4,23,11,104,49,24,27,4
152.71,29,58,37,113,71,21,34,7
152.71,9,15,51,43,56,39,39,13
152.72,18,27,18,13,3,9,2,4
152.72,5,3,3,12,10,8,2,3
152.72,12,40,1,100,44,22,23,1
152.73,12,43,58,93,78,37,44,6
152.74,32,36,61,67,80,48,62,4
152.74,10,34,52,21,17,8,10,3
152.75,11,3,10,95,23,28,4,6
152.75,21,38,31,86,32,8,15,0
152.75,19,43,4,32,10,5,18,2
152.76,5,34,49,76,54,43,32,10
152.76,9,24,55,9,45,14,31,8
152.77,10,39,31,44,10,17,6,2
152.78,6,14,6,51,16,21,4,3
152.78,9,39,8,104,58,41,30,9
152.78,18,29,32,55,56,32,24,3
152.79,21,42,86,17,8,5,10,2
152.79,10,28,34,77,44,21,20,0
152.8,6,35,3,17,19,18,9,3
152.81,34,73,69,72,74,28,40,2
152.81,24,56,50,75,83,44,63,8
152.81,9,20,124,63,18,1,15,1
152.82,2,6,6,93,58,25,27,1
152.82,13,37,43,26,27,13,18,7
152.83,6,31,62,25,19,11,17,8
152.84,25,53,41,127,81,45,39,2
152.84,8,36,18,3,3,1,4,5
152.84,8,10,33,3,11,15,1,10
152.85,12,48,54,60,24,20,5,7
152.85,25,80,66,79,74,38,42,6
152.86,16,36,61,69,37,14,24,1
152.87,3,12,27,121,25,2,10,1
152.87,16,53,21,31,22,15,15,3
152.88,16,48,70,25,46,23,29,2
152.88,13,6,91,44,67,28,50,6
152.88,7,15,30,7,23,6,6,5
152.89,14,48,36,77,67,32,28,3
152.9,30,70,55,99,85,50,61,7
152.9,11,9,7,65,26,4,19,4
152.91,16,19,1,35,9,10,16,3
152.91,8,15,1,14,50,36,39,5
152.91,8,13,64,6,31,43,32,20
152.92,14,47,102,76,66,33,33,4
152.93,14,38,46,90,75,33,44,6
152.93,13,46,27,26,3,0,2,1
152.94,17,37,52,10,11,0,4,3
152.94,10,17,26,21,15,6,0,2
152.94,22,44,24,93,65,20,44,2
152.95,11,35,61,48,19,12,3,2
152.96,32,92,105,85,82,24,43,0
152.96,33,62,67,105,77,47,35,0
152.97,16,24,46,11,5,15,8,8
152.97,9,23,16,10,7,9,9,4
152.97,1,7,52,8,11,6,9,4
152.98,8,53,67,37,34,27,19,18
152.99,9,18,84,60,34,23,10,2
152.99,4,7,43,9,13,11,6,3
153,17,41,40,50,53,25,28,3
153,1,15,32,16,3,14,6,1
153,4,14,5,45,9,1,4,3
153.01,0,12,75,15,5,15,2,8
153.01,5,16,39,30,20,12,2,2
153.02,19,40,103,23,32,8,13,4
153.03,12,33,5,41,23,10,4,2
153.03,12,40,6,35,5,10,6,6
153.03,10,31,29,89,46,28,26,0
153.04,4,4,16,44,4,5,1,1
153.04,25,35,53,51,2,3,11,5
153.05,0,4,10,9,26,27,7,7
153.06,2,14,35,64,33,17,18,7
153.06,10,46,32,112,82,47,28,3
153.06,1,26,68,33,13,36,30,6
153.07,0,19,60,74,22,7,6,0
153.07,4,13,7,54,15,0,3,2
153.08,21,51,13,39,42,36,26,3
153.09,2,8,1,2,10,5,1,5
153.09,12,30,50,58,23,8,8,2
153.09,9,20,112,27,4,6,12,1
153.1,15,42,19,38,29,15,12,3
153.1,4,8,40,1,15,16,4,6
153.11,21,38,44,14,7,5,3,3
153.12,13,34,119,2,53,21,49,1
153.12,2,3,22,25,4,7,25,4
153.12,5,1,4,2,5,5,8,6
153.13,9,30,13,10,25,24,14,9
153.13,2,17,28,26,1,3,2,7
153.14,4,7,35,16,5,4,6,3
153.15,22,51,64,44,42,15,26,14
153.15,10,20,25,2,20,2,14,8
153.16,0,3,7,6,3,0,10,4
153.16,2,5,11,13,12,14,14,5
153.16,6,5,44,4,9,21,30,2
153.17,2,11,34,33,22,22,16,4
153.18,4,13,19,28,5,4,8,3
153.18,27,79,57,13,49,24,19,6
153.19,8,2,17,36,24,17,44,6
153.19,2,13,1,6,6,2,19,8
153.19,2,25,4,14,14,14,48,7
153.2,5,0,21,2,1,7,4,6
153.21,3,1,23,17,4,5,18,1
153.21,5,3,15,43,17,3,27,1
153.22,9,11,3,37,15,4,74,3
153.22,10,21,21,8,3,11,24,5
153.22,6,13,20,12,3,3,30,0
153.23,8,10,7,16,13,6,28,4
153.24,4,4,31,9,6,9,34,2
153.24,2,3,28,10,5,6,0,4
153.25,1,9,9,32,28,16,20,0
153.25,1,1,28,22,30,28,16,16
153.25,1,4,15,6,5,12,34,6
153.26,5,6,4,22,9,11,17,4
153.26,6,18,12,19,11,3,11,0
153.27,5,12,12,1,18,30,35,17
153.28,18,21,13,2,20,40,97,22
153.28,14,31,30,10,14,3,79,4
153.28,11,24,12,36,29,9,6,5
153.29,5,3,14,25,14,10,28,2
153.29,4,6,5,1,17,23,45,0
153.3,5,3,5,8,4,5,67,12
153.31,5,10,6,29,19,20,29,17
153.31,9,7,10,11,1,0,1,3
153.31,3,4,31,23,1,5,23,6
153.32,3,5,18,6,9,14,7,5
153.32,10,16,5,4,4,0,20,1
153.33,8,34,12,10,19,2,32,1
153.34,4,11,28,1,16,6,24,7
153.34,4,13,25,12,7,7,4,0
153.34,13,19,4,16,2,2,15,2
153.35,13,35,13,15,17,2,61,12
153.35,6,2,14,5,4,7,23,12
153.36,3,5,40,5,1,2,5,5
153.37,0,2,9,5,4,6,12,7
153.37,4,11,18,2,1,1,10,3
153.38,9,14,22,11,2,2,22,3
153.38,3,0,5,17,4,2,42,3
153.38,3,5,24,29,6,12,72,3
153.39,9,14,5,63,30,33,68,3
153.4,10,4,3,14,2,0,0,8
153.4,7,20,21,6,3,3,9,2
153.41,2,6,20,23,12,14,1,2
153.41,3,2,13,20,11,14,26,2
153.41,5,15,6,9,4,1,27,11
153.42,5,8,3,1,11,10,47,13
153.43,16,13,48,2,0,2,8,2
153.43,4,12,94,29,3,1,24,6
153.44,21,15,19,4,2,0,1,3
153.44,18,4,25,37,19,12,14,4
153.44,11,7,14,19,16,10,25,3
153.45,1,22,10,47,15,5,14,23
153.46,1,9,37,16,10,1,9,7
153.46,0,10,5,8,17,20,10,13
153.47,14,29,15,9,20,30,45,21
153.47,7,6,19,4,4,1,2,12
153.47,1,1,7,19,5,1,0,5
153.48,1,5,45,5,6,2,7,4
153.49,17,23,28,21,5,1,7,2
153.49,0,12,0,6,5,14,17,3
153.5,14,0,5,7,2,6,6,7
153.5,8,7,22,8,1,1,8,7
153.5,4,0,28,19,13,2,23,4
153.51,3,15,29,14,3,9,6,8
153.51,11,5,7,21,6,0,9,13
153.52,13,14,40,56,19,4,22,3
153.53,18,48,114,108,59,23,30,1
153.53,9,27,56,52,20,9,17,6
153.53,14,16,16,14,4,6,7,1
153.54,5,1,14,48,13,4,7,4
153.54,3,2,29,43,12,6,7,1
153.55,2,4,4,16,6,8,4,1
153.56,6,7,12,5,3,2,9,5
153.56,8,14,3,52,18,14,7,0
153.56,11,25,74,38,10,1,1,1
153.57,9,23,29,54,21,16,0,2
153.57,8,13,34,20,1,0,18,8
153.58,8,0,19,1,0,2,11,5
153.59,1,1,19,31,6,11,3,1
153.59,1,3,13,14,6,6,12,4
153.59,2,3,13,14,8,5,3,1
153.6,1,3,5,41,18,14,12,2
153.6,5,12,0,7,6,4,10,2
153.61,5,12,4,5,12,5,9,2
153.62,2,0,17,8,1,1,6,5
153.62,4,9,26,33,16,9,15,5
153.62,3,16,18,23,14,11,13,2
153.63,3,14,13,31,6,7,7,7
153.63,8,21,59,26,18,2,13,2
153.64,5,11,41,10,3,5,7,3
153.65,5,1,2,28,3,10,3,5
153.65,4,1,5,15,6,3,8,3
153.66,6,12,2,9,1,6,0,4
153.66,1,0,7,2,2,0,13,2
153.66,3,1,13,9,3,7,2,9
153.67,2,2,5,25,4,0,10,3
153.68,1,3,11,56,14,7,6,1
153.68,0,5,7,12,2,5,10,1
153.69,1,1,1,22,3,5,4,3
153.69,0,1,5,9,4,0,3,2
153.69,3,5,5,3,11,7,6,3
153.7,4,12,1,9,8,3,2,4
153.71,1,2,12,38,15,11,16,5
153.71,1,2,22,57,22,6,10,14
153.72,5,13,21,2,5,9,8,0
153.72,15,20,14,48,16,1,4,3
153.72,2,8,32,27,1,5,5,6
153.73,6,9,20,27,13,4,3,3
153.74,9,26,27,34,12,2,8,3
153.74,4,8,18,35,8,5,1,2
153.75,9,18,2,43,16,6,2,3
153.75,11,21,15,3,1,7,3,4
153.75,6,18,17,32,10,4,4,7
153.76,6,1,17,2,1,1,3,3
153.76,8,23,5,35,8,2,3,1
153.77,6,18,18,32,26,19,25,2
153.78,1,11,4,10,3,2,23,3
153.78,3,4,6,14,10,5,6,11
153.78,1,1,14,16,1,2,3,5
153.79,9,4,1,19,10,2,8,1
153.79,10,14,26,12,4,4,10,4
153.8,2,7,5,17,5,5,3,0
153.81,9,3,11,15,12,2,15,7
153.81,5,4,17,38,17,8,11,1
153.81,3,8,13,4,1,4,6,7
153.82,5,4,20,12,5,2,1,6
153.82,1,12,24,59,11,11,6,3
153.83,11,30,45,110,52,29,25,0
153.84,7,3,8,73,17,6,7,2
153.84,6,9,3,10,1,6,2,3
153.84,5,4,4,21,9,3,4,4
153.85,11,8,35,34,16,0,6,8
153.85,1,3,4,26,8,8,1,4
153.86,1,3,8,1,3,6,2,8
153.87,1,1,6,4,1,2,5,5
153.87,6,15,26,44,28,11,14,2
153.88,5,10,22,36,20,12,23,5
153.88,4,8,12,16,0,8,13,7
153.88,6,3,8,12,12,10,16,6
153.89,0,4,29,35,9,10,4,2
153.9,2,6,20,4,1,5,5,1
153.9,11,21,25,9,1,2,1,2
153.91,2,6,2,52,18,8,5,5
153.91,4,25,38,35,21,7,7,2
153.91,5,15,0,2,5,4,6,0
153.92,9,15,1,19,17,4,15,3
153.93,2,1,4,4,1,4,6,1
153.93,0,14,3,65,26,11,8,3
153.94,14,25,17,13,4,4,1,2
153.94,1,0,39,88,24,9,12,2
153.94,10,30,40,3,10,11,11,2
153.95,11,22,25,50,0,2,7,1
153.96,12,11,5,47,15,17,4,5
153.96,17,29,48,72,19,3,5,9
153.97,0,4,1,16,9,9,7,2
153.97,12,14,21,23,28,19,17,8
153.97,3,13,4,28,22,9,12,1
153.98,3,1,9,20,0,5,5,0
153.99,1,1,8,24,1,2,3,3
153.99,3,11,11,11,3,2,5,0
154,4,11,0,8,0,5,3,5
154,2,5,28,21,10,17,4,6
154,7,8,38,48,8,2,1,5
154.01,5,21,97,49,16,3,16,1
154.01,8,11,23,95,30,23,23,7
154.02,7,6,12,39,19,8,6,4
154.03,1,0,3,1,2,2,8,2
154.03,24,53,25,30,30,9,14,0
154.03,10,35,87,74,38,17,21,2
154.04,16,30,110,67,9,4,12,1
154.04,1,7,12,99,38,20,13,3
154.05,28,78,127,127,74,20,40,1
154.06,11,1,73,31,20,26,6,4
154.06,10,7,105,36,42,48,23,16
154.06,13,51,95,127,86,53,32,9
154.07,40,105,86,128,78,41,29,3
154.07,1,9,93,114,26,5,21,2
154.08,21,85,99,127,84,62,27,7
154.09,34,90,63,128,81,48,42,9
154.09,42,86,58,127,77,18,44,5
154.09,23,71,65,107,63,16,15,0
154.1,20,29,6,23,24,7,25,5
154.1,34,65,73,115,55,28,41,2
154.11,5,16,93,59,44,27,23,4
154.12,9,19,54,24,1,9,10,7
154.12,1,4,50,63,15,15,11,1
154.12,19,14,52,22,36,21,14,10
154.13,22,75,28,83,57,30,15,8
154.13,28,43,81,81,39,21,15,2
154.14,3,13,50,45,17,4,19,3
154.15,15,26,99,80,1,2,14,5
154.15,50,89,41,11,53,21,22,1
154.16,23,66,22,57,39,5,16,2
154.16,28,47,58,58,11,18,6,8
154.16,22,55,49,128,91,57,48,8
154.17,13,42,102,118,88,52,47,12
154.18,39,70,42,70,27,32,27,15
154.18,25,32,108,111,74,22,34,1
154.19,14,28,48,34,32,24,30,8
154.19,10,33,74,14,2,14,8,3
154.19,10,21,9,7,9,15,8,1
154.2,31,69,81,105,66,30,39,1
154.21,4,3,52,36,29,15,18,3
154.21,46,92,8,58,71,33,37,6
154.22,22,36,26,26,3,2,2,8
154.22,4,35,17,96,42,33,16,5
154.22,27,39,22,76,37,14,35,6
154.23,29,81,17,83,40,5,6,6
154.24,14,9,77,77,58,39,21,10
154.24,13,36,16,50,14,43,5,15
154.25,4,8,40,76,45,26,16,5
154.25,20,49,51,33,75,71,56,9
154.25,28,43,127,44,36,53,33,22
154.26,18,32,40,81,53,19,26,1
154.26,4,21,44,36,43,17,3,3
154.27,33,74,65,79,82,75,60,12
154.28,16,5,91,45,0,6,9,6
154.28,16,25,114,94,2,23,8,1
154.28,34,53,96,54,8,36,5,14
154.29,11,1,23,90,17,17,1,8
154.29,15,0,30,63,53,50,29,5
154.3,3,13,85,104,101,66,43,14
154.31,30,30,75,8,23,34,24,17
154.31,11,34,25,1,21,18,6,1
154.31,33,93,71,87,88,57,29,8
154.32,11,15,10,95,22,4,3,1
154.32,26,44,2,25,50,12,32,1
154.33,4,7,7,13,18,8,6,2
154.34,28,65,74,127,101,63,44,1
154.34,4,4,62,128,67,35,32,11
154.34,21,48,51,4,35,46,22,9
154.35,3,12,32,24,25,12,14,0
154.35,24,39,10,48,17,0,8,1
154.36,38,83,97,35,22,11,13,1
154.37,9,4,8,15,5,6,9,1
154.37,2,11,17,75,2,6,5,4
154.38,35,49,94,99,49,10,23,2
154.38,34,98,38,15,4,17,41,6
154.38,10,13,23,11,0,13,48,5
154.39,21,19,7,12,15,13,25,2
154.4,6,5,50,4,6,7,14,7
154.4,14,49,37,5,1,1,12,12
154.41,19,55,110,50,43,25,38,13
154.41,69,63,16,98,98,86,77,10
154.41,6,28,7,43,23,25,4,1
154.42,6,33,74,104,52,31,12,4
154.43,2,2,23,45,27,4,19,2
154.43,5,24,12,54,17,12,7,8
154.44,8,11,24,27,33,11,5,3
154.44,42,100,24,116,75,33,57,1
154.44,3,7,42,20,22,13,25,9
154.45,26,30,52,75,36,20,25,2
154.46,33,80,23,117,89,39,53,6
154.46,11,28,35,12,34,22,12,7
154.47,18,27,21,26,14,1,17,1
154.47,4,3,22,0,4,3,6,11
154.47,22,26,68,67,36,15,12,1
154.48,1,18,6,36,13,14,9,1
154.49,2,1,18,27,9,8,18,8
154.49,8,13,8,21,6,5,26,1
154.5,7,21,14,59,24,20,3,6
154.5,7,3,33,23,7,8,22,6
154.5,15,14,40,11,4,7,23,11
154.51,7,12,45,71,28,13,17,3
154.51,15,46,57,28,5,1,22,7
154.52,6,4,46,21,1,9,1,1
154.53,3,0,20,25,0,2,3,0
154.53,7,8,79,6,4,7,9,6
154.53,26,55,91,2,38,17,34,18
154.54,10,4,80,115,14,6,12,4
154.54,5,28,5,15,20,11,65,7
154.55,0,22,6,24,22,7,89,13
154.56,5,7,56,11,18,2,33,1
154.56,14,21,13,11,4,7,13,2
154.56,14,30,31,13,14,2,36,1
154.57,13,42,36,82,42,16,81,1
154.57,1,36,10,70,30,15,31,4
154.58,9,37,6,58,32,12,4,0
154.59,16,27,45,2,3,5,6,6
154.59,8,10,2,7,5,5,4,8
154.59,8,15,10,19,27,14,3,2
154.6,3,11,20,17,12,7,3,0
154.6,36,59,63,59,36,20,37,1
154.61,13,44,59,24,27,19,37,3
154.62,21,11,1,64,4,21,2,16
154.62,10,8,8,2,3,7,9,8
154.62,1,2,39,15,3,4,18,7
154.63,1,2,20,7,0,2,39,0
154.63,3,16,17,7,11,14,35,6
154.64,3,2,6,7,8,5,30,4
154.65,6,10,5,12,8,7,24,4
154.65,12,25,4,28,19,15,11,7
154.66,4,2,8,6,3,8,32,12
154.66,6,6,10,13,5,6,15,8
154.66,11,19,11,41,18,7,10,1
154.67,1,4,9,12,3,2,16,2
154.68,3,7,8,8,12,14,6,10
154.68,1,3,2,9,1,2,2,0
154.69,4,5,17,6,3,4,19,5
154.69,8,0,8,32,12,10,22,1
154.69,1,6,39,25,20,18,18,1
154.7,2,17,52,19,16,17,14,3
154.71,7,20,26,110,51,17,33,5
154.71,9,0,23,19,13,12,14,3
154.72,0,8,16,25,14,10,6,0
154.72,2,2,3,2,4,2,0,1
154.72,2,13,11,43,19,13,1,1
154.73,18,37,79,70,36,11,8,3
154.74,4,9,18,26,4,8,28,5
154.74,6,13,23,2,1,5,1,7
154.75,1,2,16,17,7,6,13,1
154.75,1,2,4,17,5,1,20,1
154.75,7,11,35,11,6,16,29,4
154.76,19,39,0,6,15,7,78,11
154.76,6,2,10,18,11,27,25,17
154.77,10,12,13,14,4,7,22,7
154.78,1,4,0,24,5,5,17,1
154.78,1,0,11,2,9,2,2,0
154.78,7,13,0,30,6,1,13,2
154.79,5,13,8,8,6,3,9,1
154.79,3,6,17,9,7,4,1,4
154.8,2,22,42,54,21,12,11,1
154.81,10,46,57,77,54,33,31,4
154.81,5,2,5,33,3,5,2,4
154.81,2,1,3,18,3,0,2,6
154.82,1,3,3,3,0,0,10,7
154.82,3,16,24,41,23,20,4,5
154.83,5,5,23,23,4,2,31,5
154.84,3,6,2,11,3,6,17,5
154.84,8,24,22,13,12,12,7,2
154.84,7,3,7,20,11,2,10,15
154.85,1,5,21,8,11,3,22,6
154.85,1,9,0,13,0,2,15,2
154.86,9,26,10,6,13,2,62,4
154.87,6,7,3,6,11,3,5,8
154.87,2,15,16,18,7,5,3,4
154.88,9,21,0,8,13,2,88,4
154.88,7,10,10,25,9,10,43,0
154.88,4,16,8,16,11,6,12,6
154.89,5,5,27,5,12,2,16,5
154.9,8,14,15,14,10,1,27,2
154.9,1,8,3,12,1,9,13,2
154.91,3,3,17,21,5,9,7,3
154.91,1,4,6,15,1,5,4,0
154.91,2,0,1,23,5,3,14,1
154.92,5,5,12,33,14,7,16,3
154.93,2,3,45,0,3,8,6,1
154.93,4,7,25,20,17,18,30,4
154.94,8,12,8,15,19,23,23,11
154.94,0,1,5,12,0,5,9,2
154.94,2,0,32,1,4,8,10,8
154.95,3,4,6,16,2,7,6,1
154.96,10,18,11,9,2,0,1,14
154.96,1,3,3,5,4,6,8,3
154.97,10,9,15,10,7,6,53,9
154.97,1,4,7,4,2,0,10,3
154.97,5,12,16,2,3,2,4,4
154.98,5,7,5,11,7,6,10,2
154.99,2,1,11,4,1,2,7,3
154.99,5,2,8,17,2,1,1,1
155,2,3,21,9,3,2,2,5
155,2,2,15,30,6,3,7,4
155,7,7,5,3,0,7,8,3
155.01,3,8,11,9,6,9,15,7
155.01,4,14,6,11,16,15,33,6
155.02,10,14,6,6,7,0,16,4
155.03,1,3,6,12,2,5,10,1
155.03,3,3,18,12,2,5,2,4
155.03,13,20,14,22,16,1,27,1
155.04,1,6,13,9,3,2,11,5
155.04,5,3,2,8,4,10,1,1
155.05,2,2,19,14,2,3,25,3
155.06,2,7,2,1,1,1,14,3
155.06,4,6,9,1,2,6,6,1
155.06,2,2,2,16,3,6,11,2
155.07,1,2,38,45,7,5,15,4
155.07,1,3,35,8,1,4,9,2
155.08,1,6,10,16,4,1,5,2
155.09,1,5,5,2,2,4,9,3
155.09,3,6,6,12,2,7,7,1
155.09,2,2,8,17,9,10,2,5
155.1,1,1,19,20,1,1,4,0
155.1,4,12,10,37,2,2,3,1
155.11,2,6,19,1,13,5,0,5
155.12,6,16,38,85,30,11,13,3
155.12,6,3,14,56,11,3,12,6
155.12,2,19,17,36,20,14,16,2
155.13,4,31,8,51,36,13,37,9
155.13,6,11,41,9,3,3,9,2
155.14,11,13,45,82,23,18,18,5
155.15,0,3,11,4,3,1,9,1
155.15,1,6,5,36,4,2,11,6
155.16,6,10,35,59,27,11,15,1
155.16,7,11,13,12,3,8,8,3
155.16,13,33,30,33,12,7,4,6
155.17,0,8,5,6,0,3,14,2
155.18,0,5,63,16,19,17,11,8
155.18,10,34,13,110,60,36,34,11
155.19,4,26,105,87,67,40,30,16
155.19,7,21,67,81,24,3,14,2
155.19,2,11,1,61,26,17,11,3
155.2,6,11,2,7,15,8,10,4
155.21,3,10,21,30,4,9,1,5
155.21,11,10,19,36,5,7,4,4
155.22,1,6,7,4,4,8,4,1
155.22,1,9,9,21,5,7,6,4
155.22,18,12,31,9,21,24,5,4
155.23,12,4,101,2,55,32,27,4
155.24,6,16,30,53,25,1,26,2
155.24,7,12,54,32,8,3,7,7
155.25,4,2,25,54,8,5,12,2
155.25,22,10,19,74,18,8,73,0
155.25,6,4,22,8,2,5,17,5
155.26,0,7,28,23,6,9,2,6
155.26,12,37,39,3,23,22,14,4
155.27,7,27,21,39,5,5,24,2
155.28,2,3,50,76,22,11,20,2
155.28,6,0,28,16,6,3,10,7
155.28,2,8,36,31,2,3,15,1
155.29,1,17,54,44,27,18,8,1
155.29,18,79,54,95,49,15,25,1
155.3,8,31,51,65,8,17,70,1
155.31,6,2,32,10,4,5,10,2
155.31,2,2,0,51,5,5,32,6
155.31,8,42,6,107,54,31,4,7
155.32,5,27,2,40,28,4,45,9
155.32,3,1,14,54,10,13,4,3
155.33,4,20,25,26,24,14,20,0
155.34,2,17,4,24,9,10,6,2
155.34,2,30,11,6,7,11,15,2
155.34,12,30,7,49,39,23,28,6
155.35,7,21,28,17,28,14,20,3
155.35,3,5,15,19,19,21,17,1
155.36,1,19,17,104,31,16,1,4
155.37,3,8,31,8,7,10,7,4
155.37,3,9,21,50,3,18,5,4
155.38,1,8,10,4,0,1,10,2
155.38,2,9,6,4,9,5,9,2
155.38,4,17,18,58,14,9,11,4
155.39,4,20,12,18,11,4,9,2
155.4,2,25,63,17,6,24,1,7
155.4,29,47,74,128,58,9,19,11
155.41,1,5,4,37,10,11,9,3
155.41,21,69,72,127,93,47,43,2
155.41,42,92,79,117,115,57,38,4
155.42,19,37,74,50,19,9,12,12
155.43,4,0,23,25,9,6,6,3
155.43,3,5,40,63,33,19,21,3
155.44,7,11,11,22,7,3,5,8
155.44,1,4,11,37,22,4,21,2
155.44,7,21,77,3,23,9,12,4
155.45,15,36,39,85,47,20,14,1
155.46,58,66,28,56,50,40,39,1
155.46,18,11,7,23,41,18,30,1
155.47,1,10,103,84,14,16,4,11
155.47,4,14,44,66,17,5,10,5
155.47,33,64,64,113,56,39,36,1
155.48,2,18,19,53,56,47,34,13
155.49,3,13,12,8,12,9,7,0
155.49,43,77,20,6,56,10,33,5
155.5,6,9,33,50,46,49,27,15
155.5,11,29,65,94,50,36,22,4
155.5,21,28,92,32,5,25,4,6
155.51,16,5,59,33,44,59,19,18
155.51,15,64,57,94,72,59,32,13
155.52,11,28,9,46,29,0,16,0
155.53,1,7,38,46,4,16,8,1
155.53,4,6,8,16,7,5,1,1
155.53,17,40,89,20,17,3,6,5
155.54,35,60,58,91,42,1,23,12
155.54,18,51,75,81,46,33,13,4
155.55,52,96,65,71,53,33,27,1
155.56,40,94,25,75,72,15,35,1
155.56,4,47,93,75,40,31,4,9
155.56,1,6,30,27,25,16,11,4
155.57,34,55,107,85,12,12,9,2
155.57,5,29,115,15,40,7,19,9
155.58,12,21,101,122,38,12,6,1
155.59,27,60,30,66,55,23,26,3
155.59,5,28,47,95,62,42,34,6
155.59,59,127,84,127,97,27,6,8
155.6,23,58,27,66,31,38,22,5
155.6,33,54,82,66,42,26,17,2
155.61,32,80,14,124,70,32,44,3
155.62,28,51,65,105,61,10,4,6
155.62,11,27,48,83,28,4,26,1
155.62,13,15,62,90,39,18,31,8
155.63,21,46,71,48,9,23,6,16
155.63,16,47,22,71,35,12,25,3
155.64,19,69,27,83,42,39,19,0
155.65,14,45,85,33,63,38,32,9
155.65,3,44,2,6,6,7,10,5
155.66,10,25,53,29,1,2,2,2
155.66,8,34,75,47,6,1,6,6
155.66,17,59,90,82,11,10,8,0
155.67,29,90,104,109,51,48,17,3
155.68,0,21,50,51,10,5,0,2
155.68,8,1,60,34,28,23,12,14
155.69,18,54,29,12,53,39,27,0
155.69,7,21,70,68,63,47,24,7
155.69,20,1,3,65,49,38,24,6
155.7,5,1,5,62,5,13,10,1
155.71,10,10,7,15,4,10,6,5
155.71,18,48,55,115,54,32,23,1
155.72,43,82,37,97,71,43,52,4
155.72,9,26,13,11,3,8,5,3
155.72,3,8,44,10,14,4,7,4
155.73,3,6,24,95,58,39,16,1
155.74,3,16,30,84,30,10,3,1
155.74,9,7,63,67,13,5,1,2
155.75,14,37,62,35,32,18,18,9
155.75,18,43,43,6,4,7,6,3
155.75,10,23,46,58,42,26,23,3
155.76,24,35,53,19,12,17,1,11
155.76,3,2,0,29,11,6,1,5
155.77,12,23,89,52,58,15,36,10
155.78,11,17,7,37,8,14,6,10
155.78,2,4,21,34,8,7,4,0
155.78,11,24,28,27,20,8,26,5
155.79,12,36,73,0,21,10,16,5
155.79,5,21,23,17,9,2,6,0
155.8,18,35,34,56,20,13,10,1
155.81,13,12,8,47,11,6,2,1
155.81,1,1,29,9,5,1,3,1
155.81,6,6,26,22,2,8,9,3
155.82,4,1,35,5,13,12,3,3
155.82,12,26,25,20,14,4,5,2
155.83,34,66,85,73,52,19,32,4
155.84,0,16,94,14,37,43,37,5
155.84,9,8,31,55,6,6,21,6
155.84,5,4,31,15,4,18,10,0
155.85,3,0,56,20,17,15,13,2
155.85,19,44,30,20,11,20,26,2
155.86,1,14,48,41,13,8,2,3
155.87,7,23,41,8,11,4,9,2
155.87,52,101,57,99,62,25,53,3
155.88,24,43,21,24,22,12,47,6
155.88,3,5,1,11,2,8,20,3
155.88,7,22,10,8,13,9,18,12
155.89,12,35,13,31,27,13,24,1
155.9,5,1,31,1,8,6,0,6
155.9,5,7,10,24,4,3,10,0
155.91,4,0,21,5,7,3,7,11
155.91,3,8,6,5,9,10,3,2
155.91,29,63,48,106,66,30,31,3
155.92,6,5,26,41,61,42,42,7
155.93,10,28,13,46,8,2,85,3
155.93,9,7,14,40,8,2,88,3
155.94,12,16,9,34,12,4,7,5
155.94,4,10,41,3,8,15,27,8
155.94,4,19,7,12,8,1,13,3
155.95,20,8,11,34,4,7,92,1
155.96,34,84,36,19,38,3,113,1
155.96,3,24,10,6,32,42,55,12
155.97,13,32,17,21,14,8,11,1
155.97,9,33,17,10,33,85,15,31
155.97,4,2,11,9,3,4,112,4
155.98,2,9,11,0,7,1,29,3
155.99,13,19,13,8,6,12,7,6
155.99,3,8,7,4,22,39,14,12
156,10,2,69,54,21,1,48,4
156,3,45,50,74,45,33,0,3
156,7,19,11,30,32,11,15,4
156.01,5,5,27,5,16,14,42,10
156.01,2,12,24,18,6,2,20,4
156.02,3,1,23,35,19,17,30,2
156.03,17,48,24,32,26,13,64,20
156.03,7,20,7,2,0,6,73,16
156.03,6,15,34,7,7,19,59,5
156.04,8,13,8,15,8,17,128,12
156.04,2,7,28,19,4,5,66,6
156.05,8,18,47,5,2,9,4,10
156.06,9,11,6,21,0,1,3,2
156.06,10,21,1,80,34,12,50,0
156.06,6,5,37,27,22,8,36,10
156.07,10,20,33,62,21,12,12,13
156.07,8,13,26,4,5,14,98,6
156.08,9,12,3,6,3,27,88,11
156.09,2,16,25,52,19,7,4,9
156.09,1,2,19,57,13,4,11,11
156.09,13,22,15,43,21,19,20,17
156.1,3,10,1,15,16,10,3,7
156.1,6,10,8,5,13,9,17,3
156.11,10,6,6,27,24,14,7,5
156.12,1,8,35,61,4,3,27,3
156.12,3,5,16,4,3,2,29,6
156.12,15,24,29,15,25,22,88,12
156.13,11,7,4,18,0,5,44,10
156.13,2,9,1,32,12,11,73,3
156.14,3,6,8,22,20,11,19,2
156.15,4,2,37,5,4,11,46,21
156.15,14,26,23,4,8,3,53,17
156.16,11,7,23,4,7,9,11,6
156.16,1,0,8,11,2,6,6,1
156.16,2,14,29,20,13,13,0,8
156.17,10,11,16,9,8,4,15,8
156.18,9,10,9,1,0,7,23,5
156.18,13,12,51,11,4,6,25,3
156.19,6,11,7,4,1,6,4,7
156.19,8,12,18,30,9,4,23,2
156.19,8,1,23,10,3,6,2,3
156.2,0,23,25,61,30,18,10,5
156.21,1,15,16,27,18,12,20,4
156.21,1,9,21,12,6,5,2,2
156.22,9,9,2,21,2,2,4,1
156.22,5,0,8,18,5,4,2,12
156.22,9,25,6,10,1,12,23,3
156.23,4,28,4,3,16,14,54,2
156.24,8,23,6,48,19,4,22,12
156.24,15,36,0,19,14,3,43,28
156.25,2,2,6,1,2,8,28,3
156.25,5,1,4,26,11,9,0,3
156.25,1,14,19,24,10,1,11,0
156.26,2,10,5,41,11,11,4,4
156.26,0,9,6,30,19,9,13,0
156.27,0,7,4,15,6,2,2,6
156.28,10,8,7,18,9,6,23,1
156.28,7,18,26,42,23,12,28,3
156.28,17,36,43,62,29,15,33,10
156.29,8,11,11,32,11,5,14,2
156.29,3,0,2,9,1,2,3,3
156.3,3,8,1,16,10,6,8,3
156.31,4,0,8,20,2,1,12,4
156.31,4,0,5,3,4,0,14,2
156.31,4,8,22,48,8,3,26,3
156.32,14,29,60,97,33,17,9,1
156.32,13,23,16,30,14,5,2,4
156.33,1,5,5,9,8,3,3,8
156.34,0,4,4,7,1,0,8,1
156.34,2,7,2,12,7,4,3,12
156.34,0,0,5,10,1,3,14,4
156.35,3,0,5,0,6,8,17,0
156.35,1,1,8,38,4,4,15,1
156.36,7,8,29,48,20,7,7,4
156.37,1,6,26,5,13,19,16,3
156.37,10,11,16,39,21,10,20,1
156.38,13,23,9,53,15,0,6,2
156.38,2,0,6,13,5,6,8,1
156.38,2,2,2,9,3,4,3,1
156.39,6,7,9,16,10,7,1,2
156.4,1,2,6,4,2,2,7,3
156.4,5,8,10,12,10,5,1,0
156.41,5,8,8,2,0,2,2,0
156.41,3,4,1,7,5,3,3,0
156.41,3,1,5,8,3,3,4,0
156.42,3,11,0,17,9,12,6,2
156.43,6,13,4,25,17,8,14,3
156.43,13,25,2,40,28,13,21,6
156.44,1,2,9,4,3,2,16,1
156.44,0,6,4,12,4,4,14,1
156.44,5,4,14,13,2,1,4,2
156.45,5,9,16,11,8,2,10,2
156.46,1,3,23,33,12,6,2,0
156.46,4,4,2,16,13,5,13,1
156.47,5,14,5,3,4,2,10,1
156.47,4,13,26,18,11,13,3,4
156.47,4,13,41,53,4,0,5,5
156.48,0,5,14,28,1,1,1,1
156.49,1,2,39,30,2,12,2,3
156.49,2,6,2,11,3,7,11,4
156.5,1,12,18,29,9,8,13,1
156.5,8,15,21,34,12,6,7,0
156.5,8,18,55,21,11,7,19,2
156.51,14,19,10,25,0,7,29,1
156.51,10,15,31,3,6,11,10,8
156.52,8,24,22,73,27,15,35,2
156.53,10,20,31,47,33,7,20,2
156.53,18,49,64,69,55,35,21,6
156.53,9,17,41,38,4,2,3,2
156.54,0,4,9,38,4,4,17,1
156.54,15,43,21,127,70,42,36,1
156.55,25,41,3,77,78,29,32,1
156.56,4,4,14,6,14,12,10,6
156.56,15,55,30,71,69,58,36,17
156.56,4,7,6,18,25,13,17,6
156.57,13,10,1,32,29,19,15,1
156.57,4,4,3,8,13,8,9,2
156.58,3,17,6,5,19,16,4,1
156.59,15,31,37,47,19,10,17,1
156.59,17,38,28,15,12,3,12,6
156.59,22,38,11,69,41,19,17,4
156.6,3,17,23,22,25,16,12,3
156.6,2,6,22,6,3,8,5,4
156.61,9,40,21,46,37,31,14,11
156.62,14,42,88,90,38,21,20,5
156.62,32,72,10,113,77,32,40,3
156.62,20,38,85,54,24,15,15,3
156.63,14,46,23,127,75,53,37,4
156.63,5,19,1,128,42,22,9,4
156.64,2,1,74,48,8,9,20,5
156.65,0,9,82,14,20,11,5,8
156.65,8,29,81,76,51,23,25,12
156.66,2,5,9,59,17,14,4,9
156.66,7,26,5,37,24,16,15,2
156.66,5,25,0,4,17,12,2,4
156.67,1,5,42,104,43,17,17,4
156.68,23,33,26,61,17,37,20,11
156.68,4,20,52,96,26,5,8,1
156.69,5,8,52,21,17,8,17,3
156.69,15,28,30,75,13,10,19,2
156.69,2,7,18,46,32,21,9,2
156.7,10,7,78,39,28,36,14,6
156.71,33,71,15,51,21,34,5,12
156.71,2,2,31,5,9,1,4,1
156.72,13,25,42,13,18,3,10,1
156.72,12,15,28,38,25,3,8,5
156.72,27,60,55,73,50,9,23,0
156.73,3,1,38,50,30,16,8,3
156.74,9,26,55,24,7,1,12,3
156.74,9,21,48,67,24,18,6,3
156.75,4,2,12,36,7,1,2,1
156.75,24,53,47,116,35,12,16,1
156.75,17,18,72,48,2,15,2,11
156.76,5,2,25,8,2,2,4,5
156.76,3,6,61,79,58,34,17,5
156.77,20,42,70,80,2,38,7,14
156.78,2,24,8,114,47,26,16,5
156.78,2,4,37,50,21,19,12,6
156.78,28,66,53,111,79,55,44,7
156.79,34,81,29,109,85,40,41,5
156.79,7,6,15,17,3,10,2,4
156.8,17,31,14,3,8,7,3,4
156.81,22,42,47,3,15,5,6,3
156.81,4,12,5,5,12,16,5,1
156.81,11,35,80,35,48,29,23,6
156.82,3,28,17,16,19,12,9,4
156.82,17,29,57,69,7,2,3,1
156.83,18,49,59,59,26,1,16,4
156.84,9,32,59,8,22,13,7,0
156.84,5,3,37,44,28,3,14,1
156.84,3,4,8,39,17,16,4,5
156.85,31,73,79,111,81,52,37,4
156.85,31,96,56,105,102,67,63,19
156.86,1,15,31,96,34,2,20,3
156.87,2,4,45,35,17,16,8,7
156.87,10,55,53,26,44,35,6,10
156.88,3,10,92,21,7,7,7,0
156.88,8,26,40,42,3,9,3,2
156.88,16,26,26,4,11,7,2,3
156.89,52,80,40,86,87,21,44,5
156.9,11,20,45,31,31,11,10,3
156.9,13,50,96,73,12,12,3,3
156.91,18,49,9,51,25,10,2,2
156.91,18,76,95,84,83,31,46,6
156.91,10,83,81,41,40,21,9,9
156.92,5,66,32,56,31,17,9,5
156.93,10,15,58,2,15,10,9,4
156.93,9,34,43,26,1,3,0,1
156.94,13,84,76,16,6,4,4,5
156.94,17,22,28,27,2,1,3,3
156.94,1,26,55,4,9,6,12,4
156.95,21,18,98,57,73,15,48,5
156.96,21,127,24,37,41,35,27,14
156.96,21,87,12,55,10,30,15,10
156.97,13,35,36,44,30,12,15,5
156.97,6,7,37,34,20,10,5,6
156.97,22,15,12,51,48,34,25,6
156.98,7,40,17,74,24,21,19,8
156.99,18,26,24,64,10,3,6,9
156.99,7,33,10,112,45,57,26,10
157,11,42,43,16,34,43,36,4
157,0,19,15,85,20,2,3,0
157,26,42,6,54,9,11,15,1
157.01,11,54,99,78,53,19,25,3
157.01,1,16,3,47,13,3,1,3
157.02,2,26,20,47,17,10,12,7
157.03,0,10,59,54,13,1,4,1
157.03,14,38,33,14,23,7,6,1
157.03,6,33,34,21,46,19,20,0
157.04,3,21,27,53,20,4,3,1
157.04,2,22,59,77,16,1,2,7
157.05,1,35,67,16,26,44,29,10
157.06,57,96,118,49,60,23,29,10
157.06,17,63,38,72,49,5,9,0
157.06,7,8,13,5,9,3,2,2
157.07,2,5,33,16,32,10,17,5
157.07,20,21,11,98,62,35,31,4
157.08,16,48,39,29,25,12,7,7
157.09,11,31,24,97,12,6,1,2
157.09,5,31,58,56,2,16,3,8
157.09,3,3,3,81,5,11,0,3
157.1,4,33,51,72,11,11,1,1
157.1,1,36,83,39,6,13,3,7
157.11,25,99,38,24,44,19,18,9
157.12,4,6,24,15,0,2,0,8
157.12,17,8,65,100,24,13,12,8
157.12,32,67,29,31,15,2,11,6
157.13,37,90,36,128,43,39,20,6
157.13,2,68,28,110,35,28,22,10
157.14,1,25,48,13,18,15,2,3
157.15,15,25,76,31,12,10,1,5
157.15,44,103,13,38,35,7,18,5
157.16,45,70,31,68,31,19,26,2
157.16,6,71,11,104,25,37,5,8
157.16,15,89,1,64,2,2,3,0
157.17,10,23,52,85,20,16,5,3
157.18,23,42,37,75,103,36,20,3
157.18,2,30,80,20,4,21,1,3
157.19,1,35,38,91,37,15,8,8
157.19,53,118,57,28,56,30,40,5
157.19,45,48,97,51,28,22,3,13
157.2,4,82,83,95,4,1,10,2
157.21,6,5,11,108,49,41,14,6
157.21,26,9,70,1,17,3,8,2
157.22,28,20,68,45,12,8,2,4
157.22,7,26,37,49,4,26,8,8
157.22,5,23,17,39,30,3,12,7
157.23,6,27,4,33,4,6,10,1
157.24,18,76,22,66,11,7,6,4
157.24,37,55,24,50,10,4,5,3
157.25,12,87,24,38,9,4,6,1
157.25,11,3,55,61,16,11,12,3
157.25,2,34,19,86,8,9,6,9
157.26,10,48,41,52,19,19,24,1
157.26,26,16,14,65,25,12,13,4
157.27,3,27,12,39,23,16,15,0
157.28,2,50,6,64,1,11,2,0
157.28,7,64,66,69,26,22,25,8
157.28,0,90,48,6,18,16,6,7
157.29,1,59,54,28,25,19,5,8
157.29,2,10,23,67,9,6,11,11
157.3,20,8,108,26,25,16,10,1
157.31,7,65,50,8,16,5,12,8
157.31,3,38,7,37,0,10,13,3
157.31,13,23,40,45,19,23,15,4
157.32,0,11,2,2,5,0,4,3
157.32,11,48,70,57,31,18,9,5
157.33,1,5,74,25,18,13,5,1
157.34,14,12,0,12,0,4,6,2
157.34,4,2,21,0,8,5,3,1
157.34,3,14,18,43,17,16,11,3
157.35,4,5,16,29,7,12,9,6
157.35,10,47,0,52,28,12,7,2
157.36,6,5,23,45,20,14,10,1
157.37,8,1,29,59,13,3,17,7
157.37,8,7,10,58,15,3,9,4
157.38,0,10,65,61,12,4,51,4
157.38,5,2,24,16,16,8,80,9
157.38,2,12,28,10,1,12,17,8
157.39,8,17,14,35,11,12,12,5
157.4,12,16,10,24,15,5,35,1
157.4,1,2,15,14,5,1,22,3
157.41,1,3,13,17,5,3,10,5
157.41,0,5,14,11,1,10,13,1
157.41,2,5,9,6,3,8,24,7
157.42,5,4,2,10,6,7,39,2
157.43,8,60,8,14,7,4,75,2
157.43,6,18,11,14,15,23,13,1
157.44,7,31,13,17,14,16,65,6
157.44,1,4,6,19,3,9,63,3
157.44,14,1,18,7,0,0,37,2
157.45,6,9,16,24,14,1,22,11
157.46,7,11,0,3,15,18,30,22
157.46,4,18,4,3,8,15,79,17
157.47,17,4,19,26,10,7,91,7
157.47,10,22,10,46,9,1,49,0
157.47,6,5,27,17,20,16,71,9
157.48,15,12,58,4,7,24,12,11
157.49,12,5,24,8,6,12,7,3
157.49,11,13,7,7,9,6,47,14
157.5,6,32,31,24,16,8,27,2
157.5,10,56,9,10,8,7,36,8
157.5,5,8,64,24,12,5,33,12
157.51,1,4,3,13,7,10,10,1
157.51,10,1,16,9,19,22,50,30
157.52,3,54,14,5,25,23,94,13
157.53,9,26,10,11,10,5,79,1
157.53,5,23,22,4,9,11,39,8
157.53,13,13,58,70,23,16,32,7
157.54,20,19,85,35,6,8,39,4
157.54,5,14,31,12,17,15,46,6
157.55,12,32,9,12,18,10,125,4
157.56,11,18,16,17,3,13,2,8
157.56,3,2,14,3,5,8,33,4
157.56,5,20,17,5,4,3,41,10
157.57,4,23,36,41,7,4,26,1
157.57,6,41,7,29,9,7,76,3
157.58,2,20,7,5,13,11,66,0
157.59,6,16,3,8,6,0,40,1
157.59,1,63,8,14,1,8,12,3
157.59,8,4,30,38,9,5,1,8
157.6,10,34,43,27,12,1,15,3
157.6,6,5,21,60,15,4,28,3
157.61,6,13,17,9,12,8,35,10
157.62,3,4,2,12,3,10,33,8
157.62,0,17,14,21,4,1,22,10
157.62,6,35,15,8,5,5,0,4
157.63,10,25,18,22,27,19,14,3
157.63,1,15,3,1,13,10,20,8
157.64,7,27,22,7,6,1,58,0
157.65,5,17,3,9,13,10,17,4
157.65,5,17,7,15,3,1,6,8
157.66,9,9,35,44,17,15,21,2
157.66,5,5,34,70,21,5,2,2
157.66,3,28,4,26,12,2,14,2
157.67,2,19,3,5,7,7,7,2
157.68,1,24,9,46,14,8,9,2
157.68,2,11,29,70,20,10,9,1
157.69,3,4,4,8,10,5,14,2
157.69,8,1,3,23,7,3,7,0
157.69,0,10,2,30,12,7,3,8
157.7,4,14,8,23,8,1,12,2
157.71,1,2,18,10,12,1,27,7
157.71,7,14,22,1,3,7,7,1
157.72,3,6,27,10,1,0,12,5
157.72,5,5,12,22,5,4,19,2
157.72,2,16,17,8,1,0,16,1
157.73,4,14,2,4,3,1,13,3
157.74,1,10,19,14,10,7,20,10
157.74,4,9,11,33,16,3,38,5
157.75,4,10,8,11,8,8,26,0
157.75,2,9,8,11,7,0,5,2
157.75,1,1,2,10,4,5,11,3
157.76,1,1,5,12,6,3,4,5
157.76,1,5,6,17,3,2,3,3
157.77,0,0,8,1,4,0,2,1
157.78,2,1,31,36,3,1,7,1
157.78,3,7,44,50,11,5,6,7
157.78,2,3,38,65,17,6,5,3
157.79,3,4,13,30,4,6,4,4
157.79,3,2,14,6,2,2,3,2
157.8,3,2,38,24,4,7,1,1
157.81,9,22,7,76,47,32,25,4
157.81,2,0,7,40,18,7,8,3
157.81,4,1,18,0,6,6,4,0
157.82,9,15,18,25,11,2,10,0
157.82,2,4,7,28,14,10,3,1
157.83,4,8,6,16,5,8,16,3
157.84,2,1,5,26,11,8,13,7
157.84,10,17,30,32,3,2,2,1
157.84,3,6,38,24,4,0,3,3
157.85,0,5,1,9,3,8,4,3
157.85,2,3,10,15,13,9,12,4
157.86,2,6,45,29,4,10,4,1
157.87,3,13,58,20,13,18,8,7
157.87,1,0,29,55,6,6,7,1
157.88,0,9,4,14,5,7,3,3
157.88,2,6,3,2,5,4,4,3
157.88,3,11,29,115,31,13,15,2
157.89,12,27,93,22,10,3,10,0
157.9,4,11,22,29,23,11,3,1
157.9,8,14,49,40,2,13,2,4
157.91,4,1,19,13,11,5,6,1
157.91,0,3,0,11,5,4,6,1
157.91,4,5,19,38,15,16,7,5
157.92,8,20,31,16,18,2,8,0
157.93,1,7,28,20,0,1,4,1
157.93,9,11,5,7,8,13,10,7
157.94,1,2,24,24,14,5,6,1
157.94,8,27,47,69,23,18,9,1
157.94,5,14,14,39,23,14,10,4
157.95,0,5,47,17,2,11,2,0
157.96,3,1,21,39,42,37,26,10
157.96,1,2,19,26,21,8,5,4
157.97,1,10,26,46,18,17,7,3
157.97,2,10,54,39,18,7,10,3
157.97,9,23,27,30,12,10,0,2
157.98,11,27,61,14,32,16,14,4
157.99,11,25,28,46,4,17,3,9
157.99,9,10,4,21,4,8,3,4
158,1,10,37,88,24,16,9,3
158,2,10,3,44,12,9,12,7
158,7,9,2,43,8,8,0,3
158.01,7,3,8,26,7,9,1,5
158.01,17,27,5,15,12,0,8,6
158.02,0,7,9,21,8,0,11,3
158.03,3,6,29,31,5,0,24,1
158.03,1,15,18,39,11,9,0,8
158.03,5,8,31,23,14,1,2,1
158.04,17,50,63,57,37,30,18,1
158.04,50,93,30,128,106,86,72,17
158.05,2,28,63,127,52,21,16,9
158.06,5,7,52,15,19,30,10,5
158.06,2,18,0,44,56,34,22,9
158.06,18,40,5,113,55,32,37,1
158.07,19,48,3,128,55,19,26,1
158.07,14,31,39,39,11,3,20,2
158.08,5,27,63,119,88,56,34,11
158.09,6,17,37,93,49,20,10,3
158.09,16,39,23,76,14,2,10,5
158.09,1,9,71,43,35,17,10,5
158.1,26,56,23,43,49,24,35,5
158.1,0,20,5,7,28,34,7,4
158.11,4,2,0,47,30,25,6,4
158.12,19,35,64,58,38,14,16,5
158.12,21,36,92,127,45,2,23,3
158.12,33,90,80,108,100,53,47,3
158.13,38,79,83,128,128,74,83,6
158.13,9,7,54,98,24,6,2,7
158.14,10,6,39,39,8,2,2,5
158.15,18,53,85,70,36,27,21,1
158.15,28,84,110,16,60,10,16,2
158.16,0,33,84,67,20,11,5,6
158.16,4,4,17,42,12,17,16,4
158.16,24,45,36,44,46,0,12,2
158.17,16,41,36,110,88,53,49,6
158.18,12,30,58,3,38,35,27,11
158.18,19,41,7,47,6,15,12,1
158.19,8,26,28,100,43,25,16,5
158.19,12,28,82,43,48,25,14,9
158.19,5,18,46,51,15,1,8,1
158.2,3,18,22,91,43,24,11,3
158.21,9,46,19,69,7,23,5,6
158.21,7,47,77,9,74,5,12,12
158.22,40,81,41,27,4,26,22,1
158.22,3,12,71,21,15,11,12,6
158.22,7,10,81,55,23,19,7,5
158.23,3,49,89,48,11,4,17,1
158.24,18,65,45,95,18,19,17,0
158.24,6,14,32,72,53,32,11,12
158.25,5,21,3,0,11,5,7,1
158.25,10,33,30,81,64,24,29,5
158.25,19,47,30,15,12,26,8,0
158.26,5,50,28,6,18,34,20,7
158.26,3,12,1,81,7,2,4,0
158.27,5,28,7,27,2,6,3,1
158.28,48,87,76,67,39,13,28,4
158.28,14,26,74,29,13,11,15,1
158.28,7,25,16,8,14,6,14,1
158.29,1,42,31,103,34,11,12,1
158.29,8,47,34,66,27,46,14,11
158.3,60,80,128,57,46,4,28,9
158.31,17,12,73,127,29,11,11,10
158.31,17,24,68,54,10,11,10,0
158.31,26,56,65,12,11,8,6,1
158.32,3,35,21,76,51,50,30,3
158.32,21,28,5,97,85,63,48,6
158.33,4,5,26,36,16,4,5,1
158.34,32,112,68,4,28,0,15,2
158.34,45,48,72,87,54,23,24,1
158.34,36,117,67,107,103,25,26,3
158.35,14,25,39,76,30,2,8,0
158.35,22,62,60,4,12,10,4,4
158.36,44,28,36,11,57,10,25,5
158.37,8,56,10,18,35,14,5,3
158.37,11,80,56,128,74,37,31,4
158.38,3,15,16,61,20,27,23,5
158.38,12,62,66,46,49,8,18,3
158.38,22,67,19,2,32,5,8,2
158.39,6,14,16,36,26,5,9,4
158.4,22,49,10,104,66,47,31,4
158.4,7,19,38,19,21,22,10,0
158.41,2,18,29,3,23,16,3,6
158.41,5,5,68,40,18,25,1,3
158.41,4,1,49,44,22,2,4,5
158.42,13,24,70,64,50,35,25,3
158.43,4,19,12,14,37,20,8,7
158.43,19,5,57,30,14,5,8,3
158.44,26,54,74,55,42,25,21,3
158.44,3,3,59,31,1,15,6,5
158.44,13,30,25,43,0,13,2,4
158.45,1,14,13,7,4,5,0,2
158.46,16,22,4,42,45,24,12,1
158.46,27,53,17,42,43,7,20,10
158.47,5,10,12,128,23,19,5,3
158.47,0,33,27,19,17,6,8,0
158.47,10,23,85,86,18,15,13,1
158.48,7,10,50,68,13,16,11,1
158.49,7,23,86,63,11,13,12,5
158.49,3,2,23,54,31,3,9,3
158.5,11,34,35,45,10,23,8,5
158.5,5,16,78,34,24,6,6,1
158.5,8,25,88,32,5,4,2,1
158.51,12,64,69,88,52,36,22,1
158.51,29,77,127,26,11,26,4,7
158.52,2,23,25,46,18,15,14,1
158.53,1,21,28,15,6,3,9,1
158.53,17,37,21,27,12,5,4,1
158.53,8,1,40,6,6,6,1,0
158.54,8,32,6,71,12,6,7,7
158.54,5,44,43,60,14,16,0,8
158.55,11,40,63,63,22,22,13,4
158.56,5,22,0,12,10,5,3,4
158.56,2,9,28,39,20,15,11,1
158.56,0,5,2,112,30,27,8,3
158.57,4,1,40,19,18,11,8,2
158.57,11,24,61,21,15,10,5,1
158.58,10,14,9,14,21,8,23,4
158.59,12,58,26,45,24,6,18,7
158.59,2,29,0,11,14,11,16,1
158.59,12,27,7,49,20,17,15,4
158.6,10,20,31,14,13,3,38,4
158.6,8,16,48,31,11,13,31,4
158.61,1,23,2,10,1,4,39,4
158.62,7,16,19,4,3,0,35,7
158.62,2,5,28,20,4,1,10,4
158.62,1,21,7,14,10,0,5,5
158.63,3,1,31,16,13,3,2,6
158.63,2,13,14,30,19,11,36,9
158.64,7,1,27,5,1,8,24,1
158.65,2,14,6,21,0,7,16,3
158.65,3,3,85,91,13,2,22,4
158.66,11,21,31,71,44,20,19,16
158.66,8,16,1,12,9,4,37,0
158.66,6,3,8,7,10,5,48,1
158.67,2,1,49,38,4,8,3,5
158.68,6,19,41,21,30,24,84,6
158.68,13,15,7,2,11,6,80,2
158.69,10,24,16,1,2,13,37,6
158.69,7,4,3,15,9,5,25,3
158.69,4,20,52,16,18,10,33,2
158.7,6,18,3,13,8,14,57,4
158.71,1,2,10,9,5,11,2,0
158.71,10,20,38,31,23,18,75,16
158.72,9,8,29,39,11,0,16,11
158.72,2,14,9,13,4,5,24,4
158.72,12,20,32,28,14,13,35,5
158.73,0,1,25,17,9,0,29,0
158.74,12,15,0,15,19,7,2,1
158.74,6,7,2,16,1,6,16,5
158.75,2,2,19,13,8,7,17,5
158.75,2,12,24,20,3,8,30,6
158.75,3,5,11,10,3,5,17,8
158.76,9,56,13,11,11,3,4,1
158.76,12,42,31,22,5,5,22,9
158.77,14,40,22,7,5,4,3,2
158.78,7,8,6,28,1,7,27,2
158.78,2,31,5,0,0,1,20,2
158.78,7,12,5,20,13,12,4,3
158.79,0,30,72,42,0,8,10,4
158.79,7,6,2,12,17,6,14,2
158.8,1,27,1,9,2,1,10,4
158.81,7,5,2,7,13,9,6,3
158.81,6,1,5,18,9,3,10,2
158.81,0,55,15,12,2,5,17,1
158.82,10,29,15,12,1,0,21,3
158.82,4,7,1,16,1,2,9,5
158.83,10,8,5,3,5,4,25,0
158.84,2,5,7,0,2,7,4,6
158.84,3,4,2,24,5,6,10,3
158.84,2,11,8,37,8,3,7,1
158.85,0,5,9,45,13,3,4,4
158.85,4,23,3,2,11,3,6,0
158.86,2,13,0,14,10,7,14,3
158.87,1,32,3,38,14,17,22,2
158.87,9,38,21,28,16,6,44,6
158.88,2,6,17,34,19,12,9,8
158.88,1,1,2,33,5,11,15,8
158.88,3,9,17,27,10,6,1,2
158.89,3,4,0,40,26,21,18,3
158.9,3,23,8,26,5,8,3,2
158.9,3,17,8,7,12,5,18,3
158.91,2,17,9,9,11,9,14,0
158.91,1,3,2,8,8,2,14,1
158.91,1,1,16,13,4,2,1,0
158.92,0,1,2,12,0,0,1,1
158.93,2,14,9,28,12,7,26,3
158.93,3,4,5,4,1,8,17,5
158.94,3,1,1,14,7,6,8,3
158.94,1,1,4,4,7,5,0,0
158.94,3,8,11,18,6,5,6,0
158.95,0,1,13,11,8,1,4,2
158.96,2,1,21,0,0,13,5,3
158.96,1,4,31,47,3,1,10,5
158.97,13,29,14,63,11,1,8,0
158.97,3,1,26,51,7,3,11,6
158.97,0,3,17,31,5,2,2,2
158.98,4,3,1,5,3,3,1,2
158.99,6,3,19,27,4,4,9,2
158.99,2,0,5,8,9,0,2,1
159,2,7,10,9,3,5,2,5
159,3,3,3,2,1,1,3,1
159,3,14,15,14,3,3,15,1
159.01,7,11,8,3,14,18,12,1
159.01,1,3,8,10,6,12,17,1
159.02,3,3,4,7,5,11,6,5
159.03,8,5,9,0,1,7,33,1
159.03,4,4,2,7,5,17,4,11
159.03,6,0,15,38,13,3,8,1
159.04,6,16,6,23,10,4,3,4
159.04,7,21,5,19,15,4,22,2
159.05,7,16,37,58,25,8,21,1
159.06,2,3,8,9,11,6,13,5
159.06,2,2,14,15,19,8,17,2
159.06,3,4,6,20,11,0,0,1
159.07,8,4,2,9,2,3,13,2
159.07,6,4,11,4,6,3,5,3
159.08,11,16,34,27,13,6,17,3
159.09,0,2,0,6,2,2,21,4
159.09,3,6,9,27,9,3,11,1
159.09,8,10,10,25,14,3,10,1
159.1,4,6,8,12,3,2,13,3
159.1,5,8,2,2,6,3,2,6
159.11,1,1,6,14,1,8,16,4
159.12,8,5,8,5,1,1,20,1
159.12,15,22,2,6,12,5,54,9
159.12,10,10,3,8,3,12,20,7
159.13,2,0,1,20,8,9,5,1
159.13,0,1,4,18,2,1,2,2
159.14,9,7,23,20,3,1,13,2
159.15,11,22,53,16,24,5,20,0
159.15,1,5,30,4,3,4,9,5
159.16,0,2,4,24,9,5,11,7
159.16,2,16,55,42,15,2,0,4
159.16,3,5,26,22,8,8,1,1
159.17,2,6,10,21,4,3,6,2
159.18,1,1,0,8,1,1,1,3
159.18,2,4,12,19,7,1,5,2
159.19,7,11,9,17,5,5,10,1
159.19,5,10,1,20,5,1,1,1
159.19,9,13,11,31,10,8,14,2
159.2,4,9,2,26,6,1,3,4
159.21,0,1,16,6,1,0,5,2
159.21,4,2,17,6,9,7,2,3
159.22,7,19,26,45,26,9,13,6
159.22,2,11,2,12,4,1,12,2
159.22,1,10,5,19,12,5,1,1
159.23,0,14,25,18,22,16,16,2
159.24,15,27,46,59,10,2,2,0
159.24,4,7,15,2,7,7,11,3
159.25,9,23,42,29,12,12,5,2
159.25,6,4,5,38,10,12,3,1
159.25,7,20,52,95,31,17,13,2
159.26,4,5,10,43,5,4,6,2
159.26,6,8,9,8,10,2,2,1
159.27,3,3,5,30,17,0,10,1
159.28,2,9,14,19,4,3,1,0
159.28,1,7,21,6,0,1,4,5
159.28,3,11,42,42,17,19,9,2
159.29,0,5,23,0,9,10,10,1
159.29,1,11,17,50,20,8,5,2
159.3,2,1,10,33,7,4,0,2
159.31,7,8,36,94,27,2,13,1
159.31,2,8,86,26,1,5,1,7
159.31,3,1,15,19,2,6,1,0
159.32,1,10,11,2,8,6,2,0
159.32,9,19,39,66,7,8,13,3
159.33,2,12,84,4,5,2,2,0
159.34,3,11,12,45,15,13,17,6
159.34,9,17,31,75,27,16,14,1
159.34,12,42,71,107,47,17,19,0
159.35,6,13,30,0,1,11,1,4
159.35,9,46,32,127,76,45,32,6
159.36,16,59,17,108,96,57,51,13
159.37,1,21,106,113,59,38,28,10
159.37,16,44,77,28,59,24,27,2
159.38,19,35,14,17,32,13,23,3
159.38,25,48,56,117,46,13,20,4
159.38,17,46,71,104,52,20,27,2
159.39,35,78,29,76,53,17,38,3
159.4,11,14,17,53,28,19,21,2
159.4,10,2,92,35,40,31,29,11
159.41,17,0,34,99,36,37,20,14
159.41,7,4,16,52,18,12,6,7
159.41,13,28,74,53,9,8,3,5
159.42,45,101,23,119,82,27,38,11
159.43,4,2,8,101,48,10,36,2
159.43,2,12,39,32,6,6,7,3
159.44,17,59,34,66,90,43,46,5
159.44,22,51,110,32,67,38,43,5
159.44,6,46,35,81,64,15,27,3
159.45,43,107,56,92,107,101,67,5
159.46,5,13,106,20,47,95,66,25
159.46,2,54,41,92,90,27,18,12
159.47,9,67,52,66,72,18,8,2
159.47,24,50,22,54,75,67,60,22
159.47,19,48,78,82,103,41,33,9
159.48,17,24,43,42,41,25,2,2
159.49,15,42,67,72,77,79,33,27
159.49,5,23,47,62,33,18,17,12
159.5,5,11,60,22,21,79,51,10
159.5,51,90,28,15,28,59,4,22
159.5,23,14,19,47,1,14,7,9
159.51,17,56,85,83,55,24,18,3
159.51,20,73,99,60,102,37,49,7
159.52,28,57,79,90,33,23,31,5
159.53,3,5,73,83,77,60,50,8
159.53,4,31,43,72,66,46,24,15
159.53,2,63,118,98,25,0,9,7
159.54,11,36,36,22,33,52,28,10
159.54,47,120,6,117,128,106,79,12
159.55,4,23,101,111,60,17,20,7
159.56,19,49,46,51,34,16,14,3
159.56,4,18,97,18,65,43,44,16
159.56,15,63,79,100,87,44,35,11
159.57,9,2,32,70,7,27,7,6
159.57,1,15,86,26,34,31,22,11
159.58,7,19,6,80,38,9,8,6
159.59,14,38,24,55,48,36,31,6
159.59,27,44,18,84,109,60,72,7
159.59,22,57,50,89,26,30,25,5
159.6,68,126,48,41,68,31,34,10
159.6,15,44,8,73,26,19,5,0
159.61,4,9,1,61,49,21,20,5
159.62,54,101,87,68,90,58,33,5
159.62,9,7,91,102,20,17,13,2
159.62,26,49,26,66,34,22,17,1
159.63,9,18,58,24,23,8,12,3
159.63,16,52,24,76,51,34,16,9
159.64,50,111,29,113,109,58,42,10
159.65,12,23,45,127,46,11,13,1
159.65,1,15,34,64,16,33,19,9
159.66,17,31,38,2,5,11,2,4
159.66,28,50,55,1,20,11,13,4
159.66,12,28,9,47,17,8,7,3
159.67,5,4,61,52,5,14,13,2
159.68,5,0,61,65,37,8,3,8
159.68,5,8,52,10,21,23,1,3
159.69,2,4,1,15,6,11,8,2
159.69,20,39,24,19,15,14,7,8
159.69,15,43,51,29,74,20,25,3
159.7,15,19,15,77,7,22,8,0
159.71,9,23,18,60,9,7,0,4
159.71,12,8,1,27,19,16,19,3
159.72,3,5,31,95,46,17,16,0
159.72,11,27,40,1,18,9,7,4
159.72,4,28,59,7,17,28,6,11
159.73,18,40,38,38,42,1,11,3
159.74,2,0,60,17,12,5,1,4
159.74,7,17,2,1,12,0,6,1
159.75,4,3,26,28,12,18,6,5
159.75,1,8,77,16,10,3,3,0
159.75,4,7,22,105,24,17,8,1
159.76,13,10,1,31,30,6,3,3
159.76,21,61,98,115,25,3,8,7
159.77,1,5,56,51,17,4,1,3
159.78,13,11,2,31,19,11,17,1
159.78,26,39,114,60,23,2,19,5
159.78,19,39,69,0,13,13,8,0
159.79,21,50,8,33,18,3,11,1
159.79,10,19,50,28,19,9,12,1
159.8,7,25,24,5,1,2,1,1
159.81,32,72,110,79,63,20,27,2
159.81,1,4,7,95,30,16,11,1
159.81,12,25,44,16,15,9,4,5
159.82,13,26,39,13,0,1,7,0
159.82,11,31,32,51,69,40,24,4
159.83,0,8,22,20,14,9,9,4
159.84,10,8,50,77,38,29,6,9
159.84,6,11,7,58,11,9,4,1
159.84,3,14,110,93,8,8,11,3
159.85,4,18,37,53,16,2,11,1
159.85,5,3,1,57,10,16,1,2
159.86,13,12,44,12,6,14,5,2
159.87,20,40,117,63,28,18,13,2
159.87,30,38,105,57,86,43,55,2
159.88,4,4,58,25,15,29,9,11
159.88,11,9,15,38,17,14,2,7
159.88,3,2,30,15,9,1,5,4
159.89,6,1,56,3,11,12,8,4
159.9,2,4,51,18,20,18,12,3
159.9,4,9,33,3,10,14,16,3
159.91,3,9,6,15,10,6,5,1
159.91,3,2,108,49,9,2,1,3
159.91,8,11,16,10,16,4,2,1
159.92,10,11,25,3,11,2,8,0
159.93,7,14,13,14,22,6,7,1
159.93,5,4,15,9,4,3,1,3
159.94,14,37,64,36,24,8,18,4
159.94,5,1,41,24,8,2,11,7
159.94,7,18,51,66,28,15,18,1
159.95,3,1,25,60,24,8,3,2
159.96,7,16,4,17,18,12,12,3
159.96,25,50,11,90,73,24,29,0
159.97,12,37,17,116,60,37,33,6
159.97,8,27,25,58,39,26,51,7
159.97,5,2,11,21,4,8,98,9
159.98,9,20,13,9,12,16,45,9
159.99,2,1,1,4,3,1,17,0
159.99,1,10,33,26,10,5,1,7
160,2,5,6,5,3,4,22,4
160,3,12,9,4,5,12,10,18
160,8,13,19,11,8,4,22,5
160.01,17,30,42,2,9,0,91,10
160.01,3,1,1,12,1,6,94,2
160.02,6,13,12,12,13,4,36,8
160.03,2,0,0,7,7,14,54,8
160.03,5,14,9,35,5,1,4,0
160.03,13,31,26,78,9,36,126,18
160.04,17,31,13,1,16,36,84,37
160.04,5,2,5,3,5,4,65,3
160.05,12,31,39,28,16,2,22,2
160.06,5,25,8,5,4,11,36,0
160.06,15,21,71,2,12,24,14,14
160.06,1,1,1,5,2,11,27,5
160.07,1,1,16,1,5,3,7,15
160.07,9,7,8,48,26,11,41,2
160.08,1,19,52,40,21,3,103,6
160.09,5,1,12,17,26,27,100,13
160.09,5,13,18,36,17,12,0,11
160.09,4,7,11,15,4,4,8,3
160.1,6,18,11,12,8,12,8,1
160.1,3,5,1,7,9,3,1,7
160.11,5,8,28,24,16,9,33,8
160.12,6,12,4,28,10,6,11,3
160.12,7,4,6,2,2,9,3,4
160.12,7,14,11,11,9,4,7,1
160.13,14,21,29,18,15,14,87,5
160.13,4,0,3,5,1,6,68,2
160.14,0,4,32,3,14,5,0,1
160.15,4,15,3,5,4,5,39,1
160.15,3,5,0,9,10,8,28,3
160.16,1,3,1,9,1,5,3,4
160.16,2,5,12,3,1,3,5,4
160.16,3,6,14,26,4,8,17,5
160.17,0,16,36,54,24,12,24,0
160.18,3,4,2,36,17,3,6,1
160.18,7,7,43,12,10,10,7,2
160.19,6,4,24,14,13,11,12,4
160.19,3,6,4,1,1,7,1,5
160.19,4,1,10,5,11,1,0,1
160.2,1,0,19,2,8,4,1,1
160.21,0,5,11,18,1,2,33,5
160.21,7,6,23,42,8,4,0,10
160.22,12,24,15,24,21,11,44,4
160.22,2,4,3,30,10,5,3,1
160.22,1,11,5,31,11,4,7,13
160.23,3,10,6,12,2,0,2,2
160.24,0,8,13,8,8,4,3,5
160.24,1,4,7,2,12,5,6,6
160.25,2,1,17,1,1,3,17,5
160.25,1,4,6,1,6,8,8,2
160.25,5,5,10,8,5,6,4,3
160.26,2,15,17,16,6,16,14,4
160.26,13,1,71,9,5,8,8,6
160.27,14,33,31,59,27,16,51,6
160.28,5,16,8,7,3,12,9,3
160.28,0,1,14,17,7,3,28,3
160.28,13,16,20,17,4,7,11,5
160.29,3,9,15,1,1,0,6,3
160.29,0,7,8,18,5,7,4,4
160.3,5,17,5,16,16,6,31,2
160.31,3,1,1,17,20,7,16,2
160.31,1,0,2,6,0,0,4,2
160.31,4,7,4,19,15,9,2,2
160.32,2,2,24,1,6,4,1,1
160.32,0,5,12,10,5,5,13,2
160.33,1,9,1,0,1,1,1,0
160.34,5,5,11,34,3,3,7,2
160.34,4,2,63,18,2,1,9,2
160.34,12,18,49,42,10,7,6,5
160.35,5,8,28,42,4,4,11,1
160.35,12,19,22,54,24,7,2,15
160.36,3,6,8,16,4,4,7,6
160.37,2,2,16,29,8,12,4,2
160.37,2,3,17,33,10,7,1,2
160.38,2,3,11,17,4,1,5,4
160.38,2,3,18,7,6,8,6,2
160.38,3,1,13,5,4,6,5,2
160.39,0,3,23,25,17,10,12,0
160.4,7,4,8,0,1,3,9,2
160.4,8,6,16,19,5,1,3,1
160.41,5,7,18,20,3,9,8,0
160.41,2,2,1,3,4,6,2,3
160.41,2,5,11,16,3,3,0,3
160.42,3,6,3,14,4,3,10,3
160.43,3,10,56,17,9,10,1,1
160.43,0,5,3,32,14,8,1,5
160.44,3,5,14,21,8,1,0,3
160.44,1,2,17,17,11,10,1,6
160.44,1,10,15,2,0,6,13,0
160.45,1,0,3,11,5,11,19,4
160.46,2,0,22,6,8,3,8,5
160.46,0,3,9,1,3,5,1,2
160.47,6,1,19,9,8,1,6,2
160.47,6,10,8,3,6,0,8,1
160.47,1,0,9,12,6,4,8,0
160.48,1,14,33,41,11,7,3,4
160.49,3,4,30,5,4,2,14,2
160.49,9,6,37,4,2,1,10,3
160.5,0,4,33,1,10,10,7,5
160.5,6,12,10,16,7,0,1,3
160.5,10,14,47,14,0,4,3,1
160.51,3,12,21,11,3,5,3,2
160.51,1,7,7,49,7,4,4,3
160.52,4,6,13,17,4,6,2,0
160.53,1,11,9,38,7,1,3,1
160.53,8,14,17,47,28,20,12,2
160.53,24,55,47,78,57,26,32,4
160.54,12,15,46,19,0,13,8,3
160.54,6,15,12,17,2,2,6,3
160.55,5,7,7,17,7,4,0,2
160.56,7,24,12,61,27,21,16,7
160.56,13,28,6,62,23,12,28,1
160.56,1,9,10,16,10,5,5,3
160.57,3,3,3,24,4,6,24,5
160.57,4,4,22,60,28,28,16,1
160.58,2,8,57,50,52,41,19,7
160.59,8,6,41,9,2,3,0,5
160.59,5,8,5,13,2,3,11,0
160.59,14,26,18,23,13,5,13,0
160.6,7,21,13,124,54,35,25,2
160.6,11,26,31,122,71,27,32,7
160.61,12,21,47,27,33,9,31,3
160.62,2,2,10,57,3,7,5,4
160.62,4,1,23,39,9,15,9,2
160.62,0,4,56,75,26,19,14,2
160.63,14,29,52,20,12,13,4,6
160.63,9,30,37,44,31,18,7,4
160.64,13,48,27,53,30,23,12,5
160.65,17,52,49,72,48,23,23,0
160.65,8,21,32,9,13,11,6,4
160.66,26,64,52,113,93,55,48,7
160.66,16,39,43,45,28,11,10,4
160.66,19,30,52,27,11,6,12,3
160.67,4,9,41,49,9,3,21,1
160.68,12,16,8,17,1,2,4,8
160.68,5,7,60,34,23,13,20,0
160.69,8,22,102,21,9,8,8,0
160.69,24,45,1,6,43,3,13,2
160.69,11,13,18,36,50,16,25,1
160.7,7,23,32,68,1,5,2,7
160.71,1,4,49,49,4,6,9,3
160.71,12,23,28,40,46,10,5,2
160.72,14,42,47,46,85,49,29,1
160.72,6,16,122,57,69,53,41,17
160.72,1,5,28,122,41,1,1,3
160.73,22,47,70,124,45,3,21,1
160.74,4,8,35,95,22,11,3,2
160.74,17,48,32,2,4,18,18,6
160.75,12,35,97,10,79,17,21,6
160.75,26,30,51,7,23,22,37,8
160.75,3,7,5,69,18,24,4,2
160.76,3,12,67,127,82,62,40,6
160.76,27,57,98,115,128,65,67,12
160.77,1,2,85,63,43,3,21,3
160.78,7,22,105,53,31,10,3,4
160.78,27,55,43,58,66,6,20,0
160.78,2,1,27,36,11,9,17,0
160.79,23,56,27,90,15,1,1,3
160.79,17,31,46,37,45,9,8,6
160.8,18,51,10,75,28,22,18,2
160.81,8,17,50,83,46,56,42,3
160.81,2,38,31,68,65,49,29,12
160.81,1,1,54,10,39,15,18,6
160.82,18,29,54,22,12,11,10,3
160.82,20,58,16,60,24,8,18,8
160.83,20,21,48,44,12,6,7,3
160.84,3,17,77,8,20,6,9,1
160.84,3,23,9,29,30,15,27,4
160.84,10,2,55,17,21,8,13,3
160.85,9,24,23,67,64,34,25,4
160.85,11,17,45,21,55,37,53,7
160.86,28,74,55,5,35,9,23,4
160.87,25,77,68,57,59,25,26,5
160.87,1,21,20,31,37,0,3,1
160.88,17,54,52,127,75,25,20,0
160.88,19,75,33,127,67,29,22,3
160.88,8,37,84,99,55,26,36,8
160.89,13,54,74,64,60,32,22,9
160.9,15,43,74,52,6,4,0,1
160.9,0,7,80,4,69,23,7,9
160.91,14,49,19,106,63,11,31,6
160.91,3,24,52,1,26,29,0,3
160.91,0,11,102,46,29,32,26,16
160.92,7,3,67,28,10,24,16,9
160.93,27,51,20,28,11,29,22,12
160.93,1,3,32,14,4,6,6,1
160.94,20,46,51,81,58,37,32,3
160.94,2,2,71,21,13,5,1,3
160.94,6,40,50,34,18,17,7,2
160.95,1,2,7,41,62,38,34,7
160.96,13,20,53,101,31,37,18,13
160.96,5,21,29,40,1,25,13,13
160.97,22,42,28,72,31,19,22,6
160.97,10,22,19,38,13,3,3,1
160.97,19,48,15,41,29,16,23,1
160.98,57,95,38,87,103,50,61,3
160.99,7,13,8,30,17,12,10,6
160.99,9,23,6,38,27,19,19,3
161,6,7,96,50,13,9,27,1
161,8,7,95,2,41,28,14,7
161,2,2,7,31,35,30,21,9
161.01,14,40,41,64,57,34,29,5
161.01,13,20,104,10,24,35,19,13
161.02,10,28,55,127,70,47,32,8
161.03,23,66,2,86,53,21,25,3
161.03,30,65,127,74,25,7,23,2
161.03,3,16,15,33,25,13,8,0
161.04,6,7,76,113,9,2,1,1
161.04,4,31,35,7,13,7,13,3
161.05,32,88,20,20,18,5,8,4
161.06,30,67,102,26,47,18,22,7
161.06,19,34,54,11,5,10,8,3
161.06,9,51,17,72,29,20,17,1
161.07,33,94,56,57,59,27,28,4
161.07,24,77,99,105,71,41,31,6
161.08,57,109,8,113,104,54,70,7
161.09,1,1,29,90,14,16,1,1
161.09,9,6,23,60,11,4,4,3
161.09,0,29,57,56,8,4,0,2
161.1,9,17,44,11,25,27,9,3
161.1,0,14,50,56,19,14,7,4
161.11,9,26,39,70,10,16,11,6
161.12,20,59,32,112,95,42,48,4
161.12,16,34,29,1,21,12,8,9
161.12,9,17,7,70,1,17,1,8
161.13,6,8,46,61,25,5,5,1
161.13,2,4,1,26,9,8,7,1
161.14,9,14,10,20,22,19,19,3
161.15,7,18,1,51,17,2,18,3
161.15,12,38,40,11,28,20,18,2
161.16,3,10,5,5,6,9,3,4
161.16,12,29,86,91,17,5,1,2
161.16,41,77,76,39,53,25,38,2
161.17,2,12,17,63,21,20,6,3
161.18,22,49,8,18,31,12,19,0
161.18,5,6,15,0,18,6,8,0
161.19,2,3,5,1,20,17,11,9
161.19,10,20,102,70,33,14,15,4
161.19,2,21,60,43,45,22,20,5
161.2,26,53,15,16,11,6,3,3
161.21,7,32,59,8,1,10,5,4
161.21,10,14,1,51,2,7,1,5
161.22,6,18,9,9,0,6,2,1
161.22,2,1,26,20,10,11,0,0
161.22,12,37,21,23,3,3,7,6
161.23,8,11,19,42,17,9,9,2
161.24,17,28,84,47,39,18,22,3
161.24,11,26,63,24,8,1,2,1
161.25,8,46,21,1,14,11,11,7
161.25,6,24,101,58,4,7,29,15
161.25,12,18,44,52,21,3,43,10
161.26,12,19,20,17,19,39,56,8
161.26,7,7,1,6,10,5,34,3
161.27,3,12,34,1,8,15,12,9
161.28,11,9,32,18,19,4,14,6
161.28,9,11,11,39,12,6,25,2
161.28,3,17,39,21,1,2,14,4
161.29,6,22,22,14,16,17,39,6
161.29,2,4,53,12,30,38,79,19
161.3,18,37,79,23,4,6,38,9
161.31,3,3,57,62,22,7,6,1
161.31,6,9,15,9,7,11,25,0
161.31,4,3,3,7,1,5,11,2
161.32,0,2,23,25,8,2,40,0
161.32,11,21,57,5,6,1,1,2
161.33,2,7,68,30,0,5,19,1
161.34,0,1,14,20,2,16,49,5
161.34,13,18,3,20,3,3,75,5
161.34,6,16,25,14,5,18,12,27
161.35,14,14,25,3,21,23,82,6
161.35,4,6,25,10,15,21,55,2
161.36,15,18,4,13,13,29,84,11
161.37,1,1,20,9,7,36,92,26
161.37,6,7,23,14,20,44,54,32
161.38,4,4,9,6,5,6,46,6
161.38,2,5,14,10,1,4,43,0
161.38,3,6,56,8,3,14,19,5
161.39,1,3,33,2,3,0,9,10
161.4,0,3,23,3,8,12,63,6
161.4,5,21,43,64,30,14,41,0
161.41,3,23,2,73,43,31,25,9
161.41,6,20,21,30,29,28,56,10
161.41,7,9,37,1,13,6,46,10
161.42,3,1,10,0,2,5,14,2
161.43,3,16,26,16,17,8,35,2
161.43,16,22,9,56,18,9,10,1
161.44,10,27,31,72,68,20,33,4
161.44,3,4,18,31,20,1,7,4
161.44,5,11,9,23,15,5,37,1
161.45,16,31,6,0,13,1,108,5
161.46,16,36,19,17,57,35,88,9
161.46,4,10,16,33,31,36,23,11
161.47,4,4,2,1,3,5,82,4
161.47,5,1,15,24,21,4,49,3
161.47,4,9,66,20,1,9,5,2
161.48,10,24,55,45,17,1,31,4
161.49,7,25,36,64,18,7,6,3
161.49,6,11,54,29,9,11,39,0
161.5,1,8,19,8,13,9,33,3
161.5,9,20,76,46,24,15,38,3
161.5,8,18,22,63,51,27,50,9
161.51,8,23,37,50,26,12,39,2
161.51,1,2,25,35,0,17,25,0
161.52,10,23,4,0,28,28,26,6
161.53,2,0,36,34,8,0,33,9
