0.005,-3.0,-1.0,4.0,-1.0,-6.0,-8.0,-2.0,-2.0,-0.43994140625,-0.25592041015625,0.65106201171875,0.56304931640625,-0.28125,-0.845703125,0.4921875,-0.3125,0.125,0.125
0.01,-2.0,0.0,-4.0,-5.0,-2.0,-3.0,-2.0,-2.0,-0.43994140625,-0.25592041015625,0.65106201171875,0.56304931640625,-0.28125,-0.845703125,0.4921875,-0.3125,0.125,0.125
0.015,-2.0,0.0,-4.0,-5.0,-2.0,-3.0,-2.0,-2.0,-0.43994140625,-0.25592041015625,0.65106201171875,0.56304931640625,-0.28125,-0.845703125,0.4921875,-0.3125,0.125,0.125
0.02,-2.0,0.0,-4.0,-5.0,-2.0,-3.0,-2.0,-2.0,-0.43994140625,-0.25592041015625,0.65106201171875,0.56304931640625,-0.28125,-0.845703125,0.4921875,-0.3125,0.125,0.125
0.025,-1.0,-3.0,6.0,0.0,-6.0,-2.0,-4.0,-2.0,-0.43975830078125,-0.2557373046875,0.65118408203125,0.56317138671875,-0.2861328125,-0.84521484375,0.498046875,1.25,-0.0625,0.375
0.030000000000000002,1.0,2.0,9.0,10.0,4.0,6.0,2.0,0.0,-0.43975830078125,-0.2557373046875,0.65118408203125,0.56317138671875,-0.2861328125,-0.84521484375,0.498046875,1.25,-0.0625,0.375
0.035,1.0,2.0,9.0,10.0,4.0,6.0,2.0,0.0,-0.43975830078125,-0.2557373046875,0.65118408203125,0.56317138671875,-0.2861328125,-0.84521484375,0.498046875,1.25,-0.0625,0.375
0.04,1.0,2.0,9.0,10.0,4.0,6.0,2.0,0.0,-0.43975830078125,-0.2557373046875,0.65118408203125,0.56317138671875,-0.2861328125,-0.84521484375,0.498046875,1.25,-0.0625,0.375
0.045,1.0,2.0,9.0,10.0,4.0,6.0,2.0,0.0,-0.43975830078125,-0.2557373046875,0.65118408203125,0.56317138671875,-0.2861328125,-0.84521484375,0.498046875,1.25,-0.0625,0.375
0.049999999999999996,-1.0,-2.0,-7.0,-6.0,2.0,2.0,-2.0,-1.0,-0.43975830078125,-0.2557373046875,0.65118408203125,0.56317138671875,-0.28369140625,-0.8447265625,0.4951171875,-0.1875,0.0,0.3125
0.05499999999999999,-1.0,-2.0,-7.0,-3.0,-2.0,-5.0,-5.0,-3.0,-0.43975830078125,-0.2557373046875,0.65118408203125,0.56317138671875,-0.28369140625,-0.8447265625,0.4951171875,-0.1875,0.0,0.3125
0.05999999999999999,-1.0,-2.0,-7.0,-3.0,-2.0,-5.0,-5.0,-3.0,-0.43975830078125,-0.2557373046875,0.65118408203125,0.56317138671875,-0.28369140625,-0.8447265625,0.4951171875,-0.1875,0.0,0.3125
0.06499999999999999,-1.0,-2.0,-7.0,-3.0,-2.0,-5.0,-5.0,-3.0,-0.43975830078125,-0.2557373046875,0.65118408203125,0.56317138671875,-0.28369140625,-0.8447265625,0.4951171875,-0.1875,0.0,0.3125
0.06999999999999999,0.0,1.0,1.0,-6.0,-10.0,-4.0,-4.0,0.0,-0.43975830078125,-0.2557373046875,0.65118408203125,0.56317138671875,-0.28662109375,-0.841796875,0.49169921875,-0.75,-0.25,0.75
0.075,2.0,0.0,2.0,3.0,9.0,5.0,2.0,0.0,-0.43975830078125,-0.2557373046875,0.65118408203125,0.56317138671875,-0.28662109375,-0.841796875,0.49169921875,-0.75,-0.25,0.75
0.08,2.0,0.0,2.0,3.0,9.0,5.0,2.0,0.0,-0.43975830078125,-0.2557373046875,0.65118408203125,0.56317138671875,-0.28662109375,-0.841796875,0.49169921875,-0.75,-0.25,0.75
0.085,2.0,0.0,2.0,3.0,9.0,5.0,2.0,0.0,-0.43975830078125,-0.2557373046875,0.65118408203125,0.56317138671875,-0.28662109375,-0.841796875,0.49169921875,-0.75,-0.25,0.75
0.09000000000000001,2.0,0.0,2.0,3.0,9.0,5.0,2.0,0.0,-0.43975830078125,-0.2557373046875,0.65118408203125,0.56317138671875,-0.28662109375,-0.841796875,0.49169921875,-0.75,-0.25,0.75
0.09500000000000001,2.0,0.0,2.0,3.0,9.0,5.0,2.0,0.0,-0.43975830078125,-0.2557373046875,0.65118408203125,0.56317138671875,-0.28662109375,-0.841796875,0.49169921875,-0.75,-0.25,0.75
0.10000000000000002,-1.0,-1.0,-2.0,-4.0,-2.0,-2.0,-1.0,-4.0,-0.439697265625,-0.2557373046875,0.65118408203125,0.56317138671875,-0.283203125,-0.8408203125,0.4970703125,0.3125,-0.1875,0.6875
0.10500000000000002,-1.0,-1.0,-2.0,-4.0,-2.0,-2.0,-1.0,-4.0,-0.439697265625,-0.2557373046875,0.65118408203125,0.56317138671875,-0.283203125,-0.8408203125,0.4970703125,0.3125,-0.1875,0.6875
0.11000000000000003,0.0,-3.0,-3.0,-6.0,-9.0,-7.0,-4.0,-3.0,-0.439697265625,-0.2557373046875,0.65118408203125,0.56317138671875,-0.283203125,-0.8408203125,0.4970703125,0.3125,-0.1875,0.6875
0.11500000000000003,0.0,-3.0,-3.0,-6.0,-9.0,-7.0,-4.0,-3.0,-0.439697265625,-0.2557373046875,0.65118408203125,0.56317138671875,-0.283203125,-0.8408203125,0.4970703125,0.3125,-0.1875,0.6875
0.12000000000000004,0.0,-3.0,-3.0,-6.0,-9.0,-7.0,-4.0,-3.0,-0.439697265625,-0.2557373046875,0.65118408203125,0.56317138671875,-0.283203125,-0.8408203125,0.4970703125,0.3125,-0.1875,0.6875
0.12500000000000003,0.0,-3.0,-3.0,-6.0,-9.0,-7.0,-4.0,-3.0,-0.439697265625,-0.2557373046875,0.65118408203125,0.56317138671875,-0.283203125,-0.8408203125,0.4970703125,0.3125,-0.1875,0.6875
0.13000000000000003,0.0,-2.0,-4.0,2.0,6.0,0.0,0.0,1.0,-0.439697265625,-0.2557373046875,0.65118408203125,0.56317138671875,-0.28173828125,-0.84033203125,0.50146484375,0.125,0.5625,0.75
0.13500000000000004,0.0,-2.0,-16.0,2.0,-7.0,-8.0,-2.0,-2.0,-0.439697265625,-0.2557373046875,0.65118408203125,0.56317138671875,-0.28173828125,-0.84033203125,0.50146484375,0.125,0.5625,0.75
0.14000000000000004,0.0,-2.0,-16.0,2.0,-7.0,-8.0,-2.0,-2.0,-0.439697265625,-0.2557373046875,0.65118408203125,0.56317138671875,-0.28173828125,-0.84033203125,0.50146484375,0.125,0.5625,0.75
0.14500000000000005,0.0,-2.0,-16.0,2.0,-7.0,-8.0,-2.0,-2.0,-0.439697265625,-0.2557373046875,0.65118408203125,0.56317138671875,-0.28173828125,-0.84033203125,0.50146484375,0.125,0.5625,0.75
0.15000000000000005,-1.0,1.0,1.0,4.0,4.0,5.0,3.0,-1.0,-0.43963623046875,-0.2557373046875,0.65118408203125,0.563232421875,-0.2861328125,-0.85009765625,0.5029296875,0.4375,0.75,0.4375
0.15500000000000005,-1.0,1.0,1.0,4.0,4.0,5.0,3.0,-1.0,-0.43963623046875,-0.2557373046875,0.65118408203125,0.563232421875,-0.2861328125,-0.85009765625,0.5029296875,0.4375,0.75,0.4375
0.16000000000000006,0.0,-2.0,-2.0,-5.0,5.0,5.0,-1.0,1.0,-0.43963623046875,-0.2557373046875,0.65118408203125,0.563232421875,-0.2861328125,-0.85009765625,0.5029296875,0.4375,0.75,0.4375
0.16500000000000006,0.0,-2.0,-2.0,-5.0,5.0,5.0,-1.0,1.0,-0.43963623046875,-0.2557373046875,0.65118408203125,0.563232421875,-0.2861328125,-0.85009765625,0.5029296875,0.4375,0.75,0.4375
0.17000000000000007,0.0,-2.0,-2.0,-5.0,5.0,5.0,-1.0,1.0,-0.43963623046875,-0.2557373046875,0.65118408203125,0.563232421875,-0.2861328125,-0.85009765625,0.5029296875,0.4375,0.75,0.4375
0.17500000000000007,0.0,-2.0,-2.0,-5.0,5.0,5.0,-1.0,1.0,-0.43963623046875,-0.2557373046875,0.65118408203125,0.563232421875,-0.2861328125,-0.85009765625,0.5029296875,0.4375,0.75,0.4375
0.18000000000000008,-2.0,-4.0,-6.0,0.0,-5.0,-7.0,-2.0,-2.0,-0.43963623046875,-0.2557373046875,0.65118408203125,0.563232421875,-0.2822265625,-0.8447265625,0.50341796875,0.0,0.875,-0.1875
0.18500000000000008,-2.0,-4.0,-6.0,0.0,-5.0,-7.0,-2.0,-2.0,-0.43963623046875,-0.2557373046875,0.65118408203125,0.563232421875,-0.2822265625,-0.8447265625,0.50341796875,0.0,0.875,-0.1875
0.19000000000000009,-4.0,-1.0,-6.0,-7.0,-9.0,-8.0,-2.0,-1.0,-0.43963623046875,-0.2557373046875,0.65118408203125,0.563232421875,-0.2822265625,-0.8447265625,0.50341796875,0.0,0.875,-0.1875
0.1950000000000001,-4.0,-1.0,-6.0,-7.0,-9.0,-8.0,-2.0,-1.0,-0.43963623046875,-0.2557373046875,0.65118408203125,0.563232421875,-0.2822265625,-0.8447265625,0.50341796875,0.0,0.875,-0.1875
0.2000000000000001,-4.0,-1.0,-6.0,-7.0,-9.0,-8.0,-2.0,-1.0,-0.43963623046875,-0.2557373046875,0.65118408203125,0.563232421875,-0.2822265625,-0.8447265625,0.50341796875,0.0,0.875,-0.1875
0.2050000000000001,-4.0,-1.0,-6.0,-7.0,-9.0,-8.0,-2.0,-1.0,-0.43963623046875,-0.2557373046875,0.65118408203125,0.563232421875,-0.2822265625,-0.8447265625,0.50341796875,0.0,0.875,-0.1875
0.2100000000000001,-2.0,-1.0,5.0,2.0,3.0,3.0,-1.0,-1.0,-0.43963623046875,-0.255615234375,0.65118408203125,0.5633544921875,-0.28515625,-0.8427734375,0.49609375,0.375,1.0625,0.0
0.2150000000000001,-2.0,-1.0,5.0,2.0,3.0,3.0,-1.0,-1.0,-0.43963623046875,-0.255615234375,0.65118408203125,0.5633544921875,-0.28515625,-0.8427734375,0.49609375,0.375,1.0625,0.0
0.2200000000000001,-2.0,-1.0,5.0,2.0,3.0,3.0,-1.0,-1.0,-0.43963623046875,-0.255615234375,0.65118408203125,0.5633544921875,-0.28515625,-0.8427734375,0.49609375,0.375,1.0625,0.0
0.22500000000000012,0.0,0.0,-7.0,-6.0,-12.0,-12.0,-4.0,-2.0,-0.43963623046875,-0.255615234375,0.65118408203125,0.5633544921875,-0.28369140625,-0.8369140625,0.48828125,-0.375,0.75,-0.25
0.23000000000000012,0.0,0.0,-7.0,-6.0,-12.0,-12.0,-4.0,-2.0,-0.43963623046875,-0.255615234375,0.65118408203125,0.5633544921875,-0.28369140625,-0.8369140625,0.48828125,-0.375,0.75,-0.25
0.23500000000000013,0.0,0.0,-5.0,-4.0,0.0,0.0,-2.0,-2.0,-0.43963623046875,-0.255615234375,0.65118408203125,0.5633544921875,-0.28369140625,-0.8369140625,0.48828125,-0.375,0.75,-0.25
0.24000000000000013,0.0,0.0,-5.0,-4.0,0.0,0.0,-2.0,-2.0,-0.43963623046875,-0.255615234375,0.65118408203125,0.5633544921875,-0.28369140625,-0.8369140625,0.48828125,-0.375,0.75,-0.25
0.24500000000000013,0.0,0.0,-5.0,-4.0,0.0,0.0,-2.0,-2.0,-0.43963623046875,-0.255615234375,0.65118408203125,0.5633544921875,-0.28369140625,-0.8369140625,0.48828125,-0.375,0.75,-0.25
0.2500000000000001,0.0,0.0,-5.0,-4.0,0.0,0.0,-2.0,-2.0,-0.43963623046875,-0.255615234375,0.65118408203125,0.5633544921875,-0.28369140625,-0.8369140625,0.48828125,-0.375,0.75,-0.25
0.2550000000000001,-5.0,-3.0,-13.0,-13.0,-5.0,-4.0,-3.0,0.0,-0.4395751953125,-0.255615234375,0.65118408203125,0.5633544921875,-0.2880859375,-0.84423828125,0.49755859375,0.4375,0.6875,-0.25
0.2600000000000001,-5.0,-3.0,-13.0,-13.0,-5.0,-4.0,-3.0,0.0,-0.4395751953125,-0.255615234375,0.65118408203125,0.5633544921875,-0.2880859375,-0.84423828125,0.49755859375,0.4375,0.6875,-0.25
0.2650000000000001,0.0,-1.0,-1.0,1.0,5.0,2.0,2.0,1.0,-0.4395751953125,-0.255615234375,0.65118408203125,0.5633544921875,-0.2880859375,-0.84423828125,0.49755859375,0.4375,0.6875,-0.25
0.27000000000000013,0.0,-1.0,-1.0,1.0,5.0,2.0,2.0,1.0,-0.4395751953125,-0.255615234375,0.65118408203125,0.5633544921875,-0.2880859375,-0.84423828125,0.49755859375,0.4375,0.6875,-0.25
0.27500000000000013,0.0,-1.0,-1.0,1.0,5.0,2.0,2.0,1.0,-0.4395751953125,-0.255615234375,0.65118408203125,0.5633544921875,-0.2880859375,-0.84423828125,0.49755859375,0.4375,0.6875,-0.25
0.28000000000000014,0.0,-1.0,-1.0,1.0,5.0,2.0,2.0,1.0,-0.4395751953125,-0.255615234375,0.65118408203125,0.5633544921875,-0.2880859375,-0.84423828125,0.49755859375,0.4375,0.6875,-0.25
0.28500000000000014,-3.0,-3.0,-8.0,-7.0,-7.0,-7.0,-2.0,-2.0,-0.43975830078125,-0.25555419921875,0.6510009765625,0.56341552734375,-0.2861328125,-0.84619140625,0.490234375,-0.25,1.1875,-0.25
0.29000000000000015,-3.0,-3.0,-8.0,-7.0,-7.0,-7.0,-2.0,-2.0,-0.43975830078125,-0.25555419921875,0.6510009765625,0.56341552734375,-0.2861328125,-0.84619140625,0.490234375,-0.25,1.1875,-0.25
0.29500000000000015,-3.0,-3.0,-8.0,-7.0,-7.0,-7.0,-2.0,-2.0,-0.43975830078125,-0.25555419921875,0.6510009765625,0.56341552734375,-0.2861328125,-0.84619140625,0.490234375,-0.25,1.1875,-0.25
0.30000000000000016,-2.0,-1.0,3.0,-3.0,-2.0,-3.0,-4.0,-3.0,-0.43975830078125,-0.25543212890625,0.65093994140625,0.5635986328125,-0.2841796875,-0.84375,0.4921875,0.5,1.1875,-0.125
0.30500000000000016,0.0,0.0,8.0,4.0,9.0,3.0,1.0,-1.0,-0.43975830078125,-0.25543212890625,0.65093994140625,0.5635986328125,-0.2841796875,-0.84375,0.4921875,0.5,1.1875,-0.125
0.31000000000000016,0.0,0.0,8.0,4.0,9.0,3.0,1.0,-1.0,-0.43975830078125,-0.25543212890625,0.65093994140625,0.5635986328125,-0.2841796875,-0.84375,0.4921875,0.5,1.1875,-0.125
0.31500000000000017,0.0,0.0,8.0,4.0,9.0,3.0,1.0,-1.0,-0.43975830078125,-0.25543212890625,0.65093994140625,0.5635986328125,-0.2841796875,-0.84375,0.4921875,0.5,1.1875,-0.125
0.3200000000000002,0.0,0.0,8.0,4.0,9.0,3.0,1.0,-1.0,-0.43975830078125,-0.25543212890625,0.65093994140625,0.5635986328125,-0.2841796875,-0.84375,0.4921875,0.5,1.1875,-0.125
0.3250000000000002,1.0,1.0,-1.0,-2.0,2.0,3.0,0.0,0.0,-0.43975830078125,-0.25543212890625,0.65093994140625,0.5635986328125,-0.283203125,-0.841796875,0.48583984375,0.0625,0.9375,0.125
0.3300000000000002,-1.0,-1.0,-2.0,-8.0,-5.0,-2.0,-1.0,-2.0,-0.43975830078125,-0.25543212890625,0.65093994140625,0.5635986328125,-0.283203125,-0.841796875,0.48583984375,0.0625,0.9375,0.125
0.3350000000000002,-1.0,-1.0,-2.0,-8.0,-5.0,-2.0,-1.0,-2.0,-0.43975830078125,-0.25543212890625,0.65093994140625,0.5635986328125,-0.283203125,-0.841796875,0.48583984375,0.0625,0.9375,0.125
0.3400000000000002,-1.0,-1.0,-2.0,-8.0,-5.0,-2.0,-1.0,-2.0,-0.43975830078125,-0.25543212890625,0.65093994140625,0.5635986328125,-0.283203125,-0.841796875,0.48583984375,0.0625,0.9375,0.125
0.3450000000000002,-3.0,-1.0,6.0,9.0,-1.0,-4.0,-2.0,-1.0,-0.43975830078125,-0.25543212890625,0.65093994140625,0.5635986328125,-0.283203125,-0.841796875,0.48583984375,0.0625,0.9375,0.125
0.3500000000000002,-1.0,0.0,-14.0,-5.0,-6.0,-4.0,-2.0,-1.0,-0.43988037109375,-0.25531005859375,0.65087890625,0.5635986328125,-0.2880859375,-0.84228515625,0.49267578125,0.25,1.0625,0.375
0.3550000000000002,-2.0,-2.0,-8.0,-2.0,-4.0,-4.0,-1.0,-1.0,-0.43988037109375,-0.25531005859375,0.65087890625,0.5635986328125,-0.2880859375,-0.84228515625,0.49267578125,0.25,1.0625,0.375
0.3600000000000002,-2.0,-2.0,-8.0,-2.0,-4.0,-4.0,-1.0,-1.0,-0.43988037109375,-0.25531005859375,0.65087890625,0.5635986328125,-0.2880859375,-0.84228515625,0.49267578125,0.25,1.0625,0.375
0.3650000000000002,1.0,3.0,10.0,13.0,10.0,4.0,3.0,1.0,-0.43988037109375,-0.25531005859375,0.65087890625,0.56365966796875,-0.28955078125,-0.8583984375,0.49462890625,-0.4375,0.5,0.1875
0.3700000000000002,1.0,3.0,10.0,13.0,10.0,4.0,3.0,1.0,-0.43988037109375,-0.25531005859375,0.65087890625,0.56365966796875,-0.28955078125,-0.8583984375,0.49462890625,-0.4375,0.5,0.1875
0.3750000000000002,-1.0,-2.0,-3.0,4.0,9.0,4.0,0.0,1.0,-0.43988037109375,-0.25531005859375,0.65087890625,0.56365966796875,-0.28955078125,-0.8583984375,0.49462890625,-0.4375,0.5,0.1875
0.3800000000000002,-1.0,1.0,-1.0,-6.0,-6.0,-1.0,-3.0,-3.0,-0.43988037109375,-0.25531005859375,0.65087890625,0.56365966796875,-0.28955078125,-0.8583984375,0.49462890625,-0.4375,0.5,0.1875
0.38500000000000023,-1.0,1.0,-1.0,-6.0,-6.0,-1.0,-3.0,-3.0,-0.43988037109375,-0.25531005859375,0.65087890625,0.56365966796875,-0.28955078125,-0.8583984375,0.49462890625,-0.4375,0.5,0.1875
0.39000000000000024,0.0,-3.0,-7.0,-4.0,-5.0,-3.0,-2.0,-2.0,-0.4398193359375,-0.25531005859375,0.65087890625,0.56365966796875,-0.283203125,-0.84130859375,0.4912109375,0.8125,0.375,-0.0625
0.39500000000000024,0.0,-3.0,-7.0,-4.0,-5.0,-3.0,-2.0,-2.0,-0.4398193359375,-0.25531005859375,0.65087890625,0.56365966796875,-0.283203125,-0.84130859375,0.4912109375,0.8125,0.375,-0.0625
0.40000000000000024,0.0,-3.0,-7.0,-4.0,-5.0,-3.0,-2.0,-2.0,-0.4398193359375,-0.25531005859375,0.65087890625,0.56365966796875,-0.283203125,-0.84130859375,0.4912109375,0.8125,0.375,-0.0625
0.40500000000000025,-1.0,-2.0,3.0,-4.0,-3.0,-3.0,-2.0,-2.0,-0.4398193359375,-0.25531005859375,0.65087890625,0.56365966796875,-0.283203125,-0.84130859375,0.4912109375,0.8125,0.375,-0.0625
0.41000000000000025,-1.0,-2.0,3.0,-4.0,-3.0,-3.0,-2.0,-2.0,-0.4398193359375,-0.25531005859375,0.65087890625,0.56365966796875,-0.283203125,-0.84130859375,0.4912109375,0.8125,0.375,-0.0625
0.41500000000000026,-1.0,-2.0,3.0,-4.0,-3.0,-3.0,-2.0,-2.0,-0.4398193359375,-0.25531005859375,0.65087890625,0.56365966796875,-0.283203125,-0.84130859375,0.4912109375,0.8125,0.375,-0.0625
0.42000000000000026,0.0,-2.0,3.0,3.0,-1.0,2.0,1.0,0.0,-0.4398193359375,-0.25531005859375,0.65087890625,0.56365966796875,-0.28759765625,-0.841796875,0.4931640625,0.5625,0.3125,-0.125
0.42500000000000027,0.0,-2.0,3.0,3.0,-1.0,2.0,1.0,0.0,-0.4398193359375,-0.25531005859375,0.65087890625,0.56365966796875,-0.28759765625,-0.841796875,0.4931640625,0.5625,0.3125,-0.125
0.43000000000000027,0.0,-2.0,3.0,3.0,-1.0,2.0,1.0,0.0,-0.4398193359375,-0.25531005859375,0.65087890625,0.56365966796875,-0.28759765625,-0.841796875,0.4931640625,0.5625,0.3125,-0.125
0.4350000000000003,-2.0,-3.0,-2.0,-5.0,-2.0,-4.0,-3.0,0.0,-0.4398193359375,-0.25531005859375,0.65087890625,0.56365966796875,-0.28759765625,-0.841796875,0.4931640625,0.5625,0.3125,-0.125
0.4400000000000003,-2.0,-3.0,-2.0,-5.0,-2.0,-4.0,-3.0,0.0,-0.4398193359375,-0.25531005859375,0.65087890625,0.56365966796875,-0.28759765625,-0.841796875,0.4931640625,0.5625,0.3125,-0.125
0.4450000000000003,-3.0,1.0,-2.0,-4.0,-6.0,-4.0,-3.0,1.0,-0.4398193359375,-0.25531005859375,0.65087890625,0.56365966796875,-0.2861328125,-0.8359375,0.49072265625,-0.1875,0.4375,-0.125
0.4500000000000003,-3.0,1.0,-2.0,-4.0,-6.0,-4.0,-3.0,1.0,-0.4398193359375,-0.25531005859375,0.65087890625,0.56365966796875,-0.2861328125,-0.8359375,0.49072265625,-0.1875,0.4375,-0.125
0.4550000000000003,-3.0,1.0,-2.0,-4.0,-6.0,-4.0,-3.0,1.0,-0.4398193359375,-0.25531005859375,0.65087890625,0.56365966796875,-0.2861328125,-0.8359375,0.49072265625,-0.1875,0.4375,-0.125
0.4600000000000003,-6.0,-4.0,-9.0,-9.0,6.0,5.0,2.0,-3.0,-0.4398193359375,-0.25531005859375,0.65087890625,0.56365966796875,-0.2861328125,-0.8359375,0.49072265625,-0.1875,0.4375,-0.125
0.4650000000000003,-6.0,-4.0,-9.0,-9.0,6.0,5.0,2.0,-3.0,-0.4398193359375,-0.25531005859375,0.65087890625,0.56365966796875,-0.2890625,-0.84326171875,0.49560546875,0.0625,0.4375,0.0625
0.4700000000000003,-6.0,-4.0,-9.0,-9.0,6.0,5.0,2.0,-3.0,-0.4398193359375,-0.25531005859375,0.65087890625,0.56365966796875,-0.2890625,-0.84326171875,0.49560546875,0.0625,0.4375,0.0625
0.4750000000000003,0.0,0.0,-1.0,3.0,-2.0,1.0,-1.0,0.0,-0.4398193359375,-0.25531005859375,0.65087890625,0.56365966796875,-0.2890625,-0.84326171875,0.49560546875,0.0625,0.4375,0.0625
0.4800000000000003,0.0,0.0,-1.0,3.0,-2.0,1.0,-1.0,0.0,-0.4398193359375,-0.25531005859375,0.65087890625,0.56365966796875,-0.2890625,-0.84326171875,0.49560546875,0.0625,0.4375,0.0625
0.4850000000000003,-3.0,-2.0,-11.0,-5.0,-1.0,-5.0,-1.0,-1.0,-0.4398193359375,-0.25531005859375,0.65087890625,0.56365966796875,-0.2841796875,-0.84521484375,0.48974609375,-0.4375,0.4375,0.125
0.4900000000000003,-3.0,-2.0,-11.0,-5.0,-1.0,-5.0,-1.0,-1.0,-0.4398193359375,-0.25531005859375,0.65087890625,0.56365966796875,-0.2841796875,-0.84521484375,0.48974609375,-0.4375,0.4375,0.125
0.49500000000000033,-3.0,-2.0,-11.0,-5.0,-1.0,-5.0,-1.0,-1.0,-0.4398193359375,-0.25531005859375,0.65087890625,0.56365966796875,-0.2841796875,-0.84521484375,0.48974609375,-0.4375,0.4375,0.125
0.5000000000000003,-2.0,-2.0,-8.0,-12.0,-10.0,-1.0,-2.0,-3.0,-0.4398193359375,-0.25531005859375,0.65087890625,0.56365966796875,-0.2841796875,-0.84521484375,0.48974609375,-0.4375,0.4375,0.125
0.5050000000000003,-2.0,0.0,6.0,8.0,8.0,8.0,2.0,1.0,-0.4398193359375,-0.25531005859375,0.65087890625,0.56365966796875,-0.2890625,-0.8486328125,0.4990234375,0.875,0.4375,0.25
0.5100000000000003,-2.0,0.0,6.0,8.0,8.0,8.0,2.0,1.0,-0.4398193359375,-0.25531005859375,0.65087890625,0.56365966796875,-0.2890625,-0.8486328125,0.4990234375,0.875,0.4375,0.25
0.5150000000000003,-2.0,0.0,6.0,8.0,8.0,8.0,2.0,1.0,-0.4398193359375,-0.25531005859375,0.65087890625,0.56365966796875,-0.2890625,-0.8486328125,0.4990234375,0.875,0.4375,0.25
0.5200000000000004,-2.0,0.0,6.0,8.0,8.0,8.0,2.0,1.0,-0.4398193359375,-0.25531005859375,0.65087890625,0.56365966796875,-0.2890625,-0.8486328125,0.4990234375,0.875,0.4375,0.25
0.5250000000000004,-2.0,0.0,6.0,8.0,8.0,8.0,2.0,1.0,-0.4398193359375,-0.25531005859375,0.65087890625,0.56365966796875,-0.2890625,-0.8486328125,0.4990234375,0.875,0.4375,0.25
0.5300000000000004,-2.0,0.0,6.0,8.0,8.0,8.0,2.0,1.0,-0.4398193359375,-0.25531005859375,0.65087890625,0.56365966796875,-0.2890625,-0.8486328125,0.4990234375,0.875,0.4375,0.25
0.5350000000000004,-1.0,0.0,6.0,2.0,-2.0,-3.0,-2.0,-2.0,-0.4398193359375,-0.25531005859375,0.65087890625,0.56365966796875,-0.28759765625,-0.8427734375,0.49267578125,-0.3125,0.1875,0.25
0.5400000000000004,-2.0,-3.0,-2.0,-3.0,-8.0,-7.0,-1.0,-4.0,-0.4398193359375,-0.25531005859375,0.65087890625,0.56365966796875,-0.28759765625,-0.8427734375,0.49267578125,-0.3125,0.1875,0.25
0.5450000000000004,-2.0,-3.0,-2.0,-3.0,-8.0,-7.0,-1.0,-4.0,-0.4398193359375,-0.25531005859375,0.65087890625,0.56365966796875,-0.28759765625,-0.8427734375,0.49267578125,-0.3125,0.1875,0.25
0.5500000000000004,-3.0,-1.0,2.0,-5.0,-4.0,0.0,1.0,-1.0,-0.43975830078125,-0.25531005859375,0.65087890625,0.56365966796875,-0.287109375,-0.84033203125,0.49072265625,0.5625,0.4375,0.1875
0.5550000000000004,-3.0,-1.0,2.0,-5.0,-4.0,0.0,1.0,-1.0,-0.43975830078125,-0.25531005859375,0.65087890625,0.56365966796875,-0.287109375,-0.84033203125,0.49072265625,0.5625,0.4375,0.1875
0.5600000000000004,-3.0,-1.0,2.0,-5.0,-4.0,0.0,1.0,-1.0,-0.43975830078125,-0.25531005859375,0.65087890625,0.56365966796875,-0.287109375,-0.84033203125,0.49072265625,0.5625,0.4375,0.1875
0.5650000000000004,-1.0,0.0,1.0,6.0,6.0,2.0,1.0,0.0,-0.43975830078125,-0.25531005859375,0.65087890625,0.56365966796875,-0.287109375,-0.84033203125,0.49072265625,0.5625,0.4375,0.1875
0.5700000000000004,-1.0,0.0,1.0,6.0,6.0,2.0,1.0,0.0,-0.43975830078125,-0.25531005859375,0.65087890625,0.56365966796875,-0.287109375,-0.84033203125,0.49072265625,0.5625,0.4375,0.1875
0.5750000000000004,1.0,-2.0,3.0,5.0,-5.0,-6.0,-1.0,-2.0,-0.43975830078125,-0.25531005859375,0.65087890625,0.56365966796875,-0.28857421875,-0.84765625,0.4970703125,-0.125,0.3125,0.25
0.5800000000000004,1.0,-2.0,3.0,5.0,-5.0,-6.0,-1.0,-2.0,-0.43975830078125,-0.25531005859375,0.65087890625,0.56365966796875,-0.28857421875,-0.84765625,0.4970703125,-0.125,0.3125,0.25
0.5850000000000004,-1.0,1.0,4.0,-7.0,-7.0,-7.0,-1.0,-1.0,-0.43975830078125,-0.25531005859375,0.65087890625,0.56365966796875,-0.28857421875,-0.845703125,0.48681640625,-0.25,0.8125,-0.0625
0.5900000000000004,1.0,2.0,9.0,5.0,8.0,6.0,4.0,1.0,-0.43975830078125,-0.25531005859375,0.65087890625,0.56365966796875,-0.28857421875,-0.845703125,0.48681640625,-0.25,0.8125,-0.0625
0.5950000000000004,1.0,2.0,9.0,5.0,8.0,6.0,4.0,1.0,-0.43975830078125,-0.25531005859375,0.65087890625,0.56365966796875,-0.28857421875,-0.845703125,0.48681640625,-0.25,0.8125,-0.0625
0.6000000000000004,1.0,2.0,9.0,5.0,8.0,6.0,4.0,1.0,-0.43975830078125,-0.25531005859375,0.65087890625,0.56365966796875,-0.28857421875,-0.845703125,0.48681640625,-0.25,0.8125,-0.0625
0.6050000000000004,1.0,2.0,9.0,5.0,8.0,6.0,4.0,1.0,-0.43975830078125,-0.25531005859375,0.65087890625,0.56365966796875,-0.28857421875,-0.845703125,0.48681640625,-0.25,0.8125,-0.0625
0.6100000000000004,-1.0,-2.0,5.0,6.0,-2.0,1.0,-2.0,0.0,-0.43975830078125,-0.25531005859375,0.65087890625,0.56365966796875,-0.28857421875,-0.845703125,0.48681640625,-0.25,0.8125,-0.0625
0.6150000000000004,0.0,-4.0,-5.0,-4.0,-3.0,-4.0,-4.0,-2.0,-0.43975830078125,-0.25537109375,0.65087890625,0.563720703125,-0.283203125,-0.84619140625,0.49658203125,0.625,0.75,-0.25
0.6200000000000004,0.0,-4.0,-5.0,-4.0,-3.0,-4.0,-4.0,-2.0,-0.43975830078125,-0.25537109375,0.65087890625,0.563720703125,-0.283203125,-0.84619140625,0.49658203125,0.625,0.75,-0.25
0.6250000000000004,0.0,-4.0,-5.0,-4.0,-3.0,-4.0,-4.0,-2.0,-0.43975830078125,-0.25537109375,0.65087890625,0.563720703125,-0.283203125,-0.84619140625,0.49658203125,0.625,0.75,-0.25
0.6300000000000004,0.0,2.0,1.0,0.0,-3.0,-3.0,-2.0,0.0,-0.43975830078125,-0.25537109375,0.65087890625,0.563720703125,-0.283203125,-0.84619140625,0.49658203125,0.625,0.75,-0.25
0.6350000000000005,0.0,2.0,1.0,0.0,-3.0,-3.0,-2.0,0.0,-0.43975830078125,-0.25537109375,0.65087890625,0.563720703125,-0.283203125,-0.84619140625,0.49658203125,0.625,0.75,-0.25
0.6400000000000005,0.0,2.0,1.0,0.0,-3.0,-3.0,-2.0,0.0,-0.43975830078125,-0.25531005859375,0.65087890625,0.563720703125,-0.29052734375,-0.83740234375,0.49169921875,0.625,0.75,-0.375
0.6450000000000005,0.0,2.0,1.0,0.0,-3.0,-3.0,-2.0,0.0,-0.43975830078125,-0.25531005859375,0.65087890625,0.563720703125,-0.29052734375,-0.83740234375,0.49169921875,0.625,0.75,-0.375
0.6500000000000005,0.0,-1.0,7.0,12.0,5.0,6.0,0.0,0.0,-0.43975830078125,-0.25531005859375,0.65087890625,0.563720703125,-0.29052734375,-0.83740234375,0.49169921875,0.625,0.75,-0.375
0.6550000000000005,0.0,-1.0,7.0,12.0,5.0,6.0,0.0,0.0,-0.43975830078125,-0.25531005859375,0.65087890625,0.563720703125,-0.29052734375,-0.83740234375,0.49169921875,0.625,0.75,-0.375
0.6600000000000005,-2.0,-1.0,0.0,0.0,2.0,6.0,1.0,-1.0,-0.43975830078125,-0.25531005859375,0.65087890625,0.563720703125,-0.291015625,-0.849609375,0.4970703125,-0.0625,0.375,0.0625
0.6650000000000005,-2.0,-1.0,0.0,0.0,2.0,6.0,1.0,-1.0,-0.43975830078125,-0.25531005859375,0.65087890625,0.563720703125,-0.291015625,-0.849609375,0.4970703125,-0.0625,0.375,0.0625
0.6700000000000005,0.0,-3.0,-1.0,-2.0,-2.0,-5.0,-1.0,-3.0,-0.43975830078125,-0.25531005859375,0.65087890625,0.563720703125,-0.291015625,-0.849609375,0.4970703125,-0.0625,0.375,0.0625
0.6750000000000005,0.0,-3.0,-1.0,-2.0,-2.0,-5.0,-1.0,-3.0,-0.43975830078125,-0.25531005859375,0.65087890625,0.563720703125,-0.291015625,-0.849609375,0.4970703125,-0.0625,0.375,0.0625
0.6800000000000005,0.0,-3.0,-1.0,-2.0,-2.0,-5.0,-1.0,-3.0,-0.43975830078125,-0.25531005859375,0.65087890625,0.563720703125,-0.291015625,-0.849609375,0.4970703125,-0.0625,0.375,0.0625
0.6850000000000005,0.0,-3.0,-1.0,-2.0,-2.0,-5.0,-1.0,-3.0,-0.43975830078125,-0.25531005859375,0.65087890625,0.563720703125,-0.291015625,-0.849609375,0.4970703125,-0.0625,0.375,0.0625
0.6900000000000005,-5.0,-1.0,6.0,-1.0,-10.0,-3.0,-2.0,-3.0,-0.43975830078125,-0.25531005859375,0.65087890625,0.563720703125,-0.2890625,-0.841796875,0.49462890625,-0.375,0.6875,0.0625
0.6950000000000005,-5.0,-1.0,6.0,-1.0,-10.0,-3.0,-2.0,-3.0,-0.43975830078125,-0.25531005859375,0.65087890625,0.563720703125,-0.2890625,-0.841796875,0.49462890625,-0.375,0.6875,0.0625
0.7000000000000005,-5.0,-1.0,6.0,-1.0,-10.0,-3.0,-2.0,-3.0,-0.43975830078125,-0.25531005859375,0.65087890625,0.563720703125,-0.2890625,-0.841796875,0.49462890625,-0.375,0.6875,0.0625
0.7050000000000005,-2.0,0.0,-8.0,0.0,4.0,3.0,2.0,0.0,-0.43975830078125,-0.25531005859375,0.65087890625,0.563720703125,-0.2890625,-0.841796875,0.49462890625,-0.375,0.6875,0.0625
0.7100000000000005,-2.0,0.0,-8.0,0.0,4.0,3.0,2.0,0.0,-0.43975830078125,-0.25531005859375,0.65087890625,0.563720703125,-0.2890625,-0.841796875,0.49462890625,-0.375,0.6875,0.0625
0.7150000000000005,-2.0,0.0,-8.0,0.0,4.0,3.0,2.0,0.0,-0.43975830078125,-0.25537109375,0.65087890625,0.563720703125,-0.2890625,-0.85107421875,0.490234375,0.3125,0.875,0.125
0.7200000000000005,0.0,-1.0,-8.0,-5.0,-1.0,-3.0,-3.0,-2.0,-0.43975830078125,-0.25537109375,0.65087890625,0.563720703125,-0.2890625,-0.85107421875,0.490234375,0.3125,0.875,0.125
0.7250000000000005,0.0,-1.0,-8.0,-5.0,-1.0,-3.0,-3.0,-2.0,-0.43975830078125,-0.25537109375,0.65087890625,0.563720703125,-0.2890625,-0.85107421875,0.490234375,0.3125,0.875,0.125
0.7300000000000005,0.0,-1.0,-8.0,-5.0,-1.0,-3.0,-3.0,-2.0,-0.43975830078125,-0.25537109375,0.65087890625,0.563720703125,-0.2890625,-0.85107421875,0.490234375,0.3125,0.875,0.125
0.7350000000000005,0.0,-1.0,-8.0,-5.0,-1.0,-3.0,-3.0,-2.0,-0.43975830078125,-0.25537109375,0.65087890625,0.563720703125,-0.2890625,-0.85107421875,0.490234375,0.3125,0.875,0.125
0.7400000000000005,0.0,-1.0,1.0,-1.0,-5.0,-3.0,2.0,-2.0,-0.43975830078125,-0.25537109375,0.65087890625,0.563720703125,-0.2841796875,-0.8408203125,0.490234375,0.25,0.5,0.5
0.7450000000000006,-1.0,0.0,-6.0,-5.0,-3.0,-6.0,-3.0,-1.0,-0.43975830078125,-0.25537109375,0.65087890625,0.563720703125,-0.2841796875,-0.8408203125,0.490234375,0.25,0.5,0.5
0.7500000000000006,-1.0,0.0,-6.0,-5.0,-3.0,-6.0,-3.0,-1.0,-0.43975830078125,-0.25537109375,0.65087890625,0.563720703125,-0.2841796875,-0.8408203125,0.490234375,0.25,0.5,0.5
0.7550000000000006,-1.0,0.0,-6.0,-5.0,-3.0,-6.0,-3.0,-1.0,-0.43975830078125,-0.25537109375,0.65087890625,0.563720703125,-0.2841796875,-0.8408203125,0.490234375,0.25,0.5,0.5
0.7600000000000006,-1.0,0.0,-6.0,-5.0,-3.0,-6.0,-3.0,-1.0,-0.43975830078125,-0.25537109375,0.65087890625,0.563720703125,-0.2841796875,-0.8408203125,0.490234375,0.25,0.5,0.5
0.7650000000000006,-1.0,0.0,-6.0,-5.0,-3.0,-6.0,-3.0,-1.0,-0.43975830078125,-0.25537109375,0.65087890625,0.563720703125,-0.2841796875,-0.8408203125,0.490234375,0.25,0.5,0.5
0.7700000000000006,0.0,-6.0,-10.0,-13.0,-1.0,-1.0,-1.0,0.0,-0.43975830078125,-0.25537109375,0.65087890625,0.563720703125,-0.2880859375,-0.8408203125,0.4951171875,0.75,0.1875,0.75
0.7750000000000006,0.0,-1.0,-7.0,-4.0,2.0,8.0,0.0,0.0,-0.43975830078125,-0.25537109375,0.65087890625,0.563720703125,-0.2880859375,-0.8408203125,0.4951171875,0.75,0.1875,0.75
0.7800000000000006,0.0,-1.0,-7.0,-4.0,2.0,8.0,0.0,0.0,-0.43975830078125,-0.25537109375,0.65087890625,0.563720703125,-0.2880859375,-0.8408203125,0.4951171875,0.75,0.1875,0.75
0.7850000000000006,0.0,-1.0,-7.0,-4.0,2.0,8.0,0.0,0.0,-0.439697265625,-0.25531005859375,0.65087890625,0.563720703125,-0.2900390625,-0.83447265625,0.49462890625,-0.8125,0.5625,0.625
0.7900000000000006,0.0,-1.0,-7.0,-4.0,2.0,8.0,0.0,0.0,-0.439697265625,-0.25531005859375,0.65087890625,0.563720703125,-0.2900390625,-0.83447265625,0.49462890625,-0.8125,0.5625,0.625
0.7950000000000006,0.0,0.0,-5.0,-9.0,-8.0,-8.0,-3.0,-1.0,-0.439697265625,-0.25531005859375,0.65087890625,0.563720703125,-0.2900390625,-0.83447265625,0.49462890625,-0.8125,0.5625,0.625
0.8000000000000006,0.0,0.0,-5.0,-9.0,-8.0,-8.0,-3.0,-1.0,-0.439697265625,-0.25531005859375,0.65087890625,0.563720703125,-0.2900390625,-0.83447265625,0.49462890625,-0.8125,0.5625,0.625
0.8050000000000006,0.0,0.0,-5.0,-9.0,-8.0,-8.0,-3.0,-1.0,-0.439697265625,-0.25531005859375,0.65087890625,0.563720703125,-0.2900390625,-0.83447265625,0.49462890625,-0.8125,0.5625,0.625
0.8100000000000006,0.0,0.0,-5.0,-9.0,-8.0,-8.0,-3.0,-1.0,-0.439697265625,-0.25531005859375,0.65087890625,0.563720703125,-0.2900390625,-0.83447265625,0.49462890625,-0.8125,0.5625,0.625
0.8150000000000006,1.0,1.0,7.0,4.0,3.0,5.0,3.0,-1.0,-0.439697265625,-0.25531005859375,0.65087890625,0.563720703125,-0.29052734375,-0.84326171875,0.498046875,0.3125,0.5,0.4375
0.8200000000000006,1.0,1.0,7.0,4.0,3.0,5.0,3.0,-1.0,-0.439697265625,-0.25531005859375,0.65087890625,0.563720703125,-0.29052734375,-0.84326171875,0.498046875,0.3125,0.5,0.4375
0.8250000000000006,1.0,0.0,-3.0,-3.0,6.0,-2.0,0.0,-1.0,-0.439697265625,-0.25531005859375,0.65087890625,0.563720703125,-0.29052734375,-0.84326171875,0.498046875,0.3125,0.5,0.4375
0.8300000000000006,1.0,0.0,-3.0,-3.0,6.0,-2.0,0.0,-1.0,-0.439697265625,-0.25531005859375,0.65087890625,0.563720703125,-0.29052734375,-0.84326171875,0.498046875,0.3125,0.5,0.4375
0.8350000000000006,1.0,0.0,-3.0,-3.0,6.0,-2.0,0.0,-1.0,-0.439697265625,-0.25531005859375,0.65087890625,0.563720703125,-0.28662109375,-0.83740234375,0.49365234375,0.0625,0.0625,-0.125
0.8400000000000006,1.0,0.0,-3.0,-3.0,6.0,-2.0,0.0,-1.0,-0.439697265625,-0.25531005859375,0.65087890625,0.563720703125,-0.28662109375,-0.83740234375,0.49365234375,0.0625,0.0625,-0.125
0.8450000000000006,-1.0,-2.0,1.0,-4.0,-4.0,-6.0,-3.0,-2.0,-0.439697265625,-0.25531005859375,0.65087890625,0.563720703125,-0.28662109375,-0.83740234375,0.49365234375,0.0625,0.0625,-0.125
0.8500000000000006,-1.0,-2.0,1.0,-4.0,-4.0,-6.0,-3.0,-2.0,-0.439697265625,-0.25531005859375,0.65087890625,0.563720703125,-0.28662109375,-0.83740234375,0.49365234375,0.0625,0.0625,-0.125
0.8550000000000006,0.0,0.0,0.0,2.0,-1.0,0.0,-1.0,-2.0,-0.439697265625,-0.25531005859375,0.65087890625,0.563720703125,-0.28662109375,-0.83740234375,0.49365234375,0.0625,0.0625,-0.125
0.8600000000000007,0.0,0.0,0.0,2.0,-1.0,0.0,-1.0,-2.0,-0.439697265625,-0.25531005859375,0.65087890625,0.563720703125,-0.28662109375,-0.83740234375,0.49365234375,0.0625,0.0625,-0.125
0.8650000000000007,0.0,0.0,0.0,2.0,-1.0,0.0,-1.0,-2.0,-0.439697265625,-0.25531005859375,0.65087890625,0.563720703125,-0.28857421875,-0.83740234375,0.49267578125,0.0,-0.1875,-0.0625
0.8700000000000007,0.0,0.0,0.0,2.0,-1.0,0.0,-1.0,-2.0,-0.439697265625,-0.25531005859375,0.65087890625,0.563720703125,-0.28857421875,-0.83740234375,0.49267578125,0.0,-0.1875,-0.0625
0.8750000000000007,-2.0,0.0,-2.0,0.0,-2.0,-3.0,-3.0,-1.0,-0.439697265625,-0.25531005859375,0.65087890625,0.563720703125,-0.28857421875,-0.83740234375,0.49267578125,0.0,-0.1875,-0.0625
0.8800000000000007,-1.0,-1.0,-2.0,-1.0,7.0,1.0,1.0,-1.0,-0.439697265625,-0.25531005859375,0.65087890625,0.563720703125,-0.28857421875,-0.83740234375,0.49267578125,0.0,-0.1875,-0.0625
0.8850000000000007,-1.0,-1.0,-2.0,-1.0,7.0,1.0,1.0,-1.0,-0.439697265625,-0.25531005859375,0.65087890625,0.563720703125,-0.28857421875,-0.83740234375,0.49267578125,0.0,-0.1875,-0.0625
0.8900000000000007,-1.0,-1.0,-2.0,-1.0,7.0,1.0,1.0,-1.0,-0.439697265625,-0.25531005859375,0.65087890625,0.563720703125,-0.28759765625,-0.84375,0.4951171875,0.4375,-0.1875,-0.3125
0.8950000000000007,-1.0,0.0,-1.0,4.0,10.0,3.0,2.0,-1.0,-0.439697265625,-0.25531005859375,0.65087890625,0.563720703125,-0.28759765625,-0.84375,0.4951171875,0.4375,-0.1875,-0.3125
0.9000000000000007,-4.0,-1.0,-2.0,-5.0,-11.0,-10.0,-4.0,0.0,-0.439697265625,-0.25531005859375,0.65087890625,0.563720703125,-0.28759765625,-0.84375,0.4951171875,0.4375,-0.1875,-0.3125
0.9050000000000007,-4.0,-1.0,-2.0,-5.0,-11.0,-10.0,-4.0,0.0,-0.439697265625,-0.25531005859375,0.65087890625,0.563720703125,-0.28759765625,-0.84375,0.4951171875,0.4375,-0.1875,-0.3125
0.9100000000000007,-4.0,-1.0,-2.0,-5.0,-11.0,-10.0,-4.0,0.0,-0.43963623046875,-0.25531005859375,0.65093994140625,0.563720703125,-0.2890625,-0.84130859375,0.49560546875,-0.4375,0.0,-0.4375
0.9150000000000007,-4.0,-1.0,-2.0,-5.0,-11.0,-10.0,-4.0,0.0,-0.43963623046875,-0.25531005859375,0.65093994140625,0.563720703125,-0.2890625,-0.84130859375,0.49560546875,-0.4375,0.0,-0.4375
0.9200000000000007,-1.0,-1.0,6.0,2.0,1.0,-6.0,-1.0,-3.0,-0.43963623046875,-0.25531005859375,0.65093994140625,0.563720703125,-0.2890625,-0.84130859375,0.49560546875,-0.4375,0.0,-0.4375
0.9250000000000007,-1.0,-1.0,6.0,2.0,1.0,-6.0,-1.0,-3.0,-0.43963623046875,-0.25531005859375,0.65093994140625,0.563720703125,-0.2890625,-0.84130859375,0.49560546875,-0.4375,0.0,-0.4375
0.9300000000000007,-2.0,-1.0,7.0,5.0,5.0,8.0,3.0,1.0,-0.43963623046875,-0.25531005859375,0.65093994140625,0.563720703125,-0.2890625,-0.84130859375,0.49560546875,-0.4375,0.0,-0.4375
0.9350000000000007,-2.0,-1.0,7.0,5.0,5.0,8.0,3.0,1.0,-0.43963623046875,-0.25531005859375,0.65087890625,0.563720703125,-0.2861328125,-0.84814453125,0.494140625,0.25,-0.4375,-0.5625
0.9400000000000007,-2.0,-1.0,7.0,5.0,5.0,8.0,3.0,1.0,-0.43963623046875,-0.25531005859375,0.65087890625,0.563720703125,-0.2861328125,-0.84814453125,0.494140625,0.25,-0.4375,-0.5625
0.9450000000000007,-1.0,-2.0,-2.0,-5.0,-2.0,-2.0,-2.0,-2.0,-0.43963623046875,-0.25531005859375,0.65087890625,0.563720703125,-0.2861328125,-0.84814453125,0.494140625,0.25,-0.4375,-0.5625
0.9500000000000007,-1.0,-1.0,-1.0,-1.0,-2.0,-5.0,-3.0,-2.0,-0.43963623046875,-0.25531005859375,0.65087890625,0.563720703125,-0.2861328125,-0.84814453125,0.494140625,0.25,-0.4375,-0.5625
0.9550000000000007,-1.0,-1.0,-1.0,-1.0,-2.0,-5.0,-3.0,-2.0,-0.43963623046875,-0.25531005859375,0.65087890625,0.563720703125,-0.2861328125,-0.84814453125,0.494140625,0.25,-0.4375,-0.5625
0.9600000000000007,-2.0,-3.0,-5.0,-4.0,-10.0,-2.0,-2.0,-2.0,-0.43963623046875,-0.25531005859375,0.65087890625,0.563720703125,-0.28662109375,-0.841796875,0.48779296875,0.0625,-0.4375,-0.3125
0.9650000000000007,-2.0,-3.0,-5.0,-4.0,-10.0,-2.0,-2.0,-2.0,-0.43963623046875,-0.25531005859375,0.65087890625,0.563720703125,-0.28662109375,-0.841796875,0.48779296875,0.0625,-0.4375,-0.3125
0.9700000000000008,-3.0,1.0,-4.0,-1.0,-3.0,0.0,-1.0,0.0,-0.43963623046875,-0.25531005859375,0.65087890625,0.563720703125,-0.28662109375,-0.841796875,0.48779296875,0.0625,-0.4375,-0.3125
0.9750000000000008,-2.0,-2.0,-6.0,-4.0,-5.0,-1.0,-1.0,0.0,-0.43963623046875,-0.25531005859375,0.65087890625,0.563720703125,-0.28662109375,-0.841796875,0.48779296875,0.0625,-0.4375,-0.3125
0.9800000000000008,-2.0,-2.0,-6.0,-4.0,-5.0,-1.0,-1.0,0.0,-0.43963623046875,-0.25531005859375,0.65087890625,0.56378173828125,-0.28662109375,-0.84130859375,0.49560546875,0.1875,-0.125,0.125
0.9850000000000008,-1.0,-2.0,6.0,1.0,8.0,4.0,-1.0,-1.0,-0.43963623046875,-0.25531005859375,0.65087890625,0.56378173828125,-0.28662109375,-0.84130859375,0.49560546875,0.1875,-0.125,0.125
0.9900000000000008,-1.0,-2.0,6.0,1.0,8.0,4.0,-1.0,-1.0,-0.43963623046875,-0.25531005859375,0.65087890625,0.56378173828125,-0.28662109375,-0.84130859375,0.49560546875,0.1875,-0.125,0.125
0.9950000000000008,-3.0,-2.0,2.0,4.0,1.0,3.0,0.0,-1.0,-0.43963623046875,-0.25531005859375,0.65087890625,0.56378173828125,-0.28662109375,-0.84130859375,0.49560546875,0.1875,-0.125,0.125
1.0000000000000007,-3.0,-2.0,2.0,4.0,1.0,3.0,0.0,-1.0,-0.43963623046875,-0.25531005859375,0.65087890625,0.56378173828125,-0.28662109375,-0.84130859375,0.49560546875,0.1875,-0.125,0.125
1.0050000000000006,-3.0,-2.0,2.0,4.0,1.0,3.0,0.0,-1.0,-0.43963623046875,-0.25531005859375,0.65087890625,0.56378173828125,-0.28564453125,-0.84375,0.494140625,0.0625,0.0625,0.1875
1.0100000000000005,-1.0,-2.0,-4.0,-2.0,-5.0,-3.0,-2.0,-2.0,-0.43963623046875,-0.25531005859375,0.65087890625,0.56378173828125,-0.28564453125,-0.84375,0.494140625,0.0625,0.0625,0.1875
1.0150000000000003,-1.0,-1.0,2.0,-7.0,-10.0,-3.0,-4.0,-3.0,-0.43963623046875,-0.25531005859375,0.65087890625,0.56378173828125,-0.28564453125,-0.84375,0.494140625,0.0625,0.0625,0.1875
1.0200000000000002,-1.0,-1.0,2.0,-7.0,-10.0,-3.0,-4.0,-3.0,-0.43963623046875,-0.25531005859375,0.65087890625,0.56378173828125,-0.28564453125,-0.84375,0.494140625,0.0625,0.0625,0.1875
1.0250000000000001,-1.0,-1.0,2.0,-7.0,-10.0,-3.0,-4.0,-3.0,-0.43963623046875,-0.25531005859375,0.65087890625,0.56378173828125,-0.28564453125,-0.84375,0.494140625,0.0625,0.0625,0.1875
1.03,-4.0,-1.0,-14.0,-5.0,3.0,7.0,4.0,-1.0,-0.43963623046875,-0.25531005859375,0.65087890625,0.56378173828125,-0.28955078125,-0.8486328125,0.49609375,0.5625,0.1875,0.0625
1.035,2.0,0.0,-8.0,-1.0,4.0,2.0,0.0,-1.0,-0.43963623046875,-0.25531005859375,0.65087890625,0.56378173828125,-0.28955078125,-0.8486328125,0.49609375,0.5625,0.1875,0.0625
1.0399999999999998,2.0,0.0,-8.0,-1.0,4.0,2.0,0.0,-1.0,-0.43963623046875,-0.25531005859375,0.65087890625,0.56378173828125,-0.28271484375,-0.8408203125,0.4951171875,0.0625,0.0,-0.0625
1.0449999999999997,2.0,0.0,-8.0,-1.0,4.0,2.0,0.0,-1.0,-0.43963623046875,-0.25531005859375,0.65087890625,0.56378173828125,-0.28271484375,-0.8408203125,0.4951171875,0.0625,0.0,-0.0625
1.0499999999999996,-2.0,-3.0,1.0,-1.0,-5.0,-5.0,-3.0,-1.0,-0.43963623046875,-0.25531005859375,0.65087890625,0.56378173828125,-0.28271484375,-0.8408203125,0.4951171875,0.0625,0.0,-0.0625
1.0549999999999995,0.0,-1.0,1.0,1.0,-1.0,-5.0,0.0,0.0,-0.43963623046875,-0.25531005859375,0.65087890625,0.56378173828125,-0.28271484375,-0.8408203125,0.4951171875,0.0625,0.0,-0.0625
1.0599999999999994,0.0,-1.0,1.0,1.0,-1.0,-5.0,0.0,0.0,-0.4395751953125,-0.25531005859375,0.65087890625,0.56378173828125,-0.28662109375,-0.8408203125,0.49609375,0.375,-0.0625,0.0625
1.0649999999999993,0.0,-1.0,1.0,1.0,-1.0,-5.0,0.0,0.0,-0.4395751953125,-0.25531005859375,0.65087890625,0.56378173828125,-0.28662109375,-0.8408203125,0.49609375,0.375,-0.0625,0.0625
1.0699999999999992,-1.0,-2.0,-11.0,-1.0,-1.0,2.0,0.0,-2.0,-0.4395751953125,-0.25531005859375,0.65087890625,0.56378173828125,-0.28662109375,-0.8408203125,0.49609375,0.375,-0.0625,0.0625
1.074999999999999,-1.0,-2.0,-11.0,-1.0,-1.0,2.0,0.0,-2.0,-0.4395751953125,-0.25531005859375,0.65087890625,0.56378173828125,-0.28662109375,-0.8408203125,0.49609375,0.375,-0.0625,0.0625
1.079999999999999,-1.0,-2.0,-11.0,-1.0,-1.0,2.0,0.0,-2.0,-0.4395751953125,-0.25531005859375,0.65087890625,0.56378173828125,-0.28662109375,-0.8408203125,0.49609375,0.375,-0.0625,0.0625
1.0849999999999989,-3.0,-1.0,0.0,3.0,-6.0,-5.0,-4.0,-1.0,-0.4395751953125,-0.25531005859375,0.65093994140625,0.56378173828125,-0.2880859375,-0.84765625,0.498046875,-0.3125,0.0625,0.125
1.0899999999999987,-1.0,-1.0,1.0,-6.0,-8.0,-6.0,-4.0,-1.0,-0.4395751953125,-0.25531005859375,0.65093994140625,0.56378173828125,-0.2880859375,-0.84765625,0.498046875,-0.3125,0.0625,0.125
1.0949999999999986,-1.0,-1.0,1.0,-6.0,-8.0,-6.0,-4.0,-1.0,-0.4395751953125,-0.25531005859375,0.65093994140625,0.56378173828125,-0.2880859375,-0.84765625,0.498046875,-0.3125,0.0625,0.125
1.0999999999999985,-1.0,-1.0,1.0,-6.0,-8.0,-6.0,-4.0,-1.0,-0.4395751953125,-0.25531005859375,0.65093994140625,0.56378173828125,-0.2880859375,-0.84765625,0.498046875,-0.3125,0.0625,0.125
1.1049999999999984,-1.0,-1.0,1.0,-6.0,-8.0,-6.0,-4.0,-1.0,-0.4395751953125,-0.25531005859375,0.65093994140625,0.56378173828125,-0.28759765625,-0.84716796875,0.498046875,0.5625,0.375,-0.1875
1.1099999999999983,-1.0,-1.0,1.0,-6.0,-8.0,-6.0,-4.0,-1.0,-0.4395751953125,-0.25531005859375,0.65093994140625,0.56378173828125,-0.28759765625,-0.84716796875,0.498046875,0.5625,0.375,-0.1875
1.1149999999999982,1.0,-1.0,-4.0,-2.0,5.0,5.0,1.0,-1.0,-0.4395751953125,-0.25531005859375,0.65093994140625,0.56378173828125,-0.28759765625,-0.84716796875,0.498046875,0.5625,0.375,-0.1875
1.119999999999998,-2.0,2.0,2.0,-1.0,-2.0,0.0,-2.0,0.0,-0.4395751953125,-0.25531005859375,0.65093994140625,0.56378173828125,-0.28759765625,-0.84716796875,0.498046875,0.5625,0.375,-0.1875
1.124999999999998,-2.0,2.0,2.0,-1.0,-2.0,0.0,-2.0,0.0,-0.4395751953125,-0.25531005859375,0.65093994140625,0.56378173828125,-0.28369140625,-0.83544921875,0.48974609375,0.625,0.1875,-0.375
1.129999999999998,-2.0,2.0,2.0,-1.0,-2.0,0.0,-2.0,0.0,-0.4395751953125,-0.25531005859375,0.65093994140625,0.56378173828125,-0.28369140625,-0.83544921875,0.48974609375,0.625,0.1875,-0.375
1.1349999999999978,-2.0,2.0,2.0,-1.0,-2.0,0.0,-2.0,0.0,-0.4395751953125,-0.25531005859375,0.65093994140625,0.56378173828125,-0.28369140625,-0.83544921875,0.48974609375,0.625,0.1875,-0.375
1.1399999999999977,0.0,-2.0,-7.0,-5.0,-4.0,-5.0,-2.0,0.0,-0.4395751953125,-0.25531005859375,0.65093994140625,0.56378173828125,-0.28369140625,-0.83544921875,0.48974609375,0.625,0.1875,-0.375
1.1449999999999976,0.0,-2.0,-7.0,-5.0,-4.0,-5.0,-2.0,0.0,-0.4395751953125,-0.25531005859375,0.65093994140625,0.56378173828125,-0.28369140625,-0.83544921875,0.48974609375,0.625,0.1875,-0.375
1.1499999999999975,-1.0,0.0,-8.0,4.0,15.0,8.0,2.0,1.0,-0.43951416015625,-0.25531005859375,0.65093994140625,0.5638427734375,-0.283203125,-0.841796875,0.49951171875,0.25,0.0,-0.1875
1.1549999999999974,-1.0,0.0,-8.0,4.0,15.0,8.0,2.0,1.0,-0.43951416015625,-0.25531005859375,0.65093994140625,0.5638427734375,-0.283203125,-0.841796875,0.49951171875,0.25,0.0,-0.1875
1.1599999999999973,-1.0,0.0,7.0,1.0,3.0,4.0,1.0,0.0,-0.43951416015625,-0.25531005859375,0.65093994140625,0.5638427734375,-0.283203125,-0.841796875,0.49951171875,0.25,0.0,-0.1875
1.1649999999999971,-1.0,0.0,7.0,1.0,3.0,4.0,1.0,0.0,-0.43951416015625,-0.25531005859375,0.65093994140625,0.5638427734375,-0.28466796875,-0.84375,0.4951171875,-0.75,-0.0625,0.0
1.169999999999997,2.0,-2.0,5.0,-3.0,-12.0,-4.0,-3.0,-3.0,-0.43951416015625,-0.25531005859375,0.65093994140625,0.5638427734375,-0.28466796875,-0.84375,0.4951171875,-0.75,-0.0625,0.0
1.174999999999997,-1.0,-2.0,1.0,0.0,-1.0,-1.0,-3.0,-1.0,-0.43951416015625,-0.25531005859375,0.65093994140625,0.5638427734375,-0.28466796875,-0.84375,0.4951171875,-0.75,-0.0625,0.0
1.1799999999999968,-1.0,-2.0,1.0,0.0,-1.0,-1.0,-3.0,-1.0,-0.43951416015625,-0.25531005859375,0.65093994140625,0.5638427734375,-0.28466796875,-0.84375,0.4951171875,-0.75,-0.0625,0.0
1.1849999999999967,-1.0,-2.0,1.0,0.0,-1.0,-1.0,-3.0,-1.0,-0.43951416015625,-0.25537109375,0.65093994140625,0.5638427734375,-0.28857421875,-0.84765625,0.4951171875,0.5,-0.0625,0.25
1.1899999999999966,-1.0,-2.0,1.0,0.0,-1.0,-1.0,-3.0,-1.0,-0.43951416015625,-0.25537109375,0.65093994140625,0.5638427734375,-0.28857421875,-0.84765625,0.4951171875,0.5,-0.0625,0.25
1.1949999999999965,-2.0,-1.0,-4.0,-4.0,-15.0,-9.0,-3.0,-1.0,-0.43951416015625,-0.25537109375,0.65093994140625,0.5638427734375,-0.28857421875,-0.84765625,0.4951171875,0.5,-0.0625,0.25
1.1999999999999964,0.0,-1.0,0.0,-1.0,5.0,1.0,3.0,0.0,-0.43951416015625,-0.25537109375,0.65093994140625,0.5638427734375,-0.28857421875,-0.84765625,0.4951171875,0.5,-0.0625,0.25
1.2049999999999963,0.0,-1.0,0.0,-1.0,5.0,1.0,3.0,0.0,-0.43951416015625,-0.25537109375,0.65093994140625,0.5638427734375,-0.28857421875,-0.84765625,0.4951171875,0.5,-0.0625,0.25
1.2099999999999962,0.0,-1.0,0.0,-1.0,5.0,1.0,3.0,0.0,-0.43951416015625,-0.25537109375,0.65093994140625,0.5638427734375,-0.28857421875,-0.84765625,0.4951171875,0.5,-0.0625,0.25
1.214999999999996,-1.0,0.0,1.0,-5.0,-4.0,-3.0,-3.0,0.0,-0.43951416015625,-0.25537109375,0.65093994140625,0.5638427734375,-0.2802734375,-0.837890625,0.48828125,0.5625,-0.0625,-0.125
1.219999999999996,-1.0,0.0,1.0,-5.0,-4.0,-3.0,-3.0,0.0,-0.43951416015625,-0.25537109375,0.65093994140625,0.5638427734375,-0.2802734375,-0.837890625,0.48828125,0.5625,-0.0625,-0.125
1.2249999999999959,-1.0,-3.0,-4.0,0.0,2.0,2.0,0.0,-2.0,-0.43951416015625,-0.25537109375,0.65093994140625,0.5638427734375,-0.2802734375,-0.837890625,0.48828125,0.5625,-0.0625,-0.125
1.2299999999999958,-1.0,-3.0,-4.0,0.0,2.0,2.0,0.0,-2.0,-0.43951416015625,-0.25537109375,0.65093994140625,0.5638427734375,-0.2802734375,-0.837890625,0.48828125,0.5625,-0.0625,-0.125
1.2349999999999957,-1.0,-3.0,-4.0,0.0,2.0,2.0,0.0,-2.0,-0.439453125,-0.25537109375,0.65093994140625,0.5638427734375,-0.28515625,-0.83837890625,0.49755859375,0.0,0.0625,-0.1875
1.2399999999999956,-1.0,-3.0,-4.0,0.0,2.0,2.0,0.0,-2.0,-0.439453125,-0.25537109375,0.65093994140625,0.5638427734375,-0.28515625,-0.83837890625,0.49755859375,0.0,0.0625,-0.1875
1.2449999999999954,-1.0,-3.0,-4.0,0.0,2.0,2.0,0.0,-2.0,-0.439453125,-0.25537109375,0.65093994140625,0.5638427734375,-0.28515625,-0.83837890625,0.49755859375,0.0,0.0625,-0.1875
1.2499999999999953,-1.0,-3.0,-4.0,0.0,2.0,2.0,0.0,-2.0,-0.439453125,-0.25537109375,0.65093994140625,0.5638427734375,-0.28515625,-0.83837890625,0.49755859375,0.0,0.0625,-0.1875
1.2549999999999952,0.0,-1.0,-7.0,6.0,15.0,2.0,2.0,1.0,-0.439453125,-0.25537109375,0.65093994140625,0.5638427734375,-0.28515625,-0.83837890625,0.49755859375,0.0,0.0625,-0.1875
1.2599999999999951,0.0,-1.0,-7.0,6.0,15.0,2.0,2.0,1.0,-0.439453125,-0.25537109375,0.65093994140625,0.5638427734375,-0.28515625,-0.83837890625,0.49755859375,0.0,0.0625,-0.1875
1.264999999999995,0.0,-1.0,-7.0,6.0,15.0,2.0,2.0,1.0,-0.439453125,-0.25537109375,0.65093994140625,0.5638427734375,-0.28955078125,-0.84033203125,0.49462890625,0.0,-0.3125,-0.1875
1.269999999999995,0.0,-1.0,-7.0,6.0,15.0,2.0,2.0,1.0,-0.439453125,-0.25537109375,0.65093994140625,0.5638427734375,-0.28955078125,-0.84033203125,0.49462890625,0.0,-0.3125,-0.1875
1.2749999999999948,-3.0,1.0,0.0,-4.0,-12.0,-9.0,-3.0,-3.0,-0.439453125,-0.25537109375,0.65093994140625,0.5638427734375,-0.28955078125,-0.84033203125,0.49462890625,0.0,-0.3125,-0.1875
1.2799999999999947,-3.0,1.0,0.0,-4.0,-12.0,-9.0,-3.0,-3.0,-0.439453125,-0.25537109375,0.65093994140625,0.5638427734375,-0.28955078125,-0.84033203125,0.49462890625,0.0,-0.3125,-0.1875
1.2849999999999946,-3.0,1.0,0.0,-4.0,-12.0,-9.0,-3.0,-3.0,-0.439453125,-0.25537109375,0.65093994140625,0.5638427734375,-0.28955078125,-0.84033203125,0.49462890625,0.0,-0.3125,-0.1875
1.2899999999999945,-3.0,1.0,0.0,-4.0,-12.0,-9.0,-3.0,-3.0,-0.439453125,-0.25537109375,0.65093994140625,0.5638427734375,-0.28955078125,-0.84033203125,0.49462890625,0.0,-0.3125,-0.1875
1.2949999999999944,-1.0,-2.0,4.0,1.0,0.0,2.0,-3.0,-2.0,-0.439453125,-0.25537109375,0.65093994140625,0.5638427734375,-0.2890625,-0.84521484375,0.494140625,-0.75,-0.375,-0.25
1.2999999999999943,-3.0,-3.0,-15.0,-13.0,-1.0,-8.0,-3.0,-3.0,-0.439453125,-0.25537109375,0.65093994140625,0.5638427734375,-0.2890625,-0.84521484375,0.494140625,-0.75,-0.375,-0.25
1.3049999999999942,-3.0,-3.0,-15.0,-13.0,-1.0,-8.0,-3.0,-3.0,-0.439453125,-0.25537109375,0.65093994140625,0.5638427734375,-0.2890625,-0.84521484375,0.494140625,-0.75,-0.375,-0.25
1.309999999999994,-3.0,-3.0,-15.0,-13.0,-1.0,-8.0,-3.0,-3.0,-0.439453125,-0.25537109375,0.65093994140625,0.5638427734375,-0.28173828125,-0.8486328125,0.49365234375,0.4375,-0.6875,-0.5625
1.314999999999994,-3.0,-3.0,-15.0,-13.0,-1.0,-8.0,-3.0,-3.0,-0.439453125,-0.25537109375,0.65093994140625,0.5638427734375,-0.28173828125,-0.8486328125,0.49365234375,0.4375,-0.6875,-0.5625
1.3199999999999938,-1.0,2.0,7.0,4.0,9.0,7.0,1.0,1.0,-0.439453125,-0.25537109375,0.65093994140625,0.5638427734375,-0.28173828125,-0.8486328125,0.49365234375,0.4375,-0.6875,-0.5625
1.3249999999999937,-1.0,2.0,7.0,4.0,9.0,7.0,1.0,1.0,-0.439453125,-0.25537109375,0.65093994140625,0.5638427734375,-0.28173828125,-0.8486328125,0.49365234375,0.4375,-0.6875,-0.5625
1.3299999999999936,1.0,-2.0,5.0,3.0,-1.0,3.0,-1.0,-3.0,-0.439453125,-0.25537109375,0.65093994140625,0.5638427734375,-0.28173828125,-0.8486328125,0.49365234375,0.4375,-0.6875,-0.5625
1.3349999999999935,1.0,-2.0,5.0,3.0,-1.0,3.0,-1.0,-3.0,-0.439453125,-0.25537109375,0.65093994140625,0.5638427734375,-0.28173828125,-0.8486328125,0.49365234375,0.4375,-0.6875,-0.5625
1.3399999999999934,1.0,-2.0,5.0,3.0,-1.0,3.0,-1.0,-3.0,-0.439453125,-0.25537109375,0.65093994140625,0.56390380859375,-0.28466796875,-0.83984375,0.490234375,0.5,-0.75,-0.875
1.3449999999999933,1.0,-2.0,5.0,3.0,-1.0,3.0,-1.0,-3.0,-0.439453125,-0.25537109375,0.65093994140625,0.56390380859375,-0.28466796875,-0.83984375,0.490234375,0.5,-0.75,-0.875
1.3499999999999932,-1.0,0.0,-3.0,-5.0,-9.0,-11.0,-2.0,-3.0,-0.439453125,-0.25537109375,0.65093994140625,0.56390380859375,-0.28466796875,-0.83984375,0.490234375,0.5,-0.75,-0.875
1.354999999999993,-4.0,0.0,2.0,-1.0,4.0,1.0,-2.0,-2.0,-0.439453125,-0.25537109375,0.65093994140625,0.56390380859375,-0.28466796875,-0.83984375,0.490234375,0.5,-0.75,-0.875
1.359999999999993,-4.0,0.0,2.0,-1.0,4.0,1.0,-2.0,-2.0,-0.439453125,-0.25537109375,0.65093994140625,0.56390380859375,-0.28466796875,-0.83984375,0.490234375,0.5,-0.75,-0.875
1.3649999999999929,-4.0,0.0,2.0,-1.0,4.0,1.0,-2.0,-2.0,-0.439453125,-0.25537109375,0.65093994140625,0.56390380859375,-0.28466796875,-0.83984375,0.490234375,0.5,-0.75,-0.875
1.3699999999999928,-4.0,0.0,2.0,-1.0,4.0,1.0,-2.0,-2.0,-0.439453125,-0.25537109375,0.65093994140625,0.56390380859375,-0.28466796875,-0.83984375,0.490234375,0.5,-0.75,-0.875
1.3749999999999927,-4.0,0.0,2.0,-1.0,4.0,1.0,-2.0,-2.0,-0.439453125,-0.25537109375,0.65093994140625,0.56390380859375,-0.28466796875,-0.83984375,0.490234375,0.5,-0.75,-0.875
1.3799999999999926,-4.0,0.0,2.0,-1.0,4.0,1.0,-2.0,-2.0,-0.439453125,-0.25537109375,0.65093994140625,0.56390380859375,-0.28466796875,-0.83984375,0.490234375,0.5,-0.75,-0.875
1.3849999999999925,0.0,-1.0,3.0,-3.0,-7.0,-3.0,-2.0,-3.0,-0.43939208984375,-0.25537109375,0.65093994140625,0.56390380859375,-0.2861328125,-0.84375,0.50146484375,0.6875,-1.0,-0.5625
1.3899999999999924,0.0,-1.0,3.0,-3.0,-7.0,-3.0,-2.0,-3.0,-0.439453125,-0.25537109375,0.65093994140625,0.56390380859375,-0.2900390625,-0.83935546875,0.486328125,-0.4375,-0.75,-0.3125
1.3949999999999922,0.0,-1.0,3.0,-3.0,-7.0,-3.0,-2.0,-3.0,-0.439453125,-0.25537109375,0.65093994140625,0.56390380859375,-0.2900390625,-0.83935546875,0.486328125,-0.4375,-0.75,-0.3125
1.3999999999999921,-2.0,-1.0,0.0,-4.0,0.0,-3.0,-3.0,0.0,-0.439453125,-0.25537109375,0.65093994140625,0.56390380859375,-0.2900390625,-0.83935546875,0.486328125,-0.4375,-0.75,-0.3125
1.404999999999992,-2.0,-1.0,0.0,-4.0,0.0,-3.0,-3.0,0.0,-0.439453125,-0.25537109375,0.65093994140625,0.56390380859375,-0.2900390625,-0.83935546875,0.486328125,-0.4375,-0.75,-0.3125
1.409999999999992,-1.0,-1.0,-4.0,-1.0,-4.0,-3.0,1.0,-2.0,-0.439453125,-0.25537109375,0.65093994140625,0.56390380859375,-0.2900390625,-0.83935546875,0.486328125,-0.4375,-0.75,-0.3125
1.4149999999999918,-1.0,-1.0,-4.0,-1.0,-4.0,-3.0,1.0,-2.0,-0.439453125,-0.25537109375,0.65093994140625,0.56390380859375,-0.2900390625,-0.83935546875,0.486328125,-0.4375,-0.75,-0.3125
1.4199999999999917,-1.0,-1.0,-4.0,-1.0,-4.0,-3.0,1.0,-2.0,-0.43939208984375,-0.25537109375,0.65093994140625,0.56390380859375,-0.28369140625,-0.84423828125,0.498046875,0.125,-0.5,0.0625
1.4249999999999916,-1.0,-1.0,-4.0,-1.0,-4.0,-3.0,1.0,-2.0,-0.43939208984375,-0.25537109375,0.65093994140625,0.56390380859375,-0.28369140625,-0.84423828125,0.498046875,0.125,-0.5,0.0625
1.4299999999999915,-1.0,-4.0,-3.0,-3.0,-5.0,-6.0,-2.0,-1.0,-0.43939208984375,-0.25537109375,0.65093994140625,0.56390380859375,-0.28369140625,-0.84423828125,0.498046875,0.125,-0.5,0.0625
1.4349999999999914,0.0,0.0,-1.0,2.0,7.0,8.0,2.0,1.0,-0.43939208984375,-0.25537109375,0.65093994140625,0.56390380859375,-0.28369140625,-0.84423828125,0.498046875,0.125,-0.5,0.0625
1.4399999999999913,0.0,0.0,-1.0,2.0,7.0,8.0,2.0,1.0,-0.43939208984375,-0.25537109375,0.65093994140625,0.56390380859375,-0.28369140625,-0.84423828125,0.498046875,0.125,-0.5,0.0625
1.4449999999999912,0.0,0.0,-1.0,2.0,7.0,8.0,2.0,1.0,-0.43939208984375,-0.25537109375,0.65093994140625,0.56390380859375,-0.28369140625,-0.84423828125,0.498046875,0.125,-0.5,0.0625
1.449999999999991,-3.0,-1.0,-2.0,-4.0,-8.0,-6.0,-3.0,-4.0,-0.43939208984375,-0.25537109375,0.65093994140625,0.56390380859375,-0.28369140625,-0.84375,0.5009765625,0.5625,-0.625,-0.0625
1.454999999999991,-3.0,-1.0,-2.0,-4.0,-8.0,-6.0,-3.0,-4.0,-0.43939208984375,-0.25537109375,0.65093994140625,0.56390380859375,-0.28369140625,-0.84375,0.5009765625,0.5625,-0.625,-0.0625
1.4599999999999909,-2.0,-3.0,5.0,1.0,-5.0,-4.0,-3.0,-1.0,-0.43939208984375,-0.25537109375,0.65093994140625,0.56390380859375,-0.28369140625,-0.84375,0.5009765625,0.5625,-0.625,-0.0625
1.4649999999999908,-2.0,-3.0,5.0,1.0,-5.0,-4.0,-3.0,-1.0,-0.43939208984375,-0.25537109375,0.65093994140625,0.56390380859375,-0.28369140625,-0.84375,0.5009765625,0.5625,-0.625,-0.0625
1.4699999999999906,-2.0,-3.0,5.0,1.0,-5.0,-4.0,-3.0,-1.0,-0.43939208984375,-0.25537109375,0.65093994140625,0.56390380859375,-0.28369140625,-0.84375,0.5009765625,0.5625,-0.625,-0.0625
1.4749999999999905,-2.0,-3.0,5.0,1.0,-5.0,-4.0,-3.0,-1.0,-0.43939208984375,-0.25537109375,0.65093994140625,0.56390380859375,-0.28662109375,-0.8408203125,0.49658203125,0.6875,-0.4375,0.125
1.4799999999999904,0.0,-1.0,8.0,0.0,-7.0,-6.0,-3.0,-2.0,-0.43939208984375,-0.25537109375,0.65093994140625,0.56390380859375,-0.28662109375,-0.8408203125,0.49658203125,0.6875,-0.4375,0.125
1.4849999999999903,0.0,-1.0,8.0,0.0,-7.0,-6.0,-3.0,-2.0,-0.43939208984375,-0.25537109375,0.65093994140625,0.56390380859375,-0.28662109375,-0.8408203125,0.49658203125,0.6875,-0.4375,0.125
1.4899999999999902,0.0,2.0,0.0,3.0,16.0,6.0,1.0,0.0,-0.43939208984375,-0.25537109375,0.65093994140625,0.56390380859375,-0.28662109375,-0.8408203125,0.49658203125,0.6875,-0.4375,0.125
1.4949999999999901,0.0,2.0,0.0,3.0,16.0,6.0,1.0,0.0,-0.43939208984375,-0.25537109375,0.65093994140625,0.56390380859375,-0.28662109375,-0.8408203125,0.49658203125,0.6875,-0.4375,0.125
1.49999999999999,0.0,2.0,0.0,3.0,16.0,6.0,1.0,0.0,-0.43939208984375,-0.25537109375,0.65093994140625,0.56390380859375,-0.28662109375,-0.8408203125,0.49658203125,0.6875,-0.4375,0.125
1.50499999999999,0.0,2.0,0.0,3.0,16.0,6.0,1.0,0.0,-0.4393310546875,-0.25537109375,0.65093994140625,0.56390380859375,-0.2861328125,-0.84228515625,0.50244140625,0.125,-0.875,0.125
1.5099999999999898,-1.0,0.0,1.0,-2.0,-8.0,-3.0,-3.0,-1.0,-0.4393310546875,-0.25537109375,0.65093994140625,0.56390380859375,-0.2861328125,-0.84228515625,0.50244140625,0.125,-0.875,0.125
1.5149999999999897,-1.0,0.0,1.0,-2.0,-8.0,-3.0,-3.0,-1.0,-0.4393310546875,-0.25537109375,0.65093994140625,0.56396484375,-0.287109375,-0.84130859375,0.498046875,-0.125,-0.4375,-0.125
1.5199999999999896,-2.0,-5.0,-2.0,-9.0,-8.0,-9.0,-2.0,-3.0,-0.4393310546875,-0.25537109375,0.65093994140625,0.56396484375,-0.287109375,-0.84130859375,0.498046875,-0.125,-0.4375,-0.125
1.5249999999999895,2.0,0.0,1.0,2.0,4.0,6.0,0.0,1.0,-0.4393310546875,-0.25537109375,0.65093994140625,0.56396484375,-0.287109375,-0.84130859375,0.498046875,-0.125,-0.4375,-0.125
1.5299999999999894,2.0,0.0,1.0,2.0,4.0,6.0,0.0,1.0,-0.4393310546875,-0.25537109375,0.65093994140625,0.56396484375,-0.287109375,-0.84130859375,0.498046875,-0.125,-0.4375,-0.125
1.5349999999999893,2.0,0.0,1.0,2.0,4.0,6.0,0.0,1.0,-0.4393310546875,-0.25537109375,0.65093994140625,0.56396484375,-0.287109375,-0.84130859375,0.498046875,-0.125,-0.4375,-0.125
1.5399999999999892,2.0,0.0,1.0,2.0,4.0,6.0,0.0,1.0,-0.4393310546875,-0.25537109375,0.65093994140625,0.56396484375,-0.28125,-0.84814453125,0.494140625,-0.6875,-0.5,-0.375
1.544999999999989,-3.0,1.0,-1.0,4.0,4.0,4.0,-2.0,-1.0,-0.4393310546875,-0.25537109375,0.65093994140625,0.56396484375,-0.28125,-0.84814453125,0.494140625,-0.6875,-0.5,-0.375
1.549999999999989,0.0,-3.0,-4.0,-3.0,-4.0,-3.0,-1.0,-3.0,-0.4393310546875,-0.25537109375,0.65093994140625,0.56396484375,-0.28125,-0.84814453125,0.494140625,-0.6875,-0.5,-0.375
1.5549999999999888,0.0,-3.0,-4.0,-3.0,-4.0,-3.0,-1.0,-3.0,-0.4393310546875,-0.25537109375,0.65093994140625,0.56396484375,-0.28125,-0.84814453125,0.494140625,-0.6875,-0.5,-0.375
1.5599999999999887,0.0,-3.0,-4.0,-3.0,-4.0,-3.0,-1.0,-3.0,-0.43927001953125,-0.25537109375,0.65093994140625,0.56396484375,-0.28662109375,-0.84033203125,0.49755859375,0.25,-0.375,-0.375
1.5649999999999886,1.0,0.0,1.0,-5.0,-10.0,-6.0,-5.0,-4.0,-0.43927001953125,-0.25537109375,0.65093994140625,0.56396484375,-0.28662109375,-0.84033203125,0.49755859375,0.25,-0.375,-0.375
1.5699999999999885,-3.0,0.0,10.0,0.0,2.0,2.0,-1.0,-1.0,-0.43927001953125,-0.25537109375,0.65093994140625,0.56396484375,-0.28662109375,-0.84033203125,0.49755859375,0.25,-0.375,-0.375
1.5749999999999884,-4.0,-4.0,-13.0,-4.0,-5.0,0.0,0.0,-2.0,-0.43927001953125,-0.25537109375,0.65093994140625,0.56396484375,-0.28662109375,-0.84033203125,0.49755859375,0.25,-0.375,-0.375
1.5799999999999883,-4.0,-4.0,-13.0,-4.0,-5.0,0.0,0.0,-2.0,-0.43927001953125,-0.25537109375,0.65093994140625,0.56396484375,-0.28662109375,-0.84033203125,0.49755859375,0.25,-0.375,-0.375
1.5849999999999882,-3.0,-2.0,-4.0,2.0,4.0,1.0,-1.0,-1.0,-0.43927001953125,-0.25537109375,0.65093994140625,0.56396484375,-0.28173828125,-0.84423828125,0.4951171875,-0.3125,-0.5,-0.3125
1.589999999999988,-1.0,2.0,2.0,-2.0,-10.0,-9.0,-4.0,-1.0,-0.43927001953125,-0.25537109375,0.65093994140625,0.56396484375,-0.28173828125,-0.84423828125,0.4951171875,-0.3125,-0.5,-0.3125
1.594999999999988,-1.0,2.0,2.0,-2.0,-10.0,-9.0,-4.0,-1.0,-0.43927001953125,-0.25537109375,0.65093994140625,0.56396484375,-0.28173828125,-0.84423828125,0.4951171875,-0.3125,-0.5,-0.3125
1.5999999999999879,-1.0,2.0,2.0,-2.0,-10.0,-9.0,-4.0,-1.0,-0.43927001953125,-0.25537109375,0.65093994140625,0.56396484375,-0.2822265625,-0.837890625,0.4970703125,0.1875,-0.3125,-0.375
1.6049999999999878,-1.0,2.0,2.0,-2.0,-10.0,-9.0,-4.0,-1.0,-0.43927001953125,-0.25537109375,0.65093994140625,0.56396484375,-0.2822265625,-0.837890625,0.4970703125,0.1875,-0.3125,-0.375
1.6099999999999877,-1.0,2.0,2.0,-2.0,-10.0,-9.0,-4.0,-1.0,-0.43927001953125,-0.25537109375,0.65093994140625,0.56396484375,-0.2822265625,-0.837890625,0.4970703125,0.1875,-0.3125,-0.375
1.6149999999999876,0.0,-1.0,1.0,-1.0,2.0,10.0,2.0,0.0,-0.43927001953125,-0.25537109375,0.65093994140625,0.56396484375,-0.2822265625,-0.837890625,0.4970703125,0.1875,-0.3125,-0.375
1.6199999999999875,1.0,-2.0,1.0,-1.0,1.0,-2.0,-2.0,0.0,-0.43927001953125,-0.25537109375,0.65093994140625,0.56396484375,-0.2822265625,-0.837890625,0.4970703125,0.1875,-0.3125,-0.375
1.6249999999999873,1.0,-2.0,1.0,-1.0,1.0,-2.0,-2.0,0.0,-0.439208984375,-0.25537109375,0.65093994140625,0.56396484375,-0.28271484375,-0.84619140625,0.49658203125,-0.375,-0.375,-0.4375
1.6299999999999872,1.0,-2.0,1.0,-1.0,1.0,-2.0,-2.0,0.0,-0.439208984375,-0.25537109375,0.65093994140625,0.56396484375,-0.28271484375,-0.84619140625,0.49658203125,-0.375,-0.375,-0.4375
1.6349999999999871,1.0,-2.0,1.0,-1.0,1.0,-2.0,-2.0,0.0,-0.439208984375,-0.25537109375,0.65093994140625,0.56396484375,-0.28271484375,-0.84619140625,0.49658203125,-0.375,-0.375,-0.4375
1.639999999999987,-2.0,-2.0,-5.0,-9.0,-11.0,-7.0,-4.0,-5.0,-0.439208984375,-0.25537109375,0.65093994140625,0.56396484375,-0.28271484375,-0.84619140625,0.49658203125,-0.375,-0.375,-0.4375
1.644999999999987,-2.0,-2.0,-5.0,-9.0,-11.0,-7.0,-4.0,-5.0,-0.439208984375,-0.25537109375,0.65093994140625,0.56396484375,-0.28271484375,-0.84619140625,0.49658203125,-0.375,-0.375,-0.4375
1.6499999999999868,2.0,2.0,-1.0,5.0,9.0,10.0,1.0,-1.0,-0.439208984375,-0.25537109375,0.65093994140625,0.56402587890625,-0.2822265625,-0.841796875,0.49755859375,0.125,-0.1875,-0.5
1.6549999999999867,2.0,2.0,-1.0,5.0,9.0,10.0,1.0,-1.0,-0.439208984375,-0.25537109375,0.65093994140625,0.56402587890625,-0.2822265625,-0.841796875,0.49755859375,0.125,-0.1875,-0.5
1.6599999999999866,2.0,2.0,-1.0,5.0,9.0,10.0,1.0,-1.0,-0.439208984375,-0.25537109375,0.65093994140625,0.56402587890625,-0.2822265625,-0.841796875,0.49755859375,0.125,-0.1875,-0.5
1.6649999999999865,-3.0,-1.0,-3.0,6.0,-2.0,-4.0,-1.0,-1.0,-0.439208984375,-0.25537109375,0.65093994140625,0.56402587890625,-0.2822265625,-0.841796875,0.49755859375,0.125,-0.1875,-0.5
1.6699999999999864,-3.0,-1.0,-3.0,6.0,-2.0,-4.0,-1.0,-1.0,-0.439208984375,-0.25537109375,0.65093994140625,0.56402587890625,-0.2822265625,-0.841796875,0.49755859375,0.125,-0.1875,-0.5
1.6749999999999863,-3.0,-2.0,-8.0,-6.0,-9.0,-9.0,-4.0,0.0,-0.439208984375,-0.25543212890625,0.65093994140625,0.56402587890625,-0.28369140625,-0.84765625,0.49462890625,-0.0625,-0.25,-0.625
1.6799999999999862,-3.0,-2.0,-8.0,-6.0,-9.0,-9.0,-4.0,0.0,-0.439208984375,-0.25543212890625,0.65093994140625,0.56402587890625,-0.28369140625,-0.84765625,0.49462890625,-0.0625,-0.25,-0.625
1.684999999999986,0.0,-2.0,-1.0,-2.0,6.0,3.0,-1.0,-1.0,-0.439208984375,-0.25543212890625,0.65093994140625,0.56402587890625,-0.28369140625,-0.84765625,0.49462890625,-0.0625,-0.25,-0.625
1.689999999999986,0.0,-2.0,-1.0,-2.0,6.0,3.0,-1.0,-1.0,-0.439208984375,-0.25543212890625,0.65093994140625,0.56402587890625,-0.28369140625,-0.8427734375,0.498046875,0.375,-0.25,-0.4375
1.6949999999999859,0.0,-2.0,-1.0,-2.0,6.0,3.0,-1.0,-1.0,-0.439208984375,-0.25543212890625,0.65093994140625,0.56402587890625,-0.28369140625,-0.8427734375,0.498046875,0.375,-0.25,-0.4375
1.6999999999999857,-3.0,0.0,4.0,4.0,5.0,7.0,-1.0,0.0,-0.439208984375,-0.25543212890625,0.65093994140625,0.56402587890625,-0.28369140625,-0.8427734375,0.498046875,0.375,-0.25,-0.4375
1.7049999999999856,-3.0,0.0,4.0,4.0,5.0,7.0,-1.0,0.0,-0.439208984375,-0.25543212890625,0.65093994140625,0.56402587890625,-0.28369140625,-0.8427734375,0.498046875,0.375,-0.25,-0.4375
1.7099999999999855,-3.0,0.0,4.0,4.0,5.0,7.0,-1.0,0.0,-0.439208984375,-0.25543212890625,0.65093994140625,0.56402587890625,-0.28369140625,-0.8427734375,0.498046875,0.375,-0.25,-0.4375
1.7149999999999854,-3.0,0.0,4.0,4.0,5.0,7.0,-1.0,0.0,-0.439208984375,-0.25543212890625,0.65093994140625,0.56402587890625,-0.28369140625,-0.8427734375,0.498046875,0.375,-0.25,-0.4375
1.7199999999999853,-3.0,0.0,4.0,4.0,5.0,7.0,-1.0,0.0,-0.439208984375,-0.25543212890625,0.65093994140625,0.56402587890625,-0.28369140625,-0.8427734375,0.498046875,0.375,-0.25,-0.4375
1.7249999999999852,0.0,-1.0,-4.0,-4.0,-2.0,-1.0,-2.0,0.0,-0.43914794921875,-0.25543212890625,0.65093994140625,0.56402587890625,-0.279296875,-0.841796875,0.4970703125,0.1875,-0.375,-0.4375
1.729999999999985,-2.0,-1.0,1.0,-1.0,-7.0,-6.0,-1.0,-2.0,-0.43914794921875,-0.25543212890625,0.65093994140625,0.56402587890625,-0.279296875,-0.841796875,0.4970703125,0.1875,-0.375,-0.4375
1.734999999999985,-2.0,-1.0,1.0,-1.0,-7.0,-6.0,-1.0,-2.0,-0.43914794921875,-0.25543212890625,0.65093994140625,0.56402587890625,-0.279296875,-0.841796875,0.4970703125,0.1875,-0.375,-0.4375
1.739999999999985,-2.0,-1.0,1.0,-1.0,-7.0,-6.0,-1.0,-2.0,-0.43914794921875,-0.25543212890625,0.65093994140625,0.56402587890625,-0.28173828125,-0.8447265625,0.49755859375,0.0,-0.0625,-0.0625
1.7449999999999848,-1.0,-3.0,-3.0,-5.0,-5.0,0.0,-3.0,-1.0,-0.43914794921875,-0.25543212890625,0.65093994140625,0.56402587890625,-0.28173828125,-0.8447265625,0.49755859375,0.0,-0.0625,-0.0625
1.7499999999999847,-1.0,-3.0,-3.0,-5.0,-5.0,0.0,-3.0,-1.0,-0.43914794921875,-0.25543212890625,0.65093994140625,0.56402587890625,-0.28173828125,-0.8447265625,0.49755859375,0.0,-0.0625,-0.0625
1.7549999999999846,-2.0,0.0,2.0,0.0,8.0,1.0,-1.0,1.0,-0.43914794921875,-0.25543212890625,0.65093994140625,0.56402587890625,-0.28173828125,-0.8447265625,0.49755859375,0.0,-0.0625,-0.0625
1.7599999999999845,-2.0,0.0,2.0,0.0,8.0,1.0,-1.0,1.0,-0.43914794921875,-0.25543212890625,0.65093994140625,0.5640869140625,-0.28466796875,-0.84423828125,0.49462890625,-0.1875,0.0,0.0625
1.7649999999999844,-2.0,0.0,2.0,0.0,8.0,1.0,-1.0,1.0,-0.43914794921875,-0.25543212890625,0.65093994140625,0.5640869140625,-0.28466796875,-0.84423828125,0.49462890625,-0.1875,0.0,0.0625
1.7699999999999843,1.0,0.0,-2.0,2.0,-5.0,-2.0,1.0,-2.0,-0.43914794921875,-0.25543212890625,0.65093994140625,0.5640869140625,-0.28466796875,-0.84423828125,0.49462890625,-0.1875,0.0,0.0625
1.7749999999999841,1.0,0.0,-2.0,2.0,-5.0,-2.0,1.0,-2.0,-0.43914794921875,-0.25543212890625,0.65093994140625,0.5640869140625,-0.28466796875,-0.84423828125,0.49462890625,-0.1875,0.0,0.0625
1.779999999999984,-1.0,-2.0,1.0,2.0,-8.0,-7.0,-4.0,-3.0,-0.43914794921875,-0.25543212890625,0.65093994140625,0.5640869140625,-0.28369140625,-0.84912109375,0.49267578125,0.3125,0.1875,0.0625
1.784999999999984,-2.0,1.0,-11.0,-5.0,4.0,2.0,0.0,1.0,-0.43914794921875,-0.25543212890625,0.65093994140625,0.5640869140625,-0.28369140625,-0.84912109375,0.49267578125,0.3125,0.1875,0.0625
1.7899999999999838,-2.0,1.0,-11.0,-5.0,4.0,2.0,0.0,1.0,-0.43914794921875,-0.25543212890625,0.65093994140625,0.5640869140625,-0.28369140625,-0.84912109375,0.49267578125,0.3125,0.1875,0.0625
1.7949999999999837,-2.0,1.0,-11.0,-5.0,4.0,2.0,0.0,1.0,-0.4390869140625,-0.2554931640625,0.65093994140625,0.5640869140625,-0.2822265625,-0.8486328125,0.49853515625,0.0625,-0.1875,-0.1875
1.7999999999999836,-2.0,1.0,-11.0,-5.0,4.0,2.0,0.0,1.0,-0.4390869140625,-0.2554931640625,0.65093994140625,0.5640869140625,-0.2822265625,-0.8486328125,0.49853515625,0.0625,-0.1875,-0.1875
1.8049999999999835,1.0,0.0,1.0,0.0,0.0,3.0,-1.0,0.0,-0.4390869140625,-0.2554931640625,0.65093994140625,0.5640869140625,-0.2822265625,-0.8486328125,0.49853515625,0.0625,-0.1875,-0.1875
1.8099999999999834,1.0,0.0,1.0,0.0,0.0,3.0,-1.0,0.0,-0.4390869140625,-0.2554931640625,0.65093994140625,0.5640869140625,-0.2822265625,-0.8486328125,0.49853515625,0.0625,-0.1875,-0.1875
1.8149999999999833,-2.0,-2.0,4.0,0.0,-4.0,-6.0,-3.0,-1.0,-0.4390869140625,-0.2554931640625,0.65093994140625,0.5640869140625,-0.2822265625,-0.8486328125,0.49853515625,0.0625,-0.1875,-0.1875
1.8199999999999832,-2.0,-2.0,4.0,0.0,-4.0,-6.0,-3.0,-1.0,-0.4390869140625,-0.2554931640625,0.65093994140625,0.5640869140625,-0.2822265625,-0.8486328125,0.49853515625,0.0625,-0.1875,-0.1875
1.824999999999983,-2.0,-2.0,4.0,0.0,-4.0,-6.0,-3.0,-1.0,-0.43890380859375,-0.25537109375,0.65093994140625,0.56427001953125,-0.2822265625,-0.83740234375,0.4970703125,1.125,-0.1875,-0.375
1.829999999999983,-2.0,-2.0,4.0,0.0,-4.0,-6.0,-3.0,-1.0,-0.43890380859375,-0.25537109375,0.65093994140625,0.56427001953125,-0.2822265625,-0.83740234375,0.4970703125,1.125,-0.1875,-0.375
1.8349999999999829,-1.0,-2.0,-2.0,-3.0,-3.0,-1.0,-1.0,-3.0,-0.43890380859375,-0.25537109375,0.65093994140625,0.56427001953125,-0.2822265625,-0.83740234375,0.4970703125,1.125,-0.1875,-0.375
1.8399999999999828,-1.0,-2.0,-2.0,-3.0,-3.0,-1.0,-1.0,-3.0,-0.43890380859375,-0.25537109375,0.65093994140625,0.56427001953125,-0.2822265625,-0.83740234375,0.4970703125,1.125,-0.1875,-0.375
1.8449999999999827,0.0,0.0,5.0,2.0,-2.0,1.0,1.0,0.0,-0.43890380859375,-0.25537109375,0.65093994140625,0.56427001953125,-0.2822265625,-0.83740234375,0.4970703125,1.125,-0.1875,-0.375
1.8499999999999825,0.0,0.0,5.0,2.0,-2.0,1.0,1.0,0.0,-0.43890380859375,-0.25537109375,0.65093994140625,0.56427001953125,-0.2822265625,-0.83740234375,0.4970703125,1.125,-0.1875,-0.375
1.8549999999999824,-1.0,0.0,0.0,4.0,10.0,5.0,3.0,-1.0,-0.4388427734375,-0.25537109375,0.65093994140625,0.56427001953125,-0.28125,-0.841796875,0.49560546875,0.375,-0.3125,-0.4375
1.8599999999999823,-1.0,0.0,0.0,4.0,10.0,5.0,3.0,-1.0,-0.4388427734375,-0.25537109375,0.65093994140625,0.56427001953125,-0.28125,-0.841796875,0.49560546875,0.375,-0.3125,-0.4375
1.8649999999999822,-3.0,-2.0,-1.0,-6.0,-8.0,-4.0,-4.0,-1.0,-0.4388427734375,-0.25537109375,0.65093994140625,0.56427001953125,-0.28125,-0.841796875,0.49560546875,0.375,-0.3125,-0.4375
1.8699999999999821,-3.0,-2.0,-1.0,-6.0,-8.0,-4.0,-4.0,-1.0,-0.4388427734375,-0.25537109375,0.65093994140625,0.56427001953125,-0.28125,-0.841796875,0.49560546875,0.375,-0.3125,-0.4375
1.874999999999982,-3.0,-2.0,-1.0,-6.0,-8.0,-4.0,-4.0,-1.0,-0.4388427734375,-0.25537109375,0.6510009765625,0.56427001953125,-0.28466796875,-0.8330078125,0.494140625,-0.4375,0.0,-0.3125
1.879999999999982,-3.0,-2.0,-1.0,-6.0,-8.0,-4.0,-4.0,-1.0,-0.4388427734375,-0.25537109375,0.6510009765625,0.56427001953125,-0.28466796875,-0.8330078125,0.494140625,-0.4375,0.0,-0.3125
1.8849999999999818,-1.0,0.0,-2.0,-3.0,-3.0,-4.0,1.0,-1.0,-0.4388427734375,-0.25537109375,0.6510009765625,0.56427001953125,-0.28466796875,-0.8330078125,0.494140625,-0.4375,0.0,-0.3125
1.8899999999999817,-1.0,0.0,-2.0,-3.0,-3.0,-4.0,1.0,-1.0,-0.4388427734375,-0.25537109375,0.6510009765625,0.56427001953125,-0.28466796875,-0.8330078125,0.494140625,-0.4375,0.0,-0.3125
1.8949999999999816,-4.0,-2.0,-2.0,-5.0,-19.0,-6.0,-3.0,-2.0,-0.4388427734375,-0.25537109375,0.6510009765625,0.56427001953125,-0.28466796875,-0.8330078125,0.494140625,-0.4375,0.0,-0.3125
1.8999999999999815,-4.0,-2.0,-2.0,-5.0,-19.0,-6.0,-3.0,-2.0,-0.4388427734375,-0.25537109375,0.6510009765625,0.56427001953125,-0.28466796875,-0.8330078125,0.494140625,-0.4375,0.0,-0.3125
1.9049999999999814,-4.0,-2.0,-2.0,-5.0,-19.0,-6.0,-3.0,-2.0,-0.4388427734375,-0.25537109375,0.6510009765625,0.56427001953125,-0.28125,-0.84375,0.49951171875,0.375,-0.375,-0.25
1.9099999999999813,-4.0,-2.0,-2.0,-5.0,-19.0,-6.0,-3.0,-2.0,-0.4388427734375,-0.25537109375,0.6510009765625,0.56427001953125,-0.28125,-0.84375,0.49951171875,0.375,-0.375,-0.25
1.9149999999999812,0.0,-1.0,-3.0,0.0,16.0,5.0,0.0,0.0,-0.4388427734375,-0.25537109375,0.6510009765625,0.56427001953125,-0.28125,-0.84375,0.49951171875,0.375,-0.375,-0.25
1.919999999999981,0.0,-1.0,-3.0,0.0,16.0,5.0,0.0,0.0,-0.4388427734375,-0.25537109375,0.6510009765625,0.56427001953125,-0.28125,-0.84375,0.49951171875,0.375,-0.375,-0.25
1.924999999999981,2.0,-1.0,1.0,3.0,3.0,2.0,1.0,-1.0,-0.4388427734375,-0.25537109375,0.6510009765625,0.56427001953125,-0.28125,-0.84375,0.49951171875,0.375,-0.375,-0.25
1.9299999999999808,2.0,-1.0,1.0,3.0,3.0,2.0,1.0,-1.0,-0.4388427734375,-0.25537109375,0.6510009765625,0.56427001953125,-0.28125,-0.84375,0.49951171875,0.375,-0.375,-0.25
1.9349999999999807,-2.0,0.0,4.0,-2.0,-11.0,-6.0,0.0,1.0,-0.43878173828125,-0.25537109375,0.6510009765625,0.56427001953125,-0.28125,-0.8369140625,0.490234375,-0.0625,0.0,-0.3125
1.9399999999999806,2.0,-1.0,0.0,-1.0,2.0,-1.0,-2.0,-2.0,-0.43878173828125,-0.25537109375,0.6510009765625,0.56427001953125,-0.28125,-0.8369140625,0.490234375,-0.0625,0.0,-0.3125
1.9449999999999805,2.0,-1.0,0.0,-1.0,2.0,-1.0,-2.0,-2.0,-0.43878173828125,-0.25537109375,0.6510009765625,0.56427001953125,-0.28125,-0.8369140625,0.490234375,-0.0625,0.0,-0.3125
1.9499999999999804,2.0,-1.0,0.0,-1.0,2.0,-1.0,-2.0,-2.0,-0.43878173828125,-0.25537109375,0.6510009765625,0.56427001953125,-0.28125,-0.8369140625,0.490234375,-0.0625,0.0,-0.3125
1.9549999999999803,2.0,-1.0,0.0,-1.0,2.0,-1.0,-2.0,-2.0,-0.43878173828125,-0.25537109375,0.6510009765625,0.5643310546875,-0.28271484375,-0.84375,0.49951171875,0.25,-0.125,-0.375
1.9599999999999802,-2.0,-3.0,4.0,2.0,-5.0,-2.0,-4.0,-5.0,-0.43878173828125,-0.25537109375,0.6510009765625,0.5643310546875,-0.28271484375,-0.84375,0.49951171875,0.25,-0.125,-0.375
1.96499999999998,-2.0,-3.0,4.0,2.0,-5.0,-2.0,-4.0,-5.0,-0.43878173828125,-0.25537109375,0.6510009765625,0.5643310546875,-0.28271484375,-0.84375,0.49951171875,0.25,-0.125,-0.375
1.96999999999998,-1.0,0.0,-6.0,-2.0,9.0,6.0,3.0,1.0,-0.43878173828125,-0.25537109375,0.6510009765625,0.5643310546875,-0.28271484375,-0.84375,0.49951171875,0.25,-0.125,-0.375
1.9749999999999799,-1.0,0.0,-6.0,-2.0,9.0,6.0,3.0,1.0,-0.43878173828125,-0.25537109375,0.6510009765625,0.5643310546875,-0.28271484375,-0.84375,0.49951171875,0.25,-0.125,-0.375
1.9799999999999798,-1.0,0.0,-6.0,-2.0,9.0,6.0,3.0,1.0,-0.43878173828125,-0.25537109375,0.6510009765625,0.5643310546875,-0.28369140625,-0.84375,0.49853515625,0.1875,-0.3125,-0.375
1.9849999999999797,-1.0,0.0,-6.0,-2.0,9.0,6.0,3.0,1.0,-0.43878173828125,-0.25537109375,0.6510009765625,0.5643310546875,-0.28369140625,-0.84375,0.49853515625,0.1875,-0.3125,-0.375
1.9899999999999796,1.0,-1.0,-5.0,-4.0,-6.0,-4.0,-3.0,-3.0,-0.43878173828125,-0.25537109375,0.6510009765625,0.5643310546875,-0.28369140625,-0.84375,0.49853515625,0.1875,-0.3125,-0.375
1.9949999999999795,1.0,-1.0,-5.0,-4.0,-6.0,-4.0,-3.0,-3.0,-0.43878173828125,-0.25537109375,0.6510009765625,0.5643310546875,-0.28369140625,-0.84375,0.49853515625,0.1875,-0.3125,-0.375
1.9999999999999793,1.0,0.0,-3.0,-1.0,-2.0,-1.0,-2.0,-1.0,-0.43878173828125,-0.25537109375,0.6510009765625,0.5643310546875,-0.28369140625,-0.84375,0.49853515625,0.1875,-0.3125,-0.375
2.0049999999999795,1.0,0.0,-3.0,-1.0,-2.0,-1.0,-2.0,-1.0,-0.43878173828125,-0.25537109375,0.6510009765625,0.5643310546875,-0.28369140625,-0.84375,0.49853515625,0.1875,-0.3125,-0.375
2.0099999999999794,-3.0,2.0,-5.0,-1.0,-6.0,-8.0,-4.0,0.0,-0.438720703125,-0.25537109375,0.6510009765625,0.5643310546875,-0.2841796875,-0.8388671875,0.49853515625,0.0625,-0.3125,-0.625
2.0149999999999793,-3.0,2.0,-5.0,-1.0,-6.0,-8.0,-4.0,0.0,-0.438720703125,-0.25537109375,0.6510009765625,0.5643310546875,-0.2841796875,-0.8388671875,0.49853515625,0.0625,-0.3125,-0.625
2.019999999999979,-2.0,0.0,5.0,4.0,2.0,5.0,1.0,2.0,-0.438720703125,-0.25537109375,0.6510009765625,0.5643310546875,-0.2841796875,-0.8388671875,0.49853515625,0.0625,-0.3125,-0.625
2.024999999999979,-2.0,0.0,5.0,4.0,2.0,5.0,1.0,2.0,-0.438720703125,-0.25537109375,0.6510009765625,0.5643310546875,-0.2841796875,-0.8388671875,0.49853515625,0.0625,-0.3125,-0.625
2.029999999999979,-2.0,0.0,5.0,4.0,2.0,5.0,1.0,2.0,-0.438720703125,-0.25543212890625,0.6510009765625,0.5643310546875,-0.2783203125,-0.841796875,0.49462890625,0.125,-0.4375,-0.625
2.034999999999979,-2.0,0.0,5.0,4.0,2.0,5.0,1.0,2.0,-0.438720703125,-0.25543212890625,0.6510009765625,0.5643310546875,-0.2783203125,-0.841796875,0.49462890625,0.125,-0.4375,-0.625
2.0399999999999787,-1.0,-1.0,2.0,0.0,2.0,2.0,0.0,-1.0,-0.438720703125,-0.25543212890625,0.6510009765625,0.5643310546875,-0.2783203125,-0.841796875,0.49462890625,0.125,-0.4375,-0.625
2.0449999999999786,-1.0,-1.0,2.0,0.0,2.0,2.0,0.0,-1.0,-0.438720703125,-0.25543212890625,0.6510009765625,0.5643310546875,-0.2783203125,-0.841796875,0.49462890625,0.125,-0.4375,-0.625
2.0499999999999785,-2.0,-1.0,0.0,-1.0,-2.0,-4.0,-2.0,0.0,-0.438720703125,-0.25543212890625,0.6510009765625,0.5643310546875,-0.2783203125,-0.841796875,0.49462890625,0.125,-0.4375,-0.625
2.0549999999999784,-2.0,-1.0,0.0,-1.0,-2.0,-4.0,-2.0,0.0,-0.438720703125,-0.25543212890625,0.6510009765625,0.5643310546875,-0.2783203125,-0.841796875,0.49560546875,-0.25,-0.375,-1.0
2.0599999999999783,-2.0,-1.0,0.0,-1.0,-2.0,-4.0,-2.0,0.0,-0.438720703125,-0.25543212890625,0.6510009765625,0.5643310546875,-0.2783203125,-0.841796875,0.49560546875,-0.25,-0.375,-1.0
2.064999999999978,-2.0,-2.0,6.0,2.0,-7.0,-1.0,-2.0,-2.0,-0.438720703125,-0.25543212890625,0.6510009765625,0.5643310546875,-0.2783203125,-0.841796875,0.49560546875,-0.25,-0.375,-1.0
2.069999999999978,-1.0,-1.0,-3.0,-5.0,-2.0,2.0,1.0,0.0,-0.438720703125,-0.25543212890625,0.6510009765625,0.5643310546875,-0.2783203125,-0.841796875,0.49560546875,-0.25,-0.375,-1.0
2.074999999999978,-2.0,-3.0,8.0,7.0,-10.0,-6.0,-5.0,-3.0,-0.438720703125,-0.25543212890625,0.6510009765625,0.5643310546875,-0.2783203125,-0.841796875,0.49560546875,-0.25,-0.375,-1.0
2.079999999999978,-2.0,-3.0,8.0,7.0,-10.0,-6.0,-5.0,-3.0,-0.438720703125,-0.25543212890625,0.65093994140625,0.56439208984375,-0.2802734375,-0.85009765625,0.49560546875,0.1875,-0.4375,-0.75
2.0849999999999778,-2.0,-3.0,8.0,7.0,-10.0,-6.0,-5.0,-3.0,-0.438720703125,-0.25543212890625,0.65093994140625,0.56439208984375,-0.2802734375,-0.85009765625,0.49560546875,0.1875,-0.4375,-0.75
2.0899999999999777,-2.0,-3.0,8.0,7.0,-10.0,-6.0,-5.0,-3.0,-0.438720703125,-0.25543212890625,0.65093994140625,0.56439208984375,-0.2802734375,-0.85009765625,0.49560546875,0.1875,-0.4375,-0.75
2.0949999999999775,1.0,-1.0,-5.0,-5.0,-3.0,-2.0,0.0,-3.0,-0.438720703125,-0.25543212890625,0.65093994140625,0.56439208984375,-0.2802734375,-0.85009765625,0.49560546875,0.1875,-0.4375,-0.75
2.0999999999999774,1.0,-1.0,-5.0,-5.0,-3.0,-2.0,0.0,-3.0,-0.43865966796875,-0.25543212890625,0.65093994140625,0.56439208984375,-0.28125,-0.84375,0.4970703125,-0.375,-0.1875,-0.5625
2.1049999999999773,1.0,0.0,-1.0,1.0,-1.0,-2.0,0.0,-1.0,-0.43865966796875,-0.25543212890625,0.65093994140625,0.56439208984375,-0.28125,-0.84375,0.4970703125,-0.375,-0.1875,-0.5625
2.1099999999999772,1.0,0.0,-1.0,1.0,-1.0,-2.0,0.0,-1.0,-0.43865966796875,-0.25543212890625,0.65093994140625,0.56439208984375,-0.28125,-0.84375,0.4970703125,-0.375,-0.1875,-0.5625
2.114999999999977,0.0,0.0,7.0,4.0,8.0,1.0,-2.0,0.0,-0.43865966796875,-0.25543212890625,0.65093994140625,0.56439208984375,-0.28125,-0.84375,0.4970703125,-0.375,-0.1875,-0.5625
2.119999999999977,0.0,0.0,7.0,4.0,8.0,1.0,-2.0,0.0,-0.43865966796875,-0.25543212890625,0.65093994140625,0.56439208984375,-0.28125,-0.84375,0.4970703125,-0.375,-0.1875,-0.5625
2.124999999999977,0.0,0.0,7.0,4.0,8.0,1.0,-2.0,0.0,-0.43865966796875,-0.2554931640625,0.65093994140625,0.56439208984375,-0.28125,-0.85009765625,0.50048828125,-0.125,-0.375,-0.125
2.129999999999977,-1.0,-2.0,-6.0,-9.0,-7.0,-6.0,-2.0,-3.0,-0.43865966796875,-0.2554931640625,0.65093994140625,0.56439208984375,-0.28125,-0.85009765625,0.50048828125,-0.125,-0.375,-0.125
2.1349999999999767,-1.0,-2.0,-6.0,-9.0,-7.0,-6.0,-2.0,-3.0,-0.43865966796875,-0.2554931640625,0.65093994140625,0.56439208984375,-0.28125,-0.85009765625,0.50048828125,-0.125,-0.375,-0.125
2.1399999999999766,0.0,-2.0,-6.0,-6.0,1.0,-1.0,0.0,-2.0,-0.43865966796875,-0.2554931640625,0.65093994140625,0.56439208984375,-0.28125,-0.85009765625,0.50048828125,-0.125,-0.375,-0.125
2.1449999999999765,0.0,-2.0,-6.0,-6.0,1.0,-1.0,0.0,-2.0,-0.43865966796875,-0.2554931640625,0.65093994140625,0.56439208984375,-0.27783203125,-0.8466796875,0.49609375,0.5625,0.0625,0.3125
2.1499999999999764,0.0,-2.0,-6.0,-6.0,1.0,-1.0,0.0,-2.0,-0.43865966796875,-0.2554931640625,0.65093994140625,0.56439208984375,-0.27783203125,-0.8466796875,0.49609375,0.5625,0.0625,0.3125
2.1549999999999763,-3.0,-2.0,2.0,3.0,-5.0,0.0,0.0,-2.0,-0.43865966796875,-0.2554931640625,0.65093994140625,0.56439208984375,-0.27783203125,-0.8466796875,0.49609375,0.5625,0.0625,0.3125
2.159999999999976,-3.0,-2.0,2.0,3.0,-5.0,0.0,0.0,-2.0,-0.43865966796875,-0.2554931640625,0.65093994140625,0.56439208984375,-0.27783203125,-0.8466796875,0.49609375,0.5625,0.0625,0.3125
2.164999999999976,-3.0,-2.0,2.0,3.0,-5.0,0.0,0.0,-2.0,-0.43865966796875,-0.2554931640625,0.65093994140625,0.56439208984375,-0.27783203125,-0.8466796875,0.49609375,0.5625,0.0625,0.3125
2.169999999999976,1.0,1.0,2.0,-1.0,4.0,1.0,1.0,1.0,-0.4385986328125,-0.2554931640625,0.65093994140625,0.56439208984375,-0.27587890625,-0.8408203125,0.4912109375,0.5625,0.375,0.375
2.174999999999976,-1.0,1.0,-2.0,-2.0,-5.0,-7.0,-3.0,-2.0,-0.4385986328125,-0.2554931640625,0.65093994140625,0.56439208984375,-0.27587890625,-0.8408203125,0.4912109375,0.5625,0.375,0.375
2.1799999999999757,-1.0,1.0,-2.0,-2.0,-5.0,-7.0,-3.0,-2.0,-0.4385986328125,-0.25555419921875,0.65093994140625,0.564453125,-0.27685546875,-0.84228515625,0.4951171875,0.4375,0.375,0.25
2.1849999999999756,-1.0,1.0,-2.0,-2.0,-5.0,-7.0,-3.0,-2.0,-0.4385986328125,-0.25555419921875,0.65093994140625,0.564453125,-0.27685546875,-0.84228515625,0.4951171875,0.4375,0.375,0.25
2.1899999999999755,-2.0,-1.0,4.0,-8.0,-5.0,0.0,0.0,-2.0,-0.4385986328125,-0.25555419921875,0.65093994140625,0.564453125,-0.27685546875,-0.84228515625,0.4951171875,0.4375,0.375,0.25
2.1949999999999754,-2.0,-1.0,4.0,-8.0,-5.0,0.0,0.0,-2.0,-0.4385986328125,-0.25555419921875,0.65093994140625,0.564453125,-0.27685546875,-0.84228515625,0.4951171875,0.4375,0.375,0.25
2.1999999999999753,1.0,0.0,-1.0,-3.0,3.0,1.0,3.0,-1.0,-0.4385986328125,-0.25555419921875,0.65093994140625,0.564453125,-0.27685546875,-0.84228515625,0.4951171875,0.4375,0.375,0.25
2.204999999999975,-2.0,1.0,-1.0,-1.0,7.0,5.0,-2.0,-1.0,-0.4385986328125,-0.25555419921875,0.65093994140625,0.564453125,-0.27734375,-0.84521484375,0.49853515625,-0.9375,-0.25,0.0625
2.209999999999975,-2.0,1.0,-1.0,-1.0,7.0,5.0,-2.0,-1.0,-0.4385986328125,-0.25555419921875,0.65093994140625,0.564453125,-0.27734375,-0.84521484375,0.49853515625,-0.9375,-0.25,0.0625
2.214999999999975,-1.0,-2.0,-4.0,-1.0,-1.0,-4.0,-2.0,1.0,-0.4385986328125,-0.25555419921875,0.65093994140625,0.564453125,-0.27734375,-0.84521484375,0.49853515625,-0.9375,-0.25,0.0625
2.219999999999975,-1.0,-2.0,-4.0,-1.0,-1.0,-4.0,-2.0,1.0,-0.4385986328125,-0.25555419921875,0.65093994140625,0.564453125,-0.27734375,-0.84521484375,0.49853515625,-0.9375,-0.25,0.0625
2.2249999999999748,-1.0,-2.0,-4.0,-1.0,-1.0,-4.0,-2.0,1.0,-0.4385986328125,-0.25555419921875,0.65093994140625,0.564453125,-0.27734375,-0.84521484375,0.49853515625,-0.9375,-0.25,0.0625
2.2299999999999747,-1.0,-2.0,-4.0,-1.0,-1.0,-4.0,-2.0,1.0,-0.43853759765625,-0.25555419921875,0.65093994140625,0.564453125,-0.27880859375,-0.84423828125,0.5009765625,-0.0625,-0.25,0.0625
2.2349999999999746,-2.0,-2.0,1.0,1.0,-4.0,-2.0,-2.0,-1.0,-0.43853759765625,-0.25555419921875,0.65093994140625,0.564453125,-0.27880859375,-0.84423828125,0.5009765625,-0.0625,-0.25,0.0625
2.2399999999999745,-2.0,-2.0,1.0,1.0,-4.0,-2.0,-2.0,-1.0,-0.43853759765625,-0.25555419921875,0.65093994140625,0.564453125,-0.2822265625,-0.841796875,0.49951171875,0.25,0.125,-0.0625
2.2449999999999743,-2.0,-2.0,1.0,1.0,-4.0,-2.0,-2.0,-1.0,-0.43853759765625,-0.25555419921875,0.65093994140625,0.564453125,-0.2822265625,-0.841796875,0.49951171875,0.25,0.125,-0.0625
2.2499999999999742,-2.0,-2.0,-13.0,-7.0,-9.0,-3.0,-3.0,-2.0,-0.43853759765625,-0.25555419921875,0.65093994140625,0.564453125,-0.2822265625,-0.841796875,0.49951171875,0.25,0.125,-0.0625
2.254999999999974,-2.0,-2.0,-13.0,-7.0,-9.0,-3.0,-3.0,-2.0,-0.43853759765625,-0.25555419921875,0.65093994140625,0.564453125,-0.2822265625,-0.841796875,0.49951171875,0.25,0.125,-0.0625
2.259999999999974,-4.0,-1.0,5.0,-4.0,-1.0,-2.0,1.0,-3.0,-0.43853759765625,-0.25555419921875,0.65093994140625,0.564453125,-0.2822265625,-0.841796875,0.49951171875,0.25,0.125,-0.0625
2.264999999999974,-1.0,1.0,-2.0,-1.0,6.0,2.0,0.0,-1.0,-0.43853759765625,-0.25555419921875,0.65093994140625,0.564453125,-0.2822265625,-0.841796875,0.49951171875,0.25,0.125,-0.0625
2.269999999999974,-1.0,1.0,-2.0,-1.0,6.0,2.0,0.0,-1.0,-0.4384765625,-0.25555419921875,0.65093994140625,0.56451416015625,-0.27734375,-0.84423828125,0.4970703125,-0.3125,0.5625,-0.25
2.2749999999999737,-1.0,1.0,-2.0,-1.0,6.0,2.0,0.0,-1.0,-0.4384765625,-0.25555419921875,0.65093994140625,0.56451416015625,-0.27734375,-0.84423828125,0.4970703125,-0.3125,0.5625,-0.25
2.2799999999999736,-2.0,-2.0,-8.0,-7.0,1.0,3.0,-2.0,-3.0,-0.4384765625,-0.25555419921875,0.65093994140625,0.56451416015625,-0.27734375,-0.84423828125,0.4970703125,-0.3125,0.5625,-0.25
2.2849999999999735,-2.0,-2.0,-5.0,-5.0,0.0,-6.0,1.0,-2.0,-0.4384765625,-0.25555419921875,0.65093994140625,0.56451416015625,-0.27734375,-0.84423828125,0.4970703125,-0.3125,0.5625,-0.25
2.2899999999999734,-2.0,-2.0,-5.0,-5.0,0.0,-6.0,1.0,-2.0,-0.4384765625,-0.25555419921875,0.65093994140625,0.56451416015625,-0.27734375,-0.84423828125,0.4970703125,-0.3125,0.5625,-0.25
2.2949999999999733,-2.0,-2.0,-5.0,-5.0,0.0,-6.0,1.0,-2.0,-0.4384765625,-0.25555419921875,0.65093994140625,0.56451416015625,-0.27734375,-0.84423828125,0.4970703125,-0.3125,0.5625,-0.25
2.299999999999973,-2.0,-2.0,-5.0,-5.0,0.0,-6.0,1.0,-2.0,-0.4384765625,-0.25555419921875,0.65093994140625,0.56451416015625,-0.27734375,-0.84423828125,0.4970703125,-0.3125,0.5625,-0.25
2.304999999999973,-2.0,-2.0,-5.0,-5.0,0.0,-6.0,1.0,-2.0,-0.4384765625,-0.25555419921875,0.65093994140625,0.56451416015625,-0.27734375,-0.84423828125,0.4970703125,-0.3125,0.5625,-0.25
2.309999999999973,0.0,-1.0,-2.0,-1.0,-4.0,0.0,2.0,-1.0,-0.4384765625,-0.255615234375,0.65093994140625,0.56451416015625,-0.27392578125,-0.84033203125,0.4951171875,0.4375,0.6875,-0.3125
2.314999999999973,0.0,0.0,3.0,-3.0,-2.0,-5.0,-3.0,-1.0,-0.4384765625,-0.255615234375,0.65093994140625,0.56451416015625,-0.27392578125,-0.84033203125,0.4951171875,0.4375,0.6875,-0.3125
2.3199999999999728,-2.0,0.0,8.0,2.0,-3.0,-4.0,-3.0,-3.0,-0.43841552734375,-0.25555419921875,0.65093994140625,0.56451416015625,-0.279296875,-0.83642578125,0.5078125,0.125,0.6875,-0.4375
2.3249999999999726,-2.0,0.0,8.0,2.0,-3.0,-4.0,-3.0,-3.0,-0.43841552734375,-0.25555419921875,0.65093994140625,0.56451416015625,-0.279296875,-0.83642578125,0.5078125,0.125,0.6875,-0.4375
2.3299999999999725,-3.0,0.0,-4.0,-2.0,0.0,2.0,-1.0,-1.0,-0.43841552734375,-0.25555419921875,0.65093994140625,0.56451416015625,-0.279296875,-0.83642578125,0.5078125,0.125,0.6875,-0.4375
2.3349999999999724,-3.0,0.0,-4.0,-2.0,0.0,2.0,-1.0,-1.0,-0.43841552734375,-0.25555419921875,0.65093994140625,0.56451416015625,-0.279296875,-0.83642578125,0.5078125,0.125,0.6875,-0.4375
2.3399999999999723,-3.0,0.0,-4.0,-2.0,0.0,2.0,-1.0,-1.0,-0.43841552734375,-0.25555419921875,0.65093994140625,0.5645751953125,-0.283203125,-0.84033203125,0.5009765625,-0.8125,0.375,-0.375
2.344999999999972,1.0,-1.0,7.0,7.0,7.0,4.0,0.0,3.0,-0.43841552734375,-0.25555419921875,0.65093994140625,0.5645751953125,-0.283203125,-0.84033203125,0.5009765625,-0.8125,0.375,-0.375
2.349999999999972,2.0,-2.0,-19.0,-14.0,-3.0,3.0,-1.0,0.0,-0.43841552734375,-0.25555419921875,0.65093994140625,0.5645751953125,-0.283203125,-0.84033203125,0.5009765625,-0.8125,0.375,-0.375
2.354999999999972,2.0,-2.0,-19.0,-14.0,-3.0,3.0,-1.0,0.0,-0.43841552734375,-0.25555419921875,0.65093994140625,0.5645751953125,-0.283203125,-0.84033203125,0.5009765625,-0.8125,0.375,-0.375
2.359999999999972,-1.0,-1.0,-2.0,3.0,-6.0,-6.0,-3.0,-1.0,-0.4383544921875,-0.25555419921875,0.65093994140625,0.5645751953125,-0.28125,-0.84814453125,0.5009765625,-0.0625,0.3125,-0.3125
2.364999999999972,-1.0,-1.0,-2.0,3.0,-6.0,-6.0,-3.0,-1.0,-0.4383544921875,-0.25555419921875,0.65093994140625,0.5645751953125,-0.28125,-0.84814453125,0.5009765625,-0.0625,0.3125,-0.3125
2.3699999999999717,-1.0,-2.0,0.0,1.0,-1.0,2.0,-2.0,-2.0,-0.4383544921875,-0.25555419921875,0.65093994140625,0.5645751953125,-0.28125,-0.84814453125,0.5009765625,-0.0625,0.3125,-0.3125
2.3749999999999716,-1.0,-2.0,0.0,1.0,-1.0,2.0,-2.0,-2.0,-0.4383544921875,-0.25555419921875,0.65093994140625,0.5645751953125,-0.28125,-0.84814453125,0.5009765625,-0.0625,0.3125,-0.3125
2.3799999999999715,-1.0,-2.0,0.0,1.0,-1.0,2.0,-2.0,-2.0,-0.4383544921875,-0.255615234375,0.65093994140625,0.5645751953125,-0.279296875,-0.8388671875,0.4912109375,-0.125,0.5,-0.375
2.3849999999999714,-1.0,-2.0,0.0,1.0,-1.0,2.0,-2.0,-2.0,-0.4383544921875,-0.255615234375,0.65093994140625,0.5645751953125,-0.279296875,-0.8388671875,0.4912109375,-0.125,0.5,-0.375
2.3899999999999713,-4.0,-1.0,-7.0,-8.0,2.0,-1.0,0.0,-1.0,-0.4383544921875,-0.255615234375,0.65093994140625,0.5645751953125,-0.279296875,-0.8388671875,0.4912109375,-0.125,0.5,-0.375
2.394999999999971,-4.0,-1.0,-7.0,-8.0,2.0,-1.0,0.0,-1.0,-0.4383544921875,-0.255615234375,0.65093994140625,0.5645751953125,-0.279296875,-0.8388671875,0.4912109375,-0.125,0.5,-0.375
2.399999999999971,-3.0,-1.0,3.0,1.0,0.0,3.0,2.0,0.0,-0.4383544921875,-0.255615234375,0.65093994140625,0.5645751953125,-0.279296875,-0.8388671875,0.4912109375,-0.125,0.5,-0.375
2.404999999999971,-3.0,-1.0,3.0,1.0,0.0,3.0,2.0,0.0,-0.4383544921875,-0.255615234375,0.65093994140625,0.5645751953125,-0.279296875,-0.8388671875,0.4912109375,-0.125,0.5,-0.375
2.409999999999971,-3.0,-1.0,3.0,1.0,0.0,3.0,2.0,0.0,-0.4383544921875,-0.255615234375,0.65093994140625,0.5645751953125,-0.2783203125,-0.84521484375,0.49658203125,0.5625,0.625,-0.125
2.4149999999999707,-1.0,0.0,-3.0,-1.0,4.0,1.0,-2.0,0.0,-0.4383544921875,-0.255615234375,0.65093994140625,0.5645751953125,-0.2783203125,-0.84521484375,0.49658203125,0.5625,0.625,-0.125
2.4199999999999706,-1.0,-1.0,8.0,1.0,-4.0,-8.0,-3.0,-3.0,-0.4383544921875,-0.255615234375,0.65093994140625,0.5645751953125,-0.2783203125,-0.84521484375,0.49658203125,0.5625,0.625,-0.125
2.4249999999999705,-1.0,-1.0,8.0,1.0,-4.0,-8.0,-3.0,-3.0,-0.4383544921875,-0.255615234375,0.65093994140625,0.5645751953125,-0.2783203125,-0.84521484375,0.49658203125,0.5625,0.625,-0.125
2.4299999999999704,-1.0,-1.0,8.0,1.0,-4.0,-8.0,-3.0,-3.0,-0.4383544921875,-0.255615234375,0.65093994140625,0.5645751953125,-0.2783203125,-0.84521484375,0.49658203125,0.5625,0.625,-0.125
2.4349999999999703,-1.0,-1.0,8.0,1.0,-4.0,-8.0,-3.0,-3.0,-0.4383544921875,-0.255615234375,0.65093994140625,0.5645751953125,-0.2783203125,-0.84521484375,0.49658203125,0.5625,0.625,-0.125
2.43999999999997,2.0,-2.0,-10.0,-9.0,-1.0,4.0,2.0,0.0,-0.4383544921875,-0.255615234375,0.65093994140625,0.5645751953125,-0.28173828125,-0.8408203125,0.498046875,-0.0625,0.625,-0.0625
2.44499999999997,0.0,-2.0,-9.0,-5.0,-3.0,-2.0,-1.0,1.0,-0.4383544921875,-0.255615234375,0.65093994140625,0.5645751953125,-0.28173828125,-0.8408203125,0.498046875,-0.0625,0.625,-0.0625
2.44999999999997,0.0,-2.0,-9.0,-5.0,-3.0,-2.0,-1.0,1.0,-0.4383544921875,-0.255615234375,0.65093994140625,0.5645751953125,-0.28173828125,-0.8408203125,0.498046875,-0.0625,0.625,-0.0625
2.45499999999997,0.0,-2.0,-9.0,-5.0,-3.0,-2.0,-1.0,1.0,-0.43829345703125,-0.255615234375,0.65093994140625,0.56463623046875,-0.27685546875,-0.8466796875,0.49609375,-0.5,0.3125,0.125
2.4599999999999698,0.0,-2.0,-9.0,-5.0,-3.0,-2.0,-1.0,1.0,-0.43829345703125,-0.255615234375,0.65093994140625,0.56463623046875,-0.27685546875,-0.8466796875,0.49609375,-0.5,0.3125,0.125
2.4649999999999697,0.0,-1.0,2.0,2.0,-3.0,2.0,-1.0,-2.0,-0.43829345703125,-0.255615234375,0.65093994140625,0.56463623046875,-0.27685546875,-0.8466796875,0.49609375,-0.5,0.3125,0.125
2.4699999999999696,0.0,-1.0,2.0,2.0,-3.0,2.0,-1.0,-2.0,-0.43829345703125,-0.255615234375,0.65093994140625,0.56463623046875,-0.27685546875,-0.8466796875,0.49609375,-0.5,0.3125,0.125
2.4749999999999694,1.0,-1.0,-2.0,1.0,-3.0,-2.0,-1.0,-2.0,-0.43829345703125,-0.255615234375,0.65093994140625,0.56463623046875,-0.27685546875,-0.8466796875,0.49609375,-0.5,0.3125,0.125
2.4799999999999693,1.0,-1.0,-2.0,1.0,-3.0,-2.0,-1.0,-2.0,-0.43829345703125,-0.255615234375,0.65093994140625,0.56463623046875,-0.27685546875,-0.8466796875,0.49609375,-0.5,0.3125,0.125
2.4849999999999692,1.0,-1.0,-2.0,1.0,-3.0,-2.0,-1.0,-2.0,-0.43829345703125,-0.255615234375,0.65093994140625,0.56463623046875,-0.28271484375,-0.84521484375,0.4990234375,-0.0625,0.375,0.1875
2.489999999999969,1.0,-1.0,-2.0,1.0,-3.0,-2.0,-1.0,-2.0,-0.43829345703125,-0.255615234375,0.65093994140625,0.56463623046875,-0.28271484375,-0.84521484375,0.4990234375,-0.0625,0.375,0.1875
2.494999999999969,-2.0,-4.0,-3.0,0.0,-1.0,-4.0,0.0,-1.0,-0.43829345703125,-0.255615234375,0.65093994140625,0.56463623046875,-0.28271484375,-0.84521484375,0.4990234375,-0.0625,0.375,0.1875
2.499999999999969,-2.0,-4.0,-3.0,0.0,-1.0,-4.0,0.0,-1.0,-0.43829345703125,-0.255615234375,0.65093994140625,0.56463623046875,-0.28271484375,-0.84521484375,0.4990234375,-0.0625,0.375,0.1875
2.504999999999969,-2.0,-4.0,-3.0,0.0,-1.0,-4.0,0.0,-1.0,-0.43829345703125,-0.255615234375,0.65093994140625,0.56463623046875,-0.28271484375,-0.84521484375,0.4990234375,-0.0625,0.375,0.1875
2.5099999999999687,-2.0,-4.0,-3.0,0.0,-1.0,-4.0,0.0,-1.0,-0.43829345703125,-0.255615234375,0.65093994140625,0.56463623046875,-0.28271484375,-0.84521484375,0.4990234375,-0.0625,0.375,0.1875
2.5149999999999686,-2.0,-4.0,-3.0,0.0,-1.0,-4.0,0.0,-1.0,-0.43829345703125,-0.25567626953125,0.65093994140625,0.56463623046875,-0.28271484375,-0.84716796875,0.498046875,0.3125,0.3125,0.0
2.5199999999999685,-1.0,0.0,-5.0,-2.0,4.0,5.0,-1.0,2.0,-0.43829345703125,-0.25567626953125,0.65093994140625,0.56463623046875,-0.28271484375,-0.84716796875,0.498046875,0.3125,0.3125,0.0
2.5249999999999684,-1.0,0.0,-12.0,-12.0,-2.0,-5.0,-2.0,-2.0,-0.43829345703125,-0.25567626953125,0.65093994140625,0.56463623046875,-0.28271484375,-0.84716796875,0.498046875,0.3125,0.3125,0.0
2.5299999999999683,-1.0,0.0,-12.0,-12.0,-2.0,-5.0,-2.0,-2.0,-0.43829345703125,-0.25567626953125,0.65093994140625,0.56463623046875,-0.28271484375,-0.84716796875,0.498046875,0.3125,0.3125,0.0
2.534999999999968,-1.0,0.0,-12.0,-12.0,-2.0,-5.0,-2.0,-2.0,-0.438232421875,-0.25567626953125,0.65093994140625,0.56463623046875,-0.27978515625,-0.84814453125,0.50146484375,-0.125,0.5625,-0.25
2.539999999999968,-1.0,0.0,-12.0,-12.0,-2.0,-5.0,-2.0,-2.0,-0.438232421875,-0.25567626953125,0.65093994140625,0.56463623046875,-0.27978515625,-0.84814453125,0.50146484375,-0.125,0.5625,-0.25
2.544999999999968,-2.0,0.0,-4.0,-3.0,-12.0,-6.0,-1.0,-3.0,-0.438232421875,-0.25567626953125,0.65093994140625,0.56463623046875,-0.27978515625,-0.84814453125,0.50146484375,-0.125,0.5625,-0.25
2.549999999999968,-2.0,0.0,-4.0,-3.0,-12.0,-6.0,-1.0,-3.0,-0.438232421875,-0.25567626953125,0.65093994140625,0.56463623046875,-0.27978515625,-0.84814453125,0.50146484375,-0.125,0.5625,-0.25
2.5549999999999677,-2.0,1.0,8.0,7.0,10.0,5.0,-1.0,-1.0,-0.438232421875,-0.25567626953125,0.65093994140625,0.56463623046875,-0.27978515625,-0.84814453125,0.50146484375,-0.125,0.5625,-0.25
2.5599999999999676,-2.0,1.0,8.0,7.0,10.0,5.0,-1.0,-1.0,-0.438232421875,-0.25567626953125,0.65093994140625,0.56463623046875,-0.27978515625,-0.84814453125,0.50146484375,-0.125,0.5625,-0.25
2.5649999999999675,-2.0,1.0,8.0,7.0,10.0,5.0,-1.0,-1.0,-0.4381103515625,-0.255615234375,0.65093994140625,0.5648193359375,-0.2822265625,-0.8466796875,0.498046875,1.0625,0.125,-0.4375
2.5699999999999674,-2.0,1.0,8.0,7.0,10.0,5.0,-1.0,-1.0,-0.4381103515625,-0.255615234375,0.65093994140625,0.5648193359375,-0.2822265625,-0.8466796875,0.498046875,1.0625,0.125,-0.4375
2.5749999999999673,-1.0,-1.0,5.0,2.0,-9.0,-3.0,-1.0,-1.0,-0.4381103515625,-0.255615234375,0.65093994140625,0.5648193359375,-0.2822265625,-0.8466796875,0.498046875,1.0625,0.125,-0.4375
2.579999999999967,-1.0,-1.0,5.0,2.0,-9.0,-3.0,-1.0,-1.0,-0.4381103515625,-0.255615234375,0.65093994140625,0.5648193359375,-0.2822265625,-0.8466796875,0.498046875,1.0625,0.125,-0.4375
2.584999999999967,-1.0,-1.0,5.0,2.0,-9.0,-3.0,-1.0,-1.0,-0.4381103515625,-0.255615234375,0.65093994140625,0.5648193359375,-0.2822265625,-0.8466796875,0.498046875,1.0625,0.125,-0.4375
2.589999999999967,-1.0,-1.0,5.0,2.0,-9.0,-3.0,-1.0,-1.0,-0.4381103515625,-0.255615234375,0.65093994140625,0.5648193359375,-0.2822265625,-0.8466796875,0.498046875,1.0625,0.125,-0.4375
2.594999999999967,1.0,-4.0,1.0,0.0,-2.0,-3.0,-1.0,-1.0,-0.4381103515625,-0.255615234375,0.65093994140625,0.5648193359375,-0.279296875,-0.837890625,0.49560546875,-0.4375,-0.0625,-0.1875
2.599999999999967,1.0,-4.0,1.0,0.0,-2.0,-3.0,-1.0,-1.0,-0.4381103515625,-0.255615234375,0.65093994140625,0.5648193359375,-0.279296875,-0.837890625,0.49560546875,-0.4375,-0.0625,-0.1875
2.6049999999999667,-2.0,1.0,-3.0,1.0,2.0,3.0,-1.0,-2.0,-0.4381103515625,-0.255615234375,0.65093994140625,0.5648193359375,-0.279296875,-0.837890625,0.49560546875,-0.4375,-0.0625,-0.1875
2.6099999999999666,-2.0,1.0,-3.0,1.0,2.0,3.0,-1.0,-2.0,-0.4381103515625,-0.255615234375,0.65093994140625,0.5648193359375,-0.279296875,-0.837890625,0.49560546875,-0.4375,-0.0625,-0.1875
2.6149999999999665,-2.0,1.0,-3.0,1.0,2.0,3.0,-1.0,-2.0,-0.43804931640625,-0.255615234375,0.65087890625,0.5648193359375,-0.28271484375,-0.84423828125,0.494140625,-0.3125,-0.3125,0.0625
2.6199999999999664,-2.0,1.0,-3.0,1.0,2.0,3.0,-1.0,-2.0,-0.43804931640625,-0.255615234375,0.65087890625,0.5648193359375,-0.28271484375,-0.84423828125,0.494140625,-0.3125,-0.3125,0.0625
2.6249999999999662,-2.0,0.0,6.0,4.0,1.0,5.0,-1.0,-2.0,-0.43804931640625,-0.255615234375,0.65087890625,0.5648193359375,-0.28271484375,-0.84423828125,0.494140625,-0.3125,-0.3125,0.0625
2.629999999999966,-2.0,0.0,6.0,4.0,1.0,5.0,-1.0,-2.0,-0.43804931640625,-0.255615234375,0.65087890625,0.5648193359375,-0.28271484375,-0.84423828125,0.494140625,-0.3125,-0.3125,0.0625
2.634999999999966,-1.0,-2.0,7.0,0.0,-7.0,-6.0,-2.0,-3.0,-0.43804931640625,-0.255615234375,0.65087890625,0.5648193359375,-0.28271484375,-0.84423828125,0.494140625,-0.3125,-0.3125,0.0625
2.639999999999966,-1.0,-2.0,7.0,0.0,-7.0,-6.0,-2.0,-3.0,-0.43804931640625,-0.255615234375,0.65087890625,0.5648193359375,-0.28271484375,-0.84423828125,0.494140625,-0.3125,-0.3125,0.0625
2.644999999999966,-1.0,-2.0,7.0,0.0,-7.0,-6.0,-2.0,-3.0,-0.43804931640625,-0.255615234375,0.65087890625,0.5648193359375,-0.28271484375,-0.84423828125,0.494140625,-0.3125,-0.3125,0.0625
2.6499999999999657,-1.0,-2.0,7.0,0.0,-7.0,-6.0,-2.0,-3.0,-0.43804931640625,-0.255615234375,0.65087890625,0.5648193359375,-0.28271484375,-0.84423828125,0.494140625,-0.3125,-0.3125,0.0625
2.6549999999999656,-2.0,0.0,0.0,-1.0,-3.0,3.0,0.0,2.0,-0.43804931640625,-0.255615234375,0.65087890625,0.56488037109375,-0.27783203125,-0.845703125,0.494140625,-0.0625,0.4375,0.1875
2.6599999999999655,-2.0,0.0,0.0,-1.0,-3.0,3.0,0.0,2.0,-0.43804931640625,-0.255615234375,0.65087890625,0.56488037109375,-0.27783203125,-0.845703125,0.494140625,-0.0625,0.4375,0.1875
2.6649999999999654,-2.0,0.0,0.0,-1.0,-3.0,3.0,0.0,2.0,-0.43804931640625,-0.255615234375,0.65087890625,0.56488037109375,-0.27783203125,-0.845703125,0.494140625,-0.0625,0.4375,0.1875
2.6699999999999653,-2.0,-1.0,-11.0,-3.0,-3.0,-3.0,-2.0,-1.0,-0.43804931640625,-0.255615234375,0.65087890625,0.56488037109375,-0.283203125,-0.8447265625,0.4990234375,0.1875,0.25,0.25
2.674999999999965,-2.0,-1.0,-11.0,-3.0,-3.0,-3.0,-2.0,-1.0,-0.43804931640625,-0.255615234375,0.65087890625,0.56488037109375,-0.283203125,-0.8447265625,0.4990234375,0.1875,0.25,0.25
2.679999999999965,0.0,-2.0,3.0,-1.0,-8.0,-2.0,0.0,0.0,-0.43804931640625,-0.255615234375,0.65087890625,0.56488037109375,-0.283203125,-0.8447265625,0.4990234375,0.1875,0.25,0.25
2.684999999999965,0.0,-2.0,3.0,-1.0,-8.0,-2.0,0.0,0.0,-0.43804931640625,-0.255615234375,0.65087890625,0.56488037109375,-0.275390625,-0.8388671875,0.5,0.625,0.125,0.4375
2.689999999999965,0.0,-2.0,3.0,-1.0,-8.0,-2.0,0.0,0.0,-0.43804931640625,-0.255615234375,0.65087890625,0.56488037109375,-0.275390625,-0.8388671875,0.5,0.625,0.125,0.4375
2.6949999999999648,0.0,0.0,-5.0,-2.0,-3.0,2.0,0.0,-1.0,-0.43804931640625,-0.255615234375,0.65087890625,0.56488037109375,-0.275390625,-0.8388671875,0.5,0.625,0.125,0.4375
2.6999999999999647,0.0,0.0,-5.0,-2.0,-3.0,2.0,0.0,-1.0,-0.43804931640625,-0.255615234375,0.65087890625,0.56488037109375,-0.275390625,-0.8388671875,0.5,0.625,0.125,0.4375
2.7049999999999645,-1.0,-1.0,5.0,4.0,0.0,-1.0,-2.0,-1.0,-0.43804931640625,-0.255615234375,0.65087890625,0.56488037109375,-0.275390625,-0.8388671875,0.5,0.625,0.125,0.4375
2.7099999999999644,-1.0,-1.0,5.0,4.0,0.0,-1.0,-2.0,-1.0,-0.43804931640625,-0.255615234375,0.65087890625,0.56488037109375,-0.275390625,-0.8388671875,0.5,0.625,0.125,0.4375
2.7149999999999643,-1.0,-1.0,5.0,4.0,0.0,-1.0,-2.0,-1.0,-0.43804931640625,-0.255615234375,0.65087890625,0.56488037109375,-0.275390625,-0.8388671875,0.5,0.625,0.125,0.4375
2.7199999999999642,-1.0,-1.0,5.0,4.0,0.0,-1.0,-2.0,-1.0,-0.43798828125,-0.255615234375,0.65087890625,0.56488037109375,-0.28515625,-0.8427734375,0.49609375,0.125,0.3125,0.5
2.724999999999964,1.0,-4.0,-2.0,-3.0,6.0,-2.0,-2.0,0.0,-0.43798828125,-0.255615234375,0.65087890625,0.56488037109375,-0.28515625,-0.8427734375,0.49609375,0.125,0.3125,0.5
2.729999999999964,1.0,-4.0,-2.0,-3.0,6.0,-2.0,-2.0,0.0,-0.43798828125,-0.255615234375,0.65087890625,0.56488037109375,-0.28515625,-0.8427734375,0.49609375,0.125,0.3125,0.5
2.734999999999964,1.0,-4.0,-2.0,-3.0,6.0,-2.0,-2.0,0.0,-0.43798828125,-0.255615234375,0.65087890625,0.56488037109375,-0.28515625,-0.8427734375,0.49609375,0.125,0.3125,0.5
2.739999999999964,1.0,-1.0,-1.0,-2.0,4.0,3.0,2.0,-1.0,-0.43798828125,-0.255615234375,0.65087890625,0.56488037109375,-0.28271484375,-0.84228515625,0.49951171875,0.0,0.125,0.1875
2.7449999999999637,-2.0,2.0,-1.0,1.0,-3.0,0.0,0.0,-2.0,-0.43798828125,-0.255615234375,0.65087890625,0.56488037109375,-0.28271484375,-0.84228515625,0.49951171875,0.0,0.125,0.1875
2.7499999999999636,-2.0,2.0,-1.0,1.0,-3.0,0.0,0.0,-2.0,-0.43798828125,-0.255615234375,0.65087890625,0.56488037109375,-0.28271484375,-0.84228515625,0.49951171875,0.0,0.125,0.1875
2.7549999999999635,-2.0,0.0,2.0,-1.0,-4.0,-5.0,-2.0,-2.0,-0.43798828125,-0.255615234375,0.65087890625,0.56488037109375,-0.2822265625,-0.84228515625,0.4951171875,0.0625,-0.1875,-0.25
2.7599999999999634,-2.0,0.0,2.0,-1.0,-4.0,-5.0,-2.0,-2.0,-0.43798828125,-0.255615234375,0.65087890625,0.56488037109375,-0.2822265625,-0.84228515625,0.4951171875,0.0625,-0.1875,-0.25
2.7649999999999633,-5.0,-3.0,-7.0,-8.0,1.0,-5.0,-4.0,-1.0,-0.43798828125,-0.255615234375,0.65087890625,0.56488037109375,-0.2822265625,-0.84228515625,0.4951171875,0.0625,-0.1875,-0.25
2.769999999999963,-5.0,-3.0,-7.0,-8.0,1.0,-5.0,-4.0,-1.0,-0.43798828125,-0.255615234375,0.65087890625,0.56488037109375,-0.2822265625,-0.84228515625,0.4951171875,0.0625,-0.1875,-0.25
2.774999999999963,0.0,0.0,-5.0,0.0,0.0,2.0,0.0,-1.0,-0.43798828125,-0.255615234375,0.65087890625,0.56488037109375,-0.2822265625,-0.84228515625,0.4951171875,0.0625,-0.1875,-0.25
2.779999999999963,0.0,0.0,-5.0,0.0,0.0,2.0,0.0,-1.0,-0.43798828125,-0.25567626953125,0.65087890625,0.56488037109375,-0.2763671875,-0.84619140625,0.494140625,0.1875,-0.375,-0.3125
2.784999999999963,0.0,0.0,-5.0,0.0,0.0,2.0,0.0,-1.0,-0.43798828125,-0.25567626953125,0.65087890625,0.56488037109375,-0.2763671875,-0.84619140625,0.494140625,0.1875,-0.375,-0.3125
2.7899999999999627,0.0,0.0,-5.0,0.0,0.0,2.0,0.0,-1.0,-0.43798828125,-0.25567626953125,0.65087890625,0.56488037109375,-0.2763671875,-0.84619140625,0.494140625,0.1875,-0.375,-0.3125
2.7949999999999626,0.0,-1.0,-8.0,-2.0,-2.0,-2.0,-4.0,0.0,-0.43798828125,-0.25567626953125,0.65087890625,0.56488037109375,-0.2763671875,-0.84619140625,0.494140625,0.1875,-0.375,-0.3125
2.7999999999999625,0.0,-1.0,-8.0,-2.0,-2.0,-2.0,-4.0,0.0,-0.43798828125,-0.25567626953125,0.65087890625,0.56488037109375,-0.2763671875,-0.84619140625,0.494140625,0.1875,-0.375,-0.3125
2.8049999999999624,0.0,-2.0,0.0,1.0,-1.0,-6.0,-4.0,-1.0,-0.43798828125,-0.25567626953125,0.65087890625,0.56494140625,-0.27978515625,-0.8408203125,0.49462890625,0.375,-0.375,-0.3125
2.8099999999999623,0.0,-2.0,0.0,1.0,-1.0,-6.0,-4.0,-1.0,-0.43798828125,-0.25567626953125,0.65087890625,0.56494140625,-0.27978515625,-0.8408203125,0.49462890625,0.375,-0.375,-0.3125
2.814999999999962,1.0,0.0,4.0,2.0,-4.0,8.0,1.0,-3.0,-0.43798828125,-0.25567626953125,0.65087890625,0.56494140625,-0.27978515625,-0.8408203125,0.49462890625,0.375,-0.375,-0.3125
2.819999999999962,-3.0,-1.0,4.0,1.0,3.0,1.0,1.0,-3.0,-0.43798828125,-0.25567626953125,0.65087890625,0.56494140625,-0.27978515625,-0.8408203125,0.49462890625,0.375,-0.375,-0.3125
2.824999999999962,-3.0,-1.0,4.0,1.0,3.0,1.0,1.0,-3.0,-0.43792724609375,-0.25567626953125,0.65087890625,0.56494140625,-0.28173828125,-0.84033203125,0.49365234375,0.25,-0.3125,0.0
2.829999999999962,-1.0,0.0,3.0,-7.0,-2.0,-6.0,-2.0,-1.0,-0.43792724609375,-0.25567626953125,0.65087890625,0.56494140625,-0.28173828125,-0.84033203125,0.49365234375,0.25,-0.3125,0.0
2.8349999999999618,-1.0,0.0,3.0,-7.0,-2.0,-6.0,-2.0,-1.0,-0.43792724609375,-0.25567626953125,0.65087890625,0.56494140625,-0.28173828125,-0.84033203125,0.49365234375,0.25,-0.3125,0.0
2.8399999999999617,-1.0,0.0,3.0,-7.0,-2.0,-6.0,-2.0,-1.0,-0.43792724609375,-0.25567626953125,0.65087890625,0.56494140625,-0.28173828125,-0.84033203125,0.49365234375,0.25,-0.3125,0.0
2.8449999999999616,-2.0,0.0,-4.0,-3.0,-2.0,2.0,-1.0,0.0,-0.43792724609375,-0.25567626953125,0.65087890625,0.56494140625,-0.28173828125,-0.84033203125,0.49365234375,0.25,-0.3125,0.0
2.8499999999999615,-2.0,0.0,-4.0,-3.0,-2.0,2.0,-1.0,0.0,-0.43792724609375,-0.25567626953125,0.65087890625,0.56494140625,-0.28125,-0.85009765625,0.49462890625,-0.125,0.0,0.375
2.8549999999999613,-2.0,0.0,-4.0,-3.0,-2.0,2.0,-1.0,0.0,-0.43792724609375,-0.25567626953125,0.65087890625,0.56494140625,-0.28125,-0.85009765625,0.49462890625,-0.125,0.0,0.375
2.8599999999999612,0.0,0.0,-3.0,0.0,-1.0,1.0,0.0,-1.0,-0.43792724609375,-0.25567626953125,0.65087890625,0.56494140625,-0.28125,-0.85009765625,0.49462890625,-0.125,0.0,0.375
2.864999999999961,0.0,0.0,-3.0,0.0,-1.0,1.0,0.0,-1.0,-0.43792724609375,-0.25567626953125,0.65087890625,0.56494140625,-0.28125,-0.85009765625,0.49462890625,-0.125,0.0,0.375
2.869999999999961,0.0,0.0,-3.0,0.0,-1.0,1.0,0.0,-1.0,-0.43792724609375,-0.25567626953125,0.65087890625,0.56494140625,-0.28125,-0.85009765625,0.49462890625,-0.125,0.0,0.375
2.874999999999961,-1.0,-1.0,-5.0,-3.0,-5.0,-3.0,-1.0,-1.0,-0.43792724609375,-0.2557373046875,0.65087890625,0.56494140625,-0.279296875,-0.84912109375,0.49853515625,0.0,-0.125,0.375
2.879999999999961,-1.0,-4.0,3.0,1.0,-5.0,-3.0,0.0,-2.0,-0.43792724609375,-0.2557373046875,0.65087890625,0.56494140625,-0.279296875,-0.84912109375,0.49853515625,0.0,-0.125,0.375
2.8849999999999607,1.0,-3.0,-6.0,-3.0,-3.0,-4.0,-2.0,-1.0,-0.43792724609375,-0.2557373046875,0.65087890625,0.56494140625,-0.279296875,-0.84912109375,0.49853515625,0.0,-0.125,0.375
2.8899999999999606,1.0,-3.0,-6.0,-3.0,-3.0,-4.0,-2.0,-1.0,-0.43792724609375,-0.2557373046875,0.65087890625,0.56494140625,-0.2744140625,-0.841796875,0.5009765625,0.9375,0.125,0.5625
2.8949999999999605,1.0,-3.0,-6.0,-3.0,-3.0,-4.0,-2.0,-1.0,-0.43792724609375,-0.2557373046875,0.65087890625,0.56494140625,-0.2744140625,-0.841796875,0.5009765625,0.9375,0.125,0.5625
2.8999999999999604,-2.0,-2.0,-5.0,-7.0,-5.0,-4.0,1.0,-1.0,-0.43792724609375,-0.2557373046875,0.65087890625,0.56494140625,-0.2744140625,-0.841796875,0.5009765625,0.9375,0.125,0.5625
2.9049999999999603,-2.0,-2.0,-5.0,-7.0,-5.0,-4.0,1.0,-1.0,-0.43792724609375,-0.2557373046875,0.65087890625,0.56494140625,-0.2744140625,-0.841796875,0.5009765625,0.9375,0.125,0.5625
2.90999999999996,-2.0,-2.0,-5.0,-7.0,-5.0,-4.0,1.0,-1.0,-0.43792724609375,-0.2557373046875,0.65087890625,0.56494140625,-0.2744140625,-0.841796875,0.5009765625,0.9375,0.125,0.5625
2.91499999999996,-2.0,-2.0,-5.0,-7.0,-5.0,-4.0,1.0,-1.0,-0.43792724609375,-0.2557373046875,0.65087890625,0.56494140625,-0.2744140625,-0.841796875,0.5009765625,0.9375,0.125,0.5625
2.91999999999996,-3.0,-1.0,-2.0,0.0,5.0,5.0,0.0,-2.0,-0.43792724609375,-0.2557373046875,0.65087890625,0.56494140625,-0.2744140625,-0.841796875,0.5009765625,0.9375,0.125,0.5625
2.92499999999996,-2.0,1.0,4.0,5.0,-3.0,-4.0,-2.0,1.0,-0.4378662109375,-0.2557373046875,0.65087890625,0.56500244140625,-0.28076171875,-0.84130859375,0.5029296875,0.3125,-0.0625,0.625
2.9299999999999597,-2.0,1.0,4.0,5.0,-3.0,-4.0,-2.0,1.0,-0.4378662109375,-0.2557373046875,0.65087890625,0.56500244140625,-0.28076171875,-0.84130859375,0.5029296875,0.3125,-0.0625,0.625
2.9349999999999596,-1.0,-4.0,-8.0,-7.0,-6.0,-7.0,-1.0,-2.0,-0.4378662109375,-0.2557373046875,0.65087890625,0.56500244140625,-0.28076171875,-0.84130859375,0.5029296875,0.3125,-0.0625,0.625
2.9399999999999595,-2.0,-4.0,-1.0,-3.0,2.0,4.0,1.0,-1.0,-0.4378662109375,-0.2557373046875,0.65087890625,0.56500244140625,-0.27880859375,-0.84033203125,0.50048828125,0.0,0.0,0.5
2.9449999999999594,-2.0,-4.0,-1.0,-3.0,2.0,4.0,1.0,-1.0,-0.4378662109375,-0.2557373046875,0.65087890625,0.56500244140625,-0.27880859375,-0.84033203125,0.50048828125,0.0,0.0,0.5
2.9499999999999593,0.0,0.0,7.0,3.0,5.0,1.0,-1.0,0.0,-0.4378662109375,-0.2557373046875,0.65087890625,0.56500244140625,-0.27880859375,-0.84033203125,0.50048828125,0.0,0.0,0.5
2.954999999999959,0.0,1.0,-4.0,-1.0,11.0,3.0,-3.0,1.0,-0.43780517578125,-0.2557373046875,0.65087890625,0.56500244140625,-0.2841796875,-0.84326171875,0.501953125,0.0,-0.375,0.3125
2.959999999999959,0.0,1.0,-4.0,-1.0,11.0,3.0,-3.0,1.0,-0.43780517578125,-0.2557373046875,0.65087890625,0.56500244140625,-0.2841796875,-0.84326171875,0.501953125,0.0,-0.375,0.3125
2.964999999999959,0.0,-1.0,-5.0,-2.0,-5.0,-4.0,0.0,-1.0,-0.43780517578125,-0.2557373046875,0.65087890625,0.56500244140625,-0.2841796875,-0.84326171875,0.501953125,0.0,-0.375,0.3125
2.969999999999959,0.0,-1.0,-5.0,-2.0,-5.0,-4.0,0.0,-1.0,-0.43780517578125,-0.2557373046875,0.65087890625,0.56500244140625,-0.2841796875,-0.84326171875,0.501953125,0.0,-0.375,0.3125
2.974999999999959,0.0,-1.0,-5.0,-2.0,-5.0,-4.0,0.0,-1.0,-0.43780517578125,-0.2557373046875,0.65087890625,0.56500244140625,-0.2802734375,-0.83740234375,0.5,-0.0625,-0.0625,0.0625
2.9799999999999587,0.0,-1.0,-5.0,-2.0,-5.0,-4.0,0.0,-1.0,-0.43780517578125,-0.2557373046875,0.65087890625,0.56500244140625,-0.2802734375,-0.83740234375,0.5,-0.0625,-0.0625,0.0625
2.9849999999999586,0.0,-2.0,-5.0,-6.0,-8.0,-6.0,-1.0,-3.0,-0.43780517578125,-0.2557373046875,0.65087890625,0.56500244140625,-0.2802734375,-0.83740234375,0.5,-0.0625,-0.0625,0.0625
2.9899999999999585,0.0,-2.0,-5.0,-6.0,-8.0,-6.0,-1.0,-3.0,-0.43780517578125,-0.2557373046875,0.65087890625,0.56500244140625,-0.2802734375,-0.83740234375,0.5,-0.0625,-0.0625,0.0625
2.9949999999999584,0.0,0.0,-1.0,1.0,3.0,4.0,0.0,-1.0,-0.43780517578125,-0.2557373046875,0.65087890625,0.56500244140625,-0.2802734375,-0.83740234375,0.5,-0.0625,-0.0625,0.0625
2.9999999999999583,0.0,0.0,-1.0,1.0,3.0,4.0,0.0,-1.0,-0.43780517578125,-0.2557373046875,0.65087890625,0.56500244140625,-0.2802734375,-0.83740234375,0.5,-0.0625,-0.0625,0.0625
3.004999999999958,-3.0,-1.0,-1.0,-2.0,-10.0,-6.0,-2.0,-4.0,-0.43780517578125,-0.2557373046875,0.65087890625,0.56500244140625,-0.27734375,-0.84326171875,0.5,0.3125,0.0625,-0.125
3.009999999999958,-3.0,-1.0,-1.0,-2.0,-10.0,-6.0,-2.0,-4.0,-0.43780517578125,-0.2557373046875,0.65087890625,0.56500244140625,-0.27734375,-0.84326171875,0.5,0.3125,0.0625,-0.125
3.014999999999958,-2.0,-2.0,-14.0,-6.0,-3.0,-1.0,0.0,-2.0,-0.43780517578125,-0.2557373046875,0.65087890625,0.56500244140625,-0.27734375,-0.84326171875,0.5,0.3125,0.0625,-0.125
3.019999999999958,-2.0,-2.0,-14.0,-6.0,-3.0,-1.0,0.0,-2.0,-0.437744140625,-0.2557373046875,0.65087890625,0.5650634765625,-0.2802734375,-0.83740234375,0.4970703125,0.375,0.3125,-0.3125
3.0249999999999577,-2.0,-2.0,-14.0,-6.0,-3.0,-1.0,0.0,-2.0,-0.437744140625,-0.2557373046875,0.65087890625,0.5650634765625,-0.2802734375,-0.83740234375,0.4970703125,0.375,0.3125,-0.3125
3.0299999999999576,-2.0,-2.0,-14.0,-6.0,-3.0,-1.0,0.0,-2.0,-0.437744140625,-0.2557373046875,0.65087890625,0.5650634765625,-0.2802734375,-0.83740234375,0.4970703125,0.375,0.3125,-0.3125
3.0349999999999575,0.0,0.0,3.0,4.0,0.0,1.0,2.0,0.0,-0.437744140625,-0.2557373046875,0.65087890625,0.5650634765625,-0.2802734375,-0.83740234375,0.4970703125,0.375,0.3125,-0.3125
3.0399999999999574,-2.0,1.0,1.0,-3.0,-5.0,-4.0,-3.0,-2.0,-0.437744140625,-0.2557373046875,0.65087890625,0.5650634765625,-0.2802734375,-0.83740234375,0.4970703125,0.375,0.3125,-0.3125
3.0449999999999573,-2.0,1.0,1.0,-3.0,-5.0,-4.0,-3.0,-2.0,-0.437744140625,-0.2557373046875,0.65087890625,0.5650634765625,-0.2802734375,-0.83740234375,0.4970703125,0.375,0.3125,-0.3125
3.049999999999957,-2.0,1.0,1.0,-3.0,-5.0,-4.0,-3.0,-2.0,-0.437744140625,-0.2557373046875,0.65087890625,0.5650634765625,-0.2802734375,-0.83740234375,0.4970703125,0.375,0.3125,-0.3125
3.054999999999957,-2.0,1.0,1.0,-3.0,-5.0,-4.0,-3.0,-2.0,-0.437744140625,-0.2557373046875,0.65087890625,0.5650634765625,-0.2802734375,-0.83740234375,0.4970703125,0.375,0.3125,-0.3125
3.059999999999957,-2.0,1.0,1.0,-3.0,-5.0,-4.0,-3.0,-2.0,-0.437744140625,-0.2557373046875,0.65087890625,0.5650634765625,-0.2802734375,-0.83740234375,0.4970703125,0.375,0.3125,-0.3125
3.064999999999957,-1.0,-2.0,-2.0,-4.0,-10.0,-2.0,-1.0,0.0,-0.437744140625,-0.2557373046875,0.65087890625,0.5650634765625,-0.283203125,-0.8427734375,0.498046875,-0.25,0.25,-0.25
3.0699999999999568,0.0,0.0,9.0,7.0,-5.0,-5.0,-3.0,0.0,-0.437744140625,-0.2557373046875,0.65087890625,0.5650634765625,-0.283203125,-0.8427734375,0.498046875,-0.25,0.25,-0.25
3.0749999999999567,0.0,0.0,9.0,7.0,-5.0,-5.0,-3.0,0.0,-0.437744140625,-0.2557373046875,0.65087890625,0.5650634765625,-0.283203125,-0.8427734375,0.498046875,-0.25,0.25,-0.25
3.0799999999999566,0.0,0.0,9.0,7.0,-5.0,-5.0,-3.0,0.0,-0.437744140625,-0.2557373046875,0.65087890625,0.5650634765625,-0.283203125,-0.8427734375,0.498046875,-0.25,0.25,-0.25
3.0849999999999564,0.0,-1.0,-6.0,-4.0,0.0,-6.0,-3.0,-2.0,-0.437744140625,-0.2557373046875,0.65087890625,0.5650634765625,-0.28076171875,-0.8388671875,0.498046875,-0.0625,0.25,0.0
3.0899999999999563,-1.0,1.0,9.0,1.0,5.0,6.0,0.0,-1.0,-0.437744140625,-0.2557373046875,0.65087890625,0.5650634765625,-0.28076171875,-0.8388671875,0.498046875,-0.0625,0.25,0.0
3.0949999999999562,-1.0,1.0,9.0,1.0,5.0,6.0,0.0,-1.0,-0.437744140625,-0.2557373046875,0.65087890625,0.5650634765625,-0.28076171875,-0.8388671875,0.498046875,-0.0625,0.25,0.0
3.099999999999956,-1.0,1.0,9.0,1.0,5.0,6.0,0.0,-1.0,-0.437744140625,-0.2557373046875,0.65087890625,0.5650634765625,-0.28076171875,-0.8388671875,0.498046875,-0.0625,0.25,0.0
3.104999999999956,-1.0,1.0,9.0,1.0,5.0,6.0,0.0,-1.0,-0.4378662109375,-0.25579833984375,0.65087890625,0.56500244140625,-0.2802734375,-0.8388671875,0.49560546875,-1.0625,0.5625,0.5
3.109999999999956,-6.0,-1.0,6.0,1.0,-6.0,2.0,-3.0,-1.0,-0.4378662109375,-0.25579833984375,0.65087890625,0.56500244140625,-0.2802734375,-0.8388671875,0.49560546875,-1.0625,0.5625,0.5
3.114999999999956,-6.0,-1.0,6.0,1.0,-6.0,2.0,-3.0,-1.0,-0.4378662109375,-0.25579833984375,0.65087890625,0.56500244140625,-0.2802734375,-0.8388671875,0.49560546875,-1.0625,0.5625,0.5
3.1199999999999557,-1.0,-1.0,-5.0,-2.0,4.0,-2.0,-1.0,0.0,-0.4378662109375,-0.25579833984375,0.65087890625,0.56500244140625,-0.2802734375,-0.8388671875,0.49560546875,-1.0625,0.5625,0.5
3.1249999999999556,-1.0,-1.0,-5.0,-2.0,4.0,-2.0,-1.0,0.0,-0.4378662109375,-0.25579833984375,0.65087890625,0.56500244140625,-0.2802734375,-0.8388671875,0.49560546875,-1.0625,0.5625,0.5
3.1299999999999555,-1.0,-1.0,-5.0,-2.0,4.0,-2.0,-1.0,0.0,-0.4378662109375,-0.25579833984375,0.65087890625,0.56500244140625,-0.2802734375,-0.84423828125,0.4990234375,-0.1875,0.5625,0.375
3.1349999999999554,-1.0,-1.0,-5.0,-2.0,4.0,-2.0,-1.0,0.0,-0.4378662109375,-0.25579833984375,0.65087890625,0.56500244140625,-0.2802734375,-0.84423828125,0.4990234375,-0.1875,0.5625,0.375
3.1399999999999553,-1.0,-1.0,-4.0,0.0,-2.0,0.0,0.0,0.0,-0.4378662109375,-0.25579833984375,0.65087890625,0.56500244140625,-0.2802734375,-0.84423828125,0.4990234375,-0.1875,0.5625,0.375
3.144999999999955,-1.0,-1.0,-4.0,0.0,-2.0,0.0,0.0,0.0,-0.4378662109375,-0.25579833984375,0.65087890625,0.56500244140625,-0.2802734375,-0.84423828125,0.4990234375,-0.1875,0.5625,0.375
3.149999999999955,-3.0,0.0,-1.0,-2.0,-5.0,-1.0,0.0,-1.0,-0.4378662109375,-0.25579833984375,0.65087890625,0.56500244140625,-0.2802734375,-0.84423828125,0.4990234375,-0.1875,0.5625,0.375
3.154999999999955,-3.0,0.0,-1.0,-2.0,-5.0,-1.0,0.0,-1.0,-0.4378662109375,-0.25579833984375,0.65087890625,0.56500244140625,-0.2802734375,-0.84423828125,0.4990234375,-0.1875,0.5625,0.375
3.159999999999955,-3.0,0.0,-1.0,-2.0,-5.0,-1.0,0.0,-1.0,-0.43780517578125,-0.25579833984375,0.65087890625,0.56500244140625,-0.27880859375,-0.84716796875,0.49853515625,-0.0625,0.8125,0.0625
3.1649999999999547,-3.0,0.0,-1.0,-2.0,-5.0,-1.0,0.0,-1.0,-0.43780517578125,-0.25579833984375,0.65087890625,0.56500244140625,-0.27880859375,-0.84716796875,0.49853515625,-0.0625,0.8125,0.0625
3.1699999999999546,-5.0,-1.0,1.0,0.0,-5.0,-3.0,0.0,0.0,-0.43780517578125,-0.25579833984375,0.65087890625,0.56500244140625,-0.27880859375,-0.84716796875,0.49853515625,-0.0625,0.8125,0.0625
3.1749999999999545,-5.0,-1.0,1.0,0.0,-5.0,-3.0,0.0,0.0,-0.43780517578125,-0.25579833984375,0.65087890625,0.56500244140625,-0.27880859375,-0.84716796875,0.49853515625,-0.0625,0.8125,0.0625
3.1799999999999544,-5.0,-1.0,1.0,0.0,-5.0,-3.0,0.0,0.0,-0.43792724609375,-0.25604248046875,0.650634765625,0.5650634765625,-0.27294921875,-0.85791015625,0.4990234375,-1.0625,0.6875,-0.375
3.1849999999999543,-5.0,-1.0,1.0,0.0,-5.0,-3.0,0.0,0.0,-0.43792724609375,-0.25604248046875,0.650634765625,0.5650634765625,-0.27294921875,-0.85791015625,0.4990234375,-1.0625,0.6875,-0.375
3.189999999999954,0.0,0.0,-3.0,-3.0,-1.0,0.0,0.0,-2.0,-0.43792724609375,-0.25604248046875,0.650634765625,0.5650634765625,-0.27294921875,-0.85791015625,0.4990234375,-1.0625,0.6875,-0.375
3.194999999999954,0.0,0.0,-3.0,-3.0,-1.0,0.0,0.0,-2.0,-0.43792724609375,-0.25604248046875,0.650634765625,0.5650634765625,-0.27294921875,-0.85791015625,0.4990234375,-1.0625,0.6875,-0.375
3.199999999999954,0.0,-2.0,-2.0,2.0,3.0,-3.0,-2.0,0.0,-0.43792724609375,-0.25604248046875,0.650634765625,0.5650634765625,-0.27294921875,-0.85791015625,0.4990234375,-1.0625,0.6875,-0.375
3.204999999999954,0.0,-2.0,-2.0,2.0,3.0,-3.0,-2.0,0.0,-0.43792724609375,-0.25604248046875,0.650634765625,0.5650634765625,-0.27294921875,-0.85791015625,0.4990234375,-1.0625,0.6875,-0.375
3.209999999999954,0.0,-2.0,-2.0,2.0,3.0,-3.0,-2.0,0.0,-0.4378662109375,-0.25604248046875,0.650634765625,0.56512451171875,-0.2783203125,-0.859375,0.51025390625,-0.4375,0.6875,-0.5
3.2149999999999537,0.0,-2.0,-2.0,2.0,3.0,-3.0,-2.0,0.0,-0.4378662109375,-0.25604248046875,0.650634765625,0.56512451171875,-0.2783203125,-0.859375,0.51025390625,-0.4375,0.6875,-0.5
3.2199999999999536,-3.0,-1.0,-1.0,-1.0,-5.0,2.0,-2.0,-1.0,-0.4378662109375,-0.25604248046875,0.650634765625,0.56512451171875,-0.2783203125,-0.859375,0.51025390625,-0.4375,0.6875,-0.5
3.2249999999999535,-3.0,-1.0,-1.0,-1.0,-5.0,2.0,-2.0,-1.0,-0.4378662109375,-0.25604248046875,0.650634765625,0.56512451171875,-0.2783203125,-0.859375,0.51025390625,-0.4375,0.6875,-0.5
3.2299999999999534,-1.0,-1.0,-2.0,-4.0,-4.0,-3.0,-3.0,1.0,-0.4378662109375,-0.25604248046875,0.650634765625,0.56512451171875,-0.2783203125,-0.859375,0.51025390625,-0.4375,0.6875,-0.5
3.2349999999999532,-1.0,-1.0,-2.0,-4.0,-4.0,-3.0,-3.0,1.0,-0.4378662109375,-0.25604248046875,0.650634765625,0.56512451171875,-0.2783203125,-0.859375,0.51025390625,-0.4375,0.6875,-0.5
3.239999999999953,-1.0,-1.0,-2.0,-4.0,-4.0,-3.0,-3.0,1.0,-0.4378662109375,-0.25604248046875,0.650634765625,0.56512451171875,-0.2783203125,-0.859375,0.51025390625,-0.4375,0.6875,-0.5
3.244999999999953,-1.0,-1.0,-2.0,-4.0,-4.0,-3.0,-3.0,1.0,-0.4378662109375,-0.25604248046875,0.650634765625,0.56512451171875,-0.2763671875,-0.85693359375,0.51025390625,-0.125,0.625,0.125
3.249999999999953,0.0,0.0,1.0,2.0,2.0,-3.0,-1.0,-5.0,-0.4378662109375,-0.25604248046875,0.650634765625,0.56512451171875,-0.2763671875,-0.85693359375,0.51025390625,-0.125,0.625,0.125
3.254999999999953,0.0,0.0,1.0,2.0,2.0,-3.0,-1.0,-5.0,-0.43780517578125,-0.25604248046875,0.650634765625,0.56512451171875,-0.27783203125,-0.849609375,0.49853515625,-0.1875,0.9375,0.625
3.2599999999999527,0.0,0.0,1.0,2.0,2.0,-3.0,-1.0,-5.0,-0.43780517578125,-0.25604248046875,0.650634765625,0.56512451171875,-0.27783203125,-0.849609375,0.49853515625,-0.1875,0.9375,0.625
3.2649999999999526,0.0,0.0,1.0,2.0,2.0,-3.0,-1.0,-5.0,-0.43780517578125,-0.25604248046875,0.650634765625,0.56512451171875,-0.27783203125,-0.849609375,0.49853515625,-0.1875,0.9375,0.625
3.2699999999999525,-2.0,-1.0,0.0,0.0,-1.0,-1.0,-2.0,-1.0,-0.43780517578125,-0.25604248046875,0.650634765625,0.56512451171875,-0.27783203125,-0.849609375,0.49853515625,-0.1875,0.9375,0.625
3.2749999999999524,0.0,-1.0,-5.0,-5.0,1.0,2.0,-2.0,-1.0,-0.43780517578125,-0.25604248046875,0.650634765625,0.56512451171875,-0.27783203125,-0.849609375,0.49853515625,-0.1875,0.9375,0.625
3.2799999999999523,-2.0,-2.0,-3.0,-6.0,-3.0,-4.0,-1.0,-1.0,-0.43780517578125,-0.25604248046875,0.650634765625,0.56512451171875,-0.27783203125,-0.849609375,0.49853515625,-0.1875,0.9375,0.625
3.284999999999952,-2.0,-2.0,-3.0,-6.0,-3.0,-4.0,-1.0,-1.0,-0.43780517578125,-0.25604248046875,0.650634765625,0.56512451171875,-0.27783203125,-0.849609375,0.49853515625,-0.1875,0.9375,0.625
3.289999999999952,-2.0,-2.0,-3.0,-6.0,-3.0,-4.0,-1.0,-1.0,-0.4378662109375,-0.25592041015625,0.650634765625,0.565185546875,-0.2734375,-0.84228515625,0.50732421875,-0.125,1.375,0.9375
3.294999999999952,0.0,-2.0,4.0,-5.0,-6.0,-2.0,1.0,-1.0,-0.4378662109375,-0.25592041015625,0.650634765625,0.565185546875,-0.2734375,-0.84228515625,0.50732421875,-0.125,1.375,0.9375
3.299999999999952,0.0,0.0,-1.0,0.0,1.0,0.0,-2.0,-2.0,-0.4378662109375,-0.25592041015625,0.650634765625,0.565185546875,-0.2734375,-0.84228515625,0.50732421875,-0.125,1.375,0.9375
