1.000000000000000021e-02,0.000000000000000000e+00,-1.000000000000000000e+00,7.000000000000000000e+00,0.000000000000000000e+00,-6.000000000000000000e+00,-4.000000000000000000e+00,-3.000000000000000000e+00,-1.000000000000000000e+00,-3.698730468750000000e-01,-3.379516601562500000e-01,6.923828125000000000e-01,5.191650390625000000e-01,-1.645507812500000000e-01,-8.652343750000000000e-01,5.024414062500000000e-01,6.250000000000000000e-01,8.125000000000000000e-01,1.250000000000000000e+00
1.499999999999999944e-02,0.000000000000000000e+00,-1.000000000000000000e+00,7.000000000000000000e+00,0.000000000000000000e+00,-6.000000000000000000e+00,-4.000000000000000000e+00,-3.000000000000000000e+00,-1.000000000000000000e+00,-3.698730468750000000e-01,-3.379516601562500000e-01,6.923828125000000000e-01,5.191650390625000000e-01,-1.645507812500000000e-01,-8.652343750000000000e-01,5.024414062500000000e-01,6.250000000000000000e-01,8.125000000000000000e-01,1.250000000000000000e+00
2.000000000000000042e-02,-1.000000000000000000e+00,-1.000000000000000000e+00,2.000000000000000000e+00,1.000000000000000000e+00,-1.000000000000000000e+00,-1.000000000000000000e+00,0.000000000000000000e+00,-1.000000000000000000e+00,-3.698730468750000000e-01,-3.377075195312500000e-01,6.925659179687500000e-01,5.191040039062500000e-01,-1.660156250000000000e-01,-8.662109375000000000e-01,5.126953125000000000e-01,8.125000000000000000e-01,5.625000000000000000e-01,1.125000000000000000e+00
2.500000000000000139e-02,0.000000000000000000e+00,-1.000000000000000000e+00,1.000000000000000000e+00,1.000000000000000000e+00,3.000000000000000000e+00,1.000000000000000000e+00,2.000000000000000000e+00,-1.000000000000000000e+00,-3.698730468750000000e-01,-3.377075195312500000e-01,6.925659179687500000e-01,5.191040039062500000e-01,-1.660156250000000000e-01,-8.662109375000000000e-01,5.126953125000000000e-01,8.125000000000000000e-01,5.625000000000000000e-01,1.125000000000000000e+00
2.999999999999999889e-02,0.000000000000000000e+00,-1.000000000000000000e+00,1.000000000000000000e+00,1.000000000000000000e+00,3.000000000000000000e+00,1.000000000000000000e+00,2.000000000000000000e+00,-1.000000000000000000e+00,-3.698730468750000000e-01,-3.377075195312500000e-01,6.925659179687500000e-01,5.191040039062500000e-01,-1.660156250000000000e-01,-8.662109375000000000e-01,5.126953125000000000e-01,8.125000000000000000e-01,5.625000000000000000e-01,1.125000000000000000e+00
3.500000000000000333e-02,-1.000000000000000000e+00,1.000000000000000000e+00,1.000000000000000000e+00,-1.000000000000000000e+00,2.000000000000000000e+00,-1.000000000000000000e+00,-1.000000000000000000e+00,-2.000000000000000000e+00,-3.698730468750000000e-01,-3.377075195312500000e-01,6.925659179687500000e-01,5.191040039062500000e-01,-1.660156250000000000e-01,-8.662109375000000000e-01,5.126953125000000000e-01,8.125000000000000000e-01,5.625000000000000000e-01,1.125000000000000000e+00
4.000000000000000083e-02,-1.000000000000000000e+00,-1.000000000000000000e+00,-4.000000000000000000e+00,3.000000000000000000e+00,-4.000000000000000000e+00,-3.000000000000000000e+00,-3.000000000000000000e+00,-2.000000000000000000e+00,-3.697509765625000000e-01,-3.374633789062500000e-01,6.926269531250000000e-01,5.192260742187500000e-01,-1.616210937500000000e-01,-8.569335937500000000e-01,5.053710937500000000e-01,1.375000000000000000e+00,2.500000000000000000e-01,2.500000000000000000e-01
4.499999999999999833e-02,-1.000000000000000000e+00,-1.000000000000000000e+00,-4.000000000000000000e+00,3.000000000000000000e+00,-4.000000000000000000e+00,-3.000000000000000000e+00,-3.000000000000000000e+00,-2.000000000000000000e+00,-3.697509765625000000e-01,-3.374633789062500000e-01,6.926269531250000000e-01,5.192260742187500000e-01,-1.616210937500000000e-01,-8.569335937500000000e-01,5.053710937500000000e-01,1.375000000000000000e+00,2.500000000000000000e-01,2.500000000000000000e-01
4.999999999999989869e-02,-1.000000000000000000e+00,-1.000000000000000000e+00,-4.000000000000000000e+00,3.000000000000000000e+00,-4.000000000000000000e+00,-3.000000000000000000e+00,-3.000000000000000000e+00,-2.000000000000000000e+00,-3.697509765625000000e-01,-3.374633789062500000e-01,6.926269531250000000e-01,5.192260742187500000e-01,-1.616210937500000000e-01,-8.569335937500000000e-01,5.053710937500000000e-01,1.375000000000000000e+00,2.500000000000000000e-01,2.500000000000000000e-01
5.499999999999990313e-02,-1.000000000000000000e+00,-1.000000000000000000e+00,-4.000000000000000000e+00,3.000000000000000000e+00,-4.000000000000000000e+00,-3.000000000000000000e+00,-3.000000000000000000e+00,-2.000000000000000000e+00,-3.697509765625000000e-01,-3.374633789062500000e-01,6.926269531250000000e-01,5.192260742187500000e-01,-1.616210937500000000e-01,-8.569335937500000000e-01,5.053710937500000000e-01,1.375000000000000000e+00,2.500000000000000000e-01,2.500000000000000000e-01
5.999999999999990064e-02,-1.000000000000000000e+00,-1.000000000000000000e+00,-5.000000000000000000e+00,-9.000000000000000000e+00,-1.000000000000000000e+01,-3.000000000000000000e+00,-4.000000000000000000e+00,-2.000000000000000000e+00,-3.697509765625000000e-01,-3.374633789062500000e-01,6.926269531250000000e-01,5.192260742187500000e-01,-1.616210937500000000e-01,-8.569335937500000000e-01,5.053710937500000000e-01,1.375000000000000000e+00,2.500000000000000000e-01,2.500000000000000000e-01
6.499999999999990508e-02,-1.000000000000000000e+00,-1.000000000000000000e+00,0.000000000000000000e+00,2.000000000000000000e+00,3.000000000000000000e+00,4.000000000000000000e+00,-1.000000000000000000e+00,-1.000000000000000000e+00,-3.697509765625000000e-01,-3.374633789062500000e-01,6.926269531250000000e-01,5.192260742187500000e-01,-1.621093750000000000e-01,-8.603515625000000000e-01,5.058593750000000000e-01,0.000000000000000000e+00,0.000000000000000000e+00,-3.750000000000000000e-01
6.999999999999989564e-02,-1.000000000000000000e+00,-1.000000000000000000e+00,0.000000000000000000e+00,2.000000000000000000e+00,3.000000000000000000e+00,4.000000000000000000e+00,-1.000000000000000000e+00,-1.000000000000000000e+00,-3.697509765625000000e-01,-3.374633789062500000e-01,6.926269531250000000e-01,5.192260742187500000e-01,-1.621093750000000000e-01,-8.603515625000000000e-01,5.058593750000000000e-01,0.000000000000000000e+00,0.000000000000000000e+00,-3.750000000000000000e-01
7.499999999999999722e-02,-1.000000000000000000e+00,-1.000000000000000000e+00,0.000000000000000000e+00,2.000000000000000000e+00,3.000000000000000000e+00,4.000000000000000000e+00,-1.000000000000000000e+00,-1.000000000000000000e+00,-3.697509765625000000e-01,-3.374633789062500000e-01,6.926269531250000000e-01,5.192260742187500000e-01,-1.621093750000000000e-01,-8.603515625000000000e-01,5.058593750000000000e-01,0.000000000000000000e+00,0.000000000000000000e+00,-3.750000000000000000e-01
8.000000000000000167e-02,-1.000000000000000000e+00,-1.000000000000000000e+00,0.000000000000000000e+00,2.000000000000000000e+00,3.000000000000000000e+00,4.000000000000000000e+00,-1.000000000000000000e+00,-1.000000000000000000e+00,-3.697509765625000000e-01,-3.374633789062500000e-01,6.926269531250000000e-01,5.192260742187500000e-01,-1.621093750000000000e-01,-8.603515625000000000e-01,5.058593750000000000e-01,0.000000000000000000e+00,0.000000000000000000e+00,-3.750000000000000000e-01
8.500000000000000611e-02,1.000000000000000000e+00,1.000000000000000000e+00,9.000000000000000000e+00,6.000000000000000000e+00,-6.000000000000000000e+00,-4.000000000000000000e+00,-2.000000000000000000e+00,0.000000000000000000e+00,-3.696289062500000000e-01,-3.376464843750000000e-01,6.925659179687500000e-01,5.193481445312500000e-01,-1.616210937500000000e-01,-8.701171875000000000e-01,5.126953125000000000e-01,-4.375000000000000000e-01,-4.375000000000000000e-01,-1.062500000000000000e+00
8.999999999999999667e-02,0.000000000000000000e+00,-3.000000000000000000e+00,-1.400000000000000000e+01,-1.500000000000000000e+01,-3.000000000000000000e+00,-6.000000000000000000e+00,-2.000000000000000000e+00,-1.000000000000000000e+00,-3.696289062500000000e-01,-3.376464843750000000e-01,6.925659179687500000e-01,5.193481445312500000e-01,-1.616210937500000000e-01,-8.701171875000000000e-01,5.126953125000000000e-01,-4.375000000000000000e-01,-4.375000000000000000e-01,-1.062500000000000000e+00
9.500000000000000111e-02,0.000000000000000000e+00,-3.000000000000000000e+00,-1.400000000000000000e+01,-1.500000000000000000e+01,-3.000000000000000000e+00,-6.000000000000000000e+00,-2.000000000000000000e+00,-1.000000000000000000e+00,-3.696289062500000000e-01,-3.376464843750000000e-01,6.925659179687500000e-01,5.193481445312500000e-01,-1.616210937500000000e-01,-8.701171875000000000e-01,5.126953125000000000e-01,-4.375000000000000000e-01,-4.375000000000000000e-01,-1.062500000000000000e+00
1.000000000000000056e-01,0.000000000000000000e+00,-3.000000000000000000e+00,-1.400000000000000000e+01,-1.500000000000000000e+01,-3.000000000000000000e+00,-6.000000000000000000e+00,-2.000000000000000000e+00,-1.000000000000000000e+00,-3.696289062500000000e-01,-3.376464843750000000e-01,6.925659179687500000e-01,5.193481445312500000e-01,-1.616210937500000000e-01,-8.701171875000000000e-01,5.126953125000000000e-01,-4.375000000000000000e-01,-4.375000000000000000e-01,-1.062500000000000000e+00
1.049999999999999961e-01,0.000000000000000000e+00,-1.000000000000000000e+00,-4.000000000000000000e+00,0.000000000000000000e+00,3.000000000000000000e+00,4.000000000000000000e+00,-2.000000000000000000e+00,1.000000000000000000e+00,-3.695678710937500000e-01,-3.381347656250000000e-01,6.923828125000000000e-01,5.193481445312500000e-01,-1.538085937500000000e-01,-8.803710937500000000e-01,5.078125000000000000e-01,-1.937500000000000000e+00,-1.125000000000000000e+00,-1.125000000000000000e+00
1.100000000000000006e-01,0.000000000000000000e+00,0.000000000000000000e+00,7.000000000000000000e+00,6.000000000000000000e+00,-3.000000000000000000e+00,-4.000000000000000000e+00,1.000000000000000000e+00,-2.000000000000000000e+00,-3.695678710937500000e-01,-3.381347656250000000e-01,6.923828125000000000e-01,5.193481445312500000e-01,-1.538085937500000000e-01,-8.803710937500000000e-01,5.078125000000000000e-01,-1.937500000000000000e+00,-1.125000000000000000e+00,-1.125000000000000000e+00
1.150000000000000050e-01,-1.000000000000000000e+00,0.000000000000000000e+00,2.000000000000000000e+00,3.000000000000000000e+00,-2.000000000000000000e+00,0.000000000000000000e+00,-3.000000000000000000e+00,-1.000000000000000000e+00,-3.695678710937500000e-01,-3.381347656250000000e-01,6.923828125000000000e-01,5.193481445312500000e-01,-1.538085937500000000e-01,-8.803710937500000000e-01,5.078125000000000000e-01,-1.937500000000000000e+00,-1.125000000000000000e+00,-1.125000000000000000e+00
1.199999999999999956e-01,-1.000000000000000000e+00,0.000000000000000000e+00,2.000000000000000000e+00,3.000000000000000000e+00,-2.000000000000000000e+00,0.000000000000000000e+00,-3.000000000000000000e+00,-1.000000000000000000e+00,-3.695678710937500000e-01,-3.381347656250000000e-01,6.923828125000000000e-01,5.193481445312500000e-01,-1.538085937500000000e-01,-8.803710937500000000e-01,5.078125000000000000e-01,-1.937500000000000000e+00,-1.125000000000000000e+00,-1.125000000000000000e+00
1.250000000000000000e-01,-1.000000000000000000e+00,0.000000000000000000e+00,2.000000000000000000e+00,3.000000000000000000e+00,-2.000000000000000000e+00,0.000000000000000000e+00,-3.000000000000000000e+00,-1.000000000000000000e+00,-3.695678710937500000e-01,-3.381347656250000000e-01,6.923828125000000000e-01,5.193481445312500000e-01,-1.538085937500000000e-01,-8.803710937500000000e-01,5.078125000000000000e-01,-1.937500000000000000e+00,-1.125000000000000000e+00,-1.125000000000000000e+00
1.300000000000000044e-01,0.000000000000000000e+00,0.000000000000000000e+00,3.000000000000000000e+00,4.000000000000000000e+00,1.000000000000000000e+00,1.000000000000000000e+00,-1.000000000000000000e+00,-1.000000000000000000e+00,-3.695068359375000000e-01,-3.381958007812500000e-01,6.923217773437500000e-01,5.193481445312500000e-01,-1.503906250000000000e-01,-8.779296875000000000e-01,5.122070312500000000e-01,-2.500000000000000000e-01,-9.375000000000000000e-01,-9.375000000000000000e-01
1.350000000000000089e-01,0.000000000000000000e+00,0.000000000000000000e+00,-2.000000000000000000e+00,-7.000000000000000000e+00,-5.000000000000000000e+00,-3.000000000000000000e+00,2.000000000000000000e+00,1.000000000000000000e+00,-3.695068359375000000e-01,-3.381958007812500000e-01,6.923217773437500000e-01,5.193481445312500000e-01,-1.503906250000000000e-01,-8.779296875000000000e-01,5.122070312500000000e-01,-2.500000000000000000e-01,-9.375000000000000000e-01,-9.375000000000000000e-01
1.400000000000000133e-01,0.000000000000000000e+00,0.000000000000000000e+00,-2.000000000000000000e+00,-7.000000000000000000e+00,-5.000000000000000000e+00,-3.000000000000000000e+00,2.000000000000000000e+00,1.000000000000000000e+00,-3.695068359375000000e-01,-3.381958007812500000e-01,6.923217773437500000e-01,5.193481445312500000e-01,-1.503906250000000000e-01,-8.779296875000000000e-01,5.122070312500000000e-01,-2.500000000000000000e-01,-9.375000000000000000e-01,-9.375000000000000000e-01
1.449999999999999900e-01,0.000000000000000000e+00,0.000000000000000000e+00,-2.000000000000000000e+00,-7.000000000000000000e+00,-5.000000000000000000e+00,-3.000000000000000000e+00,2.000000000000000000e+00,1.000000000000000000e+00,-3.695068359375000000e-01,-3.381958007812500000e-01,6.923217773437500000e-01,5.193481445312500000e-01,-1.503906250000000000e-01,-8.779296875000000000e-01,5.122070312500000000e-01,-2.500000000000000000e-01,-9.375000000000000000e-01,-9.375000000000000000e-01
1.499999999999999944e-01,-1.000000000000000000e+00,-1.000000000000000000e+00,4.000000000000000000e+00,8.000000000000000000e+00,2.000000000000000000e+00,0.000000000000000000e+00,-1.000000000000000000e+00,-1.000000000000000000e+00,-3.695068359375000000e-01,-3.381958007812500000e-01,6.923217773437500000e-01,5.193481445312500000e-01,-1.542968750000000000e-01,-8.730468750000000000e-01,5.029296875000000000e-01,1.875000000000000000e-01,3.750000000000000000e-01,6.250000000000000000e-02
1.549999999999999989e-01,-1.000000000000000000e+00,-1.000000000000000000e+00,4.000000000000000000e+00,8.000000000000000000e+00,2.000000000000000000e+00,0.000000000000000000e+00,-1.000000000000000000e+00,-1.000000000000000000e+00,-3.695068359375000000e-01,-3.381958007812500000e-01,6.923217773437500000e-01,5.193481445312500000e-01,-1.542968750000000000e-01,-8.730468750000000000e-01,5.029296875000000000e-01,1.875000000000000000e-01,3.750000000000000000e-01,6.250000000000000000e-02
1.600000000000000033e-01,-3.000000000000000000e+00,-6.000000000000000000e+00,-7.000000000000000000e+00,-2.800000000000000000e+01,-4.000000000000000000e+00,-3.000000000000000000e+00,-3.000000000000000000e+00,-2.000000000000000000e+00,-3.696899414062500000e-01,-3.377685546875000000e-01,6.924438476562500000e-01,5.193481445312500000e-01,-1.621093750000000000e-01,-8.642578125000000000e-01,5.058593750000000000e-01,1.375000000000000000e+00,1.437500000000000000e+00,1.687500000000000000e+00
1.650000000000000078e-01,-3.000000000000000000e+00,-6.000000000000000000e+00,-7.000000000000000000e+00,-2.800000000000000000e+01,-4.000000000000000000e+00,-3.000000000000000000e+00,-3.000000000000000000e+00,-2.000000000000000000e+00,-3.696899414062500000e-01,-3.377685546875000000e-01,6.924438476562500000e-01,5.193481445312500000e-01,-1.621093750000000000e-01,-8.642578125000000000e-01,5.058593750000000000e-01,1.375000000000000000e+00,1.437500000000000000e+00,1.687500000000000000e+00
1.700000000000000122e-01,-3.000000000000000000e+00,-6.000000000000000000e+00,-7.000000000000000000e+00,-2.800000000000000000e+01,-4.000000000000000000e+00,-3.000000000000000000e+00,-3.000000000000000000e+00,-2.000000000000000000e+00,-3.696899414062500000e-01,-3.377685546875000000e-01,6.924438476562500000e-01,5.193481445312500000e-01,-1.621093750000000000e-01,-8.642578125000000000e-01,5.058593750000000000e-01,1.375000000000000000e+00,1.437500000000000000e+00,1.687500000000000000e+00
1.749999999999999889e-01,-4.000000000000000000e+00,-1.000000000000000000e+00,2.000000000000000000e+00,1.000000000000000000e+00,-2.000000000000000000e+00,-2.000000000000000000e+00,0.000000000000000000e+00,-1.000000000000000000e+00,-3.696899414062500000e-01,-3.377685546875000000e-01,6.924438476562500000e-01,5.193481445312500000e-01,-1.621093750000000000e-01,-8.642578125000000000e-01,5.058593750000000000e-01,1.375000000000000000e+00,1.437500000000000000e+00,1.687500000000000000e+00
1.799999999999999933e-01,-4.000000000000000000e+00,-1.000000000000000000e+00,2.000000000000000000e+00,1.000000000000000000e+00,-2.000000000000000000e+00,-2.000000000000000000e+00,0.000000000000000000e+00,-1.000000000000000000e+00,-3.696899414062500000e-01,-3.377685546875000000e-01,6.924438476562500000e-01,5.193481445312500000e-01,-1.621093750000000000e-01,-8.642578125000000000e-01,5.058593750000000000e-01,1.375000000000000000e+00,1.437500000000000000e+00,1.687500000000000000e+00
1.849999999999999978e-01,-4.000000000000000000e+00,-1.000000000000000000e+00,2.000000000000000000e+00,1.000000000000000000e+00,-2.000000000000000000e+00,-2.000000000000000000e+00,0.000000000000000000e+00,-1.000000000000000000e+00,-3.696899414062500000e-01,-3.377685546875000000e-01,6.924438476562500000e-01,5.193481445312500000e-01,-1.621093750000000000e-01,-8.642578125000000000e-01,5.058593750000000000e-01,1.375000000000000000e+00,1.437500000000000000e+00,1.687500000000000000e+00
1.900000000000000022e-01,-1.000000000000000000e+00,-1.000000000000000000e+00,0.000000000000000000e+00,5.000000000000000000e+00,-5.000000000000000000e+00,-2.000000000000000000e+00,0.000000000000000000e+00,-2.000000000000000000e+00,-3.701171875000000000e-01,-3.372802734375000000e-01,6.926269531250000000e-01,5.191650390625000000e-01,-1.743164062500000000e-01,-8.671875000000000000e-01,5.063476562500000000e-01,5.625000000000000000e-01,2.250000000000000000e+00,2.500000000000000000e+00
1.950000000000000899e-01,0.000000000000000000e+00,2.000000000000000000e+00,4.000000000000000000e+00,1.000000000000000000e+00,1.000000000000000000e+00,-1.000000000000000000e+00,-1.000000000000000000e+00,0.000000000000000000e+00,-3.701171875000000000e-01,-3.372802734375000000e-01,6.926269531250000000e-01,5.191650390625000000e-01,-1.743164062500000000e-01,-8.671875000000000000e-01,5.063476562500000000e-01,5.625000000000000000e-01,2.250000000000000000e+00,2.500000000000000000e+00
2.000000000000000944e-01,0.000000000000000000e+00,2.000000000000000000e+00,4.000000000000000000e+00,1.000000000000000000e+00,1.000000000000000000e+00,-1.000000000000000000e+00,-1.000000000000000000e+00,0.000000000000000000e+00,-3.701171875000000000e-01,-3.372802734375000000e-01,6.926269531250000000e-01,5.191650390625000000e-01,-1.743164062500000000e-01,-8.671875000000000000e-01,5.063476562500000000e-01,5.625000000000000000e-01,2.250000000000000000e+00,2.500000000000000000e+00
2.050000000000000988e-01,0.000000000000000000e+00,2.000000000000000000e+00,4.000000000000000000e+00,1.000000000000000000e+00,1.000000000000000000e+00,-1.000000000000000000e+00,-1.000000000000000000e+00,0.000000000000000000e+00,-3.701171875000000000e-01,-3.372802734375000000e-01,6.926269531250000000e-01,5.191650390625000000e-01,-1.743164062500000000e-01,-8.671875000000000000e-01,5.063476562500000000e-01,5.625000000000000000e-01,2.250000000000000000e+00,2.500000000000000000e+00
2.100000000000001033e-01,0.000000000000000000e+00,2.000000000000000000e+00,4.000000000000000000e+00,1.000000000000000000e+00,1.000000000000000000e+00,-1.000000000000000000e+00,-1.000000000000000000e+00,0.000000000000000000e+00,-3.701171875000000000e-01,-3.372802734375000000e-01,6.926269531250000000e-01,5.191650390625000000e-01,-1.743164062500000000e-01,-8.671875000000000000e-01,5.063476562500000000e-01,5.625000000000000000e-01,2.250000000000000000e+00,2.500000000000000000e+00
2.150000000000001077e-01,-1.000000000000000000e+00,0.000000000000000000e+00,-1.000000000000000000e+00,-1.000000000000000000e+00,-1.000000000000000000e+00,-1.000000000000000000e+00,-2.000000000000000000e+00,-3.000000000000000000e+00,-3.701171875000000000e-01,-3.372802734375000000e-01,6.926269531250000000e-01,5.191650390625000000e-01,-1.743164062500000000e-01,-8.671875000000000000e-01,5.063476562500000000e-01,5.625000000000000000e-01,2.250000000000000000e+00,2.500000000000000000e+00
2.200000000000001121e-01,0.000000000000000000e+00,-3.000000000000000000e+00,1.000000000000000000e+00,0.000000000000000000e+00,-6.000000000000000000e+00,-5.000000000000000000e+00,-1.000000000000000000e+00,0.000000000000000000e+00,-3.705444335937500000e-01,-3.366699218750000000e-01,6.927490234375000000e-01,5.190429687500000000e-01,-1.723632812500000000e-01,-8.623046875000000000e-01,5.087890625000000000e-01,1.125000000000000000e+00,2.875000000000000000e+00,2.687500000000000000e+00
2.250000000000000888e-01,0.000000000000000000e+00,-3.000000000000000000e+00,1.000000000000000000e+00,0.000000000000000000e+00,-6.000000000000000000e+00,-5.000000000000000000e+00,-1.000000000000000000e+00,0.000000000000000000e+00,-3.705444335937500000e-01,-3.366699218750000000e-01,6.927490234375000000e-01,5.190429687500000000e-01,-1.723632812500000000e-01,-8.623046875000000000e-01,5.087890625000000000e-01,1.125000000000000000e+00,2.875000000000000000e+00,2.687500000000000000e+00
2.300000000000000933e-01,-1.000000000000000000e+00,0.000000000000000000e+00,-1.000000000000000000e+01,-3.000000000000000000e+00,1.000000000000000000e+00,-1.000000000000000000e+00,0.000000000000000000e+00,-1.000000000000000000e+00,-3.705444335937500000e-01,-3.366699218750000000e-01,6.927490234375000000e-01,5.190429687500000000e-01,-1.723632812500000000e-01,-8.623046875000000000e-01,5.087890625000000000e-01,1.125000000000000000e+00,2.875000000000000000e+00,2.687500000000000000e+00
2.350000000000000977e-01,-1.000000000000000000e+00,0.000000000000000000e+00,-1.000000000000000000e+01,-3.000000000000000000e+00,1.000000000000000000e+00,-1.000000000000000000e+00,0.000000000000000000e+00,-1.000000000000000000e+00,-3.705444335937500000e-01,-3.366699218750000000e-01,6.927490234375000000e-01,5.190429687500000000e-01,-1.723632812500000000e-01,-8.623046875000000000e-01,5.087890625000000000e-01,1.125000000000000000e+00,2.875000000000000000e+00,2.687500000000000000e+00
2.400000000000001021e-01,-1.000000000000000000e+00,-1.000000000000000000e+00,4.000000000000000000e+00,4.000000000000000000e+00,4.000000000000000000e+00,5.000000000000000000e+00,0.000000000000000000e+00,0.000000000000000000e+00,-3.709716796875000000e-01,-3.361816406250000000e-01,6.928710937500000000e-01,5.189208984375000000e-01,-1.699218750000000000e-01,-8.588867187500000000e-01,5.034179687500000000e-01,4.375000000000000000e-01,2.625000000000000000e+00,2.500000000000000000e+00
2.450000000000001066e-01,-1.000000000000000000e+00,-1.000000000000000000e+00,4.000000000000000000e+00,4.000000000000000000e+00,4.000000000000000000e+00,5.000000000000000000e+00,0.000000000000000000e+00,0.000000000000000000e+00,-3.709716796875000000e-01,-3.361816406250000000e-01,6.928710937500000000e-01,5.189208984375000000e-01,-1.699218750000000000e-01,-8.588867187500000000e-01,5.034179687500000000e-01,4.375000000000000000e-01,2.625000000000000000e+00,2.500000000000000000e+00
2.500000000000001110e-01,-1.000000000000000000e+00,-1.000000000000000000e+00,4.000000000000000000e+00,4.000000000000000000e+00,4.000000000000000000e+00,5.000000000000000000e+00,0.000000000000000000e+00,0.000000000000000000e+00,-3.709716796875000000e-01,-3.361816406250000000e-01,6.928710937500000000e-01,5.189208984375000000e-01,-1.699218750000000000e-01,-8.588867187500000000e-01,5.034179687500000000e-01,4.375000000000000000e-01,2.625000000000000000e+00,2.500000000000000000e+00
2.550000000000001155e-01,-1.000000000000000000e+00,-1.000000000000000000e+00,1.000000000000000000e+00,9.000000000000000000e+00,3.000000000000000000e+00,0.000000000000000000e+00,1.000000000000000000e+00,0.000000000000000000e+00,-3.713378906250000000e-01,-3.356933593750000000e-01,6.929931640625000000e-01,5.187988281250000000e-01,-1.699218750000000000e-01,-8.627929687500000000e-01,5.048828125000000000e-01,7.500000000000000000e-01,2.125000000000000000e+00,2.250000000000000000e+00
2.600000000000001199e-01,-2.000000000000000000e+00,-2.000000000000000000e+00,-1.000000000000000000e+00,-3.000000000000000000e+00,-7.000000000000000000e+00,-6.000000000000000000e+00,-6.000000000000000000e+00,-3.000000000000000000e+00,-3.713378906250000000e-01,-3.356933593750000000e-01,6.929931640625000000e-01,5.187988281250000000e-01,-1.699218750000000000e-01,-8.627929687500000000e-01,5.048828125000000000e-01,7.500000000000000000e-01,2.125000000000000000e+00,2.250000000000000000e+00
2.650000000000001243e-01,-2.000000000000000000e+00,-2.000000000000000000e+00,-1.000000000000000000e+00,-3.000000000000000000e+00,-7.000000000000000000e+00,-6.000000000000000000e+00,-6.000000000000000000e+00,-3.000000000000000000e+00,-3.713378906250000000e-01,-3.356933593750000000e-01,6.929931640625000000e-01,5.187988281250000000e-01,-1.699218750000000000e-01,-8.627929687500000000e-01,5.048828125000000000e-01,7.500000000000000000e-01,2.125000000000000000e+00,2.250000000000000000e+00
2.700000000000000733e-01,-2.000000000000000000e+00,-2.000000000000000000e+00,-1.000000000000000000e+00,-3.000000000000000000e+00,-7.000000000000000000e+00,-6.000000000000000000e+00,-6.000000000000000000e+00,-3.000000000000000000e+00,-3.713378906250000000e-01,-3.356933593750000000e-01,6.929931640625000000e-01,5.187988281250000000e-01,-1.699218750000000000e-01,-8.627929687500000000e-01,5.048828125000000000e-01,7.500000000000000000e-01,2.125000000000000000e+00,2.250000000000000000e+00
2.750000000000000777e-01,-2.000000000000000000e+00,-2.000000000000000000e+00,-1.000000000000000000e+00,-3.000000000000000000e+00,-7.000000000000000000e+00,-6.000000000000000000e+00,-6.000000000000000000e+00,-3.000000000000000000e+00,-3.713378906250000000e-01,-3.356933593750000000e-01,6.929931640625000000e-01,5.187988281250000000e-01,-1.699218750000000000e-01,-8.627929687500000000e-01,5.048828125000000000e-01,7.500000000000000000e-01,2.125000000000000000e+00,2.250000000000000000e+00
2.800000000000000822e-01,0.000000000000000000e+00,-1.000000000000000000e+00,-1.000000000000000000e+00,4.000000000000000000e+00,-2.000000000000000000e+00,-1.000000000000000000e+00,0.000000000000000000e+00,-2.000000000000000000e+00,-3.715820312500000000e-01,-3.354492187500000000e-01,6.931152343750000000e-01,5.186767578125000000e-01,-1.772460937500000000e-01,-8.608398437500000000e-01,5.014648437500000000e-01,4.375000000000000000e-01,8.750000000000000000e-01,1.375000000000000000e+00
2.850000000000000866e-01,0.000000000000000000e+00,-2.000000000000000000e+00,8.000000000000000000e+00,7.000000000000000000e+00,2.000000000000000000e+00,3.000000000000000000e+00,1.000000000000000000e+00,-2.000000000000000000e+00,-3.715820312500000000e-01,-3.354492187500000000e-01,6.931152343750000000e-01,5.186767578125000000e-01,-1.772460937500000000e-01,-8.608398437500000000e-01,5.014648437500000000e-01,4.375000000000000000e-01,8.750000000000000000e-01,1.375000000000000000e+00
2.900000000000000910e-01,0.000000000000000000e+00,-2.000000000000000000e+00,8.000000000000000000e+00,7.000000000000000000e+00,2.000000000000000000e+00,3.000000000000000000e+00,1.000000000000000000e+00,-2.000000000000000000e+00,-3.715820312500000000e-01,-3.354492187500000000e-01,6.931152343750000000e-01,5.186767578125000000e-01,-1.772460937500000000e-01,-8.608398437500000000e-01,5.014648437500000000e-01,4.375000000000000000e-01,8.750000000000000000e-01,1.375000000000000000e+00
2.950000000000000955e-01,0.000000000000000000e+00,-3.000000000000000000e+00,1.000000000000000000e+00,-3.000000000000000000e+00,-2.000000000000000000e+00,0.000000000000000000e+00,-2.000000000000000000e+00,-2.000000000000000000e+00,-3.715820312500000000e-01,-3.354492187500000000e-01,6.931152343750000000e-01,5.186767578125000000e-01,-1.772460937500000000e-01,-8.608398437500000000e-01,5.014648437500000000e-01,4.375000000000000000e-01,8.750000000000000000e-01,1.375000000000000000e+00
3.000000000000000999e-01,0.000000000000000000e+00,-3.000000000000000000e+00,1.000000000000000000e+00,-3.000000000000000000e+00,-2.000000000000000000e+00,0.000000000000000000e+00,-2.000000000000000000e+00,-2.000000000000000000e+00,-3.715820312500000000e-01,-3.354492187500000000e-01,6.931152343750000000e-01,5.186767578125000000e-01,-1.772460937500000000e-01,-8.608398437500000000e-01,5.014648437500000000e-01,4.375000000000000000e-01,8.750000000000000000e-01,1.375000000000000000e+00
3.050000000000001044e-01,0.000000000000000000e+00,-2.000000000000000000e+00,-6.000000000000000000e+00,-5.000000000000000000e+00,-6.000000000000000000e+00,-4.000000000000000000e+00,-1.000000000000000000e+00,-3.000000000000000000e+00,-3.715820312500000000e-01,-3.354492187500000000e-01,6.931152343750000000e-01,5.186767578125000000e-01,-1.748046875000000000e-01,-8.608398437500000000e-01,5.058593750000000000e-01,3.125000000000000000e-01,6.875000000000000000e-01,3.750000000000000000e-01
3.100000000000001088e-01,0.000000000000000000e+00,-2.000000000000000000e+00,-6.000000000000000000e+00,-5.000000000000000000e+00,-6.000000000000000000e+00,-4.000000000000000000e+00,-1.000000000000000000e+00,-3.000000000000000000e+00,-3.715820312500000000e-01,-3.354492187500000000e-01,6.931152343750000000e-01,5.186767578125000000e-01,-1.748046875000000000e-01,-8.608398437500000000e-01,5.058593750000000000e-01,3.125000000000000000e-01,6.875000000000000000e-01,3.750000000000000000e-01
3.150000000000001132e-01,-2.000000000000000000e+00,0.000000000000000000e+00,1.500000000000000000e+01,4.000000000000000000e+00,-2.000000000000000000e+00,-1.000000000000000000e+00,-1.000000000000000000e+00,-1.000000000000000000e+00,-3.715820312500000000e-01,-3.354492187500000000e-01,6.931152343750000000e-01,5.186157226562500000e-01,-1.821289062500000000e-01,-8.642578125000000000e-01,4.951171875000000000e-01,-3.750000000000000000e-01,-1.875000000000000000e-01,-3.750000000000000000e-01
3.200000000000001732e-01,-1.000000000000000000e+00,-1.000000000000000000e+00,-8.000000000000000000e+00,-5.000000000000000000e+00,4.000000000000000000e+00,3.000000000000000000e+00,1.000000000000000000e+00,-2.000000000000000000e+00,-3.715820312500000000e-01,-3.354492187500000000e-01,6.931152343750000000e-01,5.186157226562500000e-01,-1.821289062500000000e-01,-8.642578125000000000e-01,4.951171875000000000e-01,-3.750000000000000000e-01,-1.875000000000000000e-01,-3.750000000000000000e-01
3.250000000000001776e-01,-1.000000000000000000e+00,-1.000000000000000000e+00,-8.000000000000000000e+00,-5.000000000000000000e+00,4.000000000000000000e+00,3.000000000000000000e+00,1.000000000000000000e+00,-2.000000000000000000e+00,-3.715820312500000000e-01,-3.354492187500000000e-01,6.931152343750000000e-01,5.186157226562500000e-01,-1.821289062500000000e-01,-8.642578125000000000e-01,4.951171875000000000e-01,-3.750000000000000000e-01,-1.875000000000000000e-01,-3.750000000000000000e-01
3.300000000000001821e-01,-1.000000000000000000e+00,-1.000000000000000000e+00,-8.000000000000000000e+00,-5.000000000000000000e+00,4.000000000000000000e+00,3.000000000000000000e+00,1.000000000000000000e+00,-2.000000000000000000e+00,-3.715820312500000000e-01,-3.354492187500000000e-01,6.931152343750000000e-01,5.186157226562500000e-01,-1.821289062500000000e-01,-8.642578125000000000e-01,4.951171875000000000e-01,-3.750000000000000000e-01,-1.875000000000000000e-01,-3.750000000000000000e-01
3.350000000000001865e-01,-1.000000000000000000e+00,-1.000000000000000000e+00,-8.000000000000000000e+00,-5.000000000000000000e+00,4.000000000000000000e+00,3.000000000000000000e+00,1.000000000000000000e+00,-2.000000000000000000e+00,-3.715820312500000000e-01,-3.354492187500000000e-01,6.931152343750000000e-01,5.186157226562500000e-01,-1.821289062500000000e-01,-8.642578125000000000e-01,4.951171875000000000e-01,-3.750000000000000000e-01,-1.875000000000000000e-01,-3.750000000000000000e-01
3.400000000000001910e-01,-1.000000000000000000e+00,-1.000000000000000000e+00,-8.000000000000000000e+00,-5.000000000000000000e+00,-2.000000000000000000e+00,2.000000000000000000e+00,3.000000000000000000e+00,-1.000000000000000000e+00,-3.716430664062500000e-01,-3.354492187500000000e-01,6.931152343750000000e-01,5.186157226562500000e-01,-1.796875000000000000e-01,-8.627929687500000000e-01,4.941406250000000000e-01,-1.250000000000000000e-01,-5.000000000000000000e-01,-3.750000000000000000e-01
3.450000000000001954e-01,-1.000000000000000000e+00,-2.000000000000000000e+00,-4.000000000000000000e+00,-2.000000000000000000e+00,-2.000000000000000000e+00,-2.000000000000000000e+00,-2.000000000000000000e+00,2.000000000000000000e+00,-3.716430664062500000e-01,-3.354492187500000000e-01,6.931152343750000000e-01,5.186157226562500000e-01,-1.796875000000000000e-01,-8.627929687500000000e-01,4.941406250000000000e-01,-1.250000000000000000e-01,-5.000000000000000000e-01,-3.750000000000000000e-01
3.500000000000001998e-01,-1.000000000000000000e+00,-2.000000000000000000e+00,-4.000000000000000000e+00,-2.000000000000000000e+00,-2.000000000000000000e+00,-2.000000000000000000e+00,-2.000000000000000000e+00,2.000000000000000000e+00,-3.716430664062500000e-01,-3.354492187500000000e-01,6.931152343750000000e-01,5.186157226562500000e-01,-1.796875000000000000e-01,-8.627929687500000000e-01,4.941406250000000000e-01,-1.250000000000000000e-01,-5.000000000000000000e-01,-3.750000000000000000e-01
3.550000000000002043e-01,-1.000000000000000000e+00,-2.000000000000000000e+00,-4.000000000000000000e+00,-2.000000000000000000e+00,-2.000000000000000000e+00,-2.000000000000000000e+00,-2.000000000000000000e+00,2.000000000000000000e+00,-3.716430664062500000e-01,-3.354492187500000000e-01,6.931152343750000000e-01,5.186157226562500000e-01,-1.796875000000000000e-01,-8.627929687500000000e-01,4.941406250000000000e-01,-1.250000000000000000e-01,-5.000000000000000000e-01,-3.750000000000000000e-01
3.600000000000002087e-01,-2.000000000000000000e+00,-1.000000000000000000e+00,0.000000000000000000e+00,3.000000000000000000e+00,-1.000000000000000000e+00,0.000000000000000000e+00,-2.000000000000000000e+00,0.000000000000000000e+00,-3.716430664062500000e-01,-3.354492187500000000e-01,6.931152343750000000e-01,5.186157226562500000e-01,-1.796875000000000000e-01,-8.627929687500000000e-01,4.941406250000000000e-01,-1.250000000000000000e-01,-5.000000000000000000e-01,-3.750000000000000000e-01
3.650000000000002132e-01,-2.000000000000000000e+00,-1.000000000000000000e+00,0.000000000000000000e+00,3.000000000000000000e+00,-1.000000000000000000e+00,0.000000000000000000e+00,-2.000000000000000000e+00,0.000000000000000000e+00,-3.716430664062500000e-01,-3.354492187500000000e-01,6.931152343750000000e-01,5.186157226562500000e-01,-1.796875000000000000e-01,-8.627929687500000000e-01,4.941406250000000000e-01,-1.250000000000000000e-01,-5.000000000000000000e-01,-3.750000000000000000e-01
3.700000000000002176e-01,-3.000000000000000000e+00,-4.000000000000000000e+00,-3.000000000000000000e+00,-4.000000000000000000e+00,-4.000000000000000000e+00,-2.000000000000000000e+00,-2.000000000000000000e+00,-1.000000000000000000e+00,-3.717041015625000000e-01,-3.354492187500000000e-01,6.931152343750000000e-01,5.186157226562500000e-01,-1.777343750000000000e-01,-8.598632812500000000e-01,4.985351562500000000e-01,-2.500000000000000000e-01,-6.250000000000000000e-01,-4.375000000000000000e-01
3.750000000000002220e-01,-3.000000000000000000e+00,-4.000000000000000000e+00,-3.000000000000000000e+00,-4.000000000000000000e+00,-4.000000000000000000e+00,-2.000000000000000000e+00,-2.000000000000000000e+00,-1.000000000000000000e+00,-3.717041015625000000e-01,-3.354492187500000000e-01,6.931152343750000000e-01,5.186157226562500000e-01,-1.777343750000000000e-01,-8.598632812500000000e-01,4.985351562500000000e-01,-2.500000000000000000e-01,-6.250000000000000000e-01,-4.375000000000000000e-01
3.800000000000002265e-01,-3.000000000000000000e+00,-4.000000000000000000e+00,-3.000000000000000000e+00,-4.000000000000000000e+00,-4.000000000000000000e+00,-2.000000000000000000e+00,-2.000000000000000000e+00,-1.000000000000000000e+00,-3.717041015625000000e-01,-3.354492187500000000e-01,6.931152343750000000e-01,5.186157226562500000e-01,-1.777343750000000000e-01,-8.598632812500000000e-01,4.985351562500000000e-01,-2.500000000000000000e-01,-6.250000000000000000e-01,-4.375000000000000000e-01
3.850000000000001754e-01,-2.000000000000000000e+00,-1.000000000000000000e+00,0.000000000000000000e+00,2.000000000000000000e+00,-3.000000000000000000e+00,-7.000000000000000000e+00,-1.000000000000000000e+00,-1.000000000000000000e+00,-3.717041015625000000e-01,-3.354492187500000000e-01,6.931152343750000000e-01,5.186157226562500000e-01,-1.777343750000000000e-01,-8.598632812500000000e-01,4.985351562500000000e-01,-2.500000000000000000e-01,-6.250000000000000000e-01,-4.375000000000000000e-01
3.900000000000001799e-01,-2.000000000000000000e+00,-1.000000000000000000e+00,0.000000000000000000e+00,2.000000000000000000e+00,-3.000000000000000000e+00,-7.000000000000000000e+00,-1.000000000000000000e+00,-1.000000000000000000e+00,-3.717651367187500000e-01,-3.358764648437500000e-01,6.930541992187500000e-01,5.182495117187500000e-01,-1.728515625000000000e-01,-8.681640625000000000e-01,4.921875000000000000e-01,-2.125000000000000000e+00,-1.750000000000000000e+00,1.250000000000000000e-01
3.950000000000001843e-01,-3.000000000000000000e+00,0.000000000000000000e+00,-3.000000000000000000e+00,0.000000000000000000e+00,5.000000000000000000e+00,0.000000000000000000e+00,-2.000000000000000000e+00,-1.000000000000000000e+00,-3.717651367187500000e-01,-3.358764648437500000e-01,6.930541992187500000e-01,5.182495117187500000e-01,-1.728515625000000000e-01,-8.681640625000000000e-01,4.921875000000000000e-01,-2.125000000000000000e+00,-1.750000000000000000e+00,1.250000000000000000e-01
4.000000000000001887e-01,-3.000000000000000000e+00,0.000000000000000000e+00,-3.000000000000000000e+00,0.000000000000000000e+00,5.000000000000000000e+00,0.000000000000000000e+00,-2.000000000000000000e+00,-1.000000000000000000e+00,-3.717651367187500000e-01,-3.358764648437500000e-01,6.930541992187500000e-01,5.182495117187500000e-01,-1.728515625000000000e-01,-8.681640625000000000e-01,4.921875000000000000e-01,-2.125000000000000000e+00,-1.750000000000000000e+00,1.250000000000000000e-01
4.050000000000001932e-01,-3.000000000000000000e+00,0.000000000000000000e+00,-3.000000000000000000e+00,0.000000000000000000e+00,5.000000000000000000e+00,0.000000000000000000e+00,-2.000000000000000000e+00,-1.000000000000000000e+00,-3.717651367187500000e-01,-3.358764648437500000e-01,6.930541992187500000e-01,5.182495117187500000e-01,-1.728515625000000000e-01,-8.681640625000000000e-01,4.921875000000000000e-01,-2.125000000000000000e+00,-1.750000000000000000e+00,1.250000000000000000e-01
4.100000000000001976e-01,-3.000000000000000000e+00,0.000000000000000000e+00,-3.000000000000000000e+00,0.000000000000000000e+00,5.000000000000000000e+00,0.000000000000000000e+00,-2.000000000000000000e+00,-1.000000000000000000e+00,-3.717651367187500000e-01,-3.358764648437500000e-01,6.930541992187500000e-01,5.182495117187500000e-01,-1.728515625000000000e-01,-8.681640625000000000e-01,4.921875000000000000e-01,-2.125000000000000000e+00,-1.750000000000000000e+00,1.250000000000000000e-01
4.150000000000002021e-01,-3.000000000000000000e+00,0.000000000000000000e+00,-3.000000000000000000e+00,0.000000000000000000e+00,5.000000000000000000e+00,0.000000000000000000e+00,-2.000000000000000000e+00,-1.000000000000000000e+00,-3.717651367187500000e-01,-3.358764648437500000e-01,6.930541992187500000e-01,5.182495117187500000e-01,-1.728515625000000000e-01,-8.681640625000000000e-01,4.921875000000000000e-01,-2.125000000000000000e+00,-1.750000000000000000e+00,1.250000000000000000e-01
4.200000000000002065e-01,-2.000000000000000000e+00,-1.000000000000000000e+00,3.000000000000000000e+00,-2.000000000000000000e+00,-4.000000000000000000e+00,-2.000000000000000000e+00,-2.000000000000000000e+00,-1.000000000000000000e+00,-3.716430664062500000e-01,-3.360595703125000000e-01,6.931762695312500000e-01,5.181274414062500000e-01,-1.728515625000000000e-01,-8.730468750000000000e-01,5.117187500000000000e-01,-4.375000000000000000e-01,-1.625000000000000000e+00,2.500000000000000000e-01
4.250000000000002109e-01,-2.000000000000000000e+00,-1.000000000000000000e+00,3.000000000000000000e+00,-2.000000000000000000e+00,-4.000000000000000000e+00,-2.000000000000000000e+00,-2.000000000000000000e+00,-1.000000000000000000e+00,-3.716430664062500000e-01,-3.360595703125000000e-01,6.931762695312500000e-01,5.181274414062500000e-01,-1.728515625000000000e-01,-8.730468750000000000e-01,5.117187500000000000e-01,-4.375000000000000000e-01,-1.625000000000000000e+00,2.500000000000000000e-01
4.300000000000002154e-01,-2.000000000000000000e+00,-1.000000000000000000e+00,3.000000000000000000e+00,-2.000000000000000000e+00,-4.000000000000000000e+00,-2.000000000000000000e+00,-2.000000000000000000e+00,-1.000000000000000000e+00,-3.716430664062500000e-01,-3.360595703125000000e-01,6.931762695312500000e-01,5.181274414062500000e-01,-1.728515625000000000e-01,-8.730468750000000000e-01,5.117187500000000000e-01,-4.375000000000000000e-01,-1.625000000000000000e+00,2.500000000000000000e-01
4.350000000000002753e-01,0.000000000000000000e+00,-2.000000000000000000e+00,-2.000000000000000000e+00,2.000000000000000000e+00,2.000000000000000000e+00,-2.000000000000000000e+00,-1.000000000000000000e+00,-2.000000000000000000e+00,-3.716430664062500000e-01,-3.360595703125000000e-01,6.931762695312500000e-01,5.181274414062500000e-01,-1.728515625000000000e-01,-8.730468750000000000e-01,5.117187500000000000e-01,-4.375000000000000000e-01,-1.625000000000000000e+00,2.500000000000000000e-01
4.400000000000002798e-01,0.000000000000000000e+00,-2.000000000000000000e+00,-2.000000000000000000e+00,2.000000000000000000e+00,2.000000000000000000e+00,-2.000000000000000000e+00,-1.000000000000000000e+00,-2.000000000000000000e+00,-3.716430664062500000e-01,-3.360595703125000000e-01,6.931762695312500000e-01,5.181274414062500000e-01,-1.728515625000000000e-01,-8.730468750000000000e-01,5.117187500000000000e-01,-4.375000000000000000e-01,-1.625000000000000000e+00,2.500000000000000000e-01
4.450000000000002842e-01,0.000000000000000000e+00,-2.000000000000000000e+00,-2.000000000000000000e+00,2.000000000000000000e+00,2.000000000000000000e+00,-2.000000000000000000e+00,-1.000000000000000000e+00,-2.000000000000000000e+00,-3.716430664062500000e-01,-3.360595703125000000e-01,6.931762695312500000e-01,5.181274414062500000e-01,-1.728515625000000000e-01,-8.730468750000000000e-01,5.117187500000000000e-01,-4.375000000000000000e-01,-1.625000000000000000e+00,2.500000000000000000e-01
4.500000000000002887e-01,0.000000000000000000e+00,1.000000000000000000e+00,5.000000000000000000e+00,2.000000000000000000e+00,2.000000000000000000e+00,3.000000000000000000e+00,2.000000000000000000e+00,1.000000000000000000e+00,-3.716430664062500000e-01,-3.360595703125000000e-01,6.931762695312500000e-01,5.181274414062500000e-01,-1.694335937500000000e-01,-8.754882812500000000e-01,5.092773437500000000e-01,-3.750000000000000000e-01,-8.125000000000000000e-01,-3.125000000000000000e-01
4.550000000000002931e-01,0.000000000000000000e+00,1.000000000000000000e+00,5.000000000000000000e+00,2.000000000000000000e+00,2.000000000000000000e+00,3.000000000000000000e+00,2.000000000000000000e+00,1.000000000000000000e+00,-3.716430664062500000e-01,-3.360595703125000000e-01,6.931762695312500000e-01,5.181274414062500000e-01,-1.694335937500000000e-01,-8.754882812500000000e-01,5.092773437500000000e-01,-3.750000000000000000e-01,-8.125000000000000000e-01,-3.125000000000000000e-01
4.600000000000002975e-01,0.000000000000000000e+00,1.000000000000000000e+00,5.000000000000000000e+00,2.000000000000000000e+00,2.000000000000000000e+00,3.000000000000000000e+00,2.000000000000000000e+00,1.000000000000000000e+00,-3.716430664062500000e-01,-3.360595703125000000e-01,6.931762695312500000e-01,5.181274414062500000e-01,-1.694335937500000000e-01,-8.754882812500000000e-01,5.092773437500000000e-01,-3.750000000000000000e-01,-8.125000000000000000e-01,-3.125000000000000000e-01
4.650000000000003020e-01,0.000000000000000000e+00,1.000000000000000000e+00,5.000000000000000000e+00,2.000000000000000000e+00,2.000000000000000000e+00,3.000000000000000000e+00,2.000000000000000000e+00,1.000000000000000000e+00,-3.716430664062500000e-01,-3.360595703125000000e-01,6.931762695312500000e-01,5.181274414062500000e-01,-1.694335937500000000e-01,-8.754882812500000000e-01,5.092773437500000000e-01,-3.750000000000000000e-01,-8.125000000000000000e-01,-3.125000000000000000e-01
4.700000000000003064e-01,0.000000000000000000e+00,-2.000000000000000000e+00,-5.000000000000000000e+00,-3.000000000000000000e+00,-4.000000000000000000e+00,-2.000000000000000000e+00,-3.000000000000000000e+00,-1.000000000000000000e+00,-3.716430664062500000e-01,-3.360595703125000000e-01,6.931762695312500000e-01,5.181274414062500000e-01,-1.708984375000000000e-01,-8.681640625000000000e-01,5.039062500000000000e-01,5.625000000000000000e-01,-9.375000000000000000e-01,-3.750000000000000000e-01
4.750000000000003109e-01,0.000000000000000000e+00,-2.000000000000000000e+00,-5.000000000000000000e+00,-3.000000000000000000e+00,-4.000000000000000000e+00,-2.000000000000000000e+00,-3.000000000000000000e+00,-1.000000000000000000e+00,-3.716430664062500000e-01,-3.360595703125000000e-01,6.931762695312500000e-01,5.181274414062500000e-01,-1.708984375000000000e-01,-8.681640625000000000e-01,5.039062500000000000e-01,5.625000000000000000e-01,-9.375000000000000000e-01,-3.750000000000000000e-01
4.800000000000003153e-01,-1.000000000000000000e+00,-3.000000000000000000e+00,3.000000000000000000e+00,2.000000000000000000e+00,2.000000000000000000e+00,3.000000000000000000e+00,-2.000000000000000000e+00,-1.000000000000000000e+00,-3.716430664062500000e-01,-3.360595703125000000e-01,6.931762695312500000e-01,5.181274414062500000e-01,-1.708984375000000000e-01,-8.681640625000000000e-01,5.039062500000000000e-01,5.625000000000000000e-01,-9.375000000000000000e-01,-3.750000000000000000e-01
4.850000000000003197e-01,-1.000000000000000000e+00,-3.000000000000000000e+00,3.000000000000000000e+00,2.000000000000000000e+00,2.000000000000000000e+00,3.000000000000000000e+00,-2.000000000000000000e+00,-1.000000000000000000e+00,-3.716430664062500000e-01,-3.360595703125000000e-01,6.931762695312500000e-01,5.181274414062500000e-01,-1.708984375000000000e-01,-8.681640625000000000e-01,5.039062500000000000e-01,5.625000000000000000e-01,-9.375000000000000000e-01,-3.750000000000000000e-01
4.900000000000003242e-01,-1.000000000000000000e+00,-3.000000000000000000e+00,3.000000000000000000e+00,2.000000000000000000e+00,2.000000000000000000e+00,3.000000000000000000e+00,-2.000000000000000000e+00,-1.000000000000000000e+00,-3.716430664062500000e-01,-3.360595703125000000e-01,6.931762695312500000e-01,5.181274414062500000e-01,-1.708984375000000000e-01,-8.681640625000000000e-01,5.039062500000000000e-01,5.625000000000000000e-01,-9.375000000000000000e-01,-3.750000000000000000e-01
4.950000000000002731e-01,-1.000000000000000000e+00,-3.000000000000000000e+00,3.000000000000000000e+00,2.000000000000000000e+00,2.000000000000000000e+00,3.000000000000000000e+00,-2.000000000000000000e+00,-1.000000000000000000e+00,-3.716430664062500000e-01,-3.360595703125000000e-01,6.931762695312500000e-01,5.181274414062500000e-01,-1.708984375000000000e-01,-8.681640625000000000e-01,5.039062500000000000e-01,5.625000000000000000e-01,-9.375000000000000000e-01,-3.750000000000000000e-01
5.000000000000003331e-01,-1.000000000000000000e+00,-2.000000000000000000e+00,-1.400000000000000000e+01,-7.000000000000000000e+00,-1.000000000000000000e+00,-3.000000000000000000e+00,-2.000000000000000000e+00,-1.000000000000000000e+00,-3.715209960937500000e-01,-3.363037109375000000e-01,6.932373046875000000e-01,5.179443359375000000e-01,-1.669921875000000000e-01,-8.715820312500000000e-01,4.946289062500000000e-01,2.500000000000000000e-01,-1.750000000000000000e+00,1.250000000000000000e-01
5.050000000000003375e-01,-1.000000000000000000e+00,-2.000000000000000000e+00,-2.700000000000000000e+01,-1.400000000000000000e+01,-5.000000000000000000e+00,-3.000000000000000000e+00,0.000000000000000000e+00,-2.000000000000000000e+00,-3.715209960937500000e-01,-3.363037109375000000e-01,6.932373046875000000e-01,5.179443359375000000e-01,-1.669921875000000000e-01,-8.715820312500000000e-01,4.946289062500000000e-01,2.500000000000000000e-01,-1.750000000000000000e+00,1.250000000000000000e-01
5.100000000000003419e-01,-1.000000000000000000e+00,-2.000000000000000000e+00,-2.700000000000000000e+01,-1.400000000000000000e+01,-5.000000000000000000e+00,-3.000000000000000000e+00,0.000000000000000000e+00,-2.000000000000000000e+00,-3.715209960937500000e-01,-3.363037109375000000e-01,6.932373046875000000e-01,5.179443359375000000e-01,-1.669921875000000000e-01,-8.715820312500000000e-01,4.946289062500000000e-01,2.500000000000000000e-01,-1.750000000000000000e+00,1.250000000000000000e-01
5.150000000000003464e-01,-1.000000000000000000e+00,-2.000000000000000000e+00,-2.700000000000000000e+01,-1.400000000000000000e+01,-5.000000000000000000e+00,-3.000000000000000000e+00,0.000000000000000000e+00,-2.000000000000000000e+00,-3.715209960937500000e-01,-3.363037109375000000e-01,6.932373046875000000e-01,5.179443359375000000e-01,-1.669921875000000000e-01,-8.715820312500000000e-01,4.946289062500000000e-01,2.500000000000000000e-01,-1.750000000000000000e+00,1.250000000000000000e-01
5.200000000000003508e-01,0.000000000000000000e+00,0.000000000000000000e+00,2.000000000000000000e+00,-4.000000000000000000e+00,0.000000000000000000e+00,0.000000000000000000e+00,-1.000000000000000000e+00,-3.000000000000000000e+00,-3.715209960937500000e-01,-3.363037109375000000e-01,6.932373046875000000e-01,5.179443359375000000e-01,-1.669921875000000000e-01,-8.715820312500000000e-01,4.946289062500000000e-01,2.500000000000000000e-01,-1.750000000000000000e+00,1.250000000000000000e-01
5.250000000000003553e-01,0.000000000000000000e+00,0.000000000000000000e+00,2.000000000000000000e+00,-4.000000000000000000e+00,0.000000000000000000e+00,0.000000000000000000e+00,-1.000000000000000000e+00,-3.000000000000000000e+00,-3.715209960937500000e-01,-3.363037109375000000e-01,6.932373046875000000e-01,5.179443359375000000e-01,-1.669921875000000000e-01,-8.715820312500000000e-01,4.946289062500000000e-01,2.500000000000000000e-01,-1.750000000000000000e+00,1.250000000000000000e-01
5.300000000000003597e-01,-1.000000000000000000e+00,-2.000000000000000000e+00,0.000000000000000000e+00,1.000000000000000000e+00,3.000000000000000000e+00,1.000000000000000000e+00,0.000000000000000000e+00,-1.000000000000000000e+00,-3.715209960937500000e-01,-3.367919921875000000e-01,6.931762695312500000e-01,5.177001953125000000e-01,-1.655273437500000000e-01,-8.833007812500000000e-01,4.907226562500000000e-01,-1.187500000000000000e+00,-1.750000000000000000e+00,1.875000000000000000e-01
5.350000000000003642e-01,-1.000000000000000000e+00,-2.000000000000000000e+00,0.000000000000000000e+00,1.000000000000000000e+00,3.000000000000000000e+00,1.000000000000000000e+00,0.000000000000000000e+00,-1.000000000000000000e+00,-3.715209960937500000e-01,-3.367919921875000000e-01,6.931762695312500000e-01,5.177001953125000000e-01,-1.655273437500000000e-01,-8.833007812500000000e-01,4.907226562500000000e-01,-1.187500000000000000e+00,-1.750000000000000000e+00,1.875000000000000000e-01
5.400000000000003686e-01,-1.000000000000000000e+00,-2.000000000000000000e+00,0.000000000000000000e+00,1.000000000000000000e+00,3.000000000000000000e+00,1.000000000000000000e+00,0.000000000000000000e+00,-1.000000000000000000e+00,-3.715209960937500000e-01,-3.367919921875000000e-01,6.931762695312500000e-01,5.177001953125000000e-01,-1.655273437500000000e-01,-8.833007812500000000e-01,4.907226562500000000e-01,-1.187500000000000000e+00,-1.750000000000000000e+00,1.875000000000000000e-01
5.450000000000003730e-01,-1.000000000000000000e+00,-2.000000000000000000e+00,0.000000000000000000e+00,1.000000000000000000e+00,3.000000000000000000e+00,1.000000000000000000e+00,0.000000000000000000e+00,-1.000000000000000000e+00,-3.715209960937500000e-01,-3.367919921875000000e-01,6.931762695312500000e-01,5.177001953125000000e-01,-1.655273437500000000e-01,-8.833007812500000000e-01,4.907226562500000000e-01,-1.187500000000000000e+00,-1.750000000000000000e+00,1.875000000000000000e-01
5.500000000000003775e-01,-2.000000000000000000e+00,-5.000000000000000000e+00,-4.000000000000000000e+00,-2.000000000000000000e+00,-4.000000000000000000e+00,-4.000000000000000000e+00,0.000000000000000000e+00,0.000000000000000000e+00,-3.713378906250000000e-01,-3.369140625000000000e-01,6.931762695312500000e-01,5.177612304687500000e-01,-1.640625000000000000e-01,-8.803710937500000000e-01,5.043945312500000000e-01,5.625000000000000000e-01,-1.187500000000000000e+00,-3.125000000000000000e-01
5.550000000000003819e-01,-2.000000000000000000e+00,-5.000000000000000000e+00,-4.000000000000000000e+00,-2.000000000000000000e+00,-4.000000000000000000e+00,-4.000000000000000000e+00,0.000000000000000000e+00,0.000000000000000000e+00,-3.713378906250000000e-01,-3.369140625000000000e-01,6.931762695312500000e-01,5.177612304687500000e-01,-1.640625000000000000e-01,-8.803710937500000000e-01,5.043945312500000000e-01,5.625000000000000000e-01,-1.187500000000000000e+00,-3.125000000000000000e-01
5.600000000000003864e-01,1.000000000000000000e+00,1.000000000000000000e+00,3.000000000000000000e+00,0.000000000000000000e+00,-6.000000000000000000e+00,-4.000000000000000000e+00,-1.000000000000000000e+00,0.000000000000000000e+00,-3.713378906250000000e-01,-3.369140625000000000e-01,6.931762695312500000e-01,5.177612304687500000e-01,-1.640625000000000000e-01,-8.803710937500000000e-01,5.043945312500000000e-01,5.625000000000000000e-01,-1.187500000000000000e+00,-3.125000000000000000e-01
5.650000000000003908e-01,1.000000000000000000e+00,1.000000000000000000e+00,3.000000000000000000e+00,0.000000000000000000e+00,-6.000000000000000000e+00,-4.000000000000000000e+00,-1.000000000000000000e+00,0.000000000000000000e+00,-3.713378906250000000e-01,-3.369140625000000000e-01,6.931762695312500000e-01,5.177612304687500000e-01,-1.640625000000000000e-01,-8.803710937500000000e-01,5.043945312500000000e-01,5.625000000000000000e-01,-1.187500000000000000e+00,-3.125000000000000000e-01
5.700000000000003952e-01,1.000000000000000000e+00,1.000000000000000000e+00,3.000000000000000000e+00,0.000000000000000000e+00,-6.000000000000000000e+00,-4.000000000000000000e+00,-1.000000000000000000e+00,0.000000000000000000e+00,-3.713378906250000000e-01,-3.369140625000000000e-01,6.931762695312500000e-01,5.177612304687500000e-01,-1.640625000000000000e-01,-8.803710937500000000e-01,5.043945312500000000e-01,5.625000000000000000e-01,-1.187500000000000000e+00,-3.125000000000000000e-01
5.750000000000003997e-01,1.000000000000000000e+00,1.000000000000000000e+00,3.000000000000000000e+00,0.000000000000000000e+00,-6.000000000000000000e+00,-4.000000000000000000e+00,-1.000000000000000000e+00,0.000000000000000000e+00,-3.713378906250000000e-01,-3.369140625000000000e-01,6.931762695312500000e-01,5.177612304687500000e-01,-1.640625000000000000e-01,-8.803710937500000000e-01,5.043945312500000000e-01,5.625000000000000000e-01,-1.187500000000000000e+00,-3.125000000000000000e-01
5.800000000000004041e-01,-4.000000000000000000e+00,-3.000000000000000000e+00,-5.000000000000000000e+00,-4.000000000000000000e+00,-5.000000000000000000e+00,-7.000000000000000000e+00,-4.000000000000000000e+00,-3.000000000000000000e+00,-3.710327148437500000e-01,-3.367919921875000000e-01,6.934204101562500000e-01,5.177612304687500000e-01,-1.689453125000000000e-01,-8.671875000000000000e-01,5.107421875000000000e-01,1.500000000000000000e+00,-9.375000000000000000e-01,3.125000000000000000e-01
5.850000000000004086e-01,-4.000000000000000000e+00,-3.000000000000000000e+00,-5.000000000000000000e+00,-4.000000000000000000e+00,-5.000000000000000000e+00,-7.000000000000000000e+00,-4.000000000000000000e+00,-3.000000000000000000e+00,-3.710327148437500000e-01,-3.367919921875000000e-01,6.934204101562500000e-01,5.177612304687500000e-01,-1.689453125000000000e-01,-8.671875000000000000e-01,5.107421875000000000e-01,1.500000000000000000e+00,-9.375000000000000000e-01,3.125000000000000000e-01
5.900000000000004130e-01,-4.000000000000000000e+00,-3.000000000000000000e+00,-5.000000000000000000e+00,-4.000000000000000000e+00,-5.000000000000000000e+00,-7.000000000000000000e+00,-4.000000000000000000e+00,-3.000000000000000000e+00,-3.710327148437500000e-01,-3.367919921875000000e-01,6.934204101562500000e-01,5.177612304687500000e-01,-1.689453125000000000e-01,-8.671875000000000000e-01,5.107421875000000000e-01,1.500000000000000000e+00,-9.375000000000000000e-01,3.125000000000000000e-01
5.950000000000004174e-01,-4.000000000000000000e+00,-3.000000000000000000e+00,-5.000000000000000000e+00,-4.000000000000000000e+00,-5.000000000000000000e+00,-7.000000000000000000e+00,-4.000000000000000000e+00,-3.000000000000000000e+00,-3.710327148437500000e-01,-3.367919921875000000e-01,6.934204101562500000e-01,5.177612304687500000e-01,-1.689453125000000000e-01,-8.671875000000000000e-01,5.107421875000000000e-01,1.500000000000000000e+00,-9.375000000000000000e-01,3.125000000000000000e-01
6.000000000000004219e-01,-3.000000000000000000e+00,0.000000000000000000e+00,-8.000000000000000000e+00,-6.000000000000000000e+00,2.000000000000000000e+00,2.000000000000000000e+00,0.000000000000000000e+00,-1.000000000000000000e+00,-3.710327148437500000e-01,-3.367919921875000000e-01,6.934204101562500000e-01,5.177612304687500000e-01,-1.689453125000000000e-01,-8.671875000000000000e-01,5.107421875000000000e-01,1.500000000000000000e+00,-9.375000000000000000e-01,3.125000000000000000e-01
6.050000000000004263e-01,-3.000000000000000000e+00,0.000000000000000000e+00,-8.000000000000000000e+00,-6.000000000000000000e+00,2.000000000000000000e+00,2.000000000000000000e+00,0.000000000000000000e+00,-1.000000000000000000e+00,-3.710327148437500000e-01,-3.367919921875000000e-01,6.934204101562500000e-01,5.177612304687500000e-01,-1.689453125000000000e-01,-8.671875000000000000e-01,5.107421875000000000e-01,1.500000000000000000e+00,-9.375000000000000000e-01,3.125000000000000000e-01
6.100000000000004308e-01,-1.000000000000000000e+00,2.000000000000000000e+00,0.000000000000000000e+00,1.000000000000000000e+00,0.000000000000000000e+00,1.000000000000000000e+00,-1.000000000000000000e+00,-1.000000000000000000e+00,-3.707885742187500000e-01,-3.366699218750000000e-01,6.936035156250000000e-01,5.177612304687500000e-01,-1.699218750000000000e-01,-8.666992187500000000e-01,5.117187500000000000e-01,1.312500000000000000e+00,-1.375000000000000000e+00,3.125000000000000000e-01
6.150000000000004352e-01,-1.000000000000000000e+00,2.000000000000000000e+00,0.000000000000000000e+00,1.000000000000000000e+00,0.000000000000000000e+00,1.000000000000000000e+00,-1.000000000000000000e+00,-1.000000000000000000e+00,-3.707885742187500000e-01,-3.366699218750000000e-01,6.936035156250000000e-01,5.177612304687500000e-01,-1.699218750000000000e-01,-8.666992187500000000e-01,5.117187500000000000e-01,1.312500000000000000e+00,-1.375000000000000000e+00,3.125000000000000000e-01
6.200000000000004396e-01,-1.000000000000000000e+00,2.000000000000000000e+00,0.000000000000000000e+00,1.000000000000000000e+00,0.000000000000000000e+00,1.000000000000000000e+00,-1.000000000000000000e+00,-1.000000000000000000e+00,-3.707885742187500000e-01,-3.366699218750000000e-01,6.936035156250000000e-01,5.177612304687500000e-01,-1.699218750000000000e-01,-8.666992187500000000e-01,5.117187500000000000e-01,1.312500000000000000e+00,-1.375000000000000000e+00,3.125000000000000000e-01
6.250000000000004441e-01,-3.000000000000000000e+00,-1.000000000000000000e+00,2.000000000000000000e+00,0.000000000000000000e+00,-6.000000000000000000e+00,-3.000000000000000000e+00,-2.000000000000000000e+00,0.000000000000000000e+00,-3.706665039062500000e-01,-3.368530273437500000e-01,6.937255859375000000e-01,5.175170898437500000e-01,-1.625976562500000000e-01,-8.662109375000000000e-01,5.117187500000000000e-01,-9.375000000000000000e-01,-1.500000000000000000e+00,8.750000000000000000e-01
6.300000000000004485e-01,-1.000000000000000000e+00,-2.000000000000000000e+00,3.000000000000000000e+00,1.000000000000000000e+00,1.000000000000000000e+00,1.000000000000000000e+00,0.000000000000000000e+00,-1.000000000000000000e+00,-3.706665039062500000e-01,-3.368530273437500000e-01,6.937255859375000000e-01,5.175170898437500000e-01,-1.625976562500000000e-01,-8.662109375000000000e-01,5.117187500000000000e-01,-9.375000000000000000e-01,-1.500000000000000000e+00,8.750000000000000000e-01
6.350000000000004530e-01,-1.000000000000000000e+00,-2.000000000000000000e+00,3.000000000000000000e+00,1.000000000000000000e+00,1.000000000000000000e+00,1.000000000000000000e+00,0.000000000000000000e+00,-1.000000000000000000e+00,-3.706665039062500000e-01,-3.368530273437500000e-01,6.937255859375000000e-01,5.175170898437500000e-01,-1.625976562500000000e-01,-8.662109375000000000e-01,5.117187500000000000e-01,-9.375000000000000000e-01,-1.500000000000000000e+00,8.750000000000000000e-01
6.400000000000004574e-01,-1.000000000000000000e+00,-2.000000000000000000e+00,3.000000000000000000e+00,1.000000000000000000e+00,1.000000000000000000e+00,1.000000000000000000e+00,0.000000000000000000e+00,-1.000000000000000000e+00,-3.706665039062500000e-01,-3.368530273437500000e-01,6.937255859375000000e-01,5.175170898437500000e-01,-1.625976562500000000e-01,-8.662109375000000000e-01,5.117187500000000000e-01,-9.375000000000000000e-01,-1.500000000000000000e+00,8.750000000000000000e-01
6.450000000000004619e-01,-1.000000000000000000e+00,-2.000000000000000000e+00,3.000000000000000000e+00,1.000000000000000000e+00,1.000000000000000000e+00,1.000000000000000000e+00,0.000000000000000000e+00,-1.000000000000000000e+00,-3.706665039062500000e-01,-3.368530273437500000e-01,6.937255859375000000e-01,5.175170898437500000e-01,-1.625976562500000000e-01,-8.662109375000000000e-01,5.117187500000000000e-01,-9.375000000000000000e-01,-1.500000000000000000e+00,8.750000000000000000e-01
6.500000000000004663e-01,1.000000000000000000e+00,-3.000000000000000000e+00,-2.000000000000000000e+00,0.000000000000000000e+00,-2.000000000000000000e+00,-2.000000000000000000e+00,-1.000000000000000000e+00,1.000000000000000000e+00,-3.703002929687500000e-01,-3.368530273437500000e-01,6.940307617187500000e-01,5.173950195312500000e-01,-1.606445312500000000e-01,-8.637695312500000000e-01,5.126953125000000000e-01,1.125000000000000000e+00,-1.812500000000000000e+00,1.187500000000000000e+00
6.550000000000004707e-01,1.000000000000000000e+00,-3.000000000000000000e+00,-2.000000000000000000e+00,0.000000000000000000e+00,-2.000000000000000000e+00,-2.000000000000000000e+00,-1.000000000000000000e+00,1.000000000000000000e+00,-3.703002929687500000e-01,-3.368530273437500000e-01,6.940307617187500000e-01,5.173950195312500000e-01,-1.606445312500000000e-01,-8.637695312500000000e-01,5.126953125000000000e-01,1.125000000000000000e+00,-1.812500000000000000e+00,1.187500000000000000e+00
6.600000000000004752e-01,-3.000000000000000000e+00,-4.000000000000000000e+00,-2.000000000000000000e+00,-2.000000000000000000e+00,-5.000000000000000000e+00,-2.000000000000000000e+00,-1.000000000000000000e+00,0.000000000000000000e+00,-3.703002929687500000e-01,-3.368530273437500000e-01,6.940307617187500000e-01,5.173950195312500000e-01,-1.606445312500000000e-01,-8.637695312500000000e-01,5.126953125000000000e-01,1.125000000000000000e+00,-1.812500000000000000e+00,1.187500000000000000e+00
6.650000000000004796e-01,-1.000000000000000000e+00,0.000000000000000000e+00,-2.000000000000000000e+00,-1.000000000000000000e+00,-4.000000000000000000e+00,-4.000000000000000000e+00,-3.000000000000000000e+00,-3.000000000000000000e+00,-3.703002929687500000e-01,-3.368530273437500000e-01,6.940307617187500000e-01,5.173950195312500000e-01,-1.606445312500000000e-01,-8.637695312500000000e-01,5.126953125000000000e-01,1.125000000000000000e+00,-1.812500000000000000e+00,1.187500000000000000e+00
6.700000000000004841e-01,0.000000000000000000e+00,0.000000000000000000e+00,-3.000000000000000000e+00,-2.000000000000000000e+00,-1.000000000000000000e+00,-1.000000000000000000e+00,-1.000000000000000000e+00,-1.000000000000000000e+00,-3.701171875000000000e-01,-3.367309570312500000e-01,6.942749023437500000e-01,5.173339843750000000e-01,-1.650390625000000000e-01,-8.632812500000000000e-01,5.131835937500000000e-01,8.125000000000000000e-01,-8.750000000000000000e-01,1.000000000000000000e+00
6.750000000000004885e-01,-1.000000000000000000e+00,-2.000000000000000000e+00,7.000000000000000000e+00,3.000000000000000000e+00,2.000000000000000000e+00,0.000000000000000000e+00,-1.000000000000000000e+00,-2.000000000000000000e+00,-3.701171875000000000e-01,-3.367309570312500000e-01,6.942749023437500000e-01,5.173339843750000000e-01,-1.650390625000000000e-01,-8.632812500000000000e-01,5.131835937500000000e-01,8.125000000000000000e-01,-8.750000000000000000e-01,1.000000000000000000e+00
6.800000000000004929e-01,-1.000000000000000000e+00,-2.000000000000000000e+00,7.000000000000000000e+00,3.000000000000000000e+00,2.000000000000000000e+00,0.000000000000000000e+00,-1.000000000000000000e+00,-2.000000000000000000e+00,-3.701171875000000000e-01,-3.367309570312500000e-01,6.942749023437500000e-01,5.173339843750000000e-01,-1.650390625000000000e-01,-8.632812500000000000e-01,5.131835937500000000e-01,8.125000000000000000e-01,-8.750000000000000000e-01,1.000000000000000000e+00
6.850000000000004974e-01,-1.000000000000000000e+00,-1.000000000000000000e+00,-2.000000000000000000e+00,-2.000000000000000000e+00,-1.000000000000000000e+00,-1.000000000000000000e+00,-2.000000000000000000e+00,0.000000000000000000e+00,-3.699951171875000000e-01,-3.364868164062500000e-01,6.944580078125000000e-01,5.173339843750000000e-01,-1.674804687500000000e-01,-8.701171875000000000e-01,5.141601562500000000e-01,1.437500000000000000e+00,-1.250000000000000000e-01,1.000000000000000000e+00
6.900000000000005018e-01,-1.000000000000000000e+00,-1.000000000000000000e+00,-2.000000000000000000e+00,-2.000000000000000000e+00,-1.000000000000000000e+00,-1.000000000000000000e+00,-2.000000000000000000e+00,0.000000000000000000e+00,-3.699951171875000000e-01,-3.364868164062500000e-01,6.944580078125000000e-01,5.173339843750000000e-01,-1.674804687500000000e-01,-8.701171875000000000e-01,5.141601562500000000e-01,1.437500000000000000e+00,-1.250000000000000000e-01,1.000000000000000000e+00
6.950000000000005063e-01,-2.000000000000000000e+00,-1.000000000000000000e+00,-5.000000000000000000e+00,0.000000000000000000e+00,0.000000000000000000e+00,-1.000000000000000000e+00,-1.000000000000000000e+00,-1.000000000000000000e+00,-3.699951171875000000e-01,-3.364868164062500000e-01,6.944580078125000000e-01,5.173339843750000000e-01,-1.674804687500000000e-01,-8.701171875000000000e-01,5.141601562500000000e-01,1.437500000000000000e+00,-1.250000000000000000e-01,1.000000000000000000e+00
7.000000000000005107e-01,-2.000000000000000000e+00,-1.000000000000000000e+00,-5.000000000000000000e+00,0.000000000000000000e+00,0.000000000000000000e+00,-1.000000000000000000e+00,-1.000000000000000000e+00,-1.000000000000000000e+00,-3.699951171875000000e-01,-3.364868164062500000e-01,6.944580078125000000e-01,5.173339843750000000e-01,-1.674804687500000000e-01,-8.701171875000000000e-01,5.141601562500000000e-01,1.437500000000000000e+00,-1.250000000000000000e-01,1.000000000000000000e+00
7.050000000000005151e-01,-2.000000000000000000e+00,-1.000000000000000000e+00,-5.000000000000000000e+00,0.000000000000000000e+00,0.000000000000000000e+00,-1.000000000000000000e+00,-1.000000000000000000e+00,-1.000000000000000000e+00,-3.699951171875000000e-01,-3.364868164062500000e-01,6.944580078125000000e-01,5.173339843750000000e-01,-1.674804687500000000e-01,-8.701171875000000000e-01,5.141601562500000000e-01,1.437500000000000000e+00,-1.250000000000000000e-01,1.000000000000000000e+00
7.100000000000005196e-01,-1.000000000000000000e+00,0.000000000000000000e+00,0.000000000000000000e+00,-1.000000000000000000e+00,-1.000000000000000000e+00,-2.000000000000000000e+00,-3.000000000000000000e+00,-2.000000000000000000e+00,-3.699951171875000000e-01,-3.364868164062500000e-01,6.944580078125000000e-01,5.173339843750000000e-01,-1.674804687500000000e-01,-8.701171875000000000e-01,5.141601562500000000e-01,1.437500000000000000e+00,-1.250000000000000000e-01,1.000000000000000000e+00
7.150000000000005240e-01,-2.000000000000000000e+00,-3.000000000000000000e+00,3.000000000000000000e+00,-4.000000000000000000e+00,1.000000000000000000e+00,-2.000000000000000000e+00,-1.000000000000000000e+00,-3.000000000000000000e+00,-3.698120117187500000e-01,-3.360595703125000000e-01,6.947021484375000000e-01,5.173339843750000000e-01,-1.723632812500000000e-01,-8.569335937500000000e-01,5.097656250000000000e-01,2.250000000000000000e+00,0.000000000000000000e+00,9.375000000000000000e-01
7.200000000000005285e-01,0.000000000000000000e+00,0.000000000000000000e+00,-1.000000000000000000e+00,0.000000000000000000e+00,0.000000000000000000e+00,1.000000000000000000e+00,1.000000000000000000e+00,1.000000000000000000e+00,-3.698120117187500000e-01,-3.360595703125000000e-01,6.947021484375000000e-01,5.173339843750000000e-01,-1.723632812500000000e-01,-8.569335937500000000e-01,5.097656250000000000e-01,2.250000000000000000e+00,0.000000000000000000e+00,9.375000000000000000e-01
7.250000000000005329e-01,-1.000000000000000000e+00,0.000000000000000000e+00,-1.000000000000000000e+00,-1.000000000000000000e+00,2.000000000000000000e+00,3.000000000000000000e+00,2.000000000000000000e+00,0.000000000000000000e+00,-3.698120117187500000e-01,-3.360595703125000000e-01,6.947021484375000000e-01,5.173339843750000000e-01,-1.723632812500000000e-01,-8.569335937500000000e-01,5.097656250000000000e-01,2.250000000000000000e+00,0.000000000000000000e+00,9.375000000000000000e-01
7.300000000000005373e-01,-1.000000000000000000e+00,0.000000000000000000e+00,-1.000000000000000000e+00,-1.000000000000000000e+00,2.000000000000000000e+00,3.000000000000000000e+00,2.000000000000000000e+00,0.000000000000000000e+00,-3.698120117187500000e-01,-3.360595703125000000e-01,6.947021484375000000e-01,5.173339843750000000e-01,-1.723632812500000000e-01,-8.569335937500000000e-01,5.097656250000000000e-01,2.250000000000000000e+00,0.000000000000000000e+00,9.375000000000000000e-01
7.350000000000005418e-01,0.000000000000000000e+00,-1.000000000000000000e+00,-1.000000000000000000e+00,-2.000000000000000000e+00,-4.000000000000000000e+00,-2.000000000000000000e+00,0.000000000000000000e+00,-3.000000000000000000e+00,-3.696899414062500000e-01,-3.358154296875000000e-01,6.948242187500000000e-01,5.173950195312500000e-01,-1.704101562500000000e-01,-8.515625000000000000e-01,5.102539062500000000e-01,1.125000000000000000e+00,-6.250000000000000000e-02,6.250000000000000000e-02
7.400000000000005462e-01,0.000000000000000000e+00,-1.000000000000000000e+00,-1.000000000000000000e+00,-2.000000000000000000e+00,-4.000000000000000000e+00,-2.000000000000000000e+00,0.000000000000000000e+00,-3.000000000000000000e+00,-3.696899414062500000e-01,-3.358154296875000000e-01,6.948242187500000000e-01,5.173950195312500000e-01,-1.704101562500000000e-01,-8.515625000000000000e-01,5.102539062500000000e-01,1.125000000000000000e+00,-6.250000000000000000e-02,6.250000000000000000e-02
7.450000000000005507e-01,0.000000000000000000e+00,-1.000000000000000000e+00,-1.000000000000000000e+00,-2.000000000000000000e+00,-4.000000000000000000e+00,-2.000000000000000000e+00,0.000000000000000000e+00,-3.000000000000000000e+00,-3.696899414062500000e-01,-3.358154296875000000e-01,6.948242187500000000e-01,5.173950195312500000e-01,-1.704101562500000000e-01,-8.515625000000000000e-01,5.102539062500000000e-01,1.125000000000000000e+00,-6.250000000000000000e-02,6.250000000000000000e-02
7.500000000000005551e-01,0.000000000000000000e+00,-1.000000000000000000e+00,-1.000000000000000000e+00,-2.000000000000000000e+00,-4.000000000000000000e+00,-2.000000000000000000e+00,0.000000000000000000e+00,-3.000000000000000000e+00,-3.696899414062500000e-01,-3.358154296875000000e-01,6.948242187500000000e-01,5.173950195312500000e-01,-1.704101562500000000e-01,-8.515625000000000000e-01,5.102539062500000000e-01,1.125000000000000000e+00,-6.250000000000000000e-02,6.250000000000000000e-02
7.550000000000005596e-01,-1.000000000000000000e+00,-1.000000000000000000e+00,-3.000000000000000000e+00,-1.000000000000000000e+00,-6.000000000000000000e+00,-4.000000000000000000e+00,-2.000000000000000000e+00,-1.000000000000000000e+00,-3.696899414062500000e-01,-3.358764648437500000e-01,6.948242187500000000e-01,5.173950195312500000e-01,-1.645507812500000000e-01,-8.671875000000000000e-01,5.107421875000000000e-01,5.000000000000000000e-01,-3.750000000000000000e-01,-5.625000000000000000e-01
7.600000000000005640e-01,-1.000000000000000000e+00,-2.000000000000000000e+00,-4.000000000000000000e+00,-2.000000000000000000e+00,2.000000000000000000e+00,-2.000000000000000000e+00,-2.000000000000000000e+00,2.000000000000000000e+00,-3.696899414062500000e-01,-3.358764648437500000e-01,6.948242187500000000e-01,5.173950195312500000e-01,-1.645507812500000000e-01,-8.671875000000000000e-01,5.107421875000000000e-01,5.000000000000000000e-01,-3.750000000000000000e-01,-5.625000000000000000e-01
7.650000000000005684e-01,-1.000000000000000000e+00,-2.000000000000000000e+00,-4.000000000000000000e+00,-2.000000000000000000e+00,2.000000000000000000e+00,-2.000000000000000000e+00,-2.000000000000000000e+00,2.000000000000000000e+00,-3.696899414062500000e-01,-3.358764648437500000e-01,6.948242187500000000e-01,5.173950195312500000e-01,-1.645507812500000000e-01,-8.671875000000000000e-01,5.107421875000000000e-01,5.000000000000000000e-01,-3.750000000000000000e-01,-5.625000000000000000e-01
7.700000000000005729e-01,-2.000000000000000000e+00,1.000000000000000000e+00,0.000000000000000000e+00,-1.000000000000000000e+00,0.000000000000000000e+00,-1.000000000000000000e+00,-1.000000000000000000e+00,1.000000000000000000e+00,-3.696899414062500000e-01,-3.358764648437500000e-01,6.948242187500000000e-01,5.173950195312500000e-01,-1.645507812500000000e-01,-8.671875000000000000e-01,5.107421875000000000e-01,5.000000000000000000e-01,-3.750000000000000000e-01,-5.625000000000000000e-01
7.750000000000005773e-01,-2.000000000000000000e+00,1.000000000000000000e+00,0.000000000000000000e+00,-1.000000000000000000e+00,0.000000000000000000e+00,-1.000000000000000000e+00,-1.000000000000000000e+00,1.000000000000000000e+00,-3.696899414062500000e-01,-3.358764648437500000e-01,6.948242187500000000e-01,5.173950195312500000e-01,-1.645507812500000000e-01,-8.671875000000000000e-01,5.107421875000000000e-01,5.000000000000000000e-01,-3.750000000000000000e-01,-5.625000000000000000e-01
7.800000000000005818e-01,-1.000000000000000000e+00,-1.000000000000000000e+00,6.000000000000000000e+00,2.000000000000000000e+00,-2.000000000000000000e+00,1.000000000000000000e+00,0.000000000000000000e+00,0.000000000000000000e+00,-3.697509765625000000e-01,-3.359375000000000000e-01,6.946411132812500000e-01,5.175781250000000000e-01,-1.660156250000000000e-01,-8.759765625000000000e-01,5.024414062500000000e-01,2.500000000000000000e-01,6.875000000000000000e-01,-1.125000000000000000e+00
7.850000000000005862e-01,-1.000000000000000000e+00,-1.000000000000000000e+00,6.000000000000000000e+00,2.000000000000000000e+00,-2.000000000000000000e+00,1.000000000000000000e+00,0.000000000000000000e+00,0.000000000000000000e+00,-3.697509765625000000e-01,-3.359375000000000000e-01,6.946411132812500000e-01,5.175781250000000000e-01,-1.660156250000000000e-01,-8.759765625000000000e-01,5.024414062500000000e-01,2.500000000000000000e-01,6.875000000000000000e-01,-1.125000000000000000e+00
7.900000000000005906e-01,-1.000000000000000000e+00,-5.000000000000000000e+00,-2.000000000000000000e+00,5.000000000000000000e+00,8.000000000000000000e+00,5.000000000000000000e+00,0.000000000000000000e+00,0.000000000000000000e+00,-3.697509765625000000e-01,-3.359375000000000000e-01,6.946411132812500000e-01,5.175781250000000000e-01,-1.660156250000000000e-01,-8.759765625000000000e-01,5.024414062500000000e-01,2.500000000000000000e-01,6.875000000000000000e-01,-1.125000000000000000e+00
7.950000000000005951e-01,-1.000000000000000000e+00,-5.000000000000000000e+00,-2.000000000000000000e+00,5.000000000000000000e+00,8.000000000000000000e+00,5.000000000000000000e+00,0.000000000000000000e+00,0.000000000000000000e+00,-3.697509765625000000e-01,-3.359375000000000000e-01,6.946411132812500000e-01,5.175781250000000000e-01,-1.660156250000000000e-01,-8.759765625000000000e-01,5.024414062500000000e-01,2.500000000000000000e-01,6.875000000000000000e-01,-1.125000000000000000e+00
8.000000000000005995e-01,-1.000000000000000000e+00,-1.000000000000000000e+00,1.000000000000000000e+00,-3.000000000000000000e+00,2.000000000000000000e+00,-1.000000000000000000e+00,-3.000000000000000000e+00,-1.000000000000000000e+00,-3.697509765625000000e-01,-3.360595703125000000e-01,6.943359375000000000e-01,5.178833007812500000e-01,-1.684570312500000000e-01,-8.706054687500000000e-01,5.097656250000000000e-01,-1.250000000000000000e-01,6.875000000000000000e-01,-2.250000000000000000e+00
8.050000000000006040e-01,-1.000000000000000000e+00,-1.000000000000000000e+00,1.000000000000000000e+00,-3.000000000000000000e+00,2.000000000000000000e+00,-1.000000000000000000e+00,-3.000000000000000000e+00,-1.000000000000000000e+00,-3.697509765625000000e-01,-3.360595703125000000e-01,6.943359375000000000e-01,5.178833007812500000e-01,-1.684570312500000000e-01,-8.706054687500000000e-01,5.097656250000000000e-01,-1.250000000000000000e-01,6.875000000000000000e-01,-2.250000000000000000e+00
8.100000000000006084e-01,-1.000000000000000000e+00,-1.000000000000000000e+00,1.000000000000000000e+00,-3.000000000000000000e+00,2.000000000000000000e+00,-1.000000000000000000e+00,-3.000000000000000000e+00,-1.000000000000000000e+00,-3.697509765625000000e-01,-3.360595703125000000e-01,6.943359375000000000e-01,5.178833007812500000e-01,-1.684570312500000000e-01,-8.706054687500000000e-01,5.097656250000000000e-01,-1.250000000000000000e-01,6.875000000000000000e-01,-2.250000000000000000e+00
8.150000000000006128e-01,-1.000000000000000000e+00,-1.000000000000000000e+00,1.000000000000000000e+00,-3.000000000000000000e+00,2.000000000000000000e+00,-1.000000000000000000e+00,-3.000000000000000000e+00,-1.000000000000000000e+00,-3.697509765625000000e-01,-3.360595703125000000e-01,6.943359375000000000e-01,5.178833007812500000e-01,-1.684570312500000000e-01,-8.706054687500000000e-01,5.097656250000000000e-01,-1.250000000000000000e-01,6.875000000000000000e-01,-2.250000000000000000e+00
8.200000000000006173e-01,-1.000000000000000000e+00,-1.000000000000000000e+00,9.000000000000000000e+00,2.000000000000000000e+00,-3.000000000000000000e+00,-5.000000000000000000e+00,-2.000000000000000000e+00,-3.000000000000000000e+00,-3.696899414062500000e-01,-3.361206054687500000e-01,6.942749023437500000e-01,5.180053710937500000e-01,-1.713867187500000000e-01,-8.657226562500000000e-01,5.039062500000000000e-01,3.125000000000000000e-01,-2.500000000000000000e-01,-1.125000000000000000e+00
8.250000000000006217e-01,-1.000000000000000000e+00,-4.000000000000000000e+00,-6.000000000000000000e+00,-6.000000000000000000e+00,-6.000000000000000000e+00,-5.000000000000000000e+00,-6.000000000000000000e+00,-2.000000000000000000e+00,-3.696899414062500000e-01,-3.361206054687500000e-01,6.942749023437500000e-01,5.180053710937500000e-01,-1.713867187500000000e-01,-8.657226562500000000e-01,5.039062500000000000e-01,3.125000000000000000e-01,-2.500000000000000000e-01,-1.125000000000000000e+00
8.300000000000006262e-01,-1.000000000000000000e+00,-4.000000000000000000e+00,-6.000000000000000000e+00,-6.000000000000000000e+00,-6.000000000000000000e+00,-5.000000000000000000e+00,-6.000000000000000000e+00,-2.000000000000000000e+00,-3.696899414062500000e-01,-3.361206054687500000e-01,6.942749023437500000e-01,5.180053710937500000e-01,-1.713867187500000000e-01,-8.657226562500000000e-01,5.039062500000000000e-01,3.125000000000000000e-01,-2.500000000000000000e-01,-1.125000000000000000e+00
8.350000000000006306e-01,-1.000000000000000000e+00,-4.000000000000000000e+00,-6.000000000000000000e+00,-6.000000000000000000e+00,-6.000000000000000000e+00,-5.000000000000000000e+00,-6.000000000000000000e+00,-2.000000000000000000e+00,-3.696899414062500000e-01,-3.361206054687500000e-01,6.942749023437500000e-01,5.180053710937500000e-01,-1.713867187500000000e-01,-8.657226562500000000e-01,5.039062500000000000e-01,3.125000000000000000e-01,-2.500000000000000000e-01,-1.125000000000000000e+00
8.400000000000006350e-01,0.000000000000000000e+00,0.000000000000000000e+00,-3.000000000000000000e+00,3.000000000000000000e+00,1.000000000000000000e+00,-1.000000000000000000e+00,-3.000000000000000000e+00,0.000000000000000000e+00,-3.696899414062500000e-01,-3.361206054687500000e-01,6.942749023437500000e-01,5.180053710937500000e-01,-1.713867187500000000e-01,-8.657226562500000000e-01,5.039062500000000000e-01,3.125000000000000000e-01,-2.500000000000000000e-01,-1.125000000000000000e+00
8.450000000000006395e-01,0.000000000000000000e+00,0.000000000000000000e+00,-3.000000000000000000e+00,3.000000000000000000e+00,1.000000000000000000e+00,-1.000000000000000000e+00,-3.000000000000000000e+00,0.000000000000000000e+00,-3.696899414062500000e-01,-3.361816406250000000e-01,6.942749023437500000e-01,5.179443359375000000e-01,-1.699218750000000000e-01,-8.818359375000000000e-01,4.902343750000000000e-01,-6.875000000000000000e-01,-4.375000000000000000e-01,-5.000000000000000000e-01
8.500000000000006439e-01,1.000000000000000000e+00,1.000000000000000000e+00,-2.000000000000000000e+00,3.000000000000000000e+00,0.000000000000000000e+00,1.000000000000000000e+00,1.000000000000000000e+00,-2.000000000000000000e+00,-3.696899414062500000e-01,-3.361816406250000000e-01,6.942749023437500000e-01,5.179443359375000000e-01,-1.699218750000000000e-01,-8.818359375000000000e-01,4.902343750000000000e-01,-6.875000000000000000e-01,-4.375000000000000000e-01,-5.000000000000000000e-01
8.550000000000006484e-01,-2.000000000000000000e+00,0.000000000000000000e+00,-1.000000000000000000e+00,-1.000000000000000000e+00,-2.000000000000000000e+00,-1.000000000000000000e+00,0.000000000000000000e+00,-1.000000000000000000e+00,-3.696899414062500000e-01,-3.361816406250000000e-01,6.942749023437500000e-01,5.179443359375000000e-01,-1.699218750000000000e-01,-8.818359375000000000e-01,4.902343750000000000e-01,-6.875000000000000000e-01,-4.375000000000000000e-01,-5.000000000000000000e-01
8.600000000000006528e-01,-2.000000000000000000e+00,0.000000000000000000e+00,-1.000000000000000000e+00,-1.000000000000000000e+00,-2.000000000000000000e+00,-1.000000000000000000e+00,0.000000000000000000e+00,-1.000000000000000000e+00,-3.696899414062500000e-01,-3.361816406250000000e-01,6.942749023437500000e-01,5.179443359375000000e-01,-1.699218750000000000e-01,-8.818359375000000000e-01,4.902343750000000000e-01,-6.875000000000000000e-01,-4.375000000000000000e-01,-5.000000000000000000e-01
8.650000000000006573e-01,-1.000000000000000000e+00,-1.000000000000000000e+00,-5.000000000000000000e+00,-1.000000000000000000e+00,-1.000000000000000000e+00,0.000000000000000000e+00,-2.000000000000000000e+00,1.000000000000000000e+00,-3.696899414062500000e-01,-3.361816406250000000e-01,6.942749023437500000e-01,5.179443359375000000e-01,-1.699218750000000000e-01,-8.818359375000000000e-01,4.902343750000000000e-01,-6.875000000000000000e-01,-4.375000000000000000e-01,-5.000000000000000000e-01
8.700000000000006617e-01,-1.000000000000000000e+00,-1.000000000000000000e+00,-5.000000000000000000e+00,-1.000000000000000000e+00,-1.000000000000000000e+00,0.000000000000000000e+00,-2.000000000000000000e+00,1.000000000000000000e+00,-3.693847656250000000e-01,-3.361206054687500000e-01,6.943969726562500000e-01,5.180664062500000000e-01,-1.674804687500000000e-01,-8.642578125000000000e-01,5.053710937500000000e-01,1.812500000000000000e+00,-1.375000000000000000e+00,-5.625000000000000000e-01
8.750000000000006661e-01,0.000000000000000000e+00,-1.000000000000000000e+00,-2.000000000000000000e+00,-2.000000000000000000e+00,-2.000000000000000000e+00,1.000000000000000000e+00,-2.000000000000000000e+00,1.000000000000000000e+00,-3.693847656250000000e-01,-3.361206054687500000e-01,6.943969726562500000e-01,5.180664062500000000e-01,-1.674804687500000000e-01,-8.642578125000000000e-01,5.053710937500000000e-01,1.812500000000000000e+00,-1.375000000000000000e+00,-5.625000000000000000e-01
8.800000000000006706e-01,0.000000000000000000e+00,-1.000000000000000000e+00,-2.000000000000000000e+00,-2.000000000000000000e+00,-2.000000000000000000e+00,1.000000000000000000e+00,-2.000000000000000000e+00,1.000000000000000000e+00,-3.693847656250000000e-01,-3.361206054687500000e-01,6.943969726562500000e-01,5.180664062500000000e-01,-1.674804687500000000e-01,-8.642578125000000000e-01,5.053710937500000000e-01,1.812500000000000000e+00,-1.375000000000000000e+00,-5.625000000000000000e-01
8.850000000000006750e-01,0.000000000000000000e+00,-1.000000000000000000e+00,-2.000000000000000000e+00,-2.000000000000000000e+00,-2.000000000000000000e+00,1.000000000000000000e+00,-2.000000000000000000e+00,1.000000000000000000e+00,-3.693847656250000000e-01,-3.361206054687500000e-01,6.943969726562500000e-01,5.180664062500000000e-01,-1.674804687500000000e-01,-8.642578125000000000e-01,5.053710937500000000e-01,1.812500000000000000e+00,-1.375000000000000000e+00,-5.625000000000000000e-01
8.900000000000006795e-01,0.000000000000000000e+00,-1.000000000000000000e+00,-2.000000000000000000e+00,-2.000000000000000000e+00,-2.000000000000000000e+00,1.000000000000000000e+00,-2.000000000000000000e+00,1.000000000000000000e+00,-3.693847656250000000e-01,-3.361206054687500000e-01,6.943969726562500000e-01,5.180664062500000000e-01,-1.674804687500000000e-01,-8.642578125000000000e-01,5.053710937500000000e-01,1.812500000000000000e+00,-1.375000000000000000e+00,-5.625000000000000000e-01
8.950000000000006839e-01,0.000000000000000000e+00,-1.000000000000000000e+00,-6.000000000000000000e+00,-2.000000000000000000e+00,-1.000000000000000000e+00,-1.000000000000000000e+00,-2.000000000000000000e+00,0.000000000000000000e+00,-3.693847656250000000e-01,-3.361206054687500000e-01,6.943969726562500000e-01,5.180664062500000000e-01,-1.674804687500000000e-01,-8.642578125000000000e-01,5.053710937500000000e-01,1.812500000000000000e+00,-1.375000000000000000e+00,-5.625000000000000000e-01
9.000000000000006883e-01,-2.000000000000000000e+00,-4.000000000000000000e+00,0.000000000000000000e+00,-2.000000000000000000e+00,0.000000000000000000e+00,-3.000000000000000000e+00,1.000000000000000000e+00,-4.000000000000000000e+00,-3.689575195312500000e-01,-3.359375000000000000e-01,6.947021484375000000e-01,5.180664062500000000e-01,-1.674804687500000000e-01,-8.579101562500000000e-01,5.092773437500000000e-01,2.500000000000000000e+00,-1.687500000000000000e+00,3.125000000000000000e-01
9.050000000000008038e-01,-2.000000000000000000e+00,-4.000000000000000000e+00,0.000000000000000000e+00,-2.000000000000000000e+00,0.000000000000000000e+00,-3.000000000000000000e+00,1.000000000000000000e+00,-4.000000000000000000e+00,-3.689575195312500000e-01,-3.359375000000000000e-01,6.947021484375000000e-01,5.180664062500000000e-01,-1.674804687500000000e-01,-8.579101562500000000e-01,5.092773437500000000e-01,2.500000000000000000e+00,-1.687500000000000000e+00,3.125000000000000000e-01
9.100000000000008082e-01,-2.000000000000000000e+00,-4.000000000000000000e+00,0.000000000000000000e+00,-2.000000000000000000e+00,0.000000000000000000e+00,-3.000000000000000000e+00,1.000000000000000000e+00,-4.000000000000000000e+00,-3.689575195312500000e-01,-3.359375000000000000e-01,6.947021484375000000e-01,5.180664062500000000e-01,-1.674804687500000000e-01,-8.579101562500000000e-01,5.092773437500000000e-01,2.500000000000000000e+00,-1.687500000000000000e+00,3.125000000000000000e-01
9.150000000000008127e-01,-2.000000000000000000e+00,0.000000000000000000e+00,-1.000000000000000000e+00,0.000000000000000000e+00,1.000000000000000000e+00,0.000000000000000000e+00,-1.000000000000000000e+00,0.000000000000000000e+00,-3.687744140625000000e-01,-3.360595703125000000e-01,6.947631835937500000e-01,5.180664062500000000e-01,-1.606445312500000000e-01,-8.442382812500000000e-01,5.146484375000000000e-01,-9.375000000000000000e-01,-1.125000000000000000e+00,-2.500000000000000000e-01
9.200000000000008171e-01,-2.000000000000000000e+00,0.000000000000000000e+00,-1.000000000000000000e+00,0.000000000000000000e+00,1.000000000000000000e+00,0.000000000000000000e+00,-1.000000000000000000e+00,0.000000000000000000e+00,-3.687744140625000000e-01,-3.360595703125000000e-01,6.947631835937500000e-01,5.180664062500000000e-01,-1.606445312500000000e-01,-8.442382812500000000e-01,5.146484375000000000e-01,-9.375000000000000000e-01,-1.125000000000000000e+00,-2.500000000000000000e-01
9.250000000000008216e-01,-1.000000000000000000e+00,0.000000000000000000e+00,-5.000000000000000000e+00,0.000000000000000000e+00,-2.000000000000000000e+00,-2.000000000000000000e+00,0.000000000000000000e+00,-1.000000000000000000e+00,-3.687744140625000000e-01,-3.360595703125000000e-01,6.947631835937500000e-01,5.180664062500000000e-01,-1.606445312500000000e-01,-8.442382812500000000e-01,5.146484375000000000e-01,-9.375000000000000000e-01,-1.125000000000000000e+00,-2.500000000000000000e-01
9.300000000000008260e-01,-1.000000000000000000e+00,-1.000000000000000000e+00,0.000000000000000000e+00,-2.000000000000000000e+00,2.000000000000000000e+00,-2.000000000000000000e+00,1.000000000000000000e+00,-1.000000000000000000e+00,-3.687744140625000000e-01,-3.360595703125000000e-01,6.947631835937500000e-01,5.180664062500000000e-01,-1.606445312500000000e-01,-8.442382812500000000e-01,5.146484375000000000e-01,-9.375000000000000000e-01,-1.125000000000000000e+00,-2.500000000000000000e-01
9.350000000000008304e-01,-1.000000000000000000e+00,-1.000000000000000000e+00,0.000000000000000000e+00,-2.000000000000000000e+00,2.000000000000000000e+00,-2.000000000000000000e+00,1.000000000000000000e+00,-1.000000000000000000e+00,-3.687744140625000000e-01,-3.360595703125000000e-01,6.947631835937500000e-01,5.180664062500000000e-01,-1.606445312500000000e-01,-8.442382812500000000e-01,5.146484375000000000e-01,-9.375000000000000000e-01,-1.125000000000000000e+00,-2.500000000000000000e-01
9.400000000000008349e-01,-1.000000000000000000e+00,-1.000000000000000000e+00,0.000000000000000000e+00,-2.000000000000000000e+00,2.000000000000000000e+00,-2.000000000000000000e+00,1.000000000000000000e+00,-1.000000000000000000e+00,-3.687744140625000000e-01,-3.360595703125000000e-01,6.947631835937500000e-01,5.180664062500000000e-01,-1.606445312500000000e-01,-8.442382812500000000e-01,5.146484375000000000e-01,-9.375000000000000000e-01,-1.125000000000000000e+00,-2.500000000000000000e-01
9.450000000000008393e-01,-3.000000000000000000e+00,-3.000000000000000000e+00,2.000000000000000000e+00,0.000000000000000000e+00,-3.000000000000000000e+00,0.000000000000000000e+00,-2.000000000000000000e+00,-1.000000000000000000e+00,-3.687744140625000000e-01,-3.363647460937500000e-01,6.947021484375000000e-01,5.178833007812500000e-01,-1.640625000000000000e-01,-8.701171875000000000e-01,5.166015625000000000e-01,-2.062500000000000000e+00,-8.750000000000000000e-01,0.000000000000000000e+00
9.500000000000008438e-01,-3.000000000000000000e+00,-3.000000000000000000e+00,2.000000000000000000e+00,0.000000000000000000e+00,-3.000000000000000000e+00,0.000000000000000000e+00,-2.000000000000000000e+00,-1.000000000000000000e+00,-3.687744140625000000e-01,-3.363647460937500000e-01,6.947021484375000000e-01,5.178833007812500000e-01,-1.640625000000000000e-01,-8.701171875000000000e-01,5.166015625000000000e-01,-2.062500000000000000e+00,-8.750000000000000000e-01,0.000000000000000000e+00
9.550000000000008482e-01,-3.000000000000000000e+00,-3.000000000000000000e+00,2.000000000000000000e+00,0.000000000000000000e+00,-3.000000000000000000e+00,0.000000000000000000e+00,-2.000000000000000000e+00,-1.000000000000000000e+00,-3.687744140625000000e-01,-3.363647460937500000e-01,6.947021484375000000e-01,5.178833007812500000e-01,-1.640625000000000000e-01,-8.701171875000000000e-01,5.166015625000000000e-01,-2.062500000000000000e+00,-8.750000000000000000e-01,0.000000000000000000e+00
9.600000000000008527e-01,-3.000000000000000000e+00,-1.000000000000000000e+00,-2.000000000000000000e+00,2.000000000000000000e+00,3.000000000000000000e+00,3.000000000000000000e+00,0.000000000000000000e+00,-2.000000000000000000e+00,-3.688354492187500000e-01,-3.366088867187500000e-01,6.945190429687500000e-01,5.179443359375000000e-01,-1.596679687500000000e-01,-8.793945312500000000e-01,5.180664062500000000e-01,-1.125000000000000000e+00,6.250000000000000000e-02,-3.750000000000000000e-01
9.650000000000007461e-01,-3.000000000000000000e+00,-1.000000000000000000e+00,-2.000000000000000000e+00,2.000000000000000000e+00,3.000000000000000000e+00,3.000000000000000000e+00,0.000000000000000000e+00,-2.000000000000000000e+00,-3.688354492187500000e-01,-3.366088867187500000e-01,6.945190429687500000e-01,5.179443359375000000e-01,-1.596679687500000000e-01,-8.793945312500000000e-01,5.180664062500000000e-01,-1.125000000000000000e+00,6.250000000000000000e-02,-3.750000000000000000e-01
9.700000000000007505e-01,1.000000000000000000e+00,-1.000000000000000000e+00,-3.000000000000000000e+00,0.000000000000000000e+00,-4.000000000000000000e+00,-6.000000000000000000e+00,-1.000000000000000000e+00,-1.000000000000000000e+00,-3.688354492187500000e-01,-3.366088867187500000e-01,6.945190429687500000e-01,5.179443359375000000e-01,-1.596679687500000000e-01,-8.793945312500000000e-01,5.180664062500000000e-01,-1.125000000000000000e+00,6.250000000000000000e-02,-3.750000000000000000e-01
9.750000000000007550e-01,1.000000000000000000e+00,-1.000000000000000000e+00,-3.000000000000000000e+00,0.000000000000000000e+00,-4.000000000000000000e+00,-6.000000000000000000e+00,-1.000000000000000000e+00,-1.000000000000000000e+00,-3.688354492187500000e-01,-3.366088867187500000e-01,6.945190429687500000e-01,5.179443359375000000e-01,-1.596679687500000000e-01,-8.793945312500000000e-01,5.180664062500000000e-01,-1.125000000000000000e+00,6.250000000000000000e-02,-3.750000000000000000e-01
9.800000000000007594e-01,1.000000000000000000e+00,-1.000000000000000000e+00,-3.000000000000000000e+00,0.000000000000000000e+00,-4.000000000000000000e+00,-6.000000000000000000e+00,-1.000000000000000000e+00,-1.000000000000000000e+00,-3.688354492187500000e-01,-3.366088867187500000e-01,6.945190429687500000e-01,5.179443359375000000e-01,-1.596679687500000000e-01,-8.793945312500000000e-01,5.180664062500000000e-01,-1.125000000000000000e+00,6.250000000000000000e-02,-3.750000000000000000e-01
9.850000000000007638e-01,1.000000000000000000e+00,-1.000000000000000000e+00,-3.000000000000000000e+00,0.000000000000000000e+00,-4.000000000000000000e+00,-6.000000000000000000e+00,-1.000000000000000000e+00,-1.000000000000000000e+00,-3.688354492187500000e-01,-3.366088867187500000e-01,6.945190429687500000e-01,5.179443359375000000e-01,-1.596679687500000000e-01,-8.793945312500000000e-01,5.180664062500000000e-01,-1.125000000000000000e+00,6.250000000000000000e-02,-3.750000000000000000e-01
9.900000000000007683e-01,-1.000000000000000000e+00,-2.000000000000000000e+00,0.000000000000000000e+00,-1.000000000000000000e+00,-4.000000000000000000e+00,-3.000000000000000000e+00,0.000000000000000000e+00,-2.000000000000000000e+00,-3.688354492187500000e-01,-3.366088867187500000e-01,6.945190429687500000e-01,5.179443359375000000e-01,-1.596679687500000000e-01,-8.793945312500000000e-01,5.180664062500000000e-01,-1.125000000000000000e+00,6.250000000000000000e-02,-3.750000000000000000e-01
9.950000000000007727e-01,-1.000000000000000000e+00,-2.000000000000000000e+00,0.000000000000000000e+00,-1.000000000000000000e+00,-4.000000000000000000e+00,-3.000000000000000000e+00,0.000000000000000000e+00,-2.000000000000000000e+00,-3.687133789062500000e-01,-3.364257812500000000e-01,6.945190429687500000e-01,5.181884765625000000e-01,-1.625976562500000000e-01,-8.662109375000000000e-01,5.117187500000000000e-01,1.437500000000000000e+00,7.500000000000000000e-01,-8.125000000000000000e-01
1.000000000000000888e+00,-3.000000000000000000e+00,-1.000000000000000000e+00,1.000000000000000000e+00,-4.000000000000000000e+00,-4.000000000000000000e+00,-6.000000000000000000e+00,-3.000000000000000000e+00,-2.000000000000000000e+00,-3.687133789062500000e-01,-3.364257812500000000e-01,6.945190429687500000e-01,5.181884765625000000e-01,-1.625976562500000000e-01,-8.662109375000000000e-01,5.117187500000000000e-01,1.437500000000000000e+00,7.500000000000000000e-01,-8.125000000000000000e-01
1.005000000000000560e+00,-3.000000000000000000e+00,-1.000000000000000000e+00,1.000000000000000000e+00,-4.000000000000000000e+00,-4.000000000000000000e+00,-6.000000000000000000e+00,-3.000000000000000000e+00,-2.000000000000000000e+00,-3.687133789062500000e-01,-3.364257812500000000e-01,6.945190429687500000e-01,5.181884765625000000e-01,-1.625976562500000000e-01,-8.662109375000000000e-01,5.117187500000000000e-01,1.437500000000000000e+00,7.500000000000000000e-01,-8.125000000000000000e-01
1.010000000000000453e+00,0.000000000000000000e+00,-2.000000000000000000e+00,1.000000000000000000e+00,-2.000000000000000000e+00,5.000000000000000000e+00,8.000000000000000000e+00,2.000000000000000000e+00,-2.000000000000000000e+00,-3.687133789062500000e-01,-3.364257812500000000e-01,6.945190429687500000e-01,5.181884765625000000e-01,-1.625976562500000000e-01,-8.662109375000000000e-01,5.117187500000000000e-01,1.437500000000000000e+00,7.500000000000000000e-01,-8.125000000000000000e-01
1.015000000000000346e+00,0.000000000000000000e+00,-2.000000000000000000e+00,1.000000000000000000e+00,-2.000000000000000000e+00,5.000000000000000000e+00,8.000000000000000000e+00,2.000000000000000000e+00,-2.000000000000000000e+00,-3.687133789062500000e-01,-3.364257812500000000e-01,6.945190429687500000e-01,5.181884765625000000e-01,-1.625976562500000000e-01,-8.662109375000000000e-01,5.117187500000000000e-01,1.437500000000000000e+00,7.500000000000000000e-01,-8.125000000000000000e-01
1.020000000000000240e+00,0.000000000000000000e+00,1.000000000000000000e+00,-9.000000000000000000e+00,-4.000000000000000000e+00,-4.000000000000000000e+00,1.000000000000000000e+00,-4.000000000000000000e+00,-1.000000000000000000e+00,-3.687133789062500000e-01,-3.364257812500000000e-01,6.944580078125000000e-01,5.181884765625000000e-01,-1.699218750000000000e-01,-8.759765625000000000e-01,5.014648437500000000e-01,-8.125000000000000000e-01,9.375000000000000000e-01,-9.375000000000000000e-01
1.024999999999999911e+00,0.000000000000000000e+00,1.000000000000000000e+00,-9.000000000000000000e+00,-4.000000000000000000e+00,-4.000000000000000000e+00,1.000000000000000000e+00,-4.000000000000000000e+00,-1.000000000000000000e+00,-3.687133789062500000e-01,-3.364257812500000000e-01,6.944580078125000000e-01,5.181884765625000000e-01,-1.699218750000000000e-01,-8.759765625000000000e-01,5.014648437500000000e-01,-8.125000000000000000e-01,9.375000000000000000e-01,-9.375000000000000000e-01
1.030000000000000027e+00,0.000000000000000000e+00,1.000000000000000000e+00,-9.000000000000000000e+00,-4.000000000000000000e+00,-4.000000000000000000e+00,1.000000000000000000e+00,-4.000000000000000000e+00,-1.000000000000000000e+00,-3.687133789062500000e-01,-3.364257812500000000e-01,6.944580078125000000e-01,5.181884765625000000e-01,-1.699218750000000000e-01,-8.759765625000000000e-01,5.014648437500000000e-01,-8.125000000000000000e-01,9.375000000000000000e-01,-9.375000000000000000e-01
1.034999999999999920e+00,0.000000000000000000e+00,1.000000000000000000e+00,-9.000000000000000000e+00,-4.000000000000000000e+00,-4.000000000000000000e+00,1.000000000000000000e+00,-4.000000000000000000e+00,-1.000000000000000000e+00,-3.687133789062500000e-01,-3.364257812500000000e-01,6.944580078125000000e-01,5.181884765625000000e-01,-1.699218750000000000e-01,-8.759765625000000000e-01,5.014648437500000000e-01,-8.125000000000000000e-01,9.375000000000000000e-01,-9.375000000000000000e-01
1.039999999999999813e+00,-2.000000000000000000e+00,0.000000000000000000e+00,1.000000000000000000e+00,-1.000000000000000000e+00,0.000000000000000000e+00,0.000000000000000000e+00,0.000000000000000000e+00,1.000000000000000000e+00,-3.688964843750000000e-01,-3.368530273437500000e-01,6.942138671875000000e-01,5.181274414062500000e-01,-1.655273437500000000e-01,-8.691406250000000000e-01,5.014648437500000000e-01,-2.437500000000000000e+00,0.000000000000000000e+00,-1.187500000000000000e+00
1.044999999999999707e+00,-2.000000000000000000e+00,0.000000000000000000e+00,1.000000000000000000e+00,-1.000000000000000000e+00,0.000000000000000000e+00,0.000000000000000000e+00,0.000000000000000000e+00,1.000000000000000000e+00,-3.688964843750000000e-01,-3.368530273437500000e-01,6.942138671875000000e-01,5.181274414062500000e-01,-1.655273437500000000e-01,-8.691406250000000000e-01,5.014648437500000000e-01,-2.437500000000000000e+00,0.000000000000000000e+00,-1.187500000000000000e+00
1.049999999999999600e+00,0.000000000000000000e+00,0.000000000000000000e+00,0.000000000000000000e+00,2.000000000000000000e+00,4.000000000000000000e+00,1.000000000000000000e+00,-1.000000000000000000e+00,0.000000000000000000e+00,-3.688964843750000000e-01,-3.368530273437500000e-01,6.942138671875000000e-01,5.181274414062500000e-01,-1.655273437500000000e-01,-8.691406250000000000e-01,5.014648437500000000e-01,-2.437500000000000000e+00,0.000000000000000000e+00,-1.187500000000000000e+00
1.054999999999999494e+00,0.000000000000000000e+00,0.000000000000000000e+00,0.000000000000000000e+00,2.000000000000000000e+00,4.000000000000000000e+00,1.000000000000000000e+00,-1.000000000000000000e+00,0.000000000000000000e+00,-3.688964843750000000e-01,-3.368530273437500000e-01,6.942138671875000000e-01,5.181274414062500000e-01,-1.655273437500000000e-01,-8.691406250000000000e-01,5.014648437500000000e-01,-2.437500000000000000e+00,0.000000000000000000e+00,-1.187500000000000000e+00
1.059999999999999387e+00,0.000000000000000000e+00,0.000000000000000000e+00,0.000000000000000000e+00,2.000000000000000000e+00,4.000000000000000000e+00,1.000000000000000000e+00,-1.000000000000000000e+00,0.000000000000000000e+00,-3.688964843750000000e-01,-3.368530273437500000e-01,6.942138671875000000e-01,5.181274414062500000e-01,-1.655273437500000000e-01,-8.691406250000000000e-01,5.014648437500000000e-01,-2.437500000000000000e+00,0.000000000000000000e+00,-1.187500000000000000e+00
1.064999999999999281e+00,0.000000000000000000e+00,0.000000000000000000e+00,0.000000000000000000e+00,2.000000000000000000e+00,4.000000000000000000e+00,1.000000000000000000e+00,-1.000000000000000000e+00,0.000000000000000000e+00,-3.688964843750000000e-01,-3.368530273437500000e-01,6.942138671875000000e-01,5.181274414062500000e-01,-1.655273437500000000e-01,-8.691406250000000000e-01,5.014648437500000000e-01,-2.437500000000000000e+00,0.000000000000000000e+00,-1.187500000000000000e+00
1.069999999999999174e+00,-3.000000000000000000e+00,-4.000000000000000000e+00,-8.000000000000000000e+00,-9.000000000000000000e+00,-7.000000000000000000e+00,-5.000000000000000000e+00,-1.000000000000000000e+00,0.000000000000000000e+00,-3.686523437500000000e-01,-3.369750976562500000e-01,6.941528320312500000e-01,5.183105468750000000e-01,-1.601562500000000000e-01,-8.720703125000000000e-01,5.000000000000000000e-01,1.375000000000000000e+00,-1.062500000000000000e+00,-1.062500000000000000e+00
1.074999999999999067e+00,-3.000000000000000000e+00,-4.000000000000000000e+00,-8.000000000000000000e+00,-9.000000000000000000e+00,-7.000000000000000000e+00,-5.000000000000000000e+00,-1.000000000000000000e+00,0.000000000000000000e+00,-3.686523437500000000e-01,-3.369750976562500000e-01,6.941528320312500000e-01,5.183105468750000000e-01,-1.601562500000000000e-01,-8.720703125000000000e-01,5.000000000000000000e-01,1.375000000000000000e+00,-1.062500000000000000e+00,-1.062500000000000000e+00
1.079999999999998961e+00,1.000000000000000000e+00,-1.000000000000000000e+00,0.000000000000000000e+00,3.000000000000000000e+00,2.000000000000000000e+00,-1.000000000000000000e+00,1.000000000000000000e+00,0.000000000000000000e+00,-3.686523437500000000e-01,-3.369750976562500000e-01,6.941528320312500000e-01,5.183105468750000000e-01,-1.601562500000000000e-01,-8.720703125000000000e-01,5.000000000000000000e-01,1.375000000000000000e+00,-1.062500000000000000e+00,-1.062500000000000000e+00
1.084999999999998854e+00,1.000000000000000000e+00,-1.000000000000000000e+00,0.000000000000000000e+00,3.000000000000000000e+00,2.000000000000000000e+00,-1.000000000000000000e+00,1.000000000000000000e+00,0.000000000000000000e+00,-3.686523437500000000e-01,-3.369750976562500000e-01,6.941528320312500000e-01,5.183105468750000000e-01,-1.601562500000000000e-01,-8.720703125000000000e-01,5.000000000000000000e-01,1.375000000000000000e+00,-1.062500000000000000e+00,-1.062500000000000000e+00
1.089999999999998748e+00,1.000000000000000000e+00,-1.000000000000000000e+00,0.000000000000000000e+00,3.000000000000000000e+00,2.000000000000000000e+00,-1.000000000000000000e+00,1.000000000000000000e+00,0.000000000000000000e+00,-3.686523437500000000e-01,-3.369750976562500000e-01,6.941528320312500000e-01,5.183105468750000000e-01,-1.601562500000000000e-01,-8.720703125000000000e-01,5.000000000000000000e-01,1.375000000000000000e+00,-1.062500000000000000e+00,-1.062500000000000000e+00
1.094999999999998641e+00,1.000000000000000000e+00,-1.000000000000000000e+00,0.000000000000000000e+00,3.000000000000000000e+00,2.000000000000000000e+00,-1.000000000000000000e+00,1.000000000000000000e+00,0.000000000000000000e+00,-3.686523437500000000e-01,-3.369750976562500000e-01,6.941528320312500000e-01,5.183105468750000000e-01,-1.601562500000000000e-01,-8.720703125000000000e-01,5.000000000000000000e-01,1.375000000000000000e+00,-1.062500000000000000e+00,-1.062500000000000000e+00
1.099999999999998312e+00,1.000000000000000000e+00,-1.000000000000000000e+00,0.000000000000000000e+00,3.000000000000000000e+00,2.000000000000000000e+00,-1.000000000000000000e+00,1.000000000000000000e+00,0.000000000000000000e+00,-3.686523437500000000e-01,-3.369750976562500000e-01,6.941528320312500000e-01,5.183105468750000000e-01,-1.601562500000000000e-01,-8.720703125000000000e-01,5.000000000000000000e-01,1.375000000000000000e+00,-1.062500000000000000e+00,-1.062500000000000000e+00
1.104999999999998428e+00,-1.000000000000000000e+00,0.000000000000000000e+00,-1.100000000000000000e+01,-8.000000000000000000e+00,0.000000000000000000e+00,-2.000000000000000000e+00,-1.000000000000000000e+00,0.000000000000000000e+00,-3.683471679687500000e-01,-3.370971679687500000e-01,6.942749023437500000e-01,5.183105468750000000e-01,-1.616210937500000000e-01,-8.588867187500000000e-01,5.009765625000000000e-01,1.250000000000000000e+00,-1.687500000000000000e+00,-6.250000000000000000e-01
1.109999999999998321e+00,-1.000000000000000000e+00,0.000000000000000000e+00,-1.100000000000000000e+01,-8.000000000000000000e+00,0.000000000000000000e+00,-2.000000000000000000e+00,-1.000000000000000000e+00,0.000000000000000000e+00,-3.683471679687500000e-01,-3.370971679687500000e-01,6.942749023437500000e-01,5.183105468750000000e-01,-1.616210937500000000e-01,-8.588867187500000000e-01,5.009765625000000000e-01,1.250000000000000000e+00,-1.687500000000000000e+00,-6.250000000000000000e-01
1.114999999999998215e+00,-1.000000000000000000e+00,0.000000000000000000e+00,-1.100000000000000000e+01,-8.000000000000000000e+00,0.000000000000000000e+00,-2.000000000000000000e+00,-1.000000000000000000e+00,0.000000000000000000e+00,-3.683471679687500000e-01,-3.370971679687500000e-01,6.942749023437500000e-01,5.183105468750000000e-01,-1.616210937500000000e-01,-8.588867187500000000e-01,5.009765625000000000e-01,1.250000000000000000e+00,-1.687500000000000000e+00,-6.250000000000000000e-01
1.119999999999998108e+00,-1.000000000000000000e+00,-2.000000000000000000e+00,1.000000000000000000e+00,1.000000000000000000e+00,-2.000000000000000000e+00,-1.000000000000000000e+00,-1.000000000000000000e+00,1.000000000000000000e+00,-3.683471679687500000e-01,-3.370971679687500000e-01,6.942749023437500000e-01,5.183105468750000000e-01,-1.616210937500000000e-01,-8.588867187500000000e-01,5.009765625000000000e-01,1.250000000000000000e+00,-1.687500000000000000e+00,-6.250000000000000000e-01
1.124999999999998002e+00,-1.000000000000000000e+00,-2.000000000000000000e+00,1.000000000000000000e+00,1.000000000000000000e+00,-2.000000000000000000e+00,-1.000000000000000000e+00,-1.000000000000000000e+00,1.000000000000000000e+00,-3.682861328125000000e-01,-3.370361328125000000e-01,6.942749023437500000e-01,5.183715820312500000e-01,-1.665039062500000000e-01,-8.500976562500000000e-01,5.156250000000000000e-01,-1.250000000000000000e-01,-1.000000000000000000e+00,-4.375000000000000000e-01
1.129999999999997895e+00,-1.000000000000000000e+00,-1.000000000000000000e+00,5.000000000000000000e+00,3.000000000000000000e+00,-2.000000000000000000e+00,2.000000000000000000e+00,-1.000000000000000000e+00,-1.000000000000000000e+00,-3.682861328125000000e-01,-3.370361328125000000e-01,6.942749023437500000e-01,5.183715820312500000e-01,-1.665039062500000000e-01,-8.500976562500000000e-01,5.156250000000000000e-01,-1.250000000000000000e-01,-1.000000000000000000e+00,-4.375000000000000000e-01
1.134999999999997788e+00,-1.000000000000000000e+00,-1.000000000000000000e+00,5.000000000000000000e+00,3.000000000000000000e+00,-2.000000000000000000e+00,2.000000000000000000e+00,-1.000000000000000000e+00,-1.000000000000000000e+00,-3.682861328125000000e-01,-3.370361328125000000e-01,6.942749023437500000e-01,5.183715820312500000e-01,-1.665039062500000000e-01,-8.500976562500000000e-01,5.156250000000000000e-01,-1.250000000000000000e-01,-1.000000000000000000e+00,-4.375000000000000000e-01
1.139999999999997682e+00,-1.000000000000000000e+00,-1.000000000000000000e+00,5.000000000000000000e+00,3.000000000000000000e+00,-2.000000000000000000e+00,2.000000000000000000e+00,-1.000000000000000000e+00,-1.000000000000000000e+00,-3.682861328125000000e-01,-3.370361328125000000e-01,6.942749023437500000e-01,5.183715820312500000e-01,-1.665039062500000000e-01,-8.500976562500000000e-01,5.156250000000000000e-01,-1.250000000000000000e-01,-1.000000000000000000e+00,-4.375000000000000000e-01
1.144999999999997575e+00,-1.000000000000000000e+00,-1.000000000000000000e+00,5.000000000000000000e+00,3.000000000000000000e+00,-2.000000000000000000e+00,2.000000000000000000e+00,-1.000000000000000000e+00,-1.000000000000000000e+00,-3.682861328125000000e-01,-3.370361328125000000e-01,6.942749023437500000e-01,5.183715820312500000e-01,-1.665039062500000000e-01,-8.500976562500000000e-01,5.156250000000000000e-01,-1.250000000000000000e-01,-1.000000000000000000e+00,-4.375000000000000000e-01
1.149999999999997691e+00,-3.000000000000000000e+00,-2.000000000000000000e+00,-2.000000000000000000e+00,-1.000000000000000000e+00,0.000000000000000000e+00,-3.000000000000000000e+00,-2.000000000000000000e+00,-2.000000000000000000e+00,-3.684082031250000000e-01,-3.371582031250000000e-01,6.942749023437500000e-01,5.182495117187500000e-01,-1.704101562500000000e-01,-8.652343750000000000e-01,5.131835937500000000e-01,-1.250000000000000000e+00,-1.250000000000000000e-01,-6.250000000000000000e-02
1.154999999999997362e+00,-3.000000000000000000e+00,-2.000000000000000000e+00,-2.000000000000000000e+00,-1.000000000000000000e+00,0.000000000000000000e+00,-3.000000000000000000e+00,-2.000000000000000000e+00,-2.000000000000000000e+00,-3.684082031250000000e-01,-3.371582031250000000e-01,6.942749023437500000e-01,5.182495117187500000e-01,-1.704101562500000000e-01,-8.652343750000000000e-01,5.131835937500000000e-01,-1.250000000000000000e+00,-1.250000000000000000e-01,-6.250000000000000000e-02
1.159999999999997256e+00,-1.000000000000000000e+00,-1.000000000000000000e+00,6.000000000000000000e+00,1.000000000000000000e+00,0.000000000000000000e+00,1.000000000000000000e+00,0.000000000000000000e+00,1.000000000000000000e+00,-3.684082031250000000e-01,-3.371582031250000000e-01,6.942749023437500000e-01,5.182495117187500000e-01,-1.704101562500000000e-01,-8.652343750000000000e-01,5.131835937500000000e-01,-1.250000000000000000e+00,-1.250000000000000000e-01,-6.250000000000000000e-02
1.164999999999997149e+00,-1.000000000000000000e+00,-1.000000000000000000e+00,6.000000000000000000e+00,1.000000000000000000e+00,0.000000000000000000e+00,1.000000000000000000e+00,0.000000000000000000e+00,1.000000000000000000e+00,-3.684082031250000000e-01,-3.371582031250000000e-01,6.942749023437500000e-01,5.182495117187500000e-01,-1.704101562500000000e-01,-8.652343750000000000e-01,5.131835937500000000e-01,-1.250000000000000000e+00,-1.250000000000000000e-01,-6.250000000000000000e-02
1.169999999999997042e+00,-1.000000000000000000e+00,-1.000000000000000000e+00,6.000000000000000000e+00,1.000000000000000000e+00,0.000000000000000000e+00,1.000000000000000000e+00,0.000000000000000000e+00,1.000000000000000000e+00,-3.684082031250000000e-01,-3.371582031250000000e-01,6.942749023437500000e-01,5.182495117187500000e-01,-1.704101562500000000e-01,-8.652343750000000000e-01,5.131835937500000000e-01,-1.250000000000000000e+00,-1.250000000000000000e-01,-6.250000000000000000e-02
1.174999999999996936e+00,-1.000000000000000000e+00,-1.000000000000000000e+00,6.000000000000000000e+00,1.000000000000000000e+00,0.000000000000000000e+00,1.000000000000000000e+00,0.000000000000000000e+00,1.000000000000000000e+00,-3.684082031250000000e-01,-3.371582031250000000e-01,6.942749023437500000e-01,5.182495117187500000e-01,-1.704101562500000000e-01,-8.652343750000000000e-01,5.131835937500000000e-01,-1.250000000000000000e+00,-1.250000000000000000e-01,-6.250000000000000000e-02
1.179999999999996829e+00,-3.000000000000000000e+00,-1.000000000000000000e+00,-3.000000000000000000e+00,-2.000000000000000000e+00,-1.000000000000000000e+00,-1.000000000000000000e+00,0.000000000000000000e+00,0.000000000000000000e+00,-3.684082031250000000e-01,-3.371582031250000000e-01,6.942749023437500000e-01,5.182495117187500000e-01,-1.606445312500000000e-01,-8.715820312500000000e-01,5.107421875000000000e-01,-9.375000000000000000e-01,3.750000000000000000e-01,-1.250000000000000000e-01
1.184999999999996723e+00,-3.000000000000000000e+00,-1.000000000000000000e+00,-3.000000000000000000e+00,-2.000000000000000000e+00,-1.000000000000000000e+00,-1.000000000000000000e+00,0.000000000000000000e+00,0.000000000000000000e+00,-3.684082031250000000e-01,-3.371582031250000000e-01,6.942749023437500000e-01,5.182495117187500000e-01,-1.606445312500000000e-01,-8.715820312500000000e-01,5.107421875000000000e-01,-9.375000000000000000e-01,3.750000000000000000e-01,-1.250000000000000000e-01
1.189999999999996616e+00,-3.000000000000000000e+00,-1.000000000000000000e+00,-3.000000000000000000e+00,-2.000000000000000000e+00,-1.000000000000000000e+00,-1.000000000000000000e+00,0.000000000000000000e+00,0.000000000000000000e+00,-3.684082031250000000e-01,-3.371582031250000000e-01,6.942749023437500000e-01,5.182495117187500000e-01,-1.606445312500000000e-01,-8.715820312500000000e-01,5.107421875000000000e-01,-9.375000000000000000e-01,3.750000000000000000e-01,-1.250000000000000000e-01
1.194999999999996509e+00,-3.000000000000000000e+00,-1.000000000000000000e+00,-3.000000000000000000e+00,-2.000000000000000000e+00,-1.000000000000000000e+00,-1.000000000000000000e+00,0.000000000000000000e+00,0.000000000000000000e+00,-3.684082031250000000e-01,-3.371582031250000000e-01,6.942749023437500000e-01,5.182495117187500000e-01,-1.606445312500000000e-01,-8.715820312500000000e-01,5.107421875000000000e-01,-9.375000000000000000e-01,3.750000000000000000e-01,-1.250000000000000000e-01
1.199999999999996403e+00,-3.000000000000000000e+00,-1.000000000000000000e+00,-3.000000000000000000e+00,-2.000000000000000000e+00,-1.000000000000000000e+00,-1.000000000000000000e+00,0.000000000000000000e+00,0.000000000000000000e+00,-3.684082031250000000e-01,-3.371582031250000000e-01,6.942749023437500000e-01,5.182495117187500000e-01,-1.606445312500000000e-01,-8.715820312500000000e-01,5.107421875000000000e-01,-9.375000000000000000e-01,3.750000000000000000e-01,-1.250000000000000000e-01
1.204999999999996296e+00,-1.000000000000000000e+00,-2.000000000000000000e+00,-1.000000000000000000e+00,2.000000000000000000e+00,0.000000000000000000e+00,-1.000000000000000000e+00,-3.000000000000000000e+00,-2.000000000000000000e+00,-3.684082031250000000e-01,-3.371582031250000000e-01,6.942138671875000000e-01,5.182495117187500000e-01,-1.596679687500000000e-01,-8.754882812500000000e-01,5.087890625000000000e-01,-3.750000000000000000e-01,6.250000000000000000e-01,6.250000000000000000e-02
1.209999999999996190e+00,-1.000000000000000000e+00,-2.000000000000000000e+00,8.000000000000000000e+00,4.000000000000000000e+00,1.000000000000000000e+00,1.000000000000000000e+00,1.000000000000000000e+00,-1.000000000000000000e+00,-3.684082031250000000e-01,-3.371582031250000000e-01,6.942138671875000000e-01,5.182495117187500000e-01,-1.596679687500000000e-01,-8.754882812500000000e-01,5.087890625000000000e-01,-3.750000000000000000e-01,6.250000000000000000e-01,6.250000000000000000e-02
1.214999999999996083e+00,-1.000000000000000000e+00,-2.000000000000000000e+00,8.000000000000000000e+00,4.000000000000000000e+00,1.000000000000000000e+00,1.000000000000000000e+00,1.000000000000000000e+00,-1.000000000000000000e+00,-3.684082031250000000e-01,-3.371582031250000000e-01,6.942138671875000000e-01,5.182495117187500000e-01,-1.596679687500000000e-01,-8.754882812500000000e-01,5.087890625000000000e-01,-3.750000000000000000e-01,6.250000000000000000e-01,6.250000000000000000e-02
1.219999999999995977e+00,-1.000000000000000000e+00,-2.000000000000000000e+00,8.000000000000000000e+00,4.000000000000000000e+00,1.000000000000000000e+00,1.000000000000000000e+00,1.000000000000000000e+00,-1.000000000000000000e+00,-3.684082031250000000e-01,-3.371582031250000000e-01,6.942138671875000000e-01,5.182495117187500000e-01,-1.596679687500000000e-01,-8.754882812500000000e-01,5.087890625000000000e-01,-3.750000000000000000e-01,6.250000000000000000e-01,6.250000000000000000e-02
1.224999999999996092e+00,-2.000000000000000000e+00,-1.000000000000000000e+00,1.500000000000000000e+01,-1.000000000000000000e+00,-2.000000000000000000e+00,-6.000000000000000000e+00,-1.000000000000000000e+00,-1.000000000000000000e+00,-3.684082031250000000e-01,-3.371582031250000000e-01,6.942138671875000000e-01,5.182495117187500000e-01,-1.596679687500000000e-01,-8.754882812500000000e-01,5.087890625000000000e-01,-3.750000000000000000e-01,6.250000000000000000e-01,6.250000000000000000e-02
1.229999999999995763e+00,-1.000000000000000000e+00,-1.000000000000000000e+00,4.000000000000000000e+00,-1.000000000000000000e+00,-3.000000000000000000e+00,-1.000000000000000000e+00,-2.000000000000000000e+00,-3.000000000000000000e+00,-3.683471679687500000e-01,-3.370361328125000000e-01,6.942138671875000000e-01,5.183715820312500000e-01,-1.601562500000000000e-01,-8.720703125000000000e-01,5.117187500000000000e-01,1.000000000000000000e+00,6.250000000000000000e-01,0.000000000000000000e+00
1.234999999999995657e+00,-1.000000000000000000e+00,-1.000000000000000000e+00,4.000000000000000000e+00,-1.000000000000000000e+00,-3.000000000000000000e+00,-1.000000000000000000e+00,-2.000000000000000000e+00,-3.000000000000000000e+00,-3.683471679687500000e-01,-3.370361328125000000e-01,6.942138671875000000e-01,5.183715820312500000e-01,-1.601562500000000000e-01,-8.720703125000000000e-01,5.117187500000000000e-01,1.000000000000000000e+00,6.250000000000000000e-01,0.000000000000000000e+00
1.239999999999995550e+00,-1.000000000000000000e+00,-1.000000000000000000e+00,4.000000000000000000e+00,-1.000000000000000000e+00,-3.000000000000000000e+00,-1.000000000000000000e+00,-2.000000000000000000e+00,-3.000000000000000000e+00,-3.683471679687500000e-01,-3.370361328125000000e-01,6.942138671875000000e-01,5.183715820312500000e-01,-1.601562500000000000e-01,-8.720703125000000000e-01,5.117187500000000000e-01,1.000000000000000000e+00,6.250000000000000000e-01,0.000000000000000000e+00
