0.005,1.0,2.0,6.0,-10.0,-1.0,-3.0,-1.0,-2.0,-0.39080810546875,-0.28631591796875,0.64013671875,0.59619140625,-0.16796875,-0.837890625,0.52587890625,1.75,3.1875,0.1875
0.01,1.0,2.0,6.0,-10.0,-1.0,-3.0,-1.0,-2.0,-0.39080810546875,-0.28631591796875,0.64013671875,0.59619140625,-0.16796875,-0.837890625,0.52587890625,1.75,3.1875,0.1875
0.015,0.0,2.0,32.0,9.0,-1.0,0.0,0.0,-1.0,-0.39154052734375,-0.28607177734375,0.639892578125,0.59619140625,-0.17431640625,-0.84765625,0.5234375,-1.25,3.375,0.125
0.02,0.0,2.0,32.0,9.0,-1.0,0.0,0.0,-1.0,-0.39154052734375,-0.28607177734375,0.639892578125,0.59619140625,-0.17431640625,-0.84765625,0.5234375,-1.25,3.375,0.125
0.025,-2.0,-2.0,5.0,2.0,-3.0,1.0,-1.0,-2.0,-0.39154052734375,-0.28607177734375,0.639892578125,0.59619140625,-0.17431640625,-0.84765625,0.5234375,-1.25,3.375,0.125
0.030000000000000002,-2.0,-2.0,5.0,2.0,-3.0,1.0,-1.0,-2.0,-0.39154052734375,-0.28607177734375,0.639892578125,0.59619140625,-0.17431640625,-0.84765625,0.5234375,-1.25,3.375,0.125
0.035,0.0,0.0,10.0,16.0,6.0,1.0,1.0,0.0,-0.39154052734375,-0.28607177734375,0.639892578125,0.59619140625,-0.17431640625,-0.84765625,0.5234375,-1.25,3.375,0.125
0.04,0.0,0.0,10.0,16.0,6.0,1.0,1.0,0.0,-0.39154052734375,-0.28607177734375,0.639892578125,0.59619140625,-0.17431640625,-0.84765625,0.5234375,-1.25,3.375,0.125
0.045,0.0,0.0,10.0,16.0,6.0,1.0,1.0,0.0,-0.39208984375,-0.285888671875,0.6395263671875,0.59625244140625,-0.1728515625,-0.85791015625,0.5224609375,-0.4375,2.75,-0.625
0.049999999999999996,-1.0,-2.0,-11.0,-6.0,-3.0,0.0,0.0,-2.0,-0.39208984375,-0.285888671875,0.6395263671875,0.59625244140625,-0.1728515625,-0.85791015625,0.5224609375,-0.4375,2.75,-0.625
0.05499999999999999,-1.0,-2.0,-11.0,-6.0,-3.0,0.0,0.0,-2.0,-0.39208984375,-0.285888671875,0.6395263671875,0.59625244140625,-0.1728515625,-0.85791015625,0.5224609375,-0.4375,2.75,-0.625
0.05999999999999999,-1.0,-2.0,-11.0,-6.0,-3.0,0.0,0.0,-2.0,-0.39208984375,-0.285888671875,0.6395263671875,0.59625244140625,-0.1728515625,-0.85791015625,0.5224609375,-0.4375,2.75,-0.625
0.06499999999999999,-1.0,-2.0,-11.0,-6.0,-3.0,0.0,0.0,-2.0,-0.39208984375,-0.285888671875,0.6395263671875,0.59625244140625,-0.1728515625,-0.85791015625,0.5224609375,-0.4375,2.75,-0.625
0.06999999999999999,-1.0,-2.0,-11.0,-6.0,-3.0,0.0,0.0,-2.0,-0.39208984375,-0.285888671875,0.6395263671875,0.59625244140625,-0.1728515625,-0.85791015625,0.5224609375,-0.4375,2.75,-0.625
0.075,-1.0,-2.0,-11.0,-6.0,-3.0,0.0,0.0,-2.0,-0.39208984375,-0.285888671875,0.6395263671875,0.59625244140625,-0.1728515625,-0.85791015625,0.5224609375,-0.4375,2.75,-0.625
0.08,-1.0,-2.0,11.0,-11.0,4.0,-1.0,-4.0,0.0,-0.3922119140625,-0.28558349609375,0.639404296875,0.59649658203125,-0.16552734375,-0.85205078125,0.53271484375,1.5,2.0625,-0.625
0.085,-1.0,-2.0,11.0,-11.0,4.0,-1.0,-4.0,0.0,-0.39227294921875,-0.285400390625,0.63916015625,0.59674072265625,-0.17236328125,-0.85107421875,0.53564453125,1.125,1.5625,-1.5
0.09000000000000001,-1.0,-2.0,11.0,-11.0,4.0,-1.0,-4.0,0.0,-0.39227294921875,-0.285400390625,0.63916015625,0.59674072265625,-0.17236328125,-0.85107421875,0.53564453125,1.125,1.5625,-1.5
0.09500000000000001,-1.0,-1.0,-3.0,2.0,-4.0,0.0,1.0,-1.0,-0.39227294921875,-0.285400390625,0.63916015625,0.59674072265625,-0.17236328125,-0.85107421875,0.53564453125,1.125,1.5625,-1.5
0.10000000000000002,-1.0,-1.0,-3.0,2.0,-4.0,0.0,1.0,-1.0,-0.39227294921875,-0.285400390625,0.63916015625,0.59674072265625,-0.17236328125,-0.85107421875,0.53564453125,1.125,1.5625,-1.5
0.10500000000000002,0.0,-3.0,-5.0,2.0,-2.0,-3.0,-2.0,0.0,-0.39227294921875,-0.285400390625,0.63916015625,0.59674072265625,-0.17236328125,-0.85107421875,0.53564453125,1.125,1.5625,-1.5
0.11000000000000003,0.0,-3.0,-5.0,2.0,-2.0,-3.0,-2.0,0.0,-0.39227294921875,-0.285400390625,0.63916015625,0.59674072265625,-0.17236328125,-0.85107421875,0.53564453125,1.125,1.5625,-1.5
0.11500000000000003,0.0,-3.0,-5.0,2.0,-2.0,-3.0,-2.0,0.0,-0.3924560546875,-0.28546142578125,0.638916015625,0.596923828125,-0.17138671875,-0.8525390625,0.5224609375,0.0625,0.875,-1.9375
0.12000000000000004,0.0,-3.0,-5.0,2.0,-2.0,-3.0,-2.0,0.0,-0.3924560546875,-0.28546142578125,0.638916015625,0.596923828125,-0.17138671875,-0.8525390625,0.5224609375,0.0625,0.875,-1.9375
0.12500000000000003,-2.0,-2.0,6.0,3.0,-3.0,-3.0,-2.0,-1.0,-0.3924560546875,-0.28546142578125,0.638916015625,0.596923828125,-0.17138671875,-0.8525390625,0.5224609375,0.0625,0.875,-1.9375
0.13000000000000003,-2.0,-2.0,6.0,3.0,-3.0,-3.0,-2.0,-1.0,-0.3924560546875,-0.28546142578125,0.638916015625,0.596923828125,-0.17138671875,-0.8525390625,0.5224609375,0.0625,0.875,-1.9375
0.13500000000000004,-2.0,-2.0,6.0,3.0,-3.0,-3.0,-2.0,-1.0,-0.3924560546875,-0.28546142578125,0.638916015625,0.596923828125,-0.17138671875,-0.8525390625,0.5224609375,0.0625,0.875,-1.9375
0.14000000000000004,-2.0,-2.0,6.0,3.0,-3.0,-3.0,-2.0,-1.0,-0.3924560546875,-0.28546142578125,0.638916015625,0.596923828125,-0.17138671875,-0.8525390625,0.5224609375,0.0625,0.875,-1.9375
0.14500000000000005,-1.0,0.0,2.0,0.0,-3.0,-2.0,-2.0,-2.0,-0.39251708984375,-0.28558349609375,0.638671875,0.59710693359375,-0.169921875,-0.86181640625,0.52392578125,0.625,0.1875,-1.9375
0.15000000000000005,-1.0,0.0,2.0,0.0,-3.0,-2.0,-2.0,-2.0,-0.39251708984375,-0.28558349609375,0.638671875,0.59710693359375,-0.169921875,-0.86181640625,0.52392578125,0.625,0.1875,-1.9375
0.15500000000000005,-1.0,-2.0,-22.0,-6.0,-1.0,0.0,0.0,-3.0,-0.39251708984375,-0.28558349609375,0.638671875,0.59710693359375,-0.169921875,-0.86181640625,0.52392578125,0.625,0.1875,-1.9375
0.16000000000000006,-1.0,-2.0,-22.0,-6.0,-1.0,0.0,0.0,-3.0,-0.39251708984375,-0.28558349609375,0.638671875,0.59710693359375,-0.169921875,-0.86181640625,0.52392578125,0.625,0.1875,-1.9375
0.16500000000000006,-1.0,-2.0,-22.0,-6.0,-1.0,0.0,0.0,-3.0,-0.392333984375,-0.2855224609375,0.63861083984375,0.5972900390625,-0.169921875,-0.85546875,0.5302734375,1.9375,-0.5,-1.375
0.17000000000000007,-1.0,-2.0,-22.0,-6.0,-1.0,0.0,0.0,-3.0,-0.392333984375,-0.2855224609375,0.63861083984375,0.5972900390625,-0.169921875,-0.85546875,0.5302734375,1.9375,-0.5,-1.375
0.17500000000000007,1.0,-3.0,-18.0,1.0,-4.0,-4.0,-3.0,-1.0,-0.392333984375,-0.2855224609375,0.63861083984375,0.5972900390625,-0.169921875,-0.85546875,0.5302734375,1.9375,-0.5,-1.375
0.18000000000000008,1.0,-3.0,-18.0,1.0,-4.0,-4.0,-3.0,-1.0,-0.392333984375,-0.2855224609375,0.63861083984375,0.5972900390625,-0.169921875,-0.85546875,0.5302734375,1.9375,-0.5,-1.375
0.18500000000000008,1.0,2.0,-1.0,-1.0,4.0,3.0,2.0,0.0,-0.392333984375,-0.2855224609375,0.63861083984375,0.5972900390625,-0.169921875,-0.85546875,0.5302734375,1.9375,-0.5,-1.375
0.19000000000000009,1.0,2.0,-1.0,-1.0,4.0,3.0,2.0,0.0,-0.392333984375,-0.2855224609375,0.63861083984375,0.5972900390625,-0.169921875,-0.85546875,0.5302734375,1.9375,-0.5,-1.375
0.1950000000000001,1.0,2.0,-1.0,-1.0,4.0,3.0,2.0,0.0,-0.3922119140625,-0.28546142578125,0.6385498046875,0.597412109375,-0.16796875,-0.84814453125,0.52685546875,1.3125,-0.4375,-1.0625
0.2000000000000001,1.0,2.0,-1.0,-1.0,4.0,3.0,2.0,0.0,-0.3922119140625,-0.28546142578125,0.6385498046875,0.597412109375,-0.16796875,-0.84814453125,0.52685546875,1.3125,-0.4375,-1.0625
0.2050000000000001,0.0,0.0,19.0,13.0,-1.0,-4.0,-3.0,-2.0,-0.3922119140625,-0.28546142578125,0.6385498046875,0.597412109375,-0.16796875,-0.84814453125,0.52685546875,1.3125,-0.4375,-1.0625
0.2100000000000001,0.0,0.0,19.0,13.0,-1.0,-4.0,-3.0,-2.0,-0.3922119140625,-0.28546142578125,0.6385498046875,0.597412109375,-0.16796875,-0.84814453125,0.52685546875,1.3125,-0.4375,-1.0625
0.2150000000000001,0.0,0.0,19.0,13.0,-1.0,-4.0,-3.0,-2.0,-0.3922119140625,-0.28546142578125,0.6385498046875,0.597412109375,-0.16796875,-0.84814453125,0.52685546875,1.3125,-0.4375,-1.0625
0.2200000000000001,0.0,0.0,19.0,13.0,-1.0,-4.0,-3.0,-2.0,-0.3922119140625,-0.28546142578125,0.6385498046875,0.597412109375,-0.16796875,-0.84814453125,0.52685546875,1.3125,-0.4375,-1.0625
0.22500000000000012,-1.0,-1.0,-5.0,-6.0,-2.0,0.0,-1.0,-2.0,-0.3922119140625,-0.28546142578125,0.6385498046875,0.59735107421875,-0.17138671875,-0.85205078125,0.53076171875,0.3125,-0.5625,-0.4375
0.23000000000000012,-1.0,-1.0,-5.0,-6.0,-2.0,0.0,-1.0,-2.0,-0.3922119140625,-0.28546142578125,0.6385498046875,0.59735107421875,-0.17138671875,-0.85205078125,0.53076171875,0.3125,-0.5625,-0.4375
0.23500000000000013,-2.0,0.0,-21.0,-14.0,-3.0,0.0,0.0,0.0,-0.3922119140625,-0.28546142578125,0.6385498046875,0.59735107421875,-0.17138671875,-0.85205078125,0.53076171875,0.3125,-0.5625,-0.4375
0.24000000000000013,-2.0,0.0,-21.0,-14.0,-3.0,0.0,0.0,0.0,-0.3922119140625,-0.28546142578125,0.6385498046875,0.59735107421875,-0.17138671875,-0.85205078125,0.53076171875,0.3125,-0.5625,-0.4375
0.24500000000000013,-2.0,0.0,-21.0,-14.0,-3.0,0.0,0.0,0.0,-0.39227294921875,-0.28546142578125,0.6385498046875,0.59735107421875,-0.17724609375,-0.85400390625,0.533203125,0.1875,-0.5,-0.1875
0.2500000000000001,-2.0,0.0,-21.0,-14.0,-3.0,0.0,0.0,0.0,-0.39227294921875,-0.28546142578125,0.6385498046875,0.59735107421875,-0.17724609375,-0.85400390625,0.533203125,0.1875,-0.5,-0.1875
0.2550000000000001,-4.0,-1.0,-2.0,-1.0,1.0,-3.0,1.0,-1.0,-0.39227294921875,-0.28546142578125,0.6385498046875,0.59735107421875,-0.17724609375,-0.85400390625,0.533203125,0.1875,-0.5,-0.1875
0.2600000000000001,-4.0,-1.0,-2.0,-1.0,1.0,-3.0,1.0,-1.0,-0.39227294921875,-0.28546142578125,0.6385498046875,0.59735107421875,-0.17724609375,-0.85400390625,0.533203125,0.1875,-0.5,-0.1875
0.2650000000000001,0.0,0.0,-7.0,-11.0,-2.0,0.0,-1.0,0.0,-0.39227294921875,-0.28546142578125,0.6385498046875,0.59735107421875,-0.17724609375,-0.85400390625,0.533203125,0.1875,-0.5,-0.1875
0.27000000000000013,0.0,0.0,-7.0,-11.0,-2.0,0.0,-1.0,0.0,-0.39227294921875,-0.28546142578125,0.6385498046875,0.59735107421875,-0.17724609375,-0.85400390625,0.533203125,0.1875,-0.5,-0.1875
0.27500000000000013,0.0,0.0,-7.0,-11.0,-2.0,0.0,-1.0,0.0,-0.3922119140625,-0.2852783203125,0.638671875,0.59735107421875,-0.17138671875,-0.8525390625,0.53857421875,1.125,-0.125,0.0625
0.28000000000000014,-1.0,-1.0,-1.0,-5.0,0.0,1.0,-1.0,-1.0,-0.3922119140625,-0.2852783203125,0.638671875,0.59735107421875,-0.17138671875,-0.8525390625,0.53857421875,1.125,-0.125,0.0625
0.28500000000000014,-1.0,-1.0,-1.0,-5.0,0.0,1.0,-1.0,-1.0,-0.3922119140625,-0.2852783203125,0.638671875,0.59735107421875,-0.17138671875,-0.8525390625,0.53857421875,1.125,-0.125,0.0625
0.29000000000000015,-2.0,0.0,5.0,-5.0,-3.0,1.0,0.0,-1.0,-0.3922119140625,-0.2852783203125,0.638671875,0.59735107421875,-0.17138671875,-0.8525390625,0.53857421875,1.125,-0.125,0.0625
0.29500000000000015,-2.0,0.0,5.0,-5.0,-3.0,1.0,0.0,-1.0,-0.3922119140625,-0.2852783203125,0.638671875,0.59735107421875,-0.17138671875,-0.8525390625,0.53857421875,1.125,-0.125,0.0625
0.30000000000000016,-2.0,0.0,5.0,-5.0,-3.0,1.0,0.0,-1.0,-0.3922119140625,-0.2852783203125,0.638671875,0.59735107421875,-0.17138671875,-0.8525390625,0.53857421875,1.125,-0.125,0.0625
0.30500000000000016,-1.0,-3.0,7.0,9.0,-2.0,-4.0,-3.0,-3.0,-0.39202880859375,-0.28515625,0.6387939453125,0.597412109375,-0.1650390625,-0.849609375,0.54052734375,1.375,-0.5625,0.3125
0.31000000000000016,-1.0,-1.0,8.0,14.0,0.0,-3.0,-1.0,0.0,-0.39202880859375,-0.28515625,0.6387939453125,0.597412109375,-0.1650390625,-0.849609375,0.54052734375,1.375,-0.5625,0.3125
0.31500000000000017,-1.0,-1.0,8.0,14.0,0.0,-3.0,-1.0,0.0,-0.39202880859375,-0.28515625,0.6387939453125,0.597412109375,-0.1650390625,-0.849609375,0.54052734375,1.375,-0.5625,0.3125
0.3200000000000002,-1.0,-1.0,8.0,14.0,0.0,-3.0,-1.0,0.0,-0.39190673828125,-0.28497314453125,0.638916015625,0.59747314453125,-0.169921875,-0.8505859375,0.541015625,1.5,-0.4375,0.125
0.3250000000000002,-1.0,-1.0,8.0,14.0,0.0,-3.0,-1.0,0.0,-0.39190673828125,-0.28497314453125,0.638916015625,0.59747314453125,-0.169921875,-0.8505859375,0.541015625,1.5,-0.4375,0.125
0.3300000000000002,-1.0,1.0,4.0,3.0,-1.0,2.0,0.0,0.0,-0.39190673828125,-0.28497314453125,0.638916015625,0.59747314453125,-0.169921875,-0.8505859375,0.541015625,1.5,-0.4375,0.125
0.3350000000000002,-1.0,-2.0,-3.0,-4.0,2.0,-1.0,-3.0,-2.0,-0.39190673828125,-0.28497314453125,0.638916015625,0.59747314453125,-0.169921875,-0.8505859375,0.541015625,1.5,-0.4375,0.125
0.3400000000000002,-1.0,-2.0,-3.0,-4.0,2.0,-1.0,-3.0,-2.0,-0.39190673828125,-0.28497314453125,0.638916015625,0.59747314453125,-0.169921875,-0.8505859375,0.541015625,1.5,-0.4375,0.125
0.3450000000000002,-1.0,-2.0,-3.0,-4.0,2.0,-1.0,-3.0,-2.0,-0.3917236328125,-0.28472900390625,0.63909912109375,0.59747314453125,-0.17138671875,-0.84130859375,0.5390625,1.8125,-0.5,0.1875
0.3500000000000002,-1.0,-2.0,-3.0,-4.0,2.0,-1.0,-3.0,-2.0,-0.3917236328125,-0.28472900390625,0.63909912109375,0.59747314453125,-0.17138671875,-0.84130859375,0.5390625,1.8125,-0.5,0.1875
0.3550000000000002,-1.0,-2.0,-3.0,-4.0,2.0,-1.0,-3.0,-2.0,-0.3917236328125,-0.28472900390625,0.63909912109375,0.59747314453125,-0.17138671875,-0.84130859375,0.5390625,1.8125,-0.5,0.1875
0.3600000000000002,-2.0,-3.0,-6.0,2.0,-3.0,1.0,-2.0,-1.0,-0.3917236328125,-0.28472900390625,0.63909912109375,0.59747314453125,-0.17138671875,-0.84130859375,0.5390625,1.8125,-0.5,0.1875
0.3650000000000002,-2.0,-3.0,-6.0,2.0,-3.0,1.0,-2.0,-1.0,-0.3917236328125,-0.28472900390625,0.63909912109375,0.59747314453125,-0.17138671875,-0.84130859375,0.5390625,1.8125,-0.5,0.1875
0.3700000000000002,-2.0,-3.0,-6.0,2.0,-3.0,1.0,-2.0,-1.0,-0.3917236328125,-0.28472900390625,0.63909912109375,0.59747314453125,-0.16748046875,-0.841796875,0.53857421875,0.75,-0.5625,0.375
0.3750000000000002,1.0,-1.0,-13.0,-5.0,-1.0,-3.0,-2.0,1.0,-0.3917236328125,-0.28472900390625,0.63909912109375,0.59747314453125,-0.16748046875,-0.841796875,0.53857421875,0.75,-0.5625,0.375
0.3800000000000002,-2.0,-2.0,4.0,13.0,2.0,-1.0,0.0,-1.0,-0.3917236328125,-0.28472900390625,0.63909912109375,0.59747314453125,-0.16748046875,-0.841796875,0.53857421875,0.75,-0.5625,0.375
0.38500000000000023,-2.0,-2.0,4.0,13.0,2.0,-1.0,0.0,-1.0,-0.3917236328125,-0.28472900390625,0.63909912109375,0.59747314453125,-0.16748046875,-0.841796875,0.53857421875,0.75,-0.5625,0.375
0.39000000000000024,-2.0,-2.0,4.0,13.0,2.0,-1.0,0.0,-1.0,-0.3917236328125,-0.28466796875,0.63916015625,0.59747314453125,-0.166015625,-0.84375,0.541015625,-0.0625,-0.5625,0.25
0.39500000000000024,-2.0,-2.0,4.0,13.0,2.0,-1.0,0.0,-1.0,-0.3917236328125,-0.28466796875,0.63916015625,0.59747314453125,-0.166015625,-0.84375,0.541015625,-0.0625,-0.5625,0.25
0.40000000000000024,-2.0,-6.0,-7.0,-8.0,0.0,-1.0,-2.0,-2.0,-0.3917236328125,-0.28466796875,0.63916015625,0.59747314453125,-0.166015625,-0.84375,0.541015625,-0.0625,-0.5625,0.25
0.40500000000000025,-2.0,-2.0,8.0,6.0,3.0,-3.0,-2.0,0.0,-0.3917236328125,-0.28466796875,0.63916015625,0.59747314453125,-0.166015625,-0.84375,0.541015625,-0.0625,-0.5625,0.25
0.41000000000000025,0.0,1.0,-9.0,5.0,0.0,1.0,0.0,0.0,-0.3917236328125,-0.28466796875,0.63916015625,0.59747314453125,-0.166015625,-0.84375,0.541015625,-0.0625,-0.5625,0.25
0.41500000000000026,-1.0,0.0,16.0,-8.0,-1.0,-1.0,-2.0,-1.0,-0.3917236328125,-0.28472900390625,0.63909912109375,0.59747314453125,-0.16259765625,-0.85302734375,0.52490234375,-0.8125,-0.3125,0.375
0.42000000000000026,-1.0,0.0,16.0,-8.0,-1.0,-1.0,-2.0,-1.0,-0.3917236328125,-0.28472900390625,0.63909912109375,0.59747314453125,-0.16259765625,-0.85302734375,0.52490234375,-0.8125,-0.3125,0.375
0.42500000000000027,-3.0,-5.0,-18.0,3.0,2.0,1.0,-2.0,-2.0,-0.3917236328125,-0.28472900390625,0.63909912109375,0.59747314453125,-0.16259765625,-0.85302734375,0.52490234375,-0.8125,-0.3125,0.375
0.43000000000000027,-3.0,-5.0,-18.0,3.0,2.0,1.0,-2.0,-2.0,-0.3917236328125,-0.28472900390625,0.63909912109375,0.59747314453125,-0.16259765625,-0.85302734375,0.52490234375,-0.8125,-0.3125,0.375
0.4350000000000003,-2.0,-1.0,6.0,3.0,-1.0,-3.0,-2.0,-2.0,-0.3917236328125,-0.28472900390625,0.63909912109375,0.59747314453125,-0.16259765625,-0.85302734375,0.52490234375,-0.8125,-0.3125,0.375
0.4400000000000003,-1.0,-2.0,-8.0,-5.0,-1.0,-1.0,0.0,-1.0,-0.3917236328125,-0.28472900390625,0.63909912109375,0.59747314453125,-0.16259765625,-0.85302734375,0.52490234375,-0.8125,-0.3125,0.375
0.4450000000000003,-1.0,-2.0,-8.0,-5.0,-1.0,-1.0,0.0,-1.0,-0.3917236328125,-0.28472900390625,0.63909912109375,0.59747314453125,-0.16259765625,-0.85302734375,0.52490234375,-0.8125,-0.3125,0.375
0.4500000000000003,1.0,1.0,-12.0,-15.0,1.0,4.0,3.0,0.0,-0.39178466796875,-0.28472900390625,0.63909912109375,0.59747314453125,-0.15966796875,-0.849609375,0.5302734375,0.5625,-1.0,0.4375
0.4550000000000003,1.0,1.0,-12.0,-15.0,1.0,4.0,3.0,0.0,-0.3917236328125,-0.28472900390625,0.63909912109375,0.59747314453125,-0.158203125,-0.84912109375,0.537109375,-0.3125,-0.375,0.1875
0.4600000000000003,1.0,1.0,2.0,-13.0,-2.0,-3.0,0.0,0.0,-0.3917236328125,-0.28472900390625,0.63909912109375,0.59747314453125,-0.158203125,-0.84912109375,0.537109375,-0.3125,-0.375,0.1875
0.4650000000000003,1.0,1.0,2.0,-13.0,-2.0,-3.0,0.0,0.0,-0.3917236328125,-0.28472900390625,0.63909912109375,0.59747314453125,-0.158203125,-0.84912109375,0.537109375,-0.3125,-0.375,0.1875
0.4700000000000003,0.0,-1.0,11.0,9.0,0.0,-2.0,-3.0,0.0,-0.3917236328125,-0.28472900390625,0.63909912109375,0.59747314453125,-0.158203125,-0.84912109375,0.537109375,-0.3125,-0.375,0.1875
0.4750000000000003,0.0,-1.0,11.0,9.0,0.0,-2.0,-3.0,0.0,-0.3917236328125,-0.28472900390625,0.63909912109375,0.59747314453125,-0.16015625,-0.8408203125,0.544921875,-0.875,-0.375,0.25
0.4800000000000003,0.0,1.0,8.0,-20.0,-5.0,-3.0,0.0,0.0,-0.3917236328125,-0.28472900390625,0.63909912109375,0.59747314453125,-0.16015625,-0.8408203125,0.544921875,-0.875,-0.375,0.25
0.4850000000000003,0.0,1.0,8.0,-20.0,-5.0,-3.0,0.0,0.0,-0.3917236328125,-0.28472900390625,0.63909912109375,0.59747314453125,-0.16015625,-0.8408203125,0.544921875,-0.875,-0.375,0.25
0.4900000000000003,0.0,1.0,-28.0,-16.0,-4.0,2.0,-2.0,0.0,-0.3917236328125,-0.28472900390625,0.63909912109375,0.59747314453125,-0.16015625,-0.8408203125,0.544921875,-0.875,-0.375,0.25
0.49500000000000033,0.0,1.0,-28.0,-16.0,-4.0,2.0,-2.0,0.0,-0.3917236328125,-0.28472900390625,0.63909912109375,0.59747314453125,-0.16015625,-0.8408203125,0.544921875,-0.875,-0.375,0.25
0.5000000000000003,0.0,1.0,-28.0,-16.0,-4.0,2.0,-2.0,0.0,-0.3916015625,-0.284912109375,0.63922119140625,0.59735107421875,-0.158203125,-0.85205078125,0.556640625,-1.1875,-1.0625,0.625
0.5050000000000003,0.0,1.0,-28.0,-16.0,-4.0,2.0,-2.0,0.0,-0.3916015625,-0.284912109375,0.63922119140625,0.59735107421875,-0.158203125,-0.85205078125,0.556640625,-1.1875,-1.0625,0.625
0.5100000000000003,-1.0,0.0,5.0,-7.0,-2.0,-5.0,-2.0,-1.0,-0.3916015625,-0.284912109375,0.63922119140625,0.59735107421875,-0.158203125,-0.85205078125,0.556640625,-1.1875,-1.0625,0.625
0.5150000000000003,-1.0,0.0,5.0,-7.0,-2.0,-5.0,-2.0,-1.0,-0.3916015625,-0.284912109375,0.63922119140625,0.59735107421875,-0.158203125,-0.85205078125,0.556640625,-1.1875,-1.0625,0.625
0.5200000000000004,-1.0,0.0,5.0,-7.0,-2.0,-5.0,-2.0,-1.0,-0.391357421875,-0.28515625,0.639404296875,0.59722900390625,-0.15380859375,-0.85693359375,0.55419921875,-0.3125,-1.75,0.625
0.5250000000000004,-1.0,-1.0,-5.0,-1.0,-1.0,-2.0,-2.0,-1.0,-0.391357421875,-0.28515625,0.639404296875,0.59722900390625,-0.15380859375,-0.85693359375,0.55419921875,-0.3125,-1.75,0.625
0.5300000000000004,-1.0,-1.0,-5.0,-1.0,-1.0,-2.0,-2.0,-1.0,-0.391357421875,-0.28515625,0.639404296875,0.59722900390625,-0.15380859375,-0.85693359375,0.55419921875,-0.3125,-1.75,0.625
0.5350000000000004,-2.0,-1.0,-3.0,6.0,-2.0,-3.0,-2.0,-2.0,-0.391357421875,-0.28515625,0.639404296875,0.59722900390625,-0.15380859375,-0.85693359375,0.55419921875,-0.3125,-1.75,0.625
0.5400000000000004,-2.0,-1.0,-3.0,6.0,-2.0,-3.0,-2.0,-2.0,-0.39080810546875,-0.28515625,0.6396484375,0.59735107421875,-0.14599609375,-0.84619140625,0.552734375,1.75,-2.0,0.375
0.5450000000000004,-2.0,-1.0,-3.0,6.0,-2.0,-3.0,-2.0,-2.0,-0.39080810546875,-0.28515625,0.6396484375,0.59735107421875,-0.14599609375,-0.84619140625,0.552734375,1.75,-2.0,0.375
0.5500000000000004,1.0,-2.0,-11.0,7.0,-1.0,0.0,-2.0,-2.0,-0.39080810546875,-0.28515625,0.6396484375,0.59735107421875,-0.14599609375,-0.84619140625,0.552734375,1.75,-2.0,0.375
0.5550000000000004,-2.0,-4.0,-8.0,11.0,-1.0,-2.0,-2.0,-3.0,-0.39080810546875,-0.28515625,0.6396484375,0.59735107421875,-0.14599609375,-0.84619140625,0.552734375,1.75,-2.0,0.375
0.5600000000000004,-2.0,-4.0,-8.0,11.0,-1.0,-2.0,-2.0,-3.0,-0.39080810546875,-0.28515625,0.6396484375,0.59735107421875,-0.14599609375,-0.84619140625,0.552734375,1.75,-2.0,0.375
0.5650000000000004,-2.0,-4.0,-8.0,11.0,-1.0,-2.0,-2.0,-3.0,-0.39080810546875,-0.28515625,0.6396484375,0.59735107421875,-0.14599609375,-0.84619140625,0.552734375,1.75,-2.0,0.375
0.5700000000000004,-2.0,-2.0,-18.0,-7.0,-3.0,1.0,1.0,-2.0,-0.3902587890625,-0.2850341796875,0.639892578125,0.597412109375,-0.15478515625,-0.84228515625,0.54443359375,2.4375,-1.6875,0.375
0.5750000000000004,-2.0,-2.0,-18.0,-7.0,-3.0,1.0,1.0,-2.0,-0.3902587890625,-0.2850341796875,0.639892578125,0.597412109375,-0.15478515625,-0.84228515625,0.54443359375,2.4375,-1.6875,0.375
0.5800000000000004,-2.0,-2.0,-18.0,-7.0,-3.0,1.0,1.0,-2.0,-0.38995361328125,-0.28485107421875,0.64013671875,0.59747314453125,-0.1591796875,-0.84130859375,0.53564453125,2.375,-0.8125,0.625
0.5850000000000004,-2.0,-2.0,-18.0,-7.0,-3.0,1.0,1.0,-2.0,-0.38995361328125,-0.28485107421875,0.64013671875,0.59747314453125,-0.1591796875,-0.84130859375,0.53564453125,2.375,-0.8125,0.625
0.5900000000000004,-1.0,-2.0,5.0,6.0,1.0,3.0,2.0,1.0,-0.38995361328125,-0.28485107421875,0.64013671875,0.59747314453125,-0.1591796875,-0.84130859375,0.53564453125,2.375,-0.8125,0.625
0.5950000000000004,0.0,-1.0,13.0,-33.0,-4.0,-3.0,-1.0,-1.0,-0.38995361328125,-0.28485107421875,0.64013671875,0.59747314453125,-0.1591796875,-0.84130859375,0.53564453125,2.375,-0.8125,0.625
0.6000000000000004,0.0,-1.0,13.0,-33.0,-4.0,-3.0,-1.0,-1.0,-0.38995361328125,-0.28485107421875,0.64013671875,0.59747314453125,-0.1591796875,-0.84130859375,0.53564453125,2.375,-0.8125,0.625
0.6050000000000004,0.0,-1.0,13.0,-33.0,-4.0,-3.0,-1.0,-1.0,-0.389892578125,-0.2845458984375,0.64031982421875,0.5975341796875,-0.1611328125,-0.830078125,0.53466796875,1.875,0.3125,0.75
0.6100000000000004,0.0,-1.0,13.0,-33.0,-4.0,-3.0,-1.0,-1.0,-0.389892578125,-0.2845458984375,0.64031982421875,0.5975341796875,-0.1611328125,-0.830078125,0.53466796875,1.875,0.3125,0.75
0.6150000000000004,-3.0,-2.0,6.0,-10.0,-4.0,-3.0,-2.0,-1.0,-0.389892578125,-0.2845458984375,0.64031982421875,0.5975341796875,-0.1611328125,-0.830078125,0.53466796875,1.875,0.3125,0.75
0.6200000000000004,-3.0,-2.0,6.0,-10.0,-4.0,-3.0,-2.0,-1.0,-0.389892578125,-0.2845458984375,0.64031982421875,0.5975341796875,-0.1611328125,-0.830078125,0.53466796875,1.875,0.3125,0.75
0.6250000000000004,2.0,2.0,37.0,30.0,1.0,-2.0,0.0,-1.0,-0.389892578125,-0.2845458984375,0.64031982421875,0.5975341796875,-0.1611328125,-0.830078125,0.53466796875,1.875,0.3125,0.75
0.6300000000000004,2.0,2.0,37.0,30.0,1.0,-2.0,0.0,-1.0,-0.389892578125,-0.2845458984375,0.64031982421875,0.5975341796875,-0.1611328125,-0.830078125,0.53466796875,1.875,0.3125,0.75
0.6350000000000005,2.0,2.0,37.0,30.0,1.0,-2.0,0.0,-1.0,-0.39007568359375,-0.28436279296875,0.64031982421875,0.59747314453125,-0.1650390625,-0.83837890625,0.54736328125,-0.75,1.25,0.6875
0.6400000000000005,2.0,2.0,37.0,30.0,1.0,-2.0,0.0,-1.0,-0.39007568359375,-0.28436279296875,0.64031982421875,0.59747314453125,-0.1650390625,-0.83837890625,0.54736328125,-0.75,1.25,0.6875
0.6450000000000005,0.0,-2.0,2.0,-4.0,-2.0,-1.0,-1.0,-1.0,-0.39007568359375,-0.28436279296875,0.64031982421875,0.59747314453125,-0.1650390625,-0.83837890625,0.54736328125,-0.75,1.25,0.6875
0.6500000000000005,0.0,-2.0,2.0,-4.0,-2.0,-1.0,-1.0,-1.0,-0.39007568359375,-0.28436279296875,0.64031982421875,0.59747314453125,-0.1650390625,-0.83837890625,0.54736328125,-0.75,1.25,0.6875
0.6550000000000005,0.0,-2.0,2.0,-4.0,-2.0,-1.0,-1.0,-1.0,-0.390380859375,-0.284423828125,0.64013671875,0.597412109375,-0.15478515625,-0.85107421875,0.544921875,-1.6875,1.4375,0.375
0.6600000000000005,0.0,-2.0,2.0,-4.0,-2.0,-1.0,-1.0,-1.0,-0.390380859375,-0.284423828125,0.64013671875,0.597412109375,-0.15478515625,-0.85107421875,0.544921875,-1.6875,1.4375,0.375
0.6650000000000005,1.0,2.0,5.0,3.0,4.0,0.0,-3.0,-2.0,-0.390380859375,-0.284423828125,0.64013671875,0.597412109375,-0.15478515625,-0.85107421875,0.544921875,-1.6875,1.4375,0.375
0.6700000000000005,1.0,2.0,5.0,3.0,4.0,0.0,-3.0,-2.0,-0.390380859375,-0.284423828125,0.64013671875,0.597412109375,-0.15478515625,-0.85107421875,0.544921875,-1.6875,1.4375,0.375
0.6750000000000005,-1.0,1.0,-5.0,5.0,2.0,6.0,1.0,0.0,-0.390380859375,-0.284423828125,0.64013671875,0.597412109375,-0.15478515625,-0.85107421875,0.544921875,-1.6875,1.4375,0.375
0.6800000000000005,-1.0,1.0,-5.0,5.0,2.0,6.0,1.0,0.0,-0.390380859375,-0.284423828125,0.64013671875,0.597412109375,-0.15478515625,-0.85107421875,0.544921875,-1.6875,1.4375,0.375
0.6850000000000005,-1.0,1.0,-5.0,5.0,2.0,6.0,1.0,0.0,-0.390380859375,-0.284423828125,0.64013671875,0.597412109375,-0.158203125,-0.8525390625,0.55859375,0.75,0.875,-0.375
0.6900000000000005,-1.0,-1.0,-6.0,-4.0,-4.0,-5.0,-3.0,-2.0,-0.390380859375,-0.284423828125,0.64013671875,0.597412109375,-0.158203125,-0.8525390625,0.55859375,0.75,0.875,-0.375
0.6950000000000005,-1.0,-1.0,-6.0,-4.0,-4.0,-5.0,-3.0,-2.0,-0.390380859375,-0.284423828125,0.64013671875,0.597412109375,-0.158203125,-0.8525390625,0.55859375,0.75,0.875,-0.375
0.7000000000000005,0.0,-3.0,-15.0,-2.0,-5.0,-4.0,-3.0,-1.0,-0.390380859375,-0.284423828125,0.64013671875,0.597412109375,-0.158203125,-0.8525390625,0.55859375,0.75,0.875,-0.375
0.7050000000000005,0.0,-3.0,-15.0,-2.0,-5.0,-4.0,-3.0,-1.0,-0.390380859375,-0.284423828125,0.64013671875,0.597412109375,-0.158203125,-0.8525390625,0.55859375,0.75,0.875,-0.375
0.7100000000000005,0.0,-3.0,-15.0,-2.0,-5.0,-4.0,-3.0,-1.0,-0.39007568359375,-0.28424072265625,0.64007568359375,0.59771728515625,-0.16357421875,-0.845703125,0.55322265625,1.5625,0.3125,-1.375
0.7150000000000005,0.0,-3.0,-15.0,-2.0,-5.0,-4.0,-3.0,-1.0,-0.39007568359375,-0.28424072265625,0.64007568359375,0.59771728515625,-0.16357421875,-0.845703125,0.55322265625,1.5625,0.3125,-1.375
0.7200000000000005,0.0,-3.0,-15.0,-2.0,-5.0,-4.0,-3.0,-1.0,-0.39007568359375,-0.28424072265625,0.64007568359375,0.59771728515625,-0.16357421875,-0.845703125,0.55322265625,1.5625,0.3125,-1.375
0.7250000000000005,-1.0,-2.0,-3.0,-4.0,-1.0,0.0,0.0,-1.0,-0.39007568359375,-0.28424072265625,0.64007568359375,0.59771728515625,-0.16357421875,-0.845703125,0.55322265625,1.5625,0.3125,-1.375
0.7300000000000005,-1.0,-2.0,-3.0,-4.0,-1.0,0.0,0.0,-1.0,-0.39007568359375,-0.28424072265625,0.64007568359375,0.59771728515625,-0.16357421875,-0.845703125,0.55322265625,1.5625,0.3125,-1.375
0.7350000000000005,-1.0,-2.0,-3.0,-4.0,-1.0,0.0,0.0,-1.0,-0.38983154296875,-0.28436279296875,0.639892578125,0.5980224609375,-0.16552734375,-0.84912109375,0.55419921875,0.25,-0.5,-2.5625
0.7400000000000005,-1.0,1.0,14.0,-5.0,-2.0,-3.0,-1.0,-1.0,-0.38983154296875,-0.28436279296875,0.639892578125,0.5980224609375,-0.16552734375,-0.84912109375,0.55419921875,0.25,-0.5,-2.5625
0.7450000000000006,-1.0,1.0,14.0,-5.0,-2.0,-3.0,-1.0,-1.0,-0.38983154296875,-0.28436279296875,0.639892578125,0.5980224609375,-0.16552734375,-0.84912109375,0.55419921875,0.25,-0.5,-2.5625
0.7500000000000006,-2.0,-2.0,-4.0,-6.0,-2.0,3.0,0.0,0.0,-0.38983154296875,-0.28436279296875,0.639892578125,0.5980224609375,-0.16552734375,-0.84912109375,0.55419921875,0.25,-0.5,-2.5625
0.7550000000000006,-2.0,-2.0,-4.0,-6.0,-2.0,3.0,0.0,0.0,-0.38983154296875,-0.28436279296875,0.639892578125,0.5980224609375,-0.16552734375,-0.84912109375,0.55419921875,0.25,-0.5,-2.5625
0.7600000000000006,-2.0,-2.0,-4.0,-6.0,-2.0,3.0,0.0,0.0,-0.38958740234375,-0.28448486328125,0.63970947265625,0.598388671875,-0.16064453125,-0.84228515625,0.54541015625,0.9375,-0.4375,-2.5
0.7650000000000006,-2.0,-2.0,-4.0,-6.0,-2.0,3.0,0.0,0.0,-0.38958740234375,-0.28448486328125,0.63970947265625,0.598388671875,-0.16064453125,-0.84228515625,0.54541015625,0.9375,-0.4375,-2.5
0.7700000000000006,-1.0,-2.0,-10.0,12.0,1.0,3.0,1.0,1.0,-0.38958740234375,-0.28448486328125,0.63970947265625,0.598388671875,-0.16064453125,-0.84228515625,0.54541015625,0.9375,-0.4375,-2.5
0.7750000000000006,-1.0,-2.0,-10.0,12.0,1.0,3.0,1.0,1.0,-0.38958740234375,-0.28448486328125,0.63970947265625,0.598388671875,-0.16064453125,-0.84228515625,0.54541015625,0.9375,-0.4375,-2.5
0.7800000000000006,-1.0,-1.0,2.0,18.0,0.0,-4.0,-2.0,-2.0,-0.38958740234375,-0.28448486328125,0.63970947265625,0.598388671875,-0.16064453125,-0.84228515625,0.54541015625,0.9375,-0.4375,-2.5
0.7850000000000006,-1.0,-1.0,2.0,18.0,0.0,-4.0,-2.0,-2.0,-0.38958740234375,-0.28448486328125,0.63970947265625,0.598388671875,-0.16064453125,-0.84228515625,0.54541015625,0.9375,-0.4375,-2.5
0.7900000000000006,-1.0,-1.0,2.0,18.0,0.0,-4.0,-2.0,-2.0,-0.38934326171875,-0.284423828125,0.63958740234375,0.59869384765625,-0.1640625,-0.83642578125,0.5390625,1.25,-0.1875,-2.25
0.7950000000000006,-1.0,-1.0,2.0,18.0,0.0,-4.0,-2.0,-2.0,-0.38934326171875,-0.284423828125,0.63958740234375,0.59869384765625,-0.1640625,-0.83642578125,0.5390625,1.25,-0.1875,-2.25
0.8000000000000006,-1.0,0.0,-1.0,-23.0,-1.0,1.0,1.0,3.0,-0.38934326171875,-0.284423828125,0.63958740234375,0.59869384765625,-0.1640625,-0.83642578125,0.5390625,1.25,-0.1875,-2.25
0.8050000000000006,-1.0,0.0,-1.0,-23.0,-1.0,1.0,1.0,3.0,-0.38934326171875,-0.284423828125,0.63958740234375,0.59869384765625,-0.1640625,-0.83642578125,0.5390625,1.25,-0.1875,-2.25
0.8100000000000006,-1.0,0.0,-1.0,-23.0,-1.0,1.0,1.0,3.0,-0.38922119140625,-0.28436279296875,0.639404296875,0.59893798828125,-0.166015625,-0.837890625,0.5361328125,1.25,0.375,-2.125
0.8150000000000006,-1.0,0.0,-1.0,-23.0,-1.0,1.0,1.0,3.0,-0.38922119140625,-0.28436279296875,0.639404296875,0.59893798828125,-0.166015625,-0.837890625,0.5361328125,1.25,0.375,-2.125
0.8200000000000006,-1.0,-1.0,5.0,-34.0,-2.0,-3.0,1.0,-2.0,-0.38922119140625,-0.28436279296875,0.639404296875,0.59893798828125,-0.166015625,-0.837890625,0.5361328125,1.25,0.375,-2.125
0.8250000000000006,-1.0,-1.0,5.0,-34.0,-2.0,-3.0,1.0,-2.0,-0.38922119140625,-0.28436279296875,0.639404296875,0.59893798828125,-0.166015625,-0.837890625,0.5361328125,1.25,0.375,-2.125
0.8300000000000006,0.0,1.0,-8.0,-8.0,-5.0,-1.0,-2.0,0.0,-0.38922119140625,-0.28436279296875,0.639404296875,0.59893798828125,-0.166015625,-0.837890625,0.5361328125,1.25,0.375,-2.125
0.8350000000000006,0.0,1.0,-8.0,-8.0,-5.0,-1.0,-2.0,0.0,-0.38922119140625,-0.28436279296875,0.639404296875,0.59893798828125,-0.166015625,-0.837890625,0.5361328125,1.25,0.375,-2.125
0.8400000000000006,0.0,1.0,-8.0,-8.0,-5.0,-1.0,-2.0,0.0,-0.38934326171875,-0.28424072265625,0.63922119140625,0.59918212890625,-0.16552734375,-0.83544921875,0.54296875,-0.1875,1.625,-1.4375
0.8450000000000006,0.0,1.0,-8.0,-8.0,-5.0,-1.0,-2.0,0.0,-0.38934326171875,-0.28424072265625,0.63922119140625,0.59918212890625,-0.16552734375,-0.83544921875,0.54296875,-0.1875,1.625,-1.4375
0.8500000000000006,-1.0,-2.0,3.0,18.0,2.0,-5.0,-2.0,0.0,-0.38934326171875,-0.28424072265625,0.63922119140625,0.59918212890625,-0.16552734375,-0.83544921875,0.54296875,-0.1875,1.625,-1.4375
0.8550000000000006,-1.0,-2.0,3.0,18.0,2.0,-5.0,-2.0,0.0,-0.38934326171875,-0.28424072265625,0.63922119140625,0.59918212890625,-0.16552734375,-0.83544921875,0.54296875,-0.1875,1.625,-1.4375
0.8600000000000007,-2.0,-1.0,-11.0,1.0,0.0,-4.0,-3.0,-2.0,-0.38934326171875,-0.28424072265625,0.63922119140625,0.59918212890625,-0.16552734375,-0.83544921875,0.54296875,-0.1875,1.625,-1.4375
0.8650000000000007,-2.0,-1.0,-11.0,1.0,0.0,-4.0,-3.0,-2.0,-0.38934326171875,-0.28424072265625,0.63922119140625,0.59918212890625,-0.16552734375,-0.83544921875,0.54296875,-0.1875,1.625,-1.4375
0.8700000000000007,-2.0,-1.0,-11.0,1.0,0.0,-4.0,-3.0,-2.0,-0.38970947265625,-0.28424072265625,0.63897705078125,0.59918212890625,-0.1669921875,-0.83984375,0.53662109375,-1.4375,1.3125,-0.9375
0.8750000000000007,-2.0,-1.0,-11.0,1.0,0.0,-4.0,-3.0,-2.0,-0.38970947265625,-0.28424072265625,0.63897705078125,0.59918212890625,-0.1669921875,-0.83984375,0.53662109375,-1.4375,1.3125,-0.9375
0.8800000000000007,-3.0,-1.0,4.0,8.0,3.0,2.0,0.0,-1.0,-0.38970947265625,-0.28424072265625,0.63897705078125,0.59918212890625,-0.1669921875,-0.83984375,0.53662109375,-1.4375,1.3125,-0.9375
0.8850000000000007,-3.0,-1.0,4.0,8.0,3.0,2.0,0.0,-1.0,-0.38970947265625,-0.28424072265625,0.63897705078125,0.59918212890625,-0.1669921875,-0.83984375,0.53662109375,-1.4375,1.3125,-0.9375
0.8900000000000007,-3.0,-1.0,4.0,8.0,3.0,2.0,0.0,-1.0,-0.38970947265625,-0.28424072265625,0.63897705078125,0.59918212890625,-0.1669921875,-0.83984375,0.53662109375,-1.4375,1.3125,-0.9375
0.8950000000000007,-3.0,-1.0,4.0,8.0,3.0,2.0,0.0,-1.0,-0.3900146484375,-0.284423828125,0.638671875,0.59918212890625,-0.16650390625,-0.84521484375,0.54248046875,-2.125,1.125,-1.1875
0.9000000000000007,-2.0,-1.0,-10.0,-10.0,-1.0,-1.0,-2.0,-1.0,-0.3900146484375,-0.284423828125,0.638671875,0.59918212890625,-0.16650390625,-0.84521484375,0.54248046875,-2.125,1.125,-1.1875
0.9050000000000007,-4.0,-2.0,-6.0,6.0,-2.0,-2.0,-2.0,-3.0,-0.3900146484375,-0.284423828125,0.638671875,0.59918212890625,-0.16650390625,-0.84521484375,0.54248046875,-2.125,1.125,-1.1875
0.9100000000000007,-4.0,-2.0,-6.0,6.0,-2.0,-2.0,-2.0,-3.0,-0.3900146484375,-0.284423828125,0.638671875,0.59918212890625,-0.16650390625,-0.84521484375,0.54248046875,-2.125,1.125,-1.1875
0.9150000000000007,-4.0,-2.0,-6.0,6.0,-2.0,-2.0,-2.0,-3.0,-0.39019775390625,-0.2845458984375,0.63848876953125,0.5992431640625,-0.166015625,-0.857421875,0.5458984375,-0.875,0.3125,-1.125
0.9200000000000007,-4.0,-2.0,-6.0,6.0,-2.0,-2.0,-2.0,-3.0,-0.39019775390625,-0.2845458984375,0.63848876953125,0.5992431640625,-0.166015625,-0.857421875,0.5458984375,-0.875,0.3125,-1.125
0.9250000000000007,-2.0,1.0,6.0,11.0,-3.0,-2.0,-3.0,-1.0,-0.39019775390625,-0.2845458984375,0.63848876953125,0.5992431640625,-0.166015625,-0.857421875,0.5458984375,-0.875,0.3125,-1.125
0.9300000000000007,2.0,2.0,-7.0,-2.0,0.0,-2.0,1.0,0.0,-0.39019775390625,-0.2845458984375,0.63848876953125,0.5992431640625,-0.166015625,-0.857421875,0.5458984375,-0.875,0.3125,-1.125
0.9350000000000007,0.0,-3.0,5.0,-5.0,-1.0,1.0,-2.0,-1.0,-0.39019775390625,-0.2845458984375,0.63848876953125,0.5992431640625,-0.166015625,-0.857421875,0.5458984375,-0.875,0.3125,-1.125
0.9400000000000007,0.0,-3.0,5.0,-5.0,-1.0,1.0,-2.0,-1.0,-0.3900146484375,-0.28460693359375,0.638427734375,0.599365234375,-0.16748046875,-0.857421875,0.5419921875,1.0625,-0.8125,-1.4375
0.9450000000000007,0.0,-3.0,5.0,-5.0,-1.0,1.0,-2.0,-1.0,-0.3900146484375,-0.28460693359375,0.638427734375,0.599365234375,-0.16748046875,-0.857421875,0.5419921875,1.0625,-0.8125,-1.4375
0.9500000000000007,0.0,-3.0,-32.0,-10.0,-2.0,-6.0,1.0,-1.0,-0.3900146484375,-0.28460693359375,0.638427734375,0.599365234375,-0.16748046875,-0.857421875,0.5419921875,1.0625,-0.8125,-1.4375
0.9550000000000007,0.0,-3.0,-32.0,-10.0,-2.0,-6.0,1.0,-1.0,-0.3900146484375,-0.28460693359375,0.638427734375,0.599365234375,-0.16748046875,-0.857421875,0.5419921875,1.0625,-0.8125,-1.4375
0.9600000000000007,0.0,-3.0,-32.0,-10.0,-2.0,-6.0,1.0,-1.0,-0.38970947265625,-0.28472900390625,0.63836669921875,0.59954833984375,-0.16357421875,-0.85302734375,0.53466796875,1.4375,-1.5,-1.875
0.9650000000000007,0.0,-3.0,-32.0,-10.0,-2.0,-6.0,1.0,-1.0,-0.38970947265625,-0.28472900390625,0.63836669921875,0.59954833984375,-0.16357421875,-0.85302734375,0.53466796875,1.4375,-1.5,-1.875
0.9700000000000008,-2.0,-4.0,-19.0,-7.0,-4.0,-2.0,-2.0,-1.0,-0.38970947265625,-0.28472900390625,0.63836669921875,0.59954833984375,-0.16357421875,-0.85302734375,0.53466796875,1.4375,-1.5,-1.875
0.9750000000000008,1.0,0.0,25.0,-25.0,0.0,1.0,-1.0,-1.0,-0.38970947265625,-0.28472900390625,0.63836669921875,0.59954833984375,-0.16357421875,-0.85302734375,0.53466796875,1.4375,-1.5,-1.875
0.9800000000000008,1.0,0.0,25.0,-25.0,0.0,1.0,-1.0,-1.0,-0.38970947265625,-0.28472900390625,0.63836669921875,0.59954833984375,-0.16357421875,-0.85302734375,0.53466796875,1.4375,-1.5,-1.875
0.9850000000000008,1.0,0.0,25.0,-25.0,0.0,1.0,-1.0,-1.0,-0.38946533203125,-0.28509521484375,0.6383056640625,0.59967041015625,-0.162109375,-0.84814453125,0.5341796875,0.3125,-2.0,-2.25
0.9900000000000008,1.0,3.0,8.0,20.0,0.0,0.0,0.0,0.0,-0.38946533203125,-0.28509521484375,0.6383056640625,0.59967041015625,-0.162109375,-0.84814453125,0.5341796875,0.3125,-2.0,-2.25
0.9950000000000008,-3.0,-6.0,-21.0,-4.0,0.0,-1.0,1.0,-2.0,-0.38946533203125,-0.28509521484375,0.6383056640625,0.59967041015625,-0.162109375,-0.84814453125,0.5341796875,0.3125,-2.0,-2.25
1.0000000000000007,-2.0,0.0,2.0,9.0,-2.0,-4.0,-2.0,-1.0,-0.38946533203125,-0.28509521484375,0.6383056640625,0.59967041015625,-0.162109375,-0.84814453125,0.5341796875,0.3125,-2.0,-2.25
1.0050000000000006,-2.0,0.0,2.0,9.0,-2.0,-4.0,-2.0,-1.0,-0.38946533203125,-0.28509521484375,0.6383056640625,0.59967041015625,-0.162109375,-0.84814453125,0.5341796875,0.3125,-2.0,-2.25
1.0100000000000005,-2.0,0.0,2.0,9.0,-2.0,-4.0,-2.0,-1.0,-0.38946533203125,-0.28509521484375,0.6383056640625,0.59967041015625,-0.162109375,-0.84814453125,0.5341796875,0.3125,-2.0,-2.25
1.0150000000000003,-2.0,0.0,2.0,9.0,-2.0,-4.0,-2.0,-1.0,-0.38946533203125,-0.28509521484375,0.6383056640625,0.59967041015625,-0.162109375,-0.84814453125,0.5341796875,0.3125,-2.0,-2.25
1.0200000000000002,-2.0,0.0,2.0,9.0,-2.0,-4.0,-2.0,-1.0,-0.3892822265625,-0.2855224609375,0.63818359375,0.59967041015625,-0.16552734375,-0.8525390625,0.5302734375,-0.25,-2.375,-2.0
1.0250000000000001,0.0,-1.0,18.0,13.0,6.0,-1.0,0.0,-1.0,-0.3892822265625,-0.2855224609375,0.63818359375,0.59967041015625,-0.16552734375,-0.8525390625,0.5302734375,-0.25,-2.375,-2.0
1.03,0.0,-1.0,18.0,13.0,6.0,-1.0,0.0,-1.0,-0.38897705078125,-0.28570556640625,0.63824462890625,0.59967041015625,-0.16650390625,-0.84765625,0.5419921875,0.5625,-2.3125,-1.3125
1.035,1.0,-2.0,-8.0,20.0,-1.0,-1.0,-2.0,-1.0,-0.38897705078125,-0.28570556640625,0.63824462890625,0.59967041015625,-0.16650390625,-0.84765625,0.5419921875,0.5625,-2.3125,-1.3125
1.0399999999999998,1.0,-2.0,-8.0,20.0,-1.0,-1.0,-2.0,-1.0,-0.38897705078125,-0.28570556640625,0.63824462890625,0.59967041015625,-0.16650390625,-0.84765625,0.5419921875,0.5625,-2.3125,-1.3125
1.0449999999999997,0.0,3.0,12.0,-15.0,-5.0,-3.0,-2.0,0.0,-0.38897705078125,-0.28570556640625,0.63824462890625,0.59967041015625,-0.16650390625,-0.84765625,0.5419921875,0.5625,-2.3125,-1.3125
1.0499999999999996,0.0,3.0,12.0,-15.0,-5.0,-3.0,-2.0,0.0,-0.38897705078125,-0.28570556640625,0.63824462890625,0.59967041015625,-0.16650390625,-0.84765625,0.5419921875,0.5625,-2.3125,-1.3125
1.0549999999999995,0.0,3.0,12.0,-15.0,-5.0,-3.0,-2.0,0.0,-0.38861083984375,-0.2860107421875,0.6383056640625,0.5997314453125,-0.15966796875,-0.853515625,0.54345703125,0.5625,-2.8125,-1.375
1.0599999999999994,-1.0,-2.0,-2.0,-3.0,3.0,3.0,0.0,-1.0,-0.38861083984375,-0.2860107421875,0.6383056640625,0.5997314453125,-0.15966796875,-0.853515625,0.54345703125,0.5625,-2.8125,-1.375
1.0649999999999993,-1.0,-2.0,-2.0,-3.0,3.0,3.0,0.0,-1.0,-0.38861083984375,-0.2860107421875,0.6383056640625,0.5997314453125,-0.15966796875,-0.853515625,0.54345703125,0.5625,-2.8125,-1.375
1.0699999999999992,-2.0,-3.0,-16.0,5.0,-4.0,-3.0,-3.0,-1.0,-0.38861083984375,-0.2860107421875,0.6383056640625,0.5997314453125,-0.15966796875,-0.853515625,0.54345703125,0.5625,-2.8125,-1.375
1.074999999999999,-2.0,-3.0,-16.0,5.0,-4.0,-3.0,-3.0,-1.0,-0.38861083984375,-0.2860107421875,0.6383056640625,0.5997314453125,-0.15966796875,-0.853515625,0.54345703125,0.5625,-2.8125,-1.375
1.079999999999999,-2.0,-3.0,-16.0,5.0,-4.0,-3.0,-3.0,-1.0,-0.38812255859375,-0.2862548828125,0.63848876953125,0.59979248046875,-0.15673828125,-0.84521484375,0.54736328125,1.0,-2.875,-1.375
1.0849999999999989,-2.0,-3.0,-16.0,5.0,-4.0,-3.0,-3.0,-1.0,-0.38812255859375,-0.2862548828125,0.63848876953125,0.59979248046875,-0.15673828125,-0.84521484375,0.54736328125,1.0,-2.875,-1.375
1.0899999999999987,-1.0,-3.0,-5.0,-1.0,1.0,2.0,1.0,-3.0,-0.38812255859375,-0.2862548828125,0.63848876953125,0.59979248046875,-0.15673828125,-0.84521484375,0.54736328125,1.0,-2.875,-1.375
1.0949999999999986,-1.0,-3.0,-5.0,-1.0,1.0,2.0,1.0,-3.0,-0.38763427734375,-0.28656005859375,0.63861083984375,0.599853515625,-0.15771484375,-0.8486328125,0.5478515625,0.8125,-3.125,-1.375
1.0999999999999985,-1.0,-3.0,-5.0,-1.0,1.0,2.0,1.0,-3.0,-0.38763427734375,-0.28656005859375,0.63861083984375,0.599853515625,-0.15771484375,-0.8486328125,0.5478515625,0.8125,-3.125,-1.375
1.1049999999999984,0.0,-1.0,-26.0,-22.0,-4.0,-1.0,-2.0,-1.0,-0.38763427734375,-0.28656005859375,0.63861083984375,0.599853515625,-0.15771484375,-0.8486328125,0.5478515625,0.8125,-3.125,-1.375
1.1099999999999983,0.0,-1.0,-26.0,-22.0,-4.0,-1.0,-2.0,-1.0,-0.38763427734375,-0.28656005859375,0.63861083984375,0.599853515625,-0.15771484375,-0.8486328125,0.5478515625,0.8125,-3.125,-1.375
1.1149999999999982,0.0,-2.0,-12.0,4.0,-4.0,-6.0,0.0,-2.0,-0.38763427734375,-0.28656005859375,0.63861083984375,0.599853515625,-0.15771484375,-0.8486328125,0.5478515625,0.8125,-3.125,-1.375
1.119999999999998,0.0,-2.0,-12.0,4.0,-4.0,-6.0,0.0,-2.0,-0.3873291015625,-0.287109375,0.63861083984375,0.5997314453125,-0.150390625,-0.84619140625,0.53759765625,-1.0,-3.1875,-1.0
1.124999999999998,0.0,-2.0,-12.0,4.0,-4.0,-6.0,0.0,-2.0,-0.3873291015625,-0.287109375,0.63861083984375,0.5997314453125,-0.150390625,-0.84619140625,0.53759765625,-1.0,-3.1875,-1.0
1.129999999999998,-1.0,1.0,-2.0,-11.0,0.0,2.0,1.0,1.0,-0.3873291015625,-0.287109375,0.63861083984375,0.5997314453125,-0.150390625,-0.84619140625,0.53759765625,-1.0,-3.1875,-1.0
1.1349999999999978,-1.0,-2.0,2.0,-3.0,-4.0,-4.0,-2.0,-2.0,-0.3873291015625,-0.287109375,0.63861083984375,0.5997314453125,-0.150390625,-0.84619140625,0.53759765625,-1.0,-3.1875,-1.0
1.1399999999999977,-1.0,-2.0,2.0,-3.0,-4.0,-4.0,-2.0,-2.0,-0.3873291015625,-0.287109375,0.63861083984375,0.5997314453125,-0.150390625,-0.84619140625,0.53759765625,-1.0,-3.1875,-1.0
1.1449999999999976,-1.0,-2.0,2.0,-3.0,-4.0,-4.0,-2.0,-2.0,-0.3870849609375,-0.28753662109375,0.638671875,0.599609375,-0.14599609375,-0.85107421875,0.54736328125,-0.6875,-2.375,-0.3125
1.1499999999999975,0.0,1.0,4.0,-3.0,-2.0,-4.0,-3.0,-1.0,-0.3870849609375,-0.28753662109375,0.638671875,0.599609375,-0.14599609375,-0.85107421875,0.54736328125,-0.6875,-2.375,-0.3125
1.1549999999999974,-1.0,-1.0,-17.0,0.0,0.0,-1.0,-1.0,0.0,-0.3870849609375,-0.28753662109375,0.638671875,0.599609375,-0.14599609375,-0.85107421875,0.54736328125,-0.6875,-2.375,-0.3125
1.1599999999999973,-1.0,-1.0,-17.0,0.0,0.0,-1.0,-1.0,0.0,-0.3870849609375,-0.28753662109375,0.638671875,0.599609375,-0.14599609375,-0.85107421875,0.54736328125,-0.6875,-2.375,-0.3125
1.1649999999999971,-1.0,-2.0,-1.0,1.0,1.0,1.0,-2.0,0.0,-0.38690185546875,-0.28778076171875,0.6387939453125,0.59954833984375,-0.1484375,-0.845703125,0.54443359375,-0.5,-1.9375,-0.1875
1.169999999999997,2.0,3.0,5.0,0.0,-1.0,-1.0,-1.0,1.0,-0.38690185546875,-0.28778076171875,0.6387939453125,0.59954833984375,-0.1484375,-0.845703125,0.54443359375,-0.5,-1.9375,-0.1875
1.174999999999997,2.0,3.0,5.0,0.0,-1.0,-1.0,-1.0,1.0,-0.38690185546875,-0.28778076171875,0.6387939453125,0.59954833984375,-0.1484375,-0.845703125,0.54443359375,-0.5,-1.9375,-0.1875
1.1799999999999968,2.0,3.0,5.0,0.0,-1.0,-1.0,-1.0,1.0,-0.38671875,-0.2880859375,0.6387939453125,0.5994873046875,-0.1474609375,-0.849609375,0.5546875,-1.0,-1.625,-0.4375
1.1849999999999967,2.0,3.0,5.0,0.0,-1.0,-1.0,-1.0,1.0,-0.38671875,-0.2880859375,0.6387939453125,0.5994873046875,-0.1474609375,-0.849609375,0.5546875,-1.0,-1.625,-0.4375
1.1899999999999966,-2.0,0.0,-5.0,4.0,6.0,0.0,0.0,-1.0,-0.38671875,-0.2880859375,0.6387939453125,0.5994873046875,-0.1474609375,-0.849609375,0.5546875,-1.0,-1.625,-0.4375
1.1949999999999965,-2.0,0.0,-5.0,4.0,6.0,0.0,0.0,-1.0,-0.38671875,-0.2880859375,0.6387939453125,0.5994873046875,-0.1474609375,-0.849609375,0.5546875,-1.0,-1.625,-0.4375
1.1999999999999964,-2.0,-3.0,2.0,10.0,-4.0,-3.0,-1.0,-1.0,-0.38671875,-0.2880859375,0.6387939453125,0.5994873046875,-0.1474609375,-0.849609375,0.5546875,-1.0,-1.625,-0.4375
1.2049999999999963,-2.0,-3.0,2.0,10.0,-4.0,-3.0,-1.0,-1.0,-0.38671875,-0.2880859375,0.6387939453125,0.5994873046875,-0.1474609375,-0.849609375,0.5546875,-1.0,-1.625,-0.4375
1.2099999999999962,-2.0,-3.0,2.0,10.0,-4.0,-3.0,-1.0,-1.0,-0.386474609375,-0.288330078125,0.6387939453125,0.5994873046875,-0.1396484375,-0.84765625,0.5556640625,-0.75,-1.0625,-0.1875
1.214999999999996,-2.0,-3.0,2.0,10.0,-4.0,-3.0,-1.0,-1.0,-0.386474609375,-0.288330078125,0.6387939453125,0.5994873046875,-0.1396484375,-0.84765625,0.5556640625,-0.75,-1.0625,-0.1875
1.219999999999996,-2.0,0.0,11.0,7.0,1.0,0.0,-1.0,-1.0,-0.386474609375,-0.288330078125,0.6387939453125,0.5994873046875,-0.1396484375,-0.84765625,0.5556640625,-0.75,-1.0625,-0.1875
1.2249999999999959,-2.0,0.0,11.0,7.0,1.0,0.0,-1.0,-1.0,-0.38629150390625,-0.2884521484375,0.638916015625,0.59942626953125,-0.1435546875,-0.841796875,0.552734375,-0.6875,-1.125,0.25
1.2299999999999958,-2.0,0.0,11.0,7.0,1.0,0.0,-1.0,-1.0,-0.38629150390625,-0.2884521484375,0.638916015625,0.59942626953125,-0.1435546875,-0.841796875,0.552734375,-0.6875,-1.125,0.25
1.2349999999999957,-1.0,-3.0,2.0,4.0,-2.0,-1.0,2.0,-1.0,-0.38629150390625,-0.2884521484375,0.638916015625,0.59942626953125,-0.1435546875,-0.841796875,0.552734375,-0.6875,-1.125,0.25
1.2399999999999956,-1.0,-3.0,2.0,4.0,-2.0,-1.0,2.0,-1.0,-0.38629150390625,-0.2884521484375,0.638916015625,0.59942626953125,-0.1435546875,-0.841796875,0.552734375,-0.6875,-1.125,0.25
1.2449999999999954,2.0,1.0,-20.0,-23.0,-2.0,-3.0,0.0,-1.0,-0.38629150390625,-0.2884521484375,0.638916015625,0.59942626953125,-0.1435546875,-0.841796875,0.552734375,-0.6875,-1.125,0.25
1.2499999999999953,2.0,1.0,-20.0,-23.0,-2.0,-3.0,0.0,-1.0,-0.38629150390625,-0.2884521484375,0.638916015625,0.59942626953125,-0.1435546875,-0.841796875,0.552734375,-0.6875,-1.125,0.25
1.2549999999999952,2.0,1.0,-20.0,-23.0,-2.0,-3.0,0.0,-1.0,-0.3863525390625,-0.2886962890625,0.638916015625,0.59930419921875,-0.14794921875,-0.84375,0.55078125,-1.8125,-0.8125,0.0
1.2599999999999951,2.0,1.0,-20.0,-23.0,-2.0,-3.0,0.0,-1.0,-0.3863525390625,-0.2886962890625,0.638916015625,0.59930419921875,-0.14794921875,-0.84375,0.55078125,-1.8125,-0.8125,0.0
1.264999999999995,-3.0,-2.0,20.0,-1.0,-4.0,-2.0,-3.0,-2.0,-0.3863525390625,-0.2886962890625,0.638916015625,0.59930419921875,-0.14794921875,-0.84375,0.55078125,-1.8125,-0.8125,0.0
1.269999999999995,-3.0,-2.0,20.0,-1.0,-4.0,-2.0,-3.0,-2.0,-0.3863525390625,-0.2886962890625,0.638916015625,0.59930419921875,-0.14794921875,-0.84375,0.55078125,-1.8125,-0.8125,0.0
1.2749999999999948,-1.0,-1.0,6.0,0.0,-3.0,-3.0,-1.0,-2.0,-0.3863525390625,-0.2886962890625,0.638916015625,0.59930419921875,-0.14794921875,-0.84375,0.55078125,-1.8125,-0.8125,0.0
1.2799999999999947,-1.0,-1.0,6.0,0.0,-3.0,-3.0,-1.0,-2.0,-0.3863525390625,-0.2886962890625,0.638916015625,0.59930419921875,-0.14794921875,-0.84375,0.55078125,-1.8125,-0.8125,0.0
1.2849999999999946,-1.0,-1.0,6.0,0.0,-3.0,-3.0,-1.0,-2.0,-0.3863525390625,-0.28900146484375,0.63885498046875,0.5992431640625,-0.14794921875,-0.85693359375,0.55859375,-1.875,-0.75,-0.25
1.2899999999999945,-1.0,-1.0,6.0,0.0,-3.0,-3.0,-1.0,-2.0,-0.3863525390625,-0.28900146484375,0.63885498046875,0.5992431640625,-0.14794921875,-0.85693359375,0.55859375,-1.875,-0.75,-0.25
1.2949999999999944,0.0,2.0,12.0,16.0,5.0,4.0,3.0,1.0,-0.3863525390625,-0.28900146484375,0.63885498046875,0.5992431640625,-0.14794921875,-0.85693359375,0.55859375,-1.875,-0.75,-0.25
1.2999999999999943,-3.0,-6.0,9.0,6.0,-1.0,-2.0,-2.0,-1.0,-0.3863525390625,-0.28900146484375,0.63885498046875,0.5992431640625,-0.14794921875,-0.85693359375,0.55859375,-1.875,-0.75,-0.25
1.3049999999999942,-3.0,-6.0,9.0,6.0,-1.0,-2.0,-2.0,-1.0,-0.3863525390625,-0.28900146484375,0.63885498046875,0.5992431640625,-0.1484375,-0.85888671875,0.55517578125,0.1875,-0.9375,-0.3125
1.309999999999994,-3.0,-6.0,9.0,6.0,-1.0,-2.0,-2.0,-1.0,-0.3863525390625,-0.28900146484375,0.63885498046875,0.5992431640625,-0.1484375,-0.85888671875,0.55517578125,0.1875,-0.9375,-0.3125
1.314999999999994,1.0,2.0,-1.0,-4.0,-2.0,-5.0,0.0,-1.0,-0.3863525390625,-0.28900146484375,0.63885498046875,0.5992431640625,-0.1484375,-0.85888671875,0.55517578125,0.1875,-0.9375,-0.3125
1.3199999999999938,1.0,2.0,-1.0,-4.0,-2.0,-5.0,0.0,-1.0,-0.3863525390625,-0.28900146484375,0.63885498046875,0.5992431640625,-0.1484375,-0.85888671875,0.55517578125,0.1875,-0.9375,-0.3125
1.3249999999999937,1.0,1.0,-10.0,-4.0,2.0,3.0,1.0,1.0,-0.3863525390625,-0.28900146484375,0.63885498046875,0.5992431640625,-0.1484375,-0.85888671875,0.55517578125,0.1875,-0.9375,-0.3125
1.3299999999999936,1.0,1.0,-10.0,-4.0,2.0,3.0,1.0,1.0,-0.3863525390625,-0.28900146484375,0.63885498046875,0.5992431640625,-0.1484375,-0.85888671875,0.55517578125,0.1875,-0.9375,-0.3125
1.3349999999999935,1.0,1.0,-10.0,-4.0,2.0,3.0,1.0,1.0,-0.3863525390625,-0.28900146484375,0.63885498046875,0.5992431640625,-0.1484375,-0.85888671875,0.55517578125,0.1875,-0.9375,-0.3125
1.3399999999999934,1.0,1.0,-10.0,-4.0,2.0,3.0,1.0,1.0,-0.3863525390625,-0.28900146484375,0.63885498046875,0.5992431640625,-0.1484375,-0.85888671875,0.55517578125,0.1875,-0.9375,-0.3125
1.3449999999999933,0.0,2.0,-1.0,1.0,0.0,-2.0,-3.0,-1.0,-0.38604736328125,-0.2890625,0.638916015625,0.59930419921875,-0.14794921875,-0.84716796875,0.54736328125,0.8125,-1.125,-0.6875
1.3499999999999932,0.0,2.0,-1.0,1.0,0.0,-2.0,-3.0,-1.0,-0.38604736328125,-0.2890625,0.638916015625,0.59930419921875,-0.14794921875,-0.84716796875,0.54736328125,0.8125,-1.125,-0.6875
1.354999999999993,-3.0,-6.0,5.0,-12.0,-3.0,1.0,-3.0,-3.0,-0.38604736328125,-0.2890625,0.638916015625,0.59930419921875,-0.14794921875,-0.84716796875,0.54736328125,0.8125,-1.125,-0.6875
1.359999999999993,-3.0,-6.0,5.0,-12.0,-3.0,1.0,-3.0,-3.0,-0.38604736328125,-0.2890625,0.638916015625,0.59930419921875,-0.14794921875,-0.84716796875,0.54736328125,0.8125,-1.125,-0.6875
1.3649999999999929,-3.0,-6.0,5.0,-12.0,-3.0,1.0,-3.0,-3.0,-0.38604736328125,-0.2890625,0.638916015625,0.59930419921875,-0.14599609375,-0.845703125,0.5537109375,0.1875,-1.0,-0.8125
1.3699999999999928,-3.0,-6.0,5.0,-12.0,-3.0,1.0,-3.0,-3.0,-0.38604736328125,-0.2890625,0.638916015625,0.59930419921875,-0.14599609375,-0.845703125,0.5537109375,0.1875,-1.0,-0.8125
1.3749999999999927,-2.0,-5.0,-8.0,9.0,-2.0,-2.0,-4.0,-3.0,-0.38604736328125,-0.2890625,0.638916015625,0.59930419921875,-0.14599609375,-0.845703125,0.5537109375,0.1875,-1.0,-0.8125
1.3799999999999926,-2.0,-5.0,-8.0,9.0,-2.0,-2.0,-4.0,-3.0,-0.38604736328125,-0.2890625,0.638916015625,0.59930419921875,-0.14599609375,-0.845703125,0.5537109375,0.1875,-1.0,-0.8125
1.3849999999999925,-2.0,-5.0,-8.0,9.0,-2.0,-2.0,-4.0,-3.0,-0.385986328125,-0.28924560546875,0.63885498046875,0.59930419921875,-0.1455078125,-0.84130859375,0.548828125,-1.3125,-0.625,-0.5
1.3899999999999924,-2.0,-5.0,-8.0,9.0,-2.0,-2.0,-4.0,-3.0,-0.385986328125,-0.28924560546875,0.63885498046875,0.59930419921875,-0.1455078125,-0.84130859375,0.548828125,-1.3125,-0.625,-0.5
1.3949999999999922,-2.0,-3.0,2.0,-6.0,0.0,-2.0,-2.0,-1.0,-0.385986328125,-0.28924560546875,0.63885498046875,0.59930419921875,-0.1455078125,-0.84130859375,0.548828125,-1.3125,-0.625,-0.5
1.3999999999999921,-2.0,-3.0,2.0,-6.0,0.0,-2.0,-2.0,-1.0,-0.385986328125,-0.28924560546875,0.63885498046875,0.59930419921875,-0.1455078125,-0.84130859375,0.548828125,-1.3125,-0.625,-0.5
1.404999999999992,-1.0,1.0,-2.0,-8.0,-4.0,2.0,-1.0,0.0,-0.385986328125,-0.28924560546875,0.63885498046875,0.59930419921875,-0.1455078125,-0.84130859375,0.548828125,-1.3125,-0.625,-0.5
1.409999999999992,-1.0,1.0,-2.0,-8.0,-4.0,2.0,-1.0,0.0,-0.385986328125,-0.28924560546875,0.63885498046875,0.59930419921875,-0.1455078125,-0.84130859375,0.548828125,-1.3125,-0.625,-0.5
1.4149999999999918,-1.0,1.0,-2.0,-8.0,-4.0,2.0,-1.0,0.0,-0.38604736328125,-0.28955078125,0.6387939453125,0.5992431640625,-0.1455078125,-0.8505859375,0.54931640625,-1.75,-0.75,-0.3125
1.4199999999999917,-1.0,1.0,-2.0,-8.0,-4.0,2.0,-1.0,0.0,-0.38604736328125,-0.28955078125,0.6387939453125,0.5992431640625,-0.1455078125,-0.8505859375,0.54931640625,-1.75,-0.75,-0.3125
1.4249999999999916,-1.0,-1.0,4.0,0.0,1.0,-2.0,-2.0,-2.0,-0.38604736328125,-0.28955078125,0.6387939453125,0.5992431640625,-0.1455078125,-0.8505859375,0.54931640625,-1.75,-0.75,-0.3125
1.4299999999999915,-1.0,-1.0,4.0,0.0,1.0,-2.0,-2.0,-2.0,-0.38604736328125,-0.28955078125,0.6387939453125,0.5992431640625,-0.1455078125,-0.8505859375,0.54931640625,-1.75,-0.75,-0.3125
1.4349999999999914,-1.0,-1.0,4.0,0.0,1.0,-2.0,-2.0,-2.0,-0.38604736328125,-0.28955078125,0.6387939453125,0.5992431640625,-0.1455078125,-0.8505859375,0.54931640625,-1.75,-0.75,-0.3125
1.4399999999999913,-1.0,-1.0,4.0,0.0,1.0,-2.0,-2.0,-2.0,-0.38604736328125,-0.28955078125,0.6387939453125,0.5992431640625,-0.1455078125,-0.8505859375,0.54931640625,-1.75,-0.75,-0.3125
1.4449999999999912,0.0,0.0,-2.0,15.0,2.0,-1.0,-1.0,-1.0,-0.385986328125,-0.28955078125,0.6387939453125,0.5992431640625,-0.14208984375,-0.84814453125,0.5458984375,-0.25,-0.4375,-0.125
1.449999999999991,0.0,0.0,-2.0,15.0,2.0,-1.0,-1.0,-1.0,-0.385986328125,-0.28955078125,0.6387939453125,0.5992431640625,-0.14208984375,-0.84814453125,0.5458984375,-0.25,-0.4375,-0.125
1.454999999999991,-2.0,-4.0,-18.0,3.0,0.0,3.0,0.0,1.0,-0.385986328125,-0.28955078125,0.6387939453125,0.5992431640625,-0.14208984375,-0.84814453125,0.5458984375,-0.25,-0.4375,-0.125
1.4599999999999909,-2.0,-4.0,-18.0,3.0,0.0,3.0,0.0,1.0,-0.385986328125,-0.28955078125,0.6387939453125,0.5992431640625,-0.14208984375,-0.84814453125,0.5458984375,-0.25,-0.4375,-0.125
1.4649999999999908,0.0,1.0,-2.0,8.0,0.0,1.0,0.0,0.0,-0.385986328125,-0.28955078125,0.6387939453125,0.5992431640625,-0.14208984375,-0.84814453125,0.5458984375,-0.25,-0.4375,-0.125
1.4699999999999906,0.0,1.0,-2.0,8.0,0.0,1.0,0.0,0.0,-0.385986328125,-0.28955078125,0.6387939453125,0.5992431640625,-0.14208984375,-0.84814453125,0.5458984375,-0.25,-0.4375,-0.125
1.4749999999999905,1.0,0.0,-2.0,-2.0,-4.0,-2.0,-1.0,-3.0,-0.385986328125,-0.28955078125,0.6387939453125,0.5992431640625,-0.14697265625,-0.85009765625,0.5478515625,0.875,-0.3125,-0.125
1.4799999999999904,-2.0,0.0,7.0,2.0,-1.0,-2.0,0.0,-3.0,-0.385986328125,-0.28955078125,0.6387939453125,0.5992431640625,-0.14697265625,-0.85009765625,0.5478515625,0.875,-0.3125,-0.125
1.4849999999999903,-2.0,0.0,7.0,2.0,-1.0,-2.0,0.0,-3.0,-0.385986328125,-0.28955078125,0.6387939453125,0.5992431640625,-0.14697265625,-0.85009765625,0.5478515625,0.875,-0.3125,-0.125
1.4899999999999902,-2.0,0.0,7.0,2.0,-1.0,-2.0,0.0,-3.0,-0.385986328125,-0.28955078125,0.6387939453125,0.5992431640625,-0.14794921875,-0.841796875,0.55126953125,0.0,-0.25,-0.625
1.4949999999999901,0.0,1.0,15.0,-26.0,-1.0,-2.0,-1.0,-1.0,-0.385986328125,-0.28955078125,0.6387939453125,0.5992431640625,-0.14794921875,-0.841796875,0.55126953125,0.0,-0.25,-0.625
1.49999999999999,0.0,2.0,13.0,-5.0,3.0,1.0,1.0,0.0,-0.385986328125,-0.28955078125,0.6387939453125,0.5992431640625,-0.14794921875,-0.841796875,0.55126953125,0.0,-0.25,-0.625
1.50499999999999,0.0,2.0,13.0,-5.0,3.0,1.0,1.0,0.0,-0.385986328125,-0.28955078125,0.6387939453125,0.5992431640625,-0.14794921875,-0.841796875,0.55126953125,0.0,-0.25,-0.625
1.5099999999999898,0.0,2.0,13.0,-5.0,3.0,1.0,1.0,0.0,-0.385986328125,-0.28955078125,0.6387939453125,0.5992431640625,-0.14794921875,-0.841796875,0.55126953125,0.0,-0.25,-0.625
1.5149999999999897,0.0,2.0,13.0,-5.0,3.0,1.0,1.0,0.0,-0.3861083984375,-0.28973388671875,0.638671875,0.59918212890625,-0.1484375,-0.853515625,0.55322265625,-1.75,0.0625,-0.4375
1.5199999999999896,0.0,2.0,13.0,-5.0,3.0,1.0,1.0,0.0,-0.3861083984375,-0.28973388671875,0.638671875,0.59918212890625,-0.1484375,-0.853515625,0.55322265625,-1.75,0.0625,-0.4375
1.5249999999999895,-1.0,-2.0,-13.0,-17.0,-2.0,-1.0,0.0,-1.0,-0.3861083984375,-0.28973388671875,0.638671875,0.59918212890625,-0.1484375,-0.853515625,0.55322265625,-1.75,0.0625,-0.4375
1.5299999999999894,-1.0,1.0,6.0,-2.0,3.0,2.0,0.0,1.0,-0.3861083984375,-0.28973388671875,0.638671875,0.59918212890625,-0.1484375,-0.853515625,0.55322265625,-1.75,0.0625,-0.4375
1.5349999999999893,-1.0,1.0,6.0,-2.0,3.0,2.0,0.0,1.0,-0.3861083984375,-0.28973388671875,0.638671875,0.59918212890625,-0.1484375,-0.853515625,0.55322265625,-1.75,0.0625,-0.4375
1.5399999999999892,0.0,0.0,5.0,16.0,1.0,-1.0,-1.0,-2.0,-0.3861083984375,-0.28985595703125,0.63861083984375,0.59918212890625,-0.14892578125,-0.85302734375,0.55126953125,-1.0625,-0.1875,-0.3125
1.544999999999989,-2.0,-3.0,2.0,-23.0,-3.0,-3.0,-1.0,-2.0,-0.3861083984375,-0.28985595703125,0.63861083984375,0.59918212890625,-0.14892578125,-0.85302734375,0.55126953125,-1.0625,-0.1875,-0.3125
1.549999999999989,-2.0,-3.0,2.0,-23.0,-3.0,-3.0,-1.0,-2.0,-0.3861083984375,-0.28985595703125,0.63861083984375,0.59918212890625,-0.14892578125,-0.85302734375,0.55126953125,-1.0625,-0.1875,-0.3125
1.5549999999999888,-2.0,-3.0,2.0,-23.0,-3.0,-3.0,-1.0,-2.0,-0.3861083984375,-0.28985595703125,0.63861083984375,0.59918212890625,-0.14794921875,-0.85205078125,0.544921875,0.0,0.1875,-0.3125
1.5599999999999887,-2.0,-3.0,2.0,-23.0,-3.0,-3.0,-1.0,-2.0,-0.3861083984375,-0.28985595703125,0.63861083984375,0.59918212890625,-0.14794921875,-0.85205078125,0.544921875,0.0,0.1875,-0.3125
1.5649999999999886,0.0,0.0,-5.0,1.0,0.0,0.0,1.0,0.0,-0.3861083984375,-0.28985595703125,0.63861083984375,0.59918212890625,-0.14794921875,-0.85205078125,0.544921875,0.0,0.1875,-0.3125
1.5699999999999885,-1.0,-1.0,4.0,5.0,0.0,-3.0,-1.0,-1.0,-0.3861083984375,-0.28985595703125,0.63861083984375,0.59918212890625,-0.14794921875,-0.85205078125,0.544921875,0.0,0.1875,-0.3125
1.5749999999999884,-1.0,-3.0,-3.0,2.0,0.0,1.0,0.0,-2.0,-0.3861083984375,-0.28985595703125,0.63861083984375,0.59918212890625,-0.14794921875,-0.85205078125,0.544921875,0.0,0.1875,-0.3125
1.5799999999999883,-1.0,-3.0,-3.0,2.0,0.0,1.0,0.0,-2.0,-0.3861083984375,-0.28985595703125,0.63861083984375,0.59918212890625,-0.15283203125,-0.84912109375,0.544921875,0.4375,0.875,-0.1875
1.5849999999999882,-1.0,-3.0,-3.0,2.0,0.0,1.0,0.0,-2.0,-0.3861083984375,-0.28985595703125,0.63861083984375,0.59918212890625,-0.15283203125,-0.84912109375,0.544921875,0.4375,0.875,-0.1875
1.589999999999988,0.0,0.0,0.0,-18.0,-2.0,1.0,0.0,-2.0,-0.3861083984375,-0.28985595703125,0.63861083984375,0.59918212890625,-0.15283203125,-0.84912109375,0.544921875,0.4375,0.875,-0.1875
1.594999999999988,-1.0,-3.0,2.0,3.0,-6.0,-5.0,-3.0,-2.0,-0.3861083984375,-0.28985595703125,0.63861083984375,0.59918212890625,-0.15283203125,-0.84912109375,0.544921875,0.4375,0.875,-0.1875
1.5999999999999879,0.0,2.0,8.0,7.0,1.0,1.0,0.0,0.0,-0.3861083984375,-0.28985595703125,0.63861083984375,0.59918212890625,-0.15283203125,-0.84912109375,0.544921875,0.4375,0.875,-0.1875
1.6049999999999878,0.0,2.0,8.0,7.0,1.0,1.0,0.0,0.0,-0.3861083984375,-0.28985595703125,0.63861083984375,0.59918212890625,-0.15283203125,-0.84912109375,0.544921875,0.4375,0.875,-0.1875
1.6099999999999877,0.0,2.0,8.0,7.0,1.0,1.0,0.0,0.0,-0.38616943359375,-0.28985595703125,0.63861083984375,0.59918212890625,-0.1494140625,-0.85009765625,0.53857421875,0.5625,0.625,0.125
1.6149999999999876,0.0,2.0,8.0,7.0,1.0,1.0,0.0,0.0,-0.38616943359375,-0.28985595703125,0.63861083984375,0.59918212890625,-0.1494140625,-0.85009765625,0.53857421875,0.5625,0.625,0.125
1.6199999999999875,-1.0,-2.0,-4.0,0.0,-3.0,-2.0,-1.0,-3.0,-0.38616943359375,-0.28985595703125,0.63861083984375,0.59918212890625,-0.1494140625,-0.85009765625,0.53857421875,0.5625,0.625,0.125
1.6249999999999873,-1.0,-2.0,-4.0,0.0,-3.0,-2.0,-1.0,-3.0,-0.38616943359375,-0.28985595703125,0.63861083984375,0.59918212890625,-0.1494140625,-0.85009765625,0.53857421875,0.5625,0.625,0.125
1.6299999999999872,-1.0,-2.0,-4.0,0.0,-3.0,-2.0,-1.0,-3.0,-0.38616943359375,-0.28985595703125,0.63861083984375,0.59918212890625,-0.1513671875,-0.849609375,0.54443359375,-0.0625,0.6875,-0.0625
1.6349999999999871,-1.0,-1.0,1.0,-11.0,2.0,0.0,-1.0,0.0,-0.38616943359375,-0.28985595703125,0.63861083984375,0.59918212890625,-0.1513671875,-0.849609375,0.54443359375,-0.0625,0.6875,-0.0625
1.639999999999987,-1.0,-1.0,1.0,-11.0,2.0,0.0,-1.0,0.0,-0.38616943359375,-0.28985595703125,0.63861083984375,0.59918212890625,-0.1513671875,-0.849609375,0.54443359375,-0.0625,0.6875,-0.0625
1.644999999999987,-1.0,0.0,-10.0,1.0,0.0,-2.0,-3.0,0.0,-0.38616943359375,-0.28985595703125,0.63861083984375,0.59918212890625,-0.1513671875,-0.849609375,0.54443359375,-0.0625,0.6875,-0.0625
1.6499999999999868,-1.0,0.0,-10.0,1.0,0.0,-2.0,-3.0,0.0,-0.38616943359375,-0.28985595703125,0.63861083984375,0.59918212890625,-0.1513671875,-0.849609375,0.54443359375,-0.0625,0.6875,-0.0625
1.6549999999999867,-1.0,0.0,-10.0,1.0,0.0,-2.0,-3.0,0.0,-0.3863525390625,-0.28997802734375,0.638427734375,0.59918212890625,-0.14453125,-0.8515625,0.53955078125,-1.1875,0.9375,-0.0625
1.6599999999999866,-1.0,-2.0,-13.0,8.0,-2.0,-3.0,1.0,-2.0,-0.3863525390625,-0.28997802734375,0.638427734375,0.59918212890625,-0.14453125,-0.8515625,0.53955078125,-1.1875,0.9375,-0.0625
1.6649999999999865,-1.0,-2.0,-13.0,8.0,-2.0,-3.0,1.0,-2.0,-0.3863525390625,-0.28997802734375,0.638427734375,0.59918212890625,-0.14453125,-0.8515625,0.53955078125,-1.1875,0.9375,-0.0625
1.6699999999999864,-3.0,-2.0,-14.0,9.0,-4.0,-2.0,-1.0,-2.0,-0.3863525390625,-0.28997802734375,0.638427734375,0.59918212890625,-0.14453125,-0.8515625,0.53955078125,-1.1875,0.9375,-0.0625
1.6749999999999863,-3.0,-2.0,-14.0,9.0,-4.0,-2.0,-1.0,-2.0,-0.3863525390625,-0.28997802734375,0.638427734375,0.59918212890625,-0.14453125,-0.8515625,0.53955078125,-1.1875,0.9375,-0.0625
1.6799999999999862,-3.0,-2.0,-14.0,9.0,-4.0,-2.0,-1.0,-2.0,-0.3863525390625,-0.28997802734375,0.638427734375,0.59918212890625,-0.1455078125,-0.85205078125,0.54296875,0.6875,0.8125,0.375
1.684999999999986,-3.0,-2.0,-14.0,9.0,-4.0,-2.0,-1.0,-2.0,-0.3863525390625,-0.28997802734375,0.638427734375,0.59918212890625,-0.1455078125,-0.85205078125,0.54296875,0.6875,0.8125,0.375
1.689999999999986,-1.0,-1.0,2.0,1.0,1.0,-1.0,-1.0,-2.0,-0.3863525390625,-0.28997802734375,0.638427734375,0.59918212890625,-0.1455078125,-0.85205078125,0.54296875,0.6875,0.8125,0.375
1.6949999999999859,-1.0,-1.0,2.0,1.0,1.0,-1.0,-1.0,-2.0,-0.38641357421875,-0.28997802734375,0.638427734375,0.59912109375,-0.15283203125,-0.84423828125,0.5361328125,0.75,0.8125,0.4375
1.6999999999999857,-1.0,-1.0,2.0,1.0,1.0,-1.0,-1.0,-2.0,-0.38641357421875,-0.28997802734375,0.638427734375,0.59912109375,-0.15283203125,-0.84423828125,0.5361328125,0.75,0.8125,0.4375
1.7049999999999856,-1.0,-1.0,2.0,1.0,1.0,-1.0,-1.0,-2.0,-0.38641357421875,-0.28997802734375,0.638427734375,0.59912109375,-0.15283203125,-0.84423828125,0.5361328125,0.75,0.8125,0.4375
1.7099999999999855,-2.0,-2.0,-20.0,-9.0,-2.0,-2.0,-2.0,-1.0,-0.38641357421875,-0.28997802734375,0.638427734375,0.59912109375,-0.15283203125,-0.84423828125,0.5361328125,0.75,0.8125,0.4375
1.7149999999999854,-2.0,-2.0,-20.0,-9.0,-2.0,-2.0,-2.0,-1.0,-0.38641357421875,-0.28997802734375,0.638427734375,0.59912109375,-0.15283203125,-0.84423828125,0.5361328125,0.75,0.8125,0.4375
1.7199999999999853,-1.0,0.0,0.0,7.0,6.0,5.0,4.0,1.0,-0.38641357421875,-0.28997802734375,0.638427734375,0.59912109375,-0.15283203125,-0.84423828125,0.5361328125,0.75,0.8125,0.4375
1.7249999999999852,-1.0,0.0,0.0,7.0,6.0,5.0,4.0,1.0,-0.38641357421875,-0.28997802734375,0.638427734375,0.59912109375,-0.15283203125,-0.84423828125,0.5361328125,0.75,0.8125,0.4375
1.729999999999985,-1.0,0.0,0.0,7.0,6.0,5.0,4.0,1.0,-0.38641357421875,-0.2899169921875,0.638427734375,0.59912109375,-0.15185546875,-0.8466796875,0.546875,-0.1875,0.3125,0.3125
1.734999999999985,0.0,1.0,-15.0,4.0,0.0,-1.0,-3.0,0.0,-0.38641357421875,-0.2899169921875,0.638427734375,0.59912109375,-0.15185546875,-0.8466796875,0.546875,-0.1875,0.3125,0.3125
1.739999999999985,0.0,1.0,-15.0,4.0,0.0,-1.0,-3.0,0.0,-0.38641357421875,-0.2899169921875,0.638427734375,0.59912109375,-0.15185546875,-0.8466796875,0.546875,-0.1875,0.3125,0.3125
1.7449999999999848,0.0,1.0,-6.0,-21.0,-4.0,-2.0,-3.0,-1.0,-0.38641357421875,-0.2899169921875,0.638427734375,0.59912109375,-0.15185546875,-0.8466796875,0.546875,-0.1875,0.3125,0.3125
1.7499999999999847,0.0,1.0,-6.0,-21.0,-4.0,-2.0,-3.0,-1.0,-0.38641357421875,-0.2899169921875,0.638427734375,0.59912109375,-0.15185546875,-0.8466796875,0.546875,-0.1875,0.3125,0.3125
1.7549999999999846,0.0,1.0,-6.0,-21.0,-4.0,-2.0,-3.0,-1.0,-0.38641357421875,-0.2899169921875,0.638427734375,0.59912109375,-0.15185546875,-0.8466796875,0.546875,-0.1875,0.3125,0.3125
1.7599999999999845,0.0,1.0,-6.0,-21.0,-4.0,-2.0,-3.0,-1.0,-0.38641357421875,-0.2899169921875,0.63848876953125,0.59912109375,-0.15478515625,-0.84716796875,0.54150390625,0.1875,0.1875,0.3125
1.7649999999999844,-1.0,-2.0,6.0,1.0,-3.0,-4.0,-1.0,-1.0,-0.38641357421875,-0.2899169921875,0.63848876953125,0.59912109375,-0.15478515625,-0.84716796875,0.54150390625,0.1875,0.1875,0.3125
1.7699999999999843,-1.0,-2.0,6.0,1.0,-3.0,-4.0,-1.0,-1.0,-0.38641357421875,-0.2899169921875,0.638427734375,0.59912109375,-0.1533203125,-0.84814453125,0.53173828125,-0.9375,0.3125,0.375
1.7749999999999841,-1.0,-2.0,6.0,1.0,-3.0,-4.0,-1.0,-1.0,-0.38641357421875,-0.2899169921875,0.638427734375,0.59912109375,-0.1533203125,-0.84814453125,0.53173828125,-0.9375,0.3125,0.375
1.779999999999984,-1.0,-2.0,6.0,1.0,-3.0,-4.0,-1.0,-1.0,-0.38641357421875,-0.2899169921875,0.638427734375,0.59912109375,-0.1533203125,-0.84814453125,0.53173828125,-0.9375,0.3125,0.375
1.784999999999984,-1.0,-2.0,6.0,1.0,-3.0,-4.0,-1.0,-1.0,-0.38641357421875,-0.2899169921875,0.638427734375,0.59912109375,-0.1533203125,-0.84814453125,0.53173828125,-0.9375,0.3125,0.375
1.7899999999999838,-1.0,1.0,0.0,0.0,2.0,3.0,2.0,-1.0,-0.38641357421875,-0.2899169921875,0.638427734375,0.59912109375,-0.1533203125,-0.84814453125,0.53173828125,-0.9375,0.3125,0.375
1.7949999999999837,-1.0,1.0,0.0,0.0,2.0,3.0,2.0,-1.0,-0.386474609375,-0.28997802734375,0.638427734375,0.59912109375,-0.150390625,-0.8525390625,0.53125,-0.1875,0.125,0.6875
1.7999999999999836,-1.0,1.0,0.0,0.0,2.0,3.0,2.0,-1.0,-0.386474609375,-0.28997802734375,0.638427734375,0.59912109375,-0.150390625,-0.8525390625,0.53125,-0.1875,0.125,0.6875
1.8049999999999835,-2.0,-3.0,1.0,8.0,3.0,2.0,-1.0,-2.0,-0.386474609375,-0.28997802734375,0.638427734375,0.59912109375,-0.150390625,-0.8525390625,0.53125,-0.1875,0.125,0.6875
1.8099999999999834,-3.0,-7.0,-70.0,-34.0,-6.0,-5.0,-4.0,-2.0,-0.386474609375,-0.28997802734375,0.638427734375,0.59912109375,-0.150390625,-0.8525390625,0.53125,-0.1875,0.125,0.6875
1.8149999999999833,-3.0,-7.0,-70.0,-34.0,-6.0,-5.0,-4.0,-2.0,-0.386474609375,-0.28997802734375,0.638427734375,0.59912109375,-0.150390625,-0.8525390625,0.53125,-0.1875,0.125,0.6875
1.8199999999999832,-3.0,-7.0,-70.0,-34.0,-6.0,-5.0,-4.0,-2.0,-0.386474609375,-0.28997802734375,0.638427734375,0.59912109375,-0.15673828125,-0.84765625,0.53076171875,0.0625,0.6875,-0.0625
1.824999999999983,-3.0,-7.0,-70.0,-34.0,-6.0,-5.0,-4.0,-2.0,-0.386474609375,-0.28997802734375,0.638427734375,0.59912109375,-0.15673828125,-0.84765625,0.53076171875,0.0625,0.6875,-0.0625
1.829999999999983,1.0,-1.0,22.0,-15.0,-5.0,-4.0,-3.0,-1.0,-0.386474609375,-0.28997802734375,0.638427734375,0.59912109375,-0.15673828125,-0.84765625,0.53076171875,0.0625,0.6875,-0.0625
1.8349999999999829,1.0,-1.0,22.0,-15.0,-5.0,-4.0,-3.0,-1.0,-0.386474609375,-0.28997802734375,0.638427734375,0.59912109375,-0.15673828125,-0.84765625,0.53076171875,0.0625,0.6875,-0.0625
1.8399999999999828,1.0,-1.0,22.0,-15.0,-5.0,-4.0,-3.0,-1.0,-0.386474609375,-0.28997802734375,0.638427734375,0.59912109375,-0.15087890625,-0.85498046875,0.54296875,-0.6875,0.5,-0.125
1.8449999999999827,1.0,-1.0,22.0,-15.0,-5.0,-4.0,-3.0,-1.0,-0.386474609375,-0.28997802734375,0.638427734375,0.59912109375,-0.15087890625,-0.85498046875,0.54296875,-0.6875,0.5,-0.125
1.8499999999999825,-1.0,-1.0,-7.0,-27.0,-1.0,1.0,0.0,-1.0,-0.386474609375,-0.28997802734375,0.638427734375,0.59912109375,-0.15087890625,-0.85498046875,0.54296875,-0.6875,0.5,-0.125
1.8549999999999824,-1.0,-1.0,-7.0,-27.0,-1.0,1.0,0.0,-1.0,-0.386474609375,-0.28997802734375,0.638427734375,0.59912109375,-0.15087890625,-0.85498046875,0.54296875,-0.6875,0.5,-0.125
1.8599999999999823,0.0,-1.0,-9.0,10.0,-3.0,0.0,-1.0,-1.0,-0.386474609375,-0.28997802734375,0.638427734375,0.59912109375,-0.15087890625,-0.85498046875,0.54296875,-0.6875,0.5,-0.125
1.8649999999999822,0.0,-1.0,-9.0,10.0,-3.0,0.0,-1.0,-1.0,-0.386474609375,-0.28997802734375,0.638427734375,0.59912109375,-0.15087890625,-0.85498046875,0.54296875,-0.6875,0.5,-0.125
1.8699999999999821,0.0,-1.0,-9.0,10.0,-3.0,0.0,-1.0,-1.0,-0.386474609375,-0.28997802734375,0.638427734375,0.59906005859375,-0.15185546875,-0.85498046875,0.54150390625,0.125,0.0,0.0
1.874999999999982,-1.0,-2.0,1.0,-1.0,-2.0,-1.0,-1.0,-1.0,-0.386474609375,-0.28997802734375,0.638427734375,0.59906005859375,-0.15185546875,-0.85498046875,0.54150390625,0.125,0.0,0.0
1.879999999999982,-1.0,-2.0,1.0,-1.0,-2.0,-1.0,-1.0,-1.0,-0.386474609375,-0.28997802734375,0.638427734375,0.59906005859375,-0.15185546875,-0.85498046875,0.54150390625,0.125,0.0,0.0
1.8849999999999818,0.0,1.0,7.0,16.0,-1.0,3.0,1.0,0.0,-0.386474609375,-0.28997802734375,0.638427734375,0.59906005859375,-0.15185546875,-0.85498046875,0.54150390625,0.125,0.0,0.0
1.8899999999999817,0.0,1.0,7.0,16.0,-1.0,3.0,1.0,0.0,-0.386474609375,-0.28997802734375,0.638427734375,0.59906005859375,-0.15185546875,-0.85498046875,0.54150390625,0.125,0.0,0.0
1.8949999999999816,0.0,1.0,7.0,16.0,-1.0,3.0,1.0,0.0,-0.386474609375,-0.2899169921875,0.638427734375,0.59912109375,-0.1513671875,-0.84375,0.5498046875,0.3125,-0.4375,-0.25
1.8999999999999815,0.0,1.0,7.0,16.0,-1.0,3.0,1.0,0.0,-0.386474609375,-0.2899169921875,0.638427734375,0.59912109375,-0.1513671875,-0.84375,0.5498046875,0.3125,-0.4375,-0.25
1.9049999999999814,0.0,0.0,5.0,1.0,3.0,4.0,2.0,1.0,-0.386474609375,-0.2899169921875,0.638427734375,0.59912109375,-0.1513671875,-0.84375,0.5498046875,0.3125,-0.4375,-0.25
1.9099999999999813,-2.0,-1.0,10.0,12.0,-3.0,-4.0,-3.0,-1.0,-0.386474609375,-0.2899169921875,0.638427734375,0.59912109375,-0.1513671875,-0.84375,0.5498046875,0.3125,-0.4375,-0.25
1.9149999999999812,-2.0,-1.0,10.0,12.0,-3.0,-4.0,-3.0,-1.0,-0.38641357421875,-0.2901611328125,0.63848876953125,0.5989990234375,-0.15380859375,-0.8515625,0.548828125,-0.9375,-1.25,-0.5
1.919999999999981,-2.0,-1.0,10.0,12.0,-3.0,-4.0,-3.0,-1.0,-0.38641357421875,-0.2901611328125,0.63848876953125,0.5989990234375,-0.15380859375,-0.8515625,0.548828125,-0.9375,-1.25,-0.5
1.924999999999981,0.0,0.0,6.0,8.0,3.0,1.0,3.0,0.0,-0.38641357421875,-0.2901611328125,0.63848876953125,0.5989990234375,-0.15380859375,-0.8515625,0.548828125,-0.9375,-1.25,-0.5
1.9299999999999808,0.0,0.0,6.0,8.0,3.0,1.0,3.0,0.0,-0.38641357421875,-0.2901611328125,0.63848876953125,0.5989990234375,-0.15380859375,-0.8515625,0.548828125,-0.9375,-1.25,-0.5
1.9349999999999807,1.0,5.0,6.0,10.0,2.0,-1.0,1.0,-2.0,-0.38641357421875,-0.2901611328125,0.63848876953125,0.5989990234375,-0.15380859375,-0.8515625,0.548828125,-0.9375,-1.25,-0.5
1.9399999999999806,1.0,5.0,6.0,10.0,2.0,-1.0,1.0,-2.0,-0.38641357421875,-0.2901611328125,0.63848876953125,0.5989990234375,-0.15380859375,-0.8515625,0.548828125,-0.9375,-1.25,-0.5
1.9449999999999805,1.0,5.0,6.0,10.0,2.0,-1.0,1.0,-2.0,-0.38641357421875,-0.2901611328125,0.63848876953125,0.5989990234375,-0.15478515625,-0.859375,0.546875,0.5,-0.875,-0.3125
1.9499999999999804,1.0,5.0,6.0,10.0,2.0,-1.0,1.0,-2.0,-0.38641357421875,-0.2901611328125,0.63848876953125,0.5989990234375,-0.15478515625,-0.859375,0.546875,0.5,-0.875,-0.3125
1.9549999999999803,-2.0,0.0,-1.0,-3.0,-6.0,-7.0,-3.0,-1.0,-0.38641357421875,-0.2901611328125,0.63848876953125,0.5989990234375,-0.15478515625,-0.859375,0.546875,0.5,-0.875,-0.3125
1.9599999999999802,-2.0,0.0,-1.0,-3.0,-6.0,-7.0,-3.0,-1.0,-0.38641357421875,-0.2901611328125,0.63848876953125,0.5989990234375,-0.15478515625,-0.859375,0.546875,0.5,-0.875,-0.3125
1.96499999999998,-1.0,0.0,2.0,-4.0,1.0,1.0,1.0,0.0,-0.38641357421875,-0.2901611328125,0.63848876953125,0.5989990234375,-0.15478515625,-0.859375,0.546875,0.5,-0.875,-0.3125
1.96999999999998,-1.0,0.0,2.0,-4.0,1.0,1.0,1.0,0.0,-0.38641357421875,-0.2901611328125,0.63848876953125,0.5989990234375,-0.15478515625,-0.859375,0.546875,0.5,-0.875,-0.3125
1.9749999999999799,-1.0,0.0,2.0,-4.0,1.0,1.0,1.0,0.0,-0.38629150390625,-0.2900390625,0.63848876953125,0.59912109375,-0.15478515625,-0.8466796875,0.53759765625,1.4375,-0.4375,-0.625
1.9799999999999798,-1.0,0.0,2.0,-4.0,1.0,1.0,1.0,0.0,-0.38629150390625,-0.2900390625,0.63848876953125,0.59912109375,-0.15478515625,-0.8466796875,0.53759765625,1.4375,-0.4375,-0.625
1.9849999999999797,-3.0,-3.0,-1.0,-6.0,-4.0,-2.0,-1.0,-1.0,-0.38629150390625,-0.2900390625,0.63848876953125,0.59912109375,-0.15478515625,-0.8466796875,0.53759765625,1.4375,-0.4375,-0.625
1.9899999999999796,-3.0,-3.0,-1.0,-6.0,-4.0,-2.0,-1.0,-1.0,-0.38629150390625,-0.2900390625,0.63848876953125,0.59912109375,-0.15478515625,-0.8466796875,0.53759765625,1.4375,-0.4375,-0.625
1.9949999999999795,-3.0,-3.0,-1.0,-6.0,-4.0,-2.0,-1.0,-1.0,-0.38629150390625,-0.28997802734375,0.6385498046875,0.59912109375,-0.1552734375,-0.84423828125,0.53955078125,0.75,-0.6875,-0.25
1.9999999999999793,-3.0,-3.0,-1.0,-6.0,-4.0,-2.0,-1.0,-1.0,-0.38629150390625,-0.28997802734375,0.6385498046875,0.59912109375,-0.1552734375,-0.84423828125,0.53955078125,0.75,-0.6875,-0.25
2.0049999999999795,-2.0,0.0,20.0,-71.0,-8.0,-3.0,-2.0,-2.0,-0.38629150390625,-0.28997802734375,0.6385498046875,0.59912109375,-0.1552734375,-0.84423828125,0.53955078125,0.75,-0.6875,-0.25
2.0099999999999794,-2.0,0.0,20.0,-71.0,-8.0,-3.0,-2.0,-2.0,-0.38629150390625,-0.28997802734375,0.6385498046875,0.59912109375,-0.1552734375,-0.84423828125,0.53955078125,0.75,-0.6875,-0.25
2.0149999999999793,-2.0,0.0,20.0,-71.0,-8.0,-3.0,-2.0,-2.0,-0.38629150390625,-0.28997802734375,0.6385498046875,0.59912109375,-0.1552734375,-0.84423828125,0.53955078125,0.75,-0.6875,-0.25
2.019999999999979,-2.0,0.0,20.0,-71.0,-8.0,-3.0,-2.0,-2.0,-0.38629150390625,-0.28997802734375,0.6385498046875,0.59912109375,-0.1552734375,-0.84423828125,0.53955078125,0.75,-0.6875,-0.25
2.024999999999979,-2.0,2.0,25.0,20.0,4.0,2.0,1.0,0.0,-0.386474609375,-0.2901611328125,0.6385498046875,0.59893798828125,-0.15234375,-0.8525390625,0.54248046875,-1.5,-0.375,0.375
2.029999999999979,-1.0,-1.0,0.0,32.0,-4.0,-4.0,-3.0,1.0,-0.386474609375,-0.2901611328125,0.6385498046875,0.59893798828125,-0.15234375,-0.8525390625,0.54248046875,-1.5,-0.375,0.375
2.034999999999979,-1.0,-1.0,0.0,32.0,-4.0,-4.0,-3.0,1.0,-0.386474609375,-0.2901611328125,0.6385498046875,0.59893798828125,-0.15234375,-0.8525390625,0.54248046875,-1.5,-0.375,0.375
2.0399999999999787,0.0,-3.0,-2.0,-13.0,-2.0,-4.0,-1.0,-2.0,-0.386474609375,-0.2901611328125,0.6385498046875,0.59893798828125,-0.15234375,-0.8525390625,0.54248046875,-1.5,-0.375,0.375
2.0449999999999786,1.0,1.0,1.0,-13.0,0.0,0.0,1.0,0.0,-0.386474609375,-0.2901611328125,0.6385498046875,0.59893798828125,-0.15234375,-0.8525390625,0.54248046875,-1.5,-0.375,0.375
2.0499999999999785,1.0,1.0,1.0,-13.0,0.0,0.0,1.0,0.0,-0.386474609375,-0.2901611328125,0.63848876953125,0.598876953125,-0.14892578125,-0.85986328125,0.53369140625,-0.9375,-0.4375,0.375
2.0549999999999784,1.0,1.0,1.0,-13.0,0.0,0.0,1.0,0.0,-0.386474609375,-0.2901611328125,0.63848876953125,0.598876953125,-0.14892578125,-0.85986328125,0.53369140625,-0.9375,-0.4375,0.375
2.0599999999999783,-3.0,-2.0,-19.0,18.0,-1.0,-1.0,-3.0,-2.0,-0.386474609375,-0.2901611328125,0.63848876953125,0.598876953125,-0.14892578125,-0.85986328125,0.53369140625,-0.9375,-0.4375,0.375
2.064999999999978,-2.0,-3.0,-2.0,9.0,-2.0,-4.0,-3.0,-1.0,-0.386474609375,-0.2901611328125,0.63848876953125,0.598876953125,-0.14892578125,-0.85986328125,0.53369140625,-0.9375,-0.4375,0.375
2.069999999999978,-2.0,-3.0,-2.0,9.0,-2.0,-4.0,-3.0,-1.0,-0.386474609375,-0.2901611328125,0.63848876953125,0.598876953125,-0.14892578125,-0.85986328125,0.53369140625,-0.9375,-0.4375,0.375
2.074999999999978,-2.0,-3.0,-2.0,9.0,-2.0,-4.0,-3.0,-1.0,-0.38641357421875,-0.28997802734375,0.638671875,0.59893798828125,-0.1513671875,-0.84716796875,0.5439453125,1.3125,0.0,0.5625
2.079999999999978,-2.0,-7.0,-25.0,1.0,1.0,0.0,1.0,-1.0,-0.38641357421875,-0.28997802734375,0.638671875,0.59893798828125,-0.1513671875,-0.84716796875,0.5439453125,1.3125,0.0,0.5625
2.0849999999999778,-2.0,-7.0,-25.0,1.0,1.0,0.0,1.0,-1.0,-0.38641357421875,-0.28997802734375,0.638671875,0.59893798828125,-0.1513671875,-0.84716796875,0.5439453125,1.3125,0.0,0.5625
2.0899999999999777,-2.0,-3.0,-20.0,-14.0,0.0,-2.0,-1.0,-2.0,-0.38641357421875,-0.28997802734375,0.638671875,0.59893798828125,-0.1513671875,-0.84716796875,0.5439453125,1.3125,0.0,0.5625
2.0949999999999775,-2.0,-3.0,-20.0,-14.0,0.0,-2.0,-1.0,-2.0,-0.38641357421875,-0.28997802734375,0.638671875,0.59893798828125,-0.1513671875,-0.84716796875,0.5439453125,1.3125,0.0,0.5625
2.0999999999999774,-2.0,-3.0,-20.0,-14.0,0.0,-2.0,-1.0,-2.0,-0.38641357421875,-0.2899169921875,0.638671875,0.59893798828125,-0.1513671875,-0.84130859375,0.54638671875,-0.125,-0.875,0.4375
2.1049999999999773,-2.0,-3.0,-20.0,-14.0,0.0,-2.0,-1.0,-2.0,-0.38641357421875,-0.2899169921875,0.638671875,0.59893798828125,-0.1513671875,-0.84130859375,0.54638671875,-0.125,-0.875,0.4375
2.1099999999999772,-1.0,-1.0,12.0,-1.0,-1.0,0.0,0.0,-1.0,-0.38641357421875,-0.2899169921875,0.638671875,0.59893798828125,-0.1513671875,-0.84130859375,0.54638671875,-0.125,-0.875,0.4375
2.114999999999977,-1.0,-5.0,-17.0,-2.0,-4.0,-2.0,-1.0,0.0,-0.38641357421875,-0.2899169921875,0.638671875,0.59893798828125,-0.1513671875,-0.84130859375,0.54638671875,-0.125,-0.875,0.4375
2.119999999999977,-1.0,-5.0,-17.0,-2.0,-4.0,-2.0,-1.0,0.0,-0.38641357421875,-0.2899169921875,0.638671875,0.59893798828125,-0.1513671875,-0.84130859375,0.54638671875,-0.125,-0.875,0.4375
2.124999999999977,-1.0,-5.0,-17.0,-2.0,-4.0,-2.0,-1.0,0.0,-0.38623046875,-0.2900390625,0.63873291015625,0.598876953125,-0.1455078125,-0.85009765625,0.55224609375,-0.3125,-1.1875,0.0625
2.129999999999977,-1.0,-5.0,-17.0,-2.0,-4.0,-2.0,-1.0,0.0,-0.38623046875,-0.2900390625,0.63873291015625,0.598876953125,-0.1455078125,-0.85009765625,0.55224609375,-0.3125,-1.1875,0.0625
2.1349999999999767,1.0,-2.0,-28.0,-9.0,0.0,0.0,-2.0,0.0,-0.38623046875,-0.2900390625,0.63873291015625,0.598876953125,-0.1455078125,-0.85009765625,0.55224609375,-0.3125,-1.1875,0.0625
2.1399999999999766,1.0,-2.0,-28.0,-9.0,0.0,0.0,-2.0,0.0,-0.38623046875,-0.2900390625,0.63873291015625,0.598876953125,-0.1455078125,-0.85009765625,0.55224609375,-0.3125,-1.1875,0.0625
2.1449999999999765,0.0,-2.0,2.0,-1.0,2.0,2.0,0.0,-1.0,-0.3861083984375,-0.29022216796875,0.63885498046875,0.5987548828125,-0.150390625,-0.84814453125,0.54345703125,-0.5,-1.1875,0.1875
2.1499999999999764,0.0,-2.0,2.0,-1.0,2.0,2.0,0.0,-1.0,-0.3861083984375,-0.29022216796875,0.63885498046875,0.5987548828125,-0.150390625,-0.84814453125,0.54345703125,-0.5,-1.1875,0.1875
2.1549999999999763,0.0,-2.0,2.0,-1.0,2.0,2.0,0.0,-1.0,-0.3861083984375,-0.29022216796875,0.63885498046875,0.5987548828125,-0.150390625,-0.84814453125,0.54345703125,-0.5,-1.1875,0.1875
2.159999999999976,0.0,-1.0,-15.0,-13.0,0.0,0.0,0.0,-1.0,-0.3861083984375,-0.29022216796875,0.63885498046875,0.5987548828125,-0.150390625,-0.84814453125,0.54345703125,-0.5,-1.1875,0.1875
2.164999999999976,0.0,-1.0,-15.0,-13.0,0.0,0.0,0.0,-1.0,-0.385986328125,-0.2904052734375,0.638916015625,0.59869384765625,-0.146484375,-0.8486328125,0.54150390625,-0.375,-1.6875,0.0
2.169999999999976,1.0,3.0,-7.0,0.0,-2.0,1.0,-1.0,-1.0,-0.385986328125,-0.2904052734375,0.638916015625,0.59869384765625,-0.146484375,-0.8486328125,0.54150390625,-0.375,-1.6875,0.0
2.174999999999976,1.0,3.0,-7.0,0.0,-2.0,1.0,-1.0,-1.0,-0.385986328125,-0.2904052734375,0.638916015625,0.59869384765625,-0.146484375,-0.8486328125,0.54150390625,-0.375,-1.6875,0.0
2.1799999999999757,0.0,0.0,15.0,13.0,0.0,-1.0,-3.0,-2.0,-0.385986328125,-0.2904052734375,0.638916015625,0.59869384765625,-0.146484375,-0.8486328125,0.54150390625,-0.375,-1.6875,0.0
2.1849999999999756,0.0,0.0,15.0,13.0,0.0,-1.0,-3.0,-2.0,-0.385986328125,-0.2904052734375,0.638916015625,0.59869384765625,-0.146484375,-0.8486328125,0.54150390625,-0.375,-1.6875,0.0
2.1899999999999755,0.0,0.0,15.0,13.0,0.0,-1.0,-3.0,-2.0,-0.385986328125,-0.2904052734375,0.638916015625,0.59869384765625,-0.146484375,-0.8486328125,0.54150390625,-0.375,-1.6875,0.0
2.1949999999999754,0.0,0.0,15.0,13.0,0.0,-1.0,-3.0,-2.0,-0.3856201171875,-0.29058837890625,0.6390380859375,0.59869384765625,-0.14404296875,-0.84326171875,0.546875,0.375,-1.875,-0.25
2.1999999999999753,-1.0,-1.0,-14.0,2.0,-3.0,-4.0,-2.0,-1.0,-0.3856201171875,-0.29058837890625,0.6390380859375,0.59869384765625,-0.14404296875,-0.84326171875,0.546875,0.375,-1.875,-0.25
2.204999999999975,-1.0,-1.0,-14.0,2.0,-3.0,-4.0,-2.0,-1.0,-0.38543701171875,-0.290771484375,0.63916015625,0.5986328125,-0.1484375,-0.84765625,0.54541015625,0.0625,-1.8125,-0.3125
2.209999999999975,-1.0,-1.0,-14.0,2.0,-3.0,-4.0,-2.0,-1.0,-0.38543701171875,-0.290771484375,0.63916015625,0.5986328125,-0.1484375,-0.84765625,0.54541015625,0.0625,-1.8125,-0.3125
2.214999999999975,-1.0,-4.0,8.0,-7.0,-3.0,-2.0,-2.0,-1.0,-0.38543701171875,-0.290771484375,0.63916015625,0.5986328125,-0.1484375,-0.84765625,0.54541015625,0.0625,-1.8125,-0.3125
2.219999999999975,-2.0,-4.0,9.0,14.0,5.0,1.0,0.0,-1.0,-0.38543701171875,-0.290771484375,0.63916015625,0.5986328125,-0.1484375,-0.84765625,0.54541015625,0.0625,-1.8125,-0.3125
2.2249999999999748,-2.0,-4.0,9.0,14.0,5.0,1.0,0.0,-1.0,-0.38543701171875,-0.290771484375,0.63916015625,0.5986328125,-0.1484375,-0.84765625,0.54541015625,0.0625,-1.8125,-0.3125
2.2299999999999747,-2.0,-4.0,9.0,14.0,5.0,1.0,0.0,-1.0,-0.3851318359375,-0.29095458984375,0.63922119140625,0.5986328125,-0.14599609375,-0.8486328125,0.5419921875,0.375,-1.6875,-0.8125
2.2349999999999746,-2.0,-4.0,9.0,14.0,5.0,1.0,0.0,-1.0,-0.3851318359375,-0.29095458984375,0.63922119140625,0.5986328125,-0.14599609375,-0.8486328125,0.5419921875,0.375,-1.6875,-0.8125
2.2399999999999745,-2.0,-4.0,9.0,14.0,5.0,1.0,0.0,-1.0,-0.3851318359375,-0.29095458984375,0.63922119140625,0.5986328125,-0.14599609375,-0.8486328125,0.5419921875,0.375,-1.6875,-0.8125
2.2449999999999743,-1.0,-4.0,-4.0,15.0,-1.0,-1.0,0.0,-1.0,-0.3851318359375,-0.29095458984375,0.63922119140625,0.5986328125,-0.14599609375,-0.8486328125,0.5419921875,0.375,-1.6875,-0.8125
2.2499999999999742,-2.0,-1.0,27.0,13.0,-3.0,-4.0,-3.0,0.0,-0.3851318359375,-0.29095458984375,0.63922119140625,0.5986328125,-0.14599609375,-0.8486328125,0.5419921875,0.375,-1.6875,-0.8125
2.254999999999974,-2.0,-1.0,27.0,13.0,-3.0,-4.0,-3.0,0.0,-0.3851318359375,-0.29095458984375,0.63922119140625,0.5986328125,-0.14599609375,-0.84521484375,0.55224609375,-0.375,-0.8125,-0.625
2.259999999999974,-2.0,-1.0,27.0,13.0,-3.0,-4.0,-3.0,0.0,-0.3851318359375,-0.29095458984375,0.63922119140625,0.5986328125,-0.14599609375,-0.84521484375,0.55224609375,-0.375,-0.8125,-0.625
2.264999999999974,0.0,0.0,12.0,-12.0,-1.0,-1.0,-2.0,-3.0,-0.3851318359375,-0.29095458984375,0.63922119140625,0.5986328125,-0.14599609375,-0.84521484375,0.55224609375,-0.375,-0.8125,-0.625
2.269999999999974,0.0,0.0,12.0,-12.0,-1.0,-1.0,-2.0,-3.0,-0.3851318359375,-0.29095458984375,0.63922119140625,0.5986328125,-0.14599609375,-0.84521484375,0.55224609375,-0.375,-0.8125,-0.625
2.2749999999999737,0.0,0.0,12.0,-12.0,-1.0,-1.0,-2.0,-3.0,-0.3851318359375,-0.29132080078125,0.63916015625,0.59857177734375,-0.14599609375,-0.8525390625,0.53857421875,-1.5,-1.1875,-0.6875
2.2799999999999736,-1.0,-2.0,9.0,22.0,3.0,2.0,0.0,-2.0,-0.3851318359375,-0.29132080078125,0.63916015625,0.59857177734375,-0.14599609375,-0.8525390625,0.53857421875,-1.5,-1.1875,-0.6875
2.2849999999999735,-1.0,0.0,-5.0,-4.0,-1.0,0.0,1.0,-2.0,-0.3851318359375,-0.29132080078125,0.63916015625,0.59857177734375,-0.14599609375,-0.8525390625,0.53857421875,-1.5,-1.1875,-0.6875
2.2899999999999734,-1.0,0.0,-5.0,-4.0,-1.0,0.0,1.0,-2.0,-0.3851318359375,-0.29132080078125,0.63916015625,0.59857177734375,-0.14599609375,-0.8525390625,0.53857421875,-1.5,-1.1875,-0.6875
2.2949999999999733,-1.0,0.0,-5.0,-4.0,-1.0,0.0,1.0,-2.0,-0.3851318359375,-0.29132080078125,0.63909912109375,0.59857177734375,-0.13916015625,-0.85400390625,0.537109375,-0.5,-0.8125,-0.5
2.299999999999973,-1.0,0.0,-5.0,-4.0,-1.0,0.0,1.0,-2.0,-0.3851318359375,-0.29132080078125,0.63909912109375,0.59857177734375,-0.13916015625,-0.85400390625,0.537109375,-0.5,-0.8125,-0.5
2.304999999999973,-1.0,0.0,-5.0,-4.0,-1.0,0.0,1.0,-2.0,-0.3851318359375,-0.29132080078125,0.63909912109375,0.59857177734375,-0.13916015625,-0.85400390625,0.537109375,-0.5,-0.8125,-0.5
2.309999999999973,-1.0,-1.0,-17.0,-35.0,-7.0,-1.0,-2.0,0.0,-0.3851318359375,-0.29132080078125,0.63909912109375,0.59857177734375,-0.13916015625,-0.85400390625,0.537109375,-0.5,-0.8125,-0.5
2.314999999999973,-2.0,-1.0,24.0,11.0,-1.0,-2.0,-2.0,-1.0,-0.3851318359375,-0.29132080078125,0.63909912109375,0.59857177734375,-0.13916015625,-0.85400390625,0.537109375,-0.5,-0.8125,-0.5
2.3199999999999728,-2.0,-1.0,24.0,11.0,-1.0,-2.0,-2.0,-1.0,-0.38519287109375,-0.29132080078125,0.63909912109375,0.59857177734375,-0.1474609375,-0.85205078125,0.54052734375,0.5625,-0.75,-0.25
2.3249999999999726,-2.0,-1.0,24.0,11.0,-1.0,-2.0,-2.0,-1.0,-0.38519287109375,-0.29132080078125,0.63909912109375,0.59857177734375,-0.1474609375,-0.85205078125,0.54052734375,0.5625,-0.75,-0.25
2.3299999999999725,-2.0,-1.0,24.0,11.0,-1.0,-2.0,-2.0,-1.0,-0.38519287109375,-0.29132080078125,0.63909912109375,0.59857177734375,-0.1474609375,-0.85205078125,0.54052734375,0.5625,-0.75,-0.25
2.3349999999999724,0.0,0.0,8.0,5.0,0.0,-1.0,0.0,-1.0,-0.38519287109375,-0.29132080078125,0.63909912109375,0.59857177734375,-0.1474609375,-0.85205078125,0.54052734375,0.5625,-0.75,-0.25
2.3399999999999723,0.0,0.0,8.0,5.0,0.0,-1.0,0.0,-1.0,-0.38519287109375,-0.29132080078125,0.63909912109375,0.59857177734375,-0.1474609375,-0.85205078125,0.54052734375,0.5625,-0.75,-0.25
2.344999999999972,-2.0,-4.0,-15.0,-44.0,-9.0,0.0,-3.0,1.0,-0.38519287109375,-0.29132080078125,0.63909912109375,0.59857177734375,-0.1474609375,-0.85205078125,0.54052734375,0.5625,-0.75,-0.25
2.349999999999972,1.0,2.0,1.0,-20.0,1.0,1.0,-1.0,0.0,-0.38519287109375,-0.29132080078125,0.63909912109375,0.59857177734375,-0.1484375,-0.85009765625,0.5400390625,-1.0,-0.6875,-0.5625
2.354999999999972,1.0,2.0,1.0,-20.0,1.0,1.0,-1.0,0.0,-0.38519287109375,-0.29132080078125,0.63909912109375,0.59857177734375,-0.1484375,-0.85009765625,0.5400390625,-1.0,-0.6875,-0.5625
2.359999999999972,-1.0,1.0,-8.0,6.0,-1.0,-3.0,-1.0,-1.0,-0.38519287109375,-0.29132080078125,0.63909912109375,0.59857177734375,-0.1484375,-0.85009765625,0.5400390625,-1.0,-0.6875,-0.5625
2.364999999999972,-1.0,1.0,-8.0,6.0,-1.0,-3.0,-1.0,-1.0,-0.38519287109375,-0.29132080078125,0.63909912109375,0.59857177734375,-0.1484375,-0.85009765625,0.5400390625,-1.0,-0.6875,-0.5625
2.3699999999999717,-1.0,1.0,-8.0,6.0,-1.0,-3.0,-1.0,-1.0,-0.38519287109375,-0.2916259765625,0.6390380859375,0.59844970703125,-0.1416015625,-0.85498046875,0.54345703125,-1.3125,-0.875,-0.375
2.3749999999999716,-1.0,1.0,-8.0,6.0,-1.0,-3.0,-1.0,-1.0,-0.38519287109375,-0.2916259765625,0.6390380859375,0.59844970703125,-0.1416015625,-0.85498046875,0.54345703125,-1.3125,-0.875,-0.375
2.3799999999999715,0.0,0.0,7.0,16.0,2.0,-4.0,-3.0,-1.0,-0.38519287109375,-0.2916259765625,0.6390380859375,0.59844970703125,-0.1416015625,-0.85498046875,0.54345703125,-1.3125,-0.875,-0.375
2.3849999999999714,0.0,0.0,7.0,16.0,2.0,-4.0,-3.0,-1.0,-0.38519287109375,-0.2916259765625,0.6390380859375,0.59844970703125,-0.1416015625,-0.85498046875,0.54345703125,-1.3125,-0.875,-0.375
2.3899999999999713,0.0,0.0,7.0,16.0,2.0,-4.0,-3.0,-1.0,-0.38519287109375,-0.29168701171875,0.6390380859375,0.59844970703125,-0.14453125,-0.85791015625,0.54345703125,-0.125,-0.75,0.1875
2.394999999999971,0.0,0.0,7.0,16.0,2.0,-4.0,-3.0,-1.0,-0.38519287109375,-0.29168701171875,0.6390380859375,0.59844970703125,-0.14453125,-0.85791015625,0.54345703125,-0.125,-0.75,0.1875
2.399999999999971,-1.0,0.0,-5.0,12.0,-2.0,-1.0,-2.0,-2.0,-0.38519287109375,-0.29168701171875,0.6390380859375,0.59844970703125,-0.14453125,-0.85791015625,0.54345703125,-0.125,-0.75,0.1875
2.404999999999971,-1.0,0.0,-5.0,12.0,-2.0,-1.0,-2.0,-2.0,-0.38519287109375,-0.29168701171875,0.6390380859375,0.59844970703125,-0.14453125,-0.85791015625,0.54345703125,-0.125,-0.75,0.1875
2.409999999999971,-1.0,0.0,-5.0,12.0,-2.0,-1.0,-2.0,-2.0,-0.38519287109375,-0.29168701171875,0.6390380859375,0.59844970703125,-0.1494140625,-0.849609375,0.54248046875,0.3125,-0.8125,0.1875
2.4149999999999707,-1.0,0.0,-5.0,12.0,-2.0,-1.0,-2.0,-2.0,-0.38519287109375,-0.29168701171875,0.6390380859375,0.59844970703125,-0.1494140625,-0.849609375,0.54248046875,0.3125,-0.8125,0.1875
2.4199999999999706,-1.0,-3.0,-9.0,-17.0,-6.0,-4.0,-2.0,-1.0,-0.38519287109375,-0.29168701171875,0.6390380859375,0.59844970703125,-0.1494140625,-0.849609375,0.54248046875,0.3125,-0.8125,0.1875
2.4249999999999705,-1.0,-3.0,-9.0,-17.0,-6.0,-4.0,-2.0,-1.0,-0.38519287109375,-0.29168701171875,0.6390380859375,0.59844970703125,-0.1494140625,-0.849609375,0.54248046875,0.3125,-0.8125,0.1875
2.4299999999999704,0.0,-1.0,10.0,-7.0,2.0,1.0,2.0,1.0,-0.38519287109375,-0.29168701171875,0.6390380859375,0.59844970703125,-0.1494140625,-0.849609375,0.54248046875,0.3125,-0.8125,0.1875
2.4349999999999703,0.0,-1.0,10.0,-7.0,2.0,1.0,2.0,1.0,-0.38519287109375,-0.29168701171875,0.6390380859375,0.59844970703125,-0.1494140625,-0.849609375,0.54248046875,0.3125,-0.8125,0.1875
2.43999999999997,0.0,-1.0,10.0,-7.0,2.0,1.0,2.0,1.0,-0.38519287109375,-0.2916259765625,0.6390380859375,0.59844970703125,-0.146484375,-0.85205078125,0.54638671875,0.0,-0.875,-0.4375
2.44499999999997,0.0,-2.0,10.0,11.0,-3.0,-3.0,-3.0,-1.0,-0.38519287109375,-0.2916259765625,0.6390380859375,0.59844970703125,-0.146484375,-0.85205078125,0.54638671875,0.0,-0.875,-0.4375
2.44999999999997,0.0,-2.0,10.0,11.0,-3.0,-3.0,-3.0,-1.0,-0.38519287109375,-0.2916259765625,0.6390380859375,0.59844970703125,-0.146484375,-0.85205078125,0.54638671875,0.0,-0.875,-0.4375
2.45499999999997,1.0,2.0,15.0,-37.0,3.0,3.0,1.0,0.0,-0.38519287109375,-0.2916259765625,0.6390380859375,0.59844970703125,-0.146484375,-0.85205078125,0.54638671875,0.0,-0.875,-0.4375
2.4599999999999698,1.0,2.0,15.0,-37.0,3.0,3.0,1.0,0.0,-0.38519287109375,-0.2916259765625,0.6390380859375,0.59844970703125,-0.146484375,-0.85205078125,0.54638671875,0.0,-0.875,-0.4375
2.4649999999999697,1.0,2.0,15.0,-37.0,3.0,3.0,1.0,0.0,-0.38519287109375,-0.2916259765625,0.6390380859375,0.59844970703125,-0.1484375,-0.85693359375,0.55078125,-0.6875,-0.75,-0.625
2.4699999999999696,1.0,2.0,15.0,-37.0,3.0,3.0,1.0,0.0,-0.38519287109375,-0.2916259765625,0.6390380859375,0.59844970703125,-0.1484375,-0.85693359375,0.55078125,-0.6875,-0.75,-0.625
2.4749999999999694,-2.0,0.0,-1.0,12.0,-6.0,-2.0,-4.0,-3.0,-0.38519287109375,-0.2916259765625,0.6390380859375,0.59844970703125,-0.1484375,-0.85693359375,0.55078125,-0.6875,-0.75,-0.625
2.4799999999999693,-2.0,0.0,-1.0,12.0,-6.0,-2.0,-4.0,-3.0,-0.38519287109375,-0.2916259765625,0.6390380859375,0.59844970703125,-0.1484375,-0.85693359375,0.55078125,-0.6875,-0.75,-0.625
2.4849999999999692,-2.0,0.0,-1.0,12.0,-6.0,-2.0,-4.0,-3.0,-0.3851318359375,-0.29193115234375,0.63916015625,0.5982666015625,-0.15087890625,-0.8564453125,0.5400390625,-0.625,-2.0625,0.1875
2.489999999999969,-2.0,0.0,-1.0,12.0,-6.0,-2.0,-4.0,-3.0,-0.3851318359375,-0.29193115234375,0.63916015625,0.5982666015625,-0.15087890625,-0.8564453125,0.5400390625,-0.625,-2.0625,0.1875
2.494999999999969,-1.0,2.0,8.0,3.0,1.0,-1.0,-1.0,-1.0,-0.3851318359375,-0.29193115234375,0.63916015625,0.5982666015625,-0.15087890625,-0.8564453125,0.5400390625,-0.625,-2.0625,0.1875
2.499999999999969,-1.0,2.0,8.0,3.0,1.0,-1.0,-1.0,-1.0,-0.3851318359375,-0.29193115234375,0.63916015625,0.5982666015625,-0.15087890625,-0.8564453125,0.5400390625,-0.625,-2.0625,0.1875
2.504999999999969,-3.0,-3.0,-10.0,22.0,-5.0,-2.0,-1.0,-3.0,-0.3851318359375,-0.29193115234375,0.63916015625,0.5982666015625,-0.15087890625,-0.8564453125,0.5400390625,-0.625,-2.0625,0.1875
2.5099999999999687,-3.0,-3.0,-10.0,22.0,-5.0,-2.0,-1.0,-3.0,-0.3851318359375,-0.29193115234375,0.63916015625,0.5982666015625,-0.15087890625,-0.8564453125,0.5400390625,-0.625,-2.0625,0.1875
2.5149999999999686,-3.0,-3.0,-10.0,22.0,-5.0,-2.0,-1.0,-3.0,-0.384765625,-0.29205322265625,0.639404296875,0.59814453125,-0.14501953125,-0.84912109375,0.5390625,1.0625,-2.5,0.25
2.5199999999999685,-3.0,-3.0,-10.0,22.0,-5.0,-2.0,-1.0,-3.0,-0.384765625,-0.29205322265625,0.639404296875,0.59814453125,-0.14501953125,-0.84912109375,0.5390625,1.0625,-2.5,0.25
2.5249999999999684,-1.0,0.0,-15.0,0.0,1.0,2.0,-2.0,0.0,-0.384765625,-0.29205322265625,0.639404296875,0.59814453125,-0.14501953125,-0.84912109375,0.5390625,1.0625,-2.5,0.25
2.5299999999999683,-1.0,0.0,-15.0,0.0,1.0,2.0,-2.0,0.0,-0.384765625,-0.29205322265625,0.639404296875,0.59814453125,-0.14501953125,-0.84912109375,0.5390625,1.0625,-2.5,0.25
2.534999999999968,-1.0,-1.0,-7.0,5.0,1.0,0.0,-1.0,0.0,-0.384765625,-0.29205322265625,0.639404296875,0.59814453125,-0.14501953125,-0.84912109375,0.5390625,1.0625,-2.5,0.25
2.539999999999968,-1.0,-1.0,-7.0,5.0,1.0,0.0,-1.0,0.0,-0.384765625,-0.29205322265625,0.639404296875,0.59814453125,-0.14501953125,-0.84912109375,0.5390625,1.0625,-2.5,0.25
2.544999999999968,-1.0,-1.0,-7.0,5.0,1.0,0.0,-1.0,0.0,-0.384521484375,-0.29217529296875,0.6395263671875,0.59808349609375,-0.1455078125,-0.841796875,0.5458984375,0.0,-1.75,-0.0625
2.549999999999968,-2.0,-5.0,-5.0,-5.0,-2.0,-1.0,-1.0,-3.0,-0.384521484375,-0.29217529296875,0.6395263671875,0.59808349609375,-0.1455078125,-0.841796875,0.5458984375,0.0,-1.75,-0.0625
2.5549999999999677,-2.0,-5.0,-5.0,-5.0,-2.0,-1.0,-1.0,-3.0,-0.384521484375,-0.29217529296875,0.6395263671875,0.59808349609375,-0.1455078125,-0.841796875,0.5458984375,0.0,-1.75,-0.0625
2.5599999999999676,-2.0,-3.0,-20.0,-17.0,-2.0,-1.0,0.0,-1.0,-0.384521484375,-0.29217529296875,0.6395263671875,0.59808349609375,-0.1455078125,-0.841796875,0.5458984375,0.0,-1.75,-0.0625
2.5649999999999675,-2.0,-3.0,-20.0,-17.0,-2.0,-1.0,0.0,-1.0,-0.38433837890625,-0.29229736328125,0.63958740234375,0.59808349609375,-0.14697265625,-0.8544921875,0.5546875,-0.5625,-1.1875,-0.375
2.5699999999999674,0.0,1.0,-8.0,-1.0,1.0,0.0,-1.0,-1.0,-0.38433837890625,-0.29229736328125,0.63958740234375,0.59808349609375,-0.14697265625,-0.8544921875,0.5546875,-0.5625,-1.1875,-0.375
2.5749999999999673,0.0,1.0,-8.0,-1.0,1.0,0.0,-1.0,-1.0,-0.38433837890625,-0.29229736328125,0.63958740234375,0.59808349609375,-0.14697265625,-0.8544921875,0.5546875,-0.5625,-1.1875,-0.375
2.579999999999967,0.0,0.0,14.0,-1.0,0.0,0.0,-1.0,-1.0,-0.38433837890625,-0.29229736328125,0.63958740234375,0.59808349609375,-0.14697265625,-0.8544921875,0.5546875,-0.5625,-1.1875,-0.375
2.584999999999967,0.0,0.0,14.0,-1.0,0.0,0.0,-1.0,-1.0,-0.38433837890625,-0.29229736328125,0.63958740234375,0.59808349609375,-0.14697265625,-0.8544921875,0.5546875,-0.5625,-1.1875,-0.375
2.589999999999967,0.0,0.0,14.0,-1.0,0.0,0.0,-1.0,-1.0,-0.38433837890625,-0.29229736328125,0.63958740234375,0.59808349609375,-0.14697265625,-0.8544921875,0.5546875,-0.5625,-1.1875,-0.375
2.594999999999967,0.0,0.0,14.0,-1.0,0.0,0.0,-1.0,-1.0,-0.38433837890625,-0.29248046875,0.63958740234375,0.5980224609375,-0.1533203125,-0.8564453125,0.541015625,-0.25,-1.0625,-0.625
2.599999999999967,0.0,-2.0,-13.0,-13.0,-2.0,0.0,1.0,1.0,-0.38433837890625,-0.29248046875,0.63958740234375,0.5980224609375,-0.1533203125,-0.8564453125,0.541015625,-0.25,-1.0625,-0.625
2.6049999999999667,-4.0,-3.0,-5.0,6.0,-3.0,-6.0,-3.0,-4.0,-0.38433837890625,-0.29248046875,0.63958740234375,0.5980224609375,-0.1533203125,-0.8564453125,0.541015625,-0.25,-1.0625,-0.625
2.6099999999999666,-1.0,-6.0,-64.0,-2.0,-1.0,-2.0,-1.0,0.0,-0.38433837890625,-0.29248046875,0.63958740234375,0.5980224609375,-0.1533203125,-0.8564453125,0.541015625,-0.25,-1.0625,-0.625
2.6149999999999665,-1.0,-6.0,-64.0,-2.0,-1.0,-2.0,-1.0,0.0,-0.38433837890625,-0.29248046875,0.63958740234375,0.5980224609375,-0.1533203125,-0.8564453125,0.541015625,-0.25,-1.0625,-0.625
2.6199999999999664,-1.0,-6.0,-64.0,-2.0,-1.0,-2.0,-1.0,0.0,-0.3841552734375,-0.2926025390625,0.6396484375,0.5980224609375,-0.1484375,-0.8525390625,0.54296875,0.25,-1.5,-0.625
2.6249999999999662,-1.0,-6.0,-64.0,-2.0,-1.0,-2.0,-1.0,0.0,-0.3841552734375,-0.2926025390625,0.6396484375,0.5980224609375,-0.1484375,-0.8525390625,0.54296875,0.25,-1.5,-0.625
2.629999999999966,-1.0,-3.0,-15.0,1.0,-1.0,0.0,-1.0,-1.0,-0.3841552734375,-0.2926025390625,0.6396484375,0.5980224609375,-0.1484375,-0.8525390625,0.54296875,0.25,-1.5,-0.625
2.634999999999966,-1.0,-3.0,-15.0,1.0,-1.0,0.0,-1.0,-1.0,-0.3841552734375,-0.2926025390625,0.6396484375,0.5980224609375,-0.1484375,-0.8525390625,0.54296875,0.25,-1.5,-0.625
2.639999999999966,-1.0,-3.0,-15.0,1.0,-1.0,0.0,-1.0,-1.0,-0.3841552734375,-0.2926025390625,0.6396484375,0.5980224609375,-0.1484375,-0.8525390625,0.54296875,0.25,-1.5,-0.625
2.644999999999966,-1.0,1.0,-4.0,-6.0,1.0,-2.0,-2.0,-1.0,-0.38385009765625,-0.29266357421875,0.63983154296875,0.5980224609375,-0.1494140625,-0.84716796875,0.54345703125,1.0625,-1.6875,-0.4375
2.6499999999999657,1.0,3.0,9.0,-27.0,-1.0,-1.0,0.0,1.0,-0.38385009765625,-0.29266357421875,0.63983154296875,0.5980224609375,-0.1494140625,-0.84716796875,0.54345703125,1.0625,-1.6875,-0.4375
2.6549999999999656,1.0,3.0,9.0,-27.0,-1.0,-1.0,0.0,1.0,-0.38385009765625,-0.29266357421875,0.63983154296875,0.5980224609375,-0.1494140625,-0.84716796875,0.54345703125,1.0625,-1.6875,-0.4375
2.6599999999999655,1.0,3.0,9.0,-27.0,-1.0,-1.0,0.0,1.0,-0.38385009765625,-0.29266357421875,0.63983154296875,0.5980224609375,-0.1494140625,-0.84716796875,0.54345703125,1.0625,-1.6875,-0.4375
2.6649999999999654,1.0,-1.0,0.0,-9.0,-4.0,-2.0,-1.0,-1.0,-0.38385009765625,-0.29266357421875,0.63983154296875,0.5980224609375,-0.1494140625,-0.84716796875,0.54345703125,1.0625,-1.6875,-0.4375
2.6699999999999653,1.0,-1.0,0.0,-9.0,-4.0,-2.0,-1.0,-1.0,-0.38385009765625,-0.29266357421875,0.63983154296875,0.5980224609375,-0.1494140625,-0.84716796875,0.54345703125,1.0625,-1.6875,-0.4375
2.674999999999965,1.0,-1.0,0.0,-9.0,-4.0,-2.0,-1.0,-1.0,-0.3836669921875,-0.29266357421875,0.63995361328125,0.59796142578125,-0.14306640625,-0.85107421875,0.54443359375,0.8125,-1.375,0.3125
2.679999999999965,1.0,-1.0,0.0,-9.0,-4.0,-2.0,-1.0,-1.0,-0.3836669921875,-0.29266357421875,0.63995361328125,0.59796142578125,-0.14306640625,-0.85107421875,0.54443359375,0.8125,-1.375,0.3125
2.684999999999965,1.0,-1.0,0.0,-9.0,-4.0,-2.0,-1.0,-1.0,-0.3836669921875,-0.29266357421875,0.63995361328125,0.59796142578125,-0.14306640625,-0.85107421875,0.54443359375,0.8125,-1.375,0.3125
2.689999999999965,-3.0,-4.0,18.0,27.0,2.0,-2.0,-3.0,-4.0,-0.3836669921875,-0.29266357421875,0.63995361328125,0.59796142578125,-0.14306640625,-0.85107421875,0.54443359375,0.8125,-1.375,0.3125
2.6949999999999648,-2.0,-1.0,-1.0,10.0,0.0,-3.0,-2.0,-2.0,-0.3836669921875,-0.29266357421875,0.63995361328125,0.59796142578125,-0.14306640625,-0.85107421875,0.54443359375,0.8125,-1.375,0.3125
2.6999999999999647,1.0,0.0,-6.0,1.0,-3.0,0.0,-2.0,0.0,-0.3836669921875,-0.29266357421875,0.63995361328125,0.59796142578125,-0.146484375,-0.849609375,0.5419921875,0.625,-0.3125,-0.25
2.7049999999999645,1.0,0.0,-6.0,1.0,-3.0,0.0,-2.0,0.0,-0.3836669921875,-0.29266357421875,0.63995361328125,0.59796142578125,-0.146484375,-0.849609375,0.5419921875,0.625,-0.3125,-0.25
2.7099999999999644,-1.0,-1.0,10.0,-1.0,-1.0,-3.0,-3.0,-2.0,-0.3836669921875,-0.29266357421875,0.63995361328125,0.59796142578125,-0.146484375,-0.849609375,0.5419921875,0.625,-0.3125,-0.25
2.7149999999999643,-1.0,-3.0,-9.0,-5.0,1.0,-2.0,-1.0,-2.0,-0.3836669921875,-0.29266357421875,0.63995361328125,0.59796142578125,-0.146484375,-0.849609375,0.5419921875,0.625,-0.3125,-0.25
2.7199999999999642,0.0,1.0,18.0,2.0,0.0,-1.0,0.0,-2.0,-0.3836669921875,-0.29266357421875,0.63995361328125,0.59796142578125,-0.14306640625,-0.849609375,0.54248046875,-0.5625,0.0,-0.125
2.724999999999964,-2.0,-5.0,-12.0,15.0,-4.0,-1.0,-4.0,-2.0,-0.3836669921875,-0.29266357421875,0.63995361328125,0.59796142578125,-0.14306640625,-0.849609375,0.54248046875,-0.5625,0.0,-0.125
2.729999999999964,-2.0,-5.0,-12.0,15.0,-4.0,-1.0,-4.0,-2.0,-0.3836669921875,-0.29266357421875,0.63995361328125,0.59796142578125,-0.14306640625,-0.849609375,0.54248046875,-0.5625,0.0,-0.125
2.734999999999964,-1.0,0.0,28.0,0.0,2.0,0.0,-1.0,-2.0,-0.3836669921875,-0.29266357421875,0.63995361328125,0.59796142578125,-0.14306640625,-0.849609375,0.54248046875,-0.5625,0.0,-0.125
2.739999999999964,-1.0,0.0,28.0,0.0,2.0,0.0,-1.0,-2.0,-0.3836669921875,-0.29266357421875,0.63995361328125,0.59796142578125,-0.14306640625,-0.849609375,0.54248046875,-0.5625,0.0,-0.125
2.7449999999999637,-1.0,0.0,28.0,0.0,2.0,0.0,-1.0,-2.0,-0.3836669921875,-0.29266357421875,0.63995361328125,0.59796142578125,-0.14306640625,-0.849609375,0.54248046875,-0.5625,0.0,-0.125
2.7499999999999636,0.0,-1.0,0.0,-10.0,-4.0,-2.0,0.0,1.0,-0.3836669921875,-0.292724609375,0.63995361328125,0.59796142578125,-0.13916015625,-0.853515625,0.53955078125,0.0625,-0.625,0.125
2.7549999999999635,-2.0,0.0,1.0,18.0,-1.0,0.0,1.0,1.0,-0.3836669921875,-0.292724609375,0.63995361328125,0.59796142578125,-0.13916015625,-0.853515625,0.53955078125,0.0625,-0.625,0.125
2.7599999999999634,-2.0,-2.0,6.0,1.0,2.0,-3.0,-2.0,0.0,-0.3836669921875,-0.292724609375,0.63995361328125,0.59796142578125,-0.13916015625,-0.853515625,0.53955078125,0.0625,-0.625,0.125
2.7649999999999633,-2.0,-2.0,6.0,1.0,2.0,-3.0,-2.0,0.0,-0.3836669921875,-0.292724609375,0.63995361328125,0.59796142578125,-0.13671875,-0.8525390625,0.53955078125,0.25,-0.5,-0.125
2.769999999999963,-2.0,-2.0,6.0,1.0,2.0,-3.0,-2.0,0.0,-0.3836669921875,-0.292724609375,0.63995361328125,0.59796142578125,-0.13671875,-0.8525390625,0.53955078125,0.25,-0.5,-0.125
2.774999999999963,-3.0,-6.0,-6.0,-16.0,-4.0,0.0,-2.0,-2.0,-0.3836669921875,-0.292724609375,0.63995361328125,0.59796142578125,-0.13671875,-0.8525390625,0.53955078125,0.25,-0.5,-0.125
2.779999999999963,-3.0,-6.0,-6.0,-16.0,-4.0,0.0,-2.0,-2.0,-0.3836669921875,-0.292724609375,0.63995361328125,0.59796142578125,-0.13671875,-0.8525390625,0.53955078125,0.25,-0.5,-0.125
2.784999999999963,0.0,-3.0,22.0,2.0,-1.0,-1.0,-1.0,-1.0,-0.3834228515625,-0.292724609375,0.6400146484375,0.5980224609375,-0.1376953125,-0.85009765625,0.54150390625,1.25,-0.8125,0.125
2.7899999999999627,0.0,-3.0,22.0,2.0,-1.0,-1.0,-1.0,-1.0,-0.3834228515625,-0.292724609375,0.6400146484375,0.5980224609375,-0.1376953125,-0.85009765625,0.54150390625,1.25,-0.8125,0.125
2.7949999999999626,0.0,-3.0,22.0,2.0,-1.0,-1.0,-1.0,-1.0,-0.3834228515625,-0.292724609375,0.6400146484375,0.5980224609375,-0.1376953125,-0.85009765625,0.54150390625,1.25,-0.8125,0.125
2.7999999999999625,0.0,-3.0,22.0,2.0,-1.0,-1.0,-1.0,-1.0,-0.3834228515625,-0.292724609375,0.6400146484375,0.5980224609375,-0.1376953125,-0.85009765625,0.54150390625,1.25,-0.8125,0.125
2.8049999999999624,-1.0,-2.0,-2.0,-20.0,-5.0,-3.0,-1.0,-2.0,-0.3834228515625,-0.292724609375,0.6400146484375,0.5980224609375,-0.1376953125,-0.85009765625,0.54150390625,1.25,-0.8125,0.125
2.8099999999999623,-1.0,-2.0,-2.0,-20.0,-5.0,-3.0,-1.0,-2.0,-0.3831787109375,-0.29266357421875,0.64013671875,0.59808349609375,-0.1435546875,-0.845703125,0.54541015625,1.3125,-0.9375,-0.375
2.814999999999962,-1.0,-2.0,-2.0,-20.0,-5.0,-3.0,-1.0,-2.0,-0.3831787109375,-0.29266357421875,0.64013671875,0.59808349609375,-0.1435546875,-0.845703125,0.54541015625,1.3125,-0.9375,-0.375
2.819999999999962,1.0,2.0,-6.0,12.0,4.0,2.0,-1.0,0.0,-0.3831787109375,-0.29266357421875,0.64013671875,0.59808349609375,-0.1435546875,-0.845703125,0.54541015625,1.3125,-0.9375,-0.375
2.824999999999962,-4.0,1.0,7.0,-2.0,-2.0,-4.0,1.0,-2.0,-0.3831787109375,-0.29266357421875,0.64013671875,0.59808349609375,-0.1435546875,-0.845703125,0.54541015625,1.3125,-0.9375,-0.375
2.829999999999962,-4.0,1.0,7.0,-2.0,-2.0,-4.0,1.0,-2.0,-0.3831787109375,-0.29266357421875,0.64013671875,0.59808349609375,-0.1435546875,-0.845703125,0.54541015625,1.3125,-0.9375,-0.375
2.8349999999999618,-4.0,1.0,7.0,-2.0,-2.0,-4.0,1.0,-2.0,-0.3829345703125,-0.292724609375,0.64019775390625,0.59814453125,-0.1396484375,-0.8466796875,0.546875,0.5,-1.125,-0.4375
2.8399999999999617,-1.0,-2.0,-6.0,3.0,-2.0,-2.0,-1.0,0.0,-0.3829345703125,-0.292724609375,0.64019775390625,0.59814453125,-0.1396484375,-0.8466796875,0.546875,0.5,-1.125,-0.4375
2.8449999999999616,-1.0,-2.0,-6.0,3.0,-2.0,-2.0,-1.0,0.0,-0.3829345703125,-0.292724609375,0.64019775390625,0.59814453125,-0.1396484375,-0.8466796875,0.546875,0.5,-1.125,-0.4375
2.8499999999999615,-1.0,-2.0,-6.0,3.0,-2.0,-2.0,-1.0,0.0,-0.3829345703125,-0.292724609375,0.64019775390625,0.59814453125,-0.1396484375,-0.8466796875,0.546875,0.5,-1.125,-0.4375
2.8549999999999613,2.0,0.0,-5.0,-29.0,-3.0,-1.0,-1.0,-1.0,-0.38275146484375,-0.29296875,0.64019775390625,0.59814453125,-0.13916015625,-0.84716796875,0.54541015625,-0.3125,-1.125,-0.5625
2.8599999999999612,2.0,0.0,-5.0,-29.0,-3.0,-1.0,-1.0,-1.0,-0.38275146484375,-0.29296875,0.64019775390625,0.59814453125,-0.13916015625,-0.84716796875,0.54541015625,-0.3125,-1.125,-0.5625
2.864999999999961,2.0,0.0,-5.0,-29.0,-3.0,-1.0,-1.0,-1.0,-0.38275146484375,-0.29296875,0.64019775390625,0.59814453125,-0.13916015625,-0.84716796875,0.54541015625,-0.3125,-1.125,-0.5625
2.869999999999961,-2.0,-3.0,2.0,0.0,1.0,1.0,0.0,0.0,-0.38275146484375,-0.29296875,0.64019775390625,0.59814453125,-0.13916015625,-0.84716796875,0.54541015625,-0.3125,-1.125,-0.5625
2.874999999999961,-1.0,-1.0,1.0,19.0,-1.0,-2.0,-1.0,0.0,-0.382568359375,-0.29315185546875,0.64019775390625,0.59814453125,-0.1357421875,-0.8515625,0.5458984375,-0.25,-1.0625,-0.5
2.879999999999961,-1.0,-1.0,1.0,19.0,-1.0,-2.0,-1.0,0.0,-0.382568359375,-0.29315185546875,0.64019775390625,0.59814453125,-0.1357421875,-0.8515625,0.5458984375,-0.25,-1.0625,-0.5
2.8849999999999607,0.0,1.0,6.0,3.0,-1.0,-2.0,-1.0,0.0,-0.382568359375,-0.29315185546875,0.64019775390625,0.59814453125,-0.1357421875,-0.8515625,0.5458984375,-0.25,-1.0625,-0.5
2.8899999999999606,0.0,1.0,6.0,3.0,-1.0,-2.0,-1.0,0.0,-0.382568359375,-0.29315185546875,0.64019775390625,0.59814453125,-0.1357421875,-0.8515625,0.5458984375,-0.25,-1.0625,-0.5
2.8949999999999605,-1.0,-1.0,-16.0,10.0,1.0,1.0,-2.0,-2.0,-0.382568359375,-0.29315185546875,0.64019775390625,0.59814453125,-0.1357421875,-0.8515625,0.5458984375,-0.25,-1.0625,-0.5
2.8999999999999604,-1.0,-1.0,-16.0,10.0,1.0,1.0,-2.0,-2.0,-0.3824462890625,-0.29315185546875,0.64019775390625,0.59820556640625,-0.14599609375,-0.85302734375,0.54248046875,1.0625,-0.5,-0.4375
2.9049999999999603,-1.0,-5.0,6.0,7.0,4.0,-1.0,0.0,-2.0,-0.3824462890625,-0.29315185546875,0.64019775390625,0.59820556640625,-0.14599609375,-0.85302734375,0.54248046875,1.0625,-0.5,-0.4375
2.90999999999996,-1.0,-5.0,6.0,7.0,4.0,-1.0,0.0,-2.0,-0.3824462890625,-0.29315185546875,0.64019775390625,0.59820556640625,-0.14599609375,-0.85302734375,0.54248046875,1.0625,-0.5,-0.4375
2.91499999999996,-2.0,-1.0,-5.0,3.0,1.0,-1.0,-1.0,-1.0,-0.3824462890625,-0.29315185546875,0.64019775390625,0.59820556640625,-0.14599609375,-0.85302734375,0.54248046875,1.0625,-0.5,-0.4375
2.91999999999996,-2.0,-1.0,-5.0,3.0,1.0,-1.0,-1.0,-1.0,-0.3824462890625,-0.2930908203125,0.6402587890625,0.59820556640625,-0.14599609375,-0.8505859375,0.5498046875,0.625,-0.8125,-0.75
2.92499999999996,-2.0,-1.0,-5.0,3.0,1.0,-1.0,-1.0,-1.0,-0.3824462890625,-0.2930908203125,0.6402587890625,0.59820556640625,-0.14599609375,-0.8505859375,0.5498046875,0.625,-0.8125,-0.75
2.9299999999999597,-2.0,-1.0,-5.0,3.0,1.0,-1.0,-1.0,-1.0,-0.3824462890625,-0.2930908203125,0.6402587890625,0.59820556640625,-0.14599609375,-0.8505859375,0.5498046875,0.625,-0.8125,-0.75
2.9349999999999596,1.0,2.0,-11.0,-36.0,-2.0,-1.0,0.0,-1.0,-0.3824462890625,-0.2930908203125,0.6402587890625,0.59820556640625,-0.14599609375,-0.8505859375,0.5498046875,0.625,-0.8125,-0.75
2.9399999999999595,1.0,2.0,-11.0,-36.0,-2.0,-1.0,0.0,-1.0,-0.3824462890625,-0.2930908203125,0.6402587890625,0.59820556640625,-0.14599609375,-0.8505859375,0.5498046875,0.625,-0.8125,-0.75
2.9449999999999594,1.0,2.0,-11.0,-36.0,-2.0,-1.0,0.0,-1.0,-0.38226318359375,-0.29327392578125,0.6402587890625,0.5982666015625,-0.13916015625,-0.85205078125,0.55078125,0.0625,-1.25,-0.5
2.9499999999999593,-1.0,2.0,-7.0,-4.0,-2.0,0.0,-2.0,-1.0,-0.38226318359375,-0.29327392578125,0.6402587890625,0.5982666015625,-0.13916015625,-0.85205078125,0.55078125,0.0625,-1.25,-0.5
2.954999999999959,-1.0,2.0,-7.0,-4.0,-2.0,0.0,-2.0,-1.0,-0.38226318359375,-0.29327392578125,0.6402587890625,0.5982666015625,-0.13916015625,-0.85205078125,0.55078125,0.0625,-1.25,-0.5
2.959999999999959,0.0,-2.0,-2.0,12.0,-4.0,-5.0,-1.0,0.0,-0.38226318359375,-0.29327392578125,0.6402587890625,0.5982666015625,-0.13916015625,-0.85205078125,0.55078125,0.0625,-1.25,-0.5
2.964999999999959,0.0,-2.0,-2.0,12.0,-4.0,-5.0,-1.0,0.0,-0.38226318359375,-0.29327392578125,0.6402587890625,0.59820556640625,-0.14697265625,-0.85009765625,0.53857421875,-0.9375,-0.4375,-0.625
2.969999999999959,0.0,-2.0,-2.0,12.0,-4.0,-5.0,-1.0,0.0,-0.38226318359375,-0.29327392578125,0.6402587890625,0.59820556640625,-0.14697265625,-0.85009765625,0.53857421875,-0.9375,-0.4375,-0.625
2.974999999999959,-2.0,-5.0,-18.0,4.0,-6.0,-1.0,0.0,-1.0,-0.38201904296875,-0.293212890625,0.640380859375,0.59832763671875,-0.13427734375,-0.84619140625,0.54296875,1.5,-0.6875,0.0625
2.9799999999999587,-2.0,-5.0,-18.0,4.0,-6.0,-1.0,0.0,-1.0,-0.38201904296875,-0.293212890625,0.640380859375,0.59832763671875,-0.13427734375,-0.84619140625,0.54296875,1.5,-0.6875,0.0625
2.9849999999999586,-2.0,-5.0,-18.0,4.0,-6.0,-1.0,0.0,-1.0,-0.38201904296875,-0.293212890625,0.640380859375,0.59832763671875,-0.13427734375,-0.84619140625,0.54296875,1.5,-0.6875,0.0625
2.9899999999999585,-2.0,-5.0,-18.0,4.0,-6.0,-1.0,0.0,-1.0,-0.38201904296875,-0.293212890625,0.640380859375,0.59832763671875,-0.13427734375,-0.84619140625,0.54296875,1.5,-0.6875,0.0625
2.9949999999999584,-1.0,-2.0,10.0,16.0,6.0,3.0,1.0,0.0,-0.38201904296875,-0.293212890625,0.640380859375,0.59832763671875,-0.13427734375,-0.84619140625,0.54296875,1.5,-0.6875,0.0625
2.9999999999999583,-1.0,-2.0,10.0,16.0,6.0,3.0,1.0,0.0,-0.38201904296875,-0.293212890625,0.640380859375,0.59832763671875,-0.13427734375,-0.84619140625,0.54296875,1.5,-0.6875,0.0625
3.004999999999958,-1.0,-2.0,10.0,16.0,6.0,3.0,1.0,0.0,-0.38201904296875,-0.293212890625,0.640380859375,0.59832763671875,-0.142578125,-0.8486328125,0.55224609375,0.5,-0.5,-0.0625
3.009999999999958,0.0,-1.0,-3.0,2.0,-3.0,-2.0,-2.0,-2.0,-0.38201904296875,-0.293212890625,0.640380859375,0.59832763671875,-0.142578125,-0.8486328125,0.55224609375,0.5,-0.5,-0.0625
3.014999999999958,0.0,-1.0,-3.0,2.0,-3.0,-2.0,-2.0,-2.0,-0.38201904296875,-0.293212890625,0.640380859375,0.59832763671875,-0.142578125,-0.8486328125,0.55224609375,0.5,-0.5,-0.0625
3.019999999999958,-3.0,-2.0,0.0,-6.0,-1.0,-3.0,-4.0,-2.0,-0.38201904296875,-0.293212890625,0.640380859375,0.59832763671875,-0.142578125,-0.8486328125,0.55224609375,0.5,-0.5,-0.0625
3.0249999999999577,-3.0,-2.0,0.0,-6.0,-1.0,-3.0,-4.0,-2.0,-0.38201904296875,-0.293212890625,0.640380859375,0.59832763671875,-0.142578125,-0.8486328125,0.55224609375,0.5,-0.5,-0.0625
3.0299999999999576,-3.0,-2.0,0.0,-6.0,-1.0,-3.0,-4.0,-2.0,-0.38201904296875,-0.293212890625,0.640380859375,0.59832763671875,-0.14599609375,-0.8525390625,0.5458984375,-0.875,-0.75,-0.625
3.0349999999999575,-3.0,-2.0,0.0,-6.0,-1.0,-3.0,-4.0,-2.0,-0.38201904296875,-0.293212890625,0.640380859375,0.59832763671875,-0.14599609375,-0.8525390625,0.5458984375,-0.875,-0.75,-0.625
3.0399999999999574,-1.0,1.0,-2.0,4.0,0.0,1.0,-1.0,2.0,-0.38201904296875,-0.293212890625,0.640380859375,0.59832763671875,-0.14599609375,-0.8525390625,0.5458984375,-0.875,-0.75,-0.625
3.0449999999999573,-1.0,1.0,-2.0,4.0,0.0,1.0,-1.0,2.0,-0.38201904296875,-0.293212890625,0.640380859375,0.59832763671875,-0.14599609375,-0.8525390625,0.5458984375,-0.875,-0.75,-0.625
3.049999999999957,-2.0,-2.0,-16.0,19.0,-6.0,-2.0,-2.0,-2.0,-0.38165283203125,-0.29315185546875,0.64044189453125,0.5985107421875,-0.13427734375,-0.84814453125,0.54736328125,2.0625,-0.8125,-0.5625
3.054999999999957,-2.0,-2.0,-16.0,19.0,-6.0,-2.0,-2.0,-2.0,-0.38165283203125,-0.29315185546875,0.64044189453125,0.5985107421875,-0.13427734375,-0.84814453125,0.54736328125,2.0625,-0.8125,-0.5625
3.059999999999957,-2.0,-2.0,-16.0,19.0,-6.0,-2.0,-2.0,-2.0,-0.38165283203125,-0.29315185546875,0.64044189453125,0.5985107421875,-0.13427734375,-0.84814453125,0.54736328125,2.0625,-0.8125,-0.5625
3.064999999999957,-2.0,-2.0,-16.0,19.0,-6.0,-2.0,-2.0,-2.0,-0.38165283203125,-0.29315185546875,0.64044189453125,0.5985107421875,-0.13427734375,-0.84814453125,0.54736328125,2.0625,-0.8125,-0.5625
3.0699999999999568,-2.0,0.0,11.0,4.0,3.0,3.0,0.0,1.0,-0.38165283203125,-0.29315185546875,0.64044189453125,0.5985107421875,-0.13427734375,-0.84814453125,0.54736328125,2.0625,-0.8125,-0.5625
3.0749999999999567,-2.0,0.0,11.0,4.0,3.0,3.0,0.0,1.0,-0.38165283203125,-0.29315185546875,0.64044189453125,0.5985107421875,-0.13427734375,-0.84814453125,0.54736328125,2.0625,-0.8125,-0.5625
3.0799999999999566,-2.0,0.0,11.0,4.0,3.0,3.0,0.0,1.0,-0.38165283203125,-0.29315185546875,0.64044189453125,0.5985107421875,-0.14306640625,-0.84521484375,0.53564453125,-0.625,-0.75,-0.8125
3.0849999999999564,-2.0,0.0,11.0,4.0,3.0,3.0,0.0,1.0,-0.38165283203125,-0.29315185546875,0.64044189453125,0.5985107421875,-0.14306640625,-0.84521484375,0.53564453125,-0.625,-0.75,-0.8125
3.0899999999999563,-2.0,1.0,-2.0,-5.0,-4.0,-3.0,-2.0,-2.0,-0.38165283203125,-0.29315185546875,0.64044189453125,0.5985107421875,-0.14306640625,-0.84521484375,0.53564453125,-0.625,-0.75,-0.8125
3.0949999999999562,-2.0,1.0,-2.0,-5.0,-4.0,-3.0,-2.0,-2.0,-0.38165283203125,-0.29315185546875,0.64044189453125,0.5985107421875,-0.14306640625,-0.84521484375,0.53564453125,-0.625,-0.75,-0.8125
3.099999999999956,1.0,0.0,6.0,-1.0,0.0,0.0,0.0,0.0,-0.38165283203125,-0.29315185546875,0.64044189453125,0.5985107421875,-0.14306640625,-0.84521484375,0.53564453125,-0.625,-0.75,-0.8125
3.104999999999956,1.0,0.0,6.0,-1.0,0.0,0.0,0.0,0.0,-0.38165283203125,-0.29315185546875,0.64044189453125,0.5985107421875,-0.14306640625,-0.84521484375,0.53564453125,-0.625,-0.75,-0.8125
3.109999999999956,1.0,0.0,6.0,-1.0,0.0,0.0,0.0,0.0,-0.38165283203125,-0.29315185546875,0.64044189453125,0.5985107421875,-0.13134765625,-0.8486328125,0.54541015625,0.3125,-0.9375,-0.1875
3.114999999999956,1.0,0.0,6.0,-1.0,0.0,0.0,0.0,0.0,-0.38165283203125,-0.29315185546875,0.64044189453125,0.5985107421875,-0.13134765625,-0.8486328125,0.54541015625,0.3125,-0.9375,-0.1875
3.1199999999999557,-2.0,-4.0,4.0,30.0,0.0,0.0,0.0,-2.0,-0.38165283203125,-0.29315185546875,0.64044189453125,0.5985107421875,-0.13134765625,-0.8486328125,0.54541015625,0.3125,-0.9375,-0.1875
3.1249999999999556,-2.0,-4.0,4.0,30.0,0.0,0.0,0.0,-2.0,-0.38165283203125,-0.29315185546875,0.64044189453125,0.5985107421875,-0.13134765625,-0.8486328125,0.54541015625,0.3125,-0.9375,-0.1875
3.1299999999999555,-3.0,-3.0,3.0,-29.0,-7.0,-4.0,-2.0,-2.0,-0.38140869140625,-0.2930908203125,0.6405029296875,0.5986328125,-0.13623046875,-0.8515625,0.5478515625,1.5625,-0.25,-0.375
3.1349999999999554,-3.0,-3.0,3.0,-29.0,-7.0,-4.0,-2.0,-2.0,-0.38140869140625,-0.2930908203125,0.6405029296875,0.5986328125,-0.13623046875,-0.8515625,0.5478515625,1.5625,-0.25,-0.375
3.1399999999999553,-3.0,-3.0,3.0,-29.0,-7.0,-4.0,-2.0,-2.0,-0.38140869140625,-0.2930908203125,0.6405029296875,0.5986328125,-0.13623046875,-0.8515625,0.5478515625,1.5625,-0.25,-0.375
3.144999999999955,-3.0,-3.0,3.0,-29.0,-7.0,-4.0,-2.0,-2.0,-0.38140869140625,-0.2930908203125,0.6405029296875,0.5986328125,-0.13623046875,-0.8515625,0.5478515625,1.5625,-0.25,-0.375
3.149999999999955,-1.0,-5.0,-6.0,10.0,-4.0,-5.0,-3.0,-1.0,-0.38140869140625,-0.2930908203125,0.6405029296875,0.5986328125,-0.13623046875,-0.8515625,0.5478515625,1.5625,-0.25,-0.375
3.154999999999955,-1.0,-5.0,-6.0,10.0,-4.0,-5.0,-3.0,-1.0,-0.38140869140625,-0.2930908203125,0.6405029296875,0.5986328125,-0.13623046875,-0.8515625,0.5478515625,1.5625,-0.25,-0.375
3.159999999999955,-1.0,-5.0,-6.0,10.0,-4.0,-5.0,-3.0,-1.0,-0.38140869140625,-0.2930908203125,0.6405029296875,0.5986328125,-0.1357421875,-0.8486328125,0.54638671875,0.0,-0.875,-0.3125
3.1649999999999547,0.0,1.0,4.0,-10.0,4.0,4.0,1.0,-1.0,-0.38140869140625,-0.2930908203125,0.6405029296875,0.5986328125,-0.1357421875,-0.8486328125,0.54638671875,0.0,-0.875,-0.3125
3.1699999999999546,0.0,1.0,4.0,-10.0,4.0,4.0,1.0,-1.0,-0.38140869140625,-0.2930908203125,0.6405029296875,0.5986328125,-0.1357421875,-0.8486328125,0.54638671875,0.0,-0.875,-0.3125
3.1749999999999545,-2.0,0.0,12.0,-3.0,0.0,2.0,0.0,-3.0,-0.38140869140625,-0.2930908203125,0.6405029296875,0.5986328125,-0.1357421875,-0.8486328125,0.54638671875,0.0,-0.875,-0.3125
3.1799999999999544,-2.0,0.0,12.0,-3.0,0.0,2.0,0.0,-3.0,-0.38140869140625,-0.2930908203125,0.6405029296875,0.5986328125,-0.1357421875,-0.8486328125,0.54638671875,0.0,-0.875,-0.3125
3.1849999999999543,-2.0,0.0,12.0,-3.0,0.0,2.0,0.0,-3.0,-0.38140869140625,-0.2930908203125,0.6405029296875,0.5986328125,-0.1357421875,-0.8486328125,0.54638671875,0.0,-0.875,-0.3125
3.189999999999954,-2.0,0.0,12.0,-3.0,0.0,2.0,0.0,-3.0,-0.3809814453125,-0.29315185546875,0.64056396484375,0.5987548828125,-0.1298828125,-0.8466796875,0.55615234375,0.875,-1.4375,-0.375
3.194999999999954,-2.0,-2.0,-19.0,-1.0,-5.0,-5.0,-3.0,-1.0,-0.3809814453125,-0.29315185546875,0.64056396484375,0.5987548828125,-0.1298828125,-0.8466796875,0.55615234375,0.875,-1.4375,-0.375
3.199999999999954,-2.0,-2.0,-19.0,-1.0,-5.0,-5.0,-3.0,-1.0,-0.3809814453125,-0.29315185546875,0.64056396484375,0.5987548828125,-0.1298828125,-0.8466796875,0.55615234375,0.875,-1.4375,-0.375
3.204999999999954,-2.0,0.0,0.0,1.0,5.0,3.0,-1.0,0.0,-0.3809814453125,-0.29315185546875,0.64056396484375,0.5987548828125,-0.1298828125,-0.8466796875,0.55615234375,0.875,-1.4375,-0.375
3.209999999999954,-2.0,0.0,0.0,1.0,5.0,3.0,-1.0,0.0,-0.38092041015625,-0.29339599609375,0.64056396484375,0.59869384765625,-0.140625,-0.8447265625,0.546875,-0.8125,-1.1875,-0.625
3.2149999999999537,-2.0,0.0,0.0,1.0,5.0,3.0,-1.0,0.0,-0.38092041015625,-0.29339599609375,0.64056396484375,0.59869384765625,-0.140625,-0.8447265625,0.546875,-0.8125,-1.1875,-0.625
3.2199999999999536,-2.0,0.0,0.0,1.0,5.0,3.0,-1.0,0.0,-0.38092041015625,-0.29339599609375,0.64056396484375,0.59869384765625,-0.140625,-0.8447265625,0.546875,-0.8125,-1.1875,-0.625
3.2249999999999535,-2.0,0.0,6.0,9.0,-2.0,-4.0,-3.0,-1.0,-0.38092041015625,-0.29339599609375,0.64056396484375,0.59869384765625,-0.140625,-0.8447265625,0.546875,-0.8125,-1.1875,-0.625
3.2299999999999534,-2.0,0.0,6.0,9.0,-2.0,-4.0,-3.0,-1.0,-0.38092041015625,-0.29339599609375,0.64056396484375,0.59869384765625,-0.140625,-0.8447265625,0.546875,-0.8125,-1.1875,-0.625
3.2349999999999532,-2.0,0.0,6.0,9.0,-2.0,-4.0,-3.0,-1.0,-0.38092041015625,-0.29345703125,0.64056396484375,0.59869384765625,-0.13916015625,-0.85595703125,0.53515625,-0.375,-0.875,-0.1875
3.239999999999953,-2.0,0.0,6.0,9.0,-2.0,-4.0,-3.0,-1.0,-0.38092041015625,-0.29345703125,0.64056396484375,0.59869384765625,-0.13916015625,-0.85595703125,0.53515625,-0.375,-0.875,-0.1875
3.244999999999953,-3.0,-6.0,14.0,-14.0,-5.0,-4.0,-4.0,-2.0,-0.38092041015625,-0.29345703125,0.64056396484375,0.59869384765625,-0.13916015625,-0.85595703125,0.53515625,-0.375,-0.875,-0.1875
3.249999999999953,-3.0,-6.0,14.0,-14.0,-5.0,-4.0,-4.0,-2.0,-0.38092041015625,-0.29345703125,0.64056396484375,0.59869384765625,-0.13916015625,-0.85595703125,0.53515625,-0.375,-0.875,-0.1875
3.254999999999953,-1.0,-1.0,0.0,-2.0,5.0,0.0,0.0,0.0,-0.38092041015625,-0.29345703125,0.64056396484375,0.59869384765625,-0.13916015625,-0.85595703125,0.53515625,-0.375,-0.875,-0.1875
3.2599999999999527,-1.0,-1.0,0.0,-2.0,5.0,0.0,0.0,0.0,-0.38092041015625,-0.29345703125,0.64056396484375,0.59869384765625,-0.13916015625,-0.85595703125,0.53515625,-0.375,-0.875,-0.1875
3.2649999999999526,-1.0,-1.0,0.0,-2.0,5.0,0.0,0.0,0.0,-0.3809814453125,-0.29345703125,0.64056396484375,0.59869384765625,-0.138671875,-0.85205078125,0.53857421875,0.75,0.0,-0.3125
3.2699999999999525,0.0,1.0,1.0,5.0,0.0,0.0,0.0,-1.0,-0.3809814453125,-0.29345703125,0.64056396484375,0.59869384765625,-0.138671875,-0.85205078125,0.53857421875,0.75,0.0,-0.3125
