0.005,0.0,0.0,4.0,21.0,0.0,-13.0,-3.0,-1.0,0.3067626953125,-0.50823974609375,0.63189697265625,-0.498291015625,-0.111328125,-0.9775390625,0.3017578125,-0.625,-3.5625,-1.375
0.01,0.0,0.0,4.0,21.0,0.0,-13.0,-3.0,-1.0,0.3067626953125,-0.50823974609375,0.63189697265625,-0.498291015625,-0.111328125,-0.9775390625,0.3017578125,-0.625,-3.5625,-1.375
0.015,-1.0,-3.0,-5.0,15.0,0.0,-6.0,-6.0,-1.0,0.30718994140625,-0.50775146484375,0.6319580078125,-0.49847412109375,-0.11474609375,-0.97119140625,0.3046875,1.0,-3.125,-1.3125
0.02,-1.0,-1.0,-2.0,2.0,-2.0,4.0,-1.0,-2.0,0.30718994140625,-0.50775146484375,0.6319580078125,-0.49847412109375,-0.11474609375,-0.97119140625,0.3046875,1.0,-3.125,-1.3125
0.025,-1.0,-1.0,-2.0,2.0,-2.0,4.0,-1.0,-2.0,0.30718994140625,-0.50775146484375,0.6319580078125,-0.49847412109375,-0.11474609375,-0.97119140625,0.3046875,1.0,-3.125,-1.3125
0.030000000000000002,-1.0,-2.0,0.0,-6.0,-14.0,-5.0,1.0,-1.0,0.30718994140625,-0.50775146484375,0.6319580078125,-0.49847412109375,-0.11474609375,-0.97119140625,0.3046875,1.0,-3.125,-1.3125
0.035,-1.0,-2.0,0.0,-6.0,-14.0,-5.0,1.0,-1.0,0.30718994140625,-0.50775146484375,0.6319580078125,-0.49847412109375,-0.11474609375,-0.97119140625,0.3046875,1.0,-3.125,-1.3125
0.04,-1.0,-2.0,0.0,-6.0,-14.0,-5.0,1.0,-1.0,0.3076171875,-0.50732421875,0.6319580078125,-0.4986572265625,-0.1123046875,-0.96142578125,0.30517578125,0.125,-3.1875,-0.8125
0.045,-1.0,-2.0,0.0,-6.0,-14.0,-5.0,1.0,-1.0,0.3076171875,-0.50732421875,0.6319580078125,-0.4986572265625,-0.1123046875,-0.96142578125,0.30517578125,0.125,-3.1875,-0.8125
0.049999999999999996,1.0,0.0,-2.0,-15.0,-5.0,0.0,-2.0,-1.0,0.3076171875,-0.50732421875,0.6319580078125,-0.4986572265625,-0.1123046875,-0.96142578125,0.30517578125,0.125,-3.1875,-0.8125
0.05499999999999999,1.0,0.0,-2.0,-15.0,-5.0,0.0,-2.0,-1.0,0.3076171875,-0.50732421875,0.6319580078125,-0.4986572265625,-0.1123046875,-0.96142578125,0.30517578125,0.125,-3.1875,-0.8125
0.05999999999999999,1.0,0.0,-2.0,-15.0,-5.0,0.0,-2.0,-1.0,0.3079833984375,-0.50701904296875,0.63189697265625,-0.49884033203125,-0.109375,-0.9755859375,0.30078125,0.375,-2.6875,-0.3125
0.06499999999999999,-2.0,0.0,2.0,-5.0,-5.0,-10.0,-5.0,-1.0,0.3079833984375,-0.50701904296875,0.63189697265625,-0.49884033203125,-0.109375,-0.9755859375,0.30078125,0.375,-2.6875,-0.3125
0.06999999999999999,-2.0,0.0,2.0,-5.0,-5.0,-10.0,-5.0,-1.0,0.3079833984375,-0.50701904296875,0.63189697265625,-0.49884033203125,-0.109375,-0.9755859375,0.30078125,0.375,-2.6875,-0.3125
0.075,-1.0,-2.0,-6.0,2.0,-2.0,3.0,5.0,1.0,0.3079833984375,-0.50701904296875,0.63189697265625,-0.49884033203125,-0.109375,-0.9755859375,0.30078125,0.375,-2.6875,-0.3125
0.08,-1.0,-2.0,-6.0,2.0,-2.0,3.0,5.0,1.0,0.3079833984375,-0.50701904296875,0.63189697265625,-0.49884033203125,-0.109375,-0.9755859375,0.30078125,0.375,-2.6875,-0.3125
0.085,-1.0,-2.0,-6.0,2.0,-2.0,3.0,5.0,1.0,0.3082275390625,-0.5067138671875,0.63189697265625,-0.49896240234375,-0.107421875,-0.97021484375,0.2998046875,0.75,-2.0,0.0
0.09000000000000001,-1.0,-2.0,-6.0,2.0,-2.0,3.0,5.0,1.0,0.3082275390625,-0.5067138671875,0.63189697265625,-0.49896240234375,-0.107421875,-0.97021484375,0.2998046875,0.75,-2.0,0.0
0.09500000000000001,-1.0,-2.0,-6.0,2.0,-2.0,3.0,5.0,1.0,0.3082275390625,-0.5067138671875,0.63189697265625,-0.49896240234375,-0.107421875,-0.97021484375,0.2998046875,0.75,-2.0,0.0
0.10000000000000002,0.0,-3.0,-4.0,-12.0,-4.0,-15.0,-6.0,-3.0,0.3082275390625,-0.5067138671875,0.63189697265625,-0.49896240234375,-0.107421875,-0.97021484375,0.2998046875,0.75,-2.0,0.0
0.10500000000000002,-2.0,-2.0,-3.0,-16.0,1.0,-1.0,4.0,0.0,0.3082275390625,-0.5067138671875,0.63189697265625,-0.49896240234375,-0.107421875,-0.97021484375,0.2998046875,0.75,-2.0,0.0
0.11000000000000003,-2.0,-2.0,-3.0,-16.0,1.0,-1.0,4.0,0.0,0.3082275390625,-0.5064697265625,0.6319580078125,-0.4991455078125,-0.1123046875,-0.95703125,0.31396484375,0.375,-1.0625,0.375
0.11500000000000003,-2.0,-2.0,-3.0,-16.0,1.0,-1.0,4.0,0.0,0.3082275390625,-0.5064697265625,0.6319580078125,-0.4991455078125,-0.1123046875,-0.95703125,0.31396484375,0.375,-1.0625,0.375
0.12000000000000004,0.0,1.0,-1.0,3.0,-8.0,4.0,-2.0,-3.0,0.3082275390625,-0.5064697265625,0.6319580078125,-0.4991455078125,-0.1123046875,-0.95703125,0.31396484375,0.375,-1.0625,0.375
0.12500000000000003,0.0,-2.0,-1.0,3.0,4.0,-4.0,-3.0,-4.0,0.3082275390625,-0.5064697265625,0.6319580078125,-0.4991455078125,-0.1123046875,-0.95703125,0.31396484375,0.375,-1.0625,0.375
0.13000000000000003,0.0,-2.0,-1.0,3.0,4.0,-4.0,-3.0,-4.0,0.308349609375,-0.50653076171875,0.63165283203125,-0.49932861328125,-0.11962890625,-0.95947265625,0.29931640625,-1.125,-1.125,0.9375
0.13500000000000004,0.0,-2.0,-1.0,3.0,4.0,-4.0,-3.0,-4.0,0.308349609375,-0.50653076171875,0.63165283203125,-0.49932861328125,-0.11962890625,-0.95947265625,0.29931640625,-1.125,-1.125,0.9375
0.14000000000000004,-1.0,-1.0,-1.0,3.0,-4.0,1.0,3.0,1.0,0.308349609375,-0.50653076171875,0.63165283203125,-0.49932861328125,-0.11962890625,-0.95947265625,0.29931640625,-1.125,-1.125,0.9375
0.14500000000000005,-1.0,-1.0,-1.0,3.0,-4.0,1.0,3.0,1.0,0.308349609375,-0.50653076171875,0.63165283203125,-0.49932861328125,-0.11962890625,-0.95947265625,0.29931640625,-1.125,-1.125,0.9375
0.15000000000000005,0.0,2.0,7.0,13.0,18.0,7.0,-2.0,1.0,0.308349609375,-0.50653076171875,0.63165283203125,-0.49932861328125,-0.11962890625,-0.95947265625,0.29931640625,-1.125,-1.125,0.9375
0.15500000000000005,0.0,2.0,7.0,13.0,18.0,7.0,-2.0,1.0,0.30841064453125,-0.50665283203125,0.63140869140625,-0.49951171875,-0.11181640625,-0.97021484375,0.30126953125,-0.8125,-0.8125,1.875
0.16000000000000006,-2.0,-4.0,-10.0,-12.0,-8.0,3.0,1.0,1.0,0.30841064453125,-0.50665283203125,0.63140869140625,-0.49951171875,-0.11181640625,-0.97021484375,0.30126953125,-0.8125,-0.8125,1.875
0.16500000000000006,-2.0,-4.0,-10.0,-12.0,-8.0,3.0,1.0,1.0,0.30841064453125,-0.50665283203125,0.63140869140625,-0.49951171875,-0.11181640625,-0.97021484375,0.30126953125,-0.8125,-0.8125,1.875
0.17000000000000007,-3.0,-2.0,-2.0,2.0,-7.0,5.0,1.0,-1.0,0.30841064453125,-0.50665283203125,0.63140869140625,-0.49951171875,-0.11181640625,-0.97021484375,0.30126953125,-0.8125,-0.8125,1.875
0.17500000000000007,-3.0,-2.0,-2.0,2.0,-7.0,5.0,1.0,-1.0,0.30841064453125,-0.50665283203125,0.63140869140625,-0.49951171875,-0.11181640625,-0.97021484375,0.30126953125,-0.8125,-0.8125,1.875
0.18000000000000008,-3.0,-2.0,-2.0,2.0,-7.0,5.0,1.0,-1.0,0.308349609375,-0.5068359375,0.63128662109375,-0.49957275390625,-0.11669921875,-0.9794921875,0.30126953125,-0.5,0.25,1.3125
0.18500000000000008,-3.0,-2.0,-2.0,2.0,-7.0,5.0,1.0,-1.0,0.308349609375,-0.5068359375,0.63128662109375,-0.49957275390625,-0.11669921875,-0.9794921875,0.30126953125,-0.5,0.25,1.3125
0.19000000000000009,-3.0,-2.0,-2.0,2.0,-7.0,5.0,1.0,-1.0,0.308349609375,-0.5068359375,0.63128662109375,-0.49957275390625,-0.11669921875,-0.9794921875,0.30126953125,-0.5,0.25,1.3125
0.1950000000000001,-2.0,-1.0,-1.0,1.0,0.0,-5.0,-6.0,-4.0,0.30816650390625,-0.50677490234375,0.63134765625,-0.49957275390625,-0.11328125,-0.96142578125,0.298828125,1.0625,0.8125,0.875
0.2000000000000001,-1.0,-2.0,-3.0,-18.0,-3.0,11.0,3.0,3.0,0.30816650390625,-0.50677490234375,0.63134765625,-0.49957275390625,-0.11328125,-0.96142578125,0.298828125,1.0625,0.8125,0.875
0.2050000000000001,-2.0,0.0,1.0,16.0,1.0,-2.0,-2.0,-4.0,0.30816650390625,-0.50677490234375,0.63134765625,-0.49957275390625,-0.11328125,-0.96142578125,0.298828125,1.0625,0.8125,0.875
0.2100000000000001,-1.0,1.0,2.0,25.0,5.0,1.0,-3.0,1.0,0.30816650390625,-0.50677490234375,0.63134765625,-0.49957275390625,-0.11328125,-0.96142578125,0.298828125,1.0625,0.8125,0.875
0.2150000000000001,-1.0,1.0,2.0,25.0,5.0,1.0,-3.0,1.0,0.30816650390625,-0.50677490234375,0.63134765625,-0.49957275390625,-0.12158203125,-0.96533203125,0.29541015625,0.5,0.875,0.25
0.2200000000000001,-1.0,1.0,2.0,25.0,5.0,1.0,-3.0,1.0,0.30816650390625,-0.50677490234375,0.63134765625,-0.49957275390625,-0.12158203125,-0.96533203125,0.29541015625,0.5,0.875,0.25
0.22500000000000012,-1.0,-1.0,0.0,12.0,-2.0,-2.0,-4.0,0.0,0.30816650390625,-0.50677490234375,0.63134765625,-0.49957275390625,-0.12158203125,-0.96533203125,0.29541015625,0.5,0.875,0.25
0.23000000000000012,-2.0,-5.0,-15.0,-33.0,-5.0,-11.0,-2.0,-1.0,0.30816650390625,-0.50677490234375,0.63134765625,-0.49957275390625,-0.12158203125,-0.96533203125,0.29541015625,0.5,0.875,0.25
0.23500000000000013,-2.0,-5.0,-15.0,-33.0,-5.0,-11.0,-2.0,-1.0,0.30816650390625,-0.50677490234375,0.63134765625,-0.49957275390625,-0.12158203125,-0.96533203125,0.29541015625,0.5,0.875,0.25
0.24000000000000013,-2.0,-5.0,-15.0,-33.0,-5.0,-11.0,-2.0,-1.0,0.30804443359375,-0.5069580078125,0.63134765625,-0.49945068359375,-0.12109375,-0.96630859375,0.296875,-0.3125,1.1875,-0.0625
0.24500000000000013,-2.0,-5.0,-15.0,-33.0,-5.0,-11.0,-2.0,-1.0,0.30804443359375,-0.5069580078125,0.63134765625,-0.49945068359375,-0.12109375,-0.96630859375,0.296875,-0.3125,1.1875,-0.0625
0.2500000000000001,0.0,1.0,5.0,7.0,2.0,3.0,-3.0,-3.0,0.30804443359375,-0.5069580078125,0.63134765625,-0.49945068359375,-0.12109375,-0.96630859375,0.296875,-0.3125,1.1875,-0.0625
0.2550000000000001,0.0,1.0,5.0,7.0,2.0,3.0,-3.0,-3.0,0.30804443359375,-0.5069580078125,0.63134765625,-0.49945068359375,-0.12109375,-0.96630859375,0.296875,-0.3125,1.1875,-0.0625
0.2600000000000001,-2.0,-3.0,0.0,0.0,-3.0,-5.0,-3.0,-1.0,0.30804443359375,-0.5069580078125,0.63134765625,-0.49945068359375,-0.12109375,-0.96630859375,0.296875,-0.3125,1.1875,-0.0625
0.2650000000000001,2.0,0.0,-3.0,-5.0,3.0,24.0,4.0,-1.0,0.30804443359375,-0.50701904296875,0.63134765625,-0.49945068359375,-0.12353515625,-0.95849609375,0.296875,0.8125,0.75,0.125
0.27000000000000013,2.0,0.0,-3.0,-5.0,3.0,24.0,4.0,-1.0,0.30804443359375,-0.50701904296875,0.63134765625,-0.49945068359375,-0.12353515625,-0.95849609375,0.296875,0.8125,0.75,0.125
0.27500000000000013,-2.0,-2.0,-5.0,-10.0,-7.0,-20.0,-9.0,-3.0,0.30804443359375,-0.50701904296875,0.63134765625,-0.49945068359375,-0.12353515625,-0.95849609375,0.296875,0.8125,0.75,0.125
0.28000000000000014,-2.0,-2.0,-5.0,-10.0,-7.0,-20.0,-9.0,-3.0,0.30804443359375,-0.50701904296875,0.63134765625,-0.49945068359375,-0.12353515625,-0.95849609375,0.296875,0.8125,0.75,0.125
0.28500000000000014,-2.0,-2.0,-5.0,-10.0,-7.0,-20.0,-9.0,-3.0,0.30792236328125,-0.50701904296875,0.63140869140625,-0.49945068359375,-0.1240234375,-0.96533203125,0.29443359375,1.0,0.375,0.0
0.29000000000000015,-3.0,-4.0,-4.0,-3.0,-3.0,-2.0,1.0,0.0,0.30792236328125,-0.50701904296875,0.63140869140625,-0.49945068359375,-0.1240234375,-0.96533203125,0.29443359375,1.0,0.375,0.0
0.29500000000000015,-2.0,-2.0,4.0,6.0,6.0,15.0,4.0,-1.0,0.30792236328125,-0.50701904296875,0.63140869140625,-0.49945068359375,-0.1240234375,-0.96533203125,0.29443359375,1.0,0.375,0.0
0.30000000000000016,1.0,0.0,1.0,3.0,-1.0,-1.0,0.0,-2.0,0.30792236328125,-0.50701904296875,0.63140869140625,-0.49945068359375,-0.1240234375,-0.96533203125,0.29443359375,1.0,0.375,0.0
0.30500000000000016,1.0,0.0,1.0,3.0,-1.0,-1.0,0.0,-2.0,0.30792236328125,-0.50701904296875,0.63140869140625,-0.49945068359375,-0.1240234375,-0.96533203125,0.29443359375,1.0,0.375,0.0
0.31000000000000016,1.0,0.0,1.0,3.0,-1.0,-1.0,0.0,-2.0,0.30780029296875,-0.507080078125,0.6314697265625,-0.4993896484375,-0.12451171875,-0.96630859375,0.30126953125,0.0,1.0,-0.1875
0.31500000000000017,1.0,0.0,1.0,3.0,-1.0,-1.0,0.0,-2.0,0.30780029296875,-0.507080078125,0.6314697265625,-0.4993896484375,-0.12451171875,-0.96630859375,0.30126953125,0.0,1.0,-0.1875
0.3200000000000002,-2.0,-3.0,-10.0,-23.0,0.0,-3.0,1.0,0.0,0.30780029296875,-0.507080078125,0.6314697265625,-0.4993896484375,-0.12451171875,-0.96630859375,0.30126953125,0.0,1.0,-0.1875
0.3250000000000002,-1.0,0.0,1.0,7.0,5.0,-4.0,-2.0,-1.0,0.30755615234375,-0.5072021484375,0.63153076171875,-0.499267578125,-0.1318359375,-0.96826171875,0.2900390625,0.9375,1.125,-0.625
0.3300000000000002,-1.0,-2.0,-2.0,-6.0,1.0,-5.0,1.0,2.0,0.30755615234375,-0.5072021484375,0.63153076171875,-0.499267578125,-0.1318359375,-0.96826171875,0.2900390625,0.9375,1.125,-0.625
0.3350000000000002,-1.0,-1.0,2.0,3.0,2.0,-1.0,-6.0,-5.0,0.30755615234375,-0.5072021484375,0.63153076171875,-0.499267578125,-0.1318359375,-0.96826171875,0.2900390625,0.9375,1.125,-0.625
0.3400000000000002,-4.0,-2.0,-6.0,-23.0,-14.0,2.0,-2.0,-1.0,0.30755615234375,-0.5072021484375,0.63153076171875,-0.499267578125,-0.1318359375,-0.96826171875,0.2900390625,0.9375,1.125,-0.625
0.3450000000000002,-4.0,-2.0,-6.0,-23.0,-14.0,2.0,-2.0,-1.0,0.30755615234375,-0.5072021484375,0.63153076171875,-0.499267578125,-0.1318359375,-0.96826171875,0.2900390625,0.9375,1.125,-0.625
0.3500000000000002,-4.0,-2.0,-6.0,-23.0,-14.0,2.0,-2.0,-1.0,0.307373046875,-0.5072021484375,0.6317138671875,-0.49920654296875,-0.13330078125,-0.96240234375,0.28369140625,2.1875,0.875,-0.9375
0.3550000000000002,-4.0,-2.0,-6.0,-23.0,-14.0,2.0,-2.0,-1.0,0.307373046875,-0.5072021484375,0.6317138671875,-0.49920654296875,-0.13330078125,-0.96240234375,0.28369140625,2.1875,0.875,-0.9375
0.3600000000000002,0.0,-1.0,6.0,27.0,0.0,-13.0,-1.0,1.0,0.307373046875,-0.5072021484375,0.6317138671875,-0.49920654296875,-0.13330078125,-0.96240234375,0.28369140625,2.1875,0.875,-0.9375
0.3650000000000002,0.0,-1.0,6.0,27.0,0.0,-13.0,-1.0,1.0,0.307373046875,-0.5072021484375,0.6317138671875,-0.49920654296875,-0.13330078125,-0.96240234375,0.28369140625,2.1875,0.875,-0.9375
0.3700000000000002,-2.0,-2.0,3.0,8.0,1.0,2.0,-1.0,-2.0,0.30731201171875,-0.50732421875,0.63177490234375,-0.49908447265625,-0.130859375,-0.96240234375,0.29150390625,0.25,0.5625,-1.0625
0.3750000000000002,-1.0,-2.0,-2.0,-5.0,-4.0,2.0,5.0,0.0,0.30731201171875,-0.50732421875,0.63177490234375,-0.49908447265625,-0.130859375,-0.96240234375,0.29150390625,0.25,0.5625,-1.0625
0.3800000000000002,-1.0,-2.0,-2.0,-5.0,-4.0,2.0,5.0,0.0,0.30731201171875,-0.50732421875,0.63177490234375,-0.49908447265625,-0.130859375,-0.96240234375,0.29150390625,0.25,0.5625,-1.0625
0.38500000000000023,-1.0,1.0,1.0,0.0,-5.0,2.0,-2.0,-2.0,0.30731201171875,-0.50732421875,0.63177490234375,-0.49908447265625,-0.1240234375,-0.9677734375,0.298828125,-0.5,-0.125,-0.125
0.39000000000000024,-1.0,1.0,1.0,0.0,-5.0,2.0,-2.0,-2.0,0.30731201171875,-0.50732421875,0.63177490234375,-0.49908447265625,-0.1240234375,-0.9677734375,0.298828125,-0.5,-0.125,-0.125
0.39500000000000024,-1.0,0.0,0.0,-3.0,3.0,1.0,2.0,-1.0,0.30731201171875,-0.50732421875,0.63177490234375,-0.49908447265625,-0.1240234375,-0.9677734375,0.298828125,-0.5,-0.125,-0.125
0.40000000000000024,1.0,1.0,4.0,5.0,3.0,-1.0,0.0,-1.0,0.30731201171875,-0.50732421875,0.63177490234375,-0.49908447265625,-0.1240234375,-0.9677734375,0.298828125,-0.5,-0.125,-0.125
0.40500000000000025,1.0,1.0,4.0,5.0,3.0,-1.0,0.0,-1.0,0.30731201171875,-0.50732421875,0.63177490234375,-0.49908447265625,-0.1240234375,-0.9677734375,0.298828125,-0.5,-0.125,-0.125
0.41000000000000025,1.0,1.0,4.0,5.0,3.0,-1.0,0.0,-1.0,0.30731201171875,-0.50732421875,0.6317138671875,-0.49908447265625,-0.126953125,-0.96533203125,0.2900390625,0.0625,-0.375,0.9375
0.41500000000000026,1.0,1.0,4.0,5.0,3.0,-1.0,0.0,-1.0,0.30731201171875,-0.50732421875,0.6317138671875,-0.49908447265625,-0.126953125,-0.96533203125,0.2900390625,0.0625,-0.375,0.9375
0.42000000000000026,-1.0,-1.0,9.0,39.0,6.0,-3.0,-1.0,1.0,0.30731201171875,-0.50732421875,0.6317138671875,-0.49908447265625,-0.126953125,-0.96533203125,0.2900390625,0.0625,-0.375,0.9375
0.42500000000000027,-1.0,-1.0,9.0,39.0,6.0,-3.0,-1.0,1.0,0.30731201171875,-0.50732421875,0.6317138671875,-0.49908447265625,-0.126953125,-0.96533203125,0.2900390625,0.0625,-0.375,0.9375
0.43000000000000027,0.0,-1.0,1.0,2.0,4.0,13.0,4.0,1.0,0.30731201171875,-0.50732421875,0.6317138671875,-0.49908447265625,-0.126953125,-0.96533203125,0.2900390625,0.0625,-0.375,0.9375
0.4350000000000003,0.0,-1.0,1.0,2.0,4.0,13.0,4.0,1.0,0.30731201171875,-0.50732421875,0.6317138671875,-0.49908447265625,-0.126953125,-0.96533203125,0.2900390625,0.0625,-0.375,0.9375
0.4400000000000003,0.0,-1.0,1.0,2.0,4.0,13.0,4.0,1.0,0.30731201171875,-0.50738525390625,0.6317138671875,-0.49908447265625,-0.13330078125,-0.97265625,0.2939453125,-0.4375,-0.4375,0.5625
0.4450000000000003,0.0,-1.0,1.0,2.0,4.0,13.0,4.0,1.0,0.30731201171875,-0.50738525390625,0.6317138671875,-0.49908447265625,-0.13330078125,-0.97265625,0.2939453125,-0.4375,-0.4375,0.5625
0.4500000000000003,-1.0,-1.0,0.0,-14.0,-12.0,-7.0,-4.0,-3.0,0.30731201171875,-0.50738525390625,0.6317138671875,-0.49908447265625,-0.13330078125,-0.97265625,0.2939453125,-0.4375,-0.4375,0.5625
0.4550000000000003,-1.0,-1.0,0.0,-14.0,-12.0,-7.0,-4.0,-3.0,0.30731201171875,-0.50738525390625,0.6317138671875,-0.49908447265625,-0.13330078125,-0.97265625,0.2939453125,-0.4375,-0.4375,0.5625
0.4600000000000003,-2.0,-3.0,-8.0,-5.0,-4.0,2.0,-1.0,-2.0,0.30731201171875,-0.50738525390625,0.6317138671875,-0.49908447265625,-0.13330078125,-0.97265625,0.2939453125,-0.4375,-0.4375,0.5625
0.4650000000000003,-2.0,-3.0,-8.0,-5.0,-4.0,2.0,-1.0,-2.0,0.30731201171875,-0.50738525390625,0.6317138671875,-0.49908447265625,-0.13330078125,-0.97265625,0.2939453125,-0.4375,-0.4375,0.5625
0.4700000000000003,-2.0,-3.0,-8.0,-5.0,-4.0,2.0,-1.0,-2.0,0.30718994140625,-0.50732421875,0.631591796875,-0.49932861328125,-0.13671875,-0.95947265625,0.291015625,1.1875,-1.0625,0.25
0.4750000000000003,-2.0,-3.0,-8.0,-5.0,-4.0,2.0,-1.0,-2.0,0.30718994140625,-0.50732421875,0.631591796875,-0.49932861328125,-0.13671875,-0.95947265625,0.291015625,1.1875,-1.0625,0.25
0.4800000000000003,0.0,-2.0,0.0,3.0,0.0,11.0,1.0,-1.0,0.30718994140625,-0.50732421875,0.631591796875,-0.49932861328125,-0.13671875,-0.95947265625,0.291015625,1.1875,-1.0625,0.25
0.4850000000000003,0.0,-2.0,0.0,3.0,0.0,11.0,1.0,-1.0,0.30718994140625,-0.50732421875,0.631591796875,-0.49932861328125,-0.13671875,-0.95947265625,0.291015625,1.1875,-1.0625,0.25
0.4900000000000003,0.0,-2.0,0.0,3.0,0.0,11.0,1.0,-1.0,0.30712890625,-0.50714111328125,0.6314697265625,-0.49969482421875,-0.1357421875,-0.95654296875,0.29736328125,1.0625,-1.875,0.3125
0.49500000000000033,0.0,-1.0,0.0,-10.0,3.0,-9.0,-3.0,-2.0,0.30712890625,-0.50714111328125,0.6314697265625,-0.49969482421875,-0.1357421875,-0.95654296875,0.29736328125,1.0625,-1.875,0.3125
0.5000000000000003,0.0,-1.0,0.0,-10.0,3.0,-9.0,-3.0,-2.0,0.30712890625,-0.50714111328125,0.6314697265625,-0.49969482421875,-0.1357421875,-0.95654296875,0.29736328125,1.0625,-1.875,0.3125
0.5050000000000003,-1.0,0.0,-4.0,-16.0,2.0,2.0,1.0,1.0,0.30712890625,-0.50714111328125,0.6314697265625,-0.49969482421875,-0.1357421875,-0.95654296875,0.29736328125,1.0625,-1.875,0.3125
0.5100000000000003,-1.0,0.0,-4.0,-16.0,2.0,2.0,1.0,1.0,0.30712890625,-0.50714111328125,0.6314697265625,-0.49969482421875,-0.1357421875,-0.95654296875,0.29736328125,1.0625,-1.875,0.3125
0.5150000000000003,-1.0,0.0,-4.0,-16.0,2.0,2.0,1.0,1.0,0.3072509765625,-0.50714111328125,0.63116455078125,-0.5,-0.13134765625,-0.96484375,0.29931640625,-0.4375,-2.1875,0.9375
0.5200000000000004,-1.0,0.0,-4.0,-16.0,2.0,2.0,1.0,1.0,0.3072509765625,-0.50714111328125,0.63116455078125,-0.5,-0.13134765625,-0.96484375,0.29931640625,-0.4375,-2.1875,0.9375
0.5250000000000004,-1.0,0.0,-4.0,-16.0,2.0,2.0,1.0,1.0,0.3072509765625,-0.50714111328125,0.63116455078125,-0.5,-0.13134765625,-0.96484375,0.29931640625,-0.4375,-2.1875,0.9375
0.5300000000000004,-2.0,0.0,-1.0,-5.0,0.0,0.0,0.0,0.0,0.3072509765625,-0.50714111328125,0.63116455078125,-0.5,-0.13134765625,-0.96484375,0.29931640625,-0.4375,-2.1875,0.9375
0.5350000000000004,-2.0,0.0,-1.0,-5.0,0.0,0.0,0.0,0.0,0.3072509765625,-0.50714111328125,0.63116455078125,-0.5,-0.13134765625,-0.96484375,0.29931640625,-0.4375,-2.1875,0.9375
0.5400000000000004,0.0,-2.0,4.0,14.0,0.0,5.0,1.0,0.0,0.30743408203125,-0.507080078125,0.6309814453125,-0.500244140625,-0.13427734375,-0.9833984375,0.29833984375,0.0625,-2.3125,0.0
0.5450000000000004,0.0,-2.0,4.0,14.0,0.0,5.0,1.0,0.0,0.30743408203125,-0.507080078125,0.6309814453125,-0.500244140625,-0.13427734375,-0.9833984375,0.29833984375,0.0625,-2.3125,0.0
0.5500000000000004,0.0,-2.0,4.0,14.0,0.0,5.0,1.0,0.0,0.30743408203125,-0.507080078125,0.6309814453125,-0.500244140625,-0.13427734375,-0.9833984375,0.29833984375,0.0625,-2.3125,0.0
0.5550000000000004,0.0,-2.0,4.0,14.0,0.0,5.0,1.0,0.0,0.30743408203125,-0.507080078125,0.6309814453125,-0.500244140625,-0.13427734375,-0.9833984375,0.29833984375,0.0625,-2.3125,0.0
0.5600000000000004,-3.0,-1.0,-3.0,-7.0,5.0,-10.0,-4.0,0.0,0.30743408203125,-0.507080078125,0.6309814453125,-0.500244140625,-0.13427734375,-0.9833984375,0.29833984375,0.0625,-2.3125,0.0
0.5650000000000004,-3.0,-1.0,-3.0,-7.0,5.0,-10.0,-4.0,0.0,0.30743408203125,-0.506591796875,0.63116455078125,-0.50048828125,-0.12744140625,-0.97021484375,0.29296875,3.5625,-2.0,-0.9375
0.5700000000000004,-3.0,-1.0,-3.0,-7.0,5.0,-10.0,-4.0,0.0,0.30743408203125,-0.506591796875,0.63116455078125,-0.50048828125,-0.12744140625,-0.97021484375,0.29296875,3.5625,-2.0,-0.9375
0.5750000000000004,-1.0,-5.0,-3.0,-12.0,-3.0,4.0,-5.0,-4.0,0.30743408203125,-0.506591796875,0.63116455078125,-0.50048828125,-0.12744140625,-0.97021484375,0.29296875,3.5625,-2.0,-0.9375
0.5800000000000004,-1.0,-5.0,-3.0,-12.0,-3.0,4.0,-5.0,-4.0,0.30743408203125,-0.506591796875,0.63116455078125,-0.50048828125,-0.12744140625,-0.97021484375,0.29296875,3.5625,-2.0,-0.9375
0.5850000000000004,-1.0,-5.0,-3.0,-12.0,-3.0,4.0,-5.0,-4.0,0.30743408203125,-0.506591796875,0.63116455078125,-0.50048828125,-0.12744140625,-0.97021484375,0.29296875,3.5625,-2.0,-0.9375
0.5900000000000004,0.0,1.0,2.0,3.0,2.0,-19.0,-5.0,-2.0,0.30743408203125,-0.506591796875,0.63116455078125,-0.50048828125,-0.12744140625,-0.97021484375,0.29296875,3.5625,-2.0,-0.9375
0.5950000000000004,0.0,1.0,2.0,3.0,2.0,-19.0,-5.0,-2.0,0.30743408203125,-0.506591796875,0.63116455078125,-0.50048828125,-0.12744140625,-0.97021484375,0.29296875,3.5625,-2.0,-0.9375
0.6000000000000004,0.0,1.0,2.0,3.0,2.0,-19.0,-5.0,-2.0,0.30755615234375,-0.50634765625,0.631103515625,-0.50079345703125,-0.12841796875,-0.9580078125,0.2900390625,1.4375,-2.375,-0.125
0.6050000000000004,0.0,1.0,4.0,5.0,3.0,5.0,2.0,-2.0,0.30755615234375,-0.50634765625,0.631103515625,-0.50079345703125,-0.12841796875,-0.9580078125,0.2900390625,1.4375,-2.375,-0.125
0.6100000000000004,0.0,1.0,4.0,5.0,3.0,5.0,2.0,-2.0,0.30755615234375,-0.50634765625,0.631103515625,-0.50079345703125,-0.12841796875,-0.9580078125,0.2900390625,1.4375,-2.375,-0.125
0.6150000000000004,0.0,1.0,4.0,5.0,3.0,5.0,2.0,-2.0,0.30755615234375,-0.50634765625,0.631103515625,-0.50079345703125,-0.12841796875,-0.9580078125,0.2900390625,1.4375,-2.375,-0.125
0.6200000000000004,1.0,0.0,0.0,4.0,-3.0,0.0,-2.0,-1.0,0.307861328125,-0.50628662109375,0.63079833984375,-0.50103759765625,-0.12744140625,-0.966796875,0.29736328125,-0.75,-2.5,0.5
0.6250000000000004,1.0,0.0,0.0,4.0,-3.0,0.0,-2.0,-1.0,0.307861328125,-0.50628662109375,0.63079833984375,-0.50103759765625,-0.12744140625,-0.966796875,0.29736328125,-0.75,-2.5,0.5
0.6300000000000004,1.0,0.0,0.0,4.0,-3.0,0.0,-2.0,-1.0,0.307861328125,-0.50628662109375,0.63079833984375,-0.50103759765625,-0.12744140625,-0.966796875,0.29736328125,-0.75,-2.5,0.5
0.6350000000000005,1.0,0.0,0.0,4.0,-3.0,0.0,-2.0,-1.0,0.307861328125,-0.50628662109375,0.63079833984375,-0.50103759765625,-0.12744140625,-0.966796875,0.29736328125,-0.75,-2.5,0.5
0.6400000000000005,-3.0,-3.0,0.0,5.0,-2.0,-15.0,-4.0,-2.0,0.307861328125,-0.50628662109375,0.63079833984375,-0.50103759765625,-0.12744140625,-0.966796875,0.29736328125,-0.75,-2.5,0.5
0.6450000000000005,-3.0,-3.0,0.0,5.0,-2.0,-15.0,-4.0,-2.0,0.30804443359375,-0.5062255859375,0.6304931640625,-0.50128173828125,-0.1220703125,-0.9677734375,0.2978515625,-0.3125,-2.1875,1.0
0.6500000000000005,-3.0,-3.0,0.0,5.0,-2.0,-15.0,-4.0,-2.0,0.30804443359375,-0.5062255859375,0.6304931640625,-0.50128173828125,-0.1220703125,-0.9677734375,0.2978515625,-0.3125,-2.1875,1.0
0.6550000000000005,-3.0,-3.0,0.0,5.0,-2.0,-15.0,-4.0,-2.0,0.30804443359375,-0.5062255859375,0.6304931640625,-0.50128173828125,-0.1220703125,-0.9677734375,0.2978515625,-0.3125,-2.1875,1.0
0.6600000000000005,-1.0,-3.0,-2.0,1.0,-4.0,5.0,1.0,-2.0,0.30804443359375,-0.5062255859375,0.6304931640625,-0.50128173828125,-0.1220703125,-0.9677734375,0.2978515625,-0.3125,-2.1875,1.0
0.6650000000000005,-1.0,-3.0,-2.0,1.0,-4.0,5.0,1.0,-2.0,0.30804443359375,-0.5062255859375,0.6304931640625,-0.50128173828125,-0.1220703125,-0.9677734375,0.2978515625,-0.3125,-2.1875,1.0
0.6700000000000005,-2.0,-6.0,-5.0,-4.0,2.0,-2.0,-1.0,-2.0,0.30804443359375,-0.5062255859375,0.6304931640625,-0.50128173828125,-0.1220703125,-0.9677734375,0.2978515625,-0.3125,-2.1875,1.0
0.6750000000000005,-2.0,-6.0,-5.0,-4.0,2.0,-2.0,-1.0,-2.0,0.30804443359375,-0.5062255859375,0.6302490234375,-0.5015869140625,-0.123046875,-0.96484375,0.2998046875,-0.0625,-1.625,1.75
0.6800000000000005,-2.0,-6.0,-5.0,-4.0,2.0,-2.0,-1.0,-2.0,0.30804443359375,-0.5062255859375,0.6302490234375,-0.5015869140625,-0.123046875,-0.96484375,0.2998046875,-0.0625,-1.625,1.75
0.6850000000000005,-2.0,-6.0,-5.0,-4.0,2.0,-2.0,-1.0,-2.0,0.30804443359375,-0.5062255859375,0.6302490234375,-0.5015869140625,-0.123046875,-0.96484375,0.2998046875,-0.0625,-1.625,1.75
0.6900000000000005,1.0,1.0,1.0,-1.0,-3.0,9.0,1.0,1.0,0.30804443359375,-0.5062255859375,0.6302490234375,-0.5015869140625,-0.123046875,-0.96484375,0.2998046875,-0.0625,-1.625,1.75
0.6950000000000005,1.0,1.0,1.0,-1.0,-3.0,9.0,1.0,1.0,0.3079833984375,-0.5062255859375,0.6300048828125,-0.501953125,-0.12060546875,-0.9599609375,0.29443359375,0.5,-1.25,2.3125
0.7000000000000005,1.0,1.0,1.0,-1.0,-3.0,9.0,1.0,1.0,0.3079833984375,-0.5062255859375,0.6300048828125,-0.501953125,-0.12060546875,-0.9599609375,0.29443359375,0.5,-1.25,2.3125
0.7050000000000005,-2.0,-1.0,-2.0,7.0,1.0,-14.0,-3.0,0.0,0.3079833984375,-0.5062255859375,0.6300048828125,-0.501953125,-0.12060546875,-0.9599609375,0.29443359375,0.5,-1.25,2.3125
0.7100000000000005,1.0,-1.0,-2.0,0.0,1.0,7.0,1.0,-2.0,0.30780029296875,-0.50628662109375,0.629638671875,-0.50250244140625,-0.126953125,-0.95166015625,0.298828125,0.25,-1.5625,2.9375
0.7150000000000005,1.0,-1.0,-2.0,0.0,1.0,7.0,1.0,-2.0,0.30780029296875,-0.50628662109375,0.629638671875,-0.50250244140625,-0.126953125,-0.95166015625,0.298828125,0.25,-1.5625,2.9375
0.7200000000000005,0.0,-1.0,-4.0,-8.0,2.0,-3.0,1.0,0.0,0.30780029296875,-0.50628662109375,0.629638671875,-0.50250244140625,-0.126953125,-0.95166015625,0.298828125,0.25,-1.5625,2.9375
0.7250000000000005,0.0,-1.0,-4.0,-8.0,2.0,-3.0,1.0,0.0,0.30780029296875,-0.50628662109375,0.629638671875,-0.50250244140625,-0.126953125,-0.95166015625,0.298828125,0.25,-1.5625,2.9375
0.7300000000000005,0.0,-1.0,-4.0,-8.0,2.0,-3.0,1.0,0.0,0.30780029296875,-0.50628662109375,0.629638671875,-0.50250244140625,-0.126953125,-0.95166015625,0.298828125,0.25,-1.5625,2.9375
0.7350000000000005,-1.0,1.0,1.0,4.0,2.0,-2.0,3.0,2.0,0.30780029296875,-0.50628662109375,0.629638671875,-0.50250244140625,-0.126953125,-0.95166015625,0.298828125,0.25,-1.5625,2.9375
0.7400000000000005,-1.0,1.0,1.0,4.0,2.0,-2.0,3.0,2.0,0.30780029296875,-0.50634765625,0.6292724609375,-0.5029296875,-0.126953125,-0.95654296875,0.29443359375,-0.3125,-1.6875,2.75
0.7450000000000006,-1.0,-4.0,-11.0,4.0,-7.0,-6.0,-5.0,-4.0,0.30780029296875,-0.50634765625,0.6292724609375,-0.5029296875,-0.126953125,-0.95654296875,0.29443359375,-0.3125,-1.6875,2.75
0.7500000000000006,-1.0,-4.0,-11.0,4.0,-7.0,-6.0,-5.0,-4.0,0.30780029296875,-0.50634765625,0.6292724609375,-0.5029296875,-0.126953125,-0.95654296875,0.29443359375,-0.3125,-1.6875,2.75
0.7550000000000006,-1.0,-4.0,-11.0,4.0,-7.0,-6.0,-5.0,-4.0,0.30780029296875,-0.50634765625,0.6292724609375,-0.5029296875,-0.126953125,-0.95654296875,0.29443359375,-0.3125,-1.6875,2.75
0.7600000000000006,-2.0,0.0,-1.0,-5.0,-2.0,0.0,-1.0,-1.0,0.30792236328125,-0.50653076171875,0.62884521484375,-0.503173828125,-0.115234375,-0.9716796875,0.29833984375,-1.25,-1.375,2.75
0.7650000000000006,-2.0,0.0,-1.0,-5.0,-2.0,0.0,-1.0,-1.0,0.30792236328125,-0.50653076171875,0.62884521484375,-0.503173828125,-0.115234375,-0.9716796875,0.29833984375,-1.25,-1.375,2.75
0.7700000000000006,0.0,0.0,0.0,8.0,4.0,-6.0,-8.0,-4.0,0.30792236328125,-0.50653076171875,0.62884521484375,-0.503173828125,-0.115234375,-0.9716796875,0.29833984375,-1.25,-1.375,2.75
0.7750000000000006,0.0,-1.0,3.0,6.0,-5.0,2.0,1.0,-3.0,0.30792236328125,-0.50653076171875,0.62884521484375,-0.503173828125,-0.115234375,-0.9716796875,0.29833984375,-1.25,-1.375,2.75
0.7800000000000006,0.0,-1.0,3.0,6.0,-5.0,2.0,1.0,-3.0,0.30767822265625,-0.50634765625,0.62872314453125,-0.50360107421875,-0.11767578125,-0.95166015625,0.31103515625,0.6875,-0.875,2.375
0.7850000000000006,-1.0,-5.0,0.0,7.0,-3.0,-4.0,-2.0,-2.0,0.30767822265625,-0.50634765625,0.62872314453125,-0.50360107421875,-0.11767578125,-0.95166015625,0.31103515625,0.6875,-0.875,2.375
0.7900000000000006,-1.0,-5.0,0.0,7.0,-3.0,-4.0,-2.0,-2.0,0.30767822265625,-0.50634765625,0.62872314453125,-0.50360107421875,-0.11767578125,-0.95166015625,0.31103515625,0.6875,-0.875,2.375
0.7950000000000006,-2.0,-3.0,-3.0,-13.0,-11.0,-2.0,-3.0,-2.0,0.30767822265625,-0.50634765625,0.62872314453125,-0.50360107421875,-0.11767578125,-0.95166015625,0.31103515625,0.6875,-0.875,2.375
0.8000000000000006,-2.0,-3.0,-3.0,-13.0,-11.0,-2.0,-3.0,-2.0,0.30767822265625,-0.50634765625,0.62872314453125,-0.50360107421875,-0.11767578125,-0.95166015625,0.31103515625,0.6875,-0.875,2.375
0.8050000000000006,-2.0,-3.0,-3.0,-13.0,-11.0,-2.0,-3.0,-2.0,0.30767822265625,-0.50640869140625,0.62847900390625,-0.50384521484375,-0.12109375,-0.95458984375,0.30615234375,-0.625,-1.125,2.0
0.8100000000000006,-2.0,-3.0,-3.0,-13.0,-11.0,-2.0,-3.0,-2.0,0.30767822265625,-0.50640869140625,0.62847900390625,-0.50384521484375,-0.12109375,-0.95458984375,0.30615234375,-0.625,-1.125,2.0
0.8150000000000006,0.0,-1.0,0.0,-4.0,5.0,1.0,3.0,3.0,0.30767822265625,-0.50640869140625,0.62847900390625,-0.50384521484375,-0.12109375,-0.95458984375,0.30615234375,-0.625,-1.125,2.0
0.8200000000000006,-2.0,-2.0,-2.0,9.0,-4.0,-4.0,-3.0,-3.0,0.3079833984375,-0.506591796875,0.6280517578125,-0.50408935546875,-0.1171875,-0.96240234375,0.3037109375,-2.5,-1.625,2.1875
0.8250000000000006,-2.0,-2.0,-2.0,9.0,-4.0,-4.0,-3.0,-3.0,0.3079833984375,-0.506591796875,0.6280517578125,-0.50408935546875,-0.1171875,-0.96240234375,0.3037109375,-2.5,-1.625,2.1875
0.8300000000000006,-2.0,-2.0,-2.0,9.0,-4.0,-4.0,-3.0,-3.0,0.3079833984375,-0.506591796875,0.6280517578125,-0.50408935546875,-0.1171875,-0.96240234375,0.3037109375,-2.5,-1.625,2.1875
0.8350000000000006,-2.0,-2.0,-2.0,9.0,-4.0,-4.0,-3.0,-3.0,0.3079833984375,-0.506591796875,0.6280517578125,-0.50408935546875,-0.1171875,-0.96240234375,0.3037109375,-2.5,-1.625,2.1875
0.8400000000000006,-1.0,0.0,0.0,0.0,3.0,3.0,1.0,1.0,0.3079833984375,-0.506591796875,0.6280517578125,-0.50408935546875,-0.1171875,-0.96240234375,0.3037109375,-2.5,-1.625,2.1875
0.8450000000000006,-1.0,0.0,0.0,0.0,3.0,3.0,1.0,1.0,0.30810546875,-0.50653076171875,0.62786865234375,-0.5042724609375,-0.1181640625,-0.97216796875,0.3095703125,-0.6875,-1.375,1.1875
0.8500000000000006,0.0,1.0,1.0,-12.0,-7.0,1.0,-4.0,-3.0,0.30810546875,-0.50653076171875,0.62786865234375,-0.5042724609375,-0.1181640625,-0.97216796875,0.3095703125,-0.6875,-1.375,1.1875
0.8550000000000006,0.0,1.0,1.0,-12.0,-7.0,1.0,-4.0,-3.0,0.30810546875,-0.50653076171875,0.62786865234375,-0.5042724609375,-0.1181640625,-0.97216796875,0.3095703125,-0.6875,-1.375,1.1875
0.8600000000000007,0.0,-2.0,0.0,9.0,-6.0,-4.0,-3.0,-1.0,0.30810546875,-0.50653076171875,0.62786865234375,-0.5042724609375,-0.1181640625,-0.97216796875,0.3095703125,-0.6875,-1.375,1.1875
0.8650000000000007,0.0,-2.0,0.0,9.0,-6.0,-4.0,-3.0,-1.0,0.30810546875,-0.50653076171875,0.62786865234375,-0.5042724609375,-0.1181640625,-0.97216796875,0.3095703125,-0.6875,-1.375,1.1875
0.8700000000000007,0.0,-2.0,0.0,9.0,-6.0,-4.0,-3.0,-1.0,0.30810546875,-0.50653076171875,0.62786865234375,-0.5042724609375,-0.1181640625,-0.97216796875,0.3095703125,-0.6875,-1.375,1.1875
0.8750000000000007,0.0,-2.0,0.0,9.0,-6.0,-4.0,-3.0,-1.0,0.3082275390625,-0.50634765625,0.6278076171875,-0.50439453125,-0.1181640625,-0.9609375,0.30615234375,-0.125,-1.125,0.625
0.8800000000000007,0.0,0.0,4.0,4.0,7.0,-9.0,2.0,0.0,0.3082275390625,-0.50634765625,0.6278076171875,-0.50439453125,-0.1181640625,-0.9609375,0.30615234375,-0.125,-1.125,0.625
0.8850000000000007,-1.0,-3.0,-2.0,-22.0,-10.0,-7.0,-7.0,-4.0,0.3082275390625,-0.50634765625,0.62786865234375,-0.50439453125,-0.12158203125,-0.9677734375,0.3076171875,-0.375,-0.6875,-0.0625
0.8900000000000007,-1.0,-3.0,-2.0,-22.0,-10.0,-7.0,-7.0,-4.0,0.3082275390625,-0.50634765625,0.62786865234375,-0.50439453125,-0.12158203125,-0.9677734375,0.3076171875,-0.375,-0.6875,-0.0625
0.8950000000000007,-1.0,-3.0,-2.0,-22.0,-10.0,-7.0,-7.0,-4.0,0.3082275390625,-0.50634765625,0.62786865234375,-0.50439453125,-0.12158203125,-0.9677734375,0.3076171875,-0.375,-0.6875,-0.0625
0.9000000000000007,-1.0,-2.0,-6.0,-9.0,-5.0,4.0,0.0,0.0,0.3082275390625,-0.50634765625,0.62786865234375,-0.50439453125,-0.12158203125,-0.9677734375,0.3076171875,-0.375,-0.6875,-0.0625
0.9050000000000007,-3.0,0.0,-3.0,-4.0,-5.0,-11.0,-2.0,-2.0,0.3082275390625,-0.50634765625,0.62786865234375,-0.50439453125,-0.12158203125,-0.9677734375,0.3076171875,-0.375,-0.6875,-0.0625
0.9100000000000007,-3.0,0.0,-3.0,-4.0,-5.0,-11.0,-2.0,-2.0,0.308349609375,-0.506103515625,0.6279296875,-0.50445556640625,-0.1220703125,-0.9619140625,0.3056640625,0.3125,-1.125,-0.8125
0.9150000000000007,1.0,-1.0,1.0,2.0,0.0,11.0,2.0,0.0,0.308349609375,-0.506103515625,0.6279296875,-0.50445556640625,-0.1220703125,-0.9619140625,0.3056640625,0.3125,-1.125,-0.8125
0.9200000000000007,1.0,-1.0,1.0,2.0,0.0,11.0,2.0,0.0,0.308349609375,-0.506103515625,0.6279296875,-0.50445556640625,-0.1220703125,-0.9619140625,0.3056640625,0.3125,-1.125,-0.8125
0.9250000000000007,-1.0,-2.0,-2.0,1.0,-1.0,0.0,-1.0,0.0,0.308349609375,-0.506103515625,0.6279296875,-0.50445556640625,-0.1220703125,-0.9619140625,0.3056640625,0.3125,-1.125,-0.8125
0.9300000000000007,-1.0,-3.0,-2.0,6.0,4.0,5.0,2.0,0.0,0.308349609375,-0.506103515625,0.6279296875,-0.50445556640625,-0.1220703125,-0.9619140625,0.3056640625,0.3125,-1.125,-0.8125
0.9350000000000007,-1.0,-3.0,-2.0,6.0,4.0,5.0,2.0,0.0,0.30859375,-0.5059814453125,0.62786865234375,-0.50445556640625,-0.1220703125,-0.958984375,0.306640625,-0.625,-1.3125,-0.5
0.9400000000000007,-3.0,-2.0,-3.0,-2.0,-3.0,-8.0,-6.0,-1.0,0.30859375,-0.5059814453125,0.62786865234375,-0.50445556640625,-0.1220703125,-0.958984375,0.306640625,-0.625,-1.3125,-0.5
0.9450000000000007,-3.0,-2.0,-3.0,-2.0,-3.0,-8.0,-6.0,-1.0,0.30859375,-0.5059814453125,0.62786865234375,-0.50445556640625,-0.1220703125,-0.958984375,0.306640625,-0.625,-1.3125,-0.5
0.9500000000000007,-2.0,-1.0,-3.0,-5.0,-5.0,-4.0,-2.0,-3.0,0.30859375,-0.5059814453125,0.62786865234375,-0.50445556640625,-0.119140625,-0.962890625,0.3017578125,-0.5,-0.375,-0.3125
0.9550000000000007,-2.0,-1.0,-3.0,-5.0,-5.0,-4.0,-2.0,-3.0,0.30859375,-0.5059814453125,0.62786865234375,-0.50445556640625,-0.119140625,-0.962890625,0.3017578125,-0.5,-0.375,-0.3125
0.9600000000000007,-2.0,-1.0,-3.0,-5.0,-5.0,-4.0,-2.0,-3.0,0.30859375,-0.5059814453125,0.62786865234375,-0.50445556640625,-0.119140625,-0.962890625,0.3017578125,-0.5,-0.375,-0.3125
0.9650000000000007,-2.0,-1.0,-3.0,-5.0,-5.0,-4.0,-2.0,-3.0,0.30859375,-0.5059814453125,0.62786865234375,-0.50445556640625,-0.119140625,-0.962890625,0.3017578125,-0.5,-0.375,-0.3125
0.9700000000000008,-2.0,-1.0,-3.0,-5.0,-5.0,-4.0,-2.0,-3.0,0.30859375,-0.5059814453125,0.62786865234375,-0.50445556640625,-0.119140625,-0.962890625,0.3017578125,-0.5,-0.375,-0.3125
0.9750000000000008,1.0,-1.0,-8.0,-23.0,5.0,5.0,1.0,1.0,0.30859375,-0.5059814453125,0.62786865234375,-0.50445556640625,-0.12646484375,-0.96142578125,0.29931640625,0.375,0.9375,-0.4375
0.9800000000000008,-1.0,1.0,2.0,5.0,2.0,3.0,-2.0,-2.0,0.30859375,-0.5059814453125,0.62786865234375,-0.50445556640625,-0.12646484375,-0.96142578125,0.29931640625,0.375,0.9375,-0.4375
0.9850000000000008,-1.0,1.0,2.0,5.0,2.0,3.0,-2.0,-2.0,0.30859375,-0.5059814453125,0.62786865234375,-0.50445556640625,-0.12646484375,-0.96142578125,0.29931640625,0.375,0.9375,-0.4375
0.9900000000000008,-1.0,-1.0,0.0,10.0,-1.0,-7.0,-4.0,-2.0,0.30859375,-0.5059814453125,0.62786865234375,-0.50445556640625,-0.12646484375,-0.96142578125,0.29931640625,0.375,0.9375,-0.4375
0.9950000000000008,-1.0,-1.0,0.0,10.0,-1.0,-7.0,-4.0,-2.0,0.30859375,-0.5059814453125,0.62786865234375,-0.50445556640625,-0.12646484375,-0.96142578125,0.29931640625,0.375,0.9375,-0.4375
1.0000000000000007,-1.0,-1.0,0.0,10.0,-1.0,-7.0,-4.0,-2.0,0.30841064453125,-0.5062255859375,0.6279296875,-0.50433349609375,-0.1318359375,-0.9619140625,0.29541015625,0.0,1.6875,-0.0625
1.0050000000000006,-1.0,-1.0,0.0,10.0,-1.0,-7.0,-4.0,-2.0,0.30841064453125,-0.5062255859375,0.6279296875,-0.50433349609375,-0.1318359375,-0.9619140625,0.29541015625,0.0,1.6875,-0.0625
1.0100000000000005,-2.0,-1.0,-3.0,2.0,-1.0,8.0,1.0,-1.0,0.30841064453125,-0.5062255859375,0.6279296875,-0.50433349609375,-0.1318359375,-0.9619140625,0.29541015625,0.0,1.6875,-0.0625
1.0150000000000003,-2.0,-1.0,-3.0,2.0,-1.0,8.0,1.0,-1.0,0.30841064453125,-0.5062255859375,0.6279296875,-0.50433349609375,-0.1318359375,-0.9619140625,0.29541015625,0.0,1.6875,-0.0625
1.0200000000000002,0.0,-1.0,-1.0,13.0,1.0,-3.0,-2.0,0.0,0.3082275390625,-0.50640869140625,0.62799072265625,-0.504150390625,-0.12744140625,-0.96044921875,0.2939453125,0.125,1.625,-0.125
1.0250000000000001,0.0,-1.0,-1.0,13.0,1.0,-3.0,-2.0,0.0,0.3082275390625,-0.50640869140625,0.62799072265625,-0.504150390625,-0.12744140625,-0.96044921875,0.2939453125,0.125,1.625,-0.125
1.03,0.0,-1.0,-1.0,13.0,1.0,-3.0,-2.0,0.0,0.3082275390625,-0.50640869140625,0.62799072265625,-0.504150390625,-0.12744140625,-0.96044921875,0.2939453125,0.125,1.625,-0.125
1.035,0.0,-1.0,-1.0,13.0,1.0,-3.0,-2.0,0.0,0.3082275390625,-0.50640869140625,0.62799072265625,-0.504150390625,-0.12744140625,-0.96044921875,0.2939453125,0.125,1.625,-0.125
1.0399999999999998,0.0,0.0,3.0,1.0,6.0,24.0,5.0,0.0,0.3082275390625,-0.50640869140625,0.62799072265625,-0.504150390625,-0.12744140625,-0.96044921875,0.2939453125,0.125,1.625,-0.125
1.0449999999999997,0.0,0.0,3.0,1.0,6.0,24.0,5.0,0.0,0.3079833984375,-0.506591796875,0.6280517578125,-0.5040283203125,-0.12841796875,-0.96240234375,0.296875,0.375,1.875,0.1875
1.0499999999999996,0.0,0.0,3.0,1.0,6.0,24.0,5.0,0.0,0.3079833984375,-0.506591796875,0.6280517578125,-0.5040283203125,-0.12841796875,-0.96240234375,0.296875,0.375,1.875,0.1875
1.0549999999999995,-1.0,-2.0,-1.0,-1.0,-5.0,-15.0,-8.0,-3.0,0.3079833984375,-0.506591796875,0.6280517578125,-0.5040283203125,-0.12841796875,-0.96240234375,0.296875,0.375,1.875,0.1875
1.0599999999999994,-1.0,-2.0,-1.0,-1.0,-5.0,-15.0,-8.0,-3.0,0.3079833984375,-0.506591796875,0.6280517578125,-0.5040283203125,-0.12841796875,-0.96240234375,0.296875,0.375,1.875,0.1875
1.0649999999999993,-2.0,0.0,3.0,-1.0,1.0,1.0,5.0,2.0,0.3079833984375,-0.506591796875,0.6280517578125,-0.5040283203125,-0.12841796875,-0.96240234375,0.296875,0.375,1.875,0.1875
1.0699999999999992,-2.0,0.0,3.0,-1.0,1.0,1.0,5.0,2.0,0.3079833984375,-0.506591796875,0.6280517578125,-0.5040283203125,-0.12841796875,-0.96240234375,0.296875,0.375,1.875,0.1875
1.074999999999999,-2.0,0.0,3.0,-1.0,1.0,1.0,5.0,2.0,0.3077392578125,-0.50677490234375,0.628173828125,-0.50384521484375,-0.130859375,-0.96875,0.29833984375,0.4375,1.8125,-0.0625
1.079999999999999,-2.0,0.0,3.0,-1.0,1.0,1.0,5.0,2.0,0.3077392578125,-0.50677490234375,0.628173828125,-0.50384521484375,-0.130859375,-0.96875,0.29833984375,0.4375,1.8125,-0.0625
1.0849999999999989,-1.0,-2.0,-2.0,2.0,-10.0,1.0,0.0,-4.0,0.3077392578125,-0.50677490234375,0.628173828125,-0.50384521484375,-0.130859375,-0.96875,0.29833984375,0.4375,1.8125,-0.0625
1.0899999999999987,-1.0,-2.0,-2.0,2.0,-10.0,1.0,0.0,-4.0,0.3077392578125,-0.50677490234375,0.628173828125,-0.50384521484375,-0.130859375,-0.96875,0.29833984375,0.4375,1.8125,-0.0625
1.0949999999999986,1.0,0.0,4.0,16.0,8.0,2.0,-3.0,0.0,0.3077392578125,-0.50677490234375,0.628173828125,-0.50384521484375,-0.130859375,-0.96875,0.29833984375,0.4375,1.8125,-0.0625
1.0999999999999985,1.0,0.0,4.0,16.0,8.0,2.0,-3.0,0.0,0.3077392578125,-0.50677490234375,0.628173828125,-0.50384521484375,-0.130859375,-0.96875,0.29833984375,0.4375,1.8125,-0.0625
1.1049999999999984,1.0,0.0,4.0,16.0,8.0,2.0,-3.0,0.0,0.30743408203125,-0.5068359375,0.62841796875,-0.50372314453125,-0.12939453125,-0.96142578125,0.30078125,0.9375,1.9375,-0.5
1.1099999999999983,1.0,0.0,4.0,16.0,8.0,2.0,-3.0,0.0,0.30743408203125,-0.5068359375,0.62841796875,-0.50372314453125,-0.12939453125,-0.96142578125,0.30078125,0.9375,1.9375,-0.5
1.1149999999999982,-1.0,0.0,4.0,-2.0,-2.0,-4.0,-1.0,-1.0,0.30743408203125,-0.5068359375,0.62841796875,-0.50372314453125,-0.12939453125,-0.96142578125,0.30078125,0.9375,1.9375,-0.5
1.119999999999998,-1.0,0.0,4.0,-2.0,-2.0,-4.0,-1.0,-1.0,0.30743408203125,-0.5068359375,0.62841796875,-0.50372314453125,-0.12939453125,-0.96142578125,0.30078125,0.9375,1.9375,-0.5
1.124999999999998,-1.0,0.0,4.0,-2.0,-2.0,-4.0,-1.0,-1.0,0.30718994140625,-0.5069580078125,0.6285400390625,-0.5035400390625,-0.13037109375,-0.9609375,0.30126953125,0.125,1.8125,-0.3125
1.129999999999998,-1.0,0.0,4.0,-2.0,-2.0,-4.0,-1.0,-1.0,0.30718994140625,-0.5069580078125,0.6285400390625,-0.5035400390625,-0.13037109375,-0.9609375,0.30126953125,0.125,1.8125,-0.3125
1.1349999999999978,-1.0,-2.0,-1.0,3.0,-3.0,-12.0,-7.0,-3.0,0.30718994140625,-0.5069580078125,0.6285400390625,-0.5035400390625,-0.13037109375,-0.9609375,0.30126953125,0.125,1.8125,-0.3125
1.1399999999999977,-1.0,-2.0,-1.0,3.0,-3.0,-12.0,-7.0,-3.0,0.30718994140625,-0.5069580078125,0.6285400390625,-0.5035400390625,-0.13037109375,-0.9609375,0.30126953125,0.125,1.8125,-0.3125
1.1449999999999976,-1.0,-2.0,-1.0,3.0,-3.0,-12.0,-7.0,-3.0,0.30718994140625,-0.5069580078125,0.6285400390625,-0.5035400390625,-0.13037109375,-0.9609375,0.30126953125,0.125,1.8125,-0.3125
1.1499999999999975,-1.0,-2.0,-1.0,3.0,-3.0,-12.0,-7.0,-3.0,0.30718994140625,-0.5069580078125,0.6285400390625,-0.5035400390625,-0.13037109375,-0.9609375,0.30126953125,0.125,1.8125,-0.3125
1.1549999999999974,-1.0,-2.0,-1.0,3.0,-3.0,-12.0,-7.0,-3.0,0.30718994140625,-0.5069580078125,0.6285400390625,-0.5035400390625,-0.13037109375,-0.9609375,0.30126953125,0.125,1.8125,-0.3125
1.1599999999999973,-1.0,-2.0,-1.0,3.0,-3.0,-12.0,-7.0,-3.0,0.30718994140625,-0.5069580078125,0.6285400390625,-0.5035400390625,-0.13037109375,-0.9609375,0.30126953125,0.125,1.8125,-0.3125
1.1649999999999971,-1.0,-2.0,-1.0,-9.0,-2.0,8.0,5.0,-1.0,0.30706787109375,-0.5072021484375,0.62847900390625,-0.50341796875,-0.13916015625,-0.96142578125,0.30126953125,-0.6875,1.1875,-0.375
1.169999999999997,-3.0,-3.0,-7.0,-24.0,-8.0,-18.0,-9.0,-3.0,0.30706787109375,-0.5072021484375,0.62847900390625,-0.50341796875,-0.13916015625,-0.96142578125,0.30126953125,-0.6875,1.1875,-0.375
1.174999999999997,-3.0,-3.0,-7.0,-24.0,-8.0,-18.0,-9.0,-3.0,0.30706787109375,-0.50726318359375,0.62847900390625,-0.50341796875,-0.13525390625,-0.9619140625,0.29833984375,-0.875,0.4375,-0.6875
1.1799999999999968,-3.0,-3.0,-7.0,-24.0,-8.0,-18.0,-9.0,-3.0,0.30706787109375,-0.50726318359375,0.62847900390625,-0.50341796875,-0.13525390625,-0.9619140625,0.29833984375,-0.875,0.4375,-0.6875
1.1849999999999967,-3.0,-3.0,-7.0,-24.0,-8.0,-18.0,-9.0,-3.0,0.30706787109375,-0.50726318359375,0.62847900390625,-0.50341796875,-0.13525390625,-0.9619140625,0.29833984375,-0.875,0.4375,-0.6875
1.1899999999999966,-1.0,-1.0,4.0,8.0,4.0,4.0,3.0,0.0,0.30706787109375,-0.50726318359375,0.62847900390625,-0.50341796875,-0.13525390625,-0.9619140625,0.29833984375,-0.875,0.4375,-0.6875
1.1949999999999965,0.0,1.0,-1.0,-6.0,-2.0,1.0,-1.0,-2.0,0.30706787109375,-0.50726318359375,0.62847900390625,-0.50341796875,-0.13525390625,-0.9619140625,0.29833984375,-0.875,0.4375,-0.6875
1.1999999999999964,0.0,1.0,-1.0,-6.0,-2.0,1.0,-1.0,-2.0,0.3070068359375,-0.50726318359375,0.62847900390625,-0.50341796875,-0.12939453125,-0.95947265625,0.29736328125,-0.5,-0.25,-0.3125
1.2049999999999963,0.0,1.0,-1.0,-6.0,-2.0,1.0,-1.0,-2.0,0.3070068359375,-0.50726318359375,0.62847900390625,-0.50341796875,-0.12939453125,-0.95947265625,0.29736328125,-0.5,-0.25,-0.3125
1.2099999999999962,-2.0,-1.0,0.0,0.0,0.0,4.0,1.0,-1.0,0.3070068359375,-0.50726318359375,0.62847900390625,-0.50341796875,-0.12939453125,-0.95947265625,0.29736328125,-0.5,-0.25,-0.3125
1.214999999999996,-2.0,-1.0,0.0,0.0,0.0,4.0,1.0,-1.0,0.3070068359375,-0.50726318359375,0.62847900390625,-0.50341796875,-0.12939453125,-0.95947265625,0.29736328125,-0.5,-0.25,-0.3125
1.219999999999996,-1.0,-2.0,-2.0,-2.0,-3.0,-1.0,0.0,-3.0,0.3070068359375,-0.50726318359375,0.62847900390625,-0.50341796875,-0.12939453125,-0.95947265625,0.29736328125,-0.5,-0.25,-0.3125
1.2249999999999959,-1.0,-2.0,-2.0,-2.0,-3.0,-1.0,0.0,-3.0,0.3070068359375,-0.50726318359375,0.62847900390625,-0.50341796875,-0.12939453125,-0.95947265625,0.29736328125,-0.5,-0.25,-0.3125
1.2299999999999958,-1.0,-2.0,-2.0,-2.0,-3.0,-1.0,0.0,-3.0,0.3070068359375,-0.50726318359375,0.62847900390625,-0.50347900390625,-0.1357421875,-0.9697265625,0.29931640625,-0.8125,-0.875,-0.8125
1.2349999999999957,-1.0,-2.0,-2.0,-2.0,-3.0,-1.0,0.0,-3.0,0.3070068359375,-0.50726318359375,0.62847900390625,-0.50347900390625,-0.1357421875,-0.9697265625,0.29931640625,-0.8125,-0.875,-0.8125
1.2399999999999956,-2.0,0.0,-4.0,-5.0,-2.0,-8.0,-3.0,-2.0,0.3070068359375,-0.50726318359375,0.62847900390625,-0.50347900390625,-0.1357421875,-0.9697265625,0.29931640625,-0.8125,-0.875,-0.8125
1.2449999999999954,-2.0,0.0,-4.0,-5.0,-2.0,-8.0,-3.0,-2.0,0.3070068359375,-0.50726318359375,0.62847900390625,-0.50347900390625,-0.1357421875,-0.9697265625,0.29931640625,-0.8125,-0.875,-0.8125
1.2499999999999953,-1.0,-2.0,-3.0,-3.0,-3.0,-13.0,2.0,1.0,0.3070068359375,-0.50726318359375,0.62847900390625,-0.50347900390625,-0.1357421875,-0.9697265625,0.29931640625,-0.8125,-0.875,-0.8125
1.2549999999999952,-1.0,-2.0,-3.0,-3.0,-3.0,-13.0,2.0,1.0,0.3072509765625,-0.5072021484375,0.62841796875,-0.50347900390625,-0.13330078125,-0.96533203125,0.29541015625,-0.25,-1.3125,-1.0
1.2599999999999951,-1.0,-2.0,-3.0,-3.0,-3.0,-13.0,2.0,1.0,0.3072509765625,-0.5072021484375,0.62841796875,-0.50347900390625,-0.13330078125,-0.96533203125,0.29541015625,-0.25,-1.3125,-1.0
1.264999999999995,-1.0,-2.0,-3.0,-3.0,-3.0,-13.0,2.0,1.0,0.3072509765625,-0.5072021484375,0.62841796875,-0.50347900390625,-0.13330078125,-0.96533203125,0.29541015625,-0.25,-1.3125,-1.0
1.269999999999995,0.0,0.0,5.0,12.0,3.0,7.0,-2.0,-1.0,0.3072509765625,-0.5072021484375,0.62841796875,-0.50347900390625,-0.13330078125,-0.96533203125,0.29541015625,-0.25,-1.3125,-1.0
1.2749999999999948,0.0,0.0,5.0,12.0,3.0,7.0,-2.0,-1.0,0.3072509765625,-0.5072021484375,0.62841796875,-0.50347900390625,-0.13330078125,-0.96533203125,0.29541015625,-0.25,-1.3125,-1.0
1.2799999999999947,0.0,0.0,5.0,12.0,3.0,7.0,-2.0,-1.0,0.3072509765625,-0.5072021484375,0.62841796875,-0.50347900390625,-0.13330078125,-0.96533203125,0.29541015625,-0.25,-1.3125,-1.0
1.2849999999999946,0.0,0.0,5.0,12.0,3.0,7.0,-2.0,-1.0,0.3072509765625,-0.5072021484375,0.62841796875,-0.50347900390625,-0.13330078125,-0.96533203125,0.29541015625,-0.25,-1.3125,-1.0
1.2899999999999945,-2.0,-3.0,-1.0,3.0,-5.0,-9.0,-2.0,-3.0,0.30743408203125,-0.50714111328125,0.62835693359375,-0.50341796875,-0.1376953125,-0.9619140625,0.29541015625,-0.1875,-1.1875,-1.3125
1.2949999999999944,-2.0,-3.0,-1.0,3.0,-5.0,-9.0,-2.0,-3.0,0.30743408203125,-0.50714111328125,0.62835693359375,-0.50341796875,-0.1376953125,-0.9619140625,0.29541015625,-0.1875,-1.1875,-1.3125
1.2999999999999943,-1.0,-1.0,-1.0,1.0,-3.0,-2.0,-4.0,-3.0,0.30743408203125,-0.50714111328125,0.62835693359375,-0.50341796875,-0.1376953125,-0.9619140625,0.29541015625,-0.1875,-1.1875,-1.3125
1.3049999999999942,-1.0,-1.0,-1.0,1.0,-3.0,-2.0,-4.0,-3.0,0.30767822265625,-0.5072021484375,0.62823486328125,-0.50341796875,-0.134765625,-0.96142578125,0.29638671875,-1.0,-1.375,-1.0
1.309999999999994,1.0,2.0,1.0,6.0,7.0,15.0,4.0,1.0,0.30767822265625,-0.5072021484375,0.62823486328125,-0.50341796875,-0.134765625,-0.96142578125,0.29638671875,-1.0,-1.375,-1.0
1.314999999999994,1.0,2.0,1.0,6.0,7.0,15.0,4.0,1.0,0.30767822265625,-0.5072021484375,0.62823486328125,-0.50341796875,-0.134765625,-0.96142578125,0.29638671875,-1.0,-1.375,-1.0
1.3199999999999938,0.0,-2.0,0.0,5.0,-1.0,-4.0,1.0,1.0,0.30792236328125,-0.50732421875,0.62799072265625,-0.50341796875,-0.14208984375,-0.9658203125,0.29296875,-1.25,-1.125,-0.875
1.3249999999999937,0.0,-2.0,0.0,5.0,-1.0,-4.0,1.0,1.0,0.30792236328125,-0.50732421875,0.62799072265625,-0.50341796875,-0.14208984375,-0.9658203125,0.29296875,-1.25,-1.125,-0.875
1.3299999999999936,0.0,-2.0,0.0,5.0,-1.0,-4.0,1.0,1.0,0.30792236328125,-0.50732421875,0.62799072265625,-0.50341796875,-0.14208984375,-0.9658203125,0.29296875,-1.25,-1.125,-0.875
1.3349999999999935,-2.0,-2.0,2.0,-3.0,-10.0,-6.0,-5.0,-3.0,0.30792236328125,-0.50732421875,0.62799072265625,-0.50341796875,-0.14208984375,-0.9658203125,0.29296875,-1.25,-1.125,-0.875
1.3399999999999934,-2.0,-2.0,2.0,-3.0,-10.0,-6.0,-5.0,-3.0,0.30792236328125,-0.50732421875,0.62799072265625,-0.50341796875,-0.14208984375,-0.9658203125,0.29296875,-1.25,-1.125,-0.875
1.3449999999999933,-3.0,-3.0,-12.0,-20.0,-7.0,-4.0,-6.0,-3.0,0.30792236328125,-0.50732421875,0.62799072265625,-0.50341796875,-0.14208984375,-0.9658203125,0.29296875,-1.25,-1.125,-0.875
1.3499999999999932,-3.0,-4.0,-2.0,3.0,3.0,14.0,3.0,2.0,0.307861328125,-0.50732421875,0.62799072265625,-0.50341796875,-0.1337890625,-0.96484375,0.2998046875,-0.625,-0.875,-0.625
1.354999999999993,1.0,-1.0,-3.0,4.0,5.0,1.0,4.0,0.0,0.307861328125,-0.50732421875,0.62799072265625,-0.50341796875,-0.1337890625,-0.96484375,0.2998046875,-0.625,-0.875,-0.625
1.359999999999993,1.0,2.0,4.0,7.0,1.0,7.0,-4.0,-1.0,0.307861328125,-0.50732421875,0.62799072265625,-0.50341796875,-0.1337890625,-0.96484375,0.2998046875,-0.625,-0.875,-0.625
1.3649999999999929,1.0,2.0,4.0,7.0,1.0,7.0,-4.0,-1.0,0.307861328125,-0.50738525390625,0.62799072265625,-0.50341796875,-0.1357421875,-0.962890625,0.2958984375,-0.75,-0.75,-0.3125
1.3699999999999928,1.0,2.0,4.0,7.0,1.0,7.0,-4.0,-1.0,0.307861328125,-0.50738525390625,0.62799072265625,-0.50341796875,-0.1357421875,-0.962890625,0.2958984375,-0.75,-0.75,-0.3125
1.3749999999999927,0.0,-2.0,-3.0,1.0,-6.0,-9.0,-7.0,-1.0,0.307861328125,-0.50738525390625,0.62799072265625,-0.50341796875,-0.1357421875,-0.962890625,0.2958984375,-0.75,-0.75,-0.3125
1.3799999999999926,0.0,-1.0,0.0,-4.0,-1.0,-13.0,-5.0,0.0,0.307861328125,-0.50738525390625,0.62799072265625,-0.50341796875,-0.1357421875,-0.962890625,0.2958984375,-0.75,-0.75,-0.3125
1.3849999999999925,-2.0,-3.0,-4.0,-14.0,-3.0,-2.0,0.0,0.0,0.307861328125,-0.50738525390625,0.62799072265625,-0.50341796875,-0.1357421875,-0.962890625,0.2958984375,-0.75,-0.75,-0.3125
1.3899999999999924,-2.0,-3.0,-4.0,-14.0,-3.0,-2.0,0.0,0.0,0.307861328125,-0.50738525390625,0.62799072265625,-0.50341796875,-0.1357421875,-0.962890625,0.2958984375,-0.75,-0.75,-0.3125
1.3949999999999922,-2.0,-3.0,-4.0,-14.0,-3.0,-2.0,0.0,0.0,0.3079833984375,-0.5074462890625,0.62774658203125,-0.5035400390625,-0.1298828125,-0.95703125,0.3017578125,-1.1875,-1.0,0.5
1.3999999999999921,-1.0,0.0,-1.0,-6.0,0.0,2.0,-1.0,-1.0,0.3079833984375,-0.5074462890625,0.62774658203125,-0.5035400390625,-0.1298828125,-0.95703125,0.3017578125,-1.1875,-1.0,0.5
1.404999999999992,-1.0,0.0,-1.0,-6.0,0.0,2.0,-1.0,-1.0,0.3079833984375,-0.5074462890625,0.62774658203125,-0.5035400390625,-0.1298828125,-0.95703125,0.3017578125,-1.1875,-1.0,0.5
1.409999999999992,-3.0,-4.0,-1.0,3.0,-1.0,-2.0,-2.0,-2.0,0.3079833984375,-0.5074462890625,0.62774658203125,-0.5035400390625,-0.1298828125,-0.95703125,0.3017578125,-1.1875,-1.0,0.5
1.4149999999999918,-1.0,-1.0,-1.0,-3.0,-1.0,-8.0,-3.0,-2.0,0.30804443359375,-0.5074462890625,0.62750244140625,-0.5037841796875,-0.1337890625,-0.96923828125,0.30615234375,-1.0625,-1.4375,1.0625
1.4199999999999917,-1.0,-1.0,-1.0,-3.0,-1.0,-8.0,-3.0,-2.0,0.30804443359375,-0.5074462890625,0.62750244140625,-0.5037841796875,-0.1337890625,-0.96923828125,0.30615234375,-1.0625,-1.4375,1.0625
1.4249999999999916,-1.0,0.0,6.0,20.0,-4.0,-20.0,-7.0,0.0,0.30804443359375,-0.5074462890625,0.62750244140625,-0.5037841796875,-0.1337890625,-0.96923828125,0.30615234375,-1.0625,-1.4375,1.0625
1.4299999999999915,-3.0,-1.0,-4.0,-10.0,-2.0,-5.0,-4.0,-1.0,0.30804443359375,-0.5074462890625,0.62750244140625,-0.5037841796875,-0.1337890625,-0.96923828125,0.30615234375,-1.0625,-1.4375,1.0625
1.4349999999999914,-3.0,-1.0,-4.0,-10.0,-2.0,-5.0,-4.0,-1.0,0.30816650390625,-0.50750732421875,0.62725830078125,-0.5040283203125,-0.1337890625,-0.96875,0.29150390625,0.0,-1.75,0.9375
1.4399999999999913,-4.0,-3.0,-5.0,1.0,3.0,15.0,5.0,0.0,0.30816650390625,-0.50750732421875,0.62725830078125,-0.5040283203125,-0.1337890625,-0.96875,0.29150390625,0.0,-1.75,0.9375
1.4449999999999912,-4.0,-3.0,-5.0,1.0,3.0,15.0,5.0,0.0,0.30816650390625,-0.50750732421875,0.62725830078125,-0.5040283203125,-0.1337890625,-0.96875,0.29150390625,0.0,-1.75,0.9375
1.449999999999991,3.0,-1.0,7.0,15.0,-2.0,-21.0,-3.0,-2.0,0.30816650390625,-0.50750732421875,0.62725830078125,-0.5040283203125,-0.1337890625,-0.96875,0.29150390625,0.0,-1.75,0.9375
1.454999999999991,3.0,-1.0,7.0,15.0,-2.0,-21.0,-3.0,-2.0,0.30816650390625,-0.50750732421875,0.62725830078125,-0.5040283203125,-0.1337890625,-0.96875,0.29150390625,0.0,-1.75,0.9375
1.4599999999999909,3.0,-1.0,7.0,15.0,-2.0,-21.0,-3.0,-2.0,0.30828857421875,-0.50738525390625,0.62713623046875,-0.50421142578125,-0.1328125,-0.96044921875,0.29345703125,0.0625,-1.75,0.0
1.4649999999999908,-2.0,0.0,1.0,-1.0,6.0,11.0,0.0,1.0,0.30828857421875,-0.50738525390625,0.62713623046875,-0.50421142578125,-0.1328125,-0.96044921875,0.29345703125,0.0625,-1.75,0.0
1.4699999999999906,-2.0,0.0,1.0,-1.0,6.0,11.0,0.0,1.0,0.30828857421875,-0.50738525390625,0.62713623046875,-0.50421142578125,-0.1328125,-0.96044921875,0.29345703125,0.0625,-1.75,0.0
1.4749999999999905,-1.0,-2.0,-3.0,8.0,-4.0,-3.0,-3.0,-1.0,0.30828857421875,-0.50738525390625,0.62713623046875,-0.50421142578125,-0.1328125,-0.96044921875,0.29345703125,0.0625,-1.75,0.0
1.4799999999999904,-1.0,-2.0,-3.0,8.0,-4.0,-3.0,-3.0,-1.0,0.30828857421875,-0.50738525390625,0.62713623046875,-0.50421142578125,-0.1328125,-0.96044921875,0.29345703125,0.0625,-1.75,0.0
1.4849999999999903,0.0,-2.0,0.0,-9.0,-7.0,3.0,1.0,-1.0,0.30865478515625,-0.50738525390625,0.62689208984375,-0.50433349609375,-0.1220703125,-0.95458984375,0.2939453125,-1.25,-2.0,0.25
1.4899999999999902,-2.0,-2.0,-3.0,-15.0,-5.0,-11.0,-3.0,-1.0,0.30865478515625,-0.50738525390625,0.62689208984375,-0.50433349609375,-0.1220703125,-0.95458984375,0.2939453125,-1.25,-2.0,0.25
1.4949999999999901,-2.0,-2.0,-3.0,-15.0,-5.0,-11.0,-3.0,-1.0,0.30865478515625,-0.50738525390625,0.62689208984375,-0.50433349609375,-0.1220703125,-0.95458984375,0.2939453125,-1.25,-2.0,0.25
1.49999999999999,-2.0,-2.0,-3.0,-15.0,-5.0,-11.0,-3.0,-1.0,0.30865478515625,-0.50738525390625,0.62689208984375,-0.50433349609375,-0.1220703125,-0.95458984375,0.2939453125,-1.25,-2.0,0.25
1.50499999999999,-2.0,-2.0,-3.0,-15.0,-5.0,-11.0,-3.0,-1.0,0.30865478515625,-0.50738525390625,0.62689208984375,-0.50433349609375,-0.1220703125,-0.95458984375,0.2939453125,-1.25,-2.0,0.25
1.5099999999999898,-3.0,-1.0,0.0,12.0,-5.0,-14.0,-10.0,-4.0,0.30908203125,-0.50738525390625,0.62652587890625,-0.50439453125,-0.12353515625,-0.9716796875,0.29248046875,-1.6875,-2.3125,0.1875
1.5149999999999897,0.0,1.0,-4.0,-5.0,10.0,18.0,3.0,0.0,0.30908203125,-0.50738525390625,0.62652587890625,-0.50439453125,-0.12353515625,-0.9716796875,0.29248046875,-1.6875,-2.3125,0.1875
1.5199999999999896,0.0,1.0,-4.0,-5.0,10.0,18.0,3.0,0.0,0.30908203125,-0.50738525390625,0.62652587890625,-0.50439453125,-0.12353515625,-0.9716796875,0.29248046875,-1.6875,-2.3125,0.1875
1.5249999999999895,0.0,1.0,-4.0,-5.0,10.0,18.0,3.0,0.0,0.3094482421875,-0.50726318359375,0.62640380859375,-0.5045166015625,-0.1240234375,-0.9755859375,0.2919921875,-0.25,-2.0625,-0.1875
1.5299999999999894,0.0,1.0,-4.0,-5.0,10.0,18.0,3.0,0.0,0.3094482421875,-0.50726318359375,0.62640380859375,-0.5045166015625,-0.1240234375,-0.9755859375,0.2919921875,-0.25,-2.0625,-0.1875
1.5349999999999893,-3.0,-3.0,-3.0,-8.0,-10.0,5.0,4.0,-1.0,0.3094482421875,-0.50726318359375,0.62640380859375,-0.5045166015625,-0.1240234375,-0.9755859375,0.2919921875,-0.25,-2.0625,-0.1875
1.5399999999999892,0.0,1.0,4.0,7.0,-1.0,-2.0,0.0,0.0,0.3094482421875,-0.50726318359375,0.62640380859375,-0.5045166015625,-0.1240234375,-0.9755859375,0.2919921875,-0.25,-2.0625,-0.1875
1.544999999999989,-1.0,0.0,3.0,-5.0,-4.0,-5.0,-6.0,0.0,0.30975341796875,-0.507080078125,0.62640380859375,-0.5045166015625,-0.1220703125,-0.97314453125,0.29541015625,0.3125,-1.8125,-0.875
1.549999999999989,-1.0,0.0,3.0,-5.0,-4.0,-5.0,-6.0,0.0,0.30975341796875,-0.507080078125,0.62640380859375,-0.5045166015625,-0.1220703125,-0.97314453125,0.29541015625,0.3125,-1.8125,-0.875
1.5549999999999888,-1.0,0.0,3.0,-5.0,-4.0,-5.0,-6.0,0.0,0.30975341796875,-0.507080078125,0.62640380859375,-0.5045166015625,-0.1220703125,-0.97314453125,0.29541015625,0.3125,-1.8125,-0.875
1.5599999999999887,-1.0,0.0,3.0,-5.0,-4.0,-5.0,-6.0,0.0,0.30975341796875,-0.507080078125,0.62640380859375,-0.5045166015625,-0.1220703125,-0.97314453125,0.29541015625,0.3125,-1.8125,-0.875
1.5649999999999886,-2.0,-2.0,-10.0,-15.0,-6.0,-4.0,0.0,-1.0,0.30999755859375,-0.50677490234375,0.62646484375,-0.50457763671875,-0.12939453125,-0.96337890625,0.29833984375,0.4375,-1.9375,-1.5
1.5699999999999885,-1.0,1.0,2.0,6.0,4.0,-1.0,0.0,1.0,0.30999755859375,-0.50677490234375,0.62646484375,-0.50457763671875,-0.12939453125,-0.96337890625,0.29833984375,0.4375,-1.9375,-1.5
1.5749999999999884,-1.0,1.0,2.0,6.0,4.0,-1.0,0.0,1.0,0.30999755859375,-0.50677490234375,0.62646484375,-0.50457763671875,-0.12939453125,-0.96337890625,0.29833984375,0.4375,-1.9375,-1.5
1.5799999999999883,-1.0,-1.0,5.0,15.0,6.0,6.0,1.0,-1.0,0.30999755859375,-0.50677490234375,0.62646484375,-0.50457763671875,-0.12939453125,-0.96337890625,0.29833984375,0.4375,-1.9375,-1.5
1.5849999999999882,-1.0,-1.0,5.0,15.0,6.0,6.0,1.0,-1.0,0.30999755859375,-0.50677490234375,0.62646484375,-0.50457763671875,-0.12939453125,-0.96337890625,0.29833984375,0.4375,-1.9375,-1.5
1.589999999999988,-1.0,-1.0,5.0,15.0,6.0,6.0,1.0,-1.0,0.31036376953125,-0.5067138671875,0.6263427734375,-0.50457763671875,-0.12939453125,-0.958984375,0.2890625,-0.75,-2.0,-1.25
1.594999999999988,-1.0,-1.0,5.0,15.0,6.0,6.0,1.0,-1.0,0.31036376953125,-0.5067138671875,0.6263427734375,-0.50457763671875,-0.12939453125,-0.958984375,0.2890625,-0.75,-2.0,-1.25
1.5999999999999879,-2.0,0.0,-2.0,-10.0,-6.0,2.0,-2.0,-2.0,0.31036376953125,-0.5067138671875,0.6263427734375,-0.50457763671875,-0.12939453125,-0.958984375,0.2890625,-0.75,-2.0,-1.25
1.6049999999999878,-2.0,0.0,-2.0,-10.0,-6.0,2.0,-2.0,-2.0,0.31036376953125,-0.5067138671875,0.6263427734375,-0.50457763671875,-0.12939453125,-0.958984375,0.2890625,-0.75,-2.0,-1.25
1.6099999999999877,0.0,-1.0,2.0,4.0,-2.0,3.0,1.0,0.0,0.31085205078125,-0.506591796875,0.626220703125,-0.50457763671875,-0.1240234375,-0.96923828125,0.2919921875,-0.5625,-2.3125,-1.375
1.6149999999999876,0.0,-1.0,2.0,4.0,-2.0,3.0,1.0,0.0,0.31085205078125,-0.506591796875,0.626220703125,-0.50457763671875,-0.1240234375,-0.96923828125,0.2919921875,-0.5625,-2.3125,-1.375
1.6199999999999875,0.0,-1.0,2.0,4.0,-2.0,3.0,1.0,0.0,0.31085205078125,-0.506591796875,0.626220703125,-0.50457763671875,-0.1240234375,-0.96923828125,0.2919921875,-0.5625,-2.3125,-1.375
1.6249999999999873,0.0,-1.0,2.0,4.0,-2.0,3.0,1.0,0.0,0.31085205078125,-0.506591796875,0.626220703125,-0.50457763671875,-0.1240234375,-0.96923828125,0.2919921875,-0.5625,-2.3125,-1.375
1.6299999999999872,1.0,-1.0,-1.0,-5.0,0.0,-7.0,-5.0,-1.0,0.31085205078125,-0.506591796875,0.626220703125,-0.50457763671875,-0.1240234375,-0.96923828125,0.2919921875,-0.5625,-2.3125,-1.375
1.6349999999999871,1.0,-1.0,-1.0,-5.0,0.0,-7.0,-5.0,-1.0,0.31121826171875,-0.50640869140625,0.62615966796875,-0.50457763671875,-0.125,-0.97021484375,0.2900390625,-0.25,-2.0,-1.25
1.639999999999987,1.0,-1.0,-1.0,-5.0,0.0,-7.0,-5.0,-1.0,0.31121826171875,-0.50640869140625,0.62615966796875,-0.50457763671875,-0.125,-0.97021484375,0.2900390625,-0.25,-2.0,-1.25
1.644999999999987,-3.0,-2.0,-6.0,4.0,-2.0,-4.0,-2.0,-2.0,0.31121826171875,-0.50640869140625,0.62615966796875,-0.50457763671875,-0.125,-0.97021484375,0.2900390625,-0.25,-2.0,-1.25
1.6499999999999868,-3.0,-2.0,-6.0,4.0,-2.0,-4.0,-2.0,-2.0,0.31121826171875,-0.50640869140625,0.62615966796875,-0.50457763671875,-0.125,-0.97021484375,0.2900390625,-0.25,-2.0,-1.25
1.6549999999999867,0.0,-1.0,-6.0,-5.0,-3.0,-2.0,-2.0,0.0,0.31121826171875,-0.50640869140625,0.62615966796875,-0.50457763671875,-0.125,-0.97021484375,0.2900390625,-0.25,-2.0,-1.25
1.6599999999999866,0.0,-1.0,-6.0,-5.0,-3.0,-2.0,-2.0,0.0,0.31121826171875,-0.50640869140625,0.62615966796875,-0.50457763671875,-0.125,-0.97021484375,0.2900390625,-0.25,-2.0,-1.25
1.6649999999999865,0.0,-1.0,-6.0,-5.0,-3.0,-2.0,-2.0,0.0,0.31158447265625,-0.50653076171875,0.62591552734375,-0.50457763671875,-0.1318359375,-0.96826171875,0.28564453125,-1.3125,-1.625,-0.75
1.6699999999999864,0.0,-1.0,-6.0,-5.0,-3.0,-2.0,-2.0,0.0,0.31158447265625,-0.50653076171875,0.62591552734375,-0.50457763671875,-0.1318359375,-0.96826171875,0.28564453125,-1.3125,-1.625,-0.75
1.6749999999999863,-1.0,-1.0,1.0,-6.0,-1.0,-1.0,-3.0,-2.0,0.31158447265625,-0.50653076171875,0.62591552734375,-0.50457763671875,-0.1318359375,-0.96826171875,0.28564453125,-1.3125,-1.625,-0.75
1.6799999999999862,-1.0,-1.0,1.0,-6.0,-1.0,-1.0,-3.0,-2.0,0.31158447265625,-0.50653076171875,0.62591552734375,-0.50457763671875,-0.1318359375,-0.96826171875,0.28564453125,-1.3125,-1.625,-0.75
1.684999999999986,-2.0,-1.0,1.0,8.0,5.0,11.0,5.0,0.0,0.311767578125,-0.50653076171875,0.62579345703125,-0.50457763671875,-0.13232421875,-0.962890625,0.2890625,-0.5625,-1.25,-0.875
1.689999999999986,-2.0,-1.0,1.0,8.0,5.0,11.0,5.0,0.0,0.311767578125,-0.50653076171875,0.62579345703125,-0.50457763671875,-0.13232421875,-0.962890625,0.2890625,-0.5625,-1.25,-0.875
1.6949999999999859,-2.0,-1.0,1.0,8.0,5.0,11.0,5.0,0.0,0.311767578125,-0.50653076171875,0.62579345703125,-0.50457763671875,-0.13232421875,-0.962890625,0.2890625,-0.5625,-1.25,-0.875
1.6999999999999857,-2.0,-1.0,1.0,8.0,5.0,11.0,5.0,0.0,0.311767578125,-0.50653076171875,0.62579345703125,-0.50457763671875,-0.13232421875,-0.962890625,0.2890625,-0.5625,-1.25,-0.875
1.7049999999999856,-2.0,-3.0,-1.0,-1.0,-6.0,-5.0,-4.0,-2.0,0.311767578125,-0.50653076171875,0.62579345703125,-0.50457763671875,-0.13232421875,-0.962890625,0.2890625,-0.5625,-1.25,-0.875
1.7099999999999855,-2.0,-3.0,-1.0,-1.0,-6.0,-5.0,-4.0,-2.0,0.31207275390625,-0.50653076171875,0.6256103515625,-0.504638671875,-0.1220703125,-0.96044921875,0.29150390625,-0.75,-1.4375,-0.1875
1.7149999999999854,-2.0,-3.0,-1.0,-1.0,-6.0,-5.0,-4.0,-2.0,0.31207275390625,-0.50653076171875,0.6256103515625,-0.504638671875,-0.1220703125,-0.96044921875,0.29150390625,-0.75,-1.4375,-0.1875
1.7199999999999853,0.0,-2.0,-2.0,-12.0,0.0,-2.0,-3.0,0.0,0.31207275390625,-0.50653076171875,0.6256103515625,-0.504638671875,-0.1220703125,-0.96044921875,0.29150390625,-0.75,-1.4375,-0.1875
1.7249999999999852,0.0,-2.0,-2.0,-12.0,0.0,-2.0,-3.0,0.0,0.31207275390625,-0.50653076171875,0.6256103515625,-0.504638671875,-0.1220703125,-0.96044921875,0.29150390625,-0.75,-1.4375,-0.1875
1.729999999999985,-1.0,-2.0,-3.0,6.0,0.0,-10.0,-2.0,-1.0,0.31207275390625,-0.50653076171875,0.6256103515625,-0.504638671875,-0.1220703125,-0.96044921875,0.29150390625,-0.75,-1.4375,-0.1875
1.734999999999985,-1.0,-2.0,-3.0,6.0,0.0,-10.0,-2.0,-1.0,0.31207275390625,-0.50653076171875,0.6256103515625,-0.504638671875,-0.1220703125,-0.96044921875,0.29150390625,-0.75,-1.4375,-0.1875
1.739999999999985,-1.0,-2.0,-3.0,6.0,0.0,-10.0,-2.0,-1.0,0.31231689453125,-0.5067138671875,0.625244140625,-0.50469970703125,-0.12890625,-0.9765625,0.29296875,-1.9375,-1.625,0.4375
1.7449999999999848,-1.0,-2.0,-3.0,6.0,0.0,-10.0,-2.0,-1.0,0.31231689453125,-0.5067138671875,0.625244140625,-0.50469970703125,-0.12890625,-0.9765625,0.29296875,-1.9375,-1.625,0.4375
1.7499999999999847,2.0,1.0,7.0,9.0,11.0,17.0,6.0,2.0,0.31231689453125,-0.5067138671875,0.625244140625,-0.50469970703125,-0.12890625,-0.9765625,0.29296875,-1.9375,-1.625,0.4375
1.7549999999999846,2.0,1.0,7.0,9.0,11.0,17.0,6.0,2.0,0.31231689453125,-0.5067138671875,0.625244140625,-0.50469970703125,-0.12890625,-0.9765625,0.29296875,-1.9375,-1.625,0.4375
1.7599999999999845,0.0,1.0,-2.0,3.0,-7.0,0.0,1.0,-1.0,0.31243896484375,-0.50665283203125,0.62518310546875,-0.50482177734375,-0.12548828125,-0.97265625,0.29052734375,0.3125,-1.1875,0.1875
1.7649999999999844,0.0,1.0,-2.0,3.0,-7.0,0.0,1.0,-1.0,0.31243896484375,-0.50665283203125,0.62518310546875,-0.50482177734375,-0.12548828125,-0.97265625,0.29052734375,0.3125,-1.1875,0.1875
1.7699999999999843,0.0,1.0,-2.0,3.0,-7.0,0.0,1.0,-1.0,0.31243896484375,-0.50665283203125,0.62518310546875,-0.50482177734375,-0.12548828125,-0.97265625,0.29052734375,0.3125,-1.1875,0.1875
1.7749999999999841,0.0,1.0,-2.0,3.0,-7.0,0.0,1.0,-1.0,0.31243896484375,-0.50665283203125,0.62518310546875,-0.50482177734375,-0.12548828125,-0.97265625,0.29052734375,0.3125,-1.1875,0.1875
1.779999999999984,0.0,1.0,-2.0,3.0,-7.0,0.0,1.0,-1.0,0.31243896484375,-0.50665283203125,0.62518310546875,-0.50482177734375,-0.12548828125,-0.97265625,0.29052734375,0.3125,-1.1875,0.1875
1.784999999999984,-3.0,-1.0,2.0,5.0,-3.0,3.0,0.0,-3.0,0.31243896484375,-0.50665283203125,0.62518310546875,-0.50482177734375,-0.12548828125,-0.97265625,0.29052734375,0.3125,-1.1875,0.1875
1.7899999999999838,-3.0,-1.0,2.0,5.0,-3.0,3.0,0.0,-3.0,0.31243896484375,-0.50665283203125,0.62518310546875,-0.50482177734375,-0.12548828125,-0.97265625,0.29052734375,0.3125,-1.1875,0.1875
1.7949999999999837,-3.0,-1.0,2.0,5.0,-3.0,3.0,0.0,-3.0,0.3125,-0.5064697265625,0.62518310546875,-0.5050048828125,-0.12939453125,-0.96875,0.29150390625,1.125,-1.625,-0.375
1.7999999999999836,1.0,-1.0,2.0,-3.0,-1.0,9.0,1.0,-1.0,0.3125,-0.5064697265625,0.62518310546875,-0.5050048828125,-0.12939453125,-0.96875,0.29150390625,1.125,-1.625,-0.375
1.8049999999999835,1.0,-1.0,2.0,-3.0,-1.0,9.0,1.0,-1.0,0.3125,-0.5064697265625,0.62518310546875,-0.5050048828125,-0.12939453125,-0.96875,0.29150390625,1.125,-1.625,-0.375
1.8099999999999834,-2.0,-3.0,-2.0,-7.0,-2.0,-7.0,-3.0,-2.0,0.3125,-0.5064697265625,0.62518310546875,-0.5050048828125,-0.12939453125,-0.96875,0.29150390625,1.125,-1.625,-0.375
1.8149999999999833,-2.0,-3.0,-2.0,-7.0,-2.0,-7.0,-3.0,-2.0,0.3125,-0.5064697265625,0.62518310546875,-0.5050048828125,-0.12939453125,-0.96875,0.29150390625,1.125,-1.625,-0.375
1.8199999999999832,-2.0,-3.0,-2.0,-7.0,-2.0,-7.0,-3.0,-2.0,0.31280517578125,-0.50628662109375,0.625,-0.50518798828125,-0.1279296875,-0.96484375,0.2900390625,0.125,-2.5,-0.5625
1.824999999999983,-2.0,-3.0,-2.0,-7.0,-2.0,-7.0,-3.0,-2.0,0.31280517578125,-0.50628662109375,0.625,-0.50518798828125,-0.1279296875,-0.96484375,0.2900390625,0.125,-2.5,-0.5625
1.829999999999983,-2.0,-3.0,-2.0,10.0,-11.0,-6.0,-5.0,-3.0,0.31280517578125,-0.50628662109375,0.625,-0.50518798828125,-0.1279296875,-0.96484375,0.2900390625,0.125,-2.5,-0.5625
1.8349999999999829,-1.0,-2.0,-6.0,-26.0,-1.0,-2.0,-1.0,0.0,0.31280517578125,-0.50628662109375,0.625,-0.50518798828125,-0.1279296875,-0.96484375,0.2900390625,0.125,-2.5,-0.5625
1.8399999999999828,-1.0,0.0,-7.0,-12.0,2.0,13.0,2.0,0.0,0.31280517578125,-0.50628662109375,0.625,-0.50518798828125,-0.1279296875,-0.96484375,0.2900390625,0.125,-2.5,-0.5625
1.8449999999999827,-1.0,0.0,-7.0,-12.0,2.0,13.0,2.0,0.0,0.31317138671875,-0.50616455078125,0.62481689453125,-0.5052490234375,-0.1259765625,-0.96875,0.2890625,-0.875,-2.4375,-0.5625
1.8499999999999825,-1.0,0.0,-7.0,-12.0,2.0,13.0,2.0,0.0,0.31317138671875,-0.50616455078125,0.62481689453125,-0.5052490234375,-0.1259765625,-0.96875,0.2890625,-0.875,-2.4375,-0.5625
1.8549999999999824,-1.0,0.0,-7.0,-12.0,2.0,13.0,2.0,0.0,0.31317138671875,-0.50616455078125,0.62481689453125,-0.5052490234375,-0.1259765625,-0.96875,0.2890625,-0.875,-2.4375,-0.5625
1.8599999999999823,-1.0,0.0,-7.0,-12.0,2.0,13.0,2.0,0.0,0.31317138671875,-0.50616455078125,0.62481689453125,-0.5052490234375,-0.1259765625,-0.96875,0.2890625,-0.875,-2.4375,-0.5625
1.8649999999999822,-1.0,-1.0,3.0,13.0,0.0,2.0,3.0,-1.0,0.3135986328125,-0.50604248046875,0.62457275390625,-0.50543212890625,-0.1240234375,-0.96533203125,0.28955078125,-0.5625,-2.625,-0.375
1.8699999999999821,0.0,-1.0,-4.0,-5.0,-6.0,-6.0,-5.0,-2.0,0.3135986328125,-0.50604248046875,0.62457275390625,-0.50543212890625,-0.1240234375,-0.96533203125,0.28955078125,-0.5625,-2.625,-0.375
1.874999999999982,0.0,-1.0,-4.0,-5.0,-6.0,-6.0,-5.0,-2.0,0.3135986328125,-0.50604248046875,0.62457275390625,-0.50543212890625,-0.1240234375,-0.96533203125,0.28955078125,-0.5625,-2.625,-0.375
1.879999999999982,-2.0,-1.0,2.0,1.0,-4.0,2.0,-5.0,1.0,0.3135986328125,-0.50604248046875,0.62457275390625,-0.50543212890625,-0.1240234375,-0.96533203125,0.28955078125,-0.5625,-2.625,-0.375
1.8849999999999818,-2.0,-1.0,2.0,1.0,-4.0,2.0,-5.0,1.0,0.3135986328125,-0.50604248046875,0.62457275390625,-0.50543212890625,-0.1240234375,-0.96533203125,0.28955078125,-0.5625,-2.625,-0.375
1.8899999999999817,-2.0,-1.0,2.0,1.0,-4.0,2.0,-5.0,1.0,0.31390380859375,-0.5057373046875,0.62457275390625,-0.50555419921875,-0.115234375,-0.97119140625,0.2919921875,0.625,-2.5,-0.375
1.8949999999999816,2.0,0.0,2.0,5.0,0.0,9.0,-1.0,0.0,0.31390380859375,-0.5057373046875,0.62457275390625,-0.50555419921875,-0.115234375,-0.97119140625,0.2919921875,0.625,-2.5,-0.375
1.8999999999999815,0.0,-3.0,-9.0,-5.0,0.0,-2.0,1.0,-2.0,0.314208984375,-0.50543212890625,0.62457275390625,-0.5057373046875,-0.1171875,-0.96826171875,0.2939453125,0.75,-2.5625,-0.8125
1.9049999999999814,0.0,-3.0,-9.0,-5.0,0.0,-2.0,1.0,-2.0,0.314208984375,-0.50543212890625,0.62457275390625,-0.5057373046875,-0.1171875,-0.96826171875,0.2939453125,0.75,-2.5625,-0.8125
1.9099999999999813,0.0,1.0,3.0,1.0,0.0,-4.0,-1.0,-3.0,0.314208984375,-0.50543212890625,0.62457275390625,-0.5057373046875,-0.1171875,-0.96826171875,0.2939453125,0.75,-2.5625,-0.8125
1.9149999999999812,-1.0,-2.0,-1.0,8.0,4.0,-3.0,0.0,1.0,0.314208984375,-0.50543212890625,0.62457275390625,-0.5057373046875,-0.1171875,-0.96826171875,0.2939453125,0.75,-2.5625,-0.8125
1.919999999999981,-1.0,-2.0,-1.0,8.0,4.0,-3.0,0.0,1.0,0.31451416015625,-0.5050048828125,0.6246337890625,-0.505859375,-0.12353515625,-0.96728515625,0.294921875,1.0625,-2.625,-1.5
1.924999999999981,-1.0,-2.0,-1.0,8.0,4.0,-3.0,0.0,1.0,0.31451416015625,-0.5050048828125,0.6246337890625,-0.505859375,-0.12353515625,-0.96728515625,0.294921875,1.0625,-2.625,-1.5
1.9299999999999808,-2.0,-2.0,-2.0,9.0,2.0,-8.0,-8.0,-1.0,0.31451416015625,-0.5050048828125,0.6246337890625,-0.505859375,-0.12353515625,-0.96728515625,0.294921875,1.0625,-2.625,-1.5
1.9349999999999807,0.0,2.0,1.0,-3.0,1.0,6.0,1.0,-1.0,0.31451416015625,-0.5050048828125,0.6246337890625,-0.505859375,-0.12353515625,-0.96728515625,0.294921875,1.0625,-2.625,-1.5
1.9399999999999806,0.0,2.0,1.0,-3.0,1.0,6.0,1.0,-1.0,0.31451416015625,-0.5050048828125,0.6246337890625,-0.505859375,-0.12353515625,-0.96728515625,0.294921875,1.0625,-2.625,-1.5
1.9449999999999805,0.0,2.0,1.0,-3.0,1.0,6.0,1.0,-1.0,0.31488037109375,-0.50482177734375,0.62451171875,-0.5059814453125,-0.11865234375,-0.9658203125,0.2900390625,0.0625,-2.5,-0.5625
1.9499999999999804,0.0,2.0,1.0,-3.0,1.0,6.0,1.0,-1.0,0.31488037109375,-0.50482177734375,0.62451171875,-0.5059814453125,-0.11865234375,-0.9658203125,0.2900390625,0.0625,-2.5,-0.5625
1.9549999999999803,-1.0,-3.0,-7.0,-12.0,-2.0,3.0,0.0,0.0,0.31488037109375,-0.50482177734375,0.62451171875,-0.5059814453125,-0.11865234375,-0.9658203125,0.2900390625,0.0625,-2.5,-0.5625
1.9599999999999802,-1.0,-2.0,-4.0,0.0,-2.0,-5.0,-4.0,-4.0,0.31488037109375,-0.50482177734375,0.62451171875,-0.5059814453125,-0.11865234375,-0.9658203125,0.2900390625,0.0625,-2.5,-0.5625
1.96499999999998,-1.0,-2.0,-4.0,0.0,-2.0,-5.0,-4.0,-4.0,0.31524658203125,-0.5047607421875,0.62432861328125,-0.50604248046875,-0.123046875,-0.9736328125,0.29248046875,-0.875,-2.0,-0.4375
1.96999999999998,-1.0,-2.0,-4.0,0.0,-2.0,-5.0,-4.0,-4.0,0.31524658203125,-0.5047607421875,0.62432861328125,-0.50604248046875,-0.123046875,-0.9736328125,0.29248046875,-0.875,-2.0,-0.4375
1.9749999999999799,-1.0,-2.0,-4.0,0.0,-2.0,-5.0,-4.0,-4.0,0.31524658203125,-0.5047607421875,0.62432861328125,-0.50604248046875,-0.123046875,-0.9736328125,0.29248046875,-0.875,-2.0,-0.4375
1.9799999999999798,-2.0,-1.0,0.0,11.0,-1.0,-8.0,-5.0,-1.0,0.31524658203125,-0.5047607421875,0.62432861328125,-0.50604248046875,-0.123046875,-0.9736328125,0.29248046875,-0.875,-2.0,-0.4375
1.9849999999999797,0.0,-2.0,-1.0,-4.0,-5.0,-5.0,0.0,0.0,0.3155517578125,-0.504638671875,0.62408447265625,-0.5062255859375,-0.1201171875,-0.96533203125,0.29443359375,-0.6875,-2.25,-0.0625
1.9899999999999796,0.0,-2.0,-1.0,-4.0,-5.0,-5.0,0.0,0.0,0.3155517578125,-0.504638671875,0.62408447265625,-0.5062255859375,-0.1201171875,-0.96533203125,0.29443359375,-0.6875,-2.25,-0.0625
1.9949999999999795,1.0,0.0,-5.0,-20.0,3.0,2.0,4.0,2.0,0.3155517578125,-0.504638671875,0.62408447265625,-0.5062255859375,-0.1201171875,-0.96533203125,0.29443359375,-0.6875,-2.25,-0.0625
1.9999999999999793,1.0,0.0,-5.0,-20.0,3.0,2.0,4.0,2.0,0.3155517578125,-0.504638671875,0.62408447265625,-0.5062255859375,-0.1201171875,-0.96533203125,0.29443359375,-0.6875,-2.25,-0.0625
2.0049999999999795,-1.0,-3.0,-10.0,1.0,-4.0,16.0,2.0,-2.0,0.3155517578125,-0.504638671875,0.62408447265625,-0.5062255859375,-0.1201171875,-0.96533203125,0.29443359375,-0.6875,-2.25,-0.0625
2.0099999999999794,-2.0,-3.0,-1.0,-8.0,-8.0,-19.0,-5.0,-2.0,0.31573486328125,-0.50457763671875,0.62396240234375,-0.50634765625,-0.12060546875,-0.97412109375,0.2939453125,-0.5,-1.6875,0.125
2.0149999999999793,-2.0,-3.0,-1.0,-8.0,-8.0,-19.0,-5.0,-2.0,0.31573486328125,-0.50457763671875,0.62396240234375,-0.50634765625,-0.12060546875,-0.97412109375,0.2939453125,-0.5,-1.6875,0.125
2.019999999999979,-2.0,2.0,-2.0,-20.0,1.0,2.0,-5.0,-2.0,0.31573486328125,-0.50457763671875,0.62396240234375,-0.50634765625,-0.12060546875,-0.97412109375,0.2939453125,-0.5,-1.6875,0.125
2.024999999999979,-2.0,2.0,-2.0,-20.0,1.0,2.0,-5.0,-2.0,0.31573486328125,-0.50457763671875,0.62396240234375,-0.50634765625,-0.12060546875,-0.97412109375,0.2939453125,-0.5,-1.6875,0.125
2.029999999999979,-2.0,-3.0,-5.0,0.0,-6.0,6.0,-1.0,-2.0,0.31573486328125,-0.50457763671875,0.62396240234375,-0.50634765625,-0.12060546875,-0.97412109375,0.2939453125,-0.5,-1.6875,0.125
2.034999999999979,-2.0,-3.0,-5.0,0.0,-6.0,6.0,-1.0,-2.0,0.31573486328125,-0.504638671875,0.6239013671875,-0.50634765625,-0.123046875,-0.96826171875,0.2900390625,-0.25,-1.0,-0.25
2.0399999999999787,-2.0,-3.0,-5.0,0.0,-6.0,6.0,-1.0,-2.0,0.31573486328125,-0.504638671875,0.6239013671875,-0.50634765625,-0.123046875,-0.96826171875,0.2900390625,-0.25,-1.0,-0.25
2.0449999999999786,-2.0,-3.0,-5.0,0.0,-6.0,6.0,-1.0,-2.0,0.31573486328125,-0.504638671875,0.6239013671875,-0.50634765625,-0.123046875,-0.96826171875,0.2900390625,-0.25,-1.0,-0.25
2.0499999999999785,-2.0,-3.0,0.0,-1.0,-2.0,-2.0,-2.0,-2.0,0.31573486328125,-0.504638671875,0.6239013671875,-0.50634765625,-0.123046875,-0.96826171875,0.2900390625,-0.25,-1.0,-0.25
2.0549999999999784,-2.0,-3.0,0.0,-1.0,-2.0,-2.0,-2.0,-2.0,0.3157958984375,-0.50457763671875,0.623779296875,-0.50653076171875,-0.12744140625,-0.96240234375,0.2998046875,-0.5625,-1.3125,0.375
2.0599999999999783,-2.0,-3.0,0.0,-1.0,-2.0,-2.0,-2.0,-2.0,0.3157958984375,-0.50457763671875,0.623779296875,-0.50653076171875,-0.12744140625,-0.96240234375,0.2998046875,-0.5625,-1.3125,0.375
2.064999999999978,-1.0,-3.0,-11.0,-24.0,-12.0,-3.0,-1.0,-5.0,0.3157958984375,-0.50457763671875,0.623779296875,-0.50653076171875,-0.12744140625,-0.96240234375,0.2998046875,-0.5625,-1.3125,0.375
2.069999999999978,-1.0,-3.0,-11.0,-24.0,-12.0,-3.0,-1.0,-5.0,0.3157958984375,-0.50457763671875,0.623779296875,-0.50653076171875,-0.12744140625,-0.96240234375,0.2998046875,-0.5625,-1.3125,0.375
2.074999999999978,-1.0,-2.0,-2.0,-19.0,-3.0,1.0,-2.0,1.0,0.3157958984375,-0.50457763671875,0.623779296875,-0.50653076171875,-0.12744140625,-0.96240234375,0.2998046875,-0.5625,-1.3125,0.375
2.079999999999978,-1.0,-2.0,-2.0,-19.0,-3.0,1.0,-2.0,1.0,0.31597900390625,-0.504638671875,0.62347412109375,-0.5068359375,-0.12109375,-0.9609375,0.29443359375,-0.9375,-1.9375,1.3125
2.0849999999999778,-1.0,-2.0,-2.0,-19.0,-3.0,1.0,-2.0,1.0,0.31597900390625,-0.504638671875,0.62347412109375,-0.5068359375,-0.12109375,-0.9609375,0.29443359375,-0.9375,-1.9375,1.3125
2.0899999999999777,-4.0,-4.0,3.0,23.0,-10.0,-5.0,-4.0,-3.0,0.31597900390625,-0.504638671875,0.62347412109375,-0.5068359375,-0.12109375,-0.9609375,0.29443359375,-0.9375,-1.9375,1.3125
2.0949999999999775,-4.0,-4.0,3.0,23.0,-10.0,-5.0,-4.0,-3.0,0.31597900390625,-0.504638671875,0.62347412109375,-0.5068359375,-0.12109375,-0.9609375,0.29443359375,-0.9375,-1.9375,1.3125
2.0999999999999774,-4.0,-4.0,3.0,23.0,-10.0,-5.0,-4.0,-3.0,0.31597900390625,-0.504638671875,0.62347412109375,-0.5068359375,-0.12109375,-0.9609375,0.29443359375,-0.9375,-1.9375,1.3125
2.1049999999999773,-1.0,2.0,-2.0,-14.0,0.0,-15.0,6.0,-2.0,0.316162109375,-0.504638671875,0.6231689453125,-0.50701904296875,-0.11376953125,-0.97265625,0.29931640625,-1.1875,-1.875,1.5
2.1099999999999772,-1.0,2.0,-2.0,-14.0,0.0,-15.0,6.0,-2.0,0.316162109375,-0.504638671875,0.6231689453125,-0.50701904296875,-0.11376953125,-0.97265625,0.29931640625,-1.1875,-1.875,1.5
2.114999999999977,-1.0,-2.0,5.0,11.0,2.0,5.0,-6.0,-2.0,0.316162109375,-0.504638671875,0.6231689453125,-0.50701904296875,-0.11376953125,-0.97265625,0.29931640625,-1.1875,-1.875,1.5
2.119999999999977,-1.0,-2.0,5.0,11.0,2.0,5.0,-6.0,-2.0,0.316162109375,-0.504638671875,0.6231689453125,-0.50701904296875,-0.11376953125,-0.97265625,0.29931640625,-1.1875,-1.875,1.5
2.124999999999977,0.0,1.0,1.0,10.0,3.0,5.0,2.0,-1.0,0.316162109375,-0.5045166015625,0.623046875,-0.50726318359375,-0.11376953125,-0.966796875,0.29638671875,0.5,-0.875,1.1875
2.129999999999977,0.0,1.0,1.0,10.0,3.0,5.0,2.0,-1.0,0.316162109375,-0.5045166015625,0.623046875,-0.50726318359375,-0.11376953125,-0.966796875,0.29638671875,0.5,-0.875,1.1875
2.1349999999999767,0.0,0.0,-9.0,-29.0,-3.0,2.0,-4.0,0.0,0.316162109375,-0.5045166015625,0.623046875,-0.50726318359375,-0.11376953125,-0.966796875,0.29638671875,0.5,-0.875,1.1875
2.1399999999999766,0.0,0.0,-9.0,-29.0,-3.0,2.0,-4.0,0.0,0.316162109375,-0.5045166015625,0.623046875,-0.50726318359375,-0.11376953125,-0.966796875,0.29638671875,0.5,-0.875,1.1875
2.1449999999999765,0.0,0.0,-9.0,-29.0,-3.0,2.0,-4.0,0.0,0.31610107421875,-0.50433349609375,0.62298583984375,-0.507568359375,-0.11669921875,-0.9619140625,0.294921875,1.0,-1.3125,1.375
2.1499999999999764,-1.0,0.0,1.0,12.0,-6.0,-2.0,-3.0,0.0,0.31610107421875,-0.50433349609375,0.62298583984375,-0.507568359375,-0.11669921875,-0.9619140625,0.294921875,1.0,-1.3125,1.375
2.1549999999999763,-1.0,0.0,1.0,12.0,-6.0,-2.0,-3.0,0.0,0.31610107421875,-0.50433349609375,0.62298583984375,-0.507568359375,-0.11669921875,-0.9619140625,0.294921875,1.0,-1.3125,1.375
2.159999999999976,-1.0,0.0,1.0,12.0,-6.0,-2.0,-3.0,0.0,0.31610107421875,-0.50433349609375,0.62298583984375,-0.507568359375,-0.11669921875,-0.9619140625,0.294921875,1.0,-1.3125,1.375
2.164999999999976,2.0,3.0,3.0,25.0,10.0,7.0,0.0,0.0,0.31622314453125,-0.5042724609375,0.622802734375,-0.5078125,-0.115234375,-0.96337890625,0.29443359375,-0.125,-1.625,1.25
2.169999999999976,2.0,3.0,3.0,25.0,10.0,7.0,0.0,0.0,0.31622314453125,-0.5042724609375,0.622802734375,-0.5078125,-0.115234375,-0.96337890625,0.29443359375,-0.125,-1.625,1.25
2.174999999999976,2.0,3.0,3.0,25.0,10.0,7.0,0.0,0.0,0.31622314453125,-0.5042724609375,0.622802734375,-0.5078125,-0.115234375,-0.96337890625,0.29443359375,-0.125,-1.625,1.25
2.1799999999999757,1.0,0.0,1.0,12.0,8.0,5.0,5.0,0.0,0.31622314453125,-0.5042724609375,0.622802734375,-0.5078125,-0.115234375,-0.96337890625,0.29443359375,-0.125,-1.625,1.25
2.1849999999999756,1.0,0.0,1.0,12.0,8.0,5.0,5.0,0.0,0.31622314453125,-0.5042724609375,0.622802734375,-0.5078125,-0.115234375,-0.96337890625,0.29443359375,-0.125,-1.625,1.25
2.1899999999999755,1.0,0.0,1.0,12.0,8.0,5.0,5.0,0.0,0.31646728515625,-0.5042724609375,0.62261962890625,-0.50787353515625,-0.1162109375,-0.97900390625,0.29443359375,-0.8125,-1.5625,0.3125
2.1949999999999754,1.0,0.0,1.0,12.0,8.0,5.0,5.0,0.0,0.31646728515625,-0.5042724609375,0.62261962890625,-0.50787353515625,-0.1162109375,-0.97900390625,0.29443359375,-0.8125,-1.5625,0.3125
2.1999999999999753,-2.0,0.0,-3.0,-12.0,-3.0,-2.0,2.0,0.0,0.31646728515625,-0.5042724609375,0.62261962890625,-0.50787353515625,-0.1162109375,-0.97900390625,0.29443359375,-0.8125,-1.5625,0.3125
2.204999999999975,-2.0,0.0,-3.0,-12.0,-3.0,-2.0,2.0,0.0,0.31646728515625,-0.5042724609375,0.62261962890625,-0.50787353515625,-0.1162109375,-0.97900390625,0.29443359375,-0.8125,-1.5625,0.3125
2.209999999999975,0.0,0.0,3.0,23.0,3.0,9.0,3.0,0.0,0.31646728515625,-0.5042724609375,0.62261962890625,-0.50787353515625,-0.1162109375,-0.97900390625,0.29443359375,-0.8125,-1.5625,0.3125
2.214999999999975,0.0,0.0,3.0,23.0,3.0,9.0,3.0,0.0,0.31646728515625,-0.5042724609375,0.62261962890625,-0.50787353515625,-0.1162109375,-0.97900390625,0.29443359375,-0.8125,-1.5625,0.3125
2.219999999999975,0.0,0.0,3.0,23.0,3.0,9.0,3.0,0.0,0.3165283203125,-0.5040283203125,0.6226806640625,-0.50799560546875,-0.109375,-0.97216796875,0.2998046875,1.125,-0.9375,0.4375
2.2249999999999748,0.0,0.0,3.0,23.0,3.0,9.0,3.0,0.0,0.3165283203125,-0.5040283203125,0.6226806640625,-0.50799560546875,-0.109375,-0.97216796875,0.2998046875,1.125,-0.9375,0.4375
2.2299999999999747,-3.0,0.0,-1.0,-1.0,0.0,-13.0,5.0,-3.0,0.3165283203125,-0.5040283203125,0.6226806640625,-0.50799560546875,-0.109375,-0.97216796875,0.2998046875,1.125,-0.9375,0.4375
2.2349999999999746,-3.0,0.0,-1.0,-1.0,0.0,-13.0,5.0,-3.0,0.3165283203125,-0.5040283203125,0.6226806640625,-0.50799560546875,-0.109375,-0.97216796875,0.2998046875,1.125,-0.9375,0.4375
2.2399999999999745,-3.0,-1.0,2.0,8.0,1.0,10.0,0.0,-1.0,0.3165283203125,-0.50384521484375,0.62274169921875,-0.50811767578125,-0.11669921875,-0.96826171875,0.29443359375,1.1875,-0.625,0.0
2.2449999999999743,-3.0,-1.0,2.0,8.0,1.0,10.0,0.0,-1.0,0.3165283203125,-0.50384521484375,0.62274169921875,-0.50811767578125,-0.11669921875,-0.96826171875,0.29443359375,1.1875,-0.625,0.0
2.2499999999999742,-3.0,-1.0,2.0,8.0,1.0,10.0,0.0,-1.0,0.3165283203125,-0.50384521484375,0.62274169921875,-0.50811767578125,-0.11669921875,-0.96826171875,0.29443359375,1.1875,-0.625,0.0
2.254999999999974,-3.0,-1.0,2.0,8.0,1.0,10.0,0.0,-1.0,0.3165283203125,-0.50384521484375,0.62274169921875,-0.50811767578125,-0.11669921875,-0.96826171875,0.29443359375,1.1875,-0.625,0.0
2.259999999999974,-1.0,-1.0,-1.0,-17.0,2.0,0.0,-1.0,-3.0,0.3165283203125,-0.50384521484375,0.62274169921875,-0.50811767578125,-0.11669921875,-0.96826171875,0.29443359375,1.1875,-0.625,0.0
2.264999999999974,-1.0,-1.0,-1.0,-17.0,2.0,0.0,-1.0,-3.0,0.3165283203125,-0.50384521484375,0.62274169921875,-0.50811767578125,-0.11669921875,-0.96826171875,0.29443359375,1.1875,-0.625,0.0
2.269999999999974,-1.0,-1.0,-1.0,-17.0,2.0,0.0,-1.0,-3.0,0.31658935546875,-0.5035400390625,0.62274169921875,-0.50830078125,-0.119140625,-0.966796875,0.2978515625,0.9375,-1.75,0.0625
2.2749999999999737,-1.0,-1.0,-1.0,-17.0,2.0,0.0,-1.0,-3.0,0.31658935546875,-0.5035400390625,0.62274169921875,-0.50830078125,-0.119140625,-0.966796875,0.2978515625,0.9375,-1.75,0.0625
2.2799999999999736,-2.0,-3.0,-10.0,-35.0,-8.0,-6.0,-6.0,-2.0,0.31658935546875,-0.5035400390625,0.62274169921875,-0.50830078125,-0.119140625,-0.966796875,0.2978515625,0.9375,-1.75,0.0625
2.2849999999999735,-2.0,-3.0,-10.0,-35.0,-8.0,-6.0,-6.0,-2.0,0.31658935546875,-0.5035400390625,0.62274169921875,-0.50830078125,-0.119140625,-0.966796875,0.2978515625,0.9375,-1.75,0.0625
2.2899999999999734,-1.0,-5.0,-9.0,-18.0,-15.0,-1.0,2.0,1.0,0.31658935546875,-0.5035400390625,0.62274169921875,-0.50830078125,-0.119140625,-0.966796875,0.2978515625,0.9375,-1.75,0.0625
2.2949999999999733,-1.0,-5.0,-9.0,-18.0,-15.0,-1.0,2.0,1.0,0.31658935546875,-0.5035400390625,0.62274169921875,-0.50830078125,-0.119140625,-0.966796875,0.2978515625,0.9375,-1.75,0.0625
2.299999999999973,-1.0,-5.0,-9.0,-18.0,-15.0,-1.0,2.0,1.0,0.31671142578125,-0.50323486328125,0.622802734375,-0.508544921875,-0.12353515625,-0.97412109375,0.2939453125,2.0,-2.0,-0.5
2.304999999999973,-1.0,-5.0,-9.0,-18.0,-15.0,-1.0,2.0,1.0,0.31671142578125,-0.50323486328125,0.622802734375,-0.508544921875,-0.12353515625,-0.97412109375,0.2939453125,2.0,-2.0,-0.5
2.309999999999973,-1.0,0.0,-8.0,7.0,-1.0,4.0,1.0,-2.0,0.31671142578125,-0.50323486328125,0.622802734375,-0.508544921875,-0.12353515625,-0.97412109375,0.2939453125,2.0,-2.0,-0.5
2.314999999999973,-1.0,0.0,-8.0,7.0,-1.0,4.0,1.0,-2.0,0.31671142578125,-0.50323486328125,0.622802734375,-0.508544921875,-0.12353515625,-0.97412109375,0.2939453125,2.0,-2.0,-0.5
2.3199999999999728,-2.0,-1.0,-3.0,6.0,0.0,-11.0,-3.0,-2.0,0.31671142578125,-0.5028076171875,0.62298583984375,-0.5086669921875,-0.11962890625,-0.96533203125,0.294921875,2.25,-1.3125,-1.0
2.3249999999999726,-2.0,-1.0,-3.0,6.0,0.0,-11.0,-3.0,-2.0,0.31671142578125,-0.5028076171875,0.62298583984375,-0.5086669921875,-0.11962890625,-0.96533203125,0.294921875,2.25,-1.3125,-1.0
2.3299999999999725,-2.0,-1.0,-3.0,6.0,0.0,-11.0,-3.0,-2.0,0.31671142578125,-0.5028076171875,0.62298583984375,-0.5086669921875,-0.11962890625,-0.96533203125,0.294921875,2.25,-1.3125,-1.0
2.3349999999999724,-2.0,-1.0,-3.0,6.0,0.0,-11.0,-3.0,-2.0,0.31671142578125,-0.5028076171875,0.62298583984375,-0.5086669921875,-0.11962890625,-0.96533203125,0.294921875,2.25,-1.3125,-1.0
2.3399999999999723,-3.0,0.0,6.0,30.0,-9.0,-24.0,-3.0,-4.0,0.31671142578125,-0.5028076171875,0.62298583984375,-0.5086669921875,-0.11962890625,-0.96533203125,0.294921875,2.25,-1.3125,-1.0
2.344999999999972,-3.0,0.0,6.0,30.0,-9.0,-24.0,-3.0,-4.0,0.31707763671875,-0.5030517578125,0.622802734375,-0.50848388671875,-0.126953125,-0.966796875,0.28369140625,-1.875,-0.875,-1.25
2.349999999999972,-3.0,0.0,6.0,30.0,-9.0,-24.0,-3.0,-4.0,0.31707763671875,-0.5030517578125,0.622802734375,-0.50848388671875,-0.126953125,-0.966796875,0.28369140625,-1.875,-0.875,-1.25
2.354999999999972,0.0,1.0,4.0,19.0,7.0,13.0,1.0,-1.0,0.31707763671875,-0.5030517578125,0.622802734375,-0.50848388671875,-0.126953125,-0.966796875,0.28369140625,-1.875,-0.875,-1.25
2.359999999999972,0.0,1.0,4.0,19.0,7.0,13.0,1.0,-1.0,0.31707763671875,-0.5030517578125,0.622802734375,-0.50848388671875,-0.126953125,-0.966796875,0.28369140625,-1.875,-0.875,-1.25
2.364999999999972,-1.0,-5.0,-5.0,-3.0,-6.0,-3.0,-5.0,-2.0,0.31707763671875,-0.5030517578125,0.622802734375,-0.50848388671875,-0.126953125,-0.966796875,0.28369140625,-1.875,-0.875,-1.25
2.3699999999999717,-1.0,-5.0,-5.0,-3.0,-6.0,-3.0,-5.0,-2.0,0.31707763671875,-0.5030517578125,0.622802734375,-0.50848388671875,-0.126953125,-0.966796875,0.28369140625,-1.875,-0.875,-1.25
2.3749999999999716,-1.0,-5.0,-5.0,-3.0,-6.0,-3.0,-5.0,-2.0,0.31707763671875,-0.5030517578125,0.622802734375,-0.50848388671875,-0.1201171875,-0.9541015625,0.2958984375,-0.625,-0.6875,-0.625
2.3799999999999715,-1.0,-5.0,-5.0,-3.0,-6.0,-3.0,-5.0,-2.0,0.31707763671875,-0.5030517578125,0.622802734375,-0.50848388671875,-0.1201171875,-0.9541015625,0.2958984375,-0.625,-0.6875,-0.625
2.3849999999999714,-1.0,-1.0,-10.0,-45.0,0.0,2.0,4.0,3.0,0.31707763671875,-0.5030517578125,0.622802734375,-0.50848388671875,-0.1201171875,-0.9541015625,0.2958984375,-0.625,-0.6875,-0.625
2.3899999999999713,-1.0,-1.0,-10.0,-45.0,0.0,2.0,4.0,3.0,0.31707763671875,-0.5030517578125,0.622802734375,-0.50848388671875,-0.1201171875,-0.9541015625,0.2958984375,-0.625,-0.6875,-0.625
2.394999999999971,1.0,-1.0,5.0,5.0,0.0,-1.0,1.0,1.0,0.3172607421875,-0.50341796875,0.62255859375,-0.50823974609375,-0.12451171875,-0.96875,0.28955078125,-2.375,0.4375,-0.5
2.399999999999971,1.0,-1.0,5.0,5.0,0.0,-1.0,1.0,1.0,0.3172607421875,-0.50341796875,0.62255859375,-0.50823974609375,-0.12451171875,-0.96875,0.28955078125,-2.375,0.4375,-0.5
2.404999999999971,1.0,-1.0,5.0,5.0,0.0,-1.0,1.0,1.0,0.3172607421875,-0.50341796875,0.62255859375,-0.50823974609375,-0.12451171875,-0.96875,0.28955078125,-2.375,0.4375,-0.5
2.409999999999971,-3.0,-2.0,-9.0,-23.0,-8.0,-5.0,-1.0,0.0,0.3172607421875,-0.50341796875,0.62255859375,-0.50823974609375,-0.12451171875,-0.96875,0.28955078125,-2.375,0.4375,-0.5
2.4149999999999707,-1.0,-2.0,5.0,7.0,5.0,6.0,2.0,0.0,0.3172607421875,-0.50341796875,0.62255859375,-0.50823974609375,-0.12451171875,-0.96875,0.28955078125,-2.375,0.4375,-0.5
2.4199999999999706,-1.0,-2.0,5.0,7.0,5.0,6.0,2.0,0.0,0.3172607421875,-0.50341796875,0.62255859375,-0.50823974609375,-0.125,-0.962890625,0.29150390625,-0.625,0.4375,-0.3125
2.4249999999999705,-1.0,-3.0,5.0,-9.0,-11.0,-14.0,-8.0,-5.0,0.3172607421875,-0.50341796875,0.62255859375,-0.50823974609375,-0.125,-0.962890625,0.29150390625,-0.625,0.4375,-0.3125
2.4299999999999704,-1.0,-5.0,-19.0,-23.0,-4.0,14.0,9.0,-2.0,0.3172607421875,-0.50341796875,0.62255859375,-0.50823974609375,-0.125,-0.962890625,0.29150390625,-0.625,0.4375,-0.3125
2.4349999999999703,-1.0,-1.0,-5.0,-26.0,-6.0,-22.0,-7.0,-1.0,0.3172607421875,-0.50341796875,0.62255859375,-0.50823974609375,-0.125,-0.962890625,0.29150390625,-0.625,0.4375,-0.3125
2.43999999999997,-1.0,-1.0,-5.0,-26.0,-6.0,-22.0,-7.0,-1.0,0.31732177734375,-0.50372314453125,0.62237548828125,-0.50811767578125,-0.12548828125,-0.96728515625,0.29052734375,-1.8125,0.625,-0.1875
2.44499999999997,-1.0,-1.0,-5.0,-26.0,-6.0,-22.0,-7.0,-1.0,0.31732177734375,-0.50372314453125,0.62237548828125,-0.50811767578125,-0.12548828125,-0.96728515625,0.29052734375,-1.8125,0.625,-0.1875
2.44999999999997,-1.0,1.0,3.0,8.0,-3.0,-14.0,-3.0,3.0,0.31732177734375,-0.50372314453125,0.62237548828125,-0.50811767578125,-0.12548828125,-0.96728515625,0.29052734375,-1.8125,0.625,-0.1875
2.45499999999997,-3.0,-3.0,-7.0,-15.0,-5.0,-5.0,-6.0,-3.0,0.31732177734375,-0.50372314453125,0.62237548828125,-0.50811767578125,-0.12548828125,-0.96728515625,0.29052734375,-1.8125,0.625,-0.1875
2.4599999999999698,-1.0,1.0,-1.0,11.0,-1.0,7.0,-2.0,-3.0,0.317138671875,-0.50372314453125,0.62255859375,-0.50811767578125,-0.1279296875,-0.9580078125,0.2978515625,1.0,0.8125,-0.5
2.4649999999999697,-1.0,1.0,-1.0,11.0,-1.0,7.0,-2.0,-3.0,0.317138671875,-0.50372314453125,0.62255859375,-0.50811767578125,-0.1279296875,-0.9580078125,0.2978515625,1.0,0.8125,-0.5
2.4699999999999696,-2.0,-5.0,-28.0,-68.0,-23.0,-12.0,-6.0,-3.0,0.317138671875,-0.50372314453125,0.62255859375,-0.50811767578125,-0.1279296875,-0.9580078125,0.2978515625,1.0,0.8125,-0.5
2.4749999999999694,-1.0,-2.0,-2.0,2.0,0.0,3.0,2.0,0.0,0.31707763671875,-0.50390625,0.62237548828125,-0.50811767578125,-0.1279296875,-0.96435546875,0.2978515625,-1.1875,0.125,0.4375
2.4799999999999693,-1.0,-2.0,-2.0,2.0,0.0,3.0,2.0,0.0,0.31707763671875,-0.50390625,0.62237548828125,-0.50811767578125,-0.1279296875,-0.96435546875,0.2978515625,-1.1875,0.125,0.4375
2.4849999999999692,-1.0,-2.0,-2.0,2.0,0.0,3.0,2.0,0.0,0.31707763671875,-0.50390625,0.62237548828125,-0.50811767578125,-0.1279296875,-0.96435546875,0.2978515625,-1.1875,0.125,0.4375
2.489999999999969,-2.0,-1.0,5.0,8.0,4.0,-8.0,-4.0,0.0,0.31707763671875,-0.50390625,0.62237548828125,-0.50811767578125,-0.1279296875,-0.96435546875,0.2978515625,-1.1875,0.125,0.4375
2.494999999999969,0.0,2.0,-1.0,6.0,7.0,4.0,2.0,1.0,0.31707763671875,-0.50390625,0.62237548828125,-0.50811767578125,-0.1279296875,-0.96435546875,0.2978515625,-1.1875,0.125,0.4375
2.499999999999969,0.0,2.0,-1.0,6.0,7.0,4.0,2.0,1.0,0.31707763671875,-0.50390625,0.62237548828125,-0.5081787109375,-0.1259765625,-0.96435546875,0.294921875,-0.9375,-0.25,0.5
2.504999999999969,0.0,2.0,-1.0,6.0,7.0,4.0,2.0,1.0,0.31707763671875,-0.50390625,0.62237548828125,-0.5081787109375,-0.1259765625,-0.96435546875,0.294921875,-0.9375,-0.25,0.5
2.5099999999999687,-3.0,-6.0,-11.0,-39.0,-13.0,-5.0,-8.0,-3.0,0.31707763671875,-0.50390625,0.62237548828125,-0.5081787109375,-0.1259765625,-0.96435546875,0.294921875,-0.9375,-0.25,0.5
2.5149999999999686,-2.0,0.0,3.0,5.0,-3.0,0.0,-6.0,-2.0,0.31707763671875,-0.50390625,0.62237548828125,-0.5081787109375,-0.1259765625,-0.96435546875,0.294921875,-0.9375,-0.25,0.5
2.5199999999999685,-1.0,-1.0,-3.0,-15.0,5.0,4.0,2.0,-1.0,0.31707763671875,-0.50390625,0.62237548828125,-0.5081787109375,-0.1259765625,-0.96435546875,0.294921875,-0.9375,-0.25,0.5
2.5249999999999684,-1.0,-1.0,-3.0,-15.0,5.0,4.0,2.0,-1.0,0.31683349609375,-0.50372314453125,0.6224365234375,-0.50836181640625,-0.125,-0.95751953125,0.2880859375,2.0,-0.375,0.3125
2.5299999999999683,-1.0,-1.0,-3.0,-15.0,5.0,4.0,2.0,-1.0,0.31683349609375,-0.50372314453125,0.6224365234375,-0.50836181640625,-0.125,-0.95751953125,0.2880859375,2.0,-0.375,0.3125
2.534999999999968,-1.0,-1.0,-3.0,-15.0,5.0,4.0,2.0,-1.0,0.31683349609375,-0.50372314453125,0.6224365234375,-0.50836181640625,-0.125,-0.95751953125,0.2880859375,2.0,-0.375,0.3125
2.539999999999968,0.0,0.0,9.0,31.0,6.0,2.0,6.0,6.0,0.31683349609375,-0.50372314453125,0.6224365234375,-0.50836181640625,-0.125,-0.95751953125,0.2880859375,2.0,-0.375,0.3125
2.544999999999968,-2.0,-1.0,7.0,35.0,1.0,-10.0,-6.0,-4.0,0.31683349609375,-0.50372314453125,0.6224365234375,-0.50836181640625,-0.125,-0.95751953125,0.2880859375,2.0,-0.375,0.3125
2.549999999999968,0.0,-1.0,-6.0,-30.0,-6.0,-5.0,-2.0,0.0,0.31683349609375,-0.5037841796875,0.6224365234375,-0.50836181640625,-0.12890625,-0.962890625,0.287109375,0.875,0.0625,0.125
2.5549999999999677,-2.0,1.0,5.0,-4.0,-7.0,-6.0,-3.0,0.0,0.31683349609375,-0.5037841796875,0.6224365234375,-0.50836181640625,-0.12890625,-0.962890625,0.287109375,0.875,0.0625,0.125
2.5599999999999676,-2.0,1.0,5.0,-4.0,-7.0,-6.0,-3.0,0.0,0.31683349609375,-0.5037841796875,0.6224365234375,-0.50836181640625,-0.12890625,-0.962890625,0.287109375,0.875,0.0625,0.125
2.5649999999999675,-2.0,0.0,5.0,21.0,3.0,8.0,0.0,0.0,0.31683349609375,-0.5037841796875,0.6224365234375,-0.50836181640625,-0.12890625,-0.962890625,0.287109375,0.875,0.0625,0.125
2.5699999999999674,-2.0,0.0,5.0,21.0,3.0,8.0,0.0,0.0,0.31683349609375,-0.5037841796875,0.62237548828125,-0.50836181640625,-0.1298828125,-0.9765625,0.2919921875,0.4375,-0.125,-0.125
2.5749999999999673,-2.0,0.0,5.0,21.0,3.0,8.0,0.0,0.0,0.31683349609375,-0.5037841796875,0.62237548828125,-0.50836181640625,-0.1298828125,-0.9765625,0.2919921875,0.4375,-0.125,-0.125
2.579999999999967,-2.0,0.0,5.0,21.0,3.0,8.0,0.0,0.0,0.31683349609375,-0.5037841796875,0.62237548828125,-0.50836181640625,-0.1298828125,-0.9765625,0.2919921875,0.4375,-0.125,-0.125
2.584999999999967,-2.0,0.0,5.0,21.0,3.0,8.0,0.0,0.0,0.31683349609375,-0.5037841796875,0.62237548828125,-0.50836181640625,-0.1298828125,-0.9765625,0.2919921875,0.4375,-0.125,-0.125
2.589999999999967,-1.0,-1.0,2.0,8.0,0.0,3.0,-3.0,-1.0,0.31683349609375,-0.5037841796875,0.62237548828125,-0.50836181640625,-0.1298828125,-0.9765625,0.2919921875,0.4375,-0.125,-0.125
2.594999999999967,-1.0,-1.0,2.0,8.0,0.0,3.0,-3.0,-1.0,0.3167724609375,-0.50347900390625,0.62255859375,-0.508544921875,-0.13232421875,-0.96337890625,0.29296875,2.4375,-1.375,-0.9375
2.599999999999967,-1.0,-1.0,2.0,8.0,0.0,3.0,-3.0,-1.0,0.3167724609375,-0.50347900390625,0.62255859375,-0.508544921875,-0.13232421875,-0.96337890625,0.29296875,2.4375,-1.375,-0.9375
2.6049999999999667,0.0,-2.0,-7.0,-1.0,-11.0,-1.0,-1.0,-5.0,0.3167724609375,-0.50347900390625,0.62255859375,-0.508544921875,-0.13232421875,-0.96337890625,0.29296875,2.4375,-1.375,-0.9375
2.6099999999999666,0.0,-2.0,-7.0,-1.0,-11.0,-1.0,-1.0,-5.0,0.3167724609375,-0.50347900390625,0.62255859375,-0.508544921875,-0.13232421875,-0.96337890625,0.29296875,2.4375,-1.375,-0.9375
2.6149999999999665,-2.0,-3.0,-3.0,8.0,-6.0,-12.0,-7.0,0.0,0.31695556640625,-0.5032958984375,0.6224365234375,-0.50872802734375,-0.12646484375,-0.96435546875,0.2861328125,0.625,-2.25,-0.4375
2.6199999999999664,-2.0,-3.0,-3.0,8.0,-6.0,-12.0,-7.0,0.0,0.31695556640625,-0.5032958984375,0.6224365234375,-0.50872802734375,-0.12646484375,-0.96435546875,0.2861328125,0.625,-2.25,-0.4375
2.6249999999999662,-2.0,-3.0,-3.0,8.0,-6.0,-12.0,-7.0,0.0,0.31695556640625,-0.5032958984375,0.6224365234375,-0.50872802734375,-0.12646484375,-0.96435546875,0.2861328125,0.625,-2.25,-0.4375
2.629999999999966,-1.0,4.0,7.0,20.0,6.0,4.0,-3.0,-2.0,0.31695556640625,-0.5032958984375,0.6224365234375,-0.50872802734375,-0.12646484375,-0.96435546875,0.2861328125,0.625,-2.25,-0.4375
2.634999999999966,-2.0,-4.0,-1.0,0.0,-1.0,0.0,0.0,-1.0,0.31695556640625,-0.5032958984375,0.6224365234375,-0.50872802734375,-0.12646484375,-0.96435546875,0.2861328125,0.625,-2.25,-0.4375
2.639999999999966,-2.0,-4.0,-1.0,0.0,-1.0,0.0,0.0,-1.0,0.31719970703125,-0.503173828125,0.6221923828125,-0.50897216796875,-0.1318359375,-0.97119140625,0.29736328125,-0.5,-2.5625,-0.1875
2.644999999999966,-2.0,-4.0,-1.0,0.0,-1.0,0.0,0.0,-1.0,0.31719970703125,-0.503173828125,0.6221923828125,-0.50897216796875,-0.1318359375,-0.97119140625,0.29736328125,-0.5,-2.5625,-0.1875
2.6499999999999657,0.0,2.0,14.0,15.0,11.0,-3.0,-2.0,0.0,0.31719970703125,-0.503173828125,0.6221923828125,-0.50897216796875,-0.1318359375,-0.97119140625,0.29736328125,-0.5,-2.5625,-0.1875
2.6549999999999656,-1.0,-5.0,-16.0,-43.0,-12.0,-4.0,-1.0,-4.0,0.3173828125,-0.50299072265625,0.62213134765625,-0.5091552734375,-0.12939453125,-0.97265625,0.2890625,1.0,-2.1875,-0.5
2.6599999999999655,-1.0,-5.0,-16.0,-43.0,-12.0,-4.0,-1.0,-4.0,0.3173828125,-0.50299072265625,0.62213134765625,-0.5091552734375,-0.12939453125,-0.97265625,0.2890625,1.0,-2.1875,-0.5
2.6649999999999654,-1.0,-5.0,-16.0,-43.0,-12.0,-4.0,-1.0,-4.0,0.3173828125,-0.50299072265625,0.62213134765625,-0.5091552734375,-0.12939453125,-0.97265625,0.2890625,1.0,-2.1875,-0.5
2.6699999999999653,-2.0,-2.0,-5.0,5.0,-1.0,1.0,0.0,1.0,0.3173828125,-0.50299072265625,0.62213134765625,-0.5091552734375,-0.12939453125,-0.97265625,0.2890625,1.0,-2.1875,-0.5
2.674999999999965,-1.0,1.0,-1.0,13.0,2.0,1.0,-2.0,1.0,0.317626953125,-0.5028076171875,0.62188720703125,-0.5093994140625,-0.12890625,-0.97412109375,0.2958984375,-0.0625,-2.5,-0.125
2.679999999999965,-1.0,1.0,-1.0,13.0,2.0,1.0,-2.0,1.0,0.317626953125,-0.5028076171875,0.62188720703125,-0.5093994140625,-0.12890625,-0.97412109375,0.2958984375,-0.0625,-2.5,-0.125
2.684999999999965,-1.0,1.0,-1.0,13.0,2.0,1.0,-2.0,1.0,0.317626953125,-0.5028076171875,0.62188720703125,-0.5093994140625,-0.12890625,-0.97412109375,0.2958984375,-0.0625,-2.5,-0.125
2.689999999999965,-1.0,-3.0,-4.0,-19.0,-5.0,2.0,0.0,-2.0,0.317626953125,-0.5028076171875,0.62188720703125,-0.5093994140625,-0.12890625,-0.97412109375,0.2958984375,-0.0625,-2.5,-0.125
2.6949999999999648,-1.0,-3.0,-4.0,-19.0,-5.0,2.0,0.0,-2.0,0.3177490234375,-0.50274658203125,0.62164306640625,-0.50970458984375,-0.1298828125,-0.96630859375,0.2802734375,0.6875,-2.5,0.5625
2.6999999999999647,-1.0,-2.0,-3.0,-1.0,4.0,1.0,-1.0,-1.0,0.3177490234375,-0.50274658203125,0.62164306640625,-0.50970458984375,-0.1298828125,-0.96630859375,0.2802734375,0.6875,-2.5,0.5625
2.7049999999999645,-1.0,-2.0,-3.0,-1.0,4.0,1.0,-1.0,-1.0,0.3177490234375,-0.50274658203125,0.62164306640625,-0.50970458984375,-0.1298828125,-0.96630859375,0.2802734375,0.6875,-2.5,0.5625
2.7099999999999644,-1.0,-2.0,-3.0,-1.0,4.0,1.0,-1.0,-1.0,0.3177490234375,-0.50274658203125,0.62164306640625,-0.50970458984375,-0.1298828125,-0.96630859375,0.2802734375,0.6875,-2.5,0.5625
2.7149999999999643,-1.0,-2.0,-3.0,-1.0,4.0,1.0,-1.0,-1.0,0.3177490234375,-0.50274658203125,0.62164306640625,-0.50970458984375,-0.1298828125,-0.96630859375,0.2802734375,0.6875,-2.5,0.5625
2.7199999999999642,-2.0,-1.0,-4.0,4.0,-3.0,-8.0,-11.0,-6.0,0.3177490234375,-0.50274658203125,0.62164306640625,-0.50970458984375,-0.1298828125,-0.96630859375,0.2802734375,0.6875,-2.5,0.5625
2.724999999999964,-2.0,-1.0,-4.0,4.0,-3.0,-8.0,-11.0,-6.0,0.3177490234375,-0.50274658203125,0.62164306640625,-0.50970458984375,-0.1298828125,-0.96630859375,0.2802734375,0.6875,-2.5,0.5625
2.729999999999964,0.0,-1.0,-1.0,7.0,-1.0,-4.0,-1.0,-2.0,0.31787109375,-0.5025634765625,0.62139892578125,-0.5101318359375,-0.12744140625,-0.95458984375,0.29638671875,0.1875,-2.75,1.0625
2.734999999999964,0.0,-1.0,-1.0,7.0,-1.0,-4.0,-1.0,-2.0,0.31787109375,-0.5025634765625,0.62139892578125,-0.5101318359375,-0.12744140625,-0.95458984375,0.29638671875,0.1875,-2.75,1.0625
2.739999999999964,1.0,1.0,4.0,-1.0,4.0,16.0,0.0,-1.0,0.31793212890625,-0.50250244140625,0.62103271484375,-0.51068115234375,-0.12255859375,-0.95947265625,0.2958984375,0.0625,-2.875,2.4375
2.7449999999999637,1.0,1.0,4.0,-1.0,4.0,16.0,0.0,-1.0,0.31793212890625,-0.50250244140625,0.62103271484375,-0.51068115234375,-0.12255859375,-0.95947265625,0.2958984375,0.0625,-2.875,2.4375
2.7499999999999636,1.0,1.0,4.0,-1.0,4.0,16.0,0.0,-1.0,0.31793212890625,-0.50250244140625,0.62103271484375,-0.51068115234375,-0.12255859375,-0.95947265625,0.2958984375,0.0625,-2.875,2.4375
2.7549999999999635,1.0,1.0,4.0,-1.0,4.0,16.0,0.0,-1.0,0.31793212890625,-0.50250244140625,0.62103271484375,-0.51068115234375,-0.12255859375,-0.95947265625,0.2958984375,0.0625,-2.875,2.4375
2.7599999999999634,0.0,-1.0,-2.0,-4.0,-7.0,-29.0,-3.0,-1.0,0.31793212890625,-0.50250244140625,0.62103271484375,-0.51068115234375,-0.12255859375,-0.95947265625,0.2958984375,0.0625,-2.875,2.4375
2.7649999999999633,0.0,-1.0,-2.0,-4.0,-7.0,-29.0,-3.0,-1.0,0.31793212890625,-0.50250244140625,0.62103271484375,-0.51068115234375,-0.12255859375,-0.95947265625,0.2958984375,0.0625,-2.875,2.4375
2.769999999999963,0.0,-1.0,-2.0,-4.0,-7.0,-29.0,-3.0,-1.0,0.3179931640625,-0.50250244140625,0.62060546875,-0.51116943359375,-0.12548828125,-0.9677734375,0.29248046875,-0.3125,-2.375,2.5
2.774999999999963,-2.0,1.0,3.0,10.0,7.0,4.0,1.0,1.0,0.3179931640625,-0.50250244140625,0.62060546875,-0.51116943359375,-0.12548828125,-0.9677734375,0.29248046875,-0.3125,-2.375,2.5
2.779999999999963,-2.0,1.0,3.0,10.0,7.0,4.0,1.0,1.0,0.3179931640625,-0.50250244140625,0.62060546875,-0.51116943359375,-0.12548828125,-0.9677734375,0.29248046875,-0.3125,-2.375,2.5
2.784999999999963,-2.0,1.0,3.0,10.0,7.0,4.0,1.0,1.0,0.3179931640625,-0.50250244140625,0.62060546875,-0.51116943359375,-0.12548828125,-0.9677734375,0.29248046875,-0.3125,-2.375,2.5
2.7899999999999627,-2.0,-2.0,3.0,-9.0,2.0,7.0,1.0,0.0,0.31787109375,-0.50250244140625,0.6202392578125,-0.51165771484375,-0.12744140625,-0.9658203125,0.29150390625,0.5625,-2.0,2.5
2.7949999999999626,-2.0,-2.0,3.0,-9.0,2.0,7.0,1.0,0.0,0.31787109375,-0.50250244140625,0.6202392578125,-0.51165771484375,-0.12744140625,-0.9658203125,0.29150390625,0.5625,-2.0,2.5
2.7999999999999625,-2.0,-2.0,3.0,-9.0,2.0,7.0,1.0,0.0,0.31787109375,-0.50250244140625,0.6202392578125,-0.51165771484375,-0.12744140625,-0.9658203125,0.29150390625,0.5625,-2.0,2.5
2.8049999999999624,-2.0,-2.0,-2.0,-5.0,1.0,-3.0,-1.0,-1.0,0.31787109375,-0.50250244140625,0.6202392578125,-0.51165771484375,-0.12744140625,-0.9658203125,0.29150390625,0.5625,-2.0,2.5
2.8099999999999623,-2.0,-2.0,-2.0,-5.0,1.0,-3.0,-1.0,-1.0,0.31787109375,-0.50250244140625,0.6202392578125,-0.51165771484375,-0.12744140625,-0.9658203125,0.29150390625,0.5625,-2.0,2.5
2.814999999999962,0.0,-1.0,-1.0,8.0,2.0,-1.0,-4.0,-3.0,0.31787109375,-0.50250244140625,0.6202392578125,-0.51165771484375,-0.12744140625,-0.9658203125,0.29150390625,0.5625,-2.0,2.5
2.819999999999962,0.0,-1.0,-1.0,8.0,2.0,-1.0,-4.0,-3.0,0.3177490234375,-0.502197265625,0.62005615234375,-0.51220703125,-0.12646484375,-0.962890625,0.30419921875,1.4375,-2.125,2.125
2.824999999999962,0.0,-1.0,-1.0,8.0,2.0,-1.0,-4.0,-3.0,0.3177490234375,-0.502197265625,0.62005615234375,-0.51220703125,-0.12646484375,-0.962890625,0.30419921875,1.4375,-2.125,2.125
2.829999999999962,0.0,-1.0,-1.0,8.0,2.0,-1.0,-4.0,-3.0,0.3177490234375,-0.502197265625,0.62005615234375,-0.51220703125,-0.12646484375,-0.962890625,0.30419921875,1.4375,-2.125,2.125
2.8349999999999618,-1.0,-5.0,-5.0,14.0,0.0,-3.0,1.0,-2.0,0.3177490234375,-0.502197265625,0.62005615234375,-0.51220703125,-0.12646484375,-0.962890625,0.30419921875,1.4375,-2.125,2.125
2.8399999999999617,-1.0,-2.0,-14.0,-21.0,-5.0,2.0,1.0,-1.0,0.3177490234375,-0.502197265625,0.62005615234375,-0.51220703125,-0.12646484375,-0.962890625,0.30419921875,1.4375,-2.125,2.125
2.8449999999999616,-1.0,-2.0,-14.0,-21.0,-5.0,2.0,1.0,-1.0,0.31787109375,-0.5020751953125,0.61968994140625,-0.5126953125,-0.11474609375,-0.9609375,0.2978515625,-0.0625,-2.875,2.6875
2.8499999999999615,-1.0,-2.0,-14.0,-21.0,-5.0,2.0,1.0,-1.0,0.31787109375,-0.5020751953125,0.61968994140625,-0.5126953125,-0.11474609375,-0.9609375,0.2978515625,-0.0625,-2.875,2.6875
2.8549999999999613,-2.0,-2.0,0.0,7.0,-5.0,20.0,1.0,-2.0,0.31787109375,-0.5020751953125,0.61968994140625,-0.5126953125,-0.11474609375,-0.9609375,0.2978515625,-0.0625,-2.875,2.6875
2.8599999999999612,-2.0,-2.0,0.0,7.0,-5.0,20.0,1.0,-2.0,0.31787109375,-0.5020751953125,0.61968994140625,-0.5126953125,-0.11474609375,-0.9609375,0.2978515625,-0.0625,-2.875,2.6875
2.864999999999961,0.0,1.0,9.0,31.0,0.0,-18.0,-3.0,0.0,0.31805419921875,-0.501953125,0.61944580078125,-0.51300048828125,-0.1123046875,-0.9716796875,0.29541015625,0.0,-2.1875,1.75
2.869999999999961,0.0,1.0,9.0,31.0,0.0,-18.0,-3.0,0.0,0.31805419921875,-0.501953125,0.61944580078125,-0.51300048828125,-0.1123046875,-0.9716796875,0.29541015625,0.0,-2.1875,1.75
2.874999999999961,0.0,1.0,9.0,31.0,0.0,-18.0,-3.0,0.0,0.31805419921875,-0.501953125,0.61944580078125,-0.51300048828125,-0.1123046875,-0.9716796875,0.29541015625,0.0,-2.1875,1.75
2.879999999999961,0.0,1.0,9.0,31.0,0.0,-18.0,-3.0,0.0,0.31805419921875,-0.501953125,0.61944580078125,-0.51300048828125,-0.1123046875,-0.9716796875,0.29541015625,0.0,-2.1875,1.75
2.8849999999999607,-1.0,-2.0,-2.0,-7.0,-5.0,-1.0,4.0,1.0,0.31805419921875,-0.501953125,0.61944580078125,-0.51300048828125,-0.1123046875,-0.9716796875,0.29541015625,0.0,-2.1875,1.75
2.8899999999999606,-1.0,-2.0,-2.0,-7.0,-5.0,-1.0,4.0,1.0,0.31805419921875,-0.501953125,0.61944580078125,-0.51300048828125,-0.1123046875,-0.9716796875,0.29541015625,0.0,-2.1875,1.75
2.8949999999999605,-3.0,0.0,0.0,9.0,4.0,4.0,6.0,-1.0,0.3182373046875,-0.5018310546875,0.61932373046875,-0.51318359375,-0.11767578125,-0.97509765625,0.2919921875,0.5625,-1.75,1.0
2.8999999999999604,-3.0,0.0,0.0,9.0,4.0,4.0,6.0,-1.0,0.3182373046875,-0.5018310546875,0.61932373046875,-0.51318359375,-0.11767578125,-0.97509765625,0.2919921875,0.5625,-1.75,1.0
2.9049999999999603,-3.0,0.0,0.0,9.0,4.0,4.0,6.0,-1.0,0.3182373046875,-0.5018310546875,0.61932373046875,-0.51318359375,-0.11767578125,-0.97509765625,0.2919921875,0.5625,-1.75,1.0
2.90999999999996,-3.0,0.0,0.0,9.0,4.0,4.0,6.0,-1.0,0.3182373046875,-0.5018310546875,0.61932373046875,-0.51318359375,-0.11767578125,-0.97509765625,0.2919921875,0.5625,-1.75,1.0
2.91499999999996,1.0,3.0,1.0,0.0,-2.0,5.0,1.0,-2.0,0.3182373046875,-0.5018310546875,0.61932373046875,-0.51318359375,-0.11767578125,-0.97509765625,0.2919921875,0.5625,-1.75,1.0
2.91999999999996,1.0,3.0,1.0,0.0,-2.0,5.0,1.0,-2.0,0.3182373046875,-0.5018310546875,0.61932373046875,-0.51318359375,-0.11767578125,-0.97509765625,0.2919921875,0.5625,-1.75,1.0
2.92499999999996,1.0,3.0,1.0,0.0,-2.0,5.0,1.0,-2.0,0.318359375,-0.50152587890625,0.6192626953125,-0.513427734375,-0.1181640625,-0.970703125,0.29150390625,1.3125,-2.1875,0.375
2.9299999999999597,1.0,3.0,1.0,0.0,-2.0,5.0,1.0,-2.0,0.318359375,-0.50152587890625,0.6192626953125,-0.513427734375,-0.1181640625,-0.970703125,0.29150390625,1.3125,-2.1875,0.375
2.9349999999999596,1.0,3.0,1.0,0.0,-2.0,5.0,1.0,-2.0,0.318359375,-0.50152587890625,0.6192626953125,-0.513427734375,-0.1181640625,-0.970703125,0.29150390625,1.3125,-2.1875,0.375
2.9399999999999595,1.0,3.0,1.0,0.0,-2.0,5.0,1.0,-2.0,0.318359375,-0.50152587890625,0.6192626953125,-0.513427734375,-0.1181640625,-0.970703125,0.29150390625,1.3125,-2.1875,0.375
2.9449999999999594,-3.0,-2.0,-4.0,-16.0,-2.0,12.0,8.0,-3.0,0.3184814453125,-0.5010986328125,0.6192626953125,-0.5137939453125,-0.1201171875,-0.96240234375,0.296875,2.0,-2.625,0.1875
2.9499999999999593,-3.0,-2.0,-4.0,-16.0,-2.0,12.0,8.0,-3.0,0.3184814453125,-0.5010986328125,0.6192626953125,-0.5137939453125,-0.1201171875,-0.96240234375,0.296875,2.0,-2.625,0.1875
2.954999999999959,-3.0,-2.0,-4.0,-16.0,-2.0,12.0,8.0,-3.0,0.3184814453125,-0.5010986328125,0.6192626953125,-0.5137939453125,-0.1201171875,-0.96240234375,0.296875,2.0,-2.625,0.1875
2.959999999999959,-2.0,-2.0,-9.0,-34.0,-12.0,-25.0,-11.0,-4.0,0.3184814453125,-0.5010986328125,0.6192626953125,-0.5137939453125,-0.1201171875,-0.96240234375,0.296875,2.0,-2.625,0.1875
2.964999999999959,-2.0,-2.0,-9.0,-34.0,-12.0,-25.0,-11.0,-4.0,0.3184814453125,-0.5010986328125,0.6192626953125,-0.5137939453125,-0.1201171875,-0.96240234375,0.296875,2.0,-2.625,0.1875
2.969999999999959,-1.0,1.0,3.0,19.0,10.0,20.0,7.0,5.0,0.3189697265625,-0.50091552734375,0.61895751953125,-0.5140380859375,-0.1171875,-0.96533203125,0.2958984375,-0.875,-3.25,0.3125
2.974999999999959,-1.0,1.0,3.0,19.0,10.0,20.0,7.0,5.0,0.3189697265625,-0.50091552734375,0.61895751953125,-0.5140380859375,-0.1171875,-0.96533203125,0.2958984375,-0.875,-3.25,0.3125
2.9799999999999587,-1.0,1.0,3.0,19.0,10.0,20.0,7.0,5.0,0.3189697265625,-0.50091552734375,0.61895751953125,-0.5140380859375,-0.1171875,-0.96533203125,0.2958984375,-0.875,-3.25,0.3125
2.9849999999999586,-1.0,1.0,3.0,19.0,10.0,20.0,7.0,5.0,0.3189697265625,-0.50091552734375,0.61895751953125,-0.5140380859375,-0.1171875,-0.96533203125,0.2958984375,-0.875,-3.25,0.3125
2.9899999999999585,-1.0,-4.0,-4.0,-25.0,-9.0,-12.0,-7.0,-1.0,0.3189697265625,-0.50091552734375,0.61895751953125,-0.5140380859375,-0.1171875,-0.96533203125,0.2958984375,-0.875,-3.25,0.3125
2.9949999999999584,-1.0,-4.0,-4.0,-25.0,-9.0,-12.0,-7.0,-1.0,0.3193359375,-0.50079345703125,0.61871337890625,-0.51422119140625,-0.115234375,-0.97265625,0.29345703125,-0.5,-2.875,0.25
2.9999999999999583,-1.0,-4.0,-4.0,-25.0,-9.0,-12.0,-7.0,-1.0,0.3193359375,-0.50079345703125,0.61871337890625,-0.51422119140625,-0.115234375,-0.97265625,0.29345703125,-0.5,-2.875,0.25
3.004999999999958,1.0,1.0,3.0,1.0,7.0,-1.0,-2.0,-1.0,0.3193359375,-0.50079345703125,0.61871337890625,-0.51422119140625,-0.115234375,-0.97265625,0.29345703125,-0.5,-2.875,0.25
3.009999999999958,1.0,1.0,3.0,1.0,7.0,-1.0,-2.0,-1.0,0.3193359375,-0.50079345703125,0.61871337890625,-0.51422119140625,-0.115234375,-0.97265625,0.29345703125,-0.5,-2.875,0.25
3.014999999999958,-1.0,0.0,6.0,32.0,12.0,-2.0,-7.0,-4.0,0.319580078125,-0.5006103515625,0.61859130859375,-0.514404296875,-0.11767578125,-0.96044921875,0.29150390625,0.4375,-2.125,0.4375
3.019999999999958,-1.0,0.0,6.0,32.0,12.0,-2.0,-7.0,-4.0,0.319580078125,-0.5006103515625,0.61859130859375,-0.514404296875,-0.11767578125,-0.96044921875,0.29150390625,0.4375,-2.125,0.4375
3.0249999999999577,-2.0,-5.0,-1.0,-6.0,-13.0,-20.0,-3.0,-1.0,0.319580078125,-0.5006103515625,0.61859130859375,-0.514404296875,-0.11767578125,-0.96044921875,0.29150390625,0.4375,-2.125,0.4375
3.0299999999999576,0.0,-1.0,4.0,-3.0,0.0,-3.0,7.0,0.0,0.31976318359375,-0.50067138671875,0.6182861328125,-0.5145263671875,-0.12109375,-0.96728515625,0.28564453125,-0.625,-1.5625,0.875
3.0349999999999575,0.0,-1.0,4.0,-3.0,0.0,-3.0,7.0,0.0,0.31976318359375,-0.50067138671875,0.6182861328125,-0.5145263671875,-0.12109375,-0.96728515625,0.28564453125,-0.625,-1.5625,0.875
3.0399999999999574,0.0,-1.0,4.0,-3.0,0.0,-3.0,7.0,0.0,0.31976318359375,-0.50067138671875,0.6182861328125,-0.5145263671875,-0.12109375,-0.96728515625,0.28564453125,-0.625,-1.5625,0.875
3.0449999999999573,-2.0,-4.0,-10.0,-9.0,-15.0,-12.0,-6.0,-2.0,0.31976318359375,-0.50067138671875,0.6182861328125,-0.5145263671875,-0.12109375,-0.96728515625,0.28564453125,-0.625,-1.5625,0.875
3.049999999999957,-2.0,-4.0,-10.0,-9.0,-15.0,-12.0,-6.0,-2.0,0.31976318359375,-0.50067138671875,0.6182861328125,-0.5145263671875,-0.12109375,-0.96728515625,0.28564453125,-0.625,-1.5625,0.875
3.054999999999957,-2.0,-4.0,-10.0,-9.0,-15.0,-12.0,-6.0,-2.0,0.31988525390625,-0.5006103515625,0.6181640625,-0.51470947265625,-0.1220703125,-0.9638671875,0.2998046875,-0.1875,-1.3125,0.6875
3.059999999999957,0.0,1.0,1.0,4.0,1.0,4.0,-1.0,2.0,0.31988525390625,-0.5006103515625,0.6181640625,-0.51470947265625,-0.1220703125,-0.9638671875,0.2998046875,-0.1875,-1.3125,0.6875
3.064999999999957,0.0,1.0,1.0,4.0,1.0,4.0,-1.0,2.0,0.31988525390625,-0.5006103515625,0.6181640625,-0.51470947265625,-0.1220703125,-0.9638671875,0.2998046875,-0.1875,-1.3125,0.6875
3.0699999999999568,0.0,1.0,1.0,4.0,1.0,4.0,-1.0,2.0,0.31988525390625,-0.5006103515625,0.6181640625,-0.51470947265625,-0.1220703125,-0.9638671875,0.2998046875,-0.1875,-1.3125,0.6875
3.0749999999999567,1.0,0.0,0.0,0.0,9.0,5.0,-1.0,-1.0,0.31988525390625,-0.50067138671875,0.61798095703125,-0.514892578125,-0.1240234375,-0.96923828125,0.30029296875,-0.75,-0.6875,1.0
3.0799999999999566,1.0,0.0,0.0,0.0,9.0,5.0,-1.0,-1.0,0.31988525390625,-0.50067138671875,0.61798095703125,-0.514892578125,-0.1240234375,-0.96923828125,0.30029296875,-0.75,-0.6875,1.0
3.0849999999999564,1.0,0.0,0.0,0.0,9.0,5.0,-1.0,-1.0,0.31988525390625,-0.50067138671875,0.61798095703125,-0.514892578125,-0.1240234375,-0.96923828125,0.30029296875,-0.75,-0.6875,1.0
3.0899999999999563,0.0,0.0,1.0,3.0,-2.0,-4.0,1.0,-1.0,0.31988525390625,-0.50067138671875,0.61798095703125,-0.514892578125,-0.1240234375,-0.96923828125,0.30029296875,-0.75,-0.6875,1.0
3.0949999999999562,0.0,0.0,1.0,3.0,-2.0,-4.0,1.0,-1.0,0.31988525390625,-0.50067138671875,0.61798095703125,-0.514892578125,-0.1240234375,-0.96923828125,0.30029296875,-0.75,-0.6875,1.0
3.099999999999956,-1.0,-1.0,4.0,19.0,3.0,1.0,-4.0,0.0,0.31988525390625,-0.50067138671875,0.61798095703125,-0.514892578125,-0.1240234375,-0.96923828125,0.30029296875,-0.75,-0.6875,1.0
3.104999999999956,-2.0,-3.0,-12.0,-36.0,-5.0,-1.0,0.0,-2.0,0.31982421875,-0.50067138671875,0.61785888671875,-0.51507568359375,-0.1220703125,-0.9619140625,0.2998046875,0.3125,-0.6875,1.1875
3.109999999999956,-2.0,-3.0,-12.0,-36.0,-5.0,-1.0,0.0,-2.0,0.31982421875,-0.50067138671875,0.61785888671875,-0.51507568359375,-0.1220703125,-0.9619140625,0.2998046875,0.3125,-0.6875,1.1875
3.114999999999956,0.0,-1.0,1.0,-4.0,1.0,-9.0,-4.0,0.0,0.31982421875,-0.50067138671875,0.61785888671875,-0.51507568359375,-0.1220703125,-0.9619140625,0.2998046875,0.3125,-0.6875,1.1875
3.1199999999999557,0.0,-1.0,1.0,-4.0,1.0,-9.0,-4.0,0.0,0.31982421875,-0.50067138671875,0.61785888671875,-0.51507568359375,-0.1220703125,-0.9619140625,0.2998046875,0.3125,-0.6875,1.1875
3.1249999999999556,0.0,-1.0,1.0,-4.0,1.0,-9.0,-4.0,0.0,0.31982421875,-0.50067138671875,0.61785888671875,-0.51507568359375,-0.1279296875,-0.96337890625,0.3056640625,0.5625,-0.25,0.875
3.1299999999999555,0.0,-1.0,1.0,-4.0,1.0,-9.0,-4.0,0.0,0.31982421875,-0.50067138671875,0.61785888671875,-0.51507568359375,-0.1279296875,-0.96337890625,0.3056640625,0.5625,-0.25,0.875
3.1349999999999554,0.0,1.0,4.0,36.0,10.0,21.0,6.0,2.0,0.31982421875,-0.50067138671875,0.61785888671875,-0.51507568359375,-0.1279296875,-0.96337890625,0.3056640625,0.5625,-0.25,0.875
3.1399999999999553,-2.0,0.0,4.0,10.0,-8.0,-21.0,-10.0,-4.0,0.31976318359375,-0.50067138671875,0.61785888671875,-0.51507568359375,-0.12255859375,-0.95703125,0.296875,0.625,0.125,0.0
3.144999999999955,-2.0,0.0,4.0,10.0,-8.0,-21.0,-10.0,-4.0,0.31976318359375,-0.50067138671875,0.61785888671875,-0.51507568359375,-0.12255859375,-0.95703125,0.296875,0.625,0.125,0.0
3.149999999999955,-2.0,0.0,4.0,10.0,-8.0,-21.0,-10.0,-4.0,0.31976318359375,-0.50067138671875,0.61785888671875,-0.51507568359375,-0.12255859375,-0.95703125,0.296875,0.625,0.125,0.0
3.154999999999955,-2.0,0.0,4.0,10.0,-8.0,-21.0,-10.0,-4.0,0.31976318359375,-0.50067138671875,0.61785888671875,-0.51507568359375,-0.12255859375,-0.95703125,0.296875,0.625,0.125,0.0
3.159999999999955,-2.0,0.0,4.0,10.0,-8.0,-21.0,-10.0,-4.0,0.31976318359375,-0.50067138671875,0.61785888671875,-0.51507568359375,-0.12255859375,-0.95703125,0.296875,0.625,0.125,0.0
3.1649999999999547,-2.0,0.0,4.0,10.0,-8.0,-21.0,-10.0,-4.0,0.31976318359375,-0.50067138671875,0.61785888671875,-0.51507568359375,-0.12255859375,-0.95703125,0.296875,0.625,0.125,0.0
3.1699999999999546,-1.0,-1.0,-3.0,-20.0,-10.0,-17.0,-7.0,-4.0,0.31976318359375,-0.50067138671875,0.61785888671875,-0.51507568359375,-0.12255859375,-0.95703125,0.296875,0.625,0.125,0.0
3.1749999999999545,-1.0,-3.0,0.0,0.0,2.0,1.0,0.0,-1.0,0.31976318359375,-0.50067138671875,0.61785888671875,-0.51507568359375,-0.12841796875,-0.96533203125,0.29443359375,0.75,-0.125,-0.6875
3.1799999999999544,-1.0,-3.0,0.0,0.0,2.0,1.0,0.0,-1.0,0.31976318359375,-0.50067138671875,0.61785888671875,-0.51507568359375,-0.12841796875,-0.96533203125,0.29443359375,0.75,-0.125,-0.6875
3.1849999999999543,-1.0,-1.0,-5.0,-12.0,-12.0,-6.0,-4.0,-2.0,0.31976318359375,-0.50067138671875,0.61785888671875,-0.51507568359375,-0.12841796875,-0.96533203125,0.29443359375,0.75,-0.125,-0.6875
3.189999999999954,-1.0,-1.0,-5.0,-12.0,-12.0,-6.0,-4.0,-2.0,0.31976318359375,-0.50067138671875,0.61785888671875,-0.51507568359375,-0.12841796875,-0.96533203125,0.29443359375,0.75,-0.125,-0.6875
3.194999999999954,-1.0,-1.0,-5.0,-12.0,-12.0,-6.0,-4.0,-2.0,0.31976318359375,-0.50054931640625,0.61798095703125,-0.51507568359375,-0.12939453125,-0.9609375,0.2919921875,1.1875,-0.0625,-1.1875
3.199999999999954,-1.0,-1.0,-5.0,-12.0,-12.0,-6.0,-4.0,-2.0,0.31976318359375,-0.50054931640625,0.61798095703125,-0.51507568359375,-0.12939453125,-0.9609375,0.2919921875,1.1875,-0.0625,-1.1875
3.204999999999954,0.0,-2.0,-1.0,-5.0,-2.0,-12.0,-4.0,0.0,0.31976318359375,-0.50054931640625,0.61798095703125,-0.51507568359375,-0.12939453125,-0.9609375,0.2919921875,1.1875,-0.0625,-1.1875
3.209999999999954,0.0,-2.0,-4.0,1.0,9.0,26.0,7.0,-1.0,0.31976318359375,-0.50054931640625,0.61798095703125,-0.51507568359375,-0.12939453125,-0.9609375,0.2919921875,1.1875,-0.0625,-1.1875
3.2149999999999537,-1.0,-1.0,0.0,-14.0,-1.0,12.0,4.0,-1.0,0.3197021484375,-0.5003662109375,0.6181640625,-0.51507568359375,-0.1279296875,-0.95654296875,0.29052734375,1.75,-0.625,-1.125
3.2199999999999536,-1.0,-1.0,0.0,-14.0,-1.0,12.0,4.0,-1.0,0.3197021484375,-0.5003662109375,0.6181640625,-0.51507568359375,-0.1279296875,-0.95654296875,0.29052734375,1.75,-0.625,-1.125
3.2249999999999535,-1.0,-1.0,0.0,-14.0,-1.0,12.0,4.0,-1.0,0.3197021484375,-0.5003662109375,0.6181640625,-0.51507568359375,-0.1279296875,-0.95654296875,0.29052734375,1.75,-0.625,-1.125
3.2299999999999534,-1.0,0.0,0.0,5.0,-3.0,-10.0,-7.0,-3.0,0.3197021484375,-0.5003662109375,0.6181640625,-0.51507568359375,-0.1279296875,-0.95654296875,0.29052734375,1.75,-0.625,-1.125
3.2349999999999532,-3.0,-1.0,-2.0,0.0,-2.0,-13.0,-3.0,-4.0,0.3197021484375,-0.5003662109375,0.6181640625,-0.51507568359375,-0.1279296875,-0.95654296875,0.29052734375,1.75,-0.625,-1.125
3.239999999999953,0.0,0.0,3.0,10.0,5.0,7.0,2.0,0.0,0.31982421875,-0.5001220703125,0.6182861328125,-0.51513671875,-0.123046875,-0.96044921875,0.294921875,1.0625,-1.0625,-1.25
3.244999999999953,0.0,0.0,3.0,10.0,5.0,7.0,2.0,0.0,0.31982421875,-0.5001220703125,0.6182861328125,-0.51513671875,-0.123046875,-0.96044921875,0.294921875,1.0625,-1.0625,-1.25
3.249999999999953,0.0,0.0,3.0,10.0,5.0,7.0,2.0,0.0,0.31982421875,-0.5001220703125,0.6182861328125,-0.51513671875,-0.123046875,-0.96044921875,0.294921875,1.0625,-1.0625,-1.25
3.254999999999953,-3.0,-2.0,-1.0,2.0,-7.0,7.0,4.0,2.0,0.31982421875,-0.5001220703125,0.6182861328125,-0.51513671875,-0.123046875,-0.96044921875,0.294921875,1.0625,-1.0625,-1.25
3.2599999999999527,-3.0,-2.0,-1.0,2.0,-7.0,7.0,4.0,2.0,0.32025146484375,-0.50006103515625,0.61822509765625,-0.514892578125,-0.126953125,-0.978515625,0.29052734375,-0.5625,-1.0625,-2.0625
3.2649999999999526,-3.0,-2.0,-1.0,2.0,-7.0,7.0,4.0,2.0,0.32025146484375,-0.50006103515625,0.61822509765625,-0.514892578125,-0.126953125,-0.978515625,0.29052734375,-0.5625,-1.0625,-2.0625
3.2699999999999525,0.0,0.0,-1.0,-2.0,0.0,9.0,2.0,0.0,0.32025146484375,-0.50006103515625,0.61822509765625,-0.514892578125,-0.126953125,-0.978515625,0.29052734375,-0.5625,-1.0625,-2.0625
3.2749999999999524,0.0,0.0,-1.0,-2.0,0.0,9.0,2.0,0.0,0.32025146484375,-0.50006103515625,0.61822509765625,-0.514892578125,-0.126953125,-0.978515625,0.29052734375,-0.5625,-1.0625,-2.0625
3.2799999999999523,0.0,-1.0,-1.0,0.0,-6.0,-9.0,-3.0,-1.0,0.32049560546875,-0.4998779296875,0.618408203125,-0.51470947265625,-0.125,-0.97509765625,0.29248046875,0.6875,-0.9375,-2.5625
