0.005,-4.0,-4.0,0.0,-3.0,17.0,25.0,24.0,-8.0,-0.1640625,-0.62030029296875,0.72808837890625,0.2413330078125,0.033203125,-0.9638671875,0.1689453125,10.25,-1.8125,-6.375
0.01,-4.0,-4.0,0.0,-3.0,17.0,25.0,24.0,-8.0,-0.1640625,-0.62030029296875,0.72808837890625,0.2413330078125,0.033203125,-0.9638671875,0.1689453125,10.25,-1.8125,-6.375
0.015,-4.0,-4.0,0.0,-3.0,17.0,25.0,24.0,-8.0,-0.1640625,-0.62030029296875,0.72808837890625,0.2413330078125,0.033203125,-0.9638671875,0.1689453125,10.25,-1.8125,-6.375
0.02,1.0,-1.0,1.0,-18.0,7.0,-2.0,-16.0,0.0,-0.1640625,-0.62030029296875,0.72808837890625,0.2413330078125,0.033203125,-0.9638671875,0.1689453125,10.25,-1.8125,-6.375
0.025,1.0,-1.0,1.0,-18.0,7.0,-2.0,-16.0,0.0,-0.1630859375,-0.6195068359375,0.72857666015625,0.24237060546875,0.03857421875,-0.9638671875,0.16015625,8.4375,0.0625,-7.8125
0.030000000000000002,1.0,-1.0,1.0,-18.0,7.0,-2.0,-16.0,0.0,-0.1630859375,-0.6195068359375,0.72857666015625,0.24237060546875,0.03857421875,-0.9638671875,0.16015625,8.4375,0.0625,-7.8125
0.035,-1.0,-4.0,-5.0,-12.0,-10.0,-13.0,-10.0,-2.0,-0.1630859375,-0.6195068359375,0.72857666015625,0.24237060546875,0.03857421875,-0.9638671875,0.16015625,8.4375,0.0625,-7.8125
0.04,-1.0,-4.0,-5.0,-12.0,-10.0,-13.0,-10.0,-2.0,-0.1630859375,-0.6195068359375,0.72857666015625,0.24237060546875,0.03857421875,-0.9638671875,0.16015625,8.4375,0.0625,-7.8125
0.045,2.0,2.0,-3.0,-32.0,9.0,17.0,4.0,6.0,-0.1627197265625,-0.6192626953125,0.728515625,0.2435302734375,0.03759765625,-0.962890625,0.15966796875,3.25,2.75,-7.6875
0.049999999999999996,2.0,2.0,-3.0,-32.0,9.0,17.0,4.0,6.0,-0.1627197265625,-0.6192626953125,0.728515625,0.2435302734375,0.03759765625,-0.962890625,0.15966796875,3.25,2.75,-7.6875
0.05499999999999999,2.0,2.0,-3.0,-32.0,9.0,17.0,4.0,6.0,-0.1627197265625,-0.6192626953125,0.728515625,0.2435302734375,0.03759765625,-0.962890625,0.15966796875,3.25,2.75,-7.6875
0.05999999999999999,2.0,2.0,-3.0,-32.0,9.0,17.0,4.0,6.0,-0.1627197265625,-0.6192626953125,0.728515625,0.2435302734375,0.03759765625,-0.962890625,0.15966796875,3.25,2.75,-7.6875
0.06499999999999999,-1.0,-1.0,1.0,-2.0,14.0,6.0,2.0,-2.0,-0.1627197265625,-0.6192626953125,0.728515625,0.2435302734375,0.03759765625,-0.962890625,0.15966796875,3.25,2.75,-7.6875
0.06999999999999999,-1.0,1.0,3.0,20.0,-7.0,3.0,-5.0,-1.0,-0.1627197265625,-0.6192626953125,0.728515625,0.2435302734375,0.03759765625,-0.962890625,0.15966796875,3.25,2.75,-7.6875
0.075,-3.0,-7.0,-25.0,-41.0,-25.0,-33.0,-9.0,-3.0,-0.16278076171875,-0.619140625,0.728271484375,0.24456787109375,0.02978515625,-0.9814453125,0.15087890625,2.5625,3.9375,-7.0
0.08,-3.0,-7.0,-25.0,-41.0,-25.0,-33.0,-9.0,-3.0,-0.16278076171875,-0.619140625,0.728271484375,0.24456787109375,0.02978515625,-0.9814453125,0.15087890625,2.5625,3.9375,-7.0
0.085,-3.0,-7.0,-25.0,-41.0,-25.0,-33.0,-9.0,-3.0,-0.16278076171875,-0.619140625,0.728271484375,0.24456787109375,0.02978515625,-0.9814453125,0.15087890625,2.5625,3.9375,-7.0
0.09000000000000001,-3.0,-7.0,-25.0,-41.0,-25.0,-33.0,-9.0,-3.0,-0.16278076171875,-0.619140625,0.728271484375,0.24456787109375,0.02978515625,-0.9814453125,0.15087890625,2.5625,3.9375,-7.0
0.09500000000000001,-1.0,1.0,4.0,2.0,4.0,10.0,-5.0,1.0,-0.16278076171875,-0.619140625,0.728271484375,0.24456787109375,0.02978515625,-0.9814453125,0.15087890625,2.5625,3.9375,-7.0
0.10000000000000002,-1.0,1.0,4.0,2.0,4.0,10.0,-5.0,1.0,-0.16278076171875,-0.619140625,0.728271484375,0.24456787109375,0.02978515625,-0.9814453125,0.15087890625,2.5625,3.9375,-7.0
0.10500000000000002,-1.0,1.0,4.0,2.0,4.0,10.0,-5.0,1.0,-0.1629638671875,-0.619384765625,0.72772216796875,0.2454833984375,0.02685546875,-0.9921875,0.14453125,0.25,3.6875,-6.8125
0.11000000000000003,1.0,2.0,0.0,0.0,-11.0,-8.0,5.0,2.0,-0.1629638671875,-0.619384765625,0.72772216796875,0.2454833984375,0.02685546875,-0.9921875,0.14453125,0.25,3.6875,-6.8125
0.11500000000000003,1.0,2.0,0.0,0.0,-11.0,-8.0,5.0,2.0,-0.1629638671875,-0.619384765625,0.72772216796875,0.2454833984375,0.02685546875,-0.9921875,0.14453125,0.25,3.6875,-6.8125
0.12000000000000004,-2.0,-2.0,-2.0,-14.0,-14.0,-20.0,-7.0,-4.0,-0.1629638671875,-0.619384765625,0.72772216796875,0.2454833984375,0.02685546875,-0.9921875,0.14453125,0.25,3.6875,-6.8125
0.12500000000000003,-2.0,-2.0,-2.0,-14.0,-14.0,-20.0,-7.0,-4.0,-0.1627197265625,-0.619140625,0.7276611328125,0.2462158203125,0.033203125,-0.9912109375,0.1494140625,4.125,1.8125,-6.375
0.13000000000000003,-2.0,-2.0,-2.0,-14.0,-14.0,-20.0,-7.0,-4.0,-0.1627197265625,-0.619140625,0.7276611328125,0.2462158203125,0.033203125,-0.9912109375,0.1494140625,4.125,1.8125,-6.375
0.13500000000000004,-2.0,-2.0,-2.0,-14.0,-14.0,-20.0,-7.0,-4.0,-0.1627197265625,-0.619140625,0.7276611328125,0.2462158203125,0.033203125,-0.9912109375,0.1494140625,4.125,1.8125,-6.375
0.14000000000000004,-2.0,0.0,5.0,1.0,5.0,3.0,-4.0,-2.0,-0.1627197265625,-0.619140625,0.7276611328125,0.2462158203125,0.033203125,-0.9912109375,0.1494140625,4.125,1.8125,-6.375
0.14500000000000005,-2.0,0.0,5.0,1.0,5.0,3.0,-4.0,-2.0,-0.1627197265625,-0.619140625,0.7276611328125,0.2462158203125,0.033203125,-0.9912109375,0.1494140625,4.125,1.8125,-6.375
0.15000000000000005,-1.0,-1.0,3.0,17.0,-1.0,-1.0,-19.0,-2.0,-0.16253662109375,-0.6192626953125,0.72747802734375,0.2467041015625,0.04638671875,-1.0068359375,0.15478515625,1.3125,0.75,-4.875
0.15500000000000005,-1.0,-1.0,3.0,17.0,-1.0,-1.0,-19.0,-2.0,-0.16253662109375,-0.6192626953125,0.72747802734375,0.2467041015625,0.04638671875,-1.0068359375,0.15478515625,1.3125,0.75,-4.875
0.16000000000000006,-1.0,-1.0,3.0,17.0,-1.0,-1.0,-19.0,-2.0,-0.16253662109375,-0.6192626953125,0.72747802734375,0.2467041015625,0.04638671875,-1.0068359375,0.15478515625,1.3125,0.75,-4.875
0.16500000000000006,-1.0,-1.0,3.0,17.0,-1.0,-1.0,-19.0,-2.0,-0.16253662109375,-0.6192626953125,0.72747802734375,0.2467041015625,0.04638671875,-1.0068359375,0.15478515625,1.3125,0.75,-4.875
0.17000000000000007,0.0,0.0,3.0,4.0,-2.0,10.0,-17.0,-1.0,-0.16253662109375,-0.6192626953125,0.72747802734375,0.2467041015625,0.04638671875,-1.0068359375,0.15478515625,1.3125,0.75,-4.875
0.17500000000000007,0.0,0.0,3.0,4.0,-2.0,10.0,-17.0,-1.0,-0.16253662109375,-0.6192626953125,0.72747802734375,0.2467041015625,0.04638671875,-1.0068359375,0.15478515625,1.3125,0.75,-4.875
0.18000000000000008,0.0,0.0,3.0,4.0,-2.0,10.0,-17.0,-1.0,-0.162841796875,-0.61962890625,0.72698974609375,0.24700927734375,0.04736328125,-1.00927734375,0.1650390625,-2.0625,1.6875,-2.9375
0.18500000000000008,0.0,0.0,3.0,4.0,-2.0,10.0,-17.0,-1.0,-0.162841796875,-0.61962890625,0.72698974609375,0.24700927734375,0.04736328125,-1.00927734375,0.1650390625,-2.0625,1.6875,-2.9375
0.19000000000000009,0.0,-1.0,1.0,-9.0,1.0,-4.0,-4.0,0.0,-0.162841796875,-0.61962890625,0.72698974609375,0.24700927734375,0.04736328125,-1.00927734375,0.1650390625,-2.0625,1.6875,-2.9375
0.1950000000000001,0.0,-1.0,1.0,-9.0,1.0,-4.0,-4.0,0.0,-0.162841796875,-0.61962890625,0.72698974609375,0.24700927734375,0.04736328125,-1.00927734375,0.1650390625,-2.0625,1.6875,-2.9375
0.2000000000000001,-3.0,-4.0,-9.0,51.0,-6.0,-12.0,0.0,-4.0,-0.1634521484375,-0.62005615234375,0.7264404296875,0.24713134765625,0.044921875,-1.01708984375,0.17822265625,-3.875,2.625,-1.375
0.2050000000000001,-3.0,-4.0,-9.0,51.0,-6.0,-12.0,0.0,-4.0,-0.1634521484375,-0.62005615234375,0.7264404296875,0.24713134765625,0.044921875,-1.01708984375,0.17822265625,-3.875,2.625,-1.375
0.2100000000000001,-3.0,-4.0,-9.0,51.0,-6.0,-12.0,0.0,-4.0,-0.1634521484375,-0.62005615234375,0.7264404296875,0.24713134765625,0.044921875,-1.01708984375,0.17822265625,-3.875,2.625,-1.375
0.2150000000000001,-3.0,-4.0,-9.0,51.0,-6.0,-12.0,0.0,-4.0,-0.1634521484375,-0.62005615234375,0.7264404296875,0.24713134765625,0.044921875,-1.01708984375,0.17822265625,-3.875,2.625,-1.375
0.2200000000000001,0.0,0.0,2.0,-1.0,11.0,5.0,3.0,-3.0,-0.1634521484375,-0.62005615234375,0.7264404296875,0.24713134765625,0.044921875,-1.01708984375,0.17822265625,-3.875,2.625,-1.375
0.22500000000000012,0.0,0.0,2.0,-1.0,11.0,5.0,3.0,-3.0,-0.1634521484375,-0.62005615234375,0.7264404296875,0.24713134765625,0.044921875,-1.01708984375,0.17822265625,-3.875,2.625,-1.375
0.23000000000000012,-1.0,0.0,5.0,-5.0,2.0,0.0,10.0,1.0,-0.1640625,-0.620361328125,0.7261962890625,0.2467041015625,0.04150390625,-1.02978515625,0.18505859375,-3.375,0.6875,1.25
0.23500000000000013,-1.0,0.0,5.0,-5.0,2.0,0.0,10.0,1.0,-0.1640625,-0.620361328125,0.7261962890625,0.2467041015625,0.04150390625,-1.02978515625,0.18505859375,-3.375,0.6875,1.25
0.24000000000000013,-1.0,0.0,5.0,-5.0,2.0,0.0,10.0,1.0,-0.1640625,-0.620361328125,0.7261962890625,0.2467041015625,0.04150390625,-1.02978515625,0.18505859375,-3.375,0.6875,1.25
0.24500000000000013,-1.0,0.0,5.0,-5.0,2.0,0.0,10.0,1.0,-0.1640625,-0.620361328125,0.7261962890625,0.2467041015625,0.04150390625,-1.02978515625,0.18505859375,-3.375,0.6875,1.25
0.2500000000000001,-1.0,1.0,6.0,1.0,0.0,5.0,-7.0,3.0,-0.1640625,-0.620361328125,0.7261962890625,0.2467041015625,0.04150390625,-1.02978515625,0.18505859375,-3.375,0.6875,1.25
0.2550000000000001,-1.0,1.0,6.0,1.0,0.0,5.0,-7.0,3.0,-0.1640625,-0.620361328125,0.7261962890625,0.2467041015625,0.04150390625,-1.02978515625,0.18505859375,-3.375,0.6875,1.25
0.2600000000000001,-1.0,1.0,6.0,1.0,0.0,5.0,-7.0,3.0,-0.16436767578125,-0.6202392578125,0.7264404296875,0.24609375,0.0458984375,-1.013671875,0.1923828125,-0.5,-1.4375,2.4375
0.2650000000000001,-1.0,-1.0,-6.0,-22.0,-2.0,-16.0,-3.0,0.0,-0.16436767578125,-0.6202392578125,0.7264404296875,0.24609375,0.0458984375,-1.013671875,0.1923828125,-0.5,-1.4375,2.4375
0.27000000000000013,-1.0,-1.0,-6.0,-22.0,-2.0,-16.0,-3.0,0.0,-0.16436767578125,-0.6202392578125,0.7264404296875,0.24609375,0.0458984375,-1.013671875,0.1923828125,-0.5,-1.4375,2.4375
0.27500000000000013,0.0,0.0,-4.0,-23.0,-4.0,7.0,4.0,-2.0,-0.16436767578125,-0.6202392578125,0.7264404296875,0.24609375,0.0458984375,-1.013671875,0.1923828125,-0.5,-1.4375,2.4375
0.28000000000000014,0.0,0.0,-4.0,-23.0,-4.0,7.0,4.0,-2.0,-0.16455078125,-0.62017822265625,0.72674560546875,0.24517822265625,0.0546875,-1.00830078125,0.2001953125,-1.0625,-3.0625,4.1875
0.28500000000000014,0.0,0.0,-4.0,-23.0,-4.0,7.0,4.0,-2.0,-0.16455078125,-0.62017822265625,0.72674560546875,0.24517822265625,0.0546875,-1.00830078125,0.2001953125,-1.0625,-3.0625,4.1875
0.29000000000000015,0.0,0.0,-4.0,-23.0,-4.0,7.0,4.0,-2.0,-0.16455078125,-0.62017822265625,0.72674560546875,0.24517822265625,0.0546875,-1.00830078125,0.2001953125,-1.0625,-3.0625,4.1875
0.29500000000000015,-2.0,-1.0,4.0,18.0,-4.0,2.0,34.0,1.0,-0.16455078125,-0.62017822265625,0.72674560546875,0.24517822265625,0.0546875,-1.00830078125,0.2001953125,-1.0625,-3.0625,4.1875
0.30000000000000016,-2.0,-1.0,4.0,18.0,-4.0,2.0,34.0,1.0,-0.16455078125,-0.62017822265625,0.72674560546875,0.24517822265625,0.0546875,-1.00830078125,0.2001953125,-1.0625,-3.0625,4.1875
0.30500000000000016,-1.0,0.0,1.0,5.0,1.0,-4.0,-4.0,-3.0,-0.16455078125,-0.62017822265625,0.72674560546875,0.24517822265625,0.0546875,-1.00830078125,0.2001953125,-1.0625,-3.0625,4.1875
0.31000000000000016,-1.0,0.0,1.0,5.0,1.0,-4.0,-4.0,-3.0,-0.16473388671875,-0.620361328125,0.72698974609375,0.24383544921875,0.05517578125,-1.025390625,0.2041015625,-3.0,-4.625,5.4375
0.31500000000000017,-1.0,0.0,1.0,5.0,1.0,-4.0,-4.0,-3.0,-0.16473388671875,-0.620361328125,0.72698974609375,0.24383544921875,0.05517578125,-1.025390625,0.2041015625,-3.0,-4.625,5.4375
0.3200000000000002,1.0,6.0,16.0,-12.0,4.0,-6.0,-18.0,2.0,-0.16473388671875,-0.620361328125,0.72698974609375,0.24383544921875,0.05517578125,-1.025390625,0.2041015625,-3.0,-4.625,5.4375
0.3250000000000002,1.0,6.0,16.0,-12.0,4.0,-6.0,-18.0,2.0,-0.16473388671875,-0.620361328125,0.72698974609375,0.24383544921875,0.05517578125,-1.025390625,0.2041015625,-3.0,-4.625,5.4375
0.3300000000000002,1.0,6.0,16.0,-12.0,4.0,-6.0,-18.0,2.0,-0.16473388671875,-0.620361328125,0.72698974609375,0.24383544921875,0.05517578125,-1.025390625,0.2041015625,-3.0,-4.625,5.4375
0.3350000000000002,1.0,6.0,16.0,-12.0,4.0,-6.0,-18.0,2.0,-0.16473388671875,-0.620361328125,0.72698974609375,0.24383544921875,0.05517578125,-1.025390625,0.2041015625,-3.0,-4.625,5.4375
0.3400000000000002,-2.0,-4.0,-6.0,-22.0,-7.0,2.0,6.0,-1.0,-0.1650390625,-0.62042236328125,0.727294921875,0.24249267578125,0.05810546875,-1.0322265625,0.20166015625,-2.1875,-4.125,6.625
0.3450000000000002,-1.0,-3.0,-8.0,-12.0,3.0,8.0,-11.0,1.0,-0.1650390625,-0.62042236328125,0.727294921875,0.24249267578125,0.05810546875,-1.0322265625,0.20166015625,-2.1875,-4.125,6.625
0.3500000000000002,-1.0,-3.0,-8.0,-12.0,3.0,8.0,-11.0,1.0,-0.16510009765625,-0.61981201171875,0.72821044921875,0.2413330078125,0.052734375,-1.00146484375,0.21142578125,2.5625,-4.25,6.5
0.3550000000000002,-1.0,-3.0,-8.0,-12.0,3.0,8.0,-11.0,1.0,-0.16510009765625,-0.61981201171875,0.72821044921875,0.2413330078125,0.052734375,-1.00146484375,0.21142578125,2.5625,-4.25,6.5
0.3600000000000002,-1.0,-3.0,-8.0,-12.0,3.0,8.0,-11.0,1.0,-0.16510009765625,-0.61981201171875,0.72821044921875,0.2413330078125,0.052734375,-1.00146484375,0.21142578125,2.5625,-4.25,6.5
0.3650000000000002,-2.0,-4.0,-5.0,7.0,1.0,-3.0,-28.0,2.0,-0.16510009765625,-0.61981201171875,0.72821044921875,0.2413330078125,0.052734375,-1.00146484375,0.21142578125,2.5625,-4.25,6.5
0.3700000000000002,0.0,2.0,5.0,14.0,8.0,6.0,-6.0,1.0,-0.16510009765625,-0.61981201171875,0.72821044921875,0.2413330078125,0.052734375,-1.00146484375,0.21142578125,2.5625,-4.25,6.5
0.3750000000000002,0.0,2.0,5.0,14.0,8.0,6.0,-6.0,1.0,-0.16473388671875,-0.6187744140625,0.72955322265625,0.24017333984375,0.0615234375,-0.9697265625,0.205078125,6.3125,-5.4375,6.8125
0.3800000000000002,0.0,2.0,5.0,14.0,8.0,6.0,-6.0,1.0,-0.16473388671875,-0.6187744140625,0.72955322265625,0.24017333984375,0.0615234375,-0.9697265625,0.205078125,6.3125,-5.4375,6.8125
0.38500000000000023,-1.0,-1.0,1.0,21.0,0.0,-5.0,-6.0,-1.0,-0.16473388671875,-0.6187744140625,0.72955322265625,0.24017333984375,0.0615234375,-0.9697265625,0.205078125,6.3125,-5.4375,6.8125
0.39000000000000024,0.0,3.0,6.0,-23.0,-4.0,-4.0,1.0,-3.0,-0.16473388671875,-0.6187744140625,0.72955322265625,0.24017333984375,0.0615234375,-0.9697265625,0.205078125,6.3125,-5.4375,6.8125
0.39500000000000024,0.0,3.0,6.0,-23.0,-4.0,-4.0,1.0,-3.0,-0.16473388671875,-0.6187744140625,0.72955322265625,0.24017333984375,0.0615234375,-0.9697265625,0.205078125,6.3125,-5.4375,6.8125
0.40000000000000024,0.0,-1.0,6.0,32.0,3.0,-12.0,-2.0,-1.0,-0.16473388671875,-0.6181640625,0.73046875,0.23895263671875,0.068359375,-0.97314453125,0.19189453125,3.9375,-4.25,7.8125
0.40500000000000025,-4.0,-6.0,-19.0,-43.0,-8.0,10.0,22.0,1.0,-0.16473388671875,-0.6181640625,0.73046875,0.23895263671875,0.068359375,-0.97314453125,0.19189453125,3.9375,-4.25,7.8125
0.41000000000000025,-4.0,-6.0,-19.0,-43.0,-8.0,10.0,22.0,1.0,-0.16473388671875,-0.6181640625,0.73046875,0.23895263671875,0.068359375,-0.97314453125,0.19189453125,3.9375,-4.25,7.8125
0.41500000000000026,0.0,1.0,7.0,-12.0,0.0,1.0,-1.0,0.0,-0.1649169921875,-0.61785888671875,0.73101806640625,0.23797607421875,0.06689453125,-0.99658203125,0.18505859375,2.0,-2.4375,6.6875
0.42000000000000026,0.0,1.0,7.0,-12.0,0.0,1.0,-1.0,0.0,-0.1649169921875,-0.61785888671875,0.73101806640625,0.23797607421875,0.06689453125,-0.99658203125,0.18505859375,2.0,-2.4375,6.6875
0.42500000000000027,0.0,1.0,7.0,-12.0,0.0,1.0,-1.0,0.0,-0.1649169921875,-0.61785888671875,0.73101806640625,0.23797607421875,0.06689453125,-0.99658203125,0.18505859375,2.0,-2.4375,6.6875
0.43000000000000027,-1.0,-2.0,6.0,8.0,-2.0,-5.0,-15.0,1.0,-0.1649169921875,-0.61785888671875,0.73101806640625,0.23797607421875,0.06689453125,-0.99658203125,0.18505859375,2.0,-2.4375,6.6875
0.4350000000000003,-1.0,-2.0,6.0,8.0,-2.0,-5.0,-15.0,1.0,-0.1649169921875,-0.61785888671875,0.73101806640625,0.23797607421875,0.06689453125,-0.99658203125,0.18505859375,2.0,-2.4375,6.6875
0.4400000000000003,-1.0,-2.0,6.0,8.0,-2.0,-5.0,-15.0,1.0,-0.1649169921875,-0.61785888671875,0.73101806640625,0.23797607421875,0.06689453125,-0.99658203125,0.18505859375,2.0,-2.4375,6.6875
0.4450000000000003,-2.0,-2.0,-12.0,-87.0,-12.0,-2.0,-27.0,-1.0,-0.164794921875,-0.6171875,0.7318115234375,0.23736572265625,0.06640625,-0.98974609375,0.18359375,5.3125,-2.5625,5.0
0.4500000000000003,-2.0,-2.0,-12.0,-87.0,-12.0,-2.0,-27.0,-1.0,-0.164794921875,-0.6171875,0.7318115234375,0.23736572265625,0.06640625,-0.98974609375,0.18359375,5.3125,-2.5625,5.0
0.4550000000000003,0.0,2.0,-1.0,12.0,2.0,14.0,23.0,2.0,-0.164794921875,-0.6171875,0.7318115234375,0.23736572265625,0.06640625,-0.98974609375,0.18359375,5.3125,-2.5625,5.0
0.4600000000000003,0.0,2.0,-1.0,12.0,2.0,14.0,23.0,2.0,-0.164794921875,-0.6171875,0.7318115234375,0.23736572265625,0.06640625,-0.98974609375,0.18359375,5.3125,-2.5625,5.0
0.4650000000000003,0.0,2.0,-1.0,12.0,2.0,14.0,23.0,2.0,-0.164794921875,-0.6171875,0.7318115234375,0.23736572265625,0.06640625,-0.98974609375,0.18359375,5.3125,-2.5625,5.0
0.4700000000000003,0.0,2.0,-1.0,12.0,2.0,14.0,23.0,2.0,-0.164794921875,-0.6171875,0.7318115234375,0.23736572265625,0.06640625,-0.98974609375,0.18359375,5.3125,-2.5625,5.0
0.4750000000000003,-5.0,-6.0,-8.0,-6.0,-1.0,0.0,-4.0,-9.0,-0.16436767578125,-0.6163330078125,0.7327880859375,0.23687744140625,0.08349609375,-0.98828125,0.1865234375,7.25,-2.875,4.8125
0.4800000000000003,-1.0,1.0,-4.0,-11.0,-9.0,-16.0,-3.0,-1.0,-0.1641845703125,-0.61553955078125,0.733642578125,0.23651123046875,0.0712890625,-0.970703125,0.177734375,6.8125,-1.625,4.25
0.4850000000000003,-1.0,1.0,-4.0,-11.0,-9.0,-16.0,-3.0,-1.0,-0.1641845703125,-0.61553955078125,0.733642578125,0.23651123046875,0.0712890625,-0.970703125,0.177734375,6.8125,-1.625,4.25
0.4900000000000003,-1.0,1.0,-4.0,-11.0,-9.0,-16.0,-3.0,-1.0,-0.1641845703125,-0.61553955078125,0.733642578125,0.23651123046875,0.0712890625,-0.970703125,0.177734375,6.8125,-1.625,4.25
0.49500000000000033,-1.0,-2.0,-3.0,46.0,15.0,31.0,2.0,0.0,-0.1641845703125,-0.61553955078125,0.733642578125,0.23651123046875,0.0712890625,-0.970703125,0.177734375,6.8125,-1.625,4.25
0.5000000000000003,0.0,2.0,1.0,-28.0,-24.0,-14.0,-7.0,3.0,-0.1641845703125,-0.61553955078125,0.733642578125,0.23651123046875,0.0712890625,-0.970703125,0.177734375,6.8125,-1.625,4.25
0.5050000000000003,0.0,2.0,1.0,-28.0,-24.0,-14.0,-7.0,3.0,-0.16412353515625,-0.6148681640625,0.73431396484375,0.2362060546875,0.05615234375,-0.96044921875,0.17724609375,5.5,-0.6875,2.9375
0.5100000000000003,0.0,2.0,1.0,-28.0,-24.0,-14.0,-7.0,3.0,-0.16412353515625,-0.6148681640625,0.73431396484375,0.2362060546875,0.05615234375,-0.96044921875,0.17724609375,5.5,-0.6875,2.9375
0.5150000000000003,0.0,2.0,1.0,-28.0,-24.0,-14.0,-7.0,3.0,-0.16412353515625,-0.6148681640625,0.73431396484375,0.2362060546875,0.05615234375,-0.96044921875,0.17724609375,5.5,-0.6875,2.9375
0.5200000000000004,-1.0,-2.0,0.0,-5.0,-5.0,-1.0,-8.0,-2.0,-0.16412353515625,-0.6148681640625,0.73431396484375,0.2362060546875,0.05615234375,-0.96044921875,0.17724609375,5.5,-0.6875,2.9375
0.5250000000000004,0.0,-1.0,-6.0,-12.0,-4.0,2.0,-7.0,1.0,-0.16400146484375,-0.6143798828125,0.7347412109375,0.2362060546875,0.06396484375,-0.96875,0.181640625,3.9375,-0.25,1.75
0.5300000000000004,0.0,-1.0,-6.0,-12.0,-4.0,2.0,-7.0,1.0,-0.16400146484375,-0.6143798828125,0.7347412109375,0.2362060546875,0.06396484375,-0.96875,0.181640625,3.9375,-0.25,1.75
0.5350000000000004,0.0,-1.0,-6.0,-12.0,-4.0,2.0,-7.0,1.0,-0.16400146484375,-0.6143798828125,0.7347412109375,0.2362060546875,0.06396484375,-0.96875,0.181640625,3.9375,-0.25,1.75
0.5400000000000004,0.0,-1.0,-6.0,-12.0,-4.0,2.0,-7.0,1.0,-0.16400146484375,-0.6143798828125,0.7347412109375,0.2362060546875,0.06396484375,-0.96875,0.181640625,3.9375,-0.25,1.75
0.5450000000000004,0.0,-1.0,-6.0,-12.0,-4.0,2.0,-7.0,1.0,-0.16400146484375,-0.6143798828125,0.7347412109375,0.2362060546875,0.06396484375,-0.96875,0.181640625,3.9375,-0.25,1.75
0.5500000000000004,-8.0,-20.0,-65.0,-102.0,-32.0,-21.0,-15.0,-15.0,-0.16400146484375,-0.6143798828125,0.7347412109375,0.2362060546875,0.06396484375,-0.96875,0.181640625,3.9375,-0.25,1.75
0.5550000000000004,-2.0,-1.0,-4.0,7.0,3.0,13.0,14.0,1.0,-0.16400146484375,-0.6143798828125,0.7347412109375,0.2362060546875,0.06396484375,-0.96875,0.181640625,3.9375,-0.25,1.75
0.5600000000000004,1.0,3.0,2.0,-1.0,-2.0,-8.0,-4.0,2.0,-0.1640625,-0.61474609375,0.73443603515625,0.236083984375,0.05810546875,-0.9951171875,0.16845703125,-1.0625,-0.125,0.25
0.5650000000000004,1.0,3.0,2.0,-1.0,-2.0,-8.0,-4.0,2.0,-0.1640625,-0.61474609375,0.73443603515625,0.236083984375,0.05810546875,-0.9951171875,0.16845703125,-1.0625,-0.125,0.25
0.5700000000000004,-3.0,-11.0,-23.0,-47.0,-8.0,1.0,-9.0,-5.0,-0.16412353515625,-0.6151123046875,0.73419189453125,0.23602294921875,0.0517578125,-1.00048828125,0.17724609375,-1.5,-0.125,0.125
0.5750000000000004,-3.0,-11.0,-23.0,-47.0,-8.0,1.0,-9.0,-5.0,-0.16412353515625,-0.6151123046875,0.73419189453125,0.23602294921875,0.0517578125,-1.00048828125,0.17724609375,-1.5,-0.125,0.125
0.5800000000000004,2.0,3.0,-1.0,-40.0,-9.0,7.0,8.0,3.0,-0.16412353515625,-0.6151123046875,0.73419189453125,0.23602294921875,0.0517578125,-1.00048828125,0.17724609375,-1.5,-0.125,0.125
0.5850000000000004,2.0,3.0,-1.0,-40.0,-9.0,7.0,8.0,3.0,-0.16412353515625,-0.6151123046875,0.73419189453125,0.23602294921875,0.0517578125,-1.00048828125,0.17724609375,-1.5,-0.125,0.125
0.5900000000000004,2.0,4.0,9.0,22.0,22.0,4.0,-8.0,1.0,-0.16375732421875,-0.6151123046875,0.73431396484375,0.23577880859375,0.04345703125,-1.005859375,0.17138671875,2.4375,-2.8125,-0.625
0.5950000000000004,2.0,4.0,9.0,22.0,22.0,4.0,-8.0,1.0,-0.16375732421875,-0.6151123046875,0.73431396484375,0.23577880859375,0.04345703125,-1.005859375,0.17138671875,2.4375,-2.8125,-0.625
0.6000000000000004,2.0,4.0,9.0,22.0,22.0,4.0,-8.0,1.0,-0.16375732421875,-0.6151123046875,0.73431396484375,0.23577880859375,0.04345703125,-1.005859375,0.17138671875,2.4375,-2.8125,-0.625
0.6050000000000004,2.0,4.0,9.0,22.0,22.0,4.0,-8.0,1.0,-0.16375732421875,-0.6151123046875,0.73431396484375,0.23577880859375,0.04345703125,-1.005859375,0.17138671875,2.4375,-2.8125,-0.625
0.6100000000000004,-4.0,-6.0,-6.0,27.0,-5.0,18.0,-2.0,-6.0,-0.162841796875,-0.61480712890625,0.73480224609375,0.23553466796875,0.05859375,-0.97900390625,0.17138671875,5.0625,-4.3125,-0.625
0.6150000000000004,-4.0,-6.0,-6.0,27.0,-5.0,18.0,-2.0,-6.0,-0.162841796875,-0.61480712890625,0.73480224609375,0.23553466796875,0.05859375,-0.97900390625,0.17138671875,5.0625,-4.3125,-0.625
0.6200000000000004,-4.0,-6.0,-6.0,27.0,-5.0,18.0,-2.0,-6.0,-0.162841796875,-0.61480712890625,0.73480224609375,0.23553466796875,0.05859375,-0.97900390625,0.17138671875,5.0625,-4.3125,-0.625
0.6250000000000004,1.0,0.0,-4.0,-16.0,-2.0,-26.0,-24.0,-6.0,-0.162841796875,-0.61480712890625,0.73480224609375,0.23553466796875,0.05859375,-0.97900390625,0.17138671875,5.0625,-4.3125,-0.625
0.6300000000000004,1.0,0.0,-4.0,-16.0,-2.0,-26.0,-24.0,-6.0,-0.162841796875,-0.61480712890625,0.73480224609375,0.23553466796875,0.05859375,-0.97900390625,0.17138671875,5.0625,-4.3125,-0.625
0.6350000000000005,-1.0,-2.0,-4.0,-17.0,5.0,2.0,10.0,0.0,-0.162841796875,-0.61480712890625,0.73480224609375,0.23553466796875,0.05859375,-0.97900390625,0.17138671875,5.0625,-4.3125,-0.625
0.6400000000000005,-1.0,-2.0,-4.0,-17.0,5.0,2.0,10.0,0.0,-0.1622314453125,-0.61505126953125,0.73492431640625,0.235107421875,0.05517578125,-0.9755859375,0.17236328125,0.875,-4.25,-0.25
0.6450000000000005,-1.0,-2.0,-4.0,-17.0,5.0,2.0,10.0,0.0,-0.1622314453125,-0.61505126953125,0.73492431640625,0.235107421875,0.05517578125,-0.9755859375,0.17236328125,0.875,-4.25,-0.25
0.6500000000000005,-1.0,-2.0,-4.0,-17.0,5.0,2.0,10.0,0.0,-0.1622314453125,-0.61505126953125,0.73492431640625,0.235107421875,0.05517578125,-0.9755859375,0.17236328125,0.875,-4.25,-0.25
0.6550000000000005,1.0,3.0,12.0,44.0,8.0,4.0,13.0,3.0,-0.1622314453125,-0.61505126953125,0.73492431640625,0.235107421875,0.05517578125,-0.9755859375,0.17236328125,0.875,-4.25,-0.25
0.6600000000000005,1.0,3.0,12.0,44.0,8.0,4.0,13.0,3.0,-0.1622314453125,-0.61505126953125,0.73492431640625,0.235107421875,0.05517578125,-0.9755859375,0.17236328125,0.875,-4.25,-0.25
0.6650000000000005,1.0,-3.0,-1.0,-11.0,-8.0,-8.0,5.0,1.0,-0.1619873046875,-0.61553955078125,0.73468017578125,0.23468017578125,0.060546875,-0.9765625,0.18408203125,-2.5625,-3.0625,0.875
0.6700000000000005,1.0,-3.0,-1.0,-11.0,-8.0,-8.0,5.0,1.0,-0.1619873046875,-0.61553955078125,0.73468017578125,0.23468017578125,0.060546875,-0.9765625,0.18408203125,-2.5625,-3.0625,0.875
0.6750000000000005,1.0,-3.0,-1.0,-11.0,-8.0,-8.0,5.0,1.0,-0.1619873046875,-0.61553955078125,0.73468017578125,0.23468017578125,0.060546875,-0.9765625,0.18408203125,-2.5625,-3.0625,0.875
0.6800000000000005,1.0,-3.0,-1.0,-11.0,-8.0,-8.0,5.0,1.0,-0.1619873046875,-0.61553955078125,0.73468017578125,0.23468017578125,0.060546875,-0.9765625,0.18408203125,-2.5625,-3.0625,0.875
0.6850000000000005,-3.0,-1.0,2.0,30.0,-5.0,-1.0,1.0,-1.0,-0.1619873046875,-0.61553955078125,0.73468017578125,0.23468017578125,0.060546875,-0.9765625,0.18408203125,-2.5625,-3.0625,0.875
0.6900000000000005,-3.0,-1.0,2.0,30.0,-5.0,-1.0,1.0,-1.0,-0.16162109375,-0.6158447265625,0.73468017578125,0.23419189453125,0.05615234375,-0.99462890625,0.19775390625,-1.8125,-3.75,0.6875
0.6950000000000005,-3.0,-1.0,2.0,30.0,-5.0,-1.0,1.0,-1.0,-0.16162109375,-0.6158447265625,0.73468017578125,0.23419189453125,0.05615234375,-0.99462890625,0.19775390625,-1.8125,-3.75,0.6875
0.7000000000000005,-3.0,-1.0,2.0,30.0,-5.0,-1.0,1.0,-1.0,-0.16162109375,-0.6158447265625,0.73468017578125,0.23419189453125,0.05615234375,-0.99462890625,0.19775390625,-1.8125,-3.75,0.6875
0.7050000000000005,-2.0,-5.0,-13.0,-61.0,-4.0,4.0,-10.0,5.0,-0.16162109375,-0.6158447265625,0.73468017578125,0.23419189453125,0.05615234375,-0.99462890625,0.19775390625,-1.8125,-3.75,0.6875
0.7100000000000005,-2.0,-5.0,-13.0,-61.0,-4.0,4.0,-10.0,5.0,-0.16162109375,-0.6158447265625,0.73468017578125,0.23419189453125,0.05615234375,-0.99462890625,0.19775390625,-1.8125,-3.75,0.6875
0.7150000000000005,1.0,5.0,10.0,28.0,20.0,6.0,-9.0,0.0,-0.16131591796875,-0.6162109375,0.734619140625,0.233642578125,0.04931640625,-0.994140625,0.19140625,-2.0,-3.75,0.5625
0.7200000000000005,1.0,5.0,10.0,28.0,20.0,6.0,-9.0,0.0,-0.16131591796875,-0.6162109375,0.734619140625,0.233642578125,0.04931640625,-0.994140625,0.19140625,-2.0,-3.75,0.5625
0.7250000000000005,1.0,5.0,10.0,28.0,20.0,6.0,-9.0,0.0,-0.16131591796875,-0.6162109375,0.734619140625,0.233642578125,0.04931640625,-0.994140625,0.19140625,-2.0,-3.75,0.5625
0.7300000000000005,-4.0,-1.0,0.0,23.0,-8.0,-14.0,4.0,-3.0,-0.16131591796875,-0.6162109375,0.734619140625,0.233642578125,0.04931640625,-0.994140625,0.19140625,-2.0,-3.75,0.5625
0.7350000000000005,-4.0,-1.0,0.0,23.0,-8.0,-14.0,4.0,-3.0,-0.16131591796875,-0.6162109375,0.734619140625,0.233642578125,0.04931640625,-0.994140625,0.19140625,-2.0,-3.75,0.5625
0.7400000000000005,5.0,2.0,4.0,-3.0,10.0,6.0,12.0,2.0,-0.16058349609375,-0.61602783203125,0.735107421875,0.233154296875,0.0556640625,-0.96826171875,0.2119140625,1.5,-4.9375,0.4375
0.7450000000000006,5.0,2.0,4.0,-3.0,10.0,6.0,12.0,2.0,-0.16058349609375,-0.61602783203125,0.735107421875,0.233154296875,0.0556640625,-0.96826171875,0.2119140625,1.5,-4.9375,0.4375
0.7500000000000006,5.0,2.0,4.0,-3.0,10.0,6.0,12.0,2.0,-0.16058349609375,-0.61602783203125,0.735107421875,0.233154296875,0.0556640625,-0.96826171875,0.2119140625,1.5,-4.9375,0.4375
0.7550000000000006,5.0,2.0,4.0,-3.0,10.0,6.0,12.0,2.0,-0.16058349609375,-0.61602783203125,0.735107421875,0.233154296875,0.0556640625,-0.96826171875,0.2119140625,1.5,-4.9375,0.4375
0.7600000000000006,5.0,2.0,4.0,-3.0,10.0,6.0,12.0,2.0,-0.16058349609375,-0.61602783203125,0.735107421875,0.233154296875,0.0556640625,-0.96826171875,0.2119140625,1.5,-4.9375,0.4375
0.7650000000000006,2.0,3.0,11.0,31.0,9.0,13.0,15.0,0.0,-0.15972900390625,-0.61614990234375,0.73529052734375,0.2327880859375,0.060546875,-0.96826171875,0.20263671875,-0.1875,-5.125,-0.3125
0.7700000000000006,2.0,3.0,11.0,31.0,9.0,13.0,15.0,0.0,-0.15972900390625,-0.61614990234375,0.73529052734375,0.2327880859375,0.060546875,-0.96826171875,0.20263671875,-0.1875,-5.125,-0.3125
0.7750000000000006,2.0,3.0,11.0,31.0,9.0,13.0,15.0,0.0,-0.15972900390625,-0.61614990234375,0.73529052734375,0.2327880859375,0.060546875,-0.96826171875,0.20263671875,-0.1875,-5.125,-0.3125
0.7800000000000006,-1.0,3.0,8.0,24.0,3.0,-2.0,10.0,2.0,-0.15972900390625,-0.61614990234375,0.73529052734375,0.2327880859375,0.060546875,-0.96826171875,0.20263671875,-0.1875,-5.125,-0.3125
0.7850000000000006,-1.0,3.0,8.0,24.0,3.0,-2.0,10.0,2.0,-0.15972900390625,-0.61614990234375,0.73529052734375,0.2327880859375,0.060546875,-0.96826171875,0.20263671875,-0.1875,-5.125,-0.3125
0.7900000000000006,-2.0,-2.0,-18.0,-20.0,-10.0,-14.0,-6.0,-2.0,-0.15924072265625,-0.61651611328125,0.7352294921875,0.2322998046875,0.0556640625,-0.9814453125,0.197265625,-2.4375,-4.375,-0.1875
0.7950000000000006,-2.0,-2.0,-18.0,-20.0,-10.0,-14.0,-6.0,-2.0,-0.15924072265625,-0.61651611328125,0.7352294921875,0.2322998046875,0.0556640625,-0.9814453125,0.197265625,-2.4375,-4.375,-0.1875
0.8000000000000006,-2.0,-2.0,-18.0,-20.0,-10.0,-14.0,-6.0,-2.0,-0.15924072265625,-0.61651611328125,0.7352294921875,0.2322998046875,0.0556640625,-0.9814453125,0.197265625,-2.4375,-4.375,-0.1875
0.8050000000000006,-2.0,-2.0,-18.0,-20.0,-10.0,-14.0,-6.0,-2.0,-0.15924072265625,-0.61651611328125,0.7352294921875,0.2322998046875,0.0556640625,-0.9814453125,0.197265625,-2.4375,-4.375,-0.1875
0.8100000000000006,0.0,-1.0,6.0,28.0,15.0,25.0,8.0,5.0,-0.15924072265625,-0.61651611328125,0.7352294921875,0.2322998046875,0.0556640625,-0.9814453125,0.197265625,-2.4375,-4.375,-0.1875
0.8150000000000006,0.0,-1.0,6.0,28.0,15.0,25.0,8.0,5.0,-0.15924072265625,-0.61651611328125,0.7352294921875,0.2322998046875,0.0556640625,-0.9814453125,0.197265625,-2.4375,-4.375,-0.1875
0.8200000000000006,0.0,0.0,-11.0,-76.0,-19.0,-6.0,-8.0,-1.0,-0.1588134765625,-0.61700439453125,0.73504638671875,0.23193359375,0.04833984375,-1.00341796875,0.19677734375,-2.5,-3.75,-0.9375
0.8250000000000006,0.0,0.0,-11.0,-76.0,-19.0,-6.0,-8.0,-1.0,-0.1588134765625,-0.61700439453125,0.73504638671875,0.23193359375,0.04833984375,-1.00341796875,0.19677734375,-2.5,-3.75,-0.9375
0.8300000000000006,0.0,0.0,-11.0,-76.0,-19.0,-6.0,-8.0,-1.0,-0.1588134765625,-0.61700439453125,0.73504638671875,0.23193359375,0.04833984375,-1.00341796875,0.19677734375,-2.5,-3.75,-0.9375
0.8350000000000006,0.0,0.0,-11.0,-76.0,-19.0,-6.0,-8.0,-1.0,-0.1588134765625,-0.61700439453125,0.73504638671875,0.23193359375,0.04833984375,-1.00341796875,0.19677734375,-2.5,-3.75,-0.9375
0.8400000000000006,-3.0,-3.0,-3.0,7.0,-22.0,-12.0,21.0,0.0,-0.158203125,-0.61688232421875,0.7353515625,0.231689453125,0.04443359375,-0.9755859375,0.2001953125,1.0,-3.8125,-1.1875
0.8450000000000006,-3.0,-3.0,-3.0,7.0,-22.0,-12.0,21.0,0.0,-0.158203125,-0.61688232421875,0.7353515625,0.231689453125,0.04443359375,-0.9755859375,0.2001953125,1.0,-3.8125,-1.1875
0.8500000000000006,-3.0,-3.0,-3.0,7.0,-22.0,-12.0,21.0,0.0,-0.158203125,-0.61688232421875,0.7353515625,0.231689453125,0.04443359375,-0.9755859375,0.2001953125,1.0,-3.8125,-1.1875
0.8550000000000006,-3.0,-3.0,-3.0,7.0,-22.0,-12.0,21.0,0.0,-0.158203125,-0.61688232421875,0.7353515625,0.231689453125,0.04443359375,-0.9755859375,0.2001953125,1.0,-3.8125,-1.1875
0.8600000000000007,2.0,1.0,-6.0,8.0,3.0,-7.0,7.0,2.0,-0.158203125,-0.61688232421875,0.7353515625,0.231689453125,0.04443359375,-0.9755859375,0.2001953125,1.0,-3.8125,-1.1875
0.8650000000000007,2.0,1.0,-6.0,8.0,3.0,-7.0,7.0,2.0,-0.158203125,-0.61688232421875,0.7353515625,0.231689453125,0.04443359375,-0.9755859375,0.2001953125,1.0,-3.8125,-1.1875
0.8700000000000007,-3.0,-2.0,-1.0,41.0,6.0,-4.0,-6.0,-2.0,-0.15740966796875,-0.61688232421875,0.73565673828125,0.23126220703125,0.04345703125,-0.9716796875,0.19287109375,1.3125,-5.1875,-1.625
0.8750000000000007,-3.0,-2.0,-1.0,41.0,6.0,-4.0,-6.0,-2.0,-0.15740966796875,-0.61688232421875,0.73565673828125,0.23126220703125,0.04345703125,-0.9716796875,0.19287109375,1.3125,-5.1875,-1.625
0.8800000000000007,-3.0,-2.0,-1.0,41.0,6.0,-4.0,-6.0,-2.0,-0.15740966796875,-0.61688232421875,0.73565673828125,0.23126220703125,0.04345703125,-0.9716796875,0.19287109375,1.3125,-5.1875,-1.625
0.8850000000000007,-3.0,-2.0,-1.0,41.0,6.0,-4.0,-6.0,-2.0,-0.15740966796875,-0.61688232421875,0.73565673828125,0.23126220703125,0.04345703125,-0.9716796875,0.19287109375,1.3125,-5.1875,-1.625
0.8900000000000007,-3.0,0.0,10.0,28.0,13.0,7.0,-8.0,-4.0,-0.15740966796875,-0.61688232421875,0.73565673828125,0.23126220703125,0.04345703125,-0.9716796875,0.19287109375,1.3125,-5.1875,-1.625
0.8950000000000007,-3.0,-3.0,-3.0,-2.0,-4.0,-2.0,1.0,-6.0,-0.1566162109375,-0.61712646484375,0.73565673828125,0.2310791015625,0.0537109375,-0.9765625,0.19677734375,-0.5625,-4.3125,-2.125
0.9000000000000007,-3.0,-3.0,-3.0,-2.0,-4.0,-2.0,1.0,-6.0,-0.1566162109375,-0.61712646484375,0.73565673828125,0.2310791015625,0.0537109375,-0.9765625,0.19677734375,-0.5625,-4.3125,-2.125
0.9050000000000007,-3.0,-3.0,-3.0,-2.0,-4.0,-2.0,1.0,-6.0,-0.1566162109375,-0.61712646484375,0.73565673828125,0.2310791015625,0.0537109375,-0.9765625,0.19677734375,-0.5625,-4.3125,-2.125
0.9100000000000007,-2.0,-1.0,8.0,30.0,6.0,-25.0,-13.0,3.0,-0.1566162109375,-0.61712646484375,0.73565673828125,0.2310791015625,0.0537109375,-0.9765625,0.19677734375,-0.5625,-4.3125,-2.125
0.9150000000000007,-2.0,-1.0,8.0,30.0,6.0,-25.0,-13.0,3.0,-0.15594482421875,-0.61737060546875,0.73553466796875,0.2313232421875,0.0576171875,-0.97998046875,0.2021484375,-1.25,-2.1875,-3.4375
0.9200000000000007,-2.0,-1.0,8.0,30.0,6.0,-25.0,-13.0,3.0,-0.15594482421875,-0.61737060546875,0.73553466796875,0.2313232421875,0.0576171875,-0.97998046875,0.2021484375,-1.25,-2.1875,-3.4375
0.9250000000000007,0.0,-2.0,-3.0,-8.0,-6.0,1.0,37.0,-3.0,-0.15594482421875,-0.61737060546875,0.73553466796875,0.2313232421875,0.0576171875,-0.97998046875,0.2021484375,-1.25,-2.1875,-3.4375
0.9300000000000007,0.0,-2.0,-3.0,-8.0,-6.0,1.0,37.0,-3.0,-0.15594482421875,-0.61737060546875,0.73553466796875,0.2313232421875,0.0576171875,-0.97998046875,0.2021484375,-1.25,-2.1875,-3.4375
0.9350000000000007,-2.0,0.0,-3.0,-7.0,0.0,8.0,-15.0,-2.0,-0.15594482421875,-0.61737060546875,0.73553466796875,0.2313232421875,0.0576171875,-0.97998046875,0.2021484375,-1.25,-2.1875,-3.4375
0.9400000000000007,-1.0,0.0,5.0,6.0,0.0,8.0,13.0,-1.0,-0.15570068359375,-0.617919921875,0.73504638671875,0.23175048828125,0.0595703125,-1.0029296875,0.2021484375,-4.1875,-0.0625,-4.0625
0.9450000000000007,-1.0,0.0,5.0,6.0,0.0,8.0,13.0,-1.0,-0.15570068359375,-0.617919921875,0.73504638671875,0.23175048828125,0.0595703125,-1.0029296875,0.2021484375,-4.1875,-0.0625,-4.0625
0.9500000000000007,0.0,-2.0,7.0,16.0,-5.0,-9.0,-14.0,0.0,-0.15570068359375,-0.617919921875,0.73504638671875,0.23175048828125,0.0595703125,-1.0029296875,0.2021484375,-4.1875,-0.0625,-4.0625
0.9550000000000007,0.0,-2.0,7.0,16.0,-5.0,-9.0,-14.0,0.0,-0.15570068359375,-0.617919921875,0.73504638671875,0.23175048828125,0.0595703125,-1.0029296875,0.2021484375,-4.1875,-0.0625,-4.0625
0.9600000000000007,-4.0,-2.0,6.0,24.0,4.0,-2.0,-4.0,-4.0,-0.15570068359375,-0.617919921875,0.73504638671875,0.23175048828125,0.0595703125,-1.0029296875,0.2021484375,-4.1875,-0.0625,-4.0625
0.9650000000000007,-4.0,-2.0,6.0,24.0,4.0,-2.0,-4.0,-4.0,-0.1552734375,-0.6181640625,0.7347412109375,0.2322998046875,0.06005859375,-1.0126953125,0.20361328125,-1.75,0.125,-4.6875
0.9700000000000008,-4.0,-2.0,6.0,24.0,4.0,-2.0,-4.0,-4.0,-0.1552734375,-0.6181640625,0.7347412109375,0.2322998046875,0.06005859375,-1.0126953125,0.20361328125,-1.75,0.125,-4.6875
0.9750000000000008,-2.0,-1.0,1.0,13.0,-11.0,1.0,0.0,0.0,-0.1552734375,-0.6181640625,0.7347412109375,0.2322998046875,0.06005859375,-1.0126953125,0.20361328125,-1.75,0.125,-4.6875
0.9800000000000008,-2.0,-1.0,1.0,13.0,-11.0,1.0,0.0,0.0,-0.1552734375,-0.6181640625,0.7347412109375,0.2322998046875,0.06005859375,-1.0126953125,0.20361328125,-1.75,0.125,-4.6875
0.9850000000000008,2.0,1.0,4.0,-1.0,8.0,-13.0,-6.0,2.0,-0.1546630859375,-0.61810302734375,0.734619140625,0.23309326171875,0.06396484375,-1.00048828125,0.2041015625,0.3125,0.4375,-5.1875
0.9900000000000008,-2.0,0.0,-3.0,-25.0,-2.0,-2.0,-8.0,1.0,-0.1546630859375,-0.61810302734375,0.734619140625,0.23309326171875,0.06396484375,-1.00048828125,0.2041015625,0.3125,0.4375,-5.1875
0.9950000000000008,-2.0,-4.0,-10.0,2.0,2.0,9.0,6.0,-4.0,-0.1546630859375,-0.61810302734375,0.734619140625,0.23309326171875,0.06396484375,-1.00048828125,0.2041015625,0.3125,0.4375,-5.1875
1.0000000000000007,-2.0,-4.0,-10.0,2.0,2.0,9.0,6.0,-4.0,-0.15411376953125,-0.61822509765625,0.73443603515625,0.2337646484375,0.0634765625,-0.99755859375,0.2060546875,-1.0,0.0,-5.3125
1.0050000000000006,-2.0,-5.0,-24.0,-62.0,-16.0,2.0,-3.0,1.0,-0.15411376953125,-0.61822509765625,0.73443603515625,0.2337646484375,0.0634765625,-0.99755859375,0.2060546875,-1.0,0.0,-5.3125
1.0100000000000005,-2.0,-5.0,-24.0,-62.0,-16.0,2.0,-3.0,1.0,-0.15411376953125,-0.61822509765625,0.73443603515625,0.2337646484375,0.0634765625,-0.99755859375,0.2060546875,-1.0,0.0,-5.3125
1.0150000000000003,1.0,2.0,8.0,20.0,4.0,-11.0,-10.0,-1.0,-0.15411376953125,-0.61822509765625,0.73443603515625,0.2337646484375,0.0634765625,-0.99755859375,0.2060546875,-1.0,0.0,-5.3125
1.0200000000000002,1.0,2.0,8.0,20.0,4.0,-11.0,-10.0,-1.0,-0.15411376953125,-0.61822509765625,0.73443603515625,0.2337646484375,0.0634765625,-0.99755859375,0.2060546875,-1.0,0.0,-5.3125
1.0250000000000001,-2.0,-2.0,6.0,13.0,1.0,6.0,19.0,-1.0,-0.1536865234375,-0.6185302734375,0.734130859375,0.23419189453125,0.06494140625,-1.005859375,0.20458984375,-2.1875,-0.4375,-4.0625
1.03,-2.0,-2.0,6.0,13.0,1.0,6.0,19.0,-1.0,-0.1536865234375,-0.6185302734375,0.734130859375,0.23419189453125,0.06494140625,-1.005859375,0.20458984375,-2.1875,-0.4375,-4.0625
1.035,-2.0,-2.0,6.0,13.0,1.0,6.0,19.0,-1.0,-0.1536865234375,-0.6185302734375,0.734130859375,0.23419189453125,0.06494140625,-1.005859375,0.20458984375,-2.1875,-0.4375,-4.0625
1.0399999999999998,-2.0,-2.0,6.0,13.0,1.0,6.0,19.0,-1.0,-0.1536865234375,-0.6185302734375,0.734130859375,0.23419189453125,0.06494140625,-1.005859375,0.20458984375,-2.1875,-0.4375,-4.0625
1.0449999999999997,-3.0,-2.0,-6.0,-13.0,-4.0,-4.0,24.0,-2.0,-0.1536865234375,-0.6185302734375,0.734130859375,0.23419189453125,0.06494140625,-1.005859375,0.20458984375,-2.1875,-0.4375,-4.0625
1.0499999999999996,-3.0,-2.0,-6.0,-13.0,-4.0,-4.0,24.0,-2.0,-0.1536865234375,-0.6185302734375,0.734130859375,0.23419189453125,0.06494140625,-1.005859375,0.20458984375,-2.1875,-0.4375,-4.0625
1.0549999999999995,-3.0,-2.0,-6.0,-13.0,-4.0,-4.0,24.0,-2.0,-0.1536865234375,-0.6185302734375,0.734130859375,0.23419189453125,0.06494140625,-1.005859375,0.20458984375,-2.1875,-0.4375,-4.0625
1.0599999999999994,-2.0,-1.0,-4.0,-43.0,-9.0,4.0,1.0,-4.0,-0.1531982421875,-0.61834716796875,0.7342529296875,0.234619140625,0.0654296875,-0.99951171875,0.21142578125,0.8125,-0.5625,-3.25
1.0649999999999993,-2.0,-1.0,-4.0,-43.0,-9.0,4.0,1.0,-4.0,-0.15289306640625,-0.61822509765625,0.7342529296875,0.23504638671875,0.07275390625,-0.98779296875,0.1953125,1.0,0.375,-2.4375
1.0699999999999992,-2.0,-6.0,-12.0,-61.0,-12.0,-13.0,-12.0,-1.0,-0.15289306640625,-0.61822509765625,0.7342529296875,0.23504638671875,0.07275390625,-0.98779296875,0.1953125,1.0,0.375,-2.4375
1.074999999999999,-2.0,-6.0,-12.0,-61.0,-12.0,-13.0,-12.0,-1.0,-0.15289306640625,-0.61822509765625,0.7342529296875,0.23504638671875,0.07275390625,-0.98779296875,0.1953125,1.0,0.375,-2.4375
1.079999999999999,2.0,4.0,13.0,23.0,12.0,5.0,-13.0,0.0,-0.15289306640625,-0.61822509765625,0.7342529296875,0.23504638671875,0.07275390625,-0.98779296875,0.1953125,1.0,0.375,-2.4375
1.0849999999999989,2.0,4.0,13.0,23.0,12.0,5.0,-13.0,0.0,-0.15289306640625,-0.61822509765625,0.7342529296875,0.23504638671875,0.07275390625,-0.98779296875,0.1953125,1.0,0.375,-2.4375
1.0899999999999987,0.0,-2.0,-1.0,-5.0,-11.0,12.0,-5.0,-2.0,-0.15289306640625,-0.61822509765625,0.734130859375,0.235595703125,0.06982421875,-0.98876953125,0.19091796875,-0.125,2.0625,-2.4375
1.0949999999999986,0.0,-2.0,-1.0,-5.0,-11.0,12.0,-5.0,-2.0,-0.15289306640625,-0.61822509765625,0.734130859375,0.235595703125,0.06982421875,-0.98876953125,0.19091796875,-0.125,2.0625,-2.4375
1.0999999999999985,-2.0,-2.0,-2.0,1.0,-6.0,-26.0,-14.0,-1.0,-0.15289306640625,-0.61822509765625,0.734130859375,0.235595703125,0.06982421875,-0.98876953125,0.19091796875,-0.125,2.0625,-2.4375
1.1049999999999984,-2.0,-2.0,-2.0,1.0,-6.0,-26.0,-14.0,-1.0,-0.15289306640625,-0.61822509765625,0.734130859375,0.235595703125,0.06982421875,-0.98876953125,0.19091796875,-0.125,2.0625,-2.4375
1.1099999999999983,-2.0,-1.0,0.0,36.0,-2.0,0.0,-2.0,-4.0,-0.153076171875,-0.6182861328125,0.73388671875,0.236083984375,0.06494140625,-0.984375,0.18310546875,-0.4375,2.4375,-2.0
1.1149999999999982,-2.0,-1.0,0.0,36.0,-2.0,0.0,-2.0,-4.0,-0.153076171875,-0.6182861328125,0.73388671875,0.236083984375,0.06494140625,-0.984375,0.18310546875,-0.4375,2.4375,-2.0
1.119999999999998,-2.0,-2.0,-10.0,-1.0,-6.0,3.0,-16.0,-2.0,-0.153076171875,-0.6182861328125,0.73388671875,0.236083984375,0.06494140625,-0.984375,0.18310546875,-0.4375,2.4375,-2.0
1.124999999999998,-2.0,-2.0,-10.0,-1.0,-6.0,3.0,-16.0,-2.0,-0.153076171875,-0.6182861328125,0.73388671875,0.236083984375,0.06494140625,-0.984375,0.18310546875,-0.4375,2.4375,-2.0
1.129999999999998,-2.0,-2.0,-10.0,-1.0,-6.0,3.0,-16.0,-2.0,-0.1533203125,-0.6185302734375,0.7335205078125,0.236328125,0.06787109375,-0.9873046875,0.18212890625,-2.3125,1.9375,-1.0
1.1349999999999978,0.0,0.0,-5.0,-16.0,-6.0,0.0,-11.0,-2.0,-0.1533203125,-0.6185302734375,0.7335205078125,0.236328125,0.06787109375,-0.9873046875,0.18212890625,-2.3125,1.9375,-1.0
1.1399999999999977,0.0,0.0,-5.0,-16.0,-6.0,0.0,-11.0,-2.0,-0.1533203125,-0.6185302734375,0.7335205078125,0.236328125,0.06787109375,-0.9873046875,0.18212890625,-2.3125,1.9375,-1.0
1.1449999999999976,-5.0,-5.0,-3.0,-7.0,0.0,27.0,19.0,-3.0,-0.1533203125,-0.6185302734375,0.7335205078125,0.236328125,0.06787109375,-0.9873046875,0.18212890625,-2.3125,1.9375,-1.0
1.1499999999999975,0.0,-3.0,-2.0,0.0,-24.0,-27.0,-3.0,-1.0,-0.1533203125,-0.6185302734375,0.7335205078125,0.236328125,0.06787109375,-0.9873046875,0.18212890625,-2.3125,1.9375,-1.0
1.1549999999999974,0.0,-1.0,-6.0,6.0,-6.0,-4.0,-30.0,1.0,-0.153564453125,-0.6187744140625,0.733154296875,0.23663330078125,0.068359375,-0.990234375,0.17919921875,-1.6875,2.25,-1.125
1.1599999999999973,0.0,-1.0,-6.0,6.0,-6.0,-4.0,-30.0,1.0,-0.153564453125,-0.6187744140625,0.733154296875,0.23663330078125,0.068359375,-0.990234375,0.17919921875,-1.6875,2.25,-1.125
1.1649999999999971,0.0,-1.0,-6.0,6.0,-6.0,-4.0,-30.0,1.0,-0.153564453125,-0.6187744140625,0.733154296875,0.23663330078125,0.068359375,-0.990234375,0.17919921875,-1.6875,2.25,-1.125
1.169999999999997,0.0,-1.0,-6.0,6.0,-6.0,-4.0,-30.0,1.0,-0.153564453125,-0.6187744140625,0.733154296875,0.23663330078125,0.068359375,-0.990234375,0.17919921875,-1.6875,2.25,-1.125
1.174999999999997,1.0,-2.0,-11.0,-12.0,7.0,39.0,12.0,5.0,-0.153564453125,-0.6187744140625,0.733154296875,0.23663330078125,0.068359375,-0.990234375,0.17919921875,-1.6875,2.25,-1.125
1.1799999999999968,1.0,-2.0,-11.0,-12.0,7.0,39.0,12.0,5.0,-0.153564453125,-0.6187744140625,0.733154296875,0.23663330078125,0.068359375,-0.990234375,0.17919921875,-1.6875,2.25,-1.125
1.1849999999999967,-2.0,-3.0,2.0,-33.0,-5.0,-12.0,-24.0,-2.0,-0.15399169921875,-0.61895751953125,0.73272705078125,0.2371826171875,0.06591796875,-0.994140625,0.1884765625,-2.375,3.5625,-1.8125
1.1899999999999966,-2.0,-1.0,-1.0,-4.0,-2.0,-23.0,1.0,-2.0,-0.1541748046875,-0.61895751953125,0.73248291015625,0.23779296875,0.060546875,-1.00927734375,0.2001953125,-1.0625,3.0,-2.875
1.1949999999999965,-2.0,-1.0,-1.0,-4.0,-2.0,-23.0,1.0,-2.0,-0.1541748046875,-0.61895751953125,0.73248291015625,0.23779296875,0.060546875,-1.00927734375,0.2001953125,-1.0625,3.0,-2.875
1.1999999999999964,-2.0,-1.0,-1.0,-4.0,-2.0,-23.0,1.0,-2.0,-0.1541748046875,-0.61895751953125,0.73248291015625,0.23779296875,0.060546875,-1.00927734375,0.2001953125,-1.0625,3.0,-2.875
1.2049999999999963,-2.0,-1.0,-1.0,-4.0,-2.0,-23.0,1.0,-2.0,-0.1541748046875,-0.61895751953125,0.73248291015625,0.23779296875,0.060546875,-1.00927734375,0.2001953125,-1.0625,3.0,-2.875
1.2099999999999962,-4.0,-6.0,-2.0,13.0,0.0,2.0,-19.0,-1.0,-0.1541748046875,-0.61895751953125,0.73248291015625,0.23779296875,0.060546875,-1.00927734375,0.2001953125,-1.0625,3.0,-2.875
1.214999999999996,-4.0,-6.0,-2.0,13.0,0.0,2.0,-19.0,-1.0,-0.1541748046875,-0.61895751953125,0.73248291015625,0.23779296875,0.060546875,-1.00927734375,0.2001953125,-1.0625,3.0,-2.875
1.219999999999996,-2.0,-1.0,5.0,14.0,-2.0,8.0,2.0,0.0,-0.1536865234375,-0.6185302734375,0.7327880859375,0.2384033203125,0.056640625,-1.0048828125,0.205078125,3.1875,0.3125,-4.5
1.2249999999999959,-2.0,-1.0,5.0,14.0,-2.0,8.0,2.0,0.0,-0.1536865234375,-0.6185302734375,0.7327880859375,0.2384033203125,0.056640625,-1.0048828125,0.205078125,3.1875,0.3125,-4.5
1.2299999999999958,-2.0,-1.0,5.0,14.0,-2.0,8.0,2.0,0.0,-0.1536865234375,-0.6185302734375,0.7327880859375,0.2384033203125,0.056640625,-1.0048828125,0.205078125,3.1875,0.3125,-4.5
1.2349999999999957,-1.0,0.0,-1.0,-20.0,-10.0,-6.0,-7.0,-1.0,-0.1536865234375,-0.6185302734375,0.7327880859375,0.2384033203125,0.056640625,-1.0048828125,0.205078125,3.1875,0.3125,-4.5
1.2399999999999956,-1.0,0.0,-1.0,-20.0,-10.0,-6.0,-7.0,-1.0,-0.1536865234375,-0.6185302734375,0.7327880859375,0.2384033203125,0.056640625,-1.0048828125,0.205078125,3.1875,0.3125,-4.5
1.2449999999999954,-1.0,0.0,-1.0,-20.0,-10.0,-6.0,-7.0,-1.0,-0.15283203125,-0.61810302734375,0.733154296875,0.23895263671875,0.05517578125,-0.99072265625,0.20361328125,3.75,-1.625,-5.75
1.2499999999999953,-1.0,-1.0,1.0,-7.0,5.0,6.0,3.0,-3.0,-0.15283203125,-0.61810302734375,0.733154296875,0.23895263671875,0.05517578125,-0.99072265625,0.20361328125,3.75,-1.625,-5.75
1.2549999999999952,-2.0,-1.0,5.0,28.0,15.0,4.0,-4.0,-2.0,-0.15283203125,-0.61810302734375,0.733154296875,0.23895263671875,0.05517578125,-0.99072265625,0.20361328125,3.75,-1.625,-5.75
1.2599999999999951,-2.0,-1.0,5.0,28.0,15.0,4.0,-4.0,-2.0,-0.15283203125,-0.61810302734375,0.733154296875,0.23895263671875,0.05517578125,-0.99072265625,0.20361328125,3.75,-1.625,-5.75
1.264999999999995,-2.0,-1.0,5.0,28.0,15.0,4.0,-4.0,-2.0,-0.1517333984375,-0.61761474609375,0.73358154296875,0.23944091796875,0.0517578125,-0.9970703125,0.20654296875,4.6875,-2.9375,-6.4375
1.269999999999995,1.0,-1.0,-2.0,-27.0,-4.0,3.0,16.0,-2.0,-0.1517333984375,-0.61761474609375,0.73358154296875,0.23944091796875,0.0517578125,-0.9970703125,0.20654296875,4.6875,-2.9375,-6.4375
1.2749999999999948,1.0,-1.0,-2.0,-27.0,-4.0,3.0,16.0,-2.0,-0.1517333984375,-0.61761474609375,0.73358154296875,0.23944091796875,0.0517578125,-0.9970703125,0.20654296875,4.6875,-2.9375,-6.4375
1.2799999999999947,1.0,-1.0,-2.0,-27.0,-4.0,3.0,16.0,-2.0,-0.1517333984375,-0.61761474609375,0.73358154296875,0.23944091796875,0.0517578125,-0.9970703125,0.20654296875,4.6875,-2.9375,-6.4375
1.2849999999999946,0.0,-1.0,-3.0,-9.0,5.0,-11.0,-7.0,0.0,-0.1517333984375,-0.61761474609375,0.73358154296875,0.23944091796875,0.0517578125,-0.9970703125,0.20654296875,4.6875,-2.9375,-6.4375
1.2899999999999945,0.0,-1.0,-3.0,-9.0,5.0,-11.0,-7.0,0.0,-0.1517333984375,-0.61761474609375,0.73358154296875,0.23944091796875,0.0517578125,-0.9970703125,0.20654296875,4.6875,-2.9375,-6.4375
1.2949999999999944,0.0,-1.0,-1.0,-2.0,4.0,3.0,2.0,1.0,-0.1505126953125,-0.61737060546875,0.73394775390625,0.23980712890625,0.03564453125,-1.0029296875,0.197265625,4.3125,-4.5,-8.0625
1.2999999999999943,0.0,-1.0,-1.0,-2.0,4.0,3.0,2.0,1.0,-0.1505126953125,-0.61737060546875,0.73394775390625,0.23980712890625,0.03564453125,-1.0029296875,0.197265625,4.3125,-4.5,-8.0625
1.3049999999999942,0.0,-1.0,-1.0,-2.0,4.0,3.0,2.0,1.0,-0.1505126953125,-0.61737060546875,0.73394775390625,0.23980712890625,0.03564453125,-1.0029296875,0.197265625,4.3125,-4.5,-8.0625
1.309999999999994,0.0,-1.0,-1.0,-2.0,4.0,3.0,2.0,1.0,-0.1505126953125,-0.61737060546875,0.73394775390625,0.23980712890625,0.03564453125,-1.0029296875,0.197265625,4.3125,-4.5,-8.0625
1.314999999999994,-3.0,-2.0,-1.0,-3.0,-11.0,-24.0,-7.0,-3.0,-0.1505126953125,-0.61737060546875,0.73394775390625,0.23980712890625,0.03564453125,-1.0029296875,0.197265625,4.3125,-4.5,-8.0625
1.3199999999999938,-3.0,-2.0,-1.0,-3.0,-11.0,-24.0,-7.0,-3.0,-0.1505126953125,-0.61737060546875,0.73394775390625,0.23980712890625,0.03564453125,-1.0029296875,0.197265625,4.3125,-4.5,-8.0625
1.3249999999999937,1.0,3.0,7.0,3.0,11.0,-7.0,-2.0,0.0,-0.14923095703125,-0.61700439453125,0.7344970703125,0.239990234375,0.04443359375,-0.94580078125,0.2001953125,4.4375,-5.125,-6.3125
1.3299999999999936,1.0,3.0,7.0,3.0,11.0,-7.0,-2.0,0.0,-0.14923095703125,-0.61700439453125,0.7344970703125,0.239990234375,0.04443359375,-0.94580078125,0.2001953125,4.4375,-5.125,-6.3125
1.3349999999999935,-1.0,-1.0,4.0,13.0,12.0,15.0,5.0,-2.0,-0.14923095703125,-0.61700439453125,0.7344970703125,0.239990234375,0.04443359375,-0.94580078125,0.2001953125,4.4375,-5.125,-6.3125
1.3399999999999934,-1.0,-1.0,4.0,13.0,12.0,15.0,5.0,-2.0,-0.14923095703125,-0.61700439453125,0.7344970703125,0.239990234375,0.04443359375,-0.94580078125,0.2001953125,4.4375,-5.125,-6.3125
1.3449999999999933,0.0,-1.0,-2.0,-11.0,-10.0,-12.0,-8.0,1.0,-0.14801025390625,-0.61761474609375,0.73431396484375,0.23968505859375,0.0791015625,-0.96533203125,0.154296875,0.6875,-6.9375,-3.625
1.3499999999999932,0.0,-1.0,-2.0,-11.0,-10.0,-12.0,-8.0,1.0,-0.14801025390625,-0.61761474609375,0.73431396484375,0.23968505859375,0.0791015625,-0.96533203125,0.154296875,0.6875,-6.9375,-3.625
1.354999999999993,0.0,-1.0,-2.0,-11.0,-10.0,-12.0,-8.0,1.0,-0.14801025390625,-0.61761474609375,0.73431396484375,0.23968505859375,0.0791015625,-0.96533203125,0.154296875,0.6875,-6.9375,-3.625
1.359999999999993,-2.0,-4.0,-23.0,-41.0,4.0,7.0,-17.0,-1.0,-0.14801025390625,-0.61761474609375,0.73431396484375,0.23968505859375,0.0791015625,-0.96533203125,0.154296875,0.6875,-6.9375,-3.625
1.3649999999999929,-2.0,-4.0,-23.0,-41.0,4.0,7.0,-17.0,-1.0,-0.14801025390625,-0.61761474609375,0.73431396484375,0.23968505859375,0.0791015625,-0.96533203125,0.154296875,0.6875,-6.9375,-3.625
1.3699999999999928,-2.0,-4.0,-23.0,-41.0,4.0,7.0,-17.0,-1.0,-0.14801025390625,-0.61761474609375,0.73431396484375,0.23968505859375,0.0791015625,-0.96533203125,0.154296875,0.6875,-6.9375,-3.625
1.3749999999999927,-2.0,-3.0,-8.0,-35.0,-10.0,2.0,23.0,2.0,-0.14703369140625,-0.61907958984375,0.7333984375,0.23931884765625,0.12158203125,-0.99755859375,0.126953125,-3.875,-5.5625,-1.625
1.3799999999999926,-2.0,-3.0,-8.0,-35.0,-10.0,2.0,23.0,2.0,-0.14703369140625,-0.61907958984375,0.7333984375,0.23931884765625,0.12158203125,-0.99755859375,0.126953125,-3.875,-5.5625,-1.625
1.3849999999999925,-2.0,-3.0,-8.0,-35.0,-10.0,2.0,23.0,2.0,-0.14703369140625,-0.61907958984375,0.7333984375,0.23931884765625,0.12158203125,-0.99755859375,0.126953125,-3.875,-5.5625,-1.625
1.3899999999999924,2.0,0.0,-5.0,-31.0,-12.0,-13.0,1.0,3.0,-0.14703369140625,-0.61907958984375,0.7333984375,0.23931884765625,0.12158203125,-0.99755859375,0.126953125,-3.875,-5.5625,-1.625
1.3949999999999922,2.0,0.0,-5.0,-31.0,-12.0,-13.0,1.0,3.0,-0.14703369140625,-0.61907958984375,0.7333984375,0.23931884765625,0.12158203125,-0.99755859375,0.126953125,-3.875,-5.5625,-1.625
1.3999999999999921,2.0,0.0,-5.0,-31.0,-12.0,-13.0,1.0,3.0,-0.14654541015625,-0.62005615234375,0.73272705078125,0.2391357421875,0.10986328125,-0.9931640625,0.11962890625,-0.9375,-2.8125,-1.25
1.404999999999992,1.0,2.0,4.0,-6.0,7.0,9.0,5.0,0.0,-0.14654541015625,-0.62005615234375,0.73272705078125,0.2391357421875,0.10986328125,-0.9931640625,0.11962890625,-0.9375,-2.8125,-1.25
1.409999999999992,1.0,2.0,4.0,-6.0,7.0,9.0,5.0,0.0,-0.14654541015625,-0.62005615234375,0.73272705078125,0.2391357421875,0.10986328125,-0.9931640625,0.11962890625,-0.9375,-2.8125,-1.25
1.4149999999999918,1.0,2.0,4.0,-6.0,7.0,9.0,5.0,0.0,-0.14654541015625,-0.62005615234375,0.73272705078125,0.2391357421875,0.10986328125,-0.9931640625,0.11962890625,-0.9375,-2.8125,-1.25
1.4199999999999917,0.0,1.0,10.0,26.0,11.0,10.0,8.0,1.0,-0.14666748046875,-0.62109375,0.73175048828125,0.23919677734375,0.08447265625,-0.97216796875,0.134765625,-4.8125,0.375,-1.5
1.4249999999999916,-4.0,-1.0,2.0,55.0,1.0,2.0,-1.0,-2.0,-0.14666748046875,-0.62109375,0.73175048828125,0.23919677734375,0.08447265625,-0.97216796875,0.134765625,-4.8125,0.375,-1.5
1.4299999999999915,-4.0,-1.0,2.0,55.0,1.0,2.0,-1.0,-2.0,-0.14666748046875,-0.62109375,0.73175048828125,0.23919677734375,0.08447265625,-0.97216796875,0.134765625,-4.8125,0.375,-1.5
1.4349999999999914,-4.0,-1.0,2.0,55.0,1.0,2.0,-1.0,-2.0,-0.14666748046875,-0.62109375,0.73175048828125,0.23919677734375,0.08447265625,-0.97216796875,0.134765625,-4.8125,0.375,-1.5
1.4399999999999913,-3.0,-1.0,3.0,15.0,-16.0,-15.0,6.0,-2.0,-0.14666748046875,-0.62109375,0.73175048828125,0.23919677734375,0.08447265625,-0.97216796875,0.134765625,-4.8125,0.375,-1.5
1.4449999999999912,-3.0,-1.0,3.0,15.0,-16.0,-15.0,6.0,-2.0,-0.14666748046875,-0.62109375,0.73175048828125,0.23919677734375,0.08447265625,-0.97216796875,0.134765625,-4.8125,0.375,-1.5
1.449999999999991,-4.0,-6.0,-14.0,10.0,-9.0,-4.0,-20.0,-7.0,-0.14752197265625,-0.622314453125,0.73077392578125,0.23870849609375,0.06201171875,-1.0029296875,0.16455078125,-8.6875,1.0,1.125
1.454999999999991,-4.0,-6.0,-14.0,10.0,-9.0,-4.0,-20.0,-7.0,-0.14752197265625,-0.622314453125,0.73077392578125,0.23870849609375,0.06201171875,-1.0029296875,0.16455078125,-8.6875,1.0,1.125
1.4599999999999909,-4.0,-6.0,-14.0,10.0,-9.0,-4.0,-20.0,-7.0,-0.14752197265625,-0.622314453125,0.73077392578125,0.23870849609375,0.06201171875,-1.0029296875,0.16455078125,-8.6875,1.0,1.125
1.4649999999999908,0.0,-1.0,-1.0,-16.0,-12.0,-6.0,4.0,4.0,-0.14752197265625,-0.622314453125,0.73077392578125,0.23870849609375,0.06201171875,-1.0029296875,0.16455078125,-8.6875,1.0,1.125
1.4699999999999906,0.0,-1.0,-1.0,-16.0,-12.0,-6.0,4.0,4.0,-0.14752197265625,-0.622314453125,0.73077392578125,0.23870849609375,0.06201171875,-1.0029296875,0.16455078125,-8.6875,1.0,1.125
1.4749999999999905,0.0,-2.0,-6.0,9.0,4.0,19.0,-1.0,-4.0,-0.14837646484375,-0.62286376953125,0.730224609375,0.23828125,0.06884765625,-1.0048828125,0.18994140625,-6.125,1.4375,2.75
1.4799999999999904,-2.0,0.0,6.0,4.0,4.0,-4.0,-1.0,-7.0,-0.14837646484375,-0.62286376953125,0.730224609375,0.23828125,0.06884765625,-1.0048828125,0.18994140625,-6.125,1.4375,2.75
1.4849999999999903,-2.0,0.0,6.0,4.0,4.0,-4.0,-1.0,-7.0,-0.14837646484375,-0.62286376953125,0.730224609375,0.23828125,0.06884765625,-1.0048828125,0.18994140625,-6.125,1.4375,2.75
1.4899999999999902,0.0,1.0,6.0,30.0,4.0,-14.0,-12.0,-2.0,-0.14910888671875,-0.62335205078125,0.7298583984375,0.2376708984375,0.056640625,-0.986328125,0.212890625,-7.125,0.0,2.5
1.4949999999999901,0.0,1.0,6.0,30.0,4.0,-14.0,-12.0,-2.0,-0.14910888671875,-0.62335205078125,0.7298583984375,0.2376708984375,0.056640625,-0.986328125,0.212890625,-7.125,0.0,2.5
1.49999999999999,0.0,1.0,6.0,30.0,4.0,-14.0,-12.0,-2.0,-0.14910888671875,-0.62335205078125,0.7298583984375,0.2376708984375,0.056640625,-0.986328125,0.212890625,-7.125,0.0,2.5
1.50499999999999,-2.0,-3.0,-13.0,-68.0,-5.0,15.0,28.0,3.0,-0.14910888671875,-0.62335205078125,0.7298583984375,0.2376708984375,0.056640625,-0.986328125,0.212890625,-7.125,0.0,2.5
1.5099999999999898,0.0,-1.0,3.0,19.0,0.0,7.0,-13.0,4.0,-0.14910888671875,-0.62335205078125,0.7298583984375,0.2376708984375,0.056640625,-0.986328125,0.212890625,-7.125,0.0,2.5
1.5149999999999897,-2.0,1.0,3.0,-9.0,-5.0,-7.0,-22.0,-2.0,-0.1495361328125,-0.6239013671875,0.72955322265625,0.23687744140625,0.05419921875,-1.00048828125,0.224609375,-7.9375,-2.0,2.375
1.5199999999999896,-2.0,1.0,3.0,-9.0,-5.0,-7.0,-22.0,-2.0,-0.1495361328125,-0.6239013671875,0.72955322265625,0.23687744140625,0.05419921875,-1.00048828125,0.224609375,-7.9375,-2.0,2.375
1.5249999999999895,-2.0,1.0,3.0,-9.0,-5.0,-7.0,-22.0,-2.0,-0.1495361328125,-0.6239013671875,0.72955322265625,0.23687744140625,0.05419921875,-1.00048828125,0.224609375,-7.9375,-2.0,2.375
1.5299999999999894,-2.0,-7.0,-31.0,-63.0,-8.0,-1.0,-2.0,0.0,-0.1495361328125,-0.6239013671875,0.72955322265625,0.23687744140625,0.05419921875,-1.00048828125,0.224609375,-7.9375,-2.0,2.375
1.5349999999999893,-2.0,-7.0,-31.0,-63.0,-8.0,-1.0,-2.0,0.0,-0.1495361328125,-0.6239013671875,0.72979736328125,0.2362060546875,0.06005859375,-1.03515625,0.2373046875,-3.3125,-3.3125,1.6875
1.5399999999999892,-2.0,-3.0,-4.0,13.0,-11.0,-32.0,2.0,-1.0,-0.1495361328125,-0.6239013671875,0.72979736328125,0.2362060546875,0.06005859375,-1.03515625,0.2373046875,-3.3125,-3.3125,1.6875
1.544999999999989,1.0,2.0,8.0,11.0,13.0,5.0,-3.0,-1.0,-0.1495361328125,-0.6239013671875,0.72979736328125,0.2362060546875,0.06005859375,-1.03515625,0.2373046875,-3.3125,-3.3125,1.6875
1.549999999999989,1.0,2.0,8.0,11.0,13.0,5.0,-3.0,-1.0,-0.1495361328125,-0.6239013671875,0.72979736328125,0.2362060546875,0.06005859375,-1.03515625,0.2373046875,-3.3125,-3.3125,1.6875
1.5549999999999888,1.0,2.0,8.0,11.0,13.0,5.0,-3.0,-1.0,-0.1495361328125,-0.6239013671875,0.72979736328125,0.2362060546875,0.06005859375,-1.03515625,0.2373046875,-3.3125,-3.3125,1.6875
1.5599999999999887,-2.0,-1.0,7.0,12.0,9.0,10.0,4.0,-2.0,-0.14898681640625,-0.62310791015625,0.73077392578125,0.2357177734375,0.05908203125,-0.9990234375,0.2470703125,2.5625,-4.3125,0.8125
1.5649999999999886,-2.0,-1.0,7.0,12.0,9.0,10.0,4.0,-2.0,-0.14898681640625,-0.62310791015625,0.73077392578125,0.2357177734375,0.05908203125,-0.9990234375,0.2470703125,2.5625,-4.3125,0.8125
1.5699999999999885,0.0,-1.0,-3.0,16.0,-4.0,4.0,39.0,-2.0,-0.14898681640625,-0.62310791015625,0.73077392578125,0.2357177734375,0.05908203125,-0.9990234375,0.2470703125,2.5625,-4.3125,0.8125
1.5749999999999884,0.0,-1.0,-3.0,16.0,-4.0,4.0,39.0,-2.0,-0.14898681640625,-0.62310791015625,0.73077392578125,0.2357177734375,0.05908203125,-0.9990234375,0.2470703125,2.5625,-4.3125,0.8125
1.5799999999999883,-1.0,2.0,0.0,-25.0,6.0,1.0,36.0,1.0,-0.14794921875,-0.62225341796875,0.73199462890625,0.2347412109375,0.0966796875,-0.9697265625,0.23876953125,4.5,-7.875,3.9375
1.5849999999999882,-1.0,2.0,0.0,-25.0,6.0,1.0,36.0,1.0,-0.14794921875,-0.62225341796875,0.73199462890625,0.2347412109375,0.0966796875,-0.9697265625,0.23876953125,4.5,-7.875,3.9375
1.589999999999988,-1.0,2.0,0.0,-25.0,6.0,1.0,36.0,1.0,-0.14794921875,-0.62225341796875,0.73199462890625,0.2347412109375,0.0966796875,-0.9697265625,0.23876953125,4.5,-7.875,3.9375
1.594999999999988,0.0,2.0,9.0,12.0,4.0,4.0,1.0,0.0,-0.14794921875,-0.62225341796875,0.73199462890625,0.2347412109375,0.0966796875,-0.9697265625,0.23876953125,4.5,-7.875,3.9375
1.5999999999999879,0.0,2.0,9.0,12.0,4.0,4.0,1.0,0.0,-0.14794921875,-0.62225341796875,0.73199462890625,0.2347412109375,0.0966796875,-0.9697265625,0.23876953125,4.5,-7.875,3.9375
1.6049999999999878,1.0,-2.0,1.0,-41.0,-2.0,12.0,-2.0,1.0,-0.1473388671875,-0.62274169921875,0.7320556640625,0.23358154296875,0.130859375,-1.0048828125,0.18701171875,-2.375,-6.75,6.375
1.6099999999999877,1.0,-2.0,1.0,-41.0,-2.0,12.0,-2.0,1.0,-0.1473388671875,-0.62274169921875,0.7320556640625,0.23358154296875,0.130859375,-1.0048828125,0.18701171875,-2.375,-6.75,6.375
1.6149999999999876,1.0,-2.0,1.0,-41.0,-2.0,12.0,-2.0,1.0,-0.1473388671875,-0.62274169921875,0.7320556640625,0.23358154296875,0.130859375,-1.0048828125,0.18701171875,-2.375,-6.75,6.375
1.6199999999999875,1.0,-2.0,1.0,-41.0,-2.0,12.0,-2.0,1.0,-0.1473388671875,-0.62274169921875,0.7320556640625,0.23358154296875,0.130859375,-1.0048828125,0.18701171875,-2.375,-6.75,6.375
1.6249999999999873,-3.0,-3.0,6.0,0.0,3.0,-7.0,-9.0,-3.0,-0.14703369140625,-0.62286376953125,0.73223876953125,0.23284912109375,0.12939453125,-1.0390625,0.1650390625,2.0,-3.3125,5.375
1.6299999999999872,-1.0,-1.0,3.0,31.0,6.0,-5.0,-24.0,1.0,-0.14703369140625,-0.62286376953125,0.73223876953125,0.23284912109375,0.12939453125,-1.0390625,0.1650390625,2.0,-3.3125,5.375
1.6349999999999871,-4.0,-4.0,-16.0,2.0,3.0,-17.0,-37.0,-6.0,-0.14703369140625,-0.62286376953125,0.73223876953125,0.23284912109375,0.12939453125,-1.0390625,0.1650390625,2.0,-3.3125,5.375
1.639999999999987,-4.0,-4.0,-16.0,2.0,3.0,-17.0,-37.0,-6.0,-0.14703369140625,-0.62286376953125,0.73223876953125,0.23284912109375,0.12939453125,-1.0390625,0.1650390625,2.0,-3.3125,5.375
1.644999999999987,-4.0,-4.0,-16.0,2.0,3.0,-17.0,-37.0,-6.0,-0.14697265625,-0.6226806640625,0.7325439453125,0.23248291015625,0.0986328125,-1.00146484375,0.1708984375,2.5625,-1.25,3.5625
1.6499999999999868,-1.0,0.0,-2.0,-11.0,2.0,16.0,9.0,3.0,-0.14697265625,-0.6226806640625,0.7325439453125,0.23248291015625,0.0986328125,-1.00146484375,0.1708984375,2.5625,-1.25,3.5625
1.6549999999999867,-1.0,0.0,-2.0,-11.0,2.0,16.0,9.0,3.0,-0.14697265625,-0.6226806640625,0.7325439453125,0.23248291015625,0.0986328125,-1.00146484375,0.1708984375,2.5625,-1.25,3.5625
1.6599999999999866,-1.0,0.0,-2.0,-11.0,2.0,16.0,9.0,3.0,-0.14697265625,-0.6226806640625,0.7325439453125,0.23248291015625,0.0986328125,-1.00146484375,0.1708984375,2.5625,-1.25,3.5625
1.6649999999999865,-1.0,0.0,-1.0,-24.0,-3.0,-5.0,-5.0,-5.0,-0.14697265625,-0.6226806640625,0.7325439453125,0.23248291015625,0.0986328125,-1.00146484375,0.1708984375,2.5625,-1.25,3.5625
1.6699999999999864,-1.0,-2.0,-5.0,-19.0,-10.0,10.0,-4.0,-1.0,-0.147216796875,-0.62261962890625,0.732666015625,0.2320556640625,0.0751953125,-0.994140625,0.18603515625,-0.4375,-0.625,2.875
1.6749999999999863,-1.0,-2.0,-5.0,-19.0,-10.0,10.0,-4.0,-1.0,-0.147216796875,-0.62261962890625,0.732666015625,0.2320556640625,0.0751953125,-0.994140625,0.18603515625,-0.4375,-0.625,2.875
1.6799999999999862,-1.0,-2.0,-5.0,-19.0,-10.0,10.0,-4.0,-1.0,-0.147216796875,-0.62261962890625,0.732666015625,0.2320556640625,0.0751953125,-0.994140625,0.18603515625,-0.4375,-0.625,2.875
1.684999999999986,-1.0,-2.0,-5.0,-19.0,-10.0,10.0,-4.0,-1.0,-0.147216796875,-0.62261962890625,0.732666015625,0.2320556640625,0.0751953125,-0.994140625,0.18603515625,-0.4375,-0.625,2.875
1.689999999999986,-1.0,1.0,16.0,22.0,13.0,-6.0,-2.0,0.0,-0.147216796875,-0.62261962890625,0.732666015625,0.2320556640625,0.0751953125,-0.994140625,0.18603515625,-0.4375,-0.625,2.875
1.6949999999999859,-2.0,0.0,0.0,-29.0,14.0,13.0,16.0,3.0,-0.1474609375,-0.62274169921875,0.732666015625,0.2314453125,0.09228515625,-0.98876953125,0.1884765625,-1.8125,-1.125,4.5
1.6999999999999857,-2.0,0.0,0.0,-29.0,14.0,13.0,16.0,3.0,-0.1474609375,-0.62274169921875,0.732666015625,0.2314453125,0.09228515625,-0.98876953125,0.1884765625,-1.8125,-1.125,4.5
1.7049999999999856,-2.0,0.0,0.0,-29.0,14.0,13.0,16.0,3.0,-0.1474609375,-0.62274169921875,0.732666015625,0.2314453125,0.09228515625,-0.98876953125,0.1884765625,-1.8125,-1.125,4.5
1.7099999999999855,-1.0,0.0,6.0,9.0,-1.0,-3.0,0.0,-2.0,-0.1474609375,-0.62274169921875,0.732666015625,0.2314453125,0.09228515625,-0.98876953125,0.1884765625,-1.8125,-1.125,4.5
1.7149999999999854,-2.0,-3.0,-8.0,7.0,-4.0,10.0,-1.0,-4.0,-0.14776611328125,-0.623046875,0.73260498046875,0.23077392578125,0.09130859375,-0.97900390625,0.1826171875,-2.625,-1.375,4.9375
1.7199999999999853,-2.0,-3.0,-8.0,7.0,-4.0,10.0,-1.0,-4.0,-0.14776611328125,-0.623046875,0.73260498046875,0.23077392578125,0.09130859375,-0.97900390625,0.1826171875,-2.625,-1.375,4.9375
1.7249999999999852,-2.0,-3.0,-8.0,7.0,-4.0,10.0,-1.0,-4.0,-0.14776611328125,-0.623046875,0.73260498046875,0.23077392578125,0.09130859375,-0.97900390625,0.1826171875,-2.625,-1.375,4.9375
1.729999999999985,-2.0,-3.0,-8.0,7.0,-4.0,10.0,-1.0,-4.0,-0.14776611328125,-0.623046875,0.73260498046875,0.23077392578125,0.09130859375,-0.97900390625,0.1826171875,-2.625,-1.375,4.9375
1.734999999999985,-1.0,1.0,0.0,-7.0,-11.0,-10.0,5.0,-5.0,-0.14776611328125,-0.623046875,0.73260498046875,0.23077392578125,0.09130859375,-0.97900390625,0.1826171875,-2.625,-1.375,4.9375
1.739999999999985,1.0,2.0,-4.0,-7.0,-3.0,-12.0,1.0,0.0,-0.14776611328125,-0.62322998046875,0.732666015625,0.22998046875,0.07861328125,-0.9833984375,0.18115234375,-1.375,-3.0625,3.8125
1.7449999999999848,1.0,2.0,-4.0,-7.0,-3.0,-12.0,1.0,0.0,-0.14776611328125,-0.62322998046875,0.732666015625,0.22998046875,0.07861328125,-0.9833984375,0.18115234375,-1.375,-3.0625,3.8125
1.7499999999999847,1.0,2.0,-4.0,-7.0,-3.0,-12.0,1.0,0.0,-0.14776611328125,-0.62322998046875,0.732666015625,0.22998046875,0.07861328125,-0.9833984375,0.18115234375,-1.375,-3.0625,3.8125
1.7549999999999846,-1.0,0.0,14.0,29.0,27.0,13.0,2.0,-3.0,-0.14776611328125,-0.62322998046875,0.732666015625,0.22998046875,0.07861328125,-0.9833984375,0.18115234375,-1.375,-3.0625,3.8125
1.7599999999999845,0.0,2.0,-4.0,-4.0,12.0,0.0,-3.0,-1.0,-0.14764404296875,-0.62353515625,0.73272705078125,0.2291259765625,0.0810546875,-0.98388671875,0.16845703125,-0.875,-4.0,3.8125
1.7649999999999844,0.0,2.0,-4.0,-4.0,12.0,0.0,-3.0,-1.0,-0.14764404296875,-0.62353515625,0.73272705078125,0.2291259765625,0.0810546875,-0.98388671875,0.16845703125,-0.875,-4.0,3.8125
1.7699999999999843,0.0,2.0,-4.0,-4.0,12.0,0.0,-3.0,-1.0,-0.14764404296875,-0.62353515625,0.73272705078125,0.2291259765625,0.0810546875,-0.98388671875,0.16845703125,-0.875,-4.0,3.8125
1.7749999999999841,-2.0,0.0,9.0,10.0,-3.0,-4.0,-4.0,-1.0,-0.14739990234375,-0.6239013671875,0.7327880859375,0.22821044921875,0.0830078125,-0.98583984375,0.173828125,-1.5,-4.5625,3.5625
1.779999999999984,-2.0,1.0,1.0,1.0,8.0,14.0,8.0,1.0,-0.14739990234375,-0.6239013671875,0.7327880859375,0.22821044921875,0.0830078125,-0.98583984375,0.173828125,-1.5,-4.5625,3.5625
1.784999999999984,-2.0,1.0,1.0,1.0,8.0,14.0,8.0,1.0,-0.14739990234375,-0.6239013671875,0.7327880859375,0.22821044921875,0.0830078125,-0.98583984375,0.173828125,-1.5,-4.5625,3.5625
1.7899999999999838,-2.0,1.0,1.0,1.0,8.0,14.0,8.0,1.0,-0.14678955078125,-0.6241455078125,0.73291015625,0.22735595703125,0.09033203125,-0.98291015625,0.17333984375,-0.4375,-5.8125,2.9375
1.7949999999999837,1.0,-3.0,7.0,4.0,-6.0,-23.0,-14.0,-5.0,-0.14678955078125,-0.6241455078125,0.73291015625,0.22735595703125,0.09033203125,-0.98291015625,0.17333984375,-0.4375,-5.8125,2.9375
1.7999999999999836,1.0,-3.0,7.0,4.0,-6.0,-23.0,-14.0,-5.0,-0.14678955078125,-0.6241455078125,0.73291015625,0.22735595703125,0.09033203125,-0.98291015625,0.17333984375,-0.4375,-5.8125,2.9375
1.8049999999999835,1.0,-3.0,7.0,4.0,-6.0,-23.0,-14.0,-5.0,-0.14678955078125,-0.6241455078125,0.73291015625,0.22735595703125,0.09033203125,-0.98291015625,0.17333984375,-0.4375,-5.8125,2.9375
1.8099999999999834,-1.0,-9.0,-14.0,-11.0,-20.0,-16.0,3.0,-1.0,-0.146240234375,-0.62432861328125,0.73309326171875,0.22674560546875,0.09326171875,-0.9853515625,0.17041015625,0.75,-4.6875,2.3125
1.8149999999999833,0.0,0.0,1.0,43.0,4.0,21.0,33.0,0.0,-0.146240234375,-0.62432861328125,0.73309326171875,0.22674560546875,0.09326171875,-0.9853515625,0.17041015625,0.75,-4.6875,2.3125
1.8199999999999832,0.0,0.0,1.0,43.0,4.0,21.0,33.0,0.0,-0.146240234375,-0.62432861328125,0.73309326171875,0.22674560546875,0.09326171875,-0.9853515625,0.17041015625,0.75,-4.6875,2.3125
1.824999999999983,0.0,0.0,1.0,43.0,4.0,21.0,33.0,0.0,-0.146240234375,-0.62432861328125,0.73309326171875,0.22674560546875,0.09326171875,-0.9853515625,0.17041015625,0.75,-4.6875,2.3125
1.829999999999983,-4.0,-2.0,3.0,12.0,-6.0,-7.0,-4.0,-2.0,-0.146240234375,-0.62432861328125,0.73309326171875,0.22674560546875,0.09326171875,-0.9853515625,0.17041015625,0.75,-4.6875,2.3125
1.8349999999999829,-4.0,-2.0,3.0,12.0,-6.0,-7.0,-4.0,-2.0,-0.146240234375,-0.62432861328125,0.73309326171875,0.22674560546875,0.09326171875,-0.9853515625,0.17041015625,0.75,-4.6875,2.3125
1.8399999999999828,-1.0,-3.0,-6.0,-6.0,-9.0,6.0,-6.0,1.0,-0.14605712890625,-0.62457275390625,0.7330322265625,0.226318359375,0.0791015625,-0.982421875,0.17236328125,-1.0,-2.25,1.5
1.8449999999999827,-1.0,-3.0,-6.0,-6.0,-9.0,6.0,-6.0,1.0,-0.14605712890625,-0.62457275390625,0.7330322265625,0.226318359375,0.0791015625,-0.982421875,0.17236328125,-1.0,-2.25,1.5
1.8499999999999825,-1.0,-3.0,-6.0,-6.0,-9.0,6.0,-6.0,1.0,-0.14605712890625,-0.62457275390625,0.7330322265625,0.226318359375,0.0791015625,-0.982421875,0.17236328125,-1.0,-2.25,1.5
1.8549999999999824,1.0,5.0,15.0,-1.0,14.0,8.0,-1.0,0.0,-0.14605712890625,-0.62457275390625,0.7330322265625,0.226318359375,0.0791015625,-0.982421875,0.17236328125,-1.0,-2.25,1.5
1.8599999999999823,1.0,5.0,15.0,-1.0,14.0,8.0,-1.0,0.0,-0.14605712890625,-0.62457275390625,0.7330322265625,0.226318359375,0.0791015625,-0.982421875,0.17236328125,-1.0,-2.25,1.5
1.8649999999999822,1.0,5.0,15.0,-1.0,14.0,8.0,-1.0,0.0,-0.14605712890625,-0.62457275390625,0.7330322265625,0.226318359375,0.07275390625,-0.9931640625,0.1748046875,0.25,0.1875,0.375
1.8699999999999821,-3.0,0.0,8.0,16.0,8.0,2.0,-15.0,-8.0,-0.14605712890625,-0.62457275390625,0.7330322265625,0.226318359375,0.07275390625,-0.9931640625,0.1748046875,0.25,0.1875,0.375
1.874999999999982,-3.0,0.0,8.0,16.0,8.0,2.0,-15.0,-8.0,-0.14605712890625,-0.62457275390625,0.7330322265625,0.226318359375,0.07275390625,-0.9931640625,0.1748046875,0.25,0.1875,0.375
1.879999999999982,-3.0,0.0,8.0,16.0,8.0,2.0,-15.0,-8.0,-0.14605712890625,-0.62457275390625,0.7330322265625,0.226318359375,0.07275390625,-0.9931640625,0.1748046875,0.25,0.1875,0.375
1.8849999999999818,-1.0,0.0,4.0,3.0,-19.0,-16.0,0.0,-3.0,-0.14605712890625,-0.62457275390625,0.7330322265625,0.226318359375,0.07275390625,-0.9931640625,0.1748046875,0.25,0.1875,0.375
1.8899999999999817,-2.0,-4.0,-11.0,-21.0,-9.0,-7.0,5.0,2.0,-0.14605712890625,-0.62457275390625,0.7330322265625,0.226318359375,0.06005859375,-0.98828125,0.1806640625,-0.75,0.25,0.25
1.8949999999999816,-2.0,-4.0,-11.0,-21.0,-9.0,-7.0,5.0,2.0,-0.14605712890625,-0.62457275390625,0.7330322265625,0.226318359375,0.06005859375,-0.98828125,0.1806640625,-0.75,0.25,0.25
1.8999999999999815,-2.0,-4.0,-11.0,-21.0,-9.0,-7.0,5.0,2.0,-0.14605712890625,-0.62457275390625,0.7330322265625,0.226318359375,0.06005859375,-0.98828125,0.1806640625,-0.75,0.25,0.25
1.9049999999999814,-1.0,-1.0,0.0,12.0,9.0,-3.0,1.0,-2.0,-0.14605712890625,-0.62457275390625,0.7330322265625,0.226318359375,0.06005859375,-0.98828125,0.1806640625,-0.75,0.25,0.25
1.9099999999999813,-1.0,-1.0,0.0,12.0,9.0,-3.0,1.0,-2.0,-0.14605712890625,-0.62457275390625,0.7330322265625,0.226318359375,0.06005859375,-0.98828125,0.1806640625,-0.75,0.25,0.25
1.9149999999999812,0.0,-1.0,-1.0,-4.0,-12.0,0.0,-5.0,0.0,-0.14617919921875,-0.624755859375,0.73297119140625,0.22601318359375,0.07080078125,-0.994140625,0.18603515625,-2.0625,-0.875,1.375
1.919999999999981,0.0,-1.0,-1.0,-4.0,-12.0,0.0,-5.0,0.0,-0.14617919921875,-0.624755859375,0.73297119140625,0.22601318359375,0.07080078125,-0.994140625,0.18603515625,-2.0625,-0.875,1.375
1.924999999999981,0.0,-1.0,-1.0,-4.0,-12.0,0.0,-5.0,0.0,-0.14617919921875,-0.624755859375,0.73297119140625,0.22601318359375,0.07080078125,-0.994140625,0.18603515625,-2.0625,-0.875,1.375
1.9299999999999808,0.0,-1.0,-1.0,-4.0,-12.0,0.0,-5.0,0.0,-0.14617919921875,-0.624755859375,0.73297119140625,0.22601318359375,0.07080078125,-0.994140625,0.18603515625,-2.0625,-0.875,1.375
1.9349999999999807,1.0,1.0,3.0,14.0,8.0,1.0,-29.0,-3.0,-0.14617919921875,-0.624755859375,0.73297119140625,0.22601318359375,0.07080078125,-0.994140625,0.18603515625,-2.0625,-0.875,1.375
1.9399999999999806,1.0,1.0,3.0,14.0,8.0,1.0,-29.0,-3.0,-0.14617919921875,-0.624755859375,0.73297119140625,0.22601318359375,0.07080078125,-0.994140625,0.18603515625,-2.0625,-0.875,1.375
1.9449999999999805,-4.0,-4.0,-6.0,5.0,1.0,-8.0,-13.0,-3.0,-0.14642333984375,-0.62469482421875,0.73297119140625,0.2259521484375,0.07470703125,-1.00244140625,0.19091796875,-1.0,0.875,1.875
1.9499999999999804,-4.0,-4.0,-6.0,5.0,1.0,-8.0,-13.0,-3.0,-0.14642333984375,-0.62469482421875,0.73297119140625,0.2259521484375,0.07470703125,-1.00244140625,0.19091796875,-1.0,0.875,1.875
1.9549999999999803,-4.0,-4.0,-6.0,5.0,1.0,-8.0,-13.0,-3.0,-0.14642333984375,-0.62469482421875,0.73297119140625,0.2259521484375,0.07470703125,-1.00244140625,0.19091796875,-1.0,0.875,1.875
1.9599999999999802,-4.0,-4.0,-6.0,5.0,1.0,-8.0,-13.0,-3.0,-0.14642333984375,-0.62469482421875,0.73297119140625,0.2259521484375,0.07470703125,-1.00244140625,0.19091796875,-1.0,0.875,1.875
1.96499999999998,-2.0,-2.0,-3.0,5.0,-5.0,-1.0,-16.0,1.0,-0.14642333984375,-0.62469482421875,0.73297119140625,0.2259521484375,0.07470703125,-1.00244140625,0.19091796875,-1.0,0.875,1.875
1.96999999999998,0.0,-1.0,3.0,11.0,-9.0,-2.0,-2.0,-1.0,-0.147216796875,-0.62469482421875,0.73272705078125,0.22613525390625,0.076171875,-1.0009765625,0.1884765625,-2.25,4.1875,2.0625
1.9749999999999799,0.0,-1.0,3.0,11.0,-9.0,-2.0,-2.0,-1.0,-0.147216796875,-0.62469482421875,0.73272705078125,0.22613525390625,0.076171875,-1.0009765625,0.1884765625,-2.25,4.1875,2.0625
1.9799999999999798,0.0,-1.0,3.0,11.0,-9.0,-2.0,-2.0,-1.0,-0.147216796875,-0.62469482421875,0.73272705078125,0.22613525390625,0.076171875,-1.0009765625,0.1884765625,-2.25,4.1875,2.0625
1.9849999999999797,-2.0,-2.0,-15.0,-28.0,-11.0,2.0,11.0,2.0,-0.147216796875,-0.62469482421875,0.73272705078125,0.22613525390625,0.076171875,-1.0009765625,0.1884765625,-2.25,4.1875,2.0625
1.9899999999999796,-2.0,-2.0,-15.0,-28.0,-11.0,2.0,11.0,2.0,-0.147216796875,-0.62469482421875,0.73272705078125,0.22613525390625,0.076171875,-1.0009765625,0.1884765625,-2.25,4.1875,2.0625
1.9949999999999795,-3.0,-3.0,-3.0,-16.0,-1.0,-4.0,-3.0,1.0,-0.1483154296875,-0.62451171875,0.7325439453125,0.22662353515625,0.07080078125,-1.0087890625,0.1904296875,-1.8125,6.8125,1.9375
1.9999999999999793,-3.0,-3.0,-3.0,-16.0,-1.0,-4.0,-3.0,1.0,-0.1483154296875,-0.62451171875,0.7325439453125,0.22662353515625,0.07080078125,-1.0087890625,0.1904296875,-1.8125,6.8125,1.9375
2.0049999999999795,-3.0,-3.0,-3.0,-16.0,-1.0,-4.0,-3.0,1.0,-0.1483154296875,-0.62451171875,0.7325439453125,0.22662353515625,0.07080078125,-1.0087890625,0.1904296875,-1.8125,6.8125,1.9375
2.0099999999999794,-3.0,-3.0,-3.0,-16.0,-1.0,-4.0,-3.0,1.0,-0.1483154296875,-0.62451171875,0.7325439453125,0.22662353515625,0.07080078125,-1.0087890625,0.1904296875,-1.8125,6.8125,1.9375
2.0149999999999793,-3.0,-2.0,-4.0,4.0,-6.0,1.0,4.0,0.0,-0.1483154296875,-0.62451171875,0.7325439453125,0.22662353515625,0.07080078125,-1.0087890625,0.1904296875,-1.8125,6.8125,1.9375
2.019999999999979,-3.0,-2.0,-4.0,4.0,-6.0,1.0,4.0,0.0,-0.1483154296875,-0.62451171875,0.7325439453125,0.22662353515625,0.07080078125,-1.0087890625,0.1904296875,-1.8125,6.8125,1.9375
2.024999999999979,1.0,1.0,-4.0,-14.0,6.0,9.0,-1.0,0.0,-0.14947509765625,-0.6240234375,0.73248291015625,0.227294921875,0.05615234375,-1.001953125,0.19921875,-0.375,7.75,1.25
2.029999999999979,1.0,1.0,-4.0,-14.0,6.0,9.0,-1.0,0.0,-0.14947509765625,-0.6240234375,0.73248291015625,0.227294921875,0.05615234375,-1.001953125,0.19921875,-0.375,7.75,1.25
2.034999999999979,1.0,1.0,-4.0,-14.0,6.0,9.0,-1.0,0.0,-0.14947509765625,-0.6240234375,0.73248291015625,0.227294921875,0.05615234375,-1.001953125,0.19921875,-0.375,7.75,1.25
2.0399999999999787,1.0,1.0,-4.0,-14.0,6.0,9.0,-1.0,0.0,-0.14947509765625,-0.6240234375,0.73248291015625,0.227294921875,0.05615234375,-1.001953125,0.19921875,-0.375,7.75,1.25
2.0449999999999786,-2.0,-3.0,-2.0,-8.0,-8.0,-18.0,-7.0,-6.0,-0.150634765625,-0.6234130859375,0.732666015625,0.22772216796875,0.05126953125,-1.00048828125,0.1875,1.375,6.5625,2.0625
2.0499999999999785,-2.0,-3.0,-2.0,-8.0,-8.0,-18.0,-7.0,-6.0,-0.150634765625,-0.6234130859375,0.732666015625,0.22772216796875,0.05126953125,-1.00048828125,0.1875,1.375,6.5625,2.0625
2.0549999999999784,-1.0,2.0,15.0,18.0,11.0,1.0,-4.0,-2.0,-0.150634765625,-0.6234130859375,0.732666015625,0.22772216796875,0.05126953125,-1.00048828125,0.1875,1.375,6.5625,2.0625
2.0599999999999783,-1.0,2.0,15.0,18.0,11.0,1.0,-4.0,-2.0,-0.150634765625,-0.6234130859375,0.732666015625,0.22772216796875,0.05126953125,-1.00048828125,0.1875,1.375,6.5625,2.0625
2.064999999999978,-3.0,-1.0,-1.0,-10.0,-4.0,-9.0,7.0,-4.0,-0.1517333984375,-0.62310791015625,0.73272705078125,0.227783203125,0.0517578125,-0.99365234375,0.17138671875,0.75,5.0625,3.1875
2.069999999999978,-3.0,-1.0,-1.0,-10.0,-4.0,-9.0,7.0,-4.0,-0.1517333984375,-0.62310791015625,0.73272705078125,0.227783203125,0.0517578125,-0.99365234375,0.17138671875,0.75,5.0625,3.1875
2.074999999999978,1.0,-1.0,6.0,6.0,11.0,10.0,22.0,1.0,-0.1517333984375,-0.62310791015625,0.73272705078125,0.227783203125,0.0517578125,-0.99365234375,0.17138671875,0.75,5.0625,3.1875
2.079999999999978,1.0,-1.0,6.0,6.0,11.0,10.0,22.0,1.0,-0.1517333984375,-0.62310791015625,0.73272705078125,0.227783203125,0.0517578125,-0.99365234375,0.17138671875,0.75,5.0625,3.1875
2.0849999999999778,1.0,-1.0,6.0,6.0,11.0,10.0,22.0,1.0,-0.1517333984375,-0.62310791015625,0.73272705078125,0.227783203125,0.0517578125,-0.99365234375,0.17138671875,0.75,5.0625,3.1875
2.0899999999999777,-3.0,2.0,8.0,15.0,-2.0,-6.0,-7.0,2.0,-0.15283203125,-0.62286376953125,0.73260498046875,0.22784423828125,0.0390625,-1.0068359375,0.17041015625,-0.0625,4.875,2.25
2.0949999999999775,-3.0,2.0,8.0,15.0,-2.0,-6.0,-7.0,2.0,-0.15283203125,-0.62286376953125,0.73260498046875,0.22784423828125,0.0390625,-1.0068359375,0.17041015625,-0.0625,4.875,2.25
2.0999999999999774,0.0,-3.0,-11.0,-17.0,-13.0,0.0,5.0,-3.0,-0.15283203125,-0.62286376953125,0.73260498046875,0.22784423828125,0.0390625,-1.0068359375,0.17041015625,-0.0625,4.875,2.25
2.1049999999999773,-3.0,-3.0,2.0,10.0,-2.0,-4.0,1.0,-2.0,-0.153564453125,-0.6224365234375,0.73284912109375,0.22784423828125,0.03662109375,-1.0029296875,0.1630859375,2.9375,3.375,1.5
2.1099999999999772,-3.0,-3.0,2.0,10.0,-2.0,-4.0,1.0,-2.0,-0.153564453125,-0.6224365234375,0.73284912109375,0.22784423828125,0.03662109375,-1.0029296875,0.1630859375,2.9375,3.375,1.5
2.114999999999977,-2.0,-4.0,-19.0,-63.0,-21.0,-14.0,-9.0,-1.0,-0.153564453125,-0.6224365234375,0.73284912109375,0.22784423828125,0.03662109375,-1.0029296875,0.1630859375,2.9375,3.375,1.5
2.119999999999977,-1.0,-1.0,1.0,-12.0,4.0,-7.0,-1.0,0.0,-0.153564453125,-0.6224365234375,0.73284912109375,0.22784423828125,0.03662109375,-1.0029296875,0.1630859375,2.9375,3.375,1.5
2.124999999999977,0.0,0.0,-1.0,-5.0,6.0,3.0,2.0,1.0,-0.15399169921875,-0.6219482421875,0.73309326171875,0.22808837890625,0.04638671875,-0.98388671875,0.16015625,3.9375,3.0,0.5625
2.129999999999977,0.0,0.0,-1.0,-5.0,6.0,3.0,2.0,1.0,-0.15399169921875,-0.6219482421875,0.73309326171875,0.22808837890625,0.04638671875,-0.98388671875,0.16015625,3.9375,3.0,0.5625
2.1349999999999767,-2.0,-1.0,-2.0,-3.0,-12.0,2.0,39.0,-6.0,-0.15399169921875,-0.6219482421875,0.73309326171875,0.22808837890625,0.04638671875,-0.98388671875,0.16015625,3.9375,3.0,0.5625
2.1399999999999766,-2.0,-1.0,-2.0,-3.0,-12.0,2.0,39.0,-6.0,-0.15399169921875,-0.6219482421875,0.73309326171875,0.22808837890625,0.04638671875,-0.98388671875,0.16015625,3.9375,3.0,0.5625
2.1449999999999765,2.0,1.0,5.0,10.0,4.0,2.0,-5.0,3.0,-0.154541015625,-0.62152099609375,0.73321533203125,0.2283935546875,0.04931640625,-0.9794921875,0.15869140625,3.0,3.6875,0.4375
2.1499999999999764,2.0,1.0,5.0,10.0,4.0,2.0,-5.0,3.0,-0.154541015625,-0.62152099609375,0.73321533203125,0.2283935546875,0.04931640625,-0.9794921875,0.15869140625,3.0,3.6875,0.4375
2.1549999999999763,2.0,1.0,5.0,10.0,4.0,2.0,-5.0,3.0,-0.154541015625,-0.62152099609375,0.73321533203125,0.2283935546875,0.04931640625,-0.9794921875,0.15869140625,3.0,3.6875,0.4375
2.159999999999976,0.0,2.0,2.0,-45.0,-4.0,-2.0,-25.0,-2.0,-0.15545654296875,-0.62127685546875,0.73309326171875,0.22894287109375,0.0439453125,-0.98193359375,0.16064453125,1.25,6.3125,0.4375
2.164999999999976,-1.0,-2.0,-5.0,0.0,-4.0,-7.0,6.0,-2.0,-0.15545654296875,-0.62127685546875,0.73309326171875,0.22894287109375,0.0439453125,-0.98193359375,0.16064453125,1.25,6.3125,0.4375
2.169999999999976,-1.0,-1.0,-3.0,3.0,9.0,23.0,20.0,4.0,-0.15545654296875,-0.62127685546875,0.73309326171875,0.22894287109375,0.0439453125,-0.98193359375,0.16064453125,1.25,6.3125,0.4375
2.174999999999976,-1.0,-1.0,-3.0,3.0,9.0,23.0,20.0,4.0,-0.15545654296875,-0.62127685546875,0.73309326171875,0.22894287109375,0.0439453125,-0.98193359375,0.16064453125,1.25,6.3125,0.4375
2.1799999999999757,-1.0,-2.0,-3.0,-8.0,-1.0,-12.0,-13.0,-2.0,-0.15673828125,-0.62109375,0.7327880859375,0.22955322265625,0.03662109375,-0.9912109375,0.1552734375,0.0625,7.75,0.125
2.1849999999999756,-1.0,-2.0,-3.0,-8.0,-1.0,-12.0,-13.0,-2.0,-0.15673828125,-0.62109375,0.7327880859375,0.22955322265625,0.03662109375,-0.9912109375,0.1552734375,0.0625,7.75,0.125
2.1899999999999755,-1.0,-2.0,-3.0,-8.0,-1.0,-12.0,-13.0,-2.0,-0.15673828125,-0.62109375,0.7327880859375,0.22955322265625,0.03662109375,-0.9912109375,0.1552734375,0.0625,7.75,0.125
2.1949999999999754,-1.0,2.0,7.0,22.0,4.0,3.0,-3.0,-1.0,-0.15673828125,-0.62109375,0.7327880859375,0.22955322265625,0.03662109375,-0.9912109375,0.1552734375,0.0625,7.75,0.125
2.1999999999999753,-1.0,2.0,7.0,22.0,4.0,3.0,-3.0,-1.0,-0.15673828125,-0.62109375,0.7327880859375,0.22955322265625,0.03662109375,-0.9912109375,0.1552734375,0.0625,7.75,0.125
2.204999999999975,-1.0,-4.0,-12.0,-31.0,-9.0,15.0,-18.0,-4.0,-0.15777587890625,-0.620849609375,0.73260498046875,0.2301025390625,0.0341796875,-0.9951171875,0.16748046875,0.625,6.75,0.0625
2.209999999999975,-1.0,-4.0,-12.0,-31.0,-9.0,15.0,-18.0,-4.0,-0.15777587890625,-0.620849609375,0.73260498046875,0.2301025390625,0.0341796875,-0.9951171875,0.16748046875,0.625,6.75,0.0625
2.214999999999975,0.0,-1.0,-8.0,-22.0,-8.0,8.0,25.0,7.0,-0.15777587890625,-0.620849609375,0.73260498046875,0.2301025390625,0.0341796875,-0.9951171875,0.16748046875,0.625,6.75,0.0625
2.219999999999975,0.0,-1.0,-8.0,-22.0,-8.0,8.0,25.0,7.0,-0.15777587890625,-0.620849609375,0.73260498046875,0.2301025390625,0.0341796875,-0.9951171875,0.16748046875,0.625,6.75,0.0625
2.2249999999999748,0.0,-1.0,-8.0,-22.0,-8.0,8.0,25.0,7.0,-0.15777587890625,-0.620849609375,0.73260498046875,0.2301025390625,0.0341796875,-0.9951171875,0.16748046875,0.625,6.75,0.0625
2.2299999999999747,0.0,-1.0,-8.0,-22.0,-8.0,8.0,25.0,7.0,-0.15777587890625,-0.620849609375,0.73260498046875,0.2301025390625,0.0341796875,-0.9951171875,0.16748046875,0.625,6.75,0.0625
2.2349999999999746,-2.0,-3.0,-2.0,-1.0,-6.0,-16.0,-13.0,-2.0,-0.15875244140625,-0.62042236328125,0.7325439453125,0.23065185546875,0.0478515625,-0.990234375,0.17041015625,1.3125,6.5,0.8125
2.2399999999999745,-2.0,-3.0,-2.0,-1.0,-6.0,-16.0,-13.0,-2.0,-0.15997314453125,-0.620361328125,0.73223876953125,0.23101806640625,0.0419921875,-0.98681640625,0.173828125,-1.4375,6.5,1.6875
2.2449999999999743,1.0,-1.0,-2.0,-19.0,5.0,7.0,0.0,1.0,-0.15997314453125,-0.620361328125,0.73223876953125,0.23101806640625,0.0419921875,-0.98681640625,0.173828125,-1.4375,6.5,1.6875
2.2499999999999742,1.0,-1.0,-2.0,-19.0,5.0,7.0,0.0,1.0,-0.15997314453125,-0.620361328125,0.73223876953125,0.23101806640625,0.0419921875,-0.98681640625,0.173828125,-1.4375,6.5,1.6875
2.254999999999974,1.0,-1.0,-2.0,-19.0,5.0,7.0,0.0,1.0,-0.15997314453125,-0.620361328125,0.73223876953125,0.23101806640625,0.0419921875,-0.98681640625,0.173828125,-1.4375,6.5,1.6875
2.259999999999974,1.0,-1.0,-2.0,-19.0,5.0,7.0,0.0,1.0,-0.15997314453125,-0.620361328125,0.73223876953125,0.23101806640625,0.0419921875,-0.98681640625,0.173828125,-1.4375,6.5,1.6875
2.264999999999974,0.0,-2.0,-12.0,8.0,-3.0,-12.0,-11.0,-3.0,-0.15997314453125,-0.620361328125,0.73223876953125,0.23101806640625,0.0419921875,-0.98681640625,0.173828125,-1.4375,6.5,1.6875
2.269999999999974,-2.0,-1.0,-4.0,3.0,17.0,32.0,3.0,-1.0,-0.1610107421875,-0.6204833984375,0.7318115234375,0.2313232421875,0.05078125,-1.0166015625,0.177734375,-2.9375,5.625,1.5625
2.2749999999999737,-2.0,-1.0,-4.0,3.0,17.0,32.0,3.0,-1.0,-0.1610107421875,-0.6204833984375,0.7318115234375,0.2313232421875,0.05078125,-1.0166015625,0.177734375,-2.9375,5.625,1.5625
2.2799999999999736,-2.0,-1.0,-4.0,3.0,17.0,32.0,3.0,-1.0,-0.1610107421875,-0.6204833984375,0.7318115234375,0.2313232421875,0.05078125,-1.0166015625,0.177734375,-2.9375,5.625,1.5625
2.2849999999999735,-2.0,-1.0,-4.0,3.0,17.0,32.0,3.0,-1.0,-0.1610107421875,-0.6204833984375,0.7318115234375,0.2313232421875,0.05078125,-1.0166015625,0.177734375,-2.9375,5.625,1.5625
2.2899999999999734,0.0,-1.0,1.0,12.0,4.0,16.0,4.0,-2.0,-0.161865234375,-0.620361328125,0.73162841796875,0.23162841796875,0.046875,-1.0185546875,0.18359375,-1.25,5.125,1.125
2.2949999999999733,0.0,-1.0,1.0,12.0,4.0,16.0,4.0,-2.0,-0.161865234375,-0.620361328125,0.73162841796875,0.23162841796875,0.046875,-1.0185546875,0.18359375,-1.25,5.125,1.125
2.299999999999973,0.0,-1.0,1.0,12.0,4.0,16.0,4.0,-2.0,-0.161865234375,-0.620361328125,0.73162841796875,0.23162841796875,0.046875,-1.0185546875,0.18359375,-1.25,5.125,1.125
2.304999999999973,0.0,-1.0,5.0,27.0,1.0,12.0,-13.0,-2.0,-0.161865234375,-0.620361328125,0.73162841796875,0.23162841796875,0.046875,-1.0185546875,0.18359375,-1.25,5.125,1.125
2.309999999999973,0.0,-1.0,5.0,27.0,1.0,12.0,-13.0,-2.0,-0.161865234375,-0.620361328125,0.73162841796875,0.23162841796875,0.046875,-1.0185546875,0.18359375,-1.25,5.125,1.125
2.314999999999973,-2.0,-5.0,-3.0,-8.0,-7.0,-24.0,16.0,1.0,-0.162353515625,-0.6199951171875,0.73175048828125,0.23199462890625,0.0439453125,-1.00146484375,0.17822265625,2.125,3.5625,0.375
2.3199999999999728,-2.0,-5.0,-3.0,-8.0,-7.0,-24.0,16.0,1.0,-0.162353515625,-0.6199951171875,0.73175048828125,0.23199462890625,0.0439453125,-1.00146484375,0.17822265625,2.125,3.5625,0.375
2.3249999999999726,-2.0,-2.0,-5.0,-17.0,-13.0,-4.0,-9.0,-3.0,-0.162353515625,-0.6199951171875,0.73175048828125,0.23199462890625,0.0439453125,-1.00146484375,0.17822265625,2.125,3.5625,0.375
2.3299999999999725,-2.0,-2.0,-5.0,-17.0,-13.0,-4.0,-9.0,-3.0,-0.162353515625,-0.6199951171875,0.73175048828125,0.23199462890625,0.0439453125,-1.00146484375,0.17822265625,2.125,3.5625,0.375
2.3349999999999724,-2.0,1.0,-1.0,2.0,-5.0,-16.0,-21.0,-9.0,-0.16278076171875,-0.61968994140625,0.73187255859375,0.2320556640625,0.044921875,-0.98876953125,0.1865234375,0.4375,2.25,1.1875
2.3399999999999723,-2.0,1.0,-1.0,2.0,-5.0,-16.0,-21.0,-9.0,-0.16278076171875,-0.61968994140625,0.73187255859375,0.2320556640625,0.044921875,-0.98876953125,0.1865234375,0.4375,2.25,1.1875
2.344999999999972,-2.0,1.0,-1.0,2.0,-5.0,-16.0,-21.0,-9.0,-0.16278076171875,-0.61968994140625,0.73187255859375,0.2320556640625,0.044921875,-0.98876953125,0.1865234375,0.4375,2.25,1.1875
2.349999999999972,-4.0,-5.0,-6.0,5.0,-13.0,-9.0,-1.0,-6.0,-0.16278076171875,-0.61968994140625,0.73187255859375,0.2320556640625,0.044921875,-0.98876953125,0.1865234375,0.4375,2.25,1.1875
2.354999999999972,-1.0,-2.0,-4.0,4.0,0.0,2.0,-8.0,3.0,-0.16314697265625,-0.61962890625,0.73187255859375,0.23193359375,0.04296875,-0.9951171875,0.19091796875,-0.75,0.9375,1.5
2.359999999999972,-1.0,-2.0,-4.0,4.0,0.0,2.0,-8.0,3.0,-0.16314697265625,-0.61962890625,0.73187255859375,0.23193359375,0.04296875,-0.9951171875,0.19091796875,-0.75,0.9375,1.5
2.364999999999972,-1.0,-2.0,-4.0,4.0,0.0,2.0,-8.0,3.0,-0.16314697265625,-0.61962890625,0.73187255859375,0.23193359375,0.04296875,-0.9951171875,0.19091796875,-0.75,0.9375,1.5
2.3699999999999717,-1.0,0.0,1.0,-19.0,-10.0,-27.0,-8.0,-3.0,-0.16314697265625,-0.61962890625,0.73187255859375,0.23193359375,0.04296875,-0.9951171875,0.19091796875,-0.75,0.9375,1.5
2.3749999999999716,-1.0,0.0,1.0,-19.0,-10.0,-27.0,-8.0,-3.0,-0.16314697265625,-0.61962890625,0.73187255859375,0.23193359375,0.04296875,-0.9951171875,0.19091796875,-0.75,0.9375,1.5
2.3799999999999715,1.0,2.0,7.0,34.0,0.0,-5.0,-5.0,0.0,-0.16339111328125,-0.61932373046875,0.7320556640625,0.23199462890625,0.04541015625,-0.99365234375,0.19921875,0.25,1.375,0.8125
2.3849999999999714,1.0,2.0,7.0,34.0,0.0,-5.0,-5.0,0.0,-0.16339111328125,-0.61932373046875,0.7320556640625,0.23199462890625,0.04541015625,-0.99365234375,0.19921875,0.25,1.375,0.8125
2.3899999999999713,1.0,2.0,7.0,34.0,0.0,-5.0,-5.0,0.0,-0.16339111328125,-0.61932373046875,0.7320556640625,0.23199462890625,0.04541015625,-0.99365234375,0.19921875,0.25,1.375,0.8125
2.394999999999971,1.0,2.0,7.0,34.0,0.0,-5.0,-5.0,0.0,-0.16339111328125,-0.61932373046875,0.7320556640625,0.23199462890625,0.04541015625,-0.99365234375,0.19921875,0.25,1.375,0.8125
2.399999999999971,-2.0,0.0,-6.0,-13.0,7.0,18.0,1.0,1.0,-0.16339111328125,-0.61932373046875,0.7320556640625,0.23199462890625,0.04541015625,-0.99365234375,0.19921875,0.25,1.375,0.8125
2.404999999999971,-2.0,0.0,-6.0,-13.0,7.0,18.0,1.0,1.0,-0.16339111328125,-0.61932373046875,0.7320556640625,0.23199462890625,0.04541015625,-0.99365234375,0.19921875,0.25,1.375,0.8125
2.409999999999971,-2.0,0.0,-6.0,-13.0,7.0,18.0,1.0,1.0,-0.163330078125,-0.6187744140625,0.7325439453125,0.23193359375,0.0419921875,-0.97802734375,0.2001953125,2.5625,-0.3125,0.6875
2.4149999999999707,1.0,-1.0,0.0,18.0,-8.0,-7.0,5.0,1.0,-0.163330078125,-0.6187744140625,0.7325439453125,0.23193359375,0.0419921875,-0.97802734375,0.2001953125,2.5625,-0.3125,0.6875
2.4199999999999706,1.0,-1.0,0.0,18.0,-8.0,-7.0,5.0,1.0,-0.163330078125,-0.6187744140625,0.7325439453125,0.23193359375,0.0419921875,-0.97802734375,0.2001953125,2.5625,-0.3125,0.6875
2.4249999999999705,1.0,-1.0,0.0,18.0,-8.0,-7.0,5.0,1.0,-0.163330078125,-0.6187744140625,0.7325439453125,0.23193359375,0.0419921875,-0.97802734375,0.2001953125,2.5625,-0.3125,0.6875
2.4299999999999704,1.0,-1.0,0.0,18.0,-8.0,-7.0,5.0,1.0,-0.163330078125,-0.6187744140625,0.7325439453125,0.23193359375,0.0419921875,-0.97802734375,0.2001953125,2.5625,-0.3125,0.6875
2.4349999999999703,-3.0,-2.0,-1.0,-5.0,3.0,1.0,3.0,-1.0,-0.162841796875,-0.6182861328125,0.733154296875,0.23175048828125,0.05224609375,-0.96923828125,0.1982421875,3.4375,-2.5,0.6875
2.43999999999997,-3.0,-2.0,-1.0,-5.0,3.0,1.0,3.0,-1.0,-0.162841796875,-0.6182861328125,0.733154296875,0.23175048828125,0.05224609375,-0.96923828125,0.1982421875,3.4375,-2.5,0.6875
2.44499999999997,-3.0,-2.0,-1.0,-5.0,3.0,1.0,3.0,-1.0,-0.162841796875,-0.6182861328125,0.733154296875,0.23175048828125,0.05224609375,-0.96923828125,0.1982421875,3.4375,-2.5,0.6875
2.44999999999997,-1.0,-2.0,2.0,5.0,2.0,5.0,-5.0,-3.0,-0.162841796875,-0.6182861328125,0.733154296875,0.23175048828125,0.05224609375,-0.96923828125,0.1982421875,3.4375,-2.5,0.6875
2.45499999999997,-1.0,-2.0,2.0,5.0,2.0,5.0,-5.0,-3.0,-0.162841796875,-0.6182861328125,0.733154296875,0.23175048828125,0.05224609375,-0.96923828125,0.1982421875,3.4375,-2.5,0.6875
2.4599999999999698,-1.0,-1.0,7.0,32.0,1.0,-11.0,-3.0,-1.0,-0.16241455078125,-0.6180419921875,0.7335205078125,0.2314453125,0.044921875,-0.9755859375,0.177734375,2.875,-3.125,0.3125
2.4649999999999697,-1.0,-1.0,7.0,32.0,1.0,-11.0,-3.0,-1.0,-0.16241455078125,-0.6180419921875,0.7335205078125,0.2314453125,0.044921875,-0.9755859375,0.177734375,2.875,-3.125,0.3125
2.4699999999999696,-1.0,-1.0,7.0,32.0,1.0,-11.0,-3.0,-1.0,-0.16241455078125,-0.6180419921875,0.7335205078125,0.2314453125,0.044921875,-0.9755859375,0.177734375,2.875,-3.125,0.3125
2.4749999999999694,-1.0,-1.0,7.0,32.0,1.0,-11.0,-3.0,-1.0,-0.16241455078125,-0.6180419921875,0.7335205078125,0.2314453125,0.044921875,-0.9755859375,0.177734375,2.875,-3.125,0.3125
2.4799999999999693,0.0,0.0,-3.0,15.0,6.0,-2.0,1.0,1.0,-0.16241455078125,-0.6180419921875,0.7335205078125,0.2314453125,0.044921875,-0.9755859375,0.177734375,2.875,-3.125,0.3125
2.4849999999999692,0.0,0.0,-3.0,15.0,6.0,-2.0,1.0,1.0,-0.16241455078125,-0.6180419921875,0.7335205078125,0.2314453125,0.044921875,-0.9755859375,0.177734375,2.875,-3.125,0.3125
2.489999999999969,0.0,0.0,-3.0,15.0,6.0,-2.0,1.0,1.0,-0.16241455078125,-0.6180419921875,0.7335205078125,0.2314453125,0.044921875,-0.9755859375,0.177734375,2.875,-3.125,0.3125
2.494999999999969,0.0,-2.0,0.0,-10.0,-10.0,9.0,3.0,2.0,-0.162109375,-0.6182861328125,0.7335205078125,0.23114013671875,0.04296875,-0.998046875,0.166015625,0.25,-2.625,-0.3125
2.499999999999969,0.0,-2.0,0.0,-10.0,-10.0,9.0,3.0,2.0,-0.162109375,-0.6182861328125,0.7335205078125,0.23114013671875,0.04296875,-0.998046875,0.166015625,0.25,-2.625,-0.3125
2.504999999999969,0.0,-2.0,0.0,-10.0,-10.0,9.0,3.0,2.0,-0.162109375,-0.6182861328125,0.7335205078125,0.23114013671875,0.04296875,-0.998046875,0.166015625,0.25,-2.625,-0.3125
2.5099999999999687,0.0,-3.0,0.0,25.0,-2.0,-10.0,-8.0,-2.0,-0.162109375,-0.6182861328125,0.7335205078125,0.23114013671875,0.04296875,-0.998046875,0.166015625,0.25,-2.625,-0.3125
2.5149999999999686,0.0,-3.0,0.0,25.0,-2.0,-10.0,-8.0,-2.0,-0.161865234375,-0.61846923828125,0.73333740234375,0.23114013671875,0.0400390625,-1.009765625,0.15380859375,1.1875,-1.1875,-2.1875
2.5199999999999685,-1.0,0.0,-9.0,-29.0,2.0,23.0,11.0,-3.0,-0.161865234375,-0.61846923828125,0.73333740234375,0.23114013671875,0.0400390625,-1.009765625,0.15380859375,1.1875,-1.1875,-2.1875
2.5249999999999684,-1.0,0.0,-9.0,-29.0,2.0,23.0,11.0,-3.0,-0.161865234375,-0.61846923828125,0.73333740234375,0.23114013671875,0.0400390625,-1.009765625,0.15380859375,1.1875,-1.1875,-2.1875
2.5299999999999683,-1.0,0.0,-9.0,-29.0,2.0,23.0,11.0,-3.0,-0.161865234375,-0.61846923828125,0.73333740234375,0.23114013671875,0.0400390625,-1.009765625,0.15380859375,1.1875,-1.1875,-2.1875
2.534999999999968,-1.0,0.0,-9.0,-29.0,2.0,23.0,11.0,-3.0,-0.161865234375,-0.61846923828125,0.73333740234375,0.23114013671875,0.0400390625,-1.009765625,0.15380859375,1.1875,-1.1875,-2.1875
2.539999999999968,1.0,0.0,0.0,-22.0,2.0,-2.0,-3.0,-3.0,-0.16156005859375,-0.6185302734375,0.7332763671875,0.23150634765625,0.05029296875,-1.00537109375,0.16455078125,1.75,0.0,-2.6875
2.544999999999968,-2.0,-3.0,-6.0,-24.0,-14.0,-15.0,0.0,0.0,-0.16156005859375,-0.6185302734375,0.7332763671875,0.23150634765625,0.05029296875,-1.00537109375,0.16455078125,1.75,0.0,-2.6875
2.549999999999968,-2.0,-3.0,-6.0,-24.0,-14.0,-15.0,0.0,0.0,-0.16156005859375,-0.6185302734375,0.7332763671875,0.23150634765625,0.05029296875,-1.00537109375,0.16455078125,1.75,0.0,-2.6875
2.5549999999999677,-2.0,-3.0,-6.0,-24.0,-14.0,-15.0,0.0,0.0,-0.16156005859375,-0.6185302734375,0.7332763671875,0.23150634765625,0.05029296875,-1.00537109375,0.16455078125,1.75,0.0,-2.6875
2.5599999999999676,0.0,0.0,5.0,11.0,0.0,8.0,2.0,-1.0,-0.16156005859375,-0.6185302734375,0.7332763671875,0.23150634765625,0.05029296875,-1.00537109375,0.16455078125,1.75,0.0,-2.6875
2.5649999999999675,0.0,0.0,5.0,11.0,0.0,8.0,2.0,-1.0,-0.16156005859375,-0.6185302734375,0.7332763671875,0.23150634765625,0.05029296875,-1.00537109375,0.16455078125,1.75,0.0,-2.6875
2.5699999999999674,0.0,-1.0,-3.0,-8.0,2.0,-5.0,-13.0,-1.0,-0.16143798828125,-0.61871337890625,0.73309326171875,0.231689453125,0.05419921875,-0.99267578125,0.17333984375,-0.5,0.0625,-1.3125
2.5749999999999673,0.0,-1.0,-3.0,-8.0,2.0,-5.0,-13.0,-1.0,-0.16143798828125,-0.61871337890625,0.73309326171875,0.231689453125,0.05419921875,-0.99267578125,0.17333984375,-0.5,0.0625,-1.3125
2.579999999999967,0.0,-1.0,-3.0,-8.0,2.0,-5.0,-13.0,-1.0,-0.16143798828125,-0.61871337890625,0.73309326171875,0.231689453125,0.05419921875,-0.99267578125,0.17333984375,-0.5,0.0625,-1.3125
2.584999999999967,0.0,-1.0,-3.0,-8.0,2.0,-5.0,-13.0,-1.0,-0.16143798828125,-0.61871337890625,0.73309326171875,0.231689453125,0.05419921875,-0.99267578125,0.17333984375,-0.5,0.0625,-1.3125
2.589999999999967,0.0,-1.0,8.0,3.0,17.0,8.0,12.0,-2.0,-0.1614990234375,-0.6190185546875,0.73284912109375,0.23150634765625,0.05615234375,-0.9921875,0.17822265625,-2.0,-0.5,0.5
2.594999999999967,0.0,-1.0,8.0,3.0,17.0,8.0,12.0,-2.0,-0.1614990234375,-0.6190185546875,0.73284912109375,0.23150634765625,0.05615234375,-0.9921875,0.17822265625,-2.0,-0.5,0.5
2.599999999999967,-2.0,0.0,-6.0,-20.0,-8.0,-3.0,-10.0,1.0,-0.1614990234375,-0.6190185546875,0.73284912109375,0.23150634765625,0.05615234375,-0.9921875,0.17822265625,-2.0,-0.5,0.5
2.6049999999999667,-3.0,-6.0,-13.0,-42.0,-13.0,-10.0,5.0,-2.0,-0.1614990234375,-0.6190185546875,0.73284912109375,0.23150634765625,0.05615234375,-0.9921875,0.17822265625,-2.0,-0.5,0.5
2.6099999999999666,-3.0,-6.0,-13.0,-42.0,-13.0,-10.0,5.0,-2.0,-0.1614990234375,-0.6190185546875,0.73284912109375,0.23150634765625,0.05615234375,-0.9921875,0.17822265625,-2.0,-0.5,0.5
2.6149999999999665,-3.0,-3.0,-6.0,-35.0,-2.0,-11.0,4.0,-2.0,-0.161376953125,-0.61907958984375,0.73297119140625,0.23126220703125,0.05517578125,-0.9892578125,0.177734375,0.375,-1.4375,1.125
2.6199999999999664,-3.0,-3.0,-6.0,-35.0,-2.0,-11.0,4.0,-2.0,-0.161376953125,-0.61907958984375,0.73297119140625,0.23126220703125,0.05517578125,-0.9892578125,0.177734375,0.375,-1.4375,1.125
2.6249999999999662,0.0,2.0,-4.0,-3.0,-3.0,11.0,5.0,1.0,-0.161376953125,-0.61907958984375,0.73297119140625,0.23126220703125,0.05517578125,-0.9892578125,0.177734375,0.375,-1.4375,1.125
2.629999999999966,0.0,2.0,-4.0,-3.0,-3.0,11.0,5.0,1.0,-0.161376953125,-0.61907958984375,0.73297119140625,0.23126220703125,0.05517578125,-0.9892578125,0.177734375,0.375,-1.4375,1.125
2.634999999999966,-1.0,2.0,7.0,11.0,3.0,-17.0,-18.0,2.0,-0.16162109375,-0.61920166015625,0.73291015625,0.2308349609375,0.03857421875,-0.9951171875,0.17724609375,-1.0625,-0.8125,1.625
2.639999999999966,-1.0,2.0,7.0,11.0,3.0,-17.0,-18.0,2.0,-0.16162109375,-0.61920166015625,0.73291015625,0.2308349609375,0.03857421875,-0.9951171875,0.17724609375,-1.0625,-0.8125,1.625
2.644999999999966,-1.0,2.0,7.0,11.0,3.0,-17.0,-18.0,2.0,-0.16162109375,-0.61920166015625,0.73291015625,0.2308349609375,0.03857421875,-0.9951171875,0.17724609375,-1.0625,-0.8125,1.625
2.6499999999999657,-2.0,-5.0,-14.0,-51.0,-5.0,8.0,-8.0,0.0,-0.161865234375,-0.619384765625,0.73284912109375,0.23040771484375,0.02783203125,-1.0107421875,0.17529296875,-0.9375,-1.125,0.875
2.6549999999999656,-2.0,-5.0,-14.0,-51.0,-5.0,8.0,-8.0,0.0,-0.161865234375,-0.619384765625,0.73284912109375,0.23040771484375,0.02783203125,-1.0107421875,0.17529296875,-0.9375,-1.125,0.875
2.6599999999999655,-2.0,-5.0,-14.0,-51.0,-5.0,8.0,-8.0,0.0,-0.161865234375,-0.619384765625,0.73284912109375,0.23040771484375,0.02783203125,-1.0107421875,0.17529296875,-0.9375,-1.125,0.875
2.6649999999999654,-2.0,-2.0,-1.0,26.0,-11.0,-13.0,-4.0,-2.0,-0.161865234375,-0.619384765625,0.73284912109375,0.23040771484375,0.02783203125,-1.0107421875,0.17529296875,-0.9375,-1.125,0.875
2.6699999999999653,0.0,0.0,4.0,43.0,25.0,21.0,6.0,0.0,-0.161865234375,-0.619384765625,0.73284912109375,0.23040771484375,0.02783203125,-1.0107421875,0.17529296875,-0.9375,-1.125,0.875
2.674999999999965,-2.0,-2.0,-2.0,3.0,3.0,-4.0,-14.0,-4.0,-0.16204833984375,-0.61962890625,0.73272705078125,0.22998046875,0.0341796875,-0.9951171875,0.1708984375,-1.5625,-1.25,1.125
2.679999999999965,-2.0,-2.0,-2.0,3.0,3.0,-4.0,-14.0,-4.0,-0.16204833984375,-0.61962890625,0.73272705078125,0.22998046875,0.0341796875,-0.9951171875,0.1708984375,-1.5625,-1.25,1.125
2.684999999999965,-2.0,-2.0,-2.0,3.0,3.0,-4.0,-14.0,-4.0,-0.16204833984375,-0.61962890625,0.73272705078125,0.22998046875,0.0341796875,-0.9951171875,0.1708984375,-1.5625,-1.25,1.125
2.689999999999965,-5.0,-6.0,-3.0,13.0,-23.0,-22.0,-26.0,-9.0,-0.16204833984375,-0.61962890625,0.73272705078125,0.22998046875,0.0341796875,-0.9951171875,0.1708984375,-1.5625,-1.25,1.125
2.6949999999999648,-5.0,-6.0,-3.0,13.0,-23.0,-22.0,-26.0,-9.0,-0.16204833984375,-0.61962890625,0.73272705078125,0.22998046875,0.0341796875,-0.9951171875,0.1708984375,-1.5625,-1.25,1.125
2.6999999999999647,1.0,-3.0,-3.0,-2.0,8.0,12.0,16.0,0.0,-0.1622314453125,-0.61993408203125,0.732666015625,0.22930908203125,0.0478515625,-0.96484375,0.1708984375,-2.0625,-1.6875,3.3125
2.7049999999999645,1.0,-3.0,-3.0,-2.0,8.0,12.0,16.0,0.0,-0.1622314453125,-0.61993408203125,0.732666015625,0.22930908203125,0.0478515625,-0.96484375,0.1708984375,-2.0625,-1.6875,3.3125
2.7099999999999644,1.0,-3.0,-3.0,-2.0,8.0,12.0,16.0,0.0,-0.1622314453125,-0.61993408203125,0.732666015625,0.22930908203125,0.0478515625,-0.96484375,0.1708984375,-2.0625,-1.6875,3.3125
2.7149999999999643,-1.0,2.0,2.0,0.0,-3.0,-1.0,-4.0,-1.0,-0.162841796875,-0.62060546875,0.73223876953125,0.228515625,0.060546875,-0.96533203125,0.17578125,-5.9375,-0.625,5.3125
2.7199999999999642,-2.0,-1.0,3.0,17.0,-2.0,-8.0,1.0,-3.0,-0.162841796875,-0.62060546875,0.73223876953125,0.228515625,0.060546875,-0.96533203125,0.17578125,-5.9375,-0.625,5.3125
2.724999999999964,-2.0,-1.0,3.0,17.0,-2.0,-8.0,1.0,-3.0,-0.162841796875,-0.62060546875,0.73223876953125,0.228515625,0.060546875,-0.96533203125,0.17578125,-5.9375,-0.625,5.3125
2.729999999999964,-2.0,-1.0,3.0,17.0,-2.0,-8.0,1.0,-3.0,-0.162841796875,-0.62060546875,0.73223876953125,0.228515625,0.060546875,-0.96533203125,0.17578125,-5.9375,-0.625,5.3125
2.734999999999964,-2.0,-1.0,3.0,17.0,-2.0,-8.0,1.0,-3.0,-0.162841796875,-0.62060546875,0.73223876953125,0.228515625,0.060546875,-0.96533203125,0.17578125,-5.9375,-0.625,5.3125
2.739999999999964,1.0,0.0,-3.0,-22.0,-1.0,2.0,-2.0,-1.0,-0.16351318359375,-0.6209716796875,0.73199462890625,0.22772216796875,0.0615234375,-0.9853515625,0.19775390625,-5.6875,-0.25,6.125
2.7449999999999637,1.0,0.0,-3.0,-22.0,-1.0,2.0,-2.0,-1.0,-0.16351318359375,-0.6209716796875,0.73199462890625,0.22772216796875,0.0615234375,-0.9853515625,0.19775390625,-5.6875,-0.25,6.125
2.7499999999999636,1.0,0.0,-3.0,-22.0,-1.0,2.0,-2.0,-1.0,-0.16351318359375,-0.6209716796875,0.73199462890625,0.22772216796875,0.0615234375,-0.9853515625,0.19775390625,-5.6875,-0.25,6.125
2.7549999999999635,-2.0,-3.0,-6.0,-2.0,-11.0,-5.0,-9.0,-5.0,-0.16351318359375,-0.6209716796875,0.73199462890625,0.22772216796875,0.0615234375,-0.9853515625,0.19775390625,-5.6875,-0.25,6.125
2.7599999999999634,0.0,-1.0,0.0,-10.0,5.0,-3.0,2.0,-1.0,-0.16351318359375,-0.6209716796875,0.73199462890625,0.22772216796875,0.0615234375,-0.9853515625,0.19775390625,-5.6875,-0.25,6.125
2.7649999999999633,-1.0,-4.0,-7.0,-7.0,-17.0,-10.0,6.0,3.0,-0.16424560546875,-0.62109375,0.73193359375,0.22705078125,0.046875,-0.9833984375,0.2138671875,-5.125,0.75,5.5625
2.769999999999963,-1.0,-4.0,-7.0,-7.0,-17.0,-10.0,6.0,3.0,-0.16424560546875,-0.62109375,0.73193359375,0.22705078125,0.046875,-0.9833984375,0.2138671875,-5.125,0.75,5.5625
2.774999999999963,-1.0,-4.0,-7.0,-7.0,-17.0,-10.0,6.0,3.0,-0.16424560546875,-0.62109375,0.73193359375,0.22705078125,0.046875,-0.9833984375,0.2138671875,-5.125,0.75,5.5625
2.779999999999963,-4.0,-4.0,-18.0,-48.0,-16.0,-28.0,-18.0,-2.0,-0.16424560546875,-0.62109375,0.73193359375,0.22705078125,0.046875,-0.9833984375,0.2138671875,-5.125,0.75,5.5625
2.784999999999963,1.0,0.0,2.0,10.0,8.0,14.0,4.0,-5.0,-0.164794921875,-0.621337890625,0.73175048828125,0.2265625,0.05224609375,-1.01025390625,0.2158203125,-5.3125,0.1875,4.375
2.7899999999999627,1.0,0.0,2.0,10.0,8.0,14.0,4.0,-5.0,-0.164794921875,-0.621337890625,0.73175048828125,0.2265625,0.05224609375,-1.01025390625,0.2158203125,-5.3125,0.1875,4.375
2.7949999999999626,1.0,0.0,2.0,10.0,8.0,14.0,4.0,-5.0,-0.164794921875,-0.621337890625,0.73175048828125,0.2265625,0.05224609375,-1.01025390625,0.2158203125,-5.3125,0.1875,4.375
2.7999999999999625,-1.0,-1.0,-3.0,4.0,-7.0,-11.0,-8.0,-1.0,-0.164794921875,-0.621337890625,0.73175048828125,0.2265625,0.05224609375,-1.01025390625,0.2158203125,-5.3125,0.1875,4.375
2.8049999999999624,0.0,-1.0,3.0,0.0,7.0,4.0,-6.0,-2.0,-0.1650390625,-0.62139892578125,0.73162841796875,0.2265625,0.05419921875,-1.025390625,0.2099609375,-3.375,1.1875,1.3125
2.8099999999999623,0.0,-1.0,3.0,0.0,7.0,4.0,-6.0,-2.0,-0.1650390625,-0.62139892578125,0.73162841796875,0.2265625,0.05419921875,-1.025390625,0.2099609375,-3.375,1.1875,1.3125
2.814999999999962,0.0,0.0,10.0,37.0,3.0,-25.0,7.0,5.0,-0.1650390625,-0.62139892578125,0.73162841796875,0.2265625,0.05419921875,-1.025390625,0.2099609375,-3.375,1.1875,1.3125
2.819999999999962,0.0,0.0,10.0,37.0,3.0,-25.0,7.0,5.0,-0.1650390625,-0.62139892578125,0.73162841796875,0.2265625,0.05419921875,-1.025390625,0.2099609375,-3.375,1.1875,1.3125
2.824999999999962,0.0,0.0,10.0,37.0,3.0,-25.0,7.0,5.0,-0.1650390625,-0.62139892578125,0.73162841796875,0.2265625,0.05419921875,-1.025390625,0.2099609375,-3.375,1.1875,1.3125
2.829999999999962,-4.0,-1.0,-4.0,1.0,-3.0,-3.0,-8.0,-4.0,-0.16485595703125,-0.620849609375,0.73199462890625,0.22698974609375,0.0458984375,-1.00537109375,0.21337890625,2.0,1.0,-1.1875
2.8349999999999618,-4.0,-1.0,-4.0,1.0,-3.0,-3.0,-8.0,-4.0,-0.16485595703125,-0.620849609375,0.73199462890625,0.22698974609375,0.0458984375,-1.00537109375,0.21337890625,2.0,1.0,-1.1875
2.8399999999999617,-4.0,-1.0,-4.0,1.0,-3.0,-3.0,-8.0,-4.0,-0.16485595703125,-0.620849609375,0.73199462890625,0.22698974609375,0.0458984375,-1.00537109375,0.21337890625,2.0,1.0,-1.1875
2.8449999999999616,0.0,2.0,1.0,-3.0,-11.0,-2.0,8.0,1.0,-0.16436767578125,-0.6204833984375,0.7322998046875,0.2274169921875,0.0380859375,-1.00341796875,0.21240234375,1.3125,-0.5625,-2.9375
2.8499999999999615,0.0,2.0,1.0,-3.0,-11.0,-2.0,8.0,1.0,-0.16436767578125,-0.6204833984375,0.7322998046875,0.2274169921875,0.0380859375,-1.00341796875,0.21240234375,1.3125,-0.5625,-2.9375
2.8549999999999613,-1.0,-2.0,-5.0,-14.0,-12.0,-12.0,-5.0,1.0,-0.16436767578125,-0.6204833984375,0.7322998046875,0.2274169921875,0.0380859375,-1.00341796875,0.21240234375,1.3125,-0.5625,-2.9375
2.8599999999999612,2.0,1.0,0.0,4.0,8.0,-2.0,-8.0,-1.0,-0.16436767578125,-0.6204833984375,0.7322998046875,0.2274169921875,0.0380859375,-1.00341796875,0.21240234375,1.3125,-0.5625,-2.9375
2.864999999999961,2.0,1.0,0.0,4.0,8.0,-2.0,-8.0,-1.0,-0.16436767578125,-0.6204833984375,0.7322998046875,0.2274169921875,0.0380859375,-1.00341796875,0.21240234375,1.3125,-0.5625,-2.9375
2.869999999999961,2.0,1.0,0.0,4.0,8.0,-2.0,-8.0,-1.0,-0.16436767578125,-0.6204833984375,0.7322998046875,0.2274169921875,0.0380859375,-1.00341796875,0.21240234375,1.3125,-0.5625,-2.9375
2.874999999999961,-1.0,0.0,-4.0,-26.0,-3.0,11.0,2.0,-5.0,-0.16357421875,-0.62042236328125,0.732421875,0.22784423828125,0.0380859375,-1.0205078125,0.21728515625,-0.3125,-1.875,-4.875
2.879999999999961,0.0,-2.0,-9.0,-16.0,-6.0,-9.0,-18.0,-4.0,-0.16357421875,-0.62042236328125,0.732421875,0.22784423828125,0.0380859375,-1.0205078125,0.21728515625,-0.3125,-1.875,-4.875
2.8849999999999607,0.0,-2.0,-9.0,-16.0,-6.0,-9.0,-18.0,-4.0,-0.16357421875,-0.62042236328125,0.732421875,0.22784423828125,0.0380859375,-1.0205078125,0.21728515625,-0.3125,-1.875,-4.875
2.8899999999999606,0.0,-2.0,-9.0,-16.0,-6.0,-9.0,-18.0,-4.0,-0.16259765625,-0.6201171875,0.732666015625,0.2283935546875,0.0380859375,-1.0390625,0.20166015625,2.8125,-2.125,-5.8125
2.8949999999999605,-2.0,2.0,8.0,18.0,2.0,-19.0,-12.0,-1.0,-0.16259765625,-0.6201171875,0.732666015625,0.2283935546875,0.0380859375,-1.0390625,0.20166015625,2.8125,-2.125,-5.8125
2.8999999999999604,-2.0,2.0,8.0,18.0,2.0,-19.0,-12.0,-1.0,-0.16259765625,-0.6201171875,0.732666015625,0.2283935546875,0.0380859375,-1.0390625,0.20166015625,2.8125,-2.125,-5.8125
2.9049999999999603,-2.0,2.0,8.0,18.0,2.0,-19.0,-12.0,-1.0,-0.16259765625,-0.6201171875,0.732666015625,0.2283935546875,0.0380859375,-1.0390625,0.20166015625,2.8125,-2.125,-5.8125
2.90999999999996,-1.0,-1.0,-3.0,-11.0,1.0,12.0,7.0,-1.0,-0.161376953125,-0.619384765625,0.73345947265625,0.22894287109375,0.02783203125,-1.02294921875,0.19775390625,7.3125,-3.5,-6.4375
2.91499999999996,-1.0,-1.0,-3.0,-11.0,1.0,12.0,7.0,-1.0,-0.161376953125,-0.619384765625,0.73345947265625,0.22894287109375,0.02783203125,-1.02294921875,0.19775390625,7.3125,-3.5,-6.4375
2.91999999999996,-3.0,-2.0,-8.0,-38.0,-4.0,1.0,1.0,-5.0,-0.161376953125,-0.619384765625,0.73345947265625,0.22894287109375,0.02783203125,-1.02294921875,0.19775390625,7.3125,-3.5,-6.4375
2.92499999999996,-3.0,-2.0,-8.0,-38.0,-4.0,1.0,1.0,-5.0,-0.161376953125,-0.619384765625,0.73345947265625,0.22894287109375,0.02783203125,-1.02294921875,0.19775390625,7.3125,-3.5,-6.4375
2.9299999999999597,-3.0,-2.0,-8.0,-38.0,-4.0,1.0,1.0,-5.0,-0.161376953125,-0.619384765625,0.73345947265625,0.22894287109375,0.02783203125,-1.02294921875,0.19775390625,7.3125,-3.5,-6.4375
2.9349999999999596,-3.0,-2.0,-8.0,-38.0,-4.0,1.0,1.0,-5.0,-0.161376953125,-0.619384765625,0.73345947265625,0.22894287109375,0.02783203125,-1.02294921875,0.19775390625,7.3125,-3.5,-6.4375
2.9399999999999595,-1.0,-4.0,-12.0,-22.0,-26.0,-3.0,20.0,3.0,-0.1602783203125,-0.6190185546875,0.73394775390625,0.22906494140625,0.02734375,-1.0068359375,0.1787109375,5.125,-4.375,-5.0
2.9449999999999594,-1.0,-4.0,-12.0,-22.0,-26.0,-3.0,20.0,3.0,-0.1602783203125,-0.6190185546875,0.73394775390625,0.22906494140625,0.02734375,-1.0068359375,0.1787109375,5.125,-4.375,-5.0
2.9499999999999593,-1.0,-4.0,-12.0,-22.0,-26.0,-3.0,20.0,3.0,-0.1602783203125,-0.6190185546875,0.73394775390625,0.22906494140625,0.02734375,-1.0068359375,0.1787109375,5.125,-4.375,-5.0
2.954999999999959,-1.0,-4.0,-12.0,-22.0,-26.0,-3.0,20.0,3.0,-0.1602783203125,-0.6190185546875,0.73394775390625,0.22906494140625,0.02734375,-1.0068359375,0.1787109375,5.125,-4.375,-5.0
2.959999999999959,2.0,1.0,5.0,-8.0,11.0,0.0,-7.0,-2.0,-0.1602783203125,-0.6190185546875,0.73394775390625,0.22906494140625,0.02734375,-1.0068359375,0.1787109375,5.125,-4.375,-5.0
2.964999999999959,2.0,1.0,5.0,-8.0,11.0,0.0,-7.0,-2.0,-0.1602783203125,-0.6190185546875,0.73394775390625,0.22906494140625,0.02734375,-1.0068359375,0.1787109375,5.125,-4.375,-5.0
2.969999999999959,0.0,-2.0,2.0,33.0,2.0,1.0,29.0,2.0,-0.15948486328125,-0.6190185546875,0.73419189453125,0.228759765625,0.0302734375,-1.01025390625,0.166015625,3.375,-4.75,-2.4375
2.974999999999959,0.0,-2.0,2.0,33.0,2.0,1.0,29.0,2.0,-0.15948486328125,-0.6190185546875,0.73419189453125,0.228759765625,0.0302734375,-1.01025390625,0.166015625,3.375,-4.75,-2.4375
2.9799999999999587,0.0,-2.0,2.0,33.0,2.0,1.0,29.0,2.0,-0.15948486328125,-0.6190185546875,0.73419189453125,0.228759765625,0.0302734375,-1.01025390625,0.166015625,3.375,-4.75,-2.4375
2.9849999999999586,-2.0,-1.0,-3.0,25.0,-8.0,-14.0,-6.0,1.0,-0.15948486328125,-0.6190185546875,0.73419189453125,0.228759765625,0.0302734375,-1.01025390625,0.166015625,3.375,-4.75,-2.4375
2.9899999999999585,-2.0,-1.0,-3.0,25.0,-8.0,-14.0,-6.0,1.0,-0.15899658203125,-0.61895751953125,0.7344970703125,0.228271484375,0.037109375,-1.001953125,0.14990234375,3.8125,-4.0625,-0.5
2.9949999999999584,-1.0,0.0,2.0,9.0,7.0,4.0,-14.0,-1.0,-0.15899658203125,-0.61895751953125,0.7344970703125,0.228271484375,0.037109375,-1.001953125,0.14990234375,3.8125,-4.0625,-0.5
2.9999999999999583,-1.0,0.0,2.0,9.0,7.0,4.0,-14.0,-1.0,-0.15899658203125,-0.61895751953125,0.7344970703125,0.228271484375,0.037109375,-1.001953125,0.14990234375,3.8125,-4.0625,-0.5
3.004999999999958,-1.0,0.0,2.0,9.0,7.0,4.0,-14.0,-1.0,-0.15899658203125,-0.61895751953125,0.7344970703125,0.228271484375,0.037109375,-1.001953125,0.14990234375,3.8125,-4.0625,-0.5
3.009999999999958,-1.0,0.0,2.0,9.0,7.0,4.0,-14.0,-1.0,-0.15899658203125,-0.61895751953125,0.7344970703125,0.228271484375,0.037109375,-1.001953125,0.14990234375,3.8125,-4.0625,-0.5
3.014999999999958,1.0,1.0,6.0,1.0,9.0,2.0,13.0,-2.0,-0.1588134765625,-0.6185302734375,0.73504638671875,0.22772216796875,0.037109375,-0.97412109375,0.16015625,5.125,-2.9375,2.25
3.019999999999958,-2.0,-2.0,-5.0,-20.0,-6.0,6.0,-2.0,-1.0,-0.1588134765625,-0.6185302734375,0.73504638671875,0.22772216796875,0.037109375,-0.97412109375,0.16015625,5.125,-2.9375,2.25
3.0249999999999577,-2.0,-2.0,-5.0,-20.0,-6.0,6.0,-2.0,-1.0,-0.1588134765625,-0.6185302734375,0.73504638671875,0.22772216796875,0.037109375,-0.97412109375,0.16015625,5.125,-2.9375,2.25
3.0299999999999576,-2.0,-2.0,-5.0,-20.0,-6.0,6.0,-2.0,-1.0,-0.1588134765625,-0.6185302734375,0.73504638671875,0.22772216796875,0.037109375,-0.97412109375,0.16015625,5.125,-2.9375,2.25
3.0349999999999575,0.0,-2.0,-3.0,-31.0,10.0,3.0,-2.0,-3.0,-0.1588134765625,-0.6185302734375,0.73504638671875,0.22772216796875,0.037109375,-0.97412109375,0.16015625,5.125,-2.9375,2.25
3.0399999999999574,0.0,-2.0,-3.0,-31.0,10.0,3.0,-2.0,-3.0,-0.1588134765625,-0.6185302734375,0.73504638671875,0.22772216796875,0.037109375,-0.97412109375,0.16015625,5.125,-2.9375,2.25
3.0449999999999573,0.0,0.0,0.0,-1.0,-5.0,-5.0,0.0,-1.0,-0.1590576171875,-0.61810302734375,0.73565673828125,0.226806640625,0.03759765625,-0.9638671875,0.15869140625,4.3125,-2.0,5.1875
3.049999999999957,0.0,0.0,0.0,-1.0,-5.0,-5.0,0.0,-1.0,-0.1590576171875,-0.61810302734375,0.73565673828125,0.226806640625,0.03759765625,-0.9638671875,0.15869140625,4.3125,-2.0,5.1875
3.054999999999957,0.0,0.0,0.0,-1.0,-5.0,-5.0,0.0,-1.0,-0.1590576171875,-0.61810302734375,0.73565673828125,0.226806640625,0.03759765625,-0.9638671875,0.15869140625,4.3125,-2.0,5.1875
3.059999999999957,0.0,0.0,0.0,-1.0,-5.0,-5.0,0.0,-1.0,-0.1590576171875,-0.61810302734375,0.73565673828125,0.226806640625,0.03759765625,-0.9638671875,0.15869140625,4.3125,-2.0,5.1875
3.064999999999957,-2.0,-2.0,-3.0,17.0,-27.0,-17.0,-3.0,-2.0,-0.15966796875,-0.617919921875,0.7359619140625,0.22589111328125,0.0458984375,-0.9521484375,0.15234375,2.125,-0.6875,7.125
3.0699999999999568,-2.0,-2.0,-3.0,17.0,-27.0,-17.0,-3.0,-2.0,-0.15966796875,-0.617919921875,0.7359619140625,0.22589111328125,0.0458984375,-0.9521484375,0.15234375,2.125,-0.6875,7.125
3.0749999999999567,1.0,3.0,8.0,16.0,-3.0,-16.0,-4.0,3.0,-0.15966796875,-0.617919921875,0.7359619140625,0.22589111328125,0.0458984375,-0.9521484375,0.15234375,2.125,-0.6875,7.125
3.0799999999999566,1.0,3.0,8.0,16.0,-3.0,-16.0,-4.0,3.0,-0.15966796875,-0.617919921875,0.7359619140625,0.22589111328125,0.0458984375,-0.9521484375,0.15234375,2.125,-0.6875,7.125
3.0849999999999564,1.0,3.0,8.0,16.0,-3.0,-16.0,-4.0,3.0,-0.15966796875,-0.617919921875,0.7359619140625,0.22589111328125,0.0458984375,-0.9521484375,0.15234375,2.125,-0.6875,7.125
3.0899999999999563,1.0,3.0,8.0,16.0,-3.0,-16.0,-4.0,3.0,-0.15966796875,-0.617919921875,0.7359619140625,0.22589111328125,0.0458984375,-0.9521484375,0.15234375,2.125,-0.6875,7.125
3.0949999999999562,1.0,0.0,0.0,-19.0,13.0,-3.0,-1.0,0.0,-0.1605224609375,-0.61785888671875,0.736083984375,0.22503662109375,0.0419921875,-0.962890625,0.15771484375,0.5,0.6875,6.5625
3.099999999999956,1.0,0.0,0.0,-19.0,13.0,-3.0,-1.0,0.0,-0.1605224609375,-0.61785888671875,0.736083984375,0.22503662109375,0.0419921875,-0.962890625,0.15771484375,0.5,0.6875,6.5625
3.104999999999956,1.0,0.0,0.0,-19.0,13.0,-3.0,-1.0,0.0,-0.1605224609375,-0.61785888671875,0.736083984375,0.22503662109375,0.0419921875,-0.962890625,0.15771484375,0.5,0.6875,6.5625
3.109999999999956,0.0,2.0,2.0,18.0,5.0,9.0,-1.0,0.0,-0.1605224609375,-0.61785888671875,0.736083984375,0.22503662109375,0.0419921875,-0.962890625,0.15771484375,0.5,0.6875,6.5625
3.114999999999956,0.0,2.0,2.0,18.0,5.0,9.0,-1.0,0.0,-0.1605224609375,-0.61785888671875,0.736083984375,0.22503662109375,0.0419921875,-0.962890625,0.15771484375,0.5,0.6875,6.5625
3.1199999999999557,0.0,2.0,2.0,18.0,5.0,9.0,-1.0,0.0,-0.1605224609375,-0.61785888671875,0.736083984375,0.22503662109375,0.0419921875,-0.962890625,0.15771484375,0.5,0.6875,6.5625
3.1249999999999556,-1.0,-3.0,-1.0,24.0,8.0,20.0,-6.0,1.0,-0.161376953125,-0.61785888671875,0.73602294921875,0.22454833984375,0.03955078125,-0.96240234375,0.1513671875,0.0625,1.75,5.125
3.1299999999999555,-1.0,-3.0,-1.0,24.0,8.0,20.0,-6.0,1.0,-0.161376953125,-0.61785888671875,0.73602294921875,0.22454833984375,0.03955078125,-0.96240234375,0.1513671875,0.0625,1.75,5.125
3.1349999999999554,-1.0,-3.0,-1.0,24.0,8.0,20.0,-6.0,1.0,-0.161376953125,-0.61785888671875,0.73602294921875,0.22454833984375,0.03955078125,-0.96240234375,0.1513671875,0.0625,1.75,5.125
3.1399999999999553,0.0,1.0,2.0,-3.0,-9.0,-15.0,-4.0,1.0,-0.16192626953125,-0.61798095703125,0.73583984375,0.22442626953125,0.041015625,-0.9755859375,0.15234375,0.0625,1.9375,2.375
3.144999999999955,0.0,1.0,2.0,-3.0,-9.0,-15.0,-4.0,1.0,-0.16192626953125,-0.61798095703125,0.73583984375,0.22442626953125,0.041015625,-0.9755859375,0.15234375,0.0625,1.9375,2.375
3.149999999999955,-3.0,0.0,2.0,31.0,6.0,-7.0,-1.0,1.0,-0.16192626953125,-0.61798095703125,0.73583984375,0.22442626953125,0.041015625,-0.9755859375,0.15234375,0.0625,1.9375,2.375
3.154999999999955,-3.0,0.0,2.0,31.0,6.0,-7.0,-1.0,1.0,-0.16192626953125,-0.61798095703125,0.73583984375,0.22442626953125,0.041015625,-0.9755859375,0.15234375,0.0625,1.9375,2.375
3.159999999999955,-3.0,0.0,2.0,31.0,6.0,-7.0,-1.0,1.0,-0.16192626953125,-0.61798095703125,0.73583984375,0.22442626953125,0.041015625,-0.9755859375,0.15234375,0.0625,1.9375,2.375
3.1649999999999547,-3.0,0.0,2.0,31.0,6.0,-7.0,-1.0,1.0,-0.16192626953125,-0.61798095703125,0.73583984375,0.22442626953125,0.041015625,-0.9755859375,0.15234375,0.0625,1.9375,2.375
3.1699999999999546,0.0,-2.0,-2.0,-1.0,6.0,14.0,-2.0,4.0,-0.16192626953125,-0.61798095703125,0.73583984375,0.22442626953125,0.041015625,-0.9755859375,0.15234375,0.0625,1.9375,2.375
3.1749999999999545,-1.0,-1.0,3.0,34.0,11.0,-8.0,-3.0,-1.0,-0.1622314453125,-0.6181640625,0.73553466796875,0.22479248046875,0.04931640625,-0.97607421875,0.16064453125,-0.75,3.0,-0.3125
3.1799999999999544,-1.0,-1.0,3.0,34.0,11.0,-8.0,-3.0,-1.0,-0.1622314453125,-0.6181640625,0.73553466796875,0.22479248046875,0.04931640625,-0.97607421875,0.16064453125,-0.75,3.0,-0.3125
3.1849999999999543,-1.0,1.0,6.0,11.0,13.0,11.0,20.0,-1.0,-0.1622314453125,-0.6181640625,0.73553466796875,0.22479248046875,0.04931640625,-0.97607421875,0.16064453125,-0.75,3.0,-0.3125
3.189999999999954,-1.0,1.0,6.0,11.0,13.0,11.0,20.0,-1.0,-0.1622314453125,-0.6181640625,0.73553466796875,0.22479248046875,0.04931640625,-0.97607421875,0.16064453125,-0.75,3.0,-0.3125
3.194999999999954,-2.0,-2.0,-6.0,-7.0,-22.0,-9.0,-4.0,-4.0,-0.16241455078125,-0.6185302734375,0.7349853515625,0.2254638671875,0.05224609375,-0.9853515625,0.1650390625,-1.625,3.4375,-2.625
3.199999999999954,-2.0,-2.0,-6.0,-7.0,-22.0,-9.0,-4.0,-4.0,-0.16241455078125,-0.6185302734375,0.7349853515625,0.2254638671875,0.05224609375,-0.9853515625,0.1650390625,-1.625,3.4375,-2.625
3.204999999999954,-2.0,-2.0,-6.0,-7.0,-22.0,-9.0,-4.0,-4.0,-0.16241455078125,-0.6185302734375,0.7349853515625,0.2254638671875,0.05224609375,-0.9853515625,0.1650390625,-1.625,3.4375,-2.625
3.209999999999954,-3.0,-3.0,1.0,-7.0,-5.0,-10.0,-2.0,-1.0,-0.16241455078125,-0.6187744140625,0.7344970703125,0.22637939453125,0.04345703125,-0.9873046875,0.173828125,-1.5625,3.375,-4.5625
3.2149999999999537,-3.0,-3.0,1.0,-7.0,-5.0,-10.0,-2.0,-1.0,-0.16241455078125,-0.6187744140625,0.7344970703125,0.22637939453125,0.04345703125,-0.9873046875,0.173828125,-1.5625,3.375,-4.5625
3.2199999999999536,-4.0,-4.0,-8.0,-19.0,0.0,4.0,16.0,-1.0,-0.16241455078125,-0.6187744140625,0.7344970703125,0.22637939453125,0.04345703125,-0.9873046875,0.173828125,-1.5625,3.375,-4.5625
3.2249999999999535,-4.0,-4.0,-8.0,-19.0,0.0,4.0,16.0,-1.0,-0.16241455078125,-0.6187744140625,0.7344970703125,0.22637939453125,0.04345703125,-0.9873046875,0.173828125,-1.5625,3.375,-4.5625
3.2299999999999534,-4.0,-4.0,-8.0,-19.0,0.0,4.0,16.0,-1.0,-0.16241455078125,-0.6187744140625,0.7344970703125,0.22637939453125,0.04345703125,-0.9873046875,0.173828125,-1.5625,3.375,-4.5625
3.2349999999999532,-4.0,-4.0,-8.0,-19.0,0.0,4.0,16.0,-1.0,-0.16241455078125,-0.6187744140625,0.7344970703125,0.22637939453125,0.04345703125,-0.9873046875,0.173828125,-1.5625,3.375,-4.5625
3.239999999999953,-1.0,-3.0,1.0,-21.0,-6.0,6.0,1.0,-3.0,-0.16241455078125,-0.6187744140625,0.7344970703125,0.22637939453125,0.04345703125,-0.9873046875,0.173828125,-1.5625,3.375,-4.5625
3.244999999999953,2.0,1.0,-11.0,-83.0,-2.0,-8.0,-4.0,-1.0,-0.162109375,-0.61883544921875,0.73419189453125,0.2274169921875,0.0458984375,-0.97900390625,0.1767578125,0.3125,2.625,-5.8125
3.249999999999953,2.0,1.0,-11.0,-83.0,-2.0,-8.0,-4.0,-1.0,-0.162109375,-0.61883544921875,0.73419189453125,0.2274169921875,0.0458984375,-0.97900390625,0.1767578125,0.3125,2.625,-5.8125
3.254999999999953,-1.0,1.0,-2.0,-22.0,-12.0,-14.0,-10.0,-2.0,-0.162109375,-0.61883544921875,0.73419189453125,0.2274169921875,0.0458984375,-0.97900390625,0.1767578125,0.3125,2.625,-5.8125
3.2599999999999527,-1.0,1.0,-2.0,-22.0,-12.0,-14.0,-10.0,-2.0,-0.162109375,-0.61883544921875,0.73419189453125,0.2274169921875,0.0458984375,-0.97900390625,0.1767578125,0.3125,2.625,-5.8125
3.2649999999999526,-1.0,1.0,-2.0,-22.0,-12.0,-14.0,-10.0,-2.0,-0.162109375,-0.61883544921875,0.73419189453125,0.2274169921875,0.0458984375,-0.97900390625,0.1767578125,0.3125,2.625,-5.8125
3.2699999999999525,-1.0,-3.0,4.0,28.0,5.0,20.0,-7.0,-6.0,-0.16180419921875,-0.61907958984375,0.73370361328125,0.228515625,0.044921875,-0.99267578125,0.171875,-0.5625,2.625,-6.5
3.2749999999999524,-1.0,-3.0,4.0,28.0,5.0,20.0,-7.0,-6.0,-0.16180419921875,-0.61907958984375,0.73370361328125,0.228515625,0.044921875,-0.99267578125,0.171875,-0.5625,2.625,-6.5
3.2799999999999523,-2.0,-2.0,-5.0,-3.0,7.0,-6.0,-17.0,-1.0,-0.16180419921875,-0.61907958984375,0.73370361328125,0.228515625,0.044921875,-0.99267578125,0.171875,-0.5625,2.625,-6.5
