0.005,-1.0,0.0,1.0,-6.0,-3.0,4.0,1.0,1.0,0.27008056640625,0.5740966796875,-0.720703125,-0.27935791015625,-0.06494140625,-0.9951171875,0.19189453125,2.3125,-1.3125,0.0625
0.01,1.0,3.0,-2.0,-5.0,2.0,6.0,2.0,1.0,0.27008056640625,0.5740966796875,-0.720703125,-0.27935791015625,-0.06494140625,-0.9951171875,0.19189453125,2.3125,-1.3125,0.0625
0.015,1.0,3.0,-2.0,-5.0,2.0,6.0,2.0,1.0,0.27008056640625,0.5740966796875,-0.720703125,-0.27935791015625,-0.06494140625,-0.9951171875,0.19189453125,2.3125,-1.3125,0.0625
0.02,1.0,3.0,11.0,19.0,3.0,-8.0,-3.0,-1.0,0.2698974609375,0.57427978515625,-0.720703125,-0.27923583984375,-0.0634765625,-1.00146484375,0.19287109375,-0.5625,-1.375,0.0
0.025,1.0,3.0,11.0,19.0,3.0,-8.0,-3.0,-1.0,0.2698974609375,0.57427978515625,-0.720703125,-0.27923583984375,-0.0634765625,-1.00146484375,0.19287109375,-0.5625,-1.375,0.0
0.030000000000000002,1.0,3.0,11.0,19.0,3.0,-8.0,-3.0,-1.0,0.2698974609375,0.57427978515625,-0.720703125,-0.27923583984375,-0.0634765625,-1.00146484375,0.19287109375,-0.5625,-1.375,0.0
0.035,1.0,3.0,11.0,19.0,3.0,-8.0,-3.0,-1.0,0.2698974609375,0.57427978515625,-0.720703125,-0.27923583984375,-0.0634765625,-1.00146484375,0.19287109375,-0.5625,-1.375,0.0
0.04,-1.0,-2.0,-3.0,8.0,-5.0,-1.0,-8.0,-3.0,0.2698974609375,0.57427978515625,-0.720703125,-0.27923583984375,-0.0634765625,-1.00146484375,0.19287109375,-0.5625,-1.375,0.0
0.045,-1.0,-2.0,-3.0,8.0,-5.0,-1.0,-8.0,-3.0,0.26971435546875,0.574462890625,-0.720703125,-0.27911376953125,-0.060546875,-0.9892578125,0.18798828125,-0.0625,-1.4375,0.1875
0.049999999999999996,-1.0,-2.0,-3.0,8.0,-5.0,-1.0,-8.0,-3.0,0.26971435546875,0.574462890625,-0.720703125,-0.27911376953125,-0.060546875,-0.9892578125,0.18798828125,-0.0625,-1.4375,0.1875
0.05499999999999999,-2.0,-1.0,1.0,5.0,0.0,-3.0,-5.0,-4.0,0.26971435546875,0.574462890625,-0.720703125,-0.27911376953125,-0.060546875,-0.9892578125,0.18798828125,-0.0625,-1.4375,0.1875
0.05999999999999999,-2.0,-1.0,1.0,5.0,0.0,-3.0,-5.0,-4.0,0.26971435546875,0.574462890625,-0.720703125,-0.27911376953125,-0.060546875,-0.9892578125,0.18798828125,-0.0625,-1.4375,0.1875
0.06499999999999999,1.0,0.0,9.0,20.0,3.0,-2.0,5.0,0.0,0.2694091796875,0.5745849609375,-0.72076416015625,-0.2789306640625,-0.05859375,-0.9873046875,0.19091796875,0.25,-2.0,0.5625
0.06999999999999999,1.0,0.0,9.0,20.0,3.0,-2.0,5.0,0.0,0.2694091796875,0.5745849609375,-0.72076416015625,-0.2789306640625,-0.05859375,-0.9873046875,0.19091796875,0.25,-2.0,0.5625
0.075,1.0,0.0,9.0,20.0,3.0,-2.0,5.0,0.0,0.2694091796875,0.5745849609375,-0.72076416015625,-0.2789306640625,-0.05859375,-0.9873046875,0.19091796875,0.25,-2.0,0.5625
0.08,1.0,0.0,9.0,20.0,3.0,-2.0,5.0,0.0,0.2694091796875,0.5745849609375,-0.72076416015625,-0.2789306640625,-0.05859375,-0.9873046875,0.19091796875,0.25,-2.0,0.5625
0.085,-3.0,-1.0,0.0,-5.0,-9.0,0.0,-5.0,-3.0,0.2694091796875,0.5745849609375,-0.72076416015625,-0.2789306640625,-0.05859375,-0.9873046875,0.19091796875,0.25,-2.0,0.5625
0.09000000000000001,-3.0,-1.0,0.0,-5.0,-9.0,0.0,-5.0,-3.0,0.2694091796875,0.5745849609375,-0.72076416015625,-0.2789306640625,-0.05859375,-0.9873046875,0.19091796875,0.25,-2.0,0.5625
0.09500000000000001,-1.0,0.0,-4.0,-21.0,2.0,0.0,-2.0,0.0,0.2691650390625,0.57476806640625,-0.72076416015625,-0.27874755859375,-0.05908203125,-1.00048828125,0.193359375,-0.5,-2.0,0.3125
0.10000000000000002,-1.0,0.0,-4.0,-21.0,2.0,0.0,-2.0,0.0,0.2691650390625,0.57476806640625,-0.72076416015625,-0.27874755859375,-0.05908203125,-1.00048828125,0.193359375,-0.5,-2.0,0.3125
0.10500000000000002,-1.0,0.0,-4.0,-21.0,2.0,0.0,-2.0,0.0,0.2691650390625,0.57476806640625,-0.72076416015625,-0.27874755859375,-0.05908203125,-1.00048828125,0.193359375,-0.5,-2.0,0.3125
0.11000000000000003,-1.0,0.0,-4.0,-21.0,2.0,0.0,-2.0,0.0,0.2691650390625,0.57476806640625,-0.72076416015625,-0.27874755859375,-0.05908203125,-1.00048828125,0.193359375,-0.5,-2.0,0.3125
0.11500000000000003,-2.0,-3.0,-5.0,-4.0,-7.0,-8.0,0.0,-2.0,0.2691650390625,0.57476806640625,-0.72076416015625,-0.27874755859375,-0.05908203125,-1.00048828125,0.193359375,-0.5,-2.0,0.3125
0.12000000000000004,-2.0,-3.0,-5.0,-4.0,-7.0,-8.0,0.0,-2.0,0.2691650390625,0.57476806640625,-0.72076416015625,-0.27874755859375,-0.05908203125,-1.00048828125,0.193359375,-0.5,-2.0,0.3125
0.12500000000000003,-2.0,-3.0,-5.0,-4.0,-7.0,-8.0,0.0,-2.0,0.26885986328125,0.574951171875,-0.72076416015625,-0.27874755859375,-0.05517578125,-1.00537109375,0.189453125,0.3125,-1.5,-0.4375
0.13000000000000003,-2.0,-3.0,-5.0,-4.0,-7.0,-8.0,0.0,-2.0,0.26885986328125,0.574951171875,-0.72076416015625,-0.27874755859375,-0.05517578125,-1.00537109375,0.189453125,0.3125,-1.5,-0.4375
0.13500000000000004,-1.0,0.0,6.0,6.0,2.0,3.0,3.0,0.0,0.26885986328125,0.574951171875,-0.72076416015625,-0.27874755859375,-0.05517578125,-1.00537109375,0.189453125,0.3125,-1.5,-0.4375
0.14000000000000004,-1.0,0.0,6.0,6.0,2.0,3.0,3.0,0.0,0.26885986328125,0.574951171875,-0.72076416015625,-0.27874755859375,-0.05517578125,-1.00537109375,0.189453125,0.3125,-1.5,-0.4375
0.14500000000000005,-1.0,-3.0,-15.0,-27.0,-18.0,-5.0,-1.0,-3.0,0.2686767578125,0.57513427734375,-0.72064208984375,-0.2786865234375,-0.06640625,-1.001953125,0.2001953125,-1.0625,-0.8125,-0.8125
0.15000000000000005,-1.0,-3.0,-15.0,-27.0,-18.0,-5.0,-1.0,-3.0,0.2686767578125,0.57513427734375,-0.72064208984375,-0.2786865234375,-0.06640625,-1.001953125,0.2001953125,-1.0625,-0.8125,-0.8125
0.15500000000000005,-1.0,-3.0,-15.0,-27.0,-18.0,-5.0,-1.0,-3.0,0.2686767578125,0.57513427734375,-0.72064208984375,-0.2786865234375,-0.06640625,-1.001953125,0.2001953125,-1.0625,-0.8125,-0.8125
0.16000000000000006,-1.0,-3.0,-15.0,-27.0,-18.0,-5.0,-1.0,-3.0,0.2686767578125,0.57513427734375,-0.72064208984375,-0.2786865234375,-0.06640625,-1.001953125,0.2001953125,-1.0625,-0.8125,-0.8125
0.16500000000000006,1.0,-1.0,-1.0,1.0,3.0,-6.0,-1.0,2.0,0.2686767578125,0.57513427734375,-0.72064208984375,-0.2786865234375,-0.06640625,-1.001953125,0.2001953125,-1.0625,-0.8125,-0.8125
0.17000000000000007,1.0,-1.0,-1.0,1.0,3.0,-6.0,-1.0,2.0,0.2686767578125,0.57513427734375,-0.72064208984375,-0.2786865234375,-0.06640625,-1.001953125,0.2001953125,-1.0625,-0.8125,-0.8125
0.17500000000000007,1.0,0.0,-1.0,1.0,6.0,9.0,1.0,1.0,0.2684326171875,0.5753173828125,-0.72064208984375,-0.27874755859375,-0.06298828125,-0.99658203125,0.19921875,-0.4375,-1.125,-1.0
0.18000000000000008,1.0,0.0,-1.0,1.0,6.0,9.0,1.0,1.0,0.2684326171875,0.5753173828125,-0.72064208984375,-0.27874755859375,-0.06298828125,-0.99658203125,0.19921875,-0.4375,-1.125,-1.0
0.18500000000000008,1.0,0.0,-1.0,1.0,6.0,9.0,1.0,1.0,0.2684326171875,0.5753173828125,-0.72064208984375,-0.27874755859375,-0.06298828125,-0.99658203125,0.19921875,-0.4375,-1.125,-1.0
0.19000000000000009,1.0,0.0,-1.0,1.0,6.0,9.0,1.0,1.0,0.2684326171875,0.5753173828125,-0.72064208984375,-0.27874755859375,-0.06298828125,-0.99658203125,0.19921875,-0.4375,-1.125,-1.0
0.1950000000000001,-1.0,-1.0,-1.0,-13.0,-6.0,-2.0,-2.0,0.0,0.2684326171875,0.5753173828125,-0.72064208984375,-0.27874755859375,-0.06298828125,-0.99658203125,0.19921875,-0.4375,-1.125,-1.0
0.2000000000000001,-1.0,-1.0,-1.0,-13.0,-6.0,-2.0,-2.0,0.0,0.2684326171875,0.5753173828125,-0.72064208984375,-0.27874755859375,-0.06298828125,-0.99658203125,0.19921875,-0.4375,-1.125,-1.0
0.2050000000000001,-1.0,-1.0,-1.0,-13.0,-6.0,-2.0,-2.0,0.0,0.2684326171875,0.57525634765625,-0.72064208984375,-0.27874755859375,-0.06787109375,-0.990234375,0.205078125,-0.4375,-0.9375,-0.9375
0.2100000000000001,-1.0,-1.0,-1.0,-13.0,-6.0,-2.0,-2.0,0.0,0.2684326171875,0.57525634765625,-0.72064208984375,-0.27874755859375,-0.06787109375,-0.990234375,0.205078125,-0.4375,-0.9375,-0.9375
0.2150000000000001,-3.0,-1.0,-4.0,-2.0,-2.0,-4.0,-3.0,-2.0,0.2684326171875,0.57525634765625,-0.72064208984375,-0.27874755859375,-0.06787109375,-0.990234375,0.205078125,-0.4375,-0.9375,-0.9375
0.2200000000000001,-3.0,-1.0,-4.0,-2.0,-2.0,-4.0,-3.0,-2.0,0.2684326171875,0.57525634765625,-0.72064208984375,-0.27874755859375,-0.06787109375,-0.990234375,0.205078125,-0.4375,-0.9375,-0.9375
0.22500000000000012,-3.0,-2.0,0.0,3.0,1.0,-6.0,-6.0,-3.0,0.2684326171875,0.57525634765625,-0.72064208984375,-0.27874755859375,-0.06689453125,-0.99560546875,0.2041015625,-0.1875,-0.25,-0.625
0.23000000000000012,-3.0,-2.0,0.0,3.0,1.0,-6.0,-6.0,-3.0,0.2684326171875,0.57525634765625,-0.72064208984375,-0.27874755859375,-0.06689453125,-0.99560546875,0.2041015625,-0.1875,-0.25,-0.625
0.23500000000000013,-3.0,-2.0,0.0,3.0,1.0,-6.0,-6.0,-3.0,0.2684326171875,0.57525634765625,-0.72064208984375,-0.27874755859375,-0.06689453125,-0.99560546875,0.2041015625,-0.1875,-0.25,-0.625
0.24000000000000013,-3.0,-2.0,0.0,3.0,1.0,-6.0,-6.0,-3.0,0.2684326171875,0.57525634765625,-0.72064208984375,-0.27874755859375,-0.06689453125,-0.99560546875,0.2041015625,-0.1875,-0.25,-0.625
0.24500000000000013,3.0,1.0,1.0,3.0,6.0,-1.0,9.0,6.0,0.2684326171875,0.57525634765625,-0.72064208984375,-0.27874755859375,-0.06689453125,-0.99560546875,0.2041015625,-0.1875,-0.25,-0.625
0.2500000000000001,3.0,1.0,1.0,3.0,6.0,-1.0,9.0,6.0,0.2684326171875,0.57525634765625,-0.72064208984375,-0.27874755859375,-0.06689453125,-0.99560546875,0.2041015625,-0.1875,-0.25,-0.625
0.2550000000000001,-2.0,0.0,-2.0,2.0,1.0,8.0,-3.0,-1.0,0.26837158203125,0.57489013671875,-0.72088623046875,-0.27899169921875,-0.0771484375,-1.0078125,0.2119140625,2.0625,0.625,-0.8125
0.2600000000000001,-2.0,0.0,-2.0,2.0,1.0,8.0,-3.0,-1.0,0.26837158203125,0.57489013671875,-0.72088623046875,-0.27899169921875,-0.0771484375,-1.0078125,0.2119140625,2.0625,0.625,-0.8125
0.2650000000000001,-2.0,0.0,-2.0,2.0,1.0,8.0,-3.0,-1.0,0.26837158203125,0.57489013671875,-0.72088623046875,-0.27899169921875,-0.0771484375,-1.0078125,0.2119140625,2.0625,0.625,-0.8125
0.27000000000000013,-2.0,0.0,-2.0,2.0,1.0,8.0,-3.0,-1.0,0.26837158203125,0.57489013671875,-0.72088623046875,-0.27899169921875,-0.0771484375,-1.0078125,0.2119140625,2.0625,0.625,-0.8125
0.27500000000000013,-1.0,-3.0,-8.0,-4.0,4.0,0.0,-6.0,-2.0,0.26837158203125,0.57489013671875,-0.72088623046875,-0.27899169921875,-0.0771484375,-1.0078125,0.2119140625,2.0625,0.625,-0.8125
0.28000000000000014,-1.0,-3.0,-8.0,-4.0,4.0,0.0,-6.0,-2.0,0.26837158203125,0.57489013671875,-0.72088623046875,-0.27899169921875,-0.0771484375,-1.0078125,0.2119140625,2.0625,0.625,-0.8125
0.28500000000000014,-1.0,-3.0,-8.0,-4.0,4.0,0.0,-6.0,-2.0,0.268310546875,0.57452392578125,-0.7210693359375,-0.279296875,-0.07177734375,-0.9990234375,0.20263671875,2.125,1.125,-0.875
0.29000000000000015,-1.0,-3.0,-8.0,-4.0,4.0,0.0,-6.0,-2.0,0.268310546875,0.57452392578125,-0.7210693359375,-0.279296875,-0.07177734375,-0.9990234375,0.20263671875,2.125,1.125,-0.875
0.29500000000000015,0.0,-1.0,0.0,5.0,-2.0,-4.0,-4.0,-2.0,0.268310546875,0.57452392578125,-0.7210693359375,-0.279296875,-0.07177734375,-0.9990234375,0.20263671875,2.125,1.125,-0.875
0.30000000000000016,0.0,-1.0,0.0,5.0,-2.0,-4.0,-4.0,-2.0,0.268310546875,0.57452392578125,-0.7210693359375,-0.279296875,-0.07177734375,-0.9990234375,0.20263671875,2.125,1.125,-0.875
0.30500000000000016,-3.0,-8.0,-25.0,-53.0,-15.0,-3.0,5.0,-3.0,0.26837158203125,0.5740966796875,-0.7213134765625,-0.27947998046875,-0.06689453125,-0.99609375,0.20703125,2.375,0.9375,0.375
0.31000000000000016,-3.0,-8.0,-25.0,-53.0,-15.0,-3.0,5.0,-3.0,0.26837158203125,0.5740966796875,-0.7213134765625,-0.27947998046875,-0.06689453125,-0.99609375,0.20703125,2.375,0.9375,0.375
0.31500000000000017,-3.0,-8.0,-25.0,-53.0,-15.0,-3.0,5.0,-3.0,0.26837158203125,0.5740966796875,-0.7213134765625,-0.27947998046875,-0.06689453125,-0.99609375,0.20703125,2.375,0.9375,0.375
0.3200000000000002,-1.0,-2.0,-6.0,-23.0,-9.0,-4.0,2.0,-1.0,0.26837158203125,0.5740966796875,-0.7213134765625,-0.27947998046875,-0.06689453125,-0.99609375,0.20703125,2.375,0.9375,0.375
0.3250000000000002,-1.0,-2.0,-6.0,-23.0,-9.0,-4.0,2.0,-1.0,0.26837158203125,0.5740966796875,-0.7213134765625,-0.27947998046875,-0.06689453125,-0.99609375,0.20703125,2.375,0.9375,0.375
0.3300000000000002,3.0,4.0,10.0,30.0,15.0,6.0,-4.0,2.0,0.268798828125,0.57415771484375,-0.72119140625,-0.279296875,-0.0693359375,-1.0029296875,0.1982421875,-1.5,1.4375,1.625
0.3350000000000002,3.0,4.0,10.0,30.0,15.0,6.0,-4.0,2.0,0.268798828125,0.57415771484375,-0.72119140625,-0.279296875,-0.0693359375,-1.0029296875,0.1982421875,-1.5,1.4375,1.625
0.3400000000000002,3.0,4.0,10.0,30.0,15.0,6.0,-4.0,2.0,0.268798828125,0.57415771484375,-0.72119140625,-0.279296875,-0.0693359375,-1.0029296875,0.1982421875,-1.5,1.4375,1.625
0.3450000000000002,3.0,4.0,10.0,30.0,15.0,6.0,-4.0,2.0,0.268798828125,0.57415771484375,-0.72119140625,-0.279296875,-0.0693359375,-1.0029296875,0.1982421875,-1.5,1.4375,1.625
0.3500000000000002,0.0,2.0,3.0,7.0,2.0,-6.0,1.0,1.0,0.26898193359375,0.57366943359375,-0.7215576171875,-0.27923583984375,-0.0673828125,-0.97802734375,0.203125,2.25,0.875,2.5625
0.3550000000000002,0.0,2.0,3.0,7.0,2.0,-6.0,1.0,1.0,0.26898193359375,0.57366943359375,-0.7215576171875,-0.27923583984375,-0.0673828125,-0.97802734375,0.203125,2.25,0.875,2.5625
0.3600000000000002,0.0,2.0,3.0,7.0,2.0,-6.0,1.0,1.0,0.26898193359375,0.57366943359375,-0.7215576171875,-0.27923583984375,-0.0673828125,-0.97802734375,0.203125,2.25,0.875,2.5625
0.3650000000000002,-3.0,0.0,1.0,4.0,-4.0,-2.0,-4.0,-1.0,0.26898193359375,0.57366943359375,-0.7215576171875,-0.27923583984375,-0.0673828125,-0.97802734375,0.203125,2.25,0.875,2.5625
0.3700000000000002,0.0,-1.0,0.0,-2.0,-5.0,-16.0,-8.0,-2.0,0.269287109375,0.57330322265625,-0.7218017578125,-0.2789306640625,-0.07080078125,-0.9736328125,0.19287109375,1.8125,0.25,2.9375
0.3750000000000002,0.0,-1.0,0.0,-2.0,-5.0,-16.0,-8.0,-2.0,0.269287109375,0.57330322265625,-0.7218017578125,-0.2789306640625,-0.07080078125,-0.9736328125,0.19287109375,1.8125,0.25,2.9375
0.3800000000000002,0.0,-1.0,0.0,-2.0,-5.0,-16.0,-8.0,-2.0,0.269287109375,0.57330322265625,-0.7218017578125,-0.2789306640625,-0.07080078125,-0.9736328125,0.19287109375,1.8125,0.25,2.9375
0.38500000000000023,0.0,-1.0,0.0,-2.0,-5.0,-16.0,-8.0,-2.0,0.269287109375,0.57330322265625,-0.7218017578125,-0.2789306640625,-0.07080078125,-0.9736328125,0.19287109375,1.8125,0.25,2.9375
0.39000000000000024,-1.0,0.0,2.0,8.0,7.0,16.0,9.0,0.0,0.269287109375,0.57330322265625,-0.7218017578125,-0.2789306640625,-0.07080078125,-0.9736328125,0.19287109375,1.8125,0.25,2.9375
0.39500000000000024,-2.0,-1.0,3.0,-1.0,2.0,-7.0,-5.0,-1.0,0.269287109375,0.57330322265625,-0.7218017578125,-0.2789306640625,-0.07080078125,-0.9736328125,0.19287109375,1.8125,0.25,2.9375
0.40000000000000024,-2.0,-1.0,3.0,-1.0,2.0,-7.0,-5.0,-1.0,0.269287109375,0.57330322265625,-0.7218017578125,-0.2789306640625,-0.07080078125,-0.9736328125,0.19287109375,1.8125,0.25,2.9375
0.40500000000000025,-2.0,-1.0,3.0,-1.0,2.0,-7.0,-5.0,-1.0,0.26953125,0.57293701171875,-0.72210693359375,-0.27874755859375,-0.06591796875,-0.990234375,0.2041015625,1.25,0.625,3.0
0.41000000000000025,-2.0,-1.0,3.0,-1.0,2.0,-7.0,-5.0,-1.0,0.26953125,0.57293701171875,-0.72210693359375,-0.27874755859375,-0.06591796875,-0.990234375,0.2041015625,1.25,0.625,3.0
0.41500000000000026,-1.0,-2.0,3.0,14.0,10.0,14.0,-1.0,2.0,0.26953125,0.57293701171875,-0.72210693359375,-0.27874755859375,-0.06591796875,-0.990234375,0.2041015625,1.25,0.625,3.0
0.42000000000000026,-1.0,-2.0,3.0,14.0,10.0,14.0,-1.0,2.0,0.26953125,0.57293701171875,-0.72210693359375,-0.27874755859375,-0.06591796875,-0.990234375,0.2041015625,1.25,0.625,3.0
0.42500000000000027,-1.0,-2.0,3.0,14.0,10.0,14.0,-1.0,2.0,0.2698974609375,0.572509765625,-0.7222900390625,-0.2786865234375,-0.06640625,-0.99609375,0.20068359375,1.625,1.75,2.75
0.43000000000000027,-1.0,-2.0,3.0,14.0,10.0,14.0,-1.0,2.0,0.2698974609375,0.572509765625,-0.7222900390625,-0.2786865234375,-0.06640625,-0.99609375,0.20068359375,1.625,1.75,2.75
0.4350000000000003,-1.0,-2.0,3.0,14.0,10.0,14.0,-1.0,2.0,0.2698974609375,0.572509765625,-0.7222900390625,-0.2786865234375,-0.06640625,-0.99609375,0.20068359375,1.625,1.75,2.75
0.4400000000000003,0.0,0.0,9.0,-2.0,-4.0,-7.0,-2.0,0.0,0.2698974609375,0.572509765625,-0.7222900390625,-0.2786865234375,-0.06640625,-0.99609375,0.20068359375,1.625,1.75,2.75
0.4450000000000003,0.0,0.0,9.0,-2.0,-4.0,-7.0,-2.0,0.0,0.27020263671875,0.57220458984375,-0.722412109375,-0.27880859375,-0.07177734375,-0.98876953125,0.203125,1.25,2.0,1.125
0.4500000000000003,0.0,0.0,9.0,-2.0,-4.0,-7.0,-2.0,0.0,0.27020263671875,0.57220458984375,-0.722412109375,-0.27880859375,-0.07177734375,-0.98876953125,0.203125,1.25,2.0,1.125
0.4550000000000003,0.0,0.0,9.0,-2.0,-4.0,-7.0,-2.0,0.0,0.27020263671875,0.57220458984375,-0.722412109375,-0.27880859375,-0.07177734375,-0.98876953125,0.203125,1.25,2.0,1.125
0.4600000000000003,0.0,0.0,-11.0,-27.0,2.0,10.0,1.0,0.0,0.27020263671875,0.57220458984375,-0.722412109375,-0.27880859375,-0.07177734375,-0.98876953125,0.203125,1.25,2.0,1.125
0.4650000000000003,-2.0,-1.0,2.0,-8.0,-8.0,-9.0,-4.0,-4.0,0.27044677734375,0.5721435546875,-0.7222900390625,-0.27886962890625,-0.06982421875,-0.99169921875,0.19921875,-0.25,1.375,0.8125
0.4700000000000003,-2.0,-1.0,2.0,-8.0,-8.0,-9.0,-4.0,-4.0,0.27044677734375,0.5721435546875,-0.7222900390625,-0.27886962890625,-0.06982421875,-0.99169921875,0.19921875,-0.25,1.375,0.8125
0.4750000000000003,-2.0,-4.0,-6.0,-11.0,-6.0,-5.0,-2.0,-2.0,0.27044677734375,0.5721435546875,-0.7222900390625,-0.27886962890625,-0.06982421875,-0.99169921875,0.19921875,-0.25,1.375,0.8125
0.4800000000000003,-1.0,-1.0,-7.0,-16.0,-4.0,3.0,1.0,2.0,0.27044677734375,0.5721435546875,-0.7222900390625,-0.27886962890625,-0.06982421875,-0.99169921875,0.19921875,-0.25,1.375,0.8125
0.4850000000000003,-1.0,1.0,0.0,0.0,9.0,8.0,7.0,3.0,0.27056884765625,0.57208251953125,-0.7222900390625,-0.27899169921875,-0.0693359375,-0.9912109375,0.19921875,0.3125,1.0,-0.1875
0.4900000000000003,-1.0,1.0,0.0,0.0,9.0,8.0,7.0,3.0,0.27056884765625,0.57208251953125,-0.7222900390625,-0.27899169921875,-0.0693359375,-0.9912109375,0.19921875,0.3125,1.0,-0.1875
0.49500000000000033,-1.0,-1.0,1.0,0.0,1.0,-4.0,-2.0,-4.0,0.27056884765625,0.57208251953125,-0.7222900390625,-0.27899169921875,-0.0693359375,-0.9912109375,0.19921875,0.3125,1.0,-0.1875
0.5000000000000003,-2.0,-1.0,-3.0,-2.0,-1.0,-10.0,-9.0,-3.0,0.27056884765625,0.57208251953125,-0.7222900390625,-0.27899169921875,-0.0693359375,-0.9912109375,0.19921875,0.3125,1.0,-0.1875
0.5050000000000003,2.0,-1.0,-2.0,2.0,-5.0,4.0,8.0,2.0,0.2703857421875,0.57196044921875,-0.7222900390625,-0.27935791015625,-0.0673828125,-0.98974609375,0.2099609375,0.875,0.625,-1.3125
0.5100000000000003,2.0,-1.0,-2.0,2.0,-5.0,4.0,8.0,2.0,0.2703857421875,0.57196044921875,-0.7222900390625,-0.27935791015625,-0.0673828125,-0.98974609375,0.2099609375,0.875,0.625,-1.3125
0.5150000000000003,2.0,-1.0,-2.0,2.0,-5.0,4.0,8.0,2.0,0.2703857421875,0.57196044921875,-0.7222900390625,-0.27935791015625,-0.0673828125,-0.98974609375,0.2099609375,0.875,0.625,-1.3125
0.5200000000000004,-2.0,-2.0,-11.0,-34.0,-4.0,-12.0,0.0,0.0,0.2703857421875,0.57196044921875,-0.7222900390625,-0.27935791015625,-0.0673828125,-0.98974609375,0.2099609375,0.875,0.625,-1.3125
0.5250000000000004,-2.0,-2.0,-11.0,-34.0,-4.0,-12.0,0.0,0.0,0.2703857421875,0.57196044921875,-0.7222900390625,-0.27935791015625,-0.0673828125,-0.98974609375,0.2099609375,0.875,0.625,-1.3125
0.5300000000000004,-1.0,-4.0,-3.0,4.0,-13.0,1.0,-3.0,-4.0,0.2703857421875,0.57196044921875,-0.7222900390625,-0.27935791015625,-0.0673828125,-0.98974609375,0.2099609375,0.875,0.625,-1.3125
0.5350000000000004,-1.0,-4.0,-3.0,4.0,-13.0,1.0,-3.0,-4.0,0.2701416015625,0.572021484375,-0.72222900390625,-0.27972412109375,-0.068359375,-0.99609375,0.205078125,0.1875,0.375,-2.4375
0.5400000000000004,-1.0,-4.0,-3.0,4.0,-13.0,1.0,-3.0,-4.0,0.2701416015625,0.572021484375,-0.72222900390625,-0.27972412109375,-0.068359375,-0.99609375,0.205078125,0.1875,0.375,-2.4375
0.5450000000000004,-1.0,-4.0,-3.0,4.0,-13.0,1.0,-3.0,-4.0,0.2701416015625,0.572021484375,-0.72222900390625,-0.27972412109375,-0.068359375,-0.99609375,0.205078125,0.1875,0.375,-2.4375
0.5500000000000004,1.0,1.0,1.0,11.0,-2.0,0.0,-4.0,-4.0,0.2701416015625,0.572021484375,-0.72222900390625,-0.27972412109375,-0.068359375,-0.99609375,0.205078125,0.1875,0.375,-2.4375
0.5550000000000004,1.0,1.0,1.0,11.0,-2.0,0.0,-4.0,-4.0,0.26983642578125,0.5721435546875,-0.72210693359375,-0.2801513671875,-0.06201171875,-1.00048828125,0.2060546875,0.1875,0.1875,-2.625
0.5600000000000004,1.0,1.0,1.0,11.0,-2.0,0.0,-4.0,-4.0,0.26983642578125,0.5721435546875,-0.72210693359375,-0.2801513671875,-0.06201171875,-1.00048828125,0.2060546875,0.1875,0.1875,-2.625
0.5650000000000004,-1.0,-1.0,0.0,-4.0,1.0,-1.0,-4.0,-2.0,0.26983642578125,0.5721435546875,-0.72210693359375,-0.2801513671875,-0.06201171875,-1.00048828125,0.2060546875,0.1875,0.1875,-2.625
0.5700000000000004,-1.0,-1.0,1.0,-4.0,0.0,1.0,-1.0,-1.0,0.26947021484375,0.5721435546875,-0.7220458984375,-0.28057861328125,-0.0703125,-0.9931640625,0.21142578125,0.5,-0.125,-3.1875
0.5750000000000004,-1.0,-1.0,1.0,-4.0,0.0,1.0,-1.0,-1.0,0.26947021484375,0.5721435546875,-0.7220458984375,-0.28057861328125,-0.0703125,-0.9931640625,0.21142578125,0.5,-0.125,-3.1875
0.5800000000000004,-1.0,-1.0,1.0,-4.0,0.0,1.0,-1.0,-1.0,0.26947021484375,0.5721435546875,-0.7220458984375,-0.28057861328125,-0.0703125,-0.9931640625,0.21142578125,0.5,-0.125,-3.1875
0.5850000000000004,0.0,0.0,2.0,11.0,-7.0,-4.0,3.0,-1.0,0.26947021484375,0.5721435546875,-0.7220458984375,-0.28057861328125,-0.0703125,-0.9931640625,0.21142578125,0.5,-0.125,-3.1875
0.5900000000000004,-1.0,0.0,1.0,0.0,5.0,7.0,4.0,-1.0,0.26910400390625,0.572265625,-0.72198486328125,-0.28082275390625,-0.06884765625,-0.9921875,0.21044921875,-0.6875,-0.6875,-2.375
0.5950000000000004,-1.0,0.0,1.0,0.0,5.0,7.0,4.0,-1.0,0.26910400390625,0.572265625,-0.72198486328125,-0.28082275390625,-0.06884765625,-0.9921875,0.21044921875,-0.6875,-0.6875,-2.375
0.6000000000000004,-1.0,0.0,1.0,0.0,5.0,7.0,4.0,-1.0,0.26910400390625,0.572265625,-0.72198486328125,-0.28082275390625,-0.06884765625,-0.9921875,0.21044921875,-0.6875,-0.6875,-2.375
0.6050000000000004,-3.0,-3.0,-12.0,-30.0,-14.0,3.0,-5.0,-3.0,0.26910400390625,0.572265625,-0.72198486328125,-0.28082275390625,-0.06884765625,-0.9921875,0.21044921875,-0.6875,-0.6875,-2.375
0.6100000000000004,-3.0,-3.0,-12.0,-30.0,-14.0,3.0,-5.0,-3.0,0.26910400390625,0.572265625,-0.72198486328125,-0.28082275390625,-0.06884765625,-0.9921875,0.21044921875,-0.6875,-0.6875,-2.375
0.6150000000000004,-3.0,-3.0,-12.0,-30.0,-14.0,3.0,-5.0,-3.0,0.26885986328125,0.572509765625,-0.7218017578125,-0.281005859375,-0.06982421875,-0.99609375,0.201171875,-0.5625,-0.5625,-2.6875
0.6200000000000004,-3.0,-3.0,-12.0,-30.0,-14.0,3.0,-5.0,-3.0,0.26885986328125,0.572509765625,-0.7218017578125,-0.281005859375,-0.06982421875,-0.99609375,0.201171875,-0.5625,-0.5625,-2.6875
0.6250000000000004,-2.0,-1.0,3.0,25.0,11.0,10.0,2.0,-1.0,0.26885986328125,0.572509765625,-0.7218017578125,-0.281005859375,-0.06982421875,-0.99609375,0.201171875,-0.5625,-0.5625,-2.6875
0.6300000000000004,-2.0,-1.0,3.0,25.0,11.0,10.0,2.0,-1.0,0.26885986328125,0.572509765625,-0.7218017578125,-0.281005859375,-0.06982421875,-0.99609375,0.201171875,-0.5625,-0.5625,-2.6875
0.6350000000000005,-1.0,0.0,-1.0,2.0,4.0,-9.0,-1.0,-1.0,0.26885986328125,0.572509765625,-0.7218017578125,-0.281005859375,-0.06982421875,-0.99609375,0.201171875,-0.5625,-0.5625,-2.6875
0.6400000000000005,-1.0,0.0,-1.0,2.0,4.0,-9.0,-1.0,-1.0,0.26885986328125,0.572509765625,-0.7218017578125,-0.281005859375,-0.06982421875,-0.99609375,0.201171875,-0.5625,-0.5625,-2.6875
0.6450000000000005,-1.0,0.0,-1.0,2.0,4.0,-9.0,-1.0,-1.0,0.2686767578125,0.5726318359375,-0.7216796875,-0.28125,-0.07470703125,-0.9912109375,0.19921875,0.0625,-0.0625,-2.5
0.6500000000000005,-1.0,0.0,-1.0,2.0,4.0,-9.0,-1.0,-1.0,0.2686767578125,0.5726318359375,-0.7216796875,-0.28125,-0.07470703125,-0.9912109375,0.19921875,0.0625,-0.0625,-2.5
0.6550000000000005,-1.0,0.0,2.0,-3.0,-5.0,5.0,-1.0,1.0,0.2686767578125,0.5726318359375,-0.7216796875,-0.28125,-0.07470703125,-0.9912109375,0.19921875,0.0625,-0.0625,-2.5
0.6600000000000005,-1.0,0.0,2.0,-3.0,-5.0,5.0,-1.0,1.0,0.2686767578125,0.5726318359375,-0.7216796875,-0.28125,-0.07470703125,-0.9912109375,0.19921875,0.0625,-0.0625,-2.5
0.6650000000000005,-2.0,-1.0,2.0,13.0,2.0,-4.0,-2.0,-2.0,0.268310546875,0.57244873046875,-0.7218017578125,-0.28155517578125,-0.07080078125,-0.99169921875,0.2041015625,2.0,-0.375,-2.1875
0.6700000000000005,-2.0,-1.0,2.0,13.0,2.0,-4.0,-2.0,-2.0,0.268310546875,0.57244873046875,-0.7218017578125,-0.28155517578125,-0.07080078125,-0.99169921875,0.2041015625,2.0,-0.375,-2.1875
0.6750000000000005,-2.0,-1.0,2.0,13.0,2.0,-4.0,-2.0,-2.0,0.268310546875,0.57244873046875,-0.7218017578125,-0.28155517578125,-0.07080078125,-0.99169921875,0.2041015625,2.0,-0.375,-2.1875
0.6800000000000005,-2.0,-1.0,2.0,13.0,2.0,-4.0,-2.0,-2.0,0.268310546875,0.57244873046875,-0.7218017578125,-0.28155517578125,-0.07080078125,-0.99169921875,0.2041015625,2.0,-0.375,-2.1875
0.6850000000000005,0.0,0.0,0.0,9.0,10.0,-9.0,2.0,1.0,0.268310546875,0.57244873046875,-0.7218017578125,-0.28155517578125,-0.07080078125,-0.99169921875,0.2041015625,2.0,-0.375,-2.1875
0.6900000000000005,0.0,0.0,0.0,9.0,10.0,-9.0,2.0,1.0,0.268310546875,0.57244873046875,-0.7218017578125,-0.28155517578125,-0.07080078125,-0.99169921875,0.2041015625,2.0,-0.375,-2.1875
0.6950000000000005,0.0,0.0,0.0,9.0,10.0,-9.0,2.0,1.0,0.2681884765625,0.57232666015625,-0.72186279296875,-0.28179931640625,-0.07275390625,-0.98486328125,0.19482421875,1.5625,0.0625,-1.875
0.7000000000000005,0.0,0.0,0.0,9.0,10.0,-9.0,2.0,1.0,0.2681884765625,0.57232666015625,-0.72186279296875,-0.28179931640625,-0.07275390625,-0.98486328125,0.19482421875,1.5625,0.0625,-1.875
0.7050000000000005,-1.0,-1.0,1.0,2.0,5.0,11.0,6.0,1.0,0.2681884765625,0.57232666015625,-0.72186279296875,-0.28179931640625,-0.07275390625,-0.98486328125,0.19482421875,1.5625,0.0625,-1.875
0.7100000000000005,-1.0,-1.0,1.0,2.0,5.0,11.0,6.0,1.0,0.2681884765625,0.57232666015625,-0.72186279296875,-0.28179931640625,-0.07275390625,-0.98486328125,0.19482421875,1.5625,0.0625,-1.875
0.7150000000000005,-1.0,-1.0,-1.0,-8.0,-10.0,-9.0,-7.0,-4.0,0.2681884765625,0.57232666015625,-0.72186279296875,-0.28179931640625,-0.07275390625,-0.98486328125,0.19482421875,1.5625,0.0625,-1.875
0.7200000000000005,-1.0,-1.0,-1.0,-8.0,-10.0,-9.0,-7.0,-4.0,0.2681884765625,0.57232666015625,-0.72186279296875,-0.28179931640625,-0.07275390625,-0.98486328125,0.19482421875,1.5625,0.0625,-1.875
0.7250000000000005,-1.0,-1.0,-1.0,-8.0,-10.0,-9.0,-7.0,-4.0,0.26812744140625,0.57220458984375,-0.721923828125,-0.28204345703125,-0.06494140625,-0.98291015625,0.2021484375,1.0,0.5625,-0.8125
0.7300000000000005,-1.0,-1.0,-1.0,-8.0,-10.0,-9.0,-7.0,-4.0,0.26812744140625,0.57220458984375,-0.721923828125,-0.28204345703125,-0.06494140625,-0.98291015625,0.2021484375,1.0,0.5625,-0.8125
0.7350000000000005,1.0,-2.0,2.0,9.0,-2.0,-5.0,-7.0,-1.0,0.26812744140625,0.57220458984375,-0.721923828125,-0.28204345703125,-0.06494140625,-0.98291015625,0.2021484375,1.0,0.5625,-0.8125
0.7400000000000005,1.0,-2.0,2.0,9.0,-2.0,-5.0,-7.0,-1.0,0.26812744140625,0.57220458984375,-0.721923828125,-0.28204345703125,-0.06494140625,-0.98291015625,0.2021484375,1.0,0.5625,-0.8125
0.7450000000000006,-2.0,-2.0,3.0,8.0,5.0,12.0,4.0,2.0,0.26812744140625,0.57220458984375,-0.72186279296875,-0.28204345703125,-0.07080078125,-0.99169921875,0.1982421875,0.75,0.875,-0.25
0.7500000000000006,-2.0,-2.0,3.0,8.0,5.0,12.0,4.0,2.0,0.26812744140625,0.57220458984375,-0.72186279296875,-0.28204345703125,-0.07080078125,-0.99169921875,0.1982421875,0.75,0.875,-0.25
0.7550000000000006,-2.0,-2.0,3.0,8.0,5.0,12.0,4.0,2.0,0.26812744140625,0.57220458984375,-0.72186279296875,-0.28204345703125,-0.07080078125,-0.99169921875,0.1982421875,0.75,0.875,-0.25
0.7600000000000006,-2.0,-2.0,3.0,8.0,5.0,12.0,4.0,2.0,0.26812744140625,0.57220458984375,-0.72186279296875,-0.28204345703125,-0.07080078125,-0.99169921875,0.1982421875,0.75,0.875,-0.25
0.7650000000000006,0.0,-3.0,-3.0,10.0,2.0,1.0,3.0,-1.0,0.26812744140625,0.57220458984375,-0.72186279296875,-0.28204345703125,-0.07080078125,-0.99169921875,0.1982421875,0.75,0.875,-0.25
0.7700000000000006,0.0,-3.0,-3.0,10.0,2.0,1.0,3.0,-1.0,0.26812744140625,0.57220458984375,-0.72186279296875,-0.28204345703125,-0.07080078125,-0.99169921875,0.1982421875,0.75,0.875,-0.25
0.7750000000000006,0.0,-3.0,-3.0,10.0,2.0,1.0,3.0,-1.0,0.268310546875,0.5721435546875,-0.7218017578125,-0.28216552734375,-0.0595703125,-0.982421875,0.19384765625,0.6875,1.625,0.3125
0.7800000000000006,0.0,-3.0,-3.0,10.0,2.0,1.0,3.0,-1.0,0.268310546875,0.5721435546875,-0.7218017578125,-0.28216552734375,-0.0595703125,-0.982421875,0.19384765625,0.6875,1.625,0.3125
0.7850000000000006,0.0,-2.0,-1.0,20.0,4.0,2.0,-4.0,-2.0,0.268310546875,0.5721435546875,-0.7218017578125,-0.28216552734375,-0.0595703125,-0.982421875,0.19384765625,0.6875,1.625,0.3125
0.7900000000000006,0.0,-2.0,-1.0,20.0,4.0,2.0,-4.0,-2.0,0.268310546875,0.5721435546875,-0.7218017578125,-0.28216552734375,-0.0595703125,-0.982421875,0.19384765625,0.6875,1.625,0.3125
0.7950000000000006,-3.0,-1.0,-4.0,-5.0,-6.0,-9.0,-4.0,-1.0,0.268310546875,0.5721435546875,-0.7218017578125,-0.28216552734375,-0.0595703125,-0.982421875,0.19384765625,0.6875,1.625,0.3125
0.8000000000000006,-3.0,-1.0,-4.0,-5.0,-6.0,-9.0,-4.0,-1.0,0.268310546875,0.5721435546875,-0.7218017578125,-0.28216552734375,-0.0595703125,-0.982421875,0.19384765625,0.6875,1.625,0.3125
0.8050000000000006,-3.0,-1.0,-4.0,-5.0,-6.0,-9.0,-4.0,-1.0,0.26873779296875,0.57220458984375,-0.72161865234375,-0.2822265625,-0.064453125,-0.9833984375,0.18994140625,-0.9375,1.75,0.625
0.8100000000000006,-3.0,-1.0,-4.0,-5.0,-6.0,-9.0,-4.0,-1.0,0.26873779296875,0.57220458984375,-0.72161865234375,-0.2822265625,-0.064453125,-0.9833984375,0.18994140625,-0.9375,1.75,0.625
0.8150000000000006,-1.0,0.0,0.0,-5.0,-6.0,-7.0,-1.0,-3.0,0.26873779296875,0.57220458984375,-0.72161865234375,-0.2822265625,-0.064453125,-0.9833984375,0.18994140625,-0.9375,1.75,0.625
0.8200000000000006,-1.0,0.0,0.0,-5.0,-6.0,-7.0,-1.0,-3.0,0.26873779296875,0.57220458984375,-0.72161865234375,-0.2822265625,-0.064453125,-0.9833984375,0.18994140625,-0.9375,1.75,0.625
0.8250000000000006,-2.0,0.0,-2.0,-9.0,-5.0,-7.0,-4.0,-1.0,0.26885986328125,0.57220458984375,-0.72149658203125,-0.2823486328125,-0.05810546875,-0.9951171875,0.201171875,-0.1875,1.125,0.375
0.8300000000000006,-2.0,0.0,-2.0,-9.0,-5.0,-7.0,-4.0,-1.0,0.26885986328125,0.57220458984375,-0.72149658203125,-0.2823486328125,-0.05810546875,-0.9951171875,0.201171875,-0.1875,1.125,0.375
0.8350000000000006,-2.0,0.0,-2.0,-9.0,-5.0,-7.0,-4.0,-1.0,0.26885986328125,0.57220458984375,-0.72149658203125,-0.2823486328125,-0.05810546875,-0.9951171875,0.201171875,-0.1875,1.125,0.375
0.8400000000000006,-2.0,0.0,-2.0,-9.0,-5.0,-7.0,-4.0,-1.0,0.26885986328125,0.57220458984375,-0.72149658203125,-0.2823486328125,-0.05810546875,-0.9951171875,0.201171875,-0.1875,1.125,0.375
0.8450000000000006,0.0,0.0,-1.0,-8.0,8.0,9.0,0.0,0.0,0.26885986328125,0.57220458984375,-0.72149658203125,-0.2823486328125,-0.05810546875,-0.9951171875,0.201171875,-0.1875,1.125,0.375
0.8500000000000006,0.0,0.0,-1.0,-8.0,8.0,9.0,0.0,0.0,0.26885986328125,0.57220458984375,-0.72149658203125,-0.2823486328125,-0.05810546875,-0.9951171875,0.201171875,-0.1875,1.125,0.375
0.8550000000000006,0.0,0.0,-1.0,-8.0,8.0,9.0,0.0,0.0,0.26885986328125,0.57220458984375,-0.721435546875,-0.2825927734375,-0.0576171875,-0.99609375,0.20068359375,0.25,1.25,-0.6875
0.8600000000000007,0.0,0.0,-1.0,-8.0,8.0,9.0,0.0,0.0,0.26885986328125,0.57220458984375,-0.721435546875,-0.2825927734375,-0.0576171875,-0.99609375,0.20068359375,0.25,1.25,-0.6875
0.8650000000000007,-1.0,-1.0,3.0,23.0,-2.0,3.0,-2.0,-1.0,0.26885986328125,0.57220458984375,-0.721435546875,-0.2825927734375,-0.0576171875,-0.99609375,0.20068359375,0.25,1.25,-0.6875
0.8700000000000007,-1.0,-1.0,3.0,23.0,-2.0,3.0,-2.0,-1.0,0.26885986328125,0.57220458984375,-0.721435546875,-0.2825927734375,-0.0576171875,-0.99609375,0.20068359375,0.25,1.25,-0.6875
0.8750000000000007,-1.0,-3.0,-8.0,-5.0,-2.0,-1.0,0.0,0.0,0.26885986328125,0.57220458984375,-0.721435546875,-0.2825927734375,-0.0576171875,-0.99609375,0.20068359375,0.25,1.25,-0.6875
0.8800000000000007,-1.0,-3.0,-8.0,-5.0,-2.0,-1.0,0.0,0.0,0.2686767578125,0.572265625,-0.72125244140625,-0.28302001953125,-0.0498046875,-0.98876953125,0.20458984375,-0.125,0.9375,-1.5
0.8850000000000007,-1.0,-3.0,-8.0,-5.0,-2.0,-1.0,0.0,0.0,0.2686767578125,0.572265625,-0.72125244140625,-0.28302001953125,-0.0498046875,-0.98876953125,0.20458984375,-0.125,0.9375,-1.5
0.8900000000000007,-1.0,1.0,0.0,-7.0,-6.0,-10.0,-1.0,-4.0,0.2686767578125,0.572265625,-0.72125244140625,-0.28302001953125,-0.0498046875,-0.98876953125,0.20458984375,-0.125,0.9375,-1.5
0.8950000000000007,-1.0,1.0,0.0,-7.0,-6.0,-10.0,-1.0,-4.0,0.2686767578125,0.572265625,-0.72125244140625,-0.28302001953125,-0.0498046875,-0.98876953125,0.20458984375,-0.125,0.9375,-1.5
0.9000000000000007,-1.0,-1.0,0.0,-16.0,2.0,8.0,3.0,-1.0,0.268310546875,0.57244873046875,-0.72113037109375,-0.28338623046875,-0.0478515625,-0.99755859375,0.2216796875,-1.0625,0.0,-2.25
0.9050000000000007,-1.0,-1.0,0.0,-16.0,2.0,8.0,3.0,-1.0,0.268310546875,0.57244873046875,-0.72113037109375,-0.28338623046875,-0.0478515625,-0.99755859375,0.2216796875,-1.0625,0.0,-2.25
0.9100000000000007,-2.0,-3.0,-7.0,-28.0,-6.0,-13.0,-5.0,0.0,0.268310546875,0.57244873046875,-0.72113037109375,-0.28338623046875,-0.0478515625,-0.99755859375,0.2216796875,-1.0625,0.0,-2.25
0.9150000000000007,0.0,0.0,2.0,7.0,5.0,17.0,4.0,2.0,0.268310546875,0.57244873046875,-0.72113037109375,-0.28338623046875,-0.0478515625,-0.99755859375,0.2216796875,-1.0625,0.0,-2.25
0.9200000000000007,0.0,0.0,2.0,7.0,5.0,17.0,4.0,2.0,0.268310546875,0.57244873046875,-0.72113037109375,-0.28338623046875,-0.0478515625,-0.99755859375,0.2216796875,-1.0625,0.0,-2.25
0.9250000000000007,0.0,0.0,2.0,7.0,5.0,17.0,4.0,2.0,0.26776123046875,0.57257080078125,-0.7210693359375,-0.28387451171875,-0.04443359375,-0.99267578125,0.21484375,0.0,-0.6875,-2.875
0.9300000000000007,1.0,-1.0,-1.0,7.0,3.0,-2.0,-7.0,-2.0,0.26776123046875,0.57257080078125,-0.7210693359375,-0.28387451171875,-0.04443359375,-0.99267578125,0.21484375,0.0,-0.6875,-2.875
0.9350000000000007,1.0,-1.0,-1.0,7.0,3.0,-2.0,-7.0,-2.0,0.26776123046875,0.57257080078125,-0.7210693359375,-0.28387451171875,-0.04443359375,-0.99267578125,0.21484375,0.0,-0.6875,-2.875
0.9400000000000007,-2.0,-1.0,0.0,2.0,4.0,3.0,2.0,-3.0,0.26776123046875,0.57257080078125,-0.7210693359375,-0.28387451171875,-0.04443359375,-0.99267578125,0.21484375,0.0,-0.6875,-2.875
0.9450000000000007,-1.0,0.0,0.0,-8.0,-7.0,-14.0,-5.0,-4.0,0.26776123046875,0.57257080078125,-0.7210693359375,-0.28387451171875,-0.04443359375,-0.99267578125,0.21484375,0.0,-0.6875,-2.875
0.9500000000000007,-1.0,0.0,0.0,-8.0,-7.0,-14.0,-5.0,-4.0,0.26708984375,0.5726318359375,-0.7210693359375,-0.2843017578125,-0.046875,-0.99853515625,0.21533203125,0.875,-1.3125,-3.4375
0.9550000000000007,-1.0,-1.0,-1.0,5.0,-1.0,5.0,0.0,0.0,0.26708984375,0.5726318359375,-0.7210693359375,-0.2843017578125,-0.046875,-0.99853515625,0.21533203125,0.875,-1.3125,-3.4375
0.9600000000000007,-1.0,-1.0,-1.0,5.0,-1.0,5.0,0.0,0.0,0.26708984375,0.5726318359375,-0.7210693359375,-0.2843017578125,-0.046875,-0.99853515625,0.21533203125,0.875,-1.3125,-3.4375
0.9650000000000007,-1.0,-1.0,-1.0,8.0,-3.0,-1.0,-2.0,1.0,0.26708984375,0.5726318359375,-0.7210693359375,-0.2843017578125,-0.046875,-0.99853515625,0.21533203125,0.875,-1.3125,-3.4375
0.9700000000000008,-1.0,-1.0,-1.0,8.0,-3.0,-1.0,-2.0,1.0,0.2662353515625,0.57275390625,-0.7210693359375,-0.28485107421875,-0.046875,-0.99365234375,0.21630859375,0.8125,-1.75,-4.1875
0.9750000000000008,-1.0,-1.0,-1.0,8.0,-3.0,-1.0,-2.0,1.0,0.2662353515625,0.57275390625,-0.7210693359375,-0.28485107421875,-0.046875,-0.99365234375,0.21630859375,0.8125,-1.75,-4.1875
0.9800000000000008,0.0,-1.0,4.0,-10.0,-6.0,2.0,-1.0,-2.0,0.2662353515625,0.57275390625,-0.7210693359375,-0.28485107421875,-0.046875,-0.99365234375,0.21630859375,0.8125,-1.75,-4.1875
0.9850000000000008,0.0,-1.0,4.0,-10.0,-6.0,2.0,-1.0,-2.0,0.2662353515625,0.57275390625,-0.7210693359375,-0.28485107421875,-0.046875,-0.99365234375,0.21630859375,0.8125,-1.75,-4.1875
0.9900000000000008,-2.0,-2.0,1.0,-4.0,-5.0,-4.0,2.0,-2.0,0.2662353515625,0.57275390625,-0.7210693359375,-0.28485107421875,-0.046875,-0.99365234375,0.21630859375,0.8125,-1.75,-4.1875
0.9950000000000008,-1.0,-1.0,0.0,16.0,9.0,5.0,3.0,1.0,0.26544189453125,0.5728759765625,-0.7210693359375,-0.2855224609375,-0.04638671875,-0.99169921875,0.21484375,1.25,-1.125,-4.875
1.0000000000000007,-1.0,-1.0,0.0,16.0,9.0,5.0,3.0,1.0,0.26544189453125,0.5728759765625,-0.7210693359375,-0.2855224609375,-0.04638671875,-0.99169921875,0.21484375,1.25,-1.125,-4.875
1.0050000000000006,-1.0,-3.0,1.0,24.0,-8.0,-1.0,-2.0,-2.0,0.26544189453125,0.5728759765625,-0.7210693359375,-0.2855224609375,-0.04638671875,-0.99169921875,0.21484375,1.25,-1.125,-4.875
1.0100000000000005,-1.0,-3.0,1.0,24.0,-8.0,-1.0,-2.0,-2.0,0.26483154296875,0.5728759765625,-0.72100830078125,-0.28607177734375,-0.0576171875,-0.9912109375,0.2119140625,0.9375,-0.5625,-4.75
1.0150000000000003,-1.0,-3.0,1.0,24.0,-8.0,-1.0,-2.0,-2.0,0.26483154296875,0.5728759765625,-0.72100830078125,-0.28607177734375,-0.0576171875,-0.9912109375,0.2119140625,0.9375,-0.5625,-4.75
1.0200000000000002,-1.0,0.0,2.0,31.0,6.0,-1.0,0.0,3.0,0.26483154296875,0.5728759765625,-0.72100830078125,-0.28607177734375,-0.0576171875,-0.9912109375,0.2119140625,0.9375,-0.5625,-4.75
1.0250000000000001,-1.0,0.0,2.0,31.0,6.0,-1.0,0.0,3.0,0.26483154296875,0.5728759765625,-0.72100830078125,-0.28607177734375,-0.0576171875,-0.9912109375,0.2119140625,0.9375,-0.5625,-4.75
1.03,-2.0,-2.0,-1.0,-15.0,-8.0,-3.0,-2.0,-3.0,0.26434326171875,0.57305908203125,-0.720703125,-0.28680419921875,-0.05615234375,-0.998046875,0.20654296875,0.375,0.375,-5.5
1.035,-2.0,-2.0,-1.0,-15.0,-8.0,-3.0,-2.0,-3.0,0.26434326171875,0.57305908203125,-0.720703125,-0.28680419921875,-0.05615234375,-0.998046875,0.20654296875,0.375,0.375,-5.5
1.0399999999999998,-1.0,-2.0,-1.0,-10.0,-12.0,-13.0,-2.0,-3.0,0.26434326171875,0.57305908203125,-0.720703125,-0.28680419921875,-0.05615234375,-0.998046875,0.20654296875,0.375,0.375,-5.5
1.0449999999999997,1.0,1.0,3.0,16.0,14.0,14.0,7.0,2.0,0.26434326171875,0.57305908203125,-0.720703125,-0.28680419921875,-0.05615234375,-0.998046875,0.20654296875,0.375,0.375,-5.5
1.0499999999999996,0.0,-1.0,0.0,7.0,10.0,4.0,-1.0,0.0,0.26397705078125,0.5731201171875,-0.72052001953125,-0.28765869140625,-0.0537109375,-0.99267578125,0.20263671875,1.125,1.375,-5.4375
1.0549999999999995,-3.0,-1.0,-2.0,-6.0,-2.0,-7.0,-6.0,-2.0,0.26397705078125,0.5731201171875,-0.72052001953125,-0.28765869140625,-0.0537109375,-0.99267578125,0.20263671875,1.125,1.375,-5.4375
1.0599999999999994,-3.0,-1.0,-2.0,-6.0,-2.0,-7.0,-6.0,-2.0,0.26397705078125,0.5731201171875,-0.72052001953125,-0.28765869140625,-0.0537109375,-0.99267578125,0.20263671875,1.125,1.375,-5.4375
1.0649999999999993,-1.0,-1.0,-2.0,-10.0,-10.0,-12.0,-7.0,-2.0,0.26397705078125,0.5731201171875,-0.72052001953125,-0.28765869140625,-0.0537109375,-0.99267578125,0.20263671875,1.125,1.375,-5.4375
1.0699999999999992,-1.0,-1.0,-2.0,-10.0,-10.0,-12.0,-7.0,-2.0,0.26397705078125,0.5731201171875,-0.72052001953125,-0.28765869140625,-0.0537109375,-0.99267578125,0.20263671875,1.125,1.375,-5.4375
1.074999999999999,-1.0,-1.0,-2.0,-10.0,-10.0,-12.0,-7.0,-2.0,0.26397705078125,0.5731201171875,-0.72052001953125,-0.28765869140625,-0.0537109375,-0.99267578125,0.20263671875,1.125,1.375,-5.4375
1.079999999999999,-1.0,-1.0,-2.0,-10.0,-10.0,-12.0,-7.0,-2.0,0.26397705078125,0.5731201171875,-0.72052001953125,-0.28765869140625,-0.0537109375,-0.99267578125,0.20263671875,1.125,1.375,-5.4375
1.0849999999999989,-1.0,-1.0,-2.0,-10.0,-10.0,-12.0,-7.0,-2.0,0.263671875,0.572998046875,-0.7203369140625,-0.28857421875,-0.05859375,-0.97802734375,0.201171875,2.125,2.0,-5.3125
1.0899999999999987,-3.0,-4.0,-6.0,-1.0,-2.0,9.0,0.0,0.0,0.263671875,0.572998046875,-0.7203369140625,-0.28857421875,-0.05859375,-0.97802734375,0.201171875,2.125,2.0,-5.3125
1.0949999999999986,-2.0,-1.0,0.0,-2.0,4.0,3.0,1.0,-1.0,0.263671875,0.572998046875,-0.7200927734375,-0.28924560546875,-0.0625,-0.98583984375,0.19677734375,0.6875,2.4375,-4.375
1.0999999999999985,-2.0,-1.0,0.0,-2.0,4.0,3.0,1.0,-1.0,0.263671875,0.572998046875,-0.7200927734375,-0.28924560546875,-0.0625,-0.98583984375,0.19677734375,0.6875,2.4375,-4.375
1.1049999999999984,-2.0,-1.0,0.0,-2.0,4.0,3.0,1.0,-1.0,0.263671875,0.572998046875,-0.7200927734375,-0.28924560546875,-0.0625,-0.98583984375,0.19677734375,0.6875,2.4375,-4.375
1.1099999999999983,-2.0,-1.0,0.0,-2.0,4.0,3.0,1.0,-1.0,0.263671875,0.572998046875,-0.7200927734375,-0.28924560546875,-0.0625,-0.98583984375,0.19677734375,0.6875,2.4375,-4.375
1.1149999999999982,1.0,-1.0,-2.0,-3.0,-2.0,5.0,-4.0,1.0,0.2637939453125,0.572998046875,-0.7197265625,-0.2899169921875,-0.05908203125,-0.9912109375,0.201171875,-0.125,3.25,-3.6875
1.119999999999998,1.0,-1.0,-2.0,-3.0,-2.0,5.0,-4.0,1.0,0.2637939453125,0.572998046875,-0.7197265625,-0.2899169921875,-0.05908203125,-0.9912109375,0.201171875,-0.125,3.25,-3.6875
1.124999999999998,-4.0,-4.0,-3.0,-12.0,-1.0,7.0,4.0,-1.0,0.2637939453125,0.572998046875,-0.7197265625,-0.2899169921875,-0.05908203125,-0.9912109375,0.201171875,-0.125,3.25,-3.6875
1.129999999999998,-2.0,-3.0,-5.0,-20.0,-9.0,-16.0,-4.0,0.0,0.2637939453125,0.572998046875,-0.7197265625,-0.2899169921875,-0.05908203125,-0.9912109375,0.201171875,-0.125,3.25,-3.6875
1.1349999999999978,-2.0,-3.0,-5.0,-20.0,-9.0,-16.0,-4.0,0.0,0.2637939453125,0.572998046875,-0.7197265625,-0.2899169921875,-0.05908203125,-0.9912109375,0.201171875,-0.125,3.25,-3.6875
1.1399999999999977,-2.0,-3.0,-5.0,-20.0,-9.0,-16.0,-4.0,0.0,0.2640380859375,0.57281494140625,-0.71954345703125,-0.29058837890625,-0.06396484375,-0.9892578125,0.19873046875,1.4375,3.25,-3.125
1.1449999999999976,-2.0,-3.0,-5.0,-20.0,-9.0,-16.0,-4.0,0.0,0.2640380859375,0.57281494140625,-0.71954345703125,-0.29058837890625,-0.06396484375,-0.9892578125,0.19873046875,1.4375,3.25,-3.125
1.1499999999999975,1.0,-1.0,-4.0,-13.0,-3.0,9.0,5.0,-2.0,0.2640380859375,0.57281494140625,-0.71954345703125,-0.29058837890625,-0.06396484375,-0.9892578125,0.19873046875,1.4375,3.25,-3.125
1.1549999999999974,1.0,-1.0,-4.0,-13.0,-3.0,9.0,5.0,-2.0,0.2640380859375,0.57281494140625,-0.71954345703125,-0.29058837890625,-0.06396484375,-0.9892578125,0.19873046875,1.4375,3.25,-3.125
1.1599999999999973,-1.0,-2.0,-5.0,0.0,-2.0,-4.0,-1.0,-2.0,0.264404296875,0.5726318359375,-0.7193603515625,-0.291015625,-0.0625,-0.98583984375,0.1953125,0.875,3.3125,-1.75
1.1649999999999971,-1.0,-2.0,-5.0,0.0,-2.0,-4.0,-1.0,-2.0,0.264404296875,0.5726318359375,-0.7193603515625,-0.291015625,-0.0625,-0.98583984375,0.1953125,0.875,3.3125,-1.75
1.169999999999997,-1.0,-2.0,-5.0,0.0,-2.0,-4.0,-1.0,-2.0,0.264404296875,0.5726318359375,-0.7193603515625,-0.291015625,-0.0625,-0.98583984375,0.1953125,0.875,3.3125,-1.75
1.174999999999997,-1.0,-2.0,-5.0,0.0,-2.0,-4.0,-1.0,-2.0,0.264404296875,0.5726318359375,-0.7193603515625,-0.291015625,-0.0625,-0.98583984375,0.1953125,0.875,3.3125,-1.75
1.1799999999999968,-1.0,0.0,4.0,-2.0,-4.0,-3.0,-1.0,-1.0,0.26483154296875,0.572509765625,-0.71917724609375,-0.2913818359375,-0.06396484375,-0.99072265625,0.19580078125,0.0625,3.1875,-1.25
1.1849999999999967,-1.0,0.0,4.0,-2.0,-4.0,-3.0,-1.0,-1.0,0.26483154296875,0.572509765625,-0.71917724609375,-0.2913818359375,-0.06396484375,-0.99072265625,0.19580078125,0.0625,3.1875,-1.25
1.1899999999999966,-1.0,0.0,4.0,-2.0,-4.0,-3.0,-1.0,-1.0,0.26483154296875,0.572509765625,-0.71917724609375,-0.2913818359375,-0.06396484375,-0.99072265625,0.19580078125,0.0625,3.1875,-1.25
1.1949999999999965,-1.0,0.0,4.0,-2.0,-4.0,-3.0,-1.0,-1.0,0.26483154296875,0.572509765625,-0.71917724609375,-0.2913818359375,-0.06396484375,-0.99072265625,0.19580078125,0.0625,3.1875,-1.25
1.1999999999999964,-1.0,0.0,2.0,6.0,10.0,8.0,2.0,-2.0,0.26483154296875,0.572509765625,-0.71917724609375,-0.2913818359375,-0.06396484375,-0.99072265625,0.19580078125,0.0625,3.1875,-1.25
1.2049999999999963,-1.0,0.0,2.0,6.0,10.0,8.0,2.0,-2.0,0.26531982421875,0.572509765625,-0.71893310546875,-0.29150390625,-0.0634765625,-0.9970703125,0.18994140625,-0.3125,2.5,-0.25
1.2099999999999962,-1.0,0.0,2.0,6.0,10.0,8.0,2.0,-2.0,0.26531982421875,0.572509765625,-0.71893310546875,-0.29150390625,-0.0634765625,-0.9970703125,0.18994140625,-0.3125,2.5,-0.25
1.214999999999996,-1.0,-1.0,-2.0,-7.0,-3.0,7.0,-1.0,-1.0,0.26531982421875,0.572509765625,-0.71893310546875,-0.29150390625,-0.0634765625,-0.9970703125,0.18994140625,-0.3125,2.5,-0.25
1.219999999999996,-1.0,-1.0,-2.0,-7.0,-3.0,7.0,-1.0,-1.0,0.26531982421875,0.572509765625,-0.71893310546875,-0.29150390625,-0.0634765625,-0.9970703125,0.18994140625,-0.3125,2.5,-0.25
1.2249999999999959,0.0,-1.0,-4.0,-4.0,0.0,-5.0,1.0,0.0,0.26531982421875,0.572509765625,-0.71893310546875,-0.29150390625,-0.0634765625,-0.9970703125,0.18994140625,-0.3125,2.5,-0.25
1.2299999999999958,0.0,-1.0,-4.0,-4.0,0.0,-5.0,1.0,0.0,0.265869140625,0.57244873046875,-0.71881103515625,-0.29156494140625,-0.06689453125,-0.9912109375,0.19287109375,0.0,2.25,0.0625
1.2349999999999957,0.0,-1.0,-4.0,-4.0,0.0,-5.0,1.0,0.0,0.265869140625,0.57244873046875,-0.71881103515625,-0.29156494140625,-0.06689453125,-0.9912109375,0.19287109375,0.0,2.25,0.0625
1.2399999999999956,0.0,-1.0,-4.0,-4.0,0.0,-5.0,1.0,0.0,0.265869140625,0.57244873046875,-0.71881103515625,-0.29156494140625,-0.06689453125,-0.9912109375,0.19287109375,0.0,2.25,0.0625
1.2449999999999954,-2.0,-2.0,-5.0,0.0,-6.0,0.0,-4.0,-2.0,0.265869140625,0.57244873046875,-0.71881103515625,-0.29156494140625,-0.06689453125,-0.9912109375,0.19287109375,0.0,2.25,0.0625
1.2499999999999953,-2.0,-2.0,-5.0,0.0,-6.0,0.0,-4.0,-2.0,0.265869140625,0.57244873046875,-0.71881103515625,-0.29156494140625,-0.06689453125,-0.9912109375,0.19287109375,0.0,2.25,0.0625
1.2549999999999952,-2.0,-4.0,-1.0,27.0,-5.0,-13.0,1.0,2.0,0.265869140625,0.57244873046875,-0.71881103515625,-0.29156494140625,-0.06689453125,-0.9912109375,0.19287109375,0.0,2.25,0.0625
1.2599999999999951,-2.0,-4.0,-1.0,27.0,-5.0,-13.0,1.0,2.0,0.2662353515625,0.5723876953125,-0.71868896484375,-0.29156494140625,-0.06396484375,-0.99951171875,0.19384765625,0.125,1.8125,0.1875
1.264999999999995,-2.0,-4.0,-1.0,27.0,-5.0,-13.0,1.0,2.0,0.2662353515625,0.5723876953125,-0.71868896484375,-0.29156494140625,-0.06396484375,-0.99951171875,0.19384765625,0.125,1.8125,0.1875
1.269999999999995,-2.0,-4.0,-1.0,27.0,-5.0,-13.0,1.0,2.0,0.2662353515625,0.5723876953125,-0.71868896484375,-0.29156494140625,-0.06396484375,-0.99951171875,0.19384765625,0.125,1.8125,0.1875
1.2749999999999948,-1.0,-1.0,-6.0,-17.0,-3.0,3.0,-3.0,-3.0,0.2662353515625,0.5723876953125,-0.71868896484375,-0.29156494140625,-0.06396484375,-0.99951171875,0.19384765625,0.125,1.8125,0.1875
1.2799999999999947,-1.0,-1.0,-6.0,-17.0,-3.0,3.0,-3.0,-3.0,0.2662353515625,0.5723876953125,-0.71868896484375,-0.29156494140625,-0.06396484375,-0.99951171875,0.19384765625,0.125,1.8125,0.1875
1.2849999999999946,-1.0,-1.0,-6.0,-17.0,-3.0,3.0,-3.0,-3.0,0.2666015625,0.57257080078125,-0.71844482421875,-0.29150390625,-0.06201171875,-0.99560546875,0.19091796875,-1.25,1.0,0.0
1.2899999999999945,-1.0,-1.0,-6.0,-17.0,-3.0,3.0,-3.0,-3.0,0.2666015625,0.57257080078125,-0.71844482421875,-0.29150390625,-0.06201171875,-0.99560546875,0.19091796875,-1.25,1.0,0.0
1.2949999999999944,-2.0,-1.0,-1.0,-5.0,0.0,3.0,2.0,0.0,0.2666015625,0.57257080078125,-0.71844482421875,-0.29150390625,-0.06201171875,-0.99560546875,0.19091796875,-1.25,1.0,0.0
1.2999999999999943,-2.0,-1.0,-1.0,-5.0,0.0,3.0,2.0,0.0,0.2666015625,0.57257080078125,-0.71844482421875,-0.29150390625,-0.06201171875,-0.99560546875,0.19091796875,-1.25,1.0,0.0
1.3049999999999942,1.0,1.0,1.0,3.0,5.0,5.0,-1.0,-1.0,0.2666015625,0.57257080078125,-0.71844482421875,-0.29150390625,-0.06201171875,-0.99560546875,0.19091796875,-1.25,1.0,0.0
1.309999999999994,1.0,1.0,1.0,3.0,5.0,5.0,-1.0,-1.0,0.26678466796875,0.57269287109375,-0.71832275390625,-0.29132080078125,-0.05224609375,-1.0,0.201171875,-1.25,0.0,0.9375
1.314999999999994,1.0,1.0,1.0,3.0,5.0,5.0,-1.0,-1.0,0.26678466796875,0.57269287109375,-0.71832275390625,-0.29132080078125,-0.05224609375,-1.0,0.201171875,-1.25,0.0,0.9375
1.3199999999999938,1.0,1.0,1.0,3.0,5.0,5.0,-1.0,-1.0,0.26678466796875,0.57269287109375,-0.71832275390625,-0.29132080078125,-0.05224609375,-1.0,0.201171875,-1.25,0.0,0.9375
1.3249999999999937,-2.0,-2.0,-7.0,-35.0,-13.0,-6.0,-4.0,-3.0,0.26678466796875,0.57269287109375,-0.71832275390625,-0.29132080078125,-0.05224609375,-1.0,0.201171875,-1.25,0.0,0.9375
1.3299999999999936,-2.0,-2.0,-7.0,-35.0,-13.0,-6.0,-4.0,-3.0,0.26678466796875,0.57269287109375,-0.71832275390625,-0.29132080078125,-0.05224609375,-1.0,0.201171875,-1.25,0.0,0.9375
1.3349999999999935,-1.0,-2.0,-2.0,-1.0,-3.0,-4.0,-1.0,-2.0,0.2669677734375,0.5728759765625,-0.71826171875,-0.29095458984375,-0.05419921875,-0.99853515625,0.1982421875,-1.625,-0.625,1.25
1.3399999999999934,-1.0,-2.0,-2.0,-1.0,-3.0,-4.0,-1.0,-2.0,0.2669677734375,0.5728759765625,-0.71826171875,-0.29095458984375,-0.05419921875,-0.99853515625,0.1982421875,-1.625,-0.625,1.25
1.3449999999999933,-1.0,-2.0,-2.0,-1.0,-3.0,-4.0,-1.0,-2.0,0.2669677734375,0.5728759765625,-0.71826171875,-0.29095458984375,-0.05419921875,-0.99853515625,0.1982421875,-1.625,-0.625,1.25
1.3499999999999932,-1.0,-2.0,-2.0,-1.0,-3.0,-4.0,-1.0,-2.0,0.2669677734375,0.5728759765625,-0.71826171875,-0.29095458984375,-0.05419921875,-0.99853515625,0.1982421875,-1.625,-0.625,1.25
1.354999999999993,0.0,-1.0,0.0,-4.0,-3.0,-3.0,1.0,-4.0,0.2669677734375,0.5728759765625,-0.71826171875,-0.29095458984375,-0.05419921875,-0.99853515625,0.1982421875,-1.625,-0.625,1.25
1.359999999999993,0.0,-1.0,0.0,-4.0,-3.0,-3.0,1.0,-4.0,0.2669677734375,0.5728759765625,-0.71826171875,-0.29095458984375,-0.05419921875,-0.99853515625,0.1982421875,-1.625,-0.625,1.25
1.3649999999999929,0.0,-1.0,0.0,-4.0,-3.0,-3.0,1.0,-4.0,0.26715087890625,0.57305908203125,-0.71820068359375,-0.29052734375,-0.0576171875,-0.9970703125,0.2001953125,-1.5,-1.0,1.5625
1.3699999999999928,0.0,-1.0,0.0,-4.0,-3.0,-3.0,1.0,-4.0,0.26715087890625,0.57305908203125,-0.71820068359375,-0.29052734375,-0.0576171875,-0.9970703125,0.2001953125,-1.5,-1.0,1.5625
1.3749999999999927,-1.0,-1.0,0.0,1.0,0.0,-6.0,-1.0,1.0,0.26715087890625,0.57305908203125,-0.71820068359375,-0.29052734375,-0.0576171875,-0.9970703125,0.2001953125,-1.5,-1.0,1.5625
1.3799999999999926,-1.0,-1.0,0.0,1.0,0.0,-6.0,-1.0,1.0,0.26715087890625,0.57305908203125,-0.71820068359375,-0.29052734375,-0.0576171875,-0.9970703125,0.2001953125,-1.5,-1.0,1.5625
1.3849999999999925,0.0,1.0,3.0,12.0,7.0,6.0,-3.0,-2.0,0.26715087890625,0.57318115234375,-0.71826171875,-0.2901611328125,-0.05517578125,-0.99951171875,0.19970703125,-0.5,-1.625,1.375
1.3899999999999924,0.0,1.0,3.0,12.0,7.0,6.0,-3.0,-2.0,0.26715087890625,0.57318115234375,-0.71826171875,-0.2901611328125,-0.05517578125,-0.99951171875,0.19970703125,-0.5,-1.625,1.375
1.3949999999999922,0.0,1.0,3.0,12.0,7.0,6.0,-3.0,-2.0,0.26715087890625,0.57318115234375,-0.71826171875,-0.2901611328125,-0.05517578125,-0.99951171875,0.19970703125,-0.5,-1.625,1.375
1.3999999999999921,0.0,1.0,3.0,12.0,7.0,6.0,-3.0,-2.0,0.26715087890625,0.57318115234375,-0.71826171875,-0.2901611328125,-0.05517578125,-0.99951171875,0.19970703125,-0.5,-1.625,1.375
1.404999999999992,0.0,0.0,1.0,5.0,4.0,-9.0,-1.0,0.0,0.26715087890625,0.57318115234375,-0.71826171875,-0.2901611328125,-0.05517578125,-0.99951171875,0.19970703125,-0.5,-1.625,1.375
1.409999999999992,0.0,0.0,1.0,5.0,4.0,-9.0,-1.0,0.0,0.26715087890625,0.57318115234375,-0.71826171875,-0.2901611328125,-0.05517578125,-0.99951171875,0.19970703125,-0.5,-1.625,1.375
1.4149999999999918,-2.0,-3.0,-1.0,5.0,-6.0,4.0,-1.0,-1.0,0.26708984375,0.57330322265625,-0.71832275390625,-0.289794921875,-0.05419921875,-0.9970703125,0.20068359375,-0.75,-2.0,1.0625
1.4199999999999917,-2.0,-3.0,-1.0,5.0,-6.0,4.0,-1.0,-1.0,0.26708984375,0.57330322265625,-0.71832275390625,-0.289794921875,-0.05419921875,-0.9970703125,0.20068359375,-0.75,-2.0,1.0625
1.4249999999999916,-2.0,-3.0,-1.0,5.0,-6.0,4.0,-1.0,-1.0,0.26708984375,0.57330322265625,-0.71832275390625,-0.289794921875,-0.05419921875,-0.9970703125,0.20068359375,-0.75,-2.0,1.0625
1.4299999999999915,-2.0,-3.0,-1.0,5.0,-6.0,4.0,-1.0,-1.0,0.26708984375,0.57330322265625,-0.71832275390625,-0.289794921875,-0.05419921875,-0.9970703125,0.20068359375,-0.75,-2.0,1.0625
1.4349999999999914,-1.0,-1.0,-4.0,-10.0,7.0,7.0,0.0,2.0,0.26708984375,0.57330322265625,-0.71832275390625,-0.289794921875,-0.05419921875,-0.9970703125,0.20068359375,-0.75,-2.0,1.0625
1.4399999999999913,-1.0,-1.0,-4.0,-10.0,7.0,7.0,0.0,2.0,0.266845703125,0.57342529296875,-0.71844482421875,-0.2894287109375,-0.048828125,-0.99755859375,0.208984375,-0.5625,-2.4375,0.6875
1.4449999999999912,-1.0,-1.0,-4.0,-10.0,7.0,7.0,0.0,2.0,0.266845703125,0.57342529296875,-0.71844482421875,-0.2894287109375,-0.048828125,-0.99755859375,0.208984375,-0.5625,-2.4375,0.6875
1.449999999999991,-1.0,-1.0,-10.0,-15.0,-5.0,-9.0,-5.0,-2.0,0.266845703125,0.57342529296875,-0.71844482421875,-0.2894287109375,-0.048828125,-0.99755859375,0.208984375,-0.5625,-2.4375,0.6875
1.454999999999991,-1.0,-1.0,-10.0,-15.0,-5.0,-9.0,-5.0,-2.0,0.266845703125,0.57342529296875,-0.71844482421875,-0.2894287109375,-0.048828125,-0.99755859375,0.208984375,-0.5625,-2.4375,0.6875
1.4599999999999909,-1.0,-1.0,-10.0,-15.0,-5.0,-9.0,-5.0,-2.0,0.266845703125,0.57342529296875,-0.71844482421875,-0.2894287109375,-0.048828125,-0.99755859375,0.208984375,-0.5625,-2.4375,0.6875
1.4649999999999908,-2.0,-2.0,-2.0,-2.0,-11.0,-6.0,2.0,-1.0,0.26654052734375,0.573486328125,-0.71868896484375,-0.2890625,-0.0498046875,-0.9931640625,0.2099609375,-0.1875,-2.9375,0.875
1.4699999999999906,-2.0,-2.0,-2.0,-2.0,-11.0,-6.0,2.0,-1.0,0.26654052734375,0.573486328125,-0.71868896484375,-0.2890625,-0.0498046875,-0.9931640625,0.2099609375,-0.1875,-2.9375,0.875
1.4749999999999905,-2.0,-2.0,-2.0,-2.0,-11.0,-6.0,2.0,-1.0,0.26654052734375,0.573486328125,-0.71868896484375,-0.2890625,-0.0498046875,-0.9931640625,0.2099609375,-0.1875,-2.9375,0.875
1.4799999999999904,-2.0,-2.0,-2.0,-2.0,-11.0,-6.0,2.0,-1.0,0.26654052734375,0.573486328125,-0.71868896484375,-0.2890625,-0.0498046875,-0.9931640625,0.2099609375,-0.1875,-2.9375,0.875
1.4849999999999903,1.0,1.0,4.0,6.0,5.0,6.0,8.0,1.0,0.26654052734375,0.573486328125,-0.71868896484375,-0.2890625,-0.0498046875,-0.9931640625,0.2099609375,-0.1875,-2.9375,0.875
1.4899999999999902,-1.0,2.0,3.0,-5.0,2.0,0.0,-1.0,-1.0,0.26617431640625,0.57366943359375,-0.7188720703125,-0.28863525390625,-0.04638671875,-0.9931640625,0.205078125,-0.25,-3.3125,1.0625
1.4949999999999901,-1.0,2.0,3.0,-5.0,2.0,0.0,-1.0,-1.0,0.26617431640625,0.57366943359375,-0.7188720703125,-0.28863525390625,-0.04638671875,-0.9931640625,0.205078125,-0.25,-3.3125,1.0625
1.49999999999999,-1.0,2.0,3.0,-5.0,2.0,0.0,-1.0,-1.0,0.26617431640625,0.57366943359375,-0.7188720703125,-0.28863525390625,-0.04638671875,-0.9931640625,0.205078125,-0.25,-3.3125,1.0625
1.50499999999999,-2.0,-1.0,1.0,1.0,-3.0,3.0,0.0,-2.0,0.26617431640625,0.57366943359375,-0.7188720703125,-0.28863525390625,-0.04638671875,-0.9931640625,0.205078125,-0.25,-3.3125,1.0625
1.5099999999999898,-2.0,-1.0,1.0,1.0,-3.0,3.0,0.0,-2.0,0.26593017578125,0.57366943359375,-0.71905517578125,-0.288330078125,-0.052734375,-0.9931640625,0.20751953125,0.3125,-2.375,0.8125
1.5149999999999897,-2.0,-1.0,1.0,1.0,-3.0,3.0,0.0,-2.0,0.26593017578125,0.57366943359375,-0.71905517578125,-0.288330078125,-0.052734375,-0.9931640625,0.20751953125,0.3125,-2.375,0.8125
1.5199999999999896,-1.0,0.0,-1.0,2.0,1.0,-7.0,0.0,0.0,0.26593017578125,0.57366943359375,-0.71905517578125,-0.288330078125,-0.052734375,-0.9931640625,0.20751953125,0.3125,-2.375,0.8125
1.5249999999999895,-1.0,1.0,5.0,17.0,9.0,9.0,3.0,2.0,0.26593017578125,0.57366943359375,-0.71905517578125,-0.288330078125,-0.052734375,-0.9931640625,0.20751953125,0.3125,-2.375,0.8125
1.5299999999999894,-2.0,-2.0,-11.0,5.0,-5.0,-9.0,-1.0,-3.0,0.265625,0.57366943359375,-0.71923828125,-0.2882080078125,-0.0517578125,-0.99462890625,0.1962890625,1.1875,-1.875,0.0625
1.5349999999999893,-2.0,-2.0,-11.0,5.0,-5.0,-9.0,-1.0,-3.0,0.265625,0.57366943359375,-0.71923828125,-0.2882080078125,-0.0517578125,-0.99462890625,0.1962890625,1.1875,-1.875,0.0625
1.5399999999999892,-1.0,-4.0,1.0,-5.0,0.0,-2.0,1.0,0.0,0.265625,0.57366943359375,-0.71923828125,-0.2882080078125,-0.0517578125,-0.99462890625,0.1962890625,1.1875,-1.875,0.0625
1.544999999999989,-1.0,-4.0,1.0,-5.0,0.0,-2.0,1.0,0.0,0.265625,0.57366943359375,-0.71923828125,-0.2882080078125,-0.0517578125,-0.99462890625,0.1962890625,1.1875,-1.875,0.0625
1.549999999999989,-3.0,-2.0,-2.0,-6.0,-3.0,-1.0,-4.0,0.0,0.26531982421875,0.5736083984375,-0.71942138671875,-0.2880859375,-0.04736328125,-0.9892578125,0.20751953125,0.625,-1.9375,0.0625
1.5549999999999888,-3.0,-2.0,-2.0,-6.0,-3.0,-1.0,-4.0,0.0,0.26531982421875,0.5736083984375,-0.71942138671875,-0.2880859375,-0.04736328125,-0.9892578125,0.20751953125,0.625,-1.9375,0.0625
1.5599999999999887,-1.0,0.0,0.0,7.0,4.0,5.0,3.0,-1.0,0.26531982421875,0.5736083984375,-0.71942138671875,-0.2880859375,-0.04736328125,-0.9892578125,0.20751953125,0.625,-1.9375,0.0625
1.5649999999999886,0.0,-3.0,-1.0,-1.0,-4.0,-8.0,-8.0,-4.0,0.26531982421875,0.5736083984375,-0.71942138671875,-0.2880859375,-0.04736328125,-0.9892578125,0.20751953125,0.625,-1.9375,0.0625
1.5699999999999885,0.0,-3.0,-1.0,-1.0,-4.0,-8.0,-8.0,-4.0,0.26513671875,0.5736083984375,-0.71954345703125,-0.2879638671875,-0.05126953125,-0.99658203125,0.20068359375,0.875,-1.4375,0.25
1.5749999999999884,0.0,-3.0,-1.0,-1.0,-4.0,-8.0,-8.0,-4.0,0.26513671875,0.5736083984375,-0.71954345703125,-0.2879638671875,-0.05126953125,-0.99658203125,0.20068359375,0.875,-1.4375,0.25
1.5799999999999883,-1.0,-1.0,-3.0,-8.0,-2.0,0.0,-1.0,-2.0,0.26513671875,0.5736083984375,-0.71954345703125,-0.2879638671875,-0.05126953125,-0.99658203125,0.20068359375,0.875,-1.4375,0.25
1.5849999999999882,-1.0,-1.0,-3.0,-8.0,-2.0,0.0,-1.0,-2.0,0.26513671875,0.5736083984375,-0.71954345703125,-0.2879638671875,-0.05126953125,-0.99658203125,0.20068359375,0.875,-1.4375,0.25
1.589999999999988,1.0,1.0,1.0,-7.0,3.0,9.0,3.0,2.0,0.26513671875,0.5736083984375,-0.71954345703125,-0.2879638671875,-0.0498046875,-1.00634765625,0.1943359375,0.375,-0.9375,-0.3125
1.594999999999988,1.0,1.0,1.0,-7.0,3.0,9.0,3.0,2.0,0.26513671875,0.5736083984375,-0.71954345703125,-0.2879638671875,-0.0498046875,-1.00634765625,0.1943359375,0.375,-0.9375,-0.3125
1.5999999999999879,1.0,1.0,1.0,-7.0,3.0,9.0,3.0,2.0,0.26513671875,0.5736083984375,-0.71954345703125,-0.2879638671875,-0.0498046875,-1.00634765625,0.1943359375,0.375,-0.9375,-0.3125
1.6049999999999878,-3.0,-1.0,0.0,-7.0,-10.0,-6.0,-5.0,-3.0,0.26513671875,0.5736083984375,-0.71954345703125,-0.2879638671875,-0.0498046875,-1.00634765625,0.1943359375,0.375,-0.9375,-0.3125
1.6099999999999877,-3.0,-1.0,0.0,-7.0,-10.0,-6.0,-5.0,-3.0,0.26513671875,0.5736083984375,-0.71954345703125,-0.2879638671875,-0.0498046875,-1.00634765625,0.1943359375,0.375,-0.9375,-0.3125
1.6149999999999876,-1.0,-2.0,0.0,0.0,3.0,6.0,3.0,0.0,0.26495361328125,0.57354736328125,-0.71966552734375,-0.28802490234375,-0.05322265625,-0.99462890625,0.197265625,1.6875,-0.625,-0.625
1.6199999999999875,-1.0,-2.0,0.0,0.0,3.0,6.0,3.0,0.0,0.26495361328125,0.57354736328125,-0.71966552734375,-0.28802490234375,-0.05322265625,-0.99462890625,0.197265625,1.6875,-0.625,-0.625
1.6249999999999873,-1.0,-2.0,0.0,0.0,3.0,6.0,3.0,0.0,0.26495361328125,0.57354736328125,-0.71966552734375,-0.28802490234375,-0.05322265625,-0.99462890625,0.197265625,1.6875,-0.625,-0.625
1.6299999999999872,0.0,-1.0,5.0,3.0,-6.0,-21.0,-4.0,1.0,0.26495361328125,0.57354736328125,-0.71966552734375,-0.28802490234375,-0.05322265625,-0.99462890625,0.197265625,1.6875,-0.625,-0.625
1.6349999999999871,0.0,-1.0,5.0,3.0,-6.0,-21.0,-4.0,1.0,0.26495361328125,0.57354736328125,-0.71966552734375,-0.28802490234375,-0.05322265625,-0.99462890625,0.197265625,1.6875,-0.625,-0.625
1.639999999999987,0.0,-1.0,5.0,3.0,-6.0,-21.0,-4.0,1.0,0.2647705078125,0.57342529296875,-0.71978759765625,-0.2880859375,-0.04833984375,-0.99755859375,0.203125,1.25,-0.375,-0.4375
1.644999999999987,-2.0,-1.0,4.0,-12.0,-3.0,-1.0,-3.0,-3.0,0.2647705078125,0.57342529296875,-0.71978759765625,-0.2880859375,-0.04833984375,-0.99755859375,0.203125,1.25,-0.375,-0.4375
1.6499999999999868,0.0,-1.0,0.0,3.0,-1.0,4.0,-1.0,1.0,0.2647705078125,0.57342529296875,-0.71978759765625,-0.2880859375,-0.04833984375,-0.99755859375,0.203125,1.25,-0.375,-0.4375
1.6549999999999867,0.0,-1.0,0.0,3.0,-1.0,4.0,-1.0,1.0,0.2647705078125,0.57342529296875,-0.71978759765625,-0.2880859375,-0.052734375,-0.9990234375,0.201171875,0.1875,-0.25,-0.125
1.6599999999999866,0.0,-1.0,0.0,3.0,-1.0,4.0,-1.0,1.0,0.2647705078125,0.57342529296875,-0.71978759765625,-0.2880859375,-0.052734375,-0.9990234375,0.201171875,0.1875,-0.25,-0.125
1.6649999999999865,0.0,-1.0,0.0,3.0,-1.0,4.0,-1.0,1.0,0.2647705078125,0.57342529296875,-0.71978759765625,-0.2880859375,-0.052734375,-0.9990234375,0.201171875,0.1875,-0.25,-0.125
1.6699999999999864,-2.0,-2.0,2.0,4.0,12.0,-5.0,7.0,-1.0,0.2647705078125,0.57342529296875,-0.71978759765625,-0.2880859375,-0.052734375,-0.9990234375,0.201171875,0.1875,-0.25,-0.125
1.6749999999999863,-1.0,1.0,0.0,-7.0,0.0,-12.0,-3.0,-1.0,0.2647705078125,0.57342529296875,-0.71978759765625,-0.2880859375,-0.052734375,-0.9990234375,0.201171875,0.1875,-0.25,-0.125
1.6799999999999862,-1.0,1.0,0.0,-7.0,0.0,-12.0,-3.0,-1.0,0.2647705078125,0.573486328125,-0.7197265625,-0.2880859375,-0.048828125,-1.001953125,0.19970703125,0.5,-0.1875,0.0625
1.684999999999986,-1.0,1.0,0.0,-7.0,0.0,-12.0,-3.0,-1.0,0.2647705078125,0.573486328125,-0.7197265625,-0.2880859375,-0.048828125,-1.001953125,0.19970703125,0.5,-0.1875,0.0625
1.689999999999986,-1.0,1.0,0.0,-7.0,0.0,-12.0,-3.0,-1.0,0.2647705078125,0.573486328125,-0.7197265625,-0.2880859375,-0.048828125,-1.001953125,0.19970703125,0.5,-0.1875,0.0625
1.6949999999999859,-2.0,-1.0,-4.0,-7.0,-7.0,-12.0,-6.0,-1.0,0.2647705078125,0.573486328125,-0.7197265625,-0.2880859375,-0.048828125,-1.001953125,0.19970703125,0.5,-0.1875,0.0625
1.6999999999999857,-2.0,-1.0,-4.0,-7.0,-7.0,-12.0,-6.0,-1.0,0.2647705078125,0.5733642578125,-0.71990966796875,-0.2879638671875,-0.05810546875,-0.9990234375,0.19921875,1.0,-0.6875,0.5625
1.7049999999999856,-2.0,-1.0,-4.0,-7.0,-7.0,-12.0,-6.0,-1.0,0.2647705078125,0.5733642578125,-0.71990966796875,-0.2879638671875,-0.05810546875,-0.9990234375,0.19921875,1.0,-0.6875,0.5625
1.7099999999999855,1.0,2.0,0.0,2.0,12.0,12.0,5.0,3.0,0.2647705078125,0.5733642578125,-0.71990966796875,-0.2879638671875,-0.05810546875,-0.9990234375,0.19921875,1.0,-0.6875,0.5625
1.7149999999999854,1.0,2.0,0.0,2.0,12.0,12.0,5.0,3.0,0.2647705078125,0.5733642578125,-0.71990966796875,-0.2879638671875,-0.05810546875,-0.9990234375,0.19921875,1.0,-0.6875,0.5625
1.7199999999999853,-1.0,0.0,-2.0,0.0,3.0,-1.0,-1.0,-2.0,0.2647705078125,0.57318115234375,-0.7200927734375,-0.2877197265625,-0.05322265625,-0.99365234375,0.20166015625,1.375,-0.8125,1.375
1.7249999999999852,-1.0,0.0,-2.0,0.0,3.0,-1.0,-1.0,-2.0,0.2647705078125,0.57318115234375,-0.7200927734375,-0.2877197265625,-0.05322265625,-0.99365234375,0.20166015625,1.375,-0.8125,1.375
1.729999999999985,-1.0,0.0,-2.0,0.0,3.0,-1.0,-1.0,-2.0,0.2647705078125,0.57318115234375,-0.7200927734375,-0.2877197265625,-0.05322265625,-0.99365234375,0.20166015625,1.375,-0.8125,1.375
1.734999999999985,-2.0,-1.0,-1.0,7.0,-9.0,-3.0,1.0,-3.0,0.2647705078125,0.57318115234375,-0.7200927734375,-0.2877197265625,-0.05322265625,-0.99365234375,0.20166015625,1.375,-0.8125,1.375
1.739999999999985,-2.0,-1.0,-1.0,7.0,-9.0,-3.0,1.0,-3.0,0.2647705078125,0.57318115234375,-0.7200927734375,-0.2877197265625,-0.05322265625,-0.99365234375,0.20166015625,1.375,-0.8125,1.375
1.7449999999999848,-2.0,-1.0,-1.0,7.0,-9.0,-3.0,1.0,-3.0,0.2647705078125,0.57318115234375,-0.7200927734375,-0.2877197265625,-0.05322265625,-0.99365234375,0.20166015625,1.375,-0.8125,1.375
1.7499999999999847,-2.0,-2.0,0.0,-1.0,-3.0,-3.0,2.0,1.0,0.2647705078125,0.57293701171875,-0.72039794921875,-0.28741455078125,-0.05126953125,-0.98486328125,0.205078125,1.4375,-1.0625,2.125
1.7549999999999846,-2.0,-2.0,0.0,-1.0,-3.0,-3.0,2.0,1.0,0.2647705078125,0.57293701171875,-0.72039794921875,-0.28741455078125,-0.05126953125,-0.98486328125,0.205078125,1.4375,-1.0625,2.125
1.7599999999999845,0.0,0.0,1.0,0.0,1.0,-12.0,-4.0,0.0,0.2647705078125,0.57293701171875,-0.72039794921875,-0.28741455078125,-0.05126953125,-0.98486328125,0.205078125,1.4375,-1.0625,2.125
1.7649999999999844,-1.0,-2.0,-2.0,5.0,3.0,8.0,-2.0,-3.0,0.2647705078125,0.57293701171875,-0.72039794921875,-0.28741455078125,-0.05126953125,-0.98486328125,0.205078125,1.4375,-1.0625,2.125
1.7699999999999843,-1.0,-2.0,-2.0,5.0,3.0,8.0,-2.0,-3.0,0.26483154296875,0.57281494140625,-0.7205810546875,-0.28717041015625,-0.05224609375,-0.98876953125,0.19873046875,1.0,-0.8125,1.875
1.7749999999999841,-1.0,-2.0,-2.0,5.0,3.0,8.0,-2.0,-3.0,0.26483154296875,0.57281494140625,-0.7205810546875,-0.28717041015625,-0.05224609375,-0.98876953125,0.19873046875,1.0,-0.8125,1.875
1.779999999999984,-3.0,-2.0,-2.0,4.0,-2.0,-4.0,0.0,-2.0,0.26483154296875,0.57281494140625,-0.7205810546875,-0.28717041015625,-0.05224609375,-0.98876953125,0.19873046875,1.0,-0.8125,1.875
1.784999999999984,-3.0,-2.0,-2.0,4.0,-2.0,-4.0,0.0,-2.0,0.26483154296875,0.57281494140625,-0.7205810546875,-0.28717041015625,-0.05224609375,-0.98876953125,0.19873046875,1.0,-0.8125,1.875
1.7899999999999838,0.0,-1.0,-2.0,-14.0,-2.0,3.0,1.0,1.0,0.26495361328125,0.57281494140625,-0.72064208984375,-0.286865234375,-0.05078125,-0.98876953125,0.20166015625,-0.25,-0.4375,1.875
1.7949999999999837,0.0,-1.0,-2.0,-14.0,-2.0,3.0,1.0,1.0,0.26495361328125,0.57281494140625,-0.72064208984375,-0.286865234375,-0.05078125,-0.98876953125,0.20166015625,-0.25,-0.4375,1.875
1.7999999999999836,0.0,0.0,-1.0,-3.0,1.0,0.0,-2.0,-2.0,0.26495361328125,0.57281494140625,-0.72064208984375,-0.286865234375,-0.05078125,-0.98876953125,0.20166015625,-0.25,-0.4375,1.875
1.8049999999999835,0.0,0.0,-1.0,-3.0,1.0,0.0,-2.0,-2.0,0.26495361328125,0.57281494140625,-0.72064208984375,-0.286865234375,-0.05078125,-0.98876953125,0.20166015625,-0.25,-0.4375,1.875
1.8099999999999834,-1.0,-1.0,-1.0,7.0,2.0,-5.0,0.0,-2.0,0.26507568359375,0.57269287109375,-0.7208251953125,-0.28668212890625,-0.0478515625,-0.990234375,0.203125,0.9375,-0.25,2.0625
1.8149999999999833,-1.0,-1.0,-1.0,7.0,2.0,-5.0,0.0,-2.0,0.26507568359375,0.57269287109375,-0.7208251953125,-0.28668212890625,-0.0478515625,-0.990234375,0.203125,0.9375,-0.25,2.0625
1.8199999999999832,-1.0,-1.0,-1.0,7.0,2.0,-5.0,0.0,-2.0,0.26507568359375,0.57269287109375,-0.7208251953125,-0.28668212890625,-0.0478515625,-0.990234375,0.203125,0.9375,-0.25,2.0625
1.824999999999983,-1.0,-1.0,-1.0,7.0,2.0,-5.0,0.0,-2.0,0.26507568359375,0.57269287109375,-0.7208251953125,-0.28668212890625,-0.0478515625,-0.990234375,0.203125,0.9375,-0.25,2.0625
1.829999999999983,0.0,0.0,-1.0,-4.0,0.0,0.0,1.0,0.0,0.26507568359375,0.57269287109375,-0.7208251953125,-0.28668212890625,-0.0478515625,-0.990234375,0.203125,0.9375,-0.25,2.0625
1.8349999999999829,0.0,0.0,-1.0,-4.0,0.0,0.0,1.0,0.0,0.26507568359375,0.572509765625,-0.72100830078125,-0.28656005859375,-0.0498046875,-0.99560546875,0.20458984375,1.125,-0.3125,1.4375
1.8399999999999828,0.0,0.0,-1.0,-4.0,0.0,0.0,1.0,0.0,0.26507568359375,0.572509765625,-0.72100830078125,-0.28656005859375,-0.0498046875,-0.99560546875,0.20458984375,1.125,-0.3125,1.4375
1.8449999999999827,2.0,0.0,0.0,4.0,4.0,5.0,-5.0,-4.0,0.26507568359375,0.572509765625,-0.72100830078125,-0.28656005859375,-0.0498046875,-0.99560546875,0.20458984375,1.125,-0.3125,1.4375
1.8499999999999825,2.0,0.0,0.0,4.0,4.0,5.0,-5.0,-4.0,0.26507568359375,0.572509765625,-0.72100830078125,-0.28656005859375,-0.0498046875,-0.99560546875,0.20458984375,1.125,-0.3125,1.4375
1.8549999999999824,0.0,1.0,-7.0,-6.0,0.0,-1.0,0.0,1.0,0.2650146484375,0.5723876953125,-0.72113037109375,-0.28656005859375,-0.044921875,-0.99462890625,0.20751953125,1.0,0.0,1.0625
1.8599999999999823,0.0,1.0,-7.0,-6.0,0.0,-1.0,0.0,1.0,0.2650146484375,0.5723876953125,-0.72113037109375,-0.28656005859375,-0.044921875,-0.99462890625,0.20751953125,1.0,0.0,1.0625
1.8649999999999822,0.0,1.0,-7.0,-6.0,0.0,-1.0,0.0,1.0,0.2650146484375,0.5723876953125,-0.72113037109375,-0.28656005859375,-0.044921875,-0.99462890625,0.20751953125,1.0,0.0,1.0625
1.8699999999999821,0.0,1.0,-7.0,-6.0,0.0,-1.0,0.0,1.0,0.2650146484375,0.5723876953125,-0.72113037109375,-0.28656005859375,-0.044921875,-0.99462890625,0.20751953125,1.0,0.0,1.0625
1.874999999999982,0.0,1.0,-1.0,-5.0,-5.0,-7.0,-3.0,-1.0,0.2650146484375,0.5723876953125,-0.72113037109375,-0.28656005859375,-0.044921875,-0.99462890625,0.20751953125,1.0,0.0,1.0625
1.879999999999982,0.0,1.0,-1.0,-5.0,-5.0,-7.0,-3.0,-1.0,0.2650146484375,0.5723876953125,-0.72113037109375,-0.28656005859375,-0.044921875,-0.99462890625,0.20751953125,1.0,0.0,1.0625
1.8849999999999818,0.0,1.0,-1.0,-5.0,-5.0,-7.0,-3.0,-1.0,0.2650146484375,0.5723876953125,-0.72113037109375,-0.28656005859375,-0.044921875,-0.99462890625,0.20751953125,1.0,0.0,1.0625
1.8899999999999817,-1.0,0.0,6.0,9.0,0.0,-1.0,-3.0,-2.0,0.2650146484375,0.5723876953125,-0.72113037109375,-0.28656005859375,-0.04833984375,-1.0,0.208984375,0.875,0.5,-0.0625
1.8949999999999816,-1.0,0.0,6.0,9.0,0.0,-1.0,-3.0,-2.0,0.2650146484375,0.5723876953125,-0.72113037109375,-0.28656005859375,-0.04833984375,-1.0,0.208984375,0.875,0.5,-0.0625
1.8999999999999815,-1.0,0.0,6.0,9.0,0.0,-1.0,-3.0,-2.0,0.2650146484375,0.5723876953125,-0.72113037109375,-0.28656005859375,-0.04833984375,-1.0,0.208984375,0.875,0.5,-0.0625
1.9049999999999814,1.0,-1.0,-2.0,-4.0,1.0,2.0,2.0,2.0,0.2650146484375,0.5723876953125,-0.72113037109375,-0.28656005859375,-0.04833984375,-1.0,0.208984375,0.875,0.5,-0.0625
1.9099999999999813,-3.0,-2.0,-1.0,4.0,-5.0,-7.0,-3.0,-1.0,0.2650146484375,0.5723876953125,-0.72113037109375,-0.28656005859375,-0.04833984375,-1.0,0.208984375,0.875,0.5,-0.0625
1.9149999999999812,-3.0,-2.0,-1.0,4.0,-5.0,-7.0,-3.0,-1.0,0.26495361328125,0.5723876953125,-0.72119140625,-0.28656005859375,-0.0439453125,-0.99462890625,0.22021484375,0.8125,0.125,-0.25
1.919999999999981,-3.0,-2.0,-1.0,4.0,-5.0,-7.0,-3.0,-1.0,0.26495361328125,0.5723876953125,-0.72119140625,-0.28656005859375,-0.0439453125,-0.99462890625,0.22021484375,0.8125,0.125,-0.25
1.924999999999981,-1.0,-3.0,-4.0,-6.0,-3.0,-4.0,-1.0,-1.0,0.26495361328125,0.5723876953125,-0.72119140625,-0.28656005859375,-0.0439453125,-0.99462890625,0.22021484375,0.8125,0.125,-0.25
1.9299999999999808,-1.0,-3.0,-4.0,-6.0,-3.0,-4.0,-1.0,-1.0,0.26495361328125,0.5723876953125,-0.72119140625,-0.28656005859375,-0.0439453125,-0.99462890625,0.22021484375,0.8125,0.125,-0.25
1.9349999999999807,-1.0,-3.0,-4.0,-6.0,-3.0,-4.0,-1.0,-1.0,0.26495361328125,0.5723876953125,-0.72119140625,-0.28656005859375,-0.0439453125,-0.99462890625,0.22021484375,0.8125,0.125,-0.25
1.9399999999999806,-1.0,-1.0,1.0,4.0,3.0,-3.0,0.0,-1.0,0.26495361328125,0.5723876953125,-0.72119140625,-0.28662109375,-0.0439453125,-0.9931640625,0.2109375,0.8125,-0.5625,-0.375
1.9449999999999805,-1.0,-1.0,1.0,4.0,3.0,-3.0,0.0,-1.0,0.26495361328125,0.5723876953125,-0.72119140625,-0.28662109375,-0.0439453125,-0.9931640625,0.2109375,0.8125,-0.5625,-0.375
1.9499999999999804,-1.0,-1.0,1.0,4.0,3.0,-3.0,0.0,-1.0,0.26495361328125,0.5723876953125,-0.72119140625,-0.28662109375,-0.0439453125,-0.9931640625,0.2109375,0.8125,-0.5625,-0.375
1.9549999999999803,-1.0,-1.0,-1.0,-8.0,-6.0,-7.0,2.0,-1.0,0.26495361328125,0.5723876953125,-0.72119140625,-0.28662109375,-0.0439453125,-0.9931640625,0.2109375,0.8125,-0.5625,-0.375
1.9599999999999802,-1.0,-1.0,-1.0,-8.0,-6.0,-7.0,2.0,-1.0,0.26495361328125,0.5723876953125,-0.72119140625,-0.28662109375,-0.0439453125,-0.9931640625,0.2109375,0.8125,-0.5625,-0.375
1.96499999999998,-3.0,0.0,-3.0,-2.0,3.0,-6.0,-3.0,-3.0,0.26495361328125,0.5723876953125,-0.72119140625,-0.28662109375,-0.0439453125,-0.9931640625,0.2109375,0.8125,-0.5625,-0.375
1.96999999999998,-3.0,0.0,-3.0,-2.0,3.0,-6.0,-3.0,-3.0,0.2646484375,0.57220458984375,-0.7213134765625,-0.2867431640625,-0.046875,-0.99267578125,0.216796875,1.0625,-0.5625,-0.6875
1.9749999999999799,-3.0,0.0,-3.0,-2.0,3.0,-6.0,-3.0,-3.0,0.2646484375,0.57220458984375,-0.7213134765625,-0.2867431640625,-0.046875,-0.99267578125,0.216796875,1.0625,-0.5625,-0.6875
1.9799999999999798,-3.0,0.0,-3.0,-2.0,3.0,-6.0,-3.0,-3.0,0.2646484375,0.57220458984375,-0.7213134765625,-0.2867431640625,-0.046875,-0.99267578125,0.216796875,1.0625,-0.5625,-0.6875
1.9849999999999797,-2.0,-2.0,0.0,2.0,-5.0,-4.0,0.0,-2.0,0.2646484375,0.57220458984375,-0.7213134765625,-0.2867431640625,-0.046875,-0.99267578125,0.216796875,1.0625,-0.5625,-0.6875
1.9899999999999796,-1.0,-2.0,-7.0,-21.0,-4.0,-4.0,-2.0,-1.0,0.2646484375,0.57220458984375,-0.7213134765625,-0.2867431640625,-0.046875,-0.99267578125,0.216796875,1.0625,-0.5625,-0.6875
1.9949999999999795,-1.0,-2.0,-7.0,-21.0,-4.0,-4.0,-2.0,-1.0,0.264404296875,0.57208251953125,-0.721435546875,-0.2869873046875,-0.044921875,-0.99658203125,0.21142578125,1.625,0.0,-0.875
1.9999999999999793,-1.0,-2.0,-7.0,-21.0,-4.0,-4.0,-2.0,-1.0,0.264404296875,0.57208251953125,-0.721435546875,-0.2869873046875,-0.044921875,-0.99658203125,0.21142578125,1.625,0.0,-0.875
2.0049999999999795,-1.0,1.0,2.0,4.0,-3.0,0.0,-1.0,0.0,0.264404296875,0.57208251953125,-0.721435546875,-0.2869873046875,-0.044921875,-0.99658203125,0.21142578125,1.625,0.0,-0.875
2.0099999999999794,-1.0,1.0,2.0,4.0,-3.0,0.0,-1.0,0.0,0.264404296875,0.57208251953125,-0.721435546875,-0.2869873046875,-0.044921875,-0.99658203125,0.21142578125,1.625,0.0,-0.875
2.0149999999999793,-1.0,1.0,2.0,4.0,-3.0,0.0,-1.0,0.0,0.264404296875,0.57208251953125,-0.721435546875,-0.2869873046875,-0.044921875,-0.99658203125,0.21142578125,1.625,0.0,-0.875
2.019999999999979,-1.0,-2.0,-6.0,-10.0,-1.0,13.0,1.0,-1.0,0.2642822265625,0.5718994140625,-0.72149658203125,-0.287353515625,-0.0546875,-0.98828125,0.2119140625,1.375,0.8125,-1.3125
2.024999999999979,-1.0,-2.0,-6.0,-10.0,-1.0,13.0,1.0,-1.0,0.2642822265625,0.5718994140625,-0.72149658203125,-0.287353515625,-0.0546875,-0.98828125,0.2119140625,1.375,0.8125,-1.3125
2.029999999999979,-1.0,-2.0,-6.0,-10.0,-1.0,13.0,1.0,-1.0,0.2642822265625,0.5718994140625,-0.72149658203125,-0.287353515625,-0.0546875,-0.98828125,0.2119140625,1.375,0.8125,-1.3125
2.034999999999979,0.0,-2.0,0.0,7.0,-5.0,-12.0,-5.0,-2.0,0.2642822265625,0.5718994140625,-0.72149658203125,-0.287353515625,-0.0546875,-0.98828125,0.2119140625,1.375,0.8125,-1.3125
2.0399999999999787,0.0,-2.0,0.0,7.0,-5.0,-12.0,-5.0,-2.0,0.2642822265625,0.5718994140625,-0.72149658203125,-0.287353515625,-0.0546875,-0.98828125,0.2119140625,1.375,0.8125,-1.3125
2.0449999999999786,1.0,1.0,2.0,5.0,4.0,9.0,2.0,0.0,0.26422119140625,0.5716552734375,-0.72149658203125,-0.2877197265625,-0.052734375,-0.98681640625,0.20654296875,1.625,1.1875,-1.4375
2.0499999999999785,1.0,1.0,2.0,5.0,4.0,9.0,2.0,0.0,0.26422119140625,0.5716552734375,-0.72149658203125,-0.2877197265625,-0.052734375,-0.98681640625,0.20654296875,1.625,1.1875,-1.4375
2.0549999999999784,1.0,1.0,2.0,5.0,4.0,9.0,2.0,0.0,0.26422119140625,0.5716552734375,-0.72149658203125,-0.2877197265625,-0.052734375,-0.98681640625,0.20654296875,1.625,1.1875,-1.4375
2.0599999999999783,-2.0,-1.0,-2.0,1.0,-2.0,-7.0,-3.0,-1.0,0.26422119140625,0.5716552734375,-0.72149658203125,-0.2877197265625,-0.052734375,-0.98681640625,0.20654296875,1.625,1.1875,-1.4375
2.064999999999978,-2.0,-1.0,-2.0,1.0,-2.0,-7.0,-3.0,-1.0,0.26422119140625,0.5716552734375,-0.72149658203125,-0.2877197265625,-0.052734375,-0.98681640625,0.20654296875,1.625,1.1875,-1.4375
2.069999999999978,-1.0,-2.0,0.0,8.0,-3.0,-2.0,-3.0,-2.0,0.26409912109375,0.57147216796875,-0.72161865234375,-0.28814697265625,-0.0517578125,-0.982421875,0.2138671875,1.625,0.9375,-1.8125
2.074999999999978,-1.0,-2.0,0.0,8.0,-3.0,-2.0,-3.0,-2.0,0.26409912109375,0.57147216796875,-0.72161865234375,-0.28814697265625,-0.0517578125,-0.982421875,0.2138671875,1.625,0.9375,-1.8125
2.079999999999978,-1.0,-2.0,0.0,8.0,-3.0,-2.0,-3.0,-2.0,0.26409912109375,0.57147216796875,-0.72161865234375,-0.28814697265625,-0.0517578125,-0.982421875,0.2138671875,1.625,0.9375,-1.8125
2.0849999999999778,-1.0,-3.0,-3.0,-9.0,-8.0,-6.0,-2.0,-1.0,0.26409912109375,0.57147216796875,-0.72161865234375,-0.28814697265625,-0.0517578125,-0.982421875,0.2138671875,1.625,0.9375,-1.8125
2.0899999999999777,-1.0,-3.0,-3.0,-9.0,-8.0,-6.0,-2.0,-1.0,0.2640380859375,0.57135009765625,-0.7215576171875,-0.2884521484375,-0.05322265625,-0.986328125,0.20751953125,0.875,1.0,-1.5
2.0949999999999775,-1.0,-3.0,-3.0,-9.0,-8.0,-6.0,-2.0,-1.0,0.2640380859375,0.57135009765625,-0.7215576171875,-0.2884521484375,-0.05322265625,-0.986328125,0.20751953125,0.875,1.0,-1.5
2.0999999999999774,-1.0,-1.0,-8.0,-18.0,6.0,14.0,4.0,1.0,0.2640380859375,0.57135009765625,-0.7215576171875,-0.2884521484375,-0.05322265625,-0.986328125,0.20751953125,0.875,1.0,-1.5
2.1049999999999773,0.0,-1.0,2.0,0.0,1.0,5.0,-1.0,-2.0,0.26416015625,0.5712890625,-0.721435546875,-0.2886962890625,-0.0556640625,-0.98974609375,0.20556640625,0.4375,1.625,-0.9375
2.1099999999999772,0.0,-1.0,2.0,0.0,1.0,5.0,-1.0,-2.0,0.26416015625,0.5712890625,-0.721435546875,-0.2886962890625,-0.0556640625,-0.98974609375,0.20556640625,0.4375,1.625,-0.9375
2.114999999999977,0.0,1.0,1.0,4.0,6.0,-8.0,-6.0,-3.0,0.26416015625,0.5712890625,-0.721435546875,-0.2886962890625,-0.0556640625,-0.98974609375,0.20556640625,0.4375,1.625,-0.9375
2.119999999999977,0.0,1.0,1.0,4.0,6.0,-8.0,-6.0,-3.0,0.26416015625,0.5712890625,-0.721435546875,-0.2886962890625,-0.0556640625,-0.98974609375,0.20556640625,0.4375,1.625,-0.9375
2.124999999999977,0.0,1.0,1.0,4.0,6.0,-8.0,-6.0,-3.0,0.26416015625,0.5712890625,-0.721435546875,-0.2886962890625,-0.0556640625,-0.98974609375,0.20556640625,0.4375,1.625,-0.9375
2.129999999999977,-2.0,-1.0,0.0,-5.0,-11.0,1.0,2.0,-2.0,0.26416015625,0.5712890625,-0.721435546875,-0.2886962890625,-0.0556640625,-0.98974609375,0.20556640625,0.4375,1.625,-0.9375
2.1349999999999767,-1.0,-2.0,0.0,3.0,-3.0,10.0,1.0,-1.0,0.26434326171875,0.57110595703125,-0.721435546875,-0.28900146484375,-0.0595703125,-0.9912109375,0.2060546875,1.125,1.9375,-0.75
2.1399999999999766,-2.0,0.0,4.0,-2.0,4.0,-5.0,1.0,1.0,0.26434326171875,0.57110595703125,-0.721435546875,-0.28900146484375,-0.0595703125,-0.9912109375,0.2060546875,1.125,1.9375,-0.75
2.1449999999999765,-2.0,-2.0,-4.0,-6.0,-8.0,-10.0,-3.0,-2.0,0.2645263671875,0.57086181640625,-0.72149658203125,-0.28912353515625,-0.0625,-0.98828125,0.2041015625,1.375,1.375,-0.5
2.1499999999999764,-2.0,-2.0,-4.0,-6.0,-8.0,-10.0,-3.0,-2.0,0.2645263671875,0.57086181640625,-0.72149658203125,-0.28912353515625,-0.0625,-0.98828125,0.2041015625,1.375,1.375,-0.5
2.1549999999999763,-2.0,-2.0,-4.0,-6.0,-8.0,-10.0,-3.0,-2.0,0.2645263671875,0.57086181640625,-0.72149658203125,-0.28912353515625,-0.0625,-0.98828125,0.2041015625,1.375,1.375,-0.5
2.159999999999976,-1.0,-2.0,-4.0,0.0,1.0,12.0,1.0,-1.0,0.2645263671875,0.57086181640625,-0.72149658203125,-0.28912353515625,-0.0625,-0.98828125,0.2041015625,1.375,1.375,-0.5
2.164999999999976,-2.0,-2.0,-2.0,-5.0,-3.0,-11.0,-3.0,-3.0,0.2645263671875,0.57086181640625,-0.72149658203125,-0.28912353515625,-0.0625,-0.98828125,0.2041015625,1.375,1.375,-0.5
2.169999999999976,-1.0,0.0,0.0,4.0,-6.0,0.0,-2.0,-2.0,0.26470947265625,0.57086181640625,-0.72137451171875,-0.28924560546875,-0.05859375,-0.9912109375,0.208984375,-0.25,1.0625,-0.4375
2.174999999999976,-1.0,0.0,0.0,4.0,-6.0,0.0,-2.0,-2.0,0.26470947265625,0.57086181640625,-0.72137451171875,-0.28924560546875,-0.05859375,-0.9912109375,0.208984375,-0.25,1.0625,-0.4375
2.1799999999999757,-1.0,0.0,0.0,4.0,-6.0,0.0,-2.0,-2.0,0.26470947265625,0.57086181640625,-0.72137451171875,-0.28924560546875,-0.05859375,-0.9912109375,0.208984375,-0.25,1.0625,-0.4375
2.1849999999999756,-1.0,0.0,0.0,4.0,-6.0,0.0,-2.0,-2.0,0.26470947265625,0.57086181640625,-0.72137451171875,-0.28924560546875,-0.05859375,-0.9912109375,0.208984375,-0.25,1.0625,-0.4375
2.1899999999999755,-1.0,0.0,4.0,2.0,-1.0,-2.0,1.0,0.0,0.26470947265625,0.57086181640625,-0.72137451171875,-0.28924560546875,-0.05859375,-0.9912109375,0.208984375,-0.25,1.0625,-0.4375
2.1949999999999754,-1.0,0.0,4.0,2.0,-1.0,-2.0,1.0,0.0,0.26470947265625,0.57086181640625,-0.72137451171875,-0.28924560546875,-0.05859375,-0.9912109375,0.208984375,-0.25,1.0625,-0.4375
2.1999999999999753,-1.0,-2.0,1.0,2.0,3.0,1.0,-2.0,-1.0,0.264892578125,0.57080078125,-0.7213134765625,-0.28936767578125,-0.06005859375,-0.99267578125,0.20947265625,0.0625,1.25,-0.375
2.204999999999975,-1.0,-2.0,1.0,2.0,3.0,1.0,-2.0,-1.0,0.264892578125,0.57080078125,-0.7213134765625,-0.28936767578125,-0.06005859375,-0.99267578125,0.20947265625,0.0625,1.25,-0.375
2.209999999999975,-1.0,-3.0,-2.0,-5.0,2.0,1.0,1.0,0.0,0.264892578125,0.57073974609375,-0.72137451171875,-0.28936767578125,-0.06005859375,-0.98974609375,0.2138671875,-0.125,0.6875,0.125
2.214999999999975,-1.0,-3.0,-2.0,-5.0,2.0,1.0,1.0,0.0,0.264892578125,0.57073974609375,-0.72137451171875,-0.28936767578125,-0.06005859375,-0.98974609375,0.2138671875,-0.125,0.6875,0.125
2.219999999999975,-1.0,-2.0,-2.0,1.0,-4.0,8.0,-1.0,-1.0,0.264892578125,0.57073974609375,-0.72137451171875,-0.28936767578125,-0.06005859375,-0.98974609375,0.2138671875,-0.125,0.6875,0.125
2.2249999999999748,-1.0,-2.0,-2.0,1.0,-4.0,8.0,-1.0,-1.0,0.264892578125,0.57073974609375,-0.72137451171875,-0.28936767578125,-0.06005859375,-0.98974609375,0.2138671875,-0.125,0.6875,0.125
2.2299999999999747,0.0,0.0,2.0,8.0,4.0,-2.0,2.0,3.0,0.26495361328125,0.57073974609375,-0.72137451171875,-0.28936767578125,-0.0615234375,-0.99072265625,0.208984375,-0.625,0.0,0.0625
2.2349999999999746,0.0,0.0,2.0,8.0,4.0,-2.0,2.0,3.0,0.26495361328125,0.57073974609375,-0.72137451171875,-0.28936767578125,-0.0615234375,-0.99072265625,0.208984375,-0.625,0.0,0.0625
2.2399999999999745,-1.0,1.0,1.0,-5.0,-1.0,2.0,-2.0,-1.0,0.26495361328125,0.57073974609375,-0.72137451171875,-0.28936767578125,-0.0615234375,-0.99072265625,0.208984375,-0.625,0.0,0.0625
2.2449999999999743,-3.0,-3.0,-5.0,0.0,-9.0,-3.0,-1.0,-2.0,0.26495361328125,0.57073974609375,-0.72137451171875,-0.28936767578125,-0.0615234375,-0.99072265625,0.208984375,-0.625,0.0,0.0625
2.2499999999999742,-2.0,-2.0,1.0,1.0,5.0,-1.0,3.0,0.0,0.26495361328125,0.57073974609375,-0.72137451171875,-0.28936767578125,-0.0576171875,-0.99072265625,0.21142578125,-0.0625,-0.125,-0.1875
2.254999999999974,-2.0,-2.0,1.0,1.0,5.0,-1.0,3.0,0.0,0.26495361328125,0.57073974609375,-0.72137451171875,-0.28936767578125,-0.0576171875,-0.99072265625,0.21142578125,-0.0625,-0.125,-0.1875
2.259999999999974,-2.0,-2.0,1.0,1.0,5.0,-1.0,3.0,0.0,0.26495361328125,0.57073974609375,-0.72137451171875,-0.28936767578125,-0.0576171875,-0.99072265625,0.21142578125,-0.0625,-0.125,-0.1875
2.264999999999974,-2.0,-2.0,1.0,1.0,5.0,-1.0,3.0,0.0,0.26495361328125,0.57073974609375,-0.72137451171875,-0.28936767578125,-0.0576171875,-0.99072265625,0.21142578125,-0.0625,-0.125,-0.1875
2.269999999999974,-2.0,-2.0,1.0,1.0,5.0,-1.0,3.0,0.0,0.26495361328125,0.57073974609375,-0.72137451171875,-0.28936767578125,-0.0576171875,-0.99072265625,0.21142578125,-0.0625,-0.125,-0.1875
2.2749999999999737,0.0,1.0,0.0,6.0,0.0,-3.0,0.0,0.0,0.26495361328125,0.57073974609375,-0.72137451171875,-0.289306640625,-0.064453125,-0.9853515625,0.2158203125,0.5,-0.5,-0.375
2.2799999999999736,0.0,-1.0,-2.0,-2.0,-8.0,-11.0,-5.0,-3.0,0.26495361328125,0.57073974609375,-0.72137451171875,-0.289306640625,-0.064453125,-0.9853515625,0.2158203125,0.5,-0.5,-0.375
2.2849999999999735,0.0,-1.0,-2.0,-2.0,-8.0,-11.0,-5.0,-3.0,0.26495361328125,0.57073974609375,-0.72137451171875,-0.289306640625,-0.064453125,-0.9853515625,0.2158203125,0.5,-0.5,-0.375
2.2899999999999734,0.0,-1.0,-2.0,-2.0,-8.0,-11.0,-5.0,-3.0,0.26495361328125,0.57073974609375,-0.72137451171875,-0.289306640625,-0.064453125,-0.9853515625,0.2158203125,0.5,-0.5,-0.375
2.2949999999999733,-1.0,-1.0,2.0,7.0,10.0,10.0,2.0,0.0,0.26495361328125,0.5706787109375,-0.72137451171875,-0.289306640625,-0.05615234375,-0.98779296875,0.21435546875,0.0,-0.8125,-0.5
2.299999999999973,-1.0,-1.0,2.0,7.0,10.0,10.0,2.0,0.0,0.26495361328125,0.5706787109375,-0.72137451171875,-0.289306640625,-0.05615234375,-0.98779296875,0.21435546875,0.0,-0.8125,-0.5
2.304999999999973,0.0,0.0,-3.0,-2.0,-3.0,-8.0,-4.0,-2.0,0.26495361328125,0.5706787109375,-0.72137451171875,-0.289306640625,-0.05615234375,-0.98779296875,0.21435546875,0.0,-0.8125,-0.5
2.309999999999973,-1.0,1.0,1.0,2.0,-2.0,-7.0,-6.0,-2.0,0.2647705078125,0.57080078125,-0.72137451171875,-0.28924560546875,-0.05517578125,-0.9970703125,0.2119140625,-0.3125,-1.1875,-0.8125
2.314999999999973,-1.0,1.0,1.0,2.0,-2.0,-7.0,-6.0,-2.0,0.2647705078125,0.57080078125,-0.72137451171875,-0.28924560546875,-0.05517578125,-0.9970703125,0.2119140625,-0.3125,-1.1875,-0.8125
2.3199999999999728,-1.0,1.0,1.0,2.0,-2.0,-7.0,-6.0,-2.0,0.2647705078125,0.57080078125,-0.72137451171875,-0.28924560546875,-0.05517578125,-0.9970703125,0.2119140625,-0.3125,-1.1875,-0.8125
2.3249999999999726,0.0,1.0,1.0,5.0,7.0,18.0,4.0,0.0,0.26458740234375,0.57073974609375,-0.72149658203125,-0.289306640625,-0.0595703125,-0.99267578125,0.21923828125,0.5625,-0.8125,-1.0625
2.3299999999999725,0.0,1.0,1.0,5.0,7.0,18.0,4.0,0.0,0.26458740234375,0.57073974609375,-0.72149658203125,-0.289306640625,-0.0595703125,-0.99267578125,0.21923828125,0.5625,-0.8125,-1.0625
2.3349999999999724,0.0,1.0,1.0,5.0,7.0,18.0,4.0,0.0,0.26458740234375,0.57073974609375,-0.72149658203125,-0.289306640625,-0.0595703125,-0.99267578125,0.21923828125,0.5625,-0.8125,-1.0625
2.3399999999999723,0.0,1.0,1.0,5.0,7.0,18.0,4.0,0.0,0.26458740234375,0.57073974609375,-0.72149658203125,-0.289306640625,-0.0595703125,-0.99267578125,0.21923828125,0.5625,-0.8125,-1.0625
2.344999999999972,0.0,1.0,1.0,5.0,7.0,18.0,4.0,0.0,0.26458740234375,0.57073974609375,-0.72149658203125,-0.289306640625,-0.0595703125,-0.99267578125,0.21923828125,0.5625,-0.8125,-1.0625
2.349999999999972,-1.0,-3.0,-4.0,-15.0,-6.0,-2.0,-2.0,-3.0,0.264404296875,0.57073974609375,-0.7215576171875,-0.289306640625,-0.0615234375,-0.98828125,0.22021484375,0.0,-1.0625,-1.1875
2.354999999999972,-1.0,-3.0,-4.0,-15.0,-6.0,-2.0,-2.0,-3.0,0.264404296875,0.57073974609375,-0.7215576171875,-0.289306640625,-0.0615234375,-0.98828125,0.22021484375,0.0,-1.0625,-1.1875
2.359999999999972,-1.0,-3.0,-4.0,-15.0,-6.0,-2.0,-2.0,-3.0,0.264404296875,0.57073974609375,-0.7215576171875,-0.289306640625,-0.0615234375,-0.98828125,0.22021484375,0.0,-1.0625,-1.1875
2.364999999999972,-1.0,-3.0,-4.0,-15.0,-6.0,-2.0,-2.0,-3.0,0.264404296875,0.57073974609375,-0.7215576171875,-0.289306640625,-0.0615234375,-0.98828125,0.22021484375,0.0,-1.0625,-1.1875
2.3699999999999717,-1.0,-3.0,-4.0,-15.0,-6.0,-2.0,-2.0,-3.0,0.264404296875,0.57073974609375,-0.7215576171875,-0.289306640625,-0.0615234375,-0.98828125,0.22021484375,0.0,-1.0625,-1.1875
2.3749999999999716,-2.0,-4.0,-6.0,-20.0,-8.0,8.0,3.0,1.0,0.2642822265625,0.5709228515625,-0.72149658203125,-0.28924560546875,-0.0615234375,-1.00048828125,0.2158203125,-1.3125,-1.0,-1.1875
2.3799999999999715,-2.0,-2.0,-2.0,9.0,-6.0,-5.0,-2.0,0.0,0.2642822265625,0.5709228515625,-0.72149658203125,-0.28924560546875,-0.0615234375,-1.00048828125,0.2158203125,-1.3125,-1.0,-1.1875
2.3849999999999714,-2.0,-2.0,-2.0,9.0,-6.0,-5.0,-2.0,0.0,0.2642822265625,0.5709228515625,-0.72149658203125,-0.28924560546875,-0.0615234375,-1.00048828125,0.2158203125,-1.3125,-1.0,-1.1875
2.3899999999999713,-2.0,-2.0,-2.0,9.0,-6.0,-5.0,-2.0,0.0,0.2642822265625,0.5709228515625,-0.72149658203125,-0.28924560546875,-0.0615234375,-1.00048828125,0.2158203125,-1.3125,-1.0,-1.1875
2.394999999999971,-2.0,-3.0,-4.0,-6.0,-11.0,-9.0,-2.0,-3.0,0.2642822265625,0.5709228515625,-0.72149658203125,-0.28924560546875,-0.05322265625,-0.99365234375,0.2138671875,-0.3125,-0.9375,-0.625
2.399999999999971,-2.0,-3.0,-4.0,-6.0,-11.0,-9.0,-2.0,-3.0,0.2642822265625,0.5709228515625,-0.72149658203125,-0.28924560546875,-0.05322265625,-0.99365234375,0.2138671875,-0.3125,-0.9375,-0.625
2.404999999999971,-2.0,-3.0,-4.0,-6.0,-11.0,-9.0,-2.0,-3.0,0.2642822265625,0.5709228515625,-0.72149658203125,-0.28924560546875,-0.05322265625,-0.99365234375,0.2138671875,-0.3125,-0.9375,-0.625
2.409999999999971,0.0,-2.0,0.0,2.0,-1.0,1.0,-3.0,-4.0,0.2642822265625,0.5709228515625,-0.72149658203125,-0.28924560546875,-0.05322265625,-0.99365234375,0.2138671875,-0.3125,-0.9375,-0.625
2.4149999999999707,0.0,-2.0,0.0,2.0,-1.0,1.0,-3.0,-4.0,0.2642822265625,0.5709228515625,-0.72149658203125,-0.28924560546875,-0.05322265625,-0.99365234375,0.2138671875,-0.3125,-0.9375,-0.625
2.4199999999999706,0.0,-2.0,0.0,2.0,-1.0,1.0,-3.0,-4.0,0.26416015625,0.57086181640625,-0.72161865234375,-0.2890625,-0.0615234375,-0.99267578125,0.2138671875,0.375,-1.25,0.125
2.4249999999999705,-1.0,-2.0,-5.0,0.0,-2.0,-5.0,-2.0,-2.0,0.26416015625,0.57086181640625,-0.72161865234375,-0.2890625,-0.0615234375,-0.99267578125,0.2138671875,0.375,-1.25,0.125
2.4299999999999704,-1.0,-2.0,-5.0,0.0,-2.0,-5.0,-2.0,-2.0,0.26416015625,0.57086181640625,-0.72161865234375,-0.2890625,-0.0615234375,-0.99267578125,0.2138671875,0.375,-1.25,0.125
2.4349999999999703,-1.0,-2.0,-5.0,0.0,-2.0,-5.0,-2.0,-2.0,0.26416015625,0.57086181640625,-0.72161865234375,-0.2890625,-0.0615234375,-0.99267578125,0.2138671875,0.375,-1.25,0.125
2.43999999999997,-1.0,-2.0,-2.0,4.0,3.0,8.0,2.0,-3.0,0.26416015625,0.57086181640625,-0.72161865234375,-0.2890625,-0.0615234375,-0.99267578125,0.2138671875,0.375,-1.25,0.125
2.44499999999997,-1.0,-2.0,-2.0,4.0,3.0,8.0,2.0,-3.0,0.26416015625,0.57086181640625,-0.72161865234375,-0.2890625,-0.0615234375,-0.99267578125,0.2138671875,0.375,-1.25,0.125
2.44999999999997,0.0,-1.0,2.0,2.0,-4.0,8.0,-3.0,0.0,0.26409912109375,0.57080078125,-0.7218017578125,-0.28887939453125,-0.05517578125,-0.9921875,0.216796875,0.125,-1.1875,0.75
2.45499999999997,0.0,-1.0,2.0,2.0,-4.0,8.0,-3.0,0.0,0.26409912109375,0.57080078125,-0.7218017578125,-0.28887939453125,-0.05517578125,-0.9921875,0.216796875,0.125,-1.1875,0.75
2.4599999999999698,0.0,-1.0,2.0,2.0,-4.0,8.0,-3.0,0.0,0.26409912109375,0.57080078125,-0.7218017578125,-0.28887939453125,-0.05517578125,-0.9921875,0.216796875,0.125,-1.1875,0.75
2.4649999999999697,0.0,-1.0,2.0,2.0,-4.0,8.0,-3.0,0.0,0.26409912109375,0.57080078125,-0.7218017578125,-0.28887939453125,-0.05517578125,-0.9921875,0.216796875,0.125,-1.1875,0.75
2.4699999999999696,0.0,-1.0,2.0,2.0,-4.0,8.0,-3.0,0.0,0.26409912109375,0.57080078125,-0.7218017578125,-0.28887939453125,-0.05517578125,-0.9921875,0.216796875,0.125,-1.1875,0.75
2.4749999999999694,-1.0,1.0,0.0,2.0,7.0,-6.0,1.0,1.0,0.26416015625,0.57073974609375,-0.72198486328125,-0.28857421875,-0.0556640625,-0.98828125,0.20849609375,0.75,-0.9375,1.5
2.4799999999999693,0.0,0.0,-1.0,1.0,2.0,0.0,4.0,0.0,0.26416015625,0.57073974609375,-0.72198486328125,-0.28857421875,-0.0556640625,-0.98828125,0.20849609375,0.75,-0.9375,1.5
2.4849999999999692,0.0,0.0,-1.0,1.0,2.0,0.0,4.0,0.0,0.26416015625,0.57073974609375,-0.72198486328125,-0.28857421875,-0.0556640625,-0.98828125,0.20849609375,0.75,-0.9375,1.5
2.489999999999969,-1.0,0.0,-1.0,-10.0,-5.0,3.0,0.0,0.0,0.26416015625,0.57073974609375,-0.72198486328125,-0.28857421875,-0.0556640625,-0.98828125,0.20849609375,0.75,-0.9375,1.5
2.494999999999969,-1.0,0.0,-1.0,-10.0,-5.0,3.0,0.0,0.0,0.26416015625,0.57073974609375,-0.72198486328125,-0.28857421875,-0.0556640625,-0.98828125,0.20849609375,0.75,-0.9375,1.5
2.499999999999969,-1.0,0.0,-1.0,-10.0,-5.0,3.0,0.0,0.0,0.26416015625,0.57073974609375,-0.72198486328125,-0.28857421875,-0.0556640625,-0.98828125,0.20849609375,0.75,-0.9375,1.5
2.504999999999969,-1.0,0.0,-1.0,-10.0,-5.0,3.0,0.0,0.0,0.26416015625,0.57073974609375,-0.72198486328125,-0.28857421875,-0.0556640625,-0.98828125,0.20849609375,0.75,-0.9375,1.5
2.5099999999999687,-1.0,0.0,-1.0,-10.0,-5.0,3.0,0.0,0.0,0.26422119140625,0.57073974609375,-0.7220458984375,-0.28814697265625,-0.05517578125,-0.98046875,0.2109375,-0.75,-1.125,1.875
2.5149999999999686,-3.0,-2.0,2.0,-4.0,-5.0,-4.0,-3.0,-1.0,0.26422119140625,0.57073974609375,-0.7220458984375,-0.28814697265625,-0.05517578125,-0.98046875,0.2109375,-0.75,-1.125,1.875
2.5199999999999685,-2.0,-1.0,-2.0,2.0,-4.0,-5.0,-2.0,-1.0,0.26422119140625,0.57073974609375,-0.7220458984375,-0.28814697265625,-0.05517578125,-0.98046875,0.2109375,-0.75,-1.125,1.875
2.5249999999999684,-2.0,-1.0,-2.0,2.0,-4.0,-5.0,-2.0,-1.0,0.26422119140625,0.57073974609375,-0.7220458984375,-0.28814697265625,-0.05517578125,-0.98046875,0.2109375,-0.75,-1.125,1.875
2.5299999999999683,-2.0,-1.0,-2.0,2.0,-4.0,-5.0,-2.0,-1.0,0.26422119140625,0.57073974609375,-0.7220458984375,-0.28814697265625,-0.05517578125,-0.98046875,0.2109375,-0.75,-1.125,1.875
2.534999999999968,-1.0,-1.0,1.0,5.0,3.0,-2.0,-3.0,-1.0,0.26434326171875,0.57073974609375,-0.72222900390625,-0.28778076171875,-0.04833984375,-0.98828125,0.21533203125,-0.4375,-1.0625,2.5625
2.539999999999968,-1.0,-1.0,1.0,5.0,3.0,-2.0,-3.0,-1.0,0.26434326171875,0.57073974609375,-0.72222900390625,-0.28778076171875,-0.04833984375,-0.98828125,0.21533203125,-0.4375,-1.0625,2.5625
2.544999999999968,-1.0,-1.0,1.0,5.0,3.0,-2.0,-3.0,-1.0,0.26434326171875,0.57073974609375,-0.72222900390625,-0.28778076171875,-0.04833984375,-0.98828125,0.21533203125,-0.4375,-1.0625,2.5625
2.549999999999968,-2.0,-1.0,1.0,-1.0,-6.0,2.0,1.0,1.0,0.26446533203125,0.57061767578125,-0.722412109375,-0.287353515625,-0.05810546875,-0.98681640625,0.2099609375,0.25,-0.9375,2.375
2.5549999999999677,-2.0,-1.0,1.0,-1.0,-6.0,2.0,1.0,1.0,0.26446533203125,0.57061767578125,-0.722412109375,-0.287353515625,-0.05810546875,-0.98681640625,0.2099609375,0.25,-0.9375,2.375
2.5599999999999676,-2.0,-2.0,-2.0,2.0,-9.0,-12.0,-3.0,-2.0,0.26446533203125,0.57061767578125,-0.722412109375,-0.287353515625,-0.05810546875,-0.98681640625,0.2099609375,0.25,-0.9375,2.375
2.5649999999999675,-2.0,-2.0,-2.0,2.0,-9.0,-12.0,-3.0,-2.0,0.26446533203125,0.57061767578125,-0.722412109375,-0.287353515625,-0.05810546875,-0.98681640625,0.2099609375,0.25,-0.9375,2.375
2.5699999999999674,-2.0,-2.0,-2.0,-11.0,6.0,-2.0,-1.0,0.0,0.26446533203125,0.57061767578125,-0.722412109375,-0.287353515625,-0.05810546875,-0.98681640625,0.2099609375,0.25,-0.9375,2.375
2.5749999999999673,-2.0,-2.0,-2.0,-11.0,6.0,-2.0,-1.0,0.0,0.26446533203125,0.57061767578125,-0.722412109375,-0.287353515625,-0.05810546875,-0.98681640625,0.2099609375,0.25,-0.9375,2.375
2.579999999999967,-5.0,-3.0,-11.0,-5.0,-2.0,-1.0,0.0,-3.0,0.2646484375,0.570556640625,-0.7225341796875,-0.28704833984375,-0.0517578125,-0.986328125,0.21044921875,-0.375,-0.375,2.25
2.584999999999967,-5.0,-3.0,-11.0,-5.0,-2.0,-1.0,0.0,-3.0,0.2646484375,0.570556640625,-0.7225341796875,-0.28704833984375,-0.0517578125,-0.986328125,0.21044921875,-0.375,-0.375,2.25
2.589999999999967,-5.0,-3.0,-11.0,-5.0,-2.0,-1.0,0.0,-3.0,0.2646484375,0.570556640625,-0.7225341796875,-0.28704833984375,-0.0517578125,-0.986328125,0.21044921875,-0.375,-0.375,2.25
2.594999999999967,-5.0,-3.0,-11.0,-5.0,-2.0,-1.0,0.0,-3.0,0.2646484375,0.570556640625,-0.7225341796875,-0.28704833984375,-0.0517578125,-0.986328125,0.21044921875,-0.375,-0.375,2.25
2.599999999999967,1.0,1.0,1.0,7.0,-6.0,1.0,-1.0,0.0,0.2646484375,0.570556640625,-0.7225341796875,-0.28704833984375,-0.0517578125,-0.986328125,0.21044921875,-0.375,-0.375,2.25
2.6049999999999667,1.0,1.0,1.0,7.0,-6.0,1.0,-1.0,0.0,0.2646484375,0.570556640625,-0.7225341796875,-0.28704833984375,-0.0517578125,-0.986328125,0.21044921875,-0.375,-0.375,2.25
2.6099999999999666,1.0,1.0,1.0,7.0,-6.0,1.0,-1.0,0.0,0.2647705078125,0.57073974609375,-0.72247314453125,-0.28680419921875,-0.04541015625,-0.9873046875,0.20849609375,-1.4375,-0.5,1.875
2.6149999999999665,-3.0,-1.0,-8.0,-9.0,0.0,-11.0,-3.0,-1.0,0.2647705078125,0.57073974609375,-0.72247314453125,-0.28680419921875,-0.04541015625,-0.9873046875,0.20849609375,-1.4375,-0.5,1.875
2.6199999999999664,-3.0,-1.0,-8.0,-9.0,0.0,-11.0,-3.0,-1.0,0.2647705078125,0.57073974609375,-0.72247314453125,-0.28680419921875,-0.04541015625,-0.9873046875,0.20849609375,-1.4375,-0.5,1.875
2.6249999999999662,-3.0,-1.0,-8.0,-9.0,0.0,-11.0,-3.0,-1.0,0.2647705078125,0.57073974609375,-0.72247314453125,-0.28680419921875,-0.04541015625,-0.9873046875,0.20849609375,-1.4375,-0.5,1.875
2.629999999999966,-1.0,-2.0,-1.0,0.0,-3.0,3.0,-1.0,-2.0,0.2647705078125,0.57073974609375,-0.72247314453125,-0.28680419921875,-0.04541015625,-0.9873046875,0.20849609375,-1.4375,-0.5,1.875
2.634999999999966,-1.0,-2.0,-1.0,0.0,-3.0,3.0,-1.0,-2.0,0.2647705078125,0.57073974609375,-0.72247314453125,-0.28680419921875,-0.04541015625,-0.9873046875,0.20849609375,-1.4375,-0.5,1.875
2.639999999999966,-1.0,-2.0,-1.0,0.0,-3.0,3.0,-1.0,-2.0,0.26470947265625,0.57073974609375,-0.72247314453125,-0.28680419921875,-0.0517578125,-0.99072265625,0.20849609375,-0.875,-0.8125,0.875
2.644999999999966,-1.0,-2.0,-2.0,2.0,-5.0,-10.0,-5.0,-2.0,0.26470947265625,0.57073974609375,-0.72247314453125,-0.28680419921875,-0.0517578125,-0.99072265625,0.20849609375,-0.875,-0.8125,0.875
2.6499999999999657,-1.0,-2.0,-2.0,2.0,-5.0,-10.0,-5.0,-2.0,0.26470947265625,0.57073974609375,-0.72247314453125,-0.28680419921875,-0.0517578125,-0.99072265625,0.20849609375,-0.875,-0.8125,0.875
2.6549999999999656,-1.0,-2.0,-2.0,2.0,-5.0,-10.0,-5.0,-2.0,0.26470947265625,0.57073974609375,-0.72247314453125,-0.28680419921875,-0.0517578125,-0.99072265625,0.20849609375,-0.875,-0.8125,0.875
2.6599999999999655,-1.0,-1.0,0.0,5.0,2.0,0.0,2.0,1.0,0.26470947265625,0.57073974609375,-0.722412109375,-0.28680419921875,-0.0419921875,-0.990234375,0.20654296875,-0.6875,-0.8125,-0.0625
2.6649999999999654,-1.0,-1.0,0.0,5.0,2.0,0.0,2.0,1.0,0.26470947265625,0.57073974609375,-0.722412109375,-0.28680419921875,-0.0419921875,-0.990234375,0.20654296875,-0.6875,-0.8125,-0.0625
2.6699999999999653,-1.0,-1.0,0.0,5.0,2.0,0.0,2.0,1.0,0.26470947265625,0.57073974609375,-0.722412109375,-0.28680419921875,-0.0419921875,-0.990234375,0.20654296875,-0.6875,-0.8125,-0.0625
2.674999999999965,-1.0,-2.0,0.0,4.0,2.0,1.0,-1.0,-3.0,0.26470947265625,0.57073974609375,-0.722412109375,-0.28680419921875,-0.0419921875,-0.990234375,0.20654296875,-0.6875,-0.8125,-0.0625
2.679999999999965,-1.0,-2.0,0.0,4.0,2.0,1.0,-1.0,-3.0,0.26470947265625,0.57073974609375,-0.722412109375,-0.28680419921875,-0.0419921875,-0.990234375,0.20654296875,-0.6875,-0.8125,-0.0625
2.684999999999965,-1.0,-1.0,3.0,-4.0,-7.0,-13.0,-3.0,-1.0,0.26470947265625,0.57080078125,-0.722412109375,-0.28680419921875,-0.04638671875,-0.98681640625,0.21044921875,-0.8125,-0.875,-0.1875
2.689999999999965,-1.0,-1.0,3.0,-4.0,-7.0,-13.0,-3.0,-1.0,0.26470947265625,0.57080078125,-0.722412109375,-0.28680419921875,-0.04638671875,-0.98681640625,0.21044921875,-0.8125,-0.875,-0.1875
2.6949999999999648,-1.0,-1.0,3.0,-4.0,-7.0,-13.0,-3.0,-1.0,0.26470947265625,0.57080078125,-0.722412109375,-0.28680419921875,-0.04638671875,-0.98681640625,0.21044921875,-0.8125,-0.875,-0.1875
2.6999999999999647,0.0,0.0,-4.0,-7.0,5.0,14.0,4.0,-1.0,0.26470947265625,0.57080078125,-0.722412109375,-0.28680419921875,-0.04638671875,-0.98681640625,0.21044921875,-0.8125,-0.875,-0.1875
2.7049999999999645,0.0,0.0,-4.0,-7.0,5.0,14.0,4.0,-1.0,0.26470947265625,0.57080078125,-0.722412109375,-0.28680419921875,-0.04638671875,-0.98681640625,0.21044921875,-0.8125,-0.875,-0.1875
2.7099999999999644,-1.0,-1.0,1.0,4.0,-1.0,5.0,1.0,-1.0,0.2645263671875,0.57110595703125,-0.7222900390625,-0.28668212890625,-0.04736328125,-0.990234375,0.20751953125,-1.75,-1.25,-0.25
2.7149999999999643,-1.0,-1.0,1.0,4.0,-1.0,5.0,1.0,-1.0,0.2645263671875,0.57110595703125,-0.7222900390625,-0.28668212890625,-0.04736328125,-0.990234375,0.20751953125,-1.75,-1.25,-0.25
2.7199999999999642,-1.0,-1.0,1.0,4.0,-1.0,5.0,1.0,-1.0,0.2645263671875,0.57110595703125,-0.7222900390625,-0.28668212890625,-0.04736328125,-0.990234375,0.20751953125,-1.75,-1.25,-0.25
2.724999999999964,1.0,2.0,4.0,3.0,8.0,15.0,6.0,0.0,0.2642822265625,0.5714111328125,-0.72210693359375,-0.2867431640625,-0.044921875,-0.99267578125,0.2109375,-1.3125,-1.0,-0.9375
2.729999999999964,1.0,2.0,4.0,3.0,8.0,15.0,6.0,0.0,0.2642822265625,0.5714111328125,-0.72210693359375,-0.2867431640625,-0.044921875,-0.99267578125,0.2109375,-1.3125,-1.0,-0.9375
2.734999999999964,-1.0,-1.0,-1.0,-4.0,-4.0,-7.0,-4.0,-4.0,0.2642822265625,0.5714111328125,-0.72210693359375,-0.2867431640625,-0.044921875,-0.99267578125,0.2109375,-1.3125,-1.0,-0.9375
2.739999999999964,-1.0,-1.0,-1.0,-4.0,-4.0,-7.0,-4.0,-4.0,0.2642822265625,0.5714111328125,-0.72210693359375,-0.2867431640625,-0.044921875,-0.99267578125,0.2109375,-1.3125,-1.0,-0.9375
2.7449999999999637,-1.0,-1.0,-1.0,-4.0,-4.0,-7.0,-4.0,-4.0,0.2640380859375,0.57159423828125,-0.72198486328125,-0.286865234375,-0.04736328125,-0.98876953125,0.21435546875,-1.0,-0.625,-1.4375
2.7499999999999636,-1.0,-1.0,-1.0,-4.0,-4.0,-7.0,-4.0,-4.0,0.2640380859375,0.57159423828125,-0.72198486328125,-0.286865234375,-0.04736328125,-0.98876953125,0.21435546875,-1.0,-0.625,-1.4375
2.7549999999999635,-2.0,-2.0,-1.0,1.0,-5.0,4.0,2.0,-1.0,0.2640380859375,0.57159423828125,-0.72198486328125,-0.286865234375,-0.04736328125,-0.98876953125,0.21435546875,-1.0,-0.625,-1.4375
2.7599999999999634,-1.0,-1.0,4.0,-3.0,-5.0,-13.0,-5.0,-2.0,0.2640380859375,0.57159423828125,-0.72198486328125,-0.286865234375,-0.04736328125,-0.98876953125,0.21435546875,-1.0,-0.625,-1.4375
2.7649999999999633,0.0,-1.0,0.0,2.0,0.0,-1.0,1.0,-1.0,0.2640380859375,0.57159423828125,-0.72198486328125,-0.286865234375,-0.04736328125,-0.98876953125,0.21435546875,-1.0,-0.625,-1.4375
2.769999999999963,0.0,-1.0,0.0,2.0,0.0,-1.0,1.0,-1.0,0.2640380859375,0.57159423828125,-0.72198486328125,-0.286865234375,-0.04736328125,-0.98876953125,0.21435546875,-1.0,-0.625,-1.4375
2.774999999999963,0.0,-1.0,0.0,2.0,0.0,-1.0,1.0,-1.0,0.2640380859375,0.57159423828125,-0.72198486328125,-0.286865234375,-0.04736328125,-0.98876953125,0.21435546875,-1.0,-0.625,-1.4375
2.779999999999963,-3.0,-4.0,-4.0,11.0,-6.0,-7.0,-5.0,-2.0,0.263916015625,0.5718994140625,-0.7218017578125,-0.28692626953125,-0.05224609375,-0.99658203125,0.20947265625,-1.625,-0.4375,-1.375
2.784999999999963,-2.0,-1.0,-4.0,-7.0,0.0,2.0,0.0,0.0,0.263916015625,0.57220458984375,-0.72149658203125,-0.2869873046875,-0.0517578125,-0.98974609375,0.20166015625,-1.6875,-0.0625,-1.3125
2.7899999999999627,-2.0,-1.0,-4.0,-7.0,0.0,2.0,0.0,0.0,0.263916015625,0.57220458984375,-0.72149658203125,-0.2869873046875,-0.0517578125,-0.98974609375,0.20166015625,-1.6875,-0.0625,-1.3125
2.7949999999999626,-2.0,-1.0,-4.0,-7.0,0.0,2.0,0.0,0.0,0.263916015625,0.57220458984375,-0.72149658203125,-0.2869873046875,-0.0517578125,-0.98974609375,0.20166015625,-1.6875,-0.0625,-1.3125
2.7999999999999625,-1.0,0.0,-2.0,-3.0,0.0,4.0,1.0,0.0,0.263916015625,0.57220458984375,-0.72149658203125,-0.2869873046875,-0.0517578125,-0.98974609375,0.20166015625,-1.6875,-0.0625,-1.3125
2.8049999999999624,-1.0,0.0,-2.0,-3.0,0.0,4.0,1.0,0.0,0.263916015625,0.57220458984375,-0.72149658203125,-0.2869873046875,-0.0517578125,-0.98974609375,0.20166015625,-1.6875,-0.0625,-1.3125
2.8099999999999623,-1.0,-3.0,-8.0,-23.0,-10.0,-11.0,-4.0,-1.0,0.26373291015625,0.5723876953125,-0.7213134765625,-0.28717041015625,-0.05078125,-0.99072265625,0.2119140625,-1.25,0.0,-1.6875
2.814999999999962,-1.0,-3.0,-8.0,-23.0,-10.0,-11.0,-4.0,-1.0,0.26373291015625,0.5723876953125,-0.7213134765625,-0.28717041015625,-0.05078125,-0.99072265625,0.2119140625,-1.25,0.0,-1.6875
2.819999999999962,-1.0,-3.0,-8.0,-23.0,-10.0,-11.0,-4.0,-1.0,0.26373291015625,0.5723876953125,-0.7213134765625,-0.28717041015625,-0.05078125,-0.99072265625,0.2119140625,-1.25,0.0,-1.6875
2.824999999999962,-1.0,-3.0,-8.0,-23.0,-10.0,-11.0,-4.0,-1.0,0.26373291015625,0.5723876953125,-0.7213134765625,-0.28717041015625,-0.05078125,-0.99072265625,0.2119140625,-1.25,0.0,-1.6875
2.829999999999962,0.0,1.0,1.0,-3.0,2.0,2.0,2.0,1.0,0.2637939453125,0.5726318359375,-0.72113037109375,-0.28729248046875,-0.05322265625,-0.98974609375,0.20751953125,-1.75,0.4375,-1.0
2.8349999999999618,0.0,0.0,-1.0,3.0,-5.0,-5.0,-4.0,-2.0,0.2637939453125,0.5726318359375,-0.72113037109375,-0.28729248046875,-0.05322265625,-0.98974609375,0.20751953125,-1.75,0.4375,-1.0
2.8399999999999617,-2.0,-2.0,-3.0,-11.0,2.0,-5.0,4.0,2.0,0.2637939453125,0.5726318359375,-0.72113037109375,-0.28729248046875,-0.05322265625,-0.98974609375,0.20751953125,-1.75,0.4375,-1.0
2.8449999999999616,-2.0,-2.0,-3.0,-11.0,2.0,-5.0,4.0,2.0,0.2637939453125,0.5726318359375,-0.72113037109375,-0.28729248046875,-0.05322265625,-0.98974609375,0.20751953125,-1.75,0.4375,-1.0
2.8499999999999615,-2.0,-2.0,-3.0,-11.0,2.0,-5.0,4.0,2.0,0.26397705078125,0.57275390625,-0.72088623046875,-0.28741455078125,-0.05615234375,-0.99365234375,0.2060546875,-1.3125,1.375,-0.8125
2.8549999999999613,-1.0,-3.0,-5.0,-9.0,3.0,6.0,0.0,-1.0,0.26397705078125,0.57275390625,-0.72088623046875,-0.28741455078125,-0.05615234375,-0.99365234375,0.2060546875,-1.3125,1.375,-0.8125
2.8599999999999612,1.0,1.0,-1.0,-1.0,2.0,-10.0,-5.0,-2.0,0.26397705078125,0.57275390625,-0.72088623046875,-0.28741455078125,-0.05615234375,-0.99365234375,0.2060546875,-1.3125,1.375,-0.8125
2.864999999999961,1.0,1.0,-1.0,-1.0,2.0,-10.0,-5.0,-2.0,0.26397705078125,0.57275390625,-0.72088623046875,-0.28741455078125,-0.05615234375,-0.99365234375,0.2060546875,-1.3125,1.375,-0.8125
2.869999999999961,1.0,1.0,-1.0,-1.0,2.0,-10.0,-5.0,-2.0,0.26397705078125,0.57275390625,-0.72088623046875,-0.28741455078125,-0.05615234375,-0.99365234375,0.2060546875,-1.3125,1.375,-0.8125
2.874999999999961,1.0,1.0,-1.0,-1.0,2.0,-10.0,-5.0,-2.0,0.26397705078125,0.57275390625,-0.72088623046875,-0.28741455078125,-0.05615234375,-0.99365234375,0.2060546875,-1.3125,1.375,-0.8125
2.879999999999961,1.0,1.0,-1.0,-1.0,2.0,-10.0,-5.0,-2.0,0.2642822265625,0.57275390625,-0.720703125,-0.28759765625,-0.05810546875,-0.99755859375,0.20947265625,-1.0625,1.8125,-0.5625
2.8849999999999607,-3.0,-1.0,0.0,10.0,-7.0,-2.0,1.0,-2.0,0.2642822265625,0.57275390625,-0.720703125,-0.28759765625,-0.05810546875,-0.99755859375,0.20947265625,-1.0625,1.8125,-0.5625
2.8899999999999606,-2.0,-1.0,-1.0,-5.0,-6.0,-4.0,-5.0,-4.0,0.2642822265625,0.57275390625,-0.720703125,-0.28759765625,-0.05810546875,-0.99755859375,0.20947265625,-1.0625,1.8125,-0.5625
2.8949999999999605,-2.0,-1.0,-1.0,-5.0,-6.0,-4.0,-5.0,-4.0,0.2642822265625,0.57275390625,-0.720703125,-0.28759765625,-0.05810546875,-0.99755859375,0.20947265625,-1.0625,1.8125,-0.5625
2.8999999999999604,-2.0,-1.0,-1.0,-5.0,-6.0,-4.0,-5.0,-4.0,0.2642822265625,0.57275390625,-0.720703125,-0.28759765625,-0.05810546875,-0.99755859375,0.20947265625,-1.0625,1.8125,-0.5625
2.9049999999999603,0.0,-3.0,-1.0,7.0,1.0,-3.0,-3.0,-1.0,0.2645263671875,0.57281494140625,-0.72052001953125,-0.287841796875,-0.0537109375,-0.99609375,0.20947265625,-0.9375,1.9375,-0.75
2.90999999999996,-2.0,-2.0,-3.0,-3.0,-6.0,5.0,1.0,-1.0,0.2645263671875,0.57281494140625,-0.72052001953125,-0.287841796875,-0.0537109375,-0.99609375,0.20947265625,-0.9375,1.9375,-0.75
2.91499999999996,-1.0,0.0,5.0,0.0,3.0,0.0,-1.0,-1.0,0.2647705078125,0.57281494140625,-0.7203369140625,-0.28790283203125,-0.0576171875,-0.99169921875,0.205078125,-0.6875,1.4375,-0.25
2.91999999999996,-1.0,0.0,5.0,0.0,3.0,0.0,-1.0,-1.0,0.2647705078125,0.57281494140625,-0.7203369140625,-0.28790283203125,-0.0576171875,-0.99169921875,0.205078125,-0.6875,1.4375,-0.25
2.92499999999996,-1.0,0.0,5.0,0.0,3.0,0.0,-1.0,-1.0,0.2647705078125,0.57281494140625,-0.7203369140625,-0.28790283203125,-0.0576171875,-0.99169921875,0.205078125,-0.6875,1.4375,-0.25
2.9299999999999597,-1.0,0.0,5.0,0.0,3.0,0.0,-1.0,-1.0,0.2647705078125,0.57281494140625,-0.7203369140625,-0.28790283203125,-0.0576171875,-0.99169921875,0.205078125,-0.6875,1.4375,-0.25
2.9349999999999596,-1.0,0.0,5.0,0.0,3.0,0.0,-1.0,-1.0,0.2647705078125,0.57281494140625,-0.7203369140625,-0.28790283203125,-0.0576171875,-0.99169921875,0.205078125,-0.6875,1.4375,-0.25
2.9399999999999595,-1.0,-1.0,-2.0,-3.0,6.0,1.0,0.0,0.0,0.2650146484375,0.572998046875,-0.72015380859375,-0.2879638671875,-0.0537109375,-1.00048828125,0.20751953125,-1.875,1.125,0.0
2.9449999999999594,-1.0,-1.0,-2.0,-3.0,6.0,1.0,0.0,0.0,0.2650146484375,0.572998046875,-0.72015380859375,-0.2879638671875,-0.0537109375,-1.00048828125,0.20751953125,-1.875,1.125,0.0
2.9499999999999593,-1.0,-1.0,-2.0,-3.0,6.0,1.0,0.0,0.0,0.2650146484375,0.572998046875,-0.72015380859375,-0.2879638671875,-0.0537109375,-1.00048828125,0.20751953125,-1.875,1.125,0.0
2.954999999999959,-1.0,-1.0,-2.0,-3.0,6.0,1.0,0.0,0.0,0.2650146484375,0.572998046875,-0.72015380859375,-0.2879638671875,-0.0537109375,-1.00048828125,0.20751953125,-1.875,1.125,0.0
2.959999999999959,-1.0,0.0,0.0,-1.0,-5.0,-7.0,-3.0,0.0,0.2650146484375,0.572998046875,-0.72015380859375,-0.2879638671875,-0.0537109375,-1.00048828125,0.20751953125,-1.875,1.125,0.0
2.964999999999959,-1.0,0.0,0.0,-1.0,-5.0,-7.0,-3.0,0.0,0.2650146484375,0.572998046875,-0.72015380859375,-0.2879638671875,-0.0537109375,-1.00048828125,0.20751953125,-1.875,1.125,0.0
2.969999999999959,-1.0,-2.0,-3.0,-10.0,-12.0,-5.0,-4.0,-1.0,0.26519775390625,0.57293701171875,-0.72003173828125,-0.2880859375,-0.05419921875,-0.9951171875,0.2060546875,-0.375,1.25,-0.0625
2.974999999999959,-3.0,-2.0,-1.0,1.0,-5.0,8.0,3.0,-1.0,0.26519775390625,0.57293701171875,-0.72003173828125,-0.2880859375,-0.05419921875,-0.9951171875,0.2060546875,-0.375,1.25,-0.0625
2.9799999999999587,-3.0,-2.0,-1.0,1.0,-5.0,8.0,3.0,-1.0,0.26519775390625,0.57293701171875,-0.72003173828125,-0.2880859375,-0.05419921875,-0.9951171875,0.2060546875,-0.375,1.25,-0.0625
2.9849999999999586,-3.0,-2.0,-1.0,1.0,-5.0,8.0,3.0,-1.0,0.26519775390625,0.57293701171875,-0.72003173828125,-0.2880859375,-0.05419921875,-0.9951171875,0.2060546875,-0.375,1.25,-0.0625
2.9899999999999585,-2.0,0.0,-3.0,2.0,9.0,-15.0,-6.0,-2.0,0.26519775390625,0.57293701171875,-0.72003173828125,-0.2880859375,-0.05419921875,-0.990234375,0.20458984375,0.0,0.8125,0.4375
2.9949999999999584,-2.0,0.0,-3.0,2.0,9.0,-15.0,-6.0,-2.0,0.26519775390625,0.57293701171875,-0.72003173828125,-0.2880859375,-0.05419921875,-0.990234375,0.20458984375,0.0,0.8125,0.4375
2.9999999999999583,-2.0,0.0,-3.0,2.0,9.0,-15.0,-6.0,-2.0,0.26519775390625,0.57293701171875,-0.72003173828125,-0.2880859375,-0.05419921875,-0.990234375,0.20458984375,0.0,0.8125,0.4375
3.004999999999958,-1.0,-1.0,-1.0,1.0,-2.0,7.0,3.0,-1.0,0.26519775390625,0.57293701171875,-0.72003173828125,-0.2880859375,-0.05419921875,-0.990234375,0.20458984375,0.0,0.8125,0.4375
3.009999999999958,-1.0,-1.0,-1.0,1.0,-2.0,7.0,3.0,-1.0,0.26519775390625,0.57293701171875,-0.72003173828125,-0.2880859375,-0.05419921875,-0.990234375,0.20458984375,0.0,0.8125,0.4375
3.014999999999958,-1.0,-1.0,-1.0,1.0,-2.0,7.0,3.0,-1.0,0.26519775390625,0.57293701171875,-0.72003173828125,-0.2880859375,-0.05419921875,-0.990234375,0.20458984375,0.0,0.8125,0.4375
3.019999999999958,0.0,-1.0,-1.0,1.0,-7.0,-4.0,2.0,-2.0,0.26519775390625,0.57293701171875,-0.72003173828125,-0.28802490234375,-0.05419921875,-0.99365234375,0.2001953125,-0.625,0.75,0.125
3.0249999999999577,0.0,-1.0,-1.0,1.0,-7.0,-4.0,2.0,-2.0,0.26519775390625,0.57293701171875,-0.72003173828125,-0.28802490234375,-0.05419921875,-0.99365234375,0.2001953125,-0.625,0.75,0.125
3.0299999999999576,0.0,-1.0,-1.0,1.0,-7.0,-4.0,2.0,-2.0,0.26519775390625,0.57293701171875,-0.72003173828125,-0.28802490234375,-0.05419921875,-0.99365234375,0.2001953125,-0.625,0.75,0.125
3.0349999999999575,-1.0,-3.0,-1.0,2.0,-1.0,-11.0,-6.0,0.0,0.26519775390625,0.57293701171875,-0.72003173828125,-0.28802490234375,-0.05419921875,-0.99365234375,0.2001953125,-0.625,0.75,0.125
3.0399999999999574,-1.0,-3.0,-1.0,2.0,-1.0,-11.0,-6.0,0.0,0.26519775390625,0.57293701171875,-0.72003173828125,-0.28802490234375,-0.05419921875,-0.99365234375,0.2001953125,-0.625,0.75,0.125
3.0449999999999573,1.0,1.0,-1.0,0.0,4.0,1.0,1.0,0.0,0.26519775390625,0.57293701171875,-0.72003173828125,-0.28802490234375,-0.05322265625,-0.99560546875,0.20458984375,-0.0625,0.75,0.0625
3.049999999999957,1.0,1.0,-1.0,0.0,4.0,1.0,1.0,0.0,0.26519775390625,0.57293701171875,-0.72003173828125,-0.28802490234375,-0.05322265625,-0.99560546875,0.20458984375,-0.0625,0.75,0.0625
3.054999999999957,0.0,-3.0,-4.0,3.0,4.0,2.0,-2.0,0.0,0.26519775390625,0.57293701171875,-0.72003173828125,-0.28802490234375,-0.05322265625,-0.99560546875,0.20458984375,-0.0625,0.75,0.0625
3.059999999999957,0.0,-3.0,-4.0,3.0,4.0,2.0,-2.0,0.0,0.26519775390625,0.57293701171875,-0.72003173828125,-0.28802490234375,-0.05322265625,-0.99560546875,0.20458984375,-0.0625,0.75,0.0625
3.064999999999957,0.0,-3.0,-4.0,3.0,4.0,2.0,-2.0,0.0,0.26519775390625,0.57293701171875,-0.72003173828125,-0.28802490234375,-0.05322265625,-0.99560546875,0.20458984375,-0.0625,0.75,0.0625
3.0699999999999568,0.0,-3.0,-4.0,3.0,4.0,2.0,-2.0,0.0,0.26519775390625,0.57293701171875,-0.72003173828125,-0.28802490234375,-0.05322265625,-0.99560546875,0.20458984375,-0.0625,0.75,0.0625
3.0749999999999567,-1.0,-3.0,-2.0,-3.0,-4.0,-4.0,-6.0,-2.0,0.26519775390625,0.57293701171875,-0.72003173828125,-0.28802490234375,-0.05517578125,-0.994140625,0.2041015625,-0.125,0.875,0.0
3.0799999999999566,-1.0,-3.0,-2.0,-3.0,-4.0,-4.0,-6.0,-2.0,0.26519775390625,0.57293701171875,-0.72003173828125,-0.28802490234375,-0.05517578125,-0.994140625,0.2041015625,-0.125,0.875,0.0
3.0849999999999564,-2.0,-1.0,2.0,5.0,1.0,-2.0,0.0,1.0,0.26519775390625,0.57293701171875,-0.72003173828125,-0.28802490234375,-0.05517578125,-0.994140625,0.2041015625,-0.125,0.875,0.0
3.0899999999999563,-2.0,-1.0,2.0,5.0,1.0,-2.0,0.0,1.0,0.26519775390625,0.57293701171875,-0.72003173828125,-0.28802490234375,-0.05517578125,-0.994140625,0.2041015625,-0.125,0.875,0.0
3.0949999999999562,-1.0,1.0,2.0,4.0,4.0,19.0,2.0,-2.0,0.26519775390625,0.57293701171875,-0.72003173828125,-0.28802490234375,-0.052734375,-0.990234375,0.19921875,-0.1875,0.5,0.125
3.099999999999956,-1.0,1.0,2.0,4.0,4.0,19.0,2.0,-2.0,0.26519775390625,0.57293701171875,-0.72003173828125,-0.28802490234375,-0.052734375,-0.990234375,0.19921875,-0.1875,0.5,0.125
3.104999999999956,-1.0,1.0,2.0,4.0,4.0,19.0,2.0,-2.0,0.26519775390625,0.57293701171875,-0.72003173828125,-0.28802490234375,-0.052734375,-0.990234375,0.19921875,-0.1875,0.5,0.125
3.109999999999956,-1.0,1.0,2.0,4.0,4.0,19.0,2.0,-2.0,0.26519775390625,0.57293701171875,-0.72003173828125,-0.28802490234375,-0.052734375,-0.990234375,0.19921875,-0.1875,0.5,0.125
3.114999999999956,-2.0,-1.0,-3.0,-5.0,-2.0,-11.0,-6.0,-3.0,0.26519775390625,0.57293701171875,-0.72003173828125,-0.28802490234375,-0.052734375,-0.990234375,0.19921875,-0.1875,0.5,0.125
3.1199999999999557,-2.0,-1.0,-3.0,-5.0,-2.0,-11.0,-6.0,-3.0,0.26519775390625,0.57293701171875,-0.72003173828125,-0.28802490234375,-0.052734375,-0.990234375,0.19921875,-0.1875,0.5,0.125
3.1249999999999556,-2.0,-1.0,-3.0,-5.0,-2.0,-11.0,-6.0,-3.0,0.26519775390625,0.57293701171875,-0.72003173828125,-0.28802490234375,-0.052734375,-0.990234375,0.19921875,-0.1875,0.5,0.125
3.1299999999999555,-2.0,-1.0,-3.0,-5.0,-2.0,-11.0,-6.0,-3.0,0.26519775390625,0.57293701171875,-0.72003173828125,-0.28802490234375,-0.052734375,-0.990234375,0.19921875,-0.1875,0.5,0.125
3.1349999999999554,-2.0,0.0,0.0,4.0,-8.0,7.0,2.0,0.0,0.26519775390625,0.57293701171875,-0.72003173828125,-0.28802490234375,-0.05908203125,-0.9794921875,0.20166015625,-0.625,0.4375,0.1875
3.1399999999999553,1.0,0.0,2.0,0.0,8.0,2.0,4.0,0.0,0.26519775390625,0.57293701171875,-0.72003173828125,-0.28802490234375,-0.05908203125,-0.9794921875,0.20166015625,-0.625,0.4375,0.1875
3.144999999999955,-1.0,-4.0,-2.0,1.0,3.0,1.0,-2.0,-3.0,0.26519775390625,0.57293701171875,-0.72003173828125,-0.28802490234375,-0.0556640625,-0.9892578125,0.20068359375,-0.4375,0.1875,0.25
3.149999999999955,-1.0,-4.0,-2.0,1.0,3.0,1.0,-2.0,-3.0,0.26519775390625,0.57293701171875,-0.72003173828125,-0.28802490234375,-0.0556640625,-0.9892578125,0.20068359375,-0.4375,0.1875,0.25
3.154999999999955,-1.0,-4.0,-2.0,1.0,3.0,1.0,-2.0,-3.0,0.26519775390625,0.57293701171875,-0.72003173828125,-0.28802490234375,-0.0556640625,-0.9892578125,0.20068359375,-0.4375,0.1875,0.25
3.159999999999955,-1.0,-4.0,-2.0,1.0,3.0,1.0,-2.0,-3.0,0.26519775390625,0.57293701171875,-0.72003173828125,-0.28802490234375,-0.0556640625,-0.9892578125,0.20068359375,-0.4375,0.1875,0.25
3.1649999999999547,-3.0,-3.0,-5.0,-8.0,-9.0,-6.0,-1.0,-1.0,0.26519775390625,0.57293701171875,-0.72003173828125,-0.28802490234375,-0.0556640625,-0.9892578125,0.20068359375,-0.4375,0.1875,0.25
3.1699999999999546,-3.0,-3.0,-5.0,-8.0,-9.0,-6.0,-1.0,-1.0,0.26519775390625,0.57293701171875,-0.72003173828125,-0.28802490234375,-0.0556640625,-0.9892578125,0.20068359375,-0.4375,0.1875,0.25
3.1749999999999545,0.0,-2.0,-4.0,-7.0,-4.0,-3.0,-1.0,1.0,0.2652587890625,0.572998046875,-0.72003173828125,-0.28802490234375,-0.05712890625,-0.99755859375,0.20166015625,-0.75,0.125,-0.5625
3.1799999999999544,0.0,-2.0,-4.0,-7.0,-4.0,-3.0,-1.0,1.0,0.2652587890625,0.572998046875,-0.72003173828125,-0.28802490234375,-0.05712890625,-0.99755859375,0.20166015625,-0.75,0.125,-0.5625
3.1849999999999543,0.0,-2.0,-4.0,-7.0,-4.0,-3.0,-1.0,1.0,0.2652587890625,0.572998046875,-0.72003173828125,-0.28802490234375,-0.05712890625,-0.99755859375,0.20166015625,-0.75,0.125,-0.5625
3.189999999999954,0.0,-2.0,-4.0,-7.0,-4.0,-3.0,-1.0,1.0,0.2652587890625,0.572998046875,-0.72003173828125,-0.28802490234375,-0.05712890625,-0.99755859375,0.20166015625,-0.75,0.125,-0.5625
3.194999999999954,0.0,0.0,-5.0,-19.0,-1.0,2.0,-1.0,0.0,0.2652587890625,0.572998046875,-0.72003173828125,-0.28802490234375,-0.05712890625,-0.99755859375,0.20166015625,-0.75,0.125,-0.5625
3.199999999999954,0.0,0.0,-5.0,-19.0,-1.0,2.0,-1.0,0.0,0.2652587890625,0.572998046875,-0.72003173828125,-0.28802490234375,-0.05712890625,-0.99755859375,0.20166015625,-0.75,0.125,-0.5625
3.204999999999954,0.0,0.0,-5.0,-19.0,-1.0,2.0,-1.0,0.0,0.2652587890625,0.572998046875,-0.72003173828125,-0.28802490234375,-0.05712890625,-0.99755859375,0.20166015625,-0.75,0.125,-0.5625
3.209999999999954,-2.0,0.0,-1.0,-1.0,-3.0,-4.0,-2.0,0.0,0.2652587890625,0.5731201171875,-0.7198486328125,-0.2880859375,-0.06005859375,-0.99658203125,0.1962890625,-0.3125,0.3125,-1.1875
3.2149999999999537,-2.0,0.0,2.0,5.0,-1.0,-2.0,-2.0,-3.0,0.2652587890625,0.5731201171875,-0.7198486328125,-0.2880859375,-0.06005859375,-0.99658203125,0.1962890625,-0.3125,0.3125,-1.1875
3.2199999999999536,0.0,0.0,-1.0,-3.0,-7.0,1.0,4.0,1.0,0.26531982421875,0.5732421875,-0.7197265625,-0.28814697265625,-0.060546875,-0.99365234375,0.19677734375,-0.75,0.0,-1.1875
3.2249999999999535,0.0,0.0,-1.0,-3.0,-7.0,1.0,4.0,1.0,0.26531982421875,0.5732421875,-0.7197265625,-0.28814697265625,-0.060546875,-0.99365234375,0.19677734375,-0.75,0.0,-1.1875
3.2299999999999534,0.0,0.0,-1.0,-3.0,-7.0,1.0,4.0,1.0,0.26531982421875,0.5732421875,-0.7197265625,-0.28814697265625,-0.060546875,-0.99365234375,0.19677734375,-0.75,0.0,-1.1875
3.2349999999999532,-1.0,0.0,1.0,8.0,6.0,-11.0,2.0,1.0,0.26531982421875,0.5732421875,-0.7197265625,-0.28814697265625,-0.060546875,-0.99365234375,0.19677734375,-0.75,0.0,-1.1875
3.239999999999953,-1.0,0.0,1.0,8.0,6.0,-11.0,2.0,1.0,0.26531982421875,0.5732421875,-0.7197265625,-0.28814697265625,-0.060546875,-0.99365234375,0.19677734375,-0.75,0.0,-1.1875
3.244999999999953,-1.0,0.0,1.0,8.0,6.0,-11.0,2.0,1.0,0.26531982421875,0.5732421875,-0.7197265625,-0.28814697265625,-0.060546875,-0.99365234375,0.19677734375,-0.75,0.0,-1.1875
3.249999999999953,-1.0,0.0,0.0,-2.0,0.0,-5.0,-4.0,-2.0,0.2652587890625,0.573486328125,-0.71954345703125,-0.28814697265625,-0.05810546875,-0.9951171875,0.19873046875,-0.9375,-0.5,-1.25
3.254999999999953,-1.0,0.0,0.0,-2.0,0.0,-5.0,-4.0,-2.0,0.2652587890625,0.573486328125,-0.71954345703125,-0.28814697265625,-0.05810546875,-0.9951171875,0.19873046875,-0.9375,-0.5,-1.25
3.2599999999999527,-1.0,-1.0,-4.0,-6.0,-4.0,7.0,-1.0,-1.0,0.2652587890625,0.573486328125,-0.71954345703125,-0.28814697265625,-0.05810546875,-0.9951171875,0.19873046875,-0.9375,-0.5,-1.25
3.2649999999999526,-1.0,-1.0,-4.0,-6.0,-4.0,7.0,-1.0,-1.0,0.2652587890625,0.573486328125,-0.71954345703125,-0.28814697265625,-0.05810546875,-0.9951171875,0.19873046875,-0.9375,-0.5,-1.25
3.2699999999999525,-2.0,-3.0,-1.0,-5.0,-7.0,-9.0,-3.0,-1.0,0.26513671875,0.57379150390625,-0.7193603515625,-0.28814697265625,-0.0498046875,-1.001953125,0.1953125,-1.0,-0.75,-1.1875
3.2749999999999524,0.0,-1.0,1.0,-2.0,-3.0,-2.0,-2.0,-2.0,0.26513671875,0.57379150390625,-0.7193603515625,-0.28814697265625,-0.0498046875,-1.001953125,0.1953125,-1.0,-0.75,-1.1875
