0.005,1.0,-1.0,0.0,-3.0,-6.0,1.0,0.0,1.0,-0.47711181640625,0.2813720703125,-0.4517822265625,0.6993408203125,0.03564453125,-0.91650390625,0.39453125,2.0,4.0,3.4375
0.01,-1.0,-4.0,-8.0,3.0,-2.0,2.0,-1.0,-1.0,-0.47650146484375,0.28253173828125,-0.45159912109375,0.699462890625,0.03271484375,-0.9287109375,0.39404296875,-0.8125,5.4375,4.8125
0.015,-1.0,-4.0,-8.0,3.0,-2.0,2.0,-1.0,-1.0,-0.47650146484375,0.28253173828125,-0.45159912109375,0.699462890625,0.03271484375,-0.9287109375,0.39404296875,-0.8125,5.4375,4.8125
0.02,-1.0,-4.0,-8.0,3.0,-2.0,2.0,-1.0,-1.0,-0.47650146484375,0.28253173828125,-0.45159912109375,0.699462890625,0.03271484375,-0.9287109375,0.39404296875,-0.8125,5.4375,4.8125
0.025,-2.0,-2.0,-4.0,-17.0,-7.0,-4.0,4.0,-2.0,-0.47552490234375,0.28363037109375,-0.4512939453125,0.6998291015625,0.02783203125,-0.93408203125,0.3974609375,1.0625,5.1875,6.4375
0.030000000000000002,-2.0,-2.0,-4.0,-17.0,-7.0,-4.0,4.0,-2.0,-0.47552490234375,0.28363037109375,-0.4512939453125,0.6998291015625,0.02783203125,-0.93408203125,0.3974609375,1.0625,5.1875,6.4375
0.035,0.0,-2.0,-5.0,-3.0,-1.0,4.0,5.0,1.0,-0.47552490234375,0.28363037109375,-0.4512939453125,0.6998291015625,0.02783203125,-0.93408203125,0.3974609375,1.0625,5.1875,6.4375
0.04,0.0,-2.0,-5.0,-3.0,-1.0,4.0,5.0,1.0,-0.47552490234375,0.28363037109375,-0.4512939453125,0.6998291015625,0.02783203125,-0.93408203125,0.3974609375,1.0625,5.1875,6.4375
0.045,0.0,-2.0,-5.0,-3.0,-1.0,4.0,5.0,1.0,-0.47552490234375,0.28363037109375,-0.4512939453125,0.6998291015625,0.02783203125,-0.93408203125,0.3974609375,1.0625,5.1875,6.4375
0.049999999999999996,0.0,-2.0,-5.0,-3.0,-1.0,4.0,5.0,1.0,-0.47552490234375,0.28363037109375,-0.4512939453125,0.6998291015625,0.02783203125,-0.93408203125,0.3974609375,1.0625,5.1875,6.4375
0.05499999999999999,0.0,4.0,9.0,34.0,4.0,-14.0,-5.0,0.0,-0.47454833984375,0.28448486328125,-0.45098876953125,0.70037841796875,0.02099609375,-0.91796875,0.388671875,2.375,4.25,6.0625
0.05999999999999999,0.0,4.0,9.0,34.0,4.0,-14.0,-5.0,0.0,-0.47454833984375,0.28448486328125,-0.45098876953125,0.70037841796875,0.02099609375,-0.91796875,0.388671875,2.375,4.25,6.0625
0.06499999999999999,-1.0,-2.0,-3.0,-7.0,-4.0,2.0,5.0,1.0,-0.47454833984375,0.28448486328125,-0.45098876953125,0.70037841796875,0.02099609375,-0.91796875,0.388671875,2.375,4.25,6.0625
0.06999999999999999,-1.0,-2.0,-3.0,-7.0,-4.0,2.0,5.0,1.0,-0.47454833984375,0.28448486328125,-0.45098876953125,0.70037841796875,0.02099609375,-0.91796875,0.388671875,2.375,4.25,6.0625
0.075,-1.0,1.0,3.0,1.0,4.0,4.0,1.0,-1.0,-0.47454833984375,0.28448486328125,-0.45098876953125,0.70037841796875,0.02099609375,-0.91796875,0.388671875,2.375,4.25,6.0625
0.08,-1.0,1.0,3.0,1.0,4.0,4.0,1.0,-1.0,-0.47454833984375,0.28448486328125,-0.45098876953125,0.70037841796875,0.02099609375,-0.91796875,0.388671875,2.375,4.25,6.0625
0.085,-1.0,-2.0,-3.0,-13.0,-26.0,2.0,1.0,-2.0,-0.47418212890625,0.285888671875,-0.45050048828125,0.7003173828125,0.01953125,-0.931640625,0.376953125,-2.3125,5.0625,5.5
0.09000000000000001,-1.0,-2.0,-3.0,-13.0,-26.0,2.0,1.0,-2.0,-0.47418212890625,0.285888671875,-0.45050048828125,0.7003173828125,0.01953125,-0.931640625,0.376953125,-2.3125,5.0625,5.5
0.09500000000000001,-1.0,-2.0,-3.0,-13.0,-26.0,2.0,1.0,-2.0,-0.47418212890625,0.285888671875,-0.45050048828125,0.7003173828125,0.01953125,-0.931640625,0.376953125,-2.3125,5.0625,5.5
0.10000000000000002,-1.0,-2.0,-3.0,-13.0,-26.0,2.0,1.0,-2.0,-0.47418212890625,0.285888671875,-0.45050048828125,0.7003173828125,0.01953125,-0.931640625,0.376953125,-2.3125,5.0625,5.5
0.10500000000000002,0.0,-1.0,-3.0,-12.0,14.0,-14.0,-1.0,-2.0,-0.4737548828125,0.28704833984375,-0.4501953125,0.70037841796875,0.02099609375,-0.9267578125,0.36962890625,-0.375,4.625,5.0
0.11000000000000003,-1.0,-3.0,-6.0,-23.0,-4.0,-23.0,-3.0,-4.0,-0.4737548828125,0.28704833984375,-0.4501953125,0.70037841796875,0.02099609375,-0.9267578125,0.36962890625,-0.375,4.625,5.0
0.11500000000000003,-1.0,-3.0,-6.0,-23.0,-4.0,-23.0,-3.0,-4.0,-0.4737548828125,0.28704833984375,-0.4501953125,0.70037841796875,0.02099609375,-0.9267578125,0.36962890625,-0.375,4.625,5.0
0.12000000000000004,-1.0,-3.0,-6.0,-23.0,-4.0,-23.0,-3.0,-4.0,-0.4737548828125,0.28704833984375,-0.4501953125,0.70037841796875,0.02099609375,-0.9267578125,0.36962890625,-0.375,4.625,5.0
0.12500000000000003,-1.0,-3.0,-6.0,-23.0,-4.0,-23.0,-3.0,-4.0,-0.4737548828125,0.28704833984375,-0.4501953125,0.70037841796875,0.02099609375,-0.9267578125,0.36962890625,-0.375,4.625,5.0
0.13000000000000003,0.0,0.0,1.0,10.0,-6.0,9.0,-4.0,-1.0,-0.4737548828125,0.28704833984375,-0.4501953125,0.70037841796875,0.02099609375,-0.9267578125,0.36962890625,-0.375,4.625,5.0
0.13500000000000004,0.0,0.0,1.0,10.0,-6.0,9.0,-4.0,-1.0,-0.47296142578125,0.2877197265625,-0.4500732421875,0.70068359375,0.0166015625,-0.9228515625,0.36669921875,3.1875,3.6875,4.125
0.14000000000000004,-1.0,1.0,7.0,40.0,9.0,9.0,1.0,-1.0,-0.47296142578125,0.2877197265625,-0.4500732421875,0.70068359375,0.0166015625,-0.9228515625,0.36669921875,3.1875,3.6875,4.125
0.14500000000000005,-1.0,1.0,7.0,40.0,9.0,9.0,1.0,-1.0,-0.47296142578125,0.2877197265625,-0.4500732421875,0.70068359375,0.0166015625,-0.9228515625,0.36669921875,3.1875,3.6875,4.125
0.15000000000000005,-2.0,-8.0,-17.0,-7.0,-13.0,-7.0,-4.0,-3.0,-0.47296142578125,0.2877197265625,-0.4500732421875,0.70068359375,0.0166015625,-0.9228515625,0.36669921875,3.1875,3.6875,4.125
0.15500000000000005,-2.0,-8.0,-17.0,-7.0,-13.0,-7.0,-4.0,-3.0,-0.47296142578125,0.2877197265625,-0.4500732421875,0.70068359375,0.0166015625,-0.9228515625,0.36669921875,3.1875,3.6875,4.125
0.16000000000000006,2.0,1.0,-3.0,1.0,1.0,13.0,0.0,1.0,-0.47247314453125,0.28839111328125,-0.44970703125,0.700927734375,0.0078125,-0.9140625,0.3662109375,1.4375,2.375,3.9375
0.16500000000000006,2.0,1.0,-3.0,1.0,1.0,13.0,0.0,1.0,-0.47247314453125,0.28839111328125,-0.44970703125,0.700927734375,0.0078125,-0.9140625,0.3662109375,1.4375,2.375,3.9375
0.17000000000000007,2.0,1.0,-3.0,1.0,1.0,13.0,0.0,1.0,-0.47247314453125,0.28839111328125,-0.44970703125,0.700927734375,0.0078125,-0.9140625,0.3662109375,1.4375,2.375,3.9375
0.17500000000000007,2.0,1.0,-3.0,1.0,1.0,13.0,0.0,1.0,-0.47247314453125,0.28839111328125,-0.44970703125,0.700927734375,0.0078125,-0.9140625,0.3662109375,1.4375,2.375,3.9375
0.18000000000000008,-1.0,-3.0,1.0,8.0,-7.0,-21.0,-11.0,-2.0,-0.4725341796875,0.289306640625,-0.44915771484375,0.700927734375,0.0,-0.93798828125,0.3740234375,-2.125,1.5625,3.0625
0.18500000000000008,-1.0,-3.0,1.0,8.0,-7.0,-21.0,-11.0,-2.0,-0.4725341796875,0.289306640625,-0.44915771484375,0.700927734375,0.0,-0.93798828125,0.3740234375,-2.125,1.5625,3.0625
0.19000000000000009,-2.0,-3.0,3.0,2.0,-1.0,2.0,0.0,-1.0,-0.4725341796875,0.289306640625,-0.44915771484375,0.700927734375,0.0,-0.93798828125,0.3740234375,-2.125,1.5625,3.0625
0.1950000000000001,-2.0,-3.0,3.0,2.0,-1.0,2.0,0.0,-1.0,-0.4725341796875,0.289306640625,-0.44915771484375,0.700927734375,0.0,-0.93798828125,0.3740234375,-2.125,1.5625,3.0625
0.2000000000000001,-2.0,-3.0,3.0,2.0,-1.0,2.0,0.0,-1.0,-0.4725341796875,0.289306640625,-0.44915771484375,0.700927734375,0.0,-0.93798828125,0.3740234375,-2.125,1.5625,3.0625
0.2050000000000001,-1.0,-1.0,3.0,2.0,-6.0,12.0,3.0,1.0,-0.4725341796875,0.289306640625,-0.44915771484375,0.700927734375,0.0,-0.93798828125,0.3740234375,-2.125,1.5625,3.0625
0.2100000000000001,-1.0,-1.0,3.0,2.0,-6.0,12.0,3.0,1.0,-0.47235107421875,0.28948974609375,-0.44879150390625,0.701171875,0.00048828125,-0.93798828125,0.380859375,1.0625,-0.6875,1.8125
0.2150000000000001,-1.0,-2.0,-2.0,-15.0,6.0,3.0,-6.0,-2.0,-0.47235107421875,0.28948974609375,-0.44879150390625,0.701171875,0.00048828125,-0.93798828125,0.380859375,1.0625,-0.6875,1.8125
0.2200000000000001,-1.0,-2.0,-2.0,-15.0,6.0,3.0,-6.0,-2.0,-0.47235107421875,0.28948974609375,-0.44879150390625,0.701171875,0.00048828125,-0.93798828125,0.380859375,1.0625,-0.6875,1.8125
0.22500000000000012,-1.0,-2.0,-2.0,-15.0,6.0,3.0,-6.0,-2.0,-0.47235107421875,0.28948974609375,-0.44879150390625,0.701171875,0.00048828125,-0.93798828125,0.380859375,1.0625,-0.6875,1.8125
0.23000000000000012,-1.0,-2.0,1.0,-3.0,-6.0,-10.0,2.0,-4.0,-0.47235107421875,0.28948974609375,-0.44879150390625,0.701171875,0.00048828125,-0.93798828125,0.380859375,1.0625,-0.6875,1.8125
0.23500000000000013,-1.0,-2.0,1.0,-3.0,-6.0,-10.0,2.0,-4.0,-0.47247314453125,0.28955078125,-0.4483642578125,0.70135498046875,0.001953125,-0.9365234375,0.38232421875,-0.3125,-2.125,1.125
0.24000000000000013,-1.0,-3.0,-6.0,-41.0,-2.0,-4.0,2.0,-1.0,-0.47247314453125,0.28955078125,-0.4483642578125,0.70135498046875,0.001953125,-0.9365234375,0.38232421875,-0.3125,-2.125,1.125
0.24500000000000013,-1.0,-3.0,-6.0,-41.0,-2.0,-4.0,2.0,-1.0,-0.47247314453125,0.28955078125,-0.4483642578125,0.70135498046875,0.001953125,-0.9365234375,0.38232421875,-0.3125,-2.125,1.125
0.2500000000000001,-1.0,-3.0,-6.0,-41.0,-2.0,-4.0,2.0,-1.0,-0.47247314453125,0.28955078125,-0.4483642578125,0.70135498046875,0.001953125,-0.9365234375,0.38232421875,-0.3125,-2.125,1.125
0.2550000000000001,0.0,1.0,-2.0,-16.0,1.0,14.0,5.0,0.0,-0.4727783203125,0.28912353515625,-0.44793701171875,0.70159912109375,0.00390625,-0.9423828125,0.39990234375,-0.75,-4.1875,-0.25
0.2600000000000001,0.0,1.0,-2.0,-16.0,1.0,14.0,5.0,0.0,-0.4727783203125,0.28912353515625,-0.44793701171875,0.70159912109375,0.00390625,-0.9423828125,0.39990234375,-0.75,-4.1875,-0.25
0.2650000000000001,-3.0,-1.0,2.0,8.0,1.0,-9.0,-4.0,-3.0,-0.4727783203125,0.28912353515625,-0.44793701171875,0.70159912109375,0.00390625,-0.9423828125,0.39990234375,-0.75,-4.1875,-0.25
0.27000000000000013,-3.0,-1.0,2.0,8.0,1.0,-9.0,-4.0,-3.0,-0.4727783203125,0.28912353515625,-0.44793701171875,0.70159912109375,0.00390625,-0.9423828125,0.39990234375,-0.75,-4.1875,-0.25
0.27500000000000013,-2.0,-1.0,0.0,-17.0,9.0,8.0,6.0,-1.0,-0.47320556640625,0.2884521484375,-0.44769287109375,0.7017822265625,0.0234375,-0.9404296875,0.39892578125,-0.3125,-5.0625,-0.75
0.28000000000000014,-2.0,-1.0,0.0,-17.0,9.0,8.0,6.0,-1.0,-0.47320556640625,0.2884521484375,-0.44769287109375,0.7017822265625,0.0234375,-0.9404296875,0.39892578125,-0.3125,-5.0625,-0.75
0.28500000000000014,0.0,-1.0,0.0,-2.0,-10.0,-21.0,10.0,0.0,-0.47320556640625,0.2884521484375,-0.44769287109375,0.7017822265625,0.0234375,-0.9404296875,0.39892578125,-0.3125,-5.0625,-0.75
0.29000000000000015,0.0,-1.0,0.0,-2.0,-10.0,-21.0,10.0,0.0,-0.47320556640625,0.2884521484375,-0.44769287109375,0.7017822265625,0.0234375,-0.9404296875,0.39892578125,-0.3125,-5.0625,-0.75
0.29500000000000015,0.0,-1.0,0.0,-2.0,-10.0,-21.0,10.0,0.0,-0.47320556640625,0.2884521484375,-0.44769287109375,0.7017822265625,0.0234375,-0.9404296875,0.39892578125,-0.3125,-5.0625,-0.75
0.30000000000000016,-2.0,-1.0,-1.0,38.0,-12.0,13.0,-6.0,-1.0,-0.47320556640625,0.2884521484375,-0.44769287109375,0.7017822265625,0.0234375,-0.9404296875,0.39892578125,-0.3125,-5.0625,-0.75
0.30500000000000016,-4.0,-3.0,-9.0,-10.0,-3.0,3.0,1.0,-4.0,-0.47344970703125,0.28765869140625,-0.44744873046875,0.7020263671875,0.02734375,-0.9404296875,0.40576171875,0.5625,-4.4375,-0.4375
0.31000000000000016,-4.0,-3.0,-9.0,-10.0,-3.0,3.0,1.0,-4.0,-0.47344970703125,0.28765869140625,-0.44744873046875,0.7020263671875,0.02734375,-0.9404296875,0.40576171875,0.5625,-4.4375,-0.4375
0.31500000000000017,-4.0,-3.0,-9.0,-10.0,-3.0,3.0,1.0,-4.0,-0.47344970703125,0.28765869140625,-0.44744873046875,0.7020263671875,0.02734375,-0.9404296875,0.40576171875,0.5625,-4.4375,-0.4375
0.3200000000000002,-1.0,1.0,9.0,26.0,5.0,6.0,-3.0,1.0,-0.47369384765625,0.2874755859375,-0.44732666015625,0.7020263671875,0.0263671875,-0.93994140625,0.4033203125,-1.625,-1.6875,-0.3125
0.3250000000000002,-1.0,1.0,9.0,26.0,5.0,6.0,-3.0,1.0,-0.47369384765625,0.2874755859375,-0.44732666015625,0.7020263671875,0.0263671875,-0.93994140625,0.4033203125,-1.625,-1.6875,-0.3125
0.3300000000000002,-1.0,1.0,9.0,26.0,5.0,6.0,-3.0,1.0,-0.47369384765625,0.2874755859375,-0.44732666015625,0.7020263671875,0.0263671875,-0.93994140625,0.4033203125,-1.625,-1.6875,-0.3125
0.3350000000000002,0.0,-1.0,4.0,36.0,3.0,1.0,0.0,1.0,-0.4736328125,0.2874755859375,-0.4471435546875,0.70220947265625,0.009765625,-0.9443359375,0.4091796875,-0.375,-1.0625,0.75
0.3400000000000002,0.0,-1.0,4.0,36.0,3.0,1.0,0.0,1.0,-0.4736328125,0.2874755859375,-0.4471435546875,0.70220947265625,0.009765625,-0.9443359375,0.4091796875,-0.375,-1.0625,0.75
0.3450000000000002,-2.0,-2.0,-5.0,-16.0,1.0,7.0,0.0,-1.0,-0.4736328125,0.2874755859375,-0.4471435546875,0.70220947265625,0.009765625,-0.9443359375,0.4091796875,-0.375,-1.0625,0.75
0.3500000000000002,-2.0,-2.0,-5.0,-16.0,1.0,7.0,0.0,-1.0,-0.4736328125,0.2874755859375,-0.4471435546875,0.70220947265625,0.009765625,-0.9443359375,0.4091796875,-0.375,-1.0625,0.75
0.3550000000000002,-2.0,-2.0,-5.0,-16.0,1.0,7.0,0.0,-1.0,-0.4736328125,0.2874755859375,-0.4471435546875,0.70220947265625,0.009765625,-0.9443359375,0.4091796875,-0.375,-1.0625,0.75
0.3600000000000002,-2.0,-2.0,0.0,23.0,6.0,5.0,-4.0,-2.0,-0.4732666015625,0.2874755859375,-0.4468994140625,0.70257568359375,0.0009765625,-0.9365234375,0.40185546875,1.4375,-0.8125,1.25
0.3650000000000002,-2.0,-2.0,0.0,23.0,6.0,5.0,-4.0,-2.0,-0.4732666015625,0.2874755859375,-0.4468994140625,0.70257568359375,0.0009765625,-0.9365234375,0.40185546875,1.4375,-0.8125,1.25
0.3700000000000002,-2.0,-2.0,0.0,23.0,6.0,5.0,-4.0,-2.0,-0.4732666015625,0.2874755859375,-0.4468994140625,0.70257568359375,0.0009765625,-0.9365234375,0.40185546875,1.4375,-0.8125,1.25
0.3750000000000002,-2.0,-2.0,0.0,23.0,6.0,5.0,-4.0,-2.0,-0.4732666015625,0.2874755859375,-0.4468994140625,0.70257568359375,0.0009765625,-0.9365234375,0.40185546875,1.4375,-0.8125,1.25
0.3800000000000002,-2.0,-2.0,0.0,23.0,6.0,5.0,-4.0,-2.0,-0.4732666015625,0.2874755859375,-0.4468994140625,0.70257568359375,0.0009765625,-0.9365234375,0.40185546875,1.4375,-0.8125,1.25
0.38500000000000023,-1.0,1.0,0.0,2.0,4.0,7.0,5.0,-2.0,-0.4727783203125,0.28765869140625,-0.44677734375,0.70294189453125,-0.0068359375,-0.9287109375,0.3955078125,1.625,0.5,1.25
0.39000000000000024,-1.0,1.0,0.0,2.0,4.0,7.0,5.0,-2.0,-0.4727783203125,0.28765869140625,-0.44677734375,0.70294189453125,-0.0068359375,-0.9287109375,0.3955078125,1.625,0.5,1.25
0.39500000000000024,-1.0,1.0,0.0,2.0,4.0,7.0,5.0,-2.0,-0.4727783203125,0.28765869140625,-0.44677734375,0.70294189453125,-0.0068359375,-0.9287109375,0.3955078125,1.625,0.5,1.25
0.40000000000000024,-1.0,1.0,0.0,2.0,4.0,7.0,5.0,-2.0,-0.4727783203125,0.28765869140625,-0.44677734375,0.70294189453125,-0.0068359375,-0.9287109375,0.3955078125,1.625,0.5,1.25
0.40500000000000025,-1.0,2.0,5.0,23.0,-11.0,-27.0,-1.0,0.0,-0.47259521484375,0.28857421875,-0.446533203125,0.70281982421875,-0.01513671875,-0.93310546875,0.39013671875,-2.1875,2.5625,1.375
0.41000000000000025,0.0,2.0,11.0,9.0,0.0,-16.0,-9.0,2.0,-0.47259521484375,0.28857421875,-0.446533203125,0.70281982421875,-0.01513671875,-0.93310546875,0.39013671875,-2.1875,2.5625,1.375
0.41500000000000026,0.0,2.0,11.0,9.0,0.0,-16.0,-9.0,2.0,-0.47259521484375,0.28857421875,-0.446533203125,0.70281982421875,-0.01513671875,-0.93310546875,0.39013671875,-2.1875,2.5625,1.375
0.42000000000000026,0.0,2.0,11.0,9.0,0.0,-16.0,-9.0,2.0,-0.47259521484375,0.28857421875,-0.446533203125,0.70281982421875,-0.01513671875,-0.93310546875,0.39013671875,-2.1875,2.5625,1.375
0.42500000000000027,0.0,-2.0,-7.0,-36.0,6.0,31.0,3.0,-1.0,-0.47222900390625,0.28955078125,-0.44635009765625,0.70281982421875,-0.02294921875,-0.94189453125,0.384765625,-0.6875,3.5625,1.25
0.43000000000000027,1.0,0.0,10.0,56.0,8.0,-9.0,-1.0,-1.0,-0.47222900390625,0.28955078125,-0.44635009765625,0.70281982421875,-0.02294921875,-0.94189453125,0.384765625,-0.6875,3.5625,1.25
0.4350000000000003,1.0,0.0,10.0,56.0,8.0,-9.0,-1.0,-1.0,-0.47222900390625,0.28955078125,-0.44635009765625,0.70281982421875,-0.02294921875,-0.94189453125,0.384765625,-0.6875,3.5625,1.25
0.4400000000000003,1.0,0.0,10.0,56.0,8.0,-9.0,-1.0,-1.0,-0.47222900390625,0.28955078125,-0.44635009765625,0.70281982421875,-0.02294921875,-0.94189453125,0.384765625,-0.6875,3.5625,1.25
0.4450000000000003,0.0,0.0,-12.0,-62.0,-3.0,1.0,-13.0,-1.0,-0.47222900390625,0.28955078125,-0.44635009765625,0.70281982421875,-0.02294921875,-0.94189453125,0.384765625,-0.6875,3.5625,1.25
0.4500000000000003,-2.0,-6.0,-18.0,-37.0,-13.0,10.0,-1.0,0.0,-0.47186279296875,0.29034423828125,-0.446533203125,0.70257568359375,-0.01318359375,-0.94091796875,0.37744140625,0.0,4.0,-0.0625
0.4550000000000003,-2.0,-6.0,-18.0,-37.0,-13.0,10.0,-1.0,0.0,-0.47186279296875,0.29034423828125,-0.446533203125,0.70257568359375,-0.01318359375,-0.94091796875,0.37744140625,0.0,4.0,-0.0625
0.4600000000000003,-2.0,-6.0,-18.0,-37.0,-13.0,10.0,-1.0,0.0,-0.47186279296875,0.29034423828125,-0.446533203125,0.70257568359375,-0.01318359375,-0.94091796875,0.37744140625,0.0,4.0,-0.0625
0.4650000000000003,-2.0,-6.0,-18.0,-37.0,-13.0,10.0,-1.0,0.0,-0.47186279296875,0.29034423828125,-0.446533203125,0.70257568359375,-0.01318359375,-0.94091796875,0.37744140625,0.0,4.0,-0.0625
0.4700000000000003,-3.0,0.0,-3.0,-35.0,-2.0,-13.0,-3.0,0.0,-0.4716796875,0.2911376953125,-0.4464111328125,0.70245361328125,-0.01220703125,-0.9296875,0.3828125,-1.5,3.0,0.875
0.4750000000000003,-1.0,-4.0,-6.0,-10.0,-4.0,-4.0,2.0,-3.0,-0.4716796875,0.2911376953125,-0.4464111328125,0.70245361328125,-0.01220703125,-0.9296875,0.3828125,-1.5,3.0,0.875
0.4800000000000003,-1.0,-4.0,-6.0,-10.0,-4.0,-4.0,2.0,-3.0,-0.4716796875,0.2911376953125,-0.4464111328125,0.70245361328125,-0.01220703125,-0.9296875,0.3828125,-1.5,3.0,0.875
0.4850000000000003,-1.0,-4.0,-6.0,-10.0,-4.0,-4.0,2.0,-3.0,-0.4716796875,0.2911376953125,-0.4464111328125,0.70245361328125,-0.01220703125,-0.9296875,0.3828125,-1.5,3.0,0.875
0.4900000000000003,0.0,2.0,-3.0,-15.0,7.0,10.0,-1.0,-1.0,-0.4716796875,0.29180908203125,-0.44610595703125,0.702392578125,-0.00927734375,-0.92919921875,0.37744140625,-1.8125,1.6875,1.5
0.49500000000000033,0.0,2.0,-3.0,-15.0,7.0,10.0,-1.0,-1.0,-0.4716796875,0.29180908203125,-0.44610595703125,0.702392578125,-0.00927734375,-0.92919921875,0.37744140625,-1.8125,1.6875,1.5
0.5000000000000003,-2.0,-1.0,0.0,20.0,8.0,1.0,-12.0,3.0,-0.47125244140625,0.292236328125,-0.446044921875,0.7025146484375,-0.01025390625,-0.9208984375,0.38330078125,0.6875,1.75,1.1875
0.5050000000000003,1.0,1.0,5.0,-7.0,6.0,3.0,-4.0,-1.0,-0.47125244140625,0.292236328125,-0.446044921875,0.7025146484375,-0.01025390625,-0.9208984375,0.38330078125,0.6875,1.75,1.1875
0.5100000000000003,1.0,1.0,5.0,-7.0,6.0,3.0,-4.0,-1.0,-0.47125244140625,0.292236328125,-0.446044921875,0.7025146484375,-0.01025390625,-0.9208984375,0.38330078125,0.6875,1.75,1.1875
0.5150000000000003,1.0,1.0,5.0,-7.0,6.0,3.0,-4.0,-1.0,-0.47125244140625,0.292236328125,-0.446044921875,0.7025146484375,-0.01025390625,-0.9208984375,0.38330078125,0.6875,1.75,1.1875
0.5200000000000004,1.0,1.0,5.0,-7.0,6.0,3.0,-4.0,-1.0,-0.47125244140625,0.292236328125,-0.446044921875,0.7025146484375,-0.01025390625,-0.9208984375,0.38330078125,0.6875,1.75,1.1875
0.5250000000000004,0.0,-1.0,-9.0,-13.0,-10.0,-8.0,-3.0,-1.0,-0.47113037109375,0.29278564453125,-0.44586181640625,0.7025146484375,-0.01220703125,-0.92626953125,0.380859375,-0.5625,1.25,1.125
0.5300000000000004,0.0,-1.0,-9.0,-13.0,-10.0,-8.0,-3.0,-1.0,-0.47113037109375,0.29278564453125,-0.44586181640625,0.7025146484375,-0.01220703125,-0.92626953125,0.380859375,-0.5625,1.25,1.125
0.5350000000000004,-2.0,-2.0,5.0,25.0,11.0,12.0,8.0,0.0,-0.47113037109375,0.29278564453125,-0.44586181640625,0.7025146484375,-0.01220703125,-0.92626953125,0.380859375,-0.5625,1.25,1.125
0.5400000000000004,-2.0,-2.0,5.0,25.0,11.0,12.0,8.0,0.0,-0.47113037109375,0.29278564453125,-0.44586181640625,0.7025146484375,-0.01220703125,-0.92626953125,0.380859375,-0.5625,1.25,1.125
0.5450000000000004,-2.0,-2.0,5.0,25.0,11.0,12.0,8.0,0.0,-0.47113037109375,0.29278564453125,-0.44586181640625,0.7025146484375,-0.01220703125,-0.92626953125,0.380859375,-0.5625,1.25,1.125
0.5500000000000004,-2.0,-2.0,5.0,25.0,11.0,12.0,8.0,0.0,-0.47113037109375,0.29278564453125,-0.44586181640625,0.7025146484375,-0.01220703125,-0.92626953125,0.380859375,-0.5625,1.25,1.125
0.5550000000000004,-2.0,1.0,-3.0,2.0,-11.0,-13.0,-2.0,-2.0,-0.4710693359375,0.2928466796875,-0.44580078125,0.70257568359375,-0.01708984375,-0.9384765625,0.38525390625,-0.75,0.3125,0.0625
0.5600000000000004,-2.0,1.0,-3.0,2.0,-11.0,-13.0,-2.0,-2.0,-0.4710693359375,0.2928466796875,-0.44580078125,0.70257568359375,-0.01708984375,-0.9384765625,0.38525390625,-0.75,0.3125,0.0625
0.5650000000000004,-2.0,1.0,-3.0,2.0,-11.0,-13.0,-2.0,-2.0,-0.4710693359375,0.2928466796875,-0.44580078125,0.70257568359375,-0.01708984375,-0.9384765625,0.38525390625,-0.75,0.3125,0.0625
0.5700000000000004,-2.0,1.0,-3.0,2.0,-11.0,-13.0,-2.0,-2.0,-0.4710693359375,0.2928466796875,-0.44580078125,0.70257568359375,-0.01708984375,-0.9384765625,0.38525390625,-0.75,0.3125,0.0625
0.5750000000000004,-2.0,-2.0,4.0,23.0,-5.0,-17.0,-3.0,-2.0,-0.4710693359375,0.29290771484375,-0.44580078125,0.70257568359375,-0.015625,-0.93310546875,0.3779296875,-0.1875,-0.9375,-0.875
0.5800000000000004,-2.0,-2.0,4.0,23.0,-5.0,-17.0,-3.0,-2.0,-0.4710693359375,0.29290771484375,-0.44580078125,0.70257568359375,-0.015625,-0.93310546875,0.3779296875,-0.1875,-0.9375,-0.875
0.5850000000000004,-1.0,-2.0,-15.0,-59.0,-11.0,-3.0,-2.0,0.0,-0.4710693359375,0.29290771484375,-0.44580078125,0.70257568359375,-0.015625,-0.93310546875,0.3779296875,-0.1875,-0.9375,-0.875
0.5900000000000004,-1.0,-2.0,-15.0,-59.0,-11.0,-3.0,-2.0,0.0,-0.4710693359375,0.29290771484375,-0.44580078125,0.70257568359375,-0.015625,-0.93310546875,0.3779296875,-0.1875,-0.9375,-0.875
0.5950000000000004,-1.0,-2.0,-15.0,-59.0,-11.0,-3.0,-2.0,0.0,-0.4710693359375,0.29290771484375,-0.44580078125,0.70257568359375,-0.015625,-0.93310546875,0.3779296875,-0.1875,-0.9375,-0.875
0.6000000000000004,-1.0,-2.0,-15.0,-59.0,-11.0,-3.0,-2.0,0.0,-0.4710693359375,0.29290771484375,-0.44580078125,0.70257568359375,-0.015625,-0.93310546875,0.3779296875,-0.1875,-0.9375,-0.875
0.6050000000000004,1.0,0.0,-5.0,-3.0,-11.0,13.0,0.0,-3.0,-0.471435546875,0.292724609375,-0.44549560546875,0.70257568359375,-0.0068359375,-0.93505859375,0.37060546875,-0.5,-2.75,-0.875
0.6100000000000004,-2.0,-4.0,-5.0,3.0,-3.0,-9.0,-3.0,0.0,-0.471435546875,0.292724609375,-0.44549560546875,0.70257568359375,-0.0068359375,-0.93505859375,0.37060546875,-0.5,-2.75,-0.875
0.6150000000000004,-2.0,-4.0,-5.0,3.0,-3.0,-9.0,-3.0,0.0,-0.471435546875,0.292724609375,-0.44549560546875,0.70257568359375,-0.0068359375,-0.93505859375,0.37060546875,-0.5,-2.75,-0.875
0.6200000000000004,-2.0,-4.0,-5.0,3.0,-3.0,-9.0,-3.0,0.0,-0.471435546875,0.292724609375,-0.44549560546875,0.70257568359375,-0.0068359375,-0.93505859375,0.37060546875,-0.5,-2.75,-0.875
0.6250000000000004,-2.0,-4.0,-5.0,3.0,-3.0,-9.0,-3.0,0.0,-0.471435546875,0.292724609375,-0.44549560546875,0.70257568359375,-0.0068359375,-0.93505859375,0.37060546875,-0.5,-2.75,-0.875
0.6300000000000004,-2.0,-4.0,-5.0,3.0,-3.0,-9.0,-3.0,0.0,-0.471435546875,0.292724609375,-0.44549560546875,0.70257568359375,-0.0068359375,-0.93505859375,0.37060546875,-0.5,-2.75,-0.875
0.6350000000000005,-2.0,0.0,-4.0,-12.0,-17.0,4.0,-2.0,0.0,-0.4720458984375,0.2926025390625,-0.445068359375,0.70245361328125,0.0009765625,-0.9296875,0.37353515625,-2.0625,-3.375,-0.5625
0.6400000000000005,-2.0,0.0,-4.0,-12.0,-17.0,4.0,-2.0,0.0,-0.4720458984375,0.2926025390625,-0.445068359375,0.70245361328125,0.0009765625,-0.9296875,0.37353515625,-2.0625,-3.375,-0.5625
0.6450000000000005,-2.0,0.0,-4.0,-12.0,-17.0,4.0,-2.0,0.0,-0.4720458984375,0.2926025390625,-0.445068359375,0.70245361328125,0.0009765625,-0.9296875,0.37353515625,-2.0625,-3.375,-0.5625
0.6500000000000005,-2.0,0.0,-4.0,-12.0,-17.0,4.0,-2.0,0.0,-0.4720458984375,0.2926025390625,-0.445068359375,0.70245361328125,0.0009765625,-0.9296875,0.37353515625,-2.0625,-3.375,-0.5625
0.6550000000000005,1.0,3.0,10.0,44.0,-3.0,-7.0,2.0,-3.0,-0.47271728515625,0.29248046875,-0.44464111328125,0.70233154296875,0.01025390625,-0.9462890625,0.37646484375,-2.625,-3.0625,0.125
0.6600000000000005,-3.0,-4.0,-1.0,14.0,-1.0,7.0,0.0,-2.0,-0.47271728515625,0.29248046875,-0.44464111328125,0.70233154296875,0.01025390625,-0.9462890625,0.37646484375,-2.625,-3.0625,0.125
0.6650000000000005,-3.0,-4.0,-1.0,14.0,-1.0,7.0,0.0,-2.0,-0.47271728515625,0.29248046875,-0.44464111328125,0.70233154296875,0.01025390625,-0.9462890625,0.37646484375,-2.625,-3.0625,0.125
0.6700000000000005,-3.0,-4.0,-1.0,14.0,-1.0,7.0,0.0,-2.0,-0.47271728515625,0.29248046875,-0.44464111328125,0.70233154296875,0.01025390625,-0.9462890625,0.37646484375,-2.625,-3.0625,0.125
0.6750000000000005,-3.0,-4.0,-1.0,14.0,-1.0,7.0,0.0,-2.0,-0.47271728515625,0.29248046875,-0.44464111328125,0.70233154296875,0.01025390625,-0.9462890625,0.37646484375,-2.625,-3.0625,0.125
0.6800000000000005,-3.0,-4.0,-1.0,14.0,-1.0,7.0,0.0,-2.0,-0.47271728515625,0.29248046875,-0.44464111328125,0.70233154296875,0.01025390625,-0.9462890625,0.37646484375,-2.625,-3.0625,0.125
0.6850000000000005,0.0,0.0,-2.0,1.0,6.0,1.0,1.0,1.0,-0.47314453125,0.29229736328125,-0.44427490234375,0.702392578125,0.0068359375,-0.95361328125,0.3857421875,-1.3125,-2.9375,0.0
0.6900000000000005,0.0,-3.0,-8.0,0.0,0.0,-11.0,-4.0,-2.0,-0.47314453125,0.29229736328125,-0.44427490234375,0.702392578125,0.0068359375,-0.95361328125,0.3857421875,-1.3125,-2.9375,0.0
0.6950000000000005,0.0,-3.0,-8.0,0.0,0.0,-11.0,-4.0,-2.0,-0.47314453125,0.29229736328125,-0.44427490234375,0.702392578125,0.0068359375,-0.95361328125,0.3857421875,-1.3125,-2.9375,0.0
0.7000000000000005,0.0,-3.0,-8.0,0.0,0.0,-11.0,-4.0,-2.0,-0.47314453125,0.29229736328125,-0.44427490234375,0.702392578125,0.0068359375,-0.95361328125,0.3857421875,-1.3125,-2.9375,0.0
0.7050000000000005,0.0,-3.0,-8.0,0.0,0.0,-11.0,-4.0,-2.0,-0.47314453125,0.29229736328125,-0.44427490234375,0.702392578125,0.0068359375,-0.95361328125,0.3857421875,-1.3125,-2.9375,0.0
0.7100000000000005,0.0,-3.0,-8.0,0.0,0.0,-11.0,-4.0,-2.0,-0.47314453125,0.29229736328125,-0.44427490234375,0.702392578125,0.0068359375,-0.95361328125,0.3857421875,-1.3125,-2.9375,0.0
0.7150000000000005,0.0,2.0,6.0,9.0,5.0,-3.0,-8.0,-4.0,-0.47369384765625,0.29193115234375,-0.44403076171875,0.70233154296875,0.0166015625,-0.95458984375,0.3935546875,-2.0,-3.375,-0.4375
0.7200000000000005,0.0,2.0,6.0,9.0,5.0,-3.0,-8.0,-4.0,-0.47369384765625,0.29193115234375,-0.44403076171875,0.70233154296875,0.0166015625,-0.95458984375,0.3935546875,-2.0,-3.375,-0.4375
0.7250000000000005,0.0,2.0,6.0,9.0,5.0,-3.0,-8.0,-4.0,-0.47369384765625,0.29193115234375,-0.44403076171875,0.70233154296875,0.0166015625,-0.95458984375,0.3935546875,-2.0,-3.375,-0.4375
0.7300000000000005,-1.0,-2.0,3.0,7.0,2.0,5.0,-6.0,-2.0,-0.47369384765625,0.29193115234375,-0.44403076171875,0.70233154296875,0.0166015625,-0.95458984375,0.3935546875,-2.0,-3.375,-0.4375
0.7350000000000005,-1.0,-2.0,3.0,7.0,2.0,5.0,-6.0,-2.0,-0.47418212890625,0.29144287109375,-0.44354248046875,0.70245361328125,0.02294921875,-0.95947265625,0.40283203125,-1.9375,-4.5,0.5
0.7400000000000005,0.0,-2.0,0.0,-14.0,-3.0,-9.0,0.0,-1.0,-0.47418212890625,0.29144287109375,-0.44354248046875,0.70245361328125,0.02294921875,-0.95947265625,0.40283203125,-1.9375,-4.5,0.5
0.7450000000000006,0.0,-2.0,0.0,-14.0,-3.0,-9.0,0.0,-1.0,-0.47418212890625,0.29144287109375,-0.44354248046875,0.70245361328125,0.02294921875,-0.95947265625,0.40283203125,-1.9375,-4.5,0.5
0.7500000000000006,0.0,-2.0,0.0,-14.0,-3.0,-9.0,0.0,-1.0,-0.47418212890625,0.29144287109375,-0.44354248046875,0.70245361328125,0.02294921875,-0.95947265625,0.40283203125,-1.9375,-4.5,0.5
0.7550000000000006,0.0,-2.0,0.0,-14.0,-3.0,-9.0,0.0,-1.0,-0.47418212890625,0.29144287109375,-0.44354248046875,0.70245361328125,0.02294921875,-0.95947265625,0.40283203125,-1.9375,-4.5,0.5
0.7600000000000006,0.0,-1.0,3.0,22.0,10.0,15.0,6.0,1.0,-0.474365234375,0.29058837890625,-0.4432373046875,0.702880859375,0.02783203125,-0.96142578125,0.4072265625,1.4375,-5.1875,0.75
0.7650000000000006,0.0,-1.0,3.0,22.0,10.0,15.0,6.0,1.0,-0.474365234375,0.29058837890625,-0.4432373046875,0.702880859375,0.02783203125,-0.96142578125,0.4072265625,1.4375,-5.1875,0.75
0.7700000000000006,-3.0,-2.0,-17.0,-2.0,-1.0,2.0,-3.0,-4.0,-0.474365234375,0.29058837890625,-0.4432373046875,0.702880859375,0.02783203125,-0.96142578125,0.4072265625,1.4375,-5.1875,0.75
0.7750000000000006,-3.0,-2.0,-17.0,-2.0,-1.0,2.0,-3.0,-4.0,-0.474365234375,0.29058837890625,-0.4432373046875,0.702880859375,0.02783203125,-0.96142578125,0.4072265625,1.4375,-5.1875,0.75
0.7800000000000006,-3.0,-2.0,-17.0,-2.0,-1.0,2.0,-3.0,-4.0,-0.474365234375,0.29058837890625,-0.4432373046875,0.702880859375,0.02783203125,-0.96142578125,0.4072265625,1.4375,-5.1875,0.75
0.7850000000000006,-3.0,-2.0,-17.0,-2.0,-1.0,2.0,-3.0,-4.0,-0.474365234375,0.29058837890625,-0.4432373046875,0.702880859375,0.02783203125,-0.96142578125,0.4072265625,1.4375,-5.1875,0.75
0.7900000000000006,-1.0,-1.0,-2.0,-24.0,-7.0,-8.0,-1.0,-2.0,-0.4744873046875,0.2896728515625,-0.44305419921875,0.70330810546875,0.037109375,-0.9462890625,0.3994140625,1.9375,-4.5,0.6875
0.7950000000000006,-1.0,-1.0,-5.0,-3.0,5.0,1.0,-4.0,-1.0,-0.4744873046875,0.2896728515625,-0.44305419921875,0.70330810546875,0.037109375,-0.9462890625,0.3994140625,1.9375,-4.5,0.6875
0.8000000000000006,-1.0,-1.0,-5.0,-3.0,5.0,1.0,-4.0,-1.0,-0.4744873046875,0.2896728515625,-0.44305419921875,0.70330810546875,0.037109375,-0.9462890625,0.3994140625,1.9375,-4.5,0.6875
0.8050000000000006,-1.0,-1.0,-5.0,-3.0,5.0,1.0,-4.0,-1.0,-0.4744873046875,0.2896728515625,-0.44305419921875,0.70330810546875,0.037109375,-0.9462890625,0.3994140625,1.9375,-4.5,0.6875
0.8100000000000006,-1.0,-1.0,-5.0,-3.0,5.0,1.0,-4.0,-1.0,-0.4744873046875,0.2896728515625,-0.44305419921875,0.70330810546875,0.037109375,-0.9462890625,0.3994140625,1.9375,-4.5,0.6875
0.8150000000000006,0.0,0.0,6.0,18.0,5.0,-2.0,3.0,0.0,-0.474609375,0.28900146484375,-0.44293212890625,0.70355224609375,0.0341796875,-0.94677734375,0.4013671875,1.3125,-3.25,0.3125
0.8200000000000006,0.0,0.0,6.0,18.0,5.0,-2.0,3.0,0.0,-0.474609375,0.28900146484375,-0.44293212890625,0.70355224609375,0.0341796875,-0.94677734375,0.4013671875,1.3125,-3.25,0.3125
0.8250000000000006,0.0,0.0,6.0,18.0,5.0,-2.0,3.0,0.0,-0.474609375,0.28900146484375,-0.44293212890625,0.70355224609375,0.0341796875,-0.94677734375,0.4013671875,1.3125,-3.25,0.3125
0.8300000000000006,0.0,0.0,6.0,18.0,5.0,-2.0,3.0,0.0,-0.474609375,0.28900146484375,-0.44293212890625,0.70355224609375,0.0341796875,-0.94677734375,0.4013671875,1.3125,-3.25,0.3125
0.8350000000000006,0.0,0.0,6.0,18.0,5.0,-2.0,3.0,0.0,-0.474609375,0.28900146484375,-0.44293212890625,0.70355224609375,0.0341796875,-0.94677734375,0.4013671875,1.3125,-3.25,0.3125
0.8400000000000006,-1.0,-3.0,-7.0,-1.0,2.0,18.0,3.0,-3.0,-0.474609375,0.28900146484375,-0.44293212890625,0.70355224609375,0.0341796875,-0.94677734375,0.4013671875,1.3125,-3.25,0.3125
0.8450000000000006,-1.0,-1.0,2.0,-8.0,-6.0,-24.0,-3.0,-1.0,-0.4742431640625,0.28839111328125,-0.443115234375,0.7039794921875,0.02294921875,-0.9326171875,0.4033203125,3.1875,-1.625,-0.1875
0.8500000000000006,-1.0,-1.0,2.0,-8.0,-6.0,-24.0,-3.0,-1.0,-0.4742431640625,0.28839111328125,-0.443115234375,0.7039794921875,0.02294921875,-0.9326171875,0.4033203125,3.1875,-1.625,-0.1875
0.8550000000000006,-1.0,-1.0,2.0,-8.0,-6.0,-24.0,-3.0,-1.0,-0.4742431640625,0.28839111328125,-0.443115234375,0.7039794921875,0.02294921875,-0.9326171875,0.4033203125,3.1875,-1.625,-0.1875
0.8600000000000007,-1.0,-1.0,2.0,-8.0,-6.0,-24.0,-3.0,-1.0,-0.4742431640625,0.28839111328125,-0.443115234375,0.7039794921875,0.02294921875,-0.9326171875,0.4033203125,3.1875,-1.625,-0.1875
0.8650000000000007,-2.0,-1.0,-1.0,-6.0,3.0,10.0,-7.0,-2.0,-0.473876953125,0.2877197265625,-0.44342041015625,0.70428466796875,0.02490234375,-0.9326171875,0.39501953125,4.1875,-0.9375,-0.8125
0.8700000000000007,-2.0,-3.0,0.0,-3.0,-1.0,24.0,5.0,-5.0,-0.473876953125,0.2877197265625,-0.44342041015625,0.70428466796875,0.02490234375,-0.9326171875,0.39501953125,4.1875,-0.9375,-0.8125
0.8750000000000007,-2.0,-3.0,0.0,-3.0,-1.0,24.0,5.0,-5.0,-0.473876953125,0.2877197265625,-0.44342041015625,0.70428466796875,0.02490234375,-0.9326171875,0.39501953125,4.1875,-0.9375,-0.8125
0.8800000000000007,-2.0,-3.0,-11.0,7.0,-13.0,-37.0,-5.0,-1.0,-0.473876953125,0.2877197265625,-0.44342041015625,0.70428466796875,0.02490234375,-0.9326171875,0.39501953125,4.1875,-0.9375,-0.8125
0.8850000000000007,-2.0,-3.0,-11.0,7.0,-13.0,-37.0,-5.0,-1.0,-0.473876953125,0.2877197265625,-0.44342041015625,0.70428466796875,0.02490234375,-0.9326171875,0.39501953125,4.1875,-0.9375,-0.8125
0.8900000000000007,-2.0,-1.0,-6.0,-15.0,-12.0,4.0,-7.0,-4.0,-0.47314453125,0.2872314453125,-0.44390869140625,0.7047119140625,0.00732421875,-0.9326171875,0.388671875,6.0625,0.125,-1.6875
0.8950000000000007,-3.0,-3.0,2.0,15.0,6.0,1.0,2.0,-2.0,-0.47314453125,0.2872314453125,-0.44390869140625,0.7047119140625,0.00732421875,-0.9326171875,0.388671875,6.0625,0.125,-1.6875
0.9000000000000007,-3.0,-3.0,2.0,15.0,6.0,1.0,2.0,-2.0,-0.47314453125,0.2872314453125,-0.44390869140625,0.7047119140625,0.00732421875,-0.9326171875,0.388671875,6.0625,0.125,-1.6875
0.9050000000000007,-1.0,0.0,4.0,-5.0,0.0,-6.0,-6.0,-3.0,-0.472900390625,0.28704833984375,-0.4442138671875,0.70477294921875,0.005859375,-0.92138671875,0.37841796875,3.0,0.375,-2.0
0.9100000000000007,-1.0,2.0,5.0,-1.0,-4.0,3.0,1.0,0.0,-0.472900390625,0.28704833984375,-0.4442138671875,0.70477294921875,0.005859375,-0.92138671875,0.37841796875,3.0,0.375,-2.0
0.9150000000000007,-1.0,2.0,5.0,-1.0,-4.0,3.0,1.0,0.0,-0.472900390625,0.28704833984375,-0.4442138671875,0.70477294921875,0.005859375,-0.92138671875,0.37841796875,3.0,0.375,-2.0
0.9200000000000007,-1.0,2.0,5.0,-1.0,-4.0,3.0,1.0,0.0,-0.472900390625,0.28704833984375,-0.4442138671875,0.70477294921875,0.005859375,-0.92138671875,0.37841796875,3.0,0.375,-2.0
0.9250000000000007,-1.0,2.0,5.0,-1.0,-4.0,3.0,1.0,0.0,-0.472900390625,0.28704833984375,-0.4442138671875,0.70477294921875,0.005859375,-0.92138671875,0.37841796875,3.0,0.375,-2.0
0.9300000000000007,-2.0,-1.0,4.0,17.0,8.0,-4.0,10.0,0.0,-0.47259521484375,0.28680419921875,-0.444580078125,0.704833984375,0.0029296875,-0.91748046875,0.37255859375,3.4375,0.1875,-2.1875
0.9350000000000007,-3.0,-3.0,-8.0,-29.0,-7.0,-8.0,-6.0,-2.0,-0.47259521484375,0.28680419921875,-0.444580078125,0.704833984375,0.0029296875,-0.91748046875,0.37255859375,3.4375,0.1875,-2.1875
0.9400000000000007,-3.0,-3.0,-8.0,-29.0,-7.0,-8.0,-6.0,-2.0,-0.47259521484375,0.28680419921875,-0.444580078125,0.704833984375,0.0029296875,-0.91748046875,0.37255859375,3.4375,0.1875,-2.1875
0.9450000000000007,-2.0,0.0,1.0,0.0,1.0,-2.0,-2.0,0.0,-0.47259521484375,0.28680419921875,-0.444580078125,0.704833984375,0.0029296875,-0.91748046875,0.37255859375,3.4375,0.1875,-2.1875
0.9500000000000007,1.0,-2.0,-8.0,-9.0,-7.0,-2.0,-3.0,-3.0,-0.47259521484375,0.28680419921875,-0.444580078125,0.704833984375,0.0029296875,-0.91748046875,0.37255859375,3.4375,0.1875,-2.1875
0.9550000000000007,-4.0,-7.0,-23.0,-48.0,-22.0,-11.0,-5.0,-3.0,-0.47247314453125,0.2867431640625,-0.4447021484375,0.70477294921875,0.00048828125,-0.91845703125,0.36376953125,2.125,0.125,-1.75
0.9600000000000007,-2.0,-2.0,-1.0,0.0,0.0,7.0,-2.0,-2.0,-0.47247314453125,0.2867431640625,-0.4447021484375,0.70477294921875,0.00048828125,-0.91845703125,0.36376953125,2.125,0.125,-1.75
0.9650000000000007,1.0,1.0,4.0,23.0,6.0,4.0,0.0,1.0,-0.47283935546875,0.2869873046875,-0.44476318359375,0.7044677734375,-0.0009765625,-0.93359375,0.35498046875,-0.4375,0.5,-2.25
0.9700000000000008,-1.0,-1.0,3.0,-5.0,-11.0,3.0,-6.0,-2.0,-0.47283935546875,0.2869873046875,-0.44476318359375,0.7044677734375,-0.0009765625,-0.93359375,0.35498046875,-0.4375,0.5,-2.25
0.9750000000000008,-1.0,-1.0,3.0,-5.0,-11.0,3.0,-6.0,-2.0,-0.47283935546875,0.2869873046875,-0.44476318359375,0.7044677734375,-0.0009765625,-0.93359375,0.35498046875,-0.4375,0.5,-2.25
0.9800000000000008,-1.0,-1.0,3.0,-5.0,-11.0,3.0,-6.0,-2.0,-0.47283935546875,0.2869873046875,-0.44476318359375,0.7044677734375,-0.0009765625,-0.93359375,0.35498046875,-0.4375,0.5,-2.25
0.9850000000000008,-1.0,-1.0,3.0,-5.0,-11.0,3.0,-6.0,-2.0,-0.47283935546875,0.2869873046875,-0.44476318359375,0.7044677734375,-0.0009765625,-0.93359375,0.35498046875,-0.4375,0.5,-2.25
0.9900000000000008,-1.0,-1.0,3.0,-5.0,-11.0,3.0,-6.0,-2.0,-0.47283935546875,0.2869873046875,-0.44476318359375,0.7044677734375,-0.0009765625,-0.93359375,0.35498046875,-0.4375,0.5,-2.25
0.9950000000000008,0.0,1.0,11.0,32.0,2.0,10.0,2.0,1.0,-0.47296142578125,0.286865234375,-0.4449462890625,0.70428466796875,0.0048828125,-0.9306640625,0.36669921875,1.1875,-0.625,-2.375
1.0000000000000007,0.0,1.0,11.0,32.0,2.0,10.0,2.0,1.0,-0.47296142578125,0.286865234375,-0.4449462890625,0.70428466796875,0.0048828125,-0.9306640625,0.36669921875,1.1875,-0.625,-2.375
1.0050000000000006,-1.0,-1.0,6.0,1.0,0.0,-11.0,-2.0,0.0,-0.47296142578125,0.286865234375,-0.4449462890625,0.70428466796875,0.0048828125,-0.9306640625,0.36669921875,1.1875,-0.625,-2.375
1.0100000000000005,-1.0,-1.0,6.0,1.0,0.0,-11.0,-2.0,0.0,-0.47296142578125,0.286865234375,-0.4449462890625,0.70428466796875,0.0048828125,-0.9306640625,0.36669921875,1.1875,-0.625,-2.375
1.0150000000000003,1.0,1.0,3.0,4.0,2.0,5.0,4.0,0.0,-0.4732666015625,0.28656005859375,-0.4449462890625,0.7042236328125,0.00634765625,-0.9365234375,0.37109375,0.9375,-1.9375,-2.25
1.0200000000000002,1.0,1.0,3.0,4.0,2.0,5.0,4.0,0.0,-0.4732666015625,0.28656005859375,-0.4449462890625,0.7042236328125,0.00634765625,-0.9365234375,0.37109375,0.9375,-1.9375,-2.25
1.0250000000000001,1.0,1.0,3.0,4.0,2.0,5.0,4.0,0.0,-0.4732666015625,0.28656005859375,-0.4449462890625,0.7042236328125,0.00634765625,-0.9365234375,0.37109375,0.9375,-1.9375,-2.25
1.03,-3.0,-1.0,-7.0,-38.0,-9.0,-4.0,1.0,-4.0,-0.4736328125,0.2861328125,-0.44482421875,0.7042236328125,0.01806640625,-0.92724609375,0.380859375,-0.125,-3.0625,-1.4375
1.035,-2.0,2.0,7.0,18.0,16.0,25.0,6.0,-2.0,-0.4736328125,0.2861328125,-0.44482421875,0.7042236328125,0.01806640625,-0.92724609375,0.380859375,-0.125,-3.0625,-1.4375
1.0399999999999998,-2.0,2.0,7.0,18.0,16.0,25.0,6.0,-2.0,-0.4736328125,0.2861328125,-0.44482421875,0.7042236328125,0.01806640625,-0.92724609375,0.380859375,-0.125,-3.0625,-1.4375
1.0449999999999997,-2.0,2.0,7.0,18.0,16.0,25.0,6.0,-2.0,-0.4736328125,0.2861328125,-0.44482421875,0.7042236328125,0.01806640625,-0.92724609375,0.380859375,-0.125,-3.0625,-1.4375
1.0499999999999996,-2.0,2.0,7.0,18.0,16.0,25.0,6.0,-2.0,-0.4736328125,0.2861328125,-0.44482421875,0.7042236328125,0.01806640625,-0.92724609375,0.380859375,-0.125,-3.0625,-1.4375
1.0549999999999995,0.0,-2.0,-8.0,-53.0,-9.0,-18.0,-5.0,0.0,-0.47430419921875,0.28564453125,-0.444580078125,0.7041015625,0.0283203125,-0.94189453125,0.39892578125,-2.6875,-4.1875,-1.0
1.0599999999999994,0.0,-2.0,-8.0,-53.0,-9.0,-18.0,-5.0,0.0,-0.47430419921875,0.28564453125,-0.444580078125,0.7041015625,0.0283203125,-0.94189453125,0.39892578125,-2.6875,-4.1875,-1.0
1.0649999999999993,0.0,-2.0,-8.0,-53.0,-9.0,-18.0,-5.0,0.0,-0.47430419921875,0.28564453125,-0.444580078125,0.7041015625,0.0283203125,-0.94189453125,0.39892578125,-2.6875,-4.1875,-1.0
1.0699999999999992,0.0,-2.0,-8.0,-53.0,-9.0,-18.0,-5.0,0.0,-0.47430419921875,0.28564453125,-0.444580078125,0.7041015625,0.0283203125,-0.94189453125,0.39892578125,-2.6875,-4.1875,-1.0
1.074999999999999,0.0,0.0,3.0,11.0,3.0,16.0,4.0,2.0,-0.47430419921875,0.28564453125,-0.444580078125,0.7041015625,0.0283203125,-0.94189453125,0.39892578125,-2.6875,-4.1875,-1.0
1.079999999999999,-1.0,-4.0,-17.0,-8.0,-6.0,-2.0,0.0,0.0,-0.47491455078125,0.284912109375,-0.44427490234375,0.7042236328125,0.0380859375,-0.9541015625,0.40966796875,-1.5625,-4.9375,-0.375
1.0849999999999989,-1.0,-4.0,-17.0,-8.0,-6.0,-2.0,0.0,0.0,-0.47491455078125,0.284912109375,-0.44427490234375,0.7042236328125,0.0380859375,-0.9541015625,0.40966796875,-1.5625,-4.9375,-0.375
1.0899999999999987,-1.0,-4.0,-17.0,-8.0,-6.0,-2.0,0.0,0.0,-0.47491455078125,0.284912109375,-0.44427490234375,0.7042236328125,0.0380859375,-0.9541015625,0.40966796875,-1.5625,-4.9375,-0.375
1.0949999999999986,0.0,3.0,6.0,12.0,6.0,2.0,4.0,3.0,-0.4754638671875,0.2840576171875,-0.4439697265625,0.70440673828125,0.0380859375,-0.95556640625,0.41650390625,-0.875,-5.6875,-0.75
1.0999999999999985,0.0,3.0,6.0,12.0,6.0,2.0,4.0,3.0,-0.4754638671875,0.2840576171875,-0.4439697265625,0.70440673828125,0.0380859375,-0.95556640625,0.41650390625,-0.875,-5.6875,-0.75
1.1049999999999984,0.0,3.0,6.0,12.0,6.0,2.0,4.0,3.0,-0.4754638671875,0.2840576171875,-0.4439697265625,0.70440673828125,0.0380859375,-0.95556640625,0.41650390625,-0.875,-5.6875,-0.75
1.1099999999999983,0.0,3.0,6.0,12.0,6.0,2.0,4.0,3.0,-0.4754638671875,0.2840576171875,-0.4439697265625,0.70440673828125,0.0380859375,-0.95556640625,0.41650390625,-0.875,-5.6875,-0.75
1.1149999999999982,-4.0,-4.0,-4.0,-8.0,-9.0,-9.0,-12.0,-1.0,-0.47564697265625,0.2828369140625,-0.44366455078125,0.70489501953125,0.03515625,-0.9404296875,0.419921875,1.6875,-6.5625,-0.25
1.119999999999998,-4.0,-4.0,-4.0,-8.0,-9.0,-9.0,-12.0,-1.0,-0.47564697265625,0.2828369140625,-0.44366455078125,0.70489501953125,0.03515625,-0.9404296875,0.419921875,1.6875,-6.5625,-0.25
1.124999999999998,0.0,0.0,6.0,29.0,3.0,-7.0,-7.0,-2.0,-0.47564697265625,0.2828369140625,-0.44366455078125,0.70489501953125,0.03515625,-0.9404296875,0.419921875,1.6875,-6.5625,-0.25
1.129999999999998,0.0,0.0,6.0,29.0,3.0,-7.0,-7.0,-2.0,-0.47564697265625,0.2828369140625,-0.44366455078125,0.70489501953125,0.03515625,-0.9404296875,0.419921875,1.6875,-6.5625,-0.25
1.1349999999999978,-1.0,0.0,3.0,18.0,6.0,10.0,2.0,-1.0,-0.47564697265625,0.2828369140625,-0.44366455078125,0.70489501953125,0.03515625,-0.9404296875,0.419921875,1.6875,-6.5625,-0.25
1.1399999999999977,-1.0,0.0,3.0,18.0,6.0,10.0,2.0,-1.0,-0.47564697265625,0.2828369140625,-0.44366455078125,0.70489501953125,0.03515625,-0.9404296875,0.419921875,1.6875,-6.5625,-0.25
1.1449999999999976,0.0,1.0,6.0,25.0,-2.0,-14.0,2.0,1.0,-0.47576904296875,0.28179931640625,-0.4434814453125,0.70538330078125,0.0322265625,-0.94189453125,0.4248046875,1.3125,-5.875,-0.5625
1.1499999999999975,0.0,1.0,6.0,25.0,-2.0,-14.0,2.0,1.0,-0.47576904296875,0.28179931640625,-0.4434814453125,0.70538330078125,0.0322265625,-0.94189453125,0.4248046875,1.3125,-5.875,-0.5625
1.1549999999999974,0.0,1.0,6.0,25.0,-2.0,-14.0,2.0,1.0,-0.47576904296875,0.28179931640625,-0.4434814453125,0.70538330078125,0.0322265625,-0.94189453125,0.4248046875,1.3125,-5.875,-0.5625
1.1599999999999973,0.0,1.0,6.0,25.0,-2.0,-14.0,2.0,1.0,-0.47576904296875,0.28179931640625,-0.4434814453125,0.70538330078125,0.0322265625,-0.94189453125,0.4248046875,1.3125,-5.875,-0.5625
1.1649999999999971,-2.0,0.0,-2.0,1.0,-1.0,6.0,-3.0,-2.0,-0.47564697265625,0.28094482421875,-0.44329833984375,0.7059326171875,0.02001953125,-0.94189453125,0.42919921875,1.6875,-4.75,-0.625
1.169999999999997,-1.0,-2.0,3.0,3.0,6.0,-2.0,-3.0,-2.0,-0.47564697265625,0.28094482421875,-0.44329833984375,0.7059326171875,0.02001953125,-0.94189453125,0.42919921875,1.6875,-4.75,-0.625
1.174999999999997,-1.0,-2.0,3.0,3.0,6.0,-2.0,-3.0,-2.0,-0.47564697265625,0.28094482421875,-0.44329833984375,0.7059326171875,0.02001953125,-0.94189453125,0.42919921875,1.6875,-4.75,-0.625
1.1799999999999968,-1.0,-2.0,3.0,3.0,6.0,-2.0,-3.0,-2.0,-0.47564697265625,0.28094482421875,-0.44329833984375,0.7059326171875,0.02001953125,-0.94189453125,0.42919921875,1.6875,-4.75,-0.625
1.1849999999999967,-1.0,-2.0,3.0,3.0,6.0,-2.0,-3.0,-2.0,-0.47564697265625,0.28094482421875,-0.44329833984375,0.7059326171875,0.02001953125,-0.94189453125,0.42919921875,1.6875,-4.75,-0.625
1.1899999999999966,-1.0,-2.0,3.0,3.0,6.0,-2.0,-3.0,-2.0,-0.47564697265625,0.28094482421875,-0.44329833984375,0.7059326171875,0.02001953125,-0.94189453125,0.42919921875,1.6875,-4.75,-0.625
1.1949999999999965,0.0,0.0,-1.0,-13.0,-1.0,-5.0,-1.0,-1.0,-0.4757080078125,0.28033447265625,-0.44317626953125,0.7061767578125,0.0166015625,-0.943359375,0.41259765625,0.8125,-3.5,-1.125
1.1999999999999964,-2.0,-3.0,-8.0,-56.0,2.0,12.0,-3.0,-3.0,-0.4757080078125,0.28033447265625,-0.44317626953125,0.7061767578125,0.0166015625,-0.943359375,0.41259765625,0.8125,-3.5,-1.125
1.2049999999999963,-2.0,-3.0,-8.0,-56.0,2.0,12.0,-3.0,-3.0,-0.4757080078125,0.28033447265625,-0.44317626953125,0.7061767578125,0.0166015625,-0.943359375,0.41259765625,0.8125,-3.5,-1.125
1.2099999999999962,-1.0,-4.0,0.0,3.0,-7.0,-34.0,-2.0,0.0,-0.4757080078125,0.28033447265625,-0.44317626953125,0.7061767578125,0.0166015625,-0.943359375,0.41259765625,0.8125,-3.5,-1.125
1.214999999999996,-1.0,-4.0,0.0,3.0,-7.0,-34.0,-2.0,0.0,-0.4757080078125,0.28033447265625,-0.44317626953125,0.7061767578125,0.0166015625,-0.943359375,0.41259765625,0.8125,-3.5,-1.125
1.219999999999996,-1.0,-4.0,0.0,3.0,-7.0,-34.0,-2.0,0.0,-0.4757080078125,0.28033447265625,-0.44317626953125,0.7061767578125,0.0166015625,-0.943359375,0.41259765625,0.8125,-3.5,-1.125
1.2249999999999959,0.0,-2.0,6.0,15.0,7.0,5.0,0.0,0.0,-0.4754638671875,0.27978515625,-0.44329833984375,0.70654296875,0.0205078125,-0.93408203125,0.41357421875,2.5625,-2.1875,-1.0625
1.2299999999999958,0.0,-2.0,6.0,15.0,7.0,5.0,0.0,0.0,-0.4754638671875,0.27978515625,-0.44329833984375,0.70654296875,0.0205078125,-0.93408203125,0.41357421875,2.5625,-2.1875,-1.0625
1.2349999999999957,0.0,-2.0,6.0,15.0,7.0,5.0,0.0,0.0,-0.4754638671875,0.27978515625,-0.44329833984375,0.70654296875,0.0205078125,-0.93408203125,0.41357421875,2.5625,-2.1875,-1.0625
1.2399999999999956,0.0,-2.0,6.0,15.0,7.0,5.0,0.0,0.0,-0.4754638671875,0.27978515625,-0.44329833984375,0.70654296875,0.0205078125,-0.93408203125,0.41357421875,2.5625,-2.1875,-1.0625
1.2449999999999954,-2.0,-4.0,-13.0,-17.0,-17.0,1.0,1.0,-3.0,-0.47503662109375,0.2794189453125,-0.44354248046875,0.706787109375,0.03076171875,-0.9287109375,0.41162109375,2.625,-0.125,-0.5
1.2499999999999953,0.0,1.0,6.0,-2.0,-3.0,-7.0,8.0,0.0,-0.47503662109375,0.2794189453125,-0.44354248046875,0.706787109375,0.03076171875,-0.9287109375,0.41162109375,2.625,-0.125,-0.5
1.2549999999999952,0.0,1.0,6.0,-2.0,-3.0,-7.0,8.0,0.0,-0.47503662109375,0.2794189453125,-0.44354248046875,0.706787109375,0.03076171875,-0.9287109375,0.41162109375,2.625,-0.125,-0.5
1.2599999999999951,0.0,1.0,6.0,-2.0,-3.0,-7.0,8.0,0.0,-0.47503662109375,0.2794189453125,-0.44354248046875,0.706787109375,0.03076171875,-0.9287109375,0.41162109375,2.625,-0.125,-0.5
1.264999999999995,0.0,1.0,6.0,-2.0,-3.0,-7.0,8.0,0.0,-0.47503662109375,0.2794189453125,-0.44354248046875,0.706787109375,0.03076171875,-0.9287109375,0.41162109375,2.625,-0.125,-0.5
1.269999999999995,0.0,1.0,6.0,-2.0,-3.0,-7.0,8.0,0.0,-0.47503662109375,0.2794189453125,-0.44354248046875,0.706787109375,0.03076171875,-0.9287109375,0.41162109375,2.625,-0.125,-0.5
1.2749999999999948,-2.0,1.0,4.0,20.0,2.0,-12.0,-2.0,-2.0,-0.47467041015625,0.27947998046875,-0.44378662109375,0.70684814453125,0.03369140625,-0.935546875,0.40478515625,1.3125,1.9375,0.5
1.2799999999999947,-2.0,1.0,4.0,20.0,2.0,-12.0,-2.0,-2.0,-0.47467041015625,0.27947998046875,-0.44378662109375,0.70684814453125,0.03369140625,-0.935546875,0.40478515625,1.3125,1.9375,0.5
1.2849999999999946,-2.0,-3.0,-5.0,9.0,-5.0,3.0,-3.0,-1.0,-0.47467041015625,0.27947998046875,-0.44378662109375,0.70684814453125,0.03369140625,-0.935546875,0.40478515625,1.3125,1.9375,0.5
1.2899999999999945,1.0,2.0,4.0,6.0,8.0,5.0,1.0,2.0,-0.47467041015625,0.27947998046875,-0.44378662109375,0.70684814453125,0.03369140625,-0.935546875,0.40478515625,1.3125,1.9375,0.5
1.2949999999999944,1.0,2.0,4.0,6.0,8.0,5.0,1.0,2.0,-0.47467041015625,0.27947998046875,-0.44378662109375,0.70684814453125,0.03369140625,-0.935546875,0.40478515625,1.3125,1.9375,0.5
1.2999999999999943,1.0,2.0,4.0,6.0,8.0,5.0,1.0,2.0,-0.47467041015625,0.27947998046875,-0.44378662109375,0.70684814453125,0.03369140625,-0.935546875,0.40478515625,1.3125,1.9375,0.5
1.3049999999999942,1.0,2.0,4.0,6.0,8.0,5.0,1.0,2.0,-0.47467041015625,0.27947998046875,-0.44378662109375,0.70684814453125,0.03369140625,-0.935546875,0.40478515625,1.3125,1.9375,0.5
1.309999999999994,1.0,2.0,4.0,6.0,8.0,5.0,1.0,2.0,-0.47467041015625,0.27947998046875,-0.44378662109375,0.70684814453125,0.03369140625,-0.935546875,0.40478515625,1.3125,1.9375,0.5
1.314999999999994,-3.0,-1.0,0.0,5.0,-2.0,-2.0,0.0,0.0,-0.4739990234375,0.2796630859375,-0.4439697265625,0.70709228515625,0.0234375,-0.935546875,0.40625,3.3125,2.4375,1.125
1.3199999999999938,-1.0,0.0,0.0,-7.0,-17.0,5.0,-2.0,-2.0,-0.4739990234375,0.2796630859375,-0.4439697265625,0.70709228515625,0.0234375,-0.935546875,0.40625,3.3125,2.4375,1.125
1.3249999999999937,-1.0,0.0,0.0,-7.0,-17.0,5.0,-2.0,-2.0,-0.47320556640625,0.2796630859375,-0.44427490234375,0.70745849609375,0.02490234375,-0.92333984375,0.40185546875,4.0625,2.0625,1.0
1.3299999999999936,0.0,0.0,3.0,26.0,6.0,-20.0,-4.0,-2.0,-0.47320556640625,0.2796630859375,-0.44427490234375,0.70745849609375,0.02490234375,-0.92333984375,0.40185546875,4.0625,2.0625,1.0
1.3349999999999935,0.0,0.0,3.0,26.0,6.0,-20.0,-4.0,-2.0,-0.47320556640625,0.2796630859375,-0.44427490234375,0.70745849609375,0.02490234375,-0.92333984375,0.40185546875,4.0625,2.0625,1.0
1.3399999999999934,0.0,0.0,3.0,26.0,6.0,-20.0,-4.0,-2.0,-0.47320556640625,0.2796630859375,-0.44427490234375,0.70745849609375,0.02490234375,-0.92333984375,0.40185546875,4.0625,2.0625,1.0
1.3449999999999933,0.0,0.0,3.0,26.0,6.0,-20.0,-4.0,-2.0,-0.47320556640625,0.2796630859375,-0.44427490234375,0.70745849609375,0.02490234375,-0.92333984375,0.40185546875,4.0625,2.0625,1.0
1.3499999999999932,0.0,0.0,-4.0,-20.0,6.0,19.0,5.0,0.0,-0.47320556640625,0.2796630859375,-0.44427490234375,0.70745849609375,0.02490234375,-0.92333984375,0.40185546875,4.0625,2.0625,1.0
1.354999999999993,0.0,0.0,-4.0,-20.0,6.0,19.0,5.0,0.0,-0.472900390625,0.27996826171875,-0.4443359375,0.70751953125,0.02490234375,-0.9384765625,0.39208984375,1.625,2.3125,1.25
1.359999999999993,-1.0,-1.0,-1.0,-4.0,-1.0,2.0,-3.0,-1.0,-0.472900390625,0.27996826171875,-0.4443359375,0.70751953125,0.02490234375,-0.9384765625,0.39208984375,1.625,2.3125,1.25
1.3649999999999929,-1.0,-1.0,-1.0,-4.0,-1.0,2.0,-3.0,-1.0,-0.472900390625,0.27996826171875,-0.4443359375,0.70751953125,0.02490234375,-0.9384765625,0.39208984375,1.625,2.3125,1.25
1.3699999999999928,-1.0,-1.0,-1.0,-4.0,-1.0,2.0,-3.0,-1.0,-0.472900390625,0.27996826171875,-0.4443359375,0.70751953125,0.02490234375,-0.9384765625,0.39208984375,1.625,2.3125,1.25
1.3749999999999927,-1.0,-1.0,-1.0,-4.0,-1.0,2.0,-3.0,-1.0,-0.472900390625,0.27996826171875,-0.4443359375,0.70751953125,0.02490234375,-0.9384765625,0.39208984375,1.625,2.3125,1.25
1.3799999999999926,-1.0,-1.0,-1.0,-4.0,-1.0,2.0,-3.0,-1.0,-0.472900390625,0.27996826171875,-0.4443359375,0.70751953125,0.02490234375,-0.9384765625,0.39208984375,1.625,2.3125,1.25
1.3849999999999925,-1.0,-1.0,-2.0,11.0,10.0,8.0,0.0,-1.0,-0.47235107421875,0.28033447265625,-0.4444580078125,0.7076416015625,0.01611328125,-0.9326171875,0.3984375,2.125,2.6875,1.125
1.3899999999999924,-1.0,-1.0,-2.0,11.0,10.0,8.0,0.0,-1.0,-0.47235107421875,0.28033447265625,-0.4444580078125,0.7076416015625,0.01611328125,-0.9326171875,0.3984375,2.125,2.6875,1.125
1.3949999999999922,-1.0,-1.0,-2.0,11.0,10.0,8.0,0.0,-1.0,-0.47235107421875,0.28033447265625,-0.4444580078125,0.7076416015625,0.01611328125,-0.9326171875,0.3984375,2.125,2.6875,1.125
1.3999999999999921,0.0,-2.0,1.0,17.0,1.0,-9.0,-4.0,-2.0,-0.471923828125,0.2806396484375,-0.4444580078125,0.70782470703125,0.01318359375,-0.9326171875,0.38720703125,2.125,1.875,1.5
1.404999999999992,0.0,-2.0,1.0,17.0,1.0,-9.0,-4.0,-2.0,-0.471923828125,0.2806396484375,-0.4444580078125,0.70782470703125,0.01318359375,-0.9326171875,0.38720703125,2.125,1.875,1.5
1.409999999999992,0.0,-1.0,0.0,-8.0,-9.0,-7.0,-3.0,-1.0,-0.471923828125,0.2806396484375,-0.4444580078125,0.70782470703125,0.01318359375,-0.9326171875,0.38720703125,2.125,1.875,1.5
1.4149999999999918,0.0,-1.0,0.0,-8.0,-9.0,-7.0,-3.0,-1.0,-0.471923828125,0.2806396484375,-0.4444580078125,0.70782470703125,0.01318359375,-0.9326171875,0.38720703125,2.125,1.875,1.5
1.4199999999999917,0.0,-1.0,0.0,-8.0,-9.0,-7.0,-3.0,-1.0,-0.471923828125,0.2806396484375,-0.4444580078125,0.70782470703125,0.01318359375,-0.9326171875,0.38720703125,2.125,1.875,1.5
1.4249999999999916,1.0,0.0,-2.0,-3.0,8.0,1.0,2.0,0.0,-0.4718017578125,0.28082275390625,-0.4444580078125,0.70782470703125,0.02978515625,-0.9306640625,0.3828125,1.4375,1.25,0.9375
1.4299999999999915,-1.0,-1.0,3.0,7.0,0.0,-3.0,0.0,-1.0,-0.4718017578125,0.28082275390625,-0.4444580078125,0.70782470703125,0.02978515625,-0.9306640625,0.3828125,1.4375,1.25,0.9375
1.4349999999999914,0.0,0.0,3.0,-19.0,-5.0,14.0,-1.0,0.0,-0.4718017578125,0.28082275390625,-0.4444580078125,0.70782470703125,0.02978515625,-0.9306640625,0.3828125,1.4375,1.25,0.9375
1.4399999999999913,0.0,0.0,3.0,-19.0,-5.0,14.0,-1.0,0.0,-0.4718017578125,0.28082275390625,-0.4444580078125,0.70782470703125,0.02978515625,-0.9306640625,0.3828125,1.4375,1.25,0.9375
1.4449999999999912,0.0,0.0,3.0,-19.0,-5.0,14.0,-1.0,0.0,-0.4718017578125,0.28082275390625,-0.4444580078125,0.70782470703125,0.02978515625,-0.9306640625,0.3828125,1.4375,1.25,0.9375
1.449999999999991,-3.0,0.0,3.0,4.0,-3.0,-6.0,-2.0,-1.0,-0.47161865234375,0.2808837890625,-0.444580078125,0.70782470703125,0.03564453125,-0.9267578125,0.39013671875,1.25,1.375,0.9375
1.454999999999991,-3.0,0.0,3.0,4.0,-3.0,-6.0,-2.0,-1.0,-0.47161865234375,0.2808837890625,-0.444580078125,0.70782470703125,0.03564453125,-0.9267578125,0.39013671875,1.25,1.375,0.9375
1.4599999999999909,-3.0,0.0,3.0,4.0,-3.0,-6.0,-2.0,-1.0,-0.47161865234375,0.2808837890625,-0.444580078125,0.70782470703125,0.03564453125,-0.9267578125,0.39013671875,1.25,1.375,0.9375
1.4649999999999908,-1.0,0.0,1.0,-2.0,7.0,4.0,-2.0,2.0,-0.47125244140625,0.281005859375,-0.44464111328125,0.7080078125,0.02685546875,-0.9150390625,0.4033203125,1.5625,1.3125,1.5625
1.4699999999999906,0.0,-2.0,-10.0,-2.0,7.0,0.0,-4.0,-2.0,-0.47125244140625,0.281005859375,-0.44464111328125,0.7080078125,0.02685546875,-0.9150390625,0.4033203125,1.5625,1.3125,1.5625
1.4749999999999905,0.0,-2.0,-10.0,-2.0,7.0,0.0,-4.0,-2.0,-0.47125244140625,0.281005859375,-0.44464111328125,0.7080078125,0.02685546875,-0.9150390625,0.4033203125,1.5625,1.3125,1.5625
1.4799999999999904,0.0,-2.0,-10.0,-2.0,7.0,0.0,-4.0,-2.0,-0.47125244140625,0.281005859375,-0.44464111328125,0.7080078125,0.02685546875,-0.9150390625,0.4033203125,1.5625,1.3125,1.5625
1.4849999999999903,-2.0,0.0,-1.0,11.0,-25.0,-15.0,-11.0,-3.0,-0.47125244140625,0.281005859375,-0.44464111328125,0.7080078125,0.02685546875,-0.9150390625,0.4033203125,1.5625,1.3125,1.5625
1.4899999999999902,-1.0,0.0,-1.0,7.0,2.0,1.0,3.0,-2.0,-0.47113037109375,0.28106689453125,-0.444580078125,0.7081298828125,0.02880859375,-0.91259765625,0.400390625,0.125,0.5625,1.5
1.4949999999999901,-1.0,2.0,6.0,-4.0,9.0,-2.0,8.0,2.0,-0.47113037109375,0.28106689453125,-0.444580078125,0.7081298828125,0.02880859375,-0.91259765625,0.400390625,0.125,0.5625,1.5
1.49999999999999,-1.0,-1.0,-6.0,-1.0,-9.0,-12.0,-5.0,-1.0,-0.47113037109375,0.28106689453125,-0.444580078125,0.7081298828125,0.02880859375,-0.91259765625,0.400390625,0.125,0.5625,1.5
1.50499999999999,-1.0,-1.0,-6.0,-1.0,-9.0,-12.0,-5.0,-1.0,-0.47113037109375,0.28106689453125,-0.444580078125,0.7081298828125,0.02880859375,-0.91259765625,0.400390625,0.125,0.5625,1.5
1.5099999999999898,-1.0,-1.0,-6.0,-1.0,-9.0,-12.0,-5.0,-1.0,-0.47113037109375,0.28106689453125,-0.444580078125,0.7081298828125,0.02880859375,-0.91259765625,0.400390625,0.125,0.5625,1.5
1.5149999999999897,-1.0,0.0,-2.0,-2.0,-2.0,1.0,3.0,-2.0,-0.47113037109375,0.28106689453125,-0.44451904296875,0.7081298828125,0.01806640625,-0.91796875,0.39013671875,-0.25,-0.1875,0.6875
1.5199999999999896,-1.0,0.0,-2.0,-2.0,-2.0,1.0,3.0,-2.0,-0.47113037109375,0.28106689453125,-0.44451904296875,0.7081298828125,0.01806640625,-0.91796875,0.39013671875,-0.25,-0.1875,0.6875
1.5249999999999895,-1.0,0.0,-2.0,-2.0,-2.0,1.0,3.0,-2.0,-0.47113037109375,0.28106689453125,-0.44451904296875,0.7081298828125,0.01806640625,-0.91796875,0.39013671875,-0.25,-0.1875,0.6875
1.5299999999999894,-1.0,-3.0,-5.0,-5.0,-7.0,-12.0,-2.0,-3.0,-0.47113037109375,0.28106689453125,-0.44451904296875,0.7081298828125,0.01806640625,-0.91796875,0.39013671875,-0.25,-0.1875,0.6875
1.5349999999999893,-1.0,-3.0,-5.0,-5.0,-7.0,-12.0,-2.0,-3.0,-0.47113037109375,0.2811279296875,-0.44451904296875,0.7081298828125,0.0185546875,-0.9140625,0.39599609375,-0.125,-0.3125,0.4375
1.5399999999999892,0.0,-1.0,1.0,19.0,2.0,19.0,4.0,0.0,-0.47113037109375,0.2811279296875,-0.44451904296875,0.7081298828125,0.0185546875,-0.9140625,0.39599609375,-0.125,-0.3125,0.4375
1.544999999999989,0.0,-1.0,1.0,19.0,2.0,19.0,4.0,0.0,-0.47113037109375,0.2811279296875,-0.44451904296875,0.7081298828125,0.0185546875,-0.9140625,0.39599609375,-0.125,-0.3125,0.4375
1.549999999999989,0.0,-1.0,1.0,19.0,2.0,19.0,4.0,0.0,-0.47113037109375,0.2811279296875,-0.44451904296875,0.7081298828125,0.0185546875,-0.9140625,0.39599609375,-0.125,-0.3125,0.4375
1.5549999999999888,-1.0,-1.0,0.0,-4.0,-5.0,-9.0,-5.0,0.0,-0.4710693359375,0.28118896484375,-0.44451904296875,0.7081298828125,-0.00244140625,-0.9140625,0.38818359375,-0.9375,-0.875,0.25
1.5599999999999887,-1.0,-1.0,0.0,-4.0,-5.0,-9.0,-5.0,0.0,-0.4710693359375,0.28118896484375,-0.44451904296875,0.7081298828125,-0.00244140625,-0.9140625,0.38818359375,-0.9375,-0.875,0.25
1.5649999999999886,-2.0,0.0,2.0,1.0,-7.0,-8.0,-3.0,1.0,-0.4710693359375,0.28118896484375,-0.44451904296875,0.7081298828125,-0.00244140625,-0.9140625,0.38818359375,-0.9375,-0.875,0.25
1.5699999999999885,-2.0,0.0,2.0,1.0,-7.0,-8.0,-3.0,1.0,-0.4710693359375,0.28118896484375,-0.44451904296875,0.7081298828125,-0.00244140625,-0.9140625,0.38818359375,-0.9375,-0.875,0.25
1.5749999999999884,-2.0,0.0,2.0,1.0,-7.0,-8.0,-3.0,1.0,-0.4710693359375,0.28118896484375,-0.44451904296875,0.7081298828125,-0.00244140625,-0.9140625,0.38818359375,-0.9375,-0.875,0.25
1.5799999999999883,-1.0,-4.0,0.0,2.0,-12.0,5.0,-1.0,-2.0,-0.471435546875,0.28131103515625,-0.4442138671875,0.7080078125,-0.0009765625,-0.92919921875,0.39013671875,-1.5,-1.5,-0.75
1.5849999999999882,-1.0,-4.0,0.0,2.0,-12.0,5.0,-1.0,-2.0,-0.471435546875,0.28131103515625,-0.4442138671875,0.7080078125,-0.0009765625,-0.92919921875,0.39013671875,-1.5,-1.5,-0.75
1.589999999999988,-1.0,-4.0,0.0,2.0,-12.0,5.0,-1.0,-2.0,-0.471435546875,0.28131103515625,-0.4442138671875,0.7080078125,-0.0009765625,-0.92919921875,0.39013671875,-1.5,-1.5,-0.75
1.594999999999988,0.0,-2.0,-3.0,-8.0,-20.0,-23.0,1.0,1.0,-0.47186279296875,0.28131103515625,-0.44403076171875,0.70782470703125,-0.009765625,-0.92431640625,0.384765625,-2.0625,-2.1875,-2.3125
1.5999999999999879,0.0,-2.0,-3.0,-8.0,-20.0,-23.0,1.0,1.0,-0.47186279296875,0.28131103515625,-0.44403076171875,0.70782470703125,-0.009765625,-0.92431640625,0.384765625,-2.0625,-2.1875,-2.3125
1.6049999999999878,-3.0,1.0,-6.0,-28.0,-6.0,-6.0,-2.0,0.0,-0.47186279296875,0.28131103515625,-0.44403076171875,0.70782470703125,-0.009765625,-0.92431640625,0.384765625,-2.0625,-2.1875,-2.3125
1.6099999999999877,-3.0,1.0,-6.0,-28.0,-6.0,-6.0,-2.0,0.0,-0.47186279296875,0.28131103515625,-0.44403076171875,0.70782470703125,-0.009765625,-0.92431640625,0.384765625,-2.0625,-2.1875,-2.3125
1.6149999999999876,-3.0,1.0,-6.0,-28.0,-6.0,-6.0,-2.0,0.0,-0.47186279296875,0.28131103515625,-0.44403076171875,0.70782470703125,-0.009765625,-0.92431640625,0.384765625,-2.0625,-2.1875,-2.3125
1.6199999999999875,-3.0,1.0,-6.0,-28.0,-6.0,-6.0,-2.0,0.0,-0.47186279296875,0.28131103515625,-0.44403076171875,0.70782470703125,-0.009765625,-0.92431640625,0.384765625,-2.0625,-2.1875,-2.3125
1.6249999999999873,-1.0,-3.0,-4.0,-4.0,5.0,-3.0,-4.0,-3.0,-0.4722900390625,0.28106689453125,-0.44390869140625,0.70770263671875,-0.00634765625,-0.92578125,0.390625,-1.0625,-3.0,-3.1875
1.6299999999999872,-1.0,-3.0,-4.0,-4.0,5.0,-3.0,-4.0,-3.0,-0.4722900390625,0.28106689453125,-0.44390869140625,0.70770263671875,-0.00634765625,-0.92578125,0.390625,-1.0625,-3.0,-3.1875
1.6349999999999871,-1.0,-1.0,-6.0,-23.0,-6.0,-6.0,1.0,0.0,-0.4722900390625,0.28106689453125,-0.44390869140625,0.70770263671875,-0.00634765625,-0.92578125,0.390625,-1.0625,-3.0,-3.1875
1.639999999999987,-1.0,-1.0,-6.0,-23.0,-6.0,-6.0,1.0,0.0,-0.4722900390625,0.28106689453125,-0.44390869140625,0.70770263671875,-0.00634765625,-0.92578125,0.390625,-1.0625,-3.0,-3.1875
1.644999999999987,0.0,-2.0,-2.0,15.0,2.0,2.0,-1.0,0.0,-0.4727783203125,0.28070068359375,-0.44366455078125,0.70770263671875,-0.01171875,-0.93017578125,0.39013671875,-0.8125,-4.3125,-3.0
1.6499999999999868,-2.0,0.0,7.0,9.0,5.0,-6.0,-3.0,-3.0,-0.4727783203125,0.28070068359375,-0.44366455078125,0.70770263671875,-0.01171875,-0.93017578125,0.39013671875,-0.8125,-4.3125,-3.0
1.6549999999999867,-2.0,0.0,7.0,9.0,5.0,-6.0,-3.0,-3.0,-0.4727783203125,0.28070068359375,-0.44366455078125,0.70770263671875,-0.01171875,-0.93017578125,0.39013671875,-0.8125,-4.3125,-3.0
1.6599999999999866,-2.0,0.0,7.0,9.0,5.0,-6.0,-3.0,-3.0,-0.4727783203125,0.28070068359375,-0.44366455078125,0.70770263671875,-0.01171875,-0.93017578125,0.39013671875,-0.8125,-4.3125,-3.0
1.6649999999999865,-2.0,-3.0,1.0,3.0,-3.0,2.0,-1.0,-2.0,-0.4727783203125,0.28070068359375,-0.44366455078125,0.70770263671875,-0.01171875,-0.93017578125,0.39013671875,-0.8125,-4.3125,-3.0
1.6699999999999864,0.0,0.0,1.0,5.0,6.0,0.0,1.0,0.0,-0.47344970703125,0.2802734375,-0.4432373046875,0.7076416015625,-0.0078125,-0.93994140625,0.39208984375,-1.75,-5.375,-2.625
1.6749999999999863,0.0,0.0,1.0,5.0,6.0,0.0,1.0,0.0,-0.47344970703125,0.2802734375,-0.4432373046875,0.7076416015625,-0.0078125,-0.93994140625,0.39208984375,-1.75,-5.375,-2.625
1.6799999999999862,0.0,0.0,1.0,5.0,6.0,0.0,1.0,0.0,-0.47344970703125,0.2802734375,-0.4432373046875,0.7076416015625,-0.0078125,-0.93994140625,0.39208984375,-1.75,-5.375,-2.625
1.684999999999986,-2.0,-1.0,-2.0,1.0,1.0,11.0,2.0,-1.0,-0.47406005859375,0.27978515625,-0.44287109375,0.70770263671875,0.001953125,-0.94189453125,0.4033203125,-1.75,-5.1875,-2.25
1.689999999999986,-1.0,-2.0,-3.0,-10.0,-7.0,-26.0,-7.0,-2.0,-0.47406005859375,0.27978515625,-0.44287109375,0.70770263671875,0.001953125,-0.94189453125,0.4033203125,-1.75,-5.1875,-2.25
1.6949999999999859,-1.0,-2.0,-3.0,-10.0,-7.0,-26.0,-7.0,-2.0,-0.47406005859375,0.27978515625,-0.44287109375,0.70770263671875,0.001953125,-0.94189453125,0.4033203125,-1.75,-5.1875,-2.25
1.6999999999999857,-1.0,-2.0,-3.0,-10.0,-7.0,-26.0,-7.0,-2.0,-0.47406005859375,0.27978515625,-0.44287109375,0.70770263671875,0.001953125,-0.94189453125,0.4033203125,-1.75,-5.1875,-2.25
1.7049999999999856,-1.0,-2.0,-3.0,-10.0,-7.0,-26.0,-7.0,-2.0,-0.47406005859375,0.27978515625,-0.44287109375,0.70770263671875,0.001953125,-0.94189453125,0.4033203125,-1.75,-5.1875,-2.25
1.7099999999999855,0.0,-1.0,-1.0,9.0,-3.0,-10.0,-1.0,0.0,-0.47406005859375,0.27978515625,-0.44287109375,0.70770263671875,0.001953125,-0.94189453125,0.4033203125,-1.75,-5.1875,-2.25
1.7149999999999854,-1.0,0.0,1.0,-3.0,0.0,1.0,1.0,-1.0,-0.47454833984375,0.2794189453125,-0.44232177734375,0.70782470703125,-0.0009765625,-0.94873046875,0.40771484375,-1.625,-5.25,-0.875
1.7199999999999853,-1.0,0.0,1.0,-3.0,0.0,1.0,1.0,-1.0,-0.47454833984375,0.2794189453125,-0.44232177734375,0.70782470703125,-0.0009765625,-0.94873046875,0.40771484375,-1.625,-5.25,-0.875
1.7249999999999852,-1.0,0.0,1.0,-3.0,0.0,1.0,1.0,-1.0,-0.47454833984375,0.2794189453125,-0.44232177734375,0.70782470703125,-0.0009765625,-0.94873046875,0.40771484375,-1.625,-5.25,-0.875
1.729999999999985,0.0,0.0,-11.0,-67.0,-1.0,-9.0,-3.0,-2.0,-0.474853515625,0.27886962890625,-0.44183349609375,0.70819091796875,0.0068359375,-0.947265625,0.41650390625,-0.6875,-5.3125,-0.125
1.734999999999985,0.0,0.0,-11.0,-67.0,-1.0,-9.0,-3.0,-2.0,-0.474853515625,0.27886962890625,-0.44183349609375,0.70819091796875,0.0068359375,-0.947265625,0.41650390625,-0.6875,-5.3125,-0.125
1.739999999999985,0.0,0.0,-11.0,-67.0,-1.0,-9.0,-3.0,-2.0,-0.474853515625,0.27886962890625,-0.44183349609375,0.70819091796875,0.0068359375,-0.947265625,0.41650390625,-0.6875,-5.3125,-0.125
1.7449999999999848,0.0,0.0,-11.0,-67.0,-1.0,-9.0,-3.0,-2.0,-0.474853515625,0.27886962890625,-0.44183349609375,0.70819091796875,0.0068359375,-0.947265625,0.41650390625,-0.6875,-5.3125,-0.125
1.7499999999999847,0.0,-3.0,-4.0,11.0,-3.0,-1.0,-3.0,-4.0,-0.474853515625,0.27886962890625,-0.44183349609375,0.70819091796875,0.0068359375,-0.947265625,0.41650390625,-0.6875,-5.3125,-0.125
1.7549999999999846,0.0,-3.0,-4.0,11.0,-3.0,-1.0,-3.0,-4.0,-0.474853515625,0.27886962890625,-0.44183349609375,0.70819091796875,0.0068359375,-0.947265625,0.41650390625,-0.6875,-5.3125,-0.125
1.7599999999999845,0.0,2.0,4.0,8.0,-8.0,-4.0,0.0,2.0,-0.475341796875,0.27850341796875,-0.4412841796875,0.7083740234375,0.0205078125,-0.9462890625,0.41357421875,-1.9375,-4.75,0.625
1.7649999999999844,0.0,2.0,4.0,8.0,-8.0,-4.0,0.0,2.0,-0.475341796875,0.27850341796875,-0.4412841796875,0.7083740234375,0.0205078125,-0.9462890625,0.41357421875,-1.9375,-4.75,0.625
1.7699999999999843,1.0,2.0,0.0,-6.0,19.0,24.0,2.0,0.0,-0.475341796875,0.27850341796875,-0.4412841796875,0.7083740234375,0.0205078125,-0.9462890625,0.41357421875,-1.9375,-4.75,0.625
1.7749999999999841,1.0,2.0,0.0,-6.0,19.0,24.0,2.0,0.0,-0.475341796875,0.27850341796875,-0.4412841796875,0.7083740234375,0.0205078125,-0.9462890625,0.41357421875,-1.9375,-4.75,0.625
1.779999999999984,1.0,2.0,0.0,-6.0,19.0,24.0,2.0,0.0,-0.475341796875,0.27850341796875,-0.4412841796875,0.7083740234375,0.0205078125,-0.9462890625,0.41357421875,-1.9375,-4.75,0.625
1.784999999999984,1.0,2.0,0.0,-6.0,19.0,24.0,2.0,0.0,-0.475341796875,0.27850341796875,-0.4412841796875,0.7083740234375,0.0205078125,-0.9462890625,0.41357421875,-1.9375,-4.75,0.625
1.7899999999999838,-2.0,-2.0,-5.0,-14.0,-7.0,-41.0,-10.0,-3.0,-0.4755859375,0.27813720703125,-0.440673828125,0.70867919921875,0.01318359375,-0.94873046875,0.41796875,-0.875,-4.625,1.0
1.7949999999999837,-2.0,-2.0,-5.0,-14.0,-7.0,-41.0,-10.0,-3.0,-0.4755859375,0.27813720703125,-0.440673828125,0.70867919921875,0.01318359375,-0.94873046875,0.41796875,-0.875,-4.625,1.0
1.7999999999999836,-2.0,-2.0,-5.0,-14.0,-7.0,-41.0,-10.0,-3.0,-0.4755859375,0.27813720703125,-0.440673828125,0.70867919921875,0.01318359375,-0.94873046875,0.41796875,-0.875,-4.625,1.0
1.8049999999999835,-2.0,-2.0,-5.0,-14.0,-7.0,-41.0,-10.0,-3.0,-0.4755859375,0.27813720703125,-0.440673828125,0.70867919921875,0.01318359375,-0.94873046875,0.41796875,-0.875,-4.625,1.0
1.8099999999999834,0.0,-1.0,1.0,7.0,12.0,13.0,1.0,1.0,-0.47576904296875,0.27783203125,-0.44024658203125,0.70892333984375,0.02490234375,-0.95458984375,0.41162109375,-0.3125,-3.3125,1.0625
1.8149999999999833,0.0,-1.0,1.0,7.0,12.0,13.0,1.0,1.0,-0.47576904296875,0.27783203125,-0.44024658203125,0.70892333984375,0.02490234375,-0.95458984375,0.41162109375,-0.3125,-3.3125,1.0625
1.8199999999999832,-1.0,-1.0,7.0,19.0,-3.0,6.0,-1.0,0.0,-0.47576904296875,0.27783203125,-0.44024658203125,0.70892333984375,0.02490234375,-0.95458984375,0.41162109375,-0.3125,-3.3125,1.0625
1.824999999999983,-1.0,-1.0,7.0,19.0,-3.0,6.0,-1.0,0.0,-0.47576904296875,0.27783203125,-0.44024658203125,0.70892333984375,0.02490234375,-0.95458984375,0.41162109375,-0.3125,-3.3125,1.0625
1.829999999999983,-1.0,-1.0,7.0,19.0,-3.0,6.0,-1.0,0.0,-0.47576904296875,0.27783203125,-0.44024658203125,0.70892333984375,0.02490234375,-0.95458984375,0.41162109375,-0.3125,-3.3125,1.0625
1.8349999999999829,-1.0,-1.0,7.0,19.0,-3.0,6.0,-1.0,0.0,-0.47576904296875,0.27783203125,-0.44024658203125,0.70892333984375,0.02490234375,-0.95458984375,0.41162109375,-0.3125,-3.3125,1.0625
1.8399999999999828,-4.0,-5.0,-8.0,-1.0,-11.0,-9.0,-7.0,-4.0,-0.4754638671875,0.27740478515625,-0.44012451171875,0.70941162109375,0.025390625,-0.9384765625,0.41455078125,2.4375,-2.375,1.0625
1.8449999999999827,-4.0,-5.0,-8.0,-1.0,-11.0,-9.0,-7.0,-4.0,-0.4754638671875,0.27740478515625,-0.44012451171875,0.70941162109375,0.025390625,-0.9384765625,0.41455078125,2.4375,-2.375,1.0625
1.8499999999999825,-3.0,-2.0,3.0,9.0,7.0,-15.0,2.0,0.0,-0.4754638671875,0.27740478515625,-0.44012451171875,0.70941162109375,0.025390625,-0.9384765625,0.41455078125,2.4375,-2.375,1.0625
1.8549999999999824,-3.0,-2.0,3.0,9.0,7.0,-15.0,2.0,0.0,-0.4754638671875,0.27740478515625,-0.44012451171875,0.70941162109375,0.025390625,-0.9384765625,0.41455078125,2.4375,-2.375,1.0625
1.8599999999999823,-3.0,-2.0,3.0,9.0,7.0,-15.0,2.0,0.0,-0.4754638671875,0.27740478515625,-0.44012451171875,0.70941162109375,0.025390625,-0.9384765625,0.41455078125,2.4375,-2.375,1.0625
1.8649999999999822,-3.0,-2.0,3.0,9.0,7.0,-15.0,2.0,0.0,-0.4754638671875,0.27740478515625,-0.44012451171875,0.70941162109375,0.025390625,-0.9384765625,0.41455078125,2.4375,-2.375,1.0625
1.8699999999999821,-2.0,-2.0,0.0,7.0,-10.0,-4.0,1.0,-2.0,-0.47528076171875,0.27728271484375,-0.439697265625,0.7098388671875,0.01904296875,-0.935546875,0.40185546875,1.3125,-1.75,2.4375
1.874999999999982,-2.0,-2.0,0.0,7.0,-10.0,-4.0,1.0,-2.0,-0.47528076171875,0.27728271484375,-0.439697265625,0.7098388671875,0.01904296875,-0.935546875,0.40185546875,1.3125,-1.75,2.4375
1.879999999999982,-2.0,-2.0,0.0,7.0,-10.0,-4.0,1.0,-2.0,-0.47528076171875,0.27728271484375,-0.439697265625,0.7098388671875,0.01904296875,-0.935546875,0.40185546875,1.3125,-1.75,2.4375
1.8849999999999818,-2.0,-2.0,0.0,7.0,-10.0,-4.0,1.0,-2.0,-0.47528076171875,0.27728271484375,-0.439697265625,0.7098388671875,0.01904296875,-0.935546875,0.40185546875,1.3125,-1.75,2.4375
1.8899999999999817,-1.0,0.0,-1.0,5.0,12.0,-1.0,2.0,-1.0,-0.4752197265625,0.277587890625,-0.43927001953125,0.71002197265625,0.0185546875,-0.9287109375,0.396484375,-0.5,-0.3125,2.625
1.8949999999999816,-1.0,0.0,-1.0,5.0,12.0,-1.0,2.0,-1.0,-0.4752197265625,0.277587890625,-0.43927001953125,0.71002197265625,0.0185546875,-0.9287109375,0.396484375,-0.5,-0.3125,2.625
1.8999999999999815,-1.0,-1.0,-12.0,-35.0,-9.0,-2.0,0.0,-1.0,-0.4752197265625,0.277587890625,-0.43927001953125,0.71002197265625,0.0185546875,-0.9287109375,0.396484375,-0.5,-0.3125,2.625
1.9049999999999814,-1.0,-1.0,-12.0,-35.0,-9.0,-2.0,0.0,-1.0,-0.4752197265625,0.277587890625,-0.43927001953125,0.71002197265625,0.0185546875,-0.9287109375,0.396484375,-0.5,-0.3125,2.625
1.9099999999999813,-1.0,-1.0,-12.0,-35.0,-9.0,-2.0,0.0,-1.0,-0.4752197265625,0.277587890625,-0.43927001953125,0.71002197265625,0.0185546875,-0.9287109375,0.396484375,-0.5,-0.3125,2.625
1.9149999999999812,-2.0,-1.0,1.0,4.0,-2.0,-12.0,-3.0,-1.0,-0.4752197265625,0.277587890625,-0.43927001953125,0.71002197265625,0.0185546875,-0.9287109375,0.396484375,-0.5,-0.3125,2.625
1.919999999999981,-2.0,-1.0,1.0,4.0,-2.0,-12.0,-3.0,-1.0,-0.47491455078125,0.27777099609375,-0.43902587890625,0.7103271484375,0.0205078125,-0.9345703125,0.39501953125,1.6875,0.1875,2.625
1.924999999999981,-2.0,-2.0,-3.0,2.0,7.0,11.0,0.0,-1.0,-0.47491455078125,0.27777099609375,-0.43902587890625,0.7103271484375,0.0205078125,-0.9345703125,0.39501953125,1.6875,0.1875,2.625
1.9299999999999808,-2.0,-2.0,-3.0,2.0,7.0,11.0,0.0,-1.0,-0.47491455078125,0.27777099609375,-0.43902587890625,0.7103271484375,0.0205078125,-0.9345703125,0.39501953125,1.6875,0.1875,2.625
1.9349999999999807,-2.0,-2.0,-3.0,2.0,7.0,11.0,0.0,-1.0,-0.47491455078125,0.27777099609375,-0.43902587890625,0.7103271484375,0.0205078125,-0.9345703125,0.39501953125,1.6875,0.1875,2.625
1.9399999999999806,-2.0,-2.0,-3.0,2.0,7.0,11.0,0.0,-1.0,-0.47491455078125,0.27777099609375,-0.43902587890625,0.7103271484375,0.0205078125,-0.9345703125,0.39501953125,1.6875,0.1875,2.625
1.9449999999999805,-1.0,0.0,-6.0,0.0,-6.0,-8.0,0.0,-1.0,-0.4744873046875,0.27789306640625,-0.43896484375,0.7105712890625,0.0166015625,-0.93212890625,0.39501953125,2.4375,1.0625,1.75
1.9499999999999804,-4.0,-4.0,-4.0,10.0,-3.0,6.0,-1.0,-3.0,-0.4744873046875,0.27789306640625,-0.43896484375,0.7105712890625,0.0166015625,-0.93212890625,0.39501953125,2.4375,1.0625,1.75
1.9549999999999803,-4.0,-4.0,-4.0,10.0,-3.0,6.0,-1.0,-3.0,-0.4744873046875,0.27789306640625,-0.43896484375,0.7105712890625,0.0166015625,-0.93212890625,0.39501953125,2.4375,1.0625,1.75
1.9599999999999802,-4.0,-4.0,-4.0,10.0,-3.0,6.0,-1.0,-3.0,-0.4744873046875,0.27789306640625,-0.43896484375,0.7105712890625,0.0166015625,-0.93212890625,0.39501953125,2.4375,1.0625,1.75
1.96499999999998,-1.0,0.0,2.0,27.0,10.0,0.0,1.0,0.0,-0.4744873046875,0.27789306640625,-0.43896484375,0.7105712890625,0.0166015625,-0.93212890625,0.39501953125,2.4375,1.0625,1.75
1.96999999999998,-1.0,0.0,2.0,27.0,10.0,0.0,1.0,0.0,-0.4744873046875,0.27789306640625,-0.43896484375,0.7105712890625,0.0166015625,-0.93212890625,0.39501953125,2.4375,1.0625,1.75
1.9749999999999799,-1.0,0.0,2.0,27.0,10.0,0.0,1.0,0.0,-0.4744873046875,0.27789306640625,-0.43896484375,0.7105712890625,0.0166015625,-0.93212890625,0.39501953125,2.4375,1.0625,1.75
1.9799999999999798,-1.0,-2.0,-12.0,-32.0,-8.0,14.0,-6.0,-3.0,-0.47393798828125,0.27813720703125,-0.43896484375,0.71087646484375,0.017578125,-0.916015625,0.3935546875,2.25,1.625,1.8125
1.9849999999999797,-1.0,-2.0,-12.0,-32.0,-8.0,14.0,-6.0,-3.0,-0.47393798828125,0.27813720703125,-0.43896484375,0.71087646484375,0.017578125,-0.916015625,0.3935546875,2.25,1.625,1.8125
1.9899999999999796,-1.0,-2.0,-12.0,-32.0,-8.0,14.0,-6.0,-3.0,-0.47393798828125,0.27813720703125,-0.43896484375,0.71087646484375,0.017578125,-0.916015625,0.3935546875,2.25,1.625,1.8125
1.9949999999999795,-2.0,-3.0,-12.0,-41.0,-7.0,-9.0,-1.0,-1.0,-0.47357177734375,0.27838134765625,-0.43890380859375,0.7110595703125,0.0224609375,-0.90673828125,0.38671875,1.5,1.75,2.25
1.9999999999999793,-1.0,-1.0,1.0,2.0,-5.0,-1.0,0.0,0.0,-0.47357177734375,0.27838134765625,-0.43890380859375,0.7110595703125,0.0224609375,-0.90673828125,0.38671875,1.5,1.75,2.25
2.0049999999999795,-1.0,-1.0,1.0,2.0,-5.0,-1.0,0.0,0.0,-0.47357177734375,0.27838134765625,-0.43890380859375,0.7110595703125,0.0224609375,-0.90673828125,0.38671875,1.5,1.75,2.25
2.0099999999999794,-1.0,-1.0,1.0,2.0,-5.0,-1.0,0.0,0.0,-0.47357177734375,0.27838134765625,-0.43890380859375,0.7110595703125,0.0224609375,-0.90673828125,0.38671875,1.5,1.75,2.25
2.0149999999999793,-1.0,-1.0,1.0,2.0,-5.0,-1.0,0.0,0.0,-0.47357177734375,0.27838134765625,-0.43890380859375,0.7110595703125,0.0224609375,-0.90673828125,0.38671875,1.5,1.75,2.25
2.019999999999979,0.0,-4.0,-7.0,1.0,-7.0,-7.0,-2.0,-4.0,-0.47357177734375,0.27838134765625,-0.43890380859375,0.7110595703125,0.0224609375,-0.90673828125,0.38671875,1.5,1.75,2.25
2.024999999999979,-1.0,1.0,3.0,12.0,-7.0,20.0,0.0,0.0,-0.47369384765625,0.2789306640625,-0.4385986328125,0.7109375,0.0234375,-0.92236328125,0.384765625,-1.9375,1.125,2.4375
2.029999999999979,-1.0,1.0,3.0,12.0,-7.0,20.0,0.0,0.0,-0.47369384765625,0.2789306640625,-0.4385986328125,0.7109375,0.0234375,-0.92236328125,0.384765625,-1.9375,1.125,2.4375
2.034999999999979,-1.0,1.0,3.0,12.0,-7.0,20.0,0.0,0.0,-0.47369384765625,0.2789306640625,-0.4385986328125,0.7109375,0.0234375,-0.92236328125,0.384765625,-1.9375,1.125,2.4375
2.0399999999999787,-3.0,-4.0,-11.0,-45.0,-24.0,-8.0,3.0,0.0,-0.47369384765625,0.2789306640625,-0.4385986328125,0.7109375,0.0234375,-0.92236328125,0.384765625,-1.9375,1.125,2.4375
2.0449999999999786,-1.0,-2.0,-9.0,-41.0,2.0,-7.0,3.0,1.0,-0.47357177734375,0.279052734375,-0.43841552734375,0.7110595703125,0.01611328125,-0.94140625,0.39306640625,1.0625,0.1875,1.5
2.0499999999999785,-1.0,-2.0,-9.0,-41.0,2.0,-7.0,3.0,1.0,-0.47357177734375,0.279052734375,-0.43841552734375,0.7110595703125,0.01611328125,-0.94140625,0.39306640625,1.0625,0.1875,1.5
2.0549999999999784,-1.0,-2.0,-9.0,-41.0,2.0,-7.0,3.0,1.0,-0.47357177734375,0.279052734375,-0.43841552734375,0.7110595703125,0.01611328125,-0.94140625,0.39306640625,1.0625,0.1875,1.5
2.0599999999999783,0.0,2.0,6.0,15.0,11.0,2.0,-7.0,-1.0,-0.4735107421875,0.279052734375,-0.4384765625,0.7110595703125,0.02197265625,-0.927734375,0.3798828125,1.6875,0.3125,0.0
2.064999999999978,-3.0,-3.0,-4.0,0.0,-10.0,-13.0,1.0,0.0,-0.4735107421875,0.279052734375,-0.4384765625,0.7110595703125,0.02197265625,-0.927734375,0.3798828125,1.6875,0.3125,0.0
2.069999999999978,-3.0,-3.0,-4.0,0.0,-10.0,-13.0,1.0,0.0,-0.4735107421875,0.279052734375,-0.4384765625,0.7110595703125,0.02197265625,-0.927734375,0.3798828125,1.6875,0.3125,0.0
2.074999999999978,-3.0,-3.0,-4.0,0.0,-10.0,-13.0,1.0,0.0,-0.4735107421875,0.279052734375,-0.4384765625,0.7110595703125,0.02197265625,-0.927734375,0.3798828125,1.6875,0.3125,0.0
2.079999999999978,-3.0,-3.0,-4.0,0.0,-10.0,-13.0,1.0,0.0,-0.4735107421875,0.279052734375,-0.4384765625,0.7110595703125,0.02197265625,-0.927734375,0.3798828125,1.6875,0.3125,0.0
2.0849999999999778,1.0,0.0,5.0,0.0,2.0,-3.0,1.0,1.0,-0.4735107421875,0.27880859375,-0.438720703125,0.7110595703125,0.0244140625,-0.91064453125,0.38720703125,1.4375,0.0,-1.375
2.0899999999999777,0.0,1.0,-1.0,9.0,5.0,7.0,1.0,0.0,-0.4735107421875,0.27880859375,-0.438720703125,0.7110595703125,0.0244140625,-0.91064453125,0.38720703125,1.4375,0.0,-1.375
2.0949999999999775,1.0,2.0,9.0,23.0,7.0,0.0,-3.0,-1.0,-0.4735107421875,0.27880859375,-0.438720703125,0.7110595703125,0.0244140625,-0.91064453125,0.38720703125,1.4375,0.0,-1.375
2.0999999999999774,-3.0,-1.0,3.0,47.0,4.0,5.0,5.0,-4.0,-0.4735107421875,0.27880859375,-0.438720703125,0.7110595703125,0.0244140625,-0.91064453125,0.38720703125,1.4375,0.0,-1.375
2.1049999999999773,-3.0,-1.0,3.0,47.0,4.0,5.0,5.0,-4.0,-0.4735107421875,0.27880859375,-0.438720703125,0.7110595703125,0.0244140625,-0.91064453125,0.38720703125,1.4375,0.0,-1.375
2.1099999999999772,-3.0,-1.0,3.0,47.0,4.0,5.0,5.0,-4.0,-0.4735107421875,0.27880859375,-0.438720703125,0.7110595703125,0.0244140625,-0.91064453125,0.38720703125,1.4375,0.0,-1.375
2.114999999999977,-3.0,-1.0,3.0,47.0,4.0,5.0,5.0,-4.0,-0.4735107421875,0.27880859375,-0.438720703125,0.7110595703125,0.0244140625,-0.91064453125,0.38720703125,1.4375,0.0,-1.375
2.119999999999977,0.0,0.0,3.0,2.0,1.0,-6.0,-6.0,-3.0,-0.47381591796875,0.27874755859375,-0.438720703125,0.71087646484375,0.01904296875,-0.9169921875,0.38427734375,-0.9375,-0.875,-1.1875
2.124999999999977,0.0,0.0,3.0,2.0,1.0,-6.0,-6.0,-3.0,-0.47381591796875,0.27874755859375,-0.438720703125,0.71087646484375,0.01904296875,-0.9169921875,0.38427734375,-0.9375,-0.875,-1.1875
2.129999999999977,-1.0,-2.0,-1.0,-18.0,-1.0,-10.0,-6.0,-1.0,-0.47381591796875,0.27874755859375,-0.438720703125,0.71087646484375,0.01904296875,-0.9169921875,0.38427734375,-0.9375,-0.875,-1.1875
2.1349999999999767,-1.0,-2.0,-1.0,-18.0,-1.0,-10.0,-6.0,-1.0,-0.474609375,0.27886962890625,-0.43853759765625,0.71038818359375,0.021484375,-0.9462890625,0.392578125,-4.5625,-1.3125,-1.375
2.1399999999999766,0.0,-1.0,6.0,36.0,15.0,21.0,1.0,0.0,-0.474609375,0.27886962890625,-0.43853759765625,0.71038818359375,0.021484375,-0.9462890625,0.392578125,-4.5625,-1.3125,-1.375
2.1449999999999765,0.0,-1.0,6.0,36.0,15.0,21.0,1.0,0.0,-0.474609375,0.27886962890625,-0.43853759765625,0.71038818359375,0.021484375,-0.9462890625,0.392578125,-4.5625,-1.3125,-1.375
2.1499999999999764,0.0,-1.0,6.0,36.0,15.0,21.0,1.0,0.0,-0.474609375,0.27886962890625,-0.43853759765625,0.71038818359375,0.021484375,-0.9462890625,0.392578125,-4.5625,-1.3125,-1.375
2.1549999999999763,0.0,-1.0,-3.0,-19.0,-4.0,1.0,-6.0,3.0,-0.47503662109375,0.27862548828125,-0.4385986328125,0.710205078125,0.01904296875,-0.94873046875,0.40234375,-1.25,-1.6875,-2.1875
2.159999999999976,0.0,-1.0,-3.0,-19.0,-4.0,1.0,-6.0,3.0,-0.47503662109375,0.27862548828125,-0.4385986328125,0.710205078125,0.01904296875,-0.94873046875,0.40234375,-1.25,-1.6875,-2.1875
2.164999999999976,0.0,1.0,1.0,9.0,-2.0,4.0,-3.0,2.0,-0.47503662109375,0.27862548828125,-0.4385986328125,0.710205078125,0.01904296875,-0.94873046875,0.40234375,-1.25,-1.6875,-2.1875
2.169999999999976,0.0,1.0,1.0,9.0,-2.0,4.0,-3.0,2.0,-0.47503662109375,0.27862548828125,-0.4385986328125,0.710205078125,0.01904296875,-0.94873046875,0.40234375,-1.25,-1.6875,-2.1875
2.174999999999976,-1.0,-1.0,3.0,17.0,5.0,5.0,7.0,-1.0,-0.475341796875,0.278076171875,-0.43865966796875,0.71014404296875,0.021484375,-0.943359375,0.40283203125,0.0625,-2.625,-2.4375
2.1799999999999757,-1.0,-1.0,3.0,17.0,5.0,5.0,7.0,-1.0,-0.475341796875,0.278076171875,-0.43865966796875,0.71014404296875,0.021484375,-0.943359375,0.40283203125,0.0625,-2.625,-2.4375
2.1849999999999756,-1.0,-1.0,3.0,17.0,5.0,5.0,7.0,-1.0,-0.475341796875,0.278076171875,-0.43865966796875,0.71014404296875,0.021484375,-0.943359375,0.40283203125,0.0625,-2.625,-2.4375
2.1899999999999755,-1.0,-1.0,3.0,17.0,5.0,5.0,7.0,-1.0,-0.475341796875,0.278076171875,-0.43865966796875,0.71014404296875,0.021484375,-0.943359375,0.40283203125,0.0625,-2.625,-2.4375
2.1949999999999754,-1.0,-3.0,-12.0,-7.0,-9.0,-18.0,-5.0,-1.0,-0.475341796875,0.278076171875,-0.43865966796875,0.71014404296875,0.021484375,-0.943359375,0.40283203125,0.0625,-2.625,-2.4375
2.1999999999999753,0.0,-2.0,-2.0,-5.0,-8.0,-23.0,-4.0,-1.0,-0.4755859375,0.2772216796875,-0.438720703125,0.71026611328125,0.02099609375,-0.92724609375,0.4140625,0.625,-4.3125,-2.625
2.204999999999975,0.0,-2.0,-2.0,-5.0,-8.0,-23.0,-4.0,-1.0,-0.4755859375,0.2772216796875,-0.438720703125,0.71026611328125,0.02099609375,-0.92724609375,0.4140625,0.625,-4.3125,-2.625
2.209999999999975,0.0,-2.0,-2.0,-5.0,-8.0,-23.0,-4.0,-1.0,-0.4755859375,0.2772216796875,-0.438720703125,0.71026611328125,0.02099609375,-0.92724609375,0.4140625,0.625,-4.3125,-2.625
2.214999999999975,1.0,-3.0,-1.0,37.0,4.0,-9.0,-8.0,1.0,-0.47613525390625,0.2764892578125,-0.4384765625,0.7103271484375,0.0205078125,-0.93994140625,0.40771484375,-1.25,-5.125,-2.125
2.219999999999975,-3.0,-4.0,-5.0,13.0,1.0,2.0,-7.0,-3.0,-0.47613525390625,0.2764892578125,-0.4384765625,0.7103271484375,0.0205078125,-0.93994140625,0.40771484375,-1.25,-5.125,-2.125
2.2249999999999748,-3.0,-4.0,-5.0,13.0,1.0,2.0,-7.0,-3.0,-0.47613525390625,0.2764892578125,-0.4384765625,0.7103271484375,0.0205078125,-0.93994140625,0.40771484375,-1.25,-5.125,-2.125
2.2299999999999747,-2.0,3.0,13.0,24.0,9.0,0.0,-6.0,0.0,-0.47613525390625,0.2764892578125,-0.4384765625,0.7103271484375,0.0205078125,-0.93994140625,0.40771484375,-1.25,-5.125,-2.125
2.2349999999999746,-2.0,3.0,13.0,24.0,9.0,0.0,-6.0,0.0,-0.47613525390625,0.2764892578125,-0.4384765625,0.7103271484375,0.0205078125,-0.93994140625,0.40771484375,-1.25,-5.125,-2.125
2.2399999999999745,0.0,0.0,-2.0,1.0,-5.0,-13.0,-20.0,1.0,-0.4766845703125,0.27593994140625,-0.4383544921875,0.71026611328125,0.0234375,-0.95068359375,0.41015625,-1.375,-4.0625,-2.3125
2.2449999999999743,0.0,0.0,-2.0,1.0,-5.0,-13.0,-20.0,1.0,-0.4766845703125,0.27593994140625,-0.4383544921875,0.71026611328125,0.0234375,-0.95068359375,0.41015625,-1.375,-4.0625,-2.3125
2.2499999999999742,0.0,0.0,-2.0,1.0,-5.0,-13.0,-20.0,1.0,-0.4766845703125,0.27593994140625,-0.4383544921875,0.71026611328125,0.0234375,-0.95068359375,0.41015625,-1.375,-4.0625,-2.3125
2.254999999999974,0.0,0.0,-2.0,1.0,-5.0,-13.0,-20.0,1.0,-0.4766845703125,0.27593994140625,-0.4383544921875,0.71026611328125,0.0234375,-0.95068359375,0.41015625,-1.375,-4.0625,-2.3125
2.259999999999974,-1.0,-1.0,0.0,12.0,-6.0,8.0,-3.0,-3.0,-0.4766845703125,0.27593994140625,-0.4383544921875,0.71026611328125,0.0234375,-0.95068359375,0.41015625,-1.375,-4.0625,-2.3125
2.264999999999974,-1.0,-2.0,-4.0,-3.0,-17.0,-19.0,9.0,-2.0,-0.4766845703125,0.27545166015625,-0.4383544921875,0.71044921875,0.01904296875,-0.9404296875,0.4150390625,0.8125,-2.75,-1.5
2.269999999999974,-1.0,-2.0,-4.0,-3.0,-17.0,-19.0,9.0,-2.0,-0.4766845703125,0.27545166015625,-0.4383544921875,0.71044921875,0.01904296875,-0.9404296875,0.4150390625,0.8125,-2.75,-1.5
2.2749999999999737,-1.0,-2.0,-4.0,-3.0,-17.0,-19.0,9.0,-2.0,-0.4766845703125,0.27545166015625,-0.4383544921875,0.71044921875,0.01904296875,-0.9404296875,0.4150390625,0.8125,-2.75,-1.5
2.2799999999999736,-3.0,-6.0,-20.0,-46.0,-7.0,-9.0,-3.0,-4.0,-0.47637939453125,0.27490234375,-0.43829345703125,0.71087646484375,0.00732421875,-0.93798828125,0.41552734375,2.8125,-2.9375,-1.125
2.2849999999999735,-3.0,-6.0,-20.0,-46.0,-7.0,-9.0,-3.0,-4.0,-0.47637939453125,0.27490234375,-0.43829345703125,0.71087646484375,0.00732421875,-0.93798828125,0.41552734375,2.8125,-2.9375,-1.125
2.2899999999999734,-1.0,-2.0,-8.0,-33.0,-5.0,6.0,0.0,1.0,-0.47637939453125,0.27490234375,-0.43829345703125,0.71087646484375,0.00732421875,-0.93798828125,0.41552734375,2.8125,-2.9375,-1.125
2.2949999999999733,-2.0,-4.0,-7.0,-36.0,4.0,2.0,1.0,-3.0,-0.47637939453125,0.27490234375,-0.43829345703125,0.71087646484375,0.00732421875,-0.93798828125,0.41552734375,2.8125,-2.9375,-1.125
2.299999999999973,-2.0,-4.0,-7.0,-36.0,4.0,2.0,1.0,-3.0,-0.47637939453125,0.27490234375,-0.43829345703125,0.71087646484375,0.00732421875,-0.93798828125,0.41552734375,2.8125,-2.9375,-1.125
2.304999999999973,-2.0,-4.0,-7.0,-36.0,4.0,2.0,1.0,-3.0,-0.47637939453125,0.27490234375,-0.43829345703125,0.71087646484375,0.00732421875,-0.93798828125,0.41552734375,2.8125,-2.9375,-1.125
2.309999999999973,-1.0,0.0,-16.0,-47.0,-9.0,-3.0,12.0,0.0,-0.47625732421875,0.27459716796875,-0.43817138671875,0.711181640625,0.0087890625,-0.9287109375,0.41015625,1.3125,-2.1875,-0.5
2.314999999999973,-1.0,0.0,-16.0,-47.0,-9.0,-3.0,12.0,0.0,-0.47625732421875,0.27459716796875,-0.43817138671875,0.711181640625,0.0087890625,-0.9287109375,0.41015625,1.3125,-2.1875,-0.5
2.3199999999999728,-1.0,0.0,-16.0,-47.0,-9.0,-3.0,12.0,0.0,-0.47625732421875,0.27459716796875,-0.43817138671875,0.711181640625,0.0087890625,-0.9287109375,0.41015625,1.3125,-2.1875,-0.5
2.3249999999999726,-1.0,0.0,-16.0,-47.0,-9.0,-3.0,12.0,0.0,-0.47625732421875,0.27459716796875,-0.43817138671875,0.711181640625,0.0087890625,-0.9287109375,0.41015625,1.3125,-2.1875,-0.5
2.3299999999999725,1.0,0.0,2.0,21.0,-8.0,-13.0,-8.0,-1.0,-0.47589111328125,0.274169921875,-0.4381103515625,0.71160888671875,0.0068359375,-0.9287109375,0.400390625,3.5625,-2.3125,-0.375
2.3349999999999724,1.0,0.0,2.0,21.0,-8.0,-13.0,-8.0,-1.0,-0.47589111328125,0.274169921875,-0.4381103515625,0.71160888671875,0.0068359375,-0.9287109375,0.400390625,3.5625,-2.3125,-0.375
2.3399999999999723,-1.0,-1.0,2.0,13.0,2.0,-4.0,-2.0,0.0,-0.47589111328125,0.274169921875,-0.4381103515625,0.71160888671875,0.0068359375,-0.9287109375,0.400390625,3.5625,-2.3125,-0.375
2.344999999999972,-1.0,-1.0,2.0,13.0,2.0,-4.0,-2.0,0.0,-0.47589111328125,0.274169921875,-0.4381103515625,0.71160888671875,0.0068359375,-0.9287109375,0.400390625,3.5625,-2.3125,-0.375
2.349999999999972,-1.0,-1.0,2.0,13.0,2.0,-4.0,-2.0,0.0,-0.47589111328125,0.274169921875,-0.4381103515625,0.71160888671875,0.0068359375,-0.9287109375,0.400390625,3.5625,-2.3125,-0.375
2.354999999999972,-1.0,-1.0,2.0,13.0,2.0,-4.0,-2.0,0.0,-0.47589111328125,0.274169921875,-0.4381103515625,0.71160888671875,0.0068359375,-0.9287109375,0.400390625,3.5625,-2.3125,-0.375
2.359999999999972,0.0,2.0,12.0,28.0,10.0,-19.0,1.0,1.0,-0.47552490234375,0.2738037109375,-0.43804931640625,0.7120361328125,0.02490234375,-0.92822265625,0.40234375,3.375,-1.625,0.6875
2.364999999999972,0.0,2.0,12.0,28.0,10.0,-19.0,1.0,1.0,-0.47552490234375,0.2738037109375,-0.43804931640625,0.7120361328125,0.02490234375,-0.92822265625,0.40234375,3.375,-1.625,0.6875
2.3699999999999717,-1.0,-1.0,7.0,29.0,1.0,10.0,5.0,-1.0,-0.47552490234375,0.2738037109375,-0.43804931640625,0.7120361328125,0.02490234375,-0.92822265625,0.40234375,3.375,-1.625,0.6875
2.3749999999999716,-1.0,-1.0,7.0,29.0,1.0,10.0,5.0,-1.0,-0.47552490234375,0.2738037109375,-0.43804931640625,0.7120361328125,0.02490234375,-0.92822265625,0.40234375,3.375,-1.625,0.6875
2.3799999999999715,-3.0,-3.0,-6.0,1.0,-2.0,-9.0,-6.0,-3.0,-0.47552490234375,0.2738037109375,-0.43804931640625,0.7120361328125,0.02490234375,-0.92822265625,0.40234375,3.375,-1.625,0.6875
2.3849999999999714,-3.0,-3.0,-6.0,1.0,-2.0,-9.0,-6.0,-3.0,-0.47552490234375,0.2738037109375,-0.43804931640625,0.7120361328125,0.02490234375,-0.92822265625,0.40234375,3.375,-1.625,0.6875
2.3899999999999713,-1.0,-1.0,1.0,-8.0,1.0,3.0,-2.0,-4.0,-0.4754638671875,0.27349853515625,-0.43804931640625,0.71221923828125,0.03369140625,-0.931640625,0.40087890625,1.6875,-1.0,0.1875
2.394999999999971,-1.0,-1.0,1.0,-8.0,1.0,3.0,-2.0,-4.0,-0.4754638671875,0.27349853515625,-0.43804931640625,0.71221923828125,0.03369140625,-0.931640625,0.40087890625,1.6875,-1.0,0.1875
2.399999999999971,-1.0,-1.0,1.0,-8.0,1.0,3.0,-2.0,-4.0,-0.4754638671875,0.27349853515625,-0.43804931640625,0.71221923828125,0.03369140625,-0.931640625,0.40087890625,1.6875,-1.0,0.1875
2.404999999999971,-1.0,-1.0,1.0,-8.0,1.0,3.0,-2.0,-4.0,-0.4754638671875,0.27349853515625,-0.43804931640625,0.71221923828125,0.03369140625,-0.931640625,0.40087890625,1.6875,-1.0,0.1875
2.409999999999971,-1.0,-1.0,-2.0,-13.0,-4.0,5.0,5.0,-1.0,-0.47528076171875,0.2734375,-0.43798828125,0.71240234375,0.02490234375,-0.92578125,0.4013671875,1.4375,-0.4375,0.4375
2.4149999999999707,-1.0,-1.0,-2.0,-13.0,-4.0,5.0,5.0,-1.0,-0.47528076171875,0.2734375,-0.43798828125,0.71240234375,0.02490234375,-0.92578125,0.4013671875,1.4375,-0.4375,0.4375
2.4199999999999706,-3.0,-2.0,-1.0,-5.0,-3.0,-2.0,-8.0,-2.0,-0.47528076171875,0.2734375,-0.43798828125,0.71240234375,0.02490234375,-0.92578125,0.4013671875,1.4375,-0.4375,0.4375
2.4249999999999705,-3.0,-2.0,-1.0,-5.0,-3.0,-2.0,-8.0,-2.0,-0.47528076171875,0.2734375,-0.43798828125,0.71240234375,0.02490234375,-0.92578125,0.4013671875,1.4375,-0.4375,0.4375
2.4299999999999704,-3.0,-2.0,-1.0,-5.0,-3.0,-2.0,-8.0,-2.0,-0.47528076171875,0.2734375,-0.43798828125,0.71240234375,0.02490234375,-0.92578125,0.4013671875,1.4375,-0.4375,0.4375
2.4349999999999703,-3.0,-2.0,-1.0,-5.0,-3.0,-2.0,-8.0,-2.0,-0.47528076171875,0.2734375,-0.43798828125,0.71240234375,0.02490234375,-0.92578125,0.4013671875,1.4375,-0.4375,0.4375
2.43999999999997,2.0,0.0,-1.0,-14.0,7.0,2.0,-2.0,-1.0,-0.4749755859375,0.2730712890625,-0.43780517578125,0.71282958984375,0.025390625,-0.92578125,0.40087890625,3.1875,-1.6875,1.3125
2.44499999999997,2.0,0.0,-1.0,-14.0,7.0,2.0,-2.0,-1.0,-0.4749755859375,0.2730712890625,-0.43780517578125,0.71282958984375,0.025390625,-0.92578125,0.40087890625,3.1875,-1.6875,1.3125
2.44999999999997,-1.0,0.0,-2.0,-7.0,8.0,3.0,1.0,0.0,-0.4749755859375,0.2730712890625,-0.43780517578125,0.71282958984375,0.025390625,-0.92578125,0.40087890625,3.1875,-1.6875,1.3125
2.45499999999997,-1.0,0.0,-2.0,-7.0,8.0,3.0,1.0,0.0,-0.4749755859375,0.2730712890625,-0.43780517578125,0.71282958984375,0.025390625,-0.92578125,0.40087890625,3.1875,-1.6875,1.3125
2.4599999999999698,-1.0,0.0,-2.0,-7.0,8.0,3.0,1.0,0.0,-0.4749755859375,0.2730712890625,-0.43780517578125,0.71282958984375,0.025390625,-0.92578125,0.40087890625,3.1875,-1.6875,1.3125
2.4649999999999697,-1.0,0.0,-2.0,-7.0,8.0,3.0,1.0,0.0,-0.4749755859375,0.2730712890625,-0.43780517578125,0.71282958984375,0.025390625,-0.92578125,0.40087890625,3.1875,-1.6875,1.3125
2.4699999999999696,1.0,2.0,17.0,68.0,8.0,11.0,9.0,1.0,-0.474853515625,0.272705078125,-0.4376220703125,0.71319580078125,0.02685546875,-0.92822265625,0.40283203125,2.25,-2.5625,0.8125
2.4749999999999694,1.0,2.0,17.0,68.0,8.0,11.0,9.0,1.0,-0.474853515625,0.272705078125,-0.4376220703125,0.71319580078125,0.02685546875,-0.92822265625,0.40283203125,2.25,-2.5625,0.8125
2.4799999999999693,1.0,2.0,17.0,68.0,8.0,11.0,9.0,1.0,-0.474853515625,0.272705078125,-0.4376220703125,0.71319580078125,0.02685546875,-0.92822265625,0.40283203125,2.25,-2.5625,0.8125
2.4849999999999692,-1.0,-2.0,4.0,25.0,-8.0,-11.0,1.0,-4.0,-0.474853515625,0.272705078125,-0.4376220703125,0.71319580078125,0.02685546875,-0.92822265625,0.40283203125,2.25,-2.5625,0.8125
2.489999999999969,-1.0,-2.0,4.0,25.0,-8.0,-11.0,1.0,-4.0,-0.47491455078125,0.27239990234375,-0.4373779296875,0.71343994140625,0.0302734375,-0.93408203125,0.4072265625,0.5625,-2.125,0.875
2.494999999999969,-3.0,-4.0,-1.0,13.0,-6.0,0.0,-4.0,-3.0,-0.47491455078125,0.27239990234375,-0.4373779296875,0.71343994140625,0.0302734375,-0.93408203125,0.4072265625,0.5625,-2.125,0.875
2.499999999999969,-3.0,-4.0,-1.0,13.0,-6.0,0.0,-4.0,-3.0,-0.47491455078125,0.27239990234375,-0.4373779296875,0.71343994140625,0.0302734375,-0.93408203125,0.4072265625,0.5625,-2.125,0.875
2.504999999999969,-3.0,-4.0,-1.0,13.0,-6.0,0.0,-4.0,-3.0,-0.47491455078125,0.27239990234375,-0.4373779296875,0.71343994140625,0.0302734375,-0.93408203125,0.4072265625,0.5625,-2.125,0.875
2.5099999999999687,-3.0,-4.0,-1.0,13.0,-6.0,0.0,-4.0,-3.0,-0.47491455078125,0.27239990234375,-0.4373779296875,0.71343994140625,0.0302734375,-0.93408203125,0.4072265625,0.5625,-2.125,0.875
2.5149999999999686,1.0,0.0,-2.0,-16.0,0.0,2.0,3.0,1.0,-0.47479248046875,0.27227783203125,-0.4371337890625,0.71368408203125,0.025390625,-0.9375,0.408203125,1.375,-1.625,1.1875
2.5199999999999685,1.0,0.0,-2.0,-16.0,0.0,2.0,3.0,1.0,-0.47479248046875,0.27227783203125,-0.4371337890625,0.71368408203125,0.025390625,-0.9375,0.408203125,1.375,-1.625,1.1875
2.5249999999999684,0.0,-1.0,-5.0,-13.0,-2.0,-6.0,-8.0,-2.0,-0.47479248046875,0.27227783203125,-0.4371337890625,0.71368408203125,0.025390625,-0.9375,0.408203125,1.375,-1.625,1.1875
2.5299999999999683,0.0,-1.0,-5.0,-13.0,-2.0,-6.0,-8.0,-2.0,-0.47479248046875,0.27227783203125,-0.4371337890625,0.71368408203125,0.025390625,-0.9375,0.408203125,1.375,-1.625,1.1875
2.534999999999968,0.0,-1.0,-5.0,-13.0,-2.0,-6.0,-8.0,-2.0,-0.47479248046875,0.27227783203125,-0.4371337890625,0.71368408203125,0.025390625,-0.9375,0.408203125,1.375,-1.625,1.1875
2.539999999999968,0.0,-1.0,-5.0,-13.0,-2.0,-6.0,-8.0,-2.0,-0.47479248046875,0.27227783203125,-0.4371337890625,0.71368408203125,0.025390625,-0.9375,0.408203125,1.375,-1.625,1.1875
2.544999999999968,-2.0,-6.0,-33.0,-76.0,-9.0,13.0,-6.0,-5.0,-0.4747314453125,0.27203369140625,-0.43682861328125,0.7139892578125,0.02392578125,-0.92626953125,0.4052734375,1.1875,-2.3125,1.375
2.549999999999968,-2.0,-6.0,-33.0,-76.0,-9.0,13.0,-6.0,-5.0,-0.4747314453125,0.27203369140625,-0.43682861328125,0.7139892578125,0.02392578125,-0.92626953125,0.4052734375,1.1875,-2.3125,1.375
2.5549999999999677,-2.0,-6.0,-33.0,-76.0,-9.0,13.0,-6.0,-5.0,-0.4747314453125,0.27203369140625,-0.43682861328125,0.7139892578125,0.02392578125,-0.92626953125,0.4052734375,1.1875,-2.3125,1.375
2.5599999999999676,-2.0,-6.0,-33.0,-76.0,-9.0,13.0,-6.0,-5.0,-0.4747314453125,0.27203369140625,-0.43682861328125,0.7139892578125,0.02392578125,-0.92626953125,0.4052734375,1.1875,-2.3125,1.375
2.5649999999999675,1.0,-2.0,-16.0,-50.0,-10.0,-2.0,-3.0,-1.0,-0.4747314453125,0.27203369140625,-0.43682861328125,0.7139892578125,0.02392578125,-0.92626953125,0.4052734375,1.1875,-2.3125,1.375
2.5699999999999674,1.0,-2.0,-16.0,-50.0,-10.0,-2.0,-3.0,-1.0,-0.474609375,0.271728515625,-0.4365234375,0.71435546875,0.02880859375,-0.9267578125,0.4111328125,1.4375,-2.125,1.5
2.5749999999999673,-1.0,0.0,4.0,8.0,0.0,-21.0,-4.0,-1.0,-0.474609375,0.271728515625,-0.4365234375,0.71435546875,0.02880859375,-0.9267578125,0.4111328125,1.4375,-2.125,1.5
2.579999999999967,-1.0,0.0,4.0,8.0,0.0,-21.0,-4.0,-1.0,-0.474609375,0.271728515625,-0.4365234375,0.71435546875,0.02880859375,-0.9267578125,0.4111328125,1.4375,-2.125,1.5
2.584999999999967,-1.0,0.0,4.0,8.0,0.0,-21.0,-4.0,-1.0,-0.474609375,0.271728515625,-0.4365234375,0.71435546875,0.02880859375,-0.9267578125,0.4111328125,1.4375,-2.125,1.5
2.589999999999967,-4.0,-3.0,-8.0,36.0,-6.0,3.0,-4.0,-4.0,-0.47467041015625,0.2716064453125,-0.43621826171875,0.714599609375,0.02197265625,-0.92138671875,0.412109375,-0.25,-1.8125,1.3125
2.594999999999967,0.0,0.0,8.0,-2.0,-10.0,-1.0,-1.0,1.0,-0.47467041015625,0.2716064453125,-0.43621826171875,0.714599609375,0.02197265625,-0.92138671875,0.412109375,-0.25,-1.8125,1.3125
2.599999999999967,0.0,0.0,8.0,-2.0,-10.0,-1.0,-1.0,1.0,-0.47467041015625,0.2716064453125,-0.43621826171875,0.714599609375,0.02197265625,-0.92138671875,0.412109375,-0.25,-1.8125,1.3125
2.6049999999999667,-3.0,-2.0,4.0,11.0,-2.0,-11.0,0.0,-3.0,-0.47467041015625,0.2716064453125,-0.43621826171875,0.714599609375,0.02197265625,-0.92138671875,0.412109375,-0.25,-1.8125,1.3125
2.6099999999999666,0.0,-1.0,6.0,34.0,10.0,4.0,2.0,0.0,-0.474609375,0.27142333984375,-0.43603515625,0.71478271484375,0.02490234375,-0.93701171875,0.4072265625,0.9375,-1.625,0.6875
2.6149999999999665,0.0,-1.0,6.0,34.0,10.0,4.0,2.0,0.0,-0.474609375,0.27142333984375,-0.43603515625,0.71478271484375,0.02490234375,-0.93701171875,0.4072265625,0.9375,-1.625,0.6875
2.6199999999999664,0.0,-1.0,6.0,34.0,10.0,4.0,2.0,0.0,-0.474609375,0.27142333984375,-0.43603515625,0.71478271484375,0.02490234375,-0.93701171875,0.4072265625,0.9375,-1.625,0.6875
2.6249999999999662,-3.0,-2.0,4.0,-4.0,5.0,9.0,-4.0,-3.0,-0.47430419921875,0.2711181640625,-0.43597412109375,0.71514892578125,0.01708984375,-0.92138671875,0.40869140625,2.9375,-1.4375,0.0
2.629999999999966,-1.0,-1.0,-3.0,-33.0,-8.0,-6.0,1.0,0.0,-0.47430419921875,0.2711181640625,-0.43597412109375,0.71514892578125,0.01708984375,-0.92138671875,0.40869140625,2.9375,-1.4375,0.0
2.634999999999966,-1.0,-1.0,-3.0,-33.0,-8.0,-6.0,1.0,0.0,-0.47430419921875,0.2711181640625,-0.43597412109375,0.71514892578125,0.01708984375,-0.92138671875,0.40869140625,2.9375,-1.4375,0.0
2.639999999999966,-1.0,-1.0,-3.0,-33.0,-8.0,-6.0,1.0,0.0,-0.47430419921875,0.2711181640625,-0.43597412109375,0.71514892578125,0.01708984375,-0.92138671875,0.40869140625,2.9375,-1.4375,0.0
2.644999999999966,-1.0,-1.0,-3.0,-33.0,-8.0,-6.0,1.0,0.0,-0.47430419921875,0.2711181640625,-0.43597412109375,0.71514892578125,0.01708984375,-0.92138671875,0.40869140625,2.9375,-1.4375,0.0
2.6499999999999657,-1.0,-1.0,-3.0,-33.0,-8.0,-6.0,1.0,0.0,-0.47430419921875,0.2711181640625,-0.43597412109375,0.71514892578125,0.01708984375,-0.92138671875,0.40869140625,2.9375,-1.4375,0.0
2.6549999999999656,2.0,0.0,-2.0,-39.0,-4.0,-4.0,-9.0,-1.0,-0.47406005859375,0.27099609375,-0.43585205078125,0.7154541015625,0.01513671875,-0.9208984375,0.4033203125,1.875,-1.0,0.5625
2.6599999999999655,2.0,0.0,-2.0,-39.0,-4.0,-4.0,-9.0,-1.0,-0.47406005859375,0.27099609375,-0.43585205078125,0.7154541015625,0.01513671875,-0.9208984375,0.4033203125,1.875,-1.0,0.5625
2.6649999999999654,2.0,0.0,-2.0,-39.0,-4.0,-4.0,-9.0,-1.0,-0.47406005859375,0.27099609375,-0.43585205078125,0.7154541015625,0.01513671875,-0.9208984375,0.4033203125,1.875,-1.0,0.5625
2.6699999999999653,2.0,0.0,-2.0,-39.0,-4.0,-4.0,-9.0,-1.0,-0.47406005859375,0.27099609375,-0.43585205078125,0.7154541015625,0.01513671875,-0.9208984375,0.4033203125,1.875,-1.0,0.5625
2.674999999999965,-2.0,-3.0,-3.0,0.0,-7.0,10.0,7.0,-5.0,-0.47406005859375,0.27099609375,-0.43585205078125,0.7154541015625,0.01513671875,-0.9208984375,0.4033203125,1.875,-1.0,0.5625
2.679999999999965,-1.0,-2.0,-6.0,13.0,3.0,10.0,0.0,-2.0,-0.47406005859375,0.27099609375,-0.43585205078125,0.7154541015625,0.0078125,-0.916015625,0.40625,0.25,-0.75,0.375
2.684999999999965,-1.0,-2.0,-6.0,13.0,3.0,10.0,0.0,-2.0,-0.47406005859375,0.27099609375,-0.43585205078125,0.7154541015625,0.0078125,-0.916015625,0.40625,0.25,-0.75,0.375
2.689999999999965,-1.0,-2.0,-6.0,13.0,3.0,10.0,0.0,-2.0,-0.47406005859375,0.27099609375,-0.43585205078125,0.7154541015625,0.0078125,-0.916015625,0.40625,0.25,-0.75,0.375
2.6949999999999648,-1.0,-2.0,-6.0,13.0,3.0,10.0,0.0,-2.0,-0.47406005859375,0.27099609375,-0.43585205078125,0.7154541015625,0.0078125,-0.916015625,0.40625,0.25,-0.75,0.375
2.6999999999999647,-2.0,-2.0,-10.0,-15.0,-12.0,2.0,0.0,-3.0,-0.47393798828125,0.27093505859375,-0.43560791015625,0.7156982421875,0.01025390625,-0.92431640625,0.40576171875,1.3125,-1.625,0.5
2.7049999999999645,-3.0,-6.0,-9.0,-4.0,-5.0,-7.0,-3.0,-2.0,-0.47393798828125,0.27093505859375,-0.43560791015625,0.7156982421875,0.01025390625,-0.92431640625,0.40576171875,1.3125,-1.625,0.5
2.7099999999999644,-3.0,-6.0,-9.0,-4.0,-5.0,-7.0,-3.0,-2.0,-0.47393798828125,0.27093505859375,-0.43560791015625,0.7156982421875,0.01025390625,-0.92431640625,0.40576171875,1.3125,-1.625,0.5
2.7149999999999643,1.0,1.0,4.0,-2.0,6.0,7.0,8.0,0.0,-0.47369384765625,0.2708740234375,-0.43548583984375,0.7159423828125,0.0107421875,-0.91943359375,0.40478515625,1.6875,-0.6875,0.5
2.7199999999999642,0.0,1.0,8.0,18.0,3.0,-10.0,4.0,-2.0,-0.47369384765625,0.2708740234375,-0.43548583984375,0.7159423828125,0.0107421875,-0.91943359375,0.40478515625,1.6875,-0.6875,0.5
2.724999999999964,0.0,1.0,8.0,18.0,3.0,-10.0,4.0,-2.0,-0.47369384765625,0.2708740234375,-0.43548583984375,0.7159423828125,0.0107421875,-0.91943359375,0.40478515625,1.6875,-0.6875,0.5
2.729999999999964,0.0,1.0,8.0,18.0,3.0,-10.0,4.0,-2.0,-0.47369384765625,0.2708740234375,-0.43548583984375,0.7159423828125,0.0107421875,-0.91943359375,0.40478515625,1.6875,-0.6875,0.5
2.734999999999964,0.0,1.0,8.0,18.0,3.0,-10.0,4.0,-2.0,-0.47369384765625,0.2708740234375,-0.43548583984375,0.7159423828125,0.0107421875,-0.91943359375,0.40478515625,1.6875,-0.6875,0.5
2.739999999999964,0.0,1.0,8.0,18.0,3.0,-10.0,4.0,-2.0,-0.47369384765625,0.2708740234375,-0.43548583984375,0.7159423828125,0.0107421875,-0.91943359375,0.40478515625,1.6875,-0.6875,0.5
2.7449999999999637,-1.0,0.0,4.0,17.0,-1.0,-2.0,0.0,2.0,-0.4736328125,0.2708740234375,-0.43548583984375,0.71600341796875,0.01025390625,-0.927734375,0.41015625,0.4375,-0.375,0.0625
2.7499999999999636,-1.0,0.0,4.0,17.0,-1.0,-2.0,0.0,2.0,-0.4736328125,0.2708740234375,-0.43548583984375,0.71600341796875,0.01025390625,-0.927734375,0.41015625,0.4375,-0.375,0.0625
2.7549999999999635,-1.0,0.0,4.0,17.0,-1.0,-2.0,0.0,2.0,-0.4736328125,0.2708740234375,-0.43548583984375,0.71600341796875,0.01025390625,-0.927734375,0.41015625,0.4375,-0.375,0.0625
2.7599999999999634,0.0,-2.0,4.0,1.0,3.0,8.0,-1.0,1.0,-0.4736328125,0.27093505859375,-0.4354248046875,0.71600341796875,0.00634765625,-0.9443359375,0.404296875,0.25,-0.6875,0.375
2.7649999999999633,0.0,-2.0,4.0,1.0,3.0,8.0,-1.0,1.0,-0.4736328125,0.27093505859375,-0.4354248046875,0.71600341796875,0.00634765625,-0.9443359375,0.404296875,0.25,-0.6875,0.375
2.769999999999963,-1.0,1.0,4.0,-5.0,11.0,10.0,4.0,3.0,-0.4736328125,0.27093505859375,-0.4354248046875,0.71600341796875,0.00634765625,-0.9443359375,0.404296875,0.25,-0.6875,0.375
2.774999999999963,-1.0,1.0,4.0,-5.0,11.0,10.0,4.0,3.0,-0.4736328125,0.27093505859375,-0.4354248046875,0.71600341796875,0.00634765625,-0.9443359375,0.404296875,0.25,-0.6875,0.375
2.779999999999963,-3.0,-4.0,-13.0,-16.0,-11.0,0.0,0.0,0.0,-0.47357177734375,0.27099609375,-0.43511962890625,0.7161865234375,0.0126953125,-0.93896484375,0.4052734375,0.8125,-1.3125,1.3125
2.784999999999963,-1.0,-1.0,-1.0,-3.0,-4.0,-5.0,-2.0,-4.0,-0.47357177734375,0.27099609375,-0.43511962890625,0.7161865234375,0.0126953125,-0.93896484375,0.4052734375,0.8125,-1.3125,1.3125
2.7899999999999627,-1.0,-1.0,-1.0,-3.0,-4.0,-5.0,-2.0,-4.0,-0.47357177734375,0.27099609375,-0.43511962890625,0.7161865234375,0.0126953125,-0.93896484375,0.4052734375,0.8125,-1.3125,1.3125
2.7949999999999626,-1.0,-1.0,-1.0,-3.0,-4.0,-5.0,-2.0,-4.0,-0.47357177734375,0.27099609375,-0.43511962890625,0.7161865234375,0.0126953125,-0.93896484375,0.4052734375,0.8125,-1.3125,1.3125
2.7999999999999625,-1.0,-1.0,-1.0,-3.0,-4.0,-5.0,-2.0,-4.0,-0.47357177734375,0.27099609375,-0.43511962890625,0.7161865234375,0.0126953125,-0.93896484375,0.4052734375,0.8125,-1.3125,1.3125
2.8049999999999624,-1.0,-1.0,-2.0,-5.0,-2.0,-4.0,2.0,-1.0,-0.4735107421875,0.2711181640625,-0.43463134765625,0.716552734375,0.0146484375,-0.92822265625,0.408203125,0.4375,-1.4375,2.6875
2.8099999999999623,-1.0,-1.0,-2.0,-5.0,-2.0,-4.0,2.0,-1.0,-0.4735107421875,0.2711181640625,-0.43463134765625,0.716552734375,0.0146484375,-0.92822265625,0.408203125,0.4375,-1.4375,2.6875
2.814999999999962,-1.0,-1.0,-2.0,-5.0,-2.0,-4.0,2.0,-1.0,-0.4735107421875,0.2711181640625,-0.43463134765625,0.716552734375,0.0146484375,-0.92822265625,0.408203125,0.4375,-1.4375,2.6875
2.819999999999962,-1.0,-1.0,-2.0,-5.0,-2.0,-4.0,2.0,-1.0,-0.4735107421875,0.2711181640625,-0.43463134765625,0.716552734375,0.0146484375,-0.92822265625,0.408203125,0.4375,-1.4375,2.6875
2.824999999999962,0.0,-2.0,3.0,-11.0,6.0,0.0,4.0,0.0,-0.47344970703125,0.27142333984375,-0.4339599609375,0.71685791015625,0.0048828125,-0.93310546875,0.41015625,-0.5625,-1.5625,3.375
2.829999999999962,-1.0,-2.0,-3.0,-1.0,-1.0,3.0,-1.0,0.0,-0.47344970703125,0.27142333984375,-0.4339599609375,0.71685791015625,0.0048828125,-0.93310546875,0.41015625,-0.5625,-1.5625,3.375
2.8349999999999618,-1.0,-2.0,-3.0,-1.0,-1.0,3.0,-1.0,0.0,-0.47344970703125,0.27142333984375,-0.4339599609375,0.71685791015625,0.0048828125,-0.93310546875,0.41015625,-0.5625,-1.5625,3.375
2.8399999999999617,1.0,0.0,10.0,23.0,7.0,3.0,0.0,3.0,-0.47344970703125,0.27142333984375,-0.4339599609375,0.71685791015625,0.0048828125,-0.93310546875,0.41015625,-0.5625,-1.5625,3.375
2.8449999999999616,-3.0,-1.0,-5.0,-17.0,-4.0,-7.0,-3.0,-2.0,-0.4735107421875,0.27166748046875,-0.433349609375,0.717041015625,0.00732421875,-0.943359375,0.40185546875,-0.375,-1.3125,2.5625
2.8499999999999615,0.0,-2.0,-2.0,-10.0,16.0,9.0,-4.0,2.0,-0.4735107421875,0.27166748046875,-0.433349609375,0.717041015625,0.00732421875,-0.943359375,0.40185546875,-0.375,-1.3125,2.5625
2.8549999999999613,0.0,-2.0,-2.0,-10.0,16.0,9.0,-4.0,2.0,-0.4735107421875,0.27166748046875,-0.433349609375,0.717041015625,0.00732421875,-0.943359375,0.40185546875,-0.375,-1.3125,2.5625
2.8599999999999612,0.0,-2.0,-2.0,-10.0,16.0,9.0,-4.0,2.0,-0.4735107421875,0.27166748046875,-0.433349609375,0.717041015625,0.00732421875,-0.943359375,0.40185546875,-0.375,-1.3125,2.5625
2.864999999999961,-2.0,-2.0,-1.0,8.0,2.0,-5.0,-1.0,-2.0,-0.4732666015625,0.27191162109375,-0.4329833984375,0.71734619140625,0.00927734375,-0.9365234375,0.40625,0.9375,-0.1875,2.75
2.869999999999961,-2.0,-2.0,-1.0,8.0,2.0,-5.0,-1.0,-2.0,-0.4732666015625,0.27191162109375,-0.4329833984375,0.71734619140625,0.00927734375,-0.9365234375,0.40625,0.9375,-0.1875,2.75
2.874999999999961,-2.0,-2.0,-1.0,8.0,2.0,-5.0,-1.0,-2.0,-0.4732666015625,0.27191162109375,-0.4329833984375,0.71734619140625,0.00927734375,-0.9365234375,0.40625,0.9375,-0.1875,2.75
2.879999999999961,-2.0,-2.0,-1.0,8.0,2.0,-5.0,-1.0,-2.0,-0.4732666015625,0.27191162109375,-0.4329833984375,0.71734619140625,0.00927734375,-0.9365234375,0.40625,0.9375,-0.1875,2.75
2.8849999999999607,-1.0,-1.0,-3.0,10.0,-7.0,13.0,5.0,-2.0,-0.47265625,0.27203369140625,-0.4326171875,0.71795654296875,0.0146484375,-0.91748046875,0.41796875,2.5625,-0.125,3.875
2.8899999999999606,-1.0,1.0,6.0,-6.0,-6.0,5.0,-1.0,-1.0,-0.47265625,0.27203369140625,-0.4326171875,0.71795654296875,0.0146484375,-0.91748046875,0.41796875,2.5625,-0.125,3.875
2.8949999999999605,-1.0,1.0,6.0,-6.0,-6.0,5.0,-1.0,-1.0,-0.47265625,0.27203369140625,-0.4326171875,0.71795654296875,0.0146484375,-0.91748046875,0.41796875,2.5625,-0.125,3.875
2.8999999999999604,-1.0,1.0,6.0,-6.0,-6.0,5.0,-1.0,-1.0,-0.47265625,0.27203369140625,-0.4326171875,0.71795654296875,0.0146484375,-0.91748046875,0.41796875,2.5625,-0.125,3.875
2.9049999999999603,-1.0,1.0,6.0,-6.0,-6.0,5.0,-1.0,-1.0,-0.47265625,0.27203369140625,-0.4326171875,0.71795654296875,0.0146484375,-0.91748046875,0.41796875,2.5625,-0.125,3.875
2.90999999999996,-1.0,1.0,6.0,-6.0,-6.0,5.0,-1.0,-1.0,-0.47265625,0.27203369140625,-0.4326171875,0.71795654296875,0.0146484375,-0.91748046875,0.41796875,2.5625,-0.125,3.875
2.91499999999996,-1.0,-2.0,4.0,25.0,-10.0,-26.0,-4.0,-1.0,-0.47259521484375,0.27239990234375,-0.43194580078125,0.71820068359375,0.0302734375,-0.91845703125,0.40478515625,-0.9375,-0.125,5.25
2.91999999999996,-1.0,-2.0,4.0,25.0,-10.0,-26.0,-4.0,-1.0,-0.47259521484375,0.27239990234375,-0.43194580078125,0.71820068359375,0.0302734375,-0.91845703125,0.40478515625,-0.9375,-0.125,5.25
2.92499999999996,-1.0,1.0,4.0,6.0,1.0,-6.0,5.0,-2.0,-0.47259521484375,0.27239990234375,-0.43194580078125,0.71820068359375,0.0302734375,-0.91845703125,0.40478515625,-0.9375,-0.125,5.25
2.9299999999999597,-1.0,1.0,4.0,6.0,1.0,-6.0,5.0,-2.0,-0.47259521484375,0.27239990234375,-0.43194580078125,0.71820068359375,0.0302734375,-0.91845703125,0.40478515625,-0.9375,-0.125,5.25
2.9349999999999596,-1.0,1.0,4.0,6.0,1.0,-6.0,5.0,-2.0,-0.47259521484375,0.27239990234375,-0.43194580078125,0.71820068359375,0.0302734375,-0.91845703125,0.40478515625,-0.9375,-0.125,5.25
2.9399999999999595,-1.0,1.0,4.0,6.0,1.0,-6.0,5.0,-2.0,-0.47259521484375,0.27239990234375,-0.43194580078125,0.71820068359375,0.0302734375,-0.91845703125,0.40478515625,-0.9375,-0.125,5.25
2.9449999999999594,-2.0,-5.0,-2.0,26.0,-2.0,-3.0,4.0,-2.0,-0.4727783203125,0.2730712890625,-0.43121337890625,0.71826171875,0.033203125,-0.9326171875,0.3984375,-2.6875,0.625,5.75
2.9499999999999593,-2.0,-5.0,-2.0,26.0,-2.0,-3.0,4.0,-2.0,-0.4727783203125,0.2730712890625,-0.43121337890625,0.71826171875,0.033203125,-0.9326171875,0.3984375,-2.6875,0.625,5.75
2.954999999999959,-2.0,-5.0,-2.0,26.0,-2.0,-3.0,4.0,-2.0,-0.4727783203125,0.2730712890625,-0.43121337890625,0.71826171875,0.033203125,-0.9326171875,0.3984375,-2.6875,0.625,5.75
2.959999999999959,-2.0,-5.0,-2.0,26.0,-2.0,-3.0,4.0,-2.0,-0.4727783203125,0.2730712890625,-0.43121337890625,0.71826171875,0.033203125,-0.9326171875,0.3984375,-2.6875,0.625,5.75
2.964999999999959,1.0,1.0,7.0,-3.0,24.0,16.0,6.0,2.0,-0.47308349609375,0.27386474609375,-0.4306640625,0.71807861328125,0.037109375,-0.94140625,0.380859375,-2.6875,2.125,5.0625
2.969999999999959,-2.0,0.0,-2.0,-1.0,-4.0,7.0,-5.0,-1.0,-0.47308349609375,0.27386474609375,-0.4306640625,0.71807861328125,0.037109375,-0.94140625,0.380859375,-2.6875,2.125,5.0625
2.974999999999959,-2.0,0.0,-2.0,-1.0,-4.0,7.0,-5.0,-1.0,-0.47308349609375,0.27386474609375,-0.4306640625,0.71807861328125,0.037109375,-0.94140625,0.380859375,-2.6875,2.125,5.0625
2.9799999999999587,-2.0,0.0,-2.0,-1.0,-4.0,7.0,-5.0,-1.0,-0.47308349609375,0.27386474609375,-0.4306640625,0.71807861328125,0.037109375,-0.94140625,0.380859375,-2.6875,2.125,5.0625
2.9849999999999586,-2.0,0.0,-2.0,-1.0,-4.0,7.0,-5.0,-1.0,-0.47308349609375,0.27386474609375,-0.4306640625,0.71807861328125,0.037109375,-0.94140625,0.380859375,-2.6875,2.125,5.0625
2.9899999999999585,1.0,3.0,14.0,10.0,12.0,3.0,3.0,2.0,-0.47308349609375,0.27386474609375,-0.4306640625,0.71807861328125,0.037109375,-0.94140625,0.380859375,-2.6875,2.125,5.0625
2.9949999999999584,1.0,3.0,14.0,10.0,12.0,3.0,3.0,2.0,-0.4732666015625,0.27471923828125,-0.43035888671875,0.71783447265625,0.03759765625,-0.916015625,0.3779296875,-2.5625,3.3125,4.3125
2.9999999999999583,-5.0,-5.0,-6.0,-7.0,-8.0,6.0,3.0,-3.0,-0.4732666015625,0.27471923828125,-0.43035888671875,0.71783447265625,0.03759765625,-0.916015625,0.3779296875,-2.5625,3.3125,4.3125
3.004999999999958,-5.0,-5.0,-6.0,-7.0,-8.0,6.0,3.0,-3.0,-0.4732666015625,0.27471923828125,-0.43035888671875,0.71783447265625,0.03759765625,-0.916015625,0.3779296875,-2.5625,3.3125,4.3125
3.009999999999958,-5.0,-5.0,-6.0,-7.0,-8.0,6.0,3.0,-3.0,-0.4732666015625,0.27471923828125,-0.43035888671875,0.71783447265625,0.03759765625,-0.916015625,0.3779296875,-2.5625,3.3125,4.3125
3.014999999999958,-5.0,-5.0,-6.0,-7.0,-8.0,6.0,3.0,-3.0,-0.4732666015625,0.27471923828125,-0.43035888671875,0.71783447265625,0.03759765625,-0.916015625,0.3779296875,-2.5625,3.3125,4.3125
3.019999999999958,-5.0,-5.0,-6.0,-7.0,-8.0,6.0,3.0,-3.0,-0.4732666015625,0.27471923828125,-0.43035888671875,0.71783447265625,0.03759765625,-0.916015625,0.3779296875,-2.5625,3.3125,4.3125
3.0249999999999577,0.0,1.0,-6.0,-13.0,1.0,-2.0,1.0,1.0,-0.47393798828125,0.275634765625,-0.4298095703125,0.7174072265625,0.04248046875,-0.935546875,0.38525390625,-5.4375,2.0,4.5
3.0299999999999576,0.0,1.0,-6.0,-13.0,1.0,-2.0,1.0,1.0,-0.47393798828125,0.275634765625,-0.4298095703125,0.7174072265625,0.04248046875,-0.935546875,0.38525390625,-5.4375,2.0,4.5
3.0349999999999575,0.0,1.0,-6.0,-13.0,1.0,-2.0,1.0,1.0,-0.47393798828125,0.275634765625,-0.4298095703125,0.7174072265625,0.04248046875,-0.935546875,0.38525390625,-5.4375,2.0,4.5
3.0399999999999574,-3.0,-4.0,-11.0,-38.0,-8.0,-7.0,-3.0,-2.0,-0.47467041015625,0.27606201171875,-0.42926025390625,0.717041015625,0.03125,-0.94287109375,0.39599609375,-5.625,-0.3125,2.6875
3.0449999999999573,-3.0,-4.0,-11.0,-38.0,-8.0,-7.0,-3.0,-2.0,-0.47467041015625,0.27606201171875,-0.42926025390625,0.717041015625,0.03125,-0.94287109375,0.39599609375,-5.625,-0.3125,2.6875
3.049999999999957,0.0,-2.0,0.0,5.0,-6.0,-7.0,-4.0,-3.0,-0.47467041015625,0.27606201171875,-0.42926025390625,0.717041015625,0.03125,-0.94287109375,0.39599609375,-5.625,-0.3125,2.6875
3.054999999999957,0.0,-2.0,0.0,5.0,-6.0,-7.0,-4.0,-3.0,-0.47467041015625,0.27606201171875,-0.42926025390625,0.717041015625,0.03125,-0.94287109375,0.39599609375,-5.625,-0.3125,2.6875
3.059999999999957,0.0,-2.0,0.0,5.0,-6.0,-7.0,-4.0,-3.0,-0.47467041015625,0.27606201171875,-0.42926025390625,0.717041015625,0.03125,-0.94287109375,0.39599609375,-5.625,-0.3125,2.6875
3.064999999999957,0.0,-2.0,0.0,5.0,-6.0,-7.0,-4.0,-3.0,-0.47467041015625,0.27606201171875,-0.42926025390625,0.717041015625,0.03125,-0.94287109375,0.39599609375,-5.625,-0.3125,2.6875
3.0699999999999568,-3.0,-4.0,-9.0,-4.0,-11.0,0.0,0.0,-3.0,-0.4754638671875,0.2760009765625,-0.42901611328125,0.71673583984375,0.0234375,-0.953125,0.4072265625,-4.0625,-2.25,-0.625
3.0749999999999567,-3.0,-4.0,-9.0,-4.0,-11.0,0.0,0.0,-3.0,-0.4754638671875,0.2760009765625,-0.42901611328125,0.71673583984375,0.0234375,-0.953125,0.4072265625,-4.0625,-2.25,-0.625
3.0799999999999566,0.0,0.0,-2.0,-17.0,2.0,-8.0,-4.0,-2.0,-0.4754638671875,0.2760009765625,-0.42901611328125,0.71673583984375,0.0234375,-0.953125,0.4072265625,-4.0625,-2.25,-0.625
3.0849999999999564,0.0,0.0,-2.0,-17.0,2.0,-8.0,-4.0,-2.0,-0.4754638671875,0.2760009765625,-0.42901611328125,0.71673583984375,0.0234375,-0.953125,0.4072265625,-4.0625,-2.25,-0.625
3.0899999999999563,0.0,0.0,-2.0,-17.0,2.0,-8.0,-4.0,-2.0,-0.4754638671875,0.2760009765625,-0.42901611328125,0.71673583984375,0.0234375,-0.953125,0.4072265625,-4.0625,-2.25,-0.625
3.0949999999999562,0.0,0.0,-2.0,-17.0,2.0,-8.0,-4.0,-2.0,-0.4754638671875,0.2760009765625,-0.42901611328125,0.71673583984375,0.0234375,-0.953125,0.4072265625,-4.0625,-2.25,-0.625
3.099999999999956,0.0,-3.0,-10.0,-29.0,-11.0,-2.0,-10.0,-1.0,-0.4754638671875,0.2760009765625,-0.42901611328125,0.71673583984375,0.0234375,-0.953125,0.4072265625,-4.0625,-2.25,-0.625
3.104999999999956,-3.0,-6.0,-19.0,-41.0,-13.0,1.0,0.0,-2.0,-0.4761962890625,0.27520751953125,-0.42877197265625,0.7166748046875,0.00732421875,-0.9296875,0.41552734375,-2.875,-5.6875,-2.875
3.109999999999956,-3.0,-6.0,-19.0,-41.0,-13.0,1.0,0.0,-2.0,-0.4761962890625,0.27520751953125,-0.42877197265625,0.7166748046875,0.00732421875,-0.9296875,0.41552734375,-2.875,-5.6875,-2.875
3.114999999999956,-3.0,-6.0,-19.0,-41.0,-13.0,1.0,0.0,-2.0,-0.4761962890625,0.27520751953125,-0.42877197265625,0.7166748046875,0.00732421875,-0.9296875,0.41552734375,-2.875,-5.6875,-2.875
3.1199999999999557,0.0,0.0,4.0,16.0,11.0,7.0,2.0,0.0,-0.4761962890625,0.27520751953125,-0.42877197265625,0.7166748046875,0.00732421875,-0.9296875,0.41552734375,-2.875,-5.6875,-2.875
3.1249999999999556,0.0,0.0,4.0,16.0,11.0,7.0,2.0,0.0,-0.4761962890625,0.27520751953125,-0.42877197265625,0.7166748046875,0.00732421875,-0.9296875,0.41552734375,-2.875,-5.6875,-2.875
3.1299999999999555,0.0,0.0,2.0,6.0,3.0,-1.0,-4.0,-1.0,-0.47772216796875,0.27423095703125,-0.4283447265625,0.71630859375,0.0146484375,-0.92822265625,0.41015625,-6.25,-8.5,-4.125
3.1349999999999554,0.0,0.0,2.0,6.0,3.0,-1.0,-4.0,-1.0,-0.47772216796875,0.27423095703125,-0.4283447265625,0.71630859375,0.0146484375,-0.92822265625,0.41015625,-6.25,-8.5,-4.125
3.1399999999999553,0.0,0.0,2.0,6.0,3.0,-1.0,-4.0,-1.0,-0.47772216796875,0.27423095703125,-0.4283447265625,0.71630859375,0.0146484375,-0.92822265625,0.41015625,-6.25,-8.5,-4.125
3.144999999999955,0.0,0.0,2.0,6.0,3.0,-1.0,-4.0,-1.0,-0.47772216796875,0.27423095703125,-0.4283447265625,0.71630859375,0.0146484375,-0.92822265625,0.41015625,-6.25,-8.5,-4.125
3.149999999999955,-2.0,-4.0,-5.0,-7.0,-4.0,-4.0,1.0,-4.0,-0.47772216796875,0.27423095703125,-0.4283447265625,0.71630859375,0.0146484375,-0.92822265625,0.41015625,-6.25,-8.5,-4.125
3.154999999999955,-2.0,-4.0,-5.0,-7.0,-4.0,-4.0,1.0,-4.0,-0.47894287109375,0.2730712890625,-0.4278564453125,0.71624755859375,0.00927734375,-0.91845703125,0.41455078125,-4.625,-9.25,-4.1875
3.159999999999955,0.0,0.0,3.0,21.0,-7.0,5.0,0.0,-2.0,-0.47894287109375,0.2730712890625,-0.4278564453125,0.71624755859375,0.00927734375,-0.91845703125,0.41455078125,-4.625,-9.25,-4.1875
3.1649999999999547,0.0,0.0,3.0,21.0,-7.0,5.0,0.0,-2.0,-0.47894287109375,0.2730712890625,-0.4278564453125,0.71624755859375,0.00927734375,-0.91845703125,0.41455078125,-4.625,-9.25,-4.1875
3.1699999999999546,0.0,0.0,3.0,21.0,-7.0,5.0,0.0,-2.0,-0.47894287109375,0.2730712890625,-0.4278564453125,0.71624755859375,0.00927734375,-0.91845703125,0.41455078125,-4.625,-9.25,-4.1875
3.1749999999999545,0.0,0.0,3.0,21.0,-7.0,5.0,0.0,-2.0,-0.47894287109375,0.2730712890625,-0.4278564453125,0.71624755859375,0.00927734375,-0.91845703125,0.41455078125,-4.625,-9.25,-4.1875
3.1799999999999544,-1.0,-2.0,-6.0,11.0,1.0,1.0,-1.0,1.0,-0.47967529296875,0.271728515625,-0.4273681640625,0.716552734375,0.0048828125,-0.90380859375,0.4033203125,-1.0,-9.8125,-2.9375
3.1849999999999543,-1.0,-2.0,-6.0,11.0,1.0,1.0,-1.0,1.0,-0.47967529296875,0.271728515625,-0.4273681640625,0.716552734375,0.0048828125,-0.90380859375,0.4033203125,-1.0,-9.8125,-2.9375
3.189999999999954,-1.0,-2.0,-6.0,11.0,1.0,1.0,-1.0,1.0,-0.47967529296875,0.271728515625,-0.4273681640625,0.716552734375,0.0048828125,-0.90380859375,0.4033203125,-1.0,-9.8125,-2.9375
3.194999999999954,-1.0,-2.0,-6.0,11.0,1.0,1.0,-1.0,1.0,-0.48028564453125,0.27056884765625,-0.4267578125,0.7169189453125,-0.00634765625,-0.89599609375,0.39697265625,-0.5,-9.25,-2.5
3.199999999999954,1.0,0.0,3.0,12.0,3.0,8.0,2.0,0.0,-0.48028564453125,0.27056884765625,-0.4267578125,0.7169189453125,-0.00634765625,-0.89599609375,0.39697265625,-0.5,-9.25,-2.5
3.204999999999954,-1.0,-1.0,5.0,14.0,-3.0,-34.0,-16.0,0.0,-0.48028564453125,0.27056884765625,-0.4267578125,0.7169189453125,-0.00634765625,-0.89599609375,0.39697265625,-0.5,-9.25,-2.5
3.209999999999954,-1.0,-1.0,5.0,14.0,-3.0,-34.0,-16.0,0.0,-0.48028564453125,0.27056884765625,-0.4267578125,0.7169189453125,-0.00634765625,-0.89599609375,0.39697265625,-0.5,-9.25,-2.5
3.2149999999999537,-1.0,-1.0,5.0,14.0,-3.0,-34.0,-16.0,0.0,-0.48028564453125,0.27056884765625,-0.4267578125,0.7169189453125,-0.00634765625,-0.89599609375,0.39697265625,-0.5,-9.25,-2.5
3.2199999999999536,-2.0,-1.0,2.0,18.0,-20.0,-15.0,9.0,1.0,-0.480712890625,0.26947021484375,-0.42633056640625,0.71734619140625,-0.001953125,-0.89013671875,0.38916015625,0.75,-7.9375,-2.375
3.2249999999999535,1.0,-1.0,-1.0,-22.0,4.0,20.0,1.0,-1.0,-0.480712890625,0.26947021484375,-0.42633056640625,0.71734619140625,-0.001953125,-0.89013671875,0.38916015625,0.75,-7.9375,-2.375
3.2299999999999534,1.0,-1.0,-1.0,-22.0,4.0,20.0,1.0,-1.0,-0.480712890625,0.26947021484375,-0.42633056640625,0.71734619140625,-0.001953125,-0.89013671875,0.38916015625,0.75,-7.9375,-2.375
3.2349999999999532,1.0,-1.0,-1.0,-22.0,4.0,20.0,1.0,-1.0,-0.480712890625,0.26947021484375,-0.42633056640625,0.71734619140625,-0.001953125,-0.89013671875,0.38916015625,0.75,-7.9375,-2.375
3.239999999999953,1.0,-1.0,-1.0,-22.0,4.0,20.0,1.0,-1.0,-0.48095703125,0.26873779296875,-0.4261474609375,0.717529296875,0.0048828125,-0.89013671875,0.3837890625,0.9375,-5.1875,-2.5625
3.244999999999953,-1.0,-3.0,-2.0,3.0,1.0,2.0,-3.0,-2.0,-0.48095703125,0.26873779296875,-0.4261474609375,0.717529296875,0.0048828125,-0.89013671875,0.3837890625,0.9375,-5.1875,-2.5625
3.249999999999953,-3.0,-2.0,6.0,14.0,-3.0,1.0,-2.0,-2.0,-0.48095703125,0.26873779296875,-0.4261474609375,0.717529296875,0.0048828125,-0.89013671875,0.3837890625,0.9375,-5.1875,-2.5625
3.254999999999953,-3.0,-2.0,6.0,14.0,-3.0,1.0,-2.0,-2.0,-0.48095703125,0.26873779296875,-0.4261474609375,0.717529296875,0.0048828125,-0.89013671875,0.3837890625,0.9375,-5.1875,-2.5625
3.2599999999999527,-3.0,-2.0,6.0,14.0,-3.0,1.0,-2.0,-2.0,-0.4815673828125,0.26861572265625,-0.42596435546875,0.71728515625,0.0205078125,-0.90478515625,0.36669921875,-2.25,-2.125,-1.5625
3.2649999999999526,-3.0,-2.0,6.0,14.0,-3.0,1.0,-2.0,-2.0,-0.4815673828125,0.26861572265625,-0.42596435546875,0.71728515625,0.0205078125,-0.90478515625,0.36669921875,-2.25,-2.125,-1.5625
3.2699999999999525,-3.0,-1.0,5.0,14.0,5.0,-5.0,1.0,0.0,-0.4815673828125,0.26861572265625,-0.42596435546875,0.71728515625,0.0205078125,-0.90478515625,0.36669921875,-2.25,-2.125,-1.5625
3.2749999999999524,-3.0,-1.0,5.0,14.0,5.0,-5.0,1.0,0.0,-0.4815673828125,0.26861572265625,-0.42596435546875,0.71728515625,0.0205078125,-0.90478515625,0.36669921875,-2.25,-2.125,-1.5625
3.2799999999999523,-3.0,-1.0,5.0,14.0,5.0,-5.0,1.0,0.0,-0.4815673828125,0.26861572265625,-0.42596435546875,0.71728515625,0.0205078125,-0.90478515625,0.36669921875,-2.25,-2.125,-1.5625
