0.005,-4.0,-3.0,-2.0,-11.0,-2.0,-5.0,-2.0,-4.0,0.370361328125,0.52606201171875,-0.65020751953125,-0.40411376953125,-0.05517578125,-1.00341796875,0.15283203125,3.75,-3.0625,2.8125
0.01,-1.0,-3.0,1.0,-6.0,2.0,-4.0,15.0,-1.0,0.370361328125,0.52606201171875,-0.65020751953125,-0.40411376953125,-0.05517578125,-1.00341796875,0.15283203125,3.75,-3.0625,2.8125
0.015,0.0,-7.0,-7.0,-1.0,0.0,3.0,1.0,0.0,0.370361328125,0.52593994140625,-0.650634765625,-0.40362548828125,-0.04931640625,-0.99072265625,0.1552734375,1.6875,-2.3125,3.5
0.02,0.0,-7.0,-7.0,-1.0,0.0,3.0,1.0,0.0,0.370361328125,0.52593994140625,-0.650634765625,-0.40362548828125,-0.04931640625,-0.99072265625,0.1552734375,1.6875,-2.3125,3.5
0.025,0.0,-7.0,-7.0,-1.0,0.0,3.0,1.0,0.0,0.370361328125,0.52593994140625,-0.650634765625,-0.40362548828125,-0.04931640625,-0.99072265625,0.1552734375,1.6875,-2.3125,3.5
0.030000000000000002,-1.0,0.0,0.0,-15.0,-3.0,0.0,-5.0,-1.0,0.37060546875,0.5260009765625,-0.65087890625,-0.40289306640625,-0.0625,-1.009765625,0.14599609375,0.6875,-2.1875,3.75
0.035,-1.0,0.0,0.0,-15.0,-3.0,0.0,-5.0,-1.0,0.37060546875,0.5260009765625,-0.65087890625,-0.40289306640625,-0.0625,-1.009765625,0.14599609375,0.6875,-2.1875,3.75
0.04,-1.0,1.0,1.0,-7.0,-10.0,-1.0,26.0,2.0,0.37060546875,0.5260009765625,-0.65087890625,-0.40289306640625,-0.0625,-1.009765625,0.14599609375,0.6875,-2.1875,3.75
0.045,-1.0,1.0,1.0,-7.0,-10.0,-1.0,26.0,2.0,0.37060546875,0.5260009765625,-0.65087890625,-0.40289306640625,-0.0625,-1.009765625,0.14599609375,0.6875,-2.1875,3.75
0.049999999999999996,-1.0,-3.0,-5.0,-6.0,6.0,-2.0,1.0,-1.0,0.37060546875,0.5260009765625,-0.65087890625,-0.40289306640625,-0.0625,-1.009765625,0.14599609375,0.6875,-2.1875,3.75
0.05499999999999999,-1.0,-3.0,-5.0,-6.0,6.0,-2.0,1.0,-1.0,0.37042236328125,0.52557373046875,-0.65155029296875,-0.40252685546875,-0.064453125,-0.99560546875,0.15185546875,4.5,-2.25,2.875
0.05999999999999999,0.0,1.0,8.0,24.0,3.0,6.0,-20.0,-1.0,0.37042236328125,0.52557373046875,-0.65155029296875,-0.40252685546875,-0.064453125,-0.99560546875,0.15185546875,4.5,-2.25,2.875
0.06499999999999999,0.0,1.0,8.0,24.0,3.0,6.0,-20.0,-1.0,0.37042236328125,0.52557373046875,-0.65155029296875,-0.40252685546875,-0.064453125,-0.99560546875,0.15185546875,4.5,-2.25,2.875
0.06999999999999999,0.0,1.0,8.0,24.0,3.0,6.0,-20.0,-1.0,0.37042236328125,0.52557373046875,-0.65155029296875,-0.40252685546875,-0.064453125,-0.99560546875,0.15185546875,4.5,-2.25,2.875
0.075,0.0,1.0,8.0,24.0,3.0,6.0,-20.0,-1.0,0.37042236328125,0.52557373046875,-0.65155029296875,-0.40252685546875,-0.064453125,-0.99560546875,0.15185546875,4.5,-2.25,2.875
0.08,0.0,1.0,2.0,9.0,10.0,6.0,-3.0,-3.0,0.37042236328125,0.52545166015625,-0.65185546875,-0.40216064453125,-0.06201171875,-0.98388671875,0.1552734375,1.8125,-1.75,2.4375
0.085,-2.0,0.0,1.0,-37.0,-3.0,-15.0,-9.0,-2.0,0.37042236328125,0.52545166015625,-0.65185546875,-0.40216064453125,-0.06201171875,-0.98388671875,0.1552734375,1.8125,-1.75,2.4375
0.09000000000000001,-2.0,0.0,1.0,-37.0,-3.0,-15.0,-9.0,-2.0,0.37042236328125,0.52545166015625,-0.65185546875,-0.40216064453125,-0.06201171875,-0.98388671875,0.1552734375,1.8125,-1.75,2.4375
0.09500000000000001,-2.0,0.0,1.0,-37.0,-3.0,-15.0,-9.0,-2.0,0.37060546875,0.52545166015625,-0.65216064453125,-0.40167236328125,-0.0625,-0.97998046875,0.1611328125,0.3125,-1.5625,2.9375
0.10000000000000002,-2.0,0.0,1.0,-37.0,-3.0,-15.0,-9.0,-2.0,0.37060546875,0.52545166015625,-0.65216064453125,-0.40167236328125,-0.0625,-0.97998046875,0.1611328125,0.3125,-1.5625,2.9375
0.10500000000000002,0.0,-3.0,-6.0,-5.0,-1.0,6.0,-1.0,-1.0,0.37060546875,0.52545166015625,-0.65216064453125,-0.40167236328125,-0.0625,-0.97998046875,0.1611328125,0.3125,-1.5625,2.9375
0.11000000000000003,0.0,-3.0,-6.0,-5.0,-1.0,6.0,-1.0,-1.0,0.37060546875,0.52545166015625,-0.65216064453125,-0.40167236328125,-0.0625,-0.97998046875,0.1611328125,0.3125,-1.5625,2.9375
0.11500000000000003,1.0,2.0,2.0,21.0,0.0,0.0,-1.0,1.0,0.37060546875,0.52545166015625,-0.65216064453125,-0.40167236328125,-0.0625,-0.97998046875,0.1611328125,0.3125,-1.5625,2.9375
0.12000000000000004,1.0,2.0,2.0,21.0,0.0,0.0,-1.0,1.0,0.37060546875,0.52545166015625,-0.65216064453125,-0.40167236328125,-0.0625,-0.97998046875,0.1611328125,0.3125,-1.5625,2.9375
0.12500000000000003,-3.0,-1.0,-6.0,-13.0,-25.0,-8.0,-5.0,-4.0,0.37060546875,0.52545166015625,-0.65216064453125,-0.40167236328125,-0.0625,-0.97998046875,0.1611328125,0.3125,-1.5625,2.9375
0.13000000000000003,-3.0,-1.0,-6.0,-13.0,-25.0,-8.0,-5.0,-4.0,0.37060546875,0.52545166015625,-0.65216064453125,-0.40167236328125,-0.0625,-0.97998046875,0.1611328125,0.3125,-1.5625,2.9375
0.13500000000000004,-1.0,-2.0,-2.0,-7.0,18.0,3.0,-6.0,0.0,0.37078857421875,0.52545166015625,-0.65240478515625,-0.4010009765625,-0.0576171875,-0.99169921875,0.16357421875,-0.4375,-1.8125,3.875
0.14000000000000004,-1.0,-2.0,-2.0,-7.0,18.0,3.0,-6.0,0.0,0.37078857421875,0.52545166015625,-0.65240478515625,-0.4010009765625,-0.0576171875,-0.99169921875,0.16357421875,-0.4375,-1.8125,3.875
0.14500000000000005,-1.0,-2.0,-2.0,-7.0,18.0,3.0,-6.0,0.0,0.37078857421875,0.52545166015625,-0.65240478515625,-0.4010009765625,-0.0576171875,-0.99169921875,0.16357421875,-0.4375,-1.8125,3.875
0.15000000000000005,-1.0,-2.0,-2.0,-7.0,18.0,3.0,-6.0,0.0,0.37078857421875,0.52545166015625,-0.65240478515625,-0.4010009765625,-0.0576171875,-0.99169921875,0.16357421875,-0.4375,-1.8125,3.875
0.15500000000000005,-2.0,-2.0,-1.0,8.0,0.0,13.0,0.0,0.0,0.37103271484375,0.52545166015625,-0.65264892578125,-0.400390625,-0.05712890625,-0.99365234375,0.16015625,-0.0625,-1.4375,4.1875
0.16000000000000006,-2.0,-2.0,-1.0,8.0,0.0,13.0,0.0,0.0,0.37103271484375,0.52545166015625,-0.65264892578125,-0.400390625,-0.05712890625,-0.99365234375,0.16015625,-0.0625,-1.4375,4.1875
0.16500000000000006,-3.0,-4.0,-9.0,-9.0,-4.0,-12.0,-10.0,-5.0,0.37103271484375,0.52545166015625,-0.65264892578125,-0.400390625,-0.05712890625,-0.99365234375,0.16015625,-0.0625,-1.4375,4.1875
0.17000000000000007,-3.0,-4.0,-9.0,-9.0,-4.0,-12.0,-10.0,-5.0,0.37103271484375,0.52545166015625,-0.65264892578125,-0.400390625,-0.05712890625,-0.99365234375,0.16015625,-0.0625,-1.4375,4.1875
0.17500000000000007,-3.0,-4.0,-9.0,-9.0,-4.0,-12.0,-10.0,-5.0,0.37103271484375,0.52545166015625,-0.65264892578125,-0.400390625,-0.05712890625,-0.99365234375,0.16015625,-0.0625,-1.4375,4.1875
0.18000000000000008,-3.0,-4.0,-9.0,-9.0,-4.0,-12.0,-10.0,-5.0,0.37103271484375,0.52545166015625,-0.65264892578125,-0.400390625,-0.05712890625,-0.99365234375,0.16015625,-0.0625,-1.4375,4.1875
0.18500000000000008,0.0,-1.0,-1.0,4.0,11.0,4.0,1.0,-2.0,0.37152099609375,0.525390625,-0.65283203125,-0.3997802734375,-0.05712890625,-0.99365234375,0.1591796875,-0.875,-0.125,4.75
0.19000000000000009,0.0,-1.0,-1.0,4.0,11.0,4.0,1.0,-2.0,0.37152099609375,0.525390625,-0.65283203125,-0.3997802734375,-0.05712890625,-0.99365234375,0.1591796875,-0.875,-0.125,4.75
0.1950000000000001,-2.0,-5.0,-16.0,5.0,-4.0,-13.0,-1.0,-3.0,0.37152099609375,0.525390625,-0.65283203125,-0.3997802734375,-0.05712890625,-0.99365234375,0.1591796875,-0.875,-0.125,4.75
0.2000000000000001,-2.0,-2.0,-5.0,5.0,-9.0,-24.0,-11.0,-2.0,0.37152099609375,0.525390625,-0.65283203125,-0.3997802734375,-0.05712890625,-0.99365234375,0.1591796875,-0.875,-0.125,4.75
0.2050000000000001,-2.0,-2.0,-5.0,5.0,-9.0,-24.0,-11.0,-2.0,0.37152099609375,0.525390625,-0.65283203125,-0.3997802734375,-0.05712890625,-0.99365234375,0.1591796875,-0.875,-0.125,4.75
0.2100000000000001,-2.0,-2.0,-5.0,5.0,-9.0,-24.0,-11.0,-2.0,0.3719482421875,0.52508544921875,-0.653076171875,-0.3992919921875,-0.0654296875,-0.99560546875,0.1708984375,0.25,0.1875,4.4375
0.2150000000000001,1.0,2.0,4.0,7.0,-1.0,3.0,-2.0,1.0,0.3719482421875,0.52508544921875,-0.653076171875,-0.3992919921875,-0.0654296875,-0.99560546875,0.1708984375,0.25,0.1875,4.4375
0.2200000000000001,1.0,2.0,4.0,7.0,-1.0,3.0,-2.0,1.0,0.3719482421875,0.52508544921875,-0.653076171875,-0.3992919921875,-0.0654296875,-0.99560546875,0.1708984375,0.25,0.1875,4.4375
0.22500000000000012,1.0,2.0,4.0,7.0,-1.0,3.0,-2.0,1.0,0.3719482421875,0.52508544921875,-0.653076171875,-0.3992919921875,-0.0654296875,-0.99560546875,0.1708984375,0.25,0.1875,4.4375
0.23000000000000012,1.0,2.0,4.0,7.0,-1.0,3.0,-2.0,1.0,0.3719482421875,0.52508544921875,-0.653076171875,-0.3992919921875,-0.0654296875,-0.99560546875,0.1708984375,0.25,0.1875,4.4375
0.23500000000000013,-4.0,0.0,-1.0,-1.0,6.0,4.0,0.0,0.0,0.37213134765625,0.52484130859375,-0.65350341796875,-0.3988037109375,-0.064453125,-0.9755859375,0.1796875,-0.1875,-0.875,4.0625
0.24000000000000013,-4.0,0.0,-1.0,-1.0,6.0,4.0,0.0,0.0,0.37213134765625,0.52484130859375,-0.65350341796875,-0.3988037109375,-0.064453125,-0.9755859375,0.1796875,-0.1875,-0.875,4.0625
0.24500000000000013,0.0,2.0,9.0,39.0,-9.0,-19.0,-2.0,1.0,0.37213134765625,0.52484130859375,-0.65350341796875,-0.3988037109375,-0.064453125,-0.9755859375,0.1796875,-0.1875,-0.875,4.0625
0.2500000000000001,0.0,2.0,9.0,39.0,-9.0,-19.0,-2.0,1.0,0.37213134765625,0.52484130859375,-0.65350341796875,-0.3988037109375,-0.064453125,-0.9755859375,0.1796875,-0.1875,-0.875,4.0625
0.2550000000000001,0.0,2.0,9.0,39.0,-9.0,-19.0,-2.0,1.0,0.37213134765625,0.52484130859375,-0.65350341796875,-0.3988037109375,-0.064453125,-0.9755859375,0.1796875,-0.1875,-0.875,4.0625
0.2600000000000001,0.0,2.0,9.0,39.0,-9.0,-19.0,-2.0,1.0,0.37213134765625,0.52484130859375,-0.65350341796875,-0.3988037109375,-0.064453125,-0.9755859375,0.1796875,-0.1875,-0.875,4.0625
0.2650000000000001,-2.0,-1.0,-8.0,-11.0,1.0,38.0,6.0,-1.0,0.3721923828125,0.524658203125,-0.6539306640625,-0.39825439453125,-0.06689453125,-0.99072265625,0.177734375,0.25,-2.25,3.5625
0.27000000000000013,-2.0,-1.0,-8.0,-11.0,1.0,38.0,6.0,-1.0,0.3721923828125,0.524658203125,-0.6539306640625,-0.39825439453125,-0.06689453125,-0.99072265625,0.177734375,0.25,-2.25,3.5625
0.27500000000000013,0.0,0.0,0.0,0.0,-13.0,4.0,3.0,0.0,0.3721923828125,0.524658203125,-0.6539306640625,-0.39825439453125,-0.06689453125,-0.99072265625,0.177734375,0.25,-2.25,3.5625
0.28000000000000014,0.0,0.0,0.0,0.0,-13.0,4.0,3.0,0.0,0.3721923828125,0.524658203125,-0.6539306640625,-0.39825439453125,-0.06689453125,-0.99072265625,0.177734375,0.25,-2.25,3.5625
0.28500000000000014,0.0,0.0,0.0,0.0,-13.0,4.0,3.0,0.0,0.3721923828125,0.524658203125,-0.6539306640625,-0.39825439453125,-0.06689453125,-0.99072265625,0.177734375,0.25,-2.25,3.5625
0.29000000000000015,0.0,-1.0,1.0,-4.0,20.0,36.0,0.0,-3.0,0.37225341796875,0.52490234375,-0.6539306640625,-0.3978271484375,-0.05224609375,-0.99853515625,0.16943359375,-1.4375,-1.25,2.5625
0.29500000000000015,0.0,-1.0,1.0,-4.0,20.0,36.0,0.0,-3.0,0.37225341796875,0.52490234375,-0.6539306640625,-0.3978271484375,-0.05224609375,-0.99853515625,0.16943359375,-1.4375,-1.25,2.5625
0.30000000000000016,0.0,-1.0,1.0,-4.0,20.0,36.0,0.0,-3.0,0.37225341796875,0.52490234375,-0.6539306640625,-0.3978271484375,-0.05224609375,-0.99853515625,0.16943359375,-1.4375,-1.25,2.5625
0.30500000000000016,0.0,-1.0,-2.0,-6.0,-11.0,-26.0,1.0,2.0,0.3721923828125,0.52471923828125,-0.6541748046875,-0.3978271484375,-0.06201171875,-1.00244140625,0.17138671875,1.625,-0.5,1.375
0.31000000000000016,-1.0,-1.0,0.0,-16.0,-8.0,-9.0,-3.0,-3.0,0.3721923828125,0.52471923828125,-0.6541748046875,-0.3978271484375,-0.06201171875,-1.00244140625,0.17138671875,1.625,-0.5,1.375
0.31500000000000017,-1.0,-1.0,0.0,-16.0,-8.0,-9.0,-3.0,-3.0,0.3721923828125,0.52471923828125,-0.6541748046875,-0.3978271484375,-0.06201171875,-1.00244140625,0.17138671875,1.625,-0.5,1.375
0.3200000000000002,1.0,2.0,5.0,5.0,0.0,-5.0,-1.0,-1.0,0.37213134765625,0.52471923828125,-0.6541748046875,-0.3978271484375,-0.06005859375,-0.99609375,0.1826171875,0.75,-0.0625,0.375
0.3250000000000002,-2.0,-2.0,-4.0,-9.0,-6.0,3.0,1.0,1.0,0.37213134765625,0.52471923828125,-0.6541748046875,-0.3978271484375,-0.06005859375,-0.99609375,0.1826171875,0.75,-0.0625,0.375
0.3300000000000002,-2.0,-2.0,-4.0,-9.0,-6.0,3.0,1.0,1.0,0.37213134765625,0.52471923828125,-0.6541748046875,-0.3978271484375,-0.06005859375,-0.99609375,0.1826171875,0.75,-0.0625,0.375
0.3350000000000002,-2.0,-2.0,-4.0,-9.0,-6.0,3.0,1.0,1.0,0.37213134765625,0.52471923828125,-0.6541748046875,-0.3978271484375,-0.06005859375,-0.99609375,0.1826171875,0.75,-0.0625,0.375
0.3400000000000002,-1.0,-1.0,-3.0,0.0,-11.0,3.0,-11.0,-2.0,0.3719482421875,0.52459716796875,-0.654296875,-0.39794921875,-0.06982421875,-0.99658203125,0.17822265625,1.5,-0.375,-0.5
0.3450000000000002,0.0,-1.0,-5.0,-20.0,6.0,-17.0,2.0,1.0,0.3719482421875,0.52459716796875,-0.654296875,-0.39794921875,-0.06982421875,-0.99658203125,0.17822265625,1.5,-0.375,-0.5
0.3500000000000002,0.0,-1.0,-5.0,-20.0,6.0,-17.0,2.0,1.0,0.3719482421875,0.52459716796875,-0.654296875,-0.39794921875,-0.06982421875,-0.99658203125,0.17822265625,1.5,-0.375,-0.5
0.3550000000000002,0.0,-1.0,-5.0,-20.0,6.0,-17.0,2.0,1.0,0.3719482421875,0.52459716796875,-0.654296875,-0.39794921875,-0.06982421875,-0.99658203125,0.17822265625,1.5,-0.375,-0.5
0.3600000000000002,-1.0,0.0,5.0,2.0,-13.0,14.0,1.0,0.0,0.37188720703125,0.52459716796875,-0.654296875,-0.39794921875,-0.06494140625,-0.990234375,0.1748046875,-0.1875,-0.9375,-0.375
0.3650000000000002,-4.0,-7.0,-25.0,-37.0,8.0,-1.0,-4.0,-4.0,0.37188720703125,0.52459716796875,-0.654296875,-0.39794921875,-0.06494140625,-0.990234375,0.1748046875,-0.1875,-0.9375,-0.375
0.3700000000000002,-1.0,-2.0,2.0,7.0,-3.0,-18.0,-3.0,0.0,0.37188720703125,0.52459716796875,-0.654296875,-0.39794921875,-0.06494140625,-0.990234375,0.1748046875,-0.1875,-0.9375,-0.375
0.3750000000000002,-1.0,-2.0,2.0,7.0,-3.0,-18.0,-3.0,0.0,0.37188720703125,0.52459716796875,-0.654296875,-0.39794921875,-0.06494140625,-0.990234375,0.1748046875,-0.1875,-0.9375,-0.375
0.3800000000000002,-1.0,-2.0,2.0,7.0,-3.0,-18.0,-3.0,0.0,0.37188720703125,0.52459716796875,-0.654296875,-0.39794921875,-0.06494140625,-0.990234375,0.1748046875,-0.1875,-0.9375,-0.375
0.38500000000000023,-1.0,-3.0,1.0,15.0,3.0,-2.0,0.0,-1.0,0.37188720703125,0.52459716796875,-0.654296875,-0.39794921875,-0.06494140625,-0.990234375,0.1748046875,-0.1875,-0.9375,-0.375
0.39000000000000024,-1.0,-3.0,1.0,15.0,3.0,-2.0,0.0,-1.0,0.37188720703125,0.52459716796875,-0.654296875,-0.39794921875,-0.06494140625,-0.990234375,0.1748046875,-0.1875,-0.9375,-0.375
0.39500000000000024,-1.0,-1.0,-4.0,-9.0,-14.0,-4.0,-12.0,-4.0,0.3717041015625,0.52471923828125,-0.654296875,-0.39794921875,-0.068359375,-0.99755859375,0.1796875,-0.625,-1.1875,-0.875
0.40000000000000024,-1.0,-1.0,-4.0,-9.0,-14.0,-4.0,-12.0,-4.0,0.3717041015625,0.52471923828125,-0.654296875,-0.39794921875,-0.068359375,-0.99755859375,0.1796875,-0.625,-1.1875,-0.875
0.40500000000000025,-1.0,-5.0,-4.0,-1.0,14.0,-6.0,3.0,0.0,0.3717041015625,0.52471923828125,-0.654296875,-0.39794921875,-0.068359375,-0.99755859375,0.1796875,-0.625,-1.1875,-0.875
0.41000000000000025,0.0,2.0,4.0,-1.0,-8.0,5.0,5.0,0.0,0.3717041015625,0.52471923828125,-0.654296875,-0.39794921875,-0.068359375,-0.99755859375,0.1796875,-0.625,-1.1875,-0.875
0.41500000000000026,-2.0,-1.0,-8.0,-36.0,1.0,-9.0,-4.0,-3.0,0.37152099609375,0.52471923828125,-0.65447998046875,-0.39788818359375,-0.07568359375,-0.99560546875,0.17822265625,0.8125,-1.0625,-0.3125
0.42000000000000026,-2.0,-1.0,-8.0,-36.0,1.0,-9.0,-4.0,-3.0,0.37152099609375,0.52471923828125,-0.65447998046875,-0.39788818359375,-0.07568359375,-0.99560546875,0.17822265625,0.8125,-1.0625,-0.3125
0.42500000000000027,-2.0,0.0,-3.0,-10.0,0.0,-7.0,-4.0,-3.0,0.37158203125,0.524658203125,-0.65447998046875,-0.39788818359375,-0.080078125,-1.0078125,0.17578125,0.5625,-0.5625,-0.875
0.43000000000000027,-1.0,0.0,3.0,20.0,12.0,4.0,2.0,0.0,0.37158203125,0.524658203125,-0.65447998046875,-0.39788818359375,-0.080078125,-1.0078125,0.17578125,0.5625,-0.5625,-0.875
0.4350000000000003,-1.0,0.0,3.0,20.0,12.0,4.0,2.0,0.0,0.37158203125,0.524658203125,-0.65447998046875,-0.39788818359375,-0.080078125,-1.0078125,0.17578125,0.5625,-0.5625,-0.875
0.4400000000000003,-1.0,0.0,3.0,20.0,12.0,4.0,2.0,0.0,0.37158203125,0.524658203125,-0.65447998046875,-0.39788818359375,-0.080078125,-1.0078125,0.17578125,0.5625,-0.5625,-0.875
0.4450000000000003,-2.0,-1.0,-5.0,-10.0,2.0,34.0,-2.0,-3.0,0.37158203125,0.524658203125,-0.65447998046875,-0.39788818359375,-0.080078125,-1.0078125,0.17578125,0.5625,-0.5625,-0.875
0.4500000000000003,-2.0,-1.0,-5.0,-10.0,2.0,34.0,-2.0,-3.0,0.37139892578125,0.524658203125,-0.65447998046875,-0.39813232421875,-0.07958984375,-1.00732421875,0.17822265625,1.0,-0.0625,-1.875
0.4550000000000003,-2.0,-1.0,-5.0,-10.0,2.0,34.0,-2.0,-3.0,0.37139892578125,0.524658203125,-0.65447998046875,-0.39813232421875,-0.07958984375,-1.00732421875,0.17822265625,1.0,-0.0625,-1.875
0.4600000000000003,-2.0,-1.0,-5.0,-10.0,2.0,34.0,-2.0,-3.0,0.37139892578125,0.524658203125,-0.65447998046875,-0.39813232421875,-0.07958984375,-1.00732421875,0.17822265625,1.0,-0.0625,-1.875
0.4650000000000003,0.0,0.0,3.0,21.0,6.0,-7.0,-1.0,3.0,0.37139892578125,0.524658203125,-0.65447998046875,-0.39813232421875,-0.07958984375,-1.00732421875,0.17822265625,1.0,-0.0625,-1.875
0.4700000000000003,0.0,0.0,3.0,21.0,6.0,-7.0,-1.0,3.0,0.37139892578125,0.524658203125,-0.65447998046875,-0.39813232421875,-0.07958984375,-1.00732421875,0.17822265625,1.0,-0.0625,-1.875
0.4750000000000003,-1.0,-2.0,-2.0,-2.0,0.0,12.0,-2.0,-2.0,0.371337890625,0.52459716796875,-0.6544189453125,-0.3983154296875,-0.08154296875,-1.0029296875,0.17578125,0.625,0.5,-1.875
0.4800000000000003,-1.0,-2.0,-2.0,-2.0,0.0,12.0,-2.0,-2.0,0.371337890625,0.52459716796875,-0.6544189453125,-0.3983154296875,-0.08154296875,-1.0029296875,0.17578125,0.625,0.5,-1.875
0.4850000000000003,-1.0,-2.0,-2.0,-2.0,0.0,12.0,-2.0,-2.0,0.371337890625,0.52459716796875,-0.6544189453125,-0.3983154296875,-0.08154296875,-1.0029296875,0.17578125,0.625,0.5,-1.875
0.4900000000000003,-3.0,-5.0,-21.0,-35.0,-1.0,-15.0,-6.0,-2.0,0.37127685546875,0.52435302734375,-0.654541015625,-0.39849853515625,-0.08203125,-0.99755859375,0.18115234375,1.3125,0.6875,-0.9375
0.49500000000000033,-3.0,-5.0,-21.0,-35.0,-1.0,-15.0,-6.0,-2.0,0.37127685546875,0.52435302734375,-0.654541015625,-0.39849853515625,-0.08203125,-0.99755859375,0.18115234375,1.3125,0.6875,-0.9375
0.5000000000000003,-3.0,-2.0,-1.0,-10.0,-7.0,3.0,1.0,-5.0,0.37127685546875,0.52435302734375,-0.654541015625,-0.39849853515625,-0.08203125,-0.99755859375,0.18115234375,1.3125,0.6875,-0.9375
0.5050000000000003,-3.0,-2.0,-1.0,-10.0,-7.0,3.0,1.0,-5.0,0.37127685546875,0.52435302734375,-0.654541015625,-0.39849853515625,-0.08203125,-0.99755859375,0.18115234375,1.3125,0.6875,-0.9375
0.5100000000000003,-3.0,-2.0,-1.0,-10.0,-7.0,3.0,1.0,-5.0,0.3714599609375,0.5240478515625,-0.65460205078125,-0.39862060546875,-0.08544921875,-1.00537109375,0.173828125,1.1875,1.0625,-0.125
0.5150000000000003,-3.0,-2.0,-1.0,-10.0,-7.0,3.0,1.0,-5.0,0.3714599609375,0.5240478515625,-0.65460205078125,-0.39862060546875,-0.08544921875,-1.00537109375,0.173828125,1.1875,1.0625,-0.125
0.5200000000000004,1.0,1.0,8.0,8.0,7.0,-12.0,4.0,1.0,0.3714599609375,0.5240478515625,-0.65460205078125,-0.39862060546875,-0.08544921875,-1.00537109375,0.173828125,1.1875,1.0625,-0.125
0.5250000000000004,1.0,1.0,8.0,8.0,7.0,-12.0,4.0,1.0,0.3714599609375,0.5240478515625,-0.65460205078125,-0.39862060546875,-0.08544921875,-1.00537109375,0.173828125,1.1875,1.0625,-0.125
0.5300000000000004,1.0,-3.0,-12.0,-19.0,6.0,11.0,6.0,0.0,0.3714599609375,0.5240478515625,-0.65460205078125,-0.39862060546875,-0.08544921875,-1.00537109375,0.173828125,1.1875,1.0625,-0.125
0.5350000000000004,1.0,-3.0,-12.0,-19.0,6.0,11.0,6.0,0.0,0.37176513671875,0.52386474609375,-0.654541015625,-0.39862060546875,-0.0859375,-1.0068359375,0.17041015625,0.5,1.4375,0.1875
0.5400000000000004,1.0,-3.0,-12.0,-19.0,6.0,11.0,6.0,0.0,0.37176513671875,0.52386474609375,-0.654541015625,-0.39862060546875,-0.0859375,-1.0068359375,0.17041015625,0.5,1.4375,0.1875
0.5450000000000004,-2.0,0.0,-3.0,-11.0,3.0,15.0,2.0,0.0,0.37176513671875,0.52386474609375,-0.654541015625,-0.39862060546875,-0.0859375,-1.0068359375,0.17041015625,0.5,1.4375,0.1875
0.5500000000000004,-2.0,-1.0,4.0,9.0,-8.0,-10.0,-7.0,-5.0,0.37176513671875,0.52386474609375,-0.654541015625,-0.39862060546875,-0.0859375,-1.0068359375,0.17041015625,0.5,1.4375,0.1875
0.5550000000000004,-2.0,-1.0,4.0,9.0,-8.0,-10.0,-7.0,-5.0,0.37176513671875,0.52386474609375,-0.654541015625,-0.39862060546875,-0.0859375,-1.0068359375,0.17041015625,0.5,1.4375,0.1875
0.5600000000000004,-2.0,-1.0,4.0,9.0,-8.0,-10.0,-7.0,-5.0,0.37176513671875,0.52386474609375,-0.654541015625,-0.39862060546875,-0.0859375,-1.0068359375,0.17041015625,0.5,1.4375,0.1875
0.5650000000000004,-2.0,-1.0,4.0,9.0,-8.0,-10.0,-7.0,-5.0,0.37176513671875,0.52386474609375,-0.654541015625,-0.39862060546875,-0.0859375,-1.0068359375,0.17041015625,0.5,1.4375,0.1875
0.5700000000000004,-1.0,-1.0,-1.0,2.0,-10.0,0.0,-2.0,-1.0,0.3720703125,0.5234375,-0.6546630859375,-0.3988037109375,-0.0810546875,-0.99951171875,0.1787109375,1.6875,2.5,0.375
0.5750000000000004,-1.0,-1.0,-1.0,2.0,-10.0,0.0,-2.0,-1.0,0.3720703125,0.5234375,-0.6546630859375,-0.3988037109375,-0.0810546875,-0.99951171875,0.1787109375,1.6875,2.5,0.375
0.5800000000000004,-1.0,-1.0,-1.0,2.0,-10.0,0.0,-2.0,-1.0,0.3724365234375,0.5228271484375,-0.65478515625,-0.39898681640625,-0.08447265625,-0.99169921875,0.18408203125,1.5,3.0,1.1875
0.5850000000000004,-2.0,-4.0,-1.0,18.0,1.0,3.0,-3.0,-1.0,0.3724365234375,0.5228271484375,-0.65478515625,-0.39898681640625,-0.08447265625,-0.99169921875,0.18408203125,1.5,3.0,1.1875
0.5900000000000004,-2.0,-4.0,-1.0,18.0,1.0,3.0,-3.0,-1.0,0.3724365234375,0.5228271484375,-0.65478515625,-0.39898681640625,-0.08447265625,-0.99169921875,0.18408203125,1.5,3.0,1.1875
0.5950000000000004,-2.0,-3.0,0.0,8.0,-24.0,-18.0,-8.0,-2.0,0.3724365234375,0.5228271484375,-0.65478515625,-0.39898681640625,-0.08447265625,-0.99169921875,0.18408203125,1.5,3.0,1.1875
0.6000000000000004,-2.0,-3.0,0.0,8.0,-24.0,-18.0,-8.0,-2.0,0.3724365234375,0.5228271484375,-0.65478515625,-0.39898681640625,-0.08447265625,-0.99169921875,0.18408203125,1.5,3.0,1.1875
0.6050000000000004,-2.0,-3.0,0.0,8.0,-24.0,-18.0,-8.0,-2.0,0.3731689453125,0.52252197265625,-0.65478515625,-0.3988037109375,-0.08447265625,-0.998046875,0.1826171875,-1.1875,2.5625,2.625
0.6100000000000004,-2.0,-3.0,0.0,8.0,-24.0,-18.0,-8.0,-2.0,0.3731689453125,0.52252197265625,-0.65478515625,-0.3988037109375,-0.08447265625,-0.998046875,0.1826171875,-1.1875,2.5625,2.625
0.6150000000000004,-1.0,-5.0,-3.0,1.0,12.0,11.0,4.0,-2.0,0.3731689453125,0.52252197265625,-0.65478515625,-0.3988037109375,-0.08447265625,-0.998046875,0.1826171875,-1.1875,2.5625,2.625
0.6200000000000004,-1.0,-5.0,-3.0,1.0,12.0,11.0,4.0,-2.0,0.3731689453125,0.52252197265625,-0.65478515625,-0.3988037109375,-0.08447265625,-0.998046875,0.1826171875,-1.1875,2.5625,2.625
0.6250000000000004,-1.0,-5.0,-3.0,1.0,12.0,11.0,4.0,-2.0,0.3731689453125,0.52252197265625,-0.65478515625,-0.3988037109375,-0.08447265625,-0.998046875,0.1826171875,-1.1875,2.5625,2.625
0.6300000000000004,-1.0,-5.0,-3.0,1.0,12.0,11.0,4.0,-2.0,0.3731689453125,0.52252197265625,-0.65478515625,-0.3988037109375,-0.08447265625,-0.998046875,0.1826171875,-1.1875,2.5625,2.625
0.6350000000000005,-2.0,-3.0,-2.0,-3.0,-6.0,-12.0,-10.0,-2.0,0.37347412109375,0.52203369140625,-0.65496826171875,-0.398681640625,-0.0869140625,-0.994140625,0.1865234375,0.6875,1.375,2.0625
0.6400000000000005,-2.0,-3.0,-2.0,-3.0,-6.0,-12.0,-10.0,-2.0,0.37347412109375,0.52203369140625,-0.65496826171875,-0.398681640625,-0.0869140625,-0.994140625,0.1865234375,0.6875,1.375,2.0625
0.6450000000000005,1.0,1.0,-1.0,-5.0,6.0,11.0,1.0,2.0,0.37347412109375,0.52203369140625,-0.65496826171875,-0.398681640625,-0.0869140625,-0.994140625,0.1865234375,0.6875,1.375,2.0625
0.6500000000000005,1.0,1.0,-1.0,-5.0,6.0,11.0,1.0,2.0,0.37347412109375,0.52203369140625,-0.65496826171875,-0.398681640625,-0.0869140625,-0.994140625,0.1865234375,0.6875,1.375,2.0625
0.6550000000000005,1.0,1.0,-1.0,-5.0,6.0,11.0,1.0,2.0,0.3736572265625,0.52166748046875,-0.65533447265625,-0.39849853515625,-0.0771484375,-0.98583984375,0.177734375,1.625,0.125,2.4375
0.6600000000000005,-2.0,-1.0,1.0,0.0,-14.0,-6.0,-4.0,-3.0,0.3736572265625,0.52166748046875,-0.65533447265625,-0.39849853515625,-0.0771484375,-0.98583984375,0.177734375,1.625,0.125,2.4375
0.6650000000000005,-2.0,-1.0,1.0,0.0,-14.0,-6.0,-4.0,-3.0,0.3736572265625,0.52166748046875,-0.65533447265625,-0.39849853515625,-0.0771484375,-0.98583984375,0.177734375,1.625,0.125,2.4375
0.6700000000000005,-2.0,-1.0,1.0,0.0,-14.0,-6.0,-4.0,-3.0,0.3736572265625,0.52166748046875,-0.65533447265625,-0.39849853515625,-0.0771484375,-0.98583984375,0.177734375,1.625,0.125,2.4375
0.6750000000000005,-1.0,0.0,5.0,8.0,5.0,16.0,-1.0,-1.0,0.3736572265625,0.52166748046875,-0.65533447265625,-0.39849853515625,-0.0771484375,-0.98583984375,0.177734375,1.625,0.125,2.4375
0.6800000000000005,-1.0,0.0,5.0,8.0,5.0,16.0,-1.0,-1.0,0.3736572265625,0.52166748046875,-0.65533447265625,-0.39849853515625,-0.0771484375,-0.98583984375,0.177734375,1.625,0.125,2.4375
0.6850000000000005,-1.0,0.0,5.0,8.0,5.0,16.0,-1.0,-1.0,0.37371826171875,0.521484375,-0.655517578125,-0.3983154296875,-0.06982421875,-0.998046875,0.1787109375,0.875,-0.25,2.1875
0.6900000000000005,-1.0,0.0,5.0,8.0,5.0,16.0,-1.0,-1.0,0.37371826171875,0.521484375,-0.655517578125,-0.3983154296875,-0.06982421875,-0.998046875,0.1787109375,0.875,-0.25,2.1875
0.6950000000000005,-1.0,-1.0,6.0,3.0,0.0,-14.0,-5.0,-1.0,0.37371826171875,0.521484375,-0.655517578125,-0.3983154296875,-0.06982421875,-0.998046875,0.1787109375,0.875,-0.25,2.1875
0.7000000000000005,-1.0,-1.0,6.0,3.0,0.0,-14.0,-5.0,-1.0,0.37371826171875,0.521484375,-0.655517578125,-0.3983154296875,-0.06982421875,-0.998046875,0.1787109375,0.875,-0.25,2.1875
0.7050000000000005,-1.0,-1.0,6.0,3.0,0.0,-14.0,-5.0,-1.0,0.37371826171875,0.521484375,-0.655517578125,-0.3983154296875,-0.06982421875,-0.998046875,0.1787109375,0.875,-0.25,2.1875
0.7100000000000005,-1.0,-1.0,6.0,3.0,0.0,-14.0,-5.0,-1.0,0.37371826171875,0.521484375,-0.655517578125,-0.3983154296875,-0.06982421875,-0.998046875,0.1787109375,0.875,-0.25,2.1875
0.7150000000000005,-1.0,2.0,-2.0,-2.0,7.0,29.0,8.0,3.0,0.37384033203125,0.521240234375,-0.65570068359375,-0.3983154296875,-0.06494140625,-1.00634765625,0.1806640625,0.875,0.5625,2.0
0.7200000000000005,-1.0,0.0,1.0,9.0,-8.0,-16.0,-1.0,-2.0,0.37384033203125,0.521240234375,-0.65570068359375,-0.3983154296875,-0.06494140625,-1.00634765625,0.1806640625,0.875,0.5625,2.0
0.7250000000000005,-1.0,0.0,1.0,9.0,-8.0,-16.0,-1.0,-2.0,0.37384033203125,0.521240234375,-0.65570068359375,-0.3983154296875,-0.06494140625,-1.00634765625,0.1806640625,0.875,0.5625,2.0
0.7300000000000005,-1.0,0.0,1.0,9.0,-8.0,-16.0,-1.0,-2.0,0.373779296875,0.52093505859375,-0.65594482421875,-0.39837646484375,-0.0751953125,-0.9912109375,0.17724609375,2.3125,0.1875,1.0625
0.7350000000000005,-1.0,0.0,1.0,9.0,-8.0,-16.0,-1.0,-2.0,0.373779296875,0.52093505859375,-0.65594482421875,-0.39837646484375,-0.0751953125,-0.9912109375,0.17724609375,2.3125,0.1875,1.0625
0.7400000000000005,-1.0,-1.0,1.0,5.0,-25.0,-36.0,0.0,1.0,0.373779296875,0.52093505859375,-0.65594482421875,-0.39837646484375,-0.0751953125,-0.9912109375,0.17724609375,2.3125,0.1875,1.0625
0.7450000000000006,-1.0,-1.0,1.0,5.0,-25.0,-36.0,0.0,1.0,0.373779296875,0.52093505859375,-0.65594482421875,-0.39837646484375,-0.0751953125,-0.9912109375,0.17724609375,2.3125,0.1875,1.0625
0.7500000000000006,-3.0,-1.0,-2.0,-4.0,5.0,8.0,4.0,0.0,0.373779296875,0.52093505859375,-0.65594482421875,-0.39837646484375,-0.0751953125,-0.9912109375,0.17724609375,2.3125,0.1875,1.0625
0.7550000000000006,-3.0,-1.0,-2.0,-4.0,5.0,8.0,4.0,0.0,0.373779296875,0.52093505859375,-0.65594482421875,-0.39837646484375,-0.0751953125,-0.9912109375,0.17724609375,2.3125,0.1875,1.0625
0.7600000000000006,-3.0,-1.0,-2.0,-4.0,5.0,8.0,4.0,0.0,0.37359619140625,0.52081298828125,-0.65606689453125,-0.3984375,-0.07666015625,-0.984375,0.1708984375,1.6875,-0.4375,-0.4375
0.7650000000000006,-3.0,-1.0,-2.0,-4.0,5.0,8.0,4.0,0.0,0.37359619140625,0.52081298828125,-0.65606689453125,-0.3984375,-0.07666015625,-0.984375,0.1708984375,1.6875,-0.4375,-0.4375
0.7700000000000006,0.0,-1.0,-4.0,-31.0,-3.0,-2.0,-2.0,0.0,0.37359619140625,0.52081298828125,-0.65606689453125,-0.3984375,-0.07666015625,-0.984375,0.1708984375,1.6875,-0.4375,-0.4375
0.7750000000000006,0.0,-1.0,-4.0,-31.0,-3.0,-2.0,-2.0,0.0,0.37359619140625,0.52081298828125,-0.65606689453125,-0.3984375,-0.07666015625,-0.984375,0.1708984375,1.6875,-0.4375,-0.4375
0.7800000000000006,0.0,-1.0,-4.0,-31.0,-3.0,-2.0,-2.0,0.0,0.37359619140625,0.52081298828125,-0.65606689453125,-0.3984375,-0.07666015625,-0.984375,0.1708984375,1.6875,-0.4375,-0.4375
0.7850000000000006,0.0,-1.0,-4.0,-31.0,-3.0,-2.0,-2.0,0.0,0.37359619140625,0.52081298828125,-0.65606689453125,-0.3984375,-0.07666015625,-0.984375,0.1708984375,1.6875,-0.4375,-0.4375
0.7900000000000006,0.0,-1.0,-4.0,-31.0,-3.0,-2.0,-2.0,0.0,0.37359619140625,0.5208740234375,-0.656005859375,-0.3984375,-0.06982421875,-0.99755859375,0.17578125,-0.25,-0.3125,-0.875
0.7950000000000006,-1.0,0.0,1.0,-2.0,4.0,10.0,1.0,0.0,0.37359619140625,0.5208740234375,-0.656005859375,-0.3984375,-0.06982421875,-0.99755859375,0.17578125,-0.25,-0.3125,-0.875
0.8000000000000006,0.0,-1.0,-5.0,-3.0,16.0,10.0,-4.0,-1.0,0.37359619140625,0.5208740234375,-0.656005859375,-0.3984375,-0.06982421875,-0.99755859375,0.17578125,-0.25,-0.3125,-0.875
0.8050000000000006,0.0,-1.0,-5.0,-3.0,16.0,10.0,-4.0,-1.0,0.37359619140625,0.5208740234375,-0.656005859375,-0.3984375,-0.06982421875,-0.99755859375,0.17578125,-0.25,-0.3125,-0.875
0.8100000000000006,0.0,-1.0,-5.0,-3.0,16.0,10.0,-4.0,-1.0,0.37359619140625,0.5208740234375,-0.656005859375,-0.3984375,-0.06982421875,-0.99755859375,0.17578125,-0.25,-0.3125,-0.875
0.8150000000000006,0.0,-1.0,-5.0,-3.0,16.0,10.0,-4.0,-1.0,0.37359619140625,0.5208740234375,-0.656005859375,-0.3984375,-0.06982421875,-0.99755859375,0.17578125,-0.25,-0.3125,-0.875
0.8200000000000006,-1.0,0.0,1.0,4.0,-5.0,-37.0,-4.0,-1.0,0.37335205078125,0.5208740234375,-0.6561279296875,-0.39862060546875,-0.0732421875,-0.9970703125,0.17529296875,1.625,-0.75,-1.125
0.8250000000000006,-1.0,0.0,1.0,4.0,-5.0,-37.0,-4.0,-1.0,0.37335205078125,0.5208740234375,-0.6561279296875,-0.39862060546875,-0.0732421875,-0.9970703125,0.17529296875,1.625,-0.75,-1.125
0.8300000000000006,0.0,-1.0,-4.0,-8.0,-4.0,16.0,5.0,1.0,0.37335205078125,0.5208740234375,-0.6561279296875,-0.39862060546875,-0.0732421875,-0.9970703125,0.17529296875,1.625,-0.75,-1.125
0.8350000000000006,0.0,-1.0,-4.0,-8.0,-4.0,16.0,5.0,1.0,0.37335205078125,0.5208740234375,-0.6561279296875,-0.39862060546875,-0.0732421875,-0.9970703125,0.17529296875,1.625,-0.75,-1.125
0.8400000000000006,0.0,-1.0,-4.0,-8.0,-4.0,16.0,5.0,1.0,0.372802734375,0.520751953125,-0.65625,-0.39898681640625,-0.0771484375,-0.99072265625,0.18115234375,2.875,-1.0,-2.6875
0.8450000000000006,0.0,-1.0,-4.0,-8.0,-4.0,16.0,5.0,1.0,0.372802734375,0.520751953125,-0.65625,-0.39898681640625,-0.0771484375,-0.99072265625,0.18115234375,2.875,-1.0,-2.6875
0.8500000000000006,-1.0,-1.0,-2.0,9.0,-5.0,-29.0,-6.0,-3.0,0.372802734375,0.520751953125,-0.65625,-0.39898681640625,-0.0771484375,-0.99072265625,0.18115234375,2.875,-1.0,-2.6875
0.8550000000000006,-1.0,-1.0,-2.0,9.0,-5.0,-29.0,-6.0,-3.0,0.372802734375,0.520751953125,-0.65625,-0.39898681640625,-0.0771484375,-0.99072265625,0.18115234375,2.875,-1.0,-2.6875
0.8600000000000007,-1.0,-1.0,-2.0,9.0,-5.0,-29.0,-6.0,-3.0,0.372802734375,0.520751953125,-0.65625,-0.39898681640625,-0.0771484375,-0.99072265625,0.18115234375,2.875,-1.0,-2.6875
0.8650000000000007,-1.0,-1.0,-2.0,9.0,-5.0,-29.0,-6.0,-3.0,0.372802734375,0.520751953125,-0.65625,-0.39898681640625,-0.0771484375,-0.99072265625,0.18115234375,2.875,-1.0,-2.6875
0.8700000000000007,0.0,0.0,1.0,9.0,2.0,-14.0,-2.0,-2.0,0.37237548828125,0.52099609375,-0.65618896484375,-0.39923095703125,-0.0693359375,-0.9931640625,0.17724609375,0.4375,-1.25,-2.5
0.8750000000000007,-1.0,-3.0,-7.0,-26.0,1.0,21.0,-4.0,-3.0,0.37237548828125,0.52099609375,-0.65618896484375,-0.39923095703125,-0.0693359375,-0.9931640625,0.17724609375,0.4375,-1.25,-2.5
0.8800000000000007,-1.0,1.0,2.0,3.0,-4.0,-4.0,-4.0,0.0,0.37237548828125,0.52099609375,-0.65618896484375,-0.39923095703125,-0.0693359375,-0.9931640625,0.17724609375,0.4375,-1.25,-2.5
0.8850000000000007,-1.0,1.0,2.0,3.0,-4.0,-4.0,-4.0,0.0,0.37237548828125,0.52099609375,-0.65618896484375,-0.39923095703125,-0.0693359375,-0.9931640625,0.17724609375,0.4375,-1.25,-2.5
0.8900000000000007,-1.0,1.0,2.0,3.0,-4.0,-4.0,-4.0,0.0,0.37237548828125,0.52099609375,-0.65618896484375,-0.39923095703125,-0.0693359375,-0.9931640625,0.17724609375,0.4375,-1.25,-2.5
0.8950000000000007,0.0,-2.0,-3.0,-2.0,16.0,11.0,4.0,1.0,0.37213134765625,0.52117919921875,-0.656005859375,-0.39947509765625,-0.07080078125,-1.00048828125,0.17236328125,0.6875,-0.4375,-2.4375
0.9000000000000007,0.0,-4.0,-4.0,-2.0,-4.0,-13.0,-3.0,0.0,0.37213134765625,0.52117919921875,-0.656005859375,-0.39947509765625,-0.07080078125,-1.00048828125,0.17236328125,0.6875,-0.4375,-2.4375
0.9050000000000007,0.0,-4.0,-4.0,-2.0,-4.0,-13.0,-3.0,0.0,0.37213134765625,0.52117919921875,-0.656005859375,-0.39947509765625,-0.07080078125,-1.00048828125,0.17236328125,0.6875,-0.4375,-2.4375
0.9100000000000007,0.0,-4.0,-4.0,-2.0,-4.0,-13.0,-3.0,0.0,0.37188720703125,0.52117919921875,-0.656005859375,-0.399658203125,-0.07763671875,-0.98876953125,0.1728515625,1.375,-0.1875,-1.8125
0.9150000000000007,0.0,-4.0,-4.0,-2.0,-4.0,-13.0,-3.0,0.0,0.37188720703125,0.52117919921875,-0.656005859375,-0.399658203125,-0.07763671875,-0.98876953125,0.1728515625,1.375,-0.1875,-1.8125
0.9200000000000007,-1.0,0.0,2.0,8.0,33.0,29.0,2.0,-3.0,0.37188720703125,0.52117919921875,-0.656005859375,-0.399658203125,-0.07763671875,-0.98876953125,0.1728515625,1.375,-0.1875,-1.8125
0.9250000000000007,0.0,1.0,2.0,3.0,-1.0,6.0,0.0,1.0,0.37188720703125,0.52117919921875,-0.656005859375,-0.399658203125,-0.07763671875,-0.98876953125,0.1728515625,1.375,-0.1875,-1.8125
0.9300000000000007,0.0,1.0,2.0,3.0,-1.0,6.0,0.0,1.0,0.37188720703125,0.52117919921875,-0.656005859375,-0.399658203125,-0.07763671875,-0.98876953125,0.1728515625,1.375,-0.1875,-1.8125
0.9350000000000007,1.0,-3.0,3.0,19.0,3.0,16.0,2.0,-1.0,0.37176513671875,0.5213623046875,-0.65582275390625,-0.39984130859375,-0.0703125,-0.9951171875,0.17041015625,0.3125,-0.125,-1.4375
0.9400000000000007,-1.0,-3.0,-2.0,-10.0,-8.0,6.0,-1.0,-2.0,0.37176513671875,0.5213623046875,-0.65582275390625,-0.39984130859375,-0.0703125,-0.9951171875,0.17041015625,0.3125,-0.125,-1.4375
0.9450000000000007,-1.0,-3.0,-2.0,-10.0,-8.0,6.0,-1.0,-2.0,0.37176513671875,0.5213623046875,-0.65582275390625,-0.39984130859375,-0.0703125,-0.9951171875,0.17041015625,0.3125,-0.125,-1.4375
0.9500000000000007,-1.0,-3.0,-2.0,-10.0,-8.0,6.0,-1.0,-2.0,0.37176513671875,0.5213623046875,-0.65582275390625,-0.39984130859375,-0.0703125,-0.9951171875,0.17041015625,0.3125,-0.125,-1.4375
0.9550000000000007,-2.0,-2.0,0.0,10.0,-6.0,15.0,-1.0,-3.0,0.371826171875,0.52154541015625,-0.65557861328125,-0.39996337890625,-0.068359375,-1.00048828125,0.17333984375,-0.75,0.5,-1.1875
0.9600000000000007,1.0,1.0,6.0,8.0,1.0,-30.0,-4.0,1.0,0.371826171875,0.52154541015625,-0.65557861328125,-0.39996337890625,-0.068359375,-1.00048828125,0.17333984375,-0.75,0.5,-1.1875
0.9650000000000007,-1.0,1.0,0.0,3.0,6.0,23.0,0.0,-1.0,0.371826171875,0.52154541015625,-0.65557861328125,-0.39996337890625,-0.068359375,-1.00048828125,0.17333984375,-0.75,0.5,-1.1875
0.9700000000000008,-1.0,1.0,0.0,3.0,6.0,23.0,0.0,-1.0,0.371826171875,0.52154541015625,-0.65557861328125,-0.39990234375,-0.07275390625,-0.9931640625,0.1728515625,0.9375,0.375,-0.875
0.9750000000000008,-3.0,-3.0,-3.0,-9.0,5.0,12.0,3.0,1.0,0.371826171875,0.52154541015625,-0.65557861328125,-0.39990234375,-0.07275390625,-0.9931640625,0.1728515625,0.9375,0.375,-0.875
0.9800000000000008,-2.0,-2.0,-7.0,-12.0,-1.0,-24.0,-5.0,-2.0,0.371826171875,0.52154541015625,-0.65557861328125,-0.39990234375,-0.07275390625,-0.9931640625,0.1728515625,0.9375,0.375,-0.875
0.9850000000000008,-2.0,-2.0,-7.0,-12.0,-1.0,-24.0,-5.0,-2.0,0.371826171875,0.52154541015625,-0.65557861328125,-0.39990234375,-0.07275390625,-0.9931640625,0.1728515625,0.9375,0.375,-0.875
0.9900000000000008,-2.0,-2.0,-7.0,-12.0,-1.0,-24.0,-5.0,-2.0,0.371826171875,0.52154541015625,-0.65557861328125,-0.39990234375,-0.07275390625,-0.9931640625,0.1728515625,0.9375,0.375,-0.875
0.9950000000000008,-2.0,-1.0,4.0,4.0,5.0,21.0,0.0,-2.0,0.371826171875,0.52154541015625,-0.65557861328125,-0.39990234375,-0.0703125,-0.99609375,0.17626953125,-0.6875,0.1875,-0.625
1.0000000000000007,-1.0,-1.0,-3.0,4.0,11.0,20.0,7.0,1.0,0.371826171875,0.52154541015625,-0.65557861328125,-0.39990234375,-0.0703125,-0.99609375,0.17626953125,-0.6875,0.1875,-0.625
1.0050000000000006,-1.0,-1.0,-3.0,4.0,11.0,20.0,7.0,1.0,0.371826171875,0.52154541015625,-0.65557861328125,-0.39990234375,-0.0703125,-0.99609375,0.17626953125,-0.6875,0.1875,-0.625
1.0100000000000005,-1.0,-1.0,-3.0,4.0,11.0,20.0,7.0,1.0,0.371826171875,0.52154541015625,-0.65557861328125,-0.39990234375,-0.0703125,-0.99609375,0.17626953125,-0.6875,0.1875,-0.625
1.0150000000000003,-1.0,-1.0,-3.0,4.0,11.0,20.0,7.0,1.0,0.371826171875,0.52154541015625,-0.65557861328125,-0.39990234375,-0.0703125,-0.99609375,0.17626953125,-0.6875,0.1875,-0.625
1.0200000000000002,-1.0,-1.0,-3.0,4.0,11.0,20.0,7.0,1.0,0.371826171875,0.52154541015625,-0.65557861328125,-0.39990234375,-0.0703125,-0.99609375,0.17626953125,-0.6875,0.1875,-0.625
1.0250000000000001,0.0,-2.0,-16.0,-57.0,-10.0,-6.0,-1.0,0.0,0.3720703125,0.521728515625,-0.6552734375,-0.39996337890625,-0.06982421875,-1.01123046875,0.17431640625,-1.125,1.125,-0.4375
1.03,-1.0,0.0,1.0,5.0,-6.0,-1.0,-2.0,-2.0,0.3720703125,0.521728515625,-0.6552734375,-0.39996337890625,-0.06982421875,-1.01123046875,0.17431640625,-1.125,1.125,-0.4375
1.035,-1.0,0.0,1.0,5.0,-6.0,-1.0,-2.0,-2.0,0.3720703125,0.521728515625,-0.6552734375,-0.39996337890625,-0.06982421875,-1.01123046875,0.17431640625,-1.125,1.125,-0.4375
1.0399999999999998,-1.0,0.0,1.0,5.0,-6.0,-1.0,-2.0,-2.0,0.3721923828125,0.52154541015625,-0.65521240234375,-0.40020751953125,-0.07470703125,-1.00048828125,0.18359375,0.375,1.5625,-0.4375
1.0449999999999997,-1.0,0.0,1.0,5.0,-6.0,-1.0,-2.0,-2.0,0.3721923828125,0.52154541015625,-0.65521240234375,-0.40020751953125,-0.07470703125,-1.00048828125,0.18359375,0.375,1.5625,-0.4375
1.0499999999999996,-2.0,-2.0,-3.0,2.0,-3.0,8.0,-3.0,-3.0,0.3721923828125,0.52154541015625,-0.65521240234375,-0.40020751953125,-0.07470703125,-1.00048828125,0.18359375,0.375,1.5625,-0.4375
1.0549999999999995,-3.0,-3.0,-1.0,14.0,-5.0,8.0,1.0,-2.0,0.3721923828125,0.52154541015625,-0.65521240234375,-0.40020751953125,-0.07470703125,-1.00048828125,0.18359375,0.375,1.5625,-0.4375
1.0599999999999994,-3.0,-3.0,-1.0,14.0,-5.0,8.0,1.0,-2.0,0.3721923828125,0.52154541015625,-0.65521240234375,-0.40020751953125,-0.07470703125,-1.00048828125,0.18359375,0.375,1.5625,-0.4375
1.0649999999999993,0.0,0.0,4.0,4.0,9.0,7.0,-1.0,-2.0,0.3721923828125,0.52154541015625,-0.65521240234375,-0.40020751953125,-0.0751953125,-0.9931640625,0.1806640625,-0.875,0.375,-0.625
1.0699999999999992,0.0,-1.0,-1.0,6.0,-5.0,-2.0,0.0,-1.0,0.3721923828125,0.52154541015625,-0.65521240234375,-0.40020751953125,-0.0751953125,-0.9931640625,0.1806640625,-0.875,0.375,-0.625
1.074999999999999,0.0,-3.0,-3.0,-6.0,19.0,-19.0,1.0,-1.0,0.3721923828125,0.52154541015625,-0.65521240234375,-0.40020751953125,-0.0751953125,-0.9931640625,0.1806640625,-0.875,0.375,-0.625
1.079999999999999,0.0,-3.0,-3.0,-6.0,19.0,-19.0,1.0,-1.0,0.3721923828125,0.52154541015625,-0.65521240234375,-0.40020751953125,-0.0751953125,-0.9931640625,0.1806640625,-0.875,0.375,-0.625
1.0849999999999989,0.0,-3.0,-3.0,-6.0,19.0,-19.0,1.0,-1.0,0.3721923828125,0.52154541015625,-0.65521240234375,-0.40020751953125,-0.0751953125,-0.9931640625,0.1806640625,-0.875,0.375,-0.625
1.0899999999999987,-1.0,-1.0,1.0,6.0,3.0,-2.0,0.0,-1.0,0.3721923828125,0.52154541015625,-0.65521240234375,-0.40020751953125,-0.07373046875,-0.994140625,0.1865234375,-0.0625,-0.0625,-0.8125
1.0949999999999986,-1.0,-1.0,1.0,6.0,3.0,-2.0,0.0,-1.0,0.3721923828125,0.52154541015625,-0.65521240234375,-0.40020751953125,-0.07373046875,-0.994140625,0.1865234375,-0.0625,-0.0625,-0.8125
1.0999999999999985,-1.0,-1.0,1.0,6.0,3.0,-2.0,0.0,-1.0,0.3721923828125,0.52154541015625,-0.65521240234375,-0.40020751953125,-0.07373046875,-0.994140625,0.1865234375,-0.0625,-0.0625,-0.8125
1.1049999999999984,-1.0,-2.0,-2.0,-3.0,-7.0,-25.0,6.0,2.0,0.37200927734375,0.52142333984375,-0.65521240234375,-0.4005126953125,-0.07080078125,-1.00244140625,0.1845703125,1.0625,0.625,-1.4375
1.1099999999999983,-1.0,-2.0,-2.0,-3.0,-7.0,-25.0,6.0,2.0,0.37200927734375,0.52142333984375,-0.65521240234375,-0.4005126953125,-0.07080078125,-1.00244140625,0.1845703125,1.0625,0.625,-1.4375
1.1149999999999982,0.0,1.0,-1.0,-3.0,0.0,-2.0,-1.0,1.0,0.37200927734375,0.52142333984375,-0.65521240234375,-0.4005126953125,-0.07080078125,-1.00244140625,0.1845703125,1.0625,0.625,-1.4375
1.119999999999998,-2.0,-1.0,-3.0,-10.0,-14.0,-9.0,-4.0,-4.0,0.37200927734375,0.52142333984375,-0.65521240234375,-0.4005126953125,-0.07080078125,-1.00244140625,0.1845703125,1.0625,0.625,-1.4375
1.124999999999998,-2.0,-1.0,-3.0,-10.0,-14.0,-9.0,-4.0,-4.0,0.37200927734375,0.52142333984375,-0.65521240234375,-0.4005126953125,-0.07080078125,-1.00244140625,0.1845703125,1.0625,0.625,-1.4375
1.129999999999998,-3.0,-2.0,-1.0,15.0,-13.0,-10.0,-5.0,-2.0,0.371826171875,0.5213623046875,-0.65521240234375,-0.40081787109375,-0.0673828125,-1.001953125,0.18896484375,1.0625,0.625,-1.4375
1.1349999999999978,-3.0,-2.0,-1.0,15.0,-13.0,-10.0,-5.0,-2.0,0.371826171875,0.5213623046875,-0.65521240234375,-0.40081787109375,-0.0673828125,-1.001953125,0.18896484375,1.0625,0.625,-1.4375
1.1399999999999977,-1.0,0.0,1.0,-1.0,5.0,3.0,4.0,-1.0,0.371826171875,0.5213623046875,-0.65521240234375,-0.40081787109375,-0.0673828125,-1.001953125,0.18896484375,1.0625,0.625,-1.4375
1.1449999999999976,-1.0,0.0,1.0,-1.0,5.0,3.0,4.0,-1.0,0.371826171875,0.5213623046875,-0.65521240234375,-0.40081787109375,-0.0673828125,-1.001953125,0.18896484375,1.0625,0.625,-1.4375
1.1499999999999975,-1.0,0.0,1.0,-1.0,5.0,3.0,4.0,-1.0,0.371826171875,0.5213623046875,-0.65521240234375,-0.40081787109375,-0.0673828125,-1.001953125,0.18896484375,1.0625,0.625,-1.4375
1.1549999999999974,0.0,1.0,-4.0,1.0,5.0,24.0,5.0,0.0,0.37164306640625,0.52130126953125,-0.65521240234375,-0.40106201171875,-0.072265625,-0.9990234375,0.18115234375,1.3125,0.0625,-1.5
1.1599999999999973,-2.0,-4.0,-2.0,-2.0,2.0,-13.0,0.0,-1.0,0.37164306640625,0.52130126953125,-0.65521240234375,-0.40106201171875,-0.072265625,-0.9990234375,0.18115234375,1.3125,0.0625,-1.5
1.1649999999999971,-2.0,-2.0,-5.0,-9.0,-11.0,1.0,-9.0,-3.0,0.37164306640625,0.52130126953125,-0.65521240234375,-0.40106201171875,-0.072265625,-0.9990234375,0.18115234375,1.3125,0.0625,-1.5
1.169999999999997,-2.0,-2.0,-5.0,-9.0,-11.0,1.0,-9.0,-3.0,0.37164306640625,0.52130126953125,-0.65521240234375,-0.40106201171875,-0.072265625,-0.9990234375,0.18115234375,1.3125,0.0625,-1.5
1.174999999999997,-2.0,-2.0,-5.0,-9.0,-11.0,1.0,-9.0,-3.0,0.37152099609375,0.52142333984375,-0.65509033203125,-0.4012451171875,-0.0673828125,-0.9892578125,0.17919921875,-0.125,0.0625,-1.4375
1.1799999999999968,-1.0,1.0,-3.0,-5.0,-7.0,0.0,-1.0,-2.0,0.37152099609375,0.52142333984375,-0.65509033203125,-0.4012451171875,-0.0673828125,-0.9892578125,0.17919921875,-0.125,0.0625,-1.4375
1.1849999999999967,-1.0,1.0,-3.0,-5.0,-7.0,0.0,-1.0,-2.0,0.37152099609375,0.52142333984375,-0.65509033203125,-0.4012451171875,-0.0673828125,-0.9892578125,0.17919921875,-0.125,0.0625,-1.4375
1.1899999999999966,-1.0,1.0,-3.0,-5.0,-7.0,0.0,-1.0,-2.0,0.37152099609375,0.52142333984375,-0.65509033203125,-0.4012451171875,-0.0673828125,-0.9892578125,0.17919921875,-0.125,0.0625,-1.4375
1.1949999999999965,0.0,-1.0,1.0,-5.0,-14.0,-1.0,4.0,0.0,0.371337890625,0.5213623046875,-0.65509033203125,-0.4014892578125,-0.0634765625,-0.9951171875,0.1884765625,0.625,0.0,-1.0625
1.1999999999999964,0.0,-1.0,1.0,-5.0,-14.0,-1.0,4.0,0.0,0.371337890625,0.5213623046875,-0.65509033203125,-0.4014892578125,-0.0634765625,-0.9951171875,0.1884765625,0.625,0.0,-1.0625
1.2049999999999963,0.0,-1.0,3.0,-7.0,11.0,21.0,-4.0,0.0,0.371337890625,0.5213623046875,-0.65509033203125,-0.4014892578125,-0.0634765625,-0.9951171875,0.1884765625,0.625,0.0,-1.0625
1.2099999999999962,0.0,-1.0,3.0,-7.0,11.0,21.0,-4.0,0.0,0.371337890625,0.5213623046875,-0.65509033203125,-0.4014892578125,-0.0634765625,-0.9951171875,0.1884765625,0.625,0.0,-1.0625
1.214999999999996,0.0,-1.0,3.0,-7.0,11.0,21.0,-4.0,0.0,0.371337890625,0.5213623046875,-0.65509033203125,-0.4014892578125,-0.0634765625,-0.9951171875,0.1884765625,0.625,0.0,-1.0625
1.219999999999996,0.0,-1.0,3.0,-7.0,11.0,21.0,-4.0,0.0,0.371337890625,0.5213623046875,-0.65509033203125,-0.4014892578125,-0.0634765625,-0.9951171875,0.1884765625,0.625,0.0,-1.0625
1.2249999999999959,1.0,1.0,6.0,14.0,0.0,-9.0,-3.0,0.0,0.371337890625,0.5213623046875,-0.65509033203125,-0.4014892578125,-0.0703125,-1.00244140625,0.1787109375,0.6875,-0.25,-0.875
1.2299999999999958,1.0,1.0,6.0,14.0,0.0,-9.0,-3.0,0.0,0.371337890625,0.5213623046875,-0.65509033203125,-0.4014892578125,-0.0703125,-1.00244140625,0.1787109375,0.6875,-0.25,-0.875
1.2349999999999957,-3.0,-1.0,-4.0,13.0,-9.0,-6.0,-8.0,-3.0,0.371337890625,0.5213623046875,-0.65509033203125,-0.4014892578125,-0.0703125,-1.00244140625,0.1787109375,0.6875,-0.25,-0.875
1.2399999999999956,-3.0,-1.0,-4.0,13.0,-9.0,-6.0,-8.0,-3.0,0.371337890625,0.5216064453125,-0.65478515625,-0.401611328125,-0.06591796875,-1.00390625,0.1826171875,-1.125,0.4375,-1.4375
1.2449999999999954,-3.0,-1.0,-4.0,13.0,-9.0,-6.0,-8.0,-3.0,0.371337890625,0.5216064453125,-0.65478515625,-0.401611328125,-0.06591796875,-1.00390625,0.1826171875,-1.125,0.4375,-1.4375
1.2499999999999953,-3.0,-1.0,-4.0,13.0,-9.0,-6.0,-8.0,-3.0,0.371337890625,0.5216064453125,-0.65478515625,-0.401611328125,-0.06591796875,-1.00390625,0.1826171875,-1.125,0.4375,-1.4375
1.2549999999999952,0.0,3.0,17.0,40.0,2.0,22.0,3.0,-1.0,0.371337890625,0.5216064453125,-0.65478515625,-0.401611328125,-0.06591796875,-1.00390625,0.1826171875,-1.125,0.4375,-1.4375
1.2599999999999951,0.0,0.0,-2.0,2.0,0.0,10.0,5.0,0.0,0.371337890625,0.5216064453125,-0.65478515625,-0.401611328125,-0.06591796875,-1.00390625,0.1826171875,-1.125,0.4375,-1.4375
1.264999999999995,0.0,0.0,-2.0,2.0,0.0,10.0,5.0,0.0,0.371337890625,0.5216064453125,-0.65478515625,-0.401611328125,-0.06591796875,-1.00390625,0.1826171875,-1.125,0.4375,-1.4375
1.269999999999995,0.0,0.0,-2.0,2.0,0.0,10.0,5.0,0.0,0.371337890625,0.5216064453125,-0.65478515625,-0.401611328125,-0.06591796875,-1.00390625,0.1826171875,-1.125,0.4375,-1.4375
1.2749999999999948,0.0,0.0,-2.0,2.0,0.0,10.0,5.0,0.0,0.37158203125,0.5220947265625,-0.65435791015625,-0.4014892578125,-0.076171875,-1.00439453125,0.16650390625,-3.125,0.1875,-1.625
1.2799999999999947,0.0,0.0,-2.0,2.0,0.0,10.0,5.0,0.0,0.37158203125,0.5220947265625,-0.65435791015625,-0.4014892578125,-0.076171875,-1.00439453125,0.16650390625,-3.125,0.1875,-1.625
1.2849999999999946,-3.0,-2.0,-1.0,12.0,7.0,18.0,9.0,0.0,0.37158203125,0.5220947265625,-0.65435791015625,-0.4014892578125,-0.076171875,-1.00439453125,0.16650390625,-3.125,0.1875,-1.625
1.2899999999999945,-3.0,-2.0,-1.0,12.0,7.0,18.0,9.0,0.0,0.37158203125,0.5220947265625,-0.65435791015625,-0.4014892578125,-0.076171875,-1.00439453125,0.16650390625,-3.125,0.1875,-1.625
1.2949999999999944,-3.0,-2.0,-1.0,12.0,7.0,18.0,9.0,0.0,0.37158203125,0.5220947265625,-0.65435791015625,-0.4014892578125,-0.076171875,-1.00439453125,0.16650390625,-3.125,0.1875,-1.625
1.2999999999999943,-3.0,-2.0,-1.0,12.0,7.0,18.0,9.0,0.0,0.37158203125,0.5220947265625,-0.65435791015625,-0.4014892578125,-0.076171875,-1.00439453125,0.16650390625,-3.125,0.1875,-1.625
1.3049999999999942,-1.0,-2.0,-2.0,-15.0,5.0,-4.0,0.0,0.0,0.3712158203125,0.522216796875,-0.654296875,-0.40167236328125,-0.07177734375,-0.97900390625,0.18017578125,0.5625,-1.0625,-2.3125
1.309999999999994,-1.0,-2.0,-2.0,-15.0,5.0,-4.0,0.0,0.0,0.3712158203125,0.522216796875,-0.654296875,-0.40167236328125,-0.07177734375,-0.97900390625,0.18017578125,0.5625,-1.0625,-2.3125
1.314999999999994,-3.0,-4.0,-10.0,-27.0,-19.0,-21.0,-12.0,-4.0,0.3712158203125,0.522216796875,-0.654296875,-0.40167236328125,-0.07177734375,-0.97900390625,0.18017578125,0.5625,-1.0625,-2.3125
1.3199999999999938,-3.0,-4.0,-10.0,-27.0,-19.0,-21.0,-12.0,-4.0,0.37078857421875,0.52252197265625,-0.654296875,-0.4017333984375,-0.060546875,-0.998046875,0.1826171875,-0.1875,-2.25,-1.8125
1.3249999999999937,-3.0,-4.0,-10.0,-27.0,-19.0,-21.0,-12.0,-4.0,0.37078857421875,0.52252197265625,-0.654296875,-0.4017333984375,-0.060546875,-0.998046875,0.1826171875,-0.1875,-2.25,-1.8125
1.3299999999999936,1.0,0.0,10.0,52.0,31.0,18.0,5.0,3.0,0.37078857421875,0.52252197265625,-0.654296875,-0.4017333984375,-0.060546875,-0.998046875,0.1826171875,-0.1875,-2.25,-1.8125
1.3349999999999935,1.0,0.0,10.0,52.0,31.0,18.0,5.0,3.0,0.37078857421875,0.52252197265625,-0.654296875,-0.4017333984375,-0.060546875,-0.998046875,0.1826171875,-0.1875,-2.25,-1.8125
1.3399999999999934,1.0,0.0,4.0,17.0,-4.0,-3.0,-3.0,1.0,0.37078857421875,0.52252197265625,-0.654296875,-0.4017333984375,-0.060546875,-0.998046875,0.1826171875,-0.1875,-2.25,-1.8125
1.3449999999999933,1.0,0.0,4.0,17.0,-4.0,-3.0,-3.0,1.0,0.37078857421875,0.52252197265625,-0.654296875,-0.4017333984375,-0.060546875,-0.998046875,0.1826171875,-0.1875,-2.25,-1.8125
1.3499999999999932,1.0,0.0,4.0,17.0,-4.0,-3.0,-3.0,1.0,0.37078857421875,0.52301025390625,-0.65399169921875,-0.40155029296875,-0.05615234375,-1.00732421875,0.1728515625,-2.75,-0.9375,-0.1875
1.354999999999993,1.0,0.0,4.0,17.0,-4.0,-3.0,-3.0,1.0,0.37078857421875,0.52301025390625,-0.65399169921875,-0.40155029296875,-0.05615234375,-1.00732421875,0.1728515625,-2.75,-0.9375,-0.1875
1.359999999999993,-2.0,-2.0,-4.0,2.0,-3.0,1.0,-3.0,-3.0,0.37078857421875,0.52301025390625,-0.65399169921875,-0.40155029296875,-0.05615234375,-1.00732421875,0.1728515625,-2.75,-0.9375,-0.1875
1.3649999999999929,-2.0,-2.0,-4.0,2.0,-3.0,1.0,-3.0,-3.0,0.37078857421875,0.52301025390625,-0.65399169921875,-0.40155029296875,-0.05615234375,-1.00732421875,0.1728515625,-2.75,-0.9375,-0.1875
1.3699999999999928,-2.0,-2.0,-4.0,2.0,-3.0,1.0,-3.0,-3.0,0.37078857421875,0.52301025390625,-0.65399169921875,-0.40155029296875,-0.05615234375,-1.00732421875,0.1728515625,-2.75,-0.9375,-0.1875
1.3749999999999927,-2.0,-2.0,-4.0,2.0,-3.0,1.0,-3.0,-3.0,0.37078857421875,0.52301025390625,-0.65399169921875,-0.40155029296875,-0.05615234375,-1.00732421875,0.1728515625,-2.75,-0.9375,-0.1875
1.3799999999999926,-1.0,1.0,1.0,-4.0,-10.0,7.0,3.0,1.0,0.37078857421875,0.52301025390625,-0.65399169921875,-0.40155029296875,-0.06787109375,-0.982421875,0.1787109375,0.4375,-0.1875,-0.0625
1.3849999999999925,-1.0,1.0,1.0,-4.0,-10.0,7.0,3.0,1.0,0.37078857421875,0.52301025390625,-0.65399169921875,-0.40155029296875,-0.06787109375,-0.982421875,0.1787109375,0.4375,-0.1875,-0.0625
1.3899999999999924,0.0,0.0,-1.0,-25.0,-4.0,11.0,4.0,1.0,0.37078857421875,0.52301025390625,-0.65399169921875,-0.40155029296875,-0.06787109375,-0.982421875,0.1787109375,0.4375,-0.1875,-0.0625
1.3949999999999922,0.0,0.0,-1.0,-25.0,-4.0,11.0,4.0,1.0,0.37078857421875,0.52301025390625,-0.65399169921875,-0.40155029296875,-0.06787109375,-0.982421875,0.1787109375,0.4375,-0.1875,-0.0625
1.3999999999999921,0.0,0.0,-1.0,-25.0,-4.0,11.0,4.0,1.0,0.3707275390625,0.5230712890625,-0.65411376953125,-0.4013671875,-0.0625,-0.98779296875,0.18359375,-0.375,-1.0625,0.5625
1.404999999999992,0.0,0.0,-1.0,-25.0,-4.0,11.0,4.0,1.0,0.3707275390625,0.5230712890625,-0.65411376953125,-0.4013671875,-0.0625,-0.98779296875,0.18359375,-0.375,-1.0625,0.5625
1.409999999999992,1.0,-1.0,1.0,-16.0,-10.0,-32.0,-6.0,-1.0,0.3707275390625,0.5230712890625,-0.65411376953125,-0.4013671875,-0.0625,-0.98779296875,0.18359375,-0.375,-1.0625,0.5625
1.4149999999999918,1.0,-1.0,1.0,-16.0,-10.0,-32.0,-6.0,-1.0,0.3707275390625,0.5230712890625,-0.65411376953125,-0.4013671875,-0.0625,-0.98779296875,0.18359375,-0.375,-1.0625,0.5625
1.4199999999999917,-1.0,-1.0,-8.0,-5.0,-9.0,-3.0,2.0,-3.0,0.3707275390625,0.5230712890625,-0.65411376953125,-0.4013671875,-0.0625,-0.98779296875,0.18359375,-0.375,-1.0625,0.5625
1.4249999999999916,-1.0,-1.0,-8.0,-5.0,-9.0,-3.0,2.0,-3.0,0.3707275390625,0.5230712890625,-0.65411376953125,-0.4013671875,-0.0625,-0.98779296875,0.18359375,-0.375,-1.0625,0.5625
1.4299999999999915,-1.0,-1.0,-8.0,-5.0,-9.0,-3.0,2.0,-3.0,0.37091064453125,0.52337646484375,-0.65399169921875,-0.40106201171875,-0.06689453125,-0.9970703125,0.17724609375,-2.375,-0.8125,0.9375
1.4349999999999914,-1.0,-1.0,-8.0,-5.0,-9.0,-3.0,2.0,-3.0,0.37091064453125,0.52337646484375,-0.65399169921875,-0.40106201171875,-0.06689453125,-0.9970703125,0.17724609375,-2.375,-0.8125,0.9375
1.4399999999999913,-1.0,0.0,4.0,8.0,1.0,-4.0,-4.0,-3.0,0.37091064453125,0.52337646484375,-0.65399169921875,-0.40106201171875,-0.06689453125,-0.9970703125,0.17724609375,-2.375,-0.8125,0.9375
1.4449999999999912,-1.0,0.0,4.0,8.0,1.0,-4.0,-4.0,-3.0,0.37091064453125,0.52337646484375,-0.65399169921875,-0.40106201171875,-0.06689453125,-0.9970703125,0.17724609375,-2.375,-0.8125,0.9375
1.449999999999991,-1.0,0.0,4.0,8.0,1.0,-4.0,-4.0,-3.0,0.37091064453125,0.52337646484375,-0.65399169921875,-0.40106201171875,-0.06689453125,-0.9970703125,0.17724609375,-2.375,-0.8125,0.9375
1.454999999999991,-1.0,0.0,4.0,8.0,1.0,-4.0,-4.0,-3.0,0.37091064453125,0.52337646484375,-0.65399169921875,-0.40106201171875,-0.06689453125,-0.9970703125,0.17724609375,-2.375,-0.8125,0.9375
1.4599999999999909,-1.0,0.0,4.0,8.0,1.0,-4.0,-4.0,-3.0,0.37091064453125,0.52337646484375,-0.65399169921875,-0.40106201171875,-0.06689453125,-0.9970703125,0.17724609375,-2.375,-0.8125,0.9375
1.4649999999999908,-2.0,-5.0,-11.0,-4.0,-3.0,0.0,-3.0,-3.0,0.370849609375,0.52337646484375,-0.65399169921875,-0.40106201171875,-0.056640625,-1.0048828125,0.1796875,-0.875,-0.3125,0.5625
1.4699999999999906,0.0,1.0,1.0,-5.0,8.0,10.0,3.0,2.0,0.370849609375,0.52337646484375,-0.65399169921875,-0.40106201171875,-0.056640625,-1.0048828125,0.1796875,-0.875,-0.3125,0.5625
1.4749999999999905,0.0,1.0,1.0,-5.0,8.0,10.0,3.0,2.0,0.370849609375,0.52337646484375,-0.65399169921875,-0.40106201171875,-0.056640625,-1.0048828125,0.1796875,-0.875,-0.3125,0.5625
1.4799999999999904,0.0,1.0,1.0,-5.0,8.0,10.0,3.0,2.0,0.37078857421875,0.523193359375,-0.6541748046875,-0.40106201171875,-0.064453125,-0.99169921875,0.18115234375,1.0,-0.1875,0.5625
1.4849999999999903,0.0,1.0,1.0,-5.0,8.0,10.0,3.0,2.0,0.37078857421875,0.523193359375,-0.6541748046875,-0.40106201171875,-0.064453125,-0.99169921875,0.18115234375,1.0,-0.1875,0.5625
1.4899999999999902,-1.0,-1.0,-2.0,-14.0,4.0,2.0,-1.0,-1.0,0.37078857421875,0.523193359375,-0.6541748046875,-0.40106201171875,-0.064453125,-0.99169921875,0.18115234375,1.0,-0.1875,0.5625
1.4949999999999901,-2.0,-2.0,3.0,6.0,2.0,-6.0,-1.0,0.0,0.37078857421875,0.523193359375,-0.6541748046875,-0.40106201171875,-0.064453125,-0.99169921875,0.18115234375,1.0,-0.1875,0.5625
1.49999999999999,-2.0,-2.0,3.0,6.0,2.0,-6.0,-1.0,0.0,0.37060546875,0.52294921875,-0.6544189453125,-0.401123046875,-0.0625,-0.98291015625,0.18408203125,1.8125,-0.4375,0.4375
1.50499999999999,-2.0,-2.0,3.0,6.0,2.0,-6.0,-1.0,0.0,0.37060546875,0.52294921875,-0.6544189453125,-0.401123046875,-0.0625,-0.98291015625,0.18408203125,1.8125,-0.4375,0.4375
1.5099999999999898,-2.0,-2.0,3.0,6.0,2.0,-6.0,-1.0,0.0,0.37060546875,0.52294921875,-0.6544189453125,-0.401123046875,-0.0625,-0.98291015625,0.18408203125,1.8125,-0.4375,0.4375
1.5149999999999897,-2.0,-2.0,-5.0,-12.0,-8.0,2.0,-1.0,-2.0,0.37060546875,0.52294921875,-0.6544189453125,-0.401123046875,-0.0625,-0.98291015625,0.18408203125,1.8125,-0.4375,0.4375
1.5199999999999896,-2.0,-2.0,-5.0,-12.0,-8.0,2.0,-1.0,-2.0,0.37060546875,0.52294921875,-0.6544189453125,-0.401123046875,-0.0625,-0.98291015625,0.18408203125,1.8125,-0.4375,0.4375
1.5249999999999895,-2.0,-2.0,-5.0,-12.0,-8.0,2.0,-1.0,-2.0,0.37060546875,0.52294921875,-0.6544189453125,-0.401123046875,-0.0625,-0.98291015625,0.18408203125,1.8125,-0.4375,0.4375
1.5299999999999894,-2.0,-2.0,-5.0,-12.0,-8.0,2.0,-1.0,-2.0,0.37060546875,0.52301025390625,-0.6544189453125,-0.401123046875,-0.05810546875,-0.9970703125,0.18212890625,-0.375,-0.5,0.3125
1.5349999999999893,-3.0,-8.0,-27.0,-23.0,-4.0,2.0,0.0,-1.0,0.37060546875,0.52301025390625,-0.6544189453125,-0.401123046875,-0.05810546875,-0.9970703125,0.18212890625,-0.375,-0.5,0.3125
1.5399999999999892,-3.0,-8.0,-27.0,-23.0,-4.0,2.0,0.0,-1.0,0.37060546875,0.52301025390625,-0.6544189453125,-0.401123046875,-0.05810546875,-0.9970703125,0.18212890625,-0.375,-0.5,0.3125
1.544999999999989,-3.0,-8.0,-27.0,-23.0,-4.0,2.0,0.0,-1.0,0.37060546875,0.52301025390625,-0.6544189453125,-0.401123046875,-0.05810546875,-0.9970703125,0.18212890625,-0.375,-0.5,0.3125
1.549999999999989,-3.0,-8.0,-27.0,-23.0,-4.0,2.0,0.0,-1.0,0.37060546875,0.52301025390625,-0.6544189453125,-0.40118408203125,-0.06103515625,-1.0166015625,0.18115234375,-0.6875,0.0,-0.5625
1.5549999999999888,-3.0,-2.0,-5.0,-13.0,0.0,9.0,-3.0,-4.0,0.37060546875,0.52301025390625,-0.6544189453125,-0.40118408203125,-0.06103515625,-1.0166015625,0.18115234375,-0.6875,0.0,-0.5625
1.5599999999999887,-1.0,2.0,12.0,24.0,12.0,-4.0,-4.0,1.0,0.37060546875,0.52301025390625,-0.6544189453125,-0.40118408203125,-0.06103515625,-1.0166015625,0.18115234375,-0.6875,0.0,-0.5625
1.5649999999999886,-1.0,2.0,12.0,24.0,12.0,-4.0,-4.0,1.0,0.37060546875,0.52301025390625,-0.6544189453125,-0.40118408203125,-0.06103515625,-1.0166015625,0.18115234375,-0.6875,0.0,-0.5625
1.5699999999999885,-1.0,2.0,12.0,24.0,12.0,-4.0,-4.0,1.0,0.37030029296875,0.5230712890625,-0.65435791015625,-0.4013671875,-0.056640625,-0.99365234375,0.18115234375,0.625,-0.3125,-1.125
1.5749999999999884,-1.0,2.0,12.0,24.0,12.0,-4.0,-4.0,1.0,0.37030029296875,0.5230712890625,-0.65435791015625,-0.4013671875,-0.056640625,-0.99365234375,0.18115234375,0.625,-0.3125,-1.125
1.5799999999999883,-1.0,2.0,12.0,24.0,12.0,-4.0,-4.0,1.0,0.37030029296875,0.5230712890625,-0.65435791015625,-0.4013671875,-0.056640625,-0.99365234375,0.18115234375,0.625,-0.3125,-1.125
1.5849999999999882,-1.0,1.0,11.0,12.0,0.0,-10.0,-4.0,-1.0,0.37030029296875,0.5230712890625,-0.65435791015625,-0.4013671875,-0.056640625,-0.99365234375,0.18115234375,0.625,-0.3125,-1.125
1.589999999999988,-1.0,1.0,11.0,12.0,0.0,-10.0,-4.0,-1.0,0.37030029296875,0.5230712890625,-0.65435791015625,-0.4013671875,-0.056640625,-0.99365234375,0.18115234375,0.625,-0.3125,-1.125
1.594999999999988,-1.0,1.0,11.0,12.0,0.0,-10.0,-4.0,-1.0,0.37030029296875,0.5230712890625,-0.65435791015625,-0.4013671875,-0.056640625,-0.99365234375,0.18115234375,0.625,-0.3125,-1.125
1.5999999999999879,-3.0,0.0,2.0,-8.0,-22.0,-5.0,-5.0,-2.0,0.37005615234375,0.52294921875,-0.65447998046875,-0.40155029296875,-0.0634765625,-0.99365234375,0.185546875,1.4375,-0.5,-0.75
1.6049999999999878,2.0,-1.0,0.0,-13.0,-4.0,-14.0,-4.0,0.0,0.37005615234375,0.52294921875,-0.65447998046875,-0.40155029296875,-0.0634765625,-0.99365234375,0.185546875,1.4375,-0.5,-0.75
1.6099999999999877,2.0,-1.0,0.0,-13.0,-4.0,-14.0,-4.0,0.0,0.37005615234375,0.52294921875,-0.65447998046875,-0.40155029296875,-0.0634765625,-0.99365234375,0.185546875,1.4375,-0.5,-0.75
1.6149999999999876,2.0,-1.0,0.0,-13.0,-4.0,-14.0,-4.0,0.0,0.37005615234375,0.52294921875,-0.65447998046875,-0.4014892578125,-0.06787109375,-0.9921875,0.17822265625,-0.0625,-0.0625,0.0
1.6199999999999875,1.0,2.0,17.0,41.0,13.0,7.0,3.0,1.0,0.37005615234375,0.52294921875,-0.65447998046875,-0.4014892578125,-0.06787109375,-0.9921875,0.17822265625,-0.0625,-0.0625,0.0
1.6249999999999873,-1.0,-3.0,-12.0,-42.0,10.0,12.0,0.0,0.0,0.37005615234375,0.52294921875,-0.65447998046875,-0.4014892578125,-0.06787109375,-0.9921875,0.17822265625,-0.0625,-0.0625,0.0
1.6299999999999872,0.0,0.0,0.0,33.0,-4.0,0.0,-1.0,-2.0,0.37005615234375,0.52294921875,-0.65447998046875,-0.4014892578125,-0.06787109375,-0.9921875,0.17822265625,-0.0625,-0.0625,0.0
1.6349999999999871,0.0,0.0,0.0,33.0,-4.0,0.0,-1.0,-2.0,0.37005615234375,0.52294921875,-0.65447998046875,-0.4014892578125,-0.06787109375,-0.9921875,0.17822265625,-0.0625,-0.0625,0.0
1.639999999999987,0.0,0.0,0.0,33.0,-4.0,0.0,-1.0,-2.0,0.37030029296875,0.523193359375,-0.654296875,-0.40130615234375,-0.076171875,-1.00341796875,0.171875,-1.9375,0.0,-0.125
1.644999999999987,0.0,0.0,0.0,33.0,-4.0,0.0,-1.0,-2.0,0.37030029296875,0.523193359375,-0.654296875,-0.40130615234375,-0.076171875,-1.00341796875,0.171875,-1.9375,0.0,-0.125
1.6499999999999868,1.0,1.0,5.0,12.0,5.0,4.0,1.0,-2.0,0.37030029296875,0.523193359375,-0.654296875,-0.40130615234375,-0.076171875,-1.00341796875,0.171875,-1.9375,0.0,-0.125
1.6549999999999867,-1.0,0.0,-6.0,-20.0,-16.0,13.0,2.0,0.0,0.37030029296875,0.523193359375,-0.654296875,-0.40130615234375,-0.076171875,-1.00341796875,0.171875,-1.9375,0.0,-0.125
1.6599999999999866,-4.0,-5.0,2.0,17.0,4.0,-22.0,-8.0,-2.0,0.37030029296875,0.523193359375,-0.654296875,-0.40130615234375,-0.076171875,-1.00341796875,0.171875,-1.9375,0.0,-0.125
1.6649999999999865,-2.0,-4.0,-9.0,-7.0,-1.0,4.0,-1.0,-1.0,0.37060546875,0.5233154296875,-0.65411376953125,-0.40118408203125,-0.07666015625,-1.00439453125,0.1728515625,-1.3125,0.375,-0.0625
1.6699999999999864,0.0,1.0,2.0,1.0,7.0,10.0,4.0,0.0,0.37060546875,0.5233154296875,-0.65411376953125,-0.40118408203125,-0.07666015625,-1.00439453125,0.1728515625,-1.3125,0.375,-0.0625
1.6749999999999863,0.0,1.0,2.0,1.0,7.0,10.0,4.0,0.0,0.37060546875,0.5233154296875,-0.65411376953125,-0.40118408203125,-0.07666015625,-1.00439453125,0.1728515625,-1.3125,0.375,-0.0625
1.6799999999999862,0.0,1.0,2.0,1.0,7.0,10.0,4.0,0.0,0.37060546875,0.5233154296875,-0.65411376953125,-0.40118408203125,-0.07666015625,-1.00439453125,0.1728515625,-1.3125,0.375,-0.0625
1.684999999999986,-1.0,0.0,1.0,0.0,-7.0,10.0,-7.0,-2.0,0.37060546875,0.5233154296875,-0.65423583984375,-0.40093994140625,-0.072265625,-0.9970703125,0.17236328125,0.3125,-1.0625,0.6875
1.689999999999986,3.0,3.0,10.0,-3.0,2.0,-11.0,1.0,2.0,0.37060546875,0.5233154296875,-0.65423583984375,-0.40093994140625,-0.072265625,-0.9970703125,0.17236328125,0.3125,-1.0625,0.6875
1.6949999999999859,-2.0,-3.0,-5.0,-15.0,-7.0,-19.0,-6.0,-2.0,0.37060546875,0.5233154296875,-0.65423583984375,-0.40093994140625,-0.072265625,-0.9970703125,0.17236328125,0.3125,-1.0625,0.6875
1.6999999999999857,-2.0,-3.0,-5.0,-15.0,-7.0,-19.0,-6.0,-2.0,0.370849609375,0.52349853515625,-0.65423583984375,-0.4005126953125,-0.07177734375,-1.0009765625,0.17138671875,-1.5625,-0.6875,1.5625
1.7049999999999856,-2.0,-3.0,-5.0,-15.0,-7.0,-19.0,-6.0,-2.0,0.370849609375,0.52349853515625,-0.65423583984375,-0.4005126953125,-0.07177734375,-1.0009765625,0.17138671875,-1.5625,-0.6875,1.5625
1.7099999999999855,-2.0,-3.0,-5.0,-15.0,-7.0,-19.0,-6.0,-2.0,0.370849609375,0.52349853515625,-0.65423583984375,-0.4005126953125,-0.07177734375,-1.0009765625,0.17138671875,-1.5625,-0.6875,1.5625
1.7149999999999854,-3.0,-4.0,-10.0,-33.0,-3.0,1.0,2.0,-1.0,0.370849609375,0.52349853515625,-0.65423583984375,-0.4005126953125,-0.07177734375,-1.0009765625,0.17138671875,-1.5625,-0.6875,1.5625
1.7199999999999853,-3.0,-4.0,-10.0,-33.0,-3.0,1.0,2.0,-1.0,0.370849609375,0.52349853515625,-0.65423583984375,-0.4005126953125,-0.07177734375,-1.0009765625,0.17138671875,-1.5625,-0.6875,1.5625
1.7249999999999852,-3.0,-4.0,-10.0,-33.0,-3.0,1.0,2.0,-1.0,0.371337890625,0.52386474609375,-0.6541748046875,-0.3997802734375,-0.0771484375,-1.00244140625,0.173828125,-4.0,-1.3125,2.6875
1.729999999999985,0.0,2.0,5.0,24.0,-5.0,-12.0,-6.0,-3.0,0.371337890625,0.52386474609375,-0.6541748046875,-0.3997802734375,-0.0771484375,-1.00244140625,0.173828125,-4.0,-1.3125,2.6875
1.734999999999985,0.0,-1.0,2.0,-1.0,-9.0,-8.0,-3.0,-2.0,0.371337890625,0.52386474609375,-0.6541748046875,-0.3997802734375,-0.0771484375,-1.00244140625,0.173828125,-4.0,-1.3125,2.6875
1.739999999999985,0.0,-1.0,2.0,-1.0,-9.0,-8.0,-3.0,-2.0,0.371337890625,0.52386474609375,-0.6541748046875,-0.3997802734375,-0.0771484375,-1.00244140625,0.173828125,-4.0,-1.3125,2.6875
1.7449999999999848,0.0,-1.0,2.0,-1.0,-9.0,-8.0,-3.0,-2.0,0.37152099609375,0.524169921875,-0.654296875,-0.39892578125,-0.06982421875,-0.99462890625,0.173828125,-2.8125,-2.75,3.3125
1.7499999999999847,0.0,1.0,4.0,3.0,7.0,9.0,5.0,0.0,0.37152099609375,0.524169921875,-0.654296875,-0.39892578125,-0.06982421875,-0.99462890625,0.173828125,-2.8125,-2.75,3.3125
1.7549999999999846,1.0,-1.0,-6.0,-24.0,-3.0,6.0,-1.0,-3.0,0.37152099609375,0.524169921875,-0.654296875,-0.39892578125,-0.06982421875,-0.99462890625,0.173828125,-2.8125,-2.75,3.3125
1.7599999999999845,1.0,-1.0,-6.0,-24.0,-3.0,6.0,-1.0,-3.0,0.37176513671875,0.5245361328125,-0.654296875,-0.39825439453125,-0.06298828125,-0.99755859375,0.17333984375,-3.5,-1.875,3.125
1.7649999999999844,1.0,-1.0,-6.0,-24.0,-3.0,6.0,-1.0,-3.0,0.37176513671875,0.5245361328125,-0.654296875,-0.39825439453125,-0.06298828125,-0.99755859375,0.17333984375,-3.5,-1.875,3.125
1.7699999999999843,1.0,-1.0,-6.0,-24.0,-3.0,6.0,-1.0,-3.0,0.37176513671875,0.5245361328125,-0.654296875,-0.39825439453125,-0.06298828125,-0.99755859375,0.17333984375,-3.5,-1.875,3.125
1.7749999999999841,1.0,3.0,6.0,19.0,13.0,26.0,1.0,0.0,0.37176513671875,0.5245361328125,-0.654296875,-0.39825439453125,-0.06298828125,-0.99755859375,0.17333984375,-3.5,-1.875,3.125
1.779999999999984,1.0,3.0,6.0,19.0,13.0,26.0,1.0,0.0,0.37176513671875,0.5245361328125,-0.654296875,-0.39825439453125,-0.06298828125,-0.99755859375,0.17333984375,-3.5,-1.875,3.125
1.784999999999984,1.0,3.0,6.0,19.0,13.0,26.0,1.0,0.0,0.37176513671875,0.5245361328125,-0.654296875,-0.39825439453125,-0.06298828125,-0.99755859375,0.17333984375,-3.5,-1.875,3.125
1.7899999999999838,1.0,3.0,6.0,19.0,13.0,26.0,1.0,0.0,0.37213134765625,0.524658203125,-0.654296875,-0.397705078125,-0.06494140625,-0.98974609375,0.18017578125,-2.75,-0.6875,3.1875
1.7949999999999837,-4.0,0.0,1.0,7.0,-4.0,-1.0,-2.0,-1.0,0.37213134765625,0.524658203125,-0.654296875,-0.397705078125,-0.06494140625,-0.98974609375,0.18017578125,-2.75,-0.6875,3.1875
1.7999999999999836,0.0,2.0,1.0,-4.0,7.0,2.0,-2.0,1.0,0.37213134765625,0.524658203125,-0.654296875,-0.397705078125,-0.06494140625,-0.98974609375,0.18017578125,-2.75,-0.6875,3.1875
1.8049999999999835,0.0,2.0,1.0,-4.0,7.0,2.0,-2.0,1.0,0.37213134765625,0.524658203125,-0.654296875,-0.397705078125,-0.06494140625,-0.98974609375,0.18017578125,-2.75,-0.6875,3.1875
1.8099999999999834,0.0,2.0,1.0,-4.0,7.0,2.0,-2.0,1.0,0.3721923828125,0.5245361328125,-0.65460205078125,-0.39727783203125,-0.0712890625,-0.98779296875,0.1748046875,-0.0625,-1.4375,2.4375
1.8149999999999833,0.0,2.0,1.0,-4.0,7.0,2.0,-2.0,1.0,0.3721923828125,0.5245361328125,-0.65460205078125,-0.39727783203125,-0.0712890625,-0.98779296875,0.1748046875,-0.0625,-1.4375,2.4375
1.8199999999999832,-2.0,-4.0,-6.0,14.0,-1.0,-12.0,-6.0,-3.0,0.3721923828125,0.5245361328125,-0.65460205078125,-0.39727783203125,-0.0712890625,-0.98779296875,0.1748046875,-0.0625,-1.4375,2.4375
1.824999999999983,-2.0,-4.0,-6.0,14.0,-1.0,-12.0,-6.0,-3.0,0.3721923828125,0.5245361328125,-0.65460205078125,-0.39727783203125,-0.0712890625,-0.98779296875,0.1748046875,-0.0625,-1.4375,2.4375
1.829999999999983,-1.0,-1.0,-1.0,-6.0,-1.0,5.0,3.0,0.0,0.3721923828125,0.5245361328125,-0.65460205078125,-0.39727783203125,-0.0712890625,-0.98779296875,0.1748046875,-0.0625,-1.4375,2.4375
1.8349999999999829,-1.0,-1.0,-1.0,-6.0,-1.0,5.0,3.0,0.0,0.3721923828125,0.5245361328125,-0.65460205078125,-0.39727783203125,-0.0712890625,-0.98779296875,0.1748046875,-0.0625,-1.4375,2.4375
1.8399999999999828,-1.0,-1.0,-1.0,-6.0,-1.0,5.0,3.0,0.0,0.372314453125,0.5247802734375,-0.65460205078125,-0.3968505859375,-0.0673828125,-0.98876953125,0.177734375,-2.4375,-1.25,1.625
1.8449999999999827,-1.0,-1.0,-1.0,-6.0,-1.0,5.0,3.0,0.0,0.372314453125,0.5247802734375,-0.65460205078125,-0.3968505859375,-0.0673828125,-0.98876953125,0.177734375,-2.4375,-1.25,1.625
1.8499999999999825,1.0,0.0,5.0,4.0,15.0,17.0,3.0,1.0,0.372314453125,0.5247802734375,-0.65460205078125,-0.3968505859375,-0.0673828125,-0.98876953125,0.177734375,-2.4375,-1.25,1.625
1.8549999999999824,1.0,0.0,5.0,4.0,15.0,17.0,3.0,1.0,0.372314453125,0.5247802734375,-0.65460205078125,-0.3968505859375,-0.0673828125,-0.98876953125,0.177734375,-2.4375,-1.25,1.625
1.8599999999999823,1.0,0.0,5.0,4.0,15.0,17.0,3.0,1.0,0.372314453125,0.5247802734375,-0.65460205078125,-0.3968505859375,-0.0673828125,-0.98876953125,0.177734375,-2.4375,-1.25,1.625
1.8649999999999822,1.0,0.0,5.0,4.0,15.0,17.0,3.0,1.0,0.372314453125,0.5247802734375,-0.65460205078125,-0.3968505859375,-0.0673828125,-0.98876953125,0.177734375,-2.4375,-1.25,1.625
1.8699999999999821,-1.0,-2.0,-5.0,-2.0,-5.0,-8.0,-1.0,-1.0,0.372314453125,0.5252685546875,-0.65460205078125,-0.396240234375,-0.07275390625,-0.99365234375,0.17919921875,-3.625,-2.75,1.1875
1.874999999999982,-1.0,-2.0,-5.0,-2.0,-5.0,-8.0,-1.0,-1.0,0.372314453125,0.5252685546875,-0.65460205078125,-0.396240234375,-0.07275390625,-0.99365234375,0.17919921875,-3.625,-2.75,1.1875
1.879999999999982,-2.0,-3.0,-11.0,-2.0,-9.0,-4.0,-3.0,-4.0,0.372314453125,0.5252685546875,-0.65460205078125,-0.396240234375,-0.07275390625,-0.99365234375,0.17919921875,-3.625,-2.75,1.1875
1.8849999999999818,-2.0,-3.0,-11.0,-2.0,-9.0,-4.0,-3.0,-4.0,0.372314453125,0.5252685546875,-0.65460205078125,-0.396240234375,-0.07275390625,-0.99365234375,0.17919921875,-3.625,-2.75,1.1875
1.8899999999999817,-2.0,-3.0,-11.0,-2.0,-9.0,-4.0,-3.0,-4.0,0.372314453125,0.52569580078125,-0.654541015625,-0.39569091796875,-0.0693359375,-0.98876953125,0.17138671875,-3.0,-2.625,1.25
1.8949999999999816,-2.0,-3.0,-11.0,-2.0,-9.0,-4.0,-3.0,-4.0,0.372314453125,0.52569580078125,-0.654541015625,-0.39569091796875,-0.0693359375,-0.98876953125,0.17138671875,-3.0,-2.625,1.25
1.8999999999999815,0.0,-1.0,0.0,5.0,-3.0,1.0,-3.0,1.0,0.372314453125,0.52569580078125,-0.654541015625,-0.39569091796875,-0.0693359375,-0.98876953125,0.17138671875,-3.0,-2.625,1.25
1.9049999999999814,0.0,-1.0,0.0,5.0,-3.0,1.0,-3.0,1.0,0.372314453125,0.52569580078125,-0.654541015625,-0.39569091796875,-0.0693359375,-0.98876953125,0.17138671875,-3.0,-2.625,1.25
1.9099999999999813,-2.0,-2.0,-4.0,-9.0,-8.0,-26.0,-1.0,0.0,0.372314453125,0.52569580078125,-0.654541015625,-0.39569091796875,-0.0693359375,-0.98876953125,0.17138671875,-3.0,-2.625,1.25
1.9149999999999812,-2.0,-2.0,-4.0,-9.0,-8.0,-26.0,-1.0,0.0,0.372314453125,0.52569580078125,-0.654541015625,-0.39569091796875,-0.0693359375,-0.98876953125,0.17138671875,-3.0,-2.625,1.25
1.919999999999981,-2.0,-2.0,-4.0,-9.0,-8.0,-26.0,-1.0,0.0,0.37261962890625,0.52667236328125,-0.65411376953125,-0.394775390625,-0.060546875,-1.00244140625,0.169921875,-7.5625,-2.6875,2.1875
1.924999999999981,-2.0,-2.0,-4.0,-9.0,-8.0,-26.0,-1.0,0.0,0.37261962890625,0.52667236328125,-0.65411376953125,-0.394775390625,-0.060546875,-1.00244140625,0.169921875,-7.5625,-2.6875,2.1875
1.9299999999999808,0.0,3.0,5.0,9.0,6.0,5.0,2.0,0.0,0.37261962890625,0.52667236328125,-0.65411376953125,-0.394775390625,-0.060546875,-1.00244140625,0.169921875,-7.5625,-2.6875,2.1875
1.9349999999999807,0.0,3.0,5.0,9.0,6.0,5.0,2.0,0.0,0.37261962890625,0.52667236328125,-0.65411376953125,-0.394775390625,-0.060546875,-1.00244140625,0.169921875,-7.5625,-2.6875,2.1875
1.9399999999999806,0.0,3.0,5.0,9.0,6.0,5.0,2.0,0.0,0.37261962890625,0.52667236328125,-0.65411376953125,-0.394775390625,-0.060546875,-1.00244140625,0.169921875,-7.5625,-2.6875,2.1875
1.9449999999999805,0.0,3.0,5.0,9.0,6.0,5.0,2.0,0.0,0.37261962890625,0.52667236328125,-0.65411376953125,-0.394775390625,-0.060546875,-1.00244140625,0.169921875,-7.5625,-2.6875,2.1875
1.9499999999999804,-1.0,-1.0,-2.0,16.0,-10.0,4.0,1.0,-1.0,0.37298583984375,0.52764892578125,-0.65380859375,-0.39373779296875,-0.0634765625,-1.00439453125,0.1611328125,-7.25,-3.3125,2.9375
1.9549999999999803,-3.0,-1.0,-2.0,9.0,-5.0,-4.0,-2.0,-3.0,0.37298583984375,0.52764892578125,-0.65380859375,-0.39373779296875,-0.0634765625,-1.00439453125,0.1611328125,-7.25,-3.3125,2.9375
1.9599999999999802,-3.0,-1.0,-2.0,9.0,-5.0,-4.0,-2.0,-3.0,0.37298583984375,0.52764892578125,-0.65380859375,-0.39373779296875,-0.0634765625,-1.00439453125,0.1611328125,-7.25,-3.3125,2.9375
1.96499999999998,-3.0,-1.0,-2.0,9.0,-5.0,-4.0,-2.0,-3.0,0.373291015625,0.52838134765625,-0.65350341796875,-0.39300537109375,-0.064453125,-0.98388671875,0.1552734375,-5.5,-1.9375,1.8125
1.96999999999998,-3.0,-1.0,-2.0,9.0,-5.0,-4.0,-2.0,-3.0,0.373291015625,0.52838134765625,-0.65350341796875,-0.39300537109375,-0.064453125,-0.98388671875,0.1552734375,-5.5,-1.9375,1.8125
1.9749999999999799,-3.0,-1.0,-2.0,9.0,-5.0,-4.0,-2.0,-3.0,0.373291015625,0.52838134765625,-0.65350341796875,-0.39300537109375,-0.064453125,-0.98388671875,0.1552734375,-5.5,-1.9375,1.8125
1.9799999999999798,-1.0,-2.0,0.0,9.0,11.0,23.0,3.0,-3.0,0.373291015625,0.52838134765625,-0.65350341796875,-0.39300537109375,-0.064453125,-0.98388671875,0.1552734375,-5.5,-1.9375,1.8125
1.9849999999999797,-1.0,-1.0,2.0,-6.0,-3.0,-4.0,-3.0,-2.0,0.373291015625,0.52838134765625,-0.65350341796875,-0.39300537109375,-0.064453125,-0.98388671875,0.1552734375,-5.5,-1.9375,1.8125
1.9899999999999796,-1.0,-1.0,2.0,-6.0,-3.0,-4.0,-3.0,-2.0,0.373291015625,0.52838134765625,-0.65350341796875,-0.39300537109375,-0.064453125,-0.98388671875,0.1552734375,-5.5,-1.9375,1.8125
1.9949999999999795,-1.0,-1.0,2.0,-6.0,-3.0,-4.0,-3.0,-2.0,0.373291015625,0.52838134765625,-0.65350341796875,-0.39300537109375,-0.064453125,-0.98388671875,0.1552734375,-5.5,-1.9375,1.8125
1.9999999999999793,-1.0,-1.0,2.0,-6.0,-3.0,-4.0,-3.0,-2.0,0.37353515625,0.5289306640625,-0.65313720703125,-0.392578125,-0.06494140625,-0.98291015625,0.1708984375,-5.5,-0.8125,0.6875
2.0049999999999795,-1.0,-1.0,2.0,-6.0,-3.0,-4.0,-3.0,-2.0,0.37353515625,0.5289306640625,-0.65313720703125,-0.392578125,-0.06494140625,-0.98291015625,0.1708984375,-5.5,-0.8125,0.6875
2.0099999999999794,-2.0,-2.0,-10.0,-2.0,-7.0,-12.0,-2.0,0.0,0.37353515625,0.5289306640625,-0.65313720703125,-0.392578125,-0.06494140625,-0.98291015625,0.1708984375,-5.5,-0.8125,0.6875
2.0149999999999793,-2.0,-2.0,-10.0,-2.0,-7.0,-12.0,-2.0,0.0,0.37353515625,0.5289306640625,-0.65313720703125,-0.392578125,-0.06494140625,-0.98291015625,0.1708984375,-5.5,-0.8125,0.6875
2.019999999999979,-2.0,-2.0,-10.0,-2.0,-7.0,-12.0,-2.0,0.0,0.37353515625,0.5289306640625,-0.65313720703125,-0.392578125,-0.06494140625,-0.98291015625,0.1708984375,-5.5,-0.8125,0.6875
2.024999999999979,-2.0,-2.0,-10.0,-2.0,-7.0,-12.0,-2.0,0.0,0.37353515625,0.5289306640625,-0.65313720703125,-0.392578125,-0.06494140625,-0.98291015625,0.1708984375,-5.5,-0.8125,0.6875
2.029999999999979,1.0,0.0,-2.0,-11.0,0.0,1.0,3.0,0.0,0.3741455078125,0.52972412109375,-0.6524658203125,-0.39202880859375,-0.06640625,-1.029296875,0.17138671875,-7.6875,0.1875,1.5
2.034999999999979,0.0,-1.0,4.0,-4.0,15.0,29.0,-3.0,-2.0,0.3741455078125,0.52972412109375,-0.6524658203125,-0.39202880859375,-0.06640625,-1.029296875,0.17138671875,-7.6875,0.1875,1.5
2.0399999999999787,0.0,-1.0,4.0,-4.0,15.0,29.0,-3.0,-2.0,0.3741455078125,0.52972412109375,-0.6524658203125,-0.39202880859375,-0.06640625,-1.029296875,0.17138671875,-7.6875,0.1875,1.5
2.0449999999999786,0.0,-1.0,4.0,-4.0,15.0,29.0,-3.0,-2.0,0.3743896484375,0.52978515625,-0.65228271484375,-0.39202880859375,-0.080078125,-1.0126953125,0.17431640625,-2.1875,1.375,-0.125
2.0499999999999785,0.0,-1.0,4.0,-4.0,15.0,29.0,-3.0,-2.0,0.3743896484375,0.52978515625,-0.65228271484375,-0.39202880859375,-0.080078125,-1.0126953125,0.17431640625,-2.1875,1.375,-0.125
2.0549999999999784,-1.0,-2.0,-3.0,-3.0,7.0,-39.0,-1.0,1.0,0.3743896484375,0.52978515625,-0.65228271484375,-0.39202880859375,-0.080078125,-1.0126953125,0.17431640625,-2.1875,1.375,-0.125
2.0599999999999783,-1.0,-2.0,-3.0,-3.0,7.0,-39.0,-1.0,1.0,0.3743896484375,0.52978515625,-0.65228271484375,-0.39202880859375,-0.080078125,-1.0126953125,0.17431640625,-2.1875,1.375,-0.125
2.064999999999978,-1.0,-2.0,-3.0,-3.0,7.0,-39.0,-1.0,1.0,0.3743896484375,0.52978515625,-0.65228271484375,-0.39202880859375,-0.080078125,-1.0126953125,0.17431640625,-2.1875,1.375,-0.125
2.069999999999978,-1.0,-2.0,-3.0,-3.0,7.0,-39.0,-1.0,1.0,0.3743896484375,0.52978515625,-0.65228271484375,-0.39202880859375,-0.080078125,-1.0126953125,0.17431640625,-2.1875,1.375,-0.125
2.074999999999978,-1.0,-2.0,-2.0,-3.0,-13.0,-21.0,-2.0,1.0,0.37451171875,0.52972412109375,-0.652099609375,-0.392333984375,-0.08056640625,-1.00244140625,0.16943359375,-0.625,1.6875,-1.4375
2.079999999999978,-1.0,-2.0,-2.0,-3.0,-13.0,-21.0,-2.0,1.0,0.37451171875,0.52972412109375,-0.652099609375,-0.392333984375,-0.08056640625,-1.00244140625,0.16943359375,-0.625,1.6875,-1.4375
2.0849999999999778,0.0,3.0,16.0,36.0,11.0,8.0,-1.0,-1.0,0.37451171875,0.52972412109375,-0.652099609375,-0.392333984375,-0.08056640625,-1.00244140625,0.16943359375,-0.625,1.6875,-1.4375
2.0899999999999777,0.0,3.0,16.0,36.0,11.0,8.0,-1.0,-1.0,0.37451171875,0.52972412109375,-0.652099609375,-0.392333984375,-0.08056640625,-1.00244140625,0.16943359375,-0.625,1.6875,-1.4375
2.0949999999999775,0.0,3.0,16.0,36.0,11.0,8.0,-1.0,-1.0,0.37451171875,0.52972412109375,-0.652099609375,-0.392333984375,-0.08056640625,-1.00244140625,0.16943359375,-0.625,1.6875,-1.4375
2.0999999999999774,-1.0,-1.0,-3.0,4.0,-2.0,-5.0,-6.0,0.0,0.374755859375,0.53009033203125,-0.651611328125,-0.39239501953125,-0.06689453125,-1.005859375,0.16455078125,-3.5625,1.4375,-1.125
2.1049999999999773,-3.0,-5.0,-7.0,30.0,-9.0,-8.0,-4.0,-2.0,0.374755859375,0.53009033203125,-0.651611328125,-0.39239501953125,-0.06689453125,-1.005859375,0.16455078125,-3.5625,1.4375,-1.125
2.1099999999999772,-3.0,-5.0,-7.0,30.0,-9.0,-8.0,-4.0,-2.0,0.374755859375,0.53009033203125,-0.651611328125,-0.39239501953125,-0.06689453125,-1.005859375,0.16455078125,-3.5625,1.4375,-1.125
2.114999999999977,-3.0,-5.0,-7.0,30.0,-9.0,-8.0,-4.0,-2.0,0.375,0.5302734375,-0.65118408203125,-0.39263916015625,-0.0654296875,-1.009765625,0.16796875,-2.8125,2.4375,-0.875
2.119999999999977,-3.0,-5.0,-7.0,30.0,-9.0,-8.0,-4.0,-2.0,0.375,0.5302734375,-0.65118408203125,-0.39263916015625,-0.0654296875,-1.009765625,0.16796875,-2.8125,2.4375,-0.875
2.124999999999977,-1.0,-1.0,9.0,29.0,10.0,-10.0,-1.0,-1.0,0.375,0.5302734375,-0.65118408203125,-0.39263916015625,-0.0654296875,-1.009765625,0.16796875,-2.8125,2.4375,-0.875
2.129999999999977,2.0,1.0,4.0,-4.0,0.0,9.0,3.0,0.0,0.375,0.5302734375,-0.65118408203125,-0.39263916015625,-0.0654296875,-1.009765625,0.16796875,-2.8125,2.4375,-0.875
2.1349999999999767,2.0,1.0,4.0,-4.0,0.0,9.0,3.0,0.0,0.375,0.5302734375,-0.65118408203125,-0.39263916015625,-0.0654296875,-1.009765625,0.16796875,-2.8125,2.4375,-0.875
2.1399999999999766,2.0,1.0,4.0,-4.0,0.0,9.0,3.0,0.0,0.37554931640625,0.5302734375,-0.65087890625,-0.392578125,-0.07666015625,-1.00146484375,0.15478515625,-2.0625,2.25,0.75
2.1449999999999765,2.0,1.0,4.0,-4.0,0.0,9.0,3.0,0.0,0.37554931640625,0.5302734375,-0.65087890625,-0.392578125,-0.07666015625,-1.00146484375,0.15478515625,-2.0625,2.25,0.75
2.1499999999999764,1.0,1.0,-1.0,-8.0,16.0,7.0,0.0,-1.0,0.37554931640625,0.5302734375,-0.65087890625,-0.392578125,-0.07666015625,-1.00146484375,0.15478515625,-2.0625,2.25,0.75
2.1549999999999763,1.0,1.0,-1.0,-8.0,16.0,7.0,0.0,-1.0,0.37554931640625,0.5302734375,-0.65087890625,-0.392578125,-0.07666015625,-1.00146484375,0.15478515625,-2.0625,2.25,0.75
2.159999999999976,1.0,1.0,-1.0,-8.0,16.0,7.0,0.0,-1.0,0.37554931640625,0.5302734375,-0.65087890625,-0.392578125,-0.07666015625,-1.00146484375,0.15478515625,-2.0625,2.25,0.75
2.164999999999976,1.0,1.0,-1.0,-8.0,16.0,7.0,0.0,-1.0,0.37554931640625,0.5302734375,-0.65087890625,-0.392578125,-0.07666015625,-1.00146484375,0.15478515625,-2.0625,2.25,0.75
2.169999999999976,0.0,-2.0,-2.0,12.0,-6.0,-1.0,1.0,-1.0,0.376220703125,0.5302734375,-0.650634765625,-0.39239501953125,-0.076171875,-1.00439453125,0.15478515625,-2.375,2.5625,2.25
2.174999999999976,0.0,-2.0,-5.0,-7.0,4.0,-4.0,-1.0,-2.0,0.376220703125,0.5302734375,-0.650634765625,-0.39239501953125,-0.076171875,-1.00439453125,0.15478515625,-2.375,2.5625,2.25
2.1799999999999757,0.0,-2.0,-5.0,-7.0,4.0,-4.0,-1.0,-2.0,0.3770751953125,0.53009033203125,-0.650390625,-0.3922119140625,-0.08056640625,-0.9990234375,0.1572265625,-2.625,3.5625,2.875
2.1849999999999756,0.0,-2.0,-5.0,-7.0,4.0,-4.0,-1.0,-2.0,0.3770751953125,0.53009033203125,-0.650390625,-0.3922119140625,-0.08056640625,-0.9990234375,0.1572265625,-2.625,3.5625,2.875
2.1899999999999755,-2.0,-3.0,1.0,2.0,8.0,8.0,0.0,1.0,0.3770751953125,0.53009033203125,-0.650390625,-0.3922119140625,-0.08056640625,-0.9990234375,0.1572265625,-2.625,3.5625,2.875
2.1949999999999754,-3.0,-3.0,-3.0,3.0,-6.0,-11.0,-3.0,-1.0,0.3770751953125,0.53009033203125,-0.650390625,-0.3922119140625,-0.08056640625,-0.9990234375,0.1572265625,-2.625,3.5625,2.875
2.1999999999999753,-3.0,-3.0,-3.0,3.0,-6.0,-11.0,-3.0,-1.0,0.3770751953125,0.53009033203125,-0.650390625,-0.3922119140625,-0.08056640625,-0.9990234375,0.1572265625,-2.625,3.5625,2.875
2.204999999999975,-3.0,-3.0,-3.0,3.0,-6.0,-11.0,-3.0,-1.0,0.37811279296875,0.5296630859375,-0.65020751953125,-0.39202880859375,-0.08837890625,-0.99560546875,0.158203125,-2.1875,4.375,3.5
2.209999999999975,-1.0,-1.0,-5.0,-1.0,-7.0,6.0,-3.0,-1.0,0.37811279296875,0.5296630859375,-0.65020751953125,-0.39202880859375,-0.08837890625,-0.99560546875,0.158203125,-2.1875,4.375,3.5
2.214999999999975,-1.0,-1.0,-5.0,-1.0,-7.0,6.0,-3.0,-1.0,0.37811279296875,0.5296630859375,-0.65020751953125,-0.39202880859375,-0.08837890625,-0.99560546875,0.158203125,-2.1875,4.375,3.5
2.219999999999975,-1.0,-1.0,-3.0,-30.0,-12.0,1.0,2.0,-1.0,0.37811279296875,0.5296630859375,-0.65020751953125,-0.39202880859375,-0.08837890625,-0.99560546875,0.158203125,-2.1875,4.375,3.5
2.2249999999999748,-1.0,-1.0,-3.0,-30.0,-12.0,1.0,2.0,-1.0,0.37811279296875,0.5296630859375,-0.65020751953125,-0.39202880859375,-0.08837890625,-0.99560546875,0.158203125,-2.1875,4.375,3.5
2.2299999999999747,-1.0,-2.0,0.0,-10.0,8.0,8.0,1.0,1.0,0.37908935546875,0.52947998046875,-0.64990234375,-0.39190673828125,-0.09130859375,-0.9921875,0.15185546875,-2.8125,4.125,2.1875
2.2349999999999746,-1.0,-2.0,0.0,-10.0,8.0,8.0,1.0,1.0,0.37908935546875,0.52947998046875,-0.64990234375,-0.39190673828125,-0.09130859375,-0.9921875,0.15185546875,-2.8125,4.125,2.1875
2.2399999999999745,-2.0,-2.0,1.0,-7.0,-4.0,-4.0,-1.0,-3.0,0.37908935546875,0.52947998046875,-0.64990234375,-0.39190673828125,-0.09130859375,-0.9921875,0.15185546875,-2.8125,4.125,2.1875
2.2449999999999743,-2.0,-2.0,1.0,-7.0,-4.0,-4.0,-1.0,-3.0,0.37908935546875,0.52947998046875,-0.64990234375,-0.39190673828125,-0.09130859375,-0.9921875,0.15185546875,-2.8125,4.125,2.1875
2.2499999999999742,-2.0,-2.0,1.0,-7.0,-4.0,-4.0,-1.0,-3.0,0.37908935546875,0.52947998046875,-0.64990234375,-0.39190673828125,-0.09130859375,-0.9921875,0.15185546875,-2.8125,4.125,2.1875
2.254999999999974,3.0,-1.0,1.0,4.0,-19.0,-15.0,-2.0,1.0,0.37982177734375,0.529296875,-0.64959716796875,-0.39190673828125,-0.078125,-1.0009765625,0.14990234375,-1.375,3.875,2.0625
2.259999999999974,3.0,-1.0,1.0,4.0,-19.0,-15.0,-2.0,1.0,0.37982177734375,0.529296875,-0.64959716796875,-0.39190673828125,-0.078125,-1.0009765625,0.14990234375,-1.375,3.875,2.0625
2.264999999999974,-1.0,-2.0,-3.0,-5.0,-5.0,11.0,-1.0,-1.0,0.37982177734375,0.529296875,-0.64959716796875,-0.39190673828125,-0.078125,-1.0009765625,0.14990234375,-1.375,3.875,2.0625
2.269999999999974,-1.0,-2.0,-3.0,-5.0,-5.0,11.0,-1.0,-1.0,0.3804931640625,0.529052734375,-0.6494140625,-0.39190673828125,-0.07568359375,-0.9990234375,0.1416015625,-0.625,3.4375,2.25
2.2749999999999737,-1.0,-2.0,-3.0,-5.0,-5.0,11.0,-1.0,-1.0,0.3804931640625,0.529052734375,-0.6494140625,-0.39190673828125,-0.07568359375,-0.9990234375,0.1416015625,-0.625,3.4375,2.25
2.2799999999999736,-1.0,-2.0,-3.0,-5.0,-5.0,11.0,-1.0,-1.0,0.3804931640625,0.529052734375,-0.6494140625,-0.39190673828125,-0.07568359375,-0.9990234375,0.1416015625,-0.625,3.4375,2.25
2.2849999999999735,-3.0,-3.0,-5.0,3.0,2.0,-15.0,-8.0,-4.0,0.3804931640625,0.529052734375,-0.6494140625,-0.39190673828125,-0.07568359375,-0.9990234375,0.1416015625,-0.625,3.4375,2.25
2.2899999999999734,-1.0,-3.0,0.0,-7.0,-10.0,13.0,-1.0,-1.0,0.3804931640625,0.529052734375,-0.6494140625,-0.39190673828125,-0.07568359375,-0.9990234375,0.1416015625,-0.625,3.4375,2.25
2.2949999999999733,-3.0,1.0,-6.0,-27.0,-3.0,-7.0,-2.0,-2.0,0.3804931640625,0.529052734375,-0.6494140625,-0.39190673828125,-0.07568359375,-0.9990234375,0.1416015625,-0.625,3.4375,2.25
2.299999999999973,-3.0,-4.0,-5.0,-12.0,-8.0,-2.0,-4.0,-5.0,0.38116455078125,0.52886962890625,-0.6492919921875,-0.39178466796875,-0.0810546875,-0.99658203125,0.13671875,-0.4375,2.625,2.625
2.304999999999973,0.0,-4.0,-5.0,7.0,0.0,-1.0,-1.0,-2.0,0.38116455078125,0.52886962890625,-0.6492919921875,-0.39178466796875,-0.0810546875,-0.99658203125,0.13671875,-0.4375,2.625,2.625
2.309999999999973,0.0,1.0,2.0,-4.0,6.0,23.0,-2.0,-3.0,0.38116455078125,0.52886962890625,-0.6492919921875,-0.39178466796875,-0.0810546875,-0.99658203125,0.13671875,-0.4375,2.625,2.625
2.314999999999973,0.0,1.0,2.0,-4.0,6.0,23.0,-2.0,-3.0,0.3818359375,0.52886962890625,-0.64910888671875,-0.39141845703125,-0.08349609375,-0.99609375,0.14013671875,-2.3125,1.75,3.0625
2.3199999999999728,0.0,1.0,2.0,-4.0,6.0,23.0,-2.0,-3.0,0.3818359375,0.52886962890625,-0.64910888671875,-0.39141845703125,-0.08349609375,-0.99609375,0.14013671875,-2.3125,1.75,3.0625
2.3249999999999726,-3.0,-2.0,1.0,-9.0,3.0,-12.0,0.0,1.0,0.3818359375,0.52886962890625,-0.64910888671875,-0.39141845703125,-0.08349609375,-0.99609375,0.14013671875,-2.3125,1.75,3.0625
2.3299999999999725,0.0,-2.0,-5.0,-9.0,-7.0,4.0,-2.0,0.0,0.3818359375,0.52886962890625,-0.64910888671875,-0.39141845703125,-0.08349609375,-0.99609375,0.14013671875,-2.3125,1.75,3.0625
2.3349999999999724,0.0,-2.0,-5.0,-9.0,-7.0,4.0,-2.0,0.0,0.3818359375,0.52886962890625,-0.64910888671875,-0.39141845703125,-0.08349609375,-0.99609375,0.14013671875,-2.3125,1.75,3.0625
2.3399999999999723,0.0,-2.0,-5.0,-9.0,-7.0,4.0,-2.0,0.0,0.382568359375,0.52880859375,-0.64886474609375,-0.39117431640625,-0.08544921875,-1.00048828125,0.154296875,-2.9375,2.5,2.5
2.344999999999972,2.0,2.0,-5.0,-4.0,-2.0,11.0,1.0,-3.0,0.382568359375,0.52880859375,-0.64886474609375,-0.39117431640625,-0.08544921875,-1.00048828125,0.154296875,-2.9375,2.5,2.5
2.349999999999972,0.0,-1.0,2.0,35.0,-3.0,-18.0,-4.0,-1.0,0.382568359375,0.52880859375,-0.64886474609375,-0.39117431640625,-0.08544921875,-1.00048828125,0.154296875,-2.9375,2.5,2.5
2.354999999999972,0.0,-1.0,2.0,35.0,-3.0,-18.0,-4.0,-1.0,0.382568359375,0.52880859375,-0.64886474609375,-0.39117431640625,-0.08544921875,-1.00048828125,0.154296875,-2.9375,2.5,2.5
2.359999999999972,-3.0,-3.0,-12.0,-17.0,-5.0,-12.0,-3.0,-1.0,0.38311767578125,0.52886962890625,-0.6485595703125,-0.3909912109375,-0.08740234375,-1.00390625,0.15283203125,-3.125,2.125,1.3125
2.364999999999972,-1.0,-1.0,2.0,15.0,-2.0,-13.0,-2.0,1.0,0.38311767578125,0.52886962890625,-0.6485595703125,-0.3909912109375,-0.08740234375,-1.00390625,0.15283203125,-3.125,2.125,1.3125
2.3699999999999717,-1.0,-1.0,2.0,15.0,-2.0,-13.0,-2.0,1.0,0.38311767578125,0.52886962890625,-0.6485595703125,-0.3909912109375,-0.08740234375,-1.00390625,0.15283203125,-3.125,2.125,1.3125
2.3749999999999716,-1.0,-1.0,2.0,15.0,-2.0,-13.0,-2.0,1.0,0.38360595703125,0.52899169921875,-0.648193359375,-0.39105224609375,-0.08056640625,-1.00634765625,0.1484375,-2.5,2.4375,0.625
2.3799999999999715,-1.0,-1.0,2.0,15.0,-2.0,-13.0,-2.0,1.0,0.38360595703125,0.52899169921875,-0.648193359375,-0.39105224609375,-0.08056640625,-1.00634765625,0.1484375,-2.5,2.4375,0.625
2.3849999999999714,-3.0,-4.0,-8.0,-1.0,0.0,17.0,0.0,-3.0,0.38360595703125,0.52899169921875,-0.648193359375,-0.39105224609375,-0.08056640625,-1.00634765625,0.1484375,-2.5,2.4375,0.625
2.3899999999999713,-3.0,-4.0,-8.0,-1.0,0.0,17.0,0.0,-3.0,0.38360595703125,0.52899169921875,-0.648193359375,-0.39105224609375,-0.08056640625,-1.00634765625,0.1484375,-2.5,2.4375,0.625
2.394999999999971,-2.0,-2.0,2.0,5.0,5.0,-12.0,5.0,0.0,0.38360595703125,0.52899169921875,-0.648193359375,-0.39105224609375,-0.08056640625,-1.00634765625,0.1484375,-2.5,2.4375,0.625
2.399999999999971,-2.0,-2.0,2.0,5.0,5.0,-12.0,5.0,0.0,0.38360595703125,0.52899169921875,-0.648193359375,-0.39105224609375,-0.08056640625,-1.00634765625,0.1484375,-2.5,2.4375,0.625
2.404999999999971,-2.0,-2.0,2.0,5.0,5.0,-12.0,5.0,0.0,0.38397216796875,0.52880859375,-0.6480712890625,-0.3909912109375,-0.0927734375,-0.99609375,0.14794921875,-0.8125,2.0625,0.8125
2.409999999999971,-2.0,-2.0,2.0,5.0,5.0,-12.0,5.0,0.0,0.38397216796875,0.52880859375,-0.6480712890625,-0.3909912109375,-0.0927734375,-0.99609375,0.14794921875,-0.8125,2.0625,0.8125
2.4149999999999707,0.0,1.0,6.0,-5.0,1.0,20.0,3.0,-2.0,0.38397216796875,0.52880859375,-0.6480712890625,-0.3909912109375,-0.0927734375,-0.99609375,0.14794921875,-0.8125,2.0625,0.8125
2.4199999999999706,0.0,1.0,6.0,-5.0,1.0,20.0,3.0,-2.0,0.38397216796875,0.52880859375,-0.6480712890625,-0.3909912109375,-0.0927734375,-0.99609375,0.14794921875,-0.8125,2.0625,0.8125
2.4249999999999705,-2.0,-4.0,-7.0,-17.0,-14.0,-24.0,-6.0,-1.0,0.38397216796875,0.52880859375,-0.6480712890625,-0.3909912109375,-0.0927734375,-0.99609375,0.14794921875,-0.8125,2.0625,0.8125
2.4299999999999704,-2.0,-4.0,-7.0,-17.0,-14.0,-24.0,-6.0,-1.0,0.38397216796875,0.52880859375,-0.6480712890625,-0.3909912109375,-0.0927734375,-0.99609375,0.14794921875,-0.8125,2.0625,0.8125
2.4349999999999703,-2.0,-4.0,-7.0,-17.0,-14.0,-24.0,-6.0,-1.0,0.384033203125,0.52880859375,-0.6480712890625,-0.3909912109375,-0.0947265625,-0.99560546875,0.1376953125,0.25,0.4375,0.75
2.43999999999997,-2.0,-4.0,-7.0,-17.0,-14.0,-24.0,-6.0,-1.0,0.384033203125,0.52880859375,-0.6480712890625,-0.3909912109375,-0.0947265625,-0.99560546875,0.1376953125,0.25,0.4375,0.75
2.44499999999997,1.0,0.0,6.0,19.0,-3.0,-11.0,-1.0,2.0,0.384033203125,0.52880859375,-0.6480712890625,-0.3909912109375,-0.0947265625,-0.99560546875,0.1376953125,0.25,0.4375,0.75
2.44999999999997,1.0,0.0,6.0,19.0,-3.0,-11.0,-1.0,2.0,0.384033203125,0.52880859375,-0.6480712890625,-0.3909912109375,-0.0947265625,-0.99560546875,0.1376953125,0.25,0.4375,0.75
2.45499999999997,0.0,0.0,2.0,-23.0,21.0,9.0,0.0,-1.0,0.38427734375,0.52899169921875,-0.64794921875,-0.39080810546875,-0.08837890625,-1.0,0.1396484375,-1.5,0.0,0.5625
2.4599999999999698,0.0,0.0,2.0,-23.0,21.0,9.0,0.0,-1.0,0.38427734375,0.52899169921875,-0.64794921875,-0.39080810546875,-0.08837890625,-1.0,0.1396484375,-1.5,0.0,0.5625
2.4649999999999697,-3.0,-2.0,2.0,5.0,-6.0,-9.0,-3.0,-2.0,0.38427734375,0.52899169921875,-0.64794921875,-0.39080810546875,-0.08837890625,-1.0,0.1396484375,-1.5,0.0,0.5625
2.4699999999999696,-3.0,-2.0,2.0,5.0,-6.0,-9.0,-3.0,-2.0,0.38427734375,0.52899169921875,-0.64794921875,-0.39080810546875,-0.08837890625,-1.0,0.1396484375,-1.5,0.0,0.5625
2.4749999999999694,1.0,2.0,3.0,-6.0,-4.0,3.0,1.0,0.0,0.38427734375,0.52899169921875,-0.64794921875,-0.39080810546875,-0.08837890625,-1.0,0.1396484375,-1.5,0.0,0.5625
2.4799999999999693,1.0,2.0,3.0,-6.0,-4.0,3.0,1.0,0.0,0.38427734375,0.52899169921875,-0.64794921875,-0.39080810546875,-0.08837890625,-1.0,0.1396484375,-1.5,0.0,0.5625
2.4849999999999692,1.0,2.0,3.0,-6.0,-4.0,3.0,1.0,0.0,0.38427734375,0.52899169921875,-0.64788818359375,-0.3907470703125,-0.08935546875,-0.99853515625,0.13232421875,-0.4375,0.1875,0.5625
2.489999999999969,1.0,2.0,3.0,-6.0,-4.0,3.0,1.0,0.0,0.38427734375,0.52899169921875,-0.64788818359375,-0.3907470703125,-0.08935546875,-0.99853515625,0.13232421875,-0.4375,0.1875,0.5625
2.494999999999969,0.0,-1.0,1.0,6.0,5.0,-3.0,1.0,-1.0,0.38427734375,0.52899169921875,-0.64788818359375,-0.3907470703125,-0.08935546875,-0.99853515625,0.13232421875,-0.4375,0.1875,0.5625
2.499999999999969,0.0,-1.0,1.0,6.0,5.0,-3.0,1.0,-1.0,0.38427734375,0.52899169921875,-0.64788818359375,-0.3907470703125,-0.08935546875,-0.99853515625,0.13232421875,-0.4375,0.1875,0.5625
2.504999999999969,-2.0,-3.0,-4.0,-3.0,-10.0,-2.0,-4.0,-3.0,0.38427734375,0.52899169921875,-0.64788818359375,-0.3907470703125,-0.08935546875,-0.99853515625,0.13232421875,-0.4375,0.1875,0.5625
2.5099999999999687,-2.0,-3.0,-4.0,-3.0,-10.0,-2.0,-4.0,-3.0,0.38427734375,0.52899169921875,-0.64788818359375,-0.3907470703125,-0.08935546875,-0.99853515625,0.13232421875,-0.4375,0.1875,0.5625
2.5149999999999686,-2.0,-3.0,-4.0,-3.0,-10.0,-2.0,-4.0,-3.0,0.38427734375,0.529052734375,-0.64788818359375,-0.3907470703125,-0.09033203125,-0.9990234375,0.12646484375,0.5,0.125,0.75
2.5199999999999685,-2.0,-3.0,-4.0,-3.0,-10.0,-2.0,-4.0,-3.0,0.38427734375,0.529052734375,-0.64788818359375,-0.3907470703125,-0.09033203125,-0.9990234375,0.12646484375,0.5,0.125,0.75
2.5249999999999684,-1.0,0.0,-1.0,14.0,6.0,22.0,2.0,-2.0,0.38427734375,0.529052734375,-0.64788818359375,-0.3907470703125,-0.09033203125,-0.9990234375,0.12646484375,0.5,0.125,0.75
2.5299999999999683,-1.0,0.0,-1.0,14.0,6.0,22.0,2.0,-2.0,0.38427734375,0.529052734375,-0.64788818359375,-0.3907470703125,-0.09033203125,-0.9990234375,0.12646484375,0.5,0.125,0.75
2.534999999999968,-1.0,0.0,-1.0,14.0,6.0,22.0,2.0,-2.0,0.384765625,0.529296875,-0.64752197265625,-0.39056396484375,-0.08935546875,-0.9990234375,0.119140625,-1.75,1.1875,0.3125
2.539999999999968,-1.0,0.0,-1.0,14.0,6.0,22.0,2.0,-2.0,0.384765625,0.529296875,-0.64752197265625,-0.39056396484375,-0.08935546875,-0.9990234375,0.119140625,-1.75,1.1875,0.3125
2.544999999999968,0.0,1.0,1.0,-14.0,6.0,-23.0,-3.0,0.0,0.384765625,0.529296875,-0.64752197265625,-0.39056396484375,-0.08935546875,-0.9990234375,0.119140625,-1.75,1.1875,0.3125
2.549999999999968,0.0,1.0,1.0,-14.0,6.0,-23.0,-3.0,0.0,0.384765625,0.529296875,-0.64752197265625,-0.39056396484375,-0.08935546875,-0.9990234375,0.119140625,-1.75,1.1875,0.3125
2.5549999999999677,-2.0,-6.0,-5.0,10.0,-5.0,20.0,6.0,1.0,0.384765625,0.529296875,-0.64752197265625,-0.39056396484375,-0.08935546875,-0.9990234375,0.119140625,-1.75,1.1875,0.3125
2.5599999999999676,-2.0,-6.0,-5.0,10.0,-5.0,20.0,6.0,1.0,0.384765625,0.529296875,-0.64752197265625,-0.39056396484375,-0.08935546875,-0.9990234375,0.119140625,-1.75,1.1875,0.3125
2.5649999999999675,-2.0,-6.0,-5.0,10.0,-5.0,20.0,6.0,1.0,0.38507080078125,0.52935791015625,-0.64727783203125,-0.39056396484375,-0.08740234375,-0.994140625,0.13232421875,-0.75,1.3125,0.25
2.5699999999999674,-2.0,-6.0,-5.0,10.0,-5.0,20.0,6.0,1.0,0.38507080078125,0.52935791015625,-0.64727783203125,-0.39056396484375,-0.08740234375,-0.994140625,0.13232421875,-0.75,1.3125,0.25
2.5749999999999673,0.0,1.0,-1.0,-12.0,4.0,21.0,3.0,2.0,0.38507080078125,0.52935791015625,-0.64727783203125,-0.39056396484375,-0.08740234375,-0.994140625,0.13232421875,-0.75,1.3125,0.25
2.579999999999967,-2.0,0.0,0.0,-4.0,-26.0,-21.0,-2.0,0.0,0.38507080078125,0.52935791015625,-0.64727783203125,-0.39056396484375,-0.08740234375,-0.994140625,0.13232421875,-0.75,1.3125,0.25
2.584999999999967,-2.0,0.0,0.0,-4.0,-26.0,-21.0,-2.0,0.0,0.38507080078125,0.52935791015625,-0.64727783203125,-0.39056396484375,-0.08740234375,-0.994140625,0.13232421875,-0.75,1.3125,0.25
2.589999999999967,-2.0,0.0,0.0,-4.0,-26.0,-21.0,-2.0,0.0,0.38543701171875,0.5294189453125,-0.64697265625,-0.390625,-0.08056640625,-0.9951171875,0.134765625,-1.5625,2.0,0.5
2.594999999999967,-2.0,0.0,0.0,-4.0,-26.0,-21.0,-2.0,0.0,0.38543701171875,0.5294189453125,-0.64697265625,-0.390625,-0.08056640625,-0.9951171875,0.134765625,-1.5625,2.0,0.5
2.599999999999967,-3.0,-5.0,-8.0,-8.0,0.0,3.0,-4.0,-1.0,0.38543701171875,0.5294189453125,-0.64697265625,-0.390625,-0.08056640625,-0.9951171875,0.134765625,-1.5625,2.0,0.5
2.6049999999999667,-1.0,-1.0,-3.0,-4.0,6.0,-34.0,-5.0,-3.0,0.38543701171875,0.5294189453125,-0.64697265625,-0.390625,-0.08056640625,-0.9951171875,0.134765625,-1.5625,2.0,0.5
2.6099999999999666,-1.0,-1.0,-3.0,-4.0,6.0,-34.0,-5.0,-3.0,0.38580322265625,0.529296875,-0.6468505859375,-0.39068603515625,-0.0849609375,-1.0068359375,0.146484375,-0.625,2.3125,0.875
2.6149999999999665,-1.0,-1.0,-3.0,-4.0,6.0,-34.0,-5.0,-3.0,0.38580322265625,0.529296875,-0.6468505859375,-0.39068603515625,-0.0849609375,-1.0068359375,0.146484375,-0.625,2.3125,0.875
2.6199999999999664,0.0,-1.0,-5.0,-5.0,-10.0,20.0,-6.0,-2.0,0.38580322265625,0.529296875,-0.6468505859375,-0.39068603515625,-0.0849609375,-1.0068359375,0.146484375,-0.625,2.3125,0.875
2.6249999999999662,0.0,-1.0,-5.0,-5.0,-10.0,20.0,-6.0,-2.0,0.38580322265625,0.529296875,-0.6468505859375,-0.39068603515625,-0.0849609375,-1.0068359375,0.146484375,-0.625,2.3125,0.875
2.629999999999966,0.0,-2.0,-7.0,-5.0,5.0,12.0,4.0,0.0,0.38580322265625,0.529296875,-0.6468505859375,-0.39068603515625,-0.0849609375,-1.0068359375,0.146484375,-0.625,2.3125,0.875
2.634999999999966,0.0,-2.0,-7.0,-5.0,5.0,12.0,4.0,0.0,0.38580322265625,0.529296875,-0.6468505859375,-0.39068603515625,-0.0849609375,-1.0068359375,0.146484375,-0.625,2.3125,0.875
2.639999999999966,0.0,-2.0,-7.0,-5.0,5.0,12.0,4.0,0.0,0.3861083984375,0.5291748046875,-0.6466064453125,-0.39093017578125,-0.08447265625,-1.01025390625,0.15283203125,-1.125,2.5625,0.0
2.644999999999966,-1.0,1.0,1.0,16.0,-1.0,-1.0,-5.0,-2.0,0.3861083984375,0.5291748046875,-0.6466064453125,-0.39093017578125,-0.08447265625,-1.01025390625,0.15283203125,-1.125,2.5625,0.0
2.6499999999999657,-1.0,1.0,1.0,16.0,-1.0,-1.0,-5.0,-2.0,0.3861083984375,0.5291748046875,-0.6466064453125,-0.39093017578125,-0.08447265625,-1.01025390625,0.15283203125,-1.125,2.5625,0.0
2.6549999999999656,-1.0,1.0,1.0,16.0,-1.0,-1.0,-5.0,-2.0,0.3861083984375,0.5291748046875,-0.6466064453125,-0.39093017578125,-0.08447265625,-1.01025390625,0.15283203125,-1.125,2.5625,0.0
2.6599999999999655,-1.0,1.0,2.0,4.0,8.0,11.0,0.0,-1.0,0.3861083984375,0.5291748046875,-0.6466064453125,-0.39093017578125,-0.08447265625,-1.01025390625,0.15283203125,-1.125,2.5625,0.0
2.6649999999999654,-1.0,1.0,2.0,4.0,8.0,11.0,0.0,-1.0,0.3861083984375,0.52911376953125,-0.64654541015625,-0.39117431640625,-0.0859375,-1.0126953125,0.1435546875,0.6875,1.125,-0.6875
2.6699999999999653,-1.0,1.0,2.0,4.0,8.0,11.0,0.0,-1.0,0.3861083984375,0.52911376953125,-0.64654541015625,-0.39117431640625,-0.0859375,-1.0126953125,0.1435546875,0.6875,1.125,-0.6875
2.674999999999965,1.0,1.0,5.0,15.0,5.0,-7.0,0.0,1.0,0.3861083984375,0.52911376953125,-0.64654541015625,-0.39117431640625,-0.0859375,-1.0126953125,0.1435546875,0.6875,1.125,-0.6875
2.679999999999965,1.0,1.0,5.0,15.0,5.0,-7.0,0.0,1.0,0.38592529296875,0.52899169921875,-0.6466064453125,-0.391357421875,-0.08251953125,-1.00244140625,0.1435546875,1.3125,0.0625,-0.5625
2.684999999999965,1.0,1.0,5.0,15.0,5.0,-7.0,0.0,1.0,0.38592529296875,0.52899169921875,-0.6466064453125,-0.391357421875,-0.08251953125,-1.00244140625,0.1435546875,1.3125,0.0625,-0.5625
2.689999999999965,1.0,1.0,5.0,15.0,5.0,-7.0,0.0,1.0,0.38592529296875,0.52899169921875,-0.6466064453125,-0.391357421875,-0.08251953125,-1.00244140625,0.1435546875,1.3125,0.0625,-0.5625
2.6949999999999648,0.0,-2.0,1.0,-5.0,-7.0,4.0,-1.0,-3.0,0.38592529296875,0.52899169921875,-0.6466064453125,-0.391357421875,-0.08251953125,-1.00244140625,0.1435546875,1.3125,0.0625,-0.5625
2.6999999999999647,-3.0,-2.0,2.0,-6.0,-24.0,8.0,2.0,-1.0,0.38592529296875,0.52899169921875,-0.6466064453125,-0.391357421875,-0.08251953125,-1.00244140625,0.1435546875,1.3125,0.0625,-0.5625
2.7049999999999645,-3.0,-2.0,2.0,-6.0,-24.0,8.0,2.0,-1.0,0.38592529296875,0.52899169921875,-0.6466064453125,-0.391357421875,-0.080078125,-0.998046875,0.14013671875,0.6875,-0.1875,-0.875
2.7099999999999644,-3.0,-2.0,2.0,-6.0,-24.0,8.0,2.0,-1.0,0.38592529296875,0.52899169921875,-0.6466064453125,-0.391357421875,-0.080078125,-0.998046875,0.14013671875,0.6875,-0.1875,-0.875
2.7149999999999643,-1.0,1.0,2.0,-4.0,-2.0,-30.0,-2.0,3.0,0.38592529296875,0.52899169921875,-0.6466064453125,-0.391357421875,-0.080078125,-0.998046875,0.14013671875,0.6875,-0.1875,-0.875
2.7199999999999642,-1.0,1.0,2.0,-4.0,-2.0,-30.0,-2.0,3.0,0.38592529296875,0.52899169921875,-0.6466064453125,-0.391357421875,-0.080078125,-0.998046875,0.14013671875,0.6875,-0.1875,-0.875
2.724999999999964,-1.0,1.0,2.0,-4.0,-2.0,-30.0,-2.0,3.0,0.38592529296875,0.52899169921875,-0.6466064453125,-0.391357421875,-0.080078125,-0.998046875,0.14013671875,0.6875,-0.1875,-0.875
2.729999999999964,-2.0,0.0,-1.0,-10.0,6.0,15.0,-8.0,-4.0,0.38592529296875,0.52899169921875,-0.6466064453125,-0.391357421875,-0.080078125,-0.998046875,0.14013671875,0.6875,-0.1875,-0.875
2.734999999999964,-2.0,0.0,-1.0,-10.0,6.0,15.0,-8.0,-4.0,0.38592529296875,0.529052734375,-0.64654541015625,-0.391357421875,-0.07958984375,-1.00244140625,0.134765625,0.25,0.25,-0.875
2.739999999999964,0.0,-1.0,1.0,4.0,8.0,12.0,4.0,2.0,0.38592529296875,0.529052734375,-0.64654541015625,-0.391357421875,-0.07958984375,-1.00244140625,0.134765625,0.25,0.25,-0.875
2.7449999999999637,-2.0,-1.0,0.0,4.0,-1.0,-8.0,0.0,-3.0,0.38592529296875,0.529052734375,-0.64654541015625,-0.391357421875,-0.07958984375,-1.00244140625,0.134765625,0.25,0.25,-0.875
2.7499999999999636,-2.0,-1.0,0.0,4.0,-1.0,-8.0,0.0,-3.0,0.3858642578125,0.52899169921875,-0.646484375,-0.3916015625,-0.080078125,-1.0068359375,0.13916015625,1.0,0.75,-1.0
2.7549999999999635,-2.0,-1.0,0.0,4.0,-1.0,-8.0,0.0,-3.0,0.3858642578125,0.52899169921875,-0.646484375,-0.3916015625,-0.080078125,-1.0068359375,0.13916015625,1.0,0.75,-1.0
2.7599999999999634,-2.0,-1.0,0.0,4.0,-1.0,-8.0,0.0,-3.0,0.3858642578125,0.52899169921875,-0.646484375,-0.3916015625,-0.080078125,-1.0068359375,0.13916015625,1.0,0.75,-1.0
2.7649999999999633,0.0,1.0,2.0,-5.0,8.0,-10.0,0.0,-3.0,0.3858642578125,0.52899169921875,-0.646484375,-0.3916015625,-0.080078125,-1.0068359375,0.13916015625,1.0,0.75,-1.0
2.769999999999963,1.0,1.0,2.0,18.0,4.0,7.0,4.0,2.0,0.3858642578125,0.52899169921875,-0.646484375,-0.3916015625,-0.080078125,-1.0068359375,0.13916015625,1.0,0.75,-1.0
2.774999999999963,1.0,1.0,2.0,18.0,4.0,7.0,4.0,2.0,0.3856201171875,0.5286865234375,-0.64666748046875,-0.3919677734375,-0.0947265625,-0.99462890625,0.140625,3.0625,0.375,-1.5
2.779999999999963,1.0,1.0,2.0,18.0,4.0,7.0,4.0,2.0,0.3856201171875,0.5286865234375,-0.64666748046875,-0.3919677734375,-0.0947265625,-0.99462890625,0.140625,3.0625,0.375,-1.5
2.784999999999963,1.0,1.0,2.0,18.0,4.0,7.0,4.0,2.0,0.3856201171875,0.5286865234375,-0.64666748046875,-0.3919677734375,-0.0947265625,-0.99462890625,0.140625,3.0625,0.375,-1.5
2.7899999999999627,-3.0,-1.0,-5.0,-2.0,0.0,-8.0,-6.0,-4.0,0.3856201171875,0.5286865234375,-0.64666748046875,-0.3919677734375,-0.0947265625,-0.99462890625,0.140625,3.0625,0.375,-1.5
2.7949999999999626,-3.0,1.0,-1.0,-9.0,-5.0,12.0,2.0,-2.0,0.3856201171875,0.5286865234375,-0.64666748046875,-0.3919677734375,-0.0947265625,-0.99462890625,0.140625,3.0625,0.375,-1.5
2.7999999999999625,1.0,0.0,-2.0,-16.0,-5.0,-21.0,-8.0,-1.0,0.3856201171875,0.5286865234375,-0.64666748046875,-0.3919677734375,-0.0947265625,-0.99462890625,0.140625,3.0625,0.375,-1.5
2.8049999999999624,1.0,0.0,-2.0,-16.0,-5.0,-21.0,-8.0,-1.0,0.385498046875,0.52862548828125,-0.64666748046875,-0.39215087890625,-0.08935546875,-0.98779296875,0.13916015625,1.5,0.0625,-1.375
2.8099999999999623,1.0,0.0,-2.0,-16.0,-5.0,-21.0,-8.0,-1.0,0.385498046875,0.52862548828125,-0.64666748046875,-0.39215087890625,-0.08935546875,-0.98779296875,0.13916015625,1.5,0.0625,-1.375
2.814999999999962,1.0,0.0,-2.0,-16.0,-5.0,-21.0,-8.0,-1.0,0.385498046875,0.52862548828125,-0.64666748046875,-0.39215087890625,-0.08935546875,-0.98779296875,0.13916015625,1.5,0.0625,-1.375
2.819999999999962,1.0,-2.0,-1.0,-9.0,-23.0,-40.0,-7.0,1.0,0.385498046875,0.52862548828125,-0.64666748046875,-0.39215087890625,-0.08935546875,-0.98779296875,0.13916015625,1.5,0.0625,-1.375
2.824999999999962,1.0,-2.0,-1.0,-9.0,-23.0,-40.0,-7.0,1.0,0.3853759765625,0.52874755859375,-0.6466064453125,-0.3922119140625,-0.0927734375,-1.0107421875,0.138671875,0.3125,-0.8125,-1.4375
2.829999999999962,-3.0,-1.0,-1.0,2.0,10.0,12.0,1.0,1.0,0.3853759765625,0.52874755859375,-0.6466064453125,-0.3922119140625,-0.0927734375,-1.0107421875,0.138671875,0.3125,-0.8125,-1.4375
2.8349999999999618,-3.0,-1.0,-1.0,2.0,10.0,12.0,1.0,1.0,0.3853759765625,0.52874755859375,-0.6466064453125,-0.3922119140625,-0.0927734375,-1.0107421875,0.138671875,0.3125,-0.8125,-1.4375
2.8399999999999617,-1.0,-3.0,1.0,4.0,9.0,17.0,4.0,-2.0,0.3853759765625,0.52874755859375,-0.6466064453125,-0.3922119140625,-0.0927734375,-1.0107421875,0.138671875,0.3125,-0.8125,-1.4375
2.8449999999999616,-2.0,-1.0,-3.0,-3.0,5.0,6.0,-1.0,-1.0,0.3853759765625,0.52874755859375,-0.6466064453125,-0.3922119140625,-0.0927734375,-1.0107421875,0.138671875,0.3125,-0.8125,-1.4375
2.8499999999999615,-2.0,-1.0,-3.0,-3.0,5.0,6.0,-1.0,-1.0,0.38507080078125,0.52880859375,-0.64654541015625,-0.3924560546875,-0.08544921875,-1.021484375,0.138671875,1.1875,-0.3125,-2.0625
2.8549999999999613,-1.0,0.0,0.0,-2.0,-8.0,-26.0,-4.0,-1.0,0.38507080078125,0.52880859375,-0.64654541015625,-0.3924560546875,-0.08544921875,-1.021484375,0.138671875,1.1875,-0.3125,-2.0625
2.8599999999999612,-1.0,0.0,0.0,-2.0,-8.0,-26.0,-4.0,-1.0,0.38507080078125,0.52880859375,-0.64654541015625,-0.3924560546875,-0.08544921875,-1.021484375,0.138671875,1.1875,-0.3125,-2.0625
2.864999999999961,-2.0,-2.0,-1.0,-1.0,4.0,-6.0,1.0,-1.0,0.38507080078125,0.52880859375,-0.64654541015625,-0.3924560546875,-0.08544921875,-1.021484375,0.138671875,1.1875,-0.3125,-2.0625
2.869999999999961,-2.0,-2.0,-1.0,-1.0,4.0,-6.0,1.0,-1.0,0.385009765625,0.52874755859375,-0.64654541015625,-0.3927001953125,-0.09326171875,-1.00439453125,0.13916015625,1.375,0.5,-1.625
2.874999999999961,-2.0,-2.0,-1.0,-1.0,4.0,-6.0,1.0,-1.0,0.385009765625,0.52874755859375,-0.64654541015625,-0.3927001953125,-0.09326171875,-1.00439453125,0.13916015625,1.375,0.5,-1.625
2.879999999999961,-2.0,-2.0,-1.0,-1.0,4.0,-6.0,1.0,-1.0,0.385009765625,0.52874755859375,-0.64654541015625,-0.3927001953125,-0.09326171875,-1.00439453125,0.13916015625,1.375,0.5,-1.625
2.8849999999999607,-2.0,-4.0,-6.0,-12.0,-13.0,-12.0,-5.0,-2.0,0.385009765625,0.52874755859375,-0.64654541015625,-0.3927001953125,-0.09326171875,-1.00439453125,0.13916015625,1.375,0.5,-1.625
2.8899999999999606,-2.0,-4.0,-6.0,-12.0,-13.0,-12.0,-5.0,-2.0,0.385009765625,0.52874755859375,-0.64654541015625,-0.3927001953125,-0.09326171875,-1.00439453125,0.13916015625,1.375,0.5,-1.625
2.8949999999999605,-2.0,-4.0,-6.0,-12.0,-13.0,-12.0,-5.0,-2.0,0.385009765625,0.52874755859375,-0.64654541015625,-0.3927001953125,-0.09326171875,-1.00439453125,0.13916015625,1.375,0.5,-1.625
2.8999999999999604,-1.0,-2.0,-2.0,-6.0,-3.0,4.0,1.0,-1.0,0.3848876953125,0.52880859375,-0.646484375,-0.39276123046875,-0.09716796875,-0.99462890625,0.14208984375,0.375,-0.4375,-1.875
2.9049999999999603,-2.0,1.0,4.0,7.0,2.0,5.0,0.0,-1.0,0.3848876953125,0.52880859375,-0.646484375,-0.39276123046875,-0.09716796875,-0.99462890625,0.14208984375,0.375,-0.4375,-1.875
2.90999999999996,-2.0,1.0,4.0,7.0,2.0,5.0,0.0,-1.0,0.3848876953125,0.52880859375,-0.646484375,-0.39276123046875,-0.09716796875,-0.99462890625,0.14208984375,0.375,-0.4375,-1.875
2.91499999999996,-2.0,1.0,4.0,7.0,2.0,5.0,0.0,-1.0,0.38482666015625,0.529052734375,-0.6463623046875,-0.39276123046875,-0.0888671875,-1.00732421875,0.138671875,-0.8125,-0.625,-1.5
2.91999999999996,-2.0,1.0,4.0,7.0,2.0,5.0,0.0,-1.0,0.38482666015625,0.529052734375,-0.6463623046875,-0.39276123046875,-0.0888671875,-1.00732421875,0.138671875,-0.8125,-0.625,-1.5
2.92499999999996,-2.0,1.0,4.0,7.0,2.0,5.0,0.0,-1.0,0.38482666015625,0.529052734375,-0.6463623046875,-0.39276123046875,-0.0888671875,-1.00732421875,0.138671875,-0.8125,-0.625,-1.5
2.9299999999999597,-1.0,-2.0,-1.0,2.0,-4.0,-1.0,2.0,1.0,0.38482666015625,0.529052734375,-0.6463623046875,-0.39276123046875,-0.0888671875,-1.00732421875,0.138671875,-0.8125,-0.625,-1.5
2.9349999999999596,-1.0,-2.0,-2.0,-3.0,3.0,7.0,-2.0,-1.0,0.38482666015625,0.529052734375,-0.6463623046875,-0.39276123046875,-0.0888671875,-1.00732421875,0.138671875,-0.8125,-0.625,-1.5
2.9399999999999595,-1.0,-2.0,-2.0,-3.0,3.0,7.0,-2.0,-1.0,0.38482666015625,0.529052734375,-0.6463623046875,-0.39276123046875,-0.0888671875,-1.00732421875,0.138671875,-0.8125,-0.625,-1.5
2.9449999999999594,-1.0,-2.0,-2.0,-3.0,3.0,7.0,-2.0,-1.0,0.38482666015625,0.529052734375,-0.6463623046875,-0.39276123046875,-0.0888671875,-1.00732421875,0.138671875,-0.8125,-0.625,-1.5
2.9499999999999593,-1.0,-2.0,-3.0,-4.0,8.0,8.0,4.0,-2.0,0.38482666015625,0.529052734375,-0.6463623046875,-0.39276123046875,-0.087890625,-1.015625,0.14111328125,-0.8125,0.0,-0.4375
2.954999999999959,-1.0,-2.0,-3.0,-4.0,8.0,8.0,4.0,-2.0,0.38482666015625,0.529052734375,-0.6463623046875,-0.3927001953125,-0.09326171875,-1.0048828125,0.14794921875,0.375,0.125,0.0
2.959999999999959,-1.0,-2.0,-2.0,7.0,-10.0,-27.0,-4.0,-1.0,0.38482666015625,0.529052734375,-0.6463623046875,-0.3927001953125,-0.09326171875,-1.0048828125,0.14794921875,0.375,0.125,0.0
2.964999999999959,0.0,-1.0,-5.0,-7.0,2.0,7.0,-1.0,-1.0,0.38482666015625,0.529052734375,-0.6463623046875,-0.3927001953125,-0.09326171875,-1.0048828125,0.14794921875,0.375,0.125,0.0
2.969999999999959,0.0,-1.0,5.0,26.0,1.0,-15.0,-4.0,0.0,0.38482666015625,0.529052734375,-0.6463623046875,-0.3927001953125,-0.09326171875,-1.0048828125,0.14794921875,0.375,0.125,0.0
2.974999999999959,0.0,-1.0,5.0,26.0,1.0,-15.0,-4.0,0.0,0.38482666015625,0.529052734375,-0.6463623046875,-0.3927001953125,-0.09326171875,-1.0048828125,0.14794921875,0.375,0.125,0.0
2.9799999999999587,0.0,-1.0,5.0,26.0,1.0,-15.0,-4.0,0.0,0.38482666015625,0.529052734375,-0.6463623046875,-0.3927001953125,-0.08935546875,-0.9970703125,0.1572265625,-0.375,-0.0625,0.6875
2.9849999999999586,0.0,-1.0,5.0,26.0,1.0,-15.0,-4.0,0.0,0.38482666015625,0.529052734375,-0.6463623046875,-0.3927001953125,-0.08935546875,-0.9970703125,0.1572265625,-0.375,-0.0625,0.6875
2.9899999999999585,-3.0,0.0,-2.0,-10.0,-2.0,-8.0,-2.0,-2.0,0.38482666015625,0.529052734375,-0.6463623046875,-0.3927001953125,-0.08935546875,-0.9970703125,0.1572265625,-0.375,-0.0625,0.6875
2.9949999999999584,-3.0,0.0,-2.0,-10.0,-2.0,-8.0,-2.0,-2.0,0.38482666015625,0.529052734375,-0.6463623046875,-0.3927001953125,-0.08935546875,-0.9970703125,0.1572265625,-0.375,-0.0625,0.6875
2.9999999999999583,-1.0,-3.0,-3.0,-1.0,0.0,6.0,-1.0,-2.0,0.38482666015625,0.529052734375,-0.6463623046875,-0.3927001953125,-0.08935546875,-0.9970703125,0.1572265625,-0.375,-0.0625,0.6875
3.004999999999958,-1.0,-3.0,-3.0,-1.0,0.0,6.0,-1.0,-2.0,0.38482666015625,0.529052734375,-0.6463623046875,-0.3927001953125,-0.08935546875,-0.9970703125,0.1572265625,-0.375,-0.0625,0.6875
3.009999999999958,-1.0,-3.0,-3.0,-1.0,0.0,6.0,-1.0,-2.0,0.38494873046875,0.529052734375,-0.64642333984375,-0.39251708984375,-0.0810546875,-1.00439453125,0.1533203125,-1.3125,-0.3125,1.3125
3.014999999999958,-1.0,-3.0,-3.0,-1.0,0.0,6.0,-1.0,-2.0,0.38494873046875,0.529052734375,-0.64642333984375,-0.39251708984375,-0.0810546875,-1.00439453125,0.1533203125,-1.3125,-0.3125,1.3125
3.019999999999958,-2.0,0.0,-2.0,5.0,-11.0,5.0,-1.0,-1.0,0.38494873046875,0.529052734375,-0.64642333984375,-0.39251708984375,-0.0810546875,-1.00439453125,0.1533203125,-1.3125,-0.3125,1.3125
3.0249999999999577,-2.0,0.0,-2.0,5.0,-11.0,5.0,-1.0,-1.0,0.38494873046875,0.529052734375,-0.64642333984375,-0.39251708984375,-0.0810546875,-1.00439453125,0.1533203125,-1.3125,-0.3125,1.3125
3.0299999999999576,-2.0,0.0,-2.0,5.0,-11.0,5.0,-1.0,-1.0,0.38494873046875,0.52886962890625,-0.6466064453125,-0.39251708984375,-0.0791015625,-1.0107421875,0.15283203125,0.8125,-0.0625,1.1875
3.0349999999999575,-2.0,0.0,-2.0,5.0,-11.0,5.0,-1.0,-1.0,0.38494873046875,0.52886962890625,-0.6466064453125,-0.39251708984375,-0.0791015625,-1.0107421875,0.15283203125,0.8125,-0.0625,1.1875
3.0399999999999574,0.0,-1.0,1.0,1.0,0.0,3.0,0.0,-3.0,0.38494873046875,0.52886962890625,-0.6466064453125,-0.39251708984375,-0.0791015625,-1.0107421875,0.15283203125,0.8125,-0.0625,1.1875
3.0449999999999573,0.0,-1.0,1.0,1.0,0.0,3.0,0.0,-3.0,0.38494873046875,0.52886962890625,-0.6466064453125,-0.39251708984375,-0.0791015625,-1.0107421875,0.15283203125,0.8125,-0.0625,1.1875
3.049999999999957,0.0,0.0,-2.0,-3.0,-16.0,-16.0,-3.0,-2.0,0.38494873046875,0.52886962890625,-0.6466064453125,-0.39251708984375,-0.0791015625,-1.0107421875,0.15283203125,0.8125,-0.0625,1.1875
3.054999999999957,0.0,0.0,-2.0,-3.0,-16.0,-16.0,-3.0,-2.0,0.38494873046875,0.52886962890625,-0.6466064453125,-0.39251708984375,-0.0791015625,-1.0107421875,0.15283203125,0.8125,-0.0625,1.1875
3.059999999999957,0.0,0.0,-2.0,-3.0,-16.0,-16.0,-3.0,-2.0,0.3848876953125,0.52850341796875,-0.6468505859375,-0.392578125,-0.08154296875,-1.0,0.1552734375,1.6875,0.5625,1.0625
3.064999999999957,0.0,0.0,-2.0,-3.0,-16.0,-16.0,-3.0,-2.0,0.3848876953125,0.52850341796875,-0.6468505859375,-0.392578125,-0.08154296875,-1.0,0.1552734375,1.6875,0.5625,1.0625
3.0699999999999568,-2.0,-1.0,-3.0,-19.0,-8.0,4.0,-3.0,0.0,0.3848876953125,0.52850341796875,-0.6468505859375,-0.392578125,-0.08154296875,-1.0,0.1552734375,1.6875,0.5625,1.0625
3.0749999999999567,-2.0,-1.0,-3.0,-19.0,-8.0,4.0,-3.0,0.0,0.3848876953125,0.52850341796875,-0.6468505859375,-0.392578125,-0.08154296875,-1.0,0.1552734375,1.6875,0.5625,1.0625
3.0799999999999566,0.0,1.0,2.0,-2.0,12.0,14.0,2.0,0.0,0.3848876953125,0.52850341796875,-0.6468505859375,-0.392578125,-0.08154296875,-1.0,0.1552734375,1.6875,0.5625,1.0625
3.0849999999999564,0.0,1.0,2.0,-2.0,12.0,14.0,2.0,0.0,0.3848876953125,0.52850341796875,-0.6468505859375,-0.392578125,-0.08154296875,-1.0,0.1552734375,1.6875,0.5625,1.0625
3.0899999999999563,0.0,1.0,2.0,-2.0,12.0,14.0,2.0,0.0,0.38482666015625,0.5281982421875,-0.64703369140625,-0.39276123046875,-0.0810546875,-1.00537109375,0.15380859375,1.6875,0.4375,0.625
3.0949999999999562,0.0,1.0,2.0,-2.0,12.0,14.0,2.0,0.0,0.38482666015625,0.5281982421875,-0.64703369140625,-0.39276123046875,-0.0810546875,-1.00537109375,0.15380859375,1.6875,0.4375,0.625
3.099999999999956,-2.0,-3.0,-3.0,-10.0,-4.0,-12.0,-5.0,-2.0,0.38482666015625,0.5281982421875,-0.64703369140625,-0.39276123046875,-0.0810546875,-1.00537109375,0.15380859375,1.6875,0.4375,0.625
3.104999999999956,-2.0,-3.0,-3.0,-10.0,-4.0,-12.0,-5.0,-2.0,0.38482666015625,0.5281982421875,-0.64703369140625,-0.39276123046875,-0.0810546875,-1.00537109375,0.15380859375,1.6875,0.4375,0.625
3.109999999999956,-2.0,-3.0,-3.0,-10.0,-4.0,-12.0,-5.0,-2.0,0.38470458984375,0.5279541015625,-0.647216796875,-0.39288330078125,-0.08154296875,-0.99853515625,0.1533203125,1.875,0.3125,0.25
3.114999999999956,-2.0,-3.0,-3.0,-10.0,-4.0,-12.0,-5.0,-2.0,0.38470458984375,0.5279541015625,-0.647216796875,-0.39288330078125,-0.08154296875,-0.99853515625,0.1533203125,1.875,0.3125,0.25
3.1199999999999557,-2.0,-3.0,-3.0,-10.0,-4.0,-12.0,-5.0,-2.0,0.38470458984375,0.5279541015625,-0.647216796875,-0.39288330078125,-0.08154296875,-0.99853515625,0.1533203125,1.875,0.3125,0.25
3.1249999999999556,-2.0,-3.0,-3.0,-10.0,-4.0,-12.0,-5.0,-2.0,0.38470458984375,0.5279541015625,-0.647216796875,-0.39288330078125,-0.08154296875,-0.99853515625,0.1533203125,1.875,0.3125,0.25
3.1299999999999555,0.0,-2.0,-1.0,0.0,2.0,5.0,0.0,-1.0,0.38470458984375,0.5279541015625,-0.647216796875,-0.39288330078125,-0.08154296875,-0.99853515625,0.1533203125,1.875,0.3125,0.25
3.1349999999999554,0.0,-2.0,-1.0,0.0,2.0,5.0,0.0,-1.0,0.38470458984375,0.5279541015625,-0.647216796875,-0.39288330078125,-0.08154296875,-0.99853515625,0.1533203125,1.875,0.3125,0.25
3.1399999999999553,0.0,-2.0,-1.0,0.0,2.0,5.0,0.0,-1.0,0.38458251953125,0.52783203125,-0.6473388671875,-0.39300537109375,-0.080078125,-0.998046875,0.1435546875,1.5625,-0.1875,0.0625
3.144999999999955,0.0,-2.0,-1.0,0.0,2.0,5.0,0.0,-1.0,0.38458251953125,0.52783203125,-0.6473388671875,-0.39300537109375,-0.080078125,-0.998046875,0.1435546875,1.5625,-0.1875,0.0625
3.149999999999955,-1.0,0.0,2.0,-2.0,-6.0,4.0,1.0,0.0,0.38458251953125,0.52783203125,-0.6473388671875,-0.39300537109375,-0.080078125,-0.998046875,0.1435546875,1.5625,-0.1875,0.0625
3.154999999999955,-1.0,0.0,2.0,-2.0,-6.0,4.0,1.0,0.0,0.38458251953125,0.52783203125,-0.6473388671875,-0.39300537109375,-0.080078125,-0.998046875,0.1435546875,1.5625,-0.1875,0.0625
3.159999999999955,-2.0,-2.0,-2.0,0.0,2.0,-5.0,0.0,-2.0,0.38458251953125,0.52783203125,-0.6473388671875,-0.39300537109375,-0.080078125,-0.998046875,0.1435546875,1.5625,-0.1875,0.0625
3.1649999999999547,-2.0,-2.0,-2.0,0.0,2.0,-5.0,0.0,-2.0,0.38458251953125,0.52783203125,-0.6473388671875,-0.39300537109375,-0.080078125,-0.998046875,0.1435546875,1.5625,-0.1875,0.0625
3.1699999999999546,-2.0,-2.0,-2.0,0.0,2.0,-5.0,0.0,-2.0,0.38458251953125,0.52783203125,-0.6473388671875,-0.39300537109375,-0.078125,-1.0068359375,0.1416015625,-0.0625,0.0,-0.5
3.1749999999999545,-2.0,-2.0,-2.0,0.0,2.0,-5.0,0.0,-2.0,0.38458251953125,0.52783203125,-0.6473388671875,-0.39300537109375,-0.078125,-1.0068359375,0.1416015625,-0.0625,0.0,-0.5
3.1799999999999544,-2.0,-2.0,-2.0,0.0,2.0,-5.0,0.0,-2.0,0.38458251953125,0.52783203125,-0.6473388671875,-0.39300537109375,-0.078125,-1.0068359375,0.1416015625,-0.0625,0.0,-0.5
3.1849999999999543,-2.0,-2.0,-2.0,0.0,2.0,-5.0,0.0,-2.0,0.38458251953125,0.52783203125,-0.6473388671875,-0.39300537109375,-0.078125,-1.0068359375,0.1416015625,-0.0625,0.0,-0.5
3.189999999999954,0.0,1.0,-3.0,0.0,-9.0,-15.0,-6.0,-1.0,0.38458251953125,0.52783203125,-0.6473388671875,-0.39300537109375,-0.078125,-1.0068359375,0.1416015625,-0.0625,0.0,-0.5
3.194999999999954,0.0,1.0,-3.0,0.0,-9.0,-15.0,-6.0,-1.0,0.38458251953125,0.52783203125,-0.6473388671875,-0.39300537109375,-0.078125,-1.0068359375,0.1416015625,-0.0625,0.0,-0.5
3.199999999999954,-3.0,-3.0,-5.0,-27.0,-4.0,-6.0,-3.0,-2.0,0.38446044921875,0.52777099609375,-0.64727783203125,-0.393310546875,-0.080078125,-1.01025390625,0.15283203125,1.0,0.6875,-1.25
3.204999999999954,-3.0,-3.0,-5.0,-27.0,-4.0,-6.0,-3.0,-2.0,0.38446044921875,0.52777099609375,-0.64727783203125,-0.393310546875,-0.080078125,-1.01025390625,0.15283203125,1.0,0.6875,-1.25
3.209999999999954,-3.0,-2.0,-2.0,-3.0,7.0,27.0,1.0,-3.0,0.38446044921875,0.52777099609375,-0.64727783203125,-0.393310546875,-0.080078125,-1.01025390625,0.15283203125,1.0,0.6875,-1.25
3.2149999999999537,-3.0,-2.0,-2.0,-3.0,7.0,27.0,1.0,-3.0,0.38446044921875,0.52777099609375,-0.64727783203125,-0.393310546875,-0.080078125,-1.01025390625,0.15283203125,1.0,0.6875,-1.25
3.2199999999999536,-3.0,-2.0,-2.0,-3.0,7.0,27.0,1.0,-3.0,0.38433837890625,0.52752685546875,-0.6473388671875,-0.39361572265625,-0.087890625,-0.9921875,0.1484375,1.9375,0.6875,-1.1875
3.2249999999999535,-3.0,-2.0,-2.0,-3.0,7.0,27.0,1.0,-3.0,0.38433837890625,0.52752685546875,-0.6473388671875,-0.39361572265625,-0.087890625,-0.9921875,0.1484375,1.9375,0.6875,-1.1875
3.2299999999999534,0.0,-2.0,-1.0,5.0,-8.0,-22.0,-10.0,-2.0,0.38433837890625,0.52752685546875,-0.6473388671875,-0.39361572265625,-0.087890625,-0.9921875,0.1484375,1.9375,0.6875,-1.1875
3.2349999999999532,0.0,-2.0,-1.0,5.0,-8.0,-22.0,-10.0,-2.0,0.38433837890625,0.52752685546875,-0.6473388671875,-0.39361572265625,-0.087890625,-0.9921875,0.1484375,1.9375,0.6875,-1.1875
3.239999999999953,1.0,2.0,2.0,1.0,18.0,32.0,8.0,3.0,0.38433837890625,0.52752685546875,-0.6473388671875,-0.39361572265625,-0.087890625,-0.9921875,0.1484375,1.9375,0.6875,-1.1875
3.244999999999953,1.0,2.0,2.0,1.0,18.0,32.0,8.0,3.0,0.38433837890625,0.52752685546875,-0.6473388671875,-0.39361572265625,-0.087890625,-0.9921875,0.1484375,1.9375,0.6875,-1.1875
3.249999999999953,1.0,2.0,2.0,1.0,18.0,32.0,8.0,3.0,0.38421630859375,0.5274658203125,-0.64739990234375,-0.393798828125,-0.0888671875,-0.9931640625,0.14453125,1.4375,0.125,-1.375
3.254999999999953,-2.0,-1.0,-2.0,-4.0,-17.0,-10.0,-1.0,-2.0,0.38421630859375,0.5274658203125,-0.64739990234375,-0.393798828125,-0.0888671875,-0.9931640625,0.14453125,1.4375,0.125,-1.375
3.2599999999999527,-2.0,-1.0,-2.0,-4.0,-17.0,-10.0,-1.0,-2.0,0.38421630859375,0.5274658203125,-0.64739990234375,-0.393798828125,-0.0888671875,-0.9931640625,0.14453125,1.4375,0.125,-1.375
3.2649999999999526,-2.0,-1.0,-2.0,-4.0,-17.0,-10.0,-1.0,-2.0,0.3841552734375,0.527587890625,-0.647216796875,-0.3939208984375,-0.08203125,-0.99560546875,0.1416015625,-0.1875,0.0,-1.1875
3.2699999999999525,-2.0,-2.0,1.0,1.0,1.0,-29.0,-8.0,-2.0,0.3841552734375,0.527587890625,-0.647216796875,-0.3939208984375,-0.08203125,-0.99560546875,0.1416015625,-0.1875,0.0,-1.1875
3.2749999999999524,-2.0,-2.0,1.0,1.0,1.0,-29.0,-8.0,-2.0,0.3841552734375,0.527587890625,-0.647216796875,-0.3939208984375,-0.08203125,-0.99560546875,0.1416015625,-0.1875,0.0,-1.1875
