0.005,-1.0,1.0,3.0,23.0,-7.0,-8.0,-4.0,-2.0,0.54620361328125,-0.02911376953125,-0.0247802734375,-0.8367919921875,-0.0732421875,-0.9443359375,0.4453125,-12.6875,-2.0625,6.0
0.01,0.0,2.0,11.0,31.0,18.0,6.0,-1.0,2.0,0.54620361328125,-0.02911376953125,-0.0247802734375,-0.8367919921875,-0.0732421875,-0.9443359375,0.4453125,-12.6875,-2.0625,6.0
0.015,-3.0,-6.0,-9.0,-32.0,3.0,0.0,-1.0,-1.0,0.5472412109375,-0.02947998046875,-0.02593994140625,-0.8360595703125,-0.08349609375,-0.943359375,0.43017578125,-8.6875,-1.5625,6.1875
0.02,-3.0,-6.0,-9.0,-32.0,3.0,0.0,-1.0,-1.0,0.5472412109375,-0.02947998046875,-0.02593994140625,-0.8360595703125,-0.08349609375,-0.943359375,0.43017578125,-8.6875,-1.5625,6.1875
0.025,-3.0,-6.0,-9.0,-32.0,3.0,0.0,-1.0,-1.0,0.5472412109375,-0.02947998046875,-0.02593994140625,-0.8360595703125,-0.08349609375,-0.943359375,0.43017578125,-8.6875,-1.5625,6.1875
0.030000000000000002,-3.0,-6.0,-9.0,-32.0,3.0,0.0,-1.0,-1.0,0.5472412109375,-0.02947998046875,-0.02593994140625,-0.8360595703125,-0.08349609375,-0.943359375,0.43017578125,-8.6875,-1.5625,6.1875
0.035,-1.0,-3.0,-2.0,-15.0,-1.0,6.0,0.0,-1.0,0.5472412109375,-0.02947998046875,-0.02593994140625,-0.8360595703125,-0.08349609375,-0.943359375,0.43017578125,-8.6875,-1.5625,6.1875
0.04,-1.0,-3.0,-2.0,-15.0,-1.0,6.0,0.0,-1.0,0.5472412109375,-0.02947998046875,-0.02593994140625,-0.8360595703125,-0.08349609375,-0.943359375,0.43017578125,-8.6875,-1.5625,6.1875
0.045,-1.0,-3.0,-2.0,-15.0,-1.0,6.0,0.0,-1.0,0.547607421875,-0.030029296875,-0.02685546875,-0.83575439453125,-0.0888671875,-0.9384765625,0.44091796875,-4.875,-0.125,5.9375
0.049999999999999996,-1.0,-1.0,2.0,27.0,4.0,2.0,0.0,-2.0,0.547607421875,-0.030029296875,-0.02685546875,-0.83575439453125,-0.0888671875,-0.9384765625,0.44091796875,-4.875,-0.125,5.9375
0.05499999999999999,-1.0,-1.0,2.0,27.0,4.0,2.0,0.0,-2.0,0.547607421875,-0.030029296875,-0.02685546875,-0.83575439453125,-0.0888671875,-0.9384765625,0.44091796875,-4.875,-0.125,5.9375
0.05999999999999999,-1.0,-1.0,2.0,27.0,4.0,2.0,0.0,-2.0,0.547607421875,-0.030029296875,-0.02685546875,-0.83575439453125,-0.0888671875,-0.9384765625,0.44091796875,-4.875,-0.125,5.9375
0.06499999999999999,-1.0,2.0,3.0,1.0,-2.0,1.0,1.0,-1.0,0.5474853515625,-0.0303955078125,-0.027587890625,-0.8358154296875,-0.07666015625,-0.91845703125,0.455078125,-2.6875,0.0,4.75
0.06999999999999999,-3.0,-3.0,-8.0,-6.0,-7.0,4.0,0.0,-1.0,0.5474853515625,-0.0303955078125,-0.027587890625,-0.8358154296875,-0.07666015625,-0.91845703125,0.455078125,-2.6875,0.0,4.75
0.075,-3.0,-3.0,-8.0,-6.0,-7.0,4.0,0.0,-1.0,0.5474853515625,-0.0303955078125,-0.027587890625,-0.8358154296875,-0.07666015625,-0.91845703125,0.455078125,-2.6875,0.0,4.75
0.08,-3.0,-3.0,-8.0,-6.0,-7.0,4.0,0.0,-1.0,0.5474853515625,-0.0303955078125,-0.027587890625,-0.8358154296875,-0.07666015625,-0.91845703125,0.455078125,-2.6875,0.0,4.75
0.085,-2.0,-3.0,-14.0,-47.0,2.0,-6.0,-1.0,0.0,0.5474853515625,-0.0303955078125,-0.027587890625,-0.8358154296875,-0.07666015625,-0.91845703125,0.455078125,-2.6875,0.0,4.75
0.09000000000000001,-2.0,-3.0,-14.0,-47.0,2.0,-6.0,-1.0,0.0,0.5474853515625,-0.0303955078125,-0.027587890625,-0.8358154296875,-0.07666015625,-0.91845703125,0.455078125,-2.6875,0.0,4.75
0.09500000000000001,-1.0,-1.0,0.0,-9.0,-4.0,-12.0,-4.0,0.0,0.54754638671875,-0.030517578125,-0.0279541015625,-0.83575439453125,-0.07421875,-0.947265625,0.45849609375,-3.5,-0.3125,2.9375
0.10000000000000002,-1.0,-1.0,0.0,-9.0,-4.0,-12.0,-4.0,0.0,0.54754638671875,-0.030517578125,-0.0279541015625,-0.83575439453125,-0.07421875,-0.947265625,0.45849609375,-3.5,-0.3125,2.9375
0.10500000000000002,-1.0,-1.0,0.0,-9.0,-4.0,-12.0,-4.0,0.0,0.54754638671875,-0.030517578125,-0.0279541015625,-0.83575439453125,-0.07421875,-0.947265625,0.45849609375,-3.5,-0.3125,2.9375
0.11000000000000003,-2.0,-3.0,-7.0,3.0,-8.0,7.0,-1.0,-2.0,0.547119140625,-0.0302734375,-0.02783203125,-0.8360595703125,-0.080078125,-0.96044921875,0.466796875,-0.1875,-0.3125,-1.125
0.11500000000000003,1.0,-2.0,-4.0,-7.0,12.0,15.0,-1.0,-1.0,0.547119140625,-0.0302734375,-0.02783203125,-0.8360595703125,-0.080078125,-0.96044921875,0.466796875,-0.1875,-0.3125,-1.125
0.12000000000000004,-1.0,-2.0,1.0,17.0,-1.0,3.0,1.0,-1.0,0.547119140625,-0.0302734375,-0.02783203125,-0.8360595703125,-0.080078125,-0.96044921875,0.466796875,-0.1875,-0.3125,-1.125
0.12500000000000003,-1.0,-2.0,1.0,17.0,-1.0,3.0,1.0,-1.0,0.547119140625,-0.0302734375,-0.02783203125,-0.8360595703125,-0.080078125,-0.96044921875,0.466796875,-0.1875,-0.3125,-1.125
0.13000000000000003,-1.0,-2.0,1.0,17.0,-1.0,3.0,1.0,-1.0,0.547119140625,-0.0302734375,-0.02783203125,-0.8360595703125,-0.080078125,-0.96044921875,0.466796875,-0.1875,-0.3125,-1.125
0.13500000000000004,-1.0,0.0,3.0,-3.0,2.0,-3.0,0.0,-1.0,0.54534912109375,-0.02984619140625,-0.027587890625,-0.83721923828125,-0.08642578125,-0.97509765625,0.4833984375,8.4375,-1.5625,-2.4375
0.14000000000000004,-1.0,0.0,3.0,-3.0,2.0,-3.0,0.0,-1.0,0.54534912109375,-0.02984619140625,-0.027587890625,-0.83721923828125,-0.08642578125,-0.97509765625,0.4833984375,8.4375,-1.5625,-2.4375
0.14500000000000005,-1.0,0.0,3.0,-3.0,2.0,-3.0,0.0,-1.0,0.54534912109375,-0.02984619140625,-0.027587890625,-0.83721923828125,-0.08642578125,-0.97509765625,0.4833984375,8.4375,-1.5625,-2.4375
0.15000000000000005,-2.0,-2.0,-9.0,-21.0,-9.0,-3.0,2.0,-2.0,0.54534912109375,-0.02984619140625,-0.027587890625,-0.83721923828125,-0.08642578125,-0.97509765625,0.4833984375,8.4375,-1.5625,-2.4375
0.15500000000000005,-2.0,-2.0,-9.0,-21.0,-9.0,-3.0,2.0,-2.0,0.54534912109375,-0.02984619140625,-0.027587890625,-0.83721923828125,-0.08642578125,-0.97509765625,0.4833984375,8.4375,-1.5625,-2.4375
0.16000000000000006,1.0,0.0,3.0,1.0,-5.0,4.0,-1.0,0.0,0.54376220703125,-0.02886962890625,-0.02703857421875,-0.83831787109375,-0.07666015625,-0.88720703125,0.423828125,9.25,-3.3125,-5.6875
0.16500000000000006,1.0,0.0,3.0,1.0,-5.0,4.0,-1.0,0.0,0.54376220703125,-0.02886962890625,-0.02703857421875,-0.83831787109375,-0.07666015625,-0.88720703125,0.423828125,9.25,-3.3125,-5.6875
0.17000000000000007,1.0,0.0,3.0,1.0,-5.0,4.0,-1.0,0.0,0.54376220703125,-0.02886962890625,-0.02703857421875,-0.83831787109375,-0.07666015625,-0.88720703125,0.423828125,9.25,-3.3125,-5.6875
0.17500000000000007,1.0,0.0,3.0,1.0,-5.0,4.0,-1.0,0.0,0.54376220703125,-0.02886962890625,-0.02703857421875,-0.83831787109375,-0.07666015625,-0.88720703125,0.423828125,9.25,-3.3125,-5.6875
0.18000000000000008,-3.0,-3.0,-15.0,-20.0,7.0,-6.0,0.0,0.0,0.54376220703125,-0.02716064453125,-0.02679443359375,-0.83837890625,0.0302734375,-0.84716796875,0.39306640625,-1.0,-4.6875,-0.25
0.18500000000000008,-3.0,-3.0,-15.0,-20.0,7.0,-6.0,0.0,0.0,0.54376220703125,-0.02716064453125,-0.02679443359375,-0.83837890625,0.0302734375,-0.84716796875,0.39306640625,-1.0,-4.6875,-0.25
0.19000000000000009,-3.0,-3.0,-15.0,-20.0,7.0,-6.0,0.0,0.0,0.54376220703125,-0.02716064453125,-0.02679443359375,-0.83837890625,0.0302734375,-0.84716796875,0.39306640625,-1.0,-4.6875,-0.25
0.1950000000000001,-3.0,-3.0,-15.0,-20.0,7.0,-6.0,0.0,0.0,0.54376220703125,-0.02716064453125,-0.02679443359375,-0.83837890625,0.0302734375,-0.84716796875,0.39306640625,-1.0,-4.6875,-0.25
0.2000000000000001,0.0,1.0,0.0,8.0,-22.0,-12.0,-4.0,1.0,0.54534912109375,-0.0264892578125,-0.02667236328125,-0.83734130859375,-0.00341796875,-0.943359375,0.34521484375,-6.25,-0.6875,1.9375
0.2050000000000001,-1.0,-3.0,1.0,-11.0,-4.0,-10.0,-4.0,-2.0,0.54534912109375,-0.0264892578125,-0.02667236328125,-0.83734130859375,-0.00341796875,-0.943359375,0.34521484375,-6.25,-0.6875,1.9375
0.2100000000000001,-1.0,-3.0,1.0,-11.0,-4.0,-10.0,-4.0,-2.0,0.54534912109375,-0.0264892578125,-0.02667236328125,-0.83734130859375,-0.00341796875,-0.943359375,0.34521484375,-6.25,-0.6875,1.9375
0.2150000000000001,-1.0,-2.0,-3.0,-3.0,-3.0,1.0,-3.0,-1.0,0.54534912109375,-0.0264892578125,-0.02667236328125,-0.83734130859375,-0.00341796875,-0.943359375,0.34521484375,-6.25,-0.6875,1.9375
0.2200000000000001,0.0,-1.0,-2.0,7.0,13.0,2.0,-4.0,-2.0,0.5460205078125,-0.0264892578125,-0.0264892578125,-0.83697509765625,-0.0888671875,-0.96728515625,0.32373046875,2.125,-0.3125,-1.6875
0.22500000000000012,0.0,-1.0,-2.0,7.0,13.0,2.0,-4.0,-2.0,0.5460205078125,-0.0264892578125,-0.0264892578125,-0.83697509765625,-0.0888671875,-0.96728515625,0.32373046875,2.125,-0.3125,-1.6875
0.23000000000000012,0.0,-1.0,-2.0,7.0,13.0,2.0,-4.0,-2.0,0.5460205078125,-0.0264892578125,-0.0264892578125,-0.83697509765625,-0.0888671875,-0.96728515625,0.32373046875,2.125,-0.3125,-1.6875
0.23500000000000013,0.0,-1.0,-2.0,7.0,13.0,2.0,-4.0,-2.0,0.5460205078125,-0.0264892578125,-0.0264892578125,-0.83697509765625,-0.0888671875,-0.96728515625,0.32373046875,2.125,-0.3125,-1.6875
0.24000000000000013,-1.0,0.0,8.0,10.0,5.0,-23.0,-7.0,-1.0,0.5460205078125,-0.0264892578125,-0.0264892578125,-0.83697509765625,-0.0888671875,-0.96728515625,0.32373046875,2.125,-0.3125,-1.6875
0.24500000000000013,-1.0,-3.0,0.0,4.0,9.0,21.0,3.0,1.0,0.546630859375,-0.02587890625,-0.025634765625,-0.83660888671875,-0.115234375,-0.93115234375,0.34130859375,0.125,-1.625,-8.8125
0.2500000000000001,-1.0,-3.0,0.0,4.0,9.0,21.0,3.0,1.0,0.546630859375,-0.02587890625,-0.025634765625,-0.83660888671875,-0.115234375,-0.93115234375,0.34130859375,0.125,-1.625,-8.8125
0.2550000000000001,-1.0,-3.0,0.0,4.0,9.0,21.0,3.0,1.0,0.546630859375,-0.02587890625,-0.025634765625,-0.83660888671875,-0.115234375,-0.93115234375,0.34130859375,0.125,-1.625,-8.8125
0.2600000000000001,-1.0,-3.0,0.0,4.0,9.0,21.0,3.0,1.0,0.546630859375,-0.02587890625,-0.025634765625,-0.83660888671875,-0.115234375,-0.93115234375,0.34130859375,0.125,-1.625,-8.8125
0.2650000000000001,-2.0,0.0,-4.0,-10.0,-4.0,6.0,-1.0,-5.0,0.547607421875,-0.025146484375,-0.0245361328125,-0.83599853515625,-0.10693359375,-0.9072265625,0.35302734375,-3.625,-1.125,-10.25
0.27000000000000013,-2.0,0.0,-4.0,-10.0,-4.0,6.0,-1.0,-5.0,0.547607421875,-0.025146484375,-0.0245361328125,-0.83599853515625,-0.10693359375,-0.9072265625,0.35302734375,-3.625,-1.125,-10.25
0.27500000000000013,-2.0,0.0,-4.0,-10.0,-4.0,6.0,-1.0,-5.0,0.547607421875,-0.025146484375,-0.0245361328125,-0.83599853515625,-0.10693359375,-0.9072265625,0.35302734375,-3.625,-1.125,-10.25
0.28000000000000014,-1.0,1.0,1.0,-1.0,2.0,14.0,-3.0,2.0,0.547607421875,-0.025146484375,-0.0245361328125,-0.83599853515625,-0.10693359375,-0.9072265625,0.35302734375,-3.625,-1.125,-10.25
0.28500000000000014,-2.0,-1.0,2.0,9.0,9.0,-19.0,-3.0,-1.0,0.5489501953125,-0.02423095703125,-0.02325439453125,-0.835205078125,-0.07763671875,-0.931640625,0.357421875,-6.0,-0.6875,-9.8125
0.29000000000000015,-2.0,-1.0,2.0,9.0,9.0,-19.0,-3.0,-1.0,0.5489501953125,-0.02423095703125,-0.02325439453125,-0.835205078125,-0.07763671875,-0.931640625,0.357421875,-6.0,-0.6875,-9.8125
0.29500000000000015,-2.0,-1.0,2.0,9.0,9.0,-19.0,-3.0,-1.0,0.5489501953125,-0.02423095703125,-0.02325439453125,-0.835205078125,-0.07763671875,-0.931640625,0.357421875,-6.0,-0.6875,-9.8125
0.30000000000000016,1.0,1.0,0.0,-1.0,3.0,4.0,-2.0,-1.0,0.55078125,-0.0238037109375,-0.02178955078125,-0.83404541015625,-0.10009765625,-0.94677734375,0.33544921875,-8.1875,1.875,-10.6875
0.30500000000000016,1.0,1.0,0.0,-1.0,3.0,4.0,-2.0,-1.0,0.55078125,-0.0238037109375,-0.02178955078125,-0.83404541015625,-0.10009765625,-0.94677734375,0.33544921875,-8.1875,1.875,-10.6875
0.31000000000000016,-1.0,0.0,-5.0,-30.0,4.0,0.0,1.0,0.0,0.55078125,-0.0238037109375,-0.02178955078125,-0.83404541015625,-0.10009765625,-0.94677734375,0.33544921875,-8.1875,1.875,-10.6875
0.31500000000000017,-1.0,0.0,-5.0,-30.0,4.0,0.0,1.0,0.0,0.55078125,-0.0238037109375,-0.02178955078125,-0.83404541015625,-0.10009765625,-0.94677734375,0.33544921875,-8.1875,1.875,-10.6875
0.3200000000000002,-1.0,0.0,-5.0,-30.0,4.0,0.0,1.0,0.0,0.55078125,-0.0238037109375,-0.02178955078125,-0.83404541015625,-0.10009765625,-0.94677734375,0.33544921875,-8.1875,1.875,-10.6875
0.3250000000000002,-2.0,-2.0,-7.0,4.0,10.0,5.0,-1.0,0.0,0.552490234375,-0.02410888671875,-0.01995849609375,-0.83294677734375,-0.119140625,-0.9580078125,0.31982421875,-5.625,5.75,-11.375
0.3300000000000002,-1.0,-1.0,1.0,7.0,0.0,-5.0,1.0,0.0,0.552490234375,-0.02410888671875,-0.01995849609375,-0.83294677734375,-0.119140625,-0.9580078125,0.31982421875,-5.625,5.75,-11.375
0.3350000000000002,1.0,2.0,9.0,21.0,-2.0,-2.0,1.0,0.0,0.552490234375,-0.02410888671875,-0.01995849609375,-0.83294677734375,-0.119140625,-0.9580078125,0.31982421875,-5.625,5.75,-11.375
0.3400000000000002,1.0,-1.0,4.0,6.0,-4.0,14.0,10.0,0.0,0.552490234375,-0.02410888671875,-0.01995849609375,-0.83294677734375,-0.119140625,-0.9580078125,0.31982421875,-5.625,5.75,-11.375
0.3450000000000002,1.0,-1.0,4.0,6.0,-4.0,14.0,10.0,0.0,0.552490234375,-0.02410888671875,-0.01995849609375,-0.83294677734375,-0.119140625,-0.9580078125,0.31982421875,-5.625,5.75,-11.375
0.3500000000000002,0.0,2.0,3.0,-4.0,-11.0,-31.0,-6.0,-1.0,0.5535888671875,-0.02490234375,-0.0181884765625,-0.83221435546875,-0.130859375,-0.9521484375,0.33056640625,-3.0,7.3125,-10.25
0.3550000000000002,0.0,2.0,3.0,-4.0,-11.0,-31.0,-6.0,-1.0,0.5535888671875,-0.02490234375,-0.0181884765625,-0.83221435546875,-0.130859375,-0.9521484375,0.33056640625,-3.0,7.3125,-10.25
0.3600000000000002,0.0,2.0,3.0,-4.0,-11.0,-31.0,-6.0,-1.0,0.5535888671875,-0.02490234375,-0.0181884765625,-0.83221435546875,-0.130859375,-0.9521484375,0.33056640625,-3.0,7.3125,-10.25
0.3650000000000002,-3.0,-6.0,-16.0,-15.0,-17.0,2.0,0.0,-3.0,0.55511474609375,-0.025390625,-0.0167236328125,-0.83123779296875,-0.099609375,-0.9453125,0.33740234375,-6.6875,6.0625,-8.0625
0.3700000000000002,0.0,-2.0,-1.0,0.0,-8.0,-5.0,-2.0,-2.0,0.55511474609375,-0.025390625,-0.0167236328125,-0.83123779296875,-0.099609375,-0.9453125,0.33740234375,-6.6875,6.0625,-8.0625
0.3750000000000002,0.0,-2.0,-1.0,0.0,-8.0,-5.0,-2.0,-2.0,0.55511474609375,-0.025390625,-0.0167236328125,-0.83123779296875,-0.099609375,-0.9453125,0.33740234375,-6.6875,6.0625,-8.0625
0.3800000000000002,0.0,-2.0,-1.0,0.0,-8.0,-5.0,-2.0,-2.0,0.55511474609375,-0.025390625,-0.0167236328125,-0.83123779296875,-0.099609375,-0.9453125,0.33740234375,-6.6875,6.0625,-8.0625
0.38500000000000023,-1.0,-1.0,-9.0,-22.0,-3.0,-6.0,-2.0,1.0,0.55718994140625,-0.02606201171875,-0.01531982421875,-0.829833984375,-0.08447265625,-0.97265625,0.32666015625,-9.4375,7.3125,-6.1875
0.39000000000000024,-1.0,-1.0,-9.0,-22.0,-3.0,-6.0,-2.0,1.0,0.55718994140625,-0.02606201171875,-0.01531982421875,-0.829833984375,-0.08447265625,-0.97265625,0.32666015625,-9.4375,7.3125,-6.1875
0.39500000000000024,0.0,0.0,-1.0,-11.0,7.0,-16.0,-5.0,-1.0,0.55718994140625,-0.02606201171875,-0.01531982421875,-0.829833984375,-0.08447265625,-0.97265625,0.32666015625,-9.4375,7.3125,-6.1875
0.40000000000000024,0.0,0.0,-1.0,-11.0,7.0,-16.0,-5.0,-1.0,0.55718994140625,-0.02606201171875,-0.01531982421875,-0.829833984375,-0.08447265625,-0.97265625,0.32666015625,-9.4375,7.3125,-6.1875
0.40500000000000025,0.0,1.0,1.0,-8.0,3.0,29.0,7.0,0.0,0.558837890625,-0.02740478515625,-0.01373291015625,-0.8287353515625,-0.08642578125,-0.994140625,0.3349609375,-7.0,10.5625,-4.875
0.41000000000000025,0.0,1.0,1.0,-8.0,3.0,29.0,7.0,0.0,0.558837890625,-0.02740478515625,-0.01373291015625,-0.8287353515625,-0.08642578125,-0.994140625,0.3349609375,-7.0,10.5625,-4.875
0.41500000000000026,0.0,1.0,1.0,-8.0,3.0,29.0,7.0,0.0,0.558837890625,-0.02740478515625,-0.01373291015625,-0.8287353515625,-0.08642578125,-0.994140625,0.3349609375,-7.0,10.5625,-4.875
0.42000000000000026,0.0,-1.0,0.0,-20.0,-24.0,-10.0,-3.0,-1.0,0.558837890625,-0.02740478515625,-0.01373291015625,-0.8287353515625,-0.08642578125,-0.994140625,0.3349609375,-7.0,10.5625,-4.875
0.42500000000000027,0.0,-1.0,0.0,-20.0,-24.0,-10.0,-3.0,-1.0,0.55963134765625,-0.02923583984375,-0.0123291015625,-0.828125,-0.0927734375,-0.9853515625,0.34765625,-1.9375,12.625,-2.5
0.43000000000000027,-2.0,-2.0,4.0,42.0,-5.0,-21.0,-8.0,-2.0,0.55963134765625,-0.02923583984375,-0.0123291015625,-0.828125,-0.0927734375,-0.9853515625,0.34765625,-1.9375,12.625,-2.5
0.4350000000000003,-2.0,-2.0,4.0,42.0,-5.0,-21.0,-8.0,-2.0,0.55963134765625,-0.02923583984375,-0.0123291015625,-0.828125,-0.0927734375,-0.9853515625,0.34765625,-1.9375,12.625,-2.5
0.4400000000000003,-2.0,-2.0,4.0,42.0,-5.0,-21.0,-8.0,-2.0,0.55963134765625,-0.02923583984375,-0.0123291015625,-0.828125,-0.0927734375,-0.9853515625,0.34765625,-1.9375,12.625,-2.5
0.4450000000000003,-2.0,-2.0,4.0,42.0,-5.0,-21.0,-8.0,-2.0,0.55963134765625,-0.02923583984375,-0.0123291015625,-0.828125,-0.0927734375,-0.9853515625,0.34765625,-1.9375,12.625,-2.5
0.4500000000000003,0.0,2.0,10.0,-1.0,21.0,11.0,3.0,3.0,0.5599365234375,-0.03125,-0.01129150390625,-0.827880859375,-0.091796875,-0.97216796875,0.35888671875,-0.1875,12.0,-0.3125
0.4550000000000003,0.0,2.0,10.0,-1.0,21.0,11.0,3.0,3.0,0.5599365234375,-0.03125,-0.01129150390625,-0.827880859375,-0.091796875,-0.97216796875,0.35888671875,-0.1875,12.0,-0.3125
0.4600000000000003,-3.0,-4.0,-1.0,-6.0,-21.0,-3.0,-2.0,0.0,0.5599365234375,-0.03125,-0.01129150390625,-0.827880859375,-0.091796875,-0.97216796875,0.35888671875,-0.1875,12.0,-0.3125
0.4650000000000003,-3.0,-4.0,-1.0,-6.0,-21.0,-3.0,-2.0,0.0,0.5599365234375,-0.03125,-0.01129150390625,-0.827880859375,-0.091796875,-0.97216796875,0.35888671875,-0.1875,12.0,-0.3125
0.4700000000000003,-2.0,0.0,6.0,18.0,1.0,0.0,-2.0,-1.0,0.5599365234375,-0.03125,-0.01129150390625,-0.827880859375,-0.091796875,-0.97216796875,0.35888671875,-0.1875,12.0,-0.3125
0.4750000000000003,-2.0,0.0,6.0,18.0,1.0,0.0,-2.0,-1.0,0.5599365234375,-0.03125,-0.01129150390625,-0.827880859375,-0.091796875,-0.97216796875,0.35888671875,-0.1875,12.0,-0.3125
0.4800000000000003,-1.0,0.0,-1.0,2.0,10.0,26.0,1.0,0.0,0.5604248046875,-0.0330810546875,-0.0106201171875,-0.82745361328125,-0.0888671875,-0.9775390625,0.369140625,-2.125,10.5,1.4375
0.4850000000000003,-1.0,0.0,-1.0,2.0,10.0,26.0,1.0,0.0,0.5604248046875,-0.0330810546875,-0.0106201171875,-0.82745361328125,-0.0888671875,-0.9775390625,0.369140625,-2.125,10.5,1.4375
0.4900000000000003,-1.0,0.0,-1.0,2.0,10.0,26.0,1.0,0.0,0.5604248046875,-0.0330810546875,-0.0106201171875,-0.82745361328125,-0.0888671875,-0.9775390625,0.369140625,-2.125,10.5,1.4375
0.49500000000000033,-1.0,0.0,-1.0,2.0,10.0,26.0,1.0,0.0,0.5604248046875,-0.0330810546875,-0.0106201171875,-0.82745361328125,-0.0888671875,-0.9775390625,0.369140625,-2.125,10.5,1.4375
0.5000000000000003,-2.0,0.0,-5.0,-23.0,-12.0,-27.0,-3.0,-2.0,0.56085205078125,-0.03466796875,-0.0101318359375,-0.8271484375,-0.07421875,-0.98681640625,0.3759765625,-2.0625,9.125,2.6875
0.5050000000000003,-2.0,0.0,-5.0,-23.0,-12.0,-27.0,-3.0,-2.0,0.56085205078125,-0.03466796875,-0.0101318359375,-0.8271484375,-0.07421875,-0.98681640625,0.3759765625,-2.0625,9.125,2.6875
0.5100000000000003,-1.0,0.0,-8.0,-15.0,5.0,25.0,6.0,-1.0,0.56085205078125,-0.03466796875,-0.0101318359375,-0.8271484375,-0.07421875,-0.98681640625,0.3759765625,-2.0625,9.125,2.6875
0.5150000000000003,-1.0,0.0,-8.0,-15.0,5.0,25.0,6.0,-1.0,0.56085205078125,-0.03466796875,-0.0101318359375,-0.8271484375,-0.07421875,-0.98681640625,0.3759765625,-2.0625,9.125,2.6875
0.5200000000000004,-1.0,0.0,-8.0,-15.0,5.0,25.0,6.0,-1.0,0.56085205078125,-0.03466796875,-0.0101318359375,-0.8271484375,-0.07421875,-0.98681640625,0.3759765625,-2.0625,9.125,2.6875
0.5250000000000004,-1.0,0.0,-8.0,-15.0,5.0,25.0,6.0,-1.0,0.56085205078125,-0.03466796875,-0.0101318359375,-0.8271484375,-0.07421875,-0.98681640625,0.3759765625,-2.0625,9.125,2.6875
0.5300000000000004,0.0,-2.0,-6.0,-29.0,-6.0,7.0,1.0,-1.0,0.56109619140625,-0.036376953125,-0.0096435546875,-0.826904296875,-0.08447265625,-0.99462890625,0.3740234375,-0.3125,9.1875,2.75
0.5350000000000004,-1.0,-1.0,2.0,2.0,0.0,-10.0,-5.0,-2.0,0.56109619140625,-0.036376953125,-0.0096435546875,-0.826904296875,-0.08447265625,-0.99462890625,0.3740234375,-0.3125,9.1875,2.75
0.5400000000000004,-1.0,-1.0,2.0,2.0,0.0,-10.0,-5.0,-2.0,0.56109619140625,-0.036376953125,-0.0096435546875,-0.826904296875,-0.08447265625,-0.99462890625,0.3740234375,-0.3125,9.1875,2.75
0.5450000000000004,-1.0,-1.0,2.0,2.0,0.0,-10.0,-5.0,-2.0,0.56109619140625,-0.036376953125,-0.0096435546875,-0.826904296875,-0.08447265625,-0.99462890625,0.3740234375,-0.3125,9.1875,2.75
0.5500000000000004,-1.0,-1.0,2.0,2.0,0.0,-10.0,-5.0,-2.0,0.56109619140625,-0.036376953125,-0.0096435546875,-0.826904296875,-0.08447265625,-0.99462890625,0.3740234375,-0.3125,9.1875,2.75
0.5550000000000004,-1.0,-1.0,2.0,2.0,0.0,-10.0,-5.0,-2.0,0.56109619140625,-0.036376953125,-0.0096435546875,-0.826904296875,-0.08447265625,-0.99462890625,0.3740234375,-0.3125,9.1875,2.75
0.5600000000000004,0.0,-1.0,0.0,5.0,2.0,-21.0,-2.0,0.0,0.56085205078125,-0.03802490234375,-0.00921630859375,-0.8270263671875,-0.08203125,-0.970703125,0.380859375,1.8125,8.875,2.6875
0.5650000000000004,0.0,-1.0,0.0,5.0,2.0,-21.0,-2.0,0.0,0.56085205078125,-0.03802490234375,-0.00921630859375,-0.8270263671875,-0.08203125,-0.970703125,0.380859375,1.8125,8.875,2.6875
0.5700000000000004,0.0,-1.0,0.0,5.0,2.0,-21.0,-2.0,0.0,0.56085205078125,-0.03802490234375,-0.00921630859375,-0.8270263671875,-0.08203125,-0.970703125,0.380859375,1.8125,8.875,2.6875
0.5750000000000004,0.0,-1.0,0.0,5.0,2.0,-21.0,-2.0,0.0,0.56085205078125,-0.03802490234375,-0.00921630859375,-0.8270263671875,-0.08203125,-0.970703125,0.380859375,1.8125,8.875,2.6875
0.5800000000000004,-4.0,-1.0,-3.0,7.0,7.0,-1.0,-5.0,-4.0,0.5606689453125,-0.03961181640625,-0.0089111328125,-0.82708740234375,-0.0947265625,-0.9619140625,0.3759765625,1.625,7.9375,2.5625
0.5850000000000004,-1.0,-2.0,0.0,-21.0,9.0,15.0,5.0,0.0,0.5606689453125,-0.03961181640625,-0.0089111328125,-0.82708740234375,-0.0947265625,-0.9619140625,0.3759765625,1.625,7.9375,2.5625
0.5900000000000004,-1.0,-2.0,0.0,-21.0,9.0,15.0,5.0,0.0,0.5606689453125,-0.03961181640625,-0.0089111328125,-0.82708740234375,-0.0947265625,-0.9619140625,0.3759765625,1.625,7.9375,2.5625
0.5950000000000004,-1.0,-2.0,0.0,-21.0,9.0,15.0,5.0,0.0,0.5606689453125,-0.03961181640625,-0.0089111328125,-0.82708740234375,-0.0947265625,-0.9619140625,0.3759765625,1.625,7.9375,2.5625
0.6000000000000004,-1.0,-2.0,0.0,-21.0,9.0,15.0,5.0,0.0,0.5606689453125,-0.03961181640625,-0.0089111328125,-0.82708740234375,-0.0947265625,-0.9619140625,0.3759765625,1.625,7.9375,2.5625
0.6050000000000004,-1.0,-2.0,0.0,-21.0,9.0,15.0,5.0,0.0,0.5606689453125,-0.03961181640625,-0.0089111328125,-0.82708740234375,-0.0947265625,-0.9619140625,0.3759765625,1.625,7.9375,2.5625
0.6100000000000004,0.0,0.0,-2.0,-6.0,3.0,14.0,-1.0,0.0,0.56060791015625,-0.04095458984375,-0.0086669921875,-0.8270263671875,-0.087890625,-0.95166015625,0.37939453125,0.0,7.1875,2.75
0.6150000000000004,0.0,0.0,2.0,5.0,-5.0,-13.0,-6.0,-2.0,0.56060791015625,-0.04095458984375,-0.0086669921875,-0.8270263671875,-0.087890625,-0.95166015625,0.37939453125,0.0,7.1875,2.75
0.6200000000000004,0.0,0.0,2.0,5.0,-5.0,-13.0,-6.0,-2.0,0.56060791015625,-0.04095458984375,-0.0086669921875,-0.8270263671875,-0.087890625,-0.95166015625,0.37939453125,0.0,7.1875,2.75
0.6250000000000004,0.0,0.0,2.0,5.0,-5.0,-13.0,-6.0,-2.0,0.56060791015625,-0.04095458984375,-0.0086669921875,-0.8270263671875,-0.087890625,-0.95166015625,0.37939453125,0.0,7.1875,2.75
0.6300000000000004,0.0,0.0,2.0,5.0,-5.0,-13.0,-6.0,-2.0,0.56060791015625,-0.04095458984375,-0.0086669921875,-0.8270263671875,-0.087890625,-0.95166015625,0.37939453125,0.0,7.1875,2.75
0.6350000000000005,0.0,0.0,2.0,5.0,-5.0,-13.0,-6.0,-2.0,0.56060791015625,-0.04095458984375,-0.0086669921875,-0.8270263671875,-0.087890625,-0.95166015625,0.37939453125,0.0,7.1875,2.75
0.6400000000000005,-2.0,0.0,0.0,5.0,-21.0,-9.0,-1.0,-1.0,0.56060791015625,-0.04229736328125,-0.008544921875,-0.82696533203125,-0.0849609375,-0.94873046875,0.3779296875,-0.125,6.4375,3.3125
0.6450000000000005,-2.0,0.0,0.0,5.0,-21.0,-9.0,-1.0,-1.0,0.56060791015625,-0.04229736328125,-0.008544921875,-0.82696533203125,-0.0849609375,-0.94873046875,0.3779296875,-0.125,6.4375,3.3125
0.6500000000000005,-2.0,0.0,0.0,5.0,-21.0,-9.0,-1.0,-1.0,0.56060791015625,-0.04229736328125,-0.008544921875,-0.82696533203125,-0.0849609375,-0.94873046875,0.3779296875,-0.125,6.4375,3.3125
0.6550000000000005,0.0,0.0,-3.0,-3.0,6.0,1.0,1.0,-1.0,0.560546875,-0.04364013671875,-0.00848388671875,-0.82696533203125,-0.09033203125,-0.93701171875,0.376953125,-0.0625,6.3125,3.5625
0.6600000000000005,0.0,0.0,-3.0,-3.0,6.0,1.0,1.0,-1.0,0.560546875,-0.04364013671875,-0.00848388671875,-0.82696533203125,-0.09033203125,-0.93701171875,0.376953125,-0.0625,6.3125,3.5625
0.6650000000000005,-2.0,-1.0,0.0,10.0,-3.0,-12.0,-4.0,-3.0,0.560546875,-0.04364013671875,-0.00848388671875,-0.82696533203125,-0.09033203125,-0.93701171875,0.376953125,-0.0625,6.3125,3.5625
0.6700000000000005,-2.0,-1.0,0.0,10.0,-3.0,-12.0,-4.0,-3.0,0.560546875,-0.04364013671875,-0.00848388671875,-0.82696533203125,-0.09033203125,-0.93701171875,0.376953125,-0.0625,6.3125,3.5625
0.6750000000000005,-2.0,-1.0,0.0,10.0,-3.0,-12.0,-4.0,-3.0,0.560546875,-0.04364013671875,-0.00848388671875,-0.82696533203125,-0.09033203125,-0.93701171875,0.376953125,-0.0625,6.3125,3.5625
0.6800000000000005,-1.0,-2.0,0.0,2.0,10.0,1.0,-1.0,2.0,0.5604248046875,-0.044921875,-0.00836181640625,-0.82696533203125,-0.091796875,-0.9462890625,0.3818359375,0.25,6.1875,3.375
0.6850000000000005,-1.0,-2.0,0.0,2.0,10.0,1.0,-1.0,2.0,0.5604248046875,-0.044921875,-0.00836181640625,-0.82696533203125,-0.091796875,-0.9462890625,0.3818359375,0.25,6.1875,3.375
0.6900000000000005,0.0,-1.0,-1.0,-4.0,0.0,17.0,1.0,0.0,0.5604248046875,-0.044921875,-0.00836181640625,-0.82696533203125,-0.091796875,-0.9462890625,0.3818359375,0.25,6.1875,3.375
0.6950000000000005,1.0,-2.0,-5.0,-8.0,-1.0,-4.0,3.0,-1.0,0.5604248046875,-0.044921875,-0.00836181640625,-0.82696533203125,-0.091796875,-0.9462890625,0.3818359375,0.25,6.1875,3.375
0.7000000000000005,1.0,-2.0,-5.0,-8.0,-1.0,-4.0,3.0,-1.0,0.5604248046875,-0.044921875,-0.00836181640625,-0.82696533203125,-0.091796875,-0.9462890625,0.3818359375,0.25,6.1875,3.375
0.7050000000000005,-2.0,-3.0,0.0,2.0,-2.0,-3.0,-3.0,-2.0,0.55999755859375,-0.0460205078125,-0.00830078125,-0.8271484375,-0.091796875,-0.947265625,0.380859375,2.1875,5.375,2.9375
0.7100000000000005,-2.0,-3.0,0.0,2.0,-2.0,-3.0,-3.0,-2.0,0.55999755859375,-0.0460205078125,-0.00830078125,-0.8271484375,-0.091796875,-0.947265625,0.380859375,2.1875,5.375,2.9375
0.7150000000000005,-2.0,-3.0,0.0,2.0,-2.0,-3.0,-3.0,-2.0,0.55999755859375,-0.0460205078125,-0.00830078125,-0.8271484375,-0.091796875,-0.947265625,0.380859375,2.1875,5.375,2.9375
0.7200000000000005,1.0,2.0,9.0,20.0,11.0,-10.0,-2.0,-1.0,0.55999755859375,-0.0460205078125,-0.00830078125,-0.8271484375,-0.091796875,-0.947265625,0.380859375,2.1875,5.375,2.9375
0.7250000000000005,1.0,2.0,9.0,20.0,11.0,-10.0,-2.0,-1.0,0.5594482421875,-0.047119140625,-0.00823974609375,-0.8275146484375,-0.0908203125,-0.9287109375,0.3818359375,3.125,5.125,2.8125
0.7300000000000005,-2.0,-2.0,-6.0,-8.0,8.0,8.0,-1.0,-2.0,0.5594482421875,-0.047119140625,-0.00823974609375,-0.8275146484375,-0.0908203125,-0.9287109375,0.3818359375,3.125,5.125,2.8125
0.7350000000000005,-2.0,-2.0,-6.0,-8.0,8.0,8.0,-1.0,-2.0,0.5594482421875,-0.047119140625,-0.00823974609375,-0.8275146484375,-0.0908203125,-0.9287109375,0.3818359375,3.125,5.125,2.8125
0.7400000000000005,-2.0,-1.0,-3.0,-16.0,-9.0,9.0,1.0,1.0,0.5589599609375,-0.04815673828125,-0.0084228515625,-0.8277587890625,-0.0966796875,-0.931640625,0.375,2.75,4.1875,3.875
0.7450000000000006,-2.0,-1.0,-3.0,-16.0,-9.0,9.0,1.0,1.0,0.5589599609375,-0.04815673828125,-0.0084228515625,-0.8277587890625,-0.0966796875,-0.931640625,0.375,2.75,4.1875,3.875
0.7500000000000006,-1.0,0.0,-2.0,11.0,-3.0,-30.0,-9.0,-4.0,0.5589599609375,-0.04815673828125,-0.0084228515625,-0.8277587890625,-0.0966796875,-0.931640625,0.375,2.75,4.1875,3.875
0.7550000000000006,-1.0,0.0,-2.0,11.0,-3.0,-30.0,-9.0,-4.0,0.5589599609375,-0.04815673828125,-0.0084228515625,-0.8277587890625,-0.0966796875,-0.931640625,0.375,2.75,4.1875,3.875
0.7600000000000006,-1.0,0.0,-2.0,11.0,-3.0,-30.0,-9.0,-4.0,0.5589599609375,-0.04815673828125,-0.0084228515625,-0.8277587890625,-0.0966796875,-0.931640625,0.375,2.75,4.1875,3.875
0.7650000000000006,-1.0,0.0,-2.0,11.0,-3.0,-30.0,-9.0,-4.0,0.5589599609375,-0.04815673828125,-0.0084228515625,-0.8277587890625,-0.0966796875,-0.931640625,0.375,2.75,4.1875,3.875
0.7700000000000006,1.0,0.0,-2.0,-1.0,7.0,-10.0,-1.0,0.0,0.55865478515625,-0.04913330078125,-0.008544921875,-0.82794189453125,-0.08837890625,-0.93017578125,0.37744140625,1.9375,4.25,4.1875
0.7750000000000006,1.0,0.0,-2.0,-1.0,7.0,-10.0,-1.0,0.0,0.55865478515625,-0.04913330078125,-0.008544921875,-0.82794189453125,-0.08837890625,-0.93017578125,0.37744140625,1.9375,4.25,4.1875
0.7800000000000006,-1.0,-2.0,-6.0,-4.0,4.0,19.0,4.0,-2.0,0.55865478515625,-0.04913330078125,-0.008544921875,-0.82794189453125,-0.08837890625,-0.93017578125,0.37744140625,1.9375,4.25,4.1875
0.7850000000000006,-2.0,-4.0,-3.0,-7.0,-4.0,-1.0,-1.0,0.0,0.55816650390625,-0.05023193359375,-0.0087890625,-0.82818603515625,-0.08642578125,-0.93359375,0.37451171875,2.8125,4.25,5.25
0.7900000000000006,-2.0,-1.0,-14.0,-10.0,-7.0,4.0,1.0,-1.0,0.55816650390625,-0.05023193359375,-0.0087890625,-0.82818603515625,-0.08642578125,-0.93359375,0.37451171875,2.8125,4.25,5.25
0.7950000000000006,-2.0,-1.0,-14.0,-10.0,-7.0,4.0,1.0,-1.0,0.55816650390625,-0.05023193359375,-0.0087890625,-0.82818603515625,-0.08642578125,-0.93359375,0.37451171875,2.8125,4.25,5.25
0.8000000000000006,-2.0,-1.0,-14.0,-10.0,-7.0,4.0,1.0,-1.0,0.55816650390625,-0.05023193359375,-0.0087890625,-0.82818603515625,-0.08642578125,-0.93359375,0.37451171875,2.8125,4.25,5.25
0.8050000000000006,-2.0,-2.0,-3.0,-8.0,-3.0,24.0,4.0,-2.0,0.55810546875,-0.05133056640625,-0.009033203125,-0.828125,-0.07177734375,-0.9345703125,0.365234375,1.0,5.0,6.0625
0.8100000000000006,-2.0,-1.0,3.0,-5.0,-19.0,-44.0,-11.0,-1.0,0.55810546875,-0.05133056640625,-0.009033203125,-0.828125,-0.07177734375,-0.9345703125,0.365234375,1.0,5.0,6.0625
0.8150000000000006,-2.0,-1.0,3.0,-5.0,-19.0,-44.0,-11.0,-1.0,0.55810546875,-0.05133056640625,-0.009033203125,-0.828125,-0.07177734375,-0.9345703125,0.365234375,1.0,5.0,6.0625
0.8200000000000006,-2.0,-1.0,3.0,-5.0,-19.0,-44.0,-11.0,-1.0,0.55810546875,-0.05133056640625,-0.009033203125,-0.828125,-0.07177734375,-0.9345703125,0.365234375,1.0,5.0,6.0625
0.8250000000000006,-2.0,-1.0,3.0,-5.0,-19.0,-44.0,-11.0,-1.0,0.55810546875,-0.05133056640625,-0.009033203125,-0.828125,-0.07177734375,-0.9345703125,0.365234375,1.0,5.0,6.0625
0.8300000000000006,1.0,-1.0,-1.0,1.0,6.0,27.0,3.0,0.0,0.5579833984375,-0.05267333984375,-0.00933837890625,-0.828125,-0.07373046875,-0.92724609375,0.3642578125,0.875,6.125,7.375
0.8350000000000006,1.0,-1.0,-1.0,1.0,6.0,27.0,3.0,0.0,0.5579833984375,-0.05267333984375,-0.00933837890625,-0.828125,-0.07373046875,-0.92724609375,0.3642578125,0.875,6.125,7.375
0.8400000000000006,1.0,-1.0,-1.0,1.0,6.0,27.0,3.0,0.0,0.5579833984375,-0.05267333984375,-0.00933837890625,-0.828125,-0.07373046875,-0.92724609375,0.3642578125,0.875,6.125,7.375
0.8450000000000006,1.0,-1.0,-1.0,1.0,6.0,27.0,3.0,0.0,0.5579833984375,-0.05267333984375,-0.00933837890625,-0.828125,-0.07373046875,-0.92724609375,0.3642578125,0.875,6.125,7.375
0.8500000000000006,0.0,-2.0,-3.0,-3.0,5.0,-4.0,-2.0,0.0,0.5579833984375,-0.05267333984375,-0.00933837890625,-0.828125,-0.07373046875,-0.92724609375,0.3642578125,0.875,6.125,7.375
0.8550000000000006,-2.0,-1.0,2.0,-3.0,-10.0,-6.0,1.0,2.0,0.5579833984375,-0.05413818359375,-0.009765625,-0.8280029296875,-0.08740234375,-0.93017578125,0.380859375,-0.75,6.0625,7.75
0.8600000000000007,-2.0,-1.0,2.0,-3.0,-10.0,-6.0,1.0,2.0,0.5579833984375,-0.05413818359375,-0.009765625,-0.8280029296875,-0.08740234375,-0.93017578125,0.380859375,-0.75,6.0625,7.75
0.8650000000000007,-2.0,-1.0,2.0,-3.0,-10.0,-6.0,1.0,2.0,0.5579833984375,-0.05413818359375,-0.009765625,-0.8280029296875,-0.08740234375,-0.93017578125,0.380859375,-0.75,6.0625,7.75
0.8700000000000007,-2.0,-3.0,2.0,23.0,1.0,22.0,-1.0,0.0,0.55792236328125,-0.05548095703125,-0.0101318359375,-0.8280029296875,-0.09130859375,-0.943359375,0.38720703125,-0.5,5.375,6.9375
0.8750000000000007,0.0,0.0,-3.0,-13.0,8.0,15.0,-3.0,-2.0,0.55792236328125,-0.05548095703125,-0.0101318359375,-0.8280029296875,-0.09130859375,-0.943359375,0.38720703125,-0.5,5.375,6.9375
0.8800000000000007,0.0,0.0,-3.0,-13.0,8.0,15.0,-3.0,-2.0,0.55792236328125,-0.05548095703125,-0.0101318359375,-0.8280029296875,-0.09130859375,-0.943359375,0.38720703125,-0.5,5.375,6.9375
0.8850000000000007,0.0,0.0,-3.0,-13.0,8.0,15.0,-3.0,-2.0,0.55792236328125,-0.05548095703125,-0.0101318359375,-0.8280029296875,-0.09130859375,-0.943359375,0.38720703125,-0.5,5.375,6.9375
0.8900000000000007,0.0,0.0,-3.0,-13.0,8.0,15.0,-3.0,-2.0,0.55792236328125,-0.05548095703125,-0.0101318359375,-0.8280029296875,-0.09130859375,-0.943359375,0.38720703125,-0.5,5.375,6.9375
0.8950000000000007,-1.0,2.0,4.0,13.0,5.0,-10.0,-2.0,-1.0,0.55792236328125,-0.05548095703125,-0.0101318359375,-0.8280029296875,-0.09130859375,-0.943359375,0.38720703125,-0.5,5.375,6.9375
0.9000000000000007,-2.0,-2.0,3.0,-2.0,-9.0,6.0,1.0,-1.0,0.55767822265625,-0.05657958984375,-0.01031494140625,-0.82806396484375,-0.09619140625,-0.953125,0.40478515625,0.0,5.0,5.1875
0.9050000000000007,-2.0,-2.0,3.0,-2.0,-9.0,6.0,1.0,-1.0,0.55767822265625,-0.05657958984375,-0.01031494140625,-0.82806396484375,-0.09619140625,-0.953125,0.40478515625,0.0,5.0,5.1875
0.9100000000000007,-1.0,0.0,-3.0,-4.0,-13.0,-4.0,-2.0,0.0,0.55767822265625,-0.05657958984375,-0.01031494140625,-0.82806396484375,-0.09619140625,-0.953125,0.40478515625,0.0,5.0,5.1875
0.9150000000000007,0.0,-2.0,-1.0,3.0,13.0,6.0,-1.0,-1.0,0.55712890625,-0.05743408203125,-0.0103759765625,-0.828369140625,-0.1123046875,-0.93994140625,0.41259765625,1.5,4.0625,3.0625
0.9200000000000007,-1.0,-2.0,-4.0,-4.0,6.0,5.0,0.0,-2.0,0.55712890625,-0.05743408203125,-0.0103759765625,-0.828369140625,-0.1123046875,-0.93994140625,0.41259765625,1.5,4.0625,3.0625
0.9250000000000007,-1.0,-2.0,-4.0,-4.0,6.0,5.0,0.0,-2.0,0.55712890625,-0.05743408203125,-0.0103759765625,-0.828369140625,-0.1123046875,-0.93994140625,0.41259765625,1.5,4.0625,3.0625
0.9300000000000007,-1.0,-2.0,-4.0,-4.0,6.0,5.0,0.0,-2.0,0.55712890625,-0.05743408203125,-0.0103759765625,-0.828369140625,-0.1123046875,-0.93994140625,0.41259765625,1.5,4.0625,3.0625
0.9350000000000007,-1.0,0.0,1.0,14.0,-9.0,-12.0,-3.0,-1.0,0.5562744140625,-0.05804443359375,-0.01043701171875,-0.82891845703125,-0.119140625,-0.9326171875,0.421875,2.875,2.4375,1.5625
0.9400000000000007,-1.0,0.0,1.0,14.0,-9.0,-12.0,-3.0,-1.0,0.5562744140625,-0.05804443359375,-0.01043701171875,-0.82891845703125,-0.119140625,-0.9326171875,0.421875,2.875,2.4375,1.5625
0.9450000000000007,-1.0,-2.0,-1.0,15.0,-9.0,-21.0,3.0,-1.0,0.5562744140625,-0.05804443359375,-0.01043701171875,-0.82891845703125,-0.119140625,-0.9326171875,0.421875,2.875,2.4375,1.5625
0.9500000000000007,-1.0,-2.0,-1.0,15.0,-9.0,-21.0,3.0,-1.0,0.5562744140625,-0.05804443359375,-0.01043701171875,-0.82891845703125,-0.119140625,-0.9326171875,0.421875,2.875,2.4375,1.5625
0.9550000000000007,-2.0,-3.0,-11.0,-52.0,-10.0,-23.0,-7.0,-3.0,0.5555419921875,-0.05816650390625,-0.0103759765625,-0.82940673828125,-0.11572265625,-0.9287109375,0.4169921875,2.4375,0.75,-0.0625
0.9600000000000007,-2.0,-3.0,-11.0,-52.0,-10.0,-23.0,-7.0,-3.0,0.5555419921875,-0.05816650390625,-0.0103759765625,-0.82940673828125,-0.11572265625,-0.9287109375,0.4169921875,2.4375,0.75,-0.0625
0.9650000000000007,-2.0,-3.0,-11.0,-52.0,-10.0,-23.0,-7.0,-3.0,0.5555419921875,-0.05816650390625,-0.0103759765625,-0.82940673828125,-0.11572265625,-0.9287109375,0.4169921875,2.4375,0.75,-0.0625
0.9700000000000008,-1.0,0.0,1.0,-7.0,-15.0,-16.0,-1.0,-2.0,0.5555419921875,-0.05816650390625,-0.0103759765625,-0.82940673828125,-0.11572265625,-0.9287109375,0.4169921875,2.4375,0.75,-0.0625
0.9750000000000008,-1.0,0.0,1.0,-7.0,-15.0,-16.0,-1.0,-2.0,0.5555419921875,-0.05816650390625,-0.0103759765625,-0.82940673828125,-0.11572265625,-0.9287109375,0.4169921875,2.4375,0.75,-0.0625
0.9800000000000008,-1.0,0.0,1.0,-7.0,-15.0,-16.0,-1.0,-2.0,0.5555419921875,-0.05816650390625,-0.0103759765625,-0.82940673828125,-0.11572265625,-0.9287109375,0.4169921875,2.4375,0.75,-0.0625
0.9850000000000008,1.0,0.0,5.0,27.0,10.0,22.0,3.0,0.0,0.55511474609375,-0.05816650390625,-0.0101318359375,-0.8297119140625,-0.11083984375,-0.9267578125,0.40673828125,1.4375,0.625,-1.3125
0.9900000000000008,1.0,0.0,5.0,27.0,10.0,22.0,3.0,0.0,0.55511474609375,-0.05816650390625,-0.0101318359375,-0.8297119140625,-0.11083984375,-0.9267578125,0.40673828125,1.4375,0.625,-1.3125
0.9950000000000008,1.0,0.0,5.0,27.0,10.0,22.0,3.0,0.0,0.55511474609375,-0.05816650390625,-0.0101318359375,-0.8297119140625,-0.11083984375,-0.9267578125,0.40673828125,1.4375,0.625,-1.3125
1.0000000000000007,-3.0,-3.0,-4.0,-15.0,-9.0,-8.0,-5.0,-2.0,0.55438232421875,-0.05810546875,-0.010009765625,-0.83013916015625,-0.11669921875,-0.91943359375,0.4052734375,3.0625,0.1875,-1.125
1.0050000000000006,-3.0,-3.0,-4.0,-15.0,-9.0,-8.0,-5.0,-2.0,0.55438232421875,-0.05810546875,-0.010009765625,-0.83013916015625,-0.11669921875,-0.91943359375,0.4052734375,3.0625,0.1875,-1.125
1.0100000000000005,-2.0,-1.0,0.0,1.0,7.0,23.0,2.0,1.0,0.55438232421875,-0.05810546875,-0.010009765625,-0.83013916015625,-0.11669921875,-0.91943359375,0.4052734375,3.0625,0.1875,-1.125
1.0150000000000003,-2.0,-1.0,0.0,1.0,7.0,23.0,2.0,1.0,0.55438232421875,-0.05810546875,-0.010009765625,-0.83013916015625,-0.11669921875,-0.91943359375,0.4052734375,3.0625,0.1875,-1.125
1.0200000000000002,-2.0,-1.0,0.0,1.0,7.0,23.0,2.0,1.0,0.55438232421875,-0.05810546875,-0.010009765625,-0.83013916015625,-0.11669921875,-0.91943359375,0.4052734375,3.0625,0.1875,-1.125
1.0250000000000001,-2.0,-1.0,0.0,1.0,7.0,23.0,2.0,1.0,0.55438232421875,-0.05810546875,-0.010009765625,-0.83013916015625,-0.11669921875,-0.91943359375,0.4052734375,3.0625,0.1875,-1.125
1.03,-1.0,0.0,4.0,13.0,10.0,17.0,3.0,2.0,0.55377197265625,-0.05816650390625,-0.00994873046875,-0.83056640625,-0.12109375,-0.91650390625,0.39111328125,3.625,-0.25,-0.625
1.035,-1.0,0.0,4.0,13.0,10.0,17.0,3.0,2.0,0.55377197265625,-0.05816650390625,-0.00994873046875,-0.83056640625,-0.12109375,-0.91650390625,0.39111328125,3.625,-0.25,-0.625
1.0399999999999998,-1.0,0.0,4.0,13.0,10.0,17.0,3.0,2.0,0.55377197265625,-0.05816650390625,-0.00994873046875,-0.83056640625,-0.12109375,-0.91650390625,0.39111328125,3.625,-0.25,-0.625
1.0449999999999997,-1.0,0.0,4.0,13.0,10.0,17.0,3.0,2.0,0.55377197265625,-0.05816650390625,-0.00994873046875,-0.83056640625,-0.12109375,-0.91650390625,0.39111328125,3.625,-0.25,-0.625
1.0499999999999996,-1.0,-1.0,0.0,1.0,-1.0,-21.0,-2.0,3.0,0.5531005859375,-0.05828857421875,-0.010009765625,-0.83099365234375,-0.125,-0.91455078125,0.39697265625,3.125,-0.25,-0.4375
1.0549999999999995,-1.0,-1.0,0.0,1.0,-1.0,-21.0,-2.0,3.0,0.5531005859375,-0.05828857421875,-0.010009765625,-0.83099365234375,-0.125,-0.91455078125,0.39697265625,3.125,-0.25,-0.4375
1.0599999999999994,-1.0,-1.0,1.0,6.0,18.0,14.0,-3.0,-1.0,0.5531005859375,-0.05828857421875,-0.010009765625,-0.83099365234375,-0.125,-0.91455078125,0.39697265625,3.125,-0.25,-0.4375
1.0649999999999993,-1.0,-1.0,1.0,6.0,18.0,14.0,-3.0,-1.0,0.5531005859375,-0.05828857421875,-0.010009765625,-0.83099365234375,-0.125,-0.91455078125,0.39697265625,3.125,-0.25,-0.4375
1.0699999999999992,-1.0,-1.0,1.0,6.0,18.0,14.0,-3.0,-1.0,0.5531005859375,-0.05828857421875,-0.010009765625,-0.83099365234375,-0.125,-0.91455078125,0.39697265625,3.125,-0.25,-0.4375
1.074999999999999,-1.0,-1.0,1.0,6.0,18.0,14.0,-3.0,-1.0,0.5531005859375,-0.05828857421875,-0.010009765625,-0.83099365234375,-0.125,-0.91455078125,0.39697265625,3.125,-0.25,-0.4375
1.079999999999999,1.0,-1.0,0.0,1.0,8.0,15.0,3.0,1.0,0.552734375,-0.058349609375,-0.010009765625,-0.83123779296875,-0.1259765625,-0.91748046875,0.39892578125,1.375,-0.125,-0.75
1.0849999999999989,-1.0,0.0,6.0,23.0,-3.0,1.0,-1.0,-1.0,0.552734375,-0.058349609375,-0.010009765625,-0.83123779296875,-0.1259765625,-0.91748046875,0.39892578125,1.375,-0.125,-0.75
1.0899999999999987,-1.0,0.0,6.0,23.0,-3.0,1.0,-1.0,-1.0,0.552734375,-0.058349609375,-0.010009765625,-0.83123779296875,-0.1259765625,-0.91748046875,0.39892578125,1.375,-0.125,-0.75
1.0949999999999986,-1.0,0.0,6.0,23.0,-3.0,1.0,-1.0,-1.0,0.552734375,-0.058349609375,-0.010009765625,-0.83123779296875,-0.1259765625,-0.91748046875,0.39892578125,1.375,-0.125,-0.75
1.0999999999999985,-1.0,0.0,6.0,23.0,-3.0,1.0,-1.0,-1.0,0.552734375,-0.058349609375,-0.010009765625,-0.83123779296875,-0.1259765625,-0.91748046875,0.39892578125,1.375,-0.125,-0.75
1.1049999999999984,-1.0,0.0,6.0,23.0,-3.0,1.0,-1.0,-1.0,0.552734375,-0.058349609375,-0.010009765625,-0.83123779296875,-0.1259765625,-0.91748046875,0.39892578125,1.375,-0.125,-0.75
1.1099999999999983,-1.0,-1.0,0.0,1.0,-4.0,-14.0,-3.0,0.0,0.55230712890625,-0.0584716796875,-0.0101318359375,-0.83154296875,-0.12939453125,-0.9208984375,0.40478515625,1.5625,-0.25,-0.5
1.1149999999999982,-1.0,-1.0,0.0,1.0,-4.0,-14.0,-3.0,0.0,0.55230712890625,-0.0584716796875,-0.0101318359375,-0.83154296875,-0.12939453125,-0.9208984375,0.40478515625,1.5625,-0.25,-0.5
1.119999999999998,-1.0,-1.0,0.0,1.0,-4.0,-14.0,-3.0,0.0,0.55230712890625,-0.0584716796875,-0.0101318359375,-0.83154296875,-0.12939453125,-0.9208984375,0.40478515625,1.5625,-0.25,-0.5
1.124999999999998,-2.0,-2.0,-2.0,16.0,-7.0,6.0,-4.0,-1.0,0.55230712890625,-0.0584716796875,-0.0101318359375,-0.83154296875,-0.12939453125,-0.9208984375,0.40478515625,1.5625,-0.25,-0.5
1.129999999999998,-2.0,-2.0,-2.0,16.0,-7.0,6.0,-4.0,-1.0,0.55230712890625,-0.0584716796875,-0.0101318359375,-0.83154296875,-0.12939453125,-0.9208984375,0.40478515625,1.5625,-0.25,-0.5
1.1349999999999978,-2.0,-2.0,-2.0,16.0,-7.0,6.0,-4.0,-1.0,0.5517578125,-0.05859375,-0.01019287109375,-0.83184814453125,-0.13134765625,-0.92236328125,0.4140625,1.8125,-0.25,-0.375
1.1399999999999977,0.0,-3.0,-4.0,-15.0,-4.0,-21.0,-3.0,0.0,0.5517578125,-0.05859375,-0.01019287109375,-0.83184814453125,-0.13134765625,-0.92236328125,0.4140625,1.8125,-0.25,-0.375
1.1449999999999976,0.0,-3.0,-4.0,-15.0,-4.0,-21.0,-3.0,0.0,0.5517578125,-0.05859375,-0.01019287109375,-0.83184814453125,-0.13134765625,-0.92236328125,0.4140625,1.8125,-0.25,-0.375
1.1499999999999975,0.0,-3.0,-4.0,-15.0,-4.0,-21.0,-3.0,0.0,0.5517578125,-0.05859375,-0.01019287109375,-0.83184814453125,-0.13134765625,-0.92236328125,0.4140625,1.8125,-0.25,-0.375
1.1549999999999974,0.0,0.0,4.0,3.0,6.0,-8.0,0.0,-2.0,0.55126953125,-0.05865478515625,-0.0103759765625,-0.83221435546875,-0.1337890625,-0.91552734375,0.41064453125,1.875,-0.9375,-0.5
1.1599999999999973,0.0,0.0,4.0,3.0,6.0,-8.0,0.0,-2.0,0.55126953125,-0.05865478515625,-0.0103759765625,-0.83221435546875,-0.1337890625,-0.91552734375,0.41064453125,1.875,-0.9375,-0.5
1.1649999999999971,-2.0,-4.0,-10.0,-4.0,-11.0,19.0,1.0,0.0,0.55126953125,-0.05865478515625,-0.0103759765625,-0.83221435546875,-0.1337890625,-0.91552734375,0.41064453125,1.875,-0.9375,-0.5
1.169999999999997,-2.0,-4.0,-10.0,-4.0,-11.0,19.0,1.0,0.0,0.55126953125,-0.05865478515625,-0.0103759765625,-0.83221435546875,-0.1337890625,-0.91552734375,0.41064453125,1.875,-0.9375,-0.5
1.174999999999997,-2.0,-4.0,-10.0,-4.0,-11.0,19.0,1.0,0.0,0.55126953125,-0.05865478515625,-0.0103759765625,-0.83221435546875,-0.1337890625,-0.91552734375,0.41064453125,1.875,-0.9375,-0.5
1.1799999999999968,-2.0,-4.0,-10.0,-4.0,-11.0,19.0,1.0,0.0,0.55126953125,-0.05865478515625,-0.0103759765625,-0.83221435546875,-0.1337890625,-0.91552734375,0.41064453125,1.875,-0.9375,-0.5
1.1849999999999967,-2.0,1.0,3.0,4.0,1.0,3.0,2.0,-1.0,0.55096435546875,-0.05853271484375,-0.01055908203125,-0.83245849609375,-0.13720703125,-0.92138671875,0.41455078125,0.3125,-1.625,-1.1875
1.1899999999999966,-2.0,1.0,3.0,4.0,1.0,3.0,2.0,-1.0,0.55096435546875,-0.05853271484375,-0.01055908203125,-0.83245849609375,-0.13720703125,-0.92138671875,0.41455078125,0.3125,-1.625,-1.1875
1.1949999999999965,-2.0,1.0,3.0,4.0,1.0,3.0,2.0,-1.0,0.55096435546875,-0.05853271484375,-0.01055908203125,-0.83245849609375,-0.13720703125,-0.92138671875,0.41455078125,0.3125,-1.625,-1.1875
1.1999999999999964,-2.0,1.0,3.0,4.0,1.0,3.0,2.0,-1.0,0.55096435546875,-0.05853271484375,-0.01055908203125,-0.83245849609375,-0.13720703125,-0.92138671875,0.41455078125,0.3125,-1.625,-1.1875
1.2049999999999963,1.0,0.0,-2.0,-1.0,1.0,8.0,0.0,0.0,0.55096435546875,-0.05853271484375,-0.01055908203125,-0.83245849609375,-0.13720703125,-0.92138671875,0.41455078125,0.3125,-1.625,-1.1875
1.2099999999999962,1.0,0.0,-2.0,-1.0,1.0,8.0,0.0,0.0,0.55096435546875,-0.05853271484375,-0.01055908203125,-0.83245849609375,-0.13720703125,-0.92138671875,0.41455078125,0.3125,-1.625,-1.1875
1.214999999999996,-2.0,-1.0,0.0,3.0,-1.0,-7.0,-5.0,-3.0,0.5504150390625,-0.058349609375,-0.01068115234375,-0.832763671875,-0.12890625,-0.923828125,0.41357421875,1.9375,-2.0625,-1.125
1.219999999999996,-2.0,-1.0,0.0,3.0,-1.0,-7.0,-5.0,-3.0,0.5504150390625,-0.058349609375,-0.01068115234375,-0.832763671875,-0.12890625,-0.923828125,0.41357421875,1.9375,-2.0625,-1.125
1.2249999999999959,-2.0,-1.0,0.0,3.0,-1.0,-7.0,-5.0,-3.0,0.5504150390625,-0.058349609375,-0.01068115234375,-0.832763671875,-0.12890625,-0.923828125,0.41357421875,1.9375,-2.0625,-1.125
1.2299999999999958,-1.0,-2.0,2.0,6.0,-2.0,-18.0,-6.0,-2.0,0.5504150390625,-0.058349609375,-0.01068115234375,-0.832763671875,-0.12890625,-0.923828125,0.41357421875,1.9375,-2.0625,-1.125
1.2349999999999957,-1.0,-2.0,2.0,6.0,-2.0,-18.0,-6.0,-2.0,0.54998779296875,-0.05810546875,-0.01080322265625,-0.8331298828125,-0.13037109375,-0.92626953125,0.4091796875,2.125,-2.0,-1.3125
1.2399999999999956,-1.0,-2.0,2.0,6.0,-2.0,-18.0,-6.0,-2.0,0.54998779296875,-0.05810546875,-0.01080322265625,-0.8331298828125,-0.13037109375,-0.92626953125,0.4091796875,2.125,-2.0,-1.3125
1.2449999999999954,-1.0,-2.0,-1.0,0.0,19.0,2.0,-1.0,-1.0,0.54998779296875,-0.05810546875,-0.01080322265625,-0.8331298828125,-0.13037109375,-0.92626953125,0.4091796875,2.125,-2.0,-1.3125
1.2499999999999953,-1.0,-2.0,-1.0,0.0,19.0,2.0,-1.0,-1.0,0.54998779296875,-0.05810546875,-0.01080322265625,-0.8331298828125,-0.13037109375,-0.92626953125,0.4091796875,2.125,-2.0,-1.3125
1.2549999999999952,-1.0,-2.0,-1.0,0.0,19.0,2.0,-1.0,-1.0,0.54998779296875,-0.05810546875,-0.01080322265625,-0.8331298828125,-0.13037109375,-0.92626953125,0.4091796875,2.125,-2.0,-1.3125
1.2599999999999951,-1.0,-1.0,-8.0,-33.0,-3.0,-1.0,-4.0,-1.0,0.5498046875,-0.057861328125,-0.01080322265625,-0.833251953125,-0.123046875,-0.93408203125,0.39306640625,1.5,-1.6875,-1.6875
1.264999999999995,-1.0,-1.0,-8.0,-33.0,-3.0,-1.0,-4.0,-1.0,0.5498046875,-0.057861328125,-0.01080322265625,-0.833251953125,-0.123046875,-0.93408203125,0.39306640625,1.5,-1.6875,-1.6875
1.269999999999995,0.0,-2.0,-3.0,-4.0,0.0,3.0,-3.0,-1.0,0.5498046875,-0.057861328125,-0.01080322265625,-0.833251953125,-0.123046875,-0.93408203125,0.39306640625,1.5,-1.6875,-1.6875
1.2749999999999948,0.0,-2.0,-3.0,-4.0,0.0,3.0,-3.0,-1.0,0.5498046875,-0.057861328125,-0.01080322265625,-0.833251953125,-0.123046875,-0.93408203125,0.39306640625,1.5,-1.6875,-1.6875
1.2799999999999947,1.0,-1.0,2.0,16.0,2.0,8.0,-1.0,-1.0,0.54974365234375,-0.0574951171875,-0.01068115234375,-0.83331298828125,-0.1103515625,-0.9296875,0.3916015625,0.4375,-1.375,-1.875
1.2849999999999946,1.0,-1.0,2.0,16.0,2.0,8.0,-1.0,-1.0,0.54974365234375,-0.0574951171875,-0.01068115234375,-0.83331298828125,-0.1103515625,-0.9296875,0.3916015625,0.4375,-1.375,-1.875
1.2899999999999945,-3.0,-5.0,-12.0,-7.0,-7.0,-9.0,-5.0,0.0,0.54974365234375,-0.0574951171875,-0.01068115234375,-0.83331298828125,-0.1103515625,-0.9296875,0.3916015625,0.4375,-1.375,-1.875
1.2949999999999944,-3.0,-5.0,-12.0,-7.0,-7.0,-9.0,-5.0,0.0,0.54949951171875,-0.05718994140625,-0.01055908203125,-0.83343505859375,-0.107421875,-0.927734375,0.38916015625,1.9375,-1.1875,-1.25
1.2999999999999943,-1.0,0.0,1.0,10.0,-6.0,-4.0,0.0,-1.0,0.54949951171875,-0.05718994140625,-0.01055908203125,-0.83343505859375,-0.107421875,-0.927734375,0.38916015625,1.9375,-1.1875,-1.25
1.3049999999999942,-1.0,0.0,1.0,10.0,-6.0,-4.0,0.0,-1.0,0.54949951171875,-0.05718994140625,-0.01055908203125,-0.83343505859375,-0.107421875,-0.927734375,0.38916015625,1.9375,-1.1875,-1.25
1.309999999999994,-1.0,0.0,1.0,10.0,-6.0,-4.0,0.0,-1.0,0.54949951171875,-0.05718994140625,-0.01055908203125,-0.83343505859375,-0.107421875,-0.927734375,0.38916015625,1.9375,-1.1875,-1.25
1.314999999999994,-1.0,0.0,1.0,10.0,-6.0,-4.0,0.0,-1.0,0.54949951171875,-0.05718994140625,-0.01055908203125,-0.83343505859375,-0.107421875,-0.927734375,0.38916015625,1.9375,-1.1875,-1.25
1.3199999999999938,-1.0,0.0,1.0,10.0,-6.0,-4.0,0.0,-1.0,0.54949951171875,-0.05718994140625,-0.01055908203125,-0.83343505859375,-0.107421875,-0.927734375,0.38916015625,1.9375,-1.1875,-1.25
1.3249999999999937,0.0,0.0,2.0,5.0,-3.0,5.0,4.0,-1.0,0.549560546875,-0.0572509765625,-0.0106201171875,-0.83343505859375,-0.1142578125,-0.93017578125,0.38623046875,0.3125,-0.75,-0.875
1.3299999999999936,0.0,0.0,2.0,5.0,-3.0,5.0,4.0,-1.0,0.549560546875,-0.0572509765625,-0.0106201171875,-0.83343505859375,-0.1142578125,-0.93017578125,0.38623046875,0.3125,-0.75,-0.875
1.3349999999999935,0.0,-4.0,-11.0,-42.0,-12.0,2.0,-3.0,-1.0,0.549560546875,-0.0572509765625,-0.0106201171875,-0.83343505859375,-0.1142578125,-0.93017578125,0.38623046875,0.3125,-0.75,-0.875
1.3399999999999934,0.0,-4.0,-11.0,-42.0,-12.0,2.0,-3.0,-1.0,0.549560546875,-0.0572509765625,-0.0106201171875,-0.83343505859375,-0.1142578125,-0.93017578125,0.38623046875,0.3125,-0.75,-0.875
1.3449999999999933,0.0,-4.0,-11.0,-42.0,-12.0,2.0,-3.0,-1.0,0.549560546875,-0.0572509765625,-0.0106201171875,-0.83343505859375,-0.1142578125,-0.93017578125,0.38623046875,0.3125,-0.75,-0.875
1.3499999999999932,-1.0,-2.0,-10.0,-15.0,-8.0,-1.0,-6.0,-2.0,0.549560546875,-0.05718994140625,-0.0106201171875,-0.83343505859375,-0.1064453125,-0.93310546875,0.384765625,-1.0,-0.3125,-0.875
1.354999999999993,-1.0,-2.0,-10.0,-15.0,-8.0,-1.0,-6.0,-2.0,0.549560546875,-0.05718994140625,-0.0106201171875,-0.83343505859375,-0.1064453125,-0.93310546875,0.384765625,-1.0,-0.3125,-0.875
1.359999999999993,-1.0,-2.0,-10.0,-15.0,-8.0,-1.0,-6.0,-2.0,0.549560546875,-0.05718994140625,-0.0106201171875,-0.83343505859375,-0.1064453125,-0.93310546875,0.384765625,-1.0,-0.3125,-0.875
1.3649999999999929,1.0,1.0,0.0,16.0,14.0,16.0,4.0,1.0,0.54962158203125,-0.0572509765625,-0.0106201171875,-0.8333740234375,-0.11328125,-0.93798828125,0.3828125,-0.4375,0.625,-1.0
1.3699999999999928,-3.0,-8.0,-9.0,-31.0,-11.0,-11.0,-5.0,-3.0,0.54962158203125,-0.0572509765625,-0.0106201171875,-0.8333740234375,-0.11328125,-0.93798828125,0.3828125,-0.4375,0.625,-1.0
1.3749999999999927,-3.0,-8.0,-9.0,-31.0,-11.0,-11.0,-5.0,-3.0,0.54962158203125,-0.0572509765625,-0.0106201171875,-0.8333740234375,-0.11328125,-0.93798828125,0.3828125,-0.4375,0.625,-1.0
1.3799999999999926,-3.0,-8.0,-9.0,-31.0,-11.0,-11.0,-5.0,-3.0,0.54962158203125,-0.0572509765625,-0.0106201171875,-0.8333740234375,-0.11328125,-0.93798828125,0.3828125,-0.4375,0.625,-1.0
1.3849999999999925,-3.0,-8.0,-9.0,-31.0,-11.0,-11.0,-5.0,-3.0,0.54962158203125,-0.0572509765625,-0.0106201171875,-0.8333740234375,-0.11328125,-0.93798828125,0.3828125,-0.4375,0.625,-1.0
1.3899999999999924,-4.0,0.0,1.0,1.0,13.0,13.0,2.0,-1.0,0.54962158203125,-0.0572509765625,-0.0106201171875,-0.8333740234375,-0.11572265625,-0.92724609375,0.38818359375,0.0625,0.5625,-1.0
1.3949999999999922,-4.0,0.0,1.0,1.0,13.0,13.0,2.0,-1.0,0.54962158203125,-0.0572509765625,-0.0106201171875,-0.8333740234375,-0.11572265625,-0.92724609375,0.38818359375,0.0625,0.5625,-1.0
1.3999999999999921,-2.0,-1.0,0.0,7.0,-5.0,-30.0,-3.0,-3.0,0.54962158203125,-0.0572509765625,-0.0106201171875,-0.8333740234375,-0.11572265625,-0.92724609375,0.38818359375,0.0625,0.5625,-1.0
1.404999999999992,-2.0,-1.0,0.0,7.0,-5.0,-30.0,-3.0,-3.0,0.54962158203125,-0.0572509765625,-0.0106201171875,-0.8333740234375,-0.11572265625,-0.92724609375,0.38818359375,0.0625,0.5625,-1.0
1.409999999999992,-1.0,-4.0,-4.0,-6.0,-8.0,2.0,3.0,-1.0,0.54962158203125,-0.0572509765625,-0.0106201171875,-0.8333740234375,-0.11572265625,-0.92724609375,0.38818359375,0.0625,0.5625,-1.0
1.4149999999999918,0.0,2.0,4.0,-13.0,1.0,3.0,-1.0,-1.0,0.54962158203125,-0.0572509765625,-0.0106201171875,-0.8333740234375,-0.11279296875,-0.927734375,0.38525390625,0.125,-0.9375,-0.4375
1.4199999999999917,0.0,2.0,4.0,-13.0,1.0,3.0,-1.0,-1.0,0.54962158203125,-0.0572509765625,-0.0106201171875,-0.8333740234375,-0.11279296875,-0.927734375,0.38525390625,0.125,-0.9375,-0.4375
1.4249999999999916,0.0,2.0,4.0,-13.0,1.0,3.0,-1.0,-1.0,0.54962158203125,-0.0572509765625,-0.0106201171875,-0.8333740234375,-0.11279296875,-0.927734375,0.38525390625,0.125,-0.9375,-0.4375
1.4299999999999915,1.0,4.0,14.0,51.0,6.0,7.0,1.0,1.0,0.5499267578125,-0.0570068359375,-0.0106201171875,-0.83319091796875,-0.10693359375,-0.93896484375,0.3828125,-0.875,-1.125,-0.75
1.4349999999999914,1.0,4.0,14.0,51.0,6.0,7.0,1.0,1.0,0.5499267578125,-0.0570068359375,-0.0106201171875,-0.83319091796875,-0.10693359375,-0.93896484375,0.3828125,-0.875,-1.125,-0.75
1.4399999999999913,1.0,0.0,7.0,22.0,5.0,-16.0,-2.0,-3.0,0.5499267578125,-0.0570068359375,-0.0106201171875,-0.83319091796875,-0.10693359375,-0.93896484375,0.3828125,-0.875,-1.125,-0.75
1.4449999999999912,1.0,0.0,7.0,22.0,5.0,-16.0,-2.0,-3.0,0.5499267578125,-0.0570068359375,-0.0106201171875,-0.83319091796875,-0.10693359375,-0.93896484375,0.3828125,-0.875,-1.125,-0.75
1.449999999999991,-2.0,-2.0,-8.0,-2.0,-10.0,6.0,-3.0,-1.0,0.5499267578125,-0.0570068359375,-0.0106201171875,-0.83319091796875,-0.10693359375,-0.93896484375,0.3828125,-0.875,-1.125,-0.75
1.454999999999991,2.0,0.0,1.0,-5.0,13.0,8.0,4.0,0.0,0.55023193359375,-0.05694580078125,-0.010498046875,-0.8330078125,-0.10693359375,-0.9345703125,0.3828125,-1.125,-0.125,-0.625
1.4599999999999909,-1.0,2.0,13.0,78.0,-2.0,2.0,-1.0,-1.0,0.55023193359375,-0.05694580078125,-0.010498046875,-0.8330078125,-0.10693359375,-0.9345703125,0.3828125,-1.125,-0.125,-0.625
1.4649999999999908,-1.0,2.0,13.0,78.0,-2.0,2.0,-1.0,-1.0,0.55023193359375,-0.05694580078125,-0.010498046875,-0.8330078125,-0.10693359375,-0.9345703125,0.3828125,-1.125,-0.125,-0.625
1.4699999999999906,-1.0,-2.0,4.0,0.0,-9.0,-7.0,-5.0,-2.0,0.55023193359375,-0.05694580078125,-0.010498046875,-0.8330078125,-0.10693359375,-0.9345703125,0.3828125,-1.125,-0.125,-0.625
1.4749999999999905,-1.0,-2.0,4.0,0.0,-9.0,-7.0,-5.0,-2.0,0.55023193359375,-0.05694580078125,-0.010498046875,-0.8330078125,-0.10693359375,-0.9345703125,0.3828125,-1.125,-0.125,-0.625
1.4799999999999904,-2.0,-2.0,-3.0,-6.0,2.0,10.0,2.0,0.0,0.55059814453125,-0.056884765625,-0.01043701171875,-0.832763671875,-0.10546875,-0.93505859375,0.37255859375,-1.375,-0.0625,-0.5625
1.4849999999999903,-2.0,-2.0,-3.0,-6.0,2.0,10.0,2.0,0.0,0.55059814453125,-0.056884765625,-0.01043701171875,-0.832763671875,-0.10546875,-0.93505859375,0.37255859375,-1.375,-0.0625,-0.5625
1.4899999999999902,-2.0,-2.0,-3.0,-6.0,2.0,10.0,2.0,0.0,0.55059814453125,-0.056884765625,-0.01043701171875,-0.832763671875,-0.10546875,-0.93505859375,0.37255859375,-1.375,-0.0625,-0.5625
1.4949999999999901,-2.0,-1.0,-1.0,-7.0,-5.0,-12.0,-6.0,-1.0,0.55059814453125,-0.056884765625,-0.01043701171875,-0.832763671875,-0.10546875,-0.93505859375,0.37255859375,-1.375,-0.0625,-0.5625
1.49999999999999,-2.0,-1.0,-1.0,-7.0,-5.0,-12.0,-6.0,-1.0,0.5506591796875,-0.056884765625,-0.01043701171875,-0.832763671875,-0.103515625,-0.93212890625,0.380859375,-0.75,-0.4375,-0.5
1.50499999999999,2.0,2.0,6.0,20.0,2.0,10.0,3.0,2.0,0.5506591796875,-0.056884765625,-0.01043701171875,-0.832763671875,-0.103515625,-0.93212890625,0.380859375,-0.75,-0.4375,-0.5
1.5099999999999898,2.0,2.0,6.0,20.0,2.0,10.0,3.0,2.0,0.5506591796875,-0.056884765625,-0.01043701171875,-0.832763671875,-0.103515625,-0.93212890625,0.380859375,-0.75,-0.4375,-0.5
1.5149999999999897,2.0,2.0,6.0,20.0,2.0,10.0,3.0,2.0,0.5506591796875,-0.056884765625,-0.01043701171875,-0.832763671875,-0.103515625,-0.93212890625,0.380859375,-0.75,-0.4375,-0.5
1.5199999999999896,-2.0,-4.0,-12.0,-33.0,-9.0,-4.0,-3.0,-3.0,0.55084228515625,-0.0565185546875,-0.01031494140625,-0.8326416015625,-0.09765625,-0.92919921875,0.38037109375,-0.4375,-1.125,-1.0
1.5249999999999895,-2.0,-4.0,-12.0,-33.0,-9.0,-4.0,-3.0,-3.0,0.55084228515625,-0.0565185546875,-0.01031494140625,-0.8326416015625,-0.09765625,-0.92919921875,0.38037109375,-0.4375,-1.125,-1.0
1.5299999999999894,0.0,-2.0,0.0,7.0,-8.0,-1.0,-3.0,-1.0,0.55084228515625,-0.0565185546875,-0.01031494140625,-0.8326416015625,-0.09765625,-0.92919921875,0.38037109375,-0.4375,-1.125,-1.0
1.5349999999999893,-1.0,0.0,-9.0,-9.0,-8.0,18.0,5.0,1.0,0.55126953125,-0.05633544921875,-0.01025390625,-0.8323974609375,-0.10400390625,-0.9365234375,0.38134765625,-2.0625,-0.8125,-1.0
1.5399999999999892,-1.0,-1.0,8.0,39.0,6.0,2.0,0.0,-2.0,0.55157470703125,-0.05609130859375,-0.0101318359375,-0.83221435546875,-0.10693359375,-0.9462890625,0.3857421875,-1.5,-0.625,-1.5625
1.544999999999989,-1.0,-1.0,8.0,39.0,6.0,2.0,0.0,-2.0,0.55157470703125,-0.05609130859375,-0.0101318359375,-0.83221435546875,-0.10693359375,-0.9462890625,0.3857421875,-1.5,-0.625,-1.5625
1.549999999999989,-2.0,-2.0,0.0,3.0,-23.0,-16.0,-1.0,-3.0,0.55157470703125,-0.05609130859375,-0.0101318359375,-0.83221435546875,-0.10693359375,-0.9462890625,0.3857421875,-1.5,-0.625,-1.5625
1.5549999999999888,-2.0,-2.0,0.0,3.0,-23.0,-16.0,-1.0,-3.0,0.55157470703125,-0.05609130859375,-0.0101318359375,-0.83221435546875,-0.10693359375,-0.9462890625,0.3857421875,-1.5,-0.625,-1.5625
1.5599999999999887,-2.0,-2.0,0.0,3.0,-23.0,-16.0,-1.0,-3.0,0.55157470703125,-0.05609130859375,-0.0101318359375,-0.83221435546875,-0.10693359375,-0.9462890625,0.3857421875,-1.5,-0.625,-1.5625
1.5649999999999886,-2.0,-2.0,0.0,3.0,-23.0,-16.0,-1.0,-3.0,0.55157470703125,-0.05609130859375,-0.0101318359375,-0.83221435546875,-0.10693359375,-0.9462890625,0.3857421875,-1.5,-0.625,-1.5625
1.5699999999999885,-3.0,-2.0,-10.0,-26.0,-7.0,6.0,0.0,-1.0,0.5517578125,-0.05584716796875,-0.00994873046875,-0.83209228515625,-0.11767578125,-0.943359375,0.38916015625,-0.875,-0.9375,-2.25
1.5749999999999884,-2.0,-6.0,-16.0,-10.0,-1.0,4.0,-2.0,0.0,0.5517578125,-0.05584716796875,-0.00994873046875,-0.83209228515625,-0.11767578125,-0.943359375,0.38916015625,-0.875,-0.9375,-2.25
1.5799999999999883,-2.0,-6.0,-16.0,-10.0,-1.0,4.0,-2.0,0.0,0.5517578125,-0.05584716796875,-0.00994873046875,-0.83209228515625,-0.11767578125,-0.943359375,0.38916015625,-0.875,-0.9375,-2.25
1.5849999999999882,-2.0,-6.0,-16.0,-10.0,-1.0,4.0,-2.0,0.0,0.5517578125,-0.05584716796875,-0.00994873046875,-0.83209228515625,-0.11767578125,-0.943359375,0.38916015625,-0.875,-0.9375,-2.25
1.589999999999988,-2.0,-6.0,-16.0,-10.0,-1.0,4.0,-2.0,0.0,0.5517578125,-0.05584716796875,-0.00994873046875,-0.83209228515625,-0.11767578125,-0.943359375,0.38916015625,-0.875,-0.9375,-2.25
1.594999999999988,-2.0,-6.0,-16.0,-10.0,-1.0,4.0,-2.0,0.0,0.5517578125,-0.05584716796875,-0.00994873046875,-0.83209228515625,-0.11767578125,-0.943359375,0.38916015625,-0.875,-0.9375,-2.25
1.5999999999999879,0.0,-1.0,-1.0,-6.0,-7.0,-10.0,-4.0,-1.0,0.55206298828125,-0.05548095703125,-0.00982666015625,-0.8319091796875,-0.11767578125,-0.947265625,0.39111328125,-1.75,-1.625,-2.5
1.6049999999999878,0.0,-1.0,-1.0,-6.0,-7.0,-10.0,-4.0,-1.0,0.55206298828125,-0.05548095703125,-0.00982666015625,-0.8319091796875,-0.11767578125,-0.947265625,0.39111328125,-1.75,-1.625,-2.5
1.6099999999999877,0.0,-1.0,-1.0,-6.0,-7.0,-10.0,-4.0,-1.0,0.55206298828125,-0.05548095703125,-0.00982666015625,-0.8319091796875,-0.11767578125,-0.947265625,0.39111328125,-1.75,-1.625,-2.5
1.6149999999999876,0.0,-1.0,-1.0,-6.0,-7.0,-10.0,-4.0,-1.0,0.55206298828125,-0.05548095703125,-0.00982666015625,-0.8319091796875,-0.11767578125,-0.947265625,0.39111328125,-1.75,-1.625,-2.5
1.6199999999999875,0.0,1.0,1.0,-4.0,4.0,17.0,1.0,0.0,0.5521240234375,-0.05511474609375,-0.00970458984375,-0.8319091796875,-0.11376953125,-0.94580078125,0.3896484375,0.25,-1.8125,-2.4375
1.6249999999999873,-1.0,-1.0,4.0,23.0,13.0,-12.0,-5.0,-2.0,0.5521240234375,-0.05511474609375,-0.00970458984375,-0.8319091796875,-0.11376953125,-0.94580078125,0.3896484375,0.25,-1.8125,-2.4375
1.6299999999999872,-1.0,-1.0,4.0,23.0,13.0,-12.0,-5.0,-2.0,0.5521240234375,-0.05511474609375,-0.00970458984375,-0.8319091796875,-0.11376953125,-0.94580078125,0.3896484375,0.25,-1.8125,-2.4375
1.6349999999999871,-1.0,-1.0,4.0,23.0,13.0,-12.0,-5.0,-2.0,0.5521240234375,-0.05511474609375,-0.00970458984375,-0.8319091796875,-0.11376953125,-0.94580078125,0.3896484375,0.25,-1.8125,-2.4375
1.639999999999987,-1.0,-1.0,4.0,23.0,13.0,-12.0,-5.0,-2.0,0.5521240234375,-0.05511474609375,-0.00970458984375,-0.8319091796875,-0.11376953125,-0.94580078125,0.3896484375,0.25,-1.8125,-2.4375
1.644999999999987,-1.0,-1.0,-2.0,-19.0,3.0,18.0,1.0,-1.0,0.552001953125,-0.0546875,-0.00970458984375,-0.83197021484375,-0.11279296875,-0.94189453125,0.392578125,0.8125,-1.9375,-1.875
1.6499999999999868,-1.0,-1.0,-2.0,-19.0,3.0,18.0,1.0,-1.0,0.552001953125,-0.0546875,-0.00970458984375,-0.83197021484375,-0.11279296875,-0.94189453125,0.392578125,0.8125,-1.9375,-1.875
1.6549999999999867,-5.0,-1.0,-2.0,-4.0,3.0,-4.0,-5.0,-3.0,0.552001953125,-0.0546875,-0.00970458984375,-0.83197021484375,-0.11279296875,-0.94189453125,0.392578125,0.8125,-1.9375,-1.875
1.6599999999999866,-5.0,-1.0,-2.0,-4.0,3.0,-4.0,-5.0,-3.0,0.552001953125,-0.0546875,-0.00970458984375,-0.83197021484375,-0.11279296875,-0.94189453125,0.392578125,0.8125,-1.9375,-1.875
1.6649999999999865,-5.0,-1.0,-2.0,-4.0,3.0,-4.0,-5.0,-3.0,0.552001953125,-0.0546875,-0.00970458984375,-0.83197021484375,-0.11279296875,-0.94189453125,0.392578125,0.8125,-1.9375,-1.875
1.6699999999999864,-5.0,-1.0,-2.0,-4.0,3.0,-4.0,-5.0,-3.0,0.552001953125,-0.0546875,-0.00970458984375,-0.83197021484375,-0.11279296875,-0.94189453125,0.392578125,0.8125,-1.9375,-1.875
1.6749999999999863,1.0,2.0,2.0,-4.0,-5.0,-11.0,-1.0,0.0,0.55218505859375,-0.05438232421875,-0.00970458984375,-0.8319091796875,-0.11572265625,-0.9482421875,0.38916015625,-0.6875,-2.125,-1.8125
1.6799999999999862,1.0,2.0,2.0,-4.0,-5.0,-11.0,-1.0,0.0,0.55218505859375,-0.05438232421875,-0.00970458984375,-0.8319091796875,-0.11572265625,-0.9482421875,0.38916015625,-0.6875,-2.125,-1.8125
1.684999999999986,0.0,-3.0,-14.0,-55.0,-2.0,-4.0,-4.0,-1.0,0.55218505859375,-0.05438232421875,-0.00970458984375,-0.8319091796875,-0.11572265625,-0.9482421875,0.38916015625,-0.6875,-2.125,-1.8125
1.689999999999986,0.0,-3.0,-14.0,-55.0,-2.0,-4.0,-4.0,-1.0,0.55218505859375,-0.05438232421875,-0.00970458984375,-0.8319091796875,-0.11572265625,-0.9482421875,0.38916015625,-0.6875,-2.125,-1.8125
1.6949999999999859,-5.0,-4.0,-7.0,-3.0,-11.0,-11.0,-9.0,-6.0,0.55206298828125,-0.0540771484375,-0.00982666015625,-0.83203125,-0.109375,-0.9375,0.39306640625,0.9375,-1.8125,-0.875
1.6999999999999857,-5.0,-4.0,-7.0,-3.0,-11.0,-11.0,-9.0,-6.0,0.55206298828125,-0.0540771484375,-0.00982666015625,-0.83203125,-0.109375,-0.9375,0.39306640625,0.9375,-1.8125,-0.875
1.7049999999999856,-5.0,-4.0,-7.0,-3.0,-11.0,-11.0,-9.0,-6.0,0.55206298828125,-0.0540771484375,-0.00982666015625,-0.83203125,-0.109375,-0.9375,0.39306640625,0.9375,-1.8125,-0.875
1.7099999999999855,0.0,1.0,5.0,-9.0,15.0,17.0,5.0,2.0,0.55206298828125,-0.0540771484375,-0.00982666015625,-0.83203125,-0.109375,-0.9375,0.39306640625,0.9375,-1.8125,-0.875
1.7149999999999854,0.0,1.0,5.0,-9.0,15.0,17.0,5.0,2.0,0.55206298828125,-0.0540771484375,-0.00982666015625,-0.83203125,-0.109375,-0.9375,0.39306640625,0.9375,-1.8125,-0.875
1.7199999999999853,0.0,-1.0,1.0,25.0,-1.0,-12.0,-2.0,-2.0,0.55206298828125,-0.0540771484375,-0.00982666015625,-0.83203125,-0.109375,-0.9375,0.39306640625,0.9375,-1.8125,-0.875
1.7249999999999852,0.0,-1.0,1.0,25.0,-1.0,-12.0,-2.0,-2.0,0.5517578125,-0.053955078125,-0.00994873046875,-0.83221435546875,-0.11328125,-0.9384765625,0.390625,2.0,-1.5,-0.25
1.729999999999985,0.0,-1.0,1.0,25.0,-1.0,-12.0,-2.0,-2.0,0.5517578125,-0.053955078125,-0.00994873046875,-0.83221435546875,-0.11328125,-0.9384765625,0.390625,2.0,-1.5,-0.25
1.734999999999985,0.0,-1.0,1.0,25.0,-1.0,-12.0,-2.0,-2.0,0.5517578125,-0.053955078125,-0.00994873046875,-0.83221435546875,-0.11328125,-0.9384765625,0.390625,2.0,-1.5,-0.25
1.739999999999985,0.0,-1.0,-1.0,-14.0,-6.0,-3.0,-2.0,0.0,0.5517578125,-0.053955078125,-0.00994873046875,-0.83221435546875,-0.11328125,-0.9384765625,0.390625,2.0,-1.5,-0.25
1.7449999999999848,0.0,-1.0,-1.0,-14.0,-6.0,-3.0,-2.0,0.0,0.5517578125,-0.053955078125,-0.00994873046875,-0.83221435546875,-0.11328125,-0.9384765625,0.390625,2.0,-1.5,-0.25
1.7499999999999847,-1.0,-1.0,-2.0,12.0,9.0,-12.0,2.0,1.0,0.5517578125,-0.053955078125,-0.00994873046875,-0.83221435546875,-0.11328125,-0.9384765625,0.390625,2.0,-1.5,-0.25
1.7549999999999846,0.0,-1.0,5.0,-3.0,-2.0,3.0,2.0,-2.0,0.55194091796875,-0.05389404296875,-0.01025390625,-0.83209228515625,-0.11279296875,-0.9501953125,0.3837890625,-0.1875,-1.5625,0.5625
1.7599999999999845,0.0,-1.0,5.0,-3.0,-2.0,3.0,2.0,-2.0,0.55194091796875,-0.05389404296875,-0.01025390625,-0.83209228515625,-0.11279296875,-0.9501953125,0.3837890625,-0.1875,-1.5625,0.5625
1.7649999999999844,0.0,-1.0,5.0,-3.0,-2.0,3.0,2.0,-2.0,0.55194091796875,-0.05389404296875,-0.01025390625,-0.83209228515625,-0.11279296875,-0.9501953125,0.3837890625,-0.1875,-1.5625,0.5625
1.7699999999999843,-2.0,-1.0,-2.0,-17.0,-6.0,-7.0,-5.0,-1.0,0.5518798828125,-0.05389404296875,-0.01055908203125,-0.8321533203125,-0.11767578125,-0.953125,0.39697265625,0.375,-1.5,0.625
1.7749999999999841,-2.0,-1.0,-2.0,-17.0,-6.0,-7.0,-5.0,-1.0,0.5518798828125,-0.05389404296875,-0.01055908203125,-0.8321533203125,-0.11767578125,-0.953125,0.39697265625,0.375,-1.5,0.625
1.779999999999984,-2.0,-1.0,2.0,-9.0,2.0,8.0,3.0,2.0,0.5518798828125,-0.05389404296875,-0.01055908203125,-0.8321533203125,-0.11767578125,-0.953125,0.39697265625,0.375,-1.5,0.625
1.784999999999984,-2.0,-1.0,2.0,-9.0,2.0,8.0,3.0,2.0,0.5518798828125,-0.05389404296875,-0.01055908203125,-0.8321533203125,-0.11767578125,-0.953125,0.39697265625,0.375,-1.5,0.625
1.7899999999999838,-2.0,-1.0,2.0,-9.0,2.0,8.0,3.0,2.0,0.5518798828125,-0.05389404296875,-0.01055908203125,-0.8321533203125,-0.11767578125,-0.953125,0.39697265625,0.375,-1.5,0.625
1.7949999999999837,-2.0,-1.0,2.0,-9.0,2.0,8.0,3.0,2.0,0.5518798828125,-0.05389404296875,-0.01055908203125,-0.8321533203125,-0.11767578125,-0.953125,0.39697265625,0.375,-1.5,0.625
1.7999999999999836,0.0,-3.0,-2.0,1.0,0.0,1.0,-1.0,0.0,0.5518798828125,-0.05389404296875,-0.01055908203125,-0.8321533203125,-0.11767578125,-0.953125,0.39697265625,0.375,-1.5,0.625
1.8049999999999835,0.0,-3.0,-2.0,1.0,0.0,1.0,-1.0,0.0,0.55126953125,-0.05377197265625,-0.01092529296875,-0.83251953125,-0.1103515625,-0.94384765625,0.39501953125,4.0,-2.1875,1.125
1.8099999999999834,0.0,-3.0,-2.0,1.0,0.0,1.0,-1.0,0.0,0.55126953125,-0.05377197265625,-0.01092529296875,-0.83251953125,-0.1103515625,-0.94384765625,0.39501953125,4.0,-2.1875,1.125
1.8149999999999833,0.0,-3.0,-2.0,1.0,0.0,1.0,-1.0,0.0,0.55126953125,-0.05377197265625,-0.01092529296875,-0.83251953125,-0.1103515625,-0.94384765625,0.39501953125,4.0,-2.1875,1.125
1.8199999999999832,-1.0,-1.0,-4.0,5.0,-14.0,-15.0,-6.0,-2.0,0.55126953125,-0.05377197265625,-0.01092529296875,-0.83251953125,-0.1103515625,-0.94384765625,0.39501953125,4.0,-2.1875,1.125
1.824999999999983,-1.0,-1.0,-4.0,5.0,-14.0,-15.0,-6.0,-2.0,0.55126953125,-0.05377197265625,-0.01092529296875,-0.83251953125,-0.1103515625,-0.94384765625,0.39501953125,4.0,-2.1875,1.125
1.829999999999983,-1.0,-1.0,-4.0,5.0,-14.0,-15.0,-6.0,-2.0,0.55126953125,-0.05377197265625,-0.01092529296875,-0.83251953125,-0.1103515625,-0.94384765625,0.39501953125,4.0,-2.1875,1.125
1.8349999999999829,-2.0,0.0,1.0,8.0,8.0,3.0,1.0,-1.0,0.5506591796875,-0.05352783203125,-0.01141357421875,-0.83294677734375,-0.11376953125,-0.93408203125,0.40771484375,3.0625,-3.0,1.0625
1.8399999999999828,-2.0,0.0,1.0,8.0,8.0,3.0,1.0,-1.0,0.5506591796875,-0.05352783203125,-0.01141357421875,-0.83294677734375,-0.11376953125,-0.93408203125,0.40771484375,3.0625,-3.0,1.0625
1.8449999999999827,-2.0,0.0,1.0,8.0,8.0,3.0,1.0,-1.0,0.5506591796875,-0.05352783203125,-0.01141357421875,-0.83294677734375,-0.11376953125,-0.93408203125,0.40771484375,3.0625,-3.0,1.0625
1.8499999999999825,-1.0,-1.0,-5.0,-16.0,-5.0,2.0,0.0,-3.0,0.55029296875,-0.05316162109375,-0.01190185546875,-0.83319091796875,-0.1083984375,-0.94580078125,0.40380859375,2.3125,-3.375,0.75
1.8549999999999824,0.0,1.0,7.0,12.0,2.0,-6.0,-2.0,-2.0,0.55029296875,-0.05316162109375,-0.01190185546875,-0.83319091796875,-0.1083984375,-0.94580078125,0.40380859375,2.3125,-3.375,0.75
1.8599999999999823,0.0,-4.0,-8.0,-16.0,3.0,-7.0,-4.0,-3.0,0.55029296875,-0.05316162109375,-0.01190185546875,-0.83319091796875,-0.1083984375,-0.94580078125,0.40380859375,2.3125,-3.375,0.75
1.8649999999999822,0.0,-4.0,-8.0,-16.0,3.0,-7.0,-4.0,-3.0,0.55029296875,-0.05316162109375,-0.01190185546875,-0.83319091796875,-0.1083984375,-0.94580078125,0.40380859375,2.3125,-3.375,0.75
1.8699999999999821,0.0,-4.0,-8.0,-16.0,3.0,-7.0,-4.0,-3.0,0.55029296875,-0.05316162109375,-0.01190185546875,-0.83319091796875,-0.1083984375,-0.94580078125,0.40380859375,2.3125,-3.375,0.75
1.874999999999982,-3.0,-2.0,0.0,0.0,3.0,3.0,1.0,-2.0,0.5496826171875,-0.05279541015625,-0.01239013671875,-0.8336181640625,-0.109375,-0.93408203125,0.39453125,4.4375,-3.5625,1.125
1.879999999999982,-3.0,0.0,0.0,10.0,1.0,4.0,-2.0,-3.0,0.5496826171875,-0.05279541015625,-0.01239013671875,-0.8336181640625,-0.109375,-0.93408203125,0.39453125,4.4375,-3.5625,1.125
1.8849999999999818,-3.0,-2.0,-2.0,-16.0,-9.0,-15.0,-6.0,-3.0,0.5496826171875,-0.05279541015625,-0.01239013671875,-0.8336181640625,-0.109375,-0.93408203125,0.39453125,4.4375,-3.5625,1.125
1.8899999999999817,-3.0,-2.0,-2.0,-16.0,-9.0,-15.0,-6.0,-3.0,0.5496826171875,-0.05279541015625,-0.01239013671875,-0.8336181640625,-0.109375,-0.93408203125,0.39453125,4.4375,-3.5625,1.125
1.8949999999999816,-1.0,-1.0,-3.0,-17.0,-3.0,13.0,3.0,1.0,0.5496826171875,-0.05279541015625,-0.01239013671875,-0.8336181640625,-0.109375,-0.93408203125,0.39453125,4.4375,-3.5625,1.125
1.8999999999999815,-1.0,-1.0,0.0,11.0,10.0,10.0,2.0,0.0,0.54913330078125,-0.052490234375,-0.01287841796875,-0.833984375,-0.10546875,-0.92529296875,0.38818359375,4.0,-3.375,1.25
1.9049999999999814,-1.0,-1.0,0.0,11.0,10.0,10.0,2.0,0.0,0.54913330078125,-0.052490234375,-0.01287841796875,-0.833984375,-0.10546875,-0.92529296875,0.38818359375,4.0,-3.375,1.25
1.9099999999999813,0.0,0.0,2.0,8.0,-14.0,-9.0,1.0,1.0,0.54876708984375,-0.05224609375,-0.01336669921875,-0.834228515625,-0.1083984375,-0.919921875,0.37939453125,3.0625,-3.3125,1.125
1.9149999999999812,-1.0,0.0,4.0,8.0,2.0,-7.0,-2.0,-1.0,0.54876708984375,-0.05224609375,-0.01336669921875,-0.834228515625,-0.1083984375,-0.919921875,0.37939453125,3.0625,-3.3125,1.125
1.919999999999981,-1.0,0.0,4.0,8.0,2.0,-7.0,-2.0,-1.0,0.54876708984375,-0.05224609375,-0.01336669921875,-0.834228515625,-0.1083984375,-0.919921875,0.37939453125,3.0625,-3.3125,1.125
1.924999999999981,-1.0,0.0,4.0,8.0,2.0,-7.0,-2.0,-1.0,0.54876708984375,-0.05224609375,-0.01336669921875,-0.834228515625,-0.1083984375,-0.919921875,0.37939453125,3.0625,-3.3125,1.125
1.9299999999999808,-1.0,0.0,4.0,8.0,2.0,-7.0,-2.0,-1.0,0.54876708984375,-0.05224609375,-0.01336669921875,-0.834228515625,-0.1083984375,-0.919921875,0.37939453125,3.0625,-3.3125,1.125
1.9349999999999807,-1.0,0.0,4.0,8.0,2.0,-7.0,-2.0,-1.0,0.54876708984375,-0.05224609375,-0.01336669921875,-0.834228515625,-0.1083984375,-0.919921875,0.37939453125,3.0625,-3.3125,1.125
1.9399999999999806,-3.0,-2.0,-1.0,0.0,3.0,0.0,-5.0,-2.0,0.548828125,-0.052001953125,-0.01373291015625,-0.834228515625,-0.1044921875,-0.9345703125,0.3798828125,1.0625,-2.3125,1.125
1.9449999999999805,1.0,0.0,2.0,-3.0,1.0,12.0,4.0,2.0,0.548828125,-0.052001953125,-0.01373291015625,-0.834228515625,-0.1044921875,-0.9345703125,0.3798828125,1.0625,-2.3125,1.125
1.9499999999999804,1.0,0.0,2.0,-3.0,1.0,12.0,4.0,2.0,0.548828125,-0.052001953125,-0.01373291015625,-0.834228515625,-0.1044921875,-0.9345703125,0.3798828125,1.0625,-2.3125,1.125
1.9549999999999803,1.0,0.0,2.0,-3.0,1.0,12.0,4.0,2.0,0.548828125,-0.052001953125,-0.01373291015625,-0.834228515625,-0.1044921875,-0.9345703125,0.3798828125,1.0625,-2.3125,1.125
1.9599999999999802,1.0,0.0,2.0,-3.0,1.0,12.0,4.0,2.0,0.548828125,-0.052001953125,-0.01373291015625,-0.834228515625,-0.1044921875,-0.9345703125,0.3798828125,1.0625,-2.3125,1.125
1.96499999999998,-3.0,-4.0,-5.0,0.0,-8.0,-8.0,-2.0,-2.0,0.548583984375,-0.05194091796875,-0.01416015625,-0.83441162109375,-0.10595703125,-0.92333984375,0.375,2.8125,-1.8125,1.5625
1.96999999999998,-3.0,-4.0,-5.0,0.0,-8.0,-8.0,-2.0,-2.0,0.548583984375,-0.05194091796875,-0.01416015625,-0.83441162109375,-0.10595703125,-0.92333984375,0.375,2.8125,-1.8125,1.5625
1.9749999999999799,2.0,0.0,2.0,-2.0,12.0,30.0,1.0,0.0,0.5484619140625,-0.052001953125,-0.0145263671875,-0.83441162109375,-0.10791015625,-0.93115234375,0.3828125,1.4375,-1.375,1.75
1.9799999999999798,2.0,0.0,2.0,-2.0,12.0,30.0,1.0,0.0,0.5484619140625,-0.052001953125,-0.0145263671875,-0.83441162109375,-0.10791015625,-0.93115234375,0.3828125,1.4375,-1.375,1.75
1.9849999999999797,-1.0,0.0,0.0,6.0,-2.0,7.0,1.0,0.0,0.5484619140625,-0.052001953125,-0.0145263671875,-0.83441162109375,-0.10791015625,-0.93115234375,0.3828125,1.4375,-1.375,1.75
1.9899999999999796,-1.0,0.0,0.0,6.0,-2.0,7.0,1.0,0.0,0.5484619140625,-0.052001953125,-0.0145263671875,-0.83441162109375,-0.10791015625,-0.93115234375,0.3828125,1.4375,-1.375,1.75
1.9949999999999795,-1.0,0.0,0.0,6.0,-2.0,7.0,1.0,0.0,0.5484619140625,-0.052001953125,-0.0145263671875,-0.83441162109375,-0.10791015625,-0.93115234375,0.3828125,1.4375,-1.375,1.75
1.9999999999999793,-1.0,0.0,0.0,6.0,-2.0,7.0,1.0,0.0,0.5484619140625,-0.052001953125,-0.0145263671875,-0.83441162109375,-0.10791015625,-0.93115234375,0.3828125,1.4375,-1.375,1.75
2.0049999999999795,0.0,-2.0,-9.0,-23.0,-4.0,4.0,-1.0,-1.0,0.54840087890625,-0.052001953125,-0.01483154296875,-0.83447265625,-0.1044921875,-0.9267578125,0.38330078125,1.375,-0.875,1.4375
2.0099999999999794,0.0,-2.0,-9.0,-23.0,-4.0,4.0,-1.0,-1.0,0.54840087890625,-0.052001953125,-0.01483154296875,-0.83447265625,-0.1044921875,-0.9267578125,0.38330078125,1.375,-0.875,1.4375
2.0149999999999793,0.0,-2.0,-9.0,-23.0,-4.0,4.0,-1.0,-1.0,0.54840087890625,-0.052001953125,-0.01483154296875,-0.83447265625,-0.1044921875,-0.9267578125,0.38330078125,1.375,-0.875,1.4375
2.019999999999979,-1.0,-2.0,1.0,6.0,-6.0,-3.0,-3.0,-1.0,0.54852294921875,-0.05218505859375,-0.01507568359375,-0.8343505859375,-0.10546875,-0.93310546875,0.39306640625,-0.625,-0.1875,1.5
2.024999999999979,-1.0,-2.0,1.0,6.0,-6.0,-3.0,-3.0,-1.0,0.54852294921875,-0.05218505859375,-0.01507568359375,-0.8343505859375,-0.10546875,-0.93310546875,0.39306640625,-0.625,-0.1875,1.5
2.029999999999979,-1.0,-2.0,1.0,6.0,-6.0,-3.0,-3.0,-1.0,0.54852294921875,-0.05218505859375,-0.01507568359375,-0.8343505859375,-0.10546875,-0.93310546875,0.39306640625,-0.625,-0.1875,1.5
2.034999999999979,-1.0,-2.0,-2.0,0.0,1.0,11.0,4.0,1.0,0.5484619140625,-0.05218505859375,-0.01556396484375,-0.83441162109375,-0.109375,-0.92724609375,0.3955078125,0.375,-1.5,2.3125
2.0399999999999787,-1.0,-2.0,-2.0,0.0,1.0,11.0,4.0,1.0,0.5484619140625,-0.05218505859375,-0.01556396484375,-0.83441162109375,-0.109375,-0.92724609375,0.3955078125,0.375,-1.5,2.3125
2.0449999999999786,-1.0,0.0,-7.0,-10.0,-5.0,-22.0,-4.0,-2.0,0.5484619140625,-0.05218505859375,-0.01556396484375,-0.83441162109375,-0.109375,-0.92724609375,0.3955078125,0.375,-1.5,2.3125
2.0499999999999785,-1.0,0.0,-7.0,-10.0,-5.0,-22.0,-4.0,-2.0,0.5484619140625,-0.05218505859375,-0.01556396484375,-0.83441162109375,-0.109375,-0.92724609375,0.3955078125,0.375,-1.5,2.3125
2.0549999999999784,-1.0,0.0,-7.0,-10.0,-5.0,-22.0,-4.0,-2.0,0.5484619140625,-0.05218505859375,-0.01556396484375,-0.83441162109375,-0.109375,-0.92724609375,0.3955078125,0.375,-1.5,2.3125
2.0599999999999783,-2.0,-2.0,0.0,12.0,7.0,6.0,1.0,-2.0,0.5484619140625,-0.05224609375,-0.01611328125,-0.83441162109375,-0.1044921875,-0.92138671875,0.39013671875,0.3125,-1.75,2.8125
2.064999999999978,1.0,1.0,7.0,22.0,1.0,6.0,3.0,-2.0,0.5484619140625,-0.05224609375,-0.01611328125,-0.83441162109375,-0.1044921875,-0.92138671875,0.39013671875,0.3125,-1.75,2.8125
2.069999999999978,1.0,1.0,7.0,22.0,1.0,6.0,3.0,-2.0,0.5484619140625,-0.05224609375,-0.01611328125,-0.83441162109375,-0.1044921875,-0.92138671875,0.39013671875,0.3125,-1.75,2.8125
2.074999999999978,1.0,-4.0,-9.0,-20.0,-9.0,7.0,-4.0,0.0,0.5484619140625,-0.05224609375,-0.01611328125,-0.83441162109375,-0.1044921875,-0.92138671875,0.39013671875,0.3125,-1.75,2.8125
2.079999999999978,-1.0,-2.0,3.0,-1.0,6.0,1.0,-4.0,-1.0,0.54852294921875,-0.05224609375,-0.0167236328125,-0.8343505859375,-0.10400390625,-0.9248046875,0.3935546875,-0.625,-1.75,3.25
2.0849999999999778,-1.0,-2.0,-5.0,-9.0,-7.0,-4.0,-5.0,-1.0,0.54852294921875,-0.05224609375,-0.0167236328125,-0.8343505859375,-0.10400390625,-0.9248046875,0.3935546875,-0.625,-1.75,3.25
2.0899999999999777,-1.0,-2.0,-5.0,-9.0,-7.0,-4.0,-5.0,-1.0,0.54864501953125,-0.05230712890625,-0.01727294921875,-0.834228515625,-0.10595703125,-0.93505859375,0.39599609375,-0.75,-1.5625,2.8125
2.0949999999999775,-1.0,1.0,3.0,4.0,-2.0,-13.0,0.0,-1.0,0.54864501953125,-0.05230712890625,-0.01727294921875,-0.834228515625,-0.10595703125,-0.93505859375,0.39599609375,-0.75,-1.5625,2.8125
2.0999999999999774,-1.0,1.0,3.0,4.0,-2.0,-13.0,0.0,-1.0,0.54864501953125,-0.05230712890625,-0.01727294921875,-0.834228515625,-0.10595703125,-0.93505859375,0.39599609375,-0.75,-1.5625,2.8125
2.1049999999999773,-1.0,1.0,3.0,4.0,-2.0,-13.0,0.0,-1.0,0.54864501953125,-0.05230712890625,-0.01727294921875,-0.834228515625,-0.10595703125,-0.93505859375,0.39599609375,-0.75,-1.5625,2.8125
2.1099999999999772,-1.0,1.0,3.0,4.0,-2.0,-13.0,0.0,-1.0,0.54864501953125,-0.05230712890625,-0.01727294921875,-0.834228515625,-0.10595703125,-0.93505859375,0.39599609375,-0.75,-1.5625,2.8125
2.114999999999977,0.0,-2.0,2.0,10.0,4.0,6.0,2.0,-1.0,0.548583984375,-0.05230712890625,-0.01788330078125,-0.83428955078125,-0.10205078125,-0.927734375,0.3896484375,1.125,-1.625,3.125
2.119999999999977,0.0,-2.0,2.0,10.0,4.0,6.0,2.0,-1.0,0.548583984375,-0.05230712890625,-0.01788330078125,-0.83428955078125,-0.10205078125,-0.927734375,0.3896484375,1.125,-1.625,3.125
2.124999999999977,-1.0,-1.0,-7.0,-8.0,0.0,0.0,-2.0,0.0,0.548583984375,-0.05230712890625,-0.01788330078125,-0.83428955078125,-0.10205078125,-0.927734375,0.3896484375,1.125,-1.625,3.125
2.129999999999977,-1.0,-1.0,-7.0,-8.0,0.0,0.0,-2.0,0.0,0.548583984375,-0.05230712890625,-0.01788330078125,-0.83428955078125,-0.10205078125,-0.927734375,0.3896484375,1.125,-1.625,3.125
2.1349999999999767,-1.0,-1.0,-7.0,-8.0,0.0,0.0,-2.0,0.0,0.548583984375,-0.05230712890625,-0.01788330078125,-0.83428955078125,-0.10205078125,-0.927734375,0.3896484375,1.125,-1.625,3.125
2.1399999999999766,-1.0,-1.0,-7.0,-8.0,0.0,0.0,-2.0,0.0,0.548583984375,-0.05230712890625,-0.01788330078125,-0.83428955078125,-0.10205078125,-0.927734375,0.3896484375,1.125,-1.625,3.125
2.1449999999999765,-2.0,0.0,3.0,6.0,-2.0,8.0,0.0,-1.0,0.54852294921875,-0.05218505859375,-0.01849365234375,-0.83428955078125,-0.1005859375,-0.923828125,0.38427734375,0.6875,-2.4375,3.125
2.1499999999999764,-2.0,0.0,-1.0,-8.0,-10.0,-23.0,-6.0,-3.0,0.54852294921875,-0.05218505859375,-0.01849365234375,-0.83428955078125,-0.1005859375,-0.923828125,0.38427734375,0.6875,-2.4375,3.125
2.1549999999999763,-2.0,0.0,-1.0,-8.0,-10.0,-23.0,-6.0,-3.0,0.54852294921875,-0.05218505859375,-0.01849365234375,-0.83428955078125,-0.1005859375,-0.923828125,0.38427734375,0.6875,-2.4375,3.125
2.159999999999976,-2.0,0.0,-1.0,-8.0,-10.0,-23.0,-6.0,-3.0,0.54852294921875,-0.05218505859375,-0.01849365234375,-0.83428955078125,-0.1005859375,-0.923828125,0.38427734375,0.6875,-2.4375,3.125
2.164999999999976,-1.0,0.0,-2.0,9.0,1.0,3.0,2.0,2.0,0.54852294921875,-0.05218505859375,-0.01849365234375,-0.83428955078125,-0.1005859375,-0.923828125,0.38427734375,0.6875,-2.4375,3.125
2.169999999999976,-1.0,0.0,-2.0,9.0,1.0,3.0,2.0,2.0,0.54852294921875,-0.05218505859375,-0.01849365234375,-0.83428955078125,-0.1005859375,-0.923828125,0.38427734375,0.6875,-2.4375,3.125
2.174999999999976,0.0,1.0,1.0,15.0,-2.0,4.0,-1.0,-1.0,0.54852294921875,-0.052001953125,-0.01904296875,-0.83428955078125,-0.09521484375,-0.921875,0.392578125,-0.125,-2.25,2.9375
2.1799999999999757,0.0,1.0,1.0,15.0,-2.0,4.0,-1.0,-1.0,0.54852294921875,-0.052001953125,-0.01904296875,-0.83428955078125,-0.09521484375,-0.921875,0.392578125,-0.125,-2.25,2.9375
2.1849999999999756,0.0,1.0,1.0,15.0,-2.0,4.0,-1.0,-1.0,0.54852294921875,-0.052001953125,-0.01904296875,-0.83428955078125,-0.09521484375,-0.921875,0.392578125,-0.125,-2.25,2.9375
2.1899999999999755,0.0,1.0,1.0,15.0,-2.0,4.0,-1.0,-1.0,0.54852294921875,-0.052001953125,-0.01904296875,-0.83428955078125,-0.09521484375,-0.921875,0.392578125,-0.125,-2.25,2.9375
2.1949999999999754,-4.0,-2.0,-12.0,-11.0,-16.0,-12.0,-4.0,-4.0,0.5487060546875,-0.0518798828125,-0.01947021484375,-0.83416748046875,-0.09814453125,-0.9228515625,0.3955078125,-1.25,-1.6875,2.375
2.1999999999999753,-4.0,-2.0,-12.0,-11.0,-16.0,-12.0,-4.0,-4.0,0.5487060546875,-0.0518798828125,-0.01947021484375,-0.83416748046875,-0.09814453125,-0.9228515625,0.3955078125,-1.25,-1.6875,2.375
2.204999999999975,0.0,-1.0,-3.0,-17.0,10.0,-11.0,-4.0,-1.0,0.5487060546875,-0.0518798828125,-0.01947021484375,-0.83416748046875,-0.09814453125,-0.9228515625,0.3955078125,-1.25,-1.6875,2.375
2.209999999999975,0.0,-1.0,-3.0,-17.0,10.0,-11.0,-4.0,-1.0,0.5487060546875,-0.0518798828125,-0.01947021484375,-0.83416748046875,-0.09814453125,-0.9228515625,0.3955078125,-1.25,-1.6875,2.375
2.214999999999975,0.0,-1.0,-3.0,-17.0,10.0,-11.0,-4.0,-1.0,0.5487060546875,-0.0518798828125,-0.01947021484375,-0.83416748046875,-0.09814453125,-0.9228515625,0.3955078125,-1.25,-1.6875,2.375
2.219999999999975,0.0,-1.0,-3.0,-17.0,10.0,-11.0,-4.0,-1.0,0.5487060546875,-0.0518798828125,-0.01947021484375,-0.83416748046875,-0.09814453125,-0.9228515625,0.3955078125,-1.25,-1.6875,2.375
2.2249999999999748,0.0,0.0,3.0,-3.0,6.0,15.0,1.0,0.0,0.5487060546875,-0.05169677734375,-0.019775390625,-0.834228515625,-0.0947265625,-0.92919921875,0.40771484375,-0.5,-1.4375,1.6875
2.2299999999999747,0.0,-4.0,-5.0,11.0,-2.0,-20.0,-6.0,-2.0,0.5487060546875,-0.05169677734375,-0.019775390625,-0.834228515625,-0.0947265625,-0.92919921875,0.40771484375,-0.5,-1.4375,1.6875
2.2349999999999746,0.0,-4.0,-5.0,11.0,-2.0,-20.0,-6.0,-2.0,0.5487060546875,-0.05169677734375,-0.019775390625,-0.834228515625,-0.0947265625,-0.92919921875,0.40771484375,-0.5,-1.4375,1.6875
2.2399999999999745,0.0,-4.0,-5.0,11.0,-2.0,-20.0,-6.0,-2.0,0.5487060546875,-0.05169677734375,-0.019775390625,-0.834228515625,-0.0947265625,-0.92919921875,0.40771484375,-0.5,-1.4375,1.6875
2.2449999999999743,-2.0,-2.0,3.0,7.0,-1.0,-21.0,-9.0,-2.0,0.5487060546875,-0.05169677734375,-0.019775390625,-0.834228515625,-0.0947265625,-0.92919921875,0.40771484375,-0.5,-1.4375,1.6875
2.2499999999999742,-2.0,-2.0,3.0,7.0,-1.0,-21.0,-9.0,-2.0,0.5487060546875,-0.05169677734375,-0.019775390625,-0.834228515625,-0.0947265625,-0.92919921875,0.40771484375,-0.5,-1.4375,1.6875
2.254999999999974,-1.0,0.0,4.0,15.0,8.0,34.0,10.0,1.0,0.54840087890625,-0.05133056640625,-0.02001953125,-0.83441162109375,-0.095703125,-0.9228515625,0.4033203125,1.25,-2.0,0.9375
2.259999999999974,-1.0,0.0,4.0,15.0,8.0,34.0,10.0,1.0,0.54840087890625,-0.05133056640625,-0.02001953125,-0.83441162109375,-0.095703125,-0.9228515625,0.4033203125,1.25,-2.0,0.9375
2.264999999999974,-1.0,0.0,4.0,15.0,8.0,34.0,10.0,1.0,0.54840087890625,-0.05133056640625,-0.02001953125,-0.83441162109375,-0.095703125,-0.9228515625,0.4033203125,1.25,-2.0,0.9375
2.269999999999974,-1.0,0.0,4.0,15.0,8.0,34.0,10.0,1.0,0.54840087890625,-0.05133056640625,-0.02001953125,-0.83441162109375,-0.095703125,-0.9228515625,0.4033203125,1.25,-2.0,0.9375
2.2749999999999737,-2.0,-1.0,0.0,-8.0,-12.0,-16.0,-6.0,-2.0,0.54833984375,-0.05096435546875,-0.02001953125,-0.83447265625,-0.09619140625,-0.92138671875,0.40234375,0.0,-1.375,-0.4375
2.2799999999999736,-2.0,-1.0,0.0,-8.0,-12.0,-16.0,-6.0,-2.0,0.54833984375,-0.05096435546875,-0.02001953125,-0.83447265625,-0.09619140625,-0.92138671875,0.40234375,0.0,-1.375,-0.4375
2.2849999999999735,-3.0,-2.0,-4.0,-10.0,-14.0,2.0,3.0,-1.0,0.54833984375,-0.05096435546875,-0.02001953125,-0.83447265625,-0.09619140625,-0.92138671875,0.40234375,0.0,-1.375,-0.4375
2.2899999999999734,-3.0,-2.0,-4.0,-10.0,-14.0,2.0,3.0,-1.0,0.54833984375,-0.05096435546875,-0.02001953125,-0.83447265625,-0.09619140625,-0.92138671875,0.40234375,0.0,-1.375,-0.4375
2.2949999999999733,-3.0,-2.0,-4.0,-10.0,-14.0,2.0,3.0,-1.0,0.54833984375,-0.05096435546875,-0.02001953125,-0.83447265625,-0.09619140625,-0.92138671875,0.40234375,0.0,-1.375,-0.4375
2.299999999999973,-3.0,-2.0,-4.0,-10.0,-14.0,2.0,3.0,-1.0,0.54833984375,-0.05096435546875,-0.02001953125,-0.83447265625,-0.09619140625,-0.92138671875,0.40234375,0.0,-1.375,-0.4375
2.304999999999973,0.0,1.0,3.0,21.0,2.0,12.0,-2.0,-1.0,0.54833984375,-0.050537109375,-0.02001953125,-0.83447265625,-0.09814453125,-0.9306640625,0.40869140625,-0.375,-1.9375,-0.75
2.309999999999973,0.0,1.0,3.0,21.0,2.0,12.0,-2.0,-1.0,0.54833984375,-0.050537109375,-0.02001953125,-0.83447265625,-0.09814453125,-0.9306640625,0.40869140625,-0.375,-1.9375,-0.75
2.314999999999973,0.0,1.0,3.0,21.0,2.0,12.0,-2.0,-1.0,0.54833984375,-0.050537109375,-0.02001953125,-0.83447265625,-0.09814453125,-0.9306640625,0.40869140625,-0.375,-1.9375,-0.75
2.3199999999999728,0.0,1.0,3.0,21.0,2.0,12.0,-2.0,-1.0,0.54833984375,-0.050537109375,-0.02001953125,-0.83447265625,-0.09814453125,-0.9306640625,0.40869140625,-0.375,-1.9375,-0.75
2.3249999999999726,0.0,1.0,3.0,21.0,2.0,12.0,-2.0,-1.0,0.54833984375,-0.050537109375,-0.02001953125,-0.83447265625,-0.09814453125,-0.9306640625,0.40869140625,-0.375,-1.9375,-0.75
2.3299999999999725,0.0,1.0,3.0,21.0,2.0,12.0,-2.0,-1.0,0.54833984375,-0.050537109375,-0.02001953125,-0.83447265625,-0.09814453125,-0.9306640625,0.40869140625,-0.375,-1.9375,-0.75
2.3349999999999724,-2.0,-4.0,-10.0,-30.0,-4.0,-15.0,-4.0,-2.0,0.54827880859375,-0.050048828125,-0.01995849609375,-0.83453369140625,-0.10009765625,-0.9326171875,0.40673828125,-0.0625,-1.8125,-1.1875
2.3399999999999723,-2.0,-4.0,-10.0,-30.0,-4.0,-15.0,-4.0,-2.0,0.54827880859375,-0.050048828125,-0.01995849609375,-0.83453369140625,-0.10009765625,-0.9326171875,0.40673828125,-0.0625,-1.8125,-1.1875
2.344999999999972,-2.0,-4.0,-10.0,-30.0,-4.0,-15.0,-4.0,-2.0,0.54827880859375,-0.050048828125,-0.01995849609375,-0.83453369140625,-0.10009765625,-0.9326171875,0.40673828125,-0.0625,-1.8125,-1.1875
2.349999999999972,-2.0,-4.0,-10.0,-30.0,-4.0,-15.0,-4.0,-2.0,0.54827880859375,-0.050048828125,-0.01995849609375,-0.83453369140625,-0.10009765625,-0.9326171875,0.40673828125,-0.0625,-1.8125,-1.1875
2.354999999999972,-2.0,-4.0,-10.0,-30.0,-4.0,-15.0,-4.0,-2.0,0.54827880859375,-0.050048828125,-0.01995849609375,-0.83453369140625,-0.10009765625,-0.9326171875,0.40673828125,-0.0625,-1.8125,-1.1875
2.359999999999972,-2.0,-4.0,-10.0,-30.0,-4.0,-15.0,-4.0,-2.0,0.54827880859375,-0.050048828125,-0.01995849609375,-0.83453369140625,-0.10009765625,-0.9326171875,0.40673828125,-0.0625,-1.8125,-1.1875
2.364999999999972,1.0,-1.0,1.0,8.0,7.0,23.0,6.0,-3.0,0.54833984375,-0.0496826171875,-0.0198974609375,-0.8345947265625,-0.1025390625,-0.93408203125,0.40869140625,-0.5,-1.375,-1.4375
2.3699999999999717,-1.0,-2.0,-5.0,-7.0,-5.0,-7.0,-5.0,-3.0,0.54833984375,-0.0496826171875,-0.0198974609375,-0.8345947265625,-0.1025390625,-0.93408203125,0.40869140625,-0.5,-1.375,-1.4375
2.3749999999999716,-1.0,-2.0,-5.0,-7.0,-5.0,-7.0,-5.0,-3.0,0.54833984375,-0.0496826171875,-0.0198974609375,-0.8345947265625,-0.1025390625,-0.93408203125,0.40869140625,-0.5,-1.375,-1.4375
2.3799999999999715,-1.0,-2.0,-5.0,-7.0,-5.0,-7.0,-5.0,-3.0,0.54833984375,-0.0496826171875,-0.0198974609375,-0.8345947265625,-0.1025390625,-0.93408203125,0.40869140625,-0.5,-1.375,-1.4375
2.3849999999999714,-1.0,-1.0,2.0,4.0,4.0,16.0,4.0,0.0,0.54815673828125,-0.0494384765625,-0.019775390625,-0.834716796875,-0.10693359375,-0.92431640625,0.404296875,0.9375,-1.125,-1.5625
2.3899999999999713,-1.0,-1.0,2.0,4.0,4.0,16.0,4.0,0.0,0.54815673828125,-0.0494384765625,-0.019775390625,-0.834716796875,-0.10693359375,-0.92431640625,0.404296875,0.9375,-1.125,-1.5625
2.394999999999971,-1.0,-1.0,2.0,4.0,4.0,16.0,4.0,0.0,0.54815673828125,-0.0494384765625,-0.019775390625,-0.834716796875,-0.10693359375,-0.92431640625,0.404296875,0.9375,-1.125,-1.5625
2.399999999999971,1.0,0.0,1.0,19.0,6.0,-12.0,-2.0,2.0,0.54815673828125,-0.0494384765625,-0.019775390625,-0.834716796875,-0.10693359375,-0.92431640625,0.404296875,0.9375,-1.125,-1.5625
2.404999999999971,1.0,0.0,1.0,19.0,6.0,-12.0,-2.0,2.0,0.54815673828125,-0.0494384765625,-0.019775390625,-0.834716796875,-0.10693359375,-0.92431640625,0.404296875,0.9375,-1.125,-1.5625
2.409999999999971,1.0,0.0,1.0,19.0,6.0,-12.0,-2.0,2.0,0.548095703125,-0.04913330078125,-0.01953125,-0.834716796875,-0.10302734375,-0.92919921875,0.39990234375,0.25,-0.5625,-1.9375
2.4149999999999707,-3.0,-1.0,5.0,16.0,-1.0,20.0,0.0,0.0,0.548095703125,-0.04913330078125,-0.01953125,-0.834716796875,-0.10302734375,-0.92919921875,0.39990234375,0.25,-0.5625,-1.9375
2.4199999999999706,-3.0,-1.0,5.0,16.0,-1.0,20.0,0.0,0.0,0.548095703125,-0.04913330078125,-0.01953125,-0.834716796875,-0.10302734375,-0.92919921875,0.39990234375,0.25,-0.5625,-1.9375
2.4249999999999705,-3.0,-1.0,5.0,16.0,-1.0,20.0,0.0,0.0,0.548095703125,-0.04913330078125,-0.01953125,-0.834716796875,-0.10302734375,-0.92919921875,0.39990234375,0.25,-0.5625,-1.9375
2.4299999999999704,0.0,-1.0,-2.0,1.0,-1.0,-6.0,-4.0,-2.0,0.548095703125,-0.04913330078125,-0.01953125,-0.834716796875,-0.10302734375,-0.92919921875,0.39990234375,0.25,-0.5625,-1.9375
2.4349999999999703,-2.0,-1.0,-9.0,12.0,-10.0,-15.0,-1.0,-1.0,0.54803466796875,-0.0489501953125,-0.0194091796875,-0.8348388671875,-0.107421875,-0.9287109375,0.40576171875,0.25,-0.75,-1.375
2.43999999999997,-2.0,-1.0,-9.0,12.0,-10.0,-15.0,-1.0,-1.0,0.54803466796875,-0.0489501953125,-0.0194091796875,-0.8348388671875,-0.107421875,-0.9287109375,0.40576171875,0.25,-0.75,-1.375
2.44499999999997,-2.0,-1.0,-9.0,12.0,-10.0,-15.0,-1.0,-1.0,0.54803466796875,-0.0489501953125,-0.0194091796875,-0.8348388671875,-0.107421875,-0.9287109375,0.40576171875,0.25,-0.75,-1.375
2.44999999999997,-2.0,-1.0,-9.0,12.0,-10.0,-15.0,-1.0,-1.0,0.54803466796875,-0.0489501953125,-0.0194091796875,-0.8348388671875,-0.107421875,-0.9287109375,0.40576171875,0.25,-0.75,-1.375
2.45499999999997,-1.0,0.0,3.0,11.0,3.0,1.0,1.0,-1.0,0.5479736328125,-0.048828125,-0.01922607421875,-0.8348388671875,-0.10986328125,-0.94140625,0.41064453125,0.0625,0.0625,-1.3125
2.4599999999999698,-1.0,0.0,3.0,11.0,3.0,1.0,1.0,-1.0,0.5479736328125,-0.048828125,-0.01922607421875,-0.8348388671875,-0.10986328125,-0.94140625,0.41064453125,0.0625,0.0625,-1.3125
2.4649999999999697,-2.0,-1.0,-4.0,-13.0,-10.0,-13.0,-3.0,-2.0,0.5479736328125,-0.048828125,-0.01922607421875,-0.8348388671875,-0.10986328125,-0.94140625,0.41064453125,0.0625,0.0625,-1.3125
2.4699999999999696,-2.0,-1.0,-4.0,-13.0,-10.0,-13.0,-3.0,-2.0,0.5479736328125,-0.048828125,-0.01922607421875,-0.8348388671875,-0.10986328125,-0.94140625,0.41064453125,0.0625,0.0625,-1.3125
2.4749999999999694,-2.0,-1.0,-4.0,-13.0,-10.0,-13.0,-3.0,-2.0,0.5479736328125,-0.04888916015625,-0.019287109375,-0.8348388671875,-0.11572265625,-0.9345703125,0.4013671875,0.5625,0.5,-0.875
2.4799999999999693,1.0,-1.0,1.0,-1.0,-11.0,-15.0,-3.0,-2.0,0.5479736328125,-0.04888916015625,-0.019287109375,-0.8348388671875,-0.11572265625,-0.9345703125,0.4013671875,0.5625,0.5,-0.875
2.4849999999999692,1.0,-1.0,1.0,-1.0,-11.0,-15.0,-3.0,-2.0,0.5479736328125,-0.04888916015625,-0.019287109375,-0.8348388671875,-0.11572265625,-0.9345703125,0.4013671875,0.5625,0.5,-0.875
2.489999999999969,-2.0,-1.0,3.0,13.0,-6.0,-11.0,-3.0,-2.0,0.5479736328125,-0.04888916015625,-0.019287109375,-0.8348388671875,-0.11572265625,-0.9345703125,0.4013671875,0.5625,0.5,-0.875
2.494999999999969,-2.0,-1.0,3.0,13.0,-6.0,-11.0,-3.0,-2.0,0.5479736328125,-0.04888916015625,-0.019287109375,-0.8348388671875,-0.11572265625,-0.9345703125,0.4013671875,0.5625,0.5,-0.875
2.499999999999969,-1.0,0.0,-2.0,-11.0,6.0,13.0,1.0,-1.0,0.54791259765625,-0.04901123046875,-0.01910400390625,-0.83489990234375,-0.1201171875,-0.939453125,0.40234375,0.6875,0.625,-1.125
2.504999999999969,-1.0,0.0,-2.0,-11.0,6.0,13.0,1.0,-1.0,0.54791259765625,-0.04901123046875,-0.01910400390625,-0.83489990234375,-0.1201171875,-0.939453125,0.40234375,0.6875,0.625,-1.125
2.5099999999999687,-1.0,0.0,-2.0,-11.0,6.0,13.0,1.0,-1.0,0.54791259765625,-0.04901123046875,-0.01910400390625,-0.83489990234375,-0.1201171875,-0.939453125,0.40234375,0.6875,0.625,-1.125
2.5149999999999686,0.0,-2.0,5.0,-8.0,3.0,-2.0,-1.0,-1.0,0.54791259765625,-0.049072265625,-0.0191650390625,-0.83489990234375,-0.115234375,-0.93896484375,0.40625,0.625,0.6875,-0.75
2.5199999999999685,0.0,-2.0,5.0,-8.0,3.0,-2.0,-1.0,-1.0,0.54791259765625,-0.049072265625,-0.0191650390625,-0.83489990234375,-0.115234375,-0.93896484375,0.40625,0.625,0.6875,-0.75
2.5249999999999684,0.0,-2.0,5.0,-8.0,3.0,-2.0,-1.0,-1.0,0.54791259765625,-0.049072265625,-0.0191650390625,-0.83489990234375,-0.115234375,-0.93896484375,0.40625,0.625,0.6875,-0.75
2.5299999999999683,0.0,-2.0,5.0,-8.0,3.0,-2.0,-1.0,-1.0,0.54791259765625,-0.049072265625,-0.0191650390625,-0.83489990234375,-0.115234375,-0.93896484375,0.40625,0.625,0.6875,-0.75
2.534999999999968,0.0,0.0,0.0,9.0,-3.0,5.0,-1.0,-1.0,0.54791259765625,-0.049072265625,-0.0191650390625,-0.83489990234375,-0.115234375,-0.93896484375,0.40625,0.625,0.6875,-0.75
2.539999999999968,0.0,0.0,0.0,9.0,-3.0,5.0,-1.0,-1.0,0.54791259765625,-0.049072265625,-0.0191650390625,-0.83489990234375,-0.115234375,-0.93896484375,0.40625,0.625,0.6875,-0.75
2.544999999999968,-1.0,-1.0,-1.0,-10.0,-2.0,22.0,1.0,-1.0,0.54791259765625,-0.049072265625,-0.0191650390625,-0.83489990234375,-0.1123046875,-0.93212890625,0.40380859375,0.625,0.875,-0.375
2.549999999999968,-1.0,-1.0,-1.0,-10.0,-2.0,22.0,1.0,-1.0,0.54791259765625,-0.049072265625,-0.0191650390625,-0.83489990234375,-0.1123046875,-0.93212890625,0.40380859375,0.625,0.875,-0.375
2.5549999999999677,-1.0,-1.0,-1.0,-10.0,-2.0,22.0,1.0,-1.0,0.54791259765625,-0.049072265625,-0.0191650390625,-0.83489990234375,-0.1123046875,-0.93212890625,0.40380859375,0.625,0.875,-0.375
2.5599999999999676,-1.0,-2.0,-5.0,-4.0,-3.0,8.0,-1.0,-1.0,0.547607421875,-0.04931640625,-0.0191650390625,-0.8350830078125,-0.11865234375,-0.93017578125,0.40234375,2.125,0.625,0.0
2.5649999999999675,-1.0,-2.0,-5.0,-4.0,-3.0,8.0,-1.0,-1.0,0.547607421875,-0.04931640625,-0.0191650390625,-0.8350830078125,-0.11865234375,-0.93017578125,0.40234375,2.125,0.625,0.0
2.5699999999999674,-1.0,-1.0,-2.0,-2.0,-4.0,-5.0,-3.0,1.0,0.547607421875,-0.04931640625,-0.0191650390625,-0.8350830078125,-0.11865234375,-0.93017578125,0.40234375,2.125,0.625,0.0
2.5749999999999673,-1.0,-1.0,-2.0,-2.0,-4.0,-5.0,-3.0,1.0,0.547607421875,-0.04931640625,-0.0191650390625,-0.8350830078125,-0.11865234375,-0.93017578125,0.40234375,2.125,0.625,0.0
2.579999999999967,-3.0,-3.0,-6.0,-16.0,-20.0,-3.0,-1.0,-4.0,0.54736328125,-0.049560546875,-0.01922607421875,-0.835205078125,-0.11962890625,-0.92724609375,0.40185546875,1.5625,0.4375,0.1875
2.584999999999967,-3.0,-3.0,-6.0,-16.0,-20.0,-3.0,-1.0,-4.0,0.54736328125,-0.049560546875,-0.01922607421875,-0.835205078125,-0.11962890625,-0.92724609375,0.40185546875,1.5625,0.4375,0.1875
2.589999999999967,-1.0,-3.0,2.0,11.0,-4.0,-31.0,-3.0,-1.0,0.54736328125,-0.049560546875,-0.01922607421875,-0.835205078125,-0.11962890625,-0.92724609375,0.40185546875,1.5625,0.4375,0.1875
2.594999999999967,-1.0,-3.0,2.0,11.0,-4.0,-31.0,-3.0,-1.0,0.54736328125,-0.049560546875,-0.01922607421875,-0.835205078125,-0.11962890625,-0.92724609375,0.40185546875,1.5625,0.4375,0.1875
2.599999999999967,-1.0,-3.0,2.0,11.0,-4.0,-31.0,-3.0,-1.0,0.54736328125,-0.049560546875,-0.01922607421875,-0.835205078125,-0.11962890625,-0.92724609375,0.40185546875,1.5625,0.4375,0.1875
2.6049999999999667,-2.0,-1.0,-6.0,-16.0,11.0,20.0,4.0,-1.0,0.54736328125,-0.049560546875,-0.019287109375,-0.835205078125,-0.1220703125,-0.92919921875,0.3935546875,0.125,0.0625,0.25
2.6099999999999666,-1.0,-2.0,-5.0,-2.0,5.0,9.0,-1.0,-2.0,0.54736328125,-0.049560546875,-0.019287109375,-0.835205078125,-0.1220703125,-0.92919921875,0.3935546875,0.125,0.0625,0.25
2.6149999999999665,-1.0,-2.0,-5.0,-2.0,5.0,9.0,-1.0,-2.0,0.54736328125,-0.049560546875,-0.019287109375,-0.835205078125,-0.1220703125,-0.92919921875,0.3935546875,0.125,0.0625,0.25
2.6199999999999664,-1.0,-2.0,-5.0,-2.0,5.0,9.0,-1.0,-2.0,0.54736328125,-0.049560546875,-0.019287109375,-0.835205078125,-0.1220703125,-0.92919921875,0.3935546875,0.125,0.0625,0.25
2.6249999999999662,-2.0,0.0,-1.0,5.0,8.0,-18.0,0.0,0.0,0.5472412109375,-0.04974365234375,-0.01947021484375,-0.83526611328125,-0.12158203125,-0.92578125,0.39306640625,1.3125,-0.25,0.375
2.629999999999966,-4.0,-3.0,-1.0,7.0,-7.0,6.0,-1.0,-1.0,0.5472412109375,-0.04974365234375,-0.01947021484375,-0.83526611328125,-0.12158203125,-0.92578125,0.39306640625,1.3125,-0.25,0.375
2.634999999999966,-4.0,-3.0,-1.0,7.0,-7.0,6.0,-1.0,-1.0,0.5472412109375,-0.04974365234375,-0.01947021484375,-0.83526611328125,-0.12158203125,-0.92578125,0.39306640625,1.3125,-0.25,0.375
2.639999999999966,-4.0,-3.0,-1.0,7.0,-7.0,6.0,-1.0,-1.0,0.5472412109375,-0.04974365234375,-0.01947021484375,-0.83526611328125,-0.12158203125,-0.92578125,0.39306640625,1.3125,-0.25,0.375
2.644999999999966,-1.0,-2.0,-2.0,3.0,-3.0,-8.0,-2.0,0.0,0.5472412109375,-0.04974365234375,-0.01947021484375,-0.83526611328125,-0.12158203125,-0.92578125,0.39306640625,1.3125,-0.25,0.375
2.6499999999999657,1.0,-1.0,-5.0,-2.0,5.0,12.0,3.0,0.0,0.5472412109375,-0.0498046875,-0.01947021484375,-0.83526611328125,-0.119140625,-0.92236328125,0.39111328125,0.6875,-0.1875,0.1875
2.6549999999999656,-2.0,3.0,10.0,5.0,-1.0,-10.0,-2.0,-1.0,0.5472412109375,-0.0498046875,-0.01947021484375,-0.83526611328125,-0.119140625,-0.92236328125,0.39111328125,0.6875,-0.1875,0.1875
2.6599999999999655,-2.0,-5.0,-8.0,4.0,-2.0,8.0,-3.0,-3.0,0.5472412109375,-0.0498046875,-0.01947021484375,-0.83526611328125,-0.119140625,-0.92236328125,0.39111328125,0.6875,-0.1875,0.1875
2.6649999999999654,-2.0,-5.0,-8.0,4.0,-2.0,8.0,-3.0,-3.0,0.5472412109375,-0.0498046875,-0.01947021484375,-0.83526611328125,-0.119140625,-0.92236328125,0.39111328125,0.6875,-0.1875,0.1875
2.6699999999999653,-2.0,-1.0,4.0,-6.0,-16.0,-16.0,0.0,0.0,0.54730224609375,-0.0498046875,-0.01947021484375,-0.83526611328125,-0.11669921875,-0.91748046875,0.38720703125,0.125,-0.4375,0.6875
2.674999999999965,1.0,-1.0,-4.0,-9.0,2.0,-19.0,-2.0,0.0,0.54730224609375,-0.0498046875,-0.01947021484375,-0.83526611328125,-0.11669921875,-0.91748046875,0.38720703125,0.125,-0.4375,0.6875
2.679999999999965,1.0,-1.0,-4.0,-9.0,2.0,-19.0,-2.0,0.0,0.54730224609375,-0.0498046875,-0.01947021484375,-0.83526611328125,-0.11669921875,-0.91748046875,0.38720703125,0.125,-0.4375,0.6875
2.684999999999965,0.0,1.0,1.0,3.0,4.0,-4.0,-3.0,0.0,0.54730224609375,-0.04986572265625,-0.01947021484375,-0.835205078125,-0.11376953125,-0.92919921875,0.392578125,-0.3125,-0.3125,0.0
2.689999999999965,1.0,-2.0,0.0,-7.0,2.0,34.0,3.0,-2.0,0.54730224609375,-0.04986572265625,-0.01947021484375,-0.835205078125,-0.11376953125,-0.92919921875,0.392578125,-0.3125,-0.3125,0.0
2.6949999999999648,1.0,-2.0,0.0,-7.0,2.0,34.0,3.0,-2.0,0.54730224609375,-0.04986572265625,-0.01947021484375,-0.835205078125,-0.11376953125,-0.92919921875,0.392578125,-0.3125,-0.3125,0.0
2.6999999999999647,1.0,-2.0,0.0,-7.0,2.0,34.0,3.0,-2.0,0.54730224609375,-0.04986572265625,-0.01947021484375,-0.835205078125,-0.11376953125,-0.92919921875,0.392578125,-0.3125,-0.3125,0.0
2.7049999999999645,2.0,0.0,0.0,-8.0,0.0,-4.0,-1.0,-1.0,0.54730224609375,-0.04986572265625,-0.01953125,-0.835205078125,-0.1142578125,-0.91650390625,0.39111328125,0.8125,-0.9375,-0.125
2.7099999999999644,-1.0,0.0,-1.0,0.0,-7.0,-20.0,-6.0,-2.0,0.54730224609375,-0.04986572265625,-0.01953125,-0.835205078125,-0.1142578125,-0.91650390625,0.39111328125,0.8125,-0.9375,-0.125
2.7149999999999643,-1.0,0.0,-1.0,0.0,-7.0,-20.0,-6.0,-2.0,0.54730224609375,-0.04986572265625,-0.01953125,-0.835205078125,-0.1142578125,-0.91650390625,0.39111328125,0.8125,-0.9375,-0.125
2.7199999999999642,-1.0,0.0,-1.0,0.0,-7.0,-20.0,-6.0,-2.0,0.54730224609375,-0.04986572265625,-0.01953125,-0.835205078125,-0.1142578125,-0.91650390625,0.39111328125,0.8125,-0.9375,-0.125
2.724999999999964,-1.0,0.0,-1.0,0.0,-7.0,-20.0,-6.0,-2.0,0.54730224609375,-0.04986572265625,-0.01953125,-0.835205078125,-0.1142578125,-0.91650390625,0.39111328125,0.8125,-0.9375,-0.125
2.729999999999964,-1.0,-1.0,-7.0,-41.0,-6.0,13.0,3.0,0.0,0.54730224609375,-0.0496826171875,-0.01959228515625,-0.83526611328125,-0.11865234375,-0.93017578125,0.39794921875,0.5625,-1.5,-0.9375
2.734999999999964,0.0,-1.0,-4.0,-7.0,-3.0,-4.0,-4.0,-1.0,0.54730224609375,-0.0496826171875,-0.01959228515625,-0.83526611328125,-0.11865234375,-0.93017578125,0.39794921875,0.5625,-1.5,-0.9375
2.739999999999964,0.0,-1.0,-4.0,-7.0,-3.0,-4.0,-4.0,-1.0,0.54730224609375,-0.0496826171875,-0.01959228515625,-0.83526611328125,-0.11865234375,-0.93017578125,0.39794921875,0.5625,-1.5,-0.9375
2.7449999999999637,0.0,-1.0,-4.0,-7.0,-3.0,-4.0,-4.0,-1.0,0.54730224609375,-0.0496826171875,-0.01959228515625,-0.83526611328125,-0.11865234375,-0.93017578125,0.39794921875,0.5625,-1.5,-0.9375
2.7499999999999636,-1.0,-3.0,-8.0,2.0,-26.0,-14.0,-2.0,-1.0,0.54730224609375,-0.0496826171875,-0.01959228515625,-0.83526611328125,-0.11865234375,-0.93017578125,0.39794921875,0.5625,-1.5,-0.9375
2.7549999999999635,-1.0,-3.0,-8.0,2.0,-26.0,-14.0,-2.0,-1.0,0.54742431640625,-0.04937744140625,-0.0196533203125,-0.83514404296875,-0.11279296875,-0.9287109375,0.39599609375,-0.8125,-1.875,-1.125
2.7599999999999634,-2.0,0.0,-2.0,-9.0,2.0,8.0,3.0,0.0,0.54742431640625,-0.04937744140625,-0.0196533203125,-0.83514404296875,-0.11279296875,-0.9287109375,0.39599609375,-0.8125,-1.875,-1.125
2.7649999999999633,-2.0,0.0,-2.0,-9.0,2.0,8.0,3.0,0.0,0.54742431640625,-0.04937744140625,-0.0196533203125,-0.83514404296875,-0.11279296875,-0.9287109375,0.39599609375,-0.8125,-1.875,-1.125
2.769999999999963,-2.0,0.0,-2.0,-9.0,2.0,8.0,3.0,0.0,0.54742431640625,-0.04937744140625,-0.0196533203125,-0.83514404296875,-0.11279296875,-0.9287109375,0.39599609375,-0.8125,-1.875,-1.125
2.774999999999963,-2.0,0.0,-2.0,-9.0,2.0,8.0,3.0,0.0,0.54742431640625,-0.04937744140625,-0.0196533203125,-0.83514404296875,-0.11279296875,-0.9287109375,0.39599609375,-0.8125,-1.875,-1.125
2.779999999999963,-1.0,1.0,7.0,25.0,5.0,-15.0,-4.0,-1.0,0.5477294921875,-0.049072265625,-0.01971435546875,-0.8349609375,-0.1083984375,-0.93359375,0.3896484375,-1.125,-1.875,-1.0
2.784999999999963,-1.0,1.0,7.0,25.0,5.0,-15.0,-4.0,-1.0,0.5477294921875,-0.049072265625,-0.01971435546875,-0.8349609375,-0.1083984375,-0.93359375,0.3896484375,-1.125,-1.875,-1.0
2.7899999999999627,-1.0,-3.0,-4.0,8.0,8.0,23.0,1.0,-1.0,0.5477294921875,-0.049072265625,-0.01971435546875,-0.8349609375,-0.1083984375,-0.93359375,0.3896484375,-1.125,-1.875,-1.0
2.7949999999999626,-1.0,-3.0,-4.0,8.0,8.0,23.0,1.0,-1.0,0.5477294921875,-0.049072265625,-0.01971435546875,-0.8349609375,-0.1083984375,-0.93359375,0.3896484375,-1.125,-1.875,-1.0
2.7999999999999625,-1.0,-3.0,-4.0,8.0,8.0,23.0,1.0,-1.0,0.5477294921875,-0.049072265625,-0.01971435546875,-0.8349609375,-0.1083984375,-0.93359375,0.3896484375,-1.125,-1.875,-1.0
2.8049999999999624,-1.0,-3.0,-4.0,8.0,8.0,23.0,1.0,-1.0,0.5477294921875,-0.049072265625,-0.01971435546875,-0.8349609375,-0.1083984375,-0.93359375,0.3896484375,-1.125,-1.875,-1.0
2.8099999999999623,-1.0,-1.0,-2.0,-12.0,0.0,-2.0,-1.0,-2.0,0.5478515625,-0.04876708984375,-0.0198974609375,-0.83489990234375,-0.10986328125,-0.9267578125,0.390625,-0.375,-2.25,-0.625
2.814999999999962,-1.0,-1.0,-2.0,-12.0,0.0,-2.0,-1.0,-2.0,0.5478515625,-0.04876708984375,-0.0198974609375,-0.83489990234375,-0.10986328125,-0.9267578125,0.390625,-0.375,-2.25,-0.625
2.819999999999962,-1.0,-1.0,-2.0,-12.0,0.0,-2.0,-1.0,-2.0,0.5478515625,-0.04876708984375,-0.0198974609375,-0.83489990234375,-0.10986328125,-0.9267578125,0.390625,-0.375,-2.25,-0.625
2.824999999999962,-1.0,-1.0,-2.0,-12.0,0.0,-2.0,-1.0,-2.0,0.5478515625,-0.04876708984375,-0.0198974609375,-0.83489990234375,-0.10986328125,-0.9267578125,0.390625,-0.375,-2.25,-0.625
2.829999999999962,-4.0,-3.0,0.0,11.0,-10.0,1.0,-1.0,0.0,0.54803466796875,-0.0484619140625,-0.02008056640625,-0.8348388671875,-0.11572265625,-0.93212890625,0.39501953125,-0.75,-2.25,-0.625
2.8349999999999618,1.0,0.0,1.0,-4.0,3.0,-3.0,1.0,1.0,0.54803466796875,-0.0484619140625,-0.02008056640625,-0.8348388671875,-0.11572265625,-0.93212890625,0.39501953125,-0.75,-2.25,-0.625
2.8399999999999617,1.0,0.0,1.0,-4.0,3.0,-3.0,1.0,1.0,0.54803466796875,-0.0484619140625,-0.02008056640625,-0.8348388671875,-0.11572265625,-0.93212890625,0.39501953125,-0.75,-2.25,-0.625
2.8449999999999616,1.0,0.0,1.0,-4.0,3.0,-3.0,1.0,1.0,0.54803466796875,-0.0484619140625,-0.02008056640625,-0.8348388671875,-0.11572265625,-0.93212890625,0.39501953125,-0.75,-2.25,-0.625
2.8499999999999615,1.0,0.0,1.0,-4.0,3.0,-3.0,1.0,1.0,0.54803466796875,-0.0484619140625,-0.02008056640625,-0.8348388671875,-0.11572265625,-0.93212890625,0.39501953125,-0.75,-2.25,-0.625
2.8549999999999613,0.0,-1.0,1.0,12.0,3.0,-8.0,-3.0,-4.0,0.54815673828125,-0.04827880859375,-0.02032470703125,-0.83477783203125,-0.11279296875,-0.9306640625,0.40478515625,-1.0625,-2.0,0.0
2.8599999999999612,0.0,-1.0,1.0,12.0,3.0,-8.0,-3.0,-4.0,0.54815673828125,-0.04827880859375,-0.02032470703125,-0.83477783203125,-0.11279296875,-0.9306640625,0.40478515625,-1.0625,-2.0,0.0
2.864999999999961,-2.0,-1.0,1.0,-2.0,-16.0,-3.0,2.0,1.0,0.54815673828125,-0.04827880859375,-0.02032470703125,-0.83477783203125,-0.11279296875,-0.9306640625,0.40478515625,-1.0625,-2.0,0.0
2.869999999999961,-2.0,-1.0,1.0,-2.0,-16.0,-3.0,2.0,1.0,0.54815673828125,-0.04827880859375,-0.02032470703125,-0.83477783203125,-0.11279296875,-0.9306640625,0.40478515625,-1.0625,-2.0,0.0
2.874999999999961,-2.0,-1.0,1.0,-2.0,-16.0,-3.0,2.0,1.0,0.54815673828125,-0.04827880859375,-0.02032470703125,-0.83477783203125,-0.11279296875,-0.9306640625,0.40478515625,-1.0625,-2.0,0.0
2.879999999999961,-2.0,-1.0,1.0,-2.0,-16.0,-3.0,2.0,1.0,0.54815673828125,-0.04827880859375,-0.02032470703125,-0.83477783203125,-0.11279296875,-0.9306640625,0.40478515625,-1.0625,-2.0,0.0
2.8849999999999607,0.0,-1.0,1.0,-6.0,16.0,16.0,4.0,-1.0,0.54833984375,-0.0482177734375,-0.0206298828125,-0.83465576171875,-0.1171875,-0.9326171875,0.392578125,-0.625,-1.625,0.375
2.8899999999999606,0.0,0.0,-3.0,-3.0,10.0,-1.0,-2.0,0.0,0.54833984375,-0.0482177734375,-0.0206298828125,-0.83465576171875,-0.1171875,-0.9326171875,0.392578125,-0.625,-1.625,0.375
2.8949999999999605,0.0,0.0,-3.0,-3.0,10.0,-1.0,-2.0,0.0,0.54833984375,-0.0482177734375,-0.0206298828125,-0.83465576171875,-0.1171875,-0.9326171875,0.392578125,-0.625,-1.625,0.375
2.8999999999999604,0.0,0.0,-3.0,-3.0,10.0,-1.0,-2.0,0.0,0.54833984375,-0.0482177734375,-0.0206298828125,-0.83465576171875,-0.1171875,-0.9326171875,0.392578125,-0.625,-1.625,0.375
2.9049999999999603,-2.0,-2.0,0.0,-32.0,-5.0,-4.0,-5.0,-3.0,0.54833984375,-0.0482177734375,-0.0206298828125,-0.83465576171875,-0.1171875,-0.9326171875,0.392578125,-0.625,-1.625,0.375
2.90999999999996,-2.0,-2.0,0.0,-32.0,-5.0,-4.0,-5.0,-3.0,0.54833984375,-0.048095703125,-0.02093505859375,-0.83465576171875,-0.109375,-0.927734375,0.4052734375,-0.5,-1.5625,0.8125
2.91499999999996,0.0,-2.0,-2.0,-17.0,-12.0,-31.0,-2.0,-1.0,0.54833984375,-0.048095703125,-0.02093505859375,-0.83465576171875,-0.109375,-0.927734375,0.4052734375,-0.5,-1.5625,0.8125
2.91999999999996,0.0,-2.0,-2.0,-17.0,-12.0,-31.0,-2.0,-1.0,0.54833984375,-0.048095703125,-0.02093505859375,-0.83465576171875,-0.109375,-0.927734375,0.4052734375,-0.5,-1.5625,0.8125
2.92499999999996,0.0,-2.0,-2.0,-17.0,-12.0,-31.0,-2.0,-1.0,0.54833984375,-0.048095703125,-0.02093505859375,-0.83465576171875,-0.109375,-0.927734375,0.4052734375,-0.5,-1.5625,0.8125
2.9299999999999597,0.0,-2.0,-2.0,-17.0,-12.0,-31.0,-2.0,-1.0,0.54833984375,-0.048095703125,-0.02093505859375,-0.83465576171875,-0.109375,-0.927734375,0.4052734375,-0.5,-1.5625,0.8125
2.9349999999999596,-1.0,0.0,1.0,12.0,5.0,6.0,-1.0,-2.0,0.54840087890625,-0.04803466796875,-0.0213623046875,-0.8345947265625,-0.10986328125,-0.93408203125,0.40087890625,-0.625,-1.75,1.4375
2.9399999999999595,-1.0,0.0,1.0,12.0,5.0,6.0,-1.0,-2.0,0.54840087890625,-0.04803466796875,-0.0213623046875,-0.8345947265625,-0.10986328125,-0.93408203125,0.40087890625,-0.625,-1.75,1.4375
2.9449999999999594,-1.0,0.0,5.0,15.0,-7.0,-16.0,-3.0,0.0,0.54840087890625,-0.04803466796875,-0.0213623046875,-0.8345947265625,-0.10986328125,-0.93408203125,0.40087890625,-0.625,-1.75,1.4375
2.9499999999999593,-1.0,0.0,5.0,15.0,-7.0,-16.0,-3.0,0.0,0.54840087890625,-0.04803466796875,-0.0213623046875,-0.8345947265625,-0.10986328125,-0.93408203125,0.40087890625,-0.625,-1.75,1.4375
2.954999999999959,-1.0,0.0,5.0,15.0,-7.0,-16.0,-3.0,0.0,0.54840087890625,-0.04803466796875,-0.0213623046875,-0.8345947265625,-0.10986328125,-0.93408203125,0.40087890625,-0.625,-1.75,1.4375
2.959999999999959,-1.0,0.0,5.0,15.0,-7.0,-16.0,-3.0,0.0,0.54840087890625,-0.04803466796875,-0.0213623046875,-0.8345947265625,-0.10986328125,-0.93408203125,0.40087890625,-0.625,-1.75,1.4375
2.964999999999959,0.0,-3.0,-1.0,17.0,19.0,12.0,-2.0,-2.0,0.5484619140625,-0.04803466796875,-0.02191162109375,-0.83453369140625,-0.11181640625,-0.9326171875,0.4072265625,-0.8125,-1.75,2.125
2.969999999999959,0.0,-3.0,-1.0,17.0,19.0,12.0,-2.0,-2.0,0.5484619140625,-0.04803466796875,-0.02191162109375,-0.83453369140625,-0.11181640625,-0.9326171875,0.4072265625,-0.8125,-1.75,2.125
2.974999999999959,-3.0,0.0,-1.0,4.0,-14.0,-6.0,-2.0,-1.0,0.5484619140625,-0.04803466796875,-0.02191162109375,-0.83453369140625,-0.11181640625,-0.9326171875,0.4072265625,-0.8125,-1.75,2.125
2.9799999999999587,-1.0,-1.0,-3.0,-10.0,4.0,-7.0,-5.0,-2.0,0.5484619140625,-0.048095703125,-0.02227783203125,-0.83447265625,-0.109375,-0.9345703125,0.40673828125,-0.8125,-1.125,2.0
2.9849999999999586,0.0,-1.0,-2.0,0.0,-5.0,9.0,2.0,0.0,0.5484619140625,-0.048095703125,-0.02227783203125,-0.83447265625,-0.109375,-0.9345703125,0.40673828125,-0.8125,-1.125,2.0
2.9899999999999585,0.0,-1.0,-2.0,0.0,-5.0,9.0,2.0,0.0,0.5484619140625,-0.048095703125,-0.02227783203125,-0.83447265625,-0.109375,-0.9345703125,0.40673828125,-0.8125,-1.125,2.0
2.9949999999999584,0.0,-1.0,-2.0,0.0,-5.0,9.0,2.0,0.0,0.5484619140625,-0.048095703125,-0.02227783203125,-0.83447265625,-0.109375,-0.9345703125,0.40673828125,-0.8125,-1.125,2.0
2.9999999999999583,0.0,1.0,6.0,24.0,4.0,1.0,-2.0,2.0,0.5482177734375,-0.04815673828125,-0.02264404296875,-0.83465576171875,-0.1064453125,-0.93212890625,0.40673828125,1.5,-0.9375,1.9375
3.004999999999958,0.0,-2.0,2.0,20.0,-2.0,8.0,-2.0,-1.0,0.5482177734375,-0.04815673828125,-0.02264404296875,-0.83465576171875,-0.1064453125,-0.93212890625,0.40673828125,1.5,-0.9375,1.9375
3.009999999999958,-3.0,-2.0,-11.0,-58.0,-12.0,-12.0,-3.0,-2.0,0.5482177734375,-0.04815673828125,-0.02264404296875,-0.83465576171875,-0.1064453125,-0.93212890625,0.40673828125,1.5,-0.9375,1.9375
3.014999999999958,-3.0,-2.0,-11.0,-58.0,-12.0,-12.0,-3.0,-2.0,0.5482177734375,-0.04815673828125,-0.02264404296875,-0.83465576171875,-0.1064453125,-0.93212890625,0.40673828125,1.5,-0.9375,1.9375
3.019999999999958,-2.0,0.0,6.0,27.0,-1.0,13.0,1.0,-2.0,0.54791259765625,-0.048095703125,-0.02301025390625,-0.8348388671875,-0.1083984375,-0.92529296875,0.4033203125,1.4375,-1.4375,1.375
3.0249999999999577,-2.0,0.0,6.0,27.0,-1.0,13.0,1.0,-2.0,0.54791259765625,-0.048095703125,-0.02301025390625,-0.8348388671875,-0.1083984375,-0.92529296875,0.4033203125,1.4375,-1.4375,1.375
3.0299999999999576,-1.0,-2.0,-5.0,-7.0,-2.0,21.0,7.0,-1.0,0.5478515625,-0.04791259765625,-0.0233154296875,-0.83489990234375,-0.10546875,-0.9296875,0.40185546875,0.5,-1.8125,0.9375
3.0349999999999575,-1.0,-2.0,-5.0,-7.0,-2.0,21.0,7.0,-1.0,0.5478515625,-0.04791259765625,-0.0233154296875,-0.83489990234375,-0.10546875,-0.9296875,0.40185546875,0.5,-1.8125,0.9375
3.0399999999999574,1.0,0.0,-1.0,7.0,-12.0,-30.0,-5.0,-2.0,0.5478515625,-0.04791259765625,-0.0233154296875,-0.83489990234375,-0.10546875,-0.9296875,0.40185546875,0.5,-1.8125,0.9375
3.0449999999999573,1.0,0.0,-1.0,7.0,-12.0,-30.0,-5.0,-2.0,0.5478515625,-0.04791259765625,-0.0233154296875,-0.83489990234375,-0.10546875,-0.9296875,0.40185546875,0.5,-1.8125,0.9375
3.049999999999957,1.0,0.0,-1.0,7.0,-12.0,-30.0,-5.0,-2.0,0.5478515625,-0.04791259765625,-0.0233154296875,-0.83489990234375,-0.10546875,-0.9296875,0.40185546875,0.5,-1.8125,0.9375
3.054999999999957,-1.0,-1.0,1.0,3.0,5.0,0.0,-2.0,-1.0,0.54766845703125,-0.04766845703125,-0.0234375,-0.83502197265625,-0.0986328125,-0.92919921875,0.40087890625,1.3125,-1.25,0.4375
3.059999999999957,-1.0,-1.0,1.0,3.0,5.0,0.0,-2.0,-1.0,0.54766845703125,-0.04766845703125,-0.0234375,-0.83502197265625,-0.0986328125,-0.92919921875,0.40087890625,1.3125,-1.25,0.4375
3.064999999999957,-3.0,-1.0,7.0,21.0,3.0,5.0,0.0,-2.0,0.54766845703125,-0.04766845703125,-0.0234375,-0.83502197265625,-0.0986328125,-0.92919921875,0.40087890625,1.3125,-1.25,0.4375
3.0699999999999568,-3.0,-1.0,7.0,21.0,3.0,5.0,0.0,-2.0,0.54766845703125,-0.04766845703125,-0.0234375,-0.83502197265625,-0.0986328125,-0.92919921875,0.40087890625,1.3125,-1.25,0.4375
3.0749999999999567,-3.0,-1.0,7.0,21.0,3.0,5.0,0.0,-2.0,0.54766845703125,-0.04766845703125,-0.0234375,-0.83502197265625,-0.0986328125,-0.92919921875,0.40087890625,1.3125,-1.25,0.4375
3.0799999999999566,-2.0,0.0,7.0,33.0,10.0,16.0,5.0,0.0,0.54766845703125,-0.04766845703125,-0.0234375,-0.83502197265625,-0.0986328125,-0.92919921875,0.40087890625,1.3125,-1.25,0.4375
3.0849999999999564,-3.0,-2.0,-1.0,-6.0,-1.0,-14.0,-3.0,-1.0,0.5474853515625,-0.04766845703125,-0.02349853515625,-0.83514404296875,-0.107421875,-0.92724609375,0.39306640625,1.6875,-0.5625,0.25
3.0899999999999563,-3.0,-2.0,-1.0,-6.0,-1.0,-14.0,-3.0,-1.0,0.5474853515625,-0.04766845703125,-0.02349853515625,-0.83514404296875,-0.107421875,-0.92724609375,0.39306640625,1.6875,-0.5625,0.25
3.0949999999999562,-1.0,-4.0,-3.0,-12.0,-9.0,-13.0,-2.0,-4.0,0.5474853515625,-0.04766845703125,-0.02349853515625,-0.83514404296875,-0.107421875,-0.92724609375,0.39306640625,1.6875,-0.5625,0.25
3.099999999999956,0.0,1.0,1.0,9.0,1.0,8.0,3.0,1.0,0.5474853515625,-0.04766845703125,-0.02349853515625,-0.83514404296875,-0.10791015625,-0.9228515625,0.396484375,-0.1875,-0.3125,0.0
3.104999999999956,-2.0,-1.0,5.0,15.0,3.0,9.0,1.0,-1.0,0.5474853515625,-0.04766845703125,-0.02349853515625,-0.83514404296875,-0.10791015625,-0.9228515625,0.396484375,-0.1875,-0.3125,0.0
3.109999999999956,-2.0,-1.0,5.0,15.0,3.0,9.0,1.0,-1.0,0.5474853515625,-0.04766845703125,-0.02349853515625,-0.83514404296875,-0.10791015625,-0.9228515625,0.396484375,-0.1875,-0.3125,0.0
3.114999999999956,-2.0,-1.0,5.0,15.0,3.0,9.0,1.0,-1.0,0.5474853515625,-0.04766845703125,-0.02349853515625,-0.83514404296875,-0.10791015625,-0.9228515625,0.396484375,-0.1875,-0.3125,0.0
3.1199999999999557,0.0,1.0,-2.0,-11.0,7.0,-19.0,-4.0,1.0,0.54754638671875,-0.04766845703125,-0.02349853515625,-0.83514404296875,-0.099609375,-0.92236328125,0.38818359375,-0.125,-0.125,0.1875
3.1249999999999556,1.0,0.0,1.0,39.0,-6.0,-9.0,-5.0,-1.0,0.54754638671875,-0.04766845703125,-0.02349853515625,-0.83514404296875,-0.099609375,-0.92236328125,0.38818359375,-0.125,-0.125,0.1875
3.1299999999999555,1.0,0.0,1.0,39.0,-6.0,-9.0,-5.0,-1.0,0.54754638671875,-0.04766845703125,-0.02349853515625,-0.83514404296875,-0.099609375,-0.92236328125,0.38818359375,-0.125,-0.125,0.1875
3.1349999999999554,1.0,0.0,1.0,39.0,-6.0,-9.0,-5.0,-1.0,0.54754638671875,-0.04766845703125,-0.02349853515625,-0.83514404296875,-0.099609375,-0.92236328125,0.38818359375,-0.125,-0.125,0.1875
3.1399999999999553,1.0,0.0,1.0,39.0,-6.0,-9.0,-5.0,-1.0,0.54754638671875,-0.04766845703125,-0.02349853515625,-0.83514404296875,-0.099609375,-0.92236328125,0.38818359375,-0.125,-0.125,0.1875
3.144999999999955,-2.0,-3.0,-7.0,-44.0,6.0,1.0,3.0,-1.0,0.54754638671875,-0.04766845703125,-0.02349853515625,-0.83514404296875,-0.099609375,-0.92236328125,0.38818359375,-0.125,-0.125,0.1875
3.149999999999955,-2.0,-1.0,-5.0,-3.0,6.0,-1.0,3.0,-1.0,0.54754638671875,-0.04766845703125,-0.02349853515625,-0.8350830078125,-0.10693359375,-0.92626953125,0.390625,0.125,0.0625,0.0625
3.154999999999955,-2.0,-1.0,-5.0,-3.0,6.0,-1.0,3.0,-1.0,0.54754638671875,-0.04766845703125,-0.02349853515625,-0.8350830078125,-0.10693359375,-0.92626953125,0.390625,0.125,0.0625,0.0625
3.159999999999955,-2.0,-1.0,-5.0,-3.0,6.0,-1.0,3.0,-1.0,0.54754638671875,-0.04766845703125,-0.02349853515625,-0.8350830078125,-0.10693359375,-0.92626953125,0.390625,0.125,0.0625,0.0625
3.1649999999999547,-1.0,-4.0,-5.0,-20.0,-8.0,8.0,-2.0,-3.0,0.54754638671875,-0.04766845703125,-0.02349853515625,-0.8350830078125,-0.1025390625,-0.92822265625,0.396484375,0.0625,0.375,-0.25
3.1699999999999546,-1.0,-4.0,-5.0,-20.0,-8.0,8.0,-2.0,-3.0,0.54754638671875,-0.04766845703125,-0.02349853515625,-0.8350830078125,-0.1025390625,-0.92822265625,0.396484375,0.0625,0.375,-0.25
3.1749999999999545,-1.0,-4.0,-5.0,-20.0,-8.0,8.0,-2.0,-3.0,0.54754638671875,-0.04766845703125,-0.02349853515625,-0.8350830078125,-0.1025390625,-0.92822265625,0.396484375,0.0625,0.375,-0.25
3.1799999999999544,-1.0,-4.0,-5.0,-20.0,-8.0,8.0,-2.0,-3.0,0.54754638671875,-0.04766845703125,-0.02349853515625,-0.8350830078125,-0.1025390625,-0.92822265625,0.396484375,0.0625,0.375,-0.25
3.1849999999999543,-2.0,0.0,-5.0,-15.0,-12.0,-1.0,-2.0,-2.0,0.54754638671875,-0.0477294921875,-0.0233154296875,-0.8350830078125,-0.11572265625,-0.92822265625,0.39697265625,0.3125,0.625,-1.125
3.189999999999954,-2.0,0.0,-5.0,-15.0,-12.0,-1.0,-2.0,-2.0,0.54754638671875,-0.0477294921875,-0.0233154296875,-0.8350830078125,-0.11572265625,-0.92822265625,0.39697265625,0.3125,0.625,-1.125
3.194999999999954,1.0,-2.0,-3.0,-3.0,5.0,-1.0,0.0,1.0,0.54754638671875,-0.0477294921875,-0.0233154296875,-0.8350830078125,-0.11572265625,-0.92822265625,0.39697265625,0.3125,0.625,-1.125
3.199999999999954,-2.0,1.0,3.0,20.0,1.0,9.0,2.0,2.0,0.54754638671875,-0.0477294921875,-0.0233154296875,-0.8350830078125,-0.11572265625,-0.92822265625,0.39697265625,0.3125,0.625,-1.125
3.204999999999954,-2.0,1.0,3.0,20.0,1.0,9.0,2.0,2.0,0.54754638671875,-0.0477294921875,-0.0233154296875,-0.8350830078125,-0.11572265625,-0.92822265625,0.39697265625,0.3125,0.625,-1.125
3.209999999999954,-2.0,1.0,3.0,20.0,1.0,9.0,2.0,2.0,0.54754638671875,-0.0477294921875,-0.0233154296875,-0.8350830078125,-0.11572265625,-0.92822265625,0.39697265625,0.3125,0.625,-1.125
3.2149999999999537,-3.0,0.0,3.0,9.0,-5.0,1.0,0.0,-1.0,0.54754638671875,-0.0477294921875,-0.0233154296875,-0.8350830078125,-0.11572265625,-0.92822265625,0.39697265625,0.3125,0.625,-1.125
3.2199999999999536,0.0,-2.0,-5.0,-26.0,1.0,-2.0,-3.0,-1.0,0.547607421875,-0.0477294921875,-0.0233154296875,-0.8350830078125,-0.1103515625,-0.9267578125,0.390625,0.5625,-0.0625,-0.875
3.2249999999999535,0.0,-2.0,-5.0,-26.0,1.0,-2.0,-3.0,-1.0,0.547607421875,-0.0477294921875,-0.0233154296875,-0.8350830078125,-0.1103515625,-0.9267578125,0.390625,0.5625,-0.0625,-0.875
3.2299999999999534,0.0,-2.0,-2.0,0.0,12.0,-8.0,-2.0,-1.0,0.547607421875,-0.04766845703125,-0.02325439453125,-0.83502197265625,-0.1142578125,-0.921875,0.39697265625,-0.1875,-0.3125,-1.0625
3.2349999999999532,0.0,-2.0,-2.0,0.0,12.0,-8.0,-2.0,-1.0,0.547607421875,-0.04766845703125,-0.02325439453125,-0.83502197265625,-0.1142578125,-0.921875,0.39697265625,-0.1875,-0.3125,-1.0625
3.239999999999953,0.0,-1.0,-11.0,-46.0,6.0,3.0,-1.0,0.0,0.547607421875,-0.04766845703125,-0.02325439453125,-0.83502197265625,-0.1142578125,-0.921875,0.39697265625,-0.1875,-0.3125,-1.0625
3.244999999999953,0.0,-1.0,-11.0,-46.0,6.0,3.0,-1.0,0.0,0.547607421875,-0.04766845703125,-0.02325439453125,-0.83502197265625,-0.1142578125,-0.921875,0.39697265625,-0.1875,-0.3125,-1.0625
3.249999999999953,0.0,-1.0,-11.0,-46.0,6.0,3.0,-1.0,0.0,0.547607421875,-0.04766845703125,-0.02325439453125,-0.83502197265625,-0.1142578125,-0.921875,0.39697265625,-0.1875,-0.3125,-1.0625
3.254999999999953,0.0,-1.0,-11.0,-46.0,6.0,3.0,-1.0,0.0,0.547607421875,-0.04766845703125,-0.02325439453125,-0.83502197265625,-0.1142578125,-0.921875,0.39697265625,-0.1875,-0.3125,-1.0625
