0.005,1.0,2.0,8.0,1.0,-10.0,-4.0,-4.0,0.0,0.283203125,0.449462890625,-0.7120361328125,-0.45904541015625,-0.0537109375,-0.9443359375,0.49072265625,2.25,3.875,-4.3125
0.01,1.0,2.0,8.0,1.0,-10.0,-4.0,-4.0,0.0,0.2830810546875,0.4486083984375,-0.71221923828125,-0.45977783203125,-0.04736328125,-0.94287109375,0.490234375,3.375,1.4375,-5.0
0.015,0.0,-4.0,-6.0,-7.0,-5.0,-17.0,2.0,-2.0,0.2830810546875,0.4486083984375,-0.71221923828125,-0.45977783203125,-0.04736328125,-0.94287109375,0.490234375,3.375,1.4375,-5.0
0.02,0.0,-4.0,-6.0,-7.0,-5.0,-17.0,2.0,-2.0,0.2830810546875,0.4486083984375,-0.71221923828125,-0.45977783203125,-0.04736328125,-0.94287109375,0.490234375,3.375,1.4375,-5.0
0.025,1.0,1.0,2.0,-15.0,2.0,-3.0,1.0,0.0,0.2830810546875,0.4486083984375,-0.71221923828125,-0.45977783203125,-0.04736328125,-0.94287109375,0.490234375,3.375,1.4375,-5.0
0.030000000000000002,1.0,1.0,2.0,-15.0,2.0,-3.0,1.0,0.0,0.2830810546875,0.4486083984375,-0.71221923828125,-0.45977783203125,-0.04736328125,-0.94287109375,0.490234375,3.375,1.4375,-5.0
0.035,1.0,1.0,2.0,-15.0,2.0,-3.0,1.0,0.0,0.28289794921875,0.44775390625,-0.71258544921875,-0.46014404296875,-0.04638671875,-0.94921875,0.48779296875,4.0625,0.3125,-3.25
0.04,1.0,1.0,2.0,-15.0,2.0,-3.0,1.0,0.0,0.28289794921875,0.44775390625,-0.71258544921875,-0.46014404296875,-0.04638671875,-0.94921875,0.48779296875,4.0625,0.3125,-3.25
0.045,-4.0,-3.0,-2.0,-11.0,4.0,-4.0,-3.0,-3.0,0.28289794921875,0.44775390625,-0.71258544921875,-0.46014404296875,-0.04638671875,-0.94921875,0.48779296875,4.0625,0.3125,-3.25
0.049999999999999996,-4.0,-3.0,-2.0,-11.0,4.0,-4.0,-3.0,-3.0,0.28289794921875,0.44775390625,-0.71258544921875,-0.46014404296875,-0.04638671875,-0.94921875,0.48779296875,4.0625,0.3125,-3.25
0.05499999999999999,-2.0,-4.0,-5.0,3.0,1.0,-3.0,-3.0,-3.0,0.282958984375,0.4466552734375,-0.71331787109375,-0.4600830078125,-0.0517578125,-0.93310546875,0.47021484375,5.1875,-0.125,0.5
0.05999999999999999,0.0,2.0,1.0,-13.0,-1.0,-4.0,-4.0,0.0,0.282958984375,0.4466552734375,-0.71331787109375,-0.4600830078125,-0.0517578125,-0.93310546875,0.47021484375,5.1875,-0.125,0.5
0.06499999999999999,0.0,2.0,1.0,-13.0,-1.0,-4.0,-4.0,0.0,0.282958984375,0.4466552734375,-0.71331787109375,-0.4600830078125,-0.0517578125,-0.93310546875,0.47021484375,5.1875,-0.125,0.5
0.06999999999999999,2.0,1.0,1.0,25.0,-1.0,-16.0,-5.0,2.0,0.282958984375,0.4466552734375,-0.71331787109375,-0.4600830078125,-0.0517578125,-0.93310546875,0.47021484375,5.1875,-0.125,0.5
0.075,2.0,1.0,1.0,25.0,-1.0,-16.0,-5.0,2.0,0.282958984375,0.4466552734375,-0.71331787109375,-0.4600830078125,-0.0517578125,-0.93310546875,0.47021484375,5.1875,-0.125,0.5
0.08,2.0,1.0,1.0,25.0,-1.0,-16.0,-5.0,2.0,0.2833251953125,0.4453125,-0.7144775390625,-0.45941162109375,-0.05615234375,-0.921875,0.45751953125,6.125,-0.5625,5.0
0.085,2.0,1.0,1.0,25.0,-1.0,-16.0,-5.0,2.0,0.2833251953125,0.4453125,-0.7144775390625,-0.45941162109375,-0.05615234375,-0.921875,0.45751953125,6.125,-0.5625,5.0
0.09000000000000001,-3.0,-3.0,-7.0,6.0,-7.0,11.0,1.0,-1.0,0.2833251953125,0.4453125,-0.7144775390625,-0.45941162109375,-0.05615234375,-0.921875,0.45751953125,6.125,-0.5625,5.0
0.09500000000000001,-3.0,-3.0,-7.0,6.0,-7.0,11.0,1.0,-1.0,0.2833251953125,0.4453125,-0.7144775390625,-0.45941162109375,-0.05615234375,-0.921875,0.45751953125,6.125,-0.5625,5.0
0.10000000000000002,-3.0,-1.0,-8.0,-8.0,6.0,-4.0,2.0,0.0,0.2833251953125,0.4453125,-0.7144775390625,-0.45941162109375,-0.05615234375,-0.921875,0.45751953125,6.125,-0.5625,5.0
0.10500000000000002,-3.0,-1.0,-8.0,-8.0,6.0,-4.0,2.0,0.0,0.2833251953125,0.4453125,-0.7144775390625,-0.45941162109375,-0.05615234375,-0.921875,0.45751953125,6.125,-0.5625,5.0
0.11000000000000003,-3.0,-1.0,-8.0,-8.0,6.0,-4.0,2.0,0.0,0.2841796875,0.44415283203125,-0.71563720703125,-0.4581298828125,-0.05615234375,-0.90966796875,0.44677734375,3.5625,-0.25,8.625
0.11500000000000003,-3.0,-1.0,-8.0,-8.0,6.0,-4.0,2.0,0.0,0.2841796875,0.44415283203125,-0.71563720703125,-0.4581298828125,-0.05615234375,-0.90966796875,0.44677734375,3.5625,-0.25,8.625
0.12000000000000004,-1.0,1.0,-3.0,-10.0,-12.0,-6.0,-1.0,0.0,0.2841796875,0.44415283203125,-0.71563720703125,-0.4581298828125,-0.05615234375,-0.90966796875,0.44677734375,3.5625,-0.25,8.625
0.12500000000000003,-1.0,1.0,-3.0,-10.0,-12.0,-6.0,-1.0,0.0,0.2841796875,0.44415283203125,-0.71563720703125,-0.4581298828125,-0.05615234375,-0.90966796875,0.44677734375,3.5625,-0.25,8.625
0.13000000000000003,-1.0,1.0,2.0,5.0,6.0,-16.0,4.0,2.0,0.2852783203125,0.4427490234375,-0.71697998046875,-0.45672607421875,-0.0380859375,-0.91943359375,0.44580078125,4.375,1.125,12.3125
0.13500000000000004,-1.0,1.0,2.0,5.0,6.0,-16.0,4.0,2.0,0.2852783203125,0.4427490234375,-0.71697998046875,-0.45672607421875,-0.0380859375,-0.91943359375,0.44580078125,4.375,1.125,12.3125
0.14000000000000004,-1.0,1.0,2.0,5.0,6.0,-16.0,4.0,2.0,0.2852783203125,0.4427490234375,-0.71697998046875,-0.45672607421875,-0.0380859375,-0.91943359375,0.44580078125,4.375,1.125,12.3125
0.14500000000000005,-1.0,1.0,2.0,5.0,6.0,-16.0,4.0,2.0,0.2852783203125,0.4427490234375,-0.71697998046875,-0.45672607421875,-0.0380859375,-0.91943359375,0.44580078125,4.375,1.125,12.3125
0.15000000000000005,-1.0,1.0,2.0,5.0,6.0,-16.0,4.0,2.0,0.2852783203125,0.4427490234375,-0.71697998046875,-0.45672607421875,-0.0380859375,-0.91943359375,0.44580078125,4.375,1.125,12.3125
0.15500000000000005,-1.0,1.0,2.0,5.0,6.0,-16.0,4.0,2.0,0.2852783203125,0.4427490234375,-0.71697998046875,-0.45672607421875,-0.0380859375,-0.91943359375,0.44580078125,4.375,1.125,12.3125
0.16000000000000006,2.0,2.0,3.0,-3.0,-4.0,2.0,-2.0,-1.0,0.28656005859375,0.440673828125,-0.71868896484375,-0.45513916015625,-0.0302734375,-0.8935546875,0.45263671875,6.625,3.375,16.3125
0.16500000000000006,-5.0,-2.0,0.0,-7.0,-7.0,-14.0,-7.0,-5.0,0.28656005859375,0.440673828125,-0.71868896484375,-0.45513916015625,-0.0302734375,-0.8935546875,0.45263671875,6.625,3.375,16.3125
0.17000000000000007,-5.0,-2.0,0.0,-7.0,-7.0,-14.0,-7.0,-5.0,0.28656005859375,0.440673828125,-0.71868896484375,-0.45513916015625,-0.0302734375,-0.8935546875,0.45263671875,6.625,3.375,16.3125
0.17500000000000007,-1.0,-2.0,1.0,-3.0,0.0,11.0,1.0,-1.0,0.28656005859375,0.440673828125,-0.71868896484375,-0.45513916015625,-0.0302734375,-0.8935546875,0.45263671875,6.625,3.375,16.3125
0.18000000000000008,-1.0,-2.0,1.0,-3.0,0.0,11.0,1.0,-1.0,0.28656005859375,0.440673828125,-0.71868896484375,-0.45513916015625,-0.0302734375,-0.8935546875,0.45263671875,6.625,3.375,16.3125
0.18500000000000008,-1.0,-2.0,1.0,-3.0,0.0,11.0,1.0,-1.0,0.288330078125,0.43841552734375,-0.72052001953125,-0.453369140625,-0.02783203125,-0.89306640625,0.45947265625,5.75,5.3125,19.75
0.19000000000000009,-1.0,-2.0,1.0,-3.0,0.0,11.0,1.0,-1.0,0.288330078125,0.43841552734375,-0.72052001953125,-0.453369140625,-0.02783203125,-0.89306640625,0.45947265625,5.75,5.3125,19.75
0.1950000000000001,3.0,-1.0,8.0,40.0,11.0,29.0,4.0,0.0,0.288330078125,0.43841552734375,-0.72052001953125,-0.453369140625,-0.02783203125,-0.89306640625,0.45947265625,5.75,5.3125,19.75
0.2000000000000001,3.0,-1.0,8.0,40.0,11.0,29.0,4.0,0.0,0.288330078125,0.43841552734375,-0.72052001953125,-0.453369140625,-0.02783203125,-0.89306640625,0.45947265625,5.75,5.3125,19.75
0.2050000000000001,0.0,-1.0,-5.0,-13.0,4.0,-5.0,2.0,0.0,0.29058837890625,0.4361572265625,-0.7222900390625,-0.45123291015625,-0.033203125,-0.87890625,0.458984375,3.5625,6.6875,22.1875
0.2100000000000001,0.0,-1.0,-5.0,-13.0,4.0,-5.0,2.0,0.0,0.29058837890625,0.4361572265625,-0.7222900390625,-0.45123291015625,-0.033203125,-0.87890625,0.458984375,3.5625,6.6875,22.1875
0.2150000000000001,0.0,-1.0,-5.0,-13.0,4.0,-5.0,2.0,0.0,0.29058837890625,0.4361572265625,-0.7222900390625,-0.45123291015625,-0.033203125,-0.87890625,0.458984375,3.5625,6.6875,22.1875
0.2200000000000001,0.0,-1.0,-5.0,-13.0,4.0,-5.0,2.0,0.0,0.29058837890625,0.4361572265625,-0.7222900390625,-0.45123291015625,-0.033203125,-0.87890625,0.458984375,3.5625,6.6875,22.1875
0.22500000000000012,-8.0,-4.0,-1.0,-8.0,8.0,0.0,-7.0,-6.0,0.29058837890625,0.4361572265625,-0.7222900390625,-0.45123291015625,-0.033203125,-0.87890625,0.458984375,3.5625,6.6875,22.1875
0.23000000000000012,-8.0,-4.0,-1.0,-8.0,8.0,0.0,-7.0,-6.0,0.29058837890625,0.4361572265625,-0.7222900390625,-0.45123291015625,-0.033203125,-0.87890625,0.458984375,3.5625,6.6875,22.1875
0.23500000000000013,-8.0,-4.0,-1.0,-8.0,8.0,0.0,-7.0,-6.0,0.2930908203125,0.4342041015625,-0.723876953125,-0.44903564453125,-0.03173828125,-0.87646484375,0.45263671875,1.0,7.375,22.6875
0.24000000000000013,-8.0,-4.0,-1.0,-8.0,8.0,0.0,-7.0,-6.0,0.2930908203125,0.4342041015625,-0.723876953125,-0.44903564453125,-0.03173828125,-0.87646484375,0.45263671875,1.0,7.375,22.6875
0.24500000000000013,1.0,-1.0,0.0,-6.0,-22.0,-29.0,-5.0,1.0,0.2930908203125,0.4342041015625,-0.723876953125,-0.44903564453125,-0.03173828125,-0.87646484375,0.45263671875,1.0,7.375,22.6875
0.2500000000000001,1.0,-1.0,0.0,-6.0,-22.0,-29.0,-5.0,1.0,0.2930908203125,0.4342041015625,-0.723876953125,-0.44903564453125,-0.03173828125,-0.87646484375,0.45263671875,1.0,7.375,22.6875
0.2550000000000001,3.0,0.0,-2.0,-6.0,7.0,24.0,3.0,2.0,0.2930908203125,0.4342041015625,-0.723876953125,-0.44903564453125,-0.03173828125,-0.87646484375,0.45263671875,1.0,7.375,22.6875
0.2600000000000001,3.0,0.0,-2.0,-6.0,7.0,24.0,3.0,2.0,0.2930908203125,0.4342041015625,-0.723876953125,-0.44903564453125,-0.03173828125,-0.87646484375,0.45263671875,1.0,7.375,22.6875
0.2650000000000001,3.0,0.0,-2.0,-6.0,7.0,24.0,3.0,2.0,0.29571533203125,0.43218994140625,-0.7252197265625,-0.447021484375,-0.03076171875,-0.89794921875,0.45458984375,1.4375,9.1875,22.5
0.27000000000000013,-4.0,-2.0,3.0,7.0,4.0,6.0,-3.0,-3.0,0.29571533203125,0.43218994140625,-0.7252197265625,-0.447021484375,-0.03076171875,-0.89794921875,0.45458984375,1.4375,9.1875,22.5
0.27500000000000013,-4.0,-2.0,3.0,7.0,4.0,6.0,-3.0,-3.0,0.29571533203125,0.43218994140625,-0.7252197265625,-0.447021484375,-0.03076171875,-0.89794921875,0.45458984375,1.4375,9.1875,22.5
0.28000000000000014,-4.0,-2.0,3.0,7.0,4.0,6.0,-3.0,-3.0,0.29571533203125,0.43218994140625,-0.7252197265625,-0.447021484375,-0.03076171875,-0.89794921875,0.45458984375,1.4375,9.1875,22.5
0.28500000000000014,0.0,-3.0,-2.0,19.0,-3.0,6.0,-4.0,0.0,0.2984619140625,0.4300537109375,-0.726318359375,-0.44549560546875,-0.041015625,-0.908203125,0.4560546875,2.3125,11.4375,20.5
0.29000000000000015,0.0,-3.0,-2.0,19.0,-3.0,6.0,-4.0,0.0,0.2984619140625,0.4300537109375,-0.726318359375,-0.44549560546875,-0.041015625,-0.908203125,0.4560546875,2.3125,11.4375,20.5
0.29500000000000015,0.0,-3.0,-2.0,19.0,-3.0,6.0,-4.0,0.0,0.2984619140625,0.4300537109375,-0.726318359375,-0.44549560546875,-0.041015625,-0.908203125,0.4560546875,2.3125,11.4375,20.5
0.30000000000000016,-2.0,-5.0,-1.0,18.0,-4.0,-7.0,-7.0,-5.0,0.2984619140625,0.4300537109375,-0.726318359375,-0.44549560546875,-0.041015625,-0.908203125,0.4560546875,2.3125,11.4375,20.5
0.30500000000000016,-2.0,-5.0,-1.0,18.0,-4.0,-7.0,-7.0,-5.0,0.30108642578125,0.427734375,-0.72747802734375,-0.44403076171875,-0.0458984375,-0.92333984375,0.4560546875,4.125,11.6875,20.0625
0.31000000000000016,-2.0,-5.0,-1.0,18.0,-4.0,-7.0,-7.0,-5.0,0.30108642578125,0.427734375,-0.72747802734375,-0.44403076171875,-0.0458984375,-0.92333984375,0.4560546875,4.125,11.6875,20.0625
0.31500000000000017,0.0,2.0,3.0,20.0,15.0,-1.0,0.0,1.0,0.30108642578125,0.427734375,-0.72747802734375,-0.44403076171875,-0.0458984375,-0.92333984375,0.4560546875,4.125,11.6875,20.0625
0.3200000000000002,0.0,2.0,3.0,20.0,15.0,-1.0,0.0,1.0,0.30108642578125,0.427734375,-0.72747802734375,-0.44403076171875,-0.0458984375,-0.92333984375,0.4560546875,4.125,11.6875,20.0625
0.3250000000000002,0.0,2.0,3.0,20.0,15.0,-1.0,0.0,1.0,0.30108642578125,0.427734375,-0.72747802734375,-0.44403076171875,-0.0458984375,-0.92333984375,0.4560546875,4.125,11.6875,20.0625
0.3300000000000002,-2.0,2.0,2.0,8.0,1.0,-1.0,-3.0,0.0,0.3035888671875,0.4259033203125,-0.72833251953125,-0.44268798828125,-0.0400390625,-0.91357421875,0.4580078125,1.375,11.25,19.0625
0.3350000000000002,-2.0,0.0,3.0,-1.0,-14.0,-26.0,-8.0,-3.0,0.3035888671875,0.4259033203125,-0.72833251953125,-0.44268798828125,-0.0400390625,-0.91357421875,0.4580078125,1.375,11.25,19.0625
0.3400000000000002,-2.0,0.0,3.0,-1.0,-14.0,-26.0,-8.0,-3.0,0.3035888671875,0.4259033203125,-0.72833251953125,-0.44268798828125,-0.0400390625,-0.91357421875,0.4580078125,1.375,11.25,19.0625
0.3450000000000002,1.0,2.0,0.0,-11.0,2.0,24.0,3.0,-1.0,0.3035888671875,0.4259033203125,-0.72833251953125,-0.44268798828125,-0.0400390625,-0.91357421875,0.4580078125,1.375,11.25,19.0625
0.3500000000000002,1.0,2.0,0.0,-11.0,2.0,24.0,3.0,-1.0,0.306396484375,0.42474365234375,-0.72869873046875,-0.44134521484375,-0.02978515625,-0.9208984375,0.44873046875,-2.9375,11.9375,18.0
0.3550000000000002,1.0,2.0,0.0,-11.0,2.0,24.0,3.0,-1.0,0.306396484375,0.42474365234375,-0.72869873046875,-0.44134521484375,-0.02978515625,-0.9208984375,0.44873046875,-2.9375,11.9375,18.0
0.3600000000000002,-1.0,-2.0,-4.0,3.0,9.0,6.0,9.0,1.0,0.306396484375,0.42474365234375,-0.72869873046875,-0.44134521484375,-0.02978515625,-0.9208984375,0.44873046875,-2.9375,11.9375,18.0
0.3650000000000002,-3.0,0.0,-1.0,-4.0,-2.0,-1.0,2.0,-6.0,0.306396484375,0.42474365234375,-0.72869873046875,-0.44134521484375,-0.02978515625,-0.9208984375,0.44873046875,-2.9375,11.9375,18.0
0.3700000000000002,-3.0,0.0,-1.0,-4.0,-2.0,-1.0,2.0,-6.0,0.30914306640625,0.424072265625,-0.72857666015625,-0.44024658203125,-0.02490234375,-0.93359375,0.45751953125,-5.3125,12.4375,15.6875
0.3750000000000002,-3.0,0.0,-1.0,-4.0,-2.0,-1.0,2.0,-6.0,0.30914306640625,0.424072265625,-0.72857666015625,-0.44024658203125,-0.02490234375,-0.93359375,0.45751953125,-5.3125,12.4375,15.6875
0.3800000000000002,-3.0,0.0,-1.0,-4.0,-2.0,-1.0,2.0,-6.0,0.30914306640625,0.424072265625,-0.72857666015625,-0.44024658203125,-0.02490234375,-0.93359375,0.45751953125,-5.3125,12.4375,15.6875
0.38500000000000023,-3.0,0.0,-1.0,-4.0,-2.0,-1.0,2.0,-6.0,0.30914306640625,0.424072265625,-0.72857666015625,-0.44024658203125,-0.02490234375,-0.93359375,0.45751953125,-5.3125,12.4375,15.6875
0.39000000000000024,0.0,-2.0,-3.0,-12.0,-2.0,-17.0,3.0,2.0,0.30914306640625,0.424072265625,-0.72857666015625,-0.44024658203125,-0.02490234375,-0.93359375,0.45751953125,-5.3125,12.4375,15.6875
0.39500000000000024,0.0,-2.0,-3.0,-12.0,-2.0,-17.0,3.0,2.0,0.30914306640625,0.424072265625,-0.72857666015625,-0.44024658203125,-0.02490234375,-0.93359375,0.45751953125,-5.3125,12.4375,15.6875
0.40000000000000024,0.0,-2.0,-3.0,-12.0,-2.0,-17.0,3.0,2.0,0.31158447265625,0.4232177734375,-0.728515625,-0.439453125,-0.03125,-0.93212890625,0.46826171875,-4.0625,12.25,13.75
0.40500000000000025,0.0,-2.0,-3.0,-12.0,-2.0,-17.0,3.0,2.0,0.31158447265625,0.4232177734375,-0.728515625,-0.439453125,-0.03125,-0.93212890625,0.46826171875,-4.0625,12.25,13.75
0.41000000000000025,2.0,-2.0,-5.0,-26.0,1.0,12.0,8.0,-1.0,0.31158447265625,0.4232177734375,-0.728515625,-0.439453125,-0.03125,-0.93212890625,0.46826171875,-4.0625,12.25,13.75
0.41500000000000026,0.0,0.0,1.0,17.0,0.0,-17.0,-3.0,-1.0,0.31158447265625,0.4232177734375,-0.728515625,-0.439453125,-0.03125,-0.93212890625,0.46826171875,-4.0625,12.25,13.75
0.42000000000000026,-4.0,-3.0,-2.0,-19.0,0.0,15.0,0.0,-3.0,0.31378173828125,0.422119140625,-0.728515625,-0.43890380859375,-0.0537109375,-0.9208984375,0.47607421875,-3.25,11.625,11.9375
0.42500000000000027,-4.0,-3.0,-2.0,-19.0,0.0,15.0,0.0,-3.0,0.31378173828125,0.422119140625,-0.728515625,-0.43890380859375,-0.0537109375,-0.9208984375,0.47607421875,-3.25,11.625,11.9375
0.43000000000000027,-4.0,-3.0,-2.0,-19.0,0.0,15.0,0.0,-3.0,0.31378173828125,0.422119140625,-0.728515625,-0.43890380859375,-0.0537109375,-0.9208984375,0.47607421875,-3.25,11.625,11.9375
0.4350000000000003,-1.0,-3.0,4.0,5.0,-2.0,14.0,1.0,0.0,0.31378173828125,0.422119140625,-0.728515625,-0.43890380859375,-0.0537109375,-0.9208984375,0.47607421875,-3.25,11.625,11.9375
0.4400000000000003,-1.0,-3.0,4.0,5.0,-2.0,14.0,1.0,0.0,0.31378173828125,0.422119140625,-0.728515625,-0.43890380859375,-0.0537109375,-0.9208984375,0.47607421875,-3.25,11.625,11.9375
0.4450000000000003,-1.0,-3.0,4.0,5.0,-2.0,14.0,1.0,0.0,0.3162841796875,0.42156982421875,-0.728271484375,-0.43804931640625,-0.07470703125,-0.9072265625,0.4501953125,-5.6875,10.8125,11.0625
0.4500000000000003,-1.0,-3.0,4.0,5.0,-2.0,14.0,1.0,0.0,0.3162841796875,0.42156982421875,-0.728271484375,-0.43804931640625,-0.07470703125,-0.9072265625,0.4501953125,-5.6875,10.8125,11.0625
0.4550000000000003,3.0,-1.0,5.0,10.0,20.0,7.0,0.0,1.0,0.3162841796875,0.42156982421875,-0.728271484375,-0.43804931640625,-0.07470703125,-0.9072265625,0.4501953125,-5.6875,10.8125,11.0625
0.4600000000000003,3.0,2.0,-2.0,-9.0,-2.0,0.0,7.0,3.0,0.3162841796875,0.42156982421875,-0.728271484375,-0.43804931640625,-0.07470703125,-0.9072265625,0.4501953125,-5.6875,10.8125,11.0625
0.4650000000000003,3.0,2.0,-2.0,-9.0,-2.0,0.0,7.0,3.0,0.3162841796875,0.42156982421875,-0.728271484375,-0.43804931640625,-0.07470703125,-0.9072265625,0.4501953125,-5.6875,10.8125,11.0625
0.4700000000000003,3.0,2.0,-2.0,-9.0,-2.0,0.0,7.0,3.0,0.3187255859375,0.421142578125,-0.7279052734375,-0.43731689453125,-0.08935546875,-0.8798828125,0.43359375,-6.6875,10.375,9.125
0.4750000000000003,3.0,2.0,-2.0,-9.0,-2.0,0.0,7.0,3.0,0.3187255859375,0.421142578125,-0.7279052734375,-0.43731689453125,-0.08935546875,-0.8798828125,0.43359375,-6.6875,10.375,9.125
0.4800000000000003,3.0,2.0,-2.0,-9.0,-2.0,0.0,7.0,3.0,0.3187255859375,0.421142578125,-0.7279052734375,-0.43731689453125,-0.08935546875,-0.8798828125,0.43359375,-6.6875,10.375,9.125
0.4850000000000003,3.0,2.0,-2.0,-9.0,-2.0,0.0,7.0,3.0,0.3187255859375,0.421142578125,-0.7279052734375,-0.43731689453125,-0.08935546875,-0.8798828125,0.43359375,-6.6875,10.375,9.125
0.4900000000000003,3.0,2.0,-2.0,-9.0,-2.0,0.0,7.0,3.0,0.3187255859375,0.421142578125,-0.7279052734375,-0.43731689453125,-0.08935546875,-0.8798828125,0.43359375,-6.6875,10.375,9.125
0.49500000000000033,-1.0,-2.0,-5.0,-3.0,-12.0,-6.0,-12.0,-3.0,0.3211669921875,0.42083740234375,-0.72735595703125,-0.436767578125,-0.10888671875,-0.88037109375,0.41748046875,-6.3125,10.25,6.8125
0.5000000000000003,-6.0,-4.0,-6.0,-19.0,-1.0,6.0,9.0,-2.0,0.3211669921875,0.42083740234375,-0.72735595703125,-0.436767578125,-0.10888671875,-0.88037109375,0.41748046875,-6.3125,10.25,6.8125
0.5050000000000003,-2.0,-2.0,-6.0,9.0,-12.0,-17.0,-3.0,-4.0,0.3211669921875,0.42083740234375,-0.72735595703125,-0.436767578125,-0.10888671875,-0.88037109375,0.41748046875,-6.3125,10.25,6.8125
0.5100000000000003,-2.0,-2.0,-6.0,9.0,-12.0,-17.0,-3.0,-4.0,0.3236083984375,0.42059326171875,-0.72662353515625,-0.43634033203125,-0.11474609375,-0.86767578125,0.39794921875,-6.0,10.1875,5.0625
0.5150000000000003,3.0,-3.0,-5.0,27.0,-9.0,24.0,5.0,0.0,0.3236083984375,0.42059326171875,-0.72662353515625,-0.43634033203125,-0.11474609375,-0.86767578125,0.39794921875,-6.0,10.1875,5.0625
0.5200000000000004,3.0,-3.0,-5.0,27.0,-9.0,24.0,5.0,0.0,0.3236083984375,0.42059326171875,-0.72662353515625,-0.43634033203125,-0.11474609375,-0.86767578125,0.39794921875,-6.0,10.1875,5.0625
0.5250000000000004,3.0,-1.0,0.0,12.0,4.0,-3.0,1.0,1.0,0.3236083984375,0.42059326171875,-0.72662353515625,-0.43634033203125,-0.11474609375,-0.86767578125,0.39794921875,-6.0,10.1875,5.0625
0.5300000000000004,3.0,-1.0,0.0,12.0,4.0,-3.0,1.0,1.0,0.3236083984375,0.42059326171875,-0.72662353515625,-0.43634033203125,-0.11474609375,-0.86767578125,0.39794921875,-6.0,10.1875,5.0625
0.5350000000000004,3.0,-1.0,0.0,12.0,4.0,-3.0,1.0,1.0,0.32611083984375,0.42071533203125,-0.7257080078125,-0.43585205078125,-0.11181640625,-0.85009765625,0.3818359375,-8.3125,10.3125,4.875
0.5400000000000004,3.0,-1.0,0.0,12.0,4.0,-3.0,1.0,1.0,0.32611083984375,0.42071533203125,-0.7257080078125,-0.43585205078125,-0.11181640625,-0.85009765625,0.3818359375,-8.3125,10.3125,4.875
0.5450000000000004,4.0,1.0,-2.0,-3.0,1.0,2.0,2.0,2.0,0.32611083984375,0.42071533203125,-0.7257080078125,-0.43585205078125,-0.11181640625,-0.85009765625,0.3818359375,-8.3125,10.3125,4.875
0.5500000000000004,4.0,1.0,-2.0,-3.0,1.0,2.0,2.0,2.0,0.32611083984375,0.42071533203125,-0.7257080078125,-0.43585205078125,-0.11181640625,-0.85009765625,0.3818359375,-8.3125,10.3125,4.875
0.5550000000000004,-2.0,-5.0,-13.0,8.0,-9.0,-10.0,-6.0,-1.0,0.3289794921875,0.42138671875,-0.72454833984375,-0.43499755859375,-0.12255859375,-0.849609375,0.3583984375,-11.5,9.3125,5.25
0.5600000000000004,-2.0,-5.0,-13.0,8.0,-9.0,-10.0,-6.0,-1.0,0.3289794921875,0.42138671875,-0.72454833984375,-0.43499755859375,-0.12255859375,-0.849609375,0.3583984375,-11.5,9.3125,5.25
0.5650000000000004,-2.0,-5.0,-13.0,8.0,-9.0,-10.0,-6.0,-1.0,0.3289794921875,0.42138671875,-0.72454833984375,-0.43499755859375,-0.12255859375,-0.849609375,0.3583984375,-11.5,9.3125,5.25
0.5700000000000004,-3.0,-2.0,2.0,-3.0,4.0,-31.0,-7.0,-3.0,0.3289794921875,0.42138671875,-0.72454833984375,-0.43499755859375,-0.12255859375,-0.849609375,0.3583984375,-11.5,9.3125,5.25
0.5750000000000004,-3.0,-2.0,2.0,-3.0,4.0,-31.0,-7.0,-3.0,0.3289794921875,0.42138671875,-0.72454833984375,-0.43499755859375,-0.12255859375,-0.849609375,0.3583984375,-11.5,9.3125,5.25
0.5800000000000004,4.0,3.0,3.0,-3.0,-2.0,6.0,3.0,3.0,0.33197021484375,0.42254638671875,-0.72320556640625,-0.433837890625,-0.14501953125,-0.8583984375,0.35498046875,-14.75,7.75,4.1875
0.5850000000000004,4.0,3.0,3.0,-3.0,-2.0,6.0,3.0,3.0,0.33197021484375,0.42254638671875,-0.72320556640625,-0.433837890625,-0.14501953125,-0.8583984375,0.35498046875,-14.75,7.75,4.1875
0.5900000000000004,-3.0,-1.0,0.0,-11.0,-5.0,2.0,-2.0,-3.0,0.33197021484375,0.42254638671875,-0.72320556640625,-0.433837890625,-0.14501953125,-0.8583984375,0.35498046875,-14.75,7.75,4.1875
0.5950000000000004,-3.0,-1.0,0.0,-11.0,-5.0,2.0,-2.0,-3.0,0.33197021484375,0.42254638671875,-0.72320556640625,-0.433837890625,-0.14501953125,-0.8583984375,0.35498046875,-14.75,7.75,4.1875
0.6000000000000004,-3.0,-1.0,0.0,-11.0,-5.0,2.0,-2.0,-3.0,0.33502197265625,0.42431640625,-0.721435546875,-0.4327392578125,-0.16064453125,-0.873046875,0.3486328125,-17.75,7.0625,1.1875
0.6050000000000004,-3.0,-1.0,0.0,-11.0,-5.0,2.0,-2.0,-3.0,0.33502197265625,0.42431640625,-0.721435546875,-0.4327392578125,-0.16064453125,-0.873046875,0.3486328125,-17.75,7.0625,1.1875
0.6100000000000004,-1.0,1.0,8.0,3.0,5.0,-2.0,-10.0,-3.0,0.33502197265625,0.42431640625,-0.721435546875,-0.4327392578125,-0.16064453125,-0.873046875,0.3486328125,-17.75,7.0625,1.1875
0.6150000000000004,-1.0,1.0,8.0,3.0,5.0,-2.0,-10.0,-3.0,0.33502197265625,0.42431640625,-0.721435546875,-0.4327392578125,-0.16064453125,-0.873046875,0.3486328125,-17.75,7.0625,1.1875
0.6200000000000004,-3.0,2.0,6.0,20.0,-19.0,-2.0,-1.0,3.0,0.33770751953125,0.42620849609375,-0.7196044921875,-0.43182373046875,-0.1884765625,-0.8955078125,0.3671875,-18.5625,5.3125,-2.5625
0.6250000000000004,-3.0,2.0,6.0,20.0,-19.0,-2.0,-1.0,3.0,0.33770751953125,0.42620849609375,-0.7196044921875,-0.43182373046875,-0.1884765625,-0.8955078125,0.3671875,-18.5625,5.3125,-2.5625
0.6300000000000004,-3.0,2.0,6.0,20.0,-19.0,-2.0,-1.0,3.0,0.33770751953125,0.42620849609375,-0.7196044921875,-0.43182373046875,-0.1884765625,-0.8955078125,0.3671875,-18.5625,5.3125,-2.5625
0.6350000000000005,-3.0,2.0,6.0,20.0,-19.0,-2.0,-1.0,3.0,0.33770751953125,0.42620849609375,-0.7196044921875,-0.43182373046875,-0.1884765625,-0.8955078125,0.3671875,-18.5625,5.3125,-2.5625
0.6400000000000005,0.0,-3.0,-11.0,-15.0,0.0,-2.0,-4.0,-3.0,0.33770751953125,0.42620849609375,-0.7196044921875,-0.43182373046875,-0.1884765625,-0.8955078125,0.3671875,-18.5625,5.3125,-2.5625
0.6450000000000005,0.0,-3.0,-11.0,-15.0,0.0,-2.0,-4.0,-3.0,0.33770751953125,0.42620849609375,-0.7196044921875,-0.43182373046875,-0.1884765625,-0.8955078125,0.3671875,-18.5625,5.3125,-2.5625
0.6500000000000005,0.0,-3.0,-11.0,-15.0,0.0,-2.0,-4.0,-3.0,0.33984375,0.42822265625,-0.71783447265625,-0.43115234375,-0.21875,-0.8984375,0.39501953125,-19.0625,2.6875,-6.875
0.6550000000000005,0.0,-3.0,-11.0,-15.0,0.0,-2.0,-4.0,-3.0,0.33984375,0.42822265625,-0.71783447265625,-0.43115234375,-0.21875,-0.8984375,0.39501953125,-19.0625,2.6875,-6.875
0.6600000000000005,-4.0,-2.0,-3.0,-12.0,-1.0,-26.0,-4.0,-1.0,0.33984375,0.42822265625,-0.71783447265625,-0.43115234375,-0.21875,-0.8984375,0.39501953125,-19.0625,2.6875,-6.875
0.6650000000000005,4.0,0.0,-4.0,-2.0,1.0,1.0,-8.0,-3.0,0.33984375,0.42822265625,-0.71783447265625,-0.43115234375,-0.21875,-0.8984375,0.39501953125,-19.0625,2.6875,-6.875
0.6700000000000005,4.0,0.0,-4.0,-2.0,1.0,1.0,-8.0,-3.0,0.33984375,0.42822265625,-0.71783447265625,-0.43115234375,-0.21875,-0.8984375,0.39501953125,-19.0625,2.6875,-6.875
0.6750000000000005,4.0,0.0,-4.0,-2.0,1.0,1.0,-8.0,-3.0,0.33984375,0.42822265625,-0.71783447265625,-0.43115234375,-0.21875,-0.8984375,0.39501953125,-19.0625,2.6875,-6.875
0.6800000000000005,4.0,0.0,-4.0,-2.0,1.0,1.0,-8.0,-3.0,0.33984375,0.42822265625,-0.71783447265625,-0.43115234375,-0.21875,-0.8984375,0.39501953125,-19.0625,2.6875,-6.875
0.6850000000000005,4.0,0.0,-4.0,-2.0,1.0,1.0,-8.0,-3.0,0.33984375,0.42822265625,-0.71783447265625,-0.43115234375,-0.21875,-0.8984375,0.39501953125,-19.0625,2.6875,-6.875
0.6900000000000005,-4.0,-1.0,-3.0,-1.0,9.0,24.0,11.0,-1.0,0.341064453125,0.43060302734375,-0.71624755859375,-0.43048095703125,-0.22900390625,-0.9189453125,0.4248046875,-19.625,-2.1875,-9.75
0.6950000000000005,-4.0,-1.0,-3.0,-1.0,9.0,24.0,11.0,-1.0,0.341064453125,0.43060302734375,-0.71624755859375,-0.43048095703125,-0.22900390625,-0.9189453125,0.4248046875,-19.625,-2.1875,-9.75
0.7000000000000005,8.0,0.0,5.0,-3.0,-2.0,4.0,1.0,4.0,0.34136962890625,0.43304443359375,-0.715087890625,-0.4296875,-0.23388671875,-0.9326171875,0.44921875,-18.3125,-7.625,-11.1875
0.7050000000000005,8.0,0.0,5.0,-3.0,-2.0,4.0,1.0,4.0,0.34136962890625,0.43304443359375,-0.715087890625,-0.4296875,-0.23388671875,-0.9326171875,0.44921875,-18.3125,-7.625,-11.1875
0.7100000000000005,8.0,0.0,5.0,-3.0,-2.0,4.0,1.0,4.0,0.34136962890625,0.43304443359375,-0.715087890625,-0.4296875,-0.23388671875,-0.9326171875,0.44921875,-18.3125,-7.625,-11.1875
0.7150000000000005,8.0,0.0,5.0,-3.0,-2.0,4.0,1.0,4.0,0.34136962890625,0.43304443359375,-0.715087890625,-0.4296875,-0.23388671875,-0.9326171875,0.44921875,-18.3125,-7.625,-11.1875
0.7200000000000005,-2.0,-2.0,-3.0,-13.0,0.0,7.0,3.0,0.0,0.34136962890625,0.43304443359375,-0.715087890625,-0.4296875,-0.23388671875,-0.9326171875,0.44921875,-18.3125,-7.625,-11.1875
0.7250000000000005,-2.0,-2.0,-3.0,-13.0,0.0,7.0,3.0,0.0,0.34088134765625,0.43597412109375,-0.7142333984375,-0.428466796875,-0.228515625,-0.95068359375,0.4521484375,-18.625,-13.0625,-11.0625
0.7300000000000005,-2.0,-2.0,-3.0,-13.0,0.0,7.0,3.0,0.0,0.34088134765625,0.43597412109375,-0.7142333984375,-0.428466796875,-0.228515625,-0.95068359375,0.4521484375,-18.625,-13.0625,-11.0625
0.7350000000000005,-1.0,0.0,-4.0,-1.0,5.0,9.0,2.0,1.0,0.34088134765625,0.43597412109375,-0.7142333984375,-0.428466796875,-0.228515625,-0.95068359375,0.4521484375,-18.625,-13.0625,-11.0625
0.7400000000000005,-1.0,0.0,-4.0,-1.0,5.0,9.0,2.0,1.0,0.34088134765625,0.43597412109375,-0.7142333984375,-0.428466796875,-0.228515625,-0.95068359375,0.4521484375,-18.625,-13.0625,-11.0625
0.7450000000000006,-3.0,-3.0,-2.0,-6.0,8.0,-11.0,-4.0,-2.0,0.34088134765625,0.43597412109375,-0.7142333984375,-0.428466796875,-0.228515625,-0.95068359375,0.4521484375,-18.625,-13.0625,-11.0625
0.7500000000000006,-3.0,-3.0,-2.0,-6.0,8.0,-11.0,-4.0,-2.0,0.34088134765625,0.43597412109375,-0.7142333984375,-0.428466796875,-0.228515625,-0.95068359375,0.4521484375,-18.625,-13.0625,-11.0625
0.7550000000000006,-3.0,-3.0,-2.0,-6.0,8.0,-11.0,-4.0,-2.0,0.34088134765625,0.43597412109375,-0.7142333984375,-0.428466796875,-0.228515625,-0.95068359375,0.4521484375,-18.625,-13.0625,-11.0625
0.7600000000000006,-3.0,-3.0,-2.0,-6.0,8.0,-11.0,-4.0,-2.0,0.3397216796875,0.4388427734375,-0.7139892578125,-0.42694091796875,-0.22509765625,-0.95166015625,0.45556640625,-16.375,-17.8125,-10.125
0.7650000000000006,-3.0,-3.0,-2.0,-6.0,8.0,-11.0,-4.0,-2.0,0.3397216796875,0.4388427734375,-0.7139892578125,-0.42694091796875,-0.22509765625,-0.95166015625,0.45556640625,-16.375,-17.8125,-10.125
0.7700000000000006,-3.0,-3.0,-2.0,-6.0,8.0,-11.0,-4.0,-2.0,0.3397216796875,0.4388427734375,-0.7139892578125,-0.42694091796875,-0.22509765625,-0.95166015625,0.45556640625,-16.375,-17.8125,-10.125
0.7750000000000006,-3.0,-3.0,-2.0,-6.0,8.0,-11.0,-4.0,-2.0,0.3397216796875,0.4388427734375,-0.7139892578125,-0.42694091796875,-0.22509765625,-0.95166015625,0.45556640625,-16.375,-17.8125,-10.125
0.7800000000000006,-2.0,0.0,-1.0,7.0,-1.0,4.0,-1.0,0.0,0.3380126953125,0.44171142578125,-0.71417236328125,-0.42498779296875,-0.20361328125,-0.935546875,0.44580078125,-14.5625,-21.5,-7.625
0.7850000000000006,-2.0,0.0,-1.0,7.0,-1.0,4.0,-1.0,0.0,0.3380126953125,0.44171142578125,-0.71417236328125,-0.42498779296875,-0.20361328125,-0.935546875,0.44580078125,-14.5625,-21.5,-7.625
0.7900000000000006,-2.0,0.0,-1.0,7.0,-1.0,4.0,-1.0,0.0,0.3380126953125,0.44171142578125,-0.71417236328125,-0.42498779296875,-0.20361328125,-0.935546875,0.44580078125,-14.5625,-21.5,-7.625
0.7950000000000006,-2.0,0.0,-1.0,7.0,-1.0,4.0,-1.0,0.0,0.3380126953125,0.44171142578125,-0.71417236328125,-0.42498779296875,-0.20361328125,-0.935546875,0.44580078125,-14.5625,-21.5,-7.625
0.8000000000000006,-5.0,-4.0,-3.0,-12.0,1.0,15.0,6.0,0.0,0.3380126953125,0.44171142578125,-0.71417236328125,-0.42498779296875,-0.20361328125,-0.935546875,0.44580078125,-14.5625,-21.5,-7.625
0.8050000000000006,-5.0,-4.0,-3.0,-12.0,1.0,15.0,6.0,0.0,0.3363037109375,0.44439697265625,-0.714599609375,-0.42279052734375,-0.19287109375,-0.900390625,0.4248046875,-13.4375,-21.875,-5.375
0.8100000000000006,-5.0,-4.0,-3.0,-12.0,1.0,15.0,6.0,0.0,0.3363037109375,0.44439697265625,-0.714599609375,-0.42279052734375,-0.19287109375,-0.900390625,0.4248046875,-13.4375,-21.875,-5.375
0.8150000000000006,6.0,1.0,3.0,-6.0,-3.0,17.0,3.0,3.0,0.3363037109375,0.44439697265625,-0.714599609375,-0.42279052734375,-0.19287109375,-0.900390625,0.4248046875,-13.4375,-21.875,-5.375
0.8200000000000006,6.0,1.0,3.0,-6.0,-3.0,17.0,3.0,3.0,0.3363037109375,0.44439697265625,-0.714599609375,-0.42279052734375,-0.19287109375,-0.900390625,0.4248046875,-13.4375,-21.875,-5.375
0.8250000000000006,-6.0,0.0,3.0,-5.0,3.0,-15.0,-8.0,-2.0,0.3363037109375,0.44439697265625,-0.714599609375,-0.42279052734375,-0.19287109375,-0.900390625,0.4248046875,-13.4375,-21.875,-5.375
0.8300000000000006,-6.0,0.0,3.0,-5.0,3.0,-15.0,-8.0,-2.0,0.3363037109375,0.44439697265625,-0.714599609375,-0.42279052734375,-0.19287109375,-0.900390625,0.4248046875,-13.4375,-21.875,-5.375
0.8350000000000006,-6.0,0.0,3.0,-5.0,3.0,-15.0,-8.0,-2.0,0.33526611328125,0.44744873046875,-0.7147216796875,-0.420166015625,-0.18798828125,-0.8818359375,0.3857421875,-16.625,-20.875,-3.25
0.8400000000000006,-6.0,0.0,3.0,-5.0,3.0,-15.0,-8.0,-2.0,0.33526611328125,0.44744873046875,-0.7147216796875,-0.420166015625,-0.18798828125,-0.8818359375,0.3857421875,-16.625,-20.875,-3.25
0.8450000000000006,-1.0,-3.0,-18.0,-51.0,-18.0,-54.0,-4.0,-1.0,0.33526611328125,0.44744873046875,-0.7147216796875,-0.420166015625,-0.18798828125,-0.8818359375,0.3857421875,-16.625,-20.875,-3.25
0.8500000000000006,-1.0,-3.0,-18.0,-51.0,-18.0,-54.0,-4.0,-1.0,0.33526611328125,0.44744873046875,-0.7147216796875,-0.420166015625,-0.18798828125,-0.8818359375,0.3857421875,-16.625,-20.875,-3.25
0.8550000000000006,-1.0,-3.0,-18.0,-51.0,-18.0,-54.0,-4.0,-1.0,0.33526611328125,0.44744873046875,-0.7147216796875,-0.420166015625,-0.18798828125,-0.8818359375,0.3857421875,-16.625,-20.875,-3.25
0.8600000000000007,-2.0,-2.0,-2.0,8.0,10.0,22.0,8.0,-1.0,0.3348388671875,0.4508056640625,-0.71435546875,-0.41754150390625,-0.18994140625,-0.89453125,0.36376953125,-19.125,-18.0625,-3.6875
0.8650000000000007,-2.0,-2.0,-2.0,8.0,10.0,22.0,8.0,-1.0,0.3348388671875,0.4508056640625,-0.71435546875,-0.41754150390625,-0.18994140625,-0.89453125,0.36376953125,-19.125,-18.0625,-3.6875
0.8700000000000007,-2.0,-2.0,-2.0,8.0,10.0,22.0,8.0,-1.0,0.3348388671875,0.4508056640625,-0.71435546875,-0.41754150390625,-0.18994140625,-0.89453125,0.36376953125,-19.125,-18.0625,-3.6875
0.8750000000000007,1.0,0.0,-2.0,-10.0,-6.0,13.0,-4.0,-2.0,0.3348388671875,0.4508056640625,-0.71435546875,-0.41754150390625,-0.18994140625,-0.89453125,0.36376953125,-19.125,-18.0625,-3.6875
0.8800000000000007,-1.0,-1.0,1.0,0.0,14.0,-2.0,0.0,-1.0,0.3348388671875,0.4508056640625,-0.71435546875,-0.41754150390625,-0.18994140625,-0.89453125,0.36376953125,-19.125,-18.0625,-3.6875
0.8850000000000007,-1.0,-1.0,1.0,0.0,14.0,-2.0,0.0,-1.0,0.3345947265625,0.4541015625,-0.71356201171875,-0.41558837890625,-0.18212890625,-0.89208984375,0.34716796875,-18.625,-14.625,-6.375
0.8900000000000007,-1.0,-1.0,1.0,0.0,14.0,-2.0,0.0,-1.0,0.3345947265625,0.4541015625,-0.71356201171875,-0.41558837890625,-0.18212890625,-0.89208984375,0.34716796875,-18.625,-14.625,-6.375
0.8950000000000007,-1.0,-1.0,1.0,0.0,14.0,-2.0,0.0,-1.0,0.3345947265625,0.4541015625,-0.71356201171875,-0.41558837890625,-0.18212890625,-0.89208984375,0.34716796875,-18.625,-14.625,-6.375
0.9000000000000007,6.0,1.0,4.0,18.0,-1.0,6.0,-4.0,-1.0,0.3345947265625,0.4541015625,-0.71356201171875,-0.41558837890625,-0.18212890625,-0.89208984375,0.34716796875,-18.625,-14.625,-6.375
0.9050000000000007,3.0,1.0,2.0,13.0,-8.0,-7.0,-7.0,-3.0,0.3345947265625,0.4541015625,-0.71356201171875,-0.41558837890625,-0.18212890625,-0.89208984375,0.34716796875,-18.625,-14.625,-6.375
0.9100000000000007,3.0,1.0,2.0,13.0,-8.0,-7.0,-7.0,-3.0,0.3345947265625,0.4541015625,-0.71356201171875,-0.41558837890625,-0.18212890625,-0.89208984375,0.34716796875,-18.625,-14.625,-6.375
0.9150000000000007,3.0,1.0,2.0,13.0,-8.0,-7.0,-7.0,-3.0,0.33453369140625,0.45758056640625,-0.71240234375,-0.41375732421875,-0.171875,-0.89404296875,0.341796875,-20.6875,-13.1875,-7.125
0.9200000000000007,1.0,-3.0,-5.0,-8.0,0.0,10.0,-4.0,-2.0,0.33453369140625,0.45758056640625,-0.71240234375,-0.41375732421875,-0.171875,-0.89404296875,0.341796875,-20.6875,-13.1875,-7.125
0.9250000000000007,-1.0,-2.0,4.0,13.0,2.0,21.0,3.0,0.0,0.33453369140625,0.45758056640625,-0.71240234375,-0.41375732421875,-0.171875,-0.89404296875,0.341796875,-20.6875,-13.1875,-7.125
0.9300000000000007,-1.0,-2.0,4.0,13.0,2.0,21.0,3.0,0.0,0.33489990234375,0.4613037109375,-0.71087646484375,-0.41192626953125,-0.16552734375,-0.8974609375,0.33935546875,-23.6875,-11.25,-7.25
0.9350000000000007,-1.0,-2.0,4.0,13.0,2.0,21.0,3.0,0.0,0.33489990234375,0.4613037109375,-0.71087646484375,-0.41192626953125,-0.16552734375,-0.8974609375,0.33935546875,-23.6875,-11.25,-7.25
0.9400000000000007,-1.0,-2.0,4.0,13.0,2.0,21.0,3.0,0.0,0.33489990234375,0.4613037109375,-0.71087646484375,-0.41192626953125,-0.16552734375,-0.8974609375,0.33935546875,-23.6875,-11.25,-7.25
0.9450000000000007,-4.0,-1.0,1.0,-6.0,1.0,-5.0,-1.0,-3.0,0.33489990234375,0.4613037109375,-0.71087646484375,-0.41192626953125,-0.16552734375,-0.8974609375,0.33935546875,-23.6875,-11.25,-7.25
0.9500000000000007,-4.0,-1.0,1.0,-6.0,1.0,-5.0,-1.0,-3.0,0.33538818359375,0.4652099609375,-0.709228515625,-0.4100341796875,-0.17138671875,-0.9013671875,0.34619140625,-26.125,-10.5,-7.8125
0.9550000000000007,-2.0,-1.0,-2.0,9.0,-1.0,7.0,18.0,0.0,0.33538818359375,0.4652099609375,-0.709228515625,-0.4100341796875,-0.17138671875,-0.9013671875,0.34619140625,-26.125,-10.5,-7.8125
0.9600000000000007,-2.0,-1.0,-2.0,9.0,-1.0,7.0,18.0,0.0,0.33538818359375,0.4652099609375,-0.709228515625,-0.4100341796875,-0.17138671875,-0.9013671875,0.34619140625,-26.125,-10.5,-7.8125
0.9650000000000007,3.0,-1.0,0.0,-9.0,-12.0,-13.0,-17.0,-5.0,0.33538818359375,0.4652099609375,-0.709228515625,-0.4100341796875,-0.17138671875,-0.9013671875,0.34619140625,-26.125,-10.5,-7.8125
0.9700000000000008,-1.0,-2.0,-8.0,-12.0,7.0,-3.0,4.0,-2.0,0.335693359375,0.46923828125,-0.70745849609375,-0.40826416015625,-0.15771484375,-0.9375,0.34228515625,-25.875,-11.3125,-8.125
0.9750000000000008,-1.0,-2.0,-8.0,-12.0,7.0,-3.0,4.0,-2.0,0.335693359375,0.46923828125,-0.70745849609375,-0.40826416015625,-0.15771484375,-0.9375,0.34228515625,-25.875,-11.3125,-8.125
0.9800000000000008,-1.0,-2.0,-8.0,-12.0,7.0,-3.0,4.0,-2.0,0.335693359375,0.46923828125,-0.70745849609375,-0.40826416015625,-0.15771484375,-0.9375,0.34228515625,-25.875,-11.3125,-8.125
0.9850000000000008,-1.0,-2.0,-8.0,-12.0,7.0,-3.0,4.0,-2.0,0.335693359375,0.46923828125,-0.70745849609375,-0.40826416015625,-0.15771484375,-0.9375,0.34228515625,-25.875,-11.3125,-8.125
0.9900000000000008,-1.0,-2.0,-8.0,-12.0,7.0,-3.0,4.0,-2.0,0.335693359375,0.46923828125,-0.70745849609375,-0.40826416015625,-0.15771484375,-0.9375,0.34228515625,-25.875,-11.3125,-8.125
0.9950000000000008,-3.0,-5.0,-13.0,-22.0,-10.0,-4.0,-9.0,-4.0,0.33575439453125,0.4727783203125,-0.70599365234375,-0.4066162109375,-0.14697265625,-0.9375,0.33837890625,-22.25,-10.8125,-7.3125
1.0000000000000007,-3.0,-5.0,-13.0,-22.0,-10.0,-4.0,-9.0,-4.0,0.33575439453125,0.4727783203125,-0.70599365234375,-0.4066162109375,-0.14697265625,-0.9375,0.33837890625,-22.25,-10.8125,-7.3125
1.0050000000000006,-5.0,-2.0,-9.0,-11.0,5.0,52.0,5.0,-5.0,0.33575439453125,0.4727783203125,-0.70599365234375,-0.4066162109375,-0.14697265625,-0.9375,0.33837890625,-22.25,-10.8125,-7.3125
1.0100000000000005,-5.0,-2.0,-9.0,-11.0,5.0,52.0,5.0,-5.0,0.33575439453125,0.4727783203125,-0.70599365234375,-0.4066162109375,-0.14697265625,-0.9375,0.33837890625,-22.25,-10.8125,-7.3125
1.0150000000000003,1.0,2.0,5.0,0.0,-7.0,-40.0,-8.0,0.0,0.3358154296875,0.47607421875,-0.70458984375,-0.4051513671875,-0.1240234375,-0.93798828125,0.3349609375,-21.5625,-9.5,-6.0625
1.0200000000000002,-2.0,0.0,8.0,10.0,-2.0,3.0,-5.0,-1.0,0.3358154296875,0.47607421875,-0.70458984375,-0.4051513671875,-0.1240234375,-0.93798828125,0.3349609375,-21.5625,-9.5,-6.0625
1.0250000000000001,-3.0,-2.0,-5.0,7.0,1.0,12.0,16.0,-2.0,0.3358154296875,0.47607421875,-0.70458984375,-0.4051513671875,-0.1240234375,-0.93798828125,0.3349609375,-21.5625,-9.5,-6.0625
1.03,-3.0,-2.0,-5.0,7.0,1.0,12.0,16.0,-2.0,0.3358154296875,0.47607421875,-0.70458984375,-0.4051513671875,-0.1240234375,-0.93798828125,0.3349609375,-21.5625,-9.5,-6.0625
1.035,-3.0,-2.0,-5.0,7.0,1.0,12.0,16.0,-2.0,0.3358154296875,0.47607421875,-0.70458984375,-0.4051513671875,-0.1240234375,-0.93798828125,0.3349609375,-21.5625,-9.5,-6.0625
1.0399999999999998,-3.0,-2.0,-5.0,7.0,1.0,12.0,16.0,-2.0,0.3358154296875,0.47607421875,-0.70458984375,-0.4051513671875,-0.1240234375,-0.93798828125,0.3349609375,-21.5625,-9.5,-6.0625
1.0449999999999997,-1.0,1.0,-1.0,-1.0,-1.0,-2.0,-4.0,-2.0,0.3359375,0.4791259765625,-0.7034912109375,-0.4033203125,-0.11328125,-0.95556640625,0.33154296875,-20.0,-9.9375,-2.5
1.0499999999999996,-1.0,-1.0,6.0,16.0,-6.0,-6.0,-6.0,1.0,0.33636474609375,0.48193359375,-0.70257568359375,-0.4012451171875,-0.0947265625,-0.939453125,0.31884765625,-19.5625,-9.0,1.625
1.0549999999999995,-1.0,-1.0,6.0,16.0,-6.0,-6.0,-6.0,1.0,0.33636474609375,0.48193359375,-0.70257568359375,-0.4012451171875,-0.0947265625,-0.939453125,0.31884765625,-19.5625,-9.0,1.625
1.0599999999999994,-1.0,-1.0,6.0,16.0,-6.0,-6.0,-6.0,1.0,0.33636474609375,0.48193359375,-0.70257568359375,-0.4012451171875,-0.0947265625,-0.939453125,0.31884765625,-19.5625,-9.0,1.625
1.0649999999999993,-1.0,-1.0,0.0,8.0,6.0,-5.0,-6.0,-1.0,0.33636474609375,0.48193359375,-0.70257568359375,-0.4012451171875,-0.0947265625,-0.939453125,0.31884765625,-19.5625,-9.0,1.625
1.0699999999999992,-1.0,-1.0,0.0,8.0,6.0,-5.0,-6.0,-1.0,0.33636474609375,0.48193359375,-0.70257568359375,-0.4012451171875,-0.0947265625,-0.939453125,0.31884765625,-19.5625,-9.0,1.625
1.074999999999999,0.0,0.0,-1.0,-11.0,-2.0,-3.0,1.0,0.0,0.33734130859375,0.484619140625,-0.70166015625,-0.39874267578125,-0.0888671875,-0.94775390625,0.29931640625,-20.25,-7.375,5.1875
1.079999999999999,3.0,-3.0,-4.0,-8.0,-4.0,6.0,-2.0,-1.0,0.33734130859375,0.484619140625,-0.70166015625,-0.39874267578125,-0.0888671875,-0.94775390625,0.29931640625,-20.25,-7.375,5.1875
1.0849999999999989,3.0,-3.0,-4.0,-8.0,-4.0,6.0,-2.0,-1.0,0.33734130859375,0.484619140625,-0.70166015625,-0.39874267578125,-0.0888671875,-0.94775390625,0.29931640625,-20.25,-7.375,5.1875
1.0899999999999987,3.0,1.0,2.0,8.0,0.0,-24.0,-3.0,-1.0,0.33734130859375,0.484619140625,-0.70166015625,-0.39874267578125,-0.0888671875,-0.94775390625,0.29931640625,-20.25,-7.375,5.1875
1.0949999999999986,0.0,-3.0,-7.0,-7.0,-6.0,22.0,1.0,1.0,0.33734130859375,0.484619140625,-0.70166015625,-0.39874267578125,-0.0888671875,-0.94775390625,0.29931640625,-20.25,-7.375,5.1875
1.0999999999999985,0.0,-3.0,-7.0,-7.0,-6.0,22.0,1.0,1.0,0.33868408203125,0.48724365234375,-0.70062255859375,-0.396240234375,-0.07861328125,-0.984375,0.294921875,-20.8125,-5.375,7.125
1.1049999999999984,-5.0,-2.0,0.0,-2.0,4.0,-8.0,-2.0,-3.0,0.33868408203125,0.48724365234375,-0.70062255859375,-0.396240234375,-0.07861328125,-0.984375,0.294921875,-20.8125,-5.375,7.125
1.1099999999999983,-5.0,-2.0,0.0,-2.0,4.0,-8.0,-2.0,-3.0,0.33868408203125,0.48724365234375,-0.70062255859375,-0.396240234375,-0.07861328125,-0.984375,0.294921875,-20.8125,-5.375,7.125
1.1149999999999982,0.0,-3.0,-7.0,-13.0,-13.0,18.0,5.0,-3.0,0.33868408203125,0.48724365234375,-0.70062255859375,-0.396240234375,-0.07861328125,-0.984375,0.294921875,-20.8125,-5.375,7.125
1.119999999999998,-1.0,0.0,6.0,11.0,-9.0,-25.0,1.0,-2.0,0.3399658203125,0.4898681640625,-0.699462890625,-0.39398193359375,-0.06787109375,-1.01220703125,0.30078125,-20.5,-4.25,6.75
1.124999999999998,-1.0,0.0,6.0,11.0,-9.0,-25.0,1.0,-2.0,0.3399658203125,0.4898681640625,-0.699462890625,-0.39398193359375,-0.06787109375,-1.01220703125,0.30078125,-20.5,-4.25,6.75
1.129999999999998,-1.0,0.0,6.0,11.0,-9.0,-25.0,1.0,-2.0,0.3399658203125,0.4898681640625,-0.699462890625,-0.39398193359375,-0.06787109375,-1.01220703125,0.30078125,-20.5,-4.25,6.75
1.1349999999999978,0.0,1.0,-5.0,8.0,1.0,10.0,-1.0,-1.0,0.3399658203125,0.4898681640625,-0.699462890625,-0.39398193359375,-0.06787109375,-1.01220703125,0.30078125,-20.5,-4.25,6.75
1.1399999999999977,-3.0,-4.0,-5.0,-16.0,-14.0,0.0,2.0,-2.0,0.3408203125,0.4923095703125,-0.6983642578125,-0.39215087890625,-0.04443359375,-1.0244140625,0.31103515625,-18.8125,-4.25,5.875
1.1449999999999976,-3.0,-4.0,-5.0,-16.0,-14.0,0.0,2.0,-2.0,0.3408203125,0.4923095703125,-0.6983642578125,-0.39215087890625,-0.04443359375,-1.0244140625,0.31103515625,-18.8125,-4.25,5.875
1.1499999999999975,-2.0,-4.0,-12.0,-6.0,-11.0,-20.0,0.0,-3.0,0.3408203125,0.4923095703125,-0.6983642578125,-0.39215087890625,-0.04443359375,-1.0244140625,0.31103515625,-18.8125,-4.25,5.875
1.1549999999999974,-3.0,-2.0,-1.0,5.0,4.0,-12.0,-9.0,-2.0,0.3408203125,0.4923095703125,-0.6983642578125,-0.39215087890625,-0.04443359375,-1.0244140625,0.31103515625,-18.8125,-4.25,5.875
1.1599999999999973,0.0,0.0,-1.0,2.0,-10.0,-9.0,-13.0,0.0,0.3408203125,0.4923095703125,-0.6983642578125,-0.39215087890625,-0.04443359375,-1.0244140625,0.31103515625,-18.8125,-4.25,5.875
1.1649999999999971,0.0,0.0,-1.0,2.0,-10.0,-9.0,-13.0,0.0,0.3408203125,0.4923095703125,-0.6983642578125,-0.39215087890625,-0.04443359375,-1.0244140625,0.31103515625,-18.8125,-4.25,5.875
1.169999999999997,0.0,0.0,-1.0,2.0,-10.0,-9.0,-13.0,0.0,0.34124755859375,0.4947509765625,-0.69732666015625,-0.390625,-0.02587890625,-1.00830078125,0.31884765625,-18.8125,-4.625,4.9375
1.174999999999997,0.0,1.0,7.0,7.0,2.0,-30.0,-8.0,4.0,0.34124755859375,0.4947509765625,-0.69732666015625,-0.390625,-0.02587890625,-1.00830078125,0.31884765625,-18.8125,-4.625,4.9375
1.1799999999999968,0.0,1.0,7.0,7.0,2.0,-30.0,-8.0,4.0,0.34124755859375,0.4947509765625,-0.69732666015625,-0.390625,-0.02587890625,-1.00830078125,0.31884765625,-18.8125,-4.625,4.9375
1.1849999999999967,1.0,-1.0,-4.0,7.0,1.0,-7.0,-4.0,-1.0,0.34124755859375,0.49676513671875,-0.69659423828125,-0.38934326171875,-0.0234375,-0.99365234375,0.328125,-15.4375,-5.1875,4.0625
1.1899999999999966,1.0,-1.0,-4.0,7.0,1.0,-7.0,-4.0,-1.0,0.34124755859375,0.49676513671875,-0.69659423828125,-0.38934326171875,-0.0234375,-0.99365234375,0.328125,-15.4375,-5.1875,4.0625
1.1949999999999965,-2.0,0.0,2.0,-9.0,-5.0,-16.0,-7.0,-3.0,0.34124755859375,0.49676513671875,-0.69659423828125,-0.38934326171875,-0.0234375,-0.99365234375,0.328125,-15.4375,-5.1875,4.0625
1.1999999999999964,-2.0,0.0,2.0,-9.0,-5.0,-16.0,-7.0,-3.0,0.34124755859375,0.49676513671875,-0.69659423828125,-0.38934326171875,-0.0234375,-0.99365234375,0.328125,-15.4375,-5.1875,4.0625
1.2049999999999963,-2.0,2.0,4.0,-22.0,-2.0,11.0,11.0,1.0,0.3408203125,0.4981689453125,-0.6964111328125,-0.38824462890625,-0.03369140625,-0.98681640625,0.34326171875,-11.875,-6.125,3.8125
1.2099999999999962,-2.0,2.0,4.0,-22.0,-2.0,11.0,11.0,1.0,0.3408203125,0.4981689453125,-0.6964111328125,-0.38824462890625,-0.03369140625,-0.98681640625,0.34326171875,-11.875,-6.125,3.8125
1.214999999999996,-2.0,2.0,4.0,-22.0,-2.0,11.0,11.0,1.0,0.3408203125,0.4981689453125,-0.6964111328125,-0.38824462890625,-0.03369140625,-0.98681640625,0.34326171875,-11.875,-6.125,3.8125
1.219999999999996,-4.0,-7.0,-21.0,3.0,1.0,0.0,-12.0,-3.0,0.3408203125,0.4981689453125,-0.6964111328125,-0.38824462890625,-0.03369140625,-0.98681640625,0.34326171875,-11.875,-6.125,3.8125
1.2249999999999959,-2.0,-1.0,-9.0,-10.0,17.0,13.0,7.0,1.0,0.3408203125,0.4981689453125,-0.6964111328125,-0.38824462890625,-0.03369140625,-0.98681640625,0.34326171875,-11.875,-6.125,3.8125
1.2299999999999958,-2.0,-1.0,-9.0,-10.0,17.0,13.0,7.0,1.0,0.33984375,0.49920654296875,-0.69659423828125,-0.3873291015625,-0.033203125,-0.97509765625,0.337890625,-7.6875,-7.75,3.0
1.2349999999999957,-2.0,-1.0,-9.0,-10.0,17.0,13.0,7.0,1.0,0.33984375,0.49920654296875,-0.69659423828125,-0.3873291015625,-0.033203125,-0.97509765625,0.337890625,-7.6875,-7.75,3.0
1.2399999999999956,1.0,0.0,2.0,7.0,0.0,-4.0,-4.0,-1.0,0.33984375,0.49920654296875,-0.69659423828125,-0.3873291015625,-0.033203125,-0.97509765625,0.337890625,-7.6875,-7.75,3.0
1.2449999999999954,1.0,0.0,2.0,7.0,0.0,-4.0,-4.0,-1.0,0.33984375,0.49920654296875,-0.69659423828125,-0.3873291015625,-0.033203125,-0.97509765625,0.337890625,-7.6875,-7.75,3.0
1.2499999999999953,1.0,0.0,2.0,7.0,0.0,-4.0,-4.0,-1.0,0.33984375,0.49920654296875,-0.69659423828125,-0.3873291015625,-0.033203125,-0.97509765625,0.337890625,-7.6875,-7.75,3.0
1.2549999999999952,-5.0,-3.0,-8.0,1.0,-22.0,-17.0,-6.0,-3.0,0.33868408203125,0.5001220703125,-0.697021484375,-0.386474609375,-0.02587890625,-0.9560546875,0.3212890625,-4.9375,-8.5625,3.3125
1.2599999999999951,-5.0,-3.0,-8.0,1.0,-22.0,-17.0,-6.0,-3.0,0.33868408203125,0.5001220703125,-0.697021484375,-0.386474609375,-0.02587890625,-0.9560546875,0.3212890625,-4.9375,-8.5625,3.3125
1.264999999999995,-5.0,-3.0,-8.0,1.0,-22.0,-17.0,-6.0,-3.0,0.33868408203125,0.5001220703125,-0.697021484375,-0.386474609375,-0.02587890625,-0.9560546875,0.3212890625,-4.9375,-8.5625,3.3125
1.269999999999995,-1.0,-4.0,-4.0,-1.0,4.0,33.0,3.0,2.0,0.33868408203125,0.5001220703125,-0.697021484375,-0.386474609375,-0.02587890625,-0.9560546875,0.3212890625,-4.9375,-8.5625,3.3125
1.2749999999999948,-1.0,-4.0,-4.0,-1.0,4.0,33.0,3.0,2.0,0.33868408203125,0.5001220703125,-0.697021484375,-0.386474609375,-0.02587890625,-0.9560546875,0.3212890625,-4.9375,-8.5625,3.3125
1.2799999999999947,6.0,5.0,7.0,2.0,10.0,14.0,-3.0,1.0,0.33868408203125,0.5001220703125,-0.697021484375,-0.386474609375,-0.02587890625,-0.9560546875,0.3212890625,-4.9375,-8.5625,3.3125
1.2849999999999946,6.0,5.0,7.0,2.0,10.0,14.0,-3.0,1.0,0.33746337890625,0.5013427734375,-0.69720458984375,-0.38555908203125,-0.01904296875,-0.9609375,0.29931640625,-5.4375,-9.0625,2.5
1.2899999999999945,6.0,5.0,7.0,2.0,10.0,14.0,-3.0,1.0,0.33746337890625,0.5013427734375,-0.69720458984375,-0.38555908203125,-0.01904296875,-0.9609375,0.29931640625,-5.4375,-9.0625,2.5
1.2949999999999944,6.0,5.0,7.0,2.0,10.0,14.0,-3.0,1.0,0.33746337890625,0.5013427734375,-0.69720458984375,-0.38555908203125,-0.01904296875,-0.9609375,0.29931640625,-5.4375,-9.0625,2.5
1.2999999999999943,-3.0,-2.0,-2.0,3.0,-1.0,-23.0,-9.0,-2.0,0.33746337890625,0.5013427734375,-0.69720458984375,-0.38555908203125,-0.01904296875,-0.9609375,0.29931640625,-5.4375,-9.0625,2.5
1.3049999999999942,-3.0,-2.0,-2.0,3.0,-1.0,-23.0,-9.0,-2.0,0.33746337890625,0.5013427734375,-0.69720458984375,-0.38555908203125,-0.01904296875,-0.9609375,0.29931640625,-5.4375,-9.0625,2.5
1.309999999999994,-3.0,-2.0,-2.0,3.0,-1.0,-23.0,-9.0,-2.0,0.33636474609375,0.5028076171875,-0.69708251953125,-0.38482666015625,-0.00732421875,-0.9609375,0.26904296875,-5.5,-8.0,1.625
1.314999999999994,-3.0,-2.0,-2.0,3.0,-1.0,-23.0,-9.0,-2.0,0.33636474609375,0.5028076171875,-0.69708251953125,-0.38482666015625,-0.00732421875,-0.9609375,0.26904296875,-5.5,-8.0,1.625
1.3199999999999938,5.0,1.0,5.0,-5.0,3.0,13.0,2.0,1.0,0.33636474609375,0.5028076171875,-0.69708251953125,-0.38482666015625,-0.00732421875,-0.9609375,0.26904296875,-5.5,-8.0,1.625
1.3249999999999937,5.0,1.0,5.0,-5.0,3.0,13.0,2.0,1.0,0.33636474609375,0.5028076171875,-0.69708251953125,-0.38482666015625,-0.00732421875,-0.9609375,0.26904296875,-5.5,-8.0,1.625
1.3299999999999936,-2.0,-5.0,-7.0,-13.0,-9.0,4.0,-2.0,-3.0,0.3353271484375,0.504150390625,-0.69683837890625,-0.38446044921875,0.00146484375,-0.95947265625,0.26220703125,-4.1875,-6.4375,0.875
1.3349999999999935,-2.0,-5.0,-7.0,-13.0,-9.0,4.0,-2.0,-3.0,0.3353271484375,0.504150390625,-0.69683837890625,-0.38446044921875,0.00146484375,-0.95947265625,0.26220703125,-4.1875,-6.4375,0.875
1.3399999999999934,-2.0,-5.0,-7.0,-13.0,-9.0,4.0,-2.0,-3.0,0.3353271484375,0.504150390625,-0.69683837890625,-0.38446044921875,0.00146484375,-0.95947265625,0.26220703125,-4.1875,-6.4375,0.875
1.3449999999999933,-2.0,-5.0,-7.0,-13.0,-9.0,4.0,-2.0,-3.0,0.3353271484375,0.504150390625,-0.69683837890625,-0.38446044921875,0.00146484375,-0.95947265625,0.26220703125,-4.1875,-6.4375,0.875
1.3499999999999932,-1.0,1.0,3.0,7.0,1.0,-11.0,8.0,2.0,0.3353271484375,0.504150390625,-0.69683837890625,-0.38446044921875,0.00146484375,-0.95947265625,0.26220703125,-4.1875,-6.4375,0.875
1.354999999999993,-1.0,1.0,3.0,7.0,1.0,-11.0,8.0,2.0,0.3353271484375,0.504150390625,-0.69683837890625,-0.38446044921875,0.00146484375,-0.95947265625,0.26220703125,-4.1875,-6.4375,0.875
1.359999999999993,-1.0,1.0,3.0,7.0,1.0,-11.0,8.0,2.0,0.3353271484375,0.504150390625,-0.69683837890625,-0.38446044921875,0.00146484375,-0.95947265625,0.26220703125,-4.1875,-6.4375,0.875
1.3649999999999929,-1.0,1.0,3.0,7.0,1.0,-11.0,8.0,2.0,0.3353271484375,0.504150390625,-0.69683837890625,-0.38446044921875,0.00146484375,-0.95947265625,0.26220703125,-4.1875,-6.4375,0.875
1.3699999999999928,-4.0,-3.0,-3.0,-5.0,3.0,-5.0,-6.0,-2.0,0.334716796875,0.5059814453125,-0.69622802734375,-0.38360595703125,-0.00830078125,-0.951171875,0.2333984375,-7.5,-6.5625,1.3125
1.3749999999999927,-4.0,-3.0,-3.0,-5.0,3.0,-5.0,-6.0,-2.0,0.334716796875,0.5059814453125,-0.69622802734375,-0.38360595703125,-0.00830078125,-0.951171875,0.2333984375,-7.5,-6.5625,1.3125
1.3799999999999926,11.0,3.0,2.0,9.0,8.0,9.0,-5.0,2.0,0.334716796875,0.5059814453125,-0.69622802734375,-0.38360595703125,-0.00830078125,-0.951171875,0.2333984375,-7.5,-6.5625,1.3125
1.3849999999999925,11.0,3.0,2.0,9.0,8.0,9.0,-5.0,2.0,0.334716796875,0.5059814453125,-0.69622802734375,-0.38360595703125,-0.00830078125,-0.951171875,0.2333984375,-7.5,-6.5625,1.3125
1.3899999999999924,11.0,3.0,2.0,9.0,8.0,9.0,-5.0,2.0,0.33447265625,0.5084228515625,-0.69512939453125,-0.38275146484375,-0.01025390625,-0.955078125,0.2138671875,-11.3125,-5.5625,0.125
1.3949999999999922,11.0,3.0,2.0,9.0,8.0,9.0,-5.0,2.0,0.33447265625,0.5084228515625,-0.69512939453125,-0.38275146484375,-0.01025390625,-0.955078125,0.2138671875,-11.3125,-5.5625,0.125
1.3999999999999921,-6.0,-6.0,-8.0,-29.0,-8.0,-6.0,-12.0,-3.0,0.33447265625,0.5084228515625,-0.69512939453125,-0.38275146484375,-0.01025390625,-0.955078125,0.2138671875,-11.3125,-5.5625,0.125
1.404999999999992,-6.0,-6.0,-8.0,-29.0,-8.0,-6.0,-12.0,-3.0,0.33447265625,0.5084228515625,-0.69512939453125,-0.38275146484375,-0.01025390625,-0.955078125,0.2138671875,-11.3125,-5.5625,0.125
1.409999999999992,0.0,2.0,9.0,8.0,3.0,3.0,-4.0,-2.0,0.334716796875,0.511474609375,-0.69329833984375,-0.3817138671875,-0.01708984375,-0.98095703125,0.20361328125,-16.4375,-4.6875,-1.3125
1.4149999999999918,0.0,2.0,9.0,8.0,3.0,3.0,-4.0,-2.0,0.334716796875,0.511474609375,-0.69329833984375,-0.3817138671875,-0.01708984375,-0.98095703125,0.20361328125,-16.4375,-4.6875,-1.3125
1.4199999999999917,0.0,2.0,9.0,8.0,3.0,3.0,-4.0,-2.0,0.334716796875,0.511474609375,-0.69329833984375,-0.3817138671875,-0.01708984375,-0.98095703125,0.20361328125,-16.4375,-4.6875,-1.3125
1.4249999999999916,-2.0,-2.0,-3.0,-1.0,-3.0,-15.0,-11.0,-4.0,0.334716796875,0.511474609375,-0.69329833984375,-0.3817138671875,-0.01708984375,-0.98095703125,0.20361328125,-16.4375,-4.6875,-1.3125
1.4299999999999915,-2.0,-2.0,-3.0,-1.0,-3.0,-15.0,-11.0,-4.0,0.334716796875,0.511474609375,-0.69329833984375,-0.3817138671875,-0.01708984375,-0.98095703125,0.20361328125,-16.4375,-4.6875,-1.3125
1.4349999999999914,-2.0,-2.0,-3.0,-1.0,-3.0,-15.0,-11.0,-4.0,0.334716796875,0.511474609375,-0.69329833984375,-0.3817138671875,-0.01708984375,-0.98095703125,0.20361328125,-16.4375,-4.6875,-1.3125
1.4399999999999913,-4.0,-3.0,-2.0,2.0,0.0,4.0,2.0,-3.0,0.3349609375,0.51483154296875,-0.6910400390625,-0.381103515625,-0.00927734375,-0.96435546875,0.18701171875,-17.875,-3.0,-4.0
1.4449999999999912,-4.0,-3.0,-2.0,2.0,0.0,4.0,2.0,-3.0,0.3349609375,0.51483154296875,-0.6910400390625,-0.381103515625,-0.00927734375,-0.96435546875,0.18701171875,-17.875,-3.0,-4.0
1.449999999999991,-4.0,-3.0,-2.0,2.0,0.0,4.0,2.0,-3.0,0.3349609375,0.51483154296875,-0.6910400390625,-0.381103515625,-0.00927734375,-0.96435546875,0.18701171875,-17.875,-3.0,-4.0
1.454999999999991,-1.0,-2.0,-2.0,-2.0,3.0,17.0,8.0,1.0,0.3349609375,0.51483154296875,-0.6910400390625,-0.381103515625,-0.00927734375,-0.96435546875,0.18701171875,-17.875,-3.0,-4.0
1.4599999999999909,-1.0,-2.0,-2.0,-2.0,3.0,17.0,8.0,1.0,0.3349609375,0.51483154296875,-0.6910400390625,-0.381103515625,-0.00927734375,-0.96435546875,0.18701171875,-17.875,-3.0,-4.0
1.4649999999999908,-1.0,-2.0,-2.0,-2.0,3.0,17.0,8.0,1.0,0.3349609375,0.51483154296875,-0.6910400390625,-0.381103515625,-0.00927734375,-0.96435546875,0.18701171875,-17.875,-3.0,-4.0
1.4699999999999906,-1.0,-2.0,-2.0,-2.0,3.0,17.0,8.0,1.0,0.3349609375,0.51483154296875,-0.6910400390625,-0.381103515625,-0.00927734375,-0.96435546875,0.18701171875,-17.875,-3.0,-4.0
1.4749999999999905,1.0,2.0,9.0,12.0,-14.0,2.0,-3.0,2.0,0.33502197265625,0.517822265625,-0.68902587890625,-0.38067626953125,-0.013671875,-0.92431640625,0.19140625,-16.1875,-3.0625,-5.0
1.4799999999999904,1.0,2.0,9.0,12.0,-14.0,2.0,-3.0,2.0,0.33502197265625,0.517822265625,-0.68902587890625,-0.38067626953125,-0.013671875,-0.92431640625,0.19140625,-16.1875,-3.0625,-5.0
1.4849999999999903,3.0,-5.0,2.0,14.0,5.0,-1.0,-2.0,5.0,0.33502197265625,0.517822265625,-0.68902587890625,-0.38067626953125,-0.013671875,-0.92431640625,0.19140625,-16.1875,-3.0625,-5.0
1.4899999999999902,3.0,-5.0,2.0,14.0,5.0,-1.0,-2.0,5.0,0.33514404296875,0.521240234375,-0.6865234375,-0.38037109375,-0.0078125,-0.92041015625,0.18994140625,-19.875,-2.375,-6.625
1.4949999999999901,3.0,-5.0,2.0,14.0,5.0,-1.0,-2.0,5.0,0.33514404296875,0.521240234375,-0.6865234375,-0.38037109375,-0.0078125,-0.92041015625,0.18994140625,-19.875,-2.375,-6.625
1.49999999999999,5.0,5.0,1.0,-4.0,16.0,4.0,7.0,0.0,0.33514404296875,0.521240234375,-0.6865234375,-0.38037109375,-0.0078125,-0.92041015625,0.18994140625,-19.875,-2.375,-6.625
1.50499999999999,5.0,5.0,1.0,-4.0,16.0,4.0,7.0,0.0,0.33514404296875,0.521240234375,-0.6865234375,-0.38037109375,-0.0078125,-0.92041015625,0.18994140625,-19.875,-2.375,-6.625
1.5099999999999898,-8.0,-1.0,4.0,7.0,-1.0,3.0,3.0,-3.0,0.33514404296875,0.521240234375,-0.6865234375,-0.38037109375,-0.0078125,-0.92041015625,0.18994140625,-19.875,-2.375,-6.625
1.5149999999999897,-8.0,-1.0,4.0,7.0,-1.0,3.0,3.0,-3.0,0.33514404296875,0.521240234375,-0.6865234375,-0.38037109375,-0.0078125,-0.92041015625,0.18994140625,-19.875,-2.375,-6.625
1.5199999999999896,-8.0,-1.0,4.0,7.0,-1.0,3.0,3.0,-3.0,0.33544921875,0.52484130859375,-0.68365478515625,-0.38031005859375,-0.0029296875,-0.94384765625,0.18408203125,-21.3125,-0.4375,-8.5
1.5249999999999895,1.0,0.0,1.0,-11.0,8.0,-9.0,-6.0,-1.0,0.33544921875,0.52484130859375,-0.68365478515625,-0.38031005859375,-0.0029296875,-0.94384765625,0.18408203125,-21.3125,-0.4375,-8.5
1.5299999999999894,1.0,0.0,1.0,-11.0,8.0,-9.0,-6.0,-1.0,0.33544921875,0.52484130859375,-0.68365478515625,-0.38031005859375,-0.0029296875,-0.94384765625,0.18408203125,-21.3125,-0.4375,-8.5
1.5349999999999893,1.0,0.0,1.0,-11.0,8.0,-9.0,-6.0,-1.0,0.33544921875,0.52484130859375,-0.68365478515625,-0.38031005859375,-0.0029296875,-0.94384765625,0.18408203125,-21.3125,-0.4375,-8.5
1.5399999999999892,2.0,-3.0,0.0,14.0,29.0,11.0,9.0,3.0,0.3359375,0.5281982421875,-0.68072509765625,-0.38043212890625,-0.01416015625,-0.9599609375,0.18408203125,-20.8125,0.9375,-8.8125
1.544999999999989,2.0,-3.0,0.0,14.0,29.0,11.0,9.0,3.0,0.3359375,0.5281982421875,-0.68072509765625,-0.38043212890625,-0.01416015625,-0.9599609375,0.18408203125,-20.8125,0.9375,-8.8125
1.549999999999989,-3.0,-1.0,-3.0,1.0,-12.0,-17.0,-9.0,-5.0,0.33673095703125,0.5316162109375,-0.67767333984375,-0.3804931640625,-0.0244140625,-0.9755859375,0.16796875,-21.4375,1.9375,-9.3125
1.5549999999999888,-3.0,-1.0,-3.0,1.0,-12.0,-17.0,-9.0,-5.0,0.33673095703125,0.5316162109375,-0.67767333984375,-0.3804931640625,-0.0244140625,-0.9755859375,0.16796875,-21.4375,1.9375,-9.3125
1.5599999999999887,-3.0,-1.0,-3.0,1.0,-12.0,-17.0,-9.0,-5.0,0.33673095703125,0.5316162109375,-0.67767333984375,-0.3804931640625,-0.0244140625,-0.9755859375,0.16796875,-21.4375,1.9375,-9.3125
1.5649999999999886,-2.0,-4.0,-3.0,-5.0,-3.0,-9.0,0.0,1.0,0.33673095703125,0.5316162109375,-0.67767333984375,-0.3804931640625,-0.0244140625,-0.9755859375,0.16796875,-21.4375,1.9375,-9.3125
1.5699999999999885,-1.0,1.0,-1.0,-9.0,-4.0,-4.0,3.0,-3.0,0.33673095703125,0.5316162109375,-0.67767333984375,-0.3804931640625,-0.0244140625,-0.9755859375,0.16796875,-21.4375,1.9375,-9.3125
1.5749999999999884,-2.0,0.0,3.0,17.0,5.0,8.0,6.0,-1.0,0.3380126953125,0.5352783203125,-0.67437744140625,-0.3800048828125,-0.03515625,-0.98681640625,0.16455078125,-25.6875,1.8125,-7.5625
1.5799999999999883,-2.0,0.0,3.0,17.0,5.0,8.0,6.0,-1.0,0.3380126953125,0.5352783203125,-0.67437744140625,-0.3800048828125,-0.03515625,-0.98681640625,0.16455078125,-25.6875,1.8125,-7.5625
1.5849999999999882,-2.0,0.0,3.0,17.0,5.0,8.0,6.0,-1.0,0.3380126953125,0.5352783203125,-0.67437744140625,-0.3800048828125,-0.03515625,-0.98681640625,0.16455078125,-25.6875,1.8125,-7.5625
1.589999999999988,2.0,2.0,-2.0,8.0,8.0,-4.0,0.0,3.0,0.3380126953125,0.5352783203125,-0.67437744140625,-0.3800048828125,-0.03515625,-0.98681640625,0.16455078125,-25.6875,1.8125,-7.5625
1.594999999999988,-3.0,-1.0,2.0,11.0,-13.0,-2.0,-6.0,-2.0,0.3380126953125,0.5352783203125,-0.67437744140625,-0.3800048828125,-0.03515625,-0.98681640625,0.16455078125,-25.6875,1.8125,-7.5625
1.5999999999999879,-3.0,-1.0,2.0,11.0,-13.0,-2.0,-6.0,-2.0,0.3380126953125,0.5352783203125,-0.67437744140625,-0.3800048828125,-0.03515625,-0.98681640625,0.16455078125,-25.6875,1.8125,-7.5625
1.6049999999999878,-3.0,-1.0,2.0,11.0,-13.0,-2.0,-6.0,-2.0,0.3380126953125,0.5352783203125,-0.67437744140625,-0.3800048828125,-0.03515625,-0.98681640625,0.16455078125,-25.6875,1.8125,-7.5625
1.6099999999999877,1.0,-1.0,0.0,-1.0,-3.0,10.0,-5.0,0.0,0.34002685546875,0.5394287109375,-0.670654296875,-0.37896728515625,-0.04052734375,-1.0009765625,0.16845703125,-32.3125,2.75,-5.5625
1.6149999999999876,1.0,-1.0,0.0,-1.0,-3.0,10.0,-5.0,0.0,0.34002685546875,0.5394287109375,-0.670654296875,-0.37896728515625,-0.04052734375,-1.0009765625,0.16845703125,-32.3125,2.75,-5.5625
1.6199999999999875,-2.0,0.0,-2.0,-9.0,-3.0,-4.0,-9.0,-4.0,0.34228515625,0.54339599609375,-0.6669921875,-0.37774658203125,-0.0537109375,-1.00439453125,0.18896484375,-34.75,3.625,-4.5
1.6249999999999873,-2.0,0.0,-2.0,-9.0,-3.0,-4.0,-9.0,-4.0,0.34228515625,0.54339599609375,-0.6669921875,-0.37774658203125,-0.0537109375,-1.00439453125,0.18896484375,-34.75,3.625,-4.5
1.6299999999999872,10.0,-2.0,-5.0,1.0,-3.0,-4.0,-1.0,2.0,0.34228515625,0.54339599609375,-0.6669921875,-0.37774658203125,-0.0537109375,-1.00439453125,0.18896484375,-34.75,3.625,-4.5
1.6349999999999871,10.0,-2.0,-5.0,1.0,-3.0,-4.0,-1.0,2.0,0.34228515625,0.54339599609375,-0.6669921875,-0.37774658203125,-0.0537109375,-1.00439453125,0.18896484375,-34.75,3.625,-4.5
1.639999999999987,1.0,-2.0,-6.0,-28.0,4.0,4.0,13.0,3.0,0.3446044921875,0.54705810546875,-0.66375732421875,-0.3760986328125,-0.07666015625,-1.001953125,0.205078125,-35.0,1.875,-2.625
1.644999999999987,1.0,-2.0,-6.0,-28.0,4.0,4.0,13.0,3.0,0.3446044921875,0.54705810546875,-0.66375732421875,-0.3760986328125,-0.07666015625,-1.001953125,0.205078125,-35.0,1.875,-2.625
1.6499999999999868,1.0,-2.0,-6.0,-28.0,4.0,4.0,13.0,3.0,0.3446044921875,0.54705810546875,-0.66375732421875,-0.3760986328125,-0.07666015625,-1.001953125,0.205078125,-35.0,1.875,-2.625
1.6549999999999867,5.0,-1.0,-1.0,2.0,15.0,16.0,9.0,5.0,0.3446044921875,0.54705810546875,-0.66375732421875,-0.3760986328125,-0.07666015625,-1.001953125,0.205078125,-35.0,1.875,-2.625
1.6599999999999866,-3.0,-3.0,-4.0,-3.0,-16.0,-15.0,-6.0,-3.0,0.34674072265625,0.55035400390625,-0.66107177734375,-0.3740234375,-0.09130859375,-0.99560546875,0.2216796875,-34.5,-0.4375,-0.875
1.6649999999999865,-3.0,-3.0,-4.0,-3.0,-16.0,-15.0,-6.0,-3.0,0.34674072265625,0.55035400390625,-0.66107177734375,-0.3740234375,-0.09130859375,-0.99560546875,0.2216796875,-34.5,-0.4375,-0.875
1.6699999999999864,-5.0,-1.0,1.0,8.0,7.0,2.0,12.0,1.0,0.34674072265625,0.55035400390625,-0.66107177734375,-0.3740234375,-0.09130859375,-0.99560546875,0.2216796875,-34.5,-0.4375,-0.875
1.6749999999999863,-5.0,-1.0,1.0,8.0,7.0,2.0,12.0,1.0,0.34674072265625,0.55035400390625,-0.66107177734375,-0.3740234375,-0.09130859375,-0.99560546875,0.2216796875,-34.5,-0.4375,-0.875
1.6799999999999862,-1.0,-2.0,-6.0,-1.0,-1.0,1.0,2.0,-2.0,0.34857177734375,0.55322265625,-0.65899658203125,-0.37164306640625,-0.10693359375,-0.99951171875,0.224609375,-31.375,-3.25,0.5
1.684999999999986,-1.0,-2.0,-6.0,-1.0,-1.0,1.0,2.0,-2.0,0.34857177734375,0.55322265625,-0.65899658203125,-0.37164306640625,-0.10693359375,-0.99951171875,0.224609375,-31.375,-3.25,0.5
1.689999999999986,-1.0,-2.0,-6.0,-1.0,-1.0,1.0,2.0,-2.0,0.34857177734375,0.55322265625,-0.65899658203125,-0.37164306640625,-0.10693359375,-0.99951171875,0.224609375,-31.375,-3.25,0.5
1.6949999999999859,-2.0,0.0,-1.0,-15.0,-1.0,3.0,1.0,-2.0,0.34857177734375,0.55322265625,-0.65899658203125,-0.37164306640625,-0.10693359375,-0.99951171875,0.224609375,-31.375,-3.25,0.5
1.6999999999999857,-2.0,0.0,-1.0,-15.0,-1.0,3.0,1.0,-2.0,0.34857177734375,0.55322265625,-0.65899658203125,-0.37164306640625,-0.10693359375,-0.99951171875,0.224609375,-31.375,-3.25,0.5
1.7049999999999856,1.0,1.0,3.0,-3.0,0.0,1.0,13.0,1.0,0.3497314453125,0.55596923828125,-0.657470703125,-0.369140625,-0.10400390625,-0.994140625,0.234375,-29.5625,-6.5,0.6875
1.7099999999999855,1.0,1.0,3.0,-3.0,0.0,1.0,13.0,1.0,0.3497314453125,0.55596923828125,-0.657470703125,-0.369140625,-0.10400390625,-0.994140625,0.234375,-29.5625,-6.5,0.6875
1.7149999999999854,-1.0,-1.0,-1.0,9.0,-1.0,4.0,-7.0,-2.0,0.3497314453125,0.55596923828125,-0.657470703125,-0.369140625,-0.10400390625,-0.994140625,0.234375,-29.5625,-6.5,0.6875
1.7199999999999853,-2.0,-1.0,-1.0,2.0,-6.0,3.0,-11.0,-2.0,0.3497314453125,0.55596923828125,-0.657470703125,-0.369140625,-0.10400390625,-0.994140625,0.234375,-29.5625,-6.5,0.6875
1.7249999999999852,-2.0,-1.0,-1.0,2.0,-6.0,3.0,-11.0,-2.0,0.35015869140625,0.5584716796875,-0.65667724609375,-0.36651611328125,-0.11474609375,-1.0087890625,0.23095703125,-25.0625,-10.6875,0.25
1.729999999999985,-2.0,-1.0,-1.0,2.0,-6.0,3.0,-11.0,-2.0,0.35015869140625,0.5584716796875,-0.65667724609375,-0.36651611328125,-0.11474609375,-1.0087890625,0.23095703125,-25.0625,-10.6875,0.25
1.734999999999985,-2.0,-1.0,-1.0,2.0,-6.0,3.0,-11.0,-2.0,0.35015869140625,0.5584716796875,-0.65667724609375,-0.36651611328125,-0.11474609375,-1.0087890625,0.23095703125,-25.0625,-10.6875,0.25
1.739999999999985,-2.0,-1.0,-1.0,2.0,-6.0,3.0,-11.0,-2.0,0.35015869140625,0.5584716796875,-0.65667724609375,-0.36651611328125,-0.11474609375,-1.0087890625,0.23095703125,-25.0625,-10.6875,0.25
1.7449999999999848,-17.0,-3.0,-4.0,-5.0,-6.0,-28.0,-11.0,-4.0,0.34954833984375,0.56097412109375,-0.65631103515625,-0.36383056640625,-0.12548828125,-1.02001953125,0.2109375,-20.25,-15.625,-2.9375
1.7499999999999847,-4.0,-4.0,-3.0,-3.0,5.0,23.0,7.0,1.0,0.34954833984375,0.56097412109375,-0.65631103515625,-0.36383056640625,-0.12548828125,-1.02001953125,0.2109375,-20.25,-15.625,-2.9375
1.7549999999999846,-4.0,-4.0,-3.0,-3.0,5.0,23.0,7.0,1.0,0.34954833984375,0.56097412109375,-0.65631103515625,-0.36383056640625,-0.12548828125,-1.02001953125,0.2109375,-20.25,-15.625,-2.9375
1.7599999999999845,2.0,-1.0,-4.0,-24.0,-8.0,-15.0,-11.0,-3.0,0.34954833984375,0.56097412109375,-0.65631103515625,-0.36383056640625,-0.12548828125,-1.02001953125,0.2109375,-20.25,-15.625,-2.9375
1.7649999999999844,2.0,-1.0,-4.0,-24.0,-8.0,-15.0,-11.0,-3.0,0.34954833984375,0.56097412109375,-0.65631103515625,-0.36383056640625,-0.12548828125,-1.02001953125,0.2109375,-20.25,-15.625,-2.9375
1.7699999999999843,2.0,-1.0,-4.0,-24.0,-8.0,-15.0,-11.0,-3.0,0.34765625,0.5634765625,-0.65643310546875,-0.361572265625,-0.1142578125,-1.03759765625,0.2001953125,-14.875,-20.4375,-6.8125
1.7749999999999841,2.0,-1.0,-4.0,-24.0,-8.0,-15.0,-11.0,-3.0,0.34765625,0.5634765625,-0.65643310546875,-0.361572265625,-0.1142578125,-1.03759765625,0.2001953125,-14.875,-20.4375,-6.8125
1.779999999999984,2.0,0.0,0.0,6.0,6.0,21.0,2.0,0.0,0.34765625,0.5634765625,-0.65643310546875,-0.361572265625,-0.1142578125,-1.03759765625,0.2001953125,-14.875,-20.4375,-6.8125
1.784999999999984,2.0,0.0,0.0,6.0,6.0,21.0,2.0,0.0,0.34765625,0.5634765625,-0.65643310546875,-0.361572265625,-0.1142578125,-1.03759765625,0.2001953125,-14.875,-20.4375,-6.8125
1.7899999999999838,2.0,0.0,0.0,6.0,6.0,21.0,2.0,0.0,0.3447265625,0.56634521484375,-0.65679931640625,-0.3592529296875,-0.1005859375,-1.0361328125,0.1787109375,-11.9375,-25.5,-9.5
1.7949999999999837,2.0,0.0,0.0,6.0,6.0,21.0,2.0,0.0,0.3447265625,0.56634521484375,-0.65679931640625,-0.3592529296875,-0.1005859375,-1.0361328125,0.1787109375,-11.9375,-25.5,-9.5
1.7999999999999836,-1.0,0.0,1.0,-7.0,-26.0,-13.0,-14.0,-4.0,0.3447265625,0.56634521484375,-0.65679931640625,-0.3592529296875,-0.1005859375,-1.0361328125,0.1787109375,-11.9375,-25.5,-9.5
1.8049999999999835,5.0,1.0,-2.0,-3.0,10.0,-10.0,3.0,1.0,0.3447265625,0.56634521484375,-0.65679931640625,-0.3592529296875,-0.1005859375,-1.0361328125,0.1787109375,-11.9375,-25.5,-9.5
1.8099999999999834,5.0,1.0,-2.0,-3.0,10.0,-10.0,3.0,1.0,0.3447265625,0.56634521484375,-0.65679931640625,-0.3592529296875,-0.1005859375,-1.0361328125,0.1787109375,-11.9375,-25.5,-9.5
1.8149999999999833,5.0,1.0,-2.0,-3.0,10.0,-10.0,3.0,1.0,0.3409423828125,0.56951904296875,-0.65740966796875,-0.35675048828125,-0.08544921875,-1.04248046875,0.15087890625,-8.875,-30.25,-10.625
1.8199999999999832,5.0,1.0,-2.0,-3.0,10.0,-10.0,3.0,1.0,0.3409423828125,0.56951904296875,-0.65740966796875,-0.35675048828125,-0.08544921875,-1.04248046875,0.15087890625,-8.875,-30.25,-10.625
1.824999999999983,-2.0,1.0,4.0,12.0,6.0,18.0,5.0,3.0,0.3409423828125,0.56951904296875,-0.65740966796875,-0.35675048828125,-0.08544921875,-1.04248046875,0.15087890625,-8.875,-30.25,-10.625
1.829999999999983,-2.0,1.0,4.0,12.0,6.0,18.0,5.0,3.0,0.3409423828125,0.56951904296875,-0.65740966796875,-0.35675048828125,-0.08544921875,-1.04248046875,0.15087890625,-8.875,-30.25,-10.625
1.8349999999999829,2.0,-2.0,2.0,2.0,-3.0,0.0,0.0,0.0,0.3409423828125,0.56951904296875,-0.65740966796875,-0.35675048828125,-0.08544921875,-1.04248046875,0.15087890625,-8.875,-30.25,-10.625
1.8399999999999828,2.0,-2.0,2.0,2.0,-3.0,0.0,0.0,0.0,0.336669921875,0.57330322265625,-0.65771484375,-0.3541259765625,-0.0654296875,-1.0517578125,0.11669921875,-9.1875,-33.25,-12.875
1.8449999999999827,2.0,-2.0,2.0,2.0,-3.0,0.0,0.0,0.0,0.336669921875,0.57330322265625,-0.65771484375,-0.3541259765625,-0.0654296875,-1.0517578125,0.11669921875,-9.1875,-33.25,-12.875
1.8499999999999825,2.0,-2.0,2.0,2.0,-3.0,0.0,0.0,0.0,0.336669921875,0.57330322265625,-0.65771484375,-0.3541259765625,-0.0654296875,-1.0517578125,0.11669921875,-9.1875,-33.25,-12.875
1.8549999999999824,2.0,-2.0,2.0,2.0,-3.0,0.0,0.0,0.0,0.336669921875,0.57330322265625,-0.65771484375,-0.3541259765625,-0.0654296875,-1.0517578125,0.11669921875,-9.1875,-33.25,-12.875
1.8599999999999823,-1.0,-5.0,-7.0,-10.0,-5.0,-5.0,-2.0,-2.0,0.336669921875,0.57330322265625,-0.65771484375,-0.3541259765625,-0.0654296875,-1.0517578125,0.11669921875,-9.1875,-33.25,-12.875
1.8649999999999822,-1.0,-5.0,-7.0,-10.0,-5.0,-5.0,-2.0,-2.0,0.33184814453125,0.5771484375,-0.65802001953125,-0.35186767578125,-0.03466796875,-1.05712890625,0.0849609375,-5.8125,-34.0,-14.125
1.8699999999999821,-1.0,-5.0,-7.0,-10.0,-5.0,-5.0,-2.0,-2.0,0.33184814453125,0.5771484375,-0.65802001953125,-0.35186767578125,-0.03466796875,-1.05712890625,0.0849609375,-5.8125,-34.0,-14.125
1.874999999999982,-1.0,1.0,-2.0,-8.0,0.0,11.0,-10.0,-3.0,0.33184814453125,0.5771484375,-0.65802001953125,-0.35186767578125,-0.03466796875,-1.05712890625,0.0849609375,-5.8125,-34.0,-14.125
1.879999999999982,-1.0,1.0,-2.0,-8.0,0.0,11.0,-10.0,-3.0,0.33184814453125,0.5771484375,-0.65802001953125,-0.35186767578125,-0.03466796875,-1.05712890625,0.0849609375,-5.8125,-34.0,-14.125
1.8849999999999818,-3.0,-1.0,-3.0,2.0,6.0,4.0,0.0,-2.0,0.33184814453125,0.5771484375,-0.65802001953125,-0.35186767578125,-0.03466796875,-1.05712890625,0.0849609375,-5.8125,-34.0,-14.125
1.8899999999999817,-3.0,-1.0,-3.0,2.0,6.0,4.0,0.0,-2.0,0.33184814453125,0.5771484375,-0.65802001953125,-0.35186767578125,-0.03466796875,-1.05712890625,0.0849609375,-5.8125,-34.0,-14.125
1.8949999999999816,-3.0,-1.0,-3.0,2.0,6.0,4.0,0.0,-2.0,0.32696533203125,0.58074951171875,-0.65838623046875,-0.349853515625,-0.01318359375,-1.07421875,0.05517578125,-1.8125,-33.1875,-13.75
1.8999999999999815,-3.0,-1.0,-3.0,2.0,6.0,4.0,0.0,-2.0,0.32696533203125,0.58074951171875,-0.65838623046875,-0.349853515625,-0.01318359375,-1.07421875,0.05517578125,-1.8125,-33.1875,-13.75
1.9049999999999814,1.0,-2.0,1.0,-6.0,-17.0,-15.0,-12.0,-3.0,0.32696533203125,0.58074951171875,-0.65838623046875,-0.349853515625,-0.01318359375,-1.07421875,0.05517578125,-1.8125,-33.1875,-13.75
1.9099999999999813,1.0,-2.0,1.0,-6.0,-17.0,-15.0,-12.0,-3.0,0.32696533203125,0.58074951171875,-0.65838623046875,-0.349853515625,-0.01318359375,-1.07421875,0.05517578125,-1.8125,-33.1875,-13.75
1.9149999999999812,-2.0,2.0,5.0,28.0,-4.0,21.0,15.0,4.0,0.322021484375,0.584228515625,-0.65875244140625,-0.34796142578125,0.005859375,-1.06787109375,0.0302734375,0.75,-32.6875,-13.3125
1.919999999999981,-2.0,2.0,5.0,28.0,-4.0,21.0,15.0,4.0,0.322021484375,0.584228515625,-0.65875244140625,-0.34796142578125,0.005859375,-1.06787109375,0.0302734375,0.75,-32.6875,-13.3125
1.924999999999981,-2.0,2.0,5.0,28.0,-4.0,21.0,15.0,4.0,0.322021484375,0.584228515625,-0.65875244140625,-0.34796142578125,0.005859375,-1.06787109375,0.0302734375,0.75,-32.6875,-13.3125
1.9299999999999808,-2.0,2.0,5.0,28.0,-4.0,21.0,15.0,4.0,0.322021484375,0.584228515625,-0.65875244140625,-0.34796142578125,0.005859375,-1.06787109375,0.0302734375,0.75,-32.6875,-13.3125
1.9349999999999807,-1.0,0.0,3.0,10.0,10.0,3.0,3.0,-4.0,0.322021484375,0.584228515625,-0.65875244140625,-0.34796142578125,0.005859375,-1.06787109375,0.0302734375,0.75,-32.6875,-13.3125
1.9399999999999806,-1.0,0.0,3.0,10.0,10.0,3.0,3.0,-4.0,0.322021484375,0.584228515625,-0.65875244140625,-0.34796142578125,0.005859375,-1.06787109375,0.0302734375,0.75,-32.6875,-13.3125
1.9449999999999805,-1.0,0.0,3.0,10.0,10.0,3.0,3.0,-4.0,0.31732177734375,0.5880126953125,-0.65863037109375,-0.3460693359375,0.03515625,-1.05810546875,0.0087890625,-1.6875,-31.125,-12.8125
1.9499999999999804,-1.0,0.0,3.0,10.0,10.0,3.0,3.0,-4.0,0.31732177734375,0.5880126953125,-0.65863037109375,-0.3460693359375,0.03515625,-1.05810546875,0.0087890625,-1.6875,-31.125,-12.8125
1.9549999999999803,-11.0,-4.0,-3.0,-3.0,5.0,-3.0,3.0,-3.0,0.31732177734375,0.5880126953125,-0.65863037109375,-0.3460693359375,0.03515625,-1.05810546875,0.0087890625,-1.6875,-31.125,-12.8125
1.9599999999999802,-11.0,-4.0,-3.0,-3.0,5.0,-3.0,3.0,-3.0,0.31732177734375,0.5880126953125,-0.65863037109375,-0.3460693359375,0.03515625,-1.05810546875,0.0087890625,-1.6875,-31.125,-12.8125
1.96499999999998,2.0,-1.0,-4.0,-7.0,-8.0,21.0,-3.0,-1.0,0.31732177734375,0.5880126953125,-0.65863037109375,-0.3460693359375,0.03515625,-1.05810546875,0.0087890625,-1.6875,-31.125,-12.8125
1.96999999999998,2.0,-1.0,-4.0,-7.0,-8.0,21.0,-3.0,-1.0,0.31732177734375,0.5880126953125,-0.65863037109375,-0.3460693359375,0.03515625,-1.05810546875,0.0087890625,-1.6875,-31.125,-12.8125
1.9749999999999799,2.0,-1.0,-4.0,-7.0,-8.0,21.0,-3.0,-1.0,0.31317138671875,0.5919189453125,-0.6580810546875,-0.34417724609375,0.05517578125,-1.0556640625,-0.01513671875,-3.0625,-28.5625,-10.6875
1.9799999999999798,2.0,-1.0,-4.0,-7.0,-8.0,21.0,-3.0,-1.0,0.31317138671875,0.5919189453125,-0.6580810546875,-0.34417724609375,0.05517578125,-1.0556640625,-0.01513671875,-3.0625,-28.5625,-10.6875
1.9849999999999797,3.0,-1.0,0.0,-1.0,13.0,1.0,5.0,0.0,0.31317138671875,0.5919189453125,-0.6580810546875,-0.34417724609375,0.05517578125,-1.0556640625,-0.01513671875,-3.0625,-28.5625,-10.6875
1.9899999999999796,3.0,-1.0,0.0,-1.0,13.0,1.0,5.0,0.0,0.31317138671875,0.5919189453125,-0.6580810546875,-0.34417724609375,0.05517578125,-1.0556640625,-0.01513671875,-3.0625,-28.5625,-10.6875
1.9949999999999795,1.0,-1.0,2.0,-5.0,-10.0,-5.0,1.0,0.0,0.30987548828125,0.5958251953125,-0.65704345703125,-0.3424072265625,0.060546875,-1.07177734375,-0.02490234375,-5.875,-24.0,-9.1875
1.9999999999999793,1.0,-1.0,2.0,-5.0,-10.0,-5.0,1.0,0.0,0.30987548828125,0.5958251953125,-0.65704345703125,-0.3424072265625,0.060546875,-1.07177734375,-0.02490234375,-5.875,-24.0,-9.1875
2.0049999999999795,1.0,-1.0,2.0,-5.0,-10.0,-5.0,1.0,0.0,0.30987548828125,0.5958251953125,-0.65704345703125,-0.3424072265625,0.060546875,-1.07177734375,-0.02490234375,-5.875,-24.0,-9.1875
2.0099999999999794,1.0,-1.0,2.0,-5.0,-10.0,-5.0,1.0,0.0,0.30987548828125,0.5958251953125,-0.65704345703125,-0.3424072265625,0.060546875,-1.07177734375,-0.02490234375,-5.875,-24.0,-9.1875
2.0149999999999793,-1.0,0.0,-4.0,-7.0,2.0,-4.0,-3.0,0.0,0.30987548828125,0.5958251953125,-0.65704345703125,-0.3424072265625,0.060546875,-1.07177734375,-0.02490234375,-5.875,-24.0,-9.1875
2.019999999999979,-1.0,0.0,-4.0,-7.0,2.0,-4.0,-3.0,0.0,0.30987548828125,0.5958251953125,-0.65704345703125,-0.3424072265625,0.060546875,-1.07177734375,-0.02490234375,-5.875,-24.0,-9.1875
2.024999999999979,-1.0,0.0,-4.0,-7.0,2.0,-4.0,-3.0,0.0,0.30718994140625,0.59918212890625,-0.65594482421875,-0.341064453125,0.0634765625,-1.0546875,-0.02783203125,-4.6875,-18.8125,-8.125
2.029999999999979,0.0,-2.0,3.0,-2.0,-6.0,-5.0,-3.0,0.0,0.30718994140625,0.59918212890625,-0.65594482421875,-0.341064453125,0.0634765625,-1.0546875,-0.02783203125,-4.6875,-18.8125,-8.125
2.034999999999979,0.0,-2.0,3.0,-2.0,-6.0,-5.0,-3.0,0.0,0.30718994140625,0.59918212890625,-0.65594482421875,-0.341064453125,0.0634765625,-1.0546875,-0.02783203125,-4.6875,-18.8125,-8.125
2.0399999999999787,-7.0,-4.0,-7.0,-14.0,1.0,3.0,3.0,-1.0,0.30718994140625,0.59918212890625,-0.65594482421875,-0.341064453125,0.0634765625,-1.0546875,-0.02783203125,-4.6875,-18.8125,-8.125
2.0449999999999786,-7.0,-4.0,-7.0,-14.0,1.0,3.0,3.0,-1.0,0.30718994140625,0.59918212890625,-0.65594482421875,-0.341064453125,0.0634765625,-1.0546875,-0.02783203125,-4.6875,-18.8125,-8.125
2.0499999999999785,-7.0,-4.0,-7.0,-14.0,1.0,3.0,3.0,-1.0,0.30517578125,0.60211181640625,-0.65472412109375,-0.34014892578125,0.0634765625,-1.03076171875,-0.01708984375,-5.375,-13.75,-7.3125
2.0549999999999784,-7.0,-4.0,-7.0,-14.0,1.0,3.0,3.0,-1.0,0.30517578125,0.60211181640625,-0.65472412109375,-0.34014892578125,0.0634765625,-1.03076171875,-0.01708984375,-5.375,-13.75,-7.3125
2.0599999999999783,2.0,0.0,1.0,6.0,-7.0,-24.0,6.0,-2.0,0.30517578125,0.60211181640625,-0.65472412109375,-0.34014892578125,0.0634765625,-1.03076171875,-0.01708984375,-5.375,-13.75,-7.3125
2.064999999999978,2.0,0.0,1.0,6.0,-7.0,-24.0,6.0,-2.0,0.30517578125,0.60211181640625,-0.65472412109375,-0.34014892578125,0.0634765625,-1.03076171875,-0.01708984375,-5.375,-13.75,-7.3125
2.069999999999978,1.0,0.0,1.0,9.0,10.0,11.0,1.0,2.0,0.3038330078125,0.60491943359375,-0.653076171875,-0.3394775390625,0.06494140625,-1.03564453125,-0.015625,-7.4375,-9.625,-6.8125
2.074999999999978,1.0,0.0,1.0,9.0,10.0,11.0,1.0,2.0,0.3038330078125,0.60491943359375,-0.653076171875,-0.3394775390625,0.06494140625,-1.03564453125,-0.015625,-7.4375,-9.625,-6.8125
2.079999999999978,1.0,0.0,1.0,9.0,10.0,11.0,1.0,2.0,0.3038330078125,0.60491943359375,-0.653076171875,-0.3394775390625,0.06494140625,-1.03564453125,-0.015625,-7.4375,-9.625,-6.8125
2.0849999999999778,1.0,0.0,1.0,9.0,10.0,11.0,1.0,2.0,0.3038330078125,0.60491943359375,-0.653076171875,-0.3394775390625,0.06494140625,-1.03564453125,-0.015625,-7.4375,-9.625,-6.8125
2.0899999999999777,-3.0,-3.0,0.0,-5.0,-15.0,-32.0,-11.0,-5.0,0.3038330078125,0.60491943359375,-0.653076171875,-0.3394775390625,0.06494140625,-1.03564453125,-0.015625,-7.4375,-9.625,-6.8125
2.0949999999999775,-3.0,-3.0,0.0,-5.0,-15.0,-32.0,-11.0,-5.0,0.3038330078125,0.60491943359375,-0.653076171875,-0.3394775390625,0.06494140625,-1.03564453125,-0.015625,-7.4375,-9.625,-6.8125
2.0999999999999774,-3.0,-3.0,0.0,-5.0,-15.0,-32.0,-11.0,-5.0,0.302978515625,0.6075439453125,-0.651123046875,-0.3392333984375,0.06494140625,-1.05029296875,-0.01416015625,-8.75,-5.4375,-7.125
2.1049999999999773,-1.0,-2.0,-3.0,-2.0,2.0,8.0,2.0,1.0,0.302978515625,0.6075439453125,-0.651123046875,-0.3392333984375,0.06494140625,-1.05029296875,-0.01416015625,-8.75,-5.4375,-7.125
2.1099999999999772,-1.0,-2.0,-3.0,-2.0,2.0,8.0,2.0,1.0,0.302978515625,0.6075439453125,-0.651123046875,-0.3392333984375,0.06494140625,-1.05029296875,-0.01416015625,-8.75,-5.4375,-7.125
2.114999999999977,-4.0,-3.0,-2.0,14.0,-5.0,-9.0,-8.0,-3.0,0.302978515625,0.6075439453125,-0.651123046875,-0.3392333984375,0.06494140625,-1.05029296875,-0.01416015625,-8.75,-5.4375,-7.125
2.119999999999977,-4.0,-3.0,-2.0,14.0,-5.0,-9.0,-8.0,-3.0,0.302978515625,0.6075439453125,-0.651123046875,-0.3392333984375,0.06494140625,-1.05029296875,-0.01416015625,-8.75,-5.4375,-7.125
2.124999999999977,-4.0,-3.0,-2.0,14.0,-5.0,-9.0,-8.0,-3.0,0.3023681640625,0.60968017578125,-0.6492919921875,-0.33953857421875,0.0615234375,-1.03515625,-0.0029296875,-7.3125,-1.875,-7.6875
2.129999999999977,1.0,2.0,0.0,-9.0,-1.0,-11.0,1.0,2.0,0.3023681640625,0.60968017578125,-0.6492919921875,-0.33953857421875,0.0615234375,-1.03515625,-0.0029296875,-7.3125,-1.875,-7.6875
2.1349999999999767,1.0,2.0,0.0,-9.0,-1.0,-11.0,1.0,2.0,0.3023681640625,0.60968017578125,-0.6492919921875,-0.33953857421875,0.0615234375,-1.03515625,-0.0029296875,-7.3125,-1.875,-7.6875
2.1399999999999766,14.0,0.0,-1.0,-7.0,-1.0,2.0,-2.0,1.0,0.30206298828125,0.6114501953125,-0.6475830078125,-0.3399658203125,0.06494140625,-1.0244140625,-0.00146484375,-5.9375,0.125,-6.5
2.1449999999999765,14.0,0.0,-1.0,-7.0,-1.0,2.0,-2.0,1.0,0.30206298828125,0.6114501953125,-0.6475830078125,-0.3399658203125,0.06494140625,-1.0244140625,-0.00146484375,-5.9375,0.125,-6.5
2.1499999999999764,14.0,0.0,-1.0,-7.0,-1.0,2.0,-2.0,1.0,0.30206298828125,0.6114501953125,-0.6475830078125,-0.3399658203125,0.06494140625,-1.0244140625,-0.00146484375,-5.9375,0.125,-6.5
2.1549999999999763,-3.0,-2.0,-4.0,-15.0,-12.0,-6.0,0.0,-4.0,0.30206298828125,0.6114501953125,-0.6475830078125,-0.3399658203125,0.06494140625,-1.0244140625,-0.00146484375,-5.9375,0.125,-6.5
2.159999999999976,-3.0,-2.0,-4.0,-15.0,-12.0,-6.0,0.0,-4.0,0.30206298828125,0.6114501953125,-0.6475830078125,-0.3399658203125,0.06494140625,-1.0244140625,-0.00146484375,-5.9375,0.125,-6.5
2.164999999999976,3.0,0.0,-1.0,-2.0,17.0,2.0,5.0,3.0,0.30194091796875,0.61297607421875,-0.64593505859375,-0.3404541015625,0.06591796875,-1.013671875,-0.0048828125,-5.4375,1.625,-5.375
2.169999999999976,-1.0,-2.0,2.0,10.0,-9.0,-5.0,-3.0,-1.0,0.30194091796875,0.61297607421875,-0.64593505859375,-0.3404541015625,0.06591796875,-1.013671875,-0.0048828125,-5.4375,1.625,-5.375
2.174999999999976,-1.0,-2.0,2.0,10.0,-9.0,-5.0,-3.0,-1.0,0.30194091796875,0.61297607421875,-0.64593505859375,-0.3404541015625,0.06591796875,-1.013671875,-0.0048828125,-5.4375,1.625,-5.375
2.1799999999999757,-4.0,-1.0,0.0,7.0,2.0,4.0,-3.0,-4.0,0.3021240234375,0.6143798828125,-0.64410400390625,-0.3411865234375,0.0693359375,-1.015625,-0.01123046875,-5.5,3.75,-5.3125
2.1849999999999756,-4.0,-1.0,0.0,7.0,2.0,4.0,-3.0,-4.0,0.3021240234375,0.6143798828125,-0.64410400390625,-0.3411865234375,0.0693359375,-1.015625,-0.01123046875,-5.5,3.75,-5.3125
2.1899999999999755,-4.0,-1.0,0.0,7.0,2.0,4.0,-3.0,-4.0,0.3021240234375,0.6143798828125,-0.64410400390625,-0.3411865234375,0.0693359375,-1.015625,-0.01123046875,-5.5,3.75,-5.3125
2.1949999999999754,4.0,-2.0,-5.0,1.0,-1.0,-24.0,-6.0,0.0,0.3021240234375,0.6143798828125,-0.64410400390625,-0.3411865234375,0.0693359375,-1.015625,-0.01123046875,-5.5,3.75,-5.3125
2.1999999999999753,-1.0,-2.0,2.0,-3.0,-4.0,-4.0,-5.0,2.0,0.3021240234375,0.6143798828125,-0.64410400390625,-0.3411865234375,0.0693359375,-1.015625,-0.01123046875,-5.5,3.75,-5.3125
2.204999999999975,-7.0,-1.0,-1.0,-2.0,5.0,27.0,3.0,-2.0,0.3021240234375,0.6143798828125,-0.64410400390625,-0.3411865234375,0.0693359375,-1.015625,-0.01123046875,-5.5,3.75,-5.3125
2.209999999999975,-7.0,-1.0,-1.0,-2.0,5.0,27.0,3.0,-2.0,0.30242919921875,0.61517333984375,-0.64263916015625,-0.3421630859375,0.0693359375,-1.01025390625,-0.0029296875,-2.5625,5.6875,-4.25
2.214999999999975,-7.0,-1.0,-1.0,-2.0,5.0,27.0,3.0,-2.0,0.30242919921875,0.61517333984375,-0.64263916015625,-0.3421630859375,0.0693359375,-1.01025390625,-0.0029296875,-2.5625,5.6875,-4.25
2.219999999999975,-7.0,-1.0,-1.0,-2.0,5.0,27.0,3.0,-2.0,0.30242919921875,0.61517333984375,-0.64263916015625,-0.3421630859375,0.0693359375,-1.01025390625,-0.0029296875,-2.5625,5.6875,-4.25
2.2249999999999748,1.0,-1.0,-4.0,-3.0,-7.0,-27.0,-7.0,-1.0,0.30242919921875,0.61517333984375,-0.64263916015625,-0.3421630859375,0.0693359375,-1.01025390625,-0.0029296875,-2.5625,5.6875,-4.25
2.2299999999999747,-2.0,-2.0,-3.0,-7.0,-3.0,1.0,1.0,0.0,0.30303955078125,0.61566162109375,-0.64141845703125,-0.3431396484375,0.0673828125,-0.99658203125,-0.0126953125,-0.75,7.1875,-2.25
2.2349999999999746,-3.0,-1.0,-6.0,-6.0,4.0,12.0,5.0,1.0,0.30303955078125,0.61566162109375,-0.64141845703125,-0.3431396484375,0.0673828125,-0.99658203125,-0.0126953125,-0.75,7.1875,-2.25
2.2399999999999745,-3.0,-1.0,-6.0,-6.0,4.0,12.0,5.0,1.0,0.30303955078125,0.61566162109375,-0.64141845703125,-0.3431396484375,0.0673828125,-0.99658203125,-0.0126953125,-0.75,7.1875,-2.25
2.2449999999999743,4.0,-1.0,0.0,6.0,0.0,-30.0,-9.0,-1.0,0.30303955078125,0.61566162109375,-0.64141845703125,-0.3431396484375,0.0673828125,-0.99658203125,-0.0126953125,-0.75,7.1875,-2.25
2.2499999999999742,-6.0,-1.0,-3.0,-14.0,13.0,17.0,3.0,-3.0,0.3040771484375,0.61614990234375,-0.63995361328125,-0.34393310546875,0.06103515625,-1.005859375,-0.03271484375,-1.4375,8.5625,-1.1875
2.254999999999974,-6.0,-1.0,-3.0,-14.0,13.0,17.0,3.0,-3.0,0.3040771484375,0.61614990234375,-0.63995361328125,-0.34393310546875,0.06103515625,-1.005859375,-0.03271484375,-1.4375,8.5625,-1.1875
2.259999999999974,-1.0,2.0,1.0,10.0,12.0,0.0,11.0,0.0,0.3040771484375,0.61614990234375,-0.63995361328125,-0.34393310546875,0.06103515625,-1.005859375,-0.03271484375,-1.4375,8.5625,-1.1875
2.264999999999974,-1.0,-2.0,3.0,9.0,-15.0,-16.0,-3.0,-1.0,0.3040771484375,0.61614990234375,-0.63995361328125,-0.34393310546875,0.06103515625,-1.005859375,-0.03271484375,-1.4375,8.5625,-1.1875
2.269999999999974,-1.0,-2.0,3.0,9.0,-15.0,-16.0,-3.0,-1.0,0.305419921875,0.61639404296875,-0.63848876953125,-0.3450927734375,0.06396484375,-1.01806640625,-0.03759765625,-0.1875,11.4375,-0.8125
2.2749999999999737,-1.0,-2.0,3.0,9.0,-15.0,-16.0,-3.0,-1.0,0.305419921875,0.61639404296875,-0.63848876953125,-0.3450927734375,0.06396484375,-1.01806640625,-0.03759765625,-0.1875,11.4375,-0.8125
2.2799999999999736,-3.0,-1.0,-9.0,-9.0,-3.0,-21.0,-7.0,-6.0,0.305419921875,0.61639404296875,-0.63848876953125,-0.3450927734375,0.06396484375,-1.01806640625,-0.03759765625,-0.1875,11.4375,-0.8125
2.2849999999999735,0.0,-1.0,0.0,2.0,2.0,34.0,-2.0,-1.0,0.305419921875,0.61639404296875,-0.63848876953125,-0.3450927734375,0.06396484375,-1.01806640625,-0.03759765625,-0.1875,11.4375,-0.8125
2.2899999999999734,0.0,-1.0,0.0,2.0,2.0,34.0,-2.0,-1.0,0.305419921875,0.61639404296875,-0.63848876953125,-0.3450927734375,0.06396484375,-1.01806640625,-0.03759765625,-0.1875,11.4375,-0.8125
2.2949999999999733,0.0,1.0,2.0,12.0,-3.0,-23.0,-12.0,-2.0,0.30694580078125,0.61614990234375,-0.63720703125,-0.3465576171875,0.0576171875,-1.01513671875,-0.029296875,1.4375,13.75,-0.8125
2.299999999999973,-4.0,-5.0,-9.0,-4.0,-8.0,-18.0,-10.0,-4.0,0.30694580078125,0.61614990234375,-0.63720703125,-0.3465576171875,0.0576171875,-1.01513671875,-0.029296875,1.4375,13.75,-0.8125
2.304999999999973,-4.0,-5.0,-9.0,-4.0,-8.0,-18.0,-10.0,-4.0,0.30694580078125,0.61614990234375,-0.63720703125,-0.3465576171875,0.0576171875,-1.01513671875,-0.029296875,1.4375,13.75,-0.8125
2.309999999999973,-2.0,-1.0,-3.0,-14.0,-5.0,16.0,7.0,1.0,0.30694580078125,0.61614990234375,-0.63720703125,-0.3465576171875,0.0576171875,-1.01513671875,-0.029296875,1.4375,13.75,-0.8125
2.314999999999973,-2.0,-1.0,-3.0,-14.0,-5.0,16.0,7.0,1.0,0.308837890625,0.61590576171875,-0.6357421875,-0.34796142578125,0.052734375,-1.02294921875,-0.0341796875,0.5,15.25,0.125
2.3199999999999728,-2.0,-1.0,-3.0,-14.0,-5.0,16.0,7.0,1.0,0.308837890625,0.61590576171875,-0.6357421875,-0.34796142578125,0.052734375,-1.02294921875,-0.0341796875,0.5,15.25,0.125
2.3249999999999726,2.0,0.0,-2.0,-3.0,8.0,19.0,-1.0,0.0,0.308837890625,0.61590576171875,-0.6357421875,-0.34796142578125,0.052734375,-1.02294921875,-0.0341796875,0.5,15.25,0.125
2.3299999999999725,-2.0,0.0,2.0,1.0,-3.0,-20.0,8.0,-1.0,0.308837890625,0.61590576171875,-0.6357421875,-0.34796142578125,0.052734375,-1.02294921875,-0.0341796875,0.5,15.25,0.125
2.3349999999999724,-2.0,0.0,2.0,1.0,-3.0,-20.0,8.0,-1.0,0.308837890625,0.61590576171875,-0.6357421875,-0.34796142578125,0.052734375,-1.02294921875,-0.0341796875,0.5,15.25,0.125
2.3399999999999723,-1.0,-4.0,-5.0,-8.0,-5.0,-4.0,2.0,0.0,0.31103515625,0.61566162109375,-0.63409423828125,-0.34942626953125,0.05517578125,-1.0263671875,-0.03662109375,-0.625,16.8125,1.0
2.344999999999972,-1.0,-4.0,-5.0,-8.0,-5.0,-4.0,2.0,0.0,0.31103515625,0.61566162109375,-0.63409423828125,-0.34942626953125,0.05517578125,-1.0263671875,-0.03662109375,-0.625,16.8125,1.0
2.349999999999972,-1.0,-1.0,3.0,0.0,-4.0,7.0,-6.0,-1.0,0.31103515625,0.61566162109375,-0.63409423828125,-0.34942626953125,0.05517578125,-1.0263671875,-0.03662109375,-0.625,16.8125,1.0
2.354999999999972,-1.0,-1.0,3.0,0.0,-4.0,7.0,-6.0,-1.0,0.31103515625,0.61566162109375,-0.63409423828125,-0.34942626953125,0.05517578125,-1.0263671875,-0.03662109375,-0.625,16.8125,1.0
2.359999999999972,1.0,-2.0,-1.0,-1.0,-6.0,-1.0,-2.0,-1.0,0.31103515625,0.61566162109375,-0.63409423828125,-0.34942626953125,0.05517578125,-1.0263671875,-0.03662109375,-0.625,16.8125,1.0
2.364999999999972,1.0,-2.0,-1.0,-1.0,-6.0,-1.0,-2.0,-1.0,0.3134765625,0.61541748046875,-0.63226318359375,-0.35107421875,0.05615234375,-1.044921875,-0.02294921875,-2.5625,18.6875,0.5625
2.3699999999999717,-2.0,0.0,-2.0,-17.0,-18.0,2.0,-9.0,-5.0,0.3134765625,0.61541748046875,-0.63226318359375,-0.35107421875,0.05615234375,-1.044921875,-0.02294921875,-2.5625,18.6875,0.5625
2.3749999999999716,-2.0,-3.0,-15.0,-4.0,-10.0,-18.0,-3.0,-1.0,0.3134765625,0.61541748046875,-0.63226318359375,-0.35107421875,0.05615234375,-1.044921875,-0.02294921875,-2.5625,18.6875,0.5625
2.3799999999999715,-2.0,-3.0,-15.0,-4.0,-10.0,-18.0,-3.0,-1.0,0.316162109375,0.61505126953125,-0.6302490234375,-0.35296630859375,0.05126953125,-1.0595703125,-0.00439453125,-4.25,20.6875,0.3125
2.3849999999999714,-2.0,-3.0,-15.0,-4.0,-10.0,-18.0,-3.0,-1.0,0.316162109375,0.61505126953125,-0.6302490234375,-0.35296630859375,0.05126953125,-1.0595703125,-0.00439453125,-4.25,20.6875,0.3125
2.3899999999999713,0.0,0.0,0.0,4.0,6.0,-2.0,10.0,-4.0,0.316162109375,0.61505126953125,-0.6302490234375,-0.35296630859375,0.05126953125,-1.0595703125,-0.00439453125,-4.25,20.6875,0.3125
2.394999999999971,0.0,0.0,0.0,4.0,6.0,-2.0,10.0,-4.0,0.316162109375,0.61505126953125,-0.6302490234375,-0.35296630859375,0.05126953125,-1.0595703125,-0.00439453125,-4.25,20.6875,0.3125
2.399999999999971,-2.0,-1.0,6.0,8.0,12.0,20.0,3.0,-3.0,0.31878662109375,0.61468505859375,-0.628173828125,-0.35491943359375,0.04443359375,-1.0654296875,0.01025390625,-5.6875,21.0,-0.9375
2.404999999999971,-2.0,-1.0,6.0,8.0,12.0,20.0,3.0,-3.0,0.31878662109375,0.61468505859375,-0.628173828125,-0.35491943359375,0.04443359375,-1.0654296875,0.01025390625,-5.6875,21.0,-0.9375
2.409999999999971,-2.0,-1.0,6.0,8.0,12.0,20.0,3.0,-3.0,0.31878662109375,0.61468505859375,-0.628173828125,-0.35491943359375,0.04443359375,-1.0654296875,0.01025390625,-5.6875,21.0,-0.9375
2.4149999999999707,-2.0,-1.0,6.0,8.0,12.0,20.0,3.0,-3.0,0.31878662109375,0.61468505859375,-0.628173828125,-0.35491943359375,0.04443359375,-1.0654296875,0.01025390625,-5.6875,21.0,-0.9375
2.4199999999999706,-2.0,-1.0,6.0,8.0,12.0,20.0,3.0,-3.0,0.31878662109375,0.61468505859375,-0.628173828125,-0.35491943359375,0.04443359375,-1.0654296875,0.01025390625,-5.6875,21.0,-0.9375
2.4249999999999705,-2.0,-1.0,6.0,8.0,12.0,20.0,3.0,-3.0,0.31878662109375,0.61468505859375,-0.628173828125,-0.35491943359375,0.04443359375,-1.0654296875,0.01025390625,-5.6875,21.0,-0.9375
2.4299999999999704,0.0,0.0,-1.0,-20.0,-4.0,-8.0,-1.0,-1.0,0.3211669921875,0.61395263671875,-0.62646484375,-0.35699462890625,0.037109375,-1.03955078125,0.0302734375,-3.875,20.5625,-1.4375
2.4349999999999703,0.0,0.0,-1.0,-20.0,-4.0,-8.0,-1.0,-1.0,0.3211669921875,0.61395263671875,-0.62646484375,-0.35699462890625,0.037109375,-1.03955078125,0.0302734375,-3.875,20.5625,-1.4375
2.43999999999997,0.0,0.0,-1.0,-20.0,-4.0,-8.0,-1.0,-1.0,0.3211669921875,0.61395263671875,-0.62646484375,-0.35699462890625,0.037109375,-1.03955078125,0.0302734375,-3.875,20.5625,-1.4375
2.44499999999997,0.0,-3.0,-3.0,-12.0,-6.0,4.0,-4.0,-1.0,0.3211669921875,0.61395263671875,-0.62646484375,-0.35699462890625,0.037109375,-1.03955078125,0.0302734375,-3.875,20.5625,-1.4375
2.44999999999997,-3.0,-2.0,4.0,6.0,1.0,-13.0,-7.0,-2.0,0.3211669921875,0.61395263671875,-0.62646484375,-0.35699462890625,0.037109375,-1.03955078125,0.0302734375,-3.875,20.5625,-1.4375
2.45499999999997,-3.0,-2.0,4.0,6.0,1.0,-13.0,-7.0,-2.0,0.32366943359375,0.6134033203125,-0.624755859375,-0.3587646484375,0.03564453125,-1.029296875,0.0517578125,-6.625,19.4375,-0.1875
2.4599999999999698,-3.0,-2.0,4.0,6.0,1.0,-13.0,-7.0,-2.0,0.32366943359375,0.6134033203125,-0.624755859375,-0.3587646484375,0.03564453125,-1.029296875,0.0517578125,-6.625,19.4375,-0.1875
2.4649999999999697,0.0,0.0,0.0,6.0,11.0,13.0,0.0,0.0,0.32366943359375,0.6134033203125,-0.624755859375,-0.3587646484375,0.03564453125,-1.029296875,0.0517578125,-6.625,19.4375,-0.1875
2.4699999999999696,0.0,0.0,0.0,6.0,11.0,13.0,0.0,0.0,0.32366943359375,0.6134033203125,-0.624755859375,-0.3587646484375,0.03564453125,-1.029296875,0.0517578125,-6.625,19.4375,-0.1875
2.4749999999999694,0.0,0.0,0.0,6.0,11.0,13.0,0.0,0.0,0.32366943359375,0.6134033203125,-0.624755859375,-0.3587646484375,0.03564453125,-1.029296875,0.0517578125,-6.625,19.4375,-0.1875
2.4799999999999693,-1.0,1.0,5.0,-4.0,-6.0,-3.0,2.0,1.0,0.32611083984375,0.61279296875,-0.62310791015625,-0.3603515625,0.02978515625,-1.064453125,0.060546875,-7.3125,18.25,0.0625
2.4849999999999692,-1.0,1.0,5.0,-4.0,-6.0,-3.0,2.0,1.0,0.32611083984375,0.61279296875,-0.62310791015625,-0.3603515625,0.02978515625,-1.064453125,0.060546875,-7.3125,18.25,0.0625
2.489999999999969,-1.0,1.0,5.0,-4.0,-6.0,-3.0,2.0,1.0,0.32611083984375,0.61279296875,-0.62310791015625,-0.3603515625,0.02978515625,-1.064453125,0.060546875,-7.3125,18.25,0.0625
2.494999999999969,-1.0,-3.0,-2.0,-1.0,-5.0,-2.0,-2.0,-3.0,0.32611083984375,0.61279296875,-0.62310791015625,-0.3603515625,0.02978515625,-1.064453125,0.060546875,-7.3125,18.25,0.0625
2.499999999999969,-1.0,-3.0,-2.0,-1.0,-5.0,-2.0,-2.0,-3.0,0.32611083984375,0.61279296875,-0.62310791015625,-0.3603515625,0.02978515625,-1.064453125,0.060546875,-7.3125,18.25,0.0625
2.504999999999969,3.0,3.0,3.0,-3.0,-1.0,-9.0,3.0,1.0,0.328125,0.61187744140625,-0.6220703125,-0.3619384765625,0.021484375,-1.06982421875,0.08251953125,-4.75,16.5,-0.25
2.5099999999999687,3.0,3.0,3.0,-3.0,-1.0,-9.0,3.0,1.0,0.328125,0.61187744140625,-0.6220703125,-0.3619384765625,0.021484375,-1.06982421875,0.08251953125,-4.75,16.5,-0.25
2.5149999999999686,3.0,3.0,3.0,-3.0,-1.0,-9.0,3.0,1.0,0.328125,0.61187744140625,-0.6220703125,-0.3619384765625,0.021484375,-1.06982421875,0.08251953125,-4.75,16.5,-0.25
2.5199999999999685,3.0,3.0,3.0,-3.0,-1.0,-9.0,3.0,1.0,0.328125,0.61187744140625,-0.6220703125,-0.3619384765625,0.021484375,-1.06982421875,0.08251953125,-4.75,16.5,-0.25
2.5249999999999684,-1.0,-2.0,-7.0,-9.0,-13.0,-9.0,-1.0,-1.0,0.328125,0.61187744140625,-0.6220703125,-0.3619384765625,0.021484375,-1.06982421875,0.08251953125,-4.75,16.5,-0.25
2.5299999999999683,-1.0,-2.0,-7.0,-9.0,-13.0,-9.0,-1.0,-1.0,0.328125,0.61187744140625,-0.6220703125,-0.3619384765625,0.021484375,-1.06982421875,0.08251953125,-4.75,16.5,-0.25
2.534999999999968,-1.0,-2.0,-7.0,-9.0,-13.0,-9.0,-1.0,-1.0,0.3294677734375,0.61053466796875,-0.62164306640625,-0.3636474609375,0.01220703125,-1.0634765625,0.11279296875,-1.4375,14.0,-1.4375
2.539999999999968,-1.0,-2.0,-7.0,-9.0,-13.0,-9.0,-1.0,-1.0,0.3294677734375,0.61053466796875,-0.62164306640625,-0.3636474609375,0.01220703125,-1.0634765625,0.11279296875,-1.4375,14.0,-1.4375
2.544999999999968,-1.0,1.0,2.0,12.0,3.0,-1.0,-2.0,-1.0,0.3294677734375,0.61053466796875,-0.62164306640625,-0.3636474609375,0.01220703125,-1.0634765625,0.11279296875,-1.4375,14.0,-1.4375
2.549999999999968,-1.0,1.0,2.0,12.0,3.0,-1.0,-2.0,-1.0,0.3294677734375,0.61053466796875,-0.62164306640625,-0.3636474609375,0.01220703125,-1.0634765625,0.11279296875,-1.4375,14.0,-1.4375
2.5549999999999677,0.0,-1.0,-3.0,3.0,12.0,9.0,-2.0,-2.0,0.3302001953125,0.609375,-0.62158203125,-0.364990234375,0.01171875,-1.078125,0.126953125,-1.25,9.8125,-1.8125
2.5599999999999676,0.0,-1.0,-3.0,3.0,12.0,9.0,-2.0,-2.0,0.3302001953125,0.609375,-0.62158203125,-0.364990234375,0.01171875,-1.078125,0.126953125,-1.25,9.8125,-1.8125
2.5649999999999675,0.0,-1.0,-3.0,3.0,12.0,9.0,-2.0,-2.0,0.3302001953125,0.609375,-0.62158203125,-0.364990234375,0.01171875,-1.078125,0.126953125,-1.25,9.8125,-1.8125
2.5699999999999674,0.0,-1.0,-3.0,3.0,12.0,9.0,-2.0,-2.0,0.3302001953125,0.609375,-0.62158203125,-0.364990234375,0.01171875,-1.078125,0.126953125,-1.25,9.8125,-1.8125
2.5749999999999673,-1.0,-2.0,2.0,-13.0,-9.0,-42.0,-7.0,0.0,0.3302001953125,0.609375,-0.62158203125,-0.364990234375,0.01171875,-1.078125,0.126953125,-1.25,9.8125,-1.8125
2.579999999999967,-1.0,-2.0,2.0,-13.0,-9.0,-42.0,-7.0,0.0,0.3302001953125,0.609375,-0.62158203125,-0.364990234375,0.01171875,-1.078125,0.126953125,-1.25,9.8125,-1.8125
2.584999999999967,1.0,1.0,3.0,16.0,10.0,23.0,12.0,3.0,0.33038330078125,0.6080322265625,-0.62200927734375,-0.36639404296875,0.0078125,-1.07470703125,0.14013671875,1.9375,6.9375,-2.875
2.589999999999967,1.0,1.0,3.0,16.0,10.0,23.0,12.0,3.0,0.33038330078125,0.6080322265625,-0.62200927734375,-0.36639404296875,0.0078125,-1.07470703125,0.14013671875,1.9375,6.9375,-2.875
2.594999999999967,1.0,1.0,3.0,16.0,10.0,23.0,12.0,3.0,0.33038330078125,0.6080322265625,-0.62200927734375,-0.36639404296875,0.0078125,-1.07470703125,0.14013671875,1.9375,6.9375,-2.875
2.599999999999967,1.0,1.0,3.0,16.0,10.0,23.0,12.0,3.0,0.33038330078125,0.6080322265625,-0.62200927734375,-0.36639404296875,0.0078125,-1.07470703125,0.14013671875,1.9375,6.9375,-2.875
2.6049999999999667,-2.0,0.0,-5.0,-2.0,-7.0,-1.0,-4.0,-4.0,0.33038330078125,0.6080322265625,-0.62200927734375,-0.36639404296875,0.0078125,-1.07470703125,0.14013671875,1.9375,6.9375,-2.875
2.6099999999999666,-2.0,0.0,-5.0,-2.0,-7.0,-1.0,-4.0,-4.0,0.33038330078125,0.6080322265625,-0.62200927734375,-0.36639404296875,0.0078125,-1.07470703125,0.14013671875,1.9375,6.9375,-2.875
2.6149999999999665,-2.0,0.0,-5.0,-2.0,-7.0,-1.0,-4.0,-4.0,0.32989501953125,0.6063232421875,-0.62310791015625,-0.3677978515625,0.00439453125,-1.0546875,0.15087890625,6.375,4.25,-3.5625
2.6199999999999664,0.0,1.0,-1.0,-1.0,1.0,-4.0,-2.0,0.0,0.32989501953125,0.6063232421875,-0.62310791015625,-0.3677978515625,0.00439453125,-1.0546875,0.15087890625,6.375,4.25,-3.5625
2.6249999999999662,0.0,1.0,-1.0,-1.0,1.0,-4.0,-2.0,0.0,0.32989501953125,0.6063232421875,-0.62310791015625,-0.3677978515625,0.00439453125,-1.0546875,0.15087890625,6.375,4.25,-3.5625
2.629999999999966,0.0,1.0,-1.0,-1.0,1.0,-4.0,-2.0,0.0,0.32989501953125,0.6063232421875,-0.62310791015625,-0.3677978515625,0.00439453125,-1.0546875,0.15087890625,6.375,4.25,-3.5625
2.634999999999966,-1.0,-2.0,3.0,10.0,-2.0,-15.0,-6.0,-1.0,0.32904052734375,0.60430908203125,-0.62481689453125,-0.36895751953125,-0.00244140625,-1.03857421875,0.1484375,10.4375,1.6875,-2.6875
2.639999999999966,-1.0,-2.0,3.0,10.0,-2.0,-15.0,-6.0,-1.0,0.32904052734375,0.60430908203125,-0.62481689453125,-0.36895751953125,-0.00244140625,-1.03857421875,0.1484375,10.4375,1.6875,-2.6875
2.644999999999966,-1.0,-2.0,3.0,10.0,-2.0,-15.0,-6.0,-1.0,0.32904052734375,0.60430908203125,-0.62481689453125,-0.36895751953125,-0.00244140625,-1.03857421875,0.1484375,10.4375,1.6875,-2.6875
2.6499999999999657,-1.0,-2.0,3.0,10.0,-2.0,-15.0,-6.0,-1.0,0.32904052734375,0.60430908203125,-0.62481689453125,-0.36895751953125,-0.00244140625,-1.03857421875,0.1484375,10.4375,1.6875,-2.6875
2.6549999999999656,-1.0,0.0,-1.0,-8.0,1.0,-2.0,-2.0,0.0,0.32904052734375,0.60430908203125,-0.62481689453125,-0.36895751953125,-0.00244140625,-1.03857421875,0.1484375,10.4375,1.6875,-2.6875
2.6599999999999655,-3.0,-5.0,-4.0,-5.0,-17.0,-5.0,-8.0,-4.0,0.3280029296875,0.6019287109375,-0.62701416015625,-0.37005615234375,-0.00732421875,-1.03369140625,0.13427734375,15.125,0.75,-1.3125
2.6649999999999654,-3.0,-5.0,-4.0,-5.0,-17.0,-5.0,-8.0,-4.0,0.3280029296875,0.6019287109375,-0.62701416015625,-0.37005615234375,-0.00732421875,-1.03369140625,0.13427734375,15.125,0.75,-1.3125
2.6699999999999653,-3.0,-5.0,-4.0,-5.0,-17.0,-5.0,-8.0,-4.0,0.3280029296875,0.6019287109375,-0.62701416015625,-0.37005615234375,-0.00732421875,-1.03369140625,0.13427734375,15.125,0.75,-1.3125
2.674999999999965,-3.0,-5.0,-4.0,-5.0,-17.0,-5.0,-8.0,-4.0,0.3280029296875,0.6019287109375,-0.62701416015625,-0.37005615234375,-0.00732421875,-1.03369140625,0.13427734375,15.125,0.75,-1.3125
2.679999999999965,1.0,-2.0,2.0,5.0,-7.0,-9.0,-5.0,-1.0,0.3280029296875,0.6019287109375,-0.62701416015625,-0.37005615234375,-0.00732421875,-1.03369140625,0.13427734375,15.125,0.75,-1.3125
2.684999999999965,1.0,-2.0,2.0,5.0,-7.0,-9.0,-5.0,-1.0,0.32696533203125,0.59918212890625,-0.62945556640625,-0.371337890625,-0.001953125,-1.0107421875,0.11279296875,19.875,1.6875,-0.125
2.689999999999965,1.0,-2.0,2.0,5.0,-7.0,-9.0,-5.0,-1.0,0.32696533203125,0.59918212890625,-0.62945556640625,-0.371337890625,-0.001953125,-1.0107421875,0.11279296875,19.875,1.6875,-0.125
2.6949999999999648,2.0,0.0,-1.0,16.0,8.0,28.0,4.0,0.0,0.32696533203125,0.59918212890625,-0.62945556640625,-0.371337890625,-0.001953125,-1.0107421875,0.11279296875,19.875,1.6875,-0.125
2.6999999999999647,-5.0,-2.0,-4.0,-27.0,-6.0,4.0,-1.0,-2.0,0.32696533203125,0.59918212890625,-0.62945556640625,-0.371337890625,-0.001953125,-1.0107421875,0.11279296875,19.875,1.6875,-0.125
2.7049999999999645,-1.0,2.0,-1.0,2.0,0.0,-10.0,-7.0,1.0,0.32623291015625,0.59600830078125,-0.632080078125,-0.37255859375,-0.00537109375,-0.98486328125,0.08984375,23.25,2.9375,1.875
2.7099999999999644,-1.0,2.0,-1.0,2.0,0.0,-10.0,-7.0,1.0,0.32623291015625,0.59600830078125,-0.632080078125,-0.37255859375,-0.00537109375,-0.98486328125,0.08984375,23.25,2.9375,1.875
2.7149999999999643,-1.0,2.0,-1.0,2.0,0.0,-10.0,-7.0,1.0,0.32623291015625,0.59600830078125,-0.632080078125,-0.37255859375,-0.00537109375,-0.98486328125,0.08984375,23.25,2.9375,1.875
2.7199999999999642,-3.0,-1.0,1.0,4.0,-6.0,-10.0,-1.0,-4.0,0.32623291015625,0.59600830078125,-0.632080078125,-0.37255859375,-0.00537109375,-0.98486328125,0.08984375,23.25,2.9375,1.875
2.724999999999964,2.0,0.0,0.0,7.0,3.0,5.0,-4.0,-2.0,0.32623291015625,0.59600830078125,-0.632080078125,-0.37255859375,-0.00537109375,-0.98486328125,0.08984375,23.25,2.9375,1.875
2.729999999999964,0.0,2.0,4.0,-6.0,8.0,9.0,5.0,0.0,0.32574462890625,0.5927734375,-0.63470458984375,-0.37371826171875,-0.0087890625,-0.97314453125,0.0791015625,24.1875,3.9375,2.875
2.734999999999964,0.0,2.0,4.0,-6.0,8.0,9.0,5.0,0.0,0.32574462890625,0.5927734375,-0.63470458984375,-0.37371826171875,-0.0087890625,-0.97314453125,0.0791015625,24.1875,3.9375,2.875
2.739999999999964,0.0,2.0,4.0,-6.0,8.0,9.0,5.0,0.0,0.32574462890625,0.5927734375,-0.63470458984375,-0.37371826171875,-0.0087890625,-0.97314453125,0.0791015625,24.1875,3.9375,2.875
2.7449999999999637,-2.0,-5.0,-4.0,-21.0,-7.0,-21.0,-3.0,-2.0,0.32574462890625,0.5927734375,-0.63470458984375,-0.37371826171875,-0.0087890625,-0.97314453125,0.0791015625,24.1875,3.9375,2.875
2.7499999999999636,-2.0,-5.0,-4.0,-21.0,-7.0,-21.0,-3.0,-2.0,0.32550048828125,0.59002685546875,-0.63671875,-0.3748779296875,-0.009765625,-0.9912109375,0.07275390625,20.75,4.9375,1.875
2.7549999999999635,-1.0,-2.0,3.0,10.0,16.0,41.0,2.0,0.0,0.32550048828125,0.59002685546875,-0.63671875,-0.3748779296875,-0.009765625,-0.9912109375,0.07275390625,20.75,4.9375,1.875
2.7599999999999634,-3.0,0.0,-2.0,-5.0,-25.0,-9.0,0.0,-3.0,0.32550048828125,0.59002685546875,-0.63671875,-0.3748779296875,-0.009765625,-0.9912109375,0.07275390625,20.75,4.9375,1.875
2.7649999999999633,0.0,-2.0,-2.0,24.0,0.0,7.0,2.0,0.0,0.32562255859375,0.587646484375,-0.63800048828125,-0.3763427734375,0.00390625,-1.0107421875,0.05517578125,18.3125,8.125,0.625
2.769999999999963,0.0,-2.0,-2.0,24.0,0.0,7.0,2.0,0.0,0.32562255859375,0.587646484375,-0.63800048828125,-0.3763427734375,0.00390625,-1.0107421875,0.05517578125,18.3125,8.125,0.625
2.774999999999963,0.0,-2.0,-2.0,24.0,0.0,7.0,2.0,0.0,0.32562255859375,0.587646484375,-0.63800048828125,-0.3763427734375,0.00390625,-1.0107421875,0.05517578125,18.3125,8.125,0.625
2.779999999999963,-5.0,-3.0,-2.0,-3.0,8.0,-13.0,-4.0,-3.0,0.32562255859375,0.587646484375,-0.63800048828125,-0.3763427734375,0.00390625,-1.0107421875,0.05517578125,18.3125,8.125,0.625
2.784999999999963,-5.0,-3.0,-2.0,-3.0,8.0,-13.0,-4.0,-3.0,0.32562255859375,0.587646484375,-0.63800048828125,-0.3763427734375,0.00390625,-1.0107421875,0.05517578125,18.3125,8.125,0.625
2.7899999999999627,-4.0,-1.0,-5.0,-8.0,7.0,-5.0,0.0,-4.0,0.32598876953125,0.58526611328125,-0.6387939453125,-0.3782958984375,0.00927734375,-1.00830078125,0.0625,17.25,11.3125,-1.125
2.7949999999999626,-4.0,-1.0,-5.0,-8.0,7.0,-5.0,0.0,-4.0,0.32598876953125,0.58526611328125,-0.6387939453125,-0.3782958984375,0.00927734375,-1.00830078125,0.0625,17.25,11.3125,-1.125
2.7999999999999625,-4.0,-1.0,-5.0,-8.0,7.0,-5.0,0.0,-4.0,0.32598876953125,0.58526611328125,-0.6387939453125,-0.3782958984375,0.00927734375,-1.00830078125,0.0625,17.25,11.3125,-1.125
2.8049999999999624,-4.0,-1.0,-5.0,-8.0,7.0,-5.0,0.0,-4.0,0.32598876953125,0.58526611328125,-0.6387939453125,-0.3782958984375,0.00927734375,-1.00830078125,0.0625,17.25,11.3125,-1.125
2.8099999999999623,-4.0,-1.0,-5.0,-8.0,7.0,-5.0,0.0,-4.0,0.32598876953125,0.58526611328125,-0.6387939453125,-0.3782958984375,0.00927734375,-1.00830078125,0.0625,17.25,11.3125,-1.125
2.814999999999962,-2.0,-4.0,-4.0,-5.0,1.0,-26.0,-11.0,-5.0,0.3265380859375,0.5830078125,-0.63934326171875,-0.38031005859375,0.01318359375,-1.0029296875,0.06005859375,15.9375,12.8125,-1.0
2.819999999999962,-2.0,-1.0,0.0,12.0,-1.0,32.0,5.0,-2.0,0.3265380859375,0.5830078125,-0.63934326171875,-0.38031005859375,0.01318359375,-1.0029296875,0.06005859375,15.9375,12.8125,-1.0
2.824999999999962,2.0,2.0,7.0,10.0,-13.0,-18.0,0.0,2.0,0.3265380859375,0.5830078125,-0.63934326171875,-0.38031005859375,0.01318359375,-1.0029296875,0.06005859375,15.9375,12.8125,-1.0
2.829999999999962,-4.0,-5.0,-19.0,-15.0,3.0,15.0,0.0,-2.0,0.32708740234375,0.5809326171875,-0.63983154296875,-0.38226318359375,0.01806640625,-1.001953125,0.06591796875,14.5625,12.25,-1.0
2.8349999999999618,-4.0,-5.0,-19.0,-15.0,3.0,15.0,0.0,-2.0,0.32708740234375,0.5809326171875,-0.63983154296875,-0.38226318359375,0.01806640625,-1.001953125,0.06591796875,14.5625,12.25,-1.0
2.8399999999999617,-4.0,-5.0,-19.0,-15.0,3.0,15.0,0.0,-2.0,0.32708740234375,0.5809326171875,-0.63983154296875,-0.38226318359375,0.01806640625,-1.001953125,0.06591796875,14.5625,12.25,-1.0
2.8449999999999616,-2.0,-2.0,-4.0,-5.0,6.0,6.0,-6.0,-1.0,0.32708740234375,0.5809326171875,-0.63983154296875,-0.38226318359375,0.01806640625,-1.001953125,0.06591796875,14.5625,12.25,-1.0
2.8499999999999615,-2.0,-2.0,-4.0,-5.0,6.0,6.0,-6.0,-1.0,0.32708740234375,0.5809326171875,-0.63983154296875,-0.38226318359375,0.01806640625,-1.001953125,0.06591796875,14.5625,12.25,-1.0
2.8549999999999613,-2.0,-1.0,1.0,-8.0,-10.0,0.0,0.0,-1.0,0.32781982421875,0.579345703125,-0.63983154296875,-0.3841552734375,0.01806640625,-0.994140625,0.0859375,9.9375,12.1875,-1.875
2.8599999999999612,-2.0,-1.0,1.0,-8.0,-10.0,0.0,0.0,-1.0,0.32781982421875,0.579345703125,-0.63983154296875,-0.3841552734375,0.01806640625,-0.994140625,0.0859375,9.9375,12.1875,-1.875
2.864999999999961,-2.0,-2.0,1.0,5.0,-5.0,-5.0,-2.0,-2.0,0.32781982421875,0.579345703125,-0.63983154296875,-0.3841552734375,0.01806640625,-0.994140625,0.0859375,9.9375,12.1875,-1.875
2.869999999999961,-2.0,-1.0,1.0,-7.0,2.0,20.0,3.0,-3.0,0.32781982421875,0.579345703125,-0.63983154296875,-0.3841552734375,0.01806640625,-0.994140625,0.0859375,9.9375,12.1875,-1.875
2.874999999999961,-2.0,-1.0,1.0,-7.0,2.0,20.0,3.0,-3.0,0.328369140625,0.57763671875,-0.64007568359375,-0.38580322265625,0.01904296875,-0.986328125,0.09814453125,9.875,10.75,-1.0
2.879999999999961,-2.0,-1.0,1.0,-7.0,2.0,20.0,3.0,-3.0,0.328369140625,0.57763671875,-0.64007568359375,-0.38580322265625,0.01904296875,-0.986328125,0.09814453125,9.875,10.75,-1.0
2.8849999999999607,-3.0,-3.0,-8.0,-26.0,-6.0,-7.0,0.0,0.0,0.328369140625,0.57763671875,-0.64007568359375,-0.38580322265625,0.01904296875,-0.986328125,0.09814453125,9.875,10.75,-1.0
2.8899999999999606,-3.0,-3.0,-8.0,-26.0,-6.0,-7.0,0.0,0.0,0.328369140625,0.57763671875,-0.64007568359375,-0.38580322265625,0.01904296875,-0.986328125,0.09814453125,9.875,10.75,-1.0
2.8949999999999605,2.0,1.0,-3.0,-16.0,0.0,-5.0,-1.0,-1.0,0.32879638671875,0.576171875,-0.64031982421875,-0.38714599609375,0.01025390625,-0.9736328125,0.10888671875,8.4375,8.6875,-1.4375
2.8999999999999604,2.0,1.0,-3.0,-16.0,0.0,-5.0,-1.0,-1.0,0.32879638671875,0.576171875,-0.64031982421875,-0.38714599609375,0.01025390625,-0.9736328125,0.10888671875,8.4375,8.6875,-1.4375
2.9049999999999603,2.0,1.0,-3.0,-16.0,0.0,-5.0,-1.0,-1.0,0.32879638671875,0.576171875,-0.64031982421875,-0.38714599609375,0.01025390625,-0.9736328125,0.10888671875,8.4375,8.6875,-1.4375
2.90999999999996,0.0,-3.0,-9.0,-16.0,-9.0,24.0,2.0,-3.0,0.32879638671875,0.576171875,-0.64031982421875,-0.38714599609375,0.01025390625,-0.9736328125,0.10888671875,8.4375,8.6875,-1.4375
2.91499999999996,0.0,-3.0,-9.0,-16.0,-9.0,24.0,2.0,-3.0,0.32879638671875,0.576171875,-0.64031982421875,-0.38714599609375,0.01025390625,-0.9736328125,0.10888671875,8.4375,8.6875,-1.4375
2.91999999999996,0.0,0.0,4.0,10.0,26.0,5.0,-5.0,-1.0,0.3289794921875,0.574951171875,-0.640625,-0.38836669921875,0.017578125,-0.9677734375,0.11572265625,7.4375,6.75,-1.3125
2.92499999999996,0.0,0.0,4.0,10.0,26.0,5.0,-5.0,-1.0,0.3289794921875,0.574951171875,-0.640625,-0.38836669921875,0.017578125,-0.9677734375,0.11572265625,7.4375,6.75,-1.3125
2.9299999999999597,0.0,0.0,4.0,10.0,26.0,5.0,-5.0,-1.0,0.3289794921875,0.574951171875,-0.640625,-0.38836669921875,0.017578125,-0.9677734375,0.11572265625,7.4375,6.75,-1.3125
2.9349999999999596,0.0,0.0,4.0,10.0,26.0,5.0,-5.0,-1.0,0.3289794921875,0.574951171875,-0.640625,-0.38836669921875,0.017578125,-0.9677734375,0.11572265625,7.4375,6.75,-1.3125
2.9399999999999595,3.0,1.0,4.0,8.0,0.0,-16.0,-8.0,2.0,0.3289794921875,0.574951171875,-0.640625,-0.38836669921875,0.017578125,-0.9677734375,0.11572265625,7.4375,6.75,-1.3125
2.9449999999999594,3.0,1.0,4.0,8.0,0.0,-16.0,-8.0,2.0,0.328857421875,0.57373046875,-0.64105224609375,-0.3895263671875,0.0107421875,-0.9716796875,0.1298828125,7.9375,5.1875,-2.3125
2.9499999999999593,3.0,1.0,4.0,8.0,0.0,-16.0,-8.0,2.0,0.328857421875,0.57373046875,-0.64105224609375,-0.3895263671875,0.0107421875,-0.9716796875,0.1298828125,7.9375,5.1875,-2.3125
2.954999999999959,-2.0,0.0,1.0,7.0,-10.0,-4.0,13.0,4.0,0.32843017578125,0.5726318359375,-0.6416015625,-0.39056396484375,0.0166015625,-0.9794921875,0.12939453125,8.5625,3.0,-2.875
2.959999999999959,-2.0,0.0,1.0,7.0,-10.0,-4.0,13.0,4.0,0.32843017578125,0.5726318359375,-0.6416015625,-0.39056396484375,0.0166015625,-0.9794921875,0.12939453125,8.5625,3.0,-2.875
2.964999999999959,-2.0,0.0,1.0,7.0,-10.0,-4.0,13.0,4.0,0.32843017578125,0.5726318359375,-0.6416015625,-0.39056396484375,0.0166015625,-0.9794921875,0.12939453125,8.5625,3.0,-2.875
2.969999999999959,-2.0,0.0,1.0,7.0,-10.0,-4.0,13.0,4.0,0.32843017578125,0.5726318359375,-0.6416015625,-0.39056396484375,0.0166015625,-0.9794921875,0.12939453125,8.5625,3.0,-2.875
2.974999999999959,-1.0,-1.0,-2.0,-9.0,4.0,28.0,-4.0,-2.0,0.32843017578125,0.5726318359375,-0.6416015625,-0.39056396484375,0.0166015625,-0.9794921875,0.12939453125,8.5625,3.0,-2.875
2.9799999999999587,-1.0,-1.0,-2.0,-9.0,4.0,28.0,-4.0,-2.0,0.32843017578125,0.5726318359375,-0.6416015625,-0.39056396484375,0.0166015625,-0.9794921875,0.12939453125,8.5625,3.0,-2.875
2.9849999999999586,-3.0,-1.0,0.0,-8.0,-9.0,-1.0,-5.0,-1.0,0.32781982421875,0.57196044921875,-0.6419677734375,-0.3914794921875,0.0224609375,-0.99853515625,0.12060546875,7.375,1.6875,-3.5625
2.9899999999999585,-3.0,-1.0,0.0,-8.0,-9.0,-1.0,-5.0,-1.0,0.32781982421875,0.57196044921875,-0.6419677734375,-0.3914794921875,0.0224609375,-0.99853515625,0.12060546875,7.375,1.6875,-3.5625
2.9949999999999584,-3.0,-1.0,0.0,-8.0,-9.0,-1.0,-5.0,-1.0,0.32781982421875,0.57196044921875,-0.6419677734375,-0.3914794921875,0.0224609375,-0.99853515625,0.12060546875,7.375,1.6875,-3.5625
2.9999999999999583,-1.0,-2.0,-3.0,-3.0,-4.0,-7.0,-2.0,0.0,0.32781982421875,0.57196044921875,-0.6419677734375,-0.3914794921875,0.0224609375,-0.99853515625,0.12060546875,7.375,1.6875,-3.5625
3.004999999999958,-1.0,-1.0,-1.0,8.0,-4.0,10.0,-2.0,-4.0,0.32781982421875,0.57196044921875,-0.6419677734375,-0.3914794921875,0.0224609375,-0.99853515625,0.12060546875,7.375,1.6875,-3.5625
3.009999999999958,-1.0,-1.0,-1.0,8.0,-4.0,10.0,-2.0,-4.0,0.32781982421875,0.57196044921875,-0.6419677734375,-0.3914794921875,0.0224609375,-0.99853515625,0.12060546875,7.375,1.6875,-3.5625
3.014999999999958,-2.0,-2.0,-3.0,-3.0,2.0,5.0,0.0,-1.0,0.32720947265625,0.571533203125,-0.64215087890625,-0.392333984375,0.0224609375,-0.98876953125,0.12890625,5.4375,0.9375,-4.1875
3.019999999999958,1.0,0.0,6.0,2.0,10.0,-7.0,-1.0,0.0,0.32720947265625,0.571533203125,-0.64215087890625,-0.392333984375,0.0224609375,-0.98876953125,0.12890625,5.4375,0.9375,-4.1875
3.0249999999999577,1.0,0.0,6.0,2.0,10.0,-7.0,-1.0,0.0,0.32720947265625,0.571533203125,-0.64215087890625,-0.392333984375,0.0224609375,-0.98876953125,0.12890625,5.4375,0.9375,-4.1875
3.0299999999999576,-2.0,-1.0,-1.0,4.0,-20.0,9.0,4.0,0.0,0.32666015625,0.57147216796875,-0.64208984375,-0.39306640625,0.02734375,-0.99365234375,0.134765625,2.5625,0.75,-4.875
3.0349999999999575,-2.0,-1.0,-1.0,4.0,-20.0,9.0,4.0,0.0,0.32666015625,0.57147216796875,-0.64208984375,-0.39306640625,0.02734375,-0.99365234375,0.134765625,2.5625,0.75,-4.875
3.0399999999999574,-2.0,-1.0,-1.0,4.0,-20.0,9.0,4.0,0.0,0.32666015625,0.57147216796875,-0.64208984375,-0.39306640625,0.02734375,-0.99365234375,0.134765625,2.5625,0.75,-4.875
3.0449999999999573,-2.0,-1.0,-1.0,4.0,-20.0,9.0,4.0,0.0,0.32666015625,0.57147216796875,-0.64208984375,-0.39306640625,0.02734375,-0.99365234375,0.134765625,2.5625,0.75,-4.875
3.049999999999957,-1.0,-4.0,-9.0,-5.0,-9.0,-15.0,-12.0,-4.0,0.32666015625,0.57147216796875,-0.64208984375,-0.39306640625,0.02734375,-0.99365234375,0.134765625,2.5625,0.75,-4.875
3.054999999999957,-1.0,-4.0,-9.0,-5.0,-9.0,-15.0,-12.0,-4.0,0.32666015625,0.57147216796875,-0.64208984375,-0.39306640625,0.02734375,-0.99365234375,0.134765625,2.5625,0.75,-4.875
3.059999999999957,-1.0,-4.0,-9.0,-5.0,-9.0,-15.0,-12.0,-4.0,0.32598876953125,0.571533203125,-0.641845703125,-0.39385986328125,0.025390625,-0.98974609375,0.14404296875,1.1875,0.125,-5.875
3.064999999999957,1.0,0.0,-2.0,1.0,16.0,2.0,3.0,-2.0,0.32598876953125,0.571533203125,-0.641845703125,-0.39385986328125,0.025390625,-0.98974609375,0.14404296875,1.1875,0.125,-5.875
3.0699999999999568,1.0,0.0,-2.0,1.0,16.0,2.0,3.0,-2.0,0.32598876953125,0.571533203125,-0.641845703125,-0.39385986328125,0.025390625,-0.98974609375,0.14404296875,1.1875,0.125,-5.875
3.0749999999999567,1.0,0.0,-2.0,1.0,16.0,2.0,3.0,-2.0,0.32598876953125,0.571533203125,-0.641845703125,-0.39385986328125,0.025390625,-0.98974609375,0.14404296875,1.1875,0.125,-5.875
3.0799999999999566,-2.0,-1.0,5.0,3.0,-11.0,-20.0,-3.0,-1.0,0.32598876953125,0.571533203125,-0.641845703125,-0.39385986328125,0.025390625,-0.98974609375,0.14404296875,1.1875,0.125,-5.875
3.0849999999999564,-2.0,-1.0,5.0,3.0,-11.0,-20.0,-3.0,-1.0,0.32598876953125,0.571533203125,-0.641845703125,-0.39385986328125,0.025390625,-0.98974609375,0.14404296875,1.1875,0.125,-5.875
3.0899999999999563,0.0,-2.0,-1.0,2.0,6.0,23.0,7.0,0.0,0.3253173828125,0.5716552734375,-0.64166259765625,-0.39459228515625,0.021484375,-0.982421875,0.162109375,-0.25,0.0,-6.75
3.0949999999999562,0.0,-2.0,-1.0,2.0,6.0,23.0,7.0,0.0,0.3253173828125,0.5716552734375,-0.64166259765625,-0.39459228515625,0.021484375,-0.982421875,0.162109375,-0.25,0.0,-6.75
3.099999999999956,-1.0,0.0,1.0,7.0,5.0,-23.0,-7.0,-2.0,0.3253173828125,0.5716552734375,-0.64166259765625,-0.39459228515625,0.021484375,-0.982421875,0.162109375,-0.25,0.0,-6.75
3.104999999999956,-1.0,0.0,1.0,7.0,5.0,-23.0,-7.0,-2.0,0.3253173828125,0.5716552734375,-0.64166259765625,-0.39459228515625,0.021484375,-0.982421875,0.162109375,-0.25,0.0,-6.75
3.109999999999956,0.0,2.0,1.0,-4.0,-7.0,-14.0,-4.0,-2.0,0.32452392578125,0.57177734375,-0.64141845703125,-0.39532470703125,0.0146484375,-0.994140625,0.1650390625,-0.3125,-0.8125,-7.375
3.114999999999956,0.0,2.0,1.0,-4.0,-7.0,-14.0,-4.0,-2.0,0.32452392578125,0.57177734375,-0.64141845703125,-0.39532470703125,0.0146484375,-0.994140625,0.1650390625,-0.3125,-0.8125,-7.375
3.1199999999999557,0.0,2.0,1.0,-4.0,-7.0,-14.0,-4.0,-2.0,0.32452392578125,0.57177734375,-0.64141845703125,-0.39532470703125,0.0146484375,-0.994140625,0.1650390625,-0.3125,-0.8125,-7.375
3.1249999999999556,-2.0,-2.0,1.0,12.0,-2.0,9.0,2.0,1.0,0.32452392578125,0.57177734375,-0.64141845703125,-0.39532470703125,0.0146484375,-0.994140625,0.1650390625,-0.3125,-0.8125,-7.375
3.1299999999999555,-2.0,-2.0,1.0,12.0,-2.0,9.0,2.0,1.0,0.32452392578125,0.57177734375,-0.64141845703125,-0.39532470703125,0.0146484375,-0.994140625,0.1650390625,-0.3125,-0.8125,-7.375
3.1349999999999554,-2.0,-2.0,1.0,12.0,-2.0,9.0,2.0,1.0,0.32452392578125,0.57177734375,-0.64141845703125,-0.39532470703125,0.0146484375,-0.994140625,0.1650390625,-0.3125,-0.8125,-7.375
3.1399999999999553,-2.0,-4.0,0.0,-1.0,4.0,27.0,5.0,1.0,0.32366943359375,0.57196044921875,-0.6412353515625,-0.39605712890625,0.015625,-1.001953125,0.16943359375,-0.25,-1.0625,-8.0
3.144999999999955,-2.0,-4.0,0.0,-1.0,4.0,27.0,5.0,1.0,0.32366943359375,0.57196044921875,-0.6412353515625,-0.39605712890625,0.015625,-1.001953125,0.16943359375,-0.25,-1.0625,-8.0
3.149999999999955,-2.0,-4.0,0.0,-1.0,4.0,27.0,5.0,1.0,0.32366943359375,0.57196044921875,-0.6412353515625,-0.39605712890625,0.015625,-1.001953125,0.16943359375,-0.25,-1.0625,-8.0
3.154999999999955,-2.0,-4.0,0.0,-1.0,4.0,27.0,5.0,1.0,0.32366943359375,0.57196044921875,-0.6412353515625,-0.39605712890625,0.015625,-1.001953125,0.16943359375,-0.25,-1.0625,-8.0
3.159999999999955,-1.0,-1.0,-3.0,3.0,-10.0,-34.0,-6.0,-2.0,0.32366943359375,0.57196044921875,-0.6412353515625,-0.39605712890625,0.015625,-1.001953125,0.16943359375,-0.25,-1.0625,-8.0
3.1649999999999547,-1.0,-1.0,-3.0,3.0,-10.0,-34.0,-6.0,-2.0,0.32366943359375,0.57196044921875,-0.6412353515625,-0.39605712890625,0.015625,-1.001953125,0.16943359375,-0.25,-1.0625,-8.0
3.1699999999999546,-2.0,-2.0,-6.0,0.0,-5.0,-16.0,-12.0,-6.0,0.32257080078125,0.5718994140625,-0.64129638671875,-0.39697265625,0.0146484375,-1.0078125,0.181640625,1.625,-1.625,-8.4375
3.1749999999999545,-2.0,-4.0,-3.0,-5.0,11.0,-3.0,0.0,-1.0,0.32257080078125,0.5718994140625,-0.64129638671875,-0.39697265625,0.0146484375,-1.0078125,0.181640625,1.625,-1.625,-8.4375
3.1799999999999544,-2.0,-4.0,-3.0,-5.0,11.0,-3.0,0.0,-1.0,0.32257080078125,0.5718994140625,-0.64129638671875,-0.39697265625,0.0146484375,-1.0078125,0.181640625,1.625,-1.625,-8.4375
3.1849999999999543,-2.0,-4.0,-3.0,-5.0,11.0,-3.0,0.0,-1.0,0.32257080078125,0.5718994140625,-0.64129638671875,-0.39697265625,0.0146484375,-1.0078125,0.181640625,1.625,-1.625,-8.4375
3.189999999999954,2.0,2.0,6.0,0.0,1.0,-2.0,-1.0,2.0,0.32135009765625,0.57171630859375,-0.64166259765625,-0.397705078125,0.0126953125,-0.99755859375,0.18212890625,3.125,-2.625,-7.75
3.194999999999954,2.0,2.0,6.0,0.0,1.0,-2.0,-1.0,2.0,0.32135009765625,0.57171630859375,-0.64166259765625,-0.397705078125,0.0126953125,-0.99755859375,0.18212890625,3.125,-2.625,-7.75
3.199999999999954,2.0,2.0,6.0,0.0,1.0,-2.0,-1.0,2.0,0.32135009765625,0.57171630859375,-0.64166259765625,-0.397705078125,0.0126953125,-0.99755859375,0.18212890625,3.125,-2.625,-7.75
3.204999999999954,-2.0,-1.0,0.0,-6.0,0.0,-2.0,-4.0,0.0,0.32135009765625,0.57171630859375,-0.64166259765625,-0.397705078125,0.0126953125,-0.99755859375,0.18212890625,3.125,-2.625,-7.75
3.209999999999954,-2.0,-1.0,0.0,-6.0,0.0,-2.0,-4.0,0.0,0.32135009765625,0.57171630859375,-0.64166259765625,-0.397705078125,0.0126953125,-0.99755859375,0.18212890625,3.125,-2.625,-7.75
3.2149999999999537,-2.0,-1.0,4.0,2.0,-9.0,-6.0,-8.0,-3.0,0.320068359375,0.57135009765625,-0.64227294921875,-0.39825439453125,0.0126953125,-0.98583984375,0.18212890625,4.4375,-3.8125,-6.1875
3.2199999999999536,-2.0,-1.0,4.0,2.0,-9.0,-6.0,-8.0,-3.0,0.320068359375,0.57135009765625,-0.64227294921875,-0.39825439453125,0.0126953125,-0.98583984375,0.18212890625,4.4375,-3.8125,-6.1875
3.2249999999999535,-2.0,-1.0,4.0,2.0,-9.0,-6.0,-8.0,-3.0,0.320068359375,0.57135009765625,-0.64227294921875,-0.39825439453125,0.0126953125,-0.98583984375,0.18212890625,4.4375,-3.8125,-6.1875
3.2299999999999534,-2.0,-1.0,4.0,2.0,-9.0,-6.0,-8.0,-3.0,0.320068359375,0.57135009765625,-0.64227294921875,-0.39825439453125,0.0126953125,-0.98583984375,0.18212890625,4.4375,-3.8125,-6.1875
3.2349999999999532,0.0,-1.0,0.0,1.0,4.0,15.0,8.0,1.0,0.320068359375,0.57135009765625,-0.64227294921875,-0.39825439453125,0.0126953125,-0.98583984375,0.18212890625,4.4375,-3.8125,-6.1875
3.239999999999953,0.0,-1.0,0.0,1.0,4.0,15.0,8.0,1.0,0.320068359375,0.57135009765625,-0.64227294921875,-0.39825439453125,0.0126953125,-0.98583984375,0.18212890625,4.4375,-3.8125,-6.1875
3.244999999999953,0.0,-1.0,0.0,1.0,4.0,15.0,8.0,1.0,0.31890869140625,0.5709228515625,-0.6431884765625,-0.3983154296875,0.0185546875,-0.96923828125,0.1767578125,5.0625,-5.0625,-3.125
3.249999999999953,0.0,-3.0,-4.0,-4.0,-4.0,-25.0,-5.0,0.0,0.31890869140625,0.5709228515625,-0.6431884765625,-0.3983154296875,0.0185546875,-0.96923828125,0.1767578125,5.0625,-5.0625,-3.125
3.254999999999953,0.0,-3.0,-4.0,-4.0,-4.0,-25.0,-5.0,0.0,0.31890869140625,0.5709228515625,-0.6431884765625,-0.3983154296875,0.0185546875,-0.96923828125,0.1767578125,5.0625,-5.0625,-3.125
