timestamp,ch1,ch2,ch3,ch4,ch5,ch6,ch7,ch8,noise
0.005,0,-12,-27,-53,-13,-4,0,1,0.0
0.01,6,3,26,90,19,6,8,1,0.0
0.015,-2,-19,-33,-7,9,5,-2,-2,0.0
0.02,-7,-40,-83,-92,-49,-30,-18,-4,0.0
0.025,0,25,31,43,-2,4,2,2,0.0
0.03,0,1,27,48,-4,1,-1,-1,0.0
0.035,4,0,-3,50,15,-4,-2,0,0.0
0.04,1,14,29,24,20,13,8,-1,0.0
0.045,2,3,-9,28,16,14,7,-4,0.0
0.05,0,3,-4,-30,-16,-1,-1,0,0.0
0.055,-6,3,24,-12,-13,-10,0,2,0.0
0.06,5,-10,-32,-29,4,0,-1,2,0.0
0.065,-2,-13,-57,-66,-16,-7,-9,-3,0.0
0.07,-2,17,77,47,6,5,-2,0,0.0
0.075,3,-1,-15,10,0,3,3,-1,0.0
0.08,0,0,23,1,-3,-1,0,-4,0.0
0.085,-2,12,24,61,15,1,0,2,0.0
0.09,-1,-12,-37,-3,-3,5,-2,-1,0.0
0.095,-7,-16,-48,-108,-39,-15,-13,1,0.0
0.1,-2,14,51,65,20,2,2,-1,0.0
0.105,7,0,44,61,10,6,7,5,0.0
0.11,-6,-4,-95,-45,10,-6,-11,-4,0.0
0.115,2,20,102,90,10,3,5,-4,0.0
0.12,-3,-1,-15,-52,-8,9,2,3,0.0
0.125,0,-2,-15,-52,-19,-12,-2,-5,0.0
0.13,-3,-15,-8,-51,-17,-18,-6,3,0.0
0.135,1,9,55,79,30,7,-1,2,0.0
0.14,1,7,8,36,15,9,4,-2,0.0
0.145,1,17,27,73,4,10,4,0,0.0
0.15,0,13,9,-3,-21,-2,-2,-7,0.0
0.155,-1,-28,-116,-113,-14,-6,-9,-6,0.0
0.16,-3,-10,15,22,24,-2,2,7,0.0
0.165,1,-7,-11,-22,9,3,3,0,0.0
0.17,2,3,18,-17,-6,-3,-4,0,0.0
0.17500000000000002,4,36,66,127,12,13,12,-1,0.0
0.18,-4,-44,-112,-112,-34,-11,-10,-3,0.0
0.185,-3,-8,-21,-95,-20,-9,-16,-6,0.0
0.19,-1,22,63,121,38,14,14,0,0.0
0.195,3,-32,-78,-125,-38,-10,-9,7,0.0
0.2,-7,28,40,22,3,-4,0,-4,0.0
0.20500000000000002,2,-5,5,57,11,-1,6,0,0.0
0.21,1,-10,-58,-44,10,8,0,4,0.0
0.215,-4,-1,32,64,-3,-6,2,-4,0.0
0.22,0,7,61,40,4,-2,-2,-4,0.0
0.225,-6,-22,-49,6,-17,-6,-3,-3,0.0
0.23,-8,3,48,-7,-16,-13,-10,-7,0.0
0.23500000000000001,2,26,62,111,44,19,10,11,0.0
0.24,2,-44,-86,-128,-32,-15,-1,2,0.0
0.245,-3,22,97,65,3,-4,-14,-13,0.0
0.25,0,-11,-40,29,15,4,6,12,0.0
0.255,-3,-7,-26,-32,-18,-12,-16,-4,0.0
0.26,-1,7,-9,15,2,12,3,4,0.0
0.265,2,6,27,1,13,0,4,-2,0.0
0.27,4,-35,-68,-72,-20,-9,4,-1,0.0
0.275,-8,16,13,-4,7,6,12,-4,0.0
0.28,4,40,90,127,36,15,10,-2,0.0
0.28500000000000003,-3,-58,-25,-101,-65,-31,-23,0,0.0
0.29,-5,39,118,112,26,15,10,-7,0.0
0.295,1,-12,-47,-16,-6,6,-3,6,0.0
0.3,-1,12,40,34,3,2,-4,-7,0.0
0.305,-2,7,21,-7,24,6,7,2,0.0
0.31,2,-7,-2,0,2,-3,-4,-2,0.0
0.315,0,7,7,32,-4,-5,-4,-3,0.0
0.32,-1,-19,-82,-70,-19,-8,-4,1,0.0
0.325,-5,27,35,12,14,12,8,0,0.0
0.33,6,-27,-32,-20,-15,-5,-7,-1,0.0
0.335,-8,-19,-8,-57,-37,-16,3,-5,0.0
0.34,-1,12,24,81,9,-4,-11,-4,0.0
0.34500000000000003,-1,-36,-105,-76,-20,-9,0,6,0.0
0.35000000000000003,1,-2,-40,41,16,14,1,-2,0.0
0.355,2,-15,-56,-70,-10,-5,-7,1,0.0
0.36,-9,-36,4,-7,-30,-18,-11,-2,0.0
0.365,-2,26,12,1,11,3,23,-3,0.0
0.37,-2,16,-50,19,3,9,6,4,0.0
0.375,-1,-19,16,-43,-14,-5,-23,-5,0.0
0.38,3,29,12,20,27,11,23,1,0.0
0.385,-3,-19,-53,50,-5,-2,-7,3,0.0
0.39,-1,-7,7,-57,-19,-12,13,-2,0.0
0.395,1,11,27,36,19,3,-11,-6,0.0
0.4,-1,10,25,5,3,9,1,-3,0.0
0.405,1,8,4,34,11,6,2,1,0.0
0.41000000000000003,-1,-12,16,-72,-38,-12,-8,1,0.0
0.41500000000000004,-3,20,27,63,38,6,11,-6,0.0
0.42,3,-8,22,39,16,2,0,0,0.0
0.425,0,-10,19,-45,-14,-6,-23,1,0.0
0.43,0,17,37,52,14,7,-6,-1,0.0
0.435,-1,-33,-26,-89,-46,-25,-2,-5,0.0
0.44,-1,19,12,65,13,7,18,-2,0.0
0.445,2,-47,-55,-77,-39,-16,-33,7,0.0
0.45,4,12,85,98,14,7,2,-2,0.0
0.455,-2,-28,-13,-50,-19,-9,-5,2,0.0
0.46,3,16,-5,-1,0,1,11,1,0.0
0.465,2,4,-20,39,16,-4,-15,-3,0.0
0.47000000000000003,-5,5,-34,-47,-2,2,33,-2,0.0
0.47500000000000003,-2,-5,27,44,8,-1,-29,-8,0.0
0.48,3,-20,-37,-53,-14,-5,1,3,0.0
0.485,0,14,24,-7,8,9,4,-3,0.0
0.49,-3,-13,-16,-36,-10,-11,-8,-6,0.0
0.495,1,19,17,17,7,9,22,3,0.0
0.5,2,-6,-11,-39,-5,-10,-29,-3,0.0
0.505,-1,9,-2,87,16,8,25,-1,0.0
0.51,-5,-10,-12,-28,-4,-10,-37,-7,0.0
0.515,3,14,77,80,12,6,27,7,0.0
0.52,-2,-21,-56,-94,-38,-17,-21,-7,0.0
0.525,1,21,24,42,17,11,11,-5,0.0
0.53,-10,-4,-29,49,18,2,-5,6,0.0
0.535,1,0,-34,-23,-5,6,19,-5,0.0
0.54,-4,3,53,36,7,4,-20,6,0.0
0.545,-4,-1,33,-16,-8,-7,-32,-24,0.0
0.55,4,-7,-4,12,7,2,10,4,0.0
0.555,1,-8,-37,-28,-5,-4,5,2,0.0
0.56,0,2,14,3,-1,3,7,21,0.0
0.5650000000000001,-7,-11,-36,11,-5,10,47,-7,0.0
0.5700000000000001,2,-15,-11,-50,-13,-13,-82,0,0.0
0.5750000000000001,-6,15,24,28,13,10,19,2,0.0
0.58,9,-19,-8,-28,-18,-23,-39,-15,0.0
0.585,-12,12,14,15,14,11,77,18,0.0
0.59,-1,-22,29,3,-14,-22,-89,-24,0.0
0.595,5,7,-13,8,8,5,53,17,0.0
0.6,-7,-10,8,18,-6,6,-24,-31,0.0
0.605,6,-8,-52,-69,-4,-7,4,19,0.0
0.61,-2,21,32,55,8,10,60,4,0.0
0.615,5,-13,-36,-56,-13,-6,-77,-4,0.0
0.62,-5,17,-25,28,16,17,70,12,0.0
0.625,2,6,39,42,9,-2,-8,-5,0.0
0.63,16,-7,-16,-28,-10,-6,-52,3,0.0
0.635,-10,4,8,18,1,-11,18,-20,0.0
0.64,3,6,-21,2,9,-1,6,15,0.0
0.645,-4,-18,17,-35,-12,3,-11,-4,0.0
0.65,0,9,1,-7,-3,2,24,13,0.0
0.655,-1,-5,7,5,1,-3,-34,-4,0.0
0.66,1,-22,-5,-24,-14,-17,-21,-17,0.0
0.665,1,10,27,30,3,1,3,3,0.0
0.67,-4,-2,-22,-14,0,4,24,-1,0.0
0.675,0,-3,2,-8,-1,6,8,11,0.0
0.68,-3,5,17,-5,1,9,35,15,0.0
0.685,6,-9,1,12,-4,-19,-96,-28,0.0
0.6900000000000001,-8,9,-19,-11,0,3,43,3,0.0
0.6950000000000001,-7,-7,14,-3,-7,-8,-13,-16,0.0
0.7000000000000001,-4,-3,8,-4,-4,0,7,0,0.0
0.705,7,4,2,9,5,0,-3,0,0.0
0.71,-7,-3,-12,-13,1,3,18,1,0.0
0.715,-2,0,3,3,-2,-5,-12,-2,0.0
0.72,0,1,-13,-20,-13,-3,-19,-2,0.0
0.725,-5,5,25,14,-1,4,16,6,0.0
0.73,-3,-2,-9,-1,7,-10,-1,-9,0.0
0.735,3,-3,-10,2,9,5,7,2,0.0
0.74,-1,-7,14,-2,3,1,-11,-1,0.0
0.745,-4,5,-13,-1,-2,-3,-2,1,0.0
0.75,-2,-5,-1,-27,-20,-4,2,-3,0.0
0.755,3,-3,-5,17,1,-1,-9,2,0.0
0.76,-6,-1,-2,-20,-4,-2,3,-4,0.0
0.765,-1,-2,6,-17,-5,-1,-3,2,0.0
0.77,7,-2,6,11,0,1,-1,3,0.0
0.775,-3,1,-12,-7,-3,-1,9,3,0.0
0.78,-1,-4,3,15,0,-3,-9,-8,0.0
0.785,0,0,-6,4,-2,-2,-1,10,0.0
0.79,-2,0,2,-7,-1,3,9,-5,0.0
0.795,0,-9,5,0,2,-6,2,-1,0.0
0.8,-2,1,-2,1,-1,-1,0,-1,0.0
0.805,0,-2,-1,-2,-1,-2,-5,-5,0.0
0.81,1,-1,-4,-4,-1,-1,0,1,0.0
0.8150000000000001,-3,0,2,-4,-5,-3,-6,2,0.0
0.8200000000000001,1,-4,1,-7,-1,-1,-4,-5,0.0
0.8250000000000001,-2,0,-4,-1,0,1,4,0,0.0
0.8300000000000001,-2,-4,4,6,-3,1,-4,-5,0.0
0.835,1,2,3,4,1,-1,-1,-2,0.0
0.84,1,-2,3,-1,3,2,4,1,0.0
0.845,5,-3,1,8,3,-3,1,2,0.0
0.85,-3,-2,-2,-1,0,-2,1,0,0.0
0.855,2,-1,4,-11,-6,-2,-6,-1,0.0
0.86,0,-2,-8,-4,-4,-1,-2,-2,0.0
0.865,2,2,-3,7,4,1,0,-1,0.0
0.87,1,-4,5,-4,-1,-2,-3,0,0.0
0.875,-5,0,1,-10,-5,-4,0,1,0.0
0.88,-3,0,-1,1,-1,-5,-3,0,0.0
0.885,-2,0,-1,-2,-2,-2,-2,-2,0.0
0.89,1,-4,5,1,-1,7,3,-2,0.0
0.895,0,-7,2,-1,3,1,2,0,0.0
0.9,1,0,2,2,3,-2,5,2,0.0
0.905,0,-3,-1,-1,-3,-2,-5,0,0.0
0.91,-1,-2,-3,-3,-4,-2,-7,-4,0.0
0.915,0,6,-2,-6,-11,0,-9,3,0.0
0.92,3,-2,4,0,0,1,9,4,0.0
0.925,-6,-7,1,3,6,-3,3,-2,0.0
0.93,-5,-3,-1,6,1,0,-2,-3,0.0
0.935,-1,-5,0,-7,-6,-2,-3,-2,0.0
0.9400000000000001,-1,2,-2,-4,-3,-1,-8,-3,0.0
0.9450000000000001,2,2,2,-6,-3,3,3,5,0.0
0.9500000000000001,-4,3,-3,-1,0,-2,0,1,0.0
0.9550000000000001,1,5,0,-5,-5,0,0,0,0.0
0.96,6,-24,-1,-7,-16,0,-4,3,0.0
0.965,2,-11,2,-12,-3,-1,-2,-3,0.0
0.97,-5,14,6,-8,14,-4,0,-4,0.0
0.975,-4,2,-8,25,-1,2,2,0,0.0
0.98,-7,-9,5,17,-3,2,-6,-3,0.0
0.985,-1,3,2,7,6,2,0,8,0.0
0.99,11,-3,-3,-6,-3,-4,0,6,0.0
0.995,-11,9,-2,-5,13,-5,-2,-15,0.0
1.0,-8,0,-4,-8,-3,-1,3,-7,0.0
1.0050000000000001,11,3,-1,4,-4,8,14,38,0.0
1.01,-1,14,4,7,7,4,2,53,0.0
1.0150000000000001,-10,-26,7,-11,-23,-15,-26,-79,0.0
1.02,-20,-8,-6,-7,1,-3,-1,-27,0.0
1.025,13,17,9,2,8,5,10,22,0.0
1.03,14,20,-5,-6,3,8,14,41,0.0
1.035,-13,-46,-7,-5,-5,-4,-8,-24,0.0
1.04,-20,4,-18,-10,6,4,15,72,0.0
1.045,46,-11,-6,4,2,-5,-11,-13,0.0
1.05,-62,-27,-7,8,-18,-24,-49,-34,0.0
1.055,6,2,5,3,4,-4,-6,63,0.0
1.06,3,10,0,1,3,0,5,-4,0.0
1.065,10,9,-1,-1,0,8,23,80,0.0
1.07,18,2,-1,0,-6,6,8,-21,0.0
1.075,-1,1,2,-5,-2,0,-4,-15,0.0
1.08,11,7,4,2,0,1,2,4,0.0
1.085,-14,6,-1,-4,-4,1,-4,-17,0.0
1.09,0,-18,0,-5,-5,-4,-1,-35,0.0
1.095,-5,3,-2,-5,2,2,-4,3,0.0
1.1,10,8,1,-6,-3,-7,-6,-2,0.0
1.105,-15,-13,1,-4,-4,-2,-8,-30,0.0
1.11,2,-7,-2,0,5,3,5,-24,0.0
1.115,-2,15,1,6,6,9,14,42,0.0
1.12,13,-1,-4,-3,-5,-2,-9,-3,0.0
1.125,-13,-11,-2,0,-1,-15,-14,-40,0.0
1.1300000000000001,24,-2,4,2,5,3,11,20,0.0
1.135,-2,-5,0,0,4,3,11,1,0.0
1.1400000000000001,-19,-12,1,8,-7,-3,-9,-19,0.0
1.145,-8,6,-4,-2,0,-4,-8,-5,0.0
1.1500000000000001,15,-3,-6,-5,-8,1,4,17,0.0
1.155,9,9,5,-3,-10,-4,-3,7,0.0
1.16,-5,3,-5,3,3,-2,-9,-16,0.0
1.165,-4,0,-1,-1,-3,0,1,-4,0.0
1.17,6,6,1,-2,1,-3,0,3,0.0
1.175,-1,-4,-1,-4,1,0,0,-4,0.0
1.18,3,0,6,-2,2,1,1,3,0.0
1.185,-4,-3,-13,12,1,2,-4,2,0.0
1.19,-5,-19,6,-2,-5,-2,-1,-7,0.0
1.195,-1,10,-8,-2,1,-1,1,1,0.0
1.2,3,1,-9,-3,-3,-2,-1,1,0.0
1.205,-7,-17,-4,-15,-4,-3,-5,-7,0.0
1.21,-3,-1,3,14,3,1,-3,-5,0.0
1.215,1,2,0,0,4,1,3,6,0.0
1.22,3,8,13,7,7,2,-2,4,0.0
1.225,1,6,34,10,-9,1,-2,-7,0.0
1.23,-8,-16,-61,22,-5,-4,-1,1,0.0
1.235,5,-12,-52,-72,-4,0,5,6,0.0
1.24,-3,-23,-12,-7,-14,-12,-12,-7,0.0
1.245,-7,18,25,-2,-2,-5,0,-4,0.0
1.25,8,-1,25,25,-8,-2,2,6,0.0
1.2550000000000001,19,42,71,78,23,16,8,7,0.0
1.26,-41,-15,-32,-4,-3,0,-5,-17,0.0
1.2650000000000001,-6,-66,-117,-94,-24,-18,-11,-4,0.0
1.27,2,-7,80,-25,-6,5,1,3,0.0
1.2750000000000001,0,-5,18,0,-4,-7,-1,-1,0.0
1.28,23,26,40,18,7,5,5,7,0.0
1.285,-13,17,32,25,5,-3,1,-5,0.0
1.29,-11,-3,-73,-31,-1,-2,1,-10,0.0
1.295,3,-4,2,-4,-4,-3,-2,2,0.0
1.3,-3,-6,1,-12,1,0,2,1,0.0
1.305,-2,8,-2,24,0,1,0,-3,0.0
1.31,8,0,13,-11,8,10,6,3,0.0
1.315,-5,-1,-1,4,-1,-3,-2,1,0.0
1.32,3,-1,0,4,-2,-6,-4,-4,0.0
1.325,2,-5,-14,-4,1,3,-2,-3,0.0
1.33,-7,4,26,4,-6,-7,-6,-1,0.0
1.335,-1,0,-12,1,0,-1,2,-2,0.0
1.34,10,-12,-2,-6,2,1,5,3,0.0
1.345,2,-5,25,9,1,0,-5,-1,0.0
1.35,-4,8,6,3,1,-2,-4,0,0.0
1.355,-5,-15,-25,1,-10,-2,-5,-2,0.0
1.36,10,3,21,-14,-8,-2,-4,2,0.0
1.365,-3,5,5,14,3,2,-3,2,0.0
1.37,-4,-24,-68,-30,-14,-11,-7,-1,0.0
1.375,0,9,33,2,-5,-1,-4,-6,0.0
1.3800000000000001,1,-3,11,5,5,1,5,1,0.0
1.385,7,-7,8,-9,6,8,5,5,0.0
1.3900000000000001,-1,-9,10,7,3,-6,-3,-2,0.0
1.395,-4,0,2,-3,-8,-8,-6,-2,0.0
1.4000000000000001,0,11,1,-4,1,1,-3,-3,0.0
1.405,-1,6,-7,9,-6,0,-3,-1,0.0
1.41,2,4,28,7,2,5,2,0,0.0
1.415,1,-15,-41,-20,1,-7,2,3,0.0
1.42,-1,1,-9,13,1,-3,-4,-2,0.0
1.425,3,-3,19,-6,-9,-6,-3,-1,0.0
1.43,-4,-6,-3,1,-2,4,-4,-2,0.0
1.435,-1,20,20,11,-6,2,2,-5,0.0
1.44,2,-16,-15,-12,-3,-2,1,0,0.0
1.445,-4,-8,-6,13,19,2,4,2,0.0
1.45,-2,9,8,6,5,-1,-1,-3,0.0
1.455,0,1,29,10,3,4,2,2,0.0
1.46,1,-6,-31,-23,-14,-6,-6,-2,0.0
1.465,-3,7,10,-1,-15,-7,3,-3,0.0
1.47,-2,-5,-5,1,-1,3,-15,-3,0.0
1.475,1,3,7,10,15,3,11,7,0.0
1.48,-6,-6,10,3,3,1,2,-2,0.0
1.485,1,12,41,11,2,1,-1,0,0.0
1.49,-2,-14,-72,-17,-11,-14,-8,-6,0.0
1.495,-8,1,0,-3,-10,-2,-7,-5,0.0
1.5,0,-1,-6,-1,3,1,0,3,0.0
1.5050000000000001,-2,5,-10,-6,0,-2,-2,-1,0.0
1.51,6,14,17,15,2,2,3,-1,0.0
1.5150000000000001,-7,-22,-12,-1,-1,0,-2,-5,0.0
1.52,4,5,-15,6,3,-1,2,-3,0.0
1.5250000000000001,0,7,-2,-11,-2,-1,1,-3,0.0
1.53,-4,5,13,-3,0,-1,5,-2,0.0
1.5350000000000001,4,-5,-14,-7,-1,-2,-3,0,0.0
1.54,-5,-7,6,13,2,1,-1,0,0.0
1.545,-2,-16,-23,-27,-11,-2,-3,-2,0.0
1.55,2,-4,13,3,2,0,1,-1,0.0
1.555,4,11,-19,-3,-2,-2,-1,-1,0.0
1.56,-4,6,10,0,-4,-1,0,-3,0.0
1.565,0,-5,8,12,4,2,-4,-3,0.0
1.57,-5,-2,-23,-10,-8,-6,-1,0,0.0
1.575,-2,-6,29,-2,3,1,1,-2,0.0
1.58,3,-9,1,-9,4,2,2,2,0.0
1.585,-2,3,6,5,-1,0,-1,1,0.0
1.59,-7,6,25,5,-1,-2,-2,-3,0.0
1.595,1,-1,-5,-1,-5,-5,-6,-5,0.0
1.6,3,5,3,-1,0,1,3,-1,0.0
1.605,0,-6,7,4,2,0,-1,-2,0.0
1.61,-3,0,14,0,-1,-3,0,-2,0.0
1.615,-2,-3,-22,-6,-4,-1,-3,2,0.0
1.62,-2,-10,1,-11,-2,-5,-4,-2,0.0
1.625,-2,-2,-18,2,2,-1,-2,-4,0.0
1.6300000000000001,0,5,5,-1,-1,2,3,0,0.0
1.635,0,-3,-5,-5,-3,-2,-4,-4,0.0
1.6400000000000001,-2,7,-13,4,-5,-1,-4,2,0.0
1.645,-1,6,9,2,-5,0,1,0,0.0
1.6500000000000001,1,-1,-16,-3,4,-4,1,1,0.0
1.655,5,-9,9,2,3,1,4,2,0.0
1.6600000000000001,-7,-4,2,-2,-3,-3,-4,-2,0.0
1.665,-2,1,-8,-8,-6,-4,-7,-4,0.0
1.67,-4,-2,2,-13,-13,-2,-1,-2,0.0
1.675,1,-4,-2,-1,4,3,4,4,0.0
1.68,4,-5,-6,11,8,-11,2,1,0.0
1.685,-2,-5,-2,1,4,5,0,1,0.0
1.69,-3,-6,-2,-1,0,1,-3,1,0.0
1.695,-4,-8,-16,-10,-15,-3,-9,-4,0.0
1.7,1,4,1,-5,-5,0,-4,0,0.0
1.705,4,2,5,8,7,1,3,-1,0.0
1.71,-1,-4,8,-13,-3,-7,0,1,0.0
1.715,-1,-3,0,9,3,4,3,2,0.0
1.72,-3,-1,-2,-3,-2,-1,-1,-1,0.0
1.725,-2,-2,-12,-1,-2,-3,-4,1,0.0
1.73,2,0,6,5,-2,3,-3,3,0.0
1.735,-2,0,-3,-3,-4,-6,-4,2,0.0
1.74,4,1,3,3,1,3,4,1,0.0
1.745,2,-7,-2,-1,7,0,5,4,0.0
1.75,0,1,6,1,2,-2,-1,0,0.0
1.7550000000000001,1,2,15,-6,-5,-5,-7,-5,0.0
1.76,-1,0,-1,-1,-6,2,-5,-1,0.0
1.7650000000000001,-1,-2,0,3,-3,0,4,3,0.0
1.77,-2,2,5,2,5,0,1,0,0.0
1.7750000000000001,0,-3,8,3,-4,0,-3,0,0.0
1.78,0,-3,-2,2,1,-3,-5,-4,0.0
1.7850000000000001,-5,-4,-12,-4,-4,-6,-5,-3,0.0
1.79,1,1,-10,3,0,1,0,-3,0.0
1.795,-3,-2,-24,3,2,0,0,0,0.0
1.8,-2,-6,-13,-8,-5,-1,-2,0,0.0
1.805,-1,12,14,11,2,1,0,-2,0.0
1.81,-5,-10,-42,-4,-1,-2,-3,-2,0.0
1.815,-1,4,29,-8,-3,-2,0,-2,0.0
1.82,-4,-13,-14,-1,-2,0,-2,1,0.0
1.825,2,0,11,-6,-5,-4,-5,-3,0.0
1.83,-2,3,16,2,-1,-2,-2,-2,0.0
1.835,-2,-6,-5,4,1,4,4,1,0.0
1.84,7,14,-4,-1,7,1,5,-1,0.0
1.845,-5,-6,6,8,-2,-5,-4,-2,0.0
1.85,-4,5,7,5,-5,-6,-6,-5,0.0
1.855,4,-11,-24,-48,-6,1,-1,-3,0.0
1.86,1,-1,21,6,3,0,3,0,0.0
1.865,2,-7,0,0,0,0,-2,1,0.0
1.87,3,4,25,8,4,3,-1,0,0.0
1.875,-25,-6,-5,5,-7,-7,-9,-5,0.0
1.8800000000000001,3,2,3,-2,-8,-4,-3,-4,0.0
1.885,-1,-1,-17,-6,-1,0,4,-2,0.0
1.8900000000000001,-3,-2,-16,3,5,0,3,2,0.0
1.895,6,1,-12,7,3,2,0,-1,0.0
1.9000000000000001,-5,-3,-9,0,-1,1,-4,-1,0.0
1.905,-4,-6,-6,-2,-4,-3,-4,-1,0.0
1.9100000000000001,4,-2,5,-7,-2,-1,3,-2,0.0
1.915,3,-2,2,5,3,-1,1,1,0.0
1.92,-5,4,23,4,-5,-4,-6,0,0.0
1.925,10,40,-5,-14,1,3,2,-2,0.0
1.93,-3,-9,-6,-5,-2,1,4,2,0.0
1.935,4,-7,3,4,3,0,0,1,0.0
1.94,3,42,5,0,-3,-5,-5,-2,0.0
1.945,-7,-7,7,-1,-2,-4,-5,-3,0.0
1.95,-7,-35,-14,0,1,3,-1,-3,0.0
1.955,-2,46,21,11,-2,-7,-5,-1,0.0
1.96,4,5,0,-11,-3,3,4,0,0.0
1.965,-4,-4,10,0,-1,-1,-3,-1,0.0
1.97,4,-2,14,-2,-3,-3,-2,-1,0.0
1.975,0,4,11,0,-1,-3,-2,-1,0.0
1.98,-4,-38,6,-1,0,-2,-5,-2,0.0
1.985,3,-1,-16,0,6,6,3,1,0.0
1.99,-6,8,-9,-2,-7,-3,-1,-1,0.0
1.995,-3,-14,-30,2,-1,0,4,0,0.0
2.0,-3,-10,-13,0,-2,-3,-1,0,0.0
2.005,-1,-14,-16,-2,-2,-2,-1,2,0.0
2.0100000000000002,-1,6,10,1,1,-1,-2,-1,0.0
2.015,2,-2,2,-7,2,0,0,0,0.0
2.02,-3,-3,6,1,-4,-2,-2,-4,0.0
2.025,-7,-61,14,-1,-3,-4,-4,-6,0.0
2.0300000000000002,12,29,-2,-2,0,0,0,8,0.0
2.035,1,-13,7,-1,-4,-2,-4,-1,0.0
2.04,-4,-2,1,0,1,0,1,-2,0.0
2.045,-3,-1,0,-2,-2,-3,-4,-3,0.0
2.05,0,-23,1,-2,1,-2,-1,1,0.0
2.055,0,-5,-10,2,1,1,-2,-2,0.0
2.06,2,-7,0,-3,-1,0,1,3,0.0
2.065,-1,8,1,18,2,-1,1,1,0.0
2.07,1,32,-2,-7,1,1,1,-6,0.0
2.075,-1,-4,2,-6,-6,-6,-4,-1,0.0
2.08,-2,-4,1,4,-1,-1,1,-3,0.0
2.085,2,-1,-12,-20,-5,-4,-3,-1,0.0
2.09,-4,-2,2,20,2,2,-1,-3,0.0
2.095,0,-6,16,29,4,2,2,1,0.0
2.1,-3,-7,-24,-48,-5,-3,-4,-2,0.0
2.105,1,2,4,-6,-10,-5,-4,-2,0.0
2.11,0,1,-5,-5,-1,-1,-1,3,0.0
2.115,1,-22,16,7,5,0,0,-5,0.0
2.12,-1,-4,4,20,4,1,1,2,0.0
2.125,-4,6,-6,-2,0,1,2,2,0.0
2.13,-2,-6,-4,-5,-4,-1,-2,-3,0.0
2.1350000000000002,-1,2,-2,8,2,1,-2,0,0.0
2.14,-2,-2,6,-9,-6,-5,-4,0,0.0
2.145,0,-10,-6,-16,-1,-1,-1,-1,0.0
2.15,-5,-4,10,7,-4,-3,-3,-4,0.0
2.1550000000000002,-1,2,-12,-2,-1,1,1,3,0.0
2.16,0,3,-3,-1,-2,-2,-3,0,0.0
2.165,2,19,-2,11,1,-1,-1,-1,0.0
2.17,2,-19,-3,-2,-2,-1,-1,-1,0.0
2.1750000000000003,-2,-5,-9,-18,-1,-2,0,-4,0.0
2.18,-1,-4,4,7,-2,-2,-3,2,0.0
2.185,-4,-6,2,1,-3,-3,-2,-2,0.0
2.19,-5,8,-3,-4,-1,0,-1,0,0.0
2.195,-3,-2,-6,-8,-4,-5,0,-3,0.0
2.2,-2,-18,-1,6,5,1,0,-1,0.0
2.205,-3,-2,0,2,-2,0,-1,-2,0.0
2.21,-2,-1,-2,-5,-1,-3,0,-2,0.0
2.215,-1,-3,-6,-4,1,2,-1,1,0.0
2.22,-3,-3,-1,5,-3,1,0,1,0.0
2.225,-1,1,-1,-1,-1,-1,-3,0,0.0
2.23,-4,0,-4,-1,2,-1,-1,-1,0.0
2.235,0,7,-1,-9,-4,-3,-3,2,0.0
2.24,0,7,-1,0,1,2,-1,-4,0.0
2.245,-2,-2,0,1,0,3,2,-3,0.0
2.25,0,2,0,0,-2,-2,-1,-2,0.0
2.255,0,-4,-1,-2,-2,1,-2,-2,0.0
2.2600000000000002,1,6,-2,-2,-1,-1,-1,-1,0.0
2.265,-2,-6,-6,-3,-2,-2,0,-1,0.0
2.27,-3,-8,1,-1,-1,-1,-1,-2,0.0
2.275,0,1,-2,-3,-2,-3,-1,-1,0.0
2.2800000000000002,-1,2,2,0,-2,-4,1,-4,0.0
2.285,-3,7,-2,1,-3,0,-1,0,0.0
2.29,3,-6,3,0,0,0,-2,0,0.0
2.295,-3,2,-1,-4,-2,-1,-1,0,0.0
2.3000000000000003,-2,1,-3,-2,-1,-2,-2,-2,0.0
2.305,-1,-10,2,0,1,0,1,-1,0.0
2.31,0,-6,-3,-3,-1,1,1,-2,0.0
2.315,-1,0,-3,-1,-3,-1,-2,0,0.0
2.32,2,-4,0,-1,-1,-1,-1,-1,0.0
2.325,2,6,-1,-2,-3,-3,-2,1,0.0
2.33,-1,4,0,-3,-2,-2,-2,-1,0.0
2.335,0,-4,1,3,-1,-2,-3,2,0.0
2.34,0,-7,-10,-4,1,0,-2,-1,0.0
2.345,-1,-26,-3,0,-1,-2,0,0,0.0
2.35,1,22,-1,-1,-1,0,0,-3,0.0
2.355,-2,-1,2,0,-2,-3,0,-2,0.0
2.36,0,-2,2,0,-3,0,0,0,0.0
2.365,1,-1,-3,-2,-1,-2,-4,-3,0.0
2.37,1,-1,-2,-2,-3,0,1,0,0.0
2.375,0,-5,-4,-6,1,2,-1,0,0.0
2.38,1,3,4,-1,1,1,-2,0,0.0
2.3850000000000002,-1,3,0,1,-3,-1,-2,0,0.0
2.39,-1,-11,-1,-1,-2,-3,0,0,0.0
2.395,1,1,-4,0,-3,0,-1,1,0.0
2.4,1,-4,2,-1,-2,-2,-2,1,0.0
2.4050000000000002,-1,9,1,-2,-2,-1,-1,1,0.0
2.41,-3,-2,-2,-1,-3,-2,-5,2,0.0
2.415,-1,-5,-6,-3,0,1,-1,-1,0.0
2.42,-2,0,-3,1,-1,0,-1,-2,0.0
2.4250000000000003,1,0,2,2,-1,0,0,-2,0.0
2.43,-1,0,-1,-7,-2,-1,0,-1,0.0
2.435,-1,2,-2,2,2,0,0,-2,0.0
2.44,2,6,3,3,-4,-3,-1,-1,0.0
2.445,0,-1,-4,-9,-3,-2,-2,-3,0.0
2.45,-3,-9,1,-9,-5,-2,-3,-1,0.0
2.455,1,-2,-1,-1,0,-2,-1,2,0.0
2.46,-3,-5,4,0,1,1,-1,-1,0.0
2.465,-3,7,0,-2,-3,-3,0,0,0.0
2.47,-2,-5,-3,2,3,0,-3,-2,0.0
2.475,0,-3,-2,-2,-4,-1,0,-3,0.0
2.48,1,1,0,1,-4,-2,0,0,0.0
2.485,0,2,-6,-2,0,0,0,0,0.0
2.49,0,-2,-2,-1,-1,-2,-1,-3,0.0
2.495,-4,-16,3,-1,-5,-7,-5,-4,0.0
2.5,4,34,-2,0,-2,1,-1,0,0.0
2.505,-1,-1,-1,-1,-2,1,1,0,0.0
2.5100000000000002,0,-1,1,-1,-4,0,1,-2,0.0
2.515,0,-4,0,-1,-3,-3,-1,-1,0.0
2.52,1,-9,-3,-2,-2,-2,-1,0,0.0
2.525,-3,-7,-2,1,-2,-2,-3,-3,0.0
2.5300000000000002,0,-1,-1,-2,-1,0,-1,-3,0.0
2.535,0,10,6,0,0,-1,0,0,0.0
2.54,-6,-10,-4,0,0,0,-1,-3,0.0
2.545,0,-2,1,-5,-1,-1,-2,-2,0.0
2.5500000000000003,-3,-7,1,1,0,-3,-1,-1,0.0
2.555,0,-1,1,-2,0,0,-1,-1,0.0
2.56,-3,-9,-1,-2,0,-2,0,1,0.0
2.565,-4,5,1,1,0,0,-2,-1,0.0
2.57,-4,0,-3,1,-2,2,-1,0,0.0
2.575,0,5,-2,-2,-1,0,-1,-2,0.0
2.58,-2,1,-2,-2,-3,-2,-1,-1,0.0
2.585,4,-9,-6,0,0,-1,0,-1,0.0
2.59,-2,8,0,-5,-2,0,-2,0,0.0
2.595,-4,0,-4,2,-1,0,-2,-1,0.0
2.6,-1,-7,-1,-2,-1,0,-3,2,0.0
2.605,-4,3,3,0,-2,-1,-2,-2,0.0
2.61,-1,0,-2,1,0,-1,-1,-2,0.0
2.615,-1,-2,-3,-3,-1,-2,-2,-1,0.0
2.62,-1,-4,0,-2,-2,-1,0,-3,0.0
2.625,0,1,1,1,0,-2,0,-1,0.0
2.63,0,-3,2,2,-1,-2,-2,-1,0.0
2.6350000000000002,-2,-1,-1,-2,-4,0,-1,0,0.0
2.64,-2,-6,-2,-1,0,1,-1,0,0.0
2.645,-3,1,-3,1,-2,1,1,-3,0.0
2.65,-3,-2,1,-1,-4,-1,-1,0,0.0
2.6550000000000002,1,7,-1,0,4,1,0,-1,0.0
2.66,0,3,-2,3,-3,0,-2,-1,0.0
2.665,3,0,0,-4,-2,-2,-1,1,0.0
2.67,0,-3,-2,6,1,-2,-1,-1,0.0
2.6750000000000003,-2,10,-1,-4,-1,-1,0,-3,0.0
2.68,-2,-18,-3,-3,-1,1,0,0,0.0
2.685,-1,9,0,-1,0,-1,0,-2,0.0
2.69,1,-2,-3,1,-2,-1,-3,-2,0.0
2.695,1,-3,-1,-1,-3,1,-1,-1,0.0
2.7,0,-11,1,-1,-1,-2,-2,-1,0.0
2.705,-3,-9,1,-3,-6,-3,-2,-2,0.0
2.71,-4,1,-1,-1,2,-2,1,2,0.0
2.715,3,-31,-2,3,-1,0,-1,3,0.0
2.72,-3,5,-2,-2,-1,-1,1,-5,0.0
2.725,1,-2,-2,-1,-1,1,-2,-1,0.0
2.73,0,4,-1,-2,-2,0,-2,-2,0.0
2.735,-2,-3,0,-1,1,-1,-1,-4,0.0
2.74,1,-1,-4,-3,-3,-2,0,2,0.0
2.745,1,-4,-2,4,0,-1,0,0,0.0
2.75,0,-8,2,-1,1,0,1,-3,0.0
2.755,1,4,-2,-3,-3,-2,0,3,0.0
2.7600000000000002,1,1,8,0,-1,-1,-1,-1,0.0
2.765,-3,4,-7,0,0,-2,-1,-2,0.0
2.77,0,-1,-2,-4,-2,0,0,-3,0.0
2.775,1,1,1,-1,-2,-1,-3,0,0.0
2.7800000000000002,1,-2,1,-3,-2,0,-2,-2,0.0
2.785,0,-3,1,-3,-1,-2,-2,1,0.0
2.79,-1,-1,1,-1,-1,-3,-2,1,0.0
2.795,-4,-24,-2,-3,-3,-2,-3,-1,0.0
2.8000000000000003,2,1,0,-1,-1,-2,0,1,0.0
2.805,0,-7,-2,-1,-1,-1,0,0,0.0
2.81,1,-5,-2,0,0,0,-1,-1,0.0
2.815,-1,-6,-2,-1,-2,-2,-1,-2,0.0
2.82,2,-4,2,-2,-2,0,-2,0,0.0
2.825,-2,1,0,0,1,0,-1,0,0.0
2.83,0,0,-2,-2,-3,-2,0,-3,0.0
2.835,0,21,1,-2,0,-2,-1,-4,0.0
2.84,-3,-6,-3,1,1,2,1,1,0.0
2.845,-1,4,0,0,-4,0,-1,-2,0.0
2.85,-1,0,-2,1,0,-1,-2,1,0.0
2.855,1,2,-1,1,-1,-2,-1,-2,0.0
2.86,-1,0,-4,-3,-2,-3,-2,1,0.0
2.865,-3,-11,1,-2,0,0,-1,0,0.0
2.87,1,3,-2,-1,-2,-1,-3,-1,0.0
2.875,0,-1,-2,-1,0,-1,0,-2,0.0
2.88,0,2,-1,-1,-1,-2,-3,-2,0.0
2.8850000000000002,-2,-1,3,-1,-1,-2,-1,-1,0.0
2.89,-2,-4,0,-2,-2,-1,0,0,0.0
2.895,-2,0,-4,-3,1,-1,0,-3,0.0
2.9,-1,1,-1,0,-2,-3,-2,2,0.0
2.9050000000000002,-4,8,0,-1,-1,-1,-2,-2,0.0
2.91,-3,-1,2,-1,0,-1,-1,-1,0.0
2.915,0,0,-1,-3,-2,-3,-2,-2,0.0
2.92,1,-5,0,1,-3,-2,0,-3,0.0
2.9250000000000003,0,14,-2,-4,-2,-2,-2,-3,0.0
2.93,0,-12,-5,-2,-1,1,2,3,0.0
2.935,1,28,0,-2,-3,-1,0,2,0.0
2.94,-2,-3,2,0,0,0,-4,-2,0.0
2.945,0,0,-1,-1,0,-1,-1,-4,0.0
2.95,-1,-7,-3,2,1,1,0,-2,0.0
2.955,-2,-4,-1,-5,-3,-3,-1,-2,0.0
2.96,-3,-1,0,0,-2,-1,-1,-1,0.0
2.965,2,-2,1,-1,0,0,-2,-2,0.0
2.97,0,3,-3,-4,0,0,-1,-2,0.0
2.975,-3,-3,1,2,-1,-2,-2,1,0.0
2.98,-5,-5,-1,1,1,-2,-1,0,0.0
2.985,-3,-2,-1,-4,-4,-2,2,0,0.0
2.99,0,5,0,-1,-2,-4,-2,-1,0.0
2.995,-5,-9,-2,0,-3,-1,1,-3,0.0
3.0,-1,4,2,-2,0,-2,-2,-2,0.0
3.005,-1,-6,-4,0,-1,-2,-2,-1,0.0
3.0100000000000002,2,0,-1,0,1,-1,-1,-3,0.0
3.015,0,-5,-1,0,-1,1,-2,-1,0.0
3.02,0,1,-4,-2,-1,-1,-2,-2,0.0
3.025,1,-5,-2,4,0,0,1,-1,0.0
3.0300000000000002,-4,2,1,-13,-3,-1,0,-1,0.0
3.035,-2,-6,0,2,1,-1,0,-2,0.0
3.04,0,0,-1,0,-1,-2,0,-1,0.0
3.045,5,0,1,0,-1,-1,-1,0,0.0
3.0500000000000003,-3,-14,-5,2,-1,1,2,0,0.0
3.055,0,-3,-1,-1,-3,0,0,0,0.0
3.06,-1,-2,-4,-4,0,-2,0,-1,0.0
3.065,-1,-3,1,-3,-2,-1,-3,0,0.0
3.0700000000000003,-1,-1,3,4,-1,-3,-2,1,0.0
3.075,-4,-30,-2,-2,0,0,-2,0,0.0
3.08,1,0,1,-1,-3,-2,-1,2,0.0
3.085,0,-3,-2,2,-1,-1,-1,0,0.0
3.09,-2,-2,-2,-2,0,2,-2,-4,0.0
3.095,-1,-6,-1,-1,-1,-1,1,0,0.0
3.1,2,0,1,1,0,0,-2,-2,0.0
3.105,-1,-7,-2,-2,0,-2,-2,1,0.0
3.11,2,3,-1,0,0,-2,-3,-4,0.0
3.115,0,8,-2,-2,0,-1,-2,-3,0.0
3.12,1,-9,0,2,-2,-2,-1,1,0.0
3.125,-2,7,-1,-3,-3,-1,-2,-2,0.0
3.13,-4,5,-2,0,-3,-1,1,1,0.0
3.1350000000000002,2,1,1,-1,0,1,0,1,0.0
3.14,-2,5,-1,-2,-2,0,0,0,0.0
3.145,-2,-2,-1,-2,-2,-1,-3,-1,0.0
3.15,-2,-2,-2,1,-2,-1,-1,2,0.0
3.1550000000000002,-3,3,-3,-1,-3,-1,-3,-4,0.0
3.16,-2,-5,-3,-5,-4,-2,0,0,0.0
3.165,2,-3,0,1,-1,-1,0,0,0.0
3.17,-2,2,1,-1,-1,0,0,-2,0.0
3.1750000000000003,3,0,-1,2,-2,-2,-3,1,0.0
3.18,0,0,-2,0,-1,1,-2,0,0.0
3.185,-1,-4,-1,-2,-1,-2,0,-2,0.0
3.19,-3,-3,-1,-2,-1,-2,-2,1,0.0
3.1950000000000003,0,-2,0,0,-1,-1,0,2,0.0
3.2,0,-3,0,0,-3,-1,0,-4,0.0
3.205,-1,4,2,-1,-1,0,-2,1,0.0
3.21,0,0,0,0,0,-3,-3,-2,0.0
3.215,-2,-1,-1,-2,-4,-1,-1,0,0.0
3.22,1,-2,-1,-1,-1,-1,-1,-1,0.0
3.225,-1,-6,-4,-1,-1,-1,1,2,0.0
3.23,-1,9,1,0,-3,0,0,-2,0.0
3.235,-2,8,-2,-4,-2,-2,0,-2,0.0
3.24,1,0,-1,1,-2,-3,-2,1,0.0
3.245,-1,-6,-1,-3,-1,1,-1,-3,0.0
3.25,0,-18,0,1,-2,-2,-4,0,0.0
3.255,3,16,0,-3,0,-1,-1,3,0.0
3.2600000000000002,-3,-2,-1,-1,-3,0,-2,1,0.0
3.265,0,-3,-1,-1,0,-1,0,-1,0.0
3.27,-2,-4,-1,0,0,-1,-1,-3,0.0
3.275,0,-27,-4,3,0,0,0,-2,0.0
3.2800000000000002,-1,9,2,-2,-1,-1,-1,-4,0.0
3.285,3,-22,-3,0,0,0,-4,0,0.0
3.29,1,8,-3,-7,-2,-1,-1,-1,0.0
3.295,-4,-4,1,-2,-3,-2,-4,-1,0.0
3.3000000000000003,-1,3,-3,-2,-2,1,-1,-1,0.0
3.305,-3,-4,1,-1,0,-1,0,-2,0.0
3.31,-1,2,0,-1,0,-3,-1,0,0.0
3.315,-2,-7,0,1,-1,-1,-1,-1,0.0
3.3200000000000003,4,35,1,-3,-1,-1,-2,-3,0.0
3.325,-2,4,-3,-3,-1,-1,-2,-1,0.0
3.33,1,-15,-4,-2,0,-1,-3,-3,0.0
3.335,1,6,0,0,-4,-3,-2,-1,0.0
3.34,-3,-8,2,-1,-2,-3,-1,1,0.0
3.345,-2,7,-3,1,1,0,1,1,0.0
3.35,-4,7,-2,1,0,-1,1,-2,0.0
3.355,-2,-2,1,2,0,-2,-1,-3,0.0
3.36,0,-13,-2,-3,-1,-2,-1,-2,0.0
3.365,-2,7,-1,0,-3,-2,-1,-4,0.0
3.37,-3,-9,-1,-5,-3,1,-1,-1,0.0
3.375,-1,-3,1,-2,0,-1,0,-1,0.0
3.38,-5,-8,-1,1,1,1,-1,0,0.0
3.3850000000000002,-3,4,0,2,-2,-1,-1,-1,0.0
3.39,-1,2,-2,-10,-6,0,-1,0,0.0
3.395,-3,1,-1,-4,-2,-1,0,0,0.0
3.4,-2,-22,-2,1,0,-2,-4,-1,0.0
3.4050000000000002,2,28,-4,-3,-2,-4,-2,-1,0.0
3.41,2,-1,-1,3,1,2,0,-1,0.0
3.415,-1,-10,-5,-2,-1,-1,-2,0,0.0
3.42,-6,-33,0,0,-1,-1,-3,0,0.0
3.4250000000000003,-2,-11,-1,-1,1,-1,0,-2,0.0
3.43,-4,2,-1,-3,-3,-3,-2,1,0.0
3.435,3,4,1,-5,0,-1,-2,-1,0.0
3.44,0,3,-2,0,1,1,-1,-1,0.0
3.4450000000000003,-1,-9,-4,-3,-2,-1,-1,-2,0.0
3.45,-3,5,5,1,-1,-5,0,-3,0.0
3.455,-1,-5,-5,-3,0,-1,0,-2,0.0
3.46,0,6,-1,-2,0,-1,0,0,0.0
3.465,-3,0,0,-1,-4,-1,-1,1,0.0
3.47,-2,-5,1,-3,-1,-2,-1,-1,0.0
3.475,-6,2,-2,0,-2,0,0,-2,0.0
3.48,3,5,-1,-2,-1,-3,-3,-1,0.0
3.485,-3,-9,0,2,1,0,-2,7,0.0
3.49,2,25,-2,2,-3,-1,-1,2,0.0
3.495,2,3,-2,-1,-2,-1,-2,-2,0.0
3.5,-1,9,-5,-4,-3,-3,-1,-1,0.0
3.505,-3,-8,0,-4,0,-2,-1,-4,0.0
3.5100000000000002,-1,-5,-5,1,0,-3,-3,-2,0.0
3.515,-1,2,-2,-1,-1,-2,-3,2,0.0
3.52,-1,-3,-1,0,-1,-1,-2,-1,0.0
3.525,-5,0,2,-2,-2,0,-3,-2,0.0
3.5300000000000002,0,-4,-2,1,-2,1,0,-2,0.0
3.535,1,0,-2,0,1,-1,0,-1,0.0
3.54,-3,-1,2,1,-1,1,2,-1,0.0
3.545,0,-2,-4,-3,0,0,0,-1,0.0
3.5500000000000003,-1,-12,1,-2,0,-2,-2,-3,0.0
3.555,-3,10,1,-1,-2,-4,-2,2,0.0
3.56,2,38,-1,-5,-1,0,0,-1,0.0
3.565,0,-3,0,1,-3,-2,-1,-3,0.0
3.5700000000000003,-2,-2,2,-1,0,-2,1,0,0.0
3.575,1,-7,2,-1,-1,0,-3,-1,0.0
3.58,-2,-14,-3,0,-2,-2,-4,0,0.0
3.585,-2,2,1,-2,-1,-1,0,-2,0.0
3.59,1,0,-5,0,0,0,-3,1,0.0
3.595,-1,-6,2,1,-2,0,-1,0,0.0
3.6,3,-4,0,-2,-2,-1,-1,3,0.0
3.605,2,3,0,1,0,-2,-1,-1,0.0
3.61,-2,-5,0,-2,-1,-2,-3,-2,0.0
3.615,-1,-4,-1,1,0,0,-2,-1,0.0
3.62,0,-13,3,1,-4,-1,-4,-2,0.0
3.625,2,-2,-3,-1,-2,0,-1,-4,0.0
3.63,0,-3,-1,2,1,0,-1,-3,0.0
3.6350000000000002,-1,6,0,1,-3,-1,-1,0,0.0
3.64,-1,-6,0,-4,-2,-3,1,-1,0.0
3.645,0,-1,0,1,-1,-3,-3,-1,0.0
3.65,1,-1,0,-1,-2,0,0,1,0.0
3.6550000000000002,-3,-8,1,-1,-1,-1,-3,-2,0.0
3.66,1,34,0,0,0,-1,1,0,0.0
3.665,1,-5,1,-2,-1,0,-1,-1,0.0
3.67,-2,-2,-2,-1,-3,-2,-2,-2,0.0
3.6750000000000003,1,-3,-2,-2,-1,1,0,-1,0.0
3.68,-3,-17,-1,2,-3,-3,-2,-1,0.0
3.685,-2,-4,-3,-4,-3,0,2,-1,0.0
3.69,2,8,0,-1,-1,-1,0,0,0.0
3.6950000000000003,-3,-3,1,-2,-2,-2,-1,-1,0.0
3.7,-1,-7,-3,-1,2,3,0,-1,0.0
3.705,-4,8,-5,-1,-1,-1,0,-2,0.0
3.71,-3,-7,2,0,-3,-1,-1,-3,0.0
3.715,-4,-1,-4,-2,-3,-2,1,-1,0.0
3.72,-3,-4,-1,0,-3,-4,0,-1,0.0
3.725,-2,-6,-1,-2,4,3,2,1,0.0
3.73,-3,-9,-2,-1,-2,-2,0,2,0.0
3.735,-3,-2,1,-1,0,-2,-1,-4,0.0
3.74,-1,4,-2,-4,-1,-1,-2,-1,0.0
3.745,-1,-3,-2,-1,-1,0,-3,-1,0.0
3.75,-1,3,-2,-2,-1,-2,-2,1,0.0
3.755,0,-14,0,0,0,-1,-2,0,0.0
3.7600000000000002,0,-11,-8,-2,-2,-1,-3,1,0.0
3.765,0,-4,0,2,0,-1,-1,-4,0.0
3.77,1,1,-3,-1,1,0,1,-4,0.0
3.775,-3,-3,-1,-1,-1,-1,0,-2,0.0
3.7800000000000002,-2,-1,-1,-3,-2,-1,0,-3,0.0
3.785,0,-7,-1,0,-3,-3,-2,-1,0.0
3.79,1,6,0,-5,-3,0,-1,0,0.0
3.795,0,11,-5,1,4,5,3,1,0.0
3.8000000000000003,-2,-12,-1,1,-1,-1,-4,-4,0.0
3.805,-4,10,-4,0,-4,-4,-2,-1,0.0
3.81,1,-7,0,1,2,0,-1,-2,0.0
3.815,-1,-4,-4,-3,-1,0,0,1,0.0
3.8200000000000003,-1,-1,1,-1,2,-1,-1,0,0.0
3.825,1,0,-1,-2,-4,-4,-2,-2,0.0
3.83,-4,-9,-1,0,0,-3,0,-1,0.0
3.835,2,7,-2,-2,-3,-3,-3,-3,0.0
3.84,-2,3,-3,-1,0,1,0,0,0.0
3.845,-4,-15,-1,-3,-2,-3,-4,-2,0.0
3.85,-2,-13,0,0,-2,-1,0,0,0.0
3.855,-1,-13,0,-2,-3,-2,-3,-1,0.0
3.86,-1,3,2,-3,-4,-3,-2,-3,0.0
3.865,1,10,1,-1,-1,-3,0,0,0.0
3.87,-4,-1,-3,-2,0,-2,-3,-1,0.0
3.875,2,-1,0,1,-2,-2,0,0,0.0
3.88,1,-5,0,-1,0,-1,-2,-1,0.0
3.8850000000000002,-2,-9,-2,0,0,2,0,-1,0.0
3.89,2,1,-3,0,-2,-1,-1,-1,0.0
3.895,3,-4,4,-1,-2,-1,-1,-1,0.0
3.9,-2,-8,0,-1,-1,-3,0,-1,0.0
3.9050000000000002,-1,8,1,-1,-2,-1,-3,0,0.0
3.91,-2,0,1,-2,0,-1,-2,0,0.0
3.915,0,5,-3,0,-1,-4,-3,-4,0.0
3.92,1,8,-2,-3,0,0,0,-2,0.0
3.9250000000000003,-5,4,0,-2,-1,1,1,1,0.0
3.93,2,-3,-3,-2,-3,-2,-1,1,0.0
3.935,-1,-6,2,-2,-5,-2,-3,0,0.0
3.94,0,-6,-1,1,-3,-3,-1,-4,0.0
3.9450000000000003,-2,-1,-1,-2,-1,-1,-1,-2,0.0
3.95,-1,-5,1,-1,0,-2,0,0,0.0
3.955,-1,6,-2,1,0,-1,0,-2,0.0
3.96,1,-1,-1,-1,-1,-1,-2,-1,0.0
3.9650000000000003,2,-13,2,-3,-2,-2,-2,2,0.0
3.97,-3,1,1,0,-1,-1,-1,-3,0.0
3.975,-1,-3,-3,0,-1,-2,-1,2,0.0
3.98,3,-1,0,2,0,1,1,-1,0.0
3.985,-1,6,3,1,1,-1,-2,0,0.0
3.99,3,9,2,-2,-3,-2,-1,0,0.0
3.995,0,-10,-2,-3,0,-3,-4,0,0.0
4.0,-4,-3,0,1,0,-1,0,0,0.0
4.005,2,-4,-2,0,-1,-3,-1,-1,0.0
4.01,-4,-29,-1,0,-3,-1,-4,-2,0.0
4.015,-1,-6,-1,-2,-2,0,-1,1,0.0
4.0200000000000005,-4,-5,-1,-3,-2,-2,0,2,0.0
4.025,1,-14,-3,-1,-2,0,-1,-2,0.0
4.03,-3,-5,-1,0,0,0,-1,1,0.0
4.035,2,0,3,-3,0,0,-1,-2,0.0
4.04,0,-4,-1,0,-2,-2,-3,-1,0.0
4.045,1,-1,0,1,-2,-1,0,-2,0.0
4.05,0,7,-2,-2,-2,0,0,-3,0.0
4.055,-2,-5,-2,-1,-1,-1,-2,-1,0.0
4.0600000000000005,-2,0,0,0,-2,0,-1,0,0.0
4.065,-1,1,1,-2,-1,-1,-1,-1,0.0
4.07,1,3,-1,0,0,-1,-2,-2,0.0
4.075,0,4,-1,0,0,-1,0,-2,0.0
4.08,0,6,1,-1,-2,0,-3,-1,0.0
4.085,-3,2,-4,-1,-1,-2,-1,0,0.0
4.09,-1,6,-1,-4,-3,-2,-2,-1,0.0
4.095,-6,-2,0,0,-1,-3,-1,-2,0.0
4.1,-3,0,2,0,-1,-2,-2,-1,0.0
4.105,1,-2,-2,1,-1,-2,1,1,0.0
4.11,-2,3,-1,0,1,-1,0,-3,0.0
4.115,-1,0,-3,-1,-1,0,-1,-1,0.0
4.12,1,-5,-3,-1,-2,-1,-3,-2,0.0
4.125,-2,2,-1,-2,-2,-1,-2,-3,0.0
4.13,-1,-2,-3,0,-1,0,1,1,0.0
4.135,0,3,2,1,-1,-2,0,0,0.0
4.14,0,-3,-1,-1,0,-2,0,0,0.0
4.1450000000000005,-1,-1,-2,-4,-2,-1,-1,-2,0.0
4.15,-1,-6,-3,-3,-2,-1,-2,-2,0.0
4.155,-3,-1,-2,-1,0,-1,-2,-1,0.0
4.16,-1,-4,2,-3,-3,0,-1,1,0.0
4.165,-2,-4,0,2,-1,-2,-1,-1,0.0
4.17,1,4,-2,2,-3,-2,-2,0,0.0
4.175,0,-4,-4,-1,-2,-3,-2,0,0.0
4.18,0,-7,5,2,4,3,1,1,0.0
4.1850000000000005,-3,6,-2,-4,-3,-1,-3,-1,0.0
4.19,-4,-26,0,-2,-2,-1,-2,0,0.0
4.195,2,2,1,-5,-3,1,-3,0,0.0
4.2,1,0,-8,-1,-1,0,-2,-5,0.0
4.205,2,-7,-1,2,-2,-1,-2,1,0.0
4.21,0,-2,1,-1,0,-3,0,-1,0.0
4.215,-2,1,-1,-2,-2,-3,-2,1,0.0
4.22,-1,-7,-3,-1,-2,-2,-1,1,0.0
4.225,1,5,-3,-1,2,-1,-3,-1,0.0
4.23,-3,16,-4,-2,-5,-2,-1,-4,0.0
4.235,1,-2,3,0,-1,-2,-1,-1,0.0
4.24,-1,-5,-4,1,-1,1,0,0,0.0
4.245,0,-5,1,-1,-2,-3,1,-5,0.0
4.25,-1,-2,-1,1,2,0,-1,3,0.0
4.255,-3,7,1,-1,-2,-1,-2,-1,0.0
4.26,-2,0,0,-2,-5,-3,-3,0,0.0
4.265,1,-1,-2,-4,-3,-3,-2,1,0.0
4.2700000000000005,0,-2,1,-1,1,0,-1,-2,0.0
4.275,-3,-4,1,-1,0,1,0,-1,0.0
4.28,-1,-6,-1,-1,-1,-2,-2,1,0.0
4.285,1,-3,-3,-1,-2,-1,0,2,0.0
4.29,2,3,0,-3,-3,-2,-3,0,0.0
4.295,-3,-6,-2,1,-1,-1,1,0,0.0
4.3,-1,0,2,-2,-1,-3,-1,-2,0.0
4.305,-2,5,1,-1,-1,0,-1,-3,0.0
4.3100000000000005,3,7,-3,0,0,-1,-2,-3,0.0
4.315,0,-8,0,2,-1,-1,-2,0,0.0
4.32,1,47,-4,-5,-1,-2,0,-1,0.0
4.325,-4,-4,-2,-2,0,-1,-1,1,0.0
4.33,-1,-6,-1,4,-1,2,0,0,0.0
4.335,-1,-4,-2,-3,-1,-1,-1,-2,0.0
4.34,-2,-6,0,2,0,-2,-1,-3,0.0
4.345,-1,-4,-3,-4,-1,-3,-1,-2,0.0
4.3500000000000005,0,3,1,-2,1,0,0,-1,0.0
4.355,1,-7,-1,1,-3,-4,-2,0,0.0
4.36,-2,-10,-6,-3,-3,2,-1,-1,0.0
4.365,2,5,-2,1,-1,-1,-3,1,0.0
4.37,-2,-8,1,0,0,-1,-2,-2,0.0
4.375,-2,4,-2,-4,0,1,1,1,0.0
4.38,-2,-11,-1,5,0,0,-1,-4,0.0
4.385,-2,-2,1,-2,-3,0,0,-1,0.0
4.39,-1,1,-2,-1,-3,-3,-1,2,0.0
4.3950000000000005,-1,4,1,-2,2,2,-1,-1,0.0
4.4,-1,-8,-2,-2,-4,-2,-4,0,0.0
4.405,-1,40,-2,-2,1,-2,0,0,0.0
4.41,-6,-2,0,-1,-1,-3,-3,-3,0.0
4.415,1,4,-5,0,-1,1,-2,0,0.0
4.42,-1,-12,-2,-3,-3,-3,-1,-2,0.0
4.425,-1,-10,0,2,-2,0,-2,0,0.0
4.43,1,-1,0,-4,-2,-3,-2,-3,0.0
4.4350000000000005,-3,-1,-2,0,-1,-1,0,0,0.0
4.44,-3,1,-1,0,2,0,-1,1,0.0
4.445,-1,-2,-2,-2,-6,-1,-2,-2,0.0
4.45,-3,0,0,-2,0,-2,-1,-3,0.0
4.455,-4,-6,1,-1,-2,-3,-3,-4,0.0
4.46,0,-3,2,-3,-3,-2,-3,-2,0.0
4.465,-7,-31,0,-2,-2,-4,-2,-4,0.0
4.47,1,-5,-4,0,0,1,0,0,0.0
4.4750000000000005,-3,1,0,0,-3,-1,0,0,0.0
4.48,1,2,0,-3,-3,-1,-1,2,0.0
4.485,-1,-10,-1,0,1,2,0,-3,0.0
4.49,-1,2,-3,-1,-2,-4,-1,0,0.0
4.495,0,-12,-4,-2,-3,-2,0,-3,0.0
4.5,-1,-6,0,0,-2,-3,0,-1,0.0
4.505,-2,4,-2,-4,-1,1,1,-1,0.0
4.51,-2,-10,-3,-2,0,0,-2,0,0.0
4.515,-2,0,-2,-1,2,-2,0,0,0.0
4.5200000000000005,-2,-1,-1,-1,-1,-2,-2,-2,0.0
4.525,0,-3,1,-2,1,-2,-1,-1,0.0
4.53,-4,-1,1,-1,0,2,-1,-2,0.0
4.535,2,-6,-2,1,-1,-2,-1,-1,0.0
4.54,2,39,-1,-2,2,0,1,1,0.0
4.545,-1,-1,1,-1,-3,-1,-3,-2,0.0
4.55,0,-6,-4,1,-1,-3,-1,0,0.0
4.555,-1,1,-1,-1,-4,-1,-1,-2,0.0
4.5600000000000005,0,-7,-1,-1,2,1,-1,0,0.0
4.565,2,5,-5,0,-2,-2,1,0,0.0
4.57,-1,-5,-1,-1,-1,1,2,1,0.0
4.575,0,-5,2,2,-6,-3,-2,1,0.0
4.58,-3,-16,-3,-1,-1,-1,-1,-2,0.0
4.585,1,-6,-1,0,-1,-2,-1,1,0.0
4.59,0,2,-1,-3,-4,-5,-1,0,0.0
4.595,-7,-42,8,4,3,-1,-4,-3,0.0
4.6000000000000005,2,19,0,-3,-4,2,-1,2,0.0
4.605,-2,-19,-4,3,6,3,-1,-1,0.0
4.61,-1,2,0,0,-5,-1,0,-3,0.0
4.615,0,-3,-5,-3,1,-2,-1,-2,0.0
4.62,1,-6,-1,1,-1,-4,-4,0,0.0
4.625,-2,-5,0,-1,0,-1,-1,-1,0.0
4.63,1,9,3,-2,-1,-1,-2,0,0.0
4.635,-1,-14,-4,0,1,3,0,-1,0.0
4.64,-3,-12,0,-4,-8,-3,-1,-2,0.0
4.6450000000000005,-1,0,1,-3,-4,-2,-2,0,0.0
4.65,1,-5,-1,-3,-2,-3,-2,-2,0.0
4.655,1,20,0,-3,-1,-1,-2,-3,0.0
4.66,-1,-15,-2,0,1,-4,-2,-2,0.0
4.665,0,-7,5,-1,-1,0,-2,-2,0.0
4.67,1,3,-1,-2,-1,1,0,1,0.0
4.675,0,-8,0,4,3,2,1,2,0.0
4.68,-4,-13,-2,-3,-2,0,-1,0,0.0
4.6850000000000005,0,10,-3,1,-1,-3,-3,-1,0.0
4.69,1,-2,-3,0,1,1,1,1,0.0
4.695,0,8,-7,-5,-3,-2,-2,-2,0.0
4.7,-3,-12,-4,2,3,3,1,-2,0.0
4.705,-2,-15,-3,1,1,3,0,1,0.0
4.71,-2,-9,0,4,0,-2,1,-3,0.0
4.715,2,6,2,-5,-2,-1,3,1,0.0
4.72,-5,-7,1,0,0,-3,-3,-1,0.0
4.7250000000000005,1,4,-5,-3,0,-1,-1,-1,0.0
4.73,2,12,7,0,0,0,-2,-3,0.0
4.735,0,5,-6,-1,-7,-4,-4,-1,0.0
4.74,1,6,2,-5,-3,-2,4,-4,0.0
4.745,-1,4,1,-4,-2,0,-6,-1,0.0
4.75,-2,1,0,2,1,-1,-6,-1,0.0
4.755,0,11,0,-3,-1,1,0,-1,0.0
4.76,0,3,0,1,0,0,-2,-1,0.0
4.765,-2,3,-2,-1,-2,-1,3,-2,0.0
4.7700000000000005,-1,-5,-1,-3,-2,-1,2,-2,0.0
4.775,0,2,0,-2,-1,-3,4,0,0.0
4.78,-2,0,0,0,1,-2,-7,-4,0.0
4.785,1,-4,0,0,-4,-2,-5,-5,0.0
4.79,1,-6,-6,0,-1,0,6,-2,0.0
4.795,-2,2,1,1,-5,-2,-13,-2,0.0
4.8,2,-2,3,-2,-1,0,4,4,0.0
4.805,1,7,4,0,-4,-3,-4,-1,0.0
4.8100000000000005,-3,-1,-5,-6,-1,0,-2,-4,0.0
4.815,-3,1,1,-1,1,0,3,2,0.0
4.82,-2,-29,3,-1,-1,0,-3,0,0.0
4.825,1,0,2,-4,-3,-1,12,-3,0.0
4.83,1,-5,27,-3,1,-2,-26,-3,0.0
4.835,-1,-10,53,0,-2,-1,4,0,0.0
4.84,0,2,36,-1,-3,-2,-4,0,0.0
4.845,-5,1,19,2,0,-1,-2,-5,0.0
4.8500000000000005,-3,7,-29,1,1,-3,8,2,0.0
4.855,0,-10,-44,-4,-1,-1,-6,-1,0.0
4.86,-4,-9,-45,3,1,-1,4,-2,0.0
4.865,0,-3,-30,-3,-1,-1,1,3,0.0
4.87,-4,7,-7,-4,0,-2,-1,-4,0.0
4.875,-4,-11,-13,0,-5,-4,-5,-3,0.0
4.88,3,-7,-8,0,1,1,3,0,0.0
4.885,-6,-20,4,1,2,-1,-6,1,0.0
4.89,-2,9,9,-1,-5,-2,-2,1,0.0
4.8950000000000005,-3,-7,0,1,2,2,5,-1,0.0
4.9,2,13,4,-3,-2,0,-3,0,0.0
4.905,-4,-15,-7,1,-2,-1,-2,0,0.0
4.91,1,-4,0,0,-2,-3,4,0,0.0
4.915,0,3,-9,3,-3,0,0,-3,0.0
4.92,1,9,2,-3,-1,-2,-5,0,0.0
4.925,-1,13,3,0,2,0,-1,0,0.0
4.93,-1,-2,-2,-2,0,0,4,-1,0.0
4.9350000000000005,0,12,0,-4,1,-1,-2,-5,0.0
4.94,-1,-1,-3,-1,1,-2,-3,0,0.0
4.945,2,-1,-2,2,-2,0,1,0,0.0
4.95,-4,-3,-5,-1,0,-1,-2,-1,0.0
4.955,7,34,-6,0,-5,-2,-4,3,0.0
4.96,-2,-18,10,-4,-5,-2,-4,0,0.0
4.965,0,-3,0,-2,-2,1,-2,0,0.0
4.97,0,1,6,-2,-5,-4,-3,-1,0.0
4.9750000000000005,0,-5,11,-2,-2,0,-1,2,0.0
4.98,-2,6,-3,4,0,-1,-4,-2,0.0
4.985,-1,8,0,-3,-4,-5,5,2,0.0
4.99,-1,-9,1,2,-1,-1,-10,-3,0.0
4.995,-3,-6,-6,-8,-1,-1,10,-1,0.0
5.0,1,8,1,-2,-6,-3,-11,-2,0.0
5.005,2,19,-4,-1,0,0,0,-2,0.0
5.01,0,-3,-16,1,3,2,4,0,0.0
5.015,2,-4,-7,-4,-2,-3,-1,0,0.0
5.0200000000000005,-1,1,12,-1,-3,-4,2,0,0.0
5.025,-1,-5,6,0,-3,-2,-4,-5,0.0
5.03,1,6,-4,-2,-1,-3,2,-1,0.0
5.035,3,17,9,3,-1,-1,-5,-5,0.0
5.04,-3,27,-9,-10,0,4,4,-1,0.0
5.045,-1,-9,1,0,-2,-2,-3,1,0.0
5.05,2,-11,12,1,-1,1,0,2,0.0
5.055,-5,-9,0,-2,-1,-3,-4,-1,0.0
5.0600000000000005,4,1,-3,-2,-1,-2,1,0,0.0
5.065,-1,2,0,0,-1,2,-1,0,0.0
5.07,-3,8,-4,-2,0,0,1,-5,0.0
5.075,0,-2,-8,-2,3,0,-2,2,0.0
5.08,2,-6,4,4,-6,-4,-3,0,0.0
5.085,-7,-30,-1,-4,4,-1,0,-2,0.0
5.09,0,-8,7,1,-5,-1,-2,3,0.0
5.095,-7,-22,5,1,0,2,-3,-5,0.0
5.1000000000000005,0,-4,0,-3,-1,-1,-2,-3,0.0
5.105,-1,2,7,-1,-3,0,1,-1,0.0
5.11,-4,-46,16,4,7,0,0,-1,0.0
5.115,15,2,-14,0,-7,-3,-3,6,0.0
5.12,-1,2,14,4,-4,-4,-2,-2,0.0
5.125,-3,-6,4,-6,-5,-2,-5,0,0.0
5.13,10,28,0,-3,0,0,-1,5,0.0
5.135,-4,-4,18,-2,0,-1,-1,-1,0.0
5.14,-3,-11,8,3,-3,-3,-2,1,0.0
5.1450000000000005,5,3,-13,4,3,0,-1,-1,0.0
5.15,-5,2,-15,-3,2,1,1,-4,0.0
5.155,-2,9,4,-2,5,3,-1,-2,0.0
5.16,1,4,-25,0,-1,-2,1,-2,0.0
5.165,-4,5,-12,0,1,0,-1,-4,0.0
5.17,-6,-10,-17,-1,-7,-5,-1,0,0.0
5.175,-1,-1,-22,-1,0,-2,0,-1,0.0
5.18,-1,-10,-14,-1,0,0,0,-2,0.0
5.1850000000000005,1,10,-4,-2,2,-1,-1,0,0.0
5.19,-1,15,-21,-2,-2,0,1,-3,0.0
5.195,-2,-4,6,-2,-4,-2,-3,1,0.0
5.2,-4,-8,-7,-2,-2,1,0,1,0.0
5.205,-1,-12,12,0,-1,-3,-2,-2,0.0
5.21,6,24,-8,-3,0,1,1,0,0.0
5.215,-3,-20,-2,-2,-2,-4,-2,-4,0.0
5.22,-2,2,0,-3,0,0,0,-2,0.0
5.2250000000000005,-1,-16,-1,1,-3,-1,-4,1,0.0
5.23,-4,-18,4,2,-2,-1,-2,1,0.0
5.235,-3,-7,-8,-3,0,1,2,-1,0.0
5.24,0,4,5,1,-3,-2,-2,2,0.0
5.245,0,22,3,-3,-5,-3,-2,2,0.0
5.25,-4,21,-6,-4,0,-1,-1,-1,0.0
5.255,0,-5,0,-3,-3,0,-1,-3,0.0
5.26,-4,-6,3,-2,0,1,-2,-5,0.0
5.265,0,3,7,-2,-4,-2,-2,-2,0.0
5.2700000000000005,-2,-9,4,-1,-1,1,-1,0,0.0
5.275,-1,7,3,-1,-4,-2,-1,-1,0.0
5.28,0,2,-4,0,1,0,0,-1,0.0
5.285,1,-22,-9,-1,-4,0,-2,1,0.0
5.29,-2,-9,7,-3,-3,-3,-2,-3,0.0
5.295,-2,-1,-2,1,1,-1,0,2,0.0
5.3,-3,-5,3,2,-1,0,1,-3,0.0
5.305,-2,-11,-7,-2,0,0,1,1,0.0
5.3100000000000005,-3,-6,-2,-2,-4,-4,-2,0,0.0
5.315,-3,-36,1,0,-3,-1,-4,-1,0.0
5.32,-2,-9,1,0,-3,-1,-2,0,0.0
5.325,-3,8,1,-2,2,-1,0,-5,0.0
5.33,1,-8,1,-3,-1,-1,-1,-2,0.0
5.335,-4,15,4,0,0,1,3,-2,0.0
5.34,-3,6,-9,0,0,0,-1,0,0.0
5.345,1,9,0,-3,-3,-3,-1,0,0.0
5.3500000000000005,-2,-6,-1,-2,0,0,0,0,0.0
5.355,2,11,2,1,-3,-2,0,-1,0.0
5.36,0,-1,-2,-4,-1,-1,0,-2,0.0
5.365,1,6,-1,-3,-3,-1,-1,-4,0.0
5.37,-1,5,4,1,-1,0,-3,1,0.0
5.375,1,11,6,-1,-1,-2,0,-2,0.0
5.38,-4,-2,-1,-2,-2,-2,-1,0,0.0
5.385,0,-23,-5,-1,-1,-2,-1,1,0.0
5.39,-4,-8,12,2,-2,-4,-1,1,0.0
5.3950000000000005,-1,4,-3,1,0,0,-3,1,0.0
5.4,0,-6,0,-2,-1,-1,-1,0,0.0
5.405,-3,-16,-2,-2,2,2,1,1,0.0
5.41,-1,-3,5,3,-3,1,-2,0,0.0
5.415,-2,11,3,0,-1,-3,-3,-2,0.0
5.42,0,-12,0,4,3,-1,0,0,0.0
5.425,-1,14,0,0,-4,-3,-1,-2,0.0
5.43,0,-1,-3,-4,1,0,-1,-2,0.0
5.4350000000000005,0,-14,-3,-3,-1,2,0,1,0.0
5.44,1,9,-3,-4,-4,-3,-2,-2,0.0
5.445,-1,6,1,0,0,-1,1,0,0.0
5.45,1,-4,-3,0,-2,-1,1,0,0.0
5.455,0,2,9,3,0,-3,-2,-1,0.0
5.46,0,9,3,-1,-2,-1,-2,-3,0.0
5.465,-4,17,6,2,0,-1,-2,-1,0.0
5.47,-1,7,-3,-6,-2,-2,-1,-1,0.0
5.4750000000000005,-1,-4,1,-5,2,0,-1,1,0.0
5.48,0,-11,-3,0,0,1,0,0,0.0
5.485,1,1,2,0,0,-2,-1,0,0.0
5.49,0,-5,5,-1,-2,-2,-3,-1,0.0
5.495,-2,-2,-2,0,-1,-3,-2,-2,0.0
5.5,-2,6,-4,-3,1,1,-2,1,0.0
5.505,0,1,-1,-1,-2,-1,-2,-1,0.0
5.51,-1,-16,3,3,2,-1,0,1,0.0
5.515,-1,-4,-3,2,0,0,0,0,0.0
5.5200000000000005,1,-3,-1,-9,-6,-1,0,-2,0.0
5.525,0,-1,-3,-1,-1,0,0,-2,0.0
5.53,-1,1,-6,0,-2,-1,-2,1,0.0
5.535,4,14,-1,1,-2,-4,0,0,0.0
5.54,-3,-7,-6,-2,0,-3,-3,-2,0.0
5.545,0,-12,-4,-2,-1,4,0,-1,0.0
5.55,1,-31,0,-4,-2,-1,-2,1,0.0
5.555,-1,-10,0,-1,-4,-2,-2,0,0.0
5.5600000000000005,-1,-6,-3,2,1,0,-1,0,0.0
5.565,1,0,-4,-4,-3,-3,-2,-3,0.0
5.57,3,8,-4,-2,-2,1,-1,1,0.0
5.575,-4,-6,-9,0,-1,2,0,-1,0.0
5.58,-2,-1,0,-2,-2,-2,-2,0,0.0
5.585,-1,-13,-12,-3,-4,-4,-1,2,0.0
5.59,-1,5,-5,-1,-1,-2,0,0,0.0
5.595,1,6,-1,-2,-4,-1,-3,0,0.0
5.6000000000000005,0,17,-1,3,-2,-1,0,-3,0.0
5.605,1,11,-5,0,-1,-1,0,1,0.0
5.61,-1,4,3,-3,-3,-2,-2,-2,0.0
5.615,-2,3,-3,-3,-2,-1,-1,-1,0.0
5.62,-4,-7,1,-1,-1,-1,-2,-2,0.0
5.625,0,9,8,0,0,-3,-4,-2,0.0
5.63,-1,1,-2,-1,-3,-2,-2,-5,0.0
5.635,-1,-2,-8,0,-2,-1,-2,-1,0.0
5.64,1,-14,5,2,-2,1,0,0,0.0
5.6450000000000005,-3,-5,-2,2,2,0,-1,-2,0.0
5.65,-4,10,-3,-1,-3,-3,-1,0,0.0
5.655,-1,-13,-2,-1,1,2,1,-3,0.0
5.66,0,7,-10,-1,0,-2,-1,1,0.0
5.665,-2,14,3,-6,-3,1,-1,-2,0.0
5.67,0,-2,1,0,-1,0,0,0,0.0
5.675,-3,-7,-1,0,-2,-1,-4,-2,0.0
5.68,0,-2,2,1,-2,-2,0,-1,0.0
5.6850000000000005,0,-5,-2,2,1,0,1,-1,0.0
5.69,4,-2,-6,-2,1,-2,-2,-2,0.0
5.695,0,-9,-14,-6,-4,-3,0,1,0.0
5.7,-1,0,0,-1,-1,-1,-2,-4,0.0
5.705,-3,4,-1,2,-2,0,0,2,0.0
5.71,-3,6,3,1,-1,-1,-1,-3,0.0
5.715,1,-7,-2,0,0,-1,-1,1,0.0
5.72,0,-17,-2,-4,2,-1,0,-1,0.0
5.7250000000000005,-4,-16,3,3,-3,0,1,-2,0.0
5.73,1,0,0,-3,-6,-3,-3,-2,0.0
5.735,0,3,8,-4,-3,-1,0,-1,0.0
5.74,-3,-5,-2,1,-2,-3,-2,-4,0.0
5.745,-2,2,7,0,1,-3,-3,-4,0.0
5.75,1,30,-6,-7,0,-1,-2,1,0.0
5.755,-3,-2,-1,1,-2,-2,-1,0,0.0
5.76,2,-9,2,-3,-3,-1,-1,0,0.0
5.765,1,-4,7,0,-2,-3,-2,-1,0.0
5.7700000000000005,-2,-4,2,2,-1,2,2,2,0.0
5.775,1,-5,3,-4,-1,-1,0,0,0.0
5.78,-2,5,-3,0,0,-1,0,3,0.0
5.785,-2,3,-5,-1,-2,-3,-5,-2,0.0
5.79,-3,-10,2,0,-3,1,0,-1,0.0
5.795,1,2,-2,-1,-1,-2,-2,-3,0.0
5.8,0,1,10,-1,-1,-1,-1,0,0.0
5.805,-1,-1,-13,-5,-5,-3,-3,-2,0.0
5.8100000000000005,-1,1,4,-3,0,-2,-3,-3,0.0
5.815,-4,3,1,1,-3,-2,-2,-3,0.0
5.82,2,3,2,0,-1,1,2,1,0.0
5.825,1,2,-2,-3,2,-1,0,-1,0.0
5.83,-3,-12,-1,0,-2,-2,-1,0,0.0
5.835,-3,1,2,1,-2,0,-2,2,0.0
5.84,2,5,1,0,-1,-1,-2,0,0.0
5.845,1,-2,-4,-4,-2,1,0,1,0.0
5.8500000000000005,-5,-11,0,-1,-1,-1,0,-1,0.0
5.855,1,4,5,2,1,-2,1,-2,0.0
5.86,0,22,-4,-6,-4,-1,-2,1,0.0
5.865,0,-5,-1,-2,-1,-1,0,-2,0.0
5.87,-1,-11,-4,-1,-1,0,0,-3,0.0
5.875,-1,-5,-1,-1,-2,-1,-3,2,0.0
5.88,-2,-9,-1,-3,-2,-3,-2,-2,0.0
5.885,-2,0,-1,1,-1,1,-1,0,0.0
5.89,1,4,2,2,1,-1,0,-1,0.0
5.8950000000000005,1,4,2,-1,-2,-2,-1,-2,0.0
5.9,-1,-1,-2,1,0,-2,-2,-1,0.0
5.905,-3,-4,1,-3,-3,-2,1,-2,0.0
5.91,2,30,-2,-1,-2,-2,0,0,0.0
5.915,0,-9,3,-1,0,0,-3,-2,0.0
5.92,0,-3,-1,0,-3,-1,-1,-1,0.0
5.925,3,-4,1,-3,0,-2,-3,0,0.0
5.93,-5,-13,-6,2,0,-2,-2,-1,0.0
5.9350000000000005,5,-12,-4,0,-1,-1,1,-1,0.0
5.94,0,-8,-10,-4,-2,-2,-3,-1,0.0
5.945,-2,-11,0,4,3,0,-1,0,0.0
5.95,-2,6,-2,-2,-7,-3,-2,2,0.0
5.955,-2,-11,5,1,2,-1,-2,-1,0.0
5.96,-4,-7,-10,-2,-1,1,2,1,0.0
5.965,0,1,-5,-1,-1,-1,0,0,0.0
5.97,-1,-17,-3,-2,0,0,-3,-2,0.0
5.9750000000000005,-1,-4,-4,-1,-1,-3,0,-1,0.0
5.98,-2,9,-2,-3,0,-2,0,-3,0.0
5.985,-3,1,3,2,1,-1,2,2,0.0
5.99,-2,-7,-3,0,2,-1,-2,-3,0.0
5.995,-2,-6,-6,-3,-2,0,0,-2,0.0
6.0,1,29,-5,-2,1,1,-1,-1,0.0
6.005,-2,0,-3,-3,-2,-3,-2,-2,0.0
6.01,1,-9,-1,1,2,1,-2,0,0.0
6.015000000000001,-5,13,-1,-3,-4,0,-2,-1,0.0
6.0200000000000005,0,-4,0,-1,-1,-2,-2,-1,0.0
6.025,-1,-3,0,-2,-1,2,0,-2,0.0
6.03,-1,4,-2,-1,0,-1,-1,-2,0.0
6.035,-2,13,-8,-5,-2,-2,-3,-2,0.0
6.04,0,7,4,0,1,-2,-1,-1,0.0
6.045,-1,7,-2,-4,-5,-3,-1,-1,0.0
6.05,2,-6,1,3,-2,-1,-1,-2,0.0
6.055,1,-4,-5,0,-3,-2,-1,1,0.0
6.0600000000000005,-2,-8,3,0,-2,0,-2,-1,0.0
6.065,0,2,-1,-3,1,0,-2,-2,0.0
6.07,0,-8,2,-1,-1,-1,0,-1,0.0
6.075,3,0,5,-1,-2,1,0,1,0.0
6.08,-2,-12,4,-1,0,-1,-1,-2,0.0
6.085,-2,-47,0,0,-2,0,-4,0,0.0
6.09,-2,-20,-1,-2,-3,-1,-2,1,0.0
6.095,-2,-2,3,-4,0,0,-2,2,0.0
6.1000000000000005,-4,-4,1,0,-2,-2,0,0,0.0
6.105,-1,-10,0,-2,-4,-2,-1,-1,0.0
6.11,1,-10,3,3,2,1,1,-1,0.0
6.115,1,2,-2,-2,-2,-3,-1,1,0.0
6.12,-2,-7,-1,0,-2,-1,0,1,0.0
6.125,4,-11,0,-1,1,-2,-1,-1,0.0
6.13,2,0,1,-4,-2,-2,-1,1,0.0
6.135,-1,1,-1,-1,-1,-1,-2,-1,0.0
6.140000000000001,-1,-5,3,0,0,1,0,0,0.0
6.1450000000000005,-3,11,-2,-2,-1,-2,-1,-1,0.0
6.15,-4,9,2,-2,-3,-1,-1,0,0.0
6.155,1,-2,-1,1,-1,-1,-2,2,0.0
6.16,0,-9,-7,-3,-3,0,0,-3,0.0
6.165,1,4,2,0,-1,-2,-3,1,0.0
6.17,-3,-2,-5,-6,-2,-1,-2,-1,0.0
6.175,-3,7,-4,0,0,-1,1,-5,0.0
6.18,0,-4,-5,0,-1,0,-2,1,0.0
6.1850000000000005,-1,11,0,-1,-1,-1,-2,-1,0.0
6.19,1,-4,-5,-2,-1,-2,-1,-2,0.0
6.195,0,-9,-1,0,-3,0,-1,1,0.0
6.2,-3,2,4,2,-1,-3,-1,1,0.0
6.205,-2,3,-2,0,-2,-2,-1,-4,0.0
6.21,-1,-16,1,0,-1,-1,-2,-1,0.0
6.215,-5,4,-2,3,1,0,-1,-4,0.0
6.22,3,9,4,-5,-2,-2,-1,-4,0.0
6.2250000000000005,1,15,3,-1,-2,-1,-3,0,0.0
6.23,-1,4,-3,-2,0,-1,-2,2,0.0
6.235,-3,-3,-4,-4,-1,-2,0,-3,0.0
6.24,3,-7,-1,1,-1,-1,-2,0,0.0
6.245,-4,-13,3,1,0,-2,-1,-3,0.0
6.25,-1,-8,-1,0,-1,-2,-2,1,0.0
6.255,1,-2,4,0,-2,-1,-2,-2,0.0
6.26,-5,-1,-2,-3,-3,-2,-3,2,0.0
6.265000000000001,-2,-11,-1,-1,1,2,2,-1,0.0
6.2700000000000005,-3,-15,0,-1,-4,-1,-1,-2,0.0
6.275,-1,1,1,0,0,-3,-2,2,0.0
6.28,0,-5,-2,2,2,-1,0,-3,0.0
6.285,-1,7,-2,-2,-2,-2,-1,-1,0.0
6.29,-1,8,-3,-1,-1,-2,-2,-2,0.0
6.295,-3,-5,-3,-4,-2,-1,0,-2,0.0
6.3,1,-19,-6,-4,-2,-2,-3,1,0.0
6.305,-1,-21,-1,1,-2,-1,0,-1,0.0
6.3100000000000005,1,3,1,0,0,1,2,0,0.0
6.315,0,-11,-4,-2,-1,-1,0,0,0.0
6.32,-2,-1,-2,0,-1,-2,-2,0,0.0
6.325,0,2,-6,-2,-2,0,-2,-1,0.0
6.33,-1,4,2,-4,-2,-3,-1,-3,0.0
6.335,0,0,1,-1,-2,-1,-2,-2,0.0
6.34,-4,8,-1,-2,-1,0,-1,-4,0.0
6.345,-3,17,-2,-2,1,-2,-1,-2,0.0
6.3500000000000005,-1,2,-6,0,-2,1,0,-1,0.0
6.355,1,40,-8,-4,0,0,1,0,0.0
6.36,-2,0,6,0,-2,-1,0,-3,0.0
6.365,-2,-5,-13,-3,-1,-2,-1,0,0.0
6.37,-2,0,0,2,1,-2,0,0,0.0
6.375,-3,-14,-5,-1,-4,-3,-2,0,0.0
6.38,1,-3,0,1,1,-1,1,-3,0.0
6.385,2,4,0,-3,0,-1,-1,2,0.0
6.390000000000001,-1,-4,-1,-3,-1,1,-2,-1,0.0
6.3950000000000005,-5,-3,-2,-3,-2,0,1,-2,0.0
6.4,1,3,0,0,-1,-2,-4,1,0.0
6.405,-2,2,-1,-1,-1,-1,-2,-3,0.0
6.41,-1,0,0,-1,0,-3,-2,3,0.0
6.415,-2,-7,8,-1,1,0,-3,0,0.0
6.42,0,5,1,-1,-2,-1,1,-4,0.0
6.425,0,4,2,1,-1,0,1,2,0.0
6.43,0,-22,-8,0,-2,-3,-2,-1,0.0
6.4350000000000005,2,-31,0,2,1,-1,-2,-2,0.0
6.44,-2,0,0,-1,-1,-2,0,-1,0.0
6.445,4,14,2,-3,-1,1,-1,-1,0.0
6.45,-4,-1,7,-1,-3,-1,-1,1,0.0
6.455,1,-4,4,-1,-1,-2,-3,1,0.0
6.46,-1,-5,-9,-4,-2,0,0,0,0.0
6.465,-2,-5,0,1,0,-1,-1,-1,0.0
6.47,-1,3,2,0,0,0,-1,-2,0.0
6.4750000000000005,1,1,5,0,-3,0,-1,0,0.0
6.48,-1,-3,2,-1,-1,-1,-1,-1,0.0
6.485,-2,1,3,-2,-2,-2,0,-1,0.0
6.49,-1,5,-4,-3,-3,-3,-2,-1,0.0
6.495,2,-3,-7,-3,-2,0,0,1,0.0
6.5,-2,1,1,1,0,0,-1,-1,0.0
6.505,0,-3,-1,-3,-3,-1,-1,-1,0.0
6.51,1,2,6,1,-3,-1,-1,0,0.0
6.515000000000001,3,-2,5,-2,-2,-2,-2,0,0.0
6.5200000000000005,-1,3,-6,-1,0,-1,0,1,0.0
6.525,-1,3,-1,-4,-3,-2,-1,-2,0.0
6.53,-1,-3,3,-1,-2,0,-1,0,0.0
6.535,-3,6,1,0,1,-1,0,1,0.0
6.54,4,36,-1,-4,-2,0,-2,0,0.0
6.545,-1,-8,0,1,1,3,-3,-1,0.0
6.55,-3,-13,1,1,-1,-2,-2,-3,0.0
6.555,-2,-2,-1,-4,-2,-1,-1,-2,0.0
6.5600000000000005,1,-6,-1,-1,-1,-1,0,-1,0.0
6.565,0,-3,-4,-1,-1,0,0,-3,0.0
6.57,0,13,-8,-1,0,-1,-1,-1,0.0
6.575,-4,-19,-4,-1,-1,1,-1,-2,0.0
6.58,-4,-6,0,0,-5,-2,0,0,0.0
6.585,-2,3,-2,-2,-1,0,-1,0,0.0
6.59,2,-7,1,-2,-1,0,1,1,0.0
6.595,-1,3,-1,0,0,-3,-1,-3,0.0
6.6000000000000005,2,-6,-3,-3,-1,-1,-1,1,0.0
6.605,-3,-7,1,-1,-1,-1,0,-2,0.0
6.61,2,7,0,-2,-3,-3,1,-3,0.0
6.615,-4,-14,-4,-2,-3,-2,-2,-1,0.0
6.62,-4,-35,3,-3,0,1,-2,-2,0.0
6.625,-1,-3,2,0,-3,-3,-2,1,0.0
6.63,1,-1,-2,-4,1,-2,-2,-2,0.0
6.635,-2,8,-2,-1,-2,-1,-2,0,0.0
6.640000000000001,1,-5,-1,0,-2,-3,-2,-5,0.0
6.6450000000000005,0,8,-5,-5,-2,-2,0,-1,0.0
6.65,2,-13,0,0,-3,0,-2,1,0.0
6.655,-3,3,2,-1,0,-1,-1,0,0.0
6.66,-1,4,-2,-3,-3,0,0,-2,0.0
6.665,0,-4,-1,1,-1,-1,-1,-1,0.0
6.67,0,7,0,-1,-1,-1,-3,0,0.0
6.675,4,-1,-6,-2,-1,-2,-2,-2,0.0
6.68,-2,2,-1,-1,0,-2,-2,1,0.0
6.6850000000000005,-1,-31,-3,0,2,-1,-1,-1,0.0
6.69,-3,0,3,-2,-3,0,-3,-2,0.0
6.695,-3,6,8,1,-2,-2,-2,-1,0.0
6.7,-3,11,-2,-2,-2,0,-1,-2,0.0
6.705,2,-5,-1,2,-3,0,-2,-2,0.0
6.71,-4,-2,-6,-1,1,-2,1,1,0.0
6.715,-1,-3,0,-2,-2,1,-1,-2,0.0
6.72,-1,-3,4,1,0,0,0,-2,0.0
6.7250000000000005,-4,17,2,1,-2,-3,0,-3,0.0
6.73,0,5,-3,-1,-1,-2,-1,-1,0.0
6.735,2,3,-4,-2,-1,0,0,-2,0.0
6.74,-3,-1,-4,0,-3,-1,-2,0,0.0
6.745,-1,0,-3,-1,2,3,-2,0,0.0
6.75,2,9,-7,-2,0,-2,0,-2,0.0
6.755,-1,-7,2,1,1,-1,1,1,0.0
6.76,0,1,2,-2,0,-3,-1,-1,0.0
6.765000000000001,-4,2,-3,-2,-2,-1,-3,-4,0.0
6.7700000000000005,-7,-28,3,2,-2,-2,-3,-1,0.0
6.775,3,3,5,0,0,-2,-4,-1,0.0
6.78,-1,-9,-2,0,0,-2,0,-1,0.0
6.785,-1,1,4,0,-2,-3,1,2,0.0
6.79,-1,13,1,0,-2,-1,0,-1,0.0
6.795,0,-21,-2,-4,-3,1,-1,-1,0.0
6.8,0,-7,0,-1,-1,-2,-1,2,0.0
6.805,0,-7,2,0,0,-1,-1,-2,0.0
6.8100000000000005,-1,4,0,-1,-2,1,-2,-2,0.0
6.815,-1,4,1,0,-3,-4,0,0,0.0
6.82,1,4,-12,-2,-2,1,-1,-3,0.0
6.825,0,0,-1,-1,0,-2,-2,-1,0.0
6.83,-2,-5,1,-1,0,0,-1,2,0.0
6.835,0,7,-4,-2,-2,0,-2,-1,0.0
6.84,-2,-32,-2,-4,-2,1,-2,-3,0.0
6.845,1,-6,4,-1,-2,0,-2,-1,0.0
6.8500000000000005,-1,-5,2,1,0,0,-2,1,0.0
6.855,-1,-3,-1,-1,-4,1,0,-2,0.0
6.86,2,3,5,0,-1,-1,-1,0,0.0
6.865,1,-8,-10,-2,1,0,0,-1,0.0
6.87,0,2,1,0,-3,-2,-1,-2,0.0
6.875,-4,-11,-1,0,-1,-1,0,-1,0.0
6.88,-1,12,3,0,-3,-1,1,0,0.0
6.885,4,28,-7,-3,-2,-1,1,0,0.0
6.890000000000001,0,14,-1,-2,-4,-2,0,-1,0.0
6.8950000000000005,-1,4,-5,-1,0,-2,-1,-2,0.0
6.9,-3,1,3,0,1,0,0,2,0.0
6.905,0,-5,2,1,0,-3,-2,-1,0.0
6.91,1,-4,-3,-5,0,-1,1,0,0.0
6.915,-2,4,1,0,-2,-1,-2,0,0.0
6.92,-1,7,1,-1,-2,-1,-1,-1,0.0
6.925,3,22,-6,-3,-1,0,1,0,0.0
6.93,-1,-9,0,-4,-2,-2,-2,-1,0.0
6.9350000000000005,-2,1,0,1,2,-1,-2,-2,0.0
6.94,-1,1,-5,-2,-2,-4,-2,-1,0.0
6.945,-4,-8,4,1,-3,-3,-3,-2,0.0
6.95,0,5,2,0,-1,2,1,-3,0.0
6.955,0,18,0,-3,-1,-1,-1,-2,0.0
6.96,-3,-6,0,0,1,0,-1,-2,0.0
6.965,0,-6,-3,-1,0,-3,0,0,0.0
6.97,-1,-2,0,-2,1,-2,-1,-2,0.0
6.9750000000000005,0,-7,-1,1,-1,-5,-3,-2,0.0
6.98,-1,0,-1,1,0,0,1,-1,0.0
6.985,-2,-5,2,0,-4,-3,-4,0,0.0
6.99,2,6,3,2,-1,-1,0,-2,0.0
6.995,-3,3,0,-1,-3,1,1,1,0.0
7.0,-1,-1,-1,0,1,-1,1,-3,0.0
7.005,-2,-5,1,-1,-2,-1,0,-2,0.0
7.01,3,-39,-8,-2,-1,-1,-3,2,0.0
7.015000000000001,0,-4,2,-1,-1,-3,-2,-2,0.0
7.0200000000000005,-2,0,-3,1,-3,-3,-1,-1,0.0
7.025,-2,-6,1,0,0,2,1,-1,0.0
7.03,0,-1,3,-2,-1,-3,0,-2,0.0
7.035,-1,-1,-3,0,0,0,0,0,0.0
7.04,0,-2,0,-3,-1,-2,-3,-2,0.0
7.045,-1,-7,6,0,-2,-4,-2,-1,0.0
7.05,-2,5,-5,-5,-4,-2,-2,-1,0.0
7.055,-1,-5,3,0,-1,0,0,2,0.0
7.0600000000000005,0,3,4,-2,0,0,-1,-1,0.0
7.065,-4,1,-6,-2,0,1,-2,-1,0.0
7.07,-3,1,-2,0,1,2,0,-5,0.0
7.075,-1,-3,0,0,-1,0,0,-1,0.0
7.08,-1,-3,-4,-3,-3,-1,-2,-2,0.0
7.085,-2,-2,-3,-3,-2,2,0,0,0.0
7.09,1,2,-2,0,-2,-1,-2,-1,0.0
7.095,-2,-3,-6,-3,-2,-2,-3,-5,0.0
7.1000000000000005,-2,-3,-1,-2,0,-1,-1,1,0.0
7.105,5,0,0,0,-1,0,0,0,0.0
7.11,-3,3,-1,0,0,-1,0,0,0.0
7.115,2,-3,-2,-1,-1,1,-1,-2,0.0
7.12,0,2,1,0,-1,-1,-2,-1,0.0
7.125,-4,-3,-1,-1,0,-1,-1,-1,0.0
7.13,-2,0,-3,0,0,-1,-2,-1,0.0
7.135,-1,-2,-6,-2,-2,-2,-1,-1,0.0
7.140000000000001,-3,-1,-2,-2,0,0,0,-1,0.0
7.1450000000000005,-1,-3,2,0,-3,-3,-2,-2,0.0
7.15,0,-3,0,1,1,0,0,-2,0.0
7.155,-4,0,1,0,-1,0,-2,-2,0.0
7.16,0,1,-1,0,1,-1,-2,-1,0.0
7.165,1,2,0,-1,-1,0,-2,-1,0.0
7.17,-1,5,-5,-2,-1,0,-1,0,0.0
7.175,-2,-5,-1,0,0,-1,1,-1,0.0
7.18,-2,-2,-2,-3,0,-1,2,-2,0.0
7.1850000000000005,-2,1,-2,-3,1,-1,0,-1,0.0
7.19,-1,-4,-1,0,-3,-1,-2,2,0.0
7.195,2,1,-3,-1,-1,-1,1,0,0.0
7.2,1,-2,-3,-3,-3,0,-1,-1,0.0
7.205,-1,-4,0,-2,0,-3,0,-2,0.0
7.21,-2,-2,2,-1,-1,-1,-1,-2,0.0
7.215,-2,2,-2,-2,0,-2,1,0,0.0
7.22,2,-2,0,-1,-1,0,-1,-3,0.0
7.2250000000000005,2,-8,-2,-1,-2,-2,-2,-1,0.0
7.23,-2,-2,0,-1,-5,-2,-3,1,0.0
7.235,-4,-23,7,2,-2,-3,-4,2,0.0
7.24,-2,10,2,-1,-1,0,-1,1,0.0
7.245,1,-4,1,-2,-2,0,0,-3,0.0
7.25,0,4,7,0,-2,-2,0,-2,0.0
7.255,1,10,-5,-1,-1,0,-2,-1,0.0
7.26,2,-1,3,-1,-3,-1,-3,0,0.0
7.265000000000001,-2,-1,-2,-2,-1,-2,-2,0,0.0
7.2700000000000005,0,2,3,-1,1,0,1,-1,0.0
7.275,0,3,1,1,-2,-2,-1,-4,0.0
7.28,-1,-3,-3,-1,-1,-2,0,0,0.0
7.285,0,5,-4,0,2,1,1,-2,0.0
7.29,0,-4,-3,-1,1,-1,-2,0,0.0
7.295,1,-5,2,-2,0,0,-2,2,0.0
7.3,-2,-2,-4,-3,-3,-2,-2,-3,0.0
7.305,0,-13,2,0,-2,-2,1,1,0.0
7.3100000000000005,-1,0,-3,0,-2,0,-3,1,0.0
7.315,1,-2,-4,-1,0,0,-1,1,0.0
7.32,-1,3,-1,0,0,-2,-2,1,0.0
7.325,-2,-1,-1,-1,0,1,1,0,0.0
7.33,1,-4,0,-2,0,-2,-1,-3,0.0
7.335,-1,8,-3,-4,-1,-2,-1,0,0.0
7.34,-1,-3,-2,1,0,0,0,-2,0.0
7.345,0,0,-1,-2,-1,-2,-3,-1,0.0
7.3500000000000005,0,-5,2,0,-4,-2,-1,3,0.0
7.355,0,-5,3,0,0,-1,1,2,0.0
7.36,-3,0,-1,-2,0,-2,-1,0,0.0
7.365,2,2,2,0,-3,0,-3,0,0.0
7.37,-1,-3,0,-3,1,-1,-1,-1,0.0
7.375,0,2,1,-1,-1,-3,-1,-3,0.0
7.38,1,-7,1,0,-2,-1,0,0,0.0
7.385,-1,2,-1,-1,-4,-3,-2,0,0.0
7.390000000000001,-1,-5,-1,-1,-3,-2,-2,0,0.0
7.3950000000000005,-1,-1,-5,-1,-1,-1,-2,-1,0.0
7.4,0,-2,0,0,0,1,-1,1,0.0
7.405,-3,-4,1,-1,-1,0,-1,-3,0.0
7.41,-2,0,-2,-3,0,-3,-2,0,0.0
7.415,-1,-3,2,-1,-3,-2,-2,-2,0.0
7.42,-1,0,1,-1,-3,-2,-1,0,0.0
7.425,2,-2,-2,-3,0,-1,0,-2,0.0
7.43,-1,-1,-5,-1,-4,-1,-2,-3,0.0
7.4350000000000005,-2,-2,0,-1,0,0,-3,4,0.0
7.44,1,-2,-4,-1,1,0,0,-1,0.0
7.445,1,-2,-2,-3,-1,-3,-3,0,0.0
7.45,-3,-3,-2,-1,0,-1,-1,-2,0.0
7.455,-6,0,-4,-1,-4,-2,0,-1,0.0
7.46,-3,0,-3,0,-2,-1,1,-2,0.0
7.465,0,0,-2,1,0,0,-1,1,0.0
7.47,-1,-2,-4,0,-1,0,-1,0,0.0
7.4750000000000005,1,-1,-2,1,-3,-3,-2,-1,0.0
7.48,-1,1,2,-2,1,-2,-1,-2,0.0
7.485,-2,-1,0,-1,-2,-2,0,0,0.0
7.49,-2,-2,1,0,1,-1,-2,-1,0.0
7.495,-1,-2,-2,-1,1,0,0,-1,0.0
7.5,1,-2,-5,-1,0,1,-1,-3,0.0
7.505,-3,0,-2,0,0,-1,-1,-1,0.0
7.51,1,0,0,-2,-2,-1,-1,-1,0.0
7.515000000000001,-1,-2,-1,-3,-2,-1,-1,-1,0.0
7.5200000000000005,-4,-3,1,1,-1,-2,-2,2,0.0
7.525,-1,-1,2,-2,-1,-1,-1,0,0.0
7.53,0,-1,-2,1,1,-1,-1,-1,0.0
7.535,1,-3,1,1,-1,0,-1,-1,0.0
7.54,-1,2,0,-2,-2,-2,-2,-1,0.0
7.545,0,-2,2,-2,-1,0,-2,-2,0.0
7.55,-3,-2,-1,-1,-1,1,-1,-1,0.0
7.555,-1,1,-1,-2,0,0,0,-4,0.0
7.5600000000000005,-1,-1,-1,-1,-2,-2,-2,0,0.0
7.565,0,-1,-2,-1,-3,-1,-2,-1,0.0
7.57,0,-1,0,-2,-1,0,-2,-1,0.0
7.575,-2,-4,2,-1,-2,0,0,-1,0.0
7.58,0,2,0,-2,1,-1,-1,-1,0.0
7.585,-3,-2,-2,2,1,-1,-1,-2,0.0
7.59,0,0,-3,-1,-1,-1,0,2,0.0
7.595,-4,-2,1,-2,-2,0,-1,-1,0.0
7.6000000000000005,-1,-2,-3,-3,0,0,-1,-1,0.0
7.605,0,-3,-2,0,-1,-1,0,-1,0.0
7.61,-2,-4,-1,-3,-1,-1,0,-2,0.0
7.615,2,2,-2,-1,-1,0,0,-1,0.0
7.62,-2,-1,1,-1,-1,-2,-1,-1,0.0
7.625,-1,-2,-3,-1,-2,-3,-1,0,0.0
7.63,-3,-1,-1,0,-1,0,-2,1,0.0
7.635,-1,-3,-3,-1,1,0,-2,-2,0.0
7.640000000000001,-1,-6,-2,-1,-2,-2,-1,-1,0.0
7.6450000000000005,-3,1,-1,-3,1,-2,-2,-1,0.0
7.65,-1,-1,-1,-1,-2,-2,-1,-2,0.0
7.655,-1,-1,-2,-1,-3,-3,-1,0,0.0
7.66,0,2,1,-1,-3,-3,-3,-1,0.0
7.665,0,-3,1,-1,-1,3,1,-2,0.0
7.67,-1,-8,1,1,-3,0,1,-1,0.0
7.675,0,2,-1,-1,-1,-2,0,1,0.0
7.68,2,-3,-1,-1,-1,0,-2,-3,0.0
7.6850000000000005,1,1,0,0,-3,-2,-5,1,0.0
7.69,-2,1,1,-3,0,0,0,0,0.0
7.695,-1,-2,-3,-1,-2,0,-2,-1,0.0
7.7,-4,-1,0,-2,-2,0,-1,-3,0.0
7.705,2,-2,1,-3,-2,-3,1,1,0.0
7.71,0,-1,0,1,-2,-1,-3,0,0.0
7.715,-1,3,-1,-2,-2,-3,-3,0,0.0
7.72,-3,-2,2,0,-2,1,0,0,0.0
7.7250000000000005,-2,-2,-4,-1,-2,0,0,-2,0.0
7.73,0,-2,-1,-1,-1,-1,-2,-4,0.0
7.735,1,-2,0,0,-1,-1,-3,0,0.0
7.74,0,-2,-3,-2,-3,-1,2,0,0.0
7.745,-5,-3,-1,-3,-1,-1,0,-1,0.0
7.75,0,0,-1,-1,-1,-2,-1,2,0.0
7.755,-3,-1,0,1,-1,-1,-1,-2,0.0
7.76,-1,-3,-1,-1,-1,-2,-2,-2,0.0
7.765000000000001,1,-1,-6,1,-2,-1,-1,-1,0.0
7.7700000000000005,-1,0,0,-4,-2,-1,-1,0,0.0
7.775,-2,-4,-1,0,0,0,-1,1,0.0
7.78,-1,0,0,-1,-1,-1,-3,-1,0.0
7.785,-1,2,4,1,-1,-1,-1,1,0.0
7.79,3,-1,0,-1,-3,-2,-3,0,0.0
7.795,1,-3,-2,-2,-3,-2,0,-5,0.0
7.8,0,-2,-2,0,1,-1,0,1,0.0
7.805000000000001,-3,-6,0,-1,-4,-3,-2,-1,0.0
7.8100000000000005,-2,-1,0,-2,-2,-2,-1,-2,0.0
7.815,-6,-2,-2,-1,-3,-2,-1,-1,0.0
7.82,-4,-2,-4,-2,0,0,-1,-2,0.0
7.825,-1,-3,-5,0,-1,-2,-2,-3,0.0
7.83,0,-1,-1,1,-2,-1,-3,-1,0.0
7.835,-1,-3,-4,-1,0,-2,-2,0,0.0
7.84,-1,-1,2,2,-1,-1,-1,-1,0.0
7.845,-2,2,-3,-2,-4,0,-2,-1,0.0
7.8500000000000005,-3,-2,-6,0,-2,-1,1,-3,0.0
7.855,-2,2,-3,-1,-1,-1,0,0,0.0
7.86,1,-2,-1,-5,2,-1,1,-3,0.0
7.865,-2,-1,-2,-1,1,0,-1,-1,0.0
7.87,-1,-2,1,-1,0,0,0,-1,0.0
7.875,1,-3,-2,-1,0,1,1,-3,0.0
7.88,-4,-2,-3,-2,-3,-2,0,2,0.0
7.885,2,1,1,-3,0,-2,-2,0,0.0
7.890000000000001,-4,-4,-3,0,-3,-2,-2,-4,0.0
7.8950000000000005,-2,0,-1,-1,0,-2,1,1,0.0
7.9,0,-2,-1,1,-1,-1,-3,-2,0.0
7.905,2,-1,0,0,0,0,-1,1,0.0
7.91,2,-3,1,2,0,-2,-4,-2,0.0
7.915,1,-2,1,-3,-3,-4,-1,-1,0.0
7.92,-1,-4,-4,1,1,-2,0,0,0.0
7.925,-1,0,-2,-2,-2,-2,-1,0,0.0
7.930000000000001,-2,0,2,-2,-2,-2,-1,2,0.0
7.9350000000000005,-1,1,-5,-2,-1,1,-1,0,0.0
7.94,-1,3,0,-1,0,0,1,2,0.0
7.945,-3,-5,2,1,-1,0,0,-2,0.0
7.95,-2,-2,-3,-2,-2,-3,-1,-3,0.0
7.955,-1,-2,2,-1,0,-1,-2,-4,0.0
7.96,-1,-1,0,-3,-2,-1,-1,0,0.0
7.965,0,0,-2,-1,-1,-1,-1,-2,0.0
7.97,2,-2,0,0,-1,0,0,2,0.0
7.9750000000000005,1,1,0,-2,-2,1,-1,0,0.0
7.98,3,0,-3,-2,-2,-2,-1,0,0.0
7.985,-1,-2,0,-1,-3,-1,-4,-1,0.0
7.99,2,-4,3,0,0,0,-1,-1,0.0
7.995,-1,-2,3,0,-2,0,-1,-3,0.0
8.0,1,-25,-4,-1,0,0,0,-2,0.0
8.005,-1,4,-1,-2,-2,-3,-2,0,0.0
8.01,-2,-3,-2,0,-2,-2,3,-2,0.0
8.015,-2,-2,0,-1,-1,-4,-2,1,0.0
8.02,-1,1,2,-2,-2,-3,-3,-1,0.0
8.025,3,5,2,-3,-1,-3,-4,-1,0.0
8.03,-6,-19,-5,0,5,7,4,-3,0.0
8.035,2,-2,3,-1,-3,-3,-1,2,0.0
8.040000000000001,-2,0,5,3,-3,-2,-3,-4,0.0
8.045,1,19,0,-3,-1,-1,1,-3,0.0
8.05,-5,7,-2,-2,-4,-2,-3,-4,0.0
8.055,-3,-3,-2,-2,-1,-2,-3,1,0.0
8.06,-1,-5,0,-1,0,-1,-2,0,0.0
8.065,-2,-8,-1,0,-1,0,0,0,0.0
8.07,1,4,-3,-2,0,-1,1,-3,0.0
8.075,1,0,-3,-3,-1,-1,1,-3,0.0
8.08,0,8,0,-1,-3,-3,-2,0,0.0
8.085,-2,-11,1,2,-1,0,-2,-3,0.0
8.09,-1,2,-5,-4,-2,-1,-1,1,0.0
8.095,0,-6,0,1,-1,1,-1,-1,0.0
8.1,-2,4,0,-4,-1,0,1,-3,0.0
8.105,-1,-7,-2,-1,0,-3,2,0,0.0
8.11,1,-3,2,-1,-2,-2,-2,2,0.0
8.115,-2,1,-1,0,0,-1,-1,-1,0.0
8.120000000000001,-3,0,-4,0,-1,1,0,2,0.0
8.125,-1,-2,-1,-2,-2,-1,0,1,0.0
8.13,-1,1,-1,-1,-5,-2,-4,1,0.0
8.135,1,-2,0,-1,1,0,-2,-4,0.0
8.14,2,6,-8,-4,0,1,1,-1,0.0
8.145,-6,-10,-2,1,-2,0,-3,0,0.0
8.15,1,-1,-3,-3,-2,-4,-1,0,0.0
8.155,1,6,-2,-1,-2,-2,-3,-2,0.0
8.16,-3,-4,0,1,1,-1,0,-2,0.0
8.165000000000001,-1,-18,-2,-2,-2,0,0,-1,0.0
8.17,1,-2,1,-1,0,-2,-2,0,0.0
8.175,-2,-9,-1,0,-1,0,-2,-1,0.0
8.18,-2,-4,0,-1,-2,-3,-1,0,0.0
8.185,-1,-3,-2,-1,-1,-2,-1,-2,0.0
8.19,-2,1,-2,0,-1,-2,-3,-2,0.0
8.195,-1,-2,-2,-1,-3,-1,-1,-2,0.0
8.2,-2,-5,-1,0,-1,-1,0,0,0.0
8.205,-1,-5,-9,-4,-1,-2,0,-3,0.0
8.21,1,-1,-1,-1,-4,-2,-4,-2,0.0
8.215,-2,3,-3,-3,-1,0,-1,0,0.0
8.22,-2,3,-3,-3,-2,-1,-1,-3,0.0
8.225,1,1,1,2,-1,-1,-2,-1,0.0
8.23,3,-5,-1,0,-1,-1,0,-3,0.0
8.235,-3,-3,-8,0,0,0,0,-1,0.0
8.24,-5,2,2,0,0,-1,-1,-2,0.0
8.245000000000001,1,40,-7,-2,-1,-2,1,-1,0.0
8.25,-3,-2,-1,0,-1,-1,-1,0,0.0
8.255,-4,2,1,0,2,-1,1,0,0.0
8.26,1,2,1,-3,-4,-2,-1,1,0.0
8.265,-2,-3,2,0,1,1,-2,-2,0.0
8.27,-2,-3,2,-1,-1,-2,-2,4,0.0
8.275,-2,0,0,1,-2,-1,-2,0,0.0
8.28,1,-3,-1,-4,-2,-1,-1,-2,0.0
8.285,-3,-9,5,-2,-2,1,-1,-1,0.0
8.290000000000001,0,1,-4,-2,-1,-1,-1,-4,0.0
8.295,0,-11,1,2,0,-1,-1,1,0.0
8.3,0,1,-7,-1,-2,0,-2,1,0.0
8.305,1,-2,1,-2,-2,-4,-2,1,0.0
8.31,-1,2,1,0,2,0,0,-1,0.0
8.315,0,2,0,-2,-1,-1,0,-1,0.0
8.32,0,-3,0,0,-1,-2,0,-1,0.0
8.325,0,-8,1,0,-1,0,-1,-1,0.0
8.33,3,-2,0,-2,-2,0,-1,1,0.0
8.335,-1,0,-1,-2,-2,-2,-1,0,0.0
8.34,4,-1,2,1,-1,1,-2,0,0.0
8.345,-2,-4,-1,0,-2,-2,-1,-1,0.0
8.35,0,-1,4,-2,-1,-1,0,2,0.0
8.355,-1,-2,0,-1,-2,2,0,-2,0.0
8.36,0,-12,-4,-2,-2,0,-1,-3,0.0
8.365,0,-1,2,-3,-4,-1,-1,-1,0.0
8.370000000000001,-2,-3,3,-1,-1,-2,-3,-2,0.0
8.375,-4,-43,2,0,-1,-2,-2,2,0.0
8.38,-2,3,4,-1,0,-2,-1,1,0.0
8.385,-3,-1,-2,-4,-2,-1,0,-1,0.0
8.39,-1,-10,-3,-1,-1,1,1,-1,0.0
8.395,0,-5,-2,-2,0,-1,-2,-1,0.0
8.4,0,0,0,-2,-1,-3,0,-2,0.0
8.405,2,-3,2,0,0,2,-1,-2,0.0
8.41,-4,6,-1,-1,-3,-2,0,-1,0.0
8.415000000000001,3,12,-2,-3,-1,-2,-1,0,0.0
8.42,-4,-1,-3,0,-1,-1,0,-1,0.0
8.425,-1,1,-2,1,-1,-1,1,3,0.0
8.43,-1,-4,0,0,-3,0,-1,-3,0.0
8.435,1,3,-2,1,-2,-1,-2,-4,0.0
8.44,1,4,-1,-3,-2,-1,-1,0,0.0
8.445,2,-10,1,0,-2,-2,-2,1,0.0
8.45,0,2,-1,-2,-2,-3,0,-1,0.0
8.455,-2,1,2,0,0,2,1,0,0.0
8.46,2,3,1,-1,-1,-1,-1,0,0.0
8.465,2,0,2,0,-3,-3,-2,1,0.0
8.47,0,14,-14,-2,-1,0,0,-2,0.0
8.475,0,4,0,-2,-2,-2,0,-2,0.0
8.48,-3,-18,-5,-2,0,1,-4,-3,0.0
8.485,-2,4,2,-2,0,1,-1,-1,0.0
8.49,0,-4,3,1,-1,-2,-3,1,0.0
8.495000000000001,2,4,0,-3,-3,-2,-1,0,0.0
8.5,0,-3,1,2,0,-2,-1,-1,0.0
8.505,-1,-11,-4,-3,-1,-4,0,-3,0.0
8.51,-1,-3,-1,-1,-1,-3,-2,-1,0.0
8.515,-2,2,2,-2,0,1,-1,0,0.0
8.52,-2,4,2,-1,-1,-2,0,-3,0.0
8.525,1,0,3,-1,-1,-2,-1,-2,0.0
8.53,-3,2,-2,-2,-1,-2,0,-1,0.0
8.535,1,8,-1,-2,0,0,-1,-1,0.0
8.540000000000001,-1,2,1,0,0,-1,-1,0,0.0
8.545,-2,-3,-4,0,-2,-1,-3,0,0.0
8.55,-1,-5,1,-2,-1,-1,1,0,0.0
8.555,-3,-7,-2,-1,-1,-2,-1,-3,0.0
8.56,-2,-1,-1,-2,-3,0,1,-3,0.0
8.565,0,-2,-3,-1,0,0,-1,-1,0.0
8.57,-1,-3,2,0,-1,-1,-2,-2,0.0
8.575000000000001,-4,2,-1,0,-2,-3,-2,-3,0.0
8.58,1,-12,-8,-3,0,0,-1,1,0.0
8.585,-1,-13,-6,-3,2,0,0,-2,0.0
8.59,-2,1,-4,-3,-2,0,-2,-1,0.0
8.595,-2,1,-1,-1,1,-1,1,1,0.0
8.6,-1,1,-1,-1,-2,-2,-1,0,0.0
8.605,-2,0,1,3,-1,-1,0,0,0.0
8.61,-4,3,0,-1,1,-1,-1,2,0.0
8.615,-1,3,-2,-5,-3,-2,0,-3,0.0
8.620000000000001,-2,4,1,-3,3,0,0,1,0.0
8.625,-3,3,-3,-1,-3,-1,0,-3,0.0
8.63,-1,-2,-1,2,-1,-1,-2,-2,0.0
8.635,-1,2,-1,1,-3,-1,-3,-1,0.0
8.64,-4,0,0,0,-3,-2,-1,-3,0.0
8.645,-2,11,2,-3,-3,-3,-3,-2,0.0
8.65,5,33,-7,-5,-1,-2,1,-1,0.0
8.655,-2,-3,-5,-2,0,0,-1,1,0.0
8.66,-2,2,-2,0,0,-1,0,0,0.0
8.665000000000001,-2,0,-2,-3,-3,0,-2,3,0.0
8.67,0,-15,3,-1,-2,-1,0,-3,0.0
8.675,-3,-2,-1,-1,-2,0,0,-2,0.0
8.68,-2,2,4,0,-3,-4,-1,0,0.0
8.685,-1,-2,1,-2,0,0,-1,-1,0.0
8.69,-2,-8,2,-1,-1,0,-2,0,0.0
8.695,-1,-3,-3,-1,-3,-1,-1,-1,0.0
8.700000000000001,-2,-4,-1,0,-2,-2,-1,-3,0.0
8.705,-4,-4,2,-1,-1,-1,0,-1,0.0
8.71,2,1,1,-2,-2,-1,-3,-2,0.0
8.715,1,-1,-2,1,0,-1,0,0,0.0
8.72,0,-3,-1,1,0,0,0,-1,0.0
8.725,6,4,0,1,-2,-3,-1,2,0.0
8.73,-2,-9,-2,-2,-1,0,0,-1,0.0
8.735,0,1,2,-1,-1,0,-1,0,0.0
8.74,2,0,2,-1,-3,0,-1,2,0.0
8.745000000000001,-1,-5,1,0,1,-1,-1,-1,0.0
8.75,-5,-37,0,-1,-5,-2,-3,-3,0.0
8.755,0,-5,-1,-2,-1,-3,-4,-3,0.0
8.76,-1,-3,1,0,-1,-2,-1,-1,0.0
8.765,-1,-6,0,0,-1,0,-2,0,0.0
8.77,-1,0,1,-1,-3,-2,-1,0,0.0
8.775,0,-1,-1,-2,1,-1,0,-2,0.0
8.78,-1,3,-1,-1,-1,-1,-1,-2,0.0
8.785,-2,-5,-1,-1,0,-2,-2,-1,0.0
8.790000000000001,1,2,-3,0,0,0,0,0,0.0
8.795,-2,7,-1,0,-2,-3,-2,-2,0.0
8.8,0,-1,-3,2,-2,-1,-2,-1,0.0
8.805,-2,5,-2,-3,-3,0,-3,1,0.0
8.81,0,-1,0,1,0,0,-2,0,0.0
8.815,2,-14,-3,0,0,-1,0,2,0.0
8.82,-2,-1,-2,-4,0,0,1,-3,0.0
8.825000000000001,-1,4,-3,0,-2,-2,-2,-1,0.0
8.83,-1,3,-1,3,0,-3,-1,1,0.0
8.835,-1,4,5,1,-2,-1,-1,0,0.0
8.84,1,-1,-2,0,0,-1,-2,-1,0.0
8.845,3,-8,-2,-2,-1,0,0,-1,0.0
8.85,-2,-2,1,1,-1,-1,-1,-1,0.0
8.855,-3,3,0,-2,-1,-3,-2,-2,0.0
8.86,4,36,-8,-6,0,0,-1,-1,0.0
8.865,-1,1,1,0,-4,-2,-1,-2,0.0
8.870000000000001,-2,1,0,-1,-3,-1,-2,1,0.0
8.875,-1,-3,1,-1,-2,0,0,0,0.0
8.88,-2,-10,2,0,-2,-2,-1,1,0.0
8.885,0,-6,0,1,1,-1,1,-1,0.0
8.89,2,1,0,-3,0,0,-1,-1,0.0
8.895,-1,0,-4,-2,-2,-2,0,0,0.0
8.9,-1,-8,-2,1,-1,-2,-2,-1,0.0
8.905,-3,1,-5,-6,-3,-3,-1,-3,0.0
8.91,0,-6,2,0,-3,-1,-2,1,0.0
8.915000000000001,1,-9,-4,-1,1,-1,-2,3,0.0
8.92,-1,-5,3,-1,1,-1,-1,-2,0.0
8.925,-1,-3,-1,2,1,-1,-1,-2,0.0
8.93,-2,3,-1,-1,0,-2,0,-5,0.0
8.935,1,-3,-2,-2,-2,-3,-2,-4,0.0
8.94,-2,-3,-2,0,-1,0,0,-1,0.0
8.945,4,35,-8,0,-1,-1,0,-2,0.0
8.950000000000001,-3,0,2,-2,0,0,1,0,0.0
8.955,-1,-4,5,0,-1,-1,-1,-2,0.0
8.96,1,-6,1,1,-2,-1,-1,-2,0.0
8.965,-5,-8,1,-1,-2,0,-1,-2,0.0
8.97,-1,-1,-1,0,-4,-1,-2,-1,0.0
8.975,-1,5,-2,0,-1,-1,1,0,0.0
8.98,-4,-1,-1,-3,-4,0,-1,-1,0.0
8.985,-2,-7,-3,-3,-1,0,-1,0,0.0
8.99,1,-6,-3,1,2,0,0,0,0.0
8.995000000000001,-3,-1,-3,-3,-1,-1,-1,-3,0.0
9.0,-1,-5,0,0,1,0,-1,-2,0.0
9.005,-3,-7,-2,1,-1,-2,-2,0,0.0
9.01,-1,-2,-1,-2,0,-1,-2,-1,0.0
9.015,0,2,1,0,-3,-2,-2,1,0.0
9.02,2,-4,-3,-2,1,0,0,-1,0.0
9.025,0,-2,-1,-1,-2,0,-1,1,0.0
9.03,-3,-2,-3,-2,-1,-1,-2,-3,0.0
9.035,-1,3,-2,-3,-1,-1,-1,0,0.0
9.040000000000001,-3,1,7,2,-2,0,1,-2,0.0
9.045,-3,-15,4,-2,-3,-2,-2,-3,0.0
9.05,-2,10,0,-1,-2,-2,-2,-1,0.0
9.055,-1,6,-4,-2,0,-1,0,-2,0.0
9.06,1,-5,2,-1,-2,-3,-2,2,0.0
9.065,-3,-10,2,-1,-2,-1,-2,-2,0.0
9.07,1,1,-2,0,-1,-2,0,0,0.0
9.075000000000001,0,-1,2,0,-3,0,0,-1,0.0
9.08,1,5,-2,-4,0,0,1,0,0.0
9.085,0,2,-2,-2,1,0,-1,-2,0.0
9.09,-2,-4,0,-4,-1,-3,-3,-2,0.0
9.095,-4,0,-3,0,0,-1,-1,-2,0.0
9.1,0,-4,-1,-1,0,-1,-1,0,0.0
9.105,-4,3,-2,-3,-2,-2,-2,0,0.0
9.11,1,-1,0,-1,-3,1,-2,-2,0.0
9.115,-3,-5,0,1,-1,-1,-2,-1,0.0
9.120000000000001,-3,0,2,-2,1,-2,-3,-1,0.0
9.125,2,0,0,1,0,1,1,0,0.0
9.13,0,-4,-2,0,-3,-3,-1,1,0.0
9.135,0,-1,1,-2,0,-1,-2,-1,0.0
9.14,-4,-7,-2,-1,-3,1,-2,-2,0.0
9.145,1,-29,0,1,-3,-1,0,-2,0.0
9.15,0,-11,1,0,-2,1,-1,1,0.0
9.155,2,-9,-3,-1,-1,0,-2,-4,0.0
9.16,2,5,-5,-5,-2,-1,0,-1,0.0
9.165000000000001,0,-2,4,0,-2,0,-2,0,0.0
9.17,-1,4,-3,1,-1,-1,-2,-2,0.0
9.175,-1,6,0,1,0,-1,-1,-1,0.0
9.18,0,4,-1,-1,-2,-1,-2,2,0.0
9.185,1,6,4,-2,-3,-2,-1,-1,0.0
9.19,-1,0,-1,-1,-3,-2,1,-2,0.0
9.195,1,4,1,-2,-3,-4,-3,2,0.0
9.200000000000001,2,-2,-2,-2,-2,-2,-1,1,0.0
9.205,0,6,3,-2,-3,-2,-2,-1,0.0
9.21,-4,0,1,-2,-1,1,0,-1,0.0
9.215,1,-7,1,-3,-1,1,0,-3,0.0
9.22,-2,-2,-1,1,-3,-2,-2,-1,0.0
9.225,1,-1,-1,1,-3,-2,-1,2,0.0
9.23,-1,-6,0,-2,-2,-2,-3,2,0.0
9.235,-1,-2,0,-1,-2,-2,0,2,0.0
9.24,1,-5,-2,0,0,-1,-2,0,0.0
9.245000000000001,-3,-6,5,1,1,0,-2,-3,0.0
9.25,2,15,-1,-3,-2,0,-1,-2,0.0
9.255,0,-6,3,-1,-2,1,-1,0,0.0
9.26,-2,-6,4,0,-3,-4,-3,0,0.0
9.265,1,-9,-1,0,-1,-2,-2,-2,0.0
9.27,-1,-8,-1,0,0,-1,-2,1,0.0
9.275,-1,-4,3,-1,-1,-2,0,-1,0.0
9.28,1,8,-1,-2,-2,1,-1,-3,0.0
9.285,0,6,0,0,-2,-2,-1,1,0.0
9.290000000000001,1,-3,-1,-1,-2,-1,-3,-2,0.0
9.295,-1,1,-2,-3,-1,-1,-1,-2,0.0
9.3,0,-7,2,-1,-3,-3,-1,-2,0.0
9.305,-1,8,0,-1,0,-2,-3,1,0.0
9.31,-2,5,-1,0,-1,-3,-2,-2,0.0
9.315,-2,-22,-6,0,-3,-1,1,-3,0.0
9.32,-3,-6,0,-1,1,1,-1,1,0.0
9.325000000000001,0,-2,-5,-3,0,-1,-1,-1,0.0
9.33,-2,-2,-3,-3,-2,0,1,-2,0.0
9.335,-2,2,0,0,-1,-1,-3,-1,0.0
9.34,-2,3,-2,-1,-2,-1,-2,-2,0.0
9.345,-2,4,-6,0,1,0,0,-1,0.0
9.35,-2,-5,-5,1,-3,-2,-3,-3,0.0
9.355,0,3,-1,-1,-2,-1,-2,-2,0.0
9.36,-4,-25,3,1,-2,-1,-3,-2,0.0
9.365,0,5,2,-2,-1,-1,0,-3,0.0
9.370000000000001,-4,-7,-2,1,-1,0,0,0,0.0
9.375,-1,-1,-1,1,-2,-2,0,-1,0.0
9.38,-1,-7,0,0,-3,-1,0,-1,0.0
9.385,-3,0,-4,-1,-1,-1,-1,0,0.0
9.39,0,1,2,-1,0,-1,-1,-1,0.0
9.395,-1,3,1,0,-3,-1,-2,-1,0.0
9.4,2,4,-2,-1,0,-1,0,0,0.0
9.405,-3,-1,-2,0,0,0,-1,-2,0.0
9.41,1,0,-4,-3,0,0,0,-2,0.0
9.415000000000001,0,-3,-1,0,0,-1,0,-4,0.0
9.42,0,5,0,-1,-3,-2,-1,-4,0.0
9.425,-1,-10,-1,0,-2,-1,1,1,0.0
9.43,-3,-5,-1,0,0,-2,-1,0,0.0
9.435,-2,3,-1,-2,-2,-2,-2,0,0.0
9.44,0,-8,-3,0,0,0,0,0,0.0
9.445,2,-5,1,0,-1,-1,0,-3,0.0
9.450000000000001,-2,3,-2,-3,-2,0,-1,-2,0.0
9.455,0,0,-3,-1,-2,-2,-2,1,0.0
9.46,-2,4,-4,-2,0,-3,1,0,0.0
9.465,-2,-3,2,-1,0,0,1,0,0.0
9.47,-1,-3,-1,0,1,-1,-2,-3,0.0
9.475,-1,1,-1,-1,0,1,0,-1,0.0
9.48,0,-27,-5,-1,-2,-3,-2,1,0.0
9.485,1,-2,4,0,-3,0,-2,-1,0.0
9.49,-1,3,-3,0,-3,-2,0,-1,0.0
9.495000000000001,-2,4,1,-1,-1,0,0,-1,0.0
9.5,2,-9,-3,-1,-1,-2,1,0,0.0
9.505,2,2,-4,-3,-1,-2,-1,-1,0.0
9.51,0,-4,2,-2,0,0,0,0,0.0
9.515,-2,-8,0,-1,0,-2,0,1,0.0
9.52,1,10,1,-2,0,-1,-1,0,0.0
9.525,-1,-4,-3,-3,0,1,-2,-1,0.0
9.53,2,-5,0,0,-3,-1,0,-1,0.0
9.535,-1,-3,-2,0,0,-1,1,0,0.0
9.540000000000001,-4,1,2,-1,-2,-1,-2,0,0.0
9.545,0,3,-2,-3,-3,-4,-2,3,0.0
9.55,-1,-4,-1,-2,-1,-3,-2,-1,0.0
9.555,-4,2,-2,-2,0,0,-1,-2,0.0
9.56,1,5,4,-2,-3,1,-1,0,0.0
9.565,-2,-3,0,0,-2,-1,-1,-3,0.0
9.57,-2,-5,0,-3,1,1,-1,-2,0.0
9.575000000000001,3,-4,-3,-1,-3,-3,-2,1,0.0
9.58,0,4,1,-2,-2,-1,-1,-1,0.0
9.585,0,-27,-3,-3,-2,-2,-1,-1,0.0
9.59,0,-7,0,1,-3,-2,-2,0,0.0
9.595,0,-1,-1,-2,0,-1,-1,-4,0.0
9.6,-1,5,-1,-1,-1,-2,-1,0,0.0
9.605,-2,1,3,-1,-3,-1,-2,-2,0.0
9.61,-1,-7,1,6,0,0,-1,1,0.0
9.615,-1,8,-2,-5,-1,1,0,-3,0.0
9.620000000000001,-2,-5,1,0,-1,-2,-4,-2,0.0
9.625,0,2,-1,-1,-3,-1,1,0,0.0
9.63,-3,4,-1,-3,-2,0,-1,-3,0.0
9.635,0,-3,1,2,-2,-1,-1,-1,0.0
9.64,-1,4,-2,-1,-1,0,2,-3,0.0
9.645,-1,5,0,2,0,0,0,0,0.0
9.65,0,-3,1,-3,-1,-2,-2,-1,0.0
9.655,-1,-2,3,1,0,0,-2,0,0.0
9.66,1,1,-2,-1,0,0,-1,-1,0.0
9.665000000000001,-3,-4,3,-1,1,0,-1,0,0.0
9.67,0,1,-1,-4,-3,-5,-1,-3,0.0
9.675,-1,-4,-3,-1,-3,-1,-1,0,0.0
9.68,0,-7,-4,-3,-1,-1,-3,1,0.0
9.685,-2,4,-3,-2,-1,-1,-2,0,0.0
9.69,-2,1,-4,0,-2,-3,-2,-2,0.0
9.695,-1,-4,3,-1,-2,-2,-2,-2,0.0
9.700000000000001,-3,9,-3,-1,-1,-2,-1,-2,0.0
9.705,1,35,-6,-3,-2,0,0,-2,0.0
9.71,-1,0,-2,-1,-2,-3,-1,1,0.0
9.715,1,1,-5,-2,-2,0,-1,-2,0.0
9.72,-4,-6,-1,-2,-1,0,0,-1,0.0
9.725,0,-11,-1,-1,-3,-3,-3,0,0.0
9.73,-2,4,-2,0,0,0,-1,0,0.0
9.735,-3,-1,-3,1,3,3,2,-1,0.0
9.74,0,1,-1,-2,-2,-1,-1,1,0.0
9.745000000000001,-3,16,1,-1,-2,0,-1,-2,0.0
9.75,-2,15,-6,-4,-1,0,1,-1,0.0
9.755,0,-7,1,0,-1,-1,-3,0,0.0
9.76,1,-2,1,-1,0,-2,0,-1,0.0
9.765,-1,-10,-1,0,-2,-2,-1,-1,0.0
9.77,-2,-12,1,-1,0,0,-3,1,0.0
9.775,-3,3,-1,-2,-1,-2,0,0,0.0
9.78,-4,1,-1,0,0,-1,-1,0,0.0
9.785,1,-6,-5,-2,-3,-2,-1,-1,0.0
9.790000000000001,0,-4,0,-1,0,0,-2,-1,0.0
9.795,0,-5,-1,-1,-1,-2,1,-1,0.0
9.8,0,-3,2,-3,-2,-2,-1,1,0.0
9.805,-4,-13,0,-1,1,2,1,0,0.0
9.81,-1,-6,7,3,-1,-1,0,-3,0.0
9.815,1,20,-1,-5,-4,-3,-2,2,0.0
9.82,-1,-3,1,1,0,0,-1,1,0.0
9.825000000000001,-1,-9,-1,-2,-1,-2,-2,0,0.0
9.83,1,-7,-2,-2,-3,-1,-1,0,0.0
9.835,-1,-5,1,-3,-3,-5,0,1,0.0
9.84,1,-1,-3,-2,-1,1,-2,-2,0.0
9.845,1,-1,-1,0,-1,-1,-1,0,0.0
9.85,-1,-1,-2,0,0,-1,-3,-1,0.0
9.855,-2,-7,-1,-2,-1,0,-2,0,0.0
9.86,-1,-1,-1,-1,-2,-2,-1,0,0.0
9.865,2,-3,2,-1,-3,-1,-1,1,0.0
9.870000000000001,-2,0,-2,-3,0,-2,-1,-4,0.0
9.875,-2,2,0,1,-1,-2,-2,0,0.0
9.88,1,4,0,-5,-4,-1,-1,1,0.0
9.885,-1,-1,-1,-1,-3,0,-2,2,0.0
9.89,-1,-9,-4,-4,-1,-2,2,-2,0.0
9.895,0,-3,3,-1,-2,-1,-2,0,0.0
9.9,4,37,-10,-2,0,1,-2,-3,0.0
9.905,-2,-4,-1,0,-2,-2,-1,-1,0.0
9.91,0,1,1,0,-1,-1,-1,1,0.0
9.915000000000001,-1,-5,-2,0,2,2,-1,1,0.0
9.92,-1,-11,4,1,-2,-4,-1,-3,0.0
9.925,0,-6,2,-3,-2,-4,-3,1,0.0
9.93,-2,-1,1,1,-1,-1,-1,0,0.0
9.935,1,-7,1,-1,-1,-2,-1,-3,0.0
9.94,-1,-7,-4,-1,-3,-1,-2,-2,0.0
9.945,-1,-3,-2,-1,1,0,0,-2,0.0
9.950000000000001,0,-6,2,-3,-2,-2,1,1,0.0
9.955,0,1,-1,0,-2,-3,-1,0,0.0
9.96,-1,-9,0,-1,-2,-1,-1,-2,0.0
9.965,-1,0,1,1,-1,-3,0,-2,0.0
9.97,1,-1,-1,0,0,0,-1,0,0.0
9.975,-1,0,-3,-3,0,-1,0,-2,0.0
9.98,-1,-9,2,0,-1,-1,-2,1,0.0
9.985,-2,-5,-4,-1,-1,0,-1,-2,0.0
9.99,2,3,1,-1,-3,-4,-1,0,0.0
9.995000000000001,2,-5,-1,0,0,1,0,-3,0.0
10.0,-1,-7,1,-1,0,-1,-1,-2,0.0
10.005,0,4,-1,-3,-3,-3,-2,-2,0.0
10.01,3,40,-9,-3,0,1,0,-2,0.0
10.015,-3,-3,1,-1,-2,-1,-1,-3,0.0
10.02,-3,-5,-3,-3,-1,-4,-3,2,0.0
10.025,-3,-3,-1,1,-1,-2,-2,-2,0.0
10.03,-3,-2,1,-2,-3,-3,-3,-2,0.0
10.035,-1,12,-2,-3,-1,-2,-2,-3,0.0
10.040000000000001,0,-7,1,5,0,2,1,-2,0.0
10.045,-2,-1,-2,-3,0,-1,0,-1,0.0
10.05,-1,-10,0,-1,-1,-1,-1,-1,0.0
10.055,-2,-5,-3,-1,-1,-1,-1,-1,0.0
10.06,-3,-7,0,-3,-1,-3,-3,0,0.0
10.065,-2,1,-1,-2,0,1,-1,-2,0.0
10.07,-2,-8,1,0,0,-1,0,-2,0.0
10.075000000000001,-1,0,-5,-1,0,-2,0,-1,0.0
10.08,0,9,-2,-4,-2,-2,0,-2,0.0
10.085,-2,-7,0,-2,-1,-3,-1,2,0.0
10.09,-3,-3,-1,-1,-1,1,-1,-1,0.0
10.095,0,-6,-4,-1,-2,-1,-1,0,0.0
10.1,-1,-3,-1,-1,-1,-1,0,-2,0.0
10.105,-1,-2,-3,-2,-1,0,-2,-3,0.0
10.11,-3,-7,-4,0,-4,-2,-2,-2,0.0
10.115,-4,1,-4,-1,-1,-3,-1,1,0.0
10.120000000000001,-4,-2,-5,-2,0,-1,-1,1,0.0
10.125,-2,2,-7,-3,-2,0,-1,-3,0.0
10.13,0,-1,-1,-1,-1,-2,-3,0,0.0
10.135,-1,-3,0,-1,-1,0,-1,-1,0.0
10.14,0,-4,3,0,0,0,-1,-2,0.0
10.145,1,1,-1,-2,-4,-2,-2,-1,0.0
10.15,-4,-3,-1,-2,-3,-1,-1,0,0.0
10.155,-2,-11,1,1,-2,0,-2,1,0.0
10.16,-1,9,1,0,-2,-1,-1,0,0.0
10.165000000000001,0,-1,2,1,1,1,-1,0,0.0
10.17,-3,-7,-1,-1,0,-1,-5,-4,0.0
10.175,1,-20,1,0,-3,-2,0,1,0.0
10.18,0,-6,2,-1,-2,-2,-1,1,0.0
10.185,-4,-2,-4,-1,-1,-1,-2,-2,0.0
10.19,1,3,-4,1,-1,-1,1,-3,0.0
10.195,-1,3,-1,-2,-1,0,-1,-2,0.0
10.200000000000001,0,-3,-1,-3,0,-1,-1,-2,0.0
10.205,-1,-3,-1,0,-1,-1,-2,1,0.0
10.21,-2,-2,1,-1,-1,-2,-1,-2,0.0
10.215,-1,7,1,0,-2,-3,-1,-2,0.0
10.22,0,-3,-3,-3,-2,0,0,-1,0.0
10.225,1,-7,2,0,-2,-1,-2,-2,0.0
10.23,-2,5,1,0,-1,-2,-2,0,0.0
10.235,-1,18,-3,-6,-2,-2,-1,-3,0.0
10.24,2,-1,2,-1,-2,0,-4,-2,0.0
10.245000000000001,-1,-2,-2,-2,-1,-3,-3,0,0.0
10.25,-1,3,0,-2,0,0,0,-1,0.0
10.255,1,-4,-2,-1,1,-1,-1,2,0.0
10.26,-2,-4,-1,0,-2,-1,0,-2,0.0
10.265,1,-3,0,1,-2,-2,0,0,0.0
10.27,-1,-8,1,-1,-1,1,-1,1,0.0
10.275,-1,-7,-3,-2,-2,-2,-2,0,0.0
10.28,0,-8,1,2,-2,-2,0,1,0.0
10.285,-2,-23,7,0,-1,-1,-2,-2,0.0
10.290000000000001,0,4,1,-2,-1,-1,-2,0,0.0
10.295,-2,0,-3,-1,1,1,-1,-2,0.0
10.3,-1,-5,1,0,0,0,-2,-1,0.0
10.305,-1,-6,-1,-2,-2,-1,0,-2,0.0
10.31,1,-5,0,-2,-2,-2,-1,-3,0.0
10.315,1,2,0,0,-1,-1,0,-2,0.0
10.32,-2,-2,1,-1,0,-1,0,1,0.0
10.325000000000001,-1,7,-1,0,1,0,-1,1,0.0
10.33,3,-4,-3,0,0,-2,-1,0,0.0
10.335,0,-1,0,-4,0,1,1,-2,0.0
10.34,1,-2,-5,1,-2,-4,-2,-3,0.0
10.345,1,6,-3,-3,-1,-2,-1,0,0.0
10.35,-4,-4,-1,-2,0,0,1,2,0.0
10.355,2,-8,1,2,0,-2,-3,-1,0.0
10.36,0,-8,1,0,-2,0,0,-2,0.0
10.365,3,-1,1,-1,-1,-1,1,-2,0.0
10.370000000000001,2,5,-3,-3,-1,0,-2,0,0.0
10.375,-2,-1,2,0,-2,-2,-2,0,0.0
10.38,0,0,-1,-2,-3,0,-3,3,0.0
10.385,-1,2,0,-1,-4,-2,0,-2,0.0
10.39,-2,-1,-3,-1,-1,-1,1,-3,0.0
10.395,-1,-5,-2,-2,-2,-2,-1,0,0.0
10.4,1,2,-1,-3,-1,-1,-2,0,0.0
10.405,-1,-1,-3,0,-1,-1,-2,-1,0.0
10.41,-2,0,-1,-3,-2,-1,-2,0,0.0
10.415000000000001,2,1,0,-2,-3,0,-2,-1,0.0
10.42,-1,-2,0,-2,-3,-3,0,-3,0.0
10.425,-3,3,-2,-1,-4,-2,-3,-2,0.0
10.43,-2,-6,-3,-2,0,-1,-1,-4,0.0
10.435,0,0,3,-2,-1,-1,-1,0,0.0
10.44,-2,-1,-2,-2,-1,0,-1,-1,0.0
10.445,-1,0,-2,-1,-3,-1,-2,0,0.0
10.450000000000001,-3,-2,-4,-1,-1,-1,-2,-3,0.0
10.455,-4,-1,-5,-1,0,-1,-1,-1,0.0
10.46,-2,-1,-2,0,1,0,-2,-2,0.0
10.465,-2,2,-4,-1,-2,-1,0,-3,0.0
10.47,-1,-2,1,-3,-1,-3,-1,0,0.0
10.475,-2,-2,-4,-3,-3,0,-1,-3,0.0
10.48,3,0,0,-2,-2,-1,-2,-1,0.0
10.485,-2,-7,3,0,1,-2,-1,-1,0.0
10.49,-3,1,-3,0,-4,-2,-1,-2,0.0
10.495000000000001,-1,-1,1,-1,-1,-3,-1,-4,0.0
10.5,-1,-1,1,0,-1,-3,0,-3,0.0
10.505,0,0,-3,-2,-1,-1,-1,-3,0.0
10.51,-1,0,-1,0,-1,1,-1,-2,0.0
10.515,-2,1,-2,-2,0,2,1,1,0.0
10.52,-1,-3,-2,-2,-3,-1,-2,-1,0.0
10.525,0,0,-2,-1,0,-1,-2,-1,0.0
10.53,-2,-1,-1,1,0,-2,-1,0,0.0
10.535,0,2,-5,-2,-2,-3,-3,-2,0.0
10.540000000000001,-2,-2,-1,-1,0,0,0,-1,0.0
10.545,0,4,-2,-3,0,-2,-2,-2,0.0
10.55,-3,-5,-6,-2,-1,0,0,-1,0.0
10.555,-2,-1,4,1,-1,-1,-2,-2,0.0
10.56,-2,-1,2,-1,-1,0,-1,1,0.0
10.565,-2,-3,-1,-1,-2,-1,-1,-2,0.0
10.57,1,-5,4,0,-1,-2,-1,-1,0.0
10.575000000000001,-3,0,-2,0,-3,-1,0,-2,0.0
10.58,-2,0,-1,0,-3,-2,-2,-2,0.0
10.585,-2,-32,-2,-2,-3,0,-2,0,0.0
10.59,-3,-5,-2,-4,-4,-1,-4,0,0.0
10.595,-1,-8,0,0,3,-1,0,0,0.0
10.6,2,1,-3,-1,-2,-1,-1,1,0.0
10.605,-2,2,-2,-1,-2,-1,1,1,0.0
10.61,0,0,1,0,-2,0,0,-1,0.0
10.615,-2,-2,2,-2,-2,-1,-2,0,0.0
10.620000000000001,-5,-9,0,-1,1,-1,1,0,0.0
10.625,0,6,0,-2,-1,-2,-3,-2,0.0
10.63,-1,-1,-1,-2,0,-2,-3,1,0.0
10.635,-2,4,-2,-2,-1,-1,-1,-1,0.0
10.64,-1,1,0,-2,-3,-1,-1,1,0.0
10.645,-3,6,1,-1,-2,0,0,1,0.0
10.65,1,2,-2,0,-1,-3,1,-2,0.0
10.655,0,-4,-1,-2,-4,-1,-2,-1,0.0
10.66,2,-3,1,-1,-1,-1,-2,-2,0.0
10.665000000000001,1,4,-3,-1,-2,-3,-2,0,0.0
10.67,-1,-1,1,-3,-2,-2,-2,1,0.0
10.675,1,-5,-1,3,0,-1,1,1,0.0
10.68,1,5,-2,-4,-2,0,-1,-1,0.0
10.685,2,5,3,0,-2,-3,-2,1,0.0
10.69,1,5,-3,0,0,0,1,-2,0.0
10.695,-3,-2,-1,-3,-1,-2,-2,-4,0.0
10.700000000000001,-2,-2,0,-1,0,1,-1,0,0.0
10.705,2,-2,1,0,-2,-1,0,-2,0.0
10.71,-3,-4,-1,0,-1,0,0,-2,0.0
10.715,0,0,0,-1,-1,-2,-2,-1,0.0
10.72,1,-3,0,0,-2,-2,0,-1,0.0
10.725,-3,-1,-2,-3,-1,1,0,2,0.0
10.73,-1,-3,1,-1,0,-2,-2,-3,0.0
10.735,2,-1,0,-1,0,-2,0,3,0.0
10.74,1,-1,-1,1,0,-1,-2,-2,0.0
10.745000000000001,0,-3,-2,0,-2,-2,-3,-1,0.0
10.75,1,-3,0,0,-2,-1,-2,0,0.0
10.755,0,-1,2,-2,0,1,-1,-2,0.0
10.76,-1,-2,0,-1,-1,-3,-1,-3,0.0
10.765,1,-2,-2,-3,-1,-1,0,0,0.0
10.77,-1,-3,3,0,-1,-1,0,-3,0.0
10.775,-1,-2,1,-1,-1,-1,0,-1,0.0
10.78,-2,-3,6,1,-5,-2,-3,1,0.0
10.785,-3,-1,0,1,1,2,0,-3,0.0
10.790000000000001,-1,1,-4,0,-2,-3,-1,-1,0.0
10.795,0,-5,0,-1,-2,-1,-1,0,0.0
10.8,0,0,-4,-2,-2,-2,0,0,0.0
10.805,-3,-2,-3,-1,0,-1,-1,-3,0.0
10.81,-2,0,-2,0,1,0,-1,0,0.0
10.815,-2,-2,-1,-1,-2,-1,-2,-1,0.0
10.82,0,-2,0,-1,-2,-2,1,0,0.0
10.825000000000001,-1,-3,-2,-1,-3,-3,-4,-2,0.0
10.83,0,-1,-3,0,0,-1,1,0,0.0
10.835,-1,1,-2,-1,0,-1,1,-1,0.0
10.84,-4,-1,-3,-1,1,0,-1,-3,0.0
10.845,1,-2,0,-3,-3,0,-1,-2,0.0
10.85,-2,-1,-3,0,0,0,-1,-5,0.0
10.855,-2,-1,0,1,-1,-2,-3,1,0.0
10.86,0,0,-6,-2,-1,0,1,0,0.0
10.865,-2,0,0,-2,-1,0,0,-2,0.0
10.870000000000001,0,1,-1,-1,-1,-2,-1,-1,0.0
10.875,-1,1,-4,-2,-3,-2,0,-4,0.0
10.88,-3,-3,0,1,-1,-2,-3,-3,0.0
10.885,-4,0,-2,-3,-2,-1,-1,-1,0.0
10.89,-2,-5,-3,-1,1,0,0,0,0.0
10.895,-1,-1,-1,0,-1,0,0,-3,0.0
10.9,1,-1,1,-1,-1,-1,-2,-1,0.0
10.905,2,0,-2,0,-1,-1,-3,0,0.0
10.91,-1,-2,-1,0,0,2,0,-1,0.0
10.915000000000001,-1,0,2,-3,-2,-2,-2,0,0.0
10.92,0,0,-3,-2,-2,0,-1,-2,0.0
10.925,-2,-1,-3,0,0,-1,-3,-3,0.0
10.93,-1,1,-4,-1,-3,-1,-1,0,0.0
10.935,-1,-1,-2,-1,-3,1,1,-2,0.0
10.94,-1,-2,-2,-2,-3,-1,-1,-1,0.0
10.945,0,-2,-3,0,1,-1,1,0,0.0
10.950000000000001,0,-1,-1,-2,-2,-1,-2,0,0.0
10.955,-2,1,-1,0,-1,-1,-3,0,0.0
10.96,-2,-4,-1,-2,2,2,-2,-1,0.0
10.965,-3,0,-3,-2,-2,-1,2,-4,0.0
10.97,-2,-5,-3,-1,-2,-4,-1,-3,0.0
10.975,0,-3,1,1,0,-2,-3,1,0.0
10.98,-2,-4,-1,1,-3,-2,0,-1,0.0
10.985,1,0,2,1,1,0,0,1,0.0
10.99,-2,-1,-2,-1,-2,-2,-3,1,0.0
10.995000000000001,-3,-3,2,2,1,0,0,-2,0.0
11.0,0,1,-2,-1,1,-1,-3,0,0.0
11.005,-2,-3,1,-1,-2,-2,0,-2,0.0
11.01,-2,1,-4,-3,0,-2,-1,-1,0.0
11.015,0,-3,-3,0,-2,-1,-1,2,0.0
11.02,1,-3,0,0,-2,-4,-1,-1,0.0
11.025,-2,-1,0,0,0,0,-2,-1,0.0
11.03,0,-1,1,-3,-1,1,0,-2,0.0
11.035,-3,-1,-1,-3,0,-2,-3,0,0.0
11.040000000000001,1,0,-3,-2,-1,-1,0,2,0.0
11.045,-2,0,-1,-1,-1,-2,-2,-1,0.0
11.05,-1,-1,-2,2,-2,-3,-2,-2,0.0
11.055,1,0,-1,-2,-1,-1,2,-3,0.0
11.06,-1,-1,-1,-1,0,-2,-3,-2,0.0
11.065,1,-3,-2,-2,-2,0,-2,0,0.0
11.07,-2,1,-1,0,-3,1,-3,-1,0.0
11.075000000000001,2,2,-3,-3,-1,-3,0,2,0.0
11.08,0,-2,2,-1,-2,-2,0,0,0.0
11.085,-3,-3,-4,-2,0,-3,-2,-5,0.0
11.09,0,0,4,-2,-4,0,-2,-1,0.0
11.095,-1,-2,2,-1,-2,-2,-1,0,0.0
11.1,0,-1,2,-2,-1,-1,-1,0,0.0
11.105,0,0,1,-1,-2,-2,0,0,0.0
11.11,-1,0,0,-2,-2,-1,-2,0,0.0
11.115,-1,-2,-1,-1,-2,-1,-4,-2,0.0
11.120000000000001,1,-1,2,-1,-2,-1,-1,2,0.0
11.125,-3,0,0,0,-2,-1,-3,-2,0.0
11.13,0,-3,0,1,3,1,-1,-2,0.0
11.135,1,-1,-2,0,-1,-1,-2,-2,0.0
11.14,-3,-1,-3,-2,-1,-1,-2,-2,0.0
11.145,-1,-1,-5,-2,-1,1,0,2,0.0
11.15,0,-4,0,-1,0,-1,-1,-1,0.0
11.155,-1,1,2,-1,-2,-1,-1,-1,0.0
11.16,-1,-3,1,0,-2,-2,-1,-2,0.0
11.165000000000001,-2,-1,-2,0,0,1,-2,0,0.0
11.17,0,0,0,-3,-3,-2,-1,0,0.0
11.175,1,-1,-2,-1,0,-2,-1,0,0.0
11.18,-2,-3,-3,-1,-1,0,-2,-1,0.0
11.185,2,-2,4,0,-1,-2,-1,0,0.0
11.19,-1,-3,0,-2,-1,-1,-1,0,0.0
11.195,-2,-1,-2,-2,-1,-1,1,-1,0.0
11.200000000000001,0,0,-5,-2,-2,0,-2,-3,0.0
11.205,0,-4,1,-1,0,-1,0,-1,0.0
11.21,-2,2,-2,-3,-3,0,0,-2,0.0
11.215,3,0,0,-1,-2,-1,-2,0,0.0
11.22,0,-1,2,-2,-2,-1,0,-1,0.0
11.225,-3,-1,-3,0,-2,0,-2,0,0.0
11.23,-1,0,0,1,-1,-3,0,-4,0.0
11.235,-1,-2,-3,0,-1,0,-1,-1,0.0
11.24,0,1,1,-2,0,-2,0,-2,0.0
11.245000000000001,-2,0,-5,-1,-2,-3,-2,-1,0.0
11.25,-2,-2,-1,0,-1,-2,-1,-3,0.0
11.255,-6,-4,-1,0,0,0,0,-1,0.0
11.26,0,1,-2,-2,-1,-2,0,0,0.0
11.265,-2,2,-6,-3,-3,0,-3,-3,0.0
11.27,-4,-2,-3,-3,-2,1,-2,0,0.0
11.275,1,-1,-1,0,-2,-2,-2,-5,0.0
11.28,0,-2,2,0,0,0,-1,0,0.0
11.285,-1,-3,-3,-2,1,-1,1,0,0.0
11.290000000000001,1,-4,-1,-2,0,1,-3,0,0.0
11.295,3,1,1,2,-1,-2,-2,0,0.0
11.3,0,3,-1,-3,-2,-1,-2,0,0.0
11.305,1,-2,-2,-1,1,0,1,-3,0.0
11.31,-1,-4,1,-1,-1,-1,-1,0,0.0
11.315,-2,-4,-1,-5,-1,-1,-3,-1,0.0
11.32,1,-2,-1,0,-1,-1,-3,-2,0.0
11.325000000000001,-3,-8,4,2,0,-1,-4,0,0.0
11.33,3,6,0,-3,-2,-3,-1,-2,0.0
11.335,-1,-4,-1,-2,-3,0,-1,-1,0.0
11.34,-3,1,-4,-2,-1,0,-1,-3,0.0
11.345,0,0,-2,-2,-2,0,-1,-1,0.0
11.35,-1,-3,1,2,0,1,0,0,0.0
11.355,-2,0,-2,-1,-1,-1,-1,-2,0.0
11.36,-4,-5,1,-1,-1,-3,0,1,0.0
11.365,1,0,-1,-2,-2,-4,-1,0,0.0
11.370000000000001,-2,-2,-5,-1,0,0,-2,-1,0.0
11.375,3,-1,0,-2,0,0,0,0,0.0
11.38,-4,-2,-1,1,-1,-1,-1,-1,0.0
11.385,-1,1,0,-1,-1,-2,2,-2,0.0
11.39,-2,-1,1,-2,-2,-3,-2,-1,0.0
11.395,0,-2,2,1,0,-1,-1,0,0.0
11.4,1,-1,-2,-2,1,-1,0,-1,0.0
11.405,-2,-1,0,-1,-3,-1,-3,3,0.0
11.41,1,-2,-2,-3,-2,0,0,-1,0.0
11.415000000000001,0,-1,1,-2,-3,-2,-1,-3,0.0
11.42,2,0,2,-2,-2,-3,-2,-1,0.0
11.425,0,-1,-2,0,-2,-2,-1,-1,0.0
11.43,0,0,-6,-1,-1,-3,-1,0,0.0
11.435,-1,-3,-2,-1,-2,-2,-1,-1,0.0
11.44,2,-3,1,1,-1,0,-2,-1,0.0
11.445,-1,0,-2,-1,-2,-2,-2,-1,0.0
11.450000000000001,0,-5,6,-1,-1,-2,-2,1,0.0
11.455,-2,-1,-2,-2,-2,-2,-2,-2,0.0
11.46,-1,-2,2,-1,-3,-2,-2,-2,0.0
11.465,1,-1,2,0,-1,0,0,-1,0.0
11.47,-1,-1,-1,0,-3,-2,-2,2,0.0
11.475,-1,-5,0,0,0,-1,1,2,0.0
11.48,1,-2,1,-1,-3,1,-2,0,0.0
11.485,0,-4,1,-3,-2,-2,-2,0,0.0
11.49,-4,-3,-1,0,1,-2,0,0,0.0
11.495000000000001,-1,0,1,-3,0,-2,-3,-2,0.0
11.5,-1,-3,-1,0,0,0,-2,-2,0.0
11.505,-1,-2,1,-1,0,-3,-1,0,0.0
11.51,3,-2,-2,-2,0,0,-1,-2,0.0
11.515,-2,-2,0,0,-1,-2,0,0,0.0
11.52,-1,-2,0,-2,-1,-1,0,0,0.0
11.525,0,-3,0,-1,-1,1,-2,-2,0.0
11.53,2,0,-1,-1,0,-2,-1,-1,0.0
11.535,-1,1,-4,-2,-2,-1,-2,1,0.0
11.540000000000001,-1,-1,0,-3,-4,-2,-3,1,0.0
11.545,-1,-3,3,-1,-4,-2,-1,0,0.0
11.55,-2,1,-2,1,1,-1,-3,-2,0.0
11.555,-2,1,-1,-1,-1,-1,-1,-2,0.0
11.56,-2,-2,-3,1,-2,0,-2,-1,0.0
11.565,-3,-2,-2,1,-1,-1,-2,-2,0.0
11.57,-3,0,-1,0,-1,0,2,0,0.0
11.575000000000001,-2,0,0,-2,-2,0,0,-3,0.0
11.58,-1,-1,-2,-1,-1,-1,0,1,0.0
11.585,1,3,-3,-2,2,-1,-1,-3,0.0
11.59,-3,-1,-1,-1,-2,0,-1,-4,0.0
11.595,1,-2,2,-1,-1,-1,-1,1,0.0
11.6,-1,-2,0,-2,-1,-2,-2,-1,0.0
11.605,0,0,-4,-1,-3,1,-1,0,0.0
11.61,-1,0,-4,-1,0,2,-2,0,0.0
11.615,-2,1,-1,-3,-2,1,1,-3,0.0
11.620000000000001,-2,-2,-1,1,1,-3,-2,0,0.0
11.625,-3,-2,-1,0,-1,-2,0,-1,0.0
11.63,-1,-7,-1,1,-3,-1,-1,0,0.0
11.635,-2,3,0,-2,-1,-2,-1,0,0.0
11.64,0,0,1,-2,0,-2,-2,-1,0.0
11.645,-2,0,-5,0,-1,-2,-2,-2,0.0
11.65,-1,0,3,-2,-2,0,1,0,0.0
11.655,2,-3,0,1,0,-1,-1,-1,0.0
11.66,-3,-5,-1,0,-2,-1,1,-1,0.0
11.665000000000001,-1,-1,-1,-2,0,-1,-1,-2,0.0
11.67,2,0,-2,-3,-3,-3,-4,0,0.0
11.675,-2,-1,-2,1,2,0,-1,0,0.0
11.68,0,0,-2,-1,-3,-2,0,-4,0.0
11.685,-1,-1,5,-1,-2,-2,-1,1,0.0
11.69,3,0,-2,-3,-1,0,0,0,0.0
11.695,0,-2,-2,-3,-2,-1,-1,-1,0.0
11.700000000000001,2,1,0,-2,0,0,-1,-2,0.0
11.705,-2,-2,-2,0,-1,-3,0,-1,0.0
11.71,-1,1,0,-2,-1,-2,-2,-1,0.0
11.715,0,-1,2,-2,0,-2,-1,2,0.0
11.72,0,-4,-4,-1,-2,-2,0,0,0.0
11.725,-1,0,-2,-1,-1,0,-1,-1,0.0
11.73,-2,-1,1,0,-2,-4,1,0,0.0
11.735,-1,-2,-1,0,-3,-2,-3,-1,0.0
11.74,-1,-3,-3,-1,2,2,-1,-1,0.0
11.745000000000001,1,-1,-2,-1,-2,-3,-2,-2,0.0
11.75,-2,-1,-1,0,-2,-3,-2,-1,0.0
11.755,-2,-1,-2,0,-1,0,-1,-1,0.0
11.76,-2,-2,-2,-1,-2,-1,-1,1,0.0
11.765,-2,-2,-1,-2,-1,1,0,1,0.0
11.77,-2,-3,-2,-2,0,-2,-1,-2,0.0
11.775,2,-2,1,1,-2,-4,-3,-1,0.0
11.78,1,1,-1,-1,-1,-2,0,-1,0.0
11.785,0,-1,-3,-4,0,1,1,1,0.0
11.790000000000001,-1,-2,2,-1,-2,0,-1,-1,0.0
11.795,-1,-2,0,-1,0,-1,1,0,0.0
11.8,-5,-1,-2,0,-1,-2,-1,0,0.0
11.805,2,-1,2,-1,1,-1,-3,-2,0.0
11.81,3,-1,0,-3,-2,-1,-1,0,0.0
11.815,0,-1,-3,-2,0,-2,-1,-4,0.0
11.82,0,0,-2,-1,-1,-1,0,1,0.0
11.825000000000001,-1,-4,1,-2,-1,1,-1,-1,0.0
11.83,-4,-1,-1,-1,-2,0,-1,0,0.0
11.835,1,-6,3,1,-3,-3,-1,0,0.0
11.84,1,3,0,-1,-2,-1,-3,-1,0.0
11.845,-2,-3,1,1,0,-2,-1,-1,0.0
11.85,2,-1,-2,-2,-1,-1,0,0,0.0
11.855,-1,-1,1,-2,0,1,1,-1,0.0
11.86,0,-3,2,0,-1,-1,-2,-3,0.0
11.865,0,-1,-2,-2,-3,-2,-1,2,0.0
11.870000000000001,-1,-1,1,1,0,-1,-1,-3,0.0
11.875,-2,1,-4,-1,-2,-1,-2,0,0.0
11.88,0,-1,1,-1,-3,-2,-2,-2,0.0
11.885,0,0,0,-1,-1,0,-1,-2,0.0
11.89,-3,-1,-1,-2,0,-2,-1,-2,0.0
11.895,2,-1,1,-1,-2,0,-3,-2,0.0
11.9,-2,-2,1,-3,0,-1,-1,-2,0.0
11.905,1,-2,-5,-2,-2,-1,-2,-1,0.0
11.91,0,-2,-1,2,-1,-1,-2,1,0.0
11.915000000000001,-3,-2,-2,-1,-1,-3,-2,2,0.0
11.92,1,-3,-2,-3,-1,0,0,-3,0.0
11.925,1,-4,0,-1,-3,-1,-1,1,0.0
11.93,-1,1,-4,-1,0,1,0,-3,0.0
11.935,-1,-1,-6,-1,0,-4,-2,-1,0.0
11.94,0,-2,1,1,-3,-1,-2,0,0.0
11.945,-4,1,-2,-2,-3,-2,-1,-1,0.0
11.950000000000001,-3,-4,-1,-1,-1,0,1,-1,0.0
11.955,-1,-2,-4,-1,0,1,0,-3,0.0
11.96,-1,-1,0,1,-3,0,-2,0,0.0
11.965,-1,0,2,0,-1,0,1,-4,0.0
11.97,0,-5,-2,-1,1,0,-1,-2,0.0
11.975,-3,2,-4,-3,-3,-2,1,-3,0.0
11.98,0,-4,-1,0,2,0,-2,-2,0.0
11.985,-2,0,1,-2,-3,-2,-1,-2,0.0
11.99,-2,0,1,-1,0,-3,0,1,0.0
11.995000000000001,-3,4,0,-5,-1,0,-1,-2,0.0
12.0,0,0,-2,-2,-1,-1,0,-1,0.0
12.005,-4,-3,-2,2,-1,-1,0,-2,0.0
12.01,-2,-1,-3,-1,-1,-2,0,-3,0.0
12.015,-3,-1,-3,-1,-2,-2,-1,-1,0.0
12.02,-3,-1,-1,-3,-2,-1,-1,-2,0.0
12.025,-1,1,-2,-2,0,-1,-1,1,0.0
12.030000000000001,-1,3,-3,-1,-4,0,-2,-1,0.0
12.035,-2,-2,0,0,-2,0,-2,-2,0.0
12.040000000000001,-2,-3,-1,-2,-2,0,-1,1,0.0
12.045,1,-2,-2,-1,1,0,0,-1,0.0
12.05,-2,-1,0,-1,-1,0,-1,-2,0.0
12.055,-1,-3,1,0,0,-2,-2,0,0.0
12.06,0,-1,-3,-1,-1,-2,-1,3,0.0
12.065,-2,-3,-1,-1,-2,-3,-2,-2,0.0
12.07,0,0,0,-3,1,-3,-1,1,0.0
12.075000000000001,0,-4,-1,-1,-3,-1,-1,-2,0.0
12.08,0,-3,2,0,-3,-2,-1,0,0.0
12.085,1,-1,-3,-1,-2,-1,-2,-1,0.0
12.09,0,-2,1,-1,-3,0,-1,-2,0.0
12.095,-3,-4,-3,-2,-1,0,-1,0,0.0
12.1,1,-1,-1,-3,-3,0,0,-1,0.0
12.105,2,-2,-2,-2,-1,-2,-1,-2,0.0
12.11,-5,1,1,-2,-2,-2,-2,-2,0.0
12.115,1,-5,2,-1,-2,0,-2,1,0.0
12.120000000000001,-4,-3,-1,-1,-3,-2,0,-1,0.0
12.125,0,1,-1,-2,-2,-2,-2,0,0.0
12.13,1,-3,2,-1,0,0,-1,-1,0.0
12.135,0,-1,-1,0,-2,-2,-2,-2,0.0
12.14,-3,1,-6,-1,1,-1,0,-3,0.0
12.145,-1,3,2,-3,-4,-3,0,-4,0.0
12.15,-1,-3,-2,0,0,-1,0,-1,0.0
12.155000000000001,2,-3,0,-1,-1,0,-2,0,0.0
12.16,0,-2,-2,-4,-3,-3,-3,-1,0.0
12.165000000000001,0,-2,-1,0,2,1,0,1,0.0
12.17,0,-4,-2,0,-1,-2,-2,0,0.0
12.175,1,-2,0,3,1,-1,1,-3,0.0
12.18,-2,-1,0,0,-3,0,-1,1,0.0
12.185,-1,-5,0,-2,-2,-2,0,2,0.0
12.19,-1,0,-1,0,-1,-2,-1,1,0.0
12.195,0,-2,-1,-2,-1,1,-2,1,0.0
12.200000000000001,0,-2,1,-1,0,-1,0,2,0.0
12.205,0,-3,3,3,-1,-2,0,-1,0.0
12.21,-2,-2,-2,-3,-1,-1,-1,1,0.0
12.215,2,2,-5,-7,-1,-2,-1,0,0.0
12.22,2,-2,2,0,0,-1,0,-1,0.0
12.225,-3,4,-2,-3,-1,-1,-4,-2,0.0
12.23,2,-2,4,0,-3,-1,0,-4,0.0
12.235,-1,0,0,0,-4,-4,-1,-1,0.0
12.24,1,-3,5,0,0,2,0,1,0.0
12.245000000000001,-11,1,11,2,0,-6,0,-5,0.0
12.25,-5,-1,11,2,-1,-18,4,4,0.0
12.255,28,77,-8,14,10,13,-25,6,0.0
12.26,2,-36,-12,4,0,-3,14,4,0.0
12.265,-10,14,26,-8,-5,7,-14,-8,0.0
12.27,12,-38,-47,-10,-6,5,15,6,0.0
12.275,-16,11,16,-1,-4,-10,3,-5,0.0
12.280000000000001,-10,18,25,18,1,-6,-14,-2,0.0
12.285,0,-37,-14,-2,-2,-1,-4,-1,0.0
12.290000000000001,-1,-6,4,-9,-3,1,-13,-6,0.0
12.295,2,-31,6,5,1,2,20,4,0.0
12.3,2,7,-7,-4,2,-5,-14,0,0.0
12.305,-2,-24,9,16,2,-1,-1,-3,0.0
12.31,-1,18,-18,-15,-1,6,-5,0,0.0
12.315,-8,6,6,-12,-6,0,-2,-3,0.0
12.32,-1,12,9,-4,-4,-2,3,-5,0.0
12.325000000000001,6,-10,-11,-1,2,-2,-4,3,0.0
12.33,-5,11,26,21,3,4,-1,-2,0.0
12.335,-5,1,7,-4,-1,-1,0,-3,0.0
12.34,-1,-72,5,-16,-6,0,5,1,0.0
12.345,5,44,33,21,0,-4,0,4,0.0
12.35,-9,-5,3,-37,-11,-7,-5,-7,0.0
12.355,-4,-64,-33,5,2,1,8,5,0.0
12.36,-7,14,-21,15,-3,-7,-14,-5,0.0
12.365,0,-12,-56,-40,-2,8,8,-6,0.0
12.370000000000001,-2,-13,-4,31,12,3,8,0,0.0
12.375,0,10,-46,-19,-1,-7,3,-1,0.0
12.38,-1,12,-11,-9,0,1,3,-1,0.0
12.385,0,-1,0,24,-2,1,-4,-2,0.0
12.39,-2,23,1,-9,-2,-1,0,-3,0.0
12.395,-1,-9,12,3,-2,-3,-4,-3,0.0
12.4,3,12,10,-1,6,8,6,-1,0.0
12.405000000000001,1,10,-13,-9,-5,-4,1,0,0.0
12.41,-2,-18,13,-9,-9,-3,-8,-3,0.0
12.415000000000001,-4,-2,2,-11,-9,-5,-3,-3,0.0
12.42,1,7,17,18,4,0,3,1,0.0
12.425,-4,-29,-39,-79,-17,-11,-8,-3,0.0
12.43,-1,-1,0,17,7,-4,-3,0,0.0
12.435,0,-4,19,29,8,2,0,2,0.0
12.44,5,16,15,19,5,9,8,2,0.0
12.445,-2,-3,9,-11,3,2,3,-1,0.0
12.450000000000001,-4,6,2,9,-7,-7,-6,-3,0.0
12.455,-6,1,0,-20,-25,-8,-10,-7,0.0
12.46,-3,-4,-4,2,2,-1,3,-3,0.0
12.465,4,0,3,13,11,3,6,5,0.0
12.47,4,-4,-3,12,12,6,5,4,0.0
12.475,-4,-22,-2,-7,6,2,-4,1,0.0
12.48,-4,12,18,-21,-24,-11,-12,-9,0.0
12.485,0,11,-6,20,-2,-3,0,2,0.0
12.49,1,14,32,67,4,2,-3,0,0.0
12.495000000000001,2,-8,-25,-73,-8,-4,2,3,0.0
12.5,-13,-19,-17,-53,-9,-7,-7,-12,0.0
12.505,2,8,12,18,1,-2,0,0,0.0
12.51,3,-3,13,3,3,4,1,-2,0.0
12.515,4,-1,-1,36,6,3,0,1,0.0
12.52,4,4,-7,-23,-5,-2,0,5,0.0
12.525,-3,3,-3,-14,-3,2,2,-1,0.0
12.530000000000001,0,-16,12,18,3,1,-4,-1,0.0
12.535,3,24,-25,-21,-5,-5,-3,-3,0.0
12.540000000000001,9,-37,-6,9,4,5,-2,4,0.0
12.545,-7,-17,43,30,-3,-6,0,0,0.0
12.55,0,-5,-34,-50,-5,0,0,2,0.0
12.555,1,-26,44,59,9,3,0,-1,0.0
12.56,-6,-8,-38,-50,-10,-5,-5,-3,0.0
12.565,3,22,25,57,11,1,0,4,0.0
12.57,-12,-40,-18,-69,-11,-6,-3,-4,0.0
12.575000000000001,2,-39,-32,32,6,11,6,8,0.0
12.58,-2,22,51,8,-1,-1,1,-3,0.0
12.585,11,-2,-18,-7,1,-1,1,0,0.0
12.59,1,65,14,-16,-6,-3,-2,0,0.0
12.595,-1,11,0,10,-2,-2,-2,-5,0.0
12.6,15,9,-9,6,4,2,-1,6,0.0
12.605,-13,-15,-2,3,-4,-2,0,-4,0.0
12.61,4,0,9,3,-2,-2,-1,-2,0.0
12.615,-2,8,10,-6,-3,-3,-3,-1,0.0
12.620000000000001,-1,-2,-5,16,1,-3,-1,2,0.0
12.625,1,1,-7,-34,-4,-1,-2,1,0.0
12.63,-1,-1,5,44,4,3,0,0,0.0
12.635,-5,-8,-8,-36,-9,-4,-5,-3,0.0
12.64,-1,-6,3,42,4,1,-1,-2,0.0
12.645,1,-2,-15,-36,-7,-5,-3,2,0.0
12.65,-8,13,5,0,-1,-1,-1,-3,0.0
12.655000000000001,-6,-11,24,32,6,1,0,-1,0.0
12.66,-4,34,12,-4,4,-1,-3,-2,0.0
12.665000000000001,5,78,-16,-36,-10,-3,-3,-6,0.0
12.67,-2,1,23,19,-2,1,2,1,0.0
12.675,0,12,14,-48,-9,-7,-5,-5,0.0
12.68,-3,-19,-20,3,0,0,3,-2,0.0
12.685,-9,-1,48,43,6,-2,-1,-6,0.0
12.69,4,3,-20,-26,-4,-4,-3,0,0.0
12.695,0,21,0,-2,-4,-1,0,0,0.0
12.700000000000001,2,-16,4,13,0,0,-1,0,0.0
12.705,-3,-23,-21,-9,1,-1,-2,-2,0.0
12.71,0,-19,-23,-10,-2,-2,0,1,0.0
12.715,-2,-6,7,9,3,2,2,-2,0.0
12.72,-6,13,-13,-7,-4,0,-2,-4,0.0
12.725,4,-39,-8,7,-2,0,-2,3,0.0
12.73,-1,0,-4,0,-3,-5,-6,-4,0.0
12.735,0,0,-4,-10,-2,-5,2,-3,0.0
12.74,-1,9,-3,2,3,3,4,2,0.0
12.745000000000001,7,6,-13,-4,1,2,1,5,0.0
12.75,-13,-7,-1,-20,-6,-3,-4,-12,0.0
12.755,-2,-5,2,20,-1,-3,-3,-1,0.0
12.76,-2,-9,-9,-9,-3,-3,-1,-2,0.0
12.765,-2,-12,-2,-35,-6,-3,-4,-2,0.0
12.77,5,-1,5,-1,0,1,2,4,0.0
12.775,-4,5,-5,4,2,-3,-1,-1,0.0
12.780000000000001,1,5,11,25,2,2,0,0,0.0
12.785,-2,-4,-48,6,-1,0,0,1,0.0
12.790000000000001,1,-16,-5,-3,1,2,0,-1,0.0
12.795,6,9,-4,-14,-1,-1,-1,-1,0.0
12.8,-5,-11,-5,-21,-6,-5,-3,9,0.0
12.805,-1,-8,9,10,-2,-1,-3,-4,0.0
12.81,1,-2,-7,11,-2,-1,-1,3,0.0
12.815,-2,-15,6,12,2,1,-2,2,0.0
12.82,17,27,-7,-7,0,-2,2,9,0.0
12.825000000000001,-47,-22,9,2,-6,-6,-10,-27,0.0
12.83,1,1,0,11,-1,0,0,-10,0.0
12.835,0,-19,-7,-11,0,-1,1,2,0.0
12.84,2,-3,1,-10,-2,-3,-3,-4,0.0
12.845,11,5,8,10,4,0,1,6,0.0
12.85,13,32,-43,-13,-2,0,3,4,0.0
12.855,-3,10,0,-4,-4,-5,-5,-7,0.0
12.86,-7,-7,1,7,-3,0,-2,-6,0.0
12.865,11,29,8,8,1,-1,0,2,0.0
12.870000000000001,-3,-17,-18,-7,-3,-2,-1,3,0.0
12.875,-1,5,-7,-5,-7,2,1,3,0.0
12.88,-9,-3,-3,2,0,-2,-1,-7,0.0
12.885,6,-54,5,0,-1,0,-1,4,0.0
12.89,2,3,6,-1,-2,-3,0,3,0.0
12.895,-6,4,12,3,0,-1,-5,-5,0.0
12.9,-3,3,-16,5,1,-3,-4,-1,0.0
12.905000000000001,4,13,12,21,3,1,0,0,0.0
12.91,1,16,-35,-71,-12,-7,-2,0,0.0
12.915000000000001,2,-16,-3,8,-3,-1,-1,0,0.0
12.92,-1,-15,2,2,-1,0,0,-1,0.0
12.925,-1,9,-2,8,3,0,0,0,0.0
12.93,-1,-26,6,16,3,1,-2,0,0.0
12.935,-5,8,13,-2,1,-2,-2,-3,0.0
12.94,-7,30,-5,-8,-4,-2,-1,-4,0.0
12.945,-7,-37,12,1,-6,-3,-4,0,0.0
12.950000000000001,-10,-83,11,11,-1,3,-1,0,0.0
12.955,8,33,-4,-5,-5,-4,-1,1,0.0
12.96,5,-38,0,11,2,4,2,3,0.0
12.965,-6,-31,14,-14,-7,-3,0,-6,0.0
12.97,6,9,7,-3,-3,0,0,0,0.0
12.975,1,-10,7,4,1,1,-1,2,0.0
12.98,-1,-18,-8,-3,-3,-2,-3,-2,0.0
12.985,1,37,0,-7,-5,-3,1,-2,0.0
12.99,0,16,11,6,1,-2,-2,-1,0.0
12.995000000000001,-5,-16,-10,0,2,3,4,-3,0.0
13.0,-3,7,12,-8,-3,-2,-4,-4,0.0
13.005,2,10,1,5,3,0,1,-3,0.0
13.01,-7,-32,2,11,-5,-1,-3,-2,0.0
13.015,-4,-9,2,-9,-5,-5,-4,2,0.0
13.02,7,25,-10,-5,3,0,2,-2,0.0
13.025,6,19,-10,0,-5,1,5,3,0.0
13.030000000000001,-4,10,10,2,0,-4,-3,-4,0.0
13.035,-2,18,1,4,-2,-6,-4,-2,0.0
13.040000000000001,-3,-10,4,2,-1,2,0,-3,0.0
13.045,-1,15,-12,-4,0,-1,-2,-2,0.0
13.05,-6,38,8,6,4,-2,-3,-1,0.0
13.055,-2,-40,-1,-4,-3,1,-2,-2,0.0
13.06,-5,6,8,-3,-5,-5,-5,-3,0.0
13.065,7,19,-27,-7,3,1,1,3,0.0
13.07,-3,10,4,3,1,2,2,-2,0.0
13.075000000000001,0,-25,-14,-5,-5,-4,-1,-1,0.0
13.08,-10,-23,21,4,-2,-1,-1,-6,0.0
13.085,0,-6,-7,-5,-4,-1,1,2,0.0
13.09,6,-1,-6,2,-1,-3,-1,-1,0.0
13.095,-8,22,9,6,3,2,0,-1,0.0
13.1,-1,13,-7,-5,-1,-3,-3,-1,0.0
13.105,-10,1,21,7,-1,-1,-3,-2,0.0
13.11,-4,13,1,-4,-3,1,-2,-2,0.0
13.115,-2,11,-6,-6,-5,-1,2,-4,0.0
13.120000000000001,0,-6,-5,-2,-3,-4,-2,1,0.0
13.125,12,23,-17,-6,0,2,2,1,0.0
13.13,1,-7,-1,6,1,-1,-4,0,0.0
13.135,3,14,-3,-1,-1,1,-1,0,0.0
13.14,-1,-2,-1,-7,-3,-3,0,-1,0.0
13.145,3,-65,-37,-7,-1,2,2,3,0.0
13.15,2,-13,5,3,-1,-1,0,3,0.0
13.155000000000001,1,-7,-14,-1,0,1,-1,0,0.0
13.16,-1,-2,2,2,2,1,2,-3,0.0
13.165000000000001,-3,-27,11,-1,-3,-6,-5,0,0.0
13.17,-6,0,7,-1,0,-2,-2,-2,0.0
13.175,3,-2,-6,-5,-3,-2,0,2,0.0
13.18,-5,-12,-3,1,-1,0,-2,-2,0.0
13.185,0,15,3,-6,-3,-1,-1,0,0.0
13.19,1,-4,0,5,-1,0,1,-4,0.0
13.195,-5,-29,3,-2,1,-3,0,0,0.0
13.200000000000001,1,7,-4,-5,-4,-5,-2,-2,0.0
13.205,-3,-32,-19,-6,3,3,2,0,0.0
13.21,-1,-7,10,2,-4,0,-1,-1,0.0
13.215,2,11,-2,-1,2,0,-2,-5,0.0
13.22,-5,-36,-8,2,-3,-1,0,3,0.0
13.225,8,-16,13,4,1,-2,-1,6,0.0
13.23,-2,-5,-3,-1,-3,0,-1,-1,0.0
13.235,0,4,-1,0,0,-1,1,-1,0.0
13.24,-3,-18,-8,-4,0,1,2,-2,0.0
13.245000000000001,3,41,8,0,-2,-2,0,-4,0.0
13.25,1,-7,-3,-2,-5,-2,-2,0,0.0
13.255,6,37,-4,1,-1,-1,0,1,0.0
13.26,1,25,7,2,-1,-1,0,1,0.0
13.265,-11,-49,5,3,1,-1,-3,-7,0.0
13.27,-1,2,-6,-6,-1,-2,1,2,0.0
13.275,-3,-16,-2,-1,0,-1,-4,-4,0.0
13.280000000000001,1,1,-5,0,2,1,0,-1,0.0
13.285,-11,26,12,2,1,-2,-2,-3,0.0
13.290000000000001,4,-51,-11,-3,-3,0,-4,2,0.0
13.295,-1,-18,6,4,0,1,0,-1,0.0
13.3,3,4,1,-2,-4,-3,1,-3,0.0
13.305,-4,26,9,-4,-1,-2,-1,-2,0.0
13.31,1,16,3,1,1,-4,-2,-1,0.0
13.315,3,5,-18,-4,-4,3,1,2,0.0
13.32,0,2,0,-3,-3,-2,-3,2,0.0
13.325000000000001,-3,-23,5,3,-2,0,1,-3,0.0
13.33,-4,17,4,-4,-1,0,0,0,0.0
13.335,-4,4,14,3,-1,-3,-2,-1,0.0
13.34,-6,-22,1,-2,-5,-2,-2,1,0.0
13.345,-2,11,1,-5,-3,-1,-2,-1,0.0
13.35,-3,6,5,-1,3,1,0,-3,0.0
13.355,-2,23,11,-3,-3,-4,-5,-5,0.0
13.36,10,4,-3,-9,-1,3,1,1,0.0
13.365,3,6,1,-6,-3,-4,-4,-1,0.0
13.370000000000001,2,-21,-8,3,0,4,1,2,0.0
13.375,-3,-14,8,2,1,0,-1,-1,0.0
13.38,-6,17,2,1,1,0,-2,-6,0.0
13.385,1,-18,-4,-3,-4,-4,-4,1,0.0
13.39,3,15,-2,1,1,0,-1,-1,0.0
13.395,-5,-28,2,-2,-2,0,0,2,0.0
13.4,5,20,-11,-2,-2,-1,-1,1,0.0
13.405000000000001,1,9,-3,2,1,1,-1,1,0.0
13.41,-9,0,7,-2,-5,-5,-4,-4,0.0
13.415000000000001,0,9,12,-1,-1,-1,0,-1,0.0
13.42,2,-20,2,-5,-2,-3,-2,-3,0.0
13.425,-4,-18,-1,7,-1,1,0,-2,0.0
13.43,7,10,-9,-4,1,3,3,3,0.0
13.435,2,-17,-8,-4,-1,0,-3,0,0.0
13.44,-3,5,-2,0,-1,-3,-1,-2,0.0
13.445,0,-3,-5,-2,0,-2,0,-3,0.0
13.450000000000001,0,16,-1,-2,0,-2,-2,-1,0.0
13.455,-7,-35,1,-4,5,5,1,-3,0.0
13.46,-4,7,3,4,-3,-1,-2,-1,0.0
13.465,-4,1,-2,-1,-2,1,-1,-1,0.0
13.47,-4,10,1,0,-3,-4,-3,-3,0.0
13.475,1,2,-2,-1,-3,-2,-2,-1,0.0
13.48,0,-11,-10,-5,-3,0,-1,-2,0.0
13.485,5,13,-6,-2,1,0,0,0,0.0
13.49,-3,-3,4,1,1,-2,-1,-3,0.0
13.495000000000001,-1,23,-3,-2,-2,-3,-2,-1,0.0
13.5,-5,-38,-2,1,-1,-3,-4,-2,0.0
13.505,-2,0,5,1,2,-2,-1,-2,0.0
13.51,6,-41,-12,-2,-3,-1,-3,4,0.0
13.515,-4,22,-2,-2,-3,-2,-1,-2,0.0
13.52,-7,-7,20,9,5,-4,-1,-3,0.0
13.525,3,34,0,-4,-1,4,3,0,0.0
13.530000000000001,-3,-4,-3,0,-2,-3,-1,-5,0.0
13.535,-3,-10,-2,-1,-2,-2,-2,-1,0.0
13.540000000000001,0,4,0,-3,-4,-2,-3,1,0.0
13.545,0,5,-7,-3,2,-1,1,2,0.0
13.55,-4,-1,-5,0,-4,-4,-3,0,0.0
13.555,6,-1,-6,-1,-5,2,2,2,0.0
13.56,-4,13,-1,0,-2,1,0,-1,0.0
13.565,0,22,-9,-6,0,-1,-2,-1,0.0
13.57,-5,12,6,2,-2,-3,-3,-2,0.0
13.575000000000001,1,2,-20,-4,0,1,-1,2,0.0
13.58,-2,-28,7,4,1,-2,-3,-2,0.0
13.585,0,-11,1,0,-2,1,1,1,0.0
13.59,-2,2,3,0,2,0,-2,-3,0.0
13.595,1,1,4,0,-2,-2,-2,-2,0.0
13.6,-3,19,0,-3,-2,1,1,-4,0.0
13.605,-5,-27,-11,-2,-1,-4,-3,-1,0.0
13.61,2,-3,1,-4,-1,0,1,-2,0.0
13.615,-4,-4,2,0,-1,-2,-1,-4,0.0
13.620000000000001,2,14,-4,1,1,-1,-1,1,0.0
13.625,-5,20,-3,-2,-3,-4,-4,-4,0.0
13.63,3,11,-27,-9,-1,2,1,1,0.0
13.635,-2,-2,-3,1,3,1,-1,-2,0.0
13.64,-6,17,7,2,2,1,0,-4,0.0
13.645,-6,-17,3,-8,-2,-1,-4,-4,0.0
13.65,-3,-5,10,-3,-5,-1,0,3,0.0
13.655000000000001,-1,16,-3,-1,-1,-1,1,-3,0.0
13.66,3,13,-6,-4,-1,-4,-1,1,0.0
13.665000000000001,0,-32,4,4,-2,0,0,-2,0.0
13.67,-1,-4,9,2,2,0,-2,-3,0.0
13.675,1,8,2,0,-3,-4,-2,3,0.0
13.68,3,-21,-12,-5,-3,0,-2,0,0.0
13.685,0,-1,-2,-9,-3,-2,0,-2,0.0
13.69,-1,-21,6,-1,-3,-2,-2,-2,0.0
13.695,1,3,2,3,0,-2,-5,-1,0.0
13.700000000000001,-3,-22,4,4,2,0,-1,-1,0.0
13.705,1,15,3,-2,-4,-1,-3,0,0.0
13.71,-4,1,-4,0,-1,-2,0,-1,0.0
13.715,-10,-72,18,7,5,2,1,-1,0.0
13.72,7,-11,-1,0,-5,0,-2,5,0.0
13.725,-5,8,-3,-2,-3,-1,-1,-2,0.0
13.73,3,-11,-3,-3,1,0,0,-2,0.0
13.735,-9,-18,2,-2,-2,-2,-1,-1,0.0
13.74,0,25,0,-6,-3,-3,-3,0,0.0
13.745000000000001,0,0,0,6,2,1,2,0,0.0
13.75,0,3,2,-1,-3,1,-2,-1,0.0
13.755,6,2,-27,-9,-1,-3,1,2,0.0
13.76,2,-4,-5,0,-1,2,1,1,0.0
13.765,-1,-1,5,0,-2,-1,-3,0,0.0
13.77,-3,16,8,2,-1,-4,-2,-3,0.0
13.775,2,43,6,-5,0,0,-1,-1,0.0
13.780000000000001,5,5,-7,-3,-5,-5,-2,0,0.0
13.785,-3,-13,2,3,2,2,1,-1,0.0
13.790000000000001,2,-1,-5,-1,-1,-4,-2,-1,0.0
13.795,-1,-9,1,2,-4,0,1,1,0.0
13.8,-1,3,-5,-5,-2,-2,-2,-4,0.0
13.805,-1,33,-6,-1,0,-4,-1,-4,0.0
13.81,-7,-8,2,0,-8,-2,-2,0,0.0
13.815,2,1,-2,0,1,-1,-3,-2,0.0
13.82,-1,-4,-7,-3,0,1,0,-1,0.0
13.825000000000001,-2,-9,3,2,-2,-1,0,2,0.0
13.83,-6,-7,-6,-3,0,-1,-1,-4,0.0
13.835,-5,-59,-9,0,-6,-2,-1,2,0.0
13.84,-8,-2,16,1,-2,-2,-1,-3,0.0
13.845,8,43,-2,-2,0,0,0,0,0.0
13.85,-1,2,-4,1,1,0,1,-2,0.0
13.855,1,18,2,-2,-3,-3,-3,-2,0.0
13.86,-4,-11,-2,0,1,3,2,-4,0.0
13.865,-1,-30,-5,-1,-3,-1,-3,3,0.0
13.870000000000001,0,-20,6,1,4,0,1,0,0.0
13.875,1,-1,-11,-4,-2,-4,-3,-2,0.0
13.88,1,11,-7,-3,1,-3,-1,0,0.0
13.885,0,-2,-3,-1,-3,-2,-1,-1,0.0
13.89,-2,10,2,-1,0,-2,-1,-1,0.0
13.895,0,10,6,1,1,-1,-1,-1,0.0
13.9,-5,4,-2,0,-2,1,0,-1,0.0
13.905000000000001,-3,-12,6,2,-4,-2,-1,-4,0.0
13.91,4,-13,-13,-5,-1,0,-2,1,0.0
13.915000000000001,3,23,4,-1,0,-1,-1,-1,0.0
13.92,0,1,-15,-7,-5,0,1,0,0.0
13.925,-1,-26,0,-4,-4,-2,-3,2,0.0
13.93,-4,4,4,3,-4,-2,-4,-3,0.0
13.935,1,24,1,-4,-6,-2,-1,-1,0.0
13.94,1,15,5,1,2,-3,-2,-2,0.0
13.945,-4,-10,-1,0,8,0,-2,-2,0.0
13.950000000000001,0,0,-15,3,-2,4,2,0,0.0
13.955,-2,-19,3,0,-2,-2,-2,-5,0.0
13.96,2,2,-1,0,-2,-2,0,0,0.0
13.965,3,5,0,0,0,-1,-1,-3,0.0
13.97,-1,4,4,-4,2,-3,-1,-2,0.0
13.975,-2,1,-1,0,0,0,-1,-1,0.0
13.98,-2,3,7,3,-1,0,-1,-3,0.0
13.985,-7,-10,5,2,-3,-3,-1,-4,0.0
13.99,12,18,-5,-7,0,1,-3,5,0.0
13.995000000000001,-4,-30,-8,1,-2,-1,-1,-1,0.0
14.0,0,-1,6,-4,-2,-3,-3,-1,0.0
14.005,-5,-20,9,4,-1,3,0,-2,0.0
14.01,-1,-2,2,-3,1,-2,-1,0,0.0
14.015,-7,-6,1,-1,-3,-2,0,-1,0.0
14.02,-3,-5,-9,-1,1,-2,-4,1,0.0
14.025,5,23,-10,-4,-1,-2,1,0,0.0
14.030000000000001,-5,-17,8,4,-2,1,0,-1,0.0
14.035,2,17,-5,0,1,2,0,-1,0.0
14.040000000000001,-5,-14,2,0,-3,0,-2,0,0.0
14.045,1,4,-1,-2,-2,-2,-2,2,0.0
14.05,0,5,1,-1,-4,-1,0,0,0.0
14.055,-2,8,12,-1,-2,-4,-3,-1,0.0
14.06,-1,-5,1,2,0,0,0,-2,0.0
14.065,0,9,3,-4,-3,-2,-2,-2,0.0
14.07,-3,26,-3,-3,1,-3,-4,-5,0.0
14.075000000000001,-1,-27,-3,-1,-2,0,-1,2,0.0
14.08,-2,-12,2,-4,1,0,-1,0,0.0
14.085,3,-8,-5,2,0,1,0,0,0.0
14.09,-1,11,2,-1,-4,-6,-4,0,0.0
14.095,-2,1,5,2,-3,1,0,1,0.0
14.1,6,9,-5,-3,-1,-1,1,1,0.0
14.105,-4,-17,3,-1,-4,-2,-2,-3,0.0
14.11,1,-23,-3,-1,1,-1,-1,-1,0.0
14.115,2,9,2,-1,-1,-2,-3,0,0.0
14.120000000000001,0,15,-6,-5,-2,-4,-2,0,0.0
14.125,-1,3,-2,1,2,-2,0,0,0.0
14.13,-1,-3,9,1,-2,1,-1,0,0.0
14.135,1,43,-4,-5,0,0,1,-1,0.0
14.14,-1,9,-7,-1,-4,-1,-3,-2,0.0
14.145,-2,14,2,1,-2,-1,-1,0,0.0
14.15,-5,-24,6,-2,-2,-2,-1,-2,0.0
14.155000000000001,16,-39,-14,0,0,2,0,7,0.0
14.16,-1,-3,1,3,0,0,-2,0,0.0
14.165000000000001,-3,5,-2,-6,-1,3,0,-1,0.0
14.17,-2,-7,1,-2,-6,-4,-3,1,0.0
14.175,-4,-6,3,-3,1,-2,-1,-3,0.0
14.18,-2,-12,1,0,0,-1,-2,-2,0.0
14.185,0,8,-6,-4,-2,-3,-3,2,0.0
14.19,-3,2,-4,-1,-1,0,1,-3,0.0
14.195,-5,7,0,-3,-2,-3,-3,-4,0.0
14.200000000000001,-4,18,3,-3,-3,-3,-2,-4,0.0
14.205,-2,5,-3,-1,-1,-2,-2,-3,0.0
14.21,3,25,-3,-1,0,-1,-1,-1,0.0
14.215,0,-6,-23,-3,-4,-6,-1,1,0.0
14.22,7,32,-11,-3,1,1,1,0,0.0
14.225,0,-12,-2,-2,-2,-2,-1,-3,0.0
14.23,-4,-14,-2,2,1,1,1,-1,0.0
14.235,-2,12,6,-1,-2,-1,-3,-2,0.0
14.24,-3,-15,-4,2,2,0,-1,0,0.0
14.245000000000001,-1,-10,-5,-3,2,2,2,-2,0.0
14.25,1,7,-6,1,5,0,1,-2,0.0
14.255,5,-17,-4,-2,-1,0,-2,1,0.0
14.26,-6,-9,2,0,-4,-2,-1,1,0.0
14.265,-1,8,0,1,-3,-3,-3,0,0.0
14.27,-4,-3,0,-2,-1,-1,-1,-2,0.0
14.275,-6,0,5,-1,2,-1,0,-7,0.0
14.280000000000001,-6,-31,15,3,-1,-3,0,-2,0.0
14.285,4,8,-1,1,-1,-1,-2,1,0.0
14.290000000000001,-3,-5,-1,0,-3,1,-1,0,0.0
14.295,-2,0,6,-1,-3,-2,-2,1,0.0
14.3,-5,-11,-1,-2,-1,0,0,0,0.0
14.305,-1,-7,4,0,0,-2,-2,-1,0.0
14.31,-1,-4,-4,-2,-3,-2,-2,-1,0.0
14.315,-1,6,2,-5,-1,-1,-3,-3,0.0
14.32,8,32,-6,-1,-2,-1,1,1,0.0
14.325000000000001,-1,-3,-5,-3,-3,0,-1,1,0.0
14.33,3,-17,-13,-3,-4,-3,-3,0,0.0
14.335,-1,-6,1,3,1,2,1,-2,0.0
14.34,0,-11,-1,-3,-4,-2,-3,2,0.0
14.345,-2,-3,1,-1,-2,0,-1,-3,0.0
14.35,1,-1,4,-5,-2,-1,-1,0,0.0
14.355,-2,17,1,3,-1,-3,-3,-1,0.0
14.36,-2,-21,-1,-7,-1,-2,-2,-2,0.0
14.365,2,-2,1,1,-2,0,-2,4,0.0
14.370000000000001,1,37,-17,-5,0,4,3,-3,0.0
14.375,-3,1,4,-4,-6,-2,-1,-3,0.0
14.38,-3,-3,2,2,-1,-3,-2,-3,0.0
14.385,-2,2,0,-1,0,-2,0,0,0.0
14.39,-5,-17,0,1,-2,-2,-2,-3,0.0
14.395,3,-30,-5,-2,-2,-1,-1,6,0.0
14.4,7,24,-10,1,-3,1,2,2,0.0
14.405000000000001,0,-7,1,-3,0,-1,-1,-3,0.0
14.41,-1,-6,6,1,0,-1,-2,-1,0.0
14.415000000000001,-4,9,3,0,-2,-1,-2,0,0.0
14.42,-2,-13,1,0,-3,-3,-1,-1,0.0
14.425,-1,-2,0,-1,-2,-2,0,-1,0.0
14.43,9,-2,-14,-2,1,-2,0,2,0.0
14.435,-3,3,-1,2,0,1,2,-2,0.0
14.44,-1,-9,-7,-5,2,2,-1,-3,0.0
14.445,-4,2,3,0,-4,-2,-2,-2,0.0
14.450000000000001,0,48,0,-3,-2,-2,-1,-2,0.0
14.455,-3,-15,-6,0,1,-2,-1,-3,0.0
14.46,-2,3,4,2,-1,0,-1,1,0.0
14.465,-1,-3,1,2,0,1,-1,-5,0.0
14.47,-7,-21,4,-1,-1,-2,-2,2,0.0
14.475,4,-1,2,-4,-3,0,-2,0,0.0
14.48,-1,5,-2,-2,-1,-2,-1,-3,0.0
14.485,1,4,-3,-2,-3,-3,-3,1,0.0
14.49,-1,0,4,1,-2,0,1,-2,0.0
14.495000000000001,-1,5,-4,-1,-1,-2,-2,0,0.0
14.5,-1,-25,-2,2,-4,-3,-3,-1,0.0
14.505,3,63,1,-10,-3,-1,-1,1,0.0
14.51,-2,-10,2,-1,0,-1,-3,-2,0.0
14.515,3,3,0,0,-2,-1,0,1,0.0
14.52,1,-14,-3,-2,-1,0,-4,-2,0.0
14.525,-7,-38,-3,1,1,0,0,-1,0.0
14.530000000000001,-2,-8,4,-2,-3,-2,-2,2,0.0
14.535,-1,9,4,-2,-1,-2,-2,1,0.0
14.540000000000001,6,41,-17,-5,0,-2,-1,1,0.0
14.545,0,-19,0,1,-1,0,1,-1,0.0
14.55,-1,-8,-1,-2,-3,-1,-2,-1,0.0
14.555,-6,-7,1,0,0,0,1,-3,0.0
14.56,0,-6,5,-1,-2,-2,0,0,0.0
14.565,-1,-7,-3,0,-2,-3,-2,0,0.0
14.57,-2,-13,0,-2,-1,-3,-1,0,0.0
14.575000000000001,0,-20,-2,-1,-1,-2,-2,-2,0.0
14.58,-4,-54,0,3,2,3,1,-4,0.0
14.585,0,1,1,0,-2,-4,-3,0,0.0
14.59,-2,-5,9,1,-3,-2,0,-4,0.0
14.595,-4,-23,-1,-2,-2,-2,-3,-4,0.0
14.6,-3,-10,3,2,0,0,2,2,0.0
14.605,-3,2,-9,-1,-1,0,0,-4,0.0
14.61,-2,0,0,-1,-3,0,-2,0,0.0
14.615,-2,2,2,-1,-1,-3,-1,-2,0.0
14.620000000000001,1,15,2,-1,-3,-4,-2,-3,0.0
14.625,-1,-26,-8,-1,1,1,0,-2,0.0
14.63,-4,-19,0,0,0,0,-1,3,0.0
14.635,-2,-3,-3,1,0,4,3,4,0.0
14.64,-4,5,0,-3,-3,-2,-4,-3,0.0
14.645,2,3,0,-1,1,0,1,2,0.0
14.65,-1,-10,-10,1,-1,0,-1,-4,0.0
14.655000000000001,0,0,0,-3,-2,-3,-6,-1,0.0
14.66,2,24,-7,-3,-2,0,-1,2,0.0
14.665000000000001,-2,-21,6,-1,-3,-2,-3,-1,0.0
14.67,1,2,-1,-3,0,0,-1,1,0.0
14.675,4,13,1,-1,-2,-2,0,-2,0.0
14.68,-4,7,-3,-2,-2,-2,-1,-3,0.0
14.685,0,7,-5,-3,0,1,-2,-1,0.0
14.69,0,-2,-2,0,-4,-1,-2,-2,0.0
14.695,-2,14,-1,-3,-2,-1,-3,-2,0.0
14.700000000000001,15,43,-27,-5,1,1,1,3,0.0
14.705,-2,-2,3,1,-4,-4,-1,-2,0.0
14.71,0,-14,0,1,1,-3,-2,-2,0.0
14.715,1,3,-1,0,2,0,1,2,0.0
14.72,-6,-15,7,2,-2,-2,-3,1,0.0
14.725,2,3,3,0,2,0,2,-1,0.0
14.73,0,25,-4,-3,-1,-2,-1,-3,0.0
14.735,1,-8,2,2,-3,-2,-3,-2,0.0
14.74,0,-7,-4,-5,-2,-1,0,1,0.0
14.745000000000001,-3,-2,-1,-2,-1,-1,-1,0,0.0
14.75,-1,-9,5,-1,-1,-2,-1,-4,0.0
14.755,-1,2,-2,-1,-1,-2,-1,-1,0.0
14.76,-5,-10,11,1,-2,-2,-2,-2,0.0
14.765,0,7,-6,-3,-2,-3,-3,-3,0.0
14.77,1,2,2,-2,1,2,3,2,0.0
14.775,-3,-10,-7,1,0,-2,0,-1,0.0
14.780000000000001,-3,-3,5,2,-1,-1,-1,-3,0.0
14.785,-2,-15,-2,-1,0,0,-1,0,0.0
14.790000000000001,0,10,-5,-5,-2,-1,-1,0,0.0
14.795,-2,4,-3,-4,-4,-2,-1,-4,0.0
14.8,-4,-60,4,1,-1,-2,-1,1,0.0
14.805,4,19,-5,0,-1,-1,-2,0,0.0
14.81,5,-8,-3,1,3,-1,-1,2,0.0
14.815,-1,3,1,-2,-2,0,-1,2,0.0
14.82,-3,-3,4,0,-2,0,0,0,0.0
14.825000000000001,-5,-8,0,-2,-4,-1,-2,-8,0.0
14.83,-2,-10,4,-1,-2,-1,-3,-3,0.0
14.835,0,8,0,0,2,0,0,2,0.0
14.84,1,-3,0,-2,-1,-3,-1,-3,0.0
14.845,-2,-16,5,-1,0,0,-2,0,0.0
14.85,-2,3,1,2,-5,-1,1,-1,0.0
14.855,-2,-5,1,-5,-1,-1,-1,-1,0.0
14.86,-1,-31,0,1,-5,-2,-1,0,0.0
14.865,-1,-10,0,-2,-2,-1,-1,0,0.0
14.870000000000001,-2,-1,6,-1,-2,0,-1,-2,0.0
14.875,0,-10,-3,-5,-5,0,-1,-1,0.0
14.88,5,23,-1,-2,-2,-1,0,0,0.0
14.885,-4,9,2,-2,0,-3,-2,-3,0.0
14.89,-5,-9,2,0,0,-1,-2,-3,0.0
14.895,-3,-31,8,3,-1,-5,-3,-3,0.0
14.9,-3,14,5,0,0,1,-3,4,0.0
14.905000000000001,-1,3,-3,-2,-5,1,-2,-2,0.0
14.91,0,6,-3,-2,-1,-2,0,1,0.0
14.915000000000001,1,3,-8,1,3,0,0,-3,0.0
14.92,0,3,0,-2,-2,-3,-1,-2,0.0
14.925,5,-15,-6,-2,-2,-2,2,1,0.0
14.93,-2,-6,1,-2,0,1,0,0,0.0
14.935,3,25,-4,-3,-5,-4,-2,-1,0.0
14.94,-1,2,-4,1,-1,0,-2,-5,0.0
14.945,1,12,8,3,3,-1,-1,3,0.0
14.950000000000001,-1,-21,-1,1,-2,-3,-1,-5,0.0
14.955,0,8,2,-3,-2,0,-2,-1,0.0
14.96,-5,-1,1,-3,-1,0,-3,-4,0.0
14.965,1,8,-7,-1,-1,1,-1,1,0.0
14.97,0,1,-4,-2,-1,-5,-3,1,0.0
14.975,1,1,2,2,0,-1,0,0,0.0
14.98,-2,4,2,3,0,-1,0,-3,0.0
14.985,-3,-1,-2,-3,-4,-2,-4,-1,0.0
14.99,1,3,-2,0,-1,0,-1,0,0.0
14.995000000000001,-2,-6,-2,-1,0,1,1,1,0.0
15.0,-6,-9,-4,0,1,-1,-1,-5,0.0
15.005,-4,-4,4,-1,-3,-2,-2,0,0.0
15.01,0,12,-11,-5,-4,-3,-2,-1,0.0
15.015,0,2,-5,-1,3,0,1,-1,0.0
15.02,1,-6,-1,-3,-5,-2,-3,-1,0.0
15.025,-2,-13,0,1,2,2,1,1,0.0
15.030000000000001,-3,4,0,-1,1,0,0,-1,0.0
15.035,-3,-4,-2,-1,-4,0,-3,-4,0.0
15.040000000000001,-7,-7,8,0,3,0,-1,4,0.0
15.045,2,19,-2,-5,-2,-2,-3,-2,0.0
15.05,0,3,4,0,-2,-1,-2,0,0.0
15.055,0,10,0,-1,-1,0,0,-1,0.0
15.06,-2,-9,-1,-1,-2,-1,0,0,0.0
15.065,3,-2,4,1,-2,-1,-2,-3,0.0
15.07,-1,-1,-3,-5,1,-1,-1,-2,0.0
15.075000000000001,-3,10,-4,-1,-3,-1,-1,-2,0.0
15.08,1,-13,-14,-5,-3,0,-3,-1,0.0
15.085,-2,-7,0,0,3,-2,0,1,0.0
15.09,-4,20,1,-1,-2,1,-2,-3,0.0
15.095,0,0,7,-2,-6,-2,-2,1,0.0
15.1,1,7,2,-1,-1,-2,-1,-1,0.0
15.105,-2,-14,-8,1,-1,-1,1,1,0.0
15.11,0,-10,5,1,-4,-1,-2,-2,0.0
15.115,-1,-5,-5,-1,-2,-3,-2,-3,0.0
15.120000000000001,2,5,-1,-1,-2,-1,1,-2,0.0
15.125,-3,-5,1,1,-4,-2,-2,-4,0.0
15.13,3,4,-1,-1,1,-1,-2,-1,0.0
15.135,-4,-29,-1,1,0,5,1,0,0.0
15.14,-1,12,3,-5,-1,-1,-1,-2,0.0
15.145,-2,-17,-7,-2,-1,-1,-2,2,0.0
15.15,-1,-2,-3,-2,-2,-2,2,0,0.0
15.155000000000001,1,4,1,-1,-2,-2,-1,-1,0.0
15.16,-2,2,2,1,-2,0,-2,-2,0.0
15.165000000000001,-1,4,-2,-1,0,1,1,0,0.0
15.17,0,-10,4,2,1,1,-2,0,0.0
15.175,2,-1,-4,-4,-2,-4,-3,1,0.0
15.18,-4,-28,-5,0,-2,-1,1,2,0.0
15.185,-5,3,3,-2,-3,-1,-4,-5,0.0
15.19,1,18,-4,-1,1,1,1,-1,0.0
15.195,-4,-7,2,-5,-1,0,-2,-4,0.0
15.200000000000001,1,4,0,0,0,-1,0,2,0.0
15.205,2,3,1,-2,-1,-2,-1,0,0.0
15.21,-1,-5,-3,0,-2,-1,1,0,0.0
15.215,1,-1,3,-1,0,-3,-4,0,0.0
15.22,1,10,1,-2,-3,-2,-2,-2,0.0
15.225,-2,1,3,2,0,1,-1,0,0.0
15.23,3,-6,0,-2,0,-3,-4,0,0.0
15.235,0,-8,-4,2,-1,-2,-1,-1,0.0
15.24,-1,7,1,-3,-4,0,-3,0,0.0
15.245000000000001,1,-2,7,-1,-1,-1,0,0,0.0
15.25,-1,19,-10,-2,-6,-3,0,4,0.0
15.255,-3,2,-3,-2,-1,-1,-1,0,0.0
15.26,-2,5,0,0,-1,-2,-2,-3,0.0
15.265,-1,10,-3,-3,-1,-2,1,-2,0.0
15.27,1,-12,-4,0,1,-1,-2,2,0.0
15.275,-1,14,0,1,2,1,1,1,0.0
15.280000000000001,0,9,2,-2,0,-2,1,-6,0.0
15.285,-1,-11,-9,-2,-3,0,0,2,0.0
15.290000000000001,-3,-6,3,0,-1,-2,-1,-4,0.0
15.295,-2,4,0,0,-3,-1,-1,0,0.0
15.3,-2,-3,0,-2,0,0,-1,1,0.0
15.305,0,-4,0,1,-1,-2,-1,-2,0.0
15.31,-2,-6,0,-3,-1,1,-1,-2,0.0
15.315,-1,-4,0,1,0,-2,-3,-3,0.0
15.32,0,-10,-3,1,-2,-1,0,-1,0.0
15.325000000000001,-6,1,4,-1,-1,-2,0,-1,0.0
15.33,-1,3,2,0,0,-1,-3,-2,0.0
15.335,-1,8,0,-2,-1,1,-1,-1,0.0
15.34,1,9,-5,0,2,0,-1,-2,0.0
15.345,-2,-18,5,0,-1,-1,-2,-2,0.0
15.35,-1,-9,2,0,-2,-3,0,0,0.0
15.355,-2,0,-3,0,0,-2,1,2,0.0
15.36,0,2,-2,-3,-1,-1,-2,-1,0.0
15.365,4,0,-3,-1,-6,-4,-1,-1,0.0
15.370000000000001,-1,2,4,-2,-3,-2,-4,-2,0.0
15.375,-3,-15,-3,-2,1,2,1,0,0.0
15.38,-2,-9,0,3,2,-1,-1,-2,0.0
15.385,0,7,-6,-2,1,2,1,0,0.0
15.39,-1,2,0,-1,-1,-2,-4,-3,0.0
15.395,2,-17,-1,0,0,1,-1,0,0.0
15.4,1,-4,-3,-4,-3,-2,-2,0,0.0
15.405000000000001,-4,-3,3,3,0,-2,1,-2,0.0
15.41,1,2,4,1,1,0,0,2,0.0
15.415000000000001,-2,12,3,-4,-3,-3,-1,-2,0.0
15.42,-2,0,2,-1,0,0,-2,-1,0.0
15.425,-1,-10,-1,0,-3,-2,-3,0,0.0
15.43,-3,1,0,-4,-1,0,-1,-3,0.0
15.435,2,4,-3,-1,-3,-4,-2,-1,0.0
15.44,-1,-28,3,-1,-7,-3,0,1,0.0
15.445,1,1,2,-1,0,-1,-1,0,0.0
15.450000000000001,-3,-10,-7,-3,-3,0,1,-1,0.0
15.455,-1,-3,-3,1,-2,-1,0,-2,0.0
15.46,-4,0,-2,-1,-1,-1,-1,2,0.0
15.465,1,-2,-4,-2,-2,-1,-1,-1,0.0
15.47,-1,-3,0,-3,-1,-2,-2,0,0.0
15.475,0,2,2,0,0,-3,-3,-4,0.0
15.48,-1,8,-8,1,-2,1,-1,-4,0.0
15.485000000000001,0,24,-3,-5,-1,1,-1,-1,0.0
15.49,-8,3,-2,0,3,4,3,-3,0.0
15.495000000000001,-4,0,1,-3,-3,-4,-2,-1,0.0
15.5,1,6,3,0,0,-1,-2,-4,0.0
15.505,1,0,1,-2,-1,1,-1,0,0.0
15.51,-2,-8,-5,0,-2,-1,-2,-3,0.0
15.515,-1,-2,5,-1,-3,1,-1,1,0.0
15.52,1,9,-3,-2,1,0,0,1,0.0
15.525,2,-10,-2,0,0,-2,-1,-1,0.0
15.530000000000001,0,-5,2,0,-2,-2,-1,1,0.0
15.535,-1,-1,0,-1,-2,-1,-2,-3,0.0
15.540000000000001,1,42,1,-2,0,-1,0,-3,0.0
15.545,-1,-1,-8,-3,-1,1,-2,-1,0.0
15.55,1,-9,4,0,-2,-2,-1,-1,0.0
15.555,0,-2,1,-1,-4,0,0,1,0.0
15.56,-2,-25,-2,1,1,0,-1,0,0.0
15.565,-1,1,-2,-1,-3,-2,-1,-1,0.0
15.57,1,10,-11,-2,1,0,-2,-1,0.0
15.575000000000001,1,-5,-1,-4,-2,-2,-2,0,0.0
15.58,-3,-37,5,3,-1,-1,0,-1,0.0
15.585,-2,-2,-3,-4,-1,-3,-2,-2,0.0
15.59,0,-9,1,2,0,-2,-1,-3,0.0
15.595,1,-4,-2,1,0,-1,-4,-1,0.0
15.6,1,-1,-4,-3,-2,-1,-2,-2,0.0
15.605,0,-7,0,2,-2,0,0,-3,0.0
15.610000000000001,-2,-15,-1,-1,0,0,-3,3,0.0
15.615,1,-3,2,0,-1,-1,1,-1,0.0
15.620000000000001,-4,5,2,-2,-1,-3,-2,3,0.0
15.625,-1,4,3,-1,-1,0,-1,-2,0.0
15.63,3,33,2,-1,-1,-3,-1,4,0.0
15.635,-1,9,2,-2,-6,1,0,-2,0.0
15.64,3,-2,-3,-2,2,-2,-3,-3,0.0
15.645,-2,-11,3,1,1,0,1,-1,0.0
15.65,-1,-10,-1,0,-3,-1,-2,-2,0.0
15.655000000000001,1,-8,2,-2,-1,-1,-1,2,0.0
15.66,-1,17,-5,-3,0,-1,-3,0,0.0
15.665000000000001,-2,-9,-21,-5,-3,-1,-3,-2,0.0
15.67,0,-8,0,-5,-1,-2,-1,-2,0.0
15.675,-4,1,-2,1,-3,-3,-1,-2,0.0
15.68,0,1,3,0,-2,-1,-2,1,0.0
15.685,-2,39,2,-2,0,0,-1,-1,0.0
15.69,2,-3,2,0,-2,0,0,-1,0.0
15.695,1,-12,-6,-2,1,-4,-1,-3,0.0
15.700000000000001,-3,3,0,-3,0,-1,0,-2,0.0
15.705,0,-3,0,1,-1,-2,-1,-1,0.0
15.71,3,24,-8,-3,-4,0,-1,-1,0.0
15.715,-1,-1,-3,-3,-2,-2,0,-1,0.0
15.72,-3,-6,1,1,-3,-3,-2,-2,0.0
15.725,0,2,0,-3,-4,-2,-1,-1,0.0
15.73,-5,-18,0,-1,0,0,1,-1,0.0
15.735000000000001,-1,4,-7,0,-1,0,-1,0,0.0
15.74,-3,1,-1,-2,-1,-2,-1,-4,0.0
15.745000000000001,-7,-18,1,0,-3,-2,-2,2,0.0
15.75,-1,-2,1,1,1,-1,0,-4,0.0
15.755,0,12,4,-1,-2,-1,-3,-1,0.0
15.76,-2,11,3,1,0,1,0,-1,0.0
15.765,1,14,2,-5,0,0,1,-3,0.0
15.77,-1,-7,1,0,-1,-2,-4,1,0.0
15.775,-1,-1,-7,0,2,-1,0,-3,0.0
15.780000000000001,-2,-37,-16,-2,-1,0,-1,0,0.0
15.785,-1,-9,1,0,-1,-2,0,-1,0.0
15.790000000000001,-1,-9,7,-1,-3,-2,-2,-2,0.0
15.795,-1,1,0,0,-2,0,0,-2,0.0
15.8,1,-9,-1,-1,-2,-2,-2,0,0.0
15.805,1,34,-7,-2,-1,-3,-1,4,0.0
15.81,-5,-15,-8,1,-6,-1,-1,-2,0.0
15.815,-4,-3,3,-1,-2,0,-2,-1,0.0
15.82,1,-8,4,-3,0,-2,2,2,0.0
15.825000000000001,2,-12,2,0,-3,-2,-2,-4,0.0
15.83,0,-11,-15,-3,-1,1,2,1,0.0
15.835,-1,4,-1,-1,-1,-2,-1,0,0.0
15.84,-1,9,-1,-1,-2,-1,-2,-1,0.0
15.845,1,-9,-2,0,0,-1,-2,-2,0.0
15.85,1,16,-2,-3,-1,-2,-3,-4,0.0
15.855,-3,3,-4,-2,1,1,0,-1,0.0
15.860000000000001,3,7,-3,-3,-4,-3,-1,-3,0.0
15.865,-2,-14,4,2,0,-1,-1,0,0.0
15.870000000000001,-5,3,3,-1,-2,-1,-1,0,0.0
15.875,-1,-2,3,-1,-2,-2,-3,-1,0.0
15.88,0,5,4,1,-4,-2,-2,-1,0.0
15.885,-2,-5,-5,-1,-2,-1,2,1,0.0
15.89,0,1,3,-1,1,0,-1,1,0.0
15.895,0,-5,-1,-3,0,-2,-2,0,0.0
15.9,3,2,-9,-1,-1,0,0,-2,0.0
15.905000000000001,-2,0,5,0,-1,-1,-2,-4,0.0
15.91,3,9,-16,-3,1,0,1,0,0.0
15.915000000000001,2,-3,4,2,-4,-3,-1,-2,0.0
15.92,-4,-1,5,0,2,-1,1,-2,0.0
15.925,2,-13,1,2,2,2,0,0,0.0
15.93,-3,-1,3,-2,0,1,1,0,0.0
15.935,1,-36,2,3,1,-2,-3,0,0.0
15.94,0,0,0,-1,-3,-1,-1,0,0.0
15.945,0,-1,1,-1,1,-1,-1,1,0.0
15.950000000000001,-3,-18,9,-2,-1,1,-1,-2,0.0
15.955,2,8,-3,-1,-6,-2,-1,0,0.0
15.96,-1,-16,1,1,0,0,-1,0,0.0
15.965,-1,-5,-1,-1,-1,-1,-4,-1,0.0
15.97,1,-6,5,5,-2,-3,-1,-1,0.0
15.975,-3,2,-1,-2,0,0,0,1,0.0
15.98,-2,3,1,-3,-1,0,-3,-1,0.0
15.985000000000001,4,-2,-8,-2,-3,-2,0,1,0.0
15.99,-1,-2,0,-1,-2,-4,-3,-1,0.0
15.995000000000001,-1,2,0,0,2,0,-2,1,0.0
16.0,0,13,-2,-2,-5,-2,-1,2,0.0
16.005,1,-15,-2,1,-1,-1,-1,-3,0.0
16.01,-1,0,5,1,-1,0,-2,-1,0.0
16.015,0,50,-8,-5,-1,-2,1,-3,0.0
16.02,1,-11,2,0,-2,1,-1,-1,0.0
16.025,-2,7,-5,-4,-3,-1,-2,0,0.0
16.03,-1,2,1,1,-2,-3,0,1,0.0
16.035,-2,-20,-1,-3,2,2,0,-1,0.0
16.04,-1,1,-1,-2,-1,-1,-2,-3,0.0
16.045,-3,5,3,0,-1,-2,0,-3,0.0
16.05,-4,1,10,0,-2,-3,0,-3,0.0
16.055,-2,4,4,-1,-3,-2,-1,0,0.0
16.06,1,-7,-3,0,0,-3,-1,-1,0.0
16.065,-5,-23,-4,4,2,1,-1,-1,0.0
16.07,1,-20,-2,-4,-5,-2,-3,-2,0.0
16.075,-3,-10,0,1,-2,-2,-1,-2,0.0
16.080000000000002,-2,12,-2,-2,0,-1,-1,-3,0.0
16.085,-3,25,1,-2,-5,-5,0,-3,0.0
16.09,1,13,-1,-1,-1,-1,-2,1,0.0
16.095,-2,5,-8,-3,-1,0,-2,-2,0.0
16.1,0,-2,-8,-2,-3,-1,0,-1,0.0
16.105,-2,-7,-4,-3,-2,0,0,-1,0.0
16.11,-2,0,-6,-2,0,-2,-2,0,0.0
16.115000000000002,1,-15,-5,2,1,0,0,-3,0.0
16.12,-4,-14,-4,0,1,0,1,-1,0.0
16.125,1,-3,3,-2,-1,-1,-1,-2,0.0
16.13,2,-1,-6,-1,-1,-1,-2,0,0.0
16.135,-5,-13,0,-2,-1,-2,-2,-2,0.0
16.14,-1,2,0,-1,1,-1,-2,0,0.0
16.145,-1,0,0,-3,-2,-1,-2,0,0.0
16.15,0,-18,-3,1,0,-1,-2,1,0.0
16.155,-1,-12,-7,-1,-1,0,0,1,0.0
16.16,0,-3,2,0,0,-2,-1,-2,0.0
16.165,-1,1,1,-2,-1,1,-1,0,0.0
16.17,1,-1,0,0,-2,-2,0,-3,0.0
16.175,1,4,0,-2,-2,-1,-1,2,0.0
16.18,3,-5,-3,-2,-1,-2,-1,0,0.0
16.185,-2,-6,1,0,-2,-3,-4,-2,0.0
16.19,1,10,1,0,0,2,-1,-2,0.0
16.195,-1,9,-1,-2,-3,-2,-1,-2,0.0
16.2,-3,-6,5,0,-2,-1,-1,-1,0.0
16.205000000000002,4,33,4,0,0,-1,0,-3,0.0
16.21,2,51,-5,-4,-3,-1,-3,-1,0.0
16.215,0,0,2,0,-3,-3,-2,-2,0.0
16.22,-6,-15,-4,-2,-1,1,-2,1,0.0
16.225,0,-7,4,1,1,0,0,0,0.0
16.23,-2,-14,-6,-4,-2,-3,0,-2,0.0
16.235,3,-9,1,0,1,0,-1,0,0.0
16.240000000000002,-1,14,1,-3,0,-1,-2,0,0.0
16.245,-1,-12,-6,-2,0,0,-2,-3,0.0
16.25,-2,-10,-2,-3,-1,0,0,3,0.0
16.255,2,-11,-1,-2,-2,-1,-3,-3,0.0
16.26,-1,-5,1,-1,-1,-3,0,-3,0.0
16.265,-4,-7,-4,-1,-2,-1,-2,0,0.0
16.27,-2,-5,0,0,-1,-1,-2,-1,0.0
16.275,-4,7,3,-2,2,1,0,-2,0.0
16.28,1,14,-4,0,-1,-2,-1,-2,0.0
16.285,-3,-2,-1,-1,-1,-1,-1,-1,0.0
16.29,-1,-8,-1,2,1,2,0,-2,0.0
16.295,-3,3,-1,-1,-1,-1,-2,-1,0.0
16.3,0,7,0,-1,1,1,0,-1,0.0
16.305,-2,-7,-2,0,-3,-4,-3,2,0.0
16.31,-1,-9,0,-2,-2,-1,-2,0,0.0
16.315,1,-15,3,4,1,1,0,2,0.0
16.32,-3,-31,-4,-2,-3,-1,-1,-2,0.0
16.325,3,18,-3,0,0,-3,1,0,0.0
16.330000000000002,-3,-25,-8,-4,-5,-4,0,1,0.0
16.335,-1,-2,-2,0,-2,-2,0,-2,0.0
16.34,4,9,-2,-1,-1,0,-2,-2,0.0
16.345,-1,-7,0,-1,-2,-1,-1,-1,0.0
16.35,-2,-13,-2,-2,-3,0,-1,0,0.0
16.355,3,12,-8,-2,-3,-3,-2,-1,0.0
16.36,-3,3,-3,-4,-5,-3,-2,6,0.0
16.365000000000002,0,-2,0,-2,-3,0,-3,-1,0.0
16.37,3,11,2,1,-2,-1,-2,-1,0.0
16.375,-3,3,-2,-2,-2,-1,-3,-1,0.0
16.38,0,-2,2,1,0,1,0,-3,0.0
16.385,0,-6,-4,-1,0,0,0,1,0.0
16.39,-1,5,1,-3,-1,-3,-2,0,0.0
16.395,1,-8,-1,-3,-2,-1,0,-3,0.0
16.4,0,-3,-2,-2,-3,-2,-1,0,0.0
16.405,-5,-6,1,0,-1,-1,-1,-2,0.0
16.41,0,-9,2,0,0,-1,0,-2,0.0
16.415,-6,3,7,1,-4,-4,0,-1,0.0
16.42,2,43,-1,-1,-1,-1,-1,-1,0.0
16.425,-1,0,2,-4,-1,0,-1,-2,0.0
16.43,-4,3,3,2,-1,-1,0,-1,0.0
16.435,3,18,1,-6,-2,-1,-2,0,0.0
16.44,1,-12,-1,-1,-1,-2,-1,-3,0.0
16.445,0,-13,-3,2,-1,0,-1,-2,0.0
16.45,-2,24,-1,-2,1,-1,-1,-4,0.0
16.455000000000002,-1,-36,-5,3,1,0,1,0,0.0
16.46,-2,-19,-15,-1,0,-1,-1,-1,0.0
16.465,-2,5,1,-5,-2,-3,0,0,0.0
16.47,-1,-19,-6,-1,-3,-2,-1,0,0.0
16.475,-2,-1,-2,1,-1,-1,-3,-1,0.0
16.48,0,0,1,-1,-2,-2,1,-3,0.0
16.485,-4,-8,0,0,0,-1,-2,-2,0.0
16.490000000000002,0,10,-7,0,-5,-1,-2,-1,0.0
16.495,-1,5,2,0,0,-1,0,-1,0.0
16.5,-2,4,4,-4,-4,-1,0,-1,0.0
16.505,2,7,-2,1,-2,-2,-1,-1,0.0
16.51,-1,-4,4,0,1,-1,-2,1,0.0
16.515,0,-4,-9,-3,-3,-2,-3,-2,0.0
16.52,-4,-18,0,0,-3,-2,-3,-1,0.0
16.525,-4,-9,-2,-3,-2,0,-1,-1,0.0
16.53,0,10,1,-3,0,0,-1,1,0.0
16.535,-3,-7,1,-1,-2,1,0,-1,0.0
16.54,1,7,-1,0,1,1,-1,0,0.0
16.545,1,12,-4,-3,-1,-1,-1,1,0.0
16.55,-4,-9,0,-1,-2,-3,-1,-1,0.0
16.555,0,5,3,0,0,0,-1,2,0.0
16.56,-5,-4,8,1,1,-1,-1,-2,0.0
16.565,2,7,0,-2,0,0,0,1,0.0
16.57,-2,-1,3,-2,-1,-1,-1,-2,0.0
16.575,-1,-38,-6,1,-4,0,-1,-2,0.0
16.580000000000002,2,3,3,-2,-2,-3,-2,-1,0.0
16.585,-2,-11,1,1,1,0,-1,0,0.0
16.59,-2,1,3,-2,1,-2,-3,-1,0.0
16.595,-1,7,2,-2,-2,-2,-1,-1,0.0
16.6,-3,-12,2,2,-2,-2,-1,-2,0.0
16.605,2,-1,-2,-2,-4,-2,-2,1,0.0
16.61,0,0,5,2,0,-1,-1,-1,0.0
16.615000000000002,-3,2,2,-4,-1,0,-3,-1,0.0
16.62,0,55,-11,-2,0,-1,-1,0,0.0
16.625,-2,-1,4,-2,-3,3,1,-1,0.0
16.63,1,15,-1,1,-2,-3,-3,-1,0.0
16.635,-2,14,-2,-2,0,1,0,0,0.0
16.64,-1,-20,-1,-1,0,1,1,-1,0.0
16.645,-2,-11,1,2,-2,-3,-2,1,0.0
16.65,-2,-21,-7,-2,1,2,0,-5,0.0
16.655,0,0,2,-2,-2,-2,-2,0,0.0
16.66,0,-10,2,-1,-2,-2,-3,-1,0.0
16.665,0,-1,-3,-2,1,-1,0,-3,0.0
16.67,0,-6,-1,-1,-6,-2,-2,1,0.0
16.675,0,15,11,2,3,1,1,1,0.0
16.68,-4,3,5,1,-2,-1,-3,-2,0.0
16.685,-1,16,0,-5,-2,-3,-2,0,0.0
16.69,-2,-13,-3,-2,-2,-2,-3,-4,0.0
16.695,-2,-2,-1,-1,-1,-3,0,-3,0.0
16.7,8,-1,-9,-1,0,-1,0,1,0.0
16.705000000000002,-2,-36,2,5,0,-1,-2,-3,0.0
16.71,3,59,-3,-3,-2,0,1,7,0.0
16.715,0,-5,-4,-1,-3,-3,-1,-2,0.0
16.72,-2,-26,4,1,-4,0,-1,-1,0.0
16.725,0,0,-2,-2,-1,-3,-3,-1,0.0
16.73,0,-17,0,1,-1,1,0,-1,0.0
16.735,-2,-5,-4,-2,-1,-2,-3,0,0.0
16.740000000000002,-4,-4,1,-1,-2,0,1,0,0.0
16.745,3,3,-2,-2,-1,-1,-1,1,0.0
16.75,0,-3,4,-2,-2,0,-1,-1,0.0
16.755,-1,10,-2,-3,-2,-1,-4,0,0.0
16.76,-5,-22,3,1,2,2,0,-3,0.0
16.765,3,15,-2,-2,-1,-2,-3,2,0.0
16.77,0,-13,-3,-2,2,-2,0,-4,0.0
16.775,1,-5,1,3,-1,-2,-1,-1,0.0
16.78,-3,-8,-1,-2,-2,-1,-4,-2,0.0
16.785,-3,-1,0,1,-3,0,-1,-4,0.0
16.79,-3,-4,-3,-3,-2,-3,-2,-3,0.0
16.795,-3,-2,0,-2,0,-2,-1,2,0.0
16.8,0,6,10,1,4,-1,-2,3,0.0
16.805,-1,27,-17,-5,-2,-1,-1,0,0.0
16.81,-4,-14,-1,-2,-3,-2,-1,-3,0.0
16.815,0,-5,-2,-1,-2,-1,-1,-1,0.0
16.82,1,4,1,-3,-1,-1,-1,0,0.0
16.825,0,-14,2,1,-1,-1,1,0,0.0
16.830000000000002,-2,-4,-3,-2,1,1,0,-1,0.0
16.835,-2,-3,-4,-2,-1,-1,-1,-2,0.0
16.84,-3,-4,-5,-2,-4,-2,-2,4,0.0
16.845,0,-11,4,1,-1,-1,0,-3,0.0
16.85,0,-9,-8,0,-1,-1,-1,-1,0.0
16.855,-2,-5,-1,-1,-1,-1,-2,-4,0.0
16.86,0,0,-7,-5,-2,-2,0,0,0.0
16.865000000000002,-4,-4,1,3,-1,-1,0,0,0.0
16.87,-2,-13,3,-1,-1,-2,1,-2,0.0
16.875,-2,-1,-7,-3,-3,0,-3,0,0.0
16.88,-1,4,-3,-2,-3,-3,-1,-3,0.0
16.885,-1,-2,-1,-1,-1,0,-3,-1,0.0
16.89,0,-10,2,0,-4,-2,-2,0,0.0
16.895,-2,4,2,0,-1,-1,-1,-3,0.0
16.9,0,-5,-1,-1,0,-1,1,-1,0.0
16.905,-2,-9,3,0,-3,-3,-1,-2,0.0
16.91,-1,2,-2,-3,1,-1,-2,-3,0.0
16.915,-1,-5,-1,1,-1,-1,-1,-4,0.0
16.92,3,3,-3,-1,-4,-2,-2,-1,0.0
16.925,-2,-3,-2,-2,1,-1,1,-2,0.0
16.93,0,-3,6,1,0,-2,-3,-2,0.0
16.935,2,33,-1,-4,-6,-3,-3,0,0.0
16.94,-4,-20,-10,1,-2,1,-1,-2,0.0
16.945,0,-4,-2,-7,-3,-1,0,1,0.0
16.95,-5,-10,2,-1,-3,-2,-2,-1,0.0
16.955000000000002,1,4,-3,-2,0,-1,0,-1,0.0
16.96,0,1,-1,3,1,-1,-2,-1,0.0
16.965,0,1,0,-1,-3,-3,-4,-3,0.0
16.97,2,17,2,0,1,0,-1,-4,0.0
16.975,2,-6,-3,-2,-4,-5,-3,1,0.0
16.98,-1,-12,3,-2,1,-1,0,-2,0.0
16.985,-1,0,3,-1,-4,0,-1,-1,0.0
16.990000000000002,-4,2,2,-3,-1,-1,-1,-3,0.0
16.995,1,-9,-1,0,0,-1,0,7,0.0
17.0,2,0,4,-1,-2,-1,-2,-2,0.0
17.005,1,3,-1,1,-2,-4,-3,-1,0.0
17.01,1,16,-11,-6,-1,-1,1,0,0.0
17.015,-3,-14,-1,0,2,1,0,-1,0.0
17.02,-2,19,1,0,1,-1,0,2,0.0
17.025,2,16,-4,-3,4,-2,-3,-1,0.0
17.03,-5,-12,5,4,2,-2,-2,-3,0.0
17.035,2,35,-17,0,1,1,1,-4,0.0
17.04,-1,12,5,-1,-3,-3,-2,-1,0.0
17.045,-3,-6,4,3,1,0,0,-3,0.0
17.05,0,-2,-1,-8,-4,-1,-3,2,0.0
17.055,-2,-20,13,0,-1,-1,0,-2,0.0
17.06,0,1,-5,-1,0,-2,0,-4,0.0
17.065,0,34,-3,-6,-2,-1,2,-2,0.0
17.07,-2,-6,-8,3,1,2,0,2,0.0
17.075,-3,-11,13,12,0,0,1,-1,0.0
17.080000000000002,1,-2,-12,-30,-4,-3,-2,-3,0.0
17.085,0,-25,-4,-5,-3,-1,-3,0,0.0
17.09,2,10,-2,-2,-4,-1,-1,1,0.0
17.095,0,-7,-4,0,-2,-1,-1,-2,0.0
17.1,-2,-3,12,5,-2,-4,-4,0,0.0
17.105,7,-7,-26,-3,-1,-1,1,3,0.0
17.11,-1,-10,0,2,-3,-1,-1,-3,0.0
17.115000000000002,-1,-3,5,-2,-2,-3,-4,1,0.0
17.12,0,-15,2,1,-2,-2,0,1,0.0
17.125,-2,-37,5,0,-3,-2,-2,1,0.0
17.13,1,4,4,4,-4,-2,-1,0,0.0
17.135,0,-2,-2,-5,-1,0,-1,-2,0.0
17.14,3,-5,-6,7,1,0,-1,-2,0.0
17.145,-4,7,17,1,0,-1,-2,-2,0.0
17.150000000000002,-1,2,-6,-14,-5,-2,-1,-3,0.0
17.155,-2,-31,0,-24,-5,-2,-1,-6,0.0
17.16,-1,29,-1,-1,0,-1,1,0,0.0
17.165,1,-16,13,11,3,1,-1,-1,0.0
17.17,-4,2,2,2,-4,-3,-3,-3,0.0
17.175,-1,1,2,3,-1,-1,-2,3,0.0
17.18,-2,4,0,4,-2,-3,-2,-1,0.0
17.185,-5,1,6,3,-3,1,2,-4,0.0
17.19,4,11,6,0,-1,-3,-1,5,0.0
17.195,7,31,-33,-6,2,0,1,0,0.0
17.2,-5,-25,3,0,-4,0,-2,1,0.0
17.205000000000002,-4,-6,-1,-5,-5,-4,-2,-4,0.0
17.21,12,-51,-14,-4,0,1,0,2,0.0
17.215,-6,-20,7,6,-2,-3,-3,-3,0.0
17.22,-1,6,-2,0,-1,1,-2,1,0.0
17.225,-4,-26,-8,-6,-1,-1,-1,0,0.0
17.23,-5,0,2,1,-2,2,-1,-5,0.0
17.235,1,-17,-10,1,0,1,0,1,0.0
17.240000000000002,-1,-11,-12,-2,-4,0,2,-3,0.0
17.245,-1,9,3,3,-1,-1,-4,-2,0.0
17.25,-2,18,-4,0,1,-1,-2,-1,0.0
17.255,-8,7,10,4,5,3,2,-3,0.0
17.26,-3,42,-1,-4,0,-3,-4,-1,0.0
17.265,-1,9,-5,1,1,1,0,-2,0.0
17.27,-6,-23,5,-4,-2,-4,-1,-2,0.0
17.275000000000002,2,-10,4,-1,-1,-2,-2,0,0.0
17.28,1,-37,-2,8,-1,-2,1,1,0.0
17.285,3,25,-5,-12,0,0,1,-1,0.0
17.29,-9,8,-11,-8,-1,1,-2,-4,0.0
17.295,3,-23,0,0,-3,-2,-1,2,0.0
17.3,2,-12,1,-9,-1,-2,-1,-3,0.0
17.305,0,0,2,0,-3,-2,-3,1,0.0
17.31,-2,15,6,9,0,-1,-2,0,0.0
17.315,-3,4,-4,-6,-3,-2,0,-1,0.0
17.32,2,0,-1,-6,-2,2,-3,2,0.0
17.325,1,-8,2,9,3,0,2,0,0.0
17.330000000000002,-1,2,8,5,0,0,0,-2,0.0
17.335,-2,8,-6,-5,0,-2,-2,-3,0.0
17.34,-1,-12,6,-5,-2,0,-4,-1,0.0
17.345,0,5,-3,24,2,-1,0,-1,0.0
17.35,2,1,-8,2,0,0,1,-1,0.0
17.355,-3,6,8,5,-3,-2,-3,1,0.0
17.36,-5,-11,-11,-52,-7,-6,-2,-5,0.0
17.365000000000002,0,-4,-5,-24,-7,-1,-3,1,0.0
17.37,3,14,26,43,7,2,3,2,0.0
17.375,-2,6,-10,24,0,1,-2,-1,0.0
17.38,-2,0,12,27,3,3,0,2,0.0
17.385,-2,-20,-24,-60,-11,-9,-5,-2,0.0
17.39,-4,-25,14,15,1,-1,0,3,0.0
17.395,-2,4,2,5,-1,-1,-3,-10,0.0
17.400000000000002,3,1,33,61,9,3,2,2,0.0
17.405,0,-5,-10,4,-3,1,-1,3,0.0
17.41,-5,-14,-49,-12,-8,-5,-3,-7,0.0
17.415,-3,-31,-38,-113,-31,-17,-7,-4,0.0
17.42,2,4,-14,24,1,1,0,-1,0.0
17.425,-2,-3,24,73,9,3,-1,2,0.0
17.43,-3,13,11,-3,-2,-1,-1,-6,0.0
17.435,0,2,6,-7,7,4,3,2,0.0
17.44,-1,5,-8,-14,-2,-2,-2,-4,0.0
17.445,3,24,23,36,7,2,2,1,0.0
17.45,1,0,-32,-17,-6,-5,-5,0,0.0
17.455000000000002,2,-5,-27,-31,-1,1,0,-3,0.0
17.46,1,-37,11,6,-2,-2,2,2,0.0
17.465,4,7,6,-4,2,3,-2,2,0.0
17.47,-11,-6,12,33,-1,-1,-4,-7,0.0
17.475,4,18,-13,-60,-11,-4,-1,2,0.0
17.48,1,6,-5,-8,-2,-2,-5,0,0.0
17.485,-8,-11,-23,2,2,-3,1,-8,0.0
17.490000000000002,3,0,9,10,0,0,1,4,0.0
17.495,-2,-10,20,50,8,2,0,0,0.0
17.5,-2,4,-1,8,0,2,1,-2,0.0
17.505,-4,0,-12,-21,-6,-4,-3,-2,0.0
17.51,9,1,34,19,6,4,0,6,0.0
17.515,-1,-34,-43,2,-2,-2,-2,0,0.0
17.52,-4,-6,14,-15,-6,-5,-1,-3,0.0
17.525000000000002,5,0,-5,-21,-10,-3,-1,0,0.0
17.53,2,-1,-5,-8,2,0,0,0,0.0
17.535,4,14,43,70,7,1,1,1,0.0
17.54,0,-4,-26,-19,-4,-1,-3,-1,0.0
17.545,-5,-11,-6,-30,-10,-2,-3,-4,0.0
17.55,0,14,6,14,3,3,0,-2,0.0
17.555,-3,-18,31,19,1,-1,2,-5,0.0
17.56,9,84,-38,-16,0,-3,-2,2,0.0
17.565,2,-19,7,3,-7,-1,0,3,0.0
17.57,0,3,-18,-34,-6,-6,-5,-2,0.0
17.575,-6,-22,17,25,3,0,-1,-1,0.0
17.580000000000002,-4,-40,-9,-3,2,1,3,-2,0.0
17.585,-4,28,9,12,4,2,2,-5,0.0
17.59,1,8,-1,-8,-5,-4,-1,-1,0.0
17.595,1,-17,-38,-56,-8,-4,-2,1,0.0
17.6,-1,-11,18,16,4,1,1,3,0.0
17.605,-1,-8,4,6,2,-2,2,-3,0.0
17.61,-4,-8,-11,-6,1,-1,2,0,0.0
17.615000000000002,-2,26,3,15,2,0,-1,0,0.0
17.62,-6,-10,5,-3,-2,0,-2,-3,0.0
17.625,-1,0,0,2,3,0,-3,0,0.0
17.63,-4,5,-11,-3,-2,-1,0,-2,0.0
17.635,-1,14,26,2,-1,-1,0,-2,0.0
17.64,0,5,0,2,-1,-2,-3,1,0.0
17.645,-4,-14,-25,-3,-6,-2,-3,-1,0.0
17.650000000000002,1,1,2,-5,1,2,1,-2,0.0
17.655,-6,4,-7,16,1,0,-1,-1,0.0
17.66,0,-15,4,-1,-5,-1,1,0,0.0
17.665,-5,-13,11,-2,5,-2,0,-6,0.0
17.67,-5,-15,2,-11,-3,-2,-3,-5,0.0
17.675,0,25,-9,3,4,0,1,-3,0.0
17.68,6,-63,-20,-1,-5,3,3,3,0.0
17.685,0,16,7,-3,-5,-3,-2,2,0.0
17.69,2,7,-4,-11,-3,-4,-3,-3,0.0
17.695,0,-3,10,9,0,0,-1,-1,0.0
17.7,-4,9,4,10,3,-3,-2,-1,0.0
17.705000000000002,1,-6,-5,-7,-3,-2,1,0,0.0
17.71,0,-29,-11,-17,-4,-4,-2,-3,0.0
17.715,0,10,14,4,-1,-2,0,-2,0.0
17.72,-4,11,4,-3,0,-2,-1,-4,0.0
17.725,-1,9,-3,-3,-4,-1,-1,0,0.0
17.73,-1,22,3,-5,-6,-5,-3,2,0.0
17.735,-1,2,-9,6,-1,-1,-4,0,0.0
17.740000000000002,-1,28,-1,-15,-7,-5,-3,-5,0.0
17.745,3,-7,-3,2,2,1,-1,2,0.0
17.75,-5,-27,4,-3,-1,0,-2,2,0.0
17.755,-5,23,21,7,2,0,1,-2,0.0
17.76,-7,8,16,1,-1,-3,-6,-4,0.0
17.765,-3,-4,-2,1,0,0,-1,-2,0.0
17.77,4,2,3,-1,-2,-2,0,2,0.0
17.775000000000002,-2,-17,0,2,-2,-2,-1,0,0.0
17.78,0,0,4,-1,0,0,3,-1,0.0
17.785,0,-22,-5,-2,2,-3,-2,-2,0.0
17.79,-5,-5,1,2,-1,1,-1,1,0.0
17.795,4,-2,-2,-2,-4,-1,-4,3,0.0
17.8,2,-14,-5,0,3,-1,-3,-1,0.0
17.805,-1,7,-2,2,-3,-1,2,0,0.0
17.81,1,26,-20,-2,0,0,0,-1,0.0
17.815,0,-2,6,-5,-5,-4,-2,-3,0.0
17.82,1,-7,-7,-3,-1,0,-2,1,0.0
17.825,-2,-18,-10,6,-1,0,-2,1,0.0
17.830000000000002,7,-24,-2,-9,-4,0,0,3,0.0
17.835,-1,3,0,-3,-1,1,1,-1,0.0
17.84,0,-1,0,0,-2,0,-2,-2,0.0
17.845,1,-10,10,0,0,2,-1,-1,0.0
17.85,-1,15,4,-3,-1,-1,-1,-6,0.0
17.855,0,-1,-6,-1,0,1,1,-2,0.0
17.86,1,-6,-1,-4,-4,-3,-1,1,0.0
17.865000000000002,-3,34,6,-2,3,-1,-2,-3,0.0
17.87,2,-37,-23,3,0,2,1,1,0.0
17.875,1,-3,-3,1,-1,-3,-3,-2,0.0
17.88,-3,6,1,3,0,0,-1,0,0.0
17.885,6,5,-5,-4,-1,0,-1,0,0.0
17.89,-7,12,8,-1,-3,-1,-3,-1,0.0
17.895,-1,-14,0,1,-1,1,0,2,0.0
17.900000000000002,0,-8,-15,-4,-3,-3,-1,3,0.0
17.905,-4,-16,2,-4,-2,-2,0,-1,0.0
17.91,0,-7,10,-1,1,-3,0,0,0.0
17.915,13,66,-25,-4,-2,1,1,3,0.0
17.92,-5,-8,10,4,-1,-2,-2,-3,0.0
17.925,3,-23,4,-5,-4,-2,-1,2,0.0
17.93,-6,11,0,-5,0,0,0,-2,0.0
17.935,-3,-18,7,3,2,1,-2,-2,0.0
17.94,-2,2,-7,0,0,0,-1,-4,0.0
17.945,2,8,-15,-3,-1,-3,-3,-3,0.0
17.95,-3,-1,5,6,-1,0,-1,1,0.0
17.955000000000002,-2,-26,-3,-2,-3,-1,-1,1,0.0
17.96,-1,-13,-2,-5,-3,0,1,0,0.0
17.965,-5,-1,2,-2,-1,-1,0,-2,0.0
17.97,-3,9,1,2,2,0,-1,-3,0.0
17.975,-3,-9,-4,-2,-1,-2,0,-2,0.0
17.98,0,7,3,2,-1,-2,-2,-3,0.0
17.985,-4,6,-3,-6,-1,0,0,-2,0.0
17.990000000000002,-1,4,0,-1,1,0,2,-1,0.0
17.995,-6,-5,2,-2,-2,-4,-3,-1,0.0
18.0,4,3,-8,-2,2,2,2,0,0.0
18.005,-3,9,9,1,-2,-2,-2,-3,0.0
18.01,1,46,3,-1,2,2,4,-1,0.0
18.015,-1,-3,-6,-7,-6,-2,-3,-1,0.0
18.02,-7,6,4,4,-3,-2,-1,-3,0.0
18.025000000000002,0,-27,-2,0,-2,-2,-4,1,0.0
18.03,-3,-11,3,-3,-3,-2,-1,0,0.0
18.035,-3,0,15,5,3,1,0,0,0.0
18.04,0,16,-2,-5,0,-2,-3,-1,0.0
18.045,0,7,-1,-1,-1,1,0,-1,0.0
18.05,0,-7,-3,-1,-2,0,-2,0,0.0
18.055,-1,-11,-2,1,-1,0,0,0,0.0
18.06,0,-10,3,-4,0,-2,-2,2,0.0
18.065,-2,-6,-7,-2,-5,-3,-2,-1,0.0
18.07,0,-33,-11,6,0,1,-2,0,0.0
18.075,-2,-7,-8,-5,-2,-4,-2,-7,0.0
18.080000000000002,1,1,8,2,-1,-1,0,0,0.0
18.085,-2,0,-4,-5,4,2,3,-2,0.0
18.09,1,-2,0,0,-1,-3,-3,-3,0.0
18.095,-4,6,0,-1,-2,1,-1,1,0.0
18.1,-7,-4,4,-2,-3,-1,0,-5,0.0
18.105,3,33,-8,-3,-3,-4,-2,-2,0.0
18.11,3,-9,4,-2,-3,-4,-4,1,0.0
18.115000000000002,-4,-6,5,4,2,0,-2,-2,0.0
18.12,0,-19,-1,-4,-1,-2,-1,0,0.0
18.125,1,2,4,2,-2,-4,-1,-1,0.0
18.13,0,-36,-17,-6,-4,1,4,-1,0.0
18.135,-2,12,-2,-1,-4,-3,-2,-3,0.0
18.14,-1,12,-3,0,-5,-1,-2,2,0.0
18.145,5,-12,-1,-2,0,0,1,-1,0.0
18.150000000000002,-2,9,0,-2,-1,-2,-1,0,0.0
18.155,0,-12,-2,-1,0,-2,0,0,0.0
