timestamp,ch1,ch2,ch3,ch4,ch5,ch6,ch7,ch8,noise
0.005,-6,-6,25,7,-4,-3,-4,-3,0.0
0.01,-2,-3,10,-50,-3,-1,-2,-1,0.0
0.015,-3,-2,15,16,-1,0,1,-2,0.0
0.02,-3,-4,-12,8,9,1,-1,-1,0.0
0.025,1,5,7,-16,-16,-1,1,3,0.0
0.03,-3,0,0,23,-2,-1,0,-2,0.0
0.035,-1,-3,2,-29,4,0,-1,-4,0.0
0.04,-2,-3,-11,-2,0,-4,-3,0,0.0
0.045,-9,-26,-26,-31,-11,1,2,-2,0.0
0.05,-1,4,-5,0,18,0,-1,-1,0.0
0.055,2,1,9,-1,-18,0,-1,2,0.0
0.06,-1,3,12,23,5,-3,-2,-3,0.0
0.065,1,5,-4,-19,9,0,-2,-1,0.0
0.07,0,0,11,30,0,-5,-2,-3,0.0
0.075,-1,0,-1,-5,9,-1,-1,-3,0.0
0.08,2,8,11,91,56,17,5,4,0.0
0.085,2,-3,-42,-89,-48,-11,-4,0,0.0
0.09,2,5,25,13,4,5,2,0,0.0
0.095,0,-14,-34,1,-8,-4,0,0,0.0
0.1,-1,-3,-26,-5,-2,-5,-4,-2,0.0
0.105,3,10,31,66,29,4,1,-1,0.0
0.11,-6,-16,-24,-65,-27,-9,-7,-6,0.0
0.115,1,3,8,-19,10,1,0,0,0.0
0.12,-2,-4,6,-20,-21,-6,-3,-2,0.0
0.125,0,2,11,47,8,-2,-1,0,0.0
0.13,1,-1,2,6,-1,4,2,3,0.0
0.135,0,5,-4,14,7,4,2,2,0.0
0.14,-1,-3,6,-35,-14,-1,-1,-2,0.0
0.145,0,-7,-5,-13,-19,-9,-2,-3,0.0
0.15,-2,0,-4,-2,-5,2,3,-1,0.0
0.155,0,0,-1,0,16,10,2,-1,0.0
0.16,0,-1,-5,3,9,7,8,2,0.0
0.165,0,0,-4,2,9,-4,-2,0,0.0
0.17,-2,-4,-2,-2,-9,-4,-1,-3,0.0
0.17500000000000002,-3,-2,-4,-6,-17,-10,-8,0,0.0
0.18,-1,1,1,-1,0,-13,-24,-7,0.0
0.185,2,2,16,7,5,7,10,0,0.0
0.19,1,-5,-26,-9,-1,-5,-1,-1,0.0
0.195,4,4,35,16,14,9,10,8,0.0
0.2,-3,-10,-25,5,-2,-2,-5,-19,0.0
0.20500000000000002,-1,2,31,10,-4,-4,-6,-1,0.0
0.21,-1,1,-11,-26,-4,-1,-4,-2,0.0
0.215,0,-2,11,-2,-7,-4,0,-1,0.0
0.22,2,2,15,7,-2,-2,2,6,0.0
0.225,0,-1,-14,9,3,2,-2,-3,0.0
0.23,0,0,24,10,4,2,-2,-5,0.0
0.23500000000000001,-3,-4,-35,-12,-3,-3,-2,-3,0.0
0.24,-2,-3,-1,-13,-3,0,2,2,0.0
0.245,-2,1,-12,-5,1,1,-1,0,0.0
0.25,-1,2,6,3,0,1,3,2,0.0
0.255,-1,0,31,4,0,-3,-3,-3,0.0
0.26,-6,-9,-44,-10,-5,-3,-1,-1,0.0
0.265,-2,-2,3,-11,0,2,3,1,0.0
0.27,-4,-1,30,9,1,-3,-5,-1,0.0
0.275,-3,0,3,2,-3,-1,-2,-1,0.0
0.28,-1,4,57,-1,-6,-2,0,0,0.0
0.28500000000000003,-3,-1,-21,-1,1,-1,0,-1,0.0
0.29,2,-3,-28,-15,1,-2,0,0,0.0
0.295,-5,-11,-51,-14,-7,-7,-3,-4,0.0
0.3,-2,2,4,-2,-2,1,3,3,0.0
0.305,-3,-4,-24,-1,-5,-3,-4,-1,0.0
0.31,-3,-2,-7,19,3,-2,-2,-2,0.0
0.315,1,4,4,6,14,5,1,1,0.0
0.32,1,-1,-1,-24,-14,-3,2,2,0.0
0.325,-1,-3,-5,-9,0,-1,-3,-3,0.0
0.33,2,1,2,11,-1,-1,-2,0,0.0
0.335,-2,-4,-5,-34,-9,-6,-4,-3,0.0
0.34,1,3,-10,9,3,-4,-4,0,0.0
0.34500000000000003,-2,-5,-5,29,-8,3,-1,-1,0.0
0.35000000000000003,-1,-2,0,-9,39,10,4,2,0.0
0.355,-1,3,-1,17,6,3,-1,-2,0.0
0.36,1,0,-7,-12,-7,-3,-1,-2,0.0
0.365,4,10,12,-42,-42,-11,-3,-2,0.0
0.37,-3,-3,-10,31,-9,-6,-3,-3,0.0
0.375,0,-2,0,-3,-33,2,3,-2,0.0
0.38,-11,-17,-41,-97,38,14,8,-3,0.0
0.385,5,16,36,102,104,7,-6,-4,0.0
0.39,1,9,-9,-63,-86,-21,-7,-12,0.0
0.395,-8,-28,-12,46,77,1,-7,17,0.0
0.4,3,-3,14,-72,-127,-17,-1,-12,0.0
0.405,13,-12,-8,90,104,45,6,18,0.0
0.41000000000000003,7,6,4,-72,58,22,1,8,0.0
0.41500000000000004,-29,0,-5,-13,-105,2,19,-17,0.0
0.42,5,4,3,9,45,0,4,6,0.0
0.425,-4,-17,3,-10,-92,-27,-6,-14,0.0
0.43,-9,9,-9,-33,-50,-22,-13,-1,0.0
0.435,-7,-6,-17,-44,-39,-25,-26,-15,0.0
0.44,4,7,48,30,-15,-2,0,5,0.0
0.445,-8,-8,-93,-38,-13,-1,1,-2,0.0
0.45,-3,-15,24,42,42,14,8,-14,0.0
0.455,10,14,63,24,30,5,8,38,0.0
0.46,-8,-3,-32,-22,5,1,-7,-15,0.0
0.465,-3,1,57,-42,-23,-13,-6,0,0.0
0.47000000000000003,-7,-9,-14,20,-6,7,5,-2,0.0
0.47500000000000003,3,11,26,73,26,2,-5,-13,0.0
0.48,5,5,-13,-11,18,-1,0,7,0.0
0.485,-1,6,-9,-118,-67,-10,-2,3,0.0
0.49,-8,-6,4,105,44,7,0,-2,0.0
0.495,13,10,-12,-59,20,7,0,-2,0.0
0.5,0,-11,-22,58,28,3,-3,7,0.0
0.505,-3,13,13,-5,16,-1,-1,-8,0.0
0.51,4,2,-11,-20,-31,-10,-2,4,0.0
0.515,6,-3,-18,-51,-24,-10,-5,-4,0.0
0.52,-1,3,-16,46,3,4,4,-3,0.0
0.525,-2,-1,3,4,-6,0,5,-3,0.0
0.53,3,5,30,4,2,-2,2,-3,0.0
0.535,-3,-17,-100,-30,-25,-15,-14,20,0.0
0.54,1,11,16,51,2,0,-11,-32,0.0
0.545,-7,-4,19,-32,-3,-2,1,13,0.0
0.55,3,-2,11,28,12,9,8,2,0.0
0.555,0,2,31,1,0,5,7,-8,0.0
0.56,17,31,116,92,36,10,8,17,0.0
0.5650000000000001,-17,-44,-107,-9,-9,-12,-11,-18,0.0
0.5700000000000001,-3,-6,24,-89,-26,-13,-5,5,0.0
0.5750000000000001,-2,0,46,-7,-10,-8,-7,-24,0.0
0.58,-4,-2,24,31,-2,-2,-3,9,0.0
0.585,13,22,55,34,31,15,9,2,0.0
0.59,-8,-16,-32,-2,-26,-10,-7,-2,0.0
0.595,0,-3,-3,-17,-1,-2,-2,-5,0.0
0.6,1,-3,-10,8,-1,0,1,-1,0.0
0.605,1,3,-3,8,-11,-2,0,-4,0.0
0.61,0,-5,-3,0,-7,-5,-5,3,0.0
0.615,4,2,12,40,8,2,3,0,0.0
0.62,-6,-13,-20,-36,7,1,-1,-1,0.0
0.625,-11,-16,-55,-42,-16,-10,-8,3,0.0
0.63,1,4,19,10,2,2,-3,1,0.0
0.635,4,7,18,32,15,4,2,-2,0.0
0.64,0,-1,-9,-29,-12,-1,0,1,0.0
0.645,5,15,52,23,5,1,2,0,0.0
0.65,14,11,-33,18,15,7,8,15,0.0
0.655,-20,-21,-28,-31,-16,-11,-5,-14,0.0
0.66,-16,-16,-15,-56,-22,-9,-9,-26,0.0
0.665,1,3,6,2,11,5,0,-5,0.0
0.67,1,2,8,31,2,0,3,-1,0.0
0.675,8,6,-1,6,13,5,7,17,0.0
0.68,-1,-7,-15,-1,-7,-2,-1,7,0.0
0.685,-3,-1,29,22,-6,-2,0,-2,0.0
0.6900000000000001,-9,-9,-42,-40,-7,-3,-5,-9,0.0
0.6950000000000001,-4,-2,-25,16,9,3,-1,-1,0.0
0.7000000000000001,-4,-8,13,-4,-13,-5,-3,16,0.0
0.705,-21,-1,3,-3,-1,-2,-4,-21,0.0
0.71,1,0,12,20,3,0,-1,2,0.0
0.715,1,4,-2,-29,1,3,1,-2,0.0
0.72,-1,-1,2,9,-2,-3,0,2,0.0
0.725,7,3,-9,19,1,0,3,12,0.0
0.73,-8,-8,-5,-8,-6,-5,-5,-9,0.0
0.735,-2,1,3,13,0,-1,-3,-8,0.0
0.74,-2,2,-9,3,6,3,2,0,0.0
0.745,5,-7,9,-4,-6,-5,-4,2,0.0
0.75,0,6,3,-1,0,0,-1,-3,0.0
0.755,5,-4,-17,32,7,1,1,3,0.0
0.76,-4,-6,-16,-60,-6,-4,-4,-3,0.0
0.765,0,-4,-8,0,-2,-2,-3,0,0.0
0.77,-1,-1,3,-4,-7,-3,-2,3,0.0
0.775,0,0,31,-1,5,4,1,1,0.0
0.78,-3,-4,-13,48,4,1,2,-4,0.0
0.785,-2,-3,-23,-11,-3,-2,-2,0,0.0
0.79,-2,0,9,-27,-2,0,-2,-3,0.0
0.795,-3,-3,7,-1,-2,-1,-3,-2,0.0
0.8,0,-4,-10,4,-1,-2,-1,0,0.0
0.805,6,0,8,1,-1,-2,1,4,0.0
0.81,0,-2,3,20,0,0,0,-1,0.0
0.8150000000000001,-2,-3,-12,-11,-1,-2,-3,-1,0.0
0.8200000000000001,0,1,1,-13,-8,-3,-2,-1,0.0
0.8250000000000001,-1,1,-3,-24,-2,0,-2,1,0.0
0.8300000000000001,-2,1,4,5,0,-2,-2,-4,0.0
0.835,-5,-5,-5,3,-3,-3,-1,-3,0.0
0.84,-2,5,2,-2,4,1,-1,-1,0.0
0.845,0,8,31,15,3,4,2,-1,0.0
0.85,-12,-20,-51,-19,-10,-6,-8,-8,0.0
0.855,1,3,10,-17,-1,1,0,0,0.0
0.86,-5,-9,-46,-47,-16,-7,-5,-5,0.0
0.865,-1,4,21,25,1,0,0,1,0.0
0.87,2,8,21,5,4,2,3,2,0.0
0.875,-1,-1,0,16,0,-2,1,-3,0.0
0.88,-1,-3,8,30,4,0,1,-2,0.0
0.885,7,19,77,8,9,6,5,2,0.0
0.89,-8,-22,-82,-7,-12,-10,-8,-2,0.0
0.895,-5,-10,-19,-70,-11,-8,-8,-3,0.0
0.9,3,8,40,10,6,2,3,2,0.0
0.905,0,-5,-11,3,-1,0,-2,-2,0.0
0.91,6,16,52,38,14,8,7,-3,0.0
0.915,2,2,1,10,-2,0,-2,5,0.0
0.92,-4,-12,-36,-10,-3,-4,-3,-7,0.0
0.925,0,-5,-16,4,-2,-1,0,1,0.0
0.93,0,1,14,1,-1,-2,-3,-1,0.0
0.935,-3,-5,-15,-8,-3,-4,0,-2,0.0
0.9400000000000001,-1,2,8,5,1,1,-2,2,0.0
0.9450000000000001,-3,-8,-25,-2,-5,-2,-3,-1,0.0
0.9500000000000001,1,0,14,-7,-2,2,3,-7,0.0
0.9550000000000001,3,5,2,28,1,1,0,10,0.0
0.96,3,2,13,-47,1,-3,-6,6,0.0
0.965,-8,-9,-37,-26,-8,-6,-4,-18,0.0
0.97,7,2,-2,1,2,-1,-3,-8,0.0
0.975,5,4,18,21,3,0,7,3,0.0
0.98,-1,0,2,21,2,-1,-2,2,0.0
0.985,-1,-3,0,-1,-1,-4,-4,4,0.0
0.99,-2,-4,-3,-11,-4,-2,-2,-2,0.0
0.995,-5,-5,-17,-17,-6,0,-1,-7,0.0
1.0,6,0,-1,8,-1,1,5,6,0.0
1.0050000000000001,1,-2,-5,-7,1,-1,0,11,0.0
1.01,-5,4,21,19,2,0,-6,-15,0.0
1.0150000000000001,0,5,-2,-2,0,-1,-2,5,0.0
1.02,-2,-2,0,1,-3,-4,0,-3,0.0
1.025,0,1,-12,-3,1,3,5,-2,0.0
1.03,-4,-4,4,-13,-3,-3,-2,17,0.0
1.035,-5,0,13,-16,-4,-3,-6,-23,0.0
1.04,-3,-3,-28,-1,0,0,1,-3,0.0
1.045,2,-2,3,17,-1,-1,0,-2,0.0
1.05,17,1,13,3,3,0,3,19,0.0
1.055,-6,-7,12,13,-4,-3,-3,1,0.0
1.06,-1,-8,-52,-6,-2,0,0,-5,0.0
1.065,-3,-1,-4,-14,-3,-1,-1,-6,0.0
1.07,4,-3,1,4,-3,-2,-3,15,0.0
1.075,-1,7,13,14,5,1,2,19,0.0
1.08,1,4,20,12,2,0,-6,-16,0.0
1.085,-2,-3,-4,8,-2,-1,0,-4,0.0
1.09,-2,4,-3,-22,0,-1,3,2,0.0
1.095,5,4,13,26,5,4,2,1,0.0
1.1,-18,-23,-49,-96,-22,-13,-9,-6,0.0
1.105,0,3,-19,13,0,0,1,5,0.0
1.11,13,2,15,16,-1,1,0,-1,0.0
1.115,-11,-1,8,12,0,-1,-5,-6,0.0
1.12,-39,11,40,30,4,1,1,-1,0.0
1.125,12,-10,-14,-8,-3,-2,0,2,0.0
1.1300000000000001,-14,-1,-4,-10,-2,-3,-8,1,0.0
1.135,7,-3,-16,-11,-1,-1,0,-33,0.0
1.1400000000000001,9,4,20,18,2,2,4,3,0.0
1.145,-15,-4,-14,-10,-5,-5,-8,-14,0.0
1.1500000000000001,1,5,11,4,1,2,5,6,0.0
1.155,6,9,-7,-2,0,2,-1,4,0.0
1.16,27,8,62,57,10,5,5,2,0.0
1.165,-22,-32,-24,-57,-13,-9,-6,-4,0.0
1.17,4,2,-1,-16,-3,-1,-1,2,0.0
1.175,-10,-11,-3,7,-3,-3,-5,-6,0.0
1.18,14,15,-2,-13,4,4,3,13,0.0
1.185,6,11,28,33,7,4,0,5,0.0
1.19,-11,-17,36,38,5,4,2,-8,0.0
1.195,0,-9,-71,-31,-5,-2,2,6,0.0
1.2,-8,-15,-26,5,-13,-8,-9,-3,0.0
1.205,5,3,-3,39,2,-2,-3,0,0.0
1.21,-12,-3,-20,-19,-6,-6,-4,-8,0.0
1.215,4,6,44,50,10,6,4,2,0.0
1.22,6,-2,-10,-23,2,0,0,12,0.0
1.225,-9,-1,20,42,-3,-2,-6,-42,0.0
1.23,-3,-10,-35,-25,-11,-6,0,3,0.0
1.235,-4,-8,-7,-27,-8,-5,-5,1,0.0
1.24,-20,-8,-4,-6,-2,-1,-2,-6,0.0
1.245,6,12,43,17,4,3,6,17,0.0
1.25,-1,2,-9,-35,1,0,-1,2,0.0
1.2550000000000001,1,6,4,-8,0,-1,-1,-2,0.0
1.26,-1,1,-7,3,-5,-5,-2,-5,0.0
1.2650000000000001,3,11,6,-10,3,2,2,9,0.0
1.27,-2,-1,-6,14,2,-1,-4,-8,0.0
1.2750000000000001,0,-8,-9,-9,-2,-1,-3,4,0.0
1.28,7,6,9,-10,2,2,0,-3,0.0
1.285,0,-3,-26,-16,-1,-2,-1,5,0.0
1.29,-1,2,-2,-2,-1,-1,-3,-10,0.0
1.295,3,11,30,5,-2,-1,1,2,0.0
1.3,3,2,6,21,2,0,-1,7,0.0
1.305,-3,-9,-16,-19,-5,-4,-4,-13,0.0
1.31,-4,-7,3,0,1,0,2,12,0.0
1.315,-1,-3,9,5,2,0,-1,1,0.0
1.32,2,-4,-3,4,0,0,2,-3,0.0
1.325,2,0,10,-9,-3,-1,-2,5,0.0
1.33,0,8,-1,29,5,0,-1,-5,0.0
1.335,-6,-11,-18,-21,-9,-5,-6,-4,0.0
1.34,-2,-2,-2,2,0,-3,-2,1,0.0
1.345,-6,1,-5,-2,-1,-2,-3,8,0.0
1.35,16,0,3,13,1,-1,-3,-2,0.0
1.355,-4,2,-10,2,-1,-1,0,4,0.0
1.36,2,-1,-5,1,-2,0,-3,-12,0.0
1.365,-4,-9,-6,-11,-2,-1,2,4,0.0
1.37,1,-1,-9,-4,-3,-2,0,0,0.0
1.375,0,-1,0,-8,-2,-2,-2,-3,0.0
1.3800000000000001,-3,0,6,7,0,-1,-2,11,0.0
1.385,-1,1,-7,-4,0,1,1,-1,0.0
1.3900000000000001,-4,3,8,11,1,-2,-3,-3,0.0
1.395,4,-9,-37,-34,-5,-3,-5,-6,0.0
1.4000000000000001,-5,-9,2,22,0,-2,-3,-7,0.0
1.405,3,0,-7,-5,-1,0,0,-1,0.0
1.41,-7,-1,1,-8,-1,-1,1,-4,0.0
1.415,-2,3,19,23,2,0,2,3,0.0
1.42,3,-3,-3,-3,0,-1,1,-1,0.0
1.425,-2,-1,-10,-13,-2,-3,-3,1,0.0
1.43,-4,-2,2,5,-2,0,-1,-8,0.0
1.435,-2,-1,7,-1,-1,0,0,1,0.0
1.44,-1,-1,-7,-6,-2,-2,-1,-5,0.0
1.445,-1,-2,4,2,-1,-3,-3,-4,0.0
1.45,-4,2,-6,-8,-1,0,-2,-5,0.0
1.455,-3,-3,-5,2,0,-2,-2,0,0.0
1.46,-1,1,15,1,1,0,0,-2,0.0
1.465,1,0,-9,4,1,-2,-2,-1,0.0
1.47,-1,-4,-13,-24,-7,-1,-3,0,0.0
1.475,0,0,6,3,-1,-1,-2,1,0.0
1.48,1,0,-3,-16,-3,-1,-1,-4,0.0
1.485,3,5,17,9,1,1,2,2,0.0
1.49,0,2,-3,0,-2,-3,-1,-3,0.0
1.495,-3,-5,4,-5,-3,-3,0,-4,0.0
1.5,-2,1,2,6,1,-1,-2,-2,0.0
1.5050000000000001,0,-3,-2,-5,-1,-2,-1,-2,0.0
1.51,-5,-5,1,-2,-2,0,-2,-1,0.0
1.5150000000000001,0,-2,1,2,-1,-2,0,0,0.0
1.52,0,1,-2,0,-1,-1,-1,-1,0.0
1.5250000000000001,-2,-2,1,-6,-5,-2,-2,-1,0.0
1.53,0,1,1,3,0,-3,-2,-2,0.0
1.5350000000000001,0,0,3,0,-2,0,-1,0,0.0
1.54,-2,-1,-1,0,-3,0,-1,-1,0.0
1.545,-2,4,2,-1,-4,-2,0,-1,0.0
1.55,-4,-2,1,-2,0,-1,-2,-3,0.0
1.555,0,0,9,3,0,-1,0,-1,0.0
1.56,0,1,8,1,-2,-1,-1,-1,0.0
1.565,-1,-1,-9,-1,-1,-2,-1,-2,0.0
1.57,-1,-1,0,-20,0,-1,-1,0,0.0
1.575,-3,-2,0,2,-1,-2,-2,-1,0.0
1.58,1,0,-2,6,2,1,0,-3,0.0
1.585,1,1,5,2,-1,0,0,0,0.0
1.59,2,9,30,27,4,1,2,1,0.0
1.595,2,-5,-63,-4,3,1,1,0,0.0
1.6,-8,-12,-21,-25,-10,-8,-6,-2,0.0
1.605,-2,-1,8,2,0,-2,-6,-4,0.0
1.61,0,-1,-10,-5,-3,-1,0,1,0.0
1.615,1,5,27,23,2,0,0,0,0.0
1.62,2,1,7,23,3,1,1,0,0.0
1.625,-2,-5,-32,-33,-4,-4,-1,-1,0.0
1.6300000000000001,-4,-6,11,19,-1,-1,1,-1,0.0
1.635,-2,0,7,-9,-2,0,-1,-2,0.0
1.6400000000000001,-3,-3,-24,-11,-2,0,0,-3,0.0
1.645,-3,-5,8,5,0,0,-2,-1,0.0
1.6500000000000001,-1,-2,-2,-2,-1,-2,-1,-1,0.0
1.655,-1,-2,-4,-4,-3,-2,-2,-3,0.0
1.6600000000000001,1,0,-2,-5,-4,-2,-1,-2,0.0
1.665,-1,-2,9,10,1,1,1,-1,0.0
1.67,0,0,-15,-9,-3,-2,-2,-1,0.0
1.675,0,0,3,-2,-2,-2,-2,-1,0.0
1.68,0,-2,6,4,1,1,0,-1,0.0
1.685,-2,-2,-3,-1,-2,0,0,0,0.0
1.69,0,-2,-6,-2,-3,-1,0,-1,0.0
1.695,0,0,-4,-7,-4,-2,-1,-2,0.0
1.7,-2,0,-1,0,-1,1,2,1,0.0
1.705,1,5,19,20,3,-1,1,0,0.0
1.71,0,-1,-34,-40,-4,-2,0,-2,0.0
1.715,-3,-4,5,5,-2,-3,-5,-1,0.0
1.72,-1,3,1,3,-3,-1,-2,-5,0.0
1.725,-3,-3,-2,5,1,-1,-1,-2,0.0
1.73,-1,0,10,11,0,-2,-2,0,0.0
1.735,-1,0,-4,-1,-1,-3,0,1,0.0
1.74,1,-4,-2,-8,0,-2,-1,1,0.0
1.745,0,-2,1,-3,-1,2,-1,0,0.0
1.75,-3,-3,-3,6,-2,0,-2,-1,0.0
1.7550000000000001,-1,-3,-2,-8,0,0,0,-3,0.0
1.76,1,-3,2,3,0,-2,-2,-1,0.0
1.7650000000000001,1,3,8,0,0,-1,0,-1,0.0
1.77,-1,-2,-14,-4,-4,-4,-2,-3,0.0
1.7750000000000001,-2,2,2,-13,-4,-1,-1,1,0.0
1.78,-1,2,1,6,0,-2,0,-2,0.0
1.7850000000000001,1,-2,-13,-17,-1,-2,-2,0,0.0
1.79,-4,-6,14,-19,-4,-4,-3,-4,0.0
1.795,0,0,6,7,1,-1,-2,-2,0.0
1.8,-1,0,-2,1,0,-2,-2,0,0.0
1.805,-4,-1,-10,2,-4,-2,0,-1,0.0
1.81,0,2,10,12,1,-2,-2,-1,0.0
1.815,-3,-6,-14,-9,-5,-2,0,-1,0.0
1.82,-1,3,-8,-3,0,-1,0,0,0.0
1.825,-2,-7,-8,-4,-2,-1,0,-2,0.0
1.83,-3,-3,0,3,-1,1,0,-2,0.0
1.835,0,4,7,3,2,-2,0,0,0.0
1.84,-3,-7,-16,-4,-4,-2,-2,-1,0.0
1.845,0,2,3,-5,-2,-3,-1,0,0.0
1.85,0,-1,0,7,-1,-1,-1,1,0.0
1.855,-1,-2,-7,-7,-1,1,-2,-3,0.0
1.86,-1,-1,7,-6,0,-1,-1,0,0.0
1.865,-2,-2,-2,-4,-2,-2,-2,-1,0.0
1.87,-1,-1,-2,0,1,-3,0,1,0.0
1.875,0,-1,6,7,0,-2,-1,-1,0.0
1.8800000000000001,-3,-4,-2,-5,-3,-1,0,-1,0.0
1.885,-1,-3,0,0,-1,0,-2,-1,0.0
1.8900000000000001,0,-1,-2,4,0,-1,0,-1,0.0
1.895,-2,0,-3,-2,-3,-1,0,-2,0.0
1.9000000000000001,-1,0,-1,-10,-3,-1,1,-1,0.0
1.905,-2,0,0,4,0,0,-2,-2,0.0
1.9100000000000001,-2,-2,-4,3,1,0,-1,-2,0.0
1.915,-1,-1,0,0,-1,-2,0,1,0.0
1.92,0,0,5,2,-1,-2,-2,-1,0.0
1.925,-2,-1,1,0,-1,0,-2,1,0.0
1.93,-1,0,-2,-5,-1,0,-2,-1,0.0
1.935,0,1,-6,0,-1,0,-1,-1,0.0
1.94,2,1,13,8,2,1,0,1,0.0
1.945,-4,-6,-3,-4,-3,-2,-3,-4,0.0
1.95,0,-4,7,2,-1,0,1,-1,0.0
1.955,-1,0,4,0,-2,-2,0,-1,0.0
1.96,-2,1,1,-9,-1,0,-2,-1,0.0
1.965,0,0,-32,0,-1,0,0,0,0.0
1.97,-4,-6,-21,-32,-6,-4,-4,-3,0.0
1.975,-1,-1,12,2,1,0,-1,0,0.0
1.98,-1,-2,1,-2,-1,1,-1,-2,0.0
1.985,-2,0,1,-4,-1,-2,-1,1,0.0
1.99,0,0,-9,10,-1,1,-1,2,0.0
1.995,-2,-4,1,2,-2,0,-2,0,0.0
2.0,0,0,-5,-1,-1,-2,-3,-2,0.0
2.005,1,1,10,-1,-2,-1,0,0,0.0
2.0100000000000002,-2,-3,-19,1,-1,-1,-1,-3,0.0
2.015,-2,-3,5,-3,-2,-2,-3,-2,0.0
2.02,2,6,2,6,1,2,-1,-1,0.0
2.025,-1,-4,1,3,-2,-2,-2,-2,0.0
2.0300000000000002,-1,-3,11,-12,-2,-2,-1,-3,0.0
2.035,0,0,-4,-1,1,2,0,-2,0.0
2.04,-2,-3,-8,1,-2,-2,1,-3,0.0
2.045,-1,1,1,3,1,-1,-2,0,0.0
2.05,0,3,0,0,-1,-1,0,-2,0.0
2.055,-2,-7,-16,2,-2,-4,-1,0,0.0
2.06,0,-1,-3,-2,-1,-1,-2,0,0.0
2.065,-1,0,6,-5,-3,-1,-1,-2,0.0
2.07,-1,-3,-6,3,1,1,-1,-1,0.0
2.075,-1,2,0,-5,-1,0,0,-1,0.0
2.08,-3,-4,7,5,0,-1,0,-1,0.0
2.085,-3,-4,-28,-4,-2,-1,-3,-1,0.0
2.09,-1,0,5,3,0,-1,-2,0,0.0
2.095,-1,0,-2,9,-1,-2,0,-1,0.0
2.1,-5,-7,-54,-33,-4,-1,-1,-3,0.0
2.105,0,0,33,21,0,0,-1,-2,0.0
2.11,0,-3,-5,15,-2,-1,0,-1,0.0
2.115,0,0,19,-3,1,-1,-2,1,0.0
2.12,0,-2,19,4,-1,-2,-1,1,0.0
2.125,0,3,-11,-11,-1,-2,-1,-2,0.0
2.13,0,4,0,11,2,0,-1,-2,0.0
2.1350000000000002,-1,-1,1,-1,1,-1,0,-1,0.0
2.14,0,-1,-14,-1,2,-1,-1,0,0.0
2.145,-2,-3,45,9,-3,-3,-2,-2,0.0
2.15,1,1,14,-6,-1,0,0,1,0.0
2.1550000000000002,-1,0,-12,-3,-3,0,0,0,0.0
2.16,-2,-2,6,-3,-1,-4,-1,-2,0.0
2.165,-1,-2,-11,-9,-1,-1,1,0,0.0
2.17,-2,0,7,-2,-1,-1,-1,-1,0.0
2.1750000000000003,-1,-2,-4,-9,-2,-1,-1,0,0.0
2.18,0,3,19,13,-1,0,-1,0,0.0
2.185,0,1,-6,0,-2,-2,-2,0,0.0
2.19,-2,-1,-7,-7,-3,0,-1,0,0.0
2.195,2,3,1,5,2,2,2,0,0.0
2.2,-2,-4,2,2,-2,-2,-1,-1,0.0
2.205,0,-1,-7,-10,-3,-2,-1,-2,0.0
2.21,-1,1,0,5,0,-2,-3,0,0.0
2.215,-1,-2,-3,4,-3,-4,-4,-2,0.0
2.22,0,-1,6,-16,-4,-2,-1,0,0.0
2.225,0,-3,-12,-7,0,-1,-2,-1,0.0
2.23,0,-1,3,1,1,0,-1,-2,0.0
2.235,-4,-6,-8,3,-1,-1,-4,-2,0.0
2.24,1,1,25,26,1,0,1,0,0.0
2.245,-4,-8,-50,-48,-7,0,0,-1,0.0
2.25,-1,-2,5,0,0,1,1,0,0.0
2.255,-2,0,11,7,-1,-2,-1,-2,0.0
2.2600000000000002,-1,-1,-15,-30,-2,-1,-1,0,0.0
2.265,-1,5,20,18,0,0,0,0,0.0
2.27,-1,-2,17,-3,-4,-2,-1,-3,0.0
2.275,-2,1,-10,-7,1,0,-1,-2,0.0
2.2800000000000002,-2,-3,3,16,-2,-2,-1,-1,0.0
2.285,0,-1,-1,16,1,-2,1,0,0.0
2.29,-2,-1,-14,-21,-11,-3,-3,-2,0.0
2.295,0,0,7,-3,1,0,-1,0,0.0
2.3000000000000003,-2,-2,-11,3,-1,-2,-2,-2,0.0
2.305,-1,-1,3,0,1,-1,-2,-2,0.0
2.31,1,-1,-8,6,2,-1,-1,-2,0.0
2.315,-1,-2,0,2,-2,-2,0,-3,0.0
2.32,0,0,4,0,0,-1,0,-2,0.0
2.325,0,-2,0,2,0,0,-1,0,0.0
2.33,0,0,-2,1,0,-1,0,0,0.0
2.335,1,-2,-13,-10,-2,0,0,1,0.0
2.34,-4,-4,3,-12,-4,-3,-2,-2,0.0
2.345,-3,-4,-17,-2,-1,-2,0,-2,0.0
2.35,0,-2,-5,-1,1,-1,0,-1,0.0
2.355,-1,0,5,-4,-1,-2,-3,-2,0.0
2.36,0,1,-4,5,0,1,-1,-1,0.0
2.365,-1,0,2,-4,-1,-2,-3,0,0.0
2.37,-2,-3,7,-2,-1,-1,-2,-1,0.0
2.375,1,-3,-30,-9,-1,1,-1,1,0.0
2.38,-2,1,15,7,0,-2,0,2,0.0
2.3850000000000002,0,2,12,-2,1,0,0,-1,0.0
2.39,-3,-1,-9,8,0,-2,-1,-1,0.0
2.395,0,-2,14,-8,-3,-2,0,-1,0.0
2.4,0,0,-8,2,0,0,1,-1,0.0
2.4050000000000002,-2,-3,-2,-7,-1,-1,-1,-2,0.0
2.41,-2,-2,0,-3,1,-2,-1,-2,0.0
2.415,-1,4,18,9,-1,-1,-1,0,0.0
2.42,1,3,-7,26,4,1,0,-1,0.0
2.4250000000000003,-6,-14,-45,-63,-13,-8,-6,-6,0.0
2.43,0,-2,13,15,1,1,-1,0,0.0
2.435,-3,-1,1,-1,-3,-1,1,0,0.0
2.44,3,5,3,12,4,3,1,1,0.0
2.445,2,8,23,30,6,2,0,1,0.0
2.45,-1,-4,12,1,-3,-2,-1,-1,0.0
2.455,1,-1,-45,-36,-4,-3,0,-2,0.0
2.46,0,0,49,53,2,-1,1,0,0.0
2.465,-3,-6,5,2,-1,-4,0,-4,0.0
2.47,-5,-13,-92,-56,-10,-5,-4,-4,0.0
2.475,-3,-4,21,-24,-5,-2,-2,-1,0.0
2.48,-7,-11,3,-25,-7,-5,-4,-6,0.0
2.485,3,3,19,17,4,0,0,1,0.0
2.49,2,7,42,64,9,4,1,3,0.0
2.495,0,1,-13,-21,3,-1,-2,0,0.0
2.5,-1,-4,-39,-17,-1,-2,-1,-3,0.0
2.505,2,6,15,-41,-35,-2,0,4,0.0
2.5100000000000002,-1,-3,13,-3,2,0,0,0,0.0
2.515,-7,-11,-15,-11,-6,-3,-5,-5,0.0
2.52,-1,0,-12,15,6,-1,-2,-1,0.0
2.525,-3,0,9,26,13,1,-1,-1,0.0
2.5300000000000002,2,5,25,5,1,1,1,0,0.0
2.535,1,0,6,22,-2,1,-1,0,0.0
2.54,0,2,-9,0,1,-1,0,-3,0.0
2.545,-2,0,-5,20,-8,-3,0,0,0.0
2.5500000000000003,-1,1,-6,-16,-3,-3,-1,-1,0.0
2.555,1,2,16,35,10,2,1,0,0.0
2.56,-1,-3,-15,-28,-5,-1,-1,0,0.0
2.565,0,0,-8,-2,6,1,-1,-2,0.0
2.57,-2,-6,-22,-17,-3,-1,-1,-2,0.0
2.575,0,-1,-7,-1,-3,-2,-1,-2,0.0
2.58,-1,1,23,-4,0,1,-1,0,0.0
2.585,-1,-2,-6,-4,0,-1,0,0,0.0
2.59,-2,1,-15,-4,0,-2,-1,-1,0.0
2.595,-4,-11,4,68,-2,-4,-2,-1,0.0
2.6,-1,-4,29,-35,-8,-4,-2,-3,0.0
2.605,-7,-14,-66,-40,1,-1,-4,-5,0.0
2.61,-2,-1,-36,-35,-4,-4,-4,-3,0.0
2.615,2,8,21,18,3,3,0,1,0.0
2.62,2,4,23,29,-1,-1,0,2,0.0
2.625,0,-2,-10,-23,2,-2,0,1,0.0
2.63,-1,-2,7,-2,-3,-1,-2,-1,0.0
2.6350000000000002,-3,-4,-20,-20,1,-2,-2,-3,0.0
2.64,0,-3,-27,-7,-2,0,1,-1,0.0
2.645,1,4,51,29,5,1,1,0,0.0
2.65,0,-2,-8,-16,-3,-1,0,1,0.0
2.6550000000000002,1,2,25,-26,-2,1,-1,0,0.0
2.66,-6,-10,-52,-39,-8,-6,-4,-3,0.0
2.665,2,2,25,20,2,1,0,0,0.0
2.67,-1,-2,30,16,1,-2,1,-1,0.0
2.6750000000000003,2,6,14,10,0,0,1,1,0.0
2.68,-5,-9,-8,-30,-6,-3,-4,-2,0.0
2.685,1,4,2,0,3,-1,-2,-1,0.0
2.69,-1,4,20,15,2,-1,-1,-2,0.0
2.695,-2,1,4,6,0,0,1,-2,0.0
2.7,3,3,-16,19,1,0,-1,1,0.0
2.705,-3,-8,10,16,0,-1,-4,-2,0.0
2.71,1,1,21,-10,-2,0,-2,-1,0.0
2.715,-2,-1,-5,12,-2,-1,0,0,0.0
2.72,-1,1,4,-34,-3,-1,-1,-1,0.0
2.725,-1,-2,-6,8,-1,-1,-1,0,0.0
2.73,2,1,-3,16,1,-1,0,0,0.0
2.735,-3,-5,-8,-11,-2,-3,1,-1,0.0
2.74,1,3,25,23,4,0,0,-1,0.0
2.745,-3,-4,-26,-42,-5,-3,-3,-1,0.0
2.75,0,2,-5,-4,-3,0,-2,0,0.0
2.755,-4,-8,-32,-58,-8,-4,-4,-3,0.0
2.7600000000000002,3,5,17,44,4,0,2,-1,0.0
2.765,1,4,-7,-3,1,0,2,1,0.0
2.77,-3,-2,9,17,0,-1,-2,-1,0.0
2.775,3,7,7,13,2,1,1,0,0.0
2.7800000000000002,-1,0,49,57,4,3,0,-9,0.0
2.785,-6,-5,-51,-15,-7,-5,-4,3,0.0
2.79,-1,-2,14,0,1,1,-2,-1,0.0
2.795,0,5,-2,7,-1,0,-1,-10,0.0
2.8000000000000003,1,0,-2,-8,-1,-2,-1,12,0.0
2.805,1,-2,10,18,4,0,2,-3,0.0
2.81,-1,-3,-1,-3,-2,-3,-1,-1,0.0
2.815,-3,-6,-7,4,-1,-3,-3,-4,0.0
2.82,-2,-3,-25,-24,-4,-2,-4,2,0.0
2.825,0,3,3,11,-2,0,-2,-4,0.0
2.83,-5,-9,-10,-23,-6,-3,-5,0,0.0
2.835,-3,-2,20,4,-2,-1,-1,0,0.0
2.84,0,-2,-39,-18,-2,0,-1,-2,0.0
2.845,3,-1,-13,22,1,2,2,0,0.0
2.85,-5,1,29,-8,-3,-5,-5,-2,0.0
2.855,-2,-4,-13,-5,-1,-1,-1,-12,0.0
2.86,-1,-3,-10,-6,-1,0,2,-3,0.0
2.865,4,3,0,1,1,2,2,1,0.0
2.87,-1,-1,-5,7,-3,-4,-1,28,0.0
2.875,-5,-5,-14,-14,-2,-1,-3,-3,0.0
2.88,3,5,-1,13,1,-1,-1,1,0.0
2.8850000000000002,-9,-15,65,17,-5,-5,-6,-13,0.0
2.89,0,3,20,-8,-2,0,-2,-15,0.0
2.895,-1,-3,-14,20,0,0,1,7,0.0
2.9,1,5,-2,-6,-3,-1,1,11,0.0
2.9050000000000002,1,3,-6,9,0,0,-2,-4,0.0
2.91,2,2,-13,10,0,1,2,0,0.0
2.915,-2,0,27,12,0,-3,-1,2,0.0
2.92,1,-2,-5,-16,0,-1,-1,-8,0.0
2.9250000000000003,-4,-3,-19,-17,-2,-2,-1,2,0.0
2.93,1,-3,-21,0,-1,-1,-2,-3,0.0
2.935,4,5,-6,-8,-2,-1,0,1,0.0
2.94,-9,-8,-6,-9,-2,-1,-5,-19,0.0
2.945,4,2,6,-7,1,2,4,18,0.0
2.95,0,-3,-17,1,0,-1,2,-7,0.0
2.955,-1,0,4,-4,0,0,-1,2,0.0
2.96,-4,-7,-15,-12,-3,-1,-3,-4,0.0
2.965,-4,2,-3,-7,-2,-3,-2,-5,0.0
2.97,0,2,2,12,0,2,0,-3,0.0
2.975,-1,-4,-1,-7,-1,-2,-1,0,0.0
2.98,-2,-1,10,-4,-1,-2,0,2,0.0
2.985,2,4,8,4,1,0,0,-2,0.0
2.99,0,0,-50,-4,-1,-2,1,0,0.0
2.995,-4,-6,-13,-25,-3,-4,-2,0,0.0
3.0,0,1,-1,1,-2,-1,2,0,0.0
3.005,-4,-5,-7,2,-2,-2,-3,-3,0.0
3.0100000000000002,0,0,10,-1,1,-3,-2,-4,0.0
3.015,-1,1,8,5,-1,-2,-2,2,0.0
3.02,0,2,-8,-2,0,-2,-2,1,0.0
3.025,-3,-3,4,6,2,0,-2,-1,0.0
3.0300000000000002,-1,-2,7,0,-3,1,-1,-3,0.0
3.035,0,-1,6,-1,0,-1,-1,-1,0.0
3.04,1,3,17,47,2,-1,-2,1,0.0
3.045,-7,-16,-37,-6,-8,-5,-4,-6,0.0
3.0500000000000003,-1,-3,-8,-83,-7,-1,-2,-1,0.0
3.055,-3,-8,-13,3,-3,-1,-3,-3,0.0
3.06,-1,1,11,5,0,-1,-2,-1,0.0
3.065,1,2,26,19,3,2,-1,-1,0.0
3.0700000000000003,2,2,-11,33,3,0,0,-2,0.0
3.075,0,1,-7,-26,-2,1,-2,0,0.0
3.08,-1,-5,13,-11,0,-2,-2,-3,0.0
3.085,6,11,33,35,9,4,4,2,0.0
3.09,0,-1,-5,56,4,3,3,2,0.0
3.095,-13,-21,6,-41,-22,-12,-9,-9,0.0
3.1,-1,-1,9,11,0,0,-1,-4,0.0
3.105,-1,1,11,-10,-3,-2,-2,5,0.0
3.11,3,11,62,55,10,4,2,1,0.0
3.115,7,15,6,40,13,5,6,4,0.0
3.12,-11,-18,-29,-76,-15,-6,-7,-6,0.0
3.125,1,7,119,59,7,1,0,1,0.0
3.13,-8,-17,-98,-116,-15,-7,-6,-7,0.0
3.1350000000000002,1,0,103,89,3,2,2,2,0.0
3.14,-3,-4,-38,-86,-5,-3,-2,-7,0.0
3.145,0,7,0,27,2,1,2,-1,0.0
3.15,-2,2,-7,-3,-5,-4,-3,-3,0.0
3.1550000000000002,0,-3,-18,-10,2,-1,1,-11,0.0
3.16,3,4,-21,36,4,1,5,19,0.0
3.165,-7,-11,-44,-59,-11,-5,-4,-8,0.0
3.17,1,5,6,22,3,1,0,0,0.0
3.1750000000000003,0,6,-17,-15,-1,3,0,-3,0.0
3.18,-2,-2,11,15,1,0,0,-4,0.0
3.185,0,0,-39,-31,-2,-3,-2,2,0.0
3.19,0,-5,14,15,-3,-1,-2,-1,0.0
3.1950000000000003,0,9,-1,-13,-2,-3,-2,0,0.0
3.2,11,19,50,55,6,3,4,10,0.0
3.205,-10,-19,-85,-58,-10,-8,-5,-8,0.0
3.21,7,-3,1,6,-1,-2,-4,-3,0.0
3.215,-1,1,-3,-3,-1,1,0,4,0.0
3.22,-2,-5,-1,7,0,0,-2,-5,0.0
3.225,0,9,7,7,-1,0,-2,3,0.0
3.23,10,4,19,7,1,0,-1,-3,0.0
3.235,-4,-4,-22,-8,-2,-1,-1,2,0.0
3.24,0,4,-6,-15,0,-1,0,0,0.0
3.245,1,-2,6,-1,-1,0,0,-1,0.0
3.25,-8,-2,-1,-3,-1,-1,0,-3,0.0
3.255,2,0,1,10,2,1,-1,1,0.0
3.2600000000000002,-4,-6,0,-4,-2,-2,-2,-6,0.0
3.265,-3,-1,-9,-9,-2,-4,-1,-2,0.0
3.27,-8,-10,-9,5,-2,-3,-1,-3,0.0
3.275,-1,0,-7,-10,-1,0,0,2,0.0
3.2800000000000002,-2,-3,2,0,-3,-1,-1,-2,0.0
3.285,-1,-4,-8,-3,-2,-1,-3,-4,0.0
3.29,-2,6,12,9,1,0,1,2,0.0
3.295,1,0,-10,-5,0,-2,-2,-1,0.0
3.3000000000000003,-4,1,-2,-4,-3,-3,-1,-1,0.0
3.305,1,1,10,8,-1,-2,-1,0,0.0
3.31,-5,-3,6,-6,-1,0,-1,-2,0.0
3.315,-2,-2,-4,-5,0,0,0,-1,0.0
3.3200000000000003,-2,-3,-7,-3,-2,-1,-1,-3,0.0
3.325,-2,-1,2,0,-2,0,0,-1,0.0
3.33,-1,-1,0,-2,-4,-1,0,-1,0.0
3.335,0,1,-2,-4,-1,-1,-2,0,0.0
3.34,-1,0,-1,2,0,0,0,-1,0.0
3.345,0,-1,6,0,0,-1,-2,-2,0.0
3.35,-1,-1,-4,3,5,-1,-3,-1,0.0
3.355,0,-5,-7,-3,-8,-3,1,1,0.0
3.36,-2,-2,4,-3,2,-2,-2,-3,0.0
3.365,-1,-5,-5,-8,-13,0,-1,0,0.0
3.37,-1,0,3,-3,-1,0,-2,0,0.0
3.375,0,2,2,4,3,-1,1,-3,0.0
3.38,0,-3,-4,2,2,-2,-1,-1,0.0
3.3850000000000002,1,1,2,3,3,-2,-1,0,0.0
3.39,-3,-2,3,3,0,-1,-1,0,0.0
3.395,0,0,-1,-6,0,-1,-1,0,0.0
3.4,-4,-3,-10,0,-3,-3,-1,-1,0.0
3.4050000000000002,-1,-2,1,1,2,0,-2,-1,0.0
3.41,0,0,-1,-7,-5,-4,-1,0,0.0
3.415,-2,0,-8,-3,0,-1,-1,-2,0.0
3.42,-1,0,3,-1,-2,-1,-2,-2,0.0
3.4250000000000003,-1,-2,-5,-2,0,-1,0,-1,0.0
3.43,-2,0,7,2,-2,1,0,-1,0.0
3.435,-2,-4,-4,0,-1,-1,-1,-1,0.0
3.44,0,-1,-4,-4,-2,0,-2,0,0.0
3.4450000000000003,-3,-3,-4,-2,-3,0,0,-1,0.0
3.45,-2,-2,1,-2,-1,-1,-1,0,0.0
3.455,-1,-2,0,8,1,0,-2,-2,0.0
3.46,0,1,3,0,-3,-1,-1,0,0.0
3.465,-1,1,3,-1,2,0,0,-1,0.0
3.47,1,1,-6,-3,-5,-1,-1,1,0.0
3.475,-1,-2,-6,-2,-1,0,0,-2,0.0
3.48,-6,-8,-2,0,-2,-2,-2,-2,0.0
3.485,1,4,-3,1,0,-1,-1,-3,0.0
3.49,-1,-3,0,2,1,1,-2,0,0.0
3.495,-2,-4,-4,-6,-2,0,1,-2,0.0
3.5,-3,0,-4,1,-1,0,-2,-1,0.0
3.505,0,-1,4,0,-2,-1,-2,-1,0.0
3.5100000000000002,-4,-1,1,1,-1,-1,1,-3,0.0
3.515,-1,-3,0,-3,0,-2,-2,-2,0.0
3.52,0,0,6,-1,0,0,1,-1,0.0
3.525,-1,-4,-1,-2,0,0,1,-1,0.0
3.5300000000000002,0,0,0,-4,-1,-2,-2,-1,0.0
3.535,1,-1,1,0,-3,-2,-1,1,0.0
3.54,-2,-1,-7,-2,-2,-2,-2,-1,0.0
3.545,-2,-1,-1,-3,-2,-2,-1,0,0.0
3.5500000000000003,0,-4,-9,-3,-2,-3,-3,-3,0.0
3.555,-1,-1,-7,-4,0,-3,-2,-1,0.0
3.56,0,0,5,0,-1,-1,1,-2,0.0
3.565,-1,-3,-1,2,-1,0,-2,-1,0.0
3.5700000000000003,0,0,1,0,-1,0,-1,-1,0.0
3.575,0,0,1,-8,-3,-1,-1,-2,0.0
3.58,-1,0,-3,0,-2,-2,-2,0,0.0
3.585,0,-1,-2,3,0,-1,-2,0,0.0
3.59,-2,-2,-2,-7,-5,-2,-1,0,0.0
3.595,-2,0,1,0,0,-1,-3,-2,0.0
3.6,0,-2,4,0,0,-2,-2,-3,0.0
3.605,1,2,9,1,-1,-2,0,-1,0.0
3.61,-1,-6,-13,-6,-3,-1,-2,-2,0.0
3.615,-1,-3,2,-1,-3,-2,0,1,0.0
3.62,0,-2,2,-2,0,-1,-1,0,0.0
3.625,-1,-4,-5,2,1,-1,-1,-2,0.0
3.63,1,4,4,2,0,-2,0,-1,0.0
3.6350000000000002,-1,0,0,3,0,-1,-1,-1,0.0
3.64,-2,-2,0,-5,-2,0,-2,-1,0.0
3.645,1,-1,-4,-1,1,0,-2,-2,0.0
3.65,0,0,1,-1,1,0,-2,0,0.0
3.6550000000000002,-3,-1,-2,-1,0,-1,-1,-2,0.0
3.66,1,-1,-3,1,-1,-1,-1,-3,0.0
3.665,-4,-4,-4,-5,-4,-3,-2,-1,0.0
3.67,-1,0,-3,0,-1,0,-1,-2,0.0
3.6750000000000003,0,3,3,4,-1,1,0,0,0.0
3.68,0,1,-1,-1,0,-1,-1,-1,0.0
3.685,-1,-6,-5,-4,-1,-2,-2,-3,0.0
3.69,0,0,2,8,2,-3,-3,-2,0.0
3.6950000000000003,-2,-3,-2,-7,-4,-1,0,-2,0.0
3.7,0,0,-3,1,-1,0,-1,0,0.0
3.705,-2,-1,0,-1,0,0,-2,-3,0.0
3.71,-1,-1,1,-3,-1,-1,0,-1,0.0
3.715,-2,0,-1,1,-2,-2,-1,0,0.0
3.72,-2,-2,-1,2,0,0,-2,0,0.0
3.725,-1,0,0,3,-2,-1,-2,-1,0.0
3.73,-1,-3,-3,-8,-1,-1,0,-1,0.0
3.735,-1,-1,-3,-5,-5,-1,-1,-3,0.0
3.74,-2,-2,-2,-2,0,-1,-1,-1,0.0
3.745,0,3,-8,0,0,0,-1,0,0.0
3.75,-3,-1,21,-1,-2,-1,-2,-1,0.0
3.755,2,-2,-6,-4,-1,-1,0,1,0.0
3.7600000000000002,0,2,2,2,0,-1,-2,-2,0.0
3.765,-3,-3,3,-2,-1,-2,-1,-1,0.0
3.77,-3,-3,-11,-3,-2,0,-2,-1,0.0
3.775,-2,-4,2,5,1,0,-1,-1,0.0
3.7800000000000002,0,-2,-5,-6,-4,-3,-2,-1,0.0
3.785,1,0,-3,-1,-1,-2,1,-1,0.0
3.79,-1,-3,-11,-9,0,1,0,1,0.0
3.795,-1,-3,-1,0,-1,-1,-3,-1,0.0
3.8000000000000003,0,-1,-1,6,1,-3,1,0,0.0
3.805,-2,-1,0,-7,-2,0,-2,-3,0.0
3.81,0,0,-1,-3,-4,-1,-1,-2,0.0
3.815,-2,0,1,3,-1,0,-1,-2,0.0
3.8200000000000003,-2,-3,-1,-4,0,0,1,-1,0.0
3.825,-2,-3,1,-4,-3,-2,-1,1,0.0
3.83,0,0,1,4,2,-2,-1,-2,0.0
3.835,0,0,-15,-8,-3,-3,1,-1,0.0
3.84,-1,-1,0,-2,-2,0,-1,-2,0.0
3.845,-1,0,0,-2,-1,1,-1,0,0.0
3.85,-1,-2,-3,2,0,0,0,-1,0.0
3.855,-1,1,4,-2,0,0,-3,-1,0.0
3.86,-2,0,3,-1,-1,-2,0,-2,0.0
3.865,1,-2,-1,-1,-2,0,-2,-2,0.0
3.87,0,-2,2,2,-1,0,-1,0,0.0
3.875,-3,-6,4,-1,-1,0,-3,0,0.0
3.88,-1,-1,1,-1,-1,1,-1,-1,0.0
3.8850000000000002,-2,-2,0,-1,-1,-1,-2,0,0.0
3.89,-2,-1,0,2,-1,-1,-4,-1,0.0
3.895,-1,-2,-3,-1,-2,-2,-2,-2,0.0
3.9,-2,-2,-3,-1,-1,-1,-2,0,0.0
3.9050000000000002,-2,-2,-3,2,-1,-2,-1,-3,0.0
3.91,-2,-1,-1,-14,-7,-2,-1,0,0.0
3.915,1,-1,0,2,0,0,-1,-1,0.0
3.92,0,0,0,0,-2,-1,-2,-1,0.0
3.9250000000000003,0,1,1,1,1,-2,0,0,0.0
3.93,0,2,-2,7,0,1,-1,0,0.0
3.935,-1,0,1,-2,0,0,-1,0,0.0
3.94,-3,-1,-1,-1,0,-1,-1,-1,0.0
3.9450000000000003,1,1,7,4,0,-2,0,-1,0.0
3.95,-1,-3,-3,4,1,-1,-1,-2,0.0
3.955,1,-1,-6,-4,0,-1,-2,1,0.0
3.96,-1,-1,1,-4,-1,-3,-2,-1,0.0
3.9650000000000003,-2,1,-2,-1,-1,-2,-2,0,0.0
3.97,-2,-2,-1,-9,-5,-3,2,0,0.0
3.975,-3,1,3,4,1,-1,-1,-1,0.0
3.98,0,-4,-5,-1,-1,-2,1,-1,0.0
3.985,0,3,-2,-1,0,-1,-2,-1,0.0
3.99,-2,-2,-6,-1,0,-1,0,-3,0.0
3.995,0,-1,2,-2,-1,-1,0,-1,0.0
4.0,0,-1,-2,-4,-2,-2,-1,0,0.0
4.005,-2,-3,-3,-4,-6,0,-1,-1,0.0
4.01,-1,-1,0,3,1,0,-2,1,0.0
4.015,-2,-2,-3,-3,-1,-1,0,0,0.0
4.0200000000000005,-1,1,2,1,2,-1,-1,0,0.0
4.025,1,-2,-9,-3,0,-3,1,0,0.0
4.03,-1,0,3,2,0,-1,-2,0,0.0
4.035,0,0,0,-1,-2,-1,-1,1,0.0
4.04,-1,1,-1,-2,-1,0,1,-2,0.0
4.045,-3,-3,-3,-3,-1,-1,0,-2,0.0
4.05,-1,-1,-5,0,2,-3,-2,0,0.0
4.055,0,0,-6,-2,1,-3,1,-2,0.0
4.0600000000000005,-2,-3,1,1,-2,0,-2,0,0.0
4.065,0,1,1,-2,0,0,-1,1,0.0
4.07,-1,0,0,-1,-1,0,-2,-3,0.0
4.075,-1,-2,1,-2,0,-1,-3,-2,0.0
4.08,0,-3,-1,-2,-1,0,-1,-1,0.0
4.085,0,-2,-2,-1,-1,0,0,-1,0.0
4.09,0,0,2,-1,-3,-3,0,0,0.0
4.095,-1,-1,-1,1,-1,0,-2,-1,0.0
4.1,0,-1,-3,-3,0,-1,-1,-2,0.0
4.105,-3,-4,-1,-1,-2,0,-1,-3,0.0
4.11,-2,-2,0,1,-1,3,-1,-1,0.0
4.115,-2,1,-1,-1,-2,-2,-1,-1,0.0
4.12,-1,2,0,1,-2,-1,-3,-2,0.0
4.125,-2,-2,-1,0,-2,-1,-2,0,0.0
4.13,-2,-2,-3,-1,1,-2,-1,-1,0.0
4.135,1,-4,-2,-1,-1,-2,-2,-1,0.0
4.14,-3,-4,-6,-3,-3,-2,-2,-1,0.0
4.1450000000000005,-1,-1,-4,-4,-2,-1,-2,0,0.0
4.15,-3,0,0,0,-2,-1,-1,0,0.0
4.155,-1,-1,0,0,-2,1,-1,-1,0.0
4.16,-1,-1,0,0,1,0,-1,0,0.0
4.165,-2,-2,1,0,-1,-2,-2,-1,0.0
4.17,-2,-2,-6,-1,-1,-2,-1,-1,0.0
4.175,-1,-3,-9,-7,-3,-3,0,-2,0.0
4.18,-1,1,2,-1,-1,-3,0,-1,0.0
4.1850000000000005,-1,-3,-6,-2,-1,0,-1,-2,0.0
4.19,3,0,1,-1,-1,-1,0,-1,0.0
4.195,-2,-2,1,1,-1,0,0,-2,0.0
4.2,-1,0,1,-1,-2,-1,1,-1,0.0
4.205,1,0,2,-1,1,1,-1,-1,0.0
4.21,-1,-2,-2,-1,1,-1,-3,-2,0.0
4.215,-1,-1,-3,-9,-1,-2,-2,-1,0.0
4.22,0,-2,2,1,-2,-1,-2,-1,0.0
4.225,0,-2,0,0,0,-1,-2,-2,0.0
4.23,0,0,-2,1,-1,-2,-1,-1,0.0
4.235,0,-1,6,5,1,-1,0,0,0.0
4.24,-1,-2,-2,-2,-1,-1,-2,-1,0.0
4.245,-1,-1,-7,-4,-2,-1,0,-1,0.0
4.25,-1,-2,6,2,-2,-1,0,0,0.0
4.255,1,4,1,1,-1,-1,-1,-1,0.0
4.26,-1,-1,1,-1,-1,0,-1,1,0.0
4.265,-1,2,-3,1,-1,-2,-1,-2,0.0
4.2700000000000005,0,-5,-1,-3,0,-2,0,0,0.0
4.275,1,-1,-1,1,-1,-3,-1,-1,0.0
4.28,-2,-1,-4,-8,-1,1,-1,-2,0.0
4.285,-1,-1,3,1,-1,-1,-1,-1,0.0
4.29,-2,-2,-2,-2,-1,0,0,-2,0.0
4.295,-4,-2,-1,0,-1,0,-1,-2,0.0
4.3,-1,2,-3,2,0,-2,-1,0,0.0
4.305,-1,-2,-1,-3,-1,-1,-1,0,0.0
4.3100000000000005,0,0,-3,-2,-1,-3,-2,0,0.0
4.315,-2,-3,-8,-2,-1,-2,-1,-2,0.0
4.32,0,-1,0,-1,-2,0,0,-1,0.0
4.325,-2,-1,0,0,-2,-1,-1,-1,0.0
4.33,0,-2,-7,-4,-2,-1,-1,-1,0.0
4.335,1,-1,2,-1,-1,0,-2,0,0.0
4.34,-2,-5,-2,0,-1,-4,-3,0,0.0
4.345,1,-2,-3,-2,-2,-2,-2,-2,0.0
4.3500000000000005,-1,0,-2,-2,-2,2,0,1,0.0
4.355,0,0,4,-2,0,1,-1,-1,0.0
4.36,-1,-3,0,-1,0,0,1,-2,0.0
4.365,-1,-2,-1,0,-1,-1,-1,-1,0.0
4.37,-2,-1,-1,-1,-2,-2,-2,-2,0.0
4.375,0,-3,-1,0,1,0,-2,3,0.0
4.38,-3,-2,-3,-1,-4,1,-3,-4,0.0
4.385,-5,-5,-4,-2,-2,-1,0,-1,0.0
4.39,-1,2,1,-2,-2,-2,0,-2,0.0
4.3950000000000005,-4,-2,-3,2,-1,-2,2,0,0.0
4.4,3,2,2,2,0,-3,-2,0,0.0
4.405,-1,0,2,-10,-5,-1,1,-1,0.0
4.41,-1,-2,-2,-2,0,1,0,-2,0.0
4.415,-2,-3,-4,0,-1,0,-2,-2,0.0
4.42,-3,-9,-7,0,-1,-1,-3,-1,0.0
4.425,1,-1,-7,-3,-2,-3,-1,-1,0.0
4.43,-1,-2,-1,0,0,-2,0,0,0.0
4.4350000000000005,-1,-1,2,1,0,1,-2,-2,0.0
4.44,0,1,-2,0,0,-3,-1,0,0.0
4.445,-1,0,2,1,-1,-1,-2,0,0.0
4.45,-1,-1,0,0,1,-2,-2,-1,0.0
4.455,-1,1,-1,0,-2,-2,0,-1,0.0
4.46,-3,0,0,-2,-1,-1,0,1,0.0
4.465,-1,1,-2,2,0,-1,0,-1,0.0
4.47,-2,1,2,0,-1,-2,-1,-1,0.0
4.4750000000000005,0,-4,0,-4,-1,-1,-2,-2,0.0
4.48,1,2,1,0,-3,-2,0,-1,0.0
4.485,-1,-2,-1,2,0,0,-1,-1,0.0
4.49,-1,-2,2,-2,-1,-2,-1,-2,0.0
4.495,-1,0,-1,1,-1,-1,-2,-2,0.0
4.5,-2,-5,-1,-6,-2,-3,-2,-4,0.0
4.505,-1,-1,2,2,0,0,-1,-1,0.0
4.51,-2,0,1,0,-1,-1,-1,0,0.0
4.515,-3,-2,2,0,-3,-1,-3,-1,0.0
4.5200000000000005,1,-1,-8,-3,-1,-1,0,0,0.0
4.525,-2,0,6,0,-2,-1,0,0,0.0
4.53,-1,-4,-5,-1,-1,-1,-2,-2,0.0
4.535,1,1,3,3,0,-4,0,1,0.0
4.54,0,-1,-1,2,0,1,-1,0,0.0
4.545,-1,0,0,-4,0,-1,-1,0,0.0
4.55,-1,-2,-3,1,-2,-1,0,-2,0.0
4.555,-4,0,-6,-11,-3,-2,-3,-2,0.0
4.5600000000000005,-1,0,1,3,0,0,0,-1,0.0
4.565,-1,-3,-1,1,-1,-1,0,-1,0.0
4.57,0,0,1,3,0,-1,-1,0,0.0
4.575,0,-1,1,0,-1,-1,-1,-2,0.0
4.58,-2,-2,-3,-4,0,-3,0,-1,0.0
4.585,-1,-2,-1,-3,-1,-3,-1,-1,0.0
4.59,-2,-5,-2,-3,-3,0,-2,0,0.0
4.595,0,1,3,-2,0,1,0,-2,0.0
4.6000000000000005,-2,-1,-11,-6,-4,-2,-2,-1,0.0
4.605,1,0,-2,1,0,0,-2,-1,0.0
4.61,3,-2,0,0,-1,-1,0,-2,0.0
4.615,-3,-1,-4,1,-1,-2,0,-1,0.0
4.62,-1,1,3,-1,-1,0,-1,1,0.0
4.625,-1,-1,-1,0,-1,-2,0,-2,0.0
4.63,0,1,-2,-4,-3,-2,-2,-1,0.0
4.635,0,-1,0,-1,-1,0,0,-2,0.0
4.64,-2,-2,3,-2,1,0,-2,-1,0.0
4.6450000000000005,-1,1,1,2,2,-3,-2,-2,0.0
4.65,-2,-3,-4,-10,-2,-1,-2,-2,0.0
4.655,-1,-2,-4,-1,-1,-2,1,-1,0.0
4.66,0,0,1,1,-1,-2,0,1,0.0
4.665,0,2,0,-1,0,0,-1,-1,0.0
4.67,-1,0,-1,4,0,-1,0,0,0.0
4.675,0,-1,-2,-1,-1,-1,-1,0,0.0
4.68,-2,-1,-1,-2,-2,-1,-3,-1,0.0
4.6850000000000005,-1,-3,-1,-1,-1,-2,0,-1,0.0
4.69,0,1,-2,-1,-2,-2,-1,-1,0.0
4.695,-1,-2,-2,-3,-1,-2,0,-2,0.0
4.7,1,-2,3,-1,-2,-1,-1,0,0.0
4.705,-1,-3,-1,-2,-1,-1,-1,-2,0.0
4.71,-3,0,-2,-1,-1,-1,0,-3,0.0
4.715,-1,0,1,-1,-2,-2,-3,-2,0.0
4.72,-1,0,-3,0,-1,-2,-1,-2,0.0
4.7250000000000005,-3,-2,-4,-6,-1,0,-2,-1,0.0
4.73,-2,0,0,-2,-1,0,0,0,0.0
4.735,-1,-1,1,0,-1,-1,-1,-1,0.0
4.74,0,-3,-2,0,-1,-1,-2,0,0.0
4.745,-1,0,-1,0,-2,-2,0,0,0.0
4.75,3,0,18,14,3,0,-2,-2,0.0
4.755,-4,-9,-66,-27,-4,-5,-4,-3,0.0
4.76,2,2,27,7,2,2,0,0,0.0
4.765,-6,-13,-43,-28,-7,-6,-4,-4,0.0
4.7700000000000005,-1,1,10,1,0,2,2,2,0.0
4.775,0,2,3,13,0,0,0,0,0.0
4.78,-1,3,7,9,0,0,3,0,0.0
4.785,0,4,28,28,4,2,0,-2,0.0
4.79,-2,-6,-31,16,-5,-4,-3,-1,0.0
4.795,-5,-8,-1,-82,-9,-4,-4,-3,0.0
4.8,-3,3,-2,7,0,0,3,-6,0.0
4.805,2,2,14,6,1,-2,-5,16,0.0
4.8100000000000005,1,6,59,44,6,1,0,0,0.0
4.815,7,9,46,69,9,6,6,4,0.0
4.82,-9,-24,-103,-73,-15,-7,-6,-10,0.0
4.825,0,-1,39,8,-7,-6,-4,2,0.0
4.83,-5,0,1,-18,3,2,2,-3,0.0
4.835,0,4,32,39,3,1,0,1,0.0
4.84,5,11,44,28,7,2,0,6,0.0
4.845,0,-1,-27,-5,2,3,6,-4,0.0
4.8500000000000005,7,-1,-12,-13,-25,-28,-27,8,0.0
4.855,-4,6,6,49,7,10,6,-10,0.0
4.86,-10,-14,-75,-55,16,20,16,-3,0.0
4.865,-5,-8,-27,-73,10,3,14,-6,0.0
4.87,3,11,83,73,7,4,10,-1,0.0
4.875,0,-4,-18,-53,-17,-14,-9,4,0.0
4.88,-2,-7,8,4,-23,-15,-18,-3,0.0
4.885,0,3,6,17,-2,-1,-3,-5,0.0
4.89,-1,-2,-18,-13,2,1,2,0,0.0
4.8950000000000005,2,2,16,7,1,0,-3,0,0.0
4.9,-1,2,14,26,4,-1,-1,0,0.0
4.905,-2,-2,-12,-16,-16,-9,-11,0,0.0
4.91,-2,-6,-19,-18,-12,-2,2,-3,0.0
4.915,-3,-7,-10,4,23,6,1,-3,0.0
4.92,2,2,9,-3,11,3,3,2,0.0
4.925,-1,-1,10,26,-3,-1,-4,-1,0.0
4.93,-6,-5,-23,-33,-11,-1,-3,-3,0.0
4.9350000000000005,-1,-5,-9,-12,-11,-7,-3,-1,0.0
4.94,-1,0,16,-3,-12,-5,-1,1,0.0
4.945,0,3,11,7,2,-1,-2,-1,0.0
4.95,-3,-6,-21,2,17,7,5,0,0.0
4.955,-5,-5,-13,-24,-10,-1,1,0,0.0
4.96,-4,0,12,20,-1,-10,-14,-12,0.0
4.965,1,-2,6,24,2,1,-5,-7,0.0
4.97,-2,-4,-24,-62,-23,-4,1,2,0.0
4.9750000000000005,0,0,6,17,11,-2,-2,-2,0.0
4.98,1,1,10,4,1,-2,1,10,0.0
4.985,-1,1,-9,-8,0,1,-1,-4,0.0
4.99,-3,-1,0,14,9,-1,-5,-2,0.0
4.995,0,0,2,0,-7,-1,4,0,0.0
5.0,4,3,16,-6,-6,-3,-8,-2,0.0
5.005,-2,-2,-1,36,14,8,12,0,0.0
5.01,-5,-10,-66,-41,-10,-6,-1,0,0.0
5.015,0,-4,-10,41,-9,-2,0,-2,0.0
5.0200000000000005,-6,-8,-50,-75,-7,0,7,3,0.0
5.025,-10,0,36,11,-3,1,5,4,0.0
5.03,0,2,9,-16,2,4,6,8,0.0
5.035,16,-3,-13,-19,-4,-6,17,27,0.0
5.04,8,18,50,55,12,12,-20,-58,0.0
5.045,-17,-9,-69,2,0,9,52,86,0.0
5.05,-21,-15,-10,-77,-4,-11,-52,-105,0.0
5.055,16,3,-21,-14,3,14,1,99,0.0
5.0600000000000005,-49,-9,8,20,-11,-76,-92,-46,0.0
5.065,5,8,28,8,3,20,95,63,0.0
5.07,26,15,23,50,9,9,47,34,0.0
5.075,24,4,-5,-19,10,69,122,98,0.0
5.08,-40,-7,-1,7,-15,-74,-65,-46,0.0
5.085,-75,10,13,-5,-4,-26,-30,-41,0.0
5.09,29,-12,-7,4,1,12,102,1,0.0
5.095,34,1,5,2,-3,4,-5,-1,0.0
5.1000000000000005,25,10,8,3,8,79,119,86,0.0
5.105,41,-2,-4,-24,-9,-48,-128,-60,0.0
5.11,-21,6,0,15,4,-4,-36,23,0.0
5.115,-3,2,14,2,-1,5,19,-40,0.0
5.12,28,-3,-1,6,1,1,-9,31,0.0
5.125,2,-7,-12,-14,-5,-6,-35,-21,0.0
5.13,14,4,3,13,2,8,6,12,0.0
5.135,-31,-10,3,-4,-6,-38,-96,-83,0.0
5.14,14,2,-4,-5,1,11,32,12,0.0
5.1450000000000005,20,-1,-5,-3,-2,19,31,-3,0.0
5.15,-17,3,7,9,0,-5,-32,4,0.0
5.155,12,0,5,-4,-2,-13,-3,-20,0.0
5.16,2,-4,-6,-2,-3,8,14,12,0.0
5.165,0,-3,3,-6,-2,7,9,-6,0.0
5.17,4,-4,0,4,-2,-5,-16,3,0.0
5.175,-26,-4,-4,-5,-2,-15,-25,-18,0.0
5.18,13,-3,0,3,2,11,13,-3,0.0
5.1850000000000005,10,-4,-2,-3,-2,-4,-13,-6,0.0
5.19,-2,-1,0,-1,-1,-3,-1,9,0.0
5.195,-10,-3,4,1,-2,-5,-2,-15,0.0
5.2,-3,-3,1,1,0,0,-6,1,0.0
5.205,18,-1,-3,-2,-1,2,9,0,0.0
5.21,-2,-2,-1,3,1,-3,-4,6,0.0
5.215,-12,0,3,1,-1,-7,-9,-12,0.0
5.22,6,-1,-2,-1,-1,4,8,1,0.0
5.2250000000000005,-3,-3,-5,-4,0,-2,-2,1,0.0
5.23,3,-2,0,4,-3,1,1,2,0.0
5.235,-7,-2,0,-2,-3,-9,-17,-9,0.0
5.24,1,-1,-2,-2,0,1,5,3,0.0
5.245,3,1,-2,-3,-2,2,5,-2,0.0
5.25,-5,-1,0,-1,-1,-3,-9,0,0.0
5.255,2,-1,0,0,-1,-5,1,-4,0.0
5.26,-2,-3,-3,-2,-1,1,1,0,0.0
5.265,-2,-1,-1,-3,-2,1,2,-3,0.0
5.2700000000000005,0,-2,-2,1,0,-1,-4,-1,0.0
5.275,-5,-1,1,0,-1,-5,-3,-5,0.0
5.28,4,-2,-6,-3,-2,2,1,0,0.0
5.285,2,-3,1,-2,-1,-2,-2,-3,0.0
5.29,-1,-1,-3,-2,-1,-1,0,1,0.0
5.295,-4,-2,-1,-1,-1,-2,-1,-4,0.0
5.3,-2,-2,1,1,0,-1,-4,0,0.0
5.305,3,-1,-2,-4,-1,0,2,-1,0.0
5.3100000000000005,-3,-2,-1,1,-1,-1,-2,3,0.0
5.315,-5,0,2,9,-1,-3,-5,-4,0.0
5.32,-1,-4,-11,-15,-2,0,-2,-1,0.0
5.325,-1,-1,-1,-1,0,-1,-3,-1,0.0
5.33,-1,-2,1,1,0,-1,2,1,0.0
5.335,-1,-3,-1,-2,-2,-2,-6,-3,0.0
5.34,-3,-2,3,3,-1,-2,0,2,0.0
5.345,-1,-1,-3,-2,-1,0,-1,-1,0.0
5.3500000000000005,-2,-1,-2,-1,-1,-2,-3,-3,0.0
5.355,-2,0,-1,-1,-2,-1,-1,-1,0.0
5.36,-2,1,2,3,-1,0,0,-3,0.0
5.365,-2,1,-1,-2,-1,0,1,-1,0.0
5.37,-1,1,1,-1,-1,-1,-1,-1,0.0
5.375,-2,0,-2,-4,-1,0,0,-2,0.0
5.38,0,0,2,0,-2,-1,1,-2,0.0
5.385,-1,-2,0,1,-2,0,-3,-3,0.0
5.39,-1,-1,-1,-2,0,-2,-1,-1,0.0
5.3950000000000005,-2,-3,-2,-3,-1,-1,0,-1,0.0
5.4,1,-1,0,1,0,-2,-3,-1,0.0
5.405,0,-3,-1,1,0,-1,1,-3,0.0
5.41,0,-4,-2,0,-1,-1,-1,0,0.0
5.415,-1,-3,-2,-4,-1,-3,-3,0,0.0
5.42,-1,1,1,1,0,-1,-2,-1,0.0
5.425,-2,-2,-2,-2,-1,-2,-2,0,0.0
5.43,0,0,-1,-1,-2,-2,-1,-2,0.0
5.4350000000000005,-2,0,0,-1,-1,-1,-1,-3,0.0
5.44,1,-1,-1,-1,-1,-1,1,-1,0.0
5.445,1,0,-1,-1,0,0,0,0,0.0
5.45,0,0,-1,0,-3,-1,-1,-3,0.0
5.455,-2,0,-1,-1,-3,-1,-2,-1,0.0
5.46,-1,-1,0,0,-2,-1,-1,-1,0.0
5.465,1,-1,-2,-2,0,-1,1,0,0.0
5.47,-1,-2,-1,-2,-1,-1,-2,-1,0.0
5.4750000000000005,1,0,-2,-2,-1,-2,-3,-1,0.0
5.48,0,-1,0,-1,-2,-1,0,-1,0.0
5.485,1,1,-1,-1,-3,-1,-2,-2,0.0
5.49,-1,-2,-3,-1,-1,-1,0,-1,0.0
5.495,-2,-2,-2,-3,-1,-1,-1,-2,0.0
5.5,-2,-1,-1,-2,0,-1,0,-1,0.0
5.505,-2,-1,1,-1,0,-2,0,-1,0.0
5.51,0,0,-2,-1,-1,-1,-2,-2,0.0
5.515,-1,0,-3,-2,-1,-1,-2,0,0.0
5.5200000000000005,-1,-2,-2,1,-1,1,-1,-1,0.0
5.525,0,-2,0,-1,0,-2,-2,-1,0.0
5.53,-3,0,1,-1,-1,-1,0,-1,0.0
5.535,-1,-2,-1,-1,0,-2,-1,-1,0.0
5.54,0,0,-1,0,-2,-2,-2,-2,0.0
5.545,-1,-1,-2,-1,-2,-1,0,0,0.0
5.55,1,-1,0,-1,-1,-1,-2,-3,0.0
5.555,-1,-1,0,0,-1,-1,-1,0,0.0
5.5600000000000005,-2,-1,0,-2,-2,0,-2,0,0.0
5.565,-1,-1,0,1,-3,0,-1,-3,0.0
5.57,0,1,-1,0,-2,-2,-1,1,0.0
5.575,-1,-1,-1,-3,-2,-2,-1,-1,0.0
5.58,-1,-2,-1,-1,-1,-2,-1,-2,0.0
5.585,0,-1,-1,-1,1,-1,-1,-2,0.0
5.59,-2,-1,-1,0,0,-1,1,0,0.0
5.595,-1,-1,-2,-2,1,-1,-1,-2,0.0
5.6000000000000005,-1,-1,-1,-1,-1,0,-2,0,0.0
5.605,0,-2,-1,-1,-1,-1,-3,0,0.0
5.61,-2,-3,0,-2,-1,-1,0,-3,0.0
5.615,-2,-2,-1,0,-2,1,-1,-3,0.0
5.62,-1,-1,-1,-1,-2,0,-1,0,0.0
5.625,-2,0,-1,0,-2,0,0,-1,0.0
5.63,0,0,0,-1,-1,0,-1,0,0.0
5.635,-1,0,0,-1,-1,-3,-1,0,0.0
5.64,-1,-2,-1,-1,0,0,-2,-2,0.0
5.6450000000000005,-1,-1,-1,-2,0,-2,-1,-1,0.0
5.65,-2,-1,-2,0,-1,-3,0,0,0.0
5.655,-1,0,-1,-1,-2,-1,0,-1,0.0
5.66,-1,-1,-1,0,-1,-2,0,-2,0.0
5.665,-2,-1,-2,1,-2,0,-1,0,0.0
5.67,-1,-1,0,-2,-2,-1,-1,-1,0.0
5.675,-2,-1,-2,-1,-1,0,-1,0,0.0
5.68,-1,1,-2,-1,-2,-1,0,0,0.0
5.6850000000000005,-1,0,-1,0,-2,-1,0,-2,0.0
5.69,1,-1,-1,-2,-1,-2,-1,-2,0.0
5.695,-2,-1,-1,0,0,-2,0,-1,0.0
5.7,-1,-1,-1,-1,-2,-1,1,0,0.0
5.705,1,-1,-2,-2,-1,-2,-1,-2,0.0
5.71,-2,-1,-1,-2,-2,-1,-2,1,0.0
5.715,0,-1,-1,-1,0,-1,-3,-1,0.0
5.72,0,-1,-2,-1,3,-2,-2,-2,0.0
5.7250000000000005,-3,-1,-2,0,-1,-2,-1,-1,0.0
5.73,-2,-3,-1,1,0,-2,-2,-1,0.0
5.735,0,-3,-1,0,0,-1,0,0,0.0
5.74,0,-1,0,0,-2,0,-3,-2,0.0
5.745,-1,-2,-2,-3,0,-1,-1,-1,0.0
5.75,0,-1,-1,0,-1,0,-2,0,0.0
5.755,-2,-2,1,-1,-1,-2,0,-2,0.0
5.76,-1,-1,-1,-1,-1,-2,-1,-2,0.0
5.765,0,-2,-2,-2,-1,-1,0,-3,0.0
5.7700000000000005,-1,0,-2,0,-1,1,-2,-1,0.0
5.775,0,-2,-1,1,-1,-2,-2,-1,0.0
5.78,-3,-1,0,-1,-3,-1,-1,-2,0.0
5.785,-1,0,1,0,-1,-1,-1,0,0.0
5.79,-2,-2,-1,-2,-2,-1,0,-1,0.0
5.795,0,-2,-1,-1,-1,0,-1,0,0.0
5.8,0,-1,0,-1,-2,0,-2,-2,0.0
5.805,-3,-2,-2,-1,-2,-1,-1,-1,0.0
5.8100000000000005,-1,-1,-1,-1,0,-3,-1,-2,0.0
5.815,-1,0,0,-1,-3,-2,1,-1,0.0
5.82,-1,-2,-1,-1,0,-1,0,0,0.0
5.825,-2,0,0,-2,-1,-1,-2,-1,0.0
5.83,-2,0,-2,-2,-1,1,-1,-2,0.0
5.835,-1,-1,-1,-2,-1,-1,-1,-1,0.0
5.84,-1,-1,1,-2,-2,-2,-1,-1,0.0
5.845,-1,0,-1,-2,0,0,0,1,0.0
5.8500000000000005,-1,-1,-3,-2,-1,-1,-3,0,0.0
5.855,-2,-1,-1,-3,-1,-1,-2,0,0.0
5.86,-1,0,-2,-1,0,0,0,0,0.0
5.865,-2,-1,-1,0,-1,-1,-2,-1,0.0
5.87,0,-2,0,-1,-1,-2,0,-1,0.0
5.875,-1,-2,-2,-2,-2,-1,-2,0,0.0
5.88,-1,-1,-3,0,-1,0,0,-2,0.0
5.885,-1,1,0,-2,-3,-1,0,0,0.0
5.89,-2,0,-2,-1,-2,-2,-1,-1,0.0
5.8950000000000005,-1,1,1,0,0,-2,-1,-2,0.0
5.9,-2,1,-1,-1,1,-2,0,-1,0.0
5.905,0,-1,-4,-1,-1,-1,-1,-3,0.0
5.91,-2,0,0,-2,-3,-2,0,-3,0.0
5.915,-2,-1,0,-1,0,-1,-1,0,0.0
5.92,-1,-2,-1,0,-2,-1,-1,0,0.0
5.925,1,-2,-2,1,-1,-1,-4,-2,0.0
5.93,0,1,11,7,1,0,-1,1,0.0
5.9350000000000005,-1,-1,-10,10,0,0,-1,-1,0.0
5.94,-4,-6,-12,-39,-7,-4,-4,-5,0.0
5.945,-2,-1,0,1,-3,1,-2,-1,0.0
5.95,-1,-2,-2,-1,-1,-1,-1,-1,0.0
5.955,0,2,8,8,1,-1,-1,-1,0.0
5.96,-1,0,2,10,3,0,1,-1,0.0
5.965,-1,-2,-3,-4,0,-2,0,1,0.0
5.97,-1,-2,0,-4,-2,-2,-2,-2,0.0
5.9750000000000005,-1,-3,-2,-7,-1,0,-1,-2,0.0
5.98,-1,-1,-1,4,-2,-2,-1,1,0.0
5.985,-1,-1,-1,-3,0,-1,-1,-1,0.0
5.99,-1,0,-3,2,0,0,0,-1,0.0
5.995,-1,-2,-2,-6,-2,-1,-2,-1,0.0
6.0,0,0,-1,2,0,-1,0,0,0.0
6.005,0,0,1,3,-2,-1,1,-2,0.0
6.01,-1,-1,-5,-3,-2,-2,-1,0,0.0
6.015000000000001,0,-1,0,-5,-1,-2,-2,-1,0.0
6.0200000000000005,-2,-2,2,4,0,-2,-1,1,0.0
6.025,-1,-2,0,0,0,-1,0,-1,0.0
6.03,0,-1,-5,-3,-2,-2,-1,-1,0.0
6.035,-2,0,1,-4,-2,-2,-1,0,0.0
6.04,-1,-2,1,3,-1,0,0,-1,0.0
6.045,-2,-2,-3,-2,-1,-1,-1,0,0.0
6.05,-2,-1,-3,-4,-2,-1,-2,0,0.0
6.055,0,-1,0,1,-2,-1,-3,-1,0.0
6.0600000000000005,-3,6,-2,-1,-1,-1,-2,-1,0.0
6.065,-1,-2,2,-3,-2,-1,-2,-2,0.0
6.07,-3,-1,-1,-1,0,-2,-2,-3,0.0
6.075,-2,-1,-3,-2,-2,-1,-2,0,0.0
6.08,-1,1,-2,1,-1,0,-1,-1,0.0
6.085,-1,0,-2,-2,-2,-1,1,-2,0.0
6.09,1,-3,-2,0,0,0,1,0,0.0
6.095,-2,0,-1,-3,-1,-1,-1,-1,0.0
6.1000000000000005,-1,-4,-2,0,-1,-1,-2,-1,0.0
6.105,-2,-2,1,-1,-2,-1,-1,-1,0.0
6.11,0,-1,-2,-2,-1,0,-3,0,0.0
6.115,0,-2,-1,-1,-1,-2,-1,0,0.0
6.12,0,-3,0,1,-2,-1,0,-2,0.0
6.125,-1,-1,0,0,0,-2,-2,-2,0.0
6.13,-1,-1,-1,-1,-1,2,1,-1,0.0
6.135,-3,-2,-3,-2,0,0,0,0,0.0
6.140000000000001,-1,-2,-1,0,-2,-1,-1,0,0.0
6.1450000000000005,0,-2,-2,0,0,-3,-1,0,0.0
6.15,0,-1,-2,0,-3,-1,0,-3,0.0
6.155,0,-1,0,-2,-1,-1,-1,0,0.0
6.16,-1,-2,0,0,-2,-1,0,-1,0.0
6.165,-1,0,-3,-3,0,-1,-1,1,0.0
6.17,-1,-3,0,-2,-2,-1,-2,-2,0.0
6.175,-1,0,-2,0,-1,-2,0,-1,0.0
6.18,-2,0,-1,-2,-1,-3,0,-1,0.0
6.1850000000000005,0,0,0,-2,-3,0,-1,0,0.0
6.19,-1,-2,-1,-1,0,-2,-1,-2,0.0
6.195,-2,-1,-6,-1,-3,-1,-1,-2,0.0
6.2,-1,0,5,-1,0,0,-2,-2,0.0
6.205,-1,-1,-4,-1,-1,1,1,0,0.0
6.21,-1,0,0,0,-1,1,-1,0,0.0
6.215,-1,-1,0,-2,0,0,-1,-1,0.0
6.22,-1,-3,-3,0,0,-1,-1,-1,0.0
6.2250000000000005,-3,0,-2,-3,0,0,0,-1,0.0
6.23,-2,2,0,-1,-2,-3,-1,0,0.0
6.235,-2,1,1,0,-1,-2,-1,-2,0.0
6.24,-1,-1,-6,0,-1,2,-2,0,0.0
6.245,0,2,12,0,-2,-1,-2,-2,0.0
6.25,-1,-2,-5,-4,0,-2,-1,1,0.0
6.255,0,-4,-2,-1,-2,-3,-1,0,0.0
6.26,-1,-2,-2,0,-3,-1,-2,-1,0.0
6.265000000000001,1,1,-1,1,-2,0,-1,0,0.0
6.2700000000000005,3,8,23,6,1,-2,-1,1,0.0
6.275,-9,-29,-78,-14,-6,-4,-4,-5,0.0
6.28,2,0,5,-1,-1,-1,-1,-1,0.0
6.285,0,-2,-2,-2,0,-1,-1,0,0.0
6.29,0,3,4,0,0,1,-1,-1,0.0
6.295,-1,7,18,1,2,0,0,0,0.0
6.3,-1,-3,-4,-2,-1,-1,-1,-1,0.0
6.305,-2,0,-10,-2,-1,-1,0,-1,0.0
6.3100000000000005,-1,-1,7,0,-2,-1,-1,-1,0.0
6.315,0,-3,4,0,-1,-2,0,0,0.0
6.32,-2,1,-2,-2,0,-1,0,0,0.0
6.325,-2,1,6,0,0,-1,-1,0,0.0
6.33,-3,-4,-11,-3,-2,-1,-1,-1,0.0
6.335,-1,4,10,0,-1,-1,-2,-2,0.0
6.34,-1,2,1,2,0,0,-1,-1,0.0
6.345,0,-2,-5,-2,-1,-1,-3,-1,0.0
6.3500000000000005,-1,-3,-9,-2,-2,-1,-1,-3,0.0
6.355,1,2,10,1,-1,1,-2,-1,0.0
6.36,-2,-1,1,0,-1,0,0,-1,0.0
6.365,-2,-4,-3,0,-1,-1,-1,-1,0.0
6.37,-1,-5,-6,-3,-2,-2,-2,0,0.0
6.375,2,4,12,1,-1,-2,-1,-2,0.0
6.38,1,0,3,-1,-1,-1,-3,-1,0.0
6.385,-1,-4,-10,-3,-2,-1,-2,-1,0.0
6.390000000000001,-2,-2,-1,-2,0,-2,-1,0,0.0
6.3950000000000005,1,1,3,-2,-2,-1,-2,-1,0.0
6.4,-2,-3,-1,-1,-1,-1,1,-2,0.0
6.405,-2,-1,1,0,-1,-2,0,-3,0.0
6.41,0,-2,-3,0,0,-2,-1,-1,0.0
6.415,1,1,4,1,0,-1,-1,0,0.0
6.42,0,-8,-9,-1,-2,0,-1,-2,0.0
6.425,-1,0,4,0,-1,-2,-2,-2,0.0
6.43,-2,-2,-2,-2,-1,-1,-1,-1,0.0
6.4350000000000005,1,-1,2,0,0,0,-1,1,0.0
6.44,-1,0,-2,-1,1,1,0,1,0.0
6.445,-1,-1,-2,-1,-1,-1,-2,1,0.0
6.45,-1,-2,-3,-1,0,0,0,-2,0.0
6.455,0,-1,1,0,-2,0,-1,-2,0.0
6.46,-1,0,0,-2,-2,-2,-1,-1,0.0
6.465,-2,-2,-1,-2,-1,1,-1,-1,0.0
6.47,-5,-2,-5,-1,-2,-2,-3,-4,0.0
6.4750000000000005,0,1,1,-1,-2,1,-1,0,0.0
6.48,-1,-1,1,-3,-2,-1,-1,0,0.0
6.485,-1,-2,-1,-1,-1,-1,-2,-1,0.0
6.49,0,0,-2,0,0,-1,-1,-1,0.0
6.495,-1,0,-2,1,-2,-3,0,-1,0.0
6.5,0,-1,-2,1,-2,-2,-3,-2,0.0
6.505,-1,-2,-1,0,1,0,-1,-1,0.0
6.51,-2,-3,-3,-2,-3,0,-2,-2,0.0
6.515000000000001,-3,-1,1,-2,0,-2,-3,-1,0.0
6.5200000000000005,0,0,-1,-2,-1,-2,-1,0,0.0
6.525,0,-1,-1,0,-1,-1,-2,-1,0.0
6.53,0,-1,-2,0,-3,-2,0,0,0.0
6.535,-2,-2,-1,-1,-1,-2,1,-1,0.0
6.54,-3,0,-3,0,-2,0,0,-2,0.0
6.545,-1,0,-1,0,-1,-2,-2,-3,0.0
6.55,-2,-2,-1,0,0,-1,-2,-1,0.0
6.555,-1,-2,-1,-1,-2,-2,-3,0,0.0
6.5600000000000005,0,-2,0,-2,-1,-1,1,0,0.0
6.565,-1,0,-1,-3,-2,-1,-1,-2,0.0
6.57,-1,1,-1,-2,1,-1,-1,-1,0.0
6.575,-2,0,-1,0,-2,0,-1,0,0.0
6.58,-2,-1,-1,-2,1,-2,-2,-1,0.0
6.585,-1,-2,1,-1,-2,-1,-1,-1,0.0
6.59,1,-1,0,-1,0,-1,-1,-1,0.0
6.595,-1,-1,1,-2,1,-2,0,0,0.0
6.6000000000000005,-2,-1,-1,-2,-1,-2,-2,-2,0.0
6.605,0,-1,0,-1,0,-1,0,-2,0.0
6.61,-1,-3,-2,-1,0,1,-2,0,0.0
6.615,-3,-1,-1,-2,-1,0,-2,-2,0.0
6.62,-2,-2,-1,0,-2,-1,-1,-1,0.0
6.625,-1,1,-3,-1,-2,-1,0,-1,0.0
6.63,-2,-2,-1,-1,-2,-1,-1,-2,0.0
6.635,-3,-2,0,-1,-1,-3,-2,0,0.0
6.640000000000001,0,-2,0,-2,0,1,-1,-1,0.0
6.6450000000000005,1,0,-1,0,0,-2,-1,-1,0.0
6.65,0,-1,-2,-1,-2,-1,1,-2,0.0
6.655,-1,1,0,-1,-1,-1,0,-2,0.0
6.66,0,-2,-1,0,0,-1,2,0,0.0
6.665,-1,-2,-2,-2,0,-2,0,-1,0.0
6.67,-1,-2,1,-1,-2,0,-2,1,0.0
6.675,1,-2,-1,-1,0,-1,1,-1,0.0
6.68,-3,0,-1,-1,-3,-1,-2,-1,0.0
6.6850000000000005,-1,-1,-2,0,-1,0,-1,0,0.0
6.69,-1,0,-1,-1,-3,0,0,-2,0.0
6.695,-1,-1,-1,-1,-1,-1,0,-2,0.0
6.7,-1,-1,-1,0,-2,-1,0,0,0.0
6.705,0,-3,-2,-1,-1,-1,0,0,0.0
6.71,-1,-1,-2,0,0,-2,-2,-2,0.0
6.715,-1,-1,-2,-2,-1,0,-1,-1,0.0
6.72,-2,-1,-1,-1,-1,0,0,-3,0.0
6.7250000000000005,-2,-1,0,-3,-1,-2,-1,-1,0.0
6.73,-1,-1,-2,0,-2,-2,0,1,0.0
6.735,0,-2,-3,1,-2,-2,-1,-1,0.0
6.74,0,-2,-2,-1,0,0,-1,0,0.0
6.745,-1,-2,-1,0,-1,-1,0,0,0.0
6.75,-2,-1,0,-2,-1,-1,-1,0,0.0
6.755,0,1,-2,-2,0,-1,-2,-1,0.0
6.76,-1,-1,-2,0,0,-1,-2,-2,0.0
6.765000000000001,-2,-1,-2,0,-2,0,-1,-2,0.0
6.7700000000000005,-2,-2,-2,-1,0,-1,-2,0,0.0
6.775,0,-1,1,1,-2,-1,-5,-2,0.0
6.78,-2,-1,-2,-2,-2,-4,-2,-2,0.0
6.785,0,-1,-1,-1,-1,-1,-1,-2,0.0
6.79,-1,-1,0,-1,-1,-1,0,0,0.0
6.795,-2,-1,-2,-3,-2,-1,0,0,0.0
6.8,1,-1,2,-1,-1,-1,-1,0,0.0
6.805,-1,-2,-2,1,0,-1,0,0,0.0
6.8100000000000005,-1,-1,0,-1,-1,-3,1,-1,0.0
6.815,-2,-2,0,-1,-1,-2,-3,-1,0.0
6.82,-1,1,-1,-2,-3,0,-2,-1,0.0
6.825,0,-1,-2,-1,-1,-1,-2,-2,0.0
6.83,0,-1,2,-2,-1,-1,-2,-1,0.0
6.835,0,-3,0,-2,-1,1,1,-2,0.0
6.84,-2,-1,-2,0,-1,-3,-1,-1,0.0
6.845,-1,0,0,0,-2,1,-1,-2,0.0
6.8500000000000005,-1,0,-3,-1,1,-2,-2,0,0.0
6.855,-1,-1,-1,1,0,-2,0,0,0.0
6.86,-1,-1,-1,-1,0,-2,-2,0,0.0
6.865,0,0,-2,-1,-1,-1,0,-1,0.0
6.87,-2,-1,-2,-1,0,1,-1,-2,0.0
6.875,0,0,-1,-1,-3,0,1,0,0.0
6.88,-1,-1,0,-2,-2,-2,1,-1,0.0
6.885,-3,-2,0,-2,1,-1,0,-1,0.0
6.890000000000001,-1,0,-1,-4,-1,-1,0,0,0.0
6.8950000000000005,-2,-1,-1,-1,-1,-2,-1,-1,0.0
6.9,-1,0,0,-1,0,-2,-1,-1,0.0
6.905,-1,-1,2,-3,-2,-1,-1,-2,0.0
6.91,-1,-2,-1,-1,-2,0,-4,-1,0.0
6.915,0,0,-2,-1,-1,-1,-1,-2,0.0
6.92,-2,-1,0,-1,0,0,1,0,0.0
6.925,0,1,-2,0,0,-1,0,-2,0.0
6.93,-1,0,0,0,-1,-2,0,-1,0.0
6.9350000000000005,-1,0,-3,-2,-2,-2,-1,1,0.0
6.94,0,0,-1,-1,-1,-1,0,0,0.0
6.945,-2,-1,0,-2,-1,0,-3,0,0.0
6.95,-2,-2,-2,0,-1,0,0,-2,0.0
6.955,-1,0,1,0,0,-1,-1,1,0.0
6.96,-1,-2,-1,-1,-2,-2,-1,-1,0.0
6.965,-1,0,0,-2,-2,-2,-1,-1,0.0
6.97,1,-3,-2,-1,-2,-1,-1,-2,0.0
6.9750000000000005,-2,-2,-1,-2,-1,0,-1,-1,0.0
6.98,-1,-1,0,-1,-1,0,-1,-3,0.0
6.985,-2,-2,-1,0,-3,-1,0,-3,0.0
6.99,-1,-1,-1,-1,-2,0,-1,-1,0.0
6.995,-3,-2,0,-2,-1,-2,-1,-1,0.0
7.0,-1,-2,-1,-2,0,-1,-1,-2,0.0
7.005,-2,-1,-3,-1,-1,-1,-3,-2,0.0
7.01,-1,0,-1,-1,-2,-1,-1,-1,0.0
7.015000000000001,1,0,-2,-1,-1,-1,-3,-2,0.0
7.0200000000000005,-2,-1,-1,-2,-1,-1,-1,-2,0.0
7.025,1,-2,0,-1,-1,-2,0,1,0.0
7.03,-1,-1,-2,-1,0,-2,-1,-1,0.0
7.035,0,0,0,-2,-1,-2,-1,-1,0.0
7.04,0,-1,0,-1,-1,0,-4,0,0.0
7.045,0,1,-1,-1,-2,-2,-2,-1,0.0
7.05,0,-2,-2,0,-1,-1,-1,-1,0.0
7.055,-2,-1,-2,0,1,0,-1,-2,0.0
7.0600000000000005,0,-3,-1,-1,0,-1,1,-1,0.0
7.065,-2,-3,-1,-1,-1,-1,0,-1,0.0
7.07,-2,-2,0,-1,-1,-2,-1,0,0.0
7.075,-1,-2,-3,1,0,-1,-1,-3,0.0
7.08,-1,-1,0,0,-2,0,-1,-2,0.0
7.085,0,0,0,-3,-1,-1,-1,-1,0.0
7.09,0,-2,-2,-2,0,-2,0,-1,0.0
7.095,-1,-2,-1,-1,-2,0,1,0,0.0
7.1000000000000005,-1,-2,-2,-1,-2,0,-1,0,0.0
7.105,-2,-2,-1,-2,0,-1,-1,0,0.0
7.11,-2,0,-1,-1,-1,-2,1,-1,0.0
7.115,1,-1,-1,-1,0,-2,0,0,0.0
7.12,-2,0,-3,0,-1,-1,-2,-2,0.0
7.125,-2,-2,-1,-1,-2,-1,-2,0,0.0
7.13,-2,-1,-1,-1,-2,-1,-1,-1,0.0
7.135,-2,-2,-2,-3,-2,-1,-1,-1,0.0
7.140000000000001,-1,-1,-1,-1,-1,-3,1,-2,0.0
7.1450000000000005,-1,-2,-2,-2,0,-3,-3,-2,0.0
7.15,-1,-4,-1,0,-1,-3,0,-2,0.0
7.155,0,-2,0,0,0,-1,0,0,0.0
7.16,-2,-2,1,0,-1,-2,-2,0,0.0
7.165,-2,-2,-2,0,-1,-1,-2,-1,0.0
7.17,0,-2,-2,-3,-3,-3,-3,-2,0.0
7.175,-1,-2,0,0,0,-2,-2,-2,0.0
7.18,-1,-1,-3,0,-2,-2,-2,0,0.0
7.1850000000000005,1,-1,0,-1,-4,-3,-1,0,0.0
7.19,-3,0,1,1,4,6,3,2,0.0
7.195,-2,0,-1,0,0,2,0,-1,0.0
7.2,-2,-1,-1,-1,-1,-1,-1,-2,0.0
7.205,-4,-1,-1,-1,-1,-2,-1,-1,0.0
7.21,-3,-1,-4,-4,-5,-6,-4,-2,0.0
7.215,-2,-1,-1,-1,-4,-3,0,0,0.0
7.22,-2,-2,1,0,3,3,-1,0,0.0
7.2250000000000005,-1,1,0,1,-2,-5,-2,-1,0.0
7.23,-1,-1,-1,1,1,2,0,-1,0.0
7.235,-1,-2,-1,-1,-1,-1,-3,-2,0.0
7.24,0,-2,-3,-3,-3,-4,-2,-1,0.0
7.245,1,-1,-2,-1,-3,-2,-2,2,0.0
7.25,-2,-2,-1,0,0,-4,-1,1,0.0
7.255,0,-1,-1,-1,1,2,0,-1,0.0
7.26,-1,-1,1,1,3,3,2,0,0.0
7.265000000000001,-1,-1,-1,1,4,4,3,-2,0.0
7.2700000000000005,0,1,0,-2,-5,-3,-2,-2,0.0
7.275,-1,-1,-1,-1,-3,-3,-1,-2,0.0
7.28,0,-1,-2,-2,-5,-1,1,0,0.0
7.285,-1,-1,-2,-3,-2,-1,-1,-1,0.0
7.29,1,-1,1,-2,-3,0,-2,-1,0.0
7.295,0,-2,-1,-4,-2,-3,-2,-1,0.0
7.3,1,0,0,0,2,-1,1,-1,0.0
7.305,-1,-6,0,1,0,-1,1,-1,0.0
7.3100000000000005,1,5,4,1,2,1,-2,0,0.0
7.315,-1,0,1,-2,-1,-2,-2,0,0.0
7.32,-1,0,-2,-3,-1,-1,-2,0,0.0
7.325,-9,-32,-8,-1,-1,0,-1,-3,0.0
7.33,9,-26,-9,-1,-2,-4,-4,-3,0.0
7.335,-29,108,59,10,6,8,8,8,0.0
7.34,-7,3,4,-1,-2,-1,-1,-1,0.0
7.345,-2,-13,-4,-2,-3,-2,-3,-1,0.0
7.3500000000000005,-10,-20,-5,-1,-2,-2,-3,-3,0.0
7.355,5,-41,-20,-3,-2,-5,-5,-6,0.0
7.36,0,3,-1,-1,-1,-2,-1,-1,0.0
7.365,0,24,11,-2,0,1,3,1,0.0
7.37,6,0,-1,-2,0,-1,-1,-1,0.0
7.375,8,-12,-11,-4,-4,-1,-2,0,0.0
7.38,-4,1,0,0,-3,0,-2,-2,0.0
7.385,3,-12,-10,-3,-2,-3,-2,-2,0.0
7.390000000000001,-2,8,3,-2,1,-1,-1,-1,0.0
7.3950000000000005,3,-17,-8,-2,-1,-1,-3,-2,0.0
7.4,-3,-10,-5,-2,-1,-2,-2,-1,0.0
7.405,-1,6,-1,0,-1,-1,-2,-2,0.0
7.41,-3,10,2,-1,0,-1,0,0,0.0
7.415,0,-7,-4,0,-2,-1,1,-2,0.0
7.42,4,-7,-3,-1,-1,-2,-2,0,0.0
7.425,0,7,0,1,-1,0,-1,-1,0.0
7.43,-3,3,0,-2,-1,-1,0,-1,0.0
7.4350000000000005,2,-21,-10,-3,-2,-1,-5,-2,0.0
7.44,-1,-3,-2,-2,-1,0,-2,-3,0.0
7.445,-2,3,0,-1,-1,-1,-1,-2,0.0
7.45,-4,-1,-1,-1,-1,-1,-2,-1,0.0
7.455,-1,-7,-5,-1,-2,-3,-2,-1,0.0
7.46,1,0,-1,-2,-1,-1,-3,0,0.0
7.465,-2,4,1,-2,-1,-1,0,0,0.0
7.47,-1,-1,-2,-3,0,0,-1,0,0.0
7.4750000000000005,0,-5,-3,-1,0,0,0,-3,0.0
7.48,-1,0,-3,-1,-4,-1,1,-1,0.0
7.485,1,-5,-2,-1,-1,-1,-2,-1,0.0
7.49,-1,1,1,0,-3,-1,-1,1,0.0
7.495,-2,-3,-3,-1,0,-2,-1,-1,0.0
7.5,0,-3,-2,0,1,-1,-1,0,0.0
7.505,-2,-1,0,-3,-2,0,0,-1,0.0
7.51,-3,1,-1,0,-1,-1,-1,0,0.0
7.515000000000001,0,-1,-1,-1,-1,-2,-2,-1,0.0
7.5200000000000005,-1,-3,-1,-2,-2,-3,0,0,0.0
7.525,-1,2,1,0,-1,-1,-1,0,0.0
7.53,-1,-1,-1,0,0,-1,-2,-3,0.0
7.535,-2,-6,-3,-1,-2,-2,-3,0,0.0
7.54,0,-1,-1,0,-2,-1,-1,-1,0.0
7.545,-1,-2,0,-1,1,-1,-1,-1,0.0
7.55,-1,1,-1,-2,-2,-1,-2,-1,0.0
7.555,0,-2,-3,0,0,-2,-1,0,0.0
7.5600000000000005,-1,0,-1,0,-2,-1,-1,-2,0.0
7.565,-1,-1,-1,-1,0,-3,-2,-3,0.0
7.57,0,-1,0,-1,-2,-3,-1,0,0.0
7.575,0,0,-2,-2,-1,-1,-1,0,0.0
7.58,-1,-3,-1,0,0,0,-2,-2,0.0
7.585,0,-2,-2,0,-1,0,0,-2,0.0
7.59,-1,-1,-2,-2,-1,-1,0,-1,0.0
7.595,0,-1,0,-2,-2,-1,-1,-3,0.0
7.6000000000000005,-2,-1,-1,-2,-1,-1,1,-1,0.0
7.605,-1,-1,-3,-1,-2,0,-2,0,0.0
7.61,0,-1,-1,0,1,-2,-1,-2,0.0
7.615,-1,-2,-2,1,-1,-1,-2,1,0.0
7.62,0,1,0,-2,-1,-1,0,-1,0.0
7.625,-1,0,-2,-1,0,-1,-1,0,0.0
7.63,0,0,-2,-3,-2,-1,0,-1,0.0
7.635,-2,-3,-3,-1,-1,-2,-2,1,0.0
7.640000000000001,-4,-2,0,1,-1,-2,-1,-1,0.0
7.6450000000000005,1,1,-1,-1,-1,-1,-1,-1,0.0
7.65,-2,-1,0,-1,-1,1,-1,-2,0.0
7.655,-2,-2,-2,-3,0,-2,0,-2,0.0
7.66,0,-4,-2,-3,-2,-2,-2,-3,0.0
7.665,0,-2,-2,-2,-2,-2,-2,-2,0.0
7.67,-3,-1,0,0,0,-1,-2,-1,0.0
7.675,0,-2,-1,-2,0,-1,-2,-1,0.0
7.68,0,0,0,-2,-1,-2,-2,-2,0.0
7.6850000000000005,0,-2,0,1,0,0,0,-2,0.0
7.69,-2,0,-2,-1,-2,-1,-2,0,0.0
7.695,0,-2,-2,1,1,-1,0,0,0.0
7.7,0,-2,-1,-1,-1,-1,0,1,0.0
7.705,-1,-1,-1,-2,-2,-1,-1,0,0.0
7.71,-1,-3,-1,-1,-1,0,0,-1,0.0
7.715,-3,-1,0,0,-1,0,-1,-1,0.0
7.72,-2,-1,1,-1,0,-2,-2,0,0.0
7.7250000000000005,0,-1,0,0,-1,-1,0,-1,0.0
7.73,-3,-1,0,-1,-2,-3,-1,1,0.0
7.735,1,-4,-1,-1,-1,-2,-1,0,0.0
7.74,0,-1,0,-2,0,0,-3,-4,0.0
7.745,-2,1,-1,-2,-2,-1,-2,-1,0.0
7.75,-1,-1,-1,0,-1,-2,-1,-1,0.0
7.755,-2,-1,0,0,-2,1,-1,-1,0.0
7.76,0,-2,1,1,-1,-1,-1,1,0.0
7.765000000000001,-1,-2,0,-2,-1,-3,0,-1,0.0
7.7700000000000005,0,-2,-1,-1,0,-1,-2,-1,0.0
7.775,-1,-1,-2,-4,-2,-1,2,-1,0.0
7.78,-2,-1,-2,-2,-1,-2,0,0,0.0
7.785,-2,-2,-1,-2,0,0,0,-2,0.0
7.79,0,-2,-2,1,-3,0,-2,-1,0.0
7.795,-1,1,-1,-1,-4,-1,-3,-1,0.0
7.8,0,-1,-1,-1,0,0,0,0,0.0
7.805000000000001,0,-1,0,0,-1,-3,-2,0,0.0
7.8100000000000005,0,-1,-1,-2,-1,-1,-3,-2,0.0
7.815,-1,0,0,-1,-1,-1,-2,0,0.0
7.82,-1,0,-1,0,-1,-2,-1,-2,0.0
7.825,-1,-1,-3,-1,0,-1,0,-2,0.0
7.83,0,0,1,-1,-1,-1,-1,0,0.0
7.835,-2,-2,-2,-2,0,-1,-3,0,0.0
7.84,-2,-1,-2,-1,-1,-2,-1,0,0.0
7.845,-1,-1,0,-2,-3,-2,-3,-1,0.0
7.8500000000000005,-2,-3,-1,-1,-1,-2,-1,-1,0.0
7.855,0,0,-2,-1,1,-1,-1,-3,0.0
7.86,-1,-1,0,-1,0,-1,-2,-1,0.0
7.865,-1,-1,0,-2,-2,-1,0,0,0.0
7.87,-2,-2,-1,-1,-1,-1,1,-3,0.0
7.875,-1,-1,-1,0,-1,-2,-1,0,0.0
7.88,-3,-2,-2,0,-1,-1,-2,-2,0.0
7.885,-2,0,-1,-2,-1,-1,-3,1,0.0
7.890000000000001,0,0,0,-2,-2,0,-1,-1,0.0
7.8950000000000005,0,0,-2,-3,-1,-1,0,-2,0.0
7.9,0,-2,-2,-1,-1,-1,-2,0,0.0
7.905,-2,-1,0,1,0,-1,0,0,0.0
7.91,-1,-3,-1,-2,-1,-2,-1,-1,0.0
7.915,-2,0,-1,-2,0,-1,-2,1,0.0
7.92,0,-1,-2,-1,-3,-1,-1,0,0.0
7.925,1,-1,-1,0,0,0,-3,-1,0.0
7.930000000000001,0,-1,0,-2,-1,-2,2,-1,0.0
7.9350000000000005,-3,-3,-2,-1,-1,-1,0,-2,0.0
7.94,0,1,-2,-2,-2,0,-1,-1,0.0
7.945,-2,-1,-1,-2,-1,-1,-2,0,0.0
7.95,-1,0,-1,0,-1,0,-4,0,0.0
7.955,1,-1,-2,-2,-2,-1,-1,-1,0.0
7.96,0,-2,0,0,-1,-1,-1,-1,0.0
7.965,-2,-2,-2,-1,-1,-1,0,-1,0.0
7.97,-2,-1,-2,0,0,-1,-1,-1,0.0
7.9750000000000005,0,-1,0,-1,-2,-1,-2,0,0.0
7.98,-1,-1,-1,-3,0,0,-1,0,0.0
7.985,-1,0,0,-1,-3,-1,-1,-2,0.0
7.99,-2,0,-1,-2,-1,-1,0,-1,0.0
7.995,-2,-1,-2,0,-1,-1,-2,1,0.0
8.0,1,-2,-1,-1,-2,-1,1,-2,0.0
8.005,-1,0,-1,-2,-1,0,0,-1,0.0
8.01,0,1,-1,-3,-1,0,-1,-2,0.0
8.015,-1,0,0,-2,-1,-2,0,-2,0.0
8.02,-1,-2,-1,1,-1,-1,0,-1,0.0
8.025,-1,-1,-2,-1,-3,-2,-2,0,0.0
8.03,0,-2,-2,-3,0,-2,0,-1,0.0
8.035,0,-2,-1,3,0,-2,0,-1,0.0
8.040000000000001,1,-1,-1,-2,0,-1,-1,1,0.0
8.045,-1,-2,-1,-1,-3,-1,0,-3,0.0
8.05,0,-2,0,-2,-2,0,-2,0,0.0
8.055,1,-1,-1,-1,0,-1,0,-3,0.0
8.06,-2,-1,-3,0,-2,0,2,-1,0.0
8.065,-1,0,2,-2,-1,-3,-1,12,0.0
8.07,0,-1,-6,1,-2,-3,-5,-5,0.0
8.075,-4,0,0,-2,-3,-1,-1,-3,0.0
8.08,-1,-2,-1,-3,-1,-1,-1,0,0.0
8.085,-1,-2,-2,-1,0,0,0,-3,0.0
8.09,-1,0,0,-1,-1,0,3,5,0.0
8.095,0,0,1,-1,0,-1,0,3,0.0
8.1,-3,-2,-3,-1,1,-1,-2,-9,0.0
8.105,-4,-3,-2,-2,-2,-5,-8,4,0.0
8.11,-1,-4,-3,-1,-2,-1,3,-7,0.0
8.115,-3,-1,-3,1,-2,-1,-9,-6,0.0
8.120000000000001,-1,-2,-1,-1,-2,0,2,-17,0.0
8.125,-2,0,-2,-2,-2,-2,-1,-1,0.0
8.13,0,0,-1,-1,0,2,4,0,0.0
8.135,1,-1,-2,-2,-1,-1,4,14,0.0
8.14,-7,-1,-1,-3,-2,-7,-12,4,0.0
8.145,-2,-3,-2,-1,-1,-1,-1,-8,0.0
8.15,-4,-1,-1,-2,-1,-1,-3,-7,0.0
8.155,1,-2,0,-2,0,2,4,-3,0.0
8.16,-2,-2,-2,1,-1,-2,2,14,0.0
8.165000000000001,1,-1,0,-1,1,0,2,-2,0.0
8.17,-2,-2,0,0,-2,-4,-3,1,0.0
8.175,-1,-2,-1,-1,-3,-1,-2,5,0.0
8.18,0,0,1,1,-1,-2,0,1,0.0
8.185,-2,0,-2,-1,-3,-2,-4,-6,0.0
8.19,-2,0,-1,0,1,-2,-1,0,0.0
8.195,-2,-1,-2,-1,2,4,-2,-2,0.0
8.2,0,-1,-1,-1,0,-2,1,-1,0.0
8.205,0,-1,-1,-1,-1,-1,-1,-3,0.0
8.21,0,-1,-2,-2,-3,-4,-2,3,0.0
8.215,-1,-2,-3,-1,-3,-5,-2,-5,0.0
8.22,0,0,-1,-2,-1,2,0,0,0.0
8.225,0,-1,-2,0,-2,3,1,4,0.0
8.23,-3,-1,1,-2,-2,-2,-4,0,0.0
8.235,0,-1,-1,-1,-1,-1,-1,-5,0.0
8.24,0,-1,-2,0,-1,1,-1,-1,0.0
8.245000000000001,-2,0,-1,1,0,-1,-1,-3,0.0
8.25,0,-1,-1,1,1,1,-3,-2,0.0
8.255,-1,1,-1,-2,-2,0,-1,-4,0.0
8.26,0,-2,-1,-2,-2,-2,-2,1,0.0
8.265,-1,0,-2,-3,-1,-1,0,-2,0.0
8.27,0,-2,-2,-1,-1,-1,-2,1,0.0
8.275,-1,0,0,-3,-1,-3,0,0,0.0
8.28,-1,-2,0,-1,-1,-3,-1,-1,0.0
8.285,1,-2,-2,-1,-2,-1,-1,-1,0.0
8.290000000000001,0,0,-3,-2,-1,-3,0,-1,0.0
8.295,0,-4,0,0,-2,-4,-1,3,0.0
8.3,-1,0,0,-1,-1,-1,0,-4,0.0
8.305,-2,-2,-1,-1,-1,-1,-1,-1,0.0
8.31,-2,-1,0,-1,-3,-1,0,0,0.0
8.315,-1,0,-1,0,-3,-1,-1,-3,0.0
8.32,-2,-1,0,-1,0,3,-1,1,0.0
8.325,0,-2,0,-1,-1,-4,-1,0,0.0
8.33,0,-1,-1,0,0,-4,-3,-2,0.0
8.335,-2,-2,-1,-1,-2,-3,-1,-4,0.0
8.34,-1,-1,-4,-1,-1,-1,2,0,0.0
8.345,-1,-1,0,0,0,2,1,-2,0.0
8.35,-1,0,-1,-1,-2,0,-2,-3,0.0
8.355,0,-1,-2,-1,-1,-2,-3,-2,0.0
8.36,-1,-1,0,-2,-1,0,-1,-2,0.0
8.365,-3,-2,-3,-2,-1,-3,-2,1,0.0
8.370000000000001,1,-3,-1,0,-2,-1,-1,0,0.0
8.375,-3,-1,0,0,0,-1,0,0,0.0
8.38,1,0,1,-2,-1,-1,-1,-1,0.0
8.385,-1,-2,-1,-2,-1,-1,0,-2,0.0
8.39,0,-2,0,-2,-2,0,-2,-1,0.0
8.395,0,-1,-1,-2,-2,1,-1,-2,0.0
8.4,-1,-1,-2,-1,-2,-2,-2,0,0.0
8.405,0,0,0,-1,0,0,2,-2,0.0
8.41,-2,-2,-2,0,1,1,-1,-1,0.0
8.415000000000001,0,0,-1,-1,0,-2,-1,-2,0.0
8.42,-2,-1,1,-3,-1,-4,0,-1,0.0
8.425,-3,0,-1,-1,1,1,-2,-1,0.0
8.43,-2,0,-3,0,-2,0,0,-2,0.0
8.435,-1,0,-1,-1,1,-2,-1,5,0.0
8.44,0,-1,-2,0,-1,-1,-1,-3,0.0
8.445,-2,-2,-2,-2,-2,-3,-2,-2,0.0
8.45,0,-1,-1,-1,2,-1,-3,0,0.0
8.455,-2,-2,-1,-2,1,1,-1,-1,0.0
8.46,-3,-1,0,1,0,0,0,0,0.0
8.465,0,0,-1,-1,-1,-2,-1,0,0.0
8.47,-3,-2,-1,-1,-3,-2,0,-2,0.0
8.475,-1,-2,0,-2,-3,-1,-1,-3,0.0
8.48,-1,0,-2,-3,-2,-1,-2,0,0.0
8.485,0,-3,0,-1,0,-1,-1,-3,0.0
8.49,-1,1,0,-1,0,-3,-1,1,0.0
8.495000000000001,-1,-3,-2,-2,-1,-1,0,-3,0.0
8.5,-2,-1,-2,-1,0,0,-2,-2,0.0
8.505,0,1,-2,0,-1,-2,-1,-1,0.0
8.51,0,-1,-2,0,-3,-2,-1,1,0.0
8.515,-1,0,-1,1,-1,-2,0,-2,0.0
8.52,-2,-1,-1,-1,1,0,1,1,0.0
8.525,-2,-2,0,0,-1,-3,-2,-2,0.0
8.53,-1,-1,-2,-3,-2,-2,-1,-1,0.0
8.535,2,0,0,-1,-1,0,-1,-2,0.0
8.540000000000001,0,-1,0,-2,-2,-2,-2,-1,0.0
8.545,-3,-1,0,0,-3,-2,-3,-2,0.0
8.55,-4,-1,-2,-1,1,0,-1,0,0.0
8.555,-2,-1,0,0,-1,-2,-2,0,0.0
8.56,-1,-1,1,-2,1,-1,0,-2,0.0
8.565,0,-1,-1,-2,0,0,0,0,0.0
8.57,1,0,-1,-1,0,0,-1,0,0.0
8.575000000000001,-1,-2,-1,-2,-1,0,-2,-1,0.0
8.58,0,0,-1,-1,-1,0,-1,-2,0.0
8.585,-1,-1,-1,-1,-1,-2,-1,-2,0.0
8.59,-2,-1,-1,-2,-1,-1,-1,0,0.0
8.595,-3,0,-2,-2,0,1,0,0,0.0
8.6,-2,-2,0,1,-1,-3,-1,0,0.0
8.605,0,-1,-1,-1,-1,0,-1,-1,0.0
8.61,0,-1,-1,1,-1,0,-1,-1,0.0
8.615,-4,-2,-1,-1,1,0,-2,0,0.0
8.620000000000001,0,-1,-2,-3,-4,0,-2,-1,0.0
8.625,-1,-1,-1,-1,-1,-1,-1,0,0.0
8.63,-1,0,0,1,0,-2,-3,-1,0.0
8.635,-1,-3,-1,-1,-4,-1,-1,-1,0.0
8.64,-1,-2,-1,0,-2,-4,-1,-1,0.0
8.645,-1,-2,-1,0,1,1,-2,0,0.0
8.65,0,-3,-1,-2,-1,-1,1,-3,0.0
8.655,0,0,-2,-1,-3,-2,-3,-2,0.0
8.66,0,-1,-3,1,-2,-1,-2,-2,0.0
8.665000000000001,-1,-1,-2,-2,0,1,-1,0,0.0
8.67,1,0,1,0,0,-1,0,1,0.0
8.675,-2,-2,-1,-1,-1,-2,-1,-1,0.0
8.68,-1,-1,-1,-1,-1,-2,-1,-1,0.0
8.685,-1,-1,-1,0,-1,-3,-3,0,0.0
8.69,-2,-1,0,0,0,1,-2,-1,0.0
8.695,-1,-1,-1,-1,0,-1,1,-1,0.0
8.700000000000001,-2,-1,0,0,-1,-1,-2,-1,0.0
8.705,-2,-1,-1,-1,-2,-1,-1,-1,0.0
8.71,-1,-2,-1,-2,0,-2,-1,0,0.0
8.715,0,0,-1,-1,0,-1,-1,0,0.0
8.72,0,-1,-2,-1,0,0,0,-3,0.0
8.725,0,-2,-1,-2,-4,-1,-1,-2,0.0
8.73,-2,1,0,-2,-2,0,-1,0,0.0
8.735,-1,-1,-1,-1,-1,0,-1,-3,0.0
8.74,0,-2,-1,0,-1,0,-1,1,0.0
8.745000000000001,-1,0,-1,-3,-1,-2,-2,0,0.0
8.75,-2,1,-3,0,0,-1,-2,-2,0.0
8.755,-1,-2,0,1,0,0,0,0,0.0
8.76,-3,0,-1,-3,-2,-2,0,0,0.0
8.765,-2,-3,0,1,-2,-2,0,-3,0.0
8.77,0,-2,-1,2,0,-3,0,-1,0.0
8.775,-1,0,0,-1,-1,3,2,-1,0.0
8.78,-3,-2,-1,-2,-1,-2,-1,0,0.0
8.785,-1,0,0,4,2,-1,-1,-1,0.0
8.790000000000001,0,0,-1,-1,1,0,-2,-2,0.0
8.795,0,-1,-3,-9,-4,-4,0,1,0.0
8.8,0,-1,1,-3,-3,-1,-1,0,0.0
8.805,-2,-1,-1,1,1,0,0,-3,0.0
8.81,-3,-2,-3,4,-7,-5,-2,-1,0.0
8.815,-1,0,-1,3,-3,-5,-2,-2,0.0
8.82,-1,1,-3,2,2,5,0,-1,0.0
8.825000000000001,-2,-1,0,-4,4,-2,0,-2,0.0
8.83,0,0,-3,10,14,9,-1,-2,0.0
8.835,-2,-2,-1,15,-8,-10,-3,-3,0.0
8.84,-2,4,4,-15,-7,12,-6,-1,0.0
8.845,-3,-23,0,22,-1,-26,-3,-3,0.0
8.85,-8,-10,-3,-9,-17,-7,3,2,0.0
8.855,-2,-2,35,21,27,11,1,2,0.0
8.86,-3,0,-36,-31,-29,-9,-3,-2,0.0
8.865,-1,-6,0,5,85,72,-6,-3,0.0
8.870000000000001,1,-12,-21,-27,-44,-55,-6,-5,0.0
8.875,4,26,10,-19,-48,-32,0,1,0.0
8.88,-17,-72,-4,-15,21,-17,4,-1,0.0
8.885,20,55,32,9,7,36,10,8,0.0
8.89,-7,3,23,-14,14,-10,-2,-2,0.0
8.895,-12,-49,26,-6,-21,16,-6,-4,0.0
8.9,3,-38,-48,-19,-12,-12,-7,-5,0.0
8.905,-11,-7,13,11,-5,-18,-4,-6,0.0
8.91,4,-2,-33,11,21,29,4,4,0.0
8.915000000000001,5,18,10,-11,0,-12,-3,-2,0.0
8.92,8,19,23,75,14,-3,-2,-1,0.0
8.925,-21,-70,-7,-88,-53,-14,-2,-5,0.0
8.93,7,10,-31,-15,-11,12,3,1,0.0
8.935,-5,-27,35,-6,13,3,-1,-2,0.0
8.94,1,38,-14,9,11,1,2,1,0.0
8.945,1,-14,4,16,2,-5,-5,-2,0.0
8.950000000000001,-4,-8,11,16,-7,-10,-5,-2,0.0
8.955,4,23,-1,1,21,5,2,1,0.0
8.96,-3,-7,16,-11,-12,0,0,-3,0.0
8.965,4,26,-16,-10,-28,-24,2,5,0.0
8.97,0,-6,22,10,19,14,-5,-2,0.0
8.975,0,10,-30,3,-4,8,1,2,0.0
8.98,6,17,30,15,16,10,2,2,0.0
8.985,-6,-21,-32,-7,-33,-18,-2,-2,0.0
8.99,4,33,7,-1,29,25,-1,-1,0.0
8.995000000000001,-4,-26,-12,-30,-25,-20,-3,-2,0.0
9.0,-6,-8,1,-13,1,19,1,-1,0.0
9.005,4,16,-2,3,-5,-14,-1,-1,0.0
9.01,0,-6,19,28,2,-6,0,-1,0.0
9.015,3,1,-7,17,8,9,0,-1,0.0
9.02,-1,8,-23,-59,-14,-10,-2,0,0.0
9.025,-6,-22,-63,13,11,2,-2,-1,0.0
9.03,-3,-5,14,15,-10,0,0,-3,0.0
9.035,-1,-4,-42,-43,-5,-4,-3,-3,0.0
9.040000000000001,2,5,43,27,-2,-8,-1,-1,0.0
9.045,2,-9,21,4,4,10,3,1,0.0
9.05,-4,6,24,8,-6,-6,-2,-2,0.0
9.055,-1,-21,-64,6,2,-5,-2,-3,0.0
9.06,1,5,16,-41,2,2,-3,-2,0.0
9.065,4,17,76,105,0,-2,1,2,0.0
9.07,1,-4,-56,6,2,6,1,0,0.0
9.075000000000001,-2,0,6,27,-12,-7,-2,1,0.0
9.08,-1,14,39,40,0,-2,-3,-4,0.0
9.085,4,24,77,54,10,0,1,1,0.0
9.09,-1,-5,-4,-32,0,-2,0,1,0.0
9.095,-4,-13,16,-23,6,3,-5,-5,0.0
9.1,0,30,-112,-61,-15,-5,-1,-1,0.0
9.105,6,6,-10,-13,3,-1,2,3,0.0
9.11,5,5,-70,-56,-2,2,0,1,0.0
9.115,-5,-5,88,36,-3,-6,-5,-5,0.0
9.120000000000001,-9,-46,-39,25,1,-6,-1,-4,0.0
9.125,-25,-52,19,-128,-24,-9,-10,-10,0.0
9.13,9,33,15,8,1,1,2,4,0.0
9.135,5,10,19,4,9,7,3,1,0.0
9.14,1,4,-5,30,11,5,3,11,0.0
9.145,4,25,45,45,5,1,-2,-2,0.0
9.15,-9,-27,-44,-2,-12,-14,-10,-8,0.0
9.155,2,20,13,-5,10,10,9,6,0.0
9.16,3,1,44,50,4,3,3,3,0.0
9.165000000000001,-6,-6,-69,-49,-7,-6,-3,-5,0.0
9.17,0,-2,19,-25,-7,-4,-1,0,0.0
9.175,-1,11,3,41,5,1,-2,-2,0.0
9.18,-2,-4,-4,17,0,-2,-2,-1,0.0
9.185,3,4,4,6,4,0,-1,2,0.0
9.19,6,-2,42,27,1,-1,-1,-1,0.0
9.195,-4,-4,-4,11,-2,-4,-4,-1,0.0
9.200000000000001,-4,-15,-48,-39,-13,-6,-6,-7,0.0
9.205,-1,8,-11,-13,1,0,1,2,0.0
9.21,-2,3,48,33,7,2,4,-2,0.0
9.215,0,-14,-62,-41,-10,-8,-6,8,0.0
9.22,1,6,33,-7,1,1,0,-2,0.0
9.225,8,11,-24,8,-3,-2,-1,1,0.0
9.23,-10,-23,0,20,-6,-3,-4,-3,0.0
9.235,1,6,-12,-5,7,2,0,-2,0.0
9.24,-2,-10,35,-16,4,0,-1,-2,0.0
9.245000000000001,0,-9,-54,24,-1,-3,-4,-3,0.0
9.25,-12,-15,0,-38,-13,-3,-2,-1,0.0
9.255,0,8,8,-2,0,-2,0,-3,0.0
9.26,5,0,12,19,-2,3,7,4,0.0
9.265,0,5,-46,-16,-4,-6,-12,0,0.0
9.27,8,5,7,9,3,-1,4,6,0.0
9.275,-4,-9,-44,-16,-7,-9,-19,-9,0.0
9.28,-1,-5,49,9,-1,1,2,-4,0.0
9.285,2,3,24,1,4,4,4,8,0.0
9.290000000000001,-2,-1,25,46,0,0,5,3,0.0
9.295,-9,-16,-100,-83,-8,1,5,4,0.0
9.3,-2,-1,-9,6,-3,1,10,-21,0.0
9.305,-1,0,35,13,-3,-11,-7,-15,0.0
9.31,-11,1,27,0,2,0,-4,-6,0.0
9.315,-29,-4,92,56,8,6,-2,-8,0.0
9.32,-4,3,-16,-9,-4,-8,-8,-1,0.0
9.325000000000001,-9,-20,-33,-19,-10,2,8,0,0.0
9.33,3,13,0,-4,1,-2,-2,-2,0.0
9.335,13,5,-25,-9,3,0,1,5,0.0
9.34,-6,-3,28,8,-3,-2,0,-21,0.0
9.345,0,9,2,14,9,4,-5,18,0.0
9.35,-5,-19,-23,-19,-8,-7,-1,-34,0.0
9.355,4,1,9,21,3,9,19,14,0.0
9.36,10,2,2,-4,0,-10,-16,9,0.0
9.365,-2,-3,-45,-20,-4,0,9,-10,0.0
9.370000000000001,13,-2,30,-8,-2,3,7,8,0.0
9.375,-15,4,-43,30,3,-4,-11,-18,0.0
9.38,0,-5,-51,-31,-3,1,-53,5,0.0
9.385,2,-2,54,-5,-8,5,27,44,0.0
9.39,-8,-1,-38,-28,2,-21,-69,-42,0.0
9.395,3,7,55,18,-4,-4,42,20,0.0
9.4,3,-4,-42,22,-1,-1,4,24,0.0
9.405,3,9,9,3,5,5,3,-1,0.0
9.41,6,6,7,3,3,17,20,52,0.0
9.415000000000001,8,-2,-5,-6,1,0,-35,-37,0.0
9.42,-12,1,9,-8,1,-4,32,7,0.0
9.425,1,-7,15,-6,-4,-3,3,-4,0.0
9.43,-6,-12,-12,16,-3,-2,10,-2,0.0
9.435,4,0,-26,2,-1,-2,-19,3,0.0
9.44,1,-2,-17,-1,-1,4,11,12,0.0
9.445,-11,-6,-3,5,-4,-8,-12,-27,0.0
9.450000000000001,-2,-2,-15,-53,-6,-5,-2,-3,0.0
9.455,1,-6,20,9,1,4,7,14,0.0
9.46,-1,1,-6,1,1,1,-1,-11,0.0
9.465,1,6,-6,-20,-1,-5,-11,-8,0.0
9.47,-3,7,39,28,2,3,7,5,0.0
9.475,4,-3,-71,-51,1,6,-1,3,0.0
9.48,-5,2,81,6,-6,-13,-9,-13,0.0
9.485,-1,0,-14,18,3,-1,-11,-4,0.0
9.49,-3,-5,10,10,-2,1,5,13,0.0
9.495000000000001,1,2,8,-7,1,4,13,-3,0.0
9.5,0,5,5,7,3,2,-6,-3,0.0
9.505,0,10,5,-1,1,2,-2,4,0.0
9.51,0,-6,1,-5,-2,-2,6,-5,0.0
9.515,-1,5,28,17,-2,-4,-5,-4,0.0
9.52,3,9,-11,-14,-6,-2,-1,0,0.0
9.525,-5,1,-11,5,-2,-5,-3,-8,0.0
9.53,1,6,32,23,4,4,6,2,0.0
9.535,-6,-7,-30,-11,-6,-6,-6,-3,0.0
9.540000000000001,-1,-3,2,-44,-3,-1,4,4,0.0
9.545,-3,-9,-3,-1,-2,-2,-2,-8,0.0
9.55,0,2,-3,7,-3,-3,-2,-5,0.0
9.555,1,-1,19,8,0,2,4,10,0.0
9.56,-6,-6,2,21,0,-4,-6,-5,0.0
9.565,8,1,4,8,3,4,8,1,0.0
9.57,-3,-6,-25,-15,-6,-10,-20,-4,0.0
9.575000000000001,4,-2,21,-1,-6,-4,-6,-3,0.0
9.58,-4,-4,-14,0,4,2,5,-4,0.0
9.585,-5,1,15,7,4,2,-3,2,0.0
9.59,-2,-3,-17,3,5,3,10,15,0.0
9.595,1,2,-9,-2,-2,0,-2,-43,0.0
9.6,-2,-8,5,5,-5,-4,-3,6,0.0
9.605,0,1,-7,-1,-3,-2,2,2,0.0
9.61,1,1,-17,-10,-5,-2,-3,-3,0.0
9.615,-4,-3,12,8,0,-5,-8,5,0.0
9.620000000000001,-1,-5,-11,0,3,2,-6,2,0.0
9.625,-4,-4,4,6,2,-2,1,-23,0.0
9.63,2,3,-7,-4,3,9,14,7,0.0
9.635,-2,1,6,-3,-3,-16,-20,-5,0.0
9.64,3,-2,-8,2,-1,5,7,5,0.0
9.645,-5,-7,-12,-14,-11,-14,-28,1,0.0
9.65,-3,-4,1,-2,-5,4,11,-4,0.0
9.655,4,0,4,7,7,6,15,15,0.0
9.66,1,6,7,4,5,3,6,-12,0.0
9.665000000000001,-1,0,6,-1,0,2,8,7,0.0
9.67,-6,-2,-14,-7,-5,-12,-28,-22,0.0
9.675,3,4,14,-2,-3,0,4,9,0.0
9.68,-2,-1,-4,-1,-5,-4,-3,0,0.0
9.685,0,-1,0,3,-1,2,1,2,0.0
9.69,-5,-3,-1,0,0,-3,1,-2,0.0
9.695,0,-2,-4,1,6,3,11,6,0.0
9.700000000000001,3,7,1,3,2,1,-10,-1,0.0
9.705,3,6,6,-5,-1,-3,3,-1,0.0
9.71,0,-5,-4,-1,-4,-2,-2,-1,0.0
9.715,-3,-6,-4,-5,-6,0,0,-3,0.0
9.72,-2,-1,-1,-2,-5,-4,-1,-1,0.0
9.725,-1,-3,-5,-5,-3,1,-3,-1,0.0
9.73,1,-4,-8,1,4,-1,0,1,0.0
9.735,-3,2,28,2,-3,-3,3,-1,0.0
9.74,0,2,1,16,3,0,12,-2,0.0
9.745000000000001,-2,-4,-8,-4,-2,-7,-17,0,0.0
9.75,1,-1,-12,-3,-2,1,5,2,0.0
9.755,-2,0,3,-4,-6,1,-2,-1,0.0
9.76,-3,-1,0,-5,-3,-1,2,1,0.0
9.765,0,-4,-4,-4,-1,2,7,-1,0.0
9.77,2,0,6,8,4,3,7,8,0.0
9.775,-3,6,-2,3,5,-5,-22,-7,0.0
9.78,1,2,0,-1,-1,0,-1,0,0.0
9.785,-4,-2,-5,-5,-4,-2,-1,-2,0.0
9.790000000000001,-5,-4,2,2,-5,-4,0,1,0.0
9.795,0,-7,-7,1,-3,0,-2,1,0.0
9.8,1,-4,1,-2,-3,-1,-3,-1,0.0
9.805,1,-1,3,-1,-5,-3,2,3,0.0
9.81,-2,1,3,-1,-2,0,0,-4,0.0
9.815,1,2,-10,3,14,2,6,2,0.0
9.82,-2,-4,3,0,-2,0,-3,6,0.0
9.825000000000001,-1,-2,-3,0,0,-3,3,-26,0.0
9.83,-2,-7,-8,-4,-5,-6,-10,-3,0.0
9.835,-1,-5,-1,-4,-9,-3,0,-3,0.0
9.84,-1,2,-10,-8,0,1,2,2,0.0
9.845,-1,5,1,8,3,1,2,6,0.0
9.85,-1,-3,-2,-1,-1,0,-2,-5,0.0
9.855,-2,-1,-3,1,0,-1,-1,2,0.0
9.86,-3,-1,1,-1,-1,-1,1,-2,0.0
9.865,0,1,-10,-5,-4,-2,-6,3,0.0
9.870000000000001,-2,-2,-10,-2,1,-1,-2,-5,0.0
9.875,-3,-3,-3,-3,-7,0,3,1,0.0
9.88,-2,1,3,0,-2,-1,2,-4,0.0
9.885,-3,-2,16,3,3,0,-5,2,0.0
9.89,1,6,8,-6,-3,-2,-3,0,0.0
9.895,1,2,-7,-4,-11,-1,2,-1,0.0
9.9,0,-4,1,1,-1,-2,3,18,0.0
9.905,-2,-3,8,7,15,3,-13,-50,0.0
9.91,0,-1,0,-7,-6,-4,0,-2,0.0
9.915000000000001,-2,-3,4,5,-1,0,0,0,0.0
9.92,-1,-3,1,1,-5,-1,-2,-3,0.0
9.925,1,1,-4,-5,-5,0,2,19,0.0
9.93,-1,-3,-5,1,0,1,0,-2,0.0
9.935,-1,0,-8,-5,-5,-2,-3,-8,0.0
9.94,-3,-1,5,1,-1,0,1,-6,0.0
9.945,-1,-4,-2,-2,-3,-2,-3,6,0.0
9.950000000000001,0,1,0,-5,-1,-2,-1,-5,0.0
9.955,0,0,-2,2,0,-3,1,7,0.0
9.96,-2,0,4,0,6,1,1,-6,0.0
9.965,-2,-4,-6,-2,-2,-1,3,7,0.0
9.97,-2,5,-9,-2,-4,-1,-2,0,0.0
9.975,0,-4,-18,-11,-6,-3,-3,-1,0.0
9.98,-4,-3,-2,9,3,-4,-6,-6,0.0
9.985,-1,0,-10,0,-2,0,1,4,0.0
9.99,-1,-7,4,2,3,2,1,0,0.0
9.995000000000001,-2,-2,0,-4,1,2,2,-2,0.0
10.0,1,-1,-9,-6,-4,-3,-6,-6,0.0
10.005,-2,-3,-4,-2,-4,-1,0,8,0.0
10.01,0,2,-7,-2,-3,0,-2,0,0.0
10.015,-2,-10,3,2,0,2,6,1,0.0
10.02,0,-2,-1,-6,-5,-6,-10,-9,0.0
10.025,-1,0,-3,-1,-1,-3,1,2,0.0
10.03,-1,-1,6,0,2,1,3,1,0.0
10.035,-2,-4,6,1,1,-4,-10,-6,0.0
10.040000000000001,-1,-2,-6,-7,-4,-3,2,0,0.0
10.045,2,2,-4,-3,-4,-2,-2,-2,0.0
10.05,-2,-3,0,-4,-2,0,0,-2,0.0
10.055,-1,4,-1,-1,-2,-2,-2,0,0.0
10.06,-3,0,-5,7,1,0,1,0,0.0
10.065,-2,0,-4,1,0,-1,-3,-3,0.0
10.07,0,-4,0,-2,0,-3,-1,1,0.0
10.075000000000001,-2,-1,0,-2,3,1,-1,-1,0.0
10.08,2,3,-2,-4,-3,0,-1,-1,0.0
10.085,-2,-4,-1,-3,-3,-2,-9,-2,0.0
10.09,-2,-3,3,1,-2,-2,-2,-2,0.0
10.095,0,3,0,1,-1,-2,3,0,0.0
10.1,-1,-2,-4,-4,-2,-2,-3,-3,0.0
10.105,-2,-2,1,1,0,1,4,3,0.0
10.11,0,-1,-6,-2,-3,-1,-2,-1,0.0
10.115,0,-1,-4,-4,0,0,0,-3,0.0
10.120000000000001,-4,1,-3,1,1,-1,-3,0,0.0
10.125,-1,1,0,-4,-7,-4,-1,-2,0.0
10.13,-1,2,-1,1,4,3,0,0,0.0
10.135,-2,-3,-3,1,5,-1,-1,-3,0.0
10.14,0,2,6,3,0,0,2,-1,0.0
10.145,-1,-8,-21,-6,-3,-2,1,1,0.0
10.15,-2,0,6,0,-4,-3,-3,-3,0.0
10.155,1,2,2,-1,-4,0,0,0,0.0
10.16,-1,-4,1,-2,1,2,0,0,0.0
10.165000000000001,-1,3,6,-1,-4,-4,0,-1,0.0
10.17,0,0,0,2,1,0,4,1,0.0
10.175,-1,-3,6,1,-2,-2,-11,-5,0.0
10.18,0,0,0,-3,-2,-3,-2,-1,0.0
10.185,2,4,-1,-1,0,0,0,1,0.0
10.19,-1,-4,-2,-2,-3,-1,0,-2,0.0
10.195,-1,1,2,2,-1,-1,0,1,0.0
10.200000000000001,-4,-3,-4,-5,-5,-2,-2,-1,0.0
10.205,-3,-5,1,-2,0,1,-1,-2,0.0
10.21,-1,-1,4,3,2,-1,-2,1,0.0
10.215,0,2,-3,0,-2,-4,-2,1,0.0
10.22,-2,1,-1,-1,-3,-3,0,-6,0.0
10.225,0,-5,0,0,0,1,2,2,0.0
10.23,-1,5,1,-6,-4,-5,-7,-6,0.0
10.235,0,-4,-6,-3,-1,0,4,-1,0.0
10.24,-1,-3,-3,-2,-1,2,0,2,0.0
10.245000000000001,-1,-2,1,-3,0,-1,-2,-1,0.0
10.25,-3,-9,1,-2,-4,-2,0,-4,0.0
10.255,-2,-1,0,0,-2,-1,0,-1,0.0
10.26,-1,-8,-7,-6,-1,-3,-2,-2,0.0
10.265,-2,1,1,-4,-5,-1,1,-1,0.0
10.27,1,1,-4,-2,3,0,0,1,0.0
10.275,-1,1,3,7,4,0,0,0,0.0
10.28,-2,-5,1,1,2,2,-1,0,0.0
10.285,-1,1,7,3,3,1,2,2,0.0
10.290000000000001,-1,1,-5,-4,-4,-4,-2,-8,0.0
10.295,-1,-1,-3,-1,-3,-1,-2,-1,0.0
10.3,-1,-1,-3,0,-3,-1,-1,0,0.0
10.305,-1,1,-4,0,-2,-2,-4,-2,0.0
10.31,-1,-4,-7,-2,-2,-1,-1,2,0.0
10.315,-3,-7,-5,-4,-1,1,5,-1,0.0
10.32,-1,-2,2,1,0,-1,-1,-1,0.0
10.325000000000001,1,-2,-8,-1,-1,-2,0,-2,0.0
10.33,-3,-1,2,6,2,1,2,0,0.0
10.335,-3,-2,-6,-9,-6,-3,-7,-3,0.0
10.34,-2,-4,-7,-6,-6,0,1,-3,0.0
10.345,-3,-2,3,1,-1,0,-2,-2,0.0
10.35,-1,-3,-2,3,2,2,0,1,0.0
10.355,-1,-4,5,3,1,-1,-2,-1,0.0
10.36,-2,0,4,0,2,0,0,0,0.0
10.365,1,2,-1,-1,0,0,0,-2,0.0
10.370000000000001,-2,-3,-12,-5,-3,-1,-1,-2,0.0
10.375,-2,-1,1,-3,-2,-1,1,0,0.0
10.38,1,3,2,0,-2,0,-1,0,0.0
10.385,-2,-2,-5,0,-1,-1,-1,0,0.0
10.39,1,7,5,0,-3,-6,-13,-4,0.0
10.395,0,-1,-6,-1,-5,-1,0,-1,0.0
10.4,1,1,-3,-3,1,-2,0,-1,0.0
10.405,0,-3,1,1,5,1,4,0,0.0
10.41,1,4,-3,-4,-4,-1,0,-2,0.0
10.415000000000001,1,-1,-5,-5,-5,-3,-3,-1,0.0
10.42,-1,-2,2,3,-1,1,1,-1,0.0
10.425,-3,-5,-12,-5,-2,-2,-6,-4,0.0
10.43,-3,-8,-1,-9,-6,-2,2,-2,0.0
10.435,-2,0,-4,2,3,0,1,-1,0.0
10.44,-3,-5,-2,7,6,-1,-1,-1,0.0
10.445,-1,-3,1,-2,-5,-3,-3,-2,0.0
10.450000000000001,-3,-2,-7,-3,-2,0,1,1,0.0
10.455,1,3,-1,-4,-1,-3,-2,-2,0.0
10.46,-2,5,-5,-8,-5,-3,-2,-2,0.0
10.465,-2,-3,6,1,0,-1,0,1,0.0
10.47,2,-2,0,1,-1,-2,-1,-1,0.0
10.475,0,2,6,-1,-1,-2,-1,-1,0.0
10.48,0,0,1,-2,-1,0,-1,-3,0.0
10.485,1,2,-1,3,0,0,-2,1,0.0
10.49,-1,1,2,-6,-1,0,1,1,0.0
10.495000000000001,1,0,-15,4,6,2,2,1,0.0
10.5,1,-4,-4,-1,-3,-3,-3,-2,0.0
10.505,0,2,-1,-4,-4,-3,2,-3,0.0
10.51,-1,1,-2,0,-2,0,1,0,0.0
10.515,-1,-1,1,-1,0,-2,0,-2,0.0
10.52,-2,-4,3,-1,-3,-1,-1,-1,0.0
10.525,0,3,-6,-3,-4,-2,0,-1,0.0
10.53,0,1,3,5,4,1,-1,2,0.0
10.535,-2,-1,3,-2,-4,-2,-2,-2,0.0
10.540000000000001,-1,-5,-4,-2,-1,-3,-2,-1,0.0
10.545,0,-3,-3,-3,0,-1,-3,-1,0.0
10.55,-1,4,5,6,3,-1,-1,-1,0.0
10.555,2,-1,-6,-5,0,0,-1,0,0.0
10.56,0,0,-3,-4,-6,-3,-2,1,0.0
10.565,-4,0,2,-2,1,0,-1,-1,0.0
10.57,-3,-7,-9,1,0,0,-2,-2,0.0
10.575000000000001,1,0,-1,4,0,-2,-2,-2,0.0
10.58,0,3,-5,-7,-7,-2,-2,-2,0.0
10.585,-3,-2,3,-6,-4,-1,0,-2,0.0
10.59,0,-3,2,1,7,1,-1,1,0.0
10.595,-4,-3,-4,-2,-3,0,-1,-1,0.0
10.6,-2,-2,1,1,1,0,-1,0,0.0
10.605,-1,-1,1,1,-2,-1,0,-1,0.0
10.61,-2,-4,-5,-5,-4,-4,-5,-1,0.0
10.615,-3,-8,-12,-3,0,-5,-1,-4,0.0
10.620000000000001,-2,-2,7,-3,-4,2,2,0,0.0
10.625,-1,0,1,1,0,1,1,-1,0.0
10.63,-2,-1,6,4,-3,-4,-10,-1,0.0
10.635,-1,2,9,-1,2,1,-1,2,0.0
10.64,-1,0,3,-5,-9,-3,-1,1,0.0
10.645,0,-1,-2,10,6,2,-1,-1,0.0
10.65,1,2,1,1,8,2,2,-3,0.0
10.655,-1,1,5,0,-5,-2,2,-3,0.0
10.66,-3,-4,-1,0,1,0,-2,-2,0.0
10.665000000000001,-1,-3,-1,-7,-8,-4,-3,0,0.0
10.67,2,1,-3,-4,-4,-1,1,-1,0.0
10.675,0,-3,-2,-1,0,1,-3,0,0.0
10.68,-2,-1,-2,1,2,-4,0,-4,0.0
10.685,-2,1,0,-1,-1,-3,-1,-2,0.0
10.69,1,2,-6,-3,-4,-1,7,0,0.0
10.695,-1,0,-1,-2,-2,-1,-10,0,0.0
10.700000000000001,-1,3,-2,-3,-1,0,0,-1,0.0
10.705,-1,-5,-7,0,5,-1,3,-1,0.0
10.71,-2,5,15,4,0,-1,-4,0,0.0
10.715,-1,-2,-1,-3,-7,0,2,2,0.0
10.72,0,-1,1,1,0,-2,-1,-6,0.0
10.725,0,0,5,2,-1,0,1,0,0.0
10.73,0,5,0,-2,0,-2,1,0,0.0
10.735,-1,-3,0,0,-2,-2,1,4,0.0
10.74,-2,3,-3,0,-1,0,-10,-16,0.0
10.745000000000001,-2,-4,-2,-2,-4,-2,-4,5,0.0
10.75,0,-5,-10,-5,-7,-2,5,0,0.0
10.755,-1,1,-4,-2,0,-2,0,-6,0.0
10.76,0,-6,-6,2,3,1,3,9,0.0
10.765,-4,-3,-6,-1,-3,0,-3,-3,0.0
10.77,-3,-1,-1,1,2,-2,-4,-4,0.0
10.775,-2,2,7,-1,-1,1,1,5,0.0
10.78,0,-7,-1,-3,-4,-1,0,5,0.0
10.785,-4,0,-4,-2,-2,-2,1,-11,0.0
10.790000000000001,-1,-6,-3,-4,-3,-3,-4,0,0.0
10.795,0,3,0,0,-1,1,0,-2,0.0
10.8,-2,-2,2,1,2,-5,-8,-2,0.0
10.805,0,-4,-2,-2,-2,0,0,2,0.0
10.81,-2,-1,-2,-1,-1,0,-1,-6,0.0
10.815,0,-2,-2,2,2,-2,-3,-3,0.0
10.82,-2,2,1,-1,-2,0,2,1,0.0
10.825000000000001,2,1,0,-3,0,-2,0,2,0.0
10.83,-3,-6,-2,-1,-2,-4,-8,-4,0.0
10.835,-1,-3,-4,-2,1,2,4,-2,0.0
10.84,-1,0,-1,-1,-3,-3,-6,-2,0.0
10.845,1,2,-1,-5,-1,0,-2,2,0.0
10.85,-2,-4,-2,8,9,5,5,1,0.0
10.855,-2,-1,-2,-4,-7,-4,-2,-5,0.0
10.86,-1,0,-1,-1,-1,-5,-4,2,0.0
10.865,0,3,-1,1,2,1,6,-2,0.0
10.870000000000001,-1,-2,-8,-5,-6,-2,-7,-1,0.0
10.875,-1,-1,0,0,1,-2,1,-1,0.0
10.88,0,5,2,1,1,2,3,1,0.0
10.885,-1,-3,3,-4,-4,-3,-3,-2,0.0
10.89,-3,-4,-7,-4,-5,-1,0,1,0.0
10.895,2,-2,-6,0,2,0,-1,-4,0.0
10.9,-2,-2,1,-1,-1,-2,-6,1,0.0
10.905,-1,1,-1,-1,-1,1,-3,0,0.0
10.91,-2,-5,3,-1,-3,-3,0,-2,0.0
10.915000000000001,-4,-6,-7,-5,-4,-2,-1,-1,0.0
10.92,-1,-3,-5,1,2,-1,1,0,0.0
10.925,-2,-1,2,-1,1,-1,-3,-1,0.0
10.93,-2,-4,4,-5,-6,-3,2,0,0.0
10.935,-2,0,1,1,-1,-1,-2,0,0.0
10.94,1,1,-3,2,2,1,6,0,0.0
10.945,-1,-6,-1,2,0,0,-7,-3,0.0
10.950000000000001,-1,1,1,1,0,-2,1,-3,0.0
10.955,-2,0,2,-1,1,-1,-2,-2,0.0
10.96,-1,1,3,2,0,-1,0,0,0.0
10.965,-2,-4,-2,-2,-7,-3,-1,-2,0.0
10.97,1,-2,-7,-4,2,0,0,-1,0.0
10.975,-1,2,-1,1,0,-1,-3,-1,0.0
10.98,-1,0,-2,-2,-4,0,1,0,0.0
10.985,-2,-5,2,0,-2,0,-1,0,0.0
10.99,-2,2,2,1,0,-1,-4,-1,0.0
10.995000000000001,-1,-3,-6,-2,-1,-1,3,-3,0.0
11.0,-2,-2,0,0,-1,1,1,-2,0.0
11.005,-2,2,2,0,-2,-2,-3,-1,0.0
11.01,-2,2,-4,-3,-3,0,2,0,0.0
11.015,-2,3,3,-3,-1,-1,-7,-2,0.0
11.02,-2,-5,-3,2,-1,-2,2,-1,0.0
11.025,-3,-4,-10,-4,-2,-1,-2,-1,0.0
11.03,-1,-3,-3,-2,-2,-3,-8,-2,0.0
11.035,1,-4,3,4,7,0,2,1,0.0
11.040000000000001,0,-4,-2,-2,-2,-1,-2,0,0.0
11.045,0,0,3,1,-3,-2,4,-1,0.0
11.05,1,6,3,-1,-7,-2,-3,1,0.0
11.055,-3,-1,1,-2,-2,-4,5,0,0.0
11.06,-2,-4,4,-1,0,0,-7,-5,0.0
11.065,-1,-5,-12,1,0,0,-4,-3,0.0
11.07,-2,-2,2,-1,-1,1,5,4,0.0
11.075000000000001,0,1,1,1,-3,4,-1,-3,0.0
11.08,-4,0,-2,1,-3,-9,-4,-6,0.0
11.085,-1,3,5,-4,0,0,2,-1,0.0
11.09,0,-4,-7,-1,3,1,-4,0,0.0
11.095,-2,-4,-1,-1,-2,-5,0,-3,0.0
11.1,-1,0,1,-6,-4,0,-1,0,0.0
11.105,-2,-5,-4,-3,-6,-4,-1,0,0.0
11.11,0,-3,-2,1,0,1,-1,-2,0.0
11.115,0,1,5,0,0,-1,1,3,0.0
11.120000000000001,-2,-7,-6,2,4,0,-2,-6,0.0
11.125,1,5,-3,3,2,-1,-4,0,0.0
11.13,-2,2,-5,-2,3,-2,3,2,0.0
11.135,-2,-3,-4,-5,-9,-1,0,-9,0.0
11.14,0,1,-8,-3,0,-2,-9,2,0.0
11.145,0,2,3,0,6,2,12,2,0.0
11.15,-2,-1,-1,0,-5,-4,-16,-7,0.0
11.155,0,0,-2,0,-2,-3,-5,0,0.0
11.16,-2,-4,-5,-3,-2,3,2,3,0.0
11.165000000000001,0,0,0,-3,-4,-3,-1,-3,0.0
11.17,1,-1,5,2,3,3,4,0,0.0
11.175,-1,-3,-4,-2,-1,-4,-3,1,0.0
11.18,-1,0,1,-1,0,1,2,0,0.0
11.185,0,4,5,0,0,-1,-4,1,0.0
11.19,-1,-2,-1,0,-4,-1,-4,0,0.0
11.195,-3,-4,-2,1,0,1,-8,-13,0.0
11.200000000000001,1,3,3,0,1,0,7,0,0.0
11.205,-2,-1,-1,-3,-3,-1,-3,-1,0.0
11.21,-1,-1,4,1,-5,-3,2,0,0.0
11.215,-1,0,-2,-1,2,2,9,4,0.0
11.22,-2,1,10,3,4,-1,-8,-1,0.0
11.225,-2,-2,-1,-2,-2,0,-3,-3,0.0
11.23,0,-3,-3,-3,0,0,3,-2,0.0
11.235,1,2,1,-1,-1,0,1,2,0.0
11.24,-1,-2,1,-5,-6,-3,1,-1,0.0
11.245000000000001,0,3,-4,0,5,0,-4,1,0.0
11.25,-2,2,-1,0,1,0,-1,-2,0.0
11.255,-2,-3,-4,-1,-2,2,0,2,0.0
11.26,1,0,-3,-2,-2,-3,-5,-2,0.0
11.265,-1,-3,3,-1,-3,-2,1,-3,0.0
11.27,-1,1,-3,-4,0,-2,2,0,0.0
11.275,-3,-2,0,-1,-2,-4,-5,-6,0.0
11.28,-2,-1,-3,0,-1,0,1,-1,0.0
11.285,-1,-6,-3,-1,-1,-2,2,-2,0.0
11.290000000000001,-2,-3,-8,-4,-3,-1,0,-3,0.0
11.295,0,-3,0,-3,0,0,-1,1,0.0
11.3,-1,3,1,1,0,-1,0,-2,0.0
11.305,-1,-5,0,0,-1,0,-3,0,0.0
11.31,0,-1,1,1,1,0,2,0,0.0
11.315,-1,-1,-3,-1,-1,1,4,1,0.0
11.32,-1,0,2,1,0,-4,-12,-2,0.0
11.325000000000001,-1,0,-4,-2,-5,-4,-3,-4,0.0
11.33,-3,-2,-1,0,-1,0,3,0,0.0
11.335,0,-2,-8,-3,2,0,-3,-5,0.0
11.34,-2,1,-1,3,0,1,6,1,0.0
11.345,-1,4,-1,0,0,1,-3,-3,0.0
11.35,-1,-4,-3,-1,-6,-2,-2,-2,0.0
11.355,-2,1,6,0,-2,-3,-10,0,0.0
11.36,-1,-2,-5,-4,-1,-4,-1,-4,0.0
11.365,-1,-3,-5,-1,-1,1,2,0,0.0
11.370000000000001,-1,0,3,-1,-1,1,2,-1,0.0
11.375,-1,2,4,-2,-2,-2,-7,-1,0.0
11.38,0,-4,-4,-3,-1,0,2,-1,0.0
11.385,-2,-5,0,0,-1,-1,-1,3,0.0
11.39,-2,1,0,0,0,-2,1,-2,0.0
11.395,-3,-5,-16,-5,-4,-3,-1,0,0.0
11.4,-1,0,-8,-2,-2,1,0,-1,0.0
11.405,-1,3,-2,-1,1,-1,-1,-1,0.0
11.41,-2,-2,1,-1,-1,-2,-3,-3,0.0
11.415000000000001,-1,-4,2,-2,-5,-2,-3,-1,0.0
11.42,-2,-8,-4,0,3,2,3,2,0.0
11.425,-1,-1,2,-2,-2,0,-2,-1,0.0
11.43,0,-1,-6,-3,-4,-3,-3,-5,0.0
11.435,1,5,4,-1,-4,-1,0,2,0.0
11.44,-4,0,2,-2,-1,0,7,-1,0.0
11.445,-1,-4,0,3,3,-3,-8,-2,0.0
11.450000000000001,0,1,-1,1,0,-1,2,2,0.0
11.455,-4,-3,0,-4,-7,-2,1,-2,0.0
11.46,0,1,-5,-4,-3,-2,1,1,0.0
11.465,-3,-3,-2,-2,1,-3,-1,-2,0.0
11.47,0,2,1,2,0,0,0,0,0.0
11.475,-1,-2,2,1,2,1,-1,-1,0.0
11.48,2,0,1,-2,-5,-2,-3,0,0.0
11.485,-2,1,-1,-1,-2,-1,1,-2,0.0
11.49,-3,-4,6,-1,0,-2,-3,-1,0.0
11.495000000000001,0,-2,-6,-3,-2,-3,0,-3,0.0
11.5,-2,-4,0,0,-2,-1,1,0,0.0
11.505,-2,-1,-2,-1,-2,-1,-3,-1,0.0
11.51,-4,0,4,1,-2,-2,-1,-2,0.0
11.515,-2,0,-5,1,2,0,0,0,0.0
11.52,2,0,-1,-1,-1,-2,-4,-1,0.0
11.525,0,-2,-1,-3,-2,-1,5,0,0.0
11.53,0,-3,1,-2,-3,-5,-9,-4,0.0
11.535,-2,-6,0,3,5,-1,-2,1,0.0
11.540000000000001,-1,0,-1,-1,1,-2,-2,-2,0.0
11.545,2,-2,-1,-1,-1,3,2,1,0.0
11.55,-1,-2,0,-1,0,0,0,0,0.0
11.555,0,-2,4,0,1,0,-2,0,0.0
11.56,-3,-4,-3,-1,-1,1,-2,-1,0.0
11.565,0,0,0,-1,-2,-1,-4,4,0.0
11.57,0,0,-4,-1,-2,-2,-2,-3,0.0
11.575000000000001,0,-2,-7,-6,-5,-3,-2,-1,0.0
11.58,-3,1,-5,-3,-2,-2,0,-2,0.0
11.585,-1,3,-1,3,-1,0,1,1,0.0
11.59,-1,-3,0,-3,-1,0,-2,-4,0.0
11.595,0,4,2,0,-1,-1,0,1,0.0
11.6,-1,-5,-2,-5,-1,-2,-1,-2,0.0
11.605,-1,-4,-1,0,-3,-1,-1,-3,0.0
11.61,-2,0,-4,-1,2,0,0,1,0.0
11.615,-3,3,6,2,3,-1,-2,-6,0.0
11.620000000000001,-1,-2,5,1,-3,-2,-2,0,0.0
11.625,-4,-5,-4,-4,-4,-2,-2,-5,0.0
11.63,1,0,-2,-3,-4,0,1,-1,0.0
11.635,0,-1,2,-2,1,2,1,1,0.0
11.64,0,-3,-2,0,-1,-5,-3,-2,0.0
11.645,-2,2,-3,-2,-1,-2,-4,-4,0.0
11.65,1,4,-2,0,2,2,0,4,0.0
11.655,-4,-7,-2,-4,-5,-2,1,-1,0.0
11.66,0,3,-1,-1,1,1,3,-1,0.0
11.665000000000001,1,-1,-5,-3,-6,-1,0,-1,0.0
11.67,-2,0,-2,1,1,0,4,1,0.0
11.675,-2,-4,4,4,-1,-2,-6,-4,0.0
11.68,0,-3,-6,-2,-4,-1,0,-1,0.0
11.685,-1,-2,0,-4,1,0,-1,-1,0.0
11.69,-1,-5,0,1,4,0,1,0,0.0
11.695,0,-1,-3,-1,-4,-2,-3,-1,0.0
11.700000000000001,0,-2,2,-1,-2,-1,-3,-2,0.0
11.705,0,-3,-4,-2,-3,0,-1,-2,0.0
11.71,-1,-4,-10,-2,-3,-3,0,-3,0.0
11.715,-2,0,-4,-1,0,-1,-1,-1,0.0
11.72,-3,0,-1,1,-2,0,2,-2,0.0
11.725,-1,0,2,-3,-2,-6,-6,-3,0.0
11.73,-1,1,3,1,0,0,-3,2,0.0
11.735,0,0,-4,-4,-1,-1,2,-8,0.0
11.74,-1,-2,-9,-4,-1,-1,-6,0,0.0
11.745000000000001,1,-2,-6,4,3,0,3,-1,0.0
11.75,0,-1,0,-1,-3,-2,-3,-1,0.0
11.755,-2,1,-1,0,-3,-1,0,0,0.0
11.76,-1,-2,-1,-3,0,-2,-2,-1,0.0
11.765,-1,1,5,1,3,1,-2,-2,0.0
11.77,-1,-2,-7,1,-2,-3,-2,-2,0.0
11.775,0,-1,-2,-3,-1,0,-2,1,0.0
11.78,-1,1,3,0,-4,1,-1,-3,0.0
11.785,0,-1,0,-2,-2,-2,0,-2,0.0
11.790000000000001,-1,-2,2,-1,4,1,-2,-4,0.0
11.795,-3,-3,-7,1,-3,-2,0,-1,0.0
11.8,0,2,3,3,1,-2,-1,-1,0.0
11.805,-2,4,7,-1,-2,-2,-2,-2,0.0
11.81,-1,-6,-4,-1,-1,1,1,0,0.0
11.815,1,1,0,0,1,0,-3,2,0.0
11.82,0,-1,-1,-3,-2,-2,-2,0,0.0
11.825000000000001,-2,-4,-1,2,0,0,0,-2,0.0
11.83,-1,-1,0,-4,-1,0,0,-4,0.0
11.835,1,-1,4,3,3,0,0,0,0.0
11.84,-1,0,0,1,0,0,-1,-2,0.0
11.845,-4,-1,-9,-4,-3,-2,-2,0,0.0
11.85,-2,-1,-3,-4,-2,-3,-1,0,0.0
11.855,-1,-3,-2,-5,-4,-2,4,2,0.0
11.86,0,-2,-3,1,-1,-1,-3,0,0.0
11.865,-1,-6,-4,0,1,0,-1,-1,0.0
11.870000000000001,0,3,2,-1,-3,-1,-2,-1,0.0
11.875,-2,2,3,1,4,0,0,-2,0.0
11.88,-1,4,0,-1,-1,0,2,-1,0.0
11.885,1,-1,2,-1,-1,-1,-1,-1,0.0
11.89,0,-1,-1,-3,-2,0,-1,1,0.0
11.895,-1,-3,-8,-3,-5,-1,-5,-2,0.0
11.9,-3,0,4,1,0,-1,1,-2,0.0
11.905,0,-3,-5,-2,3,-2,-2,-1,0.0
11.91,-2,0,1,2,-1,1,0,-1,0.0
11.915000000000001,1,1,1,-2,-1,1,1,1,0.0
11.92,0,-2,-2,1,-3,-3,-2,-1,0.0
11.925,-2,1,0,-1,-4,-4,-6,-2,0.0
11.93,-2,0,0,2,1,-2,2,-1,0.0
11.935,-2,-1,0,-2,-2,-3,-2,0,0.0
11.94,-2,-2,-1,-3,-3,1,2,0,0.0
11.945,-1,-4,2,0,-3,-1,0,-2,0.0
11.950000000000001,-1,1,-4,-2,-3,-5,-3,-3,0.0
11.955,0,-2,-2,-1,-2,0,-3,-1,0.0
11.96,0,-4,-4,1,0,-1,-5,-1,0.0
11.965,-1,0,-5,-1,-2,1,1,0,0.0
11.97,-4,-4,3,-1,0,-3,-2,-3,0.0
11.975,-1,-1,-2,3,-1,-1,-2,0,0.0
11.98,0,1,-1,-3,-1,-1,0,1,0.0
11.985,4,3,-3,-2,2,-1,-2,-2,0.0
11.99,-1,-1,3,0,-4,-2,-1,-3,0.0
11.995000000000001,-2,-5,2,-1,-2,-3,4,-2,0.0
12.0,-2,-1,-2,-2,0,-1,-7,-1,0.0
12.005,-1,-3,-2,-1,1,0,3,0,0.0
12.01,0,0,2,0,-4,-1,0,-1,0.0
12.015,-3,-2,2,1,0,-1,-3,4,0.0
12.02,5,0,-5,0,1,-1,-2,-9,0.0
12.025,-2,-2,-3,-7,-6,-1,3,0,0.0
12.030000000000001,-3,-2,3,-2,-2,-1,-10,-3,0.0
12.035,0,0,1,-1,-3,-2,1,0,0.0
12.040000000000001,-2,1,-2,-3,-3,-1,1,-2,0.0
12.045,-3,-4,0,-2,-3,0,-4,-1,0.0
12.05,-2,-1,-3,0,-2,1,2,1,0.0
12.055,3,2,-5,0,2,0,-4,-3,0.0
12.06,-1,-1,1,-4,-2,-1,0,2,0.0
12.065,-1,1,3,1,-3,-1,0,0,0.0
12.07,-4,-7,-12,-3,-2,-3,0,1,0.0
12.075000000000001,-1,5,-1,-5,-3,-1,-2,-1,0.0
12.08,0,-2,0,0,3,-1,1,-2,0.0
12.085,-3,0,-1,6,4,0,-1,0,0.0
12.09,3,-3,-2,-1,0,1,3,1,0.0
12.095,1,-2,0,-2,-1,-1,-2,-4,0.0
12.1,-4,-4,-1,-4,-4,-1,-3,-1,0.0
12.105,-4,0,1,-7,-5,-1,0,-3,0.0
12.11,0,2,-1,-4,-7,-3,0,-8,0.0
12.115,-5,-4,-3,12,13,1,-3,-8,0.0
12.120000000000001,3,4,4,0,2,3,4,18,0.0
12.125,4,-2,-6,-3,-4,-5,-3,-5,0.0
12.13,-1,2,0,-6,-1,-1,-3,2,0.0
12.135,0,-2,-3,-1,-5,0,1,4,0.0
12.14,-6,-4,-6,0,-2,-4,-3,-9,0.0
12.145,-5,0,2,2,4,2,-3,-15,0.0
12.15,7,1,-3,-3,-4,-2,0,21,0.0
12.155000000000001,-4,0,2,0,-3,-2,-3,-4,0.0
12.16,2,-1,-2,-12,-2,1,3,4,0.0
12.165000000000001,1,-1,-2,7,4,0,0,-1,0.0
12.17,-1,2,3,-10,-3,0,-3,-8,0.0
12.175,-3,-4,-1,13,3,-3,0,-1,0.0
12.18,-2,-1,-3,-4,0,0,-1,5,0.0
12.185,-6,-8,-5,-6,-6,-5,-6,-5,0.0
12.19,0,0,0,8,2,-1,-1,-3,0.0
12.195,1,-1,-4,-25,-8,-4,-2,6,0.0
12.200000000000001,0,-1,2,6,1,-1,-2,-7,0.0
12.205,1,0,-4,0,0,0,2,5,0.0
12.21,-3,-1,-3,-2,2,-2,-1,0,0.0
12.215,-4,-4,-1,-1,-4,-2,-2,-4,0.0
12.22,-1,-2,-1,-1,-3,-3,-3,-5,0.0
12.225,1,5,5,-3,-1,2,2,5,0.0
12.23,-3,-5,1,5,3,-2,-1,-2,0.0
12.235,0,0,-4,-8,-5,0,0,-1,0.0
12.24,-3,-3,2,-1,2,-2,-1,-2,0.0
12.245000000000001,-2,-4,-7,-1,-2,0,-2,3,0.0
12.25,-5,1,3,-18,-4,0,-3,-12,0.0
12.255,4,1,-1,3,5,2,3,8,0.0
12.26,-2,3,-1,2,-1,0,-1,-1,0.0
12.265,-2,0,-3,-1,-2,-2,0,2,0.0
12.27,-4,-6,-4,1,-3,-1,-1,-5,0.0
12.275,-4,-4,-2,4,-1,-2,-3,-1,0.0
12.280000000000001,0,-4,-8,-6,-4,-3,-3,0,0.0
12.285,0,-1,4,2,2,-1,0,-2,0.0
12.290000000000001,1,-3,-3,3,5,0,-1,1,0.0
12.295,-1,-1,-1,-7,-8,-2,-1,-2,0.0
12.3,-1,-1,0,4,-4,-2,0,-3,0.0
12.305,1,5,2,-7,-4,1,-1,0,0.0
12.31,-1,0,-1,4,0,-2,-1,-1,0.0
12.315,-1,-1,2,7,0,-2,-2,-3,0.0
12.32,-5,-4,-2,-9,-1,-1,-1,-2,0.0
12.325000000000001,-1,-1,4,0,1,-1,-1,1,0.0
12.33,1,0,1,4,1,-1,0,1,0.0
12.335,-4,-1,-8,-8,-5,-2,-2,-2,0.0
12.34,-5,-2,-2,8,2,0,-1,-3,0.0
12.345,5,-4,-7,-14,-4,0,-1,1,0.0
12.35,1,5,0,-1,0,0,0,-2,0.0
12.355,-1,5,4,-3,2,-1,0,10,0.0
12.36,-2,-4,-1,1,-1,-2,-7,-35,0.0
12.365,-4,-3,0,3,0,-1,1,2,0.0
12.370000000000001,-3,-3,-4,0,-3,-1,0,-2,0.0
12.375,2,0,3,4,1,0,-2,0,0.0
12.38,-1,2,0,-2,0,1,1,7,0.0
12.385,-3,-3,0,3,0,-3,-4,1,0.0
12.39,-1,-6,-5,-5,-4,-2,-4,-5,0.0
12.395,-1,-2,-1,2,2,1,-2,-2,0.0
12.4,3,4,-1,-7,-5,-3,0,5,0.0
12.405000000000001,-2,-1,0,0,-5,-2,0,-3,0.0
12.41,-1,-2,-1,4,0,-2,0,6,0.0
12.415000000000001,-2,-1,1,-3,2,0,-1,-4,0.0
12.42,5,-3,2,18,6,0,-1,5,0.0
12.425,-1,-1,-2,-14,-5,0,0,0,0.0
12.43,-1,3,3,2,-2,-2,-1,-2,0.0
12.435,-3,-2,1,-3,-4,-1,-2,-5,0.0
12.44,-2,-4,-1,10,2,-1,-1,1,0.0
12.445,1,1,1,6,2,-1,2,13,0.0
12.450000000000001,-2,-3,-3,-1,-4,-2,-8,-39,0.0
12.455,-2,-2,-1,-20,-7,-4,-2,0,0.0
12.46,-1,1,2,-6,0,-1,2,6,0.0
12.465,-1,-6,-7,5,5,1,-1,-2,0.0
12.47,-3,1,-2,-4,-3,0,1,9,0.0
12.475,-1,-1,0,5,-3,-1,-3,-1,0.0
12.48,-2,0,-1,-13,-8,-3,-2,-7,0.0
12.485,0,-2,0,0,-1,0,-1,-2,0.0
12.49,2,-2,-2,1,3,-2,-1,6,0.0
12.495000000000001,0,-2,-2,8,0,1,-3,-5,0.0
12.5,-2,-2,0,0,1,0,-1,7,0.0
12.505,-4,0,0,4,0,0,-2,-5,0.0
12.51,-2,-5,-6,-3,-1,-1,0,5,0.0
12.515,0,2,2,-3,-2,-1,1,0,0.0
12.52,5,5,-2,-1,-1,-1,-2,-2,0.0
12.525,-7,-4,-4,5,-3,-4,-3,-5,0.0
12.530000000000001,-3,0,3,10,4,2,0,2,0.0
12.535,-3,-2,-2,-24,-7,-2,-1,-1,0.0
12.540000000000001,-3,-1,-1,-9,-6,0,-1,0,0.0
12.545,1,5,3,12,3,0,-2,-5,0.0
12.55,0,2,6,6,-1,-2,-1,2,0.0
12.555,-4,-4,-7,5,1,-4,-3,-3,0.0
12.56,0,-2,-4,-12,-2,0,-1,0,0.0
12.565,-2,0,1,-6,-4,-1,-1,0,0.0
12.57,-2,1,-3,2,1,0,-1,0,0.0
12.575000000000001,2,1,3,5,2,0,-1,-2,0.0
12.58,-5,-6,1,-2,-3,1,-3,2,0.0
12.585,-1,1,0,-3,-3,-4,-3,-8,0.0
12.59,0,-3,-2,-5,-3,-2,2,11,0.0
12.595,-2,-3,-5,0,0,-1,-7,-36,0.0
12.6,-1,-2,-1,3,1,-3,0,6,0.0
12.605,0,-3,-2,-1,-1,-1,1,2,0.0
12.61,-2,-3,-6,-8,-2,-2,-4,-4,0.0
12.615,1,-1,2,2,0,1,1,10,0.0
12.620000000000001,0,1,-3,1,-1,-2,-2,-2,0.0
12.625,-1,-3,-1,-5,0,-2,-2,-5,0.0
12.63,-1,-4,-6,-7,-3,0,1,3,0.0
12.635,0,1,-2,6,3,0,1,0,0.0
12.64,-6,-3,-6,-3,-1,-3,-1,-3,0.0
12.645,1,-2,-4,15,9,1,0,3,0.0
12.65,-2,0,-13,-4,-10,-4,-2,-2,0.0
12.655000000000001,-1,-4,-1,-21,-10,-3,-2,5,0.0
12.66,-1,-4,2,6,0,-1,-2,-3,0.0
12.665000000000001,-1,1,0,-18,-7,-1,-3,-1,0.0
12.67,-4,-5,5,17,7,1,-1,-2,0.0
12.675,-1,-3,-3,11,1,-1,1,3,0.0
12.68,5,4,0,-8,-6,-3,0,-1,0.0
12.685,-1,2,-2,12,4,0,-2,1,0.0
12.69,-1,-1,3,-5,-5,0,-2,-2,0.0
12.695,-2,-1,2,-2,-1,-1,0,6,0.0
12.700000000000001,0,3,3,3,2,1,0,0,0.0
12.705,-1,-4,-2,-10,-7,-3,-1,-2,0.0
12.71,-1,1,-1,-6,1,-2,-2,-2,0.0
12.715,-1,-1,-2,-4,-4,-3,-4,2,0.0
12.72,-2,-4,-1,1,-1,0,-2,-1,0.0
12.725,-2,0,-2,-4,-3,-1,0,-1,0.0
12.73,0,2,1,-12,-3,0,-2,0,0.0
12.735,-1,-1,-2,3,2,-1,2,0,0.0
12.74,-1,-3,0,4,4,2,1,-2,0.0
12.745000000000001,-4,0,-2,-14,-8,-2,-2,-2,0.0
12.75,-3,-1,-1,-7,-5,-4,-3,-3,0.0
12.755,-1,0,-1,5,3,0,-3,-1,0.0
12.76,0,0,1,-3,-1,-2,0,0,0.0
12.765,-2,-1,3,11,6,0,-1,-2,0.0
12.77,1,-5,-2,3,3,-1,0,0,0.0
12.775,-1,1,4,-8,-5,-4,-2,-3,0.0
12.780000000000001,-3,-4,-3,-17,-8,-5,-2,0,0.0
12.785,-1,-2,-1,6,0,-1,0,-1,0.0
12.790000000000001,0,0,0,2,0,0,1,1,0.0
12.795,-1,0,2,6,3,-1,0,-1,0.0
12.8,-1,-1,2,4,1,-1,0,-1,0.0
12.805,0,1,1,-3,-2,-2,0,-2,0.0
12.81,0,-1,2,3,0,0,-1,0,0.0
12.815,-2,-1,0,-20,-6,-2,-1,-2,0.0
12.82,-2,-3,-10,-12,-4,-2,-2,-2,0.0
12.825000000000001,0,0,3,1,3,0,-1,-2,0.0
12.83,-1,1,1,5,0,0,-1,-1,0.0
12.835,0,1,0,2,1,-1,-1,1,0.0
12.84,-3,0,-3,8,5,-1,-2,-1,0.0
12.845,0,-3,-7,-9,-10,-1,1,0,0.0
12.85,2,-2,1,-25,-1,-1,-4,-1,0.0
12.855,-1,1,-2,18,0,-1,0,1,0.0
12.86,0,1,1,-5,-1,0,-2,-2,0.0
12.865,-1,1,-2,-19,-13,-2,0,0,0.0
12.870000000000001,-5,-1,-4,18,10,4,2,0,0.0
12.875,0,-3,1,11,8,-1,-3,1,0.0
12.88,4,-4,6,47,9,0,-2,-5,0.0
12.885,-4,-2,-18,-60,-20,-2,-2,2,0.0
12.89,1,4,16,16,0,0,2,2,0.0
12.895,-8,-11,-10,-15,-2,-2,-7,-2,0.0
12.9,5,5,0,20,7,-1,-2,-7,0.0
12.905000000000001,-3,-2,5,23,11,2,-2,-2,0.0
12.91,-1,4,3,-4,-2,-3,-1,0,0.0
12.915000000000001,0,-1,-1,19,7,1,2,4,0.0
12.92,-8,-3,-1,-39,-11,-3,-3,-3,0.0
12.925,5,1,-4,-4,-4,0,-1,3,0.0
12.93,2,-1,-6,-12,-5,-2,-2,0,0.0
12.935,6,10,10,23,7,2,-1,-2,0.0
12.94,-11,-9,-10,-22,-7,-3,0,0,0.0
12.945,-4,-5,1,0,0,-2,-2,-7,0.0
12.950000000000001,-4,-1,-1,12,4,1,-4,-22,0.0
12.955,6,3,-1,-12,-5,0,5,22,0.0
12.96,1,-2,-1,-5,-4,0,1,0,0.0
12.965,-1,-2,1,13,7,0,-3,-1,0.0
12.97,0,-1,-4,-6,-5,-2,-1,-5,0.0
12.975,-4,-4,-8,-9,-8,-1,-2,-8,0.0
12.98,-1,0,0,-1,-1,-1,0,16,0.0
12.985,-1,5,1,13,4,0,-1,-12,0.0
12.99,-2,-2,-4,-4,-2,-1,-3,2,0.0
12.995000000000001,-5,-5,-2,-11,-7,-2,1,-2,0.0
13.0,4,2,6,9,1,0,-2,4,0.0
13.005,-1,-5,-2,-1,1,0,-1,-1,0.0
13.01,-1,-5,-1,-7,-2,-1,0,2,0.0
13.015,-1,0,-6,-2,1,-1,-1,-3,0.0
13.02,-3,-4,-3,-1,-5,-2,-1,-8,0.0
13.025,-2,2,-1,7,-1,-4,-1,0,0.0
13.030000000000001,-2,-4,-5,-7,-4,-2,0,2,0.0
13.035,-2,-3,3,1,-3,0,-1,-4,0.0
13.040000000000001,-2,-1,-1,10,4,1,-2,-3,0.0
13.045,1,2,7,5,-1,-1,0,2,0.0
13.05,-3,-1,-28,-4,-4,-2,-1,6,0.0
13.055,-1,-2,1,-11,0,-1,-2,-5,0.0
13.06,-1,2,5,-2,-1,-3,-1,-2,0.0
13.065,-2,-7,-22,-4,6,1,0,1,0.0
13.07,-1,2,9,14,4,3,-1,-2,0.0
13.075000000000001,3,5,-3,-5,-5,-3,-2,-6,0.0
13.08,-6,-5,-14,-4,-3,-2,-1,-2,0.0
13.085,-1,-1,8,5,-3,-1,0,2,0.0
13.09,1,-2,13,14,-2,-3,-1,-2,0.0
13.095,-3,-8,-18,-26,-3,-2,-1,-3,0.0
13.1,6,6,15,-4,-4,-1,0,0,0.0
13.105,-5,-11,-47,-65,-4,-2,-3,-5,0.0
13.11,-1,-3,3,-4,-2,0,1,1,0.0
13.115,-1,3,13,13,3,1,-1,0,0.0
13.120000000000001,2,1,-1,6,-2,-3,-2,0,0.0
13.125,-2,2,10,14,3,0,-1,-4,0.0
13.13,0,2,5,-6,-4,-1,0,0,0.0
13.135,1,5,34,34,5,2,1,2,0.0
13.14,-2,-8,-38,-13,-3,0,-1,-1,0.0
13.145,-5,-11,-12,-37,-16,-9,-7,-3,0.0
13.15,-4,-1,1,6,1,-3,-2,0,0.0
13.155000000000001,-2,2,11,11,1,-1,1,-2,0.0
13.16,0,3,1,5,3,4,2,0,0.0
13.165000000000001,3,5,25,12,3,2,2,2,0.0
13.17,-1,-4,-12,-9,-2,-3,-3,-4,0.0
13.175,-2,-3,-6,-7,-8,-3,-3,-2,0.0
13.18,0,4,12,9,0,0,1,-2,0.0
13.185,-3,-2,-25,9,-2,0,-1,0,0.0
13.19,-4,-5,2,-13,-5,-3,-1,2,0.0
13.195,-3,-2,-10,-2,-1,-1,-2,-2,0.0
13.200000000000001,-2,-2,-4,4,1,-1,0,-1,0.0
13.205,-1,2,22,1,2,1,1,2,0.0
13.21,2,0,-2,3,2,1,0,-2,0.0
13.215,-3,-4,-16,-1,-2,-5,-3,-1,0.0
13.22,-3,3,6,0,0,-2,-1,-1,0.0
13.225,1,0,14,21,3,0,1,-1,0.0
13.23,-2,-3,-8,-3,2,3,0,1,0.0
13.235,-1,-5,-8,-16,-1,-1,-3,-3,0.0
13.24,-2,1,-1,1,-2,-1,-1,-2,0.0
13.245000000000001,2,1,7,13,1,0,1,-1,0.0
13.25,-1,0,-5,-12,-4,-4,-4,-3,0.0
13.255,-2,-2,-8,0,-6,-2,0,-2,0.0
13.26,0,-3,5,1,0,0,1,1,0.0
13.265,-1,1,2,5,-2,1,-2,-2,0.0
13.27,-2,-5,-5,-8,-4,-2,0,-2,0.0
13.275,-1,-1,-3,-4,0,-2,-3,-2,0.0
13.280000000000001,-3,-3,-6,-11,-1,0,-2,-1,0.0
13.285,0,1,3,3,-1,1,-1,1,0.0
13.290000000000001,-1,0,-2,4,1,-3,-1,-2,0.0
13.295,-1,-2,-1,-10,-4,-1,-1,0,0.0
13.3,0,-1,0,-9,-4,-1,-2,-3,0.0
13.305,-2,-1,0,7,0,-3,0,0,0.0
13.31,1,-1,3,5,3,1,-2,-1,0.0
13.315,0,-1,-3,-3,-3,-1,-2,2,0.0
13.32,-2,-1,-2,-3,-1,-2,0,0,0.0
13.325000000000001,1,-1,-2,6,-1,-3,-2,-1,0.0
13.33,0,1,0,-4,-3,-2,0,1,0.0
13.335,-3,-4,-4,-7,-4,-1,1,-1,0.0
13.34,0,-2,-2,3,2,-1,-2,-1,0.0
13.345,0,1,-2,1,-2,-3,-1,0,0.0
13.35,-1,-3,1,-2,-1,-2,-1,-1,0.0
13.355,0,-3,-6,-2,-2,-1,-1,-2,0.0
13.36,0,-1,-3,-2,1,0,-1,-1,0.0
13.365,-2,0,-1,-11,-4,-1,-1,-1,0.0
13.370000000000001,0,0,1,3,0,0,1,0,0.0
13.375,-2,-3,-1,3,-2,-1,0,0,0.0
13.38,-2,-2,1,3,0,-2,-4,-3,0.0
13.385,-3,-1,0,3,0,1,-1,-2,0.0
13.39,0,0,-2,2,1,-2,-3,-1,0.0
13.395,1,2,0,0,0,-2,0,-1,0.0
13.4,-1,-1,-3,-10,-3,-1,-2,1,0.0
13.405000000000001,-1,-2,-1,6,5,-1,0,0,0.0
13.41,-2,-1,2,9,3,1,0,-1,0.0
13.415000000000001,1,-1,0,-4,1,-2,-1,-3,0.0
13.42,-1,-5,-4,-8,-8,-1,-1,-2,0.0
13.425,-2,-3,-1,4,3,0,-1,-1,0.0
13.43,-1,-1,0,-2,-5,-1,-1,-1,0.0
13.435,-1,2,1,5,2,-2,-1,-1,0.0
13.44,-3,0,-1,-8,-4,-3,-1,-1,0.0
13.445,0,-1,-3,-3,-2,-1,-1,-2,0.0
13.450000000000001,0,-1,-7,-2,-3,-3,-2,0,0.0
13.455,-5,-4,-2,3,1,1,1,-1,0.0
13.46,0,1,-1,-1,-4,-2,-2,0,0.0
13.465,-1,-1,-1,3,2,1,0,0,0.0
13.47,-1,2,0,-4,0,-2,-1,-3,0.0
13.475,1,1,1,-4,-2,0,-1,-2,0.0
13.48,-1,-3,-4,2,2,-1,1,-2,0.0
13.485,1,3,2,-4,-6,-2,-1,-1,0.0
13.49,-1,-1,1,-1,0,-1,0,-1,0.0
13.495000000000001,0,1,1,-2,0,0,-2,-1,0.0
13.5,-3,-3,2,7,1,-1,-2,1,0.0
13.505,-1,-3,1,-2,-2,0,-2,-1,0.0
13.51,-2,-3,-3,-22,-7,-2,-3,-3,0.0
13.515,-2,-1,-3,7,0,1,-2,-1,0.0
13.52,0,1,-1,0,3,-1,-2,-1,0.0
13.525,-2,-2,-1,-1,-3,-2,1,-2,0.0
13.530000000000001,-2,0,-2,4,1,1,0,-2,0.0
13.535,0,-3,-3,-2,-1,-1,0,-1,0.0
13.540000000000001,1,1,-1,-3,-2,0,0,-2,0.0
13.545,0,-1,0,5,1,-2,-1,-1,0.0
13.55,-3,-6,-8,-2,-4,-2,-1,0,0.0
13.555,-11,-53,-20,-7,2,-2,-5,-5,0.0
13.56,-2,13,11,2,-2,-1,0,1,0.0
13.565,3,23,6,-2,-1,1,0,-2,0.0
13.57,-2,-14,-18,0,-2,-3,-5,-7,0.0
13.575000000000001,13,63,61,6,5,7,9,12,0.0
13.58,-1,-19,-9,8,0,-3,-1,-3,0.0
13.585,-5,-19,-12,-13,-3,-4,-1,-1,0.0
13.59,-3,2,2,0,-3,0,-1,-1,0.0
13.595,1,-1,-9,-1,-2,-1,-2,-1,0.0
13.6,0,3,2,-1,-3,-1,-2,-1,0.0
13.605,3,17,13,4,-1,1,-1,3,0.0
13.61,2,-1,4,2,-2,-2,0,0,0.0
13.615,-4,-7,-10,1,0,-2,-3,-5,0.0
13.620000000000001,-1,5,-1,-5,-2,0,1,1,0.0
13.625,-7,-23,-17,-1,1,-3,-2,-5,0.0
13.63,0,0,0,0,2,1,-2,1,0.0
13.635,-1,-3,-3,-4,-4,-3,-4,-2,0.0
13.64,-3,2,-2,-4,-2,0,0,-2,0.0
13.645,-2,-4,-5,11,2,-3,0,0,0.0
13.65,1,3,7,-1,0,-1,2,1,0.0
13.655000000000001,0,6,1,0,-3,-2,1,-2,0.0
13.66,2,-5,-2,-6,-1,-1,0,0,0.0
13.665000000000001,-1,-2,-1,-6,-3,-1,-3,-1,0.0
13.67,0,5,5,-4,-1,-1,-1,0,0.0
13.675,-4,-12,-14,2,-2,-3,-4,-5,0.0
13.68,-3,-6,0,6,2,1,0,-2,0.0
13.685,1,0,3,-3,-1,0,-2,0,0.0
13.69,-2,-1,-3,6,0,-1,-1,0,0.0
13.695,-2,2,-3,-3,-2,0,-1,0,0.0
13.700000000000001,0,-1,-3,-4,-4,-2,-2,-1,0.0
13.705,0,5,6,-7,-3,0,-2,-1,0.0
13.71,-2,-7,-8,-1,0,-1,-1,-2,0.0
13.715,-2,-3,-3,-3,-3,-2,-1,0,0.0
13.72,0,0,-2,-1,-3,-3,-1,1,0.0
13.725,-1,-6,-4,2,0,-2,-3,-1,0.0
13.73,-3,-1,-1,-15,-3,0,-1,-2,0.0
13.735,0,-4,-6,-1,-2,-2,-1,0,0.0
13.74,3,-1,6,-2,-3,0,0,1,0.0
13.745000000000001,0,-1,0,-2,-3,-3,-2,-1,0.0
13.75,1,2,0,8,0,1,-1,1,0.0
13.755,1,0,-4,-9,-3,-2,-1,-1,0.0
13.76,-1,-1,-5,-9,-4,-1,-1,-1,0.0
13.765,1,-5,-2,3,-2,-2,1,0,0.0
13.77,-2,-1,0,3,0,-1,-1,-1,0.0
13.775,-3,0,-3,-3,-4,-4,-3,-4,0.0
13.780000000000001,0,1,-1,6,4,1,1,-1,0.0
13.785,-2,-1,1,-5,-5,-1,-1,-2,0.0
13.790000000000001,-2,-3,-4,1,0,-1,-2,-2,0.0
13.795,-1,2,-1,-4,-2,-1,-1,-1,0.0
13.8,-1,-1,2,-10,-3,-2,-1,-1,0.0
13.805,-1,0,0,-2,-1,-2,-1,-1,0.0
13.81,0,-1,-2,5,1,-1,-1,-3,0.0
13.815,0,-3,-1,-7,-1,0,-2,0,0.0
13.82,1,2,3,3,1,-1,-2,-1,0.0
13.825000000000001,-4,-5,-8,-5,-2,-1,-2,-1,0.0
13.83,-2,-3,4,-1,-1,-5,-3,-2,0.0
13.835,1,0,0,4,-1,2,2,0,0.0
13.84,-4,-2,-5,-11,0,0,-1,-2,0.0
13.845,-2,1,2,1,0,-2,-1,0,0.0
13.85,-1,-4,0,-2,-1,-1,-2,4,0.0
13.855,-1,1,-1,2,-1,-2,-4,-10,0.0
13.86,0,-1,-2,3,2,0,-2,1,0.0
13.865,-2,-2,-4,-6,-6,0,-1,-4,0.0
13.870000000000001,1,1,2,-1,-1,0,0,3,0.0
13.875,-1,9,-4,-2,-1,-1,-1,3,0.0
13.88,-5,-17,-12,-1,-2,-3,0,6,0.0
13.885,2,4,4,2,4,1,0,7,0.0
13.89,-4,-7,-6,-2,-1,-6,-3,33,0.0
13.895,0,3,5,1,-1,2,-7,-83,0.0
13.9,0,3,-4,-3,-2,-1,3,18,0.0
13.905000000000001,-4,-6,5,2,-1,0,1,6,0.0
13.91,-3,-6,-2,-8,-4,-2,0,-4,0.0
13.915000000000001,8,40,3,-3,-2,-3,-5,0,0.0
13.92,-1,0,4,11,1,-1,-2,0,0.0
13.925,-3,-6,-7,0,3,1,2,-7,0.0
13.93,3,6,-4,-5,-2,2,1,-15,0.0
13.935,-13,-36,-4,-3,0,-6,-6,13,0.0
13.94,2,3,-2,-2,-4,-1,0,-11,0.0
13.945,4,11,-2,-4,-3,-1,1,5,0.0
13.950000000000001,-13,-17,-11,-7,-6,-9,-7,-8,0.0
13.955,2,-4,-6,0,1,3,3,20,0.0
13.96,-3,-1,3,0,0,1,-2,-8,0.0
13.965,-3,-10,-2,-4,0,-2,-2,-2,0.0
13.97,3,13,5,3,3,2,2,-5,0.0
13.975,-3,-12,-5,1,-4,-1,-1,8,0.0
13.98,1,4,5,2,3,-1,-3,-1,0.0
13.985,1,1,-4,-4,-4,-1,-2,-6,0.0
13.99,4,5,3,3,1,1,0,-4,0.0
13.995000000000001,-2,3,1,8,2,-2,-1,12,0.0
14.0,-4,-3,-6,-3,-3,0,2,-1,0.0
14.005,-2,-3,0,6,0,-3,-2,-4,0.0
14.01,0,1,-1,-13,-4,1,0,-4,0.0
14.015,1,-6,-4,-12,-5,-1,3,10,0.0
14.02,-3,-2,-5,-4,-3,0,0,-3,0.0
14.025,1,0,0,2,0,-1,-3,-4,0.0
14.030000000000001,-1,-1,-2,3,0,1,0,-2,0.0
14.035,0,-3,-4,-4,-3,-2,0,5,0.0
14.040000000000001,-1,0,4,3,1,-1,-2,-5,0.0
14.045,1,3,-2,-8,-9,-2,-3,-1,0.0
14.05,1,-1,4,8,10,3,1,-1,0.0
14.055,-2,-3,9,-3,0,1,2,5,0.0
14.06,0,-4,-8,-2,-3,-5,-5,-1,0.0
14.065,-1,-4,0,-1,2,1,0,0,0.0
14.07,-2,1,-1,-3,-3,-1,0,-2,0.0
14.075000000000001,-3,-2,-3,-1,-1,-2,1,-1,0.0
14.08,1,2,2,-3,-4,-2,-3,-1,0.0
14.085,-1,1,-2,-1,-1,0,-1,-2,0.0
14.09,0,-1,-1,3,-2,0,-1,-1,0.0
14.095,0,-1,-1,-1,-2,-3,-3,2,0.0
14.1,-2,-4,-2,0,3,4,3,2,0.0
14.105,-2,-2,-5,0,-2,-5,-2,-3,0.0
14.11,-1,-2,-5,-4,-3,-2,-1,-3,0.0
14.115,0,-1,-2,-2,-1,1,0,1,0.0
14.120000000000001,0,2,3,-3,0,-4,-5,-4,0.0
14.125,-1,-1,-1,-2,1,-1,-1,-1,0.0
14.13,-1,1,2,0,-2,-2,-3,-2,0.0
14.135,-1,-3,-7,-4,-4,-2,-1,0,0.0
14.14,-3,-6,-7,2,2,-1,-3,-4,0.0
14.145,-2,0,2,-3,-1,-2,0,1,0.0
14.15,0,-3,-1,2,-2,-3,-1,-1,0.0
14.155000000000001,-3,-2,-5,-2,-1,-1,-1,2,0.0
14.16,0,3,2,-2,-4,-1,-1,-2,0.0
14.165000000000001,-3,-2,-2,-3,-1,-1,0,-2,0.0
14.17,1,1,-2,1,-1,0,-1,-1,0.0
14.175,-2,-5,0,0,-1,-2,-1,-1,0.0
14.18,0,2,-6,-2,-1,-1,1,-1,0.0
14.185,0,-3,0,-1,0,1,-2,0,0.0
14.19,-2,-2,-2,-7,-2,-1,-3,-1,0.0
14.195,0,0,0,-3,-1,0,-1,-3,0.0
14.200000000000001,-3,-2,0,0,1,-3,-3,-2,0.0
14.205,-1,-2,-1,4,2,-1,-2,0,0.0
14.21,1,0,0,-2,0,2,1,2,0.0
14.215,-1,-1,0,-3,-1,0,-2,0,0.0
14.22,-1,2,3,-9,-8,-2,-1,0,0.0
14.225,-2,-2,-5,6,4,1,-3,-1,0.0
14.23,-2,-3,1,2,-3,-4,-2,-1,0.0
14.235,-2,-4,2,5,-2,-2,0,0,0.0
14.24,-2,2,4,-14,-5,-3,0,-1,0.0
14.245000000000001,-2,0,5,3,2,-1,0,-1,0.0
14.25,-1,-3,-6,-4,-2,-1,1,0,0.0
14.255,0,5,-3,3,1,-1,1,0,0.0
14.26,-3,-5,-9,6,-2,-2,-3,-3,0.0
14.265,0,0,0,-3,-3,-2,-1,-1,0.0
14.27,-1,-1,-6,0,0,-2,-1,-3,0.0
14.275,-2,1,0,-2,-2,0,0,0,0.0
14.280000000000001,0,0,-7,-17,-5,-2,0,0,0.0
14.285,-3,-5,-7,3,-1,-4,-1,-1,0.0
14.290000000000001,2,3,3,0,-2,0,-1,0,0.0
14.295,-2,-5,-6,0,-2,-2,-4,0,0.0
14.3,1,1,1,11,5,1,2,-2,0.0
14.305,0,-4,1,-6,-1,0,-1,-2,0.0
14.31,-4,-3,-1,-2,-3,-3,-2,-1,0.0
14.315,2,-2,-1,1,0,1,4,16,0.0
14.32,-3,-4,-4,-1,-1,0,-5,-12,0.0
14.325000000000001,-1,-1,0,-5,-4,-2,-1,-6,0.0
14.33,-2,0,1,3,1,1,0,9,0.0
14.335,2,2,0,-4,0,0,1,-8,0.0
14.34,-3,-3,-1,4,-2,-3,-3,-7,0.0
14.345,4,3,-4,-1,-1,1,4,75,0.0
14.35,-9,-4,-1,-2,-4,-2,-9,-49,0.0
14.355,1,-4,0,1,2,-1,7,33,0.0
14.36,-2,-1,-1,2,1,-2,-50,-4,0.0
14.365,-1,-3,-4,-2,-1,0,-6,49,0.0
14.370000000000001,-4,0,3,-13,-5,-3,0,7,0.0
14.375,0,1,1,25,5,0,-3,-11,0.0
14.38,2,-2,2,8,3,2,13,1,0.0
14.385,-1,0,-9,-7,-2,-1,7,-9,0.0
14.39,-3,-13,22,-4,-3,-3,-9,32,0.0
14.395,-9,-5,-12,-12,-5,-7,-11,-77,0.0
14.4,-3,-4,-9,-14,-5,-4,13,24,0.0
14.405000000000001,1,8,2,5,0,0,-3,-26,0.0
14.41,3,-3,-5,7,5,3,6,-22,0.0
14.415000000000001,1,-1,2,-5,-2,-2,-2,14,0.0
14.42,0,-4,4,3,-3,-2,5,1,0.0
14.425,-5,-3,2,-4,-2,-3,-7,-25,0.0
14.43,2,2,-3,2,1,0,-2,-2,0.0
14.435,-2,0,5,-4,-4,-3,-2,12,0.0
14.44,0,1,-1,-4,0,2,0,-10,0.0
14.445,1,2,1,7,4,0,2,-4,0.0
14.450000000000001,-1,-3,-3,0,0,-3,2,9,0.0
14.455,1,2,3,3,2,3,-1,-3,0.0
14.46,-1,-3,2,5,2,-1,7,4,0.0
14.465,-2,-1,-1,-4,-2,-1,-1,-15,0.0
14.47,1,6,-6,-4,-4,-2,-3,1,0.0
14.475,-2,-2,-1,-13,-6,-3,-5,0,0.0
14.48,-2,1,-1,6,3,0,3,2,0.0
14.485,-3,-6,7,4,-1,-3,-3,-8,0.0
14.49,0,-2,-13,-3,-5,-2,-6,-4,0.0
14.495000000000001,-1,-3,-3,-6,-1,-1,1,9,0.0
14.5,-4,0,3,3,2,5,6,3,0.0
14.505,-1,1,-3,-2,-5,-2,-3,-13,0.0
14.51,-1,-2,-2,-1,0,-1,6,5,0.0
14.515,0,-5,0,-3,0,5,1,1,0.0
14.52,1,2,-3,0,-3,-6,14,-1,0.0
14.525,0,2,1,-2,0,-4,-10,-11,0.0
14.530000000000001,2,3,5,-1,-1,10,9,9,0.0
14.535,-3,-5,-10,0,-3,-12,-18,-3,0.0
14.540000000000001,0,2,3,-7,-4,-6,-11,-6,0.0
14.545,-1,-1,-2,-8,-5,-2,0,0,0.0
14.55,-1,1,5,0,-2,-3,5,1,0.0
14.555,0,0,-2,11,9,12,14,5,0.0
14.56,-1,-6,-1,-4,-3,3,-4,1,0.0
14.565,-3,5,2,-4,-6,-7,1,2,0.0
14.57,3,3,0,-1,0,1,-10,-17,0.0
14.575000000000001,-1,0,4,3,0,0,-1,5,0.0
14.58,-1,-3,-2,0,-4,-3,-2,0,0.0
14.585,-1,-5,-3,-7,0,3,-1,-2,0.0
14.59,-3,-4,-4,4,7,-2,3,4,0.0
14.595,-1,0,-4,-7,-7,-5,-3,1,0.0
14.6,-3,-3,-1,-1,-1,-3,-4,-2,0.0
14.605,-2,-6,-3,4,-1,3,1,1,0.0
14.61,-3,-1,-4,-12,-9,-7,-7,-1,0.0
14.615,0,1,2,3,0,-4,-1,-4,0.0
14.620000000000001,-2,-4,-2,6,5,3,1,3,0.0
14.625,-2,-4,0,-3,0,-1,-5,-7,0.0
14.63,1,7,-1,-3,-2,-1,-2,2,0.0
14.635,-2,-3,-6,0,-3,-3,-2,-1,0.0
14.64,-2,0,-1,-6,-2,1,1,-3,0.0
14.645,-1,-3,-4,-1,-3,-3,-1,-2,0.0
14.65,-1,0,-1,2,2,2,3,1,0.0
14.655000000000001,-1,-1,3,-1,1,3,3,-3,0.0
14.66,-1,2,3,-1,-2,-6,-5,-2,0.0
14.665000000000001,-1,-4,-4,1,0,0,-1,-4,0.0
14.67,-1,-4,-3,-6,-7,-6,-2,1,0.0
14.675,0,2,2,-3,0,0,1,2,0.0
14.68,0,-3,1,2,-1,1,-1,0,0.0
14.685,-5,-7,-6,-8,-4,-3,-2,-1,0.0
14.69,-4,-5,-1,1,0,3,7,-5,0.0
14.695,-1,3,3,-3,0,-5,-24,-5,0.0
14.700000000000001,3,-2,0,-8,-4,-2,-2,-3,0.0
14.705,0,-3,1,5,2,1,2,1,0.0
14.71,-2,-2,-4,-1,-3,-3,-3,0,0.0
14.715,-2,-3,-1,-2,-1,1,7,2,0.0
14.72,-3,-4,-8,6,6,0,-5,-1,0.0
14.725,1,4,3,-2,-2,0,3,0,0.0
14.73,-1,-3,-5,1,-1,-2,-4,-4,0.0
14.735,0,-4,1,-6,-4,-3,1,-2,0.0
14.74,-1,1,-2,-4,-4,-1,-1,1,0.0
14.745000000000001,0,-1,-4,-4,-1,-1,1,-1,0.0
14.75,-1,0,-2,2,3,-2,-4,1,0.0
14.755,-1,1,-1,-3,-4,-1,0,0,0.0
14.76,0,0,-1,2,1,2,3,-1,0.0
14.765,-2,1,2,3,0,0,-2,-3,0.0
14.77,0,0,3,-3,-1,-3,-4,-1,0.0
14.775,1,-1,0,2,-1,1,0,-1,0.0
14.780000000000001,1,1,1,-1,-4,-1,0,0,0.0
14.785,-1,1,-4,9,4,-4,-4,-3,0.0
14.790000000000001,-1,-1,5,-1,3,-2,-4,0,0.0
14.795,0,-1,3,-1,0,-1,2,-1,0.0
14.8,-1,-1,1,-9,-6,-3,-2,-3,0.0
14.805,-1,-3,-3,1,-4,-1,-3,-3,0.0
14.81,1,0,-3,0,-1,1,1,0,0.0
14.815,-4,-5,-5,-1,-2,-2,-3,0,0.0
14.82,1,0,0,-1,2,1,1,1,0.0
14.825000000000001,-2,-1,0,-1,-2,-4,0,-2,0.0
14.83,-2,-9,-2,-2,-2,-1,-8,0,0.0
14.835,1,-1,-1,-1,0,1,1,1,0.0
14.84,-2,0,-3,-1,0,-1,-1,-1,0.0
14.845,0,-2,3,0,0,3,5,4,0.0
14.85,-1,0,-2,0,-2,0,-2,-2,0.0
14.855,-1,0,-3,0,0,-3,-2,-1,0.0
14.86,-1,-2,-2,-3,-4,-4,-4,-2,0.0
14.865,-2,-1,0,-2,-1,-1,-2,-3,0.0
14.870000000000001,-1,1,4,2,2,0,-2,0,0.0
14.875,-2,-3,-3,2,1,3,4,2,0.0
14.88,-1,-3,-4,3,1,-1,0,-6,0.0
14.885,0,0,1,-7,-3,-2,-7,-2,0.0
14.89,-3,-3,-3,-3,-3,-4,0,-1,0.0
14.895,0,0,-1,-7,-6,-1,1,2,0.0
14.9,-2,0,0,12,3,-2,-2,-5,0.0
14.905000000000001,-4,-7,-3,-3,0,-1,0,0,0.0
14.91,0,0,-3,1,1,1,0,1,0.0
14.915000000000001,-2,0,-1,-5,-2,-2,-4,-1,0.0
14.92,-1,2,8,-7,-3,0,0,1,0.0
14.925,0,0,-3,2,3,-1,-1,-3,0.0
14.93,-2,-3,-10,-5,-3,-2,0,0,0.0
14.935,1,-4,-2,-2,-4,-1,-1,-5,0.0
14.94,-2,0,-2,-2,-3,0,1,0,0.0
14.945,-3,-1,0,-3,-4,-2,-1,-3,0.0
14.950000000000001,0,2,-3,-5,-4,-1,-2,0,0.0
14.955,-1,0,0,2,0,-1,1,-2,0.0
14.96,-2,-4,1,0,-1,-1,-2,2,0.0
14.965,-1,2,2,0,0,-2,-2,-3,0.0
14.97,-1,-1,-4,4,1,0,-1,-2,0.0
14.975,-2,-2,1,-4,-1,-2,-2,-3,0.0
14.98,0,1,-1,-12,-7,0,1,0,0.0
14.985,-4,-4,-3,0,-2,-3,-1,-2,0.0
14.99,2,5,6,2,0,3,0,1,0.0
14.995000000000001,-3,-2,-4,-2,0,0,-1,0,0.0
15.0,1,-1,2,2,4,1,-1,1,0.0
15.005,-2,-6,-2,0,-3,-2,-4,-1,0.0
15.01,-3,-2,-3,1,-1,-2,-2,-3,0.0
15.015,0,2,0,1,0,1,-2,-1,0.0
15.02,-2,-1,-5,-12,-5,-1,-2,0,0.0
15.025,0,0,-4,0,-1,-1,-2,0,0.0
15.030000000000001,0,-2,-3,0,-2,-2,1,0,0.0
15.035,-2,0,0,1,-1,-3,-1,-3,0.0
15.040000000000001,0,0,-1,2,3,0,0,-1,0.0
15.045,0,2,5,-4,0,-1,0,0,0.0
15.05,-2,-2,-1,0,-1,-2,0,-2,0.0
15.055,-3,-2,-5,1,1,-2,-1,-1,0.0
15.06,-1,0,1,2,-3,-1,-1,-2,0.0
15.065,-3,-7,-7,-3,-3,-1,-1,0,0.0
15.07,-1,2,3,-10,-3,0,0,0,0.0
15.075000000000001,-4,-6,-10,5,0,-1,-2,-3,0.0
15.08,-1,-2,1,4,0,-1,0,-2,0.0
15.085,2,4,1,-2,-3,0,-1,0,0.0
15.09,-1,-3,1,2,0,-2,-1,-1,0.0
15.095,0,-2,2,-5,-1,-1,0,-1,0.0
15.1,-2,3,-7,-1,0,-2,-2,-2,0.0
15.105,-1,-2,-3,-2,-3,-4,0,1,0.0
15.11,0,-2,-2,-2,-6,-4,-3,-5,0.0
15.115,1,3,7,1,0,-1,0,0,0.0
15.120000000000001,-3,-5,1,-5,-2,-3,-1,-1,0.0
15.125,0,3,-3,-2,0,1,-2,-1,0.0
15.13,0,-1,-1,-1,-3,-2,-1,0,0.0
15.135,-2,-3,-2,-4,-3,-3,-1,-1,0.0
15.14,-1,-3,-2,-5,-4,-2,-1,-2,0.0
15.145,0,0,-1,-1,-2,-1,-1,-3,0.0
15.15,-2,-7,-1,4,2,-1,0,0,0.0
15.155000000000001,0,-1,-3,-6,-4,-1,-1,-2,0.0
15.16,-1,1,0,18,7,2,-1,-2,0.0
15.165000000000001,-1,-4,-7,-2,1,1,-1,-1,0.0
15.17,1,1,-2,-3,-1,-1,0,-1,0.0
15.175,0,0,2,0,0,0,1,0,0.0
15.18,0,-2,-7,-6,-5,-2,-1,-2,0.0
15.185,-3,-2,0,6,2,-1,-2,-3,0.0
15.19,0,2,-2,-4,-3,0,0,2,0.0
15.195,0,-2,1,0,2,-1,-2,-2,0.0
15.200000000000001,-2,-2,-2,-9,-6,-2,-2,-1,0.0
15.205,0,-1,2,-2,1,-3,-1,-2,0.0
15.21,-3,1,-4,-1,0,0,-1,-1,0.0
15.215,-3,-1,-11,-3,-6,-2,0,0,0.0
15.22,-2,-4,1,2,1,-3,-2,-1,0.0
15.225,0,2,3,-3,1,1,3,1,0.0
15.23,-1,-2,2,-1,-1,-3,-1,-2,0.0
15.235,1,1,-2,3,0,-3,-1,-2,0.0
15.24,-3,-3,3,4,-4,0,0,0,0.0
15.245000000000001,1,3,-1,2,-1,-1,-2,-1,0.0
15.25,-2,-5,-8,-27,-4,-1,-2,-1,0.0
15.255,0,4,-2,-3,-1,-1,-2,-1,0.0
15.26,0,-3,-3,-5,-2,-1,-2,-2,0.0
15.265,1,-1,1,-5,-3,-1,0,-2,0.0
15.27,-3,-5,0,26,5,-2,-2,-2,0.0
15.275,-1,-2,-6,-7,-1,0,-1,-1,0.0
15.280000000000001,0,4,2,-3,3,2,-1,2,0.0
15.285,0,0,0,-7,-7,-2,0,0,0.0
15.290000000000001,-1,3,7,3,2,0,-2,-2,0.0
15.295,-1,1,-7,0,-2,-3,-1,-2,0.0
15.3,1,-1,1,5,0,0,-2,0,0.0
15.305,-1,-2,-2,-8,-3,-2,-1,-2,0.0
15.31,0,0,5,7,0,-2,0,-1,0.0
15.315,1,-2,3,0,-1,-2,-1,0,0.0
15.32,-2,1,1,0,-1,-1,-1,-2,0.0
15.325000000000001,-2,-4,-4,8,7,1,0,-2,0.0
15.33,-1,-1,-3,-19,-14,-3,-1,-2,0.0
15.335,-2,1,5,1,9,1,-2,-1,0.0
15.34,-1,-2,-3,2,2,-2,-1,-2,0.0
15.345,-1,-4,-4,-12,-7,-2,-2,-1,0.0
15.35,0,-1,-1,10,3,2,0,0,0.0
15.355,-2,-1,11,-9,-8,-2,-1,-2,0.0
15.36,-1,-3,-5,-6,-3,-4,-1,0,0.0
15.365,-2,2,-1,9,1,-2,-3,-2,0.0
15.370000000000001,-1,-2,-7,-5,-4,-2,-2,-1,0.0
15.375,-2,-2,1,6,0,2,-2,0,0.0
15.38,0,-2,-1,-1,-1,-2,-1,0,0.0
15.385,-1,-1,2,1,-3,1,0,-1,0.0
15.39,-2,-4,-4,-6,-2,-2,-1,-2,0.0
15.395,-1,-4,-5,-2,-3,0,-2,-2,0.0
15.4,-1,3,3,0,-1,-1,2,-1,0.0
15.405000000000001,-2,-4,-2,-8,-10,-5,-4,-1,0.0
15.41,0,2,2,4,6,0,-1,-3,0.0
15.415000000000001,-2,-2,1,8,5,0,2,1,0.0
15.42,0,1,-1,6,3,1,-1,-2,0.0
15.425,-1,0,-1,-3,-1,-2,-1,-2,0.0
15.43,-1,0,1,1,-2,-1,-3,-1,0.0
15.435,-1,0,2,-3,-2,-3,-3,0,0.0
15.44,-3,-6,-9,-6,-4,-1,0,-3,0.0
15.445,-1,1,3,0,-1,1,1,-1,0.0
15.450000000000001,-1,-1,4,22,11,1,0,-2,0.0
15.455,-1,-2,0,-6,-2,1,1,-2,0.0
15.46,-2,-5,-4,-10,-4,-3,-4,0,0.0
15.465,0,1,2,3,1,0,-2,0,0.0
15.47,0,-1,-4,-6,-2,-2,0,-1,0.0
15.475,-1,-3,-4,8,2,-2,-1,-2,0.0
15.48,-2,0,0,2,-3,-1,-5,-1,0.0
15.485000000000001,-2,-2,0,-4,-2,-2,-1,-2,0.0
15.49,1,0,-2,-3,0,1,-1,-1,0.0
15.495000000000001,0,0,-1,2,1,-2,0,-2,0.0
15.5,0,-3,-1,-1,1,1,2,-2,0.0
15.505,-2,0,-2,0,1,0,0,-1,0.0
15.51,-1,2,2,-3,-3,-3,-1,-2,0.0
15.515,1,-4,-1,2,-3,-1,-3,-1,0.0
15.52,0,1,0,-15,-6,-1,-1,-2,0.0
15.525,0,1,3,18,11,-1,0,-1,0.0
15.530000000000001,-1,5,-4,-4,-6,-1,-1,0,0.0
15.535,-2,-3,-3,-1,8,2,0,-2,0.0
15.540000000000001,1,0,1,-5,1,-2,-1,0,0.0
15.545,0,0,1,-7,-5,0,-2,0,0.0
15.55,-1,-6,-4,0,-3,-3,-1,-2,0.0
15.555,-3,-3,1,1,-4,-3,0,-2,0.0
15.56,-1,0,-5,0,-1,1,0,0,0.0
15.565,-2,0,-1,-5,0,-2,-1,-1,0.0
15.57,1,-2,1,-5,-1,-2,-1,0,0.0
15.575000000000001,-1,0,-1,0,0,2,-1,1,0.0
15.58,-2,-3,-1,1,-1,-2,0,-2,0.0
15.585,0,-2,-3,2,-2,0,-5,-1,0.0
15.59,0,0,1,-6,-1,-2,-1,2,0.0
15.595,-1,1,2,-4,-4,-2,0,-1,0.0
15.6,0,1,-5,1,-1,-2,-1,0,0.0
15.605,-1,-3,-6,1,2,1,1,-3,0.0
15.610000000000001,-1,-2,-8,-4,2,1,-1,0,0.0
15.615,-2,-1,-6,-5,-1,-3,0,1,0.0
15.620000000000001,0,1,4,6,-2,-3,0,1,0.0
15.625,0,-3,0,-10,0,-1,0,-2,0.0
15.63,-2,-3,2,7,0,-2,0,-2,0.0
15.635,-1,0,-3,-17,-8,-1,-2,1,0.0
15.64,-1,-1,2,3,0,-1,-1,0,0.0
15.645,0,-4,-6,3,-4,-1,-1,-1,0.0
15.65,-2,-2,0,-2,-3,-1,-3,-3,0.0
15.655000000000001,-1,-1,-1,-7,-4,-2,-1,-1,0.0
15.66,-3,-1,-1,1,2,2,0,-2,0.0
15.665000000000001,-2,1,0,3,-1,-1,-3,-1,0.0
15.67,-2,-2,-7,-9,-2,-2,-2,-1,0.0
15.675,-1,-1,-2,0,-1,0,-1,0,0.0
15.68,-2,0,-2,-12,-6,-4,-1,-3,0.0
15.685,-3,-2,-1,3,0,-1,0,-1,0.0
15.69,0,0,-1,0,-2,0,0,0,0.0
15.695,1,0,1,-1,0,-2,-1,-2,0.0
15.700000000000001,-1,-4,-5,1,-3,-1,-1,-1,0.0
15.705,-2,-6,-7,-4,-3,-1,0,-1,0.0
15.71,-1,1,1,-2,-4,-1,0,-1,0.0
15.715,-1,-1,1,9,4,1,-2,-1,0.0
15.72,0,1,1,10,3,0,-2,0,0.0
15.725,-2,0,2,-15,-6,-2,-2,-2,0.0
15.73,-3,-2,-4,-3,2,1,1,-1,0.0
15.735000000000001,0,-2,-4,3,-3,0,1,-1,0.0
15.74,-2,-4,-3,3,1,-2,-3,-1,0.0
15.745000000000001,-1,2,2,5,-1,-2,-3,0,0.0
15.75,-1,0,3,-2,0,0,-2,0,0.0
15.755,-3,1,1,0,2,-3,0,-3,0.0
15.76,-2,-1,2,-4,-4,-2,-2,-2,0.0
15.765,-3,-5,-5,4,0,-1,-1,-2,0.0
15.77,0,0,3,0,-4,0,-2,0,0.0
15.775,0,-1,1,2,0,0,-2,0,0.0
15.780000000000001,0,1,-4,-12,-4,-1,-2,-1,0.0
15.785,-2,-1,2,0,2,-1,-2,-1,0.0
15.790000000000001,-1,-1,-2,-2,2,-1,1,-1,0.0
15.795,-1,-2,0,7,-2,-1,0,0,0.0
15.8,2,-1,2,-13,-6,-3,-2,-2,0.0
15.805,-2,-3,-1,10,5,2,0,0,0.0
15.81,-2,-2,-6,5,1,-2,0,-3,0.0
15.815,-1,-1,0,-11,-3,-2,0,-1,0.0
15.82,0,2,3,-1,0,0,0,0,0.0
15.825000000000001,-2,1,7,10,0,-2,0,-1,0.0
15.83,-3,-5,-4,-3,4,1,-1,-1,0.0
15.835,-2,-1,1,-2,-4,-4,-2,-1,0.0
15.84,-3,-4,-2,-3,-6,-1,-1,0,0.0
15.845,2,3,0,-1,6,4,1,-1,0.0
15.85,1,0,2,2,-4,-3,0,-2,0.0
15.855,-1,1,0,-7,-3,0,-1,-3,0.0
15.860000000000001,-3,-4,-2,11,5,0,-1,-2,0.0
15.865,1,5,-4,-2,-1,-3,-3,-3,0.0
15.870000000000001,-2,0,2,0,-2,-3,-1,-1,0.0
15.875,-2,-3,-8,-7,-2,-1,-1,0,0.0
15.88,-1,0,-2,-3,-2,-2,0,-2,0.0
15.885,-2,-6,-6,-12,-6,-3,-3,-2,0.0
15.89,0,0,0,-4,-4,-3,-3,-1,0.0
15.895,1,-1,3,12,5,0,0,0,0.0
15.9,-2,-3,-2,-9,-4,1,-1,-1,0.0
15.905000000000001,-1,-1,0,7,1,-2,0,2,0.0
15.91,-2,-4,-5,-17,-3,-2,-2,-1,0.0
15.915000000000001,0,1,-4,3,0,-1,-2,-3,0.0
15.92,0,-1,-2,0,-3,-1,-3,-2,0.0
15.925,1,-1,3,-2,0,-1,-1,1,0.0
15.93,-1,-2,2,1,-3,0,-1,-1,0.0
15.935,-3,-2,-7,-6,-3,-2,-1,-4,0.0
15.94,-1,0,-1,1,2,1,0,0,0.0
15.945,-3,-2,-1,-8,-10,-5,-2,-1,0.0
15.950000000000001,1,0,3,3,-1,-2,0,0,0.0
15.955,-2,-4,-2,3,1,-2,0,-1,0.0
15.96,-5,-1,-1,-1,0,-2,0,-1,0.0
15.965,-3,0,0,1,-2,-2,-2,0,0.0
15.97,-1,-1,-4,-1,-3,-1,-1,-1,0.0
15.975,-2,-3,0,6,1,-2,-3,0,0.0
15.98,0,-3,-3,-2,0,-3,0,-2,0.0
15.985000000000001,-2,-2,-3,-3,-3,-1,-2,-2,0.0
15.99,-1,-1,0,-2,-2,-2,3,-2,0.0
15.995000000000001,-2,-1,-2,-6,0,2,-6,-1,0.0
16.0,-1,0,-1,1,1,0,2,-2,0.0
16.005,0,-2,-2,-6,-2,-3,0,0,0.0
16.01,-1,-1,-2,3,2,0,-2,1,0.0
16.015,0,0,0,-5,-5,-1,0,0,0.0
16.02,-1,-3,-1,5,2,-1,-2,-1,0.0
16.025,1,-1,2,0,1,0,-5,-3,0.0
16.03,-1,-1,-3,-4,-3,-2,-1,-4,0.0
16.035,-1,-3,-1,2,0,-1,6,0,0.0
16.04,-1,0,-1,-3,-3,-2,-8,-3,0.0
16.045,-2,-2,-4,-4,-1,-1,2,0,0.0
16.05,1,1,2,-1,1,2,0,2,0.0
16.055,-3,-1,0,-2,-1,-3,-5,-3,0.0
16.06,1,-3,-2,0,-1,-1,2,0,0.0
16.065,-1,1,0,-1,-1,0,-1,0,0.0
16.07,-2,-1,-2,-4,-3,-1,-3,-2,0.0
16.075,0,0,-1,8,2,-1,0,-2,0.0
16.080000000000002,-2,-2,-1,-6,-1,-2,2,1,0.0
16.085,0,0,-3,-5,-5,-3,-3,-1,0.0
16.09,-1,-1,0,3,4,1,-1,0,0.0
16.095,0,1,3,-2,-4,0,4,-2,0.0
16.1,-2,-2,-2,-5,3,-2,-7,-2,0.0
16.105,-1,-1,0,1,-1,-1,-2,-1,0.0
16.11,-1,-5,-5,-2,0,0,0,0,0.0
16.115000000000002,0,1,0,-3,-1,-1,0,0,0.0
16.12,-2,-1,-1,2,-2,-1,0,-1,0.0
16.125,-3,-2,-1,-15,-5,0,1,-2,0.0
16.13,-2,-3,-3,3,0,-1,-1,-2,0.0
16.135,-3,-2,-2,-2,-2,-3,-4,-2,0.0
16.14,0,3,0,-4,-5,-1,-1,1,0.0
16.145,0,-4,-7,5,4,0,1,-2,0.0
16.15,-2,-2,1,-1,-1,-4,-4,-1,0.0
16.155,-1,0,0,-12,-5,0,-2,0,0.0
16.16,-2,-3,0,12,1,-2,-2,-1,0.0
16.165,-1,1,1,6,2,1,0,1,0.0
16.17,1,2,2,1,-1,-1,0,-1,0.0
16.175,0,-1,-3,4,5,0,-3,-2,0.0
16.18,0,0,-1,-12,-7,-1,-1,-1,0.0
16.185,1,0,0,-4,-3,-1,-1,-4,0.0
16.19,-2,-2,-2,2,-1,-2,-1,-1,0.0
16.195,1,1,-2,0,1,-1,-1,0,0.0
16.2,0,-1,-2,-3,-2,0,0,0,0.0
16.205000000000002,-2,-4,-1,3,-2,-2,0,-2,0.0
16.21,0,2,-2,-13,-6,-3,-1,-2,0.0
16.215,0,-5,-4,12,2,-3,-1,-2,0.0
16.22,0,-2,0,2,5,0,0,0,0.0
16.225,-2,-1,0,-2,-4,-3,-3,-1,0.0
16.23,0,1,1,2,0,0,1,0,0.0
16.235,-2,0,-3,-10,-5,-2,-3,0,0.0
16.240000000000002,-3,-2,-3,-3,2,1,4,-2,0.0
16.245,0,1,1,2,1,-1,-2,1,0.0
16.25,-2,-1,0,2,-3,-1,-2,-1,0.0
16.255,0,-1,1,-2,-1,-1,-2,-2,0.0
16.26,-1,-1,1,-4,-4,-2,-2,-1,0.0
16.265,-1,-2,-1,7,-2,0,-1,-1,0.0
16.27,-2,-2,-2,-7,3,1,-2,-3,0.0
16.275,-1,-2,-1,-4,-1,-2,-1,-1,0.0
16.28,-2,-2,1,-1,-2,-2,0,-1,0.0
16.285,0,-2,-2,-1,-4,-2,1,-1,0.0
16.29,-1,-3,-4,0,-1,-3,-3,-2,0.0
16.295,-2,-2,0,1,-2,2,1,-1,0.0
16.3,-1,-2,0,1,1,-3,-6,-1,0.0
16.305,-2,0,1,-4,-2,-2,-1,-4,0.0
16.31,0,-2,-3,-4,-1,-1,0,1,0.0
16.315,-1,-2,0,3,2,1,-1,-1,0.0
16.32,-1,-1,-2,1,-3,0,-1,-2,0.0
16.325,0,2,-1,-17,-10,-1,-1,-1,0.0
16.330000000000002,-1,-4,-2,14,4,0,-1,-1,0.0
16.335,-2,0,-2,-3,-3,-1,-1,-1,0.0
16.34,-1,-1,-3,-4,-2,-1,0,0,0.0
16.345,-2,-2,-5,-8,-4,-2,-4,-1,0.0
16.35,-2,0,2,0,-1,1,-2,-2,0.0
16.355,0,-1,2,-5,-1,0,0,0,0.0
16.36,0,0,-1,9,2,1,-2,1,0.0
16.365000000000002,-1,-2,0,-5,-2,0,-1,0,0.0
16.37,0,2,0,-1,-3,-2,-1,0,0.0
16.375,-1,1,1,1,0,-1,-2,-1,0.0
16.38,-1,-1,-3,2,1,-2,-2,1,0.0
16.385,0,-3,0,4,2,-1,-2,1,0.0
16.39,-2,-4,-1,3,1,-2,-2,-2,0.0
16.395,-3,-3,-2,-6,-6,-3,-2,-2,0.0
16.4,-1,-1,-7,-8,-3,-2,0,-2,0.0
16.405,-1,-1,-2,4,3,1,4,-1,0.0
16.41,2,-3,-1,0,-4,-3,-6,-2,0.0
16.415,-1,-2,-1,-2,-3,-3,-1,-3,0.0
16.42,-2,-2,1,-3,-2,0,-1,-1,0.0
16.425,-1,0,-3,2,3,-1,-1,-3,0.0
16.43,-1,1,0,-2,-3,0,0,1,0.0
16.435,-2,-3,-5,-8,-2,-2,-1,0,0.0
16.44,1,3,4,-9,-5,-1,1,2,0.0
16.445,-3,-7,-3,12,4,-4,-1,-1,0.0
16.45,-2,-3,-1,6,0,0,0,-3,0.0
16.455000000000002,0,2,-1,-6,0,-1,-1,0,0.0
16.46,-3,-2,0,7,0,-1,-1,-3,0.0
16.465,1,2,2,-5,-3,-1,-2,0,0.0
16.47,0,-1,-1,-4,-2,-2,-1,0,0.0
16.475,0,-3,0,6,1,-1,-1,-2,0.0
16.48,0,-2,-4,-9,-4,-2,-2,-2,0.0
16.485,0,1,1,5,0,-1,-2,-1,0.0
16.490000000000002,-2,0,-3,-3,-2,-3,0,-1,0.0
16.495,0,1,1,-9,-4,-1,-2,0,0.0
16.5,-1,-3,-3,7,7,0,-2,-3,0.0
16.505,0,-2,-2,0,-3,2,-1,-1,0.0
16.51,0,-1,2,-4,-2,-2,-2,0,0.0
16.515,-1,-2,-2,-20,-8,-2,-2,1,0.0
16.52,-2,-4,0,4,0,-2,-1,1,0.0
16.525,-2,-2,-1,-6,-3,-2,-1,-1,0.0
16.53,-1,-1,-3,2,1,1,0,-1,0.0
16.535,0,-2,0,2,0,-2,1,-2,0.0
16.54,-1,-3,1,2,0,-3,-2,-1,0.0
16.545,0,2,-2,0,3,3,0,-1,0.0
16.55,-2,-1,-1,-7,-3,0,0,-1,0.0
16.555,-2,1,-3,7,1,0,-2,-1,0.0
16.56,-2,0,-3,-5,-4,-2,-1,-2,0.0
16.565,1,1,0,-1,-1,-1,-2,-2,0.0
16.57,1,1,-3,0,-1,0,0,-3,0.0
16.575,-2,-2,-2,-2,-1,-2,-2,-3,0.0
16.580000000000002,-1,1,0,-5,-4,-1,-1,-1,0.0
16.585,-2,-3,-2,-7,-1,-1,-2,-1,0.0
16.59,-3,-3,-1,2,1,-1,-1,0,0.0
16.595,-1,-1,1,4,2,0,0,-1,0.0
16.6,1,1,1,-2,-1,0,-1,-2,0.0
16.605,-1,-1,-1,-4,-4,-2,-2,0,0.0
16.61,0,-2,-2,-8,-5,-2,-3,-3,0.0
16.615000000000002,-1,-2,-1,3,0,0,-1,0,0.0
16.62,-2,-2,1,1,0,0,-1,0,0.0
16.625,-1,0,0,-3,-1,-3,-2,-1,0.0
16.63,0,0,1,0,1,0,0,1,0.0
16.635,0,-1,-1,4,-3,-3,-2,-1,0.0
16.64,0,-1,-1,-2,0,-1,-2,0,0.0
16.645,-1,-1,-5,-3,-5,-3,0,-1,0.0
16.65,0,-1,0,-2,-1,1,1,-1,0.0
16.655,-1,-1,-2,-3,-4,-2,0,0,0.0
16.66,-1,-2,-1,-9,-6,-2,-2,-1,0.0
16.665,-4,-2,-2,9,6,1,0,-2,0.0
16.67,0,-2,-3,-1,0,0,-1,0,0.0
16.675,-1,-3,-2,-9,-2,0,0,0,0.0
16.68,-3,1,-5,-2,-2,-2,-1,-3,0.0
16.685,-1,-4,1,-4,-4,-2,-1,-1,0.0
16.69,-1,0,-1,-3,-2,-2,-3,0,0.0
16.695,-2,-2,-1,5,-1,-1,-1,-1,0.0
16.7,-1,-2,-2,-2,-3,-2,0,-1,0.0
16.705000000000002,-2,-3,-1,-2,-3,-1,-2,-1,0.0
16.71,-1,-1,-3,1,4,-1,-1,-1,0.0
16.715,-1,0,1,-1,-4,-1,-2,0,0.0
16.72,1,-1,0,-8,-3,0,-1,0,0.0
16.725,-2,-3,-4,11,0,-2,-2,-1,0.0
16.73,0,-2,-2,-3,-4,-1,-2,-1,0.0
16.735,1,-3,-3,0,-2,-3,-4,-2,0.0
16.740000000000002,-1,-4,-3,0,1,1,0,0,0.0
16.745,-3,0,-1,-9,-2,-3,-3,0,0.0
16.75,-3,-1,-2,-4,-4,-4,-1,-3,0.0
16.755,0,-2,-1,3,0,0,1,0,0.0
16.76,1,0,-1,0,1,0,-1,1,0.0
16.765,0,0,2,-1,0,2,3,-2,0.0
16.77,-1,0,-1,-1,-4,-3,-2,0,0.0
16.775,-2,-2,-1,3,1,0,-1,-1,0.0
16.78,-1,1,0,0,-3,-2,-1,-1,0.0
16.785,-1,-3,-2,3,-2,-1,0,-1,0.0
16.79,-1,-1,-1,-3,-1,0,1,-2,0.0
16.795,-2,-1,-1,-3,-3,0,-1,-3,0.0
16.8,-2,0,-2,3,-2,-1,-1,-2,0.0
16.805,0,1,0,-2,2,1,-1,-2,0.0
16.81,-1,0,0,-12,-7,-3,-2,0,0.0
16.815,-3,-5,-3,14,6,0,-2,0,0.0
16.82,-1,-2,-2,-7,-3,-2,0,-1,0.0
16.825,1,-1,-2,-8,-8,-3,-3,-1,0.0
16.830000000000002,0,-1,2,-7,2,0,1,1,0.0
16.835,-1,1,-2,3,7,0,-1,-1,0.0
16.84,-2,-2,0,2,-3,-2,-3,-1,0.0
16.845,-2,0,0,3,0,0,-1,-2,0.0
16.85,0,-3,0,-2,-3,-3,-1,-2,0.0
16.855,-1,-1,-1,-12,-5,-2,0,1,0.0
16.86,0,-2,-1,12,7,1,-2,-1,0.0
16.865000000000002,-2,-1,-1,-9,-2,-1,-1,-1,0.0
16.87,0,-2,-6,1,1,0,-1,-3,0.0
16.875,0,-1,-1,-5,-3,-1,-1,-2,0.0
16.88,-2,-3,1,0,0,-1,0,-2,0.0
16.885,0,2,1,-2,-1,1,-2,0,0.0
16.89,-3,-1,2,4,-1,-2,-2,-1,0.0
16.895,-1,0,-2,-2,-2,0,-1,1,0.0
16.9,-1,-1,-1,3,-2,-2,-3,-1,0.0
16.905,-2,-2,0,-3,-3,-4,-1,-3,0.0
16.91,-2,0,-1,3,3,0,0,0,0.0
16.915,-1,2,4,-4,-7,-4,-3,-2,0.0
16.92,-1,-2,-4,6,6,1,-1,-1,0.0
16.925,0,0,-2,-1,1,-2,-2,-1,0.0
16.93,-1,-1,-2,0,-2,-1,0,-2,0.0
16.935,0,-1,0,-4,-2,-1,0,-1,0.0
16.94,0,0,1,-2,-2,-2,-1,0,0.0
16.945,-2,-1,-3,1,0,-2,-2,0,0.0
16.95,-1,0,0,-2,-3,-2,-1,-2,0.0
16.955000000000002,0,-2,-2,-3,-1,-1,0,-1,0.0
16.96,-2,-1,1,1,0,-2,-3,-4,0.0
16.965,-1,-3,-3,3,-4,-1,2,0,0.0
16.97,-2,-2,0,-5,-4,-2,-1,0,0.0
16.975,-2,-1,-1,3,1,-1,-1,-2,0.0
16.98,0,0,-1,-4,0,0,0,1,0.0
16.985,0,1,-1,1,1,0,0,1,0.0
16.990000000000002,-2,-1,-2,-1,-3,-3,-1,-2,0.0
16.995,-1,-1,0,-1,-2,-1,-1,-1,0.0
17.0,-1,1,-2,-3,-2,-1,-1,-1,0.0
17.005,-2,0,1,-3,0,-1,0,-1,0.0
17.01,-1,1,-2,0,1,-1,0,-1,0.0
17.015,-1,-1,-3,2,3,0,-1,-1,0.0
17.02,0,-2,2,-1,-2,-1,0,-1,0.0
17.025,0,-4,-1,-1,-1,0,0,-3,0.0
17.03,0,0,0,-2,-2,-1,-3,-3,0.0
17.035,-2,-1,-1,1,1,-2,0,-1,0.0
17.04,0,-1,-1,-6,-5,-1,1,0,0.0
17.045,-1,-2,-2,0,1,1,0,-1,0.0
17.05,-1,-1,-1,8,2,0,-2,0,0.0
17.055,-2,-2,-6,-8,-4,1,-2,0,0.0
17.06,-2,-2,-1,0,-2,-3,-2,-1,0.0
17.065,-1,-1,-2,0,-3,0,-1,-2,0.0
17.07,-1,-1,1,-6,-3,0,0,-1,0.0
17.075,-1,-1,1,8,3,0,0,-2,0.0
17.080000000000002,0,-2,-3,-10,-4,-2,0,-3,0.0
17.085,-2,-2,-1,1,-4,-1,-2,1,0.0
17.09,0,0,1,6,1,0,1,-1,0.0
17.095,-1,-2,-3,-7,-4,-3,-2,0,0.0
17.1,-1,-2,-1,2,3,0,-2,0,0.0
17.105,1,1,-3,-2,2,0,-1,0,0.0
17.11,-1,-4,-2,-6,-5,-1,-2,-1,0.0
17.115000000000002,-2,1,2,4,2,-1,-2,0,0.0
17.12,-3,-1,-2,-2,0,1,-1,0,0.0
17.125,0,-1,1,-2,-1,-1,-1,-1,0.0
17.13,1,0,-3,2,2,-1,-1,1,0.0
17.135,0,-2,-1,-2,-4,-2,-1,-1,0.0
17.14,0,-4,-2,0,-1,-1,0,-2,0.0
17.145,-3,0,0,-3,-2,-1,-1,-1,0.0
17.150000000000002,-1,-2,0,0,0,-1,-1,0,0.0
17.155,-1,-3,-3,-1,2,0,0,-1,0.0
17.16,-1,-1,-2,-1,-2,-1,-2,-1,0.0
17.165,-1,-4,-2,-4,-4,-1,-1,0,0.0
17.17,0,-1,-4,3,0,-3,-1,-1,0.0
17.175,0,2,3,-2,-2,-1,-3,-1,0.0
17.18,-1,-4,-5,-4,-2,-3,-1,-2,0.0
17.185,1,-1,-1,-1,-1,1,1,-2,0.0
17.19,-2,-3,-3,-1,1,0,-3,-2,0.0
17.195,-1,-1,2,-1,-3,-2,0,-2,0.0
17.2,-3,1,-2,4,-3,-2,-2,-2,0.0
17.205000000000002,-1,0,1,2,0,-3,-3,-2,0.0
17.21,1,2,2,-2,-2,-2,1,0,0.0
17.215,0,-2,-3,1,0,0,0,-1,0.0
17.22,-1,-2,1,1,1,-3,0,-2,0.0
17.225,-2,1,-2,-6,-1,-3,0,1,0.0
17.23,-3,-3,0,3,-3,-1,-3,-2,0.0
17.235,2,1,-1,-6,2,0,-1,0,0.0
17.240000000000002,-2,-3,-5,-3,0,1,-2,-1,0.0
17.245,1,0,-2,1,1,-1,-2,-1,0.0
17.25,-3,0,1,-4,0,0,2,1,0.0
17.255,-1,-1,-1,2,-2,-4,-2,0,0.0
17.26,-1,-1,1,-4,-5,-3,-2,0,0.0
17.265,0,-1,0,5,2,-2,-1,-2,0.0
17.27,1,-1,-3,-3,-2,0,0,-1,0.0
17.275000000000002,-4,-4,-1,-2,0,-1,-1,-2,0.0
17.28,-1,1,0,-2,-2,0,-1,-1,0.0
17.285,-2,-1,1,-5,-4,-1,0,-2,0.0
17.29,-2,-3,-2,4,0,-2,-3,-4,0.0
17.295,1,-2,-3,-7,-1,2,0,1,0.0
17.3,0,-2,0,6,4,1,1,1,0.0
17.305,-1,0,-1,-5,-5,-3,-1,-1,0.0
17.31,-2,-2,-3,0,-2,-3,0,-3,0.0
17.315,0,-1,1,3,-2,-2,-2,0,0.0
17.32,-1,-1,1,0,0,-1,-1,0,0.0
17.325,0,0,-5,-3,-2,-1,-1,-2,0.0
17.330000000000002,-1,-2,2,-2,-1,0,-1,-2,0.0
17.335,-1,-2,-4,2,-3,-3,1,-2,0.0
17.34,0,0,-2,-5,-3,-3,-1,-3,0.0
17.345,-3,-5,-2,3,-1,-1,-2,-1,0.0
17.35,-2,1,-3,-3,-5,-2,-1,0,0.0
17.355,0,1,1,9,5,3,3,0,0.0
17.36,-1,-1,-2,-5,-3,-2,-2,1,0.0
17.365000000000002,-3,-2,2,0,-1,-2,0,-2,0.0
17.37,-1,-2,-1,-7,-3,-2,-2,-1,0.0
17.375,-2,-4,-2,-4,-2,0,-3,-1,0.0
17.38,1,2,0,0,-1,-2,-2,0,0.0
17.385,-2,-2,-2,1,1,0,1,-1,0.0
17.39,-1,-2,-1,0,-2,-1,-3,-1,0.0
17.395,-2,-1,0,-3,0,-3,-2,-1,0.0
17.400000000000002,-2,0,0,3,-2,-1,-1,-2,0.0
17.405,1,-1,1,-1,-3,-2,-2,-2,0.0
17.41,-2,-3,-1,-3,1,0,2,-1,0.0
17.415,-2,-1,-1,3,-2,-4,-2,-3,0.0
17.42,-2,-2,-1,-2,-3,-3,-2,-3,0.0
17.425,0,1,-2,2,5,4,3,0,0.0
17.43,1,0,0,5,3,2,1,0,0.0
17.435,-1,3,4,-7,-5,-2,-2,0,0.0
17.44,-2,-2,-1,-10,-7,-3,-3,-3,0.0
17.445,0,-3,-13,2,-2,-2,-3,-1,0.0
17.45,0,-2,1,-2,0,-1,0,1,0.0
17.455000000000002,1,1,-1,5,0,-2,0,-2,0.0
17.46,-3,-5,-3,-5,-4,0,0,-1,0.0
17.465,1,0,4,-6,0,0,-2,0,0.0
17.47,-1,0,3,0,-1,-1,-2,0,0.0
17.475,-2,-3,-6,-6,-5,-1,-1,0,0.0
17.48,0,-2,0,6,2,-1,-1,-1,0.0
17.485,0,0,0,-12,-6,-2,-1,-2,0.0
17.490000000000002,-2,-4,-4,6,-1,-1,0,0,0.0
17.495,0,0,2,0,0,1,1,0,0.0
17.5,1,1,1,1,0,1,0,-2,0.0
17.505,-2,-1,3,4,2,-2,-3,-2,0.0
17.51,-1,-2,-1,-5,-2,-2,0,-2,0.0
17.515,-1,-1,-4,-1,2,-1,-1,-2,0.0
17.52,-2,-1,-3,0,-2,-1,-2,-1,0.0
17.525000000000002,-2,-1,2,-1,1,-2,0,1,0.0
17.53,0,1,0,-3,-3,0,-1,-1,0.0
17.535,-3,-3,-2,2,0,0,-1,-3,0.0
17.54,-1,1,6,3,1,-1,0,0,0.0
17.545,0,-4,-6,-8,-5,-2,-1,-2,0.0
17.55,-1,-2,-2,-4,-2,-1,-1,0,0.0
17.555,-1,3,5,-4,-2,-2,0,1,0.0
17.56,-1,-3,1,-2,0,-1,-2,-1,0.0
17.565,-2,-1,1,2,-1,-3,0,-1,0.0
17.57,-1,4,-2,0,0,1,-1,-1,0.0
17.575,0,-2,-3,-4,-2,-2,-1,-2,0.0
17.580000000000002,1,2,-1,4,4,0,1,0,0.0
17.585,-2,1,-1,-3,-4,-2,-2,-1,0.0
17.59,-1,-3,-6,-2,-1,-1,-2,-2,0.0
17.595,-2,-6,-3,-3,-2,-2,-1,0,0.0
17.6,-2,-3,-4,5,3,1,0,2,0.0
17.605,-1,-2,0,-2,-5,-1,-2,0,0.0
17.61,0,2,-2,-2,-2,-4,-1,-3,0.0
17.615000000000002,-4,-2,-1,1,-2,-3,-2,0,0.0
17.62,-1,-2,-5,-7,-3,-3,0,-1,0.0
17.625,-1,0,0,2,-1,1,0,-1,0.0
17.63,-1,-2,-2,-4,-3,-2,-3,-1,0.0
17.635,-1,1,0,-2,2,-2,-1,-2,0.0
17.64,0,0,-3,4,2,0,-1,0,0.0
17.645,1,0,-2,-3,1,0,0,-1,0.0
17.650000000000002,-2,-1,0,1,-1,-1,-1,-1,0.0
17.655,0,-5,-3,-5,-4,-1,-3,-1,0.0
17.66,0,2,3,-4,-3,0,0,-3,0.0
17.665,-2,-2,1,8,1,0,-2,-2,0.0
17.67,-2,-2,-4,-1,-1,0,-1,-1,0.0
17.675,0,2,-3,-1,4,1,0,0,0.0
17.68,-2,-3,-2,-2,-3,-4,-2,-1,0.0
17.685,0,0,-4,1,-2,-1,0,-2,0.0
17.69,-1,-3,-4,-2,1,-2,-2,-2,0.0
17.695,-1,0,3,1,-4,-1,-2,0,0.0
17.7,-2,-1,1,-1,0,-1,-1,-2,0.0
17.705000000000002,-1,-1,1,1,-1,-2,-1,-2,0.0
17.71,-1,1,0,-5,-1,-2,0,-2,0.0
17.715,-1,-4,-4,2,-2,-1,0,0,0.0
17.72,-2,-1,-4,-5,-1,0,-1,2,0.0
17.725,0,-1,0,0,0,2,-1,1,0.0
17.73,-1,1,0,1,0,1,1,-1,0.0
17.735,-2,0,0,-4,0,-1,-3,-3,0.0
17.740000000000002,0,-4,-1,-1,-2,-1,-2,-2,0.0
17.745,-1,-1,1,1,-2,0,-1,-2,0.0
17.75,1,-2,-1,-2,-4,-3,-1,-1,0.0
17.755,-1,1,-2,2,-3,-3,0,-2,0.0
17.76,-1,2,-5,-2,-3,-2,-1,-4,0.0
17.765,-1,0,0,-8,-2,-2,-1,-2,0.0
17.77,-1,0,-1,4,0,1,0,-2,0.0
17.775000000000002,-2,-3,-2,0,-1,1,1,0,0.0
17.78,-1,-1,0,-2,-3,-4,-1,0,0.0
17.785,0,-1,-2,-3,-5,-5,-1,-3,0.0
17.79,0,-1,-2,-3,-1,-2,-1,0,0.0
17.795,-1,0,0,3,2,0,-2,-1,0.0
17.8,0,-2,-1,-3,-1,1,1,-2,0.0
17.805,1,1,0,-4,-2,0,0,1,0.0
17.81,-3,-2,5,3,-2,-3,-3,-2,0.0
17.815,-1,-6,-8,3,3,2,-2,-1,0.0
17.82,-1,-2,-1,-7,-3,-3,-2,-2,0.0
17.825,-4,-4,-6,1,2,-1,0,0,0.0
17.830000000000002,1,1,1,-2,-1,0,1,-1,0.0
17.835,-1,0,3,-4,-4,-3,0,-1,0.0
17.84,-1,0,0,1,-2,4,0,-1,0.0
17.845,-1,-1,1,1,-1,-1,-1,-1,0.0
17.85,1,0,-7,-3,-2,-3,-3,-3,0.0
17.855,-2,-1,1,0,-1,-1,0,-1,0.0
17.86,0,-3,-1,0,2,-3,-2,0,0.0
17.865000000000002,-1,-1,0,-1,1,2,0,0,0.0
17.87,-1,-2,-1,1,2,0,-3,-1,0.0
17.875,0,0,2,-5,-5,-2,-3,-2,0.0
17.88,0,-1,0,-4,-4,-2,0,-2,0.0
17.885,-1,-5,-6,3,0,0,0,-1,0.0
17.89,-3,-6,-8,1,0,0,-2,-1,0.0
17.895,0,0,2,-3,-2,-2,-1,0,0.0
17.900000000000002,-2,-1,0,-2,-2,0,-3,0,0.0
17.905,-2,-2,-1,-1,-2,-3,-2,-1,0.0
17.91,0,1,-1,-2,-1,0,2,-2,0.0
17.915,-2,-2,-2,-2,-3,-3,-2,0,0.0
17.92,-4,-5,-6,0,-1,0,-1,-1,0.0
17.925,1,-2,-2,-2,-1,1,0,0,0.0
17.93,-1,2,4,0,-1,-2,-1,0,0.0
17.935,-1,-2,-3,0,0,1,1,-1,0.0
17.94,0,1,1,-1,-1,-2,-2,-2,0.0
17.945,-1,-1,-1,1,-1,-3,-3,-2,0.0
17.95,0,-4,-2,-2,-2,-2,-2,-1,0.0
17.955000000000002,0,1,-1,-3,-1,-3,-2,-1,0.0
17.96,-2,-1,-3,-3,-1,-1,-1,-1,0.0
17.965,0,3,0,1,1,-2,0,-1,0.0
17.97,-1,-1,-1,-3,-2,0,-1,-1,0.0
17.975,0,1,0,3,0,-2,-1,-1,0.0
17.98,0,-1,-4,-3,-1,1,0,0,0.0
17.985,-2,-2,-4,-4,-3,-1,-2,0,0.0
17.990000000000002,-2,-2,0,-1,0,-1,0,0,0.0
17.995,-2,1,-1,-3,-1,-1,-2,-3,0.0
18.0,-1,1,1,2,0,-1,-1,-2,0.0
18.005,-3,-5,-1,-6,0,-2,-2,-1,0.0
18.01,-1,0,-2,0,1,-1,-2,0,0.0
18.015,-1,1,-3,-2,-3,-1,-1,0,0.0
18.02,-1,-2,0,2,0,-2,1,0,0.0
18.025000000000002,-2,-1,1,2,0,-2,-2,-1,0.0
18.03,-2,-3,2,-3,0,-3,-1,1,0.0
18.035,-3,-5,-4,-2,0,-1,-1,-2,0.0
18.04,0,0,-4,-2,-1,0,-2,0,0.0
18.045,-1,-2,1,2,-2,-1,0,0,0.0
18.05,-2,0,-4,-3,-3,-1,1,-1,0.0
18.055,-1,1,-2,-4,-4,-2,-1,0,0.0
18.06,-2,0,2,5,-1,1,-1,-1,0.0
18.065,-1,-1,-3,-6,-3,-1,-1,-1,0.0
18.07,0,-1,-1,3,-1,0,0,-1,0.0
18.075,-3,-2,-1,-1,0,1,1,-1,0.0
18.080000000000002,0,-1,-3,0,1,-1,-1,-3,0.0
18.085,-1,0,2,1,0,-2,-2,-1,0.0
18.09,-1,1,1,-2,-2,-1,0,-2,0.0
18.095,-1,-2,1,-2,0,-2,0,0,0.0
18.1,-3,-2,-2,-2,-3,0,-1,0,0.0
18.105,0,1,3,-2,-1,-1,0,-2,0.0
18.11,-2,-2,-1,1,1,-1,-2,-2,0.0
18.115000000000002,0,-1,0,0,-1,-1,-1,-1,0.0
18.12,-1,-2,-1,0,-1,-3,-2,-1,0.0
18.125,1,1,-1,-2,-3,-1,-1,0,0.0
18.13,-2,-5,-2,1,-2,-1,1,-2,0.0
18.135,0,1,-3,-3,-1,-2,-2,-1,0.0
