0.005,-1.0,3.0,23.0,-6.0,-3.0,-1.0,-1.0,-2.0,-0.27545166015625,0.025634765625,0.53155517578125,0.800537109375,-0.345703125,-0.42724609375,0.85546875,-0.5625,0.125,0.0
0.01,-1.0,3.0,23.0,-6.0,-3.0,-1.0,-1.0,-2.0,-0.27545166015625,0.025634765625,0.53155517578125,0.800537109375,-0.345703125,-0.42724609375,0.85546875,-0.5625,0.125,0.0
0.015,-1.0,-3.0,-8.0,-4.0,-1.0,-1.0,0.0,-2.0,-0.27545166015625,0.025634765625,0.53155517578125,0.800537109375,-0.345703125,-0.42724609375,0.85546875,-0.5625,0.125,0.0
0.02,-1.0,1.0,-8.0,1.0,2.0,0.0,-3.0,-2.0,-0.27545166015625,0.025634765625,0.53155517578125,0.800537109375,-0.345703125,-0.42724609375,0.85546875,-0.5625,0.125,0.0
0.025,-1.0,-1.0,-4.0,3.0,1.0,1.0,-1.0,1.0,-0.27545166015625,0.025634765625,0.53155517578125,0.800537109375,-0.34326171875,-0.43017578125,0.853515625,-0.4375,0.125,0.3125
0.030000000000000002,-1.0,-1.0,-4.0,3.0,1.0,1.0,-1.0,1.0,-0.27545166015625,0.025634765625,0.53155517578125,0.800537109375,-0.34326171875,-0.43017578125,0.853515625,-0.4375,0.125,0.3125
0.035,-2.0,-2.0,11.0,-2.0,-2.0,-3.0,0.0,0.0,-0.2755126953125,0.02557373046875,0.531494140625,0.800537109375,-0.341796875,-0.4306640625,0.857421875,0.125,0.0625,0.1875
0.04,-1.0,0.0,-8.0,-3.0,-4.0,-1.0,0.0,0.0,-0.2755126953125,0.02557373046875,0.531494140625,0.800537109375,-0.341796875,-0.4306640625,0.857421875,0.125,0.0625,0.1875
0.045,0.0,-2.0,-6.0,-1.0,2.0,3.0,-2.0,0.0,-0.2755126953125,0.02557373046875,0.531494140625,0.800537109375,-0.33837890625,-0.42578125,0.85546875,0.375,0.0,0.4375
0.049999999999999996,0.0,-2.0,-6.0,-1.0,2.0,3.0,-2.0,0.0,-0.2755126953125,0.02557373046875,0.531494140625,0.800537109375,-0.33837890625,-0.42578125,0.85546875,0.375,0.0,0.4375
0.05499999999999999,-2.0,2.0,-4.0,8.0,7.0,0.0,0.0,-1.0,-0.2755126953125,0.02557373046875,0.531494140625,0.800537109375,-0.33837890625,-0.42578125,0.85546875,0.375,0.0,0.4375
0.05999999999999999,-2.0,2.0,-4.0,8.0,7.0,0.0,0.0,-1.0,-0.27557373046875,0.02569580078125,0.53167724609375,0.8004150390625,-0.35107421875,-0.42529296875,0.85986328125,-0.1875,-0.3125,1.0625
0.06499999999999999,-1.0,-1.0,-10.0,-8.0,-1.0,-1.0,-1.0,-2.0,-0.275634765625,0.02569580078125,0.5318603515625,0.80023193359375,-0.3466796875,-0.42333984375,0.8603515625,-0.375,-0.5625,1.25
0.06999999999999999,-1.0,-2.0,-4.0,1.0,0.0,-1.0,0.0,-2.0,-0.275634765625,0.02569580078125,0.5318603515625,0.80023193359375,-0.3466796875,-0.42333984375,0.8603515625,-0.375,-0.5625,1.25
0.075,0.0,0.0,-5.0,-1.0,2.0,-3.0,0.0,1.0,-0.275634765625,0.02569580078125,0.5318603515625,0.80023193359375,-0.33984375,-0.42578125,0.85791015625,-0.1875,-0.625,0.9375
0.08,0.0,-1.0,-11.0,0.0,2.0,1.0,-3.0,-3.0,-0.275634765625,0.02569580078125,0.5318603515625,0.80023193359375,-0.33984375,-0.42578125,0.85791015625,-0.1875,-0.625,0.9375
0.085,-2.0,-2.0,1.0,2.0,1.0,1.0,-3.0,0.0,-0.27569580078125,0.025634765625,0.5318603515625,0.80023193359375,-0.3408203125,-0.4267578125,0.85595703125,0.375,-0.5625,0.75
0.09000000000000001,-2.0,-2.0,1.0,2.0,1.0,1.0,-3.0,0.0,-0.27569580078125,0.025634765625,0.5318603515625,0.80023193359375,-0.3408203125,-0.4267578125,0.85595703125,0.375,-0.5625,0.75
0.09500000000000001,0.0,0.0,1.0,-3.0,0.0,1.0,0.0,0.0,-0.27569580078125,0.025634765625,0.5318603515625,0.80023193359375,-0.3408203125,-0.4267578125,0.85595703125,0.375,-0.5625,0.75
0.10000000000000002,1.0,-7.0,-12.0,1.0,-5.0,-3.0,0.0,0.0,-0.275634765625,0.025634765625,0.5318603515625,0.80023193359375,-0.32763671875,-0.4208984375,0.86669921875,-0.4375,-0.3125,0.5
0.10500000000000002,-3.0,-3.0,5.0,-4.0,0.0,-1.0,-1.0,-1.0,-0.275634765625,0.025634765625,0.5318603515625,0.80023193359375,-0.32763671875,-0.4208984375,0.86669921875,-0.4375,-0.3125,0.5
0.11000000000000003,1.0,-3.0,-1.0,3.0,-2.0,-4.0,-1.0,0.0,-0.275634765625,0.025634765625,0.5318603515625,0.80023193359375,-0.33837890625,-0.42724609375,0.8623046875,-0.375,0.0,0.875
0.11500000000000003,-3.0,0.0,11.0,-4.0,-2.0,0.0,-3.0,-3.0,-0.275634765625,0.025634765625,0.5318603515625,0.80023193359375,-0.34326171875,-0.4169921875,0.86328125,0.4375,0.125,0.25
0.12000000000000004,-3.0,0.0,11.0,-4.0,-2.0,0.0,-3.0,-3.0,-0.275634765625,0.025634765625,0.5318603515625,0.80023193359375,-0.34326171875,-0.4169921875,0.86328125,0.4375,0.125,0.25
0.12500000000000003,0.0,-2.0,-8.0,7.0,5.0,1.0,0.0,-1.0,-0.275634765625,0.025634765625,0.5318603515625,0.80023193359375,-0.35009765625,-0.4169921875,0.86962890625,0.3125,-0.0625,0.1875
0.13000000000000003,0.0,4.0,7.0,4.0,1.0,-1.0,-2.0,1.0,-0.275634765625,0.025634765625,0.5318603515625,0.80023193359375,-0.35009765625,-0.4169921875,0.86962890625,0.3125,-0.0625,0.1875
0.13500000000000004,-3.0,-1.0,3.0,-5.0,-7.0,-3.0,0.0,-2.0,-0.275634765625,0.02569580078125,0.5318603515625,0.80023193359375,-0.34423828125,-0.42041015625,0.86279296875,0.0625,-0.25,-0.125
0.14000000000000004,1.0,-2.0,4.0,-4.0,-4.0,-1.0,0.0,-1.0,-0.275634765625,0.025634765625,0.5318603515625,0.80023193359375,-0.34033203125,-0.42626953125,0.85888671875,0.125,0.0,-0.5
0.14500000000000005,-3.0,0.0,3.0,-2.0,0.0,-2.0,0.0,-1.0,-0.275634765625,0.025634765625,0.5318603515625,0.80023193359375,-0.34033203125,-0.42626953125,0.85888671875,0.125,0.0,-0.5
0.15000000000000005,-1.0,-7.0,-6.0,-2.0,3.0,1.0,-2.0,-1.0,-0.275634765625,0.025634765625,0.5318603515625,0.80023193359375,-0.3349609375,-0.42529296875,0.8642578125,0.1875,0.625,-0.6875
0.15500000000000005,-3.0,0.0,1.0,-9.0,-3.0,-1.0,-1.0,-2.0,-0.275634765625,0.025634765625,0.5318603515625,0.80023193359375,-0.3369140625,-0.4208984375,0.861328125,-0.375,0.8125,-0.6875
0.16000000000000006,-3.0,0.0,1.0,-9.0,-3.0,-1.0,-1.0,-2.0,-0.275634765625,0.025634765625,0.5318603515625,0.80023193359375,-0.3369140625,-0.4208984375,0.861328125,-0.375,0.8125,-0.6875
0.16500000000000006,0.0,-2.0,-5.0,2.0,-2.0,-2.0,-1.0,-5.0,-0.27593994140625,0.025634765625,0.53179931640625,0.80023193359375,-0.34423828125,-0.42529296875,0.85986328125,-1.1875,0.75,-0.375
0.17000000000000007,-1.0,-3.0,-2.0,1.0,-4.0,-3.0,-2.0,0.0,-0.27593994140625,0.025634765625,0.53179931640625,0.80023193359375,-0.34423828125,-0.42529296875,0.85986328125,-1.1875,0.75,-0.375
0.17500000000000007,0.0,-1.0,0.0,-12.0,-10.0,-2.0,0.0,0.0,-0.27618408203125,0.025634765625,0.53167724609375,0.8001708984375,-0.34326171875,-0.42724609375,0.86181640625,-1.0625,0.8125,-0.375
0.18000000000000008,0.0,1.0,3.0,0.0,-1.0,0.0,-1.0,-1.0,-0.2762451171875,0.025634765625,0.53167724609375,0.8001708984375,-0.33837890625,-0.43115234375,0.85986328125,-0.1875,0.4375,-0.3125
0.18500000000000008,-3.0,-1.0,2.0,1.0,0.0,0.0,0.0,-2.0,-0.2762451171875,0.025634765625,0.53167724609375,0.8001708984375,-0.33837890625,-0.43115234375,0.85986328125,-0.1875,0.4375,-0.3125
0.19000000000000009,-2.0,-2.0,4.0,-5.0,0.0,-1.0,0.0,-2.0,-0.2762451171875,0.025634765625,0.53167724609375,0.8001708984375,-0.34228515625,-0.4248046875,0.859375,0.0625,0.0,0.125
0.1950000000000001,-2.0,-2.0,4.0,-5.0,0.0,-1.0,0.0,-2.0,-0.2762451171875,0.025634765625,0.53167724609375,0.8001708984375,-0.34228515625,-0.4248046875,0.859375,0.0625,0.0,0.125
0.2000000000000001,-1.0,-1.0,1.0,-1.0,-1.0,0.0,-1.0,-2.0,-0.2762451171875,0.025634765625,0.53167724609375,0.8001708984375,-0.3427734375,-0.42578125,0.85546875,-0.375,-0.125,0.3125
0.2050000000000001,0.0,-1.0,-5.0,3.0,11.0,-1.0,-2.0,-1.0,-0.2762451171875,0.025634765625,0.53167724609375,0.8001708984375,-0.3466796875,-0.4287109375,0.86083984375,-0.375,-0.4375,0.5
0.2100000000000001,-2.0,4.0,-2.0,-7.0,3.0,-1.0,-2.0,-1.0,-0.2762451171875,0.025634765625,0.53167724609375,0.8001708984375,-0.3466796875,-0.4287109375,0.86083984375,-0.375,-0.4375,0.5
0.2150000000000001,-2.0,4.0,-2.0,-7.0,3.0,-1.0,-2.0,-1.0,-0.27630615234375,0.025634765625,0.53167724609375,0.8001708984375,-0.34814453125,-0.42822265625,0.86865234375,-0.25,-0.4375,0.6875
0.2200000000000001,-1.0,-5.0,-5.0,-1.0,-6.0,-3.0,-1.0,0.0,-0.27630615234375,0.025634765625,0.53167724609375,0.8001708984375,-0.34814453125,-0.42822265625,0.86865234375,-0.25,-0.4375,0.6875
0.22500000000000012,-1.0,2.0,5.0,-5.0,-1.0,0.0,-2.0,-1.0,-0.27630615234375,0.025634765625,0.53167724609375,0.8001708984375,-0.33447265625,-0.43017578125,0.8603515625,0.0,-0.4375,0.1875
0.23000000000000012,0.0,1.0,-1.0,18.0,4.0,2.0,0.0,-1.0,-0.27630615234375,0.02557373046875,0.53167724609375,0.8001708984375,-0.3388671875,-0.42333984375,0.86474609375,0.5,-0.1875,0.375
0.23500000000000013,-2.0,0.0,1.0,-1.0,-4.0,-2.0,0.0,-3.0,-0.27630615234375,0.02557373046875,0.53167724609375,0.8001708984375,-0.3388671875,-0.42333984375,0.86474609375,0.5,-0.1875,0.375
0.24000000000000013,-2.0,0.0,1.0,-1.0,-4.0,-2.0,0.0,-3.0,-0.2762451171875,0.025634765625,0.53167724609375,0.8001708984375,-0.34375,-0.416015625,0.8642578125,-0.625,-0.125,0.5625
0.24500000000000013,-1.0,-4.0,3.0,1.0,6.0,0.0,0.0,0.0,-0.2762451171875,0.025634765625,0.53167724609375,0.8001708984375,-0.34375,-0.416015625,0.8642578125,-0.625,-0.125,0.5625
0.2500000000000001,0.0,-2.0,2.0,4.0,-5.0,-1.0,-2.0,-2.0,-0.27655029296875,0.0255126953125,0.53167724609375,0.800048828125,-0.34765625,-0.4267578125,0.86083984375,-1.6875,-0.0625,0.0625
0.2550000000000001,-2.0,3.0,7.0,-5.0,-3.0,-2.0,-3.0,-2.0,-0.27655029296875,0.0255126953125,0.53167724609375,0.800048828125,-0.34765625,-0.4267578125,0.86083984375,-1.6875,-0.0625,0.0625
0.2600000000000001,-1.0,-3.0,-5.0,-13.0,-3.0,-2.0,2.0,-1.0,-0.27679443359375,0.02545166015625,0.53167724609375,0.79998779296875,-0.34375,-0.43017578125,0.859375,-1.125,0.3125,-0.125
0.2650000000000001,-2.0,-3.0,-10.0,-3.0,-6.0,-3.0,-1.0,-1.0,-0.27679443359375,0.025390625,0.53167724609375,0.79998779296875,-0.33544921875,-0.4208984375,0.8642578125,0.0,0.625,-0.4375
0.27000000000000013,-1.0,2.0,1.0,-16.0,-8.0,2.0,1.0,-1.0,-0.27679443359375,0.025390625,0.53167724609375,0.79998779296875,-0.33544921875,-0.4208984375,0.8642578125,0.0,0.625,-0.4375
0.27500000000000013,-1.0,2.0,1.0,-16.0,-8.0,2.0,1.0,-1.0,-0.27679443359375,0.025390625,0.53167724609375,0.79998779296875,-0.33544921875,-0.4208984375,0.8642578125,0.0,0.625,-0.4375
0.28000000000000014,-2.0,0.0,3.0,-6.0,-7.0,-4.0,-1.0,1.0,-0.27703857421875,0.025390625,0.5316162109375,0.7999267578125,-0.33837890625,-0.42626953125,0.86474609375,-1.4375,0.9375,0.1875
0.28500000000000014,-2.0,0.0,3.0,-6.0,-7.0,-4.0,-1.0,1.0,-0.27728271484375,0.02557373046875,0.5316162109375,0.79986572265625,-0.34521484375,-0.431640625,0.86572265625,-0.25,1.4375,0.25
0.29000000000000015,-4.0,-1.0,2.0,2.0,5.0,-1.0,0.0,-2.0,-0.27728271484375,0.02557373046875,0.5316162109375,0.79986572265625,-0.34521484375,-0.431640625,0.86572265625,-0.25,1.4375,0.25
0.29500000000000015,-3.0,-3.0,-7.0,-6.0,-6.0,-4.0,-3.0,-1.0,-0.27734375,0.02593994140625,0.53155517578125,0.79986572265625,-0.34375,-0.4306640625,0.86083984375,1.0,2.0,0.625
0.30000000000000016,0.0,2.0,-3.0,-2.0,3.0,1.0,0.0,-1.0,-0.27734375,0.02593994140625,0.53155517578125,0.79986572265625,-0.34375,-0.4306640625,0.86083984375,1.0,2.0,0.625
0.30500000000000016,-1.0,-1.0,1.0,3.0,4.0,0.0,-2.0,1.0,-0.2774658203125,0.0263671875,0.531494140625,0.7998046875,-0.35302734375,-0.43017578125,0.85302734375,1.1875,1.75,0.3125
0.31000000000000016,1.0,-3.0,-19.0,4.0,3.0,2.0,0.0,-2.0,-0.27764892578125,0.02667236328125,0.53155517578125,0.79974365234375,-0.34912109375,-0.41845703125,0.85791015625,-0.125,1.4375,0.5
0.31500000000000017,-2.0,-4.0,-17.0,-16.0,-14.0,-2.0,-2.0,-2.0,-0.27764892578125,0.02667236328125,0.53155517578125,0.79974365234375,-0.34912109375,-0.41845703125,0.85791015625,-0.125,1.4375,0.5
0.3200000000000002,1.0,1.0,3.0,4.0,-3.0,-1.0,-2.0,0.0,-0.27764892578125,0.02667236328125,0.53155517578125,0.79974365234375,-0.34912109375,-0.41845703125,0.85791015625,-0.125,1.4375,0.5
0.3250000000000002,1.0,1.0,3.0,4.0,-3.0,-1.0,-2.0,0.0,-0.27764892578125,0.02667236328125,0.53155517578125,0.79974365234375,-0.34912109375,-0.41845703125,0.85791015625,-0.125,1.4375,0.5
0.3300000000000002,-2.0,-4.0,0.0,4.0,1.0,-1.0,0.0,-2.0,-0.27764892578125,0.02667236328125,0.53155517578125,0.79974365234375,-0.3486328125,-0.42822265625,0.85009765625,-0.75,0.6875,0.3125
0.3350000000000002,-2.0,-4.0,0.0,4.0,1.0,-1.0,0.0,-2.0,-0.2777099609375,0.02667236328125,0.53155517578125,0.79974365234375,-0.34375,-0.43017578125,0.85791015625,0.1875,0.25,-0.0625
0.3400000000000002,-1.0,2.0,3.0,4.0,5.0,0.0,-1.0,-2.0,-0.2777099609375,0.02667236328125,0.53155517578125,0.79974365234375,-0.34375,-0.43017578125,0.85791015625,0.1875,0.25,-0.0625
0.3450000000000002,0.0,-3.0,-2.0,-2.0,-1.0,-1.0,-2.0,-1.0,-0.2777099609375,0.02667236328125,0.53155517578125,0.79974365234375,-0.34619140625,-0.42626953125,0.8564453125,0.125,-0.4375,-0.3125
0.3500000000000002,0.0,-3.0,-2.0,-2.0,-1.0,-1.0,-2.0,-1.0,-0.2777099609375,0.02667236328125,0.53155517578125,0.79974365234375,-0.34619140625,-0.42626953125,0.8564453125,0.125,-0.4375,-0.3125
0.3550000000000002,0.0,-4.0,-1.0,5.0,9.0,1.0,0.0,-1.0,-0.2777099609375,0.02667236328125,0.531494140625,0.79974365234375,-0.3486328125,-0.4296875,0.8564453125,0.375,-0.875,-0.375
0.3600000000000002,-1.0,-1.0,-2.0,-6.0,-3.0,-3.0,-2.0,-1.0,-0.2777099609375,0.02667236328125,0.531494140625,0.79974365234375,-0.3486328125,-0.4296875,0.8564453125,0.375,-0.875,-0.375
0.3650000000000002,-3.0,-2.0,-2.0,-2.0,-10.0,0.0,-1.0,-2.0,-0.277587890625,0.02655029296875,0.531494140625,0.7998046875,-0.345703125,-0.42529296875,0.86083984375,0.25,-1.125,-0.6875
0.3700000000000002,-2.0,-3.0,8.0,-4.0,-2.0,-1.0,-2.0,-1.0,-0.277587890625,0.02655029296875,0.531494140625,0.7998046875,-0.345703125,-0.42529296875,0.86083984375,0.25,-1.125,-0.6875
0.3750000000000002,0.0,-1.0,0.0,-7.0,0.0,0.0,-1.0,-2.0,-0.2774658203125,0.02642822265625,0.531494140625,0.79986572265625,-0.34619140625,-0.4208984375,0.86279296875,0.1875,-1.125,-0.5
0.3800000000000002,1.0,1.0,-2.0,-2.0,0.0,-1.0,-1.0,-3.0,-0.2774658203125,0.02642822265625,0.531494140625,0.79986572265625,-0.34619140625,-0.4208984375,0.86279296875,0.1875,-1.125,-0.5
0.38500000000000023,-1.0,-1.0,-1.0,5.0,3.0,-1.0,0.0,-1.0,-0.27734375,0.02630615234375,0.53143310546875,0.7999267578125,-0.35009765625,-0.42236328125,0.8603515625,0.0625,-1.125,-0.6875
0.39000000000000024,0.0,2.0,-3.0,-6.0,-4.0,-4.0,-2.0,-1.0,-0.27734375,0.02630615234375,0.53143310546875,0.7999267578125,-0.35009765625,-0.42236328125,0.8603515625,0.0625,-1.125,-0.6875
0.39500000000000024,0.0,2.0,-3.0,-6.0,-4.0,-4.0,-2.0,-1.0,-0.27734375,0.02630615234375,0.53143310546875,0.7999267578125,-0.35009765625,-0.42236328125,0.8603515625,0.0625,-1.125,-0.6875
0.40000000000000024,-3.0,-1.0,3.0,-6.0,2.0,-2.0,-3.0,-1.0,-0.27728271484375,0.026123046875,0.53131103515625,0.800048828125,-0.34033203125,-0.42919921875,0.86083984375,0.1875,-0.875,-1.0625
0.40500000000000025,-3.0,-1.0,3.0,-6.0,2.0,-2.0,-3.0,-1.0,-0.277099609375,0.02593994140625,0.53125,0.8001708984375,-0.337890625,-0.42822265625,0.86279296875,0.6875,-1.125,-0.875
0.41000000000000025,-2.0,-2.0,-4.0,-4.0,-6.0,-3.0,-1.0,-2.0,-0.277099609375,0.02593994140625,0.53125,0.8001708984375,-0.337890625,-0.42822265625,0.86279296875,0.6875,-1.125,-0.875
0.41500000000000026,-2.0,-2.0,-4.0,-4.0,-6.0,-3.0,-1.0,-2.0,-0.277099609375,0.02593994140625,0.53125,0.8001708984375,-0.34130859375,-0.4267578125,0.86328125,0.375,-0.75,-0.6875
0.42000000000000026,-2.0,-1.0,6.0,-4.0,2.0,0.0,0.0,-1.0,-0.277099609375,0.02593994140625,0.53125,0.8001708984375,-0.34130859375,-0.4267578125,0.86328125,0.375,-0.75,-0.6875
0.42500000000000027,1.0,0.0,-4.0,22.0,10.0,0.0,-1.0,0.0,-0.277099609375,0.02593994140625,0.53125,0.8001708984375,-0.34130859375,-0.4267578125,0.86328125,0.375,-0.75,-0.6875
0.43000000000000027,-3.0,-4.0,-5.0,-7.0,1.0,0.0,-1.0,-1.0,-0.277099609375,0.02587890625,0.53125,0.8001708984375,-0.33984375,-0.42578125,0.86181640625,-0.125,-0.5625,-0.75
0.4350000000000003,-2.0,-4.0,-4.0,0.0,0.0,-3.0,-3.0,-1.0,-0.277099609375,0.02587890625,0.53125,0.8001708984375,-0.33935546875,-0.42822265625,0.85791015625,0.125,0.0,-0.6875
0.4400000000000003,-1.0,0.0,0.0,-2.0,-3.0,-1.0,-1.0,-1.0,-0.277099609375,0.02587890625,0.53125,0.8001708984375,-0.33935546875,-0.42822265625,0.85791015625,0.125,0.0,-0.6875
0.4450000000000003,0.0,-4.0,-2.0,-6.0,0.0,-2.0,0.0,-1.0,-0.27691650390625,0.0260009765625,0.53106689453125,0.80035400390625,-0.34326171875,-0.42919921875,0.86767578125,1.25,0.1875,-0.9375
0.4500000000000003,0.0,-4.0,-2.0,-6.0,0.0,-2.0,0.0,-1.0,-0.27691650390625,0.0260009765625,0.53106689453125,0.80035400390625,-0.34326171875,-0.42919921875,0.86767578125,1.25,0.1875,-0.9375
0.4550000000000003,-1.0,2.0,1.0,-7.0,-4.0,0.0,-1.0,-2.0,-0.27691650390625,0.0260009765625,0.53106689453125,0.80035400390625,-0.34326171875,-0.42919921875,0.86767578125,1.25,0.1875,-0.9375
0.4600000000000003,0.0,-2.0,-3.0,0.0,-3.0,0.0,-1.0,-1.0,-0.2767333984375,0.026123046875,0.531005859375,0.8004150390625,-0.349609375,-0.4228515625,0.86376953125,1.5625,-0.1875,-0.625
0.4650000000000003,-2.0,-2.0,-3.0,-5.0,-6.0,-4.0,0.0,-2.0,-0.2767333984375,0.02618408203125,0.531005859375,0.8004150390625,-0.35107421875,-0.4208984375,0.8603515625,0.1875,-0.25,-0.875
0.4700000000000003,1.0,3.0,0.0,4.0,12.0,-1.0,-1.0,0.0,-0.2767333984375,0.02618408203125,0.531005859375,0.8004150390625,-0.35107421875,-0.4208984375,0.8603515625,0.1875,-0.25,-0.875
0.4750000000000003,-2.0,-2.0,-20.0,1.0,1.0,0.0,0.0,0.0,-0.2767333984375,0.02618408203125,0.531005859375,0.8004150390625,-0.35107421875,-0.4208984375,0.8603515625,0.1875,-0.25,-0.875
0.4800000000000003,0.0,1.0,7.0,5.0,5.0,1.0,0.0,-1.0,-0.2767333984375,0.02618408203125,0.531005859375,0.8004150390625,-0.34375,-0.42822265625,0.8525390625,-0.4375,-0.5,-0.9375
0.4850000000000003,-4.0,-6.0,-26.0,3.0,-7.0,-2.0,0.0,-3.0,-0.2767333984375,0.026123046875,0.531005859375,0.8004150390625,-0.33349609375,-0.4326171875,0.86279296875,-0.5625,0.0625,-1.0
0.4900000000000003,0.0,0.0,5.0,-9.0,-4.0,-2.0,0.0,0.0,-0.27679443359375,0.026123046875,0.531005859375,0.8004150390625,-0.34326171875,-0.43408203125,0.857421875,0.0,0.1875,-0.5
0.49500000000000033,0.0,0.0,5.0,-9.0,-4.0,-2.0,0.0,0.0,-0.27679443359375,0.026123046875,0.531005859375,0.8004150390625,-0.34326171875,-0.43408203125,0.857421875,0.0,0.1875,-0.5
0.5000000000000003,0.0,-1.0,0.0,0.0,-2.0,-2.0,-4.0,0.0,-0.27679443359375,0.026123046875,0.531005859375,0.8004150390625,-0.34326171875,-0.4296875,0.861328125,-0.1875,0.4375,-0.375
0.5050000000000003,-2.0,-1.0,1.0,6.0,12.0,2.0,-1.0,-2.0,-0.27679443359375,0.026123046875,0.531005859375,0.8004150390625,-0.34326171875,-0.4296875,0.861328125,-0.1875,0.4375,-0.375
0.5100000000000003,-2.0,-1.0,1.0,6.0,12.0,2.0,-1.0,-2.0,-0.27679443359375,0.026123046875,0.531005859375,0.8004150390625,-0.34326171875,-0.4296875,0.861328125,-0.1875,0.4375,-0.375
0.5150000000000003,-3.0,-1.0,1.0,-9.0,-6.0,-1.0,0.0,-3.0,-0.27679443359375,0.026123046875,0.531005859375,0.8004150390625,-0.34130859375,-0.4267578125,0.8583984375,-0.375,0.1875,-0.1875
0.5200000000000004,-1.0,-1.0,0.0,-13.0,-13.0,-1.0,0.0,-2.0,-0.27685546875,0.02606201171875,0.53094482421875,0.8004150390625,-0.34228515625,-0.43505859375,0.85546875,-0.625,-0.25,0.25
0.5250000000000004,-1.0,-1.0,0.0,-13.0,-13.0,-1.0,0.0,-2.0,-0.27685546875,0.02606201171875,0.53094482421875,0.8004150390625,-0.3408203125,-0.4267578125,0.8583984375,0.5625,-0.625,0.25
0.5300000000000004,1.0,-1.0,-1.0,3.0,5.0,1.0,-1.0,0.0,-0.27685546875,0.02606201171875,0.53094482421875,0.8004150390625,-0.3408203125,-0.4267578125,0.8583984375,0.5625,-0.625,0.25
0.5350000000000004,-3.0,-9.0,-10.0,-3.0,-7.0,-1.0,1.0,-1.0,-0.27685546875,0.02606201171875,0.53094482421875,0.8004150390625,-0.3408203125,-0.4267578125,0.8583984375,0.5625,-0.625,0.25
0.5400000000000004,-3.0,-1.0,7.0,0.0,0.0,-1.0,-1.0,-1.0,-0.27679443359375,0.02593994140625,0.531005859375,0.8004150390625,-0.34619140625,-0.4267578125,0.86181640625,0.0,-1.125,0.0625
0.5450000000000004,0.0,-1.0,-4.0,-1.0,1.0,0.0,-1.0,1.0,-0.2767333984375,0.0257568359375,0.53106689453125,0.8004150390625,-0.33837890625,-0.43017578125,0.86083984375,0.125,-1.0625,-0.0625
0.5500000000000004,-1.0,3.0,1.0,4.0,-7.0,-5.0,0.0,1.0,-0.2767333984375,0.0257568359375,0.53106689453125,0.8004150390625,-0.33837890625,-0.43017578125,0.86083984375,0.125,-1.0625,-0.0625
0.5550000000000004,1.0,-3.0,-1.0,-4.0,-4.0,-2.0,-2.0,1.0,-0.2767333984375,0.0257568359375,0.53106689453125,0.8004150390625,-0.3369140625,-0.42724609375,0.86181640625,0.1875,-0.9375,-0.1875
0.5600000000000004,1.0,-3.0,-1.0,-4.0,-4.0,-2.0,-2.0,1.0,-0.2767333984375,0.0257568359375,0.53106689453125,0.8004150390625,-0.3369140625,-0.42724609375,0.86181640625,0.1875,-0.9375,-0.1875
0.5650000000000004,1.0,-2.0,0.0,-5.0,-7.0,-2.0,0.0,-1.0,-0.2767333984375,0.02569580078125,0.53106689453125,0.8004150390625,-0.34033203125,-0.42529296875,0.861328125,0.0,-0.375,0.0625
0.5700000000000004,0.0,-3.0,4.0,1.0,-2.0,1.0,0.0,-2.0,-0.2767333984375,0.0257568359375,0.53106689453125,0.8004150390625,-0.34716796875,-0.42822265625,0.861328125,-0.1875,-0.1875,-0.0625
0.5750000000000004,0.0,2.0,4.0,1.0,4.0,-1.0,-1.0,0.0,-0.2767333984375,0.0257568359375,0.53106689453125,0.8004150390625,-0.34716796875,-0.42822265625,0.861328125,-0.1875,-0.1875,-0.0625
0.5800000000000004,0.0,2.0,4.0,1.0,4.0,-1.0,-1.0,0.0,-0.2767333984375,0.0257568359375,0.53106689453125,0.8004150390625,-0.341796875,-0.4267578125,0.86474609375,0.125,-0.0625,-0.25
0.5850000000000004,0.0,-1.0,-2.0,8.0,4.0,2.0,-1.0,-1.0,-0.2767333984375,0.0257568359375,0.53106689453125,0.8004150390625,-0.341796875,-0.4267578125,0.86474609375,0.125,-0.0625,-0.25
0.5900000000000004,-1.0,-3.0,-7.0,-4.0,-5.0,-4.0,-2.0,0.0,-0.2767333984375,0.02569580078125,0.53106689453125,0.8004150390625,-0.33544921875,-0.43017578125,0.859375,-0.25,-0.3125,-0.625
0.5950000000000004,-1.0,-3.0,-7.0,-4.0,-5.0,-4.0,-2.0,0.0,-0.2767333984375,0.02569580078125,0.53106689453125,0.8004150390625,-0.33544921875,-0.43017578125,0.859375,-0.25,-0.3125,-0.625
0.6000000000000004,-2.0,-1.0,-2.0,-4.0,-4.0,-3.0,0.0,-3.0,-0.2767333984375,0.02569580078125,0.53106689453125,0.8004150390625,-0.33935546875,-0.4267578125,0.85595703125,0.0,-0.0625,-0.8125
0.6050000000000004,-2.0,0.0,1.0,2.0,1.0,1.0,-1.0,0.0,-0.2767333984375,0.02569580078125,0.53106689453125,0.8004150390625,-0.33935546875,-0.4267578125,0.85595703125,0.0,-0.0625,-0.8125
0.6100000000000004,-2.0,0.0,1.0,2.0,1.0,1.0,-1.0,0.0,-0.27685546875,0.02557373046875,0.53082275390625,0.800537109375,-0.33837890625,-0.4296875,0.8564453125,-0.4375,0.0625,-1.25
0.6150000000000004,-2.0,2.0,-3.0,1.0,2.0,-1.0,-1.0,0.0,-0.27685546875,0.02557373046875,0.53082275390625,0.800537109375,-0.33837890625,-0.4296875,0.8564453125,-0.4375,0.0625,-1.25
0.6200000000000004,0.0,0.0,-6.0,-6.0,-9.0,-2.0,-1.0,-3.0,-0.27685546875,0.02557373046875,0.53082275390625,0.800537109375,-0.33837890625,-0.4296875,0.8564453125,-0.4375,0.0625,-1.25
0.6250000000000004,-2.0,-2.0,5.0,2.0,6.0,0.0,-2.0,-1.0,-0.27685546875,0.0255126953125,0.53082275390625,0.800537109375,-0.3330078125,-0.431640625,0.86279296875,-0.8125,0.125,-0.875
0.6300000000000004,-2.0,-2.0,5.0,2.0,6.0,0.0,-2.0,-1.0,-0.27685546875,0.0255126953125,0.53082275390625,0.800537109375,-0.3330078125,-0.431640625,0.86279296875,-0.8125,0.125,-0.875
0.6350000000000005,-1.0,2.0,-1.0,4.0,2.0,1.0,-1.0,-2.0,-0.27691650390625,0.0255126953125,0.53082275390625,0.800537109375,-0.341796875,-0.43017578125,0.86181640625,-0.5625,0.1875,-0.5625
0.6400000000000005,0.0,-2.0,0.0,9.0,2.0,0.0,0.0,-2.0,-0.27691650390625,0.0255126953125,0.53082275390625,0.800537109375,-0.34521484375,-0.43310546875,0.8603515625,-0.6875,0.0625,-0.4375
0.6450000000000005,0.0,-2.0,0.0,9.0,2.0,0.0,0.0,-2.0,-0.27691650390625,0.0255126953125,0.53082275390625,0.800537109375,-0.34521484375,-0.43310546875,0.8603515625,-0.6875,0.0625,-0.4375
0.6500000000000005,-1.0,-2.0,-1.0,3.0,-1.0,-1.0,-1.0,0.0,-0.27691650390625,0.0255126953125,0.53082275390625,0.800537109375,-0.34521484375,-0.43310546875,0.8603515625,-0.6875,0.0625,-0.4375
0.6550000000000005,-1.0,0.0,-2.0,-1.0,-3.0,-2.0,-1.0,-1.0,-0.27691650390625,0.02545166015625,0.53082275390625,0.800537109375,-0.3369140625,-0.4345703125,0.8642578125,-0.375,0.0,-0.375
0.6600000000000005,-1.0,0.0,-2.0,-1.0,-3.0,-2.0,-1.0,-1.0,-0.27691650390625,0.02545166015625,0.53082275390625,0.800537109375,-0.3369140625,-0.4345703125,0.8642578125,-0.375,0.0,-0.375
0.6650000000000005,-3.0,-3.0,-5.0,3.0,0.0,-2.0,1.0,0.0,-0.2769775390625,0.02545166015625,0.53082275390625,0.800537109375,-0.33935546875,-0.4365234375,0.85546875,0.4375,-0.125,-0.1875
0.6700000000000005,-3.0,-3.0,-5.0,3.0,0.0,-2.0,1.0,0.0,-0.2769775390625,0.02545166015625,0.53082275390625,0.800537109375,-0.337890625,-0.43115234375,0.8642578125,0.375,-0.25,-0.0625
0.6750000000000005,-2.0,-1.0,0.0,-2.0,-8.0,-2.0,-1.0,-2.0,-0.2769775390625,0.02545166015625,0.53082275390625,0.800537109375,-0.337890625,-0.43115234375,0.8642578125,0.375,-0.25,-0.0625
0.6800000000000005,-1.0,-1.0,-1.0,5.0,-1.0,-1.0,-2.0,-1.0,-0.2769775390625,0.025390625,0.53082275390625,0.800537109375,-0.33935546875,-0.43359375,0.86474609375,-0.3125,-0.125,-0.25
0.6850000000000005,-3.0,1.0,-3.0,-6.0,-2.0,0.0,-2.0,-3.0,-0.2769775390625,0.025390625,0.53076171875,0.800537109375,-0.34130859375,-0.43212890625,0.85546875,-0.1875,0.0,0.0
0.6900000000000005,1.0,-2.0,-5.0,4.0,-1.0,-2.0,-1.0,2.0,-0.2769775390625,0.025390625,0.53076171875,0.800537109375,-0.34130859375,-0.43212890625,0.85546875,-0.1875,0.0,0.0
0.6950000000000005,1.0,1.0,0.0,-10.0,-12.0,-2.0,-2.0,0.0,-0.2769775390625,0.025390625,0.53076171875,0.800537109375,-0.34033203125,-0.4306640625,0.86181640625,-0.3125,0.125,0.0625
0.7000000000000005,-3.0,1.0,-13.0,-8.0,3.0,0.0,-2.0,-2.0,-0.2769775390625,0.025390625,0.53076171875,0.800537109375,-0.34033203125,-0.4306640625,0.86181640625,-0.3125,0.125,0.0625
0.7050000000000005,0.0,-2.0,2.0,10.0,3.0,0.0,0.0,1.0,-0.27703857421875,0.025390625,0.53076171875,0.800537109375,-0.33984375,-0.4296875,0.85888671875,-0.0625,0.0,0.125
0.7100000000000005,-2.0,-1.0,-1.0,1.0,-2.0,0.0,0.0,2.0,-0.27703857421875,0.025390625,0.53076171875,0.800537109375,-0.3427734375,-0.43408203125,0.85400390625,-0.5,0.0,0.3125
0.7150000000000005,-2.0,-1.0,-1.0,1.0,-2.0,0.0,0.0,2.0,-0.27703857421875,0.025390625,0.53076171875,0.800537109375,-0.3427734375,-0.43408203125,0.85400390625,-0.5,0.0,0.3125
0.7200000000000005,-1.0,-1.0,2.0,-4.0,-6.0,0.0,0.0,-1.0,-0.27703857421875,0.025390625,0.53076171875,0.800537109375,-0.3427734375,-0.43408203125,0.85400390625,-0.5,0.0,0.3125
0.7250000000000005,0.0,-2.0,3.0,0.0,-2.0,-1.0,-2.0,-1.0,-0.277099609375,0.02532958984375,0.53076171875,0.800537109375,-0.34130859375,-0.43701171875,0.8623046875,0.0,-0.0625,0.3125
0.7300000000000005,-1.0,-1.0,-6.0,-10.0,-10.0,-3.0,0.0,-1.0,-0.277099609375,0.02532958984375,0.53076171875,0.800537109375,-0.3310546875,-0.4375,0.8564453125,0.0,-0.125,0.4375
0.7350000000000005,-1.0,-1.0,-6.0,-10.0,-10.0,-3.0,0.0,-1.0,-0.277099609375,0.02532958984375,0.53076171875,0.800537109375,-0.3310546875,-0.4375,0.8564453125,0.0,-0.125,0.4375
0.7400000000000005,-2.0,-1.0,-1.0,-1.0,1.0,0.0,-1.0,-2.0,-0.277099609375,0.0252685546875,0.5308837890625,0.8004150390625,-0.3349609375,-0.43310546875,0.85693359375,0.375,-0.1875,1.0
0.7450000000000006,-1.0,-2.0,-1.0,-9.0,-8.0,-3.0,1.0,-1.0,-0.277099609375,0.0252685546875,0.5308837890625,0.8004150390625,-0.3349609375,-0.43310546875,0.85693359375,0.375,-0.1875,1.0
0.7500000000000006,0.0,-1.0,-1.0,-8.0,2.0,0.0,-1.0,-1.0,-0.27703857421875,0.0252685546875,0.531005859375,0.80035400390625,-0.3408203125,-0.43115234375,0.8564453125,0.5,-0.125,1.0625
0.7550000000000006,0.0,1.0,0.0,2.0,5.0,-1.0,-3.0,-3.0,-0.27703857421875,0.0252685546875,0.531005859375,0.80035400390625,-0.3408203125,-0.43115234375,0.8564453125,0.5,-0.125,1.0625
0.7600000000000006,0.0,1.0,0.0,2.0,5.0,-1.0,-3.0,-3.0,-0.27703857421875,0.025390625,0.5311279296875,0.80029296875,-0.34619140625,-0.4296875,0.86279296875,0.5,-0.1875,1.0625
0.7650000000000006,-2.0,0.0,-2.0,1.0,-3.0,-1.0,-3.0,-1.0,-0.27703857421875,0.025390625,0.5311279296875,0.80029296875,-0.34619140625,-0.4296875,0.86279296875,0.5,-0.1875,1.0625
0.7700000000000006,-1.0,0.0,-2.0,-7.0,-21.0,-4.0,-1.0,-1.0,-0.27703857421875,0.025390625,0.5311279296875,0.80023193359375,-0.3427734375,-0.4248046875,0.85595703125,0.4375,-0.625,0.8125
0.7750000000000006,-2.0,0.0,-2.0,2.0,6.0,0.0,-2.0,-1.0,-0.27703857421875,0.025390625,0.5311279296875,0.80023193359375,-0.34716796875,-0.42529296875,0.86181640625,0.3125,-0.5,0.5625
0.7800000000000006,-2.0,0.0,-2.0,2.0,6.0,0.0,-2.0,-1.0,-0.27703857421875,0.025390625,0.5311279296875,0.80023193359375,-0.34716796875,-0.42529296875,0.86181640625,0.3125,-0.5,0.5625
0.7850000000000006,-2.0,-3.0,-1.0,-9.0,-5.0,-1.0,-1.0,1.0,-0.27703857421875,0.025390625,0.5311279296875,0.80023193359375,-0.34130859375,-0.43408203125,0.8623046875,0.625,-0.6875,0.5625
0.7900000000000006,-3.0,-2.0,0.0,-7.0,-4.0,-3.0,-2.0,-2.0,-0.27703857421875,0.025390625,0.5311279296875,0.80023193359375,-0.34130859375,-0.43408203125,0.8623046875,0.625,-0.6875,0.5625
0.7950000000000006,-2.0,-1.0,-6.0,-1.0,-1.0,-3.0,-1.0,-1.0,-0.277099609375,0.025390625,0.5311279296875,0.80023193359375,-0.33837890625,-0.42578125,0.85791015625,0.375,-0.375,0.125
0.8000000000000006,-1.0,-1.0,2.0,-1.0,-10.0,0.0,-1.0,-3.0,-0.277099609375,0.025390625,0.5311279296875,0.80023193359375,-0.34033203125,-0.42724609375,0.85693359375,-0.3125,0.0625,0.375
0.8050000000000006,-1.0,-1.0,-5.0,-11.0,-3.0,-1.0,-2.0,-2.0,-0.277099609375,0.025390625,0.5311279296875,0.80023193359375,-0.34033203125,-0.42724609375,0.85693359375,-0.3125,0.0625,0.375
0.8100000000000006,-1.0,-1.0,-5.0,-11.0,-3.0,-1.0,-2.0,-2.0,-0.277099609375,0.025390625,0.5311279296875,0.80023193359375,-0.34375,-0.43115234375,0.85888671875,-0.3125,0.1875,0.5625
0.8150000000000006,0.0,-1.0,2.0,2.0,3.0,0.0,1.0,1.0,-0.277099609375,0.025390625,0.5311279296875,0.80023193359375,-0.34375,-0.43115234375,0.85888671875,-0.3125,0.1875,0.5625
0.8200000000000006,1.0,-1.0,-1.0,-11.0,-9.0,-2.0,-1.0,-1.0,-0.277099609375,0.02532958984375,0.5311279296875,0.80023193359375,-0.341796875,-0.43115234375,0.857421875,0.25,0.0625,0.4375
0.8250000000000006,-1.0,1.0,-2.0,5.0,3.0,1.0,-1.0,-2.0,-0.277099609375,0.02532958984375,0.5311279296875,0.80023193359375,-0.341796875,-0.43115234375,0.857421875,0.25,0.0625,0.4375
0.8300000000000006,-1.0,1.0,-2.0,5.0,3.0,1.0,-1.0,-2.0,-0.27716064453125,0.02532958984375,0.5311279296875,0.80023193359375,-0.3408203125,-0.43212890625,0.86083984375,0.4375,-0.125,0.4375
0.8350000000000006,-1.0,-2.0,0.0,0.0,1.0,-1.0,-2.0,0.0,-0.27716064453125,0.02532958984375,0.5311279296875,0.80023193359375,-0.3408203125,-0.43212890625,0.86083984375,0.4375,-0.125,0.4375
0.8400000000000006,-1.0,0.0,7.0,-4.0,0.0,0.0,-1.0,-1.0,-0.277099609375,0.02532958984375,0.5311279296875,0.80023193359375,-0.3369140625,-0.42431640625,0.8603515625,0.5625,-0.0625,0.625
0.8450000000000006,1.0,-2.0,-4.0,5.0,6.0,-1.0,-2.0,1.0,-0.27716064453125,0.02532958984375,0.5311279296875,0.80023193359375,-0.34130859375,-0.427734375,0.8603515625,0.0625,0.125,0.375
0.8500000000000006,0.0,-2.0,0.0,-2.0,-5.0,-3.0,-1.0,-2.0,-0.27716064453125,0.02532958984375,0.5311279296875,0.80023193359375,-0.34130859375,-0.427734375,0.8603515625,0.0625,0.125,0.375
0.8550000000000006,-1.0,0.0,0.0,0.0,4.0,1.0,-1.0,-1.0,-0.27716064453125,0.02532958984375,0.5311279296875,0.80023193359375,-0.34423828125,-0.4296875,0.86376953125,0.125,0.1875,0.25
0.8600000000000007,-1.0,0.0,0.0,0.0,4.0,1.0,-1.0,-1.0,-0.27716064453125,0.02532958984375,0.5311279296875,0.80023193359375,-0.34423828125,-0.4296875,0.86376953125,0.125,0.1875,0.25
0.8650000000000007,-1.0,-1.0,-6.0,-1.0,3.0,1.0,-1.0,-1.0,-0.27716064453125,0.02532958984375,0.5311279296875,0.80023193359375,-0.34423828125,-0.4296875,0.86376953125,0.125,0.1875,0.25
0.8700000000000007,-1.0,-2.0,1.0,1.0,0.0,-3.0,-3.0,-2.0,-0.27716064453125,0.02532958984375,0.5311279296875,0.80023193359375,-0.33642578125,-0.42724609375,0.86083984375,0.0625,0.125,-0.1875
0.8750000000000007,0.0,0.0,-1.0,-9.0,-10.0,-2.0,1.0,-1.0,-0.27716064453125,0.02532958984375,0.5311279296875,0.80023193359375,-0.3408203125,-0.42626953125,0.86279296875,0.25,0.25,-0.1875
0.8800000000000007,-1.0,0.0,-2.0,5.0,-2.0,-2.0,0.0,-2.0,-0.27716064453125,0.02532958984375,0.5311279296875,0.80023193359375,-0.3408203125,-0.42626953125,0.86279296875,0.25,0.25,-0.1875
0.8850000000000007,1.0,-3.0,-5.0,-1.0,-2.0,0.0,-1.0,-2.0,-0.27716064453125,0.02532958984375,0.5311279296875,0.80023193359375,-0.34326171875,-0.4267578125,0.8583984375,0.1875,0.4375,-0.4375
0.8900000000000007,1.0,-3.0,-5.0,-1.0,-2.0,0.0,-1.0,-2.0,-0.27716064453125,0.02532958984375,0.5311279296875,0.80023193359375,-0.34326171875,-0.4267578125,0.8583984375,0.1875,0.4375,-0.4375
0.8950000000000007,-2.0,1.0,-5.0,-2.0,3.0,0.0,-1.0,-1.0,-0.27716064453125,0.02532958984375,0.5311279296875,0.80023193359375,-0.34521484375,-0.4296875,0.85498046875,-0.25,0.4375,-0.5
0.9000000000000007,-1.0,-3.0,-7.0,-6.0,-2.0,-2.0,-3.0,-2.0,-0.27716064453125,0.02532958984375,0.5311279296875,0.80023193359375,-0.34521484375,-0.4296875,0.85498046875,-0.25,0.4375,-0.5
0.9050000000000007,-1.0,-3.0,-7.0,-6.0,-2.0,-2.0,-3.0,-2.0,-0.2772216796875,0.02532958984375,0.5311279296875,0.80023193359375,-0.341796875,-0.43408203125,0.85986328125,-0.5625,0.4375,-0.1875
0.9100000000000007,0.0,-3.0,4.0,-1.0,-1.0,-3.0,1.0,1.0,-0.2772216796875,0.02532958984375,0.5311279296875,0.80023193359375,-0.341796875,-0.43408203125,0.85986328125,-0.5625,0.4375,-0.1875
0.9150000000000007,0.0,-3.0,4.0,-1.0,-1.0,-3.0,1.0,1.0,-0.2772216796875,0.0252685546875,0.53106689453125,0.80023193359375,-0.34375,-0.4326171875,0.85546875,-0.25,0.5625,-0.1875
0.9200000000000007,-1.0,1.0,0.0,-9.0,-11.0,-3.0,-1.0,-1.0,-0.2772216796875,0.0252685546875,0.53106689453125,0.80023193359375,-0.34375,-0.4326171875,0.85546875,-0.25,0.5625,-0.1875
0.9250000000000007,0.0,-1.0,0.0,-2.0,4.0,-1.0,-1.0,-2.0,-0.2772216796875,0.0252685546875,0.53106689453125,0.80023193359375,-0.34375,-0.4326171875,0.85546875,-0.25,0.5625,-0.1875
0.9300000000000007,0.0,0.0,1.0,3.0,1.0,-1.0,-1.0,0.0,-0.2772216796875,0.0252685546875,0.53106689453125,0.80023193359375,-0.341796875,-0.43701171875,0.85986328125,0.375,0.5,-0.1875
0.9350000000000007,0.0,0.0,1.0,3.0,1.0,-1.0,-1.0,0.0,-0.2772216796875,0.0252685546875,0.53106689453125,0.80023193359375,-0.341796875,-0.43701171875,0.85986328125,0.375,0.5,-0.1875
0.9400000000000007,0.0,-4.0,-4.0,3.0,-2.0,-1.0,2.0,-1.0,-0.27728271484375,0.0252685546875,0.53106689453125,0.80023193359375,-0.3427734375,-0.43408203125,0.85888671875,0.75,0.4375,-0.1875
0.9450000000000007,-1.0,2.0,-6.0,-1.0,2.0,0.0,0.0,-2.0,-0.27728271484375,0.0252685546875,0.53106689453125,0.80023193359375,-0.3427734375,-0.43408203125,0.85888671875,0.75,0.4375,-0.1875
0.9500000000000007,0.0,-1.0,-1.0,16.0,2.0,0.0,-2.0,-1.0,-0.27728271484375,0.0252685546875,0.53106689453125,0.80023193359375,-0.3408203125,-0.43115234375,0.85546875,0.25,0.0,0.1875
0.9550000000000007,0.0,-1.0,-1.0,16.0,2.0,0.0,-2.0,-1.0,-0.27728271484375,0.0252685546875,0.53106689453125,0.80023193359375,-0.34130859375,-0.43017578125,0.85546875,-0.75,-0.375,0.3125
0.9600000000000007,-2.0,-4.0,-3.0,-5.0,-10.0,-1.0,-2.0,-1.0,-0.27728271484375,0.0252685546875,0.53106689453125,0.80023193359375,-0.34130859375,-0.43017578125,0.85546875,-0.75,-0.375,0.3125
0.9650000000000007,-2.0,0.0,2.0,-13.0,-14.0,-1.0,-2.0,-1.0,-0.27734375,0.0252685546875,0.53106689453125,0.80023193359375,-0.34228515625,-0.43212890625,0.85693359375,-0.125,-0.5625,0.5
0.9700000000000008,-2.0,0.0,2.0,-13.0,-14.0,-1.0,-2.0,-1.0,-0.27734375,0.0252685546875,0.53106689453125,0.80023193359375,-0.34228515625,-0.43212890625,0.85693359375,-0.125,-0.5625,0.5
0.9750000000000008,0.0,-2.0,-2.0,-5.0,3.0,0.0,0.0,0.0,-0.27734375,0.0252685546875,0.53106689453125,0.80023193359375,-0.34619140625,-0.4248046875,0.86083984375,0.9375,-0.5,0.3125
0.9800000000000008,-1.0,-2.0,0.0,8.0,1.0,-1.0,-1.0,-1.0,-0.27734375,0.0252685546875,0.53106689453125,0.80023193359375,-0.34619140625,-0.4248046875,0.86083984375,0.9375,-0.5,0.3125
0.9850000000000008,1.0,4.0,2.0,2.0,3.0,0.0,-1.0,-1.0,-0.2772216796875,0.02532958984375,0.5311279296875,0.80023193359375,-0.34619140625,-0.4306640625,0.8564453125,1.125,-0.5,0.3125
0.9900000000000008,-1.0,-1.0,-1.0,-5.0,-4.0,-2.0,-3.0,-3.0,-0.2772216796875,0.02532958984375,0.5311279296875,0.80023193359375,-0.341796875,-0.4296875,0.86181640625,0.6875,-0.4375,0.5625
0.9950000000000008,-1.0,1.0,5.0,1.0,3.0,0.0,1.0,-1.0,-0.2772216796875,0.02532958984375,0.5311279296875,0.80023193359375,-0.341796875,-0.4296875,0.86181640625,0.6875,-0.4375,0.5625
1.0000000000000007,-1.0,-1.0,-2.0,10.0,4.0,-2.0,-2.0,-1.0,-0.2772216796875,0.02532958984375,0.5311279296875,0.80023193359375,-0.34033203125,-0.4306640625,0.8662109375,0.1875,-0.25,0.875
1.0050000000000006,-2.0,-1.0,-2.0,-15.0,-15.0,-2.0,-2.0,-2.0,-0.2772216796875,0.02532958984375,0.5311279296875,0.80023193359375,-0.34033203125,-0.4306640625,0.8662109375,0.1875,-0.25,0.875
1.0100000000000005,-2.0,-1.0,-2.0,-15.0,-15.0,-2.0,-2.0,-2.0,-0.2772216796875,0.0252685546875,0.5311279296875,0.80023193359375,-0.34130859375,-0.43017578125,0.8603515625,0.125,-0.1875,0.75
1.0150000000000003,-1.0,1.0,6.0,8.0,5.0,3.0,-1.0,-1.0,-0.27728271484375,0.0252685546875,0.5311279296875,0.80023193359375,-0.34521484375,-0.42919921875,0.85888671875,0.0,-0.1875,0.4375
1.0200000000000002,-2.0,-4.0,-2.0,-2.0,-3.0,-2.0,-2.0,-2.0,-0.27728271484375,0.0252685546875,0.5311279296875,0.80023193359375,-0.34521484375,-0.42919921875,0.85888671875,0.0,-0.1875,0.4375
1.0250000000000001,-2.0,-4.0,-2.0,-2.0,-3.0,-2.0,-2.0,-2.0,-0.27728271484375,0.0252685546875,0.5311279296875,0.80023193359375,-0.34521484375,-0.42919921875,0.85888671875,0.0,-0.1875,0.4375
1.03,-1.0,-1.0,-4.0,-4.0,-5.0,-3.0,-1.0,-1.0,-0.27728271484375,0.0252685546875,0.5311279296875,0.80023193359375,-0.34326171875,-0.4267578125,0.8603515625,0.3125,-0.25,0.0625
1.035,0.0,-1.0,-2.0,7.0,2.0,0.0,-1.0,-1.0,-0.27728271484375,0.02532958984375,0.5311279296875,0.80023193359375,-0.3447265625,-0.42919921875,0.85986328125,0.4375,-0.25,0.0
1.0399999999999998,0.0,-1.0,-2.0,7.0,2.0,0.0,-1.0,-1.0,-0.27728271484375,0.02532958984375,0.5311279296875,0.80023193359375,-0.3447265625,-0.42919921875,0.85986328125,0.4375,-0.25,0.0
1.0449999999999997,-2.0,1.0,-1.0,0.0,3.0,0.0,-1.0,0.0,-0.27728271484375,0.0252685546875,0.53106689453125,0.80023193359375,-0.33642578125,-0.431640625,0.859375,-0.1875,0.0,-0.3125
1.0499999999999996,-2.0,-2.0,-1.0,-4.0,-7.0,-3.0,-3.0,-1.0,-0.27728271484375,0.0252685546875,0.53106689453125,0.80023193359375,-0.33642578125,-0.431640625,0.859375,-0.1875,0.0,-0.3125
1.0549999999999995,0.0,-2.0,-1.0,8.0,7.0,-1.0,-3.0,-2.0,-0.27728271484375,0.0252685546875,0.53106689453125,0.80023193359375,-0.33642578125,-0.431640625,0.859375,-0.1875,0.0,-0.3125
1.0599999999999994,-1.0,1.0,-3.0,-4.0,-4.0,-3.0,-2.0,-1.0,-0.27728271484375,0.0252685546875,0.53106689453125,0.80023193359375,-0.3369140625,-0.42626953125,0.85888671875,-0.0625,0.0625,-0.3125
1.0649999999999993,-1.0,1.0,-3.0,-4.0,-4.0,-3.0,-2.0,-1.0,-0.27728271484375,0.0252685546875,0.53106689453125,0.80023193359375,-0.34326171875,-0.42919921875,0.8603515625,-0.375,0.5,-0.3125
1.0699999999999992,-1.0,0.0,-9.0,-2.0,-1.0,-2.0,-3.0,-1.0,-0.27728271484375,0.0252685546875,0.53106689453125,0.80023193359375,-0.34326171875,-0.42919921875,0.8603515625,-0.375,0.5,-0.3125
1.074999999999999,0.0,-2.0,0.0,4.0,-2.0,1.0,0.0,-3.0,-0.27728271484375,0.0252685546875,0.53106689453125,0.80023193359375,-0.34033203125,-0.431640625,0.859375,-0.125,0.5625,-0.5625
1.079999999999999,0.0,-2.0,0.0,4.0,-2.0,1.0,0.0,-3.0,-0.27728271484375,0.0252685546875,0.53106689453125,0.80023193359375,-0.34033203125,-0.431640625,0.859375,-0.125,0.5625,-0.5625
1.0849999999999989,0.0,-1.0,-2.0,-6.0,-2.0,-1.0,0.0,0.0,-0.27734375,0.0252685546875,0.53106689453125,0.80023193359375,-0.3408203125,-0.42822265625,0.85595703125,0.6875,0.625,-0.375
1.0899999999999987,0.0,-2.0,0.0,-2.0,11.0,0.0,-1.0,-2.0,-0.27734375,0.0252685546875,0.53106689453125,0.80023193359375,-0.3408203125,-0.42822265625,0.85595703125,0.6875,0.625,-0.375
1.0949999999999986,0.0,-1.0,-2.0,-3.0,-4.0,0.0,0.0,-1.0,-0.27734375,0.0252685546875,0.53106689453125,0.80023193359375,-0.35107421875,-0.42578125,0.85888671875,0.1875,0.5,-0.5
1.0999999999999985,-1.0,-1.0,0.0,-4.0,-5.0,-4.0,-3.0,-1.0,-0.27734375,0.0252685546875,0.53106689453125,0.80023193359375,-0.35107421875,-0.42578125,0.85888671875,0.1875,0.5,-0.5
1.1049999999999984,0.0,-1.0,2.0,2.0,-5.0,-2.0,0.0,1.0,-0.27740478515625,0.0252685546875,0.53106689453125,0.8001708984375,-0.3525390625,-0.43359375,0.857421875,-0.25,0.0625,-0.3125
1.1099999999999983,0.0,-1.0,2.0,2.0,-5.0,-2.0,0.0,1.0,-0.27740478515625,0.0252685546875,0.53106689453125,0.8001708984375,-0.3525390625,-0.43359375,0.857421875,-0.25,0.0625,-0.3125
1.1149999999999982,-2.0,-2.0,-2.0,-2.0,-1.0,1.0,-1.0,0.0,-0.27740478515625,0.0252685546875,0.53106689453125,0.8001708984375,-0.33984375,-0.4365234375,0.85205078125,-0.25,-0.125,-0.1875
1.119999999999998,-1.0,1.0,-1.0,4.0,-9.0,-1.0,-1.0,-1.0,-0.27740478515625,0.0252685546875,0.53106689453125,0.8001708984375,-0.33984375,-0.4365234375,0.85205078125,-0.25,-0.125,-0.1875
1.124999999999998,0.0,-2.0,-2.0,3.0,12.0,0.0,0.0,-3.0,-0.2774658203125,0.0252685546875,0.53106689453125,0.8001708984375,-0.34228515625,-0.43408203125,0.8583984375,0.125,0.0,-0.125
1.129999999999998,0.0,-2.0,-2.0,3.0,12.0,0.0,0.0,-3.0,-0.2774658203125,0.0252685546875,0.53106689453125,0.8001708984375,-0.34228515625,-0.43408203125,0.8583984375,0.125,0.0,-0.125
1.1349999999999978,-1.0,0.0,-4.0,-14.0,-6.0,-1.0,-1.0,0.0,-0.2774658203125,0.0252685546875,0.53106689453125,0.8001708984375,-0.34423828125,-0.4375,0.8583984375,0.75,0.25,0.0
1.1399999999999977,-2.0,-1.0,-3.0,-3.0,-1.0,0.0,1.0,-1.0,-0.2774658203125,0.0252685546875,0.53106689453125,0.8001708984375,-0.349609375,-0.43017578125,0.8603515625,0.6875,0.1875,0.4375
1.1449999999999976,-1.0,-1.0,-2.0,1.0,2.0,-2.0,-1.0,-1.0,-0.27752685546875,0.0252685546875,0.53106689453125,0.8001708984375,-0.3486328125,-0.42919921875,0.85888671875,0.5,-0.5,0.8125
1.1499999999999975,-1.0,2.0,-2.0,-7.0,-1.0,-1.0,-2.0,0.0,-0.27752685546875,0.0252685546875,0.53106689453125,0.8001708984375,-0.3486328125,-0.42919921875,0.85888671875,0.5,-0.5,0.8125
1.1549999999999974,-2.0,-3.0,0.0,8.0,10.0,-2.0,-3.0,-3.0,-0.27752685546875,0.0252685546875,0.53106689453125,0.8001708984375,-0.3408203125,-0.42626953125,0.86767578125,0.125,-0.6875,0.875
1.1599999999999973,-1.0,3.0,1.0,-2.0,-4.0,0.0,0.0,0.0,-0.27752685546875,0.0252685546875,0.53106689453125,0.8001708984375,-0.3427734375,-0.42626953125,0.8525390625,0.0625,-0.8125,0.8125
1.1649999999999971,-3.0,-6.0,-2.0,-4.0,-3.0,-4.0,0.0,0.0,-0.27752685546875,0.0252685546875,0.53106689453125,0.8001708984375,-0.34375,-0.43017578125,0.85791015625,0.75,-0.625,0.6875
1.169999999999997,-3.0,-6.0,-2.0,-4.0,-3.0,-4.0,0.0,0.0,-0.27752685546875,0.0252685546875,0.53106689453125,0.8001708984375,-0.34375,-0.43017578125,0.85791015625,0.75,-0.625,0.6875
1.174999999999997,0.0,0.0,-1.0,-9.0,2.0,-3.0,-2.0,-1.0,-0.27734375,0.02532958984375,0.5311279296875,0.8001708984375,-0.34423828125,-0.42822265625,0.86083984375,1.0,-0.5625,0.25
1.1799999999999968,1.0,-2.0,-2.0,13.0,5.0,-2.0,0.0,-1.0,-0.27734375,0.02532958984375,0.5311279296875,0.8001708984375,-0.34423828125,-0.42822265625,0.86083984375,1.0,-0.5625,0.25
1.1849999999999967,-1.0,1.0,-2.0,4.0,2.0,0.0,1.0,-1.0,-0.27734375,0.02532958984375,0.5311279296875,0.8001708984375,-0.337890625,-0.42431640625,0.857421875,0.625,-0.375,0.1875
1.1899999999999966,-1.0,-4.0,-17.0,-7.0,-7.0,-4.0,-2.0,-2.0,-0.27734375,0.0252685546875,0.5311279296875,0.8001708984375,-0.33935546875,-0.42626953125,0.86328125,0.0,-0.3125,0.1875
1.1949999999999965,0.0,-2.0,0.0,3.0,13.0,2.0,-1.0,-1.0,-0.27734375,0.0252685546875,0.5311279296875,0.8001708984375,-0.33935546875,-0.42626953125,0.86328125,0.0,-0.3125,0.1875
1.1999999999999964,-1.0,2.0,4.0,2.0,-5.0,1.0,-2.0,1.0,-0.27734375,0.0252685546875,0.5311279296875,0.8001708984375,-0.33935546875,-0.42626953125,0.86328125,0.0,-0.3125,0.1875
1.2049999999999963,0.0,-1.0,3.0,-5.0,-2.0,0.0,-1.0,-1.0,-0.27734375,0.02532958984375,0.5311279296875,0.8001708984375,-0.34619140625,-0.427734375,0.86083984375,-0.375,0.125,-0.1875
1.2099999999999962,0.0,-1.0,3.0,-5.0,-2.0,0.0,-1.0,-1.0,-0.27734375,0.02532958984375,0.5311279296875,0.8001708984375,-0.3447265625,-0.423828125,0.86181640625,-0.375,0.4375,-0.3125
1.214999999999996,-2.0,-1.0,1.0,1.0,-3.0,-3.0,-1.0,-1.0,-0.27734375,0.02532958984375,0.5311279296875,0.8001708984375,-0.3447265625,-0.423828125,0.86181640625,-0.375,0.4375,-0.3125
1.219999999999996,-3.0,3.0,11.0,-6.0,1.0,1.0,-1.0,0.0,-0.27734375,0.02532958984375,0.5311279296875,0.8001708984375,-0.3447265625,-0.423828125,0.86181640625,-0.375,0.4375,-0.3125
1.2249999999999959,-2.0,0.0,-4.0,-1.0,-4.0,-3.0,-2.0,1.0,-0.27740478515625,0.02532958984375,0.5311279296875,0.8001708984375,-0.34619140625,-0.42822265625,0.85595703125,0.0625,0.4375,-0.375
1.2299999999999958,-2.0,0.0,-4.0,-1.0,-4.0,-3.0,-2.0,1.0,-0.27740478515625,0.02532958984375,0.5311279296875,0.8001708984375,-0.34619140625,-0.42822265625,0.85595703125,0.0625,0.4375,-0.375
1.2349999999999957,0.0,-3.0,-6.0,-1.0,-4.0,-1.0,0.0,1.0,-0.27740478515625,0.02532958984375,0.5311279296875,0.8001708984375,-0.3447265625,-0.4306640625,0.859375,0.1875,0.4375,-0.375
1.2399999999999956,2.0,2.0,5.0,1.0,4.0,2.0,-1.0,0.0,-0.27740478515625,0.02532958984375,0.5311279296875,0.8001708984375,-0.3447265625,-0.42578125,0.85009765625,-0.25,0.25,-0.25
1.2449999999999954,2.0,2.0,5.0,1.0,4.0,2.0,-1.0,0.0,-0.27740478515625,0.02532958984375,0.5311279296875,0.8001708984375,-0.3447265625,-0.42578125,0.85009765625,-0.25,0.25,-0.25
1.2499999999999953,-2.0,-1.0,-5.0,-3.0,-2.0,-1.0,-2.0,-2.0,-0.2774658203125,0.02532958984375,0.53106689453125,0.8001708984375,-0.3427734375,-0.4296875,0.85888671875,-0.375,0.1875,-0.4375
1.2549999999999952,-3.0,1.0,6.0,-3.0,0.0,0.0,0.0,1.0,-0.2774658203125,0.02532958984375,0.53106689453125,0.8001708984375,-0.3427734375,-0.4296875,0.85888671875,-0.375,0.1875,-0.4375
1.2599999999999951,1.0,-1.0,3.0,0.0,-1.0,-1.0,1.0,-3.0,-0.2774658203125,0.02532958984375,0.53106689453125,0.8001708984375,-0.34619140625,-0.4326171875,0.86083984375,0.0,0.25,-0.3125
1.264999999999995,0.0,1.0,-1.0,2.0,-5.0,-1.0,0.0,0.0,-0.2774658203125,0.02532958984375,0.53106689453125,0.8001708984375,-0.34619140625,-0.4326171875,0.86083984375,0.0,0.25,-0.3125
1.269999999999995,0.0,-1.0,2.0,6.0,12.0,0.0,-1.0,-1.0,-0.2774658203125,0.02532958984375,0.53106689453125,0.8001708984375,-0.3466796875,-0.4345703125,0.85546875,0.4375,0.25,-0.25
1.2749999999999948,-4.0,-3.0,2.0,0.0,-1.0,0.0,-1.0,-1.0,-0.27752685546875,0.02532958984375,0.53106689453125,0.8001708984375,-0.3466796875,-0.4248046875,0.859375,0.6875,0.3125,0.0625
1.2799999999999947,-2.0,0.0,-2.0,-8.0,-6.0,-1.0,-1.0,0.0,-0.27752685546875,0.02532958984375,0.53106689453125,0.8001708984375,-0.3466796875,-0.4248046875,0.859375,0.6875,0.3125,0.0625
1.2849999999999946,-1.0,-1.0,0.0,-6.0,-7.0,-1.0,0.0,0.0,-0.27752685546875,0.02532958984375,0.53106689453125,0.80010986328125,-0.349609375,-0.4287109375,0.85693359375,0.4375,0.3125,-0.1875
1.2899999999999945,-1.0,0.0,-7.0,-3.0,-2.0,0.0,-1.0,-1.0,-0.27752685546875,0.02532958984375,0.53106689453125,0.80010986328125,-0.349609375,-0.4287109375,0.85693359375,0.4375,0.3125,-0.1875
1.2949999999999944,-1.0,0.0,-7.0,-3.0,-2.0,0.0,-1.0,-1.0,-0.27752685546875,0.02532958984375,0.53106689453125,0.80010986328125,-0.349609375,-0.4287109375,0.85693359375,0.4375,0.3125,-0.1875
1.2999999999999943,-2.0,-2.0,-4.0,-4.0,1.0,0.0,-1.0,-1.0,-0.27752685546875,0.02532958984375,0.53106689453125,0.80010986328125,-0.34228515625,-0.42431640625,0.85693359375,0.125,-0.125,0.0625
1.3049999999999942,-1.0,-5.0,3.0,-2.0,-1.0,1.0,0.0,-1.0,-0.27752685546875,0.02532958984375,0.53106689453125,0.80010986328125,-0.34228515625,-0.42431640625,0.85693359375,0.125,-0.125,0.0625
1.309999999999994,-3.0,1.0,-2.0,6.0,-5.0,-6.0,-1.0,-1.0,-0.27752685546875,0.025390625,0.53106689453125,0.80010986328125,-0.34814453125,-0.42529296875,0.85986328125,0.1875,-0.25,0.0625
1.314999999999994,-2.0,0.0,3.0,-3.0,-3.0,-2.0,-1.0,-2.0,-0.27752685546875,0.025390625,0.53106689453125,0.80010986328125,-0.34814453125,-0.42529296875,0.85986328125,0.1875,-0.25,0.0625
1.3199999999999938,-1.0,-2.0,-8.0,9.0,15.0,1.0,-1.0,-2.0,-0.27752685546875,0.025390625,0.53106689453125,0.80010986328125,-0.34814453125,-0.42529296875,0.85986328125,0.1875,-0.25,0.0625
1.3249999999999937,-1.0,-2.0,-8.0,9.0,15.0,1.0,-1.0,-2.0,-0.27740478515625,0.02545166015625,0.53118896484375,0.80010986328125,-0.35205078125,-0.42919921875,0.86474609375,1.0,-0.5625,0.3125
1.3299999999999936,-2.0,1.0,-3.0,-10.0,-17.0,-3.0,-4.0,0.0,-0.277099609375,0.025634765625,0.53125,0.8001708984375,-0.349609375,-0.42578125,0.8603515625,2.0625,-0.8125,0.375
1.3349999999999935,-1.0,0.0,0.0,-7.0,8.0,-1.0,-1.0,-2.0,-0.277099609375,0.025634765625,0.53125,0.8001708984375,-0.349609375,-0.42578125,0.8603515625,2.0625,-0.8125,0.375
1.3399999999999934,-2.0,-2.0,6.0,-6.0,-1.0,2.0,-2.0,-3.0,-0.2767333984375,0.02581787109375,0.5313720703125,0.80023193359375,-0.34521484375,-0.41943359375,0.8564453125,1.9375,-0.9375,0.375
1.3449999999999933,0.0,1.0,-4.0,1.0,-2.0,-2.0,0.0,0.0,-0.2767333984375,0.02581787109375,0.5313720703125,0.80023193359375,-0.34521484375,-0.41943359375,0.8564453125,1.9375,-0.9375,0.375
1.3499999999999932,0.0,-2.0,-1.0,2.0,-6.0,-4.0,-1.0,0.0,-0.27655029296875,0.02587890625,0.53143310546875,0.80023193359375,-0.3427734375,-0.42431640625,0.8544921875,1.25,-0.625,0.375
1.354999999999993,-1.0,-2.0,-1.0,-2.0,2.0,-1.0,-2.0,-1.0,-0.27655029296875,0.02587890625,0.53143310546875,0.80023193359375,-0.3427734375,-0.42431640625,0.8544921875,1.25,-0.625,0.375
1.359999999999993,-1.0,-2.0,-1.0,-2.0,2.0,-1.0,-2.0,-1.0,-0.27655029296875,0.02581787109375,0.53143310546875,0.80023193359375,-0.33642578125,-0.4287109375,0.859375,0.6875,-0.5,0.1875
1.3649999999999929,-1.0,1.0,-2.0,-8.0,-7.0,-3.0,-1.0,-1.0,-0.27655029296875,0.02581787109375,0.53143310546875,0.80023193359375,-0.33642578125,-0.4287109375,0.859375,0.6875,-0.5,0.1875
1.3699999999999928,-1.0,-4.0,-2.0,-2.0,0.0,-3.0,-1.0,1.0,-0.276611328125,0.02581787109375,0.53143310546875,0.80023193359375,-0.34033203125,-0.427734375,0.857421875,0.4375,-0.25,0.3125
1.3749999999999927,-1.0,-4.0,-2.0,-2.0,0.0,-3.0,-1.0,1.0,-0.276611328125,0.02581787109375,0.53143310546875,0.80023193359375,-0.34033203125,-0.427734375,0.857421875,0.4375,-0.25,0.3125
1.3799999999999926,0.0,0.0,5.0,7.0,-2.0,-1.0,-1.0,-3.0,-0.276611328125,0.02581787109375,0.53143310546875,0.80023193359375,-0.34033203125,-0.427734375,0.857421875,0.4375,-0.25,0.3125
1.3849999999999925,-2.0,-1.0,-6.0,-8.0,-7.0,-4.0,-1.0,-1.0,-0.276611328125,0.02581787109375,0.53143310546875,0.80023193359375,-0.34375,-0.427734375,0.8671875,0.0,0.0,0.0625
1.3899999999999924,-1.0,-1.0,6.0,-4.0,0.0,-1.0,0.0,0.0,-0.276611328125,0.02581787109375,0.53143310546875,0.80023193359375,-0.34033203125,-0.43017578125,0.865234375,0.375,-0.1875,0.25
1.3949999999999922,1.0,1.0,-1.0,5.0,3.0,1.0,1.0,0.0,-0.2764892578125,0.02593994140625,0.53143310546875,0.80023193359375,-0.345703125,-0.423828125,0.857421875,1.1875,-0.125,0.125
1.3999999999999921,0.0,-1.0,0.0,-5.0,-3.0,-2.0,-1.0,0.0,-0.2764892578125,0.02593994140625,0.53143310546875,0.80023193359375,-0.345703125,-0.423828125,0.857421875,1.1875,-0.125,0.125
1.404999999999992,-1.0,-1.0,-4.0,10.0,-3.0,-2.0,-2.0,-1.0,-0.27630615234375,0.026123046875,0.531494140625,0.80023193359375,-0.349609375,-0.4208984375,0.85400390625,1.4375,-0.5,0.25
1.409999999999992,-1.0,-1.0,-4.0,10.0,-3.0,-2.0,-2.0,-1.0,-0.27618408203125,0.0262451171875,0.53155517578125,0.80029296875,-0.35205078125,-0.42431640625,0.85498046875,1.125,-0.625,0.0
1.4149999999999918,-1.0,-3.0,0.0,-9.0,-12.0,-1.0,-1.0,1.0,-0.27618408203125,0.0262451171875,0.53155517578125,0.80029296875,-0.35205078125,-0.42431640625,0.85498046875,1.125,-0.625,0.0
1.4199999999999917,0.0,0.0,-2.0,-10.0,-10.0,-2.0,1.0,-1.0,-0.27618408203125,0.0262451171875,0.53155517578125,0.80029296875,-0.341796875,-0.42578125,0.85986328125,0.8125,-0.875,-0.25
1.4249999999999916,-2.0,-10.0,-27.0,-5.0,-1.0,-1.0,0.0,-2.0,-0.27618408203125,0.02618408203125,0.53155517578125,0.80029296875,-0.33154296875,-0.42724609375,0.86328125,0.5,-0.625,-0.0625
1.4299999999999915,0.0,-1.0,0.0,4.0,0.0,-2.0,-1.0,-2.0,-0.27618408203125,0.02618408203125,0.53155517578125,0.80029296875,-0.33154296875,-0.42724609375,0.86328125,0.5,-0.625,-0.0625
1.4349999999999914,-1.0,2.0,14.0,-1.0,1.0,-1.0,-1.0,-2.0,-0.27618408203125,0.02618408203125,0.531494140625,0.80029296875,-0.3427734375,-0.43017578125,0.86083984375,0.125,-0.3125,0.0625
1.4399999999999913,-1.0,2.0,14.0,-1.0,1.0,-1.0,-1.0,-2.0,-0.27618408203125,0.02618408203125,0.531494140625,0.80029296875,-0.3427734375,-0.43017578125,0.86083984375,0.125,-0.3125,0.0625
1.4449999999999912,-1.0,0.0,0.0,-2.0,-7.0,-1.0,-2.0,0.0,-0.2762451171875,0.02618408203125,0.531494140625,0.80029296875,-0.3505859375,-0.42724609375,0.86083984375,-0.1875,-0.125,0.25
1.449999999999991,-1.0,-1.0,2.0,13.0,5.0,0.0,0.0,-2.0,-0.2762451171875,0.02618408203125,0.531494140625,0.80029296875,-0.34619140625,-0.4248046875,0.85791015625,-0.1875,0.0,0.0
1.454999999999991,0.0,1.0,-3.0,-3.0,-1.0,-1.0,-1.0,1.0,-0.2762451171875,0.02618408203125,0.531494140625,0.80029296875,-0.33984375,-0.4248046875,0.861328125,0.125,-0.3125,0.125
1.4599999999999909,-1.0,-1.0,-1.0,-2.0,-5.0,-1.0,0.0,-2.0,-0.2762451171875,0.02618408203125,0.531494140625,0.80029296875,-0.33984375,-0.4248046875,0.861328125,0.125,-0.3125,0.125
1.4649999999999908,-1.0,-1.0,2.0,-2.0,2.0,-1.0,-2.0,-2.0,-0.2762451171875,0.02618408203125,0.531494140625,0.80029296875,-0.3349609375,-0.42236328125,0.86279296875,0.3125,-0.5,0.3125
1.4699999999999906,-1.0,-1.0,2.0,-2.0,2.0,-1.0,-2.0,-2.0,-0.2762451171875,0.02618408203125,0.531494140625,0.80029296875,-0.3349609375,-0.42236328125,0.86279296875,0.3125,-0.5,0.3125
1.4749999999999905,-1.0,2.0,-3.0,-6.0,-1.0,-1.0,-2.0,0.0,-0.2762451171875,0.02618408203125,0.531494140625,0.80029296875,-0.3349609375,-0.42236328125,0.86279296875,0.3125,-0.5,0.3125
1.4799999999999904,-3.0,0.0,0.0,3.0,2.0,1.0,-1.0,-2.0,-0.2762451171875,0.02618408203125,0.531494140625,0.80029296875,-0.34228515625,-0.4287109375,0.85400390625,0.3125,-0.875,0.375
1.4849999999999903,-2.0,-1.0,-2.0,2.0,10.0,0.0,-1.0,0.0,-0.2762451171875,0.02618408203125,0.531494140625,0.80029296875,-0.34228515625,-0.4287109375,0.85400390625,0.3125,-0.875,0.375
1.4899999999999902,-1.0,2.0,-4.0,13.0,4.0,-1.0,-2.0,-1.0,-0.2762451171875,0.02618408203125,0.531494140625,0.80029296875,-0.34228515625,-0.427734375,0.86669921875,0.375,-0.75,0.5
1.4949999999999901,-2.0,-2.0,-3.0,-4.0,-2.0,-1.0,1.0,1.0,-0.2762451171875,0.02618408203125,0.531494140625,0.80029296875,-0.34521484375,-0.42724609375,0.8603515625,0.5,-0.625,0.5
1.49999999999999,-1.0,-1.0,0.0,1.0,-1.0,-1.0,-1.0,-1.0,-0.2762451171875,0.02618408203125,0.531494140625,0.80029296875,-0.34521484375,-0.42724609375,0.8603515625,0.5,-0.625,0.5
1.50499999999999,-1.0,-1.0,0.0,1.0,-1.0,-1.0,-1.0,-1.0,-0.2762451171875,0.02618408203125,0.531494140625,0.80029296875,-0.34521484375,-0.42724609375,0.8603515625,0.5,-0.625,0.5
1.5099999999999898,-1.0,1.0,-1.0,4.0,1.0,-1.0,-1.0,-1.0,-0.2762451171875,0.02618408203125,0.531494140625,0.80029296875,-0.33740234375,-0.419921875,0.869140625,0.625,-0.25,0.3125
1.5149999999999897,-1.0,0.0,-2.0,-3.0,2.0,-1.0,-2.0,-2.0,-0.2762451171875,0.02618408203125,0.531494140625,0.80029296875,-0.33740234375,-0.419921875,0.869140625,0.625,-0.25,0.3125
1.5199999999999896,-1.0,1.0,1.0,-9.0,-3.0,0.0,-2.0,0.0,-0.2762451171875,0.02618408203125,0.531494140625,0.80029296875,-0.34326171875,-0.41943359375,0.857421875,0.375,-0.125,0.25
1.5249999999999895,-2.0,2.0,0.0,2.0,-4.0,-1.0,-1.0,0.0,-0.2762451171875,0.02618408203125,0.531494140625,0.80029296875,-0.34326171875,-0.41943359375,0.857421875,0.375,-0.125,0.25
1.5299999999999894,-2.0,-4.0,-2.0,-7.0,-3.0,-2.0,-1.0,-2.0,-0.2762451171875,0.02618408203125,0.531494140625,0.80029296875,-0.3505859375,-0.41796875,0.8642578125,-0.375,0.0625,0.0
1.5349999999999893,-3.0,-2.0,-1.0,-3.0,-4.0,-3.0,-2.0,0.0,-0.2762451171875,0.02618408203125,0.531494140625,0.80029296875,-0.34619140625,-0.42041015625,0.86083984375,-0.75,0.3125,-0.375
1.5399999999999892,-1.0,-1.0,-2.0,5.0,6.0,-1.0,-1.0,-1.0,-0.2762451171875,0.02618408203125,0.531494140625,0.80029296875,-0.34619140625,-0.42041015625,0.86083984375,-0.75,0.3125,-0.375
1.544999999999989,-1.0,-3.0,1.0,-3.0,-2.0,-2.0,0.0,-1.0,-0.2762451171875,0.0262451171875,0.531494140625,0.80023193359375,-0.34619140625,-0.42578125,0.86181640625,-0.3125,0.5,-0.6875
1.549999999999989,-1.0,-3.0,1.0,-3.0,-2.0,-2.0,0.0,-1.0,-0.2762451171875,0.0262451171875,0.531494140625,0.80023193359375,-0.34619140625,-0.42578125,0.86181640625,-0.3125,0.5,-0.6875
1.5549999999999888,0.0,-4.0,5.0,-5.0,-2.0,1.0,1.0,-2.0,-0.2762451171875,0.0262451171875,0.531494140625,0.80023193359375,-0.34716796875,-0.42431640625,0.873046875,-0.375,0.625,-0.6875
1.5599999999999887,-2.0,0.0,2.0,-11.0,-13.0,-3.0,-1.0,-1.0,-0.2762451171875,0.0262451171875,0.531494140625,0.80023193359375,-0.34716796875,-0.42431640625,0.873046875,-0.375,0.625,-0.6875
1.5649999999999886,-1.0,0.0,0.0,5.0,1.0,0.0,-2.0,-1.0,-0.2762451171875,0.0262451171875,0.531494140625,0.80023193359375,-0.3466796875,-0.423828125,0.85791015625,-0.75,0.5625,-0.9375
1.5699999999999885,-2.0,-2.0,-2.0,2.0,5.0,-1.0,-1.0,-1.0,-0.2762451171875,0.0262451171875,0.531494140625,0.80023193359375,-0.3466796875,-0.423828125,0.85791015625,-0.75,0.5625,-0.9375
1.5749999999999884,1.0,-1.0,0.0,7.0,2.0,-1.0,-1.0,0.0,-0.27630615234375,0.0262451171875,0.531494140625,0.80023193359375,-0.33984375,-0.4287109375,0.8642578125,-0.6875,0.5625,-0.875
1.5799999999999883,0.0,-2.0,-1.0,-3.0,-1.0,-1.0,-1.0,-1.0,-0.27630615234375,0.0262451171875,0.531494140625,0.80023193359375,-0.33984375,-0.4287109375,0.8642578125,-0.6875,0.5625,-0.875
1.5849999999999882,-1.0,-2.0,-3.0,-11.0,-4.0,0.0,0.0,-2.0,-0.27630615234375,0.02618408203125,0.531494140625,0.80023193359375,-0.33984375,-0.427734375,0.8603515625,0.125,0.625,-1.0
1.589999999999988,-1.0,-2.0,-3.0,-11.0,-4.0,0.0,0.0,-2.0,-0.27630615234375,0.02618408203125,0.531494140625,0.80023193359375,-0.33984375,-0.427734375,0.8603515625,0.125,0.625,-1.0
1.594999999999988,-3.0,1.0,-3.0,-5.0,-3.0,-1.0,-1.0,-2.0,-0.27630615234375,0.02618408203125,0.531494140625,0.80023193359375,-0.34375,-0.42431640625,0.85595703125,0.0625,0.625,-0.6875
1.5999999999999879,0.0,-2.0,2.0,-1.0,-1.0,0.0,0.0,0.0,-0.27630615234375,0.02618408203125,0.531494140625,0.80023193359375,-0.34619140625,-0.4267578125,0.85595703125,-0.5,0.5,-0.5625
1.6049999999999878,-2.0,1.0,-2.0,13.0,7.0,-2.0,0.0,-2.0,-0.27630615234375,0.02618408203125,0.531494140625,0.80023193359375,-0.34619140625,-0.4267578125,0.85595703125,-0.5,0.5,-0.5625
1.6099999999999877,-2.0,-1.0,-1.0,-3.0,-3.0,0.0,-1.0,-1.0,-0.2763671875,0.0262451171875,0.531494140625,0.80023193359375,-0.3505859375,-0.42822265625,0.85546875,-1.0,0.375,-0.375
1.6149999999999876,-2.0,-1.0,-1.0,-3.0,-3.0,0.0,-1.0,-1.0,-0.2763671875,0.0262451171875,0.531494140625,0.80023193359375,-0.3505859375,-0.42822265625,0.85546875,-1.0,0.375,-0.375
1.6199999999999875,1.0,-1.0,6.0,11.0,3.0,-1.0,-1.0,1.0,-0.2763671875,0.0262451171875,0.531494140625,0.80023193359375,-0.345703125,-0.4306640625,0.85693359375,-0.6875,0.0625,-0.4375
1.6249999999999873,2.0,1.0,4.0,7.0,2.0,1.0,0.0,0.0,-0.27642822265625,0.02618408203125,0.531494140625,0.80023193359375,-0.34423828125,-0.43115234375,0.857421875,0.25,0.125,-0.375
1.6299999999999872,-1.0,-2.0,-4.0,-12.0,-5.0,-2.0,1.0,-2.0,-0.27642822265625,0.02618408203125,0.531494140625,0.80023193359375,-0.34521484375,-0.427734375,0.8583984375,0.375,-0.0625,0.125
1.6349999999999871,-1.0,-2.0,-1.0,-3.0,-1.0,0.0,-3.0,-1.0,-0.27642822265625,0.02618408203125,0.531494140625,0.80023193359375,-0.34521484375,-0.427734375,0.8583984375,0.375,-0.0625,0.125
1.639999999999987,-2.0,3.0,-2.0,-12.0,-15.0,-4.0,0.0,-2.0,-0.27642822265625,0.02618408203125,0.531494140625,0.80023193359375,-0.34375,-0.4248046875,0.86572265625,0.3125,0.125,0.1875
1.644999999999987,0.0,0.0,-1.0,-6.0,-8.0,0.0,0.0,-1.0,-0.27642822265625,0.02618408203125,0.531494140625,0.80023193359375,-0.34375,-0.4248046875,0.86572265625,0.3125,0.125,0.1875
1.6499999999999868,0.0,-1.0,0.0,-3.0,1.0,1.0,0.0,-2.0,-0.27642822265625,0.02618408203125,0.531494140625,0.80023193359375,-0.34423828125,-0.4267578125,0.85400390625,-0.1875,-0.0625,0.3125
1.6549999999999867,-1.0,-1.0,0.0,6.0,-1.0,0.0,-3.0,-1.0,-0.2764892578125,0.02618408203125,0.531494140625,0.80023193359375,-0.34765625,-0.42578125,0.86279296875,0.0,-0.1875,0.1875
1.6599999999999866,-2.0,-2.0,-2.0,-2.0,-4.0,-1.0,-1.0,-1.0,-0.2764892578125,0.02618408203125,0.531494140625,0.80023193359375,-0.34765625,-0.42578125,0.86279296875,0.0,-0.1875,0.1875
1.6649999999999865,0.0,0.0,1.0,11.0,6.0,1.0,-1.0,-2.0,-0.2764892578125,0.0262451171875,0.531494140625,0.80023193359375,-0.3466796875,-0.4267578125,0.85107421875,0.125,-0.3125,0.0
1.6699999999999864,-3.0,2.0,0.0,-8.0,-6.0,-1.0,-2.0,-2.0,-0.2764892578125,0.0262451171875,0.531494140625,0.80023193359375,-0.3466796875,-0.4267578125,0.85107421875,0.125,-0.3125,0.0
1.6749999999999863,-2.0,0.0,-2.0,1.0,-1.0,-2.0,-2.0,-1.0,-0.2764892578125,0.0262451171875,0.531494140625,0.80023193359375,-0.3447265625,-0.42626953125,0.85986328125,-0.4375,-0.5,0.0
1.6799999999999862,-2.0,-2.0,4.0,-10.0,-4.0,-2.0,-2.0,-1.0,-0.27655029296875,0.02618408203125,0.531494140625,0.80023193359375,-0.337890625,-0.43310546875,0.8583984375,-0.75,-0.625,-0.0625
1.684999999999986,-1.0,-2.0,-1.0,5.0,13.0,0.0,0.0,-1.0,-0.27655029296875,0.02618408203125,0.531494140625,0.80023193359375,-0.337890625,-0.43310546875,0.8583984375,-0.75,-0.625,-0.0625
1.689999999999986,0.0,-2.0,0.0,3.0,1.0,-3.0,-1.0,1.0,-0.27655029296875,0.02618408203125,0.53143310546875,0.80023193359375,-0.337890625,-0.4296875,0.859375,-0.5625,-0.8125,0.5625
1.6949999999999859,-1.0,0.0,-3.0,3.0,-2.0,-2.0,0.0,-3.0,-0.27655029296875,0.02618408203125,0.53143310546875,0.80023193359375,-0.337890625,-0.4296875,0.859375,-0.5625,-0.8125,0.5625
1.6999999999999857,0.0,-1.0,-2.0,-9.0,-4.0,0.0,0.0,1.0,-0.27655029296875,0.02618408203125,0.53143310546875,0.80023193359375,-0.3427734375,-0.43408203125,0.861328125,-0.5,-1.0,0.75
1.7049999999999856,-1.0,0.0,-2.0,-3.0,1.0,-3.0,-2.0,-1.0,-0.2764892578125,0.0260009765625,0.5316162109375,0.80010986328125,-0.3427734375,-0.431640625,0.8603515625,0.1875,-1.0625,0.8125
1.7099999999999855,-1.0,-1.0,-3.0,-3.0,1.0,0.0,-3.0,-1.0,-0.2764892578125,0.0260009765625,0.5316162109375,0.80010986328125,-0.3427734375,-0.431640625,0.8603515625,0.1875,-1.0625,0.8125
1.7149999999999854,-1.0,-1.0,-3.0,-3.0,1.0,0.0,-3.0,-1.0,-0.2764892578125,0.0260009765625,0.5316162109375,0.80010986328125,-0.3427734375,-0.431640625,0.8603515625,0.1875,-1.0625,0.8125
1.7199999999999853,-2.0,-1.0,3.0,0.0,1.0,0.0,0.0,0.0,-0.27630615234375,0.0260009765625,0.53179931640625,0.800048828125,-0.34765625,-0.431640625,0.86328125,1.0,-1.375,1.125
1.7249999999999852,0.0,-4.0,-4.0,3.0,1.0,0.0,-1.0,-2.0,-0.27630615234375,0.0260009765625,0.53179931640625,0.800048828125,-0.34765625,-0.431640625,0.86328125,1.0,-1.375,1.125
1.729999999999985,-1.0,-2.0,2.0,3.0,4.0,0.0,-1.0,-2.0,-0.276123046875,0.0260009765625,0.531982421875,0.79998779296875,-0.35205078125,-0.42822265625,0.86083984375,1.3125,-1.6875,1.0
1.734999999999985,-1.0,-2.0,2.0,3.0,4.0,0.0,-1.0,-2.0,-0.276123046875,0.0260009765625,0.531982421875,0.79998779296875,-0.35205078125,-0.42822265625,0.86083984375,1.3125,-1.6875,1.0
1.739999999999985,-1.0,-1.0,-1.0,11.0,5.0,-2.0,-2.0,-1.0,-0.276123046875,0.0260009765625,0.531982421875,0.79998779296875,-0.35205078125,-0.42822265625,0.86083984375,1.3125,-1.6875,1.0
1.7449999999999848,0.0,1.0,-3.0,-7.0,-2.0,-2.0,-1.0,-1.0,-0.27581787109375,0.0260009765625,0.53228759765625,0.7999267578125,-0.35009765625,-0.41943359375,0.861328125,1.0625,-1.8125,1.1875
1.7499999999999847,-2.0,-1.0,0.0,4.0,10.0,-2.0,1.0,0.0,-0.275634765625,0.0260009765625,0.53253173828125,0.7998046875,-0.35302734375,-0.42041015625,0.8681640625,0.5,-1.5625,1.125
1.7549999999999846,0.0,-2.0,-3.0,-2.0,-4.0,-2.0,-1.0,-1.0,-0.275634765625,0.0260009765625,0.53253173828125,0.7998046875,-0.35302734375,-0.42041015625,0.8681640625,0.5,-1.5625,1.125
1.7599999999999845,-1.0,-3.0,0.0,-2.0,-1.0,1.0,-2.0,-1.0,-0.275634765625,0.0260009765625,0.53253173828125,0.7998046875,-0.35302734375,-0.42041015625,0.8681640625,0.5,-1.5625,1.125
1.7649999999999844,-2.0,-3.0,-2.0,-5.0,-8.0,-1.0,-3.0,-1.0,-0.27545166015625,0.02587890625,0.53265380859375,0.7998046875,-0.33984375,-0.42431640625,0.86181640625,0.5625,-1.25,0.75
1.7699999999999843,-2.0,-3.0,-2.0,-5.0,-8.0,-1.0,-3.0,-1.0,-0.27545166015625,0.02587890625,0.53265380859375,0.7998046875,-0.33984375,-0.42431640625,0.86181640625,0.5625,-1.25,0.75
1.7749999999999841,-1.0,0.0,-1.0,0.0,0.0,0.0,-1.0,-1.0,-0.275390625,0.02587890625,0.53265380859375,0.7998046875,-0.33251953125,-0.41748046875,0.869140625,0.6875,-0.75,0.625
1.779999999999984,-1.0,0.0,-1.0,0.0,0.0,0.0,-1.0,-1.0,-0.275390625,0.02587890625,0.53265380859375,0.7998046875,-0.33251953125,-0.41748046875,0.869140625,0.6875,-0.75,0.625
1.784999999999984,-2.0,-4.0,-6.0,2.0,6.0,-1.0,-1.0,-1.0,-0.275390625,0.02587890625,0.53265380859375,0.7998046875,-0.33251953125,-0.41748046875,0.869140625,0.6875,-0.75,0.625
1.7899999999999838,-2.0,-4.0,-6.0,2.0,6.0,-1.0,-1.0,-1.0,-0.275390625,0.02587890625,0.53265380859375,0.7998046875,-0.34716796875,-0.42236328125,0.8642578125,0.3125,-0.25,0.5625
1.7949999999999837,1.0,-1.0,-4.0,10.0,0.0,0.0,-1.0,0.0,-0.275390625,0.02587890625,0.53265380859375,0.7998046875,-0.34716796875,-0.42236328125,0.8642578125,0.3125,-0.25,0.5625
1.7999999999999836,-2.0,-1.0,-3.0,-4.0,-4.0,-1.0,0.0,-2.0,-0.275390625,0.02593994140625,0.53265380859375,0.7998046875,-0.3408203125,-0.41796875,0.8642578125,0.625,-0.1875,-0.1875
1.8049999999999835,-2.0,-1.0,-3.0,-4.0,-4.0,-1.0,0.0,-2.0,-0.275390625,0.02593994140625,0.53265380859375,0.7998046875,-0.3408203125,-0.41796875,0.8642578125,0.625,-0.1875,-0.1875
1.8099999999999834,-1.0,-3.0,1.0,3.0,3.0,-3.0,-2.0,-2.0,-0.275390625,0.02587890625,0.53265380859375,0.7998046875,-0.33837890625,-0.419921875,0.859375,-0.0625,-0.5625,-0.1875
1.8149999999999833,1.0,1.0,-1.0,-6.0,-4.0,-1.0,-2.0,-1.0,-0.275390625,0.02587890625,0.53265380859375,0.7998046875,-0.341796875,-0.42529296875,0.86083984375,-0.5625,-0.6875,-0.625
1.8199999999999832,-3.0,0.0,-8.0,-4.0,-1.0,0.0,-2.0,-2.0,-0.275390625,0.02587890625,0.53265380859375,0.7998046875,-0.341796875,-0.42529296875,0.86083984375,-0.5625,-0.6875,-0.625
1.824999999999983,-4.0,-2.0,-2.0,-5.0,-12.0,-5.0,0.0,2.0,-0.27545166015625,0.02587890625,0.53265380859375,0.7998046875,-0.33203125,-0.43017578125,0.8603515625,-0.6875,-0.9375,-0.3125
1.829999999999983,-4.0,-2.0,-2.0,-5.0,-12.0,-5.0,0.0,2.0,-0.27545166015625,0.02587890625,0.53265380859375,0.7998046875,-0.33203125,-0.43017578125,0.8603515625,-0.6875,-0.9375,-0.3125
1.8349999999999829,0.0,2.0,6.0,5.0,2.0,-1.0,-2.0,-1.0,-0.27545166015625,0.025634765625,0.5325927734375,0.7998046875,-0.33984375,-0.43701171875,0.85498046875,0.1875,-1.125,-0.375
1.8399999999999828,1.0,-1.0,2.0,4.0,3.0,3.0,-1.0,0.0,-0.275390625,0.025390625,0.53265380859375,0.79986572265625,-0.337890625,-0.43115234375,0.85888671875,0.375,-1.0625,0.0
1.8449999999999827,-2.0,-2.0,0.0,-9.0,-1.0,-2.0,0.0,-2.0,-0.275390625,0.025390625,0.53265380859375,0.79986572265625,-0.337890625,-0.43115234375,0.85888671875,0.375,-1.0625,0.0
1.8499999999999825,-2.0,0.0,-3.0,-14.0,-8.0,-2.0,-1.0,-1.0,-0.27545166015625,0.025390625,0.53265380859375,0.7998046875,-0.3447265625,-0.42822265625,0.85986328125,0.625,-0.6875,0.1875
1.8549999999999824,0.0,-5.0,-1.0,2.0,4.0,-1.0,0.0,-3.0,-0.27545166015625,0.02545166015625,0.53265380859375,0.7998046875,-0.35107421875,-0.427734375,0.86181640625,0.25,-0.375,0.875
1.8599999999999823,-3.0,-1.0,-4.0,1.0,1.0,2.0,0.0,-1.0,-0.27545166015625,0.02545166015625,0.53265380859375,0.7998046875,-0.35107421875,-0.427734375,0.86181640625,0.25,-0.375,0.875
1.8649999999999822,-3.0,-1.0,-4.0,1.0,1.0,2.0,0.0,-1.0,-0.27545166015625,0.02545166015625,0.53265380859375,0.7998046875,-0.35107421875,-0.427734375,0.86181640625,0.25,-0.375,0.875
1.8699999999999821,-1.0,-3.0,1.0,-9.0,-8.0,-3.0,-3.0,-1.0,-0.27545166015625,0.02545166015625,0.5328369140625,0.7996826171875,-0.349609375,-0.42431640625,0.86767578125,-0.125,-0.5625,1.1875
1.874999999999982,1.0,-1.0,-3.0,4.0,4.0,0.0,-2.0,-1.0,-0.27545166015625,0.02545166015625,0.5328369140625,0.7996826171875,-0.349609375,-0.42431640625,0.86767578125,-0.125,-0.5625,1.1875
1.879999999999982,1.0,-2.0,-4.0,-1.0,-3.0,0.0,-3.0,0.0,-0.27545166015625,0.025390625,0.53302001953125,0.799560546875,-0.34375,-0.4267578125,0.8642578125,-0.1875,-0.75,1.1875
1.8849999999999818,-1.0,-1.0,-5.0,-2.0,-3.0,-1.0,-2.0,-2.0,-0.2752685546875,0.025390625,0.533203125,0.79949951171875,-0.3408203125,-0.42529296875,0.8623046875,0.8125,-1.0,1.0625
1.8899999999999817,-2.0,-4.0,-1.0,3.0,1.0,-3.0,0.0,0.0,-0.2752685546875,0.025390625,0.533203125,0.79949951171875,-0.3408203125,-0.42529296875,0.8623046875,0.8125,-1.0,1.0625
1.8949999999999816,-2.0,-4.0,-1.0,3.0,1.0,-3.0,0.0,0.0,-0.2752685546875,0.025390625,0.533203125,0.79949951171875,-0.3408203125,-0.42529296875,0.8623046875,0.8125,-1.0,1.0625
1.8999999999999815,-2.0,-4.0,-2.0,-5.0,-4.0,-3.0,-1.0,-1.0,-0.2750244140625,0.025390625,0.5333251953125,0.79949951171875,-0.33984375,-0.4248046875,0.86279296875,1.25,-1.0625,0.75
1.9049999999999814,-1.0,0.0,0.0,-4.0,1.0,-1.0,-1.0,0.0,-0.2747802734375,0.0252685546875,0.53350830078125,0.7994384765625,-0.33447265625,-0.42041015625,0.86376953125,0.625,-1.1875,0.75
1.9099999999999813,-1.0,0.0,1.0,-4.0,-7.0,-2.0,-1.0,0.0,-0.2747802734375,0.0252685546875,0.53350830078125,0.7994384765625,-0.33447265625,-0.42041015625,0.86376953125,0.625,-1.1875,0.75
1.9149999999999812,1.0,-1.0,-2.0,-11.0,-3.0,-1.0,-1.0,-1.0,-0.27471923828125,0.02508544921875,0.53363037109375,0.7994384765625,-0.33935546875,-0.419921875,0.8642578125,-0.125,-1.1875,0.375
1.919999999999981,-2.0,0.0,1.0,8.0,9.0,2.0,-1.0,-3.0,-0.27471923828125,0.02508544921875,0.53363037109375,0.7994384765625,-0.33935546875,-0.419921875,0.8642578125,-0.125,-1.1875,0.375
1.924999999999981,-1.0,-2.0,1.0,2.0,-2.0,0.0,-3.0,0.0,-0.27471923828125,0.02508544921875,0.53363037109375,0.7994384765625,-0.34326171875,-0.4228515625,0.869140625,-0.3125,-0.6875,0.125
1.9299999999999808,-3.0,-1.0,0.0,-1.0,-5.0,-4.0,-1.0,-1.0,-0.27471923828125,0.02508544921875,0.53363037109375,0.7994384765625,-0.34130859375,-0.42138671875,0.8701171875,0.5625,-0.4375,-0.4375
1.9349999999999807,-1.0,0.0,-3.0,-8.0,-4.0,-3.0,-1.0,-2.0,-0.27471923828125,0.02508544921875,0.53363037109375,0.7994384765625,-0.34130859375,-0.42138671875,0.8701171875,0.5625,-0.4375,-0.4375
1.9399999999999806,0.0,1.0,0.0,-1.0,3.0,0.0,-1.0,-1.0,-0.274658203125,0.02508544921875,0.53363037109375,0.7994384765625,-0.3369140625,-0.41357421875,0.86865234375,0.1875,-0.0625,-0.5625
1.9449999999999805,1.0,1.0,0.0,-5.0,-1.0,1.0,-1.0,0.0,-0.274658203125,0.025146484375,0.53363037109375,0.7994384765625,-0.34228515625,-0.41943359375,0.86767578125,-0.8125,0.0,-0.75
1.9499999999999804,-1.0,0.0,1.0,5.0,3.0,0.0,0.0,-1.0,-0.27490234375,0.02490234375,0.53350830078125,0.7994384765625,-0.34033203125,-0.427734375,0.8671875,-1.3125,0.0625,-1.0
1.9549999999999803,-1.0,-1.0,-1.0,2.0,0.0,1.0,-2.0,-1.0,-0.27490234375,0.02490234375,0.53350830078125,0.7994384765625,-0.34033203125,-0.427734375,0.8671875,-1.3125,0.0625,-1.0
1.9599999999999802,0.0,0.0,-3.0,-7.0,-2.0,-1.0,-1.0,-1.0,-0.27490234375,0.02490234375,0.533447265625,0.7994384765625,-0.333984375,-0.4267578125,0.8603515625,-0.625,0.1875,-0.9375
1.96499999999998,0.0,0.0,-3.0,-7.0,-2.0,-1.0,-1.0,-1.0,-0.27490234375,0.02490234375,0.533447265625,0.7994384765625,-0.333984375,-0.4267578125,0.8603515625,-0.625,0.1875,-0.9375
1.96999999999998,-1.0,-2.0,-1.0,3.0,-5.0,-2.0,-1.0,1.0,-0.27490234375,0.02490234375,0.533447265625,0.7994384765625,-0.33935546875,-0.43115234375,0.8623046875,0.0625,0.3125,-0.9375
1.9749999999999799,-1.0,3.0,4.0,-6.0,-2.0,-2.0,-2.0,-1.0,-0.27490234375,0.02490234375,0.533447265625,0.7994384765625,-0.33935546875,-0.43115234375,0.8623046875,0.0625,0.3125,-0.9375
1.9799999999999798,-1.0,3.0,4.0,-6.0,-2.0,-2.0,-2.0,-1.0,-0.27496337890625,0.02490234375,0.533447265625,0.7994384765625,-0.34326171875,-0.42724609375,0.86474609375,0.0,0.25,-0.9375
1.9849999999999797,-2.0,0.0,-2.0,-9.0,-3.0,-1.0,-1.0,-1.0,-0.27496337890625,0.02490234375,0.533447265625,0.7994384765625,-0.34326171875,-0.42724609375,0.86474609375,0.0,0.25,-0.9375
1.9899999999999796,-1.0,-3.0,-3.0,-11.0,-8.0,-2.0,-2.0,0.0,-0.27496337890625,0.02484130859375,0.533447265625,0.7994384765625,-0.341796875,-0.43359375,0.8583984375,-0.5625,0.5,-0.9375
1.9949999999999795,-2.0,-1.0,1.0,12.0,4.0,-1.0,-1.0,-3.0,-0.27496337890625,0.02484130859375,0.533447265625,0.7994384765625,-0.341796875,-0.43359375,0.8583984375,-0.5625,0.5,-0.9375
1.9999999999999793,-2.0,-1.0,1.0,12.0,4.0,-1.0,-1.0,-3.0,-0.27496337890625,0.02484130859375,0.533447265625,0.7994384765625,-0.341796875,-0.43359375,0.8583984375,-0.5625,0.5,-0.9375
2.0049999999999795,-2.0,1.0,-2.0,-10.0,-6.0,-1.0,0.0,-2.0,-0.27532958984375,0.02484130859375,0.5333251953125,0.7994384765625,-0.34814453125,-0.43017578125,0.8623046875,-1.125,0.5625,-0.6875
2.0099999999999794,0.0,-1.0,-2.0,-7.0,-1.0,-1.0,0.0,-1.0,-0.275634765625,0.02484130859375,0.533203125,0.7994384765625,-0.34619140625,-0.4306640625,0.86279296875,-1.1875,0.75,-0.625
2.0149999999999793,0.0,-2.0,0.0,11.0,2.0,1.0,-1.0,-1.0,-0.275634765625,0.02484130859375,0.533203125,0.7994384765625,-0.34619140625,-0.4306640625,0.86279296875,-1.1875,0.75,-0.625
2.019999999999979,-1.0,0.0,-2.0,-3.0,-3.0,-2.0,-1.0,-2.0,-0.27569580078125,0.02484130859375,0.533203125,0.79937744140625,-0.34130859375,-0.43408203125,0.85888671875,-0.75,0.6875,-0.5
2.024999999999979,0.0,-2.0,-2.0,-4.0,-2.0,-1.0,0.0,0.0,-0.27569580078125,0.02484130859375,0.533203125,0.79937744140625,-0.34130859375,-0.43408203125,0.85888671875,-0.75,0.6875,-0.5
2.029999999999979,0.0,0.0,0.0,-3.0,-8.0,-4.0,-2.0,-2.0,-0.27569580078125,0.0247802734375,0.53314208984375,0.79937744140625,-0.3369140625,-0.43212890625,0.8603515625,0.0625,0.5625,-0.5
2.034999999999979,1.0,-2.0,-5.0,-11.0,-10.0,-3.0,0.0,-1.0,-0.27569580078125,0.0247802734375,0.53314208984375,0.79937744140625,-0.3369140625,-0.43212890625,0.8603515625,0.0625,0.5625,-0.5
2.0399999999999787,-2.0,0.0,1.0,8.0,-2.0,-1.0,-1.0,1.0,-0.27569580078125,0.0247802734375,0.53314208984375,0.79937744140625,-0.33447265625,-0.431640625,0.85693359375,0.5625,0.25,-0.375
2.0449999999999786,-2.0,0.0,1.0,8.0,-2.0,-1.0,-1.0,1.0,-0.27569580078125,0.0247802734375,0.53314208984375,0.79937744140625,-0.33447265625,-0.431640625,0.85693359375,0.5625,0.25,-0.375
2.0499999999999785,-1.0,-1.0,-1.0,-3.0,-1.0,-2.0,1.0,-1.0,-0.27569580078125,0.0247802734375,0.53314208984375,0.79937744140625,-0.33447265625,-0.431640625,0.85693359375,0.5625,0.25,-0.375
2.0549999999999784,-3.0,-1.0,1.0,0.0,2.0,-1.0,-4.0,0.0,-0.2757568359375,0.0247802734375,0.53314208984375,0.79937744140625,-0.34033203125,-0.42822265625,0.85693359375,-0.125,-0.0625,0.125
2.0599999999999783,0.0,-2.0,0.0,0.0,-1.0,0.0,-1.0,0.0,-0.2757568359375,0.0247802734375,0.53314208984375,0.79937744140625,-0.3447265625,-0.4267578125,0.861328125,-0.375,-0.3125,0.3125
2.064999999999978,0.0,-2.0,0.0,0.0,-1.0,0.0,-1.0,0.0,-0.2757568359375,0.0247802734375,0.53314208984375,0.79937744140625,-0.3447265625,-0.4267578125,0.861328125,-0.375,-0.3125,0.3125
2.069999999999978,-1.0,2.0,1.0,-4.0,-8.0,-1.0,1.0,0.0,-0.2757568359375,0.0247802734375,0.53314208984375,0.79937744140625,-0.341796875,-0.4287109375,0.85498046875,0.25,-0.4375,0.25
2.074999999999978,-3.0,-1.0,-5.0,-5.0,-3.0,-2.0,-2.0,1.0,-0.27569580078125,0.02484130859375,0.53314208984375,0.7994384765625,-0.3447265625,-0.43017578125,0.86181640625,1.125,-0.25,0.125
2.079999999999978,-3.0,-1.0,-5.0,-5.0,-3.0,-2.0,-2.0,1.0,-0.27569580078125,0.02484130859375,0.53314208984375,0.7994384765625,-0.3447265625,-0.43017578125,0.86181640625,1.125,-0.25,0.125
2.0849999999999778,0.0,-3.0,-2.0,7.0,9.0,0.0,-1.0,-3.0,-0.27569580078125,0.02484130859375,0.53314208984375,0.7994384765625,-0.34033203125,-0.427734375,0.85205078125,0.875,0.0625,-0.0625
2.0899999999999777,-1.0,-1.0,-1.0,-4.0,1.0,-1.0,-1.0,-3.0,-0.27569580078125,0.02484130859375,0.53314208984375,0.7994384765625,-0.34033203125,-0.427734375,0.85205078125,0.875,0.0625,-0.0625
2.0949999999999775,-3.0,0.0,0.0,-3.0,-5.0,-1.0,-2.0,-2.0,-0.27569580078125,0.02484130859375,0.53314208984375,0.7994384765625,-0.34033203125,-0.427734375,0.85205078125,0.875,0.0625,-0.0625
2.0999999999999774,-3.0,0.0,0.0,-3.0,-5.0,-1.0,-2.0,-2.0,-0.27569580078125,0.02484130859375,0.53314208984375,0.7994384765625,-0.3369140625,-0.42529296875,0.86181640625,-0.125,0.25,0.0
2.1049999999999773,0.0,-1.0,0.0,3.0,-1.0,-1.0,-3.0,-2.0,-0.27569580078125,0.02484130859375,0.53314208984375,0.7994384765625,-0.3369140625,-0.42529296875,0.86181640625,-0.125,0.25,0.0
2.1099999999999772,-3.0,0.0,-3.0,-7.0,-7.0,0.0,-3.0,0.0,-0.2757568359375,0.0247802734375,0.53314208984375,0.7994384765625,-0.3359375,-0.42919921875,0.85546875,-0.9375,0.5625,0.3125
2.114999999999977,-3.0,0.0,-3.0,-7.0,-7.0,0.0,-3.0,0.0,-0.2757568359375,0.0247802734375,0.53314208984375,0.7994384765625,-0.3359375,-0.42919921875,0.85546875,-0.9375,0.5625,0.3125
2.119999999999977,0.0,-3.0,-2.0,1.0,1.0,-1.0,0.0,0.0,-0.2757568359375,0.0247802734375,0.53314208984375,0.79937744140625,-0.3427734375,-0.4296875,0.86572265625,-0.625,0.5625,0.0625
2.124999999999977,0.0,-3.0,-2.0,1.0,1.0,-1.0,0.0,0.0,-0.2757568359375,0.0247802734375,0.53314208984375,0.79937744140625,-0.3427734375,-0.4296875,0.86572265625,-0.625,0.5625,0.0625
2.129999999999977,-1.0,1.0,1.0,-1.0,-1.0,1.0,0.0,-1.0,-0.2757568359375,0.0247802734375,0.53314208984375,0.79937744140625,-0.3427734375,-0.427734375,0.8603515625,0.4375,0.4375,0.1875
2.1349999999999767,-1.0,1.0,1.0,-1.0,-1.0,1.0,0.0,-1.0,-0.2757568359375,0.0247802734375,0.53314208984375,0.79937744140625,-0.3427734375,-0.427734375,0.8603515625,0.4375,0.4375,0.1875
2.1399999999999766,0.0,-3.0,-3.0,-4.0,1.0,0.0,-1.0,-3.0,-0.2757568359375,0.0247802734375,0.53314208984375,0.79937744140625,-0.3427734375,-0.427734375,0.8603515625,0.4375,0.4375,0.1875
2.1449999999999765,-1.0,-1.0,-2.0,-7.0,-6.0,-2.0,-4.0,-3.0,-0.2757568359375,0.0247802734375,0.53314208984375,0.79937744140625,-0.34033203125,-0.42333984375,0.85693359375,0.625,0.0625,0.3125
2.1499999999999764,1.0,-1.0,2.0,4.0,4.0,2.0,-1.0,-2.0,-0.2757568359375,0.0247802734375,0.53314208984375,0.79937744140625,-0.34033203125,-0.42333984375,0.85693359375,0.625,0.0625,0.3125
2.1549999999999763,-2.0,-3.0,-2.0,-4.0,0.0,-1.0,-1.0,-3.0,-0.2757568359375,0.0247802734375,0.53314208984375,0.79937744140625,-0.33740234375,-0.43115234375,0.85986328125,0.1875,-0.25,0.5625
2.159999999999976,-2.0,0.0,-5.0,-5.0,-5.0,-2.0,-1.0,-2.0,-0.2757568359375,0.0247802734375,0.53314208984375,0.79937744140625,-0.33740234375,-0.43115234375,0.85986328125,0.1875,-0.25,0.5625
2.164999999999976,-2.0,0.0,-5.0,-5.0,-5.0,-2.0,-1.0,-2.0,-0.27581787109375,0.0247802734375,0.53314208984375,0.79937744140625,-0.337890625,-0.431640625,0.8583984375,-0.4375,-0.4375,0.6875
2.169999999999976,-2.0,-2.0,-1.0,-3.0,-5.0,-3.0,0.0,0.0,-0.27581787109375,0.0247802734375,0.53314208984375,0.79937744140625,-0.337890625,-0.431640625,0.8583984375,-0.4375,-0.4375,0.6875
2.174999999999976,-2.0,-2.0,0.0,3.0,-2.0,-2.0,0.0,0.0,-0.27587890625,0.02471923828125,0.53326416015625,0.79925537109375,-0.341796875,-0.43505859375,0.85595703125,0.125,-0.375,1.1875
2.1799999999999757,-3.0,1.0,-2.0,-2.0,-4.0,-1.0,0.0,-2.0,-0.27587890625,0.02471923828125,0.53326416015625,0.79925537109375,-0.341796875,-0.43505859375,0.85595703125,0.125,-0.375,1.1875
2.1849999999999756,-2.0,0.0,-1.0,-3.0,-1.0,-2.0,-2.0,-1.0,-0.27593994140625,0.02471923828125,0.53326416015625,0.79925537109375,-0.34130859375,-0.4326171875,0.85498046875,0.5625,-0.4375,0.875
2.1899999999999755,-2.0,-2.0,-2.0,-8.0,0.0,0.0,-2.0,1.0,-0.27593994140625,0.02471923828125,0.53326416015625,0.79925537109375,-0.34130859375,-0.4326171875,0.85498046875,0.5625,-0.4375,0.875
2.1949999999999754,-2.0,-2.0,-2.0,-8.0,0.0,0.0,-2.0,1.0,-0.27593994140625,0.02471923828125,0.53326416015625,0.79925537109375,-0.34130859375,-0.4326171875,0.85498046875,0.5625,-0.4375,0.875
2.1999999999999753,0.0,-2.0,1.0,-2.0,-8.0,1.0,0.0,-1.0,-0.27587890625,0.02471923828125,0.533447265625,0.7991943359375,-0.35107421875,-0.42578125,0.85888671875,0.5,-1.0,0.75
2.204999999999975,-1.0,-1.0,-2.0,-3.0,-4.0,0.0,-1.0,0.0,-0.27587890625,0.02471923828125,0.533447265625,0.7991943359375,-0.35107421875,-0.42578125,0.85888671875,0.5,-1.0,0.75
2.209999999999975,-1.0,-1.0,-2.0,-3.0,-4.0,0.0,-1.0,0.0,-0.27587890625,0.02471923828125,0.533447265625,0.7991943359375,-0.35107421875,-0.42578125,0.85888671875,0.5,-1.0,0.75
2.214999999999975,0.0,-1.0,1.0,-5.0,-3.0,-3.0,-2.0,0.0,-0.27587890625,0.02471923828125,0.533447265625,0.79913330078125,-0.3466796875,-0.42333984375,0.86279296875,0.4375,-0.9375,0.25
2.219999999999975,-2.0,-1.0,-2.0,5.0,4.0,2.0,-1.0,-2.0,-0.27587890625,0.02471923828125,0.533447265625,0.79913330078125,-0.3466796875,-0.42333984375,0.86279296875,0.4375,-0.9375,0.25
2.2249999999999748,-2.0,0.0,0.0,3.0,0.0,-3.0,-2.0,-1.0,-0.27587890625,0.02471923828125,0.533447265625,0.79913330078125,-0.34228515625,-0.41943359375,0.85986328125,0.375,-0.5,0.3125
2.2299999999999747,-1.0,-2.0,0.0,2.0,-3.0,-2.0,-1.0,-1.0,-0.27587890625,0.0247802734375,0.533447265625,0.79913330078125,-0.34521484375,-0.4248046875,0.8642578125,-0.3125,-0.0625,0.4375
2.2349999999999746,0.0,-2.0,-3.0,-6.0,-2.0,1.0,-2.0,0.0,-0.27587890625,0.0247802734375,0.533447265625,0.79913330078125,-0.34521484375,-0.4248046875,0.8642578125,-0.3125,-0.0625,0.4375
2.2399999999999745,0.0,-2.0,-2.0,1.0,1.0,-2.0,0.0,-1.0,-0.27587890625,0.0247802734375,0.533447265625,0.79913330078125,-0.33984375,-0.4228515625,0.8671875,-0.4375,0.3125,0.1875
2.2449999999999743,0.0,-2.0,-2.0,1.0,1.0,-2.0,0.0,-1.0,-0.27587890625,0.0247802734375,0.533447265625,0.79913330078125,-0.33984375,-0.4228515625,0.8671875,-0.4375,0.3125,0.1875
2.2499999999999742,-1.0,0.0,-1.0,-12.0,-13.0,-2.0,-3.0,0.0,-0.27587890625,0.02471923828125,0.533447265625,0.7991943359375,-0.3369140625,-0.4228515625,0.86865234375,0.25,0.625,0.1875
2.254999999999974,0.0,2.0,0.0,1.0,1.0,2.0,-2.0,1.0,-0.27587890625,0.02471923828125,0.533447265625,0.7991943359375,-0.3369140625,-0.4228515625,0.86865234375,0.25,0.625,0.1875
2.259999999999974,-1.0,-1.0,-1.0,6.0,1.0,-1.0,0.0,-2.0,-0.27587890625,0.02471923828125,0.533447265625,0.7991943359375,-0.33447265625,-0.42236328125,0.86328125,0.5,0.8125,0.0625
2.264999999999974,-2.0,0.0,-2.0,-3.0,-3.0,-2.0,-2.0,-1.0,-0.27587890625,0.02471923828125,0.533447265625,0.7991943359375,-0.34033203125,-0.41748046875,0.85888671875,-0.1875,0.8125,-0.1875
2.269999999999974,-2.0,-4.0,-2.0,-2.0,0.0,-2.0,0.0,-2.0,-0.27587890625,0.02471923828125,0.533447265625,0.7991943359375,-0.34033203125,-0.41748046875,0.85888671875,-0.1875,0.8125,-0.1875
2.2749999999999737,-2.0,-4.0,-2.0,-2.0,0.0,-2.0,0.0,-2.0,-0.27587890625,0.02471923828125,0.533447265625,0.7991943359375,-0.34033203125,-0.41748046875,0.85888671875,-0.1875,0.8125,-0.1875
2.2799999999999736,-1.0,1.0,2.0,2.0,-1.0,1.0,-1.0,0.0,-0.27587890625,0.0247802734375,0.533447265625,0.7991943359375,-0.34423828125,-0.41845703125,0.85888671875,-0.875,0.6875,-0.375
2.2849999999999735,-1.0,1.0,2.0,2.0,-1.0,1.0,-1.0,0.0,-0.27587890625,0.0247802734375,0.533447265625,0.7991943359375,-0.34423828125,-0.41845703125,0.85888671875,-0.875,0.6875,-0.375
2.2899999999999734,0.0,5.0,6.0,-4.0,-1.0,-2.0,-2.0,-2.0,-0.27587890625,0.0247802734375,0.533447265625,0.79913330078125,-0.345703125,-0.42822265625,0.86083984375,-0.9375,0.75,-0.75
2.2949999999999733,0.0,5.0,6.0,-4.0,-1.0,-2.0,-2.0,-2.0,-0.27587890625,0.0247802734375,0.533447265625,0.79913330078125,-0.345703125,-0.42822265625,0.86083984375,-0.9375,0.75,-0.75
2.299999999999973,-1.0,-1.0,-2.0,-3.0,2.0,0.0,0.0,-1.0,-0.27587890625,0.0247802734375,0.533447265625,0.79913330078125,-0.34423828125,-0.4267578125,0.8681640625,0.0625,0.75,-0.9375
2.304999999999973,-1.0,-1.0,-2.0,-3.0,2.0,0.0,0.0,-1.0,-0.27587890625,0.0247802734375,0.533447265625,0.79913330078125,-0.34423828125,-0.4267578125,0.8681640625,0.0625,0.75,-0.9375
2.309999999999973,0.0,-2.0,-3.0,-13.0,-1.0,-1.0,-1.0,-1.0,-0.27587890625,0.0247802734375,0.533447265625,0.79913330078125,-0.34033203125,-0.42431640625,0.86376953125,0.4375,0.8125,-0.9375
2.314999999999973,0.0,-2.0,-3.0,-13.0,-1.0,-1.0,-1.0,-1.0,-0.27587890625,0.0247802734375,0.533447265625,0.79913330078125,-0.34033203125,-0.42431640625,0.86376953125,0.4375,0.8125,-0.9375
2.3199999999999728,0.0,-3.0,-1.0,0.0,4.0,-1.0,-1.0,-1.0,-0.27587890625,0.0247802734375,0.533447265625,0.79913330078125,-0.3427734375,-0.42578125,0.86376953125,-0.125,0.875,-0.6875
2.3249999999999726,0.0,-3.0,-1.0,0.0,4.0,-1.0,-1.0,-1.0,-0.27587890625,0.0247802734375,0.533447265625,0.79913330078125,-0.3427734375,-0.42578125,0.86376953125,-0.125,0.875,-0.6875
2.3299999999999725,-1.0,-1.0,-1.0,5.0,2.0,-2.0,-2.0,-1.0,-0.27593994140625,0.0247802734375,0.533447265625,0.79913330078125,-0.345703125,-0.42724609375,0.865234375,-0.5625,0.875,-0.3125
2.3349999999999724,-2.0,-3.0,-2.0,-5.0,-2.0,-1.0,0.0,0.0,-0.27593994140625,0.0247802734375,0.533447265625,0.79913330078125,-0.345703125,-0.42724609375,0.865234375,-0.5625,0.875,-0.3125
2.3399999999999723,-2.0,-2.0,2.0,-2.0,-5.0,-1.0,-3.0,-3.0,-0.27593994140625,0.0247802734375,0.533447265625,0.79913330078125,-0.3486328125,-0.431640625,0.85693359375,0.125,0.875,-0.125
2.344999999999972,-2.0,0.0,2.0,-8.0,0.0,-1.0,-2.0,-1.0,-0.27606201171875,0.02496337890625,0.5333251953125,0.7991943359375,-0.3466796875,-0.43115234375,0.8544921875,1.0625,0.875,-0.375
2.349999999999972,-1.0,-1.0,0.0,-9.0,-5.0,-3.0,0.0,-1.0,-0.27606201171875,0.02496337890625,0.5333251953125,0.7991943359375,-0.3466796875,-0.43115234375,0.8544921875,1.0625,0.875,-0.375
2.354999999999972,-1.0,-1.0,0.0,-9.0,-5.0,-3.0,0.0,-1.0,-0.27606201171875,0.02496337890625,0.5333251953125,0.7991943359375,-0.3466796875,-0.43115234375,0.8544921875,1.0625,0.875,-0.375
2.359999999999972,0.0,0.0,2.0,1.0,6.0,1.0,1.0,0.0,-0.27606201171875,0.025146484375,0.533203125,0.79925537109375,-0.34423828125,-0.43115234375,0.8564453125,1.0,0.625,-0.375
2.364999999999972,-1.0,1.0,-5.0,-3.0,-5.0,-1.0,-2.0,0.0,-0.276123046875,0.025146484375,0.53314208984375,0.79925537109375,-0.33740234375,-0.43017578125,0.853515625,0.5625,0.625,-0.4375
2.3699999999999717,-1.0,-2.0,0.0,8.0,7.0,-1.0,-1.0,-2.0,-0.276123046875,0.025146484375,0.53314208984375,0.79925537109375,-0.3408203125,-0.4248046875,0.85400390625,-0.5,0.5625,-0.5625
2.3749999999999716,-3.0,0.0,-1.0,-6.0,-15.0,-2.0,-1.0,-2.0,-0.276123046875,0.025146484375,0.53314208984375,0.79925537109375,-0.3408203125,-0.4248046875,0.85400390625,-0.5,0.5625,-0.5625
2.3799999999999715,1.0,-1.0,-3.0,-4.0,-14.0,-3.0,1.0,0.0,-0.27642822265625,0.02508544921875,0.53314208984375,0.79913330078125,-0.345703125,-0.43212890625,0.859375,-1.1875,0.4375,0.0625
2.3849999999999714,0.0,-1.0,-1.0,0.0,-3.0,0.0,-1.0,1.0,-0.27642822265625,0.02508544921875,0.53314208984375,0.79913330078125,-0.345703125,-0.43212890625,0.859375,-1.1875,0.4375,0.0625
2.3899999999999713,0.0,-1.0,-1.0,0.0,-3.0,0.0,-1.0,1.0,-0.27642822265625,0.02508544921875,0.53314208984375,0.79913330078125,-0.345703125,-0.43212890625,0.859375,-1.1875,0.4375,0.0625
2.394999999999971,-2.0,1.0,-1.0,4.0,6.0,0.0,-3.0,0.0,-0.27667236328125,0.02496337890625,0.5330810546875,0.79913330078125,-0.3408203125,-0.4296875,0.86083984375,-1.125,0.375,-0.4375
2.399999999999971,-1.0,-3.0,4.0,1.0,3.0,-2.0,-2.0,0.0,-0.27667236328125,0.02496337890625,0.53302001953125,0.79913330078125,-0.34326171875,-0.43212890625,0.86279296875,0.25,0.625,-0.1875
2.404999999999971,-1.0,-3.0,4.0,1.0,3.0,-2.0,-2.0,0.0,-0.27667236328125,0.02496337890625,0.53302001953125,0.79913330078125,-0.34326171875,-0.43212890625,0.86279296875,0.25,0.625,-0.1875
2.409999999999971,-2.0,-1.0,-4.0,-7.0,-4.0,-1.0,-3.0,-2.0,-0.27667236328125,0.02496337890625,0.53302001953125,0.79913330078125,-0.34326171875,-0.43212890625,0.86279296875,0.25,0.625,-0.1875
2.4149999999999707,-1.0,-2.0,-3.0,5.0,9.0,-2.0,-1.0,-2.0,-0.27667236328125,0.02496337890625,0.53302001953125,0.79913330078125,-0.34814453125,-0.4267578125,0.85888671875,0.75,0.125,0.1875
2.4199999999999706,-1.0,-2.0,-3.0,5.0,9.0,-2.0,-1.0,-2.0,-0.27667236328125,0.02496337890625,0.53302001953125,0.79913330078125,-0.34814453125,-0.4267578125,0.85888671875,0.75,0.125,0.1875
2.4249999999999705,-1.0,-1.0,1.0,-1.0,-1.0,-1.0,0.0,-2.0,-0.2767333984375,0.02496337890625,0.53302001953125,0.79913330078125,-0.349609375,-0.42431640625,0.859375,0.3125,-0.25,0.3125
2.4299999999999704,0.0,1.0,2.0,2.0,4.0,1.0,0.0,1.0,-0.2767333984375,0.0250244140625,0.53302001953125,0.79913330078125,-0.35302734375,-0.42919921875,0.8544921875,0.25,-0.375,0.125
2.4349999999999703,1.0,-2.0,-4.0,4.0,12.0,2.0,-1.0,-1.0,-0.2767333984375,0.0250244140625,0.53302001953125,0.79913330078125,-0.35302734375,-0.42919921875,0.8544921875,0.25,-0.375,0.125
2.43999999999997,-2.0,1.0,-1.0,-4.0,-7.0,-2.0,0.0,-1.0,-0.27679443359375,0.0250244140625,0.53302001953125,0.79913330078125,-0.34765625,-0.431640625,0.85498046875,0.375,-0.375,-0.1875
2.44499999999997,1.0,-1.0,1.0,-6.0,-1.0,-2.0,-1.0,-3.0,-0.27679443359375,0.0250244140625,0.53302001953125,0.79913330078125,-0.34765625,-0.431640625,0.85498046875,0.375,-0.375,-0.1875
2.44999999999997,-2.0,1.0,-3.0,2.0,2.0,-2.0,-1.0,-1.0,-0.27667236328125,0.02496337890625,0.532958984375,0.7991943359375,-0.33544921875,-0.43115234375,0.853515625,1.0625,-0.1875,-0.4375
2.45499999999997,-1.0,-2.0,-3.0,-3.0,-1.0,-1.0,1.0,-1.0,-0.27667236328125,0.02496337890625,0.532958984375,0.7991943359375,-0.33544921875,-0.43115234375,0.853515625,1.0625,-0.1875,-0.4375
2.4599999999999698,-1.0,-1.0,-1.0,0.0,-3.0,-1.0,-1.0,-1.0,-0.276611328125,0.0250244140625,0.53289794921875,0.79925537109375,-0.3408203125,-0.42919921875,0.8603515625,1.0,0.0,-0.3125
2.4649999999999697,-2.0,-1.0,0.0,0.0,8.0,-1.0,-2.0,0.0,-0.276611328125,0.0250244140625,0.53289794921875,0.79925537109375,-0.3505859375,-0.42529296875,0.859375,-0.3125,-0.3125,-0.0625
2.4699999999999696,0.0,1.0,2.0,6.0,6.0,4.0,-3.0,-2.0,-0.27667236328125,0.0250244140625,0.53289794921875,0.79925537109375,-0.34521484375,-0.4345703125,0.859375,-0.9375,-0.625,0.125
2.4749999999999694,-3.0,-3.0,-1.0,-3.0,-8.0,-2.0,-1.0,-2.0,-0.27667236328125,0.0250244140625,0.53289794921875,0.79925537109375,-0.34521484375,-0.4345703125,0.859375,-0.9375,-0.625,0.125
2.4799999999999693,-2.0,-1.0,-1.0,-14.0,-5.0,-2.0,1.0,-2.0,-0.27667236328125,0.0250244140625,0.5328369140625,0.79925537109375,-0.341796875,-0.435546875,0.861328125,0.0,-0.75,0.25
2.4849999999999692,0.0,2.0,0.0,1.0,-2.0,-1.0,-3.0,-1.0,-0.27667236328125,0.0250244140625,0.5328369140625,0.79925537109375,-0.341796875,-0.435546875,0.861328125,0.0,-0.75,0.25
2.489999999999969,-2.0,1.0,-3.0,-3.0,-2.0,2.0,-2.0,0.0,-0.27667236328125,0.0250244140625,0.5328369140625,0.79925537109375,-0.341796875,-0.435546875,0.861328125,0.0,-0.75,0.25
2.494999999999969,-2.0,-3.0,1.0,-7.0,-1.0,0.0,-2.0,0.0,-0.27655029296875,0.02508544921875,0.532958984375,0.79925537109375,-0.34814453125,-0.43115234375,0.85546875,1.3125,-0.625,0.4375
2.499999999999969,-1.0,-2.0,-3.0,-3.0,0.0,2.0,-1.0,-2.0,-0.2763671875,0.02520751953125,0.5330810546875,0.79925537109375,-0.3505859375,-0.42431640625,0.86376953125,1.25,-0.6875,0.5625
2.504999999999969,2.0,0.0,1.0,8.0,2.0,-2.0,-1.0,-1.0,-0.2763671875,0.02520751953125,0.5330810546875,0.79925537109375,-0.3505859375,-0.42431640625,0.86376953125,1.25,-0.6875,0.5625
2.5099999999999687,2.0,0.0,1.0,8.0,2.0,-2.0,-1.0,-1.0,-0.2763671875,0.02520751953125,0.5330810546875,0.79925537109375,-0.34375,-0.42333984375,0.8603515625,0.625,-0.75,0.875
2.5149999999999686,1.0,-1.0,2.0,3.0,-2.0,1.0,1.0,1.0,-0.2763671875,0.02520751953125,0.5330810546875,0.79925537109375,-0.34228515625,-0.42724609375,0.86083984375,0.1875,-0.875,0.625
2.5199999999999685,0.0,-2.0,-2.0,-9.0,-7.0,-3.0,-2.0,-1.0,-0.2763671875,0.02520751953125,0.5330810546875,0.79925537109375,-0.34228515625,-0.42724609375,0.86083984375,0.1875,-0.875,0.625
2.5249999999999684,0.0,-3.0,1.0,-5.0,-2.0,-3.0,1.0,-2.0,-0.2763671875,0.02520751953125,0.53302001953125,0.79925537109375,-0.3408203125,-0.4248046875,0.857421875,0.5,-0.8125,0.25
2.5299999999999683,-2.0,1.0,-8.0,-9.0,-8.0,-4.0,-2.0,-1.0,-0.2763671875,0.02520751953125,0.53302001953125,0.79925537109375,-0.341796875,-0.4228515625,0.86328125,0.75,-0.25,0.3125
2.534999999999968,-2.0,-1.0,-2.0,11.0,3.0,0.0,-1.0,-1.0,-0.2763671875,0.02520751953125,0.53302001953125,0.79925537109375,-0.341796875,-0.4228515625,0.86328125,0.75,-0.25,0.3125
2.539999999999968,-1.0,-1.0,0.0,-6.0,0.0,0.0,-2.0,-2.0,-0.2763671875,0.02520751953125,0.5330810546875,0.79925537109375,-0.34326171875,-0.41943359375,0.86669921875,0.4375,-0.125,0.0
2.544999999999968,-2.0,-1.0,-2.0,-8.0,-13.0,-1.0,0.0,-1.0,-0.2763671875,0.02520751953125,0.5330810546875,0.79925537109375,-0.34326171875,-0.41943359375,0.86669921875,0.4375,-0.125,0.0
2.549999999999968,-2.0,-3.0,-1.0,-4.0,-4.0,-1.0,-2.0,-1.0,-0.2763671875,0.0252685546875,0.5330810546875,0.79925537109375,-0.34326171875,-0.42138671875,0.86376953125,0.3125,0.125,0.0
2.5549999999999677,0.0,0.0,1.0,3.0,11.0,1.0,1.0,0.0,-0.2763671875,0.0252685546875,0.5330810546875,0.79925537109375,-0.34326171875,-0.42138671875,0.86376953125,0.3125,0.125,0.0
2.5599999999999676,-1.0,2.0,-1.0,8.0,1.0,0.0,0.0,-1.0,-0.2763671875,0.0252685546875,0.5330810546875,0.79925537109375,-0.34326171875,-0.42041015625,0.8642578125,0.125,0.1875,-0.25
2.5649999999999675,0.0,-2.0,-2.0,-8.0,-3.0,0.0,-2.0,-1.0,-0.2763671875,0.0252685546875,0.5330810546875,0.79925537109375,-0.3427734375,-0.42431640625,0.8583984375,0.0,0.1875,-0.375
2.5699999999999674,0.0,1.0,0.0,0.0,0.0,1.0,-1.0,-3.0,-0.2763671875,0.0252685546875,0.5330810546875,0.79925537109375,-0.3427734375,-0.42431640625,0.8583984375,0.0,0.1875,-0.375
2.5749999999999673,-2.0,-2.0,-3.0,1.0,-4.0,-3.0,0.0,-1.0,-0.2763671875,0.0252685546875,0.5330810546875,0.7991943359375,-0.34375,-0.423828125,0.85693359375,-0.3125,0.4375,-0.6875
2.579999999999967,1.0,1.0,-2.0,-7.0,-11.0,-2.0,0.0,-1.0,-0.2763671875,0.0252685546875,0.5330810546875,0.7991943359375,-0.34375,-0.423828125,0.85693359375,-0.3125,0.4375,-0.6875
2.584999999999967,1.0,1.0,-2.0,-7.0,-11.0,-2.0,0.0,-1.0,-0.2763671875,0.0252685546875,0.5330810546875,0.7991943359375,-0.34375,-0.423828125,0.85693359375,-0.3125,0.4375,-0.6875
2.589999999999967,-2.0,-1.0,1.0,12.0,5.0,0.0,2.0,0.0,-0.27642822265625,0.02520751953125,0.53302001953125,0.7991943359375,-0.3359375,-0.4296875,0.8544921875,-0.0625,0.5625,-0.75
2.594999999999967,-1.0,0.0,-2.0,1.0,-4.0,-1.0,-1.0,-1.0,-0.27642822265625,0.02520751953125,0.53302001953125,0.7991943359375,-0.3359375,-0.4296875,0.8544921875,-0.0625,0.5625,-0.75
2.599999999999967,0.0,-1.0,-4.0,-5.0,-8.0,-2.0,0.0,-1.0,-0.27642822265625,0.02520751953125,0.53302001953125,0.7991943359375,-0.34423828125,-0.43017578125,0.865234375,-0.25,0.5625,-0.6875
2.6049999999999667,-2.0,0.0,0.0,-1.0,-3.0,-2.0,-1.0,-1.0,-0.27642822265625,0.02520751953125,0.53302001953125,0.7991943359375,-0.34423828125,-0.43017578125,0.865234375,-0.25,0.5625,-0.6875
2.6099999999999666,0.0,-1.0,-1.0,5.0,3.0,0.0,-2.0,1.0,-0.27642822265625,0.02520751953125,0.53302001953125,0.7991943359375,-0.34423828125,-0.43017578125,0.8583984375,-0.375,0.5625,-0.1875
2.6149999999999665,-1.0,0.0,1.0,10.0,10.0,1.0,-1.0,-2.0,-0.2764892578125,0.02520751953125,0.53302001953125,0.7991943359375,-0.349609375,-0.43115234375,0.8642578125,-0.3125,0.3125,-0.25
2.6199999999999664,-2.0,-2.0,-1.0,0.0,-4.0,-4.0,-1.0,-1.0,-0.2764892578125,0.02520751953125,0.53302001953125,0.7991943359375,-0.349609375,-0.43115234375,0.8642578125,-0.3125,0.3125,-0.25
2.6249999999999662,-2.0,-2.0,-1.0,0.0,-4.0,-4.0,-1.0,-1.0,-0.2764892578125,0.02520751953125,0.53302001953125,0.7991943359375,-0.349609375,-0.43115234375,0.8642578125,-0.3125,0.3125,-0.25
2.629999999999966,-1.0,1.0,1.0,-4.0,-4.0,-1.0,1.0,-2.0,-0.2764892578125,0.02520751953125,0.53302001953125,0.7991943359375,-0.34619140625,-0.4326171875,0.8564453125,0.25,0.0625,-0.125
2.634999999999966,-1.0,1.0,1.0,-4.0,-4.0,-1.0,1.0,-2.0,-0.2764892578125,0.02520751953125,0.53302001953125,0.7991943359375,-0.34619140625,-0.4326171875,0.8564453125,0.25,0.0625,-0.125
2.639999999999966,0.0,-1.0,-3.0,2.0,2.0,-1.0,-2.0,0.0,-0.2764892578125,0.02520751953125,0.53302001953125,0.7991943359375,-0.34619140625,-0.4326171875,0.8564453125,0.25,0.0625,-0.125
2.644999999999966,-2.0,0.0,1.0,-3.0,1.0,-4.0,-1.0,-1.0,-0.27655029296875,0.02520751953125,0.53302001953125,0.7991943359375,-0.34375,-0.42919921875,0.85888671875,0.375,-0.1875,0.25
2.6499999999999657,-1.0,-1.0,0.0,-7.0,-4.0,-1.0,-2.0,-2.0,-0.27655029296875,0.02520751953125,0.53302001953125,0.7991943359375,-0.34375,-0.42919921875,0.85888671875,0.375,-0.1875,0.25
2.6549999999999656,-1.0,-1.0,0.0,-13.0,-14.0,-1.0,-2.0,-2.0,-0.27655029296875,0.02520751953125,0.53302001953125,0.7991943359375,-0.345703125,-0.4306640625,0.8603515625,0.0625,-0.5,0.5
2.6599999999999655,0.0,0.0,-1.0,0.0,-1.0,1.0,0.0,-1.0,-0.27655029296875,0.02520751953125,0.53302001953125,0.7991943359375,-0.345703125,-0.4306640625,0.8603515625,0.0625,-0.5,0.5
2.6649999999999654,0.0,1.0,-1.0,4.0,5.0,0.0,-1.0,0.0,-0.276611328125,0.02520751953125,0.53302001953125,0.7991943359375,-0.35107421875,-0.4287109375,0.86474609375,0.3125,-0.625,0.8125
2.6699999999999653,0.0,1.0,-1.0,4.0,5.0,0.0,-1.0,0.0,-0.276611328125,0.02520751953125,0.53302001953125,0.7991943359375,-0.35107421875,-0.4287109375,0.86474609375,0.3125,-0.625,0.8125
2.674999999999965,0.0,-2.0,-1.0,4.0,5.0,-1.0,-1.0,1.0,-0.276611328125,0.02520751953125,0.53302001953125,0.7991943359375,-0.34912109375,-0.42578125,0.8583984375,0.3125,-0.625,0.4375
2.679999999999965,-1.0,-3.0,-1.0,-1.0,-3.0,-2.0,-2.0,-1.0,-0.276611328125,0.02520751953125,0.53302001953125,0.7991943359375,-0.34912109375,-0.42578125,0.8583984375,0.3125,-0.625,0.4375
2.684999999999965,-1.0,-2.0,-2.0,1.0,-1.0,0.0,-1.0,0.0,-0.276611328125,0.02520751953125,0.53302001953125,0.7991943359375,-0.349609375,-0.42333984375,0.85888671875,0.375,-0.4375,0.25
2.689999999999965,-1.0,-2.0,-2.0,1.0,-1.0,0.0,-1.0,0.0,-0.276611328125,0.02520751953125,0.53302001953125,0.7991943359375,-0.349609375,-0.42333984375,0.85888671875,0.375,-0.4375,0.25
2.6949999999999648,-1.0,1.0,-1.0,5.0,2.0,2.0,1.0,0.0,-0.276611328125,0.02520751953125,0.53302001953125,0.7991943359375,-0.3388671875,-0.42236328125,0.85791015625,0.0625,-0.1875,0.0625
2.6999999999999647,-3.0,0.0,-2.0,-2.0,-6.0,-1.0,0.0,-1.0,-0.276611328125,0.02520751953125,0.53302001953125,0.7991943359375,-0.33935546875,-0.42724609375,0.85888671875,-0.8125,0.0625,0.375
2.7049999999999645,-2.0,-2.0,-2.0,-6.0,1.0,-2.0,-1.0,-3.0,-0.276611328125,0.02520751953125,0.53302001953125,0.7991943359375,-0.33935546875,-0.42724609375,0.85888671875,-0.8125,0.0625,0.375
2.7099999999999644,0.0,-2.0,1.0,8.0,0.0,0.0,0.0,-1.0,-0.27667236328125,0.02520751953125,0.53302001953125,0.7991943359375,-0.33642578125,-0.4296875,0.859375,-0.125,0.5625,-0.125
2.7149999999999643,0.0,-1.0,1.0,-13.0,-1.0,-1.0,-2.0,0.0,-0.27667236328125,0.02520751953125,0.53302001953125,0.7991943359375,-0.33642578125,-0.4296875,0.859375,-0.125,0.5625,-0.125
2.7199999999999642,-2.0,2.0,0.0,0.0,0.0,0.0,-3.0,-2.0,-0.27667236328125,0.02520751953125,0.53302001953125,0.7991943359375,-0.341796875,-0.42578125,0.859375,0.5,0.5625,-0.3125
2.724999999999964,-1.0,-1.0,-3.0,-1.0,3.0,1.0,-2.0,-1.0,-0.27667236328125,0.02520751953125,0.53302001953125,0.7991943359375,-0.34912109375,-0.42041015625,0.86376953125,0.125,0.625,-0.1875
2.729999999999964,-2.0,-1.0,-2.0,2.0,-2.0,-4.0,-2.0,-3.0,-0.27667236328125,0.02520751953125,0.53302001953125,0.7991943359375,-0.34912109375,-0.42041015625,0.86376953125,0.125,0.625,-0.1875
2.734999999999964,-2.0,-2.0,-2.0,-2.0,-6.0,-3.0,-1.0,0.0,-0.27667236328125,0.02520751953125,0.53302001953125,0.79913330078125,-0.35107421875,-0.42822265625,0.8544921875,0.25,0.3125,-0.5
2.739999999999964,-4.0,-1.0,-2.0,-1.0,-1.0,-3.0,-1.0,0.0,-0.27667236328125,0.0252685546875,0.53302001953125,0.79913330078125,-0.35546875,-0.423828125,0.86279296875,-0.0625,-0.125,-0.625
2.7449999999999637,-3.0,-1.0,-5.0,-8.0,-5.0,-4.0,-2.0,-1.0,-0.27667236328125,0.0252685546875,0.53302001953125,0.79913330078125,-0.35546875,-0.423828125,0.86279296875,-0.0625,-0.125,-0.625
2.7499999999999636,-1.0,0.0,0.0,20.0,10.0,2.0,-2.0,-2.0,-0.2767333984375,0.0252685546875,0.53302001953125,0.79913330078125,-0.353515625,-0.42724609375,0.86181640625,-0.375,-0.1875,-0.6875
2.7549999999999635,-1.0,-2.0,1.0,3.0,0.0,0.0,-1.0,-1.0,-0.2767333984375,0.0252685546875,0.53302001953125,0.79913330078125,-0.3408203125,-0.43359375,0.857421875,-0.1875,-0.0625,-0.8125
2.7599999999999634,-1.0,1.0,-6.0,-2.0,2.0,-2.0,0.0,-1.0,-0.2767333984375,0.0252685546875,0.53302001953125,0.79913330078125,-0.3408203125,-0.43359375,0.857421875,-0.1875,-0.0625,-0.8125
2.7649999999999633,-1.0,1.0,-6.0,-2.0,2.0,-2.0,0.0,-1.0,-0.2767333984375,0.0252685546875,0.53302001953125,0.79913330078125,-0.3408203125,-0.43359375,0.857421875,-0.1875,-0.0625,-0.8125
2.769999999999963,-2.0,-3.0,-2.0,-7.0,-5.0,-3.0,-1.0,-2.0,-0.27679443359375,0.0252685546875,0.532958984375,0.79913330078125,-0.33740234375,-0.4326171875,0.85498046875,0.125,0.3125,-0.5625
2.774999999999963,-2.0,-3.0,-2.0,-7.0,-5.0,-3.0,-1.0,-2.0,-0.27679443359375,0.0252685546875,0.532958984375,0.79913330078125,-0.33740234375,-0.4326171875,0.85498046875,0.125,0.3125,-0.5625
2.779999999999963,0.0,-2.0,-1.0,3.0,1.0,-1.0,1.0,0.0,-0.27679443359375,0.02520751953125,0.532958984375,0.79913330078125,-0.3447265625,-0.4326171875,0.85986328125,0.0,0.5625,-0.0625
2.784999999999963,-1.0,0.0,0.0,-5.0,-2.0,1.0,1.0,0.0,-0.27679443359375,0.02520751953125,0.532958984375,0.79913330078125,-0.3447265625,-0.4326171875,0.85986328125,0.0,0.5625,-0.0625
2.7899999999999627,0.0,1.0,-2.0,3.0,-4.0,0.0,-1.0,-1.0,-0.27679443359375,0.02520751953125,0.532958984375,0.79913330078125,-0.3447265625,-0.4326171875,0.85986328125,0.0,0.5625,-0.0625
2.7949999999999626,0.0,0.0,1.0,-10.0,-2.0,1.0,-1.0,-2.0,-0.27685546875,0.0252685546875,0.532958984375,0.79913330078125,-0.35107421875,-0.43310546875,0.853515625,-0.75,0.5625,0.1875
2.7999999999999625,0.0,0.0,1.0,-10.0,-2.0,1.0,-1.0,-2.0,-0.27685546875,0.0252685546875,0.532958984375,0.79913330078125,-0.35107421875,-0.43310546875,0.853515625,-0.75,0.5625,0.1875
2.8049999999999624,-2.0,-2.0,-1.0,-9.0,-9.0,-2.0,-1.0,-1.0,-0.27685546875,0.02520751953125,0.532958984375,0.79913330078125,-0.34228515625,-0.42919921875,0.85205078125,-0.375,0.125,0.25
2.8099999999999623,-2.0,-2.0,-1.0,-9.0,-9.0,-2.0,-1.0,-1.0,-0.27685546875,0.02520751953125,0.532958984375,0.79913330078125,-0.34228515625,-0.42919921875,0.85205078125,-0.375,0.125,0.25
2.814999999999962,1.0,1.0,2.0,-2.0,-2.0,0.0,1.0,0.0,-0.27685546875,0.02520751953125,0.532958984375,0.79913330078125,-0.34228515625,-0.43359375,0.8623046875,0.5,-0.4375,0.5625
2.819999999999962,-2.0,-2.0,-2.0,4.0,1.0,-2.0,-1.0,1.0,-0.27691650390625,0.02520751953125,0.532958984375,0.79913330078125,-0.34375,-0.42626953125,0.85546875,0.8125,-0.8125,0.5
2.824999999999962,0.0,1.0,-1.0,3.0,0.0,-1.0,1.0,1.0,-0.27691650390625,0.02520751953125,0.532958984375,0.79913330078125,-0.34228515625,-0.4248046875,0.8564453125,0.375,-0.8125,0.625
2.829999999999962,-2.0,-2.0,-2.0,-14.0,-13.0,-3.0,-2.0,-2.0,-0.27691650390625,0.02520751953125,0.532958984375,0.79913330078125,-0.3447265625,-0.4228515625,0.86083984375,0.3125,-0.5625,0.5625
2.8349999999999618,-2.0,-1.0,0.0,4.0,12.0,-4.0,-1.0,-3.0,-0.27691650390625,0.02520751953125,0.532958984375,0.79913330078125,-0.3447265625,-0.4228515625,0.86083984375,0.3125,-0.5625,0.5625
2.8399999999999617,-1.0,1.0,1.0,3.0,8.0,2.0,-1.0,0.0,-0.27691650390625,0.02520751953125,0.532958984375,0.79913330078125,-0.34326171875,-0.42822265625,0.857421875,0.25,-0.3125,0.125
2.8449999999999616,-4.0,-2.0,-2.0,-6.0,-6.0,-1.0,-2.0,-2.0,-0.27691650390625,0.02520751953125,0.532958984375,0.79913330078125,-0.34326171875,-0.42822265625,0.857421875,0.25,-0.3125,0.125
2.8499999999999615,-3.0,0.0,-1.0,0.0,-4.0,-1.0,-1.0,0.0,-0.27691650390625,0.02520751953125,0.532958984375,0.79913330078125,-0.341796875,-0.42529296875,0.85986328125,0.375,-0.0625,-0.125
2.8549999999999613,-1.0,0.0,1.0,4.0,2.0,-1.0,-2.0,-1.0,-0.27691650390625,0.02520751953125,0.532958984375,0.79913330078125,-0.341796875,-0.42529296875,0.85986328125,0.375,-0.0625,-0.125
2.8599999999999612,-1.0,-2.0,1.0,3.0,-5.0,-1.0,-2.0,0.0,-0.27691650390625,0.02520751953125,0.532958984375,0.799072265625,-0.34765625,-0.423828125,0.8603515625,0.125,0.1875,-0.1875
2.864999999999961,-1.0,-2.0,1.0,3.0,-5.0,-1.0,-2.0,0.0,-0.27691650390625,0.02520751953125,0.532958984375,0.799072265625,-0.34765625,-0.423828125,0.8603515625,0.125,0.1875,-0.1875
2.869999999999961,0.0,0.0,0.0,-3.0,-4.0,0.0,-3.0,-2.0,-0.2769775390625,0.0252685546875,0.532958984375,0.799072265625,-0.34765625,-0.423828125,0.85888671875,-0.5625,0.25,-0.25
2.874999999999961,0.0,0.0,0.0,-3.0,-4.0,0.0,-3.0,-2.0,-0.2769775390625,0.0252685546875,0.532958984375,0.799072265625,-0.34765625,-0.423828125,0.85888671875,-0.5625,0.25,-0.25
2.879999999999961,0.0,-1.0,-3.0,0.0,-8.0,-3.0,1.0,-1.0,-0.2769775390625,0.0252685546875,0.532958984375,0.799072265625,-0.34423828125,-0.4267578125,0.85546875,-0.75,0.375,-0.3125
2.8849999999999607,-2.0,0.0,2.0,-7.0,0.0,0.0,-2.0,-2.0,-0.2769775390625,0.0252685546875,0.532958984375,0.799072265625,-0.3427734375,-0.42626953125,0.85400390625,-0.1875,0.4375,-0.3125
2.8899999999999606,1.0,-2.0,0.0,-4.0,-4.0,-3.0,-1.0,0.0,-0.2769775390625,0.0252685546875,0.532958984375,0.799072265625,-0.34619140625,-0.42822265625,0.85498046875,0.0625,0.4375,-0.5625
2.8949999999999605,1.0,-1.0,-3.0,-4.0,-3.0,1.0,-4.0,-2.0,-0.2769775390625,0.0252685546875,0.532958984375,0.799072265625,-0.34619140625,-0.42822265625,0.85498046875,0.0625,0.4375,-0.5625
2.8999999999999604,-2.0,-2.0,-3.0,-5.0,-3.0,0.0,-1.0,0.0,-0.27703857421875,0.0252685546875,0.532958984375,0.799072265625,-0.34423828125,-0.427734375,0.86083984375,0.0625,0.25,-0.4375
2.9049999999999603,1.0,-3.0,-1.0,3.0,-1.0,-2.0,1.0,-1.0,-0.27703857421875,0.0252685546875,0.532958984375,0.799072265625,-0.34423828125,-0.427734375,0.86083984375,0.0625,0.25,-0.4375
2.90999999999996,-1.0,-3.0,-1.0,10.0,9.0,0.0,0.0,-2.0,-0.27703857421875,0.0252685546875,0.532958984375,0.799072265625,-0.345703125,-0.4306640625,0.853515625,-0.1875,0.0,-0.1875
2.91499999999996,-1.0,-1.0,1.0,-2.0,-1.0,2.0,0.0,-2.0,-0.27703857421875,0.0252685546875,0.532958984375,0.799072265625,-0.345703125,-0.4306640625,0.853515625,-0.1875,0.0,-0.1875
2.91999999999996,-1.0,-2.0,-3.0,-7.0,-5.0,-2.0,-2.0,-1.0,-0.277099609375,0.0252685546875,0.532958984375,0.799072265625,-0.34912109375,-0.43115234375,0.8515625,-0.3125,0.0,-0.125
2.92499999999996,-3.0,-1.0,-1.0,-7.0,2.0,-2.0,-2.0,-1.0,-0.277099609375,0.0252685546875,0.532958984375,0.799072265625,-0.34912109375,-0.43115234375,0.8515625,-0.3125,0.0,-0.125
2.9299999999999597,0.0,-2.0,-3.0,-1.0,-1.0,0.0,-2.0,0.0,-0.277099609375,0.0252685546875,0.53289794921875,0.799072265625,-0.34619140625,-0.431640625,0.859375,0.125,0.0625,-0.1875
2.9349999999999596,-3.0,1.0,-1.0,3.0,-3.0,-2.0,-1.0,-1.0,-0.27716064453125,0.0252685546875,0.53289794921875,0.799072265625,-0.34814453125,-0.43017578125,0.85888671875,0.5,0.125,-0.0625
2.9399999999999595,-3.0,1.0,-1.0,3.0,-3.0,-2.0,-1.0,-1.0,-0.27716064453125,0.0252685546875,0.53289794921875,0.799072265625,-0.34814453125,-0.43017578125,0.85888671875,0.5,0.125,-0.0625
2.9449999999999594,0.0,4.0,0.0,9.0,6.0,0.0,0.0,-2.0,-0.27716064453125,0.0252685546875,0.53289794921875,0.799072265625,-0.34912109375,-0.4248046875,0.85546875,0.125,0.125,0.125
2.9499999999999593,-1.0,1.0,1.0,1.0,-3.0,2.0,0.0,-1.0,-0.27716064453125,0.0252685546875,0.53289794921875,0.79901123046875,-0.349609375,-0.4306640625,0.85400390625,-0.125,-0.125,0.25
2.954999999999959,-1.0,-2.0,2.0,16.0,4.0,-1.0,0.0,-1.0,-0.27716064453125,0.0252685546875,0.53289794921875,0.79901123046875,-0.349609375,-0.4306640625,0.85400390625,-0.125,-0.125,0.25
2.959999999999959,-1.0,-2.0,2.0,16.0,4.0,-1.0,0.0,-1.0,-0.27716064453125,0.0252685546875,0.53289794921875,0.79901123046875,-0.349609375,-0.4306640625,0.85400390625,-0.125,-0.125,0.25
2.964999999999959,-2.0,-2.0,-3.0,-7.0,-5.0,-2.0,-1.0,-1.0,-0.2772216796875,0.0252685546875,0.53289794921875,0.79901123046875,-0.3466796875,-0.4326171875,0.85205078125,0.125,-0.3125,0.125
2.969999999999959,0.0,-1.0,0.0,7.0,1.0,0.0,-2.0,-2.0,-0.2772216796875,0.0252685546875,0.53289794921875,0.79901123046875,-0.34326171875,-0.4287109375,0.8623046875,0.625,-0.3125,-0.1875
2.974999999999959,0.0,-1.0,-3.0,-1.0,-7.0,-2.0,0.0,0.0,-0.2772216796875,0.0252685546875,0.53289794921875,0.79901123046875,-0.34326171875,-0.42822265625,0.8544921875,0.8125,-0.375,-0.0625
2.9799999999999587,0.0,2.0,0.0,12.0,16.0,1.0,0.0,-2.0,-0.2772216796875,0.0252685546875,0.53289794921875,0.79901123046875,-0.34326171875,-0.42822265625,0.8544921875,0.8125,-0.375,-0.0625
2.9849999999999586,-1.0,3.0,-1.0,4.0,0.0,1.0,-1.0,-2.0,-0.27728271484375,0.0252685546875,0.53289794921875,0.79901123046875,-0.34228515625,-0.42626953125,0.85791015625,0.25,-0.4375,-0.0625
2.9899999999999585,-3.0,-10.0,-18.0,-10.0,-4.0,-3.0,-2.0,0.0,-0.27728271484375,0.0252685546875,0.53289794921875,0.79901123046875,-0.34375,-0.42578125,0.857421875,-0.5,-0.1875,0.125
2.9949999999999584,-3.0,-10.0,-18.0,-10.0,-4.0,-3.0,-2.0,0.0,-0.27728271484375,0.0252685546875,0.53289794921875,0.79901123046875,-0.34375,-0.42578125,0.857421875,-0.5,-0.1875,0.125
2.9999999999999583,0.0,-1.0,-6.0,8.0,4.0,0.0,-1.0,0.0,-0.27728271484375,0.0252685546875,0.53289794921875,0.79901123046875,-0.35009765625,-0.43359375,0.86279296875,-0.25,0.25,-0.0625
3.004999999999958,0.0,-1.0,-6.0,8.0,4.0,0.0,-1.0,0.0,-0.27728271484375,0.0252685546875,0.53289794921875,0.79901123046875,-0.35009765625,-0.43359375,0.86279296875,-0.25,0.25,-0.0625
3.009999999999958,-2.0,-5.0,-1.0,4.0,8.0,1.0,0.0,1.0,-0.27728271484375,0.0252685546875,0.53289794921875,0.79901123046875,-0.34033203125,-0.4296875,0.857421875,0.75,0.5625,-0.1875
3.014999999999958,1.0,3.0,9.0,8.0,8.0,0.0,-2.0,-2.0,-0.277099609375,0.025390625,0.53271484375,0.7991943359375,-0.33740234375,-0.43359375,0.86376953125,2.125,0.5625,-0.75
3.019999999999958,1.0,-3.0,10.0,0.0,-3.0,-3.0,-1.0,-1.0,-0.2767333984375,0.02569580078125,0.532470703125,0.7994384765625,-0.33837890625,-0.43359375,0.8583984375,3.8125,0.6875,-0.9375
3.0249999999999577,-1.0,4.0,-5.0,-2.0,-4.0,1.0,-1.0,0.0,-0.2767333984375,0.02569580078125,0.532470703125,0.7994384765625,-0.33837890625,-0.43359375,0.8583984375,3.8125,0.6875,-0.9375
3.0299999999999576,-2.0,1.0,-12.0,-7.0,-1.0,1.0,-2.0,-1.0,-0.2762451171875,0.0262451171875,0.5322265625,0.7998046875,-0.34228515625,-0.42431640625,0.86083984375,4.5625,1.1875,-1.25
3.0349999999999575,-2.0,1.0,-12.0,-7.0,-1.0,1.0,-2.0,-1.0,-0.2762451171875,0.0262451171875,0.5322265625,0.7998046875,-0.34228515625,-0.42431640625,0.86083984375,4.5625,1.1875,-1.25
3.0399999999999574,-3.0,-5.0,-22.0,-1.0,-3.0,0.0,0.0,0.0,-0.2757568359375,0.0267333984375,0.531982421875,0.80010986328125,-0.34619140625,-0.421875,0.8642578125,4.125,0.8125,-1.5
3.0449999999999573,-1.0,0.0,-3.0,-2.0,1.0,-2.0,1.0,-1.0,-0.2757568359375,0.0267333984375,0.531982421875,0.80010986328125,-0.34619140625,-0.421875,0.8642578125,4.125,0.8125,-1.5
3.049999999999957,1.0,12.0,-3.0,0.0,-9.0,-7.0,0.0,1.0,-0.27520751953125,0.0272216796875,0.53173828125,0.8004150390625,-0.35009765625,-0.427734375,0.86572265625,4.875,0.6875,-1.125
3.054999999999957,1.0,12.0,-3.0,0.0,-9.0,-7.0,0.0,1.0,-0.27520751953125,0.0272216796875,0.53173828125,0.8004150390625,-0.35009765625,-0.427734375,0.86572265625,4.875,0.6875,-1.125
3.059999999999957,-6.0,8.0,43.0,-9.0,-6.0,-4.0,-15.0,-1.0,-0.27410888671875,0.02789306640625,0.53155517578125,0.8009033203125,-0.34765625,-0.4130859375,0.8857421875,6.75,0.0625,-1.4375
3.064999999999957,-3.0,-11.0,-11.0,2.0,-4.0,2.0,-1.0,-5.0,-0.27191162109375,0.02880859375,0.53125,0.80181884765625,-0.35107421875,-0.44384765625,0.89599609375,15.625,-1.9375,-1.9375
3.0699999999999568,4.0,3.0,48.0,14.0,14.0,-2.0,-1.0,2.0,-0.27001953125,0.0301513671875,0.53076171875,0.802734375,-0.34619140625,-0.47265625,0.83154296875,19.0,-0.125,-1.4375
3.0749999999999567,0.0,20.0,-86.0,-2.0,-2.0,1.0,2.0,0.0,-0.27001953125,0.0301513671875,0.53076171875,0.802734375,-0.34619140625,-0.47265625,0.83154296875,19.0,-0.125,-1.4375
3.0799999999999566,-5.0,-34.0,-79.0,-8.0,-5.0,-6.0,-8.0,-4.0,-0.26776123046875,0.0322265625,0.530517578125,0.8035888671875,-0.3310546875,-0.3818359375,0.87646484375,16.4375,3.5,-0.0625
3.0849999999999564,-5.0,-34.0,-79.0,-8.0,-5.0,-6.0,-8.0,-4.0,-0.26702880859375,0.033447265625,0.53045654296875,0.8038330078125,-0.3525390625,-0.38818359375,0.84716796875,7.5,2.5,0.0625
3.0899999999999563,-2.0,-23.0,113.0,-5.0,-2.0,2.0,2.0,5.0,-0.26702880859375,0.033447265625,0.53045654296875,0.8038330078125,-0.3525390625,-0.38818359375,0.84716796875,7.5,2.5,0.0625
3.0949999999999562,-2.0,-23.0,113.0,-5.0,-2.0,2.0,2.0,5.0,-0.26702880859375,0.033447265625,0.53045654296875,0.8038330078125,-0.3525390625,-0.38818359375,0.84716796875,7.5,2.5,0.0625
3.099999999999956,2.0,6.0,9.0,-6.0,5.0,3.0,29.0,-27.0,-0.26727294921875,0.03411865234375,0.5301513671875,0.80389404296875,-0.345703125,-0.404296875,0.8583984375,1.375,3.9375,-0.625
3.104999999999956,2.0,6.0,9.0,-6.0,5.0,3.0,29.0,-27.0,-0.2666015625,0.03497314453125,0.5301513671875,0.8040771484375,-0.357421875,-0.38330078125,0.88232421875,4.625,1.25,0.25
3.109999999999956,13.0,25.0,25.0,23.0,19.0,1.0,12.0,16.0,-0.2666015625,0.03497314453125,0.5301513671875,0.8040771484375,-0.357421875,-0.38330078125,0.88232421875,4.625,1.25,0.25
3.114999999999956,-7.0,-3.0,34.0,-8.0,-2.0,-6.0,-5.0,-7.0,-0.2664794921875,0.03570556640625,0.53021240234375,0.8040771484375,-0.34716796875,-0.3935546875,0.86669921875,2.5625,2.625,1.4375
3.1199999999999557,-7.0,-3.0,34.0,-8.0,-2.0,-6.0,-5.0,-7.0,-0.2664794921875,0.03570556640625,0.53021240234375,0.8040771484375,-0.34716796875,-0.3935546875,0.86669921875,2.5625,2.625,1.4375
3.1249999999999556,0.0,-11.0,-11.0,-1.0,-2.0,-2.0,1.0,5.0,-0.266357421875,0.03668212890625,0.5303955078125,0.803955078125,-0.345703125,-0.38427734375,0.8935546875,2.125,4.6875,2.1875
3.1299999999999555,-3.0,4.0,-10.0,2.0,-2.0,-3.0,-11.0,-1.0,-0.26708984375,0.0374755859375,0.52996826171875,0.803955078125,-0.35009765625,-0.3857421875,0.869140625,-1.75,6.125,-1.0625
3.1349999999999554,-1.0,-2.0,35.0,4.0,1.0,0.0,-9.0,-1.0,-0.26708984375,0.0374755859375,0.52996826171875,0.803955078125,-0.35009765625,-0.3857421875,0.869140625,-1.75,6.125,-1.0625
3.1399999999999553,-1.0,-2.0,35.0,4.0,1.0,0.0,-9.0,-1.0,-0.26708984375,0.0374755859375,0.52996826171875,0.803955078125,-0.35009765625,-0.3857421875,0.869140625,-1.75,6.125,-1.0625
3.144999999999955,1.0,-9.0,-32.0,6.0,6.0,1.0,5.0,1.0,-0.268310546875,0.03778076171875,0.52960205078125,0.80377197265625,-0.3583984375,-0.41796875,0.83740234375,-2.875,4.8125,-0.5625
3.149999999999955,-10.0,-21.0,-10.0,-16.0,-13.0,-5.0,-6.0,-2.0,-0.268310546875,0.03778076171875,0.52960205078125,0.80377197265625,-0.3583984375,-0.41796875,0.83740234375,-2.875,4.8125,-0.5625
3.154999999999955,1.0,-7.0,-7.0,5.0,7.0,1.0,-2.0,1.0,-0.2691650390625,0.03790283203125,0.5299072265625,0.80328369140625,-0.36865234375,-0.4208984375,0.833984375,-2.25,0.875,2.75
3.159999999999955,-2.0,8.0,8.0,-3.0,-3.0,-1.0,-1.0,0.0,-0.2691650390625,0.03790283203125,0.5299072265625,0.80328369140625,-0.36865234375,-0.4208984375,0.833984375,-2.25,0.875,2.75
3.1649999999999547,-2.0,8.0,8.0,-3.0,-3.0,-1.0,-1.0,0.0,-0.26983642578125,0.03753662109375,0.53021240234375,0.8028564453125,-0.353515625,-0.4052734375,0.84375,-4.125,-0.6875,2.1875
3.1699999999999546,4.0,-5.0,-47.0,7.0,5.0,1.0,0.0,2.0,-0.26983642578125,0.03753662109375,0.53021240234375,0.8028564453125,-0.353515625,-0.4052734375,0.84375,-4.125,-0.6875,2.1875
3.1749999999999545,4.0,-5.0,-47.0,7.0,5.0,1.0,0.0,2.0,-0.26983642578125,0.03753662109375,0.53021240234375,0.8028564453125,-0.353515625,-0.4052734375,0.84375,-4.125,-0.6875,2.1875
3.1799999999999544,-1.0,4.0,34.0,-2.0,1.0,1.0,-3.0,3.0,-0.2705078125,0.03692626953125,0.53045654296875,0.802490234375,-0.3564453125,-0.39404296875,0.86181640625,-5.8125,-1.25,0.625
3.1849999999999543,-1.0,4.0,34.0,-2.0,1.0,1.0,-3.0,3.0,-0.27044677734375,0.0367431640625,0.53057861328125,0.80242919921875,-0.369140625,-0.4072265625,0.88916015625,-0.875,-1.9375,0.1875
3.189999999999954,10.0,19.0,-31.0,13.0,4.0,1.0,-3.0,1.0,-0.2703857421875,0.03662109375,0.53057861328125,0.802490234375,-0.3720703125,-0.47607421875,0.8486328125,5.0,-2.1875,0.6875
3.194999999999954,-2.0,8.0,19.0,-3.0,-4.0,-3.0,-2.0,1.0,-0.2703857421875,0.03662109375,0.53057861328125,0.802490234375,-0.3720703125,-0.47607421875,0.8486328125,5.0,-2.1875,0.6875
3.199999999999954,-9.0,7.0,112.0,-9.0,-8.0,-4.0,-1.0,6.0,-0.2698974609375,0.0367431640625,0.53094482421875,0.80242919921875,-0.35546875,-0.4345703125,0.82958984375,5.375,-2.8125,3.0625
3.204999999999954,-2.0,10.0,23.0,-1.0,-4.0,-15.0,-11.0,-5.0,-0.26885986328125,0.03692626953125,0.53167724609375,0.80224609375,-0.35009765625,-0.38671875,0.8623046875,4.1875,-3.5625,3.75
3.209999999999954,7.0,17.0,7.0,11.0,6.0,2.0,1.0,0.0,-0.26885986328125,0.03692626953125,0.53167724609375,0.80224609375,-0.35009765625,-0.38671875,0.8623046875,4.1875,-3.5625,3.75
3.2149999999999537,-3.0,-20.0,21.0,0.0,-1.0,10.0,6.0,3.0,-0.26885986328125,0.03692626953125,0.53167724609375,0.80224609375,-0.35009765625,-0.38671875,0.8623046875,4.1875,-3.5625,3.75
3.2199999999999536,-14.0,7.0,-25.0,-7.0,-3.0,-8.0,-2.0,-37.0,-0.26812744140625,0.037109375,0.5322265625,0.8021240234375,-0.3515625,-0.38525390625,0.875,2.4375,-2.0,3.0625
3.2249999999999535,-4.0,-29.0,-22.0,-2.0,-4.0,-1.0,4.0,0.0,-0.26812744140625,0.037109375,0.5322265625,0.8021240234375,-0.3515625,-0.38525390625,0.875,2.4375,-2.0,3.0625
3.2299999999999534,-4.0,10.0,6.0,0.0,0.0,0.0,3.0,-5.0,-0.2674560546875,0.03741455078125,0.531982421875,0.802490234375,-0.337890625,-0.38671875,0.87451171875,3.8125,0.625,-1.375
3.2349999999999532,-4.0,10.0,6.0,0.0,0.0,0.0,3.0,-5.0,-0.26739501953125,0.037841796875,0.5318603515625,0.8026123046875,-0.34326171875,-0.37353515625,0.880859375,0.1875,2.75,-0.6875
3.239999999999953,4.0,8.0,-5.0,7.0,3.0,3.0,-1.0,1.0,-0.26739501953125,0.037841796875,0.5318603515625,0.8026123046875,-0.34326171875,-0.37353515625,0.880859375,0.1875,2.75,-0.6875
3.244999999999953,-1.0,3.0,-1.0,-5.0,-4.0,-11.0,-16.0,3.0,-0.26739501953125,0.037841796875,0.5318603515625,0.8026123046875,-0.34326171875,-0.37353515625,0.880859375,0.1875,2.75,-0.6875
3.249999999999953,-1.0,3.0,-1.0,-5.0,-4.0,-11.0,-16.0,3.0,-0.26837158203125,0.0374755859375,0.531982421875,0.80218505859375,-0.3623046875,-0.38232421875,0.861328125,-7.0625,0.5,0.375
3.254999999999953,1.0,-2.0,-4.0,4.0,2.0,3.0,-2.0,1.0,-0.26837158203125,0.0374755859375,0.531982421875,0.80218505859375,-0.3623046875,-0.38232421875,0.861328125,-7.0625,0.5,0.375
3.2599999999999527,-3.0,-36.0,-36.0,-4.0,-1.0,3.0,-3.0,1.0,-0.2689208984375,0.03704833984375,0.53173828125,0.80218505859375,-0.3427734375,-0.39990234375,0.87646484375,-3.9375,0.5625,-1.8125
3.2649999999999526,2.0,8.0,-19.0,-3.0,-6.0,-5.0,4.0,-3.0,-0.2689208984375,0.03704833984375,0.53173828125,0.80218505859375,-0.3427734375,-0.39990234375,0.87646484375,-3.9375,0.5625,-1.8125
3.2699999999999525,2.0,8.0,-19.0,-3.0,-6.0,-5.0,4.0,-3.0,-0.26910400390625,0.037109375,0.53106689453125,0.80255126953125,-0.35205078125,-0.4091796875,0.876953125,0.25,2.25,-3.5625
3.2749999999999524,1.0,3.0,-26.0,6.0,4.0,2.0,-1.0,9.0,-0.26910400390625,0.037109375,0.53106689453125,0.80255126953125,-0.35205078125,-0.4091796875,0.876953125,0.25,2.25,-3.5625
3.2799999999999523,-4.0,-3.0,-12.0,-3.0,-3.0,-4.0,-6.0,-9.0,-0.26910400390625,0.037109375,0.53106689453125,0.80255126953125,-0.35205078125,-0.4091796875,0.876953125,0.25,2.25,-3.5625
3.284999999999952,-4.0,-3.0,-12.0,-3.0,-3.0,-4.0,-6.0,-9.0,-0.268798828125,0.03753662109375,0.53070068359375,0.8028564453125,-0.3603515625,-0.390625,0.861328125,3.0,0.75,-2.625
3.289999999999952,-4.0,-3.0,-12.0,-3.0,-3.0,-4.0,-6.0,-9.0,-0.268798828125,0.03753662109375,0.53070068359375,0.8028564453125,-0.3603515625,-0.390625,0.861328125,3.0,0.75,-2.625
3.294999999999952,-10.0,5.0,-11.0,-17.0,-14.0,0.0,-6.0,-8.0,-0.268798828125,0.03753662109375,0.53070068359375,0.8028564453125,-0.3603515625,-0.390625,0.861328125,3.0,0.75,-2.625
3.299999999999952,0.0,12.0,7.0,-4.0,-4.0,-2.0,0.0,7.0,-0.26885986328125,0.03753662109375,0.5303955078125,0.8031005859375,-0.34814453125,-0.375,0.86181640625,-1.125,0.4375,-2.8125
