0.005,-4.0,-7.0,-72.0,-33.0,-1.0,-1.0,-1.0,-2.0,-0.18499755859375,0.3643798828125,0.3394775390625,0.84716796875,-0.7587890625,-0.068359375,0.68017578125,-0.625,0.5625,-0.3125
0.01,1.0,3.0,26.0,20.0,0.0,-1.0,-2.0,-2.0,-0.1849365234375,0.3643798828125,0.3394775390625,0.84716796875,-0.763671875,-0.06201171875,0.681640625,0.625,0.375,-0.3125
0.015,1.0,3.0,26.0,20.0,0.0,-1.0,-2.0,-2.0,-0.1849365234375,0.3643798828125,0.3394775390625,0.84716796875,-0.767578125,-0.06201171875,0.673828125,-0.375,-0.375,-0.5
0.02,0.0,1.0,10.0,1.0,0.0,-1.0,0.0,0.0,-0.1849365234375,0.3643798828125,0.3394775390625,0.84716796875,-0.767578125,-0.06201171875,0.673828125,-0.375,-0.375,-0.5
0.025,0.0,-1.0,-25.0,-12.0,-2.0,-2.0,0.0,-1.0,-0.1849365234375,0.36444091796875,0.3394775390625,0.84716796875,-0.763671875,-0.06396484375,0.6767578125,0.9375,-0.375,0.0
0.030000000000000002,-2.0,-1.0,5.0,-5.0,-1.0,0.0,1.0,-1.0,-0.1849365234375,0.36444091796875,0.3394775390625,0.84716796875,-0.763671875,-0.06396484375,0.6767578125,0.9375,-0.375,0.0
0.035,-1.0,-2.0,13.0,-3.0,0.0,0.0,-1.0,-2.0,-0.1849365234375,0.36444091796875,0.3394775390625,0.84716796875,-0.76171875,-0.0673828125,0.67626953125,0.4375,-0.75,0.1875
0.04,-1.0,-1.0,2.0,-2.0,-2.0,-2.0,-1.0,-2.0,-0.18475341796875,0.3643798828125,0.33953857421875,0.84722900390625,-0.76318359375,-0.06640625,0.6806640625,0.75,-1.0625,0.1875
0.045,-1.0,-2.0,2.0,3.0,-1.0,0.0,-2.0,-3.0,-0.18475341796875,0.3643798828125,0.33953857421875,0.84722900390625,-0.76318359375,-0.06640625,0.6806640625,0.75,-1.0625,0.1875
0.049999999999999996,-1.0,-1.0,-2.0,-2.0,-3.0,-2.0,-1.0,-1.0,-0.1844482421875,0.36431884765625,0.339599609375,0.8472900390625,-0.75927734375,-0.06884765625,0.68115234375,1.5,-1.25,1.0625
0.05499999999999999,0.0,-1.0,4.0,6.0,0.0,1.0,-1.0,1.0,-0.1844482421875,0.36431884765625,0.339599609375,0.8472900390625,-0.75927734375,-0.06884765625,0.68115234375,1.5,-1.25,1.0625
0.05999999999999999,0.0,-1.0,4.0,6.0,0.0,1.0,-1.0,1.0,-0.1839599609375,0.3642578125,0.3394775390625,0.847412109375,-0.75390625,-0.06884765625,0.681640625,2.6875,-1.0,0.3125
0.06499999999999999,0.0,0.0,4.0,9.0,-1.0,-1.0,-2.0,-1.0,-0.1839599609375,0.3642578125,0.3394775390625,0.847412109375,-0.75390625,-0.06884765625,0.681640625,2.6875,-1.0,0.3125
0.06999999999999999,0.0,-1.0,6.0,9.0,2.0,-2.0,-2.0,-1.0,-0.18341064453125,0.36431884765625,0.33966064453125,0.84747314453125,-0.7568359375,-0.0693359375,0.681640625,2.5,-1.25,2.0
0.075,-1.0,1.0,-1.0,3.0,-1.0,-1.0,1.0,-1.0,-0.18341064453125,0.36431884765625,0.33966064453125,0.84747314453125,-0.7568359375,-0.0693359375,0.681640625,2.5,-1.25,2.0
0.08,-1.0,-4.0,1.0,0.0,-3.0,-1.0,-1.0,-1.0,-0.1829833984375,0.36419677734375,0.34002685546875,0.847412109375,-0.755859375,-0.0771484375,0.68310546875,1.625,-1.3125,3.25
0.085,-1.0,-1.0,6.0,3.0,0.0,-1.0,-2.0,-2.0,-0.1829833984375,0.36419677734375,0.34002685546875,0.847412109375,-0.755859375,-0.0771484375,0.68310546875,1.625,-1.3125,3.25
0.09000000000000001,-2.0,0.0,-5.0,-4.0,-2.0,0.0,-2.0,-1.0,-0.1822509765625,0.36456298828125,0.34051513671875,0.8472900390625,-0.767578125,-0.0439453125,0.68212890625,2.3125,-0.5,3.625
0.09500000000000001,-2.0,0.0,-5.0,-4.0,-2.0,0.0,-2.0,-1.0,-0.1822509765625,0.36456298828125,0.34051513671875,0.8472900390625,-0.767578125,-0.0439453125,0.68212890625,2.3125,-0.5,3.625
0.10000000000000002,-1.0,0.0,-3.0,-1.0,0.0,-1.0,-1.0,-1.0,-0.181884765625,0.3646240234375,0.341064453125,0.84710693359375,-0.75634765625,-0.0498046875,0.68017578125,-0.1875,-0.625,3.25
0.10500000000000002,-1.0,0.0,-3.0,-1.0,0.0,-1.0,-1.0,-1.0,-0.181884765625,0.3646240234375,0.341064453125,0.84710693359375,-0.75634765625,-0.0498046875,0.68017578125,-0.1875,-0.625,3.25
0.11000000000000003,-2.0,-2.0,4.0,0.0,-2.0,-2.0,-3.0,-2.0,-0.18145751953125,0.36468505859375,0.34161376953125,0.846923828125,-0.76220703125,-0.05615234375,0.677734375,0.8125,-1.25,3.5625
0.11500000000000003,-1.0,1.0,1.0,-3.0,0.0,-3.0,-1.0,-1.0,-0.18072509765625,0.36474609375,0.34185791015625,0.84698486328125,-0.7578125,-0.04345703125,0.68408203125,2.375,-1.625,2.0625
0.12000000000000004,-1.0,-1.0,5.0,6.0,0.0,1.0,-1.0,0.0,-0.18072509765625,0.36474609375,0.34185791015625,0.84698486328125,-0.7578125,-0.04345703125,0.68408203125,2.375,-1.625,2.0625
0.12500000000000003,1.0,1.0,-7.0,-1.0,-1.0,0.0,-1.0,-1.0,-0.18023681640625,0.364501953125,0.34222412109375,0.8470458984375,-0.7548828125,-0.033203125,0.6826171875,0.0625,-2.3125,0.9375
0.13000000000000003,-2.0,-2.0,2.0,-2.0,1.0,1.0,-2.0,0.0,-0.18023681640625,0.364013671875,0.342529296875,0.84710693359375,-0.74365234375,-0.04931640625,0.685546875,-1.9375,-2.3125,0.6875
0.13500000000000004,-1.0,2.0,-2.0,4.0,1.0,-1.0,-1.0,-1.0,-0.18023681640625,0.364013671875,0.342529296875,0.84710693359375,-0.74365234375,-0.04931640625,0.685546875,-1.9375,-2.3125,0.6875
0.14000000000000004,0.0,-2.0,-6.0,-5.0,-2.0,-3.0,1.0,-1.0,-0.18017578125,0.364013671875,0.34259033203125,0.84710693359375,-0.751953125,-0.04931640625,0.6904296875,-0.9375,-1.0,-0.0625
0.14500000000000005,0.0,-2.0,4.0,0.0,0.0,0.0,-1.0,-1.0,-0.18017578125,0.364013671875,0.34259033203125,0.84710693359375,-0.751953125,-0.04931640625,0.6904296875,-0.9375,-1.0,-0.0625
0.15000000000000005,0.0,-2.0,4.0,0.0,0.0,0.0,-1.0,-1.0,-0.18017578125,0.364013671875,0.34259033203125,0.84710693359375,-0.75439453125,-0.046875,0.685546875,-0.75,0.6875,-0.4375
0.15500000000000005,-2.0,1.0,-4.0,-3.0,-1.0,-1.0,-1.0,-2.0,-0.18017578125,0.364013671875,0.34259033203125,0.84710693359375,-0.75439453125,-0.046875,0.685546875,-0.75,0.6875,-0.4375
0.16000000000000006,-2.0,1.0,-4.0,-3.0,-1.0,-1.0,-1.0,-2.0,-0.1805419921875,0.36419677734375,0.342529296875,0.84698486328125,-0.76611328125,-0.056640625,0.68603515625,-1.4375,1.375,-0.8125
0.16500000000000006,0.0,-2.0,1.0,-9.0,0.0,0.0,-1.0,-2.0,-0.1805419921875,0.36419677734375,0.342529296875,0.84698486328125,-0.76611328125,-0.056640625,0.68603515625,-1.4375,1.375,-0.8125
0.17000000000000007,-2.0,0.0,-3.0,-2.0,0.0,0.0,-1.0,-1.0,-0.18096923828125,0.3642578125,0.34234619140625,0.846923828125,-0.7578125,-0.06640625,0.68603515625,-1.3125,1.625,-1.125
0.17500000000000007,-2.0,0.0,-3.0,-2.0,0.0,0.0,-1.0,-1.0,-0.18096923828125,0.3642578125,0.34234619140625,0.846923828125,-0.7578125,-0.06640625,0.68603515625,-1.3125,1.625,-1.125
0.18000000000000008,-1.0,-3.0,-3.0,-7.0,-3.0,-1.0,-2.0,-2.0,-0.18121337890625,0.3643798828125,0.34210205078125,0.846923828125,-0.75537109375,-0.06005859375,0.68505859375,-0.375,1.5,-1.625
0.18500000000000008,0.0,0.0,7.0,5.0,-1.0,0.0,-1.0,0.0,-0.18133544921875,0.36444091796875,0.34185791015625,0.84698486328125,-0.75439453125,-0.0615234375,0.68017578125,-0.25,0.5625,-1.1875
0.19000000000000009,-1.0,-1.0,10.0,3.0,0.0,0.0,0.0,-2.0,-0.18133544921875,0.36444091796875,0.34185791015625,0.84698486328125,-0.75439453125,-0.0615234375,0.68017578125,-0.25,0.5625,-1.1875
0.1950000000000001,1.0,0.0,0.0,-1.0,0.0,1.0,0.0,0.0,-0.18157958984375,0.3642578125,0.341796875,0.84698486328125,-0.75390625,-0.06005859375,0.6865234375,-1.1875,0.0,-1.125
0.2000000000000001,-2.0,-1.0,-4.0,-6.0,-2.0,-2.0,0.0,-1.0,-0.18157958984375,0.3642578125,0.341796875,0.84698486328125,-0.75390625,-0.06005859375,0.6865234375,-1.1875,0.0,-1.125
0.2050000000000001,-2.0,-1.0,-4.0,-6.0,-2.0,-2.0,0.0,-1.0,-0.18157958984375,0.3642578125,0.341796875,0.84698486328125,-0.75390625,-0.06005859375,0.6865234375,-1.1875,0.0,-1.125
0.2100000000000001,-1.0,-3.0,-1.0,-6.0,-2.0,-1.0,-2.0,-1.0,-0.18182373046875,0.36431884765625,0.341796875,0.846923828125,-0.75732421875,-0.05810546875,0.6748046875,-1.375,0.5625,-0.5625
0.2150000000000001,-1.0,-1.0,-5.0,-9.0,-3.0,-2.0,-1.0,-2.0,-0.18206787109375,0.364501953125,0.341796875,0.8468017578125,-0.76611328125,-0.06103515625,0.67919921875,-0.9375,1.25,0.0
0.2200000000000001,-1.0,-1.0,-5.0,-9.0,-3.0,-2.0,-1.0,-2.0,-0.18206787109375,0.364501953125,0.341796875,0.8468017578125,-0.76611328125,-0.06103515625,0.67919921875,-0.9375,1.25,0.0
0.22500000000000012,-2.0,-3.0,-1.0,2.0,-1.0,-1.0,-2.0,-1.0,-0.18206787109375,0.364501953125,0.341796875,0.8468017578125,-0.76611328125,-0.06103515625,0.67919921875,-0.9375,1.25,0.0
0.23000000000000012,-2.0,-3.0,-1.0,2.0,-1.0,-1.0,-2.0,-1.0,-0.1822509765625,0.36474609375,0.34185791015625,0.84661865234375,-0.76708984375,-0.0595703125,0.67724609375,-0.75,1.1875,0.125
0.23500000000000013,0.0,1.0,-9.0,-4.0,-2.0,1.0,-1.0,-1.0,-0.1822509765625,0.36474609375,0.34185791015625,0.84661865234375,-0.7578125,-0.0625,0.68359375,0.0,0.75,0.0
0.24000000000000013,-4.0,-5.0,-13.0,-1.0,-2.0,-2.0,-2.0,-3.0,-0.1822509765625,0.36474609375,0.34185791015625,0.84661865234375,-0.7578125,-0.0625,0.68359375,0.0,0.75,0.0
0.24500000000000013,2.0,1.0,-1.0,-3.0,1.0,0.0,-2.0,0.0,-0.1822509765625,0.36474609375,0.34185791015625,0.84661865234375,-0.75830078125,-0.05712890625,0.685546875,0.5625,0.25,0.0
0.2500000000000001,0.0,-1.0,0.0,2.0,-4.0,0.0,-3.0,-1.0,-0.1822509765625,0.36474609375,0.34185791015625,0.84661865234375,-0.75830078125,-0.05712890625,0.685546875,0.5625,0.25,0.0
0.2550000000000001,0.0,-1.0,0.0,2.0,-4.0,0.0,-3.0,-1.0,-0.1822509765625,0.36474609375,0.34185791015625,0.84661865234375,-0.759765625,-0.0556640625,0.685546875,-0.1875,-0.1875,-0.0625
0.2600000000000001,0.0,0.0,-1.0,0.0,-1.0,0.0,-1.0,0.0,-0.1822509765625,0.36474609375,0.34185791015625,0.84661865234375,-0.759765625,-0.0556640625,0.685546875,-0.1875,-0.1875,-0.0625
0.2650000000000001,0.0,0.0,-6.0,-5.0,-1.0,-2.0,0.0,1.0,-0.182373046875,0.36468505859375,0.3419189453125,0.84661865234375,-0.76416015625,-0.056640625,0.67919921875,-1.1875,-0.5625,-0.125
0.27000000000000013,-1.0,1.0,7.0,4.0,0.0,0.0,1.0,-1.0,-0.182373046875,0.36468505859375,0.3419189453125,0.84661865234375,-0.76416015625,-0.056640625,0.67919921875,-1.1875,-0.5625,-0.125
0.27500000000000013,-1.0,1.0,7.0,4.0,0.0,0.0,1.0,-1.0,-0.1824951171875,0.364501953125,0.34197998046875,0.84661865234375,-0.759765625,-0.05810546875,0.68310546875,-1.25,-0.9375,-0.3125
0.28000000000000014,1.0,0.0,5.0,3.0,-1.0,-1.0,-2.0,-2.0,-0.1824951171875,0.364501953125,0.34197998046875,0.84661865234375,-0.759765625,-0.05810546875,0.68310546875,-1.25,-0.9375,-0.3125
0.28500000000000014,0.0,1.0,0.0,-10.0,-1.0,-2.0,1.0,1.0,-0.1824951171875,0.364501953125,0.34197998046875,0.84661865234375,-0.759765625,-0.05810546875,0.68310546875,-1.25,-0.9375,-0.3125
0.29000000000000015,-2.0,-2.0,2.0,-1.0,-1.0,-2.0,0.0,0.0,-0.18243408203125,0.36431884765625,0.34197998046875,0.84674072265625,-0.7578125,-0.06201171875,0.681640625,0.1875,-1.0625,-0.1875
0.29500000000000015,1.0,-2.0,6.0,-1.0,-1.0,-2.0,-2.0,-1.0,-0.18243408203125,0.36431884765625,0.34197998046875,0.84674072265625,-0.7578125,-0.06201171875,0.681640625,0.1875,-1.0625,-0.1875
0.30000000000000016,-2.0,-3.0,0.0,-1.0,-3.0,-2.0,0.0,-1.0,-0.1822509765625,0.3641357421875,0.3419189453125,0.84686279296875,-0.75390625,-0.0615234375,0.6884765625,0.75,-1.125,-0.3125
0.30500000000000016,-1.0,0.0,1.0,-1.0,-1.0,-2.0,-2.0,-2.0,-0.1822509765625,0.3641357421875,0.3419189453125,0.84686279296875,-0.75390625,-0.0615234375,0.6884765625,0.75,-1.125,-0.3125
0.31000000000000016,-1.0,0.0,1.0,-1.0,-1.0,-2.0,-2.0,-2.0,-0.18212890625,0.36395263671875,0.34197998046875,0.846923828125,-0.75634765625,-0.06298828125,0.68212890625,0.3125,-1.25,0.125
0.31500000000000017,-2.0,-1.0,4.0,4.0,1.0,1.0,-2.0,-2.0,-0.18212890625,0.36395263671875,0.34197998046875,0.846923828125,-0.75634765625,-0.06298828125,0.68212890625,0.3125,-1.25,0.125
0.3200000000000002,-1.0,-3.0,-6.0,-8.0,-1.0,0.0,-1.0,1.0,-0.18212890625,0.36395263671875,0.34197998046875,0.846923828125,-0.75634765625,-0.06298828125,0.68212890625,0.3125,-1.25,0.125
0.3250000000000002,-2.0,0.0,2.0,2.0,0.0,-1.0,-3.0,0.0,-0.1820068359375,0.36376953125,0.34210205078125,0.84698486328125,-0.75732421875,-0.06005859375,0.68408203125,-0.3125,-1.25,0.5625
0.3300000000000002,-2.0,0.0,2.0,2.0,0.0,-1.0,-3.0,0.0,-0.1820068359375,0.36376953125,0.34210205078125,0.84698486328125,-0.75732421875,-0.06005859375,0.68408203125,-0.3125,-1.25,0.5625
0.3350000000000002,0.0,-1.0,-1.0,5.0,-3.0,-1.0,-2.0,-1.0,-0.1820068359375,0.36383056640625,0.34210205078125,0.84698486328125,-0.759765625,-0.06005859375,0.68310546875,-0.375,-0.9375,0.75
0.3400000000000002,0.0,-1.0,-1.0,5.0,-3.0,-1.0,-2.0,-1.0,-0.1820068359375,0.36383056640625,0.34210205078125,0.84698486328125,-0.75732421875,-0.05615234375,0.6796875,0.25,-0.625,0.625
0.3450000000000002,-1.0,0.0,1.0,0.0,-1.0,-1.0,0.0,-3.0,-0.1820068359375,0.36383056640625,0.34210205078125,0.84698486328125,-0.75732421875,-0.05615234375,0.6796875,0.25,-0.625,0.625
0.3500000000000002,-3.0,-2.0,-3.0,-6.0,-1.0,-1.0,0.0,-1.0,-0.1820068359375,0.36376953125,0.3421630859375,0.84698486328125,-0.75146484375,-0.0546875,0.68994140625,0.75,-0.4375,0.75
0.3550000000000002,-3.0,-2.0,-3.0,-6.0,-1.0,-1.0,0.0,-1.0,-0.1820068359375,0.36376953125,0.3421630859375,0.84698486328125,-0.75146484375,-0.0546875,0.68994140625,0.75,-0.4375,0.75
0.3600000000000002,0.0,0.0,1.0,2.0,2.0,0.0,1.0,-1.0,-0.18194580078125,0.36376953125,0.3421630859375,0.84698486328125,-0.7529296875,-0.0498046875,0.68798828125,0.5625,-0.125,0.75
0.3650000000000002,0.0,0.0,-1.0,-3.0,-3.0,-1.0,-1.0,0.0,-0.18194580078125,0.36376953125,0.3421630859375,0.84698486328125,-0.7529296875,-0.0498046875,0.68798828125,0.5625,-0.125,0.75
0.3700000000000002,-3.0,0.0,1.0,5.0,-1.0,-1.0,-1.0,-2.0,-0.18194580078125,0.36383056640625,0.3421630859375,0.84698486328125,-0.76220703125,-0.0498046875,0.6826171875,-0.6875,0.0625,0.5625
0.3750000000000002,-1.0,0.0,-13.0,-7.0,0.0,-2.0,0.0,0.0,-0.18194580078125,0.36383056640625,0.3421630859375,0.84698486328125,-0.76220703125,-0.0498046875,0.6826171875,-0.6875,0.0625,0.5625
0.3800000000000002,-2.0,-1.0,5.0,8.0,-2.0,-2.0,-2.0,-2.0,-0.18194580078125,0.36370849609375,0.34234619140625,0.84698486328125,-0.74853515625,-0.0517578125,0.68505859375,-1.1875,-0.125,0.0625
0.38500000000000023,-1.0,-2.0,0.0,2.0,0.0,-2.0,-1.0,-1.0,-0.18194580078125,0.36370849609375,0.34234619140625,0.84698486328125,-0.75830078125,-0.05712890625,0.68603515625,-0.75,-0.0625,-0.4375
0.39000000000000024,-1.0,-2.0,-5.0,-6.0,-3.0,0.0,1.0,-2.0,-0.18194580078125,0.36370849609375,0.34234619140625,0.84698486328125,-0.75830078125,-0.05712890625,0.68603515625,-0.75,-0.0625,-0.4375
0.39500000000000024,-1.0,-2.0,-5.0,-6.0,-3.0,0.0,1.0,-2.0,-0.18194580078125,0.36370849609375,0.34234619140625,0.84698486328125,-0.75,-0.05712890625,0.6796875,-0.1875,-0.375,-0.8125
0.40000000000000024,-2.0,-2.0,3.0,2.0,-2.0,-1.0,-1.0,-3.0,-0.18194580078125,0.36370849609375,0.34234619140625,0.84698486328125,-0.75,-0.05712890625,0.6796875,-0.1875,-0.375,-0.8125
0.40500000000000025,0.0,-3.0,7.0,1.0,-1.0,1.0,-2.0,-1.0,-0.18194580078125,0.36370849609375,0.34234619140625,0.84698486328125,-0.75830078125,-0.0546875,0.68017578125,-0.25,-0.375,-0.6875
0.41000000000000025,0.0,-3.0,7.0,1.0,-1.0,1.0,-2.0,-1.0,-0.18194580078125,0.36370849609375,0.34234619140625,0.84698486328125,-0.75830078125,-0.0546875,0.68017578125,-0.25,-0.375,-0.6875
0.41500000000000026,0.0,2.0,-3.0,-6.0,-3.0,0.0,-1.0,-2.0,-0.18206787109375,0.3636474609375,0.34234619140625,0.84698486328125,-0.75390625,-0.05859375,0.68115234375,-1.0625,-0.1875,-0.625
0.42000000000000026,-2.0,0.0,-2.0,-3.0,-1.0,-1.0,-1.0,-3.0,-0.18206787109375,0.3636474609375,0.34234619140625,0.84698486328125,-0.75390625,-0.05859375,0.68115234375,-1.0625,-0.1875,-0.625
0.42500000000000027,-2.0,0.0,-2.0,-3.0,-1.0,-1.0,-1.0,-3.0,-0.18212890625,0.36358642578125,0.34228515625,0.84698486328125,-0.75830078125,-0.07177734375,0.68701171875,-0.9375,0.0,-0.1875
0.43000000000000027,-1.0,-1.0,-5.0,-4.0,1.0,-1.0,-2.0,-2.0,-0.18212890625,0.36358642578125,0.34228515625,0.84698486328125,-0.75830078125,-0.07177734375,0.68701171875,-0.9375,0.0,-0.1875
0.4350000000000003,-1.0,-1.0,-5.0,-4.0,1.0,-1.0,-2.0,-2.0,-0.18212890625,0.36358642578125,0.34228515625,0.84698486328125,-0.7548828125,-0.06787109375,0.68505859375,0.0625,0.1875,-0.1875
0.4400000000000003,-1.0,0.0,-9.0,-6.0,-2.0,0.0,-2.0,0.0,-0.18212890625,0.36358642578125,0.34228515625,0.84698486328125,-0.7548828125,-0.06787109375,0.68505859375,0.0625,0.1875,-0.1875
0.4450000000000003,-1.0,0.0,-9.0,-6.0,-2.0,0.0,-2.0,0.0,-0.18212890625,0.36358642578125,0.34228515625,0.84698486328125,-0.7548828125,-0.06787109375,0.68505859375,0.0625,0.1875,-0.1875
0.4500000000000003,0.0,0.0,3.0,-1.0,0.0,-1.0,-2.0,-1.0,-0.18212890625,0.36358642578125,0.34228515625,0.84698486328125,-0.76025390625,-0.06005859375,0.68017578125,0.75,0.3125,0.3125
0.4550000000000003,-1.0,-3.0,-9.0,1.0,0.0,-2.0,-1.0,-1.0,-0.18212890625,0.36358642578125,0.34228515625,0.84698486328125,-0.76025390625,-0.06005859375,0.68017578125,0.75,0.3125,0.3125
0.4600000000000003,-1.0,-3.0,-3.0,-2.0,-1.0,-1.0,-2.0,-1.0,-0.18212890625,0.3636474609375,0.34228515625,0.84698486328125,-0.765625,-0.05126953125,0.68212890625,-0.125,0.125,0.75
0.4650000000000003,-2.0,-1.0,-1.0,-5.0,-1.0,0.0,-2.0,-1.0,-0.18212890625,0.3636474609375,0.34228515625,0.84698486328125,-0.7578125,-0.06103515625,0.68212890625,-0.8125,-0.125,0.625
0.4700000000000003,-2.0,-1.0,-1.0,-5.0,-1.0,0.0,-2.0,-1.0,-0.18212890625,0.3636474609375,0.34228515625,0.84698486328125,-0.7578125,-0.06103515625,0.68212890625,-0.8125,-0.125,0.625
0.4750000000000003,0.0,-2.0,-9.0,-6.0,-2.0,0.0,-2.0,-2.0,-0.18212890625,0.3636474609375,0.34234619140625,0.84698486328125,-0.75537109375,-0.0576171875,0.6875,-0.125,-0.375,0.5625
0.4800000000000003,-1.0,-3.0,1.0,-5.0,0.0,-2.0,-1.0,-1.0,-0.18206787109375,0.3636474609375,0.34234619140625,0.84698486328125,-0.7568359375,-0.05322265625,0.68212890625,0.5,-0.6875,0.3125
0.4850000000000003,-2.0,0.0,-3.0,3.0,0.0,0.0,-1.0,0.0,-0.18206787109375,0.3636474609375,0.34234619140625,0.84698486328125,-0.7568359375,-0.05322265625,0.68212890625,0.5,-0.6875,0.3125
0.4900000000000003,-3.0,0.0,-13.0,-2.0,0.0,-2.0,-1.0,0.0,-0.18206787109375,0.3636474609375,0.34234619140625,0.84698486328125,-0.7568359375,-0.05322265625,0.68212890625,0.5,-0.6875,0.3125
0.49500000000000033,-3.0,0.0,-13.0,-2.0,0.0,-2.0,-1.0,0.0,-0.18194580078125,0.363525390625,0.3424072265625,0.84698486328125,-0.7587890625,-0.052734375,0.6865234375,-0.1875,-1.0625,0.0625
0.5000000000000003,0.0,1.0,6.0,3.0,0.0,-1.0,0.0,0.0,-0.18194580078125,0.363525390625,0.3424072265625,0.84698486328125,-0.7587890625,-0.052734375,0.6865234375,-0.1875,-1.0625,0.0625
0.5050000000000003,0.0,1.0,6.0,3.0,0.0,-1.0,0.0,0.0,-0.18194580078125,0.363525390625,0.3424072265625,0.84698486328125,-0.7548828125,-0.0576171875,0.68798828125,-0.875,-1.0,0.0625
0.5100000000000003,-2.0,-2.0,4.0,0.0,-1.0,-2.0,-3.0,-2.0,-0.18194580078125,0.363525390625,0.3424072265625,0.84698486328125,-0.7548828125,-0.0576171875,0.68798828125,-0.875,-1.0,0.0625
0.5150000000000003,-2.0,-2.0,4.0,0.0,-1.0,-2.0,-3.0,-2.0,-0.18194580078125,0.363525390625,0.3424072265625,0.84698486328125,-0.76171875,-0.05908203125,0.68896484375,-0.5,-0.6875,0.0
0.5200000000000004,-2.0,-2.0,4.0,0.0,-1.0,-2.0,-3.0,-2.0,-0.18194580078125,0.363525390625,0.3424072265625,0.84698486328125,-0.76171875,-0.05908203125,0.68896484375,-0.5,-0.6875,0.0
0.5250000000000004,0.0,-1.0,2.0,5.0,0.0,-1.0,-2.0,-1.0,-0.18194580078125,0.363525390625,0.3424072265625,0.84698486328125,-0.76171875,-0.05908203125,0.68896484375,-0.5,-0.6875,0.0
0.5300000000000004,-1.0,-3.0,-6.0,0.0,-1.0,1.0,0.0,-2.0,-0.18194580078125,0.363525390625,0.3424072265625,0.84698486328125,-0.76171875,-0.05908203125,0.68896484375,-0.5,-0.6875,0.0
0.5350000000000004,-2.0,-1.0,5.0,2.0,-1.0,-2.0,-2.0,-1.0,-0.181884765625,0.363525390625,0.34246826171875,0.84698486328125,-0.755859375,-0.05810546875,0.6875,-0.0625,-0.3125,-0.25
0.5400000000000004,-2.0,-1.0,4.0,1.0,-1.0,-1.0,-1.0,-2.0,-0.181884765625,0.36346435546875,0.34246826171875,0.8470458984375,-0.755859375,-0.05419921875,0.69482421875,0.1875,-0.0625,-0.4375
0.5450000000000004,0.0,-2.0,-4.0,-2.0,-1.0,0.0,1.0,0.0,-0.181884765625,0.36346435546875,0.34246826171875,0.8470458984375,-0.755859375,-0.05419921875,0.69482421875,0.1875,-0.0625,-0.4375
0.5500000000000004,0.0,-2.0,-4.0,-2.0,-1.0,0.0,1.0,0.0,-0.181884765625,0.363525390625,0.34246826171875,0.84698486328125,-0.7548828125,-0.052734375,0.68212890625,-0.4375,0.5,-0.25
0.5550000000000004,0.0,-2.0,5.0,-4.0,0.0,0.0,-2.0,-2.0,-0.181884765625,0.363525390625,0.34246826171875,0.84698486328125,-0.7548828125,-0.052734375,0.68212890625,-0.4375,0.5,-0.25
0.5600000000000004,-1.0,0.0,7.0,13.0,0.0,-3.0,-1.0,0.0,-0.181884765625,0.363525390625,0.34246826171875,0.84698486328125,-0.7548828125,-0.052734375,0.68212890625,-0.4375,0.5,-0.25
0.5650000000000004,-1.0,0.0,7.0,13.0,0.0,-3.0,-1.0,0.0,-0.18212890625,0.36346435546875,0.3424072265625,0.84698486328125,-0.7548828125,-0.06494140625,0.6875,-1.1875,0.75,-0.5
0.5700000000000004,-1.0,-2.0,-4.0,-4.0,-1.0,-1.0,0.0,0.0,-0.18212890625,0.36346435546875,0.3424072265625,0.84698486328125,-0.7548828125,-0.06494140625,0.6875,-1.1875,0.75,-0.5
0.5750000000000004,-1.0,1.0,-2.0,-5.0,-2.0,-1.0,-2.0,-2.0,-0.18212890625,0.36346435546875,0.3424072265625,0.84698486328125,-0.7548828125,-0.06494140625,0.6875,-1.1875,0.75,-0.5
0.5800000000000004,-1.0,0.0,2.0,0.0,-2.0,-3.0,-1.0,1.0,-0.182373046875,0.36346435546875,0.34234619140625,0.84698486328125,-0.75341796875,-0.06201171875,0.68603515625,-1.1875,0.75,-1.0
0.5850000000000004,-1.0,-3.0,-10.0,-5.0,-1.0,0.0,-1.0,-1.0,-0.182373046875,0.36346435546875,0.34234619140625,0.84698486328125,-0.75341796875,-0.06201171875,0.68603515625,-1.1875,0.75,-1.0
0.5900000000000004,-1.0,-3.0,-10.0,-5.0,-1.0,0.0,-1.0,-1.0,-0.18255615234375,0.36346435546875,0.34222412109375,0.84698486328125,-0.75927734375,-0.0595703125,0.68408203125,-0.5625,0.625,-1.0625
0.5950000000000004,1.0,-1.0,2.0,2.0,0.0,1.0,0.0,-2.0,-0.18255615234375,0.36346435546875,0.34222412109375,0.84698486328125,-0.75830078125,-0.0576171875,0.68408203125,-0.4375,0.3125,-0.8125
0.6000000000000004,-1.0,0.0,0.0,-3.0,-1.0,-2.0,0.0,0.0,-0.18255615234375,0.36346435546875,0.34222412109375,0.84698486328125,-0.75830078125,-0.0576171875,0.68408203125,-0.4375,0.3125,-0.8125
0.6050000000000004,-1.0,0.0,0.0,-3.0,-1.0,-2.0,0.0,0.0,-0.18255615234375,0.36346435546875,0.34222412109375,0.84698486328125,-0.75830078125,-0.0576171875,0.68408203125,-0.4375,0.3125,-0.8125
0.6100000000000004,-1.0,0.0,-6.0,-5.0,-1.0,0.0,0.0,0.0,-0.18255615234375,0.36346435546875,0.34222412109375,0.84698486328125,-0.75830078125,-0.06201171875,0.68896484375,-0.8125,0.1875,-0.5
0.6150000000000004,-2.0,-4.0,-8.0,-5.0,-2.0,-1.0,-1.0,-1.0,-0.18255615234375,0.363525390625,0.34222412109375,0.84698486328125,-0.763671875,-0.0615234375,0.68017578125,-0.375,0.0625,-0.25
0.6200000000000004,-2.0,1.0,-1.0,-3.0,-3.0,-1.0,-2.0,-2.0,-0.18255615234375,0.363525390625,0.34222412109375,0.84698486328125,-0.763671875,-0.0615234375,0.68017578125,-0.375,0.0625,-0.25
0.6250000000000004,-1.0,-2.0,-2.0,-2.0,-2.0,-2.0,0.0,-1.0,-0.18255615234375,0.363525390625,0.34222412109375,0.84698486328125,-0.76611328125,-0.0634765625,0.6875,0.0625,-0.125,-0.0625
0.6300000000000004,-1.0,0.0,4.0,4.0,-1.0,-3.0,-1.0,-2.0,-0.18255615234375,0.363525390625,0.34222412109375,0.84698486328125,-0.76611328125,-0.0634765625,0.6875,0.0625,-0.125,-0.0625
0.6350000000000005,-1.0,0.0,4.0,4.0,-1.0,-3.0,-1.0,-2.0,-0.18255615234375,0.363525390625,0.34222412109375,0.846923828125,-0.7587890625,-0.05810546875,0.681640625,0.125,-0.25,0.125
0.6400000000000005,-2.0,-2.0,8.0,2.0,-1.0,-3.0,-2.0,0.0,-0.18255615234375,0.363525390625,0.34222412109375,0.846923828125,-0.7587890625,-0.05810546875,0.681640625,0.125,-0.25,0.125
0.6450000000000005,-2.0,-2.0,8.0,2.0,-1.0,-3.0,-2.0,0.0,-0.18255615234375,0.363525390625,0.34222412109375,0.846923828125,-0.76123046875,-0.0556640625,0.685546875,-0.375,-0.4375,0.375
0.6500000000000005,0.0,0.0,-1.0,-3.0,0.0,-2.0,1.0,-1.0,-0.18255615234375,0.363525390625,0.34222412109375,0.846923828125,-0.76123046875,-0.0556640625,0.685546875,-0.375,-0.4375,0.375
0.6550000000000005,1.0,-1.0,1.0,-3.0,-3.0,-2.0,-1.0,-2.0,-0.18255615234375,0.363525390625,0.34222412109375,0.846923828125,-0.76123046875,-0.0556640625,0.685546875,-0.375,-0.4375,0.375
0.6600000000000005,0.0,-1.0,3.0,0.0,0.0,-1.0,-1.0,-1.0,-0.1824951171875,0.363525390625,0.34222412109375,0.846923828125,-0.7568359375,-0.05615234375,0.68359375,-0.375,-0.625,0.1875
0.6650000000000005,1.0,0.0,7.0,9.0,-1.0,0.0,-1.0,1.0,-0.1824951171875,0.363525390625,0.34222412109375,0.846923828125,-0.7568359375,-0.05615234375,0.68359375,-0.375,-0.625,0.1875
0.6700000000000005,1.0,0.0,7.0,9.0,-1.0,0.0,-1.0,1.0,-0.1824951171875,0.363525390625,0.34222412109375,0.846923828125,-0.7509765625,-0.06005859375,0.68310546875,-0.125,-0.375,0.125
0.6750000000000005,-2.0,1.0,-14.0,-7.0,-1.0,-1.0,-2.0,-3.0,-0.1824951171875,0.363525390625,0.34222412109375,0.846923828125,-0.7509765625,-0.06005859375,0.68310546875,-0.125,-0.375,0.125
0.6800000000000005,-4.0,-3.0,3.0,1.0,0.0,-2.0,-1.0,-2.0,-0.1824951171875,0.363525390625,0.34222412109375,0.84698486328125,-0.75341796875,-0.05419921875,0.6875,-0.125,-0.125,-0.125
0.6850000000000005,-4.0,-3.0,3.0,1.0,0.0,-2.0,-1.0,-2.0,-0.1824951171875,0.363525390625,0.34228515625,0.846923828125,-0.75390625,-0.0546875,0.68017578125,-0.5625,0.25,-0.4375
0.6900000000000005,-1.0,-2.0,-3.0,-4.0,-3.0,-1.0,-1.0,-2.0,-0.1824951171875,0.363525390625,0.34228515625,0.846923828125,-0.75390625,-0.0546875,0.68017578125,-0.5625,0.25,-0.4375
0.6950000000000005,0.0,-1.0,-3.0,-3.0,-2.0,-1.0,-1.0,0.0,-0.1824951171875,0.363525390625,0.34228515625,0.846923828125,-0.75390625,-0.0546875,0.68017578125,-0.5625,0.25,-0.4375
0.7000000000000005,0.0,-1.0,-3.0,-3.0,-2.0,-1.0,-1.0,0.0,-0.1826171875,0.36358642578125,0.34228515625,0.846923828125,-0.75830078125,-0.05322265625,0.68603515625,-1.125,0.5625,-0.5625
0.7050000000000005,-2.0,-4.0,-15.0,-2.0,-3.0,0.0,-3.0,-1.0,-0.1826171875,0.36358642578125,0.34228515625,0.846923828125,-0.75830078125,-0.05322265625,0.68603515625,-1.125,0.5625,-0.5625
0.7100000000000005,-2.0,-4.0,-15.0,-2.0,-3.0,0.0,-3.0,-1.0,-0.182861328125,0.363525390625,0.34222412109375,0.84686279296875,-0.75732421875,-0.060546875,0.68701171875,-1.3125,0.75,-0.625
0.7150000000000005,-1.0,1.0,-2.0,-2.0,0.0,-1.0,-1.0,-2.0,-0.182861328125,0.363525390625,0.34222412109375,0.84686279296875,-0.75732421875,-0.060546875,0.68701171875,-1.3125,0.75,-0.625
0.7200000000000005,1.0,-2.0,7.0,1.0,1.0,1.0,-1.0,-1.0,-0.18304443359375,0.36358642578125,0.34222412109375,0.8468017578125,-0.7578125,-0.05908203125,0.6865234375,-1.1875,0.6875,-0.75
0.7250000000000005,0.0,-2.0,-2.0,-2.0,0.0,-1.0,-2.0,0.0,-0.18304443359375,0.36358642578125,0.34222412109375,0.8468017578125,-0.7578125,-0.05908203125,0.6865234375,-1.1875,0.6875,-0.75
0.7300000000000005,-1.0,-1.0,-5.0,-6.0,-1.0,-3.0,-2.0,0.0,-0.18304443359375,0.36358642578125,0.34222412109375,0.8468017578125,-0.7578125,-0.05908203125,0.6865234375,-1.1875,0.6875,-0.75
0.7350000000000005,-1.0,-1.0,-5.0,-6.0,-1.0,-3.0,-2.0,0.0,-0.18304443359375,0.36358642578125,0.34222412109375,0.8468017578125,-0.7578125,-0.05908203125,0.6865234375,-1.1875,0.6875,-0.75
0.7400000000000005,1.0,-1.0,2.0,1.0,-2.0,-1.0,-1.0,-2.0,-0.18304443359375,0.36358642578125,0.34222412109375,0.8468017578125,-0.75927734375,-0.05712890625,0.677734375,-0.625,0.875,-0.75
0.7450000000000006,0.0,-1.0,-7.0,-4.0,-1.0,0.0,0.0,-3.0,-0.18304443359375,0.36358642578125,0.34222412109375,0.8468017578125,-0.76025390625,-0.05712890625,0.68310546875,-0.3125,0.875,-0.4375
0.7500000000000006,-1.0,0.0,-4.0,-2.0,0.0,-3.0,0.0,-1.0,-0.18304443359375,0.36358642578125,0.34222412109375,0.8468017578125,-0.76025390625,-0.05712890625,0.68310546875,-0.3125,0.875,-0.4375
0.7550000000000006,-1.0,0.0,-4.0,-2.0,0.0,-3.0,0.0,-1.0,-0.18304443359375,0.36358642578125,0.34222412109375,0.8468017578125,-0.7626953125,-0.060546875,0.68359375,-0.75,0.5625,-0.1875
0.7600000000000006,-2.0,-1.0,5.0,1.0,-2.0,0.0,0.0,0.0,-0.18304443359375,0.36358642578125,0.34222412109375,0.8468017578125,-0.7626953125,-0.060546875,0.68359375,-0.75,0.5625,-0.1875
0.7650000000000006,-2.0,-1.0,5.0,1.0,-2.0,0.0,0.0,0.0,-0.1832275390625,0.36358642578125,0.34228515625,0.84674072265625,-0.76123046875,-0.0625,0.68115234375,-1.25,0.25,-0.1875
0.7700000000000006,0.0,-1.0,-8.0,2.0,-1.0,1.0,0.0,0.0,-0.1832275390625,0.36358642578125,0.34228515625,0.84674072265625,-0.76123046875,-0.0625,0.68115234375,-1.25,0.25,-0.1875
0.7750000000000006,0.0,-1.0,-8.0,2.0,-1.0,1.0,0.0,0.0,-0.1832275390625,0.36358642578125,0.34228515625,0.84674072265625,-0.76123046875,-0.0625,0.68115234375,-1.25,0.25,-0.1875
0.7800000000000006,-2.0,0.0,1.0,-2.0,-1.0,0.0,-3.0,-1.0,-0.18328857421875,0.36358642578125,0.34228515625,0.84674072265625,-0.76123046875,-0.0654296875,0.6787109375,-0.75,-0.125,0.0
0.7850000000000006,-2.0,0.0,1.0,-2.0,-1.0,0.0,-3.0,-1.0,-0.18328857421875,0.3636474609375,0.34228515625,0.84674072265625,-0.7626953125,-0.0625,0.68212890625,0.0625,-0.625,-0.125
0.7900000000000006,0.0,-1.0,1.0,-1.0,0.0,-3.0,-2.0,-1.0,-0.18328857421875,0.3636474609375,0.34228515625,0.84674072265625,-0.7626953125,-0.0625,0.68212890625,0.0625,-0.625,-0.125
0.7950000000000006,0.0,-1.0,1.0,-1.0,0.0,-3.0,-2.0,-1.0,-0.18304443359375,0.36358642578125,0.34234619140625,0.8468017578125,-0.76318359375,-0.05712890625,0.67919921875,0.5,-1.3125,0.1875
0.8000000000000006,-3.0,1.0,-7.0,-6.0,-2.0,-1.0,-1.0,-1.0,-0.18304443359375,0.36358642578125,0.34234619140625,0.8468017578125,-0.76318359375,-0.05712890625,0.67919921875,0.5,-1.3125,0.1875
0.8050000000000006,-3.0,1.0,-7.0,-6.0,-2.0,-1.0,-1.0,-1.0,-0.18304443359375,0.36358642578125,0.34234619140625,0.8468017578125,-0.76318359375,-0.05712890625,0.67919921875,0.5,-1.3125,0.1875
0.8100000000000006,-1.0,1.0,1.0,-1.0,-2.0,-2.0,-2.0,-1.0,-0.1826171875,0.36309814453125,0.342529296875,0.84698486328125,-0.76171875,-0.06396484375,0.68212890625,0.4375,-2.3125,0.625
0.8150000000000006,-3.0,0.0,-2.0,6.0,-1.0,0.0,-2.0,-1.0,-0.1826171875,0.36309814453125,0.342529296875,0.84698486328125,-0.76171875,-0.06396484375,0.68212890625,0.4375,-2.3125,0.625
0.8200000000000006,-2.0,-2.0,4.0,1.0,-1.0,-2.0,-1.0,-1.0,-0.1826171875,0.36309814453125,0.342529296875,0.84698486328125,-0.76171875,-0.06396484375,0.68212890625,0.4375,-2.3125,0.625
0.8250000000000006,-2.0,-2.0,4.0,1.0,-1.0,-2.0,-1.0,-1.0,-0.18231201171875,0.36285400390625,0.3426513671875,0.84710693359375,-0.75927734375,-0.0634765625,0.68310546875,1.1875,-2.6875,0.625
0.8300000000000006,-1.0,-1.0,3.0,0.0,0.0,3.0,0.0,-1.0,-0.18231201171875,0.36285400390625,0.3426513671875,0.84710693359375,-0.75927734375,-0.0634765625,0.68310546875,1.1875,-2.6875,0.625
0.8350000000000006,-2.0,0.0,-2.0,-3.0,-2.0,-2.0,-2.0,-3.0,-0.1817626953125,0.36260986328125,0.3427734375,0.8472900390625,-0.7568359375,-0.05322265625,0.6865234375,1.5,-2.5625,0.75
0.8400000000000006,-1.0,-2.0,-6.0,-5.0,-2.0,0.0,0.0,-1.0,-0.1817626953125,0.36260986328125,0.3427734375,0.8472900390625,-0.7568359375,-0.05322265625,0.6865234375,1.5,-2.5625,0.75
0.8450000000000006,-1.0,-2.0,-6.0,-5.0,-2.0,0.0,0.0,-1.0,-0.18133544921875,0.36236572265625,0.34295654296875,0.847412109375,-0.75244140625,-0.0537109375,0.68994140625,1.125,-2.25,0.9375
0.8500000000000006,-1.0,-2.0,0.0,0.0,-2.0,-1.0,0.0,0.0,-0.18133544921875,0.36236572265625,0.34295654296875,0.847412109375,-0.75244140625,-0.0537109375,0.68994140625,1.125,-2.25,0.9375
0.8550000000000006,0.0,-2.0,0.0,2.0,-1.0,-1.0,0.0,-1.0,-0.18133544921875,0.36236572265625,0.34295654296875,0.847412109375,-0.75244140625,-0.0537109375,0.68994140625,1.125,-2.25,0.9375
0.8600000000000007,-1.0,0.0,-1.0,-1.0,-1.0,0.0,-1.0,-1.0,-0.1810302734375,0.362060546875,0.3431396484375,0.8475341796875,-0.74462890625,-0.05419921875,0.69384765625,0.3125,-1.6875,0.6875
0.8650000000000007,-1.0,-1.0,1.0,-5.0,0.0,-1.0,1.0,-1.0,-0.18096923828125,0.362060546875,0.3431396484375,0.8475341796875,-0.74560546875,-0.0556640625,0.69677734375,0.3125,-0.875,0.625
0.8700000000000007,0.0,-1.0,-3.0,-5.0,-2.0,-3.0,-2.0,-1.0,-0.18096923828125,0.362060546875,0.34320068359375,0.8475341796875,-0.751953125,-0.048828125,0.693359375,0.0,-0.0625,0.125
0.8750000000000007,1.0,-1.0,3.0,-1.0,-2.0,-3.0,-2.0,0.0,-0.18096923828125,0.362060546875,0.34320068359375,0.8475341796875,-0.751953125,-0.048828125,0.693359375,0.0,-0.0625,0.125
0.8800000000000007,-2.0,-1.0,-3.0,0.0,0.0,-2.0,-1.0,0.0,-0.18096923828125,0.362060546875,0.34320068359375,0.8475341796875,-0.751953125,-0.048828125,0.693359375,0.0,-0.0625,0.125
0.8850000000000007,-2.0,-1.0,-3.0,0.0,0.0,-2.0,-1.0,0.0,-0.18109130859375,0.36212158203125,0.34326171875,0.847412109375,-0.755859375,-0.048828125,0.68505859375,-1.125,0.625,0.0
0.8900000000000007,0.0,-1.0,0.0,2.0,-3.0,-1.0,-1.0,-2.0,-0.18109130859375,0.36212158203125,0.34326171875,0.847412109375,-0.755859375,-0.048828125,0.68505859375,-1.125,0.625,0.0
0.8950000000000007,0.0,-1.0,0.0,2.0,-3.0,-1.0,-1.0,-2.0,-0.18109130859375,0.36212158203125,0.34326171875,0.847412109375,-0.755859375,-0.048828125,0.68505859375,-1.125,0.625,0.0
0.9000000000000007,-1.0,3.0,8.0,5.0,-1.0,0.0,-1.0,-3.0,-0.1812744140625,0.3621826171875,0.34326171875,0.84735107421875,-0.7529296875,-0.05712890625,0.69140625,-1.375,1.125,-0.5
0.9050000000000007,-2.0,-1.0,-1.0,-2.0,-1.0,0.0,-1.0,-2.0,-0.1812744140625,0.3621826171875,0.34326171875,0.84735107421875,-0.7529296875,-0.05712890625,0.69140625,-1.375,1.125,-0.5
0.9100000000000007,-2.0,-1.0,-1.0,-2.0,-1.0,0.0,-1.0,-2.0,-0.1812744140625,0.3621826171875,0.34326171875,0.84735107421875,-0.7529296875,-0.05712890625,0.69140625,-1.375,1.125,-0.5
0.9150000000000007,0.0,-3.0,-1.0,-2.0,0.0,-1.0,0.0,1.0,-0.18157958984375,0.36224365234375,0.3431396484375,0.84735107421875,-0.7548828125,-0.0615234375,0.6865234375,-1.0625,1.25,-1.0625
0.9200000000000007,-1.0,0.0,-3.0,0.0,0.0,-1.0,0.0,-1.0,-0.181884765625,0.36236572265625,0.34295654296875,0.8472900390625,-0.75244140625,-0.06005859375,0.68359375,-1.0,1.25,-1.4375
0.9250000000000007,-1.0,0.0,-3.0,0.0,0.0,-1.0,0.0,-1.0,-0.181884765625,0.36236572265625,0.34295654296875,0.8472900390625,-0.75244140625,-0.06005859375,0.68359375,-1.0,1.25,-1.4375
0.9300000000000007,-1.0,-1.0,-4.0,-8.0,-2.0,-1.0,-1.0,-1.0,-0.181884765625,0.36236572265625,0.34295654296875,0.8472900390625,-0.75244140625,-0.06005859375,0.68359375,-1.0,1.25,-1.4375
0.9350000000000007,-1.0,0.0,3.0,2.0,-1.0,-1.0,-1.0,-1.0,-0.1822509765625,0.3624267578125,0.3428955078125,0.84722900390625,-0.7578125,-0.0576171875,0.6826171875,-1.5,1.0,-1.25
0.9400000000000007,-1.0,0.0,3.0,2.0,-1.0,-1.0,-1.0,-1.0,-0.18255615234375,0.36248779296875,0.3427734375,0.84716796875,-0.76416015625,-0.06103515625,0.68017578125,-1.375,0.5625,-0.875
0.9450000000000007,0.0,-2.0,0.0,1.0,-2.0,0.0,-2.0,-1.0,-0.18255615234375,0.36248779296875,0.3427734375,0.84716796875,-0.76416015625,-0.06103515625,0.68017578125,-1.375,0.5625,-0.875
0.9500000000000007,0.0,-2.0,0.0,1.0,-2.0,0.0,-2.0,-1.0,-0.182861328125,0.36248779296875,0.34271240234375,0.84716796875,-0.759765625,-0.0693359375,0.67529296875,-1.0625,-0.125,-0.75
0.9550000000000007,-1.0,1.0,-10.0,-5.0,-3.0,-1.0,-2.0,-1.0,-0.182861328125,0.36248779296875,0.34271240234375,0.84716796875,-0.759765625,-0.0693359375,0.67529296875,-1.0625,-0.125,-0.75
0.9600000000000007,-2.0,0.0,5.0,3.0,0.0,-1.0,-2.0,0.0,-0.182861328125,0.36248779296875,0.34271240234375,0.84710693359375,-0.75830078125,-0.06591796875,0.68212890625,0.25,-0.75,-0.5
0.9650000000000007,-1.0,-1.0,1.0,-2.0,-2.0,-2.0,-2.0,0.0,-0.18267822265625,0.3624267578125,0.34271240234375,0.84716796875,-0.7607421875,-0.0625,0.677734375,0.75,-1.125,0.1875
0.9700000000000008,-2.0,0.0,2.0,1.0,0.0,-1.0,-1.0,-1.0,-0.18267822265625,0.3624267578125,0.34271240234375,0.84716796875,-0.7607421875,-0.0625,0.677734375,0.75,-1.125,0.1875
0.9750000000000008,-3.0,1.0,5.0,4.0,1.0,-2.0,-1.0,0.0,-0.18267822265625,0.3624267578125,0.34271240234375,0.84716796875,-0.7607421875,-0.0625,0.677734375,0.75,-1.125,0.1875
0.9800000000000008,0.0,0.0,-6.0,0.0,-3.0,0.0,0.0,-1.0,-0.1824951171875,0.36236572265625,0.3428955078125,0.84716796875,-0.759765625,-0.0595703125,0.68115234375,0.1875,-1.375,0.8125
0.9850000000000008,0.0,-1.0,-2.0,-5.0,0.0,-1.0,1.0,0.0,-0.1824951171875,0.36236572265625,0.3428955078125,0.84716796875,-0.759765625,-0.0595703125,0.68115234375,0.1875,-1.375,0.8125
0.9900000000000008,-2.0,-3.0,5.0,5.0,1.0,-2.0,-1.0,0.0,-0.182373046875,0.36212158203125,0.34307861328125,0.84722900390625,-0.751953125,-0.06591796875,0.6826171875,0.0,-1.75,1.125
0.9950000000000008,0.0,-2.0,-5.0,1.0,0.0,-3.0,-1.0,0.0,-0.18212890625,0.36199951171875,0.34326171875,0.8472900390625,-0.75537109375,-0.064453125,0.6865234375,0.875,-1.5,1.125
1.0000000000000007,-1.0,0.0,-6.0,-1.0,-1.0,-1.0,1.0,-1.0,-0.18212890625,0.36199951171875,0.34326171875,0.8472900390625,-0.75537109375,-0.064453125,0.6865234375,0.875,-1.5,1.125
1.0050000000000006,0.0,-1.0,2.0,3.0,-1.0,0.0,-1.0,-1.0,-0.18170166015625,0.36187744140625,0.3433837890625,0.84735107421875,-0.75146484375,-0.05224609375,0.68994140625,0.9375,-1.25,0.9375
1.0100000000000005,-1.0,-1.0,-2.0,1.0,-1.0,0.0,0.0,-1.0,-0.18170166015625,0.36187744140625,0.3433837890625,0.84735107421875,-0.75146484375,-0.05224609375,0.68994140625,0.9375,-1.25,0.9375
1.0150000000000003,-1.0,-1.0,-2.0,1.0,-1.0,0.0,0.0,-1.0,-0.18170166015625,0.36187744140625,0.3433837890625,0.84735107421875,-0.75146484375,-0.05224609375,0.68994140625,0.9375,-1.25,0.9375
1.0200000000000002,0.0,0.0,-2.0,-7.0,-2.0,0.0,-1.0,-2.0,-0.18170166015625,0.36187744140625,0.3433837890625,0.84735107421875,-0.75634765625,-0.05322265625,0.69189453125,0.1875,-0.9375,0.625
1.0250000000000001,0.0,0.0,-2.0,-7.0,-2.0,0.0,-1.0,-2.0,-0.181640625,0.36187744140625,0.34344482421875,0.84735107421875,-0.75341796875,-0.05029296875,0.6884765625,-0.375,-0.6875,0.3125
1.03,-1.0,0.0,0.0,-2.0,-1.0,0.0,-1.0,-1.0,-0.181640625,0.36187744140625,0.34344482421875,0.84735107421875,-0.75341796875,-0.05029296875,0.6884765625,-0.375,-0.6875,0.3125
1.035,-2.0,0.0,-2.0,-3.0,-3.0,-1.0,-1.0,-1.0,-0.181640625,0.36187744140625,0.34344482421875,0.84735107421875,-0.75341796875,-0.05029296875,0.6884765625,-0.375,-0.6875,0.3125
1.0399999999999998,-2.0,0.0,-2.0,-3.0,-3.0,-1.0,-1.0,-1.0,-0.181640625,0.36187744140625,0.34344482421875,0.84735107421875,-0.7509765625,-0.0546875,0.68701171875,-0.4375,-0.3125,-0.1875
1.0449999999999997,-2.0,0.0,-2.0,-3.0,-3.0,-1.0,-1.0,-1.0,-0.181640625,0.36187744140625,0.34344482421875,0.84735107421875,-0.7509765625,-0.0546875,0.68701171875,-0.4375,-0.3125,-0.1875
1.0499999999999996,-2.0,-2.0,-1.0,3.0,-1.0,-1.0,-1.0,-1.0,-0.181640625,0.36187744140625,0.34344482421875,0.84735107421875,-0.7509765625,-0.0546875,0.68701171875,-0.4375,-0.3125,-0.1875
1.0549999999999995,-2.0,-1.0,0.0,3.0,-3.0,-3.0,1.0,-2.0,-0.181640625,0.36187744140625,0.34344482421875,0.84735107421875,-0.75439453125,-0.05517578125,0.68310546875,-0.4375,0.0,-0.5625
1.0599999999999994,-2.0,-1.0,0.0,3.0,-3.0,-3.0,1.0,-2.0,-0.181640625,0.36187744140625,0.34344482421875,0.84735107421875,-0.75048828125,-0.0537109375,0.68798828125,-0.375,0.375,-1.0
1.0649999999999993,-2.0,-1.0,5.0,3.0,1.0,-2.0,-1.0,-2.0,-0.181640625,0.36187744140625,0.34344482421875,0.84735107421875,-0.75048828125,-0.0537109375,0.68798828125,-0.375,0.375,-1.0
1.0699999999999992,0.0,0.0,2.0,2.0,0.0,-1.0,-1.0,-1.0,-0.18157958984375,0.36187744140625,0.34344482421875,0.84735107421875,-0.75439453125,-0.0537109375,0.69091796875,-0.625,0.4375,-0.875
1.074999999999999,0.0,0.0,-9.0,-5.0,-2.0,-1.0,-2.0,-2.0,-0.18157958984375,0.36187744140625,0.34344482421875,0.84735107421875,-0.75439453125,-0.0537109375,0.69091796875,-0.625,0.4375,-0.875
1.079999999999999,-2.0,-2.0,-2.0,-2.0,0.0,0.0,-2.0,-1.0,-0.18157958984375,0.36187744140625,0.34344482421875,0.84735107421875,-0.75439453125,-0.0537109375,0.69091796875,-0.625,0.4375,-0.875
1.0849999999999989,-1.0,0.0,-4.0,-1.0,-1.0,-1.0,-1.0,-1.0,-0.1817626953125,0.36187744140625,0.3433837890625,0.84735107421875,-0.7548828125,-0.05810546875,0.6943359375,-1.0625,0.625,-0.875
1.0899999999999987,-1.0,0.0,-4.0,-1.0,-1.0,-1.0,-1.0,-1.0,-0.18206787109375,0.3619384765625,0.34332275390625,0.8472900390625,-0.7587890625,-0.0625,0.68212890625,-1.0625,0.6875,-0.8125
1.0949999999999986,-1.0,-1.0,5.0,1.0,-2.0,-2.0,0.0,-1.0,-0.18206787109375,0.3619384765625,0.34332275390625,0.8472900390625,-0.7587890625,-0.0625,0.68212890625,-1.0625,0.6875,-0.8125
1.0999999999999985,-3.0,-1.0,4.0,1.0,0.0,0.0,-3.0,0.0,-0.18206787109375,0.3619384765625,0.34332275390625,0.8472900390625,-0.7587890625,-0.0625,0.68212890625,-1.0625,0.6875,-0.8125
1.1049999999999984,-3.0,-1.0,4.0,1.0,0.0,0.0,-3.0,0.0,-0.18206787109375,0.3619384765625,0.34332275390625,0.8472900390625,-0.75244140625,-0.0625,0.68408203125,-0.5625,0.6875,-0.75
1.1099999999999983,-1.0,-2.0,-5.0,-4.0,-1.0,-1.0,-1.0,0.0,-0.18206787109375,0.3619384765625,0.34332275390625,0.8472900390625,-0.75244140625,-0.0625,0.68408203125,-0.5625,0.6875,-0.75
1.1149999999999982,-1.0,-2.0,-5.0,-4.0,-1.0,-1.0,-1.0,0.0,-0.18206787109375,0.3619384765625,0.34332275390625,0.8472900390625,-0.75244140625,-0.0625,0.68408203125,-0.5625,0.6875,-0.75
1.119999999999998,0.0,-1.0,-8.0,-4.0,0.0,-1.0,0.0,-1.0,-0.18206787109375,0.3619384765625,0.34332275390625,0.8472900390625,-0.75634765625,-0.060546875,0.68603515625,-0.5,0.6875,-0.3125
1.124999999999998,-1.0,-1.0,4.0,5.0,1.0,-2.0,0.0,-2.0,-0.18206787109375,0.3619384765625,0.34332275390625,0.8472900390625,-0.75634765625,-0.060546875,0.68603515625,-0.5,0.6875,-0.3125
1.129999999999998,0.0,-1.0,0.0,-3.0,-2.0,0.0,-2.0,-2.0,-0.18206787109375,0.3619384765625,0.34332275390625,0.8472900390625,-0.75927734375,-0.05859375,0.68359375,-0.875,0.625,-0.375
1.1349999999999978,-2.0,1.0,-1.0,-1.0,-2.0,-2.0,-1.0,-2.0,-0.18206787109375,0.3619384765625,0.34332275390625,0.8472900390625,-0.75927734375,-0.05859375,0.68359375,-0.875,0.625,-0.375
1.1399999999999977,0.0,1.0,2.0,-3.0,1.0,-1.0,1.0,-1.0,-0.18206787109375,0.3619384765625,0.34332275390625,0.8472900390625,-0.75927734375,-0.05859375,0.68359375,-0.875,0.625,-0.375
1.1449999999999976,0.0,1.0,2.0,-3.0,1.0,-1.0,1.0,-1.0,-0.18206787109375,0.36199951171875,0.34332275390625,0.8472900390625,-0.7578125,-0.06005859375,0.6826171875,-0.8125,0.4375,-0.375
1.1499999999999975,-2.0,-1.0,-3.0,-2.0,-1.0,0.0,-2.0,-1.0,-0.18206787109375,0.36199951171875,0.34332275390625,0.8472900390625,-0.7578125,-0.06005859375,0.6826171875,-0.8125,0.4375,-0.375
1.1549999999999974,-1.0,0.0,7.0,-1.0,0.0,0.0,0.0,0.0,-0.18206787109375,0.36199951171875,0.34332275390625,0.8472900390625,-0.7578125,-0.0625,0.68408203125,-0.375,0.25,-0.375
1.1599999999999973,-3.0,0.0,-7.0,-4.0,-2.0,-2.0,-1.0,-1.0,-0.18206787109375,0.36199951171875,0.34332275390625,0.8472900390625,-0.7578125,-0.0625,0.68408203125,-0.375,0.25,-0.375
1.1649999999999971,-1.0,-1.0,-1.0,4.0,-3.0,-3.0,-1.0,-1.0,-0.18206787109375,0.36199951171875,0.34332275390625,0.8472900390625,-0.75439453125,-0.05908203125,0.6796875,-0.375,-0.0625,-0.3125
1.169999999999997,-2.0,-2.0,-7.0,0.0,-1.0,1.0,1.0,-1.0,-0.18206787109375,0.36199951171875,0.34332275390625,0.8472900390625,-0.75390625,-0.06396484375,0.681640625,-0.1875,-0.4375,-0.125
1.174999999999997,0.0,-2.0,2.0,-4.0,-2.0,-3.0,-1.0,0.0,-0.18206787109375,0.36199951171875,0.34332275390625,0.8472900390625,-0.75390625,-0.06396484375,0.681640625,-0.1875,-0.4375,-0.125
1.1799999999999968,-1.0,-1.0,1.0,-2.0,-3.0,-2.0,-1.0,-1.0,-0.18206787109375,0.36199951171875,0.34332275390625,0.8472900390625,-0.75390625,-0.06396484375,0.681640625,-0.1875,-0.4375,-0.125
1.1849999999999967,-1.0,-1.0,1.0,-2.0,-3.0,-2.0,-1.0,-1.0,-0.18206787109375,0.36199951171875,0.34332275390625,0.8472900390625,-0.75341796875,-0.06103515625,0.68603515625,0.1875,-0.5,0.0625
1.1899999999999966,-1.0,-2.0,2.0,0.0,0.0,-2.0,0.0,-1.0,-0.18206787109375,0.36199951171875,0.34332275390625,0.8472900390625,-0.7548828125,-0.0634765625,0.68505859375,0.125,-0.625,0.0625
1.1949999999999965,-1.0,-1.0,10.0,6.0,-1.0,0.0,-1.0,-2.0,-0.18206787109375,0.36199951171875,0.34332275390625,0.8472900390625,-0.7548828125,-0.0634765625,0.68505859375,0.125,-0.625,0.0625
1.1999999999999964,0.0,-1.0,-3.0,-2.0,-2.0,-2.0,-2.0,-1.0,-0.18206787109375,0.36199951171875,0.34332275390625,0.8472900390625,-0.7548828125,-0.0634765625,0.68505859375,0.125,-0.625,0.0625
1.2049999999999963,0.0,-1.0,-3.0,-2.0,-2.0,-2.0,-2.0,-1.0,-0.18212890625,0.36199951171875,0.34332275390625,0.8472900390625,-0.7548828125,-0.068359375,0.68212890625,0.0625,-0.4375,0.0625
1.2099999999999962,0.0,-1.0,-8.0,-3.0,-2.0,0.0,-1.0,-1.0,-0.18212890625,0.36199951171875,0.34332275390625,0.8472900390625,-0.7548828125,-0.068359375,0.68212890625,0.0625,-0.4375,0.0625
1.214999999999996,0.0,-1.0,2.0,-4.0,-3.0,-1.0,-1.0,0.0,-0.18212890625,0.36199951171875,0.34332275390625,0.8472900390625,-0.7548828125,-0.068359375,0.68212890625,0.0625,-0.4375,0.0625
1.219999999999996,-1.0,-1.0,3.0,-1.0,-1.0,-1.0,-1.0,0.0,-0.18206787109375,0.36199951171875,0.34332275390625,0.8472900390625,-0.75244140625,-0.0595703125,0.693359375,0.5,0.0625,0.125
1.2249999999999959,1.0,0.0,-3.0,-4.0,-2.0,-1.0,-2.0,-1.0,-0.18206787109375,0.36199951171875,0.34332275390625,0.8472900390625,-0.755859375,-0.05419921875,0.6845703125,0.1875,0.0625,0.25
1.2299999999999958,-2.0,0.0,-2.0,-2.0,-2.0,-2.0,0.0,-1.0,-0.18206787109375,0.36199951171875,0.34332275390625,0.8472900390625,-0.755859375,-0.05419921875,0.6845703125,0.1875,0.0625,0.25
1.2349999999999957,-2.0,-1.0,-10.0,-5.0,0.0,-1.0,1.0,-1.0,-0.18206787109375,0.36199951171875,0.34332275390625,0.8472900390625,-0.755859375,-0.05419921875,0.6845703125,0.1875,0.0625,0.25
1.2399999999999956,-3.0,-1.0,-9.0,1.0,0.0,-3.0,-2.0,-2.0,-0.18206787109375,0.36199951171875,0.34332275390625,0.8472900390625,-0.755859375,-0.0546875,0.6826171875,-0.375,0.0625,0.0
1.2449999999999954,0.0,0.0,0.0,-3.0,0.0,-1.0,0.0,-1.0,-0.18206787109375,0.36199951171875,0.34332275390625,0.8472900390625,-0.75048828125,-0.06103515625,0.6865234375,-0.3125,0.3125,-0.25
1.2499999999999953,0.0,0.0,0.0,-3.0,0.0,-1.0,0.0,-1.0,-0.18206787109375,0.36199951171875,0.34332275390625,0.8472900390625,-0.75048828125,-0.06103515625,0.6865234375,-0.3125,0.3125,-0.25
1.2549999999999952,0.0,-2.0,5.0,6.0,0.0,-2.0,0.0,-1.0,-0.18206787109375,0.36199951171875,0.34332275390625,0.8472900390625,-0.7509765625,-0.05712890625,0.6884765625,0.0,0.25,-0.5
1.2599999999999951,0.0,-1.0,1.0,-1.0,0.0,1.0,-1.0,-1.0,-0.18206787109375,0.36199951171875,0.34332275390625,0.8472900390625,-0.7509765625,-0.05712890625,0.6884765625,0.0,0.25,-0.5
1.264999999999995,0.0,-1.0,1.0,-1.0,0.0,1.0,-1.0,-1.0,-0.1820068359375,0.36199951171875,0.34332275390625,0.8472900390625,-0.7529296875,-0.0556640625,0.681640625,-0.5,0.0,-0.5
1.269999999999995,-1.0,-3.0,-16.0,-3.0,-3.0,-2.0,-2.0,-3.0,-0.1820068359375,0.36199951171875,0.34332275390625,0.8472900390625,-0.7529296875,-0.0556640625,0.681640625,-0.5,0.0,-0.5
1.2749999999999948,-1.0,-3.0,-16.0,-3.0,-3.0,-2.0,-2.0,-3.0,-0.1822509765625,0.3619384765625,0.34332275390625,0.84722900390625,-0.751953125,-0.06103515625,0.68212890625,-1.0625,0.1875,-0.5625
1.2799999999999947,1.0,-1.0,-8.0,-8.0,-1.0,-2.0,0.0,-1.0,-0.1822509765625,0.3619384765625,0.34332275390625,0.84722900390625,-0.751953125,-0.06103515625,0.68212890625,-1.0625,0.1875,-0.5625
1.2849999999999946,-2.0,-1.0,5.0,3.0,1.0,0.0,0.0,0.0,-0.1822509765625,0.36199951171875,0.34332275390625,0.84722900390625,-0.7568359375,-0.068359375,0.6826171875,-0.6875,0.375,-0.5
1.2899999999999945,-2.0,-1.0,5.0,3.0,1.0,0.0,0.0,0.0,-0.1822509765625,0.36199951171875,0.34332275390625,0.84722900390625,-0.7568359375,-0.068359375,0.6826171875,-0.6875,0.375,-0.5
1.2949999999999944,0.0,1.0,-8.0,-4.0,-2.0,-2.0,-2.0,-2.0,-0.1822509765625,0.3619384765625,0.34332275390625,0.84722900390625,-0.7578125,-0.06396484375,0.68798828125,-0.3125,0.5625,-0.5
1.2999999999999943,0.0,1.0,1.0,1.0,-1.0,-1.0,-1.0,-1.0,-0.1822509765625,0.3619384765625,0.34332275390625,0.84722900390625,-0.7578125,-0.06396484375,0.68798828125,-0.3125,0.5625,-0.5
1.3049999999999942,-1.0,-2.0,6.0,-1.0,-1.0,-2.0,-3.0,-2.0,-0.1822509765625,0.3619384765625,0.34332275390625,0.84722900390625,-0.7578125,-0.06396484375,0.68798828125,-0.3125,0.5625,-0.5
1.309999999999994,-1.0,1.0,1.0,-3.0,-1.0,-1.0,-1.0,-2.0,-0.1822509765625,0.36199951171875,0.34332275390625,0.84722900390625,-0.7568359375,-0.0595703125,0.6845703125,-0.25,0.625,-0.375
1.314999999999994,-1.0,1.0,1.0,-3.0,-1.0,-1.0,-1.0,-2.0,-0.1822509765625,0.36199951171875,0.34332275390625,0.84722900390625,-0.76025390625,-0.05908203125,0.68505859375,-0.375,0.5625,-0.125
1.3199999999999938,-1.0,-2.0,8.0,2.0,0.0,-2.0,0.0,-1.0,-0.1822509765625,0.36199951171875,0.34332275390625,0.84722900390625,-0.76025390625,-0.05908203125,0.68505859375,-0.375,0.5625,-0.125
1.3249999999999937,-1.0,-2.0,8.0,2.0,0.0,-2.0,0.0,-1.0,-0.1822509765625,0.36199951171875,0.34332275390625,0.84722900390625,-0.7568359375,-0.0693359375,0.68603515625,-0.375,-0.125,-0.1875
1.3299999999999936,-2.0,-2.0,-2.0,-2.0,0.0,-2.0,-2.0,-3.0,-0.1822509765625,0.36199951171875,0.34332275390625,0.84722900390625,-0.7568359375,-0.0693359375,0.68603515625,-0.375,-0.125,-0.1875
1.3349999999999935,1.0,-4.0,-10.0,-4.0,-2.0,0.0,-1.0,-1.0,-0.1822509765625,0.36199951171875,0.34332275390625,0.84722900390625,-0.75390625,-0.06396484375,0.68359375,0.25,-0.4375,-0.3125
1.3399999999999934,-3.0,-1.0,3.0,-1.0,-2.0,-1.0,-1.0,-2.0,-0.1822509765625,0.36199951171875,0.34332275390625,0.84722900390625,-0.75390625,-0.06396484375,0.68359375,0.25,-0.4375,-0.3125
1.3449999999999933,-3.0,-1.0,3.0,-1.0,-2.0,-1.0,-1.0,-2.0,-0.1822509765625,0.36199951171875,0.34332275390625,0.84722900390625,-0.7587890625,-0.0537109375,0.68408203125,0.5625,-0.4375,0.0625
1.3499999999999932,-1.0,-1.0,4.0,3.0,-2.0,-2.0,-1.0,-2.0,-0.1822509765625,0.36199951171875,0.34332275390625,0.84722900390625,-0.7587890625,-0.0537109375,0.68408203125,0.5625,-0.4375,0.0625
1.354999999999993,-1.0,0.0,-6.0,-6.0,-2.0,-2.0,-1.0,-1.0,-0.1822509765625,0.36199951171875,0.34332275390625,0.84722900390625,-0.7587890625,-0.0537109375,0.68408203125,0.5625,-0.4375,0.0625
1.359999999999993,0.0,-1.0,-5.0,-2.0,0.0,-1.0,-1.0,-1.0,-0.1822509765625,0.36199951171875,0.34332275390625,0.84722900390625,-0.755859375,-0.05908203125,0.68896484375,-0.125,-0.3125,0.3125
1.3649999999999929,0.0,-1.0,-5.0,-2.0,0.0,-1.0,-1.0,-1.0,-0.1822509765625,0.36199951171875,0.34332275390625,0.84722900390625,-0.7529296875,-0.0625,0.68701171875,-0.1875,0.125,0.25
1.3699999999999928,0.0,-1.0,-5.0,-2.0,0.0,-1.0,-1.0,-1.0,-0.1822509765625,0.36199951171875,0.34332275390625,0.84722900390625,-0.7529296875,-0.0625,0.68701171875,-0.1875,0.125,0.25
1.3749999999999927,-2.0,1.0,4.0,-1.0,-1.0,0.0,0.0,-1.0,-0.1822509765625,0.36199951171875,0.34332275390625,0.84722900390625,-0.7529296875,-0.0625,0.68701171875,-0.1875,0.125,0.25
1.3799999999999926,-2.0,-1.0,-1.0,-6.0,-1.0,0.0,0.0,0.0,-0.1822509765625,0.36199951171875,0.34332275390625,0.84722900390625,-0.75439453125,-0.05859375,0.689453125,0.8125,0.4375,0.0625
1.3849999999999925,0.0,-3.0,1.0,-1.0,0.0,-2.0,-2.0,0.0,-0.18218994140625,0.36199951171875,0.34332275390625,0.84722900390625,-0.755859375,-0.0537109375,0.68994140625,0.4375,0.625,-0.125
1.3899999999999924,-1.0,0.0,5.0,1.0,-3.0,0.0,-3.0,0.0,-0.18218994140625,0.36199951171875,0.34332275390625,0.84722900390625,-0.7548828125,-0.05419921875,0.68505859375,-1.0,0.625,-0.3125
1.3949999999999922,-1.0,0.0,5.0,1.0,-3.0,0.0,-3.0,0.0,-0.18218994140625,0.36199951171875,0.34332275390625,0.84722900390625,-0.7548828125,-0.05419921875,0.68505859375,-1.0,0.625,-0.3125
1.3999999999999921,0.0,-1.0,4.0,7.0,0.0,-1.0,0.0,0.0,-0.18243408203125,0.362060546875,0.34326171875,0.84716796875,-0.7568359375,-0.05908203125,0.69091796875,-1.1875,1.0,-0.8125
1.404999999999992,-1.0,0.0,-1.0,2.0,-1.0,-1.0,0.0,-2.0,-0.18243408203125,0.362060546875,0.34326171875,0.84716796875,-0.7568359375,-0.05908203125,0.69091796875,-1.1875,1.0,-0.8125
1.409999999999992,-1.0,-2.0,-6.0,-4.0,-2.0,-2.0,0.0,-2.0,-0.18243408203125,0.362060546875,0.34326171875,0.84716796875,-0.7568359375,-0.05908203125,0.69091796875,-1.1875,1.0,-0.8125
1.4149999999999918,-1.0,2.0,-7.0,-2.0,-2.0,-1.0,-2.0,0.0,-0.18255615234375,0.36212158203125,0.3431396484375,0.84716796875,-0.755859375,-0.0625,0.68798828125,-0.3125,1.0,-1.0625
1.4199999999999917,-1.0,2.0,-7.0,-2.0,-2.0,-1.0,-2.0,0.0,-0.1827392578125,0.3623046875,0.3428955078125,0.84716796875,-0.75732421875,-0.0625,0.6826171875,-0.1875,1.0625,-1.25
1.4249999999999916,-1.0,-3.0,1.0,-2.0,-2.0,-1.0,-3.0,-1.0,-0.1827392578125,0.3623046875,0.3428955078125,0.84716796875,-0.75732421875,-0.0625,0.6826171875,-0.1875,1.0625,-1.25
1.4299999999999915,0.0,0.0,0.0,-1.0,1.0,0.0,-1.0,0.0,-0.1829833984375,0.36236572265625,0.3427734375,0.84710693359375,-0.7578125,-0.0625,0.68359375,-0.8125,1.0,-0.875
1.4349999999999914,-1.0,0.0,1.0,3.0,-2.0,-1.0,0.0,0.0,-0.1829833984375,0.36236572265625,0.3427734375,0.84710693359375,-0.7578125,-0.0625,0.68359375,-0.8125,1.0,-0.875
1.4399999999999913,-1.0,0.0,1.0,3.0,-2.0,-1.0,0.0,0.0,-0.18328857421875,0.36248779296875,0.3427734375,0.8470458984375,-0.7578125,-0.06396484375,0.68359375,-1.125,1.0,-0.5625
1.4449999999999912,-1.0,0.0,1.0,3.0,-2.0,-1.0,0.0,0.0,-0.18328857421875,0.36248779296875,0.3427734375,0.8470458984375,-0.7578125,-0.06396484375,0.68359375,-1.125,1.0,-0.5625
1.449999999999991,0.0,0.0,-5.0,-6.0,0.0,-1.0,-2.0,-1.0,-0.18328857421875,0.36248779296875,0.3427734375,0.8470458984375,-0.7578125,-0.06396484375,0.68359375,-1.125,1.0,-0.5625
1.454999999999991,-1.0,1.0,1.0,2.0,0.0,-1.0,0.0,0.0,-0.18328857421875,0.36248779296875,0.34271240234375,0.8470458984375,-0.76171875,-0.06591796875,0.681640625,-0.625,0.8125,-0.25
1.4599999999999909,-2.0,-1.0,3.0,0.0,-1.0,-1.0,-1.0,-3.0,-0.18328857421875,0.36248779296875,0.34271240234375,0.8470458984375,-0.76123046875,-0.0625,0.67724609375,0.1875,0.375,0.0
1.4649999999999908,0.0,-2.0,-2.0,-1.0,-3.0,-2.0,-1.0,-3.0,-0.18328857421875,0.36248779296875,0.34271240234375,0.8470458984375,-0.76123046875,-0.0625,0.67724609375,0.1875,0.375,0.0
1.4699999999999906,0.0,-2.0,-2.0,-1.0,-3.0,-2.0,-1.0,-3.0,-0.18328857421875,0.362548828125,0.34271240234375,0.84698486328125,-0.76123046875,-0.05859375,0.6806640625,0.0625,0.0625,0.4375
1.4749999999999905,-1.0,-2.0,1.0,1.0,-1.0,-3.0,-2.0,-1.0,-0.18328857421875,0.362548828125,0.34271240234375,0.84698486328125,-0.76123046875,-0.05859375,0.6806640625,0.0625,0.0625,0.4375
1.4799999999999904,-1.0,-2.0,0.0,0.0,-1.0,0.0,-2.0,-2.0,-0.18328857421875,0.362548828125,0.34271240234375,0.84698486328125,-0.76123046875,-0.05859375,0.6806640625,0.0625,0.0625,0.4375
1.4849999999999903,-1.0,-2.0,0.0,0.0,-1.0,0.0,-2.0,-2.0,-0.18328857421875,0.362548828125,0.34271240234375,0.84698486328125,-0.759765625,-0.06494140625,0.6845703125,-0.3125,-0.1875,0.625
1.4899999999999902,0.0,-2.0,-7.0,4.0,0.0,-3.0,-2.0,1.0,-0.18328857421875,0.362548828125,0.34271240234375,0.84698486328125,-0.76171875,-0.06201171875,0.68701171875,0.125,-0.5,0.5625
1.4949999999999901,-2.0,-3.0,2.0,1.0,-1.0,-2.0,0.0,-1.0,-0.18328857421875,0.362548828125,0.34271240234375,0.84698486328125,-0.76171875,-0.06201171875,0.68701171875,0.125,-0.5,0.5625
1.49999999999999,0.0,-3.0,-4.0,-4.0,-1.0,-1.0,2.0,-2.0,-0.18328857421875,0.362548828125,0.3427734375,0.84698486328125,-0.76220703125,-0.06005859375,0.68212890625,0.4375,-1.0,0.5
1.50499999999999,0.0,-3.0,-4.0,-4.0,-1.0,-1.0,2.0,-2.0,-0.18328857421875,0.362548828125,0.3427734375,0.84698486328125,-0.76220703125,-0.06005859375,0.68212890625,0.4375,-1.0,0.5
1.5099999999999898,-1.0,-1.0,1.0,0.0,-1.0,-2.0,-1.0,-3.0,-0.18316650390625,0.36236572265625,0.34283447265625,0.8470458984375,-0.75341796875,-0.0634765625,0.685546875,0.125,-1.125,0.3125
1.5149999999999897,-3.0,-1.0,-2.0,-5.0,-2.0,-1.0,-1.0,-1.0,-0.18316650390625,0.36236572265625,0.34283447265625,0.8470458984375,-0.75341796875,-0.0634765625,0.685546875,0.125,-1.125,0.3125
1.5199999999999896,-3.0,-1.0,-2.0,-5.0,-2.0,-1.0,-1.0,-1.0,-0.1829833984375,0.36224365234375,0.34295654296875,0.84710693359375,-0.75439453125,-0.06201171875,0.6865234375,0.25,-1.25,0.5625
1.5249999999999895,-1.0,-4.0,-11.0,-2.0,-2.0,-1.0,-1.0,-2.0,-0.1829833984375,0.36224365234375,0.34295654296875,0.84710693359375,-0.75439453125,-0.06201171875,0.6865234375,0.25,-1.25,0.5625
1.5299999999999894,-2.0,-1.0,1.0,0.0,1.0,0.0,0.0,-1.0,-0.1829833984375,0.36224365234375,0.34295654296875,0.84710693359375,-0.75439453125,-0.06201171875,0.6865234375,0.25,-1.25,0.5625
1.5349999999999893,-1.0,-2.0,-7.0,-2.0,-2.0,-3.0,-3.0,-1.0,-0.1827392578125,0.36224365234375,0.34307861328125,0.84710693359375,-0.76171875,-0.05810546875,0.6806640625,0.5625,-1.0625,0.6875
1.5399999999999892,-1.0,-3.0,-2.0,-1.0,-1.0,-2.0,-1.0,-1.0,-0.1827392578125,0.36224365234375,0.34307861328125,0.84710693359375,-0.76171875,-0.05810546875,0.6806640625,0.5625,-1.0625,0.6875
1.544999999999989,0.0,1.0,1.0,-3.0,0.0,-1.0,-1.0,-2.0,-0.1827392578125,0.36224365234375,0.34307861328125,0.84710693359375,-0.755859375,-0.064453125,0.6865234375,0.4375,-1.0,0.8125
1.549999999999989,-1.0,-2.0,1.0,-2.0,-1.0,-1.0,-1.0,-3.0,-0.1827392578125,0.36224365234375,0.34307861328125,0.84710693359375,-0.755859375,-0.064453125,0.6865234375,0.4375,-1.0,0.8125
1.5549999999999888,-2.0,-1.0,-15.0,-10.0,-2.0,-2.0,-1.0,-1.0,-0.1827392578125,0.36224365234375,0.34307861328125,0.84710693359375,-0.7509765625,-0.06201171875,0.68701171875,0.625,-0.625,0.4375
1.5599999999999887,-1.0,-1.0,4.0,0.0,-1.0,-2.0,-1.0,-2.0,-0.1827392578125,0.36224365234375,0.34307861328125,0.84710693359375,-0.75830078125,-0.05810546875,0.68798828125,0.875,-0.375,0.5
1.5649999999999886,-2.0,-3.0,1.0,1.0,-1.0,-1.0,-1.0,0.0,-0.1827392578125,0.36224365234375,0.34307861328125,0.84710693359375,-0.75830078125,-0.05810546875,0.68798828125,0.875,-0.375,0.5
1.5699999999999885,1.0,-1.0,-8.0,2.0,0.0,0.0,-2.0,0.0,-0.1827392578125,0.36224365234375,0.34307861328125,0.84710693359375,-0.75830078125,-0.05810546875,0.68798828125,0.875,-0.375,0.5
1.5749999999999884,0.0,-2.0,-1.0,-2.0,-3.0,-1.0,-1.0,-2.0,-0.1827392578125,0.36224365234375,0.34307861328125,0.84710693359375,-0.75537109375,-0.0556640625,0.6826171875,0.4375,-0.3125,0.5625
1.5799999999999883,0.0,-2.0,-1.0,-2.0,-3.0,-1.0,-1.0,-2.0,-0.1827392578125,0.36224365234375,0.34307861328125,0.84710693359375,-0.75537109375,-0.0556640625,0.6826171875,0.4375,-0.3125,0.5625
1.5849999999999882,0.0,1.0,-3.0,-8.0,-2.0,0.0,0.0,-1.0,-0.18267822265625,0.36224365234375,0.34307861328125,0.84710693359375,-0.75341796875,-0.06005859375,0.68603515625,0.0625,-0.5625,0.125
1.589999999999988,0.0,1.0,5.0,5.0,-1.0,-2.0,-2.0,-2.0,-0.18267822265625,0.36224365234375,0.34307861328125,0.84710693359375,-0.75341796875,-0.06005859375,0.68603515625,0.0625,-0.5625,0.125
1.594999999999988,1.0,-1.0,1.0,5.0,0.0,-2.0,0.0,1.0,-0.18267822265625,0.36224365234375,0.34307861328125,0.84710693359375,-0.75341796875,-0.05615234375,0.68408203125,0.375,-0.8125,0.125
1.5999999999999879,-3.0,-3.0,7.0,2.0,-1.0,0.0,-1.0,-1.0,-0.18267822265625,0.36224365234375,0.34307861328125,0.84710693359375,-0.75341796875,-0.05615234375,0.68408203125,0.375,-0.8125,0.125
1.6049999999999878,-1.0,3.0,0.0,-1.0,0.0,0.0,0.0,0.0,-0.18267822265625,0.36224365234375,0.34307861328125,0.84710693359375,-0.75341796875,-0.05615234375,0.68408203125,0.375,-0.8125,0.125
1.6099999999999877,-1.0,3.0,0.0,-1.0,0.0,0.0,0.0,0.0,-0.18267822265625,0.36224365234375,0.34307861328125,0.84710693359375,-0.75390625,-0.05517578125,0.6845703125,-0.0625,-1.0,0.25
1.6149999999999876,0.0,-2.0,-5.0,-6.0,0.0,-1.0,-1.0,-1.0,-0.18267822265625,0.36224365234375,0.34307861328125,0.84710693359375,-0.75390625,-0.05517578125,0.6845703125,-0.0625,-1.0,0.25
1.6199999999999875,0.0,-2.0,-5.0,-6.0,0.0,-1.0,-1.0,-1.0,-0.18267822265625,0.36224365234375,0.34307861328125,0.84710693359375,-0.7548828125,-0.0595703125,0.693359375,-0.375,-0.8125,0.4375
1.6249999999999873,0.0,-3.0,-3.0,-2.0,-1.0,-1.0,-1.0,-1.0,-0.18267822265625,0.36224365234375,0.34307861328125,0.84710693359375,-0.7548828125,-0.0595703125,0.693359375,-0.375,-0.8125,0.4375
1.6299999999999872,-2.0,-2.0,1.0,4.0,-2.0,-2.0,-1.0,-2.0,-0.18267822265625,0.36224365234375,0.34307861328125,0.84710693359375,-0.75537109375,-0.064453125,0.68603515625,0.0625,-0.375,0.4375
1.6349999999999871,-2.0,-2.0,1.0,4.0,-2.0,-2.0,-1.0,-2.0,-0.18267822265625,0.36224365234375,0.34307861328125,0.84710693359375,-0.75537109375,-0.064453125,0.68603515625,0.0625,-0.375,0.4375
1.639999999999987,-1.0,-1.0,2.0,-4.0,-2.0,-1.0,-2.0,-1.0,-0.1826171875,0.36224365234375,0.3431396484375,0.84710693359375,-0.74951171875,-0.05517578125,0.6845703125,0.125,-0.1875,0.1875
1.644999999999987,-2.0,1.0,-1.0,-2.0,-2.0,-2.0,1.0,-1.0,-0.1826171875,0.36224365234375,0.3431396484375,0.84710693359375,-0.74951171875,-0.05517578125,0.6845703125,0.125,-0.1875,0.1875
1.6499999999999868,-2.0,0.0,5.0,2.0,0.0,0.0,-3.0,0.0,-0.1826171875,0.36224365234375,0.3431396484375,0.84710693359375,-0.75634765625,-0.05126953125,0.6865234375,-0.1875,0.25,0.1875
1.6549999999999867,-2.0,0.0,-2.0,-4.0,-1.0,-1.0,-2.0,-1.0,-0.1826171875,0.36224365234375,0.3431396484375,0.84710693359375,-0.75634765625,-0.05126953125,0.6865234375,-0.1875,0.25,0.1875
1.6599999999999866,-1.0,-2.0,-5.0,-2.0,-1.0,1.0,0.0,-1.0,-0.1826171875,0.36224365234375,0.3431396484375,0.84710693359375,-0.7587890625,-0.05517578125,0.6787109375,-0.5625,0.25,0.25
1.6649999999999865,0.0,-4.0,-4.0,2.0,-3.0,-3.0,-2.0,-1.0,-0.1826171875,0.36224365234375,0.3431396484375,0.84710693359375,-0.7587890625,-0.05517578125,0.6787109375,-0.5625,0.25,0.25
1.6699999999999864,0.0,-4.0,-4.0,2.0,-3.0,-3.0,-2.0,-1.0,-0.1826171875,0.36224365234375,0.3431396484375,0.84710693359375,-0.75732421875,-0.060546875,0.68994140625,-0.6875,-0.125,-0.1875
1.6749999999999863,-1.0,0.0,-3.0,-1.0,-1.0,0.0,-2.0,-1.0,-0.18255615234375,0.3623046875,0.3431396484375,0.84710693359375,-0.755859375,-0.05908203125,0.681640625,0.125,-0.375,-0.4375
1.6799999999999862,-3.0,-3.0,1.0,4.0,1.0,-1.0,-1.0,-1.0,-0.18255615234375,0.3623046875,0.3431396484375,0.84710693359375,-0.755859375,-0.05908203125,0.681640625,0.125,-0.375,-0.4375
1.684999999999986,-1.0,1.0,-1.0,-2.0,-1.0,-2.0,1.0,-2.0,-0.18255615234375,0.3623046875,0.3431396484375,0.84710693359375,-0.755859375,-0.05908203125,0.681640625,0.125,-0.375,-0.4375
1.689999999999986,-1.0,1.0,-1.0,-2.0,-1.0,-2.0,1.0,-2.0,-0.18255615234375,0.3623046875,0.3431396484375,0.84710693359375,-0.755859375,-0.05908203125,0.681640625,0.125,-0.375,-0.4375
1.6949999999999859,-1.0,0.0,6.0,2.0,-1.0,-1.0,-2.0,0.0,-0.18255615234375,0.3623046875,0.3431396484375,0.84710693359375,-0.75830078125,-0.05126953125,0.681640625,0.1875,-0.5,-0.125
1.6999999999999857,-1.0,0.0,6.0,2.0,-1.0,-1.0,-2.0,0.0,-0.18255615234375,0.3623046875,0.3431396484375,0.84710693359375,-0.75830078125,-0.05126953125,0.681640625,0.1875,-0.5,-0.125
1.7049999999999856,-2.0,-7.0,-7.0,-9.0,-3.0,-2.0,-1.0,-2.0,-0.18255615234375,0.3623046875,0.3431396484375,0.84710693359375,-0.76025390625,-0.05810546875,0.6904296875,-0.3125,-0.75,0.0625
1.7099999999999855,-1.0,1.0,-1.0,-3.0,-1.0,0.0,1.0,1.0,-0.18255615234375,0.3623046875,0.3431396484375,0.84710693359375,-0.75439453125,-0.0625,0.68896484375,-0.125,-0.6875,0.375
1.7149999999999854,-1.0,-2.0,-2.0,-5.0,-2.0,-2.0,-1.0,-1.0,-0.18255615234375,0.3623046875,0.3431396484375,0.84710693359375,-0.75439453125,-0.0625,0.68896484375,-0.125,-0.6875,0.375
1.7199999999999853,-1.0,-3.0,-11.0,-4.0,1.0,-1.0,-2.0,0.0,-0.18255615234375,0.3623046875,0.3431396484375,0.84710693359375,-0.75439453125,-0.0625,0.68896484375,-0.125,-0.6875,0.375
1.7249999999999852,-1.0,-3.0,-11.0,-4.0,1.0,-1.0,-2.0,0.0,-0.18255615234375,0.3623046875,0.3431396484375,0.84710693359375,-0.7548828125,-0.06103515625,0.685546875,0.5625,-0.4375,0.5
1.729999999999985,0.0,0.0,1.0,-2.0,-2.0,0.0,0.0,-1.0,-0.18255615234375,0.3623046875,0.3431396484375,0.84710693359375,-0.7548828125,-0.06103515625,0.685546875,0.5625,-0.4375,0.5
1.734999999999985,-1.0,-1.0,3.0,5.0,-3.0,-2.0,0.0,-2.0,-0.18255615234375,0.3623046875,0.3431396484375,0.84710693359375,-0.75537109375,-0.05517578125,0.68408203125,0.625,-0.375,0.625
1.739999999999985,-1.0,-1.0,3.0,5.0,-3.0,-2.0,0.0,-2.0,-0.18255615234375,0.3623046875,0.3431396484375,0.84710693359375,-0.75537109375,-0.05517578125,0.68408203125,0.625,-0.375,0.625
1.7449999999999848,-1.0,-1.0,-1.0,-4.0,-2.0,0.0,-1.0,-1.0,-0.18255615234375,0.3623046875,0.3431396484375,0.84710693359375,-0.75537109375,-0.05517578125,0.68408203125,0.625,-0.375,0.625
1.7499999999999847,0.0,0.0,4.0,4.0,0.0,-2.0,-1.0,0.0,-0.1824951171875,0.3623046875,0.34320068359375,0.84710693359375,-0.7509765625,-0.05419921875,0.6923828125,-0.0625,-0.1875,0.5
1.7549999999999846,-1.0,-1.0,2.0,0.0,-1.0,-3.0,1.0,0.0,-0.1824951171875,0.3623046875,0.34320068359375,0.84710693359375,-0.7509765625,-0.05419921875,0.6923828125,-0.0625,-0.1875,0.5
1.7599999999999845,-1.0,-1.0,2.0,0.0,-1.0,-3.0,1.0,0.0,-0.1824951171875,0.3623046875,0.34320068359375,0.84710693359375,-0.75634765625,-0.052734375,0.68701171875,-0.25,-0.125,0.25
1.7649999999999844,-1.0,1.0,1.0,1.0,1.0,0.0,-2.0,-1.0,-0.1824951171875,0.3623046875,0.34320068359375,0.84710693359375,-0.75634765625,-0.052734375,0.68701171875,-0.25,-0.125,0.25
1.7699999999999843,-1.0,-3.0,1.0,-2.0,-3.0,-2.0,-1.0,-1.0,-0.18243408203125,0.3623046875,0.34320068359375,0.84710693359375,-0.7548828125,-0.0546875,0.68896484375,-0.3125,-0.25,0.0
1.7749999999999841,-1.0,-1.0,-5.0,-8.0,0.0,-1.0,-1.0,-2.0,-0.18243408203125,0.3623046875,0.34320068359375,0.84710693359375,-0.74951171875,-0.05615234375,0.685546875,-0.375,-0.125,-0.375
1.779999999999984,0.0,-1.0,-4.0,0.0,-1.0,-1.0,0.0,0.0,-0.18243408203125,0.3623046875,0.34320068359375,0.84710693359375,-0.74951171875,-0.05615234375,0.685546875,-0.375,-0.125,-0.375
1.784999999999984,0.0,-1.0,-4.0,0.0,-1.0,-1.0,0.0,0.0,-0.18243408203125,0.3623046875,0.34320068359375,0.84710693359375,-0.7548828125,-0.05615234375,0.689453125,-0.375,-0.0625,-0.5625
1.7899999999999838,-2.0,1.0,-9.0,-4.0,-1.0,-1.0,-1.0,-1.0,-0.18243408203125,0.3623046875,0.34320068359375,0.84710693359375,-0.7548828125,-0.05615234375,0.689453125,-0.375,-0.0625,-0.5625
1.7949999999999837,-2.0,1.0,1.0,-1.0,-4.0,-3.0,-1.0,0.0,-0.18243408203125,0.3623046875,0.34320068359375,0.84710693359375,-0.75927734375,-0.0595703125,0.6826171875,-0.375,-0.1875,-0.4375
1.7999999999999836,-3.0,0.0,0.0,3.0,-2.0,-1.0,-1.0,-2.0,-0.182373046875,0.3623046875,0.34320068359375,0.84710693359375,-0.75634765625,-0.0576171875,0.6884765625,-0.5,-0.5625,-0.0625
1.8049999999999835,0.0,0.0,-1.0,-3.0,-1.0,-1.0,-1.0,-2.0,-0.182373046875,0.3623046875,0.34320068359375,0.84710693359375,-0.75634765625,-0.0576171875,0.6884765625,-0.5,-0.5625,-0.0625
1.8099999999999834,0.0,0.0,-1.0,-3.0,-1.0,-1.0,-1.0,-2.0,-0.182373046875,0.3623046875,0.34320068359375,0.84710693359375,-0.755859375,-0.0634765625,0.68603515625,-0.5,-0.5,0.0
1.8149999999999833,-1.0,-1.0,-10.0,-7.0,-2.0,0.0,-2.0,-1.0,-0.182373046875,0.3623046875,0.34320068359375,0.84710693359375,-0.755859375,-0.0634765625,0.68603515625,-0.5,-0.5,0.0
1.8199999999999832,-1.0,-1.0,-1.0,0.0,1.0,0.0,-1.0,-2.0,-0.182373046875,0.3623046875,0.34320068359375,0.84710693359375,-0.755859375,-0.0634765625,0.68603515625,-0.5,-0.5,0.0
1.824999999999983,-1.0,-1.0,-1.0,0.0,1.0,0.0,-1.0,-2.0,-0.182373046875,0.3623046875,0.34320068359375,0.84710693359375,-0.751953125,-0.0595703125,0.68896484375,0.0625,-0.3125,0.375
1.829999999999983,-2.0,-2.0,-2.0,-3.0,-2.0,-3.0,-1.0,-1.0,-0.182373046875,0.3623046875,0.34326171875,0.84710693359375,-0.76123046875,-0.0546875,0.6845703125,0.5625,-0.4375,0.5625
1.8349999999999829,-2.0,-1.0,-1.0,0.0,-1.0,-1.0,0.0,-2.0,-0.182373046875,0.3623046875,0.34326171875,0.84710693359375,-0.76123046875,-0.0546875,0.6845703125,0.5625,-0.4375,0.5625
1.8399999999999828,-2.0,-1.0,-1.0,0.0,-1.0,-1.0,0.0,-2.0,-0.182373046875,0.3623046875,0.34326171875,0.84710693359375,-0.75634765625,-0.05126953125,0.6865234375,0.25,-0.75,0.6875
1.8449999999999827,-1.0,0.0,-3.0,1.0,-2.0,-1.0,-1.0,-1.0,-0.18231201171875,0.36236572265625,0.34326171875,0.84710693359375,-0.7548828125,-0.05224609375,0.68212890625,-0.25,-0.9375,0.625
1.8499999999999825,-1.0,0.0,0.0,-4.0,-1.0,-1.0,-2.0,-1.0,-0.18231201171875,0.36236572265625,0.34326171875,0.84710693359375,-0.75,-0.0576171875,0.68310546875,0.25,-1.0,0.375
1.8549999999999824,-1.0,-1.0,-3.0,0.0,-2.0,-1.0,-2.0,-1.0,-0.18231201171875,0.36236572265625,0.34326171875,0.84710693359375,-0.75,-0.0576171875,0.68310546875,0.25,-1.0,0.375
1.8599999999999823,0.0,-1.0,-6.0,1.0,-1.0,0.0,-1.0,0.0,-0.18194580078125,0.36224365234375,0.34332275390625,0.84716796875,-0.75390625,-0.048828125,0.69091796875,0.875,-1.25,0.125
1.8649999999999822,-1.0,0.0,-4.0,-1.0,0.0,0.0,-1.0,-2.0,-0.181640625,0.36212158203125,0.34344482421875,0.84722900390625,-0.7587890625,-0.04736328125,0.69091796875,0.375,-1.1875,0.25
1.8699999999999821,-2.0,-4.0,-5.0,8.0,2.0,-1.0,-1.0,-1.0,-0.181640625,0.36212158203125,0.34344482421875,0.84722900390625,-0.7587890625,-0.04736328125,0.69091796875,0.375,-1.1875,0.25
1.874999999999982,-2.0,-1.0,-3.0,-2.0,-1.0,-2.0,-2.0,-1.0,-0.181640625,0.36212158203125,0.34344482421875,0.84722900390625,-0.751953125,-0.0546875,0.685546875,-0.4375,-0.625,0.125
1.879999999999982,0.0,0.0,1.0,-6.0,-1.0,-1.0,-1.0,0.0,-0.181640625,0.36212158203125,0.34344482421875,0.84722900390625,-0.75048828125,-0.0625,0.69482421875,-0.125,-0.125,-0.1875
1.8849999999999818,-1.0,-1.0,-5.0,-6.0,-2.0,-1.0,0.0,0.0,-0.181640625,0.36212158203125,0.34344482421875,0.84722900390625,-0.75048828125,-0.0625,0.69482421875,-0.125,-0.125,-0.1875
1.8899999999999817,-2.0,-2.0,-5.0,-3.0,-3.0,0.0,-2.0,-1.0,-0.181640625,0.36212158203125,0.34344482421875,0.84722900390625,-0.75048828125,-0.0625,0.69482421875,-0.125,-0.125,-0.1875
1.8949999999999816,-2.0,-2.0,-5.0,-3.0,-3.0,0.0,-2.0,-1.0,-0.18157958984375,0.36212158203125,0.343505859375,0.84722900390625,-0.748046875,-0.052734375,0.68896484375,0.6875,0.3125,-0.375
1.8999999999999815,0.0,0.0,-9.0,-3.0,-2.0,-1.0,1.0,0.0,-0.18157958984375,0.36212158203125,0.343505859375,0.84722900390625,-0.748046875,-0.052734375,0.68896484375,0.6875,0.3125,-0.375
1.9049999999999814,0.0,0.0,-9.0,-3.0,-2.0,-1.0,1.0,0.0,-0.18157958984375,0.36212158203125,0.343505859375,0.84722900390625,-0.755859375,-0.04443359375,0.68798828125,0.25,0.5,-0.125
1.9099999999999813,-2.0,-1.0,2.0,1.0,0.0,1.0,0.0,0.0,-0.18157958984375,0.36212158203125,0.343505859375,0.84722900390625,-0.755859375,-0.04443359375,0.68798828125,0.25,0.5,-0.125
1.9149999999999812,1.0,0.0,6.0,-3.0,0.0,0.0,-1.0,-2.0,-0.1815185546875,0.36212158203125,0.343505859375,0.84722900390625,-0.7587890625,-0.05029296875,0.68603515625,-0.6875,0.25,-0.0625
1.919999999999981,1.0,-1.0,-3.0,-5.0,-1.0,-3.0,-1.0,-1.0,-0.1815185546875,0.36212158203125,0.343505859375,0.84722900390625,-0.7587890625,-0.05029296875,0.68603515625,-0.6875,0.25,-0.0625
1.924999999999981,0.0,1.0,0.0,-1.0,0.0,-1.0,-3.0,0.0,-0.1815185546875,0.36212158203125,0.343505859375,0.84722900390625,-0.7587890625,-0.05029296875,0.68603515625,-0.6875,0.25,-0.0625
1.9299999999999808,-3.0,-1.0,1.0,1.0,-1.0,-1.0,-1.0,-1.0,-0.1815185546875,0.36212158203125,0.343505859375,0.84722900390625,-0.7529296875,-0.06005859375,0.69287109375,0.0,0.0,-0.1875
1.9349999999999807,1.0,-1.0,-4.0,-2.0,1.0,-1.0,-2.0,-1.0,-0.1815185546875,0.36212158203125,0.343505859375,0.84722900390625,-0.7529296875,-0.06005859375,0.69287109375,0.0,0.0,-0.1875
1.9399999999999806,1.0,-1.0,-4.0,-2.0,1.0,-1.0,-2.0,-1.0,-0.1815185546875,0.36212158203125,0.343505859375,0.84722900390625,-0.7578125,-0.0517578125,0.6845703125,0.375,-0.4375,-0.1875
1.9449999999999805,-2.0,0.0,5.0,-1.0,-1.0,-1.0,-2.0,0.0,-0.1815185546875,0.36212158203125,0.343505859375,0.84722900390625,-0.7578125,-0.0517578125,0.6845703125,0.375,-0.4375,-0.1875
1.9499999999999804,-2.0,0.0,2.0,1.0,-1.0,-1.0,-1.0,-1.0,-0.18145751953125,0.36212158203125,0.343505859375,0.84722900390625,-0.751953125,-0.0556640625,0.685546875,-0.25,-0.875,0.0625
1.9549999999999803,-2.0,0.0,2.0,1.0,-1.0,-1.0,-1.0,-1.0,-0.18145751953125,0.36212158203125,0.343505859375,0.84722900390625,-0.75,-0.0576171875,0.6904296875,-0.6875,-0.625,0.1875
1.9599999999999802,-1.0,-1.0,-17.0,-3.0,-1.0,-1.0,0.0,-2.0,-0.18145751953125,0.36212158203125,0.343505859375,0.84722900390625,-0.75,-0.0576171875,0.6904296875,-0.6875,-0.625,0.1875
1.96499999999998,1.0,-2.0,1.0,0.0,-1.0,-2.0,-1.0,-1.0,-0.18145751953125,0.36212158203125,0.343505859375,0.84722900390625,-0.75,-0.0576171875,0.6904296875,-0.6875,-0.625,0.1875
1.96999999999998,1.0,-2.0,1.0,0.0,-1.0,-2.0,-1.0,-1.0,-0.18145751953125,0.36212158203125,0.343505859375,0.84722900390625,-0.74853515625,-0.06103515625,0.69091796875,-0.3125,-0.1875,0.375
1.9749999999999799,0.0,0.0,5.0,2.0,0.0,0.0,0.0,-2.0,-0.18145751953125,0.36212158203125,0.343505859375,0.84722900390625,-0.74853515625,-0.06103515625,0.69091796875,-0.3125,-0.1875,0.375
1.9799999999999798,0.0,0.0,-5.0,-4.0,0.0,-1.0,-2.0,-1.0,-0.18145751953125,0.36212158203125,0.343505859375,0.84722900390625,-0.74853515625,-0.06103515625,0.69091796875,-0.3125,-0.1875,0.375
1.9849999999999797,-1.0,0.0,5.0,9.0,-1.0,0.0,-3.0,-1.0,-0.18145751953125,0.36212158203125,0.34356689453125,0.84722900390625,-0.7548828125,-0.05419921875,0.69189453125,0.4375,0.0,0.0625
1.9899999999999796,-1.0,-2.0,-15.0,-4.0,-2.0,-1.0,0.0,-1.0,-0.18145751953125,0.36212158203125,0.34356689453125,0.84722900390625,-0.7548828125,-0.05419921875,0.69189453125,0.4375,0.0,0.0625
1.9949999999999795,-1.0,-1.0,-1.0,-2.0,-1.0,-1.0,0.0,-2.0,-0.181396484375,0.36212158203125,0.34356689453125,0.84722900390625,-0.75341796875,-0.04638671875,0.6904296875,0.3125,0.1875,-0.0625
1.9999999999999793,-2.0,0.0,3.0,2.0,0.0,-2.0,-2.0,0.0,-0.181396484375,0.36212158203125,0.34356689453125,0.84722900390625,-0.75341796875,-0.04638671875,0.6904296875,0.3125,0.1875,-0.0625
2.0049999999999795,-1.0,-3.0,-10.0,-7.0,-1.0,-1.0,-1.0,-1.0,-0.181396484375,0.36212158203125,0.34356689453125,0.84722900390625,-0.7529296875,-0.0458984375,0.68408203125,-0.625,0.3125,-0.0625
2.0099999999999794,-3.0,-3.0,-1.0,-5.0,-2.0,-2.0,-2.0,-2.0,-0.18157958984375,0.362060546875,0.34356689453125,0.84722900390625,-0.75,-0.05908203125,0.6875,-1.25,0.1875,-0.5
2.0149999999999793,0.0,1.0,10.0,1.0,0.0,-1.0,-1.0,-1.0,-0.18157958984375,0.362060546875,0.34356689453125,0.84722900390625,-0.75,-0.05908203125,0.6875,-1.25,0.1875,-0.5
2.019999999999979,1.0,0.0,1.0,-4.0,-1.0,1.0,-1.0,0.0,-0.18157958984375,0.362060546875,0.34356689453125,0.84722900390625,-0.75146484375,-0.05810546875,0.68994140625,-0.25,0.125,-0.9375
2.024999999999979,-1.0,-1.0,1.0,-1.0,-2.0,-2.0,0.0,-1.0,-0.18157958984375,0.362060546875,0.34356689453125,0.84722900390625,-0.75146484375,-0.05810546875,0.68994140625,-0.25,0.125,-0.9375
2.029999999999979,-1.0,-1.0,1.0,-1.0,-2.0,-2.0,0.0,-1.0,-0.1815185546875,0.362060546875,0.3436279296875,0.84722900390625,-0.75732421875,-0.05224609375,0.6884765625,0.375,-0.1875,-0.8125
2.034999999999979,-2.0,-3.0,1.0,0.0,0.0,-2.0,1.0,-1.0,-0.1815185546875,0.362060546875,0.3436279296875,0.84722900390625,-0.75732421875,-0.05224609375,0.6884765625,0.375,-0.1875,-0.8125
2.0399999999999787,-2.0,-1.0,-2.0,-2.0,-1.0,-1.0,0.0,-2.0,-0.1815185546875,0.362060546875,0.3436279296875,0.84722900390625,-0.75634765625,-0.05517578125,0.69287109375,-0.625,-0.125,-0.5
2.0449999999999786,0.0,-2.0,-6.0,-4.0,-1.0,-3.0,0.0,-3.0,-0.1815185546875,0.362060546875,0.3436279296875,0.84722900390625,-0.75634765625,-0.05517578125,0.69287109375,-0.625,-0.125,-0.5
2.0499999999999785,-1.0,-1.0,6.0,4.0,0.0,-2.0,-2.0,-2.0,-0.18170166015625,0.36199951171875,0.3436279296875,0.84722900390625,-0.7529296875,-0.06396484375,0.68798828125,-1.0625,0.3125,-0.25
2.0549999999999784,-2.0,-1.0,-7.0,-8.0,-3.0,-2.0,-2.0,-1.0,-0.18170166015625,0.36199951171875,0.3436279296875,0.84722900390625,-0.7529296875,-0.06396484375,0.68798828125,-1.0625,0.3125,-0.25
2.0599999999999783,1.0,-1.0,-7.0,-1.0,0.0,1.0,1.0,0.0,-0.18170166015625,0.36199951171875,0.3436279296875,0.84722900390625,-0.7529296875,-0.06396484375,0.68798828125,-1.0625,0.3125,-0.25
2.064999999999978,-2.0,-1.0,5.0,10.0,-1.0,-1.0,-1.0,-1.0,-0.18170166015625,0.3619384765625,0.3436279296875,0.84722900390625,-0.75146484375,-0.060546875,0.69091796875,0.1875,0.4375,-0.125
2.069999999999978,-1.0,-1.0,1.0,2.0,-3.0,-1.0,-1.0,-1.0,-0.18170166015625,0.3619384765625,0.3436279296875,0.84722900390625,-0.755859375,-0.05810546875,0.69189453125,0.625,0.1875,0.1875
2.074999999999978,-2.0,0.0,6.0,4.0,1.0,0.0,-1.0,-1.0,-0.18170166015625,0.36199951171875,0.3436279296875,0.84722900390625,-0.75634765625,-0.05126953125,0.6845703125,-0.375,-0.1875,0.4375
2.079999999999978,0.0,-1.0,-2.0,-4.0,-2.0,-3.0,-2.0,-1.0,-0.18170166015625,0.36199951171875,0.3436279296875,0.84722900390625,-0.75634765625,-0.05126953125,0.6845703125,-0.375,-0.1875,0.4375
2.0849999999999778,-1.0,1.0,-3.0,-5.0,-2.0,-2.0,-1.0,-2.0,-0.18170166015625,0.36199951171875,0.3436279296875,0.84722900390625,-0.75634765625,-0.05126953125,0.6845703125,-0.375,-0.1875,0.4375
2.0899999999999777,-1.0,1.0,-3.0,-5.0,-2.0,-2.0,-1.0,-2.0,-0.18170166015625,0.36199951171875,0.3436279296875,0.84722900390625,-0.75341796875,-0.06005859375,0.6884765625,-0.8125,-0.1875,0.375
2.0949999999999775,0.0,-2.0,-5.0,0.0,-1.0,0.0,-1.0,0.0,-0.18170166015625,0.36199951171875,0.3436279296875,0.84722900390625,-0.75341796875,-0.06005859375,0.6884765625,-0.8125,-0.1875,0.375
2.0999999999999774,0.0,-2.0,-5.0,0.0,-1.0,0.0,-1.0,0.0,-0.18170166015625,0.36199951171875,0.3436279296875,0.84722900390625,-0.75341796875,-0.06005859375,0.6884765625,-0.8125,-0.1875,0.375
2.1049999999999773,-1.0,0.0,-5.0,-4.0,-1.0,-1.0,-2.0,0.0,-0.18170166015625,0.36199951171875,0.3436279296875,0.84722900390625,-0.75341796875,-0.056640625,0.68359375,0.125,-0.25,0.0625
2.1099999999999772,-1.0,0.0,-5.0,-4.0,-1.0,-1.0,-2.0,0.0,-0.18170166015625,0.36199951171875,0.3436279296875,0.84722900390625,-0.75341796875,-0.056640625,0.68359375,0.125,-0.25,0.0625
2.114999999999977,-1.0,0.0,-4.0,-3.0,-1.0,-2.0,-1.0,-2.0,-0.181640625,0.36199951171875,0.3436279296875,0.84722900390625,-0.75390625,-0.05322265625,0.6865234375,0.5625,-0.5625,-0.1875
2.119999999999977,-1.0,0.0,1.0,1.0,-2.0,-2.0,-1.0,-1.0,-0.181640625,0.36199951171875,0.34368896484375,0.84722900390625,-0.75146484375,-0.0478515625,0.685546875,0.0,-0.8125,-0.125
2.124999999999977,-1.0,1.0,-1.0,0.0,-1.0,-2.0,-2.0,-2.0,-0.181640625,0.36199951171875,0.34368896484375,0.84722900390625,-0.75146484375,-0.0478515625,0.685546875,0.0,-0.8125,-0.125
2.129999999999977,-2.0,0.0,-1.0,-2.0,-4.0,-2.0,1.0,-1.0,-0.181640625,0.36199951171875,0.34368896484375,0.84722900390625,-0.751953125,-0.0556640625,0.68408203125,-0.625,-0.6875,0.0
2.1349999999999767,-1.0,-2.0,2.0,1.0,-1.0,-1.0,-1.0,-1.0,-0.181640625,0.36199951171875,0.34368896484375,0.84722900390625,-0.751953125,-0.0556640625,0.68408203125,-0.625,-0.6875,0.0
2.1399999999999766,-2.0,-1.0,-4.0,-5.0,-1.0,-1.0,-2.0,-1.0,-0.18157958984375,0.36199951171875,0.34368896484375,0.84722900390625,-0.7529296875,-0.06005859375,0.6943359375,-0.375,-0.3125,0.0
2.1449999999999765,0.0,-1.0,0.0,-2.0,-2.0,-1.0,-1.0,0.0,-0.18157958984375,0.36199951171875,0.34368896484375,0.84722900390625,-0.7529296875,-0.06005859375,0.6943359375,-0.375,-0.3125,0.0
2.1499999999999764,-1.0,0.0,-6.0,-4.0,0.0,1.0,-2.0,-1.0,-0.18157958984375,0.36199951171875,0.34368896484375,0.84722900390625,-0.7548828125,-0.0556640625,0.6904296875,0.25,-0.375,0.125
2.1549999999999763,0.0,-3.0,1.0,8.0,1.0,-1.0,0.0,-1.0,-0.18157958984375,0.36199951171875,0.34368896484375,0.84722900390625,-0.7548828125,-0.0556640625,0.6904296875,0.25,-0.375,0.125
2.159999999999976,-2.0,-2.0,2.0,3.0,-3.0,-2.0,-1.0,-1.0,-0.18157958984375,0.36199951171875,0.34368896484375,0.84722900390625,-0.7548828125,-0.0556640625,0.6904296875,0.25,-0.375,0.125
2.164999999999976,-2.0,-2.0,2.0,3.0,-3.0,-2.0,-1.0,-1.0,-0.18157958984375,0.36199951171875,0.34368896484375,0.84722900390625,-0.755859375,-0.0537109375,0.68701171875,0.4375,-0.25,0.0
2.169999999999976,-2.0,-2.0,2.0,3.0,-3.0,-2.0,-1.0,-1.0,-0.18157958984375,0.36199951171875,0.34368896484375,0.84722900390625,-0.755859375,-0.0537109375,0.68701171875,0.4375,-0.25,0.0
2.174999999999976,-1.0,-3.0,0.0,1.0,1.0,-1.0,0.0,-1.0,-0.18157958984375,0.36199951171875,0.34368896484375,0.84722900390625,-0.7509765625,-0.056640625,0.69091796875,-0.1875,0.0625,0.125
2.1799999999999757,0.0,-2.0,4.0,-2.0,-2.0,-1.0,-3.0,-2.0,-0.18157958984375,0.36199951171875,0.34368896484375,0.84722900390625,-0.7509765625,-0.056640625,0.69091796875,-0.1875,0.0625,0.125
2.1849999999999756,-1.0,-3.0,3.0,3.0,0.0,0.0,0.0,-1.0,-0.1815185546875,0.36199951171875,0.34368896484375,0.84722900390625,-0.75,-0.05419921875,0.68896484375,-0.5625,0.5,0.0625
2.1899999999999755,-1.0,-1.0,3.0,-4.0,0.0,0.0,1.0,0.0,-0.1815185546875,0.36199951171875,0.34368896484375,0.84722900390625,-0.75,-0.05419921875,0.68896484375,-0.5625,0.5,0.0625
2.1949999999999754,-1.0,-1.0,3.0,-4.0,0.0,0.0,1.0,0.0,-0.1815185546875,0.36199951171875,0.34368896484375,0.84722900390625,-0.75244140625,-0.05712890625,0.6884765625,-0.5,0.5,-0.0625
2.1999999999999753,-3.0,-2.0,-2.0,-3.0,-2.0,-1.0,-2.0,-1.0,-0.1815185546875,0.36199951171875,0.34368896484375,0.84722900390625,-0.75244140625,-0.05712890625,0.6884765625,-0.5,0.5,-0.0625
2.204999999999975,-1.0,-2.0,1.0,6.0,-2.0,-3.0,-1.0,0.0,-0.1815185546875,0.36199951171875,0.34368896484375,0.84722900390625,-0.75341796875,-0.05322265625,0.6845703125,-0.4375,0.375,-0.375
2.209999999999975,0.0,1.0,-3.0,-3.0,-2.0,-1.0,-1.0,1.0,-0.1815185546875,0.36199951171875,0.34368896484375,0.84722900390625,-0.75341796875,-0.05322265625,0.6845703125,-0.4375,0.375,-0.375
2.214999999999975,0.0,1.0,-3.0,-3.0,-2.0,-1.0,-1.0,1.0,-0.1815185546875,0.36199951171875,0.34375,0.84722900390625,-0.75341796875,-0.05615234375,0.6826171875,-0.5,0.0625,-0.5
2.219999999999975,0.0,-2.0,-1.0,1.0,-1.0,0.0,-1.0,0.0,-0.1815185546875,0.36199951171875,0.34375,0.84722900390625,-0.75341796875,-0.05615234375,0.6826171875,-0.5,0.0625,-0.5
2.2249999999999748,0.0,-1.0,-2.0,-5.0,-3.0,-1.0,0.0,1.0,-0.1815185546875,0.36199951171875,0.34375,0.84722900390625,-0.75390625,-0.05810546875,0.68408203125,-0.75,0.0,-0.75
2.2299999999999747,0.0,-1.0,-2.0,-5.0,-3.0,-1.0,0.0,1.0,-0.1815185546875,0.36199951171875,0.34375,0.84722900390625,-0.75390625,-0.05810546875,0.68408203125,-0.75,0.0,-0.75
2.2349999999999746,-1.0,-3.0,3.0,0.0,-1.0,-1.0,-2.0,-2.0,-0.18145751953125,0.36199951171875,0.34375,0.84722900390625,-0.7529296875,-0.052734375,0.6943359375,-0.375,-0.1875,-0.4375
2.2399999999999745,-2.0,-2.0,-14.0,1.0,-2.0,-2.0,0.0,0.0,-0.18145751953125,0.36199951171875,0.34375,0.84722900390625,-0.7548828125,-0.0595703125,0.6953125,-0.25,0.0625,-0.25
2.2449999999999743,-2.0,-3.0,-2.0,2.0,-1.0,0.0,-1.0,-1.0,-0.18145751953125,0.36199951171875,0.34375,0.84722900390625,-0.7548828125,-0.0595703125,0.6953125,-0.25,0.0625,-0.25
2.2499999999999742,-1.0,0.0,-7.0,-3.0,-1.0,-1.0,0.0,-2.0,-0.18145751953125,0.36199951171875,0.34375,0.84722900390625,-0.7548828125,-0.0595703125,0.6953125,-0.25,0.0625,-0.25
2.254999999999974,-1.0,0.0,-7.0,-3.0,-1.0,-1.0,0.0,-2.0,-0.18145751953125,0.3619384765625,0.34375,0.84722900390625,-0.7568359375,-0.06103515625,0.68994140625,-0.125,0.0,-0.1875
2.259999999999974,-1.0,-1.0,-4.0,-4.0,-1.0,0.0,-1.0,-2.0,-0.18145751953125,0.3619384765625,0.34375,0.84722900390625,-0.7568359375,-0.06103515625,0.68994140625,-0.125,0.0,-0.1875
2.264999999999974,-1.0,-1.0,-3.0,-3.0,-2.0,-2.0,-1.0,-1.0,-0.18145751953125,0.3619384765625,0.34375,0.84722900390625,-0.7568359375,-0.06103515625,0.68994140625,-0.125,0.0,-0.1875
2.269999999999974,-2.0,1.0,0.0,-1.0,-2.0,-1.0,0.0,-2.0,-0.18145751953125,0.3619384765625,0.34375,0.84722900390625,-0.75146484375,-0.05712890625,0.69287109375,0.125,0.0,-0.25
2.2749999999999737,-1.0,-1.0,-8.0,-6.0,-1.0,-2.0,0.0,-2.0,-0.181396484375,0.3619384765625,0.34375,0.84722900390625,-0.7529296875,-0.0517578125,0.68505859375,0.4375,0.3125,-0.125
2.2799999999999736,1.0,-2.0,-1.0,-6.0,0.0,-2.0,0.0,-1.0,-0.181396484375,0.3619384765625,0.34375,0.84722900390625,-0.7529296875,-0.0517578125,0.68505859375,0.4375,0.3125,-0.125
2.2849999999999735,0.0,-2.0,2.0,0.0,0.0,0.0,-2.0,1.0,-0.181396484375,0.3619384765625,0.34375,0.84722900390625,-0.7529296875,-0.0517578125,0.68505859375,0.4375,0.3125,-0.125
2.2899999999999734,1.0,-1.0,-3.0,-1.0,-1.0,1.0,1.0,0.0,-0.181396484375,0.36199951171875,0.34375,0.84722900390625,-0.7568359375,-0.05126953125,0.685546875,-0.1875,0.1875,0.25
2.2949999999999733,-3.0,-1.0,4.0,1.0,0.0,-1.0,-1.0,-1.0,-0.181396484375,0.36199951171875,0.34375,0.84722900390625,-0.76025390625,-0.05712890625,0.685546875,-0.4375,-0.125,-0.0625
2.299999999999973,-1.0,1.0,-6.0,-5.0,-2.0,0.0,-1.0,-1.0,-0.181396484375,0.36199951171875,0.34375,0.84722900390625,-0.76025390625,-0.05712890625,0.685546875,-0.4375,-0.125,-0.0625
2.304999999999973,1.0,2.0,-1.0,-1.0,0.0,-2.0,0.0,-1.0,-0.181396484375,0.36199951171875,0.34375,0.84722900390625,-0.75048828125,-0.0546875,0.68896484375,0.0,-0.25,-0.0625
2.309999999999973,0.0,-1.0,6.0,0.0,-2.0,-1.0,-1.0,0.0,-0.181396484375,0.36199951171875,0.34375,0.84722900390625,-0.75048828125,-0.0546875,0.68896484375,0.0,-0.25,-0.0625
2.314999999999973,0.0,-1.0,6.0,0.0,-2.0,-1.0,-1.0,0.0,-0.18133544921875,0.36199951171875,0.34381103515625,0.84722900390625,-0.7490234375,-0.0517578125,0.69140625,0.5625,-0.4375,-0.25
2.3199999999999728,-1.0,-1.0,0.0,-3.0,-2.0,-2.0,-3.0,-1.0,-0.18133544921875,0.36199951171875,0.34381103515625,0.84722900390625,-0.7490234375,-0.0517578125,0.69140625,0.5625,-0.4375,-0.25
2.3249999999999726,-1.0,0.0,2.0,-1.0,0.0,1.0,-2.0,0.0,-0.18133544921875,0.36199951171875,0.34381103515625,0.84722900390625,-0.7490234375,-0.0517578125,0.69140625,0.5625,-0.4375,-0.25
2.3299999999999725,-1.0,0.0,2.0,-1.0,0.0,1.0,-2.0,0.0,-0.18133544921875,0.36199951171875,0.34381103515625,0.84722900390625,-0.75390625,-0.05029296875,0.6865234375,-0.375,-0.5,-0.0625
2.3349999999999724,-3.0,-1.0,-1.0,-1.0,-2.0,-2.0,-1.0,-2.0,-0.18133544921875,0.36199951171875,0.34381103515625,0.84722900390625,-0.75390625,-0.05029296875,0.6865234375,-0.375,-0.5,-0.0625
2.3399999999999723,-3.0,-1.0,-1.0,-1.0,-2.0,-2.0,-1.0,-2.0,-0.181396484375,0.36181640625,0.34393310546875,0.84722900390625,-0.74658203125,-0.0556640625,0.69384765625,-1.25,-0.0625,0.0625
2.344999999999972,0.0,-2.0,-9.0,-9.0,-1.0,1.0,0.0,0.0,-0.181396484375,0.36181640625,0.34393310546875,0.84722900390625,-0.74658203125,-0.0556640625,0.69384765625,-1.25,-0.0625,0.0625
2.349999999999972,-2.0,-1.0,3.0,0.0,-1.0,-2.0,-1.0,0.0,-0.181396484375,0.36181640625,0.34393310546875,0.84722900390625,-0.74658203125,-0.0556640625,0.69384765625,-1.25,-0.0625,0.0625
2.354999999999972,-2.0,-1.0,3.0,0.0,-1.0,-2.0,-1.0,0.0,-0.181396484375,0.36181640625,0.34393310546875,0.84722900390625,-0.75,-0.060546875,0.6923828125,-0.875,0.6875,-0.3125
2.359999999999972,-2.0,-1.0,2.0,1.0,1.0,-1.0,-1.0,-1.0,-0.181396484375,0.36181640625,0.34393310546875,0.84722900390625,-0.75,-0.060546875,0.6923828125,-0.875,0.6875,-0.3125
2.364999999999972,-2.0,-1.0,2.0,1.0,1.0,-1.0,-1.0,-1.0,-0.1815185546875,0.3619384765625,0.34381103515625,0.84722900390625,-0.75048828125,-0.056640625,0.6875,-0.1875,1.25,-0.75
2.3699999999999717,0.0,0.0,1.0,1.0,-1.0,1.0,0.0,-2.0,-0.1815185546875,0.3619384765625,0.34381103515625,0.84722900390625,-0.75048828125,-0.056640625,0.6875,-0.1875,1.25,-0.75
2.3749999999999716,-1.0,-1.0,3.0,1.0,-2.0,-2.0,-1.0,-1.0,-0.181640625,0.36212158203125,0.34368896484375,0.84716796875,-0.755859375,-0.04931640625,0.68701171875,-0.625,1.3125,-1.125
2.3799999999999715,-2.0,-1.0,-4.0,-3.0,-1.0,-2.0,-2.0,-1.0,-0.181640625,0.36212158203125,0.34368896484375,0.84716796875,-0.755859375,-0.04931640625,0.68701171875,-0.625,1.3125,-1.125
2.3849999999999714,-2.0,-1.0,-4.0,-3.0,-1.0,-2.0,-2.0,-1.0,-0.18194580078125,0.36224365234375,0.3436279296875,0.8470458984375,-0.7568359375,-0.05029296875,0.68212890625,-1.75,1.3125,-1.125
2.3899999999999713,1.0,0.0,0.0,-4.0,-2.0,-1.0,0.0,0.0,-0.18194580078125,0.36224365234375,0.3436279296875,0.8470458984375,-0.7568359375,-0.05029296875,0.68212890625,-1.75,1.3125,-1.125
2.394999999999971,-1.0,-1.0,3.0,3.0,0.0,-1.0,0.0,0.0,-0.182373046875,0.3623046875,0.34356689453125,0.84698486328125,-0.7578125,-0.06298828125,0.68310546875,-1.8125,1.0625,-1.125
2.399999999999971,-1.0,-1.0,3.0,3.0,0.0,-1.0,0.0,0.0,-0.1826171875,0.3623046875,0.34332275390625,0.84698486328125,-0.75439453125,-0.06591796875,0.6875,-0.625,0.75,-1.4375
2.404999999999971,-1.0,-1.0,-3.0,-6.0,-3.0,-1.0,1.0,-2.0,-0.1826171875,0.3623046875,0.34332275390625,0.84698486328125,-0.75439453125,-0.06591796875,0.6875,-0.625,0.75,-1.4375
2.409999999999971,-2.0,-2.0,8.0,-1.0,-3.0,-1.0,-1.0,-2.0,-0.1826171875,0.3623046875,0.34332275390625,0.84698486328125,-0.75439453125,-0.06591796875,0.6875,-0.625,0.75,-1.4375
2.4149999999999707,-2.0,-2.0,8.0,-1.0,-3.0,-1.0,-1.0,-2.0,-0.18255615234375,0.36236572265625,0.3431396484375,0.84710693359375,-0.755859375,-0.05712890625,0.68896484375,0.6875,0.3125,-1.1875
2.4199999999999706,-1.0,-3.0,-4.0,-1.0,0.0,-2.0,-3.0,-1.0,-0.1824951171875,0.36236572265625,0.3431396484375,0.84710693359375,-0.75927734375,-0.0546875,0.68359375,-0.125,-0.125,-0.75
2.4249999999999705,1.0,0.0,-10.0,-5.0,-1.0,-1.0,-1.0,1.0,-0.1824951171875,0.36236572265625,0.3431396484375,0.84710693359375,-0.75927734375,-0.0546875,0.68359375,-0.125,-0.125,-0.75
2.4299999999999704,1.0,0.0,-10.0,-5.0,-1.0,-1.0,-1.0,1.0,-0.18255615234375,0.36236572265625,0.3431396484375,0.84710693359375,-0.7568359375,-0.06640625,0.681640625,-1.0,-0.5,-0.3125
2.4349999999999703,-1.0,-4.0,-5.0,-4.0,-2.0,-2.0,-3.0,0.0,-0.18255615234375,0.36236572265625,0.3431396484375,0.84710693359375,-0.7568359375,-0.06640625,0.681640625,-1.0,-0.5,-0.3125
2.43999999999997,-1.0,0.0,1.0,1.0,0.0,1.0,-1.0,-1.0,-0.18255615234375,0.36236572265625,0.3431396484375,0.8470458984375,-0.75634765625,-0.06298828125,0.6826171875,-0.25,-0.375,0.0625
2.44499999999997,0.0,-1.0,-2.0,-3.0,-2.0,-3.0,0.0,1.0,-0.18255615234375,0.36236572265625,0.3431396484375,0.8470458984375,-0.75634765625,-0.06298828125,0.6826171875,-0.25,-0.375,0.0625
2.44999999999997,0.0,-1.0,0.0,-1.0,0.0,0.0,-1.0,-1.0,-0.18255615234375,0.36236572265625,0.3431396484375,0.8470458984375,-0.75634765625,-0.0595703125,0.68408203125,0.875,-0.5,0.25
2.45499999999997,-1.0,2.0,2.0,-6.0,-2.0,-1.0,-2.0,-2.0,-0.18255615234375,0.36236572265625,0.3431396484375,0.8470458984375,-0.75634765625,-0.0595703125,0.68408203125,0.875,-0.5,0.25
2.4599999999999698,-1.0,-1.0,-3.0,-5.0,-2.0,-1.0,0.0,-1.0,-0.1824951171875,0.36236572265625,0.3431396484375,0.84710693359375,-0.75390625,-0.0556640625,0.69287109375,0.8125,-0.75,0.0
2.4649999999999697,-1.0,-1.0,3.0,1.0,0.0,-2.0,-1.0,-2.0,-0.1824951171875,0.36236572265625,0.3431396484375,0.84710693359375,-0.75390625,-0.0556640625,0.69287109375,0.8125,-0.75,0.0
2.4699999999999696,-1.0,-1.0,3.0,1.0,0.0,-2.0,-1.0,-2.0,-0.1824951171875,0.36236572265625,0.3431396484375,0.84710693359375,-0.75390625,-0.0556640625,0.69287109375,0.8125,-0.75,0.0
2.4749999999999694,-1.0,-1.0,-10.0,-4.0,-2.0,0.0,0.0,-2.0,-0.1824951171875,0.36236572265625,0.3431396484375,0.84710693359375,-0.7509765625,-0.0517578125,0.69091796875,0.125,-0.8125,0.0625
2.4799999999999693,-2.0,-3.0,-23.0,-6.0,0.0,-2.0,-2.0,-1.0,-0.1824951171875,0.36236572265625,0.3431396484375,0.84710693359375,-0.7509765625,-0.0517578125,0.69091796875,0.125,-0.8125,0.0625
2.4849999999999692,0.0,-2.0,1.0,1.0,0.0,0.0,-1.0,-2.0,-0.18243408203125,0.36236572265625,0.34320068359375,0.84710693359375,-0.7490234375,-0.0556640625,0.69140625,-0.8125,-0.25,-0.1875
2.489999999999969,0.0,-2.0,1.0,1.0,0.0,0.0,-1.0,-2.0,-0.18243408203125,0.36236572265625,0.34320068359375,0.84710693359375,-0.7490234375,-0.0556640625,0.69140625,-0.8125,-0.25,-0.1875
2.494999999999969,-1.0,-4.0,-7.0,-4.0,-2.0,-1.0,-2.0,-2.0,-0.18243408203125,0.36236572265625,0.34320068359375,0.84710693359375,-0.7490234375,-0.0556640625,0.69140625,-0.8125,-0.25,-0.1875
2.499999999999969,-1.0,-4.0,-7.0,-4.0,-2.0,-1.0,-2.0,-2.0,-0.18243408203125,0.36236572265625,0.34320068359375,0.84710693359375,-0.75439453125,-0.05615234375,0.69091796875,-0.8125,0.125,-0.375
2.504999999999969,1.0,2.0,13.0,12.0,-1.0,0.0,-2.0,-1.0,-0.18243408203125,0.36236572265625,0.34320068359375,0.84710693359375,-0.75439453125,-0.05615234375,0.69091796875,-0.8125,0.125,-0.375
2.5099999999999687,1.0,2.0,13.0,12.0,-1.0,0.0,-2.0,-1.0,-0.182373046875,0.3623046875,0.34320068359375,0.84710693359375,-0.75,-0.05419921875,0.68994140625,0.0,0.25,-0.9375
2.5149999999999686,-2.0,-1.0,-1.0,-2.0,-2.0,0.0,-2.0,-1.0,-0.182373046875,0.3623046875,0.34320068359375,0.84710693359375,-0.75,-0.05419921875,0.68994140625,0.0,0.25,-0.9375
2.5199999999999685,-1.0,1.0,-5.0,-4.0,-2.0,0.0,0.0,0.0,-0.182373046875,0.3623046875,0.34320068359375,0.84710693359375,-0.75,-0.05419921875,0.68994140625,0.0,0.25,-0.9375
2.5249999999999684,-1.0,0.0,14.0,3.0,-2.0,-3.0,-1.0,-2.0,-0.182373046875,0.3623046875,0.34320068359375,0.84710693359375,-0.75341796875,-0.05810546875,0.68798828125,-0.1875,0.625,-0.875
2.5299999999999683,-2.0,-4.0,-1.0,0.0,-2.0,-2.0,-1.0,-1.0,-0.182373046875,0.36236572265625,0.34320068359375,0.84710693359375,-0.7578125,-0.06005859375,0.68212890625,-0.75,0.875,-1.0
2.534999999999968,-2.0,-4.0,-1.0,0.0,-2.0,-2.0,-1.0,-1.0,-0.182373046875,0.36236572265625,0.34320068359375,0.84710693359375,-0.7578125,-0.06005859375,0.68212890625,-0.75,0.875,-1.0
2.539999999999968,0.0,2.0,-2.0,-1.0,0.0,-2.0,0.0,-1.0,-0.1826171875,0.36236572265625,0.34307861328125,0.8470458984375,-0.7568359375,-0.0625,0.68798828125,-0.8125,1.0,-1.0
2.544999999999968,-2.0,-1.0,8.0,6.0,-1.0,-2.0,-2.0,0.0,-0.1826171875,0.36236572265625,0.34307861328125,0.8470458984375,-0.7568359375,-0.0625,0.68798828125,-0.8125,1.0,-1.0
2.549999999999968,-2.0,-1.0,-12.0,-13.0,-1.0,0.0,-2.0,0.0,-0.1826171875,0.36236572265625,0.34307861328125,0.8470458984375,-0.7568359375,-0.0625,0.68798828125,-0.8125,1.0,-1.0
2.5549999999999677,1.0,2.0,-1.0,-2.0,0.0,-2.0,-1.0,-3.0,-0.1826171875,0.3624267578125,0.34307861328125,0.8470458984375,-0.755859375,-0.05712890625,0.681640625,-0.1875,0.625,-0.8125
2.5599999999999676,-1.0,1.0,7.0,4.0,0.0,0.0,0.0,-1.0,-0.1826171875,0.3624267578125,0.34307861328125,0.8470458984375,-0.755859375,-0.05712890625,0.681640625,-0.1875,0.625,-0.8125
2.5649999999999675,1.0,-2.0,-13.0,-11.0,-1.0,0.0,-1.0,0.0,-0.1826171875,0.3624267578125,0.34307861328125,0.8470458984375,-0.7548828125,-0.05810546875,0.68017578125,-0.5,0.1875,-0.4375
2.5699999999999674,1.0,-2.0,-13.0,-11.0,-1.0,0.0,-1.0,0.0,-0.1826171875,0.3624267578125,0.34307861328125,0.8470458984375,-0.7548828125,-0.05810546875,0.68017578125,-0.5,0.1875,-0.4375
2.5749999999999673,-3.0,-2.0,5.0,8.0,0.0,-1.0,0.0,-1.0,-0.1826171875,0.3624267578125,0.34307861328125,0.8470458984375,-0.7548828125,-0.06396484375,0.6845703125,-0.3125,-0.3125,-0.1875
2.579999999999967,-1.0,-3.0,2.0,-2.0,0.0,-2.0,-1.0,0.0,-0.1826171875,0.3624267578125,0.34307861328125,0.8470458984375,-0.7548828125,-0.06396484375,0.6845703125,-0.3125,-0.3125,-0.1875
2.584999999999967,-1.0,-3.0,2.0,-2.0,0.0,-2.0,-1.0,0.0,-0.1826171875,0.3624267578125,0.34307861328125,0.8470458984375,-0.75634765625,-0.06005859375,0.68359375,0.125,-0.4375,-0.1875
2.589999999999967,-4.0,-5.0,-13.0,-5.0,-2.0,-1.0,0.0,-2.0,-0.1826171875,0.3624267578125,0.34307861328125,0.8470458984375,-0.75634765625,-0.06005859375,0.68359375,0.125,-0.4375,-0.1875
2.594999999999967,-4.0,-4.0,-2.0,10.0,-1.0,-1.0,-2.0,-2.0,-0.1826171875,0.3624267578125,0.34307861328125,0.8470458984375,-0.7568359375,-0.05859375,0.6904296875,0.4375,-0.375,0.125
2.599999999999967,-1.0,-1.0,11.0,-1.0,2.0,0.0,-1.0,-1.0,-0.1826171875,0.3624267578125,0.34307861328125,0.8470458984375,-0.7568359375,-0.05859375,0.6904296875,0.4375,-0.375,0.125
2.6049999999999667,-1.0,-1.0,11.0,-1.0,2.0,0.0,-1.0,-1.0,-0.1826171875,0.3624267578125,0.34307861328125,0.8470458984375,-0.7548828125,-0.06103515625,0.68310546875,-0.1875,-0.6875,0.25
2.6099999999999666,-2.0,-1.0,7.0,6.0,-2.0,-3.0,-2.0,-1.0,-0.1826171875,0.3624267578125,0.34307861328125,0.8470458984375,-0.7548828125,-0.06103515625,0.68310546875,-0.1875,-0.6875,0.25
2.6149999999999665,0.0,-1.0,-2.0,-7.0,-3.0,-1.0,-1.0,-1.0,-0.18255615234375,0.3624267578125,0.34307861328125,0.8470458984375,-0.75341796875,-0.05908203125,0.6865234375,0.0,-0.625,-0.3125
2.6199999999999664,0.0,-1.0,-2.0,-7.0,-3.0,-1.0,-1.0,-1.0,-0.18255615234375,0.3624267578125,0.34307861328125,0.8470458984375,-0.75341796875,-0.05908203125,0.6865234375,0.0,-0.625,-0.3125
2.6249999999999662,-3.0,-3.0,-3.0,-6.0,-3.0,0.0,-2.0,-3.0,-0.18255615234375,0.3624267578125,0.3431396484375,0.8470458984375,-0.75,-0.05419921875,0.6904296875,0.375,-0.5,-0.1875
2.629999999999966,0.0,-2.0,-18.0,-3.0,1.0,-1.0,1.0,-1.0,-0.18255615234375,0.3624267578125,0.3431396484375,0.8470458984375,-0.75,-0.05419921875,0.6904296875,0.375,-0.5,-0.1875
2.634999999999966,0.0,-2.0,-18.0,-3.0,1.0,-1.0,1.0,-1.0,-0.18255615234375,0.3624267578125,0.3431396484375,0.8470458984375,-0.7509765625,-0.05859375,0.6884765625,-0.0625,-0.5625,-0.875
2.639999999999966,-1.0,-4.0,-1.0,-2.0,0.0,0.0,0.0,0.0,-0.18255615234375,0.3624267578125,0.3431396484375,0.8470458984375,-0.7509765625,-0.05859375,0.6884765625,-0.0625,-0.5625,-0.875
2.644999999999966,-1.0,-4.0,-1.0,-2.0,0.0,0.0,0.0,0.0,-0.18255615234375,0.3624267578125,0.3431396484375,0.8470458984375,-0.7509765625,-0.05859375,0.6884765625,-0.0625,-0.5625,-0.875
2.6499999999999657,-2.0,4.0,7.0,6.0,0.0,-2.0,-3.0,0.0,-0.1824951171875,0.36236572265625,0.3431396484375,0.84710693359375,-0.75244140625,-0.05859375,0.68798828125,-0.9375,-0.5,-0.875
2.6549999999999656,-2.0,-4.0,-11.0,-8.0,-1.0,-1.0,-3.0,-3.0,-0.1824951171875,0.36236572265625,0.3431396484375,0.84710693359375,-0.75244140625,-0.05859375,0.68798828125,-0.9375,-0.5,-0.875
2.6599999999999655,1.0,-1.0,2.0,-4.0,-2.0,-1.0,0.0,-1.0,-0.18255615234375,0.3624267578125,0.3431396484375,0.8470458984375,-0.7646484375,-0.0625,0.6787109375,-0.375,-0.25,-0.6875
2.6649999999999654,0.0,0.0,19.0,10.0,0.0,-1.0,0.0,-2.0,-0.18255615234375,0.3624267578125,0.3431396484375,0.8470458984375,-0.7646484375,-0.0625,0.6787109375,-0.375,-0.25,-0.6875
2.6699999999999653,-1.0,0.0,-3.0,-8.0,-4.0,0.0,-2.0,0.0,-0.18255615234375,0.3624267578125,0.3431396484375,0.8470458984375,-0.75927734375,-0.07275390625,0.6884765625,0.0,-0.5625,-0.8125
2.674999999999965,0.0,-1.0,-11.0,-2.0,-2.0,-2.0,-2.0,0.0,-0.18255615234375,0.3624267578125,0.3431396484375,0.8470458984375,-0.75927734375,-0.07275390625,0.6884765625,0.0,-0.5625,-0.8125
2.679999999999965,0.0,-1.0,-16.0,-9.0,-2.0,0.0,-1.0,0.0,-0.18231201171875,0.36224365234375,0.34283447265625,0.8472900390625,-0.74462890625,-0.07421875,0.68896484375,2.1875,-0.75,-0.8125
2.684999999999965,-1.0,-1.0,2.0,5.0,-2.0,-3.0,-1.0,-3.0,-0.18231201171875,0.36224365234375,0.34283447265625,0.8472900390625,-0.74462890625,-0.07421875,0.68896484375,2.1875,-0.75,-0.8125
2.689999999999965,-1.0,0.0,5.0,6.0,-1.0,-1.0,-1.0,-2.0,-0.1817626953125,0.36224365234375,0.3426513671875,0.84747314453125,-0.748046875,-0.064453125,0.68505859375,3.3125,-1.0625,0.0
2.6949999999999648,-1.0,0.0,5.0,6.0,-1.0,-1.0,-1.0,-2.0,-0.18121337890625,0.36236572265625,0.342529296875,0.84759521484375,-0.7587890625,-0.0498046875,0.68310546875,2.6875,-1.0625,-0.0625
2.6999999999999647,-1.0,0.0,5.0,6.0,-1.0,-1.0,-1.0,-2.0,-0.18121337890625,0.36236572265625,0.342529296875,0.84759521484375,-0.7587890625,-0.0498046875,0.68310546875,2.6875,-1.0625,-0.0625
2.7049999999999645,0.0,-1.0,16.0,-1.0,-1.0,0.0,-1.0,-1.0,-0.18121337890625,0.36236572265625,0.342529296875,0.84759521484375,-0.7587890625,-0.0498046875,0.68310546875,2.6875,-1.0625,-0.0625
2.7099999999999644,0.0,-1.0,16.0,-1.0,-1.0,0.0,-1.0,-1.0,-0.18121337890625,0.36236572265625,0.342529296875,0.84759521484375,-0.76318359375,-0.060546875,0.67919921875,0.5,-0.875,0.5
2.7149999999999643,-1.0,-1.0,1.0,1.0,1.0,0.0,0.0,-1.0,-0.18121337890625,0.36236572265625,0.342529296875,0.84759521484375,-0.76318359375,-0.060546875,0.67919921875,0.5,-0.875,0.5
2.7199999999999642,-2.0,-1.0,-11.0,-6.0,0.0,-2.0,0.0,-1.0,-0.18109130859375,0.36236572265625,0.34246826171875,0.84765625,-0.7548828125,-0.0673828125,0.68310546875,1.3125,-0.75,0.25
2.724999999999964,0.0,1.0,29.0,23.0,1.0,-2.0,1.0,-3.0,-0.18109130859375,0.36236572265625,0.34246826171875,0.84765625,-0.7548828125,-0.0673828125,0.68310546875,1.3125,-0.75,0.25
2.729999999999964,0.0,-1.0,1.0,6.0,0.0,1.0,-2.0,0.0,-0.18048095703125,0.36236572265625,0.34222412109375,0.847900390625,-0.74951171875,-0.0673828125,0.6884765625,4.0625,-1.1875,-0.0625
2.734999999999964,0.0,-1.0,2.0,-2.0,-3.0,-1.0,-1.0,0.0,-0.1795654296875,0.36236572265625,0.3419189453125,0.84820556640625,-0.74853515625,-0.0478515625,0.69580078125,4.8125,-1.375,-0.75
2.739999999999964,0.0,-1.0,2.0,-2.0,-3.0,-1.0,-1.0,0.0,-0.1795654296875,0.36236572265625,0.3419189453125,0.84820556640625,-0.74853515625,-0.0478515625,0.69580078125,4.8125,-1.375,-0.75
2.7449999999999637,-1.0,0.0,5.0,1.0,4.0,3.0,1.0,0.0,-0.1795654296875,0.36236572265625,0.3419189453125,0.84820556640625,-0.74853515625,-0.0478515625,0.69580078125,4.8125,-1.375,-0.75
2.7499999999999636,0.0,-2.0,6.0,3.0,-1.0,-1.0,-1.0,-2.0,-0.1788330078125,0.3623046875,0.34173583984375,0.84844970703125,-0.74609375,-0.04150390625,0.69287109375,3.0,-1.375,-0.625
2.7549999999999635,-1.0,-1.0,-3.0,-3.0,-2.0,-1.0,-2.0,-2.0,-0.17877197265625,0.36212158203125,0.341796875,0.8485107421875,-0.7529296875,-0.04833984375,0.68115234375,-0.375,-1.625,-0.3125
2.7599999999999634,-4.0,-4.0,-12.0,-6.0,-5.0,-3.0,-2.0,-1.0,-0.17877197265625,0.36212158203125,0.341796875,0.8485107421875,-0.7529296875,-0.04833984375,0.68115234375,-0.375,-1.625,-0.3125
2.7649999999999633,-4.0,-4.0,-12.0,-6.0,-5.0,-3.0,-2.0,-1.0,-0.17877197265625,0.36212158203125,0.341796875,0.8485107421875,-0.7529296875,-0.04833984375,0.68115234375,-0.375,-1.625,-0.3125
2.769999999999963,-1.0,-1.0,7.0,-3.0,-1.0,-1.0,0.0,0.0,-0.1788330078125,0.36181640625,0.341796875,0.8486328125,-0.75390625,-0.06396484375,0.6826171875,-0.375,-1.9375,-0.5
2.774999999999963,-1.0,0.0,5.0,0.0,-2.0,-3.0,-2.0,0.0,-0.1788330078125,0.36181640625,0.341796875,0.8486328125,-0.75390625,-0.06396484375,0.6826171875,-0.375,-1.9375,-0.5
2.779999999999963,-2.0,-2.0,-6.0,6.0,-2.0,-3.0,-1.0,-4.0,-0.17840576171875,0.36175537109375,0.341552734375,0.848876953125,-0.75146484375,-0.052734375,0.68603515625,2.25,-1.4375,-1.0625
2.784999999999963,-2.0,-2.0,-13.0,-8.0,-1.0,-2.0,-2.0,0.0,-0.17840576171875,0.36175537109375,0.341552734375,0.848876953125,-0.75146484375,-0.052734375,0.68603515625,2.25,-1.4375,-1.0625
2.7899999999999627,-1.0,-1.0,-2.0,1.0,0.0,-1.0,-1.0,-1.0,-0.177734375,0.36181640625,0.3414306640625,0.84906005859375,-0.751953125,-0.04248046875,0.68798828125,3.25,-1.5,-0.375
2.7949999999999626,1.0,-1.0,-4.0,-8.0,0.0,-1.0,2.0,0.0,-0.17724609375,0.3614501953125,0.34149169921875,0.8492431640625,-0.7431640625,-0.0517578125,0.6982421875,1.6875,-2.25,0.4375
2.7999999999999625,-3.0,-2.0,-16.0,-9.0,-3.0,-3.0,-1.0,-4.0,-0.17724609375,0.3614501953125,0.34149169921875,0.8492431640625,-0.7431640625,-0.0517578125,0.6982421875,1.6875,-2.25,0.4375
2.8049999999999624,-2.0,-3.0,-17.0,0.0,-1.0,-2.0,-2.0,-1.0,-0.17681884765625,0.3612060546875,0.34161376953125,0.849365234375,-0.748046875,-0.04638671875,0.693359375,0.75,-2.1875,0.4375
2.8099999999999623,-1.0,-1.0,15.0,15.0,1.0,-1.0,0.0,-1.0,-0.17681884765625,0.3612060546875,0.34161376953125,0.849365234375,-0.748046875,-0.04638671875,0.693359375,0.75,-2.1875,0.4375
2.814999999999962,-2.0,-1.0,6.0,2.0,-2.0,0.0,0.0,-2.0,-0.17681884765625,0.3612060546875,0.34161376953125,0.849365234375,-0.748046875,-0.04638671875,0.693359375,0.75,-2.1875,0.4375
2.819999999999962,-2.0,-1.0,6.0,2.0,-2.0,0.0,0.0,-2.0,-0.1766357421875,0.3609619140625,0.341796875,0.8494873046875,-0.744140625,-0.04736328125,0.6953125,-0.25,-1.625,0.625
2.824999999999962,-2.0,-1.0,-3.0,-5.0,-1.0,-1.0,-1.0,-2.0,-0.1766357421875,0.3609619140625,0.341796875,0.8494873046875,-0.744140625,-0.04736328125,0.6953125,-0.25,-1.625,0.625
2.829999999999962,-2.0,1.0,6.0,5.0,1.0,0.0,0.0,-3.0,-0.1766357421875,0.3609619140625,0.341796875,0.8494873046875,-0.744140625,-0.04736328125,0.6953125,-0.25,-1.625,0.625
2.8349999999999618,-3.0,-3.0,2.0,6.0,-2.0,0.0,-1.0,-2.0,-0.176513671875,0.36077880859375,0.34210205078125,0.8494873046875,-0.74853515625,-0.05224609375,0.693359375,-0.375,-1.1875,1.25
2.8399999999999617,-3.0,-3.0,2.0,6.0,-2.0,0.0,-1.0,-2.0,-0.176513671875,0.36077880859375,0.34210205078125,0.8494873046875,-0.74853515625,-0.05224609375,0.693359375,-0.375,-1.1875,1.25
2.8449999999999616,-1.0,-2.0,10.0,-4.0,0.0,1.0,0.0,-1.0,-0.176513671875,0.36077880859375,0.34210205078125,0.8494873046875,-0.74609375,-0.0537109375,0.701171875,0.9375,-0.4375,0.6875
2.8499999999999615,-2.0,-1.0,-6.0,-6.0,-3.0,-2.0,-1.0,0.0,-0.17645263671875,0.3607177734375,0.34210205078125,0.8494873046875,-0.73828125,-0.0419921875,0.70068359375,0.1875,0.5625,0.375
2.8549999999999613,-1.0,-2.0,13.0,11.0,-1.0,1.0,-2.0,0.0,-0.17645263671875,0.3607177734375,0.34210205078125,0.8494873046875,-0.73828125,-0.0419921875,0.70068359375,0.1875,0.5625,0.375
2.8599999999999612,-2.0,-1.0,-43.0,-24.0,-1.0,-1.0,-1.0,0.0,-0.1763916015625,0.36090087890625,0.3421630859375,0.84942626953125,-0.73974609375,-0.03955078125,0.70068359375,-0.5,1.6875,-0.125
2.864999999999961,-3.0,-3.0,2.0,-2.0,-1.0,-2.0,-2.0,-3.0,-0.1763916015625,0.36090087890625,0.3421630859375,0.84942626953125,-0.73974609375,-0.03955078125,0.70068359375,-0.5,1.6875,-0.125
2.869999999999961,-1.0,-3.0,1.0,5.0,-1.0,-2.0,0.0,0.0,-0.17694091796875,0.36102294921875,0.34210205078125,0.8492431640625,-0.74169921875,-0.04931640625,0.6943359375,-2.6875,2.6875,-1.0
2.874999999999961,0.0,-3.0,-2.0,2.0,-2.0,-2.0,0.0,-1.0,-0.17694091796875,0.36102294921875,0.34210205078125,0.8492431640625,-0.74169921875,-0.04931640625,0.6943359375,-2.6875,2.6875,-1.0
2.879999999999961,0.0,-3.0,-2.0,2.0,-2.0,-2.0,0.0,-1.0,-0.17767333984375,0.361328125,0.34197998046875,0.8489990234375,-0.7470703125,-0.0498046875,0.6953125,-3.0625,3.9375,-1.9375
2.8849999999999607,-1.0,-1.0,15.0,11.0,2.0,-1.0,-2.0,-1.0,-0.17767333984375,0.361328125,0.34197998046875,0.8489990234375,-0.7470703125,-0.0498046875,0.6953125,-3.0625,3.9375,-1.9375
2.8899999999999606,0.0,0.0,6.0,4.0,-2.0,0.0,-1.0,0.0,-0.17767333984375,0.361328125,0.34197998046875,0.8489990234375,-0.7470703125,-0.0498046875,0.6953125,-3.0625,3.9375,-1.9375
2.8949999999999605,0.0,0.0,6.0,4.0,-2.0,0.0,-1.0,0.0,-0.17828369140625,0.36181640625,0.3416748046875,0.84881591796875,-0.75146484375,-0.04638671875,0.689453125,-2.1875,4.3125,-2.5
2.8999999999999604,0.0,-1.0,-20.0,-13.0,-1.0,-1.0,-3.0,-2.0,-0.1790771484375,0.3623046875,0.34130859375,0.84857177734375,-0.7529296875,-0.0498046875,0.68505859375,-3.0,4.4375,-2.875
2.9049999999999603,-2.0,-3.0,19.0,5.0,-2.0,-2.0,-2.0,-2.0,-0.1790771484375,0.3623046875,0.34130859375,0.84857177734375,-0.7529296875,-0.0498046875,0.68505859375,-3.0,4.4375,-2.875
2.90999999999996,-2.0,-2.0,0.0,-2.0,-5.0,-1.0,1.0,-1.0,-0.179931640625,0.3626708984375,0.3409423828125,0.848388671875,-0.75634765625,-0.05615234375,0.6826171875,-3.0,4.0625,-2.8125
2.91499999999996,0.0,0.0,20.0,6.0,1.0,0.0,-1.0,-1.0,-0.1805419921875,0.363037109375,0.340576171875,0.8482666015625,-0.7626953125,-0.0576171875,0.6865234375,-2.0625,3.375,-2.6875
2.91999999999996,0.0,0.0,2.0,0.0,1.0,0.0,0.0,0.0,-0.1805419921875,0.363037109375,0.340576171875,0.8482666015625,-0.7626953125,-0.0576171875,0.6865234375,-2.0625,3.375,-2.6875
2.92499999999996,-1.0,-2.0,-5.0,-16.0,-6.0,-3.0,-2.0,-3.0,-0.18121337890625,0.36328125,0.34027099609375,0.84814453125,-0.76318359375,-0.06640625,0.67578125,-1.8125,2.0625,-2.3125
2.9299999999999597,-1.0,-2.0,-5.0,-16.0,-6.0,-3.0,-2.0,-3.0,-0.18121337890625,0.36328125,0.34027099609375,0.84814453125,-0.76318359375,-0.06640625,0.67578125,-1.8125,2.0625,-2.3125
2.9349999999999596,-2.0,-2.0,-5.0,-7.0,1.0,1.0,-1.0,-1.0,-0.18121337890625,0.36328125,0.34027099609375,0.84814453125,-0.76318359375,-0.06640625,0.67578125,-1.8125,2.0625,-2.3125
2.9399999999999595,-2.0,-2.0,-5.0,-7.0,1.0,1.0,-1.0,-1.0,-0.18145751953125,0.36346435546875,0.34002685546875,0.84808349609375,-0.7626953125,-0.05712890625,0.6796875,-0.875,1.125,-1.6875
2.9449999999999594,0.0,3.0,17.0,8.0,1.0,-2.0,0.0,0.0,-0.18145751953125,0.36346435546875,0.34002685546875,0.84808349609375,-0.7626953125,-0.05712890625,0.6796875,-0.875,1.125,-1.6875
2.9499999999999593,2.0,-1.0,16.0,-1.0,-4.0,-1.0,-1.0,-2.0,-0.1817626953125,0.3634033203125,0.33990478515625,0.84808349609375,-0.75927734375,-0.068359375,0.67138671875,-0.75,-0.1875,-1.1875
2.954999999999959,-1.0,-5.0,-5.0,2.0,0.0,-1.0,1.0,-2.0,-0.1817626953125,0.3634033203125,0.33990478515625,0.84808349609375,-0.75927734375,-0.068359375,0.67138671875,-0.75,-0.1875,-1.1875
2.959999999999959,0.0,4.0,19.0,19.0,2.0,1.0,1.0,1.0,-0.18157958984375,0.36346435546875,0.339599609375,0.8482666015625,-0.76220703125,-0.0751953125,0.6796875,2.1875,-0.875,-0.75
2.964999999999959,-2.0,-3.0,-16.0,-8.0,-3.0,0.0,-2.0,-1.0,-0.18145751953125,0.36334228515625,0.33917236328125,0.8485107421875,-0.771484375,-0.08544921875,0.6728515625,2.6875,-2.125,-1.1875
2.969999999999959,-2.0,-3.0,-16.0,-8.0,-3.0,0.0,-2.0,-1.0,-0.18145751953125,0.36334228515625,0.33917236328125,0.8485107421875,-0.771484375,-0.08544921875,0.6728515625,2.6875,-2.125,-1.1875
2.974999999999959,1.0,0.0,14.0,4.0,-2.0,0.0,3.0,2.0,-0.18145751953125,0.36334228515625,0.33917236328125,0.8485107421875,-0.771484375,-0.08544921875,0.6728515625,2.6875,-2.125,-1.1875
2.9799999999999587,0.0,0.0,8.0,8.0,0.0,-2.0,-3.0,-1.0,-0.18072509765625,0.3634033203125,0.33880615234375,0.8487548828125,-0.76904296875,-0.0771484375,0.66748046875,5.25,-2.9375,-0.125
2.9849999999999586,-4.0,-3.0,-6.0,1.0,0.0,-1.0,-2.0,-3.0,-0.1796875,0.36328125,0.33843994140625,0.84918212890625,-0.76904296875,-0.06640625,0.68359375,6.1875,-4.0,-0.25
2.9899999999999585,1.0,0.0,21.0,9.0,0.0,-1.0,1.0,0.0,-0.1796875,0.36328125,0.33843994140625,0.84918212890625,-0.76904296875,-0.06640625,0.68359375,6.1875,-4.0,-0.25
2.9949999999999584,1.0,-2.0,1.0,0.0,-1.0,0.0,0.0,-1.0,-0.1796875,0.36328125,0.33843994140625,0.84918212890625,-0.76904296875,-0.06640625,0.68359375,6.1875,-4.0,-0.25
2.9999999999999583,0.0,2.0,9.0,1.0,-2.0,0.0,0.0,-1.0,-0.1790771484375,0.36260986328125,0.33843994140625,0.849609375,-0.74560546875,-0.0712890625,0.685546875,2.8125,-4.75,0.25
3.004999999999958,-3.0,-1.0,-3.0,7.0,0.0,-1.0,0.0,-1.0,-0.1790771484375,0.36260986328125,0.33843994140625,0.849609375,-0.74560546875,-0.0712890625,0.685546875,2.8125,-4.75,0.25
3.009999999999958,-3.0,-1.0,-3.0,7.0,0.0,-1.0,0.0,-1.0,-0.17828369140625,0.3624267578125,0.33880615234375,0.84967041015625,-0.75927734375,-0.046875,0.6904296875,2.125,-3.3125,2.4375
3.014999999999958,-3.0,0.0,31.0,16.0,-1.0,-2.0,-6.0,-4.0,-0.17828369140625,0.3624267578125,0.33880615234375,0.84967041015625,-0.75927734375,-0.046875,0.6904296875,2.125,-3.3125,2.4375
3.019999999999958,-3.0,0.0,31.0,16.0,-1.0,-2.0,-6.0,-4.0,-0.17828369140625,0.3624267578125,0.33880615234375,0.84967041015625,-0.75927734375,-0.046875,0.6904296875,2.125,-3.3125,2.4375
3.0249999999999577,0.0,-1.0,11.0,-1.0,0.0,-2.0,-2.0,-2.0,-0.1773681640625,0.36212158203125,0.33935546875,0.84979248046875,-0.74267578125,-0.04150390625,0.6923828125,2.125,-3.4375,3.3125
3.0299999999999576,0.0,-1.0,11.0,-1.0,0.0,-2.0,-2.0,-2.0,-0.1773681640625,0.36212158203125,0.33935546875,0.84979248046875,-0.74267578125,-0.04150390625,0.6923828125,2.125,-3.4375,3.3125
3.0349999999999575,-2.0,-2.0,-29.0,-18.0,-3.0,-3.0,-2.0,-2.0,-0.1763916015625,0.36187744140625,0.33978271484375,0.84991455078125,-0.72900390625,-0.0546875,0.70068359375,3.375,-2.4375,3.5625
3.0399999999999574,-4.0,-2.0,-12.0,2.0,-2.0,-3.0,-4.0,-2.0,-0.1763916015625,0.36187744140625,0.33978271484375,0.84991455078125,-0.72900390625,-0.0546875,0.70068359375,3.375,-2.4375,3.5625
3.0449999999999573,-1.0,-2.0,-17.0,-11.0,-3.0,-3.0,-1.0,0.0,-0.175537109375,0.3616943359375,0.3402099609375,0.85003662109375,-0.7470703125,-0.05419921875,0.71826171875,3.0,-1.5625,3.625
3.049999999999957,3.0,0.0,11.0,-3.0,1.0,-1.0,-2.0,1.0,-0.175537109375,0.3616943359375,0.3402099609375,0.85003662109375,-0.7470703125,-0.05419921875,0.71826171875,3.0,-1.5625,3.625
3.054999999999957,0.0,2.0,20.0,24.0,5.0,0.0,2.0,0.0,-0.17547607421875,0.3616943359375,0.34027099609375,0.85003662109375,-0.7412109375,-0.03955078125,0.705078125,0.0625,0.375,-0.9375
3.059999999999957,0.0,2.0,20.0,24.0,5.0,0.0,2.0,0.0,-0.17547607421875,0.3616943359375,0.34027099609375,0.85003662109375,-0.7412109375,-0.03955078125,0.705078125,0.0625,0.375,-0.9375
3.064999999999957,-3.0,2.0,-17.0,-15.0,-2.0,-1.0,0.0,-3.0,-0.17547607421875,0.3616943359375,0.34027099609375,0.85003662109375,-0.7412109375,-0.03955078125,0.705078125,0.0625,0.375,-0.9375
3.0699999999999568,-1.0,-2.0,-5.0,-4.0,-1.0,-1.0,-1.0,0.0,-0.17572021484375,0.362060546875,0.34033203125,0.84979248046875,-0.7470703125,-0.03076171875,0.6826171875,-1.8125,2.4375,-0.5625
3.0749999999999567,-1.0,-7.0,-2.0,-8.0,0.0,-2.0,-2.0,2.0,-0.17572021484375,0.362060546875,0.34033203125,0.84979248046875,-0.7470703125,-0.03076171875,0.6826171875,-1.8125,2.4375,-0.5625
3.0799999999999566,-1.0,-7.0,-2.0,-8.0,0.0,-2.0,-2.0,2.0,-0.1761474609375,0.3623046875,0.34027099609375,0.849609375,-0.7646484375,-0.0341796875,0.69140625,-2.9375,1.875,-1.6875
3.0849999999999564,3.0,2.0,-24.0,-2.0,3.0,2.0,0.0,-2.0,-0.176513671875,0.3621826171875,0.33978271484375,0.84979248046875,-0.76220703125,-0.06591796875,0.69970703125,-0.375,0.1875,-2.9375
3.0899999999999563,3.0,2.0,-24.0,-2.0,3.0,2.0,0.0,-2.0,-0.176513671875,0.3621826171875,0.33978271484375,0.84979248046875,-0.76220703125,-0.06591796875,0.69970703125,-0.375,0.1875,-2.9375
3.0949999999999562,1.0,10.0,-22.0,5.0,0.0,2.0,2.0,-3.0,-0.17572021484375,0.36236572265625,0.33856201171875,0.850341796875,-0.74462890625,-0.0927734375,0.69140625,9.1875,-0.25,-3.1875
3.099999999999956,-12.0,-34.0,38.0,-6.0,-7.0,-6.0,-5.0,-5.0,-0.17572021484375,0.36236572265625,0.33856201171875,0.850341796875,-0.74462890625,-0.0927734375,0.69140625,9.1875,-0.25,-3.1875
3.104999999999956,-4.0,-3.0,47.0,-6.0,-2.0,0.0,-1.0,-3.0,-0.1728515625,0.3634033203125,0.33697509765625,0.85113525390625,-0.7373046875,-0.10986328125,0.6767578125,22.875,-0.3125,0.8125
3.109999999999956,4.0,4.0,18.0,3.0,4.0,2.0,2.0,4.0,-0.1693115234375,0.36456298828125,0.33673095703125,0.8514404296875,-0.77392578125,-0.04541015625,0.66015625,20.4375,-4.375,6.4375
3.114999999999956,4.0,4.0,18.0,3.0,4.0,2.0,2.0,4.0,-0.1693115234375,0.36456298828125,0.33673095703125,0.8514404296875,-0.77392578125,-0.04541015625,0.66015625,20.4375,-4.375,6.4375
3.1199999999999557,0.0,-5.0,-46.0,1.0,-1.0,1.0,4.0,-5.0,-0.1693115234375,0.36456298828125,0.33673095703125,0.8514404296875,-0.77392578125,-0.04541015625,0.66015625,20.4375,-4.375,6.4375
3.1249999999999556,-4.0,2.0,-29.0,-3.0,1.0,1.0,2.0,2.0,-0.16595458984375,0.364990234375,0.3367919921875,0.85186767578125,-0.78173828125,0.01708984375,0.6904296875,15.0,-7.125,4.125
3.1299999999999555,-1.0,-13.0,-96.0,-2.0,-1.0,-1.0,1.0,-3.0,-0.16595458984375,0.364990234375,0.3367919921875,0.85186767578125,-0.78173828125,0.01708984375,0.6904296875,15.0,-7.125,4.125
3.1349999999999554,8.0,12.0,-10.0,3.0,4.0,3.0,0.0,1.0,-0.1644287109375,0.3651123046875,0.33697509765625,0.85205078125,-0.7568359375,0.0537109375,0.71826171875,2.875,-2.0625,-0.875
3.1399999999999553,8.0,22.0,-52.0,13.0,5.0,2.0,4.0,4.0,-0.1644287109375,0.3651123046875,0.33697509765625,0.85205078125,-0.7568359375,0.0537109375,0.71826171875,2.875,-2.0625,-0.875
3.144999999999955,10.0,32.0,106.0,14.0,4.0,2.0,2.0,1.0,-0.165283203125,0.36395263671875,0.3370361328125,0.85235595703125,-0.6904296875,-0.0068359375,0.73291015625,-7.8125,0.0,-4.8125
3.149999999999955,-7.0,12.0,-14.0,-4.0,-7.0,-8.0,-11.0,4.0,-0.1666259765625,0.36309814453125,0.33807373046875,0.85205078125,-0.70263671875,-0.0361328125,0.72412109375,-10.8125,1.625,2.1875
3.154999999999955,-7.0,12.0,-14.0,-4.0,-7.0,-8.0,-11.0,4.0,-0.1666259765625,0.36309814453125,0.33807373046875,0.85205078125,-0.70263671875,-0.0361328125,0.72412109375,-10.8125,1.625,2.1875
3.159999999999955,-7.0,12.0,-14.0,-4.0,-7.0,-8.0,-11.0,4.0,-0.1666259765625,0.36309814453125,0.33807373046875,0.85205078125,-0.70263671875,-0.0361328125,0.72412109375,-10.8125,1.625,2.1875
3.1649999999999547,8.0,0.0,41.0,13.0,4.0,3.0,4.0,11.0,-0.167724609375,0.36322021484375,0.3380126953125,0.851806640625,-0.7548828125,-0.076171875,0.69140625,-3.5,2.9375,-0.4375
3.1699999999999546,8.0,0.0,41.0,13.0,4.0,3.0,4.0,11.0,-0.1688232421875,0.36370849609375,0.338134765625,0.851318359375,-0.77392578125,-0.04248046875,0.7041015625,-5.3125,4.5625,-0.125
3.1749999999999545,-15.0,-20.0,-38.0,-34.0,-16.0,-10.0,-12.0,-12.0,-0.1688232421875,0.36370849609375,0.338134765625,0.851318359375,-0.77392578125,-0.04248046875,0.7041015625,-5.3125,4.5625,-0.125
3.1799999999999544,11.0,20.0,-4.0,17.0,8.0,1.0,3.0,-1.0,-0.1695556640625,0.36431884765625,0.337158203125,0.851318359375,-0.76025390625,-0.05322265625,0.70849609375,-0.0625,6.0,-5.25
3.1849999999999543,-18.0,2.0,46.0,-23.0,-9.0,-5.0,3.0,-2.0,-0.170166015625,0.3651123046875,0.3365478515625,0.85113525390625,-0.74365234375,-0.05712890625,0.666015625,0.25,5.0625,-2.5625
3.189999999999954,13.0,-38.0,-14.0,-6.0,-3.0,-12.0,4.0,-1.0,-0.170166015625,0.3651123046875,0.3365478515625,0.85113525390625,-0.74365234375,-0.05712890625,0.666015625,0.25,5.0625,-2.5625
3.194999999999954,-2.0,-16.0,-15.0,17.0,8.0,2.0,4.0,16.0,-0.16986083984375,0.36572265625,0.33624267578125,0.85101318359375,-0.751953125,-0.052734375,0.662109375,3.625,1.5,0.5
3.199999999999954,-10.0,-3.0,-44.0,-10.0,-9.0,-6.0,-16.0,-7.0,-0.16986083984375,0.36572265625,0.33624267578125,0.85101318359375,-0.751953125,-0.052734375,0.662109375,3.625,1.5,0.5
3.204999999999954,-4.0,-31.0,32.0,3.0,2.0,-1.0,-8.0,1.0,-0.16973876953125,0.36590576171875,0.336181640625,0.85101318359375,-0.78125,-0.06005859375,0.67041015625,1.875,-1.4375,0.625
3.209999999999954,11.0,52.0,77.0,14.0,5.0,4.0,9.0,-2.0,-0.16973876953125,0.36590576171875,0.336181640625,0.85101318359375,-0.78125,-0.06005859375,0.67041015625,1.875,-1.4375,0.625
3.2149999999999537,-7.0,4.0,15.0,-15.0,-8.0,-11.0,-20.0,-27.0,-0.1697998046875,0.36602783203125,0.33599853515625,0.85101318359375,-0.783203125,-0.03271484375,0.67724609375,-0.375,-1.1875,-1.6875
3.2199999999999536,20.0,-8.0,97.0,-4.0,-4.0,-5.0,-4.0,-10.0,-0.1697998046875,0.36602783203125,0.33599853515625,0.85101318359375,-0.783203125,-0.03271484375,0.67724609375,-0.375,-1.1875,-1.6875
3.2249999999999535,23.0,13.0,-21.0,4.0,7.0,6.0,20.0,19.0,-0.16900634765625,0.3658447265625,0.3358154296875,0.851318359375,-0.77099609375,-0.03662109375,0.689453125,4.0625,-3.9375,-0.5
3.2299999999999534,3.0,-10.0,-84.0,-5.0,-2.0,-2.0,-4.0,-7.0,-0.16790771484375,0.36517333984375,0.33563232421875,0.85186767578125,-0.73681640625,-0.017578125,0.685546875,3.625,-5.6875,-1.3125
3.2349999999999532,18.0,0.0,57.0,22.0,10.0,21.0,19.0,10.0,-0.16790771484375,0.36517333984375,0.33563232421875,0.85186767578125,-0.73681640625,-0.017578125,0.685546875,3.625,-5.6875,-1.3125
3.239999999999953,4.0,20.0,54.0,-10.0,-6.0,-1.0,21.0,23.0,-0.1669921875,0.36474609375,0.33538818359375,0.85235595703125,-0.74072265625,-0.029296875,0.68212890625,4.25,-5.125,-1.25
3.244999999999953,-13.0,-20.0,-79.0,-41.0,-14.0,-7.0,7.0,-5.0,-0.1669921875,0.36474609375,0.33538818359375,0.85235595703125,-0.74072265625,-0.029296875,0.68212890625,4.25,-5.125,-1.25
3.249999999999953,-5.0,-29.0,13.0,10.0,10.0,9.0,17.0,-3.0,-0.16632080078125,0.36395263671875,0.33612060546875,0.8525390625,-0.76318359375,-0.0341796875,0.68359375,-0.125,-7.4375,3.25
3.254999999999953,-10.0,94.0,3.0,11.0,1.0,0.0,-8.0,-2.0,-0.16632080078125,0.36395263671875,0.33612060546875,0.8525390625,-0.76318359375,-0.0341796875,0.68359375,-0.125,-7.4375,3.25
3.2599999999999527,-10.0,94.0,3.0,11.0,1.0,0.0,-8.0,-2.0,-0.1661376953125,0.36248779296875,0.33636474609375,0.85308837890625,-0.7666015625,-0.0009765625,0.70361328125,-3.625,-9.375,-2.6875
3.2649999999999526,-1.0,-49.0,18.0,32.0,11.0,1.0,-9.0,-7.0,-0.1654052734375,0.361328125,0.3353271484375,0.8541259765625,-0.75048828125,-0.02490234375,0.69775390625,3.625,-8.8125,-7.6875
3.2699999999999525,5.0,-22.0,3.0,11.0,5.0,2.0,5.0,-4.0,-0.163818359375,0.36016845703125,0.333984375,0.85546875,-0.71484375,-0.0224609375,0.70849609375,8.625,-8.625,-7.875
3.2749999999999524,-2.0,-1.0,-42.0,-15.0,-5.0,-4.0,2.0,6.0,-0.16363525390625,0.35894775390625,0.333251953125,0.85626220703125,-0.72412109375,0.01123046875,0.72216796875,-2.0,-5.5625,-8.5
3.2799999999999523,2.0,-18.0,-12.0,28.0,13.0,7.0,2.0,-3.0,-0.16363525390625,0.35894775390625,0.333251953125,0.85626220703125,-0.72412109375,0.01123046875,0.72216796875,-2.0,-5.5625,-8.5
3.284999999999952,-3.0,-5.0,26.0,7.0,0.0,-1.0,-5.0,-6.0,-0.164306640625,0.357666015625,0.3328857421875,0.85687255859375,-0.72607421875,-0.0322265625,0.71240234375,-4.9375,-4.75,-6.1875
3.289999999999952,-5.0,-16.0,18.0,-15.0,-3.0,-7.0,-9.0,-7.0,-0.164306640625,0.357666015625,0.3328857421875,0.85687255859375,-0.72607421875,-0.0322265625,0.71240234375,-4.9375,-4.75,-6.1875
