0.005,0.0,1.0,-1.0,2.0,1.0,0.0,0.0,1.0,-0.155517578125,0.281982421875,0.38812255859375,0.86346435546875,-0.62060546875,-0.05517578125,0.80419921875,-0.5625,0.8125,-0.6875
0.01,-5.0,-5.0,20.0,2.0,-3.0,-2.0,-2.0,-3.0,-0.15557861328125,0.281982421875,0.38812255859375,0.86346435546875,-0.623046875,-0.05126953125,0.8056640625,-0.6875,0.5625,-0.5
0.015,-1.0,-3.0,1.0,-3.0,-2.0,-1.0,-2.0,-2.0,-0.15557861328125,0.281982421875,0.38812255859375,0.86346435546875,-0.623046875,-0.05126953125,0.8056640625,-0.6875,0.5625,-0.5
0.02,1.0,3.0,-6.0,-3.0,1.0,0.0,0.0,-2.0,-0.15557861328125,0.28204345703125,0.3880615234375,0.86346435546875,-0.62548828125,-0.0595703125,0.8037109375,-0.375,0.0625,-0.125
0.025,-3.0,-4.0,-9.0,-7.0,-3.0,-2.0,-3.0,-2.0,-0.15557861328125,0.28204345703125,0.3880615234375,0.86346435546875,-0.62548828125,-0.0595703125,0.8037109375,-0.375,0.0625,-0.125
0.030000000000000002,3.0,4.0,-7.0,-4.0,0.0,1.0,1.0,0.0,-0.15557861328125,0.28204345703125,0.3880615234375,0.86346435546875,-0.62548828125,-0.0595703125,0.8037109375,-0.375,0.0625,-0.125
0.035,3.0,4.0,-7.0,-4.0,0.0,1.0,1.0,0.0,-0.15557861328125,0.28204345703125,0.3880615234375,0.86346435546875,-0.625,-0.05419921875,0.80908203125,0.125,-0.375,0.25
0.04,1.0,2.0,-3.0,2.0,1.0,-1.0,0.0,-2.0,-0.15557861328125,0.28204345703125,0.3880615234375,0.86346435546875,-0.625,-0.05419921875,0.80908203125,0.125,-0.375,0.25
0.045,-3.0,-13.0,-16.0,6.0,-4.0,-2.0,0.0,-1.0,-0.1556396484375,0.28204345703125,0.3880615234375,0.86346435546875,-0.62158203125,-0.05712890625,0.80517578125,0.125,-0.6875,0.375
0.049999999999999996,-3.0,-13.0,-16.0,6.0,-4.0,-2.0,0.0,-1.0,-0.1556396484375,0.28204345703125,0.3880615234375,0.86346435546875,-0.62158203125,-0.05712890625,0.80517578125,0.125,-0.6875,0.375
0.05499999999999999,-1.0,2.0,2.0,-11.0,-2.0,-1.0,-2.0,-1.0,-0.1556396484375,0.28204345703125,0.3880615234375,0.86346435546875,-0.62158203125,-0.05712890625,0.80517578125,0.125,-0.6875,0.375
0.05999999999999999,1.0,3.0,8.0,-5.0,2.0,0.0,0.0,1.0,-0.1556396484375,0.28204345703125,0.3880615234375,0.86346435546875,-0.62060546875,-0.05517578125,0.80712890625,0.0625,-0.875,0.5
0.06499999999999999,0.0,1.0,-12.0,-5.0,-4.0,-1.0,-1.0,-2.0,-0.1556396484375,0.28204345703125,0.3880615234375,0.86346435546875,-0.62060546875,-0.05517578125,0.80712890625,0.0625,-0.875,0.5
0.06999999999999999,-2.0,-1.0,2.0,-3.0,1.0,-1.0,0.0,-2.0,-0.1556396484375,0.281982421875,0.3880615234375,0.86346435546875,-0.6181640625,-0.05615234375,0.80859375,0.375,-0.9375,0.8125
0.075,-2.0,-1.0,2.0,-3.0,1.0,-1.0,0.0,-2.0,-0.1556396484375,0.281982421875,0.3880615234375,0.86346435546875,-0.6181640625,-0.05615234375,0.80859375,0.375,-0.9375,0.8125
0.08,-3.0,-16.0,-19.0,-13.0,-5.0,-2.0,-3.0,-1.0,-0.1556396484375,0.281982421875,0.3880615234375,0.86346435546875,-0.62158203125,-0.052734375,0.80615234375,0.375,-0.9375,0.8125
0.085,-3.0,-5.0,-15.0,16.0,-2.0,-2.0,-1.0,-3.0,-0.1556396484375,0.281982421875,0.3880615234375,0.86346435546875,-0.62060546875,-0.05126953125,0.81201171875,0.5625,-0.8125,0.4375
0.09000000000000001,-3.0,1.0,-1.0,-5.0,0.0,-2.0,0.0,-1.0,-0.1556396484375,0.281982421875,0.3880615234375,0.86346435546875,-0.62060546875,-0.05126953125,0.81201171875,0.5625,-0.8125,0.4375
0.09500000000000001,1.0,2.0,-3.0,-5.0,1.0,0.0,-2.0,0.0,-0.1556396484375,0.281982421875,0.3880615234375,0.86346435546875,-0.61474609375,-0.0537109375,0.80859375,0.6875,-0.4375,0.25
0.10000000000000002,0.0,3.0,6.0,-3.0,-2.0,-3.0,-1.0,0.0,-0.15533447265625,0.28204345703125,0.3880615234375,0.863525390625,-0.61767578125,-0.04052734375,0.81640625,1.1875,-0.0625,0.0
0.10500000000000002,-2.0,4.0,-10.0,0.0,-2.0,-1.0,0.0,-2.0,-0.15533447265625,0.28204345703125,0.3880615234375,0.863525390625,-0.61767578125,-0.04052734375,0.81640625,1.1875,-0.0625,0.0
0.11000000000000003,-2.0,4.0,-10.0,0.0,-2.0,-1.0,0.0,-2.0,-0.15533447265625,0.28204345703125,0.3880615234375,0.863525390625,-0.61767578125,-0.04052734375,0.81640625,1.1875,-0.0625,0.0
0.11500000000000003,-3.0,-10.0,-4.0,-10.0,-3.0,-1.0,0.0,-2.0,-0.1552734375,0.28204345703125,0.3880615234375,0.863525390625,-0.61279296875,-0.04638671875,0.8056640625,-0.5625,0.5,-0.3125
0.12000000000000004,0.0,0.0,-4.0,-2.0,1.0,0.0,0.0,-1.0,-0.1552734375,0.28204345703125,0.3880615234375,0.863525390625,-0.61962890625,-0.04736328125,0.80810546875,-0.5625,0.625,-0.6875
0.12500000000000003,-6.0,-9.0,1.0,10.0,-2.0,-1.0,-2.0,-3.0,-0.1552734375,0.28204345703125,0.3880615234375,0.863525390625,-0.61962890625,-0.04736328125,0.80810546875,-0.5625,0.625,-0.6875
0.13000000000000003,1.0,0.0,-1.0,2.0,-1.0,-1.0,0.0,1.0,-0.1552734375,0.28204345703125,0.3880615234375,0.863525390625,-0.6201171875,-0.05419921875,0.8115234375,-0.5625,0.75,-0.625
0.13500000000000004,1.0,0.0,-1.0,2.0,-1.0,-1.0,0.0,1.0,-0.1552734375,0.28204345703125,0.3880615234375,0.863525390625,-0.6201171875,-0.05419921875,0.8115234375,-0.5625,0.75,-0.625
0.14000000000000004,1.0,1.0,7.0,-5.0,-2.0,-2.0,-1.0,2.0,-0.1552734375,0.28204345703125,0.3880615234375,0.863525390625,-0.6201171875,-0.05419921875,0.8115234375,-0.5625,0.75,-0.625
0.14500000000000005,-3.0,-2.0,3.0,-3.0,0.0,0.0,-2.0,-1.0,-0.1552734375,0.28204345703125,0.3880615234375,0.863525390625,-0.62548828125,-0.04833984375,0.80712890625,0.0,0.875,-1.0
0.15000000000000005,1.0,4.0,4.0,0.0,-1.0,0.0,0.0,-2.0,-0.1552734375,0.28204345703125,0.3880615234375,0.863525390625,-0.62548828125,-0.04833984375,0.80712890625,0.0,0.875,-1.0
0.15500000000000005,-1.0,1.0,-2.0,-6.0,-1.0,0.0,0.0,0.0,-0.1552734375,0.28204345703125,0.3880615234375,0.863525390625,-0.62353515625,-0.05224609375,0.80810546875,-0.25,0.875,-0.75
0.16000000000000006,-1.0,1.0,-2.0,-6.0,-1.0,0.0,0.0,0.0,-0.15533447265625,0.28204345703125,0.3880615234375,0.863525390625,-0.62109375,-0.05419921875,0.81005859375,-0.4375,0.625,-1.0
0.16500000000000006,-2.0,0.0,3.0,0.0,-1.0,-1.0,-1.0,-2.0,-0.15533447265625,0.28204345703125,0.3880615234375,0.863525390625,-0.61572265625,-0.060546875,0.80908203125,-0.9375,0.0625,-0.75
0.17000000000000007,-1.0,3.0,-4.0,-3.0,-2.0,-3.0,-2.0,-1.0,-0.15533447265625,0.28204345703125,0.3880615234375,0.863525390625,-0.61572265625,-0.060546875,0.80908203125,-0.9375,0.0625,-0.75
0.17500000000000007,0.0,-4.0,3.0,1.0,-1.0,-1.0,-1.0,0.0,-0.15533447265625,0.28204345703125,0.3880615234375,0.863525390625,-0.61572265625,-0.060546875,0.80908203125,-0.9375,0.0625,-0.75
0.18000000000000008,1.0,0.0,2.0,-5.0,0.0,0.0,-2.0,-1.0,-0.15533447265625,0.28204345703125,0.3880615234375,0.863525390625,-0.62109375,-0.056640625,0.80029296875,-0.375,-0.25,-0.5625
0.18500000000000008,-2.0,0.0,2.0,24.0,-1.0,-1.0,-1.0,-1.0,-0.1553955078125,0.28204345703125,0.3880615234375,0.863525390625,-0.62939453125,-0.05419921875,0.80615234375,0.0625,-0.5,0.0
0.19000000000000009,0.0,1.0,-5.0,3.0,-1.0,0.0,0.0,0.0,-0.1553955078125,0.28204345703125,0.3880615234375,0.863525390625,-0.62939453125,-0.05419921875,0.80615234375,0.0625,-0.5,0.0
0.1950000000000001,-1.0,0.0,-3.0,-12.0,-4.0,-4.0,-2.0,-2.0,-0.1553955078125,0.28204345703125,0.3880615234375,0.863525390625,-0.626953125,-0.0546875,0.8037109375,-0.1875,-0.6875,0.0
0.2000000000000001,-1.0,0.0,-3.0,-12.0,-4.0,-4.0,-2.0,-2.0,-0.1553955078125,0.28204345703125,0.3880615234375,0.863525390625,-0.626953125,-0.0546875,0.8037109375,-0.1875,-0.6875,0.0
0.2050000000000001,0.0,-2.0,-3.0,-5.0,-1.0,-2.0,-2.0,-1.0,-0.1553955078125,0.28204345703125,0.38800048828125,0.863525390625,-0.62109375,-0.0576171875,0.8056640625,0.625,-0.5625,0.4375
0.2100000000000001,-1.0,4.0,-7.0,-5.0,-2.0,0.0,-2.0,-1.0,-0.1553955078125,0.28204345703125,0.38800048828125,0.863525390625,-0.62109375,-0.0576171875,0.8056640625,0.625,-0.5625,0.4375
0.2150000000000001,-4.0,2.0,4.0,0.0,1.0,0.0,0.0,-1.0,-0.1553955078125,0.28204345703125,0.38800048828125,0.863525390625,-0.62109375,-0.0576171875,0.8056640625,0.625,-0.5625,0.4375
0.2200000000000001,-1.0,-3.0,-4.0,0.0,-1.0,-2.0,-1.0,0.0,-0.1553955078125,0.28204345703125,0.38800048828125,0.863525390625,-0.62109375,-0.05419921875,0.80908203125,0.8125,-0.375,0.5625
0.22500000000000012,0.0,-2.0,9.0,-3.0,-2.0,0.0,-1.0,-3.0,-0.1553955078125,0.28204345703125,0.38800048828125,0.863525390625,-0.6171875,-0.0517578125,0.80908203125,0.3125,-0.25,0.25
0.23000000000000012,0.0,-2.0,9.0,-3.0,-2.0,0.0,-1.0,-3.0,-0.1553955078125,0.28204345703125,0.38800048828125,0.863525390625,-0.6171875,-0.0517578125,0.80908203125,0.3125,-0.25,0.25
0.23500000000000013,-1.0,0.0,-7.0,-6.0,3.0,0.0,0.0,0.0,-0.1553955078125,0.28204345703125,0.38800048828125,0.863525390625,-0.61376953125,-0.05078125,0.80615234375,-0.5,-0.25,0.3125
0.24000000000000013,-1.0,0.0,-7.0,-6.0,3.0,0.0,0.0,0.0,-0.1553955078125,0.28204345703125,0.38800048828125,0.863525390625,-0.61376953125,-0.05078125,0.80615234375,-0.5,-0.25,0.3125
0.24500000000000013,-1.0,-4.0,1.0,3.0,0.0,-1.0,-2.0,0.0,-0.1553955078125,0.28204345703125,0.38800048828125,0.863525390625,-0.61376953125,-0.05078125,0.80615234375,-0.5,-0.25,0.3125
0.2500000000000001,-1.0,0.0,-5.0,-2.0,-1.0,0.0,-1.0,0.0,-0.1553955078125,0.28204345703125,0.38800048828125,0.863525390625,-0.61376953125,-0.056640625,0.81103515625,-0.375,0.0,0.0
0.2550000000000001,-2.0,-5.0,-13.0,-4.0,1.0,-2.0,-1.0,-1.0,-0.1553955078125,0.28204345703125,0.38800048828125,0.863525390625,-0.61376953125,-0.056640625,0.81103515625,-0.375,0.0,0.0
0.2600000000000001,-1.0,3.0,-4.0,1.0,-1.0,-3.0,-1.0,0.0,-0.1553955078125,0.281982421875,0.38800048828125,0.863525390625,-0.6162109375,-0.0537109375,0.81103515625,-0.375,0.125,-0.0625
0.2650000000000001,-2.0,-6.0,-8.0,-9.0,-4.0,-2.0,-1.0,-2.0,-0.15545654296875,0.281982421875,0.38800048828125,0.863525390625,-0.61962890625,-0.05224609375,0.8095703125,-0.0625,0.0625,-0.0625
0.27000000000000013,-1.0,6.0,1.0,-4.0,-3.0,-1.0,-1.0,-1.0,-0.15545654296875,0.281982421875,0.38800048828125,0.863525390625,-0.61962890625,-0.05224609375,0.8095703125,-0.0625,0.0625,-0.0625
0.27500000000000013,-1.0,6.0,1.0,-4.0,-3.0,-1.0,-1.0,-1.0,-0.15545654296875,0.281982421875,0.38800048828125,0.863525390625,-0.62060546875,-0.05419921875,0.810546875,-0.25,0.125,-0.0625
0.28000000000000014,-1.0,-2.0,-8.0,-14.0,-4.0,-1.0,-2.0,-1.0,-0.15545654296875,0.281982421875,0.38800048828125,0.863525390625,-0.62060546875,-0.05419921875,0.810546875,-0.25,0.125,-0.0625
0.28500000000000014,0.0,-1.0,3.0,2.0,1.0,0.0,-1.0,-2.0,-0.15545654296875,0.281982421875,0.38800048828125,0.863525390625,-0.62451171875,-0.05224609375,0.80810546875,-0.25,0.0,-0.1875
0.29000000000000015,-4.0,0.0,22.0,-5.0,-4.0,-2.0,-3.0,-4.0,-0.15545654296875,0.281982421875,0.38800048828125,0.863525390625,-0.6171875,-0.05859375,0.8056640625,-0.5625,0.0,-0.5625
0.29500000000000015,-1.0,-1.0,-3.0,0.0,0.0,-2.0,0.0,0.0,-0.15545654296875,0.281982421875,0.38800048828125,0.863525390625,-0.6171875,-0.05859375,0.8056640625,-0.5625,0.0,-0.5625
0.30000000000000016,0.0,0.0,-10.0,3.0,0.0,-1.0,-1.0,-1.0,-0.15545654296875,0.281982421875,0.38800048828125,0.863525390625,-0.61181640625,-0.0595703125,0.80859375,0.0625,0.0625,-0.5
0.30500000000000016,0.0,0.0,-10.0,3.0,0.0,-1.0,-1.0,-1.0,-0.15545654296875,0.281982421875,0.38800048828125,0.863525390625,-0.61181640625,-0.0595703125,0.80859375,0.0625,0.0625,-0.5
0.31000000000000016,-1.0,-3.0,-14.0,-3.0,-1.0,-1.0,0.0,-1.0,-0.15545654296875,0.281982421875,0.38800048828125,0.863525390625,-0.626953125,-0.0498046875,0.80517578125,0.3125,-0.1875,0.0
0.31500000000000017,0.0,-1.0,0.0,5.0,-2.0,0.0,-3.0,-2.0,-0.15545654296875,0.281982421875,0.38800048828125,0.863525390625,-0.626953125,-0.0498046875,0.80517578125,0.3125,-0.1875,0.0
0.3200000000000002,-1.0,0.0,-7.0,-2.0,-3.0,0.0,-2.0,-1.0,-0.155517578125,0.281982421875,0.38800048828125,0.863525390625,-0.623046875,-0.05517578125,0.80615234375,-0.75,-0.4375,0.1875
0.3250000000000002,0.0,-2.0,-25.0,2.0,1.0,1.0,0.0,-1.0,-0.155517578125,0.281982421875,0.38800048828125,0.863525390625,-0.623046875,-0.05517578125,0.80615234375,-0.75,-0.4375,0.1875
0.3300000000000002,0.0,-2.0,-25.0,2.0,1.0,1.0,0.0,-1.0,-0.155517578125,0.281982421875,0.38800048828125,0.863525390625,-0.61572265625,-0.05712890625,0.81201171875,-0.625,-0.3125,0.375
0.3350000000000002,-1.0,-2.0,18.0,-2.0,-2.0,1.0,0.0,-2.0,-0.155517578125,0.281982421875,0.38800048828125,0.863525390625,-0.61572265625,-0.05712890625,0.81201171875,-0.625,-0.3125,0.375
0.3400000000000002,-2.0,-3.0,1.0,2.0,0.0,-3.0,0.0,-1.0,-0.155517578125,0.28192138671875,0.38800048828125,0.863525390625,-0.6181640625,-0.05419921875,0.8134765625,-0.0625,-0.0625,0.5
0.3450000000000002,0.0,1.0,7.0,-6.0,-4.0,-3.0,-2.0,0.0,-0.155517578125,0.281982421875,0.38800048828125,0.863525390625,-0.62109375,-0.04833984375,0.80615234375,-0.5,-0.3125,0.4375
0.3500000000000002,-2.0,-1.0,6.0,-2.0,1.0,-1.0,0.0,-1.0,-0.155517578125,0.281982421875,0.38800048828125,0.863525390625,-0.62109375,-0.04833984375,0.80615234375,-0.5,-0.3125,0.4375
0.3550000000000002,-2.0,-1.0,6.0,-2.0,1.0,-1.0,0.0,-1.0,-0.1556396484375,0.28179931640625,0.38824462890625,0.86346435546875,-0.619140625,-0.0537109375,0.8125,-1.3125,-0.5625,1.0
0.3600000000000002,-1.0,-1.0,-13.0,14.0,-3.0,-3.0,-2.0,-1.0,-0.1556396484375,0.28179931640625,0.38824462890625,0.86346435546875,-0.619140625,-0.0537109375,0.8125,-1.3125,-0.5625,1.0
0.3650000000000002,-1.0,-1.0,-13.0,14.0,-3.0,-3.0,-2.0,-1.0,-0.1556396484375,0.28179931640625,0.38824462890625,0.86346435546875,-0.619140625,-0.0537109375,0.8125,-1.3125,-0.5625,1.0
0.3700000000000002,-2.0,-2.0,-2.0,-8.0,-1.0,-2.0,-3.0,-2.0,-0.1556396484375,0.28173828125,0.38818359375,0.86346435546875,-0.61962890625,-0.05615234375,0.8095703125,-0.9375,-0.125,0.8125
0.3750000000000002,-2.0,-2.0,-2.0,-8.0,-1.0,-2.0,-3.0,-2.0,-0.1556396484375,0.28173828125,0.38818359375,0.86346435546875,-0.61865234375,-0.05615234375,0.80712890625,-0.4375,0.25,-0.0625
0.3800000000000002,-2.0,-8.0,2.0,-11.0,-5.0,-3.0,-1.0,-2.0,-0.1556396484375,0.28173828125,0.38818359375,0.86346435546875,-0.61865234375,-0.05615234375,0.80712890625,-0.4375,0.25,-0.0625
0.38500000000000023,-2.0,-8.0,2.0,-11.0,-5.0,-3.0,-1.0,-2.0,-0.1556396484375,0.28173828125,0.38824462890625,0.86346435546875,-0.6162109375,-0.0458984375,0.8115234375,0.375,0.4375,-0.5
0.39000000000000024,-1.0,1.0,-9.0,-4.0,-1.0,0.0,0.0,-2.0,-0.1556396484375,0.28173828125,0.38824462890625,0.86346435546875,-0.6162109375,-0.0458984375,0.8115234375,0.375,0.4375,-0.5
0.39500000000000024,-1.0,1.0,-9.0,-4.0,-1.0,0.0,0.0,-2.0,-0.1556396484375,0.28173828125,0.38824462890625,0.86346435546875,-0.6162109375,-0.0458984375,0.8115234375,0.375,0.4375,-0.5
0.40000000000000024,0.0,-1.0,12.0,1.0,2.0,1.0,-1.0,-1.0,-0.1556396484375,0.28173828125,0.38824462890625,0.86346435546875,-0.619140625,-0.05224609375,0.80712890625,-0.1875,0.375,-0.25
0.40500000000000025,0.0,-1.0,12.0,1.0,2.0,1.0,-1.0,-1.0,-0.1556396484375,0.28173828125,0.38818359375,0.86346435546875,-0.61474609375,-0.05517578125,0.8125,-0.6875,0.75,-0.25
0.41000000000000025,-2.0,-3.0,-4.0,-4.0,-2.0,0.0,-2.0,-3.0,-0.1556396484375,0.28173828125,0.38818359375,0.86346435546875,-0.61474609375,-0.05517578125,0.8125,-0.6875,0.75,-0.25
0.41500000000000026,2.0,3.0,5.0,9.0,-2.0,-3.0,0.0,0.0,-0.1556396484375,0.28173828125,0.38818359375,0.86346435546875,-0.61474609375,-0.05517578125,0.8125,-0.6875,0.75,-0.25
0.42000000000000026,2.0,3.0,5.0,9.0,-2.0,-3.0,0.0,0.0,-0.1556396484375,0.28173828125,0.38818359375,0.86346435546875,-0.6181640625,-0.05810546875,0.80517578125,-0.75,0.75,-0.375
0.42500000000000027,-1.0,-4.0,-9.0,-8.0,-4.0,-2.0,-1.0,-1.0,-0.1556396484375,0.28173828125,0.38818359375,0.86346435546875,-0.6220703125,-0.0537109375,0.810546875,-0.5,0.8125,-0.625
0.43000000000000027,1.0,0.0,-1.0,-5.0,-3.0,0.0,0.0,0.0,-0.1556396484375,0.28173828125,0.38818359375,0.86346435546875,-0.61962890625,-0.0556640625,0.8046875,-0.0625,0.625,-0.6875
0.4350000000000003,0.0,-1.0,-6.0,-1.0,0.0,2.0,-2.0,-1.0,-0.1556396484375,0.28173828125,0.38818359375,0.86346435546875,-0.61962890625,-0.0556640625,0.8046875,-0.0625,0.625,-0.6875
0.4400000000000003,0.0,-1.0,-6.0,-1.0,0.0,2.0,-2.0,-1.0,-0.15570068359375,0.28173828125,0.38818359375,0.86346435546875,-0.62255859375,-0.0556640625,0.80322265625,-0.1875,0.125,-0.4375
0.4450000000000003,0.0,1.0,7.0,8.0,-3.0,-2.0,-3.0,-1.0,-0.15570068359375,0.28173828125,0.38818359375,0.86346435546875,-0.62255859375,-0.0556640625,0.80322265625,-0.1875,0.125,-0.4375
0.4500000000000003,-1.0,-2.0,-3.0,6.0,-3.0,-1.0,-1.0,1.0,-0.15570068359375,0.28173828125,0.38818359375,0.86346435546875,-0.62353515625,-0.0556640625,0.80615234375,-0.125,-0.0625,-0.3125
0.4550000000000003,-1.0,-2.0,-3.0,6.0,-3.0,-1.0,-1.0,1.0,-0.15570068359375,0.28173828125,0.38818359375,0.86346435546875,-0.62353515625,-0.0556640625,0.80615234375,-0.125,-0.0625,-0.3125
0.4600000000000003,-4.0,-5.0,-3.0,-5.0,-1.0,-1.0,-1.0,-2.0,-0.15570068359375,0.28173828125,0.38818359375,0.86346435546875,-0.62353515625,-0.0556640625,0.80615234375,-0.125,-0.0625,-0.3125
0.4650000000000003,-4.0,-5.0,-3.0,-5.0,-1.0,-1.0,-1.0,-2.0,-0.15570068359375,0.28173828125,0.38818359375,0.86346435546875,-0.625,-0.0576171875,0.8046875,-0.0625,-0.25,-0.3125
0.4700000000000003,0.0,-1.0,-1.0,0.0,0.0,0.0,-1.0,-1.0,-0.15570068359375,0.28173828125,0.38818359375,0.86346435546875,-0.625,-0.0576171875,0.8046875,-0.0625,-0.25,-0.3125
0.4750000000000003,0.0,-1.0,-1.0,0.0,0.0,0.0,-1.0,-1.0,-0.15576171875,0.28173828125,0.38818359375,0.86346435546875,-0.62109375,-0.0576171875,0.80419921875,0.5,-0.4375,-0.0625
0.4800000000000003,-1.0,1.0,2.0,1.0,-2.0,-2.0,0.0,-2.0,-0.15576171875,0.28173828125,0.38818359375,0.86346435546875,-0.62109375,-0.0576171875,0.80419921875,0.5,-0.4375,-0.0625
0.4850000000000003,1.0,2.0,-4.0,-4.0,-1.0,-1.0,1.0,-1.0,-0.15576171875,0.28173828125,0.38818359375,0.86346435546875,-0.6162109375,-0.05712890625,0.8046875,0.8125,-0.5625,0.125
0.4900000000000003,-5.0,-1.0,6.0,4.0,-1.0,-2.0,0.0,0.0,-0.15576171875,0.28173828125,0.38818359375,0.86346435546875,-0.6162109375,-0.05712890625,0.8046875,0.8125,-0.5625,0.125
0.49500000000000033,-2.0,-9.0,-28.0,-19.0,-1.0,-2.0,-3.0,-2.0,-0.15576171875,0.28173828125,0.38818359375,0.86346435546875,-0.61865234375,-0.05224609375,0.80517578125,0.3125,-0.75,0.125
0.5000000000000003,0.0,-1.0,-4.0,14.0,-2.0,-3.0,-2.0,-1.0,-0.15576171875,0.28173828125,0.38818359375,0.86346435546875,-0.61865234375,-0.05224609375,0.80517578125,0.3125,-0.75,0.125
0.5050000000000003,0.0,-1.0,-4.0,14.0,-2.0,-3.0,-2.0,-1.0,-0.15576171875,0.28173828125,0.38818359375,0.86346435546875,-0.61962890625,-0.05517578125,0.80810546875,-0.6875,-0.5,0.25
0.5100000000000003,-1.0,-2.0,-5.0,-9.0,0.0,0.0,-1.0,0.0,-0.15576171875,0.28173828125,0.38818359375,0.86346435546875,-0.61865234375,-0.056640625,0.81640625,-0.125,-0.0625,0.0625
0.5150000000000003,0.0,2.0,6.0,3.0,2.0,-2.0,-1.0,0.0,-0.15576171875,0.28173828125,0.38818359375,0.86346435546875,-0.61865234375,-0.056640625,0.81640625,-0.125,-0.0625,0.0625
0.5200000000000004,-2.0,4.0,11.0,-2.0,0.0,1.0,-1.0,-1.0,-0.15576171875,0.28173828125,0.38818359375,0.86346435546875,-0.61962890625,-0.05322265625,0.80908203125,0.25,0.125,0.0
0.5250000000000004,-1.0,-1.0,-4.0,-4.0,0.0,1.0,-1.0,-1.0,-0.15576171875,0.28173828125,0.38818359375,0.86346435546875,-0.61962890625,-0.05322265625,0.80908203125,0.25,0.125,0.0
0.5300000000000004,-1.0,-1.0,-4.0,-4.0,0.0,1.0,-1.0,-1.0,-0.15576171875,0.28173828125,0.38818359375,0.86346435546875,-0.61669921875,-0.0546875,0.8056640625,0.625,0.375,0.0
0.5350000000000004,0.0,4.0,15.0,2.0,1.0,-1.0,-1.0,-1.0,-0.15576171875,0.28173828125,0.38818359375,0.86346435546875,-0.61669921875,-0.0546875,0.8056640625,0.625,0.375,0.0
0.5400000000000004,-1.0,-4.0,-3.0,2.0,-2.0,-2.0,-2.0,-1.0,-0.15576171875,0.28173828125,0.38818359375,0.86346435546875,-0.61962890625,-0.052734375,0.806640625,-0.5,0.1875,-0.1875
0.5450000000000004,-1.0,0.0,-12.0,-11.0,-3.0,0.0,0.0,-1.0,-0.15576171875,0.28173828125,0.38818359375,0.86346435546875,-0.61962890625,-0.052734375,0.806640625,-0.5,0.1875,-0.1875
0.5500000000000004,-1.0,0.0,-12.0,-11.0,-3.0,0.0,0.0,-1.0,-0.15576171875,0.28173828125,0.38818359375,0.86346435546875,-0.61962890625,-0.052734375,0.806640625,-0.5,0.1875,-0.1875
0.5550000000000004,0.0,0.0,6.0,21.0,0.0,-1.0,-1.0,0.0,-0.15582275390625,0.28167724609375,0.38818359375,0.863525390625,-0.6162109375,-0.05810546875,0.8154296875,-0.3125,-0.0625,-0.125
0.5600000000000004,0.0,0.0,6.0,21.0,0.0,-1.0,-1.0,0.0,-0.15582275390625,0.28167724609375,0.38818359375,0.863525390625,-0.6162109375,-0.05810546875,0.8154296875,-0.3125,-0.0625,-0.125
0.5650000000000004,0.0,-1.0,9.0,-1.0,-2.0,-1.0,0.0,0.0,-0.15582275390625,0.28167724609375,0.38818359375,0.863525390625,-0.6162109375,-0.05810546875,0.8154296875,-0.3125,-0.0625,-0.125
0.5700000000000004,0.0,2.0,1.0,-6.0,-1.0,-1.0,-1.0,0.0,-0.15582275390625,0.28167724609375,0.38812255859375,0.86346435546875,-0.6220703125,-0.0556640625,0.8037109375,-0.1875,-0.0625,-0.375
0.5750000000000004,0.0,2.0,1.0,-6.0,-1.0,-1.0,-1.0,0.0,-0.15582275390625,0.28167724609375,0.38812255859375,0.86346435546875,-0.6220703125,-0.0556640625,0.8037109375,-0.1875,-0.0625,-0.375
0.5800000000000004,-1.0,3.0,-1.0,-2.0,-2.0,-1.0,-3.0,-3.0,-0.15582275390625,0.28167724609375,0.38812255859375,0.86346435546875,-0.6220703125,-0.0556640625,0.8037109375,-0.1875,-0.0625,-0.375
0.5850000000000004,-5.0,-11.0,-25.0,-7.0,1.0,-2.0,-2.0,-2.0,-0.15582275390625,0.28167724609375,0.38812255859375,0.863525390625,-0.6171875,-0.0634765625,0.80615234375,-0.375,-0.4375,-0.5625
0.5900000000000004,-2.0,0.0,-3.0,6.0,0.0,0.0,0.0,-2.0,-0.15582275390625,0.28167724609375,0.38812255859375,0.863525390625,-0.6171875,-0.0634765625,0.80615234375,-0.375,-0.4375,-0.5625
0.5950000000000004,-1.0,4.0,10.0,-15.0,-3.0,0.0,-1.0,0.0,-0.15582275390625,0.28167724609375,0.38812255859375,0.863525390625,-0.61572265625,-0.0556640625,0.80712890625,-0.125,-0.25,-0.375
0.6000000000000004,0.0,2.0,4.0,16.0,0.0,0.0,0.0,-1.0,-0.15582275390625,0.28167724609375,0.38812255859375,0.863525390625,-0.61572265625,-0.0556640625,0.80712890625,-0.125,-0.25,-0.375
0.6050000000000004,-1.0,-2.0,-3.0,-5.0,-1.0,-2.0,0.0,-2.0,-0.15582275390625,0.28167724609375,0.38812255859375,0.863525390625,-0.6259765625,-0.05029296875,0.80859375,0.1875,-0.125,-0.1875
0.6100000000000004,-1.0,-2.0,-3.0,-5.0,-1.0,-2.0,0.0,-2.0,-0.15582275390625,0.28167724609375,0.38812255859375,0.863525390625,-0.6259765625,-0.05029296875,0.80859375,0.1875,-0.125,-0.1875
0.6150000000000004,1.0,1.0,-4.0,-4.0,-2.0,-1.0,-2.0,0.0,-0.1558837890625,0.28167724609375,0.38812255859375,0.86346435546875,-0.623046875,-0.052734375,0.8046875,-0.125,-0.125,-0.375
0.6200000000000004,-1.0,-1.0,-4.0,-2.0,-1.0,-1.0,1.0,-1.0,-0.1558837890625,0.28167724609375,0.38812255859375,0.86346435546875,-0.623046875,-0.052734375,0.8046875,-0.125,-0.125,-0.375
0.6250000000000004,-2.0,-3.0,-26.0,-7.0,-1.0,1.0,-1.0,0.0,-0.1558837890625,0.28167724609375,0.38812255859375,0.863525390625,-0.61669921875,-0.060546875,0.80908203125,0.25,0.0,-0.3125
0.6300000000000004,-1.0,0.0,7.0,2.0,-1.0,-4.0,-2.0,0.0,-0.1558837890625,0.28167724609375,0.38812255859375,0.863525390625,-0.6220703125,-0.05615234375,0.8095703125,0.375,0.0,-0.125
0.6350000000000005,-1.0,0.0,7.0,2.0,-1.0,-4.0,-2.0,0.0,-0.1558837890625,0.28167724609375,0.38812255859375,0.863525390625,-0.6220703125,-0.05615234375,0.8095703125,0.375,0.0,-0.125
0.6400000000000005,-5.0,-6.0,12.0,-15.0,-3.0,-2.0,-2.0,-2.0,-0.1558837890625,0.28167724609375,0.38812255859375,0.863525390625,-0.62158203125,-0.05615234375,0.8056640625,-0.1875,-0.125,-0.0625
0.6450000000000005,-5.0,-6.0,12.0,-15.0,-3.0,-2.0,-2.0,-2.0,-0.1558837890625,0.28167724609375,0.38812255859375,0.863525390625,-0.62158203125,-0.05615234375,0.8056640625,-0.1875,-0.125,-0.0625
0.6500000000000005,3.0,3.0,5.0,5.0,1.0,1.0,2.0,-1.0,-0.1558837890625,0.28167724609375,0.38812255859375,0.863525390625,-0.62158203125,-0.05615234375,0.8056640625,-0.1875,-0.125,-0.0625
0.6550000000000005,-2.0,-4.0,12.0,-4.0,-2.0,-2.0,-1.0,-1.0,-0.1558837890625,0.28167724609375,0.38812255859375,0.863525390625,-0.615234375,-0.056640625,0.80615234375,-0.5,0.0,-0.1875
0.6600000000000005,0.0,0.0,-2.0,4.0,-1.0,-2.0,-2.0,0.0,-0.15594482421875,0.28167724609375,0.38812255859375,0.863525390625,-0.615234375,-0.06103515625,0.8046875,-0.4375,0.1875,0.0
0.6650000000000005,-1.0,-2.0,-12.0,0.0,1.0,-2.0,-1.0,-2.0,-0.15594482421875,0.28167724609375,0.38812255859375,0.863525390625,-0.615234375,-0.06103515625,0.8046875,-0.4375,0.1875,0.0
0.6700000000000005,-2.0,-1.0,-5.0,2.0,-1.0,-2.0,0.0,-2.0,-0.15594482421875,0.28167724609375,0.38812255859375,0.863525390625,-0.615234375,-0.06103515625,0.8046875,-0.4375,0.1875,0.0
0.6750000000000005,-2.0,-1.0,-5.0,2.0,-1.0,-2.0,0.0,-2.0,-0.15594482421875,0.28167724609375,0.38812255859375,0.863525390625,-0.61865234375,-0.05810546875,0.806640625,-0.125,0.375,-0.0625
0.6800000000000005,-1.0,-1.0,8.0,0.0,0.0,0.0,-1.0,-1.0,-0.15594482421875,0.28167724609375,0.38812255859375,0.863525390625,-0.62255859375,-0.04931640625,0.802734375,0.0,0.5,0.0
0.6850000000000005,1.0,4.0,7.0,-1.0,-1.0,-1.0,-3.0,-1.0,-0.15594482421875,0.28167724609375,0.38812255859375,0.863525390625,-0.62255859375,-0.04931640625,0.802734375,0.0,0.5,0.0
0.6900000000000005,1.0,4.0,7.0,-1.0,-1.0,-1.0,-3.0,-1.0,-0.15594482421875,0.28167724609375,0.38812255859375,0.863525390625,-0.61962890625,-0.05322265625,0.8115234375,-0.1875,0.5,0.125
0.6950000000000005,1.0,2.0,-2.0,-6.0,-5.0,-4.0,0.0,0.0,-0.15594482421875,0.28167724609375,0.38812255859375,0.863525390625,-0.61962890625,-0.05322265625,0.8115234375,-0.1875,0.5,0.125
0.7000000000000005,-3.0,-1.0,-7.0,-7.0,-1.0,1.0,-2.0,-1.0,-0.156005859375,0.2816162109375,0.3880615234375,0.863525390625,-0.6201171875,-0.0634765625,0.8076171875,-0.125,0.125,-0.0625
0.7050000000000005,0.0,-4.0,-2.0,-8.0,-2.0,0.0,0.0,0.0,-0.156005859375,0.2816162109375,0.3880615234375,0.863525390625,-0.61962890625,-0.0625,0.8095703125,0.5625,-0.1875,-0.25
0.7100000000000005,0.0,0.0,0.0,3.0,-2.0,-2.0,-1.0,0.0,-0.156005859375,0.2816162109375,0.3880615234375,0.863525390625,-0.61962890625,-0.0625,0.8095703125,0.5625,-0.1875,-0.25
0.7150000000000005,1.0,3.0,-1.0,-5.0,0.0,-2.0,-1.0,1.0,-0.156005859375,0.2816162109375,0.3880615234375,0.863525390625,-0.62255859375,-0.05078125,0.8095703125,0.5625,-0.5,-0.125
0.7200000000000005,1.0,3.0,-1.0,-5.0,0.0,-2.0,-1.0,1.0,-0.156005859375,0.2816162109375,0.3880615234375,0.863525390625,-0.62255859375,-0.05078125,0.8095703125,0.5625,-0.5,-0.125
0.7250000000000005,-1.0,-1.0,3.0,1.0,0.0,-1.0,-3.0,-1.0,-0.156005859375,0.28167724609375,0.3880615234375,0.863525390625,-0.62548828125,-0.052734375,0.8056640625,0.1875,-0.8125,0.3125
0.7300000000000005,-1.0,-3.0,-1.0,11.0,-1.0,-1.0,-1.0,-2.0,-0.156005859375,0.28167724609375,0.3880615234375,0.863525390625,-0.62548828125,-0.052734375,0.8056640625,0.1875,-0.8125,0.3125
0.7350000000000005,-1.0,-1.0,2.0,0.0,-1.0,-1.0,0.0,-2.0,-0.156005859375,0.28167724609375,0.3880615234375,0.863525390625,-0.62548828125,-0.052734375,0.8056640625,0.1875,-0.8125,0.3125
0.7400000000000005,-4.0,-7.0,-12.0,-1.0,-1.0,-1.0,0.0,-1.0,-0.156005859375,0.2816162109375,0.3880615234375,0.863525390625,-0.62158203125,-0.056640625,0.8134765625,-0.1875,-0.75,0.3125
0.7450000000000006,-1.0,-4.0,5.0,1.0,-2.0,-2.0,-1.0,-2.0,-0.15606689453125,0.2816162109375,0.3880615234375,0.863525390625,-0.6171875,-0.0634765625,0.80517578125,0.5,-0.5625,0.4375
0.7500000000000006,-1.0,-1.0,5.0,10.0,-1.0,-3.0,-3.0,-1.0,-0.15606689453125,0.2816162109375,0.3880615234375,0.863525390625,-0.6171875,-0.0634765625,0.80517578125,0.5,-0.5625,0.4375
0.7550000000000006,-1.0,-1.0,-3.0,8.0,0.0,-1.0,0.0,-2.0,-0.1558837890625,0.28167724609375,0.3880615234375,0.863525390625,-0.61767578125,-0.056640625,0.80224609375,1.0,-0.375,0.375
0.7600000000000006,-1.0,-1.0,-3.0,8.0,0.0,-1.0,0.0,-2.0,-0.1558837890625,0.28167724609375,0.3880615234375,0.863525390625,-0.61767578125,-0.056640625,0.80224609375,1.0,-0.375,0.375
0.7650000000000006,-1.0,-2.0,-1.0,-4.0,-3.0,-3.0,-2.0,-1.0,-0.1558837890625,0.28167724609375,0.3880615234375,0.863525390625,-0.61767578125,-0.056640625,0.80224609375,1.0,-0.375,0.375
0.7700000000000006,-1.0,-2.0,-1.0,-4.0,-3.0,-3.0,-2.0,-1.0,-0.15594482421875,0.28167724609375,0.3880615234375,0.863525390625,-0.61767578125,-0.05322265625,0.8056640625,0.9375,-0.1875,0.3125
0.7750000000000006,1.0,-1.0,3.0,-5.0,0.0,-1.0,-2.0,-1.0,-0.15594482421875,0.28167724609375,0.3880615234375,0.863525390625,-0.61767578125,-0.05322265625,0.8056640625,0.9375,-0.1875,0.3125
0.7800000000000006,-2.0,1.0,2.0,-17.0,-2.0,-2.0,-2.0,-1.0,-0.1558837890625,0.2816162109375,0.3880615234375,0.863525390625,-0.6171875,-0.05126953125,0.8076171875,-0.0625,-0.1875,0.25
0.7850000000000006,-2.0,-1.0,11.0,5.0,-1.0,-3.0,-3.0,0.0,-0.1558837890625,0.2816162109375,0.3880615234375,0.863525390625,-0.6171875,-0.05126953125,0.8076171875,-0.0625,-0.1875,0.25
0.7900000000000006,-1.0,-3.0,2.0,7.0,0.0,0.0,-2.0,0.0,-0.15594482421875,0.2816162109375,0.3880615234375,0.863525390625,-0.6171875,-0.05810546875,0.8095703125,-0.3125,-0.125,0.25
0.7950000000000006,-1.0,-3.0,2.0,7.0,0.0,0.0,-2.0,0.0,-0.15594482421875,0.2816162109375,0.3880615234375,0.863525390625,-0.6171875,-0.05810546875,0.8095703125,-0.3125,-0.125,0.25
0.8000000000000006,-4.0,-6.0,3.0,16.0,2.0,-1.0,0.0,0.0,-0.15594482421875,0.2816162109375,0.3880615234375,0.863525390625,-0.619140625,-0.0595703125,0.810546875,-0.125,0.0625,0.375
0.8050000000000006,-2.0,-3.0,-2.0,-3.0,-5.0,-2.0,0.0,0.0,-0.15594482421875,0.2816162109375,0.3880615234375,0.863525390625,-0.619140625,-0.0595703125,0.810546875,-0.125,0.0625,0.375
0.8100000000000006,-1.0,2.0,-4.0,7.0,-2.0,0.0,0.0,-2.0,-0.15594482421875,0.2816162109375,0.3880615234375,0.863525390625,-0.61767578125,-0.0546875,0.806640625,0.0625,0.375,0.0625
0.8150000000000006,-1.0,2.0,-4.0,7.0,-2.0,0.0,0.0,-2.0,-0.15594482421875,0.2816162109375,0.3880615234375,0.863525390625,-0.61767578125,-0.0546875,0.806640625,0.0625,0.375,0.0625
0.8200000000000006,-2.0,-1.0,-4.0,-4.0,-2.0,-1.0,-2.0,-2.0,-0.15594482421875,0.2816162109375,0.3880615234375,0.863525390625,-0.61767578125,-0.0546875,0.806640625,0.0625,0.375,0.0625
0.8250000000000006,0.0,-3.0,1.0,22.0,3.0,-2.0,-3.0,0.0,-0.15594482421875,0.2816162109375,0.3880615234375,0.863525390625,-0.6181640625,-0.04931640625,0.80859375,0.25,0.5,0.125
0.8300000000000006,-3.0,0.0,-4.0,-7.0,-4.0,-3.0,-1.0,-2.0,-0.15594482421875,0.2816162109375,0.3880615234375,0.863525390625,-0.6181640625,-0.04931640625,0.80859375,0.25,0.5,0.125
0.8350000000000006,-1.0,0.0,1.0,-10.0,0.0,0.0,0.0,-1.0,-0.15594482421875,0.2816162109375,0.3880615234375,0.863525390625,-0.619140625,-0.0537109375,0.80859375,0.0625,0.4375,0.0
0.8400000000000006,-1.0,0.0,7.0,10.0,2.0,-2.0,-1.0,-2.0,-0.15594482421875,0.2816162109375,0.3880615234375,0.863525390625,-0.619140625,-0.0537109375,0.80859375,0.0625,0.4375,0.0
0.8450000000000006,0.0,1.0,-7.0,-6.0,-4.0,-3.0,-1.0,0.0,-0.15594482421875,0.2816162109375,0.3880615234375,0.863525390625,-0.61669921875,-0.05126953125,0.8134765625,-0.125,0.3125,0.3125
0.8500000000000006,0.0,1.0,-7.0,-6.0,-4.0,-3.0,-1.0,0.0,-0.15594482421875,0.2816162109375,0.3880615234375,0.863525390625,-0.61669921875,-0.05126953125,0.8134765625,-0.125,0.3125,0.3125
0.8550000000000006,0.0,-3.0,-7.0,-16.0,-1.0,1.0,0.0,0.0,-0.15594482421875,0.2816162109375,0.3880615234375,0.863525390625,-0.625,-0.05126953125,0.806640625,-0.125,-0.0625,0.25
0.8600000000000007,1.0,-2.0,-1.0,-10.0,-2.0,0.0,-2.0,-1.0,-0.15594482421875,0.2816162109375,0.3880615234375,0.863525390625,-0.625,-0.05126953125,0.806640625,-0.125,-0.0625,0.25
0.8650000000000007,1.0,-2.0,-1.0,-10.0,-2.0,0.0,-2.0,-1.0,-0.15594482421875,0.2816162109375,0.3880615234375,0.863525390625,-0.625,-0.05126953125,0.806640625,-0.125,-0.0625,0.25
0.8700000000000007,-1.0,0.0,-2.0,-12.0,-1.0,0.0,0.0,0.0,-0.15594482421875,0.2816162109375,0.3880615234375,0.863525390625,-0.62109375,-0.0556640625,0.8115234375,-0.375,-0.375,0.0625
0.8750000000000007,0.0,1.0,-23.0,-25.0,-2.0,-1.0,-1.0,1.0,-0.15594482421875,0.2816162109375,0.3880615234375,0.863525390625,-0.62255859375,-0.05859375,0.81103515625,-0.4375,-0.5,0.0625
0.8800000000000007,-1.0,1.0,-2.0,0.0,-2.0,-1.0,0.0,0.0,-0.15594482421875,0.2816162109375,0.3880615234375,0.863525390625,-0.6201171875,-0.05517578125,0.8095703125,0.5,-0.5,-0.0625
0.8850000000000007,-1.0,-3.0,4.0,0.0,1.0,2.0,1.0,0.0,-0.15594482421875,0.2816162109375,0.3880615234375,0.863525390625,-0.6201171875,-0.05517578125,0.8095703125,0.5,-0.5,-0.0625
0.8900000000000007,-1.0,-3.0,4.0,0.0,1.0,2.0,1.0,0.0,-0.15594482421875,0.28155517578125,0.3880615234375,0.863525390625,-0.61474609375,-0.0498046875,0.81640625,0.0625,-0.3125,0.3125
0.8950000000000007,1.0,-4.0,4.0,-1.0,-1.0,-1.0,-2.0,-2.0,-0.15594482421875,0.28155517578125,0.3880615234375,0.863525390625,-0.61474609375,-0.0498046875,0.81640625,0.0625,-0.3125,0.3125
0.9000000000000007,-2.0,2.0,7.0,16.0,-1.0,-1.0,-2.0,-1.0,-0.15582275390625,0.28155517578125,0.38800048828125,0.86358642578125,-0.6181640625,-0.05712890625,0.8046875,1.125,-0.5,-0.0625
0.9050000000000007,-2.0,2.0,7.0,16.0,-1.0,-1.0,-2.0,-1.0,-0.15582275390625,0.28155517578125,0.38800048828125,0.86358642578125,-0.6181640625,-0.05712890625,0.8046875,1.125,-0.5,-0.0625
0.9100000000000007,-2.0,-3.0,-13.0,3.0,-2.0,-1.0,1.0,-3.0,-0.15576171875,0.28155517578125,0.38800048828125,0.86358642578125,-0.61474609375,-0.0478515625,0.80810546875,-0.75,-0.0625,0.625
0.9150000000000007,-2.0,-3.0,-13.0,3.0,-2.0,-1.0,1.0,-3.0,-0.15576171875,0.28155517578125,0.38800048828125,0.86358642578125,-0.61474609375,-0.0478515625,0.80810546875,-0.75,-0.0625,0.625
0.9200000000000007,-3.0,1.0,-4.0,-11.0,-5.0,-4.0,-2.0,-2.0,-0.15582275390625,0.28155517578125,0.38800048828125,0.86358642578125,-0.62109375,-0.05126953125,0.806640625,-0.75,0.25,0.0625
0.9250000000000007,-1.0,-1.0,7.0,6.0,2.0,0.0,0.0,-2.0,-0.15582275390625,0.28155517578125,0.38800048828125,0.86358642578125,-0.62109375,-0.05126953125,0.806640625,-0.75,0.25,0.0625
0.9300000000000007,0.0,1.0,6.0,4.0,1.0,-1.0,0.0,-1.0,-0.15582275390625,0.28155517578125,0.38800048828125,0.8636474609375,-0.6171875,-0.05859375,0.80859375,-0.5,0.4375,0.3125
0.9350000000000007,-2.0,-1.0,0.0,-6.0,-3.0,-2.0,0.0,-3.0,-0.15582275390625,0.28155517578125,0.38800048828125,0.8636474609375,-0.6171875,-0.05859375,0.80859375,-0.5,0.4375,0.3125
0.9400000000000007,-1.0,-2.0,7.0,1.0,0.0,0.0,0.0,0.0,-0.15582275390625,0.28155517578125,0.38800048828125,0.8636474609375,-0.6171875,-0.05859375,0.80859375,-0.5,0.4375,0.3125
0.9450000000000007,-1.0,-2.0,7.0,1.0,0.0,0.0,0.0,0.0,-0.15570068359375,0.28167724609375,0.3878173828125,0.8636474609375,-0.6181640625,-0.05615234375,0.8095703125,1.1875,0.4375,-0.5625
0.9500000000000007,0.0,1.0,-1.0,4.0,-4.0,-2.0,-3.0,0.0,-0.15570068359375,0.28167724609375,0.3878173828125,0.8636474609375,-0.6181640625,-0.05615234375,0.8095703125,1.1875,0.4375,-0.5625
0.9550000000000007,0.0,-2.0,-3.0,0.0,-3.0,-3.0,-3.0,-2.0,-0.15570068359375,0.2816162109375,0.3878173828125,0.86370849609375,-0.615234375,-0.0498046875,0.810546875,0.3125,0.375,0.3125
0.9600000000000007,0.0,0.0,-21.0,-8.0,0.0,0.0,0.0,1.0,-0.15570068359375,0.2816162109375,0.3878173828125,0.86370849609375,-0.615234375,-0.0498046875,0.810546875,0.3125,0.375,0.3125
0.9650000000000007,1.0,1.0,1.0,-1.0,-1.0,1.0,-1.0,-1.0,-0.15570068359375,0.2816162109375,0.3878173828125,0.86370849609375,-0.615234375,-0.0498046875,0.810546875,0.3125,0.375,0.3125
0.9700000000000008,1.0,1.0,1.0,-1.0,-1.0,1.0,-1.0,-1.0,-0.1558837890625,0.28167724609375,0.38787841796875,0.8636474609375,-0.62255859375,-0.0517578125,0.80615234375,-1.0625,0.3125,0.0
0.9750000000000008,-2.0,-3.0,5.0,5.0,0.0,-2.0,-1.0,-1.0,-0.1558837890625,0.28167724609375,0.38787841796875,0.8636474609375,-0.62255859375,-0.0517578125,0.80615234375,-1.0625,0.3125,0.0
0.9800000000000008,0.0,-1.0,0.0,-8.0,-1.0,-2.0,-2.0,0.0,-0.15625,0.281494140625,0.38787841796875,0.86358642578125,-0.619140625,-0.06103515625,0.81494140625,-1.6875,0.1875,-0.125
0.9850000000000008,-2.0,0.0,5.0,-3.0,-2.0,-2.0,-1.0,1.0,-0.15625,0.281494140625,0.38787841796875,0.86358642578125,-0.619140625,-0.06103515625,0.81494140625,-1.6875,0.1875,-0.125
0.9900000000000008,-2.0,0.0,5.0,-3.0,-2.0,-2.0,-1.0,1.0,-0.15625,0.281494140625,0.38787841796875,0.86358642578125,-0.619140625,-0.06103515625,0.81494140625,-1.6875,0.1875,-0.125
0.9950000000000008,-2.0,-7.0,-16.0,-6.0,-3.0,0.0,-2.0,-2.0,-0.15625,0.281494140625,0.38787841796875,0.86358642578125,-0.6162109375,-0.06640625,0.80859375,0.375,0.125,-0.3125
1.0000000000000007,-1.0,-1.0,-4.0,8.0,0.0,-3.0,-1.0,-1.0,-0.15625,0.281494140625,0.38787841796875,0.86358642578125,-0.6162109375,-0.06640625,0.80859375,0.375,0.125,-0.3125
1.0050000000000006,1.0,2.0,26.0,5.0,2.0,0.0,-2.0,-1.0,-0.1558837890625,0.28155517578125,0.3878173828125,0.8636474609375,-0.61767578125,-0.04833984375,0.8134765625,1.875,0.0,-0.125
1.0100000000000005,-1.0,0.0,14.0,-6.0,-2.0,-2.0,-2.0,-2.0,-0.1558837890625,0.2816162109375,0.3878173828125,0.8636474609375,-0.62451171875,-0.05029296875,0.80419921875,0.0625,-0.3125,0.6875
1.0150000000000003,0.0,0.0,4.0,10.0,1.0,1.0,-1.0,-2.0,-0.1558837890625,0.2816162109375,0.3878173828125,0.8636474609375,-0.62451171875,-0.05029296875,0.80419921875,0.0625,-0.3125,0.6875
1.0200000000000002,0.0,-4.0,-13.0,1.0,-3.0,-2.0,-1.0,-1.0,-0.15594482421875,0.2816162109375,0.3878173828125,0.8636474609375,-0.62060546875,-0.0537109375,0.8125,-0.125,-0.4375,0.6875
1.0250000000000001,2.0,1.0,-9.0,-19.0,-2.0,-2.0,-1.0,-1.0,-0.15594482421875,0.2816162109375,0.3878173828125,0.8636474609375,-0.62060546875,-0.0537109375,0.8125,-0.125,-0.4375,0.6875
1.03,2.0,1.0,-9.0,-19.0,-2.0,-2.0,-1.0,-1.0,-0.15594482421875,0.2816162109375,0.3878173828125,0.8636474609375,-0.62060546875,-0.0537109375,0.8125,-0.125,-0.4375,0.6875
1.035,2.0,5.0,11.0,-2.0,-1.0,0.0,0.0,0.0,-0.15576171875,0.28155517578125,0.3878173828125,0.86370849609375,-0.61865234375,-0.0556640625,0.80810546875,1.125,-0.5,0.3125
1.0399999999999998,-1.0,1.0,-4.0,-4.0,-1.0,-1.0,1.0,-2.0,-0.15576171875,0.28155517578125,0.3878173828125,0.86370849609375,-0.61865234375,-0.0556640625,0.80810546875,1.125,-0.5,0.3125
1.0449999999999997,-1.0,1.0,-4.0,-4.0,-1.0,-1.0,1.0,-2.0,-0.15570068359375,0.28155517578125,0.3878173828125,0.86370849609375,-0.61376953125,-0.04736328125,0.810546875,0.6875,-0.375,0.5
1.0499999999999996,0.0,-2.0,-8.0,2.0,-1.0,1.0,-1.0,-1.0,-0.15570068359375,0.28155517578125,0.3878173828125,0.86370849609375,-0.6123046875,-0.05078125,0.81640625,-0.0625,-0.0625,0.25
1.0549999999999995,-1.0,0.0,0.0,0.0,0.0,-2.0,-1.0,-2.0,-0.15570068359375,0.28155517578125,0.3878173828125,0.86370849609375,-0.6123046875,-0.05078125,0.81640625,-0.0625,-0.0625,0.25
1.0599999999999994,-3.0,-6.0,-5.0,8.0,-2.0,-3.0,-2.0,-2.0,-0.15570068359375,0.28155517578125,0.3878173828125,0.86370849609375,-0.6123046875,-0.05078125,0.81640625,-0.0625,-0.0625,0.25
1.0649999999999993,-3.0,-3.0,4.0,18.0,0.0,-1.0,0.0,-1.0,-0.15570068359375,0.28155517578125,0.3878173828125,0.86370849609375,-0.6142578125,-0.0556640625,0.81005859375,-0.25,0.1875,0.4375
1.0699999999999992,-1.0,-4.0,-5.0,-7.0,0.0,-1.0,1.0,-1.0,-0.15570068359375,0.281494140625,0.3878173828125,0.86370849609375,-0.61474609375,-0.05126953125,0.81494140625,0.125,0.4375,0.1875
1.074999999999999,-1.0,-4.0,-5.0,-7.0,0.0,-1.0,1.0,-1.0,-0.15570068359375,0.281494140625,0.3878173828125,0.86370849609375,-0.61474609375,-0.05126953125,0.81494140625,0.125,0.4375,0.1875
1.079999999999999,0.0,-3.0,-1.0,-2.0,-1.0,-2.0,-1.0,-1.0,-0.15570068359375,0.281494140625,0.3878173828125,0.86370849609375,-0.61865234375,-0.04541015625,0.81298828125,-0.5625,0.6875,0.125
1.0849999999999989,-1.0,-2.0,-4.0,-2.0,0.0,1.0,1.0,-2.0,-0.15570068359375,0.281494140625,0.3878173828125,0.86370849609375,-0.61865234375,-0.04541015625,0.81298828125,-0.5625,0.6875,0.125
1.0899999999999987,-2.0,0.0,4.0,0.0,-1.0,-2.0,-1.0,-1.0,-0.1556396484375,0.281494140625,0.3878173828125,0.86370849609375,-0.61962890625,-0.046875,0.80810546875,0.0,0.9375,0.1875
1.0949999999999986,-2.0,2.0,3.0,-5.0,-1.0,-2.0,-1.0,-2.0,-0.1556396484375,0.281494140625,0.3878173828125,0.86370849609375,-0.61962890625,-0.046875,0.80810546875,0.0,0.9375,0.1875
1.0999999999999985,-1.0,4.0,0.0,6.0,-1.0,0.0,1.0,-3.0,-0.15570068359375,0.28155517578125,0.3878173828125,0.86370849609375,-0.62060546875,-0.0546875,0.80078125,-0.875,0.75,0.25
1.1049999999999984,-1.0,4.0,0.0,6.0,-1.0,0.0,1.0,-3.0,-0.15570068359375,0.28155517578125,0.3878173828125,0.86370849609375,-0.62060546875,-0.0546875,0.80078125,-0.875,0.75,0.25
1.1099999999999983,-1.0,0.0,3.0,2.0,-1.0,1.0,0.0,0.0,-0.15570068359375,0.281494140625,0.3878173828125,0.86370849609375,-0.61767578125,-0.06298828125,0.80859375,0.25,0.4375,-0.4375
1.1149999999999982,-1.0,-4.0,-1.0,-2.0,-2.0,-1.0,-2.0,-3.0,-0.15570068359375,0.281494140625,0.3878173828125,0.86370849609375,-0.61669921875,-0.056640625,0.80908203125,0.3125,0.3125,0.0
1.119999999999998,-1.0,-4.0,-1.0,-2.0,-2.0,-1.0,-2.0,-3.0,-0.15570068359375,0.281494140625,0.3878173828125,0.86370849609375,-0.61669921875,-0.056640625,0.80908203125,0.3125,0.3125,0.0
1.124999999999998,-2.0,-3.0,2.0,-1.0,-2.0,-2.0,-1.0,-1.0,-0.15570068359375,0.281494140625,0.3878173828125,0.86370849609375,-0.61669921875,-0.056640625,0.80908203125,0.3125,0.3125,0.0
1.129999999999998,-2.0,2.0,0.0,-5.0,-3.0,-1.0,-1.0,1.0,-0.15570068359375,0.281494140625,0.3878173828125,0.86370849609375,-0.61962890625,-0.05078125,0.8056640625,0.0625,0.125,0.0625
1.1349999999999978,1.0,1.0,6.0,-1.0,-1.0,0.0,-1.0,1.0,-0.15570068359375,0.281494140625,0.3878173828125,0.86370849609375,-0.61962890625,-0.05078125,0.8056640625,0.0625,0.125,0.0625
1.1399999999999977,-4.0,-3.0,9.0,0.0,-2.0,-1.0,-2.0,-1.0,-0.15570068359375,0.281494140625,0.3878173828125,0.86370849609375,-0.623046875,-0.04833984375,0.80712890625,0.0,0.0625,0.1875
1.1449999999999976,-1.0,-2.0,-5.0,-1.0,-3.0,0.0,-1.0,-1.0,-0.15570068359375,0.281494140625,0.3878173828125,0.86370849609375,-0.623046875,-0.04833984375,0.80712890625,0.0,0.0625,0.1875
1.1499999999999975,-1.0,-1.0,-11.0,-28.0,-2.0,-2.0,-1.0,-1.0,-0.15570068359375,0.281494140625,0.3878173828125,0.86370849609375,-0.61767578125,-0.05224609375,0.81005859375,-0.375,-0.0625,-0.125
1.1549999999999974,0.0,-2.0,-6.0,15.0,2.0,0.0,1.0,0.0,-0.15576171875,0.281494140625,0.3878173828125,0.86370849609375,-0.6201171875,-0.06103515625,0.80419921875,0.625,-0.1875,0.1875
1.1599999999999973,-1.0,-5.0,2.0,7.0,-1.0,1.0,-1.0,-1.0,-0.15576171875,0.281494140625,0.3878173828125,0.86370849609375,-0.6201171875,-0.06103515625,0.80419921875,0.625,-0.1875,0.1875
1.1649999999999971,0.0,-2.0,1.0,-4.0,-1.0,-1.0,-3.0,-2.0,-0.15576171875,0.281494140625,0.3878173828125,0.86370849609375,-0.6201171875,-0.06103515625,0.80419921875,0.625,-0.1875,0.1875
1.169999999999997,0.0,-3.0,1.0,-3.0,-2.0,-2.0,-1.0,-1.0,-0.15576171875,0.281494140625,0.3878173828125,0.86370849609375,-0.61474609375,-0.0517578125,0.80908203125,0.6875,-0.3125,0.125
1.174999999999997,-2.0,-4.0,4.0,2.0,1.0,-1.0,-2.0,-1.0,-0.15576171875,0.281494140625,0.3878173828125,0.86370849609375,-0.62109375,-0.0517578125,0.81005859375,-0.125,-0.4375,0.375
1.1799999999999968,0.0,-3.0,-8.0,3.0,0.0,-2.0,0.0,-2.0,-0.15576171875,0.281494140625,0.3878173828125,0.86370849609375,-0.62109375,-0.0517578125,0.81005859375,-0.125,-0.4375,0.375
1.1849999999999967,-1.0,2.0,4.0,2.0,0.0,-1.0,-2.0,-2.0,-0.15576171875,0.281494140625,0.3878173828125,0.86370849609375,-0.619140625,-0.05908203125,0.8056640625,-0.125,-0.5,0.3125
1.1899999999999966,-1.0,2.0,4.0,2.0,0.0,-1.0,-2.0,-2.0,-0.15576171875,0.281494140625,0.3878173828125,0.86370849609375,-0.619140625,-0.05908203125,0.8056640625,-0.125,-0.5,0.3125
1.1949999999999965,-2.0,-3.0,-1.0,3.0,-1.0,-1.0,0.0,-1.0,-0.15576171875,0.281494140625,0.3878173828125,0.86370849609375,-0.61767578125,-0.0517578125,0.8125,0.1875,-0.4375,0.5
1.1999999999999964,-3.0,-3.0,0.0,12.0,-1.0,-2.0,-1.0,-2.0,-0.15576171875,0.281494140625,0.3878173828125,0.86370849609375,-0.61767578125,-0.0517578125,0.8125,0.1875,-0.4375,0.5
1.2049999999999963,-3.0,-3.0,0.0,12.0,-1.0,-2.0,-1.0,-2.0,-0.15576171875,0.281494140625,0.3878173828125,0.86370849609375,-0.619140625,-0.05224609375,0.80517578125,0.4375,-0.5,0.3125
1.2099999999999962,0.0,-2.0,7.0,-6.0,0.0,-1.0,1.0,0.0,-0.15576171875,0.281494140625,0.3878173828125,0.86370849609375,-0.619140625,-0.05224609375,0.80517578125,0.4375,-0.5,0.3125
1.214999999999996,-2.0,3.0,-21.0,0.0,-3.0,-1.0,-1.0,-1.0,-0.15576171875,0.281494140625,0.3878173828125,0.86370849609375,-0.6171875,-0.0498046875,0.81298828125,0.25,-0.125,0.125
1.219999999999996,-2.0,-2.0,-4.0,-3.0,-2.0,-1.0,-1.0,-1.0,-0.15570068359375,0.281494140625,0.3878173828125,0.86370849609375,-0.61474609375,-0.04638671875,0.80517578125,-0.125,-0.0625,0.3125
1.2249999999999959,-2.0,0.0,2.0,-2.0,0.0,0.0,-2.0,-1.0,-0.15570068359375,0.281494140625,0.3878173828125,0.86370849609375,-0.61474609375,-0.04638671875,0.80517578125,-0.125,-0.0625,0.3125
1.2299999999999958,2.0,-2.0,-2.0,2.0,-1.0,-1.0,0.0,-2.0,-0.15570068359375,0.281494140625,0.3878173828125,0.86370849609375,-0.61962890625,-0.0439453125,0.81103515625,-0.0625,0.125,0.0625
1.2349999999999957,-1.0,-2.0,2.0,-9.0,0.0,0.0,-1.0,-2.0,-0.15570068359375,0.281494140625,0.3878173828125,0.86370849609375,-0.61962890625,-0.0439453125,0.81103515625,-0.0625,0.125,0.0625
1.2399999999999956,1.0,6.0,11.0,-3.0,0.0,0.0,-1.0,-1.0,-0.15570068359375,0.281494140625,0.3878173828125,0.86370849609375,-0.61669921875,-0.05224609375,0.81103515625,-0.1875,0.0,-0.0625
1.2449999999999954,-1.0,2.0,13.0,7.0,-1.0,-2.0,-1.0,-1.0,-0.15570068359375,0.281494140625,0.3878173828125,0.86370849609375,-0.61669921875,-0.05224609375,0.81103515625,-0.1875,0.0,-0.0625
1.2499999999999953,-1.0,-4.0,5.0,17.0,1.0,1.0,-1.0,0.0,-0.15570068359375,0.281494140625,0.3878173828125,0.86376953125,-0.61767578125,-0.05029296875,0.81298828125,-0.1875,0.0625,-0.375
1.2549999999999952,-1.0,0.0,3.0,-4.0,-3.0,-1.0,-2.0,0.0,-0.15570068359375,0.281494140625,0.3878173828125,0.86376953125,-0.61767578125,-0.05029296875,0.81298828125,-0.1875,0.0625,-0.375
1.2599999999999951,-1.0,0.0,3.0,-4.0,-3.0,-1.0,-2.0,0.0,-0.15570068359375,0.281494140625,0.3878173828125,0.86376953125,-0.61474609375,-0.048828125,0.80908203125,-0.3125,0.1875,-0.4375
1.264999999999995,-2.0,-3.0,0.0,-14.0,-3.0,-3.0,-1.0,-1.0,-0.15570068359375,0.281494140625,0.3878173828125,0.86376953125,-0.61474609375,-0.048828125,0.80908203125,-0.3125,0.1875,-0.4375
1.269999999999995,-1.0,-4.0,-3.0,1.0,1.0,0.0,-2.0,-1.0,-0.1556396484375,0.28143310546875,0.3878173828125,0.86376953125,-0.61669921875,-0.04833984375,0.81396484375,-0.6875,0.1875,-0.5
1.2749999999999948,-1.0,-2.0,-7.0,-5.0,-4.0,-3.0,0.0,-2.0,-0.1556396484375,0.28143310546875,0.3878173828125,0.86376953125,-0.61669921875,-0.04833984375,0.81396484375,-0.6875,0.1875,-0.5
1.2799999999999947,-1.0,-2.0,-7.0,-5.0,-4.0,-3.0,0.0,-2.0,-0.1556396484375,0.28143310546875,0.3878173828125,0.86376953125,-0.61669921875,-0.04833984375,0.81396484375,-0.6875,0.1875,-0.5
1.2849999999999946,0.0,-3.0,-5.0,-8.0,0.0,1.0,-2.0,-2.0,-0.1556396484375,0.28143310546875,0.3878173828125,0.86376953125,-0.6142578125,-0.05126953125,0.810546875,-0.5,0.4375,-0.5
1.2899999999999945,1.0,1.0,-11.0,-11.0,-1.0,0.0,-1.0,-1.0,-0.1556396484375,0.28143310546875,0.3878173828125,0.86376953125,-0.6201171875,-0.0498046875,0.80908203125,0.0,0.5,-0.5
1.2949999999999944,1.0,-1.0,-4.0,-4.0,-1.0,-1.0,-1.0,0.0,-0.1556396484375,0.28143310546875,0.3878173828125,0.86376953125,-0.6201171875,-0.0498046875,0.80908203125,0.0,0.5,-0.5
1.2999999999999943,1.0,-1.0,-4.0,-4.0,-1.0,-1.0,-1.0,0.0,-0.1556396484375,0.28143310546875,0.3878173828125,0.86376953125,-0.61865234375,-0.05126953125,0.80810546875,-0.4375,0.4375,-0.625
1.3049999999999942,-2.0,-1.0,-1.0,0.0,2.0,-2.0,-2.0,-2.0,-0.1556396484375,0.28143310546875,0.3878173828125,0.86376953125,-0.61865234375,-0.05126953125,0.80810546875,-0.4375,0.4375,-0.625
1.309999999999994,-1.0,0.0,-2.0,1.0,-1.0,-2.0,-2.0,0.0,-0.1556396484375,0.28143310546875,0.3878173828125,0.86376953125,-0.61865234375,-0.05126953125,0.80810546875,-0.4375,0.4375,-0.625
1.314999999999994,-1.0,-1.0,6.0,9.0,-2.0,0.0,0.0,-2.0,-0.1556396484375,0.28143310546875,0.3878173828125,0.86376953125,-0.61572265625,-0.0537109375,0.80810546875,-0.9375,0.375,-0.375
1.3199999999999938,0.0,0.0,-1.0,-1.0,-2.0,0.0,0.0,-2.0,-0.1556396484375,0.28143310546875,0.3878173828125,0.86376953125,-0.615234375,-0.05322265625,0.8115234375,-0.6875,0.125,0.0
1.3249999999999937,-3.0,4.0,12.0,-1.0,-1.0,-2.0,-4.0,-3.0,-0.1556396484375,0.28143310546875,0.3878173828125,0.86376953125,-0.615234375,-0.05322265625,0.8115234375,-0.6875,0.125,0.0
1.3299999999999936,-3.0,4.0,12.0,-1.0,-1.0,-2.0,-4.0,-3.0,-0.1556396484375,0.28143310546875,0.3878173828125,0.86376953125,-0.615234375,-0.05322265625,0.8115234375,-0.6875,0.125,0.0
1.3349999999999935,-2.0,-4.0,13.0,-2.0,-3.0,-3.0,-1.0,-2.0,-0.1556396484375,0.28143310546875,0.3878173828125,0.86376953125,-0.62109375,-0.05810546875,0.81103515625,0.0625,0.125,0.1875
1.3399999999999934,-2.0,-4.0,13.0,-2.0,-3.0,-3.0,-1.0,-2.0,-0.1556396484375,0.28143310546875,0.3878173828125,0.86376953125,-0.62109375,-0.05810546875,0.81103515625,0.0625,0.125,0.1875
1.3449999999999933,-2.0,-5.0,-4.0,-2.0,-1.0,-3.0,0.0,-1.0,-0.1556396484375,0.28143310546875,0.3878173828125,0.86376953125,-0.61865234375,-0.0537109375,0.802734375,0.5,0.1875,0.1875
1.3499999999999932,-2.0,-3.0,4.0,0.0,-2.0,-1.0,0.0,0.0,-0.1556396484375,0.28143310546875,0.3878173828125,0.86376953125,-0.61865234375,-0.0537109375,0.802734375,0.5,0.1875,0.1875
1.354999999999993,-1.0,-3.0,-7.0,3.0,-1.0,0.0,0.0,-1.0,-0.15570068359375,0.28143310546875,0.3878173828125,0.86376953125,-0.61962890625,-0.0517578125,0.80419921875,0.25,0.125,0.125
1.359999999999993,0.0,-1.0,-8.0,-1.0,-1.0,1.0,0.0,-1.0,-0.15570068359375,0.28143310546875,0.3878173828125,0.86376953125,-0.61962890625,-0.0517578125,0.80419921875,0.25,0.125,0.125
1.3649999999999929,0.0,0.0,1.0,-7.0,-2.0,-1.0,-2.0,-2.0,-0.1556396484375,0.28143310546875,0.3878173828125,0.86376953125,-0.619140625,-0.04638671875,0.80615234375,0.0,-0.125,0.5
1.3699999999999928,-3.0,-3.0,0.0,15.0,-1.0,-1.0,-2.0,-2.0,-0.1556396484375,0.28143310546875,0.3878173828125,0.86376953125,-0.619140625,-0.04638671875,0.80615234375,0.0,-0.125,0.5
1.3749999999999927,0.0,1.0,2.0,-4.0,-1.0,0.0,-2.0,-1.0,-0.1556396484375,0.28143310546875,0.3878173828125,0.86376953125,-0.61669921875,-0.05517578125,0.81298828125,-0.8125,-0.0625,0.125
1.3799999999999926,-1.0,-6.0,-15.0,-10.0,-3.0,-2.0,0.0,-1.0,-0.1556396484375,0.28143310546875,0.3878173828125,0.86376953125,-0.61669921875,-0.05517578125,0.81298828125,-0.8125,-0.0625,0.125
1.3849999999999925,-3.0,0.0,-1.0,-3.0,-1.0,-2.0,-1.0,1.0,-0.15570068359375,0.28143310546875,0.3878173828125,0.86376953125,-0.6123046875,-0.05859375,0.80859375,-0.25,0.125,-0.125
1.3899999999999924,0.0,-3.0,-7.0,-1.0,-2.0,-3.0,0.0,-1.0,-0.1556396484375,0.2813720703125,0.3878173828125,0.86376953125,-0.6162109375,-0.04833984375,0.80908203125,0.5625,0.1875,-0.3125
1.3949999999999922,-2.0,-1.0,-4.0,-3.0,0.0,-1.0,-1.0,0.0,-0.1556396484375,0.2813720703125,0.3878173828125,0.86376953125,-0.6162109375,-0.04833984375,0.80908203125,0.5625,0.1875,-0.3125
1.3999999999999921,-1.0,0.0,-4.0,-1.0,-2.0,-1.0,0.0,-1.0,-0.1556396484375,0.28143310546875,0.3878173828125,0.86376953125,-0.62060546875,-0.04345703125,0.80615234375,-0.1875,0.25,0.0625
1.404999999999992,-1.0,0.0,-4.0,-1.0,-2.0,-1.0,0.0,-1.0,-0.15594482421875,0.28143310546875,0.387939453125,0.8636474609375,-0.62060546875,-0.0576171875,0.79736328125,-1.5,0.25,0.25
1.409999999999992,0.0,-1.0,0.0,-2.0,-2.0,-1.0,-1.0,-3.0,-0.15594482421875,0.28143310546875,0.387939453125,0.8636474609375,-0.62060546875,-0.0576171875,0.79736328125,-1.5,0.25,0.25
1.4149999999999918,0.0,-2.0,-2.0,5.0,-1.0,0.0,-1.0,-2.0,-0.156005859375,0.28143310546875,0.38787841796875,0.8636474609375,-0.619140625,-0.06640625,0.80419921875,-0.875,0.375,0.0625
1.4199999999999917,-2.0,3.0,3.0,0.0,-3.0,-1.0,-2.0,-2.0,-0.156005859375,0.28143310546875,0.38787841796875,0.8636474609375,-0.619140625,-0.06640625,0.80419921875,-0.875,0.375,0.0625
1.4249999999999916,0.0,-1.0,3.0,-2.0,-2.0,-2.0,0.0,0.0,-0.156005859375,0.2813720703125,0.38787841796875,0.8636474609375,-0.62109375,-0.05810546875,0.81201171875,0.1875,0.625,0.5625
1.4299999999999915,0.0,-1.0,3.0,-2.0,-2.0,-2.0,0.0,0.0,-0.15582275390625,0.2816162109375,0.3880615234375,0.86358642578125,-0.62060546875,-0.04931640625,0.806640625,1.0625,0.375,1.3125
1.4349999999999914,0.0,-3.0,-11.0,-4.0,-2.0,-2.0,0.0,-1.0,-0.15582275390625,0.2816162109375,0.3880615234375,0.86358642578125,-0.62060546875,-0.04931640625,0.806640625,1.0625,0.375,1.3125
1.4399999999999913,1.0,1.0,10.0,0.0,0.0,-2.0,1.0,0.0,-0.15557861328125,0.28167724609375,0.3883056640625,0.86346435546875,-0.6142578125,-0.04248046875,0.806640625,0.25,0.0,1.5625
1.4449999999999912,1.0,1.0,10.0,0.0,0.0,-2.0,1.0,0.0,-0.15557861328125,0.28167724609375,0.3883056640625,0.86346435546875,-0.6142578125,-0.04248046875,0.806640625,0.25,0.0,1.5625
1.449999999999991,-1.0,0.0,2.0,13.0,-1.0,-2.0,-1.0,-1.0,-0.15545654296875,0.28167724609375,0.38861083984375,0.86334228515625,-0.6201171875,-0.05224609375,0.80810546875,0.0,-0.3125,2.0
1.454999999999991,-1.0,-1.0,6.0,-4.0,-1.0,0.0,-1.0,-2.0,-0.15545654296875,0.28167724609375,0.38861083984375,0.86334228515625,-0.6201171875,-0.05224609375,0.80810546875,0.0,-0.3125,2.0
1.4599999999999909,0.0,1.0,-7.0,-1.0,-2.0,-1.0,-2.0,0.0,-0.15521240234375,0.28167724609375,0.3887939453125,0.86334228515625,-0.61767578125,-0.048828125,0.80810546875,0.9375,-0.8125,1.5
1.4649999999999908,0.0,1.0,-7.0,-1.0,-2.0,-1.0,-2.0,0.0,-0.15521240234375,0.28167724609375,0.3887939453125,0.86334228515625,-0.61767578125,-0.048828125,0.80810546875,0.9375,-0.8125,1.5
1.4699999999999906,-1.0,0.0,4.0,-5.0,-1.0,-2.0,-2.0,-1.0,-0.15484619140625,0.2816162109375,0.38897705078125,0.86334228515625,-0.6181640625,-0.046875,0.8056640625,1.25,-1.375,1.25
1.4749999999999905,0.0,1.0,3.0,-5.0,-1.0,-2.0,-1.0,-1.0,-0.15484619140625,0.2816162109375,0.38897705078125,0.86334228515625,-0.6181640625,-0.046875,0.8056640625,1.25,-1.375,1.25
1.4799999999999904,-2.0,0.0,12.0,2.0,-1.0,0.0,-2.0,-1.0,-0.1544189453125,0.28155517578125,0.3890380859375,0.8634033203125,-0.61328125,-0.0400390625,0.8095703125,1.1875,-1.3125,0.5
1.4849999999999903,-2.0,0.0,12.0,2.0,-1.0,0.0,-2.0,-1.0,-0.1544189453125,0.28155517578125,0.3890380859375,0.8634033203125,-0.61328125,-0.0400390625,0.8095703125,1.1875,-1.3125,0.5
1.4899999999999902,-2.0,0.0,5.0,-3.0,-3.0,-2.0,-2.0,-2.0,-0.15411376953125,0.28143310546875,0.38916015625,0.86346435546875,-0.615234375,-0.0380859375,0.81103515625,0.6875,-1.0625,0.25
1.4949999999999901,0.0,-2.0,-3.0,3.0,-1.0,-2.0,0.0,-1.0,-0.15411376953125,0.28143310546875,0.38916015625,0.86346435546875,-0.6123046875,-0.0498046875,0.80908203125,-0.5625,-0.8125,-0.4375
1.49999999999999,0.0,-1.0,-5.0,-2.0,1.0,0.0,0.0,-1.0,-0.15411376953125,0.28143310546875,0.38916015625,0.86346435546875,-0.6123046875,-0.0498046875,0.80908203125,-0.5625,-0.8125,-0.4375
1.50499999999999,0.0,2.0,-1.0,-2.0,-5.0,-2.0,-2.0,0.0,-0.15411376953125,0.28143310546875,0.38916015625,0.86346435546875,-0.6123046875,-0.0498046875,0.80908203125,-0.5625,-0.8125,-0.4375
1.5099999999999898,0.0,2.0,-1.0,-2.0,-5.0,-2.0,-2.0,0.0,-0.15411376953125,0.28143310546875,0.38916015625,0.86346435546875,-0.6123046875,-0.0498046875,0.80908203125,-0.5625,-0.8125,-0.4375
1.5149999999999897,-3.0,-4.0,-9.0,-2.0,-3.0,-2.0,-1.0,-2.0,-0.154296875,0.28125,0.38909912109375,0.86346435546875,-0.61181640625,-0.05078125,0.81005859375,-1.25,-0.25,-0.625
1.5199999999999896,0.0,0.0,0.0,-5.0,-3.0,-3.0,-1.0,-1.0,-0.154296875,0.28125,0.38909912109375,0.86346435546875,-0.61767578125,-0.04638671875,0.81201171875,-0.3125,0.25,-0.625
1.5249999999999895,0.0,0.0,0.0,-1.0,-1.0,-2.0,-1.0,-1.0,-0.154296875,0.28125,0.38909912109375,0.86346435546875,-0.61328125,-0.04638671875,0.80859375,-0.375,0.8125,-0.75
1.5299999999999894,0.0,0.0,0.0,-1.0,-1.0,-2.0,-1.0,-1.0,-0.154296875,0.28125,0.38909912109375,0.86346435546875,-0.61328125,-0.04638671875,0.80859375,-0.375,0.8125,-0.75
1.5349999999999893,-1.0,-2.0,12.0,-3.0,-1.0,1.0,-2.0,0.0,-0.154296875,0.28125,0.38909912109375,0.86346435546875,-0.61328125,-0.04638671875,0.80859375,-0.375,0.8125,-0.75
1.5399999999999892,0.0,-2.0,-7.0,1.0,-3.0,-2.0,1.0,-2.0,-0.154296875,0.28125,0.38909912109375,0.86346435546875,-0.61572265625,-0.05224609375,0.8076171875,-0.6875,0.875,-0.6875
1.544999999999989,-1.0,-3.0,-10.0,6.0,0.0,-1.0,-2.0,-3.0,-0.1546630859375,0.28118896484375,0.38909912109375,0.86346435546875,-0.6171875,-0.05810546875,0.80712890625,-1.4375,0.75,-0.3125
1.549999999999989,-1.0,-3.0,-2.0,8.0,0.0,0.0,1.0,1.0,-0.1546630859375,0.28118896484375,0.38909912109375,0.86346435546875,-0.6171875,-0.05810546875,0.80712890625,-1.4375,0.75,-0.3125
1.5549999999999888,-1.0,-2.0,-8.0,-2.0,-2.0,-2.0,-2.0,-2.0,-0.155029296875,0.2811279296875,0.38909912109375,0.8634033203125,-0.61767578125,-0.06591796875,0.810546875,-1.3125,0.6875,-0.125
1.5599999999999887,-1.0,-2.0,-8.0,-2.0,-2.0,-2.0,-2.0,-2.0,-0.155029296875,0.2811279296875,0.38909912109375,0.8634033203125,-0.61767578125,-0.06591796875,0.810546875,-1.3125,0.6875,-0.125
1.5649999999999886,1.0,2.0,2.0,1.0,-1.0,-2.0,0.0,-1.0,-0.15509033203125,0.2811279296875,0.3890380859375,0.8634033203125,-0.62060546875,-0.06005859375,0.80859375,-0.625,0.75,0.75
1.5699999999999885,-4.0,-4.0,-4.0,-2.0,-2.0,-1.0,-2.0,-1.0,-0.15509033203125,0.2811279296875,0.3890380859375,0.8634033203125,-0.62060546875,-0.06005859375,0.80859375,-0.625,0.75,0.75
1.5749999999999884,-1.0,3.0,24.0,-5.0,-2.0,-1.0,0.0,-2.0,-0.155029296875,0.28125,0.3892822265625,0.86328125,-0.61865234375,-0.0537109375,0.80810546875,0.1875,0.5,1.625
1.5799999999999883,-2.0,-1.0,-3.0,-1.0,-1.0,0.0,0.0,-1.0,-0.155029296875,0.28125,0.3892822265625,0.86328125,-0.61865234375,-0.0537109375,0.80810546875,0.1875,0.5,1.625
1.5849999999999882,-2.0,-1.0,-3.0,-1.0,-1.0,0.0,0.0,-1.0,-0.15496826171875,0.28143310546875,0.3895263671875,0.86309814453125,-0.62109375,-0.0546875,0.80322265625,0.375,0.4375,2.0625
1.589999999999988,-2.0,-2.0,-11.0,0.0,-1.0,-2.0,-2.0,1.0,-0.15496826171875,0.28143310546875,0.3895263671875,0.86309814453125,-0.62109375,-0.0546875,0.80322265625,0.375,0.4375,2.0625
1.594999999999988,0.0,-1.0,-1.0,0.0,-2.0,-2.0,0.0,0.0,-0.15496826171875,0.28143310546875,0.3895263671875,0.86309814453125,-0.62109375,-0.0546875,0.80322265625,0.375,0.4375,2.0625
1.5999999999999879,0.0,-1.0,-4.0,-1.0,0.0,-1.0,-2.0,-3.0,-0.1546630859375,0.2816162109375,0.3897705078125,0.86297607421875,-0.61865234375,-0.0517578125,0.80712890625,1.4375,-0.0625,2.375
1.6049999999999878,0.0,-1.0,-4.0,-1.0,0.0,-1.0,-2.0,-3.0,-0.1546630859375,0.2816162109375,0.3897705078125,0.86297607421875,-0.61865234375,-0.0517578125,0.80712890625,1.4375,-0.0625,2.375
1.6099999999999877,1.0,0.0,-3.0,5.0,1.0,0.0,0.0,-3.0,-0.15423583984375,0.28173828125,0.39013671875,0.86285400390625,-0.619140625,-0.04150390625,0.80615234375,1.5,-0.375,2.4375
1.6149999999999876,1.0,0.0,-3.0,5.0,1.0,0.0,0.0,-3.0,-0.15423583984375,0.28173828125,0.39013671875,0.86285400390625,-0.619140625,-0.04150390625,0.80615234375,1.5,-0.375,2.4375
1.6199999999999875,-2.0,-3.0,19.0,-4.0,0.0,0.0,-2.0,-1.0,-0.15374755859375,0.28173828125,0.3905029296875,0.86279296875,-0.61279296875,-0.037109375,0.81494140625,1.375,-0.875,2.3125
1.6249999999999873,-1.0,0.0,-5.0,-3.0,-1.0,0.0,-2.0,-2.0,-0.15374755859375,0.28173828125,0.3905029296875,0.86279296875,-0.61279296875,-0.037109375,0.81494140625,1.375,-0.875,2.3125
1.6299999999999872,-1.0,0.0,-5.0,-3.0,-1.0,0.0,-2.0,-2.0,-0.15374755859375,0.28173828125,0.3905029296875,0.86279296875,-0.61279296875,-0.037109375,0.81494140625,1.375,-0.875,2.3125
1.6349999999999871,-2.0,-1.0,-9.0,-2.0,-1.0,-2.0,-1.0,0.0,-0.1534423828125,0.28173828125,0.39093017578125,0.8626708984375,-0.61376953125,-0.04052734375,0.8125,0.0,-0.625,2.6875
1.639999999999987,1.0,0.0,-6.0,1.0,-1.0,-3.0,0.0,-1.0,-0.15338134765625,0.28173828125,0.3912353515625,0.86248779296875,-0.61767578125,-0.044921875,0.8076171875,-0.25,0.0,1.875
1.644999999999987,-4.0,1.0,-2.0,-1.0,-1.0,0.0,-3.0,-3.0,-0.15338134765625,0.28179931640625,0.3914794921875,0.86236572265625,-0.61572265625,-0.044921875,0.80908203125,-0.3125,0.375,1.5625
1.6499999999999868,-1.0,-2.0,-3.0,6.0,1.0,-3.0,-1.0,0.0,-0.15338134765625,0.28179931640625,0.3914794921875,0.86236572265625,-0.61572265625,-0.044921875,0.80908203125,-0.3125,0.375,1.5625
1.6549999999999867,-2.0,-1.0,-5.0,-2.0,-2.0,-2.0,-1.0,-1.0,-0.15338134765625,0.28179931640625,0.3914794921875,0.86236572265625,-0.61669921875,-0.041015625,0.81103515625,0.6875,0.75,0.75
1.6599999999999866,-2.0,-3.0,19.0,-6.0,-2.0,-2.0,-2.0,-3.0,-0.15338134765625,0.28179931640625,0.3914794921875,0.86236572265625,-0.61669921875,-0.041015625,0.81103515625,0.6875,0.75,0.75
1.6649999999999865,-2.0,1.0,-13.0,0.0,-2.0,-1.0,-1.0,1.0,-0.1533203125,0.2818603515625,0.3914794921875,0.86236572265625,-0.61767578125,-0.03466796875,0.81005859375,0.4375,0.75,0.25
1.6699999999999864,1.0,2.0,-9.0,-1.0,0.0,1.0,0.0,-1.0,-0.1533203125,0.2818603515625,0.3914794921875,0.86236572265625,-0.61767578125,-0.03466796875,0.81005859375,0.4375,0.75,0.25
1.6749999999999863,1.0,3.0,-2.0,0.0,-1.0,0.0,-1.0,-1.0,-0.1533203125,0.2818603515625,0.3914794921875,0.86236572265625,-0.61669921875,-0.03466796875,0.80517578125,-0.4375,0.75,-0.4375
1.6799999999999862,1.0,3.0,-2.0,0.0,-1.0,0.0,-1.0,-1.0,-0.1533203125,0.2818603515625,0.3914794921875,0.86236572265625,-0.61669921875,-0.03466796875,0.80517578125,-0.4375,0.75,-0.4375
1.684999999999986,-3.0,-9.0,-22.0,-3.0,-2.0,-2.0,-1.0,-3.0,-0.153564453125,0.28179931640625,0.3914794921875,0.86236572265625,-0.6162109375,-0.044921875,0.81005859375,-1.25,0.5625,-0.5
1.689999999999986,1.0,0.0,-3.0,-1.0,-1.0,-1.0,-1.0,0.0,-0.153564453125,0.28179931640625,0.3914794921875,0.86236572265625,-0.6162109375,-0.044921875,0.81005859375,-1.25,0.5625,-0.5
1.6949999999999859,-2.0,-1.0,-4.0,-3.0,0.0,-2.0,0.0,-1.0,-0.15386962890625,0.28179931640625,0.391357421875,0.86236572265625,-0.61962890625,-0.05029296875,0.80712890625,-1.25,0.3125,-0.8125
1.6999999999999857,-1.0,0.0,-5.0,0.0,-1.0,0.0,-2.0,0.0,-0.15386962890625,0.28179931640625,0.391357421875,0.86236572265625,-0.61962890625,-0.05029296875,0.80712890625,-1.25,0.3125,-0.8125
1.7049999999999856,-1.0,-1.0,-4.0,0.0,-2.0,-1.0,-2.0,-2.0,-0.15386962890625,0.28173828125,0.391357421875,0.86236572265625,-0.615234375,-0.0498046875,0.80908203125,-0.8125,0.0,-0.9375
1.7099999999999855,0.0,0.0,3.0,2.0,-3.0,-1.0,-2.0,0.0,-0.15386962890625,0.28173828125,0.391357421875,0.86236572265625,-0.615234375,-0.0498046875,0.80908203125,-0.8125,0.0,-0.9375
1.7149999999999854,-1.0,-2.0,-18.0,-2.0,-1.0,0.0,0.0,-2.0,-0.15386962890625,0.28173828125,0.391357421875,0.86236572265625,-0.61865234375,-0.05224609375,0.8115234375,-0.3125,-0.1875,-0.5625
1.7199999999999853,-1.0,-2.0,-18.0,-2.0,-1.0,0.0,0.0,-2.0,-0.15386962890625,0.28173828125,0.391357421875,0.86236572265625,-0.61865234375,-0.05224609375,0.8115234375,-0.3125,-0.1875,-0.5625
1.7249999999999852,-1.0,-1.0,-10.0,-1.0,-1.0,-1.0,0.0,-1.0,-0.15386962890625,0.28173828125,0.391357421875,0.86236572265625,-0.61865234375,-0.05224609375,0.8115234375,-0.3125,-0.1875,-0.5625
1.729999999999985,0.0,-2.0,2.0,0.0,-1.0,-1.0,0.0,0.0,-0.15386962890625,0.28173828125,0.391357421875,0.86236572265625,-0.6259765625,-0.0517578125,0.81201171875,-0.0625,-0.4375,-0.125
1.734999999999985,0.0,1.0,0.0,0.0,1.0,-1.0,0.0,0.0,-0.15386962890625,0.28173828125,0.391357421875,0.86236572265625,-0.6259765625,-0.0517578125,0.81201171875,-0.0625,-0.4375,-0.125
1.739999999999985,1.0,-1.0,1.0,-3.0,-3.0,-2.0,-2.0,0.0,-0.15386962890625,0.28173828125,0.391357421875,0.86236572265625,-0.61962890625,-0.04541015625,0.80615234375,0.125,-0.625,0.0
1.7449999999999848,-2.0,1.0,4.0,0.0,-3.0,-4.0,-2.0,-1.0,-0.15386962890625,0.28173828125,0.391357421875,0.86236572265625,-0.61962890625,-0.04541015625,0.80615234375,0.125,-0.625,0.0
1.7499999999999847,-2.0,1.0,4.0,0.0,-3.0,-4.0,-2.0,-1.0,-0.15399169921875,0.28167724609375,0.39154052734375,0.8623046875,-0.61865234375,-0.04736328125,0.80859375,-1.125,-0.4375,0.8125
1.7549999999999846,-1.0,-1.0,6.0,4.0,1.0,0.0,-1.0,0.0,-0.15399169921875,0.28167724609375,0.39154052734375,0.8623046875,-0.61865234375,-0.04736328125,0.80859375,-1.125,-0.4375,0.8125
1.7599999999999845,-2.0,-1.0,-5.0,-3.0,0.0,-1.0,-3.0,-2.0,-0.15399169921875,0.2816162109375,0.39154052734375,0.8623046875,-0.61669921875,-0.0517578125,0.80810546875,0.125,-0.75,0.5625
1.7649999999999844,-2.0,-1.0,-5.0,-3.0,0.0,-1.0,-3.0,-2.0,-0.15399169921875,0.2816162109375,0.39154052734375,0.8623046875,-0.6123046875,-0.04833984375,0.8076171875,0.8125,-0.625,0.6875
1.7699999999999843,-2.0,-2.0,-14.0,-3.0,0.0,-1.0,-1.0,0.0,-0.15399169921875,0.2816162109375,0.39154052734375,0.8623046875,-0.6123046875,-0.04833984375,0.8076171875,0.8125,-0.625,0.6875
1.7749999999999841,0.0,3.0,5.0,-3.0,-4.0,-2.0,-1.0,-2.0,-0.15399169921875,0.2816162109375,0.39154052734375,0.8623046875,-0.6123046875,-0.04833984375,0.8076171875,0.8125,-0.625,0.6875
1.779999999999984,0.0,-1.0,2.0,2.0,1.0,0.0,-2.0,0.0,-0.15399169921875,0.2816162109375,0.39154052734375,0.8623046875,-0.61572265625,-0.041015625,0.8095703125,0.8125,-0.6875,0.25
1.784999999999984,-2.0,-1.0,10.0,-1.0,-1.0,0.0,1.0,0.0,-0.15399169921875,0.2816162109375,0.39154052734375,0.8623046875,-0.6162109375,-0.0341796875,0.8125,0.5625,-0.5,0.5
1.7899999999999838,-1.0,-2.0,4.0,-1.0,-2.0,-2.0,-1.0,0.0,-0.15399169921875,0.2816162109375,0.39154052734375,0.8623046875,-0.6162109375,-0.0341796875,0.8125,0.5625,-0.5,0.5
1.7949999999999837,0.0,1.0,6.0,2.0,0.0,-2.0,-3.0,-1.0,-0.1539306640625,0.2816162109375,0.39154052734375,0.8623046875,-0.61572265625,-0.044921875,0.81201171875,0.0,-0.3125,0.0625
1.7999999999999836,-2.0,-2.0,-1.0,-2.0,-1.0,0.0,-1.0,-2.0,-0.1539306640625,0.2816162109375,0.39154052734375,0.8623046875,-0.61328125,-0.0478515625,0.8134765625,-0.0625,-0.0625,-0.5
1.8049999999999835,-2.0,-2.0,-1.0,-2.0,-1.0,0.0,-1.0,-2.0,-0.1539306640625,0.2816162109375,0.39154052734375,0.8623046875,-0.61328125,-0.0478515625,0.8134765625,-0.0625,-0.0625,-0.5
1.8099999999999834,-3.0,-1.0,9.0,0.0,-2.0,0.0,1.0,-1.0,-0.1539306640625,0.2816162109375,0.3916015625,0.8623046875,-0.61181640625,-0.04443359375,0.8154296875,0.0625,0.0625,-0.4375
1.8149999999999833,-2.0,-4.0,-1.0,-6.0,-1.0,-1.0,-1.0,0.0,-0.1539306640625,0.2816162109375,0.3916015625,0.8623046875,-0.61767578125,-0.03369140625,0.81005859375,-0.3125,0.375,-0.4375
1.8199999999999832,-1.0,-2.0,-1.0,-2.0,-1.0,-1.0,-1.0,0.0,-0.1539306640625,0.2816162109375,0.3916015625,0.8623046875,-0.61767578125,-0.03369140625,0.81005859375,-0.3125,0.375,-0.4375
1.824999999999983,0.0,-2.0,6.0,3.0,-1.0,0.0,1.0,0.0,-0.15411376953125,0.2816162109375,0.39154052734375,0.8623046875,-0.6201171875,-0.04345703125,0.81005859375,-1.125,0.4375,-0.625
1.829999999999983,0.0,-2.0,6.0,3.0,-1.0,0.0,1.0,0.0,-0.15411376953125,0.2816162109375,0.39154052734375,0.8623046875,-0.6201171875,-0.04345703125,0.81005859375,-1.125,0.4375,-0.625
1.8349999999999829,-1.0,-1.0,-4.0,-3.0,-3.0,-3.0,-1.0,-2.0,-0.15411376953125,0.2816162109375,0.39154052734375,0.8623046875,-0.61572265625,-0.0537109375,0.806640625,-0.375,0.25,-0.5625
1.8399999999999828,-2.0,-8.0,-12.0,-3.0,-1.0,-1.0,-1.0,-1.0,-0.15411376953125,0.2816162109375,0.39154052734375,0.8623046875,-0.61572265625,-0.0537109375,0.806640625,-0.375,0.25,-0.5625
1.8449999999999827,-1.0,-1.0,-1.0,-1.0,0.0,2.0,-1.0,-1.0,-0.15411376953125,0.2816162109375,0.39154052734375,0.8623046875,-0.6181640625,-0.04541015625,0.810546875,0.5625,0.375,-0.5625
1.8499999999999825,-1.0,1.0,-3.0,-3.0,-1.0,-2.0,-1.0,-1.0,-0.15411376953125,0.2816162109375,0.39154052734375,0.8623046875,-0.6181640625,-0.04541015625,0.810546875,0.5625,0.375,-0.5625
1.8549999999999824,-1.0,-1.0,5.0,-1.0,-2.0,-1.0,0.0,1.0,-0.15411376953125,0.28155517578125,0.39154052734375,0.8623046875,-0.61376953125,-0.0439453125,0.81298828125,0.375,0.125,-0.6875
1.8599999999999823,-1.0,-1.0,5.0,-1.0,-2.0,-1.0,0.0,1.0,-0.15411376953125,0.28155517578125,0.39154052734375,0.8623046875,-0.61376953125,-0.0439453125,0.81298828125,0.375,0.125,-0.6875
1.8649999999999822,-3.0,-1.0,3.0,3.0,3.0,-2.0,-1.0,0.0,-0.1544189453125,0.28143310546875,0.3916015625,0.86224365234375,-0.6220703125,-0.04931640625,0.8134765625,-1.8125,0.0625,-0.1875
1.8699999999999821,-1.0,-3.0,4.0,-2.0,-1.0,-1.0,-1.0,0.0,-0.1544189453125,0.28143310546875,0.3916015625,0.86224365234375,-0.6220703125,-0.04931640625,0.8134765625,-1.8125,0.0625,-0.1875
1.874999999999982,-1.0,-3.0,4.0,-2.0,-1.0,-1.0,-1.0,0.0,-0.15472412109375,0.2813720703125,0.3916015625,0.86224365234375,-0.619140625,-0.05224609375,0.8056640625,-1.4375,-0.0625,-0.5625
1.879999999999982,-1.0,1.0,-3.0,-3.0,-2.0,-1.0,-3.0,-2.0,-0.15472412109375,0.2813720703125,0.3916015625,0.86224365234375,-0.619140625,-0.05224609375,0.8056640625,-1.4375,-0.0625,-0.5625
1.8849999999999818,-2.0,-1.0,8.0,-1.0,-2.0,0.0,-1.0,-1.0,-0.15472412109375,0.2813720703125,0.3916015625,0.86224365234375,-0.619140625,-0.05224609375,0.8056640625,-1.4375,-0.0625,-0.5625
1.8899999999999817,-2.0,-1.0,8.0,-1.0,-2.0,0.0,-1.0,-1.0,-0.15472412109375,0.28131103515625,0.3916015625,0.86224365234375,-0.61669921875,-0.05810546875,0.81396484375,0.375,0.25,-0.375
1.8949999999999816,-3.0,0.0,0.0,1.0,-2.0,-1.0,-1.0,-1.0,-0.1546630859375,0.28143310546875,0.39141845703125,0.8623046875,-0.61865234375,-0.0478515625,0.806640625,1.0,0.4375,-0.625
1.8999999999999815,1.0,2.0,10.0,-1.0,0.0,0.0,1.0,-1.0,-0.1546630859375,0.28143310546875,0.39141845703125,0.8623046875,-0.61865234375,-0.0478515625,0.806640625,1.0,0.4375,-0.625
1.9049999999999814,0.0,3.0,-6.0,2.0,0.0,1.0,1.0,0.0,-0.15460205078125,0.281494140625,0.39141845703125,0.8623046875,-0.619140625,-0.044921875,0.806640625,0.8125,0.5625,-0.1875
1.9099999999999813,-2.0,-3.0,1.0,-7.0,1.0,-1.0,-2.0,-2.0,-0.15460205078125,0.281494140625,0.39141845703125,0.8623046875,-0.623046875,-0.03857421875,0.80810546875,-0.0625,0.8125,-0.5
1.9149999999999812,-1.0,-1.0,-1.0,2.0,-3.0,-1.0,-1.0,-1.0,-0.15460205078125,0.281494140625,0.39141845703125,0.8623046875,-0.61328125,-0.052734375,0.81201171875,-0.375,0.0625,-0.75
1.919999999999981,-2.0,-2.0,-13.0,0.0,-5.0,-1.0,-2.0,0.0,-0.15460205078125,0.281494140625,0.39141845703125,0.8623046875,-0.61328125,-0.052734375,0.81201171875,-0.375,0.0625,-0.75
1.924999999999981,0.0,-1.0,-8.0,-1.0,-1.0,-2.0,-2.0,-1.0,-0.1546630859375,0.281494140625,0.39141845703125,0.8623046875,-0.6171875,-0.052734375,0.8037109375,0.8125,-0.625,-1.0
1.9299999999999808,0.0,-1.0,-8.0,-1.0,-1.0,-2.0,-2.0,-1.0,-0.15447998046875,0.281494140625,0.39117431640625,0.8624267578125,-0.6298828125,-0.0546875,0.802734375,1.625,-1.3125,-0.9375
1.9349999999999807,1.0,0.0,5.0,5.0,2.0,1.0,0.0,-1.0,-0.15447998046875,0.281494140625,0.39117431640625,0.8624267578125,-0.6298828125,-0.0546875,0.802734375,1.625,-1.3125,-0.9375
1.9399999999999806,-1.0,-3.0,-1.0,2.0,-2.0,0.0,0.0,-2.0,-0.1541748046875,0.28155517578125,0.39093017578125,0.86260986328125,-0.6396484375,-0.05126953125,0.79638671875,2.5625,-2.0,-0.9375
1.9449999999999805,-3.0,-3.0,8.0,15.0,0.0,-4.0,-3.0,-1.0,-0.1541748046875,0.28155517578125,0.39093017578125,0.86260986328125,-0.6396484375,-0.05126953125,0.79638671875,2.5625,-2.0,-0.9375
1.9499999999999804,0.0,-2.0,5.0,-7.0,-3.0,-2.0,-3.0,-4.0,-0.15386962890625,0.2816162109375,0.3905029296875,0.86285400390625,-0.6494140625,-0.05810546875,0.806640625,3.25,-2.4375,-1.8125
1.9549999999999803,0.0,2.0,6.0,0.0,-2.0,0.0,-1.0,0.0,-0.15386962890625,0.2816162109375,0.3905029296875,0.86285400390625,-0.6494140625,-0.05810546875,0.806640625,3.25,-2.4375,-1.8125
1.9599999999999802,0.0,-2.0,0.0,-3.0,2.0,0.0,0.0,0.0,-0.15325927734375,0.28131103515625,0.389892578125,0.86328125,-0.61474609375,-0.06201171875,0.80224609375,4.625,-3.3125,-2.75
1.96499999999998,0.0,0.0,3.0,-2.0,-1.0,-1.0,-1.0,-2.0,-0.15216064453125,0.281005859375,0.3895263671875,0.86376953125,-0.6171875,-0.060546875,0.8076171875,6.3125,-4.5,-0.6875
1.96999999999998,0.0,0.0,3.0,-2.0,-1.0,-1.0,-1.0,-2.0,-0.15216064453125,0.281005859375,0.3895263671875,0.86376953125,-0.6171875,-0.060546875,0.8076171875,6.3125,-4.5,-0.6875
1.9749999999999799,0.0,0.0,-3.0,-7.0,-2.0,-2.0,0.0,-1.0,-0.15130615234375,0.280029296875,0.38934326171875,0.86431884765625,-0.58447265625,-0.05615234375,0.81298828125,3.5625,-5.8125,-1.0
1.9799999999999798,-1.0,0.0,-1.0,16.0,2.0,0.0,-3.0,-1.0,-0.15130615234375,0.280029296875,0.38934326171875,0.86431884765625,-0.58447265625,-0.05615234375,0.81298828125,3.5625,-5.8125,-1.0
1.9849999999999797,-2.0,-5.0,-5.0,7.0,-4.0,-3.0,-4.0,-2.0,-0.1500244140625,0.2791748046875,0.38946533203125,0.86474609375,-0.5791015625,-0.04248046875,0.81689453125,4.375,-6.0625,0.8125
1.9899999999999796,-1.0,0.0,11.0,0.0,-1.0,0.0,0.0,-1.0,-0.1485595703125,0.2786865234375,0.38983154296875,0.864990234375,-0.59423828125,-0.025390625,0.8251953125,5.25,-5.0625,2.6875
1.9949999999999795,-4.0,0.0,-6.0,-13.0,-3.0,0.0,-1.0,-3.0,-0.1485595703125,0.2786865234375,0.38983154296875,0.864990234375,-0.59423828125,-0.025390625,0.8251953125,5.25,-5.0625,2.6875
1.9999999999999793,-4.0,0.0,-6.0,-13.0,-3.0,0.0,-1.0,-3.0,-0.1485595703125,0.2786865234375,0.38983154296875,0.864990234375,-0.59423828125,-0.025390625,0.8251953125,5.25,-5.0625,2.6875
2.0049999999999795,1.0,4.0,4.0,4.0,3.0,2.0,1.0,0.0,-0.14715576171875,0.278564453125,0.39031982421875,0.86505126953125,-0.60009765625,-0.01416015625,0.826171875,4.25,-3.4375,3.3125
2.0099999999999794,-1.0,-3.0,-2.0,-4.0,-1.0,-1.0,-1.0,-1.0,-0.14715576171875,0.278564453125,0.39031982421875,0.86505126953125,-0.60009765625,-0.01416015625,0.826171875,4.25,-3.4375,3.3125
2.0149999999999793,-2.0,-4.0,-6.0,-2.0,-1.0,0.0,-1.0,-1.0,-0.14605712890625,0.27874755859375,0.390869140625,0.86492919921875,-0.6025390625,-0.01708984375,0.82861328125,3.875,-1.25,4.1875
2.019999999999979,1.0,-2.0,-5.0,-5.0,-2.0,-1.0,0.0,-1.0,-0.14520263671875,0.27923583984375,0.391357421875,0.86468505859375,-0.60400390625,-0.00634765625,0.82177734375,2.5625,0.9375,3.75
2.024999999999979,-1.0,-7.0,-20.0,-6.0,-3.0,0.0,0.0,-2.0,-0.14520263671875,0.27923583984375,0.391357421875,0.86468505859375,-0.60400390625,-0.00634765625,0.82177734375,2.5625,0.9375,3.75
2.029999999999979,-1.0,-7.0,-20.0,-6.0,-3.0,0.0,0.0,-2.0,-0.14520263671875,0.27923583984375,0.391357421875,0.86468505859375,-0.60400390625,-0.00634765625,0.82177734375,2.5625,0.9375,3.75
2.034999999999979,-2.0,-2.0,-6.0,0.0,-3.0,-2.0,-1.0,0.0,-0.144775390625,0.27978515625,0.39190673828125,0.8643798828125,-0.60595703125,0.001953125,0.81982421875,0.375,2.25,2.9375
2.0399999999999787,-1.0,0.0,6.0,2.0,-1.0,0.0,0.0,-1.0,-0.1451416015625,0.2801513671875,0.392333984375,0.864013671875,-0.6083984375,-0.01708984375,0.81640625,-2.875,2.875,2.0
2.0449999999999786,0.0,2.0,3.0,-7.0,-1.0,-2.0,-1.0,-1.0,-0.1456298828125,0.280517578125,0.39239501953125,0.86370849609375,-0.60546875,-0.01611328125,0.814453125,-3.0,3.4375,-0.1875
2.0499999999999785,-1.0,-1.0,-2.0,2.0,2.0,1.0,0.0,0.0,-0.1456298828125,0.280517578125,0.39239501953125,0.86370849609375,-0.60546875,-0.01611328125,0.814453125,-3.0,3.4375,-0.1875
2.0549999999999784,-1.0,-1.0,-2.0,2.0,2.0,1.0,0.0,0.0,-0.1456298828125,0.280517578125,0.39239501953125,0.86370849609375,-0.60546875,-0.01611328125,0.814453125,-3.0,3.4375,-0.1875
2.0599999999999783,1.0,-1.0,-4.0,-9.0,0.0,0.0,-2.0,0.0,-0.14617919921875,0.28070068359375,0.392333984375,0.86358642578125,-0.59814453125,-0.0166015625,0.8232421875,-2.9375,3.625,-1.4375
2.064999999999978,1.0,-1.0,-4.0,-9.0,0.0,0.0,-2.0,0.0,-0.14617919921875,0.28070068359375,0.392333984375,0.86358642578125,-0.59814453125,-0.0166015625,0.8232421875,-2.9375,3.625,-1.4375
2.069999999999978,-1.0,2.0,16.0,-4.0,-3.0,-3.0,0.0,-2.0,-0.14697265625,0.2808837890625,0.39202880859375,0.863525390625,-0.5986328125,-0.02099609375,0.8232421875,-4.25,4.0,-3.125
2.074999999999978,-1.0,-4.0,9.0,-4.0,-2.0,-1.0,-4.0,-2.0,-0.1480712890625,0.2808837890625,0.3917236328125,0.863525390625,-0.5966796875,-0.02783203125,0.822265625,-5.3125,4.0625,-3.6875
2.079999999999978,-1.0,-1.0,-12.0,-10.0,-2.0,-3.0,0.0,0.0,-0.14947509765625,0.28094482421875,0.39129638671875,0.86346435546875,-0.60498046875,-0.044921875,0.8134765625,-6.0625,4.375,-3.75
2.0849999999999778,-1.0,0.0,-6.0,-4.0,-1.0,-2.0,-1.0,1.0,-0.14947509765625,0.28094482421875,0.39129638671875,0.86346435546875,-0.60498046875,-0.044921875,0.8134765625,-6.0625,4.375,-3.75
2.0899999999999777,-3.0,-5.0,-16.0,-5.0,-1.0,-1.0,-2.0,-3.0,-0.151123046875,0.28118896484375,0.39080810546875,0.86328125,-0.62548828125,-0.0595703125,0.81005859375,-5.75,4.8125,-3.8125
2.0949999999999775,1.0,-3.0,-5.0,-3.0,-1.0,0.0,0.0,-1.0,-0.152587890625,0.28155517578125,0.39031982421875,0.8631591796875,-0.6337890625,-0.06982421875,0.8046875,-4.5,4.625,-3.3125
2.0999999999999774,2.0,1.0,3.0,8.0,2.0,-1.0,0.0,-2.0,-0.152587890625,0.28155517578125,0.39031982421875,0.8631591796875,-0.6337890625,-0.06982421875,0.8046875,-4.5,4.625,-3.3125
2.1049999999999773,2.0,1.0,3.0,8.0,2.0,-1.0,0.0,-2.0,-0.152587890625,0.28155517578125,0.39031982421875,0.8631591796875,-0.6337890625,-0.06982421875,0.8046875,-4.5,4.625,-3.3125
2.1099999999999772,-1.0,-1.0,1.0,-6.0,0.0,0.0,0.0,-1.0,-0.15374755859375,0.2818603515625,0.38983154296875,0.863037109375,-0.62890625,-0.07177734375,0.8037109375,-3.0,4.0625,-2.8125
2.114999999999977,-1.0,-1.0,1.0,-6.0,0.0,0.0,0.0,-1.0,-0.15374755859375,0.2818603515625,0.38983154296875,0.863037109375,-0.62890625,-0.07177734375,0.8037109375,-3.0,4.0625,-2.8125
2.119999999999977,-2.0,-2.0,-18.0,4.0,1.0,-2.0,0.0,-1.0,-0.15460205078125,0.28228759765625,0.389404296875,0.86297607421875,-0.63037109375,-0.06689453125,0.80712890625,-1.5,3.75,-1.9375
2.124999999999977,-2.0,-2.0,4.0,-4.0,-1.0,-2.0,-2.0,0.0,-0.155029296875,0.28277587890625,0.38909912109375,0.86285400390625,-0.630859375,-0.05908203125,0.80419921875,-0.1875,2.875,-1.0625
2.129999999999977,-1.0,1.0,-1.0,4.0,2.0,0.0,-2.0,-1.0,-0.155029296875,0.28277587890625,0.38909912109375,0.86285400390625,-0.630859375,-0.05908203125,0.80419921875,-0.1875,2.875,-1.0625
2.1349999999999767,0.0,4.0,8.0,16.0,0.0,-1.0,-1.0,0.0,-0.15521240234375,0.28302001953125,0.3890380859375,0.86279296875,-0.62060546875,-0.05712890625,0.8017578125,-0.0625,1.75,-0.0625
2.1399999999999766,-1.0,-2.0,1.0,-4.0,-2.0,-1.0,-1.0,0.0,-0.15521240234375,0.28302001953125,0.3890380859375,0.86279296875,-0.615234375,-0.04833984375,0.802734375,0.6875,0.8125,0.6875
2.1449999999999765,-2.0,-2.0,17.0,-6.0,-3.0,-2.0,-2.0,-1.0,-0.15521240234375,0.28302001953125,0.3890380859375,0.86279296875,-0.615234375,-0.04833984375,0.802734375,0.6875,0.8125,0.6875
2.1499999999999764,-1.0,-1.0,2.0,-8.0,-2.0,-1.0,-1.0,0.0,-0.1549072265625,0.2830810546875,0.38916015625,0.86273193359375,-0.61865234375,-0.0419921875,0.80322265625,1.25,-0.4375,1.0
2.1549999999999763,0.0,-3.0,1.0,-1.0,1.0,0.0,-1.0,1.0,-0.15447998046875,0.283203125,0.389404296875,0.8626708984375,-0.6259765625,-0.033203125,0.80224609375,1.1875,-1.1875,1.3125
2.159999999999976,0.0,1.0,-4.0,-6.0,-1.0,-3.0,-2.0,0.0,-0.15447998046875,0.283203125,0.389404296875,0.8626708984375,-0.6259765625,-0.033203125,0.80224609375,1.1875,-1.1875,1.3125
2.164999999999976,0.0,0.0,-6.0,-1.0,-2.0,0.0,-1.0,-2.0,-0.15411376953125,0.283203125,0.38958740234375,0.8626708984375,-0.62548828125,-0.03369140625,0.80517578125,0.625,-1.375,0.9375
2.169999999999976,0.0,0.0,-6.0,-1.0,-2.0,0.0,-1.0,-2.0,-0.15411376953125,0.283203125,0.38958740234375,0.8626708984375,-0.62548828125,-0.03369140625,0.80517578125,0.625,-1.375,0.9375
2.174999999999976,-2.0,-1.0,-3.0,-8.0,0.0,-1.0,-2.0,-1.0,-0.154052734375,0.282958984375,0.3897705078125,0.8626708984375,-0.62255859375,-0.04248046875,0.81201171875,-0.6875,-1.5,0.5625
2.1799999999999757,0.0,-1.0,9.0,11.0,0.0,-2.0,-3.0,0.0,-0.154052734375,0.282958984375,0.3897705078125,0.8626708984375,-0.62255859375,-0.04248046875,0.81201171875,-0.6875,-1.5,0.5625
2.1849999999999756,-1.0,4.0,17.0,2.0,-2.0,0.0,-2.0,-1.0,-0.154052734375,0.282958984375,0.3897705078125,0.8626708984375,-0.62255859375,-0.04248046875,0.81201171875,-0.6875,-1.5,0.5625
2.1899999999999755,-1.0,-5.0,-10.0,1.0,-3.0,0.0,0.0,0.0,-0.15399169921875,0.2825927734375,0.38983154296875,0.86279296875,-0.6103515625,-0.041015625,0.8134765625,-0.875,-1.3125,-0.0625
2.1949999999999754,-2.0,0.0,2.0,-11.0,-2.0,0.0,-1.0,-1.0,-0.1539306640625,0.2825927734375,0.38983154296875,0.86279296875,-0.61279296875,-0.04052734375,0.81005859375,-0.6875,-0.9375,0.125
2.1999999999999753,0.0,-1.0,-5.0,2.0,-1.0,-2.0,0.0,1.0,-0.154052734375,0.282470703125,0.38995361328125,0.86273193359375,-0.6220703125,-0.04541015625,0.81201171875,-1.125,-0.375,0.0625
2.204999999999975,0.0,-1.0,-5.0,2.0,-1.0,-2.0,0.0,1.0,-0.154052734375,0.282470703125,0.38995361328125,0.86273193359375,-0.6220703125,-0.04541015625,0.81201171875,-1.125,-0.375,0.0625
2.209999999999975,-1.0,-2.0,-1.0,3.0,0.0,0.0,-1.0,-2.0,-0.154052734375,0.282470703125,0.38995361328125,0.86273193359375,-0.6220703125,-0.04541015625,0.81201171875,-1.125,-0.375,0.0625
2.214999999999975,0.0,6.0,-1.0,-1.0,0.0,-1.0,-2.0,-2.0,-0.15423583984375,0.2823486328125,0.38995361328125,0.86273193359375,-0.6181640625,-0.05029296875,0.8115234375,-1.25,-0.0625,-0.3125
2.219999999999975,-2.0,-3.0,13.0,-1.0,-3.0,-3.0,-2.0,-2.0,-0.15423583984375,0.2823486328125,0.38995361328125,0.86273193359375,-0.6181640625,-0.05029296875,0.8115234375,-1.25,-0.0625,-0.3125
2.2249999999999748,-2.0,-3.0,13.0,-1.0,-3.0,-3.0,-2.0,-2.0,-0.154296875,0.28228759765625,0.38995361328125,0.86273193359375,-0.6162109375,-0.0576171875,0.8095703125,-0.8125,-0.125,-0.3125
2.2299999999999747,0.0,-2.0,-8.0,17.0,0.0,1.0,0.0,0.0,-0.154296875,0.28228759765625,0.38995361328125,0.86273193359375,-0.6162109375,-0.0576171875,0.8095703125,-0.8125,-0.125,-0.3125
2.2349999999999746,-3.0,-2.0,9.0,-1.0,-3.0,-2.0,-2.0,-2.0,-0.154296875,0.28228759765625,0.38995361328125,0.86279296875,-0.615234375,-0.05126953125,0.814453125,-0.3125,-0.625,-0.25
2.2399999999999745,-3.0,-2.0,9.0,-1.0,-3.0,-2.0,-2.0,-2.0,-0.154296875,0.28228759765625,0.38995361328125,0.86279296875,-0.615234375,-0.05126953125,0.814453125,-0.3125,-0.625,-0.25
2.2449999999999743,-1.0,4.0,1.0,0.0,-2.0,-2.0,-1.0,-1.0,-0.1541748046875,0.28204345703125,0.38995361328125,0.86285400390625,-0.61376953125,-0.0498046875,0.81494140625,0.125,-1.0625,-0.3125
2.2499999999999742,-1.0,-1.0,-5.0,-2.0,-1.0,0.0,-1.0,0.0,-0.1541748046875,0.28204345703125,0.38995361328125,0.86285400390625,-0.61376953125,-0.0498046875,0.81494140625,0.125,-1.0625,-0.3125
2.254999999999974,-1.0,-4.0,-6.0,-4.0,-3.0,-2.0,-1.0,-1.0,-0.154052734375,0.2818603515625,0.389892578125,0.86297607421875,-0.61767578125,-0.05224609375,0.8095703125,0.5625,-1.375,-0.0625
2.259999999999974,0.0,-3.0,-4.0,0.0,-2.0,0.0,0.0,-2.0,-0.1539306640625,0.28167724609375,0.3900146484375,0.86297607421875,-0.62158203125,-0.05078125,0.814453125,0.3125,-1.125,0.4375
2.264999999999974,-1.0,0.0,-11.0,-15.0,-4.0,-2.0,-1.0,-1.0,-0.1539306640625,0.28167724609375,0.3900146484375,0.86297607421875,-0.62158203125,-0.05078125,0.814453125,0.3125,-1.125,0.4375
2.269999999999974,-1.0,-1.0,-2.0,3.0,3.0,1.0,0.0,-2.0,-0.15380859375,0.2816162109375,0.39007568359375,0.86297607421875,-0.6220703125,-0.04541015625,0.806640625,0.3125,-1.0625,0.5625
2.2749999999999737,-3.0,-2.0,2.0,-6.0,-5.0,-2.0,-1.0,-1.0,-0.15380859375,0.2816162109375,0.39007568359375,0.86297607421875,-0.6220703125,-0.04541015625,0.806640625,0.3125,-1.0625,0.5625
2.2799999999999736,-2.0,-1.0,-1.0,6.0,3.0,0.0,-1.0,-2.0,-0.15380859375,0.28167724609375,0.39007568359375,0.86297607421875,-0.61572265625,-0.0380859375,0.81005859375,0.625,-0.875,0.4375
2.2849999999999735,-2.0,-1.0,-1.0,6.0,3.0,0.0,-1.0,-2.0,-0.15380859375,0.28167724609375,0.39007568359375,0.86297607421875,-0.61572265625,-0.0380859375,0.81005859375,0.625,-0.875,0.4375
2.2899999999999734,-1.0,3.0,9.0,4.0,1.0,0.0,0.0,0.0,-0.15338134765625,0.2816162109375,0.39019775390625,0.863037109375,-0.61669921875,-0.03955078125,0.81787109375,1.25,-0.8125,0.75
2.2949999999999733,-3.0,-4.0,-4.0,-6.0,-2.0,-3.0,0.0,-2.0,-0.1529541015625,0.28155517578125,0.39031982421875,0.863037109375,-0.61279296875,-0.03662109375,0.81396484375,1.1875,-0.9375,0.75
2.299999999999973,0.0,-3.0,-7.0,0.0,0.0,-2.0,-1.0,0.0,-0.1529541015625,0.28155517578125,0.39031982421875,0.863037109375,-0.61279296875,-0.03662109375,0.81396484375,1.1875,-0.9375,0.75
2.304999999999973,0.0,0.0,-23.0,-3.0,-2.0,-1.0,-1.0,0.0,-0.1529541015625,0.28155517578125,0.39031982421875,0.863037109375,-0.61279296875,-0.03662109375,0.81396484375,1.1875,-0.9375,0.75
2.309999999999973,0.0,0.0,-23.0,-3.0,-2.0,-1.0,-1.0,0.0,-0.1529541015625,0.28155517578125,0.39031982421875,0.863037109375,-0.61279296875,-0.03662109375,0.81396484375,1.1875,-0.9375,0.75
2.314999999999973,-1.0,-1.0,5.0,3.0,2.0,1.0,0.0,-3.0,-0.1527099609375,0.2813720703125,0.39044189453125,0.86309814453125,-0.60986328125,-0.03564453125,0.81298828125,0.1875,-1.125,0.375
2.3199999999999728,-1.0,-1.0,5.0,3.0,2.0,1.0,0.0,-3.0,-0.1527099609375,0.2813720703125,0.39044189453125,0.86309814453125,-0.6064453125,-0.03955078125,0.810546875,-0.8125,-1.0,0.0625
2.3249999999999726,-1.0,-2.0,1.0,-10.0,0.0,2.0,-1.0,-1.0,-0.1527099609375,0.2813720703125,0.39044189453125,0.86309814453125,-0.6064453125,-0.03955078125,0.810546875,-0.8125,-1.0,0.0625
2.3299999999999725,-1.0,2.0,0.0,1.0,-1.0,-2.0,-2.0,-1.0,-0.15264892578125,0.2813720703125,0.39044189453125,0.86309814453125,-0.61376953125,-0.041015625,0.81787109375,-0.75,-0.5625,-0.125
2.3349999999999724,-3.0,-2.0,1.0,-4.0,-2.0,-1.0,-3.0,-3.0,-0.15264892578125,0.2813720703125,0.39044189453125,0.86309814453125,-0.61376953125,-0.041015625,0.81787109375,-0.75,-0.5625,-0.125
2.3399999999999723,0.0,-4.0,5.0,0.0,-1.0,-1.0,-2.0,0.0,-0.15264892578125,0.2813720703125,0.39044189453125,0.86309814453125,-0.61376953125,-0.041015625,0.81787109375,-0.75,-0.5625,-0.125
2.344999999999972,0.0,-4.0,5.0,0.0,-1.0,-1.0,-2.0,0.0,-0.15264892578125,0.2813720703125,0.39044189453125,0.86309814453125,-0.61376953125,-0.041015625,0.81787109375,-0.75,-0.5625,-0.125
2.349999999999972,-1.0,0.0,3.0,-5.0,-1.0,0.0,-2.0,-1.0,-0.15264892578125,0.2813720703125,0.39044189453125,0.86309814453125,-0.611328125,-0.044921875,0.8154296875,-0.625,-0.0625,-0.25
2.354999999999972,-1.0,0.0,3.0,-5.0,-1.0,0.0,-2.0,-1.0,-0.15264892578125,0.28131103515625,0.3905029296875,0.8631591796875,-0.61181640625,-0.04345703125,0.81201171875,-0.8125,0.6875,-0.5
2.359999999999972,-3.0,-3.0,12.0,1.0,-3.0,-2.0,0.0,-1.0,-0.15264892578125,0.28131103515625,0.3905029296875,0.8631591796875,-0.61181640625,-0.04345703125,0.81201171875,-0.8125,0.6875,-0.5
2.364999999999972,-1.0,1.0,-3.0,-1.0,0.0,-1.0,-1.0,-1.0,-0.15283203125,0.28131103515625,0.390380859375,0.86309814453125,-0.611328125,-0.044921875,0.81884765625,-0.875,1.125,-0.625
2.3699999999999717,-2.0,-3.0,-6.0,-1.0,-1.0,-3.0,-1.0,-1.0,-0.15283203125,0.28131103515625,0.390380859375,0.86309814453125,-0.611328125,-0.044921875,0.81884765625,-0.875,1.125,-0.625
2.3749999999999716,1.0,-2.0,-5.0,-2.0,-1.0,-1.0,0.0,-1.0,-0.15313720703125,0.2813720703125,0.39031982421875,0.86309814453125,-0.6142578125,-0.04345703125,0.81689453125,-1.5,1.25,-0.8125
2.3799999999999715,-1.0,-4.0,-7.0,-3.0,-1.0,0.0,-1.0,-2.0,-0.15313720703125,0.2813720703125,0.39031982421875,0.86309814453125,-0.6142578125,-0.04345703125,0.81689453125,-1.5,1.25,-0.8125
2.3849999999999714,-1.0,-4.0,-7.0,-3.0,-1.0,0.0,-1.0,-2.0,-0.15313720703125,0.2813720703125,0.39031982421875,0.86309814453125,-0.6142578125,-0.04345703125,0.81689453125,-1.5,1.25,-0.8125
2.3899999999999713,-1.0,-1.0,2.0,5.0,-1.0,0.0,-2.0,-3.0,-0.15380859375,0.28143310546875,0.39019775390625,0.863037109375,-0.61962890625,-0.04833984375,0.80517578125,-1.4375,1.0,-0.6875
2.394999999999971,-2.0,1.0,14.0,-1.0,-1.0,-1.0,-2.0,-1.0,-0.15380859375,0.28143310546875,0.39019775390625,0.863037109375,-0.61962890625,-0.04833984375,0.80517578125,-1.4375,1.0,-0.6875
2.399999999999971,-2.0,1.0,14.0,-1.0,-1.0,-1.0,-2.0,-1.0,-0.15380859375,0.28143310546875,0.39019775390625,0.863037109375,-0.61962890625,-0.04833984375,0.80517578125,-1.4375,1.0,-0.6875
2.404999999999971,0.0,5.0,-6.0,6.0,1.0,0.0,-1.0,-2.0,-0.15380859375,0.28143310546875,0.39019775390625,0.863037109375,-0.62255859375,-0.048828125,0.81298828125,-0.875,0.375,-1.0
2.409999999999971,-1.0,-1.0,-5.0,-8.0,-4.0,0.0,-2.0,-1.0,-0.15380859375,0.28143310546875,0.39019775390625,0.863037109375,-0.62255859375,-0.048828125,0.81298828125,-0.875,0.375,-1.0
2.4149999999999707,-4.0,-3.0,-8.0,-9.0,-2.0,0.0,0.0,-2.0,-0.15380859375,0.28143310546875,0.39019775390625,0.863037109375,-0.6162109375,-0.05419921875,0.81005859375,-0.625,0.0625,-0.875
2.4199999999999706,-2.0,0.0,-3.0,-2.0,0.0,-3.0,-1.0,1.0,-0.15380859375,0.28143310546875,0.39019775390625,0.863037109375,-0.61572265625,-0.05029296875,0.80517578125,0.0625,0.0,-0.5625
2.4249999999999705,0.0,-3.0,-8.0,-7.0,-4.0,-2.0,-2.0,-2.0,-0.15380859375,0.28143310546875,0.39019775390625,0.863037109375,-0.61572265625,-0.05029296875,0.80517578125,0.0625,0.0,-0.5625
2.4299999999999704,0.0,-3.0,-8.0,-7.0,-4.0,-2.0,-2.0,-2.0,-0.15380859375,0.28143310546875,0.39019775390625,0.863037109375,-0.61572265625,-0.05029296875,0.80517578125,0.0625,0.0,-0.5625
2.4349999999999703,0.0,-2.0,-1.0,10.0,0.0,1.0,-1.0,-1.0,-0.15380859375,0.28143310546875,0.39019775390625,0.863037109375,-0.6142578125,-0.048828125,0.81103515625,0.125,0.0,0.0625
2.43999999999997,0.0,1.0,0.0,-5.0,0.0,-1.0,-2.0,-2.0,-0.15380859375,0.28143310546875,0.39019775390625,0.863037109375,-0.6142578125,-0.048828125,0.81103515625,0.125,0.0,0.0625
2.44499999999997,-1.0,0.0,-1.0,-1.0,-2.0,-1.0,0.0,0.0,-0.15380859375,0.28143310546875,0.39019775390625,0.863037109375,-0.61865234375,-0.05078125,0.81005859375,-0.75,-0.0625,0.1875
2.44999999999997,-1.0,0.0,-1.0,-1.0,-2.0,-1.0,0.0,0.0,-0.15380859375,0.28143310546875,0.39019775390625,0.863037109375,-0.61865234375,-0.05078125,0.81005859375,-0.75,-0.0625,0.1875
2.45499999999997,-1.0,0.0,10.0,-11.0,-3.0,-4.0,-1.0,0.0,-0.15386962890625,0.28143310546875,0.39019775390625,0.863037109375,-0.62255859375,-0.0546875,0.8076171875,-0.3125,0.0,0.625
2.4599999999999698,-1.0,-1.0,-2.0,-3.0,-2.0,-2.0,-2.0,1.0,-0.15386962890625,0.28143310546875,0.39019775390625,0.863037109375,-0.62255859375,-0.0546875,0.8076171875,-0.3125,0.0,0.625
2.4649999999999697,-2.0,-1.0,1.0,0.0,-2.0,-3.0,-2.0,-1.0,-0.15386962890625,0.28143310546875,0.39019775390625,0.863037109375,-0.62060546875,-0.04931640625,0.81005859375,0.6875,-0.25,0.5
2.4699999999999696,0.0,-2.0,-7.0,-4.0,-2.0,-2.0,-2.0,-1.0,-0.15386962890625,0.28143310546875,0.39019775390625,0.863037109375,-0.62060546875,-0.04931640625,0.81005859375,0.6875,-0.25,0.5
2.4749999999999694,0.0,-2.0,-7.0,-4.0,-2.0,-2.0,-2.0,-1.0,-0.1536865234375,0.2813720703125,0.39019775390625,0.863037109375,-0.6142578125,-0.05322265625,0.80615234375,1.0,-0.5625,0.4375
2.4799999999999693,-2.0,-1.0,-6.0,-3.0,-2.0,-3.0,-2.0,-1.0,-0.1536865234375,0.2813720703125,0.39019775390625,0.863037109375,-0.6142578125,-0.05322265625,0.80615234375,1.0,-0.5625,0.4375
2.4849999999999692,-2.0,-1.0,6.0,0.0,0.0,1.0,-1.0,0.0,-0.1536865234375,0.2813720703125,0.39019775390625,0.863037109375,-0.6142578125,-0.05322265625,0.80615234375,1.0,-0.5625,0.4375
2.489999999999969,0.0,-2.0,-7.0,-10.0,0.0,1.0,0.0,-2.0,-0.1536865234375,0.2813720703125,0.39019775390625,0.863037109375,-0.609375,-0.041015625,0.81494140625,0.125,-0.9375,0.4375
2.494999999999969,-1.0,-1.0,-10.0,-10.0,-1.0,-1.0,-2.0,0.0,-0.1536865234375,0.2813720703125,0.39019775390625,0.863037109375,-0.609375,-0.041015625,0.81494140625,0.125,-0.9375,0.4375
2.499999999999969,-1.0,-1.0,-10.0,-10.0,-1.0,-1.0,-2.0,0.0,-0.1536865234375,0.2813720703125,0.39019775390625,0.863037109375,-0.609375,-0.041015625,0.81494140625,0.125,-0.9375,0.4375
2.504999999999969,-1.0,-2.0,-6.0,-6.0,-1.0,-2.0,-1.0,-2.0,-0.1536865234375,0.28131103515625,0.39019775390625,0.86309814453125,-0.61474609375,-0.04833984375,0.81201171875,-0.125,0.0,0.25
2.5099999999999687,-2.0,0.0,-3.0,-4.0,-1.0,0.0,1.0,-1.0,-0.1536865234375,0.28131103515625,0.39019775390625,0.86309814453125,-0.61474609375,-0.04833984375,0.81201171875,-0.125,0.0,0.25
2.5149999999999686,-1.0,2.0,7.0,-1.0,1.0,-2.0,-1.0,-1.0,-0.1536865234375,0.28131103515625,0.39019775390625,0.86309814453125,-0.61376953125,-0.04833984375,0.80908203125,-0.0625,0.1875,0.25
2.5199999999999685,-1.0,-3.0,20.0,0.0,0.0,-2.0,-1.0,0.0,-0.1536865234375,0.28131103515625,0.39019775390625,0.86309814453125,-0.61376953125,-0.04833984375,0.80908203125,-0.0625,0.1875,0.25
2.5249999999999684,0.0,-1.0,0.0,2.0,-1.0,0.0,-1.0,0.0,-0.1536865234375,0.28131103515625,0.39019775390625,0.86309814453125,-0.6103515625,-0.0478515625,0.80810546875,-0.1875,0.125,0.5
2.5299999999999683,-1.0,0.0,-9.0,-5.0,-1.0,-1.0,-1.0,-3.0,-0.15362548828125,0.28131103515625,0.39019775390625,0.86309814453125,-0.619140625,-0.0390625,0.80712890625,0.9375,-0.125,0.4375
2.534999999999968,0.0,-2.0,-3.0,6.0,-3.0,-2.0,0.0,1.0,-0.15362548828125,0.28131103515625,0.39019775390625,0.86309814453125,-0.619140625,-0.0390625,0.80712890625,0.9375,-0.125,0.4375
2.539999999999968,0.0,-3.0,-5.0,-8.0,1.0,-1.0,-1.0,-1.0,-0.15362548828125,0.28131103515625,0.39019775390625,0.86309814453125,-0.6142578125,-0.04248046875,0.80859375,0.375,-0.375,-0.0625
2.544999999999968,0.0,-3.0,-5.0,-8.0,1.0,-1.0,-1.0,-1.0,-0.15362548828125,0.28131103515625,0.39019775390625,0.86309814453125,-0.6142578125,-0.04248046875,0.80859375,0.375,-0.375,-0.0625
2.549999999999968,-2.0,-3.0,3.0,0.0,0.0,1.0,0.0,-2.0,-0.15362548828125,0.28131103515625,0.3902587890625,0.86309814453125,-0.61328125,-0.046875,0.81005859375,-0.1875,-0.1875,-0.1875
2.5549999999999677,-2.0,-4.0,-24.0,-1.0,-2.0,0.0,0.0,-1.0,-0.15362548828125,0.28131103515625,0.3902587890625,0.86309814453125,-0.61328125,-0.04541015625,0.81591796875,-0.0625,-0.1875,-0.25
2.5599999999999676,-1.0,-2.0,2.0,4.0,-2.0,-1.0,-2.0,-2.0,-0.15362548828125,0.28131103515625,0.3902587890625,0.86309814453125,-0.61328125,-0.04541015625,0.81591796875,-0.0625,-0.1875,-0.25
2.5649999999999675,-1.0,-2.0,2.0,4.0,-2.0,-1.0,-2.0,-2.0,-0.15362548828125,0.28131103515625,0.3902587890625,0.86309814453125,-0.61328125,-0.04541015625,0.81591796875,-0.0625,-0.1875,-0.25
2.5699999999999674,-1.0,-1.0,-1.0,-2.0,-3.0,-2.0,-1.0,-1.0,-0.153564453125,0.28131103515625,0.3902587890625,0.86309814453125,-0.61572265625,-0.041015625,0.81689453125,0.0,0.125,-0.3125
2.5749999999999673,-1.0,1.0,3.0,-3.0,0.0,-1.0,-3.0,-1.0,-0.153564453125,0.28131103515625,0.3902587890625,0.86309814453125,-0.6142578125,-0.04541015625,0.81005859375,-0.1875,0.5,-0.25
2.579999999999967,0.0,1.0,3.0,-4.0,-3.0,0.0,-1.0,0.0,-0.153564453125,0.28125,0.3902587890625,0.86309814453125,-0.6103515625,-0.044921875,0.8115234375,0.5,0.625,-0.5
2.584999999999967,-2.0,-1.0,-6.0,-7.0,-2.0,0.0,-1.0,-2.0,-0.153564453125,0.28125,0.3902587890625,0.86309814453125,-0.6103515625,-0.044921875,0.8115234375,0.5,0.625,-0.5
2.589999999999967,0.0,0.0,-2.0,3.0,-1.0,0.0,-2.0,-1.0,-0.153564453125,0.28125,0.3902587890625,0.86309814453125,-0.609375,-0.04638671875,0.8134765625,0.1875,0.5625,-0.5
2.594999999999967,-1.0,1.0,14.0,6.0,1.0,-1.0,0.0,-2.0,-0.153564453125,0.28125,0.3902587890625,0.86309814453125,-0.609375,-0.04638671875,0.8134765625,0.1875,0.5625,-0.5
2.599999999999967,-1.0,-1.0,1.0,-1.0,-3.0,-2.0,-2.0,-1.0,-0.153564453125,0.28125,0.3902587890625,0.86309814453125,-0.61181640625,-0.05029296875,0.8154296875,-0.125,0.4375,-0.25
2.6049999999999667,-3.0,-9.0,-21.0,-6.0,-1.0,0.0,0.0,-2.0,-0.153564453125,0.28118896484375,0.3902587890625,0.86309814453125,-0.61474609375,-0.04443359375,0.8173828125,-0.375,0.4375,-0.25
2.6099999999999666,-3.0,0.0,2.0,-5.0,-1.0,-2.0,-1.0,1.0,-0.153564453125,0.28118896484375,0.3902587890625,0.86309814453125,-0.61474609375,-0.04443359375,0.8173828125,-0.375,0.4375,-0.25
2.6149999999999665,-1.0,3.0,20.0,0.0,-2.0,0.0,-1.0,-2.0,-0.153564453125,0.28118896484375,0.3902587890625,0.86309814453125,-0.61474609375,-0.05126953125,0.82080078125,-0.25,0.3125,0.0
2.6199999999999664,-2.0,-2.0,4.0,-3.0,0.0,0.0,0.0,-1.0,-0.153564453125,0.28118896484375,0.3902587890625,0.86309814453125,-0.61474609375,-0.05126953125,0.82080078125,-0.25,0.3125,0.0
2.6249999999999662,0.0,-2.0,0.0,17.0,1.0,0.0,-1.0,0.0,-0.153564453125,0.28118896484375,0.3902587890625,0.86309814453125,-0.61767578125,-0.04736328125,0.81201171875,-0.125,0.5,-0.0625
2.629999999999966,-1.0,-2.0,0.0,4.0,-2.0,-2.0,-1.0,-1.0,-0.153564453125,0.28118896484375,0.3902587890625,0.86309814453125,-0.61376953125,-0.04736328125,0.806640625,0.0625,0.5,-0.125
2.634999999999966,1.0,0.0,-3.0,-3.0,0.0,-2.0,-1.0,-2.0,-0.153564453125,0.28118896484375,0.3902587890625,0.86309814453125,-0.61376953125,-0.04736328125,0.806640625,0.0625,0.5,-0.125
2.639999999999966,0.0,1.0,4.0,-7.0,-1.0,0.0,-1.0,-1.0,-0.15350341796875,0.28118896484375,0.3902587890625,0.86309814453125,-0.61572265625,-0.0390625,0.8095703125,0.375,0.5625,0.0
2.644999999999966,0.0,-2.0,-2.0,0.0,-2.0,-3.0,-2.0,0.0,-0.15350341796875,0.28118896484375,0.3902587890625,0.86309814453125,-0.61572265625,-0.0390625,0.8095703125,0.375,0.5625,0.0
2.6499999999999657,0.0,-2.0,-2.0,0.0,-2.0,-3.0,-2.0,0.0,-0.15350341796875,0.28118896484375,0.3902587890625,0.86309814453125,-0.6123046875,-0.044921875,0.81005859375,0.1875,0.3125,0.125
2.6549999999999656,0.0,-2.0,8.0,-1.0,-1.0,0.0,-2.0,-2.0,-0.15350341796875,0.2811279296875,0.3902587890625,0.8631591796875,-0.60791015625,-0.04638671875,0.81494140625,-0.1875,0.0,-0.1875
2.6599999999999655,1.0,0.0,-3.0,1.0,0.0,2.0,0.0,0.0,-0.15350341796875,0.2811279296875,0.3902587890625,0.8631591796875,-0.60791015625,-0.04638671875,0.81494140625,-0.1875,0.0,-0.1875
2.6649999999999654,1.0,0.0,-3.0,1.0,0.0,2.0,0.0,0.0,-0.15350341796875,0.2811279296875,0.3902587890625,0.8631591796875,-0.60791015625,-0.04638671875,0.81494140625,-0.1875,0.0,-0.1875
2.6699999999999653,-1.0,-2.0,2.0,-5.0,-3.0,-2.0,-2.0,-1.0,-0.15350341796875,0.2811279296875,0.3902587890625,0.8631591796875,-0.61083984375,-0.04736328125,0.8134765625,0.3125,-0.4375,-0.1875
2.674999999999965,-1.0,-2.0,2.0,-5.0,-3.0,-2.0,-2.0,-1.0,-0.15350341796875,0.2811279296875,0.3902587890625,0.8631591796875,-0.61083984375,-0.04736328125,0.8134765625,0.3125,-0.4375,-0.1875
2.679999999999965,-1.0,-1.0,-3.0,0.0,-3.0,-2.0,-1.0,-1.0,-0.15350341796875,0.2811279296875,0.3902587890625,0.8631591796875,-0.61572265625,-0.04248046875,0.80712890625,0.0625,-0.5,0.0
2.684999999999965,-2.0,-7.0,-21.0,-5.0,-3.0,-1.0,1.0,-3.0,-0.15350341796875,0.2811279296875,0.3902587890625,0.8631591796875,-0.6181640625,-0.04345703125,0.8095703125,-0.1875,-0.625,0.0625
2.689999999999965,-1.0,-2.0,-3.0,-13.0,-2.0,-2.0,-1.0,-1.0,-0.15350341796875,0.2811279296875,0.3902587890625,0.8631591796875,-0.6181640625,-0.04345703125,0.8095703125,-0.1875,-0.625,0.0625
2.6949999999999648,-1.0,-2.0,-3.0,-13.0,-2.0,-2.0,-1.0,-1.0,-0.15350341796875,0.2811279296875,0.3902587890625,0.8631591796875,-0.6181640625,-0.04345703125,0.8095703125,-0.1875,-0.625,0.0625
2.6999999999999647,-3.0,0.0,5.0,-2.0,0.0,0.0,-2.0,-1.0,-0.1534423828125,0.2811279296875,0.3902587890625,0.8631591796875,-0.6083984375,-0.04541015625,0.8125,-0.0625,-0.625,0.375
2.7049999999999645,0.0,0.0,9.0,-12.0,-1.0,-2.0,-2.0,-1.0,-0.1534423828125,0.2811279296875,0.3902587890625,0.8631591796875,-0.6083984375,-0.04541015625,0.8125,-0.0625,-0.625,0.375
2.7099999999999644,1.0,-2.0,-2.0,6.0,1.0,-2.0,-2.0,0.0,-0.1534423828125,0.2811279296875,0.3902587890625,0.8631591796875,-0.611328125,-0.0419921875,0.81494140625,0.6875,-0.3125,0.25
2.7149999999999643,-2.0,-1.0,-6.0,1.0,-1.0,-1.0,-2.0,-1.0,-0.1534423828125,0.2811279296875,0.3902587890625,0.8631591796875,-0.611328125,-0.0419921875,0.81494140625,0.6875,-0.3125,0.25
2.7199999999999642,-3.0,1.0,5.0,0.0,-1.0,1.0,-2.0,-1.0,-0.1534423828125,0.2811279296875,0.3902587890625,0.8631591796875,-0.61767578125,-0.04443359375,0.80908203125,0.1875,0.0,0.25
2.724999999999964,-1.0,2.0,-2.0,-2.0,0.0,0.0,0.0,0.0,-0.1534423828125,0.2811279296875,0.3902587890625,0.8631591796875,-0.61767578125,-0.04443359375,0.80908203125,0.1875,0.0,0.25
2.729999999999964,1.0,1.0,-6.0,-5.0,-3.0,-1.0,0.0,-3.0,-0.1534423828125,0.28106689453125,0.39031982421875,0.8631591796875,-0.60986328125,-0.046875,0.81689453125,-0.0625,0.1875,0.25
2.734999999999964,-1.0,1.0,1.0,1.0,2.0,1.0,0.0,-1.0,-0.1534423828125,0.28106689453125,0.39031982421875,0.8631591796875,-0.60986328125,-0.046875,0.81689453125,-0.0625,0.1875,0.25
2.739999999999964,-1.0,-1.0,7.0,7.0,0.0,-1.0,-1.0,1.0,-0.1534423828125,0.28106689453125,0.39031982421875,0.8631591796875,-0.61328125,-0.04345703125,0.818359375,-0.0625,0.25,-0.0625
2.7449999999999637,0.0,-1.0,-2.0,12.0,-4.0,-3.0,-2.0,-3.0,-0.15338134765625,0.28106689453125,0.39031982421875,0.8631591796875,-0.61181640625,-0.0419921875,0.81689453125,-0.0625,0.3125,-0.125
2.7499999999999636,0.0,-1.0,-2.0,12.0,-4.0,-3.0,-2.0,-3.0,-0.15338134765625,0.28106689453125,0.39031982421875,0.8631591796875,-0.61181640625,-0.0419921875,0.81689453125,-0.0625,0.3125,-0.125
2.7549999999999635,-2.0,0.0,-7.0,-1.0,-1.0,-1.0,0.0,-2.0,-0.15338134765625,0.28106689453125,0.39031982421875,0.8631591796875,-0.61572265625,-0.0419921875,0.8173828125,-0.625,0.375,-0.3125
2.7599999999999634,-2.0,-3.0,-6.0,-9.0,0.0,-2.0,1.0,-1.0,-0.15338134765625,0.28106689453125,0.39031982421875,0.8631591796875,-0.61572265625,-0.0419921875,0.8173828125,-0.625,0.375,-0.3125
2.7649999999999633,-1.0,-1.0,-5.0,-2.0,-3.0,-2.0,-1.0,-2.0,-0.15338134765625,0.28106689453125,0.39031982421875,0.8631591796875,-0.61083984375,-0.04150390625,0.80859375,-0.25,0.5625,-0.5625
2.769999999999963,-2.0,-9.0,-19.0,-3.0,-2.0,-2.0,-1.0,0.0,-0.1533203125,0.28106689453125,0.39031982421875,0.8631591796875,-0.61328125,-0.04345703125,0.8115234375,-0.8125,0.75,-0.6875
2.774999999999963,-3.0,2.0,-6.0,-4.0,-1.0,-2.0,-1.0,-4.0,-0.1533203125,0.28106689453125,0.39031982421875,0.8631591796875,-0.61328125,-0.04345703125,0.8115234375,-0.8125,0.75,-0.6875
2.779999999999963,-3.0,2.0,-6.0,-4.0,-1.0,-2.0,-1.0,-4.0,-0.1533203125,0.28106689453125,0.39031982421875,0.8631591796875,-0.61328125,-0.04345703125,0.8115234375,-0.8125,0.75,-0.6875
2.784999999999963,-1.0,-2.0,-2.0,-8.0,-3.0,-1.0,-1.0,0.0,-0.153564453125,0.28106689453125,0.3902587890625,0.8631591796875,-0.6162109375,-0.0458984375,0.80908203125,-1.0625,0.8125,-0.5
2.7899999999999627,-3.0,0.0,10.0,7.0,-3.0,-1.0,-1.0,-1.0,-0.153564453125,0.28106689453125,0.3902587890625,0.8631591796875,-0.6162109375,-0.0458984375,0.80908203125,-1.0625,0.8125,-0.5
2.7949999999999626,1.0,4.0,0.0,-14.0,1.0,-2.0,-1.0,0.0,-0.153564453125,0.28106689453125,0.3902587890625,0.8631591796875,-0.61376953125,-0.04638671875,0.81494140625,-0.375,0.625,-0.4375
2.7999999999999625,-2.0,2.0,-1.0,7.0,0.0,0.0,0.0,0.0,-0.153564453125,0.28106689453125,0.3902587890625,0.8631591796875,-0.61376953125,-0.04638671875,0.81494140625,-0.375,0.625,-0.4375
2.8049999999999624,0.0,-4.0,-2.0,2.0,-1.0,-1.0,-1.0,-1.0,-0.153564453125,0.28106689453125,0.39031982421875,0.8631591796875,-0.6142578125,-0.0458984375,0.818359375,-0.5625,0.5625,-0.6875
2.8099999999999623,0.0,-4.0,-2.0,2.0,-1.0,-1.0,-1.0,-1.0,-0.153564453125,0.28106689453125,0.39031982421875,0.8631591796875,-0.6142578125,-0.0458984375,0.818359375,-0.5625,0.5625,-0.6875
2.814999999999962,-1.0,0.0,-6.0,1.0,-1.0,-3.0,-1.0,-1.0,-0.153564453125,0.281005859375,0.3902587890625,0.8631591796875,-0.61572265625,-0.05029296875,0.80908203125,-0.5,0.625,-0.625
2.819999999999962,-2.0,-1.0,-4.0,4.0,0.0,0.0,-2.0,-2.0,-0.153564453125,0.281005859375,0.3902587890625,0.8631591796875,-0.61572265625,-0.05029296875,0.80908203125,-0.5,0.625,-0.625
2.824999999999962,0.0,-3.0,3.0,-4.0,1.0,2.0,-1.0,0.0,-0.153564453125,0.281005859375,0.3902587890625,0.8631591796875,-0.6171875,-0.046875,0.81494140625,-0.875,0.6875,-0.4375
2.829999999999962,-3.0,2.0,5.0,2.0,-1.0,1.0,0.0,-2.0,-0.153564453125,0.281005859375,0.3902587890625,0.8631591796875,-0.615234375,-0.05078125,0.8095703125,-0.6875,0.5,-0.3125
2.8349999999999618,0.0,0.0,-5.0,-3.0,-1.0,-3.0,-3.0,1.0,-0.153564453125,0.281005859375,0.3902587890625,0.8631591796875,-0.615234375,-0.05078125,0.8095703125,-0.6875,0.5,-0.3125
2.8399999999999617,-1.0,1.0,-3.0,-13.0,-3.0,0.0,0.0,-2.0,-0.153564453125,0.281005859375,0.3902587890625,0.8631591796875,-0.615234375,-0.05419921875,0.81201171875,-0.1875,0.3125,-0.0625
2.8449999999999616,-1.0,0.0,-2.0,-4.0,-1.0,-1.0,-1.0,-1.0,-0.153564453125,0.281005859375,0.3902587890625,0.8631591796875,-0.61181640625,-0.05029296875,0.81103515625,0.0,0.125,-0.3125
2.8499999999999615,-2.0,0.0,-3.0,-4.0,-1.0,-1.0,1.0,0.0,-0.153564453125,0.281005859375,0.3902587890625,0.8631591796875,-0.61279296875,-0.0439453125,0.806640625,0.25,0.0,-0.25
2.8549999999999613,-2.0,3.0,-7.0,-8.0,0.0,-1.0,-1.0,-3.0,-0.153564453125,0.281005859375,0.3902587890625,0.8631591796875,-0.61279296875,-0.0439453125,0.806640625,0.25,0.0,-0.25
2.8599999999999612,-1.0,-2.0,0.0,1.0,-2.0,-1.0,1.0,-2.0,-0.153564453125,0.281005859375,0.3902587890625,0.8631591796875,-0.62060546875,-0.05224609375,0.81396484375,-0.1875,-0.125,-0.375
2.864999999999961,-4.0,-7.0,-9.0,-1.0,0.0,0.0,-1.0,-1.0,-0.153564453125,0.28094482421875,0.3902587890625,0.8631591796875,-0.61083984375,-0.05078125,0.8134765625,-0.3125,-0.4375,-0.25
2.869999999999961,-4.0,-7.0,-9.0,-1.0,0.0,0.0,-1.0,-1.0,-0.153564453125,0.28094482421875,0.3902587890625,0.8631591796875,-0.61083984375,-0.05078125,0.8134765625,-0.3125,-0.4375,-0.25
2.874999999999961,0.0,-2.0,-2.0,-2.0,-1.0,0.0,0.0,-1.0,-0.153564453125,0.28094482421875,0.3902587890625,0.8631591796875,-0.6123046875,-0.04833984375,0.814453125,0.25,-0.625,-0.375
2.879999999999961,0.0,0.0,4.0,1.0,0.0,0.0,-1.0,-1.0,-0.153564453125,0.28094482421875,0.3902587890625,0.8631591796875,-0.6123046875,-0.04833984375,0.814453125,0.25,-0.625,-0.375
2.8849999999999607,-2.0,-1.0,2.0,13.0,0.0,-2.0,-4.0,-3.0,-0.153564453125,0.28094482421875,0.3902587890625,0.8631591796875,-0.6171875,-0.04638671875,0.810546875,0.375,-0.5,0.0625
2.8899999999999606,1.0,-5.0,-21.0,2.0,0.0,0.0,0.0,-2.0,-0.153564453125,0.28094482421875,0.3902587890625,0.8631591796875,-0.6181640625,-0.04443359375,0.81591796875,0.0625,-0.3125,0.125
2.8949999999999605,-1.0,0.0,-2.0,-5.0,-2.0,1.0,0.0,0.0,-0.153564453125,0.28094482421875,0.3902587890625,0.8631591796875,-0.6181640625,-0.04443359375,0.81591796875,0.0625,-0.3125,0.125
2.8999999999999604,-2.0,0.0,1.0,-21.0,-2.0,-2.0,-1.0,0.0,-0.153564453125,0.28094482421875,0.3902587890625,0.86322021484375,-0.60888671875,-0.04931640625,0.8095703125,-0.1875,-0.1875,-0.125
2.9049999999999603,-2.0,0.0,1.0,-21.0,-2.0,-2.0,-1.0,0.0,-0.153564453125,0.28094482421875,0.3902587890625,0.86322021484375,-0.60888671875,-0.04931640625,0.8095703125,-0.1875,-0.1875,-0.125
2.90999999999996,-2.0,-1.0,4.0,0.0,0.0,0.0,-1.0,2.0,-0.153564453125,0.28094482421875,0.3902587890625,0.86322021484375,-0.60888671875,-0.04931640625,0.8095703125,-0.1875,-0.1875,-0.125
2.91499999999996,-1.0,0.0,4.0,-3.0,-2.0,-1.0,-2.0,0.0,-0.153564453125,0.28094482421875,0.3902587890625,0.86322021484375,-0.611328125,-0.0478515625,0.806640625,0.3125,0.25,-0.125
2.91999999999996,0.0,1.0,-10.0,1.0,-1.0,-1.0,-1.0,0.0,-0.153564453125,0.28094482421875,0.3902587890625,0.86322021484375,-0.611328125,-0.0478515625,0.806640625,0.3125,0.25,-0.125
2.92499999999996,0.0,0.0,-2.0,4.0,0.0,-2.0,-2.0,-2.0,-0.15350341796875,0.2808837890625,0.39031982421875,0.86322021484375,-0.6083984375,-0.0380859375,0.8125,0.0625,0.6875,-0.125
2.9299999999999597,0.0,0.0,2.0,1.0,-1.0,-3.0,-1.0,-1.0,-0.1536865234375,0.281005859375,0.39031982421875,0.8631591796875,-0.615234375,-0.0390625,0.8115234375,-1.0625,0.875,-0.3125
2.9349999999999596,1.0,-2.0,-3.0,2.0,-2.0,-3.0,0.0,-2.0,-0.1536865234375,0.281005859375,0.39031982421875,0.8631591796875,-0.615234375,-0.0390625,0.8115234375,-1.0625,0.875,-0.3125
2.9399999999999595,-4.0,-5.0,-23.0,-6.0,-2.0,0.0,-1.0,-1.0,-0.1539306640625,0.281005859375,0.3902587890625,0.86309814453125,-0.611328125,-0.0458984375,0.8115234375,-1.3125,1.125,-0.5
2.9449999999999594,-1.0,-1.0,5.0,-3.0,-3.0,-2.0,-1.0,0.0,-0.1539306640625,0.281005859375,0.3902587890625,0.86309814453125,-0.611328125,-0.0458984375,0.8115234375,-1.3125,1.125,-0.5
2.9499999999999593,-1.0,-1.0,0.0,3.0,0.0,1.0,0.0,0.0,-0.15386962890625,0.281005859375,0.3902587890625,0.86309814453125,-0.60986328125,-0.04638671875,0.81591796875,-0.4375,0.9375,-0.9375
2.954999999999959,-1.0,1.0,5.0,-1.0,-2.0,-2.0,-1.0,-3.0,-0.154052734375,0.28094482421875,0.39013671875,0.8631591796875,-0.61279296875,-0.04931640625,0.814453125,-0.375,0.625,-1.1875
2.959999999999959,-1.0,1.0,5.0,-1.0,-2.0,-2.0,-1.0,-3.0,-0.154052734375,0.28094482421875,0.39013671875,0.8631591796875,-0.61279296875,-0.04931640625,0.814453125,-0.375,0.625,-1.1875
2.964999999999959,0.0,-1.0,1.0,3.0,-2.0,0.0,0.0,-1.0,-0.154052734375,0.28094482421875,0.39013671875,0.8631591796875,-0.61279296875,-0.04931640625,0.814453125,-0.375,0.625,-1.1875
2.969999999999959,-2.0,-4.0,-3.0,14.0,0.0,-1.0,-1.0,-1.0,-0.15423583984375,0.2808837890625,0.3900146484375,0.86322021484375,-0.60791015625,-0.046875,0.81103515625,-1.125,0.75,-1.0625
2.974999999999959,-1.0,2.0,-3.0,-1.0,0.0,-1.0,0.0,0.0,-0.15423583984375,0.2808837890625,0.3900146484375,0.86322021484375,-0.60791015625,-0.046875,0.81103515625,-1.125,0.75,-1.0625
2.9799999999999587,-2.0,-3.0,-6.0,5.0,-2.0,-2.0,-1.0,-2.0,-0.15447998046875,0.281005859375,0.38983154296875,0.86322021484375,-0.61572265625,-0.04541015625,0.8115234375,-0.625,1.5,-1.25
2.9849999999999586,-1.0,0.0,0.0,7.0,-1.0,-1.0,-3.0,-1.0,-0.15478515625,0.28125,0.38958740234375,0.8631591796875,-0.61865234375,-0.04638671875,0.80615234375,-0.8125,2.0,-1.5625
2.9899999999999585,-1.0,-2.0,-7.0,-9.0,-2.0,-3.0,0.0,-2.0,-0.15478515625,0.28125,0.38958740234375,0.8631591796875,-0.61865234375,-0.04638671875,0.80615234375,-0.8125,2.0,-1.5625
2.9949999999999584,-1.0,0.0,-2.0,-3.0,-1.0,-2.0,1.0,1.0,-0.15478515625,0.28125,0.38958740234375,0.8631591796875,-0.61865234375,-0.04638671875,0.80615234375,-0.8125,2.0,-1.5625
2.9999999999999583,-1.0,0.0,-2.0,-3.0,-1.0,-2.0,1.0,1.0,-0.1552734375,0.2813720703125,0.38934326171875,0.8631591796875,-0.6103515625,-0.0556640625,0.81298828125,-1.4375,2.4375,-1.875
3.004999999999958,-1.0,0.0,17.0,-2.0,-2.0,-1.0,-1.0,-1.0,-0.1552734375,0.2813720703125,0.38934326171875,0.8631591796875,-0.6103515625,-0.0556640625,0.81298828125,-1.4375,2.4375,-1.875
3.009999999999958,0.0,3.0,4.0,-7.0,-2.0,0.0,-1.0,0.0,-0.15576171875,0.2816162109375,0.38897705078125,0.8631591796875,-0.6181640625,-0.0556640625,0.8095703125,-1.1875,2.5625,-2.0625
3.014999999999958,0.0,3.0,4.0,-7.0,-2.0,0.0,-1.0,0.0,-0.15576171875,0.2816162109375,0.38897705078125,0.8631591796875,-0.6181640625,-0.0556640625,0.8095703125,-1.1875,2.5625,-2.0625
3.019999999999958,0.0,2.0,0.0,-8.0,-1.0,-1.0,-2.0,0.0,-0.15618896484375,0.28179931640625,0.38861083984375,0.8631591796875,-0.6220703125,-0.052734375,0.8056640625,-1.1875,2.125,-2.375
3.0249999999999577,-3.0,-6.0,-7.0,10.0,-1.0,-2.0,-1.0,-2.0,-0.15618896484375,0.28179931640625,0.38861083984375,0.8631591796875,-0.6220703125,-0.052734375,0.8056640625,-1.1875,2.125,-2.375
3.0299999999999576,-3.0,-3.0,-6.0,-5.0,-2.0,-1.0,-2.0,-3.0,-0.15679931640625,0.281982421875,0.38818359375,0.86322021484375,-0.63037109375,-0.06396484375,0.80078125,-1.3125,1.6875,-2.4375
3.0349999999999575,-3.0,-3.0,-6.0,-5.0,-2.0,-1.0,-2.0,-3.0,-0.15679931640625,0.281982421875,0.38818359375,0.86322021484375,-0.63037109375,-0.06396484375,0.80078125,-1.3125,1.6875,-2.4375
3.0399999999999574,-2.0,3.0,18.0,-4.0,-4.0,-2.0,-2.0,-2.0,-0.15728759765625,0.28204345703125,0.38739013671875,0.86346435546875,-0.6259765625,-0.06689453125,0.80517578125,1.125,-0.25,-1.8125
3.0449999999999573,-1.0,6.0,-9.0,-23.0,-1.0,1.0,0.0,0.0,-0.15728759765625,0.28204345703125,0.38739013671875,0.86346435546875,-0.6259765625,-0.06689453125,0.80517578125,1.125,-0.25,-1.8125
3.049999999999957,-1.0,-1.0,-1.0,2.0,-1.0,-1.0,-2.0,-2.0,-0.1571044921875,0.28204345703125,0.38714599609375,0.86358642578125,-0.62353515625,-0.06640625,0.8046875,2.0625,-0.8125,-0.625
3.054999999999957,2.0,5.0,-19.0,0.0,0.0,0.0,-1.0,0.0,-0.1571044921875,0.28204345703125,0.38714599609375,0.86358642578125,-0.62353515625,-0.06640625,0.8046875,2.0625,-0.8125,-0.625
3.059999999999957,-3.0,-6.0,-4.0,26.0,2.0,-1.0,-1.0,-3.0,-0.1561279296875,0.2821044921875,0.38720703125,0.86370849609375,-0.6259765625,-0.06689453125,0.81298828125,4.0625,-1.75,1.9375
3.064999999999957,-1.0,-3.0,-19.0,3.0,-2.0,-1.0,0.0,0.0,-0.1561279296875,0.2821044921875,0.38720703125,0.86370849609375,-0.6259765625,-0.06689453125,0.81298828125,4.0625,-1.75,1.9375
3.0699999999999568,1.0,0.0,6.0,-13.0,-4.0,-2.0,-2.0,1.0,-0.155029296875,0.28216552734375,0.38739013671875,0.86383056640625,-0.615234375,-0.04833984375,0.82177734375,5.1875,-1.75,2.5
3.0749999999999567,-2.0,-4.0,-2.0,5.0,2.0,0.0,-1.0,-1.0,-0.155029296875,0.28216552734375,0.38739013671875,0.86383056640625,-0.615234375,-0.04833984375,0.82177734375,5.1875,-1.75,2.5
3.0799999999999566,2.0,15.0,5.0,6.0,0.0,-2.0,-1.0,2.0,-0.15386962890625,0.28240966796875,0.3876953125,0.86383056640625,-0.615234375,-0.04296875,0.8154296875,5.4375,-1.0,3.5
3.0849999999999564,-5.0,-7.0,-2.0,19.0,-4.0,-3.0,-2.0,-3.0,-0.15386962890625,0.28240966796875,0.3876953125,0.86383056640625,-0.615234375,-0.04296875,0.8154296875,5.4375,-1.0,3.5
3.0899999999999563,3.0,3.0,16.0,19.0,-4.0,-1.0,-1.0,-1.0,-0.15386962890625,0.28240966796875,0.3876953125,0.86383056640625,-0.615234375,-0.04296875,0.8154296875,5.4375,-1.0,3.5
3.0949999999999562,3.0,3.0,16.0,19.0,-4.0,-1.0,-1.0,-1.0,-0.15283203125,0.28289794921875,0.38787841796875,0.86376953125,-0.6162109375,-0.03173828125,0.81591796875,4.9375,0.25,2.5625
3.099999999999956,0.0,-3.0,-10.0,-15.0,-3.0,-2.0,0.0,-1.0,-0.15283203125,0.28289794921875,0.38787841796875,0.86376953125,-0.6162109375,-0.03173828125,0.81591796875,4.9375,0.25,2.5625
3.104999999999956,4.0,3.0,-42.0,4.0,3.0,3.0,3.0,3.0,-0.15216064453125,0.2833251953125,0.38812255859375,0.8636474609375,-0.61279296875,-0.0283203125,0.80322265625,3.0,1.0,2.125
3.109999999999956,-5.0,-26.0,-8.0,2.0,-7.0,-2.0,0.0,-2.0,-0.15216064453125,0.2833251953125,0.38812255859375,0.8636474609375,-0.61279296875,-0.0283203125,0.80322265625,3.0,1.0,2.125
3.114999999999956,-5.0,-26.0,-8.0,2.0,-7.0,-2.0,0.0,-2.0,-0.15142822265625,0.28375244140625,0.38812255859375,0.86358642578125,-0.607421875,-0.02099609375,0.826171875,3.0625,1.9375,0.75
3.1199999999999557,-2.0,7.0,-20.0,4.0,1.0,-1.0,-1.0,-1.0,-0.15142822265625,0.28375244140625,0.38812255859375,0.86358642578125,-0.607421875,-0.02099609375,0.826171875,3.0625,1.9375,0.75
3.1249999999999556,0.0,-18.0,69.0,-3.0,-4.0,-2.0,-3.0,-1.0,-0.1507568359375,0.28466796875,0.38751220703125,0.86370849609375,-0.6083984375,-0.0537109375,0.81689453125,7.0625,4.25,-0.8125
3.1299999999999555,-16.0,-19.0,-30.0,-16.0,-10.0,-7.0,-5.0,-7.0,-0.1507568359375,0.28466796875,0.38751220703125,0.86370849609375,-0.6083984375,-0.0537109375,0.81689453125,7.0625,4.25,-0.8125
3.1349999999999554,5.0,12.0,-11.0,11.0,6.0,3.0,1.0,1.0,-0.149658203125,0.2862548828125,0.38665771484375,0.86376953125,-0.60986328125,-0.08056640625,0.81103515625,12.9375,6.9375,0.6875
3.1399999999999553,-10.0,-8.0,-18.0,-9.0,-1.0,3.0,-2.0,-3.0,-0.14801025390625,0.288330078125,0.38641357421875,0.86346435546875,-0.63671875,-0.05908203125,0.7578125,14.5,4.75,4.9375
3.144999999999955,-10.0,-8.0,-18.0,-9.0,-1.0,3.0,-2.0,-3.0,-0.14801025390625,0.288330078125,0.38641357421875,0.86346435546875,-0.63671875,-0.05908203125,0.7578125,14.5,4.75,4.9375
3.149999999999955,-1.0,16.0,-10.0,6.0,4.0,8.0,6.0,1.0,-0.1461181640625,0.28948974609375,0.38665771484375,0.86328125,-0.65283203125,0.021484375,0.78759765625,8.375,-0.75,3.5
3.154999999999955,1.0,-2.0,21.0,-2.0,-4.0,-2.0,4.0,5.0,-0.1461181640625,0.28948974609375,0.38665771484375,0.86328125,-0.65283203125,0.021484375,0.78759765625,8.375,-0.75,3.5
3.159999999999955,6.0,10.0,-9.0,0.0,6.0,25.0,23.0,-1.0,-0.145751953125,0.2890625,0.38671875,0.86346435546875,-0.62841796875,0.05810546875,0.81884765625,-4.0,-3.125,-3.875
3.1649999999999547,-9.0,-2.0,13.0,-2.0,-3.0,-13.0,-8.0,-18.0,-0.145751953125,0.2890625,0.38671875,0.86346435546875,-0.62841796875,0.05810546875,0.81884765625,-4.0,-3.125,-3.875
3.1699999999999546,7.0,-1.0,-6.0,2.0,-2.0,-4.0,5.0,12.0,-0.14569091796875,0.28857421875,0.3858642578125,0.864013671875,-0.6181640625,0.01513671875,0.8173828125,-1.6875,-2.0,-7.5
3.1749999999999545,2.0,-7.0,-3.0,-3.0,0.0,-9.0,17.0,8.0,-0.14569091796875,0.28857421875,0.3858642578125,0.864013671875,-0.6181640625,0.01513671875,0.8173828125,-1.6875,-2.0,-7.5
3.1799999999999544,-29.0,-8.0,-7.0,0.0,-3.0,-1.0,-19.0,3.0,-0.14593505859375,0.2880859375,0.38519287109375,0.86444091796875,-0.58056640625,0.0,0.810546875,-2.375,0.6875,-6.5625
3.1849999999999543,-29.0,-8.0,-7.0,0.0,-3.0,-1.0,-19.0,3.0,-0.14593505859375,0.2880859375,0.38519287109375,0.86444091796875,-0.58056640625,0.0,0.810546875,-2.375,0.6875,-6.5625
3.189999999999954,5.0,4.0,6.0,-4.0,-2.0,2.0,1.0,4.0,-0.1490478515625,0.28759765625,0.385498046875,0.8638916015625,-0.6044921875,0.021484375,0.76904296875,-20.6875,4.4375,-5.125
3.194999999999954,7.0,2.0,-4.0,-9.0,1.0,-6.0,-17.0,-2.0,-0.1490478515625,0.28759765625,0.385498046875,0.8638916015625,-0.6044921875,0.021484375,0.76904296875,-20.6875,4.4375,-5.125
3.199999999999954,1.0,8.0,6.0,2.0,-1.0,0.0,8.0,-8.0,-0.1546630859375,0.2852783203125,0.3868408203125,0.86309814453125,-0.63427734375,-0.03662109375,0.81884765625,-36.375,1.0625,-3.5625
3.204999999999954,8.0,5.0,-5.0,-2.0,-4.0,-5.0,-18.0,-8.0,-0.1622314453125,0.2823486328125,0.38818359375,0.86212158203125,-0.62060546875,-0.162109375,0.79345703125,-41.5625,2.5,-1.8125
3.209999999999954,10.0,2.0,3.0,-2.0,-2.0,0.0,1.0,-4.0,-0.1622314453125,0.2823486328125,0.38818359375,0.86212158203125,-0.62060546875,-0.162109375,0.79345703125,-41.5625,2.5,-1.8125
3.2149999999999537,6.0,-3.0,4.0,2.0,1.0,3.0,6.0,30.0,-0.167236328125,0.281005859375,0.38916015625,0.861083984375,-0.64111328125,-0.18310546875,0.82421875,-24.25,5.5625,2.6875
3.2199999999999536,6.0,-3.0,4.0,2.0,1.0,3.0,6.0,30.0,-0.167236328125,0.281005859375,0.38916015625,0.861083984375,-0.64111328125,-0.18310546875,0.82421875,-24.25,5.5625,2.6875
3.2249999999999535,15.0,-2.0,2.0,-3.0,1.0,-2.0,-4.0,-12.0,-0.167236328125,0.281005859375,0.38916015625,0.861083984375,-0.64111328125,-0.18310546875,0.82421875,-24.25,5.5625,2.6875
3.2299999999999534,0.0,-2.0,-6.0,-2.0,-3.0,-23.0,-28.0,20.0,-0.1697998046875,0.28131103515625,0.389892578125,0.86016845703125,-0.62939453125,-0.18359375,0.81005859375,-8.0,8.125,6.5
3.2349999999999532,-20.0,-3.0,-14.0,-9.0,-6.0,18.0,-24.0,14.0,-0.16943359375,0.28363037109375,0.3897705078125,0.85955810546875,-0.6259765625,-0.15185546875,0.81982421875,10.75,13.375,7.0625
3.239999999999953,9.0,-2.0,-1.0,-3.0,-3.0,16.0,51.0,-13.0,-0.167724609375,0.2869873046875,0.3895263671875,0.85888671875,-0.62353515625,-0.0810546875,0.791015625,16.5625,14.4375,6.75
3.244999999999953,-5.0,-30.0,-5.0,-2.0,-2.0,-48.0,-49.0,-25.0,-0.167724609375,0.2869873046875,0.3895263671875,0.85888671875,-0.62353515625,-0.0810546875,0.791015625,16.5625,14.4375,6.75
3.249999999999953,-5.0,-30.0,-5.0,-2.0,-2.0,-48.0,-49.0,-25.0,-0.167724609375,0.2869873046875,0.3895263671875,0.85888671875,-0.62353515625,-0.0810546875,0.791015625,16.5625,14.4375,6.75
3.254999999999953,8.0,-1.0,0.0,4.0,3.0,55.0,7.0,-27.0,-0.16473388671875,0.29156494140625,0.38922119140625,0.85809326171875,-0.6455078125,0.025390625,0.79443359375,20.1875,17.4375,6.0625
3.2599999999999527,8.0,-1.0,0.0,4.0,3.0,55.0,7.0,-27.0,-0.16473388671875,0.29156494140625,0.38922119140625,0.85809326171875,-0.6455078125,0.025390625,0.79443359375,20.1875,17.4375,6.0625
3.2649999999999526,-5.0,-5.0,-3.0,6.0,7.0,20.0,32.0,26.0,-0.1656494140625,0.29620361328125,0.38922119140625,0.85626220703125,-0.67626953125,0.0419921875,0.77001953125,-10.3125,8.875,-5.4375
3.2699999999999525,5.0,6.0,-4.0,-14.0,-5.0,20.0,69.0,62.0,-0.1656494140625,0.29620361328125,0.38922119140625,0.85626220703125,-0.67626953125,0.0419921875,0.77001953125,-10.3125,8.875,-5.4375
3.2749999999999524,-6.0,-10.0,-2.0,-3.0,1.0,-97.0,-3.0,-20.0,-0.16802978515625,0.29547119140625,0.38873291015625,0.8563232421875,-0.64453125,-0.0830078125,0.75390625,-11.0625,0.9375,-6.1875
3.2799999999999523,-9.0,-1.0,-19.0,-11.0,-4.0,90.0,-14.0,-69.0,-0.17059326171875,0.2945556640625,0.38873291015625,0.85614013671875,-0.65087890625,-0.1630859375,0.78759765625,-9.375,1.8125,-0.375
3.284999999999952,-10.0,3.0,6.0,37.0,2.0,21.0,-33.0,-15.0,-0.1712646484375,0.29522705078125,0.38818359375,0.85601806640625,-0.67529296875,-0.11181640625,0.7958984375,1.375,4.8125,-1.0
3.289999999999952,-1.0,-7.0,-7.0,-20.0,2.0,24.0,-40.0,-40.0,-0.17034912109375,0.296875,0.38726806640625,0.8560791015625,-0.6435546875,-0.07763671875,0.796875,10.5,7.8125,-0.875
3.294999999999952,-20.0,-11.0,5.0,3.0,0.0,28.0,-30.0,-61.0,-0.16888427734375,0.29901123046875,0.38653564453125,0.85589599609375,-0.64111328125,-0.0537109375,0.7900390625,12.6875,9.625,1.25
