0.005,-6.0,-4.0,-17.0,-7.0,-4.0,-3.0,-2.0,-4.0,-0.02435302734375,0.05474853515625,0.46392822265625,0.8837890625,-0.1201171875,0.0009765625,1.00048828125,-1.5625,0.6875,0.25
0.01,1.0,0.0,0.0,-2.0,1.0,-1.0,1.0,1.0,-0.02435302734375,0.05474853515625,0.46392822265625,0.8837890625,-0.1201171875,0.0009765625,1.00048828125,-1.5625,0.6875,0.25
0.015,0.0,3.0,6.0,0.0,-2.0,1.0,-2.0,-2.0,-0.02435302734375,0.0548095703125,0.46392822265625,0.8837890625,-0.12158203125,0.00439453125,0.99072265625,-0.8125,0.625,0.3125
0.02,0.0,3.0,6.0,0.0,-2.0,1.0,-2.0,-2.0,-0.02435302734375,0.0548095703125,0.46392822265625,0.8837890625,-0.12158203125,0.00439453125,0.99072265625,-0.8125,0.625,0.3125
0.025,-7.0,-11.0,22.0,-4.0,-1.0,-2.0,-3.0,-3.0,-0.02435302734375,0.0548095703125,0.46392822265625,0.8837890625,-0.1220703125,0.0107421875,1.00048828125,-0.625,0.25,0.4375
0.030000000000000002,-2.0,-6.0,5.0,-3.0,-2.0,-1.0,-1.0,-2.0,-0.02435302734375,0.0548095703125,0.46392822265625,0.8837890625,-0.1220703125,-0.001953125,0.99560546875,-0.6875,-0.25,0.875
0.035,4.0,5.0,-9.0,4.0,1.0,0.0,-1.0,0.0,-0.02435302734375,0.0548095703125,0.46392822265625,0.8837890625,-0.1220703125,-0.001953125,0.99560546875,-0.6875,-0.25,0.875
0.04,1.0,1.0,-9.0,-2.0,-1.0,-1.0,-2.0,-2.0,-0.02435302734375,0.0546875,0.464111328125,0.88372802734375,-0.12060546875,0.0,1.00048828125,0.3125,-0.5625,1.0625
0.045,-1.0,-2.0,-9.0,-3.0,-2.0,-3.0,-1.0,-1.0,-0.02435302734375,0.0546875,0.464111328125,0.88372802734375,-0.12060546875,0.0,1.00048828125,0.3125,-0.5625,1.0625
0.049999999999999996,3.0,6.0,12.0,2.0,0.0,-1.0,1.0,0.0,-0.02423095703125,0.05462646484375,0.46435546875,0.88360595703125,-0.12353515625,0.00927734375,0.9990234375,0.1875,-0.8125,1.5625
0.05499999999999999,-2.0,6.0,-17.0,-2.0,-2.0,-2.0,-2.0,-2.0,-0.02423095703125,0.05462646484375,0.46435546875,0.88360595703125,-0.12353515625,0.00927734375,0.9990234375,0.1875,-0.8125,1.5625
0.05999999999999999,1.0,3.0,3.0,1.0,-1.0,-2.0,-1.0,0.0,-0.02410888671875,0.054443359375,0.46453857421875,0.88348388671875,-0.1162109375,0.00537109375,0.99609375,0.0,-1.0625,1.1875
0.06499999999999999,1.0,3.0,3.0,1.0,-1.0,-2.0,-1.0,0.0,-0.02410888671875,0.054443359375,0.46453857421875,0.88348388671875,-0.1162109375,0.00537109375,0.99609375,0.0,-1.0625,1.1875
0.06999999999999999,-2.0,0.0,1.0,-3.0,-3.0,-2.0,-2.0,-4.0,-0.02386474609375,0.0543212890625,0.4647216796875,0.8834228515625,-0.11279296875,0.00634765625,0.994140625,0.9375,-0.8125,1.25
0.075,-2.0,0.0,1.0,-3.0,-3.0,-2.0,-2.0,-4.0,-0.02386474609375,0.0543212890625,0.4647216796875,0.8834228515625,-0.11279296875,0.00634765625,0.994140625,0.9375,-0.8125,1.25
0.08,-3.0,-1.0,-9.0,-1.0,-1.0,-2.0,-1.0,-1.0,-0.02362060546875,0.05426025390625,0.46490478515625,0.88330078125,-0.11865234375,0.0078125,0.99462890625,1.0625,-1.0,1.5
0.085,-3.0,-1.0,-9.0,-1.0,-1.0,-2.0,-1.0,-1.0,-0.02362060546875,0.05426025390625,0.46490478515625,0.88330078125,-0.11865234375,0.0078125,0.99462890625,1.0625,-1.0,1.5
0.09000000000000001,-3.0,-8.0,-21.0,-6.0,-3.0,-1.0,0.0,1.0,-0.02349853515625,0.05419921875,0.46514892578125,0.88323974609375,-0.12158203125,0.009765625,0.99755859375,0.25,-0.9375,1.25
0.09500000000000001,-1.0,-12.0,7.0,5.0,0.0,0.0,-1.0,-2.0,-0.02337646484375,0.05426025390625,0.46527099609375,0.8831787109375,-0.13037109375,0.0087890625,0.99755859375,0.5625,-1.125,0.875
0.10000000000000002,-1.0,-12.0,7.0,5.0,0.0,0.0,-1.0,-2.0,-0.02294921875,0.05426025390625,0.4652099609375,0.8831787109375,-0.125,0.0107421875,0.99755859375,2.1875,-1.5,-0.0625
0.10500000000000002,0.0,-3.0,5.0,0.0,-1.0,-1.0,-1.0,-2.0,-0.02294921875,0.05426025390625,0.4652099609375,0.8831787109375,-0.125,0.0107421875,0.99755859375,2.1875,-1.5,-0.0625
0.11000000000000003,2.0,5.0,-1.0,-4.0,0.0,-1.0,-1.0,1.0,-0.0225830078125,0.05419921875,0.46514892578125,0.88323974609375,-0.12109375,0.00927734375,0.99560546875,1.875,-1.75,-0.4375
0.11500000000000003,-3.0,-8.0,7.0,-4.0,-4.0,-3.0,-1.0,-3.0,-0.0225830078125,0.05419921875,0.46514892578125,0.88323974609375,-0.12109375,0.00927734375,0.99560546875,1.875,-1.75,-0.4375
0.12000000000000004,-2.0,-4.0,-13.0,2.0,-2.0,-1.0,1.0,-1.0,-0.02215576171875,0.05419921875,0.46502685546875,0.88330078125,-0.126953125,0.005859375,1.00048828125,2.5625,-1.9375,-0.8125
0.12500000000000003,-2.0,-1.0,2.0,0.0,-1.0,-1.0,-1.0,-1.0,-0.0213623046875,0.05438232421875,0.46484375,0.8834228515625,-0.1357421875,0.00634765625,0.99755859375,4.6875,-2.5,-0.8125
0.13000000000000003,-2.0,-1.0,2.0,0.0,-1.0,-1.0,-1.0,-1.0,-0.0213623046875,0.05438232421875,0.46484375,0.8834228515625,-0.1357421875,0.00634765625,0.99755859375,4.6875,-2.5,-0.8125
0.13500000000000004,-1.0,-3.0,-4.0,-18.0,-1.0,0.0,-2.0,-2.0,-0.0213623046875,0.05438232421875,0.46484375,0.8834228515625,-0.1357421875,0.00634765625,0.99755859375,4.6875,-2.5,-0.8125
0.14000000000000004,-1.0,-3.0,-4.0,-18.0,-1.0,0.0,-2.0,-2.0,-0.0205078125,0.05426025390625,0.4644775390625,0.8836669921875,-0.115234375,0.00634765625,0.98876953125,4.8125,-3.0625,-2.4375
0.14500000000000005,-5.0,-8.0,3.0,-4.0,-1.0,-1.0,-1.0,-3.0,-0.01953125,0.053955078125,0.4639892578125,0.8839111328125,-0.103515625,0.00634765625,0.99169921875,4.8125,-3.5625,-2.75
0.15000000000000005,1.0,-3.0,8.0,-3.0,-1.0,0.0,0.0,0.0,-0.01953125,0.053955078125,0.4639892578125,0.8839111328125,-0.103515625,0.00634765625,0.99169921875,4.8125,-3.5625,-2.75
0.15500000000000005,1.0,2.0,3.0,1.0,0.0,-1.0,1.0,0.0,-0.0185546875,0.0535888671875,0.46356201171875,0.88421630859375,-0.10595703125,0.009765625,0.99462890625,4.75,-4.0625,-2.8125
0.16000000000000006,-3.0,-4.0,-20.0,-7.0,-3.0,-3.0,-1.0,-1.0,-0.0172119140625,0.05340576171875,0.46295166015625,0.88458251953125,-0.1123046875,0.0185546875,0.99951171875,6.3125,-4.6875,-3.5625
0.16500000000000006,1.0,2.0,3.0,4.0,1.0,0.0,-1.0,0.0,-0.01593017578125,0.052978515625,0.46246337890625,0.88482666015625,-0.10888671875,0.01953125,0.994140625,5.75,-5.4375,-2.875
0.17000000000000007,0.0,-2.0,11.0,17.0,0.0,-2.0,1.0,2.0,-0.01593017578125,0.052978515625,0.46246337890625,0.88482666015625,-0.10888671875,0.01953125,0.994140625,5.75,-5.4375,-2.875
0.17500000000000007,-1.0,-2.0,-3.0,-5.0,-2.0,-1.0,0.0,-1.0,-0.01593017578125,0.052978515625,0.46246337890625,0.88482666015625,-0.10888671875,0.01953125,0.994140625,5.75,-5.4375,-2.875
0.18000000000000008,-3.0,-1.0,10.0,-6.0,-1.0,-1.0,-2.0,0.0,-0.0146484375,0.05279541015625,0.46197509765625,0.8851318359375,-0.10986328125,0.02001953125,1.00146484375,6.0625,-4.6875,-3.0625
0.18500000000000008,-3.0,-7.0,-2.0,2.0,0.0,-1.0,-1.0,-2.0,-0.01361083984375,0.05255126953125,0.46148681640625,0.88543701171875,-0.111328125,0.0166015625,1.0068359375,5.5625,-4.3125,-2.75
0.19000000000000009,-3.0,-7.0,-2.0,2.0,0.0,-1.0,-1.0,-2.0,-0.01361083984375,0.05255126953125,0.46148681640625,0.88543701171875,-0.111328125,0.0166015625,1.0068359375,5.5625,-4.3125,-2.75
0.1950000000000001,-1.0,-3.0,-8.0,1.0,0.0,1.0,1.0,-1.0,-0.01361083984375,0.05255126953125,0.46148681640625,0.88543701171875,-0.111328125,0.0166015625,1.0068359375,5.5625,-4.3125,-2.75
0.2000000000000001,-1.0,-1.0,-2.0,-4.0,-2.0,0.0,1.0,-2.0,-0.01226806640625,0.0523681640625,0.4610595703125,0.88568115234375,-0.10205078125,0.01806640625,1.00244140625,7.125,-4.3125,-2.5625
0.2050000000000001,-1.0,1.0,-1.0,3.0,-1.0,-2.0,-3.0,-4.0,-0.01226806640625,0.0523681640625,0.4610595703125,0.88568115234375,-0.10205078125,0.01806640625,1.00244140625,7.125,-4.3125,-2.5625
0.2100000000000001,0.0,1.0,2.0,-2.0,0.0,-1.0,-1.0,-1.0,-0.01055908203125,0.05230712890625,0.4605712890625,0.885986328125,-0.091796875,0.03369140625,1.0029296875,8.0,-4.125,-2.75
0.2150000000000001,-1.0,1.0,-9.0,5.0,2.0,-1.0,-1.0,0.0,-0.01055908203125,0.05230712890625,0.4605712890625,0.885986328125,-0.091796875,0.03369140625,1.0029296875,8.0,-4.125,-2.75
0.2200000000000001,-2.0,-1.0,-2.0,-6.0,-1.0,-1.0,-3.0,-2.0,-0.00921630859375,0.05224609375,0.46026611328125,0.88616943359375,-0.091796875,0.02978515625,1.0087890625,7.125,-3.375,-1.75
0.22500000000000012,-1.0,-9.0,-13.0,0.0,-1.0,-1.0,-1.0,-1.0,-0.00921630859375,0.05224609375,0.46026611328125,0.88616943359375,-0.091796875,0.02978515625,1.0087890625,7.125,-3.375,-1.75
0.23000000000000012,0.0,0.0,14.0,3.0,2.0,0.0,-1.0,-1.0,-0.00836181640625,0.05218505859375,0.45989990234375,0.8863525390625,-0.0986328125,0.02734375,1.00341796875,4.5625,-2.4375,-2.1875
0.23500000000000013,0.0,4.0,19.0,1.0,-2.0,0.0,-1.0,1.0,-0.00762939453125,0.05218505859375,0.45947265625,0.8865966796875,-0.10107421875,0.02001953125,1.005859375,4.75,-1.75,-2.375
0.24000000000000013,0.0,4.0,19.0,1.0,-2.0,0.0,-1.0,1.0,-0.00762939453125,0.05218505859375,0.45947265625,0.8865966796875,-0.10107421875,0.02001953125,1.005859375,4.75,-1.75,-2.375
0.24500000000000013,0.0,1.0,-12.0,-6.0,2.0,-2.0,0.0,0.0,-0.00665283203125,0.0523681640625,0.45904541015625,0.88677978515625,-0.09326171875,0.02001953125,1.005859375,6.75,-1.3125,-2.5
0.2500000000000001,-7.0,-12.0,-2.0,-10.0,-6.0,-3.0,-4.0,-5.0,-0.00665283203125,0.0523681640625,0.45904541015625,0.88677978515625,-0.09326171875,0.02001953125,1.005859375,6.75,-1.3125,-2.5
0.2550000000000001,-1.0,0.0,-5.0,-3.0,-2.0,0.0,-2.0,0.0,-0.0054931640625,0.05291748046875,0.45855712890625,0.88702392578125,-0.0986328125,0.03857421875,0.99560546875,7.625,-0.3125,-2.4375
0.2600000000000001,1.0,1.0,5.0,3.0,-1.0,-3.0,0.0,-1.0,-0.0054931640625,0.05291748046875,0.45855712890625,0.88702392578125,-0.0986328125,0.03857421875,0.99560546875,7.625,-0.3125,-2.4375
0.2650000000000001,1.0,1.0,-2.0,-11.0,0.0,-1.0,1.0,0.0,-0.00445556640625,0.05364990234375,0.458251953125,0.88714599609375,-0.10888671875,0.05126953125,1.0078125,6.375,0.3125,-1.5625
0.27000000000000013,0.0,1.0,-4.0,1.0,-2.0,-1.0,-3.0,-2.0,-0.00347900390625,0.05426025390625,0.4580078125,0.88726806640625,-0.107421875,0.052734375,1.00341796875,6.25,0.0,-1.4375
0.27500000000000013,0.0,1.0,-4.0,1.0,-2.0,-1.0,-3.0,-2.0,-0.00347900390625,0.05426025390625,0.4580078125,0.88726806640625,-0.107421875,0.052734375,1.00341796875,6.25,0.0,-1.4375
0.28000000000000014,-1.0,4.0,-2.0,0.0,-1.0,-1.0,0.0,-2.0,-0.00347900390625,0.05426025390625,0.4580078125,0.88726806640625,-0.107421875,0.052734375,1.00341796875,6.25,0.0,-1.4375
0.28500000000000014,-3.0,0.0,-19.0,-4.0,-4.0,-3.0,-1.0,0.0,-0.00262451171875,0.05462646484375,0.45794677734375,0.88726806640625,-0.10693359375,0.0419921875,0.99560546875,5.5,-0.8125,-0.0625
0.29000000000000015,-1.0,0.0,7.0,0.0,0.0,-1.0,-1.0,-2.0,-0.00262451171875,0.05462646484375,0.45794677734375,0.88726806640625,-0.10693359375,0.0419921875,0.99560546875,5.5,-0.8125,-0.0625
0.29500000000000015,0.0,-6.0,-19.0,3.0,-1.0,-1.0,-1.0,1.0,-0.00177001953125,0.05511474609375,0.45794677734375,0.88720703125,-0.1064453125,0.033203125,1.0029296875,6.4375,-0.375,0.375
0.30000000000000016,0.0,1.0,10.0,-3.0,-2.0,-2.0,-1.0,0.0,-0.00177001953125,0.05511474609375,0.45794677734375,0.88720703125,-0.1064453125,0.033203125,1.0029296875,6.4375,-0.375,0.375
0.30500000000000016,0.0,2.0,16.0,-4.0,-2.0,-2.0,1.0,-1.0,-0.00030517578125,0.0557861328125,0.45794677734375,0.88720703125,-0.10888671875,0.03759765625,0.99462890625,10.125,-1.125,0.75
0.31000000000000016,0.0,2.0,16.0,-4.0,-2.0,-2.0,1.0,-1.0,-0.00030517578125,0.0557861328125,0.45794677734375,0.88720703125,-0.10888671875,0.03759765625,0.99462890625,10.125,-1.125,0.75
0.31500000000000017,-4.0,-12.0,18.0,1.0,-2.0,-1.0,-4.0,-2.0,0.00140380859375,0.056396484375,0.45794677734375,0.88714599609375,-0.0986328125,0.0419921875,0.99658203125,11.125,-1.25,0.875
0.3200000000000002,-3.0,2.0,-5.0,0.0,-2.0,1.0,-2.0,-2.0,0.00140380859375,0.056396484375,0.45794677734375,0.88714599609375,-0.0986328125,0.0419921875,0.99658203125,11.125,-1.25,0.875
0.3250000000000002,-3.0,2.0,-5.0,0.0,-2.0,1.0,-2.0,-2.0,0.00341796875,0.05706787109375,0.45806884765625,0.88702392578125,-0.10009765625,0.06201171875,0.99853515625,11.6875,-1.9375,1.375
0.3300000000000002,2.0,6.0,-7.0,-1.0,-2.0,-3.0,0.0,-1.0,0.00341796875,0.05706787109375,0.45806884765625,0.88702392578125,-0.10009765625,0.06201171875,0.99853515625,11.6875,-1.9375,1.375
0.3350000000000002,2.0,6.0,-7.0,-1.0,-2.0,-3.0,0.0,-1.0,0.00341796875,0.05706787109375,0.45806884765625,0.88702392578125,-0.10009765625,0.06201171875,0.99853515625,11.6875,-1.9375,1.375
0.3400000000000002,3.0,6.0,4.0,-3.0,0.0,0.0,-2.0,-1.0,0.00531005859375,0.0574951171875,0.4583740234375,0.8868408203125,-0.10107421875,0.0615234375,0.99169921875,10.625,-3.125,2.8125
0.3450000000000002,0.0,-10.0,-30.0,-28.0,-5.0,-2.0,0.0,0.0,0.00531005859375,0.0574951171875,0.4583740234375,0.8868408203125,-0.10107421875,0.0615234375,0.99169921875,10.625,-3.125,2.8125
0.3500000000000002,-3.0,0.0,-7.0,41.0,6.0,-1.0,-1.0,-3.0,0.00726318359375,0.0576171875,0.458740234375,0.88665771484375,-0.0849609375,0.06298828125,0.998046875,10.0625,-3.6875,2.75
0.3550000000000002,-3.0,0.0,-7.0,41.0,6.0,-1.0,-1.0,-3.0,0.00726318359375,0.0576171875,0.458740234375,0.88665771484375,-0.0849609375,0.06298828125,0.998046875,10.0625,-3.6875,2.75
0.3600000000000002,-3.0,5.0,18.0,-24.0,-4.0,-2.0,-2.0,-4.0,0.00946044921875,0.0576171875,0.4591064453125,0.88641357421875,-0.0859375,0.06396484375,0.99267578125,11.375,-5.1875,3.375
0.3650000000000002,0.0,7.0,-4.0,-10.0,-5.0,-1.0,-1.0,-2.0,0.00946044921875,0.0576171875,0.4591064453125,0.88641357421875,-0.0859375,0.06396484375,0.99267578125,11.375,-5.1875,3.375
0.3700000000000002,-7.0,-8.0,-7.0,-4.0,-3.0,-2.0,-2.0,-2.0,0.011474609375,0.0576171875,0.459716796875,0.88604736328125,-0.08349609375,0.0703125,1.00732421875,10.1875,-4.5,4.5
0.3750000000000002,3.0,12.0,8.0,6.0,3.0,1.0,1.0,2.0,0.011474609375,0.0576171875,0.459716796875,0.88604736328125,-0.08349609375,0.0703125,1.00732421875,10.1875,-4.5,4.5
0.3800000000000002,3.0,12.0,8.0,6.0,3.0,1.0,1.0,2.0,0.01324462890625,0.057861328125,0.46026611328125,0.8857421875,-0.09423828125,0.064453125,1.00048828125,10.5,-3.5625,4.25
0.38500000000000023,1.0,7.0,-14.0,-5.0,-2.0,-2.0,2.0,0.0,0.01324462890625,0.057861328125,0.46026611328125,0.8857421875,-0.09423828125,0.064453125,1.00048828125,10.5,-3.5625,4.25
0.39000000000000024,2.0,2.0,32.0,-1.0,2.0,1.0,1.0,-4.0,0.0150146484375,0.0584716796875,0.46087646484375,0.8853759765625,-0.09130859375,0.07177734375,1.00244140625,10.9375,-1.5625,4.4375
0.39500000000000024,2.0,2.0,32.0,-1.0,2.0,1.0,1.0,-4.0,0.0150146484375,0.0584716796875,0.46087646484375,0.8853759765625,-0.09130859375,0.07177734375,1.00244140625,10.9375,-1.5625,4.4375
0.40000000000000024,0.0,6.0,-13.0,13.0,3.0,0.0,2.0,0.0,0.01690673828125,0.05914306640625,0.46136474609375,0.885009765625,-0.0908203125,0.083984375,0.99853515625,11.3125,-1.25,4.0625
0.40500000000000025,0.0,6.0,-13.0,13.0,3.0,0.0,2.0,0.0,0.01690673828125,0.05914306640625,0.46136474609375,0.885009765625,-0.0908203125,0.083984375,0.99853515625,11.3125,-1.25,4.0625
0.41000000000000025,-2.0,-2.0,-9.0,-2.0,-4.0,-2.0,-3.0,-3.0,0.01873779296875,0.0596923828125,0.46185302734375,0.88470458984375,-0.07861328125,0.09765625,0.99560546875,10.0,-1.3125,4.0
0.41500000000000026,-4.0,3.0,7.0,-3.0,-3.0,-1.0,-3.0,-2.0,0.01873779296875,0.0596923828125,0.46185302734375,0.88470458984375,-0.07861328125,0.09765625,0.99560546875,10.0,-1.3125,4.0
0.42000000000000026,-4.0,3.0,7.0,-3.0,-3.0,-1.0,-3.0,-2.0,0.02020263671875,0.06024169921875,0.4625244140625,0.88427734375,-0.08447265625,0.10595703125,0.99365234375,7.625,-0.9375,4.5625
0.42500000000000027,4.0,2.0,9.0,5.0,3.0,1.0,-1.0,-3.0,0.02020263671875,0.06024169921875,0.4625244140625,0.88427734375,-0.08447265625,0.10595703125,0.99365234375,7.625,-0.9375,4.5625
0.43000000000000027,4.0,2.0,9.0,5.0,3.0,1.0,-1.0,-3.0,0.021484375,0.060546875,0.463134765625,0.8839111328125,-0.07666015625,0.12353515625,0.99853515625,5.0,-0.875,4.25
0.4350000000000003,-2.0,-5.0,6.0,2.0,0.0,-2.0,-2.0,1.0,0.021484375,0.060546875,0.463134765625,0.8839111328125,-0.07666015625,0.12353515625,0.99853515625,5.0,-0.875,4.25
0.4400000000000003,-1.0,-7.0,-19.0,1.0,-2.0,-2.0,-1.0,0.0,0.02203369140625,0.06048583984375,0.46368408203125,0.88360595703125,-0.06884765625,0.10107421875,0.99462890625,1.9375,-0.25,3.6875
0.4450000000000003,-2.0,-3.0,13.0,-8.0,-3.0,0.0,-2.0,-2.0,0.02203369140625,0.06036376953125,0.46417236328125,0.88336181640625,-0.0693359375,0.09814453125,1.001953125,-0.4375,0.8125,3.0
0.4500000000000003,3.0,11.0,40.0,2.0,1.0,1.0,0.0,2.0,0.02203369140625,0.06036376953125,0.46417236328125,0.88336181640625,-0.0693359375,0.09814453125,1.001953125,-0.4375,0.8125,3.0
0.4550000000000003,3.0,11.0,40.0,2.0,1.0,1.0,0.0,2.0,0.02203369140625,0.06036376953125,0.46417236328125,0.88336181640625,-0.0693359375,0.09814453125,1.001953125,-0.4375,0.8125,3.0
0.4600000000000003,-2.0,-2.0,4.0,-6.0,-4.0,-3.0,-2.0,-3.0,0.02197265625,0.060791015625,0.46466064453125,0.883056640625,-0.0888671875,0.10546875,1.0048828125,-0.1875,2.375,3.0625
0.4650000000000003,2.0,-3.0,-6.0,8.0,3.0,-1.0,-2.0,0.0,0.021728515625,0.0614013671875,0.4649658203125,0.88287353515625,-0.10009765625,0.099609375,0.99560546875,-0.125,2.9375,1.9375
0.4700000000000003,0.0,4.0,10.0,1.0,0.0,-1.0,-4.0,0.0,0.021728515625,0.0614013671875,0.4649658203125,0.88287353515625,-0.10009765625,0.099609375,0.99560546875,-0.125,2.9375,1.9375
0.4750000000000003,-2.0,0.0,-9.0,1.0,-3.0,-1.0,-2.0,-1.0,0.02142333984375,0.06195068359375,0.46533203125,0.8826904296875,-0.09912109375,0.1123046875,0.99560546875,-1.3125,3.1875,1.875
0.4800000000000003,-1.0,-3.0,-5.0,2.0,1.0,-1.0,-1.0,-2.0,0.02142333984375,0.06195068359375,0.46533203125,0.8826904296875,-0.09912109375,0.1123046875,0.99560546875,-1.3125,3.1875,1.875
0.4850000000000003,-4.0,-6.0,-2.0,-9.0,-1.0,0.0,0.0,-2.0,0.02044677734375,0.06219482421875,0.465576171875,0.88250732421875,-0.0986328125,0.10107421875,0.99755859375,-4.625,3.375,1.4375
0.4900000000000003,-2.0,0.0,9.0,2.0,-2.0,-1.0,-1.0,0.0,0.02044677734375,0.06219482421875,0.465576171875,0.88250732421875,-0.0986328125,0.10107421875,0.99755859375,-4.625,3.375,1.4375
0.49500000000000033,0.0,-7.0,-8.0,-11.0,-4.0,-1.0,0.0,1.0,0.019287109375,0.0623779296875,0.46575927734375,0.8824462890625,-0.1005859375,0.09619140625,0.99609375,-5.875,3.4375,0.625
0.5000000000000003,0.0,-7.0,-8.0,-11.0,-4.0,-1.0,0.0,1.0,0.019287109375,0.0623779296875,0.46575927734375,0.8824462890625,-0.1005859375,0.09619140625,0.99609375,-5.875,3.4375,0.625
0.5050000000000003,1.0,-6.0,-9.0,16.0,3.0,1.0,-2.0,1.0,0.019287109375,0.0623779296875,0.46575927734375,0.8824462890625,-0.1005859375,0.09619140625,0.99609375,-5.875,3.4375,0.625
0.5100000000000003,-1.0,8.0,20.0,-2.0,-3.0,-2.0,-2.0,-2.0,0.01812744140625,0.06243896484375,0.4659423828125,0.88238525390625,-0.09814453125,0.0908203125,0.994140625,-5.8125,2.875,0.625
0.5150000000000003,3.0,1.0,2.0,0.0,0.0,-1.0,1.0,1.0,0.01708984375,0.062255859375,0.46600341796875,0.88238525390625,-0.09375,0.07958984375,1.0,-5.1875,2.0625,0.0
0.5200000000000004,-1.0,6.0,21.0,1.0,1.0,0.0,1.0,-2.0,0.01708984375,0.062255859375,0.46600341796875,0.88238525390625,-0.09375,0.07958984375,1.0,-5.1875,2.0625,0.0
0.5250000000000004,-1.0,3.0,-18.0,-3.0,-1.0,-2.0,-1.0,-2.0,0.01629638671875,0.06207275390625,0.466064453125,0.88238525390625,-0.0869140625,0.08642578125,0.986328125,-4.625,1.5,0.0625
0.5300000000000004,-1.0,3.0,-18.0,-3.0,-1.0,-2.0,-1.0,-2.0,0.01629638671875,0.06207275390625,0.466064453125,0.88238525390625,-0.0869140625,0.08642578125,0.986328125,-4.625,1.5,0.0625
0.5350000000000004,-1.0,1.0,2.0,-7.0,-1.0,-1.0,-3.0,-2.0,0.01580810546875,0.06195068359375,0.46630859375,0.88226318359375,-0.09033203125,0.0810546875,0.99462890625,-2.75,1.1875,1.1875
0.5400000000000004,-1.0,-8.0,-19.0,2.0,1.0,2.0,-2.0,0.0,0.0152587890625,0.061767578125,0.46649169921875,0.8822021484375,-0.095703125,0.083984375,0.99072265625,-3.1875,0.625,1.125
0.5450000000000004,-1.0,-8.0,-19.0,2.0,1.0,2.0,-2.0,0.0,0.0152587890625,0.061767578125,0.46649169921875,0.8822021484375,-0.095703125,0.083984375,0.99072265625,-3.1875,0.625,1.125
0.5500000000000004,2.0,2.0,17.0,-1.0,4.0,1.0,2.0,1.0,0.0152587890625,0.061767578125,0.46649169921875,0.8822021484375,-0.095703125,0.083984375,0.99072265625,-3.1875,0.625,1.125
0.5550000000000004,2.0,2.0,17.0,-1.0,4.0,1.0,2.0,1.0,0.01458740234375,0.06146240234375,0.46673583984375,0.882080078125,-0.095703125,0.08349609375,1.00341796875,-4.125,0.1875,1.1875
0.5600000000000004,-1.0,-6.0,11.0,-1.0,-2.0,-1.0,-1.0,-1.0,0.0140380859375,0.06121826171875,0.4669189453125,0.88201904296875,-0.0986328125,0.0771484375,0.99560546875,-3.3125,0.0625,0.9375
0.5650000000000004,-2.0,-8.0,-26.0,1.0,0.0,-1.0,1.0,0.0,0.0140380859375,0.06121826171875,0.4669189453125,0.88201904296875,-0.0986328125,0.0771484375,0.99560546875,-3.3125,0.0625,0.9375
0.5700000000000004,-2.0,-8.0,-26.0,1.0,0.0,-1.0,1.0,0.0,0.0140380859375,0.06121826171875,0.4669189453125,0.88201904296875,-0.0986328125,0.0771484375,0.99560546875,-3.3125,0.0625,0.9375
0.5750000000000004,-3.0,2.0,10.0,2.0,-2.0,-1.0,-3.0,-5.0,0.01324462890625,0.06109619140625,0.46710205078125,0.8819580078125,-0.1005859375,0.0712890625,0.99755859375,-3.6875,1.125,1.125
0.5800000000000004,-3.0,2.0,10.0,2.0,-2.0,-1.0,-3.0,-5.0,0.01324462890625,0.06109619140625,0.46710205078125,0.8819580078125,-0.1005859375,0.0712890625,0.99755859375,-3.6875,1.125,1.125
0.5850000000000004,0.0,1.0,4.0,-13.0,-4.0,-1.0,-2.0,0.0,0.0126953125,0.06103515625,0.46728515625,0.8818359375,-0.1044921875,0.07763671875,1.0029296875,-2.9375,0.625,1.125
0.5900000000000004,-1.0,-11.0,-11.0,0.0,-2.0,-1.0,0.0,0.0,0.01214599609375,0.060791015625,0.467529296875,0.88177490234375,-0.09375,0.078125,1.00146484375,-3.5625,0.4375,1.125
0.5950000000000004,-1.0,-5.0,-1.0,-3.0,-4.0,-3.0,-2.0,-2.0,0.01214599609375,0.060791015625,0.467529296875,0.88177490234375,-0.09375,0.078125,1.00146484375,-3.5625,0.4375,1.125
0.6000000000000004,-2.0,4.0,-2.0,4.0,0.0,-2.0,-1.0,1.0,0.0115966796875,0.060546875,0.4677734375,0.88165283203125,-0.09326171875,0.07373046875,0.99609375,-3.3125,0.4375,1.5
0.6050000000000004,0.0,0.0,-1.0,3.0,0.0,0.0,-2.0,-1.0,0.0115966796875,0.060546875,0.4677734375,0.88165283203125,-0.09326171875,0.07373046875,0.99609375,-3.3125,0.4375,1.5
0.6100000000000004,1.0,1.0,-17.0,0.0,3.0,1.0,0.0,-2.0,0.01080322265625,0.0601806640625,0.46807861328125,0.88153076171875,-0.08544921875,0.07470703125,1.00146484375,-4.8125,1.25,1.25
0.6150000000000004,-1.0,-6.0,1.0,3.0,0.0,-1.0,-2.0,1.0,0.01025390625,0.05999755859375,0.4683837890625,0.88134765625,-0.08056640625,0.0703125,1.00048828125,-3.375,1.6875,1.8125
0.6200000000000004,-1.0,-5.0,6.0,2.0,0.0,0.0,-1.0,-1.0,0.00970458984375,0.05999755859375,0.46881103515625,0.88116455078125,-0.083984375,0.0732421875,0.99658203125,-3.0,2.4375,2.375
0.6250000000000004,-2.0,-4.0,-8.0,-2.0,-3.0,-3.0,-1.0,-5.0,0.00970458984375,0.05999755859375,0.46881103515625,0.88116455078125,-0.083984375,0.0732421875,0.99658203125,-3.0,2.4375,2.375
0.6300000000000004,-4.0,-10.0,-15.0,-7.0,0.0,-1.0,-1.0,-1.0,0.00970458984375,0.05999755859375,0.46881103515625,0.88116455078125,-0.083984375,0.0732421875,0.99658203125,-3.0,2.4375,2.375
0.6350000000000005,-2.0,6.0,13.0,-5.0,-3.0,-2.0,1.0,-4.0,0.00909423828125,0.06011962890625,0.46917724609375,0.8809814453125,-0.0927734375,0.07177734375,1.00390625,-2.6875,2.9375,2.1875
0.6400000000000005,-2.0,6.0,13.0,-5.0,-3.0,-2.0,1.0,-4.0,0.00909423828125,0.06011962890625,0.46917724609375,0.8809814453125,-0.0927734375,0.07177734375,1.00390625,-2.6875,2.9375,2.1875
0.6450000000000005,0.0,-2.0,-7.0,-12.0,-2.0,0.0,2.0,-1.0,0.008544921875,0.0604248046875,0.46966552734375,0.88067626953125,-0.09521484375,0.0771484375,0.99462890625,-2.5,3.125,2.875
0.6500000000000005,0.0,-2.0,-7.0,-12.0,-2.0,0.0,2.0,-1.0,0.007568359375,0.06048583984375,0.47015380859375,0.88043212890625,-0.0966796875,0.06298828125,0.99658203125,-4.5625,3.25,2.6875
0.6550000000000005,2.0,2.0,33.0,3.0,0.0,1.0,0.0,1.0,0.007568359375,0.06048583984375,0.47015380859375,0.88043212890625,-0.0966796875,0.06298828125,0.99658203125,-4.5625,3.25,2.6875
0.6600000000000005,0.0,4.0,-12.0,5.0,0.0,-1.0,-1.0,1.0,0.007568359375,0.06048583984375,0.47015380859375,0.88043212890625,-0.0966796875,0.06298828125,0.99658203125,-4.5625,3.25,2.6875
0.6650000000000005,0.0,3.0,-3.0,-2.0,-1.0,-2.0,-2.0,0.0,0.00567626953125,0.060791015625,0.4705810546875,0.88018798828125,-0.10546875,0.05859375,0.98828125,-3.125,2.8125,0.375
0.6700000000000005,-2.0,2.0,-27.0,4.0,-2.0,0.0,-2.0,-2.0,0.00567626953125,0.060791015625,0.4705810546875,0.88018798828125,-0.10546875,0.05859375,0.98828125,-3.125,2.8125,0.375
0.6750000000000005,-2.0,2.0,-27.0,4.0,-2.0,0.0,-2.0,-2.0,0.00518798828125,0.06103515625,0.47052001953125,0.88018798828125,-0.1103515625,0.06689453125,0.98779296875,-2.0625,2.0,-0.25
0.6800000000000005,-3.0,0.0,6.0,3.0,0.0,-2.0,-2.0,-1.0,0.00518798828125,0.06103515625,0.47052001953125,0.88018798828125,-0.1103515625,0.06689453125,0.98779296875,-2.0625,2.0,-0.25
0.6850000000000005,0.0,-3.0,7.0,7.0,-1.0,0.0,-2.0,-3.0,0.004638671875,0.06109619140625,0.4705810546875,0.88018798828125,-0.1142578125,0.0634765625,0.9912109375,-2.4375,0.8125,0.0625
0.6900000000000005,2.0,3.0,-14.0,5.0,1.0,-2.0,-1.0,0.0,0.004638671875,0.06109619140625,0.4705810546875,0.88018798828125,-0.1142578125,0.0634765625,0.9912109375,-2.4375,0.8125,0.0625
0.6950000000000005,0.0,5.0,3.0,-2.0,-3.0,-1.0,-2.0,0.0,0.004638671875,0.06109619140625,0.4705810546875,0.88018798828125,-0.11767578125,0.06640625,0.99609375,-0.375,0.4375,-0.8125
0.7000000000000005,0.0,5.0,3.0,-2.0,-3.0,-1.0,-2.0,0.0,0.004638671875,0.06109619140625,0.4705810546875,0.88018798828125,-0.11767578125,0.06640625,0.99609375,-0.375,0.4375,-0.8125
0.7050000000000005,1.0,1.0,1.0,2.0,0.0,1.0,-3.0,-2.0,0.004638671875,0.06109619140625,0.4705810546875,0.88018798828125,-0.11767578125,0.06640625,0.99609375,-0.375,0.4375,-0.8125
0.7100000000000005,1.0,-1.0,-5.0,22.0,6.0,-1.0,-2.0,0.0,0.00457763671875,0.06121826171875,0.47039794921875,0.8802490234375,-0.12060546875,0.06689453125,0.9970703125,0.125,-0.4375,-1.125
0.7150000000000005,-1.0,-6.0,17.0,-8.0,-5.0,-3.0,-1.0,1.0,0.00457763671875,0.06121826171875,0.47039794921875,0.8802490234375,-0.12060546875,0.06689453125,0.9970703125,0.125,-0.4375,-1.125
0.7200000000000005,-2.0,-4.0,-2.0,-8.0,1.0,0.0,2.0,0.0,0.00433349609375,0.0611572265625,0.47021484375,0.88037109375,-0.1181640625,0.06396484375,0.99609375,-1.4375,-0.9375,-1.3125
0.7250000000000005,-2.0,-4.0,-2.0,-8.0,1.0,0.0,2.0,0.0,0.00433349609375,0.0611572265625,0.47021484375,0.88037109375,-0.1181640625,0.06396484375,0.99609375,-1.4375,-0.9375,-1.3125
0.7300000000000005,-3.0,-14.0,-37.0,1.0,1.0,-2.0,-2.0,-2.0,0.00408935546875,0.0609130859375,0.46990966796875,0.88055419921875,-0.10693359375,0.0556640625,1.0,-1.125,-0.6875,-1.75
0.7350000000000005,-3.0,-14.0,-37.0,1.0,1.0,-2.0,-2.0,-2.0,0.00408935546875,0.0609130859375,0.46990966796875,0.88055419921875,-0.10693359375,0.0556640625,1.0,-1.125,-0.6875,-1.75
0.7400000000000005,0.0,-5.0,5.0,-2.0,-2.0,-2.0,-1.0,-3.0,0.00408935546875,0.06072998046875,0.46966552734375,0.88067626953125,-0.09375,0.0517578125,1.00244140625,0.625,-0.1875,-1.625
0.7450000000000006,0.0,4.0,-1.0,-1.0,-2.0,-3.0,-2.0,-1.0,0.00408935546875,0.06072998046875,0.46966552734375,0.88067626953125,-0.09375,0.0517578125,1.00244140625,0.625,-0.1875,-1.625
0.7500000000000006,0.0,4.0,-1.0,-1.0,-2.0,-3.0,-2.0,-1.0,0.00408935546875,0.06072998046875,0.46966552734375,0.88067626953125,-0.09375,0.0517578125,1.00244140625,0.625,-0.1875,-1.625
0.7550000000000006,-3.0,-3.0,-13.0,-10.0,-5.0,0.0,0.0,-3.0,0.00433349609375,0.06072998046875,0.469482421875,0.88079833984375,-0.0908203125,0.0654296875,0.9970703125,1.25,0.1875,-1.3125
0.7600000000000006,-2.0,-4.0,-4.0,-4.0,-3.0,-1.0,0.0,0.0,0.00439453125,0.060791015625,0.469482421875,0.88079833984375,-0.107421875,0.072265625,1.0,-0.25,0.9375,-0.9375
0.7650000000000006,0.0,3.0,18.0,-3.0,-3.0,-1.0,-3.0,-2.0,0.004150390625,0.06109619140625,0.4693603515625,0.880859375,-0.1162109375,0.072265625,1.0029296875,-0.875,1.25,-0.9375
0.7700000000000006,0.0,3.0,18.0,-3.0,-3.0,-1.0,-3.0,-2.0,0.004150390625,0.06109619140625,0.4693603515625,0.880859375,-0.1162109375,0.072265625,1.0029296875,-0.875,1.25,-0.9375
0.7750000000000006,0.0,3.0,18.0,-3.0,-3.0,-1.0,-3.0,-2.0,0.004150390625,0.06109619140625,0.4693603515625,0.880859375,-0.1162109375,0.072265625,1.0029296875,-0.875,1.25,-0.9375
0.7800000000000006,-1.0,-1.0,4.0,-2.0,-3.0,2.0,1.0,0.0,0.00390625,0.0614013671875,0.46917724609375,0.88092041015625,-0.119140625,0.06640625,0.9970703125,-0.5,1.25,-1.0625
0.7850000000000006,-2.0,-1.0,-9.0,1.0,-5.0,-1.0,-1.0,-3.0,0.0035400390625,0.0616455078125,0.468994140625,0.8809814453125,-0.11669921875,0.0625,0.99755859375,-0.875,1.1875,-1.1875
0.7900000000000006,-4.0,-9.0,-8.0,4.0,2.0,0.0,0.0,-2.0,0.0035400390625,0.0616455078125,0.468994140625,0.8809814453125,-0.11669921875,0.0625,0.99755859375,-0.875,1.1875,-1.1875
0.7950000000000006,-1.0,1.0,3.0,-1.0,-2.0,-1.0,0.0,-1.0,0.00323486328125,0.061767578125,0.46875,0.881103515625,-0.11669921875,0.064453125,0.99853515625,-1.25,0.875,-1.5625
0.8000000000000006,-1.0,1.0,3.0,-1.0,-2.0,-1.0,0.0,-1.0,0.00323486328125,0.061767578125,0.46875,0.881103515625,-0.11669921875,0.064453125,0.99853515625,-1.25,0.875,-1.5625
0.8050000000000006,2.0,3.0,3.0,-7.0,-5.0,0.0,0.0,0.0,0.00311279296875,0.061767578125,0.46856689453125,0.8812255859375,-0.11083984375,0.07275390625,0.9970703125,-1.25,-0.1875,-1.375
0.8100000000000006,0.0,-1.0,5.0,-4.0,0.0,1.0,-1.0,-1.0,0.00286865234375,0.0615234375,0.4683837890625,0.88128662109375,-0.10498046875,0.06298828125,0.99072265625,-1.75,-0.625,-1.1875
0.8150000000000006,1.0,0.0,-3.0,-9.0,-2.0,-3.0,-2.0,0.0,0.00286865234375,0.0615234375,0.4683837890625,0.88128662109375,-0.10498046875,0.06298828125,0.99072265625,-1.75,-0.625,-1.1875
0.8200000000000006,0.0,3.0,-9.0,1.0,-1.0,0.0,0.0,1.0,0.00286865234375,0.0615234375,0.4683837890625,0.88128662109375,-0.10498046875,0.06298828125,0.99072265625,-1.75,-0.625,-1.1875
0.8250000000000006,-5.0,-10.0,-26.0,-7.0,-7.0,-2.0,-4.0,-4.0,0.0025634765625,0.061279296875,0.46820068359375,0.88140869140625,-0.11083984375,0.056640625,0.9931640625,-2.0625,-0.6875,-1.375
0.8300000000000006,0.0,-2.0,9.0,6.0,4.0,-2.0,-1.0,-1.0,0.0025634765625,0.061279296875,0.46820068359375,0.88140869140625,-0.11083984375,0.056640625,0.9931640625,-2.0625,-0.6875,-1.375
0.8350000000000006,0.0,-1.0,-1.0,-10.0,0.0,0.0,1.0,0.0,0.00238037109375,0.06103515625,0.46807861328125,0.88153076171875,-0.10986328125,0.0576171875,0.99609375,-1.0625,-1.1875,-0.8125
0.8400000000000006,-2.0,-3.0,2.0,6.0,2.0,0.0,0.0,-2.0,0.0023193359375,0.0606689453125,0.46807861328125,0.88153076171875,-0.10595703125,0.0498046875,0.98681640625,-0.75,-1.9375,-0.125
0.8450000000000006,0.0,-12.0,-5.0,-4.0,-1.0,-2.0,-1.0,-1.0,0.0025634765625,0.06036376953125,0.468017578125,0.881591796875,-0.10400390625,0.05615234375,0.9990234375,0.6875,-2.125,-0.5
0.8500000000000006,0.0,3.0,-1.0,2.0,-1.0,-1.0,-2.0,0.0,0.0025634765625,0.06036376953125,0.468017578125,0.881591796875,-0.10400390625,0.05615234375,0.9990234375,0.6875,-2.125,-0.5
0.8550000000000006,-1.0,-5.0,0.0,-4.0,-1.0,0.0,0.0,-2.0,0.002685546875,0.05999755859375,0.46795654296875,0.88165283203125,-0.10302734375,0.0537109375,1.0029296875,0.3125,-1.9375,-0.5625
0.8600000000000007,-1.0,4.0,8.0,14.0,5.0,0.0,1.0,0.0,0.002685546875,0.0596923828125,0.468017578125,0.88165283203125,-0.10107421875,0.05126953125,0.9951171875,-0.3125,-1.375,0.5625
0.8650000000000007,-1.0,4.0,8.0,14.0,5.0,0.0,1.0,0.0,0.002685546875,0.0596923828125,0.468017578125,0.88165283203125,-0.10107421875,0.05126953125,0.9951171875,-0.3125,-1.375,0.5625
0.8700000000000007,2.0,3.0,0.0,-6.0,-4.0,0.0,-2.0,-1.0,0.002685546875,0.0596923828125,0.468017578125,0.88165283203125,-0.10107421875,0.05126953125,0.9951171875,-0.3125,-1.375,0.5625
0.8750000000000007,-2.0,0.0,-10.0,4.0,1.0,-1.0,-1.0,0.0,0.002685546875,0.0594482421875,0.46820068359375,0.881591796875,-0.10546875,0.052734375,0.99462890625,-0.3125,-1.625,1.25
0.8800000000000007,0.0,0.0,14.0,-1.0,-2.0,-3.0,0.0,-1.0,0.00274658203125,0.0592041015625,0.4683837890625,0.8814697265625,-0.103515625,0.04833984375,0.9931640625,0.375,-1.5,1.125
0.8850000000000007,0.0,5.0,-1.0,0.0,0.0,1.0,-2.0,0.0,0.003173828125,0.05908203125,0.46844482421875,0.8814697265625,-0.10009765625,0.05712890625,0.994140625,2.25,-1.6875,0.625
0.8900000000000007,0.0,5.0,-1.0,0.0,0.0,1.0,-2.0,0.0,0.003173828125,0.05908203125,0.46844482421875,0.8814697265625,-0.10009765625,0.05712890625,0.994140625,2.25,-1.6875,0.625
0.8950000000000007,-3.0,-2.0,-2.0,0.0,-1.0,0.0,0.0,-1.0,0.00384521484375,0.05908203125,0.468505859375,0.88140869140625,-0.09619140625,0.05859375,0.99609375,3.3125,-1.625,0.75
0.9000000000000007,-3.0,1.0,16.0,-6.0,-4.0,-3.0,-2.0,-3.0,0.00384521484375,0.05908203125,0.468505859375,0.88140869140625,-0.09619140625,0.05859375,0.99609375,3.3125,-1.625,0.75
0.9050000000000007,-3.0,1.0,16.0,-6.0,-4.0,-3.0,-2.0,-3.0,0.00384521484375,0.05908203125,0.468505859375,0.88140869140625,-0.09619140625,0.05859375,0.99609375,3.3125,-1.625,0.75
0.9100000000000007,-2.0,0.0,6.0,-5.0,-4.0,-2.0,-2.0,-1.0,0.0047607421875,0.058837890625,0.46875,0.88128662109375,-0.1005859375,0.06689453125,0.99951171875,0.625,-1.6875,0.6875
0.9150000000000007,1.0,0.0,2.0,6.0,4.0,0.0,-1.0,1.0,0.0047607421875,0.058837890625,0.46875,0.88128662109375,-0.1005859375,0.06689453125,0.99951171875,0.625,-1.6875,0.6875
0.9200000000000007,1.0,2.0,-1.0,7.0,3.0,0.0,1.0,-1.0,0.00506591796875,0.05877685546875,0.46881103515625,0.88128662109375,-0.1044921875,0.0703125,1.0009765625,0.75,-1.5625,0.625
0.9250000000000007,0.0,6.0,21.0,-2.0,-2.0,0.0,-3.0,1.0,0.00518798828125,0.05853271484375,0.4688720703125,0.88128662109375,-0.09814453125,0.06103515625,0.998046875,0.5,-1.4375,0.25
0.9300000000000007,0.0,6.0,21.0,-2.0,-2.0,0.0,-3.0,1.0,0.00518798828125,0.05853271484375,0.4688720703125,0.88128662109375,-0.09814453125,0.06103515625,0.998046875,0.5,-1.4375,0.25
0.9350000000000007,-1.0,-5.0,-16.0,-4.0,-1.0,-2.0,0.0,-2.0,0.00555419921875,0.058349609375,0.4688720703125,0.88128662109375,-0.09228515625,0.06103515625,1.0,1.3125,-1.5,0.125
0.9400000000000007,-2.0,-3.0,-7.0,2.0,0.0,0.0,-1.0,-1.0,0.00555419921875,0.058349609375,0.4688720703125,0.88128662109375,-0.09228515625,0.06103515625,1.0,1.3125,-1.5,0.125
0.9450000000000007,-2.0,-1.0,-1.0,1.0,-1.0,-2.0,-1.0,0.0,0.00555419921875,0.058349609375,0.4688720703125,0.88128662109375,-0.09228515625,0.06103515625,1.0,1.3125,-1.5,0.125
0.9500000000000007,-1.0,-1.0,-5.0,3.0,0.0,-3.0,-4.0,-1.0,0.0059814453125,0.0582275390625,0.4688720703125,0.88128662109375,-0.09619140625,0.06787109375,1.00048828125,1.75,-1.5625,-0.1875
0.9550000000000007,-1.0,-1.0,3.0,-15.0,-1.0,-2.0,0.0,0.0,0.0059814453125,0.0582275390625,0.4688720703125,0.88128662109375,-0.09619140625,0.06787109375,1.00048828125,1.75,-1.5625,-0.1875
0.9600000000000007,-1.0,-1.0,-12.0,-1.0,-4.0,-4.0,1.0,-3.0,0.00634765625,0.05816650390625,0.4688720703125,0.88128662109375,-0.10107421875,0.07275390625,1.0068359375,1.25,-1.8125,0.125
0.9650000000000007,2.0,7.0,11.0,-3.0,-1.0,1.0,-1.0,-2.0,0.00634765625,0.05816650390625,0.4688720703125,0.88128662109375,-0.10107421875,0.07275390625,1.0068359375,1.25,-1.8125,0.125
0.9700000000000008,-1.0,5.0,-6.0,6.0,2.0,0.0,-1.0,0.0,0.0064697265625,0.0579833984375,0.46893310546875,0.88128662109375,-0.10400390625,0.06298828125,0.9951171875,0.3125,-1.75,0.375
0.9750000000000008,-1.0,5.0,-6.0,6.0,2.0,0.0,-1.0,0.0,0.0064697265625,0.0579833984375,0.46893310546875,0.88128662109375,-0.10400390625,0.06298828125,0.9951171875,0.3125,-1.75,0.375
0.9800000000000008,-2.0,-2.0,0.0,2.0,-1.0,-1.0,-1.0,-1.0,0.00665283203125,0.057861328125,0.468994140625,0.8812255859375,-0.09912109375,0.0546875,1.00341796875,1.4375,-1.375,0.625
0.9850000000000008,-2.0,0.0,-2.0,2.0,0.0,-2.0,0.0,-1.0,0.00665283203125,0.057861328125,0.468994140625,0.8812255859375,-0.09912109375,0.0546875,1.00341796875,1.4375,-1.375,0.625
0.9900000000000008,-3.0,-4.0,-17.0,-7.0,-3.0,-2.0,0.0,-1.0,0.007080078125,0.057861328125,0.46905517578125,0.88116455078125,-0.103515625,0.06103515625,0.9970703125,2.4375,-1.875,0.8125
0.9950000000000008,-1.0,-4.0,-2.0,5.0,2.0,0.0,0.0,0.0,0.00750732421875,0.0576171875,0.46917724609375,0.88116455078125,-0.09326171875,0.0634765625,0.99609375,1.75,-2.0625,0.625
1.0000000000000007,-2.0,0.0,2.0,-4.0,-4.0,-3.0,-2.0,-2.0,0.00750732421875,0.0576171875,0.46917724609375,0.88116455078125,-0.09326171875,0.0634765625,0.99609375,1.75,-2.0625,0.625
1.0050000000000006,-2.0,0.0,2.0,-4.0,-4.0,-3.0,-2.0,-2.0,0.00750732421875,0.0576171875,0.46917724609375,0.88116455078125,-0.09326171875,0.0634765625,0.99609375,1.75,-2.0625,0.625
1.0100000000000005,2.0,-1.0,1.0,-13.0,-1.0,0.0,-2.0,2.0,0.0079345703125,0.057373046875,0.4693603515625,0.88104248046875,-0.087890625,0.05908203125,0.99267578125,1.875,-1.9375,1.375
1.0150000000000003,2.0,-1.0,1.0,-13.0,-1.0,0.0,-2.0,2.0,0.0079345703125,0.057373046875,0.4693603515625,0.88104248046875,-0.087890625,0.05908203125,0.99267578125,1.875,-1.9375,1.375
1.0200000000000002,0.0,3.0,-7.0,-3.0,-3.0,-1.0,0.0,-1.0,0.00848388671875,0.05731201171875,0.4696044921875,0.88092041015625,-0.08935546875,0.06884765625,1.0048828125,2.5,-1.625,1.5625
1.0250000000000001,-2.0,-2.0,-4.0,-3.0,-2.0,0.0,-3.0,-1.0,0.0089111328125,0.05718994140625,0.4698486328125,0.88079833984375,-0.09033203125,0.07080078125,0.998046875,1.8125,-1.5,2.0
1.03,1.0,-1.0,0.0,2.0,0.0,-1.0,-1.0,-2.0,0.0089111328125,0.05718994140625,0.4698486328125,0.88079833984375,-0.09033203125,0.07080078125,0.998046875,1.8125,-1.5,2.0
1.035,-3.0,0.0,-9.0,4.0,-1.0,-1.0,1.0,-2.0,0.00921630859375,0.05706787109375,0.47015380859375,0.88067626953125,-0.0849609375,0.06396484375,1.001953125,1.6875,-0.8125,1.75
1.0399999999999998,-3.0,0.0,-9.0,4.0,-1.0,-1.0,1.0,-2.0,0.00921630859375,0.05706787109375,0.47015380859375,0.88067626953125,-0.0849609375,0.06396484375,1.001953125,1.6875,-0.8125,1.75
1.0449999999999997,-4.0,-11.0,9.0,4.0,0.0,-1.0,-1.0,-1.0,0.00958251953125,0.05712890625,0.470458984375,0.8804931640625,-0.08642578125,0.06396484375,0.994140625,1.9375,-0.3125,2.125
1.0499999999999996,-4.0,-11.0,9.0,4.0,0.0,-1.0,-1.0,-1.0,0.00958251953125,0.05712890625,0.470458984375,0.8804931640625,-0.08642578125,0.06396484375,0.994140625,1.9375,-0.3125,2.125
1.0549999999999995,-2.0,1.0,-4.0,-6.0,-3.0,-3.0,-2.0,0.0,0.00994873046875,0.0572509765625,0.4708251953125,0.8802490234375,-0.08837890625,0.07177734375,0.99853515625,2.25,0.0,2.4375
1.0599999999999994,-1.0,0.0,1.0,7.0,3.0,0.0,0.0,-2.0,0.01031494140625,0.05743408203125,0.47113037109375,0.88006591796875,-0.09423828125,0.07568359375,0.99755859375,1.9375,-0.0625,2.25
1.0649999999999993,1.0,0.0,-5.0,3.0,-2.0,0.0,-2.0,-1.0,0.01031494140625,0.05743408203125,0.47113037109375,0.88006591796875,-0.09423828125,0.07568359375,0.99755859375,1.9375,-0.0625,2.25
1.0699999999999992,-3.0,-4.0,-1.0,-11.0,-6.0,-3.0,-4.0,-2.0,0.01068115234375,0.05755615234375,0.471435546875,0.8798828125,-0.09521484375,0.0751953125,1.00244140625,1.75,-0.5625,2.125
1.074999999999999,2.0,5.0,-3.0,15.0,5.0,2.0,2.0,-2.0,0.01116943359375,0.0577392578125,0.4716796875,0.8797607421875,-0.09130859375,0.08251953125,0.99658203125,2.25,-0.5,1.625
1.079999999999999,-2.0,-1.0,-11.0,5.0,1.0,-1.0,0.0,-2.0,0.01116943359375,0.0577392578125,0.4716796875,0.8797607421875,-0.09130859375,0.08251953125,0.99658203125,2.25,-0.5,1.625
1.0849999999999989,-4.0,-5.0,-8.0,-4.0,-3.0,-2.0,-2.0,-1.0,0.0115966796875,0.05780029296875,0.47198486328125,0.87957763671875,-0.091796875,0.080078125,0.99560546875,1.8125,-0.8125,2.0
1.0899999999999987,0.0,3.0,-2.0,-4.0,-1.0,-2.0,0.0,-2.0,0.0115966796875,0.05780029296875,0.47198486328125,0.87957763671875,-0.091796875,0.080078125,0.99560546875,1.8125,-0.8125,2.0
1.0949999999999986,0.0,3.0,-2.0,-4.0,-1.0,-2.0,0.0,-2.0,0.0115966796875,0.05780029296875,0.47198486328125,0.87957763671875,-0.091796875,0.080078125,0.99560546875,1.8125,-0.8125,2.0
1.0999999999999985,-5.0,-15.0,12.0,-4.0,-3.0,-2.0,-1.0,-1.0,0.01177978515625,0.057861328125,0.47222900390625,0.87945556640625,-0.09716796875,0.08349609375,1.0,0.625,-0.5,1.625
1.1049999999999984,1.0,5.0,0.0,1.0,-3.0,-3.0,0.0,-1.0,0.01177978515625,0.057861328125,0.47222900390625,0.87945556640625,-0.0927734375,0.07861328125,1.00390625,-0.875,0.125,0.75
1.1099999999999983,1.0,5.0,0.0,1.0,-3.0,-3.0,0.0,-1.0,0.01177978515625,0.057861328125,0.47222900390625,0.87945556640625,-0.0927734375,0.07861328125,1.00390625,-0.875,0.125,0.75
1.1149999999999982,-1.0,-3.0,-2.0,-3.0,0.0,0.0,1.0,0.0,0.01177978515625,0.0579833984375,0.4722900390625,0.87939453125,-0.08447265625,0.0791015625,1.00048828125,0.125,1.0,0.25
1.119999999999998,1.0,7.0,-13.0,-3.0,-6.0,0.0,-1.0,0.0,0.01177978515625,0.0579833984375,0.4722900390625,0.87939453125,-0.08447265625,0.0791015625,1.00048828125,0.125,1.0,0.25
1.124999999999998,-1.0,2.0,9.0,-5.0,-2.0,-1.0,-2.0,0.0,0.0118408203125,0.05828857421875,0.4722900390625,0.87939453125,-0.087890625,0.08251953125,1.00439453125,0.4375,1.875,0.0625
1.129999999999998,-1.0,3.0,-13.0,-7.0,-1.0,-3.0,-3.0,-1.0,0.0118408203125,0.05828857421875,0.4722900390625,0.87939453125,-0.087890625,0.08251953125,1.00439453125,0.4375,1.875,0.0625
1.1349999999999978,1.0,-4.0,1.0,-3.0,-4.0,-3.0,-3.0,-1.0,0.01153564453125,0.0584716796875,0.47222900390625,0.87939453125,-0.0849609375,0.08203125,0.9970703125,-1.375,2.25,-0.5625
1.1399999999999977,1.0,-4.0,1.0,-3.0,-4.0,-3.0,-3.0,-1.0,0.01153564453125,0.0584716796875,0.47222900390625,0.87939453125,-0.0849609375,0.08203125,0.9970703125,-1.375,2.25,-0.5625
1.1449999999999976,-2.0,-3.0,3.0,-15.0,-5.0,-2.0,-1.0,-2.0,0.0108642578125,0.05865478515625,0.47216796875,0.87945556640625,-0.08837890625,0.07373046875,0.9931640625,-2.875,2.75,-0.875
1.1499999999999975,-8.0,-10.0,-26.0,3.0,-3.0,-1.0,0.0,-3.0,0.01025390625,0.05889892578125,0.4720458984375,0.8795166015625,-0.10498046875,0.07421875,0.99560546875,-2.375,2.3125,-0.875
1.1549999999999974,-8.0,-10.0,-26.0,3.0,-3.0,-1.0,0.0,-3.0,0.01025390625,0.05889892578125,0.4720458984375,0.8795166015625,-0.10498046875,0.07421875,0.99560546875,-2.375,2.3125,-0.875
1.1599999999999973,-2.0,-1.0,21.0,-4.0,-2.0,-4.0,-2.0,0.0,0.00958251953125,0.05902099609375,0.47198486328125,0.8795166015625,-0.10107421875,0.06884765625,0.99560546875,-3.0625,1.9375,-0.625
1.1649999999999971,1.0,-3.0,15.0,-3.0,0.0,0.0,0.0,0.0,0.00958251953125,0.05902099609375,0.47198486328125,0.8795166015625,-0.10107421875,0.06884765625,0.99560546875,-3.0625,1.9375,-0.625
1.169999999999997,-1.0,0.0,-2.0,4.0,0.0,-1.0,-3.0,-2.0,0.009033203125,0.05914306640625,0.471923828125,0.87957763671875,-0.0966796875,0.06640625,0.99462890625,-2.125,1.9375,-0.875
1.174999999999997,-1.0,0.0,-2.0,4.0,0.0,-1.0,-3.0,-2.0,0.009033203125,0.05914306640625,0.471923828125,0.87957763671875,-0.0966796875,0.06640625,0.99462890625,-2.125,1.9375,-0.875
1.1799999999999968,0.0,-2.0,-6.0,5.0,4.0,0.0,0.0,-1.0,0.00860595703125,0.05926513671875,0.4718017578125,0.879638671875,-0.099609375,0.06103515625,0.994140625,-1.0,1.5625,-0.6875
1.1849999999999967,-1.0,-7.0,5.0,-8.0,-1.0,-2.0,0.0,-2.0,0.00860595703125,0.05926513671875,0.4718017578125,0.879638671875,-0.099609375,0.06103515625,0.994140625,-1.0,1.5625,-0.6875
1.1899999999999966,1.0,3.0,-14.0,7.0,2.0,0.0,1.0,1.0,0.008544921875,0.05926513671875,0.4718017578125,0.879638671875,-0.0966796875,0.060546875,0.99462890625,-0.75,0.875,-0.75
1.1949999999999965,3.0,3.0,-5.0,4.0,0.0,0.0,-1.0,1.0,0.008544921875,0.05926513671875,0.4718017578125,0.879638671875,-0.0966796875,0.060546875,0.99462890625,-0.75,0.875,-0.75
1.1999999999999964,-1.0,-1.0,3.0,2.0,-1.0,1.0,1.0,-3.0,0.008544921875,0.05926513671875,0.4718017578125,0.879638671875,-0.09814453125,0.0615234375,1.00146484375,-0.6875,0.125,-0.1875
1.2049999999999963,-1.0,2.0,3.0,0.0,-2.0,-1.0,-1.0,-2.0,0.00848388671875,0.0592041015625,0.4718017578125,0.879638671875,-0.0966796875,0.05859375,0.99951171875,-0.8125,-0.0625,-0.1875
1.2099999999999962,-1.0,2.0,3.0,0.0,-2.0,-1.0,-1.0,-2.0,0.00848388671875,0.0592041015625,0.4718017578125,0.879638671875,-0.0966796875,0.05859375,0.99951171875,-0.8125,-0.0625,-0.1875
1.214999999999996,-3.0,-1.0,5.0,-2.0,-1.0,-2.0,0.0,-1.0,0.00848388671875,0.0592041015625,0.4718017578125,0.879638671875,-0.09716796875,0.064453125,1.0,-0.6875,-0.0625,0.0625
1.219999999999996,-3.0,-1.0,5.0,-2.0,-1.0,-2.0,0.0,-1.0,0.00848388671875,0.0592041015625,0.4718017578125,0.879638671875,-0.09716796875,0.064453125,1.0,-0.6875,-0.0625,0.0625
1.2249999999999959,1.0,0.0,-4.0,-9.0,-4.0,0.0,-2.0,-1.0,0.00848388671875,0.0592041015625,0.4718017578125,0.879638671875,-0.099609375,0.07275390625,0.9931640625,-0.5625,0.25,0.0625
1.2299999999999958,-1.0,2.0,23.0,-3.0,-1.0,-3.0,0.0,-1.0,0.00848388671875,0.0592041015625,0.4718017578125,0.879638671875,-0.099609375,0.07275390625,0.9931640625,-0.5625,0.25,0.0625
1.2349999999999957,0.0,-3.0,-7.0,0.0,-1.0,0.0,-1.0,-1.0,0.00848388671875,0.05926513671875,0.4718017578125,0.879638671875,-0.1064453125,0.0771484375,0.99755859375,-0.875,0.25,0.1875
1.2399999999999956,-2.0,-2.0,-1.0,1.0,-1.0,-1.0,-1.0,-1.0,0.00823974609375,0.05926513671875,0.4718017578125,0.879638671875,-0.107421875,0.0673828125,0.99462890625,-1.0625,-0.0625,-0.1875
1.2449999999999954,-2.0,-2.0,-1.0,1.0,-1.0,-1.0,-1.0,-1.0,0.00823974609375,0.05926513671875,0.4718017578125,0.879638671875,-0.107421875,0.0673828125,0.99462890625,-1.0625,-0.0625,-0.1875
1.2499999999999953,0.0,-5.0,-8.0,-2.0,-5.0,1.0,-1.0,0.0,0.00823974609375,0.05926513671875,0.4718017578125,0.879638671875,-0.107421875,0.0673828125,0.99462890625,-1.0625,-0.0625,-0.1875
1.2549999999999952,-1.0,-5.0,-10.0,-3.0,-5.0,-3.0,-1.0,-1.0,0.00823974609375,0.05926513671875,0.4718017578125,0.879638671875,-0.09912109375,0.06494140625,1.0,-0.5,-0.3125,-0.75
1.2599999999999951,-1.0,0.0,-9.0,-3.0,-1.0,-1.0,1.0,1.0,0.00823974609375,0.05926513671875,0.4718017578125,0.879638671875,-0.103515625,0.0693359375,0.99609375,0.875,-0.8125,-0.5
1.264999999999995,-1.0,0.0,-9.0,-3.0,-1.0,-1.0,1.0,1.0,0.00823974609375,0.05926513671875,0.4718017578125,0.879638671875,-0.103515625,0.0693359375,0.99609375,0.875,-0.8125,-0.5
1.269999999999995,-2.0,-2.0,-7.0,-2.0,-2.0,-3.0,0.0,-1.0,0.00830078125,0.05908203125,0.47161865234375,0.87969970703125,-0.09716796875,0.068359375,0.9951171875,0.1875,-1.4375,-1.0
1.2749999999999948,-2.0,-8.0,-4.0,-7.0,-3.0,-3.0,-1.0,-1.0,0.00830078125,0.05908203125,0.47161865234375,0.87969970703125,-0.09716796875,0.068359375,0.9951171875,0.1875,-1.4375,-1.0
1.2799999999999947,-4.0,-2.0,-8.0,-11.0,-2.0,-1.0,1.0,-2.0,0.0084228515625,0.058837890625,0.471435546875,0.87982177734375,-0.09521484375,0.068359375,0.9990234375,0.0625,-1.5625,-1.125
1.2849999999999946,2.0,8.0,-4.0,-2.0,0.0,0.0,1.0,1.0,0.0084228515625,0.058837890625,0.471435546875,0.87982177734375,-0.09521484375,0.068359375,0.9990234375,0.0625,-1.5625,-1.125
1.2899999999999945,-4.0,-6.0,-9.0,-8.0,-5.0,-1.0,-3.0,-4.0,0.0084228515625,0.058837890625,0.471435546875,0.87982177734375,-0.09521484375,0.068359375,0.9990234375,0.0625,-1.5625,-1.125
1.2949999999999944,-2.0,-1.0,0.0,9.0,2.0,0.0,-2.0,0.0,0.00860595703125,0.05865478515625,0.4713134765625,0.87994384765625,-0.09716796875,0.06103515625,0.9951171875,0.9375,-1.5,-1.0
1.2999999999999943,-1.0,4.0,12.0,-8.0,-3.0,-2.0,0.0,-2.0,0.0087890625,0.05853271484375,0.47113037109375,0.8800048828125,-0.09521484375,0.06396484375,0.9931640625,1.125,-1.25,-1.0
1.3049999999999942,-4.0,-12.0,-3.0,-2.0,0.0,-3.0,-3.0,-3.0,0.0087890625,0.05853271484375,0.47113037109375,0.8800048828125,-0.09521484375,0.06396484375,0.9931640625,1.125,-1.25,-1.0
1.309999999999994,1.0,0.0,8.0,1.0,-2.0,0.0,-2.0,-1.0,0.009033203125,0.05859375,0.47100830078125,0.88006591796875,-0.1005859375,0.0693359375,1.00146484375,1.5625,-0.8125,-0.75
1.314999999999994,1.0,0.0,8.0,1.0,-2.0,0.0,-2.0,-1.0,0.009033203125,0.05859375,0.47100830078125,0.88006591796875,-0.1005859375,0.0693359375,1.00146484375,1.5625,-0.8125,-0.75
1.3199999999999938,-4.0,-4.0,-3.0,0.0,0.0,-2.0,1.0,-2.0,0.009033203125,0.05859375,0.47100830078125,0.88006591796875,-0.09765625,0.07568359375,0.9931640625,0.25,-0.75,-0.4375
1.3249999999999937,0.0,0.0,-2.0,-7.0,-2.0,0.0,-2.0,-1.0,0.009033203125,0.05859375,0.47100830078125,0.88006591796875,-0.09521484375,0.06201171875,0.99755859375,-0.5625,-0.5,0.125
1.3299999999999936,0.0,0.0,-2.0,-7.0,-2.0,0.0,-2.0,-1.0,0.009033203125,0.05859375,0.47100830078125,0.88006591796875,-0.09521484375,0.06201171875,0.99755859375,-0.5625,-0.5,0.125
1.3349999999999935,1.0,6.0,11.0,1.0,-1.0,-1.0,-1.0,-1.0,0.00897216796875,0.05859375,0.47100830078125,0.88006591796875,-0.091796875,0.06494140625,1.00341796875,0.125,-0.25,0.25
1.3399999999999934,-1.0,-1.0,-9.0,-6.0,-1.0,-1.0,-3.0,-2.0,0.00897216796875,0.05859375,0.47100830078125,0.88006591796875,-0.091796875,0.06494140625,1.00341796875,0.125,-0.25,0.25
1.3449999999999933,-1.0,-1.0,-4.0,-20.0,-7.0,0.0,-1.0,-1.0,0.00933837890625,0.05877685546875,0.470947265625,0.880126953125,-0.09814453125,0.06982421875,0.9951171875,2.5,-0.125,-0.1875
1.3499999999999932,2.0,5.0,-7.0,2.0,2.0,1.0,0.0,2.0,0.009765625,0.05902099609375,0.470947265625,0.88006591796875,-0.1005859375,0.07763671875,1.00390625,2.25,-0.3125,0.0
1.354999999999993,0.0,3.0,2.0,-3.0,-6.0,-3.0,-2.0,-1.0,0.009765625,0.05902099609375,0.470947265625,0.88006591796875,-0.1005859375,0.07763671875,1.00390625,2.25,-0.3125,0.0
1.359999999999993,-2.0,-1.0,-5.0,1.0,0.0,-3.0,-1.0,-1.0,0.00994873046875,0.0589599609375,0.47100830078125,0.88006591796875,-0.09619140625,0.0751953125,0.99658203125,0.625,-1.0625,0.3125
1.3649999999999929,1.0,-4.0,9.0,2.0,-1.0,-1.0,-2.0,-1.0,0.00994873046875,0.0589599609375,0.47100830078125,0.88006591796875,-0.09619140625,0.0751953125,0.99658203125,0.625,-1.0625,0.3125
1.3699999999999928,-1.0,-5.0,-3.0,2.0,-2.0,-1.0,0.0,0.0,0.01007080078125,0.0587158203125,0.47100830078125,0.88006591796875,-0.0927734375,0.06787109375,1.001953125,0.375,-1.1875,0.3125
1.3749999999999927,-1.0,-5.0,-3.0,2.0,-2.0,-1.0,0.0,0.0,0.01031494140625,0.05865478515625,0.47100830078125,0.88006591796875,-0.0927734375,0.06884765625,0.99169921875,1.3125,-1.1875,0.0
1.3799999999999926,-2.0,0.0,5.0,6.0,5.0,0.0,-1.0,-2.0,0.01031494140625,0.05865478515625,0.47100830078125,0.88006591796875,-0.0927734375,0.06884765625,0.99169921875,1.3125,-1.1875,0.0
1.3849999999999925,1.0,1.0,-4.0,-10.0,-2.0,-2.0,-2.0,0.0,0.0107421875,0.05853271484375,0.47100830078125,0.88006591796875,-0.0888671875,0.07080078125,0.998046875,1.9375,-1.375,0.125
1.3899999999999924,1.0,1.0,-4.0,-10.0,-2.0,-2.0,-2.0,0.0,0.0107421875,0.05853271484375,0.47100830078125,0.88006591796875,-0.0888671875,0.07080078125,0.998046875,1.9375,-1.375,0.125
1.3949999999999922,1.0,9.0,10.0,1.0,-1.0,-1.0,-1.0,-1.0,0.0107421875,0.05853271484375,0.47100830078125,0.88006591796875,-0.0888671875,0.07080078125,0.998046875,1.9375,-1.375,0.125
1.3999999999999921,0.0,-11.0,3.0,2.0,1.0,1.0,0.0,0.0,0.01123046875,0.05853271484375,0.47100830078125,0.88006591796875,-0.09033203125,0.08740234375,0.99755859375,1.4375,-1.0625,0.125
1.404999999999992,-1.0,1.0,-1.0,-17.0,-4.0,-2.0,-1.0,-1.0,0.01123046875,0.05841064453125,0.4710693359375,0.88006591796875,-0.1044921875,0.0810546875,1.001953125,-0.6875,-1.3125,0.25
1.409999999999992,0.0,1.0,-4.0,0.0,0.0,0.0,0.0,0.0,0.01123046875,0.05841064453125,0.4710693359375,0.88006591796875,-0.1044921875,0.0810546875,1.001953125,-0.6875,-1.3125,0.25
1.4149999999999918,0.0,-2.0,-5.0,-2.0,-2.0,-1.0,-1.0,-1.0,0.01123046875,0.05841064453125,0.4710693359375,0.88006591796875,-0.1044921875,0.0810546875,1.001953125,-0.6875,-1.3125,0.25
1.4199999999999917,1.0,-4.0,0.0,1.0,-3.0,-2.0,-1.0,-2.0,0.0108642578125,0.05804443359375,0.47113037109375,0.88006591796875,-0.09619140625,0.06640625,0.9951171875,-2.375,-1.1875,0.0625
1.4249999999999916,1.0,-4.0,0.0,1.0,-3.0,-2.0,-1.0,-2.0,0.0108642578125,0.05804443359375,0.47113037109375,0.88006591796875,-0.09619140625,0.06640625,0.9951171875,-2.375,-1.1875,0.0625
1.4299999999999915,-3.0,-1.0,-6.0,2.0,1.0,0.0,-1.0,1.0,0.01080322265625,0.05804443359375,0.47113037109375,0.88006591796875,-0.09130859375,0.06201171875,1.00341796875,-0.75,-0.4375,-0.25
1.4349999999999914,-3.0,-1.0,-1.0,1.0,-2.0,-2.0,1.0,-1.0,0.01080322265625,0.05804443359375,0.47113037109375,0.88006591796875,-0.09130859375,0.06201171875,1.00341796875,-0.75,-0.4375,-0.25
1.4399999999999913,-1.0,-3.0,5.0,-6.0,-2.0,1.0,1.0,-1.0,0.01080322265625,0.05804443359375,0.47113037109375,0.88006591796875,-0.09130859375,0.06201171875,1.00341796875,-0.75,-0.4375,-0.25
1.4449999999999912,-2.0,-4.0,-18.0,-3.0,-2.0,0.0,-2.0,-2.0,0.01104736328125,0.05810546875,0.470947265625,0.880126953125,-0.091796875,0.07373046875,1.00048828125,1.375,-0.25,-0.9375
1.449999999999991,-1.0,-1.0,5.0,23.0,4.0,-2.0,-1.0,-1.0,0.01104736328125,0.05810546875,0.470947265625,0.880126953125,-0.08837890625,0.0888671875,0.99267578125,0.875,-0.6875,-0.9375
1.454999999999991,-1.0,1.0,-6.0,0.0,-3.0,0.0,0.0,1.0,0.01104736328125,0.05810546875,0.470947265625,0.880126953125,-0.08837890625,0.0888671875,0.99267578125,0.875,-0.6875,-0.9375
1.4599999999999909,0.0,1.0,0.0,2.0,-1.0,-2.0,1.0,-2.0,0.0107421875,0.057861328125,0.47088623046875,0.88018798828125,-0.09130859375,0.08056640625,0.99658203125,-2.8125,-0.4375,-0.625
1.4649999999999908,-1.0,2.0,2.0,3.0,2.0,-2.0,-1.0,-1.0,0.01025390625,0.05767822265625,0.4708251953125,0.8802490234375,-0.1005859375,0.0732421875,1.00048828125,-3.1875,-0.1875,-0.625
1.4699999999999906,-1.0,2.0,2.0,3.0,2.0,-2.0,-1.0,-1.0,0.01025390625,0.05767822265625,0.4708251953125,0.8802490234375,-0.1005859375,0.0732421875,1.00048828125,-3.1875,-0.1875,-0.625
1.4749999999999905,-1.0,0.0,-7.0,9.0,3.0,0.0,-1.0,-2.0,0.00994873046875,0.0574951171875,0.47064208984375,0.88037109375,-0.09619140625,0.0673828125,0.99658203125,-1.75,-0.3125,-1.5625
1.4799999999999904,-2.0,-3.0,2.0,-8.0,-2.0,-1.0,-2.0,0.0,0.00982666015625,0.057373046875,0.47039794921875,0.8804931640625,-0.09130859375,0.06884765625,1.0,-0.5625,-0.25,-1.5
1.4849999999999903,-2.0,-3.0,-5.0,-2.0,-1.0,-1.0,-1.0,-1.0,0.00982666015625,0.057373046875,0.47039794921875,0.8804931640625,-0.09130859375,0.06884765625,1.0,-0.5625,-0.25,-1.5
1.4899999999999902,0.0,3.0,1.0,-16.0,-2.0,1.0,0.0,-1.0,0.00958251953125,0.05731201171875,0.47021484375,0.880615234375,-0.095703125,0.0693359375,0.9970703125,-1.1875,-0.0625,-1.375
1.4949999999999901,0.0,3.0,1.0,-16.0,-2.0,1.0,0.0,-1.0,0.00958251953125,0.05731201171875,0.47021484375,0.880615234375,-0.095703125,0.0693359375,0.9970703125,-1.1875,-0.0625,-1.375
1.49999999999999,-5.0,-10.0,1.0,-6.0,-1.0,-2.0,-3.0,-3.0,0.00921630859375,0.0572509765625,0.47003173828125,0.88067626953125,-0.09814453125,0.064453125,0.99560546875,-1.8125,0.0625,-1.125
1.50499999999999,-1.0,0.0,2.0,-1.0,-5.0,-1.0,-2.0,-1.0,0.00921630859375,0.0572509765625,0.47003173828125,0.88067626953125,-0.09814453125,0.064453125,0.99560546875,-1.8125,0.0625,-1.125
1.5099999999999898,0.0,-4.0,-3.0,-2.0,-2.0,-2.0,-1.0,0.0,0.00885009765625,0.0570068359375,0.46990966796875,0.88079833984375,-0.0908203125,0.05615234375,0.998046875,-1.3125,0.0,-0.9375
1.5149999999999897,0.0,-4.0,-3.0,-2.0,-2.0,-2.0,-1.0,0.0,0.00885009765625,0.0570068359375,0.46990966796875,0.88079833984375,-0.0908203125,0.05615234375,0.998046875,-1.3125,0.0,-0.9375
1.5199999999999896,-1.0,0.0,8.0,1.0,2.0,-2.0,-1.0,-2.0,0.00885009765625,0.0570068359375,0.46990966796875,0.88079833984375,-0.0908203125,0.05615234375,0.998046875,-1.3125,0.0,-0.9375
1.5249999999999895,-1.0,0.0,8.0,1.0,2.0,-2.0,-1.0,-2.0,0.00885009765625,0.0570068359375,0.46990966796875,0.88079833984375,-0.09228515625,0.052734375,0.99658203125,0.125,-0.25,-0.75
1.5299999999999894,-1.0,-1.0,-4.0,16.0,4.0,1.0,-2.0,-1.0,0.00885009765625,0.0570068359375,0.46990966796875,0.88079833984375,-0.09228515625,0.052734375,0.99658203125,0.125,-0.25,-0.75
1.5349999999999893,-2.0,1.0,-2.0,-1.0,-1.0,-1.0,-1.0,0.0,0.009033203125,0.0570068359375,0.46978759765625,0.880859375,-0.0869140625,0.0634765625,0.994140625,1.3125,-0.3125,-0.6875
1.5399999999999892,-2.0,1.0,-2.0,-1.0,-1.0,-1.0,-1.0,0.0,0.009033203125,0.0570068359375,0.46978759765625,0.880859375,-0.0869140625,0.0634765625,0.994140625,1.3125,-0.3125,-0.6875
1.544999999999989,-2.0,1.0,1.0,2.0,2.0,1.0,-1.0,-1.0,0.009033203125,0.0570068359375,0.46978759765625,0.880859375,-0.09326171875,0.0693359375,1.00146484375,0.9375,-0.4375,-0.1875
1.549999999999989,-1.0,0.0,-6.0,1.0,-2.0,-3.0,0.0,0.0,0.009033203125,0.0570068359375,0.46978759765625,0.880859375,-0.09326171875,0.0693359375,1.00146484375,0.9375,-0.4375,-0.1875
1.5549999999999888,-2.0,0.0,15.0,-19.0,-7.0,-4.0,-1.0,0.0,0.009033203125,0.05694580078125,0.46978759765625,0.880859375,-0.08935546875,0.06640625,0.998046875,0.125,-0.6875,-0.125
1.5599999999999887,0.0,-1.0,5.0,21.0,7.0,0.0,-1.0,-1.0,0.009033203125,0.05694580078125,0.46978759765625,0.880859375,-0.09423828125,0.06494140625,1.00244140625,0.6875,-0.8125,0.125
1.5649999999999886,-1.0,-4.0,1.0,1.0,-1.0,1.0,-2.0,-3.0,0.009033203125,0.05694580078125,0.46978759765625,0.880859375,-0.09423828125,0.06494140625,1.00244140625,0.6875,-0.8125,0.125
1.5699999999999885,0.0,0.0,-10.0,1.0,2.0,0.0,-2.0,-2.0,0.009033203125,0.0570068359375,0.46978759765625,0.880859375,-0.0947265625,0.072265625,0.994140625,0.75,-0.5625,0.3125
1.5749999999999884,0.0,-4.0,7.0,7.0,1.0,-1.0,-2.0,2.0,0.00897216796875,0.0570068359375,0.46978759765625,0.880859375,-0.09912109375,0.06982421875,0.9990234375,0.5,-0.5625,0.1875
1.5799999999999883,-2.0,-2.0,-1.0,-1.0,-3.0,-1.0,1.0,0.0,0.00897216796875,0.0570068359375,0.46978759765625,0.880859375,-0.09228515625,0.06884765625,0.99658203125,0.8125,-0.375,-0.1875
1.5849999999999882,1.0,3.0,-8.0,27.0,5.0,-2.0,0.0,-2.0,0.00897216796875,0.0570068359375,0.46978759765625,0.880859375,-0.09228515625,0.06884765625,0.99658203125,0.8125,-0.375,-0.1875
1.589999999999988,-1.0,1.0,2.0,-6.0,1.0,1.0,1.0,0.0,0.00933837890625,0.05712890625,0.4698486328125,0.88079833984375,-0.0947265625,0.07177734375,0.99462890625,1.875,-0.4375,0.5
1.594999999999988,-1.0,-1.0,0.0,-7.0,-4.0,-1.0,-1.0,-1.0,0.00933837890625,0.05712890625,0.4698486328125,0.88079833984375,-0.0947265625,0.07177734375,0.99462890625,1.875,-0.4375,0.5
1.5999999999999879,-1.0,-1.0,1.0,-23.0,-8.0,-2.0,-1.0,-2.0,0.00958251953125,0.05718994140625,0.4698486328125,0.88079833984375,-0.091796875,0.07177734375,0.99609375,1.3125,-0.375,0.0
1.6049999999999878,0.0,-7.0,-4.0,-1.0,-2.0,-2.0,-1.0,0.0,0.009765625,0.05718994140625,0.4698486328125,0.88079833984375,-0.08642578125,0.0673828125,0.99658203125,1.3125,-0.1875,0.125
1.6099999999999877,-1.0,-1.0,6.0,-1.0,-2.0,-1.0,-1.0,-1.0,0.009765625,0.05718994140625,0.4698486328125,0.88079833984375,-0.08642578125,0.0673828125,0.99658203125,1.3125,-0.1875,0.125
1.6149999999999876,0.0,2.0,-13.0,-2.0,-3.0,0.0,0.0,-1.0,0.0101318359375,0.057373046875,0.4698486328125,0.88079833984375,-0.09130859375,0.076171875,0.998046875,1.875,0.0,-0.125
1.6199999999999875,-2.0,-5.0,0.0,5.0,2.0,-1.0,-1.0,1.0,0.0101318359375,0.057373046875,0.4698486328125,0.88079833984375,-0.09130859375,0.076171875,0.998046875,1.875,0.0,-0.125
1.6249999999999873,-2.0,-5.0,0.0,5.0,2.0,-1.0,-1.0,1.0,0.0101318359375,0.057373046875,0.4698486328125,0.88079833984375,-0.09130859375,0.076171875,0.998046875,1.875,0.0,-0.125
1.6299999999999872,-2.0,-2.0,19.0,-11.0,-7.0,-2.0,-3.0,-2.0,0.01055908203125,0.0576171875,0.4697265625,0.88079833984375,-0.09130859375,0.07470703125,1.00048828125,1.5625,0.0625,-0.5
1.6349999999999871,-1.0,0.0,2.0,21.0,7.0,-2.0,-1.0,-1.0,0.01055908203125,0.0576171875,0.4697265625,0.88079833984375,-0.09130859375,0.07470703125,1.00048828125,1.5625,0.0625,-0.5
1.639999999999987,1.0,1.0,0.0,-1.0,1.0,-2.0,0.0,-1.0,0.01055908203125,0.0576171875,0.4697265625,0.88079833984375,-0.08349609375,0.07373046875,1.00537109375,0.5,0.3125,-0.6875
1.644999999999987,1.0,8.0,-4.0,2.0,0.0,0.0,-1.0,-1.0,0.01055908203125,0.0576171875,0.4697265625,0.88079833984375,-0.08349609375,0.07373046875,1.00537109375,0.5,0.3125,-0.6875
1.6499999999999868,-1.0,0.0,4.0,-6.0,0.0,0.0,-2.0,-3.0,0.01055908203125,0.0576171875,0.4697265625,0.88079833984375,-0.08837890625,0.07373046875,0.998046875,-0.3125,0.6875,-0.75
1.6549999999999867,-1.0,-3.0,-3.0,-2.0,-2.0,-2.0,-2.0,-2.0,0.01055908203125,0.0576171875,0.4697265625,0.88079833984375,-0.08837890625,0.07373046875,0.998046875,-0.3125,0.6875,-0.75
1.6599999999999866,0.0,-2.0,13.0,17.0,5.0,-1.0,-2.0,-1.0,0.0106201171875,0.0576171875,0.4697265625,0.88079833984375,-0.0888671875,0.0751953125,0.9921875,-0.75,0.5625,-0.8125
1.6649999999999865,0.0,-2.0,13.0,17.0,5.0,-1.0,-2.0,-1.0,0.0106201171875,0.0576171875,0.4697265625,0.88079833984375,-0.0888671875,0.0751953125,0.9921875,-0.75,0.5625,-0.8125
1.6699999999999864,-3.0,-2.0,-8.0,-14.0,-4.0,0.0,1.0,1.0,0.01043701171875,0.0576171875,0.46966552734375,0.880859375,-0.0888671875,0.07763671875,0.9990234375,-1.25,0.625,-0.5625
1.6749999999999863,-3.0,-2.0,-8.0,-14.0,-4.0,0.0,1.0,1.0,0.01043701171875,0.0576171875,0.46966552734375,0.880859375,-0.0888671875,0.07763671875,0.9990234375,-1.25,0.625,-0.5625
1.6799999999999862,0.0,0.0,-3.0,5.0,1.0,-1.0,-1.0,-2.0,0.01043701171875,0.0576171875,0.46966552734375,0.880859375,-0.0888671875,0.07763671875,0.9990234375,-1.25,0.625,-0.5625
1.684999999999986,-2.0,0.0,-6.0,-3.0,-2.0,-1.0,-1.0,0.0,0.01007080078125,0.05755615234375,0.4696044921875,0.88092041015625,-0.08935546875,0.068359375,1.00341796875,-1.5,0.8125,-0.4375
1.689999999999986,-1.0,-2.0,-3.0,-5.0,-6.0,-1.0,-1.0,-2.0,0.00970458984375,0.0574951171875,0.4696044921875,0.88092041015625,-0.0908203125,0.06689453125,0.998046875,-1.875,1.0625,-0.3125
1.6949999999999859,0.0,-3.0,-7.0,-1.0,2.0,-1.0,-2.0,-2.0,0.00927734375,0.05743408203125,0.4696044921875,0.88092041015625,-0.08642578125,0.068359375,0.99560546875,-2.0625,1.1875,-0.0625
1.6999999999999857,-2.0,1.0,-5.0,-8.0,-7.0,-1.0,-1.0,-1.0,0.00927734375,0.05743408203125,0.4696044921875,0.88092041015625,-0.08642578125,0.068359375,0.99560546875,-2.0625,1.1875,-0.0625
1.7049999999999856,-3.0,-2.0,0.0,1.0,1.0,0.0,-1.0,0.0,0.00927734375,0.05743408203125,0.4696044921875,0.88092041015625,-0.08642578125,0.068359375,0.99560546875,-2.0625,1.1875,-0.0625
1.7099999999999855,-3.0,-2.0,0.0,1.0,1.0,0.0,-1.0,0.0,0.0087890625,0.05743408203125,0.4697265625,0.880859375,-0.0908203125,0.06884765625,1.00146484375,-2.4375,1.5,0.375
1.7149999999999854,0.0,1.0,-2.0,-6.0,-2.0,-2.0,-1.0,0.0,0.0087890625,0.05743408203125,0.4697265625,0.880859375,-0.0908203125,0.06884765625,1.00146484375,-2.4375,1.5,0.375
1.7199999999999853,-1.0,-3.0,4.0,-8.0,-2.0,-1.0,0.0,0.0,0.00823974609375,0.05755615234375,0.46978759765625,0.88079833984375,-0.1015625,0.06640625,1.00048828125,-2.5625,1.5625,0.5
1.7249999999999852,-2.0,-12.0,2.0,-6.0,-1.0,-1.0,-1.0,0.0,0.00823974609375,0.05755615234375,0.46978759765625,0.88079833984375,-0.1015625,0.06640625,1.00048828125,-2.5625,1.5625,0.5
1.729999999999985,0.0,0.0,5.0,0.0,-1.0,-1.0,-2.0,-1.0,0.0076904296875,0.0576171875,0.4698486328125,0.88079833984375,-0.1025390625,0.06103515625,1.00439453125,-2.0,1.125,0.1875
1.734999999999985,1.0,0.0,10.0,-5.0,-4.0,-1.0,0.0,-1.0,0.0076904296875,0.0576171875,0.4698486328125,0.88079833984375,-0.1025390625,0.06103515625,1.00439453125,-2.0,1.125,0.1875
1.739999999999985,-1.0,7.0,-6.0,2.0,2.0,-2.0,0.0,1.0,0.00738525390625,0.0576171875,0.46990966796875,0.8807373046875,-0.09619140625,0.05810546875,0.99462890625,-1.0625,0.875,0.25
1.7449999999999848,-1.0,0.0,-6.0,-3.0,-3.0,-2.0,-1.0,-2.0,0.00726318359375,0.0577392578125,0.47003173828125,0.88067626953125,-0.09912109375,0.0615234375,0.9990234375,0.125,0.625,1.0
1.7499999999999847,-1.0,0.0,-6.0,-3.0,-3.0,-2.0,-1.0,-2.0,0.00726318359375,0.0577392578125,0.47003173828125,0.88067626953125,-0.09912109375,0.0615234375,0.9990234375,0.125,0.625,1.0
1.7549999999999846,-1.0,-4.0,-2.0,-4.0,0.0,-2.0,0.0,-2.0,0.00726318359375,0.0577392578125,0.47003173828125,0.88067626953125,-0.09912109375,0.0615234375,0.9990234375,0.125,0.625,1.0
1.7599999999999845,-1.0,-4.0,-2.0,-4.0,0.0,-2.0,0.0,-2.0,0.00726318359375,0.0577392578125,0.47003173828125,0.88067626953125,-0.0947265625,0.072265625,1.001953125,-0.9375,0.3125,0.8125
1.7649999999999844,-1.0,1.0,1.0,-15.0,-2.0,1.0,-2.0,0.0,0.00726318359375,0.0577392578125,0.47003173828125,0.88067626953125,-0.0947265625,0.072265625,1.001953125,-0.9375,0.3125,0.8125
1.7699999999999843,0.0,-2.0,-7.0,-7.0,-1.0,-1.0,-1.0,-2.0,0.00726318359375,0.0577392578125,0.47003173828125,0.88067626953125,-0.0947265625,0.072265625,1.001953125,-0.9375,0.3125,0.8125
1.7749999999999841,-8.0,-7.0,13.0,-12.0,-6.0,-4.0,-3.0,-4.0,0.00726318359375,0.0577392578125,0.47003173828125,0.88067626953125,-0.0947265625,0.06005859375,0.99755859375,-0.5,0.125,0.8125
1.779999999999984,-2.0,-2.0,2.0,2.0,1.0,-1.0,-1.0,-1.0,0.00726318359375,0.0577392578125,0.47003173828125,0.88067626953125,-0.0947265625,0.06005859375,0.99755859375,-0.5,0.125,0.8125
1.784999999999984,1.0,2.0,-4.0,-2.0,1.0,0.0,-1.0,-2.0,0.00726318359375,0.0577392578125,0.47003173828125,0.88067626953125,-0.09765625,0.0634765625,0.9970703125,0.125,0.0625,0.3125
1.7899999999999838,-2.0,-3.0,-7.0,0.0,-3.0,-4.0,0.0,-2.0,0.00726318359375,0.0577392578125,0.47003173828125,0.88067626953125,-0.09765625,0.0634765625,0.9970703125,0.125,0.0625,0.3125
1.7949999999999837,-4.0,-6.0,-13.0,-5.0,-4.0,-3.0,-3.0,0.0,0.00726318359375,0.0577392578125,0.47003173828125,0.88067626953125,-0.09765625,0.0634765625,0.9970703125,0.125,0.0625,0.3125
1.7999999999999836,0.0,-11.0,-1.0,-13.0,-2.0,-1.0,0.0,-1.0,0.00726318359375,0.0577392578125,0.47003173828125,0.88067626953125,-0.095703125,0.07080078125,1.0,0.3125,0.0625,0.25
1.8049999999999835,0.0,-2.0,1.0,-1.0,0.0,-2.0,-2.0,0.0,0.00726318359375,0.0577392578125,0.47003173828125,0.88067626953125,-0.095703125,0.07080078125,1.0,0.3125,0.0625,0.25
1.8099999999999834,0.0,-2.0,1.0,-1.0,0.0,-2.0,-2.0,0.0,0.00726318359375,0.0577392578125,0.47003173828125,0.88067626953125,-0.095703125,0.07080078125,1.0,0.3125,0.0625,0.25
1.8149999999999833,-3.0,1.0,-6.0,-2.0,1.0,-2.0,-1.0,-3.0,0.00726318359375,0.0577392578125,0.47003173828125,0.88067626953125,-0.09619140625,0.0673828125,0.99853515625,0.0,0.125,-0.125
1.8199999999999832,-3.0,1.0,-6.0,-2.0,1.0,-2.0,-1.0,-3.0,0.00726318359375,0.0577392578125,0.47003173828125,0.88067626953125,-0.09619140625,0.0673828125,0.99853515625,0.0,0.125,-0.125
1.824999999999983,-5.0,-9.0,-7.0,-7.0,-6.0,-3.0,-3.0,-3.0,0.00726318359375,0.0577392578125,0.47003173828125,0.88067626953125,-0.0947265625,0.068359375,1.00341796875,-0.375,0.5625,-0.6875
1.829999999999983,1.0,2.0,-3.0,-4.0,0.0,-1.0,-1.0,-1.0,0.00726318359375,0.0577392578125,0.47003173828125,0.88067626953125,-0.09814453125,0.06884765625,0.99658203125,-0.3125,0.375,-0.625
1.8349999999999829,-1.0,3.0,0.0,20.0,4.0,1.0,-2.0,0.0,0.00726318359375,0.0577392578125,0.47003173828125,0.88067626953125,-0.09814453125,0.06884765625,0.99658203125,-0.3125,0.375,-0.625
1.8399999999999828,-6.0,-3.0,-2.0,-3.0,-2.0,-4.0,-2.0,-4.0,0.00726318359375,0.0577392578125,0.47003173828125,0.88067626953125,-0.09814453125,0.06884765625,0.99658203125,-0.3125,0.375,-0.625
1.8449999999999827,-1.0,-2.0,-1.0,-9.0,-2.0,0.0,0.0,-1.0,0.00726318359375,0.0577392578125,0.47003173828125,0.88067626953125,-0.09814453125,0.0634765625,0.9951171875,-1.0,0.1875,-0.5
1.8499999999999825,-1.0,-2.0,-1.0,-9.0,-2.0,0.0,0.0,-1.0,0.00726318359375,0.0577392578125,0.47003173828125,0.88067626953125,-0.09814453125,0.0634765625,0.9951171875,-1.0,0.1875,-0.5
1.8549999999999824,-1.0,1.0,0.0,-3.0,1.0,0.0,0.0,-2.0,0.0072021484375,0.05780029296875,0.47003173828125,0.88067626953125,-0.1005859375,0.06298828125,0.990234375,-0.4375,-0.25,-0.8125
1.8599999999999823,-2.0,-8.0,-12.0,-11.0,-2.0,-2.0,-2.0,-2.0,0.0072021484375,0.05780029296875,0.47003173828125,0.88067626953125,-0.09716796875,0.064453125,0.98974609375,-0.3125,-0.5,-0.75
1.8649999999999822,1.0,3.0,5.0,0.0,1.0,0.0,-1.0,-1.0,0.0072021484375,0.05780029296875,0.47003173828125,0.88067626953125,-0.09716796875,0.064453125,0.98974609375,-0.3125,-0.5,-0.75
1.8699999999999821,1.0,3.0,5.0,0.0,1.0,0.0,-1.0,-1.0,0.0072021484375,0.05780029296875,0.47003173828125,0.88067626953125,-0.09716796875,0.064453125,0.98974609375,-0.3125,-0.5,-0.75
1.874999999999982,-2.0,2.0,2.0,-6.0,-3.0,0.0,-1.0,-1.0,0.0072021484375,0.05780029296875,0.47003173828125,0.88067626953125,-0.10205078125,0.06201171875,1.0009765625,-0.1875,-0.75,-0.5
1.879999999999982,2.0,1.0,-2.0,1.0,1.0,-1.0,-1.0,0.0,0.0072021484375,0.05780029296875,0.47003173828125,0.88067626953125,-0.10205078125,0.06201171875,1.0009765625,-0.1875,-0.75,-0.5
1.8849999999999818,-2.0,-3.0,1.0,1.0,-2.0,-2.0,2.0,-1.0,0.00714111328125,0.05780029296875,0.47003173828125,0.88067626953125,-0.10205078125,0.0654296875,1.00439453125,-0.25,-0.6875,-0.3125
1.8899999999999817,-2.0,1.0,-11.0,-4.0,-3.0,-3.0,0.0,-1.0,0.00714111328125,0.05780029296875,0.47003173828125,0.88067626953125,-0.0986328125,0.06689453125,1.0,0.25,-0.8125,-0.5
1.8949999999999816,-2.0,1.0,-11.0,-4.0,-3.0,-3.0,0.0,-1.0,0.00714111328125,0.05780029296875,0.47003173828125,0.88067626953125,-0.0986328125,0.06689453125,1.0,0.25,-0.8125,-0.5
1.8999999999999815,2.0,3.0,2.0,0.0,1.0,-1.0,-1.0,-1.0,0.00714111328125,0.05780029296875,0.47003173828125,0.88067626953125,-0.091796875,0.064453125,0.99755859375,0.125,-0.5,-0.625
1.9049999999999814,0.0,-5.0,-4.0,-3.0,-2.0,-3.0,-1.0,-1.0,0.00714111328125,0.05780029296875,0.47003173828125,0.88067626953125,-0.091796875,0.064453125,0.99755859375,0.125,-0.5,-0.625
1.9099999999999813,0.0,3.0,0.0,3.0,-2.0,-1.0,-1.0,0.0,0.00714111328125,0.05780029296875,0.47003173828125,0.88067626953125,-0.0966796875,0.068359375,0.99853515625,-0.1875,-0.375,-0.4375
1.9149999999999812,1.0,2.0,3.0,-2.0,-2.0,-1.0,-1.0,1.0,0.00714111328125,0.05780029296875,0.47003173828125,0.88067626953125,-0.0966796875,0.068359375,0.99853515625,-0.1875,-0.375,-0.4375
1.919999999999981,-1.0,-1.0,0.0,-9.0,-6.0,-1.0,-1.0,-1.0,0.00714111328125,0.05780029296875,0.47003173828125,0.88067626953125,-0.0927734375,0.06396484375,0.994140625,-0.1875,-0.5625,-0.375
1.924999999999981,-1.0,-1.0,0.0,-9.0,-6.0,-1.0,-1.0,-1.0,0.00714111328125,0.05780029296875,0.47003173828125,0.88067626953125,-0.0927734375,0.06396484375,0.994140625,-0.1875,-0.5625,-0.375
1.9299999999999808,-2.0,-1.0,13.0,-1.0,-2.0,-1.0,-2.0,-3.0,0.00714111328125,0.05780029296875,0.47003173828125,0.88067626953125,-0.095703125,0.0654296875,1.00341796875,-0.6875,-0.3125,-0.6875
1.9349999999999807,1.0,3.0,0.0,2.0,-4.0,-2.0,-1.0,-1.0,0.00714111328125,0.05780029296875,0.47003173828125,0.88067626953125,-0.095703125,0.0654296875,1.00341796875,-0.6875,-0.3125,-0.6875
1.9399999999999806,-1.0,-2.0,-5.0,2.0,1.0,-1.0,1.0,-1.0,0.00714111328125,0.0577392578125,0.47003173828125,0.88067626953125,-0.09326171875,0.06103515625,1.0009765625,-0.0625,0.0625,-0.5
1.9449999999999805,-2.0,-9.0,3.0,-2.0,0.0,0.0,-1.0,0.0,0.00714111328125,0.0577392578125,0.47003173828125,0.88067626953125,-0.08642578125,0.06005859375,0.9990234375,0.1875,0.6875,-0.75
1.9499999999999804,-1.0,-5.0,-2.0,-10.0,-5.0,1.0,-1.0,-1.0,0.00714111328125,0.0577392578125,0.47003173828125,0.88067626953125,-0.08642578125,0.06005859375,0.9990234375,0.1875,0.6875,-0.75
1.9549999999999803,2.0,5.0,-7.0,8.0,1.0,0.0,1.0,0.0,0.00714111328125,0.05767822265625,0.47003173828125,0.88067626953125,-0.0849609375,0.06103515625,1.00048828125,0.4375,0.75,-0.3125
1.9599999999999802,-1.0,2.0,2.0,6.0,-3.0,-2.0,-2.0,-2.0,0.00714111328125,0.05767822265625,0.47003173828125,0.88067626953125,-0.0849609375,0.06103515625,1.00048828125,0.4375,0.75,-0.3125
1.96499999999998,-1.0,2.0,2.0,6.0,-3.0,-2.0,-2.0,-2.0,0.00714111328125,0.05767822265625,0.47003173828125,0.88067626953125,-0.0849609375,0.06103515625,1.00048828125,0.4375,0.75,-0.3125
1.96999999999998,0.0,1.0,3.0,-1.0,0.0,-1.0,-1.0,0.0,0.007080078125,0.0579833984375,0.47003173828125,0.88067626953125,-0.0986328125,0.06982421875,1.00390625,0.25,1.25,-0.125
1.9749999999999799,0.0,-2.0,1.0,0.0,0.0,1.0,-2.0,-2.0,0.007080078125,0.0579833984375,0.47003173828125,0.88067626953125,-0.0986328125,0.06982421875,1.00390625,0.25,1.25,-0.125
1.9799999999999798,-2.0,-1.0,-6.0,-1.0,-2.0,-1.0,0.0,-1.0,0.0069580078125,0.0582275390625,0.47003173828125,0.88067626953125,-0.1044921875,0.07177734375,0.99560546875,-0.25,1.1875,-0.125
1.9849999999999797,-2.0,-5.0,3.0,1.0,0.0,-1.0,0.0,-1.0,0.0069580078125,0.0582275390625,0.47003173828125,0.88067626953125,-0.1044921875,0.07177734375,0.99560546875,-0.25,1.1875,-0.125
1.9899999999999796,-2.0,-5.0,3.0,1.0,0.0,-1.0,0.0,-1.0,0.0067138671875,0.05841064453125,0.469970703125,0.88067626953125,-0.10302734375,0.0654296875,0.9931640625,-0.6875,1.125,-0.4375
1.9949999999999795,-2.0,0.0,0.0,3.0,2.0,-1.0,-1.0,-2.0,0.0067138671875,0.05841064453125,0.469970703125,0.88067626953125,-0.10302734375,0.0654296875,0.9931640625,-0.6875,1.125,-0.4375
1.9999999999999793,-1.0,-3.0,-6.0,-6.0,-3.0,-3.0,0.0,-2.0,0.0067138671875,0.05841064453125,0.469970703125,0.88067626953125,-0.09814453125,0.06298828125,0.99560546875,-0.1875,0.625,-0.3125
2.0049999999999795,-2.0,-2.0,-5.0,2.0,0.0,1.0,-3.0,-3.0,0.0067138671875,0.05841064453125,0.469970703125,0.88067626953125,-0.09619140625,0.06201171875,1.001953125,-0.375,0.5625,-0.1875
2.0099999999999794,-1.0,-1.0,5.0,0.0,-1.0,-2.0,-1.0,-1.0,0.00665283203125,0.05841064453125,0.469970703125,0.88067626953125,-0.10009765625,0.0615234375,0.99951171875,0.0,0.0625,-0.0625
2.0149999999999793,1.0,-2.0,-2.0,1.0,0.0,1.0,0.0,1.0,0.00665283203125,0.05841064453125,0.469970703125,0.88067626953125,-0.09619140625,0.064453125,0.9931640625,-0.6875,-0.0625,-0.125
2.019999999999979,-3.0,-1.0,2.0,-2.0,-3.0,-2.0,-2.0,-2.0,0.00665283203125,0.05841064453125,0.469970703125,0.88067626953125,-0.09619140625,0.064453125,0.9931640625,-0.6875,-0.0625,-0.125
2.024999999999979,1.0,-6.0,3.0,10.0,5.0,2.0,-1.0,1.0,0.00665283203125,0.05841064453125,0.469970703125,0.88067626953125,-0.09521484375,0.05908203125,0.9951171875,-0.8125,0.0625,0.0625
2.029999999999979,1.0,-6.0,3.0,10.0,5.0,2.0,-1.0,1.0,0.00665283203125,0.05841064453125,0.469970703125,0.88067626953125,-0.09521484375,0.05908203125,0.9951171875,-0.8125,0.0625,0.0625
2.034999999999979,0.0,3.0,-2.0,-2.0,-2.0,-1.0,-1.0,0.0,0.00665283203125,0.05841064453125,0.469970703125,0.88067626953125,-0.095703125,0.0625,1.00244140625,-0.25,0.3125,0.1875
2.0399999999999787,0.0,3.0,-2.0,-2.0,-2.0,-1.0,-1.0,0.0,0.00665283203125,0.05841064453125,0.469970703125,0.88067626953125,-0.095703125,0.0625,1.00244140625,-0.25,0.3125,0.1875
2.0449999999999786,-2.0,-2.0,2.0,5.0,-1.0,-1.0,-2.0,-2.0,0.00665283203125,0.05841064453125,0.469970703125,0.88067626953125,-0.09423828125,0.0634765625,0.9990234375,-0.375,0.5625,0.375
2.0499999999999785,-2.0,-2.0,6.0,-4.0,-2.0,-2.0,-2.0,-1.0,0.00665283203125,0.05841064453125,0.469970703125,0.88067626953125,-0.09423828125,0.0634765625,0.9990234375,-0.375,0.5625,0.375
2.0549999999999784,-2.0,-2.0,6.0,-4.0,-2.0,-2.0,-2.0,-1.0,0.00665283203125,0.05841064453125,0.469970703125,0.88067626953125,-0.09423828125,0.0634765625,0.9990234375,-0.375,0.5625,0.375
2.0599999999999783,2.0,5.0,-9.0,2.0,-1.0,-1.0,0.0,1.0,0.00665283203125,0.05841064453125,0.469970703125,0.88067626953125,-0.10205078125,0.06201171875,1.0,-0.3125,0.875,0.625
2.064999999999978,-6.0,-8.0,-8.0,-20.0,-5.0,-2.0,-3.0,-3.0,0.006591796875,0.05841064453125,0.469970703125,0.88067626953125,-0.1025390625,0.0625,0.99853515625,-0.9375,0.875,0.5625
2.069999999999978,-6.0,-8.0,-8.0,-20.0,-5.0,-2.0,-3.0,-3.0,0.006591796875,0.05841064453125,0.469970703125,0.88067626953125,-0.1025390625,0.0625,0.99853515625,-0.9375,0.875,0.5625
2.074999999999978,-1.0,1.0,4.0,-5.0,1.0,0.0,1.0,-1.0,0.006591796875,0.05841064453125,0.469970703125,0.88067626953125,-0.1044921875,0.05810546875,1.0,-0.25,0.4375,0.6875
2.079999999999978,-1.0,0.0,-5.0,-3.0,-2.0,-2.0,0.0,0.0,0.006591796875,0.05841064453125,0.469970703125,0.88067626953125,-0.1044921875,0.05810546875,1.0,-0.25,0.4375,0.6875
2.0849999999999778,0.0,-1.0,7.0,3.0,0.0,-1.0,-1.0,1.0,0.00653076171875,0.05841064453125,0.469970703125,0.88067626953125,-0.09716796875,0.05859375,0.99853515625,0.3125,0.125,0.0625
2.0899999999999777,0.0,-2.0,2.0,6.0,0.0,-1.0,1.0,-1.0,0.00653076171875,0.05841064453125,0.469970703125,0.88067626953125,-0.09716796875,0.05859375,0.99853515625,0.3125,0.125,0.0625
2.0949999999999775,1.0,2.0,-1.0,-13.0,-4.0,-1.0,-1.0,0.0,0.0067138671875,0.05853271484375,0.47003173828125,0.880615234375,-0.09912109375,0.06884765625,0.99462890625,1.0,0.0625,0.4375
2.0999999999999774,1.0,2.0,-1.0,-13.0,-4.0,-1.0,-1.0,0.0,0.0067138671875,0.05853271484375,0.47003173828125,0.880615234375,-0.09912109375,0.06884765625,0.99462890625,1.0,0.0625,0.4375
2.1049999999999773,-1.0,4.0,1.0,3.0,-3.0,-1.0,-1.0,-1.0,0.0067138671875,0.05853271484375,0.47003173828125,0.880615234375,-0.1083984375,0.06982421875,1.0,-0.1875,-0.5625,0.3125
2.1099999999999772,0.0,-1.0,1.0,1.0,1.0,-2.0,0.0,0.0,0.0067138671875,0.05853271484375,0.47003173828125,0.880615234375,-0.1005859375,0.06591796875,1.0078125,-1.0,-0.4375,-0.125
2.114999999999977,-3.0,-3.0,0.0,3.0,-1.0,0.0,-2.0,-1.0,0.00665283203125,0.05853271484375,0.47003173828125,0.880615234375,-0.09423828125,0.0556640625,1.00146484375,-0.125,-0.125,0.0
2.119999999999977,0.0,-2.0,-15.0,2.0,1.0,-2.0,0.0,-2.0,0.00665283203125,0.05853271484375,0.47003173828125,0.880615234375,-0.09423828125,0.0556640625,1.00146484375,-0.125,-0.125,0.0
2.124999999999977,0.0,-2.0,-15.0,2.0,1.0,-2.0,0.0,-2.0,0.00665283203125,0.05853271484375,0.47003173828125,0.880615234375,-0.09423828125,0.0556640625,1.00146484375,-0.125,-0.125,0.0
2.129999999999977,-3.0,-3.0,-8.0,23.0,3.0,-1.0,-1.0,-3.0,0.0067138671875,0.05853271484375,0.47003173828125,0.880615234375,-0.0947265625,0.06640625,1.00048828125,0.75,0.1875,-0.3125
2.1349999999999767,-3.0,-2.0,1.0,-3.0,-1.0,-1.0,-2.0,-2.0,0.0067138671875,0.05853271484375,0.47003173828125,0.880615234375,-0.0947265625,0.06640625,1.00048828125,0.75,0.1875,-0.3125
2.1399999999999766,1.0,-1.0,-1.0,-5.0,0.0,-2.0,0.0,0.0,0.00665283203125,0.05853271484375,0.47003173828125,0.880615234375,-0.09765625,0.064453125,0.99609375,-0.4375,0.3125,-0.1875
2.1449999999999765,1.0,-1.0,-1.0,-5.0,0.0,-2.0,0.0,0.0,0.00665283203125,0.05853271484375,0.47003173828125,0.880615234375,-0.09765625,0.064453125,0.99609375,-0.4375,0.3125,-0.1875
2.1499999999999764,1.0,-5.0,-20.0,-5.0,-2.0,-1.0,0.0,-2.0,0.00665283203125,0.05853271484375,0.47003173828125,0.880615234375,-0.1044921875,0.05810546875,0.99267578125,-0.6875,0.5625,0.0
2.1549999999999763,-1.0,4.0,9.0,-8.0,-4.0,-3.0,-3.0,-2.0,0.00665283203125,0.05853271484375,0.47003173828125,0.880615234375,-0.1044921875,0.05810546875,0.99267578125,-0.6875,0.5625,0.0
2.159999999999976,-2.0,2.0,12.0,3.0,0.0,-1.0,-1.0,-1.0,0.006591796875,0.05853271484375,0.47003173828125,0.880615234375,-0.10546875,0.05517578125,1.00146484375,-0.0625,0.5625,-0.0625
2.164999999999976,-3.0,-3.0,-5.0,1.0,-2.0,-2.0,-1.0,0.0,0.006591796875,0.05853271484375,0.47003173828125,0.880615234375,-0.10546875,0.05517578125,1.00146484375,-0.0625,0.5625,-0.0625
2.169999999999976,-3.0,-3.0,-5.0,1.0,-2.0,-2.0,-1.0,0.0,0.006591796875,0.05853271484375,0.47003173828125,0.880615234375,-0.10546875,0.05517578125,1.00146484375,-0.0625,0.5625,-0.0625
2.174999999999976,-2.0,-1.0,11.0,-2.0,-1.0,-1.0,-1.0,-2.0,0.006591796875,0.05853271484375,0.47003173828125,0.880615234375,-0.10107421875,0.05908203125,1.001953125,0.625,0.375,-0.25
2.1799999999999757,-2.0,0.0,-7.0,-8.0,-5.0,-3.0,-1.0,-4.0,0.006591796875,0.05853271484375,0.47003173828125,0.880615234375,-0.10009765625,0.06201171875,0.9931640625,0.4375,0.25,-0.1875
2.1849999999999756,-2.0,0.0,-7.0,-8.0,-5.0,-3.0,-1.0,-4.0,0.006591796875,0.05853271484375,0.47003173828125,0.880615234375,-0.10009765625,0.06201171875,0.9931640625,0.4375,0.25,-0.1875
2.1899999999999755,-1.0,-1.0,1.0,-2.0,0.0,0.0,-2.0,0.0,0.00653076171875,0.05853271484375,0.47003173828125,0.880615234375,-0.10546875,0.0634765625,0.9912109375,0.25,0.1875,-0.0625
2.1949999999999754,-1.0,-5.0,9.0,4.0,0.0,0.0,-1.0,0.0,0.00653076171875,0.05859375,0.47003173828125,0.880615234375,-0.10546875,0.06640625,0.998046875,0.3125,-0.25,0.0
2.1999999999999753,0.0,5.0,7.0,-12.0,0.0,0.0,-1.0,-1.0,0.00653076171875,0.05859375,0.47003173828125,0.880615234375,-0.10546875,0.06640625,0.998046875,0.3125,-0.25,0.0
2.204999999999975,-1.0,0.0,-4.0,-1.0,1.0,0.0,-2.0,-1.0,0.00653076171875,0.05859375,0.47003173828125,0.880615234375,-0.1005859375,0.0595703125,1.0009765625,0.4375,-0.625,-0.3125
2.209999999999975,-1.0,0.0,-4.0,-1.0,1.0,0.0,-2.0,-1.0,0.00653076171875,0.05859375,0.47003173828125,0.880615234375,-0.1005859375,0.0595703125,1.0009765625,0.4375,-0.625,-0.3125
2.214999999999975,0.0,-2.0,-4.0,3.0,-2.0,-2.0,0.0,-1.0,0.0064697265625,0.05853271484375,0.47003173828125,0.88067626953125,-0.09912109375,0.05712890625,0.99267578125,0.75,-0.875,0.0625
2.219999999999975,-6.0,-15.0,-4.0,1.0,0.0,-2.0,0.0,-5.0,0.0064697265625,0.05853271484375,0.47003173828125,0.88067626953125,-0.09912109375,0.05712890625,0.99267578125,0.75,-0.875,0.0625
2.2249999999999748,-6.0,-15.0,-4.0,1.0,0.0,-2.0,0.0,-5.0,0.0064697265625,0.05853271484375,0.47003173828125,0.88067626953125,-0.09912109375,0.05712890625,0.99267578125,0.75,-0.875,0.0625
2.2299999999999747,3.0,2.0,2.0,0.0,-1.0,-1.0,1.0,1.0,0.00665283203125,0.05841064453125,0.4700927734375,0.880615234375,-0.095703125,0.0634765625,0.99853515625,0.6875,-1.125,0.4375
2.2349999999999746,0.0,0.0,2.0,-18.0,-6.0,-2.0,0.0,-1.0,0.00665283203125,0.05841064453125,0.4700927734375,0.880615234375,-0.095703125,0.0634765625,0.99853515625,0.6875,-1.125,0.4375
2.2399999999999745,0.0,5.0,-2.0,-1.0,-1.0,1.0,0.0,0.0,0.006591796875,0.05841064453125,0.4700927734375,0.880615234375,-0.10009765625,0.06005859375,1.00048828125,0.5,-0.875,0.875
2.2449999999999743,0.0,5.0,-2.0,-1.0,-1.0,1.0,0.0,0.0,0.006591796875,0.05841064453125,0.4700927734375,0.880615234375,-0.10009765625,0.06005859375,1.00048828125,0.5,-0.875,0.875
2.2499999999999742,-5.0,-12.0,-22.0,-7.0,-5.0,-1.0,-3.0,-1.0,0.006591796875,0.05841064453125,0.4700927734375,0.880615234375,-0.09912109375,0.05517578125,1.0009765625,0.75,-0.6875,0.875
2.254999999999974,-2.0,-1.0,2.0,-1.0,0.0,0.0,-2.0,0.0,0.006591796875,0.05841064453125,0.4700927734375,0.880615234375,-0.09912109375,0.05517578125,1.0009765625,0.75,-0.6875,0.875
2.259999999999974,-2.0,1.0,-2.0,0.0,1.0,-1.0,0.0,-2.0,0.00689697265625,0.058349609375,0.4700927734375,0.880615234375,-0.09033203125,0.06591796875,1.0029296875,1.5,-0.4375,0.375
2.264999999999974,1.0,2.0,4.0,2.0,-1.0,-2.0,0.0,0.0,0.00689697265625,0.058349609375,0.4700927734375,0.880615234375,-0.09033203125,0.06591796875,1.0029296875,1.5,-0.4375,0.375
2.269999999999974,-1.0,-2.0,9.0,20.0,5.0,-1.0,-1.0,-2.0,0.0072021484375,0.05841064453125,0.47027587890625,0.8804931640625,-0.0927734375,0.0703125,0.9912109375,1.5,-0.5,0.9375
2.2749999999999737,-1.0,-2.0,9.0,20.0,5.0,-1.0,-1.0,-2.0,0.0072021484375,0.05841064453125,0.47027587890625,0.8804931640625,-0.0927734375,0.0703125,0.9912109375,1.5,-0.5,0.9375
2.2799999999999736,0.0,-2.0,-15.0,0.0,0.0,0.0,0.0,-2.0,0.0072021484375,0.05841064453125,0.47027587890625,0.8804931640625,-0.09326171875,0.05810546875,0.99658203125,-0.3125,-0.25,0.75
2.2849999999999735,2.0,4.0,9.0,7.0,1.0,-1.0,-1.0,-2.0,0.0072021484375,0.058349609375,0.47027587890625,0.8804931640625,-0.09716796875,0.06005859375,0.994140625,0.75,-0.25,0.8125
2.2899999999999734,-1.0,3.0,6.0,-6.0,-3.0,-2.0,-1.0,-1.0,0.0072021484375,0.058349609375,0.47027587890625,0.8804931640625,-0.09716796875,0.06005859375,0.994140625,0.75,-0.25,0.8125
2.2949999999999733,-2.0,0.0,1.0,-2.0,-3.0,-2.0,0.0,0.0,0.0074462890625,0.05859375,0.4703369140625,0.88043212890625,-0.10400390625,0.0673828125,1.0,2.0,-0.1875,0.75
2.299999999999973,1.0,2.0,7.0,27.0,6.0,-2.0,1.0,1.0,0.00762939453125,0.05865478515625,0.4703369140625,0.88043212890625,-0.10205078125,0.06591796875,0.99755859375,1.125,-0.3125,0.25
2.304999999999973,-2.0,-6.0,-32.0,-10.0,-3.0,0.0,-1.0,0.0,0.007568359375,0.05865478515625,0.4703369140625,0.88043212890625,-0.09765625,0.06787109375,1.00390625,0.875,-0.4375,0.625
2.309999999999973,0.0,4.0,-5.0,-6.0,-3.0,-2.0,-2.0,-1.0,0.007568359375,0.05865478515625,0.4703369140625,0.88043212890625,-0.09765625,0.06787109375,1.00390625,0.875,-0.4375,0.625
2.314999999999973,0.0,4.0,-5.0,-6.0,-3.0,-2.0,-2.0,-1.0,0.007568359375,0.05865478515625,0.4703369140625,0.88043212890625,-0.09765625,0.06787109375,1.00390625,0.875,-0.4375,0.625
2.3199999999999728,-1.0,-3.0,1.0,-6.0,-4.0,-2.0,-2.0,-3.0,0.007568359375,0.05865478515625,0.4703369140625,0.88043212890625,-0.09814453125,0.068359375,0.9951171875,-0.3125,0.0,0.5625
2.3249999999999726,-1.0,-3.0,1.0,-6.0,-4.0,-2.0,-2.0,-3.0,0.007568359375,0.05865478515625,0.4703369140625,0.88043212890625,-0.09814453125,0.068359375,0.9951171875,-0.3125,0.0,0.5625
2.3299999999999725,-2.0,-9.0,-3.0,-6.0,0.0,2.0,-1.0,-2.0,0.007568359375,0.0587158203125,0.4703369140625,0.88043212890625,-0.1025390625,0.0615234375,0.99609375,0.1875,0.0,0.625
2.3349999999999724,1.0,1.0,14.0,-5.0,0.0,0.0,-3.0,-2.0,0.007568359375,0.0587158203125,0.4703369140625,0.88043212890625,-0.1025390625,0.0615234375,0.99609375,0.1875,0.0,0.625
2.3399999999999723,1.0,2.0,10.0,-3.0,-3.0,-3.0,-1.0,-1.0,0.0076904296875,0.05877685546875,0.470458984375,0.88037109375,-0.09716796875,0.0654296875,0.9921875,1.0625,-0.0625,0.5625
2.344999999999972,-4.0,-2.0,-22.0,-17.0,-6.0,-2.0,-2.0,0.0,0.0076904296875,0.05877685546875,0.470458984375,0.88037109375,-0.09716796875,0.0654296875,0.9921875,1.0625,-0.0625,0.5625
2.349999999999972,-3.0,4.0,2.0,-2.0,-1.0,0.0,-2.0,-2.0,0.0076904296875,0.05877685546875,0.470458984375,0.88037109375,-0.09521484375,0.06787109375,1.001953125,-0.0625,-0.0625,0.75
2.354999999999972,-3.0,4.0,2.0,-2.0,-1.0,0.0,-2.0,-2.0,0.0076904296875,0.05877685546875,0.470458984375,0.88037109375,-0.09521484375,0.06787109375,1.001953125,-0.0625,-0.0625,0.75
2.359999999999972,0.0,-4.0,-18.0,-2.0,-2.0,0.0,-1.0,-1.0,0.0076904296875,0.0587158203125,0.470458984375,0.88037109375,-0.0966796875,0.060546875,0.99609375,-0.1875,-0.1875,0.875
2.364999999999972,-1.0,1.0,-5.0,-5.0,-1.0,0.0,0.0,0.0,0.0076904296875,0.0587158203125,0.470458984375,0.88037109375,-0.0966796875,0.060546875,0.99609375,-0.1875,-0.1875,0.875
2.3699999999999717,-1.0,-6.0,-6.0,10.0,3.0,-1.0,-1.0,-2.0,0.0076904296875,0.0587158203125,0.470458984375,0.88037109375,-0.09716796875,0.06689453125,0.99365234375,0.5625,-0.1875,0.5625
2.3749999999999716,-1.0,4.0,3.0,-2.0,-3.0,-2.0,0.0,-2.0,0.0076904296875,0.0587158203125,0.470458984375,0.88037109375,-0.09326171875,0.06884765625,1.00341796875,0.875,-0.375,0.5625
2.3799999999999715,-4.0,-5.0,1.0,-8.0,-2.0,-1.0,-2.0,0.0,0.0076904296875,0.0587158203125,0.470458984375,0.88037109375,-0.09326171875,0.06884765625,1.00341796875,0.875,-0.375,0.5625
2.3849999999999714,-2.0,-4.0,-5.0,-4.0,-3.0,-1.0,-1.0,0.0,0.0076904296875,0.0587158203125,0.470458984375,0.88037109375,-0.09814453125,0.07275390625,1.00146484375,0.4375,-0.375,0.8125
2.3899999999999713,-1.0,0.0,4.0,4.0,-1.0,0.0,0.0,-2.0,0.0076904296875,0.0587158203125,0.470458984375,0.88037109375,-0.09765625,0.0673828125,0.9990234375,0.0625,-0.5,0.625
2.394999999999971,-4.0,0.0,7.0,6.0,1.0,-3.0,-3.0,-3.0,0.0076904296875,0.0587158203125,0.470458984375,0.88037109375,-0.09765625,0.0673828125,0.9990234375,0.0625,-0.5,0.625
2.399999999999971,0.0,0.0,-6.0,-1.0,1.0,-1.0,0.0,-1.0,0.0076904296875,0.05877685546875,0.470458984375,0.88037109375,-0.099609375,0.0673828125,0.9921875,0.4375,-0.4375,0.1875
2.404999999999971,-4.0,-10.0,-3.0,-2.0,-3.0,-1.0,-1.0,-1.0,0.0079345703125,0.05877685546875,0.470458984375,0.88037109375,-0.099609375,0.068359375,1.00341796875,1.4375,-0.625,0.3125
2.409999999999971,0.0,-2.0,8.0,-3.0,0.0,-1.0,-1.0,-1.0,0.0079345703125,0.05877685546875,0.470458984375,0.88037109375,-0.099609375,0.068359375,1.00341796875,1.4375,-0.625,0.3125
2.4149999999999707,1.0,0.0,11.0,-5.0,-2.0,0.0,0.0,-1.0,0.00823974609375,0.058837890625,0.47052001953125,0.88037109375,-0.0966796875,0.07373046875,0.9951171875,1.1875,-0.75,0.3125
2.4199999999999706,0.0,-2.0,6.0,8.0,3.0,0.0,0.0,-1.0,0.00823974609375,0.05877685546875,0.47052001953125,0.88037109375,-0.087890625,0.0712890625,0.9990234375,0.0,-0.5625,0.125
2.4249999999999705,-1.0,1.0,-9.0,-2.0,-1.0,-1.0,-1.0,-2.0,0.00823974609375,0.05877685546875,0.47052001953125,0.88037109375,-0.09228515625,0.06640625,0.99169921875,0.5625,-0.3125,0.0625
2.4299999999999704,-1.0,-7.0,4.0,-7.0,-3.0,-1.0,-1.0,-1.0,0.00823974609375,0.05877685546875,0.47052001953125,0.88037109375,-0.09228515625,0.06640625,0.99169921875,0.5625,-0.3125,0.0625
2.4349999999999703,-1.0,-7.0,4.0,-7.0,-3.0,-1.0,-1.0,-1.0,0.00823974609375,0.05877685546875,0.47052001953125,0.88037109375,-0.09228515625,0.06640625,0.99169921875,0.5625,-0.3125,0.0625
2.43999999999997,0.0,4.0,2.0,2.0,-1.0,-2.0,-1.0,-2.0,0.00823974609375,0.05877685546875,0.47052001953125,0.88037109375,-0.095703125,0.07275390625,0.9951171875,0.5625,-0.125,-0.25
2.44499999999997,-1.0,-1.0,-19.0,0.0,-3.0,-1.0,-1.0,-2.0,0.00823974609375,0.05877685546875,0.47052001953125,0.88037109375,-0.095703125,0.07275390625,0.9951171875,0.5625,-0.125,-0.25
2.44999999999997,-2.0,1.0,4.0,17.0,4.0,-3.0,-2.0,-2.0,0.00823974609375,0.05877685546875,0.47052001953125,0.88037109375,-0.0947265625,0.07275390625,0.9970703125,-0.3125,-0.1875,-0.375
2.45499999999997,-2.0,1.0,4.0,17.0,4.0,-3.0,-2.0,-2.0,0.00823974609375,0.05877685546875,0.47052001953125,0.88037109375,-0.0947265625,0.07275390625,0.9970703125,-0.3125,-0.1875,-0.375
2.4599999999999698,1.0,-1.0,-10.0,-14.0,-6.0,-1.0,-2.0,1.0,0.00823974609375,0.05877685546875,0.47052001953125,0.88037109375,-0.095703125,0.07080078125,1.00048828125,-0.4375,-0.0625,-0.4375
2.4649999999999697,-1.0,3.0,0.0,3.0,0.0,-1.0,0.0,0.0,0.00823974609375,0.05877685546875,0.47052001953125,0.88037109375,-0.095703125,0.07080078125,1.00048828125,-0.4375,-0.0625,-0.4375
2.4699999999999696,-1.0,3.0,0.0,3.0,0.0,-1.0,0.0,0.0,0.00823974609375,0.05877685546875,0.47052001953125,0.88037109375,-0.0927734375,0.06494140625,0.99951171875,-0.5,-0.1875,-0.5
2.4749999999999694,0.0,4.0,13.0,2.0,-1.0,-1.0,-3.0,-1.0,0.00823974609375,0.05877685546875,0.47052001953125,0.88037109375,-0.09521484375,0.06640625,0.9931640625,-0.5,-0.1875,-0.5
2.4799999999999693,-3.0,-3.0,-1.0,-3.0,-3.0,0.0,0.0,-1.0,0.00823974609375,0.05877685546875,0.47052001953125,0.88037109375,-0.09521484375,0.06640625,0.9931640625,-0.5,-0.1875,-0.5
2.4849999999999692,0.0,-2.0,-2.0,-7.0,-2.0,0.0,0.0,0.0,0.00823974609375,0.05877685546875,0.47052001953125,0.88037109375,-0.09619140625,0.06591796875,0.998046875,0.0625,-0.1875,-0.25
2.489999999999969,0.0,3.0,13.0,-5.0,-1.0,0.0,0.0,0.0,0.00823974609375,0.05877685546875,0.47052001953125,0.88037109375,-0.09619140625,0.06591796875,0.998046875,0.0625,-0.1875,-0.25
2.494999999999969,-3.0,-1.0,-4.0,2.0,-1.0,-2.0,-3.0,0.0,0.0081787109375,0.05877685546875,0.47052001953125,0.88037109375,-0.0986328125,0.06591796875,0.99560546875,0.625,-0.125,-0.0625
2.499999999999969,-2.0,-12.0,-28.0,1.0,-1.0,-2.0,-3.0,-1.0,0.0081787109375,0.05877685546875,0.47052001953125,0.88037109375,-0.09716796875,0.068359375,0.99951171875,0.25,-0.375,0.1875
2.504999999999969,2.0,-2.0,-4.0,-4.0,0.0,-1.0,0.0,0.0,0.0081787109375,0.05877685546875,0.47052001953125,0.88037109375,-0.09716796875,0.068359375,0.99951171875,0.25,-0.375,0.1875
2.5099999999999687,-2.0,-1.0,10.0,6.0,1.0,-2.0,-1.0,-2.0,0.0081787109375,0.0587158203125,0.47052001953125,0.88037109375,-0.09619140625,0.0654296875,0.998046875,0.375,-0.25,0.3125
2.5149999999999686,-1.0,0.0,7.0,-3.0,-2.0,-1.0,-1.0,-1.0,0.0081787109375,0.0587158203125,0.47052001953125,0.88037109375,-0.09619140625,0.0654296875,0.998046875,0.375,-0.25,0.3125
2.5199999999999685,-1.0,0.0,3.0,-6.0,-2.0,-2.0,-1.0,-2.0,0.0081787109375,0.0587158203125,0.47052001953125,0.88037109375,-0.095703125,0.06591796875,0.9970703125,0.875,-0.3125,0.375
2.5249999999999684,-1.0,0.0,3.0,-6.0,-2.0,-2.0,-1.0,-2.0,0.0081787109375,0.0587158203125,0.47052001953125,0.88037109375,-0.095703125,0.06591796875,0.9970703125,0.875,-0.3125,0.375
2.5299999999999683,-1.0,0.0,-4.0,3.0,-3.0,-2.0,0.0,-1.0,0.0081787109375,0.0587158203125,0.47052001953125,0.88037109375,-0.0966796875,0.06787109375,1.00048828125,0.8125,-0.5,0.25
2.534999999999968,-3.0,-3.0,8.0,-2.0,-2.0,0.0,0.0,-3.0,0.0081787109375,0.0587158203125,0.47052001953125,0.88037109375,-0.0966796875,0.06787109375,1.00048828125,0.8125,-0.5,0.25
2.539999999999968,-3.0,-3.0,8.0,-2.0,-2.0,0.0,0.0,-3.0,0.0081787109375,0.0587158203125,0.47052001953125,0.88037109375,-0.0947265625,0.07080078125,0.99560546875,0.4375,-0.625,0.1875
2.544999999999968,2.0,2.0,-5.0,-4.0,-3.0,-1.0,0.0,-1.0,0.0081787109375,0.0587158203125,0.47052001953125,0.88037109375,-0.0947265625,0.07080078125,0.99560546875,0.4375,-0.625,0.1875
2.549999999999968,0.0,1.0,0.0,2.0,0.0,1.0,1.0,0.0,0.0081787109375,0.0587158203125,0.47052001953125,0.88037109375,-0.09521484375,0.06982421875,1.001953125,0.25,-0.75,0.125
2.5549999999999677,-2.0,-3.0,-8.0,-1.0,-2.0,-1.0,-1.0,-1.0,0.0081787109375,0.0587158203125,0.47052001953125,0.88037109375,-0.0908203125,0.0703125,0.998046875,0.625,-0.6875,0.0625
2.5599999999999676,0.0,3.0,4.0,-9.0,2.0,1.0,0.0,-1.0,0.0081787109375,0.0587158203125,0.47052001953125,0.88037109375,-0.0908203125,0.0703125,0.998046875,0.625,-0.6875,0.0625
2.5649999999999675,0.0,3.0,4.0,-9.0,2.0,1.0,0.0,-1.0,0.0081787109375,0.0587158203125,0.47052001953125,0.88037109375,-0.0908203125,0.0703125,0.998046875,0.625,-0.6875,0.0625
2.5699999999999674,-1.0,-2.0,4.0,-8.0,-3.0,-3.0,-3.0,-1.0,0.00823974609375,0.0587158203125,0.47052001953125,0.88037109375,-0.0947265625,0.076171875,0.994140625,0.375,-0.6875,-0.125
2.5749999999999673,-2.0,-3.0,-2.0,-4.0,-5.0,-1.0,-1.0,-3.0,0.00823974609375,0.0587158203125,0.47052001953125,0.88037109375,-0.0947265625,0.076171875,0.994140625,0.375,-0.6875,-0.125
2.579999999999967,-3.0,2.0,-5.0,-3.0,-2.0,-1.0,1.0,1.0,0.00823974609375,0.0587158203125,0.47052001953125,0.88037109375,-0.0947265625,0.076171875,0.994140625,0.375,-0.6875,-0.125
2.584999999999967,-3.0,2.0,-5.0,-3.0,-2.0,-1.0,1.0,1.0,0.00823974609375,0.0587158203125,0.47052001953125,0.88037109375,-0.095703125,0.06884765625,1.0029296875,-0.25,-0.3125,0.1875
2.589999999999967,2.0,4.0,-3.0,-2.0,-1.0,-1.0,0.0,0.0,0.00823974609375,0.0587158203125,0.47052001953125,0.88037109375,-0.095703125,0.06884765625,1.0029296875,-0.25,-0.3125,0.1875
2.594999999999967,-1.0,0.0,3.0,-2.0,-1.0,-2.0,-1.0,-2.0,0.0081787109375,0.0587158203125,0.47052001953125,0.88037109375,-0.09423828125,0.06689453125,0.99853515625,-0.375,-0.125,-0.0625
2.599999999999967,-1.0,0.0,3.0,-2.0,-1.0,-2.0,-1.0,-2.0,0.0081787109375,0.0587158203125,0.47052001953125,0.88037109375,-0.09423828125,0.06689453125,0.99853515625,-0.375,-0.125,-0.0625
2.6049999999999667,0.0,3.0,-1.0,5.0,-1.0,-1.0,-2.0,-1.0,0.0081787109375,0.0587158203125,0.47052001953125,0.88037109375,-0.09375,0.06494140625,0.9931640625,-0.25,0.1875,-0.375
2.6099999999999666,0.0,3.0,-1.0,5.0,-1.0,-1.0,-2.0,-1.0,0.0081787109375,0.0587158203125,0.47052001953125,0.88037109375,-0.09375,0.06494140625,0.9931640625,-0.25,0.1875,-0.375
2.6149999999999665,-2.0,-3.0,-4.0,0.0,-1.0,-1.0,-1.0,-2.0,0.00823974609375,0.05865478515625,0.47052001953125,0.88037109375,-0.087890625,0.07373046875,0.9921875,-0.375,0.0625,-0.125
2.6199999999999664,0.0,1.0,2.0,-1.0,-2.0,-2.0,-1.0,0.0,0.00823974609375,0.05865478515625,0.47052001953125,0.88037109375,-0.0947265625,0.06640625,0.99853515625,-0.1875,0.125,0.0
2.6249999999999662,-1.0,0.0,-2.0,5.0,3.0,1.0,-1.0,0.0,0.00823974609375,0.05865478515625,0.47052001953125,0.88037109375,-0.0947265625,0.06640625,0.99853515625,-0.1875,0.125,0.0
2.629999999999966,-1.0,0.0,-2.0,5.0,3.0,1.0,-1.0,0.0,0.00823974609375,0.05865478515625,0.47052001953125,0.88037109375,-0.0947265625,0.06640625,0.99853515625,-0.1875,0.125,0.0
2.634999999999966,0.0,-2.0,12.0,-8.0,-1.0,-1.0,-3.0,0.0,0.0081787109375,0.05865478515625,0.47052001953125,0.88037109375,-0.1005859375,0.06591796875,0.99462890625,0.3125,-0.3125,0.0
2.639999999999966,-1.0,-1.0,3.0,-2.0,-3.0,-2.0,0.0,0.0,0.0081787109375,0.05865478515625,0.47052001953125,0.88037109375,-0.1005859375,0.06591796875,0.99462890625,0.3125,-0.3125,0.0
2.644999999999966,-2.0,-3.0,-8.0,10.0,6.0,-3.0,-1.0,-1.0,0.0081787109375,0.0587158203125,0.47052001953125,0.88037109375,-0.1025390625,0.07470703125,0.99853515625,0.625,-0.3125,-0.125
2.6499999999999657,-1.0,-2.0,-4.0,-8.0,-2.0,0.0,-1.0,-2.0,0.0081787109375,0.0587158203125,0.47052001953125,0.88037109375,-0.1025390625,0.07470703125,0.99853515625,0.625,-0.3125,-0.125
2.6549999999999656,-2.0,0.0,-5.0,-12.0,-4.0,-1.0,-1.0,-1.0,0.0081787109375,0.0587158203125,0.47052001953125,0.88037109375,-0.09765625,0.06640625,0.994140625,0.0625,-0.4375,0.0625
2.6599999999999655,-2.0,-3.0,-4.0,-1.0,-2.0,-1.0,2.0,-1.0,0.0081787109375,0.0587158203125,0.47052001953125,0.88037109375,-0.09765625,0.06640625,0.994140625,0.0625,-0.4375,0.0625
2.6649999999999654,-2.0,-3.0,-4.0,-1.0,-2.0,-1.0,2.0,-1.0,0.0081787109375,0.0587158203125,0.47052001953125,0.88037109375,-0.09765625,0.06640625,0.994140625,0.0625,-0.4375,0.0625
2.6699999999999653,-1.0,3.0,-4.0,-6.0,-2.0,-2.0,0.0,-1.0,0.0081787109375,0.05865478515625,0.47052001953125,0.88037109375,-0.091796875,0.06787109375,0.994140625,0.125,-0.5625,0.25
2.674999999999965,-1.0,4.0,-3.0,-5.0,-2.0,0.0,-2.0,0.0,0.0081787109375,0.05865478515625,0.47052001953125,0.88037109375,-0.091796875,0.06787109375,0.994140625,0.125,-0.5625,0.25
2.679999999999965,1.0,-2.0,-3.0,26.0,5.0,-2.0,1.0,0.0,0.0081787109375,0.05865478515625,0.47052001953125,0.88037109375,-0.09423828125,0.06982421875,1.0029296875,0.9375,-0.5625,0.1875
2.684999999999965,0.0,-2.0,3.0,-4.0,-3.0,-2.0,-1.0,-3.0,0.0081787109375,0.05865478515625,0.47052001953125,0.88037109375,-0.09423828125,0.06982421875,1.0029296875,0.9375,-0.5625,0.1875
2.689999999999965,-2.0,-1.0,-3.0,-9.0,-4.0,-1.0,-1.0,-1.0,0.0081787109375,0.05865478515625,0.47052001953125,0.88037109375,-0.09423828125,0.06982421875,1.0029296875,0.9375,-0.5625,0.1875
2.6949999999999648,-2.0,3.0,1.0,-6.0,-1.0,-1.0,1.0,-1.0,0.00823974609375,0.05865478515625,0.47052001953125,0.88037109375,-0.08740234375,0.07177734375,1.00732421875,0.5625,-0.4375,0.375
2.6999999999999647,-2.0,0.0,-16.0,-6.0,-3.0,-1.0,-1.0,0.0,0.00823974609375,0.05865478515625,0.47052001953125,0.88037109375,-0.08740234375,0.07177734375,1.00732421875,0.5625,-0.4375,0.375
2.7049999999999645,1.0,1.0,7.0,3.0,2.0,1.0,2.0,0.0,0.00823974609375,0.05859375,0.47052001953125,0.88037109375,-0.0888671875,0.0693359375,1.0009765625,0.9375,-0.375,0.5625
2.7099999999999644,0.0,-2.0,-6.0,-17.0,1.0,-1.0,-2.0,-1.0,0.00823974609375,0.05859375,0.47052001953125,0.88037109375,-0.0927734375,0.07080078125,0.998046875,0.4375,0.0,0.4375
2.7149999999999643,-1.0,-2.0,4.0,-8.0,-3.0,0.0,0.0,-2.0,0.00823974609375,0.05859375,0.47052001953125,0.88037109375,-0.0927734375,0.07080078125,0.998046875,0.4375,0.0,0.4375
2.7199999999999642,0.0,1.0,5.0,-1.0,-2.0,-1.0,-2.0,-1.0,0.00823974609375,0.05859375,0.47052001953125,0.88037109375,-0.095703125,0.07373046875,1.00048828125,0.125,0.0625,0.3125
2.724999999999964,0.0,1.0,5.0,-1.0,-2.0,-1.0,-2.0,-1.0,0.00823974609375,0.05859375,0.47052001953125,0.88037109375,-0.095703125,0.07373046875,1.00048828125,0.125,0.0625,0.3125
2.729999999999964,1.0,-3.0,-1.0,1.0,-2.0,-2.0,-1.0,-2.0,0.00823974609375,0.05859375,0.47052001953125,0.88037109375,-0.095703125,0.072265625,0.9951171875,-0.0625,0.25,0.1875
2.734999999999964,-1.0,-5.0,-7.0,6.0,2.0,-1.0,0.0,0.0,0.00830078125,0.05859375,0.47052001953125,0.88037109375,-0.0908203125,0.07373046875,0.998046875,-0.5,0.375,0.0
2.739999999999964,-1.0,3.0,1.0,4.0,1.0,0.0,0.0,0.0,0.00830078125,0.05859375,0.47052001953125,0.88037109375,-0.0908203125,0.07373046875,0.998046875,-0.5,0.375,0.0
2.7449999999999637,-1.0,-1.0,9.0,-6.0,-3.0,-1.0,-2.0,-2.0,0.00830078125,0.05859375,0.47052001953125,0.88037109375,-0.0927734375,0.0712890625,0.99658203125,-0.375,0.1875,-0.0625
2.7499999999999636,-1.0,-2.0,-4.0,2.0,3.0,1.0,0.0,-2.0,0.00830078125,0.05859375,0.47052001953125,0.88037109375,-0.0927734375,0.0712890625,0.99658203125,-0.375,0.1875,-0.0625
2.7549999999999635,-1.0,3.0,-3.0,-5.0,-2.0,-2.0,-1.0,0.0,0.00830078125,0.05859375,0.47052001953125,0.88037109375,-0.09326171875,0.06640625,0.9951171875,0.25,-0.0625,-0.25
2.7599999999999634,-1.0,-6.0,-1.0,-9.0,-4.0,-2.0,-2.0,-1.0,0.00830078125,0.05859375,0.47052001953125,0.88037109375,-0.09326171875,0.06640625,0.9951171875,0.25,-0.0625,-0.25
2.7649999999999633,-1.0,-6.0,-1.0,-9.0,-4.0,-2.0,-2.0,-1.0,0.00830078125,0.05859375,0.47052001953125,0.88037109375,-0.09326171875,0.06640625,0.9951171875,0.25,-0.0625,-0.25
2.769999999999963,-2.0,-2.0,-4.0,0.0,-2.0,-1.0,-1.0,-3.0,0.00830078125,0.05859375,0.47052001953125,0.88037109375,-0.09814453125,0.07421875,0.99609375,0.1875,-0.0625,0.0
2.774999999999963,0.0,-7.0,12.0,3.0,1.0,-2.0,-1.0,0.0,0.00830078125,0.05859375,0.47052001953125,0.88037109375,-0.09716796875,0.0703125,0.99072265625,-0.5625,-0.125,-0.25
2.779999999999963,0.0,-7.0,12.0,3.0,1.0,-2.0,-1.0,0.0,0.00830078125,0.05859375,0.47052001953125,0.88037109375,-0.09716796875,0.0703125,0.99072265625,-0.5625,-0.125,-0.25
2.784999999999963,0.0,-2.0,-2.0,-4.0,2.0,1.0,-2.0,-1.0,0.00830078125,0.05859375,0.47052001953125,0.88037109375,-0.08984375,0.0654296875,0.99560546875,-0.4375,-0.125,-0.5
2.7899999999999627,0.0,7.0,-3.0,4.0,-1.0,0.0,0.0,2.0,0.00830078125,0.05859375,0.47052001953125,0.88037109375,-0.08984375,0.0654296875,0.99560546875,-0.4375,-0.125,-0.5
2.7949999999999626,0.0,-1.0,-5.0,-3.0,-3.0,-2.0,-1.0,-2.0,0.00830078125,0.05859375,0.47052001953125,0.88037109375,-0.09130859375,0.0703125,0.998046875,-0.1875,0.0625,-0.1875
2.7999999999999625,-3.0,-2.0,-4.0,-10.0,1.0,-2.0,-1.0,0.0,0.00830078125,0.05859375,0.47052001953125,0.88037109375,-0.09912109375,0.07373046875,0.9951171875,-0.0625,0.1875,-0.0625
2.8049999999999624,-1.0,-1.0,-10.0,-7.0,-3.0,-2.0,-2.0,-2.0,0.00830078125,0.05859375,0.47052001953125,0.88037109375,-0.09912109375,0.07373046875,0.9951171875,-0.0625,0.1875,-0.0625
2.8099999999999623,-1.0,-1.0,-10.0,-7.0,-3.0,-2.0,-2.0,-2.0,0.00830078125,0.05859375,0.47052001953125,0.88037109375,-0.09912109375,0.07373046875,0.9951171875,-0.0625,0.1875,-0.0625
2.814999999999962,-1.0,2.0,6.0,-6.0,-1.0,-1.0,-1.0,1.0,0.00830078125,0.05859375,0.47052001953125,0.88037109375,-0.09521484375,0.0703125,1.00048828125,-0.3125,-0.0625,0.125
2.819999999999962,-1.0,0.0,-7.0,-2.0,-3.0,-2.0,-1.0,1.0,0.00830078125,0.05859375,0.47052001953125,0.88037109375,-0.09521484375,0.0703125,1.00048828125,-0.3125,-0.0625,0.125
2.824999999999962,0.0,-2.0,1.0,-1.0,-1.0,-1.0,-2.0,0.0,0.00830078125,0.05859375,0.47052001953125,0.88037109375,-0.08984375,0.06640625,0.9970703125,0.1875,0.0,0.25
2.829999999999962,-1.0,-5.0,0.0,3.0,-3.0,-1.0,-2.0,0.0,0.00830078125,0.05859375,0.47052001953125,0.88037109375,-0.08984375,0.06640625,0.9970703125,0.1875,0.0,0.25
2.8349999999999618,-3.0,1.0,5.0,1.0,-2.0,0.0,-2.0,-1.0,0.008544921875,0.05865478515625,0.4705810546875,0.88031005859375,-0.095703125,0.07275390625,0.99169921875,1.0,-0.25,0.1875
2.8399999999999617,1.0,1.0,-2.0,5.0,2.0,0.0,-1.0,-1.0,0.008544921875,0.05865478515625,0.4705810546875,0.88031005859375,-0.095703125,0.07275390625,0.99169921875,1.0,-0.25,0.1875
2.8449999999999616,-4.0,-11.0,-23.0,-7.0,-1.0,-2.0,-2.0,-2.0,0.008544921875,0.05865478515625,0.4705810546875,0.88031005859375,-0.09326171875,0.0732421875,0.99462890625,0.125,-0.3125,0.4375
2.8499999999999615,-1.0,7.0,5.0,0.0,2.0,-3.0,0.0,0.0,0.008544921875,0.05865478515625,0.4705810546875,0.88031005859375,-0.09619140625,0.07080078125,0.9970703125,0.125,-0.375,0.4375
2.8549999999999613,-3.0,-1.0,-7.0,-12.0,-3.0,-1.0,-1.0,0.0,0.008544921875,0.05865478515625,0.4705810546875,0.88031005859375,-0.09619140625,0.07080078125,0.9970703125,0.125,-0.375,0.4375
2.8599999999999612,-1.0,-1.0,-2.0,0.0,-2.0,0.0,0.0,-2.0,0.008544921875,0.05865478515625,0.4705810546875,0.88031005859375,-0.09375,0.07568359375,0.99609375,0.9375,-0.625,0.625
2.864999999999961,-1.0,-1.0,-2.0,0.0,-2.0,0.0,0.0,-2.0,0.008544921875,0.05865478515625,0.4705810546875,0.88031005859375,-0.09375,0.07568359375,0.99609375,0.9375,-0.625,0.625
2.869999999999961,0.0,-3.0,-1.0,-1.0,0.0,-1.0,-2.0,-1.0,0.008544921875,0.05865478515625,0.4705810546875,0.88031005859375,-0.09423828125,0.072265625,0.99365234375,0.4375,-0.4375,0.5
2.874999999999961,0.0,-2.0,8.0,1.0,-2.0,-1.0,1.0,-3.0,0.00860595703125,0.05865478515625,0.4705810546875,0.88031005859375,-0.0908203125,0.07373046875,1.00048828125,0.125,-0.1875,0.25
2.879999999999961,-4.0,-10.0,0.0,0.0,-1.0,0.0,-2.0,-2.0,0.00860595703125,0.05865478515625,0.4705810546875,0.88031005859375,-0.0908203125,0.07373046875,1.00048828125,0.125,-0.1875,0.25
2.8849999999999607,0.0,-3.0,0.0,-2.0,0.0,-1.0,0.0,0.0,0.00860595703125,0.05859375,0.4705810546875,0.88031005859375,-0.08837890625,0.0771484375,1.00146484375,0.0625,-0.0625,0.125
2.8899999999999606,-1.0,-2.0,4.0,17.0,2.0,-2.0,-1.0,-2.0,0.00860595703125,0.05859375,0.4705810546875,0.88031005859375,-0.08740234375,0.06689453125,0.99609375,0.0625,0.0,-0.0625
2.8949999999999605,-1.0,-3.0,-4.0,3.0,1.0,0.0,-1.0,-1.0,0.00860595703125,0.05859375,0.4705810546875,0.88031005859375,-0.08740234375,0.06689453125,0.99609375,0.0625,0.0,-0.0625
2.8999999999999604,-1.0,-3.0,-4.0,3.0,1.0,0.0,-1.0,-1.0,0.00860595703125,0.05859375,0.4705810546875,0.88031005859375,-0.0908203125,0.076171875,0.99951171875,-0.0625,0.25,-0.3125
2.9049999999999603,0.0,4.0,2.0,-3.0,-4.0,-3.0,-1.0,0.0,0.00860595703125,0.05859375,0.4705810546875,0.88031005859375,-0.0908203125,0.076171875,0.99951171875,-0.0625,0.25,-0.3125
2.90999999999996,-1.0,-2.0,-1.0,1.0,1.0,0.0,-1.0,-1.0,0.0086669921875,0.05859375,0.4705810546875,0.88031005859375,-0.09228515625,0.07470703125,0.99658203125,-0.5625,0.3125,-0.5
2.91499999999996,-1.0,-2.0,-1.0,1.0,1.0,0.0,-1.0,-1.0,0.0086669921875,0.05859375,0.4705810546875,0.88031005859375,-0.09228515625,0.07470703125,0.99658203125,-0.5625,0.3125,-0.5
2.91999999999996,0.0,2.0,7.0,-3.0,0.0,-2.0,-2.0,-1.0,0.0086669921875,0.05859375,0.4705810546875,0.88031005859375,-0.09375,0.0732421875,1.0,-0.875,0.3125,-0.5
2.92499999999996,-3.0,-1.0,-2.0,-5.0,-2.0,-1.0,-1.0,-2.0,0.0086669921875,0.05859375,0.4705810546875,0.88031005859375,-0.09375,0.0732421875,1.0,-0.875,0.3125,-0.5
2.9299999999999597,-3.0,-1.0,-2.0,-5.0,-2.0,-1.0,-1.0,-2.0,0.0086669921875,0.05859375,0.4705810546875,0.88031005859375,-0.0966796875,0.06884765625,0.9921875,-0.6875,0.3125,-0.625
2.9349999999999596,-7.0,-2.0,16.0,-5.0,-5.0,-3.0,-3.0,-4.0,0.0086669921875,0.05859375,0.4705810546875,0.88031005859375,-0.0947265625,0.06884765625,0.99609375,-0.8125,0.0,-0.6875
2.9399999999999595,-2.0,-2.0,-4.0,-15.0,-4.0,-1.0,-1.0,-1.0,0.00860595703125,0.05859375,0.4705810546875,0.88031005859375,-0.09814453125,0.0654296875,0.994140625,0.0,-0.0625,-0.5
2.9449999999999594,-1.0,-2.0,-2.0,-2.0,-2.0,-1.0,-1.0,-1.0,0.00860595703125,0.05859375,0.4705810546875,0.88031005859375,-0.09814453125,0.0654296875,0.994140625,0.0,-0.0625,-0.5
2.9499999999999593,-1.0,-2.0,-2.0,-2.0,-2.0,-1.0,-1.0,-1.0,0.00885009765625,0.05859375,0.47052001953125,0.88031005859375,-0.0947265625,0.06787109375,0.998046875,1.25,-0.4375,-0.0625
2.954999999999959,-1.0,-2.0,-2.0,-2.0,-2.0,-1.0,-1.0,-1.0,0.00885009765625,0.05859375,0.47052001953125,0.88031005859375,-0.0947265625,0.06787109375,0.998046875,1.25,-0.4375,-0.0625
2.959999999999959,-2.0,-1.0,-23.0,-6.0,-1.0,0.0,0.0,-2.0,0.00885009765625,0.05859375,0.47052001953125,0.88031005859375,-0.0947265625,0.06787109375,0.998046875,1.25,-0.4375,-0.0625
2.964999999999959,0.0,4.0,13.0,-5.0,-1.0,-3.0,-1.0,-2.0,0.00885009765625,0.05859375,0.47052001953125,0.88031005859375,-0.0888671875,0.06689453125,0.99462890625,0.6875,-0.625,-0.3125
2.969999999999959,-2.0,-1.0,3.0,-4.0,-5.0,-3.0,-3.0,-1.0,0.00885009765625,0.05859375,0.47052001953125,0.88031005859375,-0.0888671875,0.06689453125,0.99462890625,0.6875,-0.625,-0.3125
2.974999999999959,-2.0,-1.0,3.0,-4.0,-5.0,-3.0,-3.0,-1.0,0.00885009765625,0.05859375,0.47052001953125,0.88031005859375,-0.091796875,0.06787109375,0.9990234375,0.6875,-0.75,0.1875
2.9799999999999587,0.0,1.0,-7.0,-12.0,-1.0,1.0,-1.0,2.0,0.00885009765625,0.05859375,0.47052001953125,0.88031005859375,-0.091796875,0.06787109375,0.9990234375,0.6875,-0.75,0.1875
2.9849999999999586,-1.0,-1.0,0.0,-5.0,-4.0,-2.0,-1.0,-2.0,0.00885009765625,0.05859375,0.47052001953125,0.88031005859375,-0.091796875,0.06787109375,0.9990234375,0.6875,-0.75,0.1875
2.9899999999999585,-1.0,-1.0,0.0,-5.0,-4.0,-2.0,-1.0,-2.0,0.00885009765625,0.05859375,0.47052001953125,0.88031005859375,-0.091796875,0.06787109375,0.9990234375,0.6875,-0.75,0.1875
2.9949999999999584,3.0,1.0,-18.0,7.0,-3.0,-1.0,-2.0,-3.0,0.00909423828125,0.05859375,0.4705810546875,0.88031005859375,-0.09765625,0.0712890625,0.99560546875,1.3125,-0.6875,0.4375
2.9999999999999583,-1.0,-4.0,-4.0,-1.0,-1.0,-1.0,-1.0,-2.0,0.00909423828125,0.05859375,0.4705810546875,0.88031005859375,-0.09765625,0.0712890625,0.99560546875,1.3125,-0.6875,0.4375
3.004999999999958,-2.0,-5.0,-5.0,0.0,1.0,0.0,1.0,-1.0,0.0093994140625,0.05865478515625,0.4705810546875,0.88031005859375,-0.0986328125,0.072265625,0.99853515625,1.5,-0.875,0.125
3.009999999999958,-1.0,-3.0,5.0,2.0,-1.0,-1.0,0.0,-2.0,0.0093994140625,0.05865478515625,0.4705810546875,0.88031005859375,-0.0986328125,0.072265625,0.99853515625,1.5,-0.875,0.125
3.014999999999958,0.0,4.0,-3.0,2.0,-2.0,0.0,-1.0,0.0,0.0096435546875,0.05865478515625,0.47064208984375,0.88031005859375,-0.09228515625,0.0712890625,0.99609375,1.5,-0.6875,0.125
3.019999999999958,-5.0,-6.0,-2.0,7.0,2.0,-1.0,-1.0,-1.0,0.0096435546875,0.05865478515625,0.47064208984375,0.88031005859375,-0.09228515625,0.0712890625,0.99609375,1.5,-0.6875,0.125
3.0249999999999577,-5.0,-6.0,-2.0,7.0,2.0,-1.0,-1.0,-1.0,0.00970458984375,0.05859375,0.47064208984375,0.88031005859375,-0.087890625,0.076171875,1.00048828125,0.9375,-0.75,0.0
3.0299999999999576,0.0,-2.0,3.0,-8.0,-5.0,1.0,-2.0,1.0,0.00970458984375,0.05859375,0.47064208984375,0.88031005859375,-0.087890625,0.076171875,1.00048828125,0.9375,-0.75,0.0
3.0349999999999575,0.0,-2.0,3.0,-8.0,-5.0,1.0,-2.0,1.0,0.00970458984375,0.05859375,0.47064208984375,0.88031005859375,-0.087890625,0.076171875,1.00048828125,0.9375,-0.75,0.0
3.0399999999999574,-1.0,-1.0,-4.0,-2.0,-1.0,-1.0,-1.0,-2.0,0.00970458984375,0.05859375,0.47064208984375,0.88031005859375,-0.08984375,0.076171875,0.99951171875,0.1875,-0.625,0.125
3.0449999999999573,-1.0,-3.0,15.0,-3.0,0.0,-2.0,0.0,1.0,0.00970458984375,0.05859375,0.47064208984375,0.88031005859375,-0.0927734375,0.07568359375,1.0048828125,-0.1875,-0.3125,-0.0625
3.049999999999957,0.0,2.0,3.0,-2.0,-2.0,-1.0,-1.0,-2.0,0.00970458984375,0.05859375,0.47064208984375,0.88031005859375,-0.0927734375,0.07568359375,1.0048828125,-0.1875,-0.3125,-0.0625
3.054999999999957,0.0,2.0,3.0,-2.0,-2.0,-1.0,-1.0,-2.0,0.00970458984375,0.05859375,0.47064208984375,0.88031005859375,-0.08837890625,0.07275390625,1.0,0.0,0.125,-0.25
3.059999999999957,0.0,2.0,3.0,-2.0,-2.0,-1.0,-1.0,-2.0,0.00970458984375,0.05859375,0.47064208984375,0.88031005859375,-0.08837890625,0.07275390625,1.0,0.0,0.125,-0.25
3.064999999999957,-1.0,-2.0,1.0,9.0,2.0,1.0,-1.0,1.0,0.009765625,0.05859375,0.47064208984375,0.88031005859375,-0.08740234375,0.0771484375,0.99755859375,-0.0625,0.375,-0.5
3.0699999999999568,-1.0,-4.0,-4.0,-2.0,-3.0,-1.0,0.0,1.0,0.009765625,0.05859375,0.47064208984375,0.88031005859375,-0.08740234375,0.0771484375,0.99755859375,-0.0625,0.375,-0.5
3.0749999999999567,-3.0,0.0,-2.0,-4.0,-2.0,-2.0,-2.0,-2.0,0.009765625,0.05853271484375,0.47064208984375,0.88031005859375,-0.08642578125,0.0732421875,1.001953125,-0.25,0.5625,-0.5
3.0799999999999566,0.0,-2.0,-2.0,-5.0,-1.0,-1.0,0.0,-1.0,0.009765625,0.05853271484375,0.47064208984375,0.88031005859375,-0.08642578125,0.0732421875,1.001953125,-0.25,0.5625,-0.5
3.0849999999999564,0.0,-2.0,-2.0,-5.0,-1.0,-1.0,0.0,-1.0,0.009765625,0.05853271484375,0.47064208984375,0.88031005859375,-0.08544921875,0.07373046875,1.001953125,-0.4375,0.6875,-0.625
3.0899999999999563,0.0,-3.0,3.0,0.0,0.0,-1.0,-2.0,-3.0,0.009765625,0.05853271484375,0.47064208984375,0.88031005859375,-0.08544921875,0.07373046875,1.001953125,-0.4375,0.6875,-0.625
3.0949999999999562,2.0,0.0,3.0,-10.0,-4.0,-3.0,-1.0,-1.0,0.009765625,0.05853271484375,0.47064208984375,0.88031005859375,-0.0927734375,0.07080078125,0.99609375,-0.875,0.9375,-0.6875
3.099999999999956,-2.0,6.0,0.0,6.0,1.0,0.0,-1.0,-3.0,0.009765625,0.05853271484375,0.47064208984375,0.88031005859375,-0.0927734375,0.07080078125,0.99609375,-0.875,0.9375,-0.6875
3.104999999999956,-2.0,6.0,0.0,6.0,1.0,0.0,-1.0,-3.0,0.009765625,0.05853271484375,0.47064208984375,0.88031005859375,-0.09814453125,0.07275390625,0.99560546875,-0.6875,0.8125,-0.6875
3.109999999999956,-3.0,-2.0,-10.0,2.0,2.0,-2.0,0.0,-2.0,0.009765625,0.05853271484375,0.47064208984375,0.88031005859375,-0.09814453125,0.07275390625,0.99560546875,-0.6875,0.8125,-0.6875
3.114999999999956,-1.0,-1.0,4.0,-7.0,-1.0,0.0,-1.0,-2.0,0.009765625,0.05853271484375,0.47064208984375,0.88031005859375,-0.09814453125,0.07275390625,0.99560546875,-0.6875,0.8125,-0.6875
3.1199999999999557,-1.0,-1.0,4.0,-7.0,-1.0,0.0,-1.0,-2.0,0.009765625,0.05853271484375,0.47064208984375,0.88031005859375,-0.09814453125,0.07275390625,0.99560546875,-0.6875,0.8125,-0.6875
3.1249999999999556,-1.0,-5.0,-5.0,5.0,2.0,-1.0,0.0,1.0,0.009765625,0.05853271484375,0.47064208984375,0.88031005859375,-0.095703125,0.07666015625,0.99755859375,-0.6875,0.4375,-0.8125
3.1299999999999555,-1.0,-5.0,-5.0,5.0,2.0,-1.0,0.0,1.0,0.009765625,0.05853271484375,0.47064208984375,0.88031005859375,-0.095703125,0.07666015625,0.99755859375,-0.6875,0.4375,-0.8125
3.1349999999999554,-2.0,0.0,2.0,-1.0,-2.0,-1.0,1.0,-2.0,0.009765625,0.05853271484375,0.47064208984375,0.88031005859375,-0.10009765625,0.06591796875,0.9990234375,-0.8125,-0.125,-0.9375
3.1399999999999553,-2.0,-3.0,2.0,-5.0,-1.0,-1.0,-2.0,1.0,0.009765625,0.05853271484375,0.47064208984375,0.88031005859375,-0.10009765625,0.06591796875,0.9990234375,-0.8125,-0.125,-0.9375
3.144999999999955,-2.0,-3.0,2.0,-5.0,-1.0,-1.0,-2.0,1.0,0.00982666015625,0.0584716796875,0.47039794921875,0.88043212890625,-0.09228515625,0.07958984375,0.994140625,-0.3125,-0.6875,-1.5
3.149999999999955,-1.0,-1.0,11.0,-3.0,-1.0,0.0,-1.0,-1.0,0.00982666015625,0.0584716796875,0.47039794921875,0.88043212890625,-0.09228515625,0.07958984375,0.994140625,-0.3125,-0.6875,-1.5
3.154999999999955,-3.0,4.0,14.0,-4.0,-1.0,-1.0,0.0,-2.0,0.010009765625,0.0582275390625,0.47015380859375,0.88055419921875,-0.09228515625,0.0771484375,0.994140625,0.125,-1.625,-1.4375
3.159999999999955,-6.0,-14.0,-23.0,-11.0,-3.0,-3.0,-2.0,-2.0,0.010009765625,0.0582275390625,0.47015380859375,0.88055419921875,-0.09228515625,0.0771484375,0.994140625,0.125,-1.625,-1.4375
3.1649999999999547,-1.0,-6.0,5.0,1.0,-1.0,-4.0,-1.0,-2.0,0.010009765625,0.0582275390625,0.47015380859375,0.88055419921875,-0.09228515625,0.0771484375,0.994140625,0.125,-1.625,-1.4375
3.1699999999999546,0.0,3.0,-10.0,-4.0,-3.0,0.0,-1.0,0.0,0.0101318359375,0.0579833984375,0.4698486328125,0.8807373046875,-0.0966796875,0.0771484375,0.99755859375,-0.5,-2.0,-2.0625
3.1749999999999545,2.0,12.0,11.0,7.0,1.0,-1.0,0.0,0.0,0.01031494140625,0.0576171875,0.46942138671875,0.8809814453125,-0.09375,0.07275390625,0.99755859375,-0.125,-2.375,-2.6875
3.1799999999999544,-2.0,-2.0,-35.0,-1.0,-1.0,-1.0,-3.0,0.0,0.01031494140625,0.0576171875,0.46942138671875,0.8809814453125,-0.09375,0.07275390625,0.99755859375,-0.125,-2.375,-2.6875
3.1849999999999543,-2.0,-2.0,-35.0,-1.0,-1.0,-1.0,-3.0,0.0,0.01031494140625,0.0576171875,0.46942138671875,0.8809814453125,-0.09375,0.07275390625,0.99755859375,-0.125,-2.375,-2.6875
3.189999999999954,0.0,-1.0,-5.0,-5.0,-6.0,-1.0,-2.0,0.0,0.0106201171875,0.05731201171875,0.468994140625,0.8812255859375,-0.08935546875,0.0712890625,0.99951171875,0.9375,-2.4375,-3.125
3.194999999999954,0.0,-1.0,-5.0,-5.0,-6.0,-1.0,-2.0,0.0,0.0106201171875,0.05731201171875,0.468994140625,0.8812255859375,-0.08935546875,0.0712890625,0.99951171875,0.9375,-2.4375,-3.125
3.199999999999954,0.0,-5.0,-14.0,15.0,4.0,0.0,-1.0,0.0,0.0106201171875,0.05731201171875,0.468994140625,0.8812255859375,-0.08935546875,0.0712890625,0.99951171875,0.9375,-2.4375,-3.125
3.204999999999954,0.0,2.0,-17.0,-12.0,-3.0,-1.0,-1.0,-1.0,0.01141357421875,0.0570068359375,0.46771240234375,0.88189697265625,-0.08642578125,0.07763671875,1.00048828125,2.6875,-1.4375,-4.375
3.209999999999954,-1.0,2.0,-14.0,25.0,4.0,0.0,-2.0,-1.0,0.01141357421875,0.0570068359375,0.46771240234375,0.88189697265625,-0.08642578125,0.07763671875,1.00048828125,2.6875,-1.4375,-4.375
3.2149999999999537,-1.0,2.0,-14.0,25.0,4.0,0.0,-2.0,-1.0,0.01165771484375,0.0570068359375,0.46697998046875,0.88232421875,-0.08544921875,0.07958984375,0.99853515625,0.9375,-0.625,-4.875
3.2199999999999536,-1.0,-1.0,-7.0,-5.0,-3.0,-3.0,-1.0,-1.0,0.01165771484375,0.0570068359375,0.46697998046875,0.88232421875,-0.08544921875,0.07958984375,0.99853515625,0.9375,-0.625,-4.875
3.2249999999999535,-2.0,5.0,-4.0,3.0,-2.0,-2.0,-2.0,-3.0,0.01153564453125,0.0570068359375,0.4661865234375,0.88275146484375,-0.08544921875,0.0771484375,1.00927734375,-0.375,0.625,-5.375
3.2299999999999534,-4.0,-2.0,-4.0,-17.0,-6.0,-1.0,-1.0,-4.0,0.01153564453125,0.0570068359375,0.4661865234375,0.88275146484375,-0.08544921875,0.0771484375,1.00927734375,-0.375,0.625,-5.375
3.2349999999999532,-4.0,-2.0,-4.0,-17.0,-6.0,-1.0,-1.0,-4.0,0.0113525390625,0.05712890625,0.46533203125,0.8831787109375,-0.0849609375,0.06982421875,0.99560546875,-0.25,1.1875,-5.5625
3.239999999999953,-3.0,0.0,0.0,-19.0,-4.0,-2.0,-3.0,-1.0,0.0113525390625,0.05712890625,0.46533203125,0.8831787109375,-0.0849609375,0.06982421875,0.99560546875,-0.25,1.1875,-5.5625
3.244999999999953,-7.0,-21.0,-7.0,0.0,-1.0,-1.0,-1.0,-2.0,0.01104736328125,0.057373046875,0.4644775390625,0.88360595703125,-0.08740234375,0.06787109375,1.00927734375,-0.25,2.1875,-5.4375
3.249999999999953,4.0,2.0,-15.0,-4.0,-1.0,0.0,1.0,2.0,0.01080322265625,0.05780029296875,0.46356201171875,0.884033203125,-0.0888671875,0.0693359375,1.0107421875,0.4375,3.0,-6.0625
3.254999999999953,-2.0,-6.0,-31.0,-14.0,-1.0,0.0,0.0,-2.0,0.01068115234375,0.0584716796875,0.46282958984375,0.8843994140625,-0.09033203125,0.05224609375,1.001953125,2.5625,3.75,-4.6875
3.2599999999999527,8.0,-9.0,6.0,26.0,13.0,5.0,1.0,5.0,0.01068115234375,0.0584716796875,0.46282958984375,0.8843994140625,-0.09033203125,0.05224609375,1.001953125,2.5625,3.75,-4.6875
3.2649999999999526,-9.0,-9.0,22.0,-13.0,-9.0,-6.0,-4.0,-6.0,0.01104736328125,0.0595703125,0.46221923828125,0.8846435546875,-0.09716796875,0.0537109375,1.0126953125,6.625,4.5,-3.625
3.2699999999999525,3.0,3.0,-79.0,-22.0,-2.0,-1.0,1.0,1.0,0.01104736328125,0.0595703125,0.46221923828125,0.8846435546875,-0.09716796875,0.0537109375,1.0126953125,6.625,4.5,-3.625
3.2749999999999524,2.0,11.0,27.0,10.0,2.0,3.0,0.0,0.0,0.01104736328125,0.0595703125,0.46221923828125,0.8846435546875,-0.09716796875,0.0537109375,1.0126953125,6.625,4.5,-3.625
3.2799999999999523,5.0,4.0,14.0,8.0,4.0,2.0,2.0,4.0,0.01025390625,0.06048583984375,0.4620361328125,0.88470458984375,-0.10009765625,0.05712890625,0.98681640625,-0.5,6.4375,-1.1875
3.284999999999952,-3.0,-9.0,-19.0,-1.0,0.0,0.0,0.0,-1.0,0.01025390625,0.06048583984375,0.4620361328125,0.88470458984375,-0.10009765625,0.05712890625,0.98681640625,-0.5,6.4375,-1.1875
3.289999999999952,-3.0,-9.0,-19.0,-1.0,0.0,0.0,0.0,-1.0,0.00994873046875,0.06158447265625,0.46221923828125,0.884521484375,-0.1201171875,0.0439453125,1.01416015625,3.625,5.0,1.3125
3.294999999999952,-4.0,-29.0,124.0,-8.0,-3.0,-1.0,-1.0,-2.0,0.00994873046875,0.06158447265625,0.46221923828125,0.884521484375,-0.1201171875,0.0439453125,1.01416015625,3.625,5.0,1.3125
3.299999999999952,-14.0,-10.0,28.0,-15.0,-8.0,-6.0,-4.0,-7.0,0.00994873046875,0.06158447265625,0.46221923828125,0.884521484375,-0.1201171875,0.0439453125,1.01416015625,3.625,5.0,1.3125
3.3049999999999518,-14.0,-10.0,28.0,-15.0,-8.0,-6.0,-4.0,-7.0,0.01007080078125,0.06268310546875,0.46258544921875,0.88427734375,-0.10693359375,0.04541015625,1.029296875,5.8125,5.4375,2.8125
3.3099999999999516,-4.0,-4.0,-87.0,-16.0,-13.0,-7.0,-7.0,-9.0,0.01007080078125,0.06268310546875,0.46258544921875,0.88427734375,-0.10693359375,0.04541015625,1.029296875,5.8125,5.4375,2.8125
3.3149999999999515,-4.0,-4.0,-87.0,-16.0,-13.0,-7.0,-7.0,-9.0,0.01007080078125,0.06268310546875,0.46258544921875,0.88427734375,-0.10693359375,0.04541015625,1.029296875,5.8125,5.4375,2.8125
3.3199999999999514,1.0,16.0,70.0,5.0,-1.0,-1.0,-4.0,-3.0,0.00958251953125,0.06378173828125,0.46392822265625,0.88348388671875,-0.099609375,-0.0439453125,0.951171875,7.8125,7.25,9.375
3.3249999999999513,1.0,16.0,70.0,5.0,-1.0,-1.0,-4.0,-3.0,0.00958251953125,0.06378173828125,0.46392822265625,0.88348388671875,-0.099609375,-0.0439453125,0.951171875,7.8125,7.25,9.375
3.329999999999951,1.0,16.0,70.0,5.0,-1.0,-1.0,-4.0,-3.0,0.01104736328125,0.06591796875,0.4671630859375,0.881591796875,-0.15673828125,0.03125,0.9521484375,15.25,3.8125,22.625
3.334999999999951,-8.0,0.0,-26.0,-14.0,-5.0,-4.0,1.0,-6.0,0.01104736328125,0.06591796875,0.4671630859375,0.881591796875,-0.15673828125,0.03125,0.9521484375,15.25,3.8125,22.625
