0.005,-2.0,-7.0,2.0,-4.0,-2.0,-2.0,1.0,-1.0,0.0277099609375,0.14617919921875,-0.181884765625,0.97198486328125,-0.29296875,0.005859375,0.9755859375,0.0,-0.8125,-0.625
0.01,-1.0,-6.0,-3.0,-10.0,-3.0,-1.0,-16.0,-3.0,0.0277099609375,0.14617919921875,-0.181884765625,0.97198486328125,-0.2939453125,0.00146484375,0.970703125,-0.875,0.0625,-0.1875
0.015,-2.0,-2.0,3.0,5.0,-2.0,0.0,-2.0,-1.0,0.0277099609375,0.14617919921875,-0.181884765625,0.97198486328125,-0.2939453125,0.00146484375,0.970703125,-0.875,0.0625,-0.1875
0.02,-2.0,-2.0,3.0,5.0,-2.0,0.0,-2.0,-1.0,0.02764892578125,0.1461181640625,-0.181884765625,0.97198486328125,-0.28759765625,-0.005859375,0.97021484375,-0.8125,0.625,-0.5
0.025,-1.0,-2.0,-1.0,-39.0,-2.0,-3.0,5.0,-1.0,0.02764892578125,0.1461181640625,-0.181884765625,0.97198486328125,-0.28759765625,-0.005859375,0.97021484375,-0.8125,0.625,-0.5
0.030000000000000002,-1.0,-2.0,-1.0,-39.0,-2.0,-3.0,5.0,-1.0,0.02764892578125,0.1461181640625,-0.181884765625,0.97198486328125,-0.28759765625,-0.005859375,0.97021484375,-0.8125,0.625,-0.5
0.035,-7.0,-32.0,-1.0,-16.0,-1.0,-1.0,-3.0,-2.0,0.02764892578125,0.1461181640625,-0.181884765625,0.97198486328125,-0.287109375,0.00048828125,0.97265625,-0.75,0.8125,0.25
0.04,2.0,0.0,3.0,5.0,-2.0,-2.0,-2.0,1.0,0.02764892578125,0.1461181640625,-0.181884765625,0.97198486328125,-0.287109375,0.00048828125,0.97265625,-0.75,0.8125,0.25
0.045,2.0,0.0,3.0,5.0,-2.0,-2.0,-2.0,1.0,0.02764892578125,0.14605712890625,-0.181884765625,0.97198486328125,-0.29296875,-0.00439453125,0.966796875,-0.9375,0.625,0.3125
0.049999999999999996,0.0,-2.0,-3.0,2.0,-3.0,0.0,7.0,1.0,0.02764892578125,0.14605712890625,-0.181884765625,0.97198486328125,-0.29296875,-0.00439453125,0.966796875,-0.9375,0.625,0.3125
0.05499999999999999,0.0,-2.0,-3.0,2.0,-3.0,0.0,7.0,1.0,0.02764892578125,0.14605712890625,-0.181884765625,0.97198486328125,-0.294921875,-0.00146484375,0.970703125,0.0,0.5625,0.375
0.05999999999999999,-1.0,4.0,-9.0,8.0,0.0,-2.0,4.0,-1.0,0.02764892578125,0.14605712890625,-0.181884765625,0.97198486328125,-0.294921875,-0.00146484375,0.970703125,0.0,0.5625,0.375
0.06499999999999999,0.0,5.0,4.0,-3.0,-2.0,-1.0,-6.0,-3.0,0.02764892578125,0.14605712890625,-0.181884765625,0.97198486328125,-0.294921875,-0.00146484375,0.970703125,0.0,0.5625,0.375
0.06999999999999999,0.0,5.0,4.0,-3.0,-2.0,-1.0,-6.0,-3.0,0.02764892578125,0.14605712890625,-0.181884765625,0.97198486328125,-0.30224609375,-0.00341796875,0.96728515625,0.5,0.25,0.25
0.075,1.0,4.0,8.0,8.0,1.0,0.0,0.0,-1.0,0.02764892578125,0.14605712890625,-0.181884765625,0.97198486328125,-0.30224609375,-0.00341796875,0.96728515625,0.5,0.25,0.25
0.08,0.0,-1.0,12.0,15.0,1.0,0.0,5.0,0.0,0.02764892578125,0.14605712890625,-0.181884765625,0.97198486328125,-0.29248046875,0.00634765625,0.96533203125,0.8125,0.0,0.0
0.085,0.0,9.0,2.0,11.0,-1.0,-2.0,-19.0,-1.0,0.02764892578125,0.14605712890625,-0.181884765625,0.97198486328125,-0.29248046875,0.00634765625,0.96533203125,0.8125,0.0,0.0
0.09000000000000001,-2.0,-13.0,-1.0,-3.0,0.0,-1.0,-5.0,-1.0,0.02764892578125,0.14605712890625,-0.181884765625,0.97198486328125,-0.2939453125,-0.001953125,0.96923828125,0.125,0.0625,-0.125
0.09500000000000001,-2.0,-10.0,-9.0,-10.0,-1.0,0.0,8.0,1.0,0.02764892578125,0.14605712890625,-0.181884765625,0.97198486328125,-0.2939453125,-0.001953125,0.96923828125,0.125,0.0625,-0.125
0.10000000000000002,-2.0,-10.0,-9.0,-10.0,-1.0,0.0,8.0,1.0,0.02764892578125,0.14605712890625,-0.181884765625,0.97198486328125,-0.2939453125,-0.001953125,0.96923828125,0.125,0.0625,-0.125
0.10500000000000002,0.0,7.0,3.0,0.0,0.0,-1.0,-13.0,-8.0,0.02764892578125,0.14605712890625,-0.181884765625,0.97198486328125,-0.2958984375,0.00341796875,0.96142578125,0.625,-0.25,-0.0625
0.11000000000000003,0.0,7.0,3.0,0.0,0.0,-1.0,-13.0,-8.0,0.02764892578125,0.14605712890625,-0.181884765625,0.97198486328125,-0.2958984375,0.00341796875,0.96142578125,0.625,-0.25,-0.0625
0.11500000000000003,0.0,7.0,3.0,0.0,0.0,-1.0,-13.0,-8.0,0.02764892578125,0.14605712890625,-0.181884765625,0.97198486328125,-0.28955078125,0.00244140625,0.96533203125,-0.9375,-0.125,-0.6875
0.12000000000000004,2.0,14.0,-6.0,5.0,3.0,1.0,10.0,0.0,0.02764892578125,0.14605712890625,-0.181884765625,0.97198486328125,-0.28955078125,0.00244140625,0.96533203125,-0.9375,-0.125,-0.6875
0.12500000000000003,2.0,14.0,-6.0,5.0,3.0,1.0,10.0,0.0,0.02764892578125,0.14599609375,-0.181884765625,0.97198486328125,-0.2880859375,-0.00244140625,0.9697265625,-0.9375,0.0,-0.25
0.13000000000000003,0.0,5.0,4.0,-4.0,-3.0,-1.0,1.0,1.0,0.02764892578125,0.14599609375,-0.181884765625,0.97198486328125,-0.2880859375,-0.00244140625,0.9697265625,-0.9375,0.0,-0.25
0.13500000000000004,1.0,10.0,0.0,0.0,-1.0,-1.0,4.0,0.0,0.02740478515625,0.14599609375,-0.181884765625,0.97198486328125,-0.29248046875,-0.00146484375,0.9736328125,-1.1875,0.1875,-0.1875
0.14000000000000004,0.0,-1.0,2.0,18.0,1.0,-2.0,2.0,1.0,0.02740478515625,0.14599609375,-0.181884765625,0.97198486328125,-0.29248046875,-0.00146484375,0.9736328125,-1.1875,0.1875,-0.1875
0.14500000000000005,0.0,-1.0,2.0,18.0,1.0,-2.0,2.0,1.0,0.02740478515625,0.14599609375,-0.181884765625,0.97198486328125,-0.29248046875,-0.00146484375,0.9736328125,-1.1875,0.1875,-0.1875
0.15000000000000005,-2.0,-3.0,-3.0,4.0,1.0,1.0,-4.0,-1.0,0.02740478515625,0.14599609375,-0.181884765625,0.97198486328125,-0.29833984375,-0.00244140625,0.97021484375,0.4375,0.25,-0.375
0.15500000000000005,-3.0,-22.0,-2.0,-6.0,0.0,0.0,7.0,-2.0,0.02740478515625,0.14599609375,-0.181884765625,0.97198486328125,-0.29833984375,-0.00244140625,0.97021484375,0.4375,0.25,-0.375
0.16000000000000006,-3.0,-2.0,-10.0,-8.0,-4.0,-5.0,-1.0,-2.0,0.02740478515625,0.14599609375,-0.181884765625,0.97198486328125,-0.2880859375,0.0009765625,0.974609375,0.875,0.1875,-0.5
0.16500000000000006,-3.0,-2.0,-10.0,-8.0,-4.0,-5.0,-1.0,-2.0,0.02740478515625,0.14599609375,-0.181884765625,0.97198486328125,-0.2880859375,0.0009765625,0.974609375,0.875,0.1875,-0.5
0.17000000000000007,-3.0,-6.0,-9.0,2.0,-1.0,-1.0,-9.0,-4.0,0.02740478515625,0.14599609375,-0.181884765625,0.97198486328125,-0.2880859375,0.0009765625,0.974609375,0.875,0.1875,-0.5
0.17500000000000007,-3.0,-6.0,-9.0,2.0,-1.0,-1.0,-9.0,-4.0,0.02740478515625,0.14593505859375,-0.181884765625,0.97198486328125,-0.29443359375,0.00439453125,0.96337890625,0.8125,0.0625,-0.25
0.18000000000000008,-1.0,3.0,-8.0,-6.0,1.0,-1.0,3.0,2.0,0.02740478515625,0.14593505859375,-0.181884765625,0.97198486328125,-0.29541015625,-0.00537109375,0.96826171875,-0.3125,0.125,0.1875
0.18500000000000008,-2.0,0.0,2.0,-11.0,-3.0,-2.0,-2.0,-3.0,0.02740478515625,0.14593505859375,-0.181884765625,0.97198486328125,-0.29541015625,-0.00537109375,0.96826171875,-0.3125,0.125,0.1875
0.19000000000000009,-2.0,0.0,2.0,-11.0,-3.0,-2.0,-2.0,-3.0,0.02734375,0.14599609375,-0.18194580078125,0.97198486328125,-0.29931640625,-0.00537109375,0.9658203125,0.3125,0.375,-0.125
0.1950000000000001,-3.0,8.0,2.0,5.0,0.0,-1.0,-1.0,0.0,0.02734375,0.14599609375,-0.18194580078125,0.97198486328125,-0.29931640625,-0.00537109375,0.9658203125,0.3125,0.375,-0.125
0.2000000000000001,-3.0,8.0,2.0,5.0,0.0,-1.0,-1.0,0.0,0.027587890625,0.14593505859375,-0.1820068359375,0.97198486328125,-0.294921875,0.00048828125,0.966796875,1.1875,0.25,-0.4375
0.2050000000000001,4.0,13.0,0.0,9.0,-1.0,0.0,8.0,1.0,0.027587890625,0.14593505859375,-0.1820068359375,0.97198486328125,-0.294921875,0.00048828125,0.966796875,1.1875,0.25,-0.4375
0.2100000000000001,-3.0,-1.0,-4.0,-7.0,-2.0,-3.0,-1.0,-1.0,0.027587890625,0.14593505859375,-0.1820068359375,0.97198486328125,-0.294921875,0.00048828125,0.966796875,1.1875,0.25,-0.4375
0.2150000000000001,1.0,-2.0,-8.0,10.0,2.0,0.0,-2.0,-3.0,0.027587890625,0.14593505859375,-0.1820068359375,0.97198486328125,-0.28955078125,-0.001953125,0.96826171875,0.625,0.1875,-0.1875
0.2200000000000001,1.0,4.0,4.0,-4.0,-3.0,-1.0,-3.0,0.0,0.027587890625,0.14593505859375,-0.1820068359375,0.97198486328125,-0.29248046875,-0.00048828125,0.962890625,-0.375,-0.125,0.0625
0.22500000000000012,1.0,4.0,4.0,-4.0,-3.0,-1.0,-3.0,0.0,0.027587890625,0.14593505859375,-0.1820068359375,0.97198486328125,-0.29248046875,-0.00048828125,0.962890625,-0.375,-0.125,0.0625
0.23000000000000012,0.0,1.0,5.0,-24.0,-2.0,-2.0,-5.0,-1.0,0.027587890625,0.14593505859375,-0.1820068359375,0.97198486328125,-0.29248046875,-0.00048828125,0.962890625,-0.375,-0.125,0.0625
0.23500000000000013,0.0,1.0,5.0,-24.0,-2.0,-2.0,-5.0,-1.0,0.027587890625,0.14593505859375,-0.1820068359375,0.97198486328125,-0.29248046875,-0.00048828125,0.962890625,-0.375,-0.125,0.0625
0.24000000000000013,-1.0,-5.0,-7.0,5.0,-2.0,-2.0,-1.0,-1.0,0.02752685546875,0.14593505859375,-0.1820068359375,0.97198486328125,-0.29541015625,-0.00244140625,0.9619140625,-0.0625,-0.375,0.0
0.24500000000000013,-1.0,-5.0,-7.0,5.0,-2.0,-2.0,-1.0,-1.0,0.02752685546875,0.14593505859375,-0.1820068359375,0.97198486328125,-0.294921875,-0.0009765625,0.96875,0.875,-0.75,0.1875
0.2500000000000001,1.0,0.0,-4.0,4.0,1.0,1.0,-5.0,-1.0,0.02752685546875,0.14593505859375,-0.1820068359375,0.97198486328125,-0.294921875,-0.0009765625,0.96875,0.875,-0.75,0.1875
0.2550000000000001,1.0,0.0,-4.0,4.0,1.0,1.0,-5.0,-1.0,0.02752685546875,0.14593505859375,-0.1820068359375,0.97198486328125,-0.29345703125,-0.001953125,0.96630859375,0.875,-0.9375,0.0625
0.2600000000000001,-3.0,-1.0,-4.0,4.0,-1.0,-1.0,-2.0,-4.0,0.02752685546875,0.14593505859375,-0.1820068359375,0.97198486328125,-0.29345703125,-0.001953125,0.96630859375,0.875,-0.9375,0.0625
0.2650000000000001,1.0,-3.0,3.0,1.0,-1.0,4.0,-8.0,2.0,0.02752685546875,0.14593505859375,-0.1820068359375,0.97198486328125,-0.29345703125,-0.001953125,0.96630859375,0.875,-0.9375,0.0625
0.27000000000000013,1.0,-3.0,3.0,1.0,-1.0,4.0,-8.0,2.0,0.02752685546875,0.1458740234375,-0.1820068359375,0.97198486328125,-0.28564453125,-0.00341796875,0.96826171875,0.875,-0.6875,0.125
0.27500000000000013,-7.0,-19.0,-17.0,-1.0,-1.0,-2.0,4.0,-3.0,0.02752685546875,0.1458740234375,-0.1820068359375,0.97198486328125,-0.28564453125,-0.00341796875,0.96826171875,0.875,-0.6875,0.125
0.28000000000000014,-7.0,-19.0,-17.0,-1.0,-1.0,-2.0,4.0,-3.0,0.02752685546875,0.1458740234375,-0.1820068359375,0.97198486328125,-0.28564453125,-0.00341796875,0.96826171875,0.875,-0.6875,0.125
0.28500000000000014,-2.0,-4.0,-1.0,-8.0,-1.0,0.0,-1.0,-1.0,0.02752685546875,0.1458740234375,-0.1820068359375,0.97198486328125,-0.2900390625,0.005859375,0.9765625,0.5625,-0.25,0.25
0.29000000000000015,0.0,7.0,5.0,2.0,-2.0,-2.0,-3.0,0.0,0.02752685546875,0.1458740234375,-0.1820068359375,0.97198486328125,-0.2900390625,0.005859375,0.9765625,0.5625,-0.25,0.25
0.29500000000000015,0.0,-3.0,-15.0,10.0,-1.0,-2.0,0.0,-2.0,0.02752685546875,0.14581298828125,-0.1820068359375,0.97198486328125,-0.28662109375,0.001953125,0.970703125,-0.8125,0.125,0.625
0.30000000000000016,0.0,-3.0,-15.0,10.0,-1.0,-2.0,0.0,-2.0,0.02752685546875,0.14581298828125,-0.1820068359375,0.97198486328125,-0.28662109375,0.001953125,0.970703125,-0.8125,0.125,0.625
0.30500000000000016,1.0,-4.0,5.0,-28.0,-2.0,-1.0,-1.0,-1.0,0.02752685546875,0.14581298828125,-0.1820068359375,0.97198486328125,-0.29052734375,-0.00341796875,0.97802734375,-0.0625,0.5625,0.4375
0.31000000000000016,1.0,-4.0,5.0,-28.0,-2.0,-1.0,-1.0,-1.0,0.02752685546875,0.14581298828125,-0.1820068359375,0.97198486328125,-0.29052734375,-0.00341796875,0.97802734375,-0.0625,0.5625,0.4375
0.31500000000000017,-2.0,-11.0,-10.0,1.0,-2.0,-3.0,2.0,-1.0,0.02752685546875,0.14581298828125,-0.1820068359375,0.97198486328125,-0.29052734375,-0.00341796875,0.97802734375,-0.0625,0.5625,0.4375
0.3200000000000002,-2.0,-11.0,-10.0,1.0,-2.0,-3.0,2.0,-1.0,0.02752685546875,0.14581298828125,-0.1820068359375,0.97198486328125,-0.29052734375,-0.00341796875,0.97802734375,-0.0625,0.5625,0.4375
0.3250000000000002,-6.0,-11.0,-5.0,-3.0,-2.0,-4.0,-3.0,-3.0,0.02752685546875,0.145751953125,-0.1820068359375,0.97198486328125,-0.29248046875,0.001953125,0.96923828125,0.6875,0.8125,0.5
0.3300000000000002,-6.0,-11.0,-5.0,-3.0,-2.0,-4.0,-3.0,-3.0,0.02752685546875,0.145751953125,-0.1820068359375,0.97198486328125,-0.29296875,0.00390625,0.96875,0.875,0.9375,0.25
0.3350000000000002,0.0,-3.0,-3.0,2.0,-2.0,0.0,0.0,-1.0,0.02752685546875,0.145751953125,-0.1820068359375,0.97198486328125,-0.29296875,0.00390625,0.96875,0.875,0.9375,0.25
0.3400000000000002,1.0,7.0,4.0,2.0,-1.0,0.0,2.0,0.0,0.02752685546875,0.145751953125,-0.1820068359375,0.97198486328125,-0.29296875,0.00390625,0.96875,0.875,0.9375,0.25
0.3450000000000002,4.0,12.0,4.0,18.0,2.0,-2.0,-26.0,0.0,0.02752685546875,0.145751953125,-0.1820068359375,0.97198486328125,-0.294921875,0.00634765625,0.9609375,0.125,0.375,0.125
0.3500000000000002,4.0,12.0,4.0,18.0,2.0,-2.0,-26.0,0.0,0.027587890625,0.145751953125,-0.1820068359375,0.9720458984375,-0.291015625,0.0107421875,0.96875,-0.375,0.1875,-0.25
0.3550000000000002,-1.0,0.0,0.0,-8.0,-2.0,-1.0,-1.0,-1.0,0.027587890625,0.145751953125,-0.1820068359375,0.9720458984375,-0.291015625,0.0107421875,0.96875,-0.375,0.1875,-0.25
0.3600000000000002,0.0,2.0,1.0,4.0,-2.0,0.0,8.0,1.0,0.027587890625,0.14569091796875,-0.1820068359375,0.9720458984375,-0.2890625,0.0068359375,0.962890625,-0.4375,0.0,-0.25
0.3650000000000002,0.0,-6.0,0.0,9.0,1.0,-3.0,2.0,-3.0,0.027587890625,0.14569091796875,-0.1820068359375,0.9720458984375,-0.2890625,0.0068359375,0.962890625,-0.4375,0.0,-0.25
0.3700000000000002,-2.0,1.0,2.0,-5.0,-3.0,-2.0,6.0,-2.0,0.027587890625,0.14569091796875,-0.1820068359375,0.9720458984375,-0.2890625,0.0068359375,0.962890625,-0.4375,0.0,-0.25
0.3750000000000002,-2.0,1.0,2.0,-5.0,-3.0,-2.0,6.0,-2.0,0.02734375,0.1456298828125,-0.1820068359375,0.9720458984375,-0.28515625,0.0009765625,0.9736328125,-1.375,0.125,-0.1875
0.3800000000000002,-2.0,-4.0,1.0,-14.0,-1.0,0.0,0.0,-3.0,0.02734375,0.1456298828125,-0.1820068359375,0.9720458984375,-0.28515625,0.0009765625,0.9736328125,-1.375,0.125,-0.1875
0.38500000000000023,0.0,-6.0,2.0,1.0,-3.0,-2.0,4.0,1.0,0.02703857421875,0.1456298828125,-0.18206787109375,0.9720458984375,-0.28662109375,-0.00537109375,0.97314453125,-1.5625,0.5,-0.5
0.39000000000000024,0.0,15.0,0.0,7.0,1.0,-1.0,3.0,-1.0,0.02703857421875,0.1456298828125,-0.18206787109375,0.9720458984375,-0.28662109375,-0.00537109375,0.97314453125,-1.5625,0.5,-0.5
0.39500000000000024,0.0,4.0,3.0,-4.0,-1.0,-2.0,2.0,-1.0,0.02703857421875,0.1456298828125,-0.18206787109375,0.9720458984375,-0.29736328125,-0.00146484375,0.97216796875,-0.25,0.75,-0.375
0.40000000000000024,-1.0,-8.0,-4.0,-9.0,-1.0,0.0,1.0,-3.0,0.02703857421875,0.1456298828125,-0.18206787109375,0.9720458984375,-0.29736328125,-0.00146484375,0.97216796875,-0.25,0.75,-0.375
0.40500000000000025,-1.0,-8.0,-4.0,-9.0,-1.0,0.0,1.0,-3.0,0.02703857421875,0.1456298828125,-0.18206787109375,0.9720458984375,-0.2978515625,0.00244140625,0.96630859375,-0.4375,0.875,-0.125
0.41000000000000025,-3.0,-5.0,5.0,-4.0,0.0,-1.0,-17.0,-1.0,0.02703857421875,0.1456298828125,-0.18206787109375,0.9720458984375,-0.2978515625,0.00244140625,0.96630859375,-0.4375,0.875,-0.125
0.41500000000000026,-3.0,-2.0,-5.0,-5.0,-6.0,-2.0,-12.0,-4.0,0.02703857421875,0.1456298828125,-0.18206787109375,0.9720458984375,-0.29541015625,0.0009765625,0.96533203125,-0.625,0.75,-0.125
0.42000000000000026,-1.0,-4.0,-11.0,44.0,3.0,2.0,3.0,-3.0,0.02703857421875,0.1456298828125,-0.18206787109375,0.9720458984375,-0.29541015625,0.0009765625,0.96533203125,-0.625,0.75,-0.125
0.42500000000000027,-3.0,-6.0,-1.0,-2.0,-2.0,1.0,1.0,1.0,0.02703857421875,0.1456298828125,-0.18206787109375,0.9720458984375,-0.2978515625,-0.00146484375,0.96728515625,-0.3125,0.6875,-0.1875
0.43000000000000027,-1.0,-6.0,5.0,-15.0,-2.0,-1.0,9.0,0.0,0.02703857421875,0.1456298828125,-0.18206787109375,0.9720458984375,-0.2978515625,-0.00146484375,0.96728515625,-0.3125,0.6875,-0.1875
0.4350000000000003,-1.0,-6.0,5.0,-15.0,-2.0,-1.0,9.0,0.0,0.02703857421875,0.1456298828125,-0.18206787109375,0.9720458984375,-0.28564453125,0.0078125,0.97412109375,-0.5,0.8125,-0.4375
0.4400000000000003,2.0,11.0,3.0,-7.0,-3.0,0.0,-1.0,-1.0,0.02703857421875,0.1456298828125,-0.18206787109375,0.9720458984375,-0.28564453125,0.0078125,0.97412109375,-0.5,0.8125,-0.4375
0.4450000000000003,2.0,11.0,3.0,-7.0,-3.0,0.0,-1.0,-1.0,0.02703857421875,0.1456298828125,-0.18206787109375,0.9720458984375,-0.28564453125,0.0078125,0.97412109375,-0.5,0.8125,-0.4375
0.4500000000000003,1.0,3.0,1.0,-4.0,-1.0,-3.0,1.0,-1.0,0.02703857421875,0.14556884765625,-0.18206787109375,0.9720458984375,-0.2900390625,0.0009765625,0.97412109375,-1.0,0.75,-0.5
0.4550000000000003,1.0,3.0,1.0,-4.0,-1.0,-3.0,1.0,-1.0,0.02703857421875,0.14556884765625,-0.18206787109375,0.9720458984375,-0.29150390625,-0.0009765625,0.97265625,-0.6875,0.4375,-0.8125
0.4600000000000003,2.0,6.0,5.0,1.0,-2.0,0.0,0.0,0.0,0.02703857421875,0.14556884765625,-0.18206787109375,0.9720458984375,-0.29150390625,-0.0009765625,0.97265625,-0.6875,0.4375,-0.8125
0.4650000000000003,-2.0,-2.0,4.0,-4.0,-3.0,-1.0,0.0,1.0,0.02703857421875,0.14556884765625,-0.18206787109375,0.9720458984375,-0.29150390625,-0.0009765625,0.97265625,-0.6875,0.4375,-0.8125
0.4700000000000003,1.0,0.0,6.0,23.0,4.0,1.0,3.0,0.0,0.02703857421875,0.14556884765625,-0.18206787109375,0.9720458984375,-0.29296875,0.0009765625,0.96923828125,-0.75,0.5625,-0.75
0.4750000000000003,0.0,3.0,2.0,-10.0,-4.0,-1.0,-1.0,-1.0,0.02703857421875,0.14556884765625,-0.18206787109375,0.9720458984375,-0.29296875,0.0009765625,0.96923828125,-0.75,0.5625,-0.75
0.4800000000000003,0.0,3.0,2.0,-10.0,-4.0,-1.0,-1.0,-1.0,0.02703857421875,0.14556884765625,-0.18206787109375,0.9720458984375,-0.2958984375,-0.0009765625,0.97216796875,-0.4375,0.625,-0.875
0.4850000000000003,1.0,1.0,2.0,1.0,3.0,0.0,-5.0,-4.0,0.02703857421875,0.1455078125,-0.18206787109375,0.9720458984375,-0.29150390625,-0.001953125,0.97314453125,-0.5625,0.5625,-0.6875
0.4900000000000003,-2.0,1.0,-2.0,-7.0,-4.0,-1.0,3.0,0.0,0.02703857421875,0.1455078125,-0.18206787109375,0.9720458984375,-0.29150390625,-0.001953125,0.97314453125,-0.5625,0.5625,-0.6875
0.49500000000000033,-2.0,1.0,-2.0,-7.0,-4.0,-1.0,3.0,0.0,0.02703857421875,0.1455078125,-0.18206787109375,0.9720458984375,-0.29150390625,-0.001953125,0.97314453125,-0.5625,0.5625,-0.6875
0.5000000000000003,-8.0,-22.0,-4.0,-7.0,-3.0,-2.0,-4.0,-3.0,0.02703857421875,0.1455078125,-0.18206787109375,0.9720458984375,-0.296875,-0.00830078125,0.9638671875,-0.1875,0.375,-0.5
0.5050000000000003,-2.0,2.0,-7.0,-7.0,0.0,-2.0,3.0,1.0,0.02679443359375,0.1456298828125,-0.1820068359375,0.9720458984375,-0.296875,-0.00341796875,0.96728515625,-1.125,0.3125,0.0625
0.5100000000000003,-2.0,2.0,-7.0,-7.0,0.0,-2.0,3.0,1.0,0.02679443359375,0.1456298828125,-0.1820068359375,0.9720458984375,-0.296875,-0.00341796875,0.96728515625,-1.125,0.3125,0.0625
0.5150000000000003,0.0,3.0,4.0,22.0,2.0,-3.0,2.0,-2.0,0.02655029296875,0.145751953125,-0.18194580078125,0.9720458984375,-0.2939453125,-0.01171875,0.9658203125,-1.125,0.5,0.25
0.5200000000000004,1.0,5.0,4.0,0.0,-2.0,-1.0,-2.0,-2.0,0.0264892578125,0.145751953125,-0.1820068359375,0.9720458984375,-0.2958984375,-0.0166015625,0.96923828125,0.5,0.5625,0.125
0.5250000000000004,0.0,-3.0,0.0,-16.0,-4.0,1.0,7.0,0.0,0.0264892578125,0.145751953125,-0.1820068359375,0.9720458984375,-0.2958984375,-0.0166015625,0.96923828125,0.5,0.5625,0.125
0.5300000000000004,0.0,10.0,3.0,6.0,1.0,-2.0,3.0,0.0,0.02685546875,0.14581298828125,-0.1820068359375,0.9720458984375,-0.2998046875,0.00048828125,0.9609375,1.9375,0.25,-0.0625
0.5350000000000004,-1.0,-3.0,4.0,-9.0,-3.0,-1.0,-2.0,1.0,0.02685546875,0.14581298828125,-0.1820068359375,0.9720458984375,-0.2998046875,0.00048828125,0.9609375,1.9375,0.25,-0.0625
0.5400000000000004,1.0,5.0,2.0,0.0,1.0,0.0,-13.0,0.0,0.02685546875,0.14581298828125,-0.1820068359375,0.9720458984375,-0.29931640625,0.0,0.96484375,0.5625,-0.3125,0.5
0.5450000000000004,-1.0,9.0,1.0,1.0,4.0,0.0,-18.0,0.0,0.02685546875,0.14581298828125,-0.1820068359375,0.9720458984375,-0.29931640625,0.0,0.96484375,0.5625,-0.3125,0.5
0.5500000000000004,-1.0,9.0,1.0,1.0,4.0,0.0,-18.0,0.0,0.02685546875,0.14581298828125,-0.1820068359375,0.9720458984375,-0.298828125,-0.005859375,0.96337890625,-0.25,-0.6875,0.3125
0.5550000000000004,1.0,-4.0,-6.0,-16.0,-1.0,-1.0,-11.0,-1.0,0.02685546875,0.14581298828125,-0.1820068359375,0.9720458984375,-0.298828125,-0.005859375,0.96337890625,-0.25,-0.6875,0.3125
0.5600000000000004,-1.0,-7.0,0.0,5.0,0.0,-1.0,6.0,-3.0,0.02685546875,0.14581298828125,-0.1820068359375,0.9720458984375,-0.298828125,-0.005859375,0.96337890625,-0.25,-0.6875,0.3125
0.5650000000000004,-1.0,-7.0,0.0,5.0,0.0,-1.0,6.0,-3.0,0.02685546875,0.14581298828125,-0.1820068359375,0.9720458984375,-0.298828125,-0.005859375,0.96337890625,-0.25,-0.6875,0.3125
0.5700000000000004,-1.0,2.0,-6.0,-2.0,-2.0,-1.0,2.0,-1.0,0.0269775390625,0.14556884765625,-0.18206787109375,0.9720458984375,-0.2919921875,-0.0048828125,0.96826171875,1.375,-1.0,0.25
0.5750000000000004,0.0,-8.0,2.0,5.0,0.0,-1.0,5.0,0.0,0.0269775390625,0.14556884765625,-0.18206787109375,0.9720458984375,-0.2919921875,-0.0048828125,0.96826171875,1.375,-1.0,0.25
0.5800000000000004,0.0,-8.0,2.0,5.0,0.0,-1.0,5.0,0.0,0.0269775390625,0.14556884765625,-0.18206787109375,0.9720458984375,-0.28857421875,-0.001953125,0.96484375,0.9375,-0.875,-0.125
0.5850000000000004,-1.0,8.0,-1.0,1.0,-2.0,-2.0,0.0,0.0,0.0269775390625,0.14556884765625,-0.18206787109375,0.9720458984375,-0.28857421875,-0.001953125,0.96484375,0.9375,-0.875,-0.125
0.5900000000000004,-1.0,8.0,-1.0,1.0,-2.0,-2.0,0.0,0.0,0.0269775390625,0.1455078125,-0.18206787109375,0.9720458984375,-0.2890625,0.0029296875,0.9736328125,0.4375,-0.625,0.0625
0.5950000000000004,-2.0,-7.0,-2.0,-6.0,-1.0,0.0,4.0,0.0,0.0269775390625,0.1455078125,-0.18206787109375,0.9720458984375,-0.2890625,0.0029296875,0.9736328125,0.4375,-0.625,0.0625
0.6000000000000004,-2.0,-7.0,-2.0,-6.0,-1.0,0.0,4.0,0.0,0.0269775390625,0.1455078125,-0.18206787109375,0.9720458984375,-0.291015625,0.00048828125,0.970703125,0.25,0.0,-0.25
0.6050000000000004,0.0,-2.0,-5.0,-6.0,-1.0,0.0,4.0,-1.0,0.0269775390625,0.1455078125,-0.18206787109375,0.9720458984375,-0.291015625,0.00048828125,0.970703125,0.25,0.0,-0.25
0.6100000000000004,0.0,-2.0,-5.0,-6.0,-1.0,0.0,4.0,-1.0,0.0269775390625,0.1455078125,-0.18206787109375,0.9720458984375,-0.291015625,0.00048828125,0.970703125,0.25,0.0,-0.25
0.6150000000000004,-4.0,-14.0,-17.0,-27.0,-3.0,-3.0,-1.0,-2.0,0.0269775390625,0.1455078125,-0.18206787109375,0.9720458984375,-0.28955078125,-0.0009765625,0.96826171875,-0.0625,0.1875,-0.3125
0.6200000000000004,-4.0,-14.0,-17.0,-27.0,-3.0,-3.0,-1.0,-2.0,0.0269775390625,0.14544677734375,-0.18206787109375,0.9720458984375,-0.29296875,0.00048828125,0.96435546875,0.375,0.5625,-0.3125
0.6250000000000004,-1.0,2.0,1.0,1.0,1.0,0.0,-2.0,-1.0,0.0269775390625,0.14544677734375,-0.18206787109375,0.9720458984375,-0.29296875,0.00048828125,0.96435546875,0.375,0.5625,-0.3125
0.6300000000000004,-2.0,1.0,-2.0,3.0,-4.0,-3.0,-2.0,1.0,0.0269775390625,0.14544677734375,-0.18206787109375,0.9720458984375,-0.29296875,0.00048828125,0.96435546875,0.375,0.5625,-0.3125
0.6350000000000005,-2.0,1.0,-2.0,3.0,-4.0,-3.0,-2.0,1.0,0.0269775390625,0.14544677734375,-0.18206787109375,0.9720458984375,-0.2978515625,-0.0009765625,0.9677734375,0.5,0.4375,-0.375
0.6400000000000005,-2.0,1.0,-2.0,3.0,-4.0,-3.0,-2.0,1.0,0.0269775390625,0.14544677734375,-0.18206787109375,0.9720458984375,-0.2978515625,-0.0009765625,0.9677734375,0.5,0.4375,-0.375
0.6450000000000005,2.0,0.0,-1.0,-2.0,-4.0,-2.0,1.0,-1.0,0.0269775390625,0.14544677734375,-0.1820068359375,0.9720458984375,-0.29150390625,0.0029296875,0.9619140625,0.6875,0.0625,-0.3125
0.6500000000000005,-6.0,-18.0,-4.0,0.0,-1.0,-1.0,10.0,-1.0,0.02703857421875,0.14544677734375,-0.1820068359375,0.9720458984375,-0.30029296875,0.00390625,0.96630859375,0.3125,0.0625,-0.4375
0.6550000000000005,-2.0,-3.0,-2.0,1.0,-4.0,-1.0,-5.0,-2.0,0.02703857421875,0.14544677734375,-0.1820068359375,0.9720458984375,-0.30029296875,0.00390625,0.96630859375,0.3125,0.0625,-0.4375
0.6600000000000005,1.0,4.0,4.0,38.0,2.0,-1.0,0.0,0.0,0.02703857421875,0.14544677734375,-0.1820068359375,0.9720458984375,-0.30029296875,0.00390625,0.96630859375,0.3125,0.0625,-0.4375
0.6650000000000005,1.0,4.0,4.0,38.0,2.0,-1.0,0.0,0.0,0.0267333984375,0.1455078125,-0.1820068359375,0.97210693359375,-0.2919921875,-0.00439453125,0.97021484375,-1.4375,0.125,0.0625
0.6700000000000005,-2.0,-1.0,-3.0,-7.0,-2.0,-2.0,2.0,0.0,0.0267333984375,0.1455078125,-0.1820068359375,0.97210693359375,-0.2919921875,-0.00439453125,0.97021484375,-1.4375,0.125,0.0625
0.6750000000000005,-1.0,-1.0,7.0,9.0,1.0,0.0,4.0,1.0,0.0267333984375,0.1455078125,-0.1820068359375,0.97210693359375,-0.2958984375,-0.00537109375,0.97607421875,-1.0,0.25,-0.0625
0.6800000000000005,1.0,0.0,-1.0,-4.0,-1.0,-1.0,-7.0,-1.0,0.0267333984375,0.1455078125,-0.1820068359375,0.97210693359375,-0.2958984375,-0.00537109375,0.97607421875,-1.0,0.25,-0.0625
0.6850000000000005,-1.0,-4.0,-6.0,-4.0,-1.0,-3.0,-2.0,0.0,0.0267333984375,0.1455078125,-0.1820068359375,0.97210693359375,-0.29345703125,-0.001953125,0.96142578125,0.1875,0.3125,-0.375
0.6900000000000005,0.0,1.0,0.0,3.0,4.0,1.0,5.0,0.0,0.0267333984375,0.1455078125,-0.1820068359375,0.97210693359375,-0.29345703125,-0.001953125,0.96142578125,0.1875,0.3125,-0.375
0.6950000000000005,0.0,1.0,0.0,3.0,4.0,1.0,5.0,0.0,0.0267333984375,0.1455078125,-0.1820068359375,0.97210693359375,-0.29345703125,0.00244140625,0.96630859375,0.125,0.1875,-0.25
0.7000000000000005,2.0,11.0,1.0,2.0,-2.0,-3.0,4.0,1.0,0.0267333984375,0.1455078125,-0.1820068359375,0.97210693359375,-0.29345703125,0.00244140625,0.96630859375,0.125,0.1875,-0.25
0.7050000000000005,2.0,11.0,1.0,2.0,-2.0,-3.0,4.0,1.0,0.0267333984375,0.14544677734375,-0.1820068359375,0.97210693359375,-0.29248046875,0.00146484375,0.96630859375,-0.5625,0.0625,-0.125
0.7100000000000005,0.0,-6.0,-5.0,-39.0,-2.0,1.0,-1.0,-1.0,0.0267333984375,0.14544677734375,-0.1820068359375,0.97210693359375,-0.29248046875,0.00146484375,0.96630859375,-0.5625,0.0625,-0.125
0.7150000000000005,0.0,-6.0,-5.0,-39.0,-2.0,1.0,-1.0,-1.0,0.0267333984375,0.14544677734375,-0.1820068359375,0.97210693359375,-0.291015625,-0.001953125,0.97314453125,-0.5625,-0.125,-0.125
0.7200000000000005,-1.0,0.0,-3.0,-6.0,2.0,1.0,2.0,1.0,0.0267333984375,0.14544677734375,-0.1820068359375,0.97210693359375,-0.291015625,-0.001953125,0.97314453125,-0.5625,-0.125,-0.125
0.7250000000000005,-1.0,3.0,-13.0,-4.0,-3.0,-2.0,-8.0,-1.0,0.0267333984375,0.14544677734375,-0.1820068359375,0.97210693359375,-0.291015625,-0.001953125,0.97314453125,-0.5625,-0.125,-0.125
0.7300000000000005,-1.0,3.0,-13.0,-4.0,-3.0,-2.0,-8.0,-1.0,0.0267333984375,0.14544677734375,-0.1820068359375,0.97210693359375,-0.29052734375,-0.0029296875,0.96728515625,-0.5,-0.0625,0.0
0.7350000000000005,-4.0,-2.0,-21.0,-1.0,-1.0,-1.0,-4.0,-4.0,0.0267333984375,0.14544677734375,-0.1820068359375,0.97210693359375,-0.29052734375,-0.0029296875,0.96728515625,-0.5,-0.0625,0.0
0.7400000000000005,-1.0,1.0,5.0,6.0,0.0,-1.0,1.0,-1.0,0.0267333984375,0.14544677734375,-0.1820068359375,0.97210693359375,-0.29052734375,-0.0029296875,0.96728515625,-0.5,-0.0625,0.0
0.7450000000000006,-5.0,-3.0,-1.0,3.0,1.0,1.0,10.0,0.0,0.0264892578125,0.1453857421875,-0.1820068359375,0.97210693359375,-0.28564453125,-0.005859375,0.9775390625,-1.125,0.1875,-0.1875
0.7500000000000006,0.0,-1.0,4.0,-7.0,0.0,0.0,4.0,0.0,0.02642822265625,0.1453857421875,-0.1820068359375,0.97210693359375,-0.29296875,-0.00537109375,0.96875,0.125,0.375,-0.1875
0.7550000000000006,0.0,-1.0,4.0,-7.0,0.0,0.0,4.0,0.0,0.02642822265625,0.1453857421875,-0.1820068359375,0.97210693359375,-0.29296875,-0.00537109375,0.96875,0.125,0.375,-0.1875
0.7600000000000006,-1.0,-2.0,0.0,-22.0,-1.0,-2.0,0.0,0.0,0.02642822265625,0.14532470703125,-0.1820068359375,0.97210693359375,-0.2919921875,0.0,0.96533203125,0.875,0.6875,-0.5
0.7650000000000006,-1.0,3.0,5.0,-1.0,-2.0,-2.0,-3.0,0.0,0.0264892578125,0.14532470703125,-0.1820068359375,0.97210693359375,-0.29345703125,0.00732421875,0.970703125,-0.9375,0.6875,-0.0625
0.7700000000000006,-1.0,-1.0,-2.0,-4.0,-2.0,-1.0,-3.0,-1.0,0.0264892578125,0.14532470703125,-0.1820068359375,0.97210693359375,-0.29345703125,0.00732421875,0.970703125,-0.9375,0.6875,-0.0625
0.7750000000000006,-1.0,-1.0,-2.0,-4.0,-2.0,-1.0,-3.0,-1.0,0.0260009765625,0.14556884765625,-0.18194580078125,0.97210693359375,-0.29443359375,-0.00537109375,0.9638671875,-2.875,0.9375,-0.125
0.7800000000000006,0.0,-5.0,-4.0,6.0,-2.0,-2.0,1.0,-1.0,0.0260009765625,0.14556884765625,-0.18194580078125,0.97210693359375,-0.29443359375,-0.00537109375,0.9638671875,-2.875,0.9375,-0.125
0.7850000000000006,-1.0,0.0,-2.0,2.0,0.0,-1.0,-5.0,-1.0,0.025634765625,0.145751953125,-0.1820068359375,0.9720458984375,-0.29345703125,-0.01123046875,0.96923828125,-1.625,0.875,-0.6875
0.7900000000000006,-1.0,0.0,-2.0,2.0,0.0,-1.0,-5.0,-1.0,0.025634765625,0.145751953125,-0.1820068359375,0.9720458984375,-0.2900390625,-0.005859375,0.96337890625,0.5,0.5,-0.75
0.7950000000000006,1.0,-11.0,-1.0,5.0,0.0,0.0,3.0,1.0,0.025634765625,0.145751953125,-0.1820068359375,0.9720458984375,-0.2900390625,-0.005859375,0.96337890625,0.5,0.5,-0.75
0.8000000000000006,1.0,-11.0,-1.0,5.0,0.0,0.0,3.0,1.0,0.025634765625,0.145751953125,-0.1820068359375,0.9720458984375,-0.29052734375,-0.0029296875,0.96875,-0.3125,0.4375,-0.6875
0.8050000000000006,1.0,-3.0,4.0,-3.0,-1.0,-1.0,1.0,-3.0,0.025634765625,0.145751953125,-0.1820068359375,0.9720458984375,-0.29052734375,-0.0029296875,0.96875,-0.3125,0.4375,-0.6875
0.8100000000000006,-4.0,6.0,6.0,0.0,-2.0,-3.0,-2.0,-2.0,0.025634765625,0.145751953125,-0.1820068359375,0.9720458984375,-0.29052734375,-0.0029296875,0.96875,-0.3125,0.4375,-0.6875
0.8150000000000006,-1.0,-4.0,-3.0,1.0,-1.0,-2.0,-1.0,0.0,0.025634765625,0.145751953125,-0.18206787109375,0.9720458984375,-0.29541015625,-0.00830078125,0.9677734375,-0.5625,-0.0625,-0.1875
0.8200000000000006,0.0,5.0,2.0,3.0,-2.0,0.0,0.0,-1.0,0.025634765625,0.145751953125,-0.18206787109375,0.9720458984375,-0.29541015625,-0.00830078125,0.9677734375,-0.5625,-0.0625,-0.1875
0.8250000000000006,-2.0,-6.0,-1.0,41.0,3.0,1.0,1.0,-1.0,0.02557373046875,0.145751953125,-0.18206787109375,0.9720458984375,-0.30029296875,-0.0107421875,0.96728515625,0.125,-0.5625,0.25
0.8300000000000006,-3.0,-7.0,6.0,0.0,-2.0,-2.0,1.0,-3.0,0.02557373046875,0.145751953125,-0.18206787109375,0.9720458984375,-0.30029296875,-0.0107421875,0.96728515625,0.125,-0.5625,0.25
0.8350000000000006,0.0,-1.0,-4.0,-17.0,0.0,-1.0,3.0,1.0,0.02581787109375,0.1456298828125,-0.18206787109375,0.97210693359375,-0.30126953125,-0.0068359375,0.9638671875,1.75,-1.0625,0.3125
0.8400000000000006,-1.0,-2.0,-4.0,9.0,0.0,0.0,-5.0,0.0,0.02581787109375,0.1456298828125,-0.18206787109375,0.97210693359375,-0.30126953125,-0.0068359375,0.9638671875,1.75,-1.0625,0.3125
0.8450000000000006,-1.0,-2.0,-4.0,9.0,0.0,0.0,-5.0,0.0,0.02618408203125,0.14532470703125,-0.18206787109375,0.97210693359375,-0.29736328125,-0.00439453125,0.966796875,2.3125,-1.3125,0.1875
0.8500000000000006,-2.0,-3.0,-2.0,-5.0,-3.0,1.0,3.0,-2.0,0.02618408203125,0.14532470703125,-0.18206787109375,0.97210693359375,-0.29736328125,-0.00439453125,0.966796875,2.3125,-1.3125,0.1875
0.8550000000000006,1.0,5.0,5.0,-2.0,0.0,-1.0,-3.0,-1.0,0.02618408203125,0.14532470703125,-0.18206787109375,0.97210693359375,-0.29736328125,-0.00439453125,0.966796875,2.3125,-1.3125,0.1875
0.8600000000000007,-1.0,8.0,-3.0,-2.0,-1.0,-1.0,-3.0,-1.0,0.0263671875,0.14501953125,-0.18206787109375,0.97216796875,-0.291015625,-0.00439453125,0.96875,1.6875,-1.25,0.5
0.8650000000000007,1.0,5.0,-3.0,-9.0,-4.0,0.0,18.0,1.0,0.0263671875,0.14501953125,-0.18206787109375,0.97216796875,-0.291015625,-0.00439453125,0.96875,1.6875,-1.25,0.5
0.8700000000000007,-3.0,-3.0,-7.0,46.0,5.0,-4.0,-2.0,-2.0,0.02655029296875,0.14459228515625,-0.18194580078125,0.97222900390625,-0.28173828125,-0.00390625,0.97216796875,1.3125,-1.25,0.625
0.8750000000000007,-3.0,-3.0,-7.0,46.0,5.0,-4.0,-2.0,-2.0,0.02655029296875,0.14459228515625,-0.18194580078125,0.97222900390625,-0.28173828125,-0.00390625,0.97216796875,1.3125,-1.25,0.625
0.8800000000000007,-2.0,2.0,-3.0,-3.0,-3.0,-2.0,-5.0,-1.0,0.02691650390625,0.144287109375,-0.181884765625,0.9722900390625,-0.28662109375,0.00244140625,0.9638671875,2.125,-1.1875,0.8125
0.8850000000000007,-3.0,-7.0,-3.0,-28.0,-3.0,-1.0,-2.0,-2.0,0.02691650390625,0.144287109375,-0.181884765625,0.9722900390625,-0.28662109375,0.00244140625,0.9638671875,2.125,-1.1875,0.8125
0.8900000000000007,-3.0,-7.0,-1.0,2.0,-4.0,-4.0,-3.0,0.0,0.02691650390625,0.144287109375,-0.181884765625,0.9722900390625,-0.28662109375,0.00244140625,0.9638671875,2.125,-1.1875,0.8125
0.8950000000000007,-1.0,-6.0,-2.0,-5.0,-3.0,-2.0,-17.0,-6.0,0.0272216796875,0.14398193359375,-0.18182373046875,0.97235107421875,-0.2900390625,0.0048828125,0.9677734375,1.5625,-1.25,0.625
0.9000000000000007,0.0,1.0,-2.0,-7.0,0.0,-1.0,-4.0,0.0,0.0272216796875,0.14398193359375,-0.18182373046875,0.97235107421875,-0.28955078125,0.005859375,0.966796875,0.75,-0.875,0.375
0.9050000000000007,2.0,-1.0,0.0,2.0,1.0,1.0,-3.0,2.0,0.0272216796875,0.14398193359375,-0.18182373046875,0.97235107421875,-0.28955078125,0.005859375,0.966796875,0.75,-0.875,0.375
0.9100000000000007,-1.0,-2.0,-1.0,0.0,-3.0,-1.0,-5.0,-1.0,0.0272216796875,0.14398193359375,-0.18182373046875,0.97235107421875,-0.28955078125,0.005859375,0.966796875,0.75,-0.875,0.375
0.9150000000000007,-1.0,0.0,1.0,14.0,2.0,-1.0,5.0,1.0,0.02740478515625,0.143798828125,-0.18182373046875,0.97235107421875,-0.29150390625,0.0009765625,0.97119140625,1.0625,-0.5,0.0625
0.9200000000000007,-2.0,-2.0,-3.0,-5.0,-2.0,-1.0,-4.0,-1.0,0.02740478515625,0.143798828125,-0.18182373046875,0.97235107421875,-0.29150390625,0.0009765625,0.97119140625,1.0625,-0.5,0.0625
0.9250000000000007,-1.0,-1.0,-2.0,-23.0,-3.0,-1.0,0.0,2.0,0.027587890625,0.14373779296875,-0.181884765625,0.97235107421875,-0.28662109375,0.0029296875,0.9677734375,1.125,0.1875,-0.375
0.9300000000000007,-2.0,2.0,-9.0,8.0,-1.0,0.0,-2.0,-2.0,0.027587890625,0.1436767578125,-0.181884765625,0.97235107421875,-0.2802734375,0.00439453125,0.96875,0.4375,0.5,-0.8125
0.9350000000000007,-2.0,2.0,-9.0,8.0,-1.0,0.0,-2.0,-2.0,0.027587890625,0.1436767578125,-0.181884765625,0.97235107421875,-0.2802734375,0.00439453125,0.96875,0.4375,0.5,-0.8125
0.9400000000000007,0.0,11.0,6.0,-2.0,2.0,0.0,8.0,0.0,0.027587890625,0.1436767578125,-0.181884765625,0.97235107421875,-0.2802734375,0.00439453125,0.96875,0.4375,0.5,-0.8125
0.9450000000000007,0.0,11.0,6.0,-2.0,2.0,0.0,8.0,0.0,0.027587890625,0.1436767578125,-0.181884765625,0.97235107421875,-0.2861328125,0.0,0.96533203125,-0.25,0.625,-0.5625
0.9500000000000007,-5.0,4.0,-4.0,-10.0,-5.0,-3.0,1.0,-4.0,0.027587890625,0.1436767578125,-0.181884765625,0.97235107421875,-0.2861328125,0.0,0.96533203125,-0.25,0.625,-0.5625
0.9550000000000007,-3.0,-7.0,-13.0,-8.0,-1.0,-1.0,-3.0,-2.0,0.02734375,0.143798828125,-0.1820068359375,0.9722900390625,-0.28515625,-0.001953125,0.97021484375,-1.1875,1.0,-0.875
0.9600000000000007,1.0,5.0,7.0,-2.0,1.0,1.0,5.0,3.0,0.02734375,0.143798828125,-0.1820068359375,0.9722900390625,-0.28515625,-0.001953125,0.97021484375,-1.1875,1.0,-0.875
0.9650000000000007,-2.0,-4.0,-12.0,4.0,-2.0,-2.0,5.0,-1.0,0.02728271484375,0.14398193359375,-0.18218994140625,0.97222900390625,-0.2880859375,0.00439453125,0.9716796875,-0.5625,1.375,-1.1875
0.9700000000000008,-2.0,-5.0,0.0,2.0,0.0,-2.0,-2.0,-1.0,0.02728271484375,0.14398193359375,-0.18218994140625,0.97222900390625,-0.2880859375,0.00439453125,0.9716796875,-0.5625,1.375,-1.1875
0.9750000000000008,-2.0,-5.0,0.0,2.0,0.0,-2.0,-2.0,-1.0,0.02728271484375,0.14422607421875,-0.18243408203125,0.97216796875,-0.28857421875,0.00634765625,0.97265625,-0.625,1.8125,-1.5625
0.9800000000000008,1.0,3.0,5.0,-1.0,-2.0,-1.0,-1.0,-1.0,0.02728271484375,0.14422607421875,-0.18243408203125,0.97216796875,-0.28857421875,0.00634765625,0.97265625,-0.625,1.8125,-1.5625
0.9850000000000008,-1.0,-9.0,2.0,13.0,-1.0,-2.0,-2.0,-1.0,0.02728271484375,0.14422607421875,-0.18243408203125,0.97216796875,-0.28857421875,0.00634765625,0.97265625,-0.625,1.8125,-1.5625
0.9900000000000008,-1.0,-9.0,2.0,13.0,-1.0,-2.0,-2.0,-1.0,0.027099609375,0.14447021484375,-0.1826171875,0.97210693359375,-0.29052734375,0.0068359375,0.96630859375,-1.75,1.4375,-1.5625
0.9950000000000008,1.0,2.0,3.0,-5.0,-2.0,-1.0,-3.0,-3.0,0.02667236328125,0.144775390625,-0.18280029296875,0.9720458984375,-0.29443359375,-0.00244140625,0.9638671875,-2.5,0.9375,-1.5625
1.0000000000000007,-1.0,-3.0,5.0,-22.0,-3.0,-1.0,0.0,0.0,0.02667236328125,0.144775390625,-0.18280029296875,0.9720458984375,-0.29443359375,-0.00244140625,0.9638671875,-2.5,0.9375,-1.5625
1.0050000000000006,-1.0,-2.0,3.0,-5.0,1.0,-1.0,-5.0,-2.0,0.02618408203125,0.14495849609375,-0.18304443359375,0.97198486328125,-0.294921875,-0.00927734375,0.96875,-2.25,0.625,-1.5625
1.0100000000000005,2.0,2.0,6.0,13.0,-3.0,-1.0,3.0,1.0,0.02618408203125,0.14495849609375,-0.18304443359375,0.97198486328125,-0.294921875,-0.00927734375,0.96875,-2.25,0.625,-1.5625
1.0150000000000003,0.0,-2.0,3.0,2.0,-1.0,-3.0,-4.0,-2.0,0.02593994140625,0.14508056640625,-0.18328857421875,0.971923828125,-0.29296875,-0.0078125,0.96826171875,-1.0,0.5,-1.625
1.0200000000000002,-2.0,-3.0,-4.0,-1.0,1.0,0.0,-1.0,-4.0,0.02593994140625,0.14508056640625,-0.18328857421875,0.971923828125,-0.29296875,-0.0078125,0.96826171875,-1.0,0.5,-1.625
1.0250000000000001,1.0,-5.0,-1.0,6.0,-2.0,-3.0,3.0,0.0,0.0257568359375,0.14508056640625,-0.18353271484375,0.97186279296875,-0.28857421875,-0.01318359375,0.9716796875,0.0,0.5,-1.5625
1.03,-2.0,-14.0,-11.0,8.0,-1.0,-2.0,7.0,-1.0,0.0257568359375,0.14508056640625,-0.18353271484375,0.97186279296875,-0.28857421875,-0.01318359375,0.9716796875,0.0,0.5,-1.5625
1.035,-2.0,-14.0,-11.0,8.0,-1.0,-2.0,7.0,-1.0,0.0257568359375,0.14508056640625,-0.18353271484375,0.97186279296875,-0.28955078125,0.0,0.9677734375,0.4375,0.3125,-0.9375
1.0399999999999998,-1.0,-1.0,3.0,17.0,2.0,0.0,-4.0,-1.0,0.0257568359375,0.14508056640625,-0.18353271484375,0.97186279296875,-0.28955078125,0.0,0.9677734375,0.4375,0.3125,-0.9375
1.0449999999999997,-3.0,-1.0,-14.0,-18.0,-5.0,-2.0,0.0,-2.0,0.025634765625,0.14508056640625,-0.18359375,0.97186279296875,-0.2880859375,-0.001953125,0.9697265625,-1.0625,0.4375,-0.375
1.0499999999999996,-3.0,-1.0,-14.0,-18.0,-5.0,-2.0,0.0,-2.0,0.025390625,0.1451416015625,-0.1834716796875,0.97186279296875,-0.28955078125,-0.00732421875,0.9677734375,-1.25,0.4375,0.25
1.0549999999999995,1.0,3.0,-1.0,-3.0,0.0,1.0,-9.0,-1.0,0.025390625,0.1451416015625,-0.1834716796875,0.97186279296875,-0.28955078125,-0.00732421875,0.9677734375,-1.25,0.4375,0.25
1.0599999999999994,1.0,3.0,-1.0,-3.0,0.0,1.0,-9.0,-1.0,0.025390625,0.14520263671875,-0.1834716796875,0.97186279296875,-0.2978515625,-0.01171875,0.96875,0.1875,0.3125,0.3125
1.0649999999999993,-2.0,1.0,2.0,-10.0,-3.0,-1.0,-3.0,0.0,0.025390625,0.14520263671875,-0.1834716796875,0.97186279296875,-0.2978515625,-0.01171875,0.96875,0.1875,0.3125,0.3125
1.0699999999999992,-1.0,2.0,3.0,-1.0,2.0,0.0,-3.0,-1.0,0.025390625,0.14520263671875,-0.1834716796875,0.97186279296875,-0.2978515625,-0.01171875,0.96875,0.1875,0.3125,0.3125
1.074999999999999,-1.0,2.0,3.0,-1.0,2.0,0.0,-3.0,-1.0,0.025634765625,0.14508056640625,-0.1834716796875,0.97186279296875,-0.29150390625,-0.0078125,0.97314453125,2.0,0.0625,0.4375
1.079999999999999,-1.0,5.0,-4.0,-2.0,-4.0,-1.0,-1.0,0.0,0.02606201171875,0.14495849609375,-0.18341064453125,0.971923828125,-0.29443359375,-0.001953125,0.9677734375,2.25,-0.25,0.625
1.0849999999999989,-8.0,-17.0,-12.0,-10.0,-3.0,0.0,1.0,-3.0,0.02606201171875,0.14495849609375,-0.18341064453125,0.971923828125,-0.29443359375,-0.001953125,0.9677734375,2.25,-0.25,0.625
1.0899999999999987,-2.0,-4.0,0.0,18.0,2.0,0.0,-2.0,-2.0,0.02606201171875,0.14495849609375,-0.18341064453125,0.971923828125,-0.29443359375,-0.001953125,0.9677734375,2.25,-0.25,0.625
1.0949999999999986,-2.0,-4.0,0.0,18.0,2.0,0.0,-2.0,-2.0,0.02630615234375,0.14483642578125,-0.183349609375,0.971923828125,-0.29248046875,-0.00146484375,0.96337890625,1.1875,-0.375,0.625
1.0999999999999985,-1.0,2.0,6.0,-15.0,-3.0,-4.0,2.0,-1.0,0.02630615234375,0.14483642578125,-0.183349609375,0.971923828125,-0.29248046875,-0.00146484375,0.96337890625,1.1875,-0.375,0.625
1.1049999999999984,-1.0,2.0,6.0,-15.0,-3.0,-4.0,2.0,-1.0,0.02642822265625,0.1446533203125,-0.18328857421875,0.97198486328125,-0.2861328125,-0.005859375,0.966796875,1.0625,-0.375,0.5
1.1099999999999983,-1.0,7.0,-2.0,7.0,3.0,0.0,-1.0,-2.0,0.02642822265625,0.1446533203125,-0.18328857421875,0.97198486328125,-0.2861328125,-0.005859375,0.966796875,1.0625,-0.375,0.5
1.1149999999999982,1.0,-2.0,-1.0,-6.0,-3.0,-3.0,0.0,-3.0,0.026611328125,0.14447021484375,-0.18316650390625,0.97198486328125,-0.287109375,0.00244140625,0.96630859375,1.0,-0.25,0.5625
1.119999999999998,-1.0,-1.0,2.0,-3.0,1.0,2.0,-4.0,-2.0,0.026611328125,0.14447021484375,-0.1832275390625,0.97198486328125,-0.2939453125,-0.00244140625,0.9716796875,0.5,-0.1875,0.5625
1.124999999999998,-1.0,-1.0,2.0,-3.0,1.0,2.0,-4.0,-2.0,0.026611328125,0.14447021484375,-0.1832275390625,0.97198486328125,-0.2939453125,-0.00244140625,0.9716796875,0.5,-0.1875,0.5625
1.129999999999998,0.0,11.0,12.0,-1.0,0.0,-2.0,-1.0,-1.0,0.026611328125,0.14447021484375,-0.1832275390625,0.97198486328125,-0.2939453125,-0.00244140625,0.9716796875,0.5,-0.1875,0.5625
1.1349999999999978,-9.0,-30.0,-13.0,-13.0,-5.0,-3.0,9.0,-2.0,0.026611328125,0.14447021484375,-0.1832275390625,0.97198486328125,-0.2939453125,-0.00244140625,0.9716796875,0.5,-0.1875,0.5625
1.1399999999999977,2.0,9.0,2.0,-32.0,-2.0,-1.0,-1.0,1.0,0.026611328125,0.14447021484375,-0.1832275390625,0.97198486328125,-0.2890625,-0.00146484375,0.97021484375,0.875,0.0,0.5
1.1449999999999976,-1.0,3.0,-1.0,-1.0,1.0,2.0,2.0,-2.0,0.02685546875,0.14434814453125,-0.1832275390625,0.9720458984375,-0.28271484375,0.00146484375,0.966796875,1.3125,0.125,0.0
1.1499999999999975,1.0,-1.0,-2.0,-9.0,-4.0,-2.0,-2.0,-2.0,0.02685546875,0.14434814453125,-0.1832275390625,0.9720458984375,-0.28271484375,0.00146484375,0.966796875,1.3125,0.125,0.0
1.1549999999999974,-1.0,-1.0,1.0,-2.0,1.0,-1.0,-1.0,0.0,0.02685546875,0.144287109375,-0.1832275390625,0.9720458984375,-0.287109375,0.005859375,0.97314453125,0.8125,0.1875,0.1875
1.1599999999999973,-1.0,0.0,1.0,2.0,-3.0,-1.0,-4.0,-2.0,0.02685546875,0.144287109375,-0.1832275390625,0.9720458984375,-0.2900390625,0.0029296875,0.970703125,-0.9375,0.0,0.1875
1.1649999999999971,-2.0,-10.0,-13.0,8.0,-3.0,0.0,-6.0,-1.0,0.02685546875,0.144287109375,-0.1832275390625,0.9720458984375,-0.2900390625,0.0029296875,0.970703125,-0.9375,0.0,0.1875
1.169999999999997,-2.0,-10.0,-13.0,8.0,-3.0,0.0,-6.0,-1.0,0.026611328125,0.144287109375,-0.18316650390625,0.9720458984375,-0.28955078125,-0.0068359375,0.96630859375,-1.3125,0.0625,0.0625
1.174999999999997,-6.0,-14.0,-2.0,-2.0,-8.0,-3.0,-4.0,-3.0,0.026611328125,0.144287109375,-0.18316650390625,0.9720458984375,-0.28955078125,-0.0068359375,0.96630859375,-1.3125,0.0625,0.0625
1.1799999999999968,-6.0,-14.0,-2.0,-2.0,-8.0,-3.0,-4.0,-3.0,0.026611328125,0.144287109375,-0.18316650390625,0.9720458984375,-0.28955078125,-0.0068359375,0.96630859375,-1.3125,0.0625,0.0625
1.1849999999999967,-6.0,-14.0,-2.0,-2.0,-8.0,-3.0,-4.0,-3.0,0.026611328125,0.14434814453125,-0.18316650390625,0.9720458984375,-0.296875,-0.0029296875,0.9677734375,0.125,0.3125,-0.5625
1.1899999999999966,1.0,-7.0,0.0,43.0,5.0,1.0,2.0,-1.0,0.026611328125,0.14434814453125,-0.18316650390625,0.9720458984375,-0.296875,-0.0029296875,0.9677734375,0.125,0.3125,-0.5625
1.1949999999999965,0.0,12.0,7.0,8.0,2.0,0.0,0.0,2.0,0.026611328125,0.144287109375,-0.18316650390625,0.9720458984375,-0.2880859375,0.001953125,0.96630859375,-0.0625,0.5625,-0.5
1.1999999999999964,0.0,12.0,7.0,8.0,2.0,0.0,0.0,2.0,0.026611328125,0.144287109375,-0.18316650390625,0.9720458984375,-0.2880859375,0.001953125,0.96630859375,-0.0625,0.5625,-0.5
1.2049999999999963,-1.0,0.0,0.0,3.0,1.0,0.0,0.0,0.0,0.026611328125,0.144287109375,-0.18316650390625,0.9720458984375,-0.2900390625,0.0009765625,0.9658203125,0.3125,0.5,-0.5625
1.2099999999999962,2.0,-1.0,-2.0,-14.0,-2.0,-2.0,-7.0,0.0,0.026611328125,0.144287109375,-0.18316650390625,0.9720458984375,-0.2900390625,0.0009765625,0.9658203125,0.3125,0.5,-0.5625
1.214999999999996,3.0,10.0,-10.0,-4.0,2.0,0.0,0.0,-1.0,0.026611328125,0.144287109375,-0.18316650390625,0.9720458984375,-0.2900390625,0.0009765625,0.9658203125,0.3125,0.5,-0.5625
1.219999999999996,3.0,10.0,-10.0,-4.0,2.0,0.0,0.0,-1.0,0.026611328125,0.144287109375,-0.18316650390625,0.9720458984375,-0.291015625,0.001953125,0.96337890625,-0.0625,0.75,-0.8125
1.2249999999999959,-1.0,-4.0,-3.0,-5.0,-1.0,1.0,15.0,0.0,0.026611328125,0.144287109375,-0.18316650390625,0.9720458984375,-0.291015625,0.001953125,0.96337890625,-0.0625,0.75,-0.8125
1.2299999999999958,-1.0,4.0,0.0,0.0,-3.0,-4.0,2.0,-3.0,0.026611328125,0.144287109375,-0.18316650390625,0.9720458984375,-0.291015625,0.001953125,0.96337890625,-0.0625,0.75,-0.8125
1.2349999999999957,-1.0,4.0,0.0,0.0,-3.0,-4.0,2.0,-3.0,0.026611328125,0.144287109375,-0.18316650390625,0.9720458984375,-0.2890625,-0.00244140625,0.96533203125,-0.5625,0.625,-0.6875
1.2399999999999956,3.0,12.0,7.0,17.0,3.0,0.0,0.0,1.0,0.026611328125,0.14422607421875,-0.18316650390625,0.9720458984375,-0.28515625,0.00146484375,0.96337890625,-0.875,0.4375,-0.625
1.2449999999999954,-4.0,-12.0,-7.0,-4.0,-3.0,0.0,6.0,-2.0,0.026611328125,0.14422607421875,-0.18316650390625,0.9720458984375,-0.28515625,0.00146484375,0.96337890625,-0.875,0.4375,-0.625
1.2499999999999953,0.0,-3.0,3.0,0.0,-2.0,-1.0,-12.0,-4.0,0.026611328125,0.14422607421875,-0.18316650390625,0.9720458984375,-0.28515625,0.00146484375,0.96337890625,-0.875,0.4375,-0.625
1.2549999999999952,0.0,-3.0,3.0,0.0,-2.0,-1.0,-12.0,-4.0,0.0262451171875,0.14434814453125,-0.1832275390625,0.9720458984375,-0.28955078125,-0.01123046875,0.96923828125,-1.4375,0.4375,-0.25
1.2599999999999951,-2.0,-3.0,-9.0,-6.0,-1.0,1.0,6.0,1.0,0.0262451171875,0.14434814453125,-0.1832275390625,0.9720458984375,-0.28955078125,-0.01123046875,0.96923828125,-1.4375,0.4375,-0.25
1.264999999999995,-2.0,-3.0,-9.0,-6.0,-1.0,1.0,6.0,1.0,0.0262451171875,0.14434814453125,-0.1832275390625,0.9720458984375,-0.298828125,-0.0029296875,0.96875,0.375,0.1875,-0.5625
1.269999999999995,0.0,0.0,1.0,-3.0,-3.0,0.0,-2.0,0.0,0.0262451171875,0.14434814453125,-0.1832275390625,0.9720458984375,-0.298828125,-0.0029296875,0.96875,0.375,0.1875,-0.5625
1.2749999999999948,0.0,0.0,1.0,-3.0,-3.0,0.0,-2.0,0.0,0.02630615234375,0.14434814453125,-0.1832275390625,0.9720458984375,-0.29296875,0.00390625,0.97021484375,0.25,-0.0625,-0.625
1.2799999999999947,0.0,4.0,6.0,12.0,1.0,-1.0,-2.0,0.0,0.02630615234375,0.14434814453125,-0.1832275390625,0.9720458984375,-0.29296875,0.00390625,0.97021484375,0.25,-0.0625,-0.625
1.2849999999999946,-6.0,-10.0,-4.0,-1.0,-2.0,-2.0,-2.0,-3.0,0.02630615234375,0.14434814453125,-0.1832275390625,0.9720458984375,-0.29443359375,-0.00048828125,0.96533203125,0.0,-0.0625,-0.3125
1.2899999999999945,-1.0,-6.0,-3.0,-7.0,-3.0,-3.0,-14.0,-2.0,0.02630615234375,0.14434814453125,-0.1832275390625,0.9720458984375,-0.29443359375,-0.00048828125,0.96533203125,0.0,-0.0625,-0.3125
1.2949999999999944,-1.0,-6.0,-3.0,-7.0,-3.0,-3.0,-14.0,-2.0,0.02630615234375,0.14434814453125,-0.1832275390625,0.9720458984375,-0.2919921875,0.00048828125,0.96533203125,-0.4375,0.0625,-0.1875
1.2999999999999943,1.0,0.0,-1.0,2.0,1.0,1.0,1.0,-1.0,0.02630615234375,0.14434814453125,-0.1832275390625,0.9720458984375,-0.29150390625,0.0,0.96630859375,-0.1875,0.125,-0.3125
1.3049999999999942,-1.0,-7.0,-2.0,3.0,-1.0,-1.0,3.0,-1.0,0.02630615234375,0.14434814453125,-0.1832275390625,0.9720458984375,-0.29150390625,0.0,0.96630859375,-0.1875,0.125,-0.3125
1.309999999999994,-1.0,-7.0,-2.0,3.0,-1.0,-1.0,3.0,-1.0,0.02630615234375,0.14434814453125,-0.1832275390625,0.9720458984375,-0.29150390625,0.0,0.96630859375,-0.1875,0.125,-0.3125
1.314999999999994,0.0,2.0,0.0,4.0,-2.0,-1.0,1.0,-2.0,0.02630615234375,0.14434814453125,-0.1832275390625,0.9720458984375,-0.287109375,-0.00537109375,0.97021484375,-0.5625,0.1875,-0.125
1.3199999999999938,-1.0,6.0,0.0,-38.0,-7.0,-1.0,2.0,-1.0,0.02630615234375,0.14434814453125,-0.1832275390625,0.9720458984375,-0.29150390625,-0.0048828125,0.97021484375,-0.375,0.1875,-0.125
1.3249999999999937,-8.0,-12.0,0.0,-3.0,0.0,-4.0,-6.0,-5.0,0.02630615234375,0.14434814453125,-0.1832275390625,0.9720458984375,-0.29150390625,-0.0048828125,0.97021484375,-0.375,0.1875,-0.125
1.3299999999999936,-3.0,-5.0,-2.0,2.0,0.0,1.0,-1.0,-3.0,0.0262451171875,0.144287109375,-0.1832275390625,0.9720458984375,-0.29296875,-0.0029296875,0.9697265625,-0.1875,0.25,-0.1875
1.3349999999999935,1.0,5.0,5.0,1.0,1.0,0.0,1.0,0.0,0.0262451171875,0.144287109375,-0.1832275390625,0.9720458984375,-0.29296875,-0.0029296875,0.9697265625,-0.1875,0.25,-0.1875
1.3399999999999934,-1.0,-2.0,-1.0,-11.0,-2.0,-2.0,6.0,-1.0,0.0262451171875,0.144287109375,-0.1832275390625,0.9720458984375,-0.29296875,-0.0029296875,0.9697265625,-0.1875,0.25,-0.1875
1.3449999999999933,-1.0,-2.0,-1.0,-11.0,-2.0,-2.0,6.0,-1.0,0.0262451171875,0.144287109375,-0.1832275390625,0.9720458984375,-0.29296875,-0.0029296875,0.9697265625,-0.1875,0.25,-0.1875
1.3499999999999932,-1.0,-2.0,-1.0,-11.0,-2.0,-2.0,6.0,-1.0,0.0262451171875,0.144287109375,-0.1832275390625,0.9720458984375,-0.29052734375,-0.00537109375,0.970703125,0.0,0.3125,0.0625
1.354999999999993,1.0,3.0,1.0,4.0,-3.0,-1.0,-2.0,-1.0,0.0262451171875,0.144287109375,-0.1832275390625,0.9720458984375,-0.29052734375,-0.00537109375,0.970703125,0.0,0.3125,0.0625
1.359999999999993,0.0,-1.0,-6.0,0.0,-1.0,-1.0,1.0,1.0,0.0262451171875,0.144287109375,-0.1832275390625,0.9720458984375,-0.28955078125,-0.00146484375,0.96337890625,-0.0625,0.375,0.125
1.3649999999999929,1.0,-1.0,2.0,4.0,-2.0,-1.0,-1.0,-1.0,0.0262451171875,0.144287109375,-0.1832275390625,0.9720458984375,-0.28759765625,-0.005859375,0.970703125,-0.25,0.4375,0.0625
1.3699999999999928,0.0,9.0,-1.0,3.0,0.0,0.0,2.0,-1.0,0.0262451171875,0.144287109375,-0.1832275390625,0.9720458984375,-0.28759765625,-0.005859375,0.970703125,-0.25,0.4375,0.0625
1.3749999999999927,-6.0,-13.0,-13.0,-22.0,-2.0,-2.0,-9.0,-4.0,0.0262451171875,0.144287109375,-0.1832275390625,0.9720458984375,-0.29052734375,-0.00537109375,0.96923828125,-0.0625,0.5,0.0
1.3799999999999926,0.0,0.0,2.0,-7.0,-3.0,0.0,-1.0,-1.0,0.0262451171875,0.144287109375,-0.1832275390625,0.9720458984375,-0.29052734375,-0.00537109375,0.96923828125,-0.0625,0.5,0.0
1.3849999999999925,-4.0,-11.0,-13.0,-9.0,-1.0,-1.0,2.0,-2.0,0.0262451171875,0.144287109375,-0.1832275390625,0.9720458984375,-0.29052734375,-0.00537109375,0.96923828125,-0.0625,0.5,0.0
1.3899999999999924,-4.0,-11.0,-13.0,-9.0,-1.0,-1.0,2.0,-2.0,0.0262451171875,0.144287109375,-0.1832275390625,0.9720458984375,-0.291015625,0.0,0.96923828125,-0.4375,0.375,-0.125
1.3949999999999922,0.0,-1.0,-10.0,3.0,-1.0,-4.0,-3.0,-2.0,0.0262451171875,0.144287109375,-0.1832275390625,0.9720458984375,-0.291015625,0.0,0.96923828125,-0.4375,0.375,-0.125
1.3999999999999921,-1.0,2.0,6.0,5.0,-1.0,-1.0,1.0,1.0,0.0262451171875,0.144287109375,-0.1832275390625,0.9720458984375,-0.291015625,0.0,0.96923828125,-0.4375,0.375,-0.125
1.404999999999992,-1.0,-1.0,2.0,7.0,1.0,1.0,0.0,0.0,0.0262451171875,0.144287109375,-0.1832275390625,0.9720458984375,-0.29736328125,-0.00634765625,0.96484375,-0.125,0.3125,0.0
1.409999999999992,-1.0,-4.0,1.0,10.0,0.0,0.0,0.0,-2.0,0.0262451171875,0.144287109375,-0.1832275390625,0.9720458984375,-0.29736328125,-0.00634765625,0.96484375,-0.125,0.3125,0.0
1.4149999999999918,-1.0,-4.0,1.0,10.0,0.0,0.0,0.0,-2.0,0.0262451171875,0.144287109375,-0.1832275390625,0.9720458984375,-0.29736328125,-0.0009765625,0.97265625,-0.3125,0.125,-0.0625
1.4199999999999917,-2.0,-3.0,4.0,-7.0,-2.0,-2.0,-1.0,0.0,0.0262451171875,0.144287109375,-0.1832275390625,0.9720458984375,-0.29736328125,-0.0009765625,0.97265625,-0.3125,0.125,-0.0625
1.4249999999999916,1.0,7.0,8.0,8.0,1.0,0.0,7.0,2.0,0.0262451171875,0.144287109375,-0.1832275390625,0.9720458984375,-0.29443359375,-0.0029296875,0.966796875,0.125,-0.0625,0.0
1.4299999999999915,-1.0,-3.0,4.0,-3.0,-4.0,-2.0,2.0,0.0,0.0262451171875,0.144287109375,-0.1832275390625,0.9720458984375,-0.29443359375,-0.0029296875,0.966796875,0.125,-0.0625,0.0
1.4349999999999914,1.0,7.0,6.0,46.0,3.0,-1.0,1.0,0.0,0.0262451171875,0.144287109375,-0.1832275390625,0.9720458984375,-0.29541015625,-0.00244140625,0.9677734375,0.375,-0.625,0.125
1.4399999999999913,-1.0,-6.0,6.0,10.0,0.0,0.0,-3.0,-2.0,0.0262451171875,0.144287109375,-0.1832275390625,0.9720458984375,-0.29541015625,-0.00244140625,0.9677734375,0.375,-0.625,0.125
1.4449999999999912,1.0,-5.0,2.0,-15.0,-3.0,-3.0,0.0,0.0,0.0262451171875,0.144287109375,-0.1832275390625,0.9720458984375,-0.2900390625,-0.001953125,0.96435546875,0.4375,-0.875,0.0625
1.449999999999991,-2.0,2.0,-3.0,-7.0,-1.0,-1.0,-1.0,-1.0,0.0262451171875,0.144287109375,-0.1832275390625,0.9720458984375,-0.2900390625,-0.001953125,0.96435546875,0.4375,-0.875,0.0625
1.454999999999991,0.0,-1.0,-4.0,-5.0,1.0,-1.0,-18.0,-3.0,0.0262451171875,0.144287109375,-0.1832275390625,0.9720458984375,-0.2900390625,-0.001953125,0.96435546875,0.4375,-0.875,0.0625
1.4599999999999909,0.0,-1.0,-4.0,-5.0,1.0,-1.0,-18.0,-3.0,0.0263671875,0.14404296875,-0.1832275390625,0.9720458984375,-0.2900390625,-0.005859375,0.97314453125,1.3125,-0.75,0.0
1.4649999999999908,2.0,3.0,5.0,-2.0,0.0,1.0,0.0,1.0,0.0263671875,0.14404296875,-0.1832275390625,0.9720458984375,-0.2900390625,-0.005859375,0.97314453125,1.3125,-0.75,0.0
1.4699999999999906,0.0,2.0,-3.0,-1.0,-3.0,0.0,5.0,0.0,0.02667236328125,0.14385986328125,-0.18328857421875,0.97210693359375,-0.28759765625,0.00537109375,0.970703125,1.5625,-0.5625,-0.125
1.4749999999999905,-2.0,2.0,-14.0,2.0,0.0,0.0,-15.0,3.0,0.02667236328125,0.14385986328125,-0.18328857421875,0.97210693359375,-0.28759765625,0.00537109375,0.970703125,1.5625,-0.5625,-0.125
1.4799999999999904,-2.0,-2.0,-5.0,-3.0,0.0,-2.0,0.0,-1.0,0.02667236328125,0.143798828125,-0.18328857421875,0.97210693359375,-0.28173828125,0.00244140625,0.9765625,-0.125,-0.25,0.25
1.4849999999999903,-1.0,2.0,0.0,-7.0,-3.0,-1.0,7.0,0.0,0.02667236328125,0.143798828125,-0.18328857421875,0.97210693359375,-0.28173828125,0.00244140625,0.9765625,-0.125,-0.25,0.25
1.4899999999999902,-3.0,-16.0,-10.0,1.0,-1.0,-1.0,-2.0,-3.0,0.0264892578125,0.143798828125,-0.1832275390625,0.97210693359375,-0.2880859375,-0.00146484375,0.9697265625,-1.0625,0.0625,0.25
1.4949999999999901,0.0,1.0,3.0,-1.0,0.0,-1.0,-1.0,-1.0,0.0264892578125,0.143798828125,-0.1832275390625,0.97210693359375,-0.29052734375,-0.0048828125,0.97314453125,-0.9375,0.375,0.3125
1.49999999999999,0.0,1.0,3.0,-1.0,0.0,-1.0,-1.0,-1.0,0.0264892578125,0.143798828125,-0.1832275390625,0.97210693359375,-0.29052734375,-0.0048828125,0.97314453125,-0.9375,0.375,0.3125
1.50499999999999,0.0,-2.0,2.0,0.0,-3.0,-2.0,0.0,-2.0,0.0264892578125,0.143798828125,-0.1832275390625,0.97210693359375,-0.2900390625,-0.00390625,0.9716796875,0.125,0.5,-0.0625
1.5099999999999898,-1.0,2.0,-1.0,3.0,1.0,3.0,3.0,0.0,0.0264892578125,0.143798828125,-0.1832275390625,0.97210693359375,-0.2900390625,-0.00390625,0.9716796875,0.125,0.5,-0.0625
1.5149999999999897,1.0,5.0,2.0,1.0,1.0,-1.0,1.0,0.0,0.0264892578125,0.143798828125,-0.1832275390625,0.97210693359375,-0.2900390625,-0.00390625,0.9716796875,0.125,0.5,-0.0625
1.5199999999999896,-2.0,2.0,-1.0,-3.0,-3.0,-3.0,-5.0,-1.0,0.0264892578125,0.143798828125,-0.1832275390625,0.97210693359375,-0.2900390625,-0.00048828125,0.9638671875,0.75,0.5,-0.3125
1.5249999999999895,-2.0,2.0,-1.0,-3.0,-3.0,-3.0,-5.0,-1.0,0.0264892578125,0.143798828125,-0.1832275390625,0.97210693359375,-0.2900390625,-0.00048828125,0.9638671875,0.75,0.5,-0.3125
1.5299999999999894,-4.0,-7.0,-3.0,-5.0,-3.0,-2.0,-7.0,-3.0,0.0264892578125,0.14373779296875,-0.1832275390625,0.97210693359375,-0.2890625,0.00390625,0.9697265625,0.25,0.375,-0.5
1.5349999999999893,-4.0,-7.0,-3.0,-5.0,-3.0,-2.0,-7.0,-3.0,0.02655029296875,0.14373779296875,-0.1832275390625,0.97210693359375,-0.2880859375,0.001953125,0.97119140625,-1.0,0.25,-0.6875
1.5399999999999892,-2.0,-3.0,1.0,-30.0,1.0,0.0,0.0,-2.0,0.02655029296875,0.14373779296875,-0.1832275390625,0.97210693359375,-0.2880859375,0.001953125,0.97119140625,-1.0,0.25,-0.6875
1.544999999999989,-2.0,0.0,-1.0,-18.0,-3.0,-1.0,1.0,-1.0,0.0264892578125,0.14373779296875,-0.1832275390625,0.97210693359375,-0.29052734375,-0.00341796875,0.9638671875,-0.8125,0.0625,-0.6875
1.549999999999989,0.0,-1.0,-1.0,-7.0,-6.0,-2.0,0.0,-2.0,0.0264892578125,0.14373779296875,-0.1832275390625,0.97210693359375,-0.29345703125,-0.00634765625,0.97216796875,-0.25,0.0,-0.625
1.5549999999999888,-1.0,-2.0,-1.0,3.0,0.0,-1.0,1.0,1.0,0.0264892578125,0.14373779296875,-0.1832275390625,0.97210693359375,-0.29345703125,-0.00634765625,0.97216796875,-0.25,0.0,-0.625
1.5599999999999887,-1.0,1.0,-2.0,2.0,0.0,0.0,-1.0,-2.0,0.0264892578125,0.14373779296875,-0.1832275390625,0.97210693359375,-0.2919921875,-0.00439453125,0.966796875,-0.25,-0.25,-0.8125
1.5649999999999886,-2.0,-3.0,1.0,1.0,-2.0,-2.0,-1.0,-1.0,0.0264892578125,0.14373779296875,-0.1832275390625,0.97210693359375,-0.2919921875,-0.00439453125,0.966796875,-0.25,-0.25,-0.8125
1.5699999999999885,-3.0,-1.0,2.0,6.0,-1.0,0.0,0.0,-1.0,0.0264892578125,0.14373779296875,-0.1832275390625,0.97210693359375,-0.2919921875,-0.00439453125,0.966796875,-0.25,-0.25,-0.8125
1.5749999999999884,-3.0,-1.0,2.0,6.0,-1.0,0.0,0.0,-1.0,0.0264892578125,0.14373779296875,-0.1832275390625,0.97210693359375,-0.28857421875,-0.0078125,0.9619140625,-0.4375,-0.375,-0.4375
1.5799999999999883,-3.0,-1.0,2.0,6.0,-1.0,0.0,0.0,-1.0,0.0264892578125,0.14373779296875,-0.1832275390625,0.97210693359375,-0.28857421875,-0.0078125,0.9619140625,-0.4375,-0.375,-0.4375
1.5849999999999882,0.0,-2.0,-2.0,8.0,1.0,-2.0,1.0,0.0,0.02642822265625,0.14373779296875,-0.1832275390625,0.97210693359375,-0.2802734375,-0.0107421875,0.958984375,-0.875,-0.4375,0.1875
1.589999999999988,-2.0,4.0,0.0,39.0,1.0,-2.0,-2.0,-2.0,0.02642822265625,0.14373779296875,-0.1832275390625,0.97210693359375,-0.2802734375,-0.0107421875,0.958984375,-0.875,-0.4375,0.1875
1.594999999999988,-2.0,2.0,-5.0,-8.0,-5.0,-3.0,1.0,-1.0,0.02642822265625,0.1436767578125,-0.1832275390625,0.97210693359375,-0.28857421875,-0.01220703125,0.97216796875,0.1875,-0.4375,0.8125
1.5999999999999879,1.0,6.0,2.0,-13.0,-3.0,0.0,1.0,-1.0,0.02642822265625,0.1436767578125,-0.1832275390625,0.97210693359375,-0.28857421875,-0.01220703125,0.97216796875,0.1875,-0.4375,0.8125
1.6049999999999878,0.0,-14.0,-13.0,7.0,1.0,-1.0,0.0,-2.0,0.0263671875,0.1435546875,-0.18310546875,0.97216796875,-0.28857421875,-0.01171875,0.97314453125,0.25,-0.5,1.125
1.6099999999999877,1.0,9.0,0.0,-1.0,1.0,-1.0,-9.0,3.0,0.0267333984375,0.1434326171875,-0.1829833984375,0.97222900390625,-0.29443359375,0.001953125,0.966796875,2.125,-0.375,0.9375
1.6149999999999876,1.0,9.0,0.0,-1.0,1.0,-1.0,-9.0,3.0,0.0267333984375,0.1434326171875,-0.1829833984375,0.97222900390625,-0.29443359375,0.001953125,0.966796875,2.125,-0.375,0.9375
1.6199999999999875,-1.0,-8.0,4.0,-16.0,-3.0,-1.0,4.0,0.0,0.0267333984375,0.1434326171875,-0.1829833984375,0.97222900390625,-0.29443359375,0.001953125,0.966796875,2.125,-0.375,0.9375
1.6249999999999873,-1.0,-8.0,4.0,-16.0,-3.0,-1.0,4.0,0.0,0.0269775390625,0.1434326171875,-0.1827392578125,0.97222900390625,-0.28759765625,0.00390625,0.966796875,0.75,0.125,1.1875
1.6299999999999872,-2.0,5.0,0.0,1.0,0.0,0.0,2.0,-2.0,0.0269775390625,0.1434326171875,-0.1827392578125,0.97222900390625,-0.28759765625,0.00390625,0.966796875,0.75,0.125,1.1875
1.6349999999999871,-2.0,5.0,0.0,1.0,0.0,0.0,2.0,-2.0,0.0269775390625,0.14337158203125,-0.1827392578125,0.97222900390625,-0.28369140625,0.00830078125,0.9716796875,-0.3125,0.75,0.6875
1.639999999999987,-1.0,-6.0,-15.0,7.0,-2.0,-1.0,1.0,-1.0,0.0269775390625,0.14337158203125,-0.1827392578125,0.97222900390625,-0.28369140625,0.00830078125,0.9716796875,-0.3125,0.75,0.6875
1.644999999999987,-4.0,-7.0,-2.0,-23.0,-1.0,-1.0,-1.0,0.0,0.02703857421875,0.1434326171875,-0.18280029296875,0.97222900390625,-0.28369140625,0.0029296875,0.970703125,0.125,1.125,-0.125
1.6499999999999868,-2.0,-3.0,-5.0,-9.0,-1.0,0.0,0.0,-1.0,0.02703857421875,0.1434326171875,-0.18280029296875,0.97222900390625,-0.28369140625,0.0029296875,0.970703125,0.125,1.125,-0.125
1.6549999999999867,2.0,10.0,0.0,-5.0,-1.0,-1.0,0.0,0.0,0.0272216796875,0.1435546875,-0.182861328125,0.97216796875,-0.28515625,0.00390625,0.96484375,0.6875,1.1875,-0.5
1.6599999999999866,0.0,7.0,7.0,8.0,1.0,1.0,-5.0,-4.0,0.0272216796875,0.1435546875,-0.182861328125,0.97216796875,-0.28515625,0.00390625,0.96484375,0.6875,1.1875,-0.5
1.6649999999999865,-4.0,-4.0,-9.0,0.0,-4.0,-2.0,-7.0,-5.0,0.0272216796875,0.1435546875,-0.182861328125,0.97216796875,-0.28515625,0.00390625,0.96484375,0.6875,1.1875,-0.5
1.6699999999999864,-4.0,-4.0,-9.0,0.0,-4.0,-2.0,-7.0,-5.0,0.02728271484375,0.1436767578125,-0.18304443359375,0.97210693359375,-0.28466796875,0.00927734375,0.9658203125,-0.4375,1.375,-1.1875
1.6749999999999863,-3.0,-3.0,0.0,-9.0,-1.0,-3.0,-4.0,-1.0,0.02728271484375,0.1436767578125,-0.18304443359375,0.97210693359375,-0.28466796875,0.00927734375,0.9658203125,-0.4375,1.375,-1.1875
1.6799999999999862,0.0,-4.0,-3.0,3.0,1.0,0.0,0.0,-1.0,0.02728271484375,0.1436767578125,-0.18304443359375,0.97210693359375,-0.28466796875,0.00927734375,0.9658203125,-0.4375,1.375,-1.1875
1.684999999999986,0.0,-4.0,-3.0,3.0,1.0,0.0,0.0,-1.0,0.02691650390625,0.14398193359375,-0.18316650390625,0.9720458984375,-0.28662109375,0.00537109375,0.96875,-2.625,1.5625,-1.4375
1.689999999999986,-2.0,-4.0,1.0,-5.0,0.0,-1.0,3.0,0.0,0.02691650390625,0.14398193359375,-0.18316650390625,0.9720458984375,-0.28662109375,0.00537109375,0.96875,-2.625,1.5625,-1.4375
1.6949999999999859,-1.0,-5.0,-1.0,3.0,-4.0,-3.0,0.0,0.0,0.02618408203125,0.1444091796875,-0.183349609375,0.97198486328125,-0.2919921875,-0.00439453125,0.9677734375,-4.25,1.6875,-1.75
1.6999999999999857,1.0,-1.0,-6.0,-34.0,1.0,-2.0,1.0,1.0,0.02618408203125,0.1444091796875,-0.183349609375,0.97198486328125,-0.2919921875,-0.00439453125,0.9677734375,-4.25,1.6875,-1.75
1.7049999999999856,-2.0,-5.0,-3.0,-7.0,-1.0,-1.0,3.0,-3.0,0.025634765625,0.144775390625,-0.18365478515625,0.971923828125,-0.294921875,-0.01171875,0.97021484375,-2.75,1.75,-2.125
1.7099999999999855,-2.0,-5.0,-3.0,-7.0,-1.0,-1.0,3.0,-3.0,0.025634765625,0.144775390625,-0.18365478515625,0.971923828125,-0.294921875,-0.01171875,0.97021484375,-2.75,1.75,-2.125
1.7149999999999854,-1.0,-2.0,-4.0,-6.0,0.0,0.0,-1.0,-2.0,0.025634765625,0.144775390625,-0.18365478515625,0.971923828125,-0.294921875,-0.01171875,0.97021484375,-2.75,1.75,-2.125
1.7199999999999853,0.0,-3.0,2.0,9.0,-1.0,-1.0,0.0,0.0,0.025390625,0.1451416015625,-0.18402099609375,0.9718017578125,-0.29541015625,-0.0078125,0.96728515625,-1.125,1.75,-2.25
1.7249999999999852,0.0,-3.0,2.0,9.0,-1.0,-1.0,0.0,0.0,0.02520751953125,0.14544677734375,-0.18426513671875,0.9716796875,-0.29541015625,-0.00732421875,0.9677734375,-1.0625,1.4375,-1.6875
1.729999999999985,0.0,2.0,3.0,13.0,-1.0,-1.0,1.0,0.0,0.02520751953125,0.14544677734375,-0.18426513671875,0.9716796875,-0.29541015625,-0.00732421875,0.9677734375,-1.0625,1.4375,-1.6875
1.734999999999985,-2.0,-7.0,-10.0,-6.0,-2.0,-1.0,1.0,-1.0,0.02520751953125,0.14544677734375,-0.18426513671875,0.9716796875,-0.29541015625,-0.00732421875,0.9677734375,-1.0625,1.4375,-1.6875
1.739999999999985,-2.0,-7.0,-10.0,-6.0,-2.0,-1.0,1.0,-1.0,0.0247802734375,0.14569091796875,-0.18438720703125,0.97161865234375,-0.29052734375,-0.015625,0.95654296875,-1.75,1.125,-1.0625
1.7449999999999848,-1.0,-1.0,2.0,2.0,-1.0,-1.0,5.0,2.0,0.0247802734375,0.14569091796875,-0.18438720703125,0.97161865234375,-0.29052734375,-0.015625,0.95654296875,-1.75,1.125,-1.0625
1.7499999999999847,-1.0,-1.0,2.0,2.0,-1.0,-1.0,5.0,2.0,0.0247802734375,0.14569091796875,-0.18438720703125,0.97161865234375,-0.2900390625,-0.017578125,0.96728515625,-0.625,0.6875,-0.8125
1.7549999999999846,-4.0,2.0,-4.0,5.0,-4.0,-4.0,-9.0,-2.0,0.0247802734375,0.14569091796875,-0.18438720703125,0.97161865234375,-0.2900390625,-0.017578125,0.96728515625,-0.625,0.6875,-0.8125
1.7599999999999845,-10.0,-25.0,-18.0,18.0,-1.0,-2.0,3.0,-7.0,0.02471923828125,0.14569091796875,-0.18438720703125,0.9716796875,-0.29052734375,-0.01416015625,0.9658203125,0.375,0.5625,-0.25
1.7649999999999844,-1.0,-8.0,-1.0,-2.0,-2.0,-3.0,3.0,-4.0,0.02471923828125,0.14569091796875,-0.18438720703125,0.9716796875,-0.29052734375,-0.01416015625,0.9658203125,0.375,0.5625,-0.25
1.7699999999999843,2.0,17.0,9.0,-12.0,-3.0,-1.0,-3.0,2.0,0.02471923828125,0.14569091796875,-0.18438720703125,0.9716796875,-0.29052734375,-0.01416015625,0.9658203125,0.375,0.5625,-0.25
1.7749999999999841,-3.0,-6.0,0.0,2.0,0.0,-1.0,1.0,-1.0,0.02471923828125,0.14569091796875,-0.18438720703125,0.9716796875,-0.29150390625,-0.01171875,0.96435546875,0.75,0.125,0.375
1.779999999999984,-1.0,-1.0,2.0,8.0,2.0,1.0,0.0,-1.0,0.024658203125,0.14569091796875,-0.1842041015625,0.9716796875,-0.29345703125,-0.0107421875,0.96630859375,-0.1875,0.1875,1.25
1.784999999999984,-1.0,-1.0,2.0,8.0,2.0,1.0,0.0,-1.0,0.024658203125,0.14569091796875,-0.1842041015625,0.9716796875,-0.29345703125,-0.0107421875,0.96630859375,-0.1875,0.1875,1.25
1.7899999999999838,1.0,-1.0,-1.0,-1.0,-1.0,0.0,-7.0,0.0,0.024658203125,0.145751953125,-0.1839599609375,0.97174072265625,-0.2958984375,-0.01708984375,0.962890625,0.3125,0.3125,1.375
1.7949999999999837,0.0,4.0,5.0,-1.0,-1.0,1.0,-1.0,1.0,0.024658203125,0.145751953125,-0.1839599609375,0.97174072265625,-0.2958984375,-0.01708984375,0.962890625,0.3125,0.3125,1.375
1.7999999999999836,0.0,4.0,5.0,-1.0,-1.0,1.0,-1.0,1.0,0.02508544921875,0.14569091796875,-0.183837890625,0.97174072265625,-0.2958984375,-0.00927734375,0.97119140625,2.375,0.125,1.3125
1.8049999999999835,0.0,-4.0,0.0,1.0,3.0,0.0,0.0,1.0,0.02508544921875,0.14569091796875,-0.183837890625,0.97174072265625,-0.2958984375,-0.00927734375,0.97119140625,2.375,0.125,1.3125
1.8099999999999834,-1.0,-4.0,-6.0,-7.0,-2.0,-1.0,-4.0,-2.0,0.02508544921875,0.14569091796875,-0.183837890625,0.97174072265625,-0.2958984375,-0.00927734375,0.97119140625,2.375,0.125,1.3125
1.8149999999999833,-1.0,-4.0,-6.0,-7.0,-2.0,-1.0,-4.0,-2.0,0.025634765625,0.1455078125,-0.18365478515625,0.9718017578125,-0.2900390625,-0.001953125,0.97021484375,2.875,0.0,1.375
1.8199999999999832,-1.0,6.0,3.0,28.0,0.0,-2.0,-10.0,-4.0,0.02581787109375,0.1453857421875,-0.1834716796875,0.97186279296875,-0.28857421875,-0.0078125,0.96435546875,1.5625,-0.0625,1.4375
1.824999999999983,0.0,-2.0,-1.0,-3.0,-1.0,0.0,7.0,0.0,0.02581787109375,0.1453857421875,-0.1834716796875,0.97186279296875,-0.28857421875,-0.0078125,0.96435546875,1.5625,-0.0625,1.4375
1.829999999999983,-2.0,-1.0,2.0,-13.0,-4.0,-2.0,5.0,-1.0,0.02581787109375,0.1453857421875,-0.1834716796875,0.97186279296875,-0.28857421875,-0.0078125,0.96435546875,1.5625,-0.0625,1.4375
1.8349999999999829,-2.0,-1.0,2.0,-13.0,-4.0,-2.0,5.0,-1.0,0.02606201171875,0.14532470703125,-0.18328857421875,0.97186279296875,-0.29345703125,-0.0009765625,0.96923828125,0.875,-0.25,1.0625
1.8399999999999828,-2.0,-3.0,2.0,-1.0,-1.0,-1.0,-4.0,-3.0,0.02606201171875,0.14532470703125,-0.18328857421875,0.97186279296875,-0.29345703125,-0.0009765625,0.96923828125,0.875,-0.25,1.0625
1.8449999999999827,0.0,-1.0,-1.0,-1.0,-1.0,-1.0,-2.0,2.0,0.02606201171875,0.14532470703125,-0.18328857421875,0.97186279296875,-0.29345703125,-0.0009765625,0.96923828125,0.875,-0.25,1.0625
1.8499999999999825,0.0,-1.0,-1.0,-1.0,-1.0,-1.0,-2.0,2.0,0.02606201171875,0.14532470703125,-0.18328857421875,0.97186279296875,-0.29345703125,-0.0009765625,0.96923828125,0.875,-0.25,1.0625
1.8549999999999824,-1.0,-8.0,-4.0,-6.0,-2.0,-2.0,-1.0,-1.0,0.02606201171875,0.145263671875,-0.18328857421875,0.97186279296875,-0.294921875,-0.00146484375,0.9658203125,0.4375,-0.125,0.625
1.8599999999999823,-1.0,-8.0,-4.0,-6.0,-2.0,-2.0,-1.0,-1.0,0.02606201171875,0.145263671875,-0.18328857421875,0.97186279296875,-0.294921875,-0.00146484375,0.9658203125,0.4375,-0.125,0.625
1.8649999999999822,-1.0,-2.0,-2.0,6.0,-1.0,0.0,-2.0,-3.0,0.02606201171875,0.145263671875,-0.18328857421875,0.97186279296875,-0.28515625,0.00146484375,0.9716796875,0.6875,-0.125,0.3125
1.8699999999999821,0.0,-3.0,0.0,0.0,-1.0,-2.0,0.0,0.0,0.02606201171875,0.14520263671875,-0.18328857421875,0.971923828125,-0.28466796875,-0.00146484375,0.97509765625,-0.25,0.5625,-0.75
1.874999999999982,-2.0,0.0,5.0,3.0,-1.0,-1.0,-3.0,-2.0,0.02606201171875,0.14520263671875,-0.18328857421875,0.971923828125,-0.28466796875,-0.00146484375,0.97509765625,-0.25,0.5625,-0.75
1.879999999999982,0.0,0.0,1.0,-13.0,0.0,-1.0,0.0,0.0,0.02606201171875,0.14520263671875,-0.18328857421875,0.971923828125,-0.28466796875,-0.00146484375,0.97509765625,-0.25,0.5625,-0.75
1.8849999999999818,0.0,0.0,1.0,-13.0,0.0,-1.0,0.0,0.0,0.02593994140625,0.14532470703125,-0.18341064453125,0.97186279296875,-0.28515625,0.00390625,0.97216796875,-1.0625,1.25,-1.1875
1.8899999999999817,-2.0,-5.0,-2.0,14.0,2.0,-1.0,0.0,-1.0,0.0257568359375,0.1456298828125,-0.18365478515625,0.9718017578125,-0.2880859375,0.005859375,0.970703125,-1.9375,2.0,-1.6875
1.8949999999999816,-1.0,4.0,3.0,-4.0,-1.0,-2.0,-8.0,-3.0,0.0257568359375,0.1456298828125,-0.18365478515625,0.9718017578125,-0.2880859375,0.005859375,0.970703125,-1.9375,2.0,-1.6875
1.8999999999999815,-8.0,-17.0,-9.0,-19.0,-4.0,-3.0,-3.0,-5.0,0.0257568359375,0.1456298828125,-0.18365478515625,0.9718017578125,-0.2880859375,0.005859375,0.970703125,-1.9375,2.0,-1.6875
1.9049999999999814,-8.0,-17.0,-9.0,-19.0,-4.0,-3.0,-3.0,-5.0,0.02532958984375,0.14605712890625,-0.18389892578125,0.9716796875,-0.291015625,-0.0048828125,0.9677734375,-2.5625,2.4375,-1.875
1.9099999999999813,-2.0,-2.0,-3.0,-2.0,-2.0,-1.0,1.0,0.0,0.02532958984375,0.14605712890625,-0.18389892578125,0.9716796875,-0.291015625,-0.0048828125,0.9677734375,-2.5625,2.4375,-1.875
1.9149999999999812,3.0,7.0,1.0,5.0,1.0,-2.0,0.0,-1.0,0.02496337890625,0.146484375,-0.1842041015625,0.9715576171875,-0.2939453125,-0.00732421875,0.96484375,-2.3125,2.25,-2.4375
1.919999999999981,1.0,3.0,6.0,-2.0,0.0,1.0,-11.0,-4.0,0.02496337890625,0.146484375,-0.1842041015625,0.9715576171875,-0.2939453125,-0.00732421875,0.96484375,-2.3125,2.25,-2.4375
1.924999999999981,0.0,0.0,7.0,-6.0,-4.0,-3.0,-2.0,-1.0,0.02459716796875,0.14697265625,-0.18463134765625,0.971435546875,-0.3017578125,-0.0029296875,0.97021484375,-2.3125,2.1875,-2.9375
1.9299999999999808,-2.0,2.0,-5.0,5.0,-2.0,-1.0,6.0,-3.0,0.02459716796875,0.14697265625,-0.18463134765625,0.971435546875,-0.3017578125,-0.0029296875,0.97021484375,-2.3125,2.1875,-2.9375
1.9349999999999807,-2.0,2.0,-5.0,5.0,-2.0,-1.0,6.0,-3.0,0.0242919921875,0.14727783203125,-0.18511962890625,0.9713134765625,-0.29443359375,-0.0078125,0.9619140625,-1.8125,1.625,-3.0625
1.9399999999999806,-2.0,-1.0,-2.0,-27.0,-1.0,-2.0,-11.0,-2.0,0.0242919921875,0.14727783203125,-0.18511962890625,0.9713134765625,-0.29443359375,-0.0078125,0.9619140625,-1.8125,1.625,-3.0625
1.9449999999999805,3.0,-8.0,0.0,-6.0,0.0,1.0,-1.0,1.0,0.0242919921875,0.14727783203125,-0.18511962890625,0.9713134765625,-0.29443359375,-0.0078125,0.9619140625,-1.8125,1.625,-3.0625
1.9499999999999804,3.0,-8.0,0.0,-6.0,0.0,1.0,-1.0,1.0,0.02374267578125,0.1475830078125,-0.185546875,0.97119140625,-0.29638671875,-0.009765625,0.96630859375,-2.8125,1.5,-2.875
1.9549999999999803,2.0,9.0,1.0,-6.0,-1.0,0.0,-2.0,-1.0,0.02374267578125,0.1475830078125,-0.185546875,0.97119140625,-0.29638671875,-0.009765625,0.96630859375,-2.8125,1.5,-2.875
1.9599999999999802,2.0,9.0,1.0,-6.0,-1.0,0.0,-2.0,-1.0,0.02325439453125,0.14794921875,-0.18585205078125,0.9710693359375,-0.3017578125,-0.01611328125,0.962890625,-2.5625,1.3125,-2.375
1.96499999999998,0.0,-2.0,0.0,0.0,-1.0,3.0,5.0,1.0,0.02325439453125,0.14794921875,-0.18585205078125,0.9710693359375,-0.3017578125,-0.01611328125,0.962890625,-2.5625,1.3125,-2.375
1.96999999999998,0.0,-2.0,0.0,0.0,-1.0,3.0,5.0,1.0,0.0228271484375,0.148193359375,-0.18609619140625,0.97100830078125,-0.2958984375,-0.0224609375,0.97021484375,-1.6875,1.0,-1.6875
1.9749999999999799,-7.0,-9.0,-16.0,-7.0,-4.0,-2.0,-2.0,-1.0,0.0228271484375,0.148193359375,-0.18609619140625,0.97100830078125,-0.2958984375,-0.0224609375,0.97021484375,-1.6875,1.0,-1.6875
1.9799999999999798,0.0,-1.0,2.0,10.0,0.0,0.0,1.0,0.0,0.02276611328125,0.148193359375,-0.18609619140625,0.97100830078125,-0.3046875,-0.02734375,0.9658203125,-0.625,0.625,-0.9375
1.9849999999999797,0.0,-1.0,2.0,10.0,0.0,0.0,1.0,0.0,0.02276611328125,0.148193359375,-0.18609619140625,0.97100830078125,-0.3046875,-0.02734375,0.9658203125,-0.625,0.625,-0.9375
1.9899999999999796,0.0,3.0,0.0,-19.0,-2.0,0.0,-2.0,-1.0,0.022705078125,0.148193359375,-0.18609619140625,0.97100830078125,-0.298828125,-0.0263671875,0.962890625,0.5625,0.0625,-0.1875
1.9949999999999795,0.0,3.0,0.0,-19.0,-2.0,0.0,-2.0,-1.0,0.02276611328125,0.1480712890625,-0.18603515625,0.97100830078125,-0.29833984375,-0.02587890625,0.95751953125,1.25,-0.6875,1.0
1.9999999999999793,-1.0,-2.0,-1.0,3.0,-1.0,1.0,0.0,0.0,0.02276611328125,0.1480712890625,-0.18603515625,0.97100830078125,-0.29833984375,-0.02587890625,0.95751953125,1.25,-0.6875,1.0
2.0049999999999795,0.0,7.0,-4.0,-2.0,0.0,0.0,-1.0,0.0,0.02276611328125,0.1480712890625,-0.18603515625,0.97100830078125,-0.29833984375,-0.02587890625,0.95751953125,1.25,-0.6875,1.0
2.0099999999999794,0.0,7.0,-4.0,-2.0,0.0,0.0,-1.0,0.0,0.0230712890625,0.14776611328125,-0.185791015625,0.97113037109375,-0.29736328125,-0.0224609375,0.9599609375,2.375,-1.4375,1.875
2.0149999999999793,0.0,-2.0,0.0,-5.0,-2.0,-1.0,3.0,-1.0,0.0230712890625,0.14776611328125,-0.185791015625,0.97113037109375,-0.29736328125,-0.0224609375,0.9599609375,2.375,-1.4375,1.875
2.019999999999979,-3.0,11.0,-1.0,-9.0,-2.0,-1.0,-2.0,-2.0,0.02349853515625,0.14739990234375,-0.1854248046875,0.97125244140625,-0.296875,-0.0224609375,0.96240234375,3.5625,-1.75,2.75
2.024999999999979,-3.0,-16.0,0.0,-7.0,-1.0,-1.0,5.0,-1.0,0.02349853515625,0.14739990234375,-0.1854248046875,0.97125244140625,-0.296875,-0.0224609375,0.96240234375,3.5625,-1.75,2.75
2.029999999999979,-1.0,-4.0,-6.0,-4.0,-1.0,-6.0,-25.0,-2.0,0.02349853515625,0.14739990234375,-0.1854248046875,0.97125244140625,-0.296875,-0.0224609375,0.96240234375,3.5625,-1.75,2.75
2.034999999999979,-1.0,3.0,2.0,9.0,1.0,3.0,4.0,0.0,0.02423095703125,0.14691162109375,-0.18499755859375,0.97137451171875,-0.296875,-0.01220703125,0.9658203125,4.4375,-2.0,3.25
2.0399999999999787,-1.0,3.0,2.0,9.0,1.0,3.0,4.0,0.0,0.02423095703125,0.14691162109375,-0.18499755859375,0.97137451171875,-0.296875,-0.01220703125,0.9658203125,4.4375,-2.0,3.25
2.0449999999999786,-1.0,1.0,7.0,28.0,3.0,2.0,-4.0,-4.0,0.0250244140625,0.1463623046875,-0.1845703125,0.97149658203125,-0.2958984375,-0.00341796875,0.96630859375,4.4375,-2.0625,3.3125
2.0499999999999785,-1.0,0.0,7.0,1.0,-1.0,-2.0,0.0,0.0,0.0250244140625,0.1463623046875,-0.1845703125,0.97149658203125,-0.2958984375,-0.00341796875,0.96630859375,4.4375,-2.0625,3.3125
2.0549999999999784,-3.0,2.0,9.0,-24.0,-6.0,-1.0,4.0,-1.0,0.02557373046875,0.1458740234375,-0.1839599609375,0.9716796875,-0.29296875,0.0,0.966796875,2.6875,-2.1875,3.875
2.0599999999999783,-3.0,-4.0,-2.0,-2.0,-1.0,-3.0,-2.0,-2.0,0.02557373046875,0.1458740234375,-0.1839599609375,0.9716796875,-0.29296875,0.0,0.966796875,2.6875,-2.1875,3.875
2.064999999999978,-3.0,-4.0,-2.0,-2.0,-1.0,-3.0,-2.0,-2.0,0.02587890625,0.14544677734375,-0.1834716796875,0.97186279296875,-0.28759765625,-0.00439453125,0.97265625,1.8125,-1.5625,3.1875
2.069999999999978,-1.0,-3.0,4.0,-3.0,0.0,-1.0,5.0,1.0,0.02587890625,0.14544677734375,-0.1834716796875,0.97186279296875,-0.28759765625,-0.00439453125,0.97265625,1.8125,-1.5625,3.1875
2.074999999999978,-1.0,-3.0,4.0,-3.0,0.0,-1.0,5.0,1.0,0.02655029296875,0.14501953125,-0.18310546875,0.971923828125,-0.28369140625,0.001953125,0.97314453125,3.5,-0.875,2.6875
2.079999999999978,1.0,6.0,-14.0,1.0,-2.0,-1.0,-1.0,1.0,0.02655029296875,0.14501953125,-0.18310546875,0.971923828125,-0.28369140625,0.001953125,0.97314453125,3.5,-0.875,2.6875
2.0849999999999778,0.0,-2.0,-2.0,0.0,-3.0,1.0,5.0,-1.0,0.0272216796875,0.144775390625,-0.182861328125,0.97198486328125,-0.28759765625,0.01611328125,0.970703125,2.625,0.0625,1.625
2.0899999999999777,-1.0,6.0,5.0,-9.0,-3.0,-2.0,0.0,0.0,0.0272216796875,0.144775390625,-0.182861328125,0.97198486328125,-0.28759765625,0.01611328125,0.970703125,2.625,0.0625,1.625
2.0949999999999775,-1.0,6.0,5.0,-9.0,-3.0,-2.0,0.0,0.0,0.02752685546875,0.14483642578125,-0.1827392578125,0.97198486328125,-0.28564453125,0.0185546875,0.96923828125,0.3125,1.375,0.6875
2.0999999999999774,-1.0,2.0,-4.0,-3.0,0.0,-3.0,2.0,-2.0,0.02752685546875,0.14483642578125,-0.1827392578125,0.97198486328125,-0.28564453125,0.0185546875,0.96923828125,0.3125,1.375,0.6875
2.1049999999999773,-1.0,2.0,-4.0,-3.0,0.0,-3.0,2.0,-2.0,0.02764892578125,0.1451416015625,-0.1827392578125,0.97198486328125,-0.29248046875,0.0185546875,0.9755859375,-0.875,2.1875,-0.375
2.1099999999999772,0.0,-4.0,0.0,-1.0,-2.0,-2.0,-1.0,-1.0,0.02764892578125,0.1451416015625,-0.1827392578125,0.97198486328125,-0.29248046875,0.0185546875,0.9755859375,-0.875,2.1875,-0.375
2.114999999999977,0.0,-4.0,0.0,-1.0,-2.0,-2.0,-1.0,-1.0,0.02764892578125,0.1451416015625,-0.1827392578125,0.97198486328125,-0.29248046875,0.0185546875,0.9755859375,-0.875,2.1875,-0.375
2.119999999999977,-5.0,-17.0,-12.0,-19.0,-4.0,0.0,-2.0,-5.0,0.0274658203125,0.14556884765625,-0.182861328125,0.97186279296875,-0.29052734375,0.00634765625,0.96142578125,-1.8125,2.5625,-1.3125
2.124999999999977,1.0,5.0,-1.0,2.0,-2.0,-1.0,-1.0,0.0,0.027099609375,0.14605712890625,-0.18316650390625,0.97174072265625,-0.294921875,0.0048828125,0.962890625,-2.9375,2.4375,-2.3125
2.129999999999977,-2.0,4.0,10.0,3.0,-1.0,0.0,1.0,0.0,0.027099609375,0.14605712890625,-0.18316650390625,0.97174072265625,-0.294921875,0.0048828125,0.962890625,-2.9375,2.4375,-2.3125
2.1349999999999767,1.0,-9.0,-13.0,2.0,-2.0,-2.0,-1.0,0.0,0.027099609375,0.14605712890625,-0.18316650390625,0.97174072265625,-0.294921875,0.0048828125,0.962890625,-2.9375,2.4375,-2.3125
2.1399999999999766,1.0,-9.0,-13.0,2.0,-2.0,-2.0,-1.0,0.0,0.02667236328125,0.14654541015625,-0.18359375,0.97161865234375,-0.30029296875,0.0009765625,0.96044921875,-2.5,1.9375,-3.25
2.1449999999999765,-1.0,-10.0,-15.0,-12.0,-2.0,-1.0,1.0,-1.0,0.02667236328125,0.14654541015625,-0.18359375,0.97161865234375,-0.30029296875,0.0009765625,0.96044921875,-2.5,1.9375,-3.25
2.1499999999999764,-2.0,1.0,3.0,3.0,-1.0,-3.0,-1.0,-1.0,0.026123046875,0.1468505859375,-0.18408203125,0.97149658203125,-0.298828125,-0.00146484375,0.96484375,-3.25,1.1875,-3.4375
2.1549999999999763,4.0,13.0,-4.0,-6.0,-2.0,-1.0,3.0,2.0,0.025390625,0.1470947265625,-0.18463134765625,0.97137451171875,-0.2958984375,-0.01611328125,0.96435546875,-3.0625,0.75,-3.625
2.159999999999976,0.0,2.0,4.0,26.0,4.0,-1.0,-2.0,0.0,0.025390625,0.1470947265625,-0.18463134765625,0.97137451171875,-0.2958984375,-0.01611328125,0.96435546875,-3.0625,0.75,-3.625
2.164999999999976,-3.0,0.0,1.0,2.0,0.0,-2.0,-1.0,0.0,0.025390625,0.1470947265625,-0.18463134765625,0.97137451171875,-0.2958984375,-0.01611328125,0.96435546875,-3.0625,0.75,-3.625
2.169999999999976,-3.0,0.0,1.0,2.0,0.0,-2.0,-1.0,0.0,0.02490234375,0.14727783203125,-0.18505859375,0.97125244140625,-0.29541015625,-0.0146484375,0.96435546875,-2.1875,0.3125,-2.8125
2.174999999999976,1.0,-2.0,5.0,-4.0,0.0,0.0,-2.0,1.0,0.02490234375,0.14727783203125,-0.18505859375,0.97125244140625,-0.29541015625,-0.0146484375,0.96435546875,-2.1875,0.3125,-2.8125
2.1799999999999757,1.0,-2.0,5.0,-4.0,0.0,0.0,-2.0,1.0,0.02435302734375,0.14727783203125,-0.1854248046875,0.97119140625,-0.29541015625,-0.0205078125,0.9638671875,-1.6875,-0.0625,-2.125
2.1849999999999756,-3.0,-8.0,-10.0,-6.0,-2.0,-1.0,-2.0,-4.0,0.02435302734375,0.14727783203125,-0.1854248046875,0.97119140625,-0.29541015625,-0.0205078125,0.9638671875,-1.6875,-0.0625,-2.125
2.1899999999999755,-1.0,6.0,1.0,12.0,1.0,-2.0,-1.0,1.0,0.0240478515625,0.14727783203125,-0.185546875,0.97119140625,-0.28955078125,-0.01611328125,0.9619140625,-1.375,-0.0625,-0.8125
2.1949999999999754,2.0,2.0,4.0,5.0,2.0,1.0,1.0,1.0,0.0240478515625,0.14727783203125,-0.185546875,0.97119140625,-0.28955078125,-0.01611328125,0.9619140625,-1.375,-0.0625,-0.8125
2.1999999999999753,0.0,2.0,-1.0,-9.0,-3.0,-2.0,-1.0,-2.0,0.02398681640625,0.14727783203125,-0.185546875,0.97119140625,-0.3017578125,-0.0205078125,0.96875,-0.625,0.125,-0.125
2.204999999999975,1.0,9.0,2.0,-20.0,-2.0,0.0,-1.0,0.0,0.02398681640625,0.14727783203125,-0.185546875,0.97119140625,-0.3017578125,-0.0205078125,0.96875,-0.625,0.125,-0.125
2.209999999999975,1.0,9.0,2.0,-20.0,-2.0,0.0,-1.0,0.0,0.0240478515625,0.14727783203125,-0.1854248046875,0.97125244140625,-0.29541015625,-0.017578125,0.96826171875,1.0,0.1875,1.0
2.214999999999975,-3.0,-5.0,-10.0,8.0,-3.0,0.0,-2.0,-1.0,0.0242919921875,0.14727783203125,-0.18524169921875,0.97125244140625,-0.29638671875,-0.02001953125,0.9619140625,1.6875,0.375,1.4375
2.219999999999975,-2.0,-1.0,-4.0,-5.0,-4.0,-4.0,-1.0,-4.0,0.0242919921875,0.14727783203125,-0.18524169921875,0.97125244140625,-0.29638671875,-0.02001953125,0.9619140625,1.6875,0.375,1.4375
2.2249999999999748,-1.0,-6.0,5.0,-5.0,-2.0,0.0,7.0,0.0,0.02459716796875,0.147216796875,-0.1849365234375,0.9713134765625,-0.29833984375,-0.013671875,0.96337890625,2.0,0.0,2.0
2.2299999999999747,-7.0,-31.0,-14.0,0.0,1.0,0.0,2.0,-3.0,0.02490234375,0.14703369140625,-0.1845703125,0.971435546875,-0.29443359375,-0.01123046875,0.96728515625,2.125,-0.625,2.625
2.2349999999999746,-7.0,-31.0,-14.0,0.0,1.0,0.0,2.0,-3.0,0.02490234375,0.14703369140625,-0.1845703125,0.971435546875,-0.29443359375,-0.01123046875,0.96728515625,2.125,-0.625,2.625
2.2399999999999745,2.0,10.0,7.0,5.0,-2.0,-1.0,-2.0,0.0,0.02532958984375,0.14678955078125,-0.1842041015625,0.97149658203125,-0.29736328125,-0.00537109375,0.9619140625,2.3125,-1.0625,2.5
2.2449999999999743,-1.0,-8.0,-5.0,-3.0,3.0,-1.0,-3.0,-2.0,0.02532958984375,0.14678955078125,-0.1842041015625,0.97149658203125,-0.29736328125,-0.00537109375,0.9619140625,2.3125,-1.0625,2.5
2.2499999999999742,-1.0,1.0,4.0,-8.0,-3.0,-1.0,-4.0,-2.0,0.02532958984375,0.14678955078125,-0.1842041015625,0.97149658203125,-0.29736328125,-0.00537109375,0.9619140625,2.3125,-1.0625,2.5
2.254999999999974,-1.0,1.0,4.0,-8.0,-3.0,-1.0,-4.0,-2.0,0.0257568359375,0.146484375,-0.18389892578125,0.97161865234375,-0.296875,0.00048828125,0.96728515625,2.0,-1.1875,2.1875
2.259999999999974,1.0,6.0,6.0,18.0,1.0,-1.0,-3.0,-1.0,0.0257568359375,0.146484375,-0.18389892578125,0.97161865234375,-0.296875,0.00048828125,0.96728515625,2.0,-1.1875,2.1875
2.264999999999974,0.0,2.0,-2.0,14.0,2.0,-2.0,6.0,1.0,0.0262451171875,0.14605712890625,-0.18359375,0.9716796875,-0.29345703125,0.0029296875,0.974609375,2.5625,-1.3125,1.875
2.269999999999974,-2.0,0.0,-1.0,-11.0,-4.0,-1.0,-3.0,-1.0,0.0262451171875,0.14605712890625,-0.18359375,0.9716796875,-0.29345703125,0.0029296875,0.974609375,2.5625,-1.3125,1.875
2.2749999999999737,-1.0,5.0,1.0,0.0,-1.0,-2.0,-4.0,-2.0,0.02679443359375,0.14569091796875,-0.18341064453125,0.9718017578125,-0.29248046875,0.0087890625,0.96875,2.5,-1.1875,1.4375
2.2799999999999736,-2.0,-8.0,0.0,7.0,1.0,-2.0,-1.0,-1.0,0.02716064453125,0.14544677734375,-0.18328857421875,0.97186279296875,-0.28955078125,0.00537109375,0.966796875,1.6875,-0.8125,0.9375
2.2849999999999735,-2.0,0.0,-4.0,-9.0,-4.0,-2.0,-4.0,0.0,0.02716064453125,0.14544677734375,-0.18328857421875,0.97186279296875,-0.28955078125,0.00537109375,0.966796875,1.6875,-0.8125,0.9375
2.2899999999999734,0.0,2.0,2.0,5.0,0.0,-2.0,-4.0,-2.0,0.02716064453125,0.1453857421875,-0.18328857421875,0.97186279296875,-0.28125,0.005859375,0.97705078125,0.625,-0.125,0.375
2.2949999999999733,0.0,6.0,3.0,44.0,5.0,1.0,2.0,-1.0,0.0272216796875,0.14532470703125,-0.18328857421875,0.97186279296875,-0.28662109375,0.00830078125,0.97265625,0.0,0.25,-0.5
2.299999999999973,-1.0,-3.0,1.0,-2.0,-1.0,-2.0,0.0,-3.0,0.0272216796875,0.14532470703125,-0.18328857421875,0.97186279296875,-0.28662109375,0.00830078125,0.97265625,0.0,0.25,-0.5
2.304999999999973,-1.0,2.0,-5.0,-9.0,-2.0,-1.0,-3.0,-2.0,0.0272216796875,0.14532470703125,-0.18328857421875,0.97186279296875,-0.28662109375,0.00830078125,0.97265625,0.0,0.25,-0.5
2.309999999999973,-1.0,2.0,-5.0,-9.0,-2.0,-1.0,-3.0,-2.0,0.02716064453125,0.14544677734375,-0.18341064453125,0.9718017578125,-0.28955078125,0.0087890625,0.97314453125,-0.9375,0.9375,-1.0625
2.314999999999973,-1.0,-5.0,1.0,-10.0,0.0,1.0,-3.0,-1.0,0.02679443359375,0.145751953125,-0.18365478515625,0.97174072265625,-0.29541015625,-0.0009765625,0.966796875,-2.0625,1.6875,-1.625
2.3199999999999728,-1.0,-5.0,1.0,-10.0,0.0,1.0,-3.0,-1.0,0.02679443359375,0.145751953125,-0.18365478515625,0.97174072265625,-0.29541015625,-0.0009765625,0.966796875,-2.0625,1.6875,-1.625
2.3249999999999726,1.0,6.0,5.0,-12.0,-1.0,0.0,0.0,0.0,0.02679443359375,0.145751953125,-0.18365478515625,0.97174072265625,-0.29541015625,-0.0009765625,0.966796875,-2.0625,1.6875,-1.625
2.3299999999999725,0.0,-17.0,-13.0,-6.0,-1.0,-1.0,-2.0,-1.0,0.0264892578125,0.146240234375,-0.1839599609375,0.97161865234375,-0.2978515625,-0.001953125,0.96484375,-2.125,2.125,-2.25
2.3349999999999724,-1.0,1.0,-2.0,0.0,1.0,-1.0,0.0,-1.0,0.0264892578125,0.146240234375,-0.1839599609375,0.97161865234375,-0.2978515625,-0.001953125,0.96484375,-2.125,2.125,-2.25
2.3399999999999723,1.0,4.0,19.0,-6.0,-1.0,-1.0,-1.0,1.0,0.0264892578125,0.146240234375,-0.1839599609375,0.97161865234375,-0.2978515625,-0.001953125,0.96484375,-2.125,2.125,-2.25
2.344999999999972,-3.0,-2.0,9.0,-6.0,-1.0,-1.0,-4.0,-1.0,0.02630615234375,0.14654541015625,-0.18426513671875,0.97149658203125,-0.29833984375,0.00048828125,0.96875,-1.25,1.875,-2.25
2.349999999999972,-3.0,11.0,-1.0,-5.0,-2.0,0.0,-2.0,-2.0,0.0260009765625,0.1468505859375,-0.18463134765625,0.97137451171875,-0.2958984375,-0.00390625,0.962890625,-1.8125,1.4375,-2.5
2.354999999999972,-3.0,11.0,-1.0,-5.0,-2.0,0.0,-2.0,-2.0,0.0260009765625,0.1468505859375,-0.18463134765625,0.97137451171875,-0.2958984375,-0.00390625,0.962890625,-1.8125,1.4375,-2.5
2.359999999999972,0.0,9.0,2.0,0.0,-3.0,-2.0,-3.0,-1.0,0.0260009765625,0.1468505859375,-0.18463134765625,0.97137451171875,-0.2958984375,-0.00390625,0.962890625,-1.8125,1.4375,-2.5
2.364999999999972,0.0,9.0,2.0,0.0,-3.0,-2.0,-3.0,-1.0,0.0260009765625,0.1468505859375,-0.18463134765625,0.97137451171875,-0.2958984375,-0.00390625,0.962890625,-1.8125,1.4375,-2.5
2.3699999999999717,-2.0,2.0,10.0,1.0,0.0,-2.0,-2.0,-1.0,0.025634765625,0.14715576171875,-0.18499755859375,0.9713134765625,-0.298828125,-0.0107421875,0.96142578125,-1.5625,0.9375,-2.5
2.3749999999999716,-2.0,2.0,10.0,1.0,0.0,-2.0,-2.0,-1.0,0.025634765625,0.14715576171875,-0.18499755859375,0.9713134765625,-0.298828125,-0.0107421875,0.96142578125,-1.5625,0.9375,-2.5
2.3799999999999715,-1.0,-8.0,-1.0,0.0,-1.0,-1.0,1.0,-1.0,0.02520751953125,0.14715576171875,-0.185546875,0.97119140625,-0.29931640625,-0.00927734375,0.96240234375,-0.8125,-0.5625,-1.3125
2.3849999999999714,-2.0,-12.0,-19.0,-3.0,0.0,0.0,-1.0,-2.0,0.025146484375,0.14715576171875,-0.185546875,0.97119140625,-0.2958984375,-0.01904296875,0.9677734375,-0.75,-0.5,-0.5625
2.3899999999999713,-1.0,0.0,-5.0,4.0,-2.0,-3.0,2.0,-2.0,0.025146484375,0.14715576171875,-0.185546875,0.97119140625,-0.2958984375,-0.01904296875,0.9677734375,-0.75,-0.5,-0.5625
2.394999999999971,0.0,2.0,6.0,-2.0,-2.0,-1.0,-2.0,0.0,0.025146484375,0.14715576171875,-0.185546875,0.97119140625,-0.2958984375,-0.01904296875,0.9677734375,-0.75,-0.5,-0.5625
2.399999999999971,0.0,2.0,6.0,-2.0,-2.0,-1.0,-2.0,0.0,0.025146484375,0.14715576171875,-0.185546875,0.97119140625,-0.2958984375,-0.01904296875,0.9677734375,-0.75,-0.5,-0.5625
2.404999999999971,-3.0,-4.0,-4.0,-2.0,0.0,-1.0,-4.0,-1.0,0.02532958984375,0.14703369140625,-0.18548583984375,0.97119140625,-0.2919921875,-0.01611328125,0.96435546875,1.9375,-0.1875,0.625
2.409999999999971,-4.0,1.0,4.0,4.0,-4.0,0.0,-3.0,-3.0,0.02532958984375,0.14703369140625,-0.18548583984375,0.97119140625,-0.2919921875,-0.01611328125,0.96435546875,1.9375,-0.1875,0.625
2.4149999999999707,-4.0,1.0,4.0,4.0,-4.0,0.0,-3.0,-3.0,0.02532958984375,0.14703369140625,-0.18548583984375,0.97119140625,-0.2919921875,-0.01611328125,0.96435546875,1.9375,-0.1875,0.625
2.4199999999999706,0.0,-2.0,7.0,10.0,0.0,-1.0,2.0,-1.0,0.02569580078125,0.1468505859375,-0.1854248046875,0.97125244140625,-0.28955078125,-0.0078125,0.9677734375,2.4375,-0.125,1.0625
2.4249999999999705,0.0,-1.0,2.0,-17.0,-4.0,0.0,-1.0,-1.0,0.02606201171875,0.14666748046875,-0.18524169921875,0.9713134765625,-0.2900390625,-0.0009765625,0.966796875,1.8125,-0.0625,1.3125
2.4299999999999704,-1.0,-5.0,-1.0,7.0,0.0,-1.0,1.0,0.0,0.02606201171875,0.14666748046875,-0.18524169921875,0.9713134765625,-0.2900390625,-0.0009765625,0.966796875,1.8125,-0.0625,1.3125
2.4349999999999703,-3.0,3.0,11.0,-3.0,1.0,0.0,-1.0,-1.0,0.02606201171875,0.14666748046875,-0.18524169921875,0.9713134765625,-0.2900390625,-0.0009765625,0.966796875,1.8125,-0.0625,1.3125
2.43999999999997,-3.0,3.0,11.0,-3.0,1.0,0.0,-1.0,-1.0,0.02630615234375,0.14654541015625,-0.1849365234375,0.97137451171875,-0.29150390625,0.0029296875,0.96875,0.75,0.0,1.625
2.44499999999997,1.0,-2.0,-3.0,4.0,-1.0,0.0,-2.0,-1.0,0.02630615234375,0.14654541015625,-0.1849365234375,0.97137451171875,-0.29150390625,0.0029296875,0.96875,0.75,0.0,1.625
2.44999999999997,2.0,7.0,10.0,-3.0,2.0,-1.0,0.0,0.0,0.02642822265625,0.146484375,-0.18475341796875,0.971435546875,-0.29248046875,-0.0048828125,0.96337890625,0.375,0.0625,1.3125
2.45499999999997,-1.0,0.0,-5.0,-7.0,-4.0,-1.0,4.0,-1.0,0.02642822265625,0.146484375,-0.18475341796875,0.971435546875,-0.29248046875,-0.0048828125,0.96337890625,0.375,0.0625,1.3125
2.4599999999999698,-2.0,3.0,-3.0,3.0,-1.0,-3.0,1.0,0.0,0.02679443359375,0.14630126953125,-0.18463134765625,0.971435546875,-0.29248046875,0.00341796875,0.9658203125,1.875,-0.1875,0.875
2.4649999999999697,-2.0,3.0,-3.0,3.0,-1.0,-3.0,1.0,0.0,0.02679443359375,0.14630126953125,-0.18463134765625,0.971435546875,-0.29248046875,0.00341796875,0.9658203125,1.875,-0.1875,0.875
2.4699999999999696,-2.0,-1.0,-7.0,-3.0,1.0,-2.0,0.0,0.0,0.027099609375,0.1461181640625,-0.18450927734375,0.97149658203125,-0.29345703125,-0.00048828125,0.96875,1.5625,-0.4375,0.6875
2.4749999999999694,-2.0,-1.0,-7.0,-3.0,1.0,-2.0,0.0,0.0,0.027099609375,0.1461181640625,-0.18450927734375,0.97149658203125,-0.29345703125,-0.00048828125,0.96875,1.5625,-0.4375,0.6875
2.4799999999999693,-1.0,-5.0,-4.0,1.0,1.0,-1.0,-2.0,-1.0,0.027099609375,0.14605712890625,-0.18450927734375,0.97149658203125,-0.28564453125,0.00146484375,0.96728515625,0.5625,-0.4375,0.4375
2.4849999999999692,-2.0,2.0,-1.0,0.0,-1.0,-2.0,-2.0,-2.0,0.027099609375,0.14605712890625,-0.18450927734375,0.97149658203125,-0.28564453125,0.00146484375,0.96728515625,0.5625,-0.4375,0.4375
2.489999999999969,-2.0,2.0,-1.0,0.0,-1.0,-2.0,-2.0,-2.0,0.027099609375,0.14605712890625,-0.18450927734375,0.97149658203125,-0.29052734375,-0.00048828125,0.96826171875,0.4375,-0.125,0.375
2.494999999999969,-2.0,-2.0,-4.0,-4.0,-2.0,-1.0,-3.0,0.0,0.027099609375,0.14605712890625,-0.18450927734375,0.97149658203125,-0.294921875,-0.00146484375,0.96875,0.25,0.0625,0.25
2.499999999999969,-2.0,0.0,0.0,-2.0,-3.0,-1.0,-1.0,0.0,0.027099609375,0.14605712890625,-0.18450927734375,0.97149658203125,-0.294921875,-0.00146484375,0.96875,0.25,0.0625,0.25
2.504999999999969,1.0,-7.0,0.0,8.0,1.0,-1.0,-9.0,-1.0,0.027099609375,0.14605712890625,-0.18450927734375,0.97149658203125,-0.29736328125,0.0,0.96826171875,-0.25,0.1875,-0.0625
2.5099999999999687,0.0,7.0,4.0,0.0,-3.0,-2.0,1.0,0.0,0.027099609375,0.14605712890625,-0.18450927734375,0.97149658203125,-0.29736328125,0.0,0.96826171875,-0.25,0.1875,-0.0625
2.5149999999999686,0.0,7.0,4.0,0.0,-3.0,-2.0,1.0,0.0,0.027099609375,0.14605712890625,-0.18450927734375,0.97149658203125,-0.296875,-0.00146484375,0.96630859375,-0.0625,0.375,0.0
2.5199999999999685,-1.0,-15.0,-7.0,26.0,4.0,0.0,-1.0,1.0,0.027099609375,0.14605712890625,-0.18450927734375,0.97149658203125,-0.296875,-0.00146484375,0.96630859375,-0.0625,0.375,0.0
2.5249999999999684,-1.0,-1.0,0.0,-3.0,-2.0,0.0,1.0,-2.0,0.027099609375,0.14605712890625,-0.18450927734375,0.97149658203125,-0.29345703125,0.0,0.96435546875,0.125,0.375,-0.0625
2.5299999999999683,-1.0,3.0,2.0,-17.0,-2.0,-1.0,-1.0,-3.0,0.027099609375,0.14605712890625,-0.18450927734375,0.97149658203125,-0.29345703125,0.0,0.96435546875,0.125,0.375,-0.0625
2.534999999999968,-1.0,3.0,2.0,-17.0,-2.0,-1.0,-1.0,-3.0,0.027099609375,0.14605712890625,-0.18450927734375,0.97149658203125,-0.29345703125,0.0,0.96435546875,0.125,0.375,-0.0625
2.539999999999968,-2.0,-3.0,-7.0,1.0,-1.0,-1.0,3.0,-1.0,0.027099609375,0.14599609375,-0.18450927734375,0.97149658203125,-0.28759765625,-0.0029296875,0.96826171875,-0.0625,0.5625,-0.5
2.544999999999968,1.0,-7.0,2.0,-5.0,0.0,-1.0,1.0,-1.0,0.02703857421875,0.14599609375,-0.18450927734375,0.97149658203125,-0.2890625,-0.0009765625,0.97265625,0.125,0.375,-0.5
2.549999999999968,1.0,6.0,-5.0,-4.0,-2.0,-4.0,-2.0,-1.0,0.02703857421875,0.14599609375,-0.18450927734375,0.97149658203125,-0.2890625,-0.0009765625,0.97265625,0.125,0.375,-0.5
2.5549999999999677,-3.0,-4.0,-18.0,-10.0,-3.0,-3.0,0.0,-2.0,0.02703857421875,0.14599609375,-0.18450927734375,0.97149658203125,-0.2890625,-0.0009765625,0.97265625,0.125,0.375,-0.5
2.5599999999999676,-3.0,-4.0,-18.0,-10.0,-3.0,-3.0,0.0,-2.0,0.02703857421875,0.14593505859375,-0.18450927734375,0.97149658203125,-0.2861328125,-0.00244140625,0.96240234375,-0.3125,0.25,-0.125
2.5649999999999675,-1.0,1.0,-8.0,2.0,1.0,0.0,-3.0,-1.0,0.02703857421875,0.14593505859375,-0.18450927734375,0.97149658203125,-0.2861328125,-0.00244140625,0.96240234375,-0.3125,0.25,-0.125
2.5699999999999674,-1.0,4.0,4.0,-5.0,-1.0,-1.0,-2.0,-1.0,0.02703857421875,0.14593505859375,-0.18450927734375,0.97149658203125,-0.291015625,-0.00341796875,0.96923828125,-1.0,0.3125,-0.1875
2.5749999999999673,0.0,-3.0,2.0,-4.0,-2.0,-1.0,0.0,-1.0,0.02703857421875,0.14593505859375,-0.18450927734375,0.97149658203125,-0.291015625,-0.00341796875,0.96923828125,-1.0,0.3125,-0.1875
2.579999999999967,-1.0,-3.0,-1.0,-4.0,-3.0,-1.0,-2.0,-2.0,0.02703857421875,0.14593505859375,-0.18450927734375,0.97149658203125,-0.298828125,-0.0048828125,0.96875,-0.375,0.375,-0.0625
2.584999999999967,0.0,-1.0,0.0,-7.0,-3.0,0.0,3.0,0.0,0.02703857421875,0.14593505859375,-0.18450927734375,0.97149658203125,-0.298828125,-0.0048828125,0.96875,-0.375,0.375,-0.0625
2.589999999999967,0.0,-2.0,1.0,51.0,2.0,-3.0,0.0,-1.0,0.02703857421875,0.14593505859375,-0.1845703125,0.97149658203125,-0.29541015625,-0.0068359375,0.9658203125,-0.125,0.375,-0.1875
2.594999999999967,0.0,-2.0,1.0,51.0,2.0,-3.0,0.0,-1.0,0.02703857421875,0.14593505859375,-0.1845703125,0.97149658203125,-0.29541015625,-0.0068359375,0.9658203125,-0.125,0.375,-0.1875
2.599999999999967,-6.0,-16.0,-5.0,-20.0,-2.0,0.0,-2.0,-4.0,0.02703857421875,0.14593505859375,-0.1845703125,0.97149658203125,-0.296875,-0.00048828125,0.966796875,0.3125,0.3125,0.1875
2.6049999999999667,-6.0,-16.0,-5.0,-20.0,-2.0,0.0,-2.0,-4.0,0.02703857421875,0.14593505859375,-0.1845703125,0.97149658203125,-0.296875,-0.00048828125,0.966796875,0.3125,0.3125,0.1875
2.6099999999999666,0.0,6.0,-2.0,-12.0,-1.0,0.0,-2.0,1.0,0.02703857421875,0.14593505859375,-0.1845703125,0.97149658203125,-0.296875,-0.00048828125,0.966796875,0.3125,0.3125,0.1875
2.6149999999999665,0.0,6.0,-2.0,-12.0,-1.0,0.0,-2.0,1.0,0.02703857421875,0.14593505859375,-0.1845703125,0.97149658203125,-0.29638671875,-0.0048828125,0.96826171875,-0.3125,0.5625,0.25
2.6199999999999664,0.0,4.0,-1.0,1.0,0.0,-1.0,0.0,0.0,0.02703857421875,0.14593505859375,-0.1845703125,0.97149658203125,-0.29638671875,-0.0048828125,0.96826171875,-0.3125,0.5625,0.25
2.6249999999999662,-3.0,1.0,1.0,-1.0,-1.0,-2.0,5.0,-1.0,0.0269775390625,0.14593505859375,-0.1845703125,0.97149658203125,-0.29052734375,-0.0078125,0.96826171875,-0.1875,0.625,0.25
2.629999999999966,-1.0,4.0,2.0,-7.0,-5.0,-4.0,1.0,-1.0,0.0269775390625,0.14593505859375,-0.1845703125,0.9715576171875,-0.2919921875,-0.00439453125,0.96484375,0.125,0.5,0.3125
2.634999999999966,-1.0,4.0,2.0,-7.0,-5.0,-4.0,1.0,-1.0,0.0269775390625,0.14593505859375,-0.1845703125,0.9715576171875,-0.2919921875,-0.00439453125,0.96484375,0.125,0.5,0.3125
2.639999999999966,0.0,3.0,1.0,-6.0,-1.0,0.0,-2.0,-1.0,0.0269775390625,0.14593505859375,-0.1845703125,0.9715576171875,-0.2919921875,-0.00439453125,0.96484375,0.125,0.5,0.3125
2.644999999999966,2.0,-1.0,6.0,-26.0,0.0,-2.0,1.0,0.0,0.0269775390625,0.14593505859375,-0.1845703125,0.9715576171875,-0.294921875,-0.0048828125,0.9619140625,0.0625,0.3125,0.0625
2.6499999999999657,-1.0,8.0,-1.0,-10.0,-1.0,-1.0,-2.0,-1.0,0.0269775390625,0.14593505859375,-0.1845703125,0.9715576171875,-0.294921875,-0.0048828125,0.9619140625,0.0625,0.3125,0.0625
2.6549999999999656,1.0,5.0,2.0,-10.0,-2.0,-1.0,-4.0,0.0,0.0269775390625,0.14593505859375,-0.1845703125,0.9715576171875,-0.296875,0.0029296875,0.9677734375,-0.75,-0.125,0.125
2.6599999999999655,1.0,5.0,2.0,-10.0,-2.0,-1.0,-4.0,0.0,0.0269775390625,0.14593505859375,-0.1845703125,0.9715576171875,-0.296875,0.0029296875,0.9677734375,-0.75,-0.125,0.125
2.6649999999999654,0.0,0.0,-2.0,13.0,3.0,0.0,-1.0,0.0,0.02679443359375,0.1458740234375,-0.1844482421875,0.9715576171875,-0.29541015625,0.00341796875,0.9609375,-1.5,-0.375,0.25
2.6699999999999653,-1.0,0.0,-6.0,3.0,-2.0,-1.0,1.0,-1.0,0.02679443359375,0.1458740234375,-0.1844482421875,0.9715576171875,-0.29833984375,-0.0078125,0.966796875,-0.5,-0.4375,0.0
2.674999999999965,0.0,-6.0,-1.0,10.0,-1.0,0.0,-3.0,-1.0,0.02679443359375,0.1458740234375,-0.1844482421875,0.9715576171875,-0.29833984375,-0.0078125,0.966796875,-0.5,-0.4375,0.0
2.679999999999965,-1.0,0.0,0.0,-9.0,-3.0,0.0,-1.0,1.0,0.0267333984375,0.1458740234375,-0.1844482421875,0.9715576171875,-0.29248046875,-0.009765625,0.96533203125,-0.375,-0.125,-0.375
2.684999999999965,-1.0,7.0,4.0,6.0,1.0,0.0,0.0,-1.0,0.0267333984375,0.1458740234375,-0.1844482421875,0.9715576171875,-0.29248046875,-0.009765625,0.96533203125,-0.375,-0.125,-0.375
2.689999999999965,1.0,2.0,-2.0,-3.0,-1.0,-1.0,-2.0,-2.0,0.0267333984375,0.1458740234375,-0.1844482421875,0.9715576171875,-0.29248046875,-0.009765625,0.96533203125,-0.375,-0.125,-0.375
2.6949999999999648,-2.0,3.0,-3.0,5.0,1.0,-3.0,-3.0,0.0,0.02679443359375,0.1458740234375,-0.1844482421875,0.9715576171875,-0.29150390625,0.00439453125,0.97314453125,0.3125,0.125,-0.6875
2.6999999999999647,-5.0,-11.0,4.0,-9.0,-3.0,-2.0,-1.0,-2.0,0.02679443359375,0.14581298828125,-0.1844482421875,0.9715576171875,-0.28857421875,-0.001953125,0.9658203125,-0.375,0.375,-0.375
2.7049999999999645,0.0,-3.0,7.0,-2.0,-2.0,-1.0,-4.0,-2.0,0.02679443359375,0.14581298828125,-0.1844482421875,0.9715576171875,-0.28857421875,-0.001953125,0.9658203125,-0.375,0.375,-0.375
2.7099999999999644,-1.0,0.0,6.0,3.0,-1.0,0.0,-2.0,-2.0,0.0267333984375,0.14581298828125,-0.1844482421875,0.9715576171875,-0.29150390625,-0.00439453125,0.97265625,-0.5,0.5,-0.625
2.7149999999999643,-1.0,0.0,6.0,3.0,-1.0,0.0,-2.0,-2.0,0.0267333984375,0.14581298828125,-0.1844482421875,0.9715576171875,-0.29150390625,-0.00439453125,0.97265625,-0.5,0.5,-0.625
2.7199999999999642,0.0,2.0,-3.0,-2.0,-2.0,0.0,0.0,-1.0,0.0267333984375,0.14581298828125,-0.1844482421875,0.9715576171875,-0.29248046875,-0.0048828125,0.96337890625,0.5,0.3125,-0.4375
2.724999999999964,0.0,-14.0,-1.0,-3.0,-3.0,-2.0,-1.0,-1.0,0.0267333984375,0.14581298828125,-0.1844482421875,0.9715576171875,-0.29248046875,-0.0048828125,0.96337890625,0.5,0.3125,-0.4375
2.729999999999964,-4.0,-5.0,-4.0,-3.0,-2.0,-2.0,-3.0,-1.0,0.0267333984375,0.14581298828125,-0.1844482421875,0.9715576171875,-0.29248046875,-0.0048828125,0.96337890625,0.5,0.3125,-0.4375
2.734999999999964,-4.0,-5.0,-4.0,-3.0,-2.0,-2.0,-3.0,-1.0,0.0267333984375,0.14581298828125,-0.1844482421875,0.9715576171875,-0.298828125,-0.00390625,0.97265625,0.9375,0.0625,-0.4375
2.739999999999964,-2.0,-5.0,4.0,-1.0,2.0,0.0,-1.0,-2.0,0.0267333984375,0.14581298828125,-0.1844482421875,0.9715576171875,-0.298828125,-0.00390625,0.97265625,0.9375,0.0625,-0.4375
2.7449999999999637,0.0,-1.0,-1.0,-10.0,-1.0,0.0,2.0,-2.0,0.0267333984375,0.14581298828125,-0.1844482421875,0.9715576171875,-0.29541015625,-0.0107421875,0.962890625,0.75,-0.125,-0.3125
2.7499999999999636,0.0,-4.0,-2.0,-1.0,-2.0,-2.0,-2.0,-3.0,0.0269775390625,0.1456298828125,-0.1845703125,0.9715576171875,-0.2919921875,0.0048828125,0.9716796875,1.0625,-0.25,-0.375
2.7549999999999635,-2.0,-2.0,-2.0,8.0,-2.0,-1.0,-9.0,-3.0,0.0269775390625,0.1456298828125,-0.1845703125,0.9715576171875,-0.2919921875,0.0048828125,0.9716796875,1.0625,-0.25,-0.375
2.7599999999999634,1.0,-1.0,0.0,1.0,-2.0,-1.0,0.0,0.0,0.0269775390625,0.1456298828125,-0.1845703125,0.9715576171875,-0.29248046875,-0.00244140625,0.96630859375,0.5,-0.25,0.3125
2.7649999999999633,-1.0,-3.0,-5.0,-1.0,-1.0,-1.0,4.0,-1.0,0.0269775390625,0.1456298828125,-0.1845703125,0.9715576171875,-0.29248046875,-0.00244140625,0.96630859375,0.5,-0.25,0.3125
2.769999999999963,-2.0,-20.0,-13.0,-2.0,-4.0,-3.0,-2.0,-2.0,0.02691650390625,0.1456298828125,-0.1845703125,0.9715576171875,-0.296875,-0.00439453125,0.96630859375,0.6875,-0.1875,0.375
2.774999999999963,-1.0,-6.0,-3.0,31.0,1.0,-2.0,-2.0,-1.0,0.02691650390625,0.1456298828125,-0.1845703125,0.9715576171875,-0.296875,-0.00439453125,0.96630859375,0.6875,-0.1875,0.375
2.779999999999963,-1.0,-6.0,-3.0,31.0,1.0,-2.0,-2.0,-1.0,0.02691650390625,0.1456298828125,-0.1845703125,0.9715576171875,-0.296875,-0.00439453125,0.96630859375,0.6875,-0.1875,0.375
2.784999999999963,2.0,8.0,7.0,7.0,2.0,-2.0,0.0,-1.0,0.02691650390625,0.1456298828125,-0.1845703125,0.9715576171875,-0.294921875,-0.0078125,0.96240234375,0.9375,-0.125,0.25
2.7899999999999627,0.0,2.0,-13.0,-4.0,1.0,3.0,1.0,0.0,0.02728271484375,0.1455078125,-0.1845703125,0.9715576171875,-0.29296875,0.00048828125,0.9736328125,2.1875,0.0,0.0625
2.7949999999999626,-1.0,3.0,2.0,-8.0,-2.0,-2.0,-9.0,-3.0,0.02728271484375,0.1455078125,-0.1845703125,0.9715576171875,-0.29296875,0.00048828125,0.9736328125,2.1875,0.0,0.0625
2.7999999999999625,-2.0,-6.0,-8.0,-10.0,-3.0,-2.0,-4.0,-1.0,0.02728271484375,0.1455078125,-0.1845703125,0.9715576171875,-0.29296875,0.00048828125,0.9736328125,2.1875,0.0,0.0625
2.8049999999999624,-2.0,-6.0,-8.0,-10.0,-3.0,-2.0,-4.0,-1.0,0.02728271484375,0.1455078125,-0.1845703125,0.9715576171875,-0.29248046875,-0.00048828125,0.9677734375,0.6875,-0.1875,-0.0625
2.8099999999999623,0.0,-6.0,3.0,2.0,-1.0,0.0,6.0,3.0,0.02728271484375,0.1455078125,-0.1845703125,0.9715576171875,-0.29248046875,-0.00048828125,0.9677734375,0.6875,-0.1875,-0.0625
2.814999999999962,-5.0,-12.0,-10.0,-7.0,-3.0,0.0,13.0,-2.0,0.02728271484375,0.14544677734375,-0.1845703125,0.9715576171875,-0.28466796875,-0.00439453125,0.96875,0.25,-0.125,-0.0625
2.819999999999962,-3.0,3.0,2.0,1.0,-4.0,-3.0,-2.0,0.0,0.02728271484375,0.14544677734375,-0.1845703125,0.9715576171875,-0.2861328125,-0.00048828125,0.96435546875,-0.1875,0.0,-0.1875
2.824999999999962,1.0,1.0,1.0,-4.0,-1.0,-2.0,-3.0,0.0,0.02728271484375,0.14544677734375,-0.1845703125,0.9715576171875,-0.2861328125,-0.00048828125,0.96435546875,-0.1875,0.0,-0.1875
2.829999999999962,0.0,0.0,-6.0,-3.0,0.0,1.0,-2.0,0.0,0.02728271484375,0.14544677734375,-0.1845703125,0.9715576171875,-0.2900390625,0.001953125,0.9677734375,-0.25,0.0625,0.125
2.8349999999999618,1.0,8.0,1.0,0.0,-1.0,-1.0,-1.0,-2.0,0.02728271484375,0.14544677734375,-0.1845703125,0.9715576171875,-0.2900390625,0.001953125,0.9677734375,-0.25,0.0625,0.125
2.8399999999999617,0.0,5.0,8.0,1.0,-2.0,-1.0,2.0,1.0,0.02728271484375,0.14544677734375,-0.1845703125,0.9715576171875,-0.2900390625,0.001953125,0.9677734375,-0.25,0.0625,0.125
2.8449999999999616,-1.0,-3.0,-5.0,40.0,1.0,2.0,-2.0,-5.0,0.02703857421875,0.14556884765625,-0.18450927734375,0.9715576171875,-0.29638671875,-0.00341796875,0.96142578125,-1.5625,0.3125,0.125
2.8499999999999615,-2.0,-1.0,1.0,6.0,2.0,1.0,-11.0,-2.0,0.0269775390625,0.14556884765625,-0.18450927734375,0.9715576171875,-0.2978515625,-0.01318359375,0.97021484375,-0.8125,0.4375,0.125
2.8549999999999613,-1.0,-5.0,-2.0,-2.0,-3.0,0.0,12.0,-1.0,0.0269775390625,0.14556884765625,-0.18450927734375,0.9715576171875,-0.2978515625,-0.01318359375,0.97021484375,-0.8125,0.4375,0.125
2.8599999999999612,-1.0,-5.0,-2.0,-2.0,-3.0,0.0,12.0,-1.0,0.0272216796875,0.14556884765625,-0.18463134765625,0.9715576171875,-0.29296875,-0.0029296875,0.96923828125,1.375,0.4375,-0.375
2.864999999999961,-3.0,-3.0,3.0,-9.0,-4.0,-3.0,-1.0,-2.0,0.0272216796875,0.14556884765625,-0.18463134765625,0.9715576171875,-0.29296875,-0.0029296875,0.96923828125,1.375,0.4375,-0.375
2.869999999999961,0.0,1.0,6.0,-8.0,3.0,0.0,-6.0,0.0,0.0272216796875,0.14556884765625,-0.18463134765625,0.9715576171875,-0.291015625,0.0126953125,0.96875,0.625,0.25,0.0625
2.874999999999961,0.0,1.0,6.0,-8.0,3.0,0.0,-6.0,0.0,0.0272216796875,0.14556884765625,-0.18463134765625,0.9715576171875,-0.291015625,0.0126953125,0.96875,0.625,0.25,0.0625
2.879999999999961,0.0,-3.0,1.0,-7.0,-2.0,-1.0,-5.0,-1.0,0.0272216796875,0.14556884765625,-0.18463134765625,0.9715576171875,-0.291015625,0.0126953125,0.96875,0.625,0.25,0.0625
2.8849999999999607,-1.0,2.0,1.0,-4.0,-3.0,-2.0,5.0,1.0,0.02685546875,0.14556884765625,-0.1844482421875,0.97161865234375,-0.28564453125,0.00830078125,0.9677734375,-3.1875,0.375,0.375
2.8899999999999606,-3.0,-2.0,-17.0,-1.0,0.0,-1.0,-1.0,-2.0,0.02685546875,0.14556884765625,-0.1844482421875,0.97161865234375,-0.28564453125,0.00830078125,0.9677734375,-3.1875,0.375,0.375
2.8949999999999605,-3.0,-2.0,-17.0,-1.0,0.0,-1.0,-1.0,-2.0,0.0262451171875,0.14569091796875,-0.184326171875,0.97161865234375,-0.29052734375,-0.00927734375,0.96484375,-3.1875,0.4375,0.1875
2.8999999999999604,-2.0,4.0,-1.0,-7.0,-3.0,-3.0,2.0,4.0,0.0262451171875,0.14569091796875,-0.184326171875,0.97161865234375,-0.29052734375,-0.00927734375,0.96484375,-3.1875,0.4375,0.1875
2.9049999999999603,0.0,-4.0,5.0,46.0,3.0,0.0,-2.0,-1.0,0.02587890625,0.14593505859375,-0.184326171875,0.97161865234375,-0.30126953125,-0.0166015625,0.95751953125,-1.375,0.5,0.0
2.90999999999996,0.0,-4.0,5.0,46.0,3.0,0.0,-2.0,-1.0,0.02587890625,0.14593505859375,-0.184326171875,0.97161865234375,-0.30126953125,-0.0166015625,0.95751953125,-1.375,0.5,0.0
2.91499999999996,-2.0,-2.0,-1.0,-10.0,-2.0,-2.0,0.0,-1.0,0.02606201171875,0.14605712890625,-0.1845703125,0.9715576171875,-0.30078125,-0.00537109375,0.97119140625,1.1875,0.75,-1.0625
2.91999999999996,-2.0,-2.0,-1.0,-10.0,-2.0,-2.0,0.0,-1.0,0.02606201171875,0.14605712890625,-0.1845703125,0.9715576171875,-0.30078125,-0.00537109375,0.97119140625,1.1875,0.75,-1.0625
2.92499999999996,-1.0,-3.0,0.0,-1.0,-1.0,-2.0,1.0,1.0,0.02606201171875,0.14605712890625,-0.1845703125,0.9715576171875,-0.30078125,-0.00537109375,0.97119140625,1.1875,0.75,-1.0625
2.9299999999999597,-1.0,-13.0,-5.0,-10.0,0.0,1.0,-1.0,0.0,0.02606201171875,0.14605712890625,-0.1845703125,0.9715576171875,-0.30078125,-0.00537109375,0.97119140625,1.1875,0.75,-1.0625
2.9349999999999596,-1.0,-5.0,0.0,-14.0,-1.0,-2.0,-6.0,-3.0,0.026123046875,0.1461181640625,-0.18450927734375,0.97149658203125,-0.29931640625,0.0068359375,0.9619140625,0.5625,0.4375,-0.9375
2.9399999999999595,1.0,11.0,5.0,-1.0,-2.0,-2.0,2.0,0.0,0.026123046875,0.1461181640625,-0.18450927734375,0.97149658203125,-0.2958984375,0.00244140625,0.96044921875,0.0,0.0,-0.75
2.9449999999999594,-3.0,-6.0,-4.0,-1.0,2.0,0.0,7.0,-1.0,0.026123046875,0.1461181640625,-0.18450927734375,0.97149658203125,-0.2958984375,0.00244140625,0.96044921875,0.0,0.0,-0.75
2.9499999999999593,-3.0,-2.0,-9.0,-13.0,-4.0,-3.0,-7.0,-3.0,0.026123046875,0.1461181640625,-0.18450927734375,0.97149658203125,-0.2958984375,0.00244140625,0.96044921875,0.0,0.0,-0.75
2.954999999999959,-3.0,-2.0,-9.0,-13.0,-4.0,-3.0,-7.0,-3.0,0.026123046875,0.14605712890625,-0.18450927734375,0.9715576171875,-0.28759765625,-0.00830078125,0.96923828125,-0.8125,-0.1875,-0.875
2.959999999999959,-2.0,-5.0,-5.0,-10.0,-3.0,0.0,-3.0,-3.0,0.026123046875,0.14605712890625,-0.18450927734375,0.9715576171875,-0.28759765625,-0.00830078125,0.96923828125,-0.8125,-0.1875,-0.875
2.964999999999959,-2.0,-5.0,-5.0,-10.0,-3.0,0.0,-3.0,-3.0,0.02581787109375,0.1461181640625,-0.18450927734375,0.9715576171875,-0.29345703125,-0.00927734375,0.96630859375,-1.4375,0.125,-0.0625
2.969999999999959,0.0,15.0,1.0,2.0,2.0,-2.0,0.0,1.0,0.02581787109375,0.1461181640625,-0.18450927734375,0.9715576171875,-0.29345703125,-0.00927734375,0.96630859375,-1.4375,0.125,-0.0625
2.974999999999959,0.0,1.0,8.0,-5.0,0.0,-2.0,2.0,0.0,0.0257568359375,0.14605712890625,-0.18450927734375,0.9715576171875,-0.2880859375,-0.01123046875,0.966796875,0.0625,0.3125,-0.4375
2.9799999999999587,0.0,1.0,8.0,-5.0,0.0,-2.0,2.0,0.0,0.0257568359375,0.14605712890625,-0.18450927734375,0.9715576171875,-0.2880859375,-0.01123046875,0.966796875,0.0625,0.3125,-0.4375
2.9849999999999586,0.0,-7.0,-4.0,8.0,0.0,-1.0,-1.0,-1.0,0.02587890625,0.14605712890625,-0.1845703125,0.9715576171875,-0.291015625,-0.01025390625,0.96728515625,1.3125,0.1875,-0.1875
2.9899999999999585,0.0,-7.0,-4.0,8.0,0.0,-1.0,-1.0,-1.0,0.02587890625,0.14605712890625,-0.1845703125,0.9715576171875,-0.291015625,-0.01025390625,0.96728515625,1.3125,0.1875,-0.1875
2.9949999999999584,-3.0,-10.0,-10.0,-3.0,-4.0,-5.0,-2.0,-1.0,0.026123046875,0.14599609375,-0.1845703125,0.9715576171875,-0.28955078125,-0.001953125,0.96533203125,1.0625,0.4375,0.3125
2.9999999999999583,-1.0,-5.0,-5.0,3.0,-1.0,1.0,0.0,0.0,0.026123046875,0.14599609375,-0.1845703125,0.9715576171875,-0.28955078125,-0.001953125,0.96533203125,1.0625,0.4375,0.3125
3.004999999999958,-2.0,-10.0,-1.0,3.0,0.0,0.0,-1.0,0.0,0.026123046875,0.14599609375,-0.1845703125,0.9715576171875,-0.2919921875,0.00341796875,0.97119140625,0.125,0.375,0.3125
3.009999999999958,-1.0,-3.0,-3.0,-28.0,0.0,0.0,4.0,0.0,0.026123046875,0.14599609375,-0.1845703125,0.9715576171875,-0.2919921875,0.00341796875,0.97119140625,0.125,0.375,0.3125
3.014999999999958,0.0,12.0,6.0,-12.0,-2.0,-1.0,6.0,1.0,0.026123046875,0.14599609375,-0.1845703125,0.9715576171875,-0.2919921875,0.00341796875,0.97119140625,0.125,0.375,0.3125
3.019999999999958,-1.0,2.0,0.0,-1.0,-1.0,0.0,-6.0,-3.0,0.026123046875,0.14599609375,-0.1845703125,0.9715576171875,-0.29638671875,-0.00927734375,0.9716796875,0.625,0.25,0.625
3.0249999999999577,2.0,9.0,3.0,0.0,0.0,-1.0,-13.0,3.0,0.026123046875,0.14599609375,-0.1845703125,0.9715576171875,-0.2978515625,-0.00830078125,0.96337890625,0.625,0.5,0.25
3.0299999999999576,1.0,4.0,2.0,6.0,3.0,1.0,2.0,0.0,0.026123046875,0.14599609375,-0.1845703125,0.9715576171875,-0.2978515625,-0.00830078125,0.96337890625,0.625,0.5,0.25
3.0349999999999575,1.0,4.0,2.0,6.0,3.0,1.0,2.0,0.0,0.026123046875,0.14593505859375,-0.1845703125,0.9715576171875,-0.291015625,0.0,0.97314453125,0.8125,0.25,-0.0625
3.0399999999999574,-3.0,0.0,1.0,-4.0,-4.0,-3.0,-5.0,-4.0,0.026123046875,0.14593505859375,-0.1845703125,0.9715576171875,-0.28662109375,0.00048828125,0.95703125,0.4375,0.0,0.0
3.0449999999999573,0.0,-5.0,6.0,-27.0,0.0,-2.0,11.0,-1.0,0.026123046875,0.14593505859375,-0.1845703125,0.9715576171875,-0.28662109375,0.00048828125,0.95703125,0.4375,0.0,0.0
3.049999999999957,-1.0,6.0,3.0,-13.0,-2.0,-2.0,2.0,-2.0,0.026123046875,0.14593505859375,-0.1845703125,0.9715576171875,-0.28662109375,0.00048828125,0.95703125,0.4375,0.0,0.0
3.054999999999957,0.0,-2.0,-4.0,10.0,-1.0,0.0,0.0,-2.0,0.02593994140625,0.1458740234375,-0.1844482421875,0.9715576171875,-0.291015625,0.0,0.9658203125,-1.1875,-0.3125,0.25
3.059999999999957,0.0,3.0,-5.0,10.0,-1.0,1.0,1.0,-3.0,0.02593994140625,0.14581298828125,-0.18450927734375,0.9715576171875,-0.2939453125,-0.00927734375,0.966796875,-0.3125,-0.3125,0.0
3.064999999999957,-5.0,-9.0,-6.0,-1.0,-3.0,-2.0,-4.0,-3.0,0.02606201171875,0.145751953125,-0.1845703125,0.9715576171875,-0.2919921875,-0.00732421875,0.96435546875,1.0625,-0.25,-0.4375
3.0699999999999568,-3.0,6.0,4.0,2.0,0.0,-2.0,-7.0,-3.0,0.02606201171875,0.145751953125,-0.1845703125,0.9715576171875,-0.2919921875,-0.00732421875,0.96435546875,1.0625,-0.25,-0.4375
3.0749999999999567,3.0,15.0,-2.0,-7.0,1.0,0.0,1.0,0.0,0.0263671875,0.1456298828125,-0.1846923828125,0.9715576171875,-0.28759765625,0.0078125,0.9755859375,0.75,0.25,-0.5
3.0799999999999566,-7.0,-36.0,-25.0,3.0,-2.0,0.0,3.0,2.0,0.0263671875,0.1456298828125,-0.1846923828125,0.9715576171875,-0.28759765625,0.0078125,0.9755859375,0.75,0.25,-0.5
3.0849999999999564,-1.0,-3.0,-14.0,-11.0,-6.0,-1.0,-8.0,-3.0,0.026123046875,0.14556884765625,-0.1845703125,0.97161865234375,-0.2900390625,-0.00341796875,0.9716796875,-1.25,0.0625,0.3125
3.0899999999999563,-1.0,-3.0,-14.0,-11.0,-6.0,-1.0,-8.0,-3.0,0.026123046875,0.14556884765625,-0.1845703125,0.97161865234375,-0.2900390625,-0.00341796875,0.9716796875,-1.25,0.0625,0.3125
3.0949999999999562,0.0,-4.0,-5.0,4.0,1.0,0.0,-2.0,-1.0,0.026123046875,0.14556884765625,-0.1845703125,0.97161865234375,-0.2900390625,-0.009765625,0.96826171875,-0.875,0.1875,0.0625
3.099999999999956,0.0,-4.0,-5.0,4.0,1.0,0.0,-2.0,-1.0,0.026123046875,0.14556884765625,-0.1845703125,0.97161865234375,-0.2900390625,-0.009765625,0.96826171875,-0.875,0.1875,0.0625
3.104999999999956,-1.0,-8.0,-2.0,-5.0,1.0,1.0,-9.0,-1.0,0.026123046875,0.14556884765625,-0.1845703125,0.97161865234375,-0.2900390625,-0.009765625,0.96826171875,-0.875,0.1875,0.0625
3.109999999999956,-1.0,0.0,4.0,-35.0,-1.0,-1.0,2.0,1.0,0.026123046875,0.14556884765625,-0.1845703125,0.97161865234375,-0.2958984375,-0.00390625,0.96533203125,0.0,0.1875,0.0625
3.114999999999956,-1.0,0.0,4.0,-35.0,-1.0,-1.0,2.0,1.0,0.026123046875,0.14556884765625,-0.1845703125,0.97161865234375,-0.29248046875,-0.005859375,0.96826171875,0.1875,0.375,-0.3125
3.1199999999999557,2.0,5.0,1.0,-3.0,0.0,-2.0,-20.0,1.0,0.026123046875,0.14556884765625,-0.1845703125,0.97161865234375,-0.29248046875,-0.005859375,0.96826171875,0.1875,0.375,-0.3125
3.1249999999999556,-1.0,-6.0,-2.0,4.0,-1.0,1.0,3.0,0.0,0.026123046875,0.14556884765625,-0.1845703125,0.97161865234375,-0.29296875,0.0,0.9716796875,0.6875,0.4375,-0.375
3.1299999999999555,1.0,-2.0,3.0,4.0,-1.0,0.0,10.0,1.0,0.026123046875,0.1455078125,-0.1845703125,0.97161865234375,-0.2900390625,0.00439453125,0.97021484375,-0.0625,0.3125,-0.4375
3.1349999999999554,1.0,-2.0,3.0,4.0,-1.0,0.0,10.0,1.0,0.026123046875,0.1455078125,-0.1845703125,0.97161865234375,-0.2900390625,0.00439453125,0.97021484375,-0.0625,0.3125,-0.4375
3.1399999999999553,-1.0,-7.0,-14.0,2.0,-4.0,-5.0,-5.0,-4.0,0.026123046875,0.1455078125,-0.1845703125,0.97161865234375,-0.2900390625,0.00439453125,0.97021484375,-0.0625,0.3125,-0.4375
3.144999999999955,0.0,4.0,5.0,15.0,4.0,0.0,0.0,-2.0,0.026123046875,0.1455078125,-0.1845703125,0.97161865234375,-0.2900390625,0.00439453125,0.97021484375,-0.0625,0.3125,-0.4375
3.149999999999955,-2.0,0.0,1.0,-2.0,-7.0,-2.0,-2.0,-2.0,0.02593994140625,0.1455078125,-0.1845703125,0.97161865234375,-0.2900390625,0.00146484375,0.970703125,-1.3125,0.25,-0.25
3.154999999999955,0.0,-6.0,6.0,29.0,2.0,-2.0,-9.0,-1.0,0.02569580078125,0.14556884765625,-0.18463134765625,0.97161865234375,-0.29248046875,-0.0107421875,0.96484375,-1.125,0.125,-0.375
3.159999999999955,0.0,12.0,12.0,22.0,1.0,0.0,-1.0,1.0,0.025634765625,0.14556884765625,-0.18463134765625,0.97161865234375,-0.29833984375,-0.01513671875,0.96337890625,0.5,0.0625,-0.3125
3.1649999999999547,-3.0,-2.0,1.0,-9.0,-3.0,-2.0,0.0,-1.0,0.025634765625,0.14556884765625,-0.18463134765625,0.97161865234375,-0.29833984375,-0.01513671875,0.96337890625,0.5,0.0625,-0.3125
3.1699999999999546,-2.0,0.0,0.0,-6.0,-2.0,-2.0,-2.0,-2.0,0.025634765625,0.14556884765625,-0.18463134765625,0.97161865234375,-0.29052734375,-0.00244140625,0.966796875,0.875,0.3125,-0.5
3.1749999999999545,-2.0,0.0,0.0,-6.0,-2.0,-2.0,-2.0,-2.0,0.025634765625,0.14556884765625,-0.18463134765625,0.97161865234375,-0.29052734375,-0.00244140625,0.966796875,0.875,0.3125,-0.5
3.1799999999999544,-1.0,-3.0,-3.0,-5.0,-2.0,-5.0,-2.0,-1.0,0.025634765625,0.14556884765625,-0.18463134765625,0.97161865234375,-0.29052734375,-0.00244140625,0.966796875,0.875,0.3125,-0.5
3.1849999999999543,-1.0,-3.0,-3.0,-5.0,-2.0,-5.0,-2.0,-1.0,0.025634765625,0.14556884765625,-0.18463134765625,0.97161865234375,-0.29052734375,-0.00244140625,0.966796875,0.875,0.3125,-0.5
3.189999999999954,-1.0,-1.0,-8.0,1.0,-1.0,-2.0,1.0,-1.0,0.025634765625,0.14556884765625,-0.18463134765625,0.97161865234375,-0.29150390625,-0.00244140625,0.96923828125,0.0,0.4375,-0.1875
3.194999999999954,-2.0,-4.0,-1.0,6.0,0.0,1.0,-2.0,-2.0,0.025634765625,0.14556884765625,-0.18463134765625,0.97161865234375,-0.29150390625,-0.00244140625,0.96923828125,0.0,0.4375,-0.1875
3.199999999999954,-1.0,-1.0,-8.0,-10.0,-5.0,2.0,11.0,1.0,0.025634765625,0.1455078125,-0.18463134765625,0.97161865234375,-0.28857421875,-0.00146484375,0.970703125,-0.3125,0.25,-0.0625
3.204999999999954,0.0,8.0,-1.0,17.0,5.0,-1.0,5.0,0.0,0.025634765625,0.1455078125,-0.18463134765625,0.97161865234375,-0.28857421875,-0.00146484375,0.970703125,-0.3125,0.25,-0.0625
3.209999999999954,0.0,8.0,-1.0,17.0,5.0,-1.0,5.0,0.0,0.025634765625,0.1455078125,-0.18463134765625,0.97161865234375,-0.291015625,-0.00830078125,0.96630859375,-0.0625,0.4375,0.0625
3.2149999999999537,-2.0,-4.0,-5.0,-22.0,-4.0,-2.0,-18.0,-4.0,0.02587890625,0.1455078125,-0.1846923828125,0.97161865234375,-0.294921875,-0.0029296875,0.9677734375,1.125,0.3125,-0.125
3.2199999999999536,-2.0,-4.0,-5.0,-22.0,-4.0,-2.0,-18.0,-4.0,0.02587890625,0.1455078125,-0.1846923828125,0.97161865234375,-0.294921875,-0.0029296875,0.9677734375,1.125,0.3125,-0.125
3.2249999999999535,-1.0,-5.0,-3.0,-4.0,-3.0,0.0,-4.0,0.0,0.02587890625,0.1455078125,-0.1846923828125,0.97161865234375,-0.294921875,-0.0029296875,0.9677734375,1.125,0.3125,-0.125
3.2299999999999534,-1.0,-5.0,-3.0,-4.0,-3.0,0.0,-4.0,0.0,0.02587890625,0.1455078125,-0.1846923828125,0.97161865234375,-0.2900390625,0.00537109375,0.96533203125,-0.25,0.1875,0.125
3.2349999999999532,-2.0,-4.0,-2.0,-5.0,-3.0,-2.0,-3.0,0.0,0.02587890625,0.1455078125,-0.1846923828125,0.97161865234375,-0.2900390625,0.00537109375,0.96533203125,-0.25,0.1875,0.125
3.239999999999953,-2.0,-4.0,-2.0,-5.0,-3.0,-2.0,-3.0,0.0,0.02587890625,0.1455078125,-0.1846923828125,0.97161865234375,-0.2900390625,0.00537109375,0.96533203125,-0.25,0.1875,0.125
3.244999999999953,-2.0,-3.0,2.0,6.0,1.0,-1.0,1.0,-2.0,0.02587890625,0.1455078125,-0.1846923828125,0.97161865234375,-0.29443359375,-0.0029296875,0.97021484375,0.3125,0.1875,-0.25
3.249999999999953,-3.0,-6.0,-5.0,7.0,-5.0,-3.0,2.0,-1.0,0.02587890625,0.14544677734375,-0.1846923828125,0.97161865234375,-0.28759765625,-0.0009765625,0.970703125,0.75,0.125,-0.6875
3.254999999999953,-3.0,-6.0,-5.0,7.0,-5.0,-3.0,2.0,-1.0,0.02587890625,0.14544677734375,-0.1846923828125,0.97161865234375,-0.28759765625,-0.0009765625,0.970703125,0.75,0.125,-0.6875
3.2599999999999527,0.0,-1.0,-2.0,-5.0,-2.0,-1.0,0.0,0.0,0.02587890625,0.14544677734375,-0.1846923828125,0.97161865234375,-0.28955078125,0.00244140625,0.9658203125,0.9375,0.125,-0.8125
3.2649999999999526,0.0,-1.0,-2.0,-5.0,-2.0,-1.0,0.0,0.0,0.02587890625,0.14544677734375,-0.1846923828125,0.97161865234375,-0.28955078125,0.00244140625,0.9658203125,0.9375,0.125,-0.8125
3.2699999999999525,1.0,11.0,-1.0,-12.0,-5.0,-3.0,0.0,1.0,0.02587890625,0.14544677734375,-0.1846923828125,0.97161865234375,-0.29150390625,0.0009765625,0.9638671875,-0.25,-0.125,-0.5625
3.2749999999999524,0.0,-8.0,8.0,-19.0,-2.0,-1.0,2.0,1.0,0.02587890625,0.14544677734375,-0.1846923828125,0.97161865234375,-0.28857421875,-0.005859375,0.96728515625,-0.875,0.125,-0.9375
3.2799999999999523,0.0,-8.0,8.0,-19.0,-2.0,-1.0,2.0,1.0,0.02587890625,0.14544677734375,-0.1846923828125,0.97161865234375,-0.28857421875,-0.005859375,0.96728515625,-0.875,0.125,-0.9375
3.284999999999952,-1.0,8.0,-1.0,-4.0,-2.0,1.0,-3.0,-3.0,0.02587890625,0.1453857421875,-0.1846923828125,0.97161865234375,-0.2919921875,-0.0048828125,0.97216796875,0.25,0.1875,-0.625
3.289999999999952,-2.0,-2.0,1.0,1.0,1.0,-2.0,0.0,-1.0,0.02587890625,0.1453857421875,-0.1846923828125,0.97161865234375,-0.2919921875,-0.0048828125,0.97216796875,0.25,0.1875,-0.625
3.294999999999952,1.0,13.0,6.0,-1.0,-3.0,-3.0,-1.0,1.0,0.02587890625,0.1453857421875,-0.1846923828125,0.97161865234375,-0.2919921875,-0.0048828125,0.97216796875,0.25,0.1875,-0.625
3.299999999999952,0.0,-1.0,-2.0,41.0,6.0,1.0,0.0,0.0,0.0260009765625,0.1455078125,-0.18487548828125,0.9715576171875,-0.29736328125,-0.001953125,0.96826171875,0.4375,0.6875,-1.0625
3.3049999999999518,-4.0,-8.0,-4.0,-13.0,-5.0,-1.0,-3.0,-2.0,0.0260009765625,0.1456298828125,-0.18505859375,0.97149658203125,-0.29150390625,-0.0048828125,0.96826171875,0.25,1.0,-1.0
3.3099999999999516,-1.0,0.0,0.0,0.0,1.0,1.0,-2.0,-1.0,0.0260009765625,0.1456298828125,-0.18505859375,0.97149658203125,-0.29150390625,-0.0048828125,0.96826171875,0.25,1.0,-1.0
