0.005,1.0,-8.0,6.0,4.0,-4.0,-1.0,-4.0,-1.0,-0.16827392578125,0.202880859375,0.24298095703125,0.9334716796875,-0.46728515625,-0.203125,0.880859375,-2.0,0.0625,-0.4375
0.01,-5.0,-18.0,-13.0,-2.0,5.0,1.0,2.0,-3.0,-0.16827392578125,0.202880859375,0.24298095703125,0.9334716796875,-0.46728515625,-0.203125,0.880859375,-2.0,0.0625,-0.4375
0.015,-5.0,-18.0,-13.0,-2.0,5.0,1.0,2.0,-3.0,-0.16827392578125,0.202880859375,0.24298095703125,0.9334716796875,-0.46728515625,-0.203125,0.880859375,-2.0,0.0625,-0.4375
0.02,0.0,12.0,8.0,-5.0,-7.0,0.0,0.0,2.0,-0.1685791015625,0.20281982421875,0.2431640625,0.93341064453125,-0.47021484375,-0.22607421875,0.8740234375,-1.9375,-0.25,0.5625
0.025,0.0,12.0,8.0,-5.0,-7.0,0.0,0.0,2.0,-0.1685791015625,0.20281982421875,0.2431640625,0.93341064453125,-0.47021484375,-0.22607421875,0.8740234375,-1.9375,-0.25,0.5625
0.030000000000000002,-4.0,-4.0,-19.0,-7.0,-6.0,-4.0,-1.0,-4.0,-0.16864013671875,0.20281982421875,0.2431640625,0.93341064453125,-0.4658203125,-0.2353515625,0.87548828125,0.0,-0.3125,-0.6875
0.035,-1.0,4.0,-4.0,1.0,2.0,-1.0,-2.0,-1.0,-0.16851806640625,0.202880859375,0.24285888671875,0.9334716796875,-0.4658203125,-0.2197265625,0.8740234375,1.25,0.5625,-1.4375
0.04,-6.0,-16.0,6.0,-7.0,-6.0,-2.0,-4.0,-3.0,-0.16851806640625,0.202880859375,0.24285888671875,0.9334716796875,-0.4658203125,-0.2197265625,0.8740234375,1.25,0.5625,-1.4375
0.045,3.0,2.0,3.0,-13.0,-7.0,-1.0,4.0,0.0,-0.16845703125,0.202880859375,0.24285888671875,0.9334716796875,-0.470703125,-0.2138671875,0.8857421875,-0.3125,0.5,-0.625
0.049999999999999996,-1.0,6.0,14.0,3.0,3.0,-2.0,4.0,0.0,-0.16845703125,0.202880859375,0.24285888671875,0.9334716796875,-0.46435546875,-0.22314453125,0.8828125,-0.875,0.625,-0.375
0.05499999999999999,-1.0,-4.0,1.0,1.0,-4.0,-4.0,-4.0,-2.0,-0.16845703125,0.202880859375,0.24285888671875,0.9334716796875,-0.46435546875,-0.22314453125,0.8828125,-0.875,0.625,-0.375
0.05999999999999999,2.0,4.0,3.0,0.0,3.0,0.0,-1.0,0.0,-0.16845703125,0.202880859375,0.24285888671875,0.9334716796875,-0.46923828125,-0.2236328125,0.87548828125,-0.3125,0.875,-0.0625
0.06499999999999999,3.0,18.0,19.0,11.0,12.0,4.0,-1.0,1.0,-0.16845703125,0.202880859375,0.24285888671875,0.9334716796875,-0.46923828125,-0.2236328125,0.87548828125,-0.3125,0.875,-0.0625
0.06999999999999999,-2.0,-4.0,-5.0,0.0,-3.0,-2.0,-4.0,-4.0,-0.16864013671875,0.20294189453125,0.242919921875,0.93341064453125,-0.46875,-0.2177734375,0.8837890625,-1.0625,1.0,0.1875
0.075,-3.0,-2.0,-14.0,-7.0,-5.0,-4.0,5.0,-1.0,-0.16864013671875,0.20294189453125,0.242919921875,0.93341064453125,-0.46875,-0.2177734375,0.8837890625,-1.0625,1.0,0.1875
0.08,-3.0,-2.0,-14.0,-7.0,-5.0,-4.0,5.0,-1.0,-0.16864013671875,0.20294189453125,0.242919921875,0.93341064453125,-0.46875,-0.2177734375,0.8837890625,-1.0625,1.0,0.1875
0.085,-2.0,-3.0,-5.0,-4.0,-3.0,-1.0,-4.0,-3.0,-0.16864013671875,0.203125,0.2427978515625,0.93341064453125,-0.46875,-0.2177734375,0.87255859375,0.3125,1.0,-0.5625
0.09000000000000001,1.0,0.0,4.0,-1.0,-3.0,-2.0,-4.0,5.0,-0.16864013671875,0.203125,0.2427978515625,0.93341064453125,-0.46875,-0.2177734375,0.87255859375,0.3125,1.0,-0.5625
0.09500000000000001,1.0,0.0,4.0,-1.0,-3.0,-2.0,-4.0,5.0,-0.16864013671875,0.203125,0.2427978515625,0.93341064453125,-0.46875,-0.2177734375,0.87255859375,0.3125,1.0,-0.5625
0.10000000000000002,0.0,7.0,9.0,-4.0,-5.0,-1.0,-2.0,-3.0,-0.168701171875,0.2032470703125,0.24273681640625,0.93341064453125,-0.46630859375,-0.21630859375,0.87158203125,-0.5625,1.0,-0.25
0.10500000000000002,-1.0,8.0,6.0,6.0,3.0,-3.0,-1.0,-2.0,-0.168701171875,0.2032470703125,0.24273681640625,0.93341064453125,-0.46630859375,-0.21630859375,0.87158203125,-0.5625,1.0,-0.25
0.11000000000000003,-2.0,3.0,-13.0,-1.0,-1.0,-1.0,1.0,0.0,-0.1689453125,0.20330810546875,0.24273681640625,0.933349609375,-0.46826171875,-0.216796875,0.8798828125,-1.625,0.75,-0.4375
0.11500000000000003,0.0,-4.0,-2.0,-5.0,-3.0,2.0,0.0,-2.0,-0.1689453125,0.20330810546875,0.24273681640625,0.933349609375,-0.46826171875,-0.216796875,0.8798828125,-1.625,0.75,-0.4375
0.12000000000000004,1.0,4.0,-3.0,2.0,5.0,-1.0,9.0,1.0,-0.1693115234375,0.2032470703125,0.24273681640625,0.93328857421875,-0.46728515625,-0.22607421875,0.87939453125,-1.6875,0.4375,0.0
0.12500000000000003,1.0,4.0,-3.0,2.0,5.0,-1.0,9.0,1.0,-0.1693115234375,0.2032470703125,0.24273681640625,0.93328857421875,-0.46728515625,-0.22607421875,0.87939453125,-1.6875,0.4375,0.0
0.13000000000000003,1.0,6.0,1.0,-3.0,-1.0,-1.0,1.0,-2.0,-0.1693115234375,0.2032470703125,0.24273681640625,0.93328857421875,-0.47119140625,-0.224609375,0.88330078125,-0.75,0.75,-0.0625
0.13500000000000004,-1.0,-1.0,-12.0,-2.0,-5.0,-1.0,-1.0,-2.0,-0.1693115234375,0.2032470703125,0.24273681640625,0.93328857421875,-0.47607421875,-0.2197265625,0.8740234375,-0.6875,0.25,0.25
0.14000000000000004,-1.0,8.0,19.0,-2.0,-2.0,-2.0,-3.0,-2.0,-0.1693115234375,0.2032470703125,0.24273681640625,0.93328857421875,-0.47607421875,-0.2197265625,0.8740234375,-0.6875,0.25,0.25
0.14500000000000005,1.0,-3.0,-6.0,10.0,3.0,-1.0,2.0,-1.0,-0.1693115234375,0.2032470703125,0.24273681640625,0.93328857421875,-0.46923828125,-0.22900390625,0.86865234375,-0.625,0.3125,0.125
0.15000000000000005,1.0,-3.0,-6.0,10.0,3.0,-1.0,2.0,-1.0,-0.1693115234375,0.2032470703125,0.24273681640625,0.93328857421875,-0.46923828125,-0.2216796875,0.87158203125,0.75,0.4375,-0.125
0.15500000000000005,-1.0,-10.0,4.0,3.0,2.0,0.0,-5.0,-2.0,-0.1693115234375,0.2032470703125,0.24273681640625,0.93328857421875,-0.46923828125,-0.2216796875,0.87158203125,0.75,0.4375,-0.125
0.16000000000000006,1.0,4.0,1.0,-10.0,-9.0,-1.0,0.0,-1.0,-0.1693115234375,0.2032470703125,0.24273681640625,0.93328857421875,-0.4697265625,-0.22119140625,0.8759765625,0.8125,0.375,-0.1875
0.16500000000000006,-1.0,2.0,-2.0,10.0,2.0,-2.0,-3.0,-1.0,-0.1693115234375,0.20330810546875,0.24273681640625,0.93328857421875,-0.47509765625,-0.22216796875,0.86865234375,0.25,0.125,0.5
0.17000000000000007,-1.0,6.0,11.0,-2.0,-3.0,-3.0,0.0,0.0,-0.1693115234375,0.20330810546875,0.24273681640625,0.93328857421875,-0.47509765625,-0.22216796875,0.86865234375,0.25,0.125,0.5
0.17500000000000007,0.0,-4.0,5.0,6.0,2.0,1.0,1.0,-1.0,-0.1693115234375,0.20330810546875,0.24273681640625,0.93328857421875,-0.4716796875,-0.2236328125,0.876953125,0.0625,-0.125,0.4375
0.18000000000000008,0.0,-4.0,5.0,6.0,2.0,1.0,1.0,-1.0,-0.1693115234375,0.20330810546875,0.24273681640625,0.93328857421875,-0.4716796875,-0.2236328125,0.876953125,0.0625,-0.125,0.4375
0.18500000000000008,-2.0,4.0,-1.0,-4.0,-4.0,0.0,6.0,-2.0,-0.16900634765625,0.2032470703125,0.24273681640625,0.933349609375,-0.46728515625,-0.22314453125,0.88525390625,1.5625,-0.25,0.1875
0.19000000000000009,0.0,5.0,0.0,-9.0,-10.0,0.0,2.0,0.0,-0.1685791015625,0.2032470703125,0.2427978515625,0.93341064453125,-0.46826171875,-0.224609375,0.87451171875,2.5,-0.6875,0.875
0.1950000000000001,-3.0,-1.0,-3.0,-4.0,0.0,1.0,-2.0,0.0,-0.1685791015625,0.2032470703125,0.2427978515625,0.93341064453125,-0.46826171875,-0.224609375,0.87451171875,2.5,-0.6875,0.875
0.2000000000000001,-3.0,-1.0,-3.0,-1.0,-9.0,-2.0,-2.0,-2.0,-0.1680908203125,0.203369140625,0.242919921875,0.93341064453125,-0.4736328125,-0.21484375,0.87060546875,2.5625,-0.75,1.0625
0.2050000000000001,-3.0,-1.0,-3.0,-1.0,-9.0,-2.0,-2.0,-2.0,-0.1680908203125,0.203369140625,0.242919921875,0.93341064453125,-0.4736328125,-0.21484375,0.87060546875,2.5625,-0.75,1.0625
0.2100000000000001,-1.0,2.0,9.0,0.0,0.0,3.0,-2.0,-1.0,-0.1678466796875,0.20343017578125,0.24310302734375,0.93341064453125,-0.48046875,-0.22021484375,0.8740234375,1.4375,-0.875,1.125
0.2150000000000001,-1.0,2.0,9.0,0.0,0.0,3.0,-2.0,-1.0,-0.1678466796875,0.20343017578125,0.24310302734375,0.93341064453125,-0.48046875,-0.22021484375,0.8740234375,1.4375,-0.875,1.125
0.2200000000000001,-1.0,-4.0,0.0,-4.0,-4.0,-2.0,-1.0,-2.0,-0.16754150390625,0.20330810546875,0.2432861328125,0.9334716796875,-0.4697265625,-0.2236328125,0.87939453125,1.4375,-1.125,1.375
0.22500000000000012,-1.0,-4.0,0.0,-4.0,-4.0,-2.0,-1.0,-2.0,-0.16754150390625,0.20330810546875,0.2432861328125,0.9334716796875,-0.4697265625,-0.2236328125,0.87939453125,1.4375,-1.125,1.375
0.23000000000000012,0.0,-2.0,-2.0,0.0,1.0,1.0,1.0,-1.0,-0.16717529296875,0.2032470703125,0.243408203125,0.9334716796875,-0.46923828125,-0.21826171875,0.87646484375,1.875,-1.125,1.0625
0.23500000000000013,3.0,-8.0,-2.0,3.0,12.0,-1.0,-1.0,3.0,-0.16717529296875,0.2032470703125,0.243408203125,0.9334716796875,-0.46923828125,-0.21826171875,0.87646484375,1.875,-1.125,1.0625
0.24000000000000013,1.0,5.0,-9.0,4.0,3.0,2.0,-1.0,1.0,-0.16668701171875,0.20318603515625,0.24359130859375,0.93353271484375,-0.46240234375,-0.21630859375,0.8818359375,2.1875,-0.6875,1.375
0.24500000000000013,1.0,-4.0,-8.0,-12.0,-5.0,-3.0,-24.0,-3.0,-0.16668701171875,0.20318603515625,0.24359130859375,0.93353271484375,-0.46240234375,-0.21630859375,0.8818359375,2.1875,-0.6875,1.375
0.2500000000000001,-3.0,-4.0,-2.0,13.0,9.0,4.0,-3.0,-3.0,-0.16650390625,0.203125,0.243896484375,0.93353271484375,-0.46240234375,-0.21435546875,0.87451171875,0.625,-0.625,1.75
0.2550000000000001,-1.0,10.0,11.0,-4.0,-7.0,-2.0,12.0,0.0,-0.16650390625,0.203125,0.243896484375,0.93353271484375,-0.46240234375,-0.21435546875,0.87451171875,0.625,-0.625,1.75
0.2600000000000001,-1.0,10.0,11.0,-4.0,-7.0,-2.0,12.0,0.0,-0.1661376953125,0.203125,0.24407958984375,0.93353271484375,-0.46630859375,-0.208984375,0.87744140625,1.0625,-0.375,1.4375
0.2650000000000001,-2.0,-9.0,-11.0,-8.0,-4.0,-3.0,-9.0,-4.0,-0.1661376953125,0.203125,0.24407958984375,0.93353271484375,-0.46630859375,-0.208984375,0.87744140625,1.0625,-0.375,1.4375
0.27000000000000013,-2.0,-2.0,-3.0,-7.0,-8.0,-2.0,1.0,-1.0,-0.166015625,0.203125,0.244384765625,0.9334716796875,-0.46923828125,-0.21142578125,0.87548828125,0.0,-0.75,1.625
0.27500000000000013,-6.0,-4.0,-8.0,8.0,5.0,-2.0,3.0,-5.0,-0.166015625,0.203125,0.244384765625,0.9334716796875,-0.46923828125,-0.21142578125,0.87548828125,0.0,-0.75,1.625
0.28000000000000014,-6.0,-4.0,-8.0,8.0,5.0,-2.0,3.0,-5.0,-0.16595458984375,0.20306396484375,0.24468994140625,0.93341064453125,-0.47021484375,-0.21337890625,0.87890625,-0.3125,-0.75,1.375
0.28500000000000014,-8.0,-36.0,-20.0,-9.0,-6.0,-2.0,-7.0,-5.0,-0.16595458984375,0.20306396484375,0.24468994140625,0.93341064453125,-0.47021484375,-0.21337890625,0.87890625,-0.3125,-0.75,1.375
0.29000000000000015,-1.0,16.0,6.0,3.0,3.0,0.0,-2.0,-2.0,-0.16595458984375,0.20306396484375,0.24468994140625,0.93341064453125,-0.47021484375,-0.21337890625,0.88525390625,0.6875,-0.8125,0.9375
0.29500000000000015,-1.0,-3.0,5.0,-6.0,0.0,0.0,-4.0,-2.0,-0.16595458984375,0.20306396484375,0.24468994140625,0.93341064453125,-0.466796875,-0.20849609375,0.873046875,0.8125,-0.625,0.0
0.30000000000000016,-1.0,-3.0,5.0,-6.0,0.0,0.0,-4.0,-2.0,-0.16595458984375,0.20306396484375,0.24468994140625,0.93341064453125,-0.466796875,-0.20849609375,0.873046875,0.8125,-0.625,0.0
0.30500000000000016,0.0,2.0,10.0,-2.0,-6.0,3.0,5.0,-2.0,-0.16595458984375,0.20306396484375,0.24468994140625,0.93341064453125,-0.46484375,-0.20703125,0.8779296875,0.4375,0.0,0.125
0.31000000000000016,2.0,20.0,19.0,2.0,3.0,0.0,-7.0,-4.0,-0.16595458984375,0.20306396484375,0.24468994140625,0.93341064453125,-0.46484375,-0.20703125,0.8779296875,0.4375,0.0,0.125
0.31500000000000017,-4.0,-8.0,-23.0,-6.0,0.0,-2.0,-1.0,0.0,-0.1658935546875,0.20306396484375,0.24468994140625,0.93341064453125,-0.47607421875,-0.20703125,0.87939453125,-0.625,0.25,-0.4375
0.3200000000000002,0.0,-1.0,4.0,-1.0,2.0,0.0,-3.0,0.0,-0.1658935546875,0.20306396484375,0.24468994140625,0.93341064453125,-0.47607421875,-0.20703125,0.87939453125,-0.625,0.25,-0.4375
0.3250000000000002,0.0,0.0,-4.0,-2.0,-2.0,-3.0,1.0,-1.0,-0.1661376953125,0.2030029296875,0.24468994140625,0.93341064453125,-0.4716796875,-0.2138671875,0.88134765625,-1.4375,0.0,-0.3125
0.3300000000000002,0.0,0.0,-4.0,-2.0,-2.0,-3.0,1.0,-1.0,-0.1661376953125,0.2030029296875,0.24468994140625,0.93341064453125,-0.4716796875,-0.2138671875,0.88134765625,-1.4375,0.0,-0.3125
0.3350000000000002,0.0,12.0,10.0,-3.0,0.0,0.0,-1.0,1.0,-0.1663818359375,0.2030029296875,0.2447509765625,0.933349609375,-0.46875,-0.2158203125,0.87890625,-1.625,0.125,0.0625
0.3400000000000002,-1.0,-8.0,0.0,-5.0,0.0,-4.0,-5.0,-2.0,-0.1663818359375,0.2030029296875,0.2447509765625,0.933349609375,-0.46875,-0.2158203125,0.87890625,-1.625,0.125,0.0625
0.3450000000000002,2.0,8.0,16.0,1.0,-2.0,3.0,-2.0,1.0,-0.1663818359375,0.20294189453125,0.2447509765625,0.933349609375,-0.4677734375,-0.21484375,0.87646484375,0.8125,0.1875,-0.9375
0.3500000000000002,1.0,-1.0,0.0,-13.0,-7.0,-3.0,2.0,0.0,-0.1663818359375,0.20294189453125,0.2447509765625,0.933349609375,-0.4677734375,-0.21484375,0.87646484375,0.8125,0.1875,-0.9375
0.3550000000000002,1.0,-1.0,0.0,-13.0,-7.0,-3.0,2.0,0.0,-0.1663818359375,0.20294189453125,0.2447509765625,0.933349609375,-0.4677734375,-0.21484375,0.87646484375,0.8125,0.1875,-0.9375
0.3600000000000002,1.0,4.0,-5.0,5.0,3.0,1.0,0.0,-3.0,-0.16644287109375,0.2030029296875,0.2447509765625,0.933349609375,-0.4697265625,-0.2158203125,0.8759765625,0.1875,0.375,-0.4375
0.3650000000000002,-2.0,-7.0,10.0,-8.0,-5.0,-1.0,4.0,-2.0,-0.16644287109375,0.2030029296875,0.2447509765625,0.933349609375,-0.4697265625,-0.2158203125,0.8759765625,0.1875,0.375,-0.4375
0.3700000000000002,2.0,-1.0,0.0,9.0,7.0,0.0,-1.0,-1.0,-0.1663818359375,0.20294189453125,0.2447509765625,0.933349609375,-0.47021484375,-0.2177734375,0.88720703125,-0.625,0.4375,-0.6875
0.3750000000000002,2.0,-1.0,0.0,9.0,7.0,0.0,-1.0,-1.0,-0.1663818359375,0.20294189453125,0.2447509765625,0.933349609375,-0.47021484375,-0.2177734375,0.88720703125,-0.625,0.4375,-0.6875
0.3800000000000002,-4.0,-5.0,-8.0,-2.0,-4.0,-4.0,-3.0,6.0,-0.1663818359375,0.20294189453125,0.2447509765625,0.933349609375,-0.47021484375,-0.2177734375,0.88720703125,-0.625,0.4375,-0.6875
0.38500000000000023,0.0,4.0,6.0,2.0,3.0,2.0,-6.0,-2.0,-0.1663818359375,0.20294189453125,0.2447509765625,0.933349609375,-0.4677734375,-0.21728515625,0.8837890625,-0.375,0.125,-0.5625
0.39000000000000024,-7.0,-7.0,-16.0,-4.0,-3.0,-2.0,7.0,1.0,-0.1663818359375,0.20294189453125,0.2447509765625,0.933349609375,-0.466796875,-0.2138671875,0.876953125,-0.25,0.25,-0.625
0.39500000000000024,0.0,-4.0,-4.0,-10.0,-10.0,-3.0,0.0,-2.0,-0.1663818359375,0.20294189453125,0.2447509765625,0.933349609375,-0.466796875,-0.2138671875,0.876953125,-0.25,0.25,-0.625
0.40000000000000024,0.0,-4.0,-4.0,-10.0,-10.0,-3.0,0.0,-2.0,-0.1663818359375,0.20294189453125,0.2447509765625,0.933349609375,-0.466796875,-0.2138671875,0.876953125,-0.25,0.25,-0.625
0.40500000000000025,-2.0,-3.0,-10.0,-1.0,0.0,-3.0,-2.0,-2.0,-0.16656494140625,0.2030029296875,0.2447509765625,0.93328857421875,-0.4677734375,-0.21044921875,0.8798828125,-1.125,0.5,-0.3125
0.41000000000000025,-2.0,-13.0,-8.0,6.0,6.0,-3.0,0.0,-1.0,-0.1668701171875,0.20294189453125,0.244873046875,0.9332275390625,-0.46728515625,-0.21923828125,0.8798828125,-1.8125,0.5,0.5
0.41500000000000026,-3.0,6.0,-3.0,-3.0,-6.0,-4.0,-3.0,-3.0,-0.1668701171875,0.20294189453125,0.244873046875,0.9332275390625,-0.46728515625,-0.21923828125,0.8798828125,-1.8125,0.5,0.5
0.42000000000000026,0.0,0.0,8.0,-2.0,-3.0,3.0,-2.0,0.0,-0.1668701171875,0.20294189453125,0.244873046875,0.9332275390625,-0.4677734375,-0.22705078125,0.88037109375,-0.6875,0.8125,0.1875
0.42500000000000027,0.0,0.0,8.0,-2.0,-3.0,3.0,-2.0,0.0,-0.1668701171875,0.20294189453125,0.244873046875,0.9332275390625,-0.4677734375,-0.22705078125,0.88037109375,-0.6875,0.8125,0.1875
0.43000000000000027,-3.0,1.0,-8.0,-1.0,-3.0,0.0,0.0,-1.0,-0.1668701171875,0.20294189453125,0.244873046875,0.9332275390625,-0.47216796875,-0.21875,0.87255859375,0.1875,0.75,0.375
0.4350000000000003,1.0,-5.0,7.0,-4.0,1.0,1.0,-2.0,-1.0,-0.1668701171875,0.20294189453125,0.244873046875,0.9332275390625,-0.47216796875,-0.21875,0.87255859375,0.1875,0.75,0.375
0.4400000000000003,3.0,7.0,6.0,2.0,0.0,-2.0,-1.0,0.0,-0.1668701171875,0.20294189453125,0.244873046875,0.9332275390625,-0.47216796875,-0.212890625,0.87841796875,0.0,0.375,0.4375
0.4450000000000003,-1.0,-2.0,-6.0,2.0,1.0,0.0,-1.0,0.0,-0.16693115234375,0.2030029296875,0.244873046875,0.9332275390625,-0.470703125,-0.21728515625,0.86669921875,0.25,-0.4375,0.75
0.4500000000000003,-1.0,-3.0,-1.0,-14.0,-14.0,-3.0,-3.0,-1.0,-0.16693115234375,0.2030029296875,0.244873046875,0.9332275390625,-0.470703125,-0.21728515625,0.86669921875,0.25,-0.4375,0.75
0.4550000000000003,-2.0,6.0,-2.0,5.0,-4.0,-4.0,-5.0,6.0,-0.1666259765625,0.20294189453125,0.24493408203125,0.9332275390625,-0.47314453125,-0.21630859375,0.880859375,1.25,-0.6875,0.5
0.4600000000000003,1.0,0.0,16.0,0.0,6.0,0.0,-2.0,-1.0,-0.166259765625,0.202880859375,0.2449951171875,0.933349609375,-0.466796875,-0.2080078125,0.88134765625,1.3125,-0.875,0.375
0.4650000000000003,2.0,4.0,8.0,-2.0,-1.0,0.0,2.0,-2.0,-0.166259765625,0.202880859375,0.2449951171875,0.933349609375,-0.466796875,-0.2080078125,0.88134765625,1.3125,-0.875,0.375
0.4700000000000003,2.0,4.0,8.0,-2.0,-1.0,0.0,2.0,-2.0,-0.166259765625,0.202880859375,0.2449951171875,0.933349609375,-0.466796875,-0.2080078125,0.88134765625,1.3125,-0.875,0.375
0.4750000000000003,1.0,-3.0,-10.0,1.0,3.0,0.0,1.0,-1.0,-0.166259765625,0.202880859375,0.2449951171875,0.933349609375,-0.46240234375,-0.20849609375,0.87158203125,0.0,-0.625,0.4375
0.4800000000000003,1.0,-3.0,-10.0,1.0,3.0,0.0,1.0,-1.0,-0.1663818359375,0.20281982421875,0.2452392578125,0.9332275390625,-0.4658203125,-0.21337890625,0.8818359375,-1.3125,-0.125,1.125
0.4850000000000003,0.0,-1.0,-11.0,5.0,3.0,-1.0,-1.0,-1.0,-0.1663818359375,0.20281982421875,0.2452392578125,0.9332275390625,-0.4658203125,-0.21337890625,0.8818359375,-1.3125,-0.125,1.125
0.4900000000000003,-5.0,-13.0,-15.0,-5.0,-5.0,-4.0,-3.0,-3.0,-0.16644287109375,0.20281982421875,0.2452392578125,0.9332275390625,-0.47216796875,-0.2255859375,0.884765625,0.625,-0.0625,0.75
0.49500000000000033,4.0,25.0,2.0,2.0,-3.0,0.0,-1.0,4.0,-0.16607666015625,0.2030029296875,0.2451171875,0.93328857421875,-0.4736328125,-0.21728515625,0.87548828125,2.375,0.125,-0.1875
0.5000000000000003,-2.0,3.0,-10.0,-16.0,-11.0,1.0,-2.0,-3.0,-0.16607666015625,0.2030029296875,0.2451171875,0.93328857421875,-0.4736328125,-0.21728515625,0.87548828125,2.375,0.125,-0.1875
0.5050000000000003,-2.0,3.0,-10.0,-16.0,-11.0,1.0,-2.0,-3.0,-0.16552734375,0.20318603515625,0.2449951171875,0.93341064453125,-0.47119140625,-0.21728515625,0.8759765625,3.5625,-0.0625,0.0625
0.5100000000000003,-5.0,-15.0,-6.0,0.0,4.0,0.0,0.0,-3.0,-0.16552734375,0.20318603515625,0.2449951171875,0.93341064453125,-0.47119140625,-0.21728515625,0.8759765625,3.5625,-0.0625,0.0625
0.5150000000000003,-5.0,-15.0,-6.0,0.0,4.0,0.0,0.0,-3.0,-0.16552734375,0.20318603515625,0.2449951171875,0.93341064453125,-0.47119140625,-0.21728515625,0.8759765625,3.5625,-0.0625,0.0625
0.5200000000000004,0.0,7.0,4.0,0.0,-4.0,-3.0,0.0,1.0,-0.16522216796875,0.2032470703125,0.244873046875,0.9334716796875,-0.466796875,-0.2099609375,0.87158203125,1.9375,-0.125,-0.25
0.5250000000000004,-3.0,1.0,4.0,-7.0,-5.0,-4.0,-1.0,-5.0,-0.16522216796875,0.2032470703125,0.244873046875,0.9334716796875,-0.466796875,-0.2099609375,0.87158203125,1.9375,-0.125,-0.25
0.5300000000000004,-3.0,1.0,4.0,-7.0,-5.0,-4.0,-1.0,-5.0,-0.1649169921875,0.20318603515625,0.24468994140625,0.93359375,-0.45947265625,-0.2001953125,0.8828125,1.1875,0.0,-1.0625
0.5350000000000004,-3.0,-4.0,-26.0,-8.0,-3.0,-1.0,-1.0,-1.0,-0.1649169921875,0.20318603515625,0.24468994140625,0.93359375,-0.45947265625,-0.2001953125,0.8828125,1.1875,0.0,-1.0625
0.5400000000000004,0.0,7.0,11.0,2.0,-2.0,-3.0,0.0,1.0,-0.16485595703125,0.20318603515625,0.24468994140625,0.93359375,-0.462890625,-0.2119140625,0.87744140625,0.1875,0.25,-0.6875
0.5450000000000004,0.0,-4.0,-4.0,-9.0,-8.0,-1.0,3.0,0.0,-0.16485595703125,0.20318603515625,0.24468994140625,0.93359375,-0.462890625,-0.2119140625,0.87744140625,0.1875,0.25,-0.6875
0.5500000000000004,0.0,-4.0,-4.0,-9.0,-8.0,-1.0,3.0,0.0,-0.16485595703125,0.203125,0.24468994140625,0.93359375,-0.45703125,-0.2158203125,0.89306640625,-0.1875,0.3125,-0.5625
0.5550000000000004,0.0,-3.0,7.0,10.0,3.0,3.0,-1.0,-2.0,-0.16485595703125,0.203125,0.24468994140625,0.93359375,-0.45703125,-0.2158203125,0.89306640625,-0.1875,0.3125,-0.5625
0.5600000000000004,0.0,-3.0,7.0,10.0,3.0,3.0,-1.0,-2.0,-0.16485595703125,0.203125,0.24468994140625,0.93359375,-0.46630859375,-0.21435546875,0.884765625,0.5625,0.1875,-0.1875
0.5650000000000004,-1.0,5.0,0.0,-4.0,-1.0,-1.0,0.0,-4.0,-0.16485595703125,0.203125,0.24468994140625,0.93359375,-0.46630859375,-0.21435546875,0.884765625,0.5625,0.1875,-0.1875
0.5700000000000004,-1.0,-4.0,2.0,-2.0,-1.0,-1.0,-1.0,-2.0,-0.16485595703125,0.203125,0.24468994140625,0.93359375,-0.46923828125,-0.21630859375,0.87841796875,0.875,0.125,-0.1875
0.5750000000000004,-1.0,-4.0,2.0,-2.0,-1.0,-1.0,-1.0,-2.0,-0.16485595703125,0.203125,0.24468994140625,0.93359375,-0.4697265625,-0.208984375,0.88134765625,0.0,-0.0625,0.0625
0.5800000000000004,-2.0,-4.0,-2.0,2.0,5.0,1.0,6.0,-1.0,-0.16485595703125,0.203125,0.24468994140625,0.93359375,-0.4697265625,-0.208984375,0.88134765625,0.0,-0.0625,0.0625
0.5850000000000004,-2.0,-4.0,-2.0,2.0,5.0,1.0,6.0,-1.0,-0.16485595703125,0.203125,0.24468994140625,0.93359375,-0.4697265625,-0.208984375,0.88134765625,0.0,-0.0625,0.0625
0.5900000000000004,-3.0,6.0,-10.0,2.0,-1.0,-2.0,-5.0,-1.0,-0.1649169921875,0.203125,0.2449951171875,0.93353271484375,-0.47119140625,-0.20654296875,0.88671875,-1.0,0.0,1.125
0.5950000000000004,-1.0,-3.0,-6.0,2.0,-1.0,-2.0,-2.0,1.0,-0.1649169921875,0.203125,0.24493408203125,0.93353271484375,-0.46728515625,-0.21923828125,0.88037109375,-0.3125,0.25,0.6875
0.6000000000000004,-1.0,-3.0,-6.0,2.0,-1.0,-2.0,-2.0,1.0,-0.16473388671875,0.20318603515625,0.24493408203125,0.93353271484375,-0.46240234375,-0.22119140625,0.87744140625,1.5625,0.375,0.375
0.6050000000000004,-2.0,-3.0,-3.0,-4.0,-2.0,-1.0,-2.0,-1.0,-0.16473388671875,0.20318603515625,0.24493408203125,0.93353271484375,-0.46240234375,-0.22119140625,0.87744140625,1.5625,0.375,0.375
0.6100000000000004,-2.0,-3.0,-3.0,-4.0,-2.0,-1.0,-2.0,-1.0,-0.16436767578125,0.20343017578125,0.24493408203125,0.93353271484375,-0.4716796875,-0.2021484375,0.876953125,1.75,0.5,0.375
0.6150000000000004,1.0,0.0,2.0,11.0,7.0,1.0,0.0,0.0,-0.16436767578125,0.20343017578125,0.24493408203125,0.93353271484375,-0.4716796875,-0.2021484375,0.876953125,1.75,0.5,0.375
0.6200000000000004,1.0,0.0,2.0,11.0,7.0,1.0,0.0,0.0,-0.16436767578125,0.20343017578125,0.24493408203125,0.93353271484375,-0.46875,-0.20263671875,0.88232421875,0.0625,0.3125,0.6875
0.6250000000000004,-3.0,-5.0,-9.0,-2.0,-4.0,-2.0,-2.0,-4.0,-0.16436767578125,0.20343017578125,0.24493408203125,0.93353271484375,-0.46875,-0.20263671875,0.88232421875,0.0625,0.3125,0.6875
0.6300000000000004,-4.0,-10.0,-15.0,-12.0,-7.0,-2.0,-2.0,-2.0,-0.16436767578125,0.20343017578125,0.24493408203125,0.93353271484375,-0.46875,-0.20263671875,0.88232421875,0.0625,0.3125,0.6875
0.6350000000000005,-4.0,-10.0,-15.0,-12.0,-7.0,-2.0,-2.0,-2.0,-0.16436767578125,0.20343017578125,0.24493408203125,0.93353271484375,-0.46875,-0.20263671875,0.88232421875,0.0625,0.3125,0.6875
0.6400000000000005,1.0,1.0,3.0,-9.0,-11.0,-3.0,-1.0,0.0,-0.16436767578125,0.20343017578125,0.24493408203125,0.93359375,-0.462890625,-0.2099609375,0.87841796875,0.375,-0.125,0.8125
0.6450000000000005,-2.0,-2.0,7.0,-1.0,0.0,-3.0,-3.0,-2.0,-0.16387939453125,0.2034912109375,0.2451171875,0.93359375,-0.46728515625,-0.20458984375,0.876953125,1.0625,0.125,0.5625
0.6500000000000005,-2.0,-2.0,7.0,-1.0,0.0,-3.0,-3.0,-2.0,-0.16387939453125,0.2034912109375,0.2451171875,0.93359375,-0.46728515625,-0.20458984375,0.876953125,1.0625,0.125,0.5625
0.6550000000000005,0.0,-2.0,1.0,2.0,-4.0,-1.0,1.0,-1.0,-0.16387939453125,0.2034912109375,0.2451171875,0.93359375,-0.46728515625,-0.20458984375,0.876953125,1.0625,0.125,0.5625
0.6600000000000005,2.0,7.0,12.0,2.0,-2.0,0.0,-3.0,-4.0,-0.16387939453125,0.2034912109375,0.2451171875,0.93359375,-0.46142578125,-0.20654296875,0.88134765625,-0.3125,0.25,0.875
0.6650000000000005,1.0,0.0,15.0,-12.0,-12.0,-3.0,0.0,-2.0,-0.163818359375,0.20355224609375,0.24530029296875,0.93353271484375,-0.466796875,-0.2080078125,0.88232421875,-0.25,0.375,1.0625
0.6700000000000005,-7.0,-13.0,-3.0,-3.0,-1.0,-3.0,1.0,-2.0,-0.163818359375,0.20355224609375,0.24530029296875,0.93353271484375,-0.4677734375,-0.20947265625,0.88037109375,0.625,0.1875,0.875
0.6750000000000005,0.0,-1.0,-2.0,-1.0,3.0,0.0,0.0,0.0,-0.163818359375,0.20355224609375,0.24530029296875,0.93353271484375,-0.4677734375,-0.20947265625,0.88037109375,0.625,0.1875,0.875
0.6800000000000005,-1.0,1.0,-15.0,-4.0,-4.0,-3.0,-4.0,0.0,-0.163818359375,0.20355224609375,0.24530029296875,0.93353271484375,-0.4677734375,-0.20947265625,0.88037109375,0.625,0.1875,0.875
0.6850000000000005,-1.0,1.0,-15.0,-4.0,-4.0,-3.0,-4.0,0.0,-0.163818359375,0.20355224609375,0.24530029296875,0.93353271484375,-0.47021484375,-0.20458984375,0.880859375,0.9375,-0.1875,0.875
0.6900000000000005,3.0,7.0,7.0,14.0,9.0,3.0,0.0,0.0,-0.163818359375,0.20355224609375,0.24530029296875,0.93353271484375,-0.47021484375,-0.20458984375,0.880859375,0.9375,-0.1875,0.875
0.6950000000000005,-1.0,6.0,-9.0,-5.0,-5.0,-4.0,-2.0,-2.0,-0.163818359375,0.20355224609375,0.24530029296875,0.93353271484375,-0.47216796875,-0.1982421875,0.876953125,-0.1875,-0.3125,0.25
0.7000000000000005,-2.0,-3.0,20.0,-8.0,0.0,-1.0,0.0,-2.0,-0.163818359375,0.20355224609375,0.24530029296875,0.93353271484375,-0.47216796875,-0.1982421875,0.876953125,-0.1875,-0.3125,0.25
0.7050000000000005,-2.0,-8.0,-5.0,-2.0,0.0,-1.0,2.0,-2.0,-0.16375732421875,0.20355224609375,0.24530029296875,0.93353271484375,-0.46630859375,-0.201171875,0.88427734375,0.1875,0.0,0.25
0.7100000000000005,-1.0,1.0,-12.0,-2.0,-3.0,0.0,-2.0,-1.0,-0.16375732421875,0.20355224609375,0.24530029296875,0.93353271484375,-0.46630859375,-0.201171875,0.88427734375,0.1875,0.0,0.25
0.7150000000000005,-1.0,1.0,-12.0,-2.0,-3.0,0.0,-2.0,-1.0,-0.16375732421875,0.20355224609375,0.24530029296875,0.93353271484375,-0.474609375,-0.2021484375,0.87841796875,-0.0625,-0.0625,-0.125
0.7200000000000005,-1.0,1.0,-12.0,-2.0,-3.0,0.0,-2.0,-1.0,-0.16375732421875,0.20355224609375,0.24530029296875,0.93353271484375,-0.474609375,-0.2021484375,0.87841796875,-0.0625,-0.0625,-0.125
0.7250000000000005,1.0,10.0,-2.0,-2.0,3.0,1.0,-2.0,0.0,-0.16375732421875,0.20361328125,0.24530029296875,0.93353271484375,-0.47802734375,-0.20166015625,0.87353515625,0.125,-0.125,-0.375
0.7300000000000005,1.0,5.0,2.0,8.0,1.0,-1.0,-2.0,0.0,-0.16375732421875,0.20361328125,0.24530029296875,0.93353271484375,-0.47802734375,-0.20166015625,0.87353515625,0.125,-0.125,-0.375
0.7350000000000005,1.0,5.0,2.0,8.0,1.0,-1.0,-2.0,0.0,-0.1636962890625,0.20361328125,0.24530029296875,0.93353271484375,-0.47119140625,-0.20458984375,0.87255859375,-0.5625,0.125,-0.5625
0.7400000000000005,1.0,3.0,9.0,-1.0,-1.0,-2.0,-1.0,-2.0,-0.1636962890625,0.20361328125,0.24530029296875,0.93353271484375,-0.47119140625,-0.20458984375,0.87255859375,-0.5625,0.125,-0.5625
0.7450000000000006,-1.0,-2.0,-12.0,-3.0,6.0,-1.0,-3.0,-2.0,-0.1636962890625,0.20361328125,0.24530029296875,0.93353271484375,-0.47119140625,-0.20458984375,0.87255859375,-0.5625,0.125,-0.5625
0.7500000000000006,-1.0,-2.0,-12.0,-3.0,6.0,-1.0,-3.0,-2.0,-0.16375732421875,0.20361328125,0.24530029296875,0.93353271484375,-0.47412109375,-0.21337890625,0.880859375,-0.0625,0.1875,-0.875
0.7550000000000006,-2.0,2.0,-12.0,0.0,2.0,1.0,-2.0,0.0,-0.16375732421875,0.20361328125,0.24530029296875,0.93353271484375,-0.47412109375,-0.21337890625,0.880859375,-0.0625,0.1875,-0.875
0.7600000000000006,-1.0,-3.0,0.0,-6.0,-6.0,-2.0,-1.0,0.0,-0.16375732421875,0.20361328125,0.24530029296875,0.93353271484375,-0.47412109375,-0.21337890625,0.880859375,-0.0625,0.1875,-0.875
0.7650000000000006,0.0,-3.0,2.0,-4.0,-4.0,1.0,-1.0,-1.0,-0.163818359375,0.20355224609375,0.2451171875,0.93359375,-0.462890625,-0.20849609375,0.87548828125,-0.3125,0.0625,-1.375
0.7700000000000006,0.0,-2.0,-3.0,-2.0,-3.0,-1.0,-2.0,1.0,-0.163818359375,0.2034912109375,0.244873046875,0.93365478515625,-0.4619140625,-0.1953125,0.873046875,-0.5625,0.0,-1.75
0.7750000000000006,0.0,-2.0,-3.0,-2.0,-3.0,-1.0,-2.0,1.0,-0.163818359375,0.2034912109375,0.244873046875,0.93365478515625,-0.4619140625,-0.1953125,0.873046875,-0.5625,0.0,-1.75
0.7800000000000006,-1.0,-4.0,-5.0,8.0,7.0,1.0,-1.0,-1.0,-0.163818359375,0.2034912109375,0.244873046875,0.93365478515625,-0.4619140625,-0.1953125,0.873046875,-0.5625,0.0,-1.75
0.7850000000000006,1.0,2.0,3.0,0.0,-4.0,-1.0,-1.0,-1.0,-0.16424560546875,0.203369140625,0.244873046875,0.93359375,-0.466796875,-0.20361328125,0.88037109375,-3.0,0.0,-1.0625
0.7900000000000006,1.0,2.0,3.0,0.0,-4.0,-1.0,-1.0,-1.0,-0.16455078125,0.20306396484375,0.24481201171875,0.93365478515625,-0.458984375,-0.224609375,0.88232421875,-1.1875,-0.3125,-0.4375
0.7950000000000006,-2.0,0.0,-7.0,-2.0,-2.0,-1.0,-1.0,0.0,-0.16455078125,0.20306396484375,0.24481201171875,0.93365478515625,-0.458984375,-0.224609375,0.88232421875,-1.1875,-0.3125,-0.4375
0.8000000000000006,-2.0,0.0,-7.0,-2.0,-2.0,-1.0,-1.0,0.0,-0.16436767578125,0.20306396484375,0.244384765625,0.93377685546875,-0.47119140625,-0.2138671875,0.8798828125,1.4375,-0.375,-2.125
0.8050000000000006,-1.0,2.0,-2.0,-1.0,-4.0,-1.0,0.0,-1.0,-0.16436767578125,0.20306396484375,0.244384765625,0.93377685546875,-0.47119140625,-0.2138671875,0.8798828125,1.4375,-0.375,-2.125
0.8100000000000006,0.0,0.0,4.0,-5.0,-2.0,-1.0,-2.0,-2.0,-0.16436767578125,0.20306396484375,0.244384765625,0.93377685546875,-0.47119140625,-0.2138671875,0.8798828125,1.4375,-0.375,-2.125
0.8150000000000006,0.0,0.0,4.0,-5.0,-2.0,-1.0,-2.0,-2.0,-0.164306640625,0.203125,0.24407958984375,0.93389892578125,-0.47607421875,-0.19921875,0.880859375,0.1875,-0.1875,-2.375
0.8200000000000006,-1.0,-1.0,-6.0,7.0,9.0,1.0,-1.0,0.0,-0.164306640625,0.203125,0.24407958984375,0.93389892578125,-0.47607421875,-0.19921875,0.880859375,0.1875,-0.1875,-2.375
0.8250000000000006,-1.0,-1.0,-6.0,7.0,9.0,1.0,-1.0,0.0,-0.164306640625,0.203125,0.24407958984375,0.93389892578125,-0.47607421875,-0.19921875,0.880859375,0.1875,-0.1875,-2.375
0.8300000000000006,2.0,4.0,11.0,-3.0,-7.0,-2.0,2.0,0.0,-0.16473388671875,0.202880859375,0.24383544921875,0.93389892578125,-0.470703125,-0.20947265625,0.88330078125,-2.5,-0.3125,-2.1875
0.8350000000000006,-2.0,-5.0,-4.0,-4.0,-1.0,-1.0,-10.0,-1.0,-0.16473388671875,0.202880859375,0.24383544921875,0.93389892578125,-0.470703125,-0.20947265625,0.88330078125,-2.5,-0.3125,-2.1875
0.8400000000000006,-2.0,-6.0,3.0,3.0,-2.0,-4.0,-5.0,0.0,-0.16522216796875,0.2025146484375,0.24359130859375,0.9339599609375,-0.46044921875,-0.21826171875,0.8857421875,-2.9375,-0.5,-2.125
0.8450000000000006,1.0,3.0,8.0,-9.0,-7.0,-1.0,0.0,0.0,-0.16534423828125,0.2022705078125,0.24322509765625,0.93408203125,-0.45947265625,-0.21337890625,0.88427734375,-0.625,-0.6875,-2.3125
0.8500000000000006,1.0,3.0,8.0,-9.0,-7.0,-1.0,0.0,0.0,-0.16534423828125,0.2022705078125,0.24322509765625,0.93408203125,-0.45947265625,-0.21337890625,0.88427734375,-0.625,-0.6875,-2.3125
0.8550000000000006,-1.0,-3.0,-15.0,-2.0,-6.0,-1.0,-1.0,-1.0,-0.16546630859375,0.20208740234375,0.242919921875,0.9342041015625,-0.4619140625,-0.2119140625,0.88525390625,-0.875,-0.125,-2.3125
0.8600000000000007,-4.0,-10.0,-13.0,-4.0,-2.0,-5.0,-1.0,-3.0,-0.16571044921875,0.20196533203125,0.24273681640625,0.9342041015625,-0.46240234375,-0.21044921875,0.892578125,-1.6875,0.6875,-1.5
0.8650000000000007,-1.0,-2.0,1.0,6.0,0.0,0.0,-2.0,-1.0,-0.16571044921875,0.20196533203125,0.24273681640625,0.9342041015625,-0.46240234375,-0.21044921875,0.892578125,-1.6875,0.6875,-1.5
0.8700000000000007,0.0,1.0,0.0,-5.0,-8.0,-1.0,1.0,-2.0,-0.1661376953125,0.201904296875,0.2425537109375,0.9342041015625,-0.46484375,-0.2109375,0.89111328125,-2.75,0.6875,-1.625
0.8750000000000007,1.0,-2.0,13.0,11.0,8.0,0.0,2.0,1.0,-0.1661376953125,0.201904296875,0.2425537109375,0.9342041015625,-0.46484375,-0.2109375,0.89111328125,-2.75,0.6875,-1.625
0.8800000000000007,-4.0,-1.0,-3.0,-11.0,-6.0,-5.0,-2.0,-1.0,-0.166748046875,0.2017822265625,0.2423095703125,0.9342041015625,-0.4599609375,-0.205078125,0.8828125,-4.0,0.875,-2.25
0.8850000000000007,-2.0,-5.0,-13.0,-3.0,-1.0,0.0,-3.0,-3.0,-0.16754150390625,0.20166015625,0.24212646484375,0.93414306640625,-0.455078125,-0.2119140625,0.8798828125,-4.6875,1.5,-2.1875
0.8900000000000007,-2.0,-5.0,-13.0,-3.0,-1.0,0.0,-3.0,-3.0,-0.16754150390625,0.20166015625,0.24212646484375,0.93414306640625,-0.455078125,-0.2119140625,0.8798828125,-4.6875,1.5,-2.1875
0.8950000000000007,-1.0,3.0,6.0,2.0,-4.0,0.0,0.0,-2.0,-0.16754150390625,0.20166015625,0.24212646484375,0.93414306640625,-0.455078125,-0.2119140625,0.8798828125,-4.6875,1.5,-2.1875
0.9000000000000007,-1.0,3.0,6.0,2.0,-4.0,0.0,0.0,-2.0,-0.16754150390625,0.20166015625,0.24212646484375,0.93414306640625,-0.455078125,-0.2119140625,0.8798828125,-4.6875,1.5,-2.1875
0.9050000000000007,3.0,1.0,-2.0,0.0,1.0,0.0,-2.0,-2.0,-0.1685791015625,0.2017822265625,0.24188232421875,0.9339599609375,-0.45849609375,-0.21337890625,0.87255859375,-5.625,3.0,-2.3125
0.9100000000000007,3.0,1.0,-2.0,0.0,1.0,0.0,-2.0,-2.0,-0.1685791015625,0.2017822265625,0.24188232421875,0.9339599609375,-0.45849609375,-0.21337890625,0.87255859375,-5.625,3.0,-2.3125
0.9150000000000007,0.0,-7.0,-7.0,-2.0,1.0,-1.0,-1.0,-2.0,-0.16973876953125,0.2020263671875,0.24151611328125,0.93377685546875,-0.466796875,-0.2216796875,0.8779296875,-6.0,3.625,-2.6875
0.9200000000000007,-6.0,-10.0,-3.0,-20.0,-13.0,-3.0,0.0,-3.0,-0.16973876953125,0.2020263671875,0.24151611328125,0.93377685546875,-0.466796875,-0.2216796875,0.8779296875,-6.0,3.625,-2.6875
0.9250000000000007,-6.0,-10.0,-3.0,-20.0,-13.0,-3.0,0.0,-3.0,-0.1708984375,0.202392578125,0.2412109375,0.93359375,-0.47900390625,-0.224609375,0.875,-5.6875,3.5625,-2.8125
0.9300000000000007,-1.0,4.0,1.0,1.0,1.0,2.0,0.0,-1.0,-0.1708984375,0.202392578125,0.2412109375,0.93359375,-0.47900390625,-0.224609375,0.875,-5.6875,3.5625,-2.8125
0.9350000000000007,-2.0,-1.0,5.0,0.0,0.0,0.0,1.0,1.0,-0.17236328125,0.20281982421875,0.2408447265625,0.93328857421875,-0.478515625,-0.2314453125,0.8720703125,-6.875,4.1875,-2.8125
0.9400000000000007,-1.0,-2.0,-4.0,1.0,9.0,1.0,0.0,1.0,-0.17236328125,0.20281982421875,0.2408447265625,0.93328857421875,-0.478515625,-0.2314453125,0.8720703125,-6.875,4.1875,-2.8125
0.9450000000000007,-1.0,-2.0,-4.0,1.0,9.0,1.0,0.0,1.0,-0.17236328125,0.20281982421875,0.2408447265625,0.93328857421875,-0.478515625,-0.2314453125,0.8720703125,-6.875,4.1875,-2.8125
0.9500000000000007,0.0,-1.0,-2.0,-8.0,-11.0,-5.0,-1.0,0.0,-0.17376708984375,0.20318603515625,0.240478515625,0.93304443359375,-0.474609375,-0.236328125,0.87353515625,-6.5625,4.375,-2.875
0.9550000000000007,0.0,2.0,-5.0,0.0,6.0,2.0,-1.0,-2.0,-0.17510986328125,0.20367431640625,0.24005126953125,0.93280029296875,-0.47802734375,-0.244140625,0.86767578125,-5.5,4.5625,-2.625
0.9600000000000007,0.0,2.0,-5.0,0.0,6.0,2.0,-1.0,-2.0,-0.17510986328125,0.20367431640625,0.24005126953125,0.93280029296875,-0.47802734375,-0.244140625,0.86767578125,-5.5,4.5625,-2.625
0.9650000000000007,0.0,-8.0,-15.0,-4.0,-3.0,-1.0,-5.0,0.0,-0.176025390625,0.2042236328125,0.23968505859375,0.9326171875,-0.48095703125,-0.24462890625,0.87109375,-3.5625,4.4375,-2.125
0.9700000000000008,0.0,-8.0,-15.0,-4.0,-3.0,-1.0,-5.0,0.0,-0.176025390625,0.2042236328125,0.23968505859375,0.9326171875,-0.48095703125,-0.24462890625,0.87109375,-3.5625,4.4375,-2.125
0.9750000000000008,-1.0,9.0,-5.0,-4.0,-3.0,-2.0,-1.0,-3.0,-0.1767578125,0.20465087890625,0.239501953125,0.93243408203125,-0.4833984375,-0.24365234375,0.87255859375,-2.625,3.3125,-1.25
0.9800000000000008,-1.0,2.0,10.0,-11.0,-11.0,-1.0,0.0,0.0,-0.1773681640625,0.2049560546875,0.2393798828125,0.93231201171875,-0.47509765625,-0.25244140625,0.8642578125,-2.125,2.6875,-0.375
0.9850000000000008,-2.0,6.0,5.0,2.0,-2.0,1.0,0.0,0.0,-0.1773681640625,0.2049560546875,0.2393798828125,0.93231201171875,-0.47509765625,-0.25244140625,0.8642578125,-2.125,2.6875,-0.375
0.9900000000000008,-2.0,6.0,5.0,2.0,-2.0,1.0,0.0,0.0,-0.17755126953125,0.20513916015625,0.2393798828125,0.93218994140625,-0.466796875,-0.2490234375,0.87841796875,-0.375,2.125,0.5625
0.9950000000000008,2.0,-1.0,1.0,0.0,1.0,-3.0,-1.0,0.0,-0.17755126953125,0.20513916015625,0.2393798828125,0.93218994140625,-0.466796875,-0.2490234375,0.87841796875,-0.375,2.125,0.5625
1.0000000000000007,2.0,-1.0,1.0,0.0,1.0,-3.0,-1.0,0.0,-0.17767333984375,0.2052001953125,0.239501953125,0.93212890625,-0.4609375,-0.24169921875,0.87841796875,-0.4375,1.625,1.1875
1.0050000000000006,-1.0,6.0,-9.0,2.0,5.0,-3.0,-1.0,0.0,-0.17767333984375,0.2052001953125,0.239501953125,0.93212890625,-0.4609375,-0.24169921875,0.87841796875,-0.4375,1.625,1.1875
1.0100000000000005,-1.0,6.0,-9.0,2.0,5.0,-3.0,-1.0,0.0,-0.1776123046875,0.20526123046875,0.2398681640625,0.93206787109375,-0.462890625,-0.23486328125,0.87841796875,-0.5,1.375,2.25
1.0150000000000003,0.0,-2.0,14.0,2.0,-2.0,0.0,-3.0,-2.0,-0.1776123046875,0.20526123046875,0.2398681640625,0.93206787109375,-0.462890625,-0.23486328125,0.87841796875,-0.5,1.375,2.25
1.0200000000000002,-2.0,8.0,-12.0,-4.0,-2.0,0.0,-2.0,-1.0,-0.1776123046875,0.20526123046875,0.2398681640625,0.93206787109375,-0.462890625,-0.23486328125,0.87841796875,-0.5,1.375,2.25
1.0250000000000001,-3.0,-1.0,-5.0,-7.0,-8.0,-2.0,0.0,-2.0,-0.177734375,0.2054443359375,0.24041748046875,0.93182373046875,-0.470703125,-0.2314453125,0.87158203125,-1.75,1.0625,3.1875
1.03,-1.0,3.0,-1.0,8.0,6.0,-2.0,-1.0,-1.0,-0.1778564453125,0.20562744140625,0.24090576171875,0.931640625,-0.47216796875,-0.2333984375,0.8671875,-1.5,1.125,2.9375
1.035,-1.0,-10.0,-9.0,-4.0,-6.0,0.0,-1.0,0.0,-0.177978515625,0.20574951171875,0.24139404296875,0.93145751953125,-0.48095703125,-0.232421875,0.8759765625,-1.5,0.9375,2.5
1.0399999999999998,-4.0,-8.0,-20.0,-6.0,-8.0,0.0,-3.0,-4.0,-0.177978515625,0.20574951171875,0.24139404296875,0.93145751953125,-0.48095703125,-0.232421875,0.8759765625,-1.5,0.9375,2.5
1.0449999999999997,2.0,4.0,1.0,12.0,6.0,1.0,-1.0,-3.0,-0.1781005859375,0.20599365234375,0.24176025390625,0.9312744140625,-0.48583984375,-0.2265625,0.86572265625,-1.5625,0.8125,1.75
1.0499999999999996,0.0,3.0,0.0,-3.0,-1.0,-2.0,-3.0,-1.0,-0.1781005859375,0.20599365234375,0.24176025390625,0.9312744140625,-0.48583984375,-0.2265625,0.86572265625,-1.5625,0.8125,1.75
1.0549999999999995,0.0,3.0,0.0,-3.0,-1.0,-2.0,-3.0,-1.0,-0.1781005859375,0.20599365234375,0.24176025390625,0.9312744140625,-0.48583984375,-0.2265625,0.86572265625,-1.5625,0.8125,1.75
1.0599999999999994,-1.0,-3.0,-2.0,-3.0,-1.0,-2.0,-1.0,-2.0,-0.1783447265625,0.20623779296875,0.2420654296875,0.93109130859375,-0.48486328125,-0.22509765625,0.861328125,-2.25,1.0,1.4375
1.0649999999999993,-1.0,-3.0,-2.0,-3.0,-1.0,-2.0,-1.0,-2.0,-0.1788330078125,0.20648193359375,0.2423095703125,0.930908203125,-0.48828125,-0.23583984375,0.86279296875,-2.8125,1.1875,1.0
1.0699999999999992,1.0,0.0,0.0,-1.0,-6.0,1.0,1.0,-1.0,-0.1788330078125,0.20648193359375,0.2423095703125,0.930908203125,-0.48828125,-0.23583984375,0.86279296875,-2.8125,1.1875,1.0
1.074999999999999,-1.0,9.0,11.0,0.0,-2.0,0.0,-1.0,1.0,-0.1788330078125,0.20648193359375,0.2423095703125,0.930908203125,-0.48828125,-0.23583984375,0.86279296875,-2.8125,1.1875,1.0
1.079999999999999,-1.0,9.0,11.0,0.0,-2.0,0.0,-1.0,1.0,-0.17919921875,0.20672607421875,0.24237060546875,0.9307861328125,-0.48876953125,-0.2431640625,0.861328125,-1.625,1.1875,0.5625
1.0849999999999989,-1.0,9.0,11.0,0.0,-2.0,0.0,-1.0,1.0,-0.17919921875,0.20672607421875,0.24237060546875,0.9307861328125,-0.48876953125,-0.2431640625,0.861328125,-1.625,1.1875,0.5625
1.0899999999999987,-2.0,-6.0,-2.0,-1.0,1.0,0.0,0.0,-2.0,-0.17919921875,0.20672607421875,0.24237060546875,0.9307861328125,-0.48876953125,-0.2431640625,0.861328125,-1.625,1.1875,0.5625
1.0949999999999986,-2.0,-6.0,-2.0,-1.0,1.0,0.0,0.0,-2.0,-0.17919921875,0.20672607421875,0.24237060546875,0.9307861328125,-0.48876953125,-0.2431640625,0.861328125,-1.625,1.1875,0.5625
1.0999999999999985,-3.0,-7.0,-7.0,-1.0,1.0,0.0,-1.0,1.0,-0.179443359375,0.20703125,0.2423095703125,0.9306640625,-0.49609375,-0.24365234375,0.859375,-0.375,1.125,-0.3125
1.1049999999999984,-3.0,-7.0,-7.0,-1.0,1.0,0.0,-1.0,1.0,-0.179443359375,0.20703125,0.2423095703125,0.9306640625,-0.4921875,-0.2392578125,0.8662109375,-0.3125,0.75,-0.125
1.1099999999999983,-2.0,0.0,1.0,-4.0,-1.0,-3.0,-2.0,-2.0,-0.179443359375,0.20703125,0.2423095703125,0.9306640625,-0.4921875,-0.2392578125,0.8662109375,-0.3125,0.75,-0.125
1.1149999999999982,2.0,7.0,13.0,-3.0,-11.0,-3.0,-2.0,0.0,-0.179443359375,0.20703125,0.2423095703125,0.9306640625,-0.4921875,-0.2392578125,0.8662109375,-0.3125,0.75,-0.125
1.119999999999998,2.0,7.0,13.0,-3.0,-11.0,-3.0,-2.0,0.0,-0.179443359375,0.20709228515625,0.2423095703125,0.9306640625,-0.484375,-0.23876953125,0.861328125,-1.0,0.5,-0.25
1.124999999999998,0.0,-2.0,-6.0,7.0,7.0,0.0,1.0,0.0,-0.179443359375,0.20709228515625,0.2423095703125,0.9306640625,-0.484375,-0.23876953125,0.861328125,-1.0,0.5,-0.25
1.129999999999998,0.0,5.0,18.0,3.0,0.0,-1.0,1.0,-1.0,-0.179443359375,0.20709228515625,0.2423095703125,0.9306640625,-0.484375,-0.23876953125,0.861328125,-1.0,0.5,-0.25
1.1349999999999978,-1.0,-6.0,-4.0,-4.0,0.0,-1.0,-1.0,-1.0,-0.179443359375,0.20703125,0.2423095703125,0.9306640625,-0.47802734375,-0.2431640625,0.8681640625,0.1875,0.4375,0.125
1.1399999999999977,-2.0,1.0,-3.0,2.0,-1.0,-1.0,-1.0,-1.0,-0.179443359375,0.20703125,0.2423095703125,0.9306640625,-0.47119140625,-0.2392578125,0.85986328125,0.875,0.0,0.5625
1.1449999999999976,1.0,-5.0,-7.0,3.0,3.0,-2.0,-1.0,-2.0,-0.179443359375,0.20703125,0.2423095703125,0.9306640625,-0.47119140625,-0.2392578125,0.85986328125,0.875,0.0,0.5625
1.1499999999999975,-5.0,-17.0,-28.0,-7.0,0.0,-2.0,-2.0,-2.0,-0.17913818359375,0.20684814453125,0.242431640625,0.93072509765625,-0.46923828125,-0.2373046875,0.876953125,1.25,-0.5,0.8125
1.1549999999999974,-5.0,-17.0,-28.0,-7.0,0.0,-2.0,-2.0,-2.0,-0.17913818359375,0.20684814453125,0.242431640625,0.93072509765625,-0.46923828125,-0.2373046875,0.876953125,1.25,-0.5,0.8125
1.1599999999999973,3.0,11.0,8.0,9.0,8.0,-2.0,-1.0,2.0,-0.17889404296875,0.20660400390625,0.24267578125,0.9307861328125,-0.47607421875,-0.23681640625,0.86962890625,0.5625,-1.625,1.4375
1.1649999999999971,-2.0,2.0,1.0,-5.0,0.0,-1.0,-1.0,-3.0,-0.17864990234375,0.206298828125,0.24310302734375,0.9307861328125,-0.4755859375,-0.23193359375,0.8662109375,0.0,-2.4375,1.9375
1.169999999999997,0.0,3.0,10.0,-6.0,-16.0,-1.0,-1.0,0.0,-0.17864990234375,0.206298828125,0.24310302734375,0.9307861328125,-0.4755859375,-0.23193359375,0.8662109375,0.0,-2.4375,1.9375
1.174999999999997,-2.0,3.0,2.0,-1.0,-6.0,-1.0,-2.0,-2.0,-0.17852783203125,0.20599365234375,0.2435302734375,0.9307861328125,-0.47802734375,-0.23291015625,0.8623046875,-0.5,-2.3125,1.9375
1.1799999999999968,-1.0,-1.0,-3.0,-6.0,1.0,0.0,-2.0,-2.0,-0.17852783203125,0.20599365234375,0.2435302734375,0.9307861328125,-0.47802734375,-0.23291015625,0.8623046875,-0.5,-2.3125,1.9375
1.1849999999999967,-2.0,-4.0,-6.0,0.0,-3.0,0.0,-1.0,-1.0,-0.17852783203125,0.20599365234375,0.2435302734375,0.9307861328125,-0.47802734375,-0.23291015625,0.8623046875,-0.5,-2.3125,1.9375
1.1899999999999966,-2.0,-4.0,-1.0,2.0,11.0,10.0,1.0,-3.0,-0.17852783203125,0.205810546875,0.24383544921875,0.93072509765625,-0.48486328125,-0.23974609375,0.86328125,-0.4375,-1.6875,1.6875
1.1949999999999965,-2.0,2.0,2.0,-3.0,-4.0,-4.0,1.0,0.0,-0.1787109375,0.2056884765625,0.244140625,0.9306640625,-0.48681640625,-0.23388671875,0.8701171875,-1.8125,-1.0625,0.9375
1.1999999999999964,0.0,1.0,3.0,1.0,-1.0,-4.0,0.0,0.0,-0.1787109375,0.2056884765625,0.244140625,0.9306640625,-0.48681640625,-0.23388671875,0.8701171875,-1.8125,-1.0625,0.9375
1.2049999999999963,0.0,1.0,3.0,1.0,-1.0,-4.0,0.0,0.0,-0.1787109375,0.2056884765625,0.244140625,0.9306640625,-0.48681640625,-0.23388671875,0.8701171875,-1.8125,-1.0625,0.9375
1.2099999999999962,-1.0,-2.0,0.0,0.0,3.0,1.0,-2.0,-1.0,-0.1787109375,0.2056884765625,0.244140625,0.9306640625,-0.48681640625,-0.23388671875,0.8701171875,-1.8125,-1.0625,0.9375
1.214999999999996,-1.0,-2.0,0.0,0.0,3.0,1.0,-2.0,-1.0,-0.1790771484375,0.20550537109375,0.244384765625,0.9305419921875,-0.4873046875,-0.23681640625,0.869140625,-2.8125,-0.8125,0.75
1.219999999999996,-3.0,-2.0,4.0,7.0,3.0,-1.0,-2.0,-1.0,-0.1790771484375,0.20550537109375,0.244384765625,0.9305419921875,-0.4873046875,-0.23681640625,0.869140625,-2.8125,-0.8125,0.75
1.2249999999999959,-3.0,-2.0,4.0,7.0,3.0,-1.0,-2.0,-1.0,-0.17938232421875,0.20538330078125,0.24468994140625,0.930419921875,-0.48291015625,-0.24072265625,0.869140625,-2.125,-0.6875,1.1875
1.2299999999999958,0.0,0.0,-24.0,-10.0,-2.0,-2.0,-2.0,-1.0,-0.179443359375,0.20526123046875,0.24493408203125,0.93035888671875,-0.47607421875,-0.24267578125,0.86474609375,-0.4375,-0.625,1.3125
1.2349999999999957,-3.0,-4.0,-2.0,-5.0,-8.0,-4.0,-1.0,0.0,-0.179443359375,0.20526123046875,0.24493408203125,0.93035888671875,-0.47607421875,-0.24267578125,0.86474609375,-0.4375,-0.625,1.3125
1.2399999999999956,-1.0,-4.0,-1.0,-3.0,1.0,1.0,-1.0,1.0,-0.179443359375,0.20526123046875,0.24493408203125,0.93035888671875,-0.47607421875,-0.24267578125,0.86474609375,-0.4375,-0.625,1.3125
1.2449999999999954,-1.0,1.0,1.0,-2.0,-5.0,-5.0,-1.0,1.0,-0.17926025390625,0.20513916015625,0.2451171875,0.93035888671875,-0.4658203125,-0.23779296875,0.8701171875,0.3125,-0.1875,1.3125
1.2499999999999953,0.0,-3.0,5.0,3.0,-2.0,1.0,-1.0,-1.0,-0.17926025390625,0.20513916015625,0.2451171875,0.93035888671875,-0.4658203125,-0.23779296875,0.8701171875,0.3125,-0.1875,1.3125
1.2549999999999952,0.0,-3.0,5.0,3.0,-2.0,1.0,-1.0,-1.0,-0.17926025390625,0.20513916015625,0.2451171875,0.930419921875,-0.4560546875,-0.22314453125,0.87451171875,-0.125,-0.0625,0.875
1.2599999999999951,-1.0,1.0,-1.0,-1.0,-1.0,-1.0,0.0,1.0,-0.17913818359375,0.20489501953125,0.24542236328125,0.930419921875,-0.45849609375,-0.22705078125,0.8759765625,-0.8125,-0.125,1.3125
1.264999999999995,-2.0,-10.0,-7.0,-7.0,-1.0,2.0,0.0,0.0,-0.17913818359375,0.20489501953125,0.24542236328125,0.930419921875,-0.45849609375,-0.22705078125,0.8759765625,-0.8125,-0.125,1.3125
1.269999999999995,-1.0,10.0,11.0,-2.0,-3.0,-3.0,-3.0,-3.0,-0.17913818359375,0.2047119140625,0.2457275390625,0.93035888671875,-0.46142578125,-0.224609375,0.880859375,-1.8125,0.0,1.5
1.2749999999999948,-3.0,-1.0,-3.0,-5.0,-4.0,-4.0,-3.0,-2.0,-0.17913818359375,0.2047119140625,0.2457275390625,0.93035888671875,-0.46142578125,-0.224609375,0.880859375,-1.8125,0.0,1.5
1.2799999999999947,-3.0,-1.0,-3.0,-5.0,-4.0,-4.0,-3.0,-2.0,-0.17926025390625,0.20452880859375,0.24603271484375,0.9302978515625,-0.46484375,-0.23193359375,0.87451171875,-1.75,-0.1875,1.375
1.2849999999999946,-3.0,-1.0,-3.0,-5.0,-4.0,-4.0,-3.0,-2.0,-0.17926025390625,0.20452880859375,0.24603271484375,0.9302978515625,-0.46484375,-0.23193359375,0.87451171875,-1.75,-0.1875,1.375
1.2899999999999945,0.0,3.0,6.0,3.0,-4.0,-3.0,-1.0,1.0,-0.17938232421875,0.20440673828125,0.246337890625,0.93023681640625,-0.470703125,-0.22412109375,0.8720703125,-2.0625,0.0,0.9375
1.2949999999999944,1.0,-1.0,-12.0,-2.0,3.0,1.0,1.0,-1.0,-0.17938232421875,0.20440673828125,0.246337890625,0.93023681640625,-0.470703125,-0.22412109375,0.8720703125,-2.0625,0.0,0.9375
1.2999999999999943,1.0,-1.0,-12.0,-2.0,3.0,1.0,1.0,-1.0,-0.179931640625,0.20440673828125,0.2464599609375,0.9300537109375,-0.47412109375,-0.232421875,0.86376953125,-3.625,0.875,0.25
1.3049999999999942,0.0,-2.0,-3.0,3.0,1.0,-1.0,-1.0,-1.0,-0.179931640625,0.20440673828125,0.2464599609375,0.9300537109375,-0.47412109375,-0.232421875,0.86376953125,-3.625,0.875,0.25
1.309999999999994,-2.0,6.0,16.0,-5.0,-6.0,-5.0,0.0,-2.0,-0.179931640625,0.20440673828125,0.2464599609375,0.9300537109375,-0.47412109375,-0.232421875,0.86376953125,-3.625,0.875,0.25
1.314999999999994,-2.0,6.0,16.0,-5.0,-6.0,-5.0,0.0,-2.0,-0.1806640625,0.20452880859375,0.24652099609375,0.92987060546875,-0.4833984375,-0.232421875,0.8681640625,-4.4375,1.625,-0.5625
1.3199999999999938,0.0,2.0,-10.0,4.0,-1.0,-1.0,-1.0,0.0,-0.1806640625,0.20452880859375,0.24652099609375,0.92987060546875,-0.4833984375,-0.232421875,0.8681640625,-4.4375,1.625,-0.5625
1.3249999999999937,0.0,3.0,2.0,3.0,4.0,0.0,-1.0,-1.0,-0.1815185546875,0.20465087890625,0.24639892578125,0.92974853515625,-0.48046875,-0.2412109375,0.869140625,-4.6875,2.3125,-1.5
1.3299999999999936,-1.0,1.0,-1.0,-4.0,-1.0,-1.0,-1.0,-2.0,-0.182373046875,0.20489501953125,0.24603271484375,0.9295654296875,-0.4755859375,-0.2451171875,0.86865234375,-3.875,3.1875,-2.25
1.3349999999999935,-1.0,1.0,-1.0,-4.0,-1.0,-1.0,-1.0,-2.0,-0.182373046875,0.20489501953125,0.24603271484375,0.9295654296875,-0.4755859375,-0.2451171875,0.86865234375,-3.875,3.1875,-2.25
1.3399999999999934,0.0,2.0,14.0,1.0,3.0,-2.0,-3.0,0.0,-0.182373046875,0.20489501953125,0.24603271484375,0.9295654296875,-0.4755859375,-0.2451171875,0.86865234375,-3.875,3.1875,-2.25
1.3449999999999933,0.0,2.0,14.0,1.0,3.0,-2.0,-3.0,0.0,-0.1832275390625,0.205078125,0.24566650390625,0.92950439453125,-0.47119140625,-0.24365234375,0.87353515625,-4.25,3.5625,-2.4375
1.3499999999999932,1.0,2.0,25.0,8.0,4.0,4.0,2.0,-1.0,-0.18426513671875,0.20538330078125,0.245361328125,0.9293212890625,-0.474609375,-0.244140625,0.86962890625,-5.3125,4.0625,-2.4375
1.354999999999993,-2.0,-11.0,-55.0,-8.0,-5.0,-2.0,0.0,-2.0,-0.18426513671875,0.20538330078125,0.245361328125,0.9293212890625,-0.474609375,-0.244140625,0.86962890625,-5.3125,4.0625,-2.4375
1.359999999999993,0.0,-2.0,-37.0,-10.0,-9.0,-5.0,-4.0,-2.0,-0.18426513671875,0.20538330078125,0.245361328125,0.9293212890625,-0.474609375,-0.244140625,0.86962890625,-5.3125,4.0625,-2.4375
1.3649999999999929,0.0,0.0,21.0,5.0,1.0,0.0,1.0,1.0,-0.18560791015625,0.20574951171875,0.2452392578125,0.92901611328125,-0.47998046875,-0.24560546875,0.86767578125,-6.9375,4.625,-1.5
1.3699999999999928,1.0,2.0,15.0,-3.0,-4.0,1.0,-1.0,0.0,-0.1868896484375,0.2061767578125,0.245361328125,0.9285888671875,-0.49072265625,-0.25341796875,0.85986328125,-6.5625,3.9375,0.125
1.3749999999999927,2.0,1.0,-8.0,-3.0,-6.0,-3.0,-4.0,1.0,-0.1868896484375,0.2061767578125,0.245361328125,0.9285888671875,-0.49072265625,-0.25341796875,0.85986328125,-6.5625,3.9375,0.125
1.3799999999999926,2.0,1.0,-8.0,-3.0,-6.0,-3.0,-4.0,1.0,-0.18768310546875,0.2066650390625,0.24517822265625,0.9283447265625,-0.498046875,-0.255859375,0.853515625,-3.3125,3.25,-1.0
1.3849999999999925,1.0,-3.0,19.0,0.0,3.0,6.0,-2.0,-1.0,-0.18768310546875,0.2066650390625,0.24517822265625,0.9283447265625,-0.498046875,-0.255859375,0.853515625,-3.3125,3.25,-1.0
1.3899999999999924,-2.0,-3.0,-5.0,-2.0,4.0,-2.0,0.0,-1.0,-0.18817138671875,0.20703125,0.24493408203125,0.92822265625,-0.49951171875,-0.25634765625,0.85693359375,-1.9375,2.0625,-1.5625
1.3949999999999922,1.0,4.0,-6.0,-7.0,-5.0,-4.0,-2.0,-1.0,-0.18817138671875,0.20703125,0.24493408203125,0.92822265625,-0.49951171875,-0.25634765625,0.85693359375,-1.9375,2.0625,-1.5625
1.3999999999999921,-2.0,0.0,24.0,4.0,-1.0,-3.0,0.0,-1.0,-0.1885986328125,0.20721435546875,0.2447509765625,0.92816162109375,-0.490234375,-0.25244140625,0.8525390625,-1.8125,1.5625,-1.4375
1.404999999999992,-4.0,7.0,8.0,0.0,0.0,-1.0,-3.0,0.0,-0.1885986328125,0.20721435546875,0.2447509765625,0.92816162109375,-0.490234375,-0.25244140625,0.8525390625,-1.8125,1.5625,-1.4375
1.409999999999992,-4.0,-10.0,-32.0,-2.0,-4.0,-3.0,-1.0,-2.0,-0.18890380859375,0.20745849609375,0.2445068359375,0.9281005859375,-0.4912109375,-0.263671875,0.8544921875,-0.375,1.625,-1.3125
1.4149999999999918,-2.0,2.0,4.0,-5.0,-5.0,-4.0,-3.0,-2.0,-0.18890380859375,0.20745849609375,0.2445068359375,0.9281005859375,-0.4912109375,-0.263671875,0.8544921875,-0.375,1.625,-1.3125
1.4199999999999917,-1.0,7.0,-3.0,1.0,3.0,0.0,0.0,0.0,-0.18890380859375,0.20745849609375,0.2445068359375,0.9281005859375,-0.4912109375,-0.263671875,0.8544921875,-0.375,1.625,-1.3125
1.4249999999999916,-1.0,7.0,-3.0,1.0,3.0,0.0,0.0,0.0,-0.18890380859375,0.2076416015625,0.24420166015625,0.92816162109375,-0.4853515625,-0.255859375,0.85498046875,0.6875,1.0,-1.25
1.4299999999999915,-4.0,-9.0,-34.0,-4.0,1.0,-2.0,-4.0,-3.0,-0.18890380859375,0.2076416015625,0.24420166015625,0.92816162109375,-0.4853515625,-0.255859375,0.85498046875,0.6875,1.0,-1.25
1.4349999999999914,-3.0,-3.0,0.0,-1.0,2.0,1.0,-1.0,-2.0,-0.18890380859375,0.2076416015625,0.24420166015625,0.92816162109375,-0.4853515625,-0.255859375,0.85498046875,0.6875,1.0,-1.25
1.4399999999999913,-3.0,-3.0,0.0,-1.0,2.0,1.0,-1.0,-2.0,-0.1890869140625,0.207763671875,0.24395751953125,0.92816162109375,-0.4873046875,-0.25830078125,0.85546875,-0.25,1.0,-1.3125
1.4449999999999912,1.0,-4.0,-7.0,-4.0,-8.0,-4.0,-2.0,0.0,-0.1890869140625,0.20770263671875,0.24395751953125,0.92816162109375,-0.47998046875,-0.2587890625,0.86083984375,-0.5,0.625,-0.5625
1.449999999999991,-2.0,2.0,2.0,5.0,3.0,0.0,-1.0,-2.0,-0.1890869140625,0.20770263671875,0.24395751953125,0.92816162109375,-0.47998046875,-0.2587890625,0.86083984375,-0.5,0.625,-0.5625
1.454999999999991,0.0,-5.0,-21.0,-2.0,-11.0,-1.0,-1.0,0.0,-0.1890869140625,0.20770263671875,0.24395751953125,0.92816162109375,-0.4794921875,-0.263671875,0.8564453125,0.875,0.5625,-0.1875
1.4599999999999909,0.0,-5.0,9.0,-6.0,-3.0,-3.0,0.0,0.0,-0.1890869140625,0.20770263671875,0.24395751953125,0.92816162109375,-0.4794921875,-0.263671875,0.8564453125,0.875,0.5625,-0.1875
1.4649999999999908,-3.0,-5.0,3.0,1.0,4.0,2.0,-1.0,0.0,-0.1890869140625,0.20770263671875,0.24395751953125,0.92816162109375,-0.4794921875,-0.263671875,0.8564453125,0.875,0.5625,-0.1875
1.4699999999999906,-3.0,4.0,13.0,-6.0,-6.0,-3.0,-2.0,-4.0,-0.18890380859375,0.20782470703125,0.24395751953125,0.92822265625,-0.48291015625,-0.2509765625,0.85546875,1.25,0.4375,0.3125
1.4749999999999905,-1.0,1.0,10.0,4.0,-1.0,-1.0,-3.0,1.0,-0.1885986328125,0.2078857421875,0.24407958984375,0.92822265625,-0.486328125,-0.251953125,0.86279296875,1.0625,0.125,1.0625
1.4799999999999904,0.0,0.0,10.0,9.0,6.0,0.0,1.0,-1.0,-0.1885986328125,0.2078857421875,0.24407958984375,0.92822265625,-0.486328125,-0.251953125,0.86279296875,1.0625,0.125,1.0625
1.4849999999999903,1.0,2.0,-1.0,-1.0,2.0,1.0,2.0,0.0,-0.1883544921875,0.20794677734375,0.24420166015625,0.92822265625,-0.49169921875,-0.259765625,0.8583984375,1.875,-0.375,1.0625
1.4899999999999902,-1.0,-4.0,-18.0,1.0,-1.0,-2.0,-1.0,0.0,-0.1883544921875,0.20794677734375,0.24420166015625,0.92822265625,-0.49169921875,-0.259765625,0.8583984375,1.875,-0.375,1.0625
1.4949999999999901,-1.0,-4.0,-18.0,1.0,-1.0,-2.0,-1.0,0.0,-0.1878662109375,0.20806884765625,0.2442626953125,0.92828369140625,-0.48974609375,-0.24462890625,0.86083984375,2.25,-0.5625,0.5
1.49999999999999,0.0,1.0,-2.0,1.0,0.0,-3.0,0.0,0.0,-0.1878662109375,0.20806884765625,0.2442626953125,0.92828369140625,-0.48974609375,-0.24462890625,0.86083984375,2.25,-0.5625,0.5
1.50499999999999,0.0,1.0,-2.0,1.0,0.0,-3.0,0.0,0.0,-0.1878662109375,0.20806884765625,0.2442626953125,0.92828369140625,-0.48974609375,-0.24462890625,0.86083984375,2.25,-0.5625,0.5
1.5099999999999898,-1.0,-16.0,-4.0,1.0,1.0,1.0,0.0,1.0,-0.18756103515625,0.2081298828125,0.24432373046875,0.92828369140625,-0.48876953125,-0.24853515625,0.85791015625,1.3125,-0.1875,0.8125
1.5149999999999897,0.0,-3.0,-9.0,-5.0,-2.0,-2.0,-2.0,-2.0,-0.18756103515625,0.2081298828125,0.24432373046875,0.92828369140625,-0.48876953125,-0.24853515625,0.85791015625,1.3125,-0.1875,0.8125
1.5199999999999896,0.0,-3.0,-9.0,-5.0,-2.0,-2.0,-2.0,-2.0,-0.18731689453125,0.20819091796875,0.24444580078125,0.9283447265625,-0.49169921875,-0.25048828125,0.8603515625,1.4375,-0.5625,0.6875
1.5249999999999895,-2.0,-11.0,3.0,2.0,-2.0,-3.0,-1.0,-2.0,-0.18731689453125,0.20819091796875,0.24444580078125,0.9283447265625,-0.49169921875,-0.25048828125,0.8603515625,1.4375,-0.5625,0.6875
1.5299999999999894,-1.0,-3.0,-6.0,-5.0,0.0,4.0,0.0,-1.0,-0.18731689453125,0.20819091796875,0.24444580078125,0.9283447265625,-0.49169921875,-0.25048828125,0.8603515625,1.4375,-0.5625,0.6875
1.5349999999999893,-1.0,-3.0,-6.0,-5.0,0.0,4.0,0.0,-1.0,-0.18731689453125,0.20819091796875,0.24444580078125,0.9283447265625,-0.49169921875,-0.25048828125,0.8603515625,1.4375,-0.5625,0.6875
1.5399999999999892,-4.0,-21.0,-35.0,0.0,-6.0,-1.0,0.0,0.0,-0.18670654296875,0.2083740234375,0.2442626953125,0.928466796875,-0.494140625,-0.24609375,0.8583984375,1.5625,-0.4375,-0.5625
1.544999999999989,-2.0,0.0,12.0,-2.0,-1.0,0.0,-3.0,-2.0,-0.18670654296875,0.2083740234375,0.2442626953125,0.928466796875,-0.494140625,-0.24609375,0.8583984375,1.5625,-0.4375,-0.5625
1.549999999999989,-2.0,0.0,12.0,-2.0,-1.0,0.0,-3.0,-2.0,-0.18670654296875,0.20831298828125,0.2442626953125,0.928466796875,-0.4853515625,-0.2490234375,0.8701171875,0.5625,-0.1875,-0.4375
1.5549999999999888,-2.0,-1.0,-14.0,3.0,-6.0,-2.0,0.0,-1.0,-0.18670654296875,0.20831298828125,0.2442626953125,0.928466796875,-0.4853515625,-0.2490234375,0.8701171875,0.5625,-0.1875,-0.4375
1.5599999999999887,-2.0,16.0,25.0,-1.0,-2.0,-4.0,-2.0,-2.0,-0.18670654296875,0.20831298828125,0.2442626953125,0.928466796875,-0.4853515625,-0.2490234375,0.8701171875,0.5625,-0.1875,-0.4375
1.5649999999999886,-2.0,16.0,25.0,-1.0,-2.0,-4.0,-2.0,-2.0,-0.18670654296875,0.20831298828125,0.2442626953125,0.928466796875,-0.4814453125,-0.24951171875,0.8603515625,-0.3125,-0.5,0.0
1.5699999999999885,1.0,3.0,4.0,-3.0,-1.0,-2.0,1.0,2.0,-0.18670654296875,0.20831298828125,0.2442626953125,0.928466796875,-0.4814453125,-0.24951171875,0.8603515625,-0.3125,-0.5,0.0
1.5749999999999884,1.0,10.0,31.0,1.0,0.0,-1.0,-1.0,-1.0,-0.1866455078125,0.20831298828125,0.2442626953125,0.928466796875,-0.47998046875,-0.2509765625,0.865234375,0.25,0.125,0.125
1.5799999999999883,-1.0,-6.0,-15.0,-2.0,1.0,0.0,-1.0,-1.0,-0.1866455078125,0.20831298828125,0.2442626953125,0.928466796875,-0.47998046875,-0.2509765625,0.865234375,0.25,0.125,0.125
1.5849999999999882,-1.0,-6.0,-15.0,-2.0,1.0,0.0,-1.0,-1.0,-0.1865234375,0.20819091796875,0.24420166015625,0.92852783203125,-0.48193359375,-0.255859375,0.85986328125,1.0,-0.4375,-0.0625
1.589999999999988,3.0,3.0,5.0,0.0,1.0,-2.0,0.0,2.0,-0.1865234375,0.20819091796875,0.24420166015625,0.92852783203125,-0.48193359375,-0.255859375,0.85986328125,1.0,-0.4375,-0.0625
1.594999999999988,4.0,7.0,21.0,-3.0,2.0,0.0,-2.0,-1.0,-0.1859130859375,0.2081298828125,0.24407958984375,0.9287109375,-0.48681640625,-0.2509765625,0.86669921875,3.5625,-1.0,-0.1875
1.5999999999999879,2.0,12.0,7.0,0.0,-4.0,-2.0,-3.0,-1.0,-0.1859130859375,0.2081298828125,0.24407958984375,0.9287109375,-0.48681640625,-0.2509765625,0.86669921875,3.5625,-1.0,-0.1875
1.6049999999999878,2.0,12.0,7.0,0.0,-4.0,-2.0,-3.0,-1.0,-0.1859130859375,0.2081298828125,0.24407958984375,0.9287109375,-0.48681640625,-0.2509765625,0.86669921875,3.5625,-1.0,-0.1875
1.6099999999999877,-2.0,-14.0,-40.0,-3.0,-2.0,-2.0,-2.0,-1.0,-0.18463134765625,0.20782470703125,0.243896484375,0.9290771484375,-0.47900390625,-0.24609375,0.86474609375,3.3125,-1.625,0.25
1.6149999999999876,0.0,5.0,2.0,2.0,-2.0,1.0,-1.0,-1.0,-0.18463134765625,0.20782470703125,0.243896484375,0.9290771484375,-0.47900390625,-0.24609375,0.86474609375,3.3125,-1.625,0.25
1.6199999999999875,-1.0,-4.0,-9.0,3.0,0.0,2.0,0.0,-2.0,-0.18463134765625,0.20782470703125,0.243896484375,0.9290771484375,-0.47900390625,-0.24609375,0.86474609375,3.3125,-1.625,0.25
1.6249999999999873,-1.0,-4.0,-9.0,3.0,0.0,2.0,0.0,-2.0,-0.18402099609375,0.207763671875,0.2437744140625,0.92919921875,-0.482421875,-0.23828125,0.86328125,2.8125,-1.125,-0.375
1.6299999999999872,-3.0,-4.0,-4.0,-5.0,-7.0,-1.0,0.0,0.0,-0.18402099609375,0.207763671875,0.2437744140625,0.92919921875,-0.482421875,-0.23828125,0.86328125,2.8125,-1.125,-0.375
1.6349999999999871,-1.0,-6.0,4.0,2.0,-3.0,-1.0,0.0,-2.0,-0.18359375,0.20770263671875,0.24365234375,0.92938232421875,-0.48486328125,-0.24072265625,0.86328125,2.375,-0.875,-0.75
1.639999999999987,-1.0,-6.0,4.0,2.0,-3.0,-1.0,0.0,-2.0,-0.18310546875,0.2076416015625,0.243408203125,0.92950439453125,-0.4814453125,-0.2353515625,0.87109375,2.3125,-0.5625,-1.1875
1.644999999999987,-2.0,-20.0,3.0,2.0,-4.0,-2.0,1.0,0.0,-0.18310546875,0.2076416015625,0.243408203125,0.92950439453125,-0.4814453125,-0.2353515625,0.87109375,2.3125,-0.5625,-1.1875
1.6499999999999868,-1.0,-3.0,-3.0,-3.0,2.0,0.0,-3.0,-2.0,-0.18267822265625,0.20758056640625,0.2431640625,0.9296875,-0.47900390625,-0.2431640625,0.86962890625,2.3125,-0.5625,-1.25
1.6549999999999867,-1.0,-3.0,-3.0,-3.0,2.0,0.0,-3.0,-2.0,-0.18267822265625,0.20758056640625,0.2431640625,0.9296875,-0.47900390625,-0.2431640625,0.86962890625,2.3125,-0.5625,-1.25
1.6599999999999866,-2.0,-4.0,-17.0,-1.0,-2.0,-1.0,-1.0,-2.0,-0.18267822265625,0.20758056640625,0.2431640625,0.9296875,-0.47900390625,-0.2431640625,0.86962890625,2.3125,-0.5625,-1.25
1.6649999999999865,-2.0,-4.0,-17.0,-1.0,-2.0,-1.0,-1.0,-2.0,-0.1822509765625,0.20758056640625,0.24285888671875,0.92987060546875,-0.47705078125,-0.2265625,0.869140625,1.875,0.125,-1.5
1.6699999999999864,1.0,4.0,18.0,-3.0,-2.0,-4.0,0.0,0.0,-0.1822509765625,0.20758056640625,0.24285888671875,0.92987060546875,-0.47705078125,-0.2265625,0.869140625,1.875,0.125,-1.5
1.6749999999999863,1.0,4.0,18.0,-3.0,-2.0,-4.0,0.0,0.0,-0.1820068359375,0.20770263671875,0.2425537109375,0.929931640625,-0.486328125,-0.23486328125,0.87158203125,1.0625,0.5625,-1.6875
1.6799999999999862,-3.0,11.0,12.0,-2.0,-2.0,-2.0,-1.0,-3.0,-0.1820068359375,0.20770263671875,0.2425537109375,0.929931640625,-0.486328125,-0.23486328125,0.87158203125,1.0625,0.5625,-1.6875
1.684999999999986,4.0,11.0,16.0,5.0,5.0,1.0,-1.0,-2.0,-0.1820068359375,0.20770263671875,0.2425537109375,0.929931640625,-0.486328125,-0.23486328125,0.87158203125,1.0625,0.5625,-1.6875
1.689999999999986,4.0,11.0,16.0,5.0,5.0,1.0,-1.0,-2.0,-0.18212890625,0.20770263671875,0.24224853515625,0.9300537109375,-0.4892578125,-0.24658203125,0.86572265625,0.125,0.0,-1.875
1.6949999999999859,4.0,11.0,16.0,5.0,5.0,1.0,-1.0,-2.0,-0.18212890625,0.20770263671875,0.24224853515625,0.9300537109375,-0.4892578125,-0.24658203125,0.86572265625,0.125,0.0,-1.875
1.6999999999999857,-5.0,-10.0,37.0,-1.0,-4.0,-2.0,-1.0,-2.0,-0.18212890625,0.20770263671875,0.24224853515625,0.9300537109375,-0.4892578125,-0.24658203125,0.86572265625,0.125,0.0,-1.875
1.7049999999999856,-5.0,-10.0,37.0,-1.0,-4.0,-2.0,-1.0,-2.0,-0.18218994140625,0.20758056640625,0.24200439453125,0.93011474609375,-0.48828125,-0.2451171875,0.8662109375,-0.3125,-0.1875,-1.8125
1.7099999999999855,-2.0,0.0,-2.0,-3.0,-6.0,-3.0,-3.0,-1.0,-0.18218994140625,0.20758056640625,0.24200439453125,0.93011474609375,-0.48828125,-0.2451171875,0.8662109375,-0.3125,-0.1875,-1.8125
1.7149999999999854,-4.0,-5.0,-10.0,-3.0,-1.0,0.0,-3.0,1.0,-0.18243408203125,0.20745849609375,0.24169921875,0.93017578125,-0.48486328125,-0.24609375,0.8662109375,-0.8125,-0.3125,-2.0625
1.7199999999999853,-4.0,-5.0,-10.0,-3.0,-1.0,0.0,-3.0,1.0,-0.18243408203125,0.20745849609375,0.24169921875,0.93017578125,-0.48486328125,-0.24609375,0.8662109375,-0.8125,-0.3125,-2.0625
1.7249999999999852,0.0,-13.0,10.0,1.0,7.0,1.0,0.0,2.0,-0.18243408203125,0.20745849609375,0.24169921875,0.93017578125,-0.48486328125,-0.24609375,0.8662109375,-0.8125,-0.3125,-2.0625
1.729999999999985,0.0,-13.0,10.0,1.0,7.0,1.0,0.0,2.0,-0.18243408203125,0.20745849609375,0.24169921875,0.93017578125,-0.48486328125,-0.24609375,0.8662109375,-0.8125,-0.3125,-2.0625
1.734999999999985,-2.0,-10.0,-44.0,-3.0,-4.0,-2.0,-1.0,-2.0,-0.1824951171875,0.20721435546875,0.2413330078125,0.9302978515625,-0.4736328125,-0.2451171875,0.873046875,-0.1875,-0.3125,-2.25
1.739999999999985,1.0,6.0,6.0,-1.0,4.0,2.0,1.0,-3.0,-0.1824951171875,0.20721435546875,0.2413330078125,0.9302978515625,-0.4736328125,-0.2451171875,0.873046875,-0.1875,-0.3125,-2.25
1.7449999999999848,1.0,6.0,6.0,-1.0,4.0,2.0,1.0,-3.0,-0.1822509765625,0.2071533203125,0.2410888671875,0.930419921875,-0.47509765625,-0.2490234375,0.8720703125,1.5,0.375,-1.0625
1.7499999999999847,-3.0,-4.0,8.0,11.0,10.0,-2.0,-2.0,-2.0,-0.18194580078125,0.2071533203125,0.240966796875,0.93048095703125,-0.47998046875,-0.248046875,0.86181640625,2.125,-0.3125,0.0
1.7549999999999846,-2.0,-2.0,-20.0,-3.0,-4.0,0.0,1.0,0.0,-0.18194580078125,0.2071533203125,0.240966796875,0.93048095703125,-0.47998046875,-0.248046875,0.86181640625,2.125,-0.3125,0.0
1.7599999999999845,-2.0,-2.0,-20.0,-3.0,-4.0,0.0,1.0,0.0,-0.18170166015625,0.2071533203125,0.2410888671875,0.9305419921875,-0.48681640625,-0.24560546875,0.8662109375,1.4375,-1.0625,0.8125
1.7649999999999844,2.0,3.0,28.0,-11.0,-10.0,-2.0,-3.0,2.0,-0.18170166015625,0.2071533203125,0.2410888671875,0.9305419921875,-0.48681640625,-0.24560546875,0.8662109375,1.4375,-1.0625,0.8125
1.7699999999999843,-2.0,-13.0,-17.0,-1.0,2.0,-1.0,-3.0,-3.0,-0.18170166015625,0.2071533203125,0.2410888671875,0.9305419921875,-0.48681640625,-0.24560546875,0.8662109375,1.4375,-1.0625,0.8125
1.7749999999999841,-2.0,-13.0,-17.0,-1.0,2.0,-1.0,-3.0,-3.0,-0.18145751953125,0.20697021484375,0.2413330078125,0.9305419921875,-0.4833984375,-0.2470703125,0.86328125,1.0,-1.4375,1.3125
1.779999999999984,0.0,0.0,2.0,15.0,4.0,2.0,0.0,-1.0,-0.18145751953125,0.20697021484375,0.2413330078125,0.9305419921875,-0.4833984375,-0.2470703125,0.86328125,1.0,-1.4375,1.3125
1.784999999999984,-1.0,5.0,6.0,-2.0,3.0,-1.0,-1.0,-1.0,-0.18121337890625,0.206787109375,0.24151611328125,0.93060302734375,-0.47900390625,-0.25,0.8671875,1.4375,-1.4375,1.3125
1.7899999999999838,-1.0,5.0,6.0,-2.0,3.0,-1.0,-1.0,-1.0,-0.18121337890625,0.206787109375,0.24151611328125,0.93060302734375,-0.47900390625,-0.25,0.8671875,1.4375,-1.4375,1.3125
1.7949999999999837,-1.0,-4.0,-18.0,-9.0,-10.0,-4.0,1.0,-2.0,-0.1806640625,0.2066650390625,0.24188232421875,0.93060302734375,-0.478515625,-0.2373046875,0.86474609375,1.875,-1.625,2.25
1.7999999999999836,-4.0,-9.0,-3.0,-5.0,0.0,-3.0,-2.0,-1.0,-0.1806640625,0.2066650390625,0.24188232421875,0.93060302734375,-0.478515625,-0.2373046875,0.86474609375,1.875,-1.625,2.25
1.8049999999999835,-4.0,-9.0,-3.0,-5.0,0.0,-3.0,-2.0,-1.0,-0.18035888671875,0.20648193359375,0.2423095703125,0.93060302734375,-0.4775390625,-0.25,0.8662109375,1.5,-1.75,2.8125
1.8099999999999834,-2.0,3.0,9.0,-3.0,-6.0,-2.0,0.0,0.0,-0.18035888671875,0.20648193359375,0.2423095703125,0.93060302734375,-0.4775390625,-0.25,0.8662109375,1.5,-1.75,2.8125
1.8149999999999833,-2.0,-7.0,-7.0,-1.0,-2.0,-2.0,-1.0,0.0,-0.17974853515625,0.20648193359375,0.24267578125,0.9306640625,-0.4794921875,-0.24267578125,0.8671875,2.9375,-1.125,2.9375
1.8199999999999832,-1.0,9.0,11.0,1.0,-5.0,-3.0,2.0,-2.0,-0.17974853515625,0.20648193359375,0.24267578125,0.9306640625,-0.4794921875,-0.24267578125,0.8671875,2.9375,-1.125,2.9375
1.824999999999983,0.0,1.0,-7.0,0.0,4.0,0.0,-1.0,1.0,-0.1788330078125,0.20654296875,0.24298095703125,0.93072509765625,-0.478515625,-0.23583984375,0.869140625,4.625,-1.3125,2.5625
1.829999999999983,0.0,7.0,-3.0,-5.0,-3.0,0.0,-1.0,0.0,-0.1788330078125,0.20654296875,0.24298095703125,0.93072509765625,-0.478515625,-0.23583984375,0.869140625,4.625,-1.3125,2.5625
1.8349999999999829,0.0,7.0,-3.0,-5.0,-3.0,0.0,-1.0,0.0,-0.17803955078125,0.20654296875,0.2432861328125,0.9307861328125,-0.4765625,-0.22998046875,0.86376953125,3.5625,-1.0625,2.25
1.8399999999999828,-1.0,-12.0,-2.0,-2.0,1.0,-1.0,-2.0,-1.0,-0.17803955078125,0.20654296875,0.2432861328125,0.9307861328125,-0.4765625,-0.22998046875,0.86376953125,3.5625,-1.0625,2.25
1.8449999999999827,-1.0,-12.0,-2.0,-2.0,1.0,-1.0,-2.0,-1.0,-0.17742919921875,0.20654296875,0.24365234375,0.9307861328125,-0.4775390625,-0.220703125,0.8720703125,2.0,-1.0,2.1875
1.8499999999999825,4.0,11.0,19.0,8.0,5.0,0.0,-1.0,1.0,-0.17742919921875,0.20654296875,0.24365234375,0.9307861328125,-0.4775390625,-0.220703125,0.8720703125,2.0,-1.0,2.1875
1.8549999999999824,4.0,11.0,19.0,8.0,5.0,0.0,-1.0,1.0,-0.177001953125,0.20648193359375,0.24395751953125,0.93084716796875,-0.4736328125,-0.22705078125,0.87451171875,1.375,-0.9375,2.0625
1.8599999999999823,-2.0,-6.0,-24.0,0.0,-6.0,-1.0,-1.0,-2.0,-0.177001953125,0.20648193359375,0.24395751953125,0.93084716796875,-0.4736328125,-0.22705078125,0.87451171875,1.375,-0.9375,2.0625
1.8649999999999822,-2.0,-3.0,-13.0,-1.0,-1.0,-1.0,-5.0,-1.0,-0.1766357421875,0.20648193359375,0.24407958984375,0.93084716796875,-0.47216796875,-0.22509765625,0.86474609375,1.3125,-0.125,0.9375
1.8699999999999821,-2.0,-3.0,-13.0,-1.0,-1.0,-1.0,-5.0,-1.0,-0.1766357421875,0.20648193359375,0.24407958984375,0.93084716796875,-0.47216796875,-0.22509765625,0.86474609375,1.3125,-0.125,0.9375
1.874999999999982,-1.0,-4.0,13.0,-4.0,1.0,-2.0,-2.0,-1.0,-0.17620849609375,0.20654296875,0.244140625,0.930908203125,-0.4755859375,-0.2255859375,0.873046875,1.8125,-0.25,0.375
1.879999999999982,-2.0,8.0,-8.0,-9.0,-3.0,-1.0,-3.0,-2.0,-0.17620849609375,0.20654296875,0.244140625,0.930908203125,-0.4755859375,-0.2255859375,0.873046875,1.8125,-0.25,0.375
1.8849999999999818,-2.0,2.0,-11.0,2.0,2.0,1.0,2.0,1.0,-0.17620849609375,0.20654296875,0.244140625,0.930908203125,-0.48095703125,-0.2197265625,0.8701171875,0.25,-0.25,0.0625
1.8899999999999817,0.0,6.0,-14.0,1.0,-2.0,-2.0,-1.0,-1.0,-0.1761474609375,0.20654296875,0.244140625,0.930908203125,-0.47509765625,-0.22509765625,0.86474609375,-0.6875,0.0625,-0.1875
1.8949999999999816,-1.0,3.0,-14.0,-1.0,0.0,0.0,0.0,-1.0,-0.1761474609375,0.20654296875,0.244140625,0.930908203125,-0.47509765625,-0.22509765625,0.86474609375,-0.6875,0.0625,-0.1875
1.8999999999999815,-3.0,-9.0,-6.0,4.0,3.0,-1.0,3.0,-3.0,-0.1763916015625,0.20660400390625,0.24395751953125,0.930908203125,-0.47802734375,-0.23193359375,0.8671875,-0.75,0.875,-1.25
1.9049999999999814,-5.0,1.0,22.0,5.0,0.0,-4.0,-3.0,-3.0,-0.1763916015625,0.20660400390625,0.24395751953125,0.930908203125,-0.47802734375,-0.23193359375,0.8671875,-0.75,0.875,-1.25
1.9099999999999813,-5.0,1.0,22.0,5.0,0.0,-4.0,-3.0,-3.0,-0.17645263671875,0.20672607421875,0.24371337890625,0.93096923828125,-0.4765625,-0.224609375,0.86865234375,-0.625,1.125,-1.4375
1.9149999999999812,-5.0,1.0,22.0,5.0,0.0,-4.0,-3.0,-3.0,-0.17645263671875,0.20672607421875,0.24371337890625,0.93096923828125,-0.4765625,-0.224609375,0.86865234375,-0.625,1.125,-1.4375
1.919999999999981,1.0,0.0,-2.0,-5.0,-4.0,0.0,1.0,-1.0,-0.17645263671875,0.20672607421875,0.24371337890625,0.93096923828125,-0.4765625,-0.224609375,0.86865234375,-0.625,1.125,-1.4375
1.924999999999981,-5.0,-16.0,-7.0,-7.0,-5.0,-1.0,-3.0,-2.0,-0.17718505859375,0.2069091796875,0.24322509765625,0.930908203125,-0.48193359375,-0.23095703125,0.87353515625,-2.1875,1.375,-1.9375
1.9299999999999808,-1.0,1.0,-2.0,0.0,0.0,1.0,0.0,1.0,-0.17718505859375,0.2069091796875,0.24322509765625,0.930908203125,-0.48193359375,-0.23095703125,0.87353515625,-2.1875,1.375,-1.9375
1.9349999999999807,0.0,-4.0,0.0,1.0,2.0,1.0,-2.0,-2.0,-0.17779541015625,0.20697021484375,0.242919921875,0.93084716796875,-0.4814453125,-0.23095703125,0.86962890625,-3.25,1.5,-2.1875
1.9399999999999806,-2.0,12.0,2.0,-9.0,0.0,-2.0,-1.0,-3.0,-0.1783447265625,0.20697021484375,0.24267578125,0.9307861328125,-0.47509765625,-0.23876953125,0.87109375,-2.5,1.5,-1.6875
1.9449999999999805,0.0,0.0,-1.0,-3.0,-1.0,-3.0,1.0,0.0,-0.1783447265625,0.20697021484375,0.24267578125,0.9307861328125,-0.47509765625,-0.23876953125,0.87109375,-2.5,1.5,-1.6875
1.9499999999999804,3.0,2.0,-2.0,11.0,6.0,2.0,1.0,1.0,-0.17877197265625,0.20703125,0.242431640625,0.9307861328125,-0.4755859375,-0.24169921875,0.86328125,-1.75,1.625,-1.5
1.9549999999999803,-2.0,-15.0,-1.0,-15.0,-11.0,-2.0,-2.0,-1.0,-0.17877197265625,0.20703125,0.242431640625,0.9307861328125,-0.4755859375,-0.24169921875,0.86328125,-1.75,1.625,-1.5
1.9599999999999802,-2.0,-15.0,-1.0,-15.0,-11.0,-2.0,-2.0,-1.0,-0.17913818359375,0.20709228515625,0.24237060546875,0.93072509765625,-0.478515625,-0.23828125,0.86865234375,-1.8125,1.375,-0.6875
1.96499999999998,-2.0,1.0,-2.0,7.0,5.0,0.0,-1.0,-1.0,-0.17913818359375,0.20709228515625,0.24237060546875,0.93072509765625,-0.478515625,-0.23828125,0.86865234375,-1.8125,1.375,-0.6875
1.96999999999998,-2.0,1.0,-2.0,7.0,5.0,0.0,-1.0,-1.0,-0.17913818359375,0.20709228515625,0.24237060546875,0.93072509765625,-0.478515625,-0.23828125,0.86865234375,-1.8125,1.375,-0.6875
1.9749999999999799,-1.0,4.0,-10.0,-1.0,-3.0,-1.0,-3.0,-2.0,-0.17962646484375,0.2071533203125,0.24237060546875,0.93060302734375,-0.48681640625,-0.23828125,0.869140625,-2.5625,0.875,-0.5
1.9799999999999798,-6.0,-21.0,-41.0,-4.0,-4.0,-1.0,-1.0,-1.0,-0.17962646484375,0.2071533203125,0.24237060546875,0.93060302734375,-0.48681640625,-0.23828125,0.869140625,-2.5625,0.875,-0.5
1.9849999999999797,-6.0,-21.0,-41.0,-4.0,-4.0,-1.0,-1.0,-1.0,-0.17999267578125,0.20721435546875,0.24237060546875,0.93048095703125,-0.482421875,-0.25,0.86279296875,-1.5,0.875,0.0625
1.9899999999999796,2.0,-2.0,10.0,2.0,-1.0,-1.0,0.0,-1.0,-0.17999267578125,0.20721435546875,0.24237060546875,0.93048095703125,-0.482421875,-0.25,0.86279296875,-1.5,0.875,0.0625
1.9949999999999795,-4.0,7.0,11.0,-5.0,-5.0,-5.0,-4.0,-4.0,-0.17999267578125,0.20721435546875,0.24237060546875,0.93048095703125,-0.482421875,-0.25,0.86279296875,-1.5,0.875,0.0625
1.9999999999999793,0.0,-2.0,-10.0,0.0,7.0,3.0,1.0,-1.0,-0.1800537109375,0.20721435546875,0.24237060546875,0.93048095703125,-0.48681640625,-0.2470703125,0.86767578125,-0.25,0.375,0.0625
2.0049999999999795,2.0,13.0,19.0,-2.0,0.0,1.0,-1.0,1.0,-0.1800537109375,0.20721435546875,0.24237060546875,0.93048095703125,-0.48681640625,-0.2470703125,0.86767578125,-0.25,0.375,0.0625
2.0099999999999794,2.0,13.0,19.0,-2.0,0.0,1.0,-1.0,1.0,-0.1800537109375,0.20721435546875,0.2423095703125,0.93048095703125,-0.48193359375,-0.24169921875,0.86083984375,0.875,0.0,0.0
2.0149999999999793,-1.0,-5.0,-13.0,6.0,3.0,0.0,-1.0,-2.0,-0.17999267578125,0.20721435546875,0.24237060546875,0.93048095703125,-0.47607421875,-0.2294921875,0.8681640625,0.5625,0.125,0.0625
2.019999999999979,-2.0,-6.0,-12.0,0.0,-3.0,-1.0,-1.0,-1.0,-0.17999267578125,0.20721435546875,0.24237060546875,0.93048095703125,-0.47607421875,-0.2294921875,0.8681640625,0.5625,0.125,0.0625
2.024999999999979,0.0,-5.0,-1.0,13.0,11.0,-1.0,0.0,0.0,-0.17999267578125,0.20721435546875,0.24237060546875,0.93048095703125,-0.47607421875,-0.2294921875,0.8681640625,0.5625,0.125,0.0625
2.029999999999979,0.0,-5.0,-1.0,13.0,11.0,-1.0,0.0,0.0,-0.18017578125,0.20721435546875,0.24249267578125,0.930419921875,-0.47705078125,-0.23779296875,0.8671875,-1.1875,0.5,0.6875
2.034999999999979,0.0,1.0,19.0,-6.0,-4.0,1.0,-4.0,-1.0,-0.18017578125,0.20721435546875,0.24249267578125,0.930419921875,-0.47705078125,-0.23779296875,0.8671875,-1.1875,0.5,0.6875
2.0399999999999787,0.0,1.0,19.0,-6.0,-4.0,1.0,-4.0,-1.0,-0.18017578125,0.20721435546875,0.24249267578125,0.930419921875,-0.47705078125,-0.23779296875,0.8671875,-1.1875,0.5,0.6875
2.0449999999999786,-1.0,-5.0,-29.0,-3.0,0.0,-2.0,0.0,0.0,-0.18011474609375,0.207275390625,0.24249267578125,0.930419921875,-0.47216796875,-0.24169921875,0.87451171875,0.0,1.0,0.25
2.0499999999999785,3.0,7.0,11.0,3.0,7.0,1.0,-1.0,1.0,-0.18011474609375,0.207275390625,0.24249267578125,0.930419921875,-0.47216796875,-0.24169921875,0.87451171875,0.0,1.0,0.25
2.0549999999999784,-7.0,-21.0,-8.0,-7.0,-8.0,-3.0,-1.0,-4.0,-0.18011474609375,0.207275390625,0.24249267578125,0.930419921875,-0.4814453125,-0.23974609375,0.8720703125,-0.0625,0.9375,0.3125
2.0599999999999783,-1.0,-10.0,-5.0,-9.0,-3.0,-2.0,1.0,1.0,-0.18011474609375,0.207275390625,0.24249267578125,0.930419921875,-0.486328125,-0.2353515625,0.87353515625,-0.6875,0.4375,0.3125
2.064999999999978,3.0,9.0,9.0,1.0,1.0,0.0,-2.0,-1.0,-0.18011474609375,0.207275390625,0.24249267578125,0.930419921875,-0.486328125,-0.2353515625,0.87353515625,-0.6875,0.4375,0.3125
2.069999999999978,-3.0,5.0,18.0,-2.0,-5.0,-1.0,-1.0,-2.0,-0.18011474609375,0.207275390625,0.24249267578125,0.930419921875,-0.486328125,-0.2353515625,0.87353515625,-0.6875,0.4375,0.3125
2.074999999999978,-3.0,5.0,18.0,-2.0,-5.0,-1.0,-1.0,-2.0,-0.18011474609375,0.20721435546875,0.24249267578125,0.930419921875,-0.48046875,-0.2421875,0.86767578125,-0.8125,0.25,0.125
2.079999999999978,-2.0,0.0,3.0,-12.0,-10.0,-2.0,0.0,-1.0,-0.18011474609375,0.20721435546875,0.24249267578125,0.930419921875,-0.48046875,-0.2421875,0.86767578125,-0.8125,0.25,0.125
2.0849999999999778,1.0,4.0,8.0,-4.0,-4.0,3.0,-1.0,0.0,-0.18011474609375,0.20721435546875,0.24249267578125,0.930419921875,-0.48046875,-0.2421875,0.86767578125,-0.8125,0.25,0.125
2.0899999999999777,-1.0,-8.0,-12.0,1.0,0.0,-4.0,-3.0,1.0,-0.18011474609375,0.20721435546875,0.24249267578125,0.93048095703125,-0.474609375,-0.24072265625,0.86669921875,-0.0625,0.4375,0.0625
2.0949999999999775,-1.0,-8.0,-12.0,1.0,0.0,-4.0,-3.0,1.0,-0.18011474609375,0.20721435546875,0.24249267578125,0.93048095703125,-0.48291015625,-0.23388671875,0.86328125,0.75,0.625,-0.625
2.0999999999999774,-1.0,2.0,18.0,-8.0,1.0,-3.0,-5.0,0.0,-0.18011474609375,0.20721435546875,0.24249267578125,0.93048095703125,-0.48291015625,-0.23388671875,0.86328125,0.75,0.625,-0.625
2.1049999999999773,-1.0,-10.0,-5.0,-2.0,-5.0,2.0,0.0,-1.0,-0.1800537109375,0.2073974609375,0.24237060546875,0.930419921875,-0.48388671875,-0.22900390625,0.86865234375,-0.1875,1.0625,-0.6875
2.1099999999999772,2.0,11.0,9.0,3.0,-1.0,4.0,-1.0,0.0,-0.1800537109375,0.2073974609375,0.24237060546875,0.930419921875,-0.48388671875,-0.22900390625,0.86865234375,-0.1875,1.0625,-0.6875
2.114999999999977,-1.0,4.0,3.0,2.0,-2.0,1.0,-1.0,-4.0,-0.18023681640625,0.20751953125,0.242431640625,0.93035888671875,-0.48974609375,-0.23486328125,0.8720703125,-1.25,0.5625,-0.25
2.119999999999977,2.0,-2.0,2.0,2.0,-3.0,-3.0,0.0,-1.0,-0.18023681640625,0.20751953125,0.242431640625,0.93035888671875,-0.48974609375,-0.23486328125,0.8720703125,-1.25,0.5625,-0.25
2.124999999999977,2.0,-2.0,2.0,2.0,-3.0,-3.0,0.0,-1.0,-0.18060302734375,0.2073974609375,0.2423095703125,0.93035888671875,-0.47705078125,-0.25048828125,0.8662109375,-1.5,0.4375,-0.5625
2.129999999999977,-3.0,-3.0,-7.0,-1.0,-2.0,0.0,-3.0,-2.0,-0.18060302734375,0.2073974609375,0.2423095703125,0.93035888671875,-0.47705078125,-0.25048828125,0.8662109375,-1.5,0.4375,-0.5625
2.1349999999999767,-3.0,-3.0,-7.0,-1.0,-2.0,0.0,-3.0,-2.0,-0.18060302734375,0.2073974609375,0.2423095703125,0.93035888671875,-0.47802734375,-0.24755859375,0.8701171875,0.25,0.4375,-0.3125
2.1399999999999766,-6.0,-22.0,-33.0,0.0,2.0,-2.0,1.0,-3.0,-0.18060302734375,0.2073974609375,0.2423095703125,0.93035888671875,-0.47802734375,-0.24755859375,0.8701171875,0.25,0.4375,-0.3125
2.1449999999999765,3.0,7.0,17.0,11.0,0.0,0.0,0.0,1.0,-0.18048095703125,0.20745849609375,0.24224853515625,0.930419921875,-0.4794921875,-0.24072265625,0.8603515625,1.0,0.3125,-0.3125
2.1499999999999764,1.0,-3.0,-5.0,-2.0,-4.0,2.0,-4.0,-2.0,-0.18048095703125,0.20745849609375,0.24224853515625,0.930419921875,-0.4794921875,-0.24072265625,0.8603515625,1.0,0.3125,-0.3125
2.1549999999999763,1.0,-3.0,-5.0,-2.0,-4.0,2.0,-4.0,-2.0,-0.1802978515625,0.20751953125,0.2421875,0.930419921875,-0.4814453125,-0.240234375,0.8662109375,1.3125,0.3125,0.125
2.159999999999976,1.0,2.0,5.0,4.0,3.0,7.0,4.0,0.0,-0.1802978515625,0.20751953125,0.2421875,0.930419921875,-0.4814453125,-0.240234375,0.8662109375,1.3125,0.3125,0.125
2.164999999999976,2.0,0.0,-2.0,-1.0,-4.0,-3.0,1.0,0.0,-0.1802978515625,0.20751953125,0.2421875,0.930419921875,-0.4814453125,-0.240234375,0.8662109375,1.3125,0.3125,0.125
2.169999999999976,-2.0,0.0,-4.0,-1.0,-1.0,-2.0,-2.0,-3.0,-0.18023681640625,0.20758056640625,0.2421875,0.930419921875,-0.48291015625,-0.23095703125,0.85693359375,0.6875,0.375,0.1875
2.174999999999976,-2.0,0.0,-4.0,-1.0,-1.0,-2.0,-2.0,-3.0,-0.18023681640625,0.20758056640625,0.2421875,0.930419921875,-0.48291015625,-0.23095703125,0.85693359375,0.6875,0.375,0.1875
2.1799999999999757,-3.0,8.0,10.0,0.0,2.0,-1.0,-1.0,-2.0,-0.18023681640625,0.20758056640625,0.2421875,0.930419921875,-0.482421875,-0.23779296875,0.86865234375,0.375,0.0,0.0625
2.1849999999999756,-3.0,8.0,10.0,0.0,2.0,-1.0,-1.0,-2.0,-0.18023681640625,0.20758056640625,0.2421875,0.930419921875,-0.482421875,-0.23779296875,0.86865234375,0.375,0.0,0.0625
2.1899999999999755,-1.0,-6.0,11.0,-1.0,3.0,-1.0,-1.0,0.0,-0.18023681640625,0.20758056640625,0.2421875,0.930419921875,-0.47998046875,-0.234375,0.86572265625,-0.0625,-0.375,0.0625
2.1949999999999754,0.0,9.0,2.0,2.0,8.0,-1.0,3.0,2.0,-0.18023681640625,0.20758056640625,0.2421875,0.930419921875,-0.47998046875,-0.234375,0.86572265625,-0.0625,-0.375,0.0625
2.1999999999999753,0.0,9.0,2.0,2.0,8.0,-1.0,3.0,2.0,-0.18023681640625,0.20758056640625,0.2421875,0.930419921875,-0.4814453125,-0.23974609375,0.86669921875,-0.3125,-0.0625,-0.1875
2.204999999999975,0.0,3.0,-9.0,9.0,0.0,-3.0,-2.0,0.0,-0.18023681640625,0.20758056640625,0.2421875,0.930419921875,-0.4814453125,-0.23974609375,0.86669921875,-0.3125,-0.0625,-0.1875
2.209999999999975,0.0,-7.0,-29.0,8.0,5.0,-1.0,-1.0,-1.0,-0.18023681640625,0.20751953125,0.2421875,0.930419921875,-0.4775390625,-0.2333984375,0.86572265625,0.125,-0.125,-0.0625
2.214999999999975,-2.0,0.0,-1.0,-6.0,-4.0,1.0,4.0,-1.0,-0.18023681640625,0.20751953125,0.2421875,0.930419921875,-0.4775390625,-0.2333984375,0.86572265625,0.125,-0.125,-0.0625
2.219999999999975,-1.0,-3.0,-3.0,1.0,2.0,-2.0,-1.0,-1.0,-0.18023681640625,0.20751953125,0.2421875,0.930419921875,-0.48583984375,-0.24365234375,0.86328125,0.625,-0.0625,0.0
2.2249999999999748,-3.0,-10.0,2.0,-3.0,2.0,0.0,-2.0,-4.0,-0.18023681640625,0.20751953125,0.2421875,0.930419921875,-0.48583984375,-0.24365234375,0.86328125,0.625,-0.0625,0.0
2.2299999999999747,-3.0,-10.0,2.0,-3.0,2.0,0.0,-2.0,-4.0,-0.18023681640625,0.20751953125,0.2421875,0.930419921875,-0.48291015625,-0.23974609375,0.86669921875,0.75,-0.5625,-0.0625
2.2349999999999746,-5.0,-2.0,-1.0,-2.0,-7.0,-2.0,-3.0,-3.0,-0.18017578125,0.20758056640625,0.2421875,0.930419921875,-0.484375,-0.23193359375,0.869140625,0.6875,-0.4375,-0.4375
2.2399999999999745,-5.0,-2.0,-1.0,-2.0,-7.0,-2.0,-3.0,-3.0,-0.18017578125,0.20758056640625,0.2421875,0.930419921875,-0.484375,-0.23193359375,0.869140625,0.6875,-0.4375,-0.4375
2.2449999999999743,-1.0,-7.0,0.0,-5.0,-3.0,-5.0,-1.0,-2.0,-0.18017578125,0.20751953125,0.2421875,0.930419921875,-0.47705078125,-0.2353515625,0.86962890625,0.125,-0.4375,0.0
2.2499999999999742,1.0,6.0,8.0,-2.0,0.0,-2.0,-1.0,0.0,-0.18017578125,0.20751953125,0.2421875,0.930419921875,-0.478515625,-0.23876953125,0.87255859375,-0.125,-0.125,0.1875
2.254999999999974,-1.0,-1.0,5.0,4.0,2.0,-2.0,-1.0,-2.0,-0.18017578125,0.20751953125,0.2421875,0.930419921875,-0.478515625,-0.23876953125,0.87255859375,-0.125,-0.125,0.1875
2.259999999999974,-2.0,-2.0,-4.0,-3.0,-2.0,-3.0,-1.0,-1.0,-0.18017578125,0.20751953125,0.2421875,0.93048095703125,-0.478515625,-0.23681640625,0.8623046875,-0.4375,0.375,-0.125
2.264999999999974,2.0,-6.0,1.0,-4.0,-5.0,-1.0,-3.0,0.0,-0.18017578125,0.20751953125,0.2421875,0.93048095703125,-0.478515625,-0.23681640625,0.8623046875,-0.4375,0.375,-0.125
2.269999999999974,2.0,-6.0,1.0,-4.0,-5.0,-1.0,-3.0,0.0,-0.18017578125,0.20751953125,0.2421875,0.93048095703125,-0.48486328125,-0.23681640625,0.87451171875,-0.1875,0.25,-0.3125
2.2749999999999737,0.0,3.0,5.0,-2.0,-1.0,1.0,0.0,1.0,-0.18017578125,0.20751953125,0.2421875,0.93048095703125,-0.48486328125,-0.23681640625,0.87451171875,-0.1875,0.25,-0.3125
2.2799999999999736,-4.0,-6.0,-30.0,-4.0,-6.0,-3.0,-2.0,-2.0,-0.18017578125,0.20751953125,0.2421875,0.93048095703125,-0.48486328125,-0.23681640625,0.87451171875,-0.1875,0.25,-0.3125
2.2849999999999735,-3.0,-5.0,-5.0,2.0,3.0,-2.0,-3.0,0.0,-0.18017578125,0.20751953125,0.2421875,0.93048095703125,-0.48046875,-0.2421875,0.86474609375,-0.1875,0.0625,-0.375
2.2899999999999734,-2.0,14.0,21.0,1.0,-4.0,-3.0,0.0,-2.0,-0.18017578125,0.20751953125,0.2421875,0.93048095703125,-0.48046875,-0.2421875,0.86474609375,-0.1875,0.0625,-0.375
2.2949999999999733,-2.0,14.0,21.0,1.0,-4.0,-3.0,0.0,-2.0,-0.18011474609375,0.20745849609375,0.2421875,0.93048095703125,-0.47265625,-0.23583984375,0.86865234375,0.0625,0.625,-0.75
2.299999999999973,-1.0,-3.0,1.0,0.0,1.0,1.0,0.0,0.0,-0.18011474609375,0.20745849609375,0.2421875,0.93048095703125,-0.47265625,-0.23583984375,0.86865234375,0.0625,0.625,-0.75
2.304999999999973,0.0,0.0,8.0,1.0,-1.0,-2.0,-2.0,-1.0,-0.18011474609375,0.20745849609375,0.2421875,0.93048095703125,-0.47607421875,-0.23486328125,0.86572265625,0.1875,0.9375,-0.5625
2.309999999999973,0.0,3.0,-3.0,0.0,0.0,1.0,0.0,-1.0,-0.18011474609375,0.20745849609375,0.2421875,0.93048095703125,-0.47607421875,-0.23486328125,0.86572265625,0.1875,0.9375,-0.5625
2.314999999999973,0.0,3.0,-3.0,0.0,0.0,1.0,0.0,-1.0,-0.18011474609375,0.2076416015625,0.24212646484375,0.93048095703125,-0.47900390625,-0.23193359375,0.86865234375,-0.3125,1.4375,-0.5625
2.3199999999999728,-7.0,-12.0,-13.0,3.0,1.0,-3.0,-1.0,-3.0,-0.18011474609375,0.2076416015625,0.24212646484375,0.93048095703125,-0.47900390625,-0.23193359375,0.86865234375,-0.3125,1.4375,-0.5625
2.3249999999999726,-1.0,2.0,-1.0,1.0,1.0,1.0,-1.0,0.0,-0.18035888671875,0.207763671875,0.2420654296875,0.930419921875,-0.48095703125,-0.236328125,0.87158203125,-1.375,1.5,-0.5625
2.3299999999999725,-1.0,2.0,-1.0,1.0,1.0,1.0,-1.0,0.0,-0.18072509765625,0.2078857421875,0.24200439453125,0.9302978515625,-0.482421875,-0.23681640625,0.8671875,-1.9375,1.3125,-0.625
2.3349999999999724,2.0,1.0,-8.0,-7.0,-8.0,-2.0,1.0,0.0,-0.18072509765625,0.2078857421875,0.24200439453125,0.9302978515625,-0.482421875,-0.23681640625,0.8671875,-1.9375,1.3125,-0.625
2.3399999999999723,0.0,1.0,7.0,-2.0,7.0,2.0,-1.0,-2.0,-0.18072509765625,0.2078857421875,0.24200439453125,0.9302978515625,-0.482421875,-0.23681640625,0.8671875,-1.9375,1.3125,-0.625
2.344999999999972,0.0,1.0,7.0,-2.0,7.0,2.0,-1.0,-2.0,-0.1810302734375,0.2078857421875,0.24188232421875,0.9302978515625,-0.47802734375,-0.2373046875,0.86865234375,-1.875,1.0,-1.0625
2.349999999999972,0.0,5.0,-5.0,-4.0,-5.0,-3.0,-3.0,-1.0,-0.1810302734375,0.2078857421875,0.24188232421875,0.9302978515625,-0.47802734375,-0.2373046875,0.86865234375,-1.875,1.0,-1.0625
2.354999999999972,0.0,-4.0,-7.0,-1.0,-1.0,-3.0,0.0,-2.0,-0.181396484375,0.20794677734375,0.24169921875,0.93023681640625,-0.4833984375,-0.24169921875,0.861328125,-1.6875,1.125,-1.3125
2.359999999999972,0.0,-4.0,-7.0,-1.0,-1.0,-3.0,0.0,-2.0,-0.181396484375,0.20794677734375,0.24169921875,0.93023681640625,-0.4833984375,-0.24169921875,0.861328125,-1.6875,1.125,-1.3125
2.364999999999972,1.0,6.0,11.0,-6.0,-7.0,-3.0,-1.0,0.0,-0.18157958984375,0.2080078125,0.241455078125,0.93023681640625,-0.48291015625,-0.2373046875,0.86767578125,-1.125,1.1875,-1.4375
2.3699999999999717,1.0,6.0,11.0,-6.0,-7.0,-3.0,-1.0,0.0,-0.18157958984375,0.2080078125,0.241455078125,0.93023681640625,-0.48291015625,-0.2373046875,0.86767578125,-1.125,1.1875,-1.4375
2.3749999999999716,3.0,12.0,-12.0,23.0,14.0,0.0,-1.0,0.0,-0.18194580078125,0.2081298828125,0.24127197265625,0.93017578125,-0.48095703125,-0.24072265625,0.85986328125,-1.625,1.375,-1.3125
2.3799999999999715,-6.0,-6.0,-11.0,-1.0,4.0,0.0,-2.0,-2.0,-0.18194580078125,0.2081298828125,0.24127197265625,0.93017578125,-0.48095703125,-0.24072265625,0.85986328125,-1.625,1.375,-1.3125
2.3849999999999714,-2.0,-6.0,-4.0,-11.0,-7.0,-3.0,-2.0,0.0,-0.182373046875,0.20819091796875,0.24114990234375,0.93011474609375,-0.48486328125,-0.24462890625,0.86279296875,-2.0625,1.0625,-1.0
2.3899999999999713,-2.0,-6.0,-4.0,-11.0,-7.0,-3.0,-2.0,0.0,-0.182373046875,0.20819091796875,0.24114990234375,0.93011474609375,-0.48486328125,-0.24462890625,0.86279296875,-2.0625,1.0625,-1.0
2.394999999999971,-1.0,-25.0,-9.0,-3.0,-1.0,0.0,0.0,-1.0,-0.182373046875,0.20819091796875,0.24114990234375,0.93011474609375,-0.48486328125,-0.24462890625,0.86279296875,-2.0625,1.0625,-1.0
2.399999999999971,0.0,-2.0,7.0,-2.0,-3.0,-3.0,-1.0,0.0,-0.1827392578125,0.20831298828125,0.24114990234375,0.9300537109375,-0.48388671875,-0.24072265625,0.86279296875,-2.1875,1.1875,-0.5625
2.404999999999971,-2.0,1.0,2.0,-2.0,-5.0,0.0,-1.0,-3.0,-0.1827392578125,0.20831298828125,0.24114990234375,0.9300537109375,-0.48388671875,-0.24072265625,0.86279296875,-2.1875,1.1875,-0.5625
2.409999999999971,0.0,3.0,-1.0,3.0,7.0,1.0,1.0,0.0,-0.18316650390625,0.20843505859375,0.24102783203125,0.92999267578125,-0.484375,-0.24853515625,0.85546875,-1.875,1.25,-0.6875
2.4149999999999707,-3.0,5.0,5.0,-5.0,-3.0,-4.0,-1.0,0.0,-0.18341064453125,0.20849609375,0.24090576171875,0.929931640625,-0.48388671875,-0.2509765625,0.861328125,-0.875,1.0625,-0.75
2.4199999999999706,-3.0,5.0,5.0,-5.0,-3.0,-4.0,-1.0,0.0,-0.18341064453125,0.20849609375,0.24090576171875,0.929931640625,-0.48388671875,-0.2509765625,0.861328125,-0.875,1.0625,-0.75
2.4249999999999705,0.0,9.0,-7.0,0.0,-4.0,0.0,0.0,0.0,-0.18341064453125,0.20849609375,0.24090576171875,0.929931640625,-0.4833984375,-0.24755859375,0.86083984375,-0.0625,0.875,-0.5
2.4299999999999704,-2.0,-2.0,-9.0,-6.0,-3.0,0.0,-2.0,-1.0,-0.18341064453125,0.20849609375,0.24090576171875,0.929931640625,-0.4833984375,-0.24755859375,0.86083984375,-0.0625,0.875,-0.5
2.4349999999999703,-9.0,-9.0,10.0,-11.0,-8.0,-4.0,-4.0,-5.0,-0.18341064453125,0.20849609375,0.24090576171875,0.929931640625,-0.4814453125,-0.24853515625,0.86181640625,0.125,0.5625,-0.25
2.43999999999997,0.0,1.0,-8.0,-6.0,-8.0,-2.0,-1.0,-1.0,-0.1834716796875,0.20843505859375,0.24090576171875,0.929931640625,-0.4755859375,-0.25,0.86328125,0.375,0.375,0.0
2.44499999999997,3.0,7.0,0.0,3.0,2.0,1.0,0.0,1.0,-0.1834716796875,0.20843505859375,0.24090576171875,0.929931640625,-0.4755859375,-0.25,0.86328125,0.375,0.375,0.0
2.44999999999997,-3.0,1.0,2.0,-8.0,-3.0,-1.0,-1.0,0.0,-0.1834716796875,0.20843505859375,0.24090576171875,0.929931640625,-0.48388671875,-0.24853515625,0.86669921875,0.25,0.0,0.75
2.45499999999997,-2.0,-13.0,-9.0,6.0,5.0,-2.0,-3.0,-3.0,-0.1834716796875,0.20843505859375,0.24090576171875,0.929931640625,-0.48388671875,-0.24853515625,0.86669921875,0.25,0.0,0.75
2.4599999999999698,-2.0,-13.0,-9.0,6.0,5.0,-2.0,-3.0,-3.0,-0.18341064453125,0.20843505859375,0.24090576171875,0.929931640625,-0.4892578125,-0.24267578125,0.865234375,0.125,-0.625,0.8125
2.4649999999999697,-1.0,7.0,5.0,0.0,-2.0,-2.0,3.0,-1.0,-0.18341064453125,0.20843505859375,0.24090576171875,0.929931640625,-0.4921875,-0.24755859375,0.86376953125,0.25,-0.8125,0.9375
2.4699999999999696,1.0,3.0,16.0,-5.0,-2.0,0.0,-3.0,-1.0,-0.18341064453125,0.20843505859375,0.24090576171875,0.929931640625,-0.4921875,-0.24755859375,0.86376953125,0.25,-0.8125,0.9375
2.4749999999999694,-2.0,4.0,16.0,-7.0,-5.0,-5.0,-1.0,-3.0,-0.1834716796875,0.20849609375,0.24090576171875,0.929931640625,-0.48974609375,-0.2470703125,0.85693359375,0.75,-0.6875,0.75
2.4799999999999693,-2.0,4.0,16.0,-7.0,-5.0,-5.0,-1.0,-3.0,-0.1834716796875,0.20849609375,0.24090576171875,0.929931640625,-0.48974609375,-0.2470703125,0.85693359375,0.75,-0.6875,0.75
2.4849999999999692,-1.0,-4.0,-1.0,1.0,4.0,0.0,-3.0,-1.0,-0.1834716796875,0.20843505859375,0.24090576171875,0.929931640625,-0.48291015625,-0.244140625,0.8642578125,0.9375,-0.1875,0.375
2.489999999999969,-4.0,-12.0,-26.0,3.0,2.0,-2.0,-2.0,-1.0,-0.18341064453125,0.20843505859375,0.24090576171875,0.929931640625,-0.48291015625,-0.23779296875,0.86572265625,0.625,0.375,-0.0625
2.494999999999969,1.0,0.0,-2.0,3.0,6.0,-1.0,-2.0,-1.0,-0.18341064453125,0.20843505859375,0.24090576171875,0.929931640625,-0.48291015625,-0.23779296875,0.86572265625,0.625,0.375,-0.0625
2.499999999999969,-1.0,1.0,2.0,0.0,-1.0,-3.0,-1.0,-1.0,-0.18341064453125,0.20843505859375,0.24090576171875,0.929931640625,-0.47900390625,-0.2421875,0.87548828125,0.375,0.9375,-0.625
2.504999999999969,-1.0,-2.0,-3.0,10.0,3.0,-1.0,1.0,-2.0,-0.18341064453125,0.20843505859375,0.24090576171875,0.929931640625,-0.47900390625,-0.2421875,0.87548828125,0.375,0.9375,-0.625
2.5099999999999687,1.0,6.0,5.0,0.0,-2.0,-1.0,-2.0,-1.0,-0.18341064453125,0.20843505859375,0.24090576171875,0.929931640625,-0.47900390625,-0.2421875,0.87548828125,0.375,0.9375,-0.625
2.5149999999999686,1.0,6.0,5.0,0.0,-2.0,-1.0,-2.0,-1.0,-0.183349609375,0.20855712890625,0.2408447265625,0.929931640625,-0.48291015625,-0.2373046875,0.865234375,-0.25,1.0,-0.375
2.5199999999999685,-1.0,-2.0,-4.0,-4.0,-2.0,-3.0,-2.0,-2.0,-0.183349609375,0.20855712890625,0.2408447265625,0.929931640625,-0.48291015625,-0.2373046875,0.865234375,-0.25,1.0,-0.375
2.5249999999999684,0.0,-3.0,4.0,-1.0,-4.0,-1.0,-2.0,0.0,-0.18359375,0.2086181640625,0.24078369140625,0.929931640625,-0.47705078125,-0.24169921875,0.86376953125,-1.5,1.25,-0.6875
2.5299999999999683,0.0,-3.0,4.0,-1.0,-4.0,-1.0,-2.0,0.0,-0.18359375,0.2086181640625,0.24078369140625,0.929931640625,-0.47705078125,-0.24169921875,0.86376953125,-1.5,1.25,-0.6875
2.534999999999968,-1.0,-2.0,8.0,-8.0,-4.0,0.0,-2.0,-1.0,-0.18359375,0.20855712890625,0.24078369140625,0.929931640625,-0.48046875,-0.2451171875,0.86328125,-0.8125,0.875,-0.5625
2.539999999999968,1.0,2.0,-7.0,16.0,18.0,2.0,-1.0,2.0,-0.18359375,0.20855712890625,0.24078369140625,0.929931640625,-0.48046875,-0.2451171875,0.86328125,-0.8125,0.875,-0.5625
2.544999999999968,-1.0,-2.0,-7.0,0.0,4.0,-1.0,0.0,-2.0,-0.18359375,0.20855712890625,0.24078369140625,0.929931640625,-0.48046875,-0.2451171875,0.86328125,-0.8125,0.875,-0.5625
2.549999999999968,-2.0,-4.0,-8.0,-6.0,-10.0,-4.0,-1.0,-3.0,-0.183837890625,0.20867919921875,0.24078369140625,0.92987060546875,-0.49072265625,-0.24560546875,0.85400390625,-1.0625,0.1875,-0.125
2.5549999999999677,-3.0,-2.0,3.0,-5.0,1.0,0.0,-2.0,-1.0,-0.183837890625,0.20867919921875,0.24078369140625,0.92987060546875,-0.48779296875,-0.2490234375,0.85302734375,-0.9375,0.5,0.625
2.5599999999999676,-1.0,12.0,3.0,-10.0,-8.0,-4.0,-2.0,0.0,-0.183837890625,0.20867919921875,0.24078369140625,0.92987060546875,-0.48779296875,-0.2490234375,0.85302734375,-0.9375,0.5,0.625
2.5649999999999675,0.0,6.0,3.0,2.0,-3.0,-1.0,-1.0,-1.0,-0.183837890625,0.20867919921875,0.24078369140625,0.92987060546875,-0.48779296875,-0.2490234375,0.85302734375,-0.9375,0.5,0.625
2.5699999999999674,3.0,-2.0,8.0,-1.0,-3.0,-2.0,0.0,1.0,-0.18402099609375,0.2088623046875,0.24090576171875,0.92974853515625,-0.49658203125,-0.26416015625,0.85693359375,0.1875,0.3125,1.125
2.5749999999999673,-1.0,-11.0,-26.0,-15.0,-14.0,-3.0,-1.0,0.0,-0.18402099609375,0.2088623046875,0.24090576171875,0.92974853515625,-0.49658203125,-0.26416015625,0.85693359375,0.1875,0.3125,1.125
2.579999999999967,-1.0,-11.0,-26.0,-15.0,-14.0,-3.0,-1.0,0.0,-0.1837158203125,0.20904541015625,0.24102783203125,0.9296875,-0.49755859375,-0.25830078125,0.86474609375,2.125,0.0625,1.5
2.584999999999967,-2.0,-5.0,10.0,2.0,-4.0,-1.0,-1.0,-2.0,-0.1834716796875,0.2091064453125,0.24151611328125,0.92962646484375,-0.4892578125,-0.2490234375,0.85888671875,1.0,-0.6875,3.0
2.589999999999967,-5.0,-7.0,-17.0,1.0,-2.0,-5.0,-2.0,-2.0,-0.1834716796875,0.2091064453125,0.24151611328125,0.92962646484375,-0.4892578125,-0.2490234375,0.85888671875,1.0,-0.6875,3.0
2.594999999999967,-3.0,-3.0,-17.0,-6.0,1.0,1.0,-2.0,-2.0,-0.1834716796875,0.2091064453125,0.24151611328125,0.92962646484375,-0.4892578125,-0.2490234375,0.85888671875,1.0,-0.6875,3.0
2.599999999999967,-3.0,-3.0,-17.0,-6.0,1.0,1.0,-2.0,-2.0,-0.18359375,0.208984375,0.24261474609375,0.92938232421875,-0.4912109375,-0.2412109375,0.8642578125,-2.6875,-1.625,5.75
2.6049999999999667,-5.0,-1.0,-4.0,-4.0,-4.0,-2.0,-2.0,-3.0,-0.18377685546875,0.2088623046875,0.24407958984375,0.928955078125,-0.47705078125,-0.24755859375,0.865234375,-3.0625,-0.8125,8.5
2.6099999999999666,-1.0,3.0,-12.0,12.0,5.0,-2.0,0.0,-1.0,-0.18377685546875,0.2088623046875,0.24407958984375,0.928955078125,-0.47705078125,-0.24755859375,0.865234375,-3.0625,-0.8125,8.5
2.6149999999999665,-1.0,3.0,-12.0,12.0,5.0,-2.0,0.0,-1.0,-0.18377685546875,0.2088623046875,0.24578857421875,0.92852783203125,-0.4658203125,-0.2646484375,0.8798828125,-1.6875,0.875,10.625
2.6199999999999664,-2.0,8.0,1.0,-5.0,-6.0,-1.0,-3.0,-1.0,-0.18377685546875,0.2088623046875,0.24578857421875,0.92852783203125,-0.4658203125,-0.2646484375,0.8798828125,-1.6875,0.875,10.625
2.6249999999999662,0.0,4.0,10.0,4.0,5.0,0.0,-1.0,1.0,-0.18377685546875,0.2088623046875,0.24578857421875,0.92852783203125,-0.4658203125,-0.2646484375,0.8798828125,-1.6875,0.875,10.625
2.629999999999966,-1.0,0.0,2.0,-3.0,-4.0,-1.0,-1.0,0.0,-0.18389892578125,0.20928955078125,0.2476806640625,0.9278564453125,-0.47216796875,-0.2451171875,0.8828125,-3.3125,3.0,11.5625
2.634999999999966,1.0,4.0,7.0,-1.0,-3.0,0.0,1.0,0.0,-0.18389892578125,0.20928955078125,0.2476806640625,0.9278564453125,-0.47216796875,-0.2451171875,0.8828125,-3.3125,3.0,11.5625
2.639999999999966,1.0,4.0,7.0,-1.0,-3.0,0.0,1.0,0.0,-0.18438720703125,0.21002197265625,0.25,0.927001953125,-0.48828125,-0.25,0.88134765625,-5.1875,3.9375,14.0625
2.644999999999966,-1.0,-4.0,6.0,-1.0,-1.0,1.0,-1.0,0.0,-0.18438720703125,0.21002197265625,0.25,0.927001953125,-0.48828125,-0.25,0.88134765625,-5.1875,3.9375,14.0625
2.6499999999999657,-2.0,-1.0,5.0,0.0,-2.0,-1.0,-2.0,-2.0,-0.18438720703125,0.21002197265625,0.25,0.927001953125,-0.48828125,-0.25,0.88134765625,-5.1875,3.9375,14.0625
2.6549999999999656,3.0,8.0,8.0,-1.0,-1.0,0.0,2.0,0.0,-0.184814453125,0.210693359375,0.25225830078125,0.9261474609375,-0.4873046875,-0.2392578125,0.86669921875,-4.9375,3.3125,13.375
2.6599999999999655,-1.0,-2.0,-8.0,3.0,0.0,0.0,2.0,-2.0,-0.184814453125,0.210693359375,0.25225830078125,0.9261474609375,-0.4873046875,-0.2392578125,0.86669921875,-4.9375,3.3125,13.375
2.6649999999999654,-1.0,-2.0,-8.0,3.0,0.0,0.0,2.0,-2.0,-0.18475341796875,0.21142578125,0.2542724609375,0.9254150390625,-0.4853515625,-0.22607421875,0.84619140625,-2.6875,2.875,12.25
2.6699999999999653,0.0,2.0,5.0,2.0,1.0,0.0,-2.0,0.0,-0.18475341796875,0.21142578125,0.2542724609375,0.9254150390625,-0.4853515625,-0.22607421875,0.84619140625,-2.6875,2.875,12.25
2.674999999999965,0.0,2.0,5.0,2.0,1.0,0.0,-2.0,0.0,-0.18475341796875,0.21142578125,0.2542724609375,0.9254150390625,-0.4853515625,-0.22607421875,0.84619140625,-2.6875,2.875,12.25
2.679999999999965,0.0,2.0,-2.0,1.0,0.0,1.0,0.0,1.0,-0.18408203125,0.2122802734375,0.255859375,0.9249267578125,-0.48974609375,-0.20751953125,0.841796875,0.9375,2.3125,9.9375
2.684999999999965,-2.0,-3.0,1.0,-7.0,-7.0,-1.0,-3.0,-2.0,-0.1834716796875,0.21282958984375,0.25714111328125,0.924560546875,-0.49169921875,-0.18896484375,0.84619140625,-0.3125,0.9375,7.3125
2.689999999999965,0.0,1.0,-3.0,0.0,0.0,1.0,-3.0,-2.0,-0.1834716796875,0.21282958984375,0.25714111328125,0.924560546875,-0.49169921875,-0.18896484375,0.84619140625,-0.3125,0.9375,7.3125
2.6949999999999648,1.0,5.0,13.0,-2.0,2.0,-1.0,-1.0,0.0,-0.18359375,0.2130126953125,0.25811767578125,0.92425537109375,-0.50341796875,-0.1943359375,0.84814453125,-4.5,-0.25,4.1875
2.6999999999999647,-2.0,-1.0,2.0,1.0,5.0,2.0,0.0,-1.0,-0.18359375,0.2130126953125,0.25811767578125,0.92425537109375,-0.50341796875,-0.1943359375,0.84814453125,-4.5,-0.25,4.1875
2.7049999999999645,-2.0,-1.0,2.0,1.0,5.0,2.0,0.0,-1.0,-0.18414306640625,0.2127685546875,0.25885009765625,0.9239501953125,-0.49462890625,-0.21484375,0.8466796875,-5.375,-0.875,2.5
2.7099999999999644,1.0,-7.0,-9.0,1.0,-5.0,-4.0,-2.0,-1.0,-0.18414306640625,0.2127685546875,0.25885009765625,0.9239501953125,-0.49462890625,-0.21484375,0.8466796875,-5.375,-0.875,2.5
2.7149999999999643,-3.0,0.0,-7.0,1.0,-3.0,-3.0,-1.0,-1.0,-0.18414306640625,0.2127685546875,0.25885009765625,0.9239501953125,-0.49462890625,-0.21484375,0.8466796875,-5.375,-0.875,2.5
2.7199999999999642,-3.0,0.0,-7.0,1.0,-3.0,-3.0,-1.0,-1.0,-0.18487548828125,0.21246337890625,0.259033203125,0.923828125,-0.50341796875,-0.22216796875,0.86572265625,-5.5625,-0.9375,-0.5
2.724999999999964,-3.0,-1.0,4.0,-3.0,3.0,0.0,-2.0,-2.0,-0.18487548828125,0.21246337890625,0.259033203125,0.923828125,-0.50341796875,-0.22216796875,0.86572265625,-5.5625,-0.9375,-0.5
2.729999999999964,-1.0,-5.0,-3.0,-5.0,-3.0,-1.0,-2.0,-1.0,-0.18572998046875,0.2119140625,0.2589111328125,0.923828125,-0.50439453125,-0.23779296875,0.86474609375,-5.5,-1.375,-2.4375
2.734999999999964,-1.0,-5.0,-3.0,-5.0,-3.0,-1.0,-2.0,-1.0,-0.18572998046875,0.2119140625,0.2589111328125,0.923828125,-0.50439453125,-0.23779296875,0.86474609375,-5.5,-1.375,-2.4375
2.739999999999964,-1.0,-1.0,-4.0,-1.0,-3.0,-2.0,-1.0,-1.0,-0.18646240234375,0.21124267578125,0.2584228515625,0.92401123046875,-0.482421875,-0.228515625,0.8662109375,-4.9375,-1.1875,-4.5625
2.7449999999999637,-1.0,-5.0,-4.0,2.0,2.0,1.0,-1.0,-1.0,-0.18646240234375,0.21124267578125,0.2584228515625,0.92401123046875,-0.482421875,-0.228515625,0.8662109375,-4.9375,-1.1875,-4.5625
2.7499999999999636,0.0,-5.0,-1.0,-11.0,-11.0,-4.0,1.0,-1.0,-0.18646240234375,0.21124267578125,0.2584228515625,0.92401123046875,-0.482421875,-0.228515625,0.8662109375,-4.9375,-1.1875,-4.5625
2.7549999999999635,0.0,-5.0,-1.0,-11.0,-11.0,-4.0,1.0,-1.0,-0.1875,0.21051025390625,0.2579345703125,0.924072265625,-0.47705078125,-0.22216796875,0.8720703125,-7.625,-0.4375,-5.1875
2.7599999999999634,-2.0,-1.0,-6.0,8.0,7.0,-1.0,1.0,-1.0,-0.1875,0.21051025390625,0.2579345703125,0.924072265625,-0.47705078125,-0.22216796875,0.8720703125,-7.625,-0.4375,-5.1875
2.7649999999999633,-1.0,-6.0,0.0,5.0,4.0,0.0,-2.0,-1.0,-0.18927001953125,0.20947265625,0.25775146484375,0.92401123046875,-0.46484375,-0.23291015625,0.876953125,-11.875,-0.0625,-4.0625
2.769999999999963,-1.0,-3.0,1.0,-5.0,-6.0,0.0,-1.0,-1.0,-0.18927001953125,0.20947265625,0.25775146484375,0.92401123046875,-0.46484375,-0.23291015625,0.876953125,-11.875,-0.0625,-4.0625
2.774999999999963,-1.0,-3.0,0.0,0.0,2.0,-1.0,-1.0,-2.0,-0.19140625,0.20855712890625,0.25799560546875,0.9237060546875,-0.46728515625,-0.240234375,0.88818359375,-14.375,1.1875,-2.0
2.779999999999963,-4.0,-12.0,2.0,-8.0,-6.0,-3.0,-2.0,-2.0,-0.19140625,0.20855712890625,0.25799560546875,0.9237060546875,-0.46728515625,-0.240234375,0.88818359375,-14.375,1.1875,-2.0
2.784999999999963,-4.0,-12.0,2.0,-8.0,-6.0,-3.0,-2.0,-2.0,-0.19403076171875,0.20819091796875,0.25848388671875,0.923095703125,-0.50634765625,-0.2880859375,0.87109375,-14.3125,1.75,0.6875
2.7899999999999627,-3.0,0.0,-8.0,7.0,1.0,0.0,0.0,1.0,-0.19403076171875,0.20819091796875,0.25848388671875,0.923095703125,-0.50634765625,-0.2880859375,0.87109375,-14.3125,1.75,0.6875
2.7949999999999626,0.0,-1.0,-5.0,2.0,5.0,3.0,-2.0,-2.0,-0.19647216796875,0.2081298828125,0.25872802734375,0.92254638671875,-0.51953125,-0.298828125,0.8369140625,-11.125,1.6875,0.1875
2.7999999999999625,-1.0,-7.0,-6.0,-4.0,2.0,-1.0,-1.0,1.0,-0.19647216796875,0.2081298828125,0.25872802734375,0.92254638671875,-0.51953125,-0.298828125,0.8369140625,-11.125,1.6875,0.1875
2.8049999999999624,-3.0,1.0,3.0,-6.0,-7.0,-1.0,-2.0,-3.0,-0.19647216796875,0.2081298828125,0.25872802734375,0.92254638671875,-0.51953125,-0.298828125,0.8369140625,-11.125,1.6875,0.1875
2.8099999999999623,-2.0,-8.0,-14.0,-4.0,-3.0,-1.0,-1.0,-2.0,-0.19781494140625,0.2083740234375,0.2587890625,0.92218017578125,-0.51513671875,-0.2900390625,0.82470703125,-5.4375,1.625,0.125
2.814999999999962,-1.0,-1.0,2.0,-3.0,-4.0,1.0,-1.0,1.0,-0.19781494140625,0.2083740234375,0.2587890625,0.92218017578125,-0.51513671875,-0.2900390625,0.82470703125,-5.4375,1.625,0.125
2.819999999999962,-1.0,-1.0,2.0,-3.0,-4.0,1.0,-1.0,1.0,-0.1983642578125,0.20867919921875,0.2587890625,0.9219970703125,-0.5029296875,-0.271484375,0.82275390625,-1.625,1.5,0.3125
2.824999999999962,0.0,-1.0,8.0,1.0,-1.0,-1.0,0.0,1.0,-0.1983642578125,0.20867919921875,0.2587890625,0.9219970703125,-0.5029296875,-0.271484375,0.82275390625,-1.625,1.5,0.3125
2.829999999999962,-2.0,-1.0,-13.0,1.0,0.0,-2.0,-2.0,-2.0,-0.1983642578125,0.2091064453125,0.25897216796875,0.92181396484375,-0.501953125,-0.2568359375,0.83984375,0.125,1.5625,1.25
2.8349999999999618,-2.0,-1.0,-13.0,1.0,0.0,-2.0,-2.0,-2.0,-0.1983642578125,0.2091064453125,0.25897216796875,0.92181396484375,-0.501953125,-0.2568359375,0.83984375,0.125,1.5625,1.25
2.8399999999999617,-5.0,5.0,-3.0,-6.0,-7.0,-4.0,-3.0,-4.0,-0.198486328125,0.20928955078125,0.2591552734375,0.92169189453125,-0.4853515625,-0.2626953125,0.85205078125,-0.75,1.875,1.5
2.8449999999999616,0.0,4.0,1.0,6.0,6.0,-2.0,1.0,-1.0,-0.198486328125,0.20928955078125,0.2591552734375,0.92169189453125,-0.4853515625,-0.2626953125,0.85205078125,-0.75,1.875,1.5
2.8499999999999615,2.0,0.0,0.0,-1.0,-15.0,-2.0,-1.0,0.0,-0.198486328125,0.20928955078125,0.2591552734375,0.92169189453125,-0.4853515625,-0.2626953125,0.85205078125,-0.75,1.875,1.5
2.8549999999999613,2.0,0.0,0.0,-1.0,-15.0,-2.0,-1.0,0.0,-0.19873046875,0.20941162109375,0.25927734375,0.92156982421875,-0.48291015625,-0.2685546875,0.8603515625,-1.1875,2.4375,1.125
2.8599999999999612,-1.0,4.0,8.0,-13.0,-5.0,-1.0,-4.0,-1.0,-0.19873046875,0.20941162109375,0.25927734375,0.92156982421875,-0.48291015625,-0.2685546875,0.8603515625,-1.1875,2.4375,1.125
2.864999999999961,-1.0,4.0,8.0,-13.0,-5.0,-1.0,-4.0,-1.0,-0.19873046875,0.20941162109375,0.25927734375,0.92156982421875,-0.48291015625,-0.2685546875,0.8603515625,-1.1875,2.4375,1.125
2.869999999999961,1.0,1.0,-5.0,10.0,14.0,2.0,2.0,1.0,-0.19891357421875,0.20965576171875,0.25946044921875,0.92144775390625,-0.48828125,-0.24462890625,0.86962890625,-2.5625,2.8125,0.6875
2.874999999999961,1.0,1.0,-5.0,10.0,14.0,2.0,2.0,1.0,-0.19891357421875,0.20965576171875,0.25946044921875,0.92144775390625,-0.48828125,-0.24462890625,0.86962890625,-2.5625,2.8125,0.6875
2.879999999999961,-1.0,-7.0,-6.0,1.0,3.0,0.0,-2.0,1.0,-0.19891357421875,0.20965576171875,0.25946044921875,0.92144775390625,-0.48828125,-0.24462890625,0.86962890625,-2.5625,2.8125,0.6875
2.8849999999999607,-1.0,-7.0,-6.0,1.0,3.0,0.0,-2.0,1.0,-0.1993408203125,0.21002197265625,0.2596435546875,0.92120361328125,-0.5,-0.24560546875,0.8681640625,-3.5625,3.25,0.625
2.8899999999999606,2.0,2.0,3.0,-4.0,0.0,-1.0,0.0,0.0,-0.1993408203125,0.21002197265625,0.2596435546875,0.92120361328125,-0.5,-0.24560546875,0.8681640625,-3.5625,3.25,0.625
2.8949999999999605,2.0,2.0,3.0,-4.0,0.0,-1.0,0.0,0.0,-0.20025634765625,0.21044921875,0.25982666015625,0.92083740234375,-0.5048828125,-0.24853515625,0.85693359375,-6.3125,4.0625,0.25
2.8999999999999604,0.0,0.0,2.0,-4.0,1.0,1.0,-2.0,-2.0,-0.20025634765625,0.21044921875,0.25982666015625,0.92083740234375,-0.5048828125,-0.24853515625,0.85693359375,-6.3125,4.0625,0.25
2.9049999999999603,3.0,18.0,18.0,-2.0,-3.0,-2.0,0.0,-2.0,-0.20147705078125,0.210693359375,0.25982666015625,0.92059326171875,-0.50439453125,-0.26513671875,0.865234375,-6.6875,3.875,-1.125
2.90999999999996,-7.0,-24.0,-25.0,-9.0,-8.0,-3.0,-3.0,-3.0,-0.20147705078125,0.210693359375,0.25982666015625,0.92059326171875,-0.50439453125,-0.26513671875,0.865234375,-6.6875,3.875,-1.125
2.91499999999996,-3.0,-6.0,-2.0,-2.0,1.0,0.0,0.0,-2.0,-0.20245361328125,0.2109375,0.259521484375,0.92034912109375,-0.50732421875,-0.27490234375,0.85400390625,-4.625,3.5,-1.9375
2.91999999999996,1.0,5.0,11.0,-1.0,-1.0,-2.0,0.0,0.0,-0.20245361328125,0.2109375,0.259521484375,0.92034912109375,-0.50732421875,-0.27490234375,0.85400390625,-4.625,3.5,-1.9375
2.92499999999996,-4.0,-12.0,-8.0,4.0,0.0,0.0,-2.0,-2.0,-0.20245361328125,0.2109375,0.259521484375,0.92034912109375,-0.50732421875,-0.27490234375,0.85400390625,-4.625,3.5,-1.9375
2.9299999999999597,-4.0,-12.0,-8.0,4.0,0.0,0.0,-2.0,-2.0,-0.20318603515625,0.21124267578125,0.2591552734375,0.92022705078125,-0.5087890625,-0.27587890625,0.84619140625,-2.6875,2.75,-2.0625
2.9349999999999596,2.0,13.0,17.0,6.0,2.0,-1.0,1.0,2.0,-0.20318603515625,0.21124267578125,0.2591552734375,0.92022705078125,-0.5087890625,-0.27587890625,0.84619140625,-2.6875,2.75,-2.0625
2.9399999999999595,-3.0,-11.0,-25.0,-4.0,-6.0,-4.0,-1.0,-2.0,-0.20379638671875,0.211181640625,0.25885009765625,0.92022705078125,-0.49853515625,-0.279296875,0.85107421875,-2.8125,1.8125,-2.0
2.9449999999999594,-1.0,-4.0,-3.0,-2.0,-1.0,0.0,-1.0,-3.0,-0.20379638671875,0.211181640625,0.25885009765625,0.92022705078125,-0.49853515625,-0.279296875,0.85107421875,-2.8125,1.8125,-2.0
2.9499999999999593,2.0,-4.0,2.0,0.0,-2.0,-1.0,0.0,1.0,-0.20379638671875,0.211181640625,0.25885009765625,0.92022705078125,-0.49853515625,-0.279296875,0.85107421875,-2.8125,1.8125,-2.0
2.954999999999959,2.0,0.0,-3.0,-4.0,0.0,-1.0,0.0,-1.0,-0.20440673828125,0.211181640625,0.25872802734375,0.92010498046875,-0.4921875,-0.29345703125,0.83984375,-2.0625,1.75,-0.375
2.959999999999959,1.0,2.0,8.0,-1.0,3.0,1.0,-1.0,-1.0,-0.20440673828125,0.211181640625,0.25872802734375,0.92010498046875,-0.4921875,-0.29345703125,0.83984375,-2.0625,1.75,-0.375
2.964999999999959,-1.0,2.0,-6.0,-7.0,-7.0,0.0,1.0,0.0,-0.204833984375,0.21142578125,0.25885009765625,0.919921875,-0.4892578125,-0.2900390625,0.8388671875,-1.0,2.4375,1.5625
2.969999999999959,-1.0,1.0,-2.0,-4.0,-1.0,-1.0,-2.0,0.0,-0.20513916015625,0.21185302734375,0.25933837890625,0.91961669921875,-0.4990234375,-0.27880859375,0.83349609375,-1.75,2.75,3.5
2.974999999999959,-1.0,1.0,-2.0,-4.0,-1.0,-1.0,-2.0,0.0,-0.20513916015625,0.21185302734375,0.25933837890625,0.91961669921875,-0.4990234375,-0.27880859375,0.83349609375,-1.75,2.75,3.5
2.9799999999999587,-4.0,6.0,0.0,-3.0,-6.0,-4.0,-1.0,-2.0,-0.20513916015625,0.21185302734375,0.25933837890625,0.91961669921875,-0.4990234375,-0.27880859375,0.83349609375,-1.75,2.75,3.5
2.9849999999999586,-2.0,-6.0,-5.0,0.0,-3.0,-1.0,-3.0,-1.0,-0.2056884765625,0.21240234375,0.25994873046875,0.919189453125,-0.50244140625,-0.2880859375,0.82373046875,-1.875,3.0625,4.125
2.9899999999999585,4.0,-1.0,6.0,0.0,-6.0,-1.0,1.0,2.0,-0.2056884765625,0.21240234375,0.25994873046875,0.919189453125,-0.50244140625,-0.2880859375,0.82373046875,-1.875,3.0625,4.125
2.9949999999999584,4.0,-1.0,6.0,0.0,-6.0,-1.0,1.0,2.0,-0.20574951171875,0.2132568359375,0.260498046875,0.9188232421875,-0.5146484375,-0.28564453125,0.81787109375,0.8125,3.3125,4.625
2.9999999999999583,1.0,5.0,-2.0,-1.0,3.0,0.0,-1.0,0.0,-0.20526123046875,0.2142333984375,0.26092529296875,0.9185791015625,-0.52685546875,-0.27734375,0.82373046875,4.0,2.875,4.625
3.004999999999958,1.0,5.0,-2.0,-1.0,3.0,0.0,-1.0,0.0,-0.20526123046875,0.2142333984375,0.26092529296875,0.9185791015625,-0.52685546875,-0.27734375,0.82373046875,4.0,2.875,4.625
3.009999999999958,-4.0,-2.0,-16.0,-6.0,-6.0,-3.0,-2.0,-2.0,-0.20452880859375,0.21514892578125,0.261474609375,0.91839599609375,-0.533203125,-0.2646484375,0.8388671875,3.9375,1.875,4.25
3.014999999999958,-2.0,3.0,4.0,15.0,10.0,1.0,-1.0,-1.0,-0.20452880859375,0.21514892578125,0.261474609375,0.91839599609375,-0.533203125,-0.2646484375,0.8388671875,3.9375,1.875,4.25
3.019999999999958,-2.0,3.0,4.0,15.0,10.0,1.0,-1.0,-1.0,-0.2039794921875,0.21575927734375,0.261962890625,0.918212890625,-0.5390625,-0.2705078125,0.84716796875,3.0625,0.6875,4.0
3.0249999999999577,0.0,9.0,-4.0,5.0,0.0,0.0,0.0,-1.0,-0.2039794921875,0.21575927734375,0.261962890625,0.918212890625,-0.5390625,-0.2705078125,0.84716796875,3.0625,0.6875,4.0
3.0299999999999576,-3.0,-17.0,-8.0,-9.0,-7.0,-3.0,-2.0,-3.0,-0.2039794921875,0.21575927734375,0.261962890625,0.918212890625,-0.5390625,-0.2705078125,0.84716796875,3.0625,0.6875,4.0
3.0349999999999575,-3.0,-17.0,-8.0,-9.0,-7.0,-3.0,-2.0,-3.0,-0.2032470703125,0.21600341796875,0.2625732421875,0.91815185546875,-0.51611328125,-0.271484375,0.84326171875,3.625,-0.4375,4.4375
3.0399999999999574,0.0,-1.0,2.0,4.0,-3.0,-2.0,-1.0,0.0,-0.20233154296875,0.2159423828125,0.26318359375,0.918212890625,-0.4990234375,-0.26611328125,0.8564453125,4.125,-1.0,4.875
3.0449999999999573,-1.0,4.0,7.0,6.0,4.0,0.0,-2.0,-2.0,-0.20233154296875,0.2159423828125,0.26318359375,0.918212890625,-0.4990234375,-0.26611328125,0.8564453125,4.125,-1.0,4.875
3.049999999999957,-1.0,4.0,7.0,6.0,4.0,0.0,-2.0,-2.0,-0.20135498046875,0.2159423828125,0.263916015625,0.918212890625,-0.48974609375,-0.2607421875,0.8544921875,3.9375,-0.75,5.4375
3.054999999999957,1.0,3.0,3.0,1.0,-2.0,-1.0,-3.0,0.0,-0.20135498046875,0.2159423828125,0.263916015625,0.918212890625,-0.48974609375,-0.2607421875,0.8544921875,3.9375,-0.75,5.4375
3.059999999999957,-2.0,-1.0,8.0,-7.0,-6.0,-1.0,0.0,1.0,-0.20135498046875,0.2159423828125,0.263916015625,0.918212890625,-0.48974609375,-0.2607421875,0.8544921875,3.9375,-0.75,5.4375
3.064999999999957,-1.0,-10.0,-13.0,1.0,-3.0,-3.0,-1.0,1.0,-0.20050048828125,0.2158203125,0.2650146484375,0.9180908203125,-0.484375,-0.2470703125,0.85595703125,1.9375,-0.875,6.5625
3.0699999999999568,-1.0,-4.0,-5.0,-8.0,-9.0,-1.0,-1.0,-1.0,-0.1998291015625,0.21575927734375,0.26611328125,0.91796875,-0.49267578125,-0.2529296875,0.85791015625,1.1875,-0.8125,7.0
3.0749999999999567,-1.0,-4.0,-5.0,-8.0,-9.0,-1.0,-1.0,-1.0,-0.1998291015625,0.21575927734375,0.26611328125,0.91796875,-0.49267578125,-0.2529296875,0.85791015625,1.1875,-0.8125,7.0
3.0799999999999566,0.0,-1.0,2.0,2.0,3.0,1.0,0.0,-2.0,-0.1993408203125,0.21563720703125,0.26727294921875,0.917724609375,-0.49755859375,-0.24609375,0.8515625,0.125,-1.25,6.8125
3.0849999999999564,2.0,-5.0,10.0,-3.0,-3.0,-2.0,-2.0,-1.0,-0.1993408203125,0.21563720703125,0.26727294921875,0.917724609375,-0.49755859375,-0.24609375,0.8515625,0.125,-1.25,6.8125
3.0899999999999563,2.0,-5.0,10.0,-3.0,-3.0,-2.0,-2.0,-1.0,-0.19903564453125,0.21539306640625,0.2684326171875,0.91754150390625,-0.50146484375,-0.24169921875,0.85205078125,-1.5,-2.0,6.3125
3.0949999999999562,-1.0,-4.0,-9.0,3.0,9.0,-2.0,0.0,-3.0,-0.19903564453125,0.21539306640625,0.2684326171875,0.91754150390625,-0.50146484375,-0.24169921875,0.85205078125,-1.5,-2.0,6.3125
3.099999999999956,1.0,2.0,-1.0,-3.0,1.0,0.0,-1.0,0.0,-0.19879150390625,0.2149658203125,0.26953125,0.9173583984375,-0.49658203125,-0.23974609375,0.84033203125,-1.625,-3.0625,5.5
3.104999999999956,0.0,6.0,11.0,-3.0,-8.0,-2.0,-1.0,1.0,-0.19879150390625,0.2149658203125,0.26953125,0.9173583984375,-0.49658203125,-0.23974609375,0.84033203125,-1.625,-3.0625,5.5
3.109999999999956,-5.0,-7.0,-16.0,-4.0,-1.0,-1.0,-4.0,-2.0,-0.19842529296875,0.214599609375,0.2705078125,0.917236328125,-0.5048828125,-0.23193359375,0.84716796875,-1.5625,-3.0625,4.5
3.114999999999956,-5.0,-7.0,-16.0,-4.0,-1.0,-1.0,-4.0,-2.0,-0.19842529296875,0.214599609375,0.2705078125,0.917236328125,-0.5048828125,-0.23193359375,0.84716796875,-1.5625,-3.0625,4.5
3.1199999999999557,-1.0,7.0,3.0,1.0,1.0,0.0,1.0,-3.0,-0.1982421875,0.21441650390625,0.27142333984375,0.91705322265625,-0.51513671875,-0.23291015625,0.837890625,-1.5,-2.6875,4.3125
3.1249999999999556,-1.0,0.0,-12.0,5.0,2.0,-1.0,1.0,-1.0,-0.1982421875,0.21435546875,0.27197265625,0.91693115234375,-0.51953125,-0.22802734375,0.8310546875,-2.25,-1.625,2.125
3.1299999999999555,-5.0,-11.0,-10.0,-7.0,-4.0,-2.0,-4.0,-5.0,-0.1982421875,0.21435546875,0.27197265625,0.91693115234375,-0.51953125,-0.22802734375,0.8310546875,-2.25,-1.625,2.125
3.1349999999999554,1.0,6.0,6.0,-1.0,0.0,-2.0,-3.0,0.0,-0.1986083984375,0.21435546875,0.27239990234375,0.91668701171875,-0.52880859375,-0.24072265625,0.83837890625,-3.25,-1.0,1.25
3.1399999999999553,-4.0,-9.0,-19.0,-9.0,-5.0,0.0,-2.0,0.0,-0.1986083984375,0.21435546875,0.27239990234375,0.91668701171875,-0.52880859375,-0.24072265625,0.83837890625,-3.25,-1.0,1.25
3.144999999999955,-2.0,4.0,6.0,-1.0,-3.0,-1.0,-5.0,-2.0,-0.1995849609375,0.21441650390625,0.2724609375,0.91644287109375,-0.529296875,-0.25146484375,0.8291015625,-5.4375,0.4375,-0.875
3.149999999999955,-1.0,-3.0,-2.0,-2.0,3.0,-2.0,-2.0,0.0,-0.20062255859375,0.21453857421875,0.2723388671875,0.916259765625,-0.525390625,-0.25732421875,0.84228515625,-5.25,1.9375,-1.625
3.154999999999955,-2.0,1.0,-6.0,-3.0,-4.0,0.0,0.0,0.0,-0.20062255859375,0.21453857421875,0.2723388671875,0.916259765625,-0.525390625,-0.25732421875,0.84228515625,-5.25,1.9375,-1.625
3.159999999999955,-2.0,1.0,-6.0,-3.0,-4.0,0.0,0.0,0.0,-0.2020263671875,0.21484375,0.27191162109375,0.91595458984375,-0.52587890625,-0.2626953125,0.837890625,-6.3125,3.625,-3.1875
3.1649999999999547,-3.0,-5.0,-5.0,-3.0,-4.0,-2.0,-1.0,-1.0,-0.203369140625,0.21527099609375,0.271484375,0.91571044921875,-0.5205078125,-0.263671875,0.83740234375,-6.0,4.8125,-2.875
3.1699999999999546,-2.0,0.0,9.0,3.0,1.0,-1.0,1.0,1.0,-0.203369140625,0.21527099609375,0.271484375,0.91571044921875,-0.5205078125,-0.263671875,0.83740234375,-6.0,4.8125,-2.875
3.1749999999999545,1.0,-2.0,2.0,1.0,-3.0,0.0,-4.0,1.0,-0.20452880859375,0.215576171875,0.2711181640625,0.91546630859375,-0.5078125,-0.26806640625,0.85107421875,-5.4375,4.875,-2.4375
3.1799999999999544,1.0,-2.0,2.0,1.0,-3.0,0.0,-4.0,1.0,-0.20452880859375,0.215576171875,0.2711181640625,0.91546630859375,-0.5078125,-0.26806640625,0.85107421875,-5.4375,4.875,-2.4375
3.1849999999999543,-1.0,8.0,8.0,6.0,2.0,0.0,-3.0,-2.0,-0.205322265625,0.21588134765625,0.27099609375,0.915283203125,-0.5087890625,-0.26123046875,0.849609375,-4.1875,4.1875,-1.125
3.189999999999954,-1.0,8.0,8.0,6.0,2.0,0.0,-3.0,-2.0,-0.205322265625,0.21588134765625,0.27099609375,0.915283203125,-0.5087890625,-0.26123046875,0.849609375,-4.1875,4.1875,-1.125
3.194999999999954,-1.0,4.0,-1.0,2.0,4.0,2.0,-1.0,-1.0,-0.2061767578125,0.21612548828125,0.271240234375,0.9149169921875,-0.5205078125,-0.2646484375,0.833984375,-4.75,2.375,1.0625
3.199999999999954,-1.0,4.0,-1.0,2.0,4.0,2.0,-1.0,-1.0,-0.2061767578125,0.21612548828125,0.271240234375,0.9149169921875,-0.5205078125,-0.2646484375,0.833984375,-4.75,2.375,1.0625
3.204999999999954,-8.0,-8.0,-5.0,-6.0,-5.0,-1.0,-2.0,-4.0,-0.2061767578125,0.21612548828125,0.271240234375,0.9149169921875,-0.5205078125,-0.2646484375,0.833984375,-4.75,2.375,1.0625
3.209999999999954,-2.0,-1.0,0.0,-11.0,-4.0,-2.0,-1.0,0.0,-0.2071533203125,0.21630859375,0.2716064453125,0.91455078125,-0.51953125,-0.27587890625,0.82763671875,-5.0625,1.9375,1.75
3.2149999999999537,-2.0,-1.0,0.0,-11.0,-4.0,-2.0,-1.0,0.0,-0.2071533203125,0.21630859375,0.2716064453125,0.91455078125,-0.51953125,-0.27587890625,0.82763671875,-5.0625,1.9375,1.75
3.2199999999999536,-1.0,1.0,-8.0,-5.0,-10.0,-5.0,-1.0,-1.0,-0.2071533203125,0.21630859375,0.2716064453125,0.91455078125,-0.51953125,-0.27587890625,0.82763671875,-5.0625,1.9375,1.75
3.2249999999999535,2.0,7.0,0.0,2.0,-1.0,-2.0,-2.0,-1.0,-0.208251953125,0.21624755859375,0.2718505859375,0.91424560546875,-0.50830078125,-0.28173828125,0.83251953125,-5.6875,1.875,1.125
3.2299999999999534,0.0,-6.0,-2.0,-14.0,-15.0,-1.0,-1.0,0.0,-0.20916748046875,0.2161865234375,0.27215576171875,0.91400146484375,-0.52587890625,-0.294921875,0.83349609375,-4.1875,0.8125,1.5
3.2349999999999532,-9.0,-4.0,15.0,-4.0,-3.0,-3.0,-2.0,-5.0,-0.20928955078125,0.21624755859375,0.27239990234375,0.91387939453125,-0.52099609375,-0.29736328125,0.84765625,0.25,0.4375,2.1875
3.239999999999953,0.0,-13.0,-12.0,3.0,2.0,1.0,1.0,2.0,-0.20928955078125,0.21624755859375,0.27239990234375,0.91387939453125,-0.52099609375,-0.29736328125,0.84765625,0.25,0.4375,2.1875
3.244999999999953,-1.0,9.0,12.0,8.0,3.0,-1.0,-1.0,0.0,-0.208740234375,0.21649169921875,0.27215576171875,0.91400146484375,-0.52001953125,-0.27490234375,0.84228515625,3.9375,1.0625,-0.375
3.249999999999953,-1.0,9.0,12.0,8.0,3.0,-1.0,-1.0,0.0,-0.208740234375,0.21649169921875,0.27215576171875,0.91400146484375,-0.52001953125,-0.27490234375,0.84228515625,3.9375,1.0625,-0.375
3.254999999999953,-2.0,-16.0,-11.0,1.0,-2.0,0.0,-1.0,-2.0,-0.20855712890625,0.2169189453125,0.2720947265625,0.9139404296875,-0.51318359375,-0.26611328125,0.845703125,1.0625,2.625,0.5625
3.2599999999999527,0.0,2.0,2.0,5.0,-1.0,0.0,0.0,-3.0,-0.2088623046875,0.21722412109375,0.272216796875,0.91375732421875,-0.51025390625,-0.27783203125,0.837890625,-0.9375,3.0,1.5
3.2649999999999526,-1.0,-5.0,-16.0,-3.0,1.0,-4.0,-12.0,0.0,-0.2088623046875,0.21722412109375,0.272216796875,0.91375732421875,-0.51025390625,-0.27783203125,0.837890625,-0.9375,3.0,1.5
3.2699999999999525,-1.0,-5.0,-16.0,-3.0,1.0,-4.0,-12.0,0.0,-0.20843505859375,0.21795654296875,0.27197265625,0.913818359375,-0.51904296875,-0.27099609375,0.84326171875,3.75,3.75,0.125
3.2749999999999524,-2.0,2.0,-3.0,12.0,7.0,0.0,-1.0,-1.0,-0.20843505859375,0.21795654296875,0.27197265625,0.913818359375,-0.51904296875,-0.27099609375,0.84326171875,3.75,3.75,0.125
3.2799999999999523,-1.0,14.0,6.0,-3.0,-6.0,0.0,3.0,-1.0,-0.20843505859375,0.21795654296875,0.27197265625,0.913818359375,-0.51904296875,-0.27099609375,0.84326171875,3.75,3.75,0.125
3.284999999999952,-3.0,-6.0,-13.0,-9.0,-8.0,-2.0,-3.0,-1.0,-0.2073974609375,0.21881103515625,0.271484375,0.9139404296875,-0.533203125,-0.25439453125,0.84033203125,6.5625,3.0625,-1.125
3.289999999999952,1.0,18.0,14.0,10.0,6.0,2.0,1.0,-1.0,-0.2069091796875,0.21929931640625,0.2711181640625,0.9140625,-0.53125,-0.25537109375,0.841796875,3.3125,1.8125,-1.4375
3.294999999999952,-1.0,-10.0,-3.0,5.0,2.0,-2.0,0.0,-1.0,-0.2069091796875,0.21929931640625,0.2711181640625,0.9140625,-0.53125,-0.25537109375,0.841796875,3.3125,1.8125,-1.4375
3.299999999999952,0.0,5.0,2.0,-1.0,1.0,-1.0,1.0,0.0,-0.206787109375,0.21905517578125,0.2708740234375,0.91424560546875,-0.49755859375,-0.26318359375,0.8466796875,0.125,0.3125,-0.8125
3.3049999999999518,-1.0,0.0,-9.0,-3.0,-1.0,0.0,-1.0,-1.0,-0.206787109375,0.21905517578125,0.2708740234375,0.91424560546875,-0.49755859375,-0.26318359375,0.8466796875,0.125,0.3125,-0.8125
