0.01,1,2,53,63,6,5,7,4
0.015,6,20,75,88,15,0,1,2
0.02,3,7,8,17,4,2,8,4
0.025,0,12,37,16,6,10,56,16
0.03,2,4,6,2,2,2,5,0
0.035,5,22,49,38,2,3,6,3
0.04,7,15,20,2,8,5,11,0
0.045,3,8,4,8,8,2,17,6
0.05,12,21,8,6,8,0,21,2
0.055,12,7,4,18,2,5,16,12
0.06,1,14,1,7,12,2,12,4
0.065,0,5,17,59,27,13,31,7
0.07,10,12,62,60,21,5,8,3
0.075,8,16,22,8,4,1,7,6
0.08,4,13,37,6,16,14,3,6
0.085,4,0,52,81,10,3,9,1
0.09,9,29,82,97,1,1,7,3
0.095,0,6,11,6,4,5,5,2
0.1,6,3,7,16,12,3,37,4
0.105,5,3,30,5,4,5,7,5
0.11,8,43,39,66,8,5,1,2
0.115,2,8,7,4,8,6,15,5
0.12,2,1,5,3,2,13,65,12
0.125,1,57,8,1,2,9,5,11
0.13,5,38,54,38,2,5,31,0
0.135,1,10,61,69,18,8,34,14
0.14,1,6,10,3,15,9,82,4
0.145,5,29,5,5,13,2,32,2
0.15,2,12,1,13,8,2,8,1
0.155,4,21,76,119,1,4,24,5
0.16,5,6,32,14,23,15,30,7
0.165,18,22,93,69,28,8,4,6
0.17,4,5,12,39,6,4,3,1
0.175,1,15,23,4,4,0,5,4
0.18,11,27,81,67,1,6,32,2
0.185,13,37,31,6,8,6,1,1
0.19,14,81,48,1,17,9,21,6
0.195,6,32,49,68,16,7,6,8
0.2,3,1,5,7,3,3,5,1
0.205,20,17,21,2,3,2,14,4
0.21,10,16,18,10,0,13,102,10
0.215,2,20,5,1,9,20,90,27
0.22,8,5,48,22,8,5,18,6
0.225,1,28,49,59,3,3,36,5
0.23,10,24,9,25,2,3,10,1
0.235,1,19,26,10,10,12,58,12
0.24,11,11,13,78,28,8,22,10
0.245,3,4,12,83,17,4,60,18
0.25,12,2,10,41,1,3,3,0
0.255,0,6,30,6,1,3,11,20
0.26,2,1,26,4,13,5,12,3
0.265,6,14,9,16,9,3,12,14
0.27,16,14,3,34,6,7,17,2
0.275,13,5,36,36,11,3,18,11
0.28,7,6,8,6,21,16,52,4
0.285,53,28,22,15,2,15,51,12
0.29,6,27,12,21,7,1,9,8
0.295,3,60,48,47,6,9,45,14
0.3,8,36,32,38,2,2,48,3
0.305,6,26,21,47,10,1,16,13
0.31,18,29,40,48,18,29,116,10
0.315,25,101,37,9,0,3,17,9
0.32,2,19,28,19,2,2,5,0
0.325,12,9,29,12,1,3,6,9
0.33,12,7,16,16,0,3,31,0
0.335,9,16,7,24,4,1,27,2
0.34,5,9,9,42,13,9,72,16
0.345,6,12,2,24,18,8,52,7
0.35,1,8,10,7,5,6,7,0
0.355,14,34,6,29,1,2,6,1
0.36,14,10,32,46,6,1,11,6
0.365,33,1,5,15,17,4,0,1
0.37,15,10,16,14,1,1,8,13
0.375,3,60,43,43,4,5,10,9
0.38,6,4,66,68,23,7,5,1
0.385,22,2,39,30,4,5,31,7
0.39,2,6,7,18,23,5,27,4
0.395,0,10,9,25,9,0,24,7
0.4,7,16,11,15,5,8,41,14
0.405,16,7,38,38,13,11,25,2
0.41,10,4,27,22,13,1,27,9
0.415,2,1,8,24,6,3,19,7
0.42,0,46,54,55,15,5,38,3
0.425,7,8,34,67,4,15,77,14
0.43,22,16,13,10,2,8,27,4
0.435,5,4,3,6,0,9,17,14
0.44,10,5,50,25,16,4,5,5
0.445,15,21,18,37,8,1,30,3
0.45,9,85,31,18,8,2,20,10
0.455,3,7,33,5,5,11,45,4
0.46,6,56,24,52,3,3,44,1
0.465,1,6,18,15,23,17,47,7
0.47,3,40,75,108,24,16,23,7
0.475,7,12,127,108,2,9,21,4
0.48,14,26,106,122,22,6,18,7
0.485,17,26,91,125,14,12,28,16
0.49,15,31,2,53,24,19,24,12
0.495,4,20,42,106,35,18,27,12
0.5,2,22,28,59,1,2,19,9
0.505,15,26,85,80,32,16,7,6
0.51,10,15,77,83,17,3,75,0
0.515,5,6,31,46,29,7,79,8
0.52,23,15,41,36,10,4,63,7
0.525,5,5,21,7,9,2,13,0
0.53,5,6,14,56,3,2,18,3
0.535,9,21,30,38,2,1,20,7
0.54,5,58,1,13,0,1,10,4
0.545,6,10,7,14,4,5,25,8
0.55,8,31,4,9,4,2,1,7
0.555,4,3,24,35,7,0,14,1
0.56,0,5,21,21,10,4,13,6
0.565,4,5,5,9,8,5,7,1
0.57,2,5,9,23,6,1,14,5
0.575,15,31,13,11,16,15,1,3
0.58,4,6,55,107,15,2,6,3
0.585,2,6,7,1,2,4,25,4
0.59,7,4,50,46,2,0,23,6
0.595,0,8,23,40,18,11,21,2
0.6,7,10,87,39,6,8,57,16
0.605,7,5,24,6,5,4,0,11
0.61,1,19,5,11,10,4,18,3
0.615,2,16,2,2,7,1,17,5
0.62,4,9,22,24,5,5,49,10
0.625,6,5,14,6,10,6,4,19
0.63,4,19,48,23,11,4,12,3
0.635,5,6,6,18,8,4,26,13
0.64,13,0,7,24,20,3,20,10
0.645,26,3,1,3,18,3,16,12
0.65,16,5,2,31,2,2,6,1
0.655,4,31,4,2,1,1,15,9
0.66,1,8,8,27,1,0,3,7
0.665,14,50,11,5,13,1,1,0
0.67,10,9,15,6,1,7,90,13
0.675,4,10,11,7,13,11,96,12
0.68,9,21,18,18,3,11,16,44
0.685,2,8,4,10,2,5,18,7
0.69,1,6,23,31,33,26,51,31
0.695,11,8,4,1,1,12,25,21
0.7,20,28,2,37,21,6,89,42
0.705,1,22,25,29,7,8,87,103
0.71,19,12,2,20,17,38,124,113
0.715,38,40,14,31,9,3,66,38
0.72,21,65,52,32,4,5,13,23
0.725,2,10,30,63,11,10,19,8
0.73,12,20,16,54,14,18,16,52
0.735,1,12,83,2,1,5,35,8
0.74,20,41,59,12,13,15,69,55
0.745,12,90,32,13,24,16,16,4
0.75,24,10,62,12,23,11,33,42
0.755,7,32,4,7,1,10,103,68
0.76,4,6,24,74,20,21,92,7
0.765,1,17,38,24,12,3,65,30
0.77,1,14,52,64,3,14,82,80
0.775,18,1,35,79,18,31,62,68
0.78,16,23,63,75,4,14,30,84
0.785,1,9,61,69,33,10,41,63
0.79,20,34,61,91,50,19,5,78
0.795,10,20,10,38,5,4,31,99
0.8,6,2,21,1,10,26,128,95
0.805,29,43,52,104,13,11,101,72
0.81,18,30,20,35,6,8,1,19
0.815,20,48,18,68,6,6,72,86
0.82,14,7,30,21,1,3,67,55
0.825,10,29,41,53,13,6,82,71
0.83,10,9,44,48,15,12,46,37
0.835,25,28,13,1,8,13,53,18
0.84,14,38,21,12,20,3,1,35
0.845,0,17,20,43,18,33,115,52
0.85,22,30,58,56,40,55,106,104
0.855,2,11,11,43,37,15,8,85
0.86,13,7,9,31,7,8,48,37
0.865,0,2,18,28,12,6,14,15
0.87,25,40,74,127,46,14,15,24
0.875,20,5,16,40,20,5,9,11
0.88,7,21,52,12,3,2,8,12
0.885,7,18,1,8,16,17,19,44
0.89,8,24,30,5,0,13,35,21
0.895,7,73,13,7,11,3,10,40
0.9,52,0,1,7,11,13,94,58
0.905,16,6,23,33,3,3,26,29
0.91,38,21,8,47,6,3,21,18
0.915,43,10,3,1,4,3,42,0
0.92,10,7,20,8,12,3,41,43
0.925,4,4,44,23,6,11,28,35
0.93,2,23,36,9,19,6,90,24
0.935,7,21,38,9,9,16,31,10
0.94,11,2,16,4,16,17,11,6
0.945,21,11,49,49,23,13,14,10
0.95,38,1,7,8,7,6,40,1
0.955,23,7,29,56,23,22,104,36
0.96,20,5,2,15,18,8,88,38
0.965,2,28,50,43,17,13,11,9
0.97,4,38,15,10,9,1,29,4
0.975,40,75,20,55,2,6,2,14
0.98,6,40,19,15,5,0,28,13
0.985,65,28,2,17,16,10,11,27
0.99,22,19,1,4,16,11,6,13
0.995,5,19,5,27,12,1,26,12
1,12,10,1,54,8,1,29,15
1.005,10,0,19,5,6,10,39,0
1.01,26,22,32,16,13,0,21,1
1.015,18,1,16,6,4,10,27,14
1.02,21,3,2,42,6,8,47,2
1.025,4,15,10,39,5,0,17,41
1.03,42,17,16,33,11,3,17,4
1.035,4,9,11,12,4,10,46,21
1.04,27,3,37,35,1,14,53,17
1.045,7,7,36,2,5,2,3,0
1.05,70,12,23,23,7,0,28,23
1.055,14,3,16,31,5,8,2,22
1.06,0,5,12,7,9,3,3,8
1.065,29,35,19,17,6,6,37,3
1.07,28,15,17,19,1,1,6,15
1.075,29,28,16,40,1,0,1,12
1.08,30,26,14,85,15,2,26,12
1.085,5,2,3,19,14,0,21,1
1.09,29,18,7,9,2,2,18,1
1.095,3,12,3,9,4,5,24,8
1.1,7,96,11,20,1,2,49,7
1.105,9,36,9,26,7,5,123,55
1.11,48,24,7,22,7,23,56,18
1.115,49,3,12,18,3,24,119,40
1.12,20,9,5,28,9,18,75,48
1.125,16,16,9,44,6,11,76,8
1.13,28,40,22,22,3,1,10,12
1.135,9,11,3,1,0,5,24,13
1.14,28,25,15,46,20,1,43,14
1.145,32,4,26,55,2,5,23,21
1.15,40,23,59,56,11,16,45,15
1.155,44,34,20,3,11,10,73,24
1.16,13,5,9,6,9,18,72,26
1.165,50,15,16,31,10,14,32,7
1.17,14,15,7,24,26,11,1,0
1.175,13,2,10,26,3,6,0,14
1.18,3,3,31,25,29,19,66,10
1.185,18,13,79,16,7,2,4,22
1.19,13,18,8,5,4,8,81,6
1.195,11,8,5,46,19,21,62,17
1.2,32,23,10,14,13,5,13,15
1.205,12,9,8,33,14,13,58,9
1.21,0,8,13,19,11,6,24,4
1.215,17,10,7,6,0,2,22,9
1.22,12,18,29,18,13,1,23,14
1.225,17,57,27,5,6,15,53,39
1.23,1,86,12,29,11,6,23,5
1.235,24,5,5,3,1,0,6,11
1.24,59,28,37,1,2,2,20,21
1.245,24,9,44,12,7,0,33,4
1.25,1,10,8,8,6,5,4,12
1.255,4,3,10,17,4,8,75,18
1.26,4,18,15,9,2,3,4,33
1.265,0,16,5,2,12,7,43,11
1.27,16,25,7,17,1,9,51,13
1.275,13,9,7,7,2,8,55,1
1.28,22,20,24,7,8,6,14,64
1.285,39,2,11,59,7,17,28,87
1.29,11,19,12,93,11,0,45,9
1.295,2,6,16,13,11,12,6,6
1.3,19,13,41,69,6,4,1,1
1.305,8,16,24,10,15,12,10,39
1.31,1,10,15,25,28,17,72,8
1.315,6,42,24,32,5,6,32,15
1.32,8,0,11,18,5,10,62,5
1.325,2,14,1,8,17,12,32,22
1.33,5,17,10,17,4,2,19,4
1.335,16,13,0,37,2,4,20,13
1.34,5,7,1,9,4,5,12,12
1.345,17,11,25,34,3,5,15,22
1.35,5,10,9,7,3,1,27,1
1.355,20,3,8,35,3,3,7,7
1.36,2,2,5,6,8,5,25,12
1.365,43,19,6,7,5,1,11,13
1.37,9,7,21,3,0,1,1,5
1.375,85,8,59,16,7,11,11,1
1.38,36,2,58,67,0,7,6,9
1.385,9,16,20,8,8,15,88,49
1.39,5,57,14,5,12,17,46,3
1.395,11,28,13,12,3,2,3,28
1.4,8,3,36,6,2,2,5,8
1.405,7,11,7,5,1,6,15,27
1.41,24,31,21,14,4,2,11,22
1.415,2,23,17,14,4,5,19,12
1.42,22,14,38,52,4,6,55,5
1.425,25,15,32,36,7,21,117,27
1.43,7,0,15,31,1,2,5,33
1.435,5,7,1,0,3,5,5,1
1.44,2,8,7,34,1,2,19,6
1.445,60,4,21,51,11,11,72,5
1.45,0,11,6,16,2,5,24,13
1.455,26,21,0,10,1,4,16,33
1.46,20,8,38,45,1,4,17,16
1.465,50,6,11,13,10,16,16,84
1.47,8,4,40,23,2,0,2,6
1.475,4,15,84,57,6,1,1,3
1.48,0,3,50,37,6,0,1,2
1.485,10,91,67,60,5,3,27,6
1.49,6,24,16,34,6,2,22,1
1.495,4,22,4,23,1,3,14,4
1.5,5,10,15,28,2,1,1,2
1.505,4,42,20,1,1,0,7,4
1.51,3,9,28,16,4,1,12,2
1.515,17,1,7,13,1,0,11,12
1.52,45,5,9,12,3,9,11,5
1.525,8,37,1,7,2,2,11,8
1.53,20,5,2,51,5,5,6,6
1.535,16,16,31,97,9,8,13,3
1.54,10,22,3,38,1,4,10,20
1.545,21,17,5,5,1,9,6,12
1.55,7,13,0,1,9,6,1,2
1.555,6,4,91,127,29,9,7,1
1.56,7,12,63,77,42,12,22,13
1.565,8,12,0,66,13,0,6,0
1.57,4,3,43,43,1,4,5,3
1.575,11,8,12,36,1,4,11,8
1.58,4,4,48,77,29,4,5,2
1.585,1,4,8,53,9,0,5,5
1.59,2,9,22,52,7,2,8,11
1.595,4,5,1,65,1,4,12,6
1.6,8,14,58,16,8,5,5,3
1.605,5,20,69,58,12,7,1,6
1.61,2,8,12,29,11,1,3,22
1.615,11,63,63,89,20,5,2,3
1.62,0,61,46,11,5,2,0,4
1.625,2,3,60,43,1,2,3,0
1.63,5,29,30,100,33,12,4,0
1.635,5,6,3,36,7,2,5,2
1.64,11,2,8,14,8,1,7,4
1.645,4,2,61,91,14,3,4,6
1.65,7,15,30,36,0,10,45,14
1.655,2,6,12,3,10,8,33,5
1.66,5,3,9,39,3,14,53,6
1.665,10,5,38,62,9,2,3,25
1.67,4,9,5,38,1,0,29,8
1.675,9,1,7,9,12,9,45,21
1.68,1,20,12,17,1,5,26,30
1.685,9,2,30,6,9,6,24,22
1.69,4,2,3,36,8,10,35,4
1.695,8,45,40,24,10,2,17,5
1.7,4,9,20,16,17,4,3,3
1.705,2,3,52,99,31,10,26,17
1.71,0,15,3,34,14,6,47,27
1.715,7,24,9,13,0,0,13,23
1.72,4,30,32,3,19,8,11,17
1.725,6,22,13,22,28,7,18,28
1.73,4,18,11,8,15,1,25,27
1.735,3,10,23,29,3,1,78,121
1.74,8,7,24,29,18,3,25,18
1.745,8,29,13,58,30,5,4,51
1.75,10,6,25,24,19,0,38,0
1.755,3,4,0,15,11,1,0,1
1.76,0,9,20,31,19,7,39,16
1.765,7,11,10,5,9,10,23,11
1.77,6,1,1,11,9,6,7,40
1.775,1,17,4,7,23,4,5,32
1.78,8,12,5,12,24,4,7,25
1.785,4,4,4,6,5,0,28,17
1.79,6,1,3,14,12,0,42,12
1.795,10,20,13,0,14,4,14,3
1.8,3,5,6,14,9,10,25,6
1.805,1,3,2,2,13,4,20,5
1.81,2,6,7,8,3,8,21,1
1.815,12,0,13,28,16,25,110,12
1.82,0,7,6,46,33,31,89,2
1.825,5,3,16,23,4,5,36,43
1.83,17,2,8,16,12,13,57,114
1.835,0,2,4,9,21,11,83,34
1.84,2,10,13,2,34,20,87,31
1.845,6,4,14,12,7,12,4,20
1.85,9,20,1,2,4,12,51,5
1.855,3,7,1,11,9,6,1,12
1.86,13,10,18,9,1,3,5,16
1.865,4,6,18,31,6,1,8,1
1.87,5,10,12,53,25,8,11,19
1.875,13,3,1,4,3,4,8,1
1.88,0,2,13,4,19,25,113,15
1.885,7,3,7,14,20,14,8,1
1.89,1,12,0,8,2,3,21,1
1.895,8,34,3,7,3,7,36,33
1.9,12,5,5,0,6,2,30,23
1.905,2,1,6,6,18,9,40,30
1.91,1,8,0,5,10,2,10,14
1.915,5,7,3,2,5,0,7,27
1.92,1,6,8,12,8,15,109,34
1.925,2,4,13,3,15,21,105,21
1.93,17,10,6,4,27,23,97,47
1.935,3,6,2,8,17,5,11,15
1.94,7,1,3,1,8,0,29,16
1.945,0,14,9,6,7,5,38,15
1.95,4,49,8,22,12,25,127,21
1.955,9,13,1,7,13,36,88,54
1.96,1,4,3,9,11,3,10,1
1.965,20,7,5,0,0,2,7,6
1.97,9,8,0,10,20,11,17,5
1.975,5,8,2,4,7,9,71,7
1.98,14,14,13,6,5,14,73,24
1.985,4,3,11,4,11,8,28,7
1.99,3,8,2,2,7,6,19,3
1.995,33,7,5,10,15,10,18,4
2,19,6,20,8,8,4,16,11
2.005,17,14,43,20,4,0,16,6
2.01,5,3,8,23,18,9,65,18
2.015,9,5,7,5,6,20,65,4
2.02,10,6,1,3,1,1,1,4
2.025,1,7,12,9,3,6,42,5
2.03,14,7,9,16,3,2,28,0
2.035,1,7,8,1,1,8,32,14
2.04,8,1,3,8,3,3,20,3
2.045,13,3,2,4,7,8,84,22
2.05,22,13,6,4,2,24,128,60
2.055,2,7,3,5,4,3,20,1
2.06,4,4,8,4,3,2,0,1
2.065,11,5,8,2,13,5,8,6
2.07,2,17,4,0,7,8,44,9
2.075,8,1,8,3,6,9,23,11
2.08,2,0,6,3,5,11,8,28
2.085,1,3,3,11,13,3,1,4
2.09,3,4,5,3,0,8,18,2
2.095,0,1,10,9,19,10,22,3
2.1,1,2,11,1,19,1,22,14
2.105,27,13,21,18,4,8,52,18
2.11,2,3,24,9,2,4,16,7
2.115,8,0,21,6,1,6,24,8
2.12,2,4,26,11,13,2,4,8
2.125,3,2,21,1,13,7,33,12
2.13,1,2,12,14,9,5,1,0
2.135,5,3,8,4,2,3,20,4
2.14,0,5,7,20,4,4,27,6
2.145,0,10,4,8,1,0,12,3
2.15,3,28,3,1,2,1,8,6
2.155,1,1,2,2,4,2,10,3
2.16,13,5,0,9,1,0,7,0
2.165,4,2,17,8,5,7,21,3
2.17,15,9,11,4,0,4,20,1
2.175,21,10,7,3,3,2,37,4
2.18,2,2,14,13,4,11,18,9
2.185,1,4,2,4,1,4,12,6
2.19,0,1,6,9,5,1,12,3
2.195,10,0,1,4,10,1,6,2
2.2,0,11,4,0,5,3,17,5
2.205,3,10,4,0,3,0,10,2
2.21,5,8,10,18,1,2,5,2
2.215,4,4,1,1,3,1,9,2
2.22,5,6,3,0,1,1,5,2
2.225,1,1,7,3,2,5,10,2
2.23,4,2,0,0,2,4,10,3
2.235,3,1,3,11,3,6,14,6
2.24,4,3,29,16,0,1,2,7
2.245,1,1,10,21,0,0,21,7
2.25,5,35,16,18,5,5,5,8
2.255,4,3,1,4,1,2,3,0
2.26,5,0,8,2,1,2,11,0
2.265,1,1,30,23,1,2,1,1
2.27,3,6,29,24,5,4,7,6
2.275,4,10,61,57,4,2,0,5
2.28,2,1,5,15,4,3,6,4
2.285,3,2,3,7,8,3,4,2
2.29,2,21,91,127,5,1,3,3
2.295,0,2,4,85,19,4,1,2
2.3,19,30,102,104,16,10,4,8
2.305,4,5,3,50,0,2,5,0
2.31,0,7,21,50,15,2,2,1
2.315,6,11,53,75,11,2,5,2
2.32,6,8,30,6,3,3,1,4
2.325,2,4,12,29,7,8,3,1
2.33,7,1,20,44,0,3,4,3
2.335,1,1,2,15,2,3,5,0
2.34,4,6,20,12,7,8,6,5
2.345,1,2,10,14,4,3,1,3
2.35,5,2,10,6,5,2,1,2
2.355,2,3,6,2,1,4,3,3
2.36,2,4,16,17,3,3,6,2
2.365,3,1,2,3,3,1,5,4
2.37,2,5,11,22,1,9,0,2
2.375,1,1,4,12,6,9,3,0
2.38,3,3,11,7,1,1,3,2
2.385,1,1,1,11,7,3,6,1
2.39,3,2,5,10,1,4,4,4
2.395,1,0,14,43,5,13,10,4
2.4,3,2,4,7,7,6,3,2
2.405,1,1,18,25,0,20,0,2
2.41,1,1,8,18,1,27,5,2
2.415,1,2,0,11,3,2,6,2
2.42,0,2,30,20,5,1,2,4
2.425,1,1,22,1,6,3,4,2
2.43,2,10,9,15,20,25,10,2
2.435,1,2,33,60,12,2,3,1
2.44,7,10,33,29,4,1,1,2
2.445,1,4,16,31,14,4,3,1
2.45,1,1,7,3,12,4,3,4
2.455,0,2,6,16,16,4,0,1
2.46,5,3,16,30,7,13,5,3
2.465,1,2,46,28,5,6,2,1
2.47,1,0,37,27,2,9,3,1
2.475,1,3,1,8,8,1,4,2
2.48,0,3,18,14,13,2,0,1
2.485,0,1,1,39,13,4,1,1
2.49,1,0,3,13,6,8,2,2
2.495,2,2,13,18,3,2,6,1
2.5,0,4,14,21,9,4,6,2
2.505,3,3,10,26,19,15,5,3
2.51,5,3,35,62,0,6,2,8
2.515,1,1,0,20,27,23,6,8
2.52,2,2,2,10,5,4,1,2
2.525,1,0,19,16,6,6,2,0
2.53,1,4,10,27,20,22,7,4
2.535,3,3,16,0,12,13,4,4
2.54,3,8,1,26,8,4,6,1
2.545,1,3,6,9,10,2,6,1
2.55,1,1,6,21,2,7,1,2
2.555,3,6,2,21,16,8,7,3
2.56,1,3,11,38,7,11,3,14
2.565,3,3,34,13,3,2,2,18
2.57,2,1,6,1,1,3,6,2
2.575,4,4,0,8,19,8,2,4
2.58,0,2,7,6,4,5,1,2
2.585,1,0,14,1,3,3,5,0
2.59,2,5,1,19,8,0,1,1
2.595,1,4,74,25,8,2,1,3
2.6,2,1,7,17,4,5,2,11
2.605,4,2,10,6,3,7,4,13
2.61,4,0,18,5,8,2,2,11
2.615,1,3,7,3,14,10,5,13
2.62,2,1,9,16,15,16,8,6
2.625,3,1,5,10,9,5,2,0
2.63,1,1,6,24,33,24,13,13
2.635,0,0,9,6,3,0,0,4
2.64,3,0,12,6,10,7,5,2
2.645,4,8,57,44,20,11,4,7
2.65,6,5,4,8,10,7,12,1
2.655,3,1,13,0,2,3,5,17
2.66,7,8,19,25,13,5,7,15
2.665,0,1,5,8,4,2,4,8
2.67,1,2,16,0,1,1,0,1
2.675,2,6,37,12,7,6,4,6
2.68,3,3,4,3,9,6,6,2
2.685,2,7,43,20,18,11,4,4
2.69,2,9,65,9,9,9,4,7
2.695,2,1,25,8,14,3,2,2
2.7,2,2,26,34,15,6,2,4
2.705,2,4,28,17,1,4,5,1
2.71,2,8,32,24,1,4,5,7
2.715,1,4,12,41,2,5,3,9
2.72,6,19,115,58,13,4,11,13
2.725,5,1,30,17,0,4,67,43
2.73,16,4,33,18,2,9,11,13
2.735,30,3,20,22,5,2,8,6
2.74,13,1,27,40,9,9,22,11
2.745,11,4,12,9,8,11,32,15
2.75,0,0,1,0,22,2,3,4
2.755,2,6,19,11,1,3,16,8
2.76,4,0,24,25,19,7,12,4
2.765,7,4,19,9,23,10,4,3
2.77,1,2,9,6,5,9,2,7
2.775,8,1,16,50,30,6,9,16
2.78,7,1,23,31,8,3,2,6
2.785,2,5,4,6,8,9,4,3
2.79,7,1,7,12,23,11,8,6
2.795,5,0,4,31,23,10,8,0
2.8,1,3,36,25,17,0,5,3
2.805,2,4,83,6,9,11,7,2
2.81,10,8,12,9,5,0,3,2
2.815,1,1,1,16,8,7,4,1
2.82,4,13,61,24,3,3,0,2
2.825,1,8,36,20,1,2,7,5
2.83,6,2,54,53,15,0,1,2
2.835,3,0,37,58,19,3,3,4
2.84,0,4,1,6,2,6,4,2
2.845,0,5,21,2,3,2,3,1
2.85,7,0,6,11,1,1,0,3
2.855,5,1,15,13,12,1,3,0
2.86,4,3,18,4,9,6,3,1
2.865,14,4,20,20,6,2,1,0
2.87,10,2,11,9,9,6,4,1
2.875,10,2,5,5,6,1,3,3
2.88,6,2,10,5,3,9,3,5
2.885,15,6,4,1,20,5,1,2
2.89,0,3,22,11,14,10,1,0
2.895,8,6,6,10,0,1,2,0
2.9,0,1,1,8,2,3,2,1
2.905,1,9,12,16,2,9,5,3
2.91,8,3,7,7,8,8,3,2
2.915,4,2,6,1,6,1,0,0
2.92,0,8,12,9,1,0,0,3
2.925,1,6,12,21,12,4,0,2
2.93,1,9,5,9,9,3,2,2
2.935,4,11,24,14,29,2,2,3
2.94,9,1,8,20,17,2,1,1
2.945,10,13,24,6,9,2,3,2
2.95,0,6,37,13,8,7,6,5
2.955,4,5,26,2,9,2,0,0
2.96,5,0,7,8,2,6,2,0
2.965,5,2,8,24,7,5,0,0
2.97,11,6,21,6,3,0,2,0
2.975,1,4,7,4,3,1,2,3
2.98,8,5,9,2,0,0,1,0
2.985,2,1,0,6,0,2,3,1
2.99,20,7,6,9,14,10,2,6
2.995,17,4,8,7,7,10,16,4
3,3,1,2,6,11,7,17,2
3.005,15,6,2,8,23,19,5,20
3.01,18,1,1,1,5,2,1,38
3.015,2,5,1,12,8,6,5,0
3.02,5,5,9,3,18,11,7,2
3.025,0,6,19,20,18,13,6,4
3.03,15,3,20,4,13,1,1,27
3.035,5,3,10,6,11,4,1,38
3.04,1,4,14,16,23,1,3,1
3.045,1,2,16,17,3,7,3,2
3.05,11,2,9,3,11,3,1,10
3.055,12,6,13,6,7,5,2,3
3.06,10,0,1,7,4,3,3,1
3.065,16,6,0,8,4,6,4,9
3.07,39,1,8,18,3,5,3,3
3.075,19,0,7,8,4,4,3,7
3.08,3,5,0,11,5,1,3,6
3.085,4,0,4,5,3,5,2,0
3.09,16,2,6,3,3,5,4,1
3.095,3,3,2,4,2,1,3,5
3.1,10,2,12,0,15,6,2,0
3.105,6,5,16,0,19,2,4,6
3.11,13,3,1,13,3,0,3,2
3.115,8,2,7,3,5,2,4,2
3.12,2,0,4,2,1,8,7,4
3.125,6,2,7,3,6,0,1,0
3.13,3,3,0,7,2,2,6,2
3.135,1,0,2,4,5,2,1,4
3.14,0,1,6,7,5,5,1,1
3.145,4,1,12,3,4,3,3,2
3.15,1,8,20,4,6,3,3,2
3.155,1,4,3,1,6,3,1,2
3.16,1,3,4,3,4,9,5,2
3.165,6,2,2,8,5,4,4,4
3.17,4,4,5,0,7,4,2,3
3.175,1,1,1,3,5,7,2,3
3.18,1,0,0,4,2,2,1,4
3.185,3,0,4,1,7,7,3,0
3.19,3,3,6,1,9,4,2,1
3.195,1,4,4,7,16,10,4,0
3.2,5,2,5,9,12,4,3,3
3.205,3,1,0,15,9,15,9,3
3.21,3,2,7,6,22,14,4,2
3.215,0,0,1,6,4,2,2,1
3.22,3,1,4,3,8,20,7,3
3.225,2,2,18,36,16,6,8,4
3.23,0,3,4,12,15,8,1,1
3.235,2,2,16,1,5,4,3,3
3.24,3,5,33,3,12,10,1,0
3.245,2,2,6,1,3,1,1,0
3.25,1,3,19,0,3,0,1,0
3.255,0,2,6,5,6,6,5,1
3.26,2,3,0,29,14,5,3,1
3.265,0,1,13,1,1,4,3,2
3.27,0,4,1,14,8,6,5,3
3.275,0,1,13,10,3,4,5,1
3.28,1,0,4,9,1,5,1,0
3.285,1,1,4,12,10,2,1,0
3.29,2,3,1,7,10,6,2,1
3.295,1,1,4,2,4,2,2,0
3.3,0,0,19,16,3,0,1,2
3.305,2,1,7,3,19,16,9,2
3.31,3,4,28,0,16,12,4,1
3.315,9,2,4,5,22,5,4,0
3.32,0,0,1,8,0,9,2,1
3.325,0,1,6,3,5,5,0,0
3.33,1,0,0,8,15,9,4,3
3.335,3,3,7,6,12,6,5,2
3.34,2,1,9,14,7,4,1,1
3.345,2,2,2,1,8,2,1,1
3.35,1,1,3,7,2,4,2,2
3.355,3,3,14,2,1,1,2,3
3.36,1,0,7,1,10,5,2,1
3.365,3,3,0,4,5,1,2,0
3.37,1,1,4,4,2,4,2,0
3.375,2,0,2,3,2,2,1,3
3.38,2,1,1,2,0,0,1,0
3.385,0,2,1,1,1,3,3,1
3.39,1,0,4,2,4,1,0,0
3.395,1,1,7,4,1,2,1,3
3.4,3,6,2,5,3,0,1,1
3.405,3,0,2,4,0,1,1,1
3.41,0,1,2,6,6,5,4,2
3.415,0,1,4,7,4,5,3,0
3.42,4,2,3,5,1,0,2,2
3.425,1,1,2,0,4,6,1,1
3.43,1,0,0,0,1,0,1,1
3.435,0,0,1,1,0,1,1,1
3.44,1,0,10,3,6,3,2,1
3.445,0,2,20,8,7,2,1,1
3.45,2,1,4,2,5,2,0,1
3.455,3,2,3,5,3,2,0,1
3.46,2,0,2,5,7,3,0,1
3.465,1,2,2,3,4,1,1,3
3.47,0,1,2,0,3,1,0,1
3.475,0,0,0,8,10,7,3,1
3.48,3,1,4,10,1,1,1,0
3.485,1,2,1,11,1,2,1,1
3.49,2,3,1,3,3,0,3,1
3.495,2,1,1,2,2,1,2,1
3.5,1,3,1,1,1,0,0,0
3.505,0,0,2,8,4,2,1,1
3.51,0,3,1,0,4,4,1,2
3.515,1,0,3,6,7,7,2,1
3.52,1,0,4,7,2,2,1,2
3.525,2,0,6,22,22,12,2,0
3.53,2,1,1,1,1,4,2,1
3.535,1,1,3,6,5,5,4,1
3.54,0,6,5,32,30,13,4,1
3.545,0,6,5,34,17,6,4,1
3.55,1,1,1,15,12,6,2,1
3.555,0,3,14,16,1,1,1,2
3.56,5,7,58,13,16,5,2,2
3.565,1,3,15,17,6,11,4,1
3.57,1,3,10,23,10,3,2,3
3.575,5,6,3,28,4,4,2,2
3.58,1,2,2,10,3,5,2,0
3.585,0,2,1,17,5,3,3,1
3.59,5,1,2,11,4,6,2,2
3.595,8,1,7,8,0,0,1,3
3.6,4,2,4,40,4,1,1,9
3.605,2,2,13,13,2,5,7,0
3.61,48,0,8,4,7,8,5,73
3.615,68,34,22,11,3,4,12,79
3.62,83,1,42,4,2,3,9,56
3.625,59,23,53,5,10,10,19,3
3.63,95,11,17,13,4,3,4,25
3.635,13,1,14,0,7,9,25,32
3.64,125,42,6,20,7,15,51,116
3.645,10,17,12,13,14,13,12,7
3.65,5,7,16,14,5,2,15,14
3.655,3,17,9,2,4,3,3,26
3.66,21,17,23,13,5,7,18,31
3.665,17,8,15,1,2,2,12,17
3.67,38,3,23,2,3,5,13,33
3.675,16,8,18,2,1,1,1,13
3.68,4,0,0,9,11,4,4,5
3.685,1,15,8,22,9,2,6,24
3.69,22,11,15,37,12,5,7,21
3.695,10,11,11,18,10,6,15,5
3.7,2,13,26,7,10,5,5,18
3.705,7,4,51,11,19,3,11,1
3.71,25,23,24,9,25,5,2,11
3.715,5,14,13,28,3,4,2,11
3.72,2,12,39,6,3,1,6,4
3.725,8,29,4,66,43,9,0,3
3.73,26,11,14,61,28,9,1,22
3.735,3,2,42,29,7,1,6,2
3.74,6,6,13,26,11,9,1,1
3.745,1,8,29,15,3,2,4,8
3.75,11,2,5,6,6,2,1,3
3.755,11,3,8,13,9,1,4,1
3.76,0,1,7,2,1,8,7,3
3.765,0,7,16,13,4,3,2,1
3.77,10,2,2,32,19,8,8,9
3.775,0,1,1,12,4,4,1,0
3.78,2,0,2,12,4,0,3,2
3.785,1,4,3,4,11,2,3,3
3.79,9,1,8,9,9,2,1,5
3.795,4,2,3,10,3,3,2,0
3.8,2,1,3,11,0,1,1,4
3.805,1,1,6,16,7,4,4,0
3.81,9,6,4,14,7,1,1,2
3.815,3,1,4,4,1,1,2,1
3.82,3,3,5,5,2,1,1,1
3.825,4,1,3,18,6,1,2,1
3.83,4,4,3,21,17,7,3,5
3.835,2,5,0,3,2,4,3,1
3.84,1,5,5,11,4,1,1,0
3.845,1,1,4,0,3,2,1,1
3.85,5,6,1,8,7,3,0,2
3.855,1,5,1,5,5,4,2,1
3.86,1,3,4,0,6,3,4,1
3.865,0,20,5,7,6,1,1,2
3.87,11,11,2,6,6,1,0,2
3.875,1,9,2,2,3,3,1,3
3.88,4,2,0,5,5,3,2,1
3.885,3,7,1,3,1,2,2,2
3.89,0,5,4,9,7,1,1,1
3.895,0,3,3,12,8,3,2,3
3.9,5,25,3,3,4,4,4,2
3.905,2,9,0,0,1,1,1,1
3.91,2,8,0,5,10,4,4,1
3.915,1,3,2,2,6,2,1,0
3.92,4,2,3,0,3,2,3,4
3.925,2,1,0,1,1,0,2,0
3.93,2,0,2,7,7,1,0,2
3.935,1,3,2,1,3,5,3,1
3.94,3,5,2,1,2,1,0,1
3.945,4,1,2,1,0,2,2,0
3.95,1,3,1,3,0,3,3,1
3.955,1,1,3,3,1,0,1,1
3.96,2,6,0,2,1,2,0,0
3.965,2,3,3,3,6,0,1,1
3.97,2,1,5,3,2,1,1,1
3.975,1,1,1,1,1,0,0,0
3.98,4,0,2,3,0,3,1,1
3.985,1,2,1,3,1,2,2,2
3.99,3,1,1,5,3,3,2,1
3.995,2,4,2,4,4,2,3,2
4,2,3,1,0,1,3,3,1
4.005,0,4,2,2,3,2,2,1
4.01,1,5,3,5,0,3,1,1
4.015,3,5,1,3,2,3,1,2
4.02,5,0,1,5,0,1,1,1
4.025,2,4,2,1,2,0,4,2
4.03,5,8,3,2,5,5,0,2
4.035,1,1,1,7,6,2,0,1
4.04,3,1,1,4,1,1,1,1
4.045,1,1,2,4,7,3,2,0
4.05,6,1,0,8,7,6,3,1
4.055,2,2,2,8,10,3,3,2
4.06,4,4,1,17,17,4,3,0
4.065,3,1,1,7,5,4,4,3
4.07,3,2,1,6,3,0,1,1
4.075,2,0,1,6,5,4,2,1
4.08,2,2,4,7,12,6,4,2
4.085,20,1,0,5,1,2,1,0
4.09,3,2,1,1,5,0,1,3
4.095,2,0,1,1,0,1,0,1
4.1,1,1,1,3,4,2,1,2
4.105,4,1,2,2,2,2,2,2
4.11,2,1,0,0,0,1,3,2
4.115,1,8,1,1,1,1,3,8
4.12,4,6,4,0,1,2,0,8
4.125,7,4,4,2,4,2,8,10
4.13,0,6,0,2,4,6,14,31
4.135,24,5,15,11,5,5,25,46
4.14,50,3,22,1,2,1,27,72
4.145,70,12,40,3,0,3,56,101
4.15,59,79,90,23,10,5,45,112
4.155,8,33,52,9,5,0,11,1
4.16,43,65,40,31,16,25,80,12
4.165,9,17,6,26,15,25,73,72
4.17,9,77,102,13,5,4,66,7
4.175,11,11,83,18,0,8,69,106
4.18,32,85,74,37,12,9,10,117
4.185,44,91,14,27,11,14,42,35
4.19,66,46,28,12,8,14,112,75
4.195,52,22,12,4,1,3,9,19
4.2,79,32,3,18,6,7,9,5
4.205,43,95,71,47,22,30,87,69
4.21,22,67,54,15,8,4,35,10
4.215,31,15,4,0,2,3,12,20
4.22,3,9,14,1,1,0,7,37
4.225,10,10,43,8,5,9,0,9
4.23,16,29,6,4,3,2,28,15
4.235,8,12,7,8,3,2,12,4
4.24,22,19,9,17,8,8,11,24
4.245,8,6,9,6,4,6,8,5
4.25,47,16,18,10,4,2,9,12
4.255,52,41,15,4,6,7,12,4
4.26,4,27,7,13,5,5,13,23
4.265,13,17,23,4,2,11,50,93
4.27,16,5,15,6,0,1,3,36
4.275,2,15,21,1,2,6,16,69
4.28,3,28,25,12,9,4,0,21
4.285,7,1,16,11,7,4,4,25
4.29,1,10,11,1,1,2,11,1
4.295,1,42,27,2,2,3,2,57
4.3,15,32,1,7,6,7,7,7
4.305,7,25,10,13,12,1,0,0
4.31,5,39,6,35,7,4,9,26
4.315,18,1,2,7,5,6,9,11
4.32,7,14,6,16,5,9,17,5
4.325,19,5,16,46,24,15,22,7
4.33,55,17,34,86,57,11,6,19
4.335,2,13,7,3,3,3,17,11
4.34,28,48,3,6,10,1,8,19
4.345,1,21,19,10,23,8,1,11
4.35,22,18,8,40,18,6,4,3
4.355,9,11,6,6,6,2,7,2
4.36,19,42,3,13,14,14,12,13
4.365,49,23,0,2,10,4,5,0
4.37,51,30,9,6,7,5,1,12
4.375,1,11,4,3,2,3,1,9
4.38,2,12,4,8,10,1,2,9
4.385,26,21,10,5,1,8,2,8
4.39,4,24,17,6,10,1,3,8
4.395,15,28,9,0,14,8,1,2
4.4,4,11,24,59,4,7,3,3
4.405,17,11,24,25,6,8,5,1
4.41,1,25,1,17,10,1,2,2
4.415,14,3,3,7,7,3,2,1
4.42,9,5,1,3,15,14,8,10
4.425,8,20,15,15,19,20,4,2
4.43,7,3,10,46,1,24,1,4
4.435,93,20,7,43,18,0,1,9
4.44,34,9,7,37,14,4,1,4
4.445,18,8,9,3,7,10,5,5
4.45,43,15,20,62,28,14,1,2
4.455,39,5,19,0,24,1,2,2
4.46,3,13,15,3,1,4,3,4
4.465,12,5,6,18,5,8,2,1
4.47,30,34,27,56,39,3,3,6
4.475,42,16,12,30,3,2,5,6
4.48,34,1,6,36,37,9,0,6
4.485,9,20,10,7,35,14,2,5
4.49,24,13,20,6,9,1,3,2
4.495,29,29,4,16,0,7,1,1
4.5,20,27,2,27,5,3,1,3
4.505,6,8,14,24,9,11,1,2
4.51,4,7,2,67,44,2,7,5
4.515,6,8,7,36,35,6,1,0
4.52,26,26,4,5,9,1,2,1
4.525,8,7,10,26,5,0,0,2
4.53,29,42,1,9,7,1,4,6
4.535,17,5,2,47,18,9,6,7
4.54,5,9,7,44,7,5,2,4
4.545,9,3,5,25,23,5,11,3
4.55,16,6,1,0,5,6,4,1
4.555,5,11,1,15,17,6,5,5
4.56,12,25,8,45,13,4,2,6
4.565,6,15,1,21,6,2,5,0
4.57,5,3,6,9,1,0,0,1
4.575,8,10,2,12,6,6,0,0
4.58,4,5,2,8,7,7,2,6
4.585,2,1,4,31,36,1,1,4
4.59,6,16,8,27,8,6,3,4
4.595,9,1,6,23,19,1,3,2
4.6,15,18,7,13,15,11,6,1
4.605,6,7,6,17,3,3,4,2
4.61,18,16,1,29,12,0,1,3
4.615,39,44,10,2,8,8,3,7
4.62,3,9,1,14,5,1,0,1
4.625,16,8,1,20,18,8,4,3
4.63,16,13,2,15,8,1,0,2
4.635,0,3,5,3,10,7,3,2
4.64,5,3,2,25,3,1,2,0
4.645,10,3,3,28,2,3,3,4
4.65,33,17,15,25,12,4,4,7
4.655,8,4,11,2,1,1,1,0
4.66,7,12,9,3,7,2,1,5
4.665,1,26,2,8,8,1,2,1
4.67,5,2,2,21,4,1,2,0
4.675,16,36,12,2,2,4,2,5
4.68,21,14,12,6,4,1,0,2
4.685,17,25,14,13,6,6,5,4
4.69,16,8,15,7,2,2,3,0
4.695,0,8,19,12,3,0,1,0
4.7,7,12,17,6,3,4,2,2
4.705,17,12,11,4,2,0,4,3
4.71,2,0,5,3,2,0,1,2
4.715,25,12,3,0,7,3,1,1
4.72,36,19,14,6,9,1,2,9
4.725,3,5,3,23,12,2,2,0
4.73,8,2,7,11,8,0,0,0
4.735,8,14,4,12,9,3,0,2
4.74,16,0,3,9,0,3,1,0
4.745,22,26,4,11,5,1,1,3
4.75,5,0,3,11,1,1,0,2
4.755,12,3,0,21,1,2,3,5
4.76,11,7,1,5,5,1,2,2
4.765,8,7,6,6,7,1,0,1
4.77,8,4,4,1,3,0,3,1
4.775,11,32,20,9,13,1,3,1
4.78,13,6,10,27,15,4,3,6
4.785,11,12,3,4,0,3,1,1
4.79,6,15,1,6,2,2,1,1
4.795,54,27,2,4,1,3,2,1
4.8,21,1,11,17,6,0,0,1
4.805,13,28,9,1,2,0,0,1
4.81,15,46,8,2,0,4,2,1
4.815,26,31,9,6,3,1,1,1
4.82,7,11,7,1,2,0,0,0
4.825,14,25,2,2,1,3,1,1
4.83,5,18,15,1,0,3,3,5
4.835,6,5,7,4,6,1,1,7
4.84,0,12,1,2,0,1,0,2
4.845,26,28,7,1,0,1,3,0
4.85,1,0,11,4,0,0,0,1
4.855,12,31,3,6,3,3,2,1
4.86,13,17,3,1,2,2,1,2
4.865,6,4,5,6,3,2,1,2
4.87,3,19,4,1,1,1,1,1
4.875,3,10,0,3,4,2,0,2
4.88,7,45,3,6,2,0,0,1
4.885,7,9,9,0,1,1,2,2
4.89,16,8,2,3,0,1,0,0
4.895,15,34,0,4,1,1,2,1
4.9,34,25,9,2,3,3,3,3
4.905,0,4,3,2,1,1,2,1
4.91,1,21,5,2,0,0,0,2
4.915,3,1,3,1,3,3,2,2
4.92,5,4,4,3,2,0,0,1
4.925,0,17,4,1,0,1,1,2
4.93,9,2,4,0,1,0,0,2
4.935,0,2,9,2,2,3,2,3
4.94,7,7,7,4,3,0,1,6
4.945,4,2,1,5,0,0,0,1
4.95,4,12,0,6,3,2,1,2
4.955,8,28,12,2,0,2,0,3
4.96,30,10,4,1,1,2,1,2
4.965,33,16,10,4,2,1,1,3
4.97,15,2,4,8,3,2,3,2
4.975,7,22,13,7,3,2,2,3
4.98,47,1,3,1,2,3,2,0
4.985,15,14,6,4,3,3,1,4
4.99,17,2,6,3,1,1,2,3
4.995,6,8,3,2,1,1,2,0
5,21,2,9,5,4,2,2,1
5.005,7,3,9,6,0,1,1,1
5.01,7,24,11,2,3,4,1,2
5.015,14,8,6,3,2,2,0,1
5.02,20,17,0,0,3,1,0,2
5.025,3,17,0,3,3,2,2,3
5.03,10,5,4,3,1,1,1,1
5.035,0,5,6,3,1,0,1,1
5.04,16,0,0,1,1,4,1,0
5.045,8,7,2,6,3,0,1,0
5.05,6,31,13,8,6,2,1,2
5.055,1,11,2,5,4,1,0,1
5.06,9,12,1,2,0,1,1,1
5.065,14,9,4,1,0,2,2,2
5.07,22,7,5,3,0,1,0,2
5.075,40,10,0,2,2,0,1,2
5.08,25,16,11,4,1,3,1,1
5.085,18,7,9,0,2,1,0,2
5.09,5,2,6,4,3,2,2,2
5.095,1,11,4,3,1,2,1,2
5.1,9,2,0,2,0,0,1,1
5.105,22,3,2,1,1,3,2,0
5.11,21,5,0,3,0,1,0,1
5.115,10,6,3,12,4,2,1,1
5.12,10,9,0,0,1,1,2,0
5.125,5,0,2,1,1,2,0,1
5.13,10,18,5,1,1,0,2,3
5.135,7,8,1,4,1,2,2,1
5.14,1,3,6,3,2,1,0,2
5.145,10,1,0,1,1,2,2,1
5.15,19,25,4,1,0,1,4,3
5.155,6,20,10,2,0,1,1,1
5.16,0,2,1,3,2,1,0,2
5.165,5,14,7,0,1,0,3,0
5.17,8,0,2,4,3,2,0,2
5.175,5,4,0,3,3,1,2,0
5.18,4,17,1,1,0,3,2,2
5.185,4,4,4,2,1,1,0,1
5.19,17,47,7,4,0,2,3,1
5.195,11,57,5,7,3,3,2,1
5.2,5,1,1,2,1,1,1,1
5.205,6,0,10,7,2,1,2,1
5.21,2,8,3,3,1,0,3,1
5.215,13,35,9,4,1,0,2,2
5.22,3,5,2,1,2,3,2,2
5.225,4,18,6,1,1,2,2,1
5.23,6,13,1,5,3,1,1,1
5.235,3,7,2,1,2,1,2,0
5.24,16,12,4,3,3,1,1,0
5.245,20,6,3,1,2,3,2,1
5.25,15,7,1,1,2,1,0,1
5.255,29,8,0,1,2,2,2,2
5.26,4,5,7,1,1,1,1,1
5.265,16,7,4,2,1,2,1,4
5.27,7,7,3,2,0,1,1,4
5.275,8,2,2,0,2,1,1,1
5.28,12,15,2,0,2,1,1,0
5.285,26,32,8,1,0,1,2,2
5.29,5,13,2,1,3,3,2,2
5.295,9,8,4,4,2,1,1,2
5.3,0,13,9,9,5,3,1,2
5.305,2,27,1,4,1,2,1,1
5.31,3,34,1,4,4,3,3,2
5.315,2,13,0,4,1,2,0,1
5.32,4,7,4,2,1,3,2,1
5.325,10,6,1,3,1,1,4,1
5.33,11,13,5,1,2,1,2,2
5.335,8,6,0,0,3,1,1,0
5.34,3,2,0,1,1,0,1,0
5.345,12,3,2,0,1,1,1,1
5.35,6,3,6,5,4,1,1,0
5.355,5,3,5,3,1,1,0,1
5.36,2,6,1,0,1,0,1,3
5.365,16,6,5,1,2,1,2,0
5.37,15,39,10,1,0,1,2,1
5.375,15,2,3,4,2,3,3,2
5.38,22,11,2,0,1,1,1,2
5.385,7,19,6,4,0,2,3,2
5.39,13,20,3,1,1,0,2,1
5.395,4,6,5,1,3,1,0,1
5.4,6,11,1,3,1,1,2,0
5.405,1,7,5,3,3,2,2,3
5.41,20,3,5,4,1,1,1,2
5.415,2,5,0,1,2,0,0,2
5.42,12,3,7,5,2,0,2,0
5.425,1,9,3,4,3,2,1,1
5.43,5,1,6,3,4,4,2,2
5.435,1,7,0,3,0,0,1,1
5.44,6,3,2,2,0,0,0,1
5.445,2,1,4,2,1,2,0,1
5.45,4,2,1,0,1,3,1,1
5.455,9,2,3,1,1,2,3,0
5.46,15,4,7,3,0,0,1,1
5.465,11,27,0,2,2,1,0,1
5.47,29,7,2,1,1,0,1,2
5.475,17,5,4,3,1,0,1,2
5.48,1,10,3,1,1,1,1,1
5.485,4,38,3,4,1,1,1,2
5.49,9,17,9,0,1,1,2,1
5.495,12,14,2,1,0,2,2,2
5.5,0,3,3,0,1,1,1,1
5.505,8,38,5,2,3,5,3,6
5.51,8,11,7,4,3,1,2,0
5.515,4,2,1,0,1,1,1,0
5.52,7,4,4,2,1,1,1,1
5.525,15,13,1,2,0,1,1,0
5.53,10,1,3,1,0,1,0,2
5.535,2,2,4,2,3,2,0,2
5.54,2,13,3,2,1,2,0,2
5.545,3,14,5,14,5,2,2,2
5.55,2,10,6,2,1,2,3,1
5.555,4,6,5,2,3,1,1,1
5.56,9,5,1,1,2,3,1,2
5.565,6,1,1,3,2,1,2,0
5.57,1,6,4,1,0,1,0,0
5.575,1,4,1,1,1,2,2,0
5.58,12,9,1,0,1,1,2,2
5.585,0,4,0,2,3,1,2,1
5.59,10,2,3,3,3,3,3,1
5.595,6,14,4,2,0,1,0,0
5.6,32,4,4,2,3,2,4,5
5.605,33,11,2,0,0,1,1,4
5.61,11,4,4,0,1,1,1,0
5.615,8,34,7,1,1,2,0,1
5.62,20,1,0,1,2,2,0,1
5.625,10,3,1,0,0,1,1,2
5.63,10,8,2,3,1,2,2,2
5.635,3,14,4,1,3,1,1,1
5.64,12,4,0,3,1,1,3,3
5.645,11,2,2,1,1,2,2,2
5.65,8,4,2,2,1,0,0,0
5.655,6,5,0,3,1,1,2,0
5.66,11,1,3,1,3,3,2,0
5.665,14,6,2,1,1,1,2,0
5.67,0,1,1,0,0,2,1,0
5.675,6,1,3,3,2,2,0,2
5.68,0,4,0,2,0,1,0,2
5.685,10,8,5,5,2,3,1,3
5.69,1,16,0,2,0,1,1,0
5.695,5,11,0,2,0,0,3,3
5.7,4,1,2,1,1,0,1,0
5.705,19,9,2,1,1,1,1,1
5.71,9,9,5,3,2,3,2,0
5.715,17,17,5,3,1,2,2,3
5.72,6,56,9,2,1,3,3,3
5.725,14,66,24,6,0,3,4,6
5.73,25,10,4,4,3,4,2,4
5.735,6,11,3,2,1,4,2,5
5.74,10,11,3,2,0,0,1,3
5.745,3,19,7,2,0,2,3,2
5.75,0,3,0,1,0,0,1,0
5.755,4,10,2,0,0,1,2,0
5.76,9,19,4,1,1,4,1,2
5.765,7,9,1,1,0,0,0,1
5.77,5,27,1,2,2,1,1,1
5.775,17,17,3,2,3,1,0,2
5.78,50,19,9,1,1,0,1,3
5.785,13,16,4,2,1,1,3,0
5.79,2,19,4,2,1,2,1,2
5.795,9,6,1,1,2,1,1,2
5.8,1,12,0,2,1,2,1,1
5.805,13,15,4,0,2,1,0,1
5.81,2,5,5,2,0,0,1,1
5.815,1,4,4,1,2,1,0,0
5.82,23,39,12,2,0,1,2,3
5.825,23,9,4,1,1,2,3,3
5.83,1,6,2,5,3,4,5,3
5.835,18,1,1,3,0,1,1,2
5.84,4,17,3,1,1,1,1,1
5.845,9,3,3,0,1,0,2,1
5.85,8,1,0,3,1,2,2,1
5.855,11,8,3,2,3,3,3,1
5.86,8,8,6,1,2,2,2,1
5.865,1,1,2,2,1,2,0,1
5.87,9,10,0,2,2,2,1,2
5.875,8,4,3,2,3,0,1,2
5.88,6,8,2,4,2,1,1,2
5.885,18,8,4,0,3,2,3,4
5.89,27,12,6,6,3,1,2,0
5.895,11,16,2,0,1,1,0,1
5.9,14,7,1,3,2,1,1,1
5.905,5,2,3,3,1,2,2,0
5.91,7,24,7,4,2,1,1,4
5.915,4,14,7,0,1,2,1,0
5.92,11,55,9,3,1,1,0,4
5.925,5,28,8,2,2,1,3,3
5.93,6,13,2,3,3,5,5,1
5.935,14,3,3,1,1,1,2,1
5.94,13,17,4,1,2,3,1,2
5.945,5,6,1,2,1,3,1,1
5.95,9,4,4,2,2,2,1,0
5.955,20,16,8,1,1,1,2,4
5.96,21,10,4,1,2,1,0,0
5.965,11,7,3,3,0,1,1,0
5.97,3,1,2,0,3,3,0,3
5.975,6,4,2,1,1,1,1,0
5.98,2,21,4,3,1,2,1,1
5.985,6,9,2,1,2,2,2,2
5.99,7,10,7,1,1,0,2,2
5.995,0,3,2,1,1,1,0,2
6,8,8,2,2,1,2,2,2
6.005,27,19,9,5,1,0,0,0
6.01,6,6,6,3,2,2,2,2
6.015,5,4,0,1,1,1,0,2
6.02,7,27,10,2,2,1,3,4
6.025,0,4,3,3,2,2,1,0
6.03,9,1,1,1,2,1,1,2
6.035,6,1,5,1,0,1,0,1
6.04,20,16,7,4,3,2,2,3
6.045,13,4,6,2,3,1,0,1
6.05,9,12,2,1,2,2,1,1
6.055,8,8,2,0,0,2,2,3
6.06,7,5,4,3,2,3,2,1
6.065,10,17,2,3,4,2,1,0
6.07,2,1,3,1,0,2,2,1
6.075,8,4,2,2,1,3,2,0
6.08,6,8,4,3,2,0,2,2
6.085,9,5,5,1,1,1,0,1
6.09,5,53,7,0,0,4,3,2
6.095,0,28,2,1,3,1,0,0
6.1,16,3,1,2,1,2,4,1
6.105,19,5,3,0,1,2,1,4
6.11,16,21,1,1,3,0,1,1
6.115,7,10,4,2,2,0,1,1
6.12,9,17,3,1,1,0,1,0
6.125,8,11,1,1,0,2,2,0
6.13,2,35,9,1,0,2,1,1
6.135,14,20,2,3,1,3,2,2
6.14,1,2,4,0,1,1,1,0
6.145,4,6,1,2,0,2,2,0
6.15,1,12,3,3,1,2,1,1
6.155,8,5,1,2,2,2,0,0
6.16,8,28,10,1,0,0,1,0
6.165,20,7,4,2,2,2,2,2
6.17,8,8,0,0,0,0,0,1
6.175,9,5,3,2,1,1,0,1
6.18,5,11,3,4,2,4,2,4
6.185,14,13,0,2,2,2,2,1
6.19,13,7,1,1,1,1,1,0
6.195,7,5,4,4,2,4,1,1
6.2,5,3,1,1,2,1,0,1
6.205,13,0,3,1,1,1,1,1
6.21,12,2,1,1,1,1,0,1
6.215,1,0,0,1,3,3,3,2
6.22,3,16,8,2,0,2,1,1
6.225,5,50,23,3,1,4,4,3
6.23,5,3,5,5,4,2,4,1
6.235,7,4,0,1,0,0,1,1
6.24,12,16,7,2,1,1,2,6
6.245,9,1,1,2,2,2,4,2
6.25,4,35,6,0,1,1,2,4
6.255,1,50,11,2,2,3,2,3
6.26,7,1,1,1,1,1,0,0
6.265,0,19,6,2,2,1,1,1
6.27,9,1,2,1,2,1,0,1
6.275,11,14,3,1,1,4,4,1
6.28,5,7,2,0,1,1,1,2
6.285,0,10,5,3,1,2,0,1
6.29,1,11,12,1,3,1,3,2
6.295,5,13,5,2,1,2,1,2
6.3,9,12,4,1,1,0,2,2
6.305,4,15,4,2,3,2,2,0
6.31,11,8,10,0,2,1,2,0
6.315,4,25,1,2,1,0,1,2
6.32,7,6,5,1,1,2,2,1
6.325,2,15,7,5,1,0,2,4
6.33,3,9,0,2,1,1,2,1
6.335,5,9,8,1,2,2,4,1
6.34,3,13,2,0,0,0,0,1
6.345,13,11,7,0,1,2,2,1
6.35,38,7,1,1,1,2,1,1
6.355,3,21,4,2,4,0,2,5
6.36,3,3,0,4,3,2,0,0
6.365,0,5,4,0,0,3,3,2
6.37,7,0,4,0,0,1,0,1
6.375,13,4,4,1,0,2,5,3
6.38,5,8,0,1,2,3,1,2
6.385,4,4,1,1,1,0,1,2
6.39,0,5,4,2,1,1,1,2
6.395,4,2,12,0,1,1,1,1
6.4,13,1,1,3,3,1,2,2
6.405,11,2,2,2,1,3,1,1
6.41,13,2,2,3,3,3,2,3
6.415,10,2,3,2,1,1,1,1
6.42,14,9,2,3,0,2,1,0
6.425,8,2,2,3,4,4,3,0
6.43,4,2,3,1,1,2,1,0
6.435,11,3,1,2,1,1,1,1
6.44,0,1,1,0,1,0,1,0
6.445,18,2,0,0,1,1,0,0
6.45,5,5,1,1,2,2,1,0
6.455,14,5,0,0,1,1,1,1
6.46,10,8,4,4,0,2,2,2
6.465,7,6,0,2,1,1,1,3
6.47,3,8,0,2,2,2,2,3
6.475,4,9,4,1,2,2,1,1
6.48,5,7,5,2,0,1,2,1
6.485,4,5,0,3,3,0,1,1
6.49,8,7,1,1,0,0,0,3
6.495,3,21,2,2,1,0,0,3
6.5,7,5,4,1,2,1,0,0
6.505,1,6,1,2,2,2,2,2
6.51,10,6,4,1,1,3,2,0
6.515,27,17,6,3,2,2,1,3
6.52,2,6,5,2,2,3,4,3
6.525,9,6,2,0,1,1,1,1
6.53,5,10,6,1,0,0,0,1
6.535,4,21,7,1,0,2,0,2
6.54,2,0,1,2,2,1,1,1
6.545,9,9,8,2,0,1,0,0
6.55,11,18,4,1,1,2,1,1
6.555,2,10,12,3,2,2,1,3
6.56,20,9,1,2,2,3,2,1
6.565,19,1,1,1,0,2,0,1
6.57,2,2,1,2,0,1,4,0
6.575,5,11,5,0,2,2,0,1
6.58,3,18,5,1,2,1,2,1
6.585,4,18,2,1,0,1,1,2
6.59,2,3,3,1,3,2,1,3
6.595,14,10,0,1,3,3,3,2
6.6,8,4,2,3,1,2,2,1
6.605,12,16,3,0,1,1,0,2
6.61,2,4,6,2,4,0,1,1
6.615,1,2,0,3,2,2,2,0
6.62,1,7,0,1,2,2,1,1
6.625,1,0,0,0,1,0,1,1
6.63,4,22,13,3,2,3,3,2
6.635,2,10,2,3,1,0,1,2
6.64,3,2,7,2,0,0,1,1
6.645,3,1,3,0,3,1,1,0
6.65,10,14,4,3,2,2,1,1
6.655,3,0,5,1,5,3,1,1
6.66,9,3,0,2,2,1,1,1
6.665,6,13,10,2,3,3,3,3
6.67,2,27,7,1,0,1,1,2
6.675,3,0,2,1,0,1,0,2
6.68,3,19,3,0,0,1,1,1
6.685,0,10,0,1,2,0,2,0
6.69,6,1,3,0,0,0,0,3
6.695,26,18,0,1,1,3,0,2
6.7,1,2,4,2,1,2,1,1
6.705,7,5,1,0,0,3,1,2
6.71,2,6,2,2,1,2,1,1
6.715,9,2,3,1,3,3,4,0
6.72,7,5,2,2,0,1,1,0
6.725,8,5,2,2,1,2,1,2
6.73,5,2,2,2,1,3,0,1
6.735,6,2,8,4,2,3,2,2
6.74,14,14,9,0,1,3,3,3
6.745,4,5,6,1,2,0,1,2
6.75,8,6,3,2,1,1,1,1
6.755,15,8,0,2,0,1,0,1
6.76,4,9,2,2,1,2,1,1
6.765,10,3,1,2,2,2,0,2
6.77,5,6,1,3,1,3,0,1
6.775,0,3,0,1,2,1,2,1
6.78,4,2,3,2,1,0,2,2
6.785,10,5,0,1,1,0,1,1
6.79,12,9,1,1,2,0,1,0
6.795,4,2,1,1,0,0,1,1
6.8,19,2,3,3,1,1,1,1
6.805,14,5,1,4,1,1,1,2
6.81,24,2,2,1,0,1,1,2
6.815,9,5,3,2,1,0,0,1
6.82,6,16,8,1,2,3,3,2
6.825,7,6,1,1,0,2,2,0
6.83,2,9,4,3,1,3,2,1
6.835,4,1,0,1,0,0,0,1
6.84,23,17,8,0,0,1,2,2
6.845,5,22,11,1,2,2,0,1
6.85,11,2,4,1,2,1,1,0
6.855,6,5,5,1,1,1,0,0
6.86,9,3,5,1,3,1,0,2
6.865,2,6,6,2,0,0,1,0
6.87,9,5,3,4,3,2,1,1
6.875,6,8,3,2,1,1,2,1
6.88,4,3,0,1,1,1,2,2
6.885,7,7,3,1,2,2,2,3
6.89,2,15,7,3,2,1,2,3
6.895,3,0,1,1,4,2,2,0
6.9,13,5,6,2,2,2,2,1
6.905,3,9,1,0,1,0,1,0
6.91,5,11,3,0,2,4,1,1
6.915,9,7,1,1,2,0,1,1
6.92,9,1,2,1,2,0,1,1
6.925,2,0,9,4,3,3,4,2
6.93,0,27,6,3,0,1,3,5
6.935,7,15,2,0,0,0,1,2
6.94,1,6,1,3,2,2,2,1
6.945,13,12,3,0,2,0,0,1
6.95,16,10,3,2,1,1,1,2
6.955,15,19,9,3,2,3,1,4
6.96,6,12,0,0,0,0,1,1
6.965,6,54,17,1,0,0,0,5
6.97,9,8,1,0,3,0,0,0
6.975,13,3,2,3,1,4,2,2
6.98,2,10,2,1,2,2,1,0
6.985,4,21,5,1,0,1,1,3
6.99,8,14,1,1,3,2,0,1
6.995,3,27,8,1,1,1,1,0
7,6,6,12,5,3,4,3,2
7.005,5,13,2,2,2,3,0,2
7.01,3,10,0,0,3,0,0,1
7.015,10,11,5,1,1,1,1,1
7.02,0,29,6,1,0,0,0,1
7.025,4,2,0,2,2,2,0,1
7.03,3,18,11,0,3,1,1,0
7.035,5,3,5,1,1,3,2,3
7.04,8,4,0,0,2,1,2,2
7.045,0,10,2,1,3,2,2,2
7.05,0,4,8,2,0,2,0,3
7.055,6,19,4,1,1,3,0,0
7.06,3,52,5,2,0,1,1,2
7.065,10,21,7,0,0,1,2,3
7.07,14,14,7,3,3,3,4,2
7.075,1,25,3,1,3,2,0,0
7.08,5,19,5,1,0,2,0,4
7.085,2,3,1,2,1,0,1,11
7.09,11,2,3,2,1,1,2,2
7.095,9,6,4,4,1,1,1,4
7.1,4,1,8,4,4,2,2,1
7.105,8,37,3,2,1,0,2,2
7.11,11,25,7,1,1,0,1,1
7.115,7,4,12,2,2,2,1,0
7.12,27,8,1,0,3,4,1,0
7.125,5,2,1,0,1,2,2,6
7.13,1,16,1,2,1,0,2,0
7.135,24,7,3,0,1,0,0,2
7.14,15,14,2,1,1,1,1,1
7.145,9,8,9,3,4,4,1,3
7.15,23,55,13,3,1,0,1,2
7.155,10,5,3,1,0,1,1,1
7.16,4,11,0,4,2,0,1,2
7.165,5,4,2,3,2,2,1,4
7.17,12,18,12,2,1,1,0,5
7.175,4,3,1,1,2,1,0,0
7.18,10,10,2,0,2,0,2,1
7.185,16,2,13,3,0,2,1,7
7.19,24,2,9,2,0,1,1,0
7.195,12,2,6,2,0,1,4,0
7.2,29,32,5,0,0,1,1,3
7.205,6,15,4,1,0,1,1,2
7.21,8,9,3,0,1,2,3,1
7.215,1,2,0,2,3,2,3,3
7.22,9,10,0,4,2,1,1,0
7.225,22,1,3,0,1,2,0,4
7.23,11,19,4,1,3,3,2,4
7.235,6,30,9,1,1,1,0,2
7.24,23,4,1,0,0,1,2,1
7.245,33,12,4,2,1,2,1,4
7.25,5,27,3,2,4,3,3,2
7.255,16,17,7,2,1,1,2,2
7.26,10,16,4,1,2,1,1,3
7.265,4,12,4,1,1,3,2,1
7.27,5,3,5,0,1,1,0,2
7.275,1,6,4,0,1,2,2,1
7.28,14,20,1,0,2,0,0,4
7.285,6,9,10,4,3,4,4,2
7.29,14,4,10,2,0,2,2,11
7.295,5,5,2,0,0,0,2,0
7.3,10,6,11,3,2,0,1,0
7.305,3,34,2,0,1,2,0,0
7.31,10,47,1,1,1,1,0,3
7.315,5,14,0,3,3,2,2,0
7.32,4,33,8,1,1,1,1,2
7.325,13,4,3,1,4,2,0,0
7.33,6,14,5,0,2,2,0,1
7.335,16,31,10,2,2,0,1,4
7.34,1,26,3,2,2,4,2,1
7.345,3,5,1,1,1,0,1,0
7.35,8,25,7,0,1,1,1,3
7.355,1,2,3,3,2,0,3,4
7.36,4,1,2,0,2,1,1,1
7.365,18,4,2,3,3,3,3,0
7.37,12,84,18,2,0,4,2,3
7.375,8,31,7,1,3,2,2,3
7.38,9,5,3,3,3,2,3,2
7.385,18,9,6,1,2,1,2,0
7.39,15,33,1,2,0,0,2,0
7.395,7,20,5,0,1,0,0,0
7.4,6,5,0,0,2,2,1,8
7.405,3,11,1,1,1,2,2,7
7.41,1,27,10,6,3,3,1,0
7.415,12,9,3,1,1,0,1,2
7.42,21,25,14,2,2,2,0,0
7.425,5,2,0,0,0,2,0,1
7.43,6,6,3,1,2,2,3,1
7.435,8,11,5,3,2,4,2,4
7.44,4,2,2,1,2,1,2,2
7.445,8,15,1,1,1,1,2,1
7.45,19,66,20,2,2,2,3,1
7.455,2,19,11,4,1,2,0,0
7.46,12,9,5,3,2,4,3,4
7.465,10,18,1,4,2,2,1,1
7.47,11,53,6,2,0,2,1,1
7.475,18,12,6,1,1,0,2,3
7.48,9,6,1,1,1,1,1,1
7.485,5,3,5,0,1,2,3,0
7.49,2,30,15,4,2,2,3,4
7.495,1,8,2,1,1,1,0,0
7.5,5,20,7,3,0,0,1,5
7.505,9,4,4,2,2,2,1,2
7.51,13,15,10,3,2,5,10,1
7.515,15,3,6,1,1,0,0,0
7.52,13,44,13,1,1,1,3,2
7.525,2,30,4,0,2,2,2,2
7.53,1,48,7,0,0,3,4,1
7.535,4,19,7,2,2,2,1,2
7.54,22,11,4,2,3,0,5,2
7.545,2,17,5,3,2,3,1,0
7.55,22,4,1,2,1,2,2,5
7.555,2,1,3,0,0,3,3,3
7.56,19,7,13,3,1,2,2,2
7.565,27,5,5,1,1,2,2,12
7.57,4,26,7,4,5,2,3,1
7.575,12,15,7,3,2,0,0,2
7.58,9,41,17,0,1,0,2,12
7.585,16,5,5,4,3,2,4,26
7.59,0,46,6,0,1,2,0,3
7.595,19,62,23,0,4,2,2,0
7.6,15,34,11,3,2,3,6,10
7.605,16,2,1,1,1,1,0,8
7.61,19,9,3,2,0,1,0,1
7.615,11,9,10,0,0,0,0,1
7.62,6,5,3,2,3,2,2,0
7.625,2,1,11,1,1,4,2,3
7.63,13,32,15,1,1,2,2,6
7.635,24,15,5,1,1,3,6,2
7.64,1,13,8,3,2,4,2,7
7.645,5,29,10,2,1,1,2,3
7.65,3,1,6,0,2,2,1,4
7.655,7,3,11,3,3,2,0,1
7.66,9,2,2,1,0,1,3,0
7.665,15,17,5,1,1,1,0,1
7.67,11,10,5,3,4,7,9,2
7.675,5,16,11,2,2,2,3,2
7.68,5,50,18,3,2,3,2,8
7.685,13,10,12,2,1,1,3,4
7.69,6,9,4,0,1,3,7,4
7.695,5,19,10,1,1,4,9,6
7.7,5,43,22,4,3,4,1,1
7.705,1,4,3,1,2,1,1,5
7.71,1,22,3,0,2,0,1,5
7.715,4,17,9,1,1,1,4,1
7.72,5,4,0,1,3,1,1,28
7.725,12,14,1,3,3,4,6,6
7.73,7,15,6,3,1,1,1,2
7.735,22,19,2,1,1,0,1,7
7.74,22,17,7,1,2,0,4,6
7.745,11,7,2,2,3,2,2,1
7.75,6,14,2,1,1,2,3,1
7.755,7,16,12,5,4,3,1,16
7.76,10,10,26,3,3,5,6,7
7.765,2,2,1,0,1,4,7,1
7.77,0,15,7,3,4,4,6,10
7.775,9,5,0,1,2,1,4,7
7.78,30,27,7,3,3,4,7,7
7.785,8,2,2,3,0,1,4,8
7.79,6,3,9,4,2,5,3,7
7.795,0,2,1,2,1,2,3,5
7.8,20,20,0,1,3,2,3,12
7.805,19,1,5,2,1,2,0,7
7.81,3,2,2,4,3,3,4,3
7.815,12,0,3,0,1,1,2,3
7.82,9,32,17,4,1,5,4,5
7.825,1,23,3,1,2,1,1,4
7.83,4,13,2,1,1,1,9,3
7.835,12,1,2,1,3,1,1,7
7.84,6,16,1,2,3,5,12,14
7.845,0,25,6,0,1,2,9,5
7.85,26,1,0,1,3,5,8,18
7.855,6,7,4,1,2,2,1,1
7.86,20,1,4,4,2,2,2,3
7.865,15,4,2,2,1,0,2,6
7.87,16,14,5,3,1,2,3,7
7.875,3,7,4,3,2,3,9,10
7.88,11,3,11,2,1,2,3,1
7.885,16,16,5,4,1,1,6,4
7.89,15,13,1,0,3,2,9,5
7.895,16,5,8,3,3,5,0,5
7.9,15,26,14,3,0,2,3,3
7.905,1,31,4,3,3,1,2,1
7.91,5,69,0,3,2,1,6,10
7.915,7,18,6,0,2,4,5,3
7.92,2,13,1,7,0,1,8,51
7.925,9,20,18,1,1,0,1,13
7.93,1,11,28,18,2,1,3,6
7.935,18,8,3,28,4,1,5,8
7.94,23,5,3,1,1,1,5,6
7.945,4,23,10,2,0,2,6,4
7.95,1,7,1,1,0,0,2,2
7.955,8,6,10,7,1,4,7,0
7.96,11,3,4,5,0,2,10,2
7.965,7,10,3,6,0,1,3,4
7.97,28,29,5,14,3,2,1,6
7.975,1,25,4,14,2,2,22,31
7.98,3,3,2,6,2,3,7,35
7.985,34,3,3,1,2,7,16,10
7.99,13,4,6,6,1,2,16,7
7.995,6,33,20,5,2,0,1,2
8,7,9,8,6,1,4,12,26
8.005,8,19,1,3,6,6,2,1
8.01,22,2,15,16,2,3,7,14
8.015,31,13,2,1,1,1,0,10
8.02,10,30,5,2,2,1,2,14
8.025,7,2,5,6,1,1,3,2
8.03,0,23,15,2,0,2,2,4
8.035,0,20,8,3,2,4,5,8
8.04,11,26,8,3,0,1,3,4
8.045,10,2,5,1,3,2,6,2
8.05,12,2,2,10,3,3,0,0
8.055,7,9,7,3,1,0,10,3
8.06,0,15,3,3,2,2,1,3
8.065,5,4,6,3,1,2,1,4
8.07,0,7,1,7,0,0,1,8
8.075,8,9,6,6,0,2,3,10
8.08,15,27,11,3,2,3,1,6
8.085,39,15,7,6,4,4,8,6
8.09,5,13,8,5,2,4,4,8
8.095,2,21,5,3,0,1,2,4
8.1,11,4,7,5,4,2,3,7
8.105,7,1,8,0,1,2,3,8
8.11,6,5,2,1,0,2,1,4
8.115,6,1,4,1,3,1,7,3
8.12,16,4,7,4,2,1,4,12
8.125,6,41,17,3,2,3,7,5
8.13,12,44,2,6,5,2,1,7
8.135,5,34,4,0,1,2,2,19
8.14,12,13,4,2,3,2,5,9
8.145,9,14,6,2,0,0,2,7
8.15,19,6,1,1,1,3,1,1
8.155,8,20,5,2,4,5,2,3
8.16,8,19,5,2,1,1,2,2
8.165,23,5,9,4,3,3,2,3
8.17,1,3,3,3,2,1,1,6
8.175,13,22,7,3,1,3,8,4
8.18,18,7,1,2,0,2,1,4
8.185,25,13,9,4,3,2,2,2
8.19,8,22,3,2,1,0,2,0
8.195,5,4,3,2,2,1,1,3
8.2,2,9,2,3,0,2,3,8
8.205,18,10,8,0,2,4,3,3
8.21,2,6,2,1,0,2,1,4
8.215,7,1,2,3,1,3,1,2
8.22,10,12,16,5,3,5,3,8
8.225,5,12,1,1,1,3,5,6
8.23,3,5,1,2,4,3,9,13
8.235,10,9,8,1,0,1,3,10
8.24,10,16,3,2,1,1,0,2
8.245,6,29,5,1,4,4,5,6
8.25,27,46,6,2,1,3,4,9
8.255,29,16,4,3,3,4,0,2
8.26,26,15,8,2,3,2,2,10
8.265,21,7,10,4,3,2,2,3
8.27,1,8,11,1,1,1,1,3
8.275,11,5,5,1,0,2,1,2
8.28,1,15,1,1,0,0,3,0
8.285,8,1,5,1,0,0,0,4
8.29,15,3,3,2,2,3,3,2
8.295,2,2,3,1,0,3,3,3
8.3,12,5,7,0,1,1,1,5
8.305,4,14,1,1,1,1,0,1
8.31,6,15,6,3,2,1,4,1
8.315,10,6,3,0,1,2,0,1
8.32,3,8,1,0,2,0,0,10
8.325,5,4,0,4,2,3,1,0
8.33,0,4,4,3,1,0,0,0
8.335,1,4,4,0,0,1,2,0
8.34,7,2,2,1,1,3,1,1
8.345,4,1,1,2,2,3,3,2
8.35,6,8,2,0,2,3,1,2
8.355,7,1,0,0,1,2,3,1
8.36,1,11,10,2,1,0,0,2
8.365,11,7,7,3,2,0,0,2
8.37,24,5,6,5,1,2,1,6
8.375,8,11,1,0,0,1,2,2
8.38,8,10,1,8,5,4,4,2
8.385,6,4,2,1,0,1,0,1
8.39,0,7,21,10,4,1,2,5
8.395,6,5,5,7,6,2,3,3
8.4,9,3,5,1,0,1,1,8
8.405,0,2,2,3,2,1,2,1
8.41,14,2,0,4,2,1,3,13
8.415,7,14,9,3,2,1,1,1
8.42,11,2,1,2,1,2,1,7
8.425,0,7,1,3,1,2,1,1
8.43,15,3,3,0,0,1,2,2
8.435,16,6,7,1,1,0,2,7
8.44,10,7,8,5,3,2,1,13
8.445,9,6,11,10,6,9,8,6
8.45,16,2,2,3,3,2,1,7
8.455,14,1,1,0,2,0,1,19
8.46,11,8,2,3,2,6,9,16
8.465,17,22,4,2,4,6,7,8
8.47,3,14,14,4,1,2,7,9
8.475,5,13,13,6,1,0,2,5
8.48,1,14,6,3,1,0,2,11
8.485,6,1,7,1,1,4,5,9
8.49,9,11,8,10,6,6,6,7
8.495,10,0,2,1,1,1,0,1
8.5,10,10,4,1,2,4,4,9
8.505,11,9,7,2,2,2,1,6
8.51,20,7,5,4,4,2,2,9
8.515,21,70,10,3,0,3,4,8
8.52,6,9,3,1,0,1,0,1
8.525,5,23,4,3,0,2,1,4
8.53,5,31,7,5,1,1,5,4
8.535,11,29,11,17,8,7,5,1
8.54,14,14,4,2,2,1,2,5
8.545,2,12,3,0,0,1,2,4
8.55,2,24,14,4,0,0,0,4
8.555,8,6,16,5,1,4,3,8
8.56,5,9,0,2,0,3,2,4
8.565,0,5,3,1,1,1,1,2
8.57,9,8,9,2,2,2,1,1
8.575,15,8,4,3,2,2,4,5
8.58,9,17,0,3,1,2,1,8
8.585,7,9,7,3,2,0,2,1
8.59,12,5,1,2,2,1,1,2
8.595,6,1,4,1,1,2,2,4
8.6,31,7,3,2,2,3,2,1
8.605,15,4,1,0,2,2,2,3
8.61,5,10,0,1,2,4,3,1
8.615,29,11,2,0,2,2,1,3
8.62,28,12,3,2,3,3,4,0
8.625,2,15,0,3,0,0,1,2
8.63,9,0,2,2,2,2,0,3
8.635,11,3,1,1,0,4,2,2
8.64,23,3,14,4,2,0,0,0
8.645,36,41,1,1,0,1,1,0
8.65,13,11,13,2,1,1,4,4
8.655,7,12,5,4,1,0,0,4
8.66,28,15,6,2,1,0,2,4
8.665,20,9,8,4,1,2,2,1
8.67,5,4,4,1,1,2,0,2
8.675,21,24,9,4,2,0,2,5
8.68,10,3,1,2,0,2,2,3
8.685,15,18,1,2,1,0,0,2
8.69,11,8,1,5,0,1,1,1
8.695,5,2,8,0,1,3,3,3
8.7,9,7,0,0,0,1,0,1
8.705,9,12,1,3,3,4,3,2
8.71,1,1,18,6,5,2,2,1
8.715,23,6,2,1,0,2,4,5
8.72,7,7,8,1,1,2,1,0
8.725,1,3,8,0,0,3,0,1
8.73,8,3,6,0,3,3,3,2
8.735,11,2,4,0,3,3,3,4
8.74,13,12,1,3,2,3,1,0
8.745,16,12,2,0,0,1,2,6
8.75,5,17,6,2,2,2,2,0
8.755,12,4,0,1,1,0,0,1
8.76,13,3,4,2,1,1,0,1
8.765,23,5,5,1,2,2,3,1
8.77,11,2,6,2,0,2,2,1
8.775,9,0,3,0,1,3,0,3
8.78,6,11,4,0,1,1,1,1
8.785,10,3,5,4,1,0,1,3
8.79,10,2,1,0,1,1,1,1
8.795,7,2,2,1,1,1,2,6
8.8,1,6,1,1,1,2,0,0
8.805,9,7,3,3,0,3,1,2
8.81,18,2,3,2,0,0,0,1
8.815,9,8,4,4,1,2,3,1
8.82,3,2,3,3,2,1,1,2
8.825,2,3,7,15,5,2,1,1
8.83,2,5,3,1,1,1,1,3
8.835,3,1,3,1,2,1,1,3
8.84,9,1,1,1,2,1,4,2
8.845,5,2,3,1,1,2,0,1
8.85,11,6,3,1,2,0,1,2
8.855,10,5,1,1,1,2,1,2
8.86,33,11,9,3,2,2,2,4
8.865,27,3,0,6,2,0,1,1
8.87,56,0,0,15,3,1,2,3
8.875,17,4,1,2,1,1,1,3
8.88,6,16,4,1,1,1,1,7
8.885,2,2,3,4,2,1,1,6
8.89,5,11,2,1,0,1,1,2
8.895,9,2,5,3,3,1,0,1
8.9,9,1,2,5,2,1,1,0
8.905,3,3,3,4,1,3,2,0
8.91,2,3,0,7,0,0,1,0
8.915,10,0,1,2,1,0,1,2
8.92,1,1,1,2,2,0,1,3
8.925,4,3,1,1,1,0,0,2
8.93,7,5,3,3,0,2,3,3
8.935,16,8,5,2,1,3,3,3
8.94,13,7,4,3,2,3,3,2
8.945,1,3,3,4,3,0,4,1
8.95,8,5,5,0,1,1,2,3
8.955,5,0,0,1,2,2,0,0
8.96,4,2,1,5,2,1,0,3
8.965,5,5,3,9,4,0,1,3
8.97,17,11,8,10,5,3,4,1
8.975,1,6,4,4,1,0,1,0
8.98,2,5,1,2,5,0,0,1
8.985,1,2,1,12,5,2,1,0
8.99,6,1,3,3,1,1,0,1
8.995,13,2,5,1,2,2,0,0
9,5,2,2,1,2,2,2,0
9.005,17,1,1,1,4,1,2,1
9.01,16,1,1,2,0,0,2,2
9.015,1,0,1,2,4,3,1,1
9.02,1,0,4,2,1,0,0,1
9.025,6,7,3,0,1,1,0,1
9.03,9,2,0,3,1,1,0,3
9.035,5,6,4,3,0,2,2,1
9.04,21,9,6,4,1,0,0,1
9.045,23,8,2,0,2,2,1,4
9.05,3,6,2,1,0,1,0,1
9.055,4,0,1,1,1,3,2,4
9.06,2,2,1,0,1,1,0,3
9.065,6,3,2,5,0,0,3,1
9.07,14,6,2,5,3,1,1,1
9.075,4,3,3,5,1,1,1,1
9.08,6,7,2,1,2,2,3,0
9.085,11,6,4,3,0,3,1,2
9.09,2,10,7,1,4,0,2,3
9.095,12,2,2,10,3,0,2,0
9.1,6,3,0,3,2,3,1,5
9.105,7,3,1,1,1,0,0,1
9.11,14,6,2,7,1,1,2,1
9.115,15,6,1,1,1,2,0,2
9.12,6,1,2,2,1,1,1,0
9.125,13,6,2,0,4,2,2,0
9.13,1,3,2,1,1,1,0,2
9.135,19,7,4,7,3,1,1,3
9.14,2,3,1,13,4,3,1,0
9.145,1,2,1,4,4,2,1,0
9.15,11,1,2,1,2,2,1,1
9.155,11,5,2,4,0,1,1,1
9.16,4,0,1,3,0,0,1,4
9.165,1,7,5,4,1,1,1,1
9.17,5,6,1,2,3,2,4,1
9.175,7,1,2,2,2,1,1,2
9.18,4,3,1,0,0,0,1,2
9.185,10,2,1,0,1,0,2,2
9.19,33,5,1,1,1,1,1,0
9.195,1,3,1,1,2,1,3,0
9.2,8,2,3,3,0,1,1,1
9.205,2,1,0,2,1,1,0,1
9.21,2,8,2,3,3,1,0,0
9.215,5,2,1,2,1,1,0,1
9.22,4,0,0,2,0,1,0,1
9.225,6,3,3,3,2,0,1,3
9.23,9,4,1,9,3,2,1,0
9.235,13,5,6,3,1,2,1,1
9.24,0,5,5,1,1,1,0,2
9.245,17,3,0,4,2,1,1,1
9.25,25,3,5,1,1,0,1,2
9.255,19,0,1,4,1,2,3,2
9.26,19,2,3,0,0,1,2,1
9.265,14,2,0,0,1,3,0,0
9.27,5,0,2,1,1,1,1,5
9.275,0,2,3,1,1,0,0,1
9.28,6,0,2,1,2,2,1,0
9.285,8,0,1,6,0,2,3,3
9.29,7,5,2,0,0,2,1,0
9.295,15,0,2,1,2,0,0,1
9.3,5,8,4,0,4,2,2,1
9.305,23,3,0,1,3,0,1,0
9.31,6,2,3,2,2,3,2,1
9.315,9,4,1,2,3,2,1,2
9.32,8,0,2,1,0,0,0,1
9.325,1,0,6,3,4,1,2,1
9.33,21,10,5,0,1,1,3,2
9.335,10,1,1,2,1,0,2,2
9.34,11,0,1,2,0,1,0,2
9.345,1,3,1,0,1,0,0,1
9.35,18,1,3,2,1,0,1,1
9.355,4,4,1,0,2,1,0,1
9.36,27,8,1,3,1,2,1,6
9.365,1,2,1,3,2,2,0,1
9.37,4,2,1,14,1,1,0,1
9.375,8,0,2,3,1,2,2,1
9.38,8,0,3,4,3,1,1,0
9.385,7,8,2,2,3,1,2,4
9.39,4,2,0,2,0,0,1,1
9.395,2,3,0,1,1,2,0,0
9.4,8,3,1,4,1,0,1,0
9.405,2,1,1,1,3,1,2,2
9.41,32,11,3,2,2,1,1,4
9.415,4,1,1,0,0,1,0,0
9.42,2,4,4,2,0,0,0,2
9.425,5,2,1,5,2,0,0,1
9.43,9,3,3,3,0,0,2,1
9.435,4,5,3,3,1,0,0,0
9.44,8,2,1,17,6,4,3,0
9.445,1,7,3,1,1,1,1,3
9.45,1,1,3,0,3,1,1,1
9.455,14,1,1,1,1,1,0,2
9.46,10,5,5,1,2,2,1,1
9.465,4,1,0,2,0,1,0,1
9.47,8,3,8,1,0,0,1,1
9.475,0,2,2,3,3,2,1,2
9.48,11,3,4,1,1,1,0,1
9.485,6,3,2,3,0,0,0,2
9.49,8,2,1,0,2,1,1,2
9.495,6,1,2,0,0,2,1,0
9.5,0,0,0,2,2,1,1,1
9.505,5,1,4,0,1,1,2,1
9.51,11,3,4,6,2,2,3,2
9.515,12,1,0,3,2,2,1,2
9.52,3,7,1,4,1,3,1,2
9.525,3,3,2,13,4,2,1,0
9.53,16,4,3,2,0,1,1,1
9.535,32,5,1,4,5,1,3,3
9.54,4,2,4,1,2,0,0,1
9.545,10,0,1,3,2,2,1,1
9.55,11,5,0,1,1,0,1,1
9.555,6,3,0,2,1,0,3,2
9.56,10,5,3,0,0,1,1,1
9.565,3,4,1,0,0,1,1,2
9.57,3,1,4,4,3,1,1,2
9.575,12,1,1,2,1,1,2,1
9.58,9,3,1,0,2,0,1,0
9.585,19,1,1,1,2,1,2,0
9.59,5,4,2,3,1,1,0,0
9.595,3,2,0,2,2,1,1,1
9.6,9,5,2,15,4,2,0,0
9.605,12,2,0,3,1,1,1,1
9.61,30,1,4,3,3,2,2,1
9.615,23,4,2,1,0,2,2,3
9.62,2,1,1,1,1,1,2,1
9.625,1,1,1,2,0,0,1,1
9.63,3,5,2,1,1,1,1,1
9.635,15,3,4,4,0,1,1,2
9.64,10,0,1,2,1,0,1,1
9.645,0,8,1,1,2,3,1,2
9.65,2,0,0,3,2,0,2,3
9.655,3,1,1,1,3,0,0,2
9.66,15,1,1,2,1,1,2,2
9.665,2,4,2,1,1,1,1,2
9.67,9,7,0,1,1,2,2,1
9.675,11,3,1,1,0,2,1,1
9.68,12,1,1,0,3,1,1,1
9.685,0,1,4,2,1,1,1,1
9.69,2,2,5,1,1,2,2,1
9.695,16,0,2,0,1,0,0,1
9.7,4,2,3,2,1,1,1,3
9.705,1,4,5,2,1,1,0,2
9.71,11,2,2,4,1,0,2,1
9.715,11,1,0,3,3,0,0,1
9.72,3,5,2,1,1,0,0,1
9.725,12,3,4,0,1,3,1,2
9.73,6,4,0,3,0,2,0,2
9.735,4,6,4,2,3,2,2,1
9.74,18,1,2,1,0,1,3,2
9.745,1,8,1,1,0,1,1,1
9.75,7,0,2,2,3,1,1,0
9.755,11,5,0,3,2,0,0,2
9.76,21,1,1,9,5,2,1,1
9.765,4,6,3,5,2,2,1,1
9.77,16,2,0,3,1,1,1,1
9.775,12,1,0,2,0,0,1,2
9.78,5,5,1,3,1,0,2,2
9.785,3,5,0,2,2,2,3,2
9.79,7,0,0,1,0,0,1,1
9.795,18,2,2,3,1,3,1,0
9.8,3,2,2,1,1,1,0,1
9.805,11,3,3,2,1,0,1,0
9.81,6,2,4,1,1,0,0,2
9.815,4,0,2,3,1,0,1,2
9.82,17,7,1,3,3,1,0,3
9.825,8,2,1,8,0,0,1,0
9.83,6,3,4,2,3,1,0,0
9.835,6,0,2,2,2,3,0,0
9.84,1,1,2,3,2,2,1,1
9.845,9,3,0,0,1,2,2,0
9.85,1,2,1,0,0,1,1,0
9.855,29,3,1,2,1,4,2,4
9.86,30,3,0,2,2,3,1,1
9.865,18,3,1,3,1,2,1,2
9.87,3,14,5,4,3,2,4,2
9.875,12,0,1,3,1,1,1,1
9.88,7,2,1,1,1,0,0,1
9.885,2,1,1,5,1,0,3,2
9.89,6,9,6,16,6,2,2,3
9.895,3,3,1,0,0,1,1,0
9.9,9,1,0,2,1,0,0,0
9.905,12,1,0,1,2,1,1,3
9.91,8,3,1,3,1,0,1,0
9.915,19,2,6,7,4,2,0,1
9.92,8,9,1,2,1,1,1,2
9.925,11,0,2,1,2,1,0,0
9.93,19,1,0,1,0,2,0,2
9.935,2,9,1,3,1,0,2,4
9.94,3,2,0,4,1,0,2,3
9.945,14,0,4,11,6,1,1,1
9.95,18,3,0,4,0,1,1,0
9.955,1,1,1,3,0,1,1,0
9.96,21,2,1,2,2,2,3,1
9.965,10,8,0,2,0,1,1,2
9.97,12,3,0,5,2,3,1,4
9.975,27,3,5,2,1,0,1,2
9.98,47,5,2,0,1,1,1,3
9.985,19,4,2,14,5,3,1,1
9.99,8,7,0,3,1,0,1,1
9.995,4,6,2,3,1,2,2,3
10,25,3,7,4,1,2,1,1
10.005,8,3,0,2,2,1,1,2
10.01,11,3,1,1,0,2,3,1
10.015,14,9,0,4,2,2,1,2
10.02,22,2,1,3,1,2,0,1
10.025,25,5,5,5,1,3,2,2
10.03,10,4,1,4,2,1,2,2
10.035,28,0,0,1,0,2,1,4
10.04,10,5,1,4,6,2,1,1
10.045,7,2,3,1,1,0,0,1
10.05,5,1,0,2,1,2,1,2
10.055,8,1,1,13,1,0,0,1
10.06,25,4,7,5,3,1,2,4
10.065,9,2,4,2,0,2,1,1
10.07,2,3,1,4,3,2,2,3
10.075,7,8,3,1,3,0,1,2
10.08,7,1,2,5,2,1,4,0
10.085,6,2,0,1,1,0,1,2
10.09,5,11,5,2,3,3,2,2
10.095,4,4,3,1,3,2,1,1
10.1,9,5,3,3,4,0,0,2
10.105,6,2,0,1,0,2,1,1
10.11,2,1,1,2,2,2,3,1
10.115,10,1,2,14,3,2,0,3
10.12,13,2,2,1,0,1,0,3
10.125,6,0,0,1,1,2,2,2
10.13,23,1,5,2,0,1,1,0
10.135,21,2,2,3,2,1,2,1
10.14,12,4,1,3,2,0,1,0
10.145,5,13,4,4,2,1,2,1
10.15,10,7,1,2,2,1,2,2
10.155,6,6,1,6,0,1,2,0
10.16,24,6,1,4,2,0,1,1
10.165,2,0,4,2,2,1,3,1
10.17,14,5,1,3,3,2,2,3
10.175,9,2,5,0,0,1,1,1
10.18,10,2,4,1,1,3,3,7
10.185,14,6,2,2,2,1,1,0
10.19,17,3,1,11,5,0,0,1
10.195,11,6,1,4,0,2,3,3
10.2,3,2,2,0,0,0,1,1
10.205,22,2,1,0,2,3,2,3
10.21,7,4,5,2,1,2,2,3
10.215,6,3,5,0,1,1,0,1
10.22,12,3,3,0,2,1,2,3
10.225,12,2,5,4,1,2,2,1
10.23,14,2,3,2,2,1,0,1
10.235,26,1,0,3,1,2,1,2
10.24,8,5,2,1,2,2,1,2
10.245,6,0,1,3,3,1,2,0
10.25,10,7,1,3,2,3,2,7
10.255,6,3,3,2,5,2,1,0
10.26,14,4,2,1,2,1,1,0
10.265,20,3,1,2,1,1,0,3
10.27,24,5,2,4,2,1,0,1
10.275,13,1,3,4,0,1,0,1
10.28,16,1,4,3,1,2,0,1
10.285,13,6,3,5,1,1,1,1
10.29,7,2,1,3,4,1,1,2
10.295,2,1,2,1,1,1,0,1
10.3,13,5,1,1,2,1,3,3
10.305,6,2,2,3,0,1,2,0
10.31,1,1,3,8,2,2,1,1
10.315,10,5,1,4,0,1,2,2
10.32,8,2,0,0,2,1,0,0
10.325,3,1,3,4,0,2,0,1
10.33,28,3,1,2,1,0,0,2
10.335,4,15,0,10,3,2,2,1
10.34,7,6,0,1,1,2,1,3
10.345,9,6,1,0,0,0,1,0
10.35,28,6,4,0,2,1,0,1
10.355,1,2,0,1,0,1,1,2
10.36,25,18,5,3,2,2,2,4
10.365,12,2,1,3,1,0,1,1
10.37,8,5,1,2,1,0,0,0
10.375,11,4,0,1,2,0,2,0
10.38,21,3,1,4,2,2,2,0
10.385,5,5,4,1,0,2,1,5
10.39,34,13,3,4,1,2,3,1
10.395,2,2,1,8,0,0,0,0
10.4,1,4,2,1,3,0,1,1
10.405,4,0,2,2,1,1,0,3
10.41,25,8,3,2,1,1,0,1
10.415,14,2,2,3,1,1,3,0
10.42,15,0,0,0,1,2,1,3
10.425,4,7,5,6,2,1,0,7
10.43,5,7,3,2,3,3,5,7
10.435,15,2,1,1,0,1,1,4
10.44,26,5,4,1,1,1,0,1
10.445,26,3,1,5,0,2,2,4
10.45,14,0,1,1,2,1,1,2
10.455,22,2,3,5,1,1,1,0
10.46,0,1,2,1,2,1,1,0
10.465,23,4,1,0,4,4,2,4
10.47,47,0,0,2,2,1,0,2
10.475,2,16,2,1,3,1,0,1
10.48,5,2,6,4,3,0,1,1
10.485,3,4,0,2,1,3,0,2
10.49,17,2,2,6,1,2,2,5
10.495,3,1,0,4,0,1,1,3
10.5,14,5,2,3,1,1,1,1
10.505,8,2,2,1,2,2,2,3
10.51,11,1,5,5,4,1,0,2
10.515,9,11,4,4,1,2,1,1
10.52,4,12,4,1,0,1,1,3
10.525,5,5,2,1,1,1,1,0
10.53,11,0,0,3,1,0,1,4
10.535,19,7,3,1,1,1,0,0
10.54,4,1,0,3,5,3,2,8
10.545,16,0,2,4,1,2,1,2
10.55,3,6,3,2,1,1,2,1
10.555,23,5,4,0,3,1,0,1
10.56,11,1,1,2,1,0,0,2
10.565,7,4,3,4,2,2,1,3
10.57,5,4,2,5,1,0,1,1
10.575,0,10,4,12,5,2,2,2
10.58,27,3,3,3,0,2,2,0
10.585,18,6,4,3,4,1,2,1
10.59,2,1,1,2,2,1,1,1
10.595,5,4,2,3,0,0,0,3
10.6,15,3,1,2,2,1,2,5
10.605,19,4,1,2,1,0,3,3
10.61,8,7,4,5,1,0,2,1
10.615,12,0,2,3,0,1,1,1
10.62,38,6,2,1,1,1,1,1
10.625,26,9,6,0,2,1,3,3
10.63,2,6,1,1,2,0,1,1
10.635,1,5,1,2,0,1,0,1
10.64,11,2,3,2,2,1,0,1
10.645,4,2,2,2,3,1,1,2
10.65,22,3,1,2,1,0,0,3
10.655,5,6,9,1,2,3,0,2
10.66,10,0,2,14,2,2,2,3
10.665,13,2,0,0,1,0,1,1
10.67,8,2,2,2,4,1,0,0
10.675,1,1,3,5,1,1,3,2
10.68,2,8,1,3,0,2,2,2
10.685,2,3,2,3,1,4,2,1
10.69,11,0,3,5,1,3,1,1
10.695,9,0,1,1,2,1,1,1
10.7,10,1,1,0,0,0,0,2
10.705,21,5,0,1,0,0,2,2
10.71,21,0,2,2,0,2,1,2
10.715,14,1,1,0,2,3,4,5
10.72,4,3,2,1,2,1,0,1
10.725,10,1,0,2,0,2,2,3
10.73,13,2,5,2,2,0,0,2
10.735,6,2,2,1,1,1,1,0
10.74,12,1,2,2,1,0,2,3
10.745,8,4,2,1,0,1,0,2
10.75,10,2,2,2,3,1,2,1
10.755,7,0,3,4,2,2,3,1
10.76,19,3,0,3,1,1,1,1
10.765,11,7,1,1,3,0,1,1
10.77,1,0,1,3,1,3,2,3
10.775,14,3,0,1,2,0,1,1
10.78,34,2,0,2,2,3,2,1
10.785,4,7,3,1,2,3,1,2
10.79,15,5,1,3,0,0,2,2
10.795,7,2,1,2,1,2,0,1
10.8,22,4,6,1,0,1,1,3
10.805,11,2,1,0,1,2,2,1
10.81,1,5,2,6,3,0,1,2
10.815,1,6,1,2,3,0,0,1
10.82,13,5,1,3,1,1,1,0
10.825,5,4,2,0,1,1,2,1
10.83,20,4,1,0,1,0,2,1
10.835,5,7,1,3,1,1,2,5
10.84,8,1,1,5,2,1,1,2
10.845,13,2,1,11,6,1,1,1
10.85,1,10,3,1,1,1,1,3
10.855,14,0,2,3,3,2,1,2
10.86,4,3,1,0,2,3,1,1
10.865,7,2,5,1,1,0,0,2
10.87,9,4,1,1,2,0,0,0
10.875,5,4,1,2,1,1,2,3
10.88,5,4,0,1,2,2,2,2
10.885,6,5,5,3,0,2,1,0
10.89,16,8,1,2,3,2,2,3
10.895,2,1,1,2,1,2,1,2
10.9,22,3,3,4,2,2,1,1
10.905,1,3,1,1,1,1,2,0
10.91,1,3,2,4,1,2,1,1
10.915,1,0,2,7,3,0,2,2
10.92,8,1,1,8,3,1,0,0
10.925,26,8,3,1,0,2,0,5
10.93,10,4,2,3,2,3,2,1
10.935,0,8,1,4,3,1,1,1
10.94,13,2,2,0,2,1,0,0
10.945,11,4,1,4,1,1,2,0
10.95,8,3,4,1,1,1,1,1
10.955,18,2,1,0,2,2,2,2
10.96,13,5,2,2,0,1,1,7
10.965,4,2,0,3,1,1,1,1
10.97,4,1,1,2,1,1,1,2
10.975,4,2,2,3,1,2,0,4
10.98,3,3,2,1,1,1,1,3
10.985,10,6,5,1,2,0,4,0
10.99,6,11,4,2,2,2,1,4
10.995,5,6,1,3,3,0,1,1
11,15,5,0,3,1,1,0,0
11.005,20,5,1,0,0,1,0,0
11.01,4,6,2,1,1,1,0,3
11.015,1,6,1,2,1,2,4,5
11.02,4,8,3,1,1,1,3,1
11.025,13,9,0,1,1,1,0,1
11.03,26,3,3,1,2,1,1,2
11.035,9,2,0,3,0,1,1,2
11.04,4,0,7,1,1,1,2,0
11.045,14,0,1,0,4,3,2,0
11.05,19,1,1,3,1,1,0,1
11.055,0,1,2,1,3,1,0,2
11.06,10,3,2,12,0,0,0,0
11.065,1,5,0,5,1,0,1,3
11.07,5,6,2,2,4,2,0,0
11.075,3,4,1,6,8,1,0,2
11.08,4,9,6,14,7,2,4,3
11.085,11,2,6,4,2,2,1,1
11.09,4,0,5,6,0,2,4,4
11.095,3,3,3,8,4,2,1,3
11.1,10,1,1,4,4,3,2,0
11.105,23,7,11,9,2,1,3,3
11.11,16,9,6,9,8,1,2,1
11.115,1,5,7,4,4,1,0,1
11.12,7,3,6,1,2,0,2,3
11.125,5,3,11,10,7,5,3,1
11.13,7,8,3,7,6,1,0,2
11.135,7,1,14,31,19,1,1,1
11.14,11,7,12,1,2,3,1,0
11.145,14,3,10,13,6,1,0,0
11.15,7,2,6,6,1,3,3,3
11.155,1,0,5,0,4,0,1,3
11.16,2,0,7,10,7,3,2,2
11.165,1,4,1,5,0,1,1,0
11.17,10,10,2,1,3,3,3,3
11.175,7,6,5,3,8,7,3,2
11.18,1,6,8,18,9,7,3,1
11.185,2,1,1,22,3,3,2,3
11.19,7,5,2,0,16,9,4,9
11.195,0,12,3,1,8,4,4,6
11.2,2,8,1,30,21,6,2,3
11.205,6,2,11,62,22,8,4,2
11.21,5,1,4,40,26,10,3,4
11.215,2,9,1,16,1,4,0,0
11.22,8,12,2,20,39,22,11,5
11.225,10,14,4,40,7,1,2,2
11.23,11,10,6,8,64,23,15,7
11.235,2,6,1,15,2,3,3,1
11.24,2,10,2,7,7,8,7,1
11.245,3,5,4,11,36,5,44,5
11.25,0,9,5,14,40,39,74,8
11.255,2,6,5,13,19,4,14,11
11.26,1,2,4,15,6,16,26,8
11.265,8,4,4,6,1,21,19,14
11.27,7,3,4,3,7,33,58,12
11.275,1,5,2,2,5,11,9,5
11.28,13,0,3,2,6,25,60,11
11.285,10,2,6,13,18,13,4,4
11.29,3,2,3,9,5,1,4,0
11.295,4,6,4,3,11,2,5,5
11.3,6,7,5,1,1,1,17,2
11.305,7,9,8,15,16,4,7,1
11.31,2,7,14,10,11,7,6,5
11.315,8,6,7,30,13,4,6,3
11.32,3,1,0,6,0,0,1,2
11.325,8,1,4,8,8,3,14,2
11.33,0,2,10,1,5,3,1,5
11.335,2,0,18,9,6,6,5,3
11.34,13,5,0,15,2,2,4,5
11.345,8,2,20,25,3,3,4,4
11.35,6,10,10,40,8,8,2,4
11.355,14,2,13,23,5,1,5,2
11.36,4,10,69,10,12,5,1,2
11.365,2,0,13,19,3,1,1,5
11.37,11,7,14,11,5,7,5,20
11.375,9,7,10,8,0,3,2,5
11.38,10,14,53,4,3,4,6,4
11.385,6,5,9,35,9,6,6,3
11.39,0,8,46,28,11,5,5,1
11.395,5,2,23,20,2,3,1,0
11.4,0,1,0,2,12,4,4,8
11.405,3,4,9,50,7,5,2,6
11.41,5,6,41,20,2,1,3,5
11.415,12,4,11,30,1,5,13,7
11.42,3,2,9,21,9,0,4,3
11.425,0,4,15,3,16,4,7,1
11.43,9,1,23,3,1,1,2,1
11.435,8,2,11,10,6,2,13,7
11.44,20,8,28,11,5,2,5,4
11.445,11,4,12,10,5,14,26,34
11.45,28,2,42,5,3,2,3,10
11.455,15,7,1,1,5,1,2,7
11.46,5,10,22,1,3,5,7,3
11.465,27,3,11,2,3,1,7,13
11.47,1,1,1,16,0,2,1,8
11.475,10,1,7,4,0,1,3,3
11.48,1,2,10,4,0,3,5,26
11.485,4,2,2,27,4,2,2,8
11.49,12,6,33,82,10,0,9,5
11.495,2,1,8,2,2,2,4,3
11.5,2,18,77,45,16,12,13,1
11.505,4,0,14,14,1,2,4,1
11.51,4,4,9,3,4,0,7,5
11.515,8,2,8,15,3,1,0,4
11.52,7,6,44,35,8,2,2,8
11.525,15,4,6,13,4,4,7,7
11.53,27,1,19,1,3,5,13,12
11.535,67,9,33,42,9,8,34,2
11.54,6,1,48,3,3,7,97,55
11.545,6,5,10,6,6,4,20,3
11.55,6,3,11,16,1,1,5,14
11.555,21,2,12,7,0,1,2,3
11.56,2,2,18,7,5,1,36,17
11.565,7,1,4,4,3,1,13,6
11.57,1,1,16,4,4,4,22,3
11.575,10,5,20,18,4,2,2,1
11.58,8,0,2,31,4,1,13,10
11.585,5,2,2,16,3,1,15,4
11.59,5,2,2,35,2,4,11,8
11.595,6,3,5,16,3,4,7,2
11.6,2,1,13,21,2,3,7,7
11.605,5,8,15,14,9,8,3,4
11.61,1,5,9,2,2,3,2,1
11.615,3,5,15,0,7,0,7,6
11.62,6,10,0,12,6,7,4,2
11.625,7,1,9,12,31,4,9,3
11.63,15,1,12,7,13,10,3,1
11.635,7,1,10,4,11,8,10,1
11.64,8,5,12,17,9,0,16,10
11.645,9,11,23,66,6,5,0,3
11.65,1,7,14,73,23,11,9,2
11.655,7,2,24,15,13,5,8,3
11.66,5,9,17,10,21,5,6,1
11.665,11,1,25,76,87,2,7,4
11.67,13,18,9,33,20,6,5,3
11.675,2,1,22,5,5,3,3,0
11.68,4,0,10,14,12,3,4,3
11.685,1,4,0,5,21,0,5,2
11.69,11,4,5,6,13,3,1,0
11.695,3,12,6,30,8,3,7,4
11.7,6,7,19,14,7,1,4,2
11.705,7,5,12,10,23,7,3,2
11.71,2,2,9,1,4,1,1,1
11.715,0,1,16,15,5,3,4,4
11.72,4,1,11,2,11,2,0,1
11.725,0,2,12,5,14,1,2,2
11.73,6,4,6,18,15,15,8,1
11.735,4,2,11,1,18,9,5,1
11.74,0,3,1,11,32,25,15,4
11.745,4,3,23,18,35,17,10,2
11.75,6,2,0,25,2,0,2,1
11.755,9,3,6,13,11,9,7,2
11.76,21,11,33,34,35,16,7,5
11.765,5,3,13,2,4,4,9,5
11.77,10,3,3,4,46,98,11,6
11.775,4,4,15,10,12,26,7,1
11.78,8,0,9,18,51,33,19,8
11.785,6,3,16,10,29,15,4,1
11.79,7,2,1,17,5,22,1,0
11.795,3,9,17,28,29,23,12,3
11.8,1,2,3,3,32,32,9,4
11.805,0,9,31,28,2,0,6,3
11.81,7,6,15,5,8,12,0,1
11.815,22,5,5,12,8,2,2,1
11.82,11,7,12,21,8,9,4,3
11.825,34,3,10,6,5,17,2,2
11.83,17,7,4,3,9,10,0,1
11.835,2,1,3,3,4,3,2,0
11.84,36,18,2,16,8,6,7,5
11.845,24,0,2,11,4,11,2,3
11.85,1,7,10,1,17,16,4,0
11.855,9,7,9,2,3,4,0,3
11.86,1,5,11,9,19,12,6,2
11.865,8,0,2,7,6,12,3,3
11.87,1,1,3,2,16,22,5,0
11.875,3,1,2,0,3,8,2,3
11.88,2,4,7,4,3,3,1,1
11.885,19,11,2,0,8,10,5,1
11.89,9,2,4,10,6,4,5,2
11.895,8,11,3,7,8,11,8,2
11.9,1,2,3,13,9,10,4,1
11.905,27,10,2,1,13,14,6,3
11.91,58,6,5,13,23,14,2,2
11.915,8,6,6,13,4,1,3,1
11.92,3,0,5,5,0,3,2,2
11.925,16,6,2,2,12,10,0,2
11.93,4,8,9,45,15,9,5,4
11.935,10,6,7,2,3,1,0,1
11.94,4,0,5,3,4,6,3,1
11.945,3,1,11,7,4,2,0,3
11.95,2,2,0,9,9,9,5,3
11.955,2,1,2,12,22,15,9,1
11.96,5,5,12,2,26,7,8,2
11.965,6,1,2,28,26,28,6,1
11.97,0,1,4,2,9,6,3,2
11.975,10,2,1,29,14,10,3,1
11.98,6,6,11,4,15,12,7,1
11.985,6,1,3,10,8,9,5,3
11.99,3,9,3,3,9,1,1,5
11.995,8,0,7,20,19,3,2,5
12,41,0,3,13,14,2,1,9
12.005,2,4,0,3,7,12,6,1
12.01,7,2,5,12,7,10,10,1
12.015,12,5,1,4,23,5,2,0
12.02,2,5,8,5,7,1,4,0
12.025,20,7,1,20,17,13,8,6
12.03,4,0,5,1,8,2,4,4
12.035,1,2,2,11,3,5,4,1
12.04,10,1,7,1,5,2,3,3
12.045,3,1,8,3,0,1,1,1
12.05,11,0,7,9,16,11,8,0
12.055,4,7,4,20,21,8,5,6
12.06,3,2,4,27,26,20,10,10
12.065,5,18,1,15,13,3,3,5
12.07,18,0,4,12,24,14,6,1
12.075,1,1,4,3,5,5,4,4
12.08,25,10,5,32,33,18,8,4
12.085,25,0,1,30,8,3,1,1
12.09,7,3,5,9,9,3,2,7
12.095,26,12,8,27,7,2,0,7
12.1,0,5,11,1,0,0,3,17
12.105,5,7,16,3,7,1,0,2
12.11,3,2,3,5,6,5,7,4
12.115,2,9,8,3,8,7,1,3
12.12,26,3,1,26,13,7,5,11
12.125,6,9,5,8,10,8,1,5
12.13,3,1,2,3,0,3,3,1
12.135,14,0,7,5,0,4,2,4
12.14,8,4,1,12,14,12,7,2
12.145,14,1,2,19,10,6,1,2
12.15,5,4,14,8,5,3,1,0
12.155,23,33,20,28,10,3,2,7
12.16,11,9,12,24,4,0,3,1
12.165,1,6,18,2,6,0,6,14
12.17,13,2,1,16,10,8,4,3
12.175,14,10,9,15,5,2,1,2
12.18,16,9,2,15,11,9,5,0
12.185,21,6,9,7,6,3,1,7
12.19,7,1,3,2,4,4,3,8
12.195,8,1,16,21,21,6,1,1
12.2,18,24,22,34,19,5,4,2
12.205,18,15,30,10,9,1,2,5
12.21,31,5,7,8,4,1,1,8
12.215,3,2,2,17,10,12,9,9
12.22,21,4,4,7,9,3,2,1
12.225,18,14,19,19,8,2,1,1
12.23,10,10,2,6,0,2,2,1
12.235,27,8,4,14,25,9,2,1
12.24,8,10,4,2,18,6,3,1
12.245,11,3,13,11,7,1,1,2
12.25,8,5,5,4,2,4,2,1
12.255,22,11,3,17,7,1,1,1
12.26,7,9,6,3,5,7,7,2
12.265,60,17,14,3,19,13,5,6
12.27,20,17,12,20,23,8,1,8
12.275,20,3,9,20,0,3,1,1
12.28,18,6,23,14,7,0,2,0
12.285,24,23,14,23,26,2,1,3
12.29,3,16,0,4,2,4,5,5
12.295,16,26,7,28,13,0,1,9
12.3,5,3,23,0,12,7,3,4
12.305,8,27,45,3,6,8,5,4
12.31,11,2,15,13,9,1,1,1
12.315,38,24,2,3,1,1,2,9
12.32,4,5,6,8,1,3,2,0
12.325,42,1,12,17,10,2,3,6
12.33,20,9,12,44,17,4,3,2
12.335,8,6,9,21,17,6,6,5
12.34,17,7,22,9,15,6,2,6
12.345,7,2,2,2,7,6,3,0
12.35,0,1,15,9,0,3,5,0
12.355,5,12,3,28,14,4,4,1
12.36,9,4,1,14,4,2,1,1
12.365,3,3,11,1,5,5,4,0
12.37,9,5,8,7,1,2,2,5
12.375,12,2,18,3,11,3,1,3
12.38,8,4,18,17,11,3,2,0
12.385,5,3,3,1,5,6,4,0
12.39,20,6,13,7,6,3,3,2
12.395,24,4,2,3,19,9,6,3
12.4,9,12,0,16,4,4,3,1
12.405,3,5,18,19,14,1,1,1
12.41,9,4,4,23,4,6,3,0
12.415,38,1,2,4,4,3,2,2
12.42,2,8,4,20,1,4,0,2
12.425,10,3,3,2,18,1,1,9
12.43,17,13,9,47,22,4,3,3
12.435,1,7,4,18,16,2,1,1
12.44,4,22,25,42,24,4,4,5
12.445,1,0,20,18,3,1,0,2
12.45,5,4,10,9,1,1,3,1
12.455,14,0,3,14,3,1,1,0
12.46,22,2,0,3,1,6,4,1
12.465,18,6,10,15,8,0,1,1
12.47,4,11,12,4,6,3,1,4
12.475,1,3,14,3,7,8,4,2
12.48,13,6,6,1,4,0,0,2
12.485,27,6,5,17,2,1,2,2
12.49,5,2,10,2,4,3,4,1
12.495,113,6,0,4,7,2,4,1
12.5,20,8,2,7,4,2,2,5
12.505,51,2,5,7,2,2,1,2
12.51,62,9,4,6,5,1,1,1
12.515,50,7,1,9,1,2,1,2
12.52,9,14,6,3,7,3,1,2
12.525,13,11,2,33,14,1,0,2
12.53,9,6,9,23,8,2,1,0
12.535,7,10,4,6,20,4,1,1
12.54,2,12,2,2,12,3,3,3
12.545,6,4,2,6,5,1,2,0
12.55,22,5,2,6,8,4,2,2
12.555,64,2,3,14,4,2,1,1
12.56,44,5,1,5,9,9,3,6
12.565,17,12,10,9,0,3,1,3
12.57,5,12,8,6,3,0,1,6
12.575,30,10,1,9,5,1,1,4
12.58,14,1,4,1,3,0,1,0
12.585,16,7,5,4,4,3,1,4
12.59,8,8,2,3,6,3,3,1
12.595,43,7,2,0,0,0,0,2
12.6,59,2,10,3,6,3,2,2
12.605,31,4,9,2,1,3,0,3
12.61,33,5,0,13,11,1,1,1
12.615,11,0,12,16,6,1,2,3
12.62,24,9,6,3,6,1,0,3
12.625,21,6,0,9,8,4,2,1
12.63,23,1,0,30,18,3,1,1
12.635,21,6,1,16,6,2,2,2
12.64,17,3,4,17,11,3,2,4
12.645,1,2,4,4,10,1,2,4
12.65,1,0,5,7,3,1,1,1
12.655,12,7,3,7,0,2,1,2
12.66,2,3,0,4,2,0,3,2
12.665,14,6,6,8,2,4,1,2
12.67,8,4,4,9,7,1,2,4
12.675,13,3,6,7,4,1,2,6
12.68,24,2,6,17,10,0,0,1
12.685,39,6,6,11,0,2,0,3
12.69,46,6,10,1,2,2,2,3
12.695,9,3,17,2,3,1,3,3
12.7,15,4,2,3,4,2,0,2
12.705,11,6,3,22,14,1,2,2
12.71,19,1,9,9,6,1,1,1
12.715,14,8,19,38,18,8,5,4
12.72,8,5,1,16,2,3,4,1
12.725,9,0,1,6,4,1,1,0
12.73,5,4,6,28,12,3,0,2
12.735,13,6,10,16,8,1,1,1
12.74,11,6,6,3,5,2,2,1
12.745,3,3,4,2,15,6,2,0
12.75,11,2,2,4,12,2,1,4
12.755,3,2,0,2,4,2,2,0
12.76,23,3,15,9,7,2,1,6
12.765,33,9,19,8,7,3,3,4
12.77,3,4,6,0,0,3,3,1
12.775,29,5,4,17,0,0,3,4
12.78,10,4,3,20,2,0,1,0
12.785,3,5,11,4,3,0,1,0
12.79,9,6,14,16,6,0,1,1
12.795,2,4,5,14,1,3,1,1
12.8,19,7,5,13,2,2,1,4
12.805,3,0,6,12,2,1,0,0
12.81,2,3,5,3,1,2,3,2
12.815,12,1,6,4,5,4,0,1
12.82,4,5,5,2,12,3,0,1
12.825,4,1,2,12,5,2,0,2
12.83,2,2,2,7,1,2,1,1
12.835,1,0,1,14,1,1,2,2
12.84,7,3,3,13,1,7,2,4
12.845,4,2,14,20,3,6,2,1
12.85,1,2,0,3,5,1,1,1
12.855,19,6,1,7,5,1,1,2
12.86,49,6,1,2,0,2,2,1
12.865,8,1,6,0,0,2,2,6
12.87,1,3,0,12,0,4,2,4
12.875,8,4,1,20,5,1,0,1
12.88,1,2,4,11,0,1,1,2
12.885,4,1,4,24,10,3,0,2
12.89,3,11,11,13,0,3,1,2
12.895,4,2,1,13,12,0,0,1
12.9,7,2,3,2,3,2,3,4
12.905,6,1,3,10,7,2,0,0
12.91,2,7,4,4,2,2,0,2
12.915,7,1,1,1,1,2,0,1
12.92,7,4,6,6,9,1,1,1
12.925,14,4,9,4,1,2,3,2
12.93,2,5,13,7,0,1,2,1
12.935,1,2,6,15,2,1,0,0
12.94,0,5,15,1,2,2,2,0
12.945,7,7,1,4,4,0,2,4
12.95,4,2,3,1,2,2,0,0
12.955,22,11,1,1,0,0,2,4
12.96,8,3,0,3,3,4,2,3
12.965,1,4,2,13,1,0,1,1
12.97,3,5,5,10,4,0,2,0
12.975,11,1,3,12,0,2,2,1
12.98,10,5,0,19,10,2,0,1
12.985,1,4,1,3,3,3,2,3
12.99,6,0,0,5,4,2,0,1
12.995,8,7,4,3,4,1,0,2
13,6,1,3,25,13,2,2,2
13.005,0,5,1,10,15,0,1,2
13.01,7,3,2,7,8,2,2,1
13.015,3,5,3,10,12,0,1,2
13.02,17,6,3,17,3,1,2,2
13.025,0,4,5,5,4,1,0,2
13.03,5,3,6,1,11,0,3,4
13.035,12,0,5,7,3,1,1,1
13.04,6,2,2,1,2,1,2,0
13.045,0,5,1,12,1,3,1,1
13.05,11,3,2,12,4,1,2,3
13.055,7,3,5,2,2,4,3,1
13.06,23,4,6,1,1,2,1,1
13.065,3,6,1,11,9,1,1,3
13.07,9,1,4,7,6,1,1,2
13.075,6,8,4,22,0,1,2,1
13.08,9,6,1,9,8,2,0,2
13.085,13,1,1,12,0,0,1,2
13.09,5,4,1,3,1,2,1,1
13.095,4,3,1,12,5,2,0,3
13.1,10,0,6,12,10,0,0,0
13.105,4,4,3,19,11,2,2,0
13.11,1,2,3,11,0,1,2,2
13.115,7,4,2,8,5,2,2,0
13.12,11,3,3,12,0,2,0,0
13.125,16,12,6,16,6,1,3,2
13.13,9,3,1,9,8,4,4,3
13.135,10,2,4,2,6,2,1,2
13.14,18,0,4,14,1,1,3,3
13.145,2,5,3,3,0,1,0,1
13.15,5,17,1,8,5,2,1,2
13.155,13,3,5,17,4,2,4,1
13.16,2,3,4,21,8,5,1,3
13.165,4,4,9,6,0,1,1,0
13.17,2,1,8,1,3,2,1,2
13.175,5,0,4,2,1,1,1,0
13.18,3,8,7,6,2,0,0,0
13.185,30,7,2,6,1,3,4,1
13.19,4,51,11,18,11,4,2,5
13.195,8,6,1,4,3,1,1,3
13.2,5,16,5,0,1,1,1,0
13.205,10,11,2,10,0,2,1,1
13.21,6,7,11,13,1,3,2,2
13.215,10,5,3,4,8,4,3,4
13.22,2,7,19,7,5,0,1,1
13.225,11,7,6,9,5,3,1,1
13.23,6,13,2,13,3,0,0,0
13.235,6,7,5,7,0,3,1,3
13.24,4,8,5,8,0,1,3,1
13.245,0,2,1,2,6,2,1,0
13.25,4,18,1,1,3,1,1,1
13.255,5,12,10,3,0,1,0,1
13.26,5,9,10,3,1,2,2,1
13.265,16,25,12,15,3,3,2,3
13.27,38,10,1,4,5,0,1,0
13.275,51,4,1,0,4,0,1,0
13.28,52,0,21,10,0,3,1,0
13.285,29,2,29,21,7,4,2,1
13.29,7,10,10,0,0,0,2,0
13.295,17,0,2,1,5,2,1,1
13.3,24,0,13,16,0,2,0,2
13.305,41,6,8,25,2,0,1,3
13.31,27,9,7,12,2,1,1,1
13.315,14,4,13,17,1,1,1,2
13.32,5,2,91,9,2,0,0,1
13.325,4,3,24,15,1,0,0,0
13.33,13,1,3,3,8,4,3,4
13.335,22,3,0,1,0,1,5,0
13.34,30,20,18,2,0,7,10,3
13.345,13,2,3,26,3,2,2,0
13.35,23,22,37,50,17,25,34,9
13.355,7,7,26,59,14,27,33,2
13.36,9,22,74,5,11,20,18,30
13.365,6,7,29,11,7,2,15,4
13.37,5,19,94,71,22,8,15,6
13.375,15,10,60,48,4,16,27,2
13.38,1,6,4,111,14,7,17,21
13.385,13,7,36,81,1,7,12,18
13.39,10,16,16,8,6,4,23,5
13.395,8,2,12,42,4,7,19,21
13.4,23,20,93,89,18,3,3,1
13.405,1,25,23,56,14,11,12,12
13.41,88,39,29,75,33,22,19,17
13.415,41,43,105,127,36,15,13,8
13.42,43,29,28,78,23,8,11,8
13.425,3,75,127,103,46,18,20,13
13.43,9,38,114,39,25,14,17,7
13.435,6,38,9,8,31,15,13,5
13.44,14,33,45,89,16,11,8,5
13.445,9,18,7,12,1,4,1,4
13.45,22,29,62,53,22,2,1,4
13.455,81,1,4,49,11,3,5,3
13.46,66,90,20,67,8,11,11,12
13.465,25,72,75,43,47,24,11,15
13.47,40,20,5,23,11,2,4,3
13.475,1,5,12,15,2,3,2,3
13.48,17,20,15,22,13,4,5,2
13.485,20,7,29,24,13,4,1,14
13.49,3,25,47,37,3,2,8,5
13.495,0,1,2,32,5,3,2,4
13.5,9,39,11,44,5,1,5,1
13.505,16,7,14,33,4,0,2,0
13.51,1,4,5,8,2,1,4,2
13.515,14,3,10,17,8,4,3,2
13.52,10,59,11,2,0,2,7,2
13.525,42,13,30,14,18,8,4,11
13.53,3,4,22,60,10,2,3,4
13.535,23,15,19,59,13,6,7,6
13.54,15,23,16,2,6,3,1,1
13.545,2,45,15,17,2,0,2,6
13.55,4,6,48,60,5,1,2,1
13.555,19,19,66,45,11,5,1,2
13.56,5,2,13,7,12,6,4,1
13.565,1,28,5,10,8,2,0,2
13.57,8,45,0,5,6,1,1,1
13.575,10,10,25,27,2,2,1,1
13.58,6,2,28,18,8,5,2,1
13.585,8,30,8,50,6,4,4,4
13.59,9,93,34,18,10,7,7,3
13.595,1,27,46,10,2,5,3,4
13.6,8,0,13,2,5,0,1,2
13.605,13,15,32,40,2,2,3,3
13.61,10,43,24,11,9,5,1,1
13.615,16,7,28,30,7,2,2,1
13.62,9,19,16,42,17,4,9,21
13.625,18,7,40,17,7,0,4,4
13.63,7,52,42,8,5,3,0,3
13.635,24,49,20,4,5,2,4,2
13.64,4,19,24,67,18,6,2,11
13.645,15,15,66,15,20,4,5,2
13.65,42,65,105,30,44,16,11,14
13.655,23,20,24,36,3,3,3,4
13.66,6,1,12,12,2,1,0,4
13.665,28,73,7,1,3,1,2,2
13.67,31,12,32,52,23,4,1,4
13.675,8,29,46,4,6,3,1,7
13.68,18,15,13,22,8,4,3,4
13.685,8,1,9,12,0,0,0,2
13.69,34,12,15,11,6,2,2,10
13.695,31,38,34,15,1,2,2,11
13.7,58,1,26,7,0,4,11,16
13.705,17,19,4,7,15,6,4,1
13.71,1,47,9,35,2,1,0,1
13.715,11,2,26,4,7,5,5,8
13.72,30,30,10,5,1,1,6,7
13.725,22,26,1,33,9,2,8,9
13.73,24,46,17,7,1,1,1,4
13.735,1,90,26,6,9,3,1,5
13.74,16,9,11,18,11,5,1,0
13.745,1,43,40,4,11,5,3,5
13.75,9,11,26,13,28,3,2,1
13.755,16,42,15,38,12,1,0,4
13.76,3,22,19,31,7,1,1,2
13.765,13,28,46,37,2,1,0,8
13.77,18,60,27,62,5,5,4,7
13.775,9,21,24,28,3,1,5,16
13.78,9,2,20,31,11,2,2,1
13.785,0,10,28,5,3,0,2,4
13.79,11,5,2,29,1,3,1,4
13.795,12,33,39,20,10,2,2,5
13.8,0,37,23,11,1,3,3,1
13.805,16,58,64,26,2,3,3,7
13.81,13,38,1,29,3,11,7,4
13.815,1,10,5,3,9,2,0,2
13.82,21,20,0,5,2,2,1,1
13.825,2,16,18,36,9,2,1,0
13.83,7,7,20,22,10,2,0,2
13.835,3,5,9,75,16,3,5,3
13.84,9,25,41,62,25,2,1,0
13.845,9,8,8,19,21,9,5,2
13.85,2,2,37,35,21,7,2,2
13.855,16,6,27,32,4,1,1,3
13.86,3,3,30,35,1,0,1,3
13.865,3,9,22,3,0,0,3,2
13.87,7,70,23,5,4,2,2,2
13.875,6,7,11,32,21,9,5,6
13.88,12,52,15,72,8,10,9,6
13.885,1,34,8,116,22,2,1,3
13.89,6,55,29,25,2,8,6,6
13.895,4,13,8,2,13,4,1,0
13.9,10,64,2,7,10,9,6,2
13.905,11,20,3,19,5,2,5,2
13.91,7,22,10,43,1,2,2,2
13.915,16,14,39,99,22,7,2,3
13.92,10,4,7,10,3,1,7,2
13.925,5,12,1,6,4,2,7,2
13.93,3,24,12,4,0,0,1,6
13.935,0,89,7,22,3,4,3,3
13.94,16,63,16,19,3,1,3,4
13.945,17,14,24,50,11,6,3,2
13.95,9,35,31,61,13,9,7,4
13.955,1,15,0,9,4,3,4,3
13.96,5,28,20,18,7,0,4,2
13.965,5,23,6,7,4,4,4,1
13.97,6,11,36,5,6,1,6,2
13.975,7,38,5,33,5,2,1,3
13.98,5,78,5,7,13,4,1,3
13.985,0,31,35,40,0,1,4,3
13.99,5,20,8,7,2,2,1,0
13.995,2,14,16,9,5,4,3,2
14,7,37,13,29,9,3,1,3
14.005,2,5,16,47,7,6,2,3
14.01,5,39,11,21,10,1,1,1
14.015,9,88,22,4,8,5,6,5
14.02,2,9,2,24,4,4,0,4
14.025,6,24,5,4,7,1,1,1
14.03,5,12,9,27,23,4,1,0
14.035,19,16,16,33,22,0,1,2
14.04,3,26,29,29,3,1,0,1
14.045,1,59,21,13,10,1,3,3
14.05,1,15,3,26,13,5,1,2
14.055,13,25,5,45,19,6,4,4
14.06,5,28,10,22,6,6,2,3
14.065,2,20,15,9,4,2,3,4
14.07,1,3,2,13,18,1,0,1
14.075,3,24,37,9,6,3,1,2
14.08,16,9,8,15,14,3,3,1
14.085,9,3,3,8,3,1,2,1
14.09,17,13,5,16,19,2,2,3
14.095,1,3,2,17,8,4,1,2
14.1,6,18,9,2,0,2,1,2
14.105,8,1,11,13,5,1,0,2
14.11,5,5,7,8,8,0,3,2
14.115,8,14,16,26,17,0,2,1
14.12,5,13,3,3,4,0,5,2
14.125,2,6,15,23,9,2,7,1
14.13,6,12,5,32,6,2,2,0
14.135,16,8,20,2,19,1,0,0
14.14,25,17,18,1,17,3,3,4
14.145,0,4,17,19,7,3,4,3
14.15,2,9,2,20,4,3,1,1
14.155,6,11,2,28,13,2,1,2
14.16,16,40,7,3,10,4,2,3
14.165,33,16,8,30,8,5,4,6
14.17,0,3,0,15,18,6,4,3
14.175,0,5,14,34,12,2,4,3
14.18,19,10,8,18,0,4,4,6
14.185,2,11,8,40,21,7,3,3
14.19,7,8,7,8,1,3,3,4
14.195,5,4,10,5,3,1,3,4
14.2,9,1,12,14,0,11,5,2
14.205,20,11,10,3,12,6,5,5
14.21,6,10,5,0,12,3,0,1
14.215,2,2,21,17,21,6,2,2
14.22,5,15,2,7,2,3,1,1
14.225,0,4,1,5,14,11,4,2
14.23,15,6,12,13,24,15,6,3
14.235,19,3,5,8,10,1,4,0
14.24,14,3,4,16,29,14,8,1
14.245,8,6,11,14,11,5,3,2
14.25,15,5,3,9,2,1,3,3
14.255,3,1,2,17,17,7,2,3
14.26,9,7,4,11,5,5,4,1
14.265,14,2,2,3,0,3,1,2
14.27,36,0,3,4,9,5,2,3
14.275,23,6,6,7,2,3,3,2
14.28,12,2,3,1,4,1,2,1
14.285,4,5,3,2,6,0,0,1
14.29,16,3,7,5,5,2,2,0
14.295,10,3,7,2,3,2,1,4
14.3,16,6,5,1,11,1,1,0
14.305,1,1,13,11,14,5,1,1
14.31,37,1,9,2,4,2,2,2
14.315,15,15,2,9,3,1,0,2
14.32,7,2,0,8,10,6,4,0
14.325,8,2,3,5,0,3,0,0
14.33,0,11,5,9,5,4,2,4
14.335,5,9,7,11,15,0,0,2
14.34,48,14,8,20,7,4,5,4
14.345,12,4,2,3,8,0,1,2
14.35,18,3,11,8,1,0,1,1
14.355,8,8,18,1,5,8,6,4
14.36,10,2,4,2,1,0,0,2
14.365,7,1,1,1,5,2,1,1
14.37,1,1,5,2,5,4,1,0
14.375,4,5,13,16,3,7,4,1
14.38,13,2,2,16,7,3,1,1
14.385,8,8,3,24,4,1,1,2
14.39,23,3,9,4,3,1,1,1
14.395,26,1,15,15,2,5,2,1
14.4,8,20,7,4,1,4,5,4
14.405,10,3,6,2,5,3,4,1
14.41,21,17,1,8,3,1,2,2
14.415,18,12,2,6,2,0,3,1
14.42,1,0,4,16,0,2,2,1
14.425,5,2,12,17,8,3,2,2
14.43,3,0,2,2,3,2,1,1
14.435,9,1,2,4,9,2,4,0
14.44,8,5,3,17,5,7,4,2
14.445,7,0,7,3,5,4,0,0
14.45,7,5,9,21,1,2,0,0
14.455,10,6,28,15,4,4,4,3
14.46,4,1,7,1,1,2,1,1
14.465,5,4,0,1,7,4,2,1
14.47,1,2,2,0,5,6,5,2
14.475,3,2,17,8,7,0,1,0
14.48,4,2,1,9,3,2,2,1
14.485,11,1,7,2,1,3,2,4
14.49,6,9,30,5,2,2,3,2
14.495,3,5,13,9,1,3,0,1
14.5,18,2,9,14,5,4,4,3
14.505,3,0,4,10,4,1,4,0
14.51,2,0,23,4,0,3,2,0
14.515,7,4,16,3,9,3,2,1
14.52,6,1,1,4,15,1,2,0
14.525,6,3,4,2,13,3,3,2
14.53,1,7,20,47,7,11,4,3
14.535,6,4,8,1,8,2,4,2
14.54,10,4,0,1,3,1,1,0
14.545,2,7,11,20,7,1,1,2
14.55,3,5,5,5,1,3,0,2
14.555,17,9,8,3,11,5,3,4
14.56,1,0,20,4,3,2,2,1
14.565,6,3,4,0,4,8,6,3
14.57,1,8,2,6,1,4,1,1
14.575,1,6,23,38,16,6,0,1
14.58,6,18,26,29,11,3,3,3
14.585,6,1,12,22,5,3,0,1
14.59,4,6,11,5,3,2,2,1
14.595,5,2,6,3,3,2,2,2
14.6,6,5,6,4,6,2,2,2
14.605,1,2,0,26,6,1,1,2
14.61,2,1,5,15,7,3,3,0
14.615,7,3,0,15,1,0,0,0
14.62,2,9,12,5,4,2,3,1
14.625,17,11,45,8,7,6,6,4
14.63,1,5,14,20,0,0,2,2
14.635,4,8,3,23,9,0,0,1
14.64,11,4,17,8,4,2,3,0
14.645,2,4,14,13,8,2,1,2
14.65,4,2,11,10,6,2,2,1
14.655,6,3,16,9,3,3,4,1
14.66,7,5,26,5,7,2,3,1
14.665,6,10,33,2,6,2,1,0
14.67,11,8,9,31,5,2,1,4
14.675,4,0,4,1,4,6,2,2
14.68,4,2,4,7,8,3,2,1
14.685,14,5,16,27,2,1,2,0
14.69,1,2,6,2,10,3,0,3
14.695,1,1,8,11,6,1,2,0
14.7,4,2,1,2,1,3,1,2
14.705,5,1,13,3,13,2,3,1
14.71,0,1,2,1,3,4,3,2
14.715,3,1,18,1,10,5,2,1
14.72,3,3,0,8,0,1,1,2
14.725,2,1,11,17,8,1,2,0
14.73,6,3,16,1,7,2,2,1
14.735,5,10,3,20,9,3,1,3
14.74,12,15,20,8,0,0,3,3
14.745,2,6,8,6,1,3,2,2
14.75,2,1,2,3,0,1,1,1
14.755,6,3,1,1,3,1,0,1
14.76,3,1,0,6,7,4,3,2
14.765,7,7,4,7,17,5,3,1
14.77,4,7,4,7,18,2,2,0
14.775,4,1,41,11,1,5,2,1
14.78,15,6,76,28,4,2,2,4
14.785,0,10,4,15,6,5,3,3
14.79,1,1,0,18,1,0,1,1
14.795,3,2,15,7,8,3,2,0
14.8,3,5,16,4,1,2,2,0
14.805,2,5,3,3,9,4,2,2
14.81,4,7,19,22,27,4,2,2
14.815,8,6,12,29,20,7,4,4
14.82,3,4,6,7,6,1,1,0
14.825,4,2,1,7,4,2,5,2
14.83,3,6,24,4,3,0,1,1
14.835,1,6,34,19,1,3,3,1
14.84,13,11,2,4,2,3,3,2
14.845,7,6,14,3,2,2,4,1
14.85,1,6,5,13,4,4,1,1
14.855,20,13,14,27,8,2,0,3
14.86,12,6,18,11,2,3,2,3
14.865,4,8,28,6,7,5,1,1
14.87,9,6,8,4,7,4,2,2
14.875,6,1,26,30,14,6,6,3
14.88,3,3,11,26,11,3,4,1
14.885,6,7,5,5,0,2,1,0
14.89,9,12,4,22,9,5,2,1
14.895,2,3,0,7,1,3,0,2
14.9,5,2,2,3,5,6,3,1
14.905,1,7,10,24,2,1,1,2
14.91,2,6,5,14,5,4,1,0
14.915,9,2,23,44,4,5,0,1
14.92,1,4,43,44,24,0,1,2
14.925,1,3,12,3,1,6,3,1
14.93,10,1,2,7,6,0,0,2
14.935,6,3,1,3,2,2,1,0
14.94,1,9,8,8,11,3,1,0
14.945,8,11,5,3,7,3,5,3
14.95,1,7,9,16,9,8,7,2
14.955,4,4,0,18,13,5,6,2
14.96,3,5,1,8,1,0,2,4
14.965,2,1,5,10,5,2,0,1
14.97,2,2,6,2,3,5,6,4
14.975,3,3,1,12,8,2,1,1
14.98,4,5,1,20,9,1,0,0
14.985,3,1,5,16,1,1,2,1
14.99,10,3,5,2,2,1,1,2
14.995,19,9,23,3,10,6,8,3
15,2,4,2,3,3,5,3,4
15.005,2,6,2,23,1,2,0,2
15.01,10,6,8,3,17,4,1,0
15.015,14,10,8,11,2,4,4,0
15.02,5,1,8,2,1,0,1,1
15.025,4,1,7,1,2,0,1,2
15.03,12,5,4,4,1,2,1,2
15.035,13,1,7,14,2,1,0,0
15.04,15,2,3,6,4,1,0,1
15.045,58,4,0,15,9,2,1,4
15.05,34,4,7,8,10,3,5,1
15.055,16,3,7,16,23,7,0,1
15.06,45,2,21,13,5,0,0,2
15.065,25,9,41,81,22,3,3,1
15.07,12,2,14,0,3,2,3,1
15.075,41,6,9,15,20,10,8,4
15.08,11,2,9,24,12,3,1,3
15.085,1,2,9,0,3,2,0,0
15.09,29,6,22,3,1,7,2,1
15.095,0,8,15,29,3,0,3,0
15.1,9,10,14,4,7,6,3,2
15.105,28,7,4,9,6,6,4,3
15.11,17,4,2,6,3,2,2,0
15.115,27,0,6,5,13,0,1,0
15.12,20,2,0,4,11,1,0,1
15.125,26,0,7,3,0,2,1,0
15.13,25,0,3,5,0,4,5,1
15.135,3,3,6,4,5,1,0,2
15.14,23,7,10,17,15,5,5,2
15.145,23,2,15,21,5,3,1,1
15.15,19,3,6,4,4,3,3,1
15.155,8,4,7,4,5,3,3,2
15.16,3,0,7,30,2,2,2,0
15.165,2,6,11,16,3,2,1,3
15.17,2,1,6,7,8,1,1,1
15.175,4,4,21,8,21,2,4,1
15.18,2,1,11,8,17,1,1,0
15.185,1,2,9,9,15,2,1,0
15.19,5,1,12,1,13,4,1,0
15.195,1,2,5,0,1,1,0,1
15.2,0,0,10,4,5,0,0,2
15.205,7,3,2,4,0,1,1,2
15.21,4,4,10,18,2,1,1,1
15.215,2,2,7,2,1,3,2,3
15.22,6,4,3,3,2,0,2,1
15.225,2,1,2,3,1,4,2,0
15.23,3,3,4,11,5,0,1,3
15.235,1,4,1,7,2,2,1,1
15.24,0,2,1,3,5,1,0,0
15.245,6,3,9,7,5,3,3,2
15.25,4,3,32,9,10,1,1,0
15.255,0,14,22,19,13,4,2,1
15.26,1,2,8,21,5,3,2,4
15.265,1,1,3,10,3,3,3,0
15.27,5,4,1,16,9,4,1,4
15.275,4,0,4,6,9,0,0,1
15.28,1,4,4,1,3,1,0,0
15.285,5,3,2,0,3,0,1,1
15.29,8,6,6,2,12,1,0,0
15.295,6,1,6,0,8,4,2,1
15.3,2,4,1,2,5,1,2,3
15.305,13,5,0,3,4,4,2,3
15.31,7,5,19,11,5,0,0,0
15.315,12,1,8,4,2,3,3,1
15.32,2,7,2,4,6,0,2,2
15.325,4,0,1,4,0,2,2,3
15.33,15,9,9,3,9,2,1,3
15.335,11,25,3,9,11,2,0,2
15.34,15,6,2,7,2,1,1,1
15.345,0,1,3,0,2,3,3,0
15.35,2,3,2,2,2,1,0,1
15.355,1,10,12,3,1,2,1,2
15.36,0,1,11,3,1,2,2,2
15.365,2,4,6,15,1,0,0,1
15.37,18,0,10,36,16,1,0,1
15.375,14,9,4,6,0,2,2,4
15.38,20,32,2,10,4,2,0,1
15.385,30,7,10,1,5,4,2,1
15.39,8,4,5,4,3,4,2,2
15.395,23,33,8,23,4,0,3,3
15.4,51,9,8,14,9,1,1,1
15.405,10,7,42,8,7,4,4,4
15.41,3,23,22,12,3,0,2,1
15.415,26,8,0,11,3,1,1,2
15.42,19,12,12,4,6,1,1,0
15.425,4,30,13,4,7,3,1,1
15.43,41,32,6,1,4,0,0,3
15.435,3,28,4,10,5,1,0,2
15.44,14,1,8,4,0,1,2,1
15.445,3,9,1,7,0,1,1,2
15.45,12,2,4,4,2,2,2,1
15.455,3,2,3,15,1,2,1,0
15.46,4,7,1,6,11,0,1,1
15.465,12,22,3,10,7,0,2,1
15.47,39,3,0,19,1,3,3,1
15.475,17,1,1,6,3,1,1,4
15.48,3,5,8,4,4,5,3,3
15.485,31,12,6,10,0,1,1,2
15.49,13,2,7,4,5,1,1,1
15.495,4,62,17,10,1,6,7,7
15.5,29,18,17,11,3,1,2,3
15.505,15,4,0,23,15,5,4,1
15.51,18,21,9,20,14,4,4,5
15.515,11,2,1,4,0,2,0,0
15.52,0,3,1,8,8,4,1,0
15.525,17,4,2,0,4,0,1,1
15.53,27,8,8,8,0,1,0,2
15.535,5,4,8,2,3,3,0,1
15.54,32,24,4,2,5,4,3,6
15.545,33,12,3,5,2,2,1,3
15.55,0,8,6,4,0,1,2,1
15.555,12,16,1,4,5,3,1,0
15.56,20,9,1,11,5,1,0,1
15.565,3,36,5,12,10,0,3,3
15.57,5,4,2,5,5,2,1,1
15.575,7,10,3,1,2,0,1,1
15.58,1,1,4,0,1,1,0,3
15.585,19,3,5,8,2,1,2,1
15.59,8,91,31,3,2,5,4,4
15.595,18,7,4,14,8,2,2,0
15.6,4,3,1,12,3,4,3,1
15.605,4,9,9,14,12,2,2,1
15.61,5,9,5,10,5,0,1,1
15.615,6,20,1,6,2,0,1,1
15.62,4,13,2,7,7,0,3,2
15.625,1,13,2,4,7,4,1,0
15.63,3,5,10,4,1,2,2,2
15.635,5,1,0,4,1,1,2,1
15.64,13,46,3,6,3,1,0,2
15.645,10,8,2,15,2,1,0,1
15.65,6,27,10,1,4,6,4,5
15.655,1,18,5,8,1,0,0,0
15.66,10,26,3,5,3,1,1,1
15.665,11,10,3,2,6,2,3,0
15.67,6,6,6,12,7,3,1,1
15.675,19,23,5,30,6,1,2,1
15.68,18,13,3,11,8,0,2,3
15.685,2,3,1,1,2,0,1,2
15.69,1,20,8,4,1,2,3,2
15.695,8,2,0,9,3,1,2,2
15.7,7,12,1,4,2,2,2,1
15.705,8,2,1,3,3,3,2,3
15.71,11,1,6,4,8,0,1,1
15.715,7,7,2,4,5,1,3,1
15.72,2,3,2,1,5,0,1,2
15.725,3,7,6,5,6,1,1,1
15.73,5,2,3,5,1,1,2,3
15.735,1,3,0,0,1,3,1,0
15.74,2,11,1,2,3,3,1,2
15.745,9,2,1,8,1,3,1,0
15.75,23,4,5,3,2,1,2,3
15.755,8,1,0,15,8,4,3,1
15.76,5,4,13,8,6,1,2,1
15.765,17,0,4,10,1,1,1,2
15.77,3,7,3,27,14,1,0,1
15.775,1,4,5,7,5,2,2,3
15.78,8,5,9,1,3,2,1,1
15.785,4,1,6,1,2,2,0,2
15.79,1,1,4,2,1,2,3,2
15.795,7,0,2,1,2,0,2,3
15.8,3,0,12,3,2,2,2,3
15.805,4,8,1,0,3,1,1,0
15.81,1,6,2,2,7,2,2,3
15.815,4,8,1,10,11,0,0,14
15.82,4,3,3,8,2,1,1,1
15.825,3,9,11,23,0,2,1,3
15.83,6,16,2,13,1,2,2,22
15.835,5,20,9,16,2,1,5,22
15.84,15,32,56,10,7,5,3,4
15.845,19,15,1,10,3,0,3,5
15.85,1,17,17,5,1,1,7,26
15.855,15,34,17,10,5,2,3,5
15.86,2,3,26,4,3,3,3,5
15.865,8,7,13,8,2,0,0,1
15.87,3,59,39,16,4,2,0,4
15.875,2,6,8,2,1,1,3,8
15.88,3,44,55,11,0,1,1,7
15.885,10,42,16,9,5,4,6,0
15.89,4,26,27,4,2,2,0,7
15.895,0,7,46,40,4,4,4,9
15.9,4,4,16,25,3,2,0,2
15.905,3,15,4,19,8,5,2,1
15.91,6,10,9,4,4,1,1,11
15.915,3,7,6,12,9,0,0,10
15.92,8,13,15,26,2,1,2,8
15.925,5,6,20,39,3,1,3,2
15.93,3,6,4,4,4,4,1,12
15.935,2,5,12,24,11,2,0,11
15.94,2,10,7,6,2,1,0,2
15.945,12,20,9,16,1,1,1,1
15.95,17,4,12,4,4,2,0,7
15.955,9,14,24,19,3,4,1,5
15.96,16,11,2,28,2,1,2,4
15.965,8,4,10,32,1,5,1,2
15.97,13,44,20,11,2,6,6,5
15.975,6,80,26,13,3,3,5,0
15.98,13,21,26,2,1,0,1,2
15.985,19,19,27,34,9,2,5,6
15.99,6,9,24,13,5,4,0,3
15.995,2,53,34,3,5,5,4,8
16,3,22,27,7,1,2,0,2
16.005,3,13,8,26,1,1,1,3
16.01,1,10,20,9,1,4,3,16
16.015,2,11,17,14,3,3,1,4
16.02,2,43,42,76,9,7,6,4
16.025,28,9,14,40,0,1,0,8
16.03,5,8,15,25,4,1,1,8
16.035,4,7,6,22,0,1,4,11
16.04,4,16,4,7,3,1,1,4
16.045,15,16,20,4,3,4,2,3
16.05,4,23,1,4,7,8,5,3
16.055,17,28,18,21,8,5,3,10
16.06,16,4,2,9,1,1,1,2
16.065,19,18,10,3,2,2,1,5
16.07,16,10,12,5,2,0,0,3
16.075,21,25,3,7,5,3,4,10
16.08,6,7,57,6,2,1,3,1
16.085,2,1,1,4,6,1,1,3
16.09,8,1,3,4,6,1,2,1
16.095,4,7,6,12,8,2,0,2
16.1,3,11,2,30,1,2,0,1
16.105,4,4,4,10,9,0,1,1
16.11,20,8,12,6,2,1,2,1
16.115,21,7,4,12,6,3,3,2
16.12,0,13,12,16,0,1,1,1
16.125,17,18,1,9,0,1,1,1
16.13,17,9,13,2,1,0,0,1
16.135,14,5,1,2,3,0,1,2
16.14,7,1,1,0,5,3,3,3
16.145,10,17,6,3,1,2,1,2
16.15,2,10,6,21,5,2,0,0
16.155,1,11,9,24,6,0,0,1
16.16,7,22,7,3,1,5,4,3
16.165,35,11,4,13,2,4,4,1
16.17,7,55,32,32,4,6,1,2
16.175,4,18,40,22,0,3,0,1
16.18,2,7,8,14,6,1,3,0
16.185,3,9,50,44,16,9,6,2
16.19,3,6,2,40,3,1,5,8
16.195,7,4,4,5,1,1,1,1
16.2,3,20,39,28,4,0,1,2
16.205,4,9,22,1,4,1,0,0
16.21,1,13,2,8,5,1,1,3
16.215,1,14,2,2,6,2,3,2
16.22,2,15,24,5,1,0,1,1
16.225,10,3,16,1,6,2,1,1
16.23,3,19,4,11,1,0,3,1
16.235,8,10,1,20,1,3,4,4
16.24,1,6,6,31,8,4,1,3
16.245,22,16,7,2,1,1,3,3
16.25,33,46,1,1,4,1,0,2
16.255,2,1,12,19,2,1,1,0
16.26,11,13,4,15,20,5,1,0
16.265,12,1,7,25,15,3,1,2
16.27,20,1,11,3,8,2,3,1
16.275,1,3,8,14,1,4,1,1
16.28,7,9,14,11,2,1,3,3
16.285,7,3,18,8,6,2,0,4
16.29,11,7,28,5,6,1,0,2
16.295,2,3,37,38,14,6,3,1
16.3,9,2,5,20,6,2,0,1
16.305,2,0,28,8,10,0,3,1
16.31,0,1,3,4,6,3,1,2
16.315,5,11,4,5,0,1,3,13
16.32,12,7,15,10,7,2,1,0
16.325,22,20,20,17,4,3,2,5
16.33,16,4,22,9,1,3,1,1
16.335,8,7,16,3,4,3,2,0
16.34,15,17,13,1,1,0,1,6
16.345,15,16,19,10,8,2,1,2
16.35,5,1,22,17,7,3,2,0
16.355,2,7,4,12,7,2,1,2
16.36,21,11,3,2,2,1,0,0
16.365,24,8,14,22,5,1,3,1
16.37,12,7,35,49,15,2,3,15
16.375,3,43,0,26,3,1,2,7
16.38,5,59,16,37,15,4,0,1
16.385,24,27,0,17,0,1,2,1
16.39,30,2,17,22,5,2,1,1
16.395,7,9,7,6,6,4,4,3
16.4,0,19,1,14,1,2,1,3
16.405,4,1,7,3,2,1,2,3
16.41,14,11,4,9,2,4,2,1
16.415,8,10,4,4,3,1,2,1
16.42,11,0,2,16,12,5,3,4
16.425,0,5,5,15,10,7,5,7
16.43,6,10,2,8,3,1,1,2
16.435,1,6,8,2,3,2,2,0
16.44,5,7,0,5,2,2,1,2
16.445,19,14,8,4,5,2,2,4
16.45,16,9,16,14,13,3,2,0
16.455,8,3,11,10,25,4,1,1
16.46,1,10,5,27,4,3,4,3
16.465,1,4,20,29,8,1,1,0
16.47,17,9,3,19,3,3,1,0
16.475,21,16,4,19,15,1,1,2
16.48,0,16,12,12,12,4,2,0
16.485,1,5,18,8,0,3,2,2
16.49,16,14,5,13,0,2,3,3
16.495,1,3,28,24,5,0,2,2
16.5,12,11,1,8,5,1,2,1
16.505,34,8,21,13,1,2,1,2
16.51,16,10,10,6,4,2,1,2
16.515,17,5,14,10,6,1,1,0
16.52,16,6,1,2,0,2,2,3
16.525,16,16,22,21,1,3,3,2
16.53,10,1,25,31,2,0,2,1
16.535,12,14,15,49,19,4,4,3
16.54,2,4,15,5,2,2,2,0
16.545,13,2,6,4,0,3,2,3
16.55,4,1,6,10,6,3,1,1
16.555,3,18,14,26,6,1,0,3
16.56,4,0,1,2,8,0,1,0
16.565,5,4,15,37,0,3,0,2
16.57,18,0,6,3,6,1,1,1
16.575,21,11,4,11,4,1,0,0
16.58,1,2,8,3,2,0,0,1
16.585,3,3,10,20,15,5,3,3
16.59,5,9,12,9,24,1,2,2
16.595,4,11,3,4,1,2,2,3
16.6,11,1,2,5,2,2,0,0
16.605,18,4,10,5,0,3,1,4
16.61,7,2,42,34,7,3,3,2
16.615,7,12,9,16,3,1,0,1
16.62,13,1,5,13,9,1,2,1
16.625,30,6,4,4,2,1,2,2
16.63,14,15,6,7,6,1,1,3
16.635,1,4,6,16,11,2,0,0
16.64,4,9,1,12,5,0,0,1
16.645,21,5,7,7,8,1,1,0
16.65,13,1,9,4,6,4,2,3
16.655,2,7,1,5,8,0,1,1
16.66,9,5,2,3,3,2,1,1
16.665,13,2,3,2,0,1,1,1
16.67,6,5,3,1,3,0,2,0
16.675,26,2,4,21,13,1,0,0
16.68,6,18,4,8,0,5,4,5
16.685,36,6,1,24,3,1,1,2
16.69,12,3,4,5,1,1,0,1
16.695,21,4,0,10,2,2,1,1
16.7,7,2,8,8,6,1,0,2
16.705,12,4,3,15,3,3,1,1
16.71,4,8,3,1,4,2,3,1
16.715,7,6,11,4,6,0,1,1
16.72,2,10,6,18,8,1,3,4
16.725,17,13,12,15,9,1,1,1
16.73,12,8,7,24,7,1,0,0
16.735,3,0,2,0,5,1,2,1
16.74,10,4,1,12,5,1,1,2
16.745,21,5,4,13,4,1,0,0
16.75,11,1,3,13,6,1,0,1
16.755,19,7,3,12,3,2,3,3
16.76,16,4,1,11,4,2,0,0
16.765,20,1,2,7,3,2,1,0
16.77,23,6,1,2,0,2,2,3
16.775,10,2,1,8,7,0,0,1
16.78,7,1,1,4,2,1,1,1
16.785,29,3,7,9,9,4,4,4
16.79,22,14,5,6,4,1,0,1
16.795,9,1,1,2,1,2,2,1
16.8,6,0,0,7,1,0,2,1
16.805,5,3,5,19,9,2,1,1
16.81,21,1,5,15,1,1,0,0
16.815,25,4,13,1,9,2,2,4
16.82,30,9,2,9,5,1,0,0
16.825,10,4,4,6,4,2,0,0
16.83,5,4,4,5,4,0,1,1
16.835,6,2,6,9,4,2,1,0
16.84,36,8,4,5,1,0,0,1
16.845,7,8,0,6,3,1,1,0
16.85,7,2,4,0,4,1,2,0
16.855,4,14,2,16,2,1,2,3
16.86,3,5,1,2,4,1,0,1
16.865,6,1,1,0,2,0,0,1
16.87,1,5,1,1,2,0,0,0
16.875,14,5,5,7,4,2,0,0
16.88,18,5,5,8,4,2,1,3
16.885,1,2,0,3,1,0,1,1
16.89,2,2,1,6,6,2,0,1
16.895,2,2,2,5,5,1,1,1
16.9,0,2,2,8,3,1,1,0
16.905,9,1,4,4,0,1,2,1
16.91,1,2,1,1,5,2,2,0
16.915,1,1,0,2,5,1,1,1
16.92,5,9,4,6,4,4,2,2
16.925,6,7,4,2,5,1,2,3
16.93,3,4,2,10,3,2,1,1
16.935,3,1,4,31,21,0,0,3
16.94,19,12,6,11,3,0,1,0
16.945,12,4,4,8,3,1,3,3
16.95,5,8,0,8,1,3,2,5
16.955,2,12,3,8,4,3,3,2
16.96,5,3,0,0,2,1,2,0
16.965,0,16,2,6,5,1,2,0
16.97,0,37,9,30,7,5,3,3
16.975,22,21,1,18,14,4,3,1
16.98,6,3,2,40,22,2,0,2
16.985,7,6,2,9,1,0,1,0
16.99,7,1,3,4,8,3,3,4
16.995,9,5,1,5,1,2,2,0
17,48,8,2,11,1,4,3,3
17.005,4,11,1,5,5,4,1,3
17.01,7,12,3,3,3,1,1,2
17.015,3,3,1,8,7,2,1,2
17.02,7,16,4,11,8,2,4,3
17.025,10,1,12,15,7,6,3,2
17.03,0,10,3,16,2,2,3,2
17.035,8,5,10,25,1,3,0,3
17.04,11,7,5,13,14,4,3,0
17.045,4,0,3,2,0,6,0,1
17.05,24,12,6,10,12,7,10,3
17.055,48,8,5,28,51,12,6,7
17.06,1,7,8,41,3,9,0,1
17.065,25,3,1,23,73,21,14,4
17.07,12,3,8,20,30,18,10,5
17.075,11,2,4,24,36,25,15,4
17.08,13,4,1,13,56,13,2,3
17.085,23,3,7,3,56,11,6,2
17.09,0,8,4,4,29,6,3,3
17.095,15,15,16,13,59,27,6,1
17.1,1,13,24,33,9,9,12,7
17.105,21,11,36,43,39,13,25,9
17.11,9,6,8,24,90,99,18,8
17.115,27,12,14,52,78,88,34,14
17.12,12,4,22,23,37,17,10,17
17.125,7,2,6,10,20,3,4,9
17.13,25,5,1,11,21,8,16,41
17.135,15,5,17,17,61,41,18,8
17.14,3,7,4,7,8,8,1,6
17.145,7,5,3,6,8,8,2,8
17.15,0,2,3,2,8,10,0,9
17.155,4,13,2,14,5,13,2,2
17.16,12,5,2,0,27,13,2,1
17.165,11,7,5,21,44,18,5,8
17.17,6,11,1,7,22,22,7,5
17.175,1,13,7,2,19,1,3,1
17.18,13,24,17,14,16,11,5,1
17.185,5,16,2,8,14,5,0,4
17.19,19,43,2,1,28,16,8,6
17.195,35,16,1,3,6,8,5,0
17.2,3,23,3,9,19,12,6,10
17.205,9,35,3,8,3,2,2,4
17.21,4,41,1,3,20,14,2,5
17.215,6,12,9,4,14,17,6,3
17.22,2,16,8,9,6,1,2,1
17.225,0,28,11,6,1,0,0,4
17.23,88,15,3,20,2,2,1,3
17.235,103,97,13,4,17,7,3,0
17.24,123,119,9,6,3,5,3,5
17.245,66,128,3,7,6,5,2,2
17.25,91,26,7,0,2,7,6,1
17.255,124,123,7,10,5,6,4,1
17.26,89,14,0,5,11,7,8,1
17.265,123,106,9,7,12,18,11,1
17.27,73,96,5,3,5,8,7,1
17.275,54,121,18,4,6,4,0,1
17.28,68,127,22,5,1,3,5,1
17.285,128,3,62,27,43,12,11,5
17.29,102,118,86,11,5,20,9,1
17.295,23,118,82,19,2,1,4,3
17.3,114,128,23,7,4,9,7,2
17.305,75,105,35,17,8,4,8,5
17.31,107,127,63,3,1,5,5,2
17.315,38,11,69,4,24,4,1,4
17.32,74,98,62,3,14,3,5,1
17.325,108,128,42,11,12,4,3,3
17.33,29,128,29,9,12,6,1,0
17.335,60,119,17,15,9,21,9,2
17.34,83,22,4,4,21,7,5,0
17.345,109,34,7,3,31,9,9,10
17.35,107,32,1,1,1,7,3,5
17.355,90,7,5,3,5,1,1,0
17.36,89,12,4,13,19,4,6,3
17.365,37,1,12,3,16,25,4,1
17.37,49,32,2,3,0,6,5,2
17.375,15,9,9,1,4,6,3,3
17.38,10,0,0,1,5,2,0,1
17.385,23,7,4,5,0,8,4,4
17.39,22,9,2,5,3,5,2,3
17.395,13,9,0,9,1,2,3,3
17.4,6,38,9,3,1,2,1,0
17.405,11,0,13,42,16,3,4,1
17.41,11,9,33,64,24,7,3,1
17.415,32,27,20,10,0,9,2,1
17.42,18,7,21,2,4,3,1,2
17.425,2,16,4,18,4,5,4,3
17.43,15,18,4,11,3,2,2,2
17.435,10,10,0,11,5,0,1,1
17.44,14,9,1,16,3,7,1,1
17.445,6,10,7,0,0,2,4,2
17.45,7,6,6,16,2,0,0,0
17.455,15,3,15,15,7,4,1,1
17.46,9,1,8,15,17,6,0,1
17.465,5,14,11,11,27,7,0,4
17.47,2,2,5,1,2,0,0,0
17.475,19,1,2,1,1,0,1,2
17.48,18,11,2,1,4,4,2,2
17.485,9,11,1,11,19,5,3,1
17.49,15,10,1,2,0,2,2,5
17.495,5,2,1,19,10,1,0,1
17.5,8,14,2,14,3,0,0,1
17.505,2,1,15,26,9,3,1,0
17.51,14,3,3,10,7,2,1,1
17.515,9,3,3,5,8,3,0,1
17.52,8,2,9,7,6,0,1,2
17.525,8,9,7,9,5,7,5,4
17.53,11,1,2,15,11,1,1,1
17.535,2,5,8,18,25,3,0,2
17.54,17,6,5,8,8,4,1,1
17.545,6,4,3,1,5,2,0,0
17.55,10,17,9,7,4,4,3,3
17.555,1,4,1,2,9,2,2,0
17.56,20,8,3,14,3,5,1,1
17.565,42,9,0,17,6,2,3,2
17.57,9,7,11,3,7,2,1,1
17.575,1,4,5,2,8,2,0,2
17.58,16,1,7,8,7,0,0,0
17.585,17,8,1,10,11,4,1,1
17.59,21,12,1,22,18,3,1,1
17.595,11,7,1,27,6,0,1,0
17.6,1,2,0,7,17,6,0,1
17.605,4,4,3,8,6,2,1,1
17.61,15,5,12,2,1,2,2,3
17.615,11,6,14,8,15,5,0,1
17.62,7,8,0,9,5,7,4,4
17.625,6,10,11,5,5,3,3,3
17.63,10,12,2,31,4,2,1,2
17.635,1,2,1,19,5,4,2,1
17.64,3,11,4,4,0,2,1,3
17.645,6,13,25,10,9,1,1,2
17.65,25,8,12,35,11,3,1,1
17.655,1,18,4,14,5,1,2,3
17.66,14,5,9,5,13,4,0,1
17.665,6,2,2,7,12,2,2,2
17.67,7,9,10,24,20,0,1,3
17.675,3,12,7,5,9,3,1,1
17.68,10,3,3,2,7,1,2,3
17.685,12,0,13,2,5,1,1,0
17.69,5,3,2,8,14,1,1,4
17.695,9,27,7,6,5,2,0,3
17.7,12,23,10,1,9,4,2,5
17.705,10,11,2,7,8,2,3,6
17.71,16,9,5,1,7,1,0,1
17.715,18,18,1,3,1,1,1,4
17.72,21,3,3,3,2,2,1,0
17.725,36,15,1,16,11,0,2,1
17.73,13,5,13,2,4,0,2,1
17.735,8,11,13,21,15,1,0,1
17.74,6,8,3,18,6,1,5,4
17.745,14,10,14,22,6,2,7,3
17.75,1,10,1,20,1,4,14,7
17.755,1,6,2,8,1,2,1,0
17.76,1,4,9,20,7,0,2,1
17.765,27,5,15,0,4,3,2,0
17.77,15,5,21,3,7,3,3,0
17.775,14,4,6,3,1,0,1,1
17.78,23,10,2,8,4,3,3,0
17.785,4,0,1,6,0,3,1,2
17.79,2,7,5,21,10,2,2,1
17.795,1,6,13,29,15,4,2,1
17.8,3,1,17,4,1,3,4,2
17.805,3,6,2,22,8,3,4,1
17.81,5,5,16,1,4,3,2,1
17.815,21,6,12,14,4,0,3,6
17.82,1,4,19,8,4,2,3,1
17.825,18,7,22,2,3,4,5,3
17.83,6,1,25,8,2,1,1,3
17.835,7,8,15,0,2,3,4,3
17.84,2,12,17,1,1,2,2,4
17.845,5,5,14,1,1,0,0,1
17.85,11,6,5,3,3,2,1,9
17.855,3,14,2,13,5,0,5,4
17.86,1,4,5,8,3,0,1,0
17.865,4,2,24,13,8,6,4,0
17.87,7,7,26,31,9,3,0,0
17.875,3,9,68,56,12,4,2,1
17.88,1,5,32,11,4,6,6,2
17.885,7,1,16,10,5,1,3,3
17.89,1,14,42,3,0,0,0,0
17.895,9,5,7,19,4,1,2,2
17.9,0,8,1,1,0,2,1,3
17.905,11,25,17,2,1,1,0,2
17.91,18,1,34,10,2,1,2,7
17.915,2,5,7,1,3,8,1,3
17.92,7,0,7,5,2,2,1,2
17.925,19,29,33,2,2,2,6,4
17.93,14,11,34,13,7,4,0,1
17.935,3,13,36,7,3,2,5,1
17.94,1,9,22,6,0,2,2,2
17.945,2,2,28,1,0,1,0,0
17.95,8,3,18,2,0,1,2,2
17.955,8,3,9,0,0,2,3,1
17.96,15,1,5,1,1,2,2,4
17.965,3,10,8,6,3,0,1,5
17.97,0,3,11,0,2,0,1,3
17.975,8,8,5,3,3,4,2,1
17.98,4,7,1,3,0,1,0,1
17.985,15,1,8,8,2,0,3,4
17.99,22,1,6,5,1,1,1,4
17.995,12,1,2,15,8,4,2,0
18,4,1,5,7,3,0,0,0
18.005,12,2,1,6,1,2,3,0
18.01,6,3,0,11,3,4,1,0
18.015,10,8,4,1,3,6,4,2
18.02,6,4,12,6,0,1,2,1
18.025,17,0,1,1,5,2,1,2
18.03,3,8,6,13,1,2,1,1
18.035,19,7,1,6,2,1,3,6
18.04,10,0,7,29,10,1,0,0
18.045,9,1,1,5,0,0,1,3
18.05,3,9,6,1,3,1,1,1
18.055,1,12,2,18,7,4,1,5
18.06,4,3,1,8,3,0,1,1
18.065,20,16,5,3,4,3,4,6
18.07,7,3,7,13,5,5,1,3
18.075,1,4,1,6,2,2,1,0
18.08,5,1,1,12,6,4,2,0
18.085,9,1,0,3,4,5,1,1
18.09,31,4,0,7,1,1,1,2
18.095,15,6,8,2,1,2,1,1
18.1,16,11,8,9,1,0,1,3
18.105,11,5,4,6,2,0,1,1
18.11,1,3,0,1,2,1,2,2
18.115,4,3,6,1,1,5,2,1
18.12,5,15,3,4,3,1,3,3
18.125,5,9,9,7,1,1,0,1
18.13,5,13,3,1,0,0,2,3
18.135,8,15,5,11,1,2,1,0
18.14,15,1,2,36,10,3,3,3
18.145,10,0,7,0,2,3,0,1
18.15,22,2,1,5,0,1,1,1
18.155,14,7,15,4,1,2,3,1
18.16,2,4,5,10,0,4,1,1
18.165,1,11,0,7,2,2,2,2
18.17,7,3,1,2,2,2,2,2
18.175,9,2,0,7,1,1,1,2
18.18,0,0,1,6,3,1,0,0
18.185,2,8,6,5,3,1,1,0
18.19,11,11,2,3,4,7,3,1
18.195,4,4,10,3,1,0,1,1
18.2,1,8,3,7,2,2,1,2
18.205,19,1,3,1,0,0,2,1
18.21,3,16,1,17,4,2,3,2
18.215,3,9,4,6,0,1,1,0
18.22,4,6,2,4,3,2,0,0
18.225,1,2,1,12,4,1,1,1
18.23,0,3,1,2,0,3,0,2
18.235,3,3,5,6,3,2,3,1
18.24,1,0,8,4,0,1,1,1
18.245,5,1,10,5,2,2,0,1
18.25,3,2,10,3,6,1,1,1
18.255,7,3,13,12,3,1,1,0
18.26,3,5,1,11,8,3,2,0
18.265,9,0,5,0,4,1,3,2
18.27,2,6,2,7,0,1,1,2
18.275,3,5,14,3,4,2,3,2
18.28,3,6,12,11,5,2,0,1
18.285,12,10,3,1,0,0,1,1
18.29,4,15,20,3,2,1,0,2
18.295,1,13,25,5,2,1,1,3
18.3,2,4,12,7,2,1,2,5
18.305,5,19,22,9,3,3,2,2
18.31,3,9,27,6,3,2,1,1
18.315,3,4,31,0,4,3,0,1
18.32,3,4,6,2,1,1,0,1
18.325,3,6,0,5,3,0,0,1
18.33,1,2,4,6,1,2,0,2
18.335,2,2,12,13,3,0,2,1
18.34,0,1,4,6,0,1,1,0
18.345,1,1,1,30,4,3,3,3
18.35,5,0,13,14,4,1,1,2
18.355,2,2,0,10,1,0,1,2
18.36,0,12,4,25,4,2,2,2
18.365,5,0,4,23,7,1,0,0
18.37,3,5,3,6,1,1,1,1
18.375,2,9,2,2,2,1,1,0
18.38,1,1,3,8,2,2,2,2
18.385,2,1,6,7,3,2,1,1
18.39,3,3,3,4,2,1,1,1
18.395,1,4,13,6,2,0,1,0
18.4,10,15,11,6,0,2,1,2
18.405,17,3,21,6,2,1,0,1
18.41,23,1,31,0,2,2,2,2
18.415,2,15,7,7,8,5,2,3
18.42,5,5,12,1,4,0,1,0
18.425,2,9,8,16,6,5,4,1
18.43,9,1,7,2,3,0,1,1
18.435,3,3,3,0,1,2,2,0
18.44,2,11,2,3,3,1,0,1
18.445,6,22,11,18,2,2,1,2
18.45,6,10,13,8,3,1,2,1
18.455,7,2,6,12,1,2,0,4
18.46,6,2,7,1,2,3,1,0
18.465,5,7,0,9,2,0,0,1
18.47,1,2,17,3,1,2,0,2
18.475,7,0,21,5,0,0,0,2
18.48,7,4,7,7,3,2,1,1
18.485,3,8,6,1,3,2,0,4
18.49,2,1,3,1,0,2,1,2
18.495,5,2,10,6,5,2,1,1
18.5,1,3,6,7,3,0,0,1
18.505,5,5,8,8,4,2,0,1
18.51,16,18,16,4,1,0,2,2
18.515,0,4,3,3,2,1,0,1
18.52,8,5,6,3,6,2,1,1
18.525,3,1,7,3,3,1,2,0
18.53,3,7,4,2,1,2,0,0
18.535,6,4,6,2,2,1,2,0
18.54,1,4,4,4,0,1,1,1
18.545,6,1,23,8,5,4,2,0
18.55,7,6,2,5,8,4,1,2
18.555,0,2,4,9,7,2,1,0
18.56,3,3,4,2,4,2,2,0
18.565,10,6,2,7,2,0,0,2
18.57,3,17,10,7,3,2,3,5
18.575,7,4,1,21,9,5,0,0
18.58,11,4,4,7,8,2,3,0
18.585,6,2,7,3,2,1,1,0
18.59,9,5,0,16,3,0,1,4
18.595,7,7,2,10,8,3,1,1
18.6,9,3,2,6,7,2,1,1
18.605,2,4,8,1,3,1,0,1
18.61,4,3,8,2,1,0,0,1
18.615,10,4,8,14,3,1,2,2
18.62,8,7,3,4,3,1,2,4
18.625,13,7,1,1,1,0,1,2
18.63,5,1,3,1,0,0,2,1
18.635,2,2,9,0,0,0,1,1
18.64,7,3,2,5,1,1,0,0
18.645,17,8,6,1,0,2,4,2
18.65,13,2,0,5,0,2,1,0
18.655,12,3,1,6,3,1,0,1
18.66,8,1,6,1,0,5,4,1
18.665,12,3,6,9,11,5,3,2
18.67,5,0,1,9,6,1,0,1
18.675,5,5,4,21,22,6,1,0
18.68,8,2,3,0,4,3,1,0
18.685,5,0,3,3,2,0,0,1
18.69,14,12,4,8,4,2,3,2
18.695,1,1,6,4,9,5,3,1
18.7,2,4,2,3,0,1,1,0
18.705,5,2,3,21,5,3,1,0
18.71,4,7,6,6,4,1,3,2
18.715,6,9,4,6,9,4,4,4
18.72,2,7,3,5,5,2,2,1
18.725,4,2,1,7,11,2,0,1
18.73,5,1,1,1,3,3,9,1
18.735,8,1,6,3,3,0,13,2
18.74,20,9,3,13,19,11,30,1
18.745,11,1,5,8,23,9,34,3
18.75,22,3,1,2,20,5,11,1
18.755,2,9,5,13,23,7,29,10
18.76,7,12,2,4,7,6,17,4
18.765,0,2,0,0,1,6,2,14
18.77,4,2,4,8,15,7,9,8
18.775,3,5,5,14,16,13,14,13
18.78,11,5,2,6,2,3,14,7
18.785,4,0,1,10,3,16,78,7
18.79,1,1,1,4,9,18,44,4
18.795,9,8,4,1,9,4,3,5
18.8,6,3,1,0,1,10,34,0
18.805,2,8,6,5,2,11,28,32
18.81,5,2,2,18,36,25,45,54
18.815,8,10,5,10,34,10,22,6
18.82,7,15,6,23,80,33,4,18
18.825,1,9,7,22,32,15,22,46
18.83,12,0,8,2,1,19,4,21
18.835,8,9,4,11,33,30,7,12
18.84,11,25,10,19,30,24,51,18
18.845,14,7,0,3,2,2,27,8
18.85,10,5,1,1,12,2,15,12
18.855,4,3,3,3,9,4,19,20
18.86,25,2,2,4,40,2,62,26
18.865,19,6,2,5,48,1,55,41
18.87,27,5,0,10,15,16,26,27
18.875,19,1,0,0,4,6,2,1
18.88,57,2,2,0,3,7,10,44
18.885,16,3,2,11,39,14,64,26
18.89,6,2,4,5,13,1,57,24
18.895,5,5,1,8,32,20,35,11
18.9,14,1,1,2,0,25,74,14
18.905,49,11,1,4,15,11,45,35
18.91,23,1,5,0,8,5,27,30
18.915,0,3,1,2,7,10,2,3
18.92,11,4,8,7,19,6,62,3
18.925,8,1,8,12,18,0,3,1
18.93,19,2,5,7,23,8,16,7
18.935,3,1,35,23,21,0,18,1
18.94,18,6,51,25,1,13,69,40
18.945,2,4,15,8,0,0,24,4
18.95,2,3,5,16,24,8,1,4
18.955,12,2,2,13,3,1,20,4
18.96,8,5,15,17,8,6,43,10
18.965,4,7,2,25,0,4,22,1
18.97,0,3,28,17,23,10,31,12
18.975,1,10,65,41,6,4,29,4
18.98,17,13,10,88,8,2,5,12
18.985,0,5,40,66,10,0,5,9
18.99,6,2,4,4,11,1,21,2
18.995,1,10,45,28,12,8,16,1
19,11,2,4,21,19,12,85,1
19.005,3,20,37,46,1,7,15,11
19.01,2,6,21,77,14,4,14,7
19.015,2,5,39,1,7,4,11,0
19.02,2,4,35,77,4,1,3,0
19.025,5,1,6,46,12,6,25,7
19.03,7,1,22,109,4,2,7,1
19.035,7,16,19,77,24,7,11,10
19.04,7,22,118,116,28,12,14,10
19.045,0,7,121,4,13,2,20,2
19.05,2,8,7,64,5,8,16,3
19.055,0,6,38,47,14,0,20,7
19.06,6,8,4,59,4,6,23,9
19.065,0,6,127,32,23,3,5,0
19.07,15,37,128,119,39,19,17,18
19.075,7,6,70,100,15,6,10,0
19.08,6,2,36,35,3,5,7,3
19.085,12,24,19,50,3,5,10,8
19.09,0,13,20,106,41,12,3,2
19.095,7,1,47,74,21,1,10,3
19.1,19,33,106,98,46,16,14,5
19.105,3,7,25,80,22,11,4,12
19.11,12,20,62,127,10,6,9,4
19.115,2,5,94,19,9,4,13,3
19.12,3,5,37,60,20,13,79,3
19.125,5,6,8,19,6,2,39,12
19.13,20,7,29,48,7,12,52,27
19.135,2,9,38,10,7,6,9,15
19.14,5,2,18,7,4,5,20,6
19.145,4,0,52,30,8,3,21,13
19.15,14,11,67,24,10,9,17,3
19.155,11,5,41,39,3,6,42,13
19.16,8,8,10,14,2,2,9,1
19.165,11,22,5,4,3,1,12,21
19.17,12,2,14,13,0,5,12,1
19.175,8,1,12,0,10,14,2,21
19.18,10,2,66,68,8,3,4,15
19.185,10,7,28,10,2,2,6,0
19.19,14,3,29,14,3,0,22,3
19.195,0,1,10,25,4,9,66,17
19.2,20,11,24,62,0,8,23,13
19.205,1,6,12,3,12,9,17,4
19.21,3,13,30,4,5,0,8,4
19.215,2,8,8,12,1,0,13,22
19.22,17,90,23,4,2,9,20,28
19.225,22,6,2,5,2,7,42,4
19.23,4,20,5,10,5,2,16,5
19.235,5,2,12,4,1,2,4,9
19.24,14,6,6,3,1,1,6,2
19.245,2,14,5,7,6,3,32,3
19.25,9,5,12,13,9,1,17,12
19.255,4,4,4,6,4,6,16,15
19.26,11,35,17,1,2,2,29,1
19.265,11,9,2,6,2,2,21,1
19.27,14,18,8,9,1,0,4,14
19.275,4,19,20,17,10,2,23,15
19.28,14,3,9,17,12,8,6,24
19.285,10,2,6,10,4,2,18,12
19.29,9,3,18,9,6,1,5,2
19.295,34,26,5,5,2,7,70,12
19.3,33,36,28,28,1,9,76,14
19.305,37,14,1,14,3,4,6,16
19.31,48,56,12,13,11,8,1,75
19.315,5,12,4,2,6,5,3,9
19.32,5,21,6,5,5,3,34,19
19.325,26,23,5,16,11,9,3,3
19.33,7,19,3,8,20,11,13,26
19.335,18,12,4,16,5,7,21,17
19.34,15,1,4,3,6,1,19,16
19.345,2,4,9,0,11,11,11,12
19.35,11,5,9,17,16,7,1,7
19.355,5,9,5,5,5,2,15,16
19.36,13,2,4,4,3,4,4,5
19.365,6,7,8,4,2,1,13,1
19.37,8,12,10,5,2,4,1,8
19.375,11,3,5,10,2,1,29,1
19.38,15,8,7,5,9,7,10,7
19.385,3,7,12,14,3,0,14,4
19.39,8,0,7,1,5,13,84,5
19.395,1,1,5,6,2,3,14,3
19.4,8,4,2,14,4,4,40,28
19.405,6,0,10,7,3,4,13,30
19.41,5,2,3,21,1,1,11,12
19.415,5,8,9,48,3,3,1,6
19.42,3,3,3,4,6,2,7,4
19.425,17,5,6,6,7,5,8,24
19.43,2,8,9,7,6,14,51,23
19.435,29,19,15,5,3,3,6,20
19.44,12,14,9,6,7,4,8,14
19.445,5,5,2,6,10,12,22,9
19.45,16,8,9,4,12,3,45,11
19.455,9,6,3,12,26,11,10,5
19.46,3,9,7,0,1,1,13,9
19.465,10,9,3,5,1,1,15,3
19.47,1,3,5,21,8,3,18,6
19.475,27,25,5,2,10,12,39,19
19.48,12,13,10,6,1,0,13,4
19.485,0,5,7,11,2,4,13,1
19.49,15,5,8,11,3,2,17,3
19.495,9,17,11,19,2,0,6,1
19.5,4,9,31,17,12,5,8,7
19.505,7,10,45,19,8,2,1,0
19.51,9,1,9,11,1,1,2,6
19.515,2,2,6,7,2,2,5,3
19.52,2,7,5,3,13,8,12,7
19.525,2,2,14,6,1,4,3,3
19.53,5,6,1,12,5,9,0,3
19.535,5,6,0,16,28,16,11,9
19.54,5,4,20,22,2,1,1,8
19.545,11,8,38,68,13,9,12,5
19.55,1,5,12,1,6,5,12,1
19.555,1,7,3,29,23,20,15,7
19.56,2,11,6,46,2,4,2,1
19.565,2,4,42,0,17,11,4,2
19.57,5,10,28,77,5,3,0,1
19.575,7,7,7,35,6,2,1,2
19.58,4,11,28,70,19,4,8,1
19.585,11,23,50,40,33,15,14,11
19.59,7,7,29,15,6,3,7,4
19.595,1,6,1,88,17,4,3,0
19.6,1,9,67,104,9,7,2,5
19.605,3,8,71,127,14,6,1,3
19.61,8,10,63,66,1,2,2,0
19.615,2,2,7,55,26,12,0,2
19.62,4,10,55,65,20,4,1,1
19.625,1,0,33,26,4,3,2,2
19.63,7,8,2,59,10,11,1,5
19.635,1,2,8,30,4,5,3,0
19.64,3,3,5,7,1,3,3,1
19.645,1,1,20,20,14,8,1,0
19.65,4,3,1,5,5,3,2,1
19.655,0,8,14,41,15,7,5,4
19.66,3,4,1,26,7,2,1,2
19.665,3,4,1,12,12,5,1,3
19.67,2,1,8,14,10,1,0,0
19.675,1,2,6,6,6,1,1,1
19.68,3,4,20,29,10,9,3,3
19.685,2,1,2,7,11,8,4,1
19.69,1,3,21,29,15,10,5,2
19.695,2,3,13,12,7,3,3,2
19.7,3,6,23,1,0,6,4,2
19.705,0,2,12,56,8,3,2,1
19.71,0,2,37,30,0,2,3,2
19.715,4,3,15,21,12,4,0,1
19.72,2,1,7,3,15,3,0,1
19.725,2,2,2,13,6,3,4,1
19.73,1,1,1,13,19,6,0,1
19.735,2,0,0,11,8,3,0,1
19.74,3,3,3,24,12,6,2,2
19.745,1,0,1,26,1,4,2,0
19.75,3,3,18,46,13,3,2,3
19.755,0,3,6,55,7,4,1,1
19.76,5,7,24,6,18,5,4,4
19.765,0,1,20,19,15,4,0,0
19.77,2,3,5,13,2,4,3,1
19.775,3,3,2,33,4,2,1,3
19.78,1,3,6,9,7,2,1,3
19.785,1,2,6,12,4,2,0,1
19.79,0,2,4,6,9,5,1,1
19.795,2,2,1,4,1,2,5,4
19.8,2,1,3,30,4,3,3,1
19.805,2,2,8,12,0,2,3,2
19.81,1,4,11,12,8,1,0,1
19.815,1,0,4,11,20,6,1,1
19.82,2,2,2,9,9,8,6,1
19.825,0,1,7,7,4,0,1,1
19.83,4,4,18,5,4,4,1,0
19.835,1,2,27,22,12,4,2,3
19.84,1,1,14,8,0,2,3,2
19.845,2,2,5,18,4,1,1,2
19.85,1,2,0,32,0,2,2,0
19.855,1,2,6,14,3,2,1,0
19.86,1,3,8,3,5,1,1,1
19.865,1,1,2,5,2,2,2,1
19.87,1,4,8,7,9,6,4,2
19.875,2,3,6,6,4,6,1,1
19.88,1,2,5,5,12,3,0,3
19.885,0,2,0,0,5,6,1,1
19.89,3,1,1,7,16,2,1,1
19.895,3,2,10,6,3,1,2,0
19.9,0,1,6,10,5,4,3,1
19.905,4,4,0,6,16,6,3,3
19.91,2,5,21,14,10,1,0,1
19.915,3,4,11,10,17,4,3,1
19.92,1,1,12,10,16,7,1,0
19.925,1,2,5,3,0,2,0,1
19.93,0,2,15,3,6,3,2,1
19.935,0,0,5,11,2,7,1,0
19.94,2,3,5,8,12,5,2,3
19.945,2,1,11,15,0,3,2,1
19.95,1,2,6,19,3,0,1,2
19.955,1,0,3,3,5,2,1,3
19.96,1,3,3,7,4,1,1,1
19.965,1,2,3,0,9,2,1,2
19.97,1,1,1,4,9,3,1,1
19.975,0,0,0,12,4,2,2,1
19.98,2,3,14,27,2,0,1,0
19.985,1,2,0,3,4,4,3,2
19.99,10,5,2,2,11,6,4,4
19.995,1,1,1,5,2,1,1,2
20,2,4,2,25,15,8,5,1
20.005,1,1,1,5,17,6,3,0
20.01,1,1,3,17,6,3,0,2
20.015,2,2,3,7,8,1,3,2
20.02,2,2,5,9,16,11,8,2
20.025,1,1,0,11,5,2,1,1
20.03,1,2,4,8,5,2,1,0
20.035,5,1,1,9,1,0,1,2
20.04,5,2,5,3,2,3,0,1
20.045,0,1,0,0,4,1,1,1
20.05,0,3,3,7,2,1,1,0
20.055,2,0,4,2,1,3,1,1
20.06,6,1,2,1,1,2,0,2
20.065,2,1,14,12,8,3,1,0
20.07,1,3,6,6,3,1,1,1
20.075,1,2,3,13,1,2,2,2
20.08,2,0,1,2,2,3,3,1
20.085,1,1,1,4,2,1,1,1
20.09,1,1,3,6,3,2,1,2
20.095,2,2,0,9,4,3,1,1
20.1,3,1,12,26,2,1,1,2
20.105,3,1,0,16,6,0,1,3
20.11,3,0,1,17,13,1,0,0
20.115,3,0,2,1,5,1,1,1
20.12,0,0,1,5,4,1,2,1
20.125,3,0,3,17,8,1,2,2
20.13,2,0,2,9,7,5,1,1
20.135,0,1,0,10,4,1,1,0
20.14,1,2,10,11,4,0,3,0
20.145,0,2,11,9,13,8,5,3
20.15,2,4,4,3,1,8,3,4
20.155,9,4,4,1,5,2,1,0
20.16,1,1,3,8,17,10,3,0
20.165,0,0,4,6,2,2,0,2
20.17,3,4,2,5,2,3,2,0
20.175,5,5,1,10,4,5,3,0
20.18,3,1,6,6,14,5,2,1
20.185,4,5,2,10,4,4,3,2
20.19,1,3,2,6,6,1,0,2
20.195,2,1,2,12,20,12,3,1
20.2,1,2,5,5,1,2,0,3
20.205,3,1,2,12,11,3,1,1
20.21,2,0,3,1,3,3,4,1
20.215,0,4,4,1,8,4,4,1
20.22,0,1,4,6,5,3,1,2
20.225,1,3,8,16,4,1,0,2
20.23,3,3,0,17,2,0,0,2
20.235,2,4,7,18,10,1,1,2
20.24,5,1,8,3,0,4,3,1
20.245,1,2,1,6,5,1,0,1
20.25,3,3,5,2,9,1,1,1
20.255,1,1,4,7,5,2,1,1
20.26,2,1,3,9,5,2,1,0
20.265,2,4,6,38,13,2,0,2
20.27,2,6,4,9,5,2,2,1
20.275,1,0,13,5,1,5,4,3
20.28,3,5,12,20,6,2,3,2
20.285,2,3,3,16,6,2,1,2
20.29,2,2,4,4,3,0,2,1
20.295,3,2,3,8,5,4,1,0
20.3,1,0,8,7,1,2,1,1
20.305,6,5,9,7,1,4,2,1
20.31,0,0,8,7,2,2,1,0
20.315,1,7,20,2,3,2,0,0
20.32,2,3,0,1,1,3,2,0
20.325,2,1,4,4,7,3,2,1
20.33,2,1,8,4,8,2,2,1
20.335,1,1,0,7,1,2,1,1
20.34,7,2,0,4,22,6,24,3
20.345,13,3,7,6,1,4,29,8
20.35,10,2,1,8,10,12,29,12
20.355,9,3,1,7,22,6,3,1
20.36,1,1,2,7,6,4,1,2
20.365,2,0,1,12,21,12,26,7
20.37,1,2,3,1,4,2,11,3
20.375,2,2,5,12,9,7,11,3
20.38,7,9,4,7,9,4,6,2
20.385,0,5,8,8,6,4,1,5
20.39,1,1,1,1,2,3,3,4
20.395,5,2,5,2,1,3,3,6
20.4,3,5,6,2,5,2,9,2
20.405,0,8,8,16,5,2,6,3
20.41,1,6,2,7,4,1,6,3
20.415,3,5,6,11,1,2,7,3
20.42,3,1,10,5,2,4,6,3
20.425,1,6,12,16,3,1,4,8
20.43,4,4,1,15,1,3,6,8
20.435,6,4,4,7,6,2,3,4
20.44,2,1,2,8,7,5,7,1
20.445,7,5,15,8,4,4,1,6
20.45,10,12,13,10,12,1,0,0
20.455,0,1,3,10,4,4,0,1
20.46,2,8,13,4,11,6,3,1
20.465,6,12,3,4,8,4,3,1
20.47,2,0,3,14,16,4,0,1
20.475,12,3,9,2,0,1,1,0
20.48,3,2,7,3,5,3,2,0
20.485,6,0,10,4,13,3,0,0
20.49,1,2,3,3,1,3,4,3
20.495,2,2,4,4,5,1,0,2
20.5,5,7,8,1,0,3,3,0
20.505,4,2,2,32,15,2,1,0
20.51,2,3,3,6,11,2,2,1
20.515,3,9,22,1,2,6,3,2
20.52,5,1,3,20,6,1,2,0
20.525,3,4,0,25,18,0,1,0
20.53,6,5,8,24,14,5,1,1
20.535,1,4,12,6,4,5,1,1
20.54,7,6,2,4,11,3,3,1
20.545,2,4,6,12,6,2,2,2
20.55,3,1,8,6,2,1,1,1
20.555,0,5,3,9,1,0,1,0
20.56,4,3,4,4,3,0,2,1
20.565,8,2,0,7,2,4,2,2
20.57,1,7,6,7,1,0,0,4
20.575,11,4,3,7,2,1,2,4
20.58,0,2,2,23,36,11,4,4
20.585,6,2,5,2,2,3,0,1
20.59,8,2,11,14,63,12,0,2
20.595,10,9,0,6,4,1,3,2
20.6,3,3,4,12,3,3,0,0
20.605,6,0,1,9,17,6,2,1
20.61,3,5,2,6,22,8,2,3
20.615,4,1,5,0,1,3,2,1
20.62,2,1,0,9,3,1,0,2
20.625,1,3,6,9,8,2,2,3
20.63,5,2,2,2,4,3,2,0
20.635,3,3,14,2,2,1,0,0
20.64,2,5,2,2,1,0,1,2
20.645,1,1,5,10,8,1,1,0
20.65,5,3,1,0,7,4,3,2
20.655,0,9,0,15,12,3,3,2
20.66,1,1,6,8,1,2,1,1
20.665,3,1,8,5,10,4,1,2
20.67,1,1,3,3,7,4,1,1
20.675,3,1,2,4,1,4,5,5
20.68,4,1,4,16,6,3,1,3
20.685,10,4,9,5,0,5,4,2
20.69,0,4,19,6,9,2,1,2
20.695,9,3,7,7,1,1,2,1
20.7,15,6,11,11,4,1,2,1
20.705,3,0,5,24,8,1,1,1
20.71,0,1,3,11,5,3,3,2
20.715,1,2,6,8,2,0,1,1
20.72,4,4,16,60,21,6,2,3
20.725,2,2,0,2,5,1,1,0
20.73,7,0,1,16,4,2,1,2
20.735,0,1,5,1,1,2,2,2
20.74,2,5,5,8,6,3,5,4
20.745,1,1,4,5,3,2,1,1
20.75,1,7,4,12,4,1,1,1
20.755,3,4,3,4,6,4,2,0
20.76,1,3,15,14,3,1,1,1
20.765,0,5,6,4,6,3,1,1
20.77,2,10,6,16,9,6,3,4
20.775,0,1,2,13,3,3,2,2
20.78,3,9,5,5,5,1,3,3
20.785,3,4,8,1,3,6,3,0
20.79,8,8,15,4,1,9,8,2
20.795,10,9,21,9,1,15,7,2
20.8,8,1,8,3,3,4,2,0
20.805,12,8,101,18,13,2,5,1
20.81,12,3,88,4,7,7,7,4
20.815,8,10,24,10,2,9,7,2
20.82,1,3,4,1,4,1,1,4
20.825,3,6,46,3,6,1,3,3
20.83,4,2,41,16,6,2,2,3
20.835,1,3,10,17,8,2,2,1
20.84,1,7,5,8,7,2,1,2
20.845,2,2,8,5,2,0,1,3
20.85,3,2,1,1,3,4,4,0
20.855,7,10,16,1,0,2,1,4
20.86,5,3,10,2,3,2,1,0
20.865,3,4,2,13,2,1,4,1
20.87,1,2,11,6,0,1,1,0
20.875,1,2,13,20,8,2,1,3
20.88,5,11,13,3,0,3,1,2
20.885,4,0,7,3,4,3,4,1
20.89,4,5,17,19,4,1,1,0
20.895,4,19,36,49,22,4,2,3
20.9,4,4,2,3,6,0,3,2
20.905,4,2,12,1,5,3,4,1
20.91,2,3,7,5,5,4,2,1
20.915,6,4,10,12,2,1,2,1
20.92,16,4,0,3,2,1,2,1
20.925,2,5,3,0,1,3,2,0
20.93,1,2,10,4,3,1,2,0
20.935,1,3,4,13,7,4,0,1
20.94,1,2,10,16,11,5,3,2
20.945,2,3,3,30,16,2,0,4
20.95,4,4,1,13,1,1,1,1
20.955,1,0,5,5,9,2,2,0
20.96,2,2,2,1,5,5,4,1
20.965,0,0,3,20,17,5,1,1
20.97,2,3,8,18,17,8,2,3
20.975,2,4,5,10,31,7,2,2
20.98,2,2,0,35,48,8,2,1
20.985,4,9,5,11,15,4,0,2
20.99,3,2,3,1,3,1,1,4
20.995,4,9,0,9,9,3,1,5
21,6,4,2,9,23,7,1,4
21.005,3,6,4,1,11,5,2,1
21.01,2,6,5,16,14,7,1,0
21.015,4,7,4,2,6,2,0,2
21.02,1,1,7,12,5,1,1,0
21.025,0,2,9,13,3,2,0,1
21.03,0,1,3,1,7,2,2,2
21.035,1,0,14,14,9,2,1,1
21.04,1,11,2,13,7,0,2,1
21.045,4,4,24,3,7,4,2,1
21.05,1,1,6,9,6,1,2,1
21.055,1,7,4,3,6,1,2,1
21.06,5,7,5,3,8,3,3,0
21.065,3,1,16,2,8,1,0,1
21.07,5,7,3,2,1,0,1,3
21.075,2,2,4,2,4,2,2,1
21.08,2,4,0,4,9,2,2,2
21.085,1,2,1,11,9,4,1,3
21.09,3,7,1,1,0,0,1,0
21.095,3,4,16,4,3,3,0,3
21.1,0,2,12,2,4,3,1,1
21.105,2,0,8,2,2,3,0,2
21.11,3,4,1,10,5,3,3,1
21.115,3,6,2,9,4,2,1,2
21.12,2,1,3,7,5,3,1,1
21.125,2,4,2,27,8,4,3,0
21.13,1,6,12,3,3,1,1,2
21.135,2,5,19,2,1,4,2,1
21.14,6,6,14,3,6,3,0,2
21.145,1,4,21,5,4,4,1,1
21.15,2,4,1,3,1,5,1,0
21.155,1,1,7,2,2,9,1,1
21.16,1,6,0,3,2,17,1,2
21.165,2,1,10,5,3,41,1,0
21.17,0,3,11,4,1,90,1,1
21.175,5,11,5,3,3,121,1,2
21.18,1,1,6,2,2,116,1,1
21.185,1,1,5,2,6,63,2,1
21.19,15,3,5,11,2,39,1,0
21.195,0,2,11,8,1,47,4,4
21.2,3,8,1,4,4,19,1,1
21.205,2,2,3,8,4,70,1,1
21.21,10,2,10,0,0,128,1,1
21.215,11,4,11,5,4,105,3,2
21.22,2,5,3,0,3,17,0,2
21.225,1,0,1,5,4,119,1,1
21.23,1,0,10,5,4,127,1,0
21.235,4,7,1,10,1,56,2,1
21.24,0,2,1,6,5,9,5,1
21.245,1,2,3,5,0,3,1,2
21.25,1,2,5,0,2,6,2,0
21.255,2,2,8,5,1,35,1,1
21.26,8,6,3,9,4,69,2,1
21.265,0,2,1,1,2,77,2,2
21.27,5,6,0,3,2,76,1,1
21.275,2,1,3,3,4,59,0,0
21.28,3,6,3,5,1,50,0,2
21.285,3,0,10,8,4,44,1,1
21.29,1,3,8,2,1,40,3,1
21.295,2,0,9,11,4,29,5,2
21.3,3,6,9,1,1,19,0,1
21.305,0,1,12,3,2,17,2,1
21.31,0,2,8,3,3,21,2,1
21.315,2,3,14,15,0,10,2,1
21.32,2,2,13,13,4,5,3,3
21.325,3,8,12,8,4,9,0,1
21.33,3,0,14,5,7,10,0,0
21.335,2,4,20,5,1,3,1,0
21.34,2,1,29,23,10,1,1,0
21.345,4,7,12,3,0,6,0,2
21.35,3,0,18,1,2,5,1,3
21.355,0,6,12,1,2,1,3,0
21.36,0,11,14,6,2,2,1,4
21.365,2,2,13,1,0,3,1,2
21.37,0,3,11,5,1,3,1,1
21.375,1,4,7,6,5,1,3,3
21.38,4,1,6,11,1,1,1,1
21.385,6,0,7,4,0,100,3,1
21.39,4,8,1,4,2,121,3,4
21.395,1,2,6,0,0,128,0,1
21.4,4,1,0,1,1,105,0,0
21.405,1,0,11,2,2,32,3,1
21.41,3,0,10,1,1,6,3,1
21.415,4,1,6,1,1,33,1,0
21.42,33,12,11,2,2,46,4,4
21.425,4,2,20,2,0,24,1,2
21.43,3,3,8,11,2,104,0,1
21.435,5,4,7,4,1,120,4,1
21.44,2,5,2,13,5,33,1,1
21.445,0,3,1,1,3,58,2,0
21.45,5,2,27,10,5,93,3,2
21.455,0,4,10,3,1,121,3,2
21.46,2,5,14,5,1,108,3,0
21.465,2,1,14,8,2,18,3,0
21.47,2,5,5,10,4,94,2,2
21.475,4,14,11,6,2,128,3,2
21.48,6,2,5,3,1,19,0,0
21.485,0,12,14,4,2,106,2,1
21.49,3,3,1,2,3,104,2,1
21.495,4,2,10,3,1,97,1,0
21.5,4,5,9,3,5,52,1,1
21.505,1,7,8,5,2,85,1,3
21.51,6,2,5,8,3,68,2,1
21.515,6,0,9,10,0,49,2,2
21.52,9,6,9,5,1,18,1,2
21.525,6,5,7,1,1,48,1,0
21.53,2,1,43,4,2,29,3,4
21.535,4,4,12,13,4,28,2,1
21.54,7,1,45,4,4,2,0,2
21.545,9,2,1,2,1,19,0,2
21.55,2,10,24,22,9,40,2,1
21.555,10,3,23,2,2,53,1,1
21.56,10,4,23,5,1,25,1,0
21.565,8,3,22,19,10,31,1,0
21.57,2,15,11,19,4,46,2,2
21.575,3,5,26,4,1,39,1,0
21.58,0,5,16,4,4,5,2,0
21.585,6,3,14,0,4,26,0,0
21.59,5,1,12,7,1,25,0,1
21.595,15,4,11,15,4,14,2,2
21.6,10,1,4,10,3,8,1,1
21.605,12,15,16,0,3,14,4,2
21.61,6,3,4,8,3,4,1,2
21.615,7,1,8,5,1,5,0,1
21.62,7,9,6,4,1,6,1,0
21.625,6,17,13,6,2,3,1,1
21.63,6,2,7,3,1,1,0,1
21.635,9,8,11,6,7,3,4,3
21.64,4,1,12,2,1,2,1,1
21.645,3,2,3,2,2,2,0,1
21.65,1,1,10,3,3,2,3,2
21.655,0,3,0,7,0,9,2,1
21.66,4,13,9,12,5,3,0,1
21.665,6,3,4,3,1,7,7,1
21.67,0,4,8,2,1,2,3,1
21.675,2,3,4,4,2,2,11,5
21.68,6,11,3,3,2,1,0,0
21.685,4,3,13,8,4,1,5,4
21.69,0,5,1,3,0,7,6,1
21.695,2,20,10,8,3,0,2,1
21.7,1,5,7,7,3,1,0,2
21.705,1,7,1,13,6,1,1,0
21.71,0,0,4,3,2,1,6,2
21.715,0,21,13,10,5,4,2,2
21.72,3,7,0,11,5,1,0,2
21.725,2,4,9,5,4,2,1,1
21.73,0,1,4,0,2,1,2,1
21.735,1,1,2,6,3,3,6,0
21.74,2,4,5,1,3,1,1,1
21.745,2,8,3,4,4,2,3,2
21.75,1,4,6,5,3,2,4,2
21.755,11,2,5,5,2,2,2,1
21.76,1,7,1,6,2,0,5,1
21.765,1,1,5,1,1,8,13,7
21.77,0,1,10,2,2,5,2,0
21.775,3,2,2,1,1,0,2,1
21.78,4,5,5,3,1,4,3,2
21.785,2,3,2,2,2,1,6,1
21.79,2,1,0,1,1,2,1,1
21.795,7,7,5,2,3,5,0,2
21.8,5,0,2,2,4,0,10,0
21.805,4,2,2,1,2,4,13,2
21.81,5,3,1,7,3,3,8,5
21.815,2,3,1,1,1,1,3,0
21.82,1,7,1,3,2,5,3,1
21.825,0,5,2,1,1,6,9,2
21.83,0,5,3,9,3,0,1,2
21.835,1,1,3,1,1,1,4,1
21.84,0,2,2,5,5,0,27,2
21.845,3,2,7,0,1,4,109,2
21.85,1,1,12,2,0,0,126,0
21.855,3,1,12,1,1,0,127,2
21.86,5,9,4,5,3,4,93,0
21.865,3,2,2,3,2,2,32,2
21.87,3,1,15,1,1,2,88,2
21.875,6,5,12,2,0,9,128,2
21.88,6,9,3,3,1,20,125,2
21.885,1,2,4,3,2,45,102,2
21.89,1,1,9,1,1,88,93,2
21.895,3,2,10,0,3,123,84,0
21.9,1,2,15,3,2,127,67,3
21.905,1,3,13,0,0,127,51,2
21.91,7,6,49,1,1,102,45,2
21.915,19,7,113,5,1,33,30,0
21.92,32,17,126,9,1,103,26,2
21.925,35,18,127,8,3,128,23,7
21.93,32,14,127,14,2,128,12,2
21.935,18,8,119,7,3,113,107,2
21.94,9,3,78,4,4,106,122,5
21.945,5,12,27,3,6,103,128,1
21.95,22,4,111,2,11,125,16,3
21.955,47,25,128,1,11,119,111,5
21.96,56,27,128,6,11,128,127,8
21.965,52,21,118,16,2,85,127,10
21.97,37,15,119,13,1,55,123,10
21.975,21,6,128,18,5,11,121,10
21.98,5,10,96,4,0,127,122,8
21.985,10,8,2,6,4,98,113,8
21.99,7,7,4,3,4,38,76,3
21.995,15,8,28,5,6,0,60,1
22,15,7,24,1,6,36,44,1
22.005,12,8,16,2,1,29,42,1
22.01,17,10,66,3,3,22,26,3
22.015,13,7,40,4,1,7,15,15
22.02,5,4,4,2,0,15,13,36
22.025,3,1,1,4,3,115,16,48
22.03,0,0,5,1,1,124,100,116
22.035,6,4,34,1,1,29,115,124
22.04,12,3,81,5,1,21,127,127
22.045,19,18,88,8,0,61,127,125
22.05,17,8,86,6,0,82,115,9
22.055,14,5,57,11,2,122,30,75
22.06,6,3,10,8,6,113,83,120
22.065,3,2,58,16,4,74,122,128
22.07,10,7,88,1,5,81,128,107
22.075,13,4,113,2,5,117,128,94
22.08,17,15,121,3,4,128,120,90
22.085,15,7,124,2,7,124,125,77
22.09,9,6,120,4,3,3,128,58
22.095,8,4,110,3,1,52,77,113
22.1,4,4,127,2,2,75,48,118
22.105,5,3,121,4,1,120,2,128
22.11,1,2,99,2,1,121,56,128
22.115,3,1,23,1,2,85,98,70
22.12,2,3,66,0,1,75,127,43
22.125,2,4,82,2,1,58,127,50
22.13,4,3,110,5,6,65,81,57
22.135,7,2,84,3,1,45,22,60
22.14,8,5,96,2,1,23,55,43
22.145,7,5,72,6,2,16,90,21
22.15,4,3,50,9,3,27,100,30
22.155,6,8,5,3,3,18,82,39
22.16,4,3,27,4,4,1,66,66
22.165,1,2,19,2,0,4,62,120
22.17,3,2,25,3,3,22,52,127
22.175,2,1,11,0,0,3,43,127
22.18,3,4,4,4,6,11,41,126
22.185,2,2,12,6,5,1,68,95
22.19,1,2,25,1,1,6,82,58
22.195,3,2,8,2,2,4,85,14
22.2,6,0,8,5,3,7,79,87
22.205,5,3,17,6,1,1,36,117
22.21,5,3,11,2,4,1,30,23
22.215,2,5,4,0,1,4,48,48
22.22,2,2,10,6,1,3,103,102
22.225,10,2,18,1,2,3,122,67
22.23,21,11,34,0,3,104,128,76
22.235,3,8,10,2,3,21,11,127
22.24,1,1,6,4,0,54,114,99
22.245,3,4,9,5,7,44,127,56
22.25,6,2,26,2,2,24,127,99
22.255,2,7,48,1,2,35,112,97
22.26,3,8,85,2,2,3,119,92
22.265,7,7,124,5,2,4,126,45
22.27,5,5,111,4,0,18,111,65
22.275,7,4,43,3,0,0,69,56
22.28,4,2,10,4,1,16,60,30
22.285,6,1,41,4,0,5,52,3
22.29,5,1,37,7,4,20,41,22
22.295,5,3,33,0,1,25,21,32
22.3,3,2,56,2,0,25,17,1
22.305,4,0,36,7,2,25,14,13
22.31,4,2,37,1,1,23,15,11
22.315,2,3,23,3,2,11,44,8
22.32,3,7,9,9,2,3,70,14
22.325,4,3,9,2,0,10,76,21
22.33,4,4,21,1,2,8,73,1
22.335,4,4,49,4,4,5,43,7
22.34,1,6,29,11,5,3,24,13
22.345,3,15,7,6,2,2,21,14
22.35,1,3,39,22,7,4,11,8
22.355,3,1,39,21,2,2,4,3
22.36,5,6,22,5,1,4,11,6
22.365,1,1,20,4,2,2,12,13
22.37,1,1,26,16,4,4,9,5
22.375,3,7,35,1,3,5,17,3
22.38,4,10,39,13,2,8,15,4
22.385,0,2,39,5,3,3,15,11
22.39,4,2,33,2,1,6,8,3
22.395,2,0,41,2,1,3,13,1
22.4,3,2,23,2,0,4,15,5
22.405,3,1,38,1,1,3,5,0
22.41,3,2,34,5,1,5,13,6
22.415,1,4,29,4,0,3,7,0
22.42,1,1,44,3,2,3,11,7
22.425,2,4,33,8,4,4,12,10
22.43,2,3,38,1,1,5,6,9
22.435,2,3,13,4,1,1,10,8
22.44,1,1,9,2,2,2,7,8
22.445,2,5,22,2,2,17,28,1
22.45,2,3,25,1,2,11,14,4
22.455,1,6,17,1,1,20,9,2
22.46,2,2,12,5,3,12,11,3
22.465,1,1,4,3,2,7,4,9
22.47,3,2,11,2,2,0,4,5
22.475,2,4,4,2,1,8,3,5
22.48,5,2,12,0,2,1,23,2
22.485,4,7,39,2,0,2,6,4
22.49,3,5,56,3,2,4,8,2
22.495,0,3,54,2,4,0,6,2
22.5,2,6,71,0,5,0,4,3
22.505,0,1,48,2,2,1,6,3
22.51,1,2,64,1,1,2,4,2
22.515,2,0,67,0,0,1,1,0
22.52,2,0,67,0,2,3,4,1
22.525,0,4,56,3,3,1,8,1
22.53,1,3,66,6,4,3,3,0
22.535,1,0,69,4,0,5,7,2
22.54,2,2,65,1,1,4,6,2
22.545,0,0,60,3,1,0,1,2
22.55,0,10,59,7,4,4,4,1
22.555,1,4,36,0,2,2,6,1
22.56,1,5,56,4,2,1,2,0
22.565,2,2,51,0,4,4,1,1
22.57,1,0,59,2,0,3,3,1
22.575,1,0,66,3,1,5,6,2
22.58,1,1,56,1,2,1,1,1
22.585,1,1,52,1,0,1,2,0
22.59,0,7,37,0,1,3,4,0
22.595,1,2,62,5,3,3,4,2
22.6,0,0,48,2,4,5,1,2
22.605,3,2,46,5,4,4,2,1
22.61,1,4,38,15,6,0,7,3
22.615,1,1,35,6,4,1,7,2
22.62,0,3,34,3,1,2,4,1
22.625,2,1,22,6,1,0,4,2
22.63,3,0,4,10,6,3,4,1
22.635,0,3,14,2,0,1,1,2
22.64,1,1,38,1,2,2,2,2
22.645,1,1,28,2,1,1,1,1
22.65,0,6,29,3,0,1,1,1
22.655,0,3,30,5,1,2,2,0
22.66,0,3,39,2,2,3,2,1
22.665,0,2,39,0,0,1,0,1
22.67,1,1,37,0,1,4,2,2
22.675,1,6,33,4,3,2,2,0
22.68,0,1,47,0,0,0,1,0
22.685,4,0,50,0,1,1,4,1
22.69,1,5,17,0,1,2,3,2
22.695,0,3,11,6,2,1,1,0
22.7,2,3,16,3,0,2,1,0
22.705,2,4,7,2,0,1,0,1
22.71,0,2,14,2,1,1,2,2
22.715,1,3,4,0,1,2,2,1
22.72,1,2,2,2,0,5,2,1
22.725,1,2,1,6,1,4,4,2
22.73,0,2,41,0,0,6,2,0
22.735,2,1,16,0,1,6,2,0
22.74,4,3,2,1,2,6,5,2
22.745,0,3,2,1,1,8,0,1
22.75,3,7,28,4,2,11,0,0
22.755,0,0,34,0,1,18,3,1
22.76,3,1,16,3,0,3,15,0
22.765,1,0,58,2,0,16,103,0
22.77,2,2,9,2,1,26,120,2
22.775,3,3,20,3,3,55,127,2
22.78,0,0,4,4,1,94,127,2
22.785,1,3,25,1,2,72,93,1
22.79,3,5,8,4,1,34,24,0
22.795,1,1,11,4,0,1,90,3
22.8,2,1,3,2,3,14,128,6
22.805,4,5,20,3,1,39,128,8
22.81,2,1,10,4,0,119,110,10
22.815,1,0,4,1,2,127,127,10
22.82,4,2,3,3,2,127,123,9
22.825,5,1,19,9,4,2,128,8
22.83,7,2,8,5,2,82,86,5
22.835,7,2,29,2,1,115,103,6
22.84,6,7,6,2,4,117,111,3
22.845,0,0,29,3,0,98,21,3
22.85,2,6,65,5,1,121,57,0
22.855,4,5,41,6,2,38,127,2
22.86,6,6,46,4,2,17,127,1
22.865,15,9,47,5,1,4,114,1
22.87,13,7,32,8,2,12,95,4
22.875,6,2,0,0,0,95,74,8
22.88,31,16,100,1,9,127,45,16
22.885,48,27,125,11,9,34,96,58
22.89,34,18,100,11,4,60,29,76
22.895,18,4,42,4,2,127,74,79
22.9,4,5,6,3,4,127,127,44
22.905,11,9,20,2,2,107,127,4
22.91,3,3,2,4,1,124,93,71
22.915,5,3,1,1,5,21,12,120
22.92,8,7,29,4,2,72,21,80
22.925,8,4,14,5,5,12,34,13
22.93,14,8,25,2,3,128,67,47
22.935,10,4,36,4,5,69,66,122
22.94,13,10,46,11,6,50,32,76
22.945,7,5,25,8,9,4,48,124
22.95,1,3,0,2,3,65,38,128
22.955,2,1,5,0,1,46,27,128
22.96,9,8,9,1,1,69,5,100
22.965,6,4,17,1,5,79,20,112
22.97,9,4,30,1,16,79,18,127
22.975,7,3,18,2,24,61,18,105
22.98,6,1,5,1,39,21,0,58
22.985,1,2,24,7,64,25,8,92
22.99,2,4,19,3,75,20,8,76
22.995,2,5,7,3,89,12,1,48
23,6,2,15,6,91,24,5,73
23.005,10,4,25,6,66,9,0,73
23.01,15,7,23,11,29,48,13,101
23.015,19,12,20,8,10,48,4,121
23.02,17,0,15,7,48,74,25,128
23.025,24,1,9,2,72,49,3,124
23.03,51,3,3,2,78,26,35,17
23.035,107,1,6,2,82,4,0,59
23.04,123,3,3,2,76,48,47,45
23.045,79,5,10,1,65,52,37,127
23.05,9,7,12,3,55,35,37,128
23.055,75,1,1,2,50,121,25,42
23.06,6,4,2,0,39,86,1,31
23.065,15,3,2,2,28,65,69,63
23.07,62,4,31,2,24,89,101,127
23.075,61,4,10,1,16,128,8,117
23.08,4,0,4,2,9,128,15,50
23.085,72,1,4,0,5,83,14,71
23.09,39,0,5,0,0,41,19,83
23.095,52,3,7,0,3,36,1,105
23.1,101,6,8,3,2,70,18,39
23.105,98,8,3,6,4,50,14,43
23.11,105,6,3,1,5,102,14,75
23.115,81,6,1,1,3,106,16,30
23.12,92,1,9,8,1,90,52,63
23.125,71,6,2,1,1,99,38,1
23.13,25,7,3,4,1,127,25,60
23.135,1,3,7,4,4,54,27,24
23.14,9,0,1,2,2,87,4,21
23.145,51,2,6,2,2,19,20,128
23.15,45,5,8,0,4,126,21,27
23.155,44,6,8,3,8,94,32,6
23.16,33,4,8,1,10,29,17,47
23.165,61,5,12,6,9,105,4,103
23.17,42,1,6,3,10,128,13,4
23.175,4,5,10,1,16,128,44,70
23.18,9,5,9,9,25,128,15,29
23.185,14,6,10,7,31,93,1,8
23.19,7,2,7,7,42,19,15,8
23.195,1,1,15,2,53,57,15,71
23.2,6,1,3,7,73,95,23,28
23.205,18,0,9,3,94,100,33,30
23.21,8,1,5,0,119,83,71,22
23.215,4,1,6,1,127,59,6,12
23.22,17,4,4,7,119,49,27,49
23.225,12,3,2,2,4,64,17,41
23.23,8,4,0,1,67,27,7,34
23.235,7,7,9,12,105,23,8,45
23.24,7,1,0,2,108,11,95,3
23.245,13,2,2,1,84,27,35,46
23.25,8,2,3,5,77,21,13,64
23.255,7,3,2,1,70,30,17,34
23.26,11,4,5,0,60,83,2,10
23.265,3,2,4,6,42,24,27,39
23.27,8,4,0,2,36,40,26,1
23.275,10,6,1,2,22,56,24,20
23.28,0,1,3,3,25,40,15,83
23.285,5,2,4,1,17,44,48,68
23.29,32,9,9,3,25,68,54,121
23.295,14,0,3,12,110,55,13,89
23.3,6,3,1,2,128,102,10,110
23.305,1,3,7,1,128,103,127,108
23.31,3,5,3,11,67,109,128,109
23.315,36,9,10,6,73,128,110,7
23.32,38,7,13,1,109,19,4,70
23.325,18,3,3,1,127,101,40,99
23.33,3,5,6,2,127,56,88,96
23.335,1,6,3,1,114,77,96,112
23.34,0,6,8,1,125,105,55,81
23.345,1,1,10,3,117,58,40,74
23.35,6,4,5,2,91,55,52,36
23.355,8,3,3,4,68,98,35,42
23.36,8,4,5,3,56,72,40,91
23.365,6,3,1,8,35,44,24,100
23.37,2,3,2,5,29,61,33,89
23.375,3,3,1,3,27,49,3,42
23.38,0,0,3,6,5,42,27,27
23.385,0,1,8,1,4,24,1,26
23.39,0,6,3,1,10,5,9,23
23.395,2,3,6,0,39,17,6,7
23.4,3,1,12,2,54,11,6,24
23.405,5,0,14,9,68,19,14,12
23.41,0,2,8,3,69,7,2,8
23.415,6,1,0,7,45,4,11,11
23.42,3,3,1,5,27,7,14,21
23.425,1,4,0,2,24,5,11,62
23.43,3,8,2,2,14,42,8,108
23.435,1,6,2,5,2,70,7,106
23.44,0,3,7,2,4,20,3,107
23.445,0,2,1,7,4,14,1,125
23.45,4,3,4,9,3,3,5,125
23.455,3,2,1,1,12,21,5,84
23.46,16,8,5,3,23,67,22,105
23.465,58,22,21,6,33,108,110,128
23.47,71,31,36,1,23,128,127,128
23.475,60,13,35,30,1,94,127,102
23.48,8,4,15,7,9,91,40,46
23.485,27,9,8,7,8,18,120,3
23.49,109,9,1,2,8,85,128,39
23.495,125,12,10,14,3,106,128,79
23.5,116,26,29,9,3,87,106,104
23.505,105,10,7,8,27,74,128,81
23.51,98,17,13,6,8,127,128,101
23.515,106,2,3,10,40,128,115,78
23.52,119,16,19,3,45,102,82,119
23.525,127,3,2,0,5,42,82,127
23.53,31,20,23,1,28,52,62,71
23.535,88,33,37,8,34,127,55,69
23.54,67,70,55,24,44,127,34,12
23.545,12,49,45,15,2,115,116,10
23.55,127,25,10,12,32,35,123,16
23.555,24,5,18,19,49,24,123,70
23.56,44,42,54,1,95,120,47,78
23.565,110,81,78,16,85,124,123,96
23.57,110,66,67,37,36,109,127,16
23.575,100,51,33,40,1,109,127,8
23.58,104,50,30,25,12,128,112,42
23.585,90,6,4,11,45,55,96,55
23.59,103,16,17,6,27,30,0,10
23.595,119,37,22,11,35,5,54,34
23.6,128,43,27,10,23,13,96,67
23.605,82,41,26,13,12,10,87,7
23.61,34,23,19,20,9,120,109,14
23.615,19,13,16,11,17,116,45,58
23.62,13,12,10,7,10,103,106,14
23.625,28,10,4,12,12,18,120,7
23.63,26,15,11,10,9,86,117,8
23.635,32,3,0,9,22,127,111,59
23.64,39,3,2,6,27,127,56,83
23.645,92,5,6,6,23,124,34,54
23.65,85,15,6,3,58,103,47,9
23.655,96,18,19,2,15,102,124,81
23.66,12,16,1,1,49,94,33,125
23.665,49,22,4,1,98,67,102,56
23.67,60,5,5,2,67,40,48,103
23.675,47,5,2,5,99,31,128,23
23.68,44,1,2,2,128,26,8,25
23.685,23,5,7,2,114,21,104,4
23.69,95,3,1,11,10,11,127,73
23.695,85,6,0,3,113,28,114,123
23.7,11,6,6,6,127,22,127,69
23.705,56,9,5,8,125,77,93,5
23.71,17,0,9,1,120,112,109,64
23.715,113,4,2,3,122,88,102,64
23.72,128,8,5,5,90,87,22,23
23.725,111,1,2,2,77,7,34,118
23.73,92,13,1,7,128,53,13,5
23.735,97,6,6,10,85,87,27,90
23.74,48,11,13,25,116,48,41,127
23.745,41,1,6,4,109,22,15,128
23.75,76,6,1,12,99,15,39,53
23.755,53,0,3,9,126,54,28,50
23.76,86,89,76,1,52,45,17,28
23.765,127,28,27,4,125,7,21,42
23.77,127,6,2,4,127,32,27,51
23.775,53,24,0,2,104,54,2,106
23.78,118,37,25,7,14,37,5,68
23.785,128,1,5,6,64,3,12,70
23.79,80,1,9,13,54,67,13,70
23.795,105,4,7,22,127,57,7,99
23.8,112,11,45,58,87,26,7,75
23.805,96,19,14,4,127,24,10,7
23.81,127,20,9,10,11,52,3,22
23.815,38,24,1,10,123,34,0,94
23.82,97,65,16,54,128,56,6,27
23.825,0,38,26,119,128,52,1,119
23.83,127,10,10,128,128,41,1,26
23.835,80,17,22,128,4,31,0,6
23.84,25,35,23,126,101,48,48,91
23.845,17,37,4,124,48,29,105,42
23.85,90,10,11,82,58,77,27,53
23.855,42,50,3,20,115,107,113,128
23.86,96,58,15,113,46,56,106,84
23.865,88,24,16,127,54,74,119,39
23.87,103,65,7,127,88,128,99,42
23.875,77,39,3,111,17,109,43,6
23.88,91,56,20,127,40,25,105,27
23.885,59,8,10,78,51,39,100,53
23.89,102,14,29,33,99,61,20,82
23.895,9,72,6,119,82,88,26,17
23.9,50,85,20,128,15,33,12,15
23.905,47,62,8,128,34,68,40,58
23.91,99,64,11,114,32,34,7,78
23.915,26,10,26,123,54,67,3,127
23.92,112,61,29,128,26,41,64,7
23.925,46,90,26,128,37,27,7,127
23.93,3,99,35,58,6,48,3,73
23.935,58,73,73,35,28,25,15,36
23.94,23,128,41,78,13,97,54,97
23.945,48,125,57,116,98,41,18,128
23.95,93,13,35,107,4,67,55,127
23.955,25,60,8,84,65,82,27,79
23.96,84,71,31,77,33,3,19,78
23.965,128,70,14,111,127,90,55,6
23.97,40,18,0,127,127,92,63,11
23.975,63,10,8,127,86,2,49,23
23.98,28,55,12,127,103,84,1,86
23.985,37,64,42,122,71,81,37,128
23.99,47,28,2,125,78,56,21,106
23.995,72,31,4,79,103,64,6,19
24,1,56,9,120,96,8,46,3
24.005,29,29,18,128,58,92,51,23
24.01,70,35,103,128,98,34,28,79
24.015,85,36,114,9,127,84,6,24
24.02,77,26,128,18,90,54,5,22
24.025,62,5,9,100,92,116,3,73
24.03,11,20,101,87,4,52,4,5
24.035,87,27,127,91,127,127,15,35
24.04,42,55,127,59,12,4,60,75
24.045,15,86,98,12,32,53,45,123
24.05,16,82,110,29,85,56,29,57
24.055,94,97,125,26,95,76,41,75
24.06,20,115,127,41,91,96,12,51
24.065,114,60,86,3,105,69,30,36
24.07,100,50,38,35,16,10,54,88
24.075,63,23,96,115,38,128,14,86
24.08,60,52,128,25,128,128,7,41
24.085,21,9,128,86,20,31,1,7
24.09,66,96,105,37,8,4,27,0
24.095,83,27,99,120,85,92,11,33
24.1,76,120,88,95,107,12,22,19
24.105,128,104,84,67,89,29,50,14
24.11,23,41,57,87,55,36,3,20
24.115,74,128,45,128,36,75,85,17
24.12,96,59,35,78,97,72,19,17
24.125,99,82,38,88,77,43,9,22
24.13,6,5,25,91,92,72,100,75
24.135,85,93,13,30,73,8,59,99
24.14,87,25,12,13,92,30,37,26
24.145,109,112,89,128,128,92,38,33
24.15,1,17,5,88,26,12,10,26
24.155,79,39,110,124,100,127,1,100
24.16,25,65,116,109,127,16,59,20
24.165,55,34,113,125,114,71,80,123
24.17,71,103,79,69,127,60,127,67
24.175,102,46,77,83,93,60,35,43
24.18,100,124,82,127,127,74,0,18
24.185,96,54,127,47,91,55,51,22
24.19,25,113,69,52,37,128,25,33
24.195,86,76,47,128,24,65,54,27
24.2,127,123,126,87,128,25,16,124
24.205,72,7,128,40,128,16,18,85
24.21,83,4,127,61,25,103,4,59
24.215,9,83,81,95,94,127,5,49
24.22,41,128,84,14,61,100,97,127
24.225,98,97,1,71,84,111,127,87
24.23,39,8,53,127,28,70,82,32
24.235,127,122,2,98,47,61,25,101
24.24,44,13,7,67,8,7,82,128
24.245,3,8,90,75,57,102,105,42
24.25,123,22,18,84,35,125,124,81
24.255,74,102,44,85,32,111,74,45
24.26,63,104,7,56,127,127,32,30
24.265,87,5,88,45,88,46,39,58
24.27,18,3,102,83,61,11,60,5
24.275,22,128,3,71,127,54,16,87
24.28,46,128,128,31,61,1,32,38
24.285,8,103,128,66,7,26,54,0
24.29,115,105,59,123,104,34,46,5
24.295,2,107,101,57,116,22,24,44
24.3,63,1,73,122,47,44,11,13
24.305,26,37,92,128,80,14,47,71
24.31,125,115,55,98,106,24,20,56
24.315,128,34,100,51,19,26,1,61
24.32,27,124,49,35,31,40,59,70
24.325,128,116,4,122,68,14,79,48
24.33,29,125,104,22,43,57,63,35
24.335,44,105,73,102,49,104,61,8
24.34,17,7,0,96,128,128,20,9
24.345,50,21,4,1,105,70,116,7
24.35,51,65,101,30,1,15,99,128
24.355,17,117,127,106,38,59,128,74
24.36,100,106,111,107,127,127,77,76
24.365,93,118,127,127,127,31,58,21
24.37,11,100,95,29,32,112,112,2
24.375,8,41,118,56,86,5,127,4
24.38,19,2,107,92,84,70,77,21
24.385,64,101,97,59,54,99,127,23
24.39,70,123,35,95,59,18,106,22
24.395,83,128,107,127,127,116,115,4
24.4,19,27,88,46,127,119,44,13
24.405,18,117,69,35,128,106,54,37
24.41,70,127,94,127,72,9,84,75
24.415,31,127,113,17,28,12,127,19
24.42,52,99,127,61,61,66,7,38
24.425,34,125,104,31,89,94,63,127
24.43,8,106,30,96,120,101,128,117
24.435,17,22,106,62,6,70,120,125
24.44,70,40,128,35,7,73,65,92
24.445,65,116,128,34,80,128,127,122
24.45,97,128,94,24,13,84,120,128
24.455,114,65,62,128,22,36,29,128
24.46,46,115,83,126,112,93,104,53
24.465,87,82,83,56,96,80,43,7
24.47,83,88,127,44,104,71,128,68
24.475,38,85,14,17,69,93,85,62
24.48,99,27,117,127,128,34,8,59
24.485,45,42,127,107,3,6,75,21
24.49,7,36,74,9,10,5,86,1
24.495,15,96,43,107,58,128,83,20
24.5,52,22,62,96,44,62,59,28
24.505,52,22,43,115,107,10,46,22
24.51,64,37,92,127,54,54,50,24
24.515,90,127,128,20,111,117,60,24
24.52,33,100,33,17,98,32,15,6
24.525,17,61,117,49,53,60,13,18
24.53,1,32,127,108,103,58,32,0
24.535,14,108,13,52,18,80,33,19
24.54,15,128,72,67,55,127,3,26
24.545,0,107,128,128,72,38,3,2
24.55,2,102,18,48,57,0,13,12
24.555,1,50,127,127,128,56,27,1
24.56,0,89,109,127,104,79,50,0
24.565,12,13,94,127,63,42,70,6
24.57,0,65,27,64,67,92,110,14
24.575,24,127,128,91,88,80,128,4
24.58,8,50,40,116,93,107,101,8
24.585,23,128,118,128,27,29,127,4
24.59,1,126,20,121,5,26,113,7
24.595,127,2,117,40,128,128,17,3
24.6,98,118,23,124,74,89,70,5
24.605,7,88,52,95,18,33,78,1
24.61,71,101,63,77,9,32,59,6
24.615,122,78,66,100,88,127,32,2
24.62,106,72,118,68,83,127,58,7
24.625,104,78,86,110,86,122,55,2
24.63,80,76,65,21,57,81,30,7
24.635,80,12,72,76,45,127,3,4
24.64,63,46,72,72,123,79,30,3
24.645,51,42,94,128,87,75,31,0
24.65,39,29,123,13,33,60,13,3
24.655,29,13,128,128,96,58,1,3
24.66,34,22,44,93,27,29,15,1
24.665,27,23,122,80,52,40,1,2
24.67,4,2,36,116,127,8,5,2
24.675,16,7,9,116,60,2,8,4
24.68,15,20,109,120,98,3,7,2
24.685,7,36,127,21,26,26,2,10
24.69,3,50,127,128,97,14,3,51
24.695,5,29,105,52,37,2,6,55
24.7,10,21,48,108,84,16,4,107
24.705,0,20,9,84,110,15,1,67
24.71,0,21,107,75,128,63,5,65
24.715,6,5,16,75,116,116,6,18
