0.005,-3.0,-11.0,4.0,1.0,0.0,-2.0,0.0,1.0,0.18756103515625,-0.0836181640625,-0.0447998046875,0.97760009765625,0.1396484375,0.37744140625,0.93505859375,0.6875,1.8125,0.0625
0.01,-3.0,-5.0,-6.0,-1.0,-1.0,-2.0,-2.0,-1.0,0.1883544921875,-0.08294677734375,-0.04473876953125,0.9775390625,0.1396484375,0.3837890625,0.93359375,4.375,3.125,-0.4375
0.015,0.0,7.0,15.0,2.0,-1.0,-1.0,0.0,0.0,0.1895751953125,-0.08233642578125,-0.044677734375,0.97735595703125,0.14404296875,0.39990234375,0.91650390625,5.375,4.0,-0.9375
0.02,0.0,2.0,3.0,4.0,-3.0,0.0,-3.0,2.0,0.1905517578125,-0.0804443359375,-0.04473876953125,0.977294921875,0.1318359375,0.3671875,0.93017578125,2.875,4.6875,-1.375
0.025,-1.0,17.0,-3.0,-3.0,-2.0,-2.0,-1.0,-1.0,0.1905517578125,-0.0804443359375,-0.04473876953125,0.977294921875,0.1318359375,0.3671875,0.93017578125,2.875,4.6875,-1.375
0.030000000000000002,3.0,2.0,5.0,-2.0,-3.0,-1.0,0.0,0.0,0.19146728515625,-0.07965087890625,-0.04486083984375,0.9771728515625,0.13671875,0.37451171875,0.92041015625,5.75,4.3125,-1.875
0.035,0.0,2.0,1.0,-2.0,1.0,0.0,-1.0,0.0,0.19244384765625,-0.07891845703125,-0.04510498046875,0.97705078125,0.13671875,0.38330078125,0.91796875,5.1875,3.875,-2.625
0.04,0.0,-1.0,-21.0,-4.0,-3.0,-1.0,-1.0,2.0,0.19293212890625,-0.07818603515625,-0.04534912109375,0.97698974609375,0.12890625,0.37646484375,0.9169921875,3.1875,3.5,-2.5625
0.045,0.0,-1.0,-21.0,-4.0,-3.0,-1.0,-1.0,2.0,0.19293212890625,-0.07818603515625,-0.04534912109375,0.97698974609375,0.12890625,0.37646484375,0.9169921875,3.1875,3.5,-2.5625
0.049999999999999996,-2.0,7.0,6.0,0.0,-2.0,0.0,0.0,2.0,0.19293212890625,-0.07818603515625,-0.04534912109375,0.97698974609375,0.12890625,0.37646484375,0.9169921875,3.1875,3.5,-2.5625
0.05499999999999999,-2.0,7.0,6.0,0.0,-2.0,0.0,0.0,2.0,0.19293212890625,-0.07818603515625,-0.04534912109375,0.97698974609375,0.12890625,0.37646484375,0.9169921875,3.1875,3.5,-2.5625
0.05999999999999999,-2.0,3.0,14.0,7.0,0.0,-2.0,0.0,-1.0,0.193603515625,-0.07708740234375,-0.04595947265625,0.9769287109375,0.14111328125,0.37646484375,0.8974609375,1.8125,3.1875,-2.8125
0.06499999999999999,4.0,4.0,-6.0,0.0,-1.0,0.0,-3.0,-1.0,0.19390869140625,-0.0765380859375,-0.0462646484375,0.9769287109375,0.12841796875,0.37841796875,0.90087890625,1.8125,2.625,-2.25
0.06999999999999999,-1.0,11.0,-3.0,0.0,1.0,0.0,-1.0,0.0,0.19390869140625,-0.0765380859375,-0.0462646484375,0.9769287109375,0.12841796875,0.37841796875,0.90087890625,1.8125,2.625,-2.25
0.075,-1.0,-1.0,-5.0,-2.0,-2.0,-1.0,-1.0,-1.0,0.19415283203125,-0.0760498046875,-0.04638671875,0.97686767578125,0.125,0.37060546875,0.908203125,2.0,2.3125,-1.5625
0.08,-3.0,-2.0,12.0,0.0,-1.0,-1.0,-1.0,-2.0,0.19464111328125,-0.07568359375,-0.0465087890625,0.976806640625,0.13037109375,0.3671875,0.89501953125,3.1875,2.125,-1.375
0.085,-1.0,6.0,-3.0,-2.0,0.0,-1.0,-2.0,0.0,0.19464111328125,-0.07568359375,-0.0465087890625,0.976806640625,0.13037109375,0.3671875,0.89501953125,3.1875,2.125,-1.375
0.09000000000000001,-1.0,6.0,-3.0,-2.0,0.0,-1.0,-2.0,0.0,0.19464111328125,-0.07568359375,-0.0465087890625,0.976806640625,0.13037109375,0.3671875,0.89501953125,3.1875,2.125,-1.375
0.09500000000000001,-3.0,0.0,3.0,-1.0,-1.0,-2.0,-2.0,0.0,0.19525146484375,-0.07537841796875,-0.04656982421875,0.9766845703125,0.12744140625,0.38134765625,0.8916015625,3.375,1.9375,-1.25
0.10000000000000002,-3.0,-4.0,-17.0,-6.0,-3.0,0.0,-1.0,-1.0,0.19537353515625,-0.07501220703125,-0.046630859375,0.9766845703125,0.119140625,0.37841796875,0.9111328125,1.375,1.3125,-0.5625
0.10500000000000002,-3.0,-4.0,-17.0,-6.0,-3.0,0.0,-1.0,-1.0,0.19537353515625,-0.07501220703125,-0.046630859375,0.9766845703125,0.119140625,0.37841796875,0.9111328125,1.375,1.3125,-0.5625
0.11000000000000003,-5.0,0.0,1.0,-1.0,-1.0,-1.0,0.0,-2.0,0.195556640625,-0.07476806640625,-0.046630859375,0.9766845703125,0.115234375,0.3740234375,0.9111328125,1.625,0.625,-0.3125
0.11500000000000003,-3.0,-8.0,5.0,-3.0,-2.0,-3.0,-1.0,0.0,0.195556640625,-0.07476806640625,-0.046630859375,0.9766845703125,0.115234375,0.3740234375,0.9111328125,1.625,0.625,-0.3125
0.12000000000000004,-2.0,-2.0,-1.0,-2.0,-1.0,-2.0,-2.0,-2.0,0.19580078125,-0.07476806640625,-0.04669189453125,0.97662353515625,0.12744140625,0.37353515625,0.90234375,2.25,0.0,-0.5
0.12500000000000003,-4.0,-2.0,-4.0,-2.0,-1.0,-2.0,-1.0,-2.0,0.19580078125,-0.07476806640625,-0.04669189453125,0.97662353515625,0.12744140625,0.37353515625,0.90234375,2.25,0.0,-0.5
0.13000000000000003,0.0,-5.0,-4.0,-4.0,-4.0,2.0,-1.0,0.0,0.19622802734375,-0.07470703125,-0.0467529296875,0.9765625,0.12548828125,0.392578125,0.89990234375,1.875,0.1875,-0.5
0.13500000000000004,0.0,-5.0,-4.0,-4.0,-4.0,2.0,-1.0,0.0,0.19622802734375,-0.07470703125,-0.0467529296875,0.9765625,0.12548828125,0.392578125,0.89990234375,1.875,0.1875,-0.5
0.14000000000000004,-1.0,-6.0,-5.0,-3.0,0.0,-3.0,-1.0,0.0,0.19647216796875,-0.07464599609375,-0.0467529296875,0.97650146484375,0.11767578125,0.3916015625,0.90771484375,1.1875,-0.125,-0.0625
0.14500000000000005,-1.0,-6.0,-5.0,-3.0,0.0,-3.0,-1.0,0.0,0.19647216796875,-0.07464599609375,-0.0467529296875,0.97650146484375,0.11767578125,0.3916015625,0.90771484375,1.1875,-0.125,-0.0625
0.15000000000000005,-4.0,-8.0,3.0,0.0,-1.0,0.0,-1.0,-9.0,0.19671630859375,-0.07452392578125,-0.04669189453125,0.97650146484375,0.11474609375,0.3828125,0.9091796875,1.8125,0.0625,0.4375
0.15500000000000005,1.0,0.0,0.0,-1.0,-1.0,-2.0,0.0,1.0,0.197021484375,-0.074462890625,-0.04656982421875,0.9764404296875,0.12890625,0.388671875,0.89794921875,1.5625,0.625,0.4375
0.16000000000000006,1.0,0.0,0.0,-1.0,-1.0,-2.0,0.0,1.0,0.197021484375,-0.074462890625,-0.04656982421875,0.9764404296875,0.12890625,0.388671875,0.89794921875,1.5625,0.625,0.4375
0.16500000000000006,0.0,9.0,-2.0,-3.0,-1.0,-1.0,-2.0,0.0,0.19720458984375,-0.07427978515625,-0.04644775390625,0.97637939453125,0.11474609375,0.3955078125,0.92041015625,0.4375,0.875,0.6875
0.17000000000000007,0.0,9.0,-2.0,-3.0,-1.0,-1.0,-2.0,0.0,0.19720458984375,-0.07427978515625,-0.04644775390625,0.97637939453125,0.11474609375,0.3955078125,0.92041015625,0.4375,0.875,0.6875
0.17500000000000007,1.0,3.0,-8.0,-1.0,-2.0,1.0,-2.0,2.0,0.1973876953125,-0.0740966796875,-0.04632568359375,0.97637939453125,0.11669921875,0.3818359375,0.912109375,1.5625,0.75,0.8125
0.18000000000000008,0.0,0.0,2.0,1.0,-1.0,-1.0,0.0,-3.0,0.19793701171875,-0.073974609375,-0.04620361328125,0.976318359375,0.125,0.38671875,0.91259765625,3.6875,0.625,0.25
0.18500000000000008,-1.0,1.0,-7.0,0.0,1.0,1.0,0.0,2.0,0.19793701171875,-0.073974609375,-0.04620361328125,0.976318359375,0.125,0.38671875,0.91259765625,3.6875,0.625,0.25
0.19000000000000009,-2.0,-5.0,-7.0,-5.0,-2.0,0.0,-1.0,-2.0,0.198486328125,-0.073974609375,-0.046142578125,0.9761962890625,0.12939453125,0.40673828125,0.904296875,2.125,0.625,-0.0625
0.1950000000000001,1.0,0.0,-5.0,0.0,-1.0,0.0,1.0,1.0,0.1986083984375,-0.07373046875,-0.04608154296875,0.9761962890625,0.11669921875,0.39013671875,0.91552734375,0.875,0.0,0.125
0.2000000000000001,1.0,0.0,-5.0,0.0,-1.0,0.0,1.0,1.0,0.1986083984375,-0.07373046875,-0.04608154296875,0.9761962890625,0.11669921875,0.39013671875,0.91552734375,0.875,0.0,0.125
0.2050000000000001,-2.0,-10.0,0.0,0.0,0.0,0.0,-2.0,-2.0,0.19879150390625,-0.0736083984375,-0.04608154296875,0.97613525390625,0.11865234375,0.3896484375,0.90771484375,1.4375,0.375,-0.125
0.2100000000000001,-2.0,-10.0,0.0,0.0,0.0,0.0,-2.0,-2.0,0.19879150390625,-0.0736083984375,-0.04608154296875,0.97613525390625,0.11865234375,0.3896484375,0.90771484375,1.4375,0.375,-0.125
0.2150000000000001,-3.0,1.0,2.0,-1.0,-2.0,-1.0,-2.0,0.0,0.19927978515625,-0.0736083984375,-0.04608154296875,0.97607421875,0.13037109375,0.39794921875,0.9091796875,2.5,0.4375,-0.5
0.2200000000000001,-1.0,-16.0,-13.0,2.0,1.0,-1.0,1.0,-1.0,0.1995849609375,-0.07342529296875,-0.046142578125,0.97601318359375,0.1171875,0.3974609375,0.91943359375,1.8125,0.3125,-0.3125
0.22500000000000012,1.0,-7.0,-1.0,-2.0,-1.0,0.0,-2.0,-3.0,0.19970703125,-0.0733642578125,-0.04620361328125,0.9759521484375,0.12158203125,0.39306640625,0.90625,1.0625,0.375,-0.5625
0.23000000000000012,-2.0,-5.0,-5.0,0.0,0.0,-2.0,0.0,-2.0,0.19970703125,-0.0733642578125,-0.04620361328125,0.9759521484375,0.12158203125,0.39306640625,0.90625,1.0625,0.375,-0.5625
0.23500000000000013,-1.0,-4.0,0.0,-1.0,-1.0,-2.0,-1.0,0.0,0.19970703125,-0.0733642578125,-0.04620361328125,0.9759521484375,0.12158203125,0.39306640625,0.90625,1.0625,0.375,-0.5625
0.24000000000000013,0.0,2.0,4.0,0.0,-2.0,-1.0,-2.0,1.0,0.199951171875,-0.0732421875,-0.0462646484375,0.9759521484375,0.13037109375,0.3896484375,0.89501953125,1.0625,1.125,-1.0
0.24500000000000013,-1.0,8.0,-2.0,-2.0,-1.0,-1.0,0.0,-1.0,0.2001953125,-0.07293701171875,-0.04638671875,0.97589111328125,0.11962890625,0.39306640625,0.91455078125,2.0,1.1875,-0.875
0.2500000000000001,-1.0,8.0,-2.0,-2.0,-1.0,-1.0,0.0,-1.0,0.2001953125,-0.07293701171875,-0.04638671875,0.97589111328125,0.11962890625,0.39306640625,0.91455078125,2.0,1.1875,-0.875
0.2550000000000001,-2.0,3.0,-4.0,-4.0,-5.0,-2.0,-3.0,-3.0,0.20086669921875,-0.07281494140625,-0.04638671875,0.97576904296875,0.11669921875,0.39306640625,0.9208984375,4.3125,0.25,-0.4375
0.2600000000000001,0.0,-12.0,1.0,-2.0,0.0,0.0,-1.0,-3.0,0.20123291015625,-0.07281494140625,-0.04638671875,0.9757080078125,0.1240234375,0.39111328125,0.91162109375,2.6875,0.0625,-0.5
0.2650000000000001,-4.0,-11.0,10.0,3.0,0.0,-1.0,-3.0,-11.0,0.2015380859375,-0.07281494140625,-0.0465087890625,0.97564697265625,0.13037109375,0.3935546875,0.8984375,1.875,0.3125,-0.8125
0.27000000000000013,-2.0,-14.0,4.0,0.0,1.0,-1.0,-1.0,-2.0,0.20196533203125,-0.07281494140625,-0.046630859375,0.97552490234375,0.1259765625,0.40576171875,0.90625,2.1875,0.3125,-1.25
0.27500000000000013,0.0,-5.0,12.0,-1.0,0.0,0.0,0.0,3.0,0.20196533203125,-0.07281494140625,-0.046630859375,0.97552490234375,0.12939453125,0.4033203125,0.91748046875,0.4375,0.3125,-1.0
0.28000000000000014,0.0,-5.0,12.0,-1.0,0.0,0.0,0.0,3.0,0.20196533203125,-0.07281494140625,-0.046630859375,0.97552490234375,0.12939453125,0.4033203125,0.91748046875,0.4375,0.3125,-1.0
0.28500000000000014,0.0,-11.0,-2.0,-7.0,-3.0,-3.0,-1.0,3.0,0.20196533203125,-0.07281494140625,-0.046630859375,0.97552490234375,0.12939453125,0.4033203125,0.91748046875,0.4375,0.3125,-1.0
0.29000000000000015,3.0,16.0,2.0,-1.0,-2.0,0.0,0.0,1.0,0.201904296875,-0.07281494140625,-0.046630859375,0.97552490234375,0.125,0.38671875,0.91796875,0.75,0.25,-0.875
0.29500000000000015,-2.0,1.0,-11.0,-1.0,-1.0,-3.0,-1.0,0.0,0.201904296875,-0.07281494140625,-0.046630859375,0.97552490234375,0.125,0.38671875,0.91796875,0.75,0.25,-0.875
0.30000000000000016,-1.0,-2.0,-2.0,-2.0,0.0,0.0,-1.0,-1.0,0.20233154296875,-0.07269287109375,-0.04681396484375,0.9754638671875,0.12646484375,0.4072265625,0.908203125,1.875,0.625,-1.4375
0.30500000000000016,-2.0,3.0,1.0,0.0,-2.0,-1.0,-1.0,-1.0,0.20233154296875,-0.07269287109375,-0.04681396484375,0.9754638671875,0.12646484375,0.4072265625,0.908203125,1.875,0.625,-1.4375
0.31000000000000016,-2.0,3.0,1.0,0.0,-2.0,-1.0,-1.0,-1.0,0.2025146484375,-0.072509765625,-0.04693603515625,0.97540283203125,0.1279296875,0.408203125,0.908203125,0.5,1.25,-1.125
0.31500000000000017,0.0,2.0,-4.0,-3.0,-1.0,1.0,-1.0,1.0,0.2025146484375,-0.072509765625,-0.04693603515625,0.97540283203125,0.1279296875,0.408203125,0.908203125,0.5,1.25,-1.125
0.3200000000000002,0.0,-6.0,-7.0,1.0,1.0,-2.0,-2.0,-3.0,0.2025146484375,-0.072021484375,-0.04705810546875,0.9754638671875,0.10498046875,0.40283203125,0.91748046875,0.0,1.5625,-0.625
0.3250000000000002,0.0,-6.0,-7.0,1.0,1.0,-2.0,-2.0,-3.0,0.2025146484375,-0.072021484375,-0.04705810546875,0.9754638671875,0.10498046875,0.40283203125,0.91748046875,0.0,1.5625,-0.625
0.3300000000000002,1.0,-4.0,3.0,1.0,-2.0,-1.0,-2.0,0.0,0.2027587890625,-0.07159423828125,-0.04705810546875,0.9754638671875,0.115234375,0.39697265625,0.91015625,1.5,2.0,-0.75
0.3350000000000002,-4.0,-9.0,-7.0,-2.0,-1.0,-1.0,-1.0,0.0,0.2027587890625,-0.07159423828125,-0.04705810546875,0.9754638671875,0.115234375,0.39697265625,0.91015625,1.5,2.0,-0.75
0.3400000000000002,-2.0,-6.0,1.0,4.0,0.0,-1.0,-2.0,0.0,0.2032470703125,-0.071044921875,-0.047119140625,0.97540283203125,0.11328125,0.40771484375,0.904296875,2.25,2.5625,-0.875
0.3450000000000002,-4.0,-11.0,4.0,-2.0,-1.0,-1.0,-1.0,-2.0,0.2034912109375,-0.07049560546875,-0.04718017578125,0.975341796875,0.11181640625,0.4013671875,0.91015625,1.625,2.8125,-0.9375
0.3500000000000002,-3.0,2.0,-1.0,-4.0,-4.0,0.0,0.0,2.0,0.2034912109375,-0.07049560546875,-0.04718017578125,0.975341796875,0.11181640625,0.4013671875,0.91015625,1.625,2.8125,-0.9375
0.3550000000000002,-3.0,2.0,-1.0,-4.0,-4.0,0.0,0.0,2.0,0.2034912109375,-0.07049560546875,-0.04718017578125,0.975341796875,0.11181640625,0.4013671875,0.91015625,1.625,2.8125,-0.9375
0.3600000000000002,1.0,1.0,-1.0,2.0,-1.0,-1.0,0.0,-1.0,0.20379638671875,-0.06988525390625,-0.04718017578125,0.975341796875,0.10498046875,0.39892578125,0.91845703125,1.875,2.3125,-0.8125
0.3650000000000002,1.0,1.0,-1.0,2.0,-1.0,-1.0,0.0,-1.0,0.20416259765625,-0.06951904296875,-0.04730224609375,0.97528076171875,0.11328125,0.40234375,0.91357421875,2.3125,1.6875,-1.0
0.3700000000000002,-1.0,1.0,7.0,-1.0,-1.0,-2.0,-1.0,-3.0,0.20416259765625,-0.06951904296875,-0.04730224609375,0.97528076171875,0.11328125,0.40234375,0.91357421875,2.3125,1.6875,-1.0
0.3750000000000002,-1.0,1.0,7.0,-1.0,-1.0,-2.0,-1.0,-3.0,0.20416259765625,-0.06951904296875,-0.04730224609375,0.97528076171875,0.11328125,0.40234375,0.91357421875,2.3125,1.6875,-1.0
0.3800000000000002,1.0,10.0,-7.0,-5.0,-1.0,0.0,-1.0,-2.0,0.2044677734375,-0.0692138671875,-0.04742431640625,0.9752197265625,0.111328125,0.40625,0.89892578125,1.4375,1.6875,-1.1875
0.38500000000000023,-2.0,0.0,-6.0,-1.0,0.0,-2.0,-1.0,0.0,0.20458984375,-0.06884765625,-0.04754638671875,0.9752197265625,0.111328125,0.4013671875,0.90087890625,0.6875,1.5,-1.0
0.39000000000000024,-2.0,0.0,-6.0,-1.0,0.0,-2.0,-1.0,0.0,0.2047119140625,-0.06854248046875,-0.047607421875,0.9752197265625,0.10888671875,0.3896484375,0.9013671875,1.25,1.3125,-0.75
0.39500000000000024,0.0,-4.0,-8.0,-1.0,-1.0,1.0,-1.0,1.0,0.2047119140625,-0.06854248046875,-0.047607421875,0.9752197265625,0.10888671875,0.3896484375,0.9013671875,1.25,1.3125,-0.75
0.40000000000000024,0.0,3.0,0.0,-2.0,-2.0,-1.0,-2.0,-3.0,0.20501708984375,-0.06842041015625,-0.04766845703125,0.97515869140625,0.1142578125,0.39599609375,0.896484375,1.9375,0.9375,-0.8125
0.40500000000000025,-1.0,-2.0,-3.0,-1.0,-2.0,-1.0,-1.0,-1.0,0.20526123046875,-0.0682373046875,-0.0477294921875,0.97509765625,0.1123046875,0.40087890625,0.89404296875,1.4375,0.875,-0.75
0.41000000000000025,0.0,2.0,-2.0,0.0,-3.0,-5.0,-3.0,-2.0,0.20538330078125,-0.068115234375,-0.04779052734375,0.97509765625,0.10791015625,0.39892578125,0.9072265625,1.3125,0.3125,-0.5
0.41500000000000026,-1.0,3.0,-21.0,-7.0,-4.0,-2.0,-4.0,-1.0,0.20538330078125,-0.068115234375,-0.04779052734375,0.97509765625,0.10791015625,0.39892578125,0.9072265625,1.3125,0.3125,-0.5
0.42000000000000026,0.0,-4.0,8.0,3.0,1.0,1.0,-1.0,0.0,0.20556640625,-0.06793212890625,-0.04791259765625,0.97509765625,0.10009765625,0.3935546875,0.90185546875,1.5,0.0625,-0.75
0.42500000000000027,-3.0,-5.0,11.0,-5.0,-4.0,-1.0,0.0,-7.0,0.20556640625,-0.06793212890625,-0.04791259765625,0.97509765625,0.10009765625,0.3935546875,0.90185546875,1.5,0.0625,-0.75
0.43000000000000027,0.0,8.0,-2.0,0.0,0.0,-1.0,1.0,2.0,0.20562744140625,-0.06787109375,-0.04803466796875,0.97503662109375,0.109375,0.3935546875,0.89990234375,1.125,-0.0625,-1.0
0.4350000000000003,0.0,-3.0,1.0,1.0,-1.0,-2.0,-2.0,-1.0,0.205810546875,-0.06787109375,-0.04827880859375,0.97503662109375,0.1083984375,0.40478515625,0.90380859375,1.0,-0.375,-1.25
0.4400000000000003,-2.0,-5.0,-14.0,-3.0,1.0,-1.0,-1.0,-2.0,0.205810546875,-0.06787109375,-0.04827880859375,0.97503662109375,0.1083984375,0.40478515625,0.90380859375,1.0,-0.375,-1.25
0.4450000000000003,-2.0,-5.0,-14.0,-3.0,1.0,-1.0,-1.0,-2.0,0.205810546875,-0.06787109375,-0.04827880859375,0.97503662109375,0.10888671875,0.4013671875,0.904296875,0.375,-0.8125,-1.0
0.4500000000000003,-3.0,-3.0,-12.0,-4.0,-3.0,-2.0,-1.0,-1.0,0.205810546875,-0.06787109375,-0.04827880859375,0.97503662109375,0.10888671875,0.4013671875,0.904296875,0.375,-0.8125,-1.0
0.4550000000000003,-3.0,-7.0,10.0,2.0,-2.0,-2.0,-2.0,5.0,0.20556640625,-0.06793212890625,-0.0484619140625,0.97503662109375,0.10498046875,0.396484375,0.9052734375,-0.6875,-1.125,-0.9375
0.4600000000000003,1.0,-4.0,-4.0,-7.0,-1.0,-1.0,-1.0,3.0,0.20526123046875,-0.06793212890625,-0.0487060546875,0.97509765625,0.1064453125,0.39501953125,0.9052734375,-1.0625,-1.0,-0.9375
0.4650000000000003,0.0,5.0,-8.0,-3.0,1.0,-1.0,-1.0,-3.0,0.20526123046875,-0.06793212890625,-0.0487060546875,0.97509765625,0.1064453125,0.39501953125,0.9052734375,-1.0625,-1.0,-0.9375
0.4700000000000003,-2.0,-6.0,0.0,1.0,1.0,-1.0,-1.0,1.0,0.20526123046875,-0.06793212890625,-0.0487060546875,0.97509765625,0.1064453125,0.39501953125,0.9052734375,-1.0625,-1.0,-0.9375
0.4750000000000003,-2.0,-6.0,0.0,1.0,1.0,-1.0,-1.0,1.0,0.20526123046875,-0.06793212890625,-0.0487060546875,0.97509765625,0.10693359375,0.39697265625,0.90771484375,-0.25,-0.875,-0.875
0.4800000000000003,-2.0,8.0,10.0,3.0,0.0,-1.0,-2.0,-1.0,0.20526123046875,-0.06793212890625,-0.0487060546875,0.97509765625,0.10693359375,0.39697265625,0.90771484375,-0.25,-0.875,-0.875
0.4850000000000003,2.0,-5.0,-30.0,-6.0,-1.0,0.0,-1.0,-1.0,0.20526123046875,-0.06793212890625,-0.0487060546875,0.97509765625,0.10693359375,0.4033203125,0.9140625,0.25,-0.875,-0.25
0.4900000000000003,0.0,-14.0,2.0,-1.0,0.0,0.0,-1.0,-1.0,0.20526123046875,-0.06793212890625,-0.0487060546875,0.97509765625,0.10693359375,0.4033203125,0.9140625,0.25,-0.875,-0.25
0.49500000000000033,0.0,-14.0,2.0,-1.0,0.0,0.0,-1.0,-1.0,0.2052001953125,-0.06793212890625,-0.0487060546875,0.97509765625,0.11181640625,0.3994140625,0.908203125,0.25,-0.875,0.125
0.5000000000000003,-2.0,-7.0,11.0,4.0,0.0,0.0,-1.0,-2.0,0.2052001953125,-0.06793212890625,-0.0487060546875,0.97509765625,0.11181640625,0.3994140625,0.908203125,0.25,-0.875,0.125
0.5050000000000003,-2.0,-7.0,11.0,4.0,0.0,0.0,-1.0,-2.0,0.2052001953125,-0.06793212890625,-0.0487060546875,0.97509765625,0.11181640625,0.3994140625,0.908203125,0.25,-0.875,0.125
0.5100000000000003,2.0,4.0,2.0,0.0,-1.0,0.0,-1.0,-3.0,0.2052001953125,-0.06793212890625,-0.0487060546875,0.97509765625,0.115234375,0.40185546875,0.89453125,-0.5625,-0.5,0.1875
0.5150000000000003,-2.0,6.0,8.0,-3.0,-1.0,-2.0,0.0,0.0,0.20501708984375,-0.06793212890625,-0.04864501953125,0.97515869140625,0.11181640625,0.40625,0.9052734375,-1.125,0.0625,0.4375
0.5200000000000004,2.0,9.0,-5.0,-2.0,-3.0,-1.0,-1.0,-2.0,0.20458984375,-0.06781005859375,-0.0484619140625,0.97528076171875,0.10546875,0.39501953125,0.91748046875,-1.5,0.25,0.875
0.5250000000000004,2.0,9.0,-5.0,-2.0,-3.0,-1.0,-1.0,-2.0,0.20458984375,-0.06781005859375,-0.0484619140625,0.97528076171875,0.10546875,0.39501953125,0.91748046875,-1.5,0.25,0.875
0.5300000000000004,2.0,3.0,-8.0,-3.0,-1.0,-1.0,-1.0,1.0,0.20458984375,-0.06781005859375,-0.0484619140625,0.97528076171875,0.10546875,0.39501953125,0.91748046875,-1.5,0.25,0.875
0.5350000000000004,-7.0,-2.0,-2.0,-2.0,0.0,-1.0,-1.0,-2.0,0.20452880859375,-0.0677490234375,-0.0484619140625,0.97528076171875,0.107421875,0.38671875,0.9169921875,-0.0625,-0.25,0.9375
0.5400000000000004,-1.0,3.0,-7.0,-2.0,0.0,-2.0,-1.0,1.0,0.20452880859375,-0.0677490234375,-0.0484619140625,0.97528076171875,0.11279296875,0.40625,0.904296875,0.375,-0.25,0.5
0.5450000000000004,-2.0,6.0,6.0,-1.0,-2.0,-1.0,-2.0,-1.0,0.2041015625,-0.0677490234375,-0.0484619140625,0.975341796875,0.11083984375,0.40478515625,0.919921875,-2.1875,-0.1875,0.4375
0.5500000000000004,0.0,10.0,-8.0,-3.0,-3.0,-2.0,-2.0,-3.0,0.20404052734375,-0.0677490234375,-0.0484619140625,0.97540283203125,0.107421875,0.3896484375,0.91455078125,-0.5625,-0.5,0.75
0.5550000000000004,-3.0,-9.0,-4.0,-1.0,-1.0,-2.0,-1.0,-5.0,0.20404052734375,-0.0677490234375,-0.0484619140625,0.97540283203125,0.107421875,0.3896484375,0.91455078125,-0.5625,-0.5,0.75
0.5600000000000004,-3.0,-9.0,-4.0,-1.0,-1.0,-2.0,-1.0,-5.0,0.20404052734375,-0.0677490234375,-0.0484619140625,0.97540283203125,0.107421875,0.3896484375,0.91455078125,-0.5625,-0.5,0.75
0.5650000000000004,-4.0,0.0,-6.0,-2.0,-3.0,-3.0,-1.0,0.0,0.20404052734375,-0.0677490234375,-0.0484619140625,0.97540283203125,0.11328125,0.39306640625,0.90771484375,0.5625,-0.5,0.5625
0.5700000000000004,-2.0,-2.0,-7.0,0.0,1.0,-2.0,0.0,-2.0,0.20404052734375,-0.0677490234375,-0.0484619140625,0.97540283203125,0.11865234375,0.40234375,0.90234375,0.1875,-0.25,0.5
0.5750000000000004,2.0,-9.0,1.0,2.0,-1.0,1.0,0.0,0.0,0.20404052734375,-0.0677490234375,-0.0484619140625,0.97540283203125,0.11181640625,0.40625,0.90966796875,-0.0625,0.0625,0.5
0.5800000000000004,0.0,3.0,10.0,2.0,-1.0,0.0,-1.0,-8.0,0.20404052734375,-0.0677490234375,-0.0484619140625,0.97540283203125,0.11181640625,0.40625,0.90966796875,-0.0625,0.0625,0.5
0.5850000000000004,-8.0,-4.0,-3.0,1.0,-2.0,-3.0,-5.0,-4.0,0.2039794921875,-0.0677490234375,-0.0484619140625,0.97540283203125,0.11669921875,0.3955078125,0.91357421875,0.0625,-0.0625,0.3125
0.5900000000000004,-3.0,-11.0,-10.0,-3.0,-2.0,-2.0,-1.0,7.0,0.20416259765625,-0.06768798828125,-0.04833984375,0.975341796875,0.1064453125,0.40625,0.91748046875,1.125,0.0625,0.4375
0.5950000000000004,1.0,-17.0,8.0,0.0,-2.0,0.0,2.0,1.0,0.20416259765625,-0.06768798828125,-0.04833984375,0.975341796875,0.1064453125,0.40625,0.91748046875,1.125,0.0625,0.4375
0.6000000000000004,-2.0,-5.0,3.0,-1.0,-2.0,-1.0,0.0,-1.0,0.2041015625,-0.06768798828125,-0.04833984375,0.97540283203125,0.10595703125,0.39404296875,0.91650390625,0.5625,0.125,0.75
0.6050000000000004,7.0,-3.0,16.0,1.0,2.0,0.0,-1.0,3.0,0.2041015625,-0.06768798828125,-0.04833984375,0.97540283203125,0.11279296875,0.39697265625,0.91357421875,0.75,0.25,0.25
0.6100000000000004,7.0,-3.0,-19.0,-6.0,-1.0,-1.0,0.0,5.0,0.20404052734375,-0.06768798828125,-0.04833984375,0.97540283203125,0.1123046875,0.40234375,0.9111328125,0.1875,0.75,0.1875
0.6150000000000004,-7.0,10.0,1.0,-2.0,-2.0,0.0,-1.0,-3.0,0.20404052734375,-0.06768798828125,-0.04833984375,0.97540283203125,0.1123046875,0.40234375,0.9111328125,0.1875,0.75,0.1875
0.6200000000000004,-7.0,10.0,1.0,-2.0,-2.0,0.0,-1.0,-3.0,0.20404052734375,-0.067626953125,-0.04833984375,0.97540283203125,0.10986328125,0.40576171875,0.9052734375,0.375,0.75,0.125
0.6250000000000004,4.0,2.0,-1.0,-1.0,-1.0,-1.0,2.0,8.0,0.20404052734375,-0.067626953125,-0.04833984375,0.97540283203125,0.10595703125,0.396484375,0.91259765625,0.5,0.8125,0.1875
0.6300000000000004,1.0,-7.0,-2.0,-2.0,0.0,-1.0,1.0,1.0,0.20404052734375,-0.067626953125,-0.04833984375,0.97540283203125,0.10595703125,0.396484375,0.91259765625,0.5,0.8125,0.1875
0.6350000000000005,-9.0,4.0,-9.0,-2.0,-2.0,-1.0,-3.0,-19.0,0.2042236328125,-0.0675048828125,-0.04827880859375,0.975341796875,0.11865234375,0.39501953125,0.9033203125,1.4375,1.3125,0.125
0.6400000000000005,-9.0,4.0,-9.0,-2.0,-2.0,-1.0,-3.0,-19.0,0.2042236328125,-0.0675048828125,-0.04827880859375,0.975341796875,0.11865234375,0.39501953125,0.9033203125,1.4375,1.3125,0.125
0.6450000000000005,3.0,11.0,-12.0,-6.0,-4.0,-1.0,1.0,6.0,0.20452880859375,-0.06732177734375,-0.048095703125,0.975341796875,0.11181640625,0.39990234375,0.91015625,2.125,1.375,0.375
0.6500000000000005,6.0,-3.0,1.0,2.0,-1.0,1.0,0.0,-3.0,0.20452880859375,-0.06732177734375,-0.048095703125,0.975341796875,0.11181640625,0.39990234375,0.91015625,2.125,1.375,0.375
0.6550000000000005,6.0,-3.0,1.0,2.0,-1.0,1.0,0.0,-3.0,0.20489501953125,-0.067138671875,-0.04791259765625,0.97528076171875,0.11181640625,0.40673828125,0.912109375,2.375,1.3125,0.75
0.6600000000000005,-1.0,3.0,-2.0,-4.0,-3.0,-3.0,-1.0,-1.0,0.20489501953125,-0.067138671875,-0.04791259765625,0.97528076171875,0.11181640625,0.40673828125,0.912109375,2.375,1.3125,0.75
0.6650000000000005,-19.0,0.0,-31.0,-7.0,-2.0,-3.0,-5.0,-12.0,0.2052001953125,-0.06695556640625,-0.0477294921875,0.9752197265625,0.1123046875,0.39892578125,0.90283203125,1.875,1.3125,0.625
0.6700000000000005,0.0,-5.0,12.0,3.0,1.0,-1.0,-1.0,-1.0,0.2052001953125,-0.06695556640625,-0.0477294921875,0.9752197265625,0.1123046875,0.39892578125,0.90283203125,1.875,1.3125,0.625
0.6750000000000005,-1.0,7.0,-4.0,-5.0,-3.0,-1.0,0.0,-2.0,0.20574951171875,-0.0665283203125,-0.04742431640625,0.97515869140625,0.1064453125,0.4072265625,0.90625,1.5625,1.375,0.375
0.6800000000000005,4.0,-4.0,-27.0,-7.0,-1.0,-1.0,0.0,6.0,0.20574951171875,-0.0665283203125,-0.04742431640625,0.97515869140625,0.1064453125,0.4072265625,0.90625,1.5625,1.375,0.375
0.6850000000000005,5.0,29.0,8.0,2.0,0.0,-2.0,0.0,3.0,0.2060546875,-0.0662841796875,-0.04718017578125,0.97509765625,0.1025390625,0.39892578125,0.9072265625,2.5,1.3125,1.0
0.6900000000000005,-2.0,-11.0,4.0,1.0,0.0,-2.0,0.0,-5.0,0.20697021484375,-0.06591796875,-0.0467529296875,0.9749755859375,0.10400390625,0.384765625,0.91455078125,6.9375,2.25,1.5
0.6950000000000005,7.0,11.0,-10.0,-2.0,-3.0,-1.0,-1.0,4.0,0.20697021484375,-0.06591796875,-0.0467529296875,0.9749755859375,0.10400390625,0.384765625,0.91455078125,6.9375,2.25,1.5
0.7000000000000005,7.0,11.0,-10.0,-2.0,-3.0,-1.0,-1.0,4.0,0.2083740234375,-0.065673828125,-0.04644775390625,0.97467041015625,0.10498046875,0.400390625,0.89208984375,8.75,1.875,0.875
0.7050000000000005,3.0,-12.0,30.0,6.0,-1.0,1.0,1.0,-9.0,0.2083740234375,-0.065673828125,-0.04644775390625,0.97467041015625,0.10498046875,0.400390625,0.89208984375,8.75,1.875,0.875
0.7100000000000005,-11.0,-6.0,11.0,4.0,-2.0,0.0,-6.0,-16.0,0.20965576171875,-0.06549072265625,-0.04638671875,0.97442626953125,0.10498046875,0.431640625,0.892578125,5.9375,1.0625,-0.25
0.7150000000000005,-11.0,-6.0,11.0,4.0,-2.0,0.0,-6.0,-16.0,0.21002197265625,-0.06536865234375,-0.04644775390625,0.974365234375,0.1005859375,0.4267578125,0.9091796875,1.5625,0.375,-0.25
0.7200000000000005,-7.0,-8.0,0.0,-2.0,-3.0,-3.0,-3.0,-20.0,0.21002197265625,-0.06536865234375,-0.04644775390625,0.974365234375,0.1005859375,0.4267578125,0.9091796875,1.5625,0.375,-0.25
0.7250000000000005,-7.0,-8.0,0.0,-2.0,-3.0,-3.0,-3.0,-20.0,0.21002197265625,-0.06536865234375,-0.04644775390625,0.974365234375,0.10498046875,0.40478515625,0.89990234375,0.5625,0.25,-0.375
0.7300000000000005,-3.0,-3.0,4.0,0.0,-1.0,-1.0,-1.0,14.0,0.21002197265625,-0.06536865234375,-0.04644775390625,0.974365234375,0.10498046875,0.40478515625,0.89990234375,0.5625,0.25,-0.375
0.7350000000000005,-3.0,-3.0,4.0,0.0,-1.0,-1.0,-1.0,14.0,0.21002197265625,-0.06536865234375,-0.04644775390625,0.974365234375,0.10498046875,0.40478515625,0.89990234375,0.5625,0.25,-0.375
0.7400000000000005,-3.0,-3.0,4.0,0.0,-1.0,-1.0,-1.0,14.0,0.210205078125,-0.0653076171875,-0.0465087890625,0.97430419921875,0.10888671875,0.40576171875,0.89404296875,1.4375,0.375,-0.75
0.7450000000000006,6.0,1.0,-11.0,-4.0,0.0,1.0,2.0,7.0,0.21063232421875,-0.06524658203125,-0.04656982421875,0.9742431640625,0.10400390625,0.4111328125,0.89501953125,2.5,0.25,-0.5625
0.7500000000000006,5.0,-7.0,-11.0,-6.0,-2.0,-2.0,-1.0,-1.0,0.21063232421875,-0.06524658203125,-0.04656982421875,0.9742431640625,0.10400390625,0.4111328125,0.89501953125,2.5,0.25,-0.5625
0.7550000000000006,5.0,-7.0,-11.0,-6.0,-2.0,-2.0,-1.0,-1.0,0.21124267578125,-0.06512451171875,-0.046630859375,0.97412109375,0.09375,0.416015625,0.916015625,4.0625,-0.375,-0.375
0.7600000000000006,-15.0,-9.0,13.0,2.0,1.0,0.0,-2.0,-9.0,0.21124267578125,-0.06512451171875,-0.046630859375,0.97412109375,0.09375,0.416015625,0.916015625,4.0625,-0.375,-0.375
0.7650000000000006,-20.0,7.0,25.0,4.0,-2.0,-3.0,-4.0,-4.0,0.21160888671875,-0.065185546875,-0.0467529296875,0.9739990234375,0.10205078125,0.42041015625,0.9130859375,2.3125,-0.875,-0.5625
0.7700000000000006,-20.0,7.0,25.0,4.0,-2.0,-3.0,-4.0,-4.0,0.21160888671875,-0.065185546875,-0.0467529296875,0.9739990234375,0.10205078125,0.42041015625,0.9130859375,2.3125,-0.875,-0.5625
0.7750000000000006,17.0,6.0,-7.0,-3.0,1.0,0.0,5.0,18.0,0.21160888671875,-0.065185546875,-0.0467529296875,0.9739990234375,0.10986328125,0.42529296875,0.9033203125,0.25,-0.6875,-0.9375
0.7800000000000006,17.0,6.0,-7.0,-3.0,1.0,0.0,5.0,18.0,0.21160888671875,-0.065185546875,-0.0467529296875,0.9739990234375,0.10986328125,0.42529296875,0.9033203125,0.25,-0.6875,-0.9375
0.7850000000000006,-7.0,4.0,10.0,1.0,-2.0,-2.0,-6.0,-11.0,0.21142578125,-0.06512451171875,-0.04693603515625,0.97406005859375,0.10205078125,0.41943359375,0.9072265625,-1.375,-0.3125,-1.0
0.7900000000000006,-7.0,4.0,10.0,1.0,-2.0,-2.0,-6.0,-11.0,0.21142578125,-0.06512451171875,-0.04693603515625,0.97406005859375,0.10205078125,0.41943359375,0.9072265625,-1.375,-0.3125,-1.0
0.7950000000000006,8.0,8.0,-14.0,-1.0,-1.0,0.0,1.0,1.0,0.21136474609375,-0.06512451171875,-0.04693603515625,0.97406005859375,0.10205078125,0.408203125,0.916015625,0.875,0.0625,-0.5
0.8000000000000006,0.0,-3.0,0.0,-1.0,-2.0,-2.0,-1.0,8.0,0.21136474609375,-0.06512451171875,-0.04693603515625,0.97406005859375,0.10205078125,0.408203125,0.916015625,0.875,0.0625,-0.5
0.8050000000000006,0.0,-3.0,0.0,-1.0,-2.0,-2.0,-1.0,8.0,0.211669921875,-0.0650634765625,-0.04693603515625,0.9739990234375,0.10546875,0.4111328125,0.90234375,2.125,0.25,-0.1875
0.8100000000000006,-9.0,2.0,-8.0,2.0,0.0,-1.0,-3.0,2.0,0.211669921875,-0.0650634765625,-0.04693603515625,0.9739990234375,0.10986328125,0.4189453125,0.89501953125,0.875,0.8125,-0.4375
0.8150000000000006,-10.0,9.0,-16.0,-4.0,0.0,0.0,-1.0,-7.0,0.211669921875,-0.0650634765625,-0.04693603515625,0.9739990234375,0.10986328125,0.4189453125,0.89501953125,0.875,0.8125,-0.4375
0.8200000000000006,5.0,15.0,-5.0,-3.0,-2.0,-2.0,-1.0,3.0,0.211669921875,-0.0650634765625,-0.04693603515625,0.9739990234375,0.10986328125,0.4189453125,0.89501953125,0.875,0.8125,-0.4375
0.8250000000000006,-10.0,-7.0,-9.0,-3.0,-3.0,-4.0,-2.0,4.0,0.21160888671875,-0.0648193359375,-0.04693603515625,0.97406005859375,0.10791015625,0.4228515625,0.88818359375,-1.25,1.375,-0.4375
0.8300000000000006,5.0,16.0,-13.0,-6.0,-2.0,-2.0,-1.0,9.0,0.211181640625,-0.0645751953125,-0.0469970703125,0.97412109375,0.10107421875,0.41064453125,0.9013671875,-2.25,1.0,-0.125
0.8350000000000006,0.0,18.0,7.0,2.0,0.0,0.0,-1.0,-32.0,0.2108154296875,-0.064453125,-0.04705810546875,0.9742431640625,0.10205078125,0.4130859375,0.89990234375,-1.9375,0.5,-0.3125
0.8400000000000006,4.0,-20.0,0.0,-2.0,-1.0,-2.0,-2.0,7.0,0.21002197265625,-0.06427001953125,-0.0472412109375,0.97442626953125,0.10595703125,0.42578125,0.8837890625,-3.625,0.625,-0.875
0.8450000000000006,-20.0,5.0,-10.0,-3.0,-1.0,-2.0,-5.0,-29.0,0.21002197265625,-0.06427001953125,-0.0472412109375,0.97442626953125,0.10595703125,0.42578125,0.8837890625,-3.625,0.625,-0.875
0.8500000000000006,-20.0,5.0,-10.0,-3.0,-1.0,-2.0,-5.0,-29.0,0.20892333984375,-0.06414794921875,-0.04742431640625,0.974609375,0.09814453125,0.41357421875,0.91064453125,-6.25,-0.5,-0.625
0.8550000000000006,0.0,-9.0,-5.0,-2.0,-2.0,0.0,0.0,-4.0,0.20892333984375,-0.06414794921875,-0.04742431640625,0.974609375,0.09814453125,0.41357421875,0.91064453125,-6.25,-0.5,-0.625
0.8600000000000007,14.0,-3.0,2.0,0.0,0.0,1.0,0.0,7.0,0.20892333984375,-0.06414794921875,-0.04742431640625,0.974609375,0.09814453125,0.41357421875,0.91064453125,-6.25,-0.5,-0.625
0.8650000000000007,14.0,-3.0,2.0,0.0,0.0,1.0,0.0,7.0,0.2078857421875,-0.0643310546875,-0.047607421875,0.974853515625,0.1005859375,0.392578125,0.9072265625,-5.0625,-1.8125,-0.3125
0.8700000000000007,-6.0,-5.0,-6.0,-2.0,-2.0,-1.0,-1.0,2.0,0.2078857421875,-0.0643310546875,-0.047607421875,0.974853515625,0.1005859375,0.392578125,0.9072265625,-5.0625,-1.8125,-0.3125
0.8750000000000007,1.0,-1.0,4.0,2.0,1.0,2.0,1.0,-4.0,0.207275390625,-0.064697265625,-0.0478515625,0.97491455078125,0.103515625,0.39794921875,0.888671875,-3.125,-2.5,-0.5
0.8800000000000007,1.0,0.0,3.0,2.0,0.0,-2.0,-2.0,2.0,0.20697021484375,-0.065185546875,-0.04803466796875,0.9749755859375,0.10302734375,0.40625,0.89794921875,-1.75,-3.0625,-0.4375
0.8850000000000007,0.0,-9.0,4.0,2.0,-1.0,-4.0,-2.0,-2.0,0.206787109375,-0.06561279296875,-0.0482177734375,0.9749755859375,0.09375,0.4091796875,0.90576171875,-0.9375,-3.6875,-0.1875
0.8900000000000007,-8.0,-1.0,7.0,4.0,0.0,-1.0,-3.0,-3.0,0.206787109375,-0.06561279296875,-0.0482177734375,0.9749755859375,0.09375,0.4091796875,0.90576171875,-0.9375,-3.6875,-0.1875
0.8950000000000007,5.0,-6.0,7.0,-2.0,-2.0,-2.0,0.0,5.0,0.20654296875,-0.066162109375,-0.04840087890625,0.9749755859375,0.1005859375,0.40478515625,0.900390625,-1.125,-3.875,-0.125
0.9000000000000007,0.0,-14.0,-4.0,2.0,2.0,0.0,-2.0,3.0,0.20654296875,-0.066162109375,-0.04840087890625,0.9749755859375,0.1005859375,0.40478515625,0.900390625,-1.125,-3.875,-0.125
0.9050000000000007,0.0,6.0,-1.0,-1.0,1.0,0.0,1.0,-1.0,0.20611572265625,-0.0667724609375,-0.0487060546875,0.9749755859375,0.107421875,0.41015625,0.8984375,-2.875,-3.8125,-0.6875
0.9100000000000007,0.0,0.0,7.0,0.0,0.0,-1.0,0.0,3.0,0.20611572265625,-0.0667724609375,-0.0487060546875,0.9749755859375,0.107421875,0.41015625,0.8984375,-2.875,-3.8125,-0.6875
0.9150000000000007,2.0,7.0,6.0,1.0,0.0,0.0,1.0,0.0,0.20562744140625,-0.06732177734375,-0.04901123046875,0.97503662109375,0.10693359375,0.41015625,0.91064453125,-2.9375,-4.125,-0.6875
0.9200000000000007,2.0,7.0,6.0,1.0,0.0,0.0,1.0,0.0,0.20513916015625,-0.0679931640625,-0.04931640625,0.97509765625,0.10205078125,0.3994140625,0.92431640625,-1.75,-4.9375,-0.375
0.9250000000000007,-2.0,-8.0,1.0,-3.0,-4.0,-3.0,-2.0,-2.0,0.20513916015625,-0.0679931640625,-0.04931640625,0.97509765625,0.10205078125,0.3994140625,0.92431640625,-1.75,-4.9375,-0.375
0.9300000000000007,1.0,17.0,0.0,0.0,0.0,0.0,1.0,1.0,0.204833984375,-0.06878662109375,-0.04962158203125,0.97509765625,0.10888671875,0.40380859375,0.90380859375,-1.375,-5.1875,-0.625
0.9350000000000007,-2.0,20.0,-7.0,-4.0,-4.0,-3.0,1.0,-1.0,0.204833984375,-0.06878662109375,-0.04962158203125,0.97509765625,0.10888671875,0.40380859375,0.90380859375,-1.375,-5.1875,-0.625
0.9400000000000007,-3.0,-1.0,4.0,1.0,-1.0,-1.0,-2.0,-2.0,0.20440673828125,-0.06951904296875,-0.04998779296875,0.97509765625,0.11279296875,0.4091796875,0.90625,-2.6875,-4.9375,-1.0625
0.9450000000000007,-3.0,-1.0,4.0,1.0,-1.0,-1.0,-2.0,-2.0,0.20440673828125,-0.06951904296875,-0.04998779296875,0.97509765625,0.11279296875,0.4091796875,0.90625,-2.6875,-4.9375,-1.0625
0.9500000000000007,0.0,-1.0,0.0,3.0,2.0,0.0,-1.0,0.0,0.20361328125,-0.07012939453125,-0.0504150390625,0.9752197265625,0.1064453125,0.40625,0.92578125,-4.0625,-4.6875,-1.1875
0.9550000000000007,0.0,-1.0,0.0,3.0,2.0,0.0,-1.0,0.0,0.20361328125,-0.07012939453125,-0.0504150390625,0.9752197265625,0.1064453125,0.40625,0.92578125,-4.0625,-4.6875,-1.1875
0.9600000000000007,2.0,8.0,-2.0,-3.0,0.0,-2.0,0.0,0.0,0.202880859375,-0.0706787109375,-0.05078125,0.97528076171875,0.11328125,0.39501953125,0.92041015625,-3.625,-4.0,-1.0
0.9650000000000007,-1.0,2.0,-6.0,-1.0,-1.0,1.0,-2.0,-1.0,0.202880859375,-0.0706787109375,-0.05078125,0.97528076171875,0.11328125,0.39501953125,0.92041015625,-3.625,-4.0,-1.0
0.9700000000000008,-1.0,2.0,-6.0,-1.0,-1.0,1.0,-2.0,-1.0,0.2022705078125,-0.0711669921875,-0.05108642578125,0.975341796875,0.123046875,0.39794921875,0.91064453125,-3.0625,-2.9375,-1.1875
0.9750000000000008,1.0,7.0,-8.0,-2.0,-4.0,-1.0,-1.0,1.0,0.2022705078125,-0.0711669921875,-0.05108642578125,0.975341796875,0.123046875,0.39794921875,0.91064453125,-3.0625,-2.9375,-1.1875
0.9800000000000008,-2.0,-1.0,4.0,0.0,-1.0,0.0,0.0,0.0,0.20098876953125,-0.0714111328125,-0.0517578125,0.9755859375,0.11572265625,0.40234375,0.92236328125,-3.8125,-1.0625,-1.375
0.9850000000000008,-8.0,-14.0,6.0,1.0,-1.0,-2.0,-1.0,-4.0,0.20098876953125,-0.0714111328125,-0.0517578125,0.9755859375,0.11572265625,0.40234375,0.92236328125,-3.8125,-1.0625,-1.375
0.9900000000000008,-8.0,-14.0,6.0,1.0,-1.0,-2.0,-1.0,-4.0,0.20098876953125,-0.0714111328125,-0.0517578125,0.9755859375,0.11572265625,0.40234375,0.92236328125,-3.8125,-1.0625,-1.375
0.9950000000000008,-1.0,4.0,3.0,-1.0,1.0,-1.0,-2.0,0.0,0.19989013671875,-0.0712890625,-0.05230712890625,0.97576904296875,0.126953125,0.40185546875,0.9052734375,-3.0625,0.9375,-1.8125
1.0000000000000007,-3.0,8.0,1.0,-5.0,-2.0,-1.0,-3.0,-2.0,0.19989013671875,-0.0712890625,-0.05230712890625,0.97576904296875,0.126953125,0.40185546875,0.9052734375,-3.0625,0.9375,-1.8125
1.0050000000000006,1.0,6.0,-6.0,-4.0,0.0,-1.0,-1.0,0.0,0.19891357421875,-0.07098388671875,-0.052490234375,0.97601318359375,0.13232421875,0.40234375,0.8955078125,-6.6875,2.0625,-1.5625
1.0100000000000005,-3.0,-1.0,-3.0,-2.0,-1.0,0.0,-1.0,-1.0,0.19891357421875,-0.07098388671875,-0.052490234375,0.97601318359375,0.13232421875,0.40234375,0.8955078125,-6.6875,2.0625,-1.5625
1.0150000000000003,-3.0,-1.0,-3.0,-2.0,-1.0,0.0,-1.0,-1.0,0.19720458984375,-0.07049560546875,-0.05267333984375,0.97637939453125,0.11572265625,0.38525390625,0.9267578125,-9.5,1.9375,-0.75
1.0200000000000002,-1.0,-2.0,-7.0,-1.0,1.0,-1.0,-1.0,1.0,0.19720458984375,-0.07049560546875,-0.05267333984375,0.97637939453125,0.11572265625,0.38525390625,0.9267578125,-9.5,1.9375,-0.75
1.0250000000000001,5.0,5.0,12.0,1.0,0.0,-2.0,-1.0,-7.0,0.19720458984375,-0.07049560546875,-0.05267333984375,0.97637939453125,0.11572265625,0.38525390625,0.9267578125,-9.5,1.9375,-0.75
1.03,0.0,2.0,21.0,9.0,2.0,0.0,-2.0,4.0,0.196044921875,-0.07025146484375,-0.052734375,0.97662353515625,0.11572265625,0.3701171875,0.9404296875,-4.6875,0.75,-0.25
1.035,-1.0,-1.0,7.0,-1.0,-2.0,-1.0,0.0,-12.0,0.196044921875,-0.0703125,-0.052734375,0.97662353515625,0.12646484375,0.38037109375,0.9189453125,0.0625,-0.375,-0.4375
1.0399999999999998,-1.0,-1.0,7.0,-1.0,-2.0,-1.0,0.0,-12.0,0.196044921875,-0.0703125,-0.052734375,0.97662353515625,0.12646484375,0.38037109375,0.9189453125,0.0625,-0.375,-0.4375
1.0449999999999997,0.0,-2.0,-9.0,-5.0,-3.0,-1.0,-2.0,13.0,0.196044921875,-0.0703125,-0.052734375,0.97662353515625,0.12255859375,0.390625,0.91259765625,0.8125,-0.8125,-0.8125
1.0499999999999996,0.0,-2.0,-9.0,-5.0,-3.0,-1.0,-2.0,13.0,0.196044921875,-0.0703125,-0.052734375,0.97662353515625,0.12255859375,0.390625,0.91259765625,0.8125,-0.8125,-0.8125
1.0549999999999995,3.0,4.0,-4.0,0.0,0.0,0.0,-1.0,6.0,0.196044921875,-0.0703125,-0.052734375,0.97662353515625,0.12255859375,0.390625,0.91259765625,0.8125,-0.8125,-0.8125
1.0599999999999994,-3.0,-12.0,-18.0,-1.0,-1.0,-4.0,0.0,-1.0,0.1962890625,-0.07037353515625,-0.05291748046875,0.9765625,0.1181640625,0.39306640625,0.9130859375,1.4375,-0.125,-1.1875
1.0649999999999993,-2.0,0.0,9.0,-2.0,-4.0,-2.0,-1.0,-3.0,0.1962890625,-0.07037353515625,-0.05291748046875,0.9765625,0.1181640625,0.39306640625,0.9130859375,1.4375,-0.125,-1.1875
1.0699999999999992,-9.0,-11.0,-8.0,-1.0,-2.0,-2.0,-5.0,-23.0,0.19659423828125,-0.07025146484375,-0.0531005859375,0.97650146484375,0.11865234375,0.3974609375,0.91748046875,1.25,0.5,-1.375
1.074999999999999,0.0,12.0,-6.0,-5.0,-3.0,-3.0,-2.0,-1.0,0.19659423828125,-0.07025146484375,-0.0531005859375,0.97650146484375,0.11865234375,0.3974609375,0.91748046875,1.25,0.5,-1.375
1.079999999999999,-4.0,-2.0,-4.0,-2.0,-1.0,-1.0,-2.0,-14.0,0.19683837890625,-0.07000732421875,-0.05328369140625,0.9764404296875,0.11083984375,0.3955078125,0.916015625,1.25,1.0,-1.5625
1.0849999999999989,0.0,1.0,3.0,0.0,0.0,-1.0,-4.0,6.0,0.197021484375,-0.06964111328125,-0.0535888671875,0.9764404296875,0.109375,0.390625,0.92431640625,0.9375,1.1875,-1.9375
1.0899999999999987,-1.0,9.0,6.0,0.0,-1.0,1.0,0.0,2.0,0.197021484375,-0.06964111328125,-0.0535888671875,0.9764404296875,0.109375,0.390625,0.92431640625,0.9375,1.1875,-1.9375
1.0949999999999986,-1.0,9.0,6.0,0.0,-1.0,1.0,0.0,2.0,0.197021484375,-0.06964111328125,-0.0535888671875,0.9764404296875,0.109375,0.390625,0.92431640625,0.9375,1.1875,-1.9375
1.0999999999999985,-3.0,1.0,8.0,6.0,-2.0,-3.0,-2.0,-5.0,0.19732666015625,-0.06915283203125,-0.05438232421875,0.976318359375,0.11279296875,0.3857421875,0.9150390625,1.25,0.9375,-2.9375
1.1049999999999984,-1.0,0.0,-7.0,-2.0,1.0,0.0,-1.0,-10.0,0.19732666015625,-0.06915283203125,-0.05438232421875,0.976318359375,0.11279296875,0.3857421875,0.9150390625,1.25,0.9375,-2.9375
1.1099999999999983,-1.0,0.0,-7.0,-2.0,1.0,0.0,-1.0,-10.0,0.197509765625,-0.06890869140625,-0.054931640625,0.976318359375,0.11474609375,0.3896484375,0.9130859375,0.8125,0.8125,-3.25
1.1149999999999982,3.0,-7.0,6.0,-2.0,0.0,-1.0,1.0,4.0,0.197509765625,-0.06890869140625,-0.054931640625,0.976318359375,0.11474609375,0.3896484375,0.9130859375,0.8125,0.8125,-3.25
1.119999999999998,-6.0,-9.0,-29.0,-5.0,-2.0,1.0,-2.0,-6.0,0.19769287109375,-0.068603515625,-0.055419921875,0.97625732421875,0.10546875,0.390625,0.919921875,1.3125,0.8125,-3.125
1.124999999999998,0.0,-8.0,-3.0,0.0,-1.0,-1.0,-2.0,-2.0,0.19769287109375,-0.068603515625,-0.055419921875,0.97625732421875,0.10546875,0.390625,0.919921875,1.3125,0.8125,-3.125
1.129999999999998,-1.0,0.0,1.0,-1.0,-2.0,-1.0,0.0,3.0,0.1978759765625,-0.068359375,-0.055908203125,0.9761962890625,0.1083984375,0.38525390625,0.9111328125,1.1875,0.6875,-3.0625
1.1349999999999978,4.0,-14.0,-6.0,-4.0,-1.0,-1.0,0.0,2.0,0.19781494140625,-0.06805419921875,-0.05633544921875,0.9761962890625,0.1103515625,0.38232421875,0.91943359375,0.5,0.9375,-2.9375
1.1399999999999977,-1.0,-2.0,5.0,1.0,1.0,1.0,0.0,6.0,0.19805908203125,-0.0677490234375,-0.0567626953125,0.9761962890625,0.10107421875,0.3818359375,0.916015625,1.8125,0.75,-2.6875
1.1449999999999976,-1.0,-2.0,5.0,1.0,1.0,1.0,0.0,6.0,0.19805908203125,-0.0677490234375,-0.0567626953125,0.9761962890625,0.10107421875,0.3818359375,0.916015625,1.8125,0.75,-2.6875
1.1499999999999975,9.0,6.0,2.0,1.0,-1.0,-2.0,-1.0,-6.0,0.1982421875,-0.06707763671875,-0.0574951171875,0.97613525390625,0.1015625,0.38037109375,0.9150390625,1.125,1.0,-2.25
1.1549999999999974,0.0,2.0,0.0,2.0,0.0,-1.0,-2.0,-4.0,0.1982421875,-0.06707763671875,-0.0574951171875,0.97613525390625,0.1015625,0.38037109375,0.9150390625,1.125,1.0,-2.25
1.1599999999999973,0.0,2.0,0.0,2.0,0.0,-1.0,-2.0,-4.0,0.1982421875,-0.06707763671875,-0.0574951171875,0.97613525390625,0.1015625,0.38037109375,0.9150390625,1.125,1.0,-2.25
1.1649999999999971,-2.0,2.0,-11.0,-5.0,-2.0,-1.0,-2.0,9.0,0.19854736328125,-0.0667724609375,-0.0577392578125,0.97607421875,0.10107421875,0.3818359375,0.91015625,2.4375,1.25,-1.875
1.169999999999997,-2.0,2.0,-11.0,-5.0,-2.0,-1.0,-2.0,9.0,0.198974609375,-0.06634521484375,-0.05792236328125,0.97601318359375,0.0869140625,0.3857421875,0.90966796875,2.8125,1.125,-1.25
1.174999999999997,0.0,7.0,3.0,-1.0,1.0,-1.0,1.0,1.0,0.198974609375,-0.06634521484375,-0.05792236328125,0.97601318359375,0.0869140625,0.3857421875,0.90966796875,2.8125,1.125,-1.25
1.1799999999999968,0.0,8.0,0.0,-1.0,-2.0,0.0,-1.0,-10.0,0.19915771484375,-0.06597900390625,-0.05804443359375,0.97601318359375,0.09130859375,0.37939453125,0.91455078125,1.875,1.0,-1.0625
1.1849999999999967,-5.0,-1.0,-4.0,0.0,-5.0,-3.0,-2.0,1.0,0.19915771484375,-0.06573486328125,-0.05816650390625,0.97601318359375,0.1015625,0.3759765625,0.9052734375,1.1875,1.0,-1.125
1.1899999999999966,-5.0,-1.0,-4.0,0.0,-5.0,-3.0,-2.0,1.0,0.19915771484375,-0.06573486328125,-0.05816650390625,0.97601318359375,0.1015625,0.3759765625,0.9052734375,1.1875,1.0,-1.125
1.1949999999999965,-1.0,-5.0,-3.0,0.0,0.0,0.0,1.0,-1.0,0.19915771484375,-0.06573486328125,-0.05816650390625,0.97601318359375,0.1015625,0.3759765625,0.9052734375,1.1875,1.0,-1.125
1.1999999999999964,-1.0,-5.0,-3.0,0.0,0.0,0.0,1.0,-1.0,0.19921875,-0.06549072265625,-0.05828857421875,0.97601318359375,0.09619140625,0.380859375,0.91015625,1.0,0.8125,-0.75
1.2049999999999963,3.0,3.0,-5.0,-1.0,-3.0,-1.0,-1.0,1.0,0.19921875,-0.06549072265625,-0.05828857421875,0.97601318359375,0.09619140625,0.380859375,0.91015625,1.0,0.8125,-0.75
1.2099999999999962,-1.0,-7.0,0.0,0.0,0.0,1.0,-1.0,2.0,0.19952392578125,-0.0653076171875,-0.05828857421875,0.9759521484375,0.10009765625,0.3828125,0.89404296875,0.6875,-0.1875,0.375
1.214999999999996,-5.0,-15.0,-4.0,-3.0,0.0,-2.0,-2.0,9.0,0.19952392578125,-0.0653076171875,-0.05828857421875,0.9759521484375,0.10009765625,0.3828125,0.89404296875,0.6875,-0.1875,0.375
1.219999999999996,-1.0,5.0,-2.0,-3.0,-3.0,-1.0,-2.0,-6.0,0.19952392578125,-0.0653076171875,-0.05828857421875,0.9759521484375,0.10009765625,0.3828125,0.89404296875,0.6875,-0.1875,0.375
1.2249999999999959,-1.0,-5.0,-4.0,-1.0,-2.0,-1.0,-1.0,-4.0,0.19952392578125,-0.0653076171875,-0.05828857421875,0.9759521484375,0.1083984375,0.37841796875,0.89111328125,0.375,-0.125,0.6875
1.2299999999999958,-1.0,-4.0,9.0,4.0,0.0,0.0,0.0,0.0,0.19952392578125,-0.0653076171875,-0.05828857421875,0.9759521484375,0.1083984375,0.37841796875,0.89111328125,0.375,-0.125,0.6875
1.2349999999999957,3.0,2.0,-2.0,1.0,1.0,0.0,-1.0,-2.0,0.1995849609375,-0.0654296875,-0.05804443359375,0.9759521484375,0.11376953125,0.39013671875,0.8701171875,-0.3125,0.375,1.0625
1.2399999999999956,1.0,6.0,-27.0,-7.0,-3.0,0.0,0.0,-2.0,0.1995849609375,-0.0654296875,-0.05804443359375,0.9759521484375,0.11376953125,0.39013671875,0.8701171875,-0.3125,0.375,1.0625
1.2449999999999954,1.0,6.0,-27.0,-7.0,-3.0,0.0,0.0,-2.0,0.19921875,-0.0654296875,-0.05780029296875,0.97601318359375,0.09423828125,0.40478515625,0.89306640625,-3.3125,-0.125,1.75
1.2499999999999953,-4.0,-1.0,3.0,0.0,-3.0,-1.0,-2.0,-3.0,0.19921875,-0.0654296875,-0.05780029296875,0.97601318359375,0.09423828125,0.40478515625,0.89306640625,-3.3125,-0.125,1.75
1.2549999999999952,-2.0,6.0,0.0,-2.0,-3.0,-4.0,-3.0,-2.0,0.19842529296875,-0.0655517578125,-0.0574951171875,0.9761962890625,0.09130859375,0.3740234375,0.904296875,-3.125,-1.375,2.5625
1.2599999999999951,-2.0,6.0,0.0,-2.0,-3.0,-4.0,-3.0,-2.0,0.19842529296875,-0.0655517578125,-0.0574951171875,0.9761962890625,0.09130859375,0.3740234375,0.904296875,-3.125,-1.375,2.5625
1.264999999999995,-1.0,5.0,-4.0,-3.0,0.0,-2.0,-2.0,-2.0,0.198486328125,-0.06597900390625,-0.05712890625,0.9761962890625,0.095703125,0.373046875,0.9013671875,1.4375,-2.8125,2.625
1.269999999999995,-5.0,4.0,-9.0,-1.0,0.0,0.0,-1.0,0.0,0.198486328125,-0.06597900390625,-0.05712890625,0.9761962890625,0.095703125,0.373046875,0.9013671875,1.4375,-2.8125,2.625
1.2749999999999948,-5.0,4.0,-9.0,-1.0,0.0,0.0,-1.0,0.0,0.19891357421875,-0.066650390625,-0.05694580078125,0.97607421875,0.0986328125,0.39013671875,0.900390625,3.0,-3.6875,1.75
1.2799999999999947,-5.0,4.0,-9.0,-1.0,0.0,0.0,-1.0,0.0,0.19891357421875,-0.066650390625,-0.05694580078125,0.97607421875,0.0986328125,0.39013671875,0.900390625,3.0,-3.6875,1.75
1.2849999999999946,-4.0,4.0,14.0,2.0,-2.0,-2.0,-2.0,-1.0,0.198974609375,-0.06744384765625,-0.056884765625,0.97601318359375,0.10595703125,0.3984375,0.91455078125,0.4375,-4.875,1.1875
1.2899999999999945,-3.0,1.0,-5.0,-1.0,-1.0,-1.0,-3.0,-4.0,0.198974609375,-0.06744384765625,-0.056884765625,0.97601318359375,0.10595703125,0.3984375,0.91455078125,0.4375,-4.875,1.1875
1.2949999999999944,-1.0,-3.0,3.0,-3.0,-1.0,0.0,-1.0,0.0,0.1986083984375,-0.0684814453125,-0.05694580078125,0.97601318359375,0.109375,0.388671875,0.9267578125,-0.8125,-6.0,1.0
1.2999999999999943,-1.0,-3.0,3.0,-3.0,-1.0,0.0,-1.0,0.0,0.1986083984375,-0.0694580078125,-0.05706787109375,0.97589111328125,0.1083984375,0.39599609375,0.91748046875,0.5625,-6.3125,0.5
1.3049999999999942,2.0,13.0,6.0,2.0,-1.0,-2.0,1.0,-1.0,0.1986083984375,-0.0694580078125,-0.05706787109375,0.97589111328125,0.1083984375,0.39599609375,0.91748046875,0.5625,-6.3125,0.5
1.309999999999994,1.0,7.0,2.0,-3.0,-1.0,-2.0,-1.0,1.0,0.19879150390625,-0.0704345703125,-0.05731201171875,0.97576904296875,0.11181640625,0.41015625,0.91796875,0.625,-5.875,-0.375
1.314999999999994,5.0,13.0,-5.0,1.0,2.0,0.0,-1.0,2.0,0.19879150390625,-0.0704345703125,-0.05731201171875,0.97576904296875,0.11181640625,0.41015625,0.91796875,0.625,-5.875,-0.375
1.3199999999999938,5.0,13.0,-5.0,1.0,2.0,0.0,-1.0,2.0,0.19866943359375,-0.07122802734375,-0.05767822265625,0.97576904296875,0.10888671875,0.40380859375,0.92578125,-0.6875,-5.5,-0.6875
1.3249999999999937,-3.0,2.0,0.0,0.0,-2.0,-1.0,0.0,-6.0,0.19866943359375,-0.07122802734375,-0.05767822265625,0.97576904296875,0.10888671875,0.40380859375,0.92578125,-0.6875,-5.5,-0.6875
1.3299999999999936,-3.0,2.0,0.0,0.0,-2.0,-1.0,0.0,-6.0,0.19866943359375,-0.07122802734375,-0.05767822265625,0.97576904296875,0.10888671875,0.40380859375,0.92578125,-0.6875,-5.5,-0.6875
1.3349999999999935,-2.0,7.0,-18.0,-5.0,-3.0,-2.0,-2.0,-4.0,0.19854736328125,-0.07196044921875,-0.0579833984375,0.9757080078125,0.1181640625,0.39599609375,0.9306640625,0.0,-4.75,-0.9375
1.3399999999999934,-2.0,-1.0,2.0,0.0,1.0,-1.0,-1.0,1.0,0.19854736328125,-0.0726318359375,-0.05828857421875,0.97564697265625,0.1279296875,0.40283203125,0.92578125,0.0625,-3.625,-1.25
1.3449999999999933,3.0,7.0,3.0,-3.0,-3.0,-2.0,-2.0,1.0,0.198486328125,-0.07305908203125,-0.05853271484375,0.9755859375,0.126953125,0.4072265625,0.93115234375,-0.625,-2.5,-1.125
1.3499999999999932,-4.0,2.0,1.0,-1.0,-2.0,-3.0,0.0,-1.0,0.198486328125,-0.07305908203125,-0.05853271484375,0.9755859375,0.126953125,0.4072265625,0.93115234375,-0.625,-2.5,-1.125
1.354999999999993,-4.0,2.0,1.0,-1.0,-2.0,-3.0,0.0,-1.0,0.198486328125,-0.07305908203125,-0.05853271484375,0.9755859375,0.126953125,0.4072265625,0.93115234375,-0.625,-2.5,-1.125
1.359999999999993,-1.0,8.0,6.0,0.0,-1.0,1.0,0.0,0.0,0.19830322265625,-0.07318115234375,-0.05877685546875,0.9755859375,0.1201171875,0.404296875,0.93310546875,-0.875,-1.1875,-1.0
1.3649999999999929,-2.0,-4.0,-26.0,-6.0,0.0,0.0,0.0,0.0,0.19830322265625,-0.07318115234375,-0.05877685546875,0.9755859375,0.1201171875,0.39892578125,0.92529296875,0.375,0.0625,-0.8125
1.3699999999999928,-1.0,-11.0,-2.0,0.0,-1.0,-1.0,0.0,2.0,0.19830322265625,-0.07318115234375,-0.05877685546875,0.9755859375,0.1201171875,0.39892578125,0.92529296875,0.375,0.0625,-0.8125
1.3749999999999927,-1.0,-11.0,-2.0,0.0,-1.0,-1.0,0.0,2.0,0.198486328125,-0.07305908203125,-0.05877685546875,0.9755859375,0.1259765625,0.400390625,0.91748046875,0.875,1.25,-0.625
1.3799999999999926,1.0,-13.0,-1.0,-1.0,-2.0,-1.0,-1.0,0.0,0.198486328125,-0.07305908203125,-0.05877685546875,0.9755859375,0.1259765625,0.400390625,0.91748046875,0.875,1.25,-0.625
1.3849999999999925,1.0,-13.0,-1.0,-1.0,-2.0,-1.0,-1.0,0.0,0.1986083984375,-0.07269287109375,-0.05877685546875,0.9755859375,0.123046875,0.40185546875,0.919921875,0.25,2.25,-0.5
1.3899999999999924,-4.0,-18.0,-1.0,-1.0,-1.0,-2.0,-3.0,-1.0,0.1986083984375,-0.07269287109375,-0.05877685546875,0.9755859375,0.123046875,0.40185546875,0.919921875,0.25,2.25,-0.5
1.3949999999999922,5.0,2.0,4.0,-1.0,0.0,-2.0,0.0,2.0,0.1986083984375,-0.07269287109375,-0.05877685546875,0.9755859375,0.123046875,0.40185546875,0.919921875,0.25,2.25,-0.5
1.3999999999999921,2.0,-4.0,-2.0,-2.0,-2.0,0.0,-2.0,-1.0,0.19854736328125,-0.07208251953125,-0.0587158203125,0.97564697265625,0.11328125,0.39599609375,0.92138671875,-0.25,2.9375,-0.0625
1.404999999999992,3.0,-11.0,2.0,0.0,-1.0,-3.0,-1.0,1.0,0.19854736328125,-0.07208251953125,-0.0587158203125,0.97564697265625,0.11328125,0.39599609375,0.92138671875,-0.25,2.9375,-0.0625
1.409999999999992,-3.0,0.0,-5.0,-1.0,-1.0,0.0,0.0,0.0,0.1986083984375,-0.07147216796875,-0.05859375,0.9757080078125,0.1162109375,0.39794921875,0.90673828125,-0.1875,3.5625,-0.0625
1.4149999999999918,-3.0,0.0,-5.0,-1.0,-1.0,0.0,0.0,0.0,0.19873046875,-0.07080078125,-0.05853271484375,0.9757080078125,0.1162109375,0.40771484375,0.89697265625,-0.6875,4.25,-0.4375
1.4199999999999917,1.0,-6.0,11.0,3.0,-1.0,0.0,-1.0,-3.0,0.19873046875,-0.07080078125,-0.05853271484375,0.9757080078125,0.1162109375,0.40771484375,0.89697265625,-0.6875,4.25,-0.4375
1.4249999999999916,-3.0,4.0,-15.0,-4.0,-2.0,-1.0,0.0,-4.0,0.19842529296875,-0.07000732421875,-0.0584716796875,0.975830078125,0.11279296875,0.40087890625,0.9052734375,-2.5625,4.4375,-0.375
1.4299999999999915,0.0,2.0,-4.0,0.0,-1.0,0.0,0.0,-1.0,0.19842529296875,-0.07000732421875,-0.0584716796875,0.975830078125,0.11279296875,0.40087890625,0.9052734375,-2.5625,4.4375,-0.375
1.4349999999999914,0.0,2.0,-4.0,0.0,-1.0,0.0,0.0,-1.0,0.19842529296875,-0.07000732421875,-0.0584716796875,0.975830078125,0.11279296875,0.40087890625,0.9052734375,-2.5625,4.4375,-0.375
1.4399999999999913,-3.0,-2.0,-27.0,-5.0,-2.0,-1.0,-1.0,-5.0,0.1978759765625,-0.0692138671875,-0.05841064453125,0.97601318359375,0.1025390625,0.38037109375,0.91455078125,-2.875,3.8125,-0.125
1.4449999999999912,-3.0,-2.0,-27.0,-5.0,-2.0,-1.0,-1.0,-5.0,0.1976318359375,-0.06866455078125,-0.05841064453125,0.97607421875,0.11083984375,0.37744140625,0.9033203125,-0.625,2.875,-0.875
1.449999999999991,4.0,-1.0,11.0,-3.0,-1.0,-2.0,-2.0,5.0,0.1976318359375,-0.06866455078125,-0.05841064453125,0.97607421875,0.11083984375,0.37744140625,0.9033203125,-0.625,2.875,-0.875
1.454999999999991,-4.0,0.0,20.0,8.0,1.0,1.0,-1.0,3.0,0.1976318359375,-0.068359375,-0.05859375,0.97607421875,0.111328125,0.39208984375,0.89013671875,-0.75,1.875,-1.5625
1.4599999999999909,-4.0,0.0,20.0,8.0,1.0,1.0,-1.0,3.0,0.1976318359375,-0.068359375,-0.05859375,0.97607421875,0.111328125,0.39208984375,0.89013671875,-0.75,1.875,-1.5625
1.4649999999999908,-1.0,0.0,8.0,0.0,-1.0,0.0,-1.0,-2.0,0.1976318359375,-0.068359375,-0.05859375,0.97607421875,0.111328125,0.39208984375,0.89013671875,-0.75,1.875,-1.5625
1.4699999999999906,0.0,6.0,-13.0,-4.0,-3.0,-1.0,1.0,2.0,0.19732666015625,-0.0679931640625,-0.05889892578125,0.97613525390625,0.09619140625,0.39208984375,0.90283203125,-2.25,0.75,-1.625
1.4749999999999905,1.0,4.0,-1.0,-1.0,0.0,-1.0,-2.0,0.0,0.19732666015625,-0.0679931640625,-0.05889892578125,0.97613525390625,0.09619140625,0.39208984375,0.90283203125,-2.25,0.75,-1.625
1.4799999999999904,-4.0,1.0,-8.0,-3.0,-3.0,-3.0,0.0,0.0,0.19696044921875,-0.0679931640625,-0.0592041015625,0.9761962890625,0.107421875,0.3828125,0.900390625,-2.0,-0.5625,-1.625
1.4849999999999903,-4.0,1.0,-8.0,-3.0,-3.0,-3.0,0.0,0.0,0.1968994140625,-0.0682373046875,-0.0595703125,0.9761962890625,0.1103515625,0.37646484375,0.9013671875,0.125,-1.75,-1.875
1.4899999999999902,-3.0,10.0,18.0,-3.0,-1.0,-2.0,-1.0,-2.0,0.19708251953125,-0.06878662109375,-0.05999755859375,0.97607421875,0.11279296875,0.38818359375,0.89306640625,1.0625,-3.125,-1.875
1.4949999999999901,3.0,-1.0,-23.0,-6.0,-1.0,-2.0,-1.0,-1.0,0.19720458984375,-0.06927490234375,-0.0604248046875,0.97601318359375,0.10302734375,0.3935546875,0.9072265625,0.3125,-3.75,-1.625
1.49999999999999,4.0,6.0,-9.0,1.0,2.0,1.0,1.0,2.0,0.19720458984375,-0.06927490234375,-0.0604248046875,0.97601318359375,0.10302734375,0.3935546875,0.9072265625,0.3125,-3.75,-1.625
1.50499999999999,-3.0,6.0,6.0,-2.0,-2.0,0.0,-4.0,-3.0,0.19720458984375,-0.06927490234375,-0.0604248046875,0.97601318359375,0.10302734375,0.3935546875,0.9072265625,0.3125,-3.75,-1.625
1.5099999999999898,-3.0,-2.0,3.0,-1.0,-4.0,-1.0,-1.0,2.0,0.19708251953125,-0.06988525390625,-0.060791015625,0.9759521484375,0.1083984375,0.3779296875,0.91064453125,0.5625,-4.375,-1.5625
1.5149999999999897,0.0,7.0,3.0,2.0,1.0,-2.0,-2.0,-9.0,0.19720458984375,-0.07061767578125,-0.061279296875,0.97589111328125,0.11376953125,0.38427734375,0.900390625,1.0625,-4.375,-1.875
1.5199999999999896,-1.0,-3.0,-2.0,-2.0,-2.0,-1.0,-3.0,11.0,0.197265625,-0.07122802734375,-0.06170654296875,0.97576904296875,0.1044921875,0.38916015625,0.912109375,0.75,-4.5,-1.625
1.5249999999999895,-1.0,2.0,0.0,1.0,-1.0,1.0,2.0,0.0,0.197265625,-0.07122802734375,-0.06170654296875,0.97576904296875,0.1044921875,0.38916015625,0.912109375,0.75,-4.5,-1.625
1.5299999999999894,-1.0,2.0,0.0,1.0,-1.0,1.0,2.0,0.0,0.197265625,-0.07122802734375,-0.06170654296875,0.97576904296875,0.1044921875,0.38916015625,0.912109375,0.75,-4.5,-1.625
1.5349999999999893,1.0,5.0,-1.0,-1.0,-2.0,-2.0,-2.0,-2.0,0.197265625,-0.07177734375,-0.0621337890625,0.9757080078125,0.1015625,0.3857421875,0.9296875,0.9375,-4.8125,-1.5
1.5399999999999892,1.0,5.0,-1.0,-1.0,-2.0,-2.0,-2.0,-2.0,0.197265625,-0.07177734375,-0.0621337890625,0.9757080078125,0.1015625,0.3857421875,0.9296875,0.9375,-4.8125,-1.5
1.544999999999989,-1.0,-1.0,-1.0,1.0,0.0,0.0,-1.0,-3.0,0.1962890625,-0.07305908203125,-0.06298828125,0.97576904296875,0.11376953125,0.3759765625,0.9287109375,-1.8125,-4.5,-1.5625
1.549999999999989,-7.0,-5.0,5.0,2.0,-1.0,-1.0,0.0,-4.0,0.1962890625,-0.07305908203125,-0.06298828125,0.97576904296875,0.11376953125,0.3759765625,0.9287109375,-1.8125,-4.5,-1.5625
1.5549999999999888,-7.0,-5.0,5.0,2.0,-1.0,-1.0,0.0,-4.0,0.1962890625,-0.07305908203125,-0.06298828125,0.97576904296875,0.11376953125,0.3759765625,0.9287109375,-1.8125,-4.5,-1.5625
1.5599999999999887,-2.0,-13.0,7.0,-4.0,-2.0,0.0,0.0,-1.0,0.19549560546875,-0.07366943359375,-0.0633544921875,0.975830078125,0.126953125,0.3701171875,0.92138671875,-3.0,-3.8125,-1.375
1.5649999999999886,-2.0,-13.0,7.0,-4.0,-2.0,0.0,0.0,-1.0,0.19476318359375,-0.07403564453125,-0.06353759765625,0.9759521484375,0.11376953125,0.38427734375,0.92041015625,-3.625,-3.125,-0.3125
1.5699999999999885,-1.0,-4.0,-14.0,0.0,-1.0,-2.0,0.0,-1.0,0.19476318359375,-0.07403564453125,-0.06353759765625,0.9759521484375,0.11376953125,0.38427734375,0.92041015625,-3.625,-3.125,-0.3125
1.5749999999999884,-1.0,-4.0,-14.0,0.0,-1.0,-2.0,0.0,-1.0,0.19476318359375,-0.07403564453125,-0.06353759765625,0.9759521484375,0.11376953125,0.38427734375,0.92041015625,-3.625,-3.125,-0.3125
1.5799999999999883,1.0,7.0,-1.0,-1.0,-1.0,-2.0,-1.0,1.0,0.19378662109375,-0.074462890625,-0.0634765625,0.97613525390625,0.12060546875,0.3828125,0.9150390625,-5.125,-2.375,1.375
1.5849999999999882,1.0,7.0,-1.0,-1.0,-1.0,-2.0,-1.0,1.0,0.1927490234375,-0.07464599609375,-0.0631103515625,0.976318359375,0.12109375,0.36328125,0.9169921875,-4.5,-1.0625,2.5625
1.589999999999988,5.0,0.0,-3.0,1.0,0.0,0.0,0.0,-11.0,0.1927490234375,-0.07464599609375,-0.0631103515625,0.976318359375,0.12109375,0.36328125,0.9169921875,-4.5,-1.0625,2.5625
1.594999999999988,-1.0,7.0,-1.0,-4.0,-2.0,-1.0,0.0,4.0,0.191650390625,-0.0743408203125,-0.06182861328125,0.9766845703125,0.11865234375,0.373046875,0.9130859375,-1.875,2.0,4.0
1.5999999999999879,0.0,1.0,-9.0,-3.0,-1.0,-2.0,-1.0,-3.0,0.191650390625,-0.0743408203125,-0.06182861328125,0.9766845703125,0.11865234375,0.373046875,0.9130859375,-1.875,2.0,4.0
1.6049999999999878,-3.0,4.0,-7.0,-3.0,-1.0,-1.0,-1.0,-1.0,0.191650390625,-0.0743408203125,-0.06182861328125,0.9766845703125,0.11865234375,0.373046875,0.9130859375,-1.875,2.0,4.0
1.6099999999999877,3.0,-1.0,2.0,0.0,-3.0,-1.0,0.0,1.0,0.191162109375,-0.07391357421875,-0.06097412109375,0.97686767578125,0.1123046875,0.38134765625,0.9228515625,-2.4375,2.625,4.75
1.6149999999999876,-2.0,-5.0,0.0,4.0,-1.0,1.0,-2.0,-1.0,0.191162109375,-0.07391357421875,-0.06097412109375,0.97686767578125,0.1123046875,0.38134765625,0.9228515625,-2.4375,2.625,4.75
1.6199999999999875,-2.0,-5.0,0.0,4.0,-1.0,1.0,-2.0,-1.0,0.1907958984375,-0.073486328125,-0.05999755859375,0.97698974609375,0.10693359375,0.37548828125,0.92578125,-1.375,2.5,5.5625
1.6249999999999873,-2.0,-2.0,5.0,-1.0,0.0,-1.0,-1.0,-5.0,0.19073486328125,-0.07318115234375,-0.0589599609375,0.97711181640625,0.11572265625,0.37890625,0.92529296875,0.25,2.4375,5.5
1.6299999999999872,1.0,12.0,2.0,-1.0,-2.0,-1.0,1.0,3.0,0.19073486328125,-0.07318115234375,-0.0589599609375,0.97711181640625,0.11572265625,0.37890625,0.92529296875,0.25,2.4375,5.5
1.6349999999999871,1.0,12.0,2.0,-1.0,-2.0,-1.0,1.0,3.0,0.190673828125,-0.07281494140625,-0.0579833984375,0.9771728515625,0.1171875,0.37890625,0.92041015625,-0.0625,2.625,5.0625
1.639999999999987,-2.0,4.0,1.0,0.0,0.0,0.0,-1.0,-8.0,0.190673828125,-0.07281494140625,-0.0579833984375,0.9771728515625,0.1171875,0.37890625,0.92041015625,-0.0625,2.625,5.0625
1.644999999999987,0.0,18.0,-18.0,-5.0,-2.0,-1.0,-4.0,2.0,0.1905517578125,-0.07244873046875,-0.05718994140625,0.977294921875,0.11376953125,0.38232421875,0.923828125,-0.4375,2.5,4.4375
1.6499999999999868,-1.0,3.0,-12.0,-2.0,-1.0,0.0,1.0,2.0,0.1905517578125,-0.07244873046875,-0.05718994140625,0.977294921875,0.11376953125,0.38232421875,0.923828125,-0.4375,2.5,4.4375
1.6549999999999867,-3.0,0.0,-2.0,2.0,1.0,1.0,0.0,-4.0,0.19036865234375,-0.07220458984375,-0.0565185546875,0.9774169921875,0.11767578125,0.38916015625,0.92431640625,-1.375,1.875,3.625
1.6599999999999866,1.0,11.0,2.0,-2.0,-3.0,-1.0,-1.0,3.0,0.19036865234375,-0.07220458984375,-0.0565185546875,0.9774169921875,0.11767578125,0.38916015625,0.92431640625,-1.375,1.875,3.625
1.6649999999999865,1.0,11.0,2.0,-2.0,-3.0,-1.0,-1.0,3.0,0.19036865234375,-0.07220458984375,-0.0565185546875,0.9774169921875,0.11767578125,0.38916015625,0.92431640625,-1.375,1.875,3.625
1.6699999999999864,-1.0,-3.0,-3.0,-1.0,-1.0,0.0,0.0,-1.0,0.19000244140625,-0.07208251953125,-0.055908203125,0.97747802734375,0.12255859375,0.37890625,0.9208984375,-1.6875,1.5,3.3125
1.6749999999999863,-2.0,-7.0,-5.0,0.0,0.0,-2.0,-1.0,-4.0,0.19000244140625,-0.07196044921875,-0.055419921875,0.9775390625,0.12158203125,0.38525390625,0.912109375,-0.4375,1.375,2.625
1.6799999999999862,-1.0,-4.0,13.0,1.0,-2.0,-1.0,-1.0,-8.0,0.190185546875,-0.0718994140625,-0.05499267578125,0.9775390625,0.1259765625,0.39208984375,0.9169921875,0.1875,1.1875,2.3125
1.684999999999986,-1.0,-4.0,13.0,1.0,-2.0,-1.0,-1.0,-8.0,0.190185546875,-0.0718994140625,-0.05499267578125,0.9775390625,0.1259765625,0.39208984375,0.9169921875,0.1875,1.1875,2.3125
1.689999999999986,3.0,4.0,2.0,0.0,1.0,-1.0,0.0,0.0,0.19036865234375,-0.0718994140625,-0.05462646484375,0.9775390625,0.119140625,0.390625,0.92138671875,0.5,0.4375,1.75
1.6949999999999859,3.0,4.0,2.0,0.0,1.0,-1.0,0.0,0.0,0.19036865234375,-0.0718994140625,-0.05462646484375,0.9775390625,0.119140625,0.390625,0.92138671875,0.5,0.4375,1.75
1.6999999999999857,2.0,0.0,-6.0,-2.0,-3.0,-2.0,-2.0,-5.0,0.19036865234375,-0.0718994140625,-0.05462646484375,0.9775390625,0.119140625,0.390625,0.92138671875,0.5,0.4375,1.75
1.7049999999999856,-1.0,2.0,-8.0,0.0,-1.0,-1.0,-1.0,5.0,0.1905517578125,-0.07196044921875,-0.05438232421875,0.97747802734375,0.1220703125,0.38818359375,0.92138671875,0.8125,0.125,1.5
1.7099999999999855,-1.0,2.0,-8.0,0.0,-1.0,-1.0,-1.0,5.0,0.1905517578125,-0.07196044921875,-0.05438232421875,0.97747802734375,0.1220703125,0.38818359375,0.92138671875,0.8125,0.125,1.5
1.7149999999999854,-4.0,-17.0,0.0,1.0,0.0,0.0,-3.0,-7.0,0.19097900390625,-0.07196044921875,-0.05426025390625,0.9774169921875,0.12158203125,0.388671875,0.9130859375,1.875,0.125,0.5625
1.7199999999999853,-3.0,-7.0,-32.0,-10.0,-2.0,-1.0,-3.0,-4.0,0.1912841796875,-0.072021484375,-0.05426025390625,0.97735595703125,0.1220703125,0.38720703125,0.92529296875,1.875,-0.25,-0.375
1.7249999999999852,0.0,-6.0,2.0,0.0,2.0,-1.0,1.0,0.0,0.1912841796875,-0.072021484375,-0.05426025390625,0.97735595703125,0.1220703125,0.38720703125,0.92529296875,1.875,-0.25,-0.375
1.729999999999985,-1.0,-17.0,17.0,2.0,2.0,-1.0,0.0,-2.0,0.191650390625,-0.07208251953125,-0.05438232421875,0.977294921875,0.11865234375,0.3837890625,0.92333984375,2.0625,-0.4375,-0.75
1.734999999999985,0.0,-10.0,-4.0,-3.0,-3.0,-3.0,-2.0,2.0,0.191650390625,-0.07208251953125,-0.05438232421875,0.977294921875,0.11865234375,0.3837890625,0.92333984375,2.0625,-0.4375,-0.75
1.739999999999985,-3.0,-8.0,-2.0,-1.0,0.0,-2.0,-3.0,-1.0,0.19183349609375,-0.07232666015625,-0.05462646484375,0.97723388671875,0.134765625,0.37939453125,0.91748046875,1.125,-0.8125,-1.625
1.7449999999999848,-3.0,-8.0,-2.0,-1.0,0.0,-2.0,-3.0,-1.0,0.19183349609375,-0.07232666015625,-0.05462646484375,0.97723388671875,0.134765625,0.37939453125,0.91748046875,1.125,-0.8125,-1.625
1.7499999999999847,-3.0,-5.0,7.0,5.0,1.0,0.0,-1.0,-10.0,0.191650390625,-0.07257080078125,-0.05499267578125,0.9771728515625,0.13232421875,0.3623046875,0.91162109375,0.375,-0.9375,-2.0625
1.7549999999999846,-1.0,0.0,7.0,2.0,1.0,-1.0,-1.0,0.0,0.191650390625,-0.07257080078125,-0.05499267578125,0.9771728515625,0.13232421875,0.3623046875,0.91162109375,0.375,-0.9375,-2.0625
1.7599999999999845,-1.0,0.0,7.0,2.0,1.0,-1.0,-1.0,0.0,0.19195556640625,-0.07269287109375,-0.05535888671875,0.97711181640625,0.1123046875,0.37109375,0.9326171875,2.625,-1.875,-1.875
1.7649999999999844,3.0,8.0,-8.0,-3.0,-2.0,-1.0,-1.0,1.0,0.19195556640625,-0.07269287109375,-0.05535888671875,0.97711181640625,0.1123046875,0.37109375,0.9326171875,2.625,-1.875,-1.875
1.7699999999999843,-3.0,2.0,14.0,5.0,-2.0,-1.0,-1.0,-3.0,0.19232177734375,-0.0731201171875,-0.05560302734375,0.97698974609375,0.11669921875,0.37548828125,0.9189453125,3.0,-2.9375,-1.0625
1.7749999999999841,-2.0,19.0,1.0,-2.0,-2.0,0.0,-2.0,0.0,0.19232177734375,-0.0731201171875,-0.05560302734375,0.97698974609375,0.11669921875,0.37548828125,0.9189453125,3.0,-2.9375,-1.0625
1.779999999999984,-1.0,15.0,-1.0,-4.0,-3.0,-1.0,-1.0,1.0,0.19232177734375,-0.0736083984375,-0.0557861328125,0.9769287109375,0.125,0.37109375,0.90771484375,0.75,-2.8125,-0.9375
1.784999999999984,-3.0,-7.0,-28.0,-7.0,-3.0,0.0,0.0,-1.0,0.19232177734375,-0.0736083984375,-0.0557861328125,0.9769287109375,0.125,0.37109375,0.90771484375,0.75,-2.8125,-0.9375
1.7899999999999838,1.0,1.0,3.0,-1.0,0.0,-1.0,0.0,1.0,0.192138671875,-0.07391357421875,-0.05596923828125,0.9769287109375,0.12548828125,0.37060546875,0.90869140625,-0.5625,-1.6875,-0.6875
1.7949999999999837,-1.0,-1.0,10.0,3.0,2.0,0.0,0.0,0.0,0.192138671875,-0.07391357421875,-0.05596923828125,0.9769287109375,0.12548828125,0.37060546875,0.90869140625,-0.5625,-1.6875,-0.6875
1.7999999999999836,-1.0,-1.0,10.0,3.0,2.0,0.0,0.0,0.0,0.192138671875,-0.07391357421875,-0.05596923828125,0.9769287109375,0.12548828125,0.376953125,0.908203125,-0.75,-0.375,-0.1875
1.8049999999999835,1.0,10.0,13.0,0.0,0.0,-1.0,-2.0,-6.0,0.1920166015625,-0.07373046875,-0.0557861328125,0.97698974609375,0.11865234375,0.38134765625,0.90478515625,-0.75,1.125,0.9375
1.8099999999999834,1.0,-10.0,-10.0,-2.0,0.0,-1.0,0.0,-1.0,0.19219970703125,-0.07342529296875,-0.05535888671875,0.97698974609375,0.1181640625,0.38134765625,0.9111328125,1.0625,1.875,1.8125
1.8149999999999833,-3.0,1.0,-3.0,-1.0,-3.0,-2.0,-1.0,0.0,0.19219970703125,-0.07342529296875,-0.05535888671875,0.97698974609375,0.1181640625,0.38134765625,0.9111328125,1.0625,1.875,1.8125
1.8199999999999832,-4.0,-9.0,1.0,-3.0,-3.0,-1.0,-2.0,-1.0,0.1925048828125,-0.0731201171875,-0.05487060546875,0.97698974609375,0.11865234375,0.38232421875,0.91015625,1.625,2.25,2.25
1.824999999999983,-4.0,-9.0,1.0,-3.0,-3.0,-1.0,-2.0,-1.0,0.1925048828125,-0.0731201171875,-0.05487060546875,0.97698974609375,0.11865234375,0.38232421875,0.91015625,1.625,2.25,2.25
1.829999999999983,-3.0,0.0,14.0,2.0,0.0,0.0,0.0,3.0,0.19268798828125,-0.07269287109375,-0.054443359375,0.97698974609375,0.11669921875,0.384765625,0.91796875,1.125,2.4375,2.125
1.8349999999999829,-3.0,0.0,14.0,2.0,0.0,0.0,0.0,3.0,0.19268798828125,-0.07269287109375,-0.054443359375,0.97698974609375,0.11669921875,0.384765625,0.91796875,1.125,2.4375,2.125
1.8399999999999828,0.0,7.0,2.0,0.0,-1.0,0.0,0.0,-2.0,0.19268798828125,-0.07269287109375,-0.054443359375,0.97698974609375,0.11669921875,0.384765625,0.91796875,1.125,2.4375,2.125
1.8449999999999827,1.0,7.0,-4.0,0.0,0.0,-2.0,-2.0,0.0,0.19293212890625,-0.07196044921875,-0.0537109375,0.97705078125,0.1142578125,0.3818359375,0.92578125,1.625,1.5,1.25
1.8499999999999825,1.0,7.0,-4.0,0.0,0.0,-2.0,-2.0,0.0,0.19305419921875,-0.07183837890625,-0.0535888671875,0.97705078125,0.1220703125,0.38818359375,0.92822265625,0.8125,1.0625,0.6875
1.8549999999999824,1.0,7.0,-4.0,0.0,0.0,-2.0,-2.0,0.0,0.19305419921875,-0.07183837890625,-0.0535888671875,0.97705078125,0.1220703125,0.38818359375,0.92822265625,0.8125,1.0625,0.6875
1.8599999999999823,-3.0,5.0,-1.0,0.0,-3.0,-3.0,-1.0,-1.0,0.19305419921875,-0.07183837890625,-0.0535888671875,0.97705078125,0.11474609375,0.38427734375,0.92626953125,0.125,0.625,0.3125
1.8649999999999822,2.0,3.0,-3.0,-2.0,-2.0,-1.0,0.0,0.0,0.19305419921875,-0.07183837890625,-0.0535888671875,0.97705078125,0.11474609375,0.38427734375,0.92626953125,0.125,0.625,0.3125
1.8699999999999821,0.0,1.0,-16.0,-3.0,-1.0,1.0,-1.0,-3.0,0.19305419921875,-0.07183837890625,-0.0535888671875,0.97705078125,0.11669921875,0.38623046875,0.92626953125,0.3125,0.5,-0.1875
1.874999999999982,0.0,1.0,-16.0,-3.0,-1.0,1.0,-1.0,-3.0,0.19305419921875,-0.07177734375,-0.0535888671875,0.97705078125,0.119140625,0.38916015625,0.91943359375,0.125,0.625,-0.5625
1.879999999999982,-2.0,-3.0,2.0,-1.0,-1.0,0.0,-1.0,-7.0,0.1932373046875,-0.0716552734375,-0.0535888671875,0.97705078125,0.12158203125,0.38427734375,0.9130859375,1.0,1.0,-0.5625
1.8849999999999818,-1.0,-6.0,-11.0,0.0,-1.0,-1.0,0.0,0.0,0.19342041015625,-0.0714111328125,-0.05364990234375,0.97698974609375,0.11474609375,0.3798828125,0.9267578125,1.5625,1.1875,-0.5625
1.8899999999999817,-2.0,2.0,8.0,-3.0,-2.0,-2.0,-3.0,1.0,0.19378662109375,-0.071044921875,-0.05364990234375,0.9769287109375,0.10302734375,0.37451171875,0.93408203125,3.5,0.8125,-0.3125
1.8949999999999816,-2.0,2.0,8.0,-3.0,-2.0,-2.0,-3.0,1.0,0.19378662109375,-0.071044921875,-0.05364990234375,0.9769287109375,0.10302734375,0.37451171875,0.93408203125,3.5,0.8125,-0.3125
1.8999999999999815,1.0,6.0,2.0,3.0,-2.0,-1.0,-1.0,-1.0,0.1943359375,-0.07086181640625,-0.05364990234375,0.97686767578125,0.111328125,0.37939453125,0.921875,3.5625,0.8125,-0.375
1.9049999999999814,-3.0,3.0,1.0,-1.0,-1.0,0.0,-1.0,0.0,0.19464111328125,-0.070556640625,-0.0537109375,0.976806640625,0.109375,0.3857421875,0.916015625,1.875,0.9375,-0.6875
1.9099999999999813,-1.0,-2.0,-4.0,-1.0,1.0,-2.0,0.0,2.0,0.19464111328125,-0.07025146484375,-0.05377197265625,0.97686767578125,0.111328125,0.3779296875,0.9169921875,0.4375,1.4375,-0.75
1.9149999999999812,-6.0,-1.0,-2.0,0.0,2.0,1.0,0.0,-2.0,0.19464111328125,-0.07025146484375,-0.05377197265625,0.97686767578125,0.111328125,0.3779296875,0.9169921875,0.4375,1.4375,-0.75
1.919999999999981,3.0,3.0,0.0,-4.0,-2.0,-2.0,-1.0,3.0,0.1947021484375,-0.06982421875,-0.05377197265625,0.97686767578125,0.1123046875,0.37890625,0.91650390625,1.125,2.1875,-0.3125
1.924999999999981,3.0,3.0,0.0,-4.0,-2.0,-2.0,-1.0,3.0,0.1947021484375,-0.06982421875,-0.05377197265625,0.97686767578125,0.1123046875,0.37890625,0.91650390625,1.125,2.1875,-0.3125
1.9299999999999808,1.0,-4.0,1.0,2.0,0.0,1.0,-1.0,3.0,0.1949462890625,-0.0693359375,-0.0535888671875,0.97686767578125,0.1162109375,0.3876953125,0.90380859375,0.875,3.3125,0.25
1.9349999999999807,1.0,-7.0,11.0,2.0,-2.0,-1.0,0.0,-2.0,0.19488525390625,-0.06866455078125,-0.05328369140625,0.9769287109375,0.1162109375,0.384765625,0.90625,-0.4375,4.0,0.9375
1.9399999999999806,-1.0,-8.0,-1.0,-2.0,-3.0,-1.0,-1.0,-1.0,0.19488525390625,-0.06866455078125,-0.05328369140625,0.9769287109375,0.1162109375,0.384765625,0.90625,-0.4375,4.0,0.9375
1.9449999999999805,-1.0,-8.0,-1.0,-2.0,-3.0,-1.0,-1.0,-1.0,0.19482421875,-0.06793212890625,-0.05279541015625,0.97705078125,0.111328125,0.369140625,0.9072265625,0.3125,4.625,1.625
1.9499999999999804,1.0,-2.0,-6.0,-1.0,-1.0,-2.0,0.0,1.0,0.195068359375,-0.0672607421875,-0.05224609375,0.97705078125,0.1064453125,0.3720703125,0.9072265625,2.25,4.3125,2.3125
1.9549999999999803,2.0,11.0,-3.0,-2.0,-1.0,-1.0,-1.0,-2.0,0.19561767578125,-0.066650390625,-0.05169677734375,0.97698974609375,0.10986328125,0.38134765625,0.9052734375,3.1875,4.0625,2.3125
1.9599999999999802,4.0,2.0,-2.0,-1.0,-3.0,1.0,1.0,2.0,0.19561767578125,-0.066650390625,-0.05169677734375,0.97698974609375,0.10986328125,0.38134765625,0.9052734375,3.1875,4.0625,2.3125
1.96499999999998,1.0,0.0,1.0,1.0,-2.0,-2.0,0.0,-2.0,0.19561767578125,-0.066650390625,-0.05169677734375,0.97698974609375,0.10986328125,0.38134765625,0.9052734375,3.1875,4.0625,2.3125
1.96999999999998,-1.0,5.0,-5.0,-2.0,-1.0,-1.0,-1.0,-1.0,0.19598388671875,-0.06561279296875,-0.050537109375,0.97705078125,0.10205078125,0.376953125,0.9169921875,1.4375,3.125,2.6875
1.9749999999999799,-1.0,-5.0,-9.0,-1.0,-1.0,0.0,0.0,-1.0,0.19598388671875,-0.06561279296875,-0.050537109375,0.97705078125,0.10205078125,0.376953125,0.9169921875,1.4375,3.125,2.6875
1.9799999999999798,-7.0,0.0,-17.0,-4.0,-1.0,0.0,-2.0,-4.0,0.19622802734375,-0.06536865234375,-0.04998779296875,0.97705078125,0.109375,0.37744140625,0.90576171875,2.125,2.125,2.25
1.9849999999999797,0.0,-1.0,-2.0,-2.0,1.0,-1.0,0.0,0.0,0.19622802734375,-0.06536865234375,-0.04998779296875,0.97705078125,0.109375,0.37744140625,0.90576171875,2.125,2.125,2.25
1.9899999999999796,-2.0,1.0,10.0,-1.0,0.0,-1.0,0.0,0.0,0.19622802734375,-0.06536865234375,-0.04998779296875,0.97705078125,0.109375,0.37744140625,0.90576171875,2.125,2.125,2.25
1.9949999999999795,-2.0,1.0,10.0,-1.0,0.0,-1.0,0.0,0.0,0.19671630859375,-0.065185546875,-0.04962158203125,0.97698974609375,0.10546875,0.39306640625,0.90283203125,2.3125,1.5,1.6875
1.9999999999999793,0.0,0.0,1.0,0.0,0.0,-2.0,-1.0,-1.0,0.19671630859375,-0.065185546875,-0.04962158203125,0.97698974609375,0.10546875,0.39306640625,0.90283203125,2.3125,1.5,1.6875
2.0049999999999795,-1.0,-3.0,-2.0,-2.0,-2.0,-1.0,-1.0,-1.0,0.19683837890625,-0.06500244140625,-0.04937744140625,0.97698974609375,0.10498046875,0.39697265625,0.900390625,0.0,1.3125,1.4375
2.0099999999999794,-1.0,-3.0,-2.0,-2.0,-2.0,-1.0,-1.0,-1.0,0.19683837890625,-0.06500244140625,-0.04937744140625,0.97698974609375,0.10498046875,0.39697265625,0.900390625,0.0,1.3125,1.4375
2.0149999999999793,-1.0,8.0,4.0,2.0,1.0,-1.0,-1.0,1.0,0.19683837890625,-0.06500244140625,-0.04937744140625,0.97698974609375,0.10498046875,0.39697265625,0.900390625,0.0,1.3125,1.4375
2.019999999999979,-1.0,4.0,1.0,2.0,-1.0,0.0,0.0,2.0,0.1968994140625,-0.0648193359375,-0.049072265625,0.97698974609375,0.10302734375,0.3916015625,0.90869140625,0.0,0.9375,1.375
2.024999999999979,-4.0,-8.0,1.0,-2.0,-1.0,-2.0,-3.0,-1.0,0.1968994140625,-0.0648193359375,-0.049072265625,0.97698974609375,0.10302734375,0.3916015625,0.90869140625,0.0,0.9375,1.375
2.029999999999979,-4.0,-8.0,-10.0,-4.0,-1.0,-1.0,-2.0,-2.0,0.197021484375,-0.06475830078125,-0.04888916015625,0.97698974609375,0.10302734375,0.38671875,0.9130859375,1.125,0.3125,1.1875
2.034999999999979,3.0,-10.0,6.0,3.0,0.0,-2.0,-1.0,-4.0,0.19744873046875,-0.06475830078125,-0.0487060546875,0.9769287109375,0.10595703125,0.39208984375,0.90576171875,2.25,0.4375,0.6875
2.0399999999999787,3.0,-10.0,6.0,3.0,0.0,-2.0,-1.0,-4.0,0.19744873046875,-0.06475830078125,-0.0487060546875,0.9769287109375,0.10595703125,0.39208984375,0.90576171875,2.25,0.4375,0.6875
2.0449999999999786,0.0,-5.0,-1.0,0.0,-5.0,-1.0,-2.0,-1.0,0.197509765625,-0.06475830078125,-0.0487060546875,0.9769287109375,0.1083984375,0.40625,0.8994140625,0.5,0.6875,0.4375
2.0499999999999785,-4.0,3.0,-6.0,0.0,0.0,0.0,1.0,0.0,0.197509765625,-0.06475830078125,-0.0487060546875,0.9769287109375,0.1083984375,0.40625,0.8994140625,0.5,0.6875,0.4375
2.0549999999999784,0.0,-3.0,-11.0,-5.0,-2.0,-1.0,-2.0,0.0,0.197509765625,-0.06475830078125,-0.0487060546875,0.9769287109375,0.1083984375,0.40625,0.8994140625,0.5,0.6875,0.4375
2.0599999999999783,-3.0,7.0,-2.0,0.0,1.0,1.0,-1.0,0.0,0.19781494140625,-0.064697265625,-0.04864501953125,0.97686767578125,0.09912109375,0.392578125,0.923828125,1.9375,-0.1875,0.25
2.064999999999978,-3.0,7.0,-2.0,0.0,1.0,1.0,-1.0,0.0,0.19781494140625,-0.064697265625,-0.04864501953125,0.97686767578125,0.09912109375,0.392578125,0.923828125,1.9375,-0.1875,0.25
2.069999999999978,-2.0,3.0,5.0,0.0,1.0,1.0,3.0,-1.0,0.19830322265625,-0.06475830078125,-0.04864501953125,0.97674560546875,0.09716796875,0.380859375,0.9228515625,3.9375,-0.875,0.1875
2.074999999999978,0.0,18.0,1.0,-5.0,-4.0,-1.0,-1.0,-1.0,0.19830322265625,-0.06475830078125,-0.04864501953125,0.97674560546875,0.09716796875,0.380859375,0.9228515625,3.9375,-0.875,0.1875
2.079999999999978,-3.0,7.0,-5.0,-2.0,-1.0,0.0,-1.0,-2.0,0.19830322265625,-0.06475830078125,-0.04864501953125,0.97674560546875,0.09716796875,0.380859375,0.9228515625,3.9375,-0.875,0.1875
2.0849999999999778,-3.0,7.0,-5.0,-2.0,-1.0,0.0,-1.0,-2.0,0.19830322265625,-0.06475830078125,-0.04864501953125,0.97674560546875,0.09716796875,0.380859375,0.9228515625,3.9375,-0.875,0.1875
2.0899999999999777,0.0,-7.0,-3.0,-1.0,0.0,1.0,-2.0,4.0,0.19927978515625,-0.064697265625,-0.04925537109375,0.9765625,0.1015625,0.39208984375,0.92724609375,0.625,0.0,-1.25
2.0949999999999775,3.0,3.0,-3.0,-2.0,-3.0,-1.0,-2.0,0.0,0.19970703125,-0.064697265625,-0.0494384765625,0.9764404296875,0.109375,0.38818359375,0.91552734375,3.1875,0.0,-1.375
2.0999999999999774,-6.0,-3.0,0.0,-2.0,-1.0,-1.0,-1.0,0.0,0.19970703125,-0.064697265625,-0.0494384765625,0.9764404296875,0.109375,0.38818359375,0.91552734375,3.1875,0.0,-1.375
2.1049999999999773,-4.0,-10.0,9.0,-2.0,-2.0,-3.0,-2.0,1.0,0.2005615234375,-0.064697265625,-0.04962158203125,0.97625732421875,0.10986328125,0.40185546875,0.8974609375,4.125,0.375,-1.5625
2.1099999999999772,-4.0,2.0,1.0,-2.0,0.0,-2.0,-2.0,0.0,0.2005615234375,-0.064697265625,-0.04962158203125,0.97625732421875,0.10986328125,0.40185546875,0.8974609375,4.125,0.375,-1.5625
2.114999999999977,-1.0,-3.0,4.0,2.0,-1.0,0.0,0.0,0.0,0.2005615234375,-0.064697265625,-0.04962158203125,0.97625732421875,0.10986328125,0.40185546875,0.8974609375,4.125,0.375,-1.5625
2.119999999999977,-1.0,-3.0,4.0,2.0,-1.0,0.0,0.0,0.0,0.200927734375,-0.06451416015625,-0.04974365234375,0.9761962890625,0.111328125,0.39794921875,0.89697265625,1.875,1.25,-1.375
2.124999999999977,-4.0,-1.0,-4.0,0.0,0.0,-3.0,-3.0,-12.0,0.2010498046875,-0.0643310546875,-0.0498046875,0.97613525390625,0.1083984375,0.3837890625,0.9169921875,1.75,1.25,-0.8125
2.129999999999977,-4.0,-1.0,-4.0,0.0,0.0,-3.0,-3.0,-12.0,0.2010498046875,-0.0643310546875,-0.0498046875,0.97613525390625,0.1083984375,0.3837890625,0.9169921875,1.75,1.25,-0.8125
2.1349999999999767,2.0,9.0,-6.0,-4.0,-2.0,1.0,1.0,2.0,0.2010498046875,-0.0643310546875,-0.0498046875,0.97613525390625,0.1083984375,0.3837890625,0.9169921875,1.75,1.25,-0.8125
2.1399999999999766,2.0,1.0,-3.0,-2.0,-2.0,-1.0,-3.0,-7.0,0.2012939453125,-0.064208984375,-0.0498046875,0.97613525390625,0.10498046875,0.38330078125,0.908203125,2.1875,0.8125,-0.5
2.1449999999999765,-3.0,6.0,4.0,-4.0,-1.0,0.0,0.0,2.0,0.2012939453125,-0.064208984375,-0.0498046875,0.97613525390625,0.10498046875,0.38330078125,0.908203125,2.1875,0.8125,-0.5
2.1499999999999764,-3.0,6.0,4.0,-4.0,-1.0,0.0,0.0,2.0,0.2017822265625,-0.06414794921875,-0.04986572265625,0.97601318359375,0.107421875,0.39208984375,0.89453125,2.6875,0.5625,-0.75
2.1549999999999763,-4.0,3.0,6.0,3.0,1.0,-2.0,-1.0,-17.0,0.2017822265625,-0.06414794921875,-0.04986572265625,0.97601318359375,0.107421875,0.39208984375,0.89453125,2.6875,0.5625,-0.75
2.159999999999976,1.0,-3.0,-6.0,-2.0,-1.0,0.0,-1.0,9.0,0.2017822265625,-0.0640869140625,-0.04986572265625,0.97601318359375,0.09765625,0.396484375,0.90869140625,0.6875,0.3125,-0.5625
2.164999999999976,-2.0,-5.0,-1.0,0.0,-1.0,-1.0,0.0,12.0,0.2017822265625,-0.0640869140625,-0.04986572265625,0.97601318359375,0.09765625,0.396484375,0.90869140625,0.6875,0.3125,-0.5625
2.169999999999976,-2.0,-5.0,-1.0,0.0,-1.0,-1.0,0.0,12.0,0.20172119140625,-0.0640869140625,-0.04986572265625,0.97601318359375,0.09765625,0.3837890625,0.91650390625,0.9375,-0.0625,-0.25
2.174999999999976,-2.0,-5.0,-1.0,0.0,-1.0,-1.0,0.0,12.0,0.20172119140625,-0.0640869140625,-0.04986572265625,0.97601318359375,0.09765625,0.3837890625,0.91650390625,0.9375,-0.0625,-0.25
2.1799999999999757,4.0,-2.0,-14.0,-7.0,-3.0,-1.0,0.0,5.0,0.20172119140625,-0.0640869140625,-0.04986572265625,0.97601318359375,0.09765625,0.3837890625,0.91650390625,0.9375,-0.0625,-0.25
2.1849999999999756,4.0,-2.0,-14.0,-7.0,-3.0,-1.0,0.0,5.0,0.201904296875,-0.06414794921875,-0.0499267578125,0.97601318359375,0.1044921875,0.38037109375,0.904296875,2.1875,-0.5,-0.375
2.1899999999999755,-4.0,4.0,-2.0,0.0,-1.0,-1.0,-3.0,3.0,0.201904296875,-0.06414794921875,-0.0499267578125,0.97601318359375,0.10400390625,0.3994140625,0.89794921875,0.6875,-0.4375,-0.5
2.1949999999999754,-6.0,1.0,8.0,3.0,-1.0,-1.0,-1.0,-13.0,0.201904296875,-0.06414794921875,-0.0499267578125,0.97601318359375,0.10400390625,0.3994140625,0.89794921875,0.6875,-0.4375,-0.5
2.1999999999999753,-1.0,4.0,-4.0,0.0,-2.0,-1.0,1.0,-1.0,0.201904296875,-0.06414794921875,-0.0499267578125,0.97601318359375,0.10400390625,0.3994140625,0.89794921875,0.6875,-0.4375,-0.5
2.204999999999975,-1.0,4.0,-4.0,0.0,-2.0,-1.0,1.0,-1.0,0.20166015625,-0.0640869140625,-0.04998779296875,0.97607421875,0.0966796875,0.400390625,0.90966796875,-1.625,-0.1875,-0.3125
2.209999999999975,-4.0,-14.0,2.0,0.0,-1.0,-1.0,-2.0,-19.0,0.20159912109375,-0.06402587890625,-0.04998779296875,0.97607421875,0.09716796875,0.3876953125,0.91259765625,-0.75,-0.125,0.375
2.214999999999975,-4.0,-14.0,2.0,0.0,-1.0,-1.0,-2.0,-19.0,0.20159912109375,-0.06402587890625,-0.04998779296875,0.97607421875,0.09716796875,0.3876953125,0.91259765625,-0.75,-0.125,0.375
2.219999999999975,2.0,3.0,-8.0,-1.0,1.0,1.0,1.0,11.0,0.2017822265625,-0.0640869140625,-0.0499267578125,0.97601318359375,0.10009765625,0.392578125,0.9091796875,1.5625,-0.25,0.375
2.2249999999999748,2.0,2.0,9.0,2.0,0.0,-1.0,-1.0,2.0,0.2017822265625,-0.06402587890625,-0.0499267578125,0.97601318359375,0.1015625,0.39697265625,0.9013671875,0.1875,-0.25,0.5625
2.2299999999999747,-2.0,1.0,-3.0,-2.0,-2.0,-3.0,-2.0,2.0,0.2017822265625,-0.06402587890625,-0.0499267578125,0.97601318359375,0.1015625,0.39697265625,0.9013671875,0.1875,-0.25,0.5625
2.2349999999999746,-1.0,-4.0,-1.0,1.0,0.0,0.0,0.0,-3.0,0.2017822265625,-0.06402587890625,-0.0499267578125,0.97601318359375,0.09521484375,0.39697265625,0.91845703125,-0.5625,-0.4375,0.25
2.2399999999999745,-1.0,-4.0,-1.0,1.0,0.0,0.0,0.0,-3.0,0.2017822265625,-0.06402587890625,-0.0499267578125,0.97601318359375,0.09521484375,0.39697265625,0.91845703125,-0.5625,-0.4375,0.25
2.2449999999999743,1.0,0.0,-4.0,0.0,-1.0,0.0,0.0,4.0,0.2017822265625,-0.06402587890625,-0.0499267578125,0.97601318359375,0.10107421875,0.38818359375,0.91357421875,-0.5625,-0.8125,0.5
2.2499999999999742,-4.0,1.0,-24.0,-10.0,-2.0,-1.0,-1.0,-9.0,0.2017822265625,-0.06402587890625,-0.0499267578125,0.97601318359375,0.10107421875,0.38818359375,0.91357421875,-0.5625,-0.8125,0.5
2.254999999999974,-4.0,1.0,-24.0,-10.0,-2.0,-1.0,-1.0,-9.0,0.20172119140625,-0.06402587890625,-0.0499267578125,0.97601318359375,0.1044921875,0.3935546875,0.9130859375,-0.125,-0.6875,0.375
2.259999999999974,-3.0,-1.0,0.0,-2.0,-2.0,-2.0,-1.0,5.0,0.20172119140625,-0.06402587890625,-0.0499267578125,0.97601318359375,0.1044921875,0.3935546875,0.9130859375,-0.125,-0.6875,0.375
2.264999999999974,0.0,-9.0,10.0,1.0,-1.0,-2.0,-3.0,9.0,0.20172119140625,-0.06396484375,-0.0499267578125,0.97601318359375,0.0986328125,0.3974609375,0.916015625,-0.25,-0.5,0.4375
2.269999999999974,-14.0,-5.0,3.0,2.0,-3.0,-2.0,-3.0,-19.0,0.20172119140625,-0.06396484375,-0.0499267578125,0.97601318359375,0.0986328125,0.3974609375,0.916015625,-0.25,-0.5,0.4375
2.2749999999999737,-1.0,9.0,4.0,-1.0,-1.0,-1.0,-1.0,2.0,0.20172119140625,-0.06396484375,-0.0499267578125,0.97601318359375,0.10009765625,0.3955078125,0.91455078125,0.125,-0.5,0.4375
2.2799999999999736,4.0,5.0,-2.0,-2.0,0.0,0.0,0.0,3.0,0.20172119140625,-0.06396484375,-0.0499267578125,0.97601318359375,0.10009765625,0.3955078125,0.91455078125,0.125,-0.5,0.4375
2.2849999999999735,4.0,5.0,-2.0,-2.0,0.0,0.0,0.0,3.0,0.20166015625,-0.06396484375,-0.04998779296875,0.97607421875,0.1025390625,0.39404296875,0.91455078125,0.3125,-0.3125,0.5
2.2899999999999734,-2.0,0.0,3.0,-1.0,-2.0,-2.0,-1.0,-1.0,0.20166015625,-0.06396484375,-0.04998779296875,0.97607421875,0.10302734375,0.39501953125,0.908203125,0.25,-0.1875,0.4375
2.2949999999999733,0.0,1.0,-12.0,-4.0,-2.0,0.0,-5.0,-10.0,0.20166015625,-0.06396484375,-0.04998779296875,0.97607421875,0.10302734375,0.39501953125,0.908203125,0.25,-0.1875,0.4375
2.299999999999973,0.0,1.0,-12.0,-4.0,-2.0,0.0,-5.0,-10.0,0.20166015625,-0.06396484375,-0.04998779296875,0.97607421875,0.10400390625,0.39599609375,0.91552734375,0.3125,-0.125,0.4375
2.304999999999973,3.0,11.0,3.0,0.0,-3.0,-1.0,-1.0,3.0,0.20166015625,-0.06396484375,-0.04998779296875,0.97607421875,0.10400390625,0.39599609375,0.91552734375,0.3125,-0.125,0.4375
2.309999999999973,3.0,11.0,3.0,0.0,-3.0,-1.0,-1.0,3.0,0.20166015625,-0.06390380859375,-0.04998779296875,0.97607421875,0.09521484375,0.39501953125,0.91259765625,0.9375,-0.25,0.3125
2.314999999999973,3.0,11.0,3.0,0.0,-3.0,-1.0,-1.0,3.0,0.20166015625,-0.06390380859375,-0.04998779296875,0.97607421875,0.09521484375,0.39501953125,0.91259765625,0.9375,-0.25,0.3125
2.3199999999999728,1.0,10.0,3.0,0.0,2.0,-3.0,-1.0,3.0,0.20166015625,-0.06390380859375,-0.04998779296875,0.97607421875,0.0986328125,0.39794921875,0.91455078125,0.625,-0.4375,0.375
2.3249999999999726,0.0,-4.0,-14.0,-3.0,-4.0,-1.0,0.0,4.0,0.20159912109375,-0.06390380859375,-0.04998779296875,0.97607421875,0.10546875,0.39404296875,0.904296875,0.0,-0.4375,0.1875
2.3299999999999725,1.0,12.0,19.0,6.0,2.0,-1.0,-1.0,1.0,0.20159912109375,-0.06390380859375,-0.04998779296875,0.97607421875,0.10546875,0.39404296875,0.904296875,0.0,-0.4375,0.1875
2.3349999999999724,1.0,12.0,19.0,6.0,2.0,-1.0,-1.0,1.0,0.20159912109375,-0.06390380859375,-0.04998779296875,0.97607421875,0.10595703125,0.392578125,0.9111328125,-0.9375,-0.125,-0.125
2.3399999999999723,0.0,0.0,-1.0,-1.0,0.0,-1.0,-1.0,-2.0,0.20159912109375,-0.06390380859375,-0.04998779296875,0.97607421875,0.10595703125,0.392578125,0.9111328125,-0.9375,-0.125,-0.125
2.344999999999972,-1.0,-2.0,5.0,1.0,1.0,-1.0,5.0,1.0,0.20159912109375,-0.06390380859375,-0.04998779296875,0.97607421875,0.10205078125,0.3994140625,0.91845703125,-0.6875,-0.3125,-0.1875
2.349999999999972,-1.0,-2.0,5.0,1.0,1.0,-1.0,5.0,1.0,0.20159912109375,-0.06390380859375,-0.04998779296875,0.97607421875,0.10205078125,0.3994140625,0.91845703125,-0.6875,-0.3125,-0.1875
2.354999999999972,-1.0,2.0,-4.0,-5.0,-2.0,1.0,5.0,4.0,0.20159912109375,-0.06390380859375,-0.04998779296875,0.97607421875,0.10205078125,0.3994140625,0.91845703125,-0.6875,-0.3125,-0.1875
2.359999999999972,-3.0,-14.0,0.0,-1.0,-1.0,-3.0,-18.0,-5.0,0.20159912109375,-0.06390380859375,-0.04998779296875,0.97607421875,0.10400390625,0.3984375,0.91650390625,-0.6875,-0.0625,0.125
2.364999999999972,-3.0,-14.0,0.0,-1.0,-1.0,-3.0,-18.0,-5.0,0.20159912109375,-0.06390380859375,-0.04998779296875,0.97607421875,0.10400390625,0.3984375,0.91650390625,-0.6875,-0.0625,0.125
2.3699999999999717,-1.0,2.0,8.0,-2.0,-1.0,0.0,2.0,1.0,0.20159912109375,-0.06390380859375,-0.04998779296875,0.97607421875,0.10791015625,0.39306640625,0.90869140625,-0.8125,0.3125,0.25
2.3749999999999716,-1.0,2.0,8.0,-2.0,-1.0,0.0,2.0,1.0,0.20159912109375,-0.06390380859375,-0.04998779296875,0.97607421875,0.10791015625,0.39306640625,0.90869140625,-0.8125,0.3125,0.25
2.3799999999999715,-1.0,-22.0,-2.0,-3.0,-1.0,0.0,-1.0,0.0,0.2015380859375,-0.06390380859375,-0.04998779296875,0.97607421875,0.10986328125,0.39697265625,0.9111328125,-0.5625,0.6875,0.125
2.3849999999999714,-1.0,-2.0,-6.0,-2.0,-2.0,-1.0,-1.0,-2.0,0.2015380859375,-0.06390380859375,-0.04998779296875,0.97607421875,0.09912109375,0.39501953125,0.92431640625,0.0,0.8125,0.5
2.3899999999999713,3.0,-6.0,-5.0,-1.0,-2.0,0.0,3.0,2.0,0.2015380859375,-0.06390380859375,-0.04998779296875,0.97607421875,0.09912109375,0.39501953125,0.92431640625,0.0,0.8125,0.5
2.394999999999971,-6.0,-17.0,5.0,-1.0,-1.0,-2.0,2.0,-2.0,0.2015380859375,-0.06390380859375,-0.04998779296875,0.97607421875,0.09912109375,0.39501953125,0.92431640625,0.0,0.8125,0.5
2.399999999999971,-6.0,-17.0,5.0,-1.0,-1.0,-2.0,2.0,-2.0,0.2015380859375,-0.06390380859375,-0.04998779296875,0.97607421875,0.09912109375,0.39501953125,0.92431640625,0.0,0.8125,0.5
2.404999999999971,6.0,-5.0,0.0,1.0,-2.0,1.0,6.0,2.0,0.20166015625,-0.06378173828125,-0.0498046875,0.97607421875,0.10400390625,0.39111328125,0.91748046875,1.375,0.6875,0.5625
2.409999999999971,-10.0,27.0,-3.0,-3.0,-3.0,-7.0,-47.0,-13.0,0.20147705078125,-0.06365966796875,-0.0496826171875,0.97613525390625,0.10888671875,0.39599609375,0.9091796875,-0.75,1.1875,0.375
2.4149999999999707,-10.0,27.0,-3.0,-3.0,-3.0,-7.0,-47.0,-13.0,0.20147705078125,-0.06365966796875,-0.0496826171875,0.97613525390625,0.10888671875,0.39599609375,0.9091796875,-0.75,1.1875,0.375
2.4199999999999706,-22.0,-27.0,-36.0,-9.0,-6.0,-6.0,-12.0,-13.0,0.20172119140625,-0.06243896484375,-0.04901123046875,0.9761962890625,0.11572265625,0.3486328125,0.9140625,4.5625,8.625,1.4375
2.4249999999999705,-22.0,-27.0,-36.0,-9.0,-6.0,-6.0,-12.0,-13.0,0.2039794921875,-0.06097412109375,-0.04827880859375,0.975830078125,0.09765625,0.376953125,0.931640625,15.0,9.25,1.4375
2.4299999999999704,-3.0,12.0,-11.0,-3.0,-2.0,1.0,4.0,-4.0,0.206298828125,-0.0596923828125,-0.04730224609375,0.9754638671875,0.0732421875,0.3720703125,0.8828125,14.9375,7.25,3.5625
2.4349999999999703,5.0,22.0,3.0,-5.0,-4.0,-2.0,-6.0,-3.0,0.206298828125,-0.0596923828125,-0.04730224609375,0.9754638671875,0.0732421875,0.3720703125,0.8828125,14.9375,7.25,3.5625
2.43999999999997,5.0,22.0,3.0,-5.0,-4.0,-2.0,-6.0,-3.0,0.208251953125,-0.05950927734375,-0.04718017578125,0.97509765625,0.09326171875,0.45703125,0.900390625,8.125,1.5625,0.125
2.44499999999997,-4.0,6.0,-5.0,-1.0,-1.0,-1.0,8.0,1.0,0.208251953125,-0.05950927734375,-0.04718017578125,0.97509765625,0.09326171875,0.45703125,0.900390625,8.125,1.5625,0.125
2.44999999999997,-4.0,6.0,-5.0,-1.0,-1.0,-1.0,8.0,1.0,0.20819091796875,-0.05950927734375,-0.0474853515625,0.97509765625,0.0966796875,0.4541015625,0.8798828125,-3.875,-0.125,-1.5
2.45499999999997,-3.0,-13.0,-20.0,-6.0,-4.0,-1.0,-7.0,-4.0,0.20819091796875,-0.05950927734375,-0.0474853515625,0.97509765625,0.0966796875,0.4541015625,0.8798828125,-3.875,-0.125,-1.5
2.4599999999999698,-5.0,12.0,-5.0,-7.0,-3.0,-4.0,-9.0,-6.0,0.206787109375,-0.05902099609375,-0.04730224609375,0.97540283203125,0.0908203125,0.376953125,0.9052734375,-6.3125,2.1875,0.875
2.4649999999999697,15.0,1.0,47.0,8.0,4.0,5.0,23.0,15.0,0.20635986328125,-0.0584716796875,-0.04705810546875,0.9755859375,0.08349609375,0.3515625,0.91259765625,1.0625,2.4375,0.875
2.4699999999999696,-10.0,15.0,-26.0,-6.0,-8.0,-6.0,-7.0,-11.0,0.20635986328125,-0.0584716796875,-0.04705810546875,0.9755859375,0.08349609375,0.3515625,0.91259765625,1.0625,2.4375,0.875
2.4749999999999694,4.0,-28.0,-1.0,2.0,3.0,1.0,-4.0,1.0,0.20697021484375,-0.0582275390625,-0.04718017578125,0.9754638671875,0.0927734375,0.39697265625,0.921875,4.5625,1.375,-1.375
2.4799999999999693,-8.0,12.0,3.0,-1.0,-2.0,0.0,7.0,-3.0,0.20697021484375,-0.0582275390625,-0.04718017578125,0.9754638671875,0.0927734375,0.39697265625,0.921875,4.5625,1.375,-1.375
2.4849999999999692,0.0,41.0,3.0,0.0,-3.0,0.0,3.0,3.0,0.2073974609375,-0.05792236328125,-0.04742431640625,0.975341796875,0.0888671875,0.44287109375,0.91845703125,0.75,0.9375,-1.5
2.489999999999969,-3.0,-13.0,-27.0,0.0,2.0,0.0,2.0,1.0,0.2073974609375,-0.05792236328125,-0.04742431640625,0.975341796875,0.0888671875,0.44287109375,0.91845703125,0.75,0.9375,-1.5
2.494999999999969,1.0,-3.0,32.0,3.0,0.0,1.0,-1.0,-2.0,0.2071533203125,-0.057373046875,-0.0472412109375,0.9754638671875,0.0888671875,0.388671875,0.8876953125,-0.875,3.0,0.1875
2.499999999999969,-5.0,-8.0,-18.0,-9.0,-2.0,-1.0,-2.0,0.0,0.2071533203125,-0.057373046875,-0.0472412109375,0.9754638671875,0.0888671875,0.388671875,0.8876953125,-0.875,3.0,0.1875
2.504999999999969,-5.0,-8.0,-18.0,-9.0,-2.0,-1.0,-2.0,0.0,0.2069091796875,-0.0572509765625,-0.04742431640625,0.97552490234375,0.08837890625,0.40625,0.919921875,-1.0625,0.25,-1.0625
2.5099999999999687,0.0,-1.0,-5.0,-1.0,0.0,-2.0,-7.0,-4.0,0.2069091796875,-0.0572509765625,-0.04742431640625,0.97552490234375,0.08837890625,0.40625,0.919921875,-1.0625,0.25,-1.0625
2.5149999999999686,0.0,14.0,18.0,3.0,0.0,0.0,5.0,5.0,0.2061767578125,-0.05712890625,-0.047607421875,0.97564697265625,0.09521484375,0.3935546875,0.90869140625,-3.375,0.375,-1.0
2.5199999999999685,0.0,-15.0,1.0,-4.0,0.0,2.0,3.0,6.0,0.2061767578125,-0.05712890625,-0.047607421875,0.97564697265625,0.09521484375,0.3935546875,0.90869140625,-3.375,0.375,-1.0
2.5249999999999684,-6.0,-14.0,-20.0,-3.0,-3.0,-2.0,-6.0,12.0,0.2056884765625,-0.0567626953125,-0.04766845703125,0.97576904296875,0.09033203125,0.376953125,0.90966796875,-1.1875,2.0,-0.625
2.5299999999999683,-6.0,-14.0,-20.0,-3.0,-3.0,-2.0,-6.0,12.0,0.20611572265625,-0.05645751953125,-0.04791259765625,0.9757080078125,0.087890625,0.41943359375,0.9140625,1.8125,1.125,-1.6875
2.534999999999968,5.0,4.0,-7.0,-1.0,-2.0,-2.0,-27.0,9.0,0.20654296875,-0.055908203125,-0.0478515625,0.97564697265625,0.0830078125,0.40869140625,0.91162109375,2.125,2.9375,-0.5625
2.539999999999968,1.0,-19.0,-2.0,-1.0,-2.0,0.0,-5.0,-2.0,0.20654296875,-0.055908203125,-0.0478515625,0.97564697265625,0.0830078125,0.40869140625,0.91162109375,2.125,2.9375,-0.5625
2.544999999999968,3.0,-11.0,10.0,4.0,1.0,1.0,-5.0,2.0,0.20672607421875,-0.0550537109375,-0.047607421875,0.97564697265625,0.08837890625,0.38134765625,0.912109375,2.75,5.25,0.1875
2.549999999999968,3.0,-11.0,10.0,4.0,1.0,1.0,-5.0,2.0,0.20672607421875,-0.0550537109375,-0.047607421875,0.97564697265625,0.08837890625,0.38134765625,0.912109375,2.75,5.25,0.1875
2.5549999999999677,-4.0,-16.0,1.0,-6.0,-2.0,-1.0,13.0,-4.0,0.20709228515625,-0.0543212890625,-0.0477294921875,0.9755859375,0.080078125,0.42626953125,0.93310546875,1.5,3.25,-1.625
2.5599999999999676,-4.0,-5.0,-17.0,-5.0,-2.0,-1.0,-2.0,-2.0,0.20709228515625,-0.0543212890625,-0.0477294921875,0.9755859375,0.080078125,0.42626953125,0.93310546875,1.5,3.25,-1.625
2.5649999999999675,-4.0,-41.0,-32.0,-4.0,-2.0,-3.0,3.0,-15.0,0.20709228515625,-0.05364990234375,-0.04803466796875,0.97564697265625,0.07861328125,0.421875,0.9169921875,-0.9375,2.875,-2.1875
2.5699999999999674,-4.0,-41.0,-32.0,-4.0,-2.0,-3.0,3.0,-15.0,0.20709228515625,-0.05364990234375,-0.04803466796875,0.97564697265625,0.07861328125,0.421875,0.9169921875,-0.9375,2.875,-2.1875
2.5749999999999673,0.0,30.0,-14.0,-3.0,-2.0,-4.0,-44.0,-39.0,0.20660400390625,-0.0528564453125,-0.04791259765625,0.97576904296875,0.08203125,0.3623046875,0.90087890625,-0.5625,4.375,-0.0625
2.579999999999967,-24.0,10.0,-31.0,-15.0,-8.0,-10.0,-51.0,-97.0,0.20703125,-0.05194091796875,-0.04779052734375,0.97576904296875,0.08935546875,0.3779296875,0.9130859375,4.4375,5.875,-1.125
2.584999999999967,-1.0,13.0,3.0,4.0,0.0,0.0,4.0,-11.0,0.20703125,-0.05194091796875,-0.04779052734375,0.97576904296875,0.08935546875,0.3779296875,0.9130859375,4.4375,5.875,-1.125
2.589999999999967,7.0,7.0,-3.0,-2.0,1.0,2.0,30.0,53.0,0.20806884765625,-0.050537109375,-0.04754638671875,0.9755859375,0.07568359375,0.40380859375,0.91259765625,6.25,8.125,-0.75
2.594999999999967,-3.0,2.0,-27.0,-5.0,-2.0,0.0,-2.0,10.0,0.20904541015625,-0.0491943359375,-0.04754638671875,0.9754638671875,0.06494140625,0.4521484375,0.93505859375,3.25,6.9375,-1.5
2.599999999999967,-3.0,8.0,48.0,14.0,5.0,0.0,10.0,8.0,0.20849609375,-0.04815673828125,-0.04779052734375,0.97564697265625,0.0712890625,0.43212890625,0.88818359375,-5.375,5.1875,-2.0
2.6049999999999667,-2.0,-3.0,-18.0,0.0,0.0,4.0,29.0,22.0,0.20849609375,-0.04815673828125,-0.04779052734375,0.97564697265625,0.0712890625,0.43212890625,0.88818359375,-5.375,5.1875,-2.0
2.6099999999999666,-2.0,-3.0,-18.0,0.0,0.0,4.0,29.0,22.0,0.20721435546875,-0.04791259765625,-0.0482177734375,0.97589111328125,0.0810546875,0.38818359375,0.88916015625,-7.0625,1.375,-2.8125
2.6149999999999665,8.0,-3.0,23.0,2.0,-1.0,0.0,20.0,20.0,0.20623779296875,-0.0474853515625,-0.04827880859375,0.97613525390625,0.078125,0.35791015625,0.91796875,-2.3125,2.125,-0.8125
2.6199999999999664,0.0,-3.0,0.0,3.0,-1.0,1.0,7.0,-12.0,0.20623779296875,-0.0474853515625,-0.04827880859375,0.97613525390625,0.078125,0.35791015625,0.91796875,-2.3125,2.125,-0.8125
2.6249999999999662,0.0,-3.0,0.0,3.0,-1.0,1.0,7.0,-12.0,0.20697021484375,-0.04705810546875,-0.04827880859375,0.97601318359375,0.06640625,0.39208984375,0.91357421875,5.0625,2.1875,-0.625
2.629999999999966,-1.0,-3.0,21.0,-7.0,-3.0,-4.0,-24.0,3.0,0.20697021484375,-0.04705810546875,-0.04827880859375,0.97601318359375,0.06640625,0.39208984375,0.91357421875,5.0625,2.1875,-0.625
2.634999999999966,-12.0,-1.0,-67.0,-9.0,-5.0,-16.0,-32.0,-30.0,0.20697021484375,-0.04705810546875,-0.04827880859375,0.97601318359375,0.06640625,0.39208984375,0.91357421875,5.0625,2.1875,-0.625
2.639999999999966,-4.0,-2.0,-68.0,-14.0,-10.0,-6.0,-25.0,-14.0,0.20831298828125,-0.04669189453125,-0.0482177734375,0.9757080078125,0.07080078125,0.4306640625,0.90283203125,6.375,2.4375,-0.4375
2.644999999999966,2.0,1.0,-12.0,-4.0,-1.0,3.0,8.0,21.0,0.20867919921875,-0.0460205078125,-0.04815673828125,0.9757080078125,0.07861328125,0.44140625,0.908203125,-0.25,4.5,-1.0
2.6499999999999657,2.0,-3.0,26.0,-1.0,-3.0,3.0,7.0,7.0,0.20867919921875,-0.0460205078125,-0.04815673828125,0.9757080078125,0.07861328125,0.44140625,0.908203125,-0.25,4.5,-1.0
2.6549999999999656,2.0,-3.0,26.0,-1.0,-3.0,3.0,7.0,7.0,0.20806884765625,-0.0447998046875,-0.04827880859375,0.97589111328125,0.05322265625,0.41259765625,0.91943359375,-3.75,5.75,-1.375
2.6599999999999655,-2.0,2.0,-17.0,0.0,2.0,1.0,5.0,12.0,0.20806884765625,-0.0447998046875,-0.04827880859375,0.97589111328125,0.05322265625,0.41259765625,0.91943359375,-3.75,5.75,-1.375
2.6649999999999654,-10.0,-1.0,-10.0,-8.0,-5.0,-4.0,-7.0,0.0,0.207275390625,-0.0438232421875,-0.0479736328125,0.97607421875,0.05859375,0.37255859375,0.90234375,-2.875,5.1875,0.5625
2.6699999999999653,-2.0,-5.0,16.0,2.0,3.0,3.0,-18.0,0.0,0.207275390625,-0.0438232421875,-0.0479736328125,0.97607421875,0.05859375,0.37255859375,0.90234375,-2.875,5.1875,0.5625
2.674999999999965,-3.0,0.0,-37.0,-3.0,1.0,2.0,1.0,17.0,0.2071533203125,-0.0430908203125,-0.04766845703125,0.97613525390625,0.068359375,0.37255859375,0.90966796875,1.375,4.625,0.9375
2.679999999999965,5.0,0.0,39.0,2.0,0.0,-1.0,-3.0,0.0,0.2080078125,-0.04205322265625,-0.04754638671875,0.97601318359375,0.060546875,0.43115234375,0.923828125,-0.0625,1.6875,-0.75
2.684999999999965,4.0,4.0,2.0,-1.0,3.0,7.0,21.0,6.0,0.2080078125,-0.04205322265625,-0.04754638671875,0.97601318359375,0.060546875,0.43115234375,0.923828125,-0.0625,1.6875,-0.75
2.689999999999965,2.0,-4.0,-21.0,-3.0,2.0,0.0,-1.0,-3.0,0.2081298828125,-0.04205322265625,-0.04791259765625,0.97601318359375,0.06689453125,0.43212890625,0.90478515625,-0.6875,0.1875,-2.0
2.6949999999999648,-10.0,-6.0,-14.0,-7.0,-7.0,-5.0,-4.0,-7.0,0.2081298828125,-0.04205322265625,-0.04791259765625,0.97601318359375,0.06689453125,0.43212890625,0.90478515625,-0.6875,0.1875,-2.0
2.6999999999999647,0.0,1.0,-9.0,0.0,-2.0,1.0,-2.0,-3.0,0.20745849609375,-0.0421142578125,-0.04803466796875,0.97613525390625,0.0693359375,0.39794921875,0.89697265625,-3.875,-0.375,-0.6875
2.7049999999999645,-3.0,0.0,-2.0,-1.0,-1.0,-2.0,-4.0,-7.0,0.20745849609375,-0.0421142578125,-0.04803466796875,0.97613525390625,0.0693359375,0.39794921875,0.89697265625,-3.875,-0.375,-0.6875
2.7099999999999644,3.0,1.0,13.0,2.0,-1.0,-2.0,1.0,-1.0,0.20672607421875,-0.04229736328125,-0.04803466796875,0.97625732421875,0.06298828125,0.37744140625,0.91162109375,-2.125,-1.0625,-0.0625
2.7149999999999643,-1.0,1.0,1.0,-2.0,-2.0,-3.0,-10.0,-6.0,0.20672607421875,-0.04229736328125,-0.04803466796875,0.97625732421875,0.06298828125,0.37744140625,0.91162109375,-2.125,-1.0625,-0.0625
2.7199999999999642,-3.0,1.0,14.0,2.0,1.0,0.0,1.0,-1.0,0.20697021484375,-0.04248046875,-0.04833984375,0.9761962890625,0.06103515625,0.4130859375,0.92822265625,1.5625,-1.75,-1.375
2.724999999999964,-6.0,0.0,-22.0,-5.0,-6.0,-3.0,-4.0,-4.0,0.20697021484375,-0.04248046875,-0.04833984375,0.9761962890625,0.06103515625,0.4130859375,0.92822265625,1.5625,-1.75,-1.375
2.729999999999964,-6.0,0.0,-22.0,-5.0,-6.0,-3.0,-4.0,-4.0,0.20697021484375,-0.042724609375,-0.048583984375,0.9761962890625,0.05908203125,0.416015625,0.91162109375,-0.6875,-1.6875,-0.8125
2.734999999999964,8.0,-5.0,32.0,8.0,2.0,-2.0,0.0,5.0,0.20697021484375,-0.042724609375,-0.048583984375,0.9761962890625,0.05908203125,0.416015625,0.91162109375,-0.6875,-1.6875,-0.8125
2.739999999999964,-3.0,-2.0,30.0,2.0,-3.0,-1.0,-1.0,0.0,0.2069091796875,-0.04327392578125,-0.04888916015625,0.97613525390625,0.0673828125,0.42138671875,0.8984375,-1.5,-3.25,-1.25
2.7449999999999637,4.0,0.0,7.0,0.0,-1.0,1.0,2.0,5.0,0.20709228515625,-0.044189453125,-0.0496826171875,0.97601318359375,0.06591796875,0.42529296875,0.89306640625,-0.0625,-6.25,-3.5
2.7499999999999636,-2.0,-2.0,7.0,-5.0,-4.0,-2.0,0.0,0.0,0.2061767578125,-0.045654296875,-0.05078125,0.97607421875,0.060546875,0.40380859375,0.90478515625,-5.125,-10.25,-3.75
2.7549999999999635,4.0,-5.0,36.0,8.0,1.0,1.0,3.0,7.0,0.2049560546875,-0.04718017578125,-0.05181884765625,0.9761962890625,0.06787109375,0.40234375,0.91259765625,-6.625,-10.0625,-3.8125
2.7599999999999634,-4.0,0.0,-3.0,-5.0,-3.0,-3.0,-3.0,-6.0,0.2049560546875,-0.04718017578125,-0.05181884765625,0.9761962890625,0.06787109375,0.40234375,0.91259765625,-6.625,-10.0625,-3.8125
2.7649999999999633,-2.0,1.0,-17.0,-6.0,0.0,-1.0,-2.0,1.0,0.203369140625,-0.0489501953125,-0.05322265625,0.97637939453125,0.06982421875,0.419921875,0.90966796875,-10.25,-12.3125,-5.125
2.769999999999963,-2.0,-1.0,-15.0,9.0,1.0,0.0,-1.0,0.0,0.203369140625,-0.0489501953125,-0.05322265625,0.97637939453125,0.06982421875,0.419921875,0.90966796875,-10.25,-12.3125,-5.125
2.774999999999963,-3.0,-9.0,18.0,3.0,-1.0,-2.0,-4.0,-4.0,0.201416015625,-0.05035400390625,-0.05377197265625,0.9766845703125,0.08203125,0.3564453125,0.8759765625,-9.3125,-8.6875,-1.25
2.779999999999963,2.0,-4.0,-8.0,-8.0,-2.0,1.0,2.0,4.0,0.19976806640625,-0.0517578125,-0.05413818359375,0.9769287109375,0.0771484375,0.34228515625,0.90380859375,-6.1875,-8.75,-0.1875
2.784999999999963,-4.0,3.0,20.0,-2.0,-5.0,-3.0,-1.0,-4.0,0.19976806640625,-0.0517578125,-0.05413818359375,0.9769287109375,0.0771484375,0.34228515625,0.90380859375,-6.1875,-8.75,-0.1875
2.7899999999999627,-4.0,3.0,20.0,-2.0,-5.0,-3.0,-1.0,-4.0,0.19976806640625,-0.0517578125,-0.05413818359375,0.9769287109375,0.0771484375,0.34228515625,0.90380859375,-6.1875,-8.75,-0.1875
2.7949999999999626,1.0,2.0,12.0,5.0,1.0,-1.0,0.0,3.0,0.19757080078125,-0.05401611328125,-0.0538330078125,0.977294921875,0.0732421875,0.35546875,0.9208984375,1.0,-7.3125,2.3125
2.7999999999999625,-1.0,-5.0,23.0,0.0,-2.0,-1.0,-4.0,-7.0,0.19757080078125,-0.05401611328125,-0.0538330078125,0.977294921875,0.0732421875,0.35546875,0.9208984375,1.0,-7.3125,2.3125
2.8049999999999624,7.0,1.0,-9.0,3.0,6.0,4.0,5.0,-3.0,0.19830322265625,-0.05517578125,-0.0537109375,0.97705078125,0.083984375,0.43017578125,0.9375,3.0,-6.375,1.875
2.8099999999999623,-8.0,-5.0,-2.0,-8.0,-4.0,-3.0,-5.0,-22.0,0.198974609375,-0.0557861328125,-0.05340576171875,0.9769287109375,0.08544921875,0.40869140625,0.923828125,3.4375,-3.4375,2.1875
2.814999999999962,11.0,3.0,-7.0,-2.0,-2.0,1.0,3.0,17.0,0.198974609375,-0.0557861328125,-0.05340576171875,0.9769287109375,0.08544921875,0.40869140625,0.923828125,3.4375,-3.4375,2.1875
2.819999999999962,-1.0,-5.0,-16.0,-7.0,-3.0,-4.0,-4.0,-2.0,0.19891357421875,-0.0562744140625,-0.052978515625,0.9769287109375,0.09326171875,0.39306640625,0.9072265625,-0.1875,-1.75,2.6875
2.824999999999962,-5.0,-8.0,-13.0,-3.0,-3.0,-2.0,0.0,4.0,0.197265625,-0.0562744140625,-0.0523681640625,0.977294921875,0.091796875,0.36962890625,0.9482421875,-7.375,0.125,3.75
2.829999999999962,8.0,6.0,3.0,2.0,1.0,1.0,3.0,19.0,0.197265625,-0.0562744140625,-0.0523681640625,0.977294921875,0.091796875,0.36962890625,0.9482421875,-7.375,0.125,3.75
2.8349999999999618,-8.0,-7.0,-2.0,-4.0,-3.0,-6.0,-16.0,-70.0,0.1962890625,-0.056396484375,-0.052001953125,0.9775390625,0.0546875,0.337890625,0.92724609375,-2.0,-2.6875,3.5
2.8399999999999617,22.0,-14.0,6.0,0.0,1.0,2.0,4.0,10.0,0.1962890625,-0.056396484375,-0.052001953125,0.9775390625,0.0546875,0.337890625,0.92724609375,-2.0,-2.6875,3.5
2.8449999999999616,22.0,-14.0,6.0,0.0,1.0,2.0,4.0,10.0,0.1976318359375,-0.056884765625,-0.05230712890625,0.9771728515625,0.10009765625,0.427734375,0.9296875,6.0,-2.375,-1.6875
2.8499999999999615,10.0,-18.0,20.0,4.0,-1.0,-2.0,-4.0,14.0,0.1976318359375,-0.056884765625,-0.05230712890625,0.9771728515625,0.10009765625,0.427734375,0.9296875,6.0,-2.375,-1.6875
2.8549999999999613,-5.0,-6.0,-29.0,-4.0,2.0,3.0,10.0,18.0,0.19903564453125,-0.056884765625,-0.05194091796875,0.9769287109375,0.09326171875,0.38037109375,0.89599609375,8.6875,0.9375,1.1875
2.8599999999999612,-10.0,-5.0,6.0,-1.0,1.0,-3.0,9.0,-2.0,0.2005615234375,-0.05694580078125,-0.05126953125,0.97662353515625,0.10400390625,0.41064453125,0.91015625,8.1875,1.625,2.75
2.864999999999961,4.0,-1.0,15.0,1.0,-2.0,0.0,4.0,9.0,0.201171875,-0.05645751953125,-0.05047607421875,0.97662353515625,0.08935546875,0.392578125,0.9296875,4.375,3.75,3.875
2.869999999999961,-2.0,8.0,-2.0,0.0,3.0,4.0,-16.0,-15.0,0.201171875,-0.05645751953125,-0.05047607421875,0.97662353515625,0.08935546875,0.392578125,0.9296875,4.375,3.75,3.875
2.874999999999961,19.0,-10.0,10.0,2.0,-6.0,-4.0,-2.0,50.0,0.202880859375,-0.055908203125,-0.0499267578125,0.976318359375,0.0712890625,0.38330078125,0.921875,11.3125,2.8125,2.0
2.879999999999961,-43.0,12.0,-29.0,-7.0,-5.0,-5.0,-17.0,-48.0,0.2049560546875,-0.0555419921875,-0.04986572265625,0.97589111328125,0.08935546875,0.42919921875,0.92236328125,11.0,2.625,-0.75
2.8849999999999607,-15.0,2.0,-13.0,-7.0,-3.0,-2.0,2.0,-11.0,0.2049560546875,-0.0555419921875,-0.04986572265625,0.97589111328125,0.08935546875,0.42919921875,0.92236328125,11.0,2.625,-0.75
2.8899999999999606,24.0,6.0,22.0,9.0,2.0,5.0,11.0,37.0,0.2069091796875,-0.0552978515625,-0.04974365234375,0.9754638671875,0.09423828125,0.404296875,0.8857421875,11.125,2.5,-0.75
2.8949999999999605,12.0,3.0,-12.0,0.0,-3.0,-3.0,-7.0,48.0,0.2069091796875,-0.0552978515625,-0.04974365234375,0.9754638671875,0.09423828125,0.404296875,0.8857421875,11.125,2.5,-0.75
2.8999999999999604,12.0,3.0,-12.0,0.0,-3.0,-3.0,-7.0,48.0,0.20849609375,-0.05511474609375,-0.04949951171875,0.97515869140625,0.0966796875,0.40576171875,0.91162109375,9.6875,2.25,0.3125
2.9049999999999603,-19.0,2.0,5.0,-4.0,-3.0,-1.0,-3.0,-96.0,0.20849609375,-0.05511474609375,-0.04949951171875,0.97515869140625,0.0966796875,0.40576171875,0.91162109375,9.6875,2.25,0.3125
2.90999999999996,-19.0,2.0,5.0,-4.0,-3.0,-1.0,-3.0,-96.0,0.20849609375,-0.05511474609375,-0.04949951171875,0.97515869140625,0.0966796875,0.40576171875,0.91162109375,9.6875,2.25,0.3125
2.91499999999996,19.0,1.0,15.0,6.0,0.0,0.0,4.0,-86.0,0.20989990234375,-0.05462646484375,-0.04901123046875,0.97491455078125,0.07470703125,0.3896484375,0.9189453125,9.9375,2.6875,1.5625
2.91999999999996,10.0,0.0,4.0,-1.0,-3.0,-5.0,-5.0,11.0,0.21197509765625,-0.05450439453125,-0.049072265625,0.9744873046875,0.08154296875,0.4326171875,0.9052734375,11.25,0.8125,-0.8125
2.92499999999996,10.0,0.0,4.0,-1.0,-3.0,-5.0,-5.0,11.0,0.21197509765625,-0.05450439453125,-0.049072265625,0.9744873046875,0.08154296875,0.4326171875,0.9052734375,11.25,0.8125,-0.8125
2.9299999999999597,15.0,2.0,34.0,16.0,5.0,-2.0,10.0,80.0,0.2132568359375,-0.05450439453125,-0.0494384765625,0.97418212890625,0.080078125,0.4560546875,0.89501953125,4.75,-0.3125,-2.4375
2.9349999999999596,15.0,2.0,34.0,16.0,5.0,-2.0,10.0,80.0,0.2132568359375,-0.05450439453125,-0.0494384765625,0.97418212890625,0.080078125,0.4560546875,0.89501953125,4.75,-0.3125,-2.4375
2.9399999999999595,-1.0,4.0,-35.0,-8.0,-2.0,-2.0,7.0,-21.0,0.2127685546875,-0.0550537109375,-0.0501708984375,0.9742431640625,0.08544921875,0.43798828125,0.89013671875,-4.25,-4.25,-2.9375
2.9449999999999594,-16.0,-3.0,37.0,14.0,5.0,-1.0,-3.0,-39.0,0.2127685546875,-0.0550537109375,-0.0501708984375,0.9742431640625,0.08544921875,0.43798828125,0.89013671875,-4.25,-4.25,-2.9375
2.9499999999999593,4.0,-5.0,-20.0,-10.0,-3.0,-2.0,-10.0,-1.0,0.211181640625,-0.05596923828125,-0.05084228515625,0.9744873046875,0.087890625,0.3994140625,0.9052734375,-8.25,-6.3125,-2.125
2.954999999999959,4.0,-5.0,-20.0,-10.0,-3.0,-2.0,-10.0,-1.0,0.211181640625,-0.05596923828125,-0.05084228515625,0.9744873046875,0.087890625,0.3994140625,0.9052734375,-8.25,-6.3125,-2.125
2.959999999999959,-7.0,-1.0,-24.0,-10.0,-5.0,-4.0,-4.0,17.0,0.2105712890625,-0.0567626953125,-0.0516357421875,0.97454833984375,0.0947265625,0.41162109375,0.9140625,-3.0,-5.25,-3.75
2.964999999999959,-7.0,-1.0,-24.0,-10.0,-5.0,-4.0,-4.0,17.0,0.2105712890625,-0.0567626953125,-0.0516357421875,0.97454833984375,0.0947265625,0.41162109375,0.9140625,-3.0,-5.25,-3.75
2.969999999999959,-15.0,3.0,16.0,11.0,3.0,-2.0,-37.0,-35.0,0.2105712890625,-0.0567626953125,-0.0516357421875,0.97454833984375,0.0947265625,0.41162109375,0.9140625,-3.0,-5.25,-3.75
2.974999999999959,5.0,-1.0,-23.0,-9.0,1.0,4.0,14.0,21.0,0.2105712890625,-0.05718994140625,-0.0523681640625,0.9744873046875,0.09326171875,0.447265625,0.91357421875,-1.5625,-3.0625,-3.5
2.9799999999999587,27.0,-6.0,48.0,6.0,3.0,9.0,33.0,66.0,0.2105712890625,-0.05718994140625,-0.0523681640625,0.9744873046875,0.09326171875,0.447265625,0.91357421875,-1.5625,-3.0625,-3.5
2.9849999999999586,27.0,-6.0,48.0,6.0,3.0,9.0,33.0,66.0,0.2105712890625,-0.05718994140625,-0.0523681640625,0.9744873046875,0.09326171875,0.447265625,0.91357421875,-1.5625,-3.0625,-3.5
2.9899999999999585,-25.0,2.0,10.0,-7.0,-7.0,-14.0,-91.0,-47.0,0.2099609375,-0.05743408203125,-0.0531005859375,0.97454833984375,0.08837890625,0.44189453125,0.9091796875,-5.3125,-2.625,-3.375
2.9949999999999584,13.0,8.0,-1.0,-1.0,-1.0,-1.0,-40.0,66.0,0.2086181640625,-0.05792236328125,-0.0537109375,0.97479248046875,0.0908203125,0.39599609375,0.8857421875,-7.3125,-3.625,-2.5625
2.9999999999999583,12.0,-19.0,-62.0,-20.0,1.0,7.0,127.0,63.0,0.20721435546875,-0.05828857421875,-0.05401611328125,0.97503662109375,0.09619140625,0.36376953125,0.9130859375,-5.0,-2.625,-1.25
3.004999999999958,-26.0,-12.0,-6.0,1.0,-2.0,1.0,2.0,1.0,0.207275390625,-0.05828857421875,-0.0543212890625,0.9749755859375,0.08740234375,0.3857421875,0.91650390625,2.0625,-0.6875,-1.8125
3.009999999999958,0.0,1.0,29.0,8.0,4.0,6.0,5.0,-46.0,0.2081298828125,-0.0582275390625,-0.05487060546875,0.97479248046875,0.078125,0.42919921875,0.9150390625,3.8125,-0.9375,-2.8125
3.014999999999958,-9.0,-8.0,8.0,-3.0,-1.0,0.0,-12.0,-8.0,0.2076416015625,-0.05810546875,-0.05523681640625,0.97491455078125,0.09130859375,0.4384765625,0.92041015625,-4.5,0.1875,-2.0625
3.019999999999958,-9.0,-8.0,8.0,-3.0,-1.0,0.0,-12.0,-8.0,0.2076416015625,-0.05810546875,-0.05523681640625,0.97491455078125,0.09130859375,0.4384765625,0.92041015625,-4.5,0.1875,-2.0625
3.0249999999999577,0.0,-13.0,33.0,4.0,-1.0,-3.0,14.0,56.0,0.2061767578125,-0.05804443359375,-0.05535888671875,0.97515869140625,0.08544921875,0.38525390625,0.91650390625,-6.6875,-0.625,-0.3125
3.0299999999999576,-37.0,-2.0,-52.0,-14.0,-1.0,1.0,8.0,-75.0,0.2061767578125,-0.05804443359375,-0.05535888671875,0.97515869140625,0.08544921875,0.38525390625,0.91650390625,-6.6875,-0.625,-0.3125
3.0349999999999575,3.0,1.0,16.0,4.0,0.0,-1.0,-64.0,-31.0,0.20611572265625,-0.05804443359375,-0.05535888671875,0.9752197265625,0.091796875,0.37353515625,0.916015625,-0.4375,-0.6875,0.125
3.0399999999999574,-24.0,2.0,-19.0,-13.0,-2.0,-11.0,9.0,-50.0,0.20611572265625,-0.05804443359375,-0.05535888671875,0.9752197265625,0.091796875,0.37353515625,0.916015625,-0.4375,-0.6875,0.125
3.0449999999999573,-24.0,2.0,-19.0,-13.0,-2.0,-11.0,9.0,-50.0,0.20611572265625,-0.05804443359375,-0.05535888671875,0.9752197265625,0.091796875,0.37353515625,0.916015625,-0.4375,-0.6875,0.125
3.049999999999957,7.0,6.0,-4.0,1.0,-2.0,2.0,-2.0,17.0,0.2061767578125,-0.057861328125,-0.05517578125,0.9752197265625,0.0859375,0.39013671875,0.9140625,1.8125,0.8125,0.875
3.054999999999957,7.0,6.0,-4.0,1.0,-2.0,2.0,-2.0,17.0,0.2061767578125,-0.057861328125,-0.05517578125,0.9752197265625,0.0859375,0.39013671875,0.9140625,1.8125,0.8125,0.875
3.059999999999957,11.0,-1.0,1.0,-2.0,-3.0,-18.0,-4.0,29.0,0.206298828125,-0.05755615234375,-0.05487060546875,0.9752197265625,0.08447265625,0.4091796875,0.90771484375,0.75,1.6875,1.5
3.064999999999957,2.0,4.0,5.0,-1.0,-4.0,-9.0,-20.0,5.0,0.206298828125,-0.05755615234375,-0.05487060546875,0.9752197265625,0.08447265625,0.4091796875,0.90771484375,0.75,1.6875,1.5
3.0699999999999568,2.0,4.0,5.0,-1.0,-4.0,-9.0,-20.0,5.0,0.20587158203125,-0.05731201171875,-0.05450439453125,0.975341796875,0.09033203125,0.40087890625,0.9013671875,-2.625,2.0,1.6875
3.0749999999999567,-6.0,2.0,2.0,-1.0,0.0,-1.0,3.0,-38.0,0.20587158203125,-0.05731201171875,-0.05450439453125,0.975341796875,0.09033203125,0.40087890625,0.9013671875,-2.625,2.0,1.6875
3.0799999999999566,21.0,11.0,-15.0,-6.0,0.0,8.0,-41.0,-22.0,0.20538330078125,-0.056884765625,-0.053955078125,0.97552490234375,0.07958984375,0.39013671875,0.908203125,-1.6875,2.0625,3.1875
3.0849999999999564,-5.0,-13.0,12.0,3.0,1.0,-13.0,-11.0,-4.0,0.2052001953125,-0.056640625,-0.0531005859375,0.9755859375,0.09326171875,0.3955078125,0.9091796875,-0.3125,2.5625,4.1875
3.0899999999999563,-10.0,-15.0,-35.0,-11.0,-9.0,-11.0,-49.0,-37.0,0.20562744140625,-0.05609130859375,-0.0523681640625,0.9755859375,0.08203125,0.42724609375,0.92041015625,1.5625,3.75,3.625
3.0949999999999562,4.0,12.0,10.0,3.0,1.0,6.0,5.0,19.0,0.20550537109375,-0.055419921875,-0.051513671875,0.9757080078125,0.08056640625,0.41455078125,0.931640625,-0.625,4.0625,4.1875
3.099999999999956,-1.0,26.0,35.0,-1.0,-2.0,0.0,15.0,6.0,0.20550537109375,-0.055419921875,-0.051513671875,0.9757080078125,0.08056640625,0.41455078125,0.931640625,-0.625,4.0625,4.1875
3.104999999999956,0.0,-9.0,-6.0,2.0,-1.0,0.0,-5.0,4.0,0.20611572265625,-0.05517578125,-0.051025390625,0.9755859375,0.07666015625,0.41845703125,0.91162109375,2.875,1.4375,2.375
3.109999999999956,0.0,-9.0,-6.0,2.0,-1.0,0.0,-5.0,4.0,0.20611572265625,-0.05517578125,-0.051025390625,0.9755859375,0.07666015625,0.41845703125,0.91162109375,2.875,1.4375,2.375
3.114999999999956,-4.0,-4.0,-4.0,-4.0,-2.0,-1.0,-28.0,-25.0,0.2061767578125,-0.05462646484375,-0.04998779296875,0.97564697265625,0.08837890625,0.361328125,0.9248046875,4.3125,3.875,2.625
3.1199999999999557,-4.0,-4.0,-4.0,-4.0,-2.0,-1.0,-28.0,-25.0,0.2061767578125,-0.05462646484375,-0.04998779296875,0.97564697265625,0.08837890625,0.361328125,0.9248046875,4.3125,3.875,2.625
3.1249999999999556,9.0,1.0,-2.0,-1.0,0.0,0.0,6.0,9.0,0.2061767578125,-0.05462646484375,-0.04998779296875,0.97564697265625,0.08837890625,0.361328125,0.9248046875,4.3125,3.875,2.625
3.1299999999999555,4.0,14.0,-57.0,-4.0,-1.0,-3.0,3.0,8.0,0.20806884765625,-0.05389404296875,-0.0494384765625,0.975341796875,0.08837890625,0.39111328125,0.89111328125,11.75,5.3125,1.0
3.1349999999999554,5.0,41.0,33.0,6.0,3.0,3.0,0.0,16.0,0.20947265625,-0.0528564453125,-0.0494384765625,0.97509765625,0.08203125,0.4560546875,0.8984375,4.625,6.25,-1.25
3.1399999999999553,-4.0,-30.0,-22.0,-1.0,-2.0,0.0,8.0,1.0,0.20947265625,-0.0528564453125,-0.0494384765625,0.97509765625,0.08203125,0.4560546875,0.8984375,4.625,6.25,-1.25
3.144999999999955,-8.0,-35.0,-44.0,-12.0,-5.0,-7.0,-52.0,-30.0,0.2086181640625,-0.0516357421875,-0.04925537109375,0.975341796875,0.076171875,0.44384765625,0.91259765625,-7.125,6.5,-0.0625
3.149999999999955,-6.0,24.0,-8.0,-5.0,-2.0,-3.0,-15.0,-8.0,0.2086181640625,-0.0516357421875,-0.04925537109375,0.975341796875,0.076171875,0.44384765625,0.91259765625,-7.125,6.5,-0.0625
3.154999999999955,-3.0,17.0,-4.0,-4.0,-1.0,2.0,-4.0,3.0,0.20758056640625,-0.05029296875,-0.04931640625,0.97564697265625,0.078125,0.388671875,0.8935546875,-5.875,7.3125,-1.5
3.159999999999955,6.0,9.0,26.0,3.0,2.0,2.0,21.0,20.0,0.20758056640625,-0.05029296875,-0.04931640625,0.97564697265625,0.078125,0.388671875,0.8935546875,-5.875,7.3125,-1.5
3.1649999999999547,8.0,2.0,23.0,3.0,1.0,5.0,4.0,15.0,0.20611572265625,-0.04949951171875,-0.04937744140625,0.97601318359375,0.06787109375,0.3798828125,0.9033203125,-7.3125,3.8125,-1.0
3.1699999999999546,20.0,-19.0,-26.0,-7.0,0.0,0.0,12.0,7.0,0.2054443359375,-0.04876708984375,-0.0496826171875,0.97613525390625,0.068359375,0.39599609375,0.91845703125,-3.1875,2.8125,-2.1875
3.1749999999999545,35.0,-8.0,-6.0,-1.0,3.0,0.0,8.0,2.0,0.20513916015625,-0.04815673828125,-0.0499267578125,0.97625732421875,0.07177734375,0.39013671875,0.88134765625,-2.25,3.1875,-1.9375
3.1799999999999544,6.0,8.0,39.0,5.0,1.0,-4.0,-12.0,-5.0,0.20513916015625,-0.04815673828125,-0.0499267578125,0.97625732421875,0.07177734375,0.39013671875,0.88134765625,-2.25,3.1875,-1.9375
3.1849999999999543,-8.0,-3.0,-38.0,-12.0,-4.0,-4.0,-26.0,-10.0,0.204345703125,-0.04754638671875,-0.05010986328125,0.9764404296875,0.07861328125,0.39892578125,0.8798828125,-5.25,3.625,-1.6875
3.189999999999954,-22.0,4.0,-10.0,2.0,0.0,-3.0,-9.0,-5.0,0.20306396484375,-0.04669189453125,-0.05010986328125,0.97674560546875,0.07958984375,0.35986328125,0.90087890625,-5.625,5.25,-0.9375
3.194999999999954,-8.0,2.0,-14.0,-8.0,-5.0,-2.0,11.0,-6.0,0.20306396484375,-0.04669189453125,-0.05010986328125,0.97674560546875,0.07958984375,0.35986328125,0.90087890625,-5.625,5.25,-0.9375
3.199999999999954,-8.0,2.0,-14.0,-8.0,-5.0,-2.0,11.0,-6.0,0.20281982421875,-0.04595947265625,-0.04998779296875,0.976806640625,0.0556640625,0.396484375,0.93017578125,-0.8125,3.0625,0.0625
3.204999999999954,1.0,-3.0,14.0,1.0,3.0,3.0,-3.0,0.0,0.20281982421875,-0.04595947265625,-0.04998779296875,0.976806640625,0.0556640625,0.396484375,0.93017578125,-0.8125,3.0625,0.0625
3.209999999999954,5.0,0.0,51.0,12.0,3.0,3.0,20.0,10.0,0.20269775390625,-0.044921875,-0.05059814453125,0.97686767578125,0.05419921875,0.39990234375,0.90625,-1.375,4.125,-4.0
3.2149999999999537,-11.0,2.0,30.0,-3.0,-4.0,0.0,-13.0,-7.0,0.20184326171875,-0.04473876953125,-0.05108642578125,0.97705078125,0.05810546875,0.3876953125,0.892578125,-5.375,-0.125,-2.8125
3.2199999999999536,-6.0,1.0,-22.0,-2.0,-5.0,-2.0,1.0,0.0,0.20184326171875,-0.04473876953125,-0.05108642578125,0.97705078125,0.05810546875,0.3876953125,0.892578125,-5.375,-0.125,-2.8125
3.2249999999999535,3.0,4.0,-23.0,4.0,2.0,-1.0,8.0,3.0,0.2008056640625,-0.04461669921875,-0.0517578125,0.97723388671875,0.04931640625,0.4013671875,0.9169921875,-6.4375,-1.5625,-3.0
3.2299999999999534,3.0,4.0,-23.0,4.0,2.0,-1.0,8.0,3.0,0.2008056640625,-0.04461669921875,-0.0517578125,0.97723388671875,0.04931640625,0.4013671875,0.9169921875,-6.4375,-1.5625,-3.0
3.2349999999999532,-3.0,-1.0,25.0,4.0,2.0,1.0,26.0,3.0,0.1993408203125,-0.04486083984375,-0.0526123046875,0.97747802734375,0.056640625,0.37646484375,0.91796875,-7.375,-3.375,-4.0
3.239999999999953,-24.0,1.0,-95.0,-16.0,-8.0,-5.0,-5.0,-13.0,0.1982421875,-0.04522705078125,-0.05328369140625,0.97760009765625,0.06640625,0.3779296875,0.91552734375,-5.75,-3.3125,-2.9375
3.244999999999953,-24.0,1.0,-95.0,-16.0,-8.0,-5.0,-5.0,-13.0,0.1982421875,-0.04522705078125,-0.05328369140625,0.97760009765625,0.06640625,0.3779296875,0.91552734375,-5.75,-3.3125,-2.9375
3.249999999999953,14.0,-3.0,18.0,1.0,2.0,0.0,6.0,4.0,0.1982421875,-0.04522705078125,-0.05328369140625,0.97760009765625,0.06640625,0.3779296875,0.91552734375,-5.75,-3.3125,-2.9375
3.254999999999953,-9.0,4.0,35.0,6.0,-2.0,-8.0,-57.0,-39.0,0.197998046875,-0.04534912109375,-0.0535888671875,0.9776611328125,0.07666015625,0.38623046875,0.90966796875,-1.3125,-0.3125,-1.75
3.2599999999999527,8.0,-2.0,-30.0,-5.0,-2.0,-5.0,4.0,6.0,0.197998046875,-0.04534912109375,-0.0535888671875,0.9776611328125,0.07666015625,0.38623046875,0.90966796875,-1.3125,-0.3125,-1.75
3.2649999999999526,5.0,-4.0,-33.0,3.0,0.0,3.0,33.0,33.0,0.19757080078125,-0.044921875,-0.05364990234375,0.977783203125,0.06298828125,0.3779296875,0.92041015625,-1.5625,1.9375,-0.8125
3.2699999999999525,-6.0,0.0,14.0,0.0,-4.0,-3.0,-5.0,-13.0,0.197021484375,-0.0443115234375,-0.0537109375,0.9779052734375,0.06005859375,0.384765625,0.9296875,-2.875,2.625,-0.625
3.2749999999999524,-6.0,0.0,14.0,0.0,-4.0,-3.0,-5.0,-13.0,0.197021484375,-0.0443115234375,-0.0537109375,0.9779052734375,0.06005859375,0.384765625,0.9296875,-2.875,2.625,-0.625
3.2799999999999523,-4.0,-6.0,12.0,-1.0,-2.0,-2.0,11.0,10.0,0.19647216796875,-0.0438232421875,-0.05413818359375,0.97802734375,0.0595703125,0.4072265625,0.92333984375,-4.625,1.875,-2.8125
3.284999999999952,-4.0,-6.0,12.0,-1.0,-2.0,-2.0,11.0,10.0,0.19647216796875,-0.0438232421875,-0.05413818359375,0.97802734375,0.0595703125,0.4072265625,0.92333984375,-4.625,1.875,-2.8125
3.289999999999952,11.0,-2.0,-25.0,-8.0,-3.0,-7.0,-72.0,-21.0,0.19549560546875,-0.04315185546875,-0.05450439453125,0.97821044921875,0.064453125,0.3857421875,0.92236328125,-5.9375,3.0625,-2.25
3.294999999999952,-3.0,-4.0,4.0,-1.0,-1.0,-1.0,-3.0,-3.0,0.19549560546875,-0.04315185546875,-0.05450439453125,0.97821044921875,0.064453125,0.3857421875,0.92236328125,-5.9375,3.0625,-2.25
3.299999999999952,-5.0,-3.0,2.0,-2.0,-3.0,-2.0,3.0,-50.0,0.19415283203125,-0.04266357421875,-0.05438232421875,0.978515625,0.0634765625,0.35546875,0.92431640625,-5.8125,2.625,0.1875
3.3049999999999518,-43.0,-1.0,-16.0,5.0,6.0,11.0,-11.0,-23.0,0.19415283203125,-0.04266357421875,-0.05438232421875,0.978515625,0.0634765625,0.35546875,0.92431640625,-5.8125,2.625,0.1875
3.3099999999999516,-50.0,4.0,8.0,3.0,-3.0,-16.0,-20.0,11.0,0.1932373046875,-0.0423583984375,-0.0545654296875,0.97869873046875,0.0732421875,0.37060546875,0.93310546875,-4.5,2.125,-1.375
