0.01,0,7,4,42,2,2,1,1
0.015,7,13,37,29,4,5,5,4
0.02,2,22,39,45,1,0,1,1
0.025,2,9,9,49,4,2,0,4
0.03,1,8,51,19,2,1,0,0
0.035,2,14,29,37,0,3,0,1
0.04,2,12,19,60,0,3,3,0
0.045,5,11,50,49,2,0,1,2
0.05,1,0,6,9,4,0,1,2
0.055,5,31,5,10,8,4,1,5
0.06,2,4,1,41,0,1,2,7
0.065,7,3,17,21,5,1,2,5
0.07,7,2,20,4,12,1,2,3
0.075,17,14,18,2,8,0,0,3
0.08,8,56,80,41,6,0,1,6
0.085,1,11,56,25,6,1,0,2
0.09,4,9,63,11,16,3,1,1
0.095,5,4,16,36,7,6,3,0
0.1,1,11,13,22,5,0,2,5
0.105,2,2,19,53,2,3,0,1
0.11,4,8,0,23,8,4,3,2
0.115,3,9,13,33,3,0,3,0
0.12,0,5,12,75,2,0,1,1
0.125,1,6,26,4,0,1,1,3
0.13,0,9,26,7,3,2,0,3
0.135,2,4,25,5,3,3,1,2
0.14,3,1,30,2,2,1,0,5
0.145,3,5,8,2,4,1,1,2
0.15,3,7,18,1,1,2,0,2
0.155,3,4,34,3,2,2,0,3
0.16,0,15,11,40,7,2,1,1
0.165,1,13,71,43,4,6,2,6
0.17,4,1,7,54,10,4,3,3
0.175,1,10,15,38,16,2,3,0
0.18,3,10,35,19,7,2,1,1
0.185,4,20,44,8,4,1,2,1
0.19,6,15,7,10,7,4,1,2
0.195,6,4,6,12,16,4,1,3
0.2,6,40,16,29,6,4,4,4
0.205,6,33,48,66,1,0,1,2
0.21,2,7,25,79,4,2,1,2
0.215,5,5,13,17,1,1,1,4
0.22,2,5,1,71,12,5,0,2
0.225,5,9,11,58,5,3,2,2
0.23,0,3,16,47,0,4,3,3
0.235,4,0,18,9,4,1,2,1
0.24,3,6,19,8,7,1,2,1
0.245,3,2,22,11,1,2,2,2
0.25,1,5,40,21,11,2,1,0
0.255,2,6,11,29,6,2,1,4
0.26,7,8,16,43,9,6,8,6
0.265,0,4,0,66,5,2,0,3
0.27,2,1,13,44,8,1,0,0
0.275,2,6,35,5,0,3,0,1
0.28,5,3,25,48,11,2,0,1
0.285,5,10,7,11,2,0,2,3
0.29,4,12,8,4,0,0,0,1
0.295,5,3,16,14,4,5,5,4
0.3,7,10,4,22,11,1,4,5
0.305,5,0,15,13,3,3,4,3
0.31,3,19,37,26,4,1,1,2
0.315,6,4,0,14,10,2,1,1
0.32,5,4,2,20,18,3,0,1
0.325,3,0,20,12,7,1,0,2
0.33,13,12,35,6,4,6,5,6
0.335,3,0,14,5,0,0,1,1
0.34,1,8,26,1,4,2,1,1
0.345,1,1,1,24,6,2,0,0
0.35,0,2,15,22,4,2,1,1
0.355,2,5,24,10,0,0,0,0
0.36,12,6,26,30,5,0,1,3
0.365,2,21,37,37,8,1,3,1
0.37,5,8,15,6,2,1,2,1
0.375,4,3,68,42,7,1,1,1
0.38,5,9,62,40,10,4,1,4
0.385,4,13,9,2,1,3,0,2
0.39,9,8,8,4,1,0,1,4
0.395,2,2,12,26,4,2,3,1
0.4,4,3,35,6,12,6,0,3
0.405,15,9,10,20,2,1,1,1
0.41,11,6,24,19,6,2,0,1
0.415,7,0,35,33,4,4,4,8
0.42,1,2,9,23,1,1,1,3
0.425,2,7,4,5,2,1,2,0
0.43,7,9,3,11,4,1,3,4
0.435,7,1,2,26,2,3,2,4
0.44,4,1,16,5,7,3,1,2
0.445,3,1,26,5,5,3,2,2
0.45,6,11,50,14,4,5,5,2
0.455,2,2,5,9,4,2,2,2
0.46,12,3,13,13,3,3,3,4
0.465,10,9,17,10,4,1,3,2
0.47,23,13,17,16,0,1,1,1
0.475,18,16,11,4,2,0,1,3
0.48,5,1,26,1,4,1,2,0
0.485,8,2,9,1,1,4,2,3
0.49,13,7,30,7,0,1,1,0
0.495,10,5,9,17,1,0,1,4
0.5,8,4,34,11,7,1,1,0
0.505,1,13,8,30,5,2,1,3
0.51,5,3,6,18,3,0,1,2
0.515,10,11,2,2,2,0,1,3
0.52,8,5,1,3,1,2,2,11
0.525,0,4,19,9,1,1,1,8
0.53,1,14,31,10,1,2,1,3
0.535,1,26,1,10,4,3,0,5
0.54,15,11,9,6,8,1,1,1
0.545,1,6,4,6,8,4,4,1
0.55,3,9,21,5,0,1,0,0
0.555,7,8,9,6,0,1,2,5
0.56,13,11,14,11,6,3,2,4
0.565,4,8,5,4,1,2,2,6
0.57,16,18,15,1,4,4,2,3
0.575,1,23,8,7,6,2,0,1
0.58,11,21,28,2,6,2,1,1
0.585,10,0,20,4,2,1,2,6
0.59,5,9,23,6,2,2,2,3
0.595,2,9,17,2,1,0,2,1
0.6,4,3,22,5,2,2,1,1
0.605,4,5,37,15,1,1,1,0
0.61,2,1,9,9,3,1,1,5
0.615,2,0,43,12,3,0,2,3
0.62,3,20,7,24,7,1,0,2
0.625,7,2,12,16,3,2,5,4
0.63,5,8,29,6,3,2,1,1
0.635,8,9,19,15,5,4,5,9
0.64,14,15,4,6,2,0,0,10
0.645,4,6,8,2,1,1,2,2
0.65,4,2,18,14,1,1,0,2
0.655,5,5,1,24,1,0,2,0
0.66,7,15,3,9,1,0,1,0
0.665,3,6,14,42,8,4,3,0
0.67,3,26,44,65,6,3,3,6
0.675,16,31,32,23,0,3,4,7
0.68,11,4,69,30,5,9,16,12
0.685,4,19,10,5,2,1,0,4
0.69,8,4,7,20,6,6,5,2
0.695,3,2,7,2,1,3,6,6
0.7,7,17,57,16,2,0,1,15
0.705,11,4,44,26,5,5,7,6
0.71,4,16,40,1,5,3,3,0
0.715,2,16,18,11,2,3,2,4
0.72,3,11,42,14,1,3,9,9
0.725,0,19,63,1,1,3,2,2
0.73,4,6,5,10,1,2,0,5
0.735,2,2,7,3,3,1,3,4
0.74,5,13,17,1,0,1,0,5
0.745,4,10,33,14,1,3,2,8
0.75,1,24,19,11,4,2,2,1
0.755,0,1,7,4,1,2,4,1
0.76,6,0,2,12,1,0,2,0
0.765,7,6,11,8,3,2,0,2
0.77,18,11,7,9,4,3,4,5
0.775,9,11,1,5,1,1,2,1
0.78,6,34,61,3,4,5,6,3
0.785,0,4,11,31,0,1,1,3
0.79,4,3,2,25,1,2,2,2
0.795,3,7,6,2,1,0,2,8
0.8,6,5,13,9,2,1,2,4
0.805,5,2,35,7,2,1,3,2
0.81,2,1,40,12,2,1,0,3
0.815,4,5,15,7,3,4,0,4
0.82,1,3,19,2,1,3,2,3
0.825,3,12,21,6,5,5,4,0
0.83,7,8,3,12,1,1,0,7
0.835,0,4,1,15,2,3,2,3
0.84,1,0,44,3,6,0,1,2
0.845,1,15,8,7,4,2,4,1
0.85,8,18,20,0,3,1,2,4
0.855,5,10,26,6,0,0,2,15
0.86,1,21,43,7,6,2,3,6
0.865,3,14,55,8,5,2,4,2
0.87,8,15,32,5,1,4,13,0
0.875,7,5,19,2,1,3,1,0
0.88,12,5,12,2,5,1,7,4
0.885,9,32,39,9,2,1,2,1
0.89,1,16,29,14,1,2,1,2
0.895,8,21,50,7,5,5,9,12
0.9,9,21,1,1,0,3,12,4
0.905,9,8,20,4,4,5,12,5
0.91,1,24,16,0,3,2,12,13
0.915,1,7,16,3,0,5,16,14
0.92,7,20,7,2,3,1,1,7
0.925,21,46,58,5,3,1,4,4
0.93,2,18,73,9,2,5,18,5
0.935,11,5,4,1,0,0,7,2
0.94,18,9,4,2,2,1,3,1
0.945,4,19,48,2,4,1,3,3
0.95,4,0,5,3,2,1,5,3
0.955,6,16,14,5,2,0,7,3
0.96,4,19,14,10,6,3,3,5
0.965,6,9,41,3,1,2,1,1
0.97,10,30,59,8,4,2,0,10
0.975,3,10,12,2,1,6,22,20
0.98,4,10,43,5,1,2,22,3
0.985,18,12,9,3,1,3,3,0
0.99,10,20,2,1,2,3,5,5
0.995,9,21,10,3,2,1,1,13
1,9,31,18,3,4,0,8,8
1.005,0,1,46,5,1,2,2,2
1.01,6,26,30,3,1,2,3,8
1.015,0,9,7,3,1,7,10,6
1.02,7,15,61,1,1,2,11,1
1.025,2,23,3,5,1,2,2,3
1.03,7,16,28,7,1,3,2,1
1.035,8,26,10,6,4,4,8,10
1.04,3,4,14,16,1,4,4,3
1.045,13,2,9,8,2,3,3,6
1.05,0,2,22,0,0,0,12,7
1.055,7,7,2,6,1,2,17,12
1.06,1,15,28,5,3,3,2,11
1.065,0,10,25,4,3,1,3,8
1.07,12,21,22,1,2,2,6,17
1.075,4,48,58,6,0,0,4,5
1.08,7,2,18,6,1,0,11,3
1.085,0,23,20,1,0,2,2,5
1.09,0,13,3,4,0,1,1,10
1.095,6,0,67,5,3,5,10,13
1.1,2,4,26,4,0,1,1,2
1.105,7,20,6,0,0,0,0,1
1.11,3,15,15,4,0,0,6,9
1.115,1,3,16,3,1,4,2,8
1.12,2,9,14,11,1,4,3,2
1.125,7,3,43,13,2,3,0,0
1.13,3,30,2,13,6,4,2,1
1.135,19,28,0,2,1,0,2,8
1.14,1,7,13,12,1,0,1,2
1.145,7,19,17,10,4,3,1,1
1.15,4,34,3,7,0,1,2,8
1.155,5,17,13,9,2,1,1,12
1.16,8,12,11,11,0,2,1,11
1.165,5,25,19,8,4,4,3,13
1.17,1,4,30,0,7,10,9,4
1.175,2,43,61,4,4,2,3,7
1.18,4,44,31,10,2,4,13,10
1.185,5,6,24,3,3,1,17,3
1.19,19,19,23,5,0,1,3,2
1.195,6,3,41,2,1,0,4,24
1.2,14,32,35,10,3,2,6,27
1.205,31,58,26,1,3,5,18,23
1.21,15,24,11,9,6,5,5,2
1.215,18,8,51,3,1,0,14,16
1.22,2,15,0,4,1,5,8,3
1.225,5,1,17,6,1,1,5,1
1.23,12,13,16,3,1,1,4,1
1.235,9,3,15,0,1,1,21,13
1.24,1,11,46,10,5,2,2,29
1.245,2,10,16,3,1,1,5,19
1.25,6,13,34,3,3,3,8,3
1.255,2,19,5,1,0,1,17,8
1.26,3,65,58,13,8,9,12,6
1.265,2,5,9,5,0,1,0,23
1.27,3,1,8,3,1,0,1,14
1.275,6,20,27,7,5,8,17,10
1.28,3,1,25,5,1,5,8,0
1.285,11,2,27,6,2,1,3,7
1.29,7,9,22,5,2,5,3,9
1.295,29,7,69,4,2,1,1,5
1.3,6,0,41,7,2,1,1,19
1.305,1,12,4,2,3,2,3,7
1.31,15,3,62,8,5,5,6,9
1.315,10,6,1,3,3,2,6,4
1.32,14,22,13,11,2,4,8,2
1.325,8,11,12,4,0,2,6,5
1.33,4,4,7,3,1,2,14,12
1.335,6,11,11,4,1,2,2,5
1.34,7,8,13,4,2,1,3,15
1.345,16,37,21,4,4,5,21,11
1.35,8,10,38,2,4,6,36,5
1.355,14,21,15,2,1,3,9,2
1.36,14,32,31,4,4,7,19,6
1.365,11,32,13,1,1,4,2,42
1.37,8,16,63,7,1,2,14,36
1.375,5,3,52,3,2,1,20,5
1.38,2,13,1,0,2,2,7,1
1.385,1,13,2,1,1,3,1,6
1.39,7,2,8,2,2,2,33,3
1.395,20,18,0,2,6,3,30,3
1.4,6,6,8,3,2,6,7,8
1.405,2,10,10,7,3,5,10,7
1.41,2,24,53,5,2,0,12,3
1.415,8,4,13,2,1,4,7,1
1.42,6,1,12,7,8,7,5,5
1.425,15,16,33,7,3,8,16,9
1.43,2,10,19,4,2,4,10,5
1.435,0,16,1,7,1,3,14,0
1.44,0,15,17,2,1,0,16,16
1.445,10,42,23,5,5,9,2,16
1.45,4,9,41,5,1,1,2,13
1.455,11,48,2,3,5,4,5,1
1.46,8,17,1,3,3,3,16,12
1.465,18,18,50,1,1,1,12,6
1.47,0,31,63,2,1,2,9,12
1.475,11,1,9,2,4,7,2,2
1.48,12,3,23,4,0,1,20,6
1.485,35,10,27,3,6,3,7,14
1.49,13,15,49,8,0,2,2,7
1.495,23,23,23,12,6,7,12,2
1.5,27,25,1,3,1,2,33,20
1.505,17,8,2,5,5,6,5,3
1.51,7,13,16,2,2,3,20,10
1.515,0,6,51,5,3,1,4,10
1.52,3,12,21,4,1,5,21,9
1.525,0,2,51,12,6,8,1,7
1.53,2,29,14,2,0,2,5,7
1.535,12,18,20,1,2,2,6,5
1.54,8,27,0,4,1,4,3,2
1.545,6,20,9,3,0,1,4,18
1.55,2,38,65,10,7,11,21,18
1.555,9,28,52,7,0,4,17,16
1.56,13,5,64,5,4,3,8,8
1.565,9,11,27,3,1,0,3,12
1.57,3,12,58,2,1,1,0,10
1.575,26,6,4,0,2,2,7,39
1.58,22,15,4,6,6,0,3,9
1.585,26,16,46,8,6,3,8,8
1.59,15,13,3,1,1,0,3,1
1.595,24,1,16,2,1,1,10,14
1.6,23,11,9,3,2,2,4,12
1.605,1,13,21,5,5,7,7,9
1.61,7,26,39,6,1,2,23,5
1.615,13,25,41,5,1,2,21,4
1.62,3,20,69,6,2,1,1,1
1.625,24,8,24,3,0,3,7,3
1.63,12,18,15,2,1,1,0,2
1.635,21,6,23,2,3,1,12,6
1.64,4,29,79,12,4,4,10,0
1.645,6,20,7,0,0,1,7,9
1.65,6,4,43,6,4,2,5,13
1.655,20,2,19,4,2,0,4,17
1.66,3,6,21,0,1,3,4,22
1.665,4,3,10,3,0,1,6,13
1.67,11,2,26,9,7,10,2,19
1.675,3,14,23,0,1,4,18,1
1.68,9,5,14,3,0,1,12,3
1.685,2,2,8,0,0,1,5,8
1.69,12,5,5,3,2,1,10,3
1.695,13,15,2,3,0,1,5,4
1.7,45,24,19,8,6,6,7,15
1.705,15,9,37,2,1,2,6,8
1.71,6,15,36,4,0,3,7,8
1.715,3,3,28,6,2,1,7,13
1.72,6,3,32,3,2,2,3,3
1.725,6,14,25,1,0,1,5,4
1.73,3,5,6,3,0,2,4,4
1.735,3,13,33,1,1,0,8,3
1.74,26,18,58,0,1,0,5,16
1.745,21,51,33,5,5,0,1,6
1.75,3,28,6,8,1,1,3,2
1.755,21,9,7,3,4,7,0,8
1.76,4,23,25,5,1,2,17,7
1.765,13,23,18,2,2,1,6,2
1.77,2,16,28,6,3,3,1,5
1.775,30,10,26,1,1,3,6,8
1.78,5,14,7,6,1,3,4,5
1.785,8,2,6,5,1,1,4,12
1.79,15,8,12,2,1,3,1,11
1.795,14,16,24,2,1,0,21,10
1.8,0,10,1,2,1,1,7,1
1.805,1,7,26,9,1,1,4,11
1.81,2,6,7,6,1,0,3,0
1.815,8,16,9,4,2,2,5,2
1.82,7,11,8,3,2,4,7,28
1.825,10,4,13,3,2,1,6,5
1.83,15,8,2,9,4,4,8,2
1.835,4,7,13,6,2,2,3,9
1.84,3,20,5,5,1,1,1,2
1.845,9,1,42,1,2,1,5,6
1.85,8,3,3,1,2,3,7,5
1.855,4,30,21,6,2,2,0,0
1.86,6,17,12,8,3,3,5,1
1.865,1,20,27,2,1,1,1,0
1.87,12,10,14,2,3,0,6,2
1.875,17,7,2,2,2,0,7,2
1.88,23,4,1,3,1,4,5,1
1.885,3,3,4,11,3,1,11,11
1.89,2,8,58,6,0,0,2,2
1.895,2,6,42,10,2,2,0,7
1.9,4,27,7,2,1,2,4,5
1.905,6,8,10,2,3,6,11,5
1.91,16,7,24,3,2,2,14,8
1.915,8,30,12,3,1,1,3,5
1.92,1,12,63,8,3,0,3,11
1.925,1,10,12,3,4,3,2,11
1.93,10,6,14,2,2,3,5,12
1.935,4,21,36,6,1,1,10,5
1.94,16,43,80,12,3,3,9,9
1.945,7,2,15,3,0,1,1,1
1.95,2,43,23,2,2,1,1,4
1.955,3,5,2,3,1,1,4,4
1.96,5,23,63,8,0,2,4,0
1.965,2,7,8,4,1,1,4,2
1.97,10,13,42,6,1,2,1,5
1.975,2,1,9,4,3,4,2,6
1.98,7,14,20,2,1,2,0,4
1.985,15,5,19,12,3,0,6,2
1.99,12,6,8,3,2,0,4,2
1.995,5,15,6,21,4,4,6,10
2,11,67,73,29,1,1,1,7
2.005,9,41,78,4,2,1,2,4
2.01,12,13,11,12,6,0,2,2
2.015,3,9,24,8,4,4,4,4
2.02,9,20,13,6,1,1,8,11
2.025,3,14,6,5,5,2,2,3
2.03,12,19,4,21,2,3,1,1
2.035,4,14,32,22,2,0,3,1
2.04,4,0,18,5,1,1,4,5
2.045,14,14,29,3,1,1,0,1
2.05,11,16,25,1,4,4,4,3
2.055,35,1,5,21,3,1,2,7
2.06,2,9,13,19,3,1,3,2
2.065,11,10,20,0,1,1,5,0
2.07,3,48,9,16,2,2,4,5
2.075,0,67,19,2,3,3,6,13
2.08,6,6,15,7,3,5,3,1
2.085,17,32,76,4,4,5,4,9
2.09,4,7,11,8,1,2,1,0
2.095,4,2,32,14,1,2,1,6
2.1,19,37,23,3,4,6,8,8
2.105,7,15,31,1,1,2,2,4
2.11,15,3,25,1,5,3,2,9
2.115,2,16,37,17,7,1,2,1
2.12,10,9,11,4,4,1,1,4
2.125,10,16,46,24,1,0,2,4
2.13,1,12,57,6,4,3,6,8
2.135,3,22,23,4,2,0,3,7
2.14,16,6,22,5,3,2,2,5
2.145,21,35,24,6,2,0,1,10
2.15,7,1,22,4,3,2,4,5
2.155,3,21,0,0,1,1,3,3
2.16,1,8,11,5,3,3,7,3
2.165,9,27,4,12,3,2,4,1
2.17,4,14,46,3,1,0,1,2
2.175,1,8,32,8,1,1,1,5
2.18,20,6,20,5,2,1,1,1
2.185,1,62,35,2,1,1,0,0
2.19,1,27,19,6,3,1,0,3
2.195,6,41,19,5,1,1,0,6
2.2,13,6,8,7,2,1,0,2
2.205,2,7,9,0,0,1,3,2
2.21,12,28,29,7,6,6,3,1
2.215,7,4,15,3,2,2,1,6
2.22,4,1,58,4,1,0,2,3
2.225,0,16,50,0,3,2,3,13
2.23,10,5,29,4,2,2,1,5
2.235,2,2,9,0,1,0,1,3
2.24,5,2,13,1,3,3,4,1
2.245,6,3,7,7,1,3,0,0
2.25,28,28,43,2,2,1,3,2
2.255,19,13,59,1,3,5,4,8
2.26,1,20,5,23,0,1,3,6
2.265,5,11,20,3,3,2,2,1
2.27,7,4,9,1,1,1,1,1
2.275,3,9,6,9,1,1,0,0
2.28,5,11,9,20,2,1,1,1
2.285,2,11,61,28,3,1,3,5
2.29,6,0,8,7,3,3,3,4
2.295,7,19,38,1,1,2,1,1
2.3,6,3,16,8,1,1,2,1
2.305,2,24,22,5,1,2,2,2
2.31,9,7,52,6,1,0,1,5
2.315,0,5,9,22,6,2,0,1
2.32,1,7,16,11,5,4,2,0
2.325,3,10,3,17,15,1,1,1
2.33,10,13,43,3,2,1,1,1
2.335,17,3,5,4,1,1,0,0
2.34,18,41,12,2,7,1,2,4
2.345,6,1,10,8,5,1,2,1
2.35,0,4,24,7,2,3,1,0
2.355,4,8,6,2,2,1,2,3
2.36,6,17,6,13,1,1,2,1
2.365,4,11,1,4,3,2,1,0
2.37,1,4,3,30,0,1,2,3
2.375,2,8,24,2,4,1,1,0
2.38,3,5,44,6,3,2,3,1
2.385,3,8,1,14,5,2,2,1
2.39,4,13,0,17,2,1,0,1
2.395,2,2,8,1,3,0,2,0
2.4,1,10,10,2,1,1,0,3
2.405,2,11,1,11,5,3,1,2
2.41,3,11,18,23,6,1,2,1
2.415,1,1,11,14,4,1,3,2
2.42,3,6,8,7,3,0,2,1
2.425,0,7,43,4,6,2,1,3
2.43,3,1,26,12,1,3,2,1
2.435,1,6,9,13,5,0,2,0
2.44,2,14,5,5,1,1,1,2
2.445,9,7,0,31,3,2,1,1
2.45,11,2,5,4,7,3,4,2
2.455,1,3,10,19,14,1,3,2
2.46,2,7,1,12,12,0,2,0
2.465,3,5,13,77,0,1,1,1
2.47,1,0,9,77,9,2,1,0
2.475,4,11,8,17,5,0,1,3
2.48,2,3,14,23,1,1,3,3
2.485,1,3,13,9,4,1,1,1
2.49,3,3,8,29,9,3,2,1
2.495,1,13,25,31,18,3,1,0
2.5,2,11,50,23,0,0,1,1
2.505,0,2,13,12,12,4,2,1
2.51,2,6,3,12,5,3,2,2
2.515,5,8,1,39,0,1,1,3
2.52,2,3,13,22,2,1,1,2
2.525,0,4,9,10,0,1,1,2
2.53,2,3,6,55,0,0,1,1
2.535,0,1,3,31,4,4,1,1
2.54,3,1,6,5,7,3,3,2
2.545,0,1,6,18,2,2,2,2
2.55,2,1,13,28,1,2,2,0
2.555,2,2,0,15,13,4,2,0
2.56,0,4,4,3,14,2,0,0
2.565,1,1,1,18,6,1,2,1
2.57,0,3,2,10,5,1,1,0
2.575,0,2,4,11,10,3,1,3
2.58,1,3,3,11,4,4,3,2
2.585,0,2,2,4,8,1,0,0
2.59,0,0,1,9,8,1,0,0
2.595,2,3,1,22,2,2,1,2
2.6,2,2,1,13,6,3,1,0
2.605,1,0,1,4,3,2,2,1
2.61,1,2,8,32,0,1,2,1
2.615,0,1,0,7,3,2,3,0
2.62,2,3,2,12,8,3,2,3
2.625,1,0,2,10,14,4,1,2
2.63,1,3,0,5,1,1,0,1
2.635,1,0,1,6,5,2,3,0
2.64,2,2,1,4,4,1,1,2
2.645,1,3,0,2,1,1,0,0
2.65,1,0,1,6,7,1,1,2
2.655,2,4,1,14,16,5,4,2
2.66,2,3,0,6,6,2,1,0
2.665,1,1,2,6,1,0,1,1
2.67,1,2,2,19,2,1,2,2
2.675,1,3,4,17,3,1,1,1
2.68,1,2,2,6,6,1,1,1
2.685,0,3,1,6,5,3,2,0
2.69,2,1,1,1,4,0,0,0
2.695,0,1,2,2,2,3,3,0
2.7,1,3,0,3,3,2,0,2
2.705,1,1,1,2,0,2,1,1
2.71,0,1,0,3,2,1,1,0
2.715,3,2,2,0,1,2,1,2
2.72,1,0,1,4,10,0,1,1
2.725,3,4,2,1,9,2,3,1
2.73,1,2,0,2,1,2,2,1
2.735,2,1,1,1,7,2,3,2
2.74,0,0,2,6,4,2,1,1
2.745,1,1,1,7,2,2,0,1
2.75,1,2,1,0,6,1,3,2
2.755,0,2,1,7,8,2,0,1
2.76,1,1,0,3,5,6,4,1
2.765,0,0,1,2,6,2,3,1
2.77,0,0,2,1,5,4,2,2
2.775,3,5,1,3,4,1,1,0
2.78,2,3,2,2,1,2,3,1
2.785,0,2,1,3,1,1,1,1
2.79,3,0,2,4,5,4,2,2
2.795,1,1,1,2,2,1,4,0
2.8,2,4,1,2,5,1,1,2
2.805,3,4,1,1,5,0,0,5
2.81,0,0,2,3,4,2,1,0
2.815,3,0,2,0,0,1,0,4
2.82,1,1,1,3,2,1,1,1
2.825,0,2,2,1,5,3,1,1
2.83,1,2,1,2,1,3,2,0
2.835,0,1,2,3,3,2,0,3
2.84,3,1,2,3,2,1,1,3
2.845,1,2,0,1,4,1,1,1
2.85,2,1,0,2,2,2,1,4
2.855,0,0,0,1,1,1,1,1
2.86,1,1,1,0,1,1,0,2
2.865,0,1,0,1,3,2,0,1
2.87,0,2,3,4,1,2,2,2
2.875,2,2,1,1,2,0,1,1
2.88,2,2,2,1,1,1,0,2
2.885,1,2,1,0,3,2,2,0
2.89,1,0,1,1,4,0,3,0
2.895,0,1,1,11,5,0,1,2
2.9,0,2,1,9,8,0,2,1
2.905,0,4,3,7,1,1,2,0
2.91,1,2,0,4,4,1,1,2
2.915,1,1,0,3,4,0,2,1
2.92,2,1,0,2,2,2,3,3
2.925,1,0,1,1,1,1,1,1
2.93,2,3,1,2,1,2,2,0
2.935,1,2,4,3,1,0,1,1
2.94,0,1,0,2,2,0,2,1
2.945,1,1,2,3,2,2,2,0
2.95,2,0,1,3,1,1,2,0
2.955,1,2,1,2,2,2,1,1
2.96,0,1,3,8,4,1,2,1
2.965,0,2,1,2,6,1,1,3
2.97,1,1,1,5,7,6,5,2
2.975,3,5,2,3,1,0,1,1
2.98,2,2,2,2,5,7,4,1
2.985,1,2,1,1,4,3,2,1
2.99,1,0,2,1,0,1,1,2
2.995,1,0,3,2,3,5,4,1
3,0,1,3,3,6,5,2,4
3.005,2,1,1,1,2,3,0,2
3.01,1,2,2,1,1,0,1,1
3.015,0,1,0,1,2,2,2,2
3.02,1,2,2,2,1,1,1,1
3.025,0,0,2,0,5,3,0,1
3.03,2,0,2,1,0,1,1,2
3.035,0,1,2,2,1,0,0,0
3.04,1,1,0,2,0,1,2,2
3.045,1,3,3,2,2,1,1,1
3.05,0,2,2,4,6,0,2,0
3.055,1,0,0,1,1,2,1,1
3.06,2,3,1,0,4,2,2,0
3.065,1,2,0,1,8,2,1,1
3.07,2,1,1,2,2,1,0,1
3.075,1,1,1,1,3,2,2,2
3.08,0,0,0,2,3,3,1,3
3.085,1,1,0,1,2,0,1,0
3.09,2,3,0,2,2,1,1,2
3.095,2,1,2,0,0,1,1,2
3.1,1,2,1,1,2,3,1,2
3.105,2,1,0,1,1,1,0,0
3.11,0,1,0,2,1,0,1,1
3.115,0,1,0,1,1,0,1,1
3.12,1,1,1,2,3,1,1,1
3.125,1,0,2,1,4,1,1,0
3.13,2,3,3,1,2,3,4,3
3.135,2,2,1,1,1,0,1,2
3.14,0,3,1,2,1,2,1,1
3.145,3,2,2,1,5,4,2,2
3.15,0,1,1,3,2,2,1,0
3.155,1,2,3,3,8,9,3,2
3.16,1,1,2,2,4,7,2,2
3.165,3,0,1,3,8,7,0,0
3.17,0,0,1,1,1,12,0,0
3.175,0,1,0,0,1,2,0,2
3.18,1,3,2,2,9,9,3,0
3.185,2,2,1,3,7,0,3,3
3.19,1,1,1,1,2,6,3,0
3.195,1,1,2,2,3,0,0,1
3.2,1,1,1,2,1,0,2,1
3.205,1,0,0,9,3,1,1,2
3.21,3,4,3,8,3,5,0,1
3.215,2,2,1,18,4,1,1,2
3.22,0,1,4,17,6,2,1,0
3.225,0,0,3,3,2,2,1,1
3.23,2,3,2,5,10,5,2,1
3.235,1,0,3,12,8,5,5,2
3.24,1,1,1,7,17,13,4,1
3.245,2,1,0,3,13,6,2,0
3.25,1,2,0,1,10,4,2,1
3.255,2,1,2,1,4,4,2,0
3.26,1,2,0,2,13,12,2,1
3.265,0,1,2,2,4,0,1,2
3.27,2,0,0,1,4,0,1,1
3.275,1,0,1,5,14,6,3,0
3.28,1,0,1,2,17,3,3,3
3.285,0,3,2,2,7,1,0,0
3.29,1,2,1,3,0,4,2,1
3.295,0,2,3,2,0,3,2,0
3.3,2,0,1,1,6,1,2,2
3.305,1,2,1,1,4,3,1,1
3.31,2,0,1,4,5,1,0,1
3.315,2,3,1,1,3,2,1,2
3.32,3,2,2,1,8,10,3,0
3.325,0,0,1,0,24,7,2,1
3.33,1,1,2,3,38,4,1,0
3.335,1,3,0,1,2,0,1,2
3.34,3,4,2,9,22,2,2,2
3.345,2,1,2,11,9,3,1,2
3.35,0,1,0,0,15,4,1,2
3.355,0,1,2,14,14,1,4,2
3.36,0,1,1,16,34,4,1,2
3.365,1,2,0,5,13,2,3,0
3.37,3,6,3,10,2,1,1,1
3.375,1,1,0,3,1,7,0,1
3.38,2,1,1,6,15,3,3,2
3.385,2,2,3,2,12,3,0,0
3.39,3,0,3,5,4,5,1,2
3.395,1,5,2,1,3,3,2,0
3.4,2,3,2,5,2,2,3,1
3.405,3,3,0,2,2,4,0,1
3.41,2,1,0,9,4,4,2,1
3.415,1,0,0,6,2,1,0,1
3.42,3,1,2,15,1,0,1,1
3.425,3,4,3,6,1,3,2,1
3.43,1,1,0,2,0,1,1,1
3.435,1,4,0,16,5,2,0,2
3.44,1,5,1,37,19,8,4,4
3.445,4,5,8,64,15,4,1,2
3.45,0,2,2,3,4,1,2,1
3.455,1,1,2,6,6,1,0,2
3.46,1,0,2,5,2,3,1,0
3.465,0,2,1,8,3,1,1,1
3.47,1,3,1,8,1,2,3,0
3.475,1,2,0,4,2,0,1,1
3.48,2,2,0,2,0,1,1,1
3.485,3,2,2,8,2,2,2,1
3.49,3,3,3,14,3,2,1,5
3.495,0,0,0,5,5,2,1,0
3.5,3,3,0,3,5,0,1,2
3.505,0,1,1,5,4,2,1,0
3.51,0,2,2,1,1,3,1,0
3.515,1,0,0,6,5,1,0,3
3.52,1,2,0,4,2,1,1,1
3.525,1,1,3,3,0,1,0,2
3.53,0,0,2,8,3,2,0,1
3.535,2,2,0,5,2,1,0,0
3.54,0,0,2,2,2,3,1,1
3.545,3,1,1,2,2,0,0,2
3.55,3,1,1,6,3,1,0,2
3.555,0,4,3,2,4,1,2,2
3.56,2,3,4,7,1,1,1,2
3.565,1,0,2,11,3,3,1,2
3.57,2,2,0,5,4,0,1,2
3.575,1,3,3,3,10,1,1,0
3.58,1,1,2,17,7,3,1,1
3.585,1,0,4,0,2,1,0,1
3.59,0,0,0,1,3,1,0,0
3.595,1,1,0,4,5,2,2,1
3.6,1,0,5,10,5,2,0,1
3.605,1,1,0,3,3,0,1,1
3.61,2,2,0,5,1,1,3,3
3.615,1,1,0,5,6,3,0,3
3.62,1,1,0,15,6,2,0,2
3.625,1,0,2,17,2,1,1,1
3.63,1,1,0,1,0,1,1,0
3.635,2,2,2,11,3,3,1,1
3.64,2,1,2,1,3,1,3,1
3.645,2,1,2,8,9,4,1,1
3.65,1,1,1,3,6,0,0,1
3.655,1,2,2,2,2,0,3,1
3.66,1,2,1,11,2,2,0,0
3.665,1,0,2,9,3,2,1,1
3.67,2,2,1,7,3,2,1,1
3.675,1,1,0,7,1,0,1,1
3.68,1,2,3,12,0,2,2,3
3.685,1,1,0,3,1,0,1,3
3.69,1,1,0,2,0,1,2,0
3.695,2,4,4,5,2,0,2,1
3.7,1,1,2,4,6,3,1,1
3.705,1,6,3,10,3,1,1,1
3.71,2,0,2,3,2,0,2,2
3.715,2,2,3,2,1,1,1,2
3.72,2,0,3,1,0,0,0,1
3.725,0,1,1,3,3,2,0,2
3.73,2,1,2,5,2,0,1,2
3.735,1,2,2,3,4,0,1,0
3.74,1,2,1,1,1,2,1,1
3.745,2,0,0,8,4,1,2,1
3.75,2,2,1,13,0,2,2,2
3.755,1,0,2,0,2,1,3,1
3.76,0,1,2,10,4,2,1,0
3.765,3,3,0,4,2,1,2,1
3.77,1,1,2,5,1,1,0,0
3.775,1,1,2,1,1,0,1,1
3.78,0,5,0,5,0,1,1,3
3.785,2,1,0,2,5,1,1,2
3.79,3,4,1,11,1,1,2,3
3.795,2,0,2,3,1,3,0,2
3.8,1,2,3,4,2,1,1,2
3.805,1,0,2,1,2,0,2,1
3.81,0,1,2,5,3,1,1,1
3.815,2,3,1,1,1,2,3,1
3.82,2,0,3,1,3,0,1,2
3.825,1,1,0,0,1,1,0,1
3.83,1,3,2,8,4,3,2,3
3.835,2,2,1,2,1,2,1,0
3.84,0,2,0,3,3,0,1,0
3.845,1,4,5,6,2,1,1,2
3.85,1,4,1,7,7,3,3,1
3.855,0,1,1,14,8,1,2,2
3.86,2,5,4,1,5,3,2,2
3.865,1,2,2,1,2,0,0,1
3.87,1,3,4,1,0,0,0,1
3.875,0,1,2,16,5,1,0,1
3.88,1,2,2,2,2,1,2,2
3.885,1,1,0,2,0,1,1,1
3.89,0,2,1,2,0,1,0,2
3.895,2,3,2,2,5,1,0,3
3.9,0,3,2,0,2,1,0,0
3.905,2,4,3,3,1,1,2,1
3.91,1,1,1,6,1,1,1,1
3.915,0,0,1,6,1,0,1,1
3.92,2,0,2,6,2,2,1,2
3.925,2,2,2,2,1,1,1,0
3.93,1,1,2,4,3,0,1,1
3.935,1,0,1,5,2,0,1,2
3.94,1,4,2,1,1,0,2,0
3.945,2,3,1,5,3,2,3,2
3.95,1,2,2,2,1,1,1,2
3.955,1,1,2,6,5,1,1,1
3.96,0,2,0,2,0,0,1,1
3.965,1,3,1,2,2,0,3,1
3.97,0,1,2,1,5,2,0,1
3.975,1,4,1,4,2,0,0,2
3.98,2,5,4,4,3,1,1,1
3.985,2,4,2,1,2,2,0,0
3.99,0,0,1,2,2,2,0,0
3.995,2,4,1,6,1,2,1,3
4,2,5,6,16,5,4,3,4
4.005,1,1,0,2,3,3,1,3
4.01,2,2,1,1,0,2,2,2
4.015,2,2,2,4,2,3,2,0
4.02,1,3,1,2,1,0,1,2
4.025,1,3,4,0,5,2,0,1
4.03,0,2,1,3,2,2,1,1
4.035,1,1,2,2,0,0,2,0
4.04,2,2,1,4,3,3,1,2
4.045,2,0,2,6,3,1,0,1
4.05,1,1,1,0,2,1,1,1
4.055,2,0,0,8,3,2,0,2
4.06,2,0,3,11,1,1,2,2
4.065,0,1,1,3,2,0,1,2
4.07,0,0,1,11,4,3,2,1
4.075,1,1,2,0,0,0,1,0
4.08,1,0,0,4,5,1,2,2
4.085,3,0,0,4,9,0,1,2
4.09,2,5,1,7,0,1,1,1
4.095,1,0,1,3,1,2,1,1
4.1,1,2,1,1,2,2,2,1
4.105,1,0,2,6,2,2,2,1
4.11,2,0,0,2,2,2,1,1
4.115,0,3,1,2,2,1,1,0
4.12,3,1,4,2,0,0,1,0
4.125,1,0,4,5,0,1,0,0
4.13,1,3,2,3,0,2,1,3
4.135,1,1,2,3,2,3,2,2
4.14,1,1,0,1,2,1,2,1
4.145,1,0,1,6,1,0,0,2
4.15,2,3,2,0,4,0,1,1
4.155,1,3,2,2,3,0,2,0
4.16,2,2,1,3,1,1,1,1
4.165,1,1,0,3,5,3,2,3
4.17,1,0,0,0,1,0,0,2
4.175,1,2,2,1,2,1,2,2
4.18,1,2,3,3,1,4,2,3
4.185,1,2,0,7,6,1,0,1
4.19,2,1,1,9,0,2,1,1
4.195,2,0,0,1,0,1,2,1
4.2,2,3,2,3,2,2,2,1
4.205,0,3,3,9,1,2,1,1
4.21,0,0,2,3,2,0,0,1
4.215,2,1,0,1,1,1,2,0
4.22,1,1,1,0,1,1,1,2
4.225,1,2,1,3,2,1,2,3
4.23,1,1,1,4,4,2,0,1
4.235,0,1,1,2,3,2,0,2
4.24,1,3,1,3,3,2,3,1
4.245,1,2,0,9,6,1,0,1
4.25,2,2,3,4,3,1,1,1
4.255,0,0,2,1,1,1,1,0
4.26,1,0,1,4,1,1,1,0
4.265,0,2,0,2,4,1,0,1
4.27,1,1,0,4,3,0,1,2
4.275,1,1,0,12,11,2,2,2
4.28,1,4,5,11,6,0,0,1
4.285,2,1,2,0,5,3,1,3
4.29,0,1,2,5,1,1,0,1
4.295,0,3,5,2,1,3,3,0
4.3,2,1,2,9,3,2,0,1
4.305,1,1,2,0,2,0,1,2
4.31,0,0,1,1,2,1,1,1
4.315,1,4,1,0,1,1,1,1
4.32,1,1,1,4,3,0,1,2
4.325,1,1,1,3,4,0,0,0
4.33,1,0,0,4,3,2,2,2
4.335,1,1,2,1,1,2,0,0
4.34,0,1,1,6,6,2,0,0
4.345,1,0,2,1,3,2,1,1
4.35,0,4,3,5,0,0,2,1
4.355,1,2,0,11,2,1,0,3
4.36,0,0,0,1,1,0,0,0
4.365,0,1,1,0,1,0,0,2
4.37,3,0,1,2,2,2,3,2
4.375,1,2,3,2,1,0,1,1
4.38,2,1,0,2,1,1,3,0
4.385,0,0,2,5,2,1,1,1
4.39,1,0,2,3,0,1,0,1
4.395,1,2,2,0,1,3,1,2
4.4,1,0,1,2,4,2,0,1
4.405,1,0,1,3,2,1,1,1
4.41,2,5,1,4,5,1,1,4
4.415,1,1,0,7,6,1,1,1
4.42,1,3,1,7,4,2,1,2
4.425,1,4,0,0,0,1,2,1
4.43,0,3,1,1,2,2,0,0
4.435,0,1,0,6,1,1,0,3
4.44,2,1,1,1,1,1,1,0
4.445,1,2,2,0,1,0,1,1
4.45,3,0,0,3,2,0,1,2
4.455,0,1,1,2,4,2,2,1
4.46,2,4,0,2,1,0,0,2
4.465,0,3,3,6,2,3,0,1
4.47,1,0,0,0,0,1,1,2
4.475,1,1,2,6,2,1,0,0
4.48,0,2,0,2,2,1,1,1
4.485,0,1,2,0,1,1,2,1
4.49,2,1,1,0,1,0,1,2
4.495,1,1,1,1,2,2,1,3
4.5,1,2,0,2,4,1,1,3
4.505,2,1,1,5,7,0,2,1
4.51,1,2,1,2,3,1,1,0
4.515,1,2,2,1,2,2,0,0
4.52,2,1,1,3,2,1,0,2
4.525,1,0,0,5,2,2,2,2
4.53,1,2,1,1,0,0,1,3
4.535,2,3,0,1,1,1,1,0
4.54,1,2,3,1,3,1,0,0
4.545,0,2,0,1,1,1,0,0
4.55,1,2,1,1,1,3,2,1
4.555,1,3,1,1,2,3,1,1
4.56,0,0,1,1,1,2,2,0
4.565,4,4,2,0,0,1,1,2
4.57,2,1,2,1,2,4,0,0
4.575,1,1,1,6,3,3,1,2
4.58,1,0,1,11,3,1,2,2
4.585,0,0,2,0,6,1,0,2
4.59,1,5,4,7,2,0,1,0
4.595,0,1,2,1,4,0,1,1
4.6,2,2,2,6,2,1,0,0
4.605,0,2,1,1,2,2,0,0
4.61,1,2,1,2,1,1,3,2
4.615,3,2,1,0,0,0,0,0
4.62,1,1,2,2,5,1,0,0
4.625,1,1,1,2,1,1,2,0
4.63,0,0,1,2,0,2,1,1
4.635,0,0,3,1,2,1,0,1
4.64,2,2,1,5,2,1,2,1
4.645,2,0,2,8,5,0,3,0
4.65,1,0,1,2,1,0,0,2
4.655,1,4,1,0,0,2,1,1
4.66,0,1,0,5,3,1,1,1
4.665,0,0,1,5,3,0,2,1
4.67,0,2,1,0,2,1,1,2
4.675,1,1,1,2,1,1,0,2
4.68,1,0,1,0,0,1,0,1
4.685,2,0,0,6,3,1,2,1
4.69,1,1,1,5,1,1,1,1
4.695,1,1,1,2,1,0,2,1
4.7,0,2,1,1,1,1,3,2
4.705,1,0,2,2,2,3,1,3
4.71,0,1,1,7,2,1,1,1
4.715,0,1,1,1,3,2,2,2
4.72,2,0,0,1,0,2,3,1
4.725,2,2,0,9,5,0,2,1
4.73,1,2,2,4,1,1,2,0
4.735,2,2,3,5,3,1,1,1
4.74,0,2,1,7,6,3,0,2
4.745,1,2,1,4,4,2,0,2
4.75,0,1,3,0,0,1,0,2
4.755,3,0,0,2,2,2,1,1
4.76,2,0,1,1,1,3,0,1
4.765,2,1,2,3,2,1,0,1
4.77,1,0,2,1,0,1,1,3
4.775,2,1,0,0,2,1,0,2
4.78,1,1,2,2,0,0,2,2
4.785,0,3,1,0,4,1,1,0
4.79,1,1,3,1,1,1,0,1
4.795,0,2,1,3,1,2,0,1
4.8,1,1,0,4,0,1,0,1
4.805,0,0,1,7,5,0,1,2
4.81,0,0,2,1,1,2,1,1
4.815,2,0,1,9,2,0,2,1
4.82,1,0,1,5,5,1,1,1
4.825,1,1,1,3,3,2,1,2
4.83,1,2,0,1,3,0,0,1
4.835,1,0,2,3,1,0,2,2
4.84,3,3,4,2,4,2,2,1
4.845,2,1,3,1,2,1,1,1
4.85,0,1,0,0,0,2,2,2
4.855,1,1,1,4,2,1,0,1
4.86,2,1,2,2,3,1,0,2
4.865,1,1,2,0,1,1,1,2
4.87,1,0,1,3,5,1,1,2
4.875,2,1,3,1,2,2,1,1
4.88,1,1,0,3,0,0,0,2
4.885,0,1,1,2,3,3,2,1
4.89,1,1,1,1,2,2,1,0
4.895,1,2,0,2,1,0,1,0
4.9,2,1,0,4,5,2,2,2
4.905,1,3,2,3,5,1,1,2
4.91,1,2,3,1,2,1,1,1
4.915,0,4,1,0,1,0,3,2
4.92,0,1,2,3,3,1,1,1
4.925,0,1,1,2,4,3,4,2
4.93,1,2,1,1,1,1,3,0
4.935,1,1,2,1,2,2,1,2
4.94,1,3,1,0,1,2,0,2
4.945,2,1,2,3,1,0,1,2
4.95,1,0,1,3,4,1,1,3
4.955,1,2,3,0,0,1,2,2
4.96,0,2,2,4,3,0,2,1
4.965,1,1,2,1,2,2,0,1
4.97,1,2,3,5,3,0,2,0
4.975,1,0,0,2,2,0,1,0
4.98,1,1,0,0,2,2,1,1
4.985,0,1,2,3,3,2,3,3
4.99,0,0,1,2,3,2,1,2
4.995,3,2,1,0,1,0,1,1
5,3,1,1,2,2,3,0,2
5.005,1,1,0,1,2,2,1,0
5.01,1,0,1,2,1,0,2,1
5.015,1,3,4,4,1,2,1,1
5.02,2,1,1,1,2,1,1,0
5.025,2,1,1,3,3,0,1,0
5.03,0,1,1,9,6,1,2,1
5.035,1,0,1,2,1,1,3,1
5.04,2,2,1,2,2,2,4,1
5.045,1,0,1,3,1,1,0,2
5.05,0,0,2,9,3,1,0,1
5.055,1,1,0,4,3,1,2,1
5.06,1,4,1,1,1,0,1,1
5.065,1,1,0,0,3,1,1,1
5.07,0,0,3,4,2,1,1,1
5.075,0,1,1,2,2,1,1,1
5.08,2,0,1,6,3,3,2,2
5.085,3,2,0,2,4,3,0,0
5.09,1,0,1,4,2,2,0,0
5.095,1,1,0,4,3,0,1,0
5.1,2,2,1,0,0,2,0,1
5.105,2,0,1,0,3,1,1,1
5.11,0,2,0,1,2,1,2,1
5.115,0,2,1,2,2,2,2,1
5.12,1,1,1,2,4,2,2,1
5.125,2,2,1,1,2,0,2,1
5.13,2,2,2,1,1,1,2,1
5.135,1,2,3,3,3,2,2,1
5.14,1,3,1,1,1,1,0,1
5.145,3,0,0,3,2,0,0,2
5.15,1,0,3,6,1,1,0,1
5.155,0,1,3,3,2,1,0,0
5.16,1,0,1,2,2,0,1,0
5.165,1,0,2,1,1,2,1,1
5.17,2,1,1,3,2,1,1,1
5.175,1,2,1,2,3,0,1,1
5.18,0,2,0,2,4,3,1,1
5.185,2,2,2,0,2,2,0,2
5.19,0,2,1,2,2,1,1,0
5.195,1,1,0,10,5,1,0,1
5.2,2,1,3,5,1,0,3,0
5.205,3,3,1,0,1,1,1,3
5.21,2,1,1,1,0,3,0,0
5.215,2,0,1,0,0,0,0,0
5.22,0,0,3,1,4,0,0,0
5.225,2,2,1,0,2,2,0,3
5.23,0,0,1,1,0,2,1,0
5.235,1,0,0,1,0,1,0,0
5.24,1,1,1,1,1,0,1,1
5.245,0,2,1,1,1,1,1,0
5.25,1,3,1,1,1,2,2,1
5.255,1,1,2,3,1,1,2,2
5.26,1,1,0,1,1,1,2,2
5.265,0,1,1,2,2,2,1,1
5.27,1,2,2,0,1,0,1,2
5.275,1,2,0,3,1,1,1,1
5.28,0,0,0,1,3,1,1,1
5.285,5,3,0,0,1,2,3,2
5.29,1,1,1,4,1,1,0,2
5.295,1,2,4,11,4,1,1,3
5.3,0,1,1,4,1,2,1,1
5.305,2,0,3,2,1,1,1,1
5.31,1,2,1,3,0,0,1,1
5.315,1,2,2,0,1,2,0,3
5.32,1,3,1,0,2,2,2,1
5.325,0,1,1,3,5,3,1,1
5.33,2,2,2,7,8,2,0,0
5.335,0,1,1,0,3,0,0,1
5.34,2,3,2,2,2,2,2,4
5.345,1,2,1,1,0,1,1,1
5.35,1,2,2,7,3,3,1,3
5.355,2,1,2,2,1,0,2,1
5.36,2,1,0,1,2,1,1,0
5.365,1,1,0,3,2,0,2,1
5.37,1,1,1,3,2,1,1,0
5.375,0,1,2,2,2,2,2,1
5.38,0,1,1,8,1,2,1,1
5.385,0,0,3,1,2,1,1,3
5.39,0,1,3,4,5,2,3,1
5.395,2,1,1,1,2,1,1,1
5.4,2,2,2,7,1,1,1,2
5.405,0,3,0,4,3,1,1,1
5.41,2,1,1,4,4,2,0,2
5.415,1,1,0,0,1,0,2,0
5.42,0,0,1,1,1,1,2,0
5.425,2,0,0,1,1,2,1,1
5.43,0,2,1,2,4,1,1,1
5.435,2,1,1,3,3,1,1,3
5.44,2,1,2,1,1,0,1,0
5.445,1,2,1,3,0,0,1,2
5.45,0,0,0,2,1,0,2,1
5.455,1,0,0,1,2,2,1,0
5.46,1,1,2,5,3,0,2,1
5.465,1,2,3,3,3,1,2,0
5.47,2,2,3,2,0,0,1,1
5.475,2,2,1,1,1,1,2,0
5.48,1,1,0,4,2,1,3,2
5.485,0,1,2,0,0,3,1,4
5.49,1,1,1,2,2,1,1,0
5.495,1,1,1,2,0,1,1,1
5.5,3,3,0,2,0,2,1,2
5.505,1,2,1,1,2,1,1,0
5.51,2,1,2,2,1,3,1,2
5.515,0,0,0,2,1,1,1,2
5.52,1,2,0,1,2,1,0,1
5.525,1,3,1,1,1,1,1,0
5.53,0,1,1,2,2,1,1,1
5.535,0,1,2,3,1,2,2,0
5.54,0,1,1,2,2,1,1,1
5.545,1,1,0,0,1,1,1,0
5.55,2,1,1,0,1,0,3,2
5.555,2,2,0,3,2,1,1,1
5.56,1,2,2,1,1,0,2,1
5.565,1,2,1,1,2,1,2,2
5.57,0,1,1,2,1,2,0,1
5.575,2,2,3,2,2,2,1,1
5.58,2,2,1,2,1,1,0,1
5.585,0,2,0,0,1,0,0,1
5.59,1,1,1,4,3,2,2,0
5.595,3,1,0,2,1,1,1,0
5.6,1,0,3,0,3,2,0,2
5.605,1,2,2,2,2,1,2,1
5.61,2,1,1,1,0,0,1,2
5.615,0,2,1,2,2,0,1,1
5.62,0,0,1,2,0,2,0,2
5.625,2,1,1,0,2,1,2,1
5.63,1,0,1,2,2,1,1,1
5.635,1,1,2,1,0,1,1,2
5.64,1,0,1,0,0,1,2,1
5.645,1,0,1,0,2,2,1,0
5.65,3,2,1,0,0,0,1,1
5.655,0,3,2,0,0,2,0,0
5.66,3,3,1,3,3,0,2,4
5.665,1,0,3,1,2,2,3,3
5.67,0,3,2,2,2,0,2,0
5.675,0,0,1,2,0,0,1,1
5.68,1,2,0,1,1,1,0,1
5.685,1,1,1,1,1,0,1,1
5.69,1,2,1,1,0,2,0,1
5.695,0,0,0,2,2,1,1,1
5.7,1,3,3,1,0,2,2,1
5.705,0,0,0,1,0,1,2,1
5.71,0,0,1,3,2,2,0,1
5.715,1,2,0,1,0,0,1,0
5.72,1,3,1,1,2,2,0,3
5.725,1,1,1,1,3,0,1,1
5.73,2,1,0,2,1,1,1,2
5.735,1,2,2,2,2,4,1,2
5.74,0,1,1,1,1,1,1,0
5.745,3,2,1,3,1,1,0,1
5.75,3,3,4,5,3,2,2,1
5.755,3,4,2,1,0,1,3,3
5.76,0,1,1,3,3,1,1,2
5.765,1,0,2,1,0,1,0,1
5.77,1,2,1,2,0,2,0,0
5.775,0,2,3,1,0,1,1,1
5.78,1,1,1,2,4,2,1,2
5.785,1,0,0,1,2,0,0,1
5.79,3,0,1,0,1,2,2,2
5.795,1,1,0,3,3,1,0,1
5.8,1,0,0,1,2,1,1,1
5.805,3,3,1,4,2,2,1,1
5.81,0,2,1,0,0,2,2,1
5.815,1,2,0,2,1,1,0,0
5.82,1,0,1,7,2,2,2,1
5.825,1,2,1,6,2,1,2,1
5.83,0,0,3,4,1,1,0,2
5.835,3,1,4,5,2,1,1,0
5.84,2,1,2,0,2,0,0,2
5.845,0,1,2,7,3,3,1,3
5.85,1,0,1,1,1,1,4,1
5.855,1,0,0,2,2,1,0,1
5.86,1,2,1,0,1,0,2,1
5.865,0,2,2,3,1,2,2,2
5.87,0,3,3,1,2,1,1,3
5.875,2,1,0,2,2,1,3,2
5.88,1,1,4,1,0,1,0,0
5.885,2,1,3,0,1,2,1,1
5.89,1,2,1,4,6,0,1,1
5.895,0,3,0,4,4,2,2,1
5.9,1,1,2,2,1,1,2,1
5.905,1,0,0,3,2,0,1,3
5.91,1,2,0,2,1,2,0,1
5.915,0,2,2,6,2,3,0,0
5.92,2,2,0,0,0,1,2,1
5.925,2,1,1,1,0,0,1,1
5.93,2,2,2,3,2,1,1,2
5.935,2,1,0,0,4,2,1,1
5.94,0,0,2,1,0,0,1,1
5.945,1,3,2,6,4,2,1,1
5.95,1,2,0,2,2,0,1,1
5.955,0,3,2,1,1,1,1,1
5.96,1,0,2,4,1,0,0,2
5.965,2,1,2,1,1,1,2,0
5.97,3,1,0,3,0,2,1,1
5.975,1,1,1,1,1,2,1,1
5.98,2,1,0,1,0,3,0,1
5.985,0,0,1,1,0,2,0,1
5.99,2,0,2,4,2,2,0,0
5.995,1,1,0,2,2,0,0,2
6,0,0,1,5,3,0,2,1
6.005,4,2,0,2,4,2,3,1
6.01,0,1,1,0,0,2,1,1
6.015,0,3,2,1,3,3,1,2
6.02,2,1,1,3,0,0,1,1
6.025,0,1,1,6,1,1,1,1
6.03,3,3,3,8,3,0,2,2
6.035,2,1,2,2,1,0,1,1
6.04,1,3,1,2,1,1,1,1
6.045,0,2,2,2,2,0,0,0
6.05,1,0,0,2,2,1,1,2
6.055,2,0,2,1,1,2,1,2
6.06,2,3,1,1,2,2,2,4
6.065,1,1,0,3,2,2,5,2
6.07,0,0,1,1,0,0,0,1
6.075,0,0,0,2,1,1,2,0
6.08,2,3,0,1,2,1,1,1
6.085,1,1,4,5,1,3,2,2
6.09,0,2,1,1,2,1,0,1
6.095,2,2,0,0,1,1,1,0
6.1,0,1,0,3,2,2,0,1
6.105,2,1,1,1,2,1,1,1
6.11,1,2,2,5,1,2,2,1
6.115,1,0,4,12,4,3,2,1
6.12,2,2,1,5,3,0,2,2
6.125,1,2,1,4,4,2,1,2
6.13,2,3,1,8,3,0,2,2
6.135,0,2,1,1,2,1,2,1
6.14,0,1,1,2,1,2,3,2
6.145,1,0,1,5,1,2,1,1
6.15,1,0,1,2,2,1,0,0
6.155,1,2,2,4,1,3,1,1
6.16,1,2,3,5,2,1,1,1
6.165,1,0,0,2,2,1,1,1
6.17,2,1,2,3,3,1,2,1
6.175,2,0,1,1,2,1,0,1
6.18,1,0,3,2,2,1,1,0
6.185,0,3,1,1,1,2,1,0
6.19,1,2,1,0,1,0,0,2
6.195,1,0,1,0,2,1,1,2
6.2,1,2,1,3,2,2,2,1
6.205,0,2,1,2,1,3,1,3
6.21,1,1,0,4,1,2,0,0
6.215,2,3,3,0,1,1,2,2
6.22,1,0,1,1,3,0,0,1
6.225,1,2,1,1,1,0,1,1
6.23,0,3,0,0,1,0,1,1
6.235,0,1,1,1,1,1,1,0
6.24,0,1,2,2,1,2,1,2
6.245,0,3,2,1,0,0,3,1
6.25,3,1,1,3,1,1,2,3
6.255,0,1,0,0,2,1,1,2
6.26,1,1,2,0,2,0,1,0
6.265,1,0,0,1,4,1,1,1
6.27,2,1,3,1,2,1,0,1
6.275,1,2,1,2,1,1,1,0
6.28,1,1,2,1,1,0,2,2
6.285,1,1,0,0,2,0,1,1
6.29,1,3,1,2,1,0,4,2
6.295,0,0,0,1,1,1,0,3
6.3,0,0,0,1,2,1,2,1
6.305,0,3,1,0,2,2,0,0
6.31,1,2,2,8,3,2,1,1
6.315,1,0,1,3,2,1,1,1
6.32,0,3,1,8,3,1,3,0
6.325,3,3,3,3,1,2,0,1
6.33,1,0,1,2,2,3,0,0
6.335,1,0,1,6,3,1,1,2
6.34,1,2,2,6,4,3,0,1
6.345,1,1,0,2,2,0,1,2
6.35,1,1,0,1,1,3,1,0
6.355,0,2,1,0,1,1,1,0
6.36,0,0,0,0,1,1,0,0
6.365,1,1,0,3,1,0,0,1
6.37,1,2,4,11,1,1,1,2
6.375,2,2,1,3,0,1,1,1
6.38,3,2,1,1,2,3,0,2
6.385,1,2,2,4,3,1,2,0
6.39,0,1,1,1,1,1,2,2
6.395,3,3,0,3,1,1,1,2
6.4,2,0,0,0,0,3,1,2
6.405,1,1,0,0,1,1,2,0
6.41,1,1,2,1,2,2,1,1
6.415,0,4,3,0,1,2,0,1
6.42,2,2,1,7,4,1,1,1
6.425,0,2,1,3,1,2,2,1
6.43,2,0,0,1,3,1,0,2
6.435,1,0,1,5,7,0,0,0
6.44,1,2,2,2,4,2,1,1
6.445,0,2,1,3,1,0,3,4
6.45,1,2,0,0,2,1,1,0
6.455,0,3,0,0,2,2,1,1
6.46,2,1,0,0,2,2,2,1
6.465,2,1,4,5,1,1,1,1
6.47,1,1,1,1,1,3,3,2
6.475,0,0,1,1,1,1,0,0
6.48,1,2,0,0,1,1,3,1
6.485,1,3,3,3,3,2,1,1
6.49,1,1,2,0,1,1,1,0
6.495,1,2,0,2,1,3,1,2
6.5,2,0,0,1,2,1,0,0
6.505,1,1,1,0,3,1,1,2
6.51,0,2,0,0,0,2,2,1
6.515,2,2,1,1,3,1,3,1
6.52,1,1,2,0,2,3,2,0
6.525,0,0,1,5,2,0,1,0
6.53,0,0,2,0,0,0,0,0
6.535,0,1,2,3,4,2,1,3
6.54,1,2,1,0,1,1,1,1
6.545,2,1,2,2,0,1,0,2
6.55,2,1,0,2,4,2,0,1
6.555,1,3,4,3,3,1,1,1
6.56,0,0,2,4,1,1,1,3
6.565,3,1,2,3,1,1,2,2
6.57,0,0,0,2,0,0,2,1
6.575,0,0,2,2,2,1,1,0
6.58,1,1,1,2,1,0,0,0
6.585,0,0,0,0,0,1,0,1
6.59,1,2,2,0,0,1,2,2
6.595,2,1,1,3,1,0,1,1
6.6,1,1,1,1,0,1,1,2
6.605,3,3,1,2,1,2,0,1
6.61,1,0,2,1,1,1,1,2
6.615,1,0,0,1,2,1,2,2
6.62,2,2,1,2,2,2,0,1
6.625,1,1,2,1,0,3,1,0
6.63,1,1,1,2,3,1,1,0
6.635,1,3,2,4,0,0,1,1
6.64,1,1,0,1,2,1,2,1
6.645,0,1,1,2,1,1,1,1
6.65,0,3,1,1,0,3,1,2
6.655,0,1,2,1,2,2,1,1
6.66,1,1,1,2,2,1,1,1
6.665,1,2,2,1,2,0,1,2
6.67,0,1,1,3,1,1,1,3
6.675,1,1,1,0,1,3,2,0
6.68,1,1,2,4,2,0,0,1
6.685,2,0,0,1,1,1,1,1
6.69,0,1,0,3,3,3,2,2
6.695,1,1,2,0,1,1,0,2
6.7,1,2,2,0,0,1,0,2
6.705,0,0,1,2,0,0,4,1
6.71,3,3,2,0,2,0,1,1
6.715,1,0,0,0,2,0,0,0
6.72,1,1,1,1,1,0,0,1
6.725,1,3,2,2,2,1,1,2
6.73,1,0,0,2,3,2,1,5
6.735,2,0,1,3,1,2,1,0
6.74,6,1,0,1,1,1,0,3
6.745,4,2,0,1,2,2,1,0
6.75,1,0,0,1,2,1,2,0
6.755,3,2,1,0,2,1,1,4
6.76,2,0,1,2,2,2,3,4
6.765,3,1,0,0,2,1,2,0
6.77,3,4,1,3,3,1,0,1
6.775,2,3,2,1,0,1,1,1
6.78,3,3,3,4,1,0,1,1
6.785,2,2,1,3,2,1,2,3
6.79,1,1,1,0,2,2,2,1
6.795,1,1,1,2,1,2,3,1
6.8,1,2,1,2,1,0,1,2
6.805,2,1,1,4,2,2,0,3
6.81,2,1,0,1,1,1,0,2
6.815,0,1,0,1,2,2,1,1
6.82,2,4,2,0,2,2,1,2
6.825,0,1,2,1,0,1,1,0
6.83,0,1,2,2,1,0,0,0
6.835,1,1,3,1,1,2,1,1
6.84,2,1,2,2,1,3,2,2
6.845,1,1,0,2,0,1,1,0
6.85,0,0,0,1,1,1,1,1
6.855,0,2,0,0,4,0,0,3
6.86,1,1,1,4,1,1,0,1
6.865,0,2,1,1,3,1,1,0
6.87,2,0,3,1,0,0,1,1
6.875,4,2,1,0,3,1,1,0
6.88,2,0,2,1,2,0,0,1
6.885,2,1,0,5,0,0,0,0
6.89,2,4,1,9,4,3,2,1
6.895,1,0,1,1,2,2,1,2
6.9,2,2,1,0,1,1,3,2
6.905,1,0,3,1,3,1,1,2
6.91,0,1,0,0,2,0,1,0
6.915,1,1,0,1,0,1,0,1
6.92,0,2,2,1,4,2,1,1
6.925,0,0,2,1,0,1,0,1
6.93,1,3,3,3,2,1,0,0
6.935,1,3,3,3,1,0,2,1
6.94,2,1,2,0,1,1,2,0
6.945,0,2,2,4,2,1,1,1
6.95,0,0,0,7,2,0,1,0
6.955,2,3,3,6,2,0,0,1
6.96,0,2,1,1,0,1,0,2
6.965,0,3,2,2,2,1,1,1
6.97,0,0,1,0,1,0,2,0
6.975,1,0,0,2,2,1,1,0
6.98,3,0,1,0,0,1,1,0
6.985,0,3,1,2,1,0,1,1
6.99,2,1,1,2,0,1,2,2
6.995,1,0,1,2,2,1,1,2
7,0,1,2,3,1,1,2,1
7.005,1,0,0,0,0,1,0,1
7.01,1,3,1,0,1,2,1,2
7.015,1,1,1,0,2,1,2,1
7.02,0,2,1,0,1,2,1,0
7.025,1,1,0,4,5,3,2,0
7.03,0,1,0,7,5,1,0,1
7.035,1,1,0,2,3,2,1,1
7.04,1,1,2,1,3,1,2,1
7.045,2,3,1,3,3,2,1,0
7.05,2,0,1,4,2,2,0,1
7.055,1,2,3,1,0,1,2,2
7.06,0,3,0,0,2,1,0,0
7.065,1,2,2,4,3,0,3,3
7.07,1,1,0,1,2,3,1,0
7.075,2,2,0,1,2,1,0,1
7.08,0,3,1,3,2,0,1,1
7.085,1,1,2,0,0,2,2,0
7.09,2,3,1,2,1,1,2,1
7.095,0,1,1,0,2,0,1,2
7.1,2,0,2,2,2,2,1,1
7.105,1,1,0,1,1,0,1,3
7.11,2,1,2,4,0,3,3,0
7.115,0,1,3,3,3,2,3,1
7.12,1,1,1,1,1,2,1,0
7.125,1,1,3,1,2,1,2,0
7.13,1,2,3,2,2,1,1,0
7.135,2,2,2,1,1,0,2,3
7.14,1,0,1,0,0,3,1,2
7.145,1,1,0,5,0,0,0,0
7.15,0,2,1,2,2,3,1,2
7.155,3,2,1,0,0,1,2,1
7.16,1,2,2,0,3,1,1,3
7.165,2,1,1,2,3,2,0,1
7.17,0,1,1,1,0,1,1,1
7.175,2,0,0,2,1,1,2,2
7.18,2,0,2,2,3,1,2,2
7.185,2,1,2,0,3,1,1,1
7.19,1,1,3,3,2,1,1,0
7.195,1,2,1,3,1,0,2,0
7.2,0,3,2,4,2,0,2,1
7.205,0,0,3,0,1,0,2,1
7.21,1,1,1,3,0,0,2,2
7.215,1,3,3,2,1,2,1,2
7.22,1,2,2,2,2,1,1,0
7.225,1,0,1,1,1,0,2,1
7.23,2,3,1,1,2,3,1,0
7.235,1,1,0,2,1,1,2,2
7.24,2,3,0,1,1,0,0,1
7.245,1,2,1,1,3,3,3,1
7.25,1,3,0,2,0,0,1,1
7.255,0,2,1,0,1,1,2,2
7.26,1,0,2,0,4,2,2,1
7.265,0,1,2,6,3,0,1,4
7.27,1,1,0,1,1,2,1,2
7.275,0,0,2,3,2,1,0,0
7.28,0,0,1,0,1,0,1,1
7.285,2,1,0,1,2,2,1,2
7.29,0,0,3,0,2,2,2,1
7.295,2,1,0,1,1,0,2,1
7.3,1,2,1,2,2,0,3,1
7.305,1,2,0,0,2,2,2,1
7.31,1,4,1,2,1,1,1,2
7.315,1,2,2,1,2,3,0,2
7.32,1,1,1,1,1,1,0,1
7.325,2,1,1,3,1,2,1,1
7.33,0,1,2,4,2,0,1,1
7.335,1,1,2,0,1,4,1,1
7.34,2,1,2,1,1,1,1,3
7.345,2,2,4,1,2,2,0,1
7.35,1,1,1,1,1,1,1,1
7.355,1,1,3,0,1,0,1,3
7.36,1,2,1,0,0,0,0,0
7.365,2,1,1,3,2,0,1,1
7.37,1,0,0,0,1,1,0,2
7.375,1,3,1,1,1,2,1,0
7.38,1,3,0,2,1,2,1,2
7.385,0,5,0,1,0,1,0,0
7.39,2,0,0,4,0,2,1,0
7.395,1,1,2,3,2,1,2,1
7.4,1,1,2,1,2,1,1,2
7.405,2,1,0,0,1,0,1,0
7.41,1,0,1,2,3,1,1,1
7.415,2,2,1,1,1,1,1,1
7.42,1,1,1,1,3,0,2,1
7.425,1,1,0,2,2,2,1,1
7.43,2,1,2,1,1,0,1,2
7.435,2,2,1,4,2,1,1,2
7.44,1,1,0,1,4,1,1,1
7.445,0,2,1,1,3,0,2,1
7.45,1,2,2,0,1,1,0,1
7.455,1,2,0,1,1,1,0,0
7.46,1,0,0,1,1,1,0,1
7.465,1,0,2,1,2,1,1,2
7.47,1,1,2,2,2,1,1,1
7.475,2,1,0,0,2,0,2,0
7.48,3,1,1,7,3,0,1,1
7.485,1,1,2,11,6,3,0,2
7.49,1,2,2,3,5,1,2,0
7.495,1,1,1,2,1,2,2,2
7.5,3,0,1,0,2,2,2,0
7.505,0,1,3,3,1,0,1,1
7.51,1,1,0,2,2,0,1,1
7.515,1,3,1,1,0,1,0,1
7.52,2,2,2,3,0,1,1,2
7.525,0,2,0,0,1,1,0,0
7.53,0,2,1,3,4,1,0,1
7.535,1,1,1,2,1,0,1,0
7.54,0,3,2,5,3,1,1,1
7.545,1,1,1,1,1,3,3,2
7.55,1,1,0,4,3,1,1,0
7.555,1,0,1,1,3,1,2,0
7.56,1,1,3,8,2,2,0,1
7.565,1,3,0,1,1,1,1,1
7.57,1,2,0,3,3,1,3,1
7.575,3,2,2,1,0,1,1,1
7.58,1,0,1,1,1,2,1,3
7.585,2,2,0,0,1,0,1,1
7.59,2,1,3,3,2,2,3,3
7.595,0,2,2,2,1,1,1,2
7.6,2,1,1,1,1,2,1,1
7.605,1,1,1,2,0,0,0,1
7.61,2,2,1,0,2,3,2,2
7.615,1,1,0,2,0,2,2,2
7.62,1,4,1,0,1,0,2,2
7.625,1,2,0,0,1,1,2,1
7.63,1,0,2,2,0,1,2,0
7.635,1,1,2,1,1,2,0,0
7.64,1,3,2,3,2,1,3,2
7.645,1,1,2,0,3,1,0,1
7.65,2,1,2,1,3,1,1,2
7.655,2,1,1,1,2,1,0,2
7.66,2,1,0,1,2,0,1,1
7.665,0,0,1,4,2,2,2,0
7.67,2,3,3,10,4,0,0,2
7.675,1,2,1,5,1,0,0,2
7.68,0,1,3,1,3,2,1,0
7.685,0,1,1,0,1,1,1,2
7.69,1,2,1,0,3,2,1,1
7.695,0,1,0,3,3,2,1,2
7.7,1,0,1,2,2,1,2,1
7.705,3,1,1,3,0,3,1,1
7.71,1,0,0,0,0,1,0,3
7.715,1,2,3,3,2,1,0,1
7.72,0,1,3,0,1,1,0,2
7.725,1,1,1,3,2,0,1,0
7.73,0,1,3,0,1,1,3,1
7.735,1,3,1,1,0,2,2,0
7.74,1,0,2,1,2,2,1,1
7.745,2,1,0,0,1,0,1,1
7.75,0,3,2,4,2,2,1,2
7.755,2,0,0,3,1,2,2,2
7.76,1,1,3,1,1,1,1,4
7.765,2,1,1,2,1,2,1,1
7.77,1,2,0,4,1,0,1,0
7.775,0,0,1,3,0,1,0,0
7.78,2,2,0,2,2,1,0,1
7.785,1,2,1,0,1,2,2,2
7.79,1,2,2,1,2,1,2,0
7.795,0,1,1,2,2,1,0,1
7.8,1,1,1,0,0,1,1,1
7.805,2,1,1,1,1,1,0,2
7.81,2,1,0,2,1,0,3,1
7.815,1,0,0,1,3,1,2,0
7.82,2,2,1,2,1,1,1,1
7.825,2,2,2,4,2,2,1,3
7.83,2,1,1,1,2,2,0,1
7.835,1,1,1,0,1,1,2,0
7.84,1,0,1,1,1,1,1,0
7.845,0,2,2,1,3,0,1,0
7.85,1,3,0,1,1,0,1,1
7.855,1,0,0,4,1,1,2,2
7.86,2,2,2,3,1,1,0,1
7.865,2,1,2,0,2,2,0,1
7.87,0,0,0,1,0,1,2,1
7.875,2,2,2,1,0,0,1,3
7.88,2,2,3,3,5,1,3,2
7.885,0,0,1,5,6,1,1,1
7.89,1,2,0,1,4,2,0,2
7.895,1,2,1,1,2,2,1,1
7.9,2,2,1,2,1,0,2,1
7.905,1,2,0,3,0,1,2,2
7.91,2,1,2,2,0,3,2,2
7.915,2,2,2,0,1,1,0,0
7.92,0,1,3,2,0,1,2,1
7.925,0,1,1,1,2,2,0,0
7.93,2,1,1,1,0,2,1,0
7.935,2,1,2,1,1,2,1,0
7.94,1,0,2,2,0,1,1,2
7.945,1,1,1,2,2,0,2,1
7.95,1,3,1,1,0,1,1,1
7.955,0,2,0,1,3,1,2,1
7.96,0,1,1,0,0,3,1,1
7.965,3,4,0,2,1,1,2,3
7.97,2,2,1,1,3,2,1,0
7.975,1,1,1,2,2,0,0,2
7.98,2,0,1,1,1,0,1,1
7.985,1,1,2,4,2,0,1,1
7.99,0,2,0,3,2,2,2,1
7.995,0,1,0,1,0,1,1,1
8,2,2,2,4,1,1,0,1
