0.01,0,0,1,0,1,1,0,1
0.015,0,3,1,3,3,2,0,0
0.02,1,3,1,7,1,0,2,2
0.025,1,1,4,1,1,2,3,2
0.03,3,2,3,10,9,3,1,2
0.035,5,2,3,3,5,1,2,0
0.04,3,3,1,4,3,1,1,1
0.045,3,8,2,4,3,1,1,1
0.05,3,7,6,6,3,1,2,3
0.055,2,1,0,1,0,1,1,1
0.06,3,0,3,4,5,1,2,2
0.065,3,8,0,2,1,1,1,1
0.07,13,10,1,24,5,2,2,1
0.075,3,2,4,30,8,1,2,2
0.08,7,4,2,5,7,1,0,0
0.085,4,3,0,2,3,0,0,0
0.09,3,6,1,8,3,0,1,0
0.095,5,2,5,4,4,1,1,6
0.1,9,6,0,2,5,1,0,4
0.105,4,8,1,1,1,1,1,2
0.11,2,2,4,2,1,0,5,2
0.115,3,5,2,4,0,1,5,4
0.12,3,0,5,9,3,1,2,2
0.125,1,3,4,0,1,2,1,0
0.13,2,4,6,1,1,1,1,1
0.135,1,5,6,5,1,0,1,2
0.14,4,0,3,9,4,3,2,1
0.145,0,0,1,12,3,2,1,1
0.15,1,4,2,8,3,1,1,1
0.155,5,4,7,21,5,2,2,2
0.16,2,5,5,3,4,2,0,2
0.165,4,15,4,4,3,2,3,3
0.17,3,6,1,1,5,1,2,1
0.175,0,5,3,5,3,0,1,1
0.18,0,5,0,1,2,2,2,1
0.185,4,4,3,3,4,2,2,3
0.19,6,0,2,1,2,2,2,4
0.195,0,2,0,3,2,0,1,4
0.2,0,2,1,1,0,1,2,1
0.205,0,2,0,2,0,1,1,1
0.21,1,2,5,2,3,2,0,1
0.215,0,8,7,0,5,0,8,2
0.22,5,13,11,6,3,1,3,6
0.225,3,7,2,3,2,2,1,6
0.23,3,9,10,5,3,3,2,2
0.235,2,10,18,9,5,4,1,1
0.24,1,7,2,3,16,1,2,1
0.245,1,3,2,6,5,1,3,3
0.25,1,4,2,22,1,1,1,2
0.255,1,4,3,31,1,1,0,0
0.26,2,2,1,8,7,1,1,1
0.265,1,5,1,19,1,2,2,1
0.27,2,4,5,9,2,2,1,2
0.275,5,20,0,3,0,2,1,2
0.28,6,6,5,2,7,2,0,2
0.285,3,6,2,5,2,0,4,1
0.29,7,7,7,14,6,2,9,4
0.295,6,8,5,7,3,1,2,1
0.3,5,17,0,6,4,1,2,7
0.305,1,8,21,14,0,1,18,0
0.31,3,7,9,15,5,4,1,0
0.315,13,5,14,7,2,1,5,6
0.32,10,11,41,6,0,0,3,10
0.325,0,6,46,22,1,6,8,4
0.33,1,3,67,23,0,2,2,3
0.335,5,11,31,8,0,1,2,3
0.34,9,0,19,16,0,3,4,6
0.345,2,14,5,2,1,2,3,0
0.35,3,3,21,9,11,3,1,0
0.355,2,6,11,38,2,2,5,2
0.36,2,12,11,16,1,0,6,4
0.365,0,3,13,0,3,2,2,1
0.37,8,1,2,5,4,2,5,4
0.375,7,12,10,7,3,1,5,5
0.38,5,4,11,10,2,2,4,6
0.385,4,26,2,0,2,3,3,1
0.39,0,20,23,22,2,0,12,8
0.395,0,1,4,42,1,1,2,1
0.4,4,1,7,11,12,1,5,3
0.405,5,7,5,29,20,1,6,2
0.41,2,1,17,4,0,2,5,0
0.415,3,0,20,9,2,2,1,0
0.42,8,5,8,16,4,1,1,0
0.425,10,11,22,8,9,2,0,0
0.43,3,14,22,8,3,4,5,3
0.435,1,15,3,5,1,1,2,0
0.44,7,4,8,5,1,0,1,1
0.445,1,19,13,8,8,2,2,1
0.45,1,6,20,9,5,0,1,1
0.455,1,0,1,2,7,2,2,0
0.46,9,2,13,1,6,2,1,4
0.465,8,8,15,1,2,3,0,0
0.47,13,1,13,8,4,5,4,5
0.475,2,5,14,17,0,2,3,0
0.48,1,2,6,6,3,2,0,1
0.485,11,30,4,13,3,1,1,1
0.49,2,1,1,24,5,1,5,4
0.495,7,11,10,30,2,0,2,2
0.5,8,2,10,34,6,1,3,4
0.505,1,21,19,37,7,2,3,3
0.51,1,1,46,15,5,1,1,0
0.515,1,1,19,3,0,0,0,0
0.52,1,12,24,10,2,2,0,3
0.525,8,9,12,26,8,2,2,2
0.53,5,1,32,3,8,2,0,1
0.535,0,18,49,26,3,3,1,2
0.54,2,9,1,17,2,0,3,2
0.545,1,3,11,9,7,1,2,2
0.55,2,3,13,13,3,1,1,1
0.555,5,4,11,24,2,1,2,1
0.56,7,1,4,16,0,5,0,2
0.565,0,3,19,3,1,1,3,2
0.57,6,0,9,6,3,2,1,5
0.575,4,17,2,12,4,1,1,4
0.58,7,7,7,12,1,0,0,1
0.585,13,1,10,14,3,1,1,4
0.59,22,32,3,0,5,2,3,3
0.595,1,2,12,10,0,1,2,1
0.6,5,1,3,17,0,0,1,3
0.605,9,27,10,11,4,3,4,6
0.61,13,8,1,5,3,3,2,2
0.615,6,19,9,1,2,1,2,5
0.62,16,4,0,5,0,2,6,4
0.625,21,20,38,2,2,5,5,8
0.63,2,1,19,4,2,2,1,4
0.635,0,3,28,11,5,2,1,0
0.64,2,10,20,1,1,2,0,2
0.645,10,0,3,10,4,3,2,5
0.65,2,13,30,7,5,1,3,2
0.655,12,6,20,10,0,2,2,3
0.66,2,0,17,26,6,1,2,4
0.665,8,19,32,0,0,0,1,1
0.67,2,15,22,7,4,1,1,6
0.675,6,31,29,0,1,5,5,6
0.68,6,12,0,11,7,4,10,9
0.685,6,21,1,10,3,3,2,2
0.69,17,17,3,43,1,1,2,2
0.695,13,11,2,49,3,8,7,8
0.7,1,14,15,36,4,4,1,1
0.705,7,4,15,24,3,0,3,4
0.71,4,9,24,15,12,3,2,3
0.715,7,4,20,17,0,0,2,3
0.72,4,1,15,12,7,1,3,2
0.725,10,5,1,16,2,2,1,4
0.73,8,5,6,18,13,4,1,7
0.735,3,2,7,16,12,1,2,1
0.74,1,2,5,1,5,0,0,2
0.745,3,11,1,25,2,2,1,0
0.75,1,14,3,40,2,2,1,1
0.755,2,4,12,10,17,3,0,1
0.76,5,8,0,3,4,1,0,1
0.765,2,6,3,2,3,3,3,2
0.77,4,20,6,1,11,6,4,2
0.775,0,2,6,10,17,6,3,3
0.78,3,4,2,11,12,2,1,0
0.785,4,2,8,29,9,2,3,0
0.79,3,17,4,13,4,4,4,4
0.795,5,17,3,18,5,4,0,1
0.8,1,10,4,24,6,3,0,2
0.805,3,13,11,66,3,2,0,0
0.81,2,7,16,7,1,0,2,3
0.815,0,1,10,0,7,2,1,2
0.82,3,2,1,4,2,2,1,0
0.825,3,8,2,11,12,3,1,0
0.83,0,6,4,1,6,1,2,1
0.835,0,7,1,4,2,0,1,2
0.84,3,2,0,18,5,1,1,1
0.845,2,9,6,16,1,3,1,2
0.85,3,2,1,12,7,1,0,1
0.855,0,12,7,16,9,1,0,2
0.86,1,10,11,6,0,1,0,2
0.865,1,3,1,4,4,2,2,1
0.87,3,1,7,14,3,2,3,0
0.875,2,5,1,0,8,2,2,3
0.88,0,4,1,8,1,1,1,0
0.885,3,2,5,2,5,2,3,1
0.89,4,0,1,13,0,2,2,4
0.895,5,3,1,6,7,3,2,4
0.9,3,6,4,7,3,1,1,2
0.905,2,1,0,12,0,1,2,2
0.91,3,0,0,1,6,3,0,2
0.915,2,3,5,1,3,0,0,2
0.92,2,2,1,17,1,2,1,0
0.925,0,5,2,9,0,1,1,1
0.93,1,0,1,15,5,2,2,1
0.935,1,0,5,22,9,3,2,1
0.94,0,1,0,11,14,3,1,1
0.945,2,6,0,23,14,1,2,1
0.95,0,10,5,17,15,1,1,1
0.955,0,0,12,33,14,1,3,2
0.96,4,4,8,30,12,3,3,6
0.965,1,0,4,13,0,5,3,2
0.97,2,0,6,1,2,2,3,1
0.975,1,5,2,5,2,3,1,1
0.98,2,0,6,21,7,0,2,1
0.985,1,9,3,10,8,1,1,1
0.99,0,3,1,4,4,1,2,1
0.995,3,6,3,12,1,0,2,1
1,1,1,1,10,5,1,1,0
1.005,0,1,2,7,5,3,3,1
1.01,1,5,1,6,4,2,4,3
1.015,2,1,2,2,2,1,3,4
1.02,1,2,2,10,3,0,1,1
1.025,4,5,4,5,5,1,0,4
1.03,0,0,7,6,2,2,2,1
1.035,1,1,2,15,1,1,3,2
1.04,0,1,3,6,9,2,6,2
1.045,4,16,2,1,10,0,4,1
1.05,1,13,1,2,6,1,2,4
1.055,6,11,0,2,5,1,2,1
1.06,3,0,8,2,2,0,1,1
1.065,3,4,10,5,8,4,1,2
1.07,2,1,4,36,1,2,1,1
1.075,0,1,0,8,1,0,0,2
1.08,2,1,2,1,5,0,0,4
1.085,0,1,2,4,2,2,2,0
1.09,1,1,2,5,11,0,2,1
1.095,2,2,4,2,0,2,1,1
1.1,3,5,10,48,0,1,0,0
1.105,3,9,12,14,9,1,2,2
1.11,1,7,3,16,0,2,2,2
1.115,5,20,16,46,9,3,3,4
1.12,3,3,16,69,6,2,2,2
1.125,1,2,18,29,0,0,0,0
1.13,6,15,6,11,9,5,4,2
1.135,2,16,7,30,10,0,0,1
1.14,0,11,4,2,11,1,3,2
1.145,7,11,10,8,9,2,0,2
1.15,5,4,8,7,23,0,2,2
1.155,6,9,2,5,16,5,3,3
1.16,2,5,3,23,8,10,3,2
1.165,1,0,15,28,15,9,1,1
1.17,3,3,3,31,15,2,1,1
1.175,4,5,1,9,3,1,0,0
1.18,1,12,15,33,5,0,1,0
1.185,3,14,29,13,26,9,3,3
1.19,5,19,0,23,11,6,4,2
1.195,6,12,17,50,33,5,1,1
1.2,1,3,15,2,6,1,2,0
1.205,1,0,4,8,16,1,3,2
1.21,3,12,6,25,16,2,2,2
1.215,3,12,6,53,10,1,1,1
1.22,0,3,18,43,9,1,0,3
1.225,2,4,13,16,7,2,2,0
1.23,1,7,6,58,3,1,2,2
1.235,1,6,5,56,2,2,1,2
1.24,5,15,13,13,5,1,1,3
1.245,1,3,11,7,2,5,0,1
1.25,2,5,7,46,3,2,3,2
1.255,2,1,1,32,9,5,1,1
1.26,2,2,6,7,40,7,2,0
1.265,2,2,8,32,38,5,1,2
1.27,3,9,8,27,11,2,1,1
1.275,3,5,3,17,14,0,0,1
1.28,2,3,5,8,18,2,3,4
1.285,1,1,1,12,2,3,3,2
1.29,2,4,1,10,1,1,2,0
1.295,1,0,1,42,3,2,2,2
1.3,1,4,0,49,1,3,2,2
1.305,0,3,1,21,19,3,1,1
1.31,6,6,8,12,36,5,3,4
1.315,2,3,2,21,51,3,0,1
1.32,2,1,15,6,16,4,2,3
1.325,0,13,9,18,6,3,0,1
1.33,1,2,3,1,15,2,1,3
1.335,3,5,16,9,14,3,3,2
1.34,1,3,17,3,5,2,3,1
1.345,1,4,2,26,6,2,2,3
1.35,2,2,5,12,5,0,0,0
1.355,2,2,8,25,15,1,0,1
1.36,1,5,13,0,4,1,5,3
1.365,0,3,4,25,0,3,3,0
1.37,2,7,10,22,12,0,1,3
1.375,0,1,1,6,11,1,1,2
1.38,2,1,1,13,6,2,0,3
1.385,4,8,0,6,36,10,9,6
1.39,1,3,5,5,40,2,5,3
1.395,6,4,1,11,3,4,1,0
1.4,0,0,6,4,18,4,1,2
1.405,0,2,2,11,3,0,2,1
1.41,3,2,5,39,6,4,5,3
1.415,0,3,6,32,22,4,2,2
1.42,3,2,5,8,26,0,0,0
1.425,1,3,9,37,14,1,2,0
1.43,1,3,2,36,5,3,2,0
1.435,1,2,5,9,6,3,2,0
1.44,2,4,0,10,8,0,0,1
1.445,2,7,1,13,9,1,1,3
1.45,4,5,4,5,11,2,0,3
1.455,0,1,5,18,10,5,3,2
1.46,2,1,3,17,11,6,2,0
1.465,2,1,3,10,6,0,0,1
1.47,1,0,4,13,1,6,6,1
1.475,2,5,0,10,8,2,2,0
1.48,2,3,1,4,8,3,2,3
1.485,1,3,1,3,2,3,0,2
1.49,3,1,4,18,12,0,4,0
1.495,1,1,2,20,2,3,1,3
1.5,2,2,2,2,4,2,1,1
1.505,3,3,4,10,15,3,1,0
1.51,3,3,5,5,1,3,2,2
1.515,1,4,2,1,5,1,0,1
1.52,1,0,3,9,29,7,2,0
1.525,1,1,2,2,18,2,1,0
1.53,2,0,1,11,20,3,0,0
1.535,4,1,4,4,11,4,1,3
1.54,2,9,2,7,3,3,2,1
1.545,4,6,3,12,3,1,1,1
1.55,7,12,1,4,3,1,1,3
1.555,1,1,2,3,20,5,2,2
1.56,0,5,5,18,3,3,2,2
1.565,1,3,1,7,17,3,0,2
1.57,4,4,4,28,24,3,0,2
1.575,3,3,6,7,7,3,2,3
1.58,2,1,6,5,8,3,0,2
1.585,1,3,4,22,8,1,0,1
1.59,1,3,2,14,12,2,1,2
1.595,1,3,1,0,6,1,2,1
1.6,2,1,2,32,7,3,1,1
1.605,4,3,2,42,10,1,1,2
1.61,1,3,0,11,8,0,2,1
1.615,1,4,4,1,3,0,1,2
1.62,2,0,1,2,3,0,1,0
1.625,3,1,1,3,8,2,1,2
1.63,2,1,7,8,3,1,1,2
1.635,1,0,4,9,5,1,1,0
1.64,3,1,0,19,0,2,3,1
1.645,1,6,1,11,21,4,2,1
1.65,3,3,4,1,15,3,2,0
1.655,2,0,3,4,2,3,1,3
1.66,3,2,1,2,4,0,0,1
1.665,0,1,1,2,6,1,0,0
1.67,1,7,1,5,1,0,1,0
1.675,3,1,4,13,11,7,3,2
1.68,2,1,1,4,16,3,1,3
1.685,1,7,3,7,1,2,1,2
1.69,5,7,1,5,1,1,1,1
1.695,3,5,2,24,1,2,1,1
1.7,2,0,4,38,9,4,0,0
1.705,3,2,0,18,17,5,0,2
1.71,1,0,3,18,48,4,1,2
1.715,3,5,3,11,9,4,2,1
1.72,4,7,1,57,54,8,5,7
1.725,3,1,3,86,51,9,5,4
1.73,5,7,10,23,15,3,2,2
1.735,1,3,2,19,3,1,3,1
1.74,3,4,4,18,3,3,4,2
1.745,1,7,1,5,9,7,5,3
1.75,3,0,3,41,12,0,1,0
1.755,4,5,0,3,1,1,2,0
1.76,1,4,4,18,19,1,1,1
1.765,0,1,4,20,8,2,2,3
1.77,2,2,4,1,26,6,1,1
1.775,0,2,3,31,20,5,2,1
1.78,2,4,1,11,11,2,1,1
1.785,3,3,4,52,26,6,4,2
1.79,3,3,3,25,0,1,1,0
1.795,1,3,5,11,14,2,2,2
1.8,1,2,1,49,12,2,4,3
1.805,1,1,5,63,19,2,2,3
1.81,2,3,2,28,28,7,5,5
1.815,6,5,10,11,29,1,1,4
1.82,3,2,1,9,4,1,3,1
1.825,2,2,5,1,2,1,2,4
1.83,1,1,6,17,3,2,1,2
1.835,0,1,7,19,12,2,1,1
1.84,3,2,5,3,2,1,1,1
1.845,3,8,5,22,4,0,0,3
1.85,2,1,3,24,3,0,1,1
1.855,2,1,1,8,4,3,2,2
1.86,1,1,6,3,4,1,2,0
1.865,2,1,2,2,1,1,1,2
1.87,2,3,1,16,11,1,5,6
1.875,0,3,1,14,15,4,1,1
1.88,0,4,4,3,6,2,1,1
1.885,1,1,4,78,39,7,2,1
1.89,1,3,3,94,41,5,2,0
1.895,3,1,7,19,2,1,3,2
1.9,3,2,5,24,7,1,1,0
1.905,1,6,2,12,5,3,1,2
1.91,1,0,4,1,3,0,1,1
1.915,0,2,2,4,12,2,1,2
1.92,2,0,1,9,10,2,0,0
1.925,4,3,1,5,1,3,1,1
1.93,3,1,6,45,11,5,0,1
1.935,0,0,2,22,1,1,1,0
1.94,1,1,1,2,9,1,1,0
1.945,7,8,6,30,21,10,9,9
1.95,4,6,3,3,11,4,3,4
1.955,1,5,5,50,38,3,1,0
1.96,2,7,2,6,14,3,2,1
1.965,0,1,1,13,1,2,0,0
1.97,3,0,1,4,15,4,2,2
1.975,1,4,3,28,23,3,1,2
1.98,2,0,1,9,1,2,1,1
1.985,1,2,1,43,16,3,1,0
1.99,0,1,5,29,16,4,2,1
1.995,1,4,2,18,10,0,1,2
2,3,2,1,15,5,1,0,2
2.005,5,3,2,46,20,5,3,2
2.01,4,1,5,24,27,6,4,2
2.015,5,5,3,14,5,2,2,3
2.02,5,5,5,15,2,1,1,2
2.025,1,6,2,5,14,2,1,2
2.03,4,7,0,7,2,3,0,3
2.035,5,6,3,2,7,1,1,0
2.04,1,1,4,16,6,3,1,1
2.045,3,2,7,25,1,1,1,1
2.05,4,6,8,29,11,1,3,2
2.055,4,3,3,25,6,2,2,1
2.06,0,0,1,13,1,0,3,3
2.065,1,2,9,16,9,2,0,2
2.07,1,2,2,2,2,1,3,3
2.075,1,3,1,16,9,0,0,1
2.08,0,3,1,19,10,2,2,0
2.085,1,1,3,7,4,0,1,1
2.09,0,4,2,1,1,1,0,1
2.095,2,0,0,9,4,1,1,2
2.1,0,0,0,1,3,1,3,2
2.105,5,1,1,9,2,2,3,1
2.11,1,1,2,2,3,2,3,1
2.115,2,1,2,9,9,1,0,1
2.12,1,2,3,1,2,1,1,0
2.125,0,2,0,3,3,1,1,0
2.13,4,1,0,9,12,4,2,0
2.135,0,1,2,9,7,2,0,1
2.14,2,1,1,27,15,2,0,2
2.145,1,0,4,1,21,3,0,1
2.15,1,3,2,0,14,2,1,1
2.155,2,5,0,8,11,2,1,0
2.16,2,3,3,24,15,2,2,1
2.165,4,3,5,54,27,1,2,6
2.17,4,0,0,8,6,1,0,2
2.175,1,2,1,10,1,2,5,4
2.18,0,1,0,14,4,4,3,3
2.185,3,3,2,23,14,4,4,3
2.19,4,5,4,2,4,2,3,1
2.195,0,3,1,1,3,2,2,1
2.2,2,1,3,20,1,4,3,2
2.205,2,4,3,10,3,2,2,1
2.21,2,3,2,10,4,0,2,3
2.215,3,1,0,19,12,2,0,1
2.22,2,3,1,15,3,1,1,1
2.225,0,6,6,9,7,3,0,4
2.23,1,2,1,12,5,1,2,0
2.235,1,6,1,1,3,1,2,1
2.24,1,0,1,2,0,1,1,2
2.245,2,0,4,11,7,1,2,0
2.25,2,1,3,16,12,4,2,3
2.255,3,1,1,19,0,3,2,3
2.26,0,8,3,4,1,1,1,1
2.265,2,1,6,22,1,2,4,2
2.27,0,1,6,12,1,3,2,2
2.275,1,3,4,5,1,1,0,2
2.28,2,1,7,4,2,1,1,1
2.285,1,1,1,3,9,3,1,1
2.29,3,5,2,42,5,2,3,2
2.295,0,2,3,36,10,1,1,0
2.3,2,4,0,5,5,0,0,1
2.305,2,3,7,6,2,3,3,1
2.31,2,0,1,1,4,3,2,0
2.315,1,4,5,11,7,1,1,1
2.32,3,2,2,5,1,2,0,2
2.325,2,1,2,4,3,1,1,3
2.33,2,3,1,1,0,1,1,2
2.335,1,1,3,9,12,3,3,4
2.34,1,7,2,8,6,1,0,2
2.345,1,3,1,9,6,3,1,3
2.35,3,2,1,4,3,0,2,1
2.355,2,5,5,1,6,1,3,2
2.36,4,2,2,3,6,3,4,1
2.365,1,2,9,24,3,3,5,1
2.37,0,8,1,34,12,0,1,1
2.375,5,1,3,9,4,3,4,1
2.38,2,2,3,0,1,0,2,2
2.385,3,1,3,4,2,1,1,2
2.39,0,7,4,8,3,3,2,2
2.395,6,9,4,6,2,3,5,4
2.4,1,2,0,15,10,1,1,1
2.405,1,0,0,7,6,2,1,4
2.41,1,3,4,1,2,1,1,0
2.415,2,2,1,0,2,0,4,2
2.42,5,1,7,11,4,2,2,1
2.425,2,0,2,13,2,2,2,4
2.43,2,5,4,8,7,2,4,0
2.435,2,2,2,3,7,1,4,5
2.44,1,2,5,1,1,1,5,4
2.445,1,3,2,0,1,4,5,4
2.45,3,3,2,1,0,0,0,1
2.455,2,0,2,18,17,1,2,0
2.46,1,3,3,6,10,3,1,1
2.465,6,2,5,4,4,2,2,3
2.47,4,7,12,18,8,3,4,5
2.475,3,1,1,8,5,6,3,4
2.48,1,3,2,23,5,1,3,3
2.485,1,3,3,24,12,2,2,4
2.49,3,1,1,39,22,3,3,8
2.495,5,2,1,4,3,3,2,3
2.5,6,3,3,7,4,2,2,2
2.505,3,4,1,19,1,1,1,0
2.51,10,2,1,19,4,2,1,3
2.515,3,5,2,9,7,1,1,0
2.52,1,3,4,11,11,1,2,1
2.525,1,6,1,7,3,0,1,2
2.53,0,1,2,9,5,3,2,0
2.535,2,1,3,6,1,1,3,0
2.54,5,4,6,22,13,4,5,4
2.545,2,2,1,18,9,0,1,0
2.55,1,3,4,2,5,1,0,1
2.555,0,2,1,6,5,5,13,12
2.56,5,6,2,3,6,1,0,5
2.565,1,6,2,9,1,0,2,4
2.57,2,4,3,16,4,2,7,7
2.575,1,2,5,6,3,2,4,5
2.58,3,4,1,3,1,4,0,0
2.585,14,21,4,2,9,1,1,4
2.59,2,3,1,8,1,3,2,0
2.595,2,7,1,12,10,1,0,0
2.6,6,5,2,17,5,1,3,4
2.605,4,7,1,4,3,2,1,0
2.61,5,2,2,4,6,4,3,2
2.615,5,0,2,28,16,3,1,1
2.62,5,8,1,21,5,0,1,1
2.625,4,7,4,7,4,2,1,2
2.63,2,0,5,8,6,3,5,3
2.635,4,4,2,6,1,0,2,0
2.64,0,3,6,8,10,4,8,7
2.645,0,7,4,5,2,2,3,0
2.65,0,1,1,7,7,1,1,1
2.655,3,2,0,20,1,0,5,1
2.66,2,4,3,1,6,1,1,2
2.665,5,0,5,2,1,3,2,1
2.67,8,6,3,25,12,2,3,3
2.675,3,6,2,10,6,2,0,3
2.68,0,5,1,11,2,2,3,1
2.685,1,0,0,5,7,3,0,0
2.69,1,3,2,1,3,1,0,4
2.695,1,3,11,13,7,1,5,1
2.7,5,3,1,8,3,0,3,1
2.705,3,5,4,1,3,1,7,4
2.71,0,6,2,10,0,0,2,1
2.715,1,1,3,7,1,1,3,0
2.72,3,6,1,3,0,0,3,1
2.725,2,1,2,0,2,1,1,2
2.73,5,4,2,6,0,2,5,3
2.735,8,12,9,16,2,3,1,2
2.74,3,3,2,2,6,1,2,2
2.745,2,2,2,2,1,5,5,4
2.75,5,9,3,3,4,2,2,2
2.755,3,6,1,12,4,2,1,2
2.76,2,3,2,33,18,4,2,3
2.765,0,3,1,18,18,1,1,2
2.77,3,3,2,14,12,4,2,1
2.775,1,3,0,17,8,1,3,0
2.78,8,9,2,9,4,0,1,0
2.785,4,4,1,3,4,1,4,2
2.79,4,6,5,16,6,2,2,0
2.795,0,1,1,18,2,4,6,2
2.8,3,3,2,41,22,3,1,2
2.805,7,6,0,16,19,2,3,2
2.81,0,10,6,1,26,5,3,2
2.815,0,4,3,8,7,2,2,1
2.82,3,2,7,20,5,2,3,4
2.825,3,10,0,10,4,1,1,1
2.83,3,8,1,1,7,1,3,1
2.835,4,1,2,12,4,0,4,4
2.84,3,0,1,12,0,1,1,3
2.845,6,5,2,0,2,0,2,2
2.85,1,3,1,4,3,1,1,2
2.855,3,1,1,1,1,1,2,1
2.86,6,0,1,3,7,3,1,1
2.865,5,0,0,0,0,0,1,2
2.87,4,6,0,13,5,3,3,2
2.875,2,5,0,27,16,1,3,1
2.88,1,5,2,4,4,1,3,3
2.885,0,11,0,6,2,2,6,6
2.89,2,14,4,6,3,0,2,1
2.895,2,1,1,15,10,4,6,3
2.9,2,1,1,12,2,2,2,2
2.905,2,5,1,7,11,1,0,0
2.91,0,5,6,4,3,4,7,5
2.915,4,0,4,7,7,2,0,1
2.92,3,3,0,1,7,1,2,4
2.925,5,6,5,14,4,2,1,4
2.93,4,5,2,7,1,2,3,2
2.935,0,2,1,4,2,1,1,1
2.94,9,1,3,1,1,3,2,5
2.945,4,4,2,0,3,1,2,2
2.95,1,0,1,4,5,2,7,7
2.955,0,1,3,9,2,2,0,1
2.96,2,2,3,1,4,1,1,1
2.965,4,4,4,12,3,0,3,2
2.97,0,5,0,15,11,2,2,2
2.975,2,10,2,12,13,3,4,0
2.98,0,0,6,8,17,0,1,0
2.985,2,2,3,26,14,3,2,2
2.99,2,3,1,30,14,2,0,4
2.995,3,3,3,3,1,2,0,1
3,2,3,2,1,6,2,2,0
3.005,3,4,2,6,0,1,1,3
3.01,8,4,7,18,13,6,2,0
3.015,1,2,1,4,5,2,3,2
3.02,3,6,5,8,0,1,3,4
3.025,4,11,5,5,1,1,2,2
3.03,2,1,0,6,4,1,0,1
3.035,2,3,1,5,3,1,1,0
3.04,2,0,1,1,6,1,2,4
3.045,1,1,2,4,2,2,3,2
3.05,1,0,0,3,6,1,1,3
3.055,1,4,1,10,3,3,0,4
3.06,2,4,1,1,3,0,0,2
3.065,1,3,3,1,3,1,1,2
3.07,1,4,1,6,8,2,0,1
3.075,4,4,2,3,2,2,4,8
3.08,2,3,10,2,4,1,0,13
3.085,1,1,10,1,2,1,2,2
3.09,3,1,6,9,1,1,0,0
3.095,2,3,19,12,1,1,0,4
3.1,0,6,10,7,2,1,1,4
3.105,2,16,1,6,2,0,2,1
3.11,2,5,11,11,2,2,3,1
3.115,1,2,7,6,3,3,2,1
3.12,1,0,3,5,4,1,3,3
3.125,3,6,7,8,12,3,0,2
3.13,1,2,1,17,2,1,1,2
3.135,2,1,10,14,2,0,0,0
3.14,0,2,1,14,4,4,1,3
3.145,4,6,22,17,3,3,2,4
3.15,2,6,44,10,0,1,1,1
3.155,1,9,29,7,3,2,1,1
3.16,5,0,25,9,3,0,0,5
3.165,3,10,36,9,12,1,0,1
3.17,3,11,42,8,1,0,0,1
3.175,2,8,42,11,7,2,3,2
3.18,1,8,42,15,6,0,0,4
3.185,1,2,57,5,3,1,0,0
3.19,3,9,23,1,4,0,2,2
3.195,3,16,0,11,4,2,2,0
3.2,7,18,6,21,4,1,1,2
3.205,4,23,28,2,1,1,1,0
3.21,4,27,34,3,1,1,2,1
3.215,1,2,16,3,12,2,2,2
3.22,3,6,24,40,13,3,1,3
3.225,1,16,11,9,5,4,3,2
3.23,1,22,38,13,13,1,1,2
3.235,1,3,3,2,1,3,2,1
3.24,2,0,49,23,2,1,2,2
3.245,2,5,89,40,2,2,1,2
3.25,0,12,8,2,6,4,5,2
3.255,2,10,33,2,4,1,0,1
3.26,1,3,34,5,2,1,1,1
3.265,2,5,36,17,1,0,1,1
3.27,0,2,9,3,3,2,1,0
3.275,2,11,12,17,1,1,2,2
3.28,1,4,5,2,2,0,3,1
3.285,1,1,4,8,0,1,0,0
3.29,1,8,9,10,2,1,0,2
3.295,5,18,9,11,1,1,1,6
3.3,3,10,46,16,1,3,1,1
3.305,9,28,86,17,8,5,2,4
3.31,1,9,32,2,0,3,2,1
3.315,3,5,9,1,2,2,3,5
3.32,0,3,15,10,6,2,1,0
3.325,3,0,29,12,1,0,1,0
3.33,1,4,1,0,9,4,0,1
3.335,0,2,13,3,1,4,2,1
3.34,4,7,16,1,5,2,4,5
3.345,2,7,8,8,4,1,1,1
3.35,3,7,11,11,8,4,3,4
3.355,1,5,9,7,6,2,1,1
3.36,2,2,6,1,1,4,5,3
3.365,2,2,30,20,2,3,3,1
3.37,2,6,43,21,1,2,2,1
3.375,4,6,4,2,6,5,4,5
3.38,0,2,4,1,1,1,1,2
3.385,3,6,16,2,4,5,6,2
3.39,2,0,27,3,6,2,6,5
3.395,2,3,8,1,3,2,0,1
3.4,0,3,7,2,1,1,2,2
3.405,1,1,24,7,1,0,0,0
3.41,1,0,4,6,3,2,9,2
3.415,1,2,8,2,4,0,14,3
3.42,1,0,2,6,0,2,4,4
3.425,1,1,5,14,3,2,6,4
3.43,0,3,7,11,3,0,4,1
3.435,1,0,2,36,2,0,4,1
3.44,1,3,5,21,1,0,5,0
3.445,0,2,19,29,1,3,0,1
3.45,5,5,6,27,4,3,3,1
3.455,0,0,6,1,1,2,2,1
3.46,2,1,2,2,1,2,1,1
3.465,0,1,3,5,1,1,1,1
3.47,1,0,0,11,0,1,2,1
3.475,1,2,11,0,0,2,5,2
3.48,1,2,4,8,1,3,2,0
3.485,1,2,0,7,1,0,1,1
3.49,1,1,4,5,2,1,2,0
3.495,2,2,6,13,2,1,3,1
3.5,0,3,9,11,0,1,1,3
3.505,0,0,2,2,0,0,1,2
3.51,0,1,1,4,1,3,0,1
3.515,1,0,4,3,1,3,3,2
3.52,3,3,2,4,3,1,2,1
3.525,3,0,4,6,1,1,3,0
3.53,1,1,0,8,3,2,2,1
3.535,0,1,3,0,2,0,2,0
3.54,1,4,5,2,2,2,2,0
3.545,2,1,3,3,1,2,1,1
3.55,1,0,3,4,1,1,1,2
3.555,2,1,3,1,0,1,1,1
3.56,1,1,2,2,1,1,0,2
3.565,1,2,2,3,1,0,0,1
3.57,1,1,2,3,1,0,1,2
3.575,0,2,5,1,0,1,2,3
3.58,1,2,2,2,1,2,3,2
3.585,1,0,4,1,3,0,1,1
3.59,1,1,2,3,2,3,1,0
3.595,0,0,1,2,1,2,0,2
3.6,2,0,3,4,1,1,2,1
3.605,0,2,1,0,2,4,1,1
3.61,0,2,2,1,1,1,0,2
3.615,1,2,2,1,1,1,1,1
3.62,0,1,1,0,1,1,1,0
3.625,2,1,1,1,1,0,0,1
3.63,1,1,1,3,1,0,1,1
3.635,1,0,2,2,2,1,2,1
3.64,0,1,1,0,0,1,2,1
3.645,1,1,1,0,0,1,2,2
3.65,0,1,2,2,1,2,2,1
3.655,1,0,2,1,0,2,1,3
3.66,1,1,3,0,2,1,1,1
3.665,1,0,3,0,1,2,1,0
3.67,2,2,2,1,1,0,2,1
3.675,2,2,2,0,2,2,1,0
3.68,1,1,1,1,1,2,0,1
3.685,1,3,1,1,1,1,2,3
3.69,3,2,2,1,1,1,0,1
3.695,3,0,3,0,3,1,1,2
3.7,1,0,0,1,1,0,2,3
3.705,0,0,1,0,3,1,2,1
3.71,1,0,0,1,1,2,0,1
3.715,0,2,2,2,2,1,0,0
3.72,1,2,1,3,3,3,1,1
3.725,1,1,3,1,2,3,1,0
3.73,1,1,2,1,2,1,1,3
3.735,1,1,1,0,1,1,0,1
3.74,2,0,2,1,3,1,1,2
3.745,0,0,0,1,1,2,0,3
3.75,0,1,2,2,0,1,1,1
3.755,0,1,0,1,0,2,2,1
3.76,1,1,3,1,0,0,1,1
3.765,2,1,0,1,1,1,3,0
3.77,1,1,0,0,0,3,2,1
3.775,1,2,0,2,2,0,1,1
3.78,1,0,0,0,1,1,1,1
3.785,1,2,0,0,2,2,0,1
3.79,1,1,0,2,1,1,1,2
3.795,1,1,1,1,1,1,2,2
3.8,0,1,1,3,0,1,1,1
3.805,1,2,2,1,0,0,2,1
3.81,1,1,0,2,1,0,1,1
3.815,0,1,1,1,2,2,0,1
3.82,1,1,1,1,0,1,1,1
3.825,1,0,2,1,0,1,1,1
3.83,0,3,0,0,0,2,1,0
3.835,2,1,1,2,1,1,2,1
3.84,3,0,2,3,1,1,1,3
3.845,0,1,1,3,0,2,0,0
3.85,1,1,2,1,2,1,0,3
3.855,1,0,2,0,1,0,2,0
3.86,0,1,3,0,1,2,3,0
3.865,1,3,1,1,1,1,2,1
3.87,3,2,4,0,0,1,1,2
3.875,0,4,2,1,1,1,1,2
3.88,2,0,1,1,4,0,2,0
3.885,2,1,2,1,2,1,0,1
3.89,0,2,2,2,1,2,2,0
3.895,0,0,1,1,2,1,1,3
3.9,1,2,1,2,3,0,1,2
3.905,1,1,0,2,1,0,3,1
3.91,1,1,3,2,1,0,2,0
3.915,2,1,1,1,0,0,2,0
3.92,1,2,0,2,2,2,1,2
3.925,1,1,1,2,2,2,2,1
3.93,2,2,0,0,1,0,3,0
3.935,0,3,3,2,0,2,2,1
3.94,1,1,1,0,1,1,1,2
3.945,0,1,3,2,2,0,2,2
3.95,1,0,1,2,2,1,2,0
3.955,1,1,0,1,1,2,2,3
3.96,1,1,1,1,1,1,0,0
3.965,2,0,2,0,1,0,1,2
3.97,0,1,1,0,2,1,3,1
3.975,1,0,1,1,1,1,2,1
3.98,0,3,0,0,1,1,0,2
3.985,1,2,0,1,2,2,1,0
3.99,1,2,1,0,1,2,0,2
3.995,1,1,0,2,0,1,2,1
4,2,1,2,1,1,0,0,1
4.005,1,1,1,2,0,1,0,3
4.01,1,1,2,1,1,1,1,2
4.015,0,3,1,2,2,1,1,2
4.02,2,1,1,4,2,0,2,3
4.025,1,0,0,1,2,2,2,2
4.03,1,0,1,1,1,2,0,1
4.035,1,0,1,1,1,1,0,0
4.04,1,2,1,1,0,1,0,0
4.045,1,1,1,1,3,2,0,1
4.05,0,1,0,2,3,1,1,2
4.055,1,1,1,0,2,0,1,0
4.06,2,1,3,0,0,2,0,1
4.065,3,2,2,2,2,0,4,1
4.07,2,1,1,1,1,2,1,0
4.075,1,4,0,1,2,2,3,2
4.08,1,0,0,2,1,2,2,0
4.085,0,1,1,0,0,1,0,2
4.09,2,1,2,2,1,0,0,1
4.095,3,1,1,0,2,2,0,0
4.1,0,1,1,1,0,1,2,0
4.105,2,1,1,1,1,2,0,0
4.11,1,1,0,2,1,0,3,1
4.115,2,1,3,0,1,1,1,1
4.12,2,1,3,0,1,1,1,1
4.125,1,2,1,0,1,0,2,2
4.13,2,3,1,1,2,2,1,1
4.135,1,1,0,4,0,0,1,1
4.14,2,1,0,1,2,1,1,0
4.145,2,0,1,0,1,1,1,0
4.15,0,1,3,1,3,3,0,4
4.155,0,2,0,1,1,3,0,3
4.16,1,2,2,1,1,0,1,1
4.165,1,2,0,2,0,1,1,1
4.17,1,3,2,3,0,0,2,1
4.175,1,2,2,1,1,0,1,0
4.18,1,1,1,0,1,1,0,2
4.185,0,0,2,0,2,1,2,1
4.19,1,1,0,2,1,1,3,2
4.195,0,2,2,1,2,1,2,1
4.2,2,2,0,0,2,1,4,2
4.205,2,2,1,3,1,0,1,1
4.21,0,1,3,0,0,2,2,1
4.215,1,1,1,1,3,1,0,0
4.22,2,0,2,1,2,0,2,1
4.225,2,0,1,0,1,1,1,1
4.23,3,3,2,2,3,0,0,2
4.235,1,2,2,0,1,2,1,2
4.24,2,1,2,1,3,0,1,2
4.245,0,0,0,2,1,1,2,1
4.25,0,2,2,0,0,2,1,1
4.255,2,1,1,2,0,0,1,1
4.26,1,0,0,1,2,1,1,0
4.265,1,1,2,1,0,1,1,1
4.27,1,0,0,1,0,3,0,1
4.275,1,2,2,1,0,2,2,0
4.28,1,2,2,1,0,2,2,2
4.285,0,0,1,2,3,2,1,2
4.29,2,1,0,1,0,1,1,0
4.295,2,1,1,1,1,0,1,0
4.3,2,2,3,2,1,1,1,1
4.305,1,1,0,1,1,2,1,0
4.31,2,1,0,1,1,3,1,0
4.315,1,1,0,0,1,1,1,2
4.32,3,2,3,1,1,1,1,2
4.325,1,1,1,1,0,2,0,2
4.33,1,1,0,3,1,0,0,1
4.335,1,1,2,2,2,1,1,1
4.34,1,0,0,0,1,2,1,0
4.345,0,2,3,0,0,1,2,1
4.35,1,1,2,1,0,1,0,1
4.355,2,2,1,1,1,1,2,1
4.36,0,2,1,2,0,1,0,1
4.365,0,0,0,1,2,0,1,1
4.37,2,1,0,1,2,2,1,0
4.375,2,0,0,1,1,2,1,1
4.38,0,3,0,0,1,1,1,3
4.385,1,1,0,1,1,2,2,1
4.39,1,0,3,5,3,2,2,1
4.395,0,0,2,2,1,2,1,1
4.4,0,1,2,1,0,1,2,1
4.405,1,1,2,0,1,1,1,1
4.41,1,1,2,1,1,2,2,1
4.415,3,1,0,2,1,1,2,0
4.42,1,1,1,2,1,1,0,2
4.425,2,1,1,2,1,1,2,1
4.43,2,3,3,3,3,1,1,1
4.435,2,3,2,2,1,1,2,0
4.44,0,2,1,1,3,2,2,0
4.445,2,2,1,1,0,1,1,1
4.45,1,1,0,0,1,1,1,0
4.455,1,1,2,2,0,0,2,1
4.46,1,0,1,1,1,2,1,1
4.465,1,2,2,1,0,2,0,0
4.47,0,1,1,1,2,1,2,0
4.475,2,3,0,1,2,2,1,2
4.48,1,1,1,1,2,1,3,2
4.485,1,1,0,1,0,1,1,3
4.49,1,1,3,1,1,2,0,1
4.495,0,1,2,0,0,1,0,2
4.5,0,0,0,1,1,0,1,1
4.505,1,1,2,2,1,1,2,0
4.51,2,1,3,1,1,1,1,0
4.515,2,2,0,0,0,2,2,0
4.52,2,0,1,1,0,2,1,0
4.525,1,1,2,1,1,1,2,1
4.53,2,1,1,1,0,1,0,3
4.535,2,2,1,1,1,0,1,2
4.54,2,0,1,1,1,0,2,1
4.545,2,1,0,2,1,1,0,0
4.55,2,0,2,1,1,0,3,3
4.555,0,2,2,1,0,0,1,0
4.56,1,0,1,0,1,2,1,2
4.565,0,0,1,2,1,0,1,1
4.57,1,2,1,1,1,2,0,1
4.575,0,0,1,2,0,1,1,2
4.58,1,3,2,1,2,1,1,1
4.585,1,2,1,2,1,0,0,2
4.59,1,1,0,2,2,2,0,0
4.595,1,2,3,3,2,2,1,0
4.6,1,2,0,1,2,1,2,1
4.605,1,0,2,1,2,2,3,2
4.61,0,2,1,2,0,1,2,2
4.615,2,0,1,0,2,2,0,2
4.62,1,1,1,1,0,1,1,1
4.625,1,1,2,1,1,1,0,0
4.63,2,1,1,0,0,1,2,1
4.635,1,0,1,1,1,1,1,1
4.64,3,0,3,0,1,0,1,1
4.645,0,1,0,1,2,1,1,0
4.65,0,1,0,1,1,1,0,2
4.655,0,0,1,2,0,2,1,2
4.66,0,1,1,0,1,3,0,1
4.665,1,2,1,1,0,1,1,1
4.67,3,1,3,2,0,2,1,1
4.675,1,1,2,1,1,0,3,1
4.68,0,2,0,2,1,1,0,2
4.685,2,1,1,1,3,1,1,1
4.69,0,0,2,1,0,1,2,0
4.695,2,1,1,2,1,1,0,0
4.7,0,2,2,2,1,3,1,1
4.705,2,2,1,1,1,0,2,2
4.71,1,1,0,2,0,1,1,1
4.715,1,1,0,0,1,2,1,1
4.72,2,1,1,1,1,0,1,1
4.725,3,1,0,2,1,2,2,1
4.73,1,2,1,1,1,2,0,1
4.735,1,1,0,2,1,1,0,1
4.74,2,1,1,2,1,0,2,0
4.745,1,1,1,1,0,1,2,0
4.75,2,0,2,0,2,1,2,1
4.755,1,3,3,0,2,1,1,0
4.76,1,0,2,2,1,1,0,1
4.765,2,1,1,0,2,0,1,1
4.77,2,0,2,2,2,0,2,0
4.775,2,1,0,1,2,1,3,2
4.78,0,1,1,0,2,0,2,2
4.785,1,0,2,1,0,2,2,0
4.79,0,2,0,0,1,2,1,1
4.795,0,2,2,1,1,0,1,0
4.8,1,1,2,2,3,3,0,0
4.805,1,1,0,3,3,2,2,1
4.81,1,2,2,2,0,3,3,1
4.815,2,1,2,2,0,0,0,2
4.82,1,0,3,3,1,2,1,3
4.825,1,1,1,1,1,0,0,2
4.83,1,0,1,0,2,1,0,3
4.835,2,0,0,1,2,0,1,2
4.84,0,1,2,1,2,2,0,0
4.845,2,1,1,1,1,2,2,1
4.85,0,2,1,2,2,0,0,1
4.855,2,1,1,0,1,1,0,1
4.86,2,1,0,2,3,2,0,0
4.865,0,1,2,0,2,1,1,2
4.87,0,2,3,2,1,1,0,0
4.875,1,3,3,1,2,1,0,2
4.88,3,2,1,0,1,1,0,2
4.885,1,2,3,0,1,1,0,1
4.89,2,1,1,1,0,0,2,0
4.895,1,0,1,3,1,0,2,2
4.9,2,1,0,1,1,0,1,1
4.905,0,2,2,1,3,1,0,1
4.91,0,1,2,1,2,0,1,0
4.915,1,1,3,1,1,3,1,2
4.92,1,2,0,0,1,1,2,0
4.925,3,1,1,1,2,1,2,1
4.93,3,0,0,2,4,1,0,2
4.935,0,2,1,1,3,1,1,2
4.94,2,1,1,1,1,1,0,1
4.945,1,1,1,1,1,1,1,2
4.95,1,1,0,1,1,2,2,1
4.955,0,1,1,4,0,1,1,1
4.96,2,0,1,1,1,1,1,2
4.965,0,1,2,2,2,0,2,1
4.97,1,3,1,1,1,2,0,0
4.975,1,2,0,1,1,1,1,0
4.98,0,1,1,2,1,0,2,0
4.985,1,1,0,2,0,1,0,1
4.99,0,1,15,26,1,2,3,4
4.995,4,2,23,36,1,3,4,0
5,2,3,19,42,2,1,1,1
5.005,0,8,14,3,2,2,0,2
5.01,3,2,25,50,1,3,2,1
5.015,2,0,13,17,2,1,1,2
5.02,7,2,4,14,1,1,1,6
5.025,18,6,18,47,0,0,3,8
5.03,9,0,17,2,2,0,8,8
5.035,7,15,9,41,5,7,12,30
5.04,31,6,62,1,2,2,0,3
5.045,33,11,13,2,3,5,2,3
5.05,18,0,55,41,10,5,1,13
5.055,0,27,92,40,6,3,3,21
5.06,47,55,128,96,23,12,7,5
5.065,47,34,127,127,14,6,5,9
5.07,25,7,31,16,3,2,9,12
5.075,7,4,20,2,7,6,1,19
5.08,48,29,25,70,10,4,3,9
5.085,19,20,75,50,4,5,9,16
5.09,19,1,40,34,2,2,0,6
5.095,39,31,76,15,4,3,0,2
5.1,1,25,77,62,5,4,3,13
5.105,33,13,5,37,2,5,4,4
5.11,41,56,9,28,3,3,4,15
5.115,55,64,119,117,22,13,8,27
5.12,45,57,23,98,9,5,1,43
5.125,75,3,37,49,13,12,2,23
5.13,36,25,15,38,17,11,5,0
5.135,40,5,58,30,3,3,11,91
5.14,83,89,1,18,14,22,36,62
5.145,42,39,92,31,7,13,24,9
5.15,86,31,31,70,1,4,17,22
5.155,76,4,8,14,2,5,21,13
5.16,8,9,85,17,6,0,2,9
5.165,59,2,27,11,2,1,12,18
5.17,116,38,31,26,3,1,2,23
5.175,67,21,19,10,1,2,2,24
5.18,89,39,52,15,3,1,10,43
5.185,61,56,67,26,4,1,2,3
5.19,22,13,33,7,5,1,10,13
5.195,0,29,13,3,3,1,2,23
5.2,18,11,13,4,3,1,6,1
5.205,9,11,3,3,1,2,11,7
5.21,7,16,6,9,1,0,22,38
5.215,16,28,28,8,0,3,25,7
5.22,30,10,62,3,7,6,20,14
5.225,17,9,21,11,1,7,27,13
5.23,17,16,13,1,1,3,20,2
5.235,13,23,11,15,1,0,6,27
5.24,74,41,92,21,3,0,14,18
5.245,17,23,66,9,3,3,2,25
5.25,22,1,14,4,2,1,20,31
5.255,45,3,7,3,1,3,5,1
5.26,10,2,4,9,1,5,14,23
5.265,10,12,2,2,2,4,30,23
5.27,3,9,10,11,2,7,22,31
5.275,0,9,4,9,4,18,46,47
5.28,93,4,11,6,1,11,30,10
5.285,19,13,37,1,8,3,9,1
5.29,34,1,37,3,5,1,1,9
5.295,69,1,2,2,0,4,14,17
5.3,36,5,22,5,3,4,9,4
5.305,4,27,60,7,1,1,4,5
5.31,31,12,36,5,0,2,1,10
5.315,9,18,1,10,7,7,12,7
5.32,1,21,17,1,2,2,14,4
5.325,2,2,3,2,1,5,1,15
5.33,26,6,8,5,3,7,7,6
5.335,41,4,16,2,1,2,3,1
5.34,24,19,78,7,0,2,6,2
5.345,22,24,61,10,5,8,10,3
5.35,38,1,21,3,0,4,14,2
5.355,12,7,15,3,1,3,9,3
5.36,8,9,7,1,1,1,3,20
5.365,31,2,13,5,2,1,4,4
5.37,4,2,5,3,3,5,5,8
5.375,6,35,21,5,5,5,3,1
5.38,70,1,15,1,0,0,1,1
5.385,14,25,15,2,2,1,2,12
5.39,9,11,13,4,1,4,10,9
5.395,66,21,6,2,1,0,10,13
5.4,65,18,9,6,2,3,3,0
5.405,33,6,25,1,0,2,1,8
5.41,4,6,40,2,6,3,6,4
5.415,12,2,31,9,2,2,10,8
5.42,6,0,16,7,0,3,8,0
5.425,46,18,3,21,4,4,1,0
5.43,11,10,0,17,3,1,4,6
5.435,5,4,0,8,1,4,5,6
5.44,9,3,15,14,3,1,1,0
5.445,26,1,52,15,3,2,1,2
5.45,38,10,61,1,1,2,0,7
5.455,23,9,8,12,1,1,2,0
5.46,21,1,4,7,1,1,5,14
5.465,26,0,5,3,5,4,3,0
5.47,29,5,0,5,4,4,17,7
5.475,23,6,0,10,1,1,6,12
5.48,39,2,8,7,0,1,4,16
5.485,15,12,7,3,0,3,4,24
5.49,9,6,4,6,3,1,6,8
5.495,16,4,1,9,1,4,2,0
5.5,5,8,2,5,2,1,2,2
5.505,2,5,13,7,0,1,0,1
5.51,12,11,7,25,2,0,13,3
5.515,44,6,2,7,1,0,21,17
5.52,28,3,15,26,1,1,4,6
5.525,33,2,17,3,3,0,3,5
5.53,0,6,3,6,5,6,9,1
5.535,24,1,17,1,2,5,3,4
5.54,11,3,32,12,4,2,2,3
5.545,1,4,4,2,1,7,3,10
5.55,10,5,9,8,2,1,6,15
5.555,33,4,10,20,1,1,11,6
5.56,31,4,7,4,2,2,11,8
5.565,25,0,7,3,4,2,1,2
5.57,32,12,1,4,1,5,11,13
5.575,42,4,1,5,2,2,10,16
5.58,8,2,1,9,2,1,2,5
5.585,18,2,5,4,6,1,21,21
5.59,12,7,12,2,2,1,8,3
5.595,6,5,4,11,0,1,7,10
5.6,1,6,8,2,3,0,11,10
5.605,34,1,28,21,0,2,5,8
5.61,12,1,7,7,9,4,4,11
5.615,5,1,2,6,1,1,3,3
5.62,29,5,7,5,3,2,8,4
5.625,3,4,11,2,0,4,12,8
5.63,30,2,9,3,2,1,2,1
5.635,52,3,4,6,0,3,11,11
5.64,2,5,2,5,4,4,9,7
5.645,4,1,13,8,2,2,8,1
5.65,62,7,27,26,1,2,14,7
5.655,20,2,55,27,4,1,2,10
5.66,31,2,24,4,2,0,4,0
5.665,12,1,32,16,4,4,6,2
5.67,33,8,11,33,1,1,11,4
5.675,8,1,25,10,1,4,7,1
5.68,2,9,60,22,0,1,3,5
5.685,4,1,8,6,3,2,7,8
5.69,49,3,7,5,0,2,1,7
5.695,19,4,7,3,3,1,4,1
5.7,12,2,31,14,0,0,2,1
5.705,2,2,18,2,2,1,3,4
5.71,19,2,14,17,4,5,1,4
5.715,7,3,26,11,3,6,2,5
5.72,9,14,6,21,4,4,4,4
5.725,6,3,1,16,1,1,3,9
5.73,0,4,3,20,4,3,2,0
5.735,5,8,5,8,3,1,7,4
5.74,7,2,1,0,2,3,0,1
5.745,10,2,10,4,1,3,4,0
5.75,6,2,4,6,2,1,1,6
5.755,9,5,4,2,3,2,3,2
5.76,13,5,6,4,4,3,1,2
5.765,18,1,14,1,1,1,7,5
5.77,9,7,2,1,2,2,7,9
5.775,3,1,14,4,2,3,6,11
5.78,28,5,6,1,2,1,9,2
5.785,4,2,8,5,0,3,14,10
5.79,8,0,6,2,1,2,5,9
5.795,2,4,6,1,0,0,16,1
5.8,3,0,1,3,1,1,19,8
5.805,9,1,11,4,2,2,23,2
5.81,11,5,12,6,4,4,12,4
5.815,2,1,2,0,0,4,4,0
5.82,7,1,3,5,2,0,2,6
5.825,9,1,6,7,4,2,9,6
5.83,3,3,5,11,6,0,9,2
5.835,1,10,12,9,5,2,1,1
5.84,16,3,1,2,2,0,3,5
5.845,7,1,6,6,1,2,5,6
5.85,3,0,2,3,3,1,0,0
5.855,1,4,2,0,2,0,2,0
5.86,0,1,0,0,1,0,1,2
5.865,8,3,3,2,1,3,0,3
5.87,2,1,1,1,0,2,1,4
5.875,0,2,5,2,3,2,4,3
5.88,7,0,1,2,0,1,1,0
5.885,7,6,1,1,4,3,5,4
5.89,5,2,2,0,1,1,5,4
5.895,3,2,1,3,0,0,3,3
5.9,1,1,0,2,1,1,4,2
5.905,7,2,3,5,4,1,6,7
5.91,3,1,1,1,1,1,1,1
5.915,2,0,1,2,1,2,2,5
5.92,3,2,1,1,2,2,1,2
5.925,10,3,2,0,2,2,0,1
5.93,1,0,0,2,3,0,4,11
5.935,6,0,3,1,1,2,4,1
5.94,9,2,3,1,1,2,2,4
5.945,4,1,0,2,1,3,10,4
5.95,8,4,1,2,1,1,13,6
5.955,17,0,1,1,1,2,3,3
5.96,32,2,2,1,1,3,3,11
5.965,4,0,1,1,3,2,0,6
5.97,6,2,2,1,0,1,2,2
5.975,4,0,2,1,1,2,0,4
5.98,5,2,0,0,0,2,1,4
5.985,3,1,1,1,1,0,3,6
5.99,9,1,2,4,0,3,4,7
5.995,2,1,1,2,2,2,2,2
6,1,0,1,0,0,0,3,2
6.005,7,1,0,1,0,0,5,0
6.01,26,3,3,1,1,1,0,2
6.015,10,4,3,2,3,0,2,5
6.02,11,1,1,1,2,0,0,3
6.025,6,1,2,2,1,5,1,0
6.03,17,2,0,1,1,4,1,2
6.035,36,4,3,2,2,4,11,12
6.04,0,2,0,1,2,2,2,8
6.045,2,2,1,1,2,2,2,26
6.05,17,4,0,1,1,3,3,3
6.055,4,3,2,2,1,3,1,2
6.06,5,0,0,1,1,1,6,3
6.065,2,1,1,0,2,2,2,2
6.07,16,1,2,0,1,2,2,1
6.075,0,2,0,3,2,0,1,4
6.08,3,3,2,4,1,3,3,2
6.085,12,1,0,1,0,1,3,10
6.09,1,3,2,0,2,2,2,6
6.095,2,1,0,1,0,1,2,2
6.1,3,3,1,2,2,2,0,2
6.105,3,1,1,3,0,1,3,1
6.11,5,1,1,1,1,2,3,1
6.115,0,2,0,1,1,0,0,1
6.12,8,0,3,3,2,0,2,2
6.125,17,0,0,0,1,0,2,5
6.13,9,0,1,0,2,1,1,6
6.135,8,2,0,1,1,1,3,6
6.14,10,2,1,0,2,3,1,11
6.145,10,1,2,2,1,2,4,17
6.15,12,3,3,2,0,0,3,1
6.155,3,2,0,0,2,0,0,2
6.16,6,1,2,1,2,1,1,2
6.165,5,3,2,1,0,2,0,2
6.17,5,1,1,2,0,1,1,5
6.175,1,0,1,0,1,1,1,4
6.18,4,2,0,0,0,3,2,4
6.185,9,0,0,1,2,0,6,4
6.19,0,2,1,1,1,1,0,6
6.195,0,1,2,3,0,0,3,0
6.2,5,0,2,0,1,1,0,1
6.205,5,3,3,1,1,0,2,5
6.21,5,0,0,2,2,2,1,4
6.215,5,1,2,1,1,3,0,1
6.22,1,2,1,1,3,1,0,2
6.225,5,3,0,3,0,1,0,1
6.23,4,0,2,1,0,1,1,4
6.235,1,0,1,0,2,2,0,2
6.24,5,1,3,0,2,0,1,0
6.245,3,2,2,1,1,1,0,2
6.25,1,1,1,0,3,2,0,0
6.255,8,3,2,2,4,0,2,10
6.26,11,2,0,0,1,1,1,13
6.265,0,0,1,2,0,0,1,1
6.27,3,3,1,4,2,0,3,2
6.275,1,1,1,0,0,1,0,5
6.28,6,3,0,1,0,1,1,5
6.285,3,2,1,1,1,0,0,0
6.29,3,1,2,1,2,3,0,0
6.295,1,2,3,0,2,2,1,2
6.3,1,3,2,1,1,2,3,3
6.305,0,1,0,2,2,0,0,2
6.31,4,3,0,1,1,2,1,4
6.315,3,0,1,0,2,1,2,4
6.32,1,1,1,1,0,0,1,2
6.325,1,2,2,1,2,2,2,4
6.33,2,2,2,1,0,1,2,1
6.335,2,0,0,1,1,2,0,1
6.34,2,3,1,2,1,1,1,3
6.345,0,0,1,0,0,0,2,3
6.35,3,2,3,3,2,2,3,16
6.355,1,2,0,3,2,2,1,3
6.36,2,1,2,2,0,0,2,1
6.365,8,2,1,1,0,0,0,6
6.37,2,0,0,1,1,1,1,0
6.375,3,3,2,0,2,1,1,0
6.38,2,0,2,2,1,0,0,4
6.385,2,1,2,2,3,1,0,1
6.39,0,2,0,1,0,0,0,1
6.395,2,2,0,1,2,3,2,5
6.4,0,2,3,2,1,2,1,2
6.405,3,0,1,0,0,1,1,1
6.41,2,0,1,2,1,2,0,1
6.415,0,1,1,0,1,1,0,1
6.42,2,2,1,1,3,0,1,3
6.425,3,0,3,1,0,3,1,2
6.43,3,2,3,0,0,2,2,1
6.435,0,1,1,1,1,2,1,1
6.44,0,2,1,2,1,1,1,0
6.445,3,1,0,2,4,2,3,6
6.45,2,1,1,0,0,0,1,1
6.455,7,1,3,1,1,2,1,2
6.46,1,2,2,0,1,0,2,2
6.465,0,2,2,2,1,2,1,1
6.47,1,2,2,1,0,1,0,0
6.475,0,2,0,1,0,1,3,4
6.48,5,1,1,2,2,1,1,2
6.485,1,0,2,2,1,2,1,5
6.49,1,0,2,0,0,2,2,5
6.495,1,3,2,2,3,1,2,1
6.5,4,0,1,2,1,2,1,3
6.505,0,2,2,1,2,2,1,1
6.51,3,2,0,2,1,0,1,1
6.515,0,1,2,1,1,0,2,1
6.52,1,2,0,0,0,2,3,0
6.525,2,2,1,1,0,0,1,1
6.53,0,2,4,2,0,3,2,3
6.535,0,3,4,1,1,2,1,1
6.54,1,2,17,1,2,1,0,1
6.545,4,2,3,2,2,3,2,2
6.55,2,0,1,1,3,0,4,3
6.555,0,3,4,1,1,1,3,5
6.56,2,4,2,1,0,1,1,2
6.565,1,1,1,1,1,0,0,2
6.57,0,2,3,2,1,2,0,4
6.575,4,1,1,1,1,2,1,3
6.58,1,2,4,0,1,2,1,2
6.585,4,2,3,2,2,1,2,3
6.59,1,1,1,0,1,1,0,2
6.595,6,2,3,1,2,1,1,3
6.6,4,1,1,1,2,0,0,1
6.605,1,4,2,1,1,0,3,1
6.61,1,3,4,1,3,0,2,1
6.615,0,1,2,3,1,1,1,1
6.62,4,4,1,2,1,0,3,5
6.625,2,2,1,1,1,1,0,4
6.63,0,1,0,0,1,0,1,1
6.635,4,4,1,2,1,2,3,6
6.64,2,2,1,0,1,1,2,2
6.645,2,1,2,1,1,0,0,2
6.65,2,3,0,2,0,2,1,3
6.655,1,2,2,3,2,1,0,4
6.66,1,0,0,3,1,2,1,6
6.665,1,1,5,1,0,0,1,0
6.67,1,4,0,3,2,1,3,0
6.675,2,1,2,1,2,2,0,9
6.68,1,1,0,0,2,2,3,5
6.685,3,3,3,1,3,2,0,2
6.69,5,1,0,2,0,1,1,4
6.695,1,2,2,1,0,0,1,1
6.7,2,1,0,0,2,1,1,0
6.705,2,1,1,2,1,1,2,2
6.71,1,0,2,1,0,0,1,1
6.715,2,1,2,1,4,1,1,3
6.72,1,1,2,2,1,2,0,5
6.725,2,2,0,1,3,1,1,6
6.73,1,1,1,1,2,2,0,1
6.735,0,1,0,0,2,2,2,1
6.74,2,2,1,1,1,0,1,0
6.745,2,1,1,1,1,1,1,0
6.75,1,2,2,2,1,1,0,0
6.755,1,3,1,0,2,1,2,2
6.76,6,1,1,3,1,0,2,2
6.765,3,1,1,3,2,3,4,4
6.77,2,1,2,3,1,1,0,1
6.775,0,0,3,1,1,2,1,4
6.78,1,2,1,0,0,0,0,2
6.785,2,0,3,1,0,0,0,2
6.79,6,1,2,3,3,1,0,4
6.795,3,2,2,2,2,1,0,2
6.8,1,1,0,1,0,1,0,1
6.805,1,1,0,2,0,0,0,3
6.81,0,3,0,1,2,0,2,1
6.815,3,1,0,0,2,1,1,4
6.82,1,1,1,1,2,3,2,2
6.825,0,1,2,2,1,3,2,5
6.83,3,2,0,1,1,2,3,8
6.835,0,1,1,1,1,1,1,3
6.84,0,2,1,2,2,1,0,1
6.845,2,1,0,0,0,1,1,3
6.85,2,1,1,2,2,3,1,1
6.855,1,1,2,1,3,3,1,2
6.86,3,1,0,2,0,2,1,7
6.865,0,1,0,2,1,2,0,7
6.87,0,2,1,2,0,1,2,0
6.875,1,2,0,0,1,2,2,1
6.88,0,0,0,0,2,2,0,1
6.885,1,1,2,1,2,1,2,3
6.89,1,0,1,1,0,2,0,1
6.895,0,2,0,1,0,1,0,0
6.9,3,0,1,0,3,3,1,1
6.905,4,2,2,2,1,0,2,5
6.91,8,1,1,0,1,1,2,2
6.915,1,3,2,3,0,0,1,1
6.92,0,1,2,1,0,2,1,1
6.925,2,0,0,0,0,1,1,2
6.93,5,1,2,2,0,0,1,2
6.935,3,2,1,0,2,2,1,1
6.94,1,2,1,2,0,1,1,0
6.945,3,2,2,2,1,1,0,1
6.95,2,0,2,2,1,0,1,1
6.955,5,2,2,0,1,1,2,7
6.96,1,1,3,0,2,0,0,6
6.965,3,1,1,1,1,2,2,6
6.97,1,0,1,2,1,2,1,1
6.975,1,0,1,1,1,2,0,1
6.98,3,2,1,1,1,1,1,3
6.985,1,1,1,1,1,0,0,0
6.99,1,3,1,0,2,0,2,0
6.995,1,1,1,2,1,0,1,1
7,1,2,3,1,1,1,3,3
7.005,7,2,1,3,1,2,1,1
7.01,2,1,3,2,0,2,1,2
7.015,0,1,1,3,3,3,1,3
7.02,2,0,2,1,2,0,1,7
7.025,0,2,2,1,3,1,1,2
7.03,5,1,2,0,1,1,0,2
7.035,0,2,0,0,2,2,1,0
7.04,1,1,1,1,1,3,2,1
7.045,0,1,2,1,1,0,1,2
7.05,1,2,2,3,0,1,1,2
7.055,0,1,1,0,1,1,4,3
7.06,0,2,1,1,3,1,0,2
7.065,0,1,1,0,1,3,0,4
7.07,2,0,1,2,2,3,0,0
7.075,1,1,1,1,1,2,1,4
7.08,1,0,3,1,1,0,1,2
7.085,0,1,1,0,2,1,2,2
7.09,0,1,1,0,0,1,0,3
7.095,0,0,0,1,2,2,2,4
7.1,4,1,1,1,2,1,2,2
7.105,7,1,0,2,1,1,1,5
7.11,5,2,2,3,1,1,2,8
7.115,1,2,1,3,1,1,1,1
7.12,2,3,0,1,0,2,0,0
7.125,4,1,1,1,1,0,2,2
7.13,2,2,1,0,2,2,1,3
7.135,2,1,2,1,1,1,0,1
7.14,0,2,1,3,1,2,3,1
7.145,1,1,1,1,1,1,0,1
7.15,1,0,0,1,2,0,0,1
7.155,2,0,1,0,1,1,0,0
7.16,1,1,1,2,1,2,3,0
7.165,0,0,1,0,0,2,3,1
7.17,1,1,0,1,2,1,1,1
7.175,2,1,0,1,1,0,1,3
7.18,1,0,1,1,0,1,1,3
7.185,4,1,2,2,2,0,0,5
7.19,1,1,1,1,1,1,2,3
7.195,4,0,2,0,1,1,1,3
7.2,0,4,0,1,1,2,0,1
7.205,4,0,0,1,1,1,1,3
7.21,1,2,2,0,1,2,4,1
7.215,1,2,3,0,0,0,2,2
7.22,3,2,1,3,2,2,2,3
7.225,4,1,1,3,1,1,1,1
7.23,1,2,1,3,2,2,1,2
7.235,4,0,2,0,0,1,1,2
7.24,2,3,0,0,2,0,1,2
7.245,1,2,2,1,1,2,1,1
7.25,2,1,1,1,0,2,0,4
7.255,2,1,4,0,2,0,1,0
7.26,1,1,1,2,1,2,1,0
7.265,0,0,1,2,0,0,1,1
7.27,2,0,1,2,1,0,1,1
7.275,1,1,2,2,1,3,2,1
7.28,2,1,0,2,0,2,2,1
7.285,1,0,4,2,2,2,4,2
7.29,1,1,0,1,1,1,2,1
7.295,0,1,0,1,3,0,1,1
7.3,0,1,0,1,2,0,1,4
7.305,2,3,1,2,0,2,1,2
7.31,3,1,1,1,2,2,3,9
7.315,1,0,2,1,1,0,4,2
7.32,1,0,3,2,2,0,2,3
7.325,3,1,0,1,3,1,1,1
7.33,0,0,3,3,2,0,1,0
7.335,3,3,1,1,0,2,3,1
7.34,1,2,1,2,1,2,0,2
7.345,1,2,1,0,0,1,0,1
7.35,2,2,2,2,1,0,1,2
7.355,1,1,1,0,1,0,2,1
7.36,0,1,1,2,1,1,1,2
7.365,0,0,3,2,2,2,3,4
7.37,0,1,3,0,0,1,1,1
7.375,1,3,1,2,1,2,0,0
7.38,1,2,0,0,0,1,1,3
7.385,2,2,0,1,0,0,1,1
7.39,1,1,0,2,1,1,3,3
7.395,2,1,1,3,1,2,3,5
7.4,0,2,1,0,1,0,2,2
7.405,2,2,2,2,1,2,1,3
7.41,0,1,0,1,2,0,2,2
7.415,1,2,1,1,1,1,3,3
7.42,3,1,0,3,1,0,0,5
7.425,2,1,1,1,2,1,2,1
7.43,2,1,2,1,2,2,0,5
7.435,2,1,0,2,1,0,1,4
7.44,3,2,3,1,3,3,1,2
7.445,1,1,1,1,3,0,1,3
7.45,5,1,1,1,1,0,2,2
7.455,1,1,0,2,1,2,1,4
7.46,0,2,1,0,1,2,1,2
7.465,1,2,0,1,1,2,4,2
7.47,3,0,0,1,2,3,1,0
7.475,1,0,3,1,1,2,0,3
7.48,3,0,2,2,0,2,1,3
7.485,5,1,1,2,0,1,3,0
7.49,4,1,3,1,1,1,2,1
7.495,2,3,1,0,1,1,1,1
7.5,1,0,1,1,0,1,0,1
7.505,0,1,0,0,1,1,1,0
7.51,2,1,1,1,1,1,1,1
7.515,4,1,2,0,3,0,3,2
7.52,1,1,2,1,3,1,0,1
7.525,1,1,2,2,0,0,1,1
7.53,6,2,0,1,0,3,1,1
7.535,2,2,3,2,3,0,3,2
7.54,2,1,1,0,1,0,2,7
7.545,2,0,4,0,1,0,0,0
7.55,2,1,1,1,2,2,0,1
7.555,1,1,1,1,1,3,2,4
7.56,3,0,2,3,3,1,1,3
7.565,2,1,0,2,1,2,2,2
7.57,0,0,1,1,2,1,2,2
7.575,4,0,3,0,0,1,1,1
7.58,3,1,1,1,2,2,3,0
7.585,3,2,1,1,1,1,1,0
7.59,1,2,2,2,3,1,0,5
7.595,0,2,1,0,2,0,0,2
7.6,3,2,1,2,0,1,1,2
7.605,1,1,3,0,1,0,2,2
7.61,1,1,1,1,0,2,1,4
7.615,3,1,3,2,0,0,2,1
7.62,3,1,0,1,1,1,3,4
7.625,1,2,1,0,2,2,1,2
7.63,1,1,2,2,1,1,0,0
7.635,3,2,0,0,0,1,1,1
7.64,3,3,3,3,1,1,0,1
7.645,1,1,1,2,1,2,2,2
7.65,1,1,2,1,1,0,2,2
7.655,1,1,1,2,0,2,2,4
7.66,2,2,1,0,3,1,0,4
7.665,1,2,2,1,0,0,1,3
7.67,3,3,0,1,2,1,0,1
7.675,2,0,0,1,1,2,0,1
7.68,6,1,4,0,3,2,1,4
7.685,4,0,1,2,3,3,1,1
7.69,1,1,1,2,1,1,3,1
7.695,3,1,0,1,0,1,3,3
7.7,1,1,2,3,1,1,3,2
7.705,3,1,2,2,1,1,0,4
7.71,5,2,3,1,1,0,3,9
7.715,1,0,1,1,2,2,2,3
7.72,2,1,2,0,0,1,3,0
7.725,3,1,0,1,1,1,4,2
7.73,1,0,1,2,2,1,1,0
7.735,3,1,1,3,1,2,3,3
7.74,2,1,1,1,0,0,2,5
7.745,0,4,2,2,3,1,0,7
7.75,3,0,0,2,2,1,0,1
7.755,3,1,2,1,2,1,1,3
7.76,2,2,0,3,1,1,0,1
7.765,1,1,1,0,1,0,0,4
7.77,2,0,1,1,1,2,2,1
7.775,2,4,0,0,0,1,2,2
7.78,5,1,0,1,0,1,6,7
7.785,3,3,1,2,2,1,0,3
7.79,4,2,3,3,0,1,2,1
7.795,0,1,1,1,0,1,1,2
7.8,1,1,2,3,2,2,1,0
7.805,7,1,2,3,1,2,3,8
7.81,2,0,2,1,0,2,2,8
7.815,0,1,3,1,1,3,2,2
7.82,9,2,1,2,1,2,2,3
7.825,8,2,0,1,1,2,1,1
7.83,2,2,1,0,2,0,1,4
7.835,2,1,3,4,1,1,1,2
7.84,3,1,1,0,1,1,0,2
7.845,5,2,2,1,1,3,1,3
7.85,3,3,1,2,1,2,2,4
7.855,3,1,1,0,3,0,2,0
7.86,1,2,2,1,1,0,2,2
7.865,2,1,2,1,2,0,1,0
7.87,1,2,2,2,1,3,2,2
7.875,0,1,0,2,3,1,0,3
7.88,1,0,1,2,2,1,1,1
7.885,2,0,1,2,0,0,1,5
7.89,1,0,1,0,1,1,0,1
7.895,2,1,2,0,0,0,1,3
7.9,2,1,2,1,0,2,0,1
7.905,2,1,1,1,1,1,1,1
7.91,2,3,1,2,1,0,1,1
7.915,1,0,1,3,1,0,1,1
7.92,2,2,1,1,1,0,2,1
7.925,7,0,2,1,1,1,1,5
7.93,0,1,3,0,1,2,0,3
7.935,4,2,1,0,1,2,3,2
7.94,2,3,2,1,2,2,4,1
7.945,3,1,1,1,1,0,0,0
7.95,3,1,2,2,3,1,0,4
7.955,1,2,2,0,1,1,1,0
7.96,2,1,0,1,0,1,1,2
7.965,2,2,1,3,1,2,1,1
7.97,1,2,1,1,1,2,2,3
7.975,1,3,1,3,0,2,1,1
7.98,1,0,2,1,2,2,2,3
7.985,3,0,0,0,1,1,1,6
7.99,2,0,0,2,1,0,2,0
7.995,5,0,1,1,1,1,2,6
8,0,2,3,2,0,2,3,7
8.005,4,1,2,1,1,0,0,3
8.01,1,0,0,2,1,1,3,4
8.015,7,0,0,1,1,1,1,4
8.02,4,1,2,1,1,2,2,1
8.025,1,2,2,1,0,1,2,2
8.03,2,1,2,4,2,1,2,5
8.035,2,1,1,1,1,0,3,1
8.04,3,1,1,0,2,0,1,4
8.045,3,2,2,2,2,2,1,2
8.05,1,2,1,2,4,1,1,2
8.055,2,0,3,2,1,0,1,2
8.06,3,0,1,2,2,3,1,3
8.065,2,1,1,0,1,1,0,1
8.07,2,1,2,1,1,1,0,4
8.075,0,1,2,2,1,1,2,2
8.08,1,1,0,0,0,1,1,0
8.085,9,1,0,1,1,1,3,4
8.09,3,2,1,0,2,1,1,2
8.095,0,1,1,1,1,1,1,5
8.1,2,1,1,1,1,2,2,1
8.105,4,1,2,2,1,1,1,0
8.11,2,1,2,0,0,3,2,0
8.115,0,2,3,1,1,1,1,4
8.12,3,3,2,0,1,1,1,3
8.125,0,1,2,1,1,1,0,1
8.13,4,2,2,0,1,1,1,3
8.135,1,2,0,1,0,2,0,1
8.14,6,2,2,3,1,0,1,3
8.145,4,1,2,0,1,0,1,2
8.15,0,0,1,1,2,1,1,2
8.155,1,0,1,2,0,1,4,3
8.16,1,1,1,3,1,0,0,2
8.165,0,0,0,2,1,1,2,1
8.17,1,2,1,2,3,2,1,1
8.175,1,1,0,0,0,0,1,1
8.18,3,0,2,0,1,0,0,14
8.185,8,2,2,0,1,1,1,11
8.19,3,3,2,2,0,1,0,2
8.195,0,2,1,2,1,2,0,1
8.2,6,2,1,3,2,2,0,3
8.205,2,3,2,1,2,1,1,3
8.21,3,0,1,0,0,1,2,2
8.215,2,1,1,1,1,1,3,1
8.22,2,1,2,3,1,2,2,2
8.225,3,2,0,3,1,2,2,3
8.23,0,1,0,1,1,0,0,1
8.235,2,1,1,2,2,1,1,5
8.24,1,0,4,0,2,2,0,1
8.245,2,3,1,3,1,0,1,4
8.25,2,1,0,1,2,1,1,3
8.255,3,1,2,0,1,0,0,3
8.26,2,1,1,0,1,1,1,1
8.265,1,1,0,1,0,3,1,3
8.27,5,2,2,2,1,0,1,6
8.275,2,0,1,1,1,1,0,2
8.28,0,0,2,0,1,1,3,1
8.285,2,1,0,1,2,3,3,0
8.29,8,3,1,2,2,1,0,7
8.295,0,0,1,1,1,1,2,3
8.3,6,0,0,4,0,1,2,2
8.305,2,2,1,1,1,2,0,1
8.31,1,1,2,2,0,3,1,1
8.315,2,2,3,1,2,0,3,5
8.32,2,2,1,0,2,0,1,2
8.325,2,2,2,1,1,0,2,2
8.33,1,1,1,1,0,1,2,1
8.335,1,3,2,2,1,2,0,3
8.34,0,1,2,0,2,2,1,0
8.345,3,0,0,1,2,0,0,2
8.35,0,0,1,2,3,2,1,1
8.355,2,1,0,2,0,1,1,4
8.36,0,1,0,0,1,1,0,4
8.365,1,2,2,1,0,1,5,2
8.37,1,1,0,1,0,2,0,1
8.375,3,0,1,1,1,2,1,5
8.38,2,1,0,0,0,0,2,1
8.385,0,1,2,0,0,0,1,2
8.39,0,2,0,1,0,1,2,2
8.395,1,2,3,0,2,3,1,3
8.4,1,0,0,1,1,1,0,2
8.405,1,0,1,1,1,1,1,0
8.41,0,2,1,1,3,0,4,0
8.415,4,2,1,2,2,2,2,2
8.42,3,1,0,1,2,2,3,3
8.425,0,3,0,1,1,2,0,3
8.43,0,1,1,1,0,2,0,3
8.435,1,2,1,3,0,0,1,0
8.44,2,2,1,2,0,1,0,3
8.445,2,0,2,3,1,2,2,2
8.45,2,1,1,2,0,1,0,1
8.455,0,1,1,0,1,3,1,0
8.46,2,1,3,0,0,2,1,1
8.465,2,2,1,1,1,1,1,0
8.47,1,3,2,0,1,0,1,0
8.475,1,0,1,2,2,0,2,0
8.48,1,1,0,2,1,0,2,1
8.485,1,4,2,2,1,2,3,3
8.49,1,2,1,1,1,1,0,2
8.495,2,2,2,1,1,2,2,4
8.5,6,1,1,0,1,1,1,0
8.505,0,1,2,0,2,1,1,1
8.51,2,2,1,1,2,0,2,3
8.515,2,2,0,0,1,0,0,2
8.52,5,2,3,3,1,1,1,3
8.525,1,1,0,1,1,0,1,2
8.53,0,1,3,1,2,2,0,1
8.535,1,0,1,0,0,2,2,1
8.54,0,2,0,0,1,2,2,4
8.545,1,1,2,3,0,1,0,0
8.55,1,1,1,0,1,3,1,1
8.555,1,2,1,3,2,1,1,0
8.56,3,1,1,0,1,3,0,3
8.565,1,2,3,0,2,3,1,1
8.57,1,0,0,1,3,2,0,3
8.575,2,2,0,0,0,0,1,1
8.58,4,1,0,0,1,1,1,1
8.585,1,2,0,1,2,1,1,1
8.59,1,1,1,0,1,1,2,0
8.595,0,1,1,3,2,1,1,0
8.6,3,1,2,1,3,0,1,2
8.605,3,1,2,2,0,0,3,2
8.61,2,3,1,0,1,1,0,1
8.615,1,1,2,1,1,1,0,4
8.62,2,0,0,0,0,1,0,0
8.625,0,1,3,0,2,0,1,1
8.63,3,2,1,3,3,2,1,1
8.635,3,0,3,1,1,2,4,0
8.64,1,2,1,2,1,1,1,2
8.645,1,2,0,3,1,0,1,2
8.65,1,1,2,2,0,2,0,2
8.655,2,1,2,0,1,2,2,1
8.66,2,3,0,0,1,1,1,1
8.665,0,0,1,1,2,1,5,1
8.67,2,1,1,2,1,1,1,1
8.675,1,3,1,2,1,0,1,1
8.68,2,2,1,2,1,2,0,1
8.685,0,2,1,2,2,3,0,3
8.69,1,0,1,0,0,1,1,1
8.695,2,1,1,1,2,2,0,3
8.7,1,0,2,2,1,1,1,1
8.705,1,0,0,1,1,1,1,1
8.71,0,0,2,1,1,2,2,1
8.715,1,0,0,0,3,0,0,0
8.72,3,2,2,1,0,3,2,2
8.725,3,2,2,1,2,2,1,3
8.73,6,3,0,2,0,0,2,1
8.735,3,0,1,2,1,1,2,2
8.74,1,3,2,3,2,0,1,1
8.745,1,2,2,0,1,3,0,2
8.75,4,1,2,0,1,1,2,2
8.755,1,3,1,1,1,1,1,1
8.76,6,0,1,1,2,2,3,2
8.765,0,1,1,0,1,0,0,0
8.77,0,1,1,2,2,1,2,3
8.775,1,1,0,2,0,0,1,0
8.78,0,1,2,2,1,1,1,2
8.785,0,1,0,2,2,1,2,3
8.79,0,0,2,2,0,4,1,1
8.795,1,2,1,1,1,1,0,1
8.8,2,1,0,0,0,3,1,1
8.805,0,2,3,2,1,1,0,2
8.81,2,1,1,1,1,1,1,1
8.815,1,1,1,2,0,1,3,2
8.82,0,1,1,1,1,1,2,0
8.825,3,2,1,0,1,3,1,0
8.83,1,3,2,1,1,1,1,2
8.835,0,3,3,0,1,2,1,2
8.84,0,1,0,2,0,1,0,2
8.845,1,1,2,2,3,1,0,2
8.85,1,2,1,0,1,1,1,1
8.855,2,1,1,0,0,1,2,0
8.86,1,2,2,0,2,1,3,3
8.865,0,0,1,2,0,1,0,0
8.87,0,0,3,2,0,2,0,2
8.875,2,2,4,2,1,0,1,2
8.88,0,0,0,1,1,2,0,0
8.885,1,2,2,1,0,2,1,4
8.89,1,0,1,0,1,1,1,0
8.895,1,1,1,1,0,1,2,2
8.9,0,1,0,2,0,0,2,2
8.905,3,1,0,1,1,1,2,0
8.91,1,1,2,2,2,0,0,1
8.915,0,2,0,2,1,1,1,2
8.92,2,3,1,1,1,1,0,1
8.925,2,1,1,2,0,2,1,1
8.93,0,1,0,3,1,1,1,0
8.935,1,1,3,2,3,1,2,1
8.94,2,3,2,1,0,1,1,2
8.945,0,0,1,1,0,0,0,2
8.95,1,0,3,1,0,2,2,2
8.955,1,0,0,1,2,2,1,2
8.96,1,1,4,0,1,3,1,1
8.965,1,0,2,1,3,1,3,2
8.97,1,2,2,0,2,1,1,2
8.975,0,1,2,0,0,1,1,0
8.98,1,1,2,1,3,0,1,1
8.985,2,2,2,1,0,0,0,2
8.99,1,0,1,3,0,0,1,1
8.995,1,4,2,1,1,0,2,2
9,0,1,1,2,1,1,1,1
9.005,1,0,0,2,2,2,1,1
9.01,1,0,1,1,1,1,1,1
9.015,1,1,2,0,1,1,1,0
9.02,2,0,1,1,1,2,0,1
9.025,0,2,2,3,4,1,0,1
9.03,3,1,2,0,1,1,1,4
9.035,1,1,1,1,0,2,0,7
9.04,1,1,0,1,2,2,2,4
9.045,0,1,2,0,1,1,2,0
9.05,3,1,1,1,1,3,1,1
9.055,0,0,2,1,1,0,0,2
9.06,0,0,1,1,1,0,1,1
9.065,0,1,2,1,0,2,2,3
9.07,1,1,2,2,0,1,0,2
9.075,3,3,3,1,0,2,3,2
9.08,2,2,0,2,1,1,2,2
9.085,2,1,1,0,2,1,2,2
9.09,0,1,1,1,0,1,2,2
9.095,2,1,0,1,0,2,1,3
9.1,1,1,0,1,2,1,1,1
9.105,1,2,2,2,1,1,2,0
9.11,0,4,3,0,1,1,1,1
9.115,1,0,1,2,3,1,2,1
9.12,1,3,1,2,1,1,0,0
9.125,1,0,1,1,0,2,2,2
9.13,7,2,1,1,1,2,1,0
9.135,0,0,1,1,0,1,0,3
9.14,0,1,3,3,1,1,0,1
9.145,2,1,0,1,0,2,0,1
9.15,1,1,0,1,2,1,1,0
9.155,2,2,1,1,2,0,1,0
9.16,1,0,3,2,2,1,2,3
9.165,2,2,1,2,1,2,3,6
9.17,1,2,1,1,2,3,2,2
9.175,1,3,0,1,1,1,1,1
9.18,0,0,3,2,0,1,0,1
9.185,2,1,1,2,1,0,0,0
9.19,2,2,1,0,1,0,2,0
9.195,1,1,0,1,0,1,0,3
9.2,4,0,0,1,1,2,1,2
9.205,1,2,0,0,2,2,1,0
9.21,4,1,3,1,0,0,0,6
9.215,1,1,1,1,0,0,0,4
9.22,1,0,0,1,2,1,3,2
9.225,1,1,1,2,1,2,1,2
9.23,2,1,1,2,1,0,1,1
9.235,4,2,2,1,3,1,2,2
9.24,1,2,2,1,1,2,1,2
9.245,1,0,3,1,1,1,2,1
9.25,0,1,3,1,2,1,0,1
9.255,1,1,2,1,1,3,1,2
9.26,1,2,1,1,1,3,0,1
9.265,2,2,1,1,0,2,0,2
9.27,1,1,2,2,1,2,2,0
9.275,1,1,1,0,1,1,1,3
9.28,1,0,2,2,2,1,2,1
9.285,1,0,1,3,0,0,3,0
9.29,2,1,0,1,1,0,1,1
9.295,0,1,1,1,2,1,0,1
9.3,0,1,1,1,0,1,2,2
9.305,1,1,1,0,1,0,0,3
9.31,0,1,0,0,1,1,1,2
9.315,1,1,1,2,2,1,2,0
9.32,2,2,1,1,1,1,1,1
9.325,3,3,1,1,2,0,0,2
9.33,4,0,2,2,1,3,1,2
9.335,3,0,1,1,0,2,1,3
9.34,1,1,1,0,2,0,0,0
9.345,0,1,2,1,1,2,1,2
9.35,0,1,1,3,1,0,1,1
9.355,1,1,2,2,0,1,1,2
9.36,3,2,2,1,3,0,2,0
9.365,0,1,1,0,1,1,1,2
9.37,2,1,2,1,0,1,2,4
9.375,0,1,2,3,2,1,2,1
9.38,1,0,2,1,3,1,1,4
9.385,0,0,1,1,1,1,0,3
9.39,4,2,1,0,1,0,2,2
9.395,0,1,0,3,2,0,0,0
9.4,2,0,0,3,0,1,1,1
9.405,1,1,3,2,1,1,1,0
9.41,0,1,2,0,0,1,1,3
9.415,1,1,0,1,4,1,1,1
9.42,2,1,1,0,1,1,1,1
9.425,1,2,1,1,2,1,2,0
9.43,2,3,1,1,1,2,1,4
9.435,1,1,0,2,1,2,1,0
9.44,1,1,1,2,1,2,0,2
9.445,1,1,1,2,0,1,3,0
9.45,1,1,0,1,2,2,1,3
9.455,1,2,1,2,2,0,3,0
9.46,1,1,2,0,1,1,1,1
9.465,2,0,0,1,0,0,3,0
9.47,3,0,2,3,0,1,3,0
9.475,2,2,1,1,1,3,1,1
9.48,2,1,2,2,1,2,0,1
9.485,0,2,2,2,1,1,1,2
9.49,1,1,1,1,0,2,1,2
9.495,1,2,1,0,1,1,1,3
9.5,1,3,1,0,1,1,2,0
9.505,0,1,0,0,0,0,2,2
9.51,2,2,2,0,2,1,3,1
9.515,1,1,1,1,2,3,0,1
9.52,1,0,2,0,2,1,1,1
9.525,2,1,1,1,0,2,1,1
9.53,1,3,0,2,1,1,1,1
9.535,3,0,1,1,0,1,2,3
9.54,0,0,1,2,1,3,2,1
9.545,1,2,2,0,1,0,1,1
9.55,1,2,1,0,0,0,0,0
9.555,1,0,1,1,2,1,1,0
9.56,0,1,1,1,1,0,2,3
9.565,2,0,3,2,2,2,1,1
9.57,0,1,2,1,2,1,1,1
9.575,1,1,1,0,1,1,0,3
9.58,0,1,2,1,1,1,1,1
9.585,0,0,0,3,0,2,1,3
9.59,2,2,1,0,2,1,1,1
9.595,0,2,1,3,1,0,1,1
9.6,1,0,2,2,1,2,0,3
9.605,1,2,0,1,1,2,1,0
9.61,1,2,2,0,2,2,3,0
9.615,1,1,2,0,2,2,1,1
9.62,2,2,1,2,2,1,2,0
9.625,0,0,1,2,2,1,1,2
9.63,1,2,2,1,0,0,0,0
9.635,2,2,3,1,0,1,0,1
9.64,2,0,1,1,1,1,2,2
9.645,1,2,0,2,1,0,1,1
9.65,2,0,3,2,3,0,2,0
9.655,1,2,0,2,1,0,2,0
9.66,0,2,3,2,2,0,0,1
9.665,2,0,1,1,2,1,1,1
9.67,3,0,1,1,1,0,1,1
9.675,0,3,1,2,0,2,1,7
9.68,1,2,2,2,1,3,1,0
9.685,0,2,2,0,0,2,3,2
9.69,2,1,1,2,2,3,1,0
9.695,1,1,2,0,1,1,3,2
9.7,2,2,0,0,2,0,1,3
9.705,1,3,2,2,2,2,0,0
9.71,0,2,1,3,2,1,0,1
9.715,1,2,0,1,1,1,2,1
9.72,2,0,2,2,0,0,1,4
9.725,1,0,2,3,2,1,1,1
9.73,1,0,0,0,2,2,1,0
9.735,0,1,1,1,2,1,1,2
9.74,1,2,1,2,2,2,1,1
9.745,3,1,1,1,1,1,0,1
9.75,0,0,1,1,2,2,1,3
9.755,2,1,2,2,0,0,1,2
9.76,3,0,2,2,1,0,1,1
9.765,1,3,0,2,0,2,1,3
9.77,0,0,1,0,0,1,2,3
9.775,1,1,1,1,1,2,1,0
9.78,1,3,1,1,1,2,2,1
9.785,1,2,2,0,0,2,0,1
9.79,4,3,0,2,3,1,3,4
9.795,0,1,0,0,0,0,1,2
9.8,0,0,1,2,2,1,1,0
9.805,0,1,1,2,1,2,1,2
9.81,0,1,5,0,0,1,1,0
9.815,2,3,1,1,2,1,3,0
9.82,0,3,1,2,4,1,1,1
9.825,2,0,1,2,1,2,2,0
9.83,0,1,3,1,2,1,1,2
9.835,2,1,2,1,0,0,0,1
9.84,1,1,1,0,1,1,1,0
9.845,1,1,1,1,2,1,2,3
9.85,1,2,0,0,1,1,0,1
9.855,2,1,1,1,1,0,1,2
9.86,1,1,1,2,0,1,0,2
9.865,1,2,1,1,1,1,2,2
9.87,1,0,1,2,1,2,1,2
9.875,0,2,3,2,1,3,1,0
