0.01,2,2,3,1,1,1,0,3
0.015,2,1,7,0,1,0,1,1
0.02,1,1,1,2,1,0,2,3
0.025,3,2,1,1,1,2,2,0
0.03,1,1,0,0,1,2,1,2
0.035,1,0,1,0,2,2,4,0
0.04,2,3,2,0,2,1,0,1
0.045,1,2,2,0,3,1,1,0
0.05,1,2,1,1,0,1,1,1
0.055,0,1,2,1,1,1,1,2
0.06,1,4,0,1,1,2,3,1
0.065,3,2,0,1,3,1,0,1
0.07,2,1,3,2,1,0,2,3
0.075,1,2,4,1,0,1,1,3
0.08,0,2,1,3,2,2,2,1
0.085,1,2,5,1,1,0,1,1
0.09,0,1,2,1,1,2,2,0
0.095,2,4,7,1,1,1,2,1
0.1,2,4,0,0,2,2,2,0
0.105,1,2,0,1,1,1,1,0
0.11,1,2,2,5,3,2,0,0
0.115,0,1,1,1,1,0,1,3
0.12,0,5,15,0,1,0,0,1
0.125,2,5,38,6,0,3,3,2
0.13,0,0,0,2,1,2,1,2
0.135,0,0,0,1,2,2,0,1
0.14,0,3,4,2,0,0,1,1
0.145,0,1,11,7,3,0,1,1
0.15,3,2,2,0,1,1,2,1
0.155,0,1,8,7,1,1,2,1
0.16,1,3,5,8,1,0,3,0
0.165,2,1,9,3,3,2,1,4
0.17,1,5,5,1,2,2,0,1
0.175,3,1,8,8,0,1,1,2
0.18,2,4,7,4,0,1,3,2
0.185,1,5,5,4,2,1,2,1
0.19,1,2,1,1,2,0,1,1
0.195,2,2,1,1,0,2,1,0
0.2,2,2,4,2,2,2,1,2
0.205,1,2,0,2,2,1,0,2
0.21,3,6,1,1,1,0,1,2
0.215,1,1,3,1,1,1,2,2
0.22,1,1,5,3,2,1,2,2
0.225,3,0,4,2,0,1,1,1
0.23,0,1,1,2,1,1,2,1
0.235,2,2,4,5,2,2,1,1
0.24,1,0,5,1,1,2,1,2
0.245,1,1,0,0,0,0,1,0
0.25,2,0,0,1,2,1,2,1
0.255,2,4,5,4,1,1,1,1
0.26,0,2,4,0,0,2,2,1
0.265,3,2,8,1,1,3,1,0
0.27,0,0,7,4,0,3,0,2
0.275,1,1,4,3,0,1,0,0
0.28,1,1,2,6,2,0,0,1
0.285,0,1,1,11,4,2,0,2
0.29,1,1,2,3,6,1,1,0
0.295,1,5,4,6,7,3,2,1
0.3,1,1,2,2,1,2,1,2
0.305,1,1,5,15,4,0,0,1
0.31,2,2,1,15,1,0,0,2
0.315,1,0,0,3,3,1,1,2
0.32,2,2,1,1,3,2,2,1
0.325,0,2,2,1,1,0,1,0
0.33,1,2,3,5,1,1,1,1
0.335,2,1,0,1,0,1,2,1
0.34,2,1,1,1,2,2,1,0
0.345,2,1,1,1,2,3,1,0
0.35,1,5,3,0,1,1,0,0
0.355,0,1,2,5,2,2,3,1
0.36,1,3,3,1,3,1,1,3
0.365,1,0,2,2,0,1,1,0
0.37,1,2,1,0,1,1,0,1
0.375,1,0,0,3,2,2,1,2
0.38,1,0,0,2,4,2,1,2
0.385,1,3,1,6,1,1,2,3
0.39,2,0,1,0,0,1,1,0
0.395,1,2,3,2,1,1,2,1
0.4,1,0,2,0,1,1,3,2
0.405,1,2,1,1,1,1,1,1
0.41,1,3,4,1,3,1,1,1
0.415,1,2,4,2,0,3,2,0
0.42,2,1,0,0,0,3,2,1
0.425,0,2,2,0,0,0,0,1
0.43,1,2,4,3,4,1,2,2
0.435,1,3,3,1,3,1,0,1
0.44,0,2,1,0,0,0,2,0
0.445,2,2,2,1,0,2,2,1
0.45,1,0,1,1,2,2,0,1
0.455,1,2,1,3,1,0,1,1
0.46,2,3,3,0,2,1,0,2
0.465,0,1,2,0,2,0,3,3
0.47,1,1,0,1,2,2,2,1
0.475,0,0,1,3,1,0,2,1
0.48,1,1,0,1,0,2,1,1
0.485,0,1,2,3,0,2,2,1
0.49,2,0,2,2,0,0,1,2
0.495,2,4,1,1,1,2,2,1
0.5,0,1,1,2,3,0,0,1
0.505,0,1,0,1,1,0,1,1
0.51,2,0,1,1,1,1,1,0
0.515,2,2,3,3,2,3,3,0
0.52,0,1,0,1,0,2,2,3
0.525,0,1,0,0,1,1,1,1
0.53,0,3,2,2,0,0,1,0
0.535,2,2,1,2,1,2,1,1
0.54,1,3,3,2,3,2,0,0
0.545,2,2,2,3,1,1,2,3
0.55,2,2,3,0,0,2,1,1
0.555,0,1,0,0,1,0,1,1
0.56,0,2,2,2,0,2,2,1
0.565,0,1,1,0,2,1,2,1
0.57,2,1,1,0,2,2,1,2
0.575,0,1,1,1,0,1,0,3
0.58,1,2,1,0,2,0,1,1
0.585,3,4,0,1,2,3,1,1
0.59,1,0,1,0,1,0,0,2
0.595,1,2,1,3,2,3,2,1
0.6,1,1,1,2,0,3,0,1
0.605,1,0,0,1,0,1,2,0
0.61,4,1,1,2,2,0,2,2
0.615,0,3,3,5,1,2,1,2
0.62,1,3,2,1,1,0,1,1
0.625,1,0,0,1,3,1,1,0
0.63,1,2,1,1,1,2,1,2
0.635,2,1,3,1,1,0,1,0
0.64,2,0,1,2,1,2,3,1
0.645,1,3,2,1,1,1,1,3
0.65,0,1,0,2,1,0,0,3
0.655,1,1,1,1,0,1,1,2
0.66,0,1,2,0,3,1,1,1
0.665,2,1,2,1,2,1,0,0
0.67,1,0,3,2,2,1,1,0
0.675,1,2,0,1,3,0,1,2
0.68,1,2,2,1,1,0,2,2
0.685,1,1,2,4,1,1,2,2
0.69,0,1,1,2,0,3,2,0
0.695,1,1,2,2,4,2,1,1
0.7,1,0,0,0,3,1,1,2
0.705,0,1,0,6,0,0,0,2
0.71,1,1,1,7,9,5,1,1
0.715,1,2,1,19,5,1,1,0
0.72,2,3,1,25,4,0,1,1
0.725,0,0,0,6,3,3,2,1
0.73,1,4,2,13,5,1,2,1
0.735,1,1,5,9,10,4,1,2
0.74,2,2,3,2,7,2,0,3
0.745,2,2,4,19,9,0,1,1
0.75,2,0,1,9,11,4,1,0
0.755,0,3,1,6,11,3,2,0
0.76,1,2,2,7,8,1,1,2
0.765,1,5,1,29,14,4,1,0
0.77,0,2,3,15,7,3,3,1
0.775,0,2,3,8,1,0,1,3
0.78,1,0,1,0,1,2,2,1
0.785,1,0,13,14,10,5,2,3
0.79,5,5,2,5,2,2,1,2
0.795,1,0,7,11,1,4,2,0
0.8,0,4,0,14,17,4,1,0
0.805,0,1,2,7,6,2,0,1
0.81,1,2,3,25,11,6,0,0
0.815,2,2,1,35,1,2,2,2
0.82,1,2,3,16,9,3,2,1
0.825,1,3,5,11,2,2,3,1
0.83,2,7,3,7,8,3,1,3
0.835,1,2,0,9,3,4,1,1
0.84,3,5,4,1,10,8,3,2
0.845,1,0,0,42,22,4,2,1
0.85,0,5,1,26,1,0,1,2
0.855,0,1,1,19,2,2,0,1
0.86,3,3,4,61,5,3,5,3
0.865,1,0,4,47,14,5,0,1
0.87,3,2,3,14,10,6,3,3
0.875,1,2,0,56,1,1,4,2
0.88,1,2,0,3,11,1,2,2
0.885,3,2,1,0,8,5,0,5
0.89,0,1,1,1,2,5,5,4
0.895,2,2,5,13,7,3,0,2
0.9,1,1,1,19,8,0,2,4
0.905,0,1,3,24,8,2,2,3
0.91,1,3,1,2,4,1,1,2
0.915,3,2,4,15,11,5,3,2
0.92,1,0,0,9,11,1,1,1
0.925,1,1,2,4,4,1,0,1
0.93,6,13,1,20,10,4,3,3
0.935,0,0,1,3,9,2,2,2
0.94,1,0,10,3,13,4,1,1
0.945,1,5,4,45,3,7,6,2
0.95,3,9,3,24,14,8,5,1
0.955,2,1,5,21,4,4,0,3
0.96,2,2,6,22,4,4,1,1
0.965,3,9,11,28,14,2,2,1
0.97,0,3,3,4,4,4,4,0
0.975,0,3,3,5,11,0,0,1
0.98,1,3,2,14,2,1,2,1
0.985,2,2,3,13,0,1,1,0
0.99,2,1,1,7,4,1,1,1
0.995,2,2,3,11,2,3,4,1
1,0,2,1,6,2,1,3,1
1.005,1,2,1,2,11,0,0,1
1.01,1,4,1,2,16,4,3,2
1.015,0,1,2,12,11,0,2,1
1.02,3,4,2,7,25,4,2,0
1.025,4,3,9,26,19,5,2,2
1.03,2,5,4,70,6,0,2,0
1.035,4,5,2,14,2,3,1,0
1.04,0,2,0,5,10,4,3,4
1.045,1,1,3,6,17,4,2,0
1.05,5,0,1,18,5,5,3,2
1.055,3,3,3,12,0,1,0,0
1.06,2,10,2,7,0,2,3,2
1.065,8,4,1,4,5,3,4,2
1.07,5,3,1,11,5,0,1,1
1.075,0,8,2,8,4,0,0,2
1.08,3,7,0,11,19,1,0,4
1.085,5,11,1,9,18,2,1,0
1.09,1,9,1,12,9,3,4,2
1.095,4,7,1,7,2,2,5,4
1.1,1,3,4,41,16,2,2,1
1.105,2,5,6,33,20,5,2,0
1.11,1,1,1,6,12,1,2,2
1.115,4,7,0,1,7,3,4,3
1.12,1,5,1,4,4,5,0,2
1.125,2,3,1,11,18,0,8,3
1.13,11,9,8,4,3,5,26,9
1.135,3,4,2,3,4,1,3,1
1.14,2,7,1,10,9,4,9,1
1.145,3,7,8,13,11,9,13,3
1.15,3,2,0,14,4,2,10,4
1.155,2,8,3,1,7,5,15,4
1.16,3,4,4,0,11,5,14,1
1.165,6,2,2,5,7,2,6,2
1.17,2,21,2,9,7,4,2,1
1.175,4,2,1,4,6,6,18,0
1.18,0,8,1,4,2,13,27,6
1.185,6,14,3,5,1,9,71,4
1.19,1,4,1,1,7,1,41,6
1.195,1,2,2,7,4,2,34,4
1.2,0,1,2,2,0,4,20,6
1.205,8,10,1,0,0,8,2,4
1.21,4,6,2,2,3,5,8,12
1.215,3,4,0,4,0,3,3,1
1.22,5,1,2,3,2,8,7,2
1.225,1,5,2,4,3,4,12,0
1.23,3,1,1,1,1,1,9,3
1.235,0,2,2,1,0,3,11,6
1.24,1,1,1,1,2,3,6,1
1.245,4,5,2,6,3,2,15,3
1.25,0,2,0,2,8,0,6,2
1.255,3,4,1,2,2,9,18,4
1.26,3,5,1,3,2,3,8,3
1.265,1,6,1,2,5,8,7,1
1.27,2,2,1,0,2,1,6,1
1.275,1,2,1,6,0,1,4,1
1.28,1,2,0,1,3,2,3,1
1.285,1,2,1,1,11,2,6,2
1.29,4,6,4,2,11,2,4,5
1.295,0,2,2,2,1,1,2,5
1.3,3,0,2,4,7,4,2,2
1.305,3,2,2,3,6,7,8,0
1.31,0,1,2,2,7,5,2,3
1.315,2,1,0,0,1,2,2,2
1.32,0,0,3,15,6,5,4,4
1.325,2,2,3,10,0,4,2,1
1.33,2,1,1,0,10,0,2,3
1.335,9,5,10,3,7,7,12,4
1.34,3,5,1,0,2,8,24,4
1.345,0,8,19,15,21,6,8,1
1.35,3,5,16,9,10,10,11,11
1.355,1,23,4,1,3,1,6,1
1.36,5,10,21,24,19,1,1,3
1.365,5,12,18,15,21,5,0,1
1.37,12,4,20,22,12,3,2,2
1.375,1,6,9,6,6,1,0,3
1.38,11,1,23,23,11,5,2,1
1.385,3,5,36,14,13,10,5,1
1.39,5,28,11,35,3,1,2,4
1.395,4,26,15,47,6,1,5,3
1.4,14,7,39,44,0,4,15,10
1.405,1,16,26,18,4,1,7,4
1.41,5,1,26,37,7,3,0,5
1.415,4,8,1,43,6,3,3,2
1.42,7,19,23,18,5,1,1,2
1.425,6,32,28,24,12,3,1,3
1.43,6,10,74,43,9,5,7,8
1.435,0,6,36,26,11,1,4,1
1.44,5,17,25,14,8,8,14,7
1.445,4,46,72,19,3,16,15,5
1.45,0,37,56,31,9,10,15,2
1.455,5,70,26,4,61,17,9,5
1.46,4,43,16,9,1,2,5,3
1.465,2,31,11,0,8,0,5,2
1.47,1,87,15,15,21,10,4,1
1.475,3,72,22,23,19,3,4,0
1.48,6,9,8,15,14,13,10,4
1.485,3,31,20,3,35,9,4,3
1.49,0,14,18,19,64,7,12,8
1.495,15,5,13,25,82,24,8,5
1.5,1,25,22,118,123,46,9,6
1.505,8,10,23,14,97,15,4,1
1.51,5,27,22,40,24,1,1,1
1.515,12,24,8,38,82,40,11,7
1.52,9,24,32,84,34,72,24,17
1.525,2,29,1,66,80,6,4,7
1.53,1,12,45,88,48,8,6,2
1.535,1,2,5,43,78,27,23,13
1.54,13,34,80,119,51,39,14,12
1.545,6,38,31,62,61,3,5,4
1.55,1,34,69,31,21,14,3,1
1.555,4,4,16,44,44,17,1,0
1.56,2,10,17,30,30,8,7,4
1.565,2,13,31,44,27,5,5,1
1.57,6,30,27,24,4,12,1,3
1.575,3,6,48,18,19,2,2,0
1.58,1,3,22,48,19,1,2,1
1.585,1,11,3,17,73,19,6,3
1.59,2,8,65,31,25,2,3,4
1.595,6,22,31,34,8,3,21,7
1.6,1,22,77,6,46,6,13,4
1.605,13,11,95,100,38,16,7,9
1.61,1,13,46,118,29,2,2,4
1.615,0,18,46,32,63,21,0,2
1.62,2,13,10,95,42,25,11,7
1.625,8,12,10,33,1,4,1,2
1.63,3,28,128,29,2,12,10,7
1.635,7,39,83,0,4,1,5,4
1.64,4,25,38,18,16,10,9,6
1.645,0,12,19,11,1,1,6,4
1.65,3,3,14,21,34,8,1,5
1.655,2,6,33,38,38,8,11,3
1.66,5,0,7,39,12,8,2,2
1.665,3,4,39,50,12,3,5,1
1.67,7,3,17,65,40,14,9,4
1.675,4,0,18,63,19,11,8,5
1.68,0,5,4,30,11,6,4,1
1.685,2,8,63,48,20,8,0,2
1.69,6,2,15,11,12,2,3,2
1.695,3,47,63,20,23,7,6,4
1.7,2,1,2,26,2,9,10,9
1.705,1,19,63,7,19,7,5,4
1.71,0,61,3,38,27,13,1,1
1.715,1,97,53,4,8,2,12,3
1.72,21,44,8,24,14,7,5,3
1.725,6,75,37,20,6,6,7,12
1.73,3,17,39,3,3,4,2,3
1.735,4,14,3,41,4,4,0,2
1.74,9,39,57,9,6,1,2,3
1.745,1,26,41,1,8,3,3,3
1.75,2,61,16,2,3,4,0,1
1.755,5,40,1,5,7,3,1,0
1.76,5,24,20,11,6,6,4,8
1.765,4,10,7,36,6,1,1,2
1.77,4,11,25,7,5,0,5,7
1.775,1,9,95,32,10,9,6,1
1.78,6,22,67,8,3,2,3,1
1.785,1,14,38,22,7,1,2,0
1.79,12,12,13,13,0,5,3,1
1.795,23,4,6,4,4,2,3,1
1.8,10,4,8,9,3,1,1,4
1.805,16,11,12,2,8,5,2,15
1.81,4,25,59,1,2,5,3,5
1.815,7,25,16,13,4,1,0,2
1.82,12,24,2,6,0,1,2,3
1.825,1,1,17,23,8,4,3,0
1.83,4,34,33,7,5,0,0,0
1.835,6,2,67,58,1,1,2,7
1.84,5,3,22,30,9,7,2,5
1.845,19,16,15,1,4,4,1,1
1.85,4,16,31,23,5,3,1,4
1.855,9,12,4,9,5,3,2,3
1.86,8,2,36,29,7,5,3,5
1.865,7,2,7,9,10,8,7,2
1.87,9,13,6,5,4,2,1,1
1.875,17,18,11,14,1,2,1,8
1.88,2,6,24,13,1,7,3,0
1.885,4,5,5,16,1,1,6,0
1.89,8,29,5,3,1,2,3,1
1.895,4,10,32,10,5,2,4,4
1.9,3,1,16,4,4,2,7,7
1.905,8,22,47,42,12,1,1,3
1.91,5,14,37,37,5,2,14,2
1.915,4,6,50,2,2,2,8,11
1.92,10,24,19,54,2,6,9,14
1.925,8,13,47,28,11,10,13,4
1.93,7,9,8,21,5,5,1,1
1.935,6,13,58,8,5,9,21,9
1.94,4,20,3,15,2,7,6,2
1.945,5,4,12,7,8,10,8,3
1.95,4,5,15,1,11,16,7,0
1.955,17,29,5,10,7,7,21,9
1.96,5,5,42,9,3,1,8,5
1.965,6,1,29,32,11,3,1,2
1.97,1,12,41,13,6,4,1,3
1.975,8,2,6,2,1,4,8,8
1.98,7,11,27,6,0,3,8,5
1.985,7,10,2,7,5,2,15,9
1.99,4,10,18,2,6,2,8,7
1.995,33,14,9,6,3,2,1,16
2,28,12,76,57,5,2,3,5
2.005,15,4,53,41,13,20,18,3
2.01,29,18,11,30,4,0,25,7
2.015,21,23,28,24,15,6,31,4
2.02,13,13,24,30,14,19,12,8
2.025,12,17,17,3,7,1,3,10
2.03,5,20,5,10,2,2,8,4
2.035,9,3,28,16,6,11,24,19
2.04,0,3,18,13,11,9,15,8
2.045,9,4,74,46,2,2,16,3
2.05,10,15,52,14,18,8,0,4
2.055,11,21,37,5,1,3,3,14
2.06,19,35,86,88,19,17,39,10
2.065,6,1,3,1,2,10,17,1
2.07,16,20,47,37,2,6,7,3
2.075,12,16,22,14,2,10,13,13
2.08,4,23,13,4,7,7,7,18
2.085,17,8,15,7,8,0,30,7
2.09,29,11,15,42,6,2,6,13
2.095,7,5,21,33,2,13,66,10
2.1,34,21,26,18,10,4,33,24
2.105,31,11,14,10,5,9,108,16
2.11,29,5,3,0,7,4,45,28
2.115,15,12,6,13,4,1,42,1
2.12,16,0,30,26,1,29,91,56
2.125,33,0,18,40,3,9,18,16
2.13,29,11,2,1,2,8,31,6
2.135,14,10,18,17,5,16,3,0
2.14,18,16,47,6,14,2,22,11
2.145,54,20,23,28,12,10,36,24
2.15,10,9,24,25,5,4,4,9
2.155,4,25,50,10,6,0,18,36
2.16,16,6,37,3,0,1,13,8
2.165,1,12,23,31,16,17,86,9
2.17,4,21,15,20,4,11,117,31
2.175,14,4,15,14,7,6,81,36
2.18,18,14,25,25,5,9,107,9
2.185,84,7,27,22,6,7,8,32
2.19,100,19,32,35,10,6,69,15
2.195,39,10,28,17,9,6,50,2
2.2,43,19,13,13,2,2,4,4
2.205,28,7,11,13,6,8,12,13
2.21,10,3,2,16,0,4,51,3
2.215,34,3,19,5,1,3,11,25
2.22,31,2,20,10,4,7,36,3
2.225,42,13,19,13,4,3,14,4
2.23,17,13,27,35,6,0,26,27
2.235,4,2,47,50,7,1,27,27
2.24,8,28,5,67,7,4,23,7
2.245,10,5,2,7,8,5,23,18
2.25,21,5,18,26,2,7,59,6
2.255,22,0,42,84,11,3,7,19
2.26,7,8,36,50,2,7,51,21
2.265,10,3,73,49,6,6,38,17
2.27,6,19,9,19,11,3,1,5
2.275,2,4,32,49,3,4,13,6
2.28,1,1,30,28,4,5,10,7
2.285,19,0,22,31,4,1,42,7
2.29,17,14,53,0,2,3,48,6
2.295,9,6,13,20,9,2,27,13
2.3,8,3,4,30,6,4,29,9
2.305,2,9,58,18,5,7,28,1
2.31,8,7,67,31,6,13,43,11
2.315,17,31,1,23,9,1,3,15
2.32,19,15,49,26,6,1,11,3
2.325,17,32,36,28,16,4,5,15
2.33,24,16,8,21,1,2,17,9
2.335,21,6,68,37,1,1,6,8
2.34,3,17,17,23,2,3,9,1
2.345,6,5,35,20,6,6,13,6
2.35,16,1,41,27,1,2,20,2
2.355,10,4,9,24,0,2,1,1
2.36,13,2,51,28,9,9,16,4
2.365,2,0,28,34,7,5,18,0
2.37,12,9,42,28,0,5,18,8
2.375,5,2,24,42,4,3,6,4
2.38,3,2,7,8,2,5,22,6
2.385,4,0,28,25,6,3,10,1
2.39,0,2,43,26,6,1,9,6
2.395,4,1,34,24,0,2,4,2
2.4,0,8,12,14,2,4,13,2
2.405,16,12,14,16,2,5,5,9
2.41,3,0,12,8,2,2,2,3
2.415,4,4,14,26,4,1,3,2
2.42,2,4,9,10,2,1,12,4
2.425,5,0,6,2,0,0,10,1
2.43,11,0,5,8,2,1,10,11
2.435,2,5,9,9,1,3,11,1
2.44,2,5,9,7,3,5,14,0
2.445,9,1,6,0,2,1,2,2
2.45,6,1,1,3,3,4,7,3
2.455,1,5,4,3,0,3,1,6
2.46,3,2,2,6,4,1,3,9
2.465,3,2,3,4,1,2,15,1
2.47,4,0,8,4,1,2,3,4
2.475,2,0,3,6,2,2,7,7
2.48,11,4,4,7,1,3,4,5
2.485,1,4,5,2,2,2,2,1
2.49,3,3,4,5,2,1,3,3
2.495,6,3,11,8,1,3,1,5
2.5,6,1,0,4,1,1,4,4
2.505,6,11,5,3,3,1,1,7
2.51,10,0,7,3,2,2,2,6
2.515,12,1,6,10,1,2,4,3
2.52,3,1,2,3,1,1,1,1
2.525,2,0,2,0,2,3,4,7
2.53,6,6,1,4,4,5,4,7
2.535,5,2,4,5,3,1,18,3
2.54,4,1,1,2,1,6,10,9
2.545,4,4,1,2,2,3,3,8
2.55,0,1,2,2,2,3,13,4
2.555,4,1,1,0,1,1,0,9
2.56,21,2,3,3,0,3,5,21
2.565,19,2,2,0,1,1,0,3
2.57,2,1,1,0,0,2,5,4
2.575,2,1,2,2,0,3,7,4
2.58,6,3,3,1,3,3,17,2
2.585,7,1,1,0,1,1,11,3
2.59,7,2,4,3,1,1,7,11
2.595,6,2,2,3,2,3,5,1
2.6,1,3,1,0,1,3,4,2
2.605,1,0,0,0,0,1,21,8
2.61,13,2,0,0,3,4,3,11
2.615,12,3,2,2,1,2,5,6
2.62,19,0,3,1,1,5,1,23
2.625,17,2,1,0,0,0,7,13
2.63,10,5,1,3,2,5,1,1
2.635,4,3,2,1,0,0,7,2
2.64,3,2,1,2,4,1,3,2
2.645,1,2,0,3,1,2,2,5
2.65,7,2,3,1,3,5,19,9
2.655,7,1,1,1,1,7,10,9
2.66,5,3,1,0,1,1,6,5
2.665,8,3,1,0,5,1,1,4
2.67,8,1,1,1,0,1,13,2
2.675,3,1,1,3,1,5,12,1
2.68,0,3,0,1,1,2,9,0
2.685,5,5,3,1,2,1,8,11
2.69,6,2,4,3,2,2,3,2
2.695,8,3,2,1,0,0,5,8
2.7,2,1,3,2,2,2,1,16
2.705,2,1,1,0,1,0,8,2
2.71,3,3,0,1,1,0,3,4
2.715,6,2,4,2,3,3,7,7
2.72,15,1,1,1,0,3,8,2
2.725,29,1,3,2,2,5,24,5
2.73,8,0,1,0,3,3,9,4
2.735,26,1,1,0,4,3,2,7
2.74,12,1,2,1,4,0,1,8
2.745,14,5,0,2,1,7,26,5
2.75,9,12,2,2,3,0,2,10
2.755,9,1,2,1,1,3,12,0
2.76,9,1,3,2,0,2,8,15
2.765,6,2,0,2,1,3,24,23
2.77,11,3,2,2,1,2,19,5
2.775,32,3,3,1,1,0,7,3
2.78,4,4,2,1,2,2,6,6
2.785,2,2,2,1,4,1,4,10
2.79,5,0,1,2,1,6,14,7
2.795,20,0,2,2,0,2,3,2
2.8,31,4,2,2,1,3,14,10
2.805,17,3,0,0,0,6,2,5
2.81,11,3,2,0,2,1,6,4
2.815,24,2,1,2,4,1,6,7
2.82,12,6,1,3,1,4,29,12
2.825,1,0,1,1,1,2,22,15
2.83,24,3,2,2,2,0,8,34
2.835,9,5,4,1,4,5,18,4
2.84,4,1,3,1,2,2,4,2
2.845,33,5,4,3,4,3,14,8
2.85,9,1,4,0,1,3,3,5
2.855,22,2,2,3,1,7,3,2
2.86,1,3,3,2,0,2,8,13
2.865,15,1,3,1,2,3,7,11
2.87,15,1,2,1,1,4,5,6
2.875,13,2,2,0,2,3,22,14
2.88,2,1,1,3,1,2,13,2
2.885,37,0,1,3,1,2,9,6
2.89,11,3,4,1,1,2,1,10
2.895,12,1,1,1,2,1,7,8
2.9,1,0,2,2,0,0,4,1
2.905,14,2,1,0,1,3,9,0
2.91,2,0,0,2,1,4,26,7
2.915,5,1,4,1,1,4,0,15
2.92,4,2,1,4,2,7,10,12
2.925,15,3,1,2,2,2,5,10
2.93,11,2,3,2,1,2,4,11
2.935,18,0,1,1,1,3,5,16
2.94,27,0,0,3,4,6,12,4
2.945,19,0,1,1,1,4,14,3
2.95,4,1,0,0,2,0,2,4
2.955,2,1,0,1,1,3,13,10
2.96,5,1,1,0,0,0,10,1
2.965,8,1,0,3,1,1,1,2
2.97,5,1,2,2,3,5,4,9
2.975,11,3,3,2,8,1,3,9
2.98,4,2,3,1,9,0,1,7
2.985,1,1,2,2,5,3,7,1
2.99,4,0,1,5,12,3,3,5
2.995,28,0,2,5,25,8,37,21
3,22,8,1,1,5,3,19,17
3.005,5,0,2,2,13,9,0,6
3.01,4,3,3,4,8,9,1,2
3.015,2,1,2,3,7,5,6,4
3.02,7,5,2,1,7,2,2,12
3.025,2,1,1,1,7,7,3,2
3.03,7,1,0,3,10,3,4,1
3.035,3,3,1,2,14,1,14,11
3.04,3,2,3,0,5,4,8,8
3.045,11,5,0,1,6,4,1,7
3.05,5,1,2,1,7,1,2,1
3.055,4,1,1,1,12,0,6,4
3.06,1,2,2,2,2,1,2,6
3.065,2,2,6,4,9,6,10,1
3.07,1,0,1,3,1,5,2,2
3.075,10,5,2,3,1,22,3,7
3.08,0,2,5,1,12,37,8,1
3.085,1,1,1,3,24,12,14,12
3.09,7,2,3,3,18,1,7,4
3.095,10,5,1,5,22,2,3,3
3.1,0,4,2,18,11,4,1,4
3.105,3,3,1,2,22,10,1,8
3.11,6,5,4,14,14,16,2,2
3.115,3,3,3,19,26,23,0,4
3.12,1,6,2,26,8,5,2,2
3.125,6,5,3,33,11,3,1,6
3.13,1,3,1,4,7,5,1,1
3.135,6,1,4,15,19,17,1,1
3.14,2,0,1,44,13,42,10,2
3.145,1,4,7,53,34,31,1,3
3.15,1,4,6,33,71,28,9,3
3.155,1,10,6,18,15,3,3,3
3.16,2,1,1,10,16,2,6,4
3.165,3,2,0,8,22,31,5,7
3.17,2,3,5,1,4,2,3,2
3.175,1,2,0,49,31,1,2,1
3.18,1,2,4,5,2,26,7,2
3.185,4,5,1,26,20,14,6,1
3.19,2,1,2,7,42,31,8,4
3.195,1,4,6,14,24,7,2,2
3.2,2,0,4,20,46,28,9,2
3.205,1,8,8,84,6,7,1,3
3.21,1,5,9,56,55,7,4,2
3.215,3,6,12,23,4,5,3,2
3.22,2,7,9,65,18,35,8,1
3.225,5,14,3,18,58,22,7,8
3.23,1,8,4,15,4,1,5,1
3.235,3,1,6,10,11,10,0,3
3.24,4,4,11,43,3,4,3,4
3.245,1,4,25,79,20,7,1,4
3.25,2,1,8,37,31,23,4,3
3.255,4,0,15,8,5,5,3,1
3.26,1,10,26,32,4,8,1,1
3.265,0,2,15,7,31,1,1,1
3.27,3,2,4,22,35,13,4,10
3.275,7,13,46,81,12,12,4,5
3.28,10,13,45,70,3,9,8,1
3.285,4,11,57,27,8,5,6,8
3.29,0,6,73,14,30,4,0,1
3.295,3,10,39,17,10,6,5,1
3.3,4,3,32,37,21,0,0,3
3.305,6,1,8,35,0,0,2,3
3.31,7,6,34,27,19,7,6,10
3.315,4,2,21,7,3,6,3,3
3.32,4,10,19,13,2,0,0,5
3.325,2,16,16,13,2,4,0,1
3.33,4,6,8,23,2,2,1,9
3.335,4,9,1,5,9,7,6,4
3.34,2,5,9,0,22,7,0,6
3.345,2,3,3,9,3,1,2,2
3.35,0,6,13,28,18,6,1,6
3.355,5,8,2,3,5,0,1,11
3.36,2,3,4,10,6,2,0,3
3.365,0,1,12,8,1,1,2,4
3.37,2,5,10,1,3,5,1,1
3.375,6,2,4,2,0,6,3,2
3.38,1,3,12,15,15,5,0,3
3.385,0,3,4,4,28,5,1,5
3.39,4,9,6,3,13,3,0,0
3.395,1,7,7,13,3,4,2,1
3.4,3,2,9,1,2,5,2,3
3.405,6,7,1,21,13,10,5,2
3.41,6,1,5,11,1,1,0,5
3.415,1,5,3,6,4,13,3,1
3.42,1,1,3,1,10,3,2,3
3.425,4,7,9,26,26,20,3,1
3.43,8,7,1,9,1,1,2,2
3.435,4,5,3,5,1,10,3,1
3.44,5,12,1,24,4,12,2,2
3.445,4,1,3,6,13,8,3,2
3.45,2,0,5,4,36,6,6,18
3.455,2,1,2,5,37,3,2,16
3.46,5,1,7,14,8,7,3,1
3.465,4,1,10,9,16,3,4,11
3.47,3,0,5,4,6,5,0,2
3.475,6,3,4,16,16,1,2,1
3.48,2,2,8,6,11,3,4,1
3.485,4,11,9,6,10,5,3,5
3.49,0,5,10,2,5,1,0,1
3.495,1,7,10,7,2,4,0,2
3.5,2,12,33,15,2,3,0,1
3.505,0,2,22,1,6,7,4,6
3.51,2,6,3,8,1,11,2,6
3.515,1,2,10,23,7,12,1,0
3.52,1,5,5,4,3,4,1,5
3.525,2,1,26,10,8,3,0,2
3.53,3,9,15,0,5,5,5,1
3.535,2,3,40,6,1,4,2,1
3.54,4,11,19,15,4,1,3,3
3.545,5,2,1,19,1,4,1,3
3.55,2,5,6,16,10,3,1,2
3.555,0,3,34,1,2,0,1,1
3.56,0,4,23,1,0,3,1,4
3.565,1,4,20,3,8,4,2,2
3.57,1,2,16,7,5,0,5,4
3.575,0,1,16,7,2,2,2,1
3.58,4,12,6,10,10,5,3,3
3.585,0,4,7,5,4,5,1,2
3.59,2,5,10,17,4,4,2,2
3.595,4,1,2,23,2,5,2,1
3.6,0,9,10,33,2,2,3,1
3.605,4,1,8,29,5,0,3,2
3.61,0,1,21,1,2,2,2,3
3.615,3,7,19,1,4,2,2,5
3.62,0,4,4,9,5,1,0,14
3.625,2,9,33,9,1,1,0,15
3.63,1,1,16,6,5,3,1,0
3.635,2,6,14,10,4,6,3,2
3.64,2,6,22,3,1,1,3,1
3.645,1,3,19,7,4,7,5,2
3.65,3,0,4,18,2,1,1,1
3.655,3,8,15,11,3,4,6,1
3.66,5,5,11,17,7,22,11,2
3.665,0,8,12,3,35,10,4,2
3.67,4,7,5,1,39,30,11,2
3.675,1,7,13,25,31,27,24,4
3.68,3,9,15,16,16,47,1,14
3.685,1,2,13,6,11,39,28,4
3.69,3,2,5,31,29,26,7,6
3.695,7,6,14,42,13,5,18,7
3.7,3,3,2,17,3,32,4,8
3.705,1,3,2,14,2,18,9,1
3.71,2,1,0,15,17,3,1,0
3.715,0,1,1,8,11,4,3,1
3.72,1,8,30,1,3,8,1,6
3.725,5,12,30,12,2,8,7,2
3.73,2,8,25,17,6,3,7,3
3.735,1,3,14,18,15,5,9,1
3.74,0,12,15,7,4,7,1,4
3.745,1,7,35,19,14,2,2,4
3.75,1,8,22,5,1,5,3,2
3.755,4,26,46,11,13,6,1,0
3.76,1,2,45,15,9,5,0,5
3.765,0,1,6,5,5,9,3,14
3.77,2,2,6,10,13,0,3,6
3.775,8,4,46,0,5,4,7,4
3.78,5,3,3,11,6,5,5,3
3.785,6,29,5,4,1,5,5,3
3.79,5,6,8,6,5,1,1,5
3.795,2,3,12,7,1,1,4,0
3.8,2,2,10,27,4,0,2,8
3.805,6,16,3,22,4,1,4,4
3.81,5,17,12,9,2,0,2,5
3.815,1,5,17,11,0,0,1,8
3.82,4,5,19,0,6,19,3,7
3.825,2,4,11,3,7,7,4,3
3.83,1,1,36,38,38,6,0,1
3.835,5,6,19,5,43,2,4,6
3.84,7,15,9,29,28,44,6,9
3.845,5,14,11,12,9,5,11,1
3.85,6,8,15,8,12,5,11,4
3.855,1,10,4,4,24,14,1,9
3.86,7,3,20,13,8,6,1,24
3.865,4,3,26,2,18,16,2,9
3.87,3,1,4,2,19,12,8,1
3.875,3,10,7,3,39,37,9,2
3.88,2,14,4,4,51,72,6,5
3.885,4,2,1,21,9,19,6,3
3.89,2,1,14,33,8,4,0,5
3.895,2,7,22,6,14,7,6,8
3.9,0,6,24,1,19,44,7,0
3.905,4,8,3,14,16,3,6,7
3.91,0,1,8,9,24,10,5,3
3.915,3,5,10,4,4,3,3,3
3.92,7,0,1,11,18,5,2,1
3.925,3,1,13,9,7,3,3,2
3.93,1,4,10,0,1,6,3,1
3.935,5,9,1,5,2,15,1,3
3.94,5,5,12,27,9,10,2,2
3.945,2,5,1,3,4,4,3,3
3.95,4,3,24,14,2,2,2,6
3.955,1,10,17,15,5,13,2,6
3.96,1,3,10,1,4,10,3,0
3.965,7,6,10,0,28,13,1,1
3.97,0,8,19,5,12,10,2,3
3.975,1,5,6,9,2,3,3,5
3.98,4,6,2,2,20,2,2,1
3.985,1,6,3,3,22,3,1,3
3.99,2,2,17,6,8,10,4,1
3.995,10,9,9,4,24,2,1,0
4,0,2,5,4,37,13,1,2
4.005,1,4,6,3,15,1,2,3
4.01,0,1,2,1,3,8,2,3
4.015,4,8,11,9,3,6,6,0
4.02,0,2,8,2,26,10,1,0
4.025,4,6,3,1,19,11,1,1
4.03,1,1,14,2,0,5,3,1
4.035,4,5,1,5,7,9,2,1
4.04,5,0,7,5,1,5,2,0
4.045,2,3,2,19,5,12,4,3
4.05,5,15,6,9,22,17,6,6
4.055,4,4,2,3,1,2,1,2
4.06,1,4,3,15,0,0,1,4
4.065,3,3,5,1,4,4,5,5
4.07,1,1,14,5,1,1,0,2
4.075,1,3,6,3,8,12,3,2
4.08,2,3,1,3,14,22,2,0
4.085,3,5,0,4,8,7,2,3
4.09,1,0,6,5,6,1,1,1
4.095,1,0,6,8,9,3,0,3
4.1,0,3,3,1,10,11,2,1
4.105,1,2,4,2,8,0,1,2
4.11,3,2,0,5,6,3,1,1
4.115,9,3,2,5,10,1,1,3
4.12,2,1,4,6,12,2,2,1
4.125,1,5,1,6,4,3,1,1
4.13,1,2,0,1,3,3,1,0
4.135,1,1,1,2,2,0,0,1
4.14,3,6,0,2,10,12,3,1
4.145,3,2,4,8,5,4,0,2
4.15,6,3,2,4,4,2,0,2
4.155,2,0,1,1,4,4,1,1
4.16,1,1,4,1,4,6,2,0
4.165,1,3,1,4,14,7,4,1
4.17,3,2,2,1,5,2,2,1
4.175,1,1,1,7,2,3,3,3
4.18,1,1,2,4,5,3,2,5
4.185,1,3,2,2,2,0,0,7
4.19,2,2,0,4,2,3,2,2
4.195,0,1,0,1,0,2,3,5
4.2,3,4,2,0,1,2,0,1
4.205,1,0,1,4,10,4,1,5
4.21,0,2,2,1,1,8,1,3
4.215,0,1,4,1,3,16,1,2
4.22,0,0,3,3,5,5,1,5
4.225,2,2,1,0,5,0,2,3
4.23,0,0,0,3,4,5,3,0
4.235,1,0,2,1,2,4,0,1
4.24,3,1,3,1,0,1,4,3
4.245,2,1,3,4,10,4,4,6
4.25,2,2,1,1,1,3,1,6
4.255,1,1,1,1,3,1,1,0
4.26,1,2,5,1,1,4,0,1
4.265,1,1,0,1,1,5,0,2
4.27,3,3,2,2,4,2,3,3
4.275,2,3,1,2,6,4,2,1
4.28,2,2,1,2,1,0,0,1
4.285,4,3,0,1,0,0,2,5
4.29,0,1,2,1,1,0,0,0
4.295,1,1,1,3,1,0,1,2
4.3,2,5,1,2,1,2,2,3
4.305,0,0,1,1,6,2,2,0
4.31,2,4,1,1,1,0,0,4
4.315,1,3,1,0,2,3,1,2
4.32,0,1,2,0,3,0,0,3
4.325,2,4,1,2,4,0,1,0
4.33,2,1,1,2,0,0,1,1
4.335,1,1,2,4,1,4,1,0
4.34,1,2,1,1,5,0,0,3
4.345,0,0,2,2,4,5,2,0
4.35,0,1,2,0,5,10,1,4
4.355,2,2,0,1,6,4,1,4
4.36,0,0,0,1,1,2,1,6
4.365,1,0,0,1,0,4,1,1
4.37,1,0,1,1,2,3,0,2
4.375,0,1,1,2,2,2,2,1
4.38,1,1,3,4,4,2,1,2
4.385,2,2,3,3,5,1,1,2
4.39,0,0,3,3,1,2,1,2
4.395,2,4,1,0,0,2,1,0
4.4,0,2,1,1,1,1,1,1
4.405,1,0,0,1,1,0,2,2
4.41,3,1,3,0,1,1,1,6
4.415,7,6,3,6,14,0,2,4
4.42,3,3,1,1,9,0,0,2
4.425,2,1,1,1,6,1,2,2
4.43,0,8,1,1,16,4,2,1
4.435,0,13,0,0,8,12,3,3
4.44,1,7,6,1,7,10,2,3
4.445,0,12,1,1,0,13,1,3
4.45,4,5,2,8,2,11,1,2
4.455,3,0,1,20,0,3,3,2
4.46,7,3,3,28,12,5,3,2
4.465,8,2,2,21,8,1,0,4
4.47,3,5,1,6,13,5,0,0
4.475,7,0,2,8,11,4,0,0
4.48,4,11,3,1,13,5,7,6
4.485,15,8,2,43,18,3,2,2
4.49,1,4,0,44,11,2,0,0
4.495,9,12,2,1,6,0,1,2
4.5,1,2,1,9,0,2,1,1
4.505,0,5,7,12,5,11,3,1
4.51,5,4,5,7,1,9,3,4
4.515,10,7,1,6,2,1,1,1
4.52,6,4,3,9,3,5,0,3
4.525,2,0,0,1,1,2,0,2
4.53,2,9,1,7,5,5,4,6
4.535,4,0,1,0,8,1,0,3
4.54,1,4,4,2,1,4,2,5
4.545,1,1,3,2,6,1,1,6
4.55,2,1,3,6,8,6,2,7
4.555,2,2,4,1,3,1,0,2
4.56,7,1,4,1,0,2,2,3
4.565,5,0,1,1,2,0,1,4
4.57,5,2,5,2,3,1,0,1
4.575,6,1,2,1,4,2,2,2
4.58,9,7,3,3,0,3,1,1
4.585,8,6,5,5,3,1,3,1
4.59,10,3,7,4,5,3,3,2
4.595,6,6,3,2,0,0,1,1
4.6,2,8,9,8,5,4,4,4
4.605,9,7,0,1,5,2,1,4
4.61,2,2,3,4,6,1,0,0
4.615,6,4,8,7,5,2,4,2
4.62,1,3,3,3,1,1,1,5
4.625,1,0,3,1,1,1,0,3
4.63,9,6,5,11,2,2,2,4
4.635,9,1,1,0,2,5,0,1
4.64,0,2,3,4,2,3,4,3
4.645,8,3,1,1,1,0,2,4
4.65,2,0,5,1,0,1,2,4
4.655,4,0,2,1,1,8,1,1
4.66,2,8,10,3,1,12,0,0
4.665,1,3,3,2,1,1,6,2
4.67,1,4,1,3,5,1,3,4
4.675,4,1,2,2,4,2,1,2
4.68,0,5,2,3,4,7,2,6
4.685,0,7,1,3,8,2,4,0
4.69,2,2,1,3,1,6,3,2
4.695,0,0,3,0,4,2,1,7
4.7,6,3,1,4,3,3,2,5
4.705,3,2,1,0,3,11,8,4
4.71,4,11,4,1,3,6,4,7
4.715,3,2,0,2,1,2,4,4
4.72,1,1,3,4,0,6,2,2
4.725,4,2,2,3,1,2,1,4
4.73,1,2,4,2,1,1,4,5
4.735,3,0,0,2,0,1,0,2
4.74,1,1,6,1,1,2,2,5
4.745,3,0,1,5,3,2,3,1
4.75,0,1,4,3,4,4,3,1
4.755,3,4,0,1,7,3,6,1
4.76,0,1,1,0,1,0,1,7
4.765,4,4,2,1,1,3,3,4
4.77,2,3,1,2,2,3,1,10
4.775,2,2,2,4,3,1,0,6
4.78,0,1,4,0,3,0,1,2
4.785,0,5,3,1,1,3,2,2
4.79,0,1,1,3,3,4,5,5
4.795,1,1,5,2,1,1,0,4
4.8,2,3,0,0,1,2,1,9
4.805,1,0,1,1,0,2,2,6
4.81,1,1,1,0,2,0,8,4
4.815,2,3,9,2,2,0,1,7
4.82,4,6,10,2,4,2,1,3
4.825,2,3,8,3,4,1,2,4
4.83,0,1,0,1,6,3,4,2
4.835,1,1,5,0,4,0,0,1
4.84,0,1,4,1,3,1,3,4
4.845,0,1,7,3,0,1,1,0
4.85,2,2,1,3,2,0,2,0
4.855,4,6,4,6,14,3,6,3
4.86,2,2,12,0,12,3,4,2
4.865,4,3,9,3,4,4,8,6
4.87,3,3,3,2,2,7,8,7
4.875,3,6,0,2,9,8,0,2
4.88,0,3,1,1,6,5,1,5
4.885,1,3,17,6,1,3,2,0
4.89,5,1,7,3,2,5,6,5
4.895,1,3,0,2,2,0,1,0
4.9,0,0,3,2,0,1,2,2
4.905,1,1,3,3,2,1,0,1
4.91,2,2,1,1,1,1,1,1
4.915,1,0,3,1,1,2,1,3
4.92,2,1,1,0,3,1,0,8
4.925,1,0,2,1,0,0,1,1
4.93,0,0,1,0,0,1,1,0
4.935,1,3,0,1,2,2,2,3
4.94,0,1,0,1,2,1,1,2
4.945,0,4,1,1,1,1,1,4
4.95,0,4,2,0,1,1,1,1
4.955,2,1,1,3,1,1,6,2
4.96,1,2,2,2,3,3,2,0
4.965,0,2,0,1,1,0,3,2
4.97,0,2,1,3,0,1,2,1
4.975,2,2,1,1,0,1,0,2
4.98,3,1,1,0,2,1,1,1
4.985,2,0,3,0,2,1,2,0
4.99,1,2,2,0,0,1,3,0
4.995,1,2,1,0,2,2,2,1
5,0,3,2,0,1,1,2,1
5.005,1,2,1,2,1,1,1,2
5.01,2,2,3,3,0,0,2,0
5.015,0,0,0,1,0,1,1,1
5.02,1,2,0,1,1,2,1,1
5.025,2,2,1,1,2,2,0,0
5.03,1,1,3,2,1,2,1,2
5.035,2,3,1,1,0,0,1,1
5.04,1,1,1,0,1,0,3,1
5.045,1,1,1,0,1,0,2,2
5.05,0,4,1,0,2,0,3,0
5.055,0,1,2,3,4,3,1,1
5.06,1,2,0,4,0,2,2,2
5.065,1,1,1,2,0,2,0,1
5.07,0,1,2,0,0,1,1,0
5.075,1,1,1,1,1,2,1,1
5.08,2,1,1,1,0,1,1,1
5.085,0,2,0,2,2,1,1,2
5.09,2,1,0,0,1,0,1,2
5.095,0,2,2,2,0,1,3,2
5.1,1,0,1,0,2,0,3,2
5.105,2,0,1,1,1,1,3,2
5.11,1,1,0,1,1,2,1,1
5.115,3,3,0,1,2,1,1,6
5.12,1,2,1,1,1,1,1,1
5.125,2,2,1,0,1,0,1,1
5.13,1,3,1,3,1,1,3,2
5.135,3,0,1,0,1,1,0,0
5.14,1,2,4,3,2,0,0,1
5.145,1,1,1,1,0,0,2,2
5.15,1,0,2,3,1,3,1,1
5.155,1,2,1,1,2,2,1,0
5.16,3,0,0,1,1,0,1,2
5.165,1,2,1,3,2,1,0,2
5.17,2,0,0,1,2,1,0,1
5.175,0,2,1,1,1,1,0,1
5.18,2,3,2,0,0,1,3,3
5.185,2,3,2,2,2,0,2,2
5.19,1,5,1,2,0,0,1,2
5.195,3,3,1,1,1,2,1,0
5.2,1,2,2,1,1,1,1,1
5.205,2,2,1,2,1,2,1,1
5.21,1,2,1,2,3,3,1,0
5.215,1,3,0,1,2,0,2,1
5.22,2,0,1,1,1,2,2,2
5.225,0,1,0,2,3,2,1,1
5.23,0,2,3,0,1,0,1,2
5.235,0,0,2,1,2,1,0,0
5.24,2,0,1,1,1,2,1,2
5.245,1,1,2,2,0,1,2,2
5.25,2,1,1,0,2,1,1,2
5.255,1,2,0,1,1,1,2,1
5.26,0,4,0,1,1,1,1,0
5.265,1,3,3,1,2,2,0,1
5.27,2,1,3,1,2,0,0,1
5.275,1,2,2,2,0,1,1,0
5.28,1,0,0,1,0,1,3,2
5.285,1,2,2,2,2,1,1,2
5.29,0,2,1,0,1,1,1,1
5.295,1,0,1,1,1,3,1,1
5.3,1,0,1,1,2,1,0,0
5.305,2,2,2,1,0,2,2,0
5.31,1,2,0,1,0,3,0,2
5.315,1,0,3,2,1,0,1,3
5.32,1,1,1,1,0,2,1,2
5.325,0,3,1,1,2,0,2,0
5.33,0,0,0,0,2,2,1,0
5.335,1,2,0,2,0,2,0,1
5.34,0,1,0,3,1,0,1,0
5.345,1,0,2,0,1,1,0,2
5.35,0,4,0,1,4,1,2,2
5.355,1,1,3,1,1,0,2,1
5.36,2,1,1,1,3,2,3,3
5.365,1,2,1,0,1,3,0,1
5.37,1,0,0,3,1,1,1,1
5.375,2,5,0,1,1,1,1,1
5.38,2,4,2,1,1,1,0,0
5.385,2,0,1,1,3,1,1,1
5.39,0,2,2,1,2,1,1,0
5.395,0,0,1,3,3,2,2,1
5.4,2,6,0,4,1,0,0,1
5.405,1,4,0,1,1,0,0,1
5.41,3,1,1,1,1,2,1,1
5.415,2,2,3,1,1,0,2,0
5.42,0,2,1,2,3,2,2,0
5.425,2,3,1,1,1,1,0,1
5.43,0,1,0,0,0,1,1,3
5.435,1,3,0,2,2,4,0,1
5.44,0,1,1,3,2,1,1,1
5.445,0,2,1,0,1,0,0,2
5.45,0,1,1,1,0,1,2,1
5.455,1,2,1,0,0,1,1,1
5.46,2,2,1,0,0,1,1,2
5.465,0,4,1,1,2,3,2,1
5.47,2,1,0,0,1,0,1,2
5.475,1,2,1,2,3,0,1,0
5.48,0,3,0,0,2,2,1,1
5.485,1,1,1,1,1,0,2,2
5.49,2,3,1,1,1,0,1,1
5.495,1,1,1,2,0,1,0,1
5.5,1,1,3,0,2,1,2,1
5.505,0,3,1,2,0,2,1,1
5.51,1,2,2,0,3,1,2,2
5.515,2,2,3,0,0,2,0,1
5.52,1,2,1,1,2,3,2,1
5.525,0,1,1,1,2,0,1,0
5.53,2,4,1,2,1,0,3,1
5.535,2,5,1,1,0,0,1,0
5.54,2,0,1,2,1,2,2,1
5.545,1,1,1,2,2,3,3,1
5.55,0,0,2,2,1,1,1,1
5.555,4,5,0,0,1,1,2,2
5.56,1,0,3,2,1,0,0,0
5.565,2,2,1,0,3,2,1,1
5.57,2,5,1,4,1,2,1,1
5.575,1,1,2,1,1,1,2,3
5.58,0,1,2,0,1,1,0,1
5.585,4,6,0,0,2,1,1,1
5.59,0,2,3,0,1,2,1,1
5.595,1,0,2,1,2,0,0,2
5.6,1,1,3,0,1,0,0,3
5.605,2,1,2,4,3,0,1,1
5.61,1,4,1,0,1,2,4,1
5.615,1,0,2,4,1,3,1,2
5.62,0,4,3,2,2,1,1,1
5.625,0,0,3,1,1,1,0,0
5.63,4,8,1,1,3,0,0,0
5.635,1,0,5,3,2,1,1,0
5.64,1,0,1,1,1,3,1,3
5.645,0,1,2,1,2,1,0,3
5.65,0,2,0,1,1,0,0,1
5.655,1,0,1,1,0,1,3,0
5.66,2,3,0,2,3,0,1,2
5.665,0,3,3,1,0,2,1,0
5.67,1,7,3,2,0,1,1,1
5.675,1,1,3,3,0,2,0,0
5.68,0,1,2,0,0,1,1,1
5.685,1,2,1,3,1,3,2,1
5.69,1,3,2,3,1,2,1,0
5.695,0,2,1,1,1,0,1,1
5.7,2,4,1,1,0,2,3,0
5.705,0,2,1,1,1,1,2,1
5.71,1,1,4,1,1,0,1,1
5.715,2,2,2,1,2,3,0,3
5.72,1,4,2,3,2,2,5,4
5.725,2,0,3,1,3,0,0,0
5.73,0,1,3,2,2,3,2,2
5.735,0,0,2,2,2,0,0,1
5.74,2,3,1,2,1,2,1,1
5.745,1,1,3,2,1,4,2,3
5.75,2,2,2,0,1,1,1,0
5.755,1,4,2,0,1,2,1,1
5.76,1,2,1,2,0,1,0,3
5.765,1,2,0,2,2,0,2,1
5.77,1,1,2,1,1,3,1,0
5.775,1,2,3,2,1,3,2,0
5.78,1,4,3,0,0,0,0,1
5.785,1,1,1,0,1,0,0,0
5.79,1,2,0,0,1,0,0,2
5.795,2,3,1,0,1,2,4,0
5.8,1,1,1,1,2,0,1,1
5.805,1,1,0,1,2,1,2,1
5.81,1,4,0,1,1,1,2,1
5.815,0,0,2,2,2,1,2,3
5.82,0,3,2,1,0,1,1,2
5.825,1,3,2,2,0,1,3,2
5.83,1,2,2,3,0,1,0,2
5.835,0,2,1,1,1,0,0,1
5.84,2,4,1,0,0,1,1,1
5.845,3,0,1,1,2,0,1,2
5.85,1,1,3,2,2,1,3,2
5.855,0,4,3,0,0,2,2,1
5.86,1,1,1,1,0,3,2,2
5.865,0,2,0,1,0,2,1,1
5.87,3,4,0,3,0,0,2,0
5.875,3,1,3,1,2,1,1,0
5.88,1,1,0,2,1,1,0,1
5.885,1,2,1,1,2,2,1,1
5.89,1,2,1,2,1,2,2,0
5.895,0,2,2,4,1,0,1,1
5.9,3,2,2,1,2,1,1,3
5.905,1,1,1,2,1,0,0,1
5.91,1,0,2,0,0,0,0,1
5.915,1,4,1,0,1,1,1,3
5.92,1,1,3,0,1,1,1,2
5.925,2,2,0,1,2,2,1,2
5.93,2,2,1,0,3,2,2,0
5.935,1,2,0,2,1,3,1,2
5.94,1,2,2,1,3,1,0,1
5.945,1,1,3,0,1,0,1,1
5.95,0,1,1,2,1,1,2,0
5.955,0,1,1,0,1,1,1,1
5.96,1,4,2,2,1,0,2,1
5.965,1,3,2,3,0,1,0,0
5.97,2,2,0,1,0,1,0,3
5.975,2,0,1,3,1,1,2,1
5.98,2,3,1,0,1,2,2,0
5.985,3,0,1,3,3,0,2,1
5.99,0,2,0,2,2,0,2,3
5.995,0,1,1,3,2,1,1,0
6,1,0,2,1,2,1,1,0
6.005,0,2,0,3,0,3,3,1
6.01,2,2,2,0,3,2,1,1
6.015,0,1,2,1,1,0,2,2
6.02,1,1,0,2,2,1,1,0
6.025,2,1,0,0,0,1,1,1
6.03,2,1,1,3,2,1,1,0
6.035,2,0,0,2,2,1,1,2
6.04,0,1,2,0,1,1,2,2
6.045,0,1,2,1,1,2,1,0
6.05,2,1,0,2,2,0,0,0
6.055,2,0,3,2,0,0,2,1
6.06,0,1,1,1,1,4,2,0
6.065,1,1,1,1,2,1,0,0
6.07,1,1,1,1,0,1,0,1
6.075,1,2,0,3,1,1,1,0
6.08,1,3,1,1,1,1,1,1
6.085,1,2,3,0,2,1,2,1
6.09,4,1,1,0,1,1,2,1
6.095,1,2,1,1,0,1,1,2
6.1,0,1,1,0,3,1,1,2
6.105,2,1,0,0,3,2,0,1
6.11,1,2,0,1,2,0,0,3
6.115,2,4,2,2,1,0,0,1
6.12,1,3,1,2,0,1,1,3
6.125,0,4,1,1,1,3,1,1
6.13,1,2,2,1,1,0,2,2
6.135,1,1,0,0,2,1,2,1
6.14,1,3,2,1,1,0,3,1
6.145,2,1,2,2,2,1,1,1
6.15,1,3,1,1,0,2,0,1
6.155,2,2,0,1,2,0,1,0
6.16,1,1,0,4,1,1,2,1
6.165,1,2,2,3,0,0,2,1
6.17,1,2,2,1,3,2,1,1
6.175,1,1,2,1,1,1,1,3
6.18,3,0,1,2,2,3,3,1
6.185,2,4,1,1,1,2,2,1
6.19,2,1,1,0,1,2,2,3
6.195,0,4,2,3,1,1,1,0
6.2,1,3,1,2,0,2,0,0
6.205,1,1,1,1,0,0,1,2
6.21,2,2,1,2,1,2,0,1
6.215,1,1,1,0,1,0,2,2
6.22,1,2,1,1,1,3,0,1
6.225,2,2,3,2,2,1,0,1
6.23,0,3,0,1,1,1,1,1
6.235,1,1,1,1,3,2,2,0
6.24,0,3,3,1,2,1,2,4
6.245,1,1,1,2,3,0,2,1
6.25,0,0,1,1,2,3,1,0
6.255,1,2,3,2,1,1,0,1
6.26,1,1,0,2,1,0,2,0
6.265,1,4,2,0,1,1,2,3
6.27,1,3,2,0,3,0,2,1
6.275,1,2,0,2,3,1,1,3
6.28,1,3,1,1,2,3,0,0
6.285,1,1,0,1,0,2,1,1
6.29,3,0,3,2,2,1,1,1
6.295,1,4,1,1,1,1,2,2
6.3,3,0,3,0,2,1,2,1
6.305,1,1,1,0,0,2,1,5
6.31,0,1,2,2,3,1,3,1
6.315,1,3,4,1,1,1,1,2
6.32,2,9,2,4,0,0,0,2
6.325,2,6,3,5,2,2,2,3
6.33,4,7,1,0,2,0,0,3
6.335,3,13,10,5,1,2,1,3
6.34,2,8,1,2,3,1,2,5
6.345,3,1,7,4,0,2,2,3
6.35,1,15,7,0,1,0,3,0
6.355,3,6,2,2,3,0,0,4
6.36,5,11,1,1,1,1,0,5
6.365,2,6,3,0,0,0,0,3
6.37,0,8,15,7,5,5,1,3
6.375,1,4,6,1,2,1,8,1
6.38,2,5,2,2,1,2,2,2
6.385,2,4,4,1,1,3,2,2
6.39,3,14,5,5,2,3,1,1
6.395,3,12,6,3,2,2,1,4
6.4,2,4,0,1,1,1,0,10
6.405,1,10,9,2,1,2,0,9
6.41,4,7,10,7,2,0,0,0
6.415,3,11,7,5,4,6,4,5
6.42,1,1,0,3,1,2,0,1
6.425,0,2,1,0,2,2,2,2
6.43,1,4,4,3,3,0,1,1
6.435,1,4,6,5,0,4,3,5
6.44,1,7,3,1,1,1,1,1
6.445,1,13,6,3,3,3,3,3
6.45,0,4,2,1,2,1,0,3
6.455,1,4,7,4,0,3,2,3
6.46,5,8,4,3,4,0,3,3
6.465,1,2,2,2,3,1,3,0
6.47,2,3,1,0,0,2,3,0
6.475,7,12,5,2,1,0,1,4
6.48,16,1,4,2,1,3,4,4
6.485,37,6,0,3,1,1,0,1
6.49,7,3,1,1,1,2,1,11
6.495,8,3,6,1,0,4,2,21
6.5,0,0,1,0,1,0,3,3
6.505,7,13,1,1,0,1,0,7
6.51,2,4,4,4,2,5,4,1
6.515,1,5,0,2,1,0,0,5
6.52,11,5,1,1,0,0,0,6
6.525,23,2,0,0,2,2,0,2
6.53,6,4,1,2,0,0,2,0
6.535,3,2,0,0,1,1,0,2
6.54,7,4,3,2,1,0,1,7
6.545,7,0,5,3,2,2,3,12
6.55,3,1,2,1,1,2,0,6
6.555,16,4,2,1,0,2,1,5
6.56,7,15,4,3,2,2,1,7
6.565,4,10,1,2,1,3,1,13
6.57,37,8,1,2,2,3,6,40
6.575,16,4,5,4,5,2,1,3
6.58,12,1,2,0,1,1,0,18
6.585,5,1,3,1,2,1,3,10
6.59,23,4,9,3,3,1,0,11
6.595,36,4,10,2,1,3,3,4
6.6,4,10,4,1,1,1,2,19
6.605,35,5,9,0,1,0,6,5
6.61,50,5,7,3,1,2,1,17
6.615,14,2,2,3,1,2,3,20
6.62,10,14,3,2,0,2,1,12
6.625,4,1,9,3,1,2,0,9
6.63,22,16,10,6,0,1,2,5
6.635,2,0,0,4,1,1,1,8
6.64,13,15,2,3,1,0,1,7
6.645,12,4,3,0,1,0,1,11
6.65,27,3,3,0,1,0,4,7
6.655,33,2,2,3,0,0,1,3
6.66,25,3,4,1,1,1,2,5
6.665,15,5,5,2,0,1,0,17
6.67,7,3,8,4,4,1,4,9
6.675,2,5,1,1,1,1,3,3
6.68,1,4,6,1,0,3,1,27
6.685,29,12,15,4,0,3,0,37
6.69,20,0,13,0,1,2,3,1
6.695,4,3,1,5,1,1,0,6
6.7,10,10,18,6,2,5,2,2
6.705,2,7,15,4,4,3,5,5
6.71,13,1,3,1,1,3,5,5
6.715,5,1,1,3,4,2,3,5
6.72,9,1,6,3,1,1,1,5
6.725,3,2,2,0,1,0,2,14
6.73,2,2,4,1,1,3,4,15
6.735,0,1,4,2,1,2,0,11
6.74,7,1,2,3,0,1,3,6
6.745,7,8,1,2,3,2,0,2
6.75,6,0,1,1,0,0,2,8
6.755,4,3,4,3,1,2,1,4
6.76,14,4,0,2,2,0,0,7
6.765,48,5,5,1,1,1,2,1
6.77,1,1,2,1,1,1,1,2
6.775,5,7,4,1,0,0,5,10
6.78,12,2,1,4,3,1,1,22
6.785,20,5,3,1,1,2,1,17
6.79,7,1,5,3,1,3,2,7
6.795,1,3,6,1,0,3,0,3
6.8,19,1,3,0,1,2,3,5
6.805,16,3,4,0,1,2,1,3
6.81,4,1,3,2,0,0,1,8
6.815,1,5,1,1,1,2,2,5
6.82,11,3,1,2,4,2,0,7
6.825,9,2,0,1,2,1,1,2
6.83,1,0,0,1,1,1,1,9
6.835,10,0,2,0,1,1,2,2
6.84,11,5,3,3,1,3,4,12
6.845,3,1,2,1,1,0,3,4
6.85,0,0,0,2,2,2,0,1
6.855,2,1,0,0,2,0,3,7
6.86,5,3,1,3,2,2,5,5
6.865,10,1,0,0,0,0,1,2
6.87,2,1,1,0,1,1,3,0
6.875,2,4,1,1,0,1,0,1
6.88,3,0,1,1,2,2,0,3
6.885,7,0,3,1,3,0,1,5
6.89,2,4,3,1,1,1,3,4
6.895,4,6,3,2,2,1,3,2
6.9,3,0,1,0,0,0,1,3
6.905,2,0,1,1,2,2,4,1
6.91,2,4,1,1,1,2,0,0
6.915,1,0,0,0,0,1,1,4
6.92,1,4,1,1,1,1,0,4
6.925,0,4,0,0,1,2,1,1
6.93,5,2,0,2,3,1,2,1
6.935,11,1,2,3,1,1,2,11
6.94,5,2,1,0,0,1,1,20
6.945,7,1,0,1,1,1,2,3
6.95,8,2,0,1,0,0,1,4
6.955,2,0,3,2,3,0,2,1
6.96,1,2,2,0,0,1,0,5
6.965,2,1,1,0,1,2,5,0
6.97,5,1,0,0,1,1,2,2
6.975,6,1,0,1,0,1,1,0
6.98,2,2,1,2,2,1,1,9
6.985,0,2,1,1,1,0,0,3
6.99,2,2,1,1,1,1,2,2
6.995,2,2,2,1,0,1,3,1
7,2,2,1,0,0,1,2,1
7.005,3,1,3,1,2,1,1,2
7.01,1,0,0,2,2,1,1,3
7.015,3,2,1,0,1,2,1,10
7.02,3,3,1,1,2,1,1,5
7.025,2,5,3,1,1,0,1,3
7.03,0,0,2,1,1,1,3,1
7.035,1,0,1,0,2,1,1,4
7.04,3,1,0,1,1,2,1,7
7.045,0,3,1,1,1,2,0,4
7.05,2,4,3,2,2,2,2,4
7.055,0,2,1,3,1,2,1,3
7.06,2,3,1,1,1,1,2,1
7.065,1,3,1,2,1,1,1,3
7.07,3,4,0,4,1,2,2,1
7.075,4,0,0,1,1,1,2,10
7.08,4,0,3,1,2,1,2,0
7.085,5,2,0,1,0,0,1,2
7.09,1,4,0,1,0,0,1,2
7.095,3,0,2,1,2,1,1,7
7.1,2,4,3,3,2,0,0,1
7.105,3,1,2,2,2,1,2,0
7.11,2,0,2,1,1,2,1,7
7.115,3,2,2,1,3,2,0,4
7.12,1,2,2,1,2,1,2,7
7.125,6,2,1,0,3,2,1,1
7.13,0,1,1,0,0,1,0,2
7.135,4,2,2,1,2,3,1,7
7.14,2,0,1,1,0,0,0,1
7.145,2,2,2,3,0,2,2,6
7.15,2,2,1,1,2,0,0,4
7.155,1,1,0,2,2,0,0,3
7.16,2,3,1,1,2,2,2,7
7.165,3,6,2,0,1,1,0,2
7.17,0,0,0,2,0,1,0,5
7.175,2,3,2,4,0,2,4,3
7.18,1,3,1,2,0,2,1,3
7.185,2,2,1,2,1,2,1,0
7.19,0,0,1,1,2,3,1,0
7.195,2,3,1,0,0,0,1,4
7.2,1,1,1,0,2,2,1,3
7.205,2,1,0,0,1,0,0,5
7.21,1,6,0,3,2,2,2,2
7.215,1,1,0,2,0,0,2,1
7.22,4,2,1,1,1,2,1,3
7.225,1,2,0,1,0,1,0,1
7.23,2,1,1,1,2,1,3,5
7.235,2,0,1,0,0,0,2,4
7.24,0,3,1,2,2,0,0,1
7.245,3,0,2,0,1,0,1,1
7.25,3,1,0,0,1,2,1,2
7.255,2,2,0,1,1,3,0,2
7.26,0,0,2,1,1,2,1,2
7.265,1,1,3,2,1,2,2,1
7.27,1,3,1,3,0,0,0,4
7.275,1,3,0,0,1,1,1,2
7.28,1,3,1,1,3,2,2,1
7.285,0,3,2,2,1,1,2,1
7.29,2,2,3,4,1,3,1,3
7.295,1,0,1,0,1,2,1,2
7.3,2,3,1,2,0,2,1,2
7.305,2,2,1,0,0,2,3,2
7.31,0,2,1,2,2,1,0,1
7.315,0,0,2,4,3,1,3,2
7.32,0,1,3,1,1,0,2,1
7.325,0,1,0,1,1,0,1,0
7.33,1,1,1,2,0,0,1,0
7.335,0,1,4,1,2,2,0,1
7.34,1,3,1,2,1,1,3,2
7.345,0,1,2,1,2,2,1,2
7.35,0,1,1,0,1,2,1,5
7.355,2,0,0,1,1,1,1,0
7.36,1,5,1,3,0,2,1,1
7.365,0,0,1,1,0,0,2,0
7.37,2,3,2,3,1,2,1,1
7.375,1,2,1,1,2,2,2,2
7.38,1,1,0,1,2,0,1,2
7.385,1,2,0,2,0,0,0,1
7.39,0,1,1,2,1,0,2,1
7.395,1,1,1,3,0,2,2,1
7.4,2,1,2,0,1,1,5,1
7.405,2,1,0,1,1,1,2,3
7.41,1,0,1,3,0,1,2,1
7.415,3,3,1,0,1,1,0,1
7.42,2,0,1,0,1,3,1,0
7.425,1,1,3,1,1,0,1,0
7.43,1,2,2,2,3,3,3,1
7.435,1,0,2,0,2,1,0,0
7.44,2,2,1,0,1,1,3,3
7.445,1,2,1,3,0,2,1,1
7.45,0,1,2,1,1,3,1,0
7.455,0,1,3,2,2,1,1,2
7.46,1,1,0,1,4,0,0,1
7.465,1,1,1,2,1,2,0,0
7.47,1,1,3,1,4,1,3,1
7.475,1,1,2,1,1,3,0,1
7.48,2,2,4,1,2,2,0,1
7.485,1,1,0,3,2,1,2,1
7.49,1,2,1,0,1,1,2,1
7.495,2,1,1,3,1,0,2,0
7.5,2,0,2,1,3,3,1,1
7.505,1,2,1,0,1,1,0,2
7.51,2,1,2,3,1,2,1,1
7.515,1,1,0,1,6,1,1,1
7.52,1,0,2,1,2,2,1,0
7.525,0,2,1,1,2,0,1,0
7.53,0,1,1,1,2,1,1,1
7.535,1,1,1,2,0,1,3,4
7.54,0,1,2,1,5,2,1,1
7.545,1,1,0,3,7,3,1,1
7.55,1,0,0,4,1,4,1,1
7.555,2,2,2,1,5,5,0,2
7.56,1,0,0,1,13,1,1,2
7.565,2,3,2,1,6,3,0,1
7.57,2,5,0,0,3,4,0,1
7.575,1,1,1,4,9,6,2,1
7.58,0,0,2,3,19,9,4,5
7.585,1,0,3,1,18,7,2,1
7.59,1,2,1,3,5,10,4,1
7.595,1,4,0,1,2,1,2,0
7.6,1,5,0,4,18,7,3,2
7.605,1,0,3,2,1,13,6,3
7.61,2,0,2,2,8,1,3,4
7.615,2,1,1,1,5,1,3,0
7.62,1,2,0,1,9,0,1,0
7.625,1,1,0,5,3,1,1,1
7.63,2,2,1,0,3,2,1,0
7.635,1,1,1,3,7,6,1,0
7.64,1,3,2,1,13,3,1,2
7.645,1,1,1,0,6,2,0,3
7.65,0,3,2,0,1,2,5,2
7.655,2,0,3,2,0,6,0,0
7.66,0,1,0,2,1,8,1,0
7.665,2,2,2,0,4,3,5,3
7.67,1,1,2,4,4,6,3,2
7.675,0,3,0,1,2,5,10,4
7.68,2,2,1,1,6,5,1,2
7.685,3,0,0,1,4,3,4,0
7.69,0,5,1,0,9,7,2,2
7.695,2,2,1,1,4,3,7,5
7.7,0,1,4,4,3,6,2,8
7.705,1,2,2,3,6,1,4,0
7.71,3,0,1,3,4,1,4,5
7.715,1,2,1,0,3,0,3,1
7.72,1,3,2,2,4,2,6,0
7.725,0,4,1,5,12,7,6,2
7.73,1,1,2,2,8,1,0,2
7.735,3,1,0,1,18,7,3,0
7.74,1,1,2,1,2,3,5,2
7.745,4,2,2,2,16,3,1,3
7.75,4,2,0,1,13,1,2,3
7.755,4,6,4,2,8,8,7,7
7.76,2,1,1,0,5,7,0,4
7.765,0,4,3,3,9,0,2,1
7.77,1,3,2,1,17,10,7,1
7.775,2,1,1,2,10,3,2,5
7.78,0,3,3,3,6,13,1,1
7.785,4,10,6,6,10,8,16,5
7.79,1,0,0,5,24,3,12,1
7.795,1,3,1,1,15,9,10,0
7.8,3,3,3,0,11,7,9,5
7.805,0,1,2,1,13,1,9,2
7.81,2,7,2,1,7,2,16,7
7.815,1,0,1,4,18,3,9,1
7.82,0,3,1,3,2,7,5,1
7.825,3,4,1,2,1,2,0,3
7.83,4,3,3,2,5,11,4,1
7.835,1,2,0,2,14,5,6,2
7.84,1,1,3,1,5,4,3,1
7.845,3,0,1,4,12,1,15,2
7.85,4,2,0,0,4,8,4,4
7.855,0,1,3,1,2,12,7,9
7.86,1,1,7,4,9,0,18,34
7.865,1,5,0,9,21,10,30,15
7.87,1,8,2,1,23,7,11,5
7.875,2,7,0,2,1,7,12,5
7.88,4,0,3,0,37,14,16,20
7.885,2,1,10,5,42,4,2,5
7.89,12,1,1,1,12,7,2,0
7.895,7,1,3,0,11,16,2,1
7.9,2,1,2,6,10,19,7,5
7.905,3,7,2,1,15,2,5,2
7.91,2,1,2,3,2,5,1,1
7.915,4,5,2,2,3,8,2,13
7.92,0,4,2,4,4,2,12,3
7.925,29,2,2,4,0,2,8,2
7.93,26,26,3,3,1,3,2,0
7.935,5,34,0,1,10,1,5,10
7.94,4,36,3,1,15,7,8,6
7.945,10,33,0,0,7,5,1,4
7.95,19,16,3,4,2,7,10,17
7.955,1,41,12,6,4,8,3,15
7.96,9,55,0,1,3,7,13,21
7.965,8,73,7,10,16,4,1,3
7.97,1,30,1,3,8,2,0,20
7.975,6,17,6,1,5,6,3,0
7.98,3,44,21,14,0,5,5,5
7.985,10,1,3,2,10,10,7,4
7.99,4,13,0,4,4,2,1,6
7.995,34,1,2,0,7,9,7,1
8,44,1,2,3,7,4,2,2
8.005,9,68,0,8,8,7,6,6
8.01,5,43,2,3,2,7,6,7
8.015,5,19,4,2,1,1,1,7
8.02,16,38,11,0,8,3,6,4
8.025,5,51,10,0,11,6,15,3
8.03,6,54,3,4,1,5,5,7
8.035,32,5,31,6,1,3,3,11
8.04,7,9,9,1,5,1,5,7
8.045,21,32,27,4,2,1,0,1
8.05,17,25,26,17,3,3,2,5
8.055,10,19,5,8,0,2,1,6
8.06,3,8,22,2,0,9,2,6
8.065,22,12,6,11,5,3,4,7
8.07,12,2,14,10,2,7,6,11
8.075,10,15,1,0,5,1,0,25
8.08,4,13,18,5,1,4,4,3
8.085,4,4,12,3,2,2,1,7
8.09,1,16,16,6,0,3,0,5
8.095,11,16,25,12,4,2,4,6
8.1,19,8,0,1,12,6,0,0
8.105,43,46,0,2,1,3,6,14
8.11,10,13,0,12,2,3,0,3
8.115,4,8,25,9,2,0,4,5
8.12,16,12,49,0,2,4,2,6
8.125,35,13,12,4,7,2,4,2
8.13,10,3,44,8,3,2,3,15
8.135,3,21,16,7,13,0,4,9
8.14,0,6,29,10,0,10,4,9
8.145,6,14,7,5,4,9,1,10
8.15,6,12,12,9,7,5,2,0
8.155,2,12,3,1,1,6,3,9
8.16,1,2,9,12,1,7,5,17
8.165,12,10,1,4,7,3,1,18
8.17,6,1,34,13,8,9,4,7
8.175,5,5,5,6,3,10,10,9
8.18,9,3,7,8,2,7,7,14
8.185,2,8,10,13,33,18,20,18
8.19,10,11,6,5,43,27,32,5
8.195,1,6,0,2,18,7,11,2
8.2,23,20,0,1,12,3,4,1
8.205,2,15,10,3,14,3,7,0
8.21,12,1,9,13,44,29,7,9
8.215,8,2,37,6,10,12,10,10
8.22,20,5,26,14,26,43,14,11
8.225,13,7,8,6,7,4,15,14
8.23,22,45,5,16,40,5,9,4
8.235,19,26,5,5,25,21,10,14
8.24,11,11,8,19,5,22,5,10
8.245,18,34,2,10,3,16,18,21
8.25,1,7,1,3,5,21,22,10
8.255,37,1,8,0,4,28,12,22
8.26,18,1,12,3,15,27,5,10
8.265,24,67,4,1,3,4,15,12
8.27,0,62,18,17,58,33,63,5
8.275,15,62,7,4,44,31,15,4
8.28,28,60,14,1,19,28,63,14
8.285,14,3,19,1,34,7,4,18
8.29,2,38,1,4,20,3,1,8
8.295,27,43,8,1,9,3,49,3
8.3,76,75,1,7,1,10,13,16
8.305,5,20,3,3,12,5,8,55
8.31,21,3,5,9,9,12,19,10
8.315,10,2,10,10,3,11,10,5
8.32,18,19,5,3,12,5,20,22
8.325,71,83,4,1,3,3,3,5
8.33,31,55,4,0,5,12,13,15
8.335,2,5,7,3,9,6,2,23
8.34,4,33,5,0,5,5,32,8
8.345,31,13,3,2,1,25,6,15
8.35,25,34,6,6,0,3,14,13
8.355,16,57,1,0,0,9,45,35
8.36,26,21,9,6,6,5,11,36
8.365,17,54,8,0,5,7,22,13
8.37,6,1,4,0,2,5,6,6
8.375,20,14,1,2,0,2,11,4
8.38,32,6,7,5,11,17,8,10
8.385,2,17,3,4,5,0,3,34
8.39,29,20,6,1,6,1,14,4
8.395,19,13,4,0,8,5,11,9
8.4,18,13,9,1,4,4,0,2
8.405,20,21,8,1,8,4,4,11
8.41,3,2,7,5,10,4,10,15
8.415,3,17,16,9,7,8,1,15
8.42,25,9,8,4,4,4,4,9
8.425,15,3,2,6,5,14,17,4
8.43,9,5,3,1,12,8,3,5
8.435,22,20,8,5,10,13,28,10
8.44,33,5,5,4,2,3,10,3
8.445,31,6,13,3,3,5,8,21
8.45,4,6,1,1,15,4,14,40
8.455,9,19,10,4,25,16,23,54
8.46,5,12,11,8,2,3,16,24
8.465,7,9,36,10,6,11,6,6
8.47,7,16,12,9,1,0,3,6
8.475,1,7,9,6,15,8,19,10
8.48,17,7,2,3,4,1,5,5
8.485,35,23,33,3,9,3,9,13
8.49,2,7,7,3,0,9,9,6
8.495,14,1,6,5,16,4,6,4
8.5,7,3,3,2,5,2,6,1
8.505,9,5,4,3,2,1,1,7
8.51,8,3,3,2,4,1,6,9
8.515,5,2,0,4,7,5,5,3
8.52,47,1,7,4,1,3,6,0
8.525,13,6,10,0,9,10,4,12
8.53,11,14,30,6,5,6,20,2
8.535,3,18,15,0,19,16,2,17
8.54,2,8,3,15,17,12,13,2
8.545,5,9,2,11,0,1,30,9
8.55,4,1,52,4,13,14,1,3
8.555,9,6,5,8,13,9,5,21
8.56,7,8,39,9,5,0,6,2
8.565,27,9,47,24,4,8,5,13
8.57,11,3,27,18,5,3,16,14
8.575,25,3,0,7,8,3,0,7
8.58,34,3,17,1,6,5,11,2
8.585,0,9,3,6,1,5,12,1
8.59,9,7,38,14,2,2,6,2
8.595,19,0,20,12,7,6,15,4
8.6,0,4,15,8,5,14,4,5
8.605,2,11,16,7,3,8,1,15
8.61,6,3,2,4,10,8,3,6
8.615,6,25,44,6,15,29,4,11
8.62,2,11,29,6,6,24,18,9
8.625,6,1,10,2,2,3,12,7
8.63,2,6,22,3,2,6,6,9
8.635,11,7,58,12,11,4,3,6
8.64,18,6,34,2,2,5,1,12
8.645,15,1,21,7,0,8,19,6
8.65,3,15,1,6,2,6,11,7
8.655,28,1,23,9,3,20,16,3
8.66,7,8,24,7,4,1,1,8
8.665,4,6,19,2,2,0,12,3
8.67,14,5,36,12,8,1,2,7
8.675,22,18,10,2,3,10,11,6
8.68,17,2,4,3,4,3,1,3
8.685,13,15,1,3,4,2,3,6
8.69,4,14,41,19,5,1,3,1
8.695,4,7,4,13,1,4,2,14
8.7,6,13,0,11,9,8,7,4
8.705,1,5,55,15,6,14,6,5
8.71,4,11,44,1,2,0,2,8
8.715,2,2,15,0,4,1,4,8
8.72,2,7,4,10,3,0,5,1
8.725,11,6,51,11,9,9,8,1
8.73,4,0,34,18,3,1,2,2
8.735,0,5,60,10,4,1,0,11
8.74,4,3,20,6,16,5,1,11
8.745,27,9,26,5,21,6,2,6
8.75,60,19,7,7,4,2,2,1
8.755,2,1,13,6,10,12,4,2
8.76,4,11,13,5,2,8,5,5
8.765,1,3,4,5,3,8,2,10
8.77,19,10,13,3,6,9,0,2
8.775,14,13,7,7,10,7,9,2
8.78,14,7,15,12,1,11,10,2
8.785,3,18,39,16,7,8,33,5
8.79,17,3,26,12,7,9,26,1
8.795,25,9,1,0,14,7,40,4
8.8,10,36,8,4,10,7,25,3
8.805,24,16,12,0,22,33,14,3
8.81,4,12,21,8,28,22,20,16
8.815,1,2,1,2,11,17,33,30
8.82,14,3,6,3,2,23,9,2
8.825,8,5,10,0,7,4,9,9
8.83,1,8,10,11,50,9,38,11
8.835,23,2,5,1,52,7,30,10
8.84,16,21,19,14,1,27,58,17
8.845,2,10,13,15,20,27,53,18
8.85,3,27,10,9,7,16,6,29
8.855,0,20,3,4,20,17,14,12
8.86,9,83,3,2,20,1,27,14
8.865,19,3,16,10,26,10,30,2
8.87,36,13,10,6,16,14,17,16
8.875,16,23,3,1,6,5,35,11
8.88,10,19,13,4,10,0,1,24
8.885,15,46,0,6,16,1,12,11
8.89,54,52,7,7,10,16,49,1
8.895,43,52,9,0,13,7,7,28
8.9,33,36,11,2,3,5,13,46
8.905,78,102,5,1,2,26,13,31
8.91,67,29,5,6,19,4,1,25
8.915,12,16,12,1,21,26,10,11
8.92,21,22,5,3,4,10,4,16
8.925,5,33,2,1,6,16,1,38
8.93,28,2,1,1,5,19,19,17
8.935,29,25,3,3,11,5,17,49
8.94,35,34,10,1,7,22,36,27
8.945,14,47,2,11,8,24,30,15
8.95,9,31,13,7,6,8,8,25
8.955,26,27,11,12,14,3,45,14
8.96,58,9,1,3,5,8,6,20
8.965,10,2,12,5,8,3,33,9
8.97,17,2,71,11,3,13,31,13
8.975,21,23,72,3,9,18,17,4
8.98,28,12,5,4,3,11,19,10
8.985,1,27,3,2,8,1,19,17
8.99,27,18,4,6,10,4,16,7
8.995,11,3,24,5,3,0,5,21
9,3,27,7,3,1,9,20,16
9.005,26,2,8,4,3,0,9,15
9.01,6,4,28,4,9,5,0,1
9.015,0,6,5,0,4,5,4,23
9.02,4,3,0,6,1,10,0,10
9.025,6,4,65,21,2,1,1,10
9.03,15,11,36,0,6,4,9,14
9.035,7,6,26,13,10,6,12,6
9.04,15,17,19,20,1,4,10,1
9.045,65,20,6,9,11,11,3,11
9.05,97,16,14,18,11,20,14,7
9.055,31,9,18,6,1,2,3,3
9.06,16,1,13,3,1,6,8,9
9.065,11,10,16,6,3,1,6,16
9.07,3,15,53,18,8,9,10,19
9.075,27,22,30,17,2,1,11,8
9.08,10,6,9,3,1,5,3,15
9.085,2,25,17,7,2,7,21,10
9.09,25,13,10,5,1,4,8,9
9.095,20,36,14,10,1,4,1,0
9.1,17,2,7,7,5,11,6,22
9.105,3,16,29,8,4,3,9,9
9.11,4,5,13,1,6,4,1,1
9.115,11,2,19,5,7,4,5,15
9.12,14,3,2,3,3,0,6,19
9.125,93,7,37,15,1,9,16,5
9.13,25,6,4,2,12,4,5,20
9.135,9,2,0,2,3,1,6,8
9.14,9,23,22,15,13,10,8,4
9.145,53,9,65,21,5,14,36,12
9.15,6,4,60,17,1,20,49,16
9.155,40,23,27,4,0,13,35,15
9.16,11,21,4,19,4,26,45,39
9.165,30,10,11,16,7,4,5,30
9.17,24,10,25,10,3,16,35,29
9.175,16,17,18,3,1,1,34,33
9.18,13,1,18,3,4,4,4,5
9.185,3,8,24,2,3,3,9,2
9.19,21,11,6,5,2,9,9,8
9.195,8,2,30,1,4,0,10,8
9.2,1,3,31,16,3,12,9,12
9.205,12,26,30,18,0,5,20,1
9.21,11,2,11,3,7,14,14,1
9.215,19,8,52,18,1,0,8,2
9.22,6,8,78,4,4,1,15,12
9.225,16,9,20,27,3,5,5,7
9.23,14,0,12,2,1,2,7,11
9.235,3,27,24,3,1,0,1,29
9.24,15,3,32,14,2,6,9,11
9.245,17,3,13,9,5,1,2,5
9.25,11,10,11,4,9,3,11,14
9.255,14,10,22,9,3,6,8,7
9.26,31,2,21,9,9,3,1,10
9.265,16,30,11,1,6,0,11,9
9.27,10,11,21,4,13,4,1,11
9.275,10,24,11,0,4,2,8,8
9.28,4,12,21,18,3,1,10,0
9.285,24,13,41,7,7,12,2,2
9.29,3,2,23,15,5,15,2,5
9.295,11,50,51,13,0,4,5,2
9.3,10,50,17,9,4,5,2,19
9.305,2,33,72,7,3,13,9,15
9.31,18,3,66,13,3,10,5,10
9.315,23,28,43,17,3,7,8,6
9.32,1,33,41,10,5,3,12,3
9.325,8,25,27,9,8,9,5,5
9.33,16,40,19,16,1,2,4,3
9.335,45,25,12,7,19,23,5,2
9.34,13,21,10,5,8,12,5,3
9.345,13,5,27,10,0,3,4,1
9.35,8,1,25,16,27,10,7,1
9.355,25,12,20,5,7,6,5,12
9.36,14,15,23,4,7,7,9,9
9.365,6,37,29,6,26,28,0,5
9.37,15,0,20,13,13,11,40,7
9.375,19,6,7,9,12,14,50,1
9.38,4,6,4,4,9,2,20,6
9.385,2,3,15,3,39,9,16,8
9.39,7,46,15,14,39,5,11,1
9.395,5,7,19,3,8,18,21,2
9.4,8,18,18,8,21,10,3,9
9.405,4,2,15,1,11,2,4,9
9.41,25,5,26,3,14,13,34,6
9.415,35,35,12,3,17,8,17,41
9.42,50,0,18,5,14,11,25,10
9.425,42,42,30,6,20,6,74,49
9.43,21,3,14,7,25,37,48,2
9.435,2,25,6,9,15,15,60,18
9.44,27,14,14,3,3,2,5,29
9.445,10,7,5,5,8,13,19,8
9.45,14,32,4,10,5,24,34,26
9.455,41,42,12,2,14,33,19,4
9.46,54,29,9,5,8,4,3,3
9.465,25,30,12,0,25,5,3,9
9.47,7,69,8,27,35,5,1,6
9.475,20,12,2,10,21,15,11,25
9.48,54,70,6,10,3,0,16,6
9.485,23,71,17,18,24,1,26,1
9.49,25,103,10,18,53,22,25,1
9.495,13,89,2,7,35,24,10,6
9.5,26,60,36,14,6,8,15,66
9.505,5,52,4,4,19,6,28,2
9.51,13,9,10,14,2,13,23,6
9.515,32,61,2,5,6,16,24,29
9.52,2,16,13,22,22,25,14,18
9.525,5,22,10,6,28,20,73,47
9.53,10,74,4,5,32,26,55,17
9.535,41,22,3,10,3,9,38,22
9.54,47,19,12,2,7,5,12,41
9.545,20,108,14,0,13,11,10,11
9.55,20,102,30,7,27,14,24,8
9.555,23,94,14,14,26,1,8,37
9.56,25,37,2,11,22,7,8,68
9.565,8,58,2,4,0,3,5,10
9.57,13,32,4,10,1,7,8,16
9.575,9,10,7,1,12,11,16,17
9.58,3,9,6,5,4,0,4,9
9.585,2,30,11,1,4,5,28,18
9.59,9,4,0,0,13,9,7,7
9.595,5,2,6,3,10,7,10,6
9.6,13,10,5,1,2,1,8,6
9.605,6,15,0,0,5,6,1,2
9.61,6,2,4,2,8,4,11,6
9.615,6,20,1,4,4,1,2,3
9.62,4,11,5,3,0,4,4,1
9.625,1,15,1,1,4,2,7,3
9.63,1,1,4,4,6,0,8,2
9.635,1,2,1,1,2,3,7,1
9.64,5,11,1,2,0,0,0,0
9.645,2,9,1,2,4,4,5,1
9.65,15,23,2,3,1,2,0,2
9.655,11,15,2,0,1,3,0,1
9.66,8,20,4,1,0,5,0,1
9.665,3,28,2,0,0,2,1,6
9.67,0,6,4,4,7,0,2,6
9.675,2,1,3,2,4,5,4,2
9.68,7,9,1,1,1,4,3,3
9.685,8,1,1,0,2,5,10,1
9.69,7,14,2,0,2,2,1,2
9.695,9,3,2,2,2,5,0,0
9.7,10,46,5,2,0,3,1,3
9.705,13,57,0,0,1,1,4,2
9.71,6,6,1,2,1,2,1,4
9.715,11,0,1,2,2,0,1,0
9.72,4,11,1,2,1,0,5,1
9.725,1,34,1,0,2,1,5,1
9.73,1,17,3,0,6,1,1,1
9.735,5,15,0,4,0,3,5,3
9.74,1,4,1,3,8,6,3,2
9.745,1,1,5,2,6,3,3,3
9.75,0,5,0,3,1,5,1,2
9.755,2,10,0,1,4,3,1,2
9.76,3,1,3,1,3,2,0,4
9.765,4,4,5,1,2,0,0,2
9.77,1,8,1,0,0,0,2,2
9.775,2,3,0,0,1,0,2,1
9.78,2,4,2,3,3,3,1,2
9.785,2,1,1,1,5,3,5,7
9.79,9,3,1,0,1,1,0,2
9.795,11,18,1,4,9,4,6,6
9.8,4,19,4,5,6,6,5,8
9.805,1,1,0,0,2,1,2,0
9.81,5,11,2,4,6,2,4,3
9.815,3,1,1,2,1,2,3,3
9.82,0,6,2,1,4,1,2,1
9.825,2,2,0,1,3,3,3,3
9.83,4,1,3,0,0,1,1,2
9.835,3,1,0,1,7,3,1,1
9.84,1,1,0,2,2,0,1,3
9.845,7,4,1,1,8,6,2,8
9.85,5,13,3,3,0,1,7,2
9.855,9,3,2,3,15,5,7,1
9.86,2,7,0,1,0,16,2,3
9.865,1,3,3,3,2,3,1,1
9.87,1,3,2,2,9,4,1,2
9.875,7,3,2,4,10,7,0,2
9.88,0,2,3,3,2,8,5,3
9.885,2,0,0,3,5,6,3,4
9.89,1,11,2,2,6,3,0,2
9.895,6,5,2,1,4,2,1,0
9.9,0,1,2,3,3,5,1,4
9.905,2,0,1,1,4,4,3,1
9.91,2,2,1,2,0,3,2,2
9.915,2,5,0,1,2,2,1,0
9.92,2,1,2,4,5,7,1,2
9.925,3,6,2,2,2,0,2,2
9.93,0,6,0,1,4,3,2,2
9.935,1,2,0,1,2,0,0,1
9.94,1,3,1,3,1,1,2,4
9.945,1,2,0,0,1,8,1,0
9.95,1,0,2,2,0,10,1,3
9.955,4,6,3,0,0,5,2,2
9.96,0,7,1,1,3,1,1,0
9.965,3,3,1,0,0,1,2,1
9.97,3,2,1,1,4,9,2,1
9.975,6,4,0,3,0,2,0,1
9.98,1,2,0,2,2,1,0,1
9.985,3,5,2,0,1,2,1,0
9.99,0,1,3,0,1,1,1,1
9.995,4,1,1,1,1,2,2,0
10,4,6,1,3,3,6,2,3
10.005,2,3,2,2,3,2,2,2
10.01,1,3,0,0,2,3,1,2
10.015,8,2,2,2,1,1,2,2
10.02,1,1,1,4,7,5,1,0
10.025,4,1,2,1,8,2,4,4
10.03,0,1,0,0,1,2,3,0
10.035,2,1,0,1,5,5,2,2
10.04,3,3,1,2,4,2,0,0
10.045,1,5,1,2,7,1,0,2
10.05,1,4,0,2,2,3,2,0
10.055,3,1,2,2,1,3,4,0
10.06,0,1,1,3,3,4,1,0
10.065,1,1,1,2,4,6,1,0
10.07,0,1,1,1,0,4,0,1
10.075,3,3,0,3,1,0,2,1
10.08,0,1,5,1,8,4,3,0
10.085,2,0,2,0,11,2,1,0
10.09,0,1,1,1,5,1,2,2
10.095,1,3,2,1,1,2,1,2
10.1,3,0,3,0,1,1,0,2
10.105,3,2,2,1,7,4,1,0
10.11,1,3,2,4,0,0,0,0
10.115,1,0,1,2,1,0,1,1
10.12,5,6,0,1,0,1,0,1
10.125,10,7,1,1,2,1,1,0
10.13,2,0,2,0,1,2,1,0
10.135,1,3,0,1,4,0,2,9
10.14,1,1,1,1,1,1,0,9
10.145,1,0,0,0,2,2,2,1
10.15,3,2,4,1,1,1,2,0
10.155,2,0,1,1,2,0,1,1
10.16,2,4,2,2,2,1,4,3
10.165,1,0,2,3,2,3,0,5
10.17,3,2,1,4,3,1,0,1
10.175,0,3,1,1,2,0,0,2
10.18,3,1,1,1,1,1,1,4
10.185,2,3,2,1,3,2,2,1
10.19,1,1,2,1,1,2,2,4
10.195,1,3,2,2,2,2,0,1
10.2,1,2,1,0,0,2,1,4
10.205,2,5,1,2,4,0,0,0
10.21,2,3,0,1,1,2,1,2
10.215,2,1,1,1,1,2,1,1
10.22,2,2,1,1,2,1,1,3
10.225,1,2,1,0,2,1,2,3
10.23,0,5,1,1,2,2,0,0
10.235,0,3,0,1,1,0,2,1
10.24,2,2,2,2,0,1,1,3
10.245,1,2,2,1,1,1,3,0
10.25,1,3,0,1,1,2,1,2
10.255,1,2,1,1,2,1,0,1
10.26,0,1,1,1,2,2,1,0
10.265,1,0,2,1,0,0,1,1
10.27,0,3,1,2,1,2,1,2
10.275,2,6,2,2,0,0,1,0
10.28,2,10,1,3,1,0,2,2
10.285,2,8,1,2,2,2,1,2
10.29,2,9,0,1,1,0,3,1
10.295,0,2,3,1,2,3,2,1
10.3,1,2,3,1,4,0,2,0
10.305,1,2,0,2,1,1,1,0
10.31,1,4,0,2,1,0,2,1
10.315,2,0,4,1,2,2,0,0
10.32,1,3,0,0,1,0,1,1
10.325,0,2,1,1,2,3,1,0
10.33,2,5,1,1,1,0,0,2
10.335,2,1,0,1,0,1,0,0
10.34,2,2,0,1,1,0,0,3
10.345,1,2,1,0,2,0,1,1
10.35,0,2,0,2,1,2,1,1
10.355,1,3,1,1,0,1,1,2
10.36,1,7,0,1,3,1,3,3
10.365,2,1,2,1,1,0,0,2
10.37,3,1,3,2,0,2,1,2
10.375,0,2,0,2,3,0,0,0
10.38,1,2,2,1,1,0,0,1
10.385,0,4,0,1,1,1,1,1
10.39,1,7,3,0,1,0,2,2
10.395,1,2,3,3,3,1,2,1
10.4,0,7,2,1,0,3,1,2
10.405,3,15,1,0,2,1,1,1
10.41,2,3,2,1,2,2,0,1
10.415,0,4,1,1,1,1,2,2
10.42,1,7,1,1,0,1,1,0
10.425,1,5,1,0,2,2,1,1
10.43,0,7,0,1,1,2,0,1
10.435,1,1,2,0,2,2,1,3
10.44,2,2,1,1,2,2,0,0
10.445,2,2,3,3,1,0,1,1
10.45,2,3,0,0,0,0,1,0
10.455,3,3,2,0,1,2,1,2
10.46,1,3,1,1,1,0,1,2
10.465,2,3,2,1,1,3,2,1
10.47,2,0,0,2,2,1,1,3
10.475,1,4,2,2,0,2,0,2
10.48,0,2,1,1,2,2,0,2
10.485,2,1,1,0,2,2,1,0
10.49,2,2,2,0,1,0,1,2
10.495,1,5,0,1,1,1,1,0
10.5,0,3,0,1,2,0,0,1
10.505,2,2,0,1,1,2,1,3
10.51,1,0,2,1,1,2,2,0
10.515,2,2,1,0,3,1,3,0
10.52,1,1,1,0,0,2,1,0
10.525,1,3,2,1,0,1,0,1
10.53,0,0,1,1,3,2,2,2
10.535,0,2,0,0,1,1,1,1
10.54,1,2,2,1,2,1,1,1
10.545,1,2,0,1,2,0,1,1
10.55,1,1,2,1,1,2,2,2
10.555,1,1,3,0,2,2,1,1
10.56,0,2,0,1,1,2,2,2
10.565,0,1,2,2,1,2,0,0
10.57,2,2,1,3,2,0,1,0
10.575,1,1,1,0,1,1,3,0
10.58,1,2,2,3,0,2,0,3
10.585,0,0,2,4,2,2,1,2
10.59,0,2,1,2,1,0,0,0
10.595,0,2,1,0,2,1,1,1
10.6,0,2,1,0,1,1,1,0
10.605,1,0,0,0,1,1,0,2
10.61,0,0,2,3,1,1,1,1
10.615,0,0,2,3,0,2,2,2
10.62,2,0,1,1,1,0,1,3
10.625,1,2,0,1,1,1,1,4
10.63,1,2,1,1,0,1,2,0
10.635,3,3,0,0,4,0,1,1
10.64,1,3,3,3,0,0,2,1
10.645,1,3,2,1,0,1,0,0
10.65,1,2,0,1,1,1,1,1
10.655,0,1,1,2,1,1,1,1
10.66,2,1,1,1,2,3,0,2
10.665,0,2,1,1,1,2,2,1
10.67,1,3,1,3,1,0,2,1
10.675,3,1,2,3,0,1,0,0
10.68,1,1,1,2,1,1,1,0
10.685,0,0,1,3,1,0,0,2
10.69,1,2,1,0,0,3,3,1
10.695,3,2,1,2,0,2,0,2
10.7,2,2,2,0,2,0,3,1
10.705,3,2,0,1,1,0,1,1
10.71,1,1,1,1,0,3,1,2
10.715,1,4,0,1,1,2,1,1
10.72,1,2,3,3,3,2,1,2
10.725,3,3,1,1,3,1,1,1
10.73,1,5,1,2,0,2,2,1
10.735,0,1,0,1,3,2,0,1
10.74,1,0,0,2,1,1,1,0
10.745,1,1,2,2,0,0,2,2
10.75,1,3,2,1,0,0,0,0
10.755,0,4,2,1,3,0,3,1
10.76,0,3,1,0,2,3,1,2
10.765,3,0,1,3,2,2,1,0
10.77,2,2,3,4,3,0,2,1
10.775,0,1,1,1,2,1,0,2
10.78,2,1,2,1,1,0,1,0
10.785,0,2,1,0,0,2,3,1
10.79,1,3,0,1,2,1,1,2
10.795,2,1,0,2,3,0,2,1
10.8,2,2,2,2,2,1,2,2
10.805,1,3,0,1,1,0,1,2
10.81,1,1,1,0,3,3,0,2
10.815,0,0,2,2,0,2,0,0
10.82,0,2,1,1,0,2,1,2
10.825,2,2,4,2,3,2,1,1
10.83,1,1,3,1,2,0,1,2
10.835,1,2,1,1,1,1,2,3
10.84,1,0,2,0,1,0,0,0
10.845,2,3,2,1,1,3,2,3
10.85,2,0,0,0,3,3,0,0
10.855,1,1,2,2,2,1,1,1
10.86,0,2,2,2,1,1,2,0
10.865,1,3,0,2,1,1,2,2
10.87,1,2,0,1,2,2,3,2
10.875,3,4,1,1,0,2,2,3
10.88,1,2,1,1,0,0,1,0
10.885,0,1,3,2,0,1,1,0
10.89,1,0,1,1,1,1,1,0
10.895,1,2,1,1,0,1,2,0
10.9,0,2,1,1,1,2,1,1
10.905,1,0,1,1,3,2,1,1
10.91,1,1,2,2,1,0,2,0
10.915,0,0,1,1,1,1,1,2
10.92,1,1,3,2,3,2,2,2
10.925,1,3,1,2,1,0,1,2
10.93,2,1,2,3,0,2,2,1
10.935,1,3,1,1,1,0,0,0
10.94,1,0,2,2,0,1,2,3
10.945,2,2,1,1,2,0,1,0
10.95,1,2,1,0,1,0,0,1
10.955,0,2,1,1,1,1,1,1
10.96,1,4,2,2,3,2,2,0
10.965,1,1,0,0,1,2,0,4
10.97,0,3,1,0,0,2,2,1
10.975,1,3,1,1,2,0,0,0
10.98,1,0,1,1,2,0,1,1
10.985,4,2,2,2,0,1,2,0
10.99,3,1,3,2,1,0,1,1
10.995,1,0,1,0,1,3,1,2
11,1,3,1,0,2,1,1,0
11.005,1,1,2,1,0,3,0,3
11.01,0,1,3,3,1,0,1,1
11.015,2,1,1,2,2,0,2,0
11.02,1,3,0,2,1,1,1,1
11.025,0,1,0,3,1,2,1,0
11.03,2,3,1,1,2,0,1,1
11.035,3,3,2,3,2,2,3,1
11.04,2,1,0,1,2,2,0,2
11.045,0,2,1,1,0,2,3,0
11.05,0,4,1,3,0,2,2,1
11.055,1,2,2,1,0,3,0,2
11.06,1,2,2,0,2,1,1,1
11.065,1,4,2,1,1,0,0,3
11.07,1,0,0,1,1,1,0,1
11.075,1,2,3,1,2,2,2,0
11.08,2,2,1,1,1,3,2,2
11.085,0,1,1,1,0,0,0,0
11.09,1,1,2,1,1,1,2,2
11.095,3,1,3,2,1,0,1,3
11.1,2,3,2,1,0,1,2,2
11.105,2,3,2,1,3,0,1,0
11.11,1,2,1,2,0,0,1,3
11.115,2,1,2,0,1,1,1,0
11.12,2,1,1,1,2,2,1,1
11.125,1,2,1,1,1,1,2,1
11.13,1,1,1,2,2,2,1,2
11.135,0,2,1,2,2,0,2,0
11.14,1,0,1,0,1,2,1,0
11.145,0,1,3,0,0,0,1,1
11.15,0,2,1,1,1,0,1,1
11.155,1,1,0,3,0,2,1,4
11.16,1,0,2,1,2,1,2,3
11.165,3,2,0,3,1,1,1,2
11.17,0,2,2,1,0,0,0,2
11.175,0,1,0,2,1,1,0,1
11.18,2,0,2,2,1,0,3,0
11.185,1,1,1,2,1,1,3,3
11.19,2,2,2,2,2,2,1,1
11.195,2,0,2,1,3,1,1,1
11.2,2,1,2,1,3,1,0,0
11.205,0,1,1,1,2,1,2,0
11.21,1,2,3,2,0,2,1,3
11.215,2,1,2,2,2,0,0,0
11.22,1,2,0,0,1,1,2,1
11.225,1,1,1,1,0,0,1,0
11.23,2,1,1,1,2,1,2,1
11.235,1,0,1,0,1,1,0,2
11.24,0,1,3,0,0,2,1,2
11.245,0,0,0,1,3,0,0,2
11.25,1,1,2,1,2,2,1,1
11.255,0,2,0,1,2,1,1,0
11.26,1,1,1,2,1,1,0,2
11.265,1,0,1,1,1,2,0,1
11.27,1,3,0,4,0,0,1,1
11.275,2,3,1,0,2,1,2,1
11.28,1,4,0,1,2,0,1,1
11.285,1,1,1,0,1,3,2,3
11.29,4,1,0,3,3,1,0,2
11.295,1,3,0,3,0,0,2,1
11.3,1,0,1,2,3,0,0,2
11.305,4,2,2,3,1,1,1,1
11.31,2,1,0,0,2,2,2,1
11.315,0,3,1,2,1,1,2,3
11.32,2,1,0,1,2,1,1,0
11.325,0,2,2,2,0,1,0,1
11.33,0,1,0,0,1,1,2,1
11.335,0,3,1,1,1,1,1,0
11.34,1,2,2,0,1,1,2,1
11.345,3,2,1,0,1,1,1,0
11.35,2,4,2,1,2,1,2,1
11.355,1,3,1,2,3,1,1,1
11.36,1,3,3,2,0,1,2,2
11.365,1,3,2,0,1,2,0,1
11.37,1,1,1,2,0,1,1,1
11.375,2,1,0,1,0,2,1,1
11.38,0,3,3,1,3,2,1,2
11.385,3,2,1,1,0,1,2,1
11.39,0,2,1,2,0,0,1,0
11.395,1,2,1,2,0,1,1,2
11.4,1,2,1,2,0,2,1,1
11.405,0,4,1,2,1,0,1,1
11.41,3,4,1,1,1,1,0,1
11.415,2,1,1,1,0,0,0,1
11.42,2,2,2,1,1,1,1,1
11.425,1,4,4,1,2,2,4,1
11.43,1,2,4,0,1,1,1,3
11.435,1,4,10,1,0,1,2,1
11.44,3,1,10,1,1,0,2,1
11.445,2,3,0,2,0,0,1,1
11.45,0,2,1,3,0,2,1,1
11.455,0,1,0,0,3,2,2,0
11.46,0,1,1,0,1,3,0,1
11.465,1,4,2,9,2,0,1,1
11.47,1,7,4,5,4,3,3,2
11.475,1,3,4,1,2,1,0,2
11.48,0,4,6,9,1,0,2,1
11.485,2,1,17,8,3,3,1,1
11.49,0,2,4,2,1,0,1,1
11.495,3,3,5,2,1,1,3,0
11.5,1,1,3,0,0,5,0,2
11.505,1,1,8,1,2,4,1,1
11.51,1,0,3,2,2,0,2,2
11.515,2,4,62,13,3,2,3,1
11.52,1,3,2,1,1,1,1,3
11.525,1,3,4,2,2,2,1,1
11.53,2,0,8,9,2,2,0,0
11.535,0,4,14,3,3,3,1,1
11.54,1,6,2,5,3,1,3,1
11.545,1,3,9,5,3,0,0,0
11.55,2,1,13,6,2,2,0,0
11.555,2,3,18,13,2,2,2,4
11.56,3,0,7,3,0,0,2,1
11.565,1,6,19,8,4,7,6,4
11.57,10,6,16,10,3,2,3,4
11.575,4,18,11,5,4,1,3,1
11.58,0,13,71,20,3,3,4,3
11.585,5,16,5,5,3,1,0,3
11.59,4,2,10,2,1,0,3,1
11.595,1,2,6,1,2,0,0,2
11.6,4,12,0,6,3,2,3,4
11.605,2,0,16,11,3,1,3,1
11.61,2,2,12,30,3,3,1,1
11.615,2,1,22,37,2,2,1,1
11.62,1,1,27,22,5,0,2,1
11.625,2,9,3,8,3,2,4,3
11.63,0,2,9,12,2,2,1,2
11.635,2,10,2,11,6,0,2,1
11.64,5,4,25,2,3,2,0,2
11.645,3,12,24,10,3,1,0,2
11.65,0,8,4,5,6,5,4,3
11.655,1,2,15,4,7,1,1,0
11.66,0,5,15,3,2,1,1,2
11.665,3,3,1,16,2,0,0,0
11.67,3,6,10,25,4,2,2,1
11.675,3,5,4,17,4,1,1,2
11.68,2,6,1,3,2,1,0,0
11.685,5,9,0,18,6,1,1,2
11.69,4,11,12,22,2,6,5,0
11.695,2,4,6,14,1,4,1,1
11.7,1,2,2,18,4,1,1,1
11.705,2,3,1,12,1,4,2,2
11.71,1,4,8,6,1,1,4,3
11.715,3,0,5,2,9,1,0,0
11.72,3,6,3,2,11,0,0,1
11.725,1,5,12,17,2,0,0,0
11.73,1,3,28,28,8,3,2,2
11.735,1,7,10,7,1,2,4,3
11.74,5,12,0,7,2,1,1,3
11.745,4,25,7,6,5,1,3,1
11.75,1,3,19,45,4,0,1,1
11.755,4,9,29,35,2,2,1,0
11.76,4,4,25,13,1,1,1,0
11.765,1,6,11,7,6,2,1,0
11.77,0,2,17,6,3,2,2,1
11.775,7,24,5,2,1,5,4,3
11.78,3,8,11,20,7,1,1,3
11.785,3,10,7,16,2,1,2,1
11.79,2,9,16,28,3,1,3,0
11.795,1,3,4,1,1,0,2,2
11.8,3,4,26,20,4,3,2,2
11.805,1,2,62,31,2,0,0,2
11.81,2,3,14,5,2,3,3,1
11.815,2,4,40,8,6,5,4,0
11.82,4,17,69,25,7,2,2,1
11.825,3,12,49,11,4,0,1,2
11.83,1,1,26,13,2,1,1,2
11.835,12,20,50,14,4,2,2,1
11.84,1,3,53,5,0,3,5,2
11.845,1,7,8,36,1,1,3,1
11.85,10,14,47,41,7,9,7,7
11.855,1,1,0,5,8,2,1,2
11.86,7,15,57,48,29,2,1,0
11.865,4,2,67,19,23,4,5,7
11.87,4,13,11,30,24,4,2,1
11.875,5,1,57,45,11,4,0,0
11.88,18,30,27,14,6,0,1,5
11.885,4,1,28,19,4,0,3,3
11.89,2,18,62,23,13,4,2,0
11.895,2,2,5,3,2,1,4,3
11.9,0,4,14,22,2,2,0,1
11.905,0,12,41,26,0,0,0,5
11.91,0,4,13,44,0,2,3,1
11.915,8,10,19,40,3,3,4,1
11.92,7,15,17,6,12,1,2,0
11.925,4,10,26,0,10,1,3,5
11.93,2,1,1,6,1,3,2,0
11.935,5,12,31,22,0,0,0,1
11.94,3,0,27,41,12,3,1,3
11.945,4,1,32,13,1,3,2,2
11.95,8,26,61,24,7,7,3,0
11.955,5,1,38,18,1,1,1,4
11.96,5,2,28,35,4,3,2,1
11.965,1,7,58,12,1,2,1,1
11.97,1,32,47,32,6,4,5,5
11.975,2,2,23,17,2,0,2,2
11.98,2,8,7,4,2,1,4,2
11.985,3,11,30,8,1,0,7,4
11.99,1,19,1,5,0,3,8,1
11.995,4,33,10,23,7,5,5,5
12,1,28,18,40,5,1,7,6
12.005,7,17,65,89,5,0,0,6
12.01,0,2,33,17,5,3,1,1
12.015,3,25,20,89,14,0,0,2
12.02,6,10,26,93,10,7,13,4
12.025,6,0,7,59,26,7,1,3
12.03,3,4,33,12,12,9,9,8
12.035,10,10,30,60,31,7,3,0
12.04,7,25,57,9,4,6,5,4
12.045,3,2,66,23,9,6,2,2
12.05,3,10,1,9,5,3,3,1
12.055,13,31,13,55,1,10,10,5
12.06,1,10,53,51,16,3,9,2
12.065,0,21,45,7,5,7,2,2
12.07,4,11,6,40,23,5,3,2
12.075,6,27,4,49,16,3,1,5
12.08,0,33,11,4,8,2,0,1
12.085,2,12,29,4,5,1,3,1
12.09,1,15,20,22,15,8,1,1
12.095,1,15,16,28,13,2,2,2
12.1,0,21,40,37,10,2,2,1
12.105,7,30,17,46,14,1,1,2
12.11,2,1,10,10,10,6,4,5
12.115,2,16,53,26,26,10,6,2
12.12,4,24,32,14,13,12,8,1
12.125,1,13,20,11,9,3,1,0
12.13,1,4,18,18,5,2,5,3
12.135,8,9,4,11,9,3,17,3
12.14,1,14,13,33,2,3,7,8
12.145,0,20,72,51,11,3,9,0
12.15,1,2,30,17,2,7,9,3
12.155,5,1,3,17,3,13,17,9
12.16,9,17,35,24,3,1,5,1
12.165,20,46,50,47,0,2,5,6
12.17,3,4,3,25,5,0,7,2
12.175,5,4,75,19,2,7,3,0
12.18,17,45,16,29,14,20,14,11
12.185,11,39,114,4,16,7,4,4
12.19,7,32,54,46,33,7,4,6
12.195,4,9,43,3,14,3,10,5
12.2,7,23,47,107,1,1,4,0
12.205,3,20,33,33,18,5,2,5
12.21,6,0,47,13,10,0,1,5
12.215,11,24,15,2,24,10,3,1
12.22,6,7,48,88,47,10,1,0
12.225,4,6,85,68,8,7,4,2
12.23,3,5,30,4,32,9,2,0
12.235,10,50,28,39,21,8,4,5
12.24,0,35,24,17,33,8,7,2
12.245,8,54,13,66,23,8,2,6
12.25,3,8,36,30,20,4,1,2
12.255,7,37,21,31,16,2,3,4
12.26,13,37,12,49,6,4,6,10
12.265,3,13,67,43,10,0,4,1
12.27,12,43,30,33,33,15,11,11
12.275,3,10,10,93,27,4,6,6
12.28,8,4,67,56,43,16,12,6
12.285,9,39,69,16,14,9,7,4
12.29,3,20,22,67,5,1,7,2
12.295,9,37,45,1,6,1,0,5
12.3,10,32,69,11,23,3,2,3
12.305,15,12,30,77,2,10,13,12
12.31,6,31,32,19,13,3,3,1
12.315,0,15,74,61,6,0,1,1
12.32,0,9,60,82,1,0,3,0
12.325,4,16,50,57,4,2,5,4
12.33,4,11,24,6,22,2,8,3
12.335,4,12,6,11,18,3,2,1
12.34,4,4,13,10,8,4,1,2
12.345,1,5,3,12,11,1,2,0
12.35,1,12,8,27,3,3,3,3
12.355,1,5,6,9,4,1,3,1
12.36,4,2,23,39,4,0,2,1
12.365,8,37,100,81,14,3,1,4
12.37,3,6,10,14,3,3,1,1
12.375,1,12,47,69,8,3,4,1
12.38,1,1,38,16,7,2,0,0
12.385,3,11,5,9,3,6,7,3
12.39,1,8,34,24,8,1,9,3
12.395,2,6,19,48,4,1,2,0
12.4,5,12,11,1,8,4,0,3
12.405,6,17,29,39,14,5,3,0
12.41,2,4,11,1,9,2,8,3
12.415,4,4,30,46,7,1,3,4
12.42,1,2,19,20,9,2,3,2
12.425,3,4,62,15,4,3,0,1
12.43,3,12,19,17,3,7,15,3
12.435,1,9,10,12,6,4,9,1
12.44,4,5,49,12,0,1,1,1
12.445,7,7,31,18,8,3,2,2
12.45,1,3,3,8,3,2,4,2
12.455,1,1,11,14,2,5,6,2
12.46,0,6,3,22,5,1,4,1
12.465,0,12,4,14,3,1,1,2
12.47,4,18,54,14,3,1,5,6
12.475,2,1,9,3,2,0,3,3
12.48,6,4,36,5,5,3,1,7
12.485,2,1,45,12,3,1,2,2
12.49,0,2,30,31,0,6,5,2
12.495,2,6,32,39,4,3,1,1
12.5,7,10,4,3,5,2,9,5
12.505,1,4,8,1,1,2,3,1
12.51,0,5,37,19,4,1,3,1
12.515,0,6,4,11,2,6,10,1
12.52,4,19,25,22,7,1,6,0
12.525,1,5,1,10,4,2,6,1
12.53,2,4,22,1,5,5,3,4
12.535,3,5,16,12,4,4,4,1
12.54,4,2,3,15,4,0,7,9
12.545,4,1,22,6,3,7,19,8
12.55,11,7,4,3,4,0,7,6
12.555,9,3,32,11,3,3,32,20
12.56,3,1,23,5,3,1,8,6
12.565,1,0,5,5,3,0,4,2
12.57,2,7,11,3,1,2,15,5
12.575,2,7,34,33,3,1,6,6
12.58,14,17,18,3,3,0,4,3
12.585,1,1,2,3,2,1,1,1
12.59,1,3,13,6,3,2,3,3
12.595,1,4,21,10,1,2,3,1
12.6,2,6,45,1,2,3,3,5
12.605,2,2,7,7,2,3,1,13
12.61,1,2,4,0,3,1,1,2
12.615,4,6,9,18,7,2,6,2
12.62,5,10,42,6,1,4,4,1
12.625,2,2,10,23,6,2,4,2
12.63,3,21,15,5,1,3,2,2
12.635,0,6,76,32,4,3,8,3
12.64,1,12,9,7,0,0,1,4
12.645,3,8,20,12,4,2,5,5
12.65,9,4,22,5,3,3,3,2
12.655,7,9,16,12,2,1,1,4
12.66,10,0,11,8,1,3,2,2
12.665,14,6,12,2,2,2,1,1
12.67,2,3,5,2,3,1,3,3
12.675,4,4,14,1,1,2,4,5
12.68,1,4,5,7,0,0,1,1
12.685,4,3,1,9,2,4,3,1
12.69,0,8,34,16,1,0,1,0
12.695,5,7,1,15,6,4,2,4
12.7,1,20,24,31,1,0,0,1
12.705,11,9,9,2,7,3,3,3
12.71,2,3,25,9,2,3,2,2
12.715,3,9,27,19,1,1,1,2
12.72,4,12,11,29,1,1,3,3
12.725,3,6,15,1,0,4,3,3
12.73,5,8,10,5,1,4,0,4
12.735,0,4,5,0,2,4,8,2
12.74,9,23,46,26,6,5,3,3
12.745,3,5,1,1,0,2,0,3
12.75,0,1,4,4,6,5,3,2
12.755,1,4,26,17,2,0,3,4
12.76,4,15,31,63,10,4,2,0
12.765,3,3,20,15,2,1,0,0
12.77,3,10,3,3,2,3,2,2
12.775,4,8,6,0,1,0,2,3
12.78,3,13,43,17,3,3,2,1
12.785,4,8,3,6,7,4,1,2
12.79,12,26,19,19,3,3,1,5
12.795,4,12,5,8,2,2,2,3
12.8,2,3,38,18,3,1,0,1
12.805,2,21,58,39,1,0,1,0
12.81,0,4,9,12,1,2,1,1
12.815,1,3,43,23,5,2,3,5
12.82,1,1,51,55,6,7,2,4
12.825,2,6,23,44,0,3,5,3
12.83,2,4,9,28,3,0,1,2
12.835,2,19,82,12,10,6,6,5
12.84,8,15,56,37,6,8,4,0
12.845,9,13,12,2,1,0,1,4
12.85,3,7,34,1,2,2,4,1
12.855,4,12,4,9,5,2,0,2
12.86,0,2,22,25,1,0,3,2
12.865,8,17,13,15,3,5,3,2
12.87,0,6,21,5,3,1,3,0
12.875,2,4,9,10,0,3,1,1
12.88,7,2,21,19,6,7,1,1
12.885,6,13,27,20,12,4,0,0
12.89,7,14,73,76,0,5,1,0
12.895,2,0,40,31,3,2,2,1
12.9,6,11,10,10,1,3,3,0
12.905,3,8,8,15,10,3,2,3
12.91,4,5,56,77,7,2,2,4
12.915,13,17,12,7,8,2,4,6
12.92,5,24,69,63,6,0,3,1
12.925,2,10,68,67,10,5,5,0
12.93,5,23,28,22,9,3,3,3
12.935,5,22,70,24,3,5,2,1
12.94,14,61,100,94,28,15,4,7
12.945,1,12,78,36,9,5,3,3
12.95,3,28,6,7,2,6,1,2
12.955,1,4,58,27,5,5,3,4
12.96,5,3,69,23,1,3,3,0
12.965,1,3,11,3,1,4,3,3
12.97,3,25,34,2,4,3,2,2
12.975,1,3,10,19,5,1,1,3
12.98,13,32,14,27,11,0,5,5
12.985,13,10,89,78,2,2,8,9
12.99,3,9,7,11,12,6,9,4
12.995,3,14,10,3,1,1,3,2
13,0,5,69,24,1,1,2,3
13.005,1,6,13,22,3,5,0,1
13.01,6,13,15,17,2,2,2,2
13.015,4,8,18,5,7,5,7,1
13.02,3,12,33,1,10,8,5,1
13.025,1,7,6,7,4,3,7,4
13.03,7,26,7,23,7,7,7,1
13.035,13,29,44,57,6,0,3,5
13.04,4,13,95,79,22,5,4,2
13.045,5,8,23,10,14,3,4,6
13.05,3,2,5,16,11,4,4,1
13.055,3,11,18,26,1,5,7,2
13.06,2,2,46,13,8,3,1,1
13.065,4,3,10,4,9,3,12,5
13.07,3,3,28,24,3,2,3,1
13.075,2,5,4,25,9,4,3,4
13.08,2,13,37,11,3,2,4,4
13.085,3,5,12,10,8,1,2,2
13.09,1,4,10,7,4,3,1,1
13.095,1,0,1,8,18,11,7,1
13.1,2,8,13,23,8,1,2,4
13.105,4,8,22,12,6,1,2,0
13.11,5,9,9,27,11,2,1,2
13.115,2,1,0,3,17,5,5,0
13.12,0,3,19,25,4,4,3,1
13.125,1,3,5,13,13,4,6,1
13.13,5,4,1,29,8,1,2,4
13.135,1,1,11,16,1,5,5,2
13.14,2,2,5,8,1,1,2,2
13.145,1,7,4,0,4,0,2,1
13.15,1,9,2,8,5,0,0,0
13.155,0,1,1,4,7,7,2,1
13.16,3,7,1,16,24,7,7,2
13.165,1,3,29,4,29,13,4,4
13.17,2,2,3,29,33,9,4,0
13.175,1,5,1,3,2,0,0,1
13.18,1,10,2,2,8,3,5,2
13.185,2,6,1,1,4,3,2,1
13.19,3,2,4,8,14,0,2,0
13.195,2,4,9,7,8,1,2,3
13.2,2,1,11,3,5,1,0,1
13.205,2,1,12,24,2,4,4,3
13.21,1,5,38,59,8,0,0,1
13.215,1,1,25,3,5,3,2,1
13.22,2,1,2,7,6,4,0,3
13.225,0,0,5,13,1,1,2,0
13.23,1,5,5,4,10,7,9,1
13.235,2,6,9,8,1,0,2,2
13.24,2,4,12,16,6,1,2,0
13.245,2,5,10,25,28,4,0,2
13.25,2,6,16,6,13,4,0,1
13.255,0,1,22,20,6,5,1,2
13.26,3,28,7,16,2,2,7,6
13.265,1,9,6,8,13,3,0,1
13.27,2,24,11,14,16,6,9,5
13.275,0,12,4,11,9,3,3,3
13.28,1,7,20,13,1,1,0,1
13.285,2,41,35,5,20,5,2,0
13.29,0,11,5,3,13,5,2,0
13.295,2,11,18,26,11,1,3,0
13.3,3,14,6,25,9,3,4,2
13.305,4,65,9,0,8,2,6,0
13.31,2,57,14,7,1,8,20,5
13.315,5,3,7,31,3,2,2,4
13.32,4,52,4,11,16,7,5,5
13.325,6,15,6,13,17,7,4,5
13.33,1,7,5,35,24,7,2,1
13.335,1,27,23,83,26,1,5,5
13.34,3,19,10,26,34,8,2,1
13.345,2,28,8,25,15,3,3,0
13.35,1,19,8,2,5,2,5,2
13.355,3,15,26,37,31,6,1,1
13.36,2,19,15,27,36,13,5,1
13.365,0,16,0,31,18,5,1,3
13.37,1,5,10,4,16,7,6,1
13.375,2,4,3,2,11,4,0,0
13.38,3,10,11,3,11,6,3,1
13.385,3,5,14,3,29,19,7,1
13.39,2,14,4,7,20,7,7,3
13.395,3,6,0,59,46,9,2,2
13.4,3,4,8,76,46,14,5,3
13.405,0,24,10,18,26,4,1,0
13.41,1,4,11,13,25,11,10,3
13.415,2,3,5,6,13,0,0,1
13.42,2,5,11,9,20,7,1,0
13.425,1,1,9,59,21,13,4,1
13.43,2,22,2,45,26,9,5,2
13.435,2,10,5,29,14,10,2,3
13.44,3,14,12,23,33,25,2,1
13.445,1,19,2,19,11,18,1,4
13.45,2,5,15,62,22,6,1,2
13.455,0,16,13,7,13,2,2,1
13.46,0,15,6,71,45,3,3,2
13.465,2,4,1,52,13,1,7,2
13.47,3,34,8,37,37,8,3,1
13.475,3,16,0,23,30,8,4,2
13.48,2,10,2,9,7,11,4,3
13.485,0,25,0,16,19,12,2,1
13.49,0,1,4,23,18,27,3,1
13.495,0,2,1,33,19,1,1,2
13.5,2,14,4,6,13,4,2,0
13.505,3,14,3,19,15,15,4,2
13.51,3,1,4,12,18,24,4,5
13.515,3,2,5,2,13,26,4,1
13.52,2,7,3,29,40,8,1,0
13.525,1,20,7,65,91,19,6,2
13.53,4,12,2,32,25,10,3,3
13.535,1,7,1,4,8,2,4,1
13.54,2,13,4,8,15,4,4,4
13.545,2,1,1,18,47,6,0,1
13.55,1,2,3,6,27,4,3,0
13.555,1,7,3,9,15,15,3,2
13.56,1,8,5,42,38,4,2,1
13.565,0,0,2,17,9,14,1,2
13.57,2,4,4,0,5,4,2,1
13.575,0,3,2,14,22,4,1,0
13.58,2,3,2,7,9,9,3,1
13.585,1,6,3,6,8,1,1,2
13.59,1,14,3,13,9,1,1,0
13.595,1,4,1,2,0,4,0,1
13.6,2,13,4,28,17,3,3,0
13.605,2,14,1,13,14,6,3,3
13.61,2,4,2,13,7,0,3,2
13.615,4,1,2,14,8,0,0,1
13.62,2,9,3,15,5,2,2,1
13.625,4,4,2,10,13,3,0,2
13.63,4,6,1,2,1,5,5,5
13.635,1,6,2,7,1,1,0,0
13.64,2,6,1,19,12,1,3,1
13.645,1,3,4,9,4,7,4,0
13.65,3,22,1,4,0,1,2,0
13.655,2,4,2,3,3,0,1,4
13.66,3,15,0,6,8,4,2,1
13.665,0,4,1,3,9,6,2,2
13.67,0,6,5,2,2,2,4,5
13.675,3,4,0,2,6,3,4,3
13.68,9,10,1,2,2,1,1,8
13.685,6,8,2,3,0,0,1,11
13.69,4,17,0,7,3,1,2,1
13.695,0,1,4,2,1,1,0,1
13.7,10,13,3,1,0,1,3,6
13.705,6,3,5,1,1,1,0,6
13.71,11,3,6,2,3,0,1,5
13.715,11,17,10,2,3,1,2,1
13.72,1,1,6,1,1,2,2,4
13.725,7,8,1,0,1,2,1,8
13.73,5,6,3,2,0,0,1,7
13.735,1,4,8,1,1,0,0,7
13.74,6,2,2,0,2,2,1,4
13.745,2,2,4,0,0,1,1,1
13.75,2,10,2,3,1,1,2,0
13.755,3,1,9,2,1,0,2,4
13.76,3,5,1,3,1,2,2,2
13.765,0,2,6,1,1,1,0,5
13.77,5,8,3,0,2,1,1,0
13.775,1,0,0,1,1,2,2,0
13.78,1,3,10,2,2,0,0,1
13.785,1,6,22,2,1,1,0,3
13.79,1,17,1,4,1,0,1,2
13.795,3,7,2,2,4,2,1,0
13.8,1,6,2,3,2,1,1,1
13.805,1,6,3,4,2,1,0,4
13.81,1,5,10,0,1,2,3,1
13.815,4,3,4,2,1,0,0,0
13.82,4,6,1,2,1,1,2,1
13.825,4,2,2,6,1,1,1,0
13.83,3,3,3,0,0,2,1,3
13.835,1,0,14,1,1,0,1,2
13.84,4,0,10,2,0,0,1,3
13.845,1,10,5,4,3,2,1,1
13.85,1,10,5,2,1,1,0,10
13.855,5,9,2,2,2,2,3,32
13.86,6,2,4,4,2,4,2,17
13.865,5,2,2,2,0,1,2,0
13.87,5,8,6,1,3,3,1,8
13.875,3,7,6,4,2,0,1,5
13.88,8,7,22,0,1,1,0,7
13.885,1,18,37,4,1,3,4,2
13.89,31,9,6,1,2,1,0,1
13.895,35,1,6,3,1,3,1,1
13.9,2,7,5,1,2,1,1,5
13.905,2,8,5,1,3,1,0,5
13.91,1,9,5,1,4,4,2,8
13.915,4,19,9,2,1,0,0,11
13.92,7,11,17,7,3,3,0,9
13.925,2,7,12,1,0,1,3,7
13.93,8,16,43,4,0,2,1,3
13.935,12,10,43,4,1,3,2,4
13.94,9,10,7,2,0,2,2,6
13.945,3,20,10,4,1,1,0,8
13.95,2,4,16,2,1,2,3,6
13.955,6,13,11,2,1,1,2,5
13.96,5,0,9,6,2,2,1,2
13.965,3,16,11,3,1,1,0,4
13.97,3,17,12,2,2,3,2,2
13.975,6,11,17,8,3,2,2,5
13.98,16,34,28,6,0,3,3,1
13.985,7,2,36,4,1,0,0,5
13.99,11,8,110,46,4,6,5,2
13.995,1,4,47,28,1,1,2,1
14,4,49,57,6,3,2,1,7
14.005,9,2,45,8,3,6,4,14
14.01,5,5,41,0,2,2,3,32
14.015,2,18,11,21,2,0,1,3
14.02,36,7,39,12,3,0,2,2
14.025,13,76,20,7,5,3,1,1
14.03,24,110,2,15,3,4,5,9
14.035,15,12,51,13,2,2,1,1
14.04,0,21,21,1,1,1,3,8
14.045,6,10,14,19,5,2,0,6
14.05,3,2,16,47,2,1,2,1
14.055,21,80,81,28,3,5,4,4
14.06,6,93,22,3,0,5,4,7
14.065,4,9,81,6,4,2,2,13
14.07,9,51,47,10,1,3,7,4
14.075,9,29,8,1,1,0,1,9
14.08,17,42,66,6,5,1,1,12
14.085,44,95,56,22,5,13,12,48
14.09,7,39,14,4,3,2,2,8
14.095,2,28,62,5,6,1,0,8
14.1,7,11,3,6,9,0,7,20
14.105,10,20,42,0,1,1,4,8
14.11,3,44,1,4,7,3,2,15
14.115,19,17,7,2,3,2,4,1
14.12,9,44,5,10,8,2,1,8
14.125,12,42,27,13,4,0,3,0
14.13,18,38,54,5,1,5,2,25
14.135,18,59,84,8,0,0,1,4
14.14,7,19,45,15,3,2,0,3
14.145,2,23,25,6,3,2,2,6
14.15,24,47,22,0,0,1,1,12
14.155,16,39,8,0,2,1,0,2
14.16,24,34,10,1,4,2,0,7
14.165,4,24,53,4,2,3,2,8
14.17,17,12,10,2,0,1,1,3
14.175,4,6,28,1,3,2,2,2
14.18,15,5,12,1,1,0,3,7
14.185,15,13,24,2,2,4,2,11
14.19,18,5,40,5,1,1,0,2
14.195,8,18,6,2,0,2,1,9
14.2,7,3,12,3,0,1,0,5
14.205,16,9,10,4,3,1,2,4
14.21,13,15,0,2,1,2,5,14
14.215,6,5,22,6,1,2,3,4
14.22,3,17,3,2,3,0,1,2
14.225,7,10,25,4,1,2,2,0
14.23,25,13,22,2,3,4,2,9
14.235,0,16,21,2,1,1,1,5
14.24,11,5,12,5,4,3,2,14
14.245,2,26,16,0,1,1,1,5
14.25,18,11,2,4,1,1,1,10
14.255,12,5,9,2,4,1,1,13
14.26,4,2,8,2,2,3,2,4
14.265,3,22,25,1,1,2,2,4
14.27,15,4,5,1,1,1,3,1
14.275,4,0,26,2,3,2,1,13
14.28,4,16,13,1,3,2,2,4
14.285,12,2,35,1,1,4,0,13
14.29,5,4,22,2,1,1,2,1
14.295,4,7,10,0,0,1,2,1
14.3,3,9,8,1,1,1,1,0
14.305,6,3,9,6,1,2,0,4
14.31,10,4,7,5,5,2,6,11
14.315,21,16,10,4,0,2,6,33
14.32,7,5,13,3,0,2,4,2
14.325,23,18,20,5,1,2,0,7
14.33,5,16,65,8,0,2,2,13
14.335,0,9,5,4,2,1,1,5
14.34,7,6,4,3,2,4,0,0
14.345,8,10,36,1,3,1,1,2
14.35,11,16,9,1,1,2,2,9
14.355,8,25,22,5,2,1,0,3
14.36,7,19,9,4,0,2,1,1
14.365,8,2,0,9,1,1,1,3
14.37,11,0,2,30,5,2,2,1
14.375,6,2,5,6,2,7,6,2
14.38,4,31,19,8,2,1,2,3
14.385,16,3,15,10,2,2,1,4
14.39,4,20,9,4,3,1,4,9
14.395,13,64,17,6,5,6,3,8
14.4,9,4,9,4,4,0,1,3
14.405,14,10,20,10,3,5,6,0
14.41,6,11,49,4,2,3,2,0
14.415,11,8,10,5,0,2,4,4
14.42,2,7,0,1,5,3,3,6
14.425,3,2,3,13,1,1,1,1
14.43,9,20,6,12,0,5,4,2
14.435,22,5,8,33,8,2,1,3
14.44,15,9,34,67,11,5,5,5
14.445,7,11,18,40,2,3,0,5
14.45,32,11,9,45,3,1,2,9
14.455,7,23,29,84,15,1,4,4
14.46,19,8,7,29,9,1,2,10
14.465,31,3,2,5,16,6,2,5
14.47,33,6,12,47,15,1,2,3
14.475,24,6,17,74,9,2,2,5
14.48,47,2,19,25,7,4,2,12
14.485,16,17,48,13,13,3,0,4
14.49,6,7,35,10,18,1,0,2
14.495,41,36,18,4,5,3,5,7
14.5,15,22,7,1,5,3,3,1
14.505,7,10,1,66,5,3,2,4
14.51,24,19,11,16,6,4,11,4
14.515,37,24,7,11,0,1,1,6
14.52,9,7,29,25,0,1,3,5
14.525,23,11,54,36,6,1,1,6
14.53,13,15,4,20,4,1,1,6
14.535,17,25,13,10,8,3,7,7
14.54,17,9,2,2,0,2,4,11
14.545,0,1,21,7,4,3,3,1
14.55,14,5,7,58,4,2,4,11
14.555,57,10,16,69,12,2,0,8
14.56,53,15,17,43,19,0,4,15
14.565,8,19,16,22,9,4,4,1
14.57,15,3,1,13,14,3,1,6
14.575,22,25,14,3,9,4,4,12
14.58,10,23,40,9,8,2,4,8
14.585,14,1,36,5,5,5,11,5
14.59,5,19,13,41,5,3,3,1
14.595,10,4,14,25,1,8,5,2
14.6,12,1,7,9,8,5,3,5
14.605,16,1,20,12,3,0,3,0
14.61,17,3,6,13,23,5,1,6
14.615,9,8,12,5,11,0,2,3
14.62,10,27,55,48,6,5,9,7
14.625,4,9,18,10,3,2,5,6
14.63,22,16,11,26,9,2,3,4
14.635,9,8,2,53,1,2,4,6
14.64,1,23,14,21,6,2,1,3
14.645,4,6,11,30,2,1,1,6
14.65,10,16,33,28,11,3,4,1
14.655,6,3,24,34,17,4,3,3
14.66,12,2,2,19,21,6,3,6
14.665,8,22,16,9,3,2,4,3
14.67,1,6,9,6,16,0,2,1
14.675,6,9,20,4,8,1,1,4
14.68,5,3,21,15,5,1,3,6
14.685,1,14,18,33,1,0,1,0
14.69,7,17,17,18,20,3,3,5
14.695,7,1,34,35,9,2,0,1
14.7,8,4,15,12,5,3,0,2
14.705,6,15,5,30,12,2,2,7
14.71,5,6,29,50,5,4,5,5
14.715,2,11,4,42,15,4,1,1
14.72,0,2,44,24,13,2,1,0
14.725,2,4,12,1,10,1,1,1
14.73,1,2,12,24,4,0,0,2
14.735,2,2,20,7,15,4,0,1
14.74,1,4,15,1,24,1,0,1
14.745,1,5,27,19,3,2,1,1
14.75,0,5,10,1,0,4,4,2
14.755,1,4,6,35,27,2,0,1
14.76,5,0,0,105,24,1,2,0
14.765,5,6,14,28,15,2,1,2
14.77,7,5,16,34,13,3,3,4
14.775,4,5,14,67,11,0,1,2
14.78,1,6,20,26,3,2,1,6
14.785,0,4,7,2,14,6,3,2
14.79,5,3,17,11,1,2,1,1
14.795,1,13,9,33,25,5,5,2
14.8,2,0,4,45,7,1,2,1
14.805,1,2,4,9,9,1,1,5
14.81,2,4,13,27,2,2,2,8
14.815,1,7,12,4,0,2,0,2
14.82,2,0,1,14,9,6,3,0
14.825,2,5,20,2,3,5,2,3
14.83,1,4,19,3,10,4,1,3
14.835,2,5,10,7,3,1,2,2
14.84,3,4,5,91,29,5,1,2
14.845,3,5,9,92,23,0,1,1
14.85,2,6,9,67,12,2,2,3
14.855,3,7,1,45,17,0,4,7
14.86,0,6,4,60,20,5,2,13
14.865,4,9,2,9,1,1,0,2
14.87,0,3,3,3,13,2,1,5
14.875,1,0,9,7,8,3,1,5
14.88,1,4,6,11,0,4,2,4
14.885,0,2,14,7,1,9,8,2
14.89,0,2,2,13,1,2,2,0
14.895,3,10,5,3,2,1,0,12
14.9,3,3,13,4,2,0,1,1
14.905,2,1,6,41,23,4,1,7
14.91,1,6,4,83,33,4,0,1
14.915,1,1,2,28,16,3,1,1
14.92,2,1,6,31,32,5,4,3
14.925,4,4,8,34,3,1,0,6
14.93,1,1,3,24,0,0,0,7
14.935,0,1,7,4,2,2,4,3
14.94,0,1,1,11,8,0,0,5
14.945,1,6,2,9,11,1,1,2
14.95,0,4,8,4,11,4,2,2
14.955,2,4,2,33,7,5,2,5
14.96,2,4,6,25,0,0,0,0
14.965,3,5,8,14,4,0,1,5
14.97,6,13,34,20,1,8,5,20
14.975,0,3,30,13,9,5,2,0
14.98,6,5,5,18,26,3,2,3
14.985,7,1,6,6,23,9,9,5
14.99,5,1,24,16,4,3,1,7
14.995,4,3,1,28,16,7,0,21
15,4,2,15,46,24,10,3,31
15.005,12,4,8,17,23,5,2,10
15.01,33,7,14,5,13,12,20,7
15.015,1,13,10,7,2,6,0,6
15.02,2,5,20,26,22,15,1,5
15.025,1,7,9,13,13,1,7,8
15.03,11,2,4,6,0,10,6,6
15.035,5,2,28,46,14,6,8,8
15.04,1,8,13,43,11,1,9,1
15.045,14,14,15,6,14,15,16,16
15.05,4,3,1,5,3,2,0,1
15.055,6,1,17,2,9,9,9,16
15.06,4,2,10,12,8,4,3,5
15.065,11,8,20,5,7,2,38,7
15.07,1,0,30,13,20,1,19,7
15.075,3,2,24,20,2,2,6,18
15.08,5,8,3,11,8,14,5,9
15.085,2,6,7,4,11,4,19,0
15.09,1,4,39,0,5,14,15,11
15.095,2,5,8,7,1,7,26,7
15.1,3,13,78,9,13,6,21,1
15.105,2,11,29,1,8,0,12,5
15.11,7,3,28,11,1,17,21,2
15.115,6,4,13,10,1,16,22,1
15.12,6,2,38,46,13,5,11,5
15.125,6,3,33,40,11,5,8,8
15.13,2,13,31,11,0,6,8,8
15.135,3,3,10,2,1,1,5,11
15.14,1,2,8,26,14,8,6,0
15.145,3,2,23,21,14,4,11,5
15.15,2,5,26,10,3,3,2,2
15.155,1,3,6,15,3,3,5,5
15.16,4,8,26,51,7,4,8,3
15.165,10,10,39,27,13,13,5,5
15.17,13,1,20,48,1,9,12,2
15.175,12,12,64,34,12,5,0,2
15.18,1,9,55,6,2,10,1,7
15.185,2,3,6,12,3,7,1,3
15.19,2,12,3,2,9,2,0,9
15.195,4,3,15,4,5,11,10,9
15.2,18,33,23,11,3,4,2,2
15.205,4,30,25,8,12,40,44,3
15.21,9,3,16,27,9,7,11,2
15.215,6,3,15,39,4,5,1,2
15.22,1,1,14,12,19,9,13,0
15.225,1,4,23,34,8,15,15,4
15.23,4,3,6,61,19,14,5,6
15.235,1,15,5,33,3,5,4,16
15.24,13,4,4,33,31,1,0,3
15.245,4,12,8,16,15,3,4,32
15.25,14,7,38,4,5,1,1,18
15.255,2,5,61,16,3,3,3,6
15.26,8,14,25,17,13,4,1,3
15.265,10,4,9,24,1,14,7,6
15.27,13,8,5,56,4,6,1,6
15.275,11,3,0,19,2,1,10,16
15.28,6,7,7,23,0,2,3,9
15.285,4,19,7,14,29,21,11,6
15.29,3,5,13,4,7,13,27,40
15.295,3,8,9,2,1,4,24,7
15.3,4,13,12,27,3,16,16,35
15.305,4,5,17,38,5,11,9,17
15.31,9,8,20,18,2,10,15,50
15.315,5,0,6,10,17,9,24,31
15.32,5,10,6,62,22,0,1,6
15.325,6,14,12,28,23,3,1,7
15.33,12,5,0,35,0,1,6,28
15.335,6,6,7,62,25,12,11,32
15.34,8,8,12,16,10,2,3,15
15.345,0,3,11,13,5,3,0,7
15.35,3,12,4,26,11,7,2,15
15.355,1,7,9,2,1,1,4,4
15.36,4,8,13,5,3,2,1,10
15.365,3,4,3,50,9,2,14,2
15.37,2,4,8,18,35,9,4,8
15.375,3,10,17,15,9,1,5,3
15.38,7,8,23,3,2,3,2,5
15.385,7,1,12,5,6,3,1,5
15.39,5,6,20,25,18,9,12,9
15.395,3,2,44,5,1,1,3,4
15.4,3,2,17,27,4,4,1,5
15.405,6,3,7,17,3,6,9,6
15.41,0,1,2,8,4,5,4,2
15.415,9,3,15,14,0,7,10,0
15.42,1,8,23,18,9,2,7,5
15.425,2,5,50,7,16,0,13,6
15.43,3,5,48,1,5,5,4,11
15.435,5,4,6,9,11,8,11,9
15.44,1,7,8,2,2,1,13,7
15.445,1,0,28,22,5,1,24,2
15.45,1,2,16,14,8,5,4,6
15.455,3,1,40,5,1,6,4,2
15.46,1,3,51,31,7,0,1,3
15.465,3,11,79,28,6,7,15,2
15.47,1,0,4,34,13,1,0,8
15.475,2,4,19,23,5,4,1,4
15.48,6,3,11,26,12,7,6,1
15.485,1,2,17,11,4,1,6,3
15.49,2,2,19,14,1,4,2,2
15.495,5,1,21,8,3,2,0,2
15.5,1,1,33,18,10,0,2,2
15.505,0,5,16,20,11,0,14,3
15.51,2,5,12,32,8,3,1,4
15.515,3,8,4,16,1,0,2,0
15.52,1,5,18,13,4,1,3,5
15.525,2,0,18,2,6,2,5,2
15.53,1,1,2,8,5,6,5,0
15.535,0,7,7,31,12,1,3,0
15.54,3,1,7,26,11,2,3,0
15.545,3,2,30,3,5,2,0,1
15.55,1,5,11,8,0,5,9,4
15.555,3,1,24,17,4,6,15,3
15.56,4,3,42,6,0,0,8,6
15.565,6,6,22,1,1,3,3,0
15.57,3,5,24,4,5,3,4,0
15.575,2,4,13,14,4,2,2,4
15.58,4,8,15,12,8,10,1,6
15.585,3,3,37,8,12,1,5,2
15.59,3,0,89,9,6,3,2,2
15.595,2,3,67,10,0,0,5,1
15.6,5,13,75,20,8,4,5,5
15.605,1,5,1,35,1,3,7,2
15.61,0,4,29,8,6,2,5,2
15.615,1,3,10,30,0,6,2,2
15.62,0,4,31,17,4,0,9,4
15.625,1,1,18,2,2,0,1,0
15.63,5,1,16,6,3,0,0,1
15.635,2,15,28,5,2,3,4,1
15.64,1,10,24,22,8,1,6,3
15.645,9,12,8,22,7,2,5,5
15.65,2,1,12,5,5,3,1,0
15.655,1,1,13,7,4,3,2,2
15.66,1,0,2,7,4,1,3,1
15.665,3,7,13,1,9,2,4,5
15.67,5,3,12,8,6,5,1,3
15.675,9,9,0,9,9,1,0,3
15.68,4,2,9,10,3,2,3,1
15.685,1,2,5,14,7,1,2,1
15.69,2,1,42,20,5,2,2,2
15.695,3,7,75,13,2,3,3,3
15.7,5,7,22,4,9,1,1,0
15.705,2,5,18,34,7,3,4,0
15.71,9,4,12,13,4,0,9,1
15.715,2,4,22,4,7,0,4,1
15.72,2,1,16,9,0,3,6,2
15.725,1,1,8,0,2,0,11,2
15.73,4,1,4,14,7,1,2,2
15.735,1,5,7,4,0,1,3,0
15.74,5,4,8,16,6,4,1,2
15.745,1,0,13,42,2,2,1,0
15.75,3,3,3,6,0,2,2,1
15.755,1,5,13,3,1,1,6,1
15.76,3,4,3,1,0,3,0,2
15.765,4,1,11,22,0,1,0,1
15.77,6,2,12,16,4,3,2,0
15.775,2,1,4,3,1,0,3,2
15.78,1,7,12,9,2,1,3,0
15.785,0,1,16,1,8,2,3,3
15.79,4,6,2,10,9,1,2,3
15.795,4,2,12,10,10,2,4,2
15.8,1,0,28,10,4,1,3,3
15.805,2,1,33,17,5,2,10,3
15.81,3,10,1,5,2,2,9,1
15.815,1,1,6,1,4,4,0,0
15.82,2,3,38,23,1,2,4,1
15.825,6,4,25,18,13,6,3,0
15.83,10,6,7,35,4,3,2,2
15.835,3,7,23,70,16,1,2,1
15.84,1,2,62,19,7,5,8,4
15.845,3,4,26,2,5,3,2,0
15.85,2,2,11,21,6,0,3,1
15.855,6,6,14,42,9,6,3,2
15.86,2,10,3,13,3,1,4,3
15.865,4,1,11,24,3,3,1,3
15.87,1,2,18,14,8,3,4,4
15.875,2,1,7,3,9,0,1,3
15.88,0,2,13,11,6,1,2,2
15.885,2,0,10,22,2,1,1,2
15.89,4,2,14,0,13,4,2,1
15.895,5,4,32,20,4,3,3,1
15.9,0,5,20,20,6,1,2,1
15.905,6,9,9,0,3,3,4,0
15.91,5,4,4,6,1,4,5,3
15.915,5,5,2,8,4,2,1,2
15.92,0,7,14,1,7,0,1,1
15.925,2,3,1,13,4,1,6,2
15.93,3,2,32,6,0,2,5,1
15.935,6,4,14,1,2,2,0,1
15.94,4,3,26,6,3,0,2,1
15.945,5,5,3,14,3,4,3,1
15.95,4,4,13,1,6,2,3,0
15.955,5,1,3,8,6,3,1,4
15.96,0,1,1,9,4,1,4,1
15.965,3,4,10,35,10,1,2,0
15.97,1,6,4,18,5,1,1,1
15.975,2,1,25,7,3,3,2,2
15.98,5,5,32,15,3,2,2,2
15.985,7,5,9,11,11,3,0,0
15.99,9,4,5,25,9,1,1,2
15.995,3,2,13,1,1,1,0,1
16,3,9,8,9,1,1,3,3
16.005,3,2,8,16,1,2,2,1
16.01,0,2,7,16,6,0,3,0
16.015,2,2,24,13,1,2,0,0
16.02,3,0,4,11,3,3,2,1
16.025,0,4,5,3,3,0,0,2
16.03,1,4,5,2,6,0,1,2
16.035,2,3,23,13,2,2,4,0
16.04,4,4,51,14,2,1,1,2
16.045,4,8,10,5,2,4,3,1
16.05,1,0,2,14,10,2,1,1
16.055,1,2,5,5,4,1,5,1
16.06,0,1,11,9,3,2,3,1
16.065,1,2,3,13,10,2,2,2
16.07,2,4,6,0,4,0,1,1
16.075,1,4,21,0,5,0,0,1
16.08,3,1,8,22,6,1,2,1
16.085,3,4,4,1,8,3,0,2
16.09,2,6,7,1,8,3,3,1
16.095,4,3,0,15,9,6,6,4
16.1,2,1,6,8,6,1,6,2
16.105,1,0,8,0,5,6,4,3
16.11,2,2,16,9,2,2,2,2
16.115,2,1,0,13,5,3,3,1
16.12,3,4,4,13,0,4,4,5
16.125,2,2,9,13,1,2,1,0
16.13,2,1,0,4,4,2,2,1
16.135,4,1,0,14,5,0,1,3
16.14,0,1,4,14,4,0,2,1
16.145,2,0,0,12,3,4,3,2
16.15,5,2,5,2,10,6,3,1
16.155,1,2,17,8,2,2,0,1
16.16,1,1,14,0,6,1,1,1
16.165,4,2,7,6,0,2,2,0
16.17,0,0,3,3,3,1,2,2
16.175,2,2,6,2,6,5,3,2
16.18,2,1,11,6,5,4,5,1
16.185,2,3,3,2,5,2,5,1
16.19,1,3,4,1,10,3,2,3
16.195,1,1,24,5,12,2,3,0
16.2,4,14,5,1,4,1,1,2
16.205,1,0,7,10,5,3,1,4
16.21,1,2,3,14,2,1,1,1
16.215,3,2,1,4,8,1,3,1
16.22,1,5,7,5,1,4,2,3
16.225,5,0,9,10,3,3,1,2
16.23,3,9,6,13,3,3,4,3
16.235,2,4,32,10,1,1,1,2
16.24,0,1,34,13,7,2,3,0
16.245,1,0,26,9,2,0,4,1
16.25,3,1,5,6,4,0,1,0
16.255,1,1,22,4,4,0,1,0
16.26,2,1,2,1,5,0,2,1
16.265,1,0,3,3,4,1,2,0
16.27,2,2,1,10,1,1,3,1
16.275,2,5,0,5,2,2,2,2
16.28,1,1,7,12,4,4,1,0
16.285,3,0,7,7,1,3,6,1
16.29,2,2,2,0,2,1,9,0
16.295,0,1,1,6,5,2,0,1
16.3,0,5,1,6,1,0,0,0
16.305,5,14,21,17,5,2,3,1
16.31,1,4,10,4,2,1,4,1
16.315,6,3,32,8,0,3,2,3
16.32,2,3,3,0,6,3,2,1
16.325,0,2,9,8,6,3,3,0
16.33,1,1,1,16,5,2,1,3
16.335,4,2,9,18,2,1,2,0
16.34,6,4,7,13,2,3,4,1
16.345,1,11,2,7,1,1,1,0
16.35,10,13,3,3,1,0,2,1
16.355,10,6,17,3,3,3,4,3
16.36,3,0,56,7,3,3,2,2
16.365,0,2,7,3,8,2,1,1
16.37,1,8,0,4,8,1,2,1
16.375,1,0,7,5,3,2,2,4
16.38,5,7,12,6,4,1,0,3
16.385,6,2,1,17,9,6,5,3
16.39,17,14,8,4,0,1,1,1
16.395,12,23,1,2,8,6,10,4
16.4,3,2,33,24,13,8,7,0
16.405,4,2,14,5,5,2,1,2
16.41,2,5,34,3,3,1,5,3
16.415,2,8,50,7,1,2,1,2
16.42,0,1,4,3,3,3,4,3
16.425,1,14,5,2,0,1,4,0
16.43,4,9,1,6,8,0,1,1
16.435,0,1,2,6,1,1,0,2
16.44,0,4,4,11,8,2,5,4
16.445,2,6,15,18,5,1,2,1
16.45,6,4,13,1,5,1,1,1
16.455,2,9,13,2,8,0,0,1
16.46,2,0,3,9,1,5,2,1
16.465,1,1,14,15,15,2,1,0
16.47,7,12,18,22,1,1,1,2
16.475,3,0,14,21,9,1,0,0
16.48,0,1,12,0,1,0,1,0
16.485,3,3,20,5,3,1,2,1
16.49,7,4,17,12,4,3,4,2
16.495,4,8,8,8,4,0,1,0
16.5,1,7,4,2,14,1,0,1
16.505,3,5,21,13,3,2,1,0
16.51,4,10,21,2,2,0,1,0
16.515,4,3,7,6,1,6,4,1
16.52,1,6,8,21,7,2,0,1
16.525,2,5,15,24,2,2,0,2
16.53,1,3,15,15,8,5,4,2
16.535,4,6,17,9,6,2,3,0
16.54,3,11,13,7,1,1,1,1
16.545,2,1,6,12,8,7,5,3
16.55,2,2,16,20,1,6,8,1
16.555,1,2,2,21,2,3,6,0
16.56,3,1,11,2,1,2,0,0
16.565,0,2,11,2,4,2,1,0
16.57,4,6,4,3,9,1,2,2
16.575,3,2,4,1,10,2,2,1
16.58,2,2,8,7,9,2,2,1
16.585,3,2,1,8,7,4,2,1
16.59,3,2,5,20,10,2,2,3
16.595,1,0,15,2,2,0,2,1
16.6,0,1,6,8,1,4,1,4
16.605,3,5,17,13,3,1,3,0
16.61,0,0,17,5,7,4,1,1
16.615,3,6,3,12,3,2,3,1
16.62,3,1,2,11,4,4,5,4
16.625,1,1,6,9,1,1,2,0
16.63,0,12,2,10,11,6,4,2
16.635,1,5,2,5,4,1,0,3
16.64,1,4,1,1,1,2,0,1
16.645,2,1,7,3,1,3,4,4
16.65,7,3,4,13,5,2,5,2
16.655,2,0,1,8,4,2,0,1
16.66,3,0,4,7,14,4,4,1
16.665,2,7,23,12,7,6,3,3
16.67,3,0,18,10,2,4,1,2
16.675,5,9,31,13,5,0,0,2
16.68,1,5,4,2,0,2,3,2
16.685,2,7,2,3,5,2,1,1
16.69,0,5,7,0,4,2,3,1
16.695,0,10,6,6,1,1,5,1
16.7,0,9,5,1,5,2,4,1
16.705,2,8,2,3,2,3,4,2
16.71,0,2,10,35,2,1,0,0
16.715,1,3,3,5,1,2,0,0
16.72,1,3,4,1,5,2,2,2
16.725,0,3,16,6,1,2,1,0
16.73,2,2,12,13,1,0,1,2
16.735,1,2,4,1,1,1,1,1
16.74,3,13,0,6,7,4,2,4
16.745,1,0,7,13,4,1,3,1
16.75,0,7,6,14,4,1,2,2
16.755,2,6,11,15,3,1,3,1
16.76,3,5,4,3,5,2,3,1
16.765,1,0,2,1,0,4,0,3
16.77,2,4,1,10,2,1,0,1
16.775,2,6,6,0,2,2,5,3
16.78,0,5,8,8,9,8,8,1
16.785,2,4,14,1,2,1,3,2
16.79,1,4,24,1,2,3,3,1
16.795,2,2,16,15,7,4,2,3
16.8,1,3,1,10,4,2,4,2
16.805,0,4,10,3,1,1,1,3
16.81,3,9,17,8,1,0,2,2
16.815,3,0,20,3,1,1,3,2
16.82,0,3,2,0,6,4,2,1
16.825,1,0,13,6,1,0,3,2
16.83,1,3,19,2,3,2,3,2
16.835,2,0,0,6,5,1,1,1
16.84,2,4,1,9,4,0,0,1
16.845,1,4,3,17,3,1,0,1
16.85,0,3,10,17,0,0,1,1
16.855,2,0,2,12,2,2,0,0
16.86,3,9,7,19,14,2,3,0
16.865,1,1,4,48,10,1,1,1
16.87,2,0,10,10,11,3,2,2
16.875,1,2,13,0,5,1,1,2
16.88,1,2,4,13,2,3,2,1
16.885,4,5,0,9,15,2,1,1
16.89,1,1,7,22,14,1,0,0
16.895,7,1,16,4,3,2,3,2
16.9,5,1,14,17,13,3,1,1
16.905,3,1,6,6,11,2,1,1
16.91,3,9,1,15,1,1,0,0
16.915,4,12,10,18,2,3,2,2
16.92,2,3,11,21,10,2,0,0
16.925,1,10,8,16,7,2,2,3
16.93,1,3,1,2,0,3,3,1
16.935,3,5,22,9,2,2,3,2
16.94,2,6,27,20,7,5,4,3
16.945,3,8,16,7,0,2,1,0
16.95,1,2,30,22,5,2,2,2
16.955,3,4,9,8,7,4,1,1
16.96,0,1,7,12,3,3,3,2
16.965,1,4,7,42,0,1,0,1
16.97,5,1,8,22,1,3,1,1
16.975,5,3,1,1,1,7,6,0
16.98,4,10,0,5,3,1,1,2
16.985,3,0,5,36,7,5,2,0
16.99,2,2,10,4,2,2,2,3
16.995,5,7,4,27,4,2,0,1
17,1,0,22,12,10,3,2,0
17.005,2,2,40,14,0,4,2,0
17.01,3,4,8,4,3,5,3,3
17.015,3,0,10,5,1,3,2,0
17.02,1,2,6,0,0,3,6,5
17.025,0,4,4,0,3,2,1,4
17.03,3,3,11,11,0,6,5,2
17.035,0,5,26,43,17,2,1,0
17.04,1,6,7,39,12,0,6,2
17.045,2,4,10,18,2,2,3,3
17.05,1,5,11,3,0,2,1,3
17.055,3,1,11,4,1,1,1,2
17.06,3,1,42,3,1,1,2,1
17.065,1,3,19,3,16,4,0,1
17.07,3,1,6,8,7,3,2,1
17.075,2,2,0,4,2,1,2,1
17.08,5,6,8,4,2,2,2,0
17.085,0,0,21,4,5,2,2,1
17.09,1,1,19,9,1,0,1,0
17.095,1,2,14,15,7,2,4,2
17.1,2,5,3,7,2,1,1,1
17.105,0,1,10,5,2,1,1,1
17.11,1,2,0,18,4,1,1,1
17.115,1,2,3,10,3,4,2,1
17.12,1,2,7,12,5,2,2,3
17.125,5,4,21,4,8,5,4,3
17.13,0,0,4,5,2,1,0,1
17.135,3,5,8,7,7,5,4,1
17.14,2,1,1,11,1,1,1,0
17.145,2,7,3,6,4,2,1,1
17.15,0,1,4,16,7,3,1,1
17.155,4,3,8,25,3,4,5,2
17.16,3,2,18,11,0,1,3,0
17.165,4,7,14,18,3,7,1,2
17.17,0,1,16,7,2,3,5,3
17.175,1,2,1,4,4,0,6,0
17.18,0,1,11,1,2,0,2,2
17.185,4,1,1,3,4,1,1,0
17.19,1,3,14,7,0,2,2,2
17.195,1,2,6,8,3,5,3,2
17.2,2,1,9,0,0,1,1,4
17.205,2,2,3,3,6,0,1,0
17.21,4,3,4,8,1,1,2,2
17.215,1,5,8,9,5,3,2,1
17.22,1,1,0,6,6,1,3,1
17.225,2,2,2,12,3,2,2,1
17.23,3,2,0,23,3,1,2,2
17.235,1,2,0,3,3,1,3,0
17.24,2,4,1,11,6,2,1,2
17.245,1,2,0,3,0,5,2,2
17.25,1,0,0,5,2,2,1,2
17.255,3,0,1,3,1,1,1,1
17.26,3,3,11,24,2,2,1,0
17.265,1,4,17,18,5,1,1,1
17.27,2,5,25,6,0,1,1,0
17.275,1,2,10,4,2,1,1,1
17.28,2,3,13,10,5,5,3,0
17.285,1,2,3,4,5,3,1,1
17.29,1,2,18,8,2,2,3,3
17.295,2,1,7,6,1,1,4,1
17.3,3,0,9,7,0,3,2,2
17.305,1,1,14,12,4,1,0,0
17.31,2,1,3,7,3,2,0,1
17.315,3,3,4,3,1,2,2,0
17.32,0,2,10,4,2,0,3,2
17.325,0,1,15,2,4,1,3,1
17.33,0,1,3,1,3,1,1,0
17.335,2,2,4,6,3,2,0,1
17.34,1,2,5,31,7,1,4,1
17.345,1,1,6,50,10,1,0,2
17.35,1,1,2,6,1,1,0,3
17.355,3,1,0,3,4,3,3,2
17.36,1,2,10,4,3,1,0,0
17.365,2,4,16,20,6,1,0,2
17.37,1,3,12,4,1,2,1,1
17.375,1,0,7,21,9,0,1,1
17.38,0,4,9,6,2,1,2,2
17.385,2,2,5,5,6,4,4,0
17.39,1,1,6,3,4,3,3,0
17.395,2,2,2,5,6,1,3,2
17.4,0,2,8,6,3,3,5,2
17.405,7,5,0,1,1,5,1,2
17.41,2,0,17,4,2,2,2,1
17.415,2,4,1,5,0,3,4,2
17.42,0,0,10,7,3,1,0,0
17.425,2,1,37,8,1,0,1,1
17.43,3,2,14,3,5,1,1,1
17.435,0,1,8,7,4,1,1,2
17.44,2,5,17,14,6,1,3,1
17.445,1,2,16,11,8,2,4,1
17.45,1,1,12,1,1,2,1,0
17.455,1,1,4,3,1,0,3,3
17.46,1,2,22,11,1,1,2,2
17.465,1,0,2,1,2,3,5,2
17.47,2,2,21,6,2,4,4,3
17.475,6,12,18,4,4,2,4,4
17.48,1,4,8,5,1,3,2,2
17.485,3,1,5,2,3,1,2,2
17.49,1,3,3,15,1,1,2,2
17.495,2,1,31,18,9,1,2,0
17.5,3,4,24,5,4,1,2,1
17.505,0,4,1,22,7,3,3,2
17.51,3,0,7,24,3,0,2,2
17.515,1,1,12,1,1,0,0,0
17.52,0,2,6,3,3,1,3,1
17.525,1,2,4,3,4,3,0,2
17.53,0,1,3,4,1,1,3,3
17.535,2,2,9,5,1,2,1,1
17.54,3,1,2,13,3,0,1,1
17.545,1,3,9,4,3,2,4,2
17.55,4,7,3,23,6,3,2,2
17.555,4,3,10,12,3,3,5,2
17.56,2,2,9,8,3,1,8,4
17.565,5,1,12,3,0,1,5,1
17.57,1,1,7,1,6,0,1,1
17.575,2,1,0,0,6,1,1,2
17.58,1,4,2,6,0,4,2,1
17.585,1,2,1,17,3,0,3,1
17.59,1,1,9,25,4,4,2,2
17.595,3,1,11,3,2,0,2,2
17.6,0,3,4,11,1,1,0,1
17.605,2,1,2,0,1,0,2,0
17.61,3,5,12,2,1,0,1,1
17.615,2,1,11,2,3,2,3,0
17.62,0,1,1,3,0,2,0,3
17.625,1,1,4,4,1,1,2,2
17.63,0,2,5,5,3,2,2,0
17.635,1,2,0,1,3,4,2,0
17.64,1,3,7,3,0,0,0,0
17.645,1,1,0,4,0,3,2,3
17.65,2,2,1,11,5,0,0,0
17.655,2,3,1,3,8,1,1,0
17.66,2,3,3,2,2,3,1,1
17.665,1,2,7,6,4,3,1,2
17.67,0,3,11,1,0,0,1,1
17.675,0,1,5,4,1,1,1,0
17.68,0,4,10,19,4,2,0,3
17.685,1,3,4,7,1,0,1,1
17.69,1,1,11,10,1,1,1,1
17.695,1,2,7,11,2,2,2,0
17.7,2,1,9,9,1,0,1,0
17.705,3,2,8,15,7,1,0,1
17.71,2,2,5,6,3,2,1,2
17.715,2,2,2,3,2,0,2,3
17.72,2,3,3,3,3,1,0,1
17.725,0,1,1,9,0,6,3,0
17.73,7,3,6,2,0,2,1,3
17.735,0,7,29,11,5,1,1,1
17.74,1,0,4,2,1,1,1,3
17.745,0,0,3,2,2,0,0,2
17.75,1,0,2,5,3,1,0,1
17.755,4,1,1,11,5,2,3,2
17.76,1,0,12,3,3,1,2,1
17.765,3,2,11,5,3,1,2,2
17.77,0,0,2,3,0,3,2,1
17.775,3,1,1,13,1,0,1,2
17.78,0,2,6,9,1,2,1,2
17.785,0,2,13,2,4,2,1,2
17.79,0,3,17,1,3,1,0,1
17.795,4,2,8,9,9,1,2,1
17.8,1,1,19,6,2,3,0,3
17.805,2,3,56,3,1,0,1,0
17.81,0,1,8,14,2,1,1,0
17.815,1,2,17,2,7,2,1,1
17.82,3,0,15,7,7,1,2,0
17.825,3,4,19,2,1,5,2,4
17.83,3,4,0,7,3,0,1,1
17.835,0,3,1,2,1,1,0,2
17.84,2,2,4,11,1,0,2,2
17.845,0,0,11,8,2,0,1,1
17.85,0,3,10,1,1,1,0,2
17.855,0,2,10,9,7,5,4,0
17.86,0,0,10,22,3,0,2,3
17.865,0,4,12,23,2,0,1,1
17.87,2,3,5,4,3,0,1,3
17.875,3,3,11,6,2,3,2,0
17.88,2,0,14,3,1,4,0,2
17.885,0,1,22,1,2,2,2,1
17.89,2,3,5,1,1,3,2,2
17.895,2,5,1,2,1,1,1,0
17.9,1,0,9,13,6,3,2,0
17.905,0,1,18,8,3,2,2,0
17.91,1,1,6,9,1,3,2,3
17.915,5,4,6,19,0,1,4,3
17.92,0,1,7,4,4,1,0,1
17.925,0,3,36,16,3,1,2,1
17.93,2,2,20,10,2,3,0,1
17.935,1,0,15,7,4,0,1,1
17.94,3,4,16,3,1,2,2,0
17.945,1,3,34,0,2,1,1,2
17.95,2,5,16,14,1,3,2,1
17.955,1,1,6,8,5,1,1,2
17.96,0,1,3,4,5,4,2,2
17.965,0,4,1,7,1,3,0,1
17.97,2,7,45,17,2,1,0,2
17.975,1,4,48,7,4,3,4,3
17.98,1,3,19,6,0,0,1,1
17.985,1,2,27,4,5,3,3,2
17.99,1,4,9,1,3,1,1,1
17.995,0,1,9,1,0,0,1,1
18,1,0,6,5,4,1,3,0
18.005,1,2,5,4,1,0,1,0
18.01,2,2,10,1,4,1,2,0
18.015,2,2,5,4,0,1,1,1
18.02,1,0,15,7,5,4,1,2
18.025,1,3,12,24,2,2,2,5
18.03,3,3,13,4,0,1,2,2
18.035,1,6,8,0,2,0,2,2
18.04,1,15,15,1,1,2,0,0
18.045,3,6,2,7,0,1,1,2
18.05,1,2,6,1,2,2,3,3
18.055,0,2,15,10,4,1,2,1
18.06,2,3,13,2,1,3,0,2
18.065,0,5,1,8,5,0,1,0
18.07,2,2,17,3,2,2,1,1
18.075,0,1,13,12,2,5,0,1
18.08,0,4,14,21,1,2,3,2
18.085,2,0,40,10,2,0,2,2
18.09,0,4,20,5,1,2,1,1
18.095,1,6,19,8,1,2,3,1
18.1,1,3,2,16,7,4,3,1
18.105,1,2,5,18,7,0,1,1
18.11,1,3,16,3,2,1,0,3
18.115,1,1,13,8,2,1,0,0
18.12,1,0,9,3,2,3,0,2
18.125,0,1,10,8,1,3,2,2
18.13,1,6,4,5,0,3,1,2
18.135,0,1,9,9,6,2,3,3
18.14,0,1,3,3,2,1,2,1
18.145,1,1,6,3,0,1,1,1
18.15,1,0,6,10,4,0,3,1
18.155,3,1,12,22,2,0,1,3
18.16,2,0,4,15,2,2,0,1
18.165,1,2,2,2,3,2,2,1
18.17,0,4,9,4,1,0,1,1
18.175,2,4,5,0,1,3,1,2
18.18,1,0,3,9,1,0,1,2
18.185,3,1,15,7,0,1,0,2
18.19,2,3,16,8,1,0,0,1
18.195,0,3,17,6,1,2,2,0
18.2,2,4,20,7,2,2,0,4
18.205,1,3,5,6,3,1,1,0
18.21,0,1,5,8,5,2,1,1
18.215,2,3,4,9,2,1,2,1
18.22,0,1,5,4,3,1,0,0
18.225,1,2,15,0,0,1,1,1
18.23,1,3,8,6,5,4,2,2
18.235,2,0,2,4,9,2,1,2
18.24,1,2,3,6,3,0,3,1
18.245,0,2,4,5,4,2,0,1
18.25,0,3,1,4,2,0,2,2
18.255,0,3,2,10,7,1,0,0
18.26,1,3,2,9,2,3,4,1
18.265,2,0,1,28,3,3,4,0
18.27,1,1,3,7,0,1,1,1
18.275,1,3,6,5,2,2,2,1
18.28,3,0,2,1,6,0,1,2
18.285,0,3,27,33,9,1,1,0
18.29,1,5,41,31,3,1,1,2
18.295,1,1,8,2,3,1,1,0
18.3,2,0,3,0,1,0,0,2
18.305,0,1,11,12,10,4,2,2
18.31,1,1,1,9,6,0,2,1
18.315,1,0,7,12,0,0,0,1
18.32,1,4,3,6,0,1,1,1
18.325,0,3,1,6,2,0,0,0
18.33,3,3,3,1,2,2,0,2
18.335,1,0,4,4,3,0,3,3
18.34,0,0,10,4,1,3,1,2
18.345,0,2,9,6,4,0,2,1
18.35,0,2,15,10,8,1,3,2
18.355,4,4,10,1,2,0,2,1
18.36,1,2,2,10,9,4,2,3
18.365,1,0,0,9,13,3,1,0
18.37,0,2,1,16,5,0,3,0
18.375,1,0,7,17,3,3,3,2
18.38,1,1,10,7,4,2,4,0
18.385,2,4,3,11,4,1,0,1
18.39,1,0,5,7,0,0,1,2
18.395,2,1,5,0,2,1,0,3
18.4,3,3,3,6,2,1,1,0
18.405,1,1,0,9,2,2,1,2
18.41,2,3,5,15,1,1,2,2
18.415,1,4,26,7,4,3,2,1
18.42,2,2,9,4,1,1,1,2
18.425,1,0,6,6,7,1,1,3
18.43,0,2,1,4,6,2,2,0
18.435,1,1,6,9,10,2,2,0
18.44,0,3,3,3,2,1,1,1
18.445,5,3,7,13,8,2,1,2
18.45,0,1,2,2,0,1,2,1
18.455,2,0,7,1,1,2,2,1
18.46,1,3,5,2,2,2,1,1
18.465,1,5,0,4,3,2,1,2
18.47,2,2,1,6,0,1,0,2
18.475,2,0,2,10,1,1,1,2
18.48,1,1,4,12,0,0,2,2
18.485,2,2,6,3,9,4,1,0
18.49,4,2,0,18,3,3,2,1
18.495,0,1,7,4,3,0,1,1
18.5,1,17,6,3,5,1,1,1
18.505,1,2,1,2,3,1,4,1
18.51,1,5,3,4,2,1,0,0
18.515,2,2,4,1,3,3,1,1
18.52,1,4,2,10,1,2,1,2
18.525,1,6,4,3,1,0,0,1
18.53,2,10,11,7,3,2,2,3
18.535,4,5,5,6,3,1,3,2
18.54,0,2,1,1,6,1,1,1
18.545,2,2,1,8,9,0,0,0
18.55,0,5,4,2,3,2,0,1
18.555,1,2,3,3,3,0,3,2
18.56,0,3,6,0,3,1,2,1
18.565,0,10,3,11,4,2,2,1
18.57,1,5,2,12,2,3,1,2
18.575,4,20,10,6,8,2,0,0
18.58,3,18,26,12,9,2,1,3
18.585,5,24,15,16,3,4,4,1
18.59,6,12,26,7,1,1,2,5
18.595,2,4,3,3,1,1,0,1
18.6,3,4,4,7,2,2,1,2
18.605,1,1,1,1,0,1,1,0
18.61,1,8,2,0,1,1,2,0
18.615,2,11,0,0,1,1,0,0
18.62,7,10,3,4,3,1,1,4
18.625,2,10,3,4,5,1,1,1
18.63,2,0,5,1,2,0,1,1
18.635,0,5,1,12,2,1,1,0
18.64,0,7,9,3,1,0,2,1
18.645,1,2,4,18,6,2,3,2
18.65,0,9,4,5,3,1,1,2
18.655,2,11,11,10,4,1,2,3
18.66,5,13,43,13,1,1,1,1
18.665,3,7,19,6,2,0,1,0
18.67,6,8,3,12,7,6,3,2
18.675,0,4,19,13,3,0,1,1
18.68,2,13,24,11,1,2,1,1
18.685,4,8,11,12,14,2,1,4
18.69,1,2,6,5,11,2,0,1
18.695,5,3,10,8,11,3,1,1
18.7,10,1,15,3,1,2,2,2
18.705,2,3,4,1,8,0,1,1
18.71,6,12,0,2,4,2,0,3
18.715,1,4,2,2,6,4,2,3
18.72,1,2,17,12,5,0,1,1
18.725,1,8,1,9,1,1,0,0
18.73,1,7,1,4,1,1,2,0
18.735,0,3,14,3,1,0,1,0
18.74,1,7,21,14,4,3,5,3
18.745,3,4,9,18,7,2,0,3
18.75,3,5,7,16,5,0,2,1
18.755,4,4,7,0,2,1,1,2
18.76,3,1,6,3,1,2,2,1
18.765,3,2,14,7,3,1,4,4
18.77,2,6,24,13,1,7,9,0
18.775,3,1,17,6,1,2,3,3
18.78,3,4,13,5,3,2,1,6
18.785,3,4,45,32,1,5,2,3
18.79,2,10,67,40,4,2,3,2
18.795,1,1,2,6,3,1,0,4
18.8,3,7,22,5,2,0,1,5
18.805,1,1,6,3,6,6,8,4
18.81,2,2,8,8,2,5,5,3
18.815,2,5,9,6,1,0,4,3
18.82,0,3,10,10,3,4,1,1
18.825,5,12,6,1,5,1,2,5
18.83,1,4,26,16,9,2,6,2
18.835,2,1,2,15,2,1,1,1
18.84,0,2,2,7,4,3,2,0
18.845,3,5,17,5,8,3,4,2
18.85,1,4,16,4,1,1,7,2
18.855,2,2,0,12,2,0,1,0
18.86,1,2,10,22,6,0,10,2
18.865,5,8,35,10,2,6,0,5
18.87,1,6,16,8,2,1,13,3
18.875,3,1,1,1,0,3,5,1
18.88,1,7,9,0,2,1,2,2
18.885,0,0,2,1,1,5,14,5
18.89,3,7,8,3,4,2,2,1
18.895,1,4,13,2,1,7,19,2
18.9,2,1,27,3,3,2,5,3
18.905,1,2,21,0,2,1,6,2
18.91,0,1,4,0,3,3,5,4
18.915,3,2,3,4,2,4,5,4
18.92,6,9,2,10,5,1,6,5
18.925,3,5,11,0,3,3,7,6
18.93,1,1,24,9,3,3,3,2
18.935,3,1,2,2,6,0,0,0
18.94,0,2,13,0,2,3,4,2
18.945,0,1,9,4,2,1,4,2
18.95,2,4,16,5,0,0,4,2
18.955,0,2,16,6,9,5,7,4
18.96,3,4,48,4,6,8,6,3
18.965,1,1,13,1,7,4,7,0
18.97,1,1,6,6,4,1,2,1
18.975,3,5,7,4,2,4,6,2
18.98,1,3,8,1,3,3,1,1
18.985,0,1,6,10,13,3,2,1
18.99,2,3,5,0,1,5,4,4
18.995,1,2,4,0,1,0,0,2
19,1,1,3,3,4,0,4,0
19.005,2,2,2,29,5,3,2,1
19.01,1,3,4,25,10,1,0,0
19.015,1,1,6,3,11,1,2,1
19.02,0,1,1,6,3,2,2,1
19.025,1,1,2,3,3,2,1,3
19.03,3,2,5,17,7,0,3,3
19.035,2,0,1,3,3,1,0,0
19.04,1,2,2,7,2,0,1,1
19.045,1,5,2,3,5,2,0,1
19.05,1,0,9,7,2,5,2,1
19.055,2,0,25,11,3,0,1,4
19.06,2,2,19,7,3,0,1,1
19.065,1,1,9,7,3,1,2,1
19.07,1,1,6,10,2,0,2,2
19.075,4,4,4,1,0,2,4,2
19.08,1,2,15,1,4,2,0,2
19.085,3,6,5,11,4,2,0,0
19.09,0,3,3,12,3,2,1,1
19.095,1,3,18,19,10,3,2,1
19.1,1,1,2,2,3,3,2,0
19.105,2,1,4,24,5,3,1,2
19.11,2,1,15,8,6,1,2,3
19.115,2,5,14,10,10,4,1,4
19.12,2,3,1,1,1,1,1,1
19.125,2,3,12,6,10,1,0,0
19.13,1,5,7,5,6,1,1,0
19.135,1,1,10,2,3,0,1,0
19.14,0,2,3,5,4,1,0,1
19.145,0,1,2,7,0,0,1,1
19.15,2,1,4,7,2,1,1,1
19.155,0,3,3,2,0,1,2,2
19.16,3,2,5,4,1,2,1,2
19.165,0,3,1,14,4,3,1,5
19.17,0,1,8,2,0,1,1,4
19.175,5,0,6,3,3,1,1,1
19.18,1,1,4,13,9,2,1,2
19.185,1,1,6,20,11,0,2,1
19.19,1,3,7,4,3,3,1,1
19.195,1,1,4,5,0,0,1,1
19.2,2,3,4,7,1,1,2,2
19.205,2,2,7,3,0,1,1,0
19.21,1,3,6,15,4,0,2,3
19.215,1,2,4,4,6,2,2,3
19.22,0,4,2,9,1,1,2,2
19.225,0,1,6,9,8,3,2,1
19.23,3,4,4,5,8,5,4,2
19.235,1,1,1,8,6,0,0,1
19.24,1,4,1,1,5,2,1,2
19.245,2,0,1,6,8,3,2,2
19.25,1,4,2,6,7,1,1,1
19.255,1,4,6,6,2,1,2,1
19.26,1,2,0,1,2,3,2,1
19.265,3,1,8,5,2,1,1,0
19.27,2,4,8,1,4,2,1,3
19.275,0,3,2,1,1,2,0,1
19.28,2,0,5,3,1,2,3,4
19.285,2,1,1,8,3,1,3,1
19.29,1,6,24,16,4,1,0,4
19.295,3,1,4,6,5,2,0,1
19.3,4,4,1,1,4,2,1,2
19.305,1,2,2,11,4,1,2,1
19.31,0,0,5,15,6,1,3,1
19.315,2,1,3,2,5,4,3,0
19.32,0,1,4,1,1,2,2,3
19.325,1,3,3,2,3,0,3,1
19.33,2,1,2,3,3,3,3,1
19.335,0,1,1,2,4,2,1,3
19.34,0,3,10,9,0,0,1,1
19.345,0,2,22,20,1,1,0,3
19.35,2,3,9,2,1,1,1,2
19.355,2,0,13,10,4,1,0,0
19.36,2,2,12,10,2,3,1,0
19.365,4,2,9,4,3,2,5,6
19.37,2,1,3,1,1,2,2,5
19.375,4,6,1,6,4,1,2,4
19.38,1,2,3,0,4,0,3,0
19.385,1,3,20,7,7,3,1,1
19.39,4,2,38,0,1,5,6,5
19.395,2,5,8,4,1,2,0,0
19.4,2,5,14,9,6,2,3,2
19.405,1,1,5,8,4,4,3,3
19.41,0,1,4,1,0,0,0,1
19.415,3,2,7,5,4,2,3,0
19.42,2,2,3,0,1,2,2,1
19.425,2,4,6,5,1,5,6,1
19.43,3,1,17,10,3,5,1,1
19.435,0,2,9,1,0,1,2,1
19.44,1,1,1,11,2,2,3,3
19.445,4,1,8,4,8,6,6,2
19.45,5,0,12,1,1,2,4,1
19.455,5,10,2,4,1,1,1,1
19.46,2,2,2,8,2,1,0,1
19.465,1,3,0,3,1,3,2,1
19.47,4,2,3,7,2,1,2,2
19.475,0,2,7,21,8,5,4,0
19.48,3,1,6,22,12,2,0,1
19.485,1,1,2,8,1,1,0,1
19.49,2,3,1,34,5,4,2,4
19.495,1,0,12,21,6,3,1,2
19.5,0,1,2,21,5,4,2,2
19.505,5,1,1,8,3,1,1,2
19.51,3,2,2,0,2,3,0,2
19.515,1,3,5,6,2,3,3,2
19.52,1,2,9,15,15,3,4,1
19.525,1,0,11,2,11,0,1,1
19.53,2,3,9,19,5,3,0,1
19.535,0,1,15,4,1,2,1,1
19.54,3,4,22,9,2,4,0,1
19.545,1,1,4,2,10,5,4,3
19.55,0,1,18,15,4,2,3,4
19.555,1,0,5,3,1,0,0,1
19.56,0,2,8,5,2,1,1,1
19.565,4,7,3,4,1,2,1,2
19.57,0,1,9,1,2,1,3,4
19.575,2,3,18,1,1,0,2,3
19.58,2,1,4,5,1,0,2,1
19.585,0,0,3,12,1,2,3,0
19.59,2,1,12,10,4,2,2,2
19.595,2,3,9,12,4,3,2,5
19.6,1,1,18,9,2,1,2,1
19.605,1,3,7,1,6,3,2,2
19.61,2,1,6,14,0,2,1,2
19.615,1,1,5,6,3,3,1,1
19.62,1,2,7,1,3,2,2,2
19.625,1,0,2,0,9,1,0,1
19.63,3,3,11,0,3,2,2,2
19.635,1,4,2,0,2,3,4,2
19.64,3,3,5,9,2,1,1,2
19.645,2,1,3,10,12,5,2,0
19.65,2,1,4,13,14,2,3,2
19.655,0,0,3,3,1,2,0,2
19.66,1,2,11,6,2,2,2,1
19.665,1,1,5,0,4,4,2,2
19.67,4,3,9,11,7,0,1,0
19.675,1,0,4,6,6,3,2,1
19.68,0,1,6,9,10,4,1,0
19.685,2,0,3,4,5,1,3,1
19.69,4,1,3,10,6,0,1,4
19.695,3,2,3,1,2,1,0,2
19.7,0,1,3,8,5,3,2,1
19.705,0,2,1,1,1,2,2,2
19.71,1,4,2,1,5,2,1,1
19.715,1,1,1,4,4,1,0,2
19.72,2,2,3,1,1,1,0,3
19.725,2,3,3,1,2,4,1,0
19.73,0,1,2,14,0,0,1,0
19.735,1,1,3,15,4,2,2,0
19.74,1,3,4,6,3,1,1,1
19.745,1,1,3,11,2,0,3,0
19.75,1,0,3,4,2,1,1,0
19.755,1,2,3,11,3,1,0,1
19.76,3,5,3,11,3,2,2,2
19.765,0,2,1,2,2,2,1,0
19.77,1,1,1,13,20,5,2,1
19.775,0,1,2,28,24,6,3,1
19.78,0,3,1,8,3,1,1,2
19.785,0,0,2,8,5,0,1,1
19.79,0,5,2,8,6,4,2,1
19.795,3,2,3,2,4,2,2,1
19.8,5,2,1,1,6,1,1,1
19.805,1,3,2,17,1,2,2,1
19.81,1,2,11,12,4,0,1,0
19.815,3,8,4,10,4,3,3,2
19.82,4,10,2,4,3,3,0,0
19.825,4,25,11,16,9,2,2,0
19.83,1,9,10,5,2,1,2,2
19.835,4,8,11,7,3,3,2,2
19.84,2,4,6,9,11,3,3,2
19.845,2,6,3,11,11,3,1,0
19.85,0,6,1,3,1,1,2,1
19.855,3,1,0,6,5,2,0,0
19.86,3,3,0,2,1,1,2,1
19.865,12,5,2,1,4,2,1,2
19.87,0,6,7,11,1,0,0,1
19.875,0,5,1,12,9,6,3,3
19.88,1,3,0,10,1,4,2,2
19.885,2,5,4,16,6,4,1,1
19.89,3,6,2,4,0,1,2,1
19.895,3,3,11,3,6,2,2,4
19.9,0,1,19,9,4,3,0,1
19.905,1,4,42,4,7,2,2,6
19.91,1,1,15,3,3,2,3,4
19.915,0,1,4,2,1,2,2,2
19.92,1,5,11,9,1,3,3,1
19.925,3,5,17,2,3,3,4,4
19.93,3,6,20,8,1,3,7,7
19.935,2,3,25,1,8,2,1,1
19.94,3,6,38,4,12,3,5,0
19.945,1,1,24,10,3,1,1,0
19.95,1,0,12,7,3,1,1,2
19.955,0,3,2,4,1,3,13,5
19.96,1,2,1,1,3,1,5,0
19.965,1,0,7,5,2,3,3,2
19.97,1,3,5,1,1,4,4,1
19.975,1,0,21,8,4,1,1,1
19.98,2,2,7,0,0,3,1,0
19.985,3,4,7,5,7,3,4,4
19.99,2,2,18,5,1,3,2,0
19.995,3,2,28,6,1,2,3,1
20,3,4,2,6,7,3,4,5
20.005,0,2,15,0,9,3,1,2
20.01,2,1,28,5,1,0,1,4
20.015,1,0,6,7,1,1,0,3
20.02,0,0,6,6,4,2,4,2
20.025,1,1,3,2,2,5,1,3
20.03,0,2,4,1,0,1,3,2
20.035,1,1,4,5,3,0,0,0
20.04,2,3,1,1,6,2,0,2
20.045,3,1,0,2,2,2,2,2
20.05,1,0,2,0,3,1,4,1
20.055,1,3,1,1,2,2,2,2
20.06,1,1,11,5,4,0,1,2
20.065,1,2,5,7,10,1,0,3
20.07,2,1,3,2,0,2,1,0
20.075,0,1,4,4,2,2,1,3
20.08,2,2,4,7,4,2,2,3
20.085,0,1,7,3,1,2,0,1
20.09,2,4,4,3,4,0,2,1
20.095,3,2,2,1,4,2,2,0
20.1,2,1,3,7,7,2,2,2
20.105,2,3,4,3,3,1,1,2
20.11,3,1,1,2,2,2,2,4
20.115,2,1,0,2,1,2,1,3
20.12,0,2,11,3,5,1,0,3
20.125,2,1,13,3,2,5,2,1
20.13,2,4,7,5,1,1,1,0
20.135,1,1,0,9,2,1,0,1
20.14,1,0,2,3,3,1,0,1
20.145,1,1,7,9,6,0,1,2
20.15,3,3,3,14,5,2,1,0
20.155,1,6,5,37,6,2,2,2
20.16,0,1,2,1,2,0,2,2
20.165,1,1,8,3,3,2,1,1
20.17,1,2,8,0,7,1,0,1
20.175,5,3,3,13,0,2,0,2
20.18,0,5,8,17,4,3,4,1
20.185,0,3,4,6,1,1,2,2
20.19,0,2,11,19,8,2,1,1
20.195,1,1,16,27,15,2,2,1
20.2,3,3,1,3,1,2,0,2
20.205,3,1,9,13,6,2,1,1
20.21,3,2,8,2,2,1,2,3
20.215,1,1,1,4,5,2,2,1
20.22,1,1,4,22,5,2,3,1
20.225,3,2,0,4,3,0,0,1
20.23,4,7,1,7,7,1,3,2
20.235,0,2,3,0,3,1,0,3
20.24,1,2,4,16,14,4,3,1
20.245,1,3,1,5,2,3,1,1
20.25,1,0,2,7,1,2,1,2
20.255,2,5,5,9,4,0,1,0
20.26,2,0,0,22,5,4,3,1
20.265,1,0,1,12,6,1,1,0
20.27,2,3,4,12,3,3,3,2
20.275,0,1,4,14,6,1,1,1
20.28,3,6,2,12,4,2,1,1
20.285,0,2,4,4,5,0,1,1
20.29,2,1,4,3,4,2,1,3
20.295,0,1,1,6,2,0,2,5
20.3,2,1,8,5,1,0,0,3
20.305,1,3,1,7,2,2,2,2
20.31,4,4,5,1,3,0,2,2
20.315,2,4,2,4,1,1,0,1
20.32,1,2,6,3,1,3,2,3
20.325,1,2,11,10,4,0,1,1
20.33,1,2,12,13,6,0,0,0
20.335,1,3,4,5,0,2,1,1
20.34,3,5,12,11,7,2,1,3
20.345,1,2,10,8,5,1,2,1
20.35,1,5,6,3,0,2,2,2
20.355,0,1,9,7,3,2,1,1
20.36,0,2,22,4,7,2,2,1
20.365,1,0,31,1,6,0,0,0
20.37,3,4,0,9,7,0,0,0
20.375,3,4,22,9,7,0,0,2
20.38,0,1,17,2,8,1,3,2
20.385,0,1,12,4,3,0,1,1
20.39,2,3,5,0,5,5,3,3
20.395,3,1,12,4,5,1,2,1
20.4,1,1,7,6,4,0,0,2
20.405,1,1,5,11,11,2,0,2
20.41,1,0,0,1,1,1,1,1
20.415,0,1,5,4,6,4,3,1
20.42,3,4,1,3,1,3,1,2
20.425,3,4,10,10,8,2,0,2
20.43,2,2,3,10,2,1,2,2
20.435,2,4,0,10,1,1,1,1
20.44,1,2,1,2,3,1,1,2
20.445,1,2,5,3,1,1,3,1
20.45,1,3,4,5,2,1,2,0
20.455,2,1,6,6,6,3,1,1
20.46,3,1,1,0,8,2,3,1
20.465,3,1,15,3,10,1,1,1
20.47,2,1,16,2,1,1,1,0
20.475,0,1,12,2,2,2,0,1
20.48,0,1,7,4,4,0,1,1
20.485,0,1,2,5,3,1,0,3
20.49,1,1,2,5,5,4,4,3
20.495,0,1,7,1,12,1,0,2
20.5,1,0,7,1,0,0,0,1
20.505,2,5,9,1,5,2,2,2
20.51,2,2,22,10,2,1,0,3
20.515,2,2,8,7,10,3,1,4
20.52,4,5,3,6,1,1,1,0
20.525,1,0,6,7,2,2,0,1
20.53,1,0,5,5,4,0,0,1
20.535,0,0,0,1,4,1,1,1
20.54,2,9,4,7,0,3,4,2
20.545,1,1,0,1,8,2,3,0
20.55,2,1,8,0,2,1,1,1
20.555,1,2,4,5,6,1,1,1
20.56,2,1,7,8,3,2,1,2
20.565,0,2,5,2,1,4,2,3
20.57,2,3,3,3,1,2,1,3
20.575,0,1,1,3,2,1,2,2
20.58,0,0,2,0,0,1,0,0
20.585,2,1,8,7,6,3,3,0
20.59,2,0,2,11,7,1,1,1
20.595,0,2,7,3,1,1,1,1
20.6,0,3,5,4,0,2,1,1
20.605,3,5,0,10,11,2,2,4
20.61,1,0,4,7,5,0,0,1
20.615,1,5,13,1,1,2,1,0
20.62,0,1,2,2,1,1,1,2
20.625,1,1,2,1,2,0,0,1
20.63,2,1,2,9,8,1,1,3
20.635,3,4,7,4,0,1,1,0
20.64,0,4,1,2,8,2,2,3
20.645,1,5,1,6,3,2,2,1
20.65,1,2,1,3,2,4,3,2
20.655,1,3,4,1,5,2,2,3
20.66,2,2,5,3,2,0,0,1
20.665,1,1,3,3,2,1,1,1
20.67,2,1,5,9,7,2,1,2
20.675,2,4,1,8,9,1,2,1
20.68,1,2,0,4,4,3,2,1
20.685,2,0,1,1,1,2,1,3
20.69,1,4,10,2,2,2,2,3
20.695,1,0,12,10,7,4,1,2
20.7,0,1,1,7,0,0,0,1
20.705,1,2,3,2,1,1,0,0
20.71,1,1,0,3,3,2,1,1
20.715,0,2,3,2,0,2,1,2
20.72,1,3,1,2,1,1,2,0
20.725,1,0,0,2,3,4,1,2
20.73,0,1,5,7,6,1,1,0
20.735,2,3,14,1,0,0,2,3
20.74,1,1,2,5,3,2,1,1
20.745,2,5,5,1,0,1,0,1
20.75,2,1,10,4,5,3,2,1
20.755,0,1,15,3,1,3,1,0
20.76,2,3,1,4,2,1,3,0
20.765,1,2,3,2,1,1,0,1
20.77,3,5,0,4,2,1,1,1
20.775,2,2,9,6,7,3,1,1
20.78,1,1,15,6,3,1,1,2
20.785,1,2,15,1,1,1,1,0
20.79,3,0,1,1,4,1,1,2
20.795,1,1,8,2,1,2,3,2
20.8,0,0,11,2,0,2,0,1
20.805,2,3,7,0,1,0,1,1
20.81,2,4,3,0,3,3,3,1
20.815,1,0,2,3,5,0,0,2
20.82,2,2,4,2,1,2,2,2
20.825,0,1,4,9,3,2,0,0
20.83,2,1,2,9,8,3,1,0
20.835,0,0,0,20,9,1,0,2
20.84,0,1,5,4,3,1,3,1
20.845,1,0,6,4,3,1,3,2
20.85,1,1,11,9,6,2,3,1
20.855,0,1,2,5,2,0,1,0
20.86,1,4,7,4,3,1,2,1
20.865,3,4,22,8,1,1,1,0
20.87,0,0,15,1,0,1,0,1
20.875,2,3,14,8,3,0,2,1
20.88,0,1,6,2,1,2,2,1
20.885,2,0,0,10,0,1,0,0
20.89,2,2,12,5,4,0,0,0
20.895,0,1,5,1,7,3,2,0
20.9,2,6,1,8,0,3,2,1
20.905,0,0,4,2,3,0,0,0
20.91,2,2,1,8,9,2,2,0
20.915,4,7,8,9,0,2,2,2
20.92,0,1,1,4,1,3,2,0
20.925,3,0,18,6,2,4,3,2
20.93,0,4,4,1,3,1,2,2
20.935,1,1,12,1,2,3,3,1
20.94,1,4,28,6,2,1,1,0
20.945,2,0,9,2,6,5,2,3
20.95,3,1,2,5,2,4,2,2
20.955,3,3,12,3,6,4,3,2
20.96,2,2,7,0,3,3,1,0
20.965,0,1,20,8,1,0,0,1
20.97,1,2,56,14,1,2,2,3
20.975,1,2,15,6,9,3,1,1
20.98,2,1,2,2,1,1,0,0
20.985,4,5,2,2,5,2,4,1
20.99,3,3,11,8,12,2,0,1
20.995,1,4,9,1,7,1,1,0
21,3,1,5,15,9,2,0,0
21.005,1,2,1,4,4,1,2,2
21.01,2,3,4,5,5,1,0,0
21.015,1,2,12,4,0,1,2,0
21.02,2,1,13,2,2,1,0,2
21.025,2,3,19,2,0,1,0,1
21.03,2,10,13,13,17,4,1,4
21.035,2,0,6,5,4,1,2,1
21.04,2,0,9,4,2,1,1,3
21.045,0,3,18,11,2,1,1,1
21.05,2,7,5,5,9,4,3,1
21.055,2,1,15,12,5,1,1,1
21.06,1,3,4,10,8,6,1,1
21.065,6,5,16,9,1,1,1,2
21.07,1,1,11,27,1,1,2,0
21.075,1,1,8,3,3,0,1,0
21.08,5,2,16,27,3,2,1,1
21.085,1,4,47,28,9,1,2,2
21.09,1,1,9,43,24,6,4,2
21.095,3,5,31,42,16,0,2,0
21.1,3,9,81,22,1,0,0,2
21.105,1,1,14,16,5,2,0,1
21.11,7,2,15,26,10,3,2,1
21.115,1,4,23,7,2,1,2,2
21.12,4,2,10,13,10,3,2,0
21.125,1,3,14,42,22,2,1,1
21.13,1,2,38,1,14,4,1,0
21.135,1,1,14,15,10,4,1,1
21.14,2,1,15,15,3,2,1,2
21.145,3,4,15,37,10,3,2,2
21.15,0,5,6,29,10,2,1,2
21.155,3,1,14,18,7,0,1,1
21.16,1,7,13,14,8,1,3,3
21.165,3,6,1,9,9,5,5,3
21.17,1,5,32,0,5,0,2,2
21.175,2,1,13,1,0,2,0,2
21.18,1,0,16,6,9,0,1,1
21.185,1,3,21,3,1,0,1,0
21.19,2,1,12,6,11,2,0,1
21.195,5,2,16,9,6,0,3,1
21.2,1,1,1,14,8,2,0,3
21.205,0,1,13,9,7,1,0,2
21.21,0,2,4,6,10,1,1,1
21.215,1,1,3,2,3,2,1,1
21.22,2,2,20,6,9,2,1,1
21.225,1,8,35,21,1,2,2,1
21.23,2,2,16,17,1,3,2,1
21.235,1,2,5,18,4,1,0,0
21.24,6,3,22,2,2,1,1,1
21.245,1,1,17,20,6,0,1,2
21.25,2,0,1,8,1,1,1,2
21.255,1,3,23,9,7,3,2,2
21.26,0,2,12,7,6,1,1,2
21.265,1,5,23,26,2,0,1,0
21.27,3,12,11,13,8,2,2,0
21.275,0,2,7,18,3,0,1,0
21.28,2,6,11,11,6,6,1,1
21.285,2,3,3,21,3,1,5,3
21.29,1,3,8,1,5,1,2,1
21.295,3,5,6,2,1,2,1,3
21.3,0,0,50,3,3,1,3,3
21.305,2,1,23,1,0,4,1,1
21.31,1,4,17,1,1,2,0,1
21.315,3,6,3,1,3,1,3,0
21.32,1,3,15,10,5,0,0,1
21.325,1,2,9,3,4,4,4,1
21.33,2,0,5,1,1,1,3,2
21.335,1,1,8,4,1,0,2,0
21.34,1,5,1,8,3,3,0,2
21.345,0,1,1,4,3,0,1,1
21.35,3,3,5,17,7,2,0,0
21.355,3,2,9,10,1,2,0,2
21.36,1,2,14,22,4,1,5,3
21.365,0,4,16,13,3,0,2,3
21.37,2,3,3,1,2,2,1,1
21.375,6,4,2,6,2,1,3,1
21.38,0,6,1,8,4,1,1,1
21.385,2,1,2,2,3,1,3,1
21.39,1,0,7,6,4,3,0,1
21.395,0,1,5,1,0,1,3,0
21.4,1,5,9,2,0,0,1,1
21.405,0,1,7,11,7,3,4,1
21.41,2,3,6,3,0,1,1,2
21.415,1,2,4,1,2,1,2,1
21.42,0,1,3,8,1,0,1,2
21.425,1,2,9,9,4,1,2,3
21.43,1,4,23,8,2,4,4,2
21.435,0,2,0,6,1,1,0,4
21.44,2,2,1,11,1,2,2,2
21.445,3,0,2,5,3,0,1,1
21.45,1,3,3,10,1,1,1,1
21.455,0,0,7,17,1,2,1,1
21.46,1,2,6,4,1,1,1,1
21.465,3,1,8,0,3,3,2,0
21.47,1,0,2,0,2,0,2,1
21.475,2,4,14,3,0,2,1,2
21.48,3,1,22,5,3,1,0,1
21.485,1,3,9,7,4,1,1,1
21.49,2,1,12,10,3,0,1,1
21.495,1,3,1,8,3,1,2,0
21.5,2,1,7,13,2,3,1,0
21.505,1,8,40,12,3,1,2,3
21.51,1,1,4,5,5,3,1,5
21.515,0,3,2,20,2,2,4,1
21.52,2,5,5,8,1,2,3,1
21.525,2,2,13,4,0,1,4,0
21.53,0,1,10,6,0,1,6,3
21.535,0,1,7,2,4,2,1,0
21.54,2,0,7,8,0,2,1,0
21.545,2,0,7,3,3,2,1,4
21.55,1,0,5,2,4,1,1,1
21.555,4,3,11,8,4,0,3,1
21.56,1,2,7,3,1,4,6,3
21.565,4,6,1,5,1,1,2,2
21.57,1,4,7,2,1,4,1,0
21.575,3,7,2,2,0,1,1,1
21.58,2,6,11,4,0,2,2,1
21.585,1,1,5,21,1,3,4,1
21.59,9,14,13,8,3,1,3,0
21.595,1,8,2,0,3,3,3,3
21.6,3,5,4,1,4,1,3,1
21.605,6,3,22,6,3,1,2,1
21.61,1,6,9,1,1,4,3,1
21.615,3,6,6,7,0,2,1,3
21.62,0,1,3,5,0,1,2,1
21.625,3,1,6,4,1,3,3,4
21.63,3,7,6,5,3,1,0,2
21.635,10,7,8,4,2,2,1,0
21.64,5,10,14,7,0,3,1,1
21.645,5,9,9,0,1,1,2,2
21.65,3,6,8,5,4,0,1,0
21.655,9,5,21,12,0,2,1,0
21.66,1,8,8,4,0,2,1,0
21.665,3,7,2,5,7,1,3,1
21.67,0,0,5,15,4,1,0,0
21.675,0,5,5,1,3,0,0,2
21.68,2,6,3,2,0,0,0,1
21.685,3,7,0,7,1,1,1,2
21.69,4,4,1,3,2,3,4,2
21.695,0,0,6,9,10,2,2,0
21.7,0,10,12,5,10,0,1,1
21.705,1,1,7,5,3,1,1,0
21.71,4,2,1,25,10,5,1,2
21.715,2,3,10,3,4,1,0,2
21.72,2,2,1,8,0,4,2,2
21.725,1,1,4,0,6,1,2,2
21.73,2,3,10,12,5,2,2,2
21.735,1,0,15,4,6,2,2,1
21.74,0,0,2,3,5,0,2,0
21.745,0,1,10,4,1,1,0,1
21.75,2,6,1,2,4,0,0,0
21.755,1,1,11,1,13,2,3,0
21.76,1,1,10,8,5,1,1,0
21.765,3,2,1,6,11,2,1,2
21.77,1,1,9,10,10,1,1,1
21.775,2,3,7,4,3,2,2,2
21.78,2,6,5,15,4,2,3,0
21.785,1,0,6,4,3,3,2,1
21.79,0,1,3,2,3,2,2,2
21.795,2,2,0,6,2,1,0,2
21.8,2,2,0,8,3,1,0,2
21.805,3,1,5,5,5,3,1,1
21.81,2,0,1,2,2,0,3,1
21.815,0,0,4,2,1,1,1,0
21.82,1,2,6,5,3,1,1,1
21.825,1,2,3,0,4,3,2,2
21.83,2,0,4,3,2,1,1,2
21.835,1,4,0,4,6,2,1,1
21.84,1,1,0,8,1,1,1,2
21.845,1,1,1,1,1,1,1,2
21.85,2,2,2,11,6,2,1,3
21.855,1,1,3,1,0,1,3,1
21.86,1,1,2,1,3,1,0,0
21.865,1,0,1,4,2,2,2,2
21.87,2,4,5,7,0,2,1,1
21.875,1,1,3,2,3,2,1,1
21.88,1,1,3,2,5,4,5,2
21.885,2,0,2,2,3,1,5,1
21.89,0,1,3,4,7,1,3,1
21.895,2,3,3,29,5,5,6,3
21.9,0,1,11,34,7,1,2,2
21.905,1,0,4,6,3,1,3,1
21.91,1,1,8,7,7,3,3,0
21.915,1,1,4,14,5,0,1,2
21.92,3,0,5,22,9,3,3,1
21.925,0,1,1,2,2,1,0,1
21.93,0,1,6,10,4,1,2,1
21.935,3,0,7,9,7,0,2,2
21.94,3,1,5,1,8,0,3,1
21.945,1,1,2,1,1,1,2,0
21.95,2,3,2,3,0,0,1,1
21.955,0,2,1,13,4,0,1,2
21.96,1,3,8,14,3,1,2,0
21.965,2,3,2,3,0,1,3,0
21.97,1,2,12,13,8,0,3,2
21.975,1,1,10,6,6,2,2,2
21.98,1,3,3,11,5,2,1,0
21.985,4,4,3,10,0,1,1,3
21.99,1,0,2,4,5,2,0,2
21.995,1,2,3,13,13,3,2,0
22,2,1,2,10,2,0,2,3
22.005,1,1,1,4,8,0,1,0
22.01,3,7,19,18,4,6,3,2
22.015,2,0,2,9,0,1,2,0
22.02,1,3,0,2,3,1,1,2
22.025,1,4,11,8,11,2,2,1
22.03,4,2,8,6,7,1,2,1
22.035,3,5,6,11,3,3,2,0
22.04,2,3,3,9,3,2,1,0
22.045,0,0,3,6,1,1,1,2
22.05,0,2,5,2,4,2,1,0
22.055,1,2,3,2,1,0,1,1
22.06,1,0,8,2,5,2,2,1
22.065,2,3,1,11,2,0,0,0
22.07,0,0,1,7,3,1,2,2
22.075,2,5,3,47,15,2,2,4
22.08,2,1,0,50,11,1,0,1
22.085,1,5,9,12,2,2,2,0
22.09,1,2,2,0,4,1,0,0
22.095,1,2,3,9,4,1,0,1
22.1,2,2,2,9,14,3,2,3
22.105,0,1,5,2,7,1,1,2
22.11,2,1,0,4,3,2,0,0
22.115,5,5,10,20,12,7,7,5
22.12,3,4,5,42,0,3,2,0
22.125,2,6,4,26,6,1,14,4
22.13,2,3,3,9,12,5,7,5
22.135,1,4,5,3,6,1,4,0
22.14,2,1,4,1,3,3,5,2
22.145,1,3,5,18,11,4,8,2
22.15,0,2,2,11,0,2,0,0
22.155,3,3,7,12,0,2,2,2
22.16,1,4,9,5,5,0,0,0
22.165,1,2,3,18,0,0,1,0
22.17,1,2,1,17,2,3,2,1
22.175,3,1,0,6,2,0,1,0
22.18,0,2,6,2,6,0,2,1
22.185,6,3,5,8,0,4,3,1
22.19,1,2,3,7,2,0,1,2
22.195,1,3,3,35,4,0,0,1
22.2,2,0,2,25,0,2,0,0
22.205,1,1,2,23,12,1,4,3
22.21,2,1,4,6,7,3,2,1
22.215,2,4,2,10,3,0,1,0
22.22,8,5,4,8,5,3,1,1
22.225,0,5,5,13,3,2,5,1
22.23,1,0,3,14,9,3,2,0
22.235,1,0,2,10,2,1,1,0
22.24,1,1,6,2,0,0,2,2
22.245,1,4,2,9,1,2,1,3
22.25,3,1,5,5,2,3,3,1
22.255,0,3,0,54,10,2,3,0
22.26,1,4,0,40,9,0,0,0
22.265,2,0,1,0,2,1,0,2
22.27,2,1,2,8,4,0,1,1
22.275,2,4,3,7,5,2,2,2
22.28,0,4,1,17,3,0,1,1
22.285,1,1,1,6,3,0,0,0
22.29,3,3,1,4,6,0,1,1
22.295,3,10,7,1,1,3,4,5
22.3,0,5,9,3,9,3,2,2
22.305,1,3,4,13,4,4,4,2
22.31,2,3,1,4,5,0,2,0
22.315,0,5,6,9,1,1,0,0
22.32,0,0,4,16,7,1,2,0
22.325,4,12,0,8,12,3,1,1
22.33,6,25,13,16,10,0,0,0
22.335,5,6,8,37,5,1,3,0
22.34,2,2,5,10,3,2,3,1
22.345,4,3,0,5,2,1,1,0
22.35,2,7,19,2,6,3,2,0
22.355,2,4,38,3,2,2,0,1
22.36,1,2,3,10,4,2,0,3
22.365,3,12,8,5,10,3,1,0
22.37,7,18,21,9,2,0,1,1
22.375,2,26,7,6,0,0,0,0
22.38,3,14,5,45,8,5,3,1
22.385,3,3,1,38,3,2,0,1
22.39,1,9,2,4,4,2,3,3
22.395,2,20,18,4,3,1,2,1
22.4,1,33,17,19,4,2,1,1
22.405,2,18,4,37,8,0,2,2
22.41,4,4,13,4,2,1,1,1
22.415,1,16,9,30,5,1,1,1
22.42,2,5,30,38,5,6,4,4
22.425,5,27,10,9,6,1,1,1
22.43,2,21,11,10,7,1,1,1
22.435,2,6,7,2,2,1,0,1
22.44,1,14,8,49,10,3,2,2
22.445,5,17,3,8,3,5,3,3
22.45,5,3,21,19,3,3,3,3
22.455,5,2,46,21,13,3,3,1
22.46,4,20,4,36,3,1,0,3
22.465,1,8,6,61,17,3,0,0
22.47,9,8,9,32,9,3,1,3
22.475,1,1,22,3,0,2,0,1
22.48,1,10,10,4,1,1,1,2
22.485,3,8,6,26,9,4,2,3
22.49,3,3,6,3,0,1,2,1
22.495,0,2,3,5,5,2,3,1
22.5,2,3,4,7,0,1,0,3
22.505,1,0,6,11,8,0,1,2
22.51,2,2,7,8,3,2,1,1
22.515,1,8,6,23,0,0,1,2
22.52,2,2,1,18,0,1,2,1
22.525,1,2,4,9,2,1,1,1
22.53,0,2,4,6,3,0,2,2
22.535,1,9,10,0,6,0,1,1
22.54,0,10,17,12,1,2,3,2
22.545,2,1,2,12,9,2,4,1
22.55,0,0,16,10,5,0,0,1
22.555,3,7,7,6,3,0,0,2
22.56,2,1,2,3,4,1,2,2
22.565,1,3,13,7,1,0,1,1
22.57,0,1,7,3,9,5,1,2
22.575,0,6,0,12,9,0,1,2
22.58,0,4,5,21,7,0,2,0
22.585,1,1,4,25,5,0,2,0
22.59,0,3,3,16,4,0,1,2
22.595,1,0,2,4,4,1,1,0
22.6,1,1,7,1,4,1,3,2
22.605,2,1,3,34,10,3,2,1
22.61,0,0,17,30,10,1,1,1
22.615,0,1,21,9,5,1,1,1
22.62,0,6,20,3,0,3,3,2
22.625,2,1,5,21,10,3,3,2
22.63,1,0,3,8,3,2,0,1
22.635,1,5,9,7,4,3,2,1
22.64,2,3,6,12,6,3,1,1
22.645,1,3,4,1,1,2,1,2
22.65,2,1,0,7,0,2,2,0
22.655,3,5,6,7,5,2,5,1
22.66,1,2,20,17,4,0,2,2
22.665,1,4,34,2,2,2,4,2
22.67,0,2,15,1,0,3,2,2
22.675,2,2,14,10,9,3,1,2
22.68,2,1,5,7,4,4,4,0
22.685,1,2,2,2,3,2,2,3
22.69,5,0,5,2,3,0,2,2
22.695,0,4,1,0,4,1,0,3
22.7,3,0,5,10,2,1,1,1
22.705,1,1,16,9,6,4,1,1
22.71,2,0,20,5,3,1,3,1
22.715,1,1,14,10,5,2,0,0
22.72,0,2,9,0,1,1,1,1
22.725,1,3,11,1,0,3,2,3
22.73,3,0,5,12,6,3,4,1
22.735,2,1,2,6,2,1,1,3
22.74,1,2,7,4,0,2,1,1
22.745,1,1,8,18,3,0,0,1
22.75,0,5,5,14,1,2,1,1
22.755,3,2,3,3,2,3,1,2
22.76,4,2,6,1,3,2,1,1
22.765,4,6,8,4,3,4,0,3
22.77,8,5,3,6,3,2,2,3
22.775,1,1,5,1,7,2,1,1
22.78,3,1,3,37,7,2,0,1
22.785,2,1,1,32,11,0,1,0
22.79,1,5,3,8,7,0,3,1
22.795,2,1,4,2,2,1,1,1
22.8,2,3,7,0,6,1,1,2
22.805,1,1,6,5,6,2,1,1
22.81,0,1,2,4,7,1,1,0
22.815,0,4,5,5,1,0,1,2
22.82,1,1,1,9,3,1,3,1
22.825,2,2,5,32,3,0,1,1
22.83,1,1,4,39,2,1,1,1
22.835,1,5,2,13,4,0,0,0
22.84,1,1,4,8,3,0,0,1
22.845,3,2,7,11,5,1,1,2
22.85,0,1,6,13,1,1,2,1
22.855,1,2,5,11,4,4,1,1
22.86,2,2,3,6,7,5,3,1
22.865,0,1,1,13,8,1,1,1
22.87,0,1,2,5,6,3,3,1
22.875,0,2,4,5,5,0,2,0
22.88,0,0,6,5,9,2,1,2
22.885,2,5,3,4,11,3,3,4
22.89,0,0,0,16,2,2,1,0
22.895,0,0,7,8,5,0,1,0
22.9,4,5,25,0,4,0,2,1
22.905,0,1,13,3,1,1,1,0
22.91,2,5,23,2,0,1,1,2
22.915,0,1,29,13,5,3,0,2
22.92,1,4,4,5,5,1,1,2
22.925,0,7,18,9,0,2,0,0
22.93,0,2,14,25,7,2,2,3
22.935,2,1,21,10,1,1,2,0
22.94,3,1,9,6,0,0,0,2
22.945,1,2,5,1,3,1,2,1
22.95,3,3,2,3,4,1,1,1
22.955,4,1,4,7,7,1,1,1
22.96,2,7,5,10,4,3,1,0
22.965,4,1,15,5,1,0,3,5
22.97,1,4,3,4,0,3,4,0
22.975,1,0,3,3,2,4,2,4
22.98,1,7,13,6,3,0,0,3
22.985,2,0,5,9,0,2,1,0
22.99,1,1,3,4,4,1,1,4
22.995,0,4,4,3,2,1,1,1
23,2,4,0,6,0,1,1,0
23.005,1,5,1,7,1,0,1,1
23.01,1,1,8,3,2,2,1,1
23.015,0,1,12,1,1,2,1,0
23.02,0,2,3,1,1,0,1,0
23.025,2,1,9,1,5,2,1,2
23.03,2,6,3,1,9,3,1,2
23.035,0,1,1,2,8,2,1,1
23.04,2,1,3,9,1,1,1,2
23.045,1,1,2,1,6,2,0,2
23.05,3,5,7,5,7,1,1,3
23.055,0,1,6,9,5,4,2,3
23.06,1,2,8,1,3,1,4,1
23.065,0,1,6,4,4,3,1,1
23.07,0,1,4,1,1,1,1,1
23.075,1,3,1,1,3,1,1,1
23.08,2,2,8,4,2,3,2,3
23.085,0,2,5,7,1,2,4,2
23.09,1,2,6,2,1,2,0,0
23.095,3,2,2,1,2,0,1,1
23.1,0,1,0,8,1,2,2,0
23.105,1,1,1,3,0,2,1,0
23.11,2,6,4,2,0,4,4,2
23.115,0,1,0,5,2,2,1,1
23.12,1,4,3,1,3,4,0,2
23.125,1,2,2,3,0,1,1,1
23.13,0,2,3,1,0,4,2,1
23.135,0,4,3,1,2,2,2,2
23.14,0,1,3,4,1,3,2,3
23.145,1,0,6,1,1,2,1,2
23.15,1,2,5,2,5,0,2,1
23.155,2,2,0,2,2,2,3,3
23.16,0,2,5,0,3,1,1,1
23.165,4,7,7,6,3,2,1,2
23.17,2,0,8,4,6,2,0,1
23.175,2,2,2,1,1,1,2,0
23.18,1,2,2,4,0,1,0,0
23.185,2,1,7,4,5,5,4,3
23.19,0,0,5,2,2,2,1,1
23.195,1,4,1,5,0,0,1,2
23.2,1,2,4,2,3,0,0,1
23.205,4,1,0,9,3,2,2,0
23.21,3,2,2,6,2,2,2,2
23.215,0,2,1,11,3,1,1,1
23.22,2,4,2,7,5,1,2,1
23.225,1,3,18,6,0,1,2,0
23.23,2,2,33,13,4,2,2,1
23.235,1,1,5,4,5,0,0,0
23.24,1,3,2,4,2,2,2,2
23.245,1,2,2,7,2,1,2,0
23.25,1,1,3,5,1,1,2,1
23.255,3,3,3,8,1,1,0,1
23.26,0,1,7,0,2,1,0,2
23.265,2,1,2,1,4,4,3,1
23.27,3,4,2,0,1,2,1,0
23.275,0,1,7,0,3,1,2,3
23.28,1,1,3,3,2,1,2,1
23.285,0,1,7,3,2,3,2,0
23.29,1,1,6,0,0,3,1,1
23.295,2,1,2,12,2,1,0,0
23.3,1,1,2,1,0,0,2,1
23.305,1,0,3,2,0,1,2,2
23.31,0,1,12,2,1,2,0,2
23.315,3,4,19,1,1,0,2,2
23.32,1,2,4,10,8,1,3,3
23.325,2,1,8,3,7,0,1,0
23.33,0,1,3,0,6,0,0,1
23.335,1,1,12,4,5,2,2,1
23.34,1,0,14,5,1,1,1,2
23.345,1,2,10,12,1,2,1,1
23.35,1,3,9,3,1,1,1,0
23.355,1,1,16,10,0,0,2,2
23.36,2,3,10,8,4,0,0,0
23.365,1,0,2,4,4,0,0,1
23.37,1,1,4,0,2,2,1,1
23.375,2,3,2,6,1,4,2,1
23.38,0,0,1,3,2,2,0,2
23.385,1,1,14,4,0,0,2,2
23.39,1,0,5,2,0,0,2,2
23.395,1,0,6,0,3,1,1,3
23.4,1,1,12,3,0,1,0,2
23.405,1,5,2,3,5,4,4,1
23.41,0,0,6,5,7,1,1,1
23.415,1,2,1,5,7,3,0,1
23.42,0,0,1,3,7,3,0,0
23.425,0,1,19,11,1,0,1,0
23.43,2,0,9,6,4,2,2,3
23.435,0,3,7,8,2,1,0,1
23.44,1,1,6,1,4,0,0,0
23.445,0,0,9,3,1,1,1,1
23.45,2,1,9,7,1,0,2,1
23.455,1,1,6,1,3,2,3,2
23.46,0,2,1,4,2,2,2,2
23.465,1,0,4,2,7,2,1,1
23.47,1,2,7,2,7,0,0,2
23.475,3,3,4,5,6,1,0,1
23.48,3,3,1,5,2,2,1,1
23.485,2,1,3,3,0,1,1,2
23.49,1,2,4,0,3,0,2,0
23.495,1,1,1,2,1,1,1,0
23.5,1,0,7,5,2,3,4,2
23.505,1,3,3,2,3,2,2,4
23.51,0,1,4,2,1,2,0,0
23.515,2,1,0,10,0,0,2,2
23.52,2,3,5,6,3,2,1,1
23.525,1,0,3,6,6,0,0,0
23.53,0,1,2,4,2,1,1,3
23.535,2,4,0,1,3,3,0,3
23.54,0,2,1,3,2,2,2,3
23.545,0,2,0,3,2,2,2,0
23.55,0,1,1,7,4,1,1,0
23.555,1,0,1,7,5,1,0,1
23.56,2,2,5,7,3,1,0,0
23.565,1,4,0,0,0,3,3,1
23.57,2,3,2,3,2,1,1,0
23.575,0,0,11,3,3,2,3,0
23.58,2,5,12,4,1,1,1,0
23.585,0,2,2,2,3,1,0,0
23.59,3,0,7,3,7,2,0,0
23.595,2,1,3,2,5,1,1,4
23.6,1,1,4,3,4,3,2,3
23.605,0,0,1,4,3,2,2,3
23.61,1,3,4,3,2,1,1,1
23.615,2,3,7,5,3,0,1,0
23.62,0,2,2,2,4,0,1,1
23.625,2,2,1,8,4,2,0,0
23.63,1,2,6,4,5,1,0,2
23.635,1,1,1,2,3,3,3,0
23.64,2,1,1,3,1,1,2,0
23.645,1,1,3,1,2,2,1,2
23.65,0,1,0,1,1,3,3,1
23.655,2,1,4,4,1,1,0,1
23.66,2,1,13,6,2,1,2,2
23.665,2,1,3,5,0,1,2,2
23.67,2,1,0,6,4,2,1,0
23.675,2,3,5,1,1,3,3,1
23.68,3,1,5,3,5,2,1,2
23.685,1,3,3,1,0,2,1,1
23.69,0,1,2,1,1,1,2,1
23.695,2,0,0,7,3,0,1,0
23.7,0,1,3,5,0,2,2,1
23.705,3,3,4,6,6,0,1,0
23.71,0,0,4,3,3,0,2,1
23.715,0,2,6,1,1,1,1,1
23.72,1,2,2,2,2,2,3,2
23.725,1,1,1,1,1,0,0,1
23.73,2,1,1,3,2,4,4,1
23.735,1,1,2,2,0,0,0,1
23.74,1,1,1,3,4,1,1,0
23.745,1,1,0,6,3,1,0,0
23.75,0,0,4,1,3,0,3,2
23.755,2,3,4,2,1,0,1,1
23.76,0,1,1,3,5,2,2,2
23.765,1,3,2,1,2,3,1,1
23.77,2,0,4,4,0,1,0,1
23.775,0,1,4,4,1,1,1,2
23.78,1,4,1,1,0,0,1,1
23.785,1,1,1,6,5,1,1,1
23.79,1,2,3,4,7,2,2,1
23.795,0,0,1,6,7,2,0,1
23.8,1,2,4,3,2,0,0,2
23.805,1,1,3,2,5,2,2,0
23.81,1,6,11,4,3,2,2,2
23.815,0,0,2,1,2,0,3,0
23.82,0,1,0,1,1,0,1,3
23.825,0,2,3,2,1,3,2,2
23.83,1,0,6,4,3,1,1,0
23.835,1,2,0,1,1,2,4,1
23.84,0,1,6,3,2,2,3,1
23.845,0,1,0,0,5,1,1,0
23.85,2,3,9,3,2,2,0,1
23.855,1,3,13,6,0,2,1,1
23.86,2,0,1,1,1,2,2,2
23.865,4,3,1,0,5,0,0,1
23.87,1,2,8,4,3,1,0,2
23.875,0,1,9,2,2,0,1,3
23.88,0,0,1,1,1,0,2,1
23.885,2,1,4,4,5,2,4,1
23.89,1,0,2,5,1,1,1,2
23.895,1,3,3,2,1,2,0,1
23.9,1,2,5,1,5,1,1,1
23.905,1,2,1,1,0,1,3,0
23.91,2,1,6,1,3,1,0,1
23.915,0,0,6,1,1,2,0,0
23.92,3,3,0,0,0,2,0,0
23.925,3,1,4,10,6,2,0,2
23.93,1,2,1,4,9,2,0,0
23.935,2,4,10,4,0,1,0,1
23.94,3,3,3,4,3,2,1,1
23.945,1,1,12,5,2,3,1,1
23.95,1,1,5,1,5,3,4,1
23.955,1,1,1,3,2,2,2,1
23.96,1,0,3,0,1,3,3,3
23.965,1,1,7,1,1,1,1,2
23.97,3,2,2,2,1,0,1,2
23.975,3,3,3,2,3,2,0,1
23.98,2,2,0,2,1,1,1,0
23.985,1,1,1,0,2,2,2,0
23.99,0,3,4,2,7,1,1,1
23.995,2,3,4,3,2,1,0,1
24,1,0,6,5,4,1,0,2
24.005,1,2,17,0,1,2,1,1
24.01,2,2,0,0,4,2,1,0
24.015,0,0,3,0,3,1,1,1
24.02,1,2,2,1,0,3,1,0
24.025,1,4,4,2,1,0,1,2
24.03,0,0,4,3,1,1,2,0
24.035,1,3,3,3,2,1,1,0
24.04,0,2,1,0,6,1,1,2
24.045,3,1,0,0,1,1,1,1
24.05,1,1,0,5,1,3,2,1
24.055,2,0,1,3,5,3,0,0
24.06,1,2,5,5,0,2,1,1
24.065,2,3,2,7,7,3,2,2
24.07,0,3,3,4,0,2,1,3
24.075,3,1,7,4,2,0,3,2
24.08,1,0,3,4,2,1,0,1
24.085,1,3,1,1,2,1,1,1
24.09,0,3,0,2,1,1,0,1
24.095,1,1,1,0,2,2,0,3
24.1,2,1,10,3,4,1,0,0
24.105,3,1,10,2,2,1,4,1
24.11,1,1,5,4,0,3,0,1
24.115,2,2,7,2,1,2,0,2
24.12,2,1,3,1,3,2,3,2
24.125,0,0,4,0,4,0,0,3
24.13,0,0,2,1,2,1,3,2
24.135,1,2,2,3,4,4,0,0
24.14,2,3,6,1,1,1,1,1
24.145,0,0,4,3,4,0,1,0
24.15,3,3,5,0,5,3,0,0
24.155,0,0,1,8,3,2,1,1
24.16,2,3,1,5,5,2,1,2
24.165,1,1,6,4,1,3,1,3
24.17,2,2,7,2,1,1,0,0
24.175,2,1,7,1,3,3,3,2
24.18,0,0,5,3,1,3,0,0
24.185,2,3,2,2,1,3,1,1
24.19,2,1,0,5,7,1,0,1
24.195,1,1,0,11,12,2,1,2
24.2,0,0,2,5,2,1,2,0
24.205,1,1,4,2,1,2,0,1
24.21,2,1,3,0,4,0,1,2
24.215,0,1,1,0,5,2,2,2
24.22,0,0,2,2,2,0,2,1
24.225,1,0,1,2,3,2,2,2
24.23,1,0,2,0,2,1,1,1
24.235,1,1,0,9,1,2,1,1
24.24,1,1,2,2,0,2,1,2
24.245,3,0,5,2,4,0,1,1
24.25,1,2,2,5,5,1,0,0
24.255,0,3,5,2,3,2,0,0
24.26,1,4,2,2,6,1,1,0
24.265,2,3,4,0,2,1,2,1
24.27,1,0,0,2,4,4,2,3
24.275,1,0,4,2,2,1,1,3
24.28,4,1,2,2,0,2,1,1
24.285,1,1,1,3,4,2,2,1
24.29,1,0,7,3,2,2,1,0
24.295,1,4,9,3,2,1,3,0
24.3,1,1,2,0,0,2,1,3
24.305,1,3,4,2,2,1,2,1
24.31,0,1,3,3,1,2,1,1
24.315,1,2,5,3,5,3,1,1
24.32,0,2,6,1,6,2,2,1
24.325,1,4,2,2,1,1,1,1
24.33,0,1,0,0,0,1,2,3
24.335,2,3,1,3,0,1,2,1
24.34,1,1,3,1,3,3,2,0
24.345,1,1,6,2,3,2,2,0
24.35,0,0,3,1,3,1,1,0
24.355,1,2,1,4,4,1,1,2
24.36,1,3,4,1,3,1,1,1
24.365,3,0,3,3,1,1,2,1
24.37,1,5,17,4,1,1,1,3
24.375,1,1,2,2,2,1,2,1
24.38,0,2,1,2,1,2,0,0
24.385,1,1,2,2,7,3,4,3
24.39,0,1,2,2,10,1,1,1
24.395,1,2,3,0,1,1,1,1
24.4,0,3,4,4,2,2,2,1
24.405,1,1,4,3,3,2,2,1
24.41,1,4,6,8,6,3,4,3
24.415,1,0,2,3,4,2,3,0
24.42,1,2,0,2,1,2,2,0
24.425,1,0,4,6,1,0,0,0
24.43,1,1,2,3,1,3,0,2
24.435,1,1,1,2,0,2,2,1
24.44,0,0,2,3,3,1,2,3
24.445,1,1,1,1,1,1,1,2
24.45,1,1,5,1,1,1,0,0
24.455,1,1,1,1,5,3,4,1
24.46,1,1,3,2,7,0,2,1
24.465,2,2,1,1,2,1,1,0
24.47,3,2,4,1,3,1,1,1
24.475,2,2,1,3,4,2,1,3
24.48,2,0,0,2,4,0,2,0
24.485,1,0,2,2,2,0,1,2
24.49,0,2,3,8,3,0,2,1
24.495,2,0,6,2,2,0,2,1
24.5,4,2,5,2,3,3,0,1
24.505,2,0,2,1,0,0,1,1
24.51,1,3,16,4,3,1,1,2
24.515,1,2,4,0,1,2,1,4
24.52,2,1,1,2,0,2,2,2
24.525,1,1,1,1,5,1,0,1
24.53,2,2,0,2,1,1,1,2
24.535,0,2,0,1,2,2,1,2
24.54,1,2,4,2,0,1,0,2
24.545,2,3,8,4,6,3,0,2
24.55,2,1,6,5,1,1,1,1
24.555,1,1,1,2,1,1,1,2
24.56,2,3,4,8,0,1,1,0
24.565,1,0,1,4,2,2,1,4
24.57,1,1,7,1,1,2,1,0
24.575,1,0,1,1,2,0,1,0
24.58,1,1,1,0,4,3,0,2
24.585,1,2,0,2,3,2,1,1
24.59,3,1,0,3,4,0,2,2
24.595,0,1,6,3,4,3,2,0
24.6,1,1,1,1,0,0,0,0
24.605,1,2,3,1,3,0,1,1
24.61,1,2,1,2,3,3,2,0
24.615,1,1,1,2,0,1,2,2
24.62,2,2,2,4,3,1,3,1
24.625,2,2,1,4,0,1,2,2
24.63,1,2,0,1,3,0,2,2
24.635,0,1,9,0,2,2,0,2
24.64,0,3,9,11,1,3,0,2
24.645,1,0,4,1,1,1,1,0
24.65,1,1,5,2,2,0,2,2
24.655,2,5,15,1,4,3,1,0
24.66,1,0,2,6,7,1,0,1
24.665,1,2,1,4,7,4,2,3
24.67,2,0,1,1,0,1,1,3
24.675,2,0,0,3,1,2,1,2
24.68,0,2,3,0,2,1,2,0
24.685,0,2,1,1,1,1,2,4
24.69,2,1,3,0,0,0,0,2
24.695,2,4,3,1,0,1,0,0
24.7,1,2,5,0,1,1,0,1
24.705,1,0,3,6,1,1,0,0
24.71,1,2,4,6,0,0,1,2
24.715,1,1,3,0,4,1,3,2
24.72,1,1,4,3,1,3,1,1
24.725,1,1,2,4,7,2,0,2
24.73,1,3,1,3,4,0,0,1
24.735,0,4,0,1,2,3,1,1
24.74,1,1,2,0,2,0,1,0
24.745,1,1,3,1,1,1,1,1
24.75,0,1,1,2,0,1,1,0
24.755,0,1,0,5,1,1,0,2
24.76,0,0,3,3,3,3,4,1
24.765,0,3,4,5,0,0,1,1
24.77,1,0,1,3,5,1,2,1
24.775,2,0,5,6,1,0,2,4
24.78,1,0,5,2,3,1,1,1
24.785,2,2,8,8,1,2,0,0
24.79,0,2,6,4,3,3,2,1
24.795,1,3,0,4,3,0,1,0
24.8,1,1,4,1,1,1,1,1
24.805,0,1,7,2,0,0,2,2
24.81,0,3,4,4,2,3,2,3
24.815,0,1,1,3,4,1,1,2
24.82,2,2,1,4,1,1,1,1
24.825,2,0,2,2,1,0,0,1
24.83,4,1,2,1,3,1,1,1
24.835,2,2,3,1,1,1,1,0
24.84,0,1,2,3,1,0,0,2
24.845,0,1,1,2,4,1,0,0
24.85,1,1,6,4,2,0,3,1
24.855,1,1,0,0,2,4,5,2
24.86,1,3,4,1,4,0,1,0
24.865,2,3,7,1,5,0,0,2
24.87,1,2,2,4,1,1,0,1
24.875,2,2,2,0,0,2,2,1
24.88,0,0,6,6,9,4,3,0
24.885,1,1,5,5,0,1,1,1
24.89,2,2,1,1,0,2,1,3
24.895,3,0,8,6,3,1,0,0
24.9,2,3,3,3,0,1,0,2
24.905,1,0,2,4,0,2,1,1
24.91,0,2,7,3,2,2,0,2
24.915,0,3,1,2,0,1,2,0
24.92,0,1,11,6,5,2,3,1
24.925,0,4,0,11,2,0,1,2
24.93,1,1,3,1,0,2,0,1
24.935,2,2,5,5,1,1,0,0
24.94,1,0,1,0,0,1,1,1
24.945,0,2,2,1,2,1,2,1
24.95,2,3,5,4,2,3,2,3
24.955,1,2,3,0,2,0,1,1
24.96,1,4,1,4,2,2,2,0
24.965,2,1,4,3,8,1,1,1
24.97,2,2,4,1,1,0,2,2
24.975,1,2,1,1,1,3,1,2
24.98,1,0,1,2,2,1,1,0
24.985,2,2,8,3,2,2,2,3
24.99,0,0,6,6,1,0,2,1
24.995,1,1,1,7,9,1,1,1
25,2,3,3,2,0,1,0,1
25.005,3,2,5,0,5,3,1,2
25.01,1,1,8,2,3,1,1,1
25.015,1,1,1,1,4,2,2,1
25.02,0,4,5,9,1,1,1,1
25.025,1,0,3,1,0,2,2,2
25.03,2,1,4,2,3,0,0,2
25.035,1,1,7,2,1,1,2,1
25.04,3,5,8,5,6,2,0,2
25.045,1,1,6,3,6,2,2,2
25.05,1,0,0,2,2,0,1,1
25.055,0,2,6,5,4,1,0,2
25.06,0,0,6,3,1,1,1,1
25.065,2,5,1,1,4,0,0,1
25.07,1,1,3,2,0,2,3,3
25.075,0,2,6,2,2,2,4,2
25.08,2,0,1,1,3,1,2,1
25.085,3,3,9,3,4,3,3,0
25.09,0,1,2,2,0,1,1,1
25.095,3,5,1,5,2,5,3,1
25.1,1,0,7,1,0,1,0,0
25.105,1,3,3,2,1,0,1,2
25.11,0,1,1,0,1,0,1,0
25.115,1,2,0,3,4,2,3,1
25.12,2,0,1,2,3,0,0,1
25.125,3,1,7,3,2,2,1,1
25.13,1,2,1,5,1,0,0,1
25.135,0,1,7,4,3,1,1,0
25.14,0,2,0,3,5,2,0,2
25.145,1,3,0,1,1,1,4,0
25.15,1,3,14,6,3,0,0,1
25.155,2,5,44,13,3,1,1,1
25.16,0,0,7,7,0,0,1,1
25.165,0,1,8,4,3,3,0,2
25.17,1,1,2,2,3,1,1,3
25.175,2,0,4,2,3,0,1,0
25.18,1,1,2,9,1,1,1,2
25.185,0,3,2,4,3,2,2,3
25.19,3,2,6,3,1,1,1,1
25.195,1,1,10,2,4,0,0,1
25.2,2,0,8,1,3,0,1,1
25.205,1,1,5,2,1,2,0,1
25.21,1,2,2,7,3,3,2,1
25.215,2,0,5,8,8,3,3,2
25.22,1,0,0,4,7,1,1,0
25.225,1,6,7,11,7,1,1,0
25.23,2,2,8,0,4,2,1,2
25.235,1,0,25,4,2,1,2,2
25.24,3,0,10,3,3,2,2,0
25.245,2,0,2,3,3,1,1,1
25.25,3,1,11,4,3,1,1,2
25.255,2,0,12,0,1,0,0,0
25.26,2,0,7,4,0,3,3,4
25.265,1,4,19,5,0,1,0,2
25.27,1,1,4,5,5,3,1,0
25.275,2,0,1,0,1,0,0,1
25.28,1,1,6,2,4,1,0,1
25.285,0,0,5,1,2,1,2,1
25.29,0,6,3,4,3,0,1,2
25.295,2,1,11,7,2,1,1,1
25.3,1,2,2,1,4,2,0,1
25.305,0,2,2,2,3,2,2,0
25.31,0,0,12,2,3,3,1,1
25.315,2,2,9,1,1,0,0,2
25.32,0,2,5,1,0,1,1,2
25.325,2,1,7,3,3,2,1,4
25.33,1,1,2,0,2,0,1,0
25.335,1,1,1,3,3,0,1,2
25.34,1,2,3,5,3,1,1,1
25.345,1,2,5,1,6,3,1,1
25.35,1,2,2,1,1,1,1,2
25.355,1,2,3,5,1,1,0,0
25.36,3,3,6,2,1,0,0,1
25.365,1,3,11,1,0,2,0,2
25.37,1,1,2,4,3,2,3,2
25.375,2,2,6,0,2,1,1,2
25.38,1,1,3,1,2,4,3,3
25.385,1,3,12,2,2,0,0,1
25.39,0,2,2,1,5,3,1,3
25.395,0,0,1,3,1,2,3,4
25.4,1,0,4,1,0,3,1,1
25.405,0,1,5,2,2,0,1,1
25.41,1,1,3,1,3,0,1,1
25.415,1,2,0,0,3,0,4,2
25.42,2,2,5,2,2,1,0,0
25.425,2,2,1,3,2,1,2,3
25.43,1,2,0,0,5,1,2,3
25.435,2,0,2,1,1,1,1,1
25.44,0,1,2,1,3,1,3,2
25.445,3,3,0,0,2,1,0,1
25.45,3,1,4,4,2,0,0,0
25.455,1,0,5,1,3,4,1,1
25.46,0,3,3,3,4,0,0,1
25.465,0,1,4,1,1,1,0,1
25.47,0,2,4,5,2,1,1,1
25.475,4,4,4,3,3,2,1,3
25.48,0,1,3,0,9,2,0,0
25.485,3,3,3,4,0,1,3,2
25.49,2,1,6,5,6,3,2,1
25.495,1,1,1,3,7,1,2,0
25.5,1,5,2,3,1,3,2,1
25.505,1,1,3,0,2,2,2,1
25.51,1,2,5,1,1,1,0,2
25.515,0,3,0,1,2,1,1,1
25.52,2,1,2,4,2,2,0,0
25.525,1,1,0,3,2,1,1,1
25.53,1,3,0,0,2,0,1,1
25.535,2,2,4,2,2,2,0,4
25.54,3,3,2,1,1,1,1,0
25.545,1,1,1,0,1,2,0,1
25.55,1,1,1,4,1,0,0,0
25.555,1,4,1,5,5,2,1,1
25.56,1,1,1,6,8,2,4,3
25.565,0,1,1,4,6,1,0,2
25.57,2,0,2,1,3,2,1,1
25.575,2,1,3,2,0,0,2,1
25.58,2,2,1,1,4,1,3,1
25.585,1,2,4,3,1,0,1,2
25.59,2,0,0,3,1,2,3,4
25.595,1,0,3,4,0,3,0,1
25.6,1,2,1,1,1,1,1,0
25.605,2,0,0,4,4,2,2,1
25.61,1,1,2,2,4,2,1,1
25.615,1,1,3,2,1,2,1,1
25.62,2,2,2,2,3,2,0,3
25.625,0,1,1,4,6,3,1,1
25.63,1,3,1,3,2,1,0,0
25.635,0,2,1,2,1,0,1,1
25.64,1,0,9,3,1,1,1,0
25.645,1,2,1,5,3,3,2,1
25.65,1,3,0,2,2,1,0,0
25.655,1,3,0,7,0,1,2,2
25.66,2,2,2,1,4,1,1,3
25.665,2,2,2,2,0,1,2,1
25.67,1,1,3,4,1,3,1,2
25.675,1,1,0,5,5,0,0,1
25.68,1,0,1,1,1,3,0,1
25.685,0,2,2,1,3,0,0,1
25.69,1,1,1,3,8,1,1,1
25.695,3,3,2,5,6,1,2,0
25.7,1,0,0,2,2,2,0,1
25.705,1,1,2,1,1,0,2,2
25.71,1,4,1,1,5,1,0,4
25.715,1,1,2,1,1,1,0,0
25.72,1,0,1,2,0,0,0,1
25.725,0,1,1,1,1,1,1,3
25.73,1,1,5,3,9,3,1,1
25.735,1,3,11,1,6,1,1,2
25.74,0,2,3,0,3,2,2,0
25.745,1,1,1,1,0,0,1,0
25.75,1,2,1,6,6,5,3,2
25.755,1,2,2,6,2,0,1,1
25.76,0,1,2,1,0,2,0,0
25.765,2,2,3,2,3,2,0,1
25.77,0,1,1,7,5,0,0,1
25.775,3,4,0,6,2,0,1,3
25.78,1,1,2,9,3,1,1,1
25.785,0,0,1,7,5,1,3,1
25.79,2,0,4,4,12,0,2,1
25.795,1,1,2,1,1,2,2,0
25.8,2,4,2,4,5,1,1,1
25.805,1,1,1,3,2,2,0,2
25.81,1,2,5,4,6,2,5,3
25.815,3,3,1,2,2,1,1,1
25.82,0,2,4,7,2,2,1,0
25.825,0,1,3,1,3,2,4,3
25.83,2,0,2,2,3,2,0,2
25.835,0,1,4,6,1,1,1,1
25.84,1,0,0,4,3,2,1,0
25.845,5,1,2,1,6,0,1,1
25.85,8,0,1,4,1,2,1,1
25.855,1,2,1,1,5,1,1,3
25.86,0,8,2,1,0,1,1,0
25.865,7,10,16,4,0,1,1,5
25.87,4,2,7,0,4,1,1,0
25.875,1,2,1,3,2,3,2,1
25.88,1,7,1,6,1,0,0,1
25.885,2,11,3,5,0,0,1,2
25.89,3,4,1,2,4,0,1,2
25.895,1,4,19,4,1,2,3,3
25.9,1,1,8,2,0,3,2,3
25.905,0,4,2,3,1,2,0,2
25.91,1,1,1,1,0,2,2,0
