11.005,1,4,1,4,1,2,0,1
11.01,2,13,7,4,1,2,1,1
11.015,4,13,18,2,5,4,1,6
11.02,0,2,39,9,5,5,2,5
11.025,3,7,11,4,3,4,6,3
11.03,0,1,12,3,1,2,2,0
11.035,5,6,11,0,4,2,4,1
11.04,1,6,20,6,6,5,2,1
11.045,4,8,44,13,8,8,6,5
11.05,2,1,33,13,8,2,1,3
11.055,2,1,32,14,7,5,7,1
11.06,3,3,13,3,6,1,2,3
11.065,6,5,22,11,1,1,1,0
11.07,3,4,29,12,5,0,2,1
11.075,2,4,9,1,4,3,2,2
11.08,0,10,5,7,14,1,2,3
11.085,4,6,2,17,20,5,1,1
11.09,2,23,1,4,12,4,1,1
11.095,0,5,20,7,13,1,2,1
11.1,1,5,12,1,4,1,1,2
11.105,1,7,2,17,15,5,3,2
11.11,1,1,9,2,4,3,3,1
11.115,3,6,18,1,0,2,0,0
11.12,2,6,18,1,2,2,2,4
11.125,2,7,9,6,5,2,2,1
11.13,6,6,3,20,5,2,1,1
11.135,4,0,3,6,4,6,2,2
11.14,8,14,1,43,3,8,4,1
11.145,1,5,6,44,11,0,1,2
11.15,3,2,1,14,1,3,3,3
11.155,3,0,5,8,7,1,1,0
11.16,2,7,11,4,8,0,2,0
11.165,0,7,9,13,30,5,3,2
11.17,5,1,9,24,30,4,4,3
11.175,0,5,27,1,2,4,1,0
11.18,1,2,4,20,6,4,3,4
11.185,3,2,17,11,1,4,4,0
11.19,2,1,16,14,4,6,4,3
11.195,1,3,10,1,0,1,1,1
11.2,1,6,9,4,0,0,2,2
11.205,2,0,9,6,4,1,0,3
11.21,2,2,28,4,6,2,2,1
11.215,2,4,68,21,4,2,4,3
11.22,3,2,15,1,6,3,3,0
11.225,4,3,7,3,1,2,1,1
11.23,2,4,5,5,4,5,2,1
11.235,1,1,24,8,5,2,0,1
11.24,2,5,11,16,2,1,1,0
11.245,5,11,4,16,2,4,1,3
11.25,1,4,0,6,2,3,1,1
11.255,2,2,23,4,1,5,1,1
11.26,4,4,33,4,4,9,10,5
11.265,3,9,36,4,3,1,2,0
11.27,1,11,48,17,6,3,3,1
11.275,0,3,23,3,6,0,0,0
11.28,5,2,1,10,11,5,4,0
11.285,1,1,20,1,5,4,1,1
11.29,2,5,45,0,4,2,4,1
11.295,1,1,26,9,3,3,1,1
11.3,2,5,15,18,11,3,3,2
11.305,2,3,41,2,6,1,0,0
11.31,2,2,35,4,8,3,1,2
11.315,5,1,29,6,7,1,1,1
11.32,6,4,14,20,8,9,4,3
11.325,2,10,2,1,3,0,1,0
11.33,1,11,3,4,10,2,0,2
11.335,4,16,9,8,5,1,0,0
11.34,4,2,2,31,2,6,3,1
11.345,4,1,37,4,5,3,0,2
11.35,1,9,9,5,13,2,0,1
11.355,1,5,45,3,5,1,2,4
11.36,2,1,41,19,23,0,2,1
11.365,2,7,31,7,2,0,0,1
11.37,1,3,16,6,11,0,1,1
11.375,2,2,33,1,5,1,1,2
11.38,1,1,1,20,20,1,0,0
11.385,4,2,8,4,9,0,1,1
11.39,2,3,4,6,6,2,1,2
11.395,1,1,12,6,6,2,1,1
11.4,4,4,1,1,19,4,3,2
11.405,3,6,10,4,22,1,2,1
11.41,1,4,23,3,6,2,1,1
11.415,5,1,33,8,5,0,0,1
11.42,1,5,15,10,8,2,1,1
11.425,0,3,5,9,0,1,0,0
11.43,2,5,6,12,7,2,2,4
11.435,1,1,9,3,13,1,1,0
11.44,0,0,22,10,7,0,1,0
11.445,1,2,4,9,9,3,1,1
11.45,0,2,48,0,9,0,2,1
11.455,4,8,4,10,14,4,3,3
11.46,0,1,8,11,1,1,2,0
11.465,1,2,1,5,6,2,3,2
11.47,2,4,2,6,1,1,3,1
11.475,4,5,4,5,2,2,0,3
11.48,1,2,1,5,5,1,0,2
11.485,4,2,12,5,3,1,2,3
11.49,2,2,4,11,4,2,1,3
11.495,1,0,4,3,6,2,1,5
11.5,1,1,13,6,2,0,3,6
11.505,4,4,20,12,7,3,0,4
11.51,2,10,3,7,6,3,1,1
11.515,1,2,28,10,7,1,0,3
11.52,4,5,75,20,0,1,2,4
11.525,2,0,32,13,5,3,13,4
11.53,1,2,2,2,2,2,0,2
11.535,1,4,7,4,5,1,2,0
11.54,3,5,15,9,2,2,1,3
11.545,3,2,2,3,11,3,3,2
11.55,2,0,3,11,6,1,1,1
11.555,1,2,13,1,1,0,5,1
11.56,1,2,12,6,6,2,1,0
11.565,1,3,13,10,11,5,2,0
11.57,4,7,8,6,0,1,3,0
11.575,1,2,7,8,2,1,1,2
11.58,1,5,6,2,0,1,0,1
11.585,2,5,4,2,7,3,0,3
11.59,3,2,6,14,14,4,3,0
11.595,3,1,2,2,2,0,2,0
11.6,1,3,22,7,1,2,0,0
11.605,0,9,46,11,6,2,3,2
11.61,4,2,8,8,2,5,6,6
11.615,2,2,12,2,7,3,0,1
11.62,2,4,13,10,6,0,2,0
11.625,1,7,7,12,4,2,1,0
11.63,3,3,6,5,4,4,1,1
11.635,0,1,1,7,14,5,2,3
11.64,4,8,6,16,4,1,2,0
11.645,5,5,19,20,4,2,0,2
11.65,1,1,8,0,4,1,1,0
11.655,2,6,5,9,7,3,1,1
11.66,1,0,7,4,13,1,3,2
11.665,2,0,5,9,1,1,2,1
11.67,3,4,9,5,3,2,9,0
11.675,2,3,6,2,2,3,3,2
11.68,5,4,20,19,6,0,0,1
11.685,3,5,30,13,9,1,1,0
11.69,0,3,41,5,3,0,2,1
11.695,3,4,22,1,6,1,0,0
11.7,0,1,8,10,13,0,2,3
11.705,1,0,5,12,9,3,1,3
11.71,5,4,13,7,4,1,2,0
11.715,2,1,3,5,1,3,3,2
11.72,1,1,7,17,8,0,1,1
11.725,0,1,13,26,25,3,0,1
11.73,1,1,11,4,0,1,2,1
11.735,2,0,18,9,1,1,0,1
11.74,2,0,1,4,2,3,2,2
11.745,1,0,15,0,3,1,2,0
11.75,1,2,24,3,3,1,1,2
11.755,1,1,46,2,12,0,0,0
11.76,3,8,1,8,1,0,1,2
11.765,1,4,18,5,4,0,2,1
11.77,3,2,17,2,12,0,0,2
11.775,0,3,8,7,6,1,0,2
11.78,0,3,8,11,13,1,2,4
11.785,3,3,10,7,11,6,5,4
11.79,2,5,3,0,6,1,1,1
11.795,1,1,6,2,8,3,2,1
11.8,6,4,14,8,0,2,1,6
11.805,2,1,3,6,3,6,5,3
11.81,3,2,11,12,4,1,1,1
11.815,2,5,2,6,3,1,3,2
11.82,2,1,28,5,0,2,0,1
11.825,3,4,38,9,3,1,1,3
11.83,2,3,6,9,1,4,5,3
11.835,2,3,34,4,4,3,0,2
11.84,1,2,28,17,8,3,1,1
11.845,3,0,35,3,2,2,13,3
11.85,2,3,21,19,6,2,2,5
11.855,0,4,21,14,4,2,2,5
11.86,1,1,9,24,5,0,3,16
11.865,3,1,10,0,4,1,1,9
11.87,4,3,5,2,5,3,10,1
11.875,1,1,7,1,2,5,3,1
11.88,0,3,21,11,4,4,3,7
11.885,2,1,21,1,1,1,0,0
11.89,4,3,27,11,6,2,3,2
11.895,2,10,36,4,8,0,11,3
11.9,1,1,10,10,1,1,7,5
11.905,1,2,6,12,1,0,3,5
11.91,5,6,13,9,8,7,9,8
11.915,5,5,14,2,4,2,0,9
11.92,4,16,1,2,4,6,3,3
11.925,2,9,5,11,2,1,3,2
11.93,5,2,14,33,5,4,4,9
11.935,2,6,8,4,2,3,6,1
11.94,5,17,19,5,8,3,4,1
11.945,5,11,20,17,5,0,2,3
11.95,0,2,21,20,3,3,5,6
11.955,5,1,38,6,2,0,0,8
11.96,4,13,9,5,0,1,3,3
11.965,1,9,21,7,4,3,0,3
11.97,2,3,9,5,2,0,0,0
11.975,3,7,33,15,3,1,2,4
11.98,8,16,87,27,5,3,3,14
11.985,9,19,85,20,6,6,8,5
11.99,3,12,89,4,0,0,5,1
11.995,3,7,13,5,3,1,0,2
12,0,9,49,2,0,3,2,0
12.005,1,1,25,4,1,2,0,2
12.01,4,10,22,27,6,2,1,2
12.015,4,6,32,16,5,2,3,1
12.02,4,10,14,12,1,6,5,2
12.025,0,0,7,4,3,1,1,3
12.03,2,2,32,9,6,3,2,0
12.035,3,2,27,1,1,1,1,1
12.04,1,3,16,1,3,0,0,1
12.045,2,3,25,9,1,0,1,3
12.05,2,19,3,5,2,3,0,1
12.055,0,2,28,3,0,1,0,3
12.06,3,8,9,18,2,2,2,3
12.065,3,7,92,8,1,3,1,1
12.07,2,8,27,3,3,3,3,1
12.075,1,0,18,6,3,1,2,2
12.08,4,6,8,0,4,2,1,0
12.085,0,2,7,8,9,2,5,2
12.09,2,3,8,13,0,4,3,4
12.095,1,6,22,1,9,5,0,2
12.1,0,0,6,2,9,2,1,1
12.105,1,0,8,0,10,3,0,2
12.11,1,1,5,6,0,1,2,2
12.115,2,1,18,0,6,2,2,1
12.12,2,2,17,3,11,2,1,0
12.125,1,4,18,7,7,0,1,1
12.13,0,5,19,9,8,4,2,3
12.135,8,13,35,8,9,2,3,3
12.14,0,7,19,3,2,3,0,0
12.145,6,8,4,2,4,2,2,0
12.15,11,25,13,8,3,2,3,3
12.155,14,26,2,10,7,4,7,5
12.16,8,18,7,6,2,1,3,2
12.165,12,40,1,8,0,1,2,2
12.17,3,17,46,7,0,5,4,8
12.175,13,27,7,6,1,2,0,5
12.18,0,13,6,10,15,0,1,1
12.185,0,26,8,2,11,4,0,12
12.19,5,31,17,7,2,5,5,5
12.195,18,27,47,1,5,1,1,3
12.2,14,38,50,11,1,2,3,6
12.205,0,19,32,17,5,4,2,2
12.21,4,9,22,2,5,4,2,10
12.215,1,15,1,49,7,2,0,31
12.22,4,5,12,19,12,2,2,2
12.225,11,22,5,12,1,0,3,16
12.23,1,32,13,4,1,1,1,2
12.235,14,7,4,7,4,6,1,32
12.24,11,13,25,36,2,1,0,15
12.245,18,26,6,29,5,0,2,30
12.25,11,25,57,5,3,2,1,35
12.255,18,20,8,17,1,0,3,11
12.26,3,10,19,1,6,4,2,2
12.265,12,17,67,1,1,2,4,5
12.27,23,70,65,43,3,2,1,23
12.275,16,55,67,45,3,5,7,26
12.28,8,8,17,7,1,1,2,21
12.285,7,6,29,46,5,3,1,20
12.29,10,24,14,41,4,6,5,3
12.295,6,7,9,65,7,0,1,22
12.3,13,29,7,29,3,2,1,29
12.305,34,44,11,15,3,2,4,32
12.31,15,2,51,2,2,5,2,17
12.315,21,20,12,15,1,0,2,4
12.32,6,4,42,2,6,5,4,9
12.325,13,19,9,31,0,3,3,8
12.33,10,27,49,43,1,2,4,26
12.335,36,55,92,60,3,11,5,2
12.34,9,30,6,16,4,1,10,14
12.345,12,11,3,28,28,2,2,3
12.35,23,9,3,15,15,4,6,4
12.355,21,36,43,35,4,6,1,12
12.36,4,13,10,32,5,2,1,2
12.365,4,18,32,6,15,6,3,12
12.37,5,16,18,18,16,0,3,12
12.375,6,29,43,33,1,2,3,5
12.38,10,48,57,32,4,4,6,13
12.385,25,15,14,4,3,5,5,2
12.39,21,11,11,1,3,12,9,12
12.395,17,1,61,23,1,6,6,1
12.4,12,18,80,42,1,8,8,2
12.405,18,17,6,64,7,1,3,7
12.41,4,45,55,43,5,2,1,34
12.415,6,5,15,56,4,6,7,19
12.42,10,25,22,22,3,1,3,21
12.425,3,6,1,6,4,1,3,22
12.43,1,45,36,51,5,3,2,12
12.435,8,13,20,25,1,5,3,14
12.44,18,4,18,7,2,2,3,6
12.445,26,0,4,9,3,6,5,0
12.45,9,22,19,0,8,3,6,2
12.455,8,4,7,12,16,1,3,23
12.46,5,27,36,25,4,1,4,11
12.465,9,26,20,21,2,3,6,22
12.47,1,5,46,9,2,1,2,10
12.475,4,6,15,0,7,3,1,21
12.48,3,24,10,12,9,1,3,16
12.485,11,8,3,2,3,1,1,7
12.49,2,22,25,7,1,2,1,4
12.495,3,48,20,17,1,2,4,6
12.5,22,7,72,2,7,0,4,14
12.505,10,4,14,11,2,0,2,3
12.51,7,0,38,15,0,2,1,18
12.515,12,9,21,13,3,4,2,13
12.52,23,35,42,32,1,4,2,6
12.525,19,22,34,4,4,1,5,4
12.53,6,20,25,13,4,1,1,5
12.535,4,9,1,25,7,8,7,2
12.54,1,7,14,51,4,2,0,3
12.545,6,12,10,15,5,2,4,36
12.55,2,6,24,8,3,1,4,9
12.555,6,12,18,22,8,2,0,11
12.56,7,5,7,24,0,2,7,7
12.565,9,5,1,8,2,1,4,5
12.57,7,53,77,16,7,5,4,1
12.575,2,16,10,3,5,9,10,2
12.58,2,2,9,21,3,1,1,16
12.585,8,19,3,21,3,1,6,13
12.59,2,16,41,14,1,3,3,2
12.595,0,6,12,7,3,1,2,8
12.6,1,1,3,2,6,3,2,14
12.605,4,25,15,6,1,1,1,2
12.61,6,23,0,5,12,3,1,6
12.615,1,16,11,37,11,1,1,10
12.62,7,19,14,49,4,3,0,2
12.625,14,33,36,38,10,5,5,13
12.63,1,2,37,44,9,2,1,3
12.635,6,0,24,64,1,3,0,8
12.64,7,12,47,103,2,4,6,13
12.645,6,12,30,14,12,2,1,1
12.65,6,12,22,16,1,1,1,1
12.655,4,12,3,4,7,3,2,4
12.66,11,58,51,54,6,3,1,2
12.665,5,5,16,18,11,1,1,7
12.67,1,12,41,33,2,2,3,5
12.675,2,5,26,16,11,3,4,5
12.68,3,14,52,12,14,3,3,9
12.685,2,10,33,12,3,6,4,5
12.69,2,12,12,4,3,4,5,0
12.695,1,2,56,14,8,2,0,6
12.7,5,35,10,9,0,0,3,2
12.705,9,33,37,16,11,7,8,9
12.71,6,3,10,24,4,5,5,3
12.715,9,0,21,14,3,8,4,6
12.72,4,0,62,13,16,6,8,6
12.725,19,28,39,50,6,1,1,2
12.73,30,17,44,15,0,5,4,0
12.735,5,8,19,19,12,3,3,5
12.74,17,14,3,0,7,1,4,4
12.745,2,8,28,25,2,3,8,3
12.75,14,12,49,0,1,7,13,18
12.755,9,6,56,35,19,0,0,13
12.76,3,38,64,45,2,4,2,2
12.765,20,14,98,38,2,0,5,10
12.77,8,9,74,52,3,1,0,13
12.775,0,2,25,10,2,2,0,1
12.78,16,35,90,44,7,4,5,6
12.785,7,33,40,38,13,10,10,15
12.79,37,22,14,13,2,3,1,4
12.795,42,66,39,20,5,3,1,16
12.8,20,30,47,4,11,1,3,8
12.805,5,10,17,7,9,7,4,3
12.81,8,28,62,2,1,2,5,0
12.815,2,31,31,17,1,1,5,7
12.82,2,33,72,14,11,7,18,5
12.825,1,3,10,10,6,1,3,6
12.83,2,19,28,13,2,10,7,2
12.835,14,45,108,92,6,3,2,9
12.84,6,9,43,76,12,0,4,3
12.845,10,29,5,7,8,0,2,5
12.85,15,26,53,6,6,10,10,4
12.855,6,20,54,31,12,1,1,3
12.86,12,36,21,6,2,3,7,12
12.865,0,21,87,66,0,2,5,6
12.87,7,21,20,6,10,4,11,6
12.875,12,36,45,30,2,3,3,10
12.88,1,32,9,15,5,3,0,5
12.885,5,9,100,25,8,2,2,9
12.89,8,4,25,2,10,3,1,3
12.895,3,38,50,31,3,4,9,9
12.9,14,15,7,5,5,2,6,10
12.905,7,11,35,22,12,2,4,10
12.91,12,64,51,31,2,0,0,15
12.915,17,71,18,19,0,3,4,11
12.92,20,16,65,8,0,1,0,12
12.925,12,12,69,17,2,6,4,7
12.93,9,44,19,2,3,0,1,8
12.935,10,9,40,7,6,2,1,11
12.94,4,27,53,34,1,7,9,2
12.945,13,20,32,11,1,7,4,2
12.95,17,19,29,35,1,5,6,28
12.955,18,23,16,25,1,6,5,42
12.96,6,24,58,4,2,2,0,4
12.965,7,38,90,10,7,7,4,0
12.97,11,15,48,20,1,3,1,8
12.975,13,1,69,4,5,5,6,1
12.98,12,38,30,5,0,5,7,10
12.985,17,6,8,20,1,3,5,4
12.99,10,79,5,2,8,2,1,16
12.995,6,14,41,31,3,1,3,20
13,9,10,15,4,0,4,3,43
13.005,1,24,3,18,4,1,1,12
13.01,11,2,16,3,2,5,6,17
13.015,13,41,52,8,6,2,4,4
13.02,10,12,16,13,9,0,2,19
13.025,0,2,33,15,3,5,0,13
13.03,11,32,39,15,1,7,2,14
13.035,20,12,15,9,0,1,5,9
13.04,15,6,31,11,4,4,2,16
13.045,23,10,50,10,6,5,3,9
13.05,13,14,9,3,1,5,4,2
13.055,10,13,38,2,3,4,2,20
13.06,17,4,5,3,2,1,0,14
13.065,25,15,53,0,12,6,20,3
13.07,2,13,28,7,5,5,21,25
13.075,4,40,91,18,8,7,9,1
13.08,1,9,5,3,11,1,0,23
13.085,29,53,4,12,3,2,3,12
13.09,10,3,6,4,3,2,9,3
13.095,33,15,15,3,6,4,6,47
13.1,28,46,57,8,5,3,25,46
13.105,15,3,24,7,3,1,2,12
13.11,1,1,36,23,5,1,3,12
13.115,2,30,7,20,8,3,2,6
13.12,8,6,4,5,0,1,11,2
13.125,52,60,51,12,11,1,19,0
13.13,14,5,63,4,0,4,2,8
13.135,20,25,67,8,1,2,10,18
13.14,18,0,60,1,8,1,7,2
13.145,11,7,20,5,0,1,4,10
13.15,19,57,71,13,8,9,14,15
13.155,23,45,31,2,2,1,6,2
13.16,1,28,90,40,2,2,3,5
13.165,2,14,18,20,4,1,6,11
13.17,5,16,56,26,1,3,4,4
13.175,5,12,8,9,4,1,5,9
13.18,3,13,23,7,0,1,2,3
13.185,1,14,12,10,1,1,1,3
13.19,6,0,8,19,1,2,8,6
13.195,11,30,4,19,2,1,6,5
13.2,5,24,37,37,8,6,6,2
13.205,5,20,22,41,5,3,3,7
13.21,4,13,19,11,7,2,3,1
13.215,1,4,33,40,8,2,2,1
13.22,5,3,13,19,17,3,3,1
13.225,6,17,18,25,13,1,3,2
13.23,1,7,1,75,30,2,3,0
13.235,3,6,12,12,22,0,0,0
13.24,4,0,9,10,4,4,5,0
13.245,2,9,3,4,0,2,0,0
13.25,2,1,16,13,1,8,3,1
13.255,10,12,19,17,10,4,9,6
13.26,3,3,31,18,2,6,3,0
13.265,1,5,5,65,9,0,3,1
13.27,1,9,12,81,6,4,0,2
13.275,2,2,16,98,13,3,1,2
13.28,4,9,13,15,13,5,9,6
13.285,0,2,19,17,4,2,5,5
13.29,2,3,4,5,11,0,6,2
13.295,2,8,19,45,9,0,1,0
13.3,3,3,41,14,2,3,1,2
13.305,7,11,69,20,2,3,1,6
13.31,13,53,51,23,3,11,7,13
13.315,12,37,104,80,9,5,6,5
13.32,7,54,9,72,1,10,11,2
13.325,26,5,5,22,18,2,7,5
13.33,5,3,87,28,5,15,12,16
13.335,22,41,74,105,16,5,5,22
13.34,13,42,23,31,10,1,4,21
13.345,12,34,41,115,31,12,10,25
13.35,28,10,45,112,11,7,5,7
13.355,2,15,49,117,0,6,5,8
13.36,64,20,53,84,5,8,4,4
13.365,22,29,38,107,9,1,8,11
13.37,5,41,84,47,12,0,3,3
13.375,14,63,23,5,6,6,7,32
13.38,15,49,54,53,11,9,13,12
13.385,15,7,29,3,4,6,7,3
13.39,13,1,11,57,12,1,6,26
13.395,19,38,11,42,9,7,9,25
13.4,1,13,33,25,21,6,1,26
13.405,27,2,125,22,0,8,7,1
13.41,12,37,50,54,19,12,10,15
13.415,52,45,60,53,6,12,7,2
13.42,24,33,25,27,9,10,7,5
13.425,32,111,101,94,33,11,12,1
13.43,13,32,32,7,17,0,1,12
13.435,14,58,82,35,12,6,12,2
13.44,14,5,49,6,21,1,3,0
13.445,10,7,43,28,3,3,2,1
13.45,15,1,95,73,25,7,1,7
13.455,2,7,54,28,2,4,4,12
13.46,24,39,49,96,19,10,5,7
13.465,6,33,94,100,24,7,1,2
13.47,3,34,46,44,9,9,9,10
13.475,7,42,27,55,12,0,2,7
13.48,12,9,1,43,11,3,2,4
13.485,6,17,21,37,8,5,1,4
13.49,10,6,85,24,4,4,1,3
13.495,18,1,18,17,8,0,1,6
13.5,2,24,20,16,15,0,2,4
13.505,9,12,6,13,3,2,1,2
13.51,2,22,8,25,14,4,2,3
13.515,15,25,57,23,7,7,6,5
13.52,5,16,3,0,9,4,4,9
13.525,3,31,34,8,9,1,5,1
13.53,3,6,27,41,23,3,6,3
13.535,13,17,43,95,4,3,1,2
13.54,3,20,27,12,36,8,3,1
13.545,5,14,9,17,8,5,6,1
13.55,4,2,15,23,6,2,2,1
13.555,10,1,2,15,18,3,2,4
13.56,3,14,13,73,13,7,3,4
13.565,2,19,27,28,46,9,1,1
13.57,0,4,8,18,33,2,1,1
13.575,7,11,10,17,1,10,4,2
13.58,2,11,12,4,2,9,3,2
13.585,4,7,3,45,4,8,4,5
13.59,5,2,5,69,37,6,0,0
13.595,0,0,1,5,27,1,0,3
13.6,2,2,7,75,16,3,4,2
13.605,8,14,0,7,10,3,2,1
13.61,4,6,2,43,44,7,1,3
13.615,3,1,2,4,44,0,3,1
13.62,3,8,0,12,59,18,6,2
13.625,3,1,3,3,25,3,1,1
13.63,1,2,5,51,31,5,2,0
13.635,5,1,8,20,19,8,7,3
13.64,1,9,1,4,5,5,4,1
13.645,4,12,2,52,20,7,0,1
13.65,2,2,1,25,10,2,1,2
13.655,3,2,2,16,18,5,1,1
13.66,3,2,9,23,42,6,3,1
13.665,0,1,1,40,38,8,2,2
13.67,2,7,13,34,40,2,1,1
13.675,4,6,5,5,3,4,2,1
13.68,2,3,1,21,24,9,3,3
13.685,2,2,4,67,23,3,1,0
13.69,4,4,10,103,9,0,3,2
13.695,1,1,5,80,30,4,1,2
13.7,0,2,2,2,23,1,1,1
13.705,0,2,4,24,9,3,1,0
13.71,3,0,2,12,10,2,2,1
13.715,3,4,9,11,1,1,1,1
13.72,1,2,1,5,11,6,4,2
13.725,0,2,5,29,7,4,2,1
13.73,1,1,5,65,2,2,1,1
13.735,2,2,4,23,12,0,1,1
13.74,0,1,3,33,10,7,3,2
13.745,1,2,4,6,23,8,1,1
13.75,0,3,0,26,5,1,0,0
13.755,2,1,4,14,6,2,2,1
13.76,3,2,2,33,2,1,2,1
13.765,3,5,1,24,18,4,2,5
13.77,0,0,2,6,1,0,0,1
13.775,0,0,7,14,5,1,2,2
13.78,3,0,1,21,1,0,2,5
13.785,0,1,1,18,10,0,0,5
13.79,2,1,12,8,7,4,2,2
13.795,2,0,0,10,7,3,1,0
13.8,2,0,0,14,6,4,0,0
13.805,1,3,10,17,3,2,1,2
13.81,1,2,1,5,6,4,4,3
13.815,3,0,6,16,1,2,1,4
13.82,3,0,8,10,7,2,1,7
13.825,1,1,0,1,4,2,1,2
13.83,1,0,0,10,11,2,0,0
13.835,2,1,2,4,6,1,1,0
13.84,4,2,21,11,8,5,3,5
13.845,4,3,21,28,0,1,2,1
13.85,3,3,26,24,4,5,2,1
13.855,1,4,66,30,10,5,0,1
13.86,5,1,14,1,1,3,1,1
13.865,1,1,15,19,5,2,1,3
13.87,2,1,7,43,2,1,1,1
13.875,1,1,3,47,6,2,1,1
13.88,17,1,14,6,1,3,1,9
13.885,37,16,4,25,6,0,4,26
13.89,23,27,36,27,0,1,2,12
13.895,6,11,69,25,9,3,1,2
13.9,9,12,31,12,4,0,3,5
13.905,16,4,33,30,3,2,6,11
13.91,11,13,14,4,0,3,0,7
13.915,34,12,21,22,9,2,0,10
13.92,53,18,43,9,13,3,1,3
13.925,5,27,33,13,8,1,0,7
13.93,2,1,22,19,9,5,4,1
13.935,11,4,0,30,1,3,4,8
13.94,17,13,27,52,6,1,4,5
13.945,18,8,94,41,16,5,2,36
13.95,1,2,33,43,25,4,1,8
13.955,14,7,9,41,3,2,2,4
13.96,30,32,12,24,3,6,6,8
13.965,43,8,23,16,1,2,1,3
13.97,67,24,0,29,12,6,0,1
13.975,14,20,9,34,4,2,3,6
13.98,9,4,102,10,2,3,4,4
13.985,29,21,63,0,3,2,3,3
13.99,45,34,14,12,3,2,1,1
13.995,18,9,50,37,4,2,2,21
14,13,14,49,2,2,1,1,7
14.005,7,2,78,13,3,6,0,24
14.01,17,37,44,22,14,2,1,24
14.015,3,45,13,12,1,8,2,5
14.02,27,26,32,62,9,0,0,5
14.025,1,9,46,79,13,2,0,16
14.03,14,23,10,118,3,8,1,17
14.035,7,13,20,36,2,3,0,4
14.04,34,26,20,22,5,0,0,2
14.045,4,7,10,7,19,2,1,5
14.05,6,13,12,28,7,9,5,3
14.055,8,31,32,13,8,1,0,4
14.06,2,18,9,21,7,3,2,6
14.065,15,32,1,32,11,10,6,2
14.07,3,4,28,22,1,1,2,7
14.075,10,2,2,32,4,4,0,7
14.08,2,10,11,30,1,1,3,3
14.085,0,1,13,31,1,2,2,9
14.09,2,1,5,14,25,10,5,7
14.095,6,5,2,22,23,5,1,7
14.1,4,0,13,16,9,4,0,3
14.105,4,13,12,17,15,1,1,4
14.11,2,3,4,53,2,3,1,5
14.115,2,6,18,30,16,4,4,3
14.12,3,1,3,33,6,2,1,1
14.125,8,3,11,12,9,1,1,1
14.13,3,0,9,1,2,3,2,4
14.135,3,6,0,22,5,2,2,5
14.14,7,1,3,18,5,3,1,2
14.145,1,1,12,9,4,0,1,2
14.15,1,0,5,6,11,1,2,2
14.155,0,1,9,6,0,1,3,1
14.16,1,2,2,16,11,8,4,2
14.165,5,1,9,18,16,4,0,1
14.17,0,3,0,30,3,3,1,3
14.175,2,1,0,17,4,1,2,2
14.18,1,1,13,1,10,8,4,5
14.185,1,2,0,4,4,1,4,1
14.19,1,2,5,19,20,0,2,1
14.195,1,6,9,4,3,3,0,1
14.2,4,2,1,4,10,4,1,1
14.205,1,2,1,3,10,2,0,1
14.21,3,3,10,17,2,4,3,5
14.215,1,1,7,18,2,1,0,1
14.22,1,3,3,14,2,2,0,4
14.225,3,1,6,15,5,1,1,3
14.23,1,2,2,3,14,4,1,0
14.235,1,2,3,2,5,0,1,0
14.24,2,0,8,0,6,2,3,1
14.245,3,2,0,2,2,4,4,3
14.25,1,3,4,6,4,3,2,1
14.255,2,0,4,16,10,3,2,2
14.26,0,4,7,43,1,2,4,2
14.265,0,1,2,4,2,2,1,1
14.27,2,2,1,9,5,1,1,2
14.275,2,3,4,11,4,3,1,0
14.28,1,1,2,2,6,2,2,3
14.285,2,3,1,19,13,3,2,2
14.29,2,2,10,57,16,5,0,1
14.295,2,1,4,24,11,3,3,1
14.3,0,0,1,8,5,2,1,1
14.305,0,3,8,5,17,4,4,0
14.31,1,2,5,16,13,5,1,2
14.315,1,0,1,1,0,4,1,2
14.32,0,1,3,5,3,0,0,0
14.325,2,0,3,10,5,0,1,3
14.33,2,1,1,20,5,1,0,0
14.335,1,3,1,3,9,1,1,1
14.34,1,0,3,5,2,5,2,1
14.345,1,1,0,1,1,1,0,2
14.35,2,0,3,1,8,3,1,3
14.355,3,2,0,38,4,2,1,4
14.36,1,1,1,22,7,2,1,0
14.365,1,3,3,95,7,1,1,0
14.37,0,1,2,2,19,9,0,0
14.375,1,1,5,2,49,14,5,3
14.38,1,3,5,15,49,12,7,2
14.385,2,2,4,68,23,6,4,2
14.39,1,2,6,49,15,0,2,0
14.395,1,2,4,85,5,1,3,1
14.4,0,3,2,31,22,4,2,1
14.405,2,1,2,46,10,4,0,0
14.41,1,2,2,26,13,4,5,2
14.415,2,1,1,6,4,1,2,1
14.42,4,4,7,40,5,6,5,4
14.425,0,0,3,24,7,3,1,1
14.43,2,0,1,36,13,6,5,2
14.435,1,2,3,10,6,1,1,0
14.44,2,1,2,9,8,2,1,2
14.445,1,2,1,15,5,3,0,0
14.45,2,2,0,4,5,4,1,0
14.455,2,1,1,21,5,2,2,1
14.46,1,2,1,3,6,2,2,1
14.465,1,1,2,2,5,0,1,0
14.47,2,3,1,23,1,3,0,1
14.475,0,1,3,31,5,5,2,1
14.48,2,1,1,10,9,3,1,1
14.485,0,1,2,10,1,2,1,0
14.49,2,1,2,4,7,3,3,1
14.495,1,1,1,42,2,1,4,2
14.5,0,2,2,4,8,2,1,1
14.505,1,1,3,4,8,0,1,3
14.51,2,2,3,13,2,2,1,1
14.515,1,0,1,16,4,2,2,1
14.52,1,0,1,12,7,3,1,1
14.525,1,1,1,0,1,2,2,1
14.53,1,1,1,3,4,3,1,3
14.535,0,0,0,0,3,0,1,0
14.54,2,1,3,4,7,2,1,3
14.545,0,3,2,1,3,0,0,1
14.55,8,1,1,9,3,2,3,2
14.555,7,1,1,13,0,1,0,4
14.56,3,3,2,12,0,0,0,2
14.565,1,1,0,4,1,2,3,1
14.57,1,0,3,10,2,0,2,3
14.575,5,2,4,1,0,2,0,4
14.58,2,2,0,2,3,1,2,1
14.585,1,0,3,3,2,2,0,1
14.59,0,0,1,3,3,2,1,2
14.595,1,0,12,2,1,1,1,1
14.6,0,1,12,12,0,2,1,3
14.605,2,1,23,11,3,4,1,0
14.61,9,10,2,5,2,0,2,3
14.615,5,2,5,2,5,1,0,3
14.62,2,3,4,10,4,3,1,4
14.625,4,3,13,5,3,3,3,5
14.63,11,8,31,7,3,3,2,2
14.635,11,6,30,42,10,5,4,0
14.64,15,1,30,22,1,5,4,19
14.645,4,9,14,19,6,1,1,5
14.65,27,8,60,78,8,4,1,4
14.655,25,19,32,77,4,3,1,3
14.66,23,2,60,87,4,0,1,23
14.665,3,15,31,101,10,6,4,9
14.67,1,24,7,81,1,0,1,10
14.675,16,36,91,12,8,3,3,0
14.68,8,74,25,41,12,6,1,4
14.685,18,3,30,28,4,3,4,4
14.69,26,6,6,13,5,3,3,4
14.695,80,5,5,28,9,3,3,7
14.7,15,30,39,14,12,5,1,5
14.705,6,12,64,28,5,2,0,1
14.71,2,2,10,3,5,1,2,1
14.715,9,20,40,25,4,4,2,2
14.72,6,19,38,39,1,1,1,1
14.725,21,22,45,12,9,5,5,4
14.73,2,5,6,7,2,8,3,5
14.735,22,4,12,52,9,2,4,4
14.74,28,20,34,45,11,1,7,11
14.745,8,12,47,0,2,2,0,3
14.75,5,16,61,32,6,2,1,6
14.755,18,1,6,27,2,4,6,1
14.76,4,21,53,51,3,6,2,0
14.765,12,6,3,6,8,2,4,9
14.77,11,6,26,7,5,5,4,2
14.775,4,19,15,21,5,4,1,1
14.78,1,18,53,2,8,1,2,1
14.785,5,28,60,1,2,5,0,0
14.79,42,20,17,3,1,4,4,22
14.795,8,15,5,20,7,4,3,9
14.8,3,14,37,1,14,2,0,0
14.805,9,13,9,20,2,2,2,0
14.81,14,23,28,18,7,1,1,2
14.815,19,17,26,23,4,1,1,2
14.82,9,36,39,18,12,5,2,3
14.825,2,13,14,45,5,1,1,6
14.83,4,8,7,10,14,1,1,7
14.835,3,20,20,6,15,3,5,3
14.84,4,22,23,3,1,1,1,3
14.845,7,3,21,14,4,3,2,0
14.85,16,14,22,27,1,1,1,8
14.855,4,1,8,32,10,3,0,1
14.86,5,6,21,15,5,3,1,4
14.865,6,7,18,16,1,3,0,4
14.87,8,9,13,38,7,1,1,1
14.875,3,0,10,13,6,7,3,1
14.88,4,6,4,10,9,1,1,2
14.885,7,10,15,9,4,3,1,5
14.89,8,3,3,1,2,1,0,4
14.895,3,8,10,5,2,3,1,0
14.9,5,0,9,10,6,4,4,2
14.905,3,7,4,4,14,1,2,2
14.91,2,2,1,12,10,6,1,2
14.915,2,14,1,17,1,2,4,3
14.92,3,6,15,12,6,5,3,1
14.925,1,1,7,4,12,0,1,1
14.93,4,0,6,15,6,2,2,1
14.935,3,10,18,8,14,2,1,0
14.94,3,6,5,12,12,2,0,0
14.945,0,3,2,5,5,7,1,2
14.95,5,3,5,36,5,1,1,7
14.955,4,5,14,8,16,9,3,2
14.96,0,7,11,12,7,1,1,2
14.965,2,6,27,19,2,0,3,1
14.97,0,5,10,4,11,3,2,3
14.975,1,6,10,21,11,5,2,2
14.98,3,1,8,3,7,4,3,0
14.985,1,3,8,5,4,8,2,0
14.99,2,3,6,8,3,3,1,4
14.995,1,2,11,8,0,1,1,1
15,0,2,6,17,0,3,4,1
15.005,0,1,6,34,3,4,2,4
15.01,1,2,15,51,11,1,0,1
15.015,1,5,13,24,6,6,2,0
15.02,2,0,1,4,1,4,2,1
15.025,1,1,5,24,5,6,3,1
15.03,3,0,12,14,5,3,3,3
15.035,2,8,26,8,3,2,3,1
15.04,1,2,6,4,6,3,1,1
15.045,2,1,5,7,5,1,3,1
15.05,2,3,3,10,5,1,1,1
15.055,1,0,5,7,7,0,1,0
15.06,1,1,0,8,13,3,2,0
15.065,1,7,6,6,10,2,0,2
15.07,1,11,1,15,4,0,0,0
15.075,2,8,2,0,4,4,4,4
15.08,1,1,2,11,3,2,2,1
15.085,0,1,7,1,3,1,2,0
15.09,2,1,3,1,1,1,1,0
15.095,1,7,6,2,3,3,1,0
15.1,5,6,12,3,9,0,3,5
15.105,0,2,4,17,5,1,0,5
15.11,2,1,13,9,5,7,4,5
15.115,2,0,17,1,7,0,0,1
15.12,3,1,5,3,4,2,1,2
15.125,2,1,7,1,1,2,1,1
15.13,1,2,12,18,2,1,1,1
15.135,1,2,13,10,1,2,1,0
15.14,4,2,6,14,5,7,4,3
15.145,0,1,11,19,7,1,3,4
15.15,4,1,5,4,2,3,1,0
15.155,1,4,1,12,6,3,2,1
15.16,0,0,3,1,12,0,0,0
15.165,2,0,3,5,3,1,1,0
15.17,1,1,2,6,4,2,1,3
15.175,2,3,9,16,1,2,1,1
15.18,1,1,6,2,6,2,3,0
15.185,1,1,2,0,8,1,2,2
15.19,1,3,12,2,0,3,2,2
15.195,3,3,12,1,3,4,1,2
15.2,1,2,3,6,12,0,1,0
15.205,1,1,3,1,6,0,1,2
15.21,2,4,1,28,30,7,2,1
15.215,1,4,9,77,32,2,2,0
15.22,1,1,1,34,9,4,2,0
15.225,1,3,0,7,11,3,3,3
15.23,0,2,0,4,1,2,1,0
15.235,0,2,2,4,14,7,3,2
15.24,1,2,0,18,5,4,2,1
15.245,0,1,2,22,12,3,2,1
15.25,1,4,1,1,9,3,2,2
15.255,1,2,4,9,9,4,2,1
15.26,0,2,1,12,4,1,1,1
15.265,4,2,3,32,4,1,2,4
15.27,0,0,1,28,6,4,1,1
15.275,2,2,2,15,14,4,3,0
15.28,0,2,2,21,2,2,2,2
15.285,1,2,0,12,11,7,5,3
15.29,4,1,2,4,5,1,2,3
15.295,3,0,1,16,3,3,0,1
15.3,1,1,1,4,11,2,0,1
15.305,0,2,1,2,7,4,2,1
15.31,2,5,6,16,3,2,4,2
15.315,2,0,0,6,12,3,1,1
15.32,1,0,0,6,4,1,0,2
15.325,1,0,0,10,12,1,2,1
15.33,2,1,3,2,7,2,1,1
15.335,2,1,5,11,9,3,4,4
15.34,2,1,0,3,3,2,3,2
15.345,0,0,3,4,7,1,2,1
15.35,0,0,1,8,0,3,2,2
15.355,0,2,2,8,2,0,1,2
15.36,2,2,3,13,12,2,0,1
15.365,0,1,0,7,2,5,2,1
15.37,1,1,0,4,2,1,0,0
15.375,1,2,0,3,0,3,3,0
15.38,2,0,1,10,4,1,2,1
15.385,3,2,0,3,4,2,4,0
15.39,1,2,3,8,3,1,1,1
15.395,0,3,1,4,1,2,1,1
15.4,1,2,1,6,4,1,1,0
15.405,1,2,2,5,1,3,3,0
15.41,0,0,0,0,2,3,3,0
15.415,2,0,1,5,2,1,3,1
15.42,1,1,8,13,3,1,0,1
15.425,2,1,4,8,3,0,0,2
15.43,1,2,3,3,1,0,2,1
15.435,1,1,0,5,1,1,1,0
15.44,0,1,6,7,2,2,2,1
15.445,0,3,4,7,0,3,1,2
15.45,1,1,11,2,1,3,0,0
15.455,1,5,2,5,0,1,3,1
15.46,7,10,20,9,6,6,5,6
15.465,2,2,10,5,3,1,1,1
15.47,3,4,24,6,3,3,0,1
15.475,3,0,11,2,0,1,1,1
15.48,3,3,0,1,1,1,0,2
15.485,3,3,10,8,8,3,0,3
15.49,1,2,11,9,3,2,3,1
15.495,4,7,26,16,4,0,3,1
15.5,11,10,23,26,5,8,3,7
15.505,5,9,19,27,5,2,3,3
15.51,10,3,19,10,0,1,3,1
15.515,8,3,29,2,6,6,4,7
15.52,6,4,50,6,5,8,7,7
15.525,1,10,92,34,3,1,2,4
15.53,14,1,10,61,11,5,5,5
15.535,8,7,30,23,3,5,3,1
15.54,7,2,4,15,5,2,1,2
15.545,6,9,42,25,0,2,1,3
15.55,16,2,20,52,5,3,4,3
15.555,11,10,22,20,2,1,3,8
15.56,7,1,4,10,12,2,1,8
15.565,11,1,18,16,5,3,1,2
15.57,1,1,4,12,8,2,1,2
15.575,0,2,16,0,7,4,4,4
15.58,9,4,9,4,16,8,2,3
15.585,1,3,5,24,12,6,3,4
15.59,14,10,29,29,7,1,2,1
15.595,0,1,58,14,2,4,3,6
15.6,4,2,3,15,10,2,2,2
15.605,5,4,15,3,2,2,3,0
15.61,9,1,1,25,9,4,1,0
15.615,2,4,5,34,8,5,2,3
15.62,3,6,23,12,7,3,1,0
15.625,0,0,18,6,4,2,1,1
15.63,0,1,1,5,3,2,1,0
15.635,1,7,20,10,5,4,5,2
15.64,5,1,10,51,2,0,2,5
15.645,7,3,5,45,4,3,3,1
15.65,10,1,13,12,1,1,1,2
15.655,1,0,8,10,3,2,2,0
15.66,1,8,2,8,0,0,0,4
15.665,0,1,8,30,0,5,1,1
15.67,8,6,15,14,5,3,2,4
15.675,1,2,1,8,4,0,1,1
15.68,0,2,1,31,8,1,1,1
15.685,2,2,3,2,10,4,4,3
15.69,4,0,7,20,4,1,1,0
15.695,0,0,5,22,11,3,2,1
15.7,3,2,8,36,9,3,1,4
15.705,0,2,2,3,2,2,1,2
15.71,4,1,0,4,12,2,0,2
15.715,2,1,7,10,11,5,3,1
15.72,0,0,5,3,3,1,1,1
15.725,0,1,9,12,9,5,3,1
15.73,1,3,7,9,3,0,0,1
15.735,1,5,1,15,2,1,1,3
15.74,2,2,4,2,2,1,1,0
15.745,4,3,0,3,4,2,1,1
15.75,3,2,5,12,5,2,2,2
15.755,1,0,4,19,2,3,2,0
15.76,1,0,8,13,2,1,2,3
15.765,2,1,2,8,0,0,1,4
15.77,2,0,3,2,3,3,1,1
15.775,2,3,1,9,5,4,2,3
15.78,1,1,3,6,2,2,0,1
15.785,0,1,3,9,3,3,0,0
15.79,5,0,1,7,5,4,4,2
15.795,0,1,1,2,1,0,1,0
15.8,2,1,4,6,0,1,1,0
15.805,0,1,1,1,1,2,0,0
15.81,2,1,3,5,10,4,2,3
15.815,2,2,1,11,6,1,3,2
15.82,2,1,3,4,1,1,1,1
15.825,1,1,7,4,7,1,1,2
15.83,1,2,3,6,6,1,2,0
15.835,1,1,1,10,10,3,0,2
15.84,1,2,7,5,14,2,3,2
15.845,1,1,0,6,4,4,2,2
15.85,1,0,4,17,11,2,0,1
15.855,1,1,3,18,6,0,2,1
15.86,4,4,19,15,6,3,3,4
15.865,0,2,4,4,3,1,2,1
15.87,2,0,2,3,3,0,1,2
15.875,2,0,1,1,5,1,0,2
15.88,2,4,6,2,13,3,2,2
15.885,3,5,5,5,5,2,4,2
15.89,0,1,2,10,4,1,1,0
15.895,3,6,6,2,5,1,1,0
15.9,1,2,10,3,4,3,1,2
15.905,1,3,6,8,3,2,2,0
15.91,1,2,7,1,5,2,3,1
15.915,3,3,37,5,5,2,0,0
15.92,5,0,44,59,7,0,3,3
15.925,1,1,23,12,7,0,1,0
15.93,5,1,57,46,5,4,3,2
15.935,4,6,29,17,3,6,4,5
15.94,1,3,42,17,12,5,3,0
15.945,8,4,38,10,7,7,4,8
15.95,4,0,25,45,1,1,3,2
15.955,1,2,16,71,12,7,2,3
15.96,18,7,2,38,4,4,3,6
15.965,5,0,6,8,1,1,1,3
15.97,5,2,37,32,8,3,6,8
15.975,25,6,31,10,4,6,6,10
15.98,26,1,1,7,3,4,1,1
15.985,10,0,12,1,0,2,0,4
15.99,12,2,2,19,3,1,2,2
15.995,20,4,9,36,4,2,0,6
16,9,7,30,16,4,0,1,3
16.005,5,3,6,6,4,3,2,9
16.01,2,0,12,13,5,2,2,8
16.015,3,1,23,56,7,1,0,9
16.02,4,0,26,62,7,0,0,12
16.025,6,2,5,19,3,2,1,7
16.03,2,8,4,9,8,7,6,6
16.035,13,2,9,40,1,4,6,6
16.04,23,2,28,16,16,7,10,6
16.045,17,1,6,5,13,4,3,9
16.05,6,2,13,30,4,3,5,5
16.055,23,5,12,54,14,3,4,1
16.06,2,5,32,115,21,13,9,1
16.065,9,5,18,72,3,2,4,8
16.07,12,4,2,5,6,4,4,2
16.075,7,2,19,8,6,0,10,4
16.08,1,1,24,17,4,2,5,2
16.085,5,4,18,8,0,0,1,9
16.09,32,6,41,53,4,4,4,30
16.095,17,4,1,26,1,4,5,11
16.1,11,2,6,57,2,2,3,0
16.105,8,7,3,35,2,1,1,18
16.11,12,5,55,13,2,6,4,1
16.115,44,4,15,17,4,2,1,9
16.12,21,4,33,29,3,1,1,18
16.125,3,1,5,32,2,1,2,1
16.13,9,8,10,7,0,1,3,7
16.135,10,6,17,15,3,3,4,16
16.14,4,0,7,7,4,2,0,14
16.145,4,2,18,30,6,0,2,4
16.15,5,3,21,71,10,4,3,4
16.155,5,3,10,16,1,4,1,3
16.16,0,2,4,0,0,2,3,3
16.165,2,4,3,28,1,0,2,4
16.17,2,2,1,60,3,3,0,1
16.175,5,2,13,41,6,3,3,1
16.18,0,1,12,15,4,3,1,3
16.185,2,1,5,13,7,1,2,4
16.19,2,2,9,27,0,5,4,4
16.195,7,3,6,15,2,2,1,4
16.2,1,3,3,25,0,4,1,5
16.205,2,1,7,33,5,1,0,5
16.21,2,1,9,13,1,3,2,1
16.215,7,0,4,6,0,1,0,3
16.22,4,0,8,2,0,0,1,0
16.225,2,6,11,4,7,2,3,0
16.23,2,1,5,5,3,1,0,3
16.235,1,2,1,3,0,2,0,5
16.24,0,1,8,1,2,2,2,4
16.245,1,1,1,33,4,3,3,1
16.25,0,5,8,8,1,1,2,2
16.255,3,1,2,1,2,0,0,0
16.26,2,1,6,9,2,2,2,3
16.265,1,3,4,1,1,1,1,1
16.27,4,1,13,1,8,3,2,5
16.275,3,2,1,10,6,2,1,4
16.28,1,1,8,13,11,2,1,1
16.285,2,1,6,15,1,3,1,1
16.29,1,0,2,7,1,1,2,7
16.295,3,4,1,15,1,1,3,3
16.3,3,2,13,23,2,1,3,4
16.305,1,1,15,22,8,3,0,3
16.31,1,0,4,5,1,1,0,4
16.315,1,0,5,14,1,0,0,1
16.32,3,1,11,4,3,4,3,3
16.325,0,1,2,3,3,1,1,0
16.33,1,3,4,10,3,2,1,3
16.335,1,0,9,14,6,0,2,1
16.34,1,3,12,1,0,2,1,2
16.345,4,3,7,26,1,3,4,4
16.35,2,0,4,5,9,1,0,0
16.355,1,1,7,1,0,2,3,2
16.36,1,0,7,26,8,1,1,5
16.365,3,1,3,15,15,4,1,5
16.37,3,1,3,4,1,4,0,0
16.375,4,1,4,1,2,3,1,1
16.38,1,1,7,11,3,2,1,1
16.385,1,1,4,4,8,3,0,4
16.39,3,2,5,3,8,4,0,1
16.395,2,2,5,3,2,1,0,2
16.4,1,1,10,4,0,1,1,2
16.405,1,2,3,3,1,2,1,1
16.41,1,2,5,14,3,4,2,2
16.415,4,3,4,5,1,2,1,4
16.42,0,0,1,9,1,3,0,1
16.425,4,0,8,15,8,5,0,4
16.43,3,2,1,2,4,0,0,3
16.435,1,1,10,24,3,2,1,1
16.44,1,0,5,0,2,1,2,1
16.445,4,0,8,8,6,5,5,2
16.45,3,1,7,16,2,6,1,2
16.455,2,3,38,34,2,2,1,2
16.46,2,1,4,0,1,1,0,0
16.465,1,2,3,1,8,4,2,1
16.47,1,2,4,6,5,0,1,3
16.475,1,1,7,5,3,1,1,1
16.48,0,1,12,13,1,1,1,2
16.485,2,0,7,7,4,3,1,1
16.49,0,0,18,5,3,3,1,1
16.495,3,2,0,15,0,0,3,1
16.5,0,1,2,0,0,2,1,0
16.505,1,0,8,10,1,3,3,1
16.51,1,1,6,3,5,2,0,2
16.515,4,2,7,2,2,2,3,3
16.52,1,2,4,5,7,5,5,0
16.525,2,1,7,2,4,2,2,1
16.53,1,2,6,7,1,1,3,1
16.535,1,1,0,0,3,3,2,2
16.54,0,1,1,10,5,1,3,2
16.545,2,1,9,22,2,2,2,4
16.55,0,0,8,13,3,1,0,1
16.555,0,1,4,5,1,2,1,2
16.56,4,3,0,12,4,1,2,2
16.565,2,2,1,11,4,4,3,2
16.57,1,2,16,26,1,1,1,2
16.575,2,2,8,32,2,5,2,4
16.58,1,2,7,22,8,0,0,0
16.585,2,1,4,10,2,3,1,2
16.59,0,2,7,12,5,4,3,1
16.595,1,2,1,10,8,1,0,1
16.6,2,1,1,0,3,1,1,4
16.605,1,1,4,11,2,2,2,1
16.61,1,1,4,4,1,3,0,0
16.615,4,3,2,6,6,1,4,3
16.62,1,1,5,0,2,3,0,3
16.625,1,2,6,9,5,3,1,1
16.63,2,3,4,12,11,2,2,2
16.635,1,1,1,15,12,2,1,1
16.64,1,2,5,0,5,4,2,1
16.645,2,3,3,11,0,2,1,2
16.65,2,1,3,13,4,3,2,2
16.655,0,0,10,7,6,1,2,1
16.66,1,2,6,0,0,1,2,2
16.665,0,2,5,10,4,3,1,2
16.67,3,2,4,3,1,0,2,2
16.675,1,0,5,3,5,4,3,2
16.68,2,2,4,15,2,2,3,2
16.685,3,1,0,14,3,1,2,2
16.69,2,3,2,1,5,1,0,1
16.695,1,1,10,22,2,1,0,0
16.7,2,1,10,4,4,1,0,1
16.705,3,4,9,14,2,0,0,1
16.71,2,2,17,1,3,3,2,1
16.715,0,9,17,26,4,0,0,0
16.72,2,0,9,17,6,1,1,3
16.725,0,1,6,24,4,1,2,1
16.73,0,0,3,3,4,0,0,1
16.735,2,1,14,18,5,3,2,2
16.74,0,1,13,27,13,2,2,0
16.745,2,1,6,6,0,2,1,1
16.75,0,0,12,9,6,1,0,1
16.755,3,2,2,18,3,4,2,1
16.76,0,5,8,3,0,1,2,1
16.765,4,2,4,18,2,0,1,1
16.77,4,3,1,25,2,1,1,2
16.775,0,1,1,6,2,2,1,1
16.78,2,1,5,10,9,5,3,2
16.785,1,1,11,12,0,0,0,3
16.79,2,1,13,9,1,2,0,1
16.795,6,8,10,5,1,2,1,4
16.8,0,3,1,3,4,3,0,2
16.805,1,1,2,1,5,2,2,0
16.81,2,1,1,12,3,2,0,1
16.815,2,1,7,11,5,0,1,2
16.82,5,2,5,12,3,2,1,2
16.825,3,4,1,8,6,1,0,2
16.83,7,0,1,6,8,2,0,6
16.835,11,6,10,2,4,0,0,1
16.84,18,5,19,6,5,2,2,7
16.845,18,1,10,10,7,5,2,2
16.85,4,4,7,11,10,3,3,2
16.855,4,1,2,3,1,0,1,1
16.86,12,3,13,24,5,3,1,3
16.865,17,3,8,10,10,4,2,4
16.87,1,2,5,1,2,0,1,9
16.875,16,14,19,21,12,5,2,2
16.88,39,4,21,53,7,2,1,5
16.885,30,5,19,19,4,2,1,3
16.89,6,2,1,25,7,3,0,7
16.895,3,3,15,12,4,2,4,5
16.9,12,10,27,9,1,4,3,4
16.905,17,9,37,14,3,2,2,32
16.91,19,8,9,2,4,4,9,37
16.915,1,2,3,0,3,0,2,4
16.92,22,3,5,4,9,1,2,6
16.925,17,3,13,52,3,1,2,3
16.93,20,6,28,69,11,3,3,1
16.935,13,9,10,3,1,6,3,27
16.94,22,7,30,18,4,1,0,29
16.945,3,12,36,5,9,4,2,0
16.95,85,11,3,24,11,9,3,6
16.955,10,21,32,7,12,6,1,15
16.96,30,7,16,24,5,6,3,17
16.965,3,1,18,6,22,4,4,11
16.97,21,7,7,12,7,4,3,2
16.975,10,6,84,1,0,1,2,7
16.98,12,3,79,1,1,3,6,0
16.985,11,25,65,20,1,5,7,16
16.99,29,23,28,54,16,8,5,14
16.995,8,21,1,64,17,8,5,7
17,18,2,32,10,3,3,2,5
17.005,12,2,40,54,1,8,3,7
17.01,17,1,58,62,7,6,3,11
17.015,10,32,7,11,11,7,3,5
17.02,12,24,20,0,5,5,3,0
17.025,11,8,16,31,8,2,0,15
17.03,11,23,35,7,10,6,2,4
17.035,7,13,49,46,6,1,1,13
17.04,6,8,21,74,3,6,1,4
17.045,13,12,64,44,7,2,1,6
17.05,12,4,51,1,17,14,6,1
17.055,2,4,20,24,8,3,1,1
17.06,15,18,16,13,6,0,2,1
17.065,7,3,3,24,5,0,4,7
17.07,20,2,22,63,21,1,0,1
17.075,12,1,45,49,4,1,5,10
17.08,1,23,83,7,13,4,2,5
17.085,1,12,53,69,24,2,0,1
17.09,9,5,20,4,17,2,2,4
17.095,1,0,21,11,1,3,5,2
17.1,5,4,14,51,8,0,0,1
17.105,20,6,13,1,1,2,0,5
17.11,4,1,12,1,4,2,0,10
17.115,1,4,7,26,3,1,1,2
17.12,5,6,1,13,0,2,0,1
17.125,11,0,10,24,2,3,3,4
17.13,6,10,17,7,5,0,1,2
17.135,2,2,7,40,4,3,2,9
17.14,7,2,3,56,2,1,1,2
17.145,3,4,22,53,0,1,1,9
17.15,6,2,3,11,3,2,2,1
17.155,1,3,7,18,10,3,3,5
17.16,0,3,5,6,12,0,2,0
17.165,0,4,15,10,4,4,0,4
17.17,4,1,0,3,2,4,3,0
17.175,0,1,3,25,5,1,0,2
17.18,2,3,4,7,2,4,1,1
17.185,5,2,5,19,21,3,0,4
17.19,3,1,5,0,38,2,2,1
17.195,4,4,4,15,22,2,0,0
17.2,1,3,1,2,1,6,2,0
17.205,1,1,1,20,11,11,4,4
17.21,2,1,3,3,11,1,0,2
17.215,1,2,3,0,11,2,2,3
17.22,1,4,8,10,5,4,3,0
17.225,0,2,1,20,0,2,0,4
17.23,0,3,6,43,15,1,2,0
17.235,2,1,2,7,19,1,1,2
17.24,2,2,1,21,8,4,3,3
17.245,2,0,4,6,8,1,1,1
17.25,0,4,2,13,6,2,2,1
17.255,1,5,1,4,7,4,4,4
17.26,0,1,2,17,9,2,2,0
17.265,2,1,2,5,11,1,0,1
17.27,1,1,1,23,5,0,0,2
17.275,0,0,1,12,6,4,3,3
17.28,2,6,6,5,4,0,0,1
17.285,1,2,3,18,8,3,0,1
17.29,4,2,1,15,4,3,3,1
17.295,0,0,5,12,2,1,1,1
17.3,3,1,1,6,1,5,1,2
17.305,0,2,2,13,8,4,1,1
17.31,1,2,2,8,6,1,1,2
17.315,2,2,1,2,1,0,3,3
17.32,2,3,2,6,5,1,1,1
17.325,1,1,1,11,8,2,3,0
17.33,0,1,0,15,5,0,3,1
17.335,2,0,1,9,4,3,0,0
17.34,4,8,5,20,4,2,1,1
17.345,1,1,1,10,11,0,2,0
17.35,2,1,0,9,1,1,1,1
17.355,3,3,1,2,0,0,2,3
17.36,3,1,2,24,2,1,0,0
17.365,2,2,2,5,6,5,2,3
17.37,1,3,0,16,1,1,2,2
17.375,0,1,6,50,14,1,1,2
17.38,2,1,2,21,13,3,1,2
17.385,2,0,4,15,0,2,4,2
17.39,1,1,2,11,3,3,1,1
17.395,2,3,3,22,6,1,1,1
17.4,1,0,1,4,9,2,2,1
17.405,1,2,4,17,5,3,1,1
17.41,4,2,2,7,2,0,2,2
17.415,0,2,1,12,2,3,3,0
17.42,1,1,1,2,6,1,1,1
17.425,2,1,0,3,2,0,0,2
17.43,2,2,2,25,9,2,2,2
17.435,0,0,2,25,14,1,0,2
17.44,2,1,0,2,12,2,2,4
17.445,0,3,1,1,1,2,2,2
17.45,1,1,0,3,1,2,2,0
17.455,1,2,2,9,2,1,1,1
17.46,1,1,1,8,4,0,0,1
17.465,2,2,4,8,2,0,0,0
17.47,1,3,2,2,8,1,1,2
17.475,0,1,1,8,0,2,1,1
17.48,2,1,0,3,2,2,2,1
17.485,2,2,1,4,1,1,0,2
17.49,0,0,2,6,1,2,1,1
17.495,2,0,7,2,1,5,2,3
17.5,3,4,1,4,1,1,1,1
17.505,0,2,6,5,2,1,2,4
17.51,2,0,0,0,6,0,1,1
17.515,4,1,5,3,1,0,0,2
17.52,2,2,12,0,1,3,4,6
17.525,2,1,2,4,3,1,1,1
17.53,1,1,2,2,1,2,3,2
17.535,2,4,3,4,3,1,1,2
17.54,2,0,0,6,1,2,2,2
17.545,2,2,3,11,3,1,0,1
17.55,3,1,8,9,1,1,1,0
17.555,7,3,1,9,4,2,3,3
17.56,1,0,8,12,4,3,2,5
17.565,2,3,18,16,8,1,0,3
17.57,38,2,26,16,3,4,2,14
17.575,33,0,35,23,7,5,2,11
17.58,8,8,55,45,8,2,0,5
17.585,9,3,33,5,1,5,3,12
17.59,29,4,28,77,8,0,5,26
17.595,2,0,64,52,5,1,2,7
17.6,11,7,22,17,5,2,3,6
17.605,8,7,52,61,11,4,6,0
17.61,7,17,42,32,27,15,14,1
17.615,33,2,41,51,26,10,5,15
17.62,29,8,3,47,2,5,3,14
17.625,19,3,6,122,32,12,5,4
17.63,7,10,17,68,11,5,0,5
17.635,14,9,46,44,13,9,5,28
17.64,16,9,77,76,3,1,1,21
17.645,13,3,11,72,7,7,3,1
17.65,28,4,19,64,6,0,4,6
17.655,13,8,5,6,22,0,2,8
17.66,15,16,42,8,8,1,3,3
17.665,0,6,40,33,12,9,4,6
17.67,9,3,5,56,4,4,3,4
17.675,1,3,5,9,15,3,2,3
17.68,2,9,45,90,2,5,4,4
17.685,4,0,8,6,4,2,1,8
17.69,3,4,2,50,6,1,1,0
17.695,15,10,20,108,1,3,1,4
17.7,33,10,53,65,5,6,5,1
17.705,45,8,26,58,6,3,4,2
17.71,4,9,54,6,10,6,5,22
17.715,2,9,48,9,1,1,3,6
17.72,6,3,40,5,4,0,1,17
17.725,11,4,7,20,2,0,4,20
17.73,1,7,26,57,1,3,2,7
17.735,12,18,64,1,4,4,5,7
17.74,2,10,11,6,4,5,4,1
17.745,0,3,35,22,2,3,1,7
17.75,6,17,50,2,19,6,2,3
17.755,14,5,33,70,9,4,2,2
17.76,6,2,21,55,14,3,3,10
17.765,4,6,6,25,13,4,1,2
17.77,5,7,17,36,1,2,3,0
17.775,3,11,12,47,6,3,1,4
17.78,2,3,9,13,10,1,1,6
17.785,2,6,6,16,3,0,3,5
17.79,5,7,21,17,8,3,0,2
17.795,13,1,3,0,15,9,3,5
17.8,24,0,6,1,3,0,1,6
17.805,15,13,12,57,11,0,3,5
17.81,17,22,35,98,13,2,8,26
17.815,8,3,28,17,5,4,6,27
17.82,13,10,52,19,6,2,6,7
17.825,2,2,19,19,11,2,1,4
17.83,13,4,5,37,5,3,2,3
17.835,29,15,52,49,15,5,1,23
17.84,5,2,7,16,0,5,5,37
17.845,11,2,5,6,7,6,0,5
17.85,4,4,25,20,6,3,2,2
17.855,3,4,18,6,13,6,4,5
17.86,4,1,25,24,8,2,1,5
17.865,5,3,31,37,9,3,2,3
17.87,6,7,2,118,12,3,2,15
17.875,4,8,34,81,12,7,4,3
17.88,13,2,1,71,13,2,2,4
17.885,9,10,25,16,10,0,3,1
17.89,2,2,18,10,9,6,3,14
17.895,5,2,22,8,3,3,1,4
17.9,6,1,19,18,2,0,3,6
17.905,7,1,12,6,12,6,6,0
17.91,2,7,29,42,21,3,3,0
17.915,0,2,5,15,11,1,1,4
17.92,1,1,24,2,3,2,1,5
17.925,5,2,3,13,1,3,3,7
17.93,4,5,10,12,6,3,2,2
17.935,6,4,22,2,1,2,3,3
17.94,3,3,13,32,1,5,2,8
17.945,3,2,1,16,5,7,3,3
17.95,2,1,3,2,2,8,1,0
17.955,1,4,2,6,4,4,0,1
17.96,2,9,15,17,2,2,2,4
17.965,4,1,3,3,8,4,0,2
17.97,0,0,5,6,4,1,3,4
17.975,3,1,5,2,1,2,0,4
17.98,2,3,4,17,7,1,0,0
17.985,3,0,4,8,25,0,2,0
17.99,2,1,2,16,8,2,1,4
17.995,2,4,3,11,18,0,2,1
18,1,0,1,4,19,3,3,3
18.005,1,3,2,1,7,2,2,1
18.01,0,0,5,10,3,3,1,0
18.015,2,1,4,27,5,1,2,3
18.02,2,1,1,3,4,2,1,1
18.025,4,3,8,44,10,2,1,1
18.03,1,1,0,6,1,0,1,2
18.035,0,0,2,14,3,8,1,0
18.04,1,1,2,4,8,2,2,1
18.045,2,4,2,6,1,1,0,1
18.05,2,1,0,9,1,5,3,1
18.055,1,2,0,4,5,2,1,1
18.06,0,0,3,3,11,1,1,0
18.065,4,3,2,0,3,5,1,4
18.07,2,0,3,26,6,5,3,2
18.075,1,2,5,15,5,2,2,2
18.08,1,2,3,1,5,0,0,1
18.085,3,2,2,13,2,2,2,1
18.09,1,1,0,9,1,5,3,2
18.095,2,4,1,1,6,3,0,2
18.1,1,2,1,8,1,2,1,0
18.105,0,1,3,3,2,0,2,2
18.11,1,1,0,7,9,2,1,0
18.115,1,1,3,7,4,2,3,1
18.12,2,0,2,8,7,2,3,2
18.125,3,2,3,5,16,4,0,0
18.13,2,3,1,1,2,1,1,1
18.135,2,1,0,4,8,2,0,1
18.14,1,1,2,13,8,4,1,1
18.145,1,0,1,8,9,0,1,0
18.15,3,1,0,4,6,2,3,1
18.155,3,0,2,7,3,2,0,0
18.16,2,2,2,5,2,2,1,2
18.165,1,2,0,12,4,1,0,0
18.17,1,3,1,11,0,2,1,1
18.175,1,1,1,13,6,0,0,1
18.18,1,0,1,13,2,0,3,2
18.185,2,1,2,7,4,4,0,0
18.19,2,0,2,9,2,0,0,0
18.195,0,1,2,3,0,2,1,1
18.2,1,3,3,11,1,2,1,0
18.205,1,1,1,3,3,2,2,1
18.21,0,2,2,6,2,1,1,0
18.215,1,2,1,1,1,0,3,1
18.22,3,0,3,8,7,2,2,0
18.225,3,1,2,2,0,2,2,3
18.23,3,3,0,4,4,2,1,1
18.235,3,1,6,10,3,1,1,0
18.24,1,0,9,9,3,1,0,3
18.245,11,1,8,24,4,0,1,14
18.25,16,1,3,23,0,6,4,10
18.255,12,9,11,25,1,4,2,6
18.26,1,1,17,27,6,2,0,2
18.265,8,0,1,3,1,1,1,2
18.27,5,0,7,19,7,5,4,18
18.275,1,0,12,4,4,1,1,0
18.28,5,5,8,13,2,1,1,3
18.285,9,5,4,15,0,3,4,2
18.29,4,4,22,34,4,8,4,9
18.295,28,1,2,70,10,11,8,10
18.3,46,6,15,58,9,0,0,9
18.305,21,1,16,57,10,3,1,5
18.31,9,9,70,44,3,0,1,1
18.315,9,15,5,34,9,9,7,3
18.32,28,14,6,8,8,9,5,11
18.325,4,5,2,44,2,4,7,5
18.33,4,15,17,17,0,4,0,5
18.335,13,24,52,17,14,4,0,3
18.34,21,15,15,3,13,2,4,19
18.345,8,0,65,64,5,3,1,2
18.35,44,5,46,38,13,7,6,4
18.355,52,29,61,63,8,0,1,10
18.36,3,9,24,24,11,6,2,20
18.365,31,7,49,66,13,2,4,14
18.37,16,8,11,8,5,5,7,15
18.375,4,3,51,75,13,0,1,3
18.38,19,11,42,15,10,1,5,6
18.385,8,4,1,56,27,15,10,8
18.39,11,7,15,94,10,2,3,7
18.395,1,7,32,121,1,7,3,3
18.4,23,11,36,32,17,4,4,12
18.405,95,36,98,64,7,1,5,35
18.41,68,2,4,35,1,0,4,16
18.415,11,1,19,70,11,5,3,6
18.42,2,5,34,2,2,2,2,3
18.425,9,1,2,11,16,4,3,4
18.43,5,0,17,10,11,3,2,3
18.435,12,2,11,23,2,5,3,4
18.44,1,3,8,0,7,2,4,4
18.445,10,8,8,16,4,3,4,1
18.45,1,6,22,0,6,5,3,12
18.455,3,8,10,34,17,0,1,6
18.46,11,2,24,84,14,3,3,6
18.465,10,2,41,42,4,3,4,6
18.47,0,2,30,49,1,4,2,1
18.475,22,26,74,25,32,1,0,5
18.48,5,6,66,6,1,3,2,5
18.485,9,10,14,65,18,7,1,3
18.49,2,2,18,22,6,1,3,2
18.495,0,1,15,26,18,11,5,0
18.5,19,9,42,6,7,2,3,4
18.505,25,7,46,17,12,0,3,1
18.51,10,3,9,38,21,2,2,3
18.515,10,7,11,11,12,3,1,4
18.52,9,5,19,11,0,2,2,11
18.525,1,11,40,53,3,8,7,30
18.53,3,3,48,52,1,2,3,3
18.535,5,3,2,2,10,5,2,5
18.54,1,4,28,8,2,0,0,12
18.545,9,6,39,40,2,0,1,3
18.55,5,10,21,16,5,3,3,1
18.555,5,0,45,98,1,2,6,10
18.56,8,1,19,73,1,2,2,4
18.565,15,13,11,1,17,1,4,13
18.57,14,8,13,64,23,4,2,3
18.575,15,6,2,87,15,0,2,3
18.58,2,8,27,59,8,1,0,6
18.585,7,2,7,4,4,2,3,6
18.59,0,1,7,31,1,3,2,2
18.595,9,3,12,17,4,0,3,3
18.6,3,9,15,8,9,2,3,12
18.605,2,3,2,22,8,1,4,2
18.61,0,1,5,4,5,1,2,0
18.615,6,5,11,2,3,0,3,2
18.62,0,5,21,5,0,5,5,6
18.625,8,0,5,8,3,2,1,1
18.63,4,1,19,2,0,2,4,3
18.635,2,0,17,27,1,0,0,3
18.64,4,1,3,3,10,10,4,6
18.645,4,1,6,34,18,1,0,2
18.65,2,3,9,44,16,5,0,3
18.655,2,2,6,6,3,4,3,1
18.66,2,1,2,6,9,1,0,5
18.665,2,4,6,6,9,1,0,0
18.67,1,2,4,7,10,0,0,1
18.675,5,0,5,5,2,3,0,0
18.68,1,1,1,10,3,2,1,0
18.685,2,2,4,4,8,4,3,1
18.69,1,1,8,1,4,2,1,0
18.695,1,0,1,6,2,3,0,0
18.7,2,1,4,3,4,3,2,4
18.705,2,0,2,11,1,1,3,0
18.71,2,0,8,16,4,1,1,1
18.715,1,1,5,6,3,3,0,1
18.72,1,1,4,10,5,1,0,3
18.725,3,0,3,12,11,1,2,1
18.73,1,0,2,33,1,1,0,2
18.735,2,4,7,21,9,3,3,4
18.74,2,0,3,18,4,1,0,1
18.745,1,2,2,18,2,1,2,1
18.75,3,1,1,10,5,4,3,1
18.755,1,0,1,18,4,0,1,1
18.76,1,3,3,9,7,2,2,3
18.765,1,1,5,13,5,0,0,1
18.77,1,1,0,9,4,3,3,1
18.775,1,1,3,6,1,0,2,0
18.78,1,0,1,12,0,1,0,2
18.785,1,1,2,11,1,4,1,0
18.79,3,2,1,5,1,0,1,2
18.795,2,0,1,15,10,3,2,2
18.8,1,4,4,32,5,1,3,1
18.805,0,2,0,12,1,3,2,3
18.81,1,1,1,1,3,0,0,2
18.815,0,1,0,3,2,1,2,3
18.82,2,1,2,21,4,2,2,0
18.825,1,1,6,23,6,3,1,0
18.83,2,2,5,3,5,3,4,1
18.835,2,3,13,2,6,4,1,2
18.84,0,0,3,2,9,3,5,1
18.845,2,2,4,1,7,0,2,1
18.85,1,1,2,2,0,0,1,0
18.855,3,1,2,6,1,0,1,0
18.86,2,1,1,1,9,0,2,1
18.865,0,1,1,0,13,4,3,1
18.87,0,2,3,2,9,1,0,1
18.875,1,2,3,3,2,3,1,2
18.88,2,3,9,12,0,2,2,2
18.885,2,0,1,2,2,1,3,1
18.89,1,1,3,16,3,2,1,2
18.895,2,2,7,14,1,3,0,0
18.9,1,2,3,15,5,1,0,2
18.905,1,2,1,8,3,4,4,3
18.91,2,1,7,9,4,3,1,1
18.915,0,1,4,2,4,2,0,0
18.92,1,3,11,5,8,0,0,2
18.925,1,2,0,4,8,5,1,1
18.93,1,3,1,2,0,1,1,4
18.935,1,2,1,5,1,3,2,1
18.94,0,1,1,4,1,2,1,2
18.945,2,1,2,9,2,2,0,1
18.95,1,1,1,13,4,2,2,2
18.955,1,2,7,3,5,1,1,1
18.96,0,1,7,20,0,2,3,0
18.965,0,1,5,18,5,0,0,1
18.97,1,1,8,1,5,0,2,0
18.975,2,3,20,8,2,2,2,1
18.98,2,1,3,1,7,4,3,0
18.985,1,3,0,5,6,0,1,2
18.99,1,0,4,6,1,2,1,1
18.995,0,1,5,7,1,2,2,1
19,1,3,13,13,0,0,0,0
19.005,1,3,2,13,1,1,2,1
19.01,1,2,10,9,3,1,1,3
19.015,1,1,9,12,2,2,3,2
19.02,1,1,2,8,10,2,0,2
19.025,1,2,4,19,2,1,1,0
19.03,1,1,4,24,6,1,0,0
19.035,0,2,2,23,5,4,3,0
19.04,0,3,2,5,4,1,2,1
19.045,2,6,3,3,6,0,0,1
19.05,4,4,0,4,1,1,2,2
19.055,1,2,1,8,3,0,2,1
19.06,1,2,1,5,7,3,0,1
19.065,0,1,1,9,1,3,2,2
19.07,1,2,3,21,2,4,1,1
19.075,0,1,4,4,0,1,0,2
19.08,0,1,4,3,2,1,3,2
19.085,2,1,6,12,4,0,1,2
19.09,1,1,4,15,4,4,2,1
19.095,0,1,1,2,0,3,3,1
19.1,0,3,3,7,1,4,1,0
19.105,3,3,9,1,1,3,0,0
19.11,3,2,19,6,1,0,1,0
19.115,2,2,5,4,2,1,0,1
19.12,0,3,3,2,1,3,4,0
19.125,1,1,3,6,1,4,2,0
19.13,1,3,3,6,2,2,4,2
19.135,1,2,0,6,2,2,0,1
19.14,1,0,14,2,3,1,2,2
19.145,0,2,5,7,5,2,0,2
19.15,2,5,8,7,4,2,1,2
19.155,1,2,18,3,3,0,1,1
19.16,2,1,4,7,1,3,1,2
19.165,2,2,2,10,0,3,0,0
19.17,3,2,7,1,4,3,3,2
19.175,2,0,0,5,1,0,2,0
19.18,2,0,5,0,3,3,0,2
19.185,1,0,6,6,1,1,3,0
19.19,3,2,6,2,2,0,2,2
19.195,0,0,3,6,0,0,1,1
19.2,3,5,2,5,0,0,2,3
19.205,0,1,5,4,2,3,3,1
19.21,2,1,6,3,3,2,1,1
19.215,1,3,1,13,1,1,1,3
19.22,5,1,2,8,2,1,2,1
19.225,5,0,1,6,4,5,3,3
19.23,0,1,11,16,5,3,0,1
19.235,3,3,7,12,3,0,2,1
19.24,1,0,3,11,1,3,0,1
19.245,4,1,11,7,1,3,1,1
19.25,7,3,21,14,4,3,2,3
19.255,0,1,2,1,1,1,1,1
19.26,3,2,1,6,1,1,1,3
19.265,6,0,1,17,2,0,1,2
19.27,5,3,0,5,0,1,0,1
19.275,8,9,14,26,5,2,1,3
19.28,1,2,11,9,1,1,1,5
19.285,7,3,16,22,4,3,1,4
19.29,12,8,14,22,2,2,3,3
19.295,15,5,15,11,1,2,0,5
19.3,6,8,42,1,2,2,5,2
19.305,2,3,0,24,8,1,1,5
19.31,1,1,0,22,5,1,1,1
19.315,2,1,34,23,3,3,4,3
19.32,4,1,29,15,1,2,2,0
19.325,1,4,17,15,6,2,3,1
19.33,1,0,18,4,4,1,0,1
19.335,5,5,7,35,1,2,0,4
19.34,4,1,2,9,2,0,1,1
19.345,2,3,16,4,3,0,1,3
19.35,2,1,16,4,0,2,2,2
19.355,0,1,2,16,3,4,3,1
19.36,0,3,6,34,2,1,0,1
19.365,2,2,9,4,5,4,2,1
19.37,2,1,1,13,2,2,2,1
19.375,6,2,16,37,4,0,1,3
19.38,1,0,18,18,4,4,4,1
19.385,2,4,15,14,2,1,2,3
19.39,0,3,14,17,4,4,2,1
19.395,2,2,31,5,7,1,0,1
19.4,1,1,8,22,4,2,2,2
19.405,1,1,2,37,5,1,1,1
19.41,2,1,5,23,2,0,1,3
19.415,3,3,3,8,1,4,4,2
19.42,1,0,15,17,4,2,3,3
19.425,1,2,14,13,4,1,0,2
19.43,3,5,35,16,6,0,2,2
19.435,1,0,18,14,2,2,0,0
19.44,2,2,3,16,2,0,1,0
19.445,0,0,2,26,3,3,0,0
19.45,2,2,4,19,1,0,1,0
19.455,1,1,1,0,2,1,2,0
19.46,0,1,1,4,1,4,3,1
19.465,1,3,1,1,2,2,1,2
19.47,1,1,4,12,5,4,3,1
19.475,1,0,7,26,12,1,1,1
19.48,5,4,12,19,2,3,2,4
19.485,2,2,8,10,1,2,1,2
19.49,0,3,2,5,7,3,1,0
19.495,0,0,10,11,1,3,2,0
19.5,2,3,1,8,1,0,0,1
19.505,0,1,2,2,4,1,1,1
19.51,2,2,1,15,3,0,2,2
19.515,0,2,3,9,2,0,1,1
19.52,0,0,10,4,8,6,1,2
19.525,2,1,4,8,0,1,0,0
19.53,1,1,11,1,1,0,1,1
19.535,2,2,1,2,3,1,0,0
19.54,0,0,10,2,2,0,0,0
19.545,3,6,12,4,9,3,2,2
19.55,2,0,2,1,8,2,1,0
19.555,1,0,1,11,8,3,1,2
19.56,2,2,6,8,4,5,2,3
19.565,1,1,4,7,1,3,1,3
19.57,2,0,1,1,6,2,1,2
19.575,1,3,0,12,8,0,0,0
19.58,1,1,1,10,3,0,1,0
19.585,1,0,8,11,2,1,1,1
19.59,2,2,4,22,5,4,5,4
19.595,2,0,9,5,3,0,0,1
19.6,3,3,3,16,7,2,4,3
19.605,1,0,1,13,1,2,0,1
19.61,0,0,2,1,2,0,1,0
19.615,0,1,3,11,5,3,2,1
19.62,1,3,10,11,7,5,2,2
19.625,2,3,1,9,2,3,1,3
19.63,1,2,4,14,7,2,2,1
19.635,2,2,0,5,8,3,2,4
19.64,0,0,1,5,1,1,2,0
19.645,2,0,3,5,7,1,0,2
19.65,2,4,2,5,5,2,1,1
19.655,1,2,5,6,7,1,2,3
19.66,0,1,1,4,2,2,1,1
19.665,1,1,2,4,9,2,0,1
19.67,3,2,1,6,1,4,1,1
19.675,1,2,5,4,2,1,3,2
19.68,0,0,1,3,2,2,1,3
19.685,1,1,1,1,5,1,0,0
19.69,0,0,6,7,1,2,1,0
19.695,1,1,4,10,0,1,0,0
19.7,1,2,5,8,2,1,1,2
19.705,1,2,1,0,3,3,1,2
19.71,2,1,5,8,7,1,1,0
19.715,0,2,5,20,2,4,1,2
19.72,1,0,3,4,2,3,2,0
19.725,0,5,4,1,1,6,4,3
19.73,2,2,6,9,1,1,1,0
19.735,2,0,3,7,2,0,1,1
19.74,1,1,4,11,7,3,0,2
19.745,2,3,6,1,1,1,3,3
19.75,0,2,1,6,4,4,1,2
19.755,1,1,4,35,2,1,1,0
19.76,1,2,2,1,3,2,2,1
19.765,3,0,4,1,4,4,3,2
19.77,0,2,1,10,9,3,3,1
19.775,3,3,5,11,9,0,2,3
19.78,2,1,0,8,15,4,3,1
19.785,1,2,0,10,10,1,1,1
19.79,1,0,3,14,1,4,0,2
19.795,3,2,3,7,13,1,1,2
19.8,0,4,1,4,12,1,2,1
19.805,2,3,5,2,3,1,2,0
19.81,2,0,2,3,3,5,0,1
19.815,1,1,7,24,7,2,1,0
19.82,2,0,2,10,4,1,3,3
19.825,1,1,3,2,0,0,1,2
19.83,1,0,3,10,2,1,2,2
19.835,4,0,3,9,0,1,3,1
19.84,1,1,3,2,0,0,1,0
19.845,1,3,3,17,4,0,0,1
19.85,3,5,10,46,9,5,2,2
19.855,1,1,7,18,6,1,0,1
19.86,4,3,3,1,0,1,3,1
19.865,1,2,9,2,1,2,2,1
19.87,0,0,3,0,0,3,3,2
19.875,2,3,10,8,5,1,0,2
19.88,2,0,4,9,4,1,3,2
19.885,2,1,2,3,3,2,1,3
19.89,2,3,4,22,8,6,0,3
19.895,0,3,10,27,9,6,0,3
19.9,22,12,10,5,1,1,3,12
19.905,31,4,21,11,6,3,4,5
19.91,8,2,13,7,7,0,2,1
19.915,1,6,14,18,2,4,0,3
19.92,6,4,16,1,1,2,0,1
19.925,21,10,20,1,4,5,2,4
19.93,7,15,53,8,10,3,2,5
19.935,19,7,9,23,4,3,4,10
19.94,15,1,2,7,2,3,1,11
19.945,18,7,45,36,2,1,3,4
19.95,17,5,54,10,7,1,1,3
19.955,1,22,24,10,1,5,6,2
19.96,9,52,75,16,15,11,7,3
19.965,6,1,10,21,9,0,2,1
19.97,1,2,29,22,2,1,1,1
19.975,5,6,16,14,0,3,3,7
19.98,13,17,37,29,6,0,4,8
19.985,0,2,12,6,7,1,2,4
19.99,6,16,9,3,11,9,3,1
19.995,9,4,6,4,7,1,4,6
20,2,1,83,33,3,1,0,0
20.005,3,10,38,68,9,5,2,3
20.01,1,3,5,27,4,7,4,4
20.015,5,2,4,56,4,0,3,16
20.02,24,3,19,8,8,8,2,10
20.025,11,4,29,43,11,1,2,3
20.03,23,3,35,26,1,2,4,2
20.035,16,5,35,10,2,2,1,1
20.04,15,8,43,14,20,3,2,1
20.045,1,7,28,89,19,2,2,1
20.05,3,19,41,49,1,1,1,1
20.055,14,22,3,19,2,3,2,8
20.06,4,17,16,46,12,1,1,4
20.065,13,16,17,63,8,9,4,9
20.07,0,3,13,2,4,3,1,2
20.075,6,2,23,31,9,2,1,1
20.08,8,12,0,39,18,1,0,0
20.085,8,3,21,27,9,7,3,4
20.09,3,1,16,58,6,2,2,4
20.095,8,10,4,63,3,2,1,1
20.1,4,13,10,53,5,8,7,1
20.105,24,4,8,5,12,2,3,3
20.11,28,10,7,29,5,1,2,3
20.115,9,5,2,10,3,1,1,4
20.12,9,16,12,0,6,3,0,1
20.125,10,23,74,23,3,5,1,2
20.13,3,1,4,25,2,1,0,1
20.135,5,3,11,23,3,1,4,7
20.14,10,8,17,5,9,2,0,5
20.145,0,7,12,1,2,6,3,7
20.15,9,3,2,5,10,0,2,4
20.155,4,3,50,14,16,5,1,2
20.16,2,0,18,22,7,2,0,3
20.165,1,5,31,16,1,0,2,3
20.17,2,3,9,13,9,2,0,1
20.175,13,7,10,12,4,1,1,5
20.18,5,1,12,25,10,7,4,4
20.185,2,7,24,14,1,3,2,1
20.19,1,0,2,39,4,3,1,0
20.195,3,0,10,27,7,1,2,4
20.2,3,4,17,36,3,2,2,1
20.205,1,1,30,12,7,5,4,4
20.21,4,3,15,43,0,1,1,2
20.215,3,2,6,7,3,2,0,2
20.22,3,5,19,25,3,2,3,2
20.225,2,2,15,18,3,2,2,3
20.23,1,3,14,17,6,1,1,0
20.235,3,4,1,6,5,1,3,2
20.24,0,3,1,10,2,2,1,1
20.245,0,3,10,4,1,2,2,3
20.25,2,7,18,22,4,6,3,3
20.255,3,1,3,12,2,5,1,1
20.26,1,8,2,19,3,3,3,1
20.265,3,5,11,10,9,5,4,1
20.27,2,1,1,5,1,1,1,0
20.275,1,0,6,8,3,1,2,1
20.28,3,4,7,8,2,3,1,4
20.285,2,1,10,0,2,2,1,1
20.29,1,2,1,10,0,1,4,1
20.295,3,2,4,8,0,4,3,3
20.3,3,3,5,2,1,1,0,1
20.305,1,3,4,15,1,1,0,1
20.31,1,1,9,18,2,3,2,0
20.315,0,1,2,4,4,3,3,2
20.32,4,2,2,15,5,6,4,2
20.325,1,1,4,8,3,3,0,0
20.33,2,2,9,6,9,2,1,2
20.335,2,2,1,4,8,0,2,1
20.34,1,1,2,7,4,2,3,1
20.345,1,1,1,6,8,1,3,1
20.35,1,0,0,8,1,4,1,2
20.355,2,3,1,36,0,3,0,1
20.36,2,0,8,19,10,4,5,2
20.365,0,1,6,20,0,0,2,2
20.37,0,1,1,17,1,1,0,2
20.375,2,0,0,12,2,4,3,3
20.38,1,1,5,8,1,1,1,3
20.385,0,0,1,0,1,1,0,0
20.39,1,3,0,1,5,6,4,2
20.395,0,1,3,9,2,2,1,1
20.4,4,4,3,13,4,3,3,0
20.405,0,1,12,8,10,5,4,3
20.41,3,1,5,11,3,0,1,1
20.415,0,1,7,0,5,2,1,1
20.42,3,1,6,10,1,5,4,3
20.425,0,2,12,10,4,4,3,0
20.43,3,5,8,1,0,3,1,0
20.435,1,0,0,5,1,1,1,1
20.44,3,1,5,1,3,1,0,1
20.445,2,3,2,18,5,2,2,1
20.45,1,0,0,6,8,3,2,0
20.455,1,2,1,5,2,4,3,0
20.46,1,2,2,0,4,1,1,0
20.465,1,6,4,4,2,1,1,1
20.47,2,1,28,11,5,2,2,3
20.475,0,4,10,1,3,2,2,1
20.48,2,3,9,1,5,5,0,0
20.485,2,3,12,13,5,1,0,1
20.49,1,1,15,11,2,0,0,0
20.495,2,5,2,13,1,0,3,2
20.5,0,1,13,16,9,5,2,0
20.505,2,0,6,3,0,2,0,2
20.51,1,1,7,10,2,3,4,2
20.515,4,3,0,2,1,1,1,4
20.52,1,2,13,0,3,4,3,2
20.525,3,4,30,5,1,0,1,2
20.53,3,0,9,8,4,1,0,2
20.535,1,2,16,18,1,5,4,5
20.54,0,1,4,0,0,2,1,1
20.545,0,3,4,16,1,0,2,1
20.55,0,0,5,31,4,4,2,1
20.555,0,1,4,12,2,3,3,2
20.56,1,1,20,9,1,1,3,2
20.565,2,2,35,1,3,2,1,1
20.57,2,7,30,5,1,1,2,0
20.575,1,5,20,13,8,1,2,2
20.58,6,14,34,3,10,4,3,4
20.585,1,7,6,18,1,1,1,5
20.59,3,14,30,11,2,2,1,1
20.595,5,0,6,10,2,2,0,4
20.6,6,0,22,13,3,3,3,6
20.605,6,0,9,22,0,3,3,7
20.61,0,2,8,6,4,4,1,3
20.615,1,1,17,20,1,1,0,1
20.62,1,1,2,7,1,2,2,1
20.625,0,1,8,10,7,2,1,0
20.63,1,0,0,2,1,1,1,1
20.635,5,6,22,20,6,1,1,0
20.64,5,3,22,6,2,1,1,8
20.645,4,1,15,2,1,1,1,2
20.65,3,1,20,11,2,2,1,3
20.655,0,3,7,3,6,4,1,1
20.66,5,6,12,2,1,0,3,3
20.665,0,1,2,6,6,1,3,2
20.67,1,4,3,9,4,1,0,0
20.675,0,0,21,6,1,4,5,2
20.68,1,0,12,6,12,2,1,1
20.685,2,5,12,3,6,1,1,3
20.69,1,3,0,16,3,2,3,3
20.695,1,1,2,27,4,2,1,2
20.7,1,1,14,10,1,5,2,1
20.705,2,3,7,5,2,1,1,1
20.71,2,0,3,1,0,1,0,3
20.715,1,4,8,3,1,3,1,0
20.72,2,2,9,1,8,4,1,0
20.725,3,6,25,31,3,2,2,1
20.73,1,2,13,8,1,1,0,1
20.735,3,5,7,13,5,4,2,2
20.74,1,2,3,27,7,1,1,3
20.745,3,2,4,32,3,0,0,0
20.75,1,2,4,6,1,2,0,1
20.755,5,3,14,22,3,2,1,2
20.76,2,1,6,27,4,0,1,5
20.765,1,0,4,13,4,1,0,2
20.77,1,3,6,8,1,1,4,3
20.775,1,0,1,7,2,0,1,0
20.78,2,1,3,7,2,0,0,1
20.785,2,2,4,9,1,1,1,1
20.79,3,1,0,8,4,5,3,1
20.795,2,1,4,1,6,4,2,2
20.8,1,2,1,11,9,6,1,1
20.805,1,1,6,2,5,6,3,1
20.81,4,5,23,7,2,1,1,4
20.815,1,0,1,1,2,0,1,0
20.82,2,3,5,11,2,2,2,1
20.825,2,3,1,12,2,2,2,1
20.83,0,0,3,3,2,1,2,0
20.835,1,1,6,9,4,2,4,0
20.84,0,3,1,19,6,1,1,1
20.845,2,1,7,18,9,1,1,0
20.85,0,2,16,19,8,1,1,1
20.855,1,1,12,30,4,1,1,2
20.86,4,6,7,1,8,3,4,3
20.865,4,1,11,2,0,4,7,1
20.87,0,1,4,7,2,0,1,1
20.875,1,2,0,9,2,0,0,1
20.88,0,0,0,8,2,3,2,1
20.885,1,1,0,10,1,1,2,2
20.89,1,2,3,8,1,1,1,0
20.895,4,2,0,2,0,1,1,0
20.9,1,1,4,5,1,1,1,1
20.905,3,1,2,5,2,3,0,3
20.91,4,1,1,11,0,1,2,3
20.915,1,3,8,8,1,3,3,1
20.92,1,2,1,7,5,1,2,1
20.925,1,5,2,3,1,1,2,0
20.93,4,1,4,2,2,3,3,1
20.935,1,1,1,8,4,0,2,1
20.94,2,2,6,19,6,2,1,1
20.945,0,3,4,16,2,3,2,1
20.95,1,3,1,23,1,0,1,4
20.955,1,6,0,29,6,1,2,0
20.96,3,1,8,23,1,3,3,3
20.965,1,1,1,1,3,3,1,1
20.97,2,1,4,13,2,4,0,1
20.975,3,5,4,3,3,1,0,0
20.98,2,2,8,26,5,3,3,2
20.985,3,4,14,19,5,3,0,3
20.99,0,3,6,22,2,2,1,0
20.995,4,6,6,23,5,3,3,3
21,1,1,18,16,2,2,0,1
21.005,2,4,18,0,0,2,3,1
21.01,4,2,0,4,5,1,1,3
21.015,0,4,12,2,16,1,2,0
21.02,1,1,1,15,14,0,1,0
21.025,1,2,10,1,7,2,4,2
21.03,1,1,1,4,0,1,1,1
21.035,3,2,3,17,4,0,3,2
21.04,1,3,18,6,3,1,1,1
21.045,8,1,7,18,2,1,2,3
21.05,0,2,2,5,0,2,4,0
21.055,1,1,4,30,1,1,2,4
21.06,3,6,7,8,1,3,0,1
21.065,1,2,11,16,2,4,1,1
21.07,0,4,15,3,0,3,3,1
21.075,2,0,9,10,3,3,0,1
21.08,0,1,2,19,0,4,0,2
21.085,3,2,7,13,4,4,0,4
21.09,5,2,14,18,4,1,2,2
21.095,3,2,22,21,1,3,0,2
21.1,0,3,6,5,0,4,1,2
21.105,0,0,18,22,5,3,4,1
21.11,4,3,2,10,0,2,2,2
21.115,3,4,16,13,7,1,4,3
21.12,2,0,4,17,4,1,0,1
21.125,1,0,13,6,0,1,1,1
21.13,1,1,4,2,1,3,2,2
21.135,1,5,3,17,7,3,1,1
21.14,4,1,2,2,2,1,2,2
21.145,3,1,4,13,12,4,2,0
21.15,3,2,5,14,19,6,2,0
21.155,0,2,3,1,13,4,2,1
21.16,3,0,1,4,4,0,1,0
21.165,0,2,3,4,4,1,1,2
21.17,3,2,3,4,2,4,2,4
21.175,4,3,1,7,0,2,2,1
21.18,3,4,5,18,5,2,2,1
21.185,1,7,2,5,4,4,1,2
21.19,2,4,5,3,4,2,0,2
21.195,3,2,1,1,7,3,1,0
21.2,2,0,0,10,1,3,1,2
21.205,7,1,1,6,0,3,3,1
21.21,7,0,3,8,4,2,2,2
21.215,7,20,3,3,5,1,2,4
21.22,1,3,1,8,6,1,3,1
21.225,2,8,2,2,6,6,1,1
21.23,3,1,2,7,3,0,4,1
21.235,1,1,1,4,8,1,0,0
21.24,0,2,5,17,7,1,1,0
21.245,1,3,2,10,4,3,2,1
21.25,2,1,2,0,3,1,1,0
21.255,0,6,1,5,2,2,2,2
21.26,5,5,15,7,1,1,0,3
21.265,5,2,17,10,1,3,3,2
21.27,10,11,0,1,7,2,0,2
21.275,8,7,5,10,2,0,1,2
21.28,2,1,1,7,5,3,0,3
21.285,3,9,5,9,2,0,1,1
21.29,17,4,21,17,8,7,3,6
21.295,14,28,45,33,4,1,1,5
21.3,1,6,39,16,9,5,4,5
21.305,1,2,27,35,1,1,2,1
21.31,8,2,78,70,14,3,2,2
21.315,2,12,67,76,3,1,0,5
21.32,8,14,36,52,9,6,4,4
21.325,12,9,8,53,4,1,1,12
21.33,16,14,10,40,9,2,1,12
21.335,6,1,47,5,9,3,3,3
21.34,7,2,7,14,4,3,0,1
21.345,3,3,4,33,13,4,2,2
21.35,3,15,23,77,6,2,0,4
21.355,16,1,29,106,15,5,5,9
21.36,10,22,20,6,3,8,5,10
21.365,8,7,4,13,14,6,5,0
21.37,7,31,31,19,10,0,1,3
21.375,2,15,2,11,7,2,1,2
21.38,5,2,36,29,10,6,2,0
21.385,0,12,47,24,0,1,1,2
21.39,1,17,83,68,17,7,0,0
21.395,18,2,34,40,1,2,5,23
21.4,5,1,2,56,5,4,3,1
21.405,3,3,6,18,5,2,1,2
21.41,10,19,64,33,0,2,2,11
21.415,7,6,46,44,6,3,2,8
21.42,8,1,16,67,1,0,3,9
21.425,12,10,7,36,1,3,0,4
21.43,5,9,18,43,7,0,0,1
21.435,8,16,10,59,12,6,4,1
21.44,6,0,14,11,6,5,2,6
21.445,13,6,19,24,0,4,3,1
21.45,6,3,21,19,1,5,1,2
21.455,7,8,9,17,1,2,3,5
21.46,13,8,17,21,6,4,3,4
21.465,4,5,45,67,1,3,1,5
21.47,3,6,8,3,3,2,1,2
21.475,1,2,19,31,3,2,2,1
21.48,4,1,13,44,12,7,5,2
21.485,11,6,45,0,10,3,1,1
21.49,2,12,63,35,3,1,0,5
21.495,2,2,19,10,4,2,0,2
21.5,0,10,26,37,2,4,3,1
21.505,17,6,7,37,6,4,2,5
21.51,6,6,50,75,8,1,3,1
21.515,2,6,2,72,7,7,5,4
21.52,6,6,11,1,4,0,2,2
21.525,5,2,19,22,1,1,2,6
21.53,7,0,9,9,1,2,1,6
21.535,6,7,2,28,3,0,2,6
21.54,1,3,29,10,2,4,2,4
21.545,7,2,16,13,3,1,2,3
21.55,1,2,0,1,3,5,3,6
21.555,1,2,16,2,0,2,0,3
21.56,2,1,3,9,10,2,1,2
21.565,3,4,13,17,4,3,0,1
21.57,2,1,2,27,5,3,2,1
21.575,2,2,1,15,10,1,1,1
21.58,0,5,8,17,8,2,0,1
21.585,3,1,3,16,8,2,0,0
21.59,2,1,4,14,5,0,1,1
21.595,1,2,7,27,13,5,2,1
21.6,0,1,5,3,0,0,2,2
21.605,3,3,12,1,10,0,1,2
21.61,2,2,16,27,7,1,1,0
21.615,1,1,11,17,0,1,2,2
21.62,1,2,2,3,6,1,1,1
21.625,2,3,1,3,3,3,4,2
21.63,3,0,0,2,2,5,2,3
21.635,0,1,5,0,3,4,0,2
21.64,0,1,1,7,7,1,0,1
21.645,2,4,1,3,5,1,1,2
21.65,1,0,2,7,5,5,2,1
21.655,3,2,5,3,3,0,1,2
21.66,2,0,3,11,3,1,0,1
21.665,1,2,7,9,8,1,1,2
21.67,0,1,1,7,1,4,2,3
21.675,0,0,2,37,1,0,2,1
21.68,2,2,6,6,9,2,0,1
21.685,1,2,1,19,8,1,1,0
21.69,2,1,9,8,3,0,2,1
21.695,2,1,3,11,3,3,2,1
21.7,1,4,2,20,9,1,3,0
21.705,2,0,2,20,2,1,1,1
21.71,2,0,3,5,1,2,2,1
21.715,1,0,6,7,7,2,1,1
21.72,2,3,5,23,5,1,2,1
21.725,3,1,4,13,5,1,2,2
21.73,1,1,5,11,3,2,1,2
21.735,1,0,1,16,4,3,2,1
21.74,0,2,6,10,0,6,4,2
21.745,1,0,1,1,1,0,2,1
21.75,2,2,7,3,6,4,2,0
21.755,2,1,4,14,1,1,2,1
21.76,0,1,8,12,13,1,2,2
21.765,1,2,22,35,12,2,1,1
21.77,2,1,7,16,11,1,1,2
21.775,2,1,2,13,1,2,2,1
21.78,1,2,4,4,1,3,2,1
21.785,2,3,4,12,1,3,3,0
21.79,1,1,7,11,0,3,1,0
21.795,2,4,1,8,1,0,1,2
21.8,0,1,2,15,5,2,1,0
21.805,2,1,5,16,3,5,2,3
21.81,1,2,1,27,2,1,1,0
21.815,2,2,4,33,1,2,5,1
21.82,4,2,25,16,0,1,1,2
21.825,4,4,30,29,2,3,4,1
21.83,17,7,9,51,4,3,5,8
21.835,6,0,12,3,5,1,1,1
21.84,1,2,2,16,3,0,1,2
21.845,2,5,9,5,1,0,1,2
21.85,15,6,29,27,1,7,6,4
21.855,2,5,50,13,11,1,0,2
21.86,1,4,7,16,2,1,3,16
21.865,5,4,18,1,18,4,1,2
21.87,4,9,50,24,8,3,4,4
21.875,0,18,52,47,9,9,5,10
21.88,6,3,10,15,5,4,4,14
21.885,2,0,8,32,2,3,3,1
21.89,6,9,41,63,10,6,3,1
21.895,24,30,97,43,0,3,4,8
21.9,14,6,52,19,12,3,2,12
21.905,4,9,44,7,11,5,3,1
21.91,7,17,59,10,2,0,1,2
21.915,10,14,52,31,13,6,3,25
21.92,4,0,37,82,18,2,1,11
21.925,0,4,46,13,5,3,1,1
21.93,10,8,17,1,16,3,3,3
21.935,16,15,43,16,23,9,1,4
21.94,2,8,15,12,7,2,3,3
21.945,8,7,10,34,7,9,7,2
21.95,23,9,9,39,6,5,1,9
21.955,7,13,25,87,2,3,2,3
21.96,5,36,109,84,5,7,4,3
21.965,2,19,38,62,5,0,1,2
21.97,1,22,64,24,22,4,2,13
21.975,11,7,17,30,14,2,0,14
21.98,10,11,37,33,5,0,3,0
21.985,13,3,4,12,2,4,3,1
21.99,6,17,36,35,17,3,3,7
21.995,20,33,127,24,14,7,3,13
22,21,33,69,66,15,7,1,3
22.005,14,5,13,6,8,2,2,2
22.01,24,2,15,22,3,0,2,0
22.015,25,17,79,77,19,2,1,2
22.02,1,9,41,46,19,2,1,2
22.025,2,5,16,13,3,0,1,3
22.03,8,10,11,8,13,7,2,6
22.035,11,14,4,28,7,2,4,1
22.04,6,7,11,2,25,11,1,4
22.045,10,9,34,19,14,0,3,3
22.05,4,28,102,19,12,10,6,3
22.055,17,12,24,6,4,0,1,1
22.06,12,7,57,14,6,7,3,1
22.065,14,5,25,28,4,1,1,5
22.07,1,2,23,57,4,2,3,2
22.075,2,4,13,28,0,4,2,4
22.08,2,5,2,16,14,6,2,6
22.085,9,4,19,28,3,6,2,3
22.09,1,2,16,54,12,1,3,4
22.095,9,4,18,66,12,0,0,6
22.1,3,1,19,63,13,5,1,5
22.105,3,3,26,33,0,1,0,1
22.11,2,3,39,43,8,3,1,2
22.115,2,5,29,40,11,3,0,6
22.12,0,5,2,57,8,0,0,3
22.125,3,5,6,2,14,2,4,1
22.13,6,5,15,1,19,1,1,1
22.135,7,6,18,4,10,2,2,5
22.14,4,3,6,5,3,0,1,4
22.145,0,7,1,11,2,0,1,0
22.15,0,4,2,6,11,1,3,1
22.155,0,0,3,4,7,1,2,1
22.16,0,3,8,28,4,5,3,1
22.165,2,5,6,37,4,2,1,0
22.17,0,6,12,10,8,1,0,2
22.175,1,6,9,4,4,1,0,2
22.18,4,1,4,12,3,0,0,0
22.185,1,3,6,11,11,1,2,2
22.19,1,1,0,0,16,3,1,1
22.195,1,1,1,3,10,1,3,1
22.2,0,1,0,23,6,1,2,1
22.205,2,0,0,31,19,5,1,1
22.21,1,2,2,7,1,2,4,3
22.215,1,2,3,22,4,1,0,2
22.22,1,0,7,20,19,3,1,1
22.225,1,4,1,16,18,3,0,1
22.23,2,1,5,15,14,1,1,2
22.235,1,4,9,49,7,5,3,3
22.24,1,2,2,4,4,6,1,3
22.245,1,3,3,52,8,5,2,1
22.25,2,1,3,11,7,3,1,1
22.255,1,3,0,2,5,0,2,4
22.26,1,1,3,12,7,3,0,2
22.265,2,0,3,17,2,4,3,2
22.27,3,2,2,9,0,1,1,2
22.275,1,2,1,7,1,4,2,2
22.28,1,1,1,4,9,2,1,1
22.285,2,3,2,9,5,0,0,1
22.29,2,0,0,10,7,2,1,0
22.295,3,2,4,3,1,3,3,2
22.3,2,1,0,1,11,2,0,1
22.305,1,1,0,1,5,1,0,2
22.31,0,1,2,11,3,3,1,1
22.315,1,2,4,24,2,0,1,1
22.32,2,2,3,19,0,3,0,0
22.325,2,5,0,6,3,2,4,3
22.33,2,4,5,19,5,3,4,2
22.335,1,1,1,4,5,2,1,0
22.34,3,4,4,2,5,1,1,2
22.345,0,3,4,10,1,1,0,2
22.35,0,1,2,2,13,3,2,1
22.355,1,3,2,3,3,4,0,0
22.36,2,2,4,1,4,1,2,1
22.365,2,5,2,17,3,2,2,1
22.37,0,3,4,35,3,2,0,1
22.375,1,3,1,2,2,0,2,1
22.38,1,1,0,2,1,3,1,2
22.385,0,3,3,12,3,0,1,1
22.39,0,1,2,16,6,1,1,0
22.395,1,0,2,2,7,1,1,1
22.4,0,2,3,4,5,2,0,1
22.405,0,0,1,4,1,3,4,0
22.41,1,1,2,4,1,0,1,1
22.415,1,2,3,8,6,3,1,1
22.42,1,1,0,1,7,4,2,1
22.425,1,3,2,9,1,4,3,1
22.43,2,1,0,1,11,1,1,0
22.435,1,3,1,10,10,2,1,1
22.44,0,2,4,11,5,0,2,1
22.445,2,1,1,9,6,3,1,1
22.45,0,0,3,26,5,0,1,2
22.455,1,3,2,25,2,0,1,1
22.46,2,1,1,2,0,1,0,4
22.465,1,1,2,3,2,2,0,0
22.47,1,2,1,15,4,3,2,1
22.475,1,2,1,4,2,1,1,0
22.48,1,4,1,5,1,2,3,3
22.485,1,0,1,4,6,2,1,4
22.49,1,0,1,12,3,1,1,1
22.495,1,2,3,4,2,0,1,1
22.5,1,1,4,4,3,4,2,1
22.505,3,1,7,2,2,2,1,0
22.51,1,2,2,3,5,1,0,1
22.515,2,2,10,12,3,2,0,4
22.52,2,1,2,13,1,1,3,0
22.525,2,1,2,8,2,1,2,3
22.53,10,2,1,2,1,1,1,3
22.535,8,3,13,21,1,1,2,1
22.54,1,7,37,16,4,1,2,8
22.545,25,1,52,15,1,4,2,2
22.55,5,0,49,25,6,7,7,4
22.555,12,5,44,13,12,10,8,3
22.56,2,5,10,17,10,7,0,0
22.565,11,17,77,71,26,12,11,31
22.57,2,7,41,17,3,3,4,2
22.575,4,2,15,17,3,0,1,6
22.58,29,3,3,61,3,1,1,6
22.585,15,16,2,31,12,1,2,2
22.59,25,17,5,58,10,1,2,5
22.595,35,16,11,3,4,1,3,5
22.6,21,7,60,41,10,9,7,6
22.605,7,2,25,16,35,9,2,12
22.61,30,4,22,55,27,11,7,7
22.615,28,2,7,3,1,5,0,1
22.62,8,11,5,31,1,1,0,1
22.625,1,16,0,49,2,4,2,5
22.63,1,8,15,3,12,2,1,7
22.635,30,3,34,26,9,0,2,3
22.64,31,1,81,15,5,1,4,4
22.645,6,23,1,8,11,0,2,5
22.65,4,1,10,42,14,5,2,6
22.655,20,4,43,64,25,3,1,2
22.66,8,13,27,3,9,0,0,2
22.665,5,8,29,20,10,0,2,2
22.67,8,6,26,11,1,0,1,0
22.675,10,7,19,25,4,6,4,3
22.68,15,7,6,6,3,4,2,4
22.685,1,1,8,33,11,2,1,1
22.69,24,2,5,6,28,2,5,24
22.695,42,4,27,49,4,4,0,6
22.7,5,3,43,8,2,2,0,6
22.705,7,3,34,31,4,3,1,0
22.71,16,6,9,10,19,3,2,3
22.715,16,1,39,64,10,3,2,0
22.72,13,2,3,47,12,6,2,4
22.725,4,12,10,5,6,2,0,1
22.73,9,4,39,75,15,6,1,6
22.735,5,3,23,47,8,3,1,3
22.74,4,2,8,52,12,3,2,2
22.745,9,7,24,36,13,1,2,3
22.75,2,29,44,37,0,4,6,1
22.755,4,7,6,29,8,5,3,0
22.76,12,2,42,6,3,1,1,2
22.765,3,1,20,46,10,0,1,1
22.77,3,11,3,32,6,1,6,1
22.775,9,3,2,49,6,4,2,1
22.78,2,22,29,10,9,6,4,6
22.785,10,7,15,29,1,2,2,4
22.79,1,7,36,67,8,3,2,2
22.795,10,9,16,12,8,3,4,2
22.8,1,8,18,0,1,3,3,10
22.805,7,10,57,3,10,4,5,4
22.81,4,18,31,23,0,2,1,5
22.815,5,4,0,33,11,2,3,2
22.82,15,13,33,28,3,4,2,1
22.825,11,8,14,74,22,5,2,2
22.83,4,9,13,45,14,4,0,4
22.835,3,3,14,21,1,1,3,4
22.84,12,9,9,31,5,2,5,4
22.845,1,3,14,31,4,0,1,2
22.85,3,4,3,20,1,0,2,3
22.855,0,7,2,11,0,4,2,3
22.86,5,0,38,36,8,1,0,2
22.865,6,1,4,32,15,1,2,3
22.87,5,3,8,10,4,2,2,1
22.875,2,6,10,47,3,4,0,4
22.88,3,0,19,30,6,1,1,5
22.885,1,10,16,31,4,3,3,2
22.89,4,11,26,12,7,1,1,2
22.895,4,1,4,11,3,2,1,5
22.9,1,3,5,18,2,2,0,2
22.905,0,5,30,34,11,4,4,0
22.91,0,4,21,32,15,4,3,2
22.915,8,7,11,23,30,0,1,7
22.92,0,0,7,30,24,3,0,2
22.925,3,1,4,4,10,6,5,2
22.93,1,1,3,22,19,4,2,0
22.935,2,3,4,10,6,0,0,0
22.94,2,1,7,12,1,5,5,1
22.945,3,1,4,32,8,3,1,1
22.95,1,4,6,25,16,3,1,0
22.955,5,4,15,2,3,5,3,3
22.96,2,2,7,3,9,1,0,2
22.965,1,0,4,4,7,3,2,1
22.97,1,0,4,5,1,5,4,1
22.975,2,4,1,3,2,0,0,3
22.98,1,1,2,19,1,0,2,1
22.985,0,1,0,9,3,1,2,0
22.99,1,3,4,22,17,0,1,1
22.995,1,5,5,6,20,6,4,2
23,2,0,0,10,8,1,0,1
23.005,2,0,2,8,12,1,1,2
23.01,0,2,6,11,7,1,1,1
23.015,3,4,2,11,4,0,0,2
23.02,4,1,1,3,2,5,4,5
23.025,1,2,0,1,3,0,1,0
23.03,1,1,0,8,6,6,0,1
23.035,3,1,1,2,5,1,1,1
23.04,1,2,3,11,5,0,0,2
23.045,0,1,1,12,0,0,1,1
23.05,5,9,2,4,1,1,2,3
23.055,2,0,1,2,6,2,3,1
23.06,0,1,3,12,6,3,2,1
23.065,3,2,1,3,4,2,2,2
23.07,0,1,1,6,1,4,1,1
23.075,2,0,2,6,9,4,3,1
23.08,2,2,3,3,5,3,3,3
23.085,0,1,1,10,3,0,2,3
23.09,1,0,0,3,6,3,1,0
23.095,2,2,2,7,8,1,2,1
23.1,1,0,2,3,5,2,1,0
23.105,1,3,4,18,4,3,1,1
23.11,2,0,0,7,0,2,0,1
23.115,1,1,4,11,2,3,2,0
23.12,0,2,1,3,0,0,1,1
23.125,2,2,1,4,2,2,3,1
23.13,1,2,2,4,3,1,1,3
23.135,1,1,1,2,1,1,1,2
23.14,1,2,1,4,7,2,0,0
23.145,0,3,0,3,1,4,5,0
23.15,1,1,3,3,0,0,1,1
23.155,2,0,2,2,4,2,2,2
23.16,1,1,3,11,8,3,2,2
23.165,2,0,1,6,2,1,1,2
23.17,0,0,4,8,2,1,0,1
23.175,1,2,1,1,2,3,3,2
23.18,0,1,2,10,5,0,1,1
23.185,1,0,6,7,6,3,1,2
23.19,0,1,3,5,1,2,2,1
23.195,3,1,2,12,3,0,0,2
23.2,1,1,1,12,2,0,3,1
23.205,1,3,3,3,2,0,2,3
23.21,0,2,2,5,5,2,2,3
23.215,1,0,1,4,2,1,0,0
23.22,2,1,2,13,11,1,1,2
23.225,1,2,3,6,1,0,0,0
23.23,1,1,1,4,7,3,5,1
23.235,0,3,4,6,4,1,1,2
23.24,3,1,9,30,8,0,2,2
23.245,1,2,0,12,2,1,1,1
23.25,2,1,2,5,2,1,0,1
23.255,2,1,4,9,3,3,2,3
23.26,1,0,2,9,4,2,2,1
23.265,1,0,4,8,1,1,4,2
23.27,0,2,10,3,0,0,0,1
23.275,2,3,12,10,5,1,0,1
23.28,2,2,6,0,0,1,0,1
23.285,2,1,0,3,2,1,1,1
23.29,3,0,1,6,2,1,1,1
23.295,1,2,6,6,1,0,1,3
23.3,1,4,37,6,2,5,2,2
23.305,0,0,27,27,1,0,1,3
23.31,1,1,24,20,1,2,1,8
23.315,3,0,16,17,9,6,3,9
23.32,0,1,6,18,2,1,1,5
23.325,1,1,30,22,0,2,0,4
23.33,2,4,27,11,6,2,1,1
23.335,2,0,33,3,0,2,0,2
23.34,0,6,2,11,5,6,4,3
23.345,0,1,1,17,6,3,4,0
23.35,0,1,31,10,0,4,3,5
23.355,1,2,20,3,8,5,0,1
23.36,2,4,9,18,0,2,0,1
23.365,6,6,9,36,1,0,1,0
23.37,5,0,7,29,3,1,2,5
23.375,2,0,5,8,8,4,0,3
23.38,1,5,8,7,15,4,0,2
23.385,12,4,25,13,4,3,4,2
23.39,7,2,2,29,5,2,1,2
23.395,19,4,6,42,3,4,6,22
23.4,9,3,9,13,10,3,5,4
23.405,8,12,1,55,4,1,3,18
23.41,14,4,21,36,8,3,2,2
23.415,9,2,30,19,0,2,1,8
23.42,20,26,60,41,14,3,4,12
23.425,10,20,20,52,9,4,0,15
23.43,15,1,33,74,8,1,3,6
23.435,13,7,28,67,14,9,1,2
23.44,9,5,27,111,21,8,1,2
23.445,2,10,13,90,14,4,1,1
23.45,5,15,10,60,5,3,5,13
23.455,0,4,24,46,12,2,1,2
23.46,18,1,59,62,14,1,1,14
23.465,4,5,35,66,10,1,0,6
23.47,2,5,26,0,4,7,5,3
23.475,6,33,28,13,13,4,0,3
23.48,3,3,39,62,16,2,1,5
23.485,2,9,77,15,7,1,1,8
23.49,5,1,39,62,3,3,4,22
23.495,31,11,57,52,14,5,8,12
23.5,12,13,16,58,26,6,1,5
23.505,10,11,1,116,32,3,4,5
23.51,4,10,25,17,7,0,2,10
23.515,32,8,7,29,7,5,6,8
23.52,10,12,9,70,1,5,4,15
23.525,1,16,21,29,14,4,0,15
23.53,23,15,3,9,6,0,2,12
23.535,1,8,3,6,3,1,5,10
23.54,5,2,28,2,1,1,1,3
23.545,8,16,13,41,4,1,1,11
23.55,8,18,19,66,6,2,2,9
23.555,5,1,7,23,6,5,5,1
23.56,20,7,26,13,2,1,4,15
23.565,6,1,34,51,2,2,7,3
23.57,8,2,15,18,5,0,1,6
23.575,18,6,41,25,7,5,4,6
23.58,2,3,4,16,16,4,1,5
23.585,9,21,40,20,0,1,1,5
23.59,7,6,1,1,4,9,10,8
23.595,30,20,33,50,15,7,11,11
23.6,10,2,26,70,1,7,7,0
23.605,4,15,17,1,1,0,1,6
23.61,3,8,21,4,6,4,4,6
23.615,3,3,14,3,3,3,3,7
23.62,1,0,9,2,17,5,2,1
23.625,3,24,17,58,2,5,2,4
23.63,16,21,42,55,4,7,5,4
23.635,5,1,13,20,1,2,2,3
23.64,1,9,8,18,9,2,1,1
23.645,2,4,6,16,13,5,5,3
23.65,3,1,8,31,1,2,3,0
23.655,9,0,27,19,5,6,6,5
23.66,12,11,5,9,4,4,3,4
23.665,2,0,0,0,3,4,1,3
23.67,2,3,13,10,7,6,1,1
23.675,8,3,18,30,1,1,1,2
23.68,4,4,10,3,1,1,1,4
23.685,3,2,8,25,7,1,2,1
23.69,2,1,1,14,2,1,1,2
23.695,0,0,12,17,4,3,5,3
23.7,3,9,20,15,1,4,4,1
23.705,3,1,17,14,1,3,0,4
23.71,4,0,8,20,12,5,3,4
23.715,3,1,5,37,16,6,0,1
23.72,1,0,0,8,11,2,0,1
23.725,0,0,6,13,3,2,1,1
23.73,3,0,5,10,5,3,2,0
23.735,2,2,5,1,12,4,2,3
23.74,0,5,8,4,1,0,0,1
23.745,2,0,4,4,1,1,1,0
23.75,3,3,3,2,0,2,2,2
23.755,2,1,3,5,1,1,2,1
23.76,2,2,3,9,7,5,5,2
23.765,1,0,5,4,10,6,2,2
23.77,2,1,3,2,3,5,1,0
23.775,0,1,2,5,2,4,2,2
23.78,1,2,4,15,0,1,2,3
23.785,3,1,4,3,3,2,1,1
23.79,1,1,2,5,0,2,1,3
23.795,1,2,4,14,7,1,1,1
23.8,2,2,4,11,4,1,2,1
23.805,1,1,4,1,8,3,3,2
23.81,3,3,0,4,1,0,0,0
23.815,3,0,2,12,5,1,2,2
23.82,1,2,8,53,6,5,1,0
23.825,1,1,2,9,2,1,1,3
23.83,0,1,2,4,6,3,0,1
23.835,2,1,2,2,3,4,4,2
23.84,1,1,1,19,1,2,0,1
23.845,1,2,2,10,5,1,1,1
23.85,1,3,2,4,10,3,3,2
23.855,1,2,7,1,19,1,0,0
23.86,0,1,1,1,4,1,1,4
23.865,1,1,4,3,4,0,1,0
23.87,2,0,1,12,0,0,0,1
23.875,0,2,1,3,9,1,0,2
23.88,3,2,0,8,3,3,0,1
23.885,1,2,0,4,6,1,0,0
23.89,1,2,1,7,0,5,5,2
23.895,0,1,2,22,6,3,0,0
23.9,2,2,5,1,1,1,1,1
23.905,0,1,1,1,2,3,1,2
23.91,1,0,1,5,5,1,1,1
23.915,1,0,3,1,5,2,1,3
23.92,1,1,0,11,2,0,2,1
23.925,0,1,1,2,0,3,2,0
23.93,1,2,5,9,4,1,2,1
23.935,1,1,3,2,12,2,0,1
23.94,1,2,1,8,1,1,0,2
23.945,1,1,4,4,0,1,2,1
23.95,1,1,1,6,2,1,1,0
23.955,0,2,1,4,3,0,2,1
23.96,0,0,1,7,3,0,3,3
23.965,1,1,0,3,1,1,0,0
23.97,1,1,1,6,1,3,1,0
23.975,2,2,0,2,1,2,3,1
23.98,1,1,0,3,0,4,1,0
23.985,1,2,2,1,5,2,0,1
23.99,2,2,1,12,6,2,1,1
23.995,1,0,1,0,4,5,2,1
24,2,1,4,2,7,3,2,1
24.005,1,1,2,5,7,1,1,1
24.01,1,1,1,3,2,0,2,2
24.015,1,0,1,0,3,2,0,2
24.02,2,1,0,0,0,0,1,1
24.025,1,1,1,11,4,4,2,2
24.03,1,0,1,3,1,1,2,1
24.035,0,1,0,2,3,0,0,0
24.04,2,0,0,5,3,0,1,1
24.045,1,1,3,3,0,1,2,0
24.05,1,2,1,3,2,1,1,1
24.055,1,3,0,7,2,2,1,2
24.06,2,1,1,11,4,1,2,1
24.065,1,1,6,12,1,1,0,0
24.07,1,1,14,11,3,3,3,3
24.075,3,1,1,6,1,1,1,2
24.08,1,1,3,1,1,0,3,3
24.085,1,1,2,4,2,2,1,0
24.09,2,1,23,14,2,1,3,3
24.095,8,5,29,30,5,1,3,3
24.1,2,4,18,18,4,1,1,1
24.105,3,0,5,0,6,1,1,1
24.11,1,2,11,6,8,3,1,4
24.115,3,5,42,16,3,4,4,5
24.12,1,3,27,10,1,1,1,0
24.125,8,7,11,13,2,0,3,9
24.13,0,6,16,28,5,3,2,9
24.135,10,4,17,18,9,6,4,5
24.14,4,2,1,10,0,2,1,5
24.145,6,1,10,11,2,1,0,3
24.15,4,1,4,25,5,0,1,3
24.155,10,10,19,12,2,1,0,9
24.16,3,10,7,30,3,1,0,5
24.165,3,10,4,41,7,5,4,2
24.17,0,6,20,71,11,5,2,6
24.175,1,9,24,14,2,0,0,3
24.18,13,8,46,35,7,0,3,5
24.185,31,3,31,32,5,2,0,5
24.19,1,1,20,39,4,1,1,0
24.195,12,20,11,52,2,1,2,14
24.2,1,11,31,13,7,5,1,4
24.205,10,5,47,27,15,3,3,1
24.21,17,15,68,81,20,9,10,10
24.215,8,13,52,63,6,10,6,2
24.22,8,4,9,16,2,2,2,5
24.225,11,2,54,76,7,4,0,9
24.23,7,1,4,52,9,2,1,6
24.235,6,7,42,34,10,6,1,6
24.24,7,6,59,22,6,1,3,14
24.245,27,1,16,53,5,5,4,4
24.25,11,4,0,60,12,5,3,18
24.255,4,4,23,56,18,5,0,3
24.26,5,11,70,10,13,1,2,3
24.265,4,6,61,12,2,3,2,0
24.27,12,26,35,25,4,3,0,5
24.275,2,0,31,45,9,1,3,1
24.28,4,13,82,17,5,2,5,18
24.285,33,3,9,48,15,6,5,2
24.29,3,8,49,30,7,1,3,1
24.295,9,6,21,7,15,4,3,2
24.3,9,10,22,23,8,2,1,12
24.305,1,13,84,118,6,4,2,4
24.31,20,18,44,12,11,2,5,10
24.315,2,10,18,21,3,0,2,6
24.32,9,20,9,59,11,3,3,6
24.325,1,20,10,30,3,6,7,18
24.33,5,1,53,5,5,5,5,3
24.335,4,5,36,58,10,5,6,8
24.34,15,12,10,70,2,1,2,3
24.345,2,3,52,7,13,3,5,2
24.35,2,1,38,69,18,5,0,5
24.355,11,1,1,51,14,8,0,6
24.36,30,2,46,11,8,6,7,0
24.365,2,4,91,48,2,1,0,6
24.37,5,6,3,30,1,8,7,6
24.375,6,21,7,24,5,1,2,4
24.38,26,6,52,10,10,8,5,1
24.385,16,3,48,7,1,3,3,3
24.39,9,1,8,9,1,1,1,8
24.395,6,12,28,11,7,1,0,4
24.4,12,10,33,28,9,1,1,2
24.405,3,11,12,8,1,2,1,13
24.41,3,22,6,27,5,6,9,21
24.415,5,7,15,29,10,5,1,3
24.42,4,5,26,0,3,2,4,5
24.425,9,4,1,9,9,3,5,12
24.43,3,8,27,33,2,4,5,6
24.435,7,2,35,22,3,2,0,1
24.44,1,14,35,1,6,3,3,8
24.445,1,10,9,40,17,0,2,1
24.45,3,3,14,58,12,3,2,6
24.455,0,2,26,2,20,10,3,6
24.46,2,1,21,6,3,1,1,1
24.465,3,2,8,9,10,4,5,4
24.47,2,4,6,18,7,3,0,2
24.475,1,7,10,4,4,1,1,1
24.48,1,4,19,6,5,5,3,0
24.485,4,7,2,1,3,3,3,4
24.49,3,0,15,10,0,4,3,0
24.495,1,4,4,5,8,5,1,2
24.5,2,7,10,15,9,1,3,1
24.505,3,6,5,1,1,4,4,4
24.51,1,4,0,8,1,2,1,1
24.515,1,1,0,5,6,7,5,4
24.52,0,3,8,13,15,7,2,4
24.525,3,1,6,2,2,1,0,2
24.53,0,4,1,11,8,2,2,1
24.535,1,2,2,10,16,0,0,1
24.54,2,2,2,15,10,2,0,2
24.545,3,5,1,40,15,3,3,2
24.55,0,0,4,29,11,3,1,1
24.555,0,4,6,30,6,0,1,1
24.56,0,2,5,34,9,1,2,0
24.565,2,2,5,4,17,6,0,3
24.57,1,2,0,4,0,3,1,1
24.575,1,1,1,4,10,3,2,1
24.58,2,2,1,30,18,2,1,1
24.585,1,2,1,34,21,1,1,1
24.59,2,1,6,28,15,3,2,3
24.595,0,2,5,21,12,4,1,1
24.6,2,4,2,3,5,1,0,1
24.605,1,0,2,10,2,2,1,3
24.61,2,1,4,19,1,3,0,1
24.615,1,0,1,4,1,3,2,3
24.62,1,1,6,10,0,3,0,2
24.625,0,0,2,7,3,3,1,0
24.63,2,1,0,22,3,2,3,1
24.635,2,2,5,20,8,1,1,1
24.64,0,0,1,14,4,5,3,2
24.645,1,4,0,9,7,0,0,1
24.65,1,1,3,25,7,5,2,0
24.655,3,0,1,12,1,3,2,1
24.66,3,5,4,7,16,4,0,0
24.665,2,1,2,18,17,1,1,1
24.67,3,3,1,18,1,1,1,2
24.675,0,0,0,3,1,1,0,2
24.68,1,1,3,2,4,2,3,3
24.685,2,3,2,6,4,0,2,2
24.69,2,2,2,24,1,4,0,0
24.695,1,2,3,42,2,5,1,3
24.7,0,3,1,23,0,0,2,3
24.705,1,1,1,5,2,3,2,2
24.71,1,1,1,8,5,1,1,0
24.715,1,4,1,2,6,1,2,1
24.72,1,2,2,12,1,1,1,1
24.725,0,1,2,5,5,2,1,1
24.73,1,2,4,4,1,2,1,1
24.735,1,1,2,1,3,1,1,3
24.74,2,1,1,2,3,2,1,1
24.745,2,2,6,8,4,1,4,2
24.75,1,1,1,14,3,2,1,1
24.755,3,3,1,5,4,1,1,1
24.76,1,3,0,6,1,2,1,2
24.765,1,1,1,24,10,3,2,1
24.77,1,2,2,1,1,1,1,2
24.775,1,2,2,1,4,0,1,1
24.78,2,2,0,5,3,2,3,2
24.785,3,0,1,5,0,3,1,0
24.79,0,0,0,3,1,1,1,1
24.795,0,1,1,0,4,3,2,0
24.8,1,1,1,1,2,1,0,0
24.805,1,1,5,1,0,0,1,2
24.81,1,1,5,1,2,0,2,0
24.815,3,3,5,5,4,1,0,2
24.82,1,3,11,14,6,5,1,2
24.825,1,2,1,14,3,2,2,1
24.83,1,0,1,3,4,4,1,1
24.835,2,0,1,7,2,1,0,3
24.84,0,1,3,11,3,0,1,0
24.845,1,3,2,8,4,2,2,1
24.85,1,2,0,2,1,0,1,2
24.855,1,0,7,6,3,2,2,1
24.86,1,0,8,2,4,3,2,0
24.865,0,1,3,5,11,0,1,1
24.87,1,1,2,3,4,1,2,0
24.875,0,1,1,1,2,2,4,1
24.88,1,0,1,3,0,2,2,1
24.885,1,2,0,3,7,1,1,0
24.89,1,2,1,0,1,1,2,2
24.895,1,2,1,12,2,1,2,2
24.9,0,0,2,22,3,1,0,0
24.905,1,0,2,15,6,1,3,1
24.91,2,3,0,18,8,1,3,3
24.915,1,2,3,6,5,5,2,1
24.92,1,1,5,6,5,3,1,0
24.925,1,2,1,10,2,0,1,0
24.93,0,1,5,4,4,4,1,0
24.935,1,0,2,2,7,3,0,0
24.94,4,0,4,0,4,4,2,1
24.945,4,2,3,1,1,1,1,2
24.95,4,3,2,2,1,3,2,3
24.955,1,2,8,5,1,2,0,5
24.96,18,10,48,21,4,2,1,7
24.965,3,1,15,21,8,1,0,0
24.97,4,1,12,7,9,1,2,3
24.975,23,9,37,57,15,1,0,0
24.98,29,4,27,78,10,0,3,6
24.985,0,5,30,37,4,6,1,2
24.99,2,10,48,17,1,6,2,2
24.995,3,0,43,5,1,3,2,7
25,2,3,12,69,4,2,2,15
25.005,35,5,8,23,10,2,2,1
25.01,19,3,13,27,3,2,3,14
25.015,29,3,56,26,20,9,7,34
25.02,16,39,45,2,5,3,4,14
25.025,15,24,45,1,3,1,2,9
25.03,9,18,20,25,6,4,3,14
25.035,24,5,6,81,22,5,4,20
25.04,86,4,37,69,8,6,4,26
25.045,70,17,72,10,4,3,5,11
25.05,9,2,8,47,14,4,1,5
25.055,29,2,34,68,5,1,1,8
25.06,3,10,8,2,3,0,2,3
25.065,9,5,33,74,10,1,6,8
25.07,26,21,6,83,1,4,7,17
25.075,7,7,12,49,3,5,1,6
25.08,36,7,2,24,5,8,3,16
25.085,24,6,63,68,33,15,5,19
25.09,12,11,17,33,2,8,4,8
25.095,14,19,11,55,8,5,0,4
25.1,11,14,39,58,16,3,2,2
25.105,27,7,18,16,6,1,1,8
25.11,19,10,27,38,2,4,2,9
25.115,1,6,37,17,2,5,5,2
25.12,6,3,6,5,9,8,5,2
25.125,25,3,15,16,1,0,1,4
25.13,38,3,16,10,2,0,1,6
25.135,0,23,44,11,5,6,7,26
25.14,21,14,37,4,12,5,3,4
25.145,37,27,25,4,3,7,8,7
25.15,8,17,14,90,8,2,1,4
25.155,9,17,11,87,3,2,2,11
25.16,5,27,30,64,16,7,6,5
25.165,11,11,7,30,1,10,5,11
25.17,25,5,7,16,12,2,2,13
25.175,23,4,69,22,4,4,1,1
25.18,10,6,40,0,17,6,3,9
25.185,17,26,83,49,31,6,1,3
25.19,8,23,73,54,23,4,4,4
25.195,5,15,40,31,6,5,1,4
25.2,32,4,23,19,8,3,2,0
25.205,1,11,3,38,9,2,3,0
25.21,8,19,11,46,26,5,1,13
25.215,16,13,22,71,13,3,2,7
25.22,21,16,11,62,5,10,9,17
25.225,32,9,9,49,20,3,1,9
25.23,21,5,13,19,12,1,0,2
25.235,13,7,16,7,3,2,1,8
25.24,7,0,10,24,5,1,1,3
25.245,6,10,41,19,6,4,1,1
25.25,23,24,70,31,2,1,2,1
25.255,24,15,6,60,4,5,2,1
25.26,17,10,50,46,8,1,5,7
25.265,19,3,15,2,8,2,1,2
25.27,0,2,26,28,2,3,4,5
25.275,11,8,12,36,8,4,3,3
25.28,6,3,5,42,15,1,0,4
25.285,17,20,78,119,22,4,3,8
25.29,12,0,37,77,1,8,6,4
25.295,5,6,18,34,15,5,2,0
25.3,4,4,24,35,26,3,3,1
25.305,2,1,1,9,32,1,1,2
25.31,2,2,3,8,15,0,1,5
25.315,8,1,16,1,6,1,0,1
25.32,1,1,22,15,3,3,2,0
25.325,3,5,1,16,11,0,2,1
25.33,5,8,25,0,11,1,2,1
25.335,0,1,21,13,7,1,2,2
25.34,0,4,9,4,1,3,3,3
25.345,2,4,2,15,4,3,2,1
25.35,3,1,1,17,8,1,2,5
25.355,0,1,24,44,7,3,1,1
25.36,3,4,5,5,7,3,1,1
25.365,5,1,7,14,2,0,1,1
25.37,1,0,7,21,1,6,1,1
25.375,1,1,18,8,2,1,2,1
25.38,3,2,5,8,2,0,1,1
25.385,0,1,7,32,1,5,4,0
25.39,1,1,5,49,14,4,0,1
25.395,2,3,12,0,10,1,0,2
25.4,2,3,3,0,7,1,3,4
25.405,1,2,1,9,4,2,2,2
25.41,1,1,2,4,5,4,2,3
25.415,3,2,5,14,10,1,1,3
25.42,0,1,4,4,2,1,1,1
25.425,1,2,2,40,15,3,1,1
25.43,3,1,4,17,4,2,1,2
25.435,2,1,4,0,6,3,3,0
25.44,1,1,2,20,4,0,2,1
25.445,2,3,1,3,3,3,2,2
25.45,0,1,0,21,1,2,0,1
25.455,1,1,6,2,3,3,2,0
25.46,2,3,2,4,1,2,1,1
25.465,1,1,0,5,6,1,1,2
25.47,1,0,4,13,4,2,1,2
25.475,0,0,3,4,2,7,4,2
25.48,0,0,0,8,2,1,1,1
25.485,1,1,2,2,1,1,0,0
25.49,3,2,1,18,0,4,2,3
25.495,1,1,5,26,0,4,1,1
25.5,3,3,1,4,2,1,2,2
25.505,1,0,1,1,5,1,0,3
25.51,0,1,0,7,8,1,2,2
25.515,1,2,2,6,11,0,1,2
25.52,1,1,0,4,3,1,0,1
25.525,1,1,1,4,2,0,0,1
25.53,2,1,2,2,4,4,2,1
25.535,2,2,1,5,2,1,2,1
25.54,2,3,3,1,1,2,1,0
25.545,2,1,2,9,3,3,0,1
25.55,0,1,4,3,2,3,2,1
25.555,1,2,1,4,5,3,1,2
25.56,2,1,2,4,3,0,1,0
25.565,1,4,1,12,11,2,3,2
25.57,1,1,1,10,10,1,0,1
25.575,0,1,1,5,7,5,1,0
25.58,1,1,2,1,1,1,0,0
25.585,3,2,4,0,2,1,0,1
25.59,1,2,2,0,2,1,0,3
25.595,2,4,3,0,0,1,1,1
25.6,0,2,0,7,2,0,1,3
25.605,1,0,0,1,2,2,2,1
25.61,2,0,0,1,6,3,2,1
25.615,1,1,1,2,5,0,1,1
25.62,0,1,3,11,5,5,2,1
25.625,1,0,3,3,1,2,3,3
25.63,3,2,1,1,4,1,0,1
25.635,1,2,3,2,3,3,1,2
25.64,2,1,0,0,3,4,3,0
25.645,1,1,3,2,5,0,2,2
25.65,1,0,0,2,6,3,0,1
25.655,0,1,2,4,10,2,1,1
25.66,0,1,3,12,2,0,1,0
25.665,0,2,1,0,1,1,0,1
25.67,2,2,0,4,6,1,1,1
25.675,0,3,1,2,4,2,1,1
25.68,3,0,1,1,4,0,1,2
25.685,2,1,7,0,3,4,1,2
25.69,2,2,17,26,1,1,2,2
25.695,1,1,2,2,2,1,4,2
25.7,1,2,5,4,3,3,2,3
25.705,1,1,4,1,1,0,1,1
25.71,0,3,1,2,4,4,0,2
25.715,3,1,16,14,3,2,2,2
25.72,1,3,12,22,6,3,1,1
25.725,1,2,3,9,5,3,1,1
25.73,0,2,4,4,3,0,2,0
25.735,1,0,2,2,5,0,3,3
25.74,1,0,5,2,3,1,0,0
25.745,0,4,10,21,5,1,3,3
25.75,7,3,18,24,1,2,1,2
25.755,9,6,27,12,9,5,4,6
25.76,6,1,31,3,5,2,0,5
25.765,0,5,7,2,11,8,7,2
25.77,3,0,2,10,7,0,1,3
25.775,3,4,8,20,8,5,2,5
25.78,3,2,4,8,0,6,3,6
25.785,3,7,24,43,8,8,5,5
25.79,5,2,17,5,3,1,3,1
25.795,8,1,17,1,7,2,1,6
25.8,16,4,4,23,8,1,0,6
25.805,13,0,3,1,0,2,2,1
25.81,6,1,13,18,1,2,1,2
25.815,4,1,15,25,4,3,1,4
25.82,10,1,25,93,7,2,1,1
25.825,15,3,19,42,1,1,0,7
25.83,1,6,9,20,2,1,2,6
25.835,17,0,11,31,4,2,0,10
25.84,12,8,23,42,5,6,3,2
25.845,14,8,29,22,14,3,1,6
25.85,34,14,64,8,14,4,1,8
25.855,46,17,21,42,2,1,3,1
25.86,20,13,32,2,8,5,2,11
25.865,10,6,7,78,5,5,2,3
25.87,4,21,47,41,7,2,2,14
25.875,17,26,112,8,1,2,3,19
25.88,15,4,68,8,17,9,7,2
25.885,34,10,22,79,6,10,5,5
25.89,5,4,3,13,16,11,6,5
25.895,13,5,41,21,15,3,3,4
25.9,12,2,13,75,15,3,4,10
25.905,6,11,26,10,4,3,3,5
25.91,42,25,23,18,5,2,2,9
25.915,9,14,52,6,9,5,4,9
25.92,8,6,1,7,2,3,1,1
25.925,17,6,29,20,13,3,2,2
25.93,22,12,2,7,12,2,0,9
25.935,9,7,19,21,6,4,2,3
25.94,6,3,5,27,8,3,1,4
25.945,51,20,26,4,7,4,0,10
25.95,38,10,19,12,4,3,3,7
25.955,4,11,36,7,13,7,2,4
25.96,31,33,39,41,0,4,0,15
25.965,48,7,50,0,1,5,7,16
25.97,7,5,66,23,6,1,2,5
25.975,7,11,36,27,10,2,0,4
25.98,16,4,4,65,1,1,2,2
25.985,6,17,17,33,21,7,3,3
25.99,5,6,37,85,8,2,0,2
25.995,4,11,3,18,1,2,2,1
26,1,5,14,22,1,1,2,8
26.005,2,3,5,12,7,4,0,8
26.01,3,11,10,36,6,3,1,7
26.015,11,1,5,7,2,2,3,2
26.02,2,2,3,36,0,0,2,5
26.025,4,0,0,32,10,1,2,2
26.03,12,3,19,19,4,5,0,1
26.035,3,3,17,9,2,4,1,1
26.04,3,1,1,3,8,5,0,3
26.045,1,6,19,8,5,1,0,1
26.05,3,7,1,14,1,2,1,0
26.055,2,5,14,13,3,1,3,3
26.06,4,3,2,12,6,0,3,3
26.065,8,0,5,34,7,3,1,3
26.07,6,8,1,28,3,4,1,3
26.075,3,3,1,21,12,5,3,1
26.08,4,2,3,14,4,3,3,2
26.085,3,2,4,23,5,1,0,1
26.09,1,5,6,5,4,0,1,0
26.095,0,3,10,1,2,2,0,0
26.1,0,0,10,13,0,0,1,0
26.105,3,1,4,8,4,4,4,1
26.11,2,1,1,11,5,4,3,3
26.115,2,2,3,4,3,1,1,3
26.12,1,3,5,3,5,2,0,3
26.125,1,1,2,2,10,0,2,3
26.13,4,1,0,7,1,0,1,4
26.135,1,3,2,5,3,2,1,0
26.14,0,1,3,2,2,1,1,1
26.145,0,0,3,7,1,3,3,2
26.15,2,4,7,7,1,1,1,1
26.155,1,2,1,2,2,2,0,2
26.16,1,2,1,10,1,2,2,2
26.165,2,0,1,15,9,3,0,1
26.17,3,0,2,5,8,2,1,2
26.175,1,0,1,0,3,2,0,1
26.18,1,2,1,6,2,1,0,1
26.185,2,2,3,9,2,0,0,0
26.19,2,2,3,7,5,1,1,0
26.195,1,0,2,5,5,4,3,2
26.2,1,2,2,3,1,3,3,1
26.205,2,1,3,0,1,2,0,1
26.21,1,1,2,4,5,2,1,1
26.215,1,1,0,2,1,0,1,1
26.22,3,1,2,2,3,1,3,3
26.225,1,2,1,6,2,1,1,1
26.23,1,3,2,2,3,2,0,1
26.235,4,3,2,0,4,2,3,1
26.24,0,0,1,1,8,3,1,1
26.245,3,1,4,6,13,1,1,1
26.25,1,1,0,3,1,6,1,3
26.255,2,1,0,1,7,3,1,4
26.26,1,0,1,5,2,3,0,0
26.265,2,2,3,6,4,6,2,1
26.27,1,4,3,3,5,3,2,1
26.275,0,3,0,0,4,3,0,2
26.28,1,1,0,1,5,2,1,1
26.285,2,1,1,6,7,4,3,1
26.29,0,1,0,5,5,0,2,0
26.295,0,1,0,2,4,0,0,0
26.3,1,2,5,17,1,2,1,1
26.305,1,1,0,1,0,1,1,0
26.31,2,3,1,2,3,4,2,2
26.315,1,2,1,5,7,2,1,2
26.32,1,1,4,8,1,1,1,1
26.325,1,1,1,4,0,1,0,0
26.33,3,1,1,1,0,2,1,3
26.335,0,1,2,8,8,5,5,3
26.34,1,3,0,4,3,3,0,2
26.345,1,0,2,2,2,0,0,1
26.35,2,1,1,10,1,3,1,1
26.355,4,1,5,19,4,5,2,1
26.36,0,0,0,6,1,3,0,1
26.365,2,2,4,12,6,3,1,0
26.37,1,2,2,1,4,1,1,2
26.375,1,1,1,2,5,2,2,1
26.38,0,1,2,2,4,6,3,1
26.385,1,2,1,9,6,4,1,0
26.39,3,1,3,11,1,0,0,2
26.395,2,1,0,1,0,2,2,1
26.4,2,0,2,1,0,2,1,1
26.405,1,2,0,1,7,3,3,2
26.41,2,2,3,2,0,1,0,2
26.415,3,2,2,5,1,1,0,1
26.42,0,1,0,4,2,4,1,0
26.425,0,1,2,7,1,1,1,2
26.43,2,1,3,1,0,0,2,2
26.435,0,0,1,6,8,2,0,2
26.44,2,2,3,5,1,3,0,1
26.445,2,1,3,6,7,4,2,2
26.45,1,1,1,1,0,4,3,1
26.455,1,0,1,1,3,2,2,1
26.46,2,1,0,1,1,2,1,1
26.465,0,1,2,0,6,3,1,3
26.47,0,1,1,5,5,3,1,0
26.475,0,3,3,9,8,3,1,1
26.48,2,0,3,9,1,1,0,0
26.485,2,1,6,2,2,2,1,1
26.49,1,3,12,4,3,2,2,2
26.495,2,1,0,2,4,5,2,0
26.5,2,0,1,3,3,1,1,1
26.505,2,1,5,7,4,2,1,0
26.51,0,1,5,8,6,1,1,1
26.515,1,1,2,15,4,0,1,1
26.52,0,1,3,3,5,1,1,1
26.525,2,3,1,3,3,3,2,3
26.53,0,1,1,5,1,0,1,0
26.535,0,2,1,3,1,1,1,1
26.54,1,1,1,2,1,3,1,1
26.545,1,0,4,1,2,1,4,1
26.55,1,1,0,12,6,2,0,2
26.555,3,1,1,11,7,1,2,2
26.56,2,1,1,3,5,3,0,0
26.565,0,1,0,4,1,1,2,3
26.57,1,0,1,6,1,1,1,0
26.575,1,2,2,23,7,0,0,1
26.58,0,0,1,5,1,2,2,1
26.585,2,1,4,5,2,0,0,2
26.59,3,0,0,0,1,5,4,2
26.595,0,0,0,9,0,1,1,2
26.6,2,3,6,5,3,1,0,1
26.605,5,2,6,4,2,0,2,3
26.61,1,3,5,2,2,2,3,1
26.615,4,2,15,1,8,5,1,3
26.62,3,1,36,15,2,2,3,5
26.625,6,9,33,9,6,3,1,1
26.63,6,23,6,19,13,2,5,3
26.635,1,9,13,5,8,2,1,1
26.64,2,1,17,19,7,0,1,2
26.645,3,3,27,38,20,12,4,3
26.65,9,10,55,15,12,5,3,11
26.655,7,21,36,14,13,10,7,18
26.66,9,8,1,10,2,1,3,1
26.665,6,3,3,15,5,3,5,2
26.67,10,5,23,5,5,8,2,10
26.675,3,1,49,29,3,1,0,4
26.68,7,20,15,15,6,1,5,0
26.685,6,27,12,58,4,4,2,10
26.69,7,8,17,5,12,5,1,2
26.695,19,10,9,17,2,3,1,2
26.7,8,0,15,24,3,2,3,1
26.705,6,4,4,18,21,6,1,4
26.71,6,9,41,62,19,8,1,4
26.715,8,9,25,27,3,1,0,3
26.72,12,28,23,14,5,4,4,6
26.725,16,8,14,1,6,2,0,6
26.73,29,6,81,112,18,3,1,5
26.735,4,12,46,90,10,4,3,3
26.74,27,13,25,47,4,2,1,6
26.745,2,2,17,41,9,4,2,7
26.75,4,6,16,4,5,2,1,0
26.755,2,1,22,1,8,4,0,3
26.76,13,4,31,20,6,3,1,15
26.765,5,0,30,33,9,3,3,1
26.77,12,2,2,27,8,2,1,6
26.775,2,6,44,15,2,0,0,10
26.78,2,22,73,42,13,8,6,8
26.785,2,6,36,5,0,1,0,1
26.79,2,11,48,26,8,6,7,9
26.795,1,1,0,51,10,5,0,0
26.8,4,6,13,2,5,4,1,5
26.805,1,4,18,25,2,1,2,0
26.81,20,13,30,20,10,2,2,4
26.815,1,6,25,19,3,1,2,1
26.82,2,9,1,18,4,1,1,1
26.825,4,1,5,21,10,3,3,5
26.83,8,7,7,21,7,3,1,1
26.835,15,6,8,3,15,3,2,13
26.84,1,8,29,24,3,2,3,0
26.845,13,3,26,24,1,1,1,0
26.85,3,4,6,2,2,2,2,2
26.855,13,4,17,10,3,1,2,6
26.86,6,5,53,61,0,0,5,3
26.865,4,3,33,44,6,0,1,3
26.87,8,9,5,32,8,1,1,1
26.875,18,7,19,72,8,0,0,4
26.88,15,7,14,34,4,1,1,8
26.885,2,6,28,22,1,1,1,4
26.89,2,2,4,10,3,0,0,4
26.895,1,2,2,3,2,1,3,0
26.9,3,3,9,1,2,0,4,2
26.905,1,1,18,15,3,3,3,4
26.91,0,3,16,35,2,3,0,2
26.915,2,0,5,3,9,1,1,1
26.92,3,2,28,4,1,2,2,4
26.925,1,1,0,15,2,0,0,4
26.93,3,1,5,22,5,3,3,5
26.935,1,0,2,2,4,3,1,0
26.94,5,1,15,21,8,3,1,7
26.945,4,2,10,9,2,0,1,1
26.95,2,1,6,4,9,1,0,1
26.955,1,1,4,5,6,2,1,1
26.96,4,3,4,7,12,1,2,3
26.965,2,2,4,11,15,4,2,2
26.97,0,3,8,5,13,3,1,3
26.975,2,2,7,7,7,4,3,0
26.98,2,1,3,4,3,4,4,4
26.985,1,0,5,10,2,3,2,1
26.99,1,4,9,2,0,0,1,1
26.995,3,2,2,9,4,0,0,1
27,3,0,6,22,4,0,0,2
27.005,2,0,2,2,5,1,0,1
27.01,1,1,2,6,4,4,0,1
27.015,1,1,2,1,4,6,3,1
27.02,2,4,4,19,18,0,1,2
27.025,3,1,2,38,15,0,1,1
27.03,1,0,2,2,6,2,0,2
27.035,2,0,2,11,6,1,1,0
27.04,2,2,4,4,2,2,2,3
27.045,0,1,0,25,17,0,1,0
27.05,4,5,1,10,5,1,1,2
27.055,3,3,4,15,14,6,4,3
27.06,0,2,2,13,2,1,1,1
27.065,0,1,1,9,6,1,0,0
27.07,0,0,1,15,9,1,2,1
27.075,3,8,2,8,4,2,1,3
27.08,1,2,2,10,2,2,0,1
27.085,1,0,1,0,0,2,2,3
27.09,1,2,3,2,6,2,0,2
27.095,1,4,2,3,1,2,0,2
27.1,2,6,0,14,5,2,1,1
27.105,2,2,4,0,0,2,1,1
27.11,1,7,0,9,3,0,0,1
27.115,1,6,0,3,3,1,1,1
27.12,5,4,2,2,0,6,3,2
27.125,2,5,9,19,2,3,0,1
27.13,0,2,1,6,2,4,2,4
27.135,2,3,2,0,8,2,1,1
27.14,0,0,6,24,7,1,1,2
27.145,1,2,1,16,4,1,0,1
27.15,2,2,1,5,3,2,0,1
27.155,1,2,2,16,6,2,0,2
27.16,2,3,1,10,1,1,2,1
27.165,2,2,0,13,13,0,2,1
27.17,1,1,3,32,19,2,1,1
27.175,1,1,1,20,4,1,1,2
27.18,1,0,2,20,5,1,1,0
27.185,2,2,1,3,10,1,2,1
27.19,2,1,1,21,12,0,2,4
27.195,2,0,2,13,7,4,2,1
27.2,2,3,0,6,1,2,2,3
27.205,1,4,0,5,4,1,0,1
27.21,3,2,2,7,0,1,0,2
27.215,2,1,0,1,7,0,3,3
27.22,2,1,3,0,5,4,1,0
27.225,0,2,1,5,6,3,0,3
27.23,1,1,4,4,7,1,3,1
27.235,0,3,1,6,3,2,0,2
27.24,0,1,1,1,4,1,2,2
27.245,2,0,0,2,1,1,2,1
27.25,1,1,1,4,3,3,4,2
27.255,4,1,2,1,1,1,3,2
27.26,0,1,2,7,1,0,0,2
27.265,4,2,6,19,6,4,0,2
27.27,2,2,3,6,1,1,1,1
27.275,0,1,13,2,2,2,4,1
27.28,2,1,10,14,4,0,1,0
27.285,0,3,9,14,0,0,1,0
27.29,4,1,11,12,4,3,1,3
27.295,2,1,5,6,1,2,3,0
27.3,4,2,8,9,0,0,1,0
27.305,0,2,3,9,0,0,3,1
27.31,0,0,4,0,2,0,0,1
27.315,0,1,14,1,6,2,1,2
27.32,2,3,3,2,4,2,1,3
27.325,1,1,5,26,7,1,1,2
27.33,1,3,1,9,3,1,3,2
27.335,5,1,5,23,4,5,1,1
27.34,0,3,29,17,3,3,3,2
27.345,1,2,7,14,8,1,2,1
27.35,0,1,4,2,1,1,0,0
27.355,2,1,13,5,3,3,3,2
27.36,1,0,7,5,1,2,3,0
27.365,0,4,1,21,10,4,1,0
27.37,0,7,33,26,5,0,1,1
27.375,3,1,10,22,2,0,1,1
27.38,3,1,3,2,4,1,1,2
27.385,1,1,9,6,1,1,3,1
27.39,5,3,34,10,4,0,1,4
27.395,2,0,16,22,5,3,1,1
27.4,0,1,1,3,2,1,2,2
27.405,0,1,5,30,3,1,1,0
27.41,2,4,18,29,2,1,1,2
27.415,4,2,1,6,5,1,3,9
27.42,2,15,53,6,0,2,2,7
27.425,5,11,49,12,11,2,0,6
27.43,3,1,1,5,13,3,1,2
27.435,4,8,16,1,9,4,3,7
27.44,25,9,4,9,1,2,1,2
27.445,8,3,12,48,5,6,3,12
27.45,8,4,17,88,3,3,2,1
27.455,15,1,41,12,13,3,1,2
27.46,18,3,57,40,12,3,3,6
27.465,12,23,49,13,1,1,1,4
27.47,23,10,4,24,5,0,0,4
27.475,6,14,49,19,6,5,1,3
27.48,2,14,22,17,7,3,2,2
27.485,10,3,10,34,0,3,0,5
27.49,17,4,1,5,12,1,4,4
27.495,7,6,18,29,1,2,1,2
27.5,2,9,41,24,4,3,2,10
27.505,3,1,11,28,8,7,3,0
27.51,2,1,14,35,17,3,2,2
27.515,20,9,23,85,7,6,2,4
27.52,8,15,58,107,4,4,5,17
27.525,23,1,20,94,21,6,1,22
27.53,10,4,3,23,3,2,1,8
27.535,7,1,26,34,2,3,1,2
27.54,5,3,41,6,1,1,3,1
27.545,5,31,61,91,12,6,1,6
27.55,25,34,61,101,5,0,0,10
27.555,32,12,6,57,14,8,1,15
27.56,0,5,19,44,17,7,9,17
27.565,26,2,21,56,12,5,2,7
27.57,10,7,9,25,1,1,3,10
27.575,44,9,22,14,5,2,0,29
27.58,38,22,4,1,3,2,1,7
27.585,5,8,41,24,0,1,0,13
27.59,11,2,13,57,7,0,0,7
27.595,1,1,6,47,8,7,3,15
27.6,20,1,8,18,5,3,2,0
27.605,1,16,32,51,2,4,1,9
27.61,23,3,13,47,18,1,4,11
27.615,8,6,8,24,18,1,0,6
27.62,10,1,7,5,10,2,2,3
27.625,12,5,37,12,2,3,3,4
27.63,1,8,11,31,1,3,1,1
27.635,8,4,26,20,19,1,2,9
27.64,23,10,6,12,20,5,1,11
27.645,30,8,4,20,2,0,0,18
27.65,7,6,10,47,7,6,5,9
27.655,1,9,21,8,5,1,3,1
27.66,3,10,14,2,13,7,2,5
27.665,0,2,2,11,4,8,4,9
27.67,10,4,5,17,10,1,1,1
27.675,33,1,45,8,7,2,4,32
27.68,3,7,17,11,6,1,1,1
27.685,0,1,12,64,10,3,2,1
27.69,8,4,0,41,21,10,2,6
27.695,3,4,12,14,21,1,1,5
27.7,7,6,14,80,10,1,2,4
27.705,2,0,7,41,13,5,3,9
27.71,7,4,28,19,0,4,2,5
27.715,4,0,2,11,9,1,0,8
27.72,2,4,12,38,0,2,0,5
27.725,0,2,17,16,2,0,0,2
27.73,1,1,6,9,14,4,1,1
27.735,8,8,3,12,1,4,3,8
27.74,4,5,3,39,3,5,3,0
27.745,7,3,4,1,2,4,2,1
27.75,6,2,7,3,2,2,2,1
27.755,3,8,3,0,2,1,4,5
27.76,3,4,11,21,4,5,1,4
27.765,0,1,5,1,11,1,1,1
27.77,1,5,1,14,8,5,3,7
27.775,7,6,5,47,14,4,2,4
27.78,1,6,12,48,4,2,1,0
27.785,1,2,7,1,3,0,2,2
27.79,1,1,10,8,11,2,1,4
27.795,1,3,2,23,11,2,2,0
27.8,2,2,4,11,6,0,1,1
27.805,1,2,1,3,0,1,1,3
27.81,1,3,2,3,4,3,2,2
27.815,3,2,0,9,2,0,2,2
27.82,1,1,6,13,4,0,0,4
27.825,1,2,4,17,4,1,1,0
27.83,1,0,1,15,3,4,2,2
27.835,1,4,2,25,9,2,2,1
27.84,1,1,1,1,2,1,0,0
27.845,1,0,2,2,2,5,2,2
27.85,1,0,2,4,4,0,0,2
27.855,1,4,3,14,2,2,2,3
27.86,1,2,2,11,0,0,1,1
27.865,1,2,1,8,7,1,1,1
27.87,1,5,2,6,8,3,2,1
27.875,1,2,0,13,1,0,3,4
27.88,1,1,0,16,2,1,0,0
27.885,2,1,1,7,3,2,1,1
27.89,2,0,2,5,1,4,1,1
27.895,3,3,5,24,2,3,1,0
27.9,1,1,3,4,6,1,0,1
27.905,0,2,0,21,10,2,1,0
27.91,2,1,2,8,5,0,2,2
27.915,2,3,3,18,0,1,1,1
27.92,1,0,1,11,5,4,2,2
27.925,1,1,2,1,5,2,3,2
27.93,0,0,1,3,2,1,0,2
27.935,0,0,3,12,1,1,0,2
27.94,1,1,2,6,1,1,1,1
27.945,2,2,2,9,5,0,1,1
27.95,1,3,5,4,10,0,1,0
27.955,0,1,1,2,8,3,0,1
27.96,0,1,1,3,1,4,1,1
27.965,1,0,1,7,5,0,0,1
27.97,3,4,9,2,3,5,3,1
27.975,2,1,2,6,2,0,2,2
27.98,1,5,0,2,0,3,2,1
27.985,0,1,2,3,1,1,2,3
27.99,1,0,2,8,1,3,1,2
27.995,0,1,1,28,2,4,1,1
28,2,1,9,67,3,2,1,2
28.005,0,0,2,0,12,2,0,2
28.01,1,1,0,1,2,3,2,1
28.015,1,1,2,6,3,1,0,0
28.02,1,3,1,21,3,2,2,1
28.025,2,3,3,6,2,1,3,1
28.03,1,0,0,5,3,1,0,3
28.035,2,0,2,5,0,0,2,4
28.04,2,1,1,4,4,2,0,2
28.045,1,1,3,4,4,2,1,2
28.05,1,2,1,1,4,0,1,3
28.055,1,2,2,8,7,3,1,2
28.06,0,1,3,11,8,1,1,1
28.065,3,1,2,3,1,1,2,1
28.07,1,1,0,1,4,4,2,0
28.075,1,2,0,4,6,1,1,2
28.08,2,1,1,6,3,0,1,0
28.085,2,1,0,1,1,2,3,2
28.09,1,2,0,2,5,1,2,1
28.095,3,2,0,7,2,0,3,1
28.1,0,1,1,14,0,5,3,1
28.105,0,0,2,15,4,1,1,1
28.11,2,2,2,3,4,2,3,0
28.115,2,0,1,2,3,0,1,0
28.12,3,1,2,3,5,0,0,1
28.125,1,1,3,1,2,1,1,2
28.13,1,0,1,5,2,1,0,0
28.135,1,0,0,2,3,1,1,2
28.14,1,1,0,4,5,1,3,0
28.145,1,2,2,2,2,1,1,1
28.15,2,3,2,3,3,1,1,0
28.155,1,1,1,5,5,1,0,1
28.16,1,1,1,1,3,2,0,1
28.165,0,2,3,5,2,2,1,2
28.17,1,1,2,2,2,1,1,3
28.175,1,0,1,8,4,1,1,1
28.18,2,2,1,8,4,1,1,2
28.185,1,1,1,2,0,0,1,1
28.19,2,0,2,3,5,1,0,0
28.195,2,5,5,19,4,0,1,0
28.2,0,3,0,3,3,1,1,3
28.205,2,3,3,5,3,1,2,1
28.21,3,5,2,5,3,2,4,2
28.215,2,1,3,24,9,0,3,2
28.22,1,2,5,3,12,0,0,0
28.225,0,1,5,1,6,0,1,0
28.23,1,0,0,4,7,0,0,1
28.235,1,3,1,5,1,5,1,2
28.24,0,4,7,4,2,2,2,0
28.245,3,6,17,20,7,2,1,0
28.25,2,1,5,5,3,2,1,1
28.255,2,3,5,17,6,2,1,0
28.26,1,3,19,13,7,2,2,2
28.265,9,4,14,6,3,3,3,6
28.27,5,1,17,15,1,3,1,3
28.275,3,0,21,11,6,1,1,2
28.28,1,16,38,36,1,2,1,1
28.285,14,39,106,9,3,3,0,4
28.29,10,11,32,5,0,2,0,8
28.295,6,3,41,26,8,3,4,1
28.3,6,9,3,6,1,4,7,5
28.305,0,5,2,9,5,3,1,0
28.31,2,4,3,28,11,5,2,0
28.315,5,5,27,5,8,7,1,4
28.32,2,5,53,58,17,9,5,14
28.325,16,5,67,27,2,1,2,7
28.33,17,4,13,35,6,1,0,5
28.335,6,10,31,25,6,6,1,10
28.34,1,9,13,22,6,3,1,3
28.345,9,12,13,1,3,1,1,3
28.35,4,3,22,23,6,3,2,4
28.355,3,2,19,37,6,1,2,3
28.36,6,13,22,25,1,2,1,10
28.365,7,19,48,32,5,5,5,16
28.37,4,20,81,89,3,0,0,1
28.375,9,41,33,58,5,10,6,12
28.38,8,0,58,43,8,3,1,2
28.385,7,9,9,25,9,6,6,4
28.39,1,21,59,39,7,3,4,11
28.395,11,17,31,56,1,3,3,1
28.4,9,11,3,3,7,1,0,4
28.405,7,7,16,21,10,5,3,8
28.41,11,7,6,45,7,5,4,1
28.415,6,1,11,17,2,0,3,11
28.42,0,1,12,2,1,5,5,5
28.425,2,19,82,20,6,2,0,3
28.43,32,16,59,3,5,3,3,2
28.435,4,8,12,11,9,2,1,1
28.44,23,14,1,38,13,9,5,1
28.445,2,5,52,3,1,1,1,1
28.45,6,9,10,49,19,12,4,1
28.455,2,10,2,9,9,1,3,2
28.46,17,7,45,52,0,3,5,18
28.465,10,14,89,18,24,0,4,12
28.47,12,6,18,108,32,8,5,4
28.475,2,13,16,30,1,0,2,3
28.48,2,6,15,13,9,0,0,4
28.485,11,11,50,8,2,2,4,10
28.49,3,14,16,2,14,2,0,14
28.495,4,4,33,23,5,0,4,10
28.5,3,1,38,57,16,2,2,4
28.505,13,10,68,41,5,0,1,4
28.51,8,2,14,15,5,2,1,8
28.515,7,3,0,19,3,3,1,0
28.52,11,3,24,12,10,3,5,5
28.525,8,6,43,23,11,1,2,1
28.53,4,11,45,0,3,6,4,3
28.535,8,6,48,38,12,6,2,2
28.54,3,5,41,18,16,1,1,2
28.545,3,3,17,21,6,1,2,5
28.55,1,10,28,31,8,0,0,1
28.555,0,24,60,9,16,5,5,1
28.56,10,4,17,25,4,2,0,2
28.565,5,13,24,41,16,2,1,5
28.57,3,27,39,1,8,2,4,1
28.575,2,6,18,29,6,5,0,8
28.58,3,5,4,15,7,2,1,4
28.585,7,16,47,9,2,1,4,10
28.59,14,5,33,8,2,10,9,3
28.595,10,27,102,17,0,5,0,0
28.6,1,6,6,11,15,2,5,6
28.605,5,5,31,10,19,2,3,5
28.61,6,2,6,18,0,2,2,5
28.615,2,3,2,28,5,1,0,4
28.62,2,9,10,7,4,6,4,8
28.625,5,3,2,12,19,5,1,5
28.63,0,3,2,23,7,0,2,1
28.635,2,6,24,22,2,1,1,4
28.64,3,1,14,12,4,4,1,0
28.645,5,1,16,11,3,2,3,3
28.65,3,1,16,8,1,5,2,2
28.655,3,4,3,2,3,1,1,2
28.66,1,1,3,18,2,3,2,2
28.665,3,4,11,3,5,4,3,0
28.67,3,1,2,7,2,3,2,3
28.675,0,1,3,7,0,0,1,0
28.68,0,1,2,1,2,5,2,1
28.685,3,1,8,4,10,0,0,0
28.69,3,3,9,2,8,1,1,3
28.695,0,1,11,7,0,0,1,0
28.7,0,2,1,6,2,4,1,1
28.705,0,4,2,22,9,1,1,3
28.71,3,0,5,55,14,0,0,1
28.715,2,3,4,3,0,1,2,1
28.72,2,2,0,2,3,0,1,2
28.725,3,2,2,15,10,1,0,1
28.73,1,1,5,7,5,3,1,1
28.735,3,1,4,3,5,2,0,2
28.74,0,2,2,10,15,3,1,0
28.745,0,1,2,4,5,1,0,3
28.75,1,0,4,19,11,3,2,1
28.755,2,1,1,5,6,3,6,2
28.76,3,5,3,11,9,3,2,2
28.765,0,3,3,19,13,5,3,3
28.77,1,1,1,13,1,0,1,4
28.775,1,0,2,3,4,3,1,2
28.78,1,1,2,7,8,0,4,0
28.785,1,1,5,0,7,3,1,2
28.79,1,0,1,2,1,0,2,0
28.795,0,1,7,1,4,2,0,2
28.8,3,2,0,1,7,3,2,1
28.805,1,0,2,7,3,1,3,0
28.81,2,1,3,1,4,2,2,0
28.815,1,4,6,4,4,3,0,0
28.82,0,0,0,19,4,5,1,0
28.825,1,1,4,11,2,0,0,0
28.83,0,3,1,11,1,3,3,3
28.835,1,2,0,1,2,1,1,4
28.84,0,0,2,1,5,3,3,1
28.845,3,2,3,14,6,3,1,2
28.85,0,1,9,6,2,0,1,1
28.855,0,1,1,3,1,3,1,1
28.86,0,3,1,3,4,1,1,3
28.865,0,3,2,14,1,8,1,1
28.87,0,1,1,4,2,5,3,1
28.875,0,0,1,5,2,0,1,1
28.88,0,2,2,4,0,1,2,0
28.885,1,2,1,4,0,3,2,2
28.89,2,1,1,4,3,1,1,2
28.895,2,2,2,6,5,0,3,1
28.9,0,2,3,1,0,0,0,1
28.905,0,0,3,4,1,2,0,3
28.91,2,1,2,6,3,1,2,3
28.915,2,1,3,7,1,3,0,0
28.92,1,1,0,3,2,2,1,0
28.925,1,1,1,4,3,1,2,1
28.93,2,1,0,0,1,0,1,1
28.935,2,1,1,3,2,0,4,1
28.94,1,1,2,2,0,1,1,1
28.945,1,2,1,4,2,2,0,3
28.95,0,0,0,5,5,4,0,1
28.955,1,1,2,4,1,3,1,1
28.96,1,1,1,1,3,0,2,1
28.965,2,2,2,1,3,3,2,2
28.97,1,1,1,6,6,2,1,0
28.975,1,0,2,7,2,2,1,0
28.98,3,1,0,1,1,3,0,0
28.985,0,2,3,6,1,0,1,1
28.99,3,1,3,1,2,3,2,2
28.995,0,2,2,3,2,4,1,1
29,2,2,3,3,1,2,1,1
29.005,1,1,0,4,2,2,3,1
29.01,1,1,1,1,4,1,1,1
29.015,0,0,0,0,1,1,1,1
29.02,0,1,1,6,2,2,1,2
29.025,2,1,1,3,7,3,2,2
29.03,1,2,3,1,4,4,1,0
29.035,0,2,2,6,1,3,2,1
29.04,1,0,1,2,5,2,4,0
29.045,0,1,2,0,2,2,1,3
29.05,1,1,5,3,2,4,1,1
29.055,2,4,21,9,3,1,0,1
29.06,1,0,2,1,1,1,0,1
29.065,2,2,0,3,0,5,1,0
29.07,2,0,1,1,9,1,1,1
29.075,1,1,8,7,2,2,2,1
29.08,0,1,3,16,8,0,1,1
29.085,2,2,0,13,2,2,2,3
29.09,2,2,2,4,0,1,0,1
29.095,2,5,2,2,3,1,2,1
29.1,3,1,2,4,0,0,0,3
29.105,1,0,3,6,2,5,1,1
29.11,0,0,6,8,1,3,2,2
29.115,0,0,0,3,1,2,1,2
29.12,0,2,3,16,2,2,2,1
29.125,3,1,3,13,4,0,0,2
29.13,2,2,5,10,1,2,1,2
29.135,2,0,1,1,5,0,2,1
29.14,0,1,2,4,2,2,4,1
29.145,0,0,1,4,3,1,4,0
29.15,0,1,5,11,1,1,1,2
29.155,1,2,6,5,1,4,2,4
29.16,1,5,14,14,0,4,5,3
29.165,4,7,6,4,5,7,5,5
29.17,4,3,16,14,0,2,2,3
29.175,2,2,11,4,2,5,3,2
29.18,11,4,9,4,1,1,1,1
29.185,5,1,24,3,8,1,1,1
29.19,1,3,6,12,9,2,1,0
29.195,5,1,16,5,2,2,4,0
29.2,1,2,5,3,3,5,3,2
29.205,4,1,39,12,7,3,3,2
29.21,3,3,7,3,1,2,2,0
29.215,5,2,18,10,0,3,2,6
29.22,5,3,15,2,3,0,1,2
29.225,8,6,5,11,4,1,1,3
29.23,4,12,20,15,9,0,3,4
29.235,1,6,21,6,2,0,1,0
29.24,0,3,7,1,3,3,3,0
29.245,3,5,10,12,3,1,1,1
29.25,2,3,6,18,11,1,0,0
29.255,10,12,13,33,4,4,2,5
29.26,6,1,29,39,2,4,0,5
29.265,3,6,3,18,13,4,4,4
29.27,3,6,1,48,10,0,1,5
29.275,16,20,43,45,9,5,3,11
29.28,26,10,68,19,6,2,1,10
29.285,16,4,57,2,13,4,2,10
29.29,14,10,6,9,1,5,7,8
29.295,11,13,28,30,0,5,2,4
29.3,12,17,11,24,3,1,2,14
29.305,6,6,41,27,5,2,1,6
29.31,4,2,6,7,6,1,1,10
29.315,10,7,27,28,6,5,4,8
29.32,5,1,25,12,4,1,2,6
29.325,12,4,3,26,12,4,1,1
29.33,1,2,3,17,10,2,2,1
29.335,3,4,19,27,3,1,0,5
29.34,8,3,24,3,8,1,0,5
29.345,9,8,31,13,3,2,3,4
29.35,13,5,24,8,8,4,4,17
29.355,11,11,18,29,6,2,2,0
29.36,2,4,17,2,1,1,4,10
29.365,1,8,19,18,2,1,1,3
29.37,6,8,5,4,13,1,0,8
29.375,1,4,21,33,14,3,4,6
29.38,2,6,9,15,2,1,0,8
29.385,23,21,21,27,12,6,3,1
29.39,11,3,0,13,7,2,1,6
29.395,5,4,13,11,16,0,0,21
29.4,1,1,4,8,4,1,1,4
29.405,1,6,12,12,3,0,1,2
29.41,4,1,7,43,4,3,1,2
29.415,2,5,29,5,4,4,1,8
29.42,5,0,18,5,2,5,6,7
29.425,2,14,37,31,16,6,5,6
29.43,0,4,37,56,16,1,3,4
29.435,1,7,21,12,8,2,0,0
29.44,7,18,30,24,6,2,0,4
29.445,0,3,15,36,21,2,5,2
29.45,2,1,14,23,17,0,1,4
29.455,4,3,39,20,4,2,0,2
29.46,14,3,7,5,2,4,1,4
29.465,10,10,19,14,1,7,4,3
29.47,2,5,13,7,1,2,2,2
29.475,9,8,7,7,2,1,2,4
29.48,7,4,25,13,10,6,0,1
29.485,3,8,36,36,7,2,2,4
29.49,3,2,18,27,6,2,0,1
29.495,5,2,22,15,4,2,3,2
29.5,5,2,11,10,7,0,4,3
29.505,2,5,14,6,2,1,1,4
29.51,3,8,11,2,8,0,3,1
29.515,1,0,11,7,3,2,0,4
29.52,0,0,26,13,4,5,1,2
29.525,4,2,28,18,5,1,0,2
29.53,0,0,9,11,5,0,1,1
29.535,0,4,24,12,1,3,3,1
29.54,0,1,11,14,1,0,0,2
29.545,4,4,16,13,1,0,2,2
29.55,2,1,1,14,2,4,2,0
29.555,0,6,15,24,6,0,2,1
29.56,3,2,16,11,5,1,2,3
29.565,2,1,10,9,2,2,0,1
29.57,3,1,11,13,10,1,1,3
29.575,1,2,4,3,2,1,2,0
29.58,2,3,1,2,2,5,2,4
29.585,1,3,15,20,7,6,1,0
29.59,1,2,2,6,5,4,2,1
29.595,1,2,3,4,6,5,1,2
29.6,2,0,2,5,2,0,2,1
29.605,1,1,7,1,5,3,1,4
29.61,0,3,2,13,3,2,2,0
29.615,2,0,0,3,3,1,1,3
29.62,2,3,4,1,0,2,1,1
29.625,2,0,5,9,4,4,4,2
29.63,1,1,2,13,3,1,0,0
29.635,0,0,3,2,13,1,0,1
29.64,4,5,6,22,9,1,3,3
29.645,1,0,2,6,6,1,2,0
29.65,0,0,3,7,4,3,2,3
29.655,1,2,4,3,9,2,3,1
29.66,2,0,0,0,1,3,2,1
29.665,0,0,2,3,2,2,1,1
29.67,2,2,5,9,2,3,0,2
29.675,3,2,2,2,5,4,0,0
29.68,0,1,0,3,4,3,3,4
29.685,0,1,2,7,1,3,0,1
29.69,1,2,1,4,2,3,2,1
29.695,1,0,3,17,2,3,3,3
29.7,1,1,20,36,8,0,2,1
29.705,0,1,1,9,8,4,3,1
29.71,2,1,4,5,3,1,2,0
29.715,0,2,3,4,5,2,1,1
29.72,1,1,7,2,1,1,2,2
29.725,1,1,0,4,1,1,1,0
29.73,2,0,1,4,1,2,1,1
29.735,1,1,0,4,2,1,1,1
29.74,1,1,4,11,2,3,2,0
29.745,1,4,4,2,8,2,1,1
29.75,1,2,6,6,7,2,0,1
29.755,3,0,6,12,7,4,4,1
29.76,1,1,11,24,4,2,0,2
29.765,2,3,19,28,1,1,1,0
29.77,1,6,8,9,9,2,1,1
29.775,2,3,25,21,3,2,1,1
29.78,6,3,6,14,1,0,4,2
29.785,1,0,2,18,7,3,1,1
29.79,2,3,13,13,3,0,1,2
29.795,0,2,22,4,6,1,2,0
29.8,8,4,19,5,1,2,1,6
29.805,2,0,2,9,6,1,1,2
29.81,8,4,3,5,0,2,3,3
29.815,3,3,7,2,3,0,1,2
29.82,3,2,7,2,3,0,2,2
29.825,1,5,17,4,7,3,5,0
29.83,1,0,1,1,2,3,0,3
29.835,3,3,14,1,4,1,1,1
29.84,6,1,3,3,1,2,0,3
29.845,3,2,5,1,4,3,0,2
29.85,2,0,1,0,0,2,3,1
29.855,2,1,21,7,0,2,1,2
29.86,6,1,10,6,4,0,2,1
29.865,4,1,1,1,3,0,1,2
29.87,0,0,1,4,1,0,1,2
29.875,3,0,12,3,2,1,1,0
29.88,2,0,0,8,4,6,2,1
29.885,2,2,3,13,2,1,0,1
29.89,0,2,7,18,2,2,0,2
29.895,3,4,9,2,1,1,3,3
29.9,3,1,1,15,1,2,0,2
29.905,3,2,2,10,6,0,1,0
29.91,1,1,1,9,5,2,5,0
29.915,1,2,4,1,2,4,1,2
29.92,3,1,4,5,10,7,1,2
29.925,1,1,3,36,2,2,1,3
29.93,1,4,15,54,15,7,1,1
29.935,0,1,1,10,8,3,1,2
29.94,0,0,3,13,2,2,1,0
29.945,1,0,3,19,2,3,2,2
29.95,1,1,1,26,6,0,1,2
29.955,1,0,6,39,11,3,1,0
29.96,2,1,1,3,2,1,2,1
29.965,3,2,2,17,3,4,1,2
29.97,1,0,3,6,1,1,1,1
29.975,3,2,4,0,5,1,2,2
29.98,0,0,1,6,6,1,1,1
29.985,0,1,1,2,7,2,2,2
29.99,3,1,5,21,16,2,1,3
29.995,0,1,3,7,4,1,0,1
30,1,3,1,1,5,0,2,1
30.005,1,3,2,10,2,0,1,0
30.01,0,2,2,14,1,1,1,1
30.015,1,0,0,4,4,4,3,2
30.02,3,1,1,4,2,5,1,0
30.025,2,1,5,23,4,2,1,0
30.03,0,1,1,13,10,4,1,1
30.035,2,3,2,3,7,1,3,2
30.04,1,1,0,3,3,2,1,0
30.045,1,0,1,1,9,3,1,1
30.05,3,0,1,6,3,0,2,2
30.055,1,1,1,1,2,2,0,1
30.06,0,2,5,14,3,3,3,2
30.065,1,3,0,11,6,1,0,1
30.07,1,1,2,2,2,2,2,1
30.075,1,1,6,0,1,0,1,2
30.08,2,2,3,4,1,2,4,4
30.085,2,1,18,17,2,1,1,0
30.09,1,1,4,6,0,2,1,4
30.095,2,4,3,10,2,2,0,1
30.1,1,2,2,1,4,1,0,1
30.105,1,1,3,4,1,1,2,1
30.11,2,0,4,7,5,4,1,0
30.115,4,1,8,20,2,1,0,1
30.12,2,1,15,5,5,1,1,0
30.125,2,2,11,2,1,3,4,2
30.13,2,0,25,15,4,2,1,1
30.135,2,3,4,1,0,2,2,2
30.14,0,0,6,6,2,0,2,1
30.145,1,2,6,7,2,2,2,1
30.15,0,2,11,13,2,0,2,0
30.155,0,1,1,4,0,3,2,0
30.16,0,1,4,1,3,2,1,0
30.165,1,1,7,7,3,1,1,1
30.17,1,3,1,3,6,3,2,1
30.175,1,1,3,0,0,0,2,1
30.18,0,1,5,2,2,1,0,1
30.185,2,0,4,4,1,2,3,3
30.19,2,3,3,4,0,1,1,3
30.195,0,1,6,7,3,1,1,1
30.2,3,1,3,16,4,3,1,2
30.205,0,2,0,6,2,0,1,0
30.21,1,1,6,1,2,3,2,3
30.215,0,1,3,3,1,0,2,1
30.22,1,1,1,0,0,1,3,0
30.225,4,2,8,15,2,3,1,4
30.23,10,3,8,4,5,0,4,4
30.235,8,3,13,21,5,1,1,1
30.24,5,2,2,14,1,1,0,3
30.245,0,0,0,10,7,3,2,1
30.25,3,3,5,7,0,1,0,3
30.255,2,2,1,1,0,3,2,2
30.26,2,3,9,7,2,1,2,0
30.265,0,1,8,2,3,1,1,1
30.27,3,2,1,14,1,2,2,2
30.275,0,4,19,9,1,1,2,0
30.28,17,3,16,3,4,2,3,7
30.285,6,0,21,11,9,3,2,1
30.29,0,1,2,2,2,2,1,1
30.295,1,0,3,0,0,2,0,1
30.3,2,2,5,9,3,0,3,5
30.305,2,0,21,10,8,2,1,2
30.31,4,0,9,5,1,3,1,2
30.315,2,9,46,41,1,2,2,5
30.32,2,7,48,10,3,6,3,2
30.325,1,0,34,11,9,1,4,5
30.33,8,0,7,17,1,1,2,7
30.335,2,5,12,8,7,1,2,1
30.34,5,7,11,14,1,2,2,3
30.345,2,4,20,8,20,0,0,2
30.35,2,2,11,19,11,2,3,4
30.355,3,2,23,28,5,4,1,5
30.36,5,6,37,51,9,6,3,5
30.365,4,1,24,78,11,3,0,5
30.37,6,9,33,9,7,0,3,0
30.375,5,10,24,72,3,4,2,4
30.38,12,26,51,30,1,1,1,2
30.385,15,43,80,4,1,2,1,6
30.39,0,1,11,1,5,5,6,16
30.395,6,12,25,16,1,0,0,0
30.4,2,9,28,4,5,0,3,0
30.405,6,21,59,50,1,3,1,1
30.41,2,7,53,52,6,2,2,0
30.415,4,18,20,24,7,4,5,8
30.42,2,6,4,12,11,3,2,1
30.425,5,3,13,45,4,3,2,2
30.43,2,5,23,17,8,5,1,4
30.435,28,3,13,6,5,0,0,1
30.44,7,7,1,2,10,1,2,7
30.445,1,2,21,12,4,2,2,3
30.45,3,1,20,13,5,5,1,2
30.455,0,3,8,6,3,3,2,2
30.46,5,5,31,31,4,3,4,0
30.465,5,4,22,44,1,5,3,3
30.47,0,2,22,18,3,7,5,4
30.475,8,3,1,4,8,1,1,0
30.48,1,6,2,25,0,1,3,0
30.485,2,3,23,33,8,1,2,3
30.49,3,4,20,6,8,1,0,2
30.495,0,7,22,10,6,2,4,2
30.5,2,3,15,0,1,3,1,1
30.505,0,10,9,11,2,1,0,4
30.51,8,7,10,8,6,0,2,7
30.515,1,2,16,26,8,5,0,6
30.52,5,8,12,13,6,1,4,4
30.525,13,9,23,17,4,4,6,6
30.53,0,1,2,11,4,3,0,2
30.535,3,0,15,18,1,0,0,4
30.54,6,2,11,12,3,1,2,1
30.545,2,3,17,13,8,4,3,4
30.55,7,3,41,15,8,2,1,2
30.555,3,1,34,23,6,0,1,4
30.56,0,3,6,27,1,2,2,2
30.565,2,6,2,6,0,3,3,1
30.57,0,7,5,12,0,1,1,0
30.575,5,5,6,11,7,0,0,1
30.58,4,8,20,18,8,1,1,3
30.585,4,9,19,12,2,0,0,2
30.59,2,1,5,15,5,3,1,5
30.595,0,8,18,26,1,1,2,5
30.6,3,0,1,10,1,6,2,2
30.605,2,3,17,12,2,2,1,1
30.61,0,2,13,34,6,1,2,1
30.615,4,4,19,28,3,1,2,5
30.62,1,1,7,21,5,1,2,1
30.625,2,2,14,0,1,2,2,0
30.63,1,0,1,5,0,3,0,2
30.635,2,3,6,0,7,1,0,3
30.64,3,1,0,7,1,0,1,0
30.645,1,0,10,6,5,2,1,3
30.65,4,3,1,2,11,5,3,1
30.655,1,1,2,0,8,2,1,3
30.66,1,2,3,5,0,3,3,3
30.665,1,2,2,4,1,1,0,1
30.67,0,0,4,1,5,3,1,1
30.675,0,1,1,21,11,8,3,1
30.68,1,1,3,25,10,5,3,1
30.685,2,3,5,5,12,1,1,1
30.69,1,2,0,14,2,1,1,1
30.695,0,0,3,8,9,1,1,3
30.7,3,2,1,13,6,4,1,3
30.705,2,1,4,6,1,1,1,1
30.71,0,0,2,3,2,3,2,1
30.715,0,1,3,2,2,0,0,1
30.72,0,2,2,2,5,4,3,3
30.725,1,1,4,7,3,2,3,1
30.73,2,0,1,2,8,0,2,2
30.735,1,3,3,7,2,0,1,0
30.74,0,0,0,4,1,2,0,0
30.745,0,2,2,8,1,4,0,0
30.75,0,1,3,3,2,3,4,3
30.755,3,1,1,2,3,2,0,1
30.76,2,0,4,19,10,1,1,1
30.765,1,0,1,9,3,2,3,2
30.77,1,3,2,8,6,0,2,1
30.775,2,1,0,3,9,2,2,1
30.78,1,1,3,8,3,3,1,1
30.785,2,1,2,18,9,0,1,0
30.79,1,2,5,40,6,2,1,1
30.795,0,1,0,3,2,6,0,2
30.8,2,0,2,2,3,3,3,0
30.805,0,1,4,3,6,3,0,1
30.81,0,2,0,11,2,0,1,2
30.815,2,1,1,7,4,1,2,1
30.82,2,2,2,2,7,0,2,2
30.825,0,0,2,9,1,4,1,2
30.83,1,1,1,11,1,1,3,1
30.835,2,2,0,5,7,4,2,0
30.84,2,1,1,9,4,2,0,1
30.845,0,0,5,12,3,2,1,1
30.85,2,3,5,33,6,2,2,2
30.855,1,1,5,3,6,4,2,2
30.86,0,1,6,5,2,3,0,1
30.865,3,0,11,20,1,1,1,0
30.87,2,3,0,10,5,5,3,0
30.875,2,0,3,12,5,1,2,4
30.88,1,0,3,8,2,0,3,1
30.885,2,0,5,0,3,2,1,2
30.89,2,1,1,14,1,3,1,2
30.895,1,4,23,26,1,4,4,3
30.9,1,4,1,12,5,0,0,3
30.905,1,1,1,6,3,0,2,1
30.91,1,3,10,22,2,0,2,1
30.915,1,2,2,4,1,1,1,1
30.92,2,1,13,6,6,1,2,0
30.925,3,5,5,15,3,3,5,4
30.93,3,1,10,8,5,1,3,1
30.935,2,2,10,8,1,3,2,1
30.94,2,3,2,3,2,3,2,1
30.945,1,1,5,9,6,4,1,1
30.95,0,2,2,11,5,2,1,2
30.955,1,3,2,4,2,2,2,2
30.96,3,2,2,3,0,0,0,2
30.965,6,1,8,11,1,0,1,4
30.97,3,1,8,20,0,3,1,0
30.975,2,7,15,21,1,2,4,0
30.98,2,0,1,1,3,3,2,2
30.985,2,2,2,18,7,1,2,2
30.99,3,0,8,2,4,0,2,0
30.995,0,1,8,7,5,0,1,3
31,0,3,6,7,8,6,2,2
31.005,4,2,7,4,4,1,2,1
31.01,7,5,9,8,0,2,1,6
31.015,4,3,9,13,3,1,2,6
31.02,2,1,10,12,2,0,1,0
31.025,1,0,2,12,2,1,1,2
31.03,4,0,2,13,1,0,3,2
31.035,1,1,10,46,8,2,3,0
31.04,3,1,2,32,3,3,1,1
31.045,0,2,3,4,2,5,2,1
31.05,0,1,8,11,2,1,0,1
31.055,1,1,1,25,3,2,2,2
31.06,1,1,9,5,7,2,1,1
31.065,0,5,6,19,7,1,0,1
31.07,3,1,2,10,6,2,1,3
31.075,4,3,2,15,14,1,0,1
31.08,1,3,4,7,22,1,2,2
31.085,2,5,7,15,7,2,5,3
31.09,3,1,4,23,9,4,1,3
31.095,2,1,2,6,6,2,3,3
31.1,1,3,0,39,23,5,5,1
31.105,3,6,8,2,4,8,5,4
31.11,4,0,8,77,31,3,3,3
31.115,1,1,2,6,10,1,1,1
31.12,1,1,4,1,12,5,2,1
31.125,2,4,0,7,1,6,3,2
31.13,4,7,0,4,8,1,0,2
31.135,2,0,0,13,8,2,1,1
31.14,3,3,4,24,11,1,4,4
31.145,1,0,2,24,9,0,2,0
31.15,1,2,1,3,2,2,3,1
31.155,2,3,2,5,1,1,2,2
31.16,1,2,1,10,5,2,1,1
31.165,4,4,1,0,6,0,3,2
31.17,1,2,1,25,16,0,2,3
31.175,0,0,3,1,10,2,0,2
31.18,2,2,4,26,9,3,1,0
31.185,0,0,1,3,9,3,0,1
31.19,1,2,4,0,3,0,0,3
31.195,5,0,5,9,0,4,1,2
31.2,4,0,6,0,1,1,3,3
31.205,4,4,25,12,1,2,4,6
31.21,12,4,14,28,7,0,2,1
31.215,1,1,10,14,5,4,0,1
31.22,4,1,34,5,7,6,5,2
31.225,2,0,52,11,11,3,1,5
31.23,16,7,57,15,19,5,1,4
31.235,3,8,39,49,0,4,0,7
31.24,0,3,55,4,10,1,1,12
31.245,25,3,72,18,4,5,4,4
31.25,11,0,44,6,4,1,1,21
31.255,9,5,7,76,14,7,5,1
31.26,10,3,27,52,4,4,2,7
31.265,10,16,22,22,13,3,2,0
31.27,2,16,49,35,7,8,3,2
31.275,25,15,84,102,2,4,7,2
31.28,13,6,51,22,9,6,7,1
31.285,5,12,90,79,14,5,4,7
31.29,26,27,114,28,18,7,4,9
31.295,22,6,6,114,4,4,0,16
31.3,53,2,25,121,16,3,2,14
31.305,1,5,29,60,1,3,3,7
31.31,13,5,3,38,2,1,4,4
31.315,9,16,3,19,3,0,1,0
31.32,17,1,34,3,11,2,1,4
31.325,3,11,12,2,21,1,3,1
31.33,6,8,7,70,6,1,3,3
31.335,27,22,12,24,17,6,5,9
31.34,4,8,27,6,7,5,2,6
31.345,11,1,7,5,3,1,0,4
31.35,12,15,13,9,4,0,1,2
31.355,10,10,11,24,21,7,3,1
31.36,18,10,22,4,2,1,3,8
31.365,5,1,41,46,2,1,1,6
31.37,8,1,43,53,4,3,0,1
31.375,6,7,42,27,4,0,1,15
31.38,8,7,4,12,1,2,1,22
31.385,0,5,9,13,6,2,4,17
31.39,9,0,0,23,2,4,2,6
31.395,19,8,2,70,5,0,1,8
31.4,6,7,15,3,6,3,1,3
31.405,12,21,2,10,4,1,0,3
31.41,1,6,9,8,3,3,4,5
31.415,3,8,2,10,2,0,0,1
31.42,1,12,52,20,8,3,2,4
31.425,4,0,13,18,12,1,1,3
31.43,1,4,38,16,13,2,3,1
31.435,3,7,12,33,9,1,2,4
31.44,7,3,7,4,0,3,5,4
31.445,5,5,25,21,10,2,3,6
31.45,8,4,5,44,7,2,3,7
31.455,10,5,0,56,3,5,6,12
31.46,2,0,11,4,9,1,0,4
31.465,3,3,13,6,4,0,2,3
31.47,1,4,18,31,13,1,4,7
31.475,10,1,7,21,14,4,3,8
31.48,8,6,25,14,6,2,2,0
31.485,3,0,0,22,8,2,0,4
31.49,5,9,15,13,10,1,0,0
31.495,10,4,1,36,9,1,1,5
31.5,1,1,1,13,10,0,1,2
31.505,6,2,1,3,5,1,1,1
31.51,5,6,14,24,1,5,2,2
31.515,3,4,18,4,1,5,1,0
31.52,7,1,16,12,1,1,1,4
31.525,4,3,18,13,1,3,0,4
31.53,6,1,6,34,16,7,4,1
31.535,3,2,10,3,13,1,1,1
31.54,4,1,4,4,2,1,1,4
31.545,1,3,1,17,2,2,0,0
31.55,0,2,3,21,4,3,1,2
31.555,1,0,8,7,6,1,1,0
31.56,1,3,9,3,8,3,2,2
31.565,1,1,2,8,5,3,1,1
31.57,5,0,2,21,7,1,0,2
31.575,2,3,7,7,3,2,1,1
31.58,3,1,1,17,6,3,1,1
31.585,1,2,9,9,9,6,2,2
31.59,4,5,2,10,5,3,0,4
31.595,3,1,0,16,2,0,1,0
31.6,5,3,6,16,7,2,1,1
31.605,1,1,1,14,3,0,2,0
31.61,0,0,0,0,3,4,2,2
31.615,0,2,4,3,4,2,1,1
31.62,2,0,3,8,8,1,1,1
31.625,0,1,3,2,6,1,2,2
31.63,2,3,2,3,1,3,1,2
31.635,1,2,2,0,10,4,3,1
31.64,2,1,3,0,2,2,1,1
31.645,1,1,2,4,1,0,3,3
31.65,1,1,1,13,0,1,2,0
31.655,1,3,0,1,5,4,1,0
31.66,0,4,3,7,5,1,1,0
31.665,1,2,1,1,7,1,1,1
31.67,1,0,1,6,3,2,0,0
31.675,1,1,2,7,6,1,2,0
31.68,1,2,1,13,12,3,3,2
31.685,0,1,1,8,3,1,1,1
31.69,0,1,2,4,18,2,1,0
31.695,0,0,1,5,5,1,0,3
31.7,1,1,2,1,0,2,1,3
31.705,1,1,1,2,2,2,0,1
31.71,1,1,1,4,9,4,5,2
31.715,2,1,2,7,1,2,2,0
31.72,1,0,0,5,0,0,1,1
31.725,0,2,4,3,3,1,2,0
31.73,0,0,3,6,5,3,0,1
31.735,0,1,2,8,2,1,0,1
31.74,2,1,1,0,3,1,0,2
31.745,1,2,10,27,4,1,0,0
31.75,3,6,40,24,2,1,1,1
31.755,0,2,25,25,1,2,2,0
31.76,0,3,8,16,10,1,0,1
31.765,4,3,30,20,14,6,2,2
31.77,5,5,3,8,16,6,2,3
31.775,5,3,13,15,17,5,4,5
31.78,5,4,20,26,1,2,2,3
31.785,3,4,17,14,4,5,3,3
31.79,1,1,15,11,1,2,0,1
31.795,4,2,12,47,0,2,1,0
31.8,1,1,15,16,3,2,2,0
31.805,1,3,8,8,3,0,2,0
31.81,1,3,6,12,3,1,0,1
31.815,4,2,7,13,2,2,1,3
31.82,1,4,10,5,8,3,0,1
31.825,1,2,3,11,9,1,2,0
31.83,1,1,1,1,8,3,1,4
31.835,2,1,3,5,8,1,0,0
31.84,1,1,1,5,4,0,2,3
31.845,1,0,1,5,0,0,0,0
31.85,3,2,8,8,4,1,2,2
31.855,1,1,17,9,4,1,4,0
31.86,1,0,7,10,3,0,1,1
31.865,1,4,15,5,12,1,2,2
31.87,3,0,8,1,7,3,3,2
31.875,1,0,11,9,2,5,4,1
31.88,1,0,6,7,3,1,2,1
31.885,3,1,4,15,11,3,3,2
31.89,2,0,2,39,3,8,4,0
31.895,2,1,5,40,7,2,2,2
31.9,1,1,3,28,3,4,2,2
31.905,2,1,5,2,1,2,0,5
31.91,2,0,4,9,19,6,1,2
31.915,2,2,9,23,33,4,2,1
31.92,4,4,2,5,20,3,3,1
31.925,1,0,4,5,1,0,2,2
31.93,1,3,2,24,1,1,1,2
31.935,3,3,1,35,3,3,4,4
31.94,1,4,1,4,8,0,3,1
31.945,1,0,1,16,5,0,1,0
31.95,5,11,9,16,3,3,3,4
31.955,5,5,1,7,19,3,2,3
31.96,3,1,4,31,10,5,3,1
31.965,0,1,5,4,3,0,2,1
31.97,1,1,0,14,4,1,1,0
31.975,2,2,3,17,1,1,3,2
31.98,0,2,5,13,0,4,2,2
31.985,1,0,4,9,0,0,1,1
31.99,1,2,10,8,2,3,3,2
31.995,2,3,2,10,0,0,0,0
32,0,0,2,3,2,0,1,2
32.005,3,2,2,1,5,2,3,0
32.01,1,1,0,9,3,2,2,3
32.015,1,1,4,22,10,0,1,1
32.02,2,2,1,10,2,2,3,2
32.025,3,0,1,8,3,1,0,2
32.03,1,2,3,5,5,3,1,0
32.035,1,2,6,21,3,3,1,1
32.04,1,2,0,10,3,0,2,0
32.045,1,3,1,13,0,2,0,1
32.05,1,1,15,30,6,0,2,1
32.055,2,2,31,53,8,2,4,1
32.06,2,1,3,19,9,1,2,0
32.065,2,4,20,28,10,1,1,2
32.07,2,0,2,7,1,0,1,1
32.075,0,2,7,7,5,2,0,1
32.08,1,0,4,10,3,4,2,1
32.085,2,0,2,5,1,1,1,3
32.09,2,4,0,1,0,3,1,1
32.095,1,0,2,3,4,0,0,1
32.1,1,1,2,0,1,1,2,1
32.105,0,3,6,11,3,2,2,0
32.11,1,1,12,6,1,0,2,1
32.115,3,1,9,4,6,3,1,0
32.12,7,4,4,8,0,6,4,3
32.125,5,3,6,8,5,2,2,6
32.13,0,1,5,3,1,2,1,0
32.135,1,1,1,4,3,3,3,1
32.14,1,2,1,4,0,1,1,2
32.145,4,2,4,11,17,0,1,1
32.15,1,0,2,12,9,1,1,2
32.155,1,1,2,9,3,4,0,3
32.16,1,2,2,5,5,3,1,1
32.165,4,0,2,6,8,4,2,5
32.17,1,0,7,19,8,1,1,0
32.175,3,4,10,21,5,1,1,2
32.18,1,1,0,7,3,3,3,1
32.185,2,1,7,13,0,2,1,0
32.19,3,1,2,6,3,3,3,1
32.195,1,1,4,6,3,3,2,0
32.2,1,1,2,2,4,0,0,1
32.205,1,1,1,4,1,0,1,0
32.21,0,1,2,8,3,3,3,2
32.215,0,1,2,8,1,0,1,0
32.22,1,1,3,2,3,1,1,0
32.225,1,2,2,16,0,0,1,3
32.23,1,1,4,3,5,2,3,3
32.235,1,1,1,9,2,1,0,1
32.24,1,2,8,6,0,1,1,1
32.245,6,7,48,32,5,5,4,5
32.25,1,1,16,20,3,3,2,1
32.255,6,0,6,4,2,1,1,6
32.26,9,1,2,1,2,0,0,10
32.265,16,5,17,18,5,2,2,5
32.27,5,16,51,1,14,2,1,22
32.275,16,5,43,9,3,5,4,27
32.28,2,10,11,33,14,5,3,0
32.285,4,8,46,42,4,2,0,4
32.29,8,6,20,37,10,1,3,17
32.295,37,10,40,12,5,2,2,19
32.3,28,5,3,45,7,0,2,4
32.305,1,4,31,14,11,5,2,3
32.31,7,3,8,3,4,1,2,2
32.315,9,11,10,31,8,1,1,7
32.32,17,9,50,23,4,0,3,2
32.325,0,5,44,10,8,5,1,5
32.33,13,3,8,16,10,7,2,0
32.335,4,20,9,3,1,2,4,15
32.34,8,12,47,41,4,0,0,10
32.345,7,12,64,57,14,5,2,11
32.35,18,11,26,43,4,0,2,8
32.355,1,2,12,44,2,2,1,13
32.36,4,4,37,10,3,2,1,6
32.365,20,10,4,28,4,0,2,8
32.37,38,2,10,10,6,2,3,16
32.375,11,8,9,39,2,3,3,6
32.38,23,9,36,14,0,2,1,7
32.385,19,5,11,31,2,1,1,3
32.39,26,19,36,39,1,2,2,8
32.395,9,1,19,18,5,5,5,5
32.4,0,9,19,15,0,1,0,1
32.405,17,22,16,7,3,3,3,8
32.41,30,2,21,4,6,4,5,13
32.415,10,1,11,29,1,0,1,2
32.42,13,9,14,11,4,1,1,4
32.425,6,5,28,39,1,1,0,4
32.43,9,1,10,13,7,2,0,2
32.435,10,3,26,36,7,3,2,0
32.44,2,1,2,32,7,0,0,1
32.445,3,3,12,3,4,1,1,0
32.45,11,9,16,35,0,2,0,1
32.455,25,13,22,35,9,4,2,4
32.46,21,3,2,2,12,6,3,3
32.465,3,1,5,13,0,2,1,6
32.47,9,4,2,17,3,0,1,2
32.475,1,1,1,22,1,1,0,3
32.48,6,3,4,8,3,1,0,0
32.485,5,2,1,13,2,0,3,3
32.49,8,3,9,19,1,3,1,5
32.495,18,5,13,22,2,4,2,16
32.5,11,4,15,51,5,1,3,9
32.505,0,2,4,8,4,4,1,7
32.51,1,1,8,2,5,2,2,2
32.515,14,3,5,24,2,3,1,15
32.52,3,2,2,3,3,3,1,12
32.525,5,3,12,18,0,1,0,0
32.53,9,4,5,23,0,0,1,1
32.535,1,4,29,23,10,3,1,8
32.54,0,5,10,30,1,2,0,6
32.545,5,1,20,19,10,2,1,1
32.55,3,3,13,6,1,2,1,0
32.555,3,3,6,19,1,0,1,4
32.56,1,3,5,37,11,6,4,2
32.565,9,7,15,5,2,1,0,7
32.57,3,1,9,2,1,0,2,2
32.575,1,2,17,9,2,2,1,0
32.58,1,2,13,0,1,0,1,2
32.585,3,3,3,11,5,3,1,2
32.59,4,4,6,5,2,2,2,2
32.595,3,10,8,2,2,3,0,5
32.6,2,6,9,19,3,0,1,1
32.605,1,2,4,24,0,3,4,3
32.61,2,2,16,4,2,1,3,1
32.615,0,1,18,6,1,3,0,2
32.62,1,3,1,14,3,2,2,3
32.625,2,1,9,11,4,2,1,1
32.63,4,5,2,6,1,0,2,1
32.635,0,2,2,11,2,5,4,6
32.64,4,1,4,22,4,1,1,1
32.645,2,2,1,32,2,0,0,3
32.65,2,2,8,3,7,2,1,1
32.655,0,3,13,16,0,3,0,3
32.66,2,0,22,12,3,1,1,2
32.665,2,2,16,17,7,0,1,0
32.67,2,7,22,7,5,2,3,4
32.675,5,0,1,22,1,2,1,4
32.68,3,1,19,12,3,2,1,2
32.685,2,1,21,1,4,4,2,1
32.69,3,2,1,13,0,2,1,2
32.695,2,3,14,2,1,0,1,0
32.7,0,3,23,2,1,2,2,1
32.705,0,3,0,0,2,5,2,0
32.71,1,4,7,9,1,1,2,3
32.715,3,9,19,21,0,5,3,3
32.72,11,4,23,24,1,4,4,2
32.725,18,10,29,8,6,3,2,1
32.73,1,5,1,9,4,0,1,7
32.735,5,1,7,19,3,1,1,2
32.74,0,0,11,1,7,2,0,0
32.745,3,5,14,9,4,2,1,0
32.75,1,4,14,3,3,4,2,3
32.755,3,7,14,1,7,1,0,4
32.76,15,17,31,52,5,7,7,5
32.765,2,5,6,13,1,1,1,2
32.77,2,1,13,2,2,1,0,4
32.775,4,1,2,7,1,0,1,4
32.78,4,0,5,15,3,2,3,3
32.785,6,1,1,24,0,4,2,4
32.79,0,1,13,25,3,0,2,0
32.795,2,0,1,53,9,2,2,3
32.8,4,1,25,7,2,2,0,2
32.805,3,4,25,7,4,0,0,1
32.81,3,3,19,26,2,0,0,3
32.815,2,2,3,36,2,1,2,1
32.82,2,0,4,15,1,1,2,4
32.825,5,1,0,13,2,1,2,1
32.83,1,0,2,1,3,2,1,1
32.835,0,3,1,14,1,2,2,1
32.84,2,3,12,21,5,4,1,0
32.845,2,1,13,33,0,2,1,1
32.85,3,4,5,8,6,4,3,0
32.855,1,1,2,2,2,1,2,0
32.86,2,3,14,1,3,2,0,1
32.865,0,4,17,26,10,5,1,3
32.87,1,2,6,8,1,0,2,1
32.875,4,2,16,6,6,2,1,1
32.88,1,2,24,6,2,2,1,4
32.885,3,2,5,0,3,1,2,1
32.89,4,3,1,23,10,3,0,2
32.895,4,1,3,23,14,4,3,3
32.9,4,3,20,27,8,1,1,0
32.905,0,4,27,38,1,0,2,1
32.91,2,9,26,44,5,3,2,3
32.915,2,2,12,18,2,2,2,1
32.92,4,1,3,3,2,5,4,2
32.925,1,1,21,0,3,4,1,2
32.93,4,0,7,14,2,2,0,13
32.935,1,10,9,1,1,0,1,3
32.94,2,1,1,11,3,0,0,4
32.945,1,0,27,20,3,3,4,0
32.95,3,8,20,24,0,3,3,2
32.955,2,1,4,3,0,2,2,2
32.96,2,3,4,3,1,1,0,3
32.965,3,3,24,18,0,1,4,2
32.97,3,0,14,21,3,2,0,4
32.975,5,4,3,3,6,4,4,0
32.98,1,1,6,2,0,0,0,3
32.985,2,2,9,11,1,2,0,0
32.99,4,3,10,1,0,0,1,4
32.995,5,2,2,16,1,1,0,2
33,2,2,9,46,2,2,1,2
33.005,0,1,7,41,6,4,1,5
33.01,6,1,7,12,1,2,1,0
33.015,2,3,13,0,2,0,1,2
33.02,3,6,0,8,1,1,1,1
33.025,0,2,14,13,0,1,2,3
33.03,6,0,9,1,1,2,2,4
33.035,1,2,13,7,2,1,1,1
33.04,4,1,21,2,0,0,1,0
33.045,3,4,2,10,3,3,4,4
33.05,4,1,10,8,5,1,0,3
33.055,5,2,14,2,2,4,2,5
33.06,5,1,2,19,0,2,0,1
33.065,3,2,7,9,2,0,1,0
33.07,1,1,8,4,1,3,2,1
33.075,1,2,0,6,1,1,2,5
33.08,2,1,7,6,2,1,2,1
33.085,2,2,6,5,6,2,1,0
33.09,4,2,12,21,7,4,2,3
33.095,1,1,10,9,3,0,0,1
33.1,2,3,15,5,1,5,1,2
33.105,2,3,14,5,3,2,0,5
33.11,0,3,17,12,6,1,0,1
33.115,1,3,5,16,5,0,0,2
33.12,3,10,34,9,3,1,0,2
33.125,1,4,9,15,8,6,3,2
33.13,18,7,22,9,3,1,2,7
33.135,3,3,1,13,5,6,4,4
33.14,1,2,1,25,5,0,1,4
33.145,4,4,28,15,2,1,1,1
33.15,3,2,8,8,1,0,1,0
33.155,3,5,12,3,2,1,1,1
33.16,2,5,3,9,5,4,3,1
33.165,4,3,4,19,3,2,0,1
33.17,6,1,19,28,4,1,0,1
33.175,6,4,11,13,4,1,3,6
33.18,4,1,0,1,10,5,2,1
33.185,6,2,8,3,7,4,1,1
33.19,0,0,12,9,11,7,2,2
33.195,2,5,8,1,1,3,1,1
33.2,0,0,19,23,2,1,2,2
33.205,4,1,10,41,2,2,1,4
33.21,5,10,3,28,8,8,5,1
33.215,2,0,3,14,6,4,4,2
33.22,10,17,35,12,15,9,7,13
33.225,2,6,12,25,7,3,4,7
33.23,4,2,9,30,13,7,3,1
33.235,1,3,24,10,4,2,1,1
33.24,0,10,11,33,13,6,3,3
33.245,17,14,21,10,4,2,2,7
33.25,28,51,49,34,12,7,6,12
33.255,6,6,13,4,4,1,4,6
33.26,1,6,28,4,1,2,2,3
33.265,5,3,19,55,3,2,3,3
33.27,17,17,5,7,4,2,4,1
33.275,6,17,22,84,12,7,3,3
33.28,3,3,24,75,13,5,0,3
33.285,6,2,31,35,11,4,4,6
33.29,11,0,19,15,5,2,3,4
33.295,19,5,2,3,2,1,1,3
33.3,19,4,15,1,8,5,1,7
33.305,4,0,2,41,5,2,1,13
33.31,1,1,29,46,8,4,1,2
33.315,0,4,27,9,9,3,0,2
33.32,2,8,4,28,7,8,5,0
33.325,5,2,10,1,3,5,2,6
33.33,3,2,14,0,0,1,2,3
33.335,4,4,18,9,5,0,1,2
33.34,2,3,3,6,11,5,1,1
33.345,2,12,24,23,3,3,3,2
33.35,3,6,14,5,7,4,0,2
33.355,1,1,4,12,2,1,1,1
33.36,0,0,0,2,1,1,1,1
33.365,3,4,16,12,6,0,1,0
33.37,4,1,12,1,1,1,1,1
33.375,3,3,2,13,1,1,4,2
33.38,3,3,13,12,1,4,0,1
33.385,3,6,16,5,5,0,0,1
33.39,2,2,12,3,1,0,2,0
33.395,2,2,4,5,1,1,0,0
33.4,3,1,4,16,5,2,3,2
33.405,4,8,6,8,5,0,1,1
33.41,1,2,8,12,12,4,1,2
33.415,1,0,6,8,1,2,3,2
33.42,4,3,2,2,2,4,0,0
33.425,1,0,3,4,2,0,3,2
33.43,2,0,1,0,3,4,2,3
33.435,1,3,7,0,2,1,0,1
33.44,1,1,2,3,1,1,1,3
33.445,1,4,5,0,3,3,2,1
33.45,2,1,1,1,3,0,0,1
33.455,2,0,0,2,3,2,0,1
33.46,1,2,2,2,4,3,2,1
33.465,2,0,3,1,2,1,1,1
33.47,1,4,0,3,11,0,1,1
33.475,1,0,1,7,3,4,2,0
33.48,2,1,3,1,2,0,1,0
33.485,1,3,6,6,2,3,2,2
33.49,1,2,3,9,2,4,3,4
33.495,1,4,4,1,5,0,2,3
33.5,1,3,2,5,2,1,1,1
33.505,1,2,1,15,2,1,0,0
33.51,0,0,1,2,1,1,2,0
33.515,1,1,2,1,2,4,1,3
33.52,2,2,3,7,3,3,3,1
33.525,0,1,0,6,4,5,2,1
33.53,3,3,2,1,5,1,1,0
33.535,0,0,2,6,2,3,0,0
33.54,2,1,2,6,0,3,2,1
33.545,0,1,3,10,6,0,1,2
33.55,1,0,0,9,10,6,4,3
33.555,1,0,0,17,2,1,4,1
33.56,1,1,1,1,2,2,1,0
33.565,1,1,4,1,2,2,2,0
33.57,4,1,3,2,4,2,1,2
33.575,0,2,2,9,4,1,2,1
33.58,2,2,2,1,0,1,2,1
33.585,1,4,2,11,3,1,1,0
33.59,0,2,3,1,1,3,1,1
33.595,1,0,1,1,5,2,2,2
33.6,1,0,0,1,0,0,2,1
33.605,2,2,0,3,2,1,1,2
33.61,1,1,1,5,2,1,3,1
33.615,2,3,7,0,1,0,2,2
33.62,2,1,1,2,1,4,5,1
33.625,0,0,0,2,2,1,1,2
33.63,0,0,1,1,3,0,0,0
33.635,0,1,1,2,8,3,1,0
33.64,1,2,10,8,5,2,2,2
33.645,1,1,3,3,0,2,1,1
33.65,1,0,0,0,3,2,1,0
33.655,2,0,0,1,2,3,2,0
33.66,1,1,2,0,1,0,2,1
33.665,0,1,1,0,2,0,1,0
33.67,3,1,3,2,1,2,3,2
33.675,1,0,2,2,3,3,3,1
33.68,0,0,0,6,3,0,2,2
33.685,2,1,6,11,3,1,2,2
33.69,1,0,1,2,1,1,3,4
33.695,2,0,1,3,2,1,0,2
33.7,2,1,1,3,1,0,0,0
33.705,1,0,2,3,0,1,2,1
33.71,1,1,3,1,2,0,0,1
33.715,1,1,3,0,3,0,0,1
33.72,1,2,1,3,0,0,0,1
33.725,1,1,1,0,1,1,3,1
33.73,0,3,0,2,1,1,2,1
33.735,0,0,2,2,2,1,1,0
33.74,1,1,1,2,4,1,1,1
33.745,2,1,3,2,3,2,1,2
33.75,1,3,1,2,1,2,0,1
33.755,0,3,1,1,1,2,2,1
33.76,1,0,3,4,1,1,0,1
33.765,3,1,2,4,2,0,2,2
33.77,2,0,2,1,3,1,0,1
33.775,2,1,10,9,4,3,4,1
33.78,1,1,5,2,2,2,1,1
33.785,1,2,0,9,3,1,0,2
33.79,1,2,8,15,6,3,0,0
33.795,0,2,1,5,3,0,0,2
33.8,0,2,3,0,1,2,0,1
33.805,0,1,0,9,6,6,2,0
33.81,2,5,3,13,8,1,1,3
33.815,2,1,3,6,9,1,1,1
33.82,1,0,2,4,4,2,2,2
33.825,1,0,1,4,1,2,1,2
33.83,1,0,1,2,4,1,2,1
33.835,1,1,5,12,3,1,1,2
33.84,5,3,0,7,3,2,1,0
33.845,3,3,7,4,3,0,0,3
33.85,3,0,12,4,0,0,1,1
33.855,3,1,6,8,1,1,2,3
33.86,1,4,2,4,6,3,1,1
33.865,4,6,21,35,1,1,3,3
33.87,3,2,1,14,3,4,2,3
33.875,1,1,17,22,3,1,3,0
33.88,2,5,23,28,2,0,2,1
33.885,3,1,7,6,4,2,0,0
33.89,3,1,3,10,9,6,3,3
33.895,4,5,20,12,12,0,1,2
33.9,2,1,36,8,3,1,4,1
33.905,6,5,2,0,3,5,1,2
33.91,1,7,5,22,4,4,2,2
33.915,0,2,6,13,5,3,0,1
33.92,2,3,2,9,4,0,0,1
33.925,6,0,31,10,4,1,1,3
33.93,4,1,13,12,0,2,3,2
33.935,3,2,4,26,3,1,1,0
33.94,3,2,16,37,1,0,1,3
33.945,3,8,6,11,3,6,2,3
33.95,2,3,7,15,2,0,1,1
33.955,0,2,5,12,4,1,1,2
33.96,4,3,12,14,3,6,2,4
33.965,0,0,10,6,1,0,1,0
33.97,1,4,2,21,3,3,1,3
33.975,4,3,4,29,6,4,1,1
33.98,5,2,13,13,2,1,0,5
33.985,3,3,5,4,5,1,4,8
33.99,7,6,4,6,2,2,1,2
33.995,8,11,6,7,2,2,1,2
34,7,11,14,10,9,3,1,2
34.005,16,1,28,7,4,0,1,1
34.01,13,4,27,14,6,1,1,1
34.015,1,1,13,41,13,4,1,6
34.02,2,3,30,32,7,4,1,1
34.025,5,0,13,8,3,2,2,10
34.03,18,7,30,7,5,0,1,1
34.035,8,4,19,10,0,2,2,8
34.04,3,6,2,33,4,1,0,1
34.045,9,2,2,15,7,2,1,8
34.05,3,3,25,21,5,1,4,3
34.055,2,3,5,12,6,2,1,1
34.06,1,1,17,18,8,1,2,3
34.065,1,4,13,13,0,1,2,1
34.07,4,2,1,23,5,4,4,15
34.075,4,1,11,21,4,1,4,3
34.08,2,4,14,9,1,1,1,2
34.085,5,6,16,15,1,4,1,9
34.09,14,7,5,8,4,0,0,8
34.095,5,6,21,16,6,1,2,6
34.1,1,3,30,37,6,4,3,5
34.105,1,3,20,9,1,0,1,2
34.11,2,2,5,10,0,2,2,1
34.115,8,3,10,10,1,2,0,2
34.12,3,0,5,4,8,0,2,3
34.125,2,1,10,12,1,0,1,2
34.13,5,2,12,10,8,0,2,3
34.135,4,1,3,3,8,0,1,2
34.14,6,5,1,20,11,7,6,5
34.145,1,0,10,21,4,2,3,2
34.15,0,4,2,16,3,0,0,1
34.155,4,4,18,7,3,4,1,1
34.16,2,2,20,8,9,1,1,2
34.165,1,2,10,5,11,1,1,4
34.17,3,8,1,1,5,2,0,2
34.175,10,19,12,11,5,2,4,4
34.18,0,5,6,11,6,1,0,1
34.185,1,5,12,11,13,3,3,1
34.19,1,3,15,41,18,0,0,5
34.195,2,5,13,2,1,5,2,3
34.2,2,0,6,4,0,3,1,7
34.205,9,1,12,10,10,0,1,2
34.21,0,20,25,17,10,2,1,0
34.215,7,29,62,10,4,3,4,4
34.22,0,6,20,20,3,5,1,1
34.225,4,15,14,35,10,0,2,1
34.23,10,10,21,41,0,7,4,0
34.235,16,12,13,64,3,5,7,5
34.24,9,10,58,4,1,2,5,6
34.245,0,17,2,9,1,2,1,0
34.25,6,11,19,18,3,3,1,0
34.255,0,1,13,2,4,2,1,0
34.26,11,34,90,8,3,4,5,5
34.265,0,2,20,3,5,1,0,1
34.27,1,4,1,3,13,4,2,2
34.275,4,11,18,10,10,1,3,2
34.28,16,3,16,11,6,2,3,16
34.285,34,2,5,6,8,4,3,18
34.29,16,15,26,3,4,1,1,5
34.295,5,5,2,15,13,4,3,2
34.3,15,2,7,6,6,1,2,5
34.305,21,1,6,27,10,4,2,4
34.31,5,11,44,20,3,4,4,7
34.315,6,8,55,8,0,1,2,3
34.32,9,5,2,20,8,1,0,2
34.325,17,5,14,17,4,6,5,3
34.33,1,2,51,14,5,0,1,0
34.335,1,4,5,2,1,0,0,4
34.34,4,1,17,26,6,3,3,1
34.345,12,4,16,18,5,5,1,7
34.35,6,2,3,29,12,2,0,3
34.355,0,1,17,8,8,4,3,5
34.36,2,1,1,16,1,7,3,2
34.365,7,5,23,26,7,3,1,2
34.37,8,10,34,17,0,2,2,4
34.375,7,2,11,8,0,1,1,3
34.38,2,3,1,13,5,2,0,3
34.385,16,9,18,12,1,3,0,2
34.39,5,3,1,26,4,4,2,1
34.395,2,1,16,3,1,1,4,0
34.4,3,0,19,16,6,4,1,3
34.405,6,1,0,34,16,5,0,3
34.41,20,7,31,20,20,8,3,9
34.415,0,5,5,25,0,2,4,7
34.42,3,4,17,23,5,1,1,3
34.425,2,1,23,30,14,1,0,1
34.43,5,4,5,5,0,0,1,0
34.435,0,6,12,26,7,0,1,1
34.44,2,1,10,5,3,2,3,3
34.445,0,8,12,14,2,6,4,1
34.45,5,5,23,1,1,2,5,2
34.455,2,5,15,22,9,3,3,4
34.46,0,2,7,2,8,1,2,0
34.465,2,1,5,0,4,2,1,4
34.47,2,4,17,18,2,0,2,0
34.475,5,4,3,6,2,4,1,3
34.48,2,2,4,34,9,0,2,5
34.485,4,3,7,8,3,2,1,2
34.49,4,1,2,5,2,0,1,0
34.495,1,3,5,7,7,2,1,3
34.5,3,0,4,7,1,4,6,3
34.505,1,1,1,1,5,5,4,1
34.51,0,2,4,15,9,2,2,3
34.515,5,0,8,1,5,0,0,5
34.52,0,5,8,26,9,4,3,5
34.525,1,2,3,26,1,2,3,1
34.53,2,2,1,21,3,2,0,3
34.535,0,0,5,1,7,2,2,1
34.54,3,3,8,3,4,2,1,3
34.545,0,0,15,22,1,3,1,1
34.55,2,3,9,3,4,1,2,1
34.555,1,0,1,27,12,0,3,1
34.56,1,0,2,2,1,1,1,2
34.565,1,0,3,0,0,3,2,3
34.57,2,2,4,10,4,2,1,3
34.575,1,0,4,4,1,1,2,0
34.58,1,1,3,6,4,1,0,2
34.585,0,0,4,27,8,1,1,1
34.59,0,1,2,5,3,0,0,0
34.595,1,0,3,5,12,2,0,1
34.6,2,1,0,3,3,2,1,1
34.605,2,2,1,2,3,3,2,2
34.61,2,1,4,2,0,1,3,2
34.615,1,2,1,3,3,2,0,2
34.62,1,1,1,2,2,0,0,2
34.625,1,1,5,3,1,1,0,0
34.63,0,0,0,6,10,0,2,0
34.635,1,1,1,15,1,2,2,1
34.64,1,3,3,17,3,2,0,0
34.645,0,2,1,1,1,2,0,2
34.65,2,1,1,2,1,1,0,0
34.655,2,1,1,7,2,5,4,2
34.66,3,2,1,1,2,1,1,1
34.665,1,0,1,3,5,1,1,1
34.67,2,3,1,0,7,1,1,0
34.675,1,2,4,1,5,4,3,2
34.68,1,1,1,13,3,3,2,1
34.685,2,1,1,1,3,1,2,0
34.69,0,1,2,2,4,0,1,0
34.695,2,0,1,4,8,1,1,1
34.7,0,0,0,7,1,1,1,1
34.705,2,3,1,8,5,2,2,2
34.71,1,2,2,4,2,3,1,2
34.715,2,1,2,11,6,1,1,1
34.72,0,1,2,16,5,3,2,1
34.725,1,1,3,10,5,2,1,1
34.73,1,1,1,2,3,1,0,0
34.735,0,1,0,3,2,1,1,1
34.74,1,3,4,5,2,1,2,2
34.745,0,3,1,3,10,3,0,0
34.75,0,0,2,1,9,1,1,1
34.755,1,1,1,4,2,0,2,0
34.76,0,1,1,1,1,1,4,1
34.765,1,1,1,6,2,1,2,0
34.77,1,2,0,9,4,3,1,1
34.775,2,0,0,3,7,5,2,1
34.78,1,1,0,3,1,0,2,3
34.785,3,6,1,5,3,1,0,1
34.79,3,1,3,1,1,3,3,3
34.795,1,3,1,4,10,4,3,2
34.8,1,1,2,4,2,0,0,1
34.805,1,1,3,13,5,2,1,2
34.81,0,0,0,6,3,1,1,3
34.815,0,1,1,1,0,2,0,1
34.82,0,0,1,7,4,0,1,1
34.825,2,1,1,3,2,2,2,0
34.83,3,2,0,3,0,0,1,1
34.835,0,2,1,2,2,1,1,1
34.84,1,4,0,2,2,1,1,1
34.845,2,1,0,2,5,2,0,1
34.85,1,1,1,3,5,2,3,0
34.855,2,1,2,2,0,3,1,0
34.86,1,1,1,0,1,3,2,0
34.865,1,1,2,0,2,2,2,2
34.87,1,1,3,4,2,2,2,2
34.875,1,1,0,2,0,2,2,3
34.88,3,3,3,4,2,1,1,1
34.885,0,0,2,9,0,1,2,1
34.89,0,1,1,4,0,3,2,1
34.895,2,1,1,11,9,1,2,2
34.9,0,2,1,6,0,2,2,2
34.905,1,2,1,9,3,1,1,2
34.91,1,1,1,1,0,2,0,1
34.915,2,0,4,4,4,0,4,1
34.92,1,1,1,3,4,1,1,0
34.925,0,0,0,5,7,1,2,1
34.93,1,2,2,5,4,0,0,2
34.935,0,2,1,1,2,3,5,3
34.94,1,2,2,2,2,1,1,3
34.945,0,2,2,4,1,0,2,2
34.95,1,1,0,3,2,1,1,1
34.955,1,0,0,0,0,2,0,1
34.96,1,1,1,1,1,1,1,1
34.965,2,1,3,4,0,0,0,0
34.97,0,1,1,4,2,0,0,1
34.975,1,0,2,5,3,2,2,0
34.98,0,0,0,1,1,1,3,3
34.985,1,1,3,4,3,1,1,0
34.99,1,2,1,6,0,1,1,2
34.995,3,3,3,15,1,2,1,2
35,1,1,1,3,5,0,1,2
35.005,0,3,0,1,5,1,0,1
35.01,1,1,0,1,3,3,2,2
35.015,2,1,6,1,0,2,2,0
35.02,1,1,1,1,1,0,1,1
35.025,6,0,9,6,3,0,0,5
35.03,7,0,7,11,1,1,1,4
35.035,6,3,24,33,0,2,1,1
35.04,3,6,21,32,2,3,1,3
35.045,6,18,28,24,13,5,4,3
35.05,5,4,10,23,2,4,4,4
35.055,1,2,9,9,2,0,1,2
35.06,11,0,6,48,5,5,3,3
35.065,10,10,28,28,6,4,0,7
35.07,11,5,6,4,2,1,1,6
35.075,3,2,36,18,11,8,6,4
35.08,13,5,29,12,1,3,1,2
35.085,5,0,54,28,10,6,2,1
35.09,2,1,5,11,5,6,3,4
35.095,6,15,31,3,10,7,6,3
35.1,0,2,17,14,11,3,1,5
35.105,14,20,35,13,14,10,8,2
35.11,4,7,7,23,6,3,1,1
35.115,2,18,56,24,1,3,3,6
35.12,9,5,44,64,4,1,0,6
35.125,4,3,47,59,4,0,0,5
35.13,9,6,4,39,1,2,1,0
35.135,1,8,0,7,0,0,1,2
35.14,14,15,18,5,6,2,0,0
35.145,13,25,3,15,8,7,2,8
35.15,0,4,2,13,2,2,2,2
35.155,3,2,26,21,3,3,0,0
35.16,1,4,26,44,8,1,1,3
35.165,4,5,36,15,14,2,3,0
35.17,11,4,46,7,6,0,2,4
35.175,0,5,34,14,6,6,1,2
35.18,4,7,28,8,5,4,0,1
35.185,6,1,12,13,0,4,4,7
35.19,4,3,38,5,0,2,0,2
35.195,0,6,7,16,2,1,5,3
35.2,3,8,14,23,1,5,2,1
35.205,2,23,70,11,14,5,1,5
35.21,9,16,35,33,7,9,7,16
35.215,8,3,24,3,3,1,0,7
35.22,2,2,20,30,9,5,3,5
35.225,4,9,13,34,8,2,2,5
35.23,1,11,11,2,0,1,1,2
35.235,2,4,6,21,4,1,1,3
35.24,3,22,34,39,3,3,5,8
35.245,6,24,69,53,1,2,1,2
35.25,2,18,80,31,0,3,0,1
35.255,0,2,9,17,4,1,2,2
35.26,8,10,35,17,5,5,3,5
35.265,2,7,13,8,7,4,1,0
35.27,1,1,0,2,7,0,1,1
35.275,1,5,16,13,11,0,1,1
35.28,5,1,2,29,8,2,1,3
35.285,3,5,24,13,2,5,2,2
35.29,3,0,13,4,2,3,2,2
35.295,4,3,4,27,2,4,2,3
35.3,1,1,21,6,1,4,1,1
35.305,2,4,18,14,14,7,2,0
35.31,2,4,34,13,1,1,1,2
35.315,6,2,15,17,14,2,3,7
35.32,3,6,5,15,3,4,1,2
35.325,1,2,40,23,2,4,2,1
35.33,5,2,4,9,1,1,2,5
35.335,1,2,6,6,2,1,1,0
35.34,0,1,15,27,2,2,2,3
35.345,1,6,24,29,7,4,2,1
35.35,0,6,12,13,4,2,1,1
35.355,10,16,41,20,17,9,5,6
35.36,0,1,22,22,1,0,0,1
35.365,0,0,10,11,5,1,0,0
35.37,1,4,6,12,1,2,2,0
35.375,0,1,8,14,2,1,0,0
35.38,2,3,5,13,4,0,1,2
35.385,2,17,9,38,11,2,2,3
35.39,2,0,14,25,8,2,0,1
35.395,1,4,5,8,7,2,0,1
35.4,4,1,5,11,0,2,2,3
35.405,1,2,2,1,4,0,2,2
35.41,1,1,6,9,1,2,4,2
35.415,2,0,6,20,6,1,2,1
35.42,1,3,27,15,6,3,2,0
35.425,4,5,6,15,12,7,6,4
35.43,1,2,5,54,8,4,0,2
35.435,0,1,6,21,2,1,1,0
35.44,0,1,13,3,5,1,1,0
35.445,1,1,4,16,2,1,1,2
35.45,2,1,1,4,0,0,0,3
35.455,3,0,5,8,1,1,2,0
35.46,2,4,7,7,1,0,1,2
35.465,2,1,5,11,5,2,4,0
35.47,0,1,16,35,10,1,1,2
35.475,6,7,13,13,9,2,1,1
35.48,4,2,12,7,9,1,1,2
35.485,5,1,11,12,1,1,0,4
35.49,1,2,6,2,1,2,3,1
35.495,2,1,10,3,3,2,0,0
35.5,1,2,1,13,4,3,2,0
35.505,3,1,11,5,7,2,1,0
35.51,1,3,1,24,4,1,2,2
35.515,0,1,9,5,2,0,2,1
35.52,5,3,4,24,6,2,5,3
35.525,1,2,2,10,7,4,1,1
35.53,4,2,10,7,4,2,0,1
35.535,1,2,4,3,6,2,2,2
35.54,3,1,1,0,2,2,2,1
35.545,1,1,3,3,1,0,2,2
35.55,1,1,5,8,3,1,0,1
35.555,2,2,5,11,10,2,0,0
35.56,1,1,8,9,1,3,3,1
35.565,3,4,9,7,3,4,2,4
35.57,1,1,10,2,5,2,0,0
35.575,1,2,2,1,0,0,0,1
35.58,1,1,10,9,7,0,2,0
35.585,1,1,21,7,2,1,0,1
35.59,2,1,8,5,1,1,2,0
35.595,1,0,1,2,2,1,2,2
35.6,3,4,7,2,5,2,0,3
35.605,4,1,10,15,7,1,1,1
35.61,0,1,6,11,2,1,1,0
35.615,2,1,4,21,0,0,0,0
35.62,2,1,29,16,5,1,0,1
35.625,5,1,13,7,4,0,0,2
35.63,1,4,6,7,8,3,4,2
35.635,2,6,5,11,2,1,0,2
35.64,2,2,9,1,1,1,3,1
35.645,2,0,17,10,5,0,2,3
35.65,2,4,7,6,2,2,2,1
35.655,3,1,21,6,2,0,2,1
35.66,1,2,18,13,4,2,2,2
35.665,3,1,17,21,7,2,2,2
35.67,1,0,3,7,0,2,0,1
35.675,1,0,4,13,0,1,0,0
35.68,1,2,25,19,5,1,1,3
35.685,2,0,0,16,2,2,0,3
35.69,0,2,1,6,6,4,3,2
35.695,1,2,15,7,1,4,2,0
35.7,0,4,21,3,5,0,1,1
35.705,2,2,9,26,5,2,2,1
35.71,0,2,2,7,12,1,0,1
35.715,0,1,20,18,6,1,0,1
35.72,1,1,9,17,10,4,2,1
35.725,1,2,3,16,11,2,1,0
35.73,5,2,10,5,7,2,1,1
35.735,2,4,23,13,2,2,3,3
35.74,1,2,4,32,3,1,3,2
35.745,0,2,7,3,3,2,2,0
35.75,1,1,1,14,3,1,0,1
35.755,0,1,13,1,1,1,2,0
35.76,1,2,16,13,3,3,0,0
35.765,1,1,0,14,2,4,4,3
35.77,1,2,7,4,1,2,1,2
35.775,1,2,7,1,6,2,1,1
35.78,0,2,6,13,10,1,2,2
35.785,2,1,0,16,4,2,0,1
35.79,1,2,4,13,2,3,2,2
35.795,4,0,11,28,2,1,4,3
35.8,1,1,6,33,4,4,3,2
35.805,2,3,2,9,4,3,2,1
35.81,1,2,3,3,11,2,0,0
35.815,1,1,5,15,19,2,1,4
35.82,2,1,5,1,1,0,2,1
35.825,1,0,0,9,0,4,3,3
35.83,2,3,7,22,4,2,1,2
35.835,2,4,6,17,16,1,1,1
35.84,2,2,5,25,14,4,3,0
35.845,1,0,1,5,5,3,0,2
35.85,2,1,1,6,8,3,3,2
35.855,1,3,4,2,6,1,2,1
35.86,1,2,3,4,4,1,2,2
35.865,2,2,2,9,2,4,3,2
35.87,0,2,1,6,2,0,1,2
35.875,1,1,3,4,2,3,2,1
35.88,1,0,1,19,2,2,0,1
35.885,2,3,1,23,9,1,0,0
35.89,2,3,1,2,0,1,0,1
35.895,2,2,1,1,8,3,2,0
35.9,0,1,2,3,21,4,1,2
35.905,1,3,1,7,1,0,3,1
35.91,1,0,3,2,9,2,4,1
35.915,2,1,0,3,4,1,1,0
35.92,2,0,0,2,5,2,4,1
35.925,2,3,2,2,1,1,1,1
35.93,1,1,0,3,3,1,0,1
35.935,1,1,1,5,1,2,1,1
35.94,2,1,0,6,0,3,1,3
35.945,2,1,2,7,5,3,0,2
35.95,1,1,1,2,9,2,3,2
35.955,0,1,3,8,3,2,3,1
35.96,2,1,3,2,3,2,0,1
35.965,1,1,2,0,2,2,0,0
35.97,1,1,3,8,1,4,2,2
35.975,2,2,1,3,1,0,3,2
35.98,1,2,0,3,1,1,1,1
35.985,0,1,1,2,4,2,1,2
35.99,0,1,4,3,2,1,1,3
35.995,1,1,1,0,7,2,1,0
36,1,1,3,7,15,6,3,1
36.005,3,1,2,6,3,3,1,0
36.01,1,1,1,4,1,0,2,1
36.015,0,0,19,9,6,1,0,2
36.02,2,11,57,38,7,7,4,4
36.025,0,1,9,4,0,0,2,1
36.03,2,1,8,0,2,1,4,3
36.035,0,2,1,17,1,0,2,1
36.04,1,0,2,16,6,1,2,1
36.045,1,1,8,17,4,2,3,1
36.05,1,1,9,2,0,1,0,2
36.055,0,2,6,6,3,3,1,0
36.06,5,4,9,5,3,4,2,3
36.065,1,2,34,15,0,2,1,0
36.07,0,1,1,8,3,2,0,0
36.075,1,0,1,8,6,1,2,1
36.08,1,1,22,23,5,2,0,0
36.085,0,2,25,22,1,3,1,1
36.09,2,5,5,1,0,4,1,3
36.095,2,0,8,4,6,0,0,0
36.1,1,2,5,2,3,2,0,1
36.105,0,1,10,0,1,0,0,1
36.11,0,1,3,3,2,0,1,0
36.115,1,2,5,3,1,3,1,2
36.12,0,1,9,8,1,1,4,0
36.125,1,1,1,1,1,2,1,0
36.13,3,2,2,1,2,2,1,1
36.135,2,2,2,3,3,5,2,3
36.14,0,1,2,14,3,3,1,0
36.145,2,1,0,5,7,1,0,2
36.15,3,3,4,6,0,9,1,3
36.155,1,1,5,2,1,1,2,3
36.16,2,1,2,11,0,2,2,3
36.165,2,1,6,8,0,1,0,1
