42.505,2,6,5,8,4,1,2,3
42.51,2,3,6,8,4,2,2,0
42.515,0,2,16,4,0,1,1,1
42.52,1,1,9,3,2,2,4,3
42.525,0,0,11,9,1,4,2,1
42.53,0,1,6,3,6,1,1,1
42.535,1,1,1,18,7,7,3,2
42.54,1,1,16,17,7,2,1,1
42.545,0,2,14,3,8,2,2,0
42.55,1,4,8,11,9,1,1,2
42.555,2,2,2,4,3,2,3,2
42.56,1,0,4,13,4,2,2,1
42.565,1,1,0,5,4,3,2,2
42.57,1,1,2,3,3,0,1,0
42.575,2,1,1,1,3,5,3,2
42.58,3,2,4,11,7,3,2,1
42.585,3,4,0,2,2,0,0,3
42.59,0,0,1,10,7,1,2,2
42.595,2,3,3,16,8,2,1,1
42.6,1,1,1,7,2,2,0,1
42.605,1,1,10,9,2,2,3,0
42.61,2,1,0,7,8,3,3,2
42.615,0,2,3,8,11,3,2,2
42.62,1,0,0,7,17,5,2,0
42.625,3,5,6,3,0,0,1,0
42.63,1,3,2,4,2,1,1,1
42.635,2,4,1,3,0,1,0,1
42.64,2,3,3,2,4,4,3,3
42.645,0,2,19,10,3,4,2,0
42.65,2,3,20,11,4,2,4,2
42.655,1,1,1,1,2,3,1,1
42.66,0,1,10,3,4,2,3,2
42.665,1,1,13,0,4,4,2,4
42.67,1,3,6,6,1,2,3,2
42.675,2,0,3,7,5,0,1,5
42.68,1,1,6,4,2,1,1,1
42.685,0,2,12,6,2,1,1,1
42.69,0,5,23,14,4,4,1,1
42.695,1,2,20,15,2,0,1,1
42.7,3,5,8,6,7,2,6,1
42.705,2,0,2,3,9,0,1,2
42.71,2,1,3,2,7,1,0,4
42.715,2,2,7,2,1,0,0,1
42.72,0,0,7,3,0,1,2,1
42.725,3,3,12,1,4,1,3,0
42.73,0,4,1,6,0,1,3,1
42.735,1,2,7,7,1,3,1,1
42.74,1,1,9,16,3,2,0,1
42.745,1,4,30,12,2,1,1,0
42.75,2,3,8,2,1,1,1,2
42.755,3,4,9,2,3,3,5,2
42.76,1,0,14,1,3,3,0,2
42.765,1,2,2,7,6,2,1,2
42.77,1,1,3,4,2,0,1,0
42.775,1,3,4,3,1,2,5,3
42.78,0,2,2,2,6,1,3,2
42.785,1,3,7,11,10,1,1,2
42.79,2,4,6,8,2,1,1,1
42.795,2,0,13,4,2,0,1,1
42.8,2,3,2,4,5,2,1,1
42.805,1,2,11,6,8,1,0,1
42.81,1,1,10,1,1,2,2,0
42.815,3,2,5,5,1,0,1,2
42.82,2,2,8,1,0,2,1,0
42.825,1,0,7,0,1,1,2,1
42.83,0,1,1,7,2,0,3,0
42.835,0,2,2,3,5,1,4,0
42.84,1,1,12,1,4,0,2,2
42.845,0,1,14,1,1,1,0,2
42.85,0,2,9,0,5,3,3,2
42.855,1,2,1,7,3,1,2,1
42.86,1,1,9,3,2,3,3,2
42.865,3,3,3,1,6,2,2,3
42.87,1,3,14,9,4,1,1,0
42.875,1,1,12,2,3,1,0,2
42.88,1,1,14,5,4,0,1,2
42.885,3,5,31,2,5,1,0,3
42.89,1,0,3,4,1,1,1,2
42.895,1,0,7,6,1,1,1,0
42.9,2,2,1,9,10,3,1,2
42.905,0,0,1,5,0,0,0,1
42.91,3,3,4,10,3,1,2,1
42.915,0,2,15,3,0,1,3,1
42.92,0,1,5,1,1,1,0,0
42.925,0,1,3,3,0,2,1,0
42.93,2,3,2,2,0,0,0,0
42.935,2,1,2,3,0,0,1,3
42.94,0,0,3,1,2,1,4,0
42.945,1,4,26,1,3,0,1,3
42.95,3,4,49,21,7,3,0,1
42.955,0,1,13,28,17,3,3,1
42.96,2,3,5,0,4,2,1,2
42.965,0,2,1,6,5,1,0,0
42.97,0,2,22,3,1,2,4,0
42.975,1,1,10,10,7,1,1,2
42.98,2,3,6,3,2,1,2,1
42.985,1,0,3,4,1,0,1,3
42.99,2,3,2,3,1,2,2,4
42.995,3,1,2,5,6,3,2,4
43,0,2,11,5,1,1,2,6
43.005,2,3,14,7,3,2,2,1
43.01,1,3,7,6,3,1,1,0
43.015,2,2,1,5,2,1,0,2
43.02,0,1,2,4,3,0,0,3
43.025,3,6,13,4,1,4,2,1
43.03,0,1,11,7,0,0,1,0
43.035,0,1,18,6,1,2,3,2
43.04,3,8,7,3,0,1,3,3
43.045,5,2,2,3,0,0,1,1
43.05,0,1,10,4,1,2,1,2
43.055,3,5,7,4,1,2,1,0
43.06,1,3,3,2,0,1,1,1
43.065,1,0,4,1,1,1,3,0
43.07,2,6,1,1,4,4,3,2
43.075,0,2,13,5,6,0,0,0
43.08,2,3,9,6,5,0,1,2
43.085,1,1,5,3,0,0,1,1
43.09,0,1,1,5,2,1,1,1
43.095,1,1,0,9,5,3,2,2
43.1,8,9,2,5,6,3,1,3
43.105,1,6,3,2,8,1,1,2
43.11,2,7,2,3,0,1,1,2
43.115,2,1,1,1,4,4,5,4
43.12,1,3,2,5,1,1,1,1
43.125,1,2,0,0,3,0,1,2
43.13,1,6,5,3,4,0,0,1
43.135,6,0,0,5,3,2,3,1
43.14,4,4,2,5,1,1,2,3
43.145,5,1,1,4,5,0,1,1
43.15,8,4,1,3,1,2,0,2
43.155,4,3,1,9,4,3,2,2
43.16,4,1,2,4,9,1,2,3
43.165,1,4,0,10,17,2,0,2
43.17,2,1,0,2,3,3,2,2
43.175,2,1,2,7,7,3,1,0
43.18,1,5,3,11,4,1,1,2
43.185,1,5,1,4,8,1,2,1
43.19,4,0,1,3,5,1,1,1
43.195,2,0,5,0,1,3,2,1
43.2,3,6,4,6,8,2,2,2
43.205,2,1,4,3,4,1,1,1
43.21,3,2,2,3,2,1,1,0
43.215,1,3,0,6,7,0,0,0
43.22,2,0,5,4,2,2,0,0
43.225,1,1,3,5,4,2,2,2
43.23,3,3,1,1,1,0,0,2
43.235,2,5,5,3,3,2,1,3
43.24,1,3,3,1,2,1,0,3
43.245,2,1,1,6,0,1,2,1
43.25,3,3,1,1,2,2,1,2
43.255,1,5,10,9,5,0,2,0
43.26,1,3,38,8,1,4,1,1
43.265,1,3,13,3,4,1,3,2
43.27,2,5,11,3,2,2,2,4
43.275,4,5,8,6,1,1,0,0
43.28,1,2,8,9,2,1,0,4
43.285,1,1,15,12,4,3,1,3
43.29,2,2,6,7,2,2,0,0
43.295,1,1,0,8,4,1,1,2
43.3,3,0,2,2,2,0,1,3
43.305,1,3,20,1,1,1,1,0
43.31,2,2,20,5,1,1,1,3
43.315,1,3,6,3,2,2,1,0
43.32,1,0,5,4,3,3,3,1
43.325,1,1,3,10,7,0,1,0
43.33,2,4,8,9,0,2,2,1
43.335,1,2,2,10,5,3,3,3
43.34,2,0,16,5,2,3,1,1
43.345,0,6,20,4,3,3,0,2
43.35,0,3,15,27,0,0,0,1
43.355,4,6,2,18,7,3,4,3
43.36,1,1,4,6,1,0,1,0
43.365,0,2,15,0,9,4,3,1
43.37,1,2,13,1,15,1,2,0
43.375,2,4,6,1,2,0,0,0
43.38,1,2,11,0,5,3,4,3
43.385,2,0,9,4,1,1,1,1
43.39,1,2,13,5,5,4,1,2
43.395,1,1,8,1,2,1,1,0
43.4,6,5,30,13,2,1,1,1
43.405,3,8,13,6,2,2,1,2
43.41,1,1,9,10,2,4,2,2
43.415,0,1,12,13,1,1,1,2
43.42,1,3,20,7,0,2,1,1
43.425,2,2,24,3,3,4,1,3
43.43,1,0,6,7,2,1,1,0
43.435,1,3,5,5,3,2,0,0
43.44,2,2,5,3,2,1,2,3
43.445,1,2,23,6,4,1,3,0
43.45,4,10,6,1,6,2,3,4
43.455,1,0,8,7,1,1,1,0
43.46,0,1,2,3,2,1,1,1
43.465,5,1,13,1,0,0,1,1
43.47,0,1,5,2,6,1,4,1
43.475,3,6,18,7,4,1,2,1
43.48,1,4,3,3,0,4,1,2
43.485,4,5,5,7,2,2,1,0
43.49,8,5,8,5,5,1,1,2
43.495,1,4,0,0,1,1,2,2
43.5,2,11,2,9,8,2,3,1
43.505,1,5,9,1,2,0,0,3
43.51,2,8,4,3,1,2,2,1
43.515,4,13,7,5,2,0,2,2
43.52,4,4,14,17,1,5,3,3
43.525,20,3,2,5,2,2,9,21
43.53,11,12,25,12,2,0,3,15
43.535,3,3,7,9,2,2,2,1
43.54,4,4,4,2,9,0,1,5
43.545,1,5,1,8,4,2,1,0
43.55,7,2,5,1,13,2,4,7
43.555,3,1,2,15,4,2,3,9
43.56,4,6,5,13,12,3,3,9
43.565,2,1,18,15,13,4,0,4
43.57,1,6,10,10,4,2,2,5
43.575,4,13,6,13,21,3,2,9
43.58,7,1,2,6,7,2,2,1
43.585,6,3,4,8,6,2,1,3
43.59,5,12,1,5,12,2,3,2
43.595,2,13,9,5,7,3,2,4
43.6,3,12,12,4,1,0,2,6
43.605,4,4,7,9,3,1,7,8
43.61,2,3,7,2,5,2,8,5
43.615,0,2,4,12,3,1,7,20
43.62,2,0,3,0,3,1,2,1
43.625,2,0,1,6,10,4,3,1
43.63,1,6,14,4,7,1,2,18
43.635,3,8,16,40,6,1,3,5
43.64,1,3,8,18,6,4,2,11
43.645,3,3,2,10,19,2,4,6
43.65,2,12,6,43,29,7,10,1
43.655,10,15,1,51,51,5,1,1
43.66,0,0,5,13,8,1,2,7
43.665,6,2,12,48,18,5,10,0
43.67,4,17,3,69,2,3,6,6
43.675,7,19,4,23,0,1,3,14
43.68,2,10,4,60,21,11,8,18
43.685,3,22,2,19,9,2,0,2
43.69,0,0,14,43,10,1,8,11
43.695,5,4,4,15,15,2,3,0
43.7,1,1,5,24,3,3,1,1
43.705,8,14,3,11,9,7,7,1
43.71,9,6,7,31,6,2,2,2
43.715,5,11,7,8,15,4,2,9
43.72,2,24,6,1,3,7,6,0
43.725,9,25,3,40,8,2,9,18
43.73,19,5,8,118,40,5,2,7
43.735,22,16,5,56,1,2,4,10
43.74,11,0,0,20,4,0,4,9
43.745,11,3,4,10,2,2,2,5
43.75,3,22,3,62,20,2,2,3
43.755,2,23,19,2,1,5,2,5
43.76,12,17,30,9,2,1,0,2
43.765,3,12,9,11,3,1,1,3
43.77,2,13,1,15,1,2,1,4
43.775,1,6,0,9,6,2,3,3
43.78,11,1,6,30,16,1,3,1
43.785,8,5,4,34,0,3,1,1
43.79,13,2,9,25,6,2,2,4
43.795,5,5,1,16,7,1,2,3
43.8,3,12,6,7,0,1,1,0
43.805,2,8,4,20,4,2,6,4
43.81,9,3,9,1,8,3,1,3
43.815,1,8,14,1,7,1,2,1
43.82,1,6,5,5,6,1,0,0
43.825,3,7,5,12,1,2,5,1
43.83,2,3,4,17,2,1,0,2
43.835,5,3,0,1,7,1,1,0
43.84,6,8,2,9,9,2,1,1
43.845,0,4,4,8,6,4,3,3
43.85,7,2,2,1,9,3,1,1
43.855,4,14,4,42,10,4,5,1
43.86,5,18,1,38,3,3,2,2
43.865,40,31,11,10,10,3,5,5
43.87,35,9,6,7,14,1,0,1
43.875,63,13,4,8,5,1,1,2
43.88,112,15,15,4,11,4,1,1
43.885,90,0,6,12,2,1,1,2
43.89,27,7,2,7,12,5,3,5
43.895,60,1,3,17,1,3,0,3
43.9,63,7,18,20,8,3,2,0
43.905,74,11,5,63,2,3,1,19
43.91,59,5,11,29,16,1,4,1
43.915,43,4,18,15,15,1,3,15
43.92,54,14,17,22,7,1,2,9
43.925,2,37,11,38,55,8,4,16
43.93,3,5,1,22,17,1,4,9
43.935,5,18,11,19,21,1,1,6
43.94,13,15,16,20,1,3,9,8
43.945,20,26,29,9,31,7,2,8
43.95,5,9,32,45,31,11,6,1
43.955,13,22,4,38,3,2,2,7
43.96,6,1,1,21,6,1,4,1
43.965,4,5,4,16,3,1,0,7
43.97,21,17,7,4,2,0,2,4
43.975,11,2,7,21,16,3,0,0
43.98,6,9,11,11,26,5,1,4
43.985,4,2,28,6,23,6,6,1
43.99,8,7,12,17,11,2,0,3
43.995,6,1,7,3,7,2,1,1
44,2,5,3,7,5,1,0,1
44.005,2,5,9,3,6,2,5,4
44.01,6,7,3,6,11,3,1,1
44.015,2,5,6,4,6,0,1,1
44.02,7,2,3,9,1,4,2,2
44.025,1,6,2,3,2,3,2,0
44.03,2,9,3,7,3,2,1,2
44.035,8,19,7,5,0,2,0,4
44.04,11,10,12,12,2,2,3,2
44.045,5,20,8,18,6,3,1,1
44.05,10,16,10,7,7,8,6,5
44.055,1,4,10,20,1,2,0,2
44.06,5,3,0,5,1,0,1,3
44.065,1,3,10,4,13,5,3,4
44.07,5,4,9,9,9,5,4,3
44.075,1,3,0,12,2,2,2,2
44.08,8,5,2,24,2,2,0,2
44.085,3,18,1,17,3,3,4,3
44.09,4,3,12,10,6,4,2,0
44.095,3,0,17,3,10,7,3,1
44.1,1,11,12,7,9,2,5,1
44.105,2,14,11,3,0,3,1,2
44.11,2,5,9,11,3,1,2,3
44.115,3,2,5,1,7,3,2,2
44.12,1,7,17,6,4,1,0,0
44.125,0,4,13,10,1,2,1,3
44.13,2,5,10,3,4,1,1,2
44.135,3,9,6,15,2,4,4,1
44.14,1,4,5,5,3,0,0,0
44.145,1,2,12,1,4,2,0,0
44.15,10,11,1,1,1,5,3,4
44.155,4,0,1,3,9,0,2,2
44.16,2,6,7,7,1,2,2,2
44.165,1,3,4,6,7,2,2,1
44.17,2,23,13,2,3,2,1,2
44.175,0,5,8,17,9,1,2,0
44.18,8,5,9,22,2,0,1,3
44.185,4,6,3,25,9,3,7,5
44.19,5,16,31,17,6,4,1,4
44.195,5,6,11,12,19,2,1,1
44.2,1,12,8,36,9,2,1,4
44.205,5,3,16,99,7,1,6,17
44.21,2,18,26,12,13,6,2,6
44.215,6,20,4,35,17,9,8,6
44.22,11,6,9,18,13,9,4,4
44.225,3,11,6,55,22,6,4,5
44.23,4,10,2,7,21,6,5,1
44.235,0,3,27,50,14,10,4,17
44.24,4,7,10,4,6,2,4,6
44.245,8,2,24,74,15,5,13,40
44.25,1,15,23,64,3,2,6,0
44.255,10,12,23,67,5,6,1,15
44.26,4,1,4,10,3,3,2,25
44.265,4,4,4,7,21,10,9,16
44.27,4,20,7,46,7,1,1,10
44.275,17,17,11,55,7,1,2,11
44.28,8,10,44,40,12,0,1,6
44.285,7,4,20,70,12,5,5,13
44.29,9,2,32,37,6,2,4,6
44.295,19,31,2,63,4,5,6,17
44.3,12,4,6,18,14,3,4,1
44.305,9,18,10,17,8,2,4,15
44.31,11,2,77,34,6,4,4,1
44.315,9,5,75,92,15,2,7,4
44.32,20,41,44,8,11,1,6,38
44.325,1,65,5,98,54,15,4,24
44.33,8,21,37,21,39,14,1,0
44.335,1,23,7,42,13,9,3,15
44.34,9,7,22,6,7,1,9,2
44.345,9,10,21,31,14,1,6,14
44.35,1,13,29,84,2,5,21,24
44.355,9,7,4,15,9,7,6,16
44.36,0,6,18,21,5,0,6,15
44.365,5,29,5,24,2,1,2,10
44.37,7,8,2,3,6,5,8,18
44.375,6,7,3,35,1,1,5,13
44.38,8,11,0,16,6,2,1,1
44.385,1,4,2,6,1,4,3,5
44.39,2,7,8,8,9,4,0,0
44.395,2,10,8,17,8,2,1,2
44.4,1,1,6,8,21,5,1,2
44.405,1,4,7,7,3,0,0,1
44.41,1,1,9,18,6,2,2,4
44.415,0,2,18,19,0,1,1,0
44.42,0,1,4,7,25,5,2,1
44.425,0,3,0,26,30,6,2,1
44.43,2,3,0,0,2,2,1,2
44.435,3,4,6,7,3,2,3,2
44.44,2,2,2,4,4,2,3,0
44.445,1,0,11,9,3,1,0,1
44.45,1,1,4,9,1,2,1,1
44.455,1,1,1,16,8,1,0,0
44.46,2,2,1,17,11,3,0,1
44.465,4,2,0,13,10,4,3,2
44.47,2,2,7,12,7,2,0,2
44.475,0,1,1,8,8,5,3,2
44.48,3,2,2,4,0,2,2,2
44.485,2,4,3,14,8,1,1,2
44.49,4,1,4,4,13,3,5,0
44.495,0,3,4,8,2,3,0,1
44.5,1,0,1,6,5,2,1,0
44.505,2,2,2,14,10,6,2,2
44.51,3,0,2,11,2,2,1,0
44.515,2,7,12,26,6,1,1,0
44.52,3,4,11,13,1,2,2,2
44.525,2,5,18,0,4,3,1,0
44.53,3,8,4,22,2,4,2,4
44.535,3,1,1,2,8,3,0,1
44.54,0,4,1,17,2,1,2,0
44.545,1,1,4,19,8,2,1,0
44.55,1,2,3,27,1,0,2,0
44.555,3,0,2,14,5,3,6,5
44.56,0,0,8,14,1,0,3,0
44.565,4,1,1,5,1,2,1,1
44.57,2,1,8,14,6,4,3,0
44.575,3,9,1,12,1,0,1,1
44.58,2,3,5,17,3,4,2,3
44.585,4,8,3,7,7,3,2,1
44.59,2,2,5,18,9,0,0,0
44.595,3,0,2,14,5,3,1,0
44.6,3,26,14,23,1,2,1,1
44.605,1,2,1,13,14,7,4,2
44.61,6,11,9,18,0,2,3,2
44.615,1,3,5,2,4,4,1,1
44.62,2,4,4,9,9,3,1,2
44.625,5,5,3,40,20,8,4,5
44.63,3,6,2,41,15,0,0,1
44.635,5,12,17,5,19,1,3,1
44.64,1,13,37,11,3,2,0,2
44.645,2,1,14,20,11,0,1,5
44.65,1,4,17,16,1,1,0,5
44.655,3,11,20,1,4,1,2,0
44.66,0,4,16,15,6,3,2,3
44.665,1,15,41,1,6,1,0,3
44.67,1,5,9,8,3,1,1,1
44.675,2,14,1,3,14,2,1,1
44.68,4,0,19,0,9,4,2,0
44.685,2,4,42,8,3,0,0,3
44.69,3,15,19,8,2,2,1,4
44.695,0,16,16,5,6,1,1,1
44.7,2,6,4,1,5,0,1,2
44.705,4,10,12,5,9,2,1,2
44.71,9,1,2,4,2,1,1,1
44.715,20,2,9,1,1,0,0,6
44.72,19,2,9,16,0,2,1,3
44.725,8,10,92,32,6,7,4,0
44.73,1,3,20,2,1,0,1,1
44.735,5,4,54,16,2,0,0,2
44.74,2,1,46,24,7,2,3,7
44.745,1,1,41,5,1,4,5,5
44.75,3,6,3,3,1,0,0,2
44.755,0,8,36,27,8,3,0,0
44.76,6,3,32,1,1,1,2,7
44.765,1,3,3,7,1,1,3,3
44.77,1,8,4,3,1,1,1,3
44.775,9,4,17,7,1,1,0,4
44.78,23,4,19,4,1,4,2,9
44.785,9,8,25,16,2,0,1,7
44.79,3,5,1,11,4,2,3,7
44.795,14,7,33,1,5,1,0,0
44.8,20,18,58,7,9,0,1,5
44.805,3,0,22,5,7,0,2,3
44.81,12,16,5,12,7,0,3,0
44.815,5,6,13,4,2,5,4,0
44.82,6,5,23,35,0,2,2,3
44.825,2,4,24,17,2,3,1,6
44.83,2,8,12,2,5,1,2,4
44.835,4,5,45,2,1,1,6,3
44.84,3,26,52,26,8,10,10,3
44.845,1,0,55,20,3,2,3,4
44.85,6,6,4,32,8,6,4,6
44.855,10,13,20,23,11,5,4,16
44.86,7,18,41,14,6,1,4,7
44.865,16,3,12,8,4,1,9,6
44.87,34,5,7,10,3,6,8,6
44.875,1,20,33,30,5,3,3,5
44.88,12,1,31,1,5,3,3,12
44.885,6,8,42,11,10,4,4,3
44.89,9,5,4,7,2,1,3,5
44.895,6,2,51,7,3,3,15,8
44.9,20,9,13,9,0,1,9,0
44.905,4,5,24,14,4,1,2,5
44.91,4,14,32,10,2,5,8,5
44.915,1,1,9,1,11,3,9,7
44.92,8,3,29,12,4,4,7,1
44.925,4,6,2,8,1,2,4,6
44.93,2,11,28,50,22,5,4,2
44.935,3,2,15,54,24,2,2,4
44.94,2,11,51,16,1,2,2,1
44.945,1,11,28,14,2,6,5,0
44.95,1,11,10,1,6,1,2,2
44.955,9,3,52,21,10,4,1,4
44.96,6,4,8,52,4,2,5,5
44.965,1,2,0,40,2,0,2,4
44.97,6,2,17,35,3,5,10,6
44.975,10,2,28,29,4,2,0,4
44.98,6,1,77,21,5,1,2,6
44.985,2,1,5,48,7,3,4,7
44.99,2,5,4,51,13,4,4,5
44.995,6,15,4,6,15,1,4,1
45,7,5,7,40,2,1,6,3
45.005,2,6,6,24,4,0,1,2
45.01,18,6,18,13,5,5,4,8
45.015,2,6,10,21,16,7,0,3
45.02,6,2,10,59,20,7,3,3
45.025,13,14,10,13,6,0,1,5
45.03,8,10,0,38,12,8,8,5
45.035,12,22,16,42,5,1,3,4
45.04,8,2,20,55,3,4,2,1
45.045,6,1,23,2,1,4,5,3
45.05,14,8,81,9,4,0,0,2
45.055,16,7,16,22,4,2,0,5
45.06,1,3,46,3,2,2,0,3
45.065,5,15,10,7,12,5,0,1
45.07,11,1,14,8,5,3,0,1
45.075,14,14,8,27,0,1,1,1
45.08,3,3,28,24,4,3,2,2
45.085,20,2,17,66,1,4,5,6
45.09,18,9,43,31,2,5,3,4
45.095,2,6,26,7,3,7,4,2
45.1,8,6,9,31,0,4,1,4
45.105,4,18,10,19,12,3,1,1
45.11,11,22,9,47,15,4,5,5
45.115,12,8,36,38,7,2,2,8
45.12,11,11,45,46,8,1,2,2
45.125,4,9,8,1,6,2,7,3
45.13,1,1,37,46,11,5,3,2
45.135,5,5,49,26,6,7,6,8
45.14,3,19,93,27,12,0,6,1
45.145,2,11,19,12,3,2,0,1
45.15,6,8,23,2,2,2,5,6
45.155,11,7,4,8,5,1,1,5
45.16,16,6,5,10,2,3,2,5
45.165,5,3,3,7,6,3,4,1
45.17,1,10,10,7,4,1,0,13
45.175,2,12,11,5,2,5,22,26
45.18,4,2,64,19,0,1,5,2
45.185,7,10,9,10,1,0,4,1
45.19,13,1,1,2,2,2,2,2
45.195,5,5,15,4,2,2,7,6
45.2,8,10,44,1,3,2,6,2
45.205,4,1,8,9,2,2,0,3
45.21,5,1,27,1,0,1,19,3
45.215,2,6,19,10,4,1,15,8
45.22,0,0,15,11,0,1,2,8
45.225,7,7,8,8,7,3,4,3
45.23,2,6,33,3,1,1,1,1
45.235,1,31,11,7,4,4,6,0
45.24,10,12,72,43,1,2,3,4
45.245,6,12,13,46,8,1,7,3
45.25,4,18,4,80,10,3,9,6
45.255,13,1,12,11,3,4,21,6
45.26,5,13,8,5,9,6,6,5
45.265,3,13,21,14,0,5,0,3
45.27,2,22,25,29,8,1,0,3
45.275,12,18,73,2,15,1,9,0
45.28,24,2,30,0,12,2,6,2
45.285,9,5,10,5,16,2,24,1
45.29,24,33,4,40,23,4,3,2
45.295,5,17,40,47,2,2,8,22
45.3,24,4,20,30,5,3,0,26
45.305,31,2,4,18,4,8,3,7
45.31,14,5,34,61,16,2,30,5
45.315,28,30,29,13,6,8,7,9
45.32,17,14,44,8,0,0,2,9
45.325,16,29,2,14,1,10,11,0
45.33,8,4,29,24,10,3,15,7
45.335,2,16,31,14,0,4,6,2
45.34,7,3,2,9,12,20,22,4
45.345,44,13,45,2,4,11,36,8
45.35,13,2,6,6,8,23,4,3
45.355,17,2,31,1,4,11,29,8
45.36,5,0,23,3,11,2,3,9
45.365,9,10,5,17,2,6,9,3
45.37,6,1,17,27,20,15,36,2
45.375,9,2,15,6,13,0,43,20
45.38,15,17,24,22,9,2,27,18
45.385,19,31,58,38,4,9,17,7
45.39,17,6,2,15,0,4,8,8
45.395,31,25,14,12,7,3,10,9
45.4,6,18,3,0,9,1,22,27
45.405,2,13,13,8,7,1,68,9
45.41,8,7,22,6,3,10,89,11
45.415,16,4,1,5,2,1,1,8
45.42,7,14,46,14,5,0,43,3
45.425,17,22,6,1,0,2,58,12
45.43,5,11,3,0,2,0,31,42
45.435,1,4,8,4,2,9,1,9
45.44,19,9,11,13,1,9,35,10
45.445,15,4,13,22,9,4,10,9
45.45,13,4,5,10,3,8,2,19
45.455,10,3,7,3,4,2,21,28
45.46,4,10,12,8,4,1,2,6
45.465,3,4,35,24,0,4,21,8
45.47,12,7,4,16,2,4,26,5
45.475,8,12,16,8,6,7,15,14
45.48,15,5,17,51,3,5,46,33
45.485,10,5,25,28,3,15,11,8
45.49,18,3,2,12,4,23,27,27
45.495,5,4,3,3,3,13,34,4
45.5,6,12,11,12,2,2,31,26
45.505,12,6,4,6,1,5,27,11
45.51,13,4,21,12,5,4,26,8
45.515,0,1,13,10,4,1,12,5
45.52,6,3,27,8,0,6,28,20
45.525,8,3,14,10,6,3,24,6
45.53,10,5,4,24,6,10,13,0
45.535,11,4,15,4,6,5,9,1
45.54,3,0,26,31,3,4,5,5
45.545,10,7,19,13,0,3,7,1
45.55,2,1,27,11,4,3,21,1
45.555,3,9,8,12,5,10,49,14
45.56,13,2,9,6,5,23,103,20
45.565,3,0,10,1,1,16,46,5
45.57,6,4,5,4,2,10,36,5
45.575,4,8,21,4,9,2,13,1
45.58,5,0,6,38,7,5,48,3
45.585,16,2,7,15,11,2,2,2
45.59,9,2,3,1,15,4,28,4
45.595,2,8,19,1,8,2,4,5
45.6,6,10,27,2,2,4,0,3
45.605,11,12,20,12,4,1,22,4
45.61,2,6,28,6,6,4,3,1
45.615,11,6,12,9,9,2,2,29
45.62,7,4,9,28,2,2,18,45
45.625,4,4,2,6,0,5,39,8
45.63,5,13,21,3,1,0,17,3
45.635,6,0,11,3,5,8,52,8
45.64,6,14,18,4,4,32,77,16
45.645,8,5,2,4,2,8,13,2
45.65,1,0,15,3,8,5,4,1
45.655,5,10,7,10,5,0,1,5
45.66,3,1,13,6,4,5,8,7
45.665,4,1,25,18,3,4,15,7
45.67,5,4,10,16,14,0,0,0
45.675,5,15,6,29,16,6,23,4
45.68,6,4,27,83,1,10,20,1
45.685,3,0,25,11,7,1,6,2
45.69,8,3,20,1,6,16,31,16
45.695,2,4,7,21,3,6,21,2
45.7,7,5,20,48,6,28,91,25
45.705,2,2,32,17,7,1,39,5
45.71,11,14,23,7,4,5,13,6
45.715,1,1,14,4,0,1,9,2
45.72,2,2,2,8,11,13,16,2
45.725,4,4,4,1,4,0,8,0
45.73,4,6,10,4,0,5,2,2
45.735,2,4,9,10,0,2,0,5
45.74,4,7,2,2,2,11,24,4
45.745,2,4,10,6,9,6,10,3
45.75,1,7,4,1,2,5,8,0
45.755,7,20,2,4,7,1,7,4
45.76,4,12,2,16,1,7,8,0
45.765,1,8,7,10,1,3,5,1
45.77,4,3,0,10,0,4,8,1
45.775,2,4,10,19,9,1,9,3
45.78,1,7,0,19,20,1,10,1
45.785,0,4,6,9,1,1,1,0
45.79,0,3,3,9,3,1,2,1
45.795,2,7,5,6,2,0,3,3
45.8,3,11,4,13,12,9,14,3
45.805,3,1,9,3,2,5,2,1
45.81,3,5,0,3,2,2,1,3
45.815,1,2,5,4,1,0,2,1
45.82,0,0,5,6,0,3,4,2
45.825,0,7,1,3,1,2,1,2
45.83,3,8,8,2,1,1,1,3
45.835,9,14,1,14,2,1,0,1
45.84,2,2,0,2,8,1,5,2
45.845,1,1,2,21,17,4,3,0
45.85,6,4,5,29,15,1,3,1
45.855,1,9,0,1,2,1,1,3
45.86,3,9,21,8,5,3,5,3
45.865,1,0,0,10,3,2,1,0
45.87,1,1,2,10,2,3,0,1
45.875,2,4,9,18,6,1,0,1
45.88,0,3,6,0,0,0,2,2
45.885,3,4,11,9,7,0,4,1
45.89,1,3,3,33,12,1,1,1
45.895,0,3,5,30,19,3,1,2
45.9,2,12,3,6,11,6,5,0
45.905,5,4,8,5,1,0,0,2
45.91,1,2,1,0,3,2,1,2
45.915,2,3,1,15,2,2,2,1
45.92,1,2,0,8,5,2,2,0
45.925,1,0,5,13,0,4,1,1
45.93,2,7,3,8,3,3,3,2
45.935,4,6,6,2,0,2,1,2
45.94,4,3,6,3,0,1,1,1
45.945,2,3,2,17,5,0,1,1
45.95,1,2,1,17,3,3,2,3
45.955,3,2,2,2,4,3,1,2
45.96,1,1,2,1,3,3,2,1
45.965,2,2,1,5,4,2,2,0
45.97,1,4,1,10,2,0,1,1
45.975,3,2,1,10,2,2,1,1
45.98,3,1,3,3,6,2,3,3
45.985,1,3,1,25,7,4,1,2
45.99,0,1,6,31,12,3,0,3
45.995,0,2,3,5,0,0,1,0
46,0,1,1,3,1,0,3,2
46.005,4,2,2,8,0,1,1,3
46.01,1,1,2,4,7,1,0,3
46.015,1,5,1,2,1,1,0,0
46.02,0,0,3,6,1,2,0,3
46.025,1,0,2,2,4,2,3,1
46.03,4,2,3,11,4,0,0,1
46.035,0,0,2,11,2,0,0,0
46.04,0,3,1,13,1,1,1,1
46.045,1,2,2,10,3,2,1,2
46.05,1,5,1,10,6,2,2,2
46.055,0,0,5,2,0,3,3,1
46.06,0,0,0,9,11,3,1,3
46.065,2,2,1,5,3,3,1,0
46.07,1,6,1,1,9,4,1,1
46.075,1,4,3,12,1,2,1,2
46.08,2,2,2,13,2,2,2,1
46.085,0,7,4,10,10,5,3,1
46.09,1,2,1,13,2,1,2,1
46.095,2,0,6,3,1,4,3,1
46.1,3,0,2,1,2,3,2,1
46.105,2,2,0,1,6,3,4,3
46.11,1,2,3,5,3,1,1,1
46.115,1,2,0,4,1,1,3,1
46.12,3,4,1,3,0,2,3,1
46.125,3,5,3,8,0,1,2,1
46.13,2,2,1,4,5,2,2,3
46.135,1,2,0,7,3,2,2,3
46.14,1,0,1,8,2,1,1,2
46.145,0,4,3,5,0,0,1,0
46.15,5,2,1,4,1,2,2,3
46.155,0,0,0,2,4,2,4,0
46.16,5,2,0,8,1,1,2,2
46.165,1,0,1,1,1,0,3,1
46.17,1,5,1,2,2,1,3,0
46.175,2,1,1,3,4,1,0,3
46.18,2,5,1,6,2,1,1,6
46.185,0,2,1,0,2,2,4,7
46.19,2,2,2,1,3,1,5,4
46.195,0,2,2,3,2,2,9,2
46.2,2,1,0,1,3,1,8,0
46.205,2,2,2,2,0,0,3,4
46.21,13,8,5,2,0,2,0,3
46.215,11,3,1,2,2,1,0,22
46.22,1,5,0,4,1,3,0,24
46.225,3,12,2,2,2,0,3,11
46.23,4,16,5,2,0,0,1,0
46.235,7,0,3,1,1,1,2,11
46.24,0,5,4,1,3,4,4,9
46.245,1,4,1,0,2,1,0,2
46.25,3,1,6,3,1,4,5,1
46.255,3,1,4,0,2,0,2,10
46.26,10,3,3,0,1,2,4,11
46.265,15,12,8,1,5,5,4,15
46.27,5,4,5,23,2,2,1,3
46.275,3,10,0,41,5,3,3,9
46.28,5,4,21,11,0,1,1,3
46.285,14,28,3,16,20,8,4,2
46.29,1,27,9,25,24,7,6,4
46.295,27,6,20,40,24,7,5,6
46.3,26,29,1,7,13,2,2,5
46.305,8,15,8,64,13,4,1,3
46.31,11,40,19,7,9,1,1,5
46.315,13,15,12,16,13,0,1,2
46.32,1,15,11,18,4,4,3,6
46.325,12,17,18,45,0,2,2,2
46.33,4,5,42,8,7,5,4,1
46.335,4,4,2,26,8,5,5,3
46.34,9,5,3,26,28,7,4,1
46.345,7,11,10,11,10,2,4,3
46.35,23,14,4,7,1,3,6,3
46.355,13,3,56,8,0,4,0,3
46.36,28,4,17,15,4,4,27,16
46.365,18,16,25,7,2,3,9,2
46.37,27,17,13,2,2,1,8,20
46.375,20,18,46,11,2,1,2,2
46.38,17,1,86,10,1,3,6,7
46.385,4,7,27,6,2,8,11,13
46.39,11,8,23,3,5,2,6,6
46.395,7,11,31,3,0,2,11,7
46.4,26,1,5,4,0,1,1,6
46.405,11,15,39,6,2,4,7,2
46.41,8,0,3,4,4,8,9,10
46.415,2,7,5,7,1,7,1,11
46.42,27,20,4,0,2,0,2,0
46.425,9,9,16,8,0,6,8,4
46.43,11,34,1,0,2,4,12,6
46.435,1,9,4,3,1,3,7,7
46.44,9,0,14,13,1,2,2,3
46.445,3,7,54,7,4,4,6,3
46.45,24,2,35,11,7,8,4,3
46.455,13,10,20,6,11,8,13,2
46.46,9,10,36,4,3,1,5,6
46.465,10,8,21,15,2,1,5,4
46.47,5,2,36,1,0,9,9,8
46.475,12,11,26,5,2,1,5,3
46.48,7,3,7,7,1,1,0,1
46.485,12,18,17,22,10,6,4,8
46.49,1,6,1,11,2,1,2,0
46.495,11,1,28,10,7,1,1,3
46.5,1,6,11,24,1,2,4,0
46.505,14,6,12,23,5,2,4,1
46.51,1,9,6,1,7,3,4,2
46.515,3,5,6,11,10,6,6,1
46.52,3,3,4,1,9,5,5,1
46.525,1,2,20,1,1,1,1,0
46.53,5,4,12,2,2,0,1,1
46.535,7,4,1,14,3,3,5,1
46.54,2,2,34,24,5,1,2,1
46.545,0,2,67,41,2,2,3,0
46.55,3,7,32,4,1,1,4,19
46.555,7,1,1,8,3,8,6,5
46.56,4,16,13,13,2,8,8,3
46.565,3,4,8,5,9,10,6,1
46.57,7,6,13,5,2,3,5,3
46.575,7,1,13,6,6,3,2,5
46.58,7,17,2,8,3,6,2,2
46.585,12,6,17,6,2,3,1,3
46.59,8,4,22,3,7,3,1,2
46.595,3,6,18,0,11,1,4,3
46.6,6,2,9,1,0,1,0,0
46.605,1,6,28,12,2,2,2,2
46.61,1,1,7,17,0,2,3,3
46.615,5,5,3,3,2,2,5,4
46.62,0,12,5,3,5,1,1,2
46.625,8,2,4,5,1,3,3,2
46.63,6,2,9,10,5,6,1,1
46.635,10,3,37,13,9,7,16,1
46.64,18,12,49,15,13,8,2,0
46.645,1,4,22,1,2,1,22,5
46.65,16,6,8,2,6,1,4,1
46.655,22,16,26,12,4,18,20,6
46.66,5,13,8,9,14,15,12,3
46.665,1,7,21,3,7,14,16,1
46.67,9,9,24,0,11,13,6,8
46.675,6,8,1,3,1,9,2,3
46.68,3,10,4,7,3,17,11,17
46.685,7,22,4,12,15,29,37,5
46.69,6,4,9,9,5,9,2,5
46.695,10,1,5,5,7,25,39,7
46.7,13,10,11,7,1,3,9,2
46.705,12,10,7,7,8,4,16,11
46.71,27,1,17,12,5,25,25,2
46.715,19,11,0,3,10,25,82,28
46.72,32,7,6,2,2,14,5,21
46.725,25,7,2,3,4,8,42,8
46.73,7,28,13,4,13,22,14,8
46.735,10,9,24,4,5,21,38,30
46.74,13,38,21,13,6,4,21,12
46.745,6,8,19,3,9,32,60,10
46.75,14,39,7,17,10,47,59,16
46.755,13,37,3,15,8,22,18,11
46.76,4,17,3,2,2,15,15,4
46.765,1,20,37,10,2,2,24,1
46.77,5,56,40,25,9,32,44,29
46.775,17,18,8,13,4,9,7,15
46.78,14,61,20,43,18,10,19,2
46.785,4,42,13,7,5,15,67,7
46.79,3,26,0,18,16,30,53,1
46.795,20,8,11,5,5,22,7,28
46.8,1,4,1,2,3,13,15,30
46.805,21,24,11,3,6,8,37,5
46.81,9,32,10,2,1,5,52,9
46.815,3,6,6,4,2,1,10,5
46.82,3,47,34,9,3,4,2,33
46.825,8,17,25,2,8,1,6,4
46.83,1,26,15,2,8,11,7,8
46.835,15,7,1,8,1,0,23,7
46.84,11,4,14,7,8,6,9,10
46.845,31,5,0,8,2,20,21,0
46.85,6,3,8,4,2,16,30,4
46.855,9,11,14,13,10,12,7,0
46.86,23,10,1,6,4,3,2,25
46.865,17,16,7,13,14,8,18,21
46.87,37,31,6,8,14,5,16,51
46.875,4,10,4,56,6,3,8,17
46.88,5,3,23,2,29,2,10,7
46.885,16,2,8,12,12,0,9,27
46.89,18,4,10,11,9,7,17,7
46.895,21,2,9,14,11,10,9,8
46.9,10,1,3,6,4,4,12,1
46.905,8,2,14,1,2,4,11,8
46.91,4,5,26,1,1,4,7,1
46.915,2,7,9,2,6,3,9,3
46.92,0,2,1,5,3,3,6,2
46.925,3,7,21,8,9,4,2,7
46.93,4,1,1,8,9,2,8,5
46.935,7,11,9,8,2,0,3,8
46.94,10,2,7,4,2,1,1,12
46.945,2,9,10,5,2,0,1,4
46.95,3,3,12,0,4,4,0,9
46.955,9,7,8,4,3,5,21,10
46.96,25,18,0,1,0,6,3,3
46.965,29,17,8,12,4,1,1,3
46.97,3,4,2,2,6,3,8,1
46.975,0,11,3,1,2,1,2,4
46.98,27,3,13,7,5,8,5,7
46.985,6,1,1,5,1,4,7,3
46.99,11,3,32,4,2,4,12,2
46.995,12,11,20,0,3,2,3,1
47,8,9,61,14,3,2,2,9
47.005,15,10,21,4,0,1,7,5
47.01,8,0,30,12,0,4,7,9
47.015,5,4,4,5,2,4,1,26
47.02,24,7,25,9,2,0,8,6
47.025,9,4,27,11,2,4,2,5
47.03,16,5,43,8,2,2,1,8
47.035,6,4,39,3,1,14,21,5
47.04,2,4,26,2,0,9,1,11
47.045,16,6,6,3,2,4,6,4
47.05,3,1,15,10,1,0,6,5
47.055,5,3,8,2,3,1,0,2
47.06,6,7,34,27,1,2,1,2
47.065,8,1,17,9,3,5,3,1
47.07,7,2,3,4,1,4,4,6
47.075,2,7,3,3,4,3,2,0
47.08,2,5,12,16,1,1,2,0
47.085,0,3,2,7,3,0,3,3
47.09,2,7,3,1,2,4,3,5
47.095,1,2,3,3,1,4,2,1
47.1,2,11,5,7,2,0,2,5
47.105,6,10,9,5,2,2,3,3
47.11,3,6,18,6,2,4,1,5
47.115,8,29,6,5,1,3,3,11
47.12,1,24,31,36,0,2,0,16
47.125,0,37,30,32,16,1,4,40
47.13,4,7,22,3,5,2,3,0
47.135,4,3,28,9,4,5,1,5
47.14,1,19,3,1,0,2,11,9
47.145,12,26,29,29,2,4,4,2
47.15,5,18,8,5,1,3,2,6
47.155,4,6,4,8,2,9,7,6
47.16,16,4,6,12,10,4,6,8
47.165,6,9,3,13,10,0,2,7
47.17,5,12,9,10,2,2,4,4
47.175,7,0,13,18,4,2,3,2
47.18,0,11,9,24,6,2,4,5
47.185,6,3,3,8,11,3,6,8
47.19,1,19,11,20,16,5,1,3
47.195,1,9,27,21,11,4,6,1
47.2,5,2,12,1,6,3,8,1
47.205,2,8,17,12,7,11,19,9
47.21,5,1,10,9,4,16,42,1
47.215,3,7,32,15,4,18,21,4
47.22,8,3,25,7,19,20,5,0
47.225,0,12,3,7,1,7,3,2
47.23,8,3,20,11,0,21,35,27
47.235,5,6,6,6,12,33,47,16
47.24,13,25,18,9,12,42,77,18
47.245,4,11,24,2,6,6,49,2
47.25,3,18,12,4,15,17,10,14
47.255,6,6,8,5,14,28,19,22
47.26,7,6,12,2,2,16,28,4
47.265,0,15,4,3,23,11,24,2
47.27,2,14,3,14,35,42,33,15
47.275,19,2,12,2,48,21,20,12
47.28,7,19,6,1,30,14,44,8
47.285,1,2,18,4,19,4,31,7
47.29,6,6,34,23,4,17,20,4
47.295,3,1,8,7,18,10,16,4
47.3,0,0,9,1,9,10,29,3
47.305,6,13,10,4,4,14,17,5
47.31,12,20,24,9,2,5,11,16
47.315,2,2,10,2,1,2,30,3
47.32,8,22,4,1,4,2,30,18
47.325,14,28,20,11,3,6,0,4
47.33,8,3,25,4,2,12,42,18
47.335,8,30,59,4,10,15,7,10
47.34,19,1,23,11,4,1,36,0
47.345,7,33,1,4,5,7,49,7
47.35,14,14,1,3,3,2,28,27
47.355,7,9,21,1,6,23,49,20
47.36,7,28,21,11,2,32,56,31
47.365,1,69,31,1,11,1,4,36
47.37,6,26,8,1,18,1,15,66
47.375,9,10,0,14,12,16,13,34
47.38,8,49,11,1,14,8,57,26
47.385,17,51,18,5,18,13,29,9
47.39,17,31,2,6,9,6,31,51
47.395,19,35,11,1,1,17,12,21
47.4,30,7,5,1,2,18,11,10
47.405,4,16,4,2,3,15,23,19
47.41,7,11,15,4,1,3,3,15
47.415,10,10,7,5,4,1,11,13
47.42,10,12,3,4,3,4,17,9
47.425,4,6,7,2,5,5,9,34
47.43,3,15,8,0,1,4,7,5
47.435,11,12,6,22,14,1,10,4
47.44,4,0,7,29,7,0,3,6
47.445,4,6,3,0,6,2,15,4
47.45,1,2,2,4,3,1,21,1
47.455,1,8,3,7,1,2,1,1
47.46,7,4,7,25,17,11,5,5
47.465,0,9,4,4,4,0,0,8
47.47,5,1,2,15,18,9,7,7
47.475,2,2,2,14,5,3,2,1
47.48,1,0,0,6,6,2,1,1
47.485,1,0,3,3,8,3,1,1
47.49,3,3,4,1,6,2,3,4
47.495,1,2,1,4,0,1,2,2
47.5,1,3,3,6,3,1,1,1
47.505,3,0,2,1,2,0,1,1
47.51,0,0,4,8,3,3,2,3
47.515,1,2,10,0,4,3,2,1
47.52,2,4,13,7,2,2,1,0
47.525,1,1,7,2,3,2,1,2
47.53,1,1,20,15,5,0,1,2
47.535,1,1,1,16,3,0,0,3
47.54,2,3,16,2,5,2,2,1
47.545,2,3,9,6,2,3,0,1
47.55,2,0,13,1,1,2,1,2
47.555,2,1,4,0,4,2,0,1
47.56,1,0,0,6,7,1,0,0
47.565,1,2,5,6,4,0,1,5
47.57,1,3,2,6,5,2,1,7
47.575,1,2,2,9,1,1,1,2
47.58,0,1,10,2,1,0,0,2
47.585,1,2,9,8,3,1,2,3
47.59,1,0,14,10,3,1,3,3
47.595,2,3,8,8,5,2,3,1
47.6,1,3,15,6,2,0,0,1
47.605,0,1,3,5,4,2,1,0
47.61,0,2,10,0,2,1,1,2
47.615,2,0,15,1,4,3,1,1
47.62,1,1,3,2,1,1,1,1
47.625,1,2,2,21,6,4,1,2
47.63,1,3,5,7,1,3,2,2
47.635,0,2,1,1,5,0,1,2
47.64,1,0,14,16,2,1,0,1
47.645,1,0,2,1,0,0,1,4
47.65,0,0,7,2,2,1,2,0
47.655,2,2,6,5,2,2,1,2
47.66,1,1,10,1,3,0,0,1
47.665,2,2,10,0,4,4,1,4
47.67,2,1,4,1,0,0,1,0
47.675,2,1,4,4,1,3,1,1
47.68,1,3,4,1,3,1,1,1
47.685,1,1,10,2,1,0,1,1
47.69,1,2,7,1,2,3,1,4
47.695,1,2,11,3,2,1,2,3
47.7,1,3,17,3,3,0,2,1
47.705,0,0,3,11,1,1,0,0
47.71,2,1,6,0,3,4,1,2
47.715,0,1,5,1,3,0,2,4
47.72,1,0,1,5,0,1,1,3
47.725,1,1,0,0,3,1,1,1
47.73,2,2,1,5,1,1,2,1
47.735,3,3,6,1,1,2,1,2
47.74,2,2,0,3,3,4,1,1
47.745,0,0,8,1,3,1,1,0
47.75,1,1,7,5,2,2,1,2
47.755,0,2,7,2,2,0,2,1
47.76,1,2,7,1,2,1,2,1
47.765,2,3,2,1,1,1,2,3
47.77,1,1,5,3,5,1,1,1
47.775,1,3,14,13,2,4,1,2
47.78,0,0,8,11,2,0,0,1
47.785,3,3,24,2,1,2,2,5
47.79,1,4,36,2,1,2,1,7
47.795,4,8,32,9,6,3,2,4
47.8,2,1,4,10,1,2,2,2
47.805,1,1,10,7,2,1,1,0
47.81,2,1,9,1,2,1,2,3
47.815,1,1,11,0,1,1,0,1
47.82,0,1,6,0,1,3,1,1
47.825,0,0,1,2,0,0,2,0
47.83,0,3,13,7,1,0,1,2
47.835,0,1,7,6,7,1,1,0
47.84,2,4,2,1,4,0,2,3
47.845,0,1,3,5,1,1,1,1
47.85,4,6,63,17,7,5,2,2
47.855,1,4,8,2,5,4,1,1
47.86,2,3,31,2,3,3,1,2
47.865,1,5,14,10,4,3,1,1
47.87,2,4,5,13,5,0,2,1
47.875,2,2,5,1,3,2,1,4
47.88,1,1,3,5,0,2,1,8
47.885,1,2,16,3,3,2,1,3
47.89,1,1,6,9,3,1,0,3
47.895,0,1,8,10,0,2,2,0
47.9,1,0,9,4,1,1,1,2
47.905,1,0,5,1,2,3,3,0
47.91,1,2,1,10,1,1,1,1
47.915,2,0,7,3,1,2,1,1
47.92,1,1,7,4,1,1,0,2
47.925,1,4,1,3,2,1,3,0
47.93,0,1,2,4,3,1,1,2
47.935,0,1,6,1,1,0,0,0
47.94,1,3,2,2,0,1,1,2
47.945,3,1,4,0,2,0,3,1
47.95,0,0,7,2,2,0,1,0
47.955,2,5,3,3,1,3,1,4
47.96,0,0,1,7,1,2,2,6
47.965,1,0,9,1,2,2,1,3
47.97,1,3,11,6,1,5,0,1
47.975,2,1,27,5,7,2,1,0
47.98,3,3,3,13,5,3,3,5
47.985,0,2,25,5,0,3,1,2
47.99,1,1,1,9,4,2,1,0
47.995,3,2,12,6,3,4,3,1
48,3,2,1,6,3,1,2,4
48.005,1,1,6,4,0,1,3,0
48.01,2,1,12,17,4,2,3,3
48.015,1,5,28,18,3,1,0,2
48.02,1,0,3,6,2,1,1,2
48.025,2,2,1,11,4,2,0,2
48.03,1,0,4,17,2,1,0,2
48.035,2,4,13,1,4,0,0,1
48.04,1,1,1,1,1,0,1,1
48.045,2,1,18,6,2,1,1,0
48.05,1,1,1,6,0,0,2,2
48.055,3,0,10,3,7,1,1,6
48.06,2,4,41,4,1,1,1,3
48.065,0,0,5,1,1,1,2,1
48.07,1,0,1,1,2,2,2,3
48.075,3,0,3,6,2,2,1,2
48.08,1,2,11,4,0,0,0,0
48.085,2,2,15,3,2,1,0,0
48.09,2,1,1,5,3,0,0,0
48.095,1,1,3,3,0,1,2,3
48.1,4,3,10,10,3,3,3,0
48.105,1,2,11,3,1,2,0,0
48.11,1,1,5,3,1,2,1,1
48.115,1,2,2,3,0,0,1,0
48.12,2,1,7,1,4,3,4,2
48.125,1,3,1,5,0,2,3,1
48.13,1,4,8,3,2,0,1,1
48.135,2,2,1,3,1,1,1,3
48.14,0,3,5,2,1,0,1,1
48.145,1,0,0,4,2,3,1,2
48.15,1,3,1,5,0,2,1,1
48.155,1,2,11,2,1,3,2,0
48.16,1,0,11,8,0,0,0,1
48.165,2,2,2,3,0,1,2,1
48.17,1,2,12,8,0,1,0,4
48.175,1,2,20,8,7,3,1,2
48.18,1,2,3,6,2,0,1,1
48.185,2,2,13,5,8,2,3,0
48.19,2,2,4,7,4,0,3,1
48.195,1,0,8,1,1,2,3,2
48.2,3,6,2,3,6,2,1,2
48.205,1,4,28,8,3,2,2,0
48.21,0,1,5,1,2,2,3,1
48.215,0,0,10,1,1,1,0,1
48.22,2,0,1,5,1,1,2,5
48.225,2,1,1,1,1,2,2,1
48.23,1,4,9,6,3,0,0,1
48.235,1,13,13,33,24,3,3,1
48.24,1,10,27,12,20,1,1,2
48.245,6,3,18,45,33,5,2,2
48.25,1,7,42,26,95,15,6,2
48.255,14,32,78,38,59,6,2,5
48.26,0,2,1,24,8,4,4,7
48.265,5,12,13,33,6,2,3,3
48.27,2,10,42,17,31,6,0,3
48.275,6,8,29,13,18,12,8,5
48.28,8,36,52,28,9,5,5,7
48.285,0,15,93,52,25,7,3,0
48.29,6,11,20,44,11,7,4,3
48.295,3,11,54,43,20,5,3,1
48.3,7,8,108,125,41,4,7,8
48.305,1,36,63,116,2,2,2,2
48.31,5,61,62,33,11,6,0,0
48.315,9,28,28,69,46,7,2,4
48.32,9,28,76,1,13,13,8,6
48.325,6,6,9,70,68,11,0,2
48.33,4,5,67,14,76,20,8,3
48.335,4,18,94,62,92,39,14,4
48.34,8,6,54,23,110,5,0,0
48.345,2,1,43,78,75,0,4,5
48.35,15,67,64,52,14,7,4,5
48.355,0,11,34,70,23,13,8,3
48.36,14,20,69,58,68,12,9,11
48.365,3,13,14,0,23,0,2,2
48.37,4,24,36,73,52,7,2,3
48.375,4,1,11,21,63,17,5,3
48.38,2,3,15,60,38,7,3,2
48.385,7,41,38,3,86,17,6,3
48.39,4,42,11,34,19,4,2,6
48.395,6,41,87,5,127,20,5,3
48.4,1,15,27,119,35,5,1,1
48.405,4,32,127,19,66,10,5,3
48.41,7,24,36,88,44,1,3,3
48.415,5,23,60,58,20,1,2,2
48.42,1,5,58,56,26,2,0,1
48.425,6,10,5,15,2,2,1,0
48.43,2,34,91,3,2,4,0,3
48.435,0,10,13,111,44,14,6,2
48.44,8,11,61,4,16,4,0,2
48.445,3,19,48,16,8,3,3,5
48.45,1,14,11,25,22,3,1,0
48.455,1,3,8,53,12,3,1,0
48.46,0,1,107,87,34,5,1,0
48.465,3,29,43,8,11,5,2,4
48.47,13,54,21,4,9,4,3,6
48.475,4,8,27,13,7,3,3,2
48.48,1,7,45,53,22,7,3,1
48.485,0,7,43,14,7,1,1,0
48.49,6,14,63,34,36,14,6,5
48.495,6,32,51,41,38,6,2,1
48.5,9,14,85,33,10,1,2,3
48.505,7,18,2,56,14,9,6,5
48.51,8,17,61,30,38,12,4,0
48.515,4,10,35,14,17,8,3,1
48.52,6,10,24,8,20,1,2,3
48.525,2,13,10,60,1,5,4,1
48.53,4,33,7,69,13,5,3,2
48.535,2,6,23,15,2,2,1,4
48.54,1,5,12,27,34,4,1,0
48.545,6,9,15,30,17,0,3,4
48.55,3,7,26,54,12,0,2,1
48.555,0,4,6,6,3,1,1,4
48.56,1,4,13,49,22,1,2,0
48.565,0,15,14,36,6,1,0,1
48.57,4,9,22,0,2,2,1,0
48.575,2,1,32,5,13,1,1,0
48.58,1,3,22,19,20,6,1,1
48.585,5,14,29,11,6,4,3,4
48.59,1,12,40,13,6,0,1,1
48.595,4,10,27,17,5,2,2,4
48.6,1,3,8,33,4,3,2,4
48.605,2,8,6,13,3,1,1,1
48.61,3,4,31,5,4,1,0,1
48.615,2,1,39,17,1,1,0,1
48.62,2,2,13,8,5,3,2,4
48.625,1,9,62,29,2,3,0,0
48.63,2,6,9,13,0,0,1,2
48.635,2,3,4,10,6,1,2,0
48.64,0,3,25,8,6,4,3,4
48.645,4,4,4,28,4,1,2,2
48.65,2,2,6,1,2,1,1,2
48.655,0,3,22,4,5,4,1,2
48.66,4,2,9,16,3,1,2,3
48.665,3,8,11,13,2,1,3,3
48.67,1,2,1,4,0,0,2,1
48.675,2,1,4,6,1,1,1,1
48.68,2,3,11,24,2,3,0,4
48.685,4,5,32,21,2,3,1,1
48.69,2,1,56,17,0,1,0,0
48.695,2,4,7,5,4,2,2,1
48.7,1,3,11,5,2,3,2,2
48.705,1,1,12,2,2,0,2,0
48.71,3,3,7,1,3,1,1,0
48.715,3,5,15,4,4,1,1,2
48.72,0,1,21,0,1,1,2,1
48.725,1,5,1,2,1,5,3,4
48.73,2,6,8,3,3,0,1,1
48.735,0,2,10,8,2,1,1,0
48.74,2,1,7,1,0,0,2,1
48.745,2,5,6,9,4,2,0,3
48.75,3,3,5,9,2,3,5,0
48.755,0,0,2,7,2,2,1,1
48.76,2,1,27,5,5,2,3,4
48.765,1,4,70,14,3,1,1,1
48.77,0,2,8,1,1,1,0,1
48.775,1,4,13,4,3,3,1,1
48.78,1,0,24,2,2,0,1,1
48.785,4,8,45,24,4,0,2,1
48.79,2,2,17,6,3,1,0,2
48.795,1,0,25,6,1,3,0,3
48.8,2,3,26,8,5,3,2,7
48.805,2,2,18,3,2,1,2,4
48.81,1,2,5,4,0,2,0,1
48.815,1,1,23,3,3,1,1,2
48.82,1,0,6,5,2,1,0,2
48.825,1,1,5,0,0,2,1,1
48.83,1,3,3,5,0,1,2,2
48.835,1,2,5,1,0,1,0,0
48.84,0,0,3,1,0,0,0,4
48.845,1,6,13,3,3,1,3,1
48.85,1,4,7,16,2,3,3,0
48.855,2,0,14,2,1,3,1,0
48.86,0,3,2,4,2,1,1,0
48.865,1,4,63,16,2,2,0,5
48.87,1,0,42,13,4,1,0,4
48.875,1,3,1,5,0,3,3,1
48.88,0,3,2,8,5,2,2,2
48.885,3,3,23,12,5,1,0,1
48.89,2,4,24,29,2,2,0,0
48.895,2,3,2,18,14,4,1,1
48.9,5,8,30,1,8,2,3,4
48.905,1,4,43,8,6,1,2,2
48.91,4,3,13,36,2,1,2,3
48.915,5,9,56,79,28,7,4,4
48.92,4,15,32,75,7,2,3,4
48.925,7,4,94,65,22,2,5,3
48.93,1,3,89,69,72,16,7,4
48.935,3,2,63,52,13,1,1,2
48.94,19,69,21,15,92,20,10,11
48.945,8,44,37,58,21,4,5,9
48.95,19,25,40,100,42,16,15,14
48.955,16,30,128,22,48,1,7,7
48.96,14,56,127,103,22,6,2,8
48.965,5,54,43,39,37,4,2,5
48.97,9,5,15,0,7,0,6,10
48.975,1,46,19,95,2,2,3,2
48.98,10,17,107,69,43,18,9,12
48.985,38,91,93,16,92,32,19,21
48.99,12,54,84,23,23,8,9,6
48.995,15,67,10,38,65,1,6,5
49,2,15,61,62,101,10,1,0
49.005,7,36,5,6,57,10,3,6
49.01,1,22,48,19,74,16,6,4
49.015,13,66,94,85,43,6,0,4
49.02,8,20,51,13,7,2,1,2
49.025,2,21,9,15,6,9,3,2
49.03,8,29,39,14,47,12,9,6
49.035,4,2,126,31,19,2,3,7
49.04,6,47,68,25,21,1,3,4
49.045,0,21,81,61,9,5,1,1
49.05,2,1,18,19,20,5,1,0
49.055,18,62,70,44,12,8,7,11
49.06,10,22,50,22,39,8,3,5
49.065,8,28,7,24,16,1,2,3
49.07,4,18,11,23,8,1,2,0
49.075,3,2,65,51,7,4,3,2
49.08,3,12,84,34,15,1,2,0
49.085,0,0,8,4,10,1,2,4
49.09,0,6,19,1,2,3,0,1
49.095,2,1,29,23,44,6,1,4
49.1,6,4,4,53,44,14,7,8
49.105,4,7,26,27,27,5,2,6
49.11,6,12,27,15,16,1,3,1
49.115,6,30,65,30,17,2,1,2
49.12,1,19,41,15,5,4,1,2
49.125,1,7,1,55,16,5,2,2
49.13,5,10,33,26,18,5,5,4
49.135,3,2,43,61,12,0,1,1
49.14,1,3,4,42,21,6,4,0
49.145,2,4,62,9,2,2,3,2
49.15,1,4,19,0,14,5,1,1
49.155,0,9,16,7,2,3,2,1
49.16,4,1,13,5,4,1,4,2
49.165,1,9,22,14,5,0,0,2
49.17,1,1,2,6,10,4,2,1
49.175,2,2,4,4,5,2,2,1
49.18,1,4,10,9,6,1,3,2
49.185,3,3,5,3,1,3,2,4
49.19,2,2,45,26,1,1,2,0
49.195,1,1,3,29,8,1,1,2
49.2,1,4,16,44,9,5,1,1
49.205,1,4,18,39,3,1,0,2
49.21,0,7,22,6,2,0,3,2
49.215,2,2,4,4,2,1,1,3
49.22,2,4,14,4,2,3,2,1
49.225,0,1,2,3,9,5,2,1
49.23,0,1,2,4,2,2,1,1
49.235,0,2,2,15,4,3,0,0
49.24,0,3,47,18,8,2,1,1
49.245,1,1,14,9,1,1,1,2
49.25,2,1,0,3,5,0,1,2
49.255,2,0,1,3,8,1,1,1
49.26,0,3,7,7,4,2,0,0
49.265,2,1,8,12,2,1,1,1
49.27,2,5,2,11,1,2,2,3
49.275,0,2,0,5,3,2,0,2
49.28,2,2,14,2,5,1,0,1
49.285,1,0,2,13,4,4,1,1
49.29,1,2,10,2,1,3,2,2
49.295,1,1,6,1,0,0,2,2
49.3,1,4,27,28,8,2,2,4
49.305,1,7,32,48,12,1,2,1
49.31,3,5,34,5,10,3,3,3
49.315,0,3,3,1,2,2,3,1
49.32,2,2,4,12,7,0,2,2
49.325,1,1,23,18,10,2,0,0
49.33,2,1,0,13,4,0,1,0
49.335,2,1,1,10,4,2,2,2
49.34,2,5,27,2,7,0,1,3
49.345,1,2,1,5,7,2,1,0
49.35,1,0,3,8,3,1,1,2
49.355,2,2,6,11,6,5,2,1
49.36,2,1,6,13,5,1,3,2
49.365,0,1,2,2,0,1,0,2
49.37,1,2,4,16,3,1,1,1
49.375,0,3,17,2,5,1,0,1
49.38,3,3,2,7,7,3,3,2
49.385,3,3,50,5,3,2,3,2
49.39,2,0,9,1,6,1,1,1
49.395,1,3,12,6,5,1,0,0
49.4,1,3,3,22,4,0,0,0
49.405,0,1,15,5,3,1,0,2
49.41,0,5,12,7,7,1,1,0
49.415,1,1,26,24,2,1,2,1
49.42,0,2,5,20,1,1,0,1
49.425,2,2,14,6,4,2,1,0
49.43,2,2,4,6,2,3,2,2
49.435,0,1,17,2,2,1,1,0
49.44,1,2,7,15,7,3,3,2
49.445,3,3,45,5,3,0,0,3
49.45,2,1,27,18,0,2,0,1
49.455,1,2,12,8,5,2,2,1
49.46,1,0,3,12,3,1,2,1
49.465,0,1,4,8,1,2,0,1
49.47,0,1,12,1,0,1,1,1
49.475,2,6,41,23,0,1,1,2
49.48,0,1,29,28,5,1,1,2
49.485,0,2,16,15,10,2,1,1
49.49,3,8,25,7,9,4,2,1
49.495,1,3,10,10,3,1,0,0
49.5,4,10,23,5,8,5,2,2
49.505,0,3,9,11,6,1,0,2
49.51,0,2,13,36,5,1,2,4
49.515,0,2,57,1,5,0,2,3
49.52,2,1,1,32,5,2,2,0
49.525,1,0,25,9,7,1,2,3
49.53,5,8,26,17,3,6,4,2
49.535,2,6,11,4,1,1,2,1
49.54,5,1,49,8,1,1,2,2
49.545,0,4,27,8,1,2,1,3
49.55,1,3,20,11,1,1,2,2
49.555,0,1,7,9,0,1,1,4
49.56,1,14,105,40,5,0,1,4
49.565,0,11,115,44,3,1,2,2
49.57,8,20,108,41,5,5,3,11
49.575,13,31,93,96,6,4,7,3
49.58,1,12,22,72,9,7,4,3
49.585,9,26,72,93,7,9,10,6
49.59,27,55,69,1,15,17,16,18
49.595,5,13,40,92,1,3,0,4
49.6,3,15,38,73,1,7,4,3
49.605,14,1,71,67,21,5,6,10
49.61,1,10,98,121,33,9,1,6
49.615,6,16,100,60,63,27,7,5
49.62,0,7,44,83,27,9,1,0
49.625,8,45,27,58,55,35,13,5
49.63,4,54,127,82,58,46,14,4
49.635,7,22,119,91,114,8,4,8
49.64,2,21,123,108,18,2,2,3
49.645,12,11,13,87,89,9,1,2
49.65,7,92,22,20,10,20,4,4
49.655,17,38,90,38,23,14,10,7
49.66,1,10,48,97,91,7,2,2
49.665,0,21,38,65,33,12,0,2
49.67,5,19,47,23,87,5,6,12
49.675,8,15,25,75,4,11,5,4
49.68,44,127,95,55,18,0,11,17
49.685,45,47,105,8,14,9,14,20
49.69,6,57,48,68,48,2,1,2
49.695,1,40,4,78,32,10,2,0
49.7,0,59,85,7,9,0,1,0
49.705,1,15,86,80,20,17,6,2
49.71,18,18,65,49,27,10,7,8
49.715,21,60,8,25,76,9,2,7
49.72,1,35,70,76,21,4,3,2
49.725,4,7,51,27,21,8,2,1
49.73,11,3,64,18,60,13,4,2
49.735,1,28,5,26,3,4,2,0
49.74,2,20,9,21,1,4,2,1
49.745,1,6,5,33,10,1,2,1
49.75,4,5,8,27,8,1,1,4
49.755,2,2,7,9,0,0,0,4
49.76,1,13,6,21,9,5,4,7
49.765,2,1,8,0,6,0,1,3
49.77,7,11,10,14,2,1,3,0
49.775,28,12,1,1,17,7,3,27
49.78,43,5,3,0,8,1,4,43
49.785,10,13,3,3,2,1,1,8
49.79,4,1,18,21,2,1,6,4
49.795,13,3,14,12,1,2,2,12
49.8,35,6,21,14,5,4,1,0
49.805,9,2,6,5,5,2,2,26
49.81,10,6,24,9,7,5,3,21
49.815,8,1,44,18,4,2,9,17
49.82,1,3,11,5,7,2,7,4
49.825,32,6,3,10,5,1,2,22
49.83,11,1,0,7,2,2,1,5
49.835,14,12,3,12,1,0,4,25
49.84,8,1,15,13,7,1,1,13
49.845,6,7,11,4,6,1,10,6
49.85,21,11,9,14,6,2,5,16
49.855,19,2,31,3,1,1,5,2
49.86,7,13,85,8,3,7,8,26
49.865,1,2,23,8,2,2,3,2
49.87,11,2,5,15,2,1,3,1
49.875,6,5,5,8,4,3,2,5
49.88,16,7,22,7,1,0,2,14
49.885,1,8,16,22,1,2,0,2
49.89,15,5,24,49,1,1,0,10
49.895,0,1,17,27,0,0,3,5
49.9,7,5,14,5,2,1,3,6
49.905,1,3,16,16,1,1,3,16
49.91,3,3,3,10,0,0,3,10
49.915,2,4,10,11,2,0,4,2
49.92,6,3,44,11,1,2,1,1
49.925,1,4,2,5,1,0,2,1
49.93,2,1,9,7,2,2,5,2
49.935,4,3,57,25,2,3,1,6
49.94,1,2,23,19,0,0,2,5
49.945,2,2,2,10,4,3,1,5
49.95,1,5,35,10,5,0,2,0
49.955,0,1,21,3,2,1,0,8
49.96,3,0,4,18,6,3,3,8
49.965,3,3,6,5,4,4,3,2
49.97,5,2,5,7,5,4,2,2
49.975,1,2,3,0,2,3,0,4
49.98,0,7,4,4,1,1,3,3
49.985,3,3,3,1,2,1,1,2
49.99,2,1,9,4,0,1,1,1
49.995,3,3,1,1,2,2,1,4
50,4,2,4,7,2,1,0,1
50.005,0,1,0,5,0,1,3,1
50.01,2,0,5,3,4,0,2,1
50.015,4,5,3,1,5,2,1,1
50.02,0,2,4,4,2,1,1,0
50.025,3,1,0,1,0,2,1,1
50.03,2,3,7,5,2,3,3,3
50.035,1,1,2,2,1,4,3,1
50.04,1,4,2,9,1,2,0,0
50.045,2,3,0,7,1,1,1,3
50.05,3,3,6,1,1,1,1,2
50.055,4,0,7,3,3,3,1,1
50.06,1,0,5,8,0,2,1,0
50.065,2,5,14,11,1,4,1,5
50.07,2,2,21,5,2,0,2,4
50.075,2,3,12,8,1,1,2,4
50.08,0,2,9,3,1,0,1,5
50.085,2,1,7,0,2,1,1,2
50.09,1,0,10,14,4,1,1,2
50.095,2,5,16,8,1,1,2,0
50.1,1,0,9,4,0,3,3,4
50.105,2,0,13,7,1,0,0,3
50.11,3,2,7,10,1,1,2,8
50.115,3,0,2,7,1,2,0,2
50.12,1,3,3,9,1,1,1,2
50.125,2,7,9,0,4,3,3,6
50.13,0,4,18,5,1,3,2,1
50.135,3,9,75,19,6,4,3,1
50.14,1,5,23,4,3,4,2,0
50.145,6,11,35,34,2,0,1,1
50.15,1,13,31,11,3,5,3,1
50.155,1,1,31,76,7,1,1,2
50.16,7,8,60,25,4,4,5,5
50.165,4,3,18,61,27,2,3,4
50.17,6,3,12,86,59,3,0,2
50.175,6,19,90,33,17,1,1,6
50.18,5,4,105,3,30,1,2,2
50.185,2,12,89,20,55,5,0,4
50.19,4,2,60,58,40,11,7,4
50.195,20,47,81,31,54,1,5,10
50.2,3,1,46,62,54,5,0,2
50.205,0,29,36,88,2,5,2,3
50.21,12,3,29,86,15,15,8,3
50.215,3,12,40,67,93,14,0,0
50.22,16,42,41,57,59,2,6,5
50.225,4,19,60,25,6,8,4,2
50.23,8,69,66,77,79,33,13,3
50.235,28,67,109,93,116,35,2,12
50.24,5,2,42,97,107,7,1,4
50.245,18,9,72,89,2,3,7,7
50.25,23,23,78,86,92,20,4,6
50.255,4,45,48,83,125,49,18,11
50.26,7,81,78,37,123,20,7,4
50.265,11,16,22,101,78,14,8,5
50.27,2,15,48,36,43,16,1,1
50.275,0,40,41,128,33,5,1,3
50.28,2,91,62,8,73,25,11,7
50.285,5,1,14,34,76,11,3,3
50.29,13,8,89,24,37,11,1,6
50.295,16,23,3,71,13,8,9,8
50.3,3,67,73,11,7,8,4,3
50.305,4,52,51,66,33,16,6,5
50.31,9,14,58,62,128,31,14,11
50.315,20,68,83,56,4,6,7,9
50.32,4,22,49,16,7,0,2,0
50.325,23,18,22,38,8,8,8,8
50.33,21,51,77,19,40,6,1,4
50.335,10,40,100,26,11,10,7,6
50.34,10,22,20,35,25,2,5,4
50.345,3,35,51,29,33,1,2,3
50.35,12,46,39,10,5,3,0,4
50.355,8,23,47,37,23,1,3,4
50.36,3,4,12,51,21,8,5,2
50.365,9,31,17,31,13,4,0,1
50.37,5,1,3,43,11,6,3,3
50.375,2,0,15,42,8,3,2,2
50.38,1,7,7,8,10,3,1,0
50.385,7,22,27,27,16,3,2,4
50.39,0,12,7,34,6,3,3,1
50.395,2,0,16,5,5,1,2,1
50.4,7,6,2,4,16,2,0,3
50.405,1,8,10,25,22,6,0,0
50.41,2,13,43,19,10,2,2,2
50.415,0,6,14,8,3,2,3,1
50.42,2,5,6,21,10,3,0,1
50.425,5,14,38,29,19,3,2,6
50.43,2,7,10,7,7,2,1,1
50.435,1,5,8,3,22,5,2,0
50.44,1,3,8,9,1,4,2,2
50.445,1,7,3,2,6,1,0,1
50.45,3,13,19,11,0,2,4,2
50.455,1,2,23,9,7,2,1,1
50.46,2,2,1,5,2,1,2,0
50.465,4,9,12,3,5,1,4,1
50.47,1,2,4,9,5,2,1,1
50.475,1,1,26,1,4,3,3,1
50.48,1,0,7,6,2,0,1,1
50.485,1,4,6,3,3,3,3,0
50.49,4,10,10,10,7,1,1,3
50.495,0,6,9,14,6,1,1,1
50.5,2,2,46,22,6,1,1,1
50.505,1,17,75,51,19,4,2,2
50.51,0,1,9,2,4,1,1,2
50.515,0,3,11,0,6,3,1,2
50.52,0,1,1,7,2,0,3,0
50.525,3,1,11,10,4,1,0,4
50.53,0,0,0,1,2,1,1,1
50.535,2,2,15,16,1,0,1,1
50.54,3,4,10,4,3,2,3,3
50.545,1,1,10,11,1,2,2,1
50.55,1,5,11,7,4,1,1,2
50.555,1,1,25,5,3,1,1,3
50.56,3,1,15,7,0,1,1,0
50.565,1,0,9,0,2,2,2,3
50.57,1,1,4,3,2,2,1,0
50.575,1,5,6,2,4,2,1,1
50.58,1,3,5,3,1,3,0,1
50.585,2,3,4,4,0,1,0,2
50.59,1,4,2,4,0,2,0,1
50.595,3,5,1,5,2,1,3,1
50.6,0,4,14,11,2,0,2,0
50.605,1,2,18,10,2,3,1,2
50.61,1,3,0,4,3,0,1,2
50.615,2,0,3,1,1,1,0,1
50.62,0,1,5,9,1,1,3,1
50.625,3,2,5,2,1,0,2,3
50.63,0,5,3,1,0,1,0,3
50.635,1,1,13,6,1,1,1,1
50.64,2,2,3,5,3,0,0,2
50.645,0,2,5,4,3,1,1,3
50.65,2,1,7,2,2,1,2,2
50.655,1,0,21,3,0,0,2,0
50.66,1,2,14,5,1,1,0,1
50.665,2,3,45,14,1,3,3,2
50.67,2,4,9,7,5,0,2,0
50.675,0,2,2,2,3,1,1,1
50.68,2,1,0,6,1,1,1,5
50.685,2,0,14,1,0,3,2,0
50.69,3,1,1,13,0,0,2,0
50.695,1,5,1,13,3,1,1,1
50.7,4,4,25,2,6,1,2,5
50.705,0,1,17,2,1,3,2,2
50.71,2,0,12,4,3,3,0,2
50.715,1,1,27,5,1,0,1,7
50.72,3,1,12,2,0,1,2,4
50.725,0,2,21,3,2,0,0,0
50.73,1,2,14,3,0,3,2,1
50.735,3,1,1,0,2,0,2,4
50.74,2,4,5,5,5,2,2,2
50.745,2,10,19,0,2,2,0,2
50.75,1,1,17,3,0,0,2,3
50.755,1,16,40,3,0,1,0,0
50.76,5,2,4,9,0,2,3,5
50.765,2,9,16,8,0,1,1,2
50.77,2,21,24,7,2,3,0,0
50.775,1,6,6,4,3,2,2,3
50.78,3,4,2,12,5,1,3,1
50.785,2,6,4,5,9,1,1,0
50.79,1,11,22,0,12,0,1,1
50.795,10,35,21,7,13,6,3,4
50.8,3,5,28,18,11,1,0,1
50.805,0,6,46,6,4,3,0,2
50.81,3,0,15,4,8,2,2,4
50.815,2,11,21,7,0,1,1,4
50.82,2,6,13,14,6,4,3,3
50.825,4,1,5,10,9,7,2,4
50.83,2,16,24,6,5,0,1,1
50.835,5,3,24,5,4,5,4,4
50.84,1,5,55,1,5,1,1,1
50.845,0,21,93,10,2,0,1,3
50.85,3,14,101,25,3,2,2,1
50.855,4,13,106,14,1,1,1,2
50.86,3,3,75,46,5,4,1,0
50.865,1,11,4,23,10,0,1,3
50.87,4,26,62,8,15,0,3,1
50.875,5,21,57,8,19,4,2,2
50.88,4,18,43,9,10,3,0,1
50.885,3,0,19,10,11,1,3,1
50.89,2,6,52,14,18,4,2,3
50.895,7,44,91,16,23,1,0,1
50.9,5,43,111,17,2,4,3,2
50.905,0,36,2,22,24,1,1,2
50.91,5,9,73,2,8,3,1,1
50.915,0,4,101,36,11,4,0,2
50.92,0,9,11,12,4,1,1,1
50.925,8,7,32,3,3,3,3,7
50.93,3,5,44,26,23,10,6,6
50.935,6,31,86,66,26,10,4,13
50.94,7,11,99,6,8,6,5,7
50.945,3,10,73,78,16,6,2,3
50.95,4,10,70,31,36,7,3,0
50.955,3,17,25,61,5,6,5,6
50.96,3,14,30,36,47,9,4,2
50.965,6,7,120,35,37,15,7,5
50.97,1,17,113,105,4,2,1,3
50.975,11,49,51,3,20,9,4,7
50.98,4,12,10,40,30,9,6,5
50.985,24,62,44,18,32,17,15,16
50.99,10,46,85,17,21,2,5,7
50.995,10,54,3,86,39,8,3,3
51,13,44,25,66,78,14,7,4
51.005,4,37,106,65,94,17,8,6
51.01,2,30,62,114,53,5,0,3
51.015,1,28,2,68,53,6,1,2
51.02,4,42,103,33,8,1,1,1
51.025,7,26,40,2,15,10,7,9
51.03,3,32,40,56,2,11,7,6
51.035,2,53,10,34,6,4,2,2
51.04,1,9,77,38,29,2,0,1
51.045,21,51,127,43,37,2,6,11
51.05,30,60,128,5,26,7,9,14
51.055,6,31,1,25,25,2,0,2
51.06,5,52,83,94,13,4,3,2
51.065,2,37,101,53,68,12,5,2
51.07,5,14,36,18,43,5,3,4
51.075,1,15,13,31,27,6,3,3
51.08,5,9,81,84,38,7,4,5
51.085,2,14,50,58,28,9,6,2
51.09,1,3,74,22,15,6,4,0
51.095,3,19,73,34,28,8,3,3
51.1,6,11,104,44,30,8,3,4
51.105,0,13,59,17,17,7,4,4
51.11,1,2,9,7,1,1,1,3
51.115,1,12,18,19,16,0,3,5
51.12,8,11,43,65,37,8,6,0
51.125,2,12,86,28,7,0,0,2
51.13,2,5,54,13,14,4,3,4
51.135,3,2,17,57,12,1,0,2
51.14,10,71,79,82,11,2,2,6
51.145,3,11,37,26,13,2,3,1
51.15,3,16,30,36,6,3,2,3
51.155,2,19,27,89,16,5,6,4
51.16,5,31,16,85,34,6,2,2
51.165,5,4,8,29,27,6,3,3
51.17,4,21,15,35,7,1,1,3
51.175,2,2,35,34,7,1,1,1
51.18,5,7,7,12,1,3,3,3
51.185,3,16,28,31,5,4,5,5
51.19,6,12,4,5,3,4,3,3
51.195,6,14,49,37,9,0,2,3
51.2,1,3,42,3,5,2,0,1
51.205,2,2,2,11,14,3,0,3
51.21,1,5,13,9,3,4,4,1
51.215,4,16,3,1,1,2,1,1
51.22,2,4,4,18,4,3,2,0
51.225,1,2,13,18,1,2,0,4
51.23,1,1,11,1,1,2,0,5
51.235,4,17,22,15,3,1,2,4
51.24,3,13,27,9,10,2,0,2
51.245,1,1,7,18,5,3,0,2
51.25,2,4,14,7,2,2,2,3
51.255,0,1,12,15,3,1,2,2
51.26,1,6,14,1,4,1,1,0
51.265,1,3,2,9,8,0,2,1
51.27,2,3,20,6,7,1,1,3
51.275,2,0,3,19,9,2,2,2
51.28,1,2,1,16,1,3,2,0
51.285,2,6,9,5,2,3,1,1
51.29,1,2,1,3,0,1,1,2
51.295,2,0,19,3,3,1,2,0
51.3,1,3,34,4,2,0,0,1
51.305,2,2,2,8,5,4,3,2
51.31,2,2,18,4,0,1,1,2
51.315,3,3,7,2,2,1,1,1
51.32,1,0,11,6,4,3,2,3
51.325,1,0,1,6,0,1,0,0
51.33,2,0,6,6,3,2,0,2
51.335,2,6,18,5,2,0,0,1
51.34,0,0,0,4,1,2,1,1
51.345,2,3,6,4,3,1,1,2
51.35,1,3,6,4,3,2,1,1
51.355,1,0,1,0,2,0,0,1
51.36,2,2,6,5,2,0,1,3
51.365,2,1,9,2,1,3,0,2
51.37,1,4,6,5,2,1,2,1
51.375,0,2,2,3,2,1,0,1
51.38,2,0,1,4,0,1,2,1
51.385,1,1,7,2,0,1,2,1
51.39,0,2,0,1,1,1,1,0
51.395,1,5,7,3,3,4,2,0
51.4,1,2,6,12,2,2,0,1
51.405,1,1,2,4,0,3,0,4
51.41,1,4,3,7,1,2,1,1
51.415,1,1,1,0,1,0,0,1
51.42,2,3,1,1,3,1,2,0
51.425,1,0,3,1,1,0,1,0
51.43,1,2,5,10,4,2,3,1
51.435,1,2,9,12,4,2,1,2
51.44,1,2,5,4,6,3,3,1
51.445,1,1,0,10,5,2,1,0
51.45,1,3,15,3,5,5,2,1
51.455,1,2,16,2,2,1,1,0
51.46,1,3,11,6,5,1,2,2
51.465,2,1,5,18,8,0,1,2
51.47,0,4,7,13,10,1,1,3
51.475,0,6,0,0,1,1,1,2
51.48,2,3,9,9,3,1,0,1
51.485,0,1,5,4,1,2,1,0
51.49,1,0,9,10,1,1,1,1
51.495,2,3,7,5,2,2,1,1
51.5,0,1,3,5,1,0,0,2
51.505,0,1,1,3,0,0,3,1
51.51,2,2,8,17,3,3,2,5
51.515,0,5,10,3,1,4,2,4
51.52,0,1,8,6,1,2,0,0
51.525,0,1,6,11,6,1,1,0
51.53,1,2,20,26,3,1,0,1
51.535,2,3,60,38,2,2,2,1
51.54,2,5,30,3,2,1,2,0
51.545,1,1,2,13,1,1,3,4
51.55,2,1,21,3,0,1,1,3
51.555,1,5,4,9,2,1,0,1
51.56,1,1,54,10,2,2,1,4
51.565,5,5,86,43,1,1,1,1
51.57,5,8,107,43,3,3,3,6
51.575,3,2,39,3,3,4,6,4
51.58,0,3,62,42,4,0,2,3
51.585,2,8,97,60,4,2,1,2
51.59,3,5,4,35,4,2,1,1
51.595,1,7,59,13,6,1,3,9
51.6,6,0,5,18,3,6,4,8
51.605,2,3,49,33,5,3,4,3
51.61,2,6,0,7,2,0,1,4
51.615,3,9,42,14,0,3,3,0
51.62,6,10,27,21,9,2,2,1
51.625,3,2,37,7,4,1,0,3
51.63,0,12,67,17,4,1,0,1
51.635,2,8,56,43,6,3,3,1
51.64,2,15,64,48,7,1,1,4
51.645,2,8,84,28,2,0,1,2
51.65,1,5,36,1,0,2,2,2
51.655,0,9,102,79,3,3,4,1
51.66,5,7,5,56,3,4,3,1
51.665,2,18,67,10,3,0,1,4
51.67,7,28,63,38,2,3,2,2
51.675,3,15,127,81,2,1,3,4
51.68,4,9,44,28,2,2,2,3
51.685,4,6,73,1,6,2,1,5
51.69,1,28,60,15,6,4,4,5
51.695,4,0,21,23,0,2,3,3
51.7,1,17,52,20,3,4,2,0
51.705,13,30,43,20,9,6,6,8
51.71,3,7,24,48,35,6,3,3
51.715,13,49,63,10,32,1,0,10
51.72,18,48,58,46,44,4,1,13
51.725,0,17,38,40,15,2,2,3
51.73,11,36,78,63,12,2,5,5
51.735,10,70,76,33,18,3,1,0
51.74,2,1,85,13,13,0,2,2
51.745,20,48,44,31,18,1,7,9
51.75,12,76,97,37,26,3,2,1
51.755,22,66,31,25,29,4,6,7
51.76,1,8,3,85,3,3,3,1
51.765,1,3,61,15,39,1,4,4
51.77,3,5,48,42,48,2,2,2
51.775,4,18,59,61,52,10,5,2
51.78,9,39,18,75,71,8,2,5
51.785,13,69,74,47,11,2,2,5
51.79,8,25,105,23,7,2,1,2
51.795,0,3,56,63,2,6,4,5
51.8,2,28,78,5,9,2,0,2
51.805,1,13,11,34,9,1,0,0
51.81,0,20,2,64,49,9,3,2
51.815,8,5,97,96,4,5,1,5
51.82,10,82,41,67,60,5,1,3
51.825,1,12,69,102,56,8,2,1
51.83,2,38,99,36,44,9,2,1
51.835,1,10,97,67,37,6,2,0
51.84,3,3,57,79,22,1,2,2
51.845,9,4,127,34,7,4,3,4
51.85,14,6,38,18,15,9,5,6
51.855,9,13,54,24,8,2,2,5
51.86,3,11,64,112,23,4,3,4
51.865,4,3,32,103,9,2,3,4
51.87,3,8,43,65,3,2,1,1
51.875,0,9,1,36,14,5,1,0
51.88,8,7,67,56,1,1,1,5
51.885,1,12,17,16,13,3,3,4
51.89,7,3,36,13,10,4,7,6
51.895,6,11,103,37,24,8,7,5
51.9,9,4,39,38,16,0,3,7
51.905,3,7,67,57,6,3,3,6
51.91,0,20,22,14,32,7,4,0
51.915,10,13,35,7,29,13,9,6
51.92,4,24,5,10,9,7,4,3
51.925,1,4,38,20,11,3,1,2
51.93,0,17,45,16,14,2,1,1
51.935,5,7,4,5,2,5,4,3
51.94,1,7,18,2,10,4,0,2
51.945,3,3,26,7,1,3,4,3
51.95,0,1,20,16,5,1,0,0
51.955,3,8,16,29,1,2,3,4
51.96,6,18,48,26,9,3,3,3
51.965,2,2,32,13,6,3,0,4
51.97,1,13,22,21,2,0,2,5
51.975,3,5,12,31,8,2,3,3
51.98,1,2,12,8,5,2,2,1
51.985,1,3,14,5,1,3,0,4
51.99,0,1,5,4,0,1,1,2
51.995,1,4,6,21,2,0,0,0
52,3,0,39,18,2,2,1,2
52.005,1,2,9,5,0,4,2,1
52.01,2,10,18,1,5,1,2,3
52.015,0,4,10,19,4,1,2,0
52.02,4,6,21,2,2,0,3,4
52.025,1,2,9,27,4,3,0,1
52.03,1,3,6,4,7,3,1,1
52.035,3,1,1,6,1,2,1,0
52.04,1,1,3,1,6,2,1,2
52.045,1,3,1,6,0,0,1,2
52.05,2,1,4,3,3,1,1,3
52.055,0,4,0,4,7,1,3,2
52.06,2,1,6,6,1,1,2,3
52.065,1,2,0,1,1,2,0,2
52.07,3,0,2,2,1,1,2,0
52.075,3,2,3,1,3,3,1,0
52.08,1,2,0,0,2,2,1,2
52.085,1,2,3,2,1,2,1,0
52.09,1,2,1,0,3,1,1,0
52.095,1,4,24,2,1,0,1,1
52.1,1,1,18,3,1,0,0,1
52.105,0,2,14,1,2,2,2,0
52.11,1,1,3,0,4,3,2,3
52.115,3,3,4,2,2,1,2,1
52.12,2,2,3,5,2,1,1,3
52.125,3,2,16,13,8,3,1,2
52.13,3,3,5,21,13,5,2,1
52.135,1,2,16,18,6,0,2,1
52.14,2,3,9,5,5,3,2,3
52.145,2,7,8,1,4,0,1,2
52.15,4,7,28,18,10,4,1,0
52.155,1,0,0,5,8,3,0,0
52.16,1,2,2,13,9,2,1,3
52.165,1,2,6,0,5,1,4,3
52.17,1,2,0,10,1,2,2,1
52.175,1,2,1,5,3,0,1,2
52.18,0,4,1,7,1,1,3,0
52.185,2,3,6,3,5,3,1,4
52.19,0,1,8,5,4,3,1,7
52.195,4,0,11,1,2,2,0,4
52.2,1,4,25,8,1,0,2,0
52.205,1,1,10,1,1,2,2,0
52.21,2,2,3,4,2,0,1,5
52.215,1,3,11,2,0,5,1,2
52.22,1,1,1,5,1,0,2,1
52.225,0,3,15,10,2,1,2,1
52.23,2,3,14,8,3,0,3,4
52.235,0,1,23,13,3,0,1,1
52.24,2,1,13,7,6,2,2,4
52.245,0,6,8,21,5,4,2,0
52.25,1,0,1,3,9,1,1,1
52.255,2,3,7,10,3,1,2,0
52.26,4,1,4,4,5,1,1,2
52.265,0,1,1,11,4,0,0,1
52.27,3,2,15,45,1,5,3,3
52.275,1,1,8,0,4,3,1,1
52.28,0,2,9,21,6,0,1,2
52.285,2,1,42,12,4,2,3,0
52.29,1,5,27,12,0,0,1,2
52.295,0,1,2,2,0,0,1,1
52.3,1,1,2,16,0,1,1,4
52.305,4,2,5,16,5,5,2,4
52.31,6,1,3,27,9,6,5,5
52.315,1,9,70,16,11,1,0,1
52.32,1,5,14,5,2,2,1,1
52.325,0,0,15,17,1,2,1,1
52.33,2,3,10,22,10,0,2,1
52.335,2,3,25,19,6,2,3,0
52.34,0,2,17,10,3,1,0,1
52.345,4,4,15,7,6,3,2,4
52.35,3,2,11,17,9,2,1,3
52.355,1,1,6,16,8,4,3,0
52.36,4,3,16,0,8,2,1,4
52.365,3,3,24,18,9,6,4,4
52.37,2,6,60,89,3,2,1,3
52.375,6,2,40,85,12,0,3,7
52.38,2,3,99,30,1,1,1,1
52.385,6,5,6,67,12,5,6,6
52.39,1,7,29,43,7,0,0,2
52.395,5,1,99,89,0,9,5,8
52.4,11,14,73,76,12,15,10,10
52.405,2,8,31,3,0,3,3,3
52.41,4,17,113,95,9,2,2,2
52.415,2,19,107,111,20,8,3,4
52.42,16,7,61,29,2,2,2,10
52.425,5,14,50,31,13,8,5,4
52.43,8,17,20,33,3,4,4,2
52.435,1,9,96,12,1,3,1,1
52.44,3,13,128,128,8,2,0,7
52.445,7,16,75,116,15,4,1,11
52.45,7,7,48,51,4,0,3,6
52.455,2,8,61,56,5,3,5,2
52.46,10,13,56,7,11,9,8,4
52.465,5,8,41,83,13,6,2,5
52.47,4,20,32,64,8,1,1,8
52.475,0,13,68,38,3,3,1,7
52.48,3,3,0,77,14,6,5,2
52.485,5,3,28,90,5,3,4,7
52.49,2,3,11,40,0,2,1,4
52.495,2,4,45,3,1,0,2,7
52.5,2,18,22,3,3,4,3,2
52.505,3,15,30,5,13,1,3,1
52.51,5,35,96,38,14,4,2,2
52.515,8,25,50,21,10,7,5,4
52.52,10,17,28,6,5,10,10,8
52.525,0,5,60,89,4,6,5,7
52.53,3,15,37,13,0,1,0,9
52.535,4,5,113,34,7,3,3,9
52.54,6,33,94,50,17,9,5,1
52.545,7,5,8,14,4,1,1,4
52.55,9,26,64,13,8,9,6,4
52.555,18,15,52,63,0,7,4,7
52.56,15,11,36,89,2,3,4,12
52.565,7,1,28,5,29,6,4,3
52.57,10,16,14,30,23,11,7,1
52.575,11,13,100,96,2,9,8,1
52.58,1,22,93,34,4,6,4,4
52.585,1,7,3,23,9,1,3,3
52.59,1,20,75,53,6,2,2,0
52.595,10,43,0,12,36,9,3,4
52.6,4,71,122,57,41,14,3,2
52.605,0,5,94,11,18,1,2,4
52.61,7,14,44,1,7,10,8,5
52.615,6,24,76,45,7,2,0,2
52.62,4,11,52,81,26,3,2,4
52.625,6,15,37,2,4,1,0,3
52.63,3,20,50,27,9,8,2,1
52.635,8,39,42,30,7,3,1,5
52.64,3,13,16,49,21,5,2,1
52.645,1,7,127,70,9,2,0,5
52.65,5,15,104,34,16,9,4,9
52.655,4,5,17,87,13,5,3,5
52.66,8,15,99,85,11,7,8,8
52.665,4,17,56,40,62,5,3,7
52.67,5,32,27,2,25,2,3,18
52.675,13,11,47,82,2,10,7,5
52.68,10,0,1,56,2,4,3,0
52.685,43,23,49,30,36,21,15,26
52.69,32,13,50,24,24,7,6,28
52.695,0,11,9,43,4,4,1,14
52.7,17,21,11,40,0,1,5,22
52.705,9,9,21,16,16,16,15,18
52.71,8,4,52,27,5,1,0,6
52.715,3,5,49,13,8,3,4,3
52.72,21,22,77,111,7,0,1,7
52.725,30,5,14,50,9,9,5,8
52.73,1,4,74,18,2,7,4,2
52.735,9,61,15,100,22,5,5,8
52.74,8,31,41,88,14,4,3,3
52.745,16,26,85,35,19,1,2,12
52.75,11,22,84,85,8,1,9,19
52.755,10,50,53,48,3,5,4,4
52.76,18,19,44,11,18,8,3,4
52.765,14,19,32,3,1,7,3,8
52.77,8,69,72,7,6,5,2,5
52.775,14,43,23,33,5,2,5,2
52.78,12,13,64,73,2,1,1,3
52.785,25,21,18,45,7,2,2,13
52.79,51,8,19,25,14,4,4,22
52.795,5,25,38,34,7,3,5,0
52.8,8,13,35,5,10,3,3,13
52.805,6,6,62,48,10,4,2,12
52.81,1,7,67,26,12,5,0,10
52.815,12,21,18,6,6,4,4,5
52.82,24,29,29,51,6,1,6,9
52.825,2,5,7,41,7,9,5,7
52.83,12,13,27,22,8,1,1,7
52.835,2,9,1,8,14,5,4,5
52.84,1,20,36,7,6,3,1,2
52.845,3,5,2,6,2,3,3,3
52.85,2,6,10,10,9,5,3,1
52.855,3,2,16,19,11,4,3,0
52.86,8,5,29,10,1,0,0,1
52.865,2,5,25,2,1,0,1,0
52.87,3,7,11,3,3,4,0,0
52.875,1,6,11,49,6,3,5,5
52.88,0,5,32,40,7,1,0,1
52.885,3,2,0,1,10,4,3,2
52.89,3,5,11,39,3,1,1,1
52.895,3,1,12,2,3,3,0,3
52.9,0,1,8,16,2,1,0,3
52.905,1,5,26,20,7,0,3,1
52.91,4,4,19,14,9,4,1,0
52.915,3,10,76,24,5,1,1,2
52.92,3,0,9,17,14,7,2,3
52.925,0,2,13,21,4,0,1,2
52.93,1,2,4,5,2,2,1,2
52.935,4,1,4,11,3,2,3,4
52.94,2,2,1,3,0,2,1,3
52.945,2,2,18,21,5,4,2,2
52.95,1,1,2,3,3,0,0,2
52.955,4,4,14,1,3,1,3,0
52.96,2,1,13,1,0,0,0,1
52.965,1,6,14,14,3,0,1,4
52.97,1,3,0,1,2,1,1,0
52.975,0,1,10,9,2,2,1,2
52.98,3,2,0,4,3,2,2,4
52.985,2,1,9,11,1,1,1,1
52.99,0,3,2,5,0,1,1,2
52.995,0,3,13,2,2,2,1,3
53,1,3,0,6,0,1,2,1
53.005,1,1,3,4,3,1,0,5
53.01,2,3,4,11,0,4,3,0
53.015,0,0,14,9,5,2,0,1
53.02,0,1,17,25,0,0,1,0
53.025,1,0,19,12,2,1,3,2
53.03,1,4,0,28,9,2,2,4
53.035,1,2,6,5,7,6,3,3
53.04,1,1,17,0,3,4,2,0
53.045,2,2,4,4,3,0,2,1
53.05,0,2,5,17,2,0,0,1
53.055,4,3,4,12,1,1,0,1
53.06,2,3,10,4,6,4,2,0
53.065,1,1,12,4,2,3,2,0
53.07,1,0,2,6,5,2,0,2
53.075,1,4,16,10,2,1,3,3
53.08,3,4,2,6,1,2,0,2
53.085,2,4,1,3,3,2,0,1
53.09,0,1,2,4,0,1,1,2
53.095,0,0,3,12,1,0,1,0
53.1,3,1,2,8,1,3,4,1
53.105,0,1,3,5,1,1,1,1
53.11,1,0,2,3,2,0,0,2
53.115,1,3,7,4,1,2,4,2
53.12,1,1,2,5,1,0,2,2
53.125,3,2,8,7,2,0,1,2
53.13,1,1,2,20,6,0,1,0
53.135,1,2,1,2,4,3,2,1
53.14,0,2,6,5,1,1,2,3
53.145,2,2,25,3,1,1,0,2
53.15,2,2,5,10,4,3,2,1
53.155,4,2,7,2,2,2,0,0
53.16,1,2,6,3,1,1,0,0
53.165,1,0,19,0,0,0,0,0
53.17,0,1,32,2,1,0,2,2
53.175,3,5,13,8,3,1,1,2
53.18,1,0,33,12,2,1,1,3
53.185,5,5,33,2,0,1,3,0
53.19,2,1,5,19,0,2,1,3
53.195,3,0,13,3,0,1,1,3
53.2,1,1,3,9,1,1,0,3
53.205,1,2,31,19,4,1,1,4
53.21,2,4,25,26,2,1,0,2
53.215,2,5,59,64,5,3,1,3
53.22,1,1,39,47,9,3,2,2
53.225,3,0,22,19,6,8,5,3
53.23,7,11,66,1,0,2,0,9
53.235,6,23,65,32,7,6,3,7
53.24,2,6,30,40,4,4,0,7
53.245,8,3,105,32,9,7,4,26
53.25,0,0,18,32,8,1,7,4
53.255,10,12,29,19,1,2,9,1
53.26,1,4,38,51,2,1,1,6
53.265,13,8,4,41,1,1,1,10
53.27,28,15,2,17,9,7,5,9
53.275,12,11,60,43,7,2,7,2
53.28,12,18,66,18,7,8,1,1
53.285,2,4,34,90,5,2,3,11
53.29,2,4,124,38,12,9,10,5
53.295,12,16,12,44,3,5,2,14
53.3,11,6,69,5,17,15,9,11
53.305,56,66,73,27,7,4,20,50
53.31,8,83,12,30,12,7,32,23
53.315,17,14,65,6,3,5,5,18
53.32,4,37,81,108,22,18,0,4
53.325,3,29,66,24,3,0,9,10
53.33,13,18,30,79,8,10,15,23
53.335,5,25,72,35,14,4,3,1
53.34,3,92,46,57,27,3,6,1
53.345,18,13,114,64,26,13,11,10
53.35,22,33,41,2,11,2,6,15
53.355,10,37,5,20,33,6,9,1
53.36,3,2,36,10,55,7,4,20
53.365,5,51,2,52,3,0,0,0
53.37,4,3,39,81,37,2,3,1
53.375,1,22,19,100,6,10,6,3
53.38,9,55,54,17,31,13,10,15
53.385,12,21,4,78,0,5,8,11
53.39,14,86,9,30,15,6,1,8
53.395,5,16,18,56,15,6,5,9
53.4,3,7,6,13,12,2,2,2
53.405,7,24,76,38,2,1,1,13
53.41,8,18,77,79,19,0,2,7
53.415,6,12,66,127,10,1,2,1
53.42,0,5,37,47,1,3,0,4
53.425,2,3,22,7,2,1,1,1
53.43,0,5,13,17,8,0,0,0
53.435,9,6,11,13,3,3,3,4
53.44,2,3,13,12,1,1,1,2
53.445,0,2,24,8,2,2,3,0
53.45,3,5,24,6,5,1,0,1
53.455,1,2,12,25,2,1,3,1
53.46,4,5,20,30,2,3,4,3
53.465,0,2,4,3,1,2,1,2
53.47,1,0,9,6,2,0,1,2
53.475,4,1,7,3,2,1,0,2
53.48,2,3,1,17,3,0,1,0
53.485,1,2,16,18,2,2,1,2
53.49,5,5,39,7,4,3,3,3
53.495,0,4,10,14,0,0,3,1
53.5,0,3,10,4,2,2,1,2
53.505,1,1,5,1,1,3,1,1
53.51,0,1,10,3,1,0,1,3
53.515,2,3,20,7,5,2,2,2
53.52,0,1,34,4,2,2,0,1
53.525,4,4,24,4,1,1,1,6
53.53,0,2,16,5,2,0,1,6
53.535,1,4,7,11,1,2,2,0
53.54,3,3,0,6,1,1,3,2
53.545,1,3,14,16,5,1,1,1
53.55,2,1,2,6,9,2,2,3
53.555,0,0,23,16,2,1,2,1
53.56,1,5,12,1,2,3,0,1
53.565,1,2,1,6,6,2,0,1
53.57,0,0,5,7,2,1,2,0
53.575,2,1,12,1,3,0,2,1
53.58,1,4,9,5,5,2,2,5
53.585,2,5,46,4,0,1,2,4
53.59,0,1,1,10,3,1,0,1
53.595,0,5,68,28,4,2,0,1
53.6,3,6,11,33,7,2,0,3
53.605,1,4,60,34,2,2,3,3
53.61,3,1,8,4,4,1,2,5
53.615,3,6,36,28,3,2,2,1
53.62,2,2,62,28,4,8,6,2
53.625,0,2,19,16,3,1,1,5
53.63,1,2,13,8,1,1,4,1
53.635,5,13,79,16,8,3,2,4
53.64,4,2,44,0,7,5,5,3
53.645,1,0,5,54,1,1,0,1
53.65,4,6,10,58,4,2,4,4
53.655,6,10,2,57,14,10,7,8
53.66,3,5,33,7,0,1,0,4
53.665,3,2,48,47,4,1,0,2
53.67,9,3,40,72,8,1,2,4
53.675,8,10,43,9,4,5,5,2
53.68,4,11,24,11,5,2,3,8
53.685,4,12,54,18,6,4,2,4
53.69,1,7,69,82,13,0,2,5
53.695,12,14,100,41,1,3,2,3
53.7,2,7,8,27,11,0,1,2
53.705,7,6,66,66,8,4,2,9
53.71,4,6,71,35,10,9,7,5
53.715,5,5,30,29,8,12,9,4
53.72,1,7,22,16,23,11,5,6
53.725,8,7,27,25,5,3,6,4
53.73,5,34,2,10,14,2,1,3
53.735,2,29,20,66,11,0,1,1
53.74,3,32,99,22,7,0,0,4
53.745,11,47,20,26,19,8,7,6
53.75,8,39,64,23,29,2,4,5
53.755,4,67,24,76,7,0,0,3
53.76,6,48,108,56,12,16,13,12
53.765,3,34,58,118,23,0,0,2
53.77,3,1,29,60,31,4,2,1
53.775,6,4,9,64,20,1,1,9
53.78,4,7,0,57,49,9,4,12
53.785,15,26,43,1,61,14,11,12
53.79,9,22,79,29,23,6,6,5
53.795,1,15,97,24,4,1,1,4
53.8,8,1,31,36,1,6,5,7
53.805,15,15,3,7,13,11,6,10
53.81,26,69,60,29,24,14,10,16
53.815,8,37,13,48,9,6,1,0
53.82,9,61,84,3,9,2,3,5
53.825,3,2,42,52,9,1,2,2
53.83,3,6,2,43,8,4,6,8
53.835,1,11,27,5,37,7,2,8
53.84,1,19,35,5,16,2,1,3
53.845,1,9,56,20,9,4,4,4
53.85,4,26,127,12,19,6,5,1
53.855,21,69,85,26,11,10,11,12
53.86,1,34,10,65,18,5,0,1
53.865,3,4,0,12,4,4,4,1
53.87,1,5,6,0,2,4,4,2
53.875,6,20,34,21,11,2,3,1
53.88,4,20,47,20,7,0,2,1
53.885,4,3,8,43,14,7,5,4
53.89,2,54,24,60,28,6,2,1
53.895,3,38,55,34,9,0,0,2
53.9,0,1,24,14,11,3,2,3
53.905,4,8,44,68,8,5,5,6
53.91,7,10,30,32,3,2,2,3
53.915,4,3,2,10,11,0,0,2
53.92,3,0,59,19,7,1,1,4
53.925,1,18,11,1,0,3,3,1
53.93,0,12,68,9,12,1,2,7
53.935,12,56,20,54,24,9,7,2
53.94,1,29,73,24,5,0,1,3
53.945,2,23,24,34,3,1,3,3
53.95,4,19,61,47,4,2,3,0
53.955,1,12,15,5,9,1,0,2
53.96,1,7,13,24,13,4,2,1
53.965,1,4,16,27,5,1,0,5
53.97,11,38,42,6,8,1,3,2
53.975,2,2,2,6,2,2,0,2
53.98,4,10,49,44,1,4,4,1
53.985,1,3,24,17,5,1,0,2
53.99,1,12,18,27,5,3,1,4
53.995,2,9,6,28,2,2,1,2
54,3,11,15,4,10,5,3,2
54.005,2,2,1,25,12,5,3,1
54.01,0,3,2,6,5,2,2,1
54.015,0,1,20,8,6,2,1,3
54.02,1,7,26,8,1,1,2,4
54.025,2,2,0,10,8,3,0,0
54.03,1,6,26,2,4,2,2,1
54.035,3,4,4,4,0,1,2,0
54.04,2,11,30,46,9,1,1,2
54.045,1,3,6,19,2,1,2,1
54.05,0,6,9,26,0,2,0,0
54.055,0,7,1,29,1,1,0,2
54.06,6,14,24,30,3,4,4,3
54.065,1,3,9,9,1,0,2,0
54.07,0,6,4,2,3,0,1,0
54.075,1,1,7,6,2,2,2,1
54.08,2,9,14,8,7,2,2,2
54.085,0,6,4,11,2,3,2,0
54.09,0,3,7,32,4,1,1,0
54.095,3,3,18,10,3,2,0,1
54.1,3,5,4,9,5,3,4,5
54.105,1,2,1,6,3,1,1,6
54.11,1,6,27,16,1,3,1,1
54.115,4,9,43,1,4,1,0,2
54.12,1,2,8,4,0,1,2,1
54.125,1,3,23,11,7,2,0,1
54.13,2,3,1,7,3,1,0,0
54.135,2,1,20,1,1,1,3,0
54.14,0,1,30,6,0,1,1,0
54.145,4,1,6,1,2,1,1,0
54.15,1,0,0,0,1,3,1,2
54.155,4,2,1,2,4,2,0,5
54.16,1,1,22,9,4,3,2,4
54.165,2,4,66,29,5,0,1,2
54.17,1,1,24,11,0,2,0,1
54.175,2,4,26,18,4,2,3,4
54.18,1,0,12,10,1,1,3,1
54.185,2,4,10,13,6,1,1,2
54.19,1,1,6,23,3,0,0,2
54.195,0,2,2,2,2,2,2,2
54.2,1,3,9,3,0,0,1,1
54.205,5,11,35,22,3,4,6,5
54.21,6,10,69,57,13,2,6,8
54.215,9,8,71,117,20,8,7,9
54.22,4,5,101,119,45,9,6,6
54.225,1,4,44,34,6,1,0,1
54.23,3,9,27,10,9,3,0,2
54.235,1,2,0,38,22,3,2,0
54.24,2,6,12,6,3,1,2,1
54.245,2,2,0,10,7,1,1,2
54.25,0,4,10,5,15,1,2,3
54.255,1,4,8,7,5,2,0,2
54.26,4,3,8,13,4,1,1,2
54.265,0,4,2,22,2,0,1,2
54.27,0,4,16,14,1,1,1,1
54.275,2,5,7,6,9,5,2,0
54.28,1,2,6,0,2,2,1,1
54.285,0,2,12,17,0,1,1,0
54.29,1,1,0,5,5,1,1,1
54.295,0,0,3,10,2,0,1,1
54.3,4,7,2,5,3,2,1,1
54.305,1,2,6,15,2,2,1,0
54.31,0,1,0,8,4,2,1,1
54.315,2,4,4,11,3,2,3,2
54.32,1,2,6,1,9,2,2,1
54.325,1,1,9,1,1,1,1,0
54.33,4,2,4,3,6,2,2,4
54.335,5,4,1,8,0,1,2,8
54.34,1,1,4,4,2,3,2,3
54.345,1,3,10,0,6,1,1,0
54.35,1,1,9,3,2,1,1,4
54.355,4,6,4,1,2,1,0,3
54.36,2,0,3,5,5,0,1,1
54.365,1,1,3,4,8,3,2,1
54.37,1,1,8,4,6,1,0,1
54.375,0,2,20,1,4,0,1,3
54.38,0,5,2,1,2,2,1,0
54.385,2,2,3,1,1,1,0,1
54.39,0,2,4,3,5,0,1,1
54.395,1,1,3,5,0,1,0,3
54.4,1,1,18,13,4,0,1,1
54.405,0,1,2,14,1,1,0,0
54.41,0,2,4,8,5,3,2,0
54.415,3,1,9,3,3,3,3,2
54.42,2,1,10,0,1,1,0,2
54.425,1,2,7,1,3,1,3,1
54.43,0,1,7,1,0,0,2,4
54.435,1,5,0,5,5,4,5,5
54.44,1,2,9,10,0,2,4,2
54.445,0,0,22,22,8,0,1,0
54.45,1,3,16,10,13,3,3,1
54.455,7,1,52,57,2,6,5,7
54.46,2,10,52,4,5,4,1,0
54.465,4,13,97,38,7,2,0,2
54.47,14,21,67,44,20,10,8,9
54.475,3,7,20,20,9,4,3,3
54.48,2,5,15,37,3,2,1,5
54.485,7,4,20,45,2,5,3,2
54.49,6,9,10,43,0,5,5,4
54.495,4,7,5,34,5,2,5,5
54.5,1,2,19,49,7,2,1,1
54.505,6,9,11,38,1,2,3,2
54.51,8,11,17,19,6,5,5,8
54.515,2,1,8,29,21,4,0,0
54.52,6,8,35,62,60,2,3,4
54.525,1,9,23,60,63,6,1,1
54.53,8,6,25,15,1,0,2,4
54.535,3,12,3,3,19,2,2,2
54.54,9,28,11,14,2,5,5,4
54.545,8,4,24,31,29,5,5,5
54.55,2,2,50,28,35,5,1,0
54.555,3,1,85,19,3,1,2,2
54.56,4,18,58,34,11,4,2,5
54.565,6,16,3,3,15,1,2,6
54.57,6,12,29,74,6,4,3,2
54.575,9,6,107,18,9,6,5,4
54.58,4,45,20,45,2,1,2,0
54.585,1,7,69,72,13,3,1,1
54.59,1,9,18,4,4,1,1,1
54.595,0,2,7,26,9,2,1,1
54.6,0,6,21,16,2,2,1,1
54.605,5,19,23,10,14,4,4,3
54.61,0,1,18,11,9,3,3,1
54.615,0,1,12,14,8,0,1,3
54.62,1,4,6,7,1,1,1,1
54.625,3,6,39,9,3,0,1,0
54.63,5,11,76,16,9,4,2,3
54.635,2,3,3,7,1,1,2,3
54.64,1,2,13,6,2,1,2,1
54.645,0,3,2,13,3,1,2,0
54.65,1,0,11,6,6,3,1,3
54.655,1,0,1,5,1,1,0,0
54.66,0,3,8,8,7,2,2,1
54.665,3,2,26,8,2,1,1,1
54.67,2,6,56,5,0,0,1,1
54.675,1,2,33,10,1,3,1,1
54.68,1,1,12,9,6,2,0,3
54.685,3,2,18,11,4,0,0,1
54.69,0,5,2,3,1,2,2,4
54.695,1,1,14,8,1,1,0,1
54.7,1,2,21,7,2,0,1,0
54.705,0,0,62,0,2,0,1,3
54.71,5,12,81,11,2,6,4,0
54.715,2,2,30,1,1,0,1,1
54.72,1,5,47,6,2,1,1,1
54.725,2,3,9,31,4,0,1,0
54.73,2,9,83,30,7,0,0,1
54.735,0,2,40,3,0,2,2,1
54.74,3,6,5,27,9,2,1,1
54.745,2,0,23,3,5,4,2,5
54.75,1,1,20,1,6,3,1,0
54.755,0,4,18,12,4,0,3,2
54.76,6,6,52,6,4,4,3,5
54.765,1,14,79,15,8,0,2,2
54.77,1,16,104,4,8,1,1,2
54.775,2,2,13,14,2,1,2,1
54.78,4,0,3,32,3,2,1,0
54.785,2,4,10,1,1,1,0,1
54.79,1,11,57,16,20,3,2,5
54.795,0,4,10,9,20,4,2,1
54.8,3,0,7,4,10,1,0,2
54.805,3,1,5,2,1,4,2,0
54.81,1,1,11,11,4,1,3,2
54.815,0,3,5,3,1,2,1,1
54.82,1,1,1,5,3,3,1,2
54.825,1,4,14,11,31,5,2,0
54.83,3,1,13,15,7,2,3,2
54.835,1,2,2,17,2,1,0,1
54.84,0,4,3,1,4,3,1,1
54.845,2,0,2,17,14,2,1,2
54.85,1,3,2,11,1,1,1,1
54.855,1,4,13,1,4,2,2,2
54.86,3,8,19,2,4,0,1,2
54.865,3,3,26,3,3,2,3,1
54.87,1,2,8,10,0,2,1,1
54.875,2,3,2,1,2,2,0,4
54.88,1,0,6,3,1,1,3,2
54.885,1,4,9,0,6,4,2,2
54.89,1,2,19,1,0,2,2,0
54.895,2,11,43,17,3,3,2,0
54.9,2,4,8,5,2,1,1,1
54.905,1,4,0,8,0,2,2,2
54.91,2,3,5,0,0,2,2,1
54.915,1,2,4,2,3,1,1,1
54.92,1,2,8,14,1,0,0,2
54.925,1,4,21,12,3,4,4,0
54.93,1,2,27,7,2,1,1,1
54.935,2,2,10,10,6,3,2,3
54.94,4,1,29,7,1,1,0,4
54.945,1,2,50,2,0,0,0,1
54.95,1,2,22,26,1,1,1,1
54.955,6,2,27,34,1,1,2,5
54.96,0,2,15,7,2,3,1,1
54.965,2,3,41,10,2,0,0,1
54.97,2,3,9,2,6,2,2,1
54.975,1,4,62,11,1,0,1,0
54.98,1,5,19,10,3,1,0,0
54.985,1,5,27,17,7,4,2,4
54.99,2,3,15,1,2,1,0,1
54.995,2,0,4,17,0,3,1,1
55,1,2,37,21,0,2,3,4
55.005,2,1,58,6,2,1,1,3
55.01,1,2,59,36,2,2,1,1
55.015,1,5,32,42,1,3,1,0
55.02,1,2,1,19,2,0,2,3
55.025,0,3,10,15,1,0,2,0
55.03,0,1,22,7,5,2,1,2
55.035,1,1,20,24,3,2,0,0
55.04,3,9,17,6,10,5,3,4
55.045,0,1,7,19,13,6,1,0
55.05,4,6,22,30,2,4,4,4
55.055,0,2,32,9,1,1,2,2
55.06,3,7,37,30,1,3,1,5
55.065,1,0,23,21,4,3,1,1
55.07,0,2,2,10,2,4,3,1
55.075,1,2,10,3,1,0,2,2
55.08,6,8,74,26,1,0,1,1
55.085,1,3,10,14,4,2,0,2
55.09,1,1,26,6,2,2,1,1
55.095,1,4,21,3,6,3,1,1
55.1,2,3,17,14,0,1,1,2
55.105,1,1,26,61,10,5,2,3
55.11,8,14,7,24,13,6,5,5
55.115,2,5,56,51,31,7,2,2
55.12,7,8,109,12,19,4,8,7
55.125,16,32,39,15,1,12,10,10
55.13,18,17,96,0,4,15,11,9
55.135,5,20,15,18,12,1,5,3
55.14,8,20,49,28,14,5,6,6
55.145,0,12,89,106,2,3,0,2
55.15,7,4,65,48,6,3,3,5
55.155,5,7,3,82,22,5,2,2
55.16,6,5,23,16,47,2,3,2
55.165,11,11,3,97,20,3,6,9
55.17,4,24,65,39,12,3,3,4
55.175,3,15,5,3,12,0,1,3
55.18,2,4,9,8,7,2,1,1
55.185,4,7,19,25,6,0,0,3
55.19,3,18,50,27,25,2,2,2
55.195,3,4,33,53,10,1,1,0
55.2,3,3,67,78,1,4,1,4
55.205,2,13,10,13,24,6,0,2
55.21,4,16,51,19,11,2,1,2
55.215,2,15,9,25,2,3,3,2
55.22,4,7,20,15,2,3,5,3
55.225,8,7,12,0,36,6,5,4
55.23,4,19,47,82,6,2,2,1
55.235,8,18,13,29,12,11,7,9
55.24,4,13,15,10,4,3,1,2
55.245,3,0,14,39,16,5,2,2
55.25,3,3,45,28,3,0,2,3
55.255,6,3,46,41,5,3,2,5
55.26,7,19,24,5,5,3,3,5
55.265,1,6,17,22,16,3,0,1
55.27,5,5,3,15,5,6,3,5
55.275,3,2,55,20,3,2,2,3
55.28,1,11,1,0,14,6,1,1
55.285,5,19,18,7,13,4,2,0
55.29,0,0,43,34,7,0,2,1
55.295,2,2,31,6,0,3,0,2
55.3,0,1,14,12,8,1,1,2
55.305,1,4,6,23,3,0,1,0
55.31,1,5,9,16,3,1,3,2
55.315,1,5,19,13,2,2,1,2
55.32,2,4,16,4,4,1,1,2
55.325,1,1,16,20,1,2,0,1
55.33,3,6,7,21,8,5,4,2
55.335,1,2,2,14,2,2,1,0
55.34,2,4,10,8,8,0,0,3
55.345,1,7,3,12,9,2,4,2
55.35,2,1,3,30,1,1,1,2
55.355,2,2,18,35,3,2,1,2
55.36,1,4,7,12,3,1,0,1
55.365,0,1,2,8,5,1,1,2
55.37,0,1,5,2,2,2,0,1
55.375,1,2,15,20,2,0,0,1
55.38,4,4,25,4,6,3,4,2
55.385,0,0,2,1,8,5,0,0
55.39,1,0,3,13,2,3,1,3
55.395,1,1,9,3,4,2,4,2
55.4,2,4,25,9,4,3,2,2
55.405,0,2,5,6,6,3,1,1
55.41,1,0,17,7,3,1,1,4
55.415,3,0,18,3,0,1,1,5
55.42,1,1,10,19,13,1,1,2
55.425,1,2,13,12,10,3,1,1
55.43,2,1,1,1,4,2,1,3
55.435,2,4,7,5,2,2,0,4
55.44,0,2,9,7,4,1,0,1
55.445,2,1,10,1,1,1,1,1
55.45,1,1,7,6,1,1,2,1
55.455,1,5,1,6,1,2,3,0
55.46,2,1,9,5,2,1,1,1
55.465,2,4,3,0,0,1,1,3
55.47,2,0,7,3,1,1,3,1
55.475,1,2,3,2,2,2,3,0
55.48,1,2,3,0,3,3,2,2
55.485,0,5,1,4,5,3,0,2
55.49,3,1,5,5,0,1,0,1
55.495,1,1,2,0,1,0,0,1
55.5,0,1,2,3,4,1,1,1
55.505,0,0,29,2,7,3,2,1
55.51,1,3,16,7,5,1,2,2
55.515,2,2,24,11,6,2,3,0
55.52,3,8,23,14,11,4,2,3
55.525,0,5,38,7,2,1,2,0
55.53,1,4,28,5,6,3,2,4
55.535,1,0,19,2,1,3,3,2
55.54,0,1,2,2,0,0,1,2
55.545,2,1,7,1,0,0,0,1
55.55,4,0,1,2,3,0,1,1
55.555,3,5,17,5,3,3,1,3
55.56,1,0,0,0,0,0,2,3
55.565,3,4,23,7,3,1,3,0
55.57,3,1,1,1,1,0,1,1
55.575,1,1,12,1,0,0,2,2
55.58,2,2,1,1,2,3,2,0
55.585,0,1,7,2,0,0,1,0
55.59,1,1,3,3,5,3,1,3
55.595,3,0,3,2,3,2,1,2
55.6,1,2,3,2,3,1,1,2
55.605,2,2,10,4,0,0,1,2
55.61,3,1,1,2,3,1,3,1
55.615,3,2,7,6,4,3,1,4
55.62,0,1,27,1,1,2,1,2
55.625,2,1,11,5,1,1,1,2
55.63,2,1,10,3,0,0,0,0
55.635,1,4,5,3,3,3,0,3
55.64,0,1,3,5,1,0,1,1
55.645,1,0,6,10,7,3,2,1
55.65,1,2,4,7,8,0,0,0
55.655,2,7,35,13,2,2,4,1
55.66,1,1,18,7,3,1,1,2
55.665,3,12,57,6,24,6,1,2
55.67,3,1,36,8,6,1,2,2
55.675,1,3,23,66,3,4,1,0
55.68,4,7,38,13,8,7,2,1
55.685,3,15,16,1,1,0,0,1
55.69,2,0,14,0,2,1,1,0
55.695,0,8,37,43,16,2,0,3
55.7,0,4,30,11,15,1,1,2
55.705,2,4,43,26,5,7,4,4
55.71,9,19,85,16,4,2,4,7
55.715,6,22,78,9,0,1,3,4
55.72,1,19,56,10,3,1,0,0
55.725,4,0,42,17,6,5,3,7
55.73,1,13,67,22,12,2,2,1
55.735,1,10,52,19,4,2,0,1
55.74,3,11,11,34,3,1,2,1
55.745,0,11,11,30,14,5,3,3
55.75,1,3,51,24,18,4,2,3
55.755,8,36,99,18,16,4,6,5
55.76,3,11,32,23,10,3,2,3
55.765,3,2,72,23,7,2,0,0
55.77,1,3,5,33,29,4,1,0
55.775,7,14,26,0,4,3,5,5
55.78,6,9,14,0,1,6,5,4
55.785,2,14,26,5,1,2,1,1
55.79,1,9,2,17,11,4,2,1
55.795,2,2,33,9,3,2,1,0
55.8,3,12,52,23,0,1,1,3
55.805,0,7,6,29,1,0,0,1
55.81,3,27,76,66,21,3,1,2
55.815,3,19,43,20,9,1,2,1
55.82,9,15,23,33,9,6,5,8
55.825,8,9,22,57,0,4,5,7
55.83,10,19,40,69,9,6,7,7
55.835,1,22,2,39,33,6,3,3
55.84,4,20,43,37,32,4,2,1
55.845,1,6,87,36,1,3,2,0
55.85,0,6,11,8,11,2,1,1
55.855,3,2,78,46,22,2,3,4
55.86,2,22,17,70,33,5,2,3
55.865,9,16,41,45,20,5,4,6
55.87,6,13,20,58,3,2,4,4
55.875,10,17,69,2,6,3,5,6
55.88,2,5,37,18,8,1,1,1
55.885,2,10,24,1,3,2,3,2
55.89,3,23,55,17,6,1,2,1
55.895,3,12,79,14,19,5,3,4
55.9,3,4,34,29,32,2,1,2
55.905,2,1,23,11,3,1,1,0
55.91,1,8,53,39,7,0,0,2
55.915,4,3,16,19,19,7,5,3
55.92,5,12,21,2,0,9,5,4
55.925,1,2,8,15,4,2,1,1
55.93,5,9,36,37,5,1,2,2
55.935,1,2,10,5,3,3,0,2
55.94,1,2,5,3,0,4,1,2
55.945,0,3,4,14,3,3,2,0
55.95,1,1,2,0,5,1,1,1
55.955,1,1,8,1,0,0,2,0
55.96,1,1,6,5,0,0,3,1
55.965,0,1,6,6,5,1,1,0
55.97,2,2,16,5,3,0,2,1
55.975,0,0,23,3,3,2,1,1
55.98,2,2,10,4,4,2,1,1
55.985,1,1,11,6,1,1,2,2
55.99,1,2,2,4,4,3,1,2
55.995,0,0,3,1,1,1,1,1
56,0,1,8,2,1,0,1,0
56.005,2,6,12,5,3,0,0,1
56.01,3,0,4,4,0,2,0,3
56.015,3,3,21,11,3,0,0,2
56.02,0,3,64,19,5,1,1,1
56.025,3,5,16,1,5,3,1,2
56.03,1,1,8,0,1,0,3,2
56.035,2,2,5,5,1,1,3,1
56.04,1,2,13,11,0,1,2,1
56.045,3,4,13,13,2,3,1,3
56.05,1,1,10,0,1,0,1,2
56.055,1,4,19,28,4,1,2,0
56.06,0,2,16,12,5,1,2,1
56.065,7,43,47,8,19,2,3,3
56.07,3,23,4,88,15,4,1,2
56.075,6,44,24,20,8,2,1,0
56.08,1,6,35,26,4,6,5,1
56.085,2,2,43,22,2,2,2,4
56.09,2,25,50,39,21,2,1,1
56.095,6,1,70,24,8,6,4,6
56.1,6,19,30,46,6,4,2,1
56.105,1,7,42,24,12,6,4,5
56.11,8,14,64,42,13,7,5,4
56.115,4,3,93,72,40,14,7,4
56.12,10,12,32,37,32,17,8,4
56.125,5,5,93,8,8,2,3,3
56.13,1,23,1,2,14,5,3,1
56.135,3,13,2,5,29,5,2,1
56.14,4,4,53,1,22,4,3,3
56.145,5,17,43,14,12,5,4,5
56.15,3,3,8,9,20,2,5,4
56.155,6,10,10,24,10,5,6,3
56.16,1,1,20,39,7,5,2,0
56.165,2,7,9,5,17,2,1,2
56.17,2,4,3,31,5,3,3,1
56.175,3,5,10,1,15,3,3,2
56.18,2,3,10,61,3,5,4,5
56.185,3,6,68,10,2,2,0,1
56.19,1,8,1,9,22,2,1,1
56.195,2,2,1,7,1,1,1,2
56.2,2,2,2,55,9,1,2,0
56.205,1,5,12,25,15,1,1,2
56.21,1,7,14,29,5,4,1,0
56.215,2,5,2,9,11,4,2,2
56.22,1,4,35,46,13,4,2,0
56.225,0,1,14,0,5,1,0,1
56.23,2,3,11,57,6,0,1,1
56.235,2,4,6,23,3,4,3,2
56.24,1,2,17,15,12,3,1,2
56.245,2,1,16,3,9,0,0,4
56.25,2,2,14,10,1,1,0,1
56.255,3,6,0,8,5,3,3,1
56.26,1,1,15,9,1,0,2,1
56.265,1,0,2,5,3,0,1,1
56.27,0,1,3,20,3,3,2,0
56.275,2,1,17,6,5,1,1,2
56.28,0,0,13,4,1,1,0,1
56.285,1,2,3,7,5,4,2,4
56.29,2,2,6,2,4,0,1,1
56.295,3,7,44,5,1,1,1,1
56.3,1,1,10,16,5,1,1,0
56.305,0,2,41,8,3,1,0,0
56.31,3,5,15,1,2,2,2,2
56.315,1,0,9,7,0,2,1,2
56.32,1,6,24,1,10,3,1,2
56.325,2,2,7,8,6,2,1,0
56.33,2,1,0,12,1,1,2,1
56.335,1,2,7,11,2,0,0,0
56.34,0,0,8,4,4,2,2,1
56.345,1,0,3,8,0,2,1,1
56.35,1,0,2,1,0,1,1,1
56.355,4,4,4,1,2,2,3,4
56.36,1,1,1,3,1,3,2,2
56.365,1,2,16,3,2,1,3,2
56.37,1,9,37,3,1,2,2,2
56.375,5,10,17,3,3,4,2,4
56.38,2,3,13,1,2,2,1,4
56.385,1,2,2,7,1,2,2,2
56.39,0,1,5,19,2,1,1,1
56.395,1,4,19,20,3,1,0,0
56.4,3,4,3,11,0,3,1,3
56.405,0,1,1,6,2,1,0,0
56.41,1,6,24,13,0,2,0,1
56.415,1,3,13,4,10,3,1,0
56.42,2,4,35,4,11,1,3,1
56.425,1,2,5,1,1,1,0,0
56.43,2,2,12,1,1,1,1,1
56.435,1,3,0,6,10,3,2,1
56.44,1,4,4,13,6,0,1,2
56.445,3,7,25,23,1,4,4,4
56.45,4,3,11,2,4,3,3,1
56.455,1,2,3,4,2,2,1,0
56.46,1,3,5,1,8,1,1,0
56.465,1,0,11,18,5,1,1,1
56.47,2,1,3,36,3,0,2,0
56.475,2,2,3,29,6,0,1,3
56.48,2,2,7,1,7,2,1,2
56.485,2,1,16,0,4,2,1,0
56.49,1,4,13,1,6,0,3,1
56.495,0,2,2,19,5,1,1,0
56.5,0,1,7,11,3,1,1,1
56.505,2,4,12,1,2,3,1,3
56.51,1,0,23,18,5,3,1,1
56.515,1,0,8,7,1,1,1,1
56.52,1,1,9,10,0,2,1,2
56.525,0,0,0,14,2,2,0,2
56.53,0,3,0,2,2,3,2,3
56.535,0,0,7,8,8,0,2,1
56.54,1,0,5,1,8,1,2,2
56.545,0,1,18,8,1,0,2,2
56.55,2,3,3,11,4,3,1,3
56.555,1,3,3,4,0,0,0,1
56.56,1,1,2,1,1,2,2,3
56.565,3,1,17,7,0,0,1,0
56.57,2,1,12,0,1,0,0,1
56.575,1,2,7,0,1,1,1,0
56.58,1,1,1,5,1,1,0,1
56.585,1,7,18,0,4,2,1,2
56.59,2,7,45,9,3,3,4,3
56.595,0,2,2,13,3,2,1,2
56.6,0,3,21,1,6,2,2,2
56.605,1,0,7,10,7,1,1,0
56.61,2,8,44,6,3,2,1,0
56.615,7,8,21,0,7,6,5,6
56.62,0,1,25,11,0,2,2,0
56.625,1,3,37,44,6,0,1,2
56.63,2,3,29,18,7,0,2,2
56.635,2,2,5,11,3,1,2,4
56.64,3,8,8,2,7,4,2,0
56.645,6,13,46,2,10,5,4,6
56.65,4,3,10,27,0,4,3,4
56.655,3,0,31,8,3,0,2,5
56.66,15,37,59,4,19,10,8,9
56.665,21,49,83,5,15,14,14,11
56.67,6,13,89,83,7,5,8,0
56.675,7,8,15,43,1,7,6,5
56.68,3,4,51,56,10,7,1,9
56.685,1,32,102,41,3,2,1,3
56.69,13,43,78,56,1,6,6,9
56.695,21,64,30,7,22,14,11,12
56.7,2,16,52,34,21,4,3,4
56.705,1,25,29,6,9,3,3,0
56.71,5,10,2,39,2,3,3,1
56.715,3,21,42,7,15,8,0,0
56.72,8,50,33,25,19,7,2,4
56.725,3,3,43,47,4,1,1,0
56.73,4,2,77,53,5,2,2,3
56.735,3,8,56,71,7,3,1,2
56.74,1,5,18,27,25,2,1,1
56.745,0,6,73,18,41,6,1,2
56.75,0,13,3,19,27,5,2,1
56.755,0,5,15,1,7,3,0,1
56.76,8,2,12,7,2,5,7,7
56.765,6,15,27,14,24,4,1,8
56.77,9,17,28,49,25,0,3,6
56.775,0,4,86,31,8,2,1,0
56.78,7,1,28,34,10,5,5,3
56.785,16,26,68,22,4,10,8,13
56.79,3,17,93,27,4,0,1,3
56.795,3,3,93,68,5,4,3,1
56.8,3,3,44,15,14,1,0,0
56.805,6,18,75,22,19,6,4,2
56.81,0,8,40,48,13,1,1,1
56.815,3,2,19,29,18,8,4,5
56.82,0,6,4,17,23,1,1,2
56.825,1,1,9,42,20,3,1,0
56.83,2,7,22,86,2,4,3,3
56.835,6,3,56,13,3,1,1,6
56.84,2,1,17,31,8,1,2,5
56.845,1,1,42,2,8,5,3,4
56.85,6,10,48,7,3,3,3,1
56.855,4,3,18,18,3,0,2,0
56.86,0,8,26,19,3,2,0,1
56.865,1,6,14,18,6,1,3,3
56.87,1,1,4,48,7,3,0,0
56.875,1,7,20,39,9,1,3,1
56.88,2,1,1,7,0,1,0,0
56.885,0,0,11,19,0,4,2,0
56.89,2,6,14,18,7,0,1,2
56.895,1,9,34,5,6,1,2,0
56.9,1,3,1,12,4,2,2,1
56.905,1,3,24,37,0,3,1,1
56.91,1,4,11,44,3,1,1,0
56.915,1,1,0,11,6,2,1,0
56.92,0,1,3,5,2,0,0,1
56.925,1,2,7,13,8,2,1,2
56.93,1,3,3,12,11,3,4,1
56.935,1,1,8,4,1,0,0,1
56.94,1,4,11,2,3,1,3,2
56.945,1,2,4,11,1,2,1,2
56.95,1,1,4,1,3,1,1,2
56.955,1,2,1,2,6,3,2,2
56.96,2,3,1,10,1,0,1,3
56.965,1,1,12,6,4,2,0,0
56.97,0,3,21,9,2,2,4,0
56.975,2,6,0,10,2,4,1,3
56.98,1,0,7,1,4,0,1,2
56.985,2,3,7,5,6,4,3,4
56.99,1,1,7,6,1,1,0,3
56.995,1,1,37,13,1,0,0,1
57,1,6,37,16,2,6,4,1
57.005,2,1,13,11,2,3,1,0
57.01,3,2,0,4,1,2,4,2
57.015,1,0,5,3,3,0,0,1
57.02,0,2,3,5,0,1,1,2
57.025,1,1,12,2,2,1,3,0
57.03,2,2,6,2,5,2,0,2
57.035,0,1,20,7,4,2,1,0
57.04,2,0,13,5,1,2,1,1
57.045,0,0,7,4,2,2,1,3
57.05,2,1,0,4,4,1,0,0
57.055,2,2,8,3,1,1,0,2
57.06,0,1,0,1,1,3,0,0
57.065,2,0,2,2,2,4,2,2
57.07,1,2,2,2,1,1,1,1
57.075,2,2,9,1,4,1,4,1
57.08,2,1,8,0,0,1,1,1
57.085,0,1,7,4,3,1,1,4
57.09,1,1,4,5,2,1,1,2
57.095,1,2,2,6,1,1,1,1
57.1,0,0,22,17,1,0,1,3
57.105,1,0,26,7,2,2,1,0
57.11,3,9,6,14,8,3,3,3
57.115,0,4,25,8,0,2,0,3
57.12,1,0,12,2,1,3,1,1
57.125,2,1,13,2,3,1,2,1
57.13,0,0,2,2,2,0,1,1
57.135,0,1,10,1,4,0,1,1
57.14,1,1,7,0,0,2,1,0
57.145,0,2,9,4,1,2,1,1
57.15,1,1,2,3,1,1,0,0
57.155,3,3,3,2,5,3,2,3
57.16,1,1,11,7,13,2,1,1
57.165,1,2,7,2,2,2,3,2
57.17,0,1,0,2,3,0,0,0
57.175,0,1,3,1,2,0,0,1
57.18,1,1,4,4,5,1,2,3
57.185,2,0,4,1,1,0,0,0
57.19,0,0,0,1,4,1,1,1
57.195,1,2,4,3,3,2,0,2
57.2,2,0,3,5,3,2,1,2
57.205,0,3,0,1,2,1,2,0
57.21,2,0,1,1,3,1,1,1
57.215,0,3,6,5,3,1,2,2
57.22,1,2,5,7,0,1,0,3
57.225,1,2,11,1,2,3,3,0
57.23,0,2,17,4,0,1,2,3
57.235,1,2,3,3,2,2,1,1
57.24,2,1,11,1,5,1,0,4
57.245,2,2,3,2,0,1,1,2
57.25,1,2,21,1,0,0,1,1
57.255,1,3,19,3,3,3,3,1
57.26,2,2,4,1,2,2,1,2
57.265,0,2,11,5,3,2,1,0
57.27,1,6,8,0,1,2,2,1
57.275,1,1,5,1,1,1,0,1
57.28,1,0,11,6,4,0,1,1
57.285,1,3,16,1,1,2,0,1
57.29,1,1,2,3,3,1,2,1
57.295,1,3,1,3,2,3,1,2
57.3,0,0,1,1,6,0,1,0
57.305,2,2,25,0,1,0,1,1
57.31,0,4,36,10,0,2,0,2
57.315,3,5,37,19,1,1,3,1
57.32,2,3,4,4,4,1,0,2
57.325,0,2,34,22,5,1,1,0
57.33,1,1,15,6,2,2,1,0
57.335,2,4,17,10,3,2,2,2
57.34,4,5,40,8,7,2,2,0
57.345,2,4,11,15,4,0,0,3
57.35,1,1,22,16,1,4,0,3
57.355,4,9,100,42,5,6,4,6
57.36,1,4,9,1,4,0,1,1
57.365,2,2,45,31,1,2,2,1
57.37,3,8,16,40,7,3,4,5
57.375,1,1,26,22,0,1,0,2
57.38,0,2,15,5,4,0,0,2
57.385,1,0,8,3,3,4,2,0
57.39,1,4,35,19,1,1,2,0
57.395,1,2,6,3,7,2,3,1
57.4,4,10,41,13,5,1,1,0
57.405,3,2,2,33,10,6,2,0
57.41,1,3,56,34,7,3,4,2
57.415,13,35,66,91,17,11,8,10
57.42,1,10,46,12,7,4,4,0
57.425,1,13,15,28,1,1,2,2
57.43,3,13,6,18,2,2,1,2
57.435,4,11,56,14,6,1,2,0
57.44,12,17,38,23,4,16,11,8
57.445,6,3,12,10,2,6,5,5
57.45,4,7,81,1,13,7,3,1
57.455,4,20,78,24,40,9,0,2
57.46,3,14,34,35,18,5,0,0
57.465,0,16,14,13,5,3,2,3
57.47,6,38,128,1,13,6,5,4
57.475,5,15,11,49,2,3,3,2
57.48,1,6,68,105,20,3,0,1
57.485,4,20,6,16,24,4,2,1
57.49,2,2,114,2,7,2,1,2
57.495,6,36,56,28,3,5,4,3
57.5,2,41,13,38,5,1,2,2
57.505,6,55,25,3,27,5,3,2
57.51,7,4,2,63,12,1,3,5
57.515,5,3,89,28,5,3,3,6
57.52,4,31,52,3,20,3,3,3
57.525,1,32,50,50,6,5,3,1
57.53,15,41,32,51,13,4,4,10
57.535,1,41,2,21,18,6,5,2
57.54,5,32,54,42,4,2,1,1
57.545,10,11,51,25,30,12,6,5
57.55,5,23,78,38,18,2,2,11
57.555,12,23,9,8,9,5,4,5
57.56,19,4,32,6,19,7,6,9
57.565,16,27,23,36,20,8,5,22
57.57,7,0,48,33,14,5,6,12
57.575,1,52,33,53,1,2,3,3
57.58,32,74,66,34,16,7,7,17
57.585,5,1,5,72,31,8,2,5
57.59,1,26,7,31,14,1,3,5
57.595,27,25,96,46,41,12,7,9
57.6,11,26,13,51,2,2,1,2
57.605,11,9,2,18,13,4,5,16
57.61,2,14,2,10,3,0,2,3
57.615,8,1,59,39,5,1,2,9
57.62,3,59,58,51,4,6,4,3
57.625,3,12,28,46,13,2,0,3
57.63,14,28,33,15,1,7,5,5
57.635,4,7,1,6,15,0,1,2
57.64,15,42,35,2,12,1,1,1
57.645,10,18,67,2,31,0,3,5
57.65,0,6,3,18,0,2,1,2
57.655,0,16,14,2,5,2,1,0
57.66,2,5,18,3,9,2,4,0
57.665,2,7,44,13,25,6,4,4
57.67,2,13,22,21,2,1,0,1
57.675,5,3,13,22,16,6,3,1
57.68,5,20,34,18,40,8,4,5
57.685,1,9,7,2,8,0,0,1
57.69,3,11,18,40,10,8,5,3
57.695,6,4,6,22,11,3,2,4
57.7,5,16,28,14,3,5,2,1
57.705,3,8,24,8,3,1,4,2
57.71,3,6,10,9,5,1,1,1
57.715,1,5,8,12,6,1,2,3
57.72,4,10,20,7,6,1,0,1
57.725,1,2,1,38,1,1,1,1
57.73,4,2,5,20,7,3,3,2
57.735,3,2,24,14,12,4,2,1
57.74,1,4,2,11,2,0,1,2
57.745,4,1,10,5,11,2,1,2
57.75,0,2,3,14,2,2,2,0
57.755,3,3,20,2,6,2,2,4
57.76,2,3,15,1,1,0,1,1
57.765,1,2,0,6,8,4,0,0
57.77,1,1,7,6,11,5,2,0
57.775,2,2,5,2,7,1,1,0
57.78,3,3,14,2,5,3,0,1
57.785,0,0,16,2,0,2,0,1
57.79,5,2,34,1,3,3,2,5
57.795,1,6,13,8,1,0,0,6
57.8,2,0,7,4,5,2,1,1
57.805,0,2,0,4,1,0,2,1
57.81,1,2,16,11,1,0,2,1
57.815,2,2,12,3,9,5,4,2
57.82,0,2,11,1,9,1,0,1
57.825,3,2,1,0,6,2,3,3
57.83,0,0,3,3,3,1,1,1
57.835,1,1,18,9,1,1,1,1
57.84,0,4,5,9,7,4,1,0
57.845,0,3,15,10,2,0,0,6
57.85,1,0,11,1,4,0,1,3
57.855,2,1,10,5,0,3,1,3
57.86,4,2,13,1,2,3,1,0
57.865,1,4,6,1,1,0,0,2
57.87,0,1,3,5,5,1,2,1
57.875,1,0,2,3,2,2,1,3
57.88,2,1,5,1,3,1,1,2
57.885,1,1,16,3,0,2,3,1
57.89,3,6,26,10,4,0,0,1
57.895,0,0,0,2,4,2,2,0
57.9,1,0,17,1,6,1,0,2
57.905,4,8,36,59,10,6,6,6
57.91,1,11,81,65,47,13,8,5
57.915,4,7,46,56,61,13,4,4
57.92,6,5,46,19,24,10,4,6
57.925,0,1,5,17,9,5,3,1
57.93,0,12,28,14,16,3,3,1
57.935,3,15,18,11,27,5,3,5
57.94,3,6,13,21,23,2,2,3
57.945,3,2,18,27,5,5,2,3
57.95,2,9,9,18,24,5,1,5
57.955,3,13,0,52,0,2,2,0
57.96,2,7,31,27,3,1,1,1
57.965,3,2,69,24,7,2,1,3
57.97,0,3,52,9,13,3,1,1
57.975,0,1,12,18,10,1,2,1
57.98,2,2,4,7,19,4,3,1
57.985,5,4,13,38,5,8,5,5
57.99,1,1,0,22,15,1,1,1
57.995,3,7,20,4,3,1,1,0
58,1,2,5,6,6,1,2,1
58.005,0,1,3,9,2,1,2,2
58.01,3,2,7,4,15,6,2,4
58.015,1,10,13,32,6,2,1,1
58.02,2,4,5,1,5,1,0,1
58.025,0,0,1,1,10,3,2,2
58.03,1,3,2,14,2,1,1,0
58.035,1,2,7,1,2,2,2,0
58.04,0,2,7,26,5,2,0,0
58.045,0,0,16,3,9,5,3,0
58.05,1,5,6,2,7,4,4,1
58.055,1,3,1,11,0,1,2,3
58.06,1,3,5,6,4,2,1,3
58.065,0,4,5,4,5,1,2,1
58.07,3,4,34,2,1,0,0,1
58.075,2,8,59,19,17,1,0,3
58.08,0,3,6,11,7,3,1,1
58.085,1,2,0,25,4,3,2,2
58.09,0,2,43,14,3,2,0,2
58.095,1,1,10,26,5,2,0,2
58.1,0,3,27,10,8,2,1,0
58.105,1,3,14,19,13,2,0,0
58.11,1,1,20,8,9,0,1,0
58.115,3,7,32,13,3,2,2,1
58.12,3,4,54,10,9,6,5,2
58.125,0,4,41,32,6,0,0,1
58.13,0,5,19,36,3,0,3,1
58.135,6,10,10,14,8,8,5,0
58.14,1,8,73,33,6,3,1,1
58.145,1,48,100,58,6,1,0,0
58.15,4,25,39,10,2,2,3,2
58.155,1,21,20,34,6,4,2,1
58.16,1,3,54,3,30,4,1,2
58.165,3,2,14,25,3,3,3,0
58.17,4,3,26,57,8,3,1,3
58.175,9,35,7,49,23,11,8,5
58.18,3,9,16,4,10,0,2,0
58.185,3,24,24,68,12,3,2,1
58.19,2,7,17,9,7,1,1,1
58.195,2,2,96,19,7,0,1,1
58.2,2,15,34,6,4,2,3,2
58.205,2,9,2,5,7,1,1,0
58.21,4,5,3,16,3,1,1,4
58.215,0,7,3,11,0,1,3,1
58.22,1,4,5,2,9,3,2,3
58.225,0,3,7,31,1,1,0,2
58.23,6,11,31,31,7,3,3,5
58.235,1,1,11,0,2,0,0,1
58.24,0,2,4,4,5,5,1,1
58.245,2,6,6,3,2,0,0,1
58.25,0,1,2,1,1,0,0,1
58.255,1,2,1,5,0,1,1,2
58.26,1,0,0,0,1,1,0,1
58.265,2,0,0,8,1,0,1,2
58.27,1,2,3,1,0,0,0,3
58.275,1,0,1,3,1,2,1,2
58.28,0,2,5,4,2,2,0,2
58.285,2,0,1,2,3,2,0,1
58.29,1,0,2,0,3,0,0,2
58.295,0,1,1,2,5,1,0,1
58.3,0,1,2,0,9,1,1,2
58.305,1,1,0,1,3,0,1,4
58.31,1,2,9,6,3,1,2,2
58.315,1,3,13,2,4,0,0,1
58.32,1,3,7,5,2,3,0,3
58.325,3,1,17,2,1,1,1,4
58.33,2,4,3,0,7,4,3,1
58.335,1,3,5,7,1,2,1,0
58.34,4,5,1,7,5,3,2,2
58.345,0,4,13,3,2,0,0,6
58.35,1,3,19,12,1,2,2,1
58.355,0,4,35,12,2,2,0,2
58.36,1,1,30,2,3,2,2,4
58.365,2,1,12,4,2,0,0,1
58.37,0,4,8,32,5,1,2,3
58.375,4,2,18,23,2,2,2,3
58.38,1,1,35,12,1,0,1,0
58.385,5,5,29,9,5,4,4,11
58.39,2,2,45,13,4,2,1,7
58.395,1,2,7,13,2,4,1,1
58.4,3,3,5,31,1,1,0,1
58.405,3,3,24,7,2,6,3,1
58.41,3,0,9,2,3,2,0,4
58.415,5,1,48,5,4,3,1,3
58.42,3,0,6,29,4,0,1,0
58.425,1,5,9,30,6,0,1,1
58.43,3,1,36,1,1,2,2,5
58.435,1,1,43,44,6,1,0,6
58.44,4,1,49,43,1,3,3,4
58.445,0,2,6,3,1,0,1,1
58.45,2,1,45,5,3,2,1,0
58.455,1,0,25,8,2,1,1,3
58.46,0,1,8,10,3,2,1,0
58.465,0,3,2,4,3,2,0,1
58.47,1,1,21,12,2,3,1,3
58.475,0,3,15,3,9,3,1,0
58.48,1,2,8,1,3,0,1,2
58.485,1,1,9,1,1,0,0,1
58.49,1,3,13,9,2,3,2,1
58.495,0,0,8,4,1,2,0,1
58.5,4,0,5,11,3,2,2,7
58.505,1,1,5,17,1,1,1,9
58.51,3,4,0,0,2,2,3,1
58.515,1,2,6,14,1,1,0,0
58.52,2,7,59,40,4,1,1,2
58.525,7,10,1,11,6,4,4,8
58.53,1,1,49,13,4,2,0,1
58.535,0,1,42,4,1,1,2,3
58.54,1,2,15,4,4,1,3,3
58.545,3,4,100,11,4,2,2,3
58.55,1,1,74,8,14,5,3,2
58.555,0,11,32,5,32,9,2,3
58.56,4,8,73,45,0,2,1,0
58.565,3,4,50,8,18,5,2,0
58.57,3,3,27,17,2,2,3,4
58.575,1,7,1,2,6,1,3,4
58.58,4,24,36,11,2,4,3,2
58.585,2,34,13,7,26,11,6,3
58.59,0,11,15,42,21,3,0,0
58.595,1,4,18,30,24,3,1,0
58.6,0,4,34,58,17,0,1,0
58.605,7,2,5,21,3,1,3,7
58.61,2,8,4,18,16,1,3,0
58.615,3,7,28,75,19,7,3,2
58.62,4,2,19,53,19,8,1,2
58.625,4,7,85,24,5,1,1,2
58.63,1,6,37,25,14,1,1,1
58.635,1,7,14,39,4,0,3,2
58.64,1,5,14,58,9,1,3,1
58.645,1,9,1,22,8,0,1,0
58.65,3,1,1,1,2,3,3,4
58.655,2,2,9,8,14,2,0,1
58.66,4,2,9,3,7,1,2,1
58.665,6,1,2,4,5,4,4,4
58.67,1,6,14,18,7,1,1,1
58.675,1,3,12,24,2,2,4,1
58.68,0,4,11,0,15,5,4,1
58.685,1,3,15,20,8,1,1,3
58.69,3,14,40,8,1,1,1,3
58.695,3,3,1,29,2,5,3,2
58.7,5,10,6,28,2,1,1,1
58.705,2,1,24,58,9,5,7,4
58.71,1,8,2,26,3,1,0,1
58.715,1,1,29,13,1,1,1,1
58.72,0,3,34,7,44,7,3,2
58.725,11,32,51,72,4,7,5,7
58.73,1,14,23,17,6,2,0,3
58.735,9,19,80,24,6,4,2,5
58.74,2,10,34,23,37,6,0,3
58.745,7,28,33,39,49,13,8,5
58.75,3,23,12,37,18,2,2,1
58.755,1,16,71,4,7,0,3,0
58.76,4,14,42,67,31,9,6,4
58.765,4,30,117,74,15,3,0,1
58.77,4,18,53,21,19,7,4,2
58.775,1,6,100,5,23,1,2,3
58.78,5,1,66,33,40,0,2,3
58.785,0,13,5,31,2,1,3,1
58.79,2,6,53,45,43,12,7,3
58.795,2,17,47,19,40,7,1,1
58.8,6,16,17,10,32,9,6,7
58.805,1,11,5,11,6,1,0,0
58.81,2,12,48,6,13,2,1,1
58.815,6,26,6,9,15,0,1,2
58.82,1,15,64,36,5,0,1,4
58.825,2,7,3,23,7,1,1,2
58.83,1,5,10,21,1,1,0,3
58.835,1,1,12,11,8,3,2,3
58.84,3,8,60,0,4,1,2,3
58.845,1,10,5,10,4,1,2,2
58.85,3,14,54,6,4,2,4,1
58.855,1,10,19,15,4,4,2,3
58.86,3,0,32,18,0,2,2,4
58.865,2,6,0,16,1,2,1,1
58.87,2,0,17,3,6,1,0,1
58.875,2,1,20,2,1,3,3,1
58.88,0,3,30,5,6,0,2,3
58.885,2,0,13,2,4,1,2,0
58.89,3,3,13,13,3,2,1,2
58.895,2,1,5,9,6,1,1,0
58.9,0,2,25,26,6,0,0,0
58.905,0,5,1,3,7,1,2,1
58.91,3,7,8,9,1,3,1,6
58.915,3,3,2,3,8,1,2,2
58.92,1,3,19,7,2,0,1,1
58.925,2,1,10,5,2,0,1,2
58.93,2,0,10,15,2,3,3,1
58.935,1,2,2,6,1,0,0,1
58.94,1,1,7,2,0,0,2,1
58.945,3,3,3,10,2,0,0,1
58.95,1,2,4,0,1,1,1,1
58.955,1,1,1,14,1,2,2,0
58.96,0,1,18,5,1,0,1,0
58.965,4,1,4,4,5,4,4,3
58.97,0,1,4,3,0,1,1,2
58.975,0,4,23,3,1,0,3,1
58.98,0,4,2,7,1,1,0,3
58.985,2,4,8,7,0,1,1,2
58.99,0,0,5,7,1,2,1,1
58.995,2,0,9,3,1,2,3,1
59,0,0,6,1,1,1,4,2
59.005,0,0,5,0,3,1,0,2
59.01,1,4,6,5,3,1,2,0
59.015,7,12,15,13,7,3,2,3
59.02,2,4,1,6,4,1,2,2
59.025,2,4,1,10,4,1,1,3
59.03,3,3,7,7,1,3,0,4
59.035,3,6,3,12,0,3,1,2
59.04,4,3,8,8,2,0,6,1
59.045,4,8,33,10,2,0,0,2
59.05,0,3,20,11,5,1,2,2
59.055,2,2,15,0,10,2,0,2
59.06,2,6,24,3,4,3,1,1
59.065,2,4,25,7,1,3,2,1
59.07,4,7,15,7,5,3,3,1
59.075,2,6,62,7,4,1,1,6
59.08,0,1,57,34,14,4,2,4
59.085,2,0,10,14,25,6,2,1
59.09,1,7,12,15,7,5,2,2
59.095,0,2,6,3,4,0,0,0
59.1,2,1,7,6,2,2,0,1
59.105,1,1,20,20,7,3,0,2
59.11,2,2,10,26,0,2,1,0
59.115,1,3,14,1,5,1,2,2
59.12,1,1,7,8,1,0,1,3
59.125,4,1,4,0,4,0,0,4
59.13,2,3,6,7,3,0,2,0
59.135,2,0,25,9,4,2,2,4
59.14,2,2,2,2,2,0,3,2
59.145,1,1,12,5,3,1,1,2
59.15,4,1,8,4,3,2,0,1
59.155,1,8,87,29,6,2,2,1
59.16,1,2,33,4,0,1,0,3
59.165,1,2,13,17,5,3,4,3
59.17,0,3,15,6,3,2,2,0
59.175,14,10,36,1,19,7,10,10
59.18,10,9,105,46,0,2,3,4
59.185,14,24,10,68,25,13,10,15
59.19,1,6,50,32,2,4,2,7
59.195,2,2,7,0,15,5,1,1
59.2,5,6,54,2,25,9,4,2
59.205,3,7,25,24,31,3,1,1
59.21,0,13,33,58,2,1,1,0
59.215,1,1,102,127,26,6,2,0
59.22,6,12,79,128,52,1,4,4
59.225,4,10,26,22,7,2,1,3
59.23,1,6,10,19,13,2,1,2
59.235,7,8,76,37,14,1,5,5
59.24,1,4,24,13,1,1,1,1
59.245,4,7,23,14,17,1,1,4
59.25,6,7,77,35,15,5,3,8
59.255,4,20,10,6,14,1,1,4
59.26,5,16,11,11,30,2,1,1
59.265,3,11,35,23,8,7,7,4
59.27,0,8,14,42,7,3,2,1
59.275,4,4,41,33,8,5,3,3
59.28,2,9,30,69,3,3,1,2
59.285,5,7,25,25,23,7,4,2
59.29,5,15,75,127,74,11,4,3
59.295,2,6,12,36,13,4,2,2
59.3,1,3,7,21,2,1,0,1
59.305,4,2,11,20,4,1,0,2
59.31,1,0,8,12,1,2,3,1
59.315,2,1,0,3,0,1,1,1
59.32,2,1,4,9,1,0,2,2
59.325,1,3,0,0,1,0,0,2
59.33,2,7,23,18,4,3,2,2
59.335,1,6,4,1,2,2,1,1
59.34,0,1,28,16,1,1,1,0
59.345,0,0,14,2,1,1,2,1
59.35,2,3,5,16,10,5,3,3
59.355,1,4,3,7,2,1,2,2
59.36,2,1,8,3,2,1,1,3
59.365,4,4,5,6,3,3,3,3
59.37,1,0,29,5,2,3,1,0
59.375,1,2,18,3,2,1,1,1
59.38,4,3,2,21,3,1,0,2
59.385,0,4,14,1,1,2,2,4
59.39,3,10,67,15,2,3,1,0
59.395,3,1,2,4,1,0,1,3
59.4,2,1,5,0,0,1,0,2
59.405,2,3,37,40,0,2,1,0
59.41,1,2,6,28,3,1,2,1
59.415,6,7,54,9,2,4,2,3
59.42,3,3,47,2,4,2,0,0
59.425,1,3,77,17,1,1,1,2
59.43,6,11,12,9,4,6,8,5
59.435,7,10,2,6,18,8,6,6
59.44,6,17,82,27,18,6,7,2
59.445,2,3,9,11,4,1,2,0
59.45,0,3,3,13,3,3,2,0
59.455,3,0,51,30,3,4,6,4
59.46,0,7,82,95,5,0,0,6
59.465,0,7,10,112,1,0,1,4
59.47,2,12,34,26,3,3,3,0
59.475,0,10,19,35,6,2,1,0
59.48,1,8,20,7,13,4,1,1
59.485,12,1,45,16,8,9,7,13
59.49,3,10,12,25,4,1,0,8
59.495,7,23,43,13,8,6,4,7
59.5,3,5,81,107,8,3,2,6
59.505,12,42,27,62,5,11,7,6
59.51,2,6,80,58,23,4,1,7
59.515,3,12,43,45,23,1,2,0
59.52,11,10,67,37,6,10,7,9
59.525,9,50,22,44,1,1,2,1
59.53,10,41,27,3,0,1,2,4
59.535,17,52,13,36,7,7,6,8
59.54,18,45,14,25,2,7,11,11
59.545,12,52,11,23,60,8,6,9
59.55,3,20,21,7,12,1,1,1
59.555,22,69,27,81,2,7,7,9
59.56,5,32,35,56,17,5,4,4
59.565,5,22,43,68,14,1,2,1
59.57,7,28,47,55,1,7,8,10
59.575,10,28,15,14,1,10,9,8
59.58,17,37,110,1,7,12,9,9
59.585,7,49,25,6,26,8,4,4
59.59,2,63,7,6,7,2,4,2
59.595,17,4,30,26,5,10,11,6
59.6,4,11,96,55,47,5,3,2
59.605,2,15,58,30,25,5,0,1
59.61,8,35,100,4,43,7,1,2
59.615,5,18,3,44,53,6,3,1
59.62,7,9,78,36,12,13,9,7
59.625,3,6,94,65,40,16,8,5
59.63,16,6,91,42,6,7,7,10
59.635,4,0,34,98,4,4,0,4
59.64,8,31,117,28,0,5,4,4
59.645,3,38,44,23,10,1,1,1
59.65,10,18,80,36,3,5,5,5
59.655,6,36,48,8,25,2,1,2
59.66,6,8,43,72,2,4,2,1
59.665,3,4,31,31,4,2,0,4
59.67,9,15,14,4,9,1,3,8
59.675,13,42,127,57,16,1,2,7
59.68,16,61,128,40,19,2,5,6
59.685,10,23,15,32,10,0,0,1
59.69,15,88,128,87,7,2,3,4
59.695,1,15,64,8,5,2,1,1
59.7,0,7,26,19,9,1,0,0
59.705,1,0,72,58,7,2,2,3
59.71,6,4,12,43,25,5,3,5
59.715,7,13,68,25,7,1,1,1
59.72,5,18,16,46,3,1,1,1
59.725,4,4,34,27,6,2,3,1
59.73,5,11,51,26,1,4,3,3
59.735,1,18,54,6,21,4,2,3
59.74,4,18,43,8,18,3,2,6
59.745,1,17,54,1,2,1,1,1
59.75,0,11,15,36,12,4,0,1
59.755,5,12,59,12,7,5,4,5
59.76,2,7,50,22,16,4,5,3
59.765,3,16,19,23,1,0,1,2
59.77,1,4,29,2,1,3,2,0
59.775,3,12,3,44,4,0,1,0
59.78,1,3,20,7,4,1,0,0
59.785,2,9,9,10,3,3,2,3
59.79,1,7,23,27,3,1,0,2
59.795,0,5,4,0,4,3,1,3
59.8,1,7,3,12,5,1,2,1
59.805,3,1,14,25,0,1,1,1
59.81,0,3,10,24,2,1,1,1
59.815,4,8,9,8,2,2,3,0
59.82,1,1,14,29,7,1,0,1
59.825,3,4,13,2,3,4,1,3
59.83,1,0,8,34,8,0,1,2
59.835,1,1,10,2,0,3,1,3
59.84,1,5,17,20,3,1,0,6
59.845,0,2,33,11,1,2,2,3
59.85,2,1,14,11,5,3,1,3
59.855,3,8,21,8,4,3,3,4
59.86,0,3,1,15,2,3,1,1
59.865,1,1,4,3,1,0,0,0
59.87,5,2,3,3,2,0,0,3
59.875,0,4,5,4,2,2,3,0
59.88,0,3,10,0,2,3,1,3
59.885,0,1,20,5,2,0,3,2
59.89,2,6,33,14,5,2,1,2
59.895,1,5,30,0,5,2,3,2
59.9,3,12,106,50,5,3,1,0
59.905,2,0,22,49,38,7,2,6
59.91,5,1,39,28,13,1,1,9
59.915,11,35,12,1,2,2,1,2
59.92,5,6,64,54,0,4,3,0
59.925,3,2,73,11,7,3,2,4
59.93,5,29,42,2,11,7,3,1
59.935,1,9,16,11,23,1,0,1
59.94,6,17,55,24,7,5,5,4
59.945,2,5,11,3,4,1,1,3
59.95,1,3,2,4,4,1,1,2
59.955,1,1,12,14,1,0,2,4
59.96,1,5,5,0,3,0,0,2
59.965,1,0,9,1,1,2,1,2
59.97,0,1,8,0,1,1,3,1
59.975,4,4,7,8,2,0,2,1
59.98,1,1,9,1,3,1,1,2
59.985,3,1,34,33,16,0,0,1
59.99,0,8,2,43,12,0,1,1
59.995,6,4,19,51,17,7,4,4
60,6,4,48,14,12,8,6,9
60.005,5,4,24,41,14,1,5,6
60.01,1,25,22,4,0,0,0,3
60.015,2,64,13,16,9,1,3,5
60.02,5,16,56,27,4,5,3,4
60.025,2,7,45,24,9,2,2,3
60.03,2,0,30,61,15,0,2,2
60.035,20,29,67,23,19,16,11,19
60.04,3,29,26,2,0,1,3,4
60.045,5,2,56,20,9,1,3,0
60.05,0,13,81,35,5,1,0,2
60.055,21,36,77,1,8,13,10,16
60.06,8,29,56,6,3,3,2,4
60.065,3,3,49,32,9,0,1,0
60.07,3,9,49,47,28,4,2,3
60.075,0,9,47,24,41,8,1,2
60.08,1,20,19,13,4,1,3,1
60.085,7,5,15,11,11,9,6,4
60.09,3,7,64,14,3,4,2,5
60.095,7,17,68,27,0,4,7,6
60.1,8,25,37,33,8,1,3,4
60.105,6,5,6,11,6,4,3,5
60.11,8,7,21,38,8,5,4,4
60.115,1,2,21,24,15,3,2,1
60.12,6,31,22,17,4,1,2,2
60.125,2,4,3,28,9,5,4,4
60.13,1,7,17,28,7,3,1,0
60.135,3,3,42,23,12,4,0,1
60.14,1,1,12,8,1,0,0,1
60.145,1,6,14,3,13,4,1,3
60.15,1,3,11,13,21,1,1,2
60.155,4,6,6,19,1,1,2,1
60.16,2,0,8,13,0,0,2,2
60.165,4,2,31,30,3,4,3,4
60.17,1,4,80,64,8,5,6,0
60.175,1,33,58,49,10,2,3,1
60.18,7,14,47,20,11,0,2,5
60.185,1,2,15,26,4,0,1,0
60.19,0,3,0,15,2,1,1,4
60.195,3,7,9,3,10,3,2,5
60.2,1,8,19,2,0,2,0,1
60.205,3,10,19,9,1,5,3,3
60.21,3,8,14,8,3,2,1,0
60.215,3,11,22,24,4,2,0,5
60.22,1,1,4,29,1,1,0,1
60.225,1,3,14,22,1,3,2,0
60.23,1,2,7,5,3,2,1,1
60.235,1,2,11,13,5,1,0,3
60.24,0,7,14,15,1,1,1,0
60.245,1,2,11,22,2,0,1,0
60.25,3,6,10,7,4,4,3,2
60.255,0,1,16,12,5,1,3,2
60.26,0,2,12,6,3,2,1,1
60.265,2,1,9,9,0,0,3,1
60.27,1,3,19,19,1,3,2,2
60.275,0,3,7,9,2,0,0,0
60.28,1,2,4,8,5,4,1,1
60.285,2,1,1,10,3,4,3,3
60.29,3,1,0,1,0,1,0,1
60.295,4,5,6,0,3,1,2,3
60.3,1,3,9,1,10,1,1,1
60.305,1,2,14,5,3,1,3,2
60.31,1,0,12,7,1,2,0,0
60.315,2,0,9,7,1,2,0,0
60.32,1,4,10,7,8,4,1,2
60.325,1,2,2,1,4,1,1,1
60.33,1,1,0,3,2,1,2,1
60.335,0,1,3,7,1,1,1,2
60.34,3,3,3,5,6,1,1,1
60.345,1,1,0,5,5,3,1,2
60.35,1,0,2,4,4,1,1,1
60.355,0,1,2,8,4,0,0,1
60.36,0,1,5,5,0,1,1,0
60.365,4,3,81,52,5,2,1,2
60.37,4,10,11,49,7,4,1,0
60.375,1,15,46,19,14,0,1,2
60.38,6,10,65,20,30,8,4,10
60.385,1,3,30,41,18,9,5,3
60.39,2,9,28,8,22,5,2,2
60.395,5,16,45,24,25,1,1,2
60.4,2,14,22,9,7,4,2,2
60.405,10,35,47,6,19,2,1,5
60.41,1,43,43,32,2,2,5,4
60.415,4,28,5,33,16,8,1,0
60.42,12,16,55,15,8,1,5,6
60.425,8,20,27,16,56,1,2,4
60.43,0,6,67,8,52,6,1,2
60.435,4,30,21,15,64,10,5,2
60.44,2,6,98,17,9,1,1,3
60.445,2,6,30,33,76,15,4,0
60.45,4,49,20,9,9,2,1,1
60.455,4,36,54,12,18,5,2,3
60.46,8,2,3,38,19,10,5,6
60.465,13,46,81,51,7,1,4,8
60.47,17,83,100,16,5,8,7,9
60.475,31,69,91,18,30,13,12,14
60.48,4,12,35,14,11,4,1,1
60.485,9,7,38,33,42,0,4,4
60.49,3,37,37,15,26,4,1,0
60.495,8,29,39,36,33,11,5,3
60.5,12,4,51,76,27,12,7,7
60.505,7,11,8,5,0,2,2,2
60.51,6,8,37,46,11,8,9,8
60.515,7,34,58,31,11,0,0,0
60.52,2,5,48,22,14,2,2,1
60.525,10,10,7,32,0,0,2,4
60.53,4,4,72,28,46,1,1,1
60.535,3,23,66,29,36,6,2,0
60.54,1,21,1,12,24,5,0,1
60.545,1,4,1,47,6,1,1,2
60.55,0,6,35,5,19,4,1,2
60.555,1,11,27,43,11,1,2,3
60.56,3,15,82,49,25,6,1,0
60.565,16,41,109,28,9,6,7,8
60.57,0,5,42,45,3,0,2,2
60.575,1,7,9,20,8,0,1,3
60.58,7,13,49,19,17,7,4,4
60.585,2,6,65,11,4,3,3,0
60.59,7,7,43,63,9,4,5,5
60.595,3,27,115,41,8,0,2,1
60.6,11,37,112,49,12,4,5,6
60.605,4,6,54,65,22,2,4,3
60.61,0,15,3,39,12,1,4,2
60.615,6,10,6,45,3,0,1,3
60.62,1,20,68,39,10,1,0,0
60.625,2,11,35,21,1,2,1,1
60.63,4,23,2,9,10,1,1,1
60.635,3,2,22,23,4,2,2,2
60.64,2,16,9,23,7,4,2,0
60.645,1,3,18,43,14,2,0,1
60.65,0,11,16,37,18,0,0,0
60.655,1,8,9,4,3,1,1,1
60.66,0,17,1,13,4,1,1,1
60.665,5,26,1,102,4,1,1,2
60.67,0,9,12,17,12,4,3,1
60.675,1,2,26,14,24,3,0,2
60.68,1,5,4,16,6,2,2,3
60.685,3,14,17,37,4,2,1,1
60.69,2,11,14,12,7,3,1,2
60.695,1,6,17,11,1,0,1,2
60.7,0,3,5,10,1,2,2,1
60.705,1,6,10,11,3,4,2,1
60.71,0,5,2,0,1,1,0,2
60.715,0,6,32,1,14,3,1,1
60.72,2,6,46,9,13,1,1,3
60.725,0,3,7,29,4,2,2,2
60.73,6,4,9,2,2,2,3,3
60.735,1,3,5,7,2,0,1,1
60.74,2,1,25,1,8,1,1,3
60.745,3,3,0,2,7,3,1,2
60.75,1,9,3,0,7,2,2,0
60.755,1,0,14,6,0,0,1,1
60.76,3,2,6,9,0,1,0,2
60.765,3,6,20,6,2,0,1,6
60.77,3,6,5,1,7,3,3,5
60.775,1,4,11,8,7,2,3,1
60.78,3,4,6,16,2,5,1,3
60.785,1,1,3,2,0,3,1,2
60.79,0,0,7,5,7,1,0,1
60.795,0,3,12,13,9,2,2,0
60.8,1,1,2,5,10,1,2,2
60.805,2,2,1,4,6,0,0,2
60.81,1,1,2,12,2,2,1,2
60.815,1,1,5,21,0,1,0,3
60.82,1,3,6,11,3,4,4,1
60.825,1,2,4,2,2,5,1,2
60.83,2,6,18,11,3,1,2,0
60.835,1,1,14,9,3,1,0,0
60.84,0,0,10,7,6,2,1,0
60.845,2,2,16,9,0,3,2,3
60.85,3,3,11,10,5,3,1,2
60.855,1,1,8,9,2,0,1,1
60.86,0,0,15,15,7,2,2,2
60.865,0,3,44,13,6,3,0,1
60.87,2,2,4,7,4,1,0,3
60.875,0,5,10,1,1,2,3,0
60.88,2,2,12,0,1,1,2,1
60.885,2,3,13,5,0,1,3,2
60.89,1,3,10,3,1,1,2,1
60.895,0,2,31,15,1,1,0,3
60.9,4,9,61,13,5,1,4,1
60.905,0,2,11,2,2,0,0,1
60.91,0,0,13,2,1,3,4,1
60.915,2,4,21,10,5,4,2,2
60.92,1,1,22,9,1,1,0,3
60.925,1,1,12,4,0,2,3,2
60.93,1,1,19,3,1,1,1,2
60.935,2,3,4,0,3,0,0,1
60.94,1,0,5,2,1,1,1,0
60.945,3,3,1,6,1,2,1,0
60.95,1,2,13,11,4,0,2,3
60.955,2,2,21,3,1,1,3,1
60.96,1,1,9,1,2,3,2,1
60.965,1,2,10,2,1,1,1,0
60.97,2,2,5,2,2,3,0,3
60.975,4,2,9,5,2,1,1,2
60.98,2,1,1,1,1,0,1,2
60.985,2,1,2,5,2,2,2,4
60.99,1,2,1,2,3,1,0,0
60.995,0,2,4,0,1,1,1,1
61,0,1,3,1,0,0,0,0
61.005,2,3,2,4,4,3,2,1
61.01,1,0,3,4,1,0,0,1
61.015,1,1,5,1,1,1,1,1
61.02,1,1,2,5,4,3,1,2
61.025,1,4,4,2,3,1,2,1
61.03,2,2,6,0,20,5,1,1
61.035,1,0,2,2,5,4,2,1
61.04,2,1,1,4,3,3,2,2
61.045,2,2,0,6,5,2,3,0
61.05,1,0,2,8,10,5,2,0
61.055,2,3,1,8,3,0,0,0
61.06,1,2,0,5,3,2,0,0
61.065,1,3,2,2,1,1,0,2
61.07,1,0,0,3,5,1,1,3
61.075,0,2,3,2,0,0,1,1
61.08,2,0,1,0,4,3,1,2
61.085,0,2,2,7,0,3,3,2
61.09,1,4,5,3,2,1,1,3
61.095,2,3,2,16,21,3,2,2
61.1,1,0,3,26,27,5,1,0
61.105,0,3,2,5,4,1,0,2
61.11,2,0,1,6,3,3,4,2
61.115,3,0,4,5,6,1,2,1
61.12,1,2,0,19,5,0,2,0
61.125,2,1,8,6,2,2,1,3
61.13,1,0,2,5,4,3,1,0
61.135,1,1,16,5,11,3,2,1
61.14,4,5,7,12,8,3,3,1
61.145,2,1,2,18,8,3,1,0
61.15,0,2,20,22,6,0,0,5
61.155,4,3,0,18,10,1,0,1
61.16,0,3,6,2,6,0,1,1
61.165,0,0,1,3,0,0,1,3
61.17,2,1,46,1,5,3,1,1
61.175,1,2,56,23,0,2,0,3
61.18,2,0,10,33,10,1,2,2
61.185,1,3,32,49,12,5,0,1
61.19,2,1,0,20,1,3,2,2
61.195,1,3,17,1,5,1,0,2
61.2,1,2,19,14,3,0,1,1
61.205,2,5,30,30,1,2,2,0
61.21,3,9,9,21,4,4,4,1
61.215,1,1,20,47,14,3,2,1
61.22,3,1,19,38,9,3,2,1
61.225,1,8,20,4,2,1,2,1
61.23,1,1,5,12,5,3,1,0
61.235,1,4,6,14,3,1,2,6
61.24,5,7,4,22,5,2,2,7
61.245,3,6,5,2,1,3,0,0
61.25,1,1,22,7,2,1,1,0
61.255,1,1,24,20,3,0,2,0
61.26,1,2,3,20,1,2,0,3
61.265,1,0,4,8,1,3,1,1
61.27,2,13,9,2,7,3,2,2
61.275,2,2,1,7,11,0,0,0
61.28,3,6,2,9,9,2,0,0
61.285,3,6,11,6,2,2,1,0
61.29,6,11,1,3,9,3,4,2
61.295,2,0,23,4,4,1,1,2
61.3,2,6,10,22,11,3,2,5
61.305,4,16,4,13,8,0,1,1
61.31,0,13,1,17,2,1,0,2
61.315,1,2,11,4,13,5,3,0
61.32,3,4,2,4,1,1,1,2
61.325,3,3,16,6,7,1,2,3
61.33,3,15,25,7,5,4,2,1
61.335,0,11,2,17,14,1,1,1
61.34,1,5,71,5,19,0,1,0
61.345,5,0,46,8,11,2,5,4
61.35,1,3,9,22,19,5,1,1
61.355,1,11,17,1,11,2,1,3
61.36,2,0,2,73,21,2,2,8
61.365,2,6,42,58,17,4,3,4
61.37,3,7,1,45,2,2,1,1
61.375,9,5,7,89,1,12,10,8
61.38,4,5,59,76,14,1,2,3
61.385,3,3,2,13,42,4,2,3
61.39,0,1,33,32,71,7,5,4
61.395,1,5,38,16,11,0,1,0
61.4,0,5,87,0,40,6,2,4
61.405,11,25,71,91,4,7,4,1
61.41,1,2,36,58,9,7,4,0
61.415,3,13,36,28,45,9,1,4
61.42,2,5,13,9,36,7,4,0
61.425,2,11,14,23,37,11,5,1
61.43,3,18,82,1,51,7,4,6
61.435,5,8,17,30,18,8,1,0
61.44,2,21,15,61,68,9,4,2
61.445,3,5,8,35,58,15,8,2
61.45,17,27,77,103,32,4,2,6
61.455,7,18,101,81,75,13,6,1
61.46,7,22,96,5,23,5,4,3
61.465,1,29,25,13,29,6,3,2
61.47,3,25,58,39,6,3,1,2
61.475,2,6,20,69,13,3,1,0
61.48,1,9,16,86,11,3,1,1
61.485,1,1,7,32,44,8,3,1
61.49,0,14,41,88,3,2,0,1
61.495,3,13,21,2,80,11,4,3
61.5,0,15,73,13,11,5,3,3
61.505,3,15,57,9,27,2,2,3
61.51,5,8,13,11,17,6,3,2
61.515,5,12,35,46,34,5,3,3
61.52,0,13,16,14,22,2,2,2
61.525,2,2,9,10,24,5,1,1
61.53,5,4,0,86,35,10,5,6
61.535,5,24,11,29,23,5,1,3
61.54,3,6,3,67,26,2,0,1
61.545,2,6,20,41,30,4,3,1
61.55,1,3,1,1,7,1,0,1
61.555,0,3,10,45,17,3,2,0
61.56,1,7,16,1,9,2,2,2
61.565,1,16,4,38,31,5,1,2
61.57,1,6,16,14,49,10,5,3
61.575,3,16,32,17,4,1,3,2
61.58,1,10,28,4,3,3,2,0
61.585,6,20,27,4,15,4,1,2
61.59,1,3,19,4,12,1,1,2
61.595,0,1,7,18,21,4,1,2
61.6,2,5,11,1,3,1,1,1
61.605,1,6,39,28,9,1,1,3
61.61,1,12,3,21,2,1,1,1
61.615,5,8,17,19,16,7,2,3
61.62,1,0,0,7,0,0,2,1
61.625,4,1,22,28,4,3,4,3
61.63,1,2,3,16,6,1,1,1
61.635,1,2,7,12,10,3,2,0
61.64,0,5,7,8,2,1,1,1
61.645,0,1,7,10,6,1,0,1
61.65,0,7,4,21,5,3,3,1
61.655,1,2,9,27,12,3,1,0
61.66,0,7,61,63,43,5,2,0
61.665,11,38,78,43,3,3,3,4
61.67,0,0,15,2,1,3,0,2
61.675,1,1,5,17,1,3,6,4
61.68,1,2,7,17,32,4,4,1
61.685,3,11,25,31,21,4,0,1
61.69,3,11,6,4,3,0,2,0
61.695,2,4,23,21,14,3,2,3
61.7,2,9,5,7,10,1,2,0
61.705,1,13,3,6,7,2,1,1
61.71,8,15,29,23,0,6,5,3
61.715,0,5,6,25,9,1,0,1
61.72,0,1,17,20,0,1,1,0
61.725,3,13,33,11,2,0,2,0
61.73,1,7,19,16,1,1,2,1
61.735,1,0,15,1,3,1,3,0
61.74,2,2,29,8,12,3,4,3
61.745,0,4,40,24,16,2,0,0
61.75,0,4,13,11,20,1,2,1
61.755,4,8,10,24,8,2,1,4
61.76,2,2,24,5,5,2,0,0
61.765,2,6,29,19,14,2,3,1
61.77,2,20,19,22,9,1,1,1
61.775,1,7,41,54,20,3,1,0
61.78,1,7,12,42,28,2,0,2
61.785,4,6,63,3,21,8,7,6
61.79,1,15,24,84,11,2,1,0
61.795,1,5,22,36,38,4,0,1
61.8,1,26,11,2,8,2,0,1
61.805,3,10,20,32,2,3,3,0
61.81,1,35,48,111,33,11,8,5
61.815,6,33,41,77,0,2,1,3
61.82,1,6,37,54,59,10,2,2
61.825,2,27,25,2,58,12,4,2
61.83,3,10,31,32,46,4,0,1
61.835,6,35,43,99,72,12,4,0
61.84,0,14,32,85,34,1,0,1
61.845,19,41,33,111,7,15,11,11
61.85,4,21,5,80,51,11,0,1
61.855,16,65,67,9,35,9,6,7
61.86,1,46,69,68,23,7,4,3
61.865,3,11,66,48,35,0,2,1
61.87,4,15,81,67,40,3,1,0
61.875,5,15,63,115,65,19,7,4
61.88,1,38,31,108,17,3,2,1
61.885,7,17,42,53,30,14,9,5
61.89,3,3,42,39,14,6,6,3
61.895,1,8,52,5,5,4,2,1
61.9,5,0,3,38,8,3,1,0
61.905,11,24,56,53,0,4,0,4
61.91,13,68,63,0,25,2,1,4
61.915,5,3,15,17,29,8,4,2
61.92,3,23,99,23,30,8,3,3
61.925,2,6,33,14,33,2,0,3
61.93,6,23,38,31,1,3,1,2
61.935,2,2,17,44,20,3,1,2
61.94,1,6,23,1,10,2,2,2
61.945,0,11,48,17,6,1,1,0
61.95,2,8,16,3,11,3,1,1
61.955,6,4,4,25,4,6,3,3
61.96,1,1,35,9,9,1,2,1
61.965,2,12,12,7,13,0,1,4
61.97,1,8,4,12,3,2,1,0
61.975,2,2,13,31,1,4,2,2
61.98,1,11,0,15,11,0,1,1
61.985,2,5,14,16,8,2,3,2
61.99,1,2,25,29,3,3,2,0
61.995,3,21,62,33,8,1,0,0
62,7,25,42,42,20,8,5,5
62.005,2,8,15,36,5,1,2,2
62.01,2,7,5,27,30,5,1,1
62.015,1,10,20,11,14,4,4,6
62.02,4,11,4,7,12,1,0,2
62.025,1,0,3,1,4,2,2,2
62.03,0,6,9,24,11,0,2,2
62.035,1,4,18,11,17,6,3,1
62.04,2,8,39,1,12,1,1,1
62.045,2,13,29,54,15,2,0,3
62.05,2,12,5,32,1,1,1,3
62.055,4,3,15,3,5,2,1,0
62.06,0,5,28,22,9,4,1,1
62.065,1,3,38,18,1,4,4,3
62.07,2,7,25,8,1,2,2,2
62.075,1,4,8,15,17,2,1,0
62.08,1,9,10,12,2,2,4,0
62.085,2,9,5,38,9,0,2,0
62.09,1,3,9,6,2,1,1,0
62.095,4,1,5,3,5,2,1,1
62.1,1,3,11,28,12,2,2,0
62.105,1,2,8,8,1,1,2,1
62.11,0,6,20,53,15,4,2,0
62.115,1,2,15,46,7,0,0,2
62.12,0,1,17,7,7,3,3,2
62.125,1,2,44,38,3,2,1,1
62.13,0,1,6,12,8,2,1,2
62.135,1,1,29,3,9,4,3,4
62.14,2,0,16,2,5,2,2,3
62.145,0,5,25,7,4,5,2,0
62.15,2,6,28,15,6,3,2,0
62.155,0,1,6,9,8,0,1,2
62.16,1,3,8,23,11,1,1,1
62.165,2,4,8,21,7,0,0,1
62.17,2,2,3,5,7,1,2,1
62.175,1,3,22,17,7,0,1,1
62.18,2,2,17,6,10,1,2,0
62.185,1,2,29,14,1,2,2,1
62.19,0,2,18,15,2,3,2,1
62.195,2,5,1,2,6,1,2,1
62.2,2,2,8,8,2,2,1,3
62.205,1,3,2,1,4,2,0,0
62.21,1,1,5,13,12,2,2,0
62.215,0,1,12,6,3,1,2,0
62.22,0,0,2,8,3,2,1,1
62.225,2,2,3,9,4,2,0,2
62.23,2,4,3,13,11,4,3,1
62.235,3,0,9,25,1,2,2,1
62.24,1,1,2,7,4,3,2,1
62.245,1,8,6,18,12,1,0,1
62.25,0,0,2,4,4,2,0,1
62.255,0,2,14,0,7,1,1,0
62.26,1,1,7,8,9,1,2,2
62.265,1,1,3,11,1,0,1,1
62.27,0,3,3,5,0,1,1,2
62.275,1,2,3,19,7,0,0,1
62.28,0,1,3,16,5,2,1,2
62.285,2,1,4,4,3,1,0,0
62.29,3,1,11,0,2,2,2,1
62.295,1,3,10,15,1,2,0,0
62.3,2,9,13,0,0,3,2,5
62.305,1,0,9,11,7,3,3,2
62.31,1,1,4,3,4,2,0,3
62.315,3,5,7,10,0,0,0,1
62.32,0,1,3,0,1,2,1,2
62.325,1,3,4,11,14,6,5,4
62.33,1,0,5,37,4,2,2,1
62.335,1,1,3,25,12,2,1,3
62.34,2,2,12,0,3,0,1,0
62.345,0,1,1,17,9,3,1,2
62.35,2,3,2,13,6,3,0,1
62.355,2,3,1,23,2,2,1,3
62.36,1,3,2,21,16,2,0,1
62.365,0,2,1,34,19,2,1,0
62.37,2,9,11,2,2,1,1,2
62.375,2,1,14,0,0,0,1,0
62.38,1,2,1,4,5,0,2,2
62.385,2,2,3,9,5,4,2,1
62.39,1,0,0,4,8,1,2,1
62.395,1,1,7,2,2,0,1,1
62.4,1,0,1,15,1,2,0,1
62.405,1,2,0,18,3,0,1,1
62.41,0,1,2,10,1,2,3,1
62.415,1,1,7,11,3,2,0,4
62.42,2,2,16,29,15,3,1,0
62.425,2,4,5,16,4,2,3,4
62.43,1,1,5,7,3,0,2,1
62.435,3,1,4,17,7,2,1,1
62.44,2,3,4,16,4,0,2,2
62.445,0,1,2,1,3,1,1,2
62.45,0,3,13,2,3,0,0,2
62.455,0,3,8,16,7,1,2,2
62.46,3,1,9,0,2,1,0,0
62.465,0,2,4,3,4,1,2,1
62.47,1,2,9,1,4,4,0,2
62.475,2,2,9,5,6,2,2,1
62.48,1,1,1,9,2,3,1,1
62.485,1,2,3,11,2,0,1,1
62.49,0,2,3,0,2,1,1,0
62.495,0,4,2,14,1,2,0,2
62.5,0,0,9,0,6,2,3,0
62.505,1,3,2,11,5,0,0,0
62.51,2,3,6,5,3,1,1,3
62.515,1,1,1,12,0,0,1,2
62.52,5,0,37,5,2,0,1,4
62.525,2,2,77,25,1,1,0,1
62.53,2,3,1,4,5,4,1,0
62.535,1,1,11,7,1,1,3,5
62.54,1,4,7,0,6,2,1,4
62.545,3,0,22,9,5,0,2,2
62.55,2,2,1,0,1,2,3,0
62.555,3,2,15,6,2,2,1,3
62.56,2,1,2,11,5,1,0,1
62.565,1,2,10,4,1,3,1,1
62.57,3,2,8,1,1,0,1,2
62.575,2,0,10,12,3,2,1,1
62.58,3,2,8,11,5,3,2,2
62.585,0,2,3,6,0,1,2,1
62.59,0,3,11,13,3,0,2,0
62.595,1,2,5,10,2,0,2,0
62.6,5,2,30,13,0,0,1,4
62.605,1,3,16,30,6,4,4,4
62.61,1,1,15,12,1,0,2,3
62.615,2,2,4,5,0,1,0,0
62.62,5,1,0,5,0,2,1,5
62.625,0,1,28,7,0,1,1,2
62.63,4,2,5,1,3,1,0,2
62.635,2,1,6,6,1,2,2,6
62.64,3,1,4,8,2,4,2,4
62.645,5,1,7,9,2,0,4,3
62.65,0,1,9,4,0,1,0,8
62.655,1,0,16,3,3,2,0,5
62.66,7,3,16,3,5,2,11,9
62.665,4,3,38,5,3,6,10,1
62.67,20,0,3,2,0,1,8,1
62.675,24,2,2,3,0,6,20,7
62.68,32,0,3,4,1,3,1,9
62.685,41,3,7,7,1,3,8,22
62.69,4,3,12,8,4,8,16,0
62.695,3,5,5,0,3,7,10,19
62.7,8,1,13,3,1,4,5,18
62.705,22,4,4,2,1,1,11,2
62.71,5,3,6,3,1,0,2,2
62.715,1,2,10,2,1,2,7,15
62.72,16,5,24,2,4,5,5,13
62.725,6,0,5,2,2,1,3,6
62.73,9,1,1,0,1,0,5,8
62.735,7,3,13,7,0,2,1,5
62.74,6,5,34,11,2,2,1,7
62.745,5,2,6,4,1,2,1,5
62.75,0,3,0,14,2,1,12,2
62.755,15,3,8,9,0,2,12,5
62.76,16,3,7,1,2,2,9,3
62.765,3,2,0,2,1,3,12,24
62.77,9,1,0,1,0,3,1,3
62.775,20,3,11,4,1,2,1,4
62.78,12,1,4,1,2,1,4,1
62.785,0,2,3,1,1,0,2,4
62.79,4,2,1,1,2,1,5,1
62.795,3,1,10,4,3,1,2,6
62.8,2,2,33,2,1,1,2,2
62.805,2,2,2,8,1,1,0,2
62.81,7,1,32,20,0,2,3,3
62.815,0,4,28,3,4,3,5,5
62.82,1,2,7,13,0,2,3,3
62.825,6,3,2,9,1,0,1,5
62.83,4,2,6,1,3,2,1,2
62.835,5,2,96,30,2,6,6,12
62.84,2,5,97,13,1,1,1,4
62.845,1,1,9,28,12,1,1,1
62.85,3,3,18,8,4,2,3,9
62.855,5,10,81,32,8,5,3,2
62.86,4,7,40,24,11,6,3,4
62.865,1,3,16,8,5,1,5,1
62.87,5,4,60,18,10,2,2,1
62.875,6,1,44,64,8,2,1,0
62.88,5,3,53,27,9,3,0,2
62.885,2,1,43,31,1,3,2,2
62.89,2,1,12,17,5,3,2,2
62.895,2,6,16,13,3,1,1,1
62.9,2,4,23,11,5,1,3,2
62.905,0,2,7,19,4,3,1,2
62.91,1,0,19,1,9,3,0,1
62.915,3,1,42,17,1,0,3,0
62.92,2,4,27,8,4,1,3,2
62.925,0,2,39,18,6,1,2,1
62.93,1,0,16,7,0,4,3,2
62.935,4,4,3,15,5,1,3,3
62.94,1,7,13,22,4,1,1,1
62.945,2,2,6,6,2,2,2,1
62.95,1,2,4,5,2,2,0,3
62.955,1,7,0,9,2,0,0,5
62.96,2,3,4,11,4,3,3,1
62.965,1,5,18,3,1,3,1,9
62.97,4,4,21,9,1,1,2,1
62.975,1,3,14,8,0,2,1,2
62.98,3,6,6,1,1,2,2,1
62.985,3,0,12,1,1,2,3,3
62.99,1,0,3,5,1,0,0,1
62.995,1,5,7,2,3,1,0,2
63,0,4,7,3,0,2,0,3
63.005,0,1,8,0,3,2,3,3
63.01,3,5,0,9,4,2,1,0
63.015,1,4,3,8,1,3,3,6
63.02,1,0,14,1,1,3,3,5
63.025,1,7,32,18,3,1,0,2
63.03,1,2,12,4,1,2,1,1
63.035,1,2,11,5,1,1,0,2
63.04,1,1,24,11,1,1,3,1
63.045,1,3,13,6,1,1,1,0
63.05,2,6,18,12,1,2,2,1
63.055,1,0,1,0,1,2,0,1
63.06,1,4,6,7,4,1,0,1
63.065,0,7,6,2,0,4,3,2
63.07,0,3,13,8,2,1,2,3
63.075,2,5,46,33,5,1,1,0
63.08,3,0,15,6,2,4,2,5
63.085,1,2,1,15,4,2,1,0
63.09,2,0,24,5,3,3,3,2
63.095,1,6,25,13,2,2,1,2
63.1,0,0,2,29,1,1,0,2
63.105,1,3,17,19,4,0,1,1
63.11,4,7,4,25,8,1,0,1
63.115,8,3,17,80,4,7,7,6
63.12,1,2,4,0,9,1,2,4
63.125,2,4,42,8,9,4,1,2
63.13,0,4,18,19,21,6,1,1
63.135,2,2,40,19,9,2,0,0
63.14,4,9,22,10,6,2,1,3
63.145,0,3,3,48,22,3,1,1
63.15,0,3,51,68,12,4,2,3
63.155,5,2,60,68,13,0,3,2
63.16,2,5,50,44,12,5,3,6
63.165,2,9,4,10,3,1,2,2
63.17,0,1,3,13,13,0,0,3
63.175,1,3,12,24,15,3,0,2
63.18,4,13,60,61,0,3,4,8
63.185,6,8,90,25,13,4,1,3
63.19,2,1,52,14,7,11,8,2
63.195,5,8,7,8,17,8,5,19
63.2,8,4,41,79,52,1,7,15
63.205,4,3,67,127,87,16,4,0
63.21,7,6,11,10,30,2,4,10
63.215,3,20,67,39,40,9,1,5
63.22,9,19,15,49,4,12,4,2
63.225,11,20,53,13,27,26,10,7
63.23,9,17,98,38,69,9,6,9
63.235,5,14,32,56,48,17,8,6
63.24,1,7,29,40,50,7,2,5
63.245,7,21,11,49,6,8,3,10
63.25,9,24,38,58,22,12,10,9
63.255,2,8,20,52,36,4,1,5
63.26,8,17,54,100,33,10,1,5
63.265,6,15,43,51,16,10,6,9
63.27,11,12,28,58,2,4,5,12
63.275,4,1,66,37,7,5,1,1
63.28,6,3,43,50,40,10,1,4
63.285,1,12,62,4,40,9,4,5
63.29,9,26,53,37,7,3,2,0
63.295,19,55,31,54,55,3,4,4
63.3,2,2,3,25,22,2,1,3
63.305,2,2,10,6,29,11,3,1
63.31,4,2,49,9,60,6,1,4
63.315,2,4,91,40,50,8,6,0
63.32,3,6,16,92,19,4,4,4
63.325,7,12,35,17,13,9,6,4
63.33,0,9,33,24,38,9,4,2
63.335,5,21,15,75,47,3,0,0
63.34,10,45,110,79,3,6,5,10
63.345,6,19,40,46,9,7,4,5
63.35,1,8,13,6,8,4,3,3
63.355,4,20,31,33,2,0,0,2
63.36,13,39,19,1,10,0,2,10
63.365,4,11,5,45,44,9,3,0
63.37,4,14,18,107,73,7,2,3
63.375,1,13,9,4,17,1,0,0
63.38,1,2,15,16,11,3,0,1
63.385,1,3,29,52,2,0,1,1
63.39,3,26,127,100,9,3,1,3
63.395,4,13,79,43,25,3,2,2
63.4,2,1,14,4,4,2,1,0
63.405,3,6,21,5,4,0,2,1
63.41,2,8,3,15,13,5,3,4
63.415,2,4,22,46,23,5,0,2
63.42,3,2,20,34,15,3,2,1
63.425,4,4,11,20,4,1,1,8
63.43,5,2,55,9,12,2,0,3
63.435,0,1,13,24,1,2,2,4
63.44,6,7,10,27,6,2,0,1
63.445,1,1,40,39,7,4,2,2
63.45,3,6,34,17,16,0,3,3
63.455,2,2,5,15,3,1,3,3
63.46,1,8,24,11,6,0,1,1
63.465,1,7,3,9,7,1,2,2
63.47,2,4,19,17,4,0,1,0
63.475,1,7,4,24,3,4,1,2
63.48,0,2,6,5,1,0,0,1
63.485,2,1,18,5,4,3,3,2
63.49,2,7,11,13,5,0,2,3
63.495,2,4,11,9,1,0,0,5
63.5,1,6,22,5,4,3,1,1
63.505,2,3,7,1,3,0,1,1
63.51,1,6,12,0,2,1,2,2
63.515,1,1,7,5,5,3,3,1
63.52,0,2,3,13,1,0,1,2
63.525,0,0,0,38,5,2,2,2
63.53,3,2,6,4,3,2,4,1
63.535,1,0,2,3,2,1,2,0
63.54,2,5,11,6,2,0,0,3
63.545,2,1,3,13,2,2,0,1
63.55,1,6,4,6,1,1,0,1
63.555,0,0,1,1,2,5,3,1
63.56,3,2,3,4,1,0,0,2
63.565,2,0,5,2,1,2,0,2
63.57,0,2,7,11,0,0,2,3
63.575,1,1,7,2,2,0,0,0
63.58,1,2,13,6,1,1,1,0
63.585,4,5,7,4,3,3,2,3
63.59,0,2,8,1,2,2,1,1
63.595,1,2,8,0,1,2,1,1
63.6,2,1,7,1,3,0,0,4
63.605,0,3,10,5,6,2,2,4
63.61,2,1,1,3,4,1,1,1
63.615,2,0,8,3,9,2,3,0
63.62,0,3,10,3,3,2,0,0
63.625,0,1,14,11,2,0,2,2
63.63,2,1,0,0,1,1,1,1
63.635,0,0,3,3,1,2,0,0
63.64,3,3,12,4,1,1,3,2
63.645,0,3,0,6,1,0,0,2
63.65,1,2,3,2,0,0,2,0
63.655,2,2,4,1,1,1,3,2
63.66,1,3,4,0,0,1,1,0
63.665,1,3,6,5,1,3,1,0
63.67,0,3,1,4,0,0,0,0
63.675,0,0,6,1,4,2,1,0
63.68,3,2,3,1,1,0,1,2
63.685,1,3,3,2,1,1,0,1
63.69,1,0,2,0,1,3,0,0
63.695,2,3,3,4,4,1,2,2
63.7,1,1,2,0,1,1,1,0
63.705,5,2,3,0,1,0,2,5
63.71,1,0,3,2,2,2,0,3
63.715,0,7,1,5,2,2,0,1
63.72,0,0,1,2,1,3,2,3
63.725,2,0,1,2,1,2,1,1
63.73,1,1,0,3,3,2,2,1
63.735,4,0,5,3,1,0,1,2
63.74,0,3,6,3,2,0,0,0
63.745,1,0,2,6,0,0,1,1
63.75,0,4,1,4,1,2,0,0
63.755,2,2,0,0,1,1,1,1
63.76,1,0,3,3,2,1,2,0
63.765,1,1,2,2,1,4,1,3
63.77,2,2,0,1,0,1,0,2
63.775,2,3,0,1,0,0,1,3
63.78,2,1,0,2,1,2,2,0
63.785,1,2,5,3,2,1,1,1
63.79,4,0,0,1,0,3,2,5
63.795,0,3,2,0,1,1,1,2
63.8,0,0,1,0,0,1,0,2
63.805,1,0,0,2,2,0,1,2
63.81,0,2,1,2,0,0,0,1
63.815,1,0,0,2,0,2,3,3
63.82,2,3,0,3,1,2,0,0
63.825,1,1,1,1,0,2,2,0
63.83,1,2,0,1,0,1,0,2
63.835,1,2,2,2,2,4,2,4
63.84,0,3,2,2,1,3,0,5
63.845,1,2,2,2,1,1,0,3
63.85,2,2,1,1,1,0,0,1
63.855,0,0,1,0,1,1,1,0
63.86,1,0,4,4,3,2,0,0
63.865,2,1,0,1,1,1,1,0
63.87,0,0,1,2,2,0,1,1
63.875,0,2,1,1,1,1,0,1
63.88,0,3,1,0,1,1,0,1
63.885,2,2,4,4,2,3,1,1
63.89,3,3,2,0,2,2,2,3
63.895,2,1,4,1,0,0,1,6
63.9,2,2,0,1,0,4,3,5
63.905,1,3,3,3,1,1,2,3
63.91,2,1,4,1,1,1,3,0
63.915,1,1,0,1,1,2,3,2
63.92,2,0,3,1,4,0,0,2
63.925,2,1,3,1,1,1,1,2
63.93,1,0,3,1,4,2,1,2
63.935,3,2,6,4,1,3,1,0
63.94,2,5,25,11,2,0,3,0
63.945,0,4,2,5,3,2,7,1
63.95,2,1,8,10,2,3,4,1
63.955,3,3,19,16,15,0,0,2
63.96,1,2,22,5,14,3,5,4
63.965,0,1,15,24,8,2,1,0
63.97,7,9,52,14,6,5,3,4
63.975,6,3,13,14,8,1,3,3
63.98,3,7,87,23,1,0,8,3
63.985,1,3,73,17,6,5,9,7
63.99,3,8,53,17,4,3,5,2
63.995,2,1,76,40,7,1,3,4
64,3,8,17,11,24,2,0,3
64.005,1,1,92,54,12,6,4,2
64.01,5,4,96,56,36,2,3,5
64.015,4,8,7,2,4,3,3,3
64.02,1,3,47,5,23,6,3,3
64.025,5,8,11,47,27,8,6,1
64.03,2,2,31,38,32,5,0,1
64.035,7,9,81,90,13,4,5,8
64.04,4,12,64,20,28,4,6,5
64.045,2,3,24,16,7,0,0,5
64.05,1,12,49,33,10,0,4,4
64.055,2,3,13,31,8,2,1,0
64.06,3,6,47,27,42,6,3,3
64.065,4,29,87,98,41,1,4,3
64.07,5,28,22,13,9,1,2,3
64.075,2,4,111,79,12,2,1,3
64.08,3,9,99,43,2,3,2,1
64.085,5,35,117,57,36,6,1,1
64.09,1,29,114,41,10,7,3,3
64.095,1,2,67,36,40,10,1,3
64.1,4,6,18,80,31,0,1,0
64.105,6,17,8,63,34,8,4,4
64.11,0,25,11,25,9,7,4,3
64.115,11,8,25,9,18,8,6,7
64.12,5,12,5,10,28,6,3,3
64.125,10,18,84,23,32,3,1,2
64.13,5,33,15,15,3,2,0,3
64.135,3,15,67,46,21,6,4,5
64.14,5,27,73,20,8,3,4,1
64.145,4,29,82,0,48,5,0,2
64.15,5,6,24,18,15,4,4,3
64.155,19,42,56,71,28,14,12,11
64.16,0,6,0,0,5,6,2,3
64.165,4,24,45,2,7,5,3,4
64.17,7,19,40,68,0,1,1,3
64.175,10,20,35,33,8,8,3,5
64.18,4,6,2,19,9,0,3,2
64.185,11,10,75,29,5,6,4,4
64.19,2,15,55,5,24,2,5,4
64.195,7,22,30,44,34,4,1,2
64.2,1,1,59,99,47,4,1,1
64.205,6,9,10,33,3,2,3,7
64.21,5,12,12,10,12,2,2,3
64.215,2,8,20,51,14,2,4,2
64.22,9,33,58,26,20,4,2,5
64.225,2,3,3,69,22,2,2,0
64.23,0,1,22,38,13,1,0,2
64.235,6,20,16,9,11,1,0,0
64.24,1,13,1,37,1,1,0,2
64.245,1,2,35,23,7,1,2,1
64.25,6,30,42,60,18,2,2,1
64.255,3,2,38,30,1,0,1,0
64.26,1,4,42,22,9,3,2,1
64.265,2,6,34,28,12,1,3,2
64.27,1,9,15,2,12,0,1,1
64.275,1,6,8,14,9,1,3,1
64.28,2,5,3,13,3,2,0,1
64.285,1,7,52,13,8,1,2,2
64.29,5,3,0,9,5,6,5,2
64.295,2,0,23,9,9,2,2,2
64.3,1,5,12,0,12,0,1,2
64.305,1,2,30,7,13,4,4,2
64.31,2,3,7,7,2,0,1,2
64.315,3,6,3,8,3,1,0,2
64.32,2,1,22,5,5,2,1,2
64.325,0,2,3,9,1,1,2,0
64.33,1,2,4,6,0,2,2,4
64.335,2,2,7,4,3,0,2,1
64.34,0,2,26,12,4,3,1,0
64.345,2,1,14,1,3,2,1,1
64.35,0,1,0,4,1,3,0,0
64.355,2,1,5,4,1,1,1,2
64.36,0,0,3,3,1,2,2,0
64.365,1,2,2,4,2,1,0,1
64.37,1,2,3,1,4,1,1,0
64.375,1,2,15,1,1,0,1,2
64.38,3,2,7,2,3,2,1,1
64.385,2,0,4,1,1,2,1,1
64.39,2,2,0,0,5,1,1,0
64.395,2,2,0,2,1,2,0,3
64.4,2,1,1,2,0,0,1,0
64.405,2,1,2,4,4,3,2,0
64.41,1,1,3,1,1,1,0,0
64.415,2,4,7,1,0,1,1,1
64.42,0,2,6,1,3,1,3,4
64.425,0,0,0,1,2,2,2,2
64.43,1,3,1,2,2,1,2,2
64.435,1,1,0,2,3,2,2,0
64.44,1,1,0,2,3,1,2,2
64.445,0,1,1,4,9,1,3,1
64.45,2,2,3,0,1,2,1,1
64.455,2,1,0,1,0,2,0,2
64.46,2,4,3,2,0,3,0,0
64.465,0,1,1,0,4,1,1,2
64.47,1,1,1,3,0,0,1,2
64.475,0,0,1,0,1,1,0,0
64.48,2,1,3,0,0,1,1,0
64.485,3,5,2,2,4,3,1,3
64.49,1,2,2,3,5,2,1,2
64.495,1,1,4,1,3,1,2,0
64.5,0,2,6,1,2,0,2,1
64.505,2,1,7,6,2,3,2,1
64.51,2,2,2,5,8,5,1,3
64.515,1,2,6,5,11,0,0,1
64.52,0,1,6,7,0,0,1,1
64.525,1,5,35,14,2,2,2,2
64.53,1,3,10,3,0,1,1,1
64.535,4,2,9,2,0,0,2,5
64.54,2,2,23,7,1,0,2,4
64.545,1,2,4,4,3,0,2,1
64.55,2,0,15,3,1,1,2,2
64.555,3,3,8,2,5,0,1,3
64.56,2,0,0,1,2,1,1,1
64.565,2,0,3,1,4,2,2,0
64.57,1,1,14,4,1,2,1,0
64.575,1,0,20,5,1,0,1,1
64.58,0,1,24,3,0,1,0,0
64.585,0,1,25,4,1,0,0,4
64.59,2,2,41,3,2,2,1,1
64.595,0,3,7,5,1,0,3,2
64.6,1,1,27,23,0,1,0,0
64.605,2,8,16,24,4,1,2,1
64.61,6,11,6,8,4,3,4,4
64.615,1,4,2,11,2,3,3,2
64.62,1,2,73,6,5,2,0,7
64.625,4,5,32,16,2,1,3,0
64.63,1,0,48,13,6,5,3,4
64.635,0,1,30,11,5,4,0,1
64.64,4,9,30,9,3,1,2,3
64.645,5,8,16,29,0,4,3,4
64.65,7,8,57,12,5,7,8,6
64.655,4,8,32,14,5,5,3,3
64.66,3,4,67,37,4,4,2,1
64.665,2,6,98,33,3,1,1,1
64.67,9,21,55,56,12,7,7,9
64.675,2,10,79,12,2,1,1,2
64.68,5,11,0,6,4,4,4,4
64.685,0,5,32,17,1,2,3,1
64.69,5,10,49,2,9,5,5,3
64.695,12,19,30,2,12,13,11,9
64.7,5,18,34,73,2,3,4,3
64.705,3,4,84,21,5,1,0,1
64.71,1,5,107,75,16,4,3,3
64.715,1,9,107,53,4,1,1,1
64.72,7,12,59,70,6,4,2,1
64.725,13,42,15,41,0,7,5,6
64.73,13,14,14,70,14,14,11,11
64.735,14,10,63,117,25,6,7,8
64.74,16,3,72,51,21,8,8,11
64.745,8,41,57,19,12,0,1,2
64.75,10,76,4,48,7,8,8,4
64.755,0,11,28,37,26,3,2,2
64.76,2,46,40,47,21,7,2,2
64.765,11,18,128,106,43,1,3,4
64.77,6,37,127,12,19,5,4,6
64.775,4,11,21,2,9,2,1,4
64.78,1,29,89,67,19,7,3,1
64.785,13,29,38,70,31,9,4,7
64.79,10,32,9,4,33,4,2,2
64.795,4,20,79,13,54,12,6,2
64.8,8,15,9,37,53,17,12,8
64.805,8,3,115,67,27,7,3,2
64.81,15,44,23,90,30,10,5,6
64.815,3,4,107,53,11,1,3,1
64.82,5,12,54,36,1,6,3,3
64.825,21,54,114,33,24,6,6,9
64.83,25,87,126,52,22,16,10,12
64.835,7,30,30,0,43,9,5,5
64.84,2,27,92,61,3,7,6,5
64.845,5,22,62,22,48,9,5,2
64.85,19,100,101,19,3,6,6,7
64.855,0,11,1,30,6,0,1,1
64.86,13,22,42,47,25,10,8,9
64.865,6,13,76,80,24,11,7,7
64.87,7,2,26,15,33,8,4,8
64.875,3,22,25,70,47,14,6,6
64.88,14,50,15,39,34,15,9,9
64.885,5,20,45,41,19,1,0,2
64.89,3,45,80,88,5,1,0,1
64.895,27,68,24,64,29,15,14,18
64.9,0,2,18,33,18,6,2,2
64.905,3,3,2,25,45,9,2,2
64.91,12,48,19,4,25,13,6,6
64.915,5,1,9,15,6,7,5,6
64.92,6,10,22,8,3,5,1,5
64.925,13,36,40,2,29,8,6,6
64.93,0,15,83,10,0,2,1,2
64.935,2,22,59,59,8,4,3,2
64.94,21,72,96,73,28,1,2,8
64.945,1,31,55,26,17,5,5,2
64.95,6,36,1,9,13,6,7,3
64.955,6,7,61,68,6,2,3,3
64.96,3,3,5,92,3,1,4,2
64.965,9,15,33,18,24,12,9,9
64.97,8,52,46,7,7,1,2,0
64.975,4,8,111,54,11,6,4,4
64.98,9,30,43,58,5,1,2,1
64.985,3,8,35,2,8,3,2,1
64.99,3,6,28,47,3,4,3,2
64.995,3,12,99,39,9,2,1,2
65,2,9,67,42,19,5,4,2
65.005,3,1,36,12,23,5,1,0
65.01,3,7,10,7,9,1,0,2
65.015,1,1,21,2,1,0,2,2
65.02,0,11,29,20,4,0,4,2
65.025,2,1,2,11,20,4,3,3
65.03,6,12,2,15,9,1,1,2
65.035,2,7,17,1,3,1,1,0
65.04,0,5,37,29,3,2,0,1
65.045,0,8,41,67,7,1,2,1
65.05,5,13,10,17,3,4,4,3
65.055,0,2,35,15,5,1,1,1
65.06,0,4,8,1,0,1,0,0
65.065,3,2,2,4,4,0,1,0
65.07,3,3,1,1,6,3,3,3
65.075,1,8,14,21,12,1,1,1
65.08,1,0,5,29,12,3,1,2
65.085,5,3,1,11,4,1,2,2
65.09,2,2,4,10,2,2,1,2
65.095,1,1,6,8,0,2,3,2
65.1,1,4,17,7,4,0,2,1
65.105,1,4,1,21,2,0,0,1
65.11,4,3,4,33,1,3,3,3
65.115,1,1,3,23,5,3,1,1
65.12,1,2,5,12,0,2,2,0
65.125,0,2,6,14,2,2,1,1
65.13,1,1,3,2,9,4,2,0
65.135,3,4,20,5,6,1,1,2
65.14,2,1,9,17,1,0,2,2
65.145,1,2,20,7,1,2,2,3
65.15,2,6,77,24,3,0,3,0
65.155,4,6,26,23,8,3,2,3
65.16,0,0,6,5,3,3,0,2
65.165,1,2,8,1,4,1,3,3
65.17,1,3,14,7,6,0,0,0
65.175,1,1,5,11,1,1,1,0
65.18,1,1,17,6,1,2,3,1
65.185,1,1,0,6,4,2,0,1
65.19,1,1,3,1,3,1,1,1
65.195,2,2,5,11,0,0,1,2
65.2,0,0,0,3,1,2,1,1
65.205,2,3,11,15,1,0,2,2
65.21,1,3,7,3,2,0,0,4
65.215,1,2,3,6,2,2,1,2
65.22,1,2,2,0,2,1,2,0
65.225,0,2,7,4,4,4,1,0
65.23,2,4,3,6,2,1,1,1
65.235,0,4,5,2,1,1,2,3
65.24,2,5,1,11,2,3,2,1
65.245,1,1,9,19,6,2,1,2
65.25,1,3,13,8,0,0,3,1
65.255,1,2,2,6,1,1,1,0
65.26,1,2,2,6,4,2,1,2
65.265,0,3,25,18,2,0,1,1
65.27,3,5,75,20,5,2,0,4
65.275,2,2,16,4,5,2,1,0
65.28,0,1,4,1,3,4,1,0
65.285,2,3,3,3,4,1,2,1
65.29,2,2,20,6,3,0,1,1
65.295,1,1,7,1,3,4,1,1
65.3,0,3,9,9,4,2,1,2
65.305,1,3,3,4,3,0,1,1
65.31,1,4,13,2,2,1,1,1
65.315,2,5,9,0,2,2,2,1
65.32,3,0,9,2,1,0,1,1
65.325,2,3,10,6,4,1,1,0
65.33,1,3,10,4,3,2,1,1
65.335,1,0,0,4,0,0,0,0
65.34,0,2,3,8,1,1,2,0
65.345,1,1,10,6,1,0,0,1
65.35,2,3,6,6,0,1,1,0
65.355,0,0,3,8,1,0,1,1
65.36,1,3,3,6,2,1,2,1
65.365,0,1,7,11,4,0,1,0
65.37,1,0,15,5,3,1,2,1
65.375,2,5,10,11,0,2,1,2
65.38,3,2,3,5,7,4,2,2
65.385,0,4,3,6,10,4,2,1
65.39,1,1,15,16,11,2,0,1
65.395,0,3,3,13,5,1,1,1
65.4,2,3,1,4,5,1,0,1
65.405,0,1,4,6,2,1,3,2
65.41,0,3,9,3,7,2,2,2
65.415,4,2,23,11,4,2,2,1
65.42,1,4,17,4,4,1,0,2
65.425,2,0,19,15,6,0,1,2
65.43,1,4,12,22,2,1,1,0
65.435,1,2,1,27,5,3,3,1
65.44,1,0,4,20,2,2,0,0
65.445,1,0,0,11,2,0,3,1
65.45,3,0,17,1,2,3,2,6
65.455,20,1,21,16,32,24,17,17
65.46,10,10,17,96,13,1,2,6
65.465,3,7,74,34,6,2,1,0
65.47,3,37,63,36,5,0,1,1
65.475,8,9,81,96,25,5,2,3
65.48,7,2,74,127,1,6,5,9
65.485,14,21,58,34,0,5,8,12
65.49,2,11,22,74,4,0,1,5
65.495,3,1,99,57,4,0,1,1
65.5,11,12,96,91,13,4,9,10
65.505,3,8,50,34,17,5,3,5
65.51,1,6,61,24,2,0,2,1
65.515,6,1,7,19,18,1,2,4
65.52,1,0,2,17,2,1,1,1
65.525,1,3,14,13,10,1,3,0
65.53,1,1,26,9,0,0,1,4
65.535,1,3,37,16,2,0,1,1
65.54,4,2,10,27,1,4,4,3
65.545,1,5,51,21,0,2,1,1
65.55,5,8,33,5,0,0,2,6
65.555,2,1,3,15,6,2,3,1
65.56,2,3,23,15,2,1,0,4
65.565,2,1,20,3,6,3,2,1
65.57,3,7,17,26,4,0,1,0
65.575,1,8,21,1,3,1,0,1
65.58,0,1,7,5,8,1,1,3
65.585,3,1,26,1,3,1,3,0
65.59,2,1,15,1,6,2,1,1
65.595,3,2,8,8,0,1,2,2
65.6,2,8,40,7,4,0,0,3
65.605,3,1,18,11,6,1,0,5
65.61,3,1,6,21,8,0,1,6
65.615,0,2,64,38,8,3,1,0
65.62,1,0,6,4,1,0,1,0
65.625,1,1,6,11,1,1,0,0
65.63,2,3,10,1,4,2,0,2
65.635,1,3,5,2,4,2,2,0
65.64,0,2,2,1,2,1,2,1
65.645,1,2,12,21,5,1,0,3
65.65,3,4,23,3,2,0,0,2
65.655,0,3,2,8,5,1,0,2
65.66,1,3,9,9,10,4,2,1
65.665,6,17,7,2,5,5,4,4
65.67,3,1,4,1,4,0,1,4
65.675,1,1,5,10,3,1,2,3
65.68,0,0,7,23,3,2,1,2
65.685,1,1,28,17,5,1,0,0
65.69,2,2,9,7,0,1,0,1
65.695,2,2,23,5,14,2,0,2
65.7,0,2,18,7,2,0,0,2
65.705,2,2,4,5,1,0,0,3
65.71,1,2,12,11,1,0,2,2
65.715,1,2,23,3,0,2,2,0
65.72,4,5,75,13,2,4,4,3
65.725,1,1,25,0,4,1,0,2
65.73,2,2,39,6,4,4,0,1
65.735,0,1,30,25,2,1,1,1
65.74,2,7,1,2,0,1,1,2
65.745,3,6,21,30,4,1,1,2
65.75,2,5,18,3,1,2,2,2
65.755,2,9,38,19,6,3,3,3
65.76,0,1,7,18,7,3,0,1
65.765,1,6,22,21,7,3,1,2
65.77,3,5,16,41,4,5,5,6
65.775,2,2,54,12,2,2,4,5
65.78,0,13,49,4,0,1,0,7
65.785,4,10,98,42,1,2,1,1
65.79,3,4,53,11,4,0,0,4
65.795,1,3,53,26,1,1,2,1
65.8,3,1,3,4,0,1,0,5
65.805,3,3,7,7,2,3,1,4
65.81,1,1,26,2,0,1,1,5
65.815,3,0,42,16,1,0,0,17
65.82,7,2,7,1,2,1,1,16
65.825,3,2,3,1,2,2,2,0
65.83,5,5,2,1,2,0,5,1
65.835,9,7,21,0,0,0,0,7
65.84,3,6,6,1,2,1,0,7
65.845,3,11,14,3,1,0,0,2
65.85,0,4,3,1,2,2,0,2
65.855,2,6,9,5,3,0,1,3
65.86,1,3,2,0,2,2,2,1
65.865,1,2,8,0,0,2,0,1
65.87,2,3,7,0,1,3,3,3
65.875,2,3,2,0,0,1,1,1
65.88,2,4,3,1,1,3,1,3
65.885,2,3,5,0,0,1,2,3
65.89,1,2,8,6,1,0,0,2
65.895,0,1,23,9,1,1,0,2
65.9,3,1,58,1,2,3,0,1
65.905,3,0,45,6,1,1,1,2
65.91,5,1,7,1,1,1,1,5
65.915,0,0,2,2,3,1,3,1
65.92,0,1,12,2,1,2,3,2
65.925,3,5,9,2,0,2,1,4
65.93,3,7,10,5,4,2,2,1
65.935,1,2,19,6,1,1,1,0
65.94,0,0,1,3,3,1,0,3
65.945,1,4,1,1,1,1,0,3
65.95,2,3,10,4,2,1,2,7
65.955,1,0,5,4,3,3,2,5
65.96,3,4,4,1,1,1,1,2
65.965,4,2,6,4,3,2,1,0
65.97,3,1,0,2,1,0,1,0
65.975,0,2,5,4,0,1,3,2
65.98,2,4,3,7,5,2,4,4
65.985,2,4,8,3,0,2,2,5
65.99,4,2,1,0,4,1,2,4
65.995,1,1,0,8,4,4,1,1
66,0,2,8,11,5,2,2,5
66.005,2,2,3,11,6,1,2,3
66.01,3,2,2,1,2,2,1,1
66.015,0,1,5,3,1,0,1,0
66.02,4,2,17,4,2,3,1,4
66.025,2,5,28,16,15,2,2,1
66.03,2,1,22,13,21,4,1,2
66.035,3,2,56,5,4,0,3,4
66.04,1,3,2,3,1,2,0,0
66.045,0,3,11,12,2,1,1,2
66.05,1,0,3,0,5,1,1,3
66.055,2,0,11,2,1,1,2,0
66.06,1,2,9,4,1,1,0,2
66.065,2,1,19,7,4,1,1,3
66.07,2,2,17,10,8,5,1,0
66.075,0,2,15,0,2,2,1,1
66.08,3,1,9,1,1,0,1,1
66.085,2,1,14,7,1,1,1,2
66.09,1,1,2,1,2,0,1,0
66.095,0,4,1,11,7,1,2,3
66.1,3,1,3,13,10,0,1,1
66.105,2,1,3,2,3,0,0,3
66.11,0,2,1,13,1,3,0,1
66.115,3,1,11,9,2,3,1,1
66.12,2,1,8,3,1,1,2,2
66.125,1,3,31,10,2,1,0,0
66.13,3,4,21,1,5,3,3,5
66.135,1,2,39,15,2,2,2,1
66.14,3,5,3,13,5,0,1,4
66.145,3,2,4,19,2,3,1,6
66.15,3,2,0,34,9,1,1,2
66.155,0,3,7,4,7,3,1,0
66.16,1,4,10,0,9,3,2,4
66.165,3,4,18,11,2,1,3,1
66.17,1,2,22,27,3,1,0,0
66.175,1,0,10,2,13,0,1,1
66.18,1,1,2,1,3,2,1,0
66.185,0,1,28,14,11,2,0,1
66.19,0,1,26,32,11,2,0,2
66.195,3,6,7,2,9,4,4,6
66.2,1,3,8,3,1,1,2,5
66.205,6,6,28,15,13,6,4,4
66.21,2,2,12,6,2,1,2,3
66.215,0,1,0,12,7,1,0,1
66.22,3,2,63,39,14,5,4,4
66.225,5,8,13,32,22,8,5,4
66.23,1,0,4,6,3,2,1,0
66.235,2,2,24,2,3,2,0,1
66.24,5,13,77,0,2,5,5,6
66.245,2,2,21,15,3,2,0,0
66.25,3,0,26,3,7,2,0,0
66.255,0,4,47,29,13,0,0,1
66.26,1,7,44,7,3,0,0,3
66.265,1,0,22,3,5,2,3,1
66.27,0,3,1,0,4,0,1,1
66.275,1,1,42,30,0,3,3,3
66.28,2,5,52,12,6,4,4,0
66.285,2,1,21,21,8,2,2,2
66.29,2,8,3,15,6,1,1,2
66.295,3,20,55,26,2,3,1,0
66.3,2,7,83,3,7,1,2,1
66.305,6,3,48,32,10,8,5,4
66.31,4,13,11,1,24,2,2,5
66.315,3,6,9,5,3,0,0,2
66.32,3,8,57,38,8,1,2,0
66.325,2,8,64,7,3,4,4,2
66.33,3,18,70,35,2,7,4,5
66.335,10,37,101,66,12,7,6,6
66.34,3,2,21,18,28,1,1,3
66.345,2,14,74,1,27,1,1,1
66.35,2,21,82,65,53,9,3,0
66.355,7,33,7,60,6,3,3,2
66.36,0,30,4,61,80,8,2,1
66.365,1,23,20,3,31,7,1,4
66.37,3,32,22,32,35,10,1,0
66.375,5,68,100,26,60,10,3,2
66.38,6,23,25,24,30,5,5,5
66.385,9,44,48,6,19,5,1,3
66.39,5,0,2,60,17,4,6,6
66.395,6,21,24,40,70,9,1,3
66.4,8,45,33,5,52,9,4,6
66.405,13,30,29,5,56,7,4,6
66.41,0,41,43,34,2,3,1,1
66.415,1,31,50,7,22,13,9,4
66.42,6,19,89,71,109,25,11,7
66.425,7,35,92,38,4,8,5,5
66.43,19,31,24,18,40,14,9,12
66.435,15,54,72,89,12,12,8,11
66.44,1,9,52,21,23,10,6,4
66.445,9,42,12,16,21,0,4,3
66.45,10,27,18,1,76,9,2,3
66.455,13,4,56,124,20,4,5,5
66.46,6,2,114,128,52,12,4,3
66.465,6,22,96,71,6,6,5,5
66.47,6,8,65,39,28,4,3,5
66.475,9,40,12,43,14,2,2,4
66.48,3,0,51,48,2,0,0,1
66.485,6,16,19,13,18,5,5,6
66.49,7,20,51,24,26,3,2,0
66.495,3,8,38,9,18,8,3,2
66.5,10,57,126,80,2,1,1,5
66.505,6,25,33,95,29,2,1,0
66.51,7,6,40,14,18,10,8,7
66.515,2,4,119,28,13,2,2,3
66.52,1,11,64,12,34,6,2,1
66.525,1,20,39,25,32,6,1,1
66.53,0,5,37,17,10,1,2,3
66.535,1,10,5,16,16,1,2,3
66.54,4,18,22,15,4,1,0,0
66.545,4,34,128,58,7,9,6,2
66.55,2,3,32,42,5,1,0,1
66.555,8,6,18,9,5,1,0,0
66.56,4,4,33,5,1,3,5,7
66.565,1,17,3,12,9,2,1,3
66.57,4,7,17,16,20,6,3,2
66.575,0,6,18,34,11,4,2,1
66.58,0,6,7,18,9,3,2,0
66.585,1,1,4,26,4,1,0,1
66.59,1,1,31,50,26,4,1,2
66.595,5,15,8,45,12,2,4,3
66.6,4,4,18,37,5,1,1,0
66.605,2,2,22,5,2,2,4,1
66.61,1,3,9,4,2,0,1,1
66.615,1,4,22,3,6,2,3,1
66.62,3,7,1,19,1,2,0,0
66.625,2,5,6,5,1,2,3,2
66.63,2,3,3,0,2,0,0,3
66.635,0,5,2,9,2,1,1,5
66.64,2,2,16,23,1,3,0,4
66.645,5,5,14,23,8,1,0,2
66.65,0,6,4,25,6,1,0,2
66.655,1,2,6,0,6,3,0,5
66.66,1,2,1,2,2,1,2,1
66.665,1,1,1,7,2,2,1,2
66.67,1,0,8,22,3,2,0,1
66.675,1,0,5,7,4,1,0,2
66.68,2,3,3,7,5,1,3,1
66.685,0,3,4,1,1,2,2,2
66.69,2,1,5,7,1,2,2,1
66.695,1,6,34,3,2,1,2,6
66.7,5,3,3,0,2,1,0,0
66.705,5,4,30,5,2,0,2,6
66.71,2,2,7,5,1,1,0,1
66.715,2,0,26,9,1,0,1,5
66.72,2,1,15,12,2,3,4,3
66.725,0,2,7,6,1,1,2,1
66.73,3,2,4,5,2,0,1,0
66.735,2,3,9,1,2,1,1,4
66.74,3,2,1,7,2,2,2,1
66.745,2,2,4,3,1,0,1,2
66.75,1,1,5,1,1,1,2,0
66.755,0,1,7,0,2,2,2,5
66.76,1,2,8,4,3,3,1,1
66.765,1,0,7,2,0,1,0,4
66.77,1,3,0,5,1,1,1,2
66.775,1,5,0,4,2,3,1,4
66.78,2,3,0,3,1,3,1,6
66.785,4,3,1,4,1,1,0,0
66.79,4,1,0,0,3,2,0,1
66.795,2,3,3,2,1,1,3,4
66.8,2,0,1,3,4,1,0,0
66.805,1,3,3,0,1,5,4,1
66.81,1,4,6,0,0,0,1,2
66.815,1,1,2,0,1,2,3,1
66.82,1,0,1,2,2,0,2,1
66.825,2,2,1,3,3,3,3,0
66.83,2,1,1,1,0,0,2,0
66.835,2,1,1,1,4,1,2,4
66.84,0,2,16,1,2,2,1,5
66.845,1,5,15,7,0,1,1,3
66.85,3,4,21,9,2,2,1,2
66.855,2,1,11,1,0,1,1,1
66.86,3,1,4,10,1,0,1,3
66.865,1,1,13,4,0,1,1,2
66.87,1,4,1,5,1,2,3,0
66.875,3,3,6,8,1,2,4,1
66.88,2,2,3,0,5,1,1,3
66.885,1,1,1,4,7,1,1,0
66.89,2,5,1,5,5,0,2,3
66.895,1,2,2,1,3,3,1,0
66.9,2,0,7,0,1,2,2,2
66.905,2,0,1,3,4,1,0,2
66.91,0,3,3,3,1,2,2,2
66.915,2,2,3,4,0,1,0,1
66.92,1,2,4,5,1,1,0,2
66.925,1,1,3,0,1,1,1,2
66.93,2,1,2,1,1,3,1,2
66.935,1,2,2,1,0,0,1,2
66.94,2,2,8,0,2,2,2,3
66.945,1,2,1,0,2,0,0,3
66.95,0,1,5,1,0,1,0,0
66.955,0,2,8,2,5,2,0,0
66.96,3,6,29,7,3,1,2,4
66.965,1,1,6,7,14,2,3,2
66.97,2,4,0,4,2,0,2,1
66.975,3,5,20,12,5,1,1,1
66.98,2,1,58,11,3,2,3,0
66.985,4,3,3,27,20,6,5,2
66.99,1,5,18,23,23,2,1,1
66.995,4,11,34,5,8,2,1,3
67,1,1,22,4,10,1,1,2
67.005,1,5,7,1,15,1,1,1
67.01,1,1,6,14,9,3,2,2
67.015,1,2,15,7,9,3,0,2
67.02,1,1,46,11,9,2,0,1
67.025,4,6,62,8,6,2,0,2
67.03,3,3,15,9,1,1,3,1
67.035,3,2,24,2,6,4,2,2
67.04,4,1,41,13,4,0,0,0
67.045,2,3,37,2,9,2,1,3
67.05,1,3,2,7,2,1,0,0
67.055,1,1,44,2,3,1,2,3
67.06,1,0,5,3,8,1,2,2
67.065,1,9,83,20,3,1,1,3
67.07,2,0,33,19,5,1,1,1
67.075,2,1,3,9,3,0,1,1
67.08,3,5,13,16,7,3,2,2
67.085,2,5,34,10,0,0,2,1
67.09,1,1,30,9,6,1,1,1
67.095,1,5,55,22,6,2,1,2
67.1,1,4,14,10,7,2,2,0
67.105,3,8,9,3,10,1,2,1
67.11,7,11,46,3,5,5,6,9
67.115,2,5,52,22,2,2,0,5
67.12,0,3,12,4,1,0,2,0
67.125,3,4,53,4,3,1,2,7
67.13,5,0,48,42,4,1,0,9
67.135,7,11,19,12,0,5,5,6
67.14,1,1,76,24,2,0,0,2
67.145,1,5,41,14,0,2,0,1
67.15,0,9,127,11,3,0,1,4
67.155,0,3,52,1,7,1,2,0
67.16,0,4,28,5,1,1,3,0
67.165,1,2,79,7,2,0,1,4
67.17,4,14,81,3,0,3,2,3
67.175,4,3,118,5,9,6,5,5
67.18,3,7,108,23,2,1,1,1
67.185,3,2,50,11,17,7,4,2
67.19,4,8,19,10,15,4,1,2
67.195,3,5,24,23,10,8,5,3
67.2,11,6,28,6,13,8,5,8
67.205,9,2,46,45,4,3,4,8
67.21,17,24,69,27,13,10,6,9
67.215,7,15,36,9,14,8,8,7
67.22,6,18,16,75,5,5,4,3
67.225,3,4,58,93,15,2,0,2
67.23,1,9,97,9,10,3,0,1
67.235,3,16,122,32,23,8,2,1
67.24,2,23,20,7,4,1,1,2
67.245,10,13,8,5,18,7,4,4
67.25,9,25,16,64,11,8,5,5
67.255,9,36,14,41,19,6,3,8
