timestamp,ch1,ch2,ch3,ch4,ch5,ch6,ch7,ch8
15.125,0,0,14,8,1,1,-1,0
15.13,-2,-2,-5,-3,-4,-3,-1,-2
15.135,0,-3,-3,-2,1,-2,0,-2
15.14,1,-1,-2,-4,-4,-3,0,-1
15.145,-4,-3,-7,-7,-1,-2,-1,-1
15.15,0,2,13,7,-2,-3,-2,-2
15.155,0,1,7,2,-1,-1,-3,-2
15.16,3,0,0,-1,1,0,1,1
15.165,0,-2,-7,-8,-1,-1,-1,-1
15.17,-1,-4,-5,-2,-1,-2,-2,0
15.175,-1,-2,-2,-1,1,1,0,1
15.18,-2,-2,1,1,-1,-2,-3,-1
15.185,1,2,11,8,2,2,3,1
15.19,-1,-2,-5,-3,-2,1,-2,-1
15.195,-2,0,-3,1,0,-1,-2,-1
15.2,-2,-2,2,-3,-4,-3,-2,-1
15.205,-1,-2,-8,-3,0,-1,0,-2
15.21,0,-2,5,-1,-1,-2,-1,-1
15.215,0,-2,-2,-2,-2,0,-2,-1
15.22,-1,0,0,-1,-1,-3,-2,-3
15.225,1,2,12,10,-1,2,2,0
15.23,-3,-4,-18,-14,0,0,1,1
15.235,-1,-2,9,2,2,-3,-2,-3
15.24,-2,-1,-8,-3,-1,-1,-1,-1
15.245,-2,0,3,2,-1,-3,-2,-3
15.25,0,2,11,9,-1,-1,-1,-2
15.255,-3,-1,-17,-5,-3,-3,0,-2
15.26,-2,-1,4,-2,-2,0,0,-1
15.265,-1,-2,-11,-5,0,0,-3,-1
15.27,-1,-1,2,2,0,1,1,0
15.275,-2,-1,7,-1,-2,-1,1,-1
15.28,-1,-3,-9,-1,-1,0,-3,-2
15.285,-2,-2,-1,-3,-1,-2,-2,-1
15.29,-1,-2,-3,0,1,-1,-1,-2
15.295,1,4,22,6,-3,-3,-2,-2
15.3,-3,-2,-14,-1,1,2,2,0
15.305,-2,-2,0,-4,-2,1,-1,-2
15.31,0,0,0,2,-3,-3,-3,-3
15.315,0,-2,-8,-4,0,-1,0,-1
15.32,0,1,7,3,1,1,2,-1
15.325,-1,-1,-15,-7,0,-2,-2,-3
15.33,-1,1,13,2,-3,-1,0,-1
15.335,-2,-2,-10,0,0,-2,-3,-2
15.34,-1,-1,9,-4,-2,-1,-4,0
15.345,-1,-3,-10,-4,-3,-3,0,0
15.35,-3,-2,0,-7,-1,-1,0,-1
15.355,-2,-1,-3,-5,-4,-1,-2,-2
15.36,0,-1,4,4,0,2,-2,-3
15.365,0,0,2,0,-1,-3,-2,-2
15.37,0,-3,-3,-3,-1,-4,-1,-1
15.375,-1,-1,-3,-2,0,-2,-1,0
15.38,-1,-1,-1,2,-2,-3,0,1
15.385,-1,0,-2,-3,-4,1,0,1
15.39,1,1,1,3,-1,-2,-1,-1
15.395,-3,-4,-19,-14,-2,-1,-2,-1
15.4,-1,1,0,2,0,-3,-1,-2
15.405,-2,-1,4,-5,-1,-2,-2,-1
15.41,-1,-1,-9,0,-2,-1,-1,-2
15.415,1,1,8,5,-1,2,1,-2
15.42,-1,-3,-8,-6,-2,-1,-2,-1
15.425,-1,-2,3,3,0,0,0,1
15.43,-2,0,-6,5,0,-1,-1,0
15.435,-1,-1,10,-4,-7,-4,-2,-2
15.44,-5,-3,-11,-7,1,2,2,-7
15.445,3,1,22,16,4,-2,0,3
15.45,0,-1,-20,-9,-2,2,0,1
15.455,-1,1,6,1,1,-1,1,-1
15.46,2,1,-1,5,-2,-1,-3,5
15.465,-2,-2,4,-15,-8,-3,-2,-2
15.47,-5,-8,9,3,-5,-7,-5,-5
15.475,-1,3,11,13,5,4,1,-2
15.48,-3,-3,1,-3,-2,-1,-1,-3
15.485,2,5,20,25,3,-1,-1,1
15.49,0,-2,-12,-20,-3,0,-1,-1
15.495,-4,-6,-22,-14,-4,-3,-2,-3
15.5,4,4,8,7,4,0,1,2
15.505,1,0,-12,17,1,1,-1,-1
15.51,-9,-13,-30,-46,-12,-6,-4,-6
15.515,0,0,3,5,-3,-3,-1,-1
15.52,-3,-2,5,3,-2,-1,-3,-1
15.525,5,9,32,21,9,9,5,4
15.53,1,4,31,6,5,-3,-1,1
15.535,-5,-4,-81,-23,-3,0,0,0
15.54,-5,-11,-36,-37,-10,-6,-6,-3
15.545,-3,3,44,27,-2,-4,-4,-4
15.55,6,30,15,-3,2,4,2,3
15.555,-6,-27,-41,-4,0,2,1,-3
15.56,6,17,51,41,5,1,1,0
15.565,-17,-34,-101,-86,-24,-16,-9,-11
15.57,7,16,34,13,8,6,3,4
15.575,2,7,16,-11,-6,-8,-4,0
15.58,4,8,17,10,5,2,2,1
15.585,-3,-6,-15,-2,0,0,-1,-2
15.59,-2,1,19,23,0,0,-2,-1
15.595,-2,-6,15,5,-3,-1,-3,-2
15.6,-4,-8,-8,-17,-3,1,0,0
15.605,1,-1,11,-2,-1,-2,-1,1
15.61,-4,-8,-9,8,2,1,1,-3
15.615,11,26,55,20,16,8,6,7
15.62,-9,-17,-43,-11,-20,-9,-5,-6
15.625,-4,-1,-11,-16,-5,-4,-6,-7
15.63,2,-2,6,11,1,0,-1,1
15.635,5,11,28,1,8,5,3,2
15.64,5,10,58,15,8,1,1,2
15.645,-4,-7,-25,-32,-4,-2,-2,-2
15.65,-17,-34,-46,-24,-20,-13,-8,-10
15.655,3,12,8,7,-1,0,-2,2
15.66,3,-1,-22,-5,6,5,2,2
15.665,7,19,36,41,12,5,2,4
15.67,-9,-25,-75,-63,-21,-12,-7,-8
15.675,-5,-8,25,29,-4,-4,-3,-4
15.68,-5,-2,-35,-36,-2,-1,-2,-2
15.685,8,14,82,66,15,8,6,5
15.69,0,6,-32,-6,-7,-5,-5,-3
15.695,5,7,38,38,10,7,4,3
15.7,-11,-29,16,70,6,-5,-7,-8
15.705,0,-2,-85,-84,-18,-4,-1,1
15.71,-4,2,127,81,3,-2,-3,-3
15.715,-25,-53,-120,-112,-45,-25,-17,-18
15.72,0,-21,15,30,12,4,1,1
15.725,11,28,60,-64,5,7,5,7
15.73,6,9,-44,2,12,7,4,3
15.735,2,7,84,73,9,1,1,-1
15.74,-4,0,-51,51,5,3,0,-2
15.745,4,9,57,-7,-2,0,-1,2
15.75,0,-6,-8,8,-3,-3,-1,-1
15.755,-2,3,74,106,14,2,0,-2
15.76,-23,-19,-55,-117,-41,-25,-15,-15
15.765,-7,-17,64,104,8,-5,-5,-5
15.77,16,36,64,-44,4,7,7,9
15.775,5,25,-22,-50,12,7,3,4
15.78,-9,10,93,56,-3,2,-2,-5
15.785,-4,8,-7,-84,-18,-15,-6,-6
15.79,0,22,2,15,3,-2,-2,-2
15.795,8,22,-14,-80,-1,4,3,5
15.8,36,46,18,-24,41,35,25,23
15.805,-27,-46,-80,-57,-35,-20,-14,-17
15.81,9,23,32,75,17,11,5,4
15.815,1,2,-84,-113,-30,-16,-7,-2
15.82,-4,-4,-42,-54,-4,-4,-5,-5
15.825,16,66,70,127,35,9,4,7
15.83,-25,-74,-128,-128,-63,-17,-11,-11
15.835,8,35,95,35,4,-1,-1,1
15.84,40,55,78,114,45,28,21,27
15.845,-49,-75,-41,-76,-93,-42,-30,-33
15.85,15,44,71,10,28,12,8,9
15.855,-4,3,104,96,21,7,2,-4
15.86,-7,-19,-26,-59,-30,-16,-14,-10
15.865,40,69,99,52,59,33,17,27
15.87,-46,-73,-25,-27,-28,-15,-13,-22
15.875,-14,-11,59,42,8,3,0,-5
15.88,23,68,34,-15,48,26,16,15
15.885,-20,-99,48,64,-2,-8,-11,-14
15.89,14,43,18,-46,-1,1,2,6
15.895,-2,-43,-55,-51,-18,-10,-5,-5
15.9,9,46,71,82,19,-3,1,2
15.905,8,37,-25,-34,12,7,8,6
15.91,14,8,117,53,22,12,9,11
15.915,-57,-110,-128,-114,-92,-49,-30,-33
15.92,-22,-47,-35,-79,-42,-23,-12,-13
15.925,12,48,-64,-76,-34,-15,-6,-4
15.93,-4,-61,-10,9,-7,-14,-16,-16
15.935,14,70,73,91,51,26,14,14
15.94,4,52,127,13,-1,6,4,3
15.945,-12,6,36,85,-10,-11,-6,-10
15.95,32,78,80,55,38,26,20,19
15.955,-2,3,74,106,14,2,0,-2
15.96,-23,-19,-55,-117,-41,-25,-15,-15
15.965,-7,-17,64,104,8,-5,-5,-5
15.97,16,36,64,-44,4,7,7,9
15.975,5,25,-22,-50,12,7,3,4
15.98,-9,10,93,56,-3,2,-2,-5
15.985,22,20,2,41,49,34,21,18
15.99,-48,-67,-55,-6,-30,-40,-28,-30
15.995,48,97,53,37,40,25,20,25
16,3,29,103,50,17,5,5,6
16.005,-29,-58,-78,-104,-29,-12,-12,-16
16.01,14,26,62,-22,-5,1,5,9
16.015,10,22,34,35,11,8,4,6
16.02,-21,-44,-128,-80,-40,-25,-17,-18
16.025,32,53,65,82,46,27,21,21
16.03,-1,5,73,85,9,-1,-1,-2
16.035,-1,3,28,-23,4,7,1,0
16.04,6,50,75,64,14,0,-1,4
16.045,-19,-58,-122,-68,-16,-3,-1,-8
16.05,-4,5,-61,-22,0,1,-1,0
16.055,2,-3,6,15,11,5,3,2
16.06,4,-27,-27,1,3,5,5,4
16.065,-24,-11,80,19,-16,-18,-14,-17
16.07,10,43,93,32,16,4,2,4
16.075,-9,-35,41,0,-16,-8,-3,-1
16.08,-24,-74,-96,-51,-25,-16,-16,-17
16.085,9,30,-15,16,19,8,5,3
16.09,13,14,-37,-13,2,2,2,8
16.095,-5,-21,-21,19,1,0,-4,2
16.1,-8,-26,-30,21,7,2,-1,-4
16.105,8,33,-11,-6,-9,-7,-4,1
16.11,-11,-27,-30,-28,-7,-4,-1,-4
16.115,16,27,18,-36,13,8,6,7
16.12,-12,-18,24,-9,-26,-17,-11,-10
16.125,2,-3,10,-8,9,3,0,1
16.13,-2,-12,-55,-14,6,8,5,2
16.135,6,24,30,-36,-3,-2,0,1
16.14,3,8,77,29,-4,-5,0,2
16.145,-3,-4,68,0,-5,-5,-2,0
16.15,-3,20,-1,-15,-13,-6,-5,-4
16.155,1,-22,-52,2,-1,-1,0,0
16.16,2,5,35,20,-1,3,1,-1
16.165,4,-7,12,-13,0,1,2,3
16.17,1,-10,-57,5,6,3,2,3
16.175,-14,-53,-91,-32,-14,-8,-7,-9
16.18,3,4,5,8,-1,-2,0,1
16.185,-9,-32,-26,1,-6,-3,-3,-5
16.19,1,3,17,15,2,2,-2,-5
16.195,-2,10,18,-6,-4,-5,-4,1
16.2,2,-3,-45,-19,-5,0,1,3
16.205,-4,-8,-40,-10,-1,1,-1,-12
16.21,-6,-25,-12,-7,-4,-1,-1,-3
16.215,0,12,4,2,-1,-1,-2,-1
16.22,10,11,11,10,4,5,6,21
16.225,-12,-3,-8,-2,-5,-4,-7,-25
16.23,4,14,26,10,4,0,1,2
16.235,-4,6,-3,-4,-5,-4,-1,-5
16.24,-8,-6,-26,-16,-3,1,-2,-6
16.245,5,0,-6,-2,-1,0,0,7
16.25,-1,-10,-13,-6,-5,-4,-1,1
16.255,12,0,-12,-6,-1,-1,-2,7
16.26,-6,4,15,-6,1,-1,-1,-2
16.265,4,9,0,2,-1,4,4,14
16.27,-5,-6,4,3,1,-3,-1,-10
16.275,2,3,7,1,0,3,0,-2
16.28,-6,-9,-4,-2,0,-1,0,2
16.285,10,1,-4,-1,0,1,-1,8
16.29,7,1,-2,-6,-4,-3,-1,4
16.295,-4,6,-9,-1,-1,-1,0,1
16.3,-2,-4,-21,-7,-2,-1,-4,-7
16.305,-3,-9,-5,-3,-3,-1,-1,7
16.31,-4,5,-3,-2,0,1,-1,-8
16.315,-6,11,16,6,0,-2,-3,-6
16.32,-2,-11,-2,-1,-2,0,-4,-5
16.325,0,-3,-16,-11,-1,-2,0,-2
16.33,3,-1,9,1,-1,-1,-3,5
16.335,-5,1,-4,-5,-2,-4,0,-7
16.34,2,4,6,4,4,2,4,0
16.345,0,0,5,4,-2,-4,-3,-4
16.35,-6,-8,-11,-3,-1,0,0,1
16.355,0,-1,1,0,-3,0,-1,2
16.36,-7,2,-3,-5,-4,-3,-4,-18
16.365,4,6,-3,4,6,3,3,5
16.37,-6,-22,-3,-4,-5,-3,-4,0
16.375,-3,1,4,-2,-5,-4,-2,-4
16.38,4,-3,-7,-3,-4,-4,0,2
16.385,-1,13,-6,3,4,2,0,-2
16.39,-3,-9,21,3,0,0,1,-2
16.395,-1,3,-38,-11,-3,-3,-3,-2
16.4,-3,-17,-7,2,-3,-2,-3,-1
16.405,-3,12,19,-5,-5,-5,-3,-4
16.41,2,1,-15,-8,-3,0,-2,0
16.415,-3,-5,1,-7,-3,-1,-2,-4
16.42,0,10,-4,0,1,-2,-2,-1
16.425,-2,-6,6,8,0,-1,1,0
16.43,0,1,-5,7,5,3,3,2
16.435,-2,-3,8,1,-1,-1,-1,-2
16.44,-2,5,4,-5,-5,-5,-2,-2
16.445,-1,-10,-8,0,1,1,-2,-1
16.45,0,9,3,-3,-3,2,2,1
16.455,-1,3,6,7,5,-1,2,-2
16.46,2,0,-1,-6,-3,0,0,2
16.465,-3,-7,-17,-3,0,-4,-2,-1
16.47,-1,10,-20,-8,-4,-2,-3,-3
16.475,-1,-1,5,0,-3,-2,0,1
16.48,1,-4,8,2,0,1,0,-1
16.485,-2,-5,-3,2,-1,0,1,-2
16.49,0,8,1,0,0,-1,-3,-3
16.495,-1,-15,10,2,-5,-1,-3,-1
16.5,0,5,0,10,4,4,3,1
16.505,1,5,-17,-17,-5,1,-1,0
16.51,-1,-5,5,2,1,-2,-2,-4
16.515,-1,1,0,-1,-2,-1,0,0
16.52,-2,-2,-1,-1,-1,-2,-1,0
16.525,-2,0,7,4,0,2,0,-3
16.53,0,1,12,7,-2,-1,-2,0
16.535,-3,-15,-38,-17,-5,-4,-3,-4
16.54,-2,4,-2,3,-1,-2,-4,-2
16.545,-2,-7,-11,-3,-6,-1,-2,-2
16.55,-1,-1,7,-5,-2,0,2,0
16.555,0,1,7,1,1,0,1,0
16.56,-1,-3,-6,-3,1,0,0,-1
16.565,-2,-5,0,-1,1,-2,-3,-2
16.57,-1,1,11,-2,-2,-3,-2,-3
16.575,-3,-3,-22,-2,-1,1,-1,-2
16.58,0,5,11,1,0,-2,-1,1
16.585,-3,-6,-6,-6,-2,-2,-4,-2
16.59,-2,-4,-9,5,-2,2,1,0
16.595,2,6,16,8,1,-2,-1,1
16.6,-2,-5,-15,-27,-9,-4,-2,-1
16.605,-2,-4,7,5,5,1,1,-1
16.61,-2,-4,-12,-6,0,-2,-1,-2
16.615,-2,-1,5,2,0,-1,-3,-3
16.62,-1,-3,-4,5,-6,-2,-2,-1
16.625,-1,-1,-9,-2,-2,-1,-1,2
16.63,0,6,5,3,0,-1,-3,0
16.635,-3,-7,0,-9,-8,-4,-3,-2
16.64,0,2,1,0,1,-2,1,-1
16.645,-3,-1,8,-3,-3,-3,2,-1
16.65,0,3,2,1,1,-2,-2,-1
16.655,-2,-5,-7,-2,-1,-1,-3,0
16.66,0,4,10,0,-2,-2,-2,-2
16.665,3,3,-2,6,0,0,0,0
16.67,-4,-9,-10,0,-1,0,1,-2
16.675,-1,3,-8,-9,-6,1,0,-2
16.68,0,-4,-4,0,0,0,0,-2
16.685,1,2,5,2,-4,-1,0,-1
16.69,2,-2,3,4,1,-2,-2,-1
16.695,-1,-2,-2,-1,1,1,-1,-1
16.7,-1,-4,-12,-7,-4,-3,-1,0
16.705,-2,-2,-3,-1,0,-1,-2,-2
16.71,-1,-1,1,2,0,1,2,1
16.715,-1,1,6,-2,0,0,0,-1
16.72,-3,-4,-3,2,-1,0,0,-3
16.725,-1,-1,0,-2,-2,-3,-3,-2
16.73,0,-1,3,1,-2,-1,-3,-1
16.735,0,0,0,-4,-1,-2,0,1
16.74,-1,-2,-3,-3,-1,-1,-2,0
16.745,0,2,5,1,1,0,0,1
16.75,-2,-10,-10,-2,0,-1,0,-2
16.755,-2,5,11,-3,-2,-1,0,-2
16.76,-3,-2,-1,2,-1,-4,-4,-1
16.765,0,-3,-3,-4,-2,-1,0,-3
16.77,-1,-1,3,-1,-2,-2,0,-1
16.775,0,-5,-1,3,0,-1,-2,1
16.78,-3,-9,-24,-11,-3,0,-1,-1
16.785,-1,1,1,-1,-4,-1,-3,0
16.79,-1,0,10,0,2,-2,-3,-2
16.795,0,-3,-5,3,-3,-3,-3,-1
16.8,-1,1,-3,-8,-2,-2,-4,-3
16.805,-3,-2,-1,-1,-1,-3,-1,1
16.81,-2,-3,-7,-4,0,0,1,-2
16.815,-4,2,2,7,-1,-1,2,-2
16.82,0,1,11,8,4,1,1,-2
16.825,-3,-5,-18,-12,-6,-2,-3,-2
16.83,-1,1,0,0,-2,-2,-3,-2
16.835,0,2,-9,-3,0,0,-1,1
16.84,-1,-3,6,0,0,1,1,1
16.845,0,0,4,5,0,-1,0,0
16.85,-1,0,-1,0,-2,-2,-3,-3
16.855,1,3,-1,-9,-2,-2,-2,0
16.86,-2,-9,-9,0,-1,-1,-2,-3
16.865,-3,-3,-2,-1,-3,-2,-3,-1
16.87,-1,2,-30,-3,-6,-2,-1,0
16.875,-1,-12,10,11,8,6,3,0
16.88,-4,8,-12,-29,-7,-9,-3,-1
16.885,-1,-5,12,12,4,-1,0,0
16.89,-2,-5,-7,-7,-5,-1,-3,-2
16.895,0,-1,7,5,-3,-2,-1,-1
16.9,4,5,12,19,8,3,2,2
16.905,-1,-2,-12,-7,-5,-2,-2,-2
16.91,1,5,10,-5,-1,1,2,3
16.915,-5,-8,-24,-19,-2,-5,-4,-3
16.92,0,-1,13,5,-3,-2,-1,-2
16.925,4,12,31,21,2,0,0,0
16.93,-2,-11,-46,-20,-6,-1,-1,-2
16.935,-11,-17,-42,-33,-10,-9,-8,-6
16.94,-3,-2,-14,-8,4,0,-1,-3
16.945,2,0,13,14,0,0,-1,2
16.95,5,11,31,-7,3,3,3,4
16.955,6,11,45,39,9,6,2,4
16.96,-5,-8,-61,-11,-9,-5,-5,-6
16.965,-1,1,-2,-23,-7,0,1,-1
16.97,-6,-16,8,-11,-5,-6,-3,0
16.975,3,1,20,-1,4,1,1,2
16.98,7,24,67,55,10,4,4,4
16.985,0,-4,-30,-62,4,1,-1,0
16.99,-7,-8,4,54,1,-3,-4,-4
16.995,-6,2,23,13,-12,-7,-5,-9
17,4,1,-18,-16,2,3,1,2
17.005,-2,1,59,24,-3,-4,-1,-1
17.01,-4,0,15,24,-5,-4,-7,-4
17.015,-7,-17,-113,-87,-13,-6,3,-4
17.02,-3,-3,48,54,-4,-2,-4,-3
17.025,5,9,-4,0,4,4,3,3
17.03,6,1,-24,-29,4,3,1,3
17.035,8,24,33,27,12,5,5,5
17.04,-5,-5,-42,-38,-7,-3,-3,-4
17.045,-2,-8,48,67,7,2,1,-2
17.05,-20,-21,-80,-68,-34,-21,-13,-19
17.055,25,24,47,-91,17,16,11,22
17.06,-15,-16,65,71,-2,-9,-11,-10
17.065,7,-1,-30,-54,1,8,6,6
17.07,2,2,-22,50,6,7,5,2
17.075,-14,-17,-60,-81,-17,-5,-9,-10
17.08,5,-1,-12,-52,-3,-2,3,3
17.085,2,23,1,89,27,15,3,-1
17.09,-4,-22,35,9,-11,-7,-1,2
17.095,-2,-15,-62,-30,0,-4,-3,-1
17.1,2,-10,21,72,16,10,7,6
17.105,-4,-4,-63,-115,-12,-6,-3,-4
17.11,28,81,1,-52,27,19,15,19
17.115,-25,-63,43,101,-7,-8,-9,-14
17.12,18,45,60,53,39,21,13,13
17.125,-33,-46,46,-30,-44,-35,-21,-22
17.13,19,30,56,9,19,19,11,14
17.135,-10,-3,38,24,-22,-13,-9,-10
17.14,18,33,51,12,17,13,8,10
17.145,-7,5,88,113,15,-4,-9,-8
17.15,-30,-66,-92,-93,-38,-25,-16,-23
17.155,22,61,41,107,38,19,14,13
17.16,-20,-29,-89,-39,-52,-32,-21,-14
17.165,20,32,70,65,23,8,8,12
17.17,-6,7,62,63,-1,-3,-6,-5
17.175,-9,-14,58,61,2,-5,-5,-8
17.18,21,25,107,38,21,16,12,13
17.185,-19,-36,-8,30,-29,-17,-11,-12
17.19,-2,-11,81,-35,1,-2,0,3
17.195,11,12,55,27,23,16,11,4
17.2,-3,12,-13,-48,-21,-7,-5,-2
17.205,9,7,16,-31,11,9,5,8
17.21,-7,-17,-2,35,-3,-3,-4,-8
17.215,2,-1,-10,-27,-8,-6,-4,-3
17.22,22,47,104,14,23,11,9,15
17.225,-33,-89,-128,-71,-71,-25,-16,-21
17.23,3,37,109,92,2,-15,-14,-1
17.235,13,23,15,14,-10,11,9,8
17.24,-31,-26,-74,-61,-28,-25,-18,-23
17.245,7,29,103,50,18,9,5,5
17.25,-6,-30,-80,-15,-8,-5,-5,-5
17.255,0,60,89,75,5,-8,-6,-1
17.26,14,10,18,70,18,23,12,11
17.265,-9,7,58,-26,-9,-18,-11,-7
17.27,10,39,86,28,22,11,9,8
17.275,7,12,45,80,30,20,12,12
17.28,-20,-19,73,29,-6,-10,-8,-16
17.285,34,55,-3,27,33,26,18,21
17.29,-13,-8,-9,-59,-34,-17,-9,-13
17.295,7,6,8,-33,10,3,3,7
17.3,6,-14,-94,3,-3,5,4,7
17.305,19,42,60,118,51,24,14,9
17.31,-9,0,-1,-68,-38,-17,-11,-3
17.315,-18,-66,-128,-90,-28,-18,-13,-12
17.32,-16,-16,-7,-97,-18,-9,-9,-10
17.325,20,-1,-59,-57,5,5,8,7
17.33,-10,-41,-77,-22,-8,4,0,-5
17.335,6,23,-7,10,11,3,0,0
17.34,-2,-21,10,-44,2,0,1,-2
17.345,0,-21,-75,-76,-19,-7,-3,-3
17.35,3,7,18,13,22,12,6,7
17.355,-11,-54,-48,-63,-34,-13,-7,-7
17.36,-17,-62,-76,-66,-39,-21,-11,-11
17.365,15,27,82,32,16,13,10,11
17.37,-4,-10,70,86,20,0,1,-4
17.375,-31,-35,64,-82,-62,-37,-26,-22
17.38,-2,-7,26,32,7,1,-1,-2
17.385,9,23,111,63,8,4,2,4
17.39,-15,-40,-40,-52,-38,-25,-12,-12
17.395,12,23,71,67,17,10,6,6
17.4,-7,-11,-3,14,-1,-3,-2,-5
17.405,3,40,30,46,4,1,3,2
17.41,0,-2,21,35,14,6,1,1
17.415,3,20,57,11,-3,-1,-3,-3
17.42,4,5,4,-23,0,-4,-3,1
17.425,-9,-5,-57,2,-1,3,0,-1
17.43,2,4,-38,19,2,6,5,2
17.435,1,-14,12,26,4,-1,1,1
17.44,-6,4,67,78,3,-8,-7,-6
17.445,-9,-9,52,3,1,-3,-3,-1
17.45,-5,-6,-42,-80,-27,-14,-7,-8
17.455,-3,-14,-63,11,6,2,1,0
17.46,10,37,62,5,14,11,9,4
17.465,-23,-37,-80,-61,-29,-19,-15,-13
17.47,34,60,119,81,47,34,20,23
17.475,-12,-1,65,33,-7,-16,-9,-8
17.48,-5,-27,-59,-49,-9,-7,-4,-3
17.485,3,8,57,-9,-6,-6,-2,-1
17.49,1,-11,-36,20,14,11,6,4
17.495,-3,-11,-72,-68,-13,2,2,-2
17.5,8,21,24,7,2,4,2,8
17.505,-19,-32,-18,-40,-10,-10,-11,-17
17.51,0,-13,2,-6,-3,-3,-2,-1
17.515,6,-10,-90,-72,-9,-1,2,3
17.52,-8,-23,-3,-2,-8,-8,-6,-4
17.525,-1,-9,-19,7,3,4,3,1
17.53,6,17,-10,-3,6,1,1,2
17.535,-8,-9,-46,-1,0,1,1,-5
17.54,-4,2,-21,-11,-11,-7,-4,-5
17.545,-5,-13,-22,-18,-12,-7,-7,-1
17.55,0,5,16,10,4,1,0,-3
17.555,6,19,62,44,13,6,5,3
17.56,4,-3,-5,11,1,1,-1,7
17.565,-5,-13,-39,-40,-10,-6,-3,-4
17.57,-2,9,8,23,0,0,-1,-4
17.575,-2,8,-15,-9,4,0,-2,-1
17.58,-2,-12,8,4,3,2,2,3
17.585,0,-8,-22,-22,-5,-4,-4,3
17.59,-2,15,35,23,10,2,1,-2
17.595,2,-1,-42,-27,-4,0,3,14
17.6,-7,-8,2,29,0,-2,-8,-25
17.605,-3,-6,-11,3,0,0,2,-2
17.61,1,1,11,-7,-5,-4,-3,-3
17.615,-7,4,29,19,1,-1,-1,5
17.62,-4,0,-17,-12,-4,-4,-3,-13
17.625,-13,-4,-3,-5,-1,0,0,-10
17.63,-12,-8,-7,0,-1,0,-1,-6
17.635,17,-7,15,-5,-6,-8,-10,-4
17.64,3,3,-18,-5,0,4,2,10
17.645,6,-9,4,10,-4,-3,-6,-3
17.65,-7,-1,-7,-9,-3,-1,1,-1
17.655,-13,4,23,16,4,2,1,-14
17.66,9,6,21,21,6,2,3,12
17.665,-6,-9,-30,-29,-10,-5,-2,-4
17.67,-1,-9,-7,1,0,2,1,3
17.675,0,0,8,3,0,1,-2,-2
17.68,-1,2,1,5,-2,0,1,-4
17.685,-4,2,3,4,-1,-2,-1,0
17.69,2,-4,-4,-6,-2,0,-2,-2
17.695,5,1,18,16,1,-2,-3,3
17.7,-2,-2,-16,-14,-3,-2,0,2
17.705,-7,0,4,5,2,1,-1,-7
17.71,5,-5,-1,-9,-6,-7,-2,5
17.715,-7,-4,2,4,-1,0,-3,-4
17.72,-1,-1,-7,-10,0,2,4,11
17.725,-3,-3,-4,-5,-4,-3,-4,-19
17.73,7,0,5,6,-1,1,1,6
17.735,-3,2,-2,-3,-2,-2,-2,-3
17.74,-4,-2,-10,-7,-3,-3,-3,-2
17.745,6,0,6,8,3,0,1,7
17.75,-7,-4,0,-1,0,-1,-2,-5
17.755,7,1,3,0,-1,1,4,11
17.76,-18,-7,-7,-9,-5,-3,-5,-35
17.765,1,4,1,3,-1,0,1,4
17.77,-1,-4,-5,-4,-1,-6,-5,-3
17.775,-3,0,-1,-1,2,0,2,-1
17.78,1,-1,-1,-2,0,-1,0,5
17.785,1,0,1,-1,-4,0,1,4
17.79,-3,-2,-5,-4,-2,-1,-2,-4
17.795,-3,-5,-2,2,-2,-1,-1,-3
17.8,2,3,2,1,3,-1,-2,1
17.805,-2,-1,1,3,-1,1,0,2
17.81,2,0,-1,-1,-2,-4,-2,2
17.815,-4,-2,-1,2,3,0,1,-5
17.82,0,-1,-4,-4,-1,0,-1,0
17.825,7,1,0,0,0,-1,-2,4
17.83,-5,0,3,6,-3,-2,-2,-4
17.835,-8,-4,-5,-7,-4,0,0,-5
17.84,-8,-6,0,-6,2,0,0,0
17.845,-6,-11,5,8,1,-1,0,2
17.85,4,9,-8,-8,-4,-2,-1,-1
17.855,-2,-16,-16,-21,-9,-8,-5,-6
17.86,3,-1,3,10,2,-1,-1,2
17.865,2,2,-3,-8,0,1,-1,2
17.87,-2,2,10,14,4,0,0,-1
17.875,1,8,2,8,0,1,1,1
17.88,1,1,-2,-9,-6,-2,-1,1
17.885,-1,1,1,2,-3,-6,-2,-2
17.89,-2,-5,-1,-4,-4,1,-1,-3
17.895,-1,3,1,10,3,-1,-2,2
17.9,3,-2,6,1,-1,0,-1,-1
17.905,-4,-3,-30,-13,-3,1,-2,-2
17.91,-1,-2,-5,-9,-3,-2,-2,-1
17.915,2,-2,6,2,1,-1,-1,-4
17.92,4,3,15,15,4,1,-1,0
17.925,-2,-10,-6,-7,-1,2,1,0
17.93,-3,-13,-7,-14,-5,-3,-1,0
17.935,-1,1,-3,8,4,3,0,-3
17.94,-3,-1,-3,-4,-6,-2,-1,-2
17.945,-1,4,15,9,2,-2,1,0
17.95,0,-2,-11,-6,-2,0,0,-2
17.955,0,1,15,1,-2,-3,-2,-1
17.96,1,-3,-12,1,0,0,0,-1
17.965,-1,1,2,-9,-5,-2,0,-1
17.97,-1,1,4,11,9,1,2,-1
17.975,-2,0,6,3,-1,-2,-2,-2
17.98,-2,-1,-13,-7,-4,-3,-3,-3
17.985,-1,-3,-4,1,-5,-4,-1,-3
17.99,-1,0,0,1,-5,-3,-2,-3
17.995,-1,-2,-5,-9,0,1,-1,1
18,-1,-4,-6,-3,-3,-1,0,1
18.005,0,4,4,6,4,-2,-1,-1
18.01,0,-3,5,-1,-1,0,-2,-1
18.015,-2,-3,-12,-2,-1,-2,-1,-3
18.02,-1,-1,-4,-6,-3,-3,0,-3
18.025,-1,-2,6,4,-2,-2,-1,-2
18.03,0,-1,3,2,0,0,-1,-2
18.035,0,2,9,4,0,1,0,1
18.04,-2,-2,-18,-18,0,1,0,-1
18.045,-2,-2,6,6,1,-2,-2,-2
18.05,-2,0,7,7,-1,-3,-1,-1
18.055,0,-1,-7,-8,-4,0,-2,-3
18.06,-1,1,7,-8,-6,-5,-3,0
18.065,-3,-2,-20,-10,1,-2,-3,-1
18.07,-1,0,9,7,4,3,4,3
18.075,0,2,-3,0,-3,-1,1,-2
18.08,-2,-3,-5,-2,-4,-2,-1,-2
18.085,1,3,5,11,4,1,-2,0
18.09,-3,-5,-16,-12,-4,-3,-5,-2
18.095,-2,-4,-9,-11,-10,-3,-1,-3
18.1,0,2,0,3,1,1,1,-2
18.105,0,1,9,-4,-2,2,2,1
18.11,-2,-3,-4,2,-2,-1,-3,-1
18.115,0,-1,-8,1,1,0,-3,0
18.12,0,-5,1,-6,-4,-3,-4,-1
18.125,1,-1,-5,1,-2,0,-1,0
18.13,0,1,11,3,0,0,1,-2
18.135,-4,-6,-22,-10,0,-2,-1,-2
18.14,1,4,19,9,-1,1,0,1
18.145,1,-2,-6,-8,0,0,-1,-2
18.15,0,-2,2,-16,-4,-4,-5,-2
18.155,1,6,33,18,1,-2,-1,0
18.16,-1,7,-4,7,6,6,3,1
18.165,-8,-16,-42,-41,-10,-5,-4,-5
18.17,2,4,13,12,3,3,0,1
18.175,-7,-10,-25,-14,-9,-5,-1,-5
18.18,3,5,29,14,6,-1,-3,2
18.185,1,4,-3,13,-2,2,1,0
18.19,-1,2,-6,2,1,1,1,-3
18.195,0,2,4,5,3,0,0,1
18.2,-4,-5,-8,-3,-1,0,0,-3
18.205,1,6,26,11,4,2,0,1
18.21,1,-1,-9,-18,-1,1,1,1
18.215,-5,-11,-25,-4,-6,-5,-4,-5
18.22,1,1,29,23,2,-3,-2,3
18.225,-3,-8,-49,-39,-7,-3,-3,-1
18.23,2,6,20,14,4,3,1,3
18.235,3,9,33,20,12,6,3,2
18.24,-2,-7,-44,-30,-4,0,0,-3
18.245,-5,-1,49,37,-1,-7,-6,-4
18.25,0,-2,-29,-7,0,0,2,-3
18.255,1,-8,-66,-44,-10,-6,-4,4
18.26,-7,-11,17,-1,-5,-6,-3,-7
18.265,4,7,21,-1,0,2,1,3
18.27,-4,-6,-21,0,-7,-4,-4,-5
18.275,5,23,88,52,23,12,6,6
18.28,-16,-22,-45,-43,-28,-12,-7,-8
18.285,0,-2,7,-15,3,-2,-1,-1
18.29,5,9,-1,-15,12,5,3,2
18.295,-25,-43,-60,-40,-45,-32,-20,-18
18.3,11,14,64,35,17,10,6,8
18.305,-1,1,-18,-3,-6,2,1,-1
18.31,-2,-5,-25,-51,-7,-6,-3,-1
18.315,9,12,59,28,18,10,6,5
18.32,-6,-7,24,62,-5,-7,-4,-5
18.325,-9,-17,-76,-89,-9,-4,-2,-4
18.33,7,14,54,53,15,7,5,6
18.335,1,5,-1,-20,-4,-1,0,-2
18.34,-5,-11,-56,-20,-7,-5,-2,-3
18.345,4,3,27,56,11,5,2,4
18.35,-9,-13,-16,-11,-13,-7,-6,-1
18.355,8,15,27,-7,11,8,5,6
18.36,-2,4,1,-3,0,-5,-4,-2
18.365,3,6,-4,3,2,0,2,-1
18.37,-3,-4,4,2,-3,-2,-2,-2
18.375,-2,-1,-28,-35,-11,-4,-2,-2
18.38,2,1,41,12,6,3,1,1
18.385,-11,-16,-27,-14,-24,-13,-9,-9
18.39,-8,-12,-17,2,-7,-11,-7,-5
18.395,9,28,89,58,19,13,6,3
18.4,-4,-7,-21,-14,-2,1,2,-4
18.405,-5,-8,-11,-12,-1,-6,-6,-3
18.41,-1,-7,-23,-25,-8,-1,1,0
18.415,-6,-10,22,19,-7,-4,-5,-6
18.42,10,15,12,-18,6,6,3,4
18.425,3,11,57,70,11,6,5,1
18.43,-5,-9,-52,-45,-14,-10,-5,-6
18.435,-1,-2,-24,-3,-1,-3,-3,-1
18.44,1,-6,-2,17,3,0,-1,0
18.445,5,13,8,-41,0,4,2,2
18.45,-7,-9,3,20,-11,-9,-6,-6
18.455,-3,2,3,5,1,-1,1,0
18.46,-6,-29,-63,-11,-1,-3,-1,-1
18.465,3,7,25,25,1,0,0,1
18.47,5,8,4,-18,0,3,2,2
18.475,0,0,-23,-23,0,2,1,-1
18.48,-1,8,35,18,-2,-1,-3,0
18.485,-8,-7,1,5,-1,-6,-5,-8
18.49,4,7,11,14,10,8,7,5
18.495,6,7,2,-8,4,1,-1,4
18.5,-3,-7,-35,-36,-10,-7,-4,-2
18.505,5,13,29,12,4,3,2,1
18.51,1,0,74,41,3,1,-1,-2
18.515,-4,-9,-24,-24,-3,-1,-1,-3
18.52,4,10,38,16,6,3,0,1
18.525,0,1,-13,10,5,2,1,1
18.53,6,11,47,48,9,4,3,3
18.535,-2,-10,-7,-9,0,-2,0,-1
18.54,-1,4,16,-35,-6,0,0,1
18.545,-6,-9,-71,-25,-11,-8,-4,-4
18.55,1,8,75,51,5,2,-1,-3
18.555,-7,-23,-84,-51,-15,-7,-5,-3
18.56,-7,-13,-21,-23,-10,-4,-2,-5
18.565,10,14,49,-1,12,9,5,7
18.57,-10,-19,-8,-13,-13,-10,-7,-8
18.575,-10,-17,-29,5,-11,-10,-6,-11
18.58,2,4,-3,14,2,0,-1,-2
18.585,-5,-11,-19,-4,-5,-2,-1,-1
18.59,0,4,9,6,2,-1,-1,0
18.595,10,10,26,27,8,7,4,8
18.6,-13,-31,-63,6,-6,-6,-6,-7
18.605,-9,-18,11,-34,-11,-8,-6,-6
18.61,4,12,-9,-7,6,2,1,1
18.615,0,-12,7,-2,2,2,3,0
18.62,7,12,95,78,17,8,3,5
18.625,-10,-23,-24,-44,-28,-16,-11,-9
18.63,-10,-24,-78,-31,-7,-4,-5,-4
18.635,7,18,42,28,15,7,7,4
18.64,18,77,105,16,15,8,8,10
18.645,3,-33,-35,44,9,9,6,4
18.65,-34,-52,-68,-112,-55,-33,-23,-23
18.655,0,2,31,5,1,-3,-4,-3
18.66,-5,-8,-34,-29,-3,1,-2,-3
18.665,5,16,44,11,8,0,-1,1
18.67,14,19,-1,27,22,15,11,13
18.675,-17,-32,-85,-13,-17,-11,-11,-6
18.68,-1,-6,-20,-35,-9,-6,-3,-5
18.685,21,55,87,89,26,14,9,13
18.69,-12,-21,-24,8,-16,-6,-6,-4
18.695,-36,-43,-34,-80,-44,-30,-21,-34
18.7,4,14,38,16,10,4,3,4
18.705,20,-14,44,62,35,25,15,16
18.71,-10,40,114,51,-16,-15,-12,-13
18.715,15,33,101,36,20,11,10,13
18.72,-3,-17,-47,-5,-7,-6,-4,-3
18.725,-26,-36,-35,-75,-32,-23,-16,-20
18.73,17,26,53,-6,15,10,9,10
18.735,16,18,86,70,28,17,14,13
18.74,-28,-67,-102,-85,-42,-22,-18,-19
18.745,9,38,89,18,15,8,5,6
18.75,7,-13,-68,28,8,6,5,3
18.755,-13,6,-69,-39,-20,-13,-9,-8
18.76,23,55,83,30,22,14,11,15
18.765,7,23,12,-48,5,9,5,4
18.77,-26,-67,-109,-110,-28,-19,-13,-14
18.775,13,14,16,26,25,13,6,9
18.78,0,-7,-23,-1,1,2,2,1
18.785,1,15,2,4,-7,-3,-1,-2
18.79,19,22,73,77,31,21,13,13
18.795,-1,2,20,-31,-24,-10,-8,-3
18.8,-12,-23,-21,-5,-4,-5,-3,-7
18.805,1,7,83,72,7,-1,-2,-1
18.81,-1,6,51,10,10,-1,0,-2
18.815,3,1,29,8,-4,-1,-3,2
18.82,-16,-54,-84,-22,-19,-11,-8,-7
18.825,1,11,13,-18,-2,0,2,2
18.83,-7,-2,3,-46,-14,-4,-6,-7
18.835,-3,-11,-19,7,1,1,0,-2
18.84,3,4,2,12,6,2,0,1
18.845,-4,4,-34,-5,-9,-8,-7,-5
18.85,1,-5,-20,-6,0,1,-1,1
18.855,4,20,45,10,10,7,7,2
18.86,-7,-1,11,13,-11,-14,-10,-8
18.865,-16,-46,-85,-23,-16,-11,-8,-11
18.87,7,19,1,16,7,3,3,4
18.875,0,-3,16,-2,0,0,-1,-1
18.88,4,4,21,15,6,4,1,5
18.885,-8,-12,-28,-22,-13,-7,-4,-7
18.89,3,8,38,25,3,1,0,1
18.895,-4,-14,-56,-25,-5,0,2,-3
18.9,4,-2,21,-2,5,1,3,3
18.905,-3,5,-13,-6,-7,-7,-5,-1
18.91,6,13,10,10,11,7,6,5
18.915,-6,-6,-6,0,-9,-8,-5,-1
18.92,1,11,6,-4,-2,0,1,-1
18.925,-2,-4,21,4,-1,-2,-3,-1
18.93,-5,-19,-77,-51,-13,-6,-4,-6
18.935,1,0,26,30,6,2,0,-1
18.94,1,5,16,-25,-5,-4,-4,-2
18.945,-7,-6,-14,-4,-1,-1,0,-5
18.95,3,5,11,5,6,3,3,5
18.955,-2,-5,-12,4,-3,-4,-2,0
18.96,0,11,13,5,3,4,3,-3
18.965,4,-6,-7,-4,-4,-4,-2,4
18.97,-2,-3,6,1,-4,-1,-2,-2
18.975,-2,-4,-6,-3,-3,-2,-3,-1
18.98,0,5,11,6,4,3,0,0
18.985,-5,-4,-8,-15,-3,0,-1,-4
18.99,-2,1,2,-1,-2,-1,-2,-1
18.995,-1,-2,1,-4,-4,-2,-1,0
19,1,6,-4,-2,-1,0,-1,0
19.005,-1,-9,-17,3,2,2,3,0
19.01,-2,-2,9,5,4,-2,0,-1
19.015,1,-2,-4,1,2,1,1,1
19.02,-4,7,-11,-6,-3,-3,-4,-4
19.025,1,10,30,10,1,2,1,0
19.03,1,-4,-15,-10,-5,-2,-2,-1
19.035,3,2,-5,-1,1,0,-1,0
19.04,0,4,0,-2,-1,-3,-2,1
19.045,-2,0,0,0,0,-1,-2,0
19.05,-1,2,4,0,-1,-2,1,0
19.055,-2,-5,-3,-2,-5,-2,-3,-5
19.06,1,0,5,-2,0,1,1,1
19.065,-3,-4,-9,-7,-5,-4,-3,-3
19.07,0,2,18,6,-1,-2,-1,0
19.075,-4,-2,-15,-11,-2,-2,-2,-2
19.08,-1,-4,5,-4,0,0,1,-3
19.085,0,-3,-6,-3,-1,-1,1,0
19.09,-3,-8,-9,-2,2,3,-3,-2
19.095,-2,1,2,1,-1,0,0,-2
19.1,0,-4,0,0,-1,2,2,0
19.105,-3,-3,0,1,-1,-1,0,-2
19.11,0,2,-5,-8,-3,-2,-2,-3
19.115,1,1,0,2,1,-1,0,3
19.12,-4,-2,3,-1,-1,-1,-1,-2
19.125,0,-3,0,1,-3,-2,0,-2
19.13,0,-1,4,4,0,1,-1,-3
19.135,-3,0,-4,-3,1,-3,-3,-3
19.14,1,-7,0,2,-1,0,-3,-1
19.145,-1,-2,-6,-5,-3,-4,-3,-5
19.15,-1,0,0,-2,-3,0,-2,0
19.155,1,-3,1,0,0,0,1,-2
19.16,-2,-2,-1,1,4,2,2,3
19.165,-2,1,-5,-1,-4,-3,-4,-1
19.17,0,-4,0,-5,-2,0,-1,0
19.175,-2,-5,0,2,-2,-2,-1,-2
19.18,1,-2,-5,-5,-1,-2,-1,-1
19.185,1,-1,0,3,0,0,2,0
19.19,0,0,4,6,5,-1,0,1
19.195,-6,-2,-9,-15,-10,-5,-4,-5
19.2,-2,-4,-1,-1,0,0,-1,-1
19.205,-3,-5,-1,-7,2,-2,-3,-2
19.21,-1,3,7,7,0,1,0,-1
19.215,-1,-1,1,1,-2,-2,-1,-5
19.22,-1,0,2,-1,-4,-4,-3,1
19.225,2,0,-7,-2,-1,0,-2,2
19.23,0,1,5,-2,-4,-3,-1,-1
19.235,-2,-3,-1,1,0,-1,-2,-1
19.24,-2,3,-1,-2,-3,-1,-2,-4
19.245,-1,-5,-10,1,-2,-4,-2,0
19.25,0,-2,12,0,-1,-4,-1,1
19.255,-4,7,4,-1,-4,0,-3,-4
19.26,4,9,22,1,0,0,2,-1
19.265,-5,-8,-9,-4,-1,1,1,-2
19.27,0,1,-5,-3,-1,-1,-1,-1
19.275,1,-4,9,5,-2,-1,-1,0
19.28,2,7,-8,0,0,1,0,-2
19.285,-1,5,0,-10,-4,-3,-1,0
19.29,-5,-5,-7,-1,-2,-3,-1,-3
19.295,1,1,-6,-3,-1,0,1,1
19.3,-1,-1,-2,1,1,1,0,-1
19.305,0,-4,-2,8,1,1,0,0
19.31,-2,0,-8,-5,-3,0,-1,-1
19.315,1,4,9,-2,-1,-2,-2,0
19.32,-2,-8,-29,-13,-4,-2,-2,-2
19.325,-3,-4,-10,-5,-2,-3,-2,-4
19.33,-1,2,14,9,5,1,0,0
19.335,1,4,7,-3,-6,1,3,2
19.34,-1,-9,-12,2,0,-7,-4,-2
19.345,-1,4,14,-2,-1,1,-2,-2
19.35,-1,-3,-10,-4,-6,-4,-2,-2
19.355,-1,-5,-14,-1,3,4,1,1
19.36,0,0,7,5,-1,1,1,0
19.365,0,-3,0,4,0,1,-2,-1
19.37,-2,-3,-16,-21,-4,-2,-1,-4
19.375,-3,-5,-13,-6,-1,-4,-4,-4
19.38,-2,-3,9,-2,-4,0,-2,0
19.385,-1,1,5,7,2,-2,-1,0
19.39,0,-2,6,2,-1,-2,0,-1
19.395,-1,-3,-3,0,1,-1,0,-1
19.4,0,4,2,-4,0,1,-1,1
19.405,-2,-3,2,-1,-4,-1,0,-2
19.41,0,-3,-13,4,1,2,1,2
19.415,0,-3,5,-1,-1,-1,-1,-2
19.42,-1,-2,-18,-5,-3,-3,-2,-3
19.425,-1,-1,3,-1,-3,-3,-2,-2
19.43,0,0,-6,-6,0,-2,-1,1
19.435,-2,-3,-1,1,0,-2,-1,1
19.44,0,1,7,6,-1,-1,0,-1
19.445,0,1,-5,-8,-2,1,0,-1
19.45,-2,-3,-1,-1,-2,-1,-3,-4
19.455,1,0,3,3,1,0,-1,0
19.46,-2,-3,-4,-3,-1,-1,-2,-2
19.465,-1,-3,-10,-4,-4,-4,-1,-2
19.47,1,1,6,3,0,-1,0,-1
19.475,-2,-1,-5,-1,-1,-1,-2,-1
19.48,0,0,4,0,-2,-1,-2,-1
19.485,-1,0,0,-2,-2,-1,-1,-2
19.49,-3,0,-2,-3,-3,-1,0,-3
19.495,-1,-1,-3,-4,-3,-2,0,2
19.5,-2,-4,0,0,3,0,-1,-1
19.505,-1,-1,-2,4,1,0,-1,-2
19.51,-3,-1,3,-2,-5,-1,-3,-1
19.515,-2,1,-5,-5,-2,-3,-3,-2
19.52,-3,-2,0,-6,-5,-1,0,-3
19.525,-1,5,7,4,0,-2,0,1
19.53,-1,-4,-5,-6,-3,0,-1,2
19.535,0,1,5,4,0,-1,1,-3
19.54,1,-2,-4,-4,-1,-1,-1,0
19.545,0,6,6,2,-2,2,0,-2
19.55,-1,-2,1,1,1,1,-1,1
19.555,-1,-4,-7,-4,-5,-2,-3,-2
19.56,1,3,10,1,2,-1,-1,-1
19.565,-1,-5,-5,-5,0,1,-2,-1
19.57,-1,0,1,6,1,0,-1,-3
19.575,-1,-2,-7,-1,-1,0,0,-1
19.58,-1,5,14,16,0,-2,-1,-1
19.585,0,-7,-17,-25,-10,-3,0,-1
19.59,-3,-1,-14,0,3,1,0,-3
19.595,-1,0,6,3,1,-2,0,-2
19.6,-1,-2,-1,-1,-4,-2,0,-2
19.605,-1,-2,-5,6,1,-3,-2,0
19.61,-1,-2,-13,-2,-6,-2,-1,1
19.615,-1,0,0,-3,-1,0,0,-2
19.62,-1,-3,-3,-11,-4,-1,-1,-1
19.625,0,-2,8,6,1,-2,-2,1
19.63,3,3,20,5,-3,-2,-1,-1
19.635,-4,-11,-43,-12,-4,-2,-1,-2
19.64,1,6,7,-1,0,2,-1,1
19.645,-2,-1,17,21,4,0,0,-3
19.65,-2,-3,17,-6,-6,-5,-4,-1
19.655,-2,-4,-19,-20,-7,-6,-2,-2
19.66,-2,-4,-1,0,-1,0,0,-1
19.665,2,2,8,-1,4,2,1,2
19.67,2,7,14,17,3,4,4,0
19.675,2,3,18,9,5,0,-2,-1
19.68,-5,-8,-39,-4,-9,-5,-4,-4
19.685,-6,-4,-10,-11,-6,-6,-5,-4
19.69,-3,-5,13,-16,-8,-5,-3,-4
19.695,-1,-4,-20,6,3,2,1,0
19.7,4,10,20,17,8,2,2,2
19.705,-3,-7,-40,-18,-7,-1,-1,0
19.71,-3,-6,-59,-28,-4,-9,-10,-2
19.715,-7,-5,37,2,-10,-3,1,-4
19.72,-1,-4,-4,-14,2,-4,-5,-4
19.725,4,5,28,13,3,2,-2,1
19.73,2,7,-15,-8,6,6,4,0
19.735,-4,-3,27,43,6,1,-5,-2
19.74,-9,-12,-42,-39,-13,-7,-3,-10
19.745,8,4,2,-4,8,2,1,9
19.75,-5,-4,-25,43,1,-2,-12,-7
19.755,11,12,46,6,13,8,15,15
19.76,-19,-45,-94,-58,-33,-18,-9,-11
19.765,4,23,56,41,13,5,1,-4
19.77,2,-8,-51,-57,-1,0,1,3
19.775,-5,-7,17,8,-2,-3,-5,-8
19.78,8,21,52,55,12,5,4,7
19.785,-2,-7,-37,-45,-13,-5,-2,1
19.79,9,18,55,64,18,10,8,6
19.795,-19,-17,-5,-55,-35,-23,-16,-15
19.8,0,-6,-6,-6,11,6,4,2
19.805,0,0,16,19,5,3,-1,0
19.81,6,16,71,30,0,-1,1,6
19.815,-8,-14,-74,-43,-8,-2,-1,-12
19.82,-8,-13,-74,-24,-14,-8,-8,-6
19.825,-1,11,4,4,6,3,5,-1
19.83,5,1,43,-10,3,6,2,5
19.835,-1,3,40,-4,-11,-13,-9,-1
19.84,21,41,89,22,26,13,9,14
19.845,-26,-50,-115,-42,-32,-18,-13,-19
19.85,2,10,26,-31,11,4,4,1
19.855,6,24,-3,20,11,7,0,6
19.86,-9,-43,-59,-45,-9,-1,-1,-5
19.865,18,29,74,100,13,4,4,16
19.87,-18,-35,-113,-71,-20,-13,-6,-12
19.875,-3,4,-47,-94,-16,-9,-6,-3
19.88,8,5,113,120,29,11,5,5
19.885,-16,-22,-36,-96,-27,-13,-8,-14
19.89,-16,-24,-30,-1,-20,-11,-10,-10
19.895,25,36,72,48,36,24,15,14
19.9,-13,1,2,8,-21,-20,-17,-12
19.905,-9,-21,-9,8,-3,-1,-1,-4
19.91,7,-23,-57,-37,-7,5,6,6
19.915,-15,-16,21,-45,-13,-8,-6,-6
19.92,29,53,88,56,28,21,13,24
19.925,-37,-45,45,-34,-37,-30,-23,-44
19.93,9,27,-35,23,2,4,9,1
19.935,-11,-21,2,28,-14,-17,-11,-2
19.94,15,11,32,-49,0,12,11,13
19.945,-6,-33,27,44,25,8,4,15
19.95,1,41,52,-46,-13,-4,-1,-23
19.955,22,-3,-11,18,3,3,1,1
19.96,8,36,80,55,25,14,10,13
19.965,-8,13,39,-17,-29,-21,-12,-6
19.97,-19,-52,-25,1,-11,-10,-14,-4
19.975,28,58,52,-11,22,20,22,28
19.98,-22,-51,-128,-40,-17,-2,-3,-29
19.985,36,83,52,-46,18,18,16,20
19.99,2,-45,-40,-3,6,-1,-3,23
19.995,-19,0,42,22,-13,-6,-8,-31
20,-4,-13,-2,-74,-16,-4,-1,1
20.005,20,36,60,94,21,6,3,15
20.01,-25,-60,-70,-77,-50,-25,-18,-14
20.015,0,-6,109,103,26,11,5,9
20.02,-3,45,71,-3,-7,-13,-12,-11
20.025,16,-22,-83,55,24,21,10,9
20.03,2,20,35,-51,-22,-16,-6,-4
20.035,-6,-40,-17,39,1,1,-1,-2
20.04,-14,-8,6,-1,-28,-23,-17,-9
20.045,-8,-10,-97,-94,-24,-14,-6,-1
20.05,15,29,75,106,52,24,15,3
20.055,-67,-116,-128,-125,-84,-45,-33,-34
20.06,1,23,109,72,18,4,6,-3
20.065,7,31,26,3,7,4,1,8
20.07,7,37,127,126,27,19,10,-4
20.075,-5,-6,59,73,-8,-15,-11,-5
20.08,18,13,65,43,11,-2,-7,5
20.085,1,25,45,27,4,10,14,3
20.09,-6,-3,56,23,1,-4,-3,-5
20.095,42,68,33,32,42,29,22,36
20.1,-28,-94,-87,-65,-57,-24,-11,-11
20.105,-9,12,56,-15,-3,-12,-15,-25
20.11,9,15,6,-2,2,3,-1,6
20.115,6,13,-8,4,13,8,8,6
20.12,-11,-3,-30,6,-10,-10,-6,-4
20.125,3,-4,29,1,1,3,2,1
20.13,-15,-6,-12,-2,-16,-13,-6,-13
20.135,-7,-26,-26,-103,-18,-10,-7,-6
20.14,12,16,-7,21,29,13,7,11
20.145,-6,-41,-62,-45,-4,2,0,-5
20.15,-1,6,54,40,4,-1,0,2
20.155,12,34,14,49,21,9,2,6
20.16,4,17,2,4,3,3,2,0
20.165,-7,-33,-16,13,1,2,1,0
20.17,3,10,50,24,3,-2,0,2
20.175,3,-10,-66,-18,3,3,-1,-2
20.18,-12,-24,-31,-24,-6,-6,-8,-10
20.185,1,2,17,8,1,-2,-5,0
20.19,3,14,-16,9,5,6,6,-5
20.195,6,17,24,13,2,-1,0,2
20.2,10,14,-4,19,9,7,4,5
20.205,10,0,-3,16,4,9,7,16
20.21,-20,-39,-100,-81,-41,-21,-15,-21
20.215,-7,12,33,65,10,-3,-3,-8
20.22,-12,-27,-1,-14,-8,-7,-3,-7
20.225,0,9,37,24,2,0,0,-1
20.23,8,8,9,-7,6,8,4,11
20.235,-2,4,-31,-25,-10,-4,-4,-4
20.24,1,12,4,8,4,0,0,0
20.245,9,-3,45,52,14,6,6,7
20.25,4,5,90,12,6,9,6,10
20.255,-12,-17,105,57,-9,-15,-12,-9
20.26,4,5,76,45,15,9,5,3
20.265,-8,-5,13,-4,-10,-8,-5,-8
20.27,3,14,16,20,11,2,1,1
20.275,2,-3,-21,-23,-3,2,2,1
20.28,1,28,23,-37,-10,0,4,0
20.285,-3,5,-19,11,2,-1,-3,-3
20.29,-11,-20,-29,-28,-8,-8,-5,-8
20.295,1,-2,-21,0,0,6,3,0
20.3,-4,-1,-17,-16,-2,-3,-3,-6
20.305,-6,-11,-42,3,-6,-4,-2,-2
20.31,4,3,19,-14,3,3,1,4
20.315,1,15,-17,-25,-3,-2,0,-3
20.32,-3,-22,-28,-7,-7,-3,-2,2
20.325,-6,-6,7,-19,-5,-1,-2,-5
20.33,3,1,4,15,4,0,-1,4
20.335,16,26,62,71,23,15,11,10
20.34,-10,4,47,0,-9,-8,-6,-18
20.345,-20,-17,69,-10,-14,-13,-11,-20
20.35,-1,12,51,47,2,-1,-4,-1
20.355,2,-7,11,-19,0,2,0,0
20.36,7,12,18,26,11,9,5,6
20.365,4,1,8,8,-6,-5,-1,4
20.37,-2,2,-21,-10,1,-2,-2,-3
20.375,-6,0,-17,-13,-6,-3,-1,-5
20.38,-3,-14,-24,-18,-8,-5,-4,0
20.385,-1,2,-38,-23,-5,-1,-1,-5
20.39,2,4,6,12,4,1,2,2
20.395,-7,-18,-24,-27,-8,-6,-2,-4
20.4,-6,-8,-33,9,-3,-5,-4,-2
20.405,0,3,2,8,1,1,-1,-3
20.41,0,-5,-17,5,4,0,-1,-1
20.415,-4,-1,-8,-27,-8,-6,-3,-4
20.42,2,-2,-7,-11,2,3,0,1
20.425,5,6,27,15,7,5,5,4
20.43,0,-3,-60,-58,-12,-4,-2,1
20.435,-9,-11,-39,-1,-9,-6,-5,-6
20.44,-3,-13,-19,-22,-6,-6,-3,2
20.445,0,-2,-17,-10,-1,-1,0,-1
20.45,3,5,27,26,6,5,3,2
20.455,5,-3,9,0,3,4,1,3
20.46,-3,-3,-60,-27,-8,-3,-4,-3
20.465,-7,-11,-2,12,-6,-5,-6,-5
20.47,-6,-1,23,8,-3,-3,0,-4
20.475,-2,-5,-30,-19,-3,-3,-4,-2
20.48,1,-3,24,23,4,2,1,3
20.485,1,4,6,-5,6,2,4,1
20.49,0,2,-5,5,-3,-2,-5,-2
20.495,-1,8,-11,-26,-2,1,1,1
20.5,1,-2,-2,16,-3,-2,-2,-1
20.505,2,6,2,11,4,0,-1,3
20.51,1,4,24,0,4,-3,-1,3
20.515,-4,-5,-10,6,-4,-2,-2,-8
20.52,-1,1,14,-12,-1,2,0,-3
20.525,-7,-20,-69,-66,-24,-13,-13,-6
20.53,2,6,18,26,8,2,5,5
20.535,4,6,19,9,6,4,5,2
20.54,0,-3,-6,-6,3,2,1,1
20.545,4,6,28,6,2,1,0,4
20.55,-1,-5,-13,-3,-3,-1,-2,-3
20.555,-3,1,4,-3,-8,-6,-7,-2
20.56,0,3,6,11,-1,1,0,0
20.565,-1,4,8,3,5,2,4,0
20.57,-2,-8,-24,-14,-4,-1,-2,-6
20.575,8,13,98,77,16,9,4,6
20.58,-6,-12,-60,-69,-21,-9,-5,-4
20.585,-5,-5,0,-10,-4,-3,-3,-2
20.59,-5,-4,1,-3,-1,-3,-1,-2
20.595,-2,-3,1,4,-2,-2,-4,-2
20.6,3,4,19,24,3,0,1,4
20.605,-7,-1,-8,0,0,2,2,-16
20.61,5,-1,-9,-4,-1,0,-3,3
20.615,-4,-4,-11,3,-3,-3,-1,-2
20.62,1,-5,-21,-16,-3,-6,-2,0
20.625,-1,-1,-6,4,0,2,1,-1
20.63,-1,-2,9,6,-1,-2,-2,-1
20.635,-1,-3,-10,-7,-2,-2,0,2
20.64,-2,0,10,14,3,1,2,-4
20.645,1,0,7,3,0,-2,-2,0
20.65,-4,-3,-5,-1,-5,-3,-4,-6
20.655,0,-6,-23,-23,-5,-1,1,2
20.66,-1,3,23,19,5,2,0,-1
20.665,-1,-1,-6,0,-1,0,0,-3
20.67,3,0,-4,-2,-3,-2,2,6
20.675,-7,-6,-16,-11,-4,-5,-4,-11
20.68,-1,2,16,10,2,0,-2,-1
20.685,1,-1,-4,3,2,0,-1,4
20.69,-3,-3,-7,-3,-3,1,1,-5
20.695,-1,-1,0,-5,-1,-2,-2,0
20.7,-1,0,3,3,-3,-1,-1,-4
20.705,1,-1,-8,-6,-2,-1,-1,0
20.71,-2,-1,-2,-1,-3,-2,-2,-1
20.715,0,-4,-5,1,0,1,0,2
20.72,-1,2,-6,-7,-2,-1,-1,-3
20.725,0,2,-5,-2,-3,-1,-2,-1
20.73,-1,-4,4,0,-4,-1,-1,-3
20.735,6,-3,-4,-1,-3,-3,-1,1
20.74,-1,-4,0,4,2,-1,0,-1
20.745,-6,44,4,-1,-1,0,-1,-4
20.75,6,-50,-6,0,1,0,-1,2
20.755,-34,-2,-9,-10,-3,-1,-3,-7
20.76,-4,-41,-1,1,-1,-2,-1,1
20.765,12,6,0,-1,0,0,1,2
20.77,-2,16,-2,1,1,-2,-1,0
20.775,11,-9,-6,-4,-4,-4,-3,1
20.78,0,10,4,4,1,0,-1,-3
20.785,-2,-16,-7,-5,-4,-2,-1,1
20.79,0,22,-2,0,-2,-4,-4,-5
20.795,4,1,-6,-7,-3,-1,0,1
20.8,-4,5,1,1,-2,2,2,-1
20.805,-1,-8,-4,-1,0,-3,-1,1
20.81,-4,6,-1,-2,-4,-3,-4,-3
20.815,-4,-2,0,0,2,1,-1,-2
20.82,1,5,3,2,-2,-2,0,1
20.825,-1,-13,-5,-2,-3,-3,-1,1
20.83,-6,-6,-3,-1,-1,2,0,-3
20.835,3,0,-3,-2,-1,0,-2,1
20.84,3,22,-2,-4,0,1,2,1
20.845,-2,-27,3,4,2,-1,-1,2
20.85,-2,4,15,8,1,-1,-1,-4
20.855,3,3,-16,-10,-3,-1,-2,3
20.86,-1,0,-4,-1,-1,-2,0,-3
20.865,-2,1,1,-2,-2,-1,-1,0
20.87,-1,2,2,-2,-1,0,-1,0
20.875,2,-2,26,5,2,2,2,4
20.88,-6,1,-10,-1,-2,-1,-4,-12
20.885,-3,-4,6,-1,-1,0,0,0
20.89,1,-1,-10,-1,-2,-3,-2,1
20.895,-3,4,7,1,0,-3,-1,-3
20.9,2,-6,-2,-3,-1,-2,-2,2
20.905,-2,1,-2,3,-2,0,0,-2
20.91,-5,-2,-1,-3,-2,-2,-1,-4
20.915,3,0,-7,0,0,1,1,1
20.92,0,-1,3,1,-1,-1,0,0
20.925,-2,-3,-17,0,-1,-2,-3,-3
20.93,1,3,-2,-11,-4,-2,-2,2
20.935,-2,-4,-8,-3,-2,1,-1,-4
20.94,0,-4,0,4,1,0,-3,0
20.945,-3,3,9,0,-3,-1,0,-3
20.95,0,-3,-8,0,-1,1,0,-2
20.955,-1,-3,-2,1,-1,-2,-3,-5
20.96,-2,1,2,-1,-2,-2,-1,-1
20.965,1,0,-4,-2,1,-2,-2,1
20.97,-2,-1,-5,-2,1,0,-1,-3
20.975,-3,-9,0,-1,-1,0,0,-3
20.98,0,1,0,-1,-4,-1,-1,3
20.985,0,0,1,-3,-4,-3,-3,-1
20.99,-2,-5,-1,2,2,0,-1,-2
20.995,-1,3,-6,-7,-3,-2,0,0
21,0,-3,-3,-3,0,-1,-3,-1
21.005,0,-2,-2,0,0,0,0,-1
21.01,-1,-1,4,-1,-4,-3,-2,-2
21.015,0,0,-3,1,2,-1,-1,-1
21.02,-2,-2,8,-1,-2,-1,0,1
21.025,-4,-1,-7,-2,1,-1,-1,0
21.03,1,5,3,2,-1,0,0,0
21.035,-1,-7,-3,3,-2,0,-1,-1
21.04,0,0,6,-1,2,2,-1,0
21.045,-1,0,-4,-5,-3,0,0,-1
21.05,-1,-3,-18,-11,-5,-4,0,0
21.055,-2,1,7,2,-1,-2,-1,-2
21.06,-1,-3,-5,0,-2,-1,-3,-2
21.065,1,0,8,2,-1,-1,-3,-3
21.07,0,-2,0,4,0,2,1,-1
21.075,0,2,-3,-4,-3,-2,-1,-1
21.08,-1,-1,-4,0,0,0,-1,0
21.085,0,1,5,2,2,1,-1,-1
21.09,-2,-2,1,-7,-3,-2,-1,-3
21.095,-1,0,2,0,-3,-1,-1,-1
21.1,-3,-3,-8,-6,-4,-3,-3,-2
21.105,-1,0,1,-1,0,-1,-2,-3
21.11,-2,-4,-2,3,1,1,0,-3
21.115,0,2,2,9,1,-1,-1,0
21.12,-1,-2,-2,-13,-2,1,1,-1
21.125,0,-5,-4,-3,-7,-1,0,-1
21.13,-2,3,4,1,4,-1,1,1
21.135,-4,-4,-11,-7,-3,-4,-3,-2
21.14,-1,1,8,4,0,-3,-2,-3
21.145,-2,0,4,5,0,-2,-1,-1
21.15,-1,-6,-1,-18,-7,-1,-2,-1
21.155,1,4,-5,0,1,2,1,-1
21.16,-3,-13,-21,-5,-2,-3,-2,-2
21.165,-2,-1,8,-2,-4,-1,-3,-1
21.17,-2,0,10,17,4,1,-2,-1
21.175,-1,-2,4,-2,-3,1,-1,-1
21.18,-1,-3,-17,-6,-4,-2,-1,-1
21.185,-2,-3,-3,-4,-3,-1,-1,-3
21.19,0,0,-4,2,3,2,1,1
21.195,-1,0,16,13,-2,-2,-1,-1
21.2,2,5,25,4,1,3,1,0
21.205,-3,-3,-14,-23,-6,-3,-2,-2
21.21,-1,-4,-11,-9,-2,-3,-4,-2
21.215,0,-1,-5,-2,2,0,-1,-2
21.22,0,2,17,11,0,-2,-1,0
21.225,0,5,19,14,2,0,1,-1
21.23,1,2,-4,1,-2,-1,1,-1
21.235,-4,-5,-17,-8,-4,-6,-3,-3
21.24,1,1,17,0,-1,0,1,0
21.245,-4,-9,-18,2,-3,-4,-1,-2
21.25,0,4,6,0,-2,-2,-1,1
21.255,-2,-4,-13,-14,-4,-3,-3,-2
21.26,2,5,12,12,4,3,3,1
21.265,-4,-7,-22,-9,-4,-2,-3,-3
21.27,-1,-1,25,20,2,0,-1,-2
21.275,0,4,10,3,4,1,0,-2
21.28,-5,-7,-57,-34,-10,-5,-4,-3
21.285,2,3,11,11,3,2,1,2
21.29,-1,-3,-10,-6,-2,1,1,-1
21.295,-1,2,34,13,1,2,1,0
21.3,-2,-4,-27,10,3,-4,-2,-3
21.305,-5,-7,-8,-15,-8,-5,-4,-4
21.31,-1,2,-5,-13,-1,-1,-1,-1
21.315,2,4,-13,9,10,3,-1,2
21.32,-1,2,-16,-58,-21,-4,0,-2
21.325,-4,-11,-18,20,-1,-5,-4,-3
21.33,-1,4,25,26,10,-2,-1,-1
21.335,0,0,14,19,-1,-1,-1,-2
21.34,2,0,-19,-22,-9,2,4,3
21.345,4,6,-12,-37,3,-1,1,3
21.35,-2,2,73,52,1,-2,-3,-3
21.355,-4,-9,-60,-34,3,-3,-1,-1
21.36,-1,2,49,62,9,-1,-5,-5
21.365,-8,-18,-50,-36,-19,-7,-4,-5
21.37,1,-1,-26,-19,3,3,0,-1
21.375,4,9,53,11,-2,-1,2,5
21.38,13,18,87,76,26,19,10,10
21.385,-18,-20,-57,-64,-26,-20,-13,-14
21.39,0,-1,-12,16,3,-2,-3,-1
21.395,2,-4,16,-8,-11,-2,-2,1
21.4,-2,2,-41,-37,1,-1,-1,-1
21.405,16,21,42,36,20,16,8,12
21.41,-16,-24,-53,-24,-28,-8,-4,-15
21.415,-13,-8,9,-55,-18,-12,-9,-13
21.42,3,4,-30,41,37,4,0,2
21.425,-7,-18,-62,-94,-48,-12,-4,-3
21.43,-3,3,27,3,-4,-2,-1,-2
21.435,17,24,2,10,24,15,9,10
21.44,-22,-12,46,69,-28,-22,-15,-15
21.445,13,-6,-7,-20,10,8,2,13
21.45,-1,-10,4,41,20,4,3,-1
21.455,-23,-46,-123,-109,-59,-27,-18,-17
21.46,12,27,111,69,3,3,3,8
21.465,6,20,47,62,35,18,9,-4
21.47,-35,-47,-125,-128,-70,-44,-28,-26
21.475,-18,-36,55,8,-5,-9,-6,-10
21.48,29,21,-19,-8,39,29,20,25
21.485,-18,-2,30,-36,-41,-26,-14,-13
21.49,18,27,87,32,37,17,12,15
21.495,14,7,-128,-66,6,12,10,10
21.5,-12,-27,-111,-128,-16,-5,-4,-9
21.505,9,22,127,127,30,9,6,7
21.51,25,29,0,-18,19,15,13,18
21.515,6,38,127,127,22,14,6,6
21.52,-3,-5,-63,-85,-11,-4,-3,-1
21.525,1,-19,46,33,25,17,7,0
21.53,8,-4,-51,21,11,6,3,10
21.535,-12,-32,75,47,6,-6,-6,-5
21.54,-24,-40,-69,-34,-49,-24,-16,-23
21.545,17,44,47,69,43,23,13,14
21.55,3,16,-53,28,10,7,7,4
21.555,4,29,39,39,6,8,3,-10
21.56,-2,-8,-10,-63,-21,-9,4,15
21.565,-8,-3,-57,-16,-3,-12,-11,-23
21.57,37,6,54,47,14,18,8,-4
21.575,-66,-11,1,82,18,0,-9,-39
21.58,26,41,34,-23,18,16,16,21
21.585,-4,-23,-71,-61,-13,2,-1,-6
21.59,-2,12,84,40,1,-1,-2,6
21.595,6,-34,-128,-111,-43,-18,-20,-5
21.6,-5,22,127,58,9,-3,9,-14
21.605,23,40,116,83,30,26,17,21
21.61,-33,-39,43,-80,-42,-29,-18,-14
21.615,33,48,95,29,28,16,9,22
21.62,11,9,27,-8,13,10,9,22
21.625,-11,-23,-18,37,-12,-22,-20,-31
21.63,-33,-17,-78,-117,-39,-22,-17,-34
21.635,5,8,-45,-54,-23,-7,0,4
21.64,-9,-22,-3,26,-3,-9,-10,-3
21.645,11,0,-63,-2,-2,3,7,9
21.65,-5,25,63,9,6,5,3,8
21.655,-13,-27,31,15,-24,-33,-20,-7
21.66,-5,-45,-79,-53,-14,-1,-6,-14
21.665,1,36,-46,-59,-4,-3,1,6
21.67,10,9,81,107,18,16,11,10
21.675,30,34,-57,-56,19,14,16,26
21.68,-24,-19,34,122,12,4,-10,-33
21.685,-19,-5,68,32,-13,-26,-11,-14
21.69,0,-23,-77,6,8,6,2,8
21.695,20,34,60,3,-17,1,7,17
21.7,-32,-53,-86,2,-10,-17,-18,-39
21.705,7,-5,62,-19,-4,-2,-2,16
21.71,10,29,127,80,7,3,6,5
21.715,-21,-18,89,86,10,-6,-9,-14
21.72,1,11,-49,14,-8,-6,-6,11
21.725,-9,-20,-119,-117,-41,-6,-2,1
21.73,1,31,33,64,10,5,0,-10
21.735,-11,-48,-20,-38,-6,-3,-2,-14
21.74,4,8,49,-9,-16,-11,-6,-1
21.745,2,19,101,100,13,11,6,6
21.75,-25,-64,-119,-128,-60,-27,-18,-12
21.755,8,-8,-27,-3,18,9,9,3
21.76,-12,12,81,49,-1,0,1,2
21.765,-11,-43,-76,8,-19,-22,-20,-10
21.77,7,11,-30,-101,9,6,5,5
21.775,2,18,53,30,19,12,10,2
21.78,6,-23,73,33,-8,-14,-11,10
21.785,5,-2,57,-7,-4,7,7,14
21.79,-4,-6,-25,9,-6,-9,-11,-17
21.795,3,-3,-90,-27,-5,0,5,11
21.8,29,60,78,31,41,24,17,25
21.805,-27,-26,-64,-43,-22,-15,-14,-33
21.81,-11,-10,-15,8,1,-7,-6,-5
21.815,9,27,50,33,-1,4,3,6
21.82,-8,3,-95,-50,-12,-8,-7,-7
21.825,11,6,40,13,14,6,5,7
21.83,9,-4,-51,-66,-4,8,6,10
21.835,3,17,55,43,23,3,2,3
21.84,-3,-16,-3,14,-15,-4,-5,-5
21.845,-18,-35,-22,-56,-33,-20,-12,-10
21.85,8,19,84,35,6,9,7,4
21.855,4,-3,8,36,5,0,0,0
21.86,-10,4,48,-4,0,-3,-3,-9
21.865,6,10,19,22,17,3,-3,1
21.87,0,-4,18,20,6,3,10,8
21.875,2,-7,-58,-22,-16,-7,-6,7
21.88,-7,-19,-62,-58,-12,-1,-1,-6
21.885,4,-4,-6,1,12,3,4,8
21.89,-5,3,6,3,0,-7,-8,-14
21.895,-18,-32,-12,29,-7,-9,-11,-16
21.9,17,28,31,18,3,7,5,7
21.905,-11,0,71,31,6,3,3,1
21.91,-2,-16,-71,-31,-1,-5,-5,0
21.915,2,6,11,-13,-1,4,3,-2
21.92,5,-5,-1,0,-8,-10,-5,-3
21.925,2,-1,-53,-57,-1,3,2,-4
21.93,-7,5,38,27,3,-1,-4,-7
21.935,-8,-11,-52,-51,-9,-3,-3,-3
21.94,-4,2,22,7,8,1,1,-6
21.945,12,12,19,0,2,5,3,8
21.95,-1,-6,-4,11,-4,-5,-2,2
21.955,1,2,-17,-27,-4,1,0,-1
21.96,-9,-5,0,3,-4,-2,-6,-12
21.965,-1,6,0,18,9,2,3,2
21.97,2,-10,-18,-8,-7,-7,-8,-1
21.975,-6,-2,-1,-3,-6,-4,-2,-5
21.98,3,0,-4,2,4,5,4,12
21.985,-6,2,6,8,-2,-2,-1,-15
21.99,6,5,28,2,6,6,6,11
21.995,-15,-4,-40,-30,-7,-7,-6,-21
22,19,3,14,7,1,-1,-1,13
22.005,-13,-1,-23,-10,-5,-4,-3,-1
22.01,10,0,-15,10,2,-2,-1,5
22.015,-1,-6,10,-9,-4,-3,-5,-19
22.02,-10,-4,-18,-10,1,4,5,-5
22.025,-1,-4,5,21,5,0,-4,-12
22.03,2,0,0,-1,-4,-1,1,13
22.035,-3,-1,-12,-14,-4,-2,-4,5
22.04,10,-7,-11,-7,-7,-5,-4,6
22.045,1,3,4,-6,1,0,3,-3
22.05,-1,-1,-2,8,0,-4,-5,-1
22.055,-8,1,11,5,2,1,3,-3
22.06,7,2,-4,-5,1,-1,-5,-12
22.065,-4,-3,-6,2,-2,-1,-2,6
22.07,11,-3,-4,-1,-1,0,-4,-12
22.075,17,-1,9,1,-6,-1,3,23
22.08,-24,-2,-1,-4,0,-1,0,-10
22.085,2,-2,-6,-1,-3,-1,-4,9
22.09,16,1,1,4,3,2,3,14
22.095,-30,-9,0,-8,-7,-5,-6,-27
22.1,-7,-4,-4,-3,-4,-2,-7,-15
22.105,8,3,0,0,4,1,5,10
22.11,-9,0,-2,-3,-1,0,2,5
22.115,7,-1,8,12,7,2,1,15
22.12,-9,-2,-1,3,-2,0,-2,-3
22.125,3,-2,-18,-11,-4,-2,-1,-1
22.13,-15,-5,0,-4,-1,-1,-1,-1
22.135,8,3,6,3,0,-1,0,3
22.14,-7,-3,11,3,-3,-1,1,1
22.145,15,-3,-10,-3,-5,-4,-5,1
22.15,2,-2,-2,1,-3,0,1,-2
22.155,-4,1,2,2,2,0,1,-1
22.16,4,-1,1,-3,-1,-4,-1,2
22.165,-7,4,12,7,4,0,-1,-4
22.17,-12,-2,6,-9,-5,-3,-4,-10
22.175,-1,-13,-43,-17,-6,-3,-4,-3
22.18,-4,0,-9,-3,0,0,1,-2
22.185,5,-1,0,0,-3,-2,-2,-1
22.19,-10,6,3,5,-1,-3,-3,-10
22.195,11,12,27,6,5,5,6,4
22.2,0,-8,-15,-10,-3,-3,0,4
22.205,-1,-9,-8,-3,-3,-3,-4,4
22.21,9,1,-15,-3,-1,-1,-3,1
22.215,-9,-2,10,0,-5,-3,-5,-21
22.22,5,-3,0,4,-3,-2,0,10
22.225,-17,3,-1,-6,-1,0,-2,-28
22.23,-1,-9,6,15,7,1,-1,0
22.235,5,0,5,-22,-9,-2,-2,7
22.24,5,0,-11,-1,2,0,-1,-1
22.245,-5,1,6,3,1,1,-1,-1
22.25,5,-1,4,15,-2,-6,-4,0
22.255,-3,-4,-3,-5,0,2,2,-1
22.26,-2,0,0,5,1,0,-1,4
22.265,10,-13,-20,-8,-4,-4,-4,4
22.27,-16,-1,0,-14,-7,0,0,-6
22.275,-1,3,21,16,2,-1,-1,3
22.28,-1,-4,-14,-8,-2,-2,-3,-2
22.285,0,7,11,4,4,2,5,11
22.29,-1,-3,-11,-5,-3,-1,-4,2
22.295,6,-3,-5,-1,-3,0,1,5
22.3,-1,1,11,-2,1,0,1,-6
22.305,3,1,5,9,1,-2,-1,9
22.31,-2,0,2,-4,-1,-2,-3,-9
22.315,5,0,-7,1,2,-2,-3,6
22.32,-3,-2,-3,7,0,2,1,-4
22.325,5,1,3,-5,-3,-2,3,5
22.33,-18,0,-5,-8,-2,0,-1,-2
22.335,3,-6,-5,8,0,-1,-5,2
22.34,-17,1,5,-11,-7,-1,0,-17
22.345,1,-5,-9,-6,1,0,-3,1
22.35,-7,3,14,11,1,0,2,-8
22.355,5,-4,-7,-12,-3,-3,-1,10
22.36,9,0,8,6,-6,-3,-4,6
22.365,-20,-5,-24,-16,-3,-1,0,-6
22.37,-1,-4,-1,-10,-4,0,-1,-2
22.375,-3,1,4,10,4,0,2,-3
22.38,3,3,2,2,1,-4,-4,0
22.385,-1,4,14,7,-2,-1,0,-6
22.39,2,-2,-3,2,-1,1,0,2
22.395,-7,-2,-7,1,-1,2,1,-10
22.4,-1,3,5,-8,-1,1,0,3
22.405,-4,-5,-10,1,1,1,0,-5
22.41,-1,-1,-2,-6,-4,-2,-1,-2
22.415,-1,-2,-1,3,-1,-4,-1,-5
22.42,0,-5,-8,0,0,-1,-1,-1
22.425,0,0,5,1,-2,-2,-2,-5
22.43,6,-3,-6,-1,1,-2,-1,3
22.435,-1,0,4,2,-4,-1,-2,-4
22.44,-1,-5,-13,-19,-6,-4,0,0
22.445,3,1,2,0,1,2,2,3
22.45,0,-1,6,5,-3,-1,-2,1
22.455,-2,3,18,9,3,0,-1,0
22.46,-2,-5,-50,-17,-3,-5,-3,1
22.465,-9,-1,-3,-14,-4,2,-1,-15
22.47,2,2,-2,4,2,-2,0,-1
22.475,8,6,17,11,0,-2,0,-1
22.48,-6,0,2,8,2,3,0,1
22.485,0,-2,10,3,-3,-4,-3,-2
22.49,-2,-3,-12,2,-4,-2,0,-2
22.495,0,-2,-13,-13,2,-1,0,-2
22.5,4,6,18,6,-2,-1,2,0
22.505,-6,-9,-24,-13,-4,-1,-2,-2
22.51,3,2,33,26,5,0,-1,-1
22.515,-4,-1,7,-7,-5,-1,-2,0
22.52,-4,-9,-35,-12,-3,-5,-4,-4
22.525,1,3,13,3,-1,0,0,1
22.53,1,0,-4,-7,5,3,2,-2
22.535,-2,1,2,5,0,1,-2,1
22.54,-1,1,18,17,4,1,-3,-2
22.545,-3,-5,-12,-5,-4,-4,-3,-2
22.55,-1,1,-2,-3,2,4,0,-2
22.555,-3,-5,-10,-24,-8,-7,-6,-5
22.56,-3,-5,-6,-12,-10,-2,-2,-2
22.565,0,0,9,9,5,2,1,-1
22.57,2,4,1,-5,-2,0,-1,1
22.575,0,4,1,6,4,1,1,1
22.58,-5,-12,-70,-36,-12,-5,-2,-4
22.585,2,3,28,-2,11,2,0,1
22.59,-8,-13,-48,5,-10,-7,-6,-7
22.595,4,7,49,27,4,4,4,3
22.6,1,5,40,13,6,1,-1,0
22.605,1,2,-26,-27,-4,-2,1,0
22.61,5,8,71,71,11,5,-1,6
22.615,-11,-18,-95,-95,-21,-10,-7,-8
22.62,-1,-6,-63,8,5,-1,-2,-2
22.625,-8,-1,61,0,-2,-4,-3,-8
22.63,3,-5,-23,-1,-9,-3,-2,4
22.635,1,30,45,67,34,20,9,-8
22.64,-16,-23,-22,-46,-26,-13,-10,-11
22.645,4,11,69,10,2,-2,-3,1
22.65,-9,-9,-7,25,0,-4,-1,-10
22.655,-7,-27,-99,-62,-19,-8,-7,1
22.66,5,12,125,127,20,0,-1,3
22.665,9,2,-92,-64,-10,9,8,7
22.67,-25,-39,-10,-105,-36,-26,-19,-18
22.675,13,23,96,107,40,15,9,9
22.68,-5,-19,-30,-44,-21,-12,-4,-7
22.685,4,8,25,54,11,6,1,4
22.69,25,49,74,60,28,20,14,15
22.695,-15,-32,-39,-79,-41,-16,-10,-6
22.7,9,3,-29,15,15,14,10,6
22.705,-12,-19,-1,18,-8,-18,-11,-6
22.71,8,22,11,38,5,13,7,5
22.715,-17,-34,-73,-51,-38,-23,-13,-13
22.72,9,10,78,3,-6,7,3,11
22.725,32,43,17,-2,28,27,21,22
22.73,-37,-53,-24,-53,-30,-26,-21,-28
22.735,39,54,102,80,33,26,20,30
22.74,-39,-26,-53,-39,-33,-25,-20,-36
22.745,-10,-8,101,109,-4,-10,-8,-9
22.75,16,41,33,43,28,16,13,12
22.755,-9,-7,22,62,15,-6,-7,-4
22.76,-8,-35,-8,-90,-28,-19,-10,-5
22.765,-4,-3,36,21,1,-3,-5,-5
22.77,22,37,30,-38,7,14,12,11
22.775,-13,-15,54,-51,-15,-13,-8,-10
22.78,20,31,36,25,37,20,12,17
22.785,-17,-47,-128,-70,-32,-13,-9,-5
22.79,8,10,89,-89,0,-2,3,-5
22.795,-16,-38,39,-11,-26,-10,-9,-10
22.8,14,35,-26,-39,5,7,3,6
22.805,20,44,83,-33,18,15,13,9
22.81,-31,-69,-78,29,-23,-25,-19,-16
22.815,14,7,-81,11,20,10,7,11
22.82,-13,23,127,41,-18,-8,-9,-7
22.825,-8,-27,-84,-33,3,-1,0,-10
22.83,-8,-19,-27,27,-5,3,-2,1
22.835,-7,7,31,-10,-16,-14,-8,-10
22.84,21,10,7,40,30,21,15,21
22.845,-6,-3,-16,28,-2,3,0,-10
22.85,19,49,70,35,20,3,2,7
22.855,-37,-69,-54,-29,-18,-4,-9,-15
22.86,-11,11,2,44,-12,-14,-10,-12
22.865,-6,-13,-74,-84,-19,-5,-7,-1
22.87,-4,38,68,38,-15,-17,-11,-10
22.875,22,37,12,32,31,18,12,13
22.88,1,-12,2,-5,-3,-1,0,-2
22.885,-7,-53,-99,-4,-2,-5,-3,-2
22.89,-25,-74,-69,-124,-73,-28,-18,-15
22.895,8,38,44,47,25,11,5,6
22.9,12,33,106,81,23,16,10,10
22.905,-28,-42,4,75,-22,-28,-21,-20
22.91,-34,-78,-126,-81,-40,-26,-18,-19
22.915,6,10,91,21,2,0,0,1
22.92,1,-33,-100,-72,0,6,3,-1
22.925,-3,3,117,115,28,0,-2,-2
22.93,9,-5,-35,-9,-1,17,14,12
22.935,-16,-29,1,-92,-38,-22,-14,-13
22.94,3,36,35,33,23,3,0,3
22.945,25,57,106,38,-2,7,6,12
22.95,16,24,3,-17,17,21,14,13
22.955,7,25,117,96,20,5,3,2
22.96,19,63,65,-14,7,4,4,7
22.965,-10,-10,49,3,-11,2,0,-8
22.97,-6,10,22,23,11,-7,-8,0
22.975,6,39,5,-23,7,5,4,-11
22.98,-8,-33,-91,-40,-12,-9,-7,-4
22.985,7,0,-45,-91,-20,4,3,7
22.99,-7,-11,-43,8,-10,-11,-7,-5
22.995,14,16,21,-20,2,8,8,11
23,-17,-32,93,82,4,1,-3,-9
23.005,7,33,41,3,9,1,3,4
23.01,9,3,-19,37,31,15,9,6
23.015,-3,1,-43,-42,-24,-9,-7,-3
23.02,-14,-34,-84,-5,-11,-11,-7,-8
23.025,23,46,-11,34,26,13,10,14
23.03,-23,-9,95,-14,-25,-26,-17,-18
23.035,-4,1,47,81,16,5,0,-2
23.04,5,-21,-59,-12,2,3,4,4
23.045,15,35,39,-3,1,4,2,3
23.05,-15,-39,-8,51,10,-7,-9,-9
23.055,2,4,-56,-40,-7,-5,-3,2
23.06,3,24,77,38,1,2,3,3
23.065,-12,-10,72,46,-3,-12,-9,-13
23.07,17,24,127,52,25,16,10,13
23.075,2,7,56,70,3,1,2,3
23.08,7,0,-37,-51,0,8,5,10
23.085,-14,-22,-15,30,7,-14,-12,-8
23.09,2,13,10,-11,16,18,13,-5
23.095,-16,-24,-9,5,-15,-15,-13,-10
23.1,3,1,-51,-16,-2,-1,-1,-1
23.105,-13,-44,-90,9,-5,-2,-5,-5
23.11,2,13,-126,-72,-15,-6,-5,-2
23.115,6,3,12,22,14,10,6,6
23.12,-9,-20,-1,-8,-11,-3,-4,-8
23.125,-5,-15,1,22,1,-4,-2,1
23.13,12,10,-22,-18,11,8,3,4
23.135,-3,-8,-75,-24,-4,-2,-3,-1
23.14,-15,-38,27,32,-9,-5,-5,-8
23.145,-9,-5,-27,-41,-11,-5,-1,-5
23.15,9,19,49,34,16,6,7,11
23.155,-5,-52,-109,-67,-20,-3,-1,-6
23.16,3,22,31,-33,13,4,7,0
23.165,-9,-13,41,14,-21,-10,-8,-7
23.17,7,31,89,39,12,5,3,3
23.175,-5,-17,-63,-36,-10,-3,-1,-2
23.18,2,4,13,9,-4,-5,-4,-2
23.185,0,-12,11,-35,0,1,-3,-1
23.19,4,26,22,12,-8,-3,-2,2
23.195,-2,-19,-6,17,11,3,-2,1
23.2,7,42,20,31,2,0,2,0
23.205,-14,-28,-84,-87,-28,-13,-7,-7
23.21,-1,11,25,13,6,5,0,-8
23.215,6,2,-9,12,6,5,10,8
23.22,-3,9,-11,4,-5,-3,-4,-2
23.225,3,6,7,-7,4,4,5,1
23.23,13,60,53,33,12,5,4,4
23.235,-29,-53,-65,-88,-48,-28,-23,-20
23.24,-9,-32,3,-21,-6,-5,-6,-5
23.245,33,87,91,62,35,15,9,17
23.25,-9,-26,31,-45,-18,-5,-3,-2
23.255,11,45,48,46,11,8,3,3
23.26,8,16,85,29,15,1,2,5
23.265,-17,-24,-76,-26,-8,-3,-9,-11
23.27,5,1,-2,17,2,4,4,4
23.275,-7,-51,-65,-4,-1,1,-1,-5
23.28,-2,-13,-26,-11,-8,-7,-4,1
23.285,9,11,50,15,7,6,7,3
23.29,-8,-32,-89,-14,-4,-1,-3,-2
23.295,0,29,48,8,-6,-6,-5,-2
23.3,0,6,-35,-12,-10,-3,-2,-3
23.305,-8,-18,-15,-26,-7,-5,-1,-4
23.31,-5,-15,-37,2,-4,-3,-4,3
23.315,7,19,34,-2,6,2,1,4
23.32,-2,-12,3,1,0,-1,-3,-2
23.325,-3,-5,-2,-15,-6,0,-1,2
23.33,0,-9,10,7,-2,-1,1,1
23.335,1,21,16,18,6,-1,-3,-6
23.34,-6,-16,-22,-28,-10,-4,-3,-6
23.345,-4,3,3,-5,-3,1,0,-5
23.35,5,-8,-17,-3,5,-1,0,6
23.355,1,-23,27,26,2,0,0,3
23.36,1,-10,-31,-20,-12,-6,-6,2
23.365,-5,1,4,-12,-7,-5,-4,-1
23.37,1,-4,18,2,-1,-1,-3,2
23.375,-5,6,19,3,-1,-1,-1,-11
23.38,-2,5,21,10,2,1,3,6
23.385,0,-1,0,3,-1,-2,-5,-17
23.39,1,-13,-32,-6,-5,-3,-3,3
23.395,0,8,7,-2,0,-2,0,2
23.4,5,6,8,1,2,0,-1,4
23.405,-5,18,8,-6,-2,0,0,-11
23.41,-7,-15,-7,0,-1,-3,-3,-7
23.415,2,11,20,9,2,1,2,1
23.42,-14,-11,-53,-32,-6,-1,-3,9
23.425,0,-8,-1,3,-1,0,1,6
23.43,1,1,-12,-7,-3,-4,-4,-2
23.435,-5,4,0,-1,-2,-4,-2,-11
23.44,1,-2,13,13,2,-1,0,-5
23.445,2,-1,3,3,1,2,4,6
23.45,-7,2,3,-2,0,-2,-2,-9
23.455,2,0,-24,-12,-5,-4,-1,6
23.46,-2,0,16,6,-1,-2,-3,-10
23.465,-1,-8,-9,-9,-3,-2,-3,-1
23.47,3,0,7,8,2,2,1,1
23.475,0,0,-3,-2,0,0,-1,2
23.48,1,-1,9,5,1,2,-1,-5
23.485,5,-2,-9,-4,-2,1,2,5
23.49,-9,-12,-8,6,-1,-4,-2,-5
23.495,6,22,-15,-15,-6,3,2,2
23.5,-9,-37,-33,-6,0,-4,-3,-8
23.505,1,10,34,4,-1,-2,-2,0
23.51,-2,-3,-8,-2,-3,0,-2,-1
23.515,3,4,5,7,3,2,-1,0
23.52,5,29,43,30,3,0,1,0
23.525,-4,-27,-45,-28,-5,-4,-2,-1
23.53,-4,-5,-11,-13,-3,-4,-2,-4
23.535,1,0,7,4,4,-1,0,5
23.54,1,10,18,4,0,1,0,0
23.545,0,-10,-5,9,-5,-5,-6,-3
23.55,-7,26,3,-6,-5,0,-1,-1
23.555,-5,-24,3,-3,-1,1,1,-2
23.56,-1,4,1,-5,-2,2,0,-2
23.565,-1,13,11,1,-1,-3,-2,-1
23.57,2,-10,-22,-7,-2,-1,0,-2
23.575,0,4,-1,-1,0,0,0,0
23.58,-5,-3,1,-1,-2,-3,-2,-4
23.585,-1,-1,-1,2,-1,-2,-1,-1
23.59,0,4,-1,5,-1,0,-1,-7
23.595,-1,5,6,4,1,-2,-1,3
23.6,0,-10,-1,-11,-6,-3,-4,-2
23.605,0,1,-6,-21,-2,-2,1,0
23.61,1,0,-14,3,2,-1,-3,-2
23.615,-2,0,0,5,1,3,1,-6
23.62,-2,-1,1,-3,0,-3,-1,-3
23.625,0,5,-1,11,0,1,-1,2
23.63,-4,-2,-12,-6,-1,1,1,-5
23.635,1,-9,4,-4,-4,-3,-3,4
23.64,1,4,-3,-1,-2,-3,0,0
23.645,-1,2,-1,6,1,0,0,0
23.65,0,-1,7,0,0,-1,0,0
23.655,-1,-3,-4,-5,-3,-2,-2,-3
23.66,0,0,-11,-3,-1,-1,-3,0
23.665,-4,-5,4,0,-1,0,-2,-2
23.67,2,-3,4,0,-2,0,0,1
23.675,-1,5,0,-2,-4,-4,-1,-2
23.68,0,1,5,1,2,2,1,1
23.685,-3,-3,-16,-3,-2,-3,-2,-5
23.69,1,-2,-1,-3,-2,0,0,1
23.695,-3,1,-5,-17,-4,-5,-2,-2
23.7,-1,-2,11,13,3,1,3,-5
23.705,3,0,-3,-6,-6,-3,-4,2
23.71,-2,0,11,0,-2,-1,-2,-2
23.715,-2,-5,-9,-4,-2,0,0,0
23.72,2,12,7,3,0,1,-1,1
23.725,-4,-8,-9,4,-3,1,0,-2
23.73,0,0,4,5,-1,-2,-1,1
23.735,-1,-1,-1,-2,-2,-1,-2,-3
23.74,-1,-4,-5,-7,0,3,1,-1
23.745,-1,2,11,5,1,0,4,-2
23.75,0,-3,-7,-6,0,-1,-3,2
23.755,-2,0,1,3,-2,-2,-2,-3
23.76,-4,-2,-5,-4,-3,-1,-2,-1
23.765,-1,-1,6,3,-1,-1,-1,-1
23.77,-2,-3,-11,-2,1,-5,-1,-1
23.775,-1,0,-25,-11,-4,-3,-1,0
23.78,-1,-6,6,2,-1,0,1,-2
23.785,0,6,3,13,5,0,1,-1
23.79,-3,-2,-17,-25,-8,-3,-2,-4
23.795,-2,-2,18,12,1,2,-1,0
23.8,-3,-4,-15,-6,-3,-4,-1,0
23.805,0,2,-4,-6,-2,0,0,0
23.81,0,-1,4,11,2,1,-1,-1
23.815,-1,-1,3,-2,-1,-2,-1,0
23.82,-2,-3,-1,0,0,-1,-1,-2
23.825,0,-1,8,-1,1,0,-2,-2
23.83,-1,-4,0,2,-1,-1,-1,0
23.835,-2,-3,-3,-4,-2,1,0,-2
23.84,-1,0,-2,-2,-5,-3,-5,-3
23.845,-3,-1,-4,-3,1,-2,-1,-1
23.85,-1,1,4,2,0,-1,2,0
23.855,1,1,2,-1,1,-3,-2,-2
23.86,-1,0,-5,-2,-3,-2,-1,-2
23.865,-2,-1,-3,-3,-5,0,-2,-2
23.87,-2,-1,2,0,-3,0,1,-1
23.875,0,1,7,3,1,1,0,1
23.88,-1,-1,-3,-3,-2,-3,-2,-1
23.885,0,-6,-4,-2,-1,0,-1,0
23.89,-2,-1,5,-1,-3,-1,-1,-2
23.895,-2,-2,2,0,-4,-5,-4,-3
23.9,-3,-3,-4,4,-2,-3,-1,-1
23.905,0,-1,1,-1,0,1,0,0
23.91,0,0,2,-2,-2,1,0,-1
23.915,-1,-3,-14,-8,1,-1,0,-2
23.92,-1,-1,-1,3,2,1,0,-4
23.925,-1,1,-10,-14,-6,-7,-5,-1
23.93,-1,2,-2,-3,-5,-3,-3,-3
23.935,-1,-4,2,2,-3,0,-1,0
23.94,0,0,6,4,-3,-3,0,0
23.945,-1,-2,1,8,3,4,2,0
23.95,0,2,-5,-2,0,-2,0,0
23.955,0,2,0,3,-1,-3,-2,-1
23.96,0,-3,-6,-9,-4,-1,-2,0
23.965,-2,-2,-1,-5,-2,-3,-3,-2
23.97,-2,-5,-2,-2,-1,-1,-1,-1
23.975,-2,-1,-5,0,4,0,2,0
23.98,-2,-1,4,6,0,1,-2,1
23.985,-2,-4,-1,-8,-6,-3,-2,-3
23.99,0,-5,-10,-2,-5,-1,-2,-1
23.995,0,2,8,8,1,0,0,-1
24,-1,-1,-10,-17,-7,-2,-1,0
24.005,-1,0,9,8,4,2,1,0
24.01,-2,-1,1,6,4,0,1,-1
24.015,-3,-2,-6,-9,-5,0,-1,-2
24.02,0,1,7,5,1,-2,0,-1
24.025,-2,-7,-5,0,-3,1,0,-1
24.03,1,3,3,4,1,-2,-1,-1
24.035,-1,-4,-7,-11,-6,-1,-1,-1
24.04,-2,-7,-1,0,2,-1,-2,-2
24.045,-1,2,-4,3,1,-3,-1,-1
24.05,-3,-2,22,11,5,1,0,0
24.055,-3,-4,-17,-23,-8,-4,-3,-2
24.06,-1,-4,-2,-2,-4,-2,-2,-2
24.065,-1,1,0,-6,-1,-2,-1,-1
24.07,-1,-3,-8,3,-1,0,-1,-1
24.075,1,0,9,10,0,-1,0,0
24.08,-1,5,3,-4,0,0,1,1
24.085,-3,-8,-11,0,-3,-4,-4,-3
24.09,-2,-1,-2,-6,-3,-3,-5,-2
24.095,-1,-3,0,1,-4,0,1,-6
24.1,2,0,-8,-2,2,2,1,6
24.105,0,2,8,4,1,-1,-1,0
24.11,-2,-3,-8,-8,-6,-4,-5,-5
24.115,0,0,3,2,1,-1,-3,-3
24.12,-3,-2,1,-1,-4,-2,-1,-3
24.125,-2,-3,3,0,-2,-1,0,-2
24.13,-1,-1,-7,-5,-1,0,0,3
24.135,-2,-1,1,3,-1,-3,-4,2
24.14,-1,-1,1,0,0,-1,-1,-3
24.145,0,-2,-2,-3,-3,-1,-1,1
24.15,-1,-2,-2,-3,-1,-3,0,-3
24.155,-1,0,4,4,2,2,2,-1
24.16,0,-2,-7,-1,1,-1,-1,-2
24.165,-1,2,11,6,0,-1,0,-1
24.17,-1,-2,-3,-8,-1,0,0,0
24.175,0,-2,-9,-4,-2,-2,-2,-1
24.18,-2,-2,-2,0,-2,-2,-1,-2
24.185,1,2,0,-2,-1,-2,-3,-4
24.19,1,0,9,7,-1,-2,-2,0
24.195,1,-1,3,3,3,1,3,2
24.2,-2,0,-4,-2,1,2,2,0
24.205,0,-1,-1,-6,-1,-2,-1,0
24.21,-3,-4,-5,-3,-2,0,-2,-1
24.215,-2,-1,2,-2,-1,-3,-3,-1
24.22,1,-4,0,-1,-4,-4,-4,-1
24.225,-1,-2,-2,0,1,1,1,-1
24.23,-1,0,-3,2,-2,1,2,0
24.235,-1,0,1,7,2,1,1,-1
24.24,-1,-3,6,-9,0,-2,-2,-2
24.245,-3,-1,-8,-4,-4,-4,-5,-3
24.25,-1,-2,-5,-6,-3,-1,-1,-1
24.255,-1,1,-4,2,2,3,1,-1
24.26,-1,-1,4,3,0,0,-1,0
24.265,-1,0,-2,0,1,1,-1,-2
24.27,1,1,0,1,-2,-2,0,-3
24.275,1,-2,1,-4,-4,-4,-2,-1
24.28,-1,-3,-2,1,0,1,-1,-2
24.285,-1,-2,-4,-4,-1,-1,0,-1
24.29,0,-1,0,0,-3,-1,-4,-1
24.295,0,-1,-1,-3,-3,-1,-2,-3
24.3,0,-2,-3,-1,2,1,1,-2
24.305,-2,0,0,1,-2,-1,1,-2
24.31,-1,-2,1,-3,-3,-2,-2,-1
24.315,-3,0,-5,0,0,2,0,-2
24.32,-1,3,14,8,-1,-2,-3,0
24.325,2,-5,-14,-7,-2,2,1,2
24.33,-2,-4,-20,-12,-1,-1,-1,-1
24.335,0,3,7,4,-1,-4,-3,-1
24.34,-1,4,13,4,-6,-2,-2,-5
24.345,-5,-3,15,6,0,0,-1,-3
24.35,2,0,-3,0,3,0,0,2
24.355,-3,-9,-1,-16,-5,0,0,-3
24.36,-4,-3,-23,1,-3,-5,-3,-3
24.365,4,13,72,37,7,3,2,2
24.37,-4,-9,-81,-47,-12,-5,-5,-4
24.375,2,3,4,21,9,5,1,2
24.38,-8,-17,-36,-19,-12,-9,-7,-5
24.385,-5,-6,-8,-27,-8,-4,-3,-5
24.39,4,8,62,27,8,2,2,5
24.395,3,5,-7,-2,-5,-2,0,1
24.4,-1,3,-27,-15,-1,1,-1,-2
24.405,2,4,31,51,7,0,-1,1
24.41,-2,-5,-32,-47,-7,-2,2,-2
24.415,-1,2,49,21,2,-1,-2,-3
24.42,3,1,35,20,3,1,-1,0
24.425,-6,-11,-45,-33,-7,-6,-5,-6
24.43,3,14,68,35,8,6,4,1
24.435,2,-7,-26,-22,-5,-1,1,2
24.44,-3,-4,13,-19,-8,-3,-4,-3
24.445,3,7,20,19,6,3,2,3
24.45,-2,-5,-20,1,1,-1,0,-2
24.455,1,3,59,31,0,0,3,2
24.46,3,9,-21,-8,7,7,5,-3
24.465,4,5,-8,-13,-6,-3,-4,7
24.47,-1,-2,12,23,2,-1,-3,-1
24.475,-8,-12,1,-17,-18,-6,-6,-8
24.48,-11,-15,-60,-29,-3,-4,-4,-11
24.485,7,3,8,31,4,-1,-1,4
24.49,-1,3,7,-17,1,2,0,-4
24.495,2,5,17,23,2,-3,-3,3
24.5,9,1,-66,2,14,12,7,9
24.505,-28,-38,-82,-89,-45,-26,-16,-20
24.51,-3,-5,12,-2,2,-3,-5,-3
24.515,7,0,15,9,7,3,3,6
24.52,11,23,37,-23,9,7,7,8
24.525,3,3,-34,58,14,6,3,3
24.53,-8,-5,24,-39,-17,-14,-9,-8
24.535,-2,8,85,78,10,-3,-1,-1
24.54,-16,-45,-68,-74,-35,-17,-10,-11
24.545,11,7,52,-11,10,11,7,9
24.55,9,29,85,3,3,3,2,6
24.555,-5,6,32,81,17,7,1,-3
24.56,-6,-17,114,-27,-1,-8,-7,-6
24.565,4,5,12,18,18,10,5,1
24.57,-8,-10,-11,20,-6,-7,-4,-7
24.575,42,73,37,22,52,37,25,25
24.58,-49,-52,-6,-45,-70,-47,-32,-37
24.585,24,58,116,-2,35,23,15,11
24.59,-35,-84,-11,84,-36,-28,-19,-16
24.595,2,6,-44,-44,5,-2,-1,-2
24.6,30,77,108,91,38,24,14,20
24.605,-30,-62,-96,-14,-14,-17,-15,-21
24.61,17,11,3,25,27,28,17,12
24.615,-61,-117,-128,-88,-64,-47,-35,-40
24.62,25,58,117,99,32,11,10,17
24.625,26,46,-38,-103,-7,-1,5,9
24.63,-46,-42,0,-46,-43,-27,-22,-27
24.635,24,54,38,-18,16,16,13,19
24.64,-26,-80,-68,-47,-41,-20,-15,-14
24.645,-2,40,43,-21,-14,-7,-2,-6
24.65,37,45,34,91,60,34,24,26
24.655,-54,-79,-73,-128,-86,-50,-39,-39
24.66,18,57,72,40,14,6,5,13
24.665,-14,-28,31,33,-28,-15,-10,-10
24.67,-11,-29,-94,-86,-32,-11,-9,-10
24.675,11,5,-18,-4,32,23,12,10
24.68,-20,-50,-128,-13,-19,-13,-9,-15
24.685,-17,-27,48,21,-14,-19,-14,-10
24.69,37,80,71,19,35,30,20,23
24.695,-23,-39,-59,-26,-2,-20,-12,-15
24.7,6,33,-27,-18,-8,7,4,3
24.705,-8,-8,-18,-45,-14,-11,-6,-4
24.71,7,-14,-29,83,39,22,11,8
24.715,8,6,-40,-112,-21,-2,1,4
24.72,9,20,13,90,39,17,10,8
24.725,15,29,29,25,9,6,7,6
24.73,-1,30,70,-15,-14,-11,-3,-3
24.735,23,49,-1,-1,13,17,12,13
24.74,27,51,72,57,43,19,12,13
24.745,-25,-76,-43,55,0,-4,-6,-7
24.75,15,31,18,51,7,-6,-4,2
24.755,3,-31,-33,70,-1,1,1,-1
24.76,-8,-10,95,-28,-5,3,2,5
24.765,0,13,57,29,15,9,4,2
24.77,-14,-37,54,-2,-5,-10,-9,-9
24.775,15,33,42,65,13,5,9,9
24.78,12,-5,-77,53,31,17,5,5
24.785,2,13,35,47,22,0,0,0
24.79,29,67,-2,-20,19,8,7,13
24.795,-4,32,-1,-3,-8,2,-3,-2
24.8,-10,-44,-26,-90,0,0,1,1
24.805,-13,-9,9,9,-7,-15,-13,-12
24.81,-5,13,-11,-40,-27,-12,-5,-5
24.815,43,96,127,86,43,22,17,24
24.82,-20,-52,-128,-128,-52,-23,-13,-13
24.825,4,-3,-9,0,0,2,-1,0
24.83,17,12,-2,15,17,15,13,14
24.835,-42,-48,62,46,-49,-37,-27,-30
24.84,12,30,22,48,10,-1,4,9
24.845,5,0,-72,-21,-3,11,7,6
24.85,-14,-42,-37,-27,-16,-7,-9,-11
24.855,5,12,-48,0,8,6,0,1
24.86,6,34,115,121,28,9,6,3
24.865,4,25,57,46,16,5,5,2
24.87,-40,-86,-67,-117,-42,-35,-27,-26
24.875,7,17,64,17,19,15,10,6
24.88,13,34,70,21,-1,-9,-3,4
24.885,10,12,-96,-82,-4,15,9,7
24.89,-19,-18,98,77,-2,-5,-5,-10
24.895,-9,-42,-72,-37,-25,-18,-9,-9
24.9,-4,8,48,31,-4,-2,1,-4
24.905,-5,-25,9,6,-24,-10,-6,-4
24.91,-19,-27,-53,-4,-19,-16,-11,-13
24.915,3,9,-87,-14,18,11,7,3
24.92,-23,-67,-73,13,-21,-8,-9,-9
24.925,-1,15,9,0,0,0,-2,-6
24.93,3,3,17,44,16,14,5,6
24.935,-14,-41,-79,-19,-14,-4,-3,-3
24.94,-13,-9,32,-36,-12,-14,-8,-7
24.945,6,24,77,50,7,2,0,1
24.95,-16,-31,-42,-24,-12,-10,-7,-8
24.955,11,0,6,13,20,16,9,13
24.96,-6,0,-89,-93,-31,-12,-6,-8
24.965,-6,-24,-47,-41,-11,-6,-3,-3
24.97,15,49,46,0,5,5,6,5
24.975,-21,-29,-72,-71,-43,-19,-12,-14
24.98,-6,-26,-11,24,6,-3,-8,-5
24.985,4,9,26,27,10,3,2,1
24.99,0,-13,-51,-20,-7,-1,1,1
24.995,-1,7,12,-17,-2,-1,-1,-4
25,-12,-33,-83,-47,-13,-6,-7,-5
25.005,2,-10,-69,-17,-1,2,-2,0
25.01,-1,-2,-10,27,3,4,6,1
25.015,-4,-14,-10,-41,-6,-3,-2,-4
25.02,5,23,52,14,11,6,5,0
25.025,6,13,-35,14,5,-1,0,4
25.03,-2,-4,-20,-77,-15,-3,-3,-2
25.035,-2,-6,49,37,3,-5,-4,-2
25.04,10,5,4,14,7,6,4,8
25.045,9,35,103,53,12,12,7,4
25.05,2,15,66,-1,-1,-6,-5,-4
25.055,0,-1,54,0,-9,-8,-7,4
25.06,2,0,-17,-15,0,2,0,3
25.065,3,-7,-11,-17,-6,-3,3,4
25.07,-3,-2,-16,14,6,2,0,-4
25.075,0,-6,5,8,2,0,-2,1
25.08,3,9,32,3,-1,1,0,2
25.085,-5,-9,-13,-30,-10,-3,-2,-3
25.09,0,5,-31,-6,-3,-2,-3,-2
25.095,-4,6,18,5,3,-1,0,-4
25.1,-6,2,3,5,0,-2,1,-6
25.105,-2,-12,-7,-15,-8,-4,-4,-3
25.11,4,-2,-13,2,0,0,0,5
25.115,0,6,27,18,6,1,2,-1
25.12,-1,10,24,10,3,1,4,-2
25.125,-7,-14,-19,-12,-6,-4,-5,-4
25.13,6,12,1,-2,3,3,2,5
25.135,-5,-2,2,2,-2,-6,-6,-9
25.14,8,4,3,0,-1,-1,1,-1
25.145,-16,-9,0,-12,-5,-6,-4,-7
25.15,4,2,-12,2,-1,2,-1,5
25.155,0,-4,5,6,-1,-3,-2,-2
25.16,0,-2,9,6,0,-2,-2,-2
25.165,1,-4,0,-7,-1,-3,-3,-1
25.17,1,9,1,5,1,0,0,-2
25.175,-4,-10,-6,-2,0,-1,2,-1
25.18,2,4,10,2,-1,1,1,4
25.185,-12,-6,-3,-5,-6,-3,-4,-24
25.19,3,14,-4,-3,1,-1,0,6
25.195,4,-17,6,1,-2,0,0,4
25.2,3,3,-4,-1,-2,0,-1,6
25.205,-11,-6,-15,-7,-5,-4,-5,-12
25.21,-4,-2,-3,-2,-2,-3,-3,-21
25.215,1,6,5,4,-1,0,-1,-2
25.22,-3,1,5,5,1,-1,-1,0
25.225,0,-3,-3,-11,-1,0,1,6
25.23,-1,-1,-9,-5,-2,-1,0,1
25.235,3,3,2,1,3,1,-1,4
25.24,-5,-2,-4,-2,-4,-3,-2,-5
25.245,4,2,3,0,-1,-2,-1,7
25.25,-2,-5,-10,1,-2,0,-1,1
25.255,-2,0,2,0,-2,-2,-1,-1
25.26,-3,-1,-2,-2,-1,-1,-2,-3
25.265,2,6,11,4,1,-1,0,1
25.27,-1,-8,3,8,-2,0,0,1
25.275,-3,3,1,0,2,-1,-2,-3
25.28,-4,-7,-16,-25,-9,-3,-4,-4
25.285,3,-2,2,9,0,-2,0,4
25.29,1,0,7,7,3,1,3,1
25.295,-4,-2,-13,-14,-3,1,-1,-3
25.3,-3,-1,14,11,0,-4,-4,-4
25.305,3,0,-9,-19,-7,-1,2,2
25.31,0,1,-2,1,0,-2,-3,0
25.315,1,4,8,7,2,0,0,-1
25.32,-1,3,5,7,1,2,1,-4
25.325,0,-8,-8,0,-3,-2,-3,2
25.33,0,1,4,-6,-1,-2,-1,-1
25.335,0,-3,-3,-9,-4,-2,0,-1
25.34,-2,-2,-16,-6,-1,-2,-2,-3
25.345,-2,2,12,10,1,0,2,-4
25.35,2,1,7,-2,-2,-2,-1,5
25.355,0,-1,-4,7,5,1,-1,1
25.36,2,5,-2,5,-4,-2,-1,-2
25.365,1,2,2,-12,-4,-2,0,1
25.37,-2,-1,-9,-8,-1,-1,-2,-3
25.375,-1,9,2,-5,-3,1,1,-1
25.38,-3,-19,-19,-3,1,-2,-2,0
25.385,-4,-4,-9,-6,-3,-5,-4,-1
25.39,-2,3,-3,-1,1,-2,-3,-2
25.395,2,0,2,4,-5,-3,-2,-1
25.4,-3,8,13,1,0,3,2,0
25.405,2,-6,-2,3,3,-1,-2,1
25.41,-4,-4,-5,6,0,3,3,-1
25.415,1,-5,-10,-6,2,0,0,0
25.42,-2,-3,6,-8,-7,-7,-7,-4
25.425,1,-4,-5,2,0,1,2,0
25.43,0,-1,2,0,-3,-2,-2,-3
25.435,-2,2,14,4,-1,-1,1,-1
25.44,-1,-3,-12,-6,-2,0,0,-1
25.445,-1,0,0,0,1,0,0,0
25.45,0,-1,0,-4,1,-2,-3,-2
25.455,-3,-5,-6,-1,0,1,1,-2
25.46,2,2,6,-1,-1,-3,-5,3
25.465,-1,0,0,1,-3,-1,-3,-3
25.47,-2,-2,-1,3,1,-2,-2,0
25.475,-2,-1,8,4,0,-1,-3,-2
25.48,-5,-3,-15,-16,-4,-1,0,-5
25.485,4,1,-2,2,2,1,0,3
25.49,-3,-1,-3,-7,-5,-4,-2,-3
25.495,-1,0,6,6,0,-1,-2,2
25.5,-2,0,4,4,0,2,1,-2
25.505,-2,-1,4,-3,-3,-4,-2,-2
25.51,-2,-5,-16,-4,-2,0,-2,-1
25.515,0,3,0,-1,-6,-5,-3,-2
25.52,1,2,0,1,0,0,1,1
25.525,-3,-2,-2,0,-2,-2,0,-3
25.53,-2,-17,10,5,-2,-1,2,0
25.535,-2,-1,-11,-5,-3,-3,-3,-2
25.54,1,0,1,-3,-1,-2,-1,-1
25.545,0,7,-5,-2,3,-1,-1,1
25.55,0,-7,3,-1,0,1,-1,-1
25.555,-1,-2,-2,0,-1,0,-1,-1
25.56,-2,-5,3,5,1,0,1,-2
25.565,0,-4,-2,-3,-4,-1,-2,0
25.57,-1,3,-4,-4,-4,-3,-1,0
25.575,-2,-4,-11,-6,-3,-2,-2,-1
25.58,0,2,7,6,-2,-2,-2,-1
25.585,-2,-3,-13,-18,-9,-4,-2,-2
25.59,-2,-3,-4,1,1,1,0,-1
25.595,-1,-4,2,4,0,0,1,0
25.6,-2,3,4,0,-1,1,0,-3
25.605,0,-2,-2,0,-2,0,-1,-1
25.61,1,1,0,-1,-3,-1,0,0
25.615,-1,0,-3,-1,3,-1,-1,-1
25.62,1,-4,-1,3,-1,-1,-2,0
25.625,-2,1,3,3,0,0,0,-2
25.63,-1,4,-3,-6,-4,-3,-3,-2
25.635,-3,-1,-3,1,-6,-1,0,-2
25.64,-1,0,2,-1,1,-2,0,0
25.645,-2,-4,1,-1,1,0,0,-1
25.65,0,2,0,0,-1,0,-1,-1
25.655,-1,-1,0,0,1,-1,0,-1
25.66,0,-3,-2,-4,-3,-2,-3,-3
25.665,-3,-1,-3,-2,-3,-3,-1,-2
25.67,-2,1,0,3,3,-1,1,-1
25.675,-1,-2,-6,-8,-4,-1,-1,-1
25.68,-1,1,0,1,-1,-1,-1,0
25.685,-1,1,0,3,-2,-1,-3,-2
25.69,-2,1,0,-2,-2,-2,-2,-3
25.695,-2,-2,-1,-3,1,0,0,1
25.7,0,0,1,0,-2,-4,0,0
25.705,0,-1,0,1,0,-1,-1,-2
25.71,0,0,-4,-3,-1,-2,-1,-2
25.715,0,-1,0,-2,-2,-2,-2,-2
25.72,-2,-2,0,0,-1,0,-3,-1
25.725,-1,0,6,0,-2,-2,-2,-1
25.73,0,-2,-7,-4,0,0,-1,-1
25.735,-1,-6,1,0,0,-1,-2,-1
25.74,-1,1,13,3,2,2,1,0
25.745,-2,-5,-19,-3,-1,-3,-3,-3
25.75,-2,1,3,-3,-4,-3,-2,-2
25.755,-2,-1,-12,-7,-1,-1,-2,-1
25.76,-1,1,5,3,1,0,1,-1
25.765,0,0,7,3,3,3,1,0
25.77,-3,-3,-14,-6,-4,-6,-4,-1
25.775,-2,-1,3,1,-1,3,2,-3
25.78,-2,-1,-8,-3,1,0,2,0
25.785,0,-1,0,-1,0,-1,-1,-1
25.79,-2,-2,-9,-1,-1,-2,-2,-2
25.795,-1,0,2,-5,-4,-2,-3,-1
25.8,0,0,-6,-1,0,0,-2,-1
25.805,-3,-2,2,0,-1,0,1,1
25.81,-1,1,9,0,-1,0,0,0
25.815,0,0,-2,4,0,0,1,-1
25.82,-1,-3,-5,0,-1,0,-1,-2
25.825,-2,-2,2,-7,-3,1,-1,-1
25.83,0,-1,-4,-1,-2,-4,-2,0
25.835,0,-3,1,1,0,-1,-1,-1
25.84,-1,-1,-2,-2,-3,-3,-1,-2
25.845,-3,-2,3,5,-1,0,2,-1
25.85,-1,-1,-2,-4,-2,0,-2,-2
25.855,-1,0,0,0,-3,-1,-1,-2
25.86,-1,-2,-2,-1,2,-1,-1,-1
25.865,0,-2,-5,-5,0,-1,-1,-1
25.87,-1,1,5,2,3,2,1,0
25.875,-2,-1,-1,2,-4,-4,-4,-1
25.88,0,0,-1,-2,-2,1,0,0
25.885,-1,-1,0,4,-1,-3,-2,-1
25.89,0,0,-1,-3,-3,1,1,-1
25.895,0,-1,-1,-3,2,0,-2,-1
25.9,-2,-2,1,-1,-2,-3,-3,-4
25.905,-1,-2,-14,-10,-6,0,0,-2
25.91,-2,0,15,1,2,0,0,-2
25.915,-1,-4,-12,-4,-1,-1,2,-2
25.92,-1,-2,8,-2,-5,-4,-4,-2
25.925,-1,-1,-8,2,3,0,1,-2
25.93,0,-3,-2,2,-4,-1,-1,-2
25.935,-3,-3,-13,-13,-4,-2,-2,-2
25.94,-3,-8,-8,-7,-3,-3,-1,-2
25.945,1,5,33,8,0,-3,-4,-2
25.95,-3,-4,-2,-5,-2,2,0,0
25.955,2,9,29,13,4,1,1,2
25.96,0,-3,-29,2,-5,0,-1,0
25.965,-1,5,23,3,2,1,-1,-1
25.97,0,1,25,19,3,2,0,2
25.975,0,1,-6,-33,-4,-2,0,0
25.98,-1,-5,-52,10,0,1,1,-5
25.985,-5,-5,-35,-22,-5,-3,-1,-3
25.99,13,17,42,43,12,5,0,12
25.995,-16,-29,-81,-65,-35,-19,-11,-13
26,1,4,46,6,11,4,2,3
26.005,2,4,12,33,2,2,2,-1
26.01,2,7,-14,14,10,3,2,0
26.015,0,5,64,7,-4,0,2,0
26.02,0,-10,-92,-24,0,3,3,0
26.025,-16,-23,-67,-84,-30,-18,-15,-11
26.03,-6,-13,-26,11,-5,-7,-5,-4
26.035,1,2,23,28,11,4,0,0
26.04,5,13,33,-2,4,3,2,3
26.045,-3,-5,-5,5,-1,-3,-3,1
26.05,5,3,1,-11,4,9,8,4
26.055,-4,5,32,-11,-9,-10,-7,-5
26.06,-7,-24,-59,18,-3,-1,-2,-4
26.065,10,14,42,-8,4,6,3,5
26.07,-7,0,43,0,-5,-9,-2,-6
26.075,-1,5,27,48,7,4,2,0
26.08,6,15,89,63,17,8,2,3
26.085,-7,-22,-97,-82,-22,-7,-3,-3
26.09,-1,0,55,-3,-3,-2,-1,-2
26.095,5,1,-27,23,10,8,3,2
26.1,5,19,32,-5,-3,0,0,5
26.105,-11,-17,-58,-67,-12,-9,-7,-9
26.11,7,19,68,61,12,6,3,3
26.115,-13,-32,-54,-67,-25,-18,-12,-11
26.12,20,37,85,-12,25,16,11,11
26.125,-4,-12,15,63,-11,-2,-2,-3
26.13,-18,-12,11,-3,-8,-13,-13,-13
26.135,-5,-24,-97,-75,-22,-3,-3,-2
26.14,-7,-7,-2,-20,-10,-10,-6,-4
26.145,16,29,127,97,21,13,10,11
26.15,-19,-27,-70,-19,-32,-22,-15,-16
26.155,17,35,65,61,31,16,11,10
26.16,17,23,60,-27,2,10,8,12
26.165,-38,-59,-66,-64,-23,-23,-19,-34
26.17,19,20,20,19,22,19,13,13
26.175,21,24,47,-4,12,15,13,19
26.18,-19,-2,3,-44,-61,-43,-24,-14
26.185,19,44,127,95,34,17,12,13
26.19,-11,-31,-120,-26,-27,-9,-3,-10
26.195,-17,-39,11,89,14,-1,-5,-6
26.2,3,2,55,0,5,3,3,5
26.205,-5,1,-15,-40,-9,0,0,-10
26.21,5,18,52,-21,-5,-3,-2,5
26.215,4,13,10,40,-2,3,4,5
26.22,-12,-35,-73,48,-2,4,-2,-13
26.225,-2,-9,-95,-12,12,-1,0,3
26.23,2,11,67,61,23,6,2,0
26.235,2,-9,5,-52,-11,1,0,0
26.24,-10,-22,-7,4,4,-10,-9,-4
26.245,13,14,36,85,24,15,7,6
26.25,-8,2,33,-14,-19,-14,-11,-9
26.255,17,31,99,30,30,16,10,12
26.26,11,29,73,86,12,9,6,8
26.265,-15,-12,25,-2,-13,-9,-6,-10
26.27,12,20,51,25,19,14,7,10
26.275,-5,-12,83,35,6,-5,-4,0
26.28,-9,-12,-42,12,-13,-9,-9,-6
26.285,3,-6,-34,-24,-10,-5,-2,4
26.29,3,13,-22,37,18,13,7,3
26.295,-29,-39,-68,-38,-36,-25,-17,-23
26.3,-3,-7,36,17,12,3,0,-4
26.305,28,47,78,55,26,20,9,21
26.31,-47,-87,-128,-128,-96,-52,-33,-32
26.315,-3,-3,9,-24,-7,-5,-2,-1
26.32,-7,-11,-56,-18,-5,-1,-3,-6
26.325,11,31,83,59,13,5,2,6
26.33,2,10,-20,-50,-2,2,1,0
26.335,7,18,-34,-6,4,4,0,1
26.34,-10,-15,55,0,-16,-12,-5,-5
26.345,-16,-33,-34,-33,-14,-6,-5,-15
26.35,-1,1,54,31,14,-1,-3,1
26.355,7,28,34,35,10,7,5,3
26.36,-22,-48,-104,-99,-36,-20,-12,-11
26.365,6,26,51,46,20,7,4,-6
26.37,12,11,56,-14,8,8,7,10
26.375,-13,12,20,38,-9,-9,-7,-17
26.38,16,6,25,42,26,17,11,15
26.385,-21,-39,-94,-113,-51,-26,-15,-16
26.39,4,-25,7,44,16,6,2,5
26.395,4,24,48,13,2,1,1,2
26.4,-6,-3,-12,7,-6,-5,-4,-7
26.405,-4,-9,-11,-4,-6,-5,-5,-2
26.41,3,-11,-20,16,14,14,7,2
26.415,3,-10,-103,-19,2,5,3,3
26.42,-1,11,14,-37,-2,1,1,1
26.425,-7,-18,-9,-34,-9,-6,-2,-5
26.43,5,14,65,83,26,13,6,3
26.435,5,12,13,6,12,5,3,1
26.44,5,23,106,71,11,4,0,4
26.445,-9,-17,-44,-69,-21,-10,-5,-3
26.45,8,3,14,41,8,-1,-1,3
26.455,-7,-4,-13,4,-15,-8,-3,-2
26.46,-18,-36,-89,-79,-33,-16,-9,-11
26.465,0,7,43,28,5,-4,-17,-1
26.47,3,7,-20,-42,1,3,16,-1
26.475,3,-2,-15,6,3,-1,-12,11
26.48,2,14,16,26,8,6,14,-13
26.485,-2,-15,-27,-2,-13,-9,-11,8
26.49,-2,4,-13,-22,-7,-3,-6,-1
26.495,2,-4,-16,10,3,2,0,2
26.5,-9,-9,-16,3,9,3,-4,-5
26.505,6,14,-5,-4,8,10,11,0
26.51,1,3,4,11,4,-5,-5,0
26.515,-9,-10,39,15,-9,-6,-1,-8
26.52,8,15,-8,15,5,0,-2,5
26.525,-5,-11,-9,-12,-5,0,3,-6
26.53,-3,-6,11,-37,-13,-5,-5,2
26.535,3,4,-24,-35,-2,-2,1,2
26.54,3,-3,1,1,3,0,-1,0
26.545,2,12,37,43,4,2,3,-2
26.55,2,-2,-50,-47,-13,-5,-1,6
26.555,-4,-4,23,-8,-9,-10,-6,-6
26.56,4,3,-5,-1,0,5,2,4
26.565,-2,2,-7,8,7,4,4,0
26.57,7,17,35,12,14,8,3,4
26.575,-18,-19,-45,-15,-9,-4,-2,-22
26.58,0,-2,-7,-1,-4,-6,-9,4
26.585,1,1,-9,-18,0,2,3,-1
26.59,-3,-1,24,27,0,0,-3,-3
26.595,3,-5,-13,-13,-2,0,0,3
26.6,-2,-3,-2,-2,-2,-4,-1,-4
26.605,2,2,17,13,6,3,2,5
26.61,-1,-9,-12,0,-4,-4,-2,0
26.615,-2,1,-11,9,2,-3,-2,1
26.62,1,4,5,-9,-1,1,1,-1
26.625,1,-5,-9,-9,-5,-4,-2,4
26.63,-6,-3,5,15,1,-1,-1,-6
26.635,5,4,-4,-32,2,5,5,4
26.64,1,5,35,20,-1,1,-1,1
26.645,-8,-15,-42,-5,-8,-8,-7,-10
26.65,-7,-8,-7,-10,-5,-4,-6,-6
26.655,1,-1,11,-10,2,2,2,1
26.66,-2,1,14,2,-1,-1,-2,-3
26.665,-4,-4,3,-10,-6,-5,-2,-7
26.67,0,5,8,7,4,0,1,0
26.675,3,-1,-1,7,3,3,1,5
26.68,-1,-3,0,-5,-4,-2,0,0
26.685,-3,1,-6,-4,2,0,1,-1
26.69,2,-8,11,11,-4,-4,-6,2
26.695,-1,-1,13,12,-2,1,-1,-1
26.7,0,-2,-5,-12,-4,-1,1,4
26.705,0,2,2,7,1,0,1,-3
26.71,-1,7,38,21,4,2,2,0
26.715,-9,-18,-75,-54,-13,-10,-6,-7
26.72,-3,-6,-13,-14,-1,-4,-2,-4
26.725,2,0,5,14,3,1,-1,1
26.73,-4,0,15,1,0,2,3,-1
26.735,2,4,9,44,2,-1,-2,0
26.74,3,-3,-1,-33,-5,-4,-3,8
26.745,-4,-2,-11,-2,0,3,5,-3
26.75,-8,-5,-58,-33,-7,-4,-2,-7
26.755,1,2,17,11,0,-2,-4,-2
26.76,0,-2,11,14,-5,-5,-3,2
26.765,3,1,5,4,3,-2,-1,6
26.77,-3,-2,-9,1,0,-1,-1,-1
26.775,1,2,-3,-8,0,-2,1,2
26.78,-3,1,37,22,3,2,1,-4
26.785,-2,-4,-18,-26,-7,-2,-6,-2
26.79,-5,-2,-3,8,-2,-3,-1,-5
26.795,1,1,1,-3,-1,1,1,-1
26.8,1,0,1,3,-2,0,0,-1
26.805,0,3,18,10,2,1,2,-2
26.81,-1,-4,-14,9,-2,-1,-4,-1
26.815,-2,-3,-23,-28,-3,-2,-2,0
26.82,-1,3,7,16,4,1,2,-3
26.825,-2,-6,-26,-22,-9,-4,-1,-2
26.83,1,-2,5,-7,-5,-2,0,-2
26.835,3,9,41,13,6,4,1,0
26.84,-8,-13,-19,2,0,0,-1,-11
26.845,3,6,41,15,5,0,-2,5
26.85,-2,-2,-13,-4,-3,-6,-3,-2
26.855,-1,-3,-19,-2,-3,0,0,1
26.86,-5,3,-4,-6,-1,-1,-4,-13
26.865,7,3,7,-1,1,1,2,9
26.87,-1,-2,5,2,-3,0,-1,0
26.875,-2,0,9,7,-3,-2,-1,-5
26.88,3,5,9,13,4,2,5,5
26.885,-4,-10,-45,-29,-9,-3,-1,-2
26.89,-7,0,12,13,3,1,-1,-11
26.895,0,-6,-17,-7,-2,-4,-4,3
26.9,2,2,-2,-10,-4,-2,-3,6
26.905,-5,-2,5,-1,-6,-2,-2,-7
26.91,6,1,-5,1,4,3,0,9
26.915,0,2,21,5,-2,2,0,-2
26.92,0,-5,-20,-11,-4,-3,-2,1
26.925,-3,0,-4,3,-3,-1,1,1
26.93,8,5,3,1,0,-1,0,5
26.935,-16,-9,-14,2,0,-1,0,-8
26.94,10,1,12,5,1,1,-3,-1
26.945,-1,-4,2,-12,-7,-4,-3,-1
26.95,-1,-3,-22,-9,-7,-3,-4,-3
26.955,5,7,6,2,4,0,4,6
26.96,-4,0,-4,-8,-2,-3,-2,0
26.965,-1,-3,4,8,2,2,1,-2
26.97,6,-2,3,-2,-1,1,-2,9
26.975,-3,-1,-2,-3,-8,-2,-2,-7
26.98,-1,1,0,-5,-1,1,2,-2
26.985,-1,0,5,6,1,-3,-3,-3
26.99,-14,1,2,-3,-1,-1,1,-9
26.995,6,-4,-3,-4,-3,-4,-7,-9
27,0,-3,-3,0,1,1,2,9
27.005,-10,2,-2,2,0,0,6,8
27.01,11,-5,-1,-2,-1,-2,-4,-17
27.015,-10,-3,-5,-2,-1,-2,-4,-15
27.02,1,1,-1,-1,0,-1,-1,-5
27.025,7,1,2,2,5,2,1,7
27.03,-29,-3,-4,2,2,1,9,-19
27.035,7,-1,4,1,-6,-3,-4,10
27.04,-5,-1,-5,-5,-5,-4,-2,-5
27.045,1,-3,-3,0,-2,-3,-6,-5
27.05,31,6,4,4,7,4,-2,2
27.055,-33,-2,4,-1,0,-1,-4,-12
27.06,18,3,-1,-2,-3,2,14,5
27.065,-19,-1,-1,-2,-4,-5,-5,10
27.07,25,-4,1,-4,-5,-5,4,8
27.075,-7,1,0,0,-3,-1,-6,-19
27.08,-2,-6,-8,1,7,6,-2,-2
27.085,-3,-2,6,-4,-2,0,-3,-6
27.09,-10,2,5,3,-1,-2,-3,5
27.095,4,-3,0,-3,-3,0,3,4
27.1,-11,-4,2,-2,-5,-4,-5,0
27.105,1,-2,-23,-4,-4,-4,-1,-15
27.11,-13,-2,3,2,3,1,-2,4
27.115,7,0,-4,-4,0,1,4,9
27.12,-1,1,1,0,-5,-5,-5,-2
27.125,4,7,8,-1,2,-2,-4,-2
27.13,-9,-12,-6,0,-10,-3,-3,-8
27.135,7,-2,-1,0,1,-1,-2,13
27.14,-2,-1,-3,-5,-2,-5,-3,-8
27.145,2,0,2,1,3,3,2,-4
27.15,-3,4,3,0,0,-2,3,10
27.155,7,5,7,3,2,2,2,4
27.16,-7,-14,-14,-5,1,10,-2,-1
27.165,2,3,14,2,-4,-5,-2,-2
27.17,-7,-18,-22,-4,1,0,-2,-5
27.175,0,-10,-30,-2,-4,-5,1,2
27.18,1,7,19,1,-7,-10,-6,-2
27.185,0,-10,-26,-10,-6,1,-1,-4
27.19,2,5,3,2,2,-1,-1,4
27.195,2,3,11,-1,5,-3,-1,0
27.2,-4,-2,-6,7,0,3,0,-1
27.205,1,2,0,5,-1,-1,0,-2
27.21,-6,-9,3,-7,-9,-8,-9,-3
27.215,-1,-3,-6,-7,-4,2,4,-1
27.22,1,-3,1,5,11,7,3,4
27.225,-2,1,5,-10,-3,-1,0,0
27.23,-2,-1,-7,-1,-5,-2,-3,-3
27.235,-3,-6,0,0,-8,-6,-2,-3
27.24,-3,-15,-14,0,-6,-7,-5,-3
27.245,1,5,7,4,-2,1,-1,0
27.25,-5,-25,1,1,-3,-1,-2,-2
27.255,3,0,-24,-19,-4,-1,-1,9
27.26,0,5,-11,-11,1,-3,-1,-2
27.265,-4,-4,-9,3,1,1,-2,0
27.27,1,12,13,2,2,1,0,1
27.275,4,6,29,17,6,4,2,3
27.28,-2,-1,-11,-3,-2,-2,-3,-2
27.285,1,7,2,0,-3,-4,0,-1
27.29,-2,3,-1,-2,2,0,-1,-2
27.295,2,1,5,2,1,1,-1,2
27.3,-1,-1,0,-2,-2,-2,-2,-3
27.305,5,1,16,0,0,-1,0,5
27.31,-3,7,-3,-3,-1,1,3,-3
27.315,-2,-7,-6,-3,-4,-5,-5,-2
27.32,2,13,12,0,-2,-2,-3,-2
27.325,-1,-15,-9,-2,-3,-1,-4,-1
27.33,-2,8,3,0,3,0,-2,0
27.335,-2,-6,-5,-1,-2,2,-1,-5
27.34,-2,4,4,0,-1,1,1,3
27.345,-3,-5,0,6,4,-2,-1,-7
27.35,-1,1,-9,-9,-8,-2,-4,-2
27.355,-2,3,11,10,2,-1,0,-5
27.36,-5,-6,-8,-17,-5,-2,-2,-3
27.365,-4,-2,-11,-7,-1,-1,-2,-3
27.37,1,1,2,1,1,-3,-1,-2
27.375,2,0,0,3,0,0,-2,0
27.38,-2,0,26,8,-5,0,-1,0
27.385,0,-7,-8,8,4,0,-1,-2
27.39,0,-1,-20,-14,-5,-2,-3,-1
27.395,-2,1,3,0,2,1,1,-2
27.4,-3,-1,-1,-1,0,-2,-1,-1
27.405,-1,0,10,-1,-4,1,-2,-3
27.41,0,4,-8,0,-1,1,1,2
27.415,-2,-3,-10,-4,0,-1,1,-4
27.42,-1,-2,-9,1,2,0,0,-3
27.425,-4,3,-2,-12,-11,-9,-5,-1
27.43,-2,1,6,11,4,5,3,1
27.435,-2,-2,1,-12,-7,-2,-1,-3
27.44,-1,-2,-4,-1,3,-3,-2,-1
27.445,-1,-1,-6,-6,-5,-1,-2,-4
27.45,-1,-3,4,2,-2,-6,-4,-1
27.455,-1,2,-1,-1,-4,-6,-2,-4
27.46,0,0,2,2,5,10,2,1
27.465,-1,-1,-5,11,3,1,1,-1
27.47,-2,-3,9,2,-2,-3,0,-2
27.475,-1,-7,-14,-13,-7,-3,-4,-1
27.48,2,4,-7,-25,-7,-7,-1,-1
27.485,1,-2,15,22,6,4,-1,1
27.49,-4,-3,12,13,0,0,-2,-1
27.495,-2,1,4,16,3,3,1,-1
27.5,-5,-10,-47,-36,-5,-7,-3,-5
27.505,3,6,11,6,5,7,6,4
27.51,-3,-6,-11,-19,-8,-8,-7,-5
27.515,2,3,15,5,0,-3,-4,-1
27.52,0,8,3,13,4,4,2,-1
27.525,2,-3,9,8,9,4,7,1
27.53,3,6,-11,13,3,1,3,2
27.535,-2,-3,18,-8,-7,-4,-4,-3
27.54,-7,-13,3,2,-8,-9,-7,-5
27.545,-9,-3,14,-9,-13,-11,-9,-9
27.55,8,9,22,9,9,12,6,4
27.555,-9,-19,-45,-31,-6,-1,-2,-4
27.56,0,4,39,13,-6,-2,-2,2
27.565,-7,-10,-33,-28,-7,-8,-7,-6
27.57,16,30,38,23,28,16,10,11
27.575,-6,-11,-48,-60,-19,-7,-4,-3
27.58,-12,-29,19,98,-7,-10,-7,-9
27.585,-12,-32,-112,-105,-23,-9,-7,-7
27.59,-5,3,88,57,-13,-13,-10,-9
27.595,9,2,-11,16,25,10,7,4
27.6,6,21,26,28,9,8,5,4
27.605,1,1,4,8,4,2,2,0
27.61,5,-1,-71,-31,11,9,7,3
27.615,-7,4,74,72,-15,-16,-9,-7
27.62,2,7,25,-29,6,5,2,0
27.625,-9,-8,16,13,-4,-7,-4,-11
27.63,17,8,7,-38,4,4,6,19
27.635,-1,27,28,19,8,5,2,-4
27.64,4,8,2,-15,-2,0,2,2
27.645,4,19,12,21,1,-3,-7,0
27.65,-3,-19,-34,-9,-12,-4,-4,-4
27.655,-13,-9,-24,-47,-8,-11,-9,-9
27.66,8,16,21,-14,7,1,2,5
27.665,20,27,44,31,17,14,12,17
27.67,-24,-37,1,32,-31,-25,-18,-20
27.675,1,-1,-12,-21,2,3,0,2
27.68,-5,-4,-3,22,2,0,-1,-4
27.685,0,-12,-98,-79,-13,-9,-4,2
27.69,-2,7,23,6,6,2,0,-1
27.695,7,-9,28,23,11,11,8,7
27.7,-5,-9,-52,-21,-12,-10,-5,-6
27.705,-8,-18,-10,11,-4,-7,-10,-8
27.71,-6,-12,-41,2,-5,-2,-1,-7
27.715,-2,1,22,-11,-1,-2,-1,-2
27.72,5,-1,-18,-9,6,6,7,5
27.725,6,12,64,75,16,10,7,5
27.73,-16,-15,-73,-107,-24,-11,-8,-13
27.735,9,11,-5,27,1,-3,-3,9
27.74,-5,-16,-20,-32,-8,-6,-6,-2
27.745,-3,10,74,17,-1,-2,0,-3
27.75,-2,-3,7,13,-1,-3,-5,0
27.755,4,4,-17,-3,1,3,5,-2
27.76,3,13,33,-7,4,6,3,3
27.765,-3,-10,10,12,-5,-1,2,-2
27.77,-3,7,-30,-5,1,1,-1,-1
27.775,-6,-4,4,11,-7,-4,-6,-5
27.78,4,1,4,-3,-7,-6,-4,1
27.785,7,22,73,38,22,17,13,1
27.79,-5,-7,-83,-34,-4,-4,-1,-3
27.795,-6,-22,-16,0,-2,-1,-5,-4
27.8,4,11,21,-20,0,0,1,1
27.805,-3,-25,-92,-14,-12,-8,-3,0
27.81,-7,-1,54,8,-3,-3,-2,-8
27.815,-1,1,3,14,6,3,4,-2
27.82,-7,-9,-7,8,-6,-5,-7,-8
27.825,-2,-14,-13,-15,-9,-6,-3,-3
27.83,7,8,52,21,15,8,7,6
27.835,-2,-9,-48,-35,-8,-4,-1,-1
27.84,-1,8,48,40,9,1,0,-2
27.845,-3,2,1,-16,-10,-4,4,-2
27.85,3,-5,-29,-32,-8,-6,-6,-1
27.855,4,18,103,70,10,6,4,1
27.86,-3,-16,-67,-61,-14,-5,-6,-1
27.865,-5,3,9,-17,-3,-4,-5,-5
27.87,5,9,54,73,13,9,3,3
27.875,6,18,-13,-22,5,3,3,2
27.88,-15,-28,-91,-64,-30,-15,-9,-9
27.885,-2,-12,9,-26,2,-3,-6,0
27.89,-12,-24,1,18,-5,-4,0,-6
27.895,4,16,60,62,7,3,-1,-9
27.9,0,-4,-27,-33,-9,-1,-1,-1
27.905,-4,-7,-37,19,-1,0,-1,-2
27.91,3,19,16,-21,-7,1,1,1
27.915,-2,-10,3,15,9,2,3,2
27.92,3,16,21,10,4,0,0,0
27.925,-5,6,49,8,-2,-2,-2,-5
27.93,6,11,6,-4,-1,2,0,4
27.935,-3,-11,-40,-32,-16,-7,-8,0
27.94,3,-6,-17,19,13,8,5,2
27.945,-1,8,32,-4,3,-1,-1,2
27.95,2,6,31,1,5,0,0,0
27.955,-8,-25,-120,-88,-25,-16,-11,-7
27.96,3,-4,6,34,11,6,4,0
27.965,9,6,-30,17,9,8,5,8
27.97,-8,-5,7,-5,0,-4,-4,-9
27.975,0,3,3,-10,-7,-3,0,1
27.98,-6,-10,-11,-16,-10,-9,-8,-4
27.985,-3,2,-9,-43,-12,-11,-7,-5
27.99,-2,-8,-4,16,3,3,0,-3
27.995,5,9,11,-12,4,1,5,6
28,2,5,26,38,3,2,-3,2
28.005,-2,-2,-16,-4,-5,-3,-3,-2
28.01,5,17,51,2,-2,-1,2,2
28.015,-3,-13,-28,6,3,1,-1,2
28.02,-10,-3,-4,-6,-4,-4,-4,-18
28.025,-2,-9,-21,6,1,0,1,-1
28.03,-1,6,1,-3,1,4,1,2
28.035,1,3,3,11,2,6,2,2
28.04,5,15,76,77,8,0,3,5
28.045,-10,-26,-63,-86,-20,-14,-8,-10
28.05,-5,-6,40,30,-5,-6,-2,-5
28.055,-4,-11,-35,-15,-1,-1,-1,-1
28.06,4,3,15,23,8,4,3,4
28.065,17,37,71,51,15,14,7,8
28.07,-10,-27,-118,-98,-22,-16,-9,-5
28.075,-4,-4,17,5,3,-2,-3,-5
28.08,-2,7,12,-14,-3,-1,-1,0
28.085,4,10,15,19,3,2,-1,0
28.09,3,-1,-10,10,4,4,4,4
28.095,-4,-1,9,-9,-5,-3,1,0
28.1,-5,-8,-34,-21,-1,-4,0,-2
28.105,-6,-19,-9,6,-4,3,-1,0
28.11,3,-1,14,14,0,-1,-1,2
28.115,0,11,19,-7,-3,-3,-1,-3
28.12,2,-6,-1,8,4,5,4,4
28.125,0,3,53,45,5,-1,1,-1
28.13,-5,-32,-37,-20,-4,-5,-4,-5
28.135,0,-3,2,29,0,0,-2,-3
28.14,2,1,-31,-18,-6,1,2,16
28.145,5,19,59,25,3,-4,6,9
28.15,19,53,48,14,17,16,2,-11
28.155,-27,-35,21,-36,-23,-17,-13,-9
28.16,-1,13,45,-1,5,-5,-4,0
28.165,-10,13,27,-2,0,1,-10,-44
28.17,15,21,22,57,17,6,4,15
28.175,-2,-11,-16,-22,-2,-3,1,3
28.18,2,-7,-11,-5,-7,-3,-7,-2
28.185,-4,-25,-28,-22,-8,4,7,27
28.19,-7,-20,-27,-15,-12,-4,0,0
28.195,7,22,31,18,8,3,1,1
28.2,-5,1,-9,-11,-6,-4,1,1
28.205,-1,-10,-15,-1,-1,-4,-3,-6
28.21,-4,-1,42,34,2,0,-4,-3
28.215,4,5,-68,-46,-10,-2,1,3
28.22,-5,-18,2,-8,-4,-1,-2,-8
28.225,-8,-4,-20,-41,-15,-15,-12,-9
28.23,-8,-16,-62,-16,-7,-9,-8,-3
28.235,8,25,61,31,11,9,6,6
28.24,4,16,51,31,14,7,5,-4
28.245,-3,-15,-46,-31,-5,3,0,2
28.25,-8,-15,-8,-13,-17,-13,-3,1
28.255,1,7,31,18,9,3,-3,-5
28.26,-9,-26,-34,-11,-10,-6,-4,-8
28.265,3,6,15,19,8,4,3,7
28.27,1,5,4,-10,-1,-1,0,0
28.275,-1,-3,-34,-7,-3,-1,-3,-5
28.28,-3,-4,7,3,-3,-3,-5,-4
28.285,-1,-4,-14,2,2,0,4,3
28.29,-7,-10,-11,2,-6,-4,-4,-7
28.295,-4,-10,-9,-13,-6,-6,-4,-5
28.3,3,7,-6,1,3,1,3,2
28.305,1,11,-7,4,1,1,-2,-2
28.31,2,-7,3,-17,-1,3,2,0
28.315,-5,-13,-30,21,-4,2,0,-1
28.32,-8,-15,-25,-27,-12,-9,-7,-10
28.325,1,-2,-9,3,0,1,2,0
28.33,1,4,13,6,3,1,-1,2
28.335,3,-1,-2,5,3,4,3,2
28.34,-1,4,-7,-10,-5,-1,-1,1
28.345,1,8,36,16,1,-3,-3,-4
28.35,0,-7,15,6,-1,-1,0,2
28.355,0,-1,9,-8,-6,-4,-3,-4
28.36,0,13,8,0,1,4,1,2
28.365,2,3,20,-1,1,-3,-1,2
28.37,2,16,12,3,1,2,3,4
28.375,2,4,4,4,1,-2,-1,2
28.38,-4,2,11,0,-6,-3,-5,-6
28.385,-3,-9,-4,0,-6,-5,-6,-4
28.39,-2,-10,-23,-11,1,4,2,-2
28.395,0,5,9,5,1,1,1,-2
28.4,6,2,-36,-6,4,0,0,2
28.405,-2,5,11,20,-8,-2,-1,0
28.41,-5,-7,-15,-21,-5,-4,6,-4
28.415,-1,6,32,13,3,1,-9,-3
28.42,4,-2,-12,-6,-3,-1,-10,-1
28.425,-1,-6,-8,2,3,-1,-1,-1
28.43,-2,4,8,2,1,-2,0,1
28.435,0,-7,3,2,1,5,4,0
28.44,-3,-3,9,1,-2,-2,3,-2
28.445,-3,-9,-26,-11,-6,-3,-2,-3
28.45,-3,3,2,-6,-4,-1,-3,-2
28.455,-2,-2,-6,-6,-2,-3,-1,-2
28.46,-3,-4,7,8,2,1,0,-2
28.465,0,-1,-14,-12,-3,-3,-2,-1
28.47,2,1,-4,-2,-3,-2,0,3
28.475,-11,0,4,8,-2,0,0,-12
28.48,0,-1,1,-3,0,0,2,1
28.485,4,-8,-10,-4,-3,-3,-2,3
28.49,-17,-5,-7,-1,-2,0,-4,-14
28.495,7,-4,-8,-4,-4,-4,-3,4
28.5,-6,0,2,0,1,0,2,-2
28.505,-3,1,-10,-4,-2,-2,0,-3
28.51,12,-1,2,2,1,-1,-2,10
28.515,-12,1,5,1,0,1,3,-7
28.52,5,-6,-21,-5,-1,-3,-2,6
28.525,-5,0,0,0,-1,0,-4,-8
28.53,-2,-9,-8,-2,-7,-3,-4,-2
28.535,1,-1,-9,-3,-2,-3,-2,2
28.54,1,-2,4,-15,-2,2,2,1
28.545,-8,1,5,6,2,-2,-2,4
28.55,11,-4,-7,-4,-3,-4,-4,-8
28.555,-1,-1,7,4,2,-3,-1,1
28.56,0,-3,4,3,-5,-5,-4,-6
28.565,-2,-2,-7,-2,0,1,3,1
28.57,-8,0,3,-3,-1,1,-1,-1
28.575,4,-3,-3,-4,-2,0,-3,1
28.58,-2,1,4,2,0,-1,1,0
28.585,-1,1,2,-1,1,0,3,0
28.59,-5,0,-2,0,0,-1,-2,-3
28.595,4,-2,-1,-2,-2,2,0,0
28.6,-4,-2,-1,3,-1,-2,1,1
28.605,-1,-3,-4,-2,-1,0,-2,-3
28.61,0,7,13,0,1,1,1,1
28.615,-3,-6,-22,-6,-1,-4,-1,0
28.62,-4,0,9,0,-3,2,-2,-6
28.625,2,-1,-8,-2,-1,-4,-4,-1
28.63,-2,5,2,-5,-5,-4,-4,-3
28.635,3,6,9,4,4,4,4,4
28.64,-3,-3,3,-3,-6,-4,-2,-4
28.645,-1,-10,-6,-3,1,-2,-1,-1
28.65,-5,-2,-12,5,5,4,2,2
28.655,-5,-3,15,-5,-6,-6,-5,-7
28.66,-1,-4,-14,-3,-3,-2,-1,4
28.665,-1,2,2,-4,-3,-1,-2,0
28.67,-1,-2,0,0,-3,-4,-3,1
28.675,-1,-3,-4,0,-1,-3,-3,-2
28.68,0,0,2,1,-2,0,-3,-4
28.685,3,5,0,1,-1,1,0,-1
28.69,0,0,-4,2,4,3,1,0
28.695,-4,-5,-1,-3,-3,-3,-1,-3
28.7,1,0,-2,-2,-4,-1,0,-1
28.705,3,1,-6,2,3,4,3,3
28.71,-3,-2,7,0,-2,0,0,-1
28.715,-1,1,3,-4,-2,-1,0,0
28.72,-2,1,-5,0,2,-1,-2,-1
28.725,-3,-3,1,3,-4,-2,-1,-3
28.73,0,0,2,-2,0,-2,-1,0
28.735,0,1,-13,-8,-2,-1,-1,0
28.74,0,-1,7,3,1,0,1,1
28.745,-2,-1,-1,-1,-3,-2,-4,-6
28.75,-2,1,16,-3,-3,-3,0,-2
28.755,2,2,3,3,0,0,1,1
28.76,1,2,-1,1,-1,0,-1,-1
28.765,-3,-1,-2,-3,-2,0,-1,-2
28.77,1,-4,-8,1,-1,-3,-3,1
28.775,-2,-2,0,-3,-2,-2,-1,-1
28.78,0,-3,2,0,-1,0,-2,-2
28.785,-2,-1,-1,-5,-5,-5,-5,-2
28.79,-1,-3,-4,2,1,2,0,-1
28.795,1,4,-1,6,6,2,3,3
28.8,-4,-3,3,-3,-4,-4,-3,-5
28.805,1,3,9,2,1,1,2,0
28.81,-3,-5,-19,-6,-3,-2,-2,-2
28.815,2,3,8,4,1,-1,-2,-2
28.82,-3,-7,-21,-5,-3,-2,-1,-4
28.825,-1,-3,2,-3,-2,-2,-1,-3
28.83,0,-7,-1,2,0,0,-2,-1
28.835,-1,1,13,0,-4,-1,-2,-3
28.84,1,4,-2,1,1,-1,-1,-1
28.845,-1,-1,-3,-5,-3,0,-1,-1
28.85,0,0,-7,3,-2,-2,2,-2
28.855,-4,-4,-1,-3,-5,-2,-4,-1
28.86,1,-9,10,5,4,1,2,1
28.865,0,1,-11,-13,-4,-2,-2,0
28.87,-2,2,3,-1,2,-2,-2,-2
28.875,0,-3,-3,-2,-5,-2,-3,0
28.88,-2,-4,1,4,3,3,2,2
28.885,-1,-4,-1,4,1,1,2,0
28.89,-2,-2,6,-1,-2,-1,-4,-2
28.895,-3,-3,-15,-7,-3,0,1,-1
28.9,-3,2,-14,-9,-5,-4,-3,-4
28.905,-1,-4,3,3,-1,-3,-2,-1
28.91,0,0,-2,-5,-5,-4,-2,-4
28.915,-1,-3,4,-1,-4,-4,-2,-1
28.92,0,4,2,2,0,3,3,1
28.925,-1,-3,-5,-3,0,-1,0,1
28.93,-1,1,8,2,-1,0,-2,-1
28.935,-3,-4,-22,-10,-3,-4,-4,-2
28.94,-2,1,6,-1,-4,-2,-2,0
28.945,-1,0,-3,3,2,-1,2,0
28.95,-1,2,-1,-2,1,-2,-2,-1
28.955,-1,0,-5,2,-3,0,1,0
28.96,0,0,4,2,4,1,1,0
28.965,-2,5,15,6,-3,-1,-3,-2
28.97,-2,-2,-19,-12,-6,-2,-2,-2
28.975,2,6,6,3,2,-1,-1,0
28.98,0,-1,-2,-5,-5,-3,-2,-4
28.985,0,-3,0,-5,0,0,0,0
28.99,1,0,-7,2,1,0,0,1
28.995,0,-1,6,9,-3,-1,-2,-1
29,-2,-6,-17,-11,-2,-2,-1,-1
29.005,-2,-5,4,0,0,-1,-1,-2
29.01,-4,-3,-1,-7,-5,-3,-2,-1
29.015,-1,-3,4,-1,-2,-2,1,-2
29.02,2,3,7,11,3,-1,-1,-1
29.025,-2,-1,-13,-7,-4,-4,-4,-2
29.03,-1,-2,-1,0,-1,1,1,2
29.035,0,0,8,1,0,4,2,0
29.04,-2,0,0,-2,-1,-3,-2,-1
29.045,-3,-5,-1,-4,-2,-1,-2,-4
29.05,1,0,0,6,-1,-4,-2,-1
29.055,0,-2,-14,-6,-1,0,0,0
29.06,-3,-5,-3,0,-3,-4,-1,-2
29.065,-2,-2,-8,-10,-2,-1,-1,-1
29.07,1,3,10,4,-1,0,-2,-1
29.075,0,0,1,5,1,-2,-4,0
29.08,-1,-2,5,-9,-5,-4,-3,0
29.085,1,5,26,27,15,5,7,4
29.09,-5,-8,-51,-20,-9,-5,-2,-3
29.095,-6,-12,-18,-42,-13,-7,-3,-4
29.1,1,1,-19,-1,1,-1,-3,-2
29.105,-1,1,26,19,-2,-3,-4,-3
29.11,-2,-4,1,-2,-3,-3,-2,-2
29.115,3,7,12,21,11,4,0,2
29.12,-5,-12,-28,-29,-9,-5,-3,-3
29.125,-5,-9,-28,-29,-11,-4,-4,-4
29.13,3,9,34,21,8,2,1,0
29.135,-3,-1,19,19,1,3,7,1
29.14,-2,2,-13,8,2,1,-3,0
29.145,4,8,10,9,7,2,-1,3
29.15,-3,-7,-19,14,-3,-2,-2,-3
29.155,-15,-29,-59,-74,-30,-15,-3,-10
29.16,5,7,36,30,17,7,1,4
29.165,4,5,41,72,6,4,6,0
29.17,4,6,-53,-95,-13,-3,-2,4
29.175,-3,7,71,115,24,5,-3,-8
29.18,-9,-24,18,-36,-22,-19,-18,-13
29.185,-1,-15,-112,-111,-8,4,8,8
29.19,7,17,65,89,6,-2,-5,3
29.195,9,11,-11,16,18,9,7,7
29.2,32,53,89,94,34,18,12,27
29.205,-29,-32,-19,-11,-39,-17,-1,-29
29.21,4,13,40,56,27,12,10,3
29.215,-7,-17,-73,-128,-48,-23,-12,-5
29.22,-9,-3,58,125,14,1,1,-7
29.225,35,63,91,102,65,33,15,23
29.23,-23,-43,-61,-114,-81,-36,-24,-18
29.235,-14,-18,-6,99,-7,-15,-13,-12
29.24,-4,-20,3,4,-11,2,4,-2
29.245,1,1,9,29,19,2,-4,0
29.25,12,19,80,38,12,15,9,11
29.255,-17,-4,55,7,-14,-16,-15,-19
29.26,6,4,-128,-128,-9,7,11,7
29.265,-23,-47,-26,59,-30,-29,-22,-10
29.27,9,14,-29,-22,16,10,7,7
29.275,3,7,58,6,3,11,11,4
29.28,-10,16,-44,-29,-2,-5,-4,-11
29.285,29,32,103,44,35,19,4,23
29.29,-29,-59,-75,-83,-33,-30,-18,-16
29.295,14,42,12,-20,23,16,9,7
29.3,-6,-5,43,51,0,-4,-7,-13
29.305,5,44,49,-37,5,4,1,3
29.31,-11,-17,52,66,-12,4,-2,-8
29.315,19,22,38,15,32,14,8,16
29.32,-11,-36,4,1,-20,-10,-5,-4
29.325,15,10,-74,-96,4,10,9,7
29.33,-11,-30,-40,94,15,-5,-4,-10
29.335,-15,-29,-69,-87,-45,-13,-9,-11
29.34,9,3,-60,-59,9,9,6,8
29.345,1,5,93,87,11,-1,2,0
29.35,12,7,-68,-74,18,12,8,5
29.355,-1,7,67,57,10,-7,-13,0
29.36,14,15,64,43,12,17,14,11
29.365,-35,-59,-82,-113,-83,-51,-34,-27
29.37,16,56,76,-11,34,24,16,2
29.375,-4,-45,-30,64,4,-2,-4,6
29.38,4,11,12,-77,1,12,7,1
29.385,-11,13,20,-24,-16,-10,-7,-13
29.39,10,7,4,5,1,4,3,8
29.395,2,-3,-27,-70,-8,-7,-2,-3
29.4,-10,-2,37,19,-2,-7,-7,-5
29.405,6,-8,46,108,38,22,13,7
29.41,-6,-5,-16,-45,-26,-20,-7,-3
29.415,22,40,3,16,27,27,19,15
29.42,-28,-37,-45,33,-23,-29,-21,-23
29.425,11,32,61,-3,13,5,5,3
29.43,-9,-14,32,59,0,3,-3,-1
29.435,5,2,-18,3,9,4,5,4
29.44,-8,-34,-49,-85,-44,-20,-10,-7
29.445,-10,-29,-79,-16,-22,-12,-8,-8
29.45,-4,12,66,33,14,0,5,-4
29.455,1,-13,31,14,1,4,3,6
29.46,-12,1,3,-9,-12,-10,-9,-14
29.465,9,-3,-22,-7,3,8,4,6
29.47,-20,-31,-77,-57,-33,-19,-14,-14
29.475,-19,-26,56,90,3,-14,-13,-14
29.48,9,12,28,12,18,12,7,12
29.485,-18,-8,-21,-42,-10,-4,-5,-17
29.49,15,34,45,7,9,10,1,9
29.495,2,9,-35,-51,-10,-2,1,0
29.5,3,13,80,28,9,-2,-1,3
29.505,-9,-34,-65,-45,-27,-7,-5,-1
29.51,7,13,35,55,21,5,-2,3
29.515,-4,-12,-19,-7,3,2,-2,-4
29.52,-3,3,52,52,7,-2,1,0
29.525,0,-5,-62,-46,-9,-4,-2,-1
29.53,4,6,30,1,6,3,0,4
29.535,0,11,13,-19,-3,2,4,-2
29.54,1,7,-30,13,-2,-1,0,0
29.545,2,-5,7,12,9,3,-1,3
29.55,4,1,85,86,7,3,4,1
29.555,-9,-18,-18,-77,-29,-19,-14,-4
29.56,2,7,83,76,13,8,3,-4
29.565,-2,-9,-53,-40,-27,-11,-5,0
29.57,-5,-8,26,36,0,-4,0,-2
29.575,11,13,-29,10,13,12,6,6
29.58,8,7,47,5,6,4,2,7
29.585,-8,-5,-42,-27,-10,-10,-11,-10
29.59,5,-7,-24,-14,9,8,5,5
29.595,-10,1,32,53,-3,-4,2,-12
29.6,-7,-23,-110,-70,-13,-5,-6,-3
29.605,5,10,49,36,14,8,12,3
29.61,-6,-5,-46,-30,-16,-13,-9,-9
29.615,11,18,19,8,15,14,8,8
29.62,7,-3,-45,-15,5,5,5,7
29.625,-9,-8,45,13,-9,-5,-3,-5
29.63,1,2,-23,19,11,1,-2,-2
29.635,-2,-6,-42,16,-5,-1,-1,-1
29.64,-5,-8,-38,-21,-11,-9,-4,-3
29.645,8,23,32,34,16,10,4,5
29.65,-8,-12,-15,-16,-13,-3,-2,-2
29.655,0,-6,20,13,3,-3,-2,-1
29.66,-1,-6,63,78,9,4,2,0
29.665,-7,-9,-16,-26,1,-1,-1,-2
29.67,-3,-6,-42,-36,-8,0,0,-4
29.675,1,-3,-28,-5,-4,-8,-7,2
29.68,3,22,29,15,4,3,0,-1
29.685,9,13,20,23,13,7,6,7
29.69,9,28,95,53,12,7,1,6
29.695,-17,-4,-22,-56,-30,-21,-17,-19
29.7,-4,-13,-5,-41,-9,-7,-5,-4
29.705,2,7,20,44,9,2,1,2
29.71,-2,-15,-87,-91,-15,-4,-2,-4
29.715,5,13,18,9,3,2,-1,4
29.72,4,15,24,26,4,0,1,3
29.725,-13,-22,-49,-74,-24,-13,-13,-12
29.73,0,1,26,22,2,-3,0,0
29.735,-1,-3,12,16,5,5,3,-1
29.74,-4,-19,-67,-41,-6,0,-2,-3
29.745,13,22,76,63,20,8,4,9
29.75,-7,-39,-98,-82,-17,-6,-2,-5
29.755,-6,-2,6,-9,-7,-3,-3,-6
29.76,11,24,40,24,16,9,8,8
29.765,-8,-8,12,12,-11,-4,-4,-7
29.77,-2,-1,0,-7,-4,-8,-10,-3
29.775,0,-2,3,15,7,2,5,0
29.78,-2,-5,-5,-4,-5,-2,-3,-1
29.785,-1,-3,-15,-5,-1,-1,-2,-2
29.79,-1,7,10,-2,-5,-1,-1,-1
29.795,1,-7,18,35,4,3,1,5
29.8,-1,2,-16,-36,-3,-1,-2,-1
29.805,-8,-15,-34,-8,-9,-9,-7,-2
29.81,-4,7,30,23,11,2,-2,-9
29.815,2,0,4,-4,-3,0,1,0
29.82,-1,-8,-45,-10,-9,-7,-1,4
29.825,-4,-6,-11,14,1,2,2,-13
29.83,2,2,25,16,6,-1,-1,2
29.835,1,1,5,-4,1,3,3,2
29.84,-4,-5,-13,-12,-6,-4,-6,-4
29.845,4,7,11,0,3,3,5,9
29.85,-6,1,2,12,-6,-4,-3,-3
29.855,-2,-6,-11,-24,-8,3,-2,-2
29.86,5,-1,10,5,-2,-2,-4,3
29.865,0,0,6,-4,-3,-1,-1,-2
29.87,-4,-1,8,2,1,1,1,-7
29.875,-15,1,-3,1,1,-3,-2,3
29.88,-10,0,-1,-1,-7,-5,-4,-11
29.885,7,3,-4,-8,5,3,5,10
29.89,10,-7,-9,-9,-13,-8,-10,5
29.895,4,-1,1,3,4,0,2,-2
29.9,-22,0,0,8,0,3,4,-8
29.905,10,-3,0,-6,-3,-6,-5,-11
29.91,21,11,5,5,8,5,8,14
29.915,-14,-4,0,-2,-4,-2,-1,-2
29.92,15,-2,5,2,-6,-6,-6,16
29.925,16,-1,-21,-15,-6,-6,-4,8
29.93,-18,-2,1,-4,-6,-2,-3,-29
29.935,21,1,-2,0,1,3,6,17
29.94,-26,-1,-3,-1,-1,-2,0,-18
29.945,-2,3,28,28,3,1,-1,3
29.95,-19,-3,-34,-23,-4,-5,-3,-11
29.955,2,-1,-5,-23,-5,-3,1,-1
29.96,11,-2,4,-1,0,-4,-4,11
29.965,-16,-4,2,6,-1,2,-1,-12
29.97,0,1,9,10,1,0,1,-1
29.975,-9,0,-2,6,2,1,-1,-15
29.98,18,-5,-11,-9,-6,-4,-6,0
29.985,-9,2,1,-8,-3,0,-1,4
29.99,2,1,6,5,3,2,2,8
29.995,1,-2,-3,-4,-8,-5,-5,-9
30,-6,0,2,1,3,0,2,-2
30.005,-1,-4,-7,-3,-1,-3,-3,-5
30.01,3,-3,0,-2,-2,-3,0,7
30.015,10,0,3,4,0,2,2,15
30.02,-13,0,1,6,3,4,0,-19
30.025,-1,-1,-6,-6,-3,-1,0,6
30.03,-6,-3,-3,-8,-5,-4,-4,-8
30.035,-3,-2,5,-1,-3,-2,-2,-2
30.04,-3,-1,0,-2,-1,2,2,-8
30.045,3,-2,8,4,1,-3,-5,1
30.05,2,4,2,2,0,5,5,9
30.055,-4,-6,-12,-22,-6,-8,-7,-6
30.06,3,-1,0,-6,-1,-1,-4,3
30.065,-9,-2,1,4,1,1,1,-5
30.07,0,0,7,6,-4,-4,-3,0
30.075,2,1,-2,10,1,2,1,6
30.08,-1,-3,-6,-7,-2,-1,0,-7
30.085,5,0,-2,-7,-2,0,-1,-1
30.09,-4,-2,-2,3,0,-1,-2,3
30.095,-5,3,8,11,5,2,3,-3
30.1,7,-10,-19,-10,-13,-10,-8,-4
30.105,3,2,-2,0,6,-1,-2,-2
30.11,3,-2,7,5,-1,-3,-2,5
30.115,6,-2,6,4,2,5,-1,1
30.12,0,2,-6,-4,1,3,3,3
30.125,-5,-2,-4,-5,-5,-3,-1,-6
30.13,-1,0,3,3,3,2,1,-2
30.135,-3,2,6,10,-4,-4,-3,-3
30.14,-3,0,-12,-12,-2,-1,1,2
30.145,-3,-3,-6,-10,-1,1,-1,0
30.15,1,-3,-2,-2,1,-1,1,3
30.155,-8,-3,2,4,-5,-5,-3,-14
30.16,-1,2,11,13,2,-1,-1,-1
30.165,-4,-1,-5,-10,-7,-3,-2,-2
30.17,-1,1,-5,0,3,4,5,2
30.175,12,-3,-6,-8,-4,-3,-3,10
30.18,-2,-1,3,3,-3,0,-1,-1
30.185,3,-1,0,-1,-3,-5,-2,-4
30.19,-2,0,-1,-3,-5,-2,-1,-3
30.195,-3,-2,-7,-5,2,3,1,0
30.2,-4,1,4,3,4,-2,-2,2
30.205,5,0,-3,-1,-1,-1,1,2
30.21,-1,0,-2,-2,-1,4,0,0
30.215,-5,-2,-4,-4,0,-5,-3,-7
30.22,2,-2,2,4,-1,-4,-1,4
30.225,-7,-3,-4,1,0,1,-2,-7
30.23,0,-3,0,0,-1,-2,0,-2
30.235,-3,-2,-4,-3,0,-2,-2,-6
30.24,0,-1,10,2,2,1,2,1
30.245,-5,-2,-13,-2,-4,-4,-3,-1
30.25,-4,-1,1,-10,-1,0,-2,0
30.255,1,-2,-2,-1,2,2,0,-3
30.26,-4,-1,-1,2,1,-2,-1,-2
30.265,-2,1,7,5,1,3,2,-1
30.27,-9,-4,-3,3,-2,-5,-6,-17
30.275,-2,0,1,-1,-3,-1,-3,1
30.28,-1,-2,-2,-6,-1,0,2,0
30.285,-7,-2,2,-3,-1,-2,0,-5
30.29,3,1,-3,1,-1,-3,-1,2
30.295,-9,1,-2,-2,0,-1,0,11
30.3,-11,-2,-2,0,-3,-1,-1,-12
30.305,3,-1,-1,2,0,1,-1,3
30.31,1,0,-3,-1,-3,-1,-2,0
30.315,-4,-1,-4,-5,-2,-1,1,-2
30.32,4,0,2,1,1,0,-3,2
30.325,0,1,5,-2,-5,-5,-4,0
30.33,-1,-3,-17,-2,2,1,4,2
30.335,2,-1,6,0,-3,-3,-4,-6
30.34,0,-2,-18,-4,-1,-1,-2,-1
30.345,-4,-4,-16,-4,-4,1,-2,0
30.35,2,1,5,1,0,0,-2,0
30.355,0,0,-1,-1,-1,-3,0,-1
30.36,-1,-1,2,1,0,-1,-1,-1
30.365,0,-1,6,1,0,-1,-3,5
30.37,-12,-3,-9,-12,-7,-1,-4,-20
30.375,0,0,1,-3,-3,-1,-1,-4
30.38,-1,1,4,4,-2,-1,-1,-1
30.385,2,-5,-19,-4,-3,-5,-3,4
30.39,4,1,16,3,-1,-2,-3,6
30.395,2,-1,-5,-7,-1,-1,0,-3
30.4,-4,0,2,0,0,3,1,-4
30.405,-2,1,6,1,1,1,1,3
30.41,-12,0,1,-3,-2,-3,-4,-9
30.415,3,-1,-3,1,-2,-4,-2,4
30.42,-2,-2,-3,-3,-2,0,-2,1
30.425,-6,0,1,-1,-1,1,2,-2
30.43,6,-1,0,2,1,-2,-2,4
30.435,1,-2,-3,-1,-4,0,0,0
30.44,-1,-1,-1,-3,-1,-1,-1,-1
30.445,4,-1,5,-1,2,0,0,-2
30.45,0,-1,-3,-2,-2,-2,-2,-1
30.455,-3,-2,-2,2,0,-1,-3,-2
30.46,2,-2,0,-2,-3,-1,-4,-1
30.465,-5,0,-1,-1,-3,-1,0,-3
30.47,9,0,-1,0,1,-3,1,10
30.475,-13,-2,-3,-2,-2,-1,-2,-16
30.48,-1,-2,1,-1,-1,-3,3,1
30.485,-1,1,0,1,1,4,0,-3
30.49,0,0,-2,-2,-7,-4,-3,-1
30.495,3,0,0,2,0,-2,-1,0
30.5,-1,-1,-3,-4,0,0,0,0
30.505,-3,-1,1,1,1,-2,2,-4
30.51,-1,-1,-2,0,1,0,2,1
30.515,-1,-2,-2,1,-3,0,-1,-1
30.52,0,0,1,2,-3,-3,-1,-1
30.525,0,-2,-7,-9,-2,-2,-1,1
30.53,1,-2,5,0,-3,-3,-4,-2
30.535,0,-1,-6,0,-2,-3,-1,-1
30.54,-2,-4,4,-3,0,2,1,0
30.545,4,-1,-8,-5,-1,-1,-3,3
30.55,-1,-1,-2,1,1,-1,1,-3
30.555,0,-1,6,5,-2,-2,-1,-1
30.56,2,4,4,0,-2,-2,-2,1
30.565,-3,0,5,4,2,1,-1,-4
30.57,1,2,9,4,2,0,-2,2
30.575,-4,-1,-13,-8,-4,-1,0,0
30.58,-3,-8,-9,-17,-2,-5,-3,-2
30.585,-2,-1,-3,5,0,-1,-1,-1
30.59,-5,2,1,-3,-4,2,-1,-9
30.595,1,4,13,8,4,1,1,1
30.6,0,-5,-4,6,-2,-3,-2,-1
30.605,-13,-2,-15,-5,-3,1,-1,-14
30.61,1,-2,-8,-6,2,2,1,3
30.615,0,-4,-4,-15,-5,-3,-4,-2
30.62,-2,1,13,-3,-5,-1,-1,-3
30.625,4,1,5,10,1,-4,-1,4
30.63,0,-2,-2,8,1,0,0,3
30.635,-1,0,-1,-1,3,5,1,0
30.64,1,2,-12,-10,-8,-3,-2,0
30.645,-1,-6,-3,-5,-5,-1,0,-1
30.65,-4,-7,2,-13,-6,-6,-4,-2
30.655,1,0,-2,6,0,-2,0,1
30.66,0,5,11,17,15,8,2,2
30.665,-1,-1,3,10,-4,-3,-3,-2
30.67,-2,2,15,-5,-3,1,0,-1
30.675,-3,-5,-3,6,1,-3,-3,0
30.68,-2,-4,-18,-23,-6,-1,-2,-1
30.685,2,2,11,11,-2,-3,-2,-1
30.69,1,-2,-23,-13,0,0,-1,1
30.695,2,7,10,27,5,1,2,0
30.7,-3,-3,4,5,2,1,0,-1
30.705,1,2,2,-14,1,-1,0,1
30.71,-1,0,19,15,-4,3,3,-1
30.715,-1,-9,-42,-27,-5,-5,-6,1
30.72,2,6,25,32,6,0,0,0
30.725,0,-2,-10,-28,-4,-1,-1,-1
30.73,-2,-8,-27,-17,-3,-3,-4,-3
30.735,-4,-7,-18,-14,-2,-4,-4,-5
30.74,3,8,21,6,-2,0,1,1
30.745,-3,-8,18,-5,0,-2,-3,-2
30.75,11,25,76,53,21,12,9,9
30.755,-17,-34,-35,-72,-24,-16,-9,-12
30.76,-7,-16,-48,-9,-4,-5,-6,-6
30.765,4,16,93,56,0,-1,1,3
30.77,3,7,-74,-67,7,-1,-1,1
30.775,-10,-26,10,-25,-20,-9,0,-8
30.78,7,20,51,28,19,5,2,4
30.785,-5,-20,-100,-79,-12,-1,-1,-3
30.79,4,7,64,26,-1,-3,0,2
30.795,2,6,-29,56,7,5,-1,1
30.8,-3,-7,4,-5,-8,-5,-5,-4
30.805,4,7,-22,28,11,5,4,2
30.81,0,-3,1,-23,-7,-2,-1,0
30.815,6,19,-33,-68,2,6,5,4
30.82,-20,-32,-14,23,-26,-19,-13,-11
30.825,2,10,6,25,15,6,2,-2
30.83,2,2,-4,-12,0,8,8,4
30.835,7,4,50,46,4,4,0,6
30.84,7,14,-10,27,15,10,4,3
30.845,-1,-5,-34,-47,-19,-2,-4,0
30.85,-7,-3,-3,13,4,-8,-10,-7
30.855,-7,-14,-17,60,-6,-4,-2,-7
30.86,18,39,72,-23,12,11,11,14
30.865,15,37,127,127,45,17,7,10
30.87,-45,-87,-68,-81,-75,-54,-35,-33
30.875,20,41,97,37,37,20,11,13
30.88,-7,-25,-15,-20,-9,-5,-5,-6
30.885,15,48,115,-24,19,10,9,9
30.89,-1,-9,-42,0,-7,4,-1,-1
30.895,-5,-19,86,106,12,-5,-7,-3
30.9,-2,0,-51,-39,-11,-8,-5,-5
30.905,-5,-15,29,11,-10,-8,-4,-2
30.91,30,61,69,34,29,25,17,16
30.915,-9,-16,-30,-42,-13,-4,-6,-1
30.92,-14,-39,-64,-45,-29,-14,-8,-10
30.925,-39,-66,-56,-73,-42,-36,-25,-31
30.93,10,33,79,67,27,16,11,10
30.935,28,39,10,-73,36,26,20,13
30.94,-17,-14,-18,-25,-21,-13,-13,-12
30.945,10,13,-23,-3,10,4,4,8
30.95,-33,-70,-74,14,-27,-21,-23,-23
30.955,14,31,21,-44,23,13,13,12
30.96,-10,-21,-23,37,7,0,3,-4
30.965,14,33,-85,-67,3,7,6,8
30.97,2,-9,12,71,19,9,1,3
30.975,-6,12,69,43,-4,-9,-7,-8
30.98,-20,-42,-71,-84,-52,-34,-22,-14
30.985,34,72,41,-46,41,44,32,27
30.99,-16,-16,101,104,2,-15,-12,-11
30.995,-21,-68,-108,-6,-12,-16,-15,-11
31,28,54,127,90,34,26,17,19
31.005,-19,-29,-58,-21,-28,-23,-21,-23
31.01,10,31,1,-79,-6,2,8,6
31.015,-27,-45,24,17,-43,-24,-12,-15
31.02,3,8,34,4,26,7,0,0
31.025,18,14,51,121,32,21,13,15
31.03,-23,-39,-81,-116,-59,-32,-17,-19
31.035,14,41,39,19,20,12,3,8
31.04,20,26,30,45,31,19,17,19
31.045,-28,-38,-27,27,-23,-14,-9,-26
31.05,15,26,-64,-28,23,20,13,11
31.055,-9,-19,-4,-28,-25,-10,-12,-6
31.06,8,35,85,67,14,7,5,4
31.065,-28,-58,-25,-50,-25,-32,-22,-15
31.07,2,-21,-66,-80,-9,9,10,5
31.075,15,35,-3,-8,13,10,12,2
31.08,-9,-12,-24,-12,-18,-14,-6,-8
31.085,-10,4,43,56,13,-9,-8,-11
31.09,-4,-28,-9,19,-3,-1,-5,-3
31.095,10,30,18,8,12,14,9,10
31.1,-59,-123,-128,-128,-75,-49,-36,-38
31.105,13,15,-42,-47,6,13,6,10
31.11,1,19,14,40,13,-6,-1,-2
31.115,27,63,76,63,17,36,22,17
31.12,-9,-18,81,-10,-12,-14,-12,-8
31.125,-11,-32,-14,-32,-19,-9,-5,-2
31.13,9,14,75,44,18,7,5,6
31.135,4,10,51,105,24,2,-1,2
31.14,5,15,21,13,9,4,3,2
31.145,0,4,1,-17,-11,-1,-2,2
31.15,-3,-4,28,53,-3,-12,-9,2
31.155,-17,-11,-22,8,-10,-6,-4,-19
31.16,20,44,100,60,31,18,11,13
31.165,-18,-39,-10,64,-21,-13,-10,-12
31.17,18,31,86,24,14,8,11,15
31.175,-15,-37,-10,-6,-27,-23,-18,-9
31.18,12,38,43,48,14,16,9,7
31.185,13,20,39,19,15,4,5,12
31.19,-5,5,-50,-8,9,7,1,-9
31.195,-17,-27,-19,-44,-26,-18,-13,-16
31.2,6,9,-26,-30,2,5,3,1
31.205,-1,-12,11,6,-11,-3,-4,1
31.21,14,23,-9,-15,26,19,13,15
31.215,-17,-36,-111,-128,-44,-27,-14,-14
31.22,10,22,62,79,22,10,6,7
31.225,-3,-4,16,-13,-11,-8,-5,-5
31.23,-4,-2,14,4,-10,-9,-7,-3
31.235,7,14,-13,4,22,10,6,5
31.24,-7,-13,-52,-4,-5,3,10,-4
31.245,-5,-7,0,19,-1,-4,-4,-6
31.25,2,15,1,-14,0,0,0,-1
31.255,2,-6,-28,-33,-6,0,1,5
31.26,-8,-29,-68,-54,-25,-12,-10,-6
31.265,0,-3,-13,-17,-7,-6,-4,0
31.27,1,4,16,18,3,4,5,1
31.275,-3,-4,24,3,-2,-4,-2,0
31.28,-1,2,-17,-12,1,2,-4,-4
31.285,13,5,23,12,10,6,7,11
31.29,-23,-20,-71,-85,-31,-16,-12,-24
31.295,-5,-23,-48,-33,-14,-13,-10,-1
31.3,3,8,37,22,14,10,5,5
31.305,-2,0,25,13,-1,-6,-2,-2
31.31,-4,-16,-24,-16,-19,0,-2,-2
31.315,-2,8,36,47,11,1,1,-1
31.32,2,10,-13,-18,0,1,1,0
31.325,-5,-11,-27,-24,-11,-5,-6,-3
31.33,2,3,60,30,2,-4,-4,-5
31.335,5,11,49,20,1,3,3,2
31.34,-8,-16,-33,-31,-14,-12,-8,-1
31.345,1,3,-2,6,5,6,5,-1
31.35,0,-1,27,32,6,-2,-2,3
31.355,6,14,46,19,6,5,4,2
31.36,-8,-14,16,52,-10,-13,-8,-9
31.365,-6,-6,-15,-36,-9,-3,-1,-5
31.37,1,-13,-78,-62,-9,0,-1,4
31.375,-15,-19,17,39,-4,-10,-5,-11
31.38,12,15,29,-7,3,0,1,7
31.385,1,5,-66,-90,-12,-2,-2,-1
31.39,2,-12,32,76,8,-4,-9,5
31.395,-5,-3,-15,4,-4,-5,0,-2
31.4,7,8,-17,-17,3,9,6,7
31.405,2,6,29,34,4,2,0,0
31.41,0,0,-5,-13,-7,-6,-6,-2
31.415,4,3,-1,-4,4,4,3,7
31.42,-5,-11,2,13,4,5,2,-5
31.425,-2,-2,-17,-4,-7,-6,-4,-2
31.43,-4,1,25,6,5,1,3,-1
31.435,-7,-4,-7,-5,-3,-3,-6,-9
31.44,1,0,-15,-9,-3,-3,-2,2
31.445,-4,-5,-6,12,2,1,2,-3
31.45,1,-2,12,6,-4,-2,0,2
31.455,-1,-1,-16,-16,-5,-3,-1,-2
31.46,-2,-2,-17,-8,-2,-3,-3,0
31.465,4,0,21,22,6,2,3,6
31.47,6,9,43,17,0,4,1,-5
31.475,0,4,-35,-10,2,3,4,5
31.48,-10,-4,48,6,-6,-2,-2,-13
31.485,-10,-11,7,9,0,-4,-5,-6
31.49,2,1,7,-5,5,1,2,0
31.495,4,-3,-2,-4,-3,-3,-4,1
31.5,4,5,-4,5,1,-1,0,2
31.505,-1,1,8,9,-4,0,-5,-4
31.51,-6,2,-1,0,-5,-1,0,-6
31.515,1,-1,14,13,1,2,-1,0
31.52,-2,-1,-19,-4,1,-5,-1,0
31.525,-2,-1,2,-6,-3,-2,-2,-3
31.53,-4,0,-9,-2,1,-1,-1,-2
31.535,7,-3,-1,-6,-2,0,-4,20
31.54,5,-6,-18,-13,-6,-3,-5,-13
31.545,-10,-2,-2,-1,0,-1,2,-5
31.55,4,-3,0,-3,-7,-7,-7,-8
31.555,2,1,1,-1,-2,1,1,4
31.56,-3,1,-5,-1,0,1,-1,0
31.565,6,2,10,12,3,2,3,3
31.57,-16,-2,-4,2,2,-1,-1,-1
31.575,-13,-4,-3,-7,-7,-5,-6,-19
31.58,1,0,-8,-3,1,-1,0,3
31.585,0,-2,4,-1,-3,-2,-3,-1
31.59,-6,0,-3,-2,-1,-2,0,5
31.595,19,0,5,6,3,2,-2,-2
31.6,-7,-2,-30,-22,-2,0,2,-2
31.605,2,1,6,4,-3,-2,-2,4
31.61,0,-1,-2,-4,-12,-10,1,-1
31.615,-7,0,2,3,11,11,2,-3
31.62,4,5,5,8,0,-2,0,2
31.625,0,-8,2,16,4,8,0,-2
31.63,1,-2,-12,-21,2,-5,-1,2
31.635,-4,-7,-9,-21,-10,-10,-4,-2
31.64,-10,-3,-1,-13,-3,-2,-3,-11
31.645,-2,2,-2,2,-3,-10,-3,-3
31.65,1,-2,9,12,-1,5,1,0
31.655,4,-1,-1,5,10,11,8,7
31.66,6,1,5,6,3,2,-1,9
31.665,-10,1,1,-6,-7,-7,-3,-12
31.67,2,-1,-3,-2,-5,-4,-5,-1
31.675,-5,-2,-7,-12,-11,-8,-5,-5
31.68,0,1,1,7,7,2,5,5
31.685,0,0,2,5,4,3,1,2
31.69,8,3,4,-2,0,4,1,5
31.695,-3,-2,-8,-5,-4,-7,-6,-6
31.7,-20,-6,-9,3,-2,-3,-2,-9
31.705,7,-3,-4,-6,-2,1,-1,2
31.71,5,1,9,10,5,2,0,5
31.715,-12,-4,-15,-25,-9,-9,-5,-13
31.72,3,-2,-1,-13,-8,-3,0,-2
31.725,-2,1,-3,-5,2,-2,0,1
31.73,-2,0,5,8,4,7,4,1
31.735,1,3,15,24,-4,1,2,-2
31.74,4,-1,9,7,4,6,0,3
31.745,-3,0,2,-4,-1,-6,-2,-2
31.75,-4,-3,-6,-4,-6,-2,-5,-6
31.755,-5,-4,-10,-9,-4,-5,-3,-2
31.76,1,-1,-2,-2,-1,-1,0,0
31.765,1,0,0,-2,-6,2,-2,3
31.77,-3,-2,-5,-5,-1,-7,-3,-4
31.775,1,3,3,4,9,5,5,5
31.78,-7,-1,0,1,-2,-1,-2,-5
31.785,0,0,-3,-4,-2,-3,-1,1
31.79,-1,-5,-4,-3,-5,-3,-2,-4
31.795,-3,-4,-2,-2,0,-6,-4,-3
31.8,2,-1,2,3,-4,0,-1,1
31.805,-1,0,5,10,5,-4,1,-2
31.81,-6,3,3,7,-1,5,1,-6
31.815,4,-6,-10,-23,-10,-3,-3,6
31.82,0,0,3,0,10,0,0,1
31.825,1,0,-6,-2,4,5,2,2
31.83,-6,1,9,11,2,-1,-2,-3
31.835,-3,6,11,18,1,-3,-1,-6
31.84,5,-1,-4,-5,-8,-6,-6,1
31.845,-6,2,18,11,-9,-3,-3,-4
31.85,11,-1,-31,3,6,5,5,9
31.855,-8,-17,-25,-55,-13,-8,-7,-9
31.86,-2,-2,-3,-1,1,-4,-1,-3
31.865,0,1,-2,-3,1,1,-2,1
31.87,-4,1,14,8,-5,-6,-3,-1
31.875,7,3,4,16,1,-6,1,5
31.88,4,2,-2,3,-1,18,7,6
31.885,-1,-5,-8,-5,-1,-4,0,-2
31.89,-2,-4,-19,-17,-5,-3,-4,-1
31.895,-9,-1,-2,-6,-5,-12,-6,-9
31.9,-2,-2,-5,-9,-3,0,-3,0
31.905,2,4,0,8,7,11,5,1
31.91,-1,-2,0,-4,-3,-4,1,3
31.915,-1,3,15,13,1,5,1,3
31.92,-1,1,-11,4,-3,-5,-3,-2
31.925,-5,-4,-6,-17,-11,-5,-7,-6
31.93,0,-3,3,-6,0,-1,-1,-3
31.935,2,4,8,15,6,10,7,4
31.94,0,1,9,3,3,-1,1,-2
31.945,7,4,18,24,8,0,4,11
31.95,-5,-6,-29,-23,-9,-6,-10,-8
31.955,1,0,-6,-18,-9,0,-1,1
31.96,-7,-16,-51,-28,-8,-11,-8,-4
31.965,0,-2,-11,-10,3,0,1,1
31.97,0,4,22,20,7,5,4,0
31.975,-2,7,20,23,6,2,1,-3
31.98,2,2,4,2,-2,-3,0,-1
31.985,0,-4,-5,-7,-12,-5,-7,-2
31.99,-1,1,5,2,-2,1,1,-1
31.995,-3,-3,-16,-2,2,0,-1,-1
32,1,0,7,1,-2,-4,-1,-5
32.005,-1,-3,-3,-4,-2,-1,-3,-1
32.01,-1,-2,1,-7,-3,0,-4,-1
32.015,0,-1,3,4,-2,-4,-1,0
32.02,1,0,2,-2,-2,-4,-3,-1
32.025,-4,-4,-9,-2,0,3,3,-2
32.03,-2,-4,0,-1,-1,-2,-1,0
32.035,0,-3,-26,-22,1,6,1,-1
32.04,-2,2,18,11,-1,-3,-2,0
32.045,-1,0,12,8,-4,-3,-4,-5
32.05,-4,-1,-31,-34,-4,-5,0,-1
32.055,4,0,29,35,5,3,1,0
32.06,-9,-9,-14,-20,-7,-3,-2,-4
32.065,-4,-7,-24,-10,-7,-3,-5,-2
32.07,7,2,10,7,1,4,1,9
32.075,-4,3,12,6,-2,-3,-3,-5
32.08,5,7,5,9,4,1,-1,2
32.085,-1,-3,-4,2,-4,-3,-2,-4
32.09,-1,-5,12,-6,0,0,3,1
32.095,-3,-5,-12,-18,-1,-2,-3,-1
32.1,-3,0,14,12,1,-2,-1,-2
32.105,-5,1,-4,-1,0,-2,0,-8
32.11,4,1,11,17,-2,-4,-6,3
32.115,-4,-6,-1,-4,-7,-2,-2,0
32.12,1,2,-7,3,0,-1,-2,0
32.125,-2,-3,-14,-15,-2,-1,-2,-1
32.13,-4,-4,10,1,-1,1,-1,-7
32.135,-2,-2,-14,-2,1,2,1,0
32.14,3,4,5,-3,1,1,0,4
32.145,1,1,2,-2,-1,0,-2,-1
32.15,-3,-5,-14,-5,-6,-4,-2,-5
32.155,2,1,11,6,-3,-4,-2,2
32.16,-2,0,4,1,-1,0,0,-4
32.165,2,4,-2,6,8,2,4,6
32.17,-7,-6,12,-16,-6,-3,-3,-7
32.175,0,-1,7,12,3,0,0,0
32.18,1,-5,-17,-16,-7,-4,-1,4
32.185,-14,1,14,14,0,-2,-3,-17
32.19,0,0,-2,-5,-2,0,-2,2
32.195,-6,-1,-3,-4,-5,-3,-4,-9
32.2,-2,1,15,9,2,2,1,-3
32.205,7,1,0,-2,1,1,0,11
32.21,-3,4,-2,10,2,-2,1,-5
32.215,5,0,12,6,-1,-4,-5,4
32.22,-13,-8,-39,-18,-4,0,0,-10
32.225,-4,-1,6,-1,-2,4,4,-3
32.23,7,8,41,48,11,4,1,3
32.235,2,-7,-69,-81,-19,-9,-6,3
32.24,-8,-25,-21,-1,-8,-6,-6,-5
32.245,-4,-5,-35,-29,-4,-7,-5,-1
32.25,-3,0,2,9,2,0,1,-4
32.255,5,15,76,88,16,8,7,4
32.26,3,1,-44,-64,-9,-2,-1,-4
32.265,-9,-15,-32,-38,-14,-7,-5,-2
32.27,-4,-11,-2,3,-4,-7,-6,-3
32.275,0,-5,-59,5,4,3,4,0
32.28,1,2,59,15,-7,1,0,1
32.285,5,4,40,10,0,-2,0,-2
32.29,-1,4,-30,-18,-3,-3,-4,-4
32.295,10,6,46,24,7,7,2,12
32.3,5,9,-60,-13,10,7,6,6
32.305,-24,-44,-87,-66,-38,-22,-17,-21
32.31,-2,4,33,7,7,3,4,-1
32.315,-4,12,4,16,9,7,5,-8
32.32,-1,-1,-34,-9,-5,-7,-5,4
32.325,8,21,47,38,14,7,4,5
32.33,-9,-23,-89,-92,-29,-14,-8,-6
32.335,-20,-48,-87,-51,-24,-13,-8,-9
32.34,-12,12,89,11,6,-2,-2,-17
32.345,14,8,-41,-36,16,11,7,11
32.35,2,8,101,125,12,3,4,2
32.355,-5,-12,-45,-33,-8,-5,-3,-8
32.36,10,17,29,-12,3,7,4,10
32.365,-4,-7,22,36,-7,-7,-5,2
32.37,1,-5,-71,-58,6,9,4,2
32.375,4,10,111,90,14,1,0,0
32.38,-10,-32,-84,28,-8,-7,-7,-7
32.385,3,11,108,12,2,-1,2,-2
32.39,2,-1,-58,-12,-3,-2,-3,6
32.395,-2,25,85,16,10,7,4,-5
32.4,0,-13,3,-59,-18,-9,-2,1
32.405,6,8,4,33,11,8,3,3
32.41,2,16,95,76,19,8,1,0
32.415,-23,-52,-94,-72,-54,-29,-18,-17
32.42,23,51,127,115,42,18,10,13
32.425,-7,-24,-83,-7,1,2,1,-1
32.43,-10,-7,98,4,-22,-17,-10,-10
32.435,17,33,90,84,24,15,9,12
32.44,-10,-21,5,-18,-12,-8,-5,-5
32.445,3,23,84,25,-7,-6,-5,2
32.45,21,40,4,38,26,19,14,12
32.455,-18,-38,-46,-86,-44,-26,-15,-15
32.46,6,13,-9,-24,12,4,3,4
32.465,-6,-4,7,35,-2,-4,-2,-6
32.47,-2,-5,-43,-19,9,9,1,-1
32.475,0,7,-12,-12,3,-2,-2,-1
32.48,3,6,23,43,17,7,1,4
32.485,7,15,0,-65,-8,1,10,2
32.49,-5,-8,-3,15,-7,-3,1,-4
32.495,13,23,22,42,22,14,7,8
32.5,-21,-57,3,1,-21,-23,-15,-15
32.505,24,36,127,127,51,40,17,17
32.51,-27,-54,-128,-122,-45,-25,-17,-19
32.515,4,17,23,-1,24,8,3,5
32.52,20,36,76,56,7,9,10,12
32.525,-24,-50,-128,-2,-20,-21,-17,-16
32.53,-2,3,-7,-26,-6,-5,-2,-2
32.535,16,38,23,6,11,8,7,9
32.54,-15,-21,-65,-45,-28,-12,-9,-12
32.545,-17,-24,-71,-99,-36,-17,-10,-11
32.55,9,14,60,54,10,5,5,6
32.555,10,12,-13,-41,2,2,1,3
32.56,-24,-42,-108,-90,-53,-28,-17,-15
32.565,7,12,40,-11,9,3,2,3
32.57,9,43,90,70,20,1,0,4
32.575,-16,-39,-90,-58,-8,-6,-2,-8
32.58,-4,4,77,64,12,6,-1,-2
32.585,13,7,55,28,13,5,5,9
32.59,-4,-18,-53,-47,-6,-3,-5,-2
32.595,-4,11,120,60,-2,-4,-1,-2
32.6,16,33,42,-28,9,7,7,7
32.605,23,33,72,67,41,28,18,17
32.61,-23,-34,-24,-9,-18,-22,-7,-17
32.615,9,4,13,56,13,8,4,3
32.62,-12,-22,27,-62,-18,-12,-9,-8
32.625,9,35,38,4,-1,-5,-1,2
32.63,5,12,37,14,4,15,6,6
32.635,-6,-3,-14,-32,-12,-5,-8,-5
32.64,0,-3,-71,12,14,-1,2,-1
32.645,19,39,21,-15,-1,2,4,10
32.65,11,24,45,41,22,21,13,9
32.655,-17,-24,12,-10,-10,-12,-9,-7
32.66,21,39,120,118,38,18,8,16
32.665,-21,-34,-33,46,4,-4,-6,-21
32.67,4,18,29,-42,-16,-9,-7,-1
32.675,10,-8,-9,8,0,7,7,9
32.68,-7,-9,-24,-64,-20,-14,-10,-8
32.685,-7,-9,-6,-74,-20,-13,-10,-3
32.69,-15,-35,-29,1,-11,-8,-9,-10
32.695,-2,0,19,23,8,5,1,1
32.7,7,-3,-103,-49,9,10,5,7
32.705,-16,-6,3,76,-2,-3,-4,-10
32.71,3,-13,-20,-74,-12,-12,-5,-1
32.715,4,-1,5,6,3,-3,-2,-1
32.72,-8,-18,-32,69,3,9,2,-3
32.725,9,22,95,19,22,10,7,7
32.73,0,-14,-13,4,-5,-2,-1,2
32.735,-3,-24,-81,-36,-7,2,-2,-1
32.74,-12,-15,74,31,-13,-10,4,-8
32.745,-4,3,13,2,-4,-1,-2,-1
32.75,-2,-4,5,63,2,-2,-1,-4
32.755,-1,7,28,-37,-12,-11,-3,-6
32.76,10,12,-32,-12,3,8,4,5
32.765,-12,-51,-115,-23,-25,-14,-9,-3
32.77,3,12,53,33,5,3,2,5
32.775,0,1,-66,-42,-1,5,2,2
32.78,-20,-38,-63,-37,-15,-13,-10,-14
32.785,-6,-4,71,-22,-6,-8,-6,-6
32.79,-1,-5,-11,-52,-2,-2,-1,2
32.795,12,29,94,66,24,18,10,4
32.8,-2,6,36,49,-2,-7,-6,-1
32.805,2,1,-10,-21,-4,-3,-2,2
32.81,5,10,-11,47,16,15,9,3
32.815,-17,-15,-17,-10,-15,-13,-10,-12
32.82,10,19,24,12,13,6,5,4
32.825,-12,-32,-86,-22,-14,-9,-9,-9
32.83,-2,-3,-6,-8,-8,-8,-5,-4
32.835,0,-2,2,23,-1,1,1,0
32.84,5,5,-4,22,11,7,3,6
32.845,-8,1,-21,-75,-20,-7,-3,-6
32.85,3,12,21,9,6,1,0,-1
32.855,-1,-15,-111,-28,-9,-4,-5,-1
32.86,-5,-1,-10,-19,-10,-7,-5,-3
32.865,8,10,39,2,1,0,0,12
32.87,-4,-5,-16,-15,-11,-6,-4,-8
32.875,3,6,33,12,5,2,3,7
32.88,-3,-6,-6,-27,-12,-2,-1,-2
32.885,-1,-5,-14,13,-1,0,0,3
32.89,0,-5,-1,13,4,2,3,5
32.895,-14,-4,-1,-8,-5,-9,-10,-26
32.9,1,1,-21,5,-1,2,2,3
32.905,-2,-1,6,11,-1,-2,1,-4
32.91,-5,-10,-3,-25,-6,-2,-2,-4
32.915,-1,-9,22,7,-2,-2,-1,-3
32.92,0,4,17,3,-4,-2,-2,-2
32.925,-3,-2,-1,-1,-2,-1,-3,-6
32.93,-11,-6,-49,-11,-5,-3,-1,-3
32.935,9,0,-4,2,0,-3,1,12
32.94,1,2,16,1,-2,-2,-6,-14
32.945,-9,-7,-12,4,-1,0,2,2
32.95,5,10,16,3,-4,0,-2,-1
32.955,-10,-4,6,0,-4,-3,-4,-8
32.96,-6,2,3,-5,-1,-1,3,8
32.965,13,1,-3,-5,1,0,-3,-9
32.97,-4,-8,-4,-5,-4,-3,-1,6
32.975,-13,1,-1,-4,-5,-3,-4,-13
32.98,15,11,10,4,-2,-1,-2,10
32.985,-10,-3,0,-1,-2,0,0,-4
32.99,2,-15,-3,-5,-2,-2,-3,3
32.995,2,0,4,1,-1,-2,-1,-4
33,-11,2,11,15,2,1,-1,-1
33.005,6,3,-16,-13,-3,-1,1,12
33.01,-11,0,1,-4,-4,0,-4,-21
33.015,7,4,10,-2,0,-3,1,7
33.02,-2,6,1,0,0,2,0,-4
33.025,-5,-13,-20,-7,-4,-4,-3,-6
33.03,3,3,3,4,3,0,2,4
33.035,-5,-8,-9,-4,-2,0,-1,2
33.04,5,3,11,13,0,0,-1,0
33.045,-1,-9,-30,-21,-8,-3,0,1
33.05,-4,1,9,-2,6,-1,-1,-4
33.055,2,4,6,6,-6,0,2,2
33.06,5,-4,-1,-3,-2,-3,-1,7
33.065,-5,-1,9,7,0,0,-1,-10
33.07,2,0,1,2,5,5,4,2
33.075,0,2,11,17,2,-1,-3,2
33.08,-3,-7,-13,-37,-11,-5,-3,-3
33.085,-4,-5,-9,-2,-2,-5,-3,-2
33.09,0,0,2,-1,-5,-1,-2,-2
33.095,2,-1,6,2,2,0,0,3
33.1,-4,3,7,10,3,2,1,-3
33.105,-3,1,0,1,0,-2,-2,-5
33.11,3,-4,-9,-1,-7,-4,-3,5
33.115,-3,0,3,-7,-4,-3,-3,-1
33.12,-5,-8,-11,-4,3,-2,-3,-6
33.125,3,7,0,-3,0,1,-1,1
33.13,-1,0,7,6,-3,-3,-1,0
33.135,-3,-6,-13,-2,0,0,1,-2
33.14,-2,-2,0,1,-2,-1,0,-3
33.145,3,9,12,8,2,0,1,2
33.15,-7,-18,-14,-9,-8,-6,-5,-6
33.155,-1,2,-4,-5,1,0,-1,1
33.16,0,3,14,1,1,0,0,0
33.165,0,-4,1,15,5,2,0,1
33.17,-1,-2,-33,-40,-10,-7,-4,-3
33.175,-2,-6,-3,0,1,0,-1,-1
33.18,-3,-1,7,8,1,2,0,-2
33.185,6,2,15,13,2,3,2,10
33.19,-10,-3,-29,-3,-3,-2,-4,-14
33.195,-1,-4,0,-7,-5,-3,-2,3
33.2,-1,1,-4,-3,1,1,1,1
33.205,-2,-5,-5,-4,-5,-2,-1,-2
33.21,4,4,14,6,4,2,1,2
33.215,0,5,5,0,-4,-3,-2,-2
33.22,-4,-5,-9,-2,-3,-4,-2,-2
33.225,-1,-1,-5,-9,0,1,1,0
33.23,1,0,13,8,1,0,1,1
33.235,-1,-1,0,-4,-4,-2,-3,-4
33.24,1,3,10,5,2,1,0,-1
33.245,-3,-5,-19,-9,-6,-5,-2,-6
33.25,2,3,11,9,2,2,-1,2
33.255,-2,-3,-30,-17,-1,-3,0,-3
33.26,-1,-3,-3,-1,2,-1,1,-2
33.265,-2,-1,10,0,-5,-4,-3,0
33.27,2,2,3,15,3,3,-1,2
33.275,-8,-3,-2,-5,-3,-1,-1,-12
33.28,3,1,1,-5,-2,-3,-2,-1
33.285,-4,-4,-15,-9,2,-2,-2,-2
33.29,-1,2,12,3,-2,0,0,0
33.295,-1,-2,3,2,0,-2,-3,0
33.3,3,-1,-3,1,-4,-2,-1,3
33.305,-3,-1,10,-3,5,7,3,0
33.31,-1,2,0,-3,0,-3,-1,1
33.315,0,-1,-4,-6,-1,0,0,-1
33.32,-7,-2,3,1,0,-1,-2,-3
33.325,1,-1,1,1,-4,-5,-4,0
33.33,-2,-1,-4,-4,-3,-1,0,-3
33.335,0,0,6,1,0,0,1,2
33.34,-2,-1,-4,0,0,2,0,-2
33.345,-2,0,-3,-1,-1,1,-2,-4
33.35,2,-1,10,6,2,-1,2,0
33.355,0,-3,-5,-8,-10,-6,-5,3
33.36,-1,-2,2,-3,-3,-2,-2,-2
33.365,0,-2,-11,-7,-1,-3,-1,-1
33.37,-2,3,13,5,3,3,1,-1
33.375,1,2,9,4,-1,-1,2,-1
33.38,-1,-4,-10,-1,-2,0,-2,0
33.385,-3,-4,2,0,-1,-2,-3,-4
33.39,-1,1,-4,-2,-6,-4,-1,-1
33.395,0,2,22,20,7,0,1,5
33.4,-2,-7,-37,-24,-8,-3,-2,-2
33.405,-4,-4,-23,-14,-9,-4,-2,-5
33.41,-2,-2,-7,-1,-1,-3,-1,1
33.415,0,-4,-6,-8,0,1,0,1
33.42,1,5,14,17,9,3,3,-1
33.425,1,2,8,5,2,1,0,-3
33.43,-1,-3,-2,-5,-4,-4,-3,0
33.435,-1,4,14,9,-4,0,0,-4
33.44,-1,-7,-41,-20,-6,-4,-2,0
33.445,-8,-2,8,-4,-2,-2,-2,-14
33.45,0,-3,-1,-1,0,1,-1,1
33.455,-1,-3,-4,-6,0,-1,-2,-1
33.46,-4,1,16,6,-2,-1,-2,-2
33.465,2,2,0,9,2,1,4,5
33.47,-2,-6,-18,-11,-5,0,0,-2
33.475,-4,-1,-11,-16,-2,-5,-3,-2
33.48,-1,-4,7,0,0,-1,-2,0
33.485,-1,1,0,2,-2,-5,-4,-1
33.49,0,2,10,6,3,0,-2,-1
33.495,3,1,-11,1,-3,1,1,1
33.5,0,2,15,5,-2,-5,1,0
33.505,1,-5,-24,-6,2,-1,1,3
33.51,-2,-5,1,-2,0,-1,-3,0
33.515,-3,-5,-18,-17,-4,-4,-3,-2
33.52,-2,-2,0,0,-3,-3,-2,0
33.525,-2,3,13,6,-3,0,-1,-2
33.53,2,1,5,2,0,1,-2,0
33.535,0,-3,0,7,-1,0,-2,1
33.54,0,2,2,-1,-2,-1,-1,-3
33.545,-2,-8,-10,-14,-7,-4,-2,-2
33.55,-1,-1,2,8,4,0,1,-2
33.555,-2,-1,6,2,0,2,0,-1
33.56,-1,0,0,-2,-1,0,1,-1
33.565,2,0,5,3,-1,-1,-1,-1
33.57,2,0,-6,-10,-8,-7,-4,0
33.575,-2,0,11,20,3,-1,0,-1
33.58,-2,-4,-16,-18,-2,1,-1,-3
33.585,-3,-3,-6,-6,-3,-1,-1,0
33.59,-1,1,16,5,3,0,1,-1
33.595,1,0,-13,-2,-1,-3,-2,0
33.6,1,8,10,23,5,1,1,-1
33.605,-5,-13,-16,-29,-8,-1,-2,-1
33.61,-2,-6,-18,-15,-6,-4,-3,-3
33.615,1,1,8,0,-2,1,2,0
33.62,-1,-1,11,12,-2,-1,-2,-3
33.625,3,10,25,30,7,2,2,3
33.63,-4,-7,-30,-29,-9,-4,-1,-1
33.635,-1,-4,9,2,-1,-1,-1,-3
33.64,2,0,3,22,3,2,0,-1
33.645,-2,-6,-21,-46,-10,-3,-2,-3
33.65,3,5,5,16,6,4,2,2
33.655,4,8,33,7,9,2,2,3
33.66,-6,-9,18,44,-6,-2,-4,-2
33.665,-8,-14,-21,-63,-17,-10,-6,-6
33.67,4,12,19,11,9,4,4,1
33.675,0,-5,-8,-14,-6,-4,-2,1
33.68,1,5,62,39,2,-2,-3,0
33.685,0,-3,-28,27,4,4,1,0
33.69,-2,-5,-61,-20,-4,0,-1,-3
33.695,7,15,1,-34,7,6,7,4
33.7,0,-19,-24,15,-14,-10,-6,7
33.705,4,13,60,22,8,1,0,1
33.71,-10,-21,-53,-57,-20,-10,-7,-6
33.715,-2,9,79,48,7,1,0,-6
33.72,4,-16,-106,-115,-13,1,2,5
33.725,8,12,43,45,16,5,1,7
33.73,1,14,65,50,9,5,0,-4
33.735,1,-6,37,27,-2,-3,-3,0
33.74,-11,-12,-22,-77,-17,-8,-7,-10
33.745,-9,-13,49,-4,-10,-10,-7,-7
33.75,12,25,-6,-31,12,12,9,11
33.755,-21,-35,-85,11,-24,-17,-15,-18
33.76,15,38,51,51,37,16,9,13
33.765,-19,-32,-79,-46,-31,-16,-10,-15
33.77,9,11,61,44,6,4,4,10
33.775,15,30,34,9,30,19,12,9
33.78,-18,-29,18,28,-24,-16,-10,-16
33.785,-8,-15,-92,-92,-29,-19,-9,-3
33.79,-24,-37,59,110,-14,-19,-15,-18
33.795,22,29,35,32,19,17,11,17
33.8,-20,-26,73,51,-10,-15,-13,-16
33.805,10,18,-13,-14,14,14,10,7
33.81,17,39,30,-38,19,16,13,7
33.815,-33,-61,21,27,-53,-39,-25,-20
33.82,10,13,-52,-56,13,7,3,6
33.825,11,0,-24,70,22,16,9,8
33.83,-28,-55,-29,-77,-47,-30,-20,-18
33.835,22,46,27,33,37,23,14,16
33.84,-5,-16,-76,-108,-23,-8,-3,-5
33.845,5,38,127,94,20,6,5,1
33.85,15,28,3,-11,8,10,8,8
33.855,-3,-5,-71,11,4,6,2,-4
33.86,7,18,50,30,9,5,4,3
33.865,17,45,110,102,29,14,7,11
33.87,-8,-12,88,86,-1,-10,-9,-5
33.875,9,24,-2,-5,15,9,6,4
33.88,-11,-19,-28,-5,-10,-8,-3,-7
33.885,-7,-17,46,15,-7,-2,-5,-4
33.89,10,28,41,62,24,13,6,6
33.895,-20,-26,-12,-39,-41,-27,-17,-15
33.9,-8,-31,-91,-84,-19,-9,-5,-7
33.905,-3,1,-10,26,7,1,-2,-1
33.91,-2,-1,65,53,1,-2,-3,-1
33.915,-11,-45,-57,-89,-14,-6,-5,-7
33.92,-33,-59,-51,-49,-36,-23,-16,-23
33.925,6,16,62,-23,6,-2,1,3
33.93,16,39,82,64,39,22,10,12
33.935,-31,-76,-7,-85,-88,-46,-25,-22
33.94,16,40,88,123,38,18,10,10
33.945,-14,-44,-101,-78,-39,-17,-10,-11
33.95,0,-6,-128,-60,3,-1,1,2
33.955,9,49,32,97,44,25,14,1
33.96,6,26,127,-64,-9,4,4,4
33.965,4,3,20,-33,4,-3,-2,1
33.97,16,31,87,55,23,17,11,11
33.975,-21,-45,-83,-63,-22,-16,-11,-11
33.98,19,17,91,56,35,21,13,14
33.985,26,59,84,84,21,17,12,18
33.99,-42,-104,-124,-128,-66,-34,-24,-27
33.995,9,24,114,83,31,14,9,12
34,4,32,105,54,21,8,4,2
34.005,-10,-31,-25,-57,-24,-10,-5,-7
34.01,3,-8,52,55,18,3,2,3
34.015,0,7,-38,-28,-2,0,0,-1
34.02,1,2,3,39,5,2,0,2
34.025,8,13,11,8,7,13,6,7
34.03,-15,-20,-33,-83,-33,-22,-14,-17
34.035,15,6,-3,47,25,19,11,10
34.04,-2,-20,-29,5,-31,-12,-3,-1
34.045,0,-5,83,-7,4,1,2,-1
34.05,-7,-25,-113,-55,-15,-1,-1,-4
34.055,-11,19,111,6,0,-18,-15,-14
34.06,9,11,5,21,30,-1,2,3
34.065,24,44,71,127,35,28,13,13
34.07,-10,-34,-21,-56,-25,-21,-11,-6
34.075,9,28,95,33,15,6,4,9
34.08,-14,-16,-62,52,-11,-4,-10,-6
34.085,1,23,32,-24,18,8,4,-6
34.09,15,16,48,35,24,6,5,15
34.095,-5,11,-36,-68,-45,-27,-12,-12
34.1,3,-16,-39,18,5,10,1,2
34.105,-8,-34,-100,-58,-42,-18,-8,-1
34.11,25,58,123,127,38,28,14,14
34.115,-10,-33,70,10,-6,4,-1,-2
34.12,-7,-32,55,-76,-10,-3,1,-3
34.125,7,40,41,-4,32,-2,2,4
34.13,-20,-11,-92,-30,-50,-27,-18,-19
34.135,9,-29,-79,34,41,21,10,9
34.14,-5,-2,-44,-33,-25,-8,-7,-4
34.145,-4,20,3,43,-15,-9,-7,-2
34.15,-18,-29,25,-47,-19,-9,-8,-12
34.155,8,11,-51,-50,0,-2,0,8
34.16,-15,-19,-72,10,-7,-4,-3,-19
34.165,-14,-19,-54,26,-19,-14,-10,-15
34.17,-14,-37,-104,-120,-67,-19,-11,-10
34.175,2,-4,-29,69,29,14,6,-5
34.18,11,30,-16,-19,10,-2,2,8
34.185,-10,-19,48,86,16,-3,-6,-6
34.19,5,24,59,32,6,10,5,-1
34.195,7,13,-59,-44,-4,4,4,6
34.2,-4,10,16,20,6,-5,-3,-3
34.205,6,-7,68,59,16,14,6,5
34.21,-9,6,62,69,20,-4,-6,-5
34.215,3,12,33,6,-15,-4,-2,-1
34.22,2,-3,-6,37,-15,-4,-4,-2
34.225,-7,-24,-99,-73,-5,-3,-2,-3
34.23,7,16,7,-12,14,5,7,8
34.235,-9,-9,12,-49,-16,-6,-7,-10
34.24,9,35,90,29,30,13,10,6
34.245,9,37,34,52,33,18,7,7
34.25,-26,-60,-22,1,-25,-21,-14,-14
34.255,-5,-4,25,45,5,-5,-3,-4
34.26,4,3,-28,-49,-14,-2,-2,2
34.265,-2,-2,34,15,-2,-3,-1,0
34.27,11,24,19,23,25,15,10,5
34.275,3,9,-1,-7,0,-1,0,3
34.28,-3,-19,70,44,10,1,-3,-6
34.285,-2,7,36,-37,-31,-12,-6,-4
34.29,4,5,33,-18,3,0,0,2
34.295,-24,-71,-109,-83,-47,-23,-13,-17
34.3,10,27,71,10,8,4,2,10
34.305,-21,-33,-41,-31,-6,-3,-4,-27
34.31,12,15,28,25,5,2,0,8
34.315,10,38,62,29,8,7,7,7
34.32,-5,-3,-27,57,3,-3,-6,-4
34.325,-9,-37,-80,-71,-26,-13,-8,-1
34.33,4,22,-2,3,12,5,3,-5
34.335,2,18,87,108,23,9,0,0
34.34,-4,-1,-76,-78,-17,-3,1,-1
34.345,-9,-26,-31,-7,-9,-8,-5,0
34.35,4,4,-3,-2,2,2,2,2
34.355,2,-2,3,7,-6,-7,-5,5
34.36,-9,-9,-19,-16,-2,1,2,-9
34.365,4,1,3,-23,-9,-7,-4,10
34.37,1,-1,-6,11,3,2,4,5
34.375,-4,-16,18,16,-6,-4,-7,-6
34.38,2,7,-3,-9,-4,-4,2,2
34.385,-11,-28,-45,-19,-8,-8,-6,-5
34.39,2,6,11,25,13,10,5,5
34.395,4,0,-45,-54,-6,0,1,7
34.4,-9,-9,37,46,0,-5,-4,1
34.405,-18,-8,-64,-47,-16,-8,-10,-33
34.41,1,-2,-5,-4,0,-5,-3,-5
34.415,6,9,20,-10,3,1,5,7
34.42,5,4,3,2,1,4,0,2
34.425,-7,1,43,17,-1,-3,-3,-2
34.43,-12,-14,-70,-17,-7,-4,-7,-7
34.435,-4,-1,-13,-10,-3,-4,-3,-6
34.44,-5,5,6,6,6,3,2,9
34.445,22,-6,22,17,-3,-2,0,-1
34.45,4,6,5,-4,1,-2,1,0
34.455,-1,1,17,8,5,5,2,9
34.46,-4,8,-12,-7,-4,-5,-5,-15
34.465,-4,-1,-4,-3,-2,-1,0,8
34.47,17,-14,5,2,-5,-3,-7,9
34.475,-4,-2,-9,-3,-3,2,5,6
34.48,7,7,12,-3,-4,0,7,3
34.485,-1,30,-9,4,2,1,-6,-2
34.49,-18,-38,-1,1,-2,-2,-2,-21
34.495,4,-5,7,-3,-1,-1,10,6
34.5,-1,-25,-7,-1,-4,-5,11,-5
34.505,9,8,8,3,-3,-7,-48,3
34.51,-7,16,2,1,0,-1,-3,-1
34.515,3,9,23,22,0,-1,-2,-10
34.52,-1,-1,-51,-51,-10,-4,-1,-2
34.525,-9,-8,3,8,0,0,18,-6
34.53,7,12,9,1,2,2,2,11
34.535,-12,-6,-12,-8,-1,-3,-11,-13
34.54,1,7,16,17,1,0,-4,3
34.545,-7,-5,0,-1,-4,-2,4,6
34.55,-1,-8,1,-2,1,-1,0,-4
34.555,4,8,14,19,5,2,5,0
34.56,-6,-3,-11,-8,-3,0,-5,-2
34.565,-6,-16,-47,-39,-7,-5,5,-9
34.57,9,9,15,11,0,-5,-3,10
34.575,-5,-4,-4,-7,-2,-2,-1,-2
34.58,1,4,13,15,3,-1,-8,0
34.585,-2,-3,9,10,0,1,4,-1
34.59,-4,3,-4,-7,-4,-3,2,-2
34.595,3,-4,-3,2,-2,-3,-4,9
34.6,1,-5,-2,-11,-4,3,-6,-9
34.605,2,2,-6,0,0,1,7,6
34.61,-4,-9,-3,-4,-2,-2,0,0
34.615,1,4,-2,-7,1,-1,0,-2
34.62,0,2,14,15,2,-1,0,0
34.625,-4,-6,7,7,-2,-5,0,2
34.63,6,7,-5,-2,3,3,0,0
34.635,-3,-3,-5,-8,-5,-4,-7,-5
34.64,-2,0,2,-1,-2,-3,-2,-2
34.645,6,-5,0,-1,-4,-2,-2,5
34.65,-17,4,4,5,4,5,6,-5
34.655,-2,-3,0,-5,-2,0,-2,-1
34.66,-1,1,-3,2,2,-2,-2,1
34.665,3,-2,8,5,-1,3,4,1
34.67,-1,4,3,3,-2,-1,-1,-5
34.675,-5,-12,-37,-39,-12,-6,-5,-7
34.68,-3,-1,7,5,-1,0,0,-1
34.685,2,-4,6,4,1,-2,-1,4
34.69,4,6,8,10,5,4,2,2
34.695,-5,1,6,12,3,-1,1,-1
34.7,0,-1,-17,-18,-4,-2,-3,-1
34.705,-6,-5,-3,1,0,-3,1,-6
34.71,-1,0,-6,-7,-4,0,-1,2
34.715,-5,-1,1,1,-4,-1,-6,-7
34.72,0,-1,4,0,-3,-3,-1,-2
34.725,2,1,6,5,2,2,2,4
34.73,-11,-2,-15,-6,-6,-2,-5,-15
34.735,1,0,3,0,-3,-1,0,0
34.74,1,-2,4,5,1,0,-3,1
34.745,-6,-5,-11,-7,-1,1,-1,-5
34.75,1,2,4,2,3,1,0,0
34.755,0,1,1,-4,0,-1,-2,1
34.76,2,-1,3,9,-1,-3,0,5
34.765,1,2,7,11,-3,-5,-2,-2
34.77,-1,-3,-9,-18,-7,-2,-3,-2
34.775,-1,0,1,1,6,2,1,-2
34.78,1,1,3,1,0,-1,-2,2
34.785,0,0,7,5,2,2,2,-2
34.79,1,1,9,6,-4,-3,-2,0
34.795,-3,1,-7,-5,-3,-1,-1,-1
34.8,-3,-2,3,1,-3,-4,-4,-1
34.805,-2,-3,2,2,4,2,3,-1
34.81,-2,0,0,0,-1,-1,-1,0
34.815,2,-1,-3,-2,-2,-2,-2,-2
34.82,-3,1,1,-2,-2,-2,-3,-4
34.825,-2,-1,-9,-4,-3,0,0,1
34.83,2,-1,-8,-5,3,3,2,2
34.835,0,1,0,0,2,-1,1,-2
34.84,-2,0,-1,-1,1,0,0,-3
34.845,-2,0,3,-4,-3,-1,-2,1
34.85,2,-3,-4,0,-6,-2,-1,3
34.855,-2,-1,4,1,-3,-2,-1,-4
34.86,0,-1,-7,-4,-3,-2,0,-3
34.865,-3,-2,-3,-8,-1,-1,-2,-5
34.87,-2,2,-1,-1,-1,-2,-3,-2
34.875,-3,-3,-1,1,0,0,-1,-2
34.88,0,1,-1,5,2,-1,1,1
34.885,0,-3,0,-8,-2,-2,-4,-1
34.89,-3,-2,6,5,0,-3,0,-3
34.895,-1,0,-9,-18,-6,1,-2,-1
34.9,-4,-5,-14,-5,0,0,1,-3
34.905,-2,-1,8,8,1,-1,-1,-3
34.91,1,0,4,5,-2,-2,-3,0
34.915,-2,-1,7,5,2,-1,-1,-2
34.92,0,0,-1,-1,-5,-3,-3,-1
34.925,-1,-1,-2,-3,2,1,-1,-1
34.93,-1,-2,2,-2,-1,-1,-1,-1
34.935,-1,-1,-10,3,1,0,0,1
34.94,0,-3,4,-4,-1,0,0,-2
34.945,-1,-2,-5,-5,-4,-4,-3,-1
34.95,-3,-1,-3,-2,0,1,0,-3
34.955,-1,-2,-1,0,-4,-3,-1,0
34.96,-2,0,-1,0,1,2,-3,0
34.965,0,0,-1,4,0,0,2,0
34.97,-1,-1,-3,-2,-1,1,-2,-3
34.975,1,-4,-2,-4,-3,-4,-3,1
34.98,-1,-1,-1,-2,-4,-2,-3,-2
34.985,-1,0,1,0,-1,0,-1,1
34.99,1,-2,-3,0,-2,-5,-2,1
34.995,-1,-2,8,9,-1,-1,-2,-2
35,-3,-5,-21,-23,-3,-2,0,1
35.005,-2,-2,-3,-1,-2,0,-1,-3
35.01,-2,-1,2,0,1,1,3,1
35.015,-3,1,2,4,0,-2,-1,-3
35.02,-1,0,6,4,-4,-2,-1,-2
35.025,-1,-3,-4,-4,-2,-1,-2,-3
35.03,-1,-1,-5,-2,-2,-2,-2,-1
35.035,-1,0,-3,-1,-1,-1,0,-1
35.04,-1,1,2,2,2,-1,-1,-2
35.045,-1,-3,-4,-3,-5,-4,-2,-2
35.05,1,1,1,-1,-3,-1,-1,-2
35.055,-2,-1,-3,-2,3,0,1,0
35.06,0,-1,2,3,2,0,0,-1
35.065,-1,1,0,-1,0,-2,-2,0
35.07,-5,-2,-1,0,-3,-3,-3,-7
35.075,3,-1,-4,-2,1,0,-4,3
35.08,0,2,5,4,-3,1,1,1
35.085,-1,-2,-6,-6,-4,-1,1,0
35.09,-1,-2,-2,2,2,-3,-2,-1
35.095,-2,1,-7,-17,-6,0,0,-3
35.1,-4,-4,-3,7,2,-3,-3,-4
35.105,-2,-1,-4,-13,-5,-2,-2,-1
35.11,0,1,6,11,6,-1,1,0
35.115,-5,-8,-3,-10,-17,-10,-3,-6
35.12,3,3,1,4,10,10,3,3
35.125,0,3,12,6,5,-3,0,0
35.13,-1,-3,-20,-16,-4,-4,-2,-1
35.135,-3,-2,20,7,-3,-1,-1,-3
35.14,-1,-1,-8,6,-1,-4,-3,-2
35.145,1,4,16,6,-1,1,1,1
35.15,3,0,-19,7,3,5,5,2
35.155,-1,-2,-16,-10,0,-1,-3,-1
35.16,-2,-2,-8,-13,-11,-6,-2,-2
35.165,-4,-10,-14,-5,-1,-2,-6,-3
35.17,-3,-1,17,-11,-4,-3,-4,-1
35.175,6,9,14,46,14,9,6,5
35.18,-1,1,15,-12,2,-1,-1,1
35.185,3,5,-4,15,8,-1,2,2
35.19,-9,-12,-4,-1,-20,-12,-7,-6
35.195,1,0,-33,-49,-7,-2,-1,-1
35.2,-1,-2,14,9,-8,2,2,0
35.205,5,8,23,6,10,3,0,2
35.21,1,0,8,-3,0,-2,0,1
35.215,0,7,32,52,11,5,1,1
35.22,-7,-12,-27,-37,-16,-11,-5,-5
35.225,5,4,-4,-29,3,5,4,1
35.23,0,-3,36,50,-5,2,-1,0
35.235,0,1,-36,-80,-8,-4,-1,-2
35.24,2,4,36,81,18,6,2,2
35.245,-6,-1,35,16,-22,-8,-4,-6
35.25,-12,-29,-85,-74,-13,-8,-6,-8
35.255,8,12,-12,-66,12,9,7,8
35.26,-9,-10,61,42,-8,-8,-6,-9
35.265,4,9,-49,-51,-7,4,5,4
35.27,4,4,-26,9,12,7,2,3
35.275,-9,5,17,-19,-15,-14,-10,-9
35.28,12,-11,-75,31,29,20,6,11
35.285,-26,-41,-65,-82,-57,-34,-18,-18
35.29,9,21,88,46,19,4,3,4
35.295,-7,-13,-41,-4,2,-1,-3,-4
35.3,-13,-14,48,-9,-19,-15,-12,-10
35.305,10,29,56,21,22,8,3,4
35.31,3,-14,-29,-58,4,6,5,4
35.315,21,52,127,103,24,13,9,11
35.32,8,24,66,2,8,3,4,3
35.325,-21,-29,-81,-19,3,-6,-8,-22
35.33,-16,-25,100,-43,-38,-18,-11,-12
35.335,0,-26,-48,48,10,6,1,1
35.34,35,87,42,-32,22,21,16,19
35.345,-22,-53,7,88,-8,-11,-10,-11
35.35,8,15,52,40,21,5,2,3
35.355,3,-4,-77,-44,3,5,2,3
35.36,-49,-96,-128,5,-27,-28,-27,-34
35.365,6,4,-5,-96,-14,-9,-4,1
35.37,25,53,74,105,48,24,16,17
35.375,-60,-108,-79,-128,-112,-55,-36,-38
35.38,10,12,10,60,39,12,9,8
35.385,14,49,99,123,27,10,3,8
35.39,-17,-54,-128,-82,-58,-21,-8,-10
35.395,2,4,100,45,29,3,2,-2
35.4,31,69,117,25,27,24,16,21
35.405,-16,1,26,-8,-58,-32,-18,-13
35.41,-21,-28,-65,-18,-19,-18,-14,-13
35.415,26,49,90,39,25,27,17,19
35.42,-9,-3,-51,2,-33,-20,-9,-7
35.425,4,-13,-15,-42,3,14,8,11
35.43,-5,-7,-15,37,18,-3,-6,-6
35.435,5,-2,-13,2,-2,1,-1,3
35.44,-3,-3,-5,-46,-15,-7,-3,0
35.445,13,7,12,60,43,13,11,11
35.45,13,45,127,-16,6,12,8,5
35.455,9,40,39,31,12,6,5,2
35.46,-9,-57,-72,2,17,1,-4,0
35.465,15,38,67,16,13,10,5,7
35.47,14,41,75,72,8,8,4,7
35.475,2,8,65,75,20,6,5,1
35.48,26,78,50,31,24,22,21,15
35.485,1,-6,-61,-18,7,12,5,1
35.49,-13,-6,71,59,11,-10,-8,-6
35.495,5,-16,-104,-73,-22,-14,-6,4
35.5,-10,-8,-10,-49,-14,-3,-4,-12
35.505,-5,-25,-39,-32,-1,-1,0,-2
35.51,4,-1,-47,-83,-20,4,2,4
35.515,6,11,-10,83,33,19,5,4
35.52,-42,-89,27,-51,-65,-47,-27,-28
35.525,27,51,67,116,36,22,15,16
35.53,13,6,37,34,11,8,7,6
35.535,-22,-31,98,0,-9,-16,-12,-14
35.54,8,20,-112,-37,3,7,2,4
35.545,-21,-35,100,72,-25,-12,-10,-14
35.55,1,-8,26,32,15,3,1,1
35.555,-4,10,1,2,-20,-10,-4,-5
35.56,5,-8,29,-33,13,8,5,4
35.565,-14,-6,-44,-73,-15,-20,-13,-11
35.57,7,8,-19,26,-20,5,2,3
35.575,5,18,72,46,14,7,8,2
35.58,-18,-45,-76,9,-16,-17,-13,-11
35.585,6,23,57,19,13,6,0,2
35.59,-15,-14,30,6,-13,-7,-7,-8
35.595,-8,-28,-92,-74,-13,-10,-7,-6
35.6,20,41,95,28,15,12,11,15
35.605,8,21,20,6,2,9,11,8
35.61,-8,-15,31,19,-2,-7,-4,-5
35.615,-19,-41,-53,-11,-25,-12,-4,-14
35.62,6,29,-4,25,12,2,0,5
35.625,0,20,85,-7,-9,-11,-7,-7
35.63,-10,-33,-128,27,-3,5,0,-5
35.635,-2,5,18,1,-2,-8,-5,-1
35.64,0,-13,-1,-12,-17,-5,0,-2
35.645,-17,-52,-44,19,-13,-12,-2,-10
35.65,31,57,104,73,48,25,18,19
35.655,-16,-35,-83,-38,-27,-17,-14,-14
35.66,-9,4,53,-34,-18,-9,-7,-9
35.665,17,23,31,46,28,22,13,12
35.67,-4,-13,-117,-33,-10,-9,-5,-2
35.675,-10,-2,41,34,1,-7,-4,-12
35.68,4,11,29,15,2,5,-1,2
35.685,-15,-29,-43,-8,-5,-6,-8,-8
35.69,10,24,18,-54,6,8,6,5
35.695,0,7,-7,16,3,5,2,2
35.7,-2,-2,28,10,-5,-2,1,-3
35.705,-7,-2,-20,-25,-13,-9,-7,-3
35.71,-15,-14,35,-37,-7,-5,-7,-15
35.715,19,30,-40,-39,-1,2,4,15
35.72,-23,-37,-15,-15,-9,-7,-7,-14
35.725,6,-1,-20,-19,2,8,5,6
35.73,-5,9,-28,-29,-12,-9,-4,-3
35.735,0,8,38,-1,-8,-4,-3,1
35.74,6,5,-2,11,12,5,2,-1
35.745,-19,-66,-121,-114,-35,-17,-14,-11
35.75,6,15,18,-6,0,0,-1,4
35.755,-3,-3,46,38,10,7,5,0
35.76,7,13,34,-21,1,2,2,5
35.765,-3,-4,4,-1,0,1,0,-5
35.77,-8,-8,-16,6,-4,-7,-7,-7
35.775,1,-6,-50,-23,-2,2,2,2
35.78,10,15,58,66,12,8,5,5
35.785,3,8,-72,-20,-2,0,0,0
35.79,-19,-58,-102,-66,-22,-16,-2,-10
35.795,9,21,69,53,26,10,5,5
35.8,-11,-26,-27,-11,-10,-8,-4,-5
35.805,6,9,35,30,5,5,1,2
35.81,-1,-5,-17,-47,-10,-1,-1,1
