1.000000000000000021e-02,-1.000000000000000000e+00,-2.000000000000000000e+00,-1.000000000000000000e+00,0.000000000000000000e+00,-2.000000000000000000e+00,-8.000000000000000000e+00,0.000000000000000000e+00,-1.000000000000000000e+00,2.864990234375000000e-01,6.933593750000000000e-01,-6.434326171875000000e-01,-1.519775390625000000e-01,-1.679687500000000000e-01,-1.008300781250000000e+00,-1.430664062500000000e-01,-1.125000000000000000e+00,-2.312500000000000000e+00,6.062500000000000000e+00
1.499999999999999944e-02,-1.000000000000000000e+00,-2.000000000000000000e+00,-1.000000000000000000e+00,0.000000000000000000e+00,-2.000000000000000000e+00,-8.000000000000000000e+00,0.000000000000000000e+00,-1.000000000000000000e+00,2.864990234375000000e-01,6.933593750000000000e-01,-6.434326171875000000e-01,-1.519775390625000000e-01,-1.679687500000000000e-01,-1.008300781250000000e+00,-1.430664062500000000e-01,-1.125000000000000000e+00,-2.312500000000000000e+00,6.062500000000000000e+00
2.000000000000000042e-02,-1.000000000000000000e+00,-2.000000000000000000e+00,-1.000000000000000000e+00,0.000000000000000000e+00,-2.000000000000000000e+00,-8.000000000000000000e+00,0.000000000000000000e+00,-1.000000000000000000e+00,2.867431640625000000e-01,6.931762695312500000e-01,-6.438598632812500000e-01,-1.508789062500000000e-01,-1.708984375000000000e-01,-1.006347656250000000e+00,-1.430664062500000000e-01,1.375000000000000000e+00,-4.062500000000000000e+00,5.000000000000000000e+00
2.500000000000000139e-02,-1.000000000000000000e+00,-2.000000000000000000e+00,-1.000000000000000000e+00,0.000000000000000000e+00,-2.000000000000000000e+00,-8.000000000000000000e+00,0.000000000000000000e+00,-1.000000000000000000e+00,2.867431640625000000e-01,6.931762695312500000e-01,-6.438598632812500000e-01,-1.508789062500000000e-01,-1.708984375000000000e-01,-1.006347656250000000e+00,-1.430664062500000000e-01,1.375000000000000000e+00,-4.062500000000000000e+00,5.000000000000000000e+00
2.999999999999999889e-02,-1.000000000000000000e+00,-1.000000000000000000e+00,-3.000000000000000000e+00,-4.000000000000000000e+00,-5.000000000000000000e+00,-1.900000000000000000e+01,0.000000000000000000e+00,-1.000000000000000000e+00,2.867431640625000000e-01,6.931762695312500000e-01,-6.438598632812500000e-01,-1.508789062500000000e-01,-1.708984375000000000e-01,-1.006347656250000000e+00,-1.430664062500000000e-01,1.375000000000000000e+00,-4.062500000000000000e+00,5.000000000000000000e+00
3.500000000000000333e-02,0.000000000000000000e+00,0.000000000000000000e+00,1.000000000000000000e+00,0.000000000000000000e+00,0.000000000000000000e+00,-2.000000000000000000e+00,1.000000000000000000e+00,-2.000000000000000000e+00,2.867431640625000000e-01,6.931762695312500000e-01,-6.438598632812500000e-01,-1.508789062500000000e-01,-1.708984375000000000e-01,-1.006347656250000000e+00,-1.430664062500000000e-01,1.375000000000000000e+00,-4.062500000000000000e+00,5.000000000000000000e+00
4.000000000000000083e-02,0.000000000000000000e+00,0.000000000000000000e+00,1.000000000000000000e+00,0.000000000000000000e+00,0.000000000000000000e+00,-2.000000000000000000e+00,1.000000000000000000e+00,-2.000000000000000000e+00,2.867431640625000000e-01,6.931762695312500000e-01,-6.438598632812500000e-01,-1.508789062500000000e-01,-1.708984375000000000e-01,-1.006347656250000000e+00,-1.430664062500000000e-01,1.375000000000000000e+00,-4.062500000000000000e+00,5.000000000000000000e+00
4.499999999999999833e-02,0.000000000000000000e+00,0.000000000000000000e+00,1.000000000000000000e+00,0.000000000000000000e+00,0.000000000000000000e+00,-2.000000000000000000e+00,1.000000000000000000e+00,-2.000000000000000000e+00,2.867431640625000000e-01,6.931762695312500000e-01,-6.438598632812500000e-01,-1.508789062500000000e-01,-1.708984375000000000e-01,-1.006347656250000000e+00,-1.430664062500000000e-01,1.375000000000000000e+00,-4.062500000000000000e+00,5.000000000000000000e+00
4.999999999999989869e-02,0.000000000000000000e+00,0.000000000000000000e+00,1.000000000000000000e+00,0.000000000000000000e+00,0.000000000000000000e+00,-2.000000000000000000e+00,1.000000000000000000e+00,-2.000000000000000000e+00,2.866821289062500000e-01,6.926879882812500000e-01,-6.445922851562500000e-01,-1.500854492187500000e-01,-1.723632812500000000e-01,-9.980468750000000000e-01,-1.455078125000000000e-01,4.812500000000000000e+00,-4.375000000000000000e+00,3.750000000000000000e+00
5.499999999999990313e-02,-3.000000000000000000e+00,-2.000000000000000000e+00,-2.000000000000000000e+00,-3.000000000000000000e+00,-2.000000000000000000e+00,-6.000000000000000000e+00,-1.000000000000000000e+00,-1.000000000000000000e+00,2.866821289062500000e-01,6.926879882812500000e-01,-6.445922851562500000e-01,-1.500854492187500000e-01,-1.723632812500000000e-01,-9.980468750000000000e-01,-1.455078125000000000e-01,4.812500000000000000e+00,-4.375000000000000000e+00,3.750000000000000000e+00
5.999999999999990064e-02,0.000000000000000000e+00,1.000000000000000000e+00,1.000000000000000000e+00,2.000000000000000000e+00,3.000000000000000000e+00,-2.000000000000000000e+01,1.400000000000000000e+01,0.000000000000000000e+00,2.866821289062500000e-01,6.926879882812500000e-01,-6.445922851562500000e-01,-1.500854492187500000e-01,-1.723632812500000000e-01,-9.980468750000000000e-01,-1.455078125000000000e-01,4.812500000000000000e+00,-4.375000000000000000e+00,3.750000000000000000e+00
6.499999999999990508e-02,0.000000000000000000e+00,1.000000000000000000e+00,1.000000000000000000e+00,2.000000000000000000e+00,3.000000000000000000e+00,-2.000000000000000000e+01,1.400000000000000000e+01,0.000000000000000000e+00,2.866821289062500000e-01,6.926879882812500000e-01,-6.445922851562500000e-01,-1.500854492187500000e-01,-1.723632812500000000e-01,-9.980468750000000000e-01,-1.455078125000000000e-01,4.812500000000000000e+00,-4.375000000000000000e+00,3.750000000000000000e+00
6.999999999999989564e-02,0.000000000000000000e+00,1.000000000000000000e+00,1.000000000000000000e+00,2.000000000000000000e+00,3.000000000000000000e+00,-2.000000000000000000e+01,1.400000000000000000e+01,0.000000000000000000e+00,2.863769531250000000e-01,6.920776367187500000e-01,-6.455688476562500000e-01,-1.493530273437500000e-01,-1.708984375000000000e-01,-9.873046875000000000e-01,-1.293945312500000000e-01,5.375000000000000000e+00,-5.187500000000000000e+00,2.750000000000000000e+00
7.499999999999999722e-02,0.000000000000000000e+00,1.000000000000000000e+00,1.000000000000000000e+00,2.000000000000000000e+00,3.000000000000000000e+00,-2.000000000000000000e+01,1.400000000000000000e+01,0.000000000000000000e+00,2.863769531250000000e-01,6.920776367187500000e-01,-6.455688476562500000e-01,-1.493530273437500000e-01,-1.708984375000000000e-01,-9.873046875000000000e-01,-1.293945312500000000e-01,5.375000000000000000e+00,-5.187500000000000000e+00,2.750000000000000000e+00
8.000000000000000167e-02,0.000000000000000000e+00,0.000000000000000000e+00,4.000000000000000000e+00,2.000000000000000000e+00,1.000000000000000000e+00,-2.200000000000000000e+01,-1.000000000000000000e+00,-1.000000000000000000e+00,2.863769531250000000e-01,6.920776367187500000e-01,-6.455688476562500000e-01,-1.493530273437500000e-01,-1.708984375000000000e-01,-9.873046875000000000e-01,-1.293945312500000000e-01,5.375000000000000000e+00,-5.187500000000000000e+00,2.750000000000000000e+00
8.500000000000000611e-02,0.000000000000000000e+00,0.000000000000000000e+00,4.000000000000000000e+00,2.000000000000000000e+00,1.000000000000000000e+00,-2.200000000000000000e+01,-1.000000000000000000e+00,-1.000000000000000000e+00,2.863769531250000000e-01,6.920776367187500000e-01,-6.455688476562500000e-01,-1.493530273437500000e-01,-1.708984375000000000e-01,-9.873046875000000000e-01,-1.293945312500000000e-01,5.375000000000000000e+00,-5.187500000000000000e+00,2.750000000000000000e+00
8.999999999999999667e-02,0.000000000000000000e+00,0.000000000000000000e+00,-2.000000000000000000e+00,-2.000000000000000000e+00,-5.000000000000000000e+00,0.000000000000000000e+00,-5.000000000000000000e+00,-3.000000000000000000e+00,2.863769531250000000e-01,6.920776367187500000e-01,-6.455688476562500000e-01,-1.493530273437500000e-01,-1.708984375000000000e-01,-9.873046875000000000e-01,-1.293945312500000000e-01,5.375000000000000000e+00,-5.187500000000000000e+00,2.750000000000000000e+00
9.500000000000000111e-02,0.000000000000000000e+00,0.000000000000000000e+00,-2.000000000000000000e+00,-2.000000000000000000e+00,-5.000000000000000000e+00,0.000000000000000000e+00,-5.000000000000000000e+00,-3.000000000000000000e+00,2.863769531250000000e-01,6.920776367187500000e-01,-6.455688476562500000e-01,-1.493530273437500000e-01,-1.708984375000000000e-01,-9.873046875000000000e-01,-1.293945312500000000e-01,5.375000000000000000e+00,-5.187500000000000000e+00,2.750000000000000000e+00
1.000000000000000056e-01,0.000000000000000000e+00,0.000000000000000000e+00,-2.000000000000000000e+00,-2.000000000000000000e+00,-5.000000000000000000e+00,0.000000000000000000e+00,-5.000000000000000000e+00,-3.000000000000000000e+00,2.858886718750000000e-01,6.917114257812500000e-01,-6.463623046875000000e-01,-1.483764648437500000e-01,-1.762695312500000000e-01,-9.794921875000000000e-01,-1.269531250000000000e-01,3.937500000000000000e+00,-6.562500000000000000e+00,2.125000000000000000e+00
1.049999999999999961e-01,0.000000000000000000e+00,0.000000000000000000e+00,-2.000000000000000000e+00,-2.000000000000000000e+00,-5.000000000000000000e+00,0.000000000000000000e+00,-5.000000000000000000e+00,-3.000000000000000000e+00,2.858886718750000000e-01,6.917114257812500000e-01,-6.463623046875000000e-01,-1.483764648437500000e-01,-1.762695312500000000e-01,-9.794921875000000000e-01,-1.269531250000000000e-01,3.937500000000000000e+00,-6.562500000000000000e+00,2.125000000000000000e+00
1.100000000000000006e-01,0.000000000000000000e+00,0.000000000000000000e+00,-1.000000000000000000e+00,-1.000000000000000000e+00,-5.000000000000000000e+00,3.000000000000000000e+00,-4.000000000000000000e+00,-2.000000000000000000e+00,2.858886718750000000e-01,6.917114257812500000e-01,-6.463623046875000000e-01,-1.483764648437500000e-01,-1.762695312500000000e-01,-9.794921875000000000e-01,-1.269531250000000000e-01,3.937500000000000000e+00,-6.562500000000000000e+00,2.125000000000000000e+00
1.150000000000000050e-01,0.000000000000000000e+00,0.000000000000000000e+00,-1.000000000000000000e+00,-1.000000000000000000e+00,-5.000000000000000000e+00,3.000000000000000000e+00,-4.000000000000000000e+00,-2.000000000000000000e+00,2.858886718750000000e-01,6.917114257812500000e-01,-6.463623046875000000e-01,-1.483764648437500000e-01,-1.762695312500000000e-01,-9.794921875000000000e-01,-1.269531250000000000e-01,3.937500000000000000e+00,-6.562500000000000000e+00,2.125000000000000000e+00
1.199999999999999956e-01,0.000000000000000000e+00,0.000000000000000000e+00,-1.000000000000000000e+00,-1.000000000000000000e+00,-5.000000000000000000e+00,3.000000000000000000e+00,-4.000000000000000000e+00,-2.000000000000000000e+00,2.858886718750000000e-01,6.917114257812500000e-01,-6.463623046875000000e-01,-1.483764648437500000e-01,-1.762695312500000000e-01,-9.794921875000000000e-01,-1.269531250000000000e-01,3.937500000000000000e+00,-6.562500000000000000e+00,2.125000000000000000e+00
1.250000000000000000e-01,0.000000000000000000e+00,0.000000000000000000e+00,-1.000000000000000000e+00,-1.000000000000000000e+00,-5.000000000000000000e+00,3.000000000000000000e+00,-4.000000000000000000e+00,-2.000000000000000000e+00,2.858886718750000000e-01,6.917114257812500000e-01,-6.463623046875000000e-01,-1.483764648437500000e-01,-1.762695312500000000e-01,-9.794921875000000000e-01,-1.269531250000000000e-01,3.937500000000000000e+00,-6.562500000000000000e+00,2.125000000000000000e+00
1.300000000000000044e-01,-1.000000000000000000e+00,-1.000000000000000000e+00,-1.000000000000000000e+00,-1.000000000000000000e+00,-1.000000000000000000e+00,1.700000000000000000e+01,1.000000000000000000e+01,2.000000000000000000e+00,2.852172851562500000e-01,6.912841796875000000e-01,-6.473388671875000000e-01,-1.473999023437500000e-01,-1.743164062500000000e-01,-9.985351562500000000e-01,-1.284179687500000000e-01,4.687500000000000000e+00,-7.875000000000000000e+00,2.125000000000000000e+00
1.350000000000000089e-01,-1.000000000000000000e+00,-1.000000000000000000e+00,-1.000000000000000000e+00,-1.000000000000000000e+00,-1.000000000000000000e+00,1.700000000000000000e+01,1.000000000000000000e+01,2.000000000000000000e+00,2.852172851562500000e-01,6.912841796875000000e-01,-6.473388671875000000e-01,-1.473999023437500000e-01,-1.743164062500000000e-01,-9.985351562500000000e-01,-1.284179687500000000e-01,4.687500000000000000e+00,-7.875000000000000000e+00,2.125000000000000000e+00
1.400000000000000133e-01,-2.000000000000000000e+00,-1.000000000000000000e+00,-2.000000000000000000e+00,0.000000000000000000e+00,3.000000000000000000e+00,1.500000000000000000e+01,-2.000000000000000000e+00,0.000000000000000000e+00,2.852172851562500000e-01,6.912841796875000000e-01,-6.473388671875000000e-01,-1.473999023437500000e-01,-1.743164062500000000e-01,-9.985351562500000000e-01,-1.284179687500000000e-01,4.687500000000000000e+00,-7.875000000000000000e+00,2.125000000000000000e+00
1.449999999999999900e-01,-2.000000000000000000e+00,-1.000000000000000000e+00,-2.000000000000000000e+00,0.000000000000000000e+00,3.000000000000000000e+00,1.500000000000000000e+01,-2.000000000000000000e+00,0.000000000000000000e+00,2.842407226562500000e-01,6.910400390625000000e-01,-6.482543945312500000e-01,-1.464233398437500000e-01,-1.723632812500000000e-01,-9.985351562500000000e-01,-1.318359375000000000e-01,4.812500000000000000e+00,-8.812500000000000000e+00,6.875000000000000000e-01
1.499999999999999944e-01,-2.000000000000000000e+00,-1.000000000000000000e+00,-2.000000000000000000e+00,0.000000000000000000e+00,3.000000000000000000e+00,1.500000000000000000e+01,-2.000000000000000000e+00,0.000000000000000000e+00,2.842407226562500000e-01,6.910400390625000000e-01,-6.482543945312500000e-01,-1.464233398437500000e-01,-1.723632812500000000e-01,-9.985351562500000000e-01,-1.318359375000000000e-01,4.812500000000000000e+00,-8.812500000000000000e+00,6.875000000000000000e-01
1.549999999999999989e-01,-3.000000000000000000e+00,-1.000000000000000000e+00,-4.000000000000000000e+00,-2.000000000000000000e+00,6.000000000000000000e+00,2.000000000000000000e+00,-4.000000000000000000e+00,-2.000000000000000000e+00,2.842407226562500000e-01,6.910400390625000000e-01,-6.482543945312500000e-01,-1.464233398437500000e-01,-1.723632812500000000e-01,-9.985351562500000000e-01,-1.318359375000000000e-01,4.812500000000000000e+00,-8.812500000000000000e+00,6.875000000000000000e-01
1.600000000000000033e-01,-3.000000000000000000e+00,-1.000000000000000000e+00,-4.000000000000000000e+00,-2.000000000000000000e+00,6.000000000000000000e+00,2.000000000000000000e+00,-4.000000000000000000e+00,-2.000000000000000000e+00,2.842407226562500000e-01,6.910400390625000000e-01,-6.482543945312500000e-01,-1.464233398437500000e-01,-1.723632812500000000e-01,-9.985351562500000000e-01,-1.318359375000000000e-01,4.812500000000000000e+00,-8.812500000000000000e+00,6.875000000000000000e-01
1.650000000000000078e-01,-3.000000000000000000e+00,-3.000000000000000000e+00,0.000000000000000000e+00,-2.000000000000000000e+00,-1.000000000000000000e+00,-4.000000000000000000e+00,-3.000000000000000000e+00,-1.000000000000000000e+00,2.842407226562500000e-01,6.910400390625000000e-01,-6.482543945312500000e-01,-1.464233398437500000e-01,-1.723632812500000000e-01,-9.985351562500000000e-01,-1.318359375000000000e-01,4.812500000000000000e+00,-8.812500000000000000e+00,6.875000000000000000e-01
1.700000000000000122e-01,-3.000000000000000000e+00,-3.000000000000000000e+00,0.000000000000000000e+00,-2.000000000000000000e+00,-1.000000000000000000e+00,-4.000000000000000000e+00,-3.000000000000000000e+00,-1.000000000000000000e+00,2.842407226562500000e-01,6.910400390625000000e-01,-6.482543945312500000e-01,-1.464233398437500000e-01,-1.723632812500000000e-01,-9.985351562500000000e-01,-1.318359375000000000e-01,4.812500000000000000e+00,-8.812500000000000000e+00,6.875000000000000000e-01
1.749999999999999889e-01,-3.000000000000000000e+00,-3.000000000000000000e+00,0.000000000000000000e+00,-2.000000000000000000e+00,-1.000000000000000000e+00,-4.000000000000000000e+00,-3.000000000000000000e+00,-1.000000000000000000e+00,2.830810546875000000e-01,6.906127929687500000e-01,-6.493530273437500000e-01,-1.458129882812500000e-01,-1.660156250000000000e-01,-9.946289062500000000e-01,-1.362304687500000000e-01,7.125000000000000000e+00,-8.312500000000000000e+00,-4.375000000000000000e-01
1.799999999999999933e-01,-3.000000000000000000e+00,-3.000000000000000000e+00,0.000000000000000000e+00,-2.000000000000000000e+00,-1.000000000000000000e+00,-4.000000000000000000e+00,-3.000000000000000000e+00,-1.000000000000000000e+00,2.830810546875000000e-01,6.906127929687500000e-01,-6.493530273437500000e-01,-1.458129882812500000e-01,-1.660156250000000000e-01,-9.946289062500000000e-01,-1.362304687500000000e-01,7.125000000000000000e+00,-8.312500000000000000e+00,-4.375000000000000000e-01
1.849999999999999978e-01,-3.000000000000000000e+00,-3.000000000000000000e+00,0.000000000000000000e+00,-2.000000000000000000e+00,-1.000000000000000000e+00,-4.000000000000000000e+00,-3.000000000000000000e+00,-1.000000000000000000e+00,2.830810546875000000e-01,6.906127929687500000e-01,-6.493530273437500000e-01,-1.458129882812500000e-01,-1.660156250000000000e-01,-9.946289062500000000e-01,-1.362304687500000000e-01,7.125000000000000000e+00,-8.312500000000000000e+00,-4.375000000000000000e-01
1.900000000000000022e-01,-1.000000000000000000e+00,-1.000000000000000000e+00,1.000000000000000000e+00,0.000000000000000000e+00,1.000000000000000000e+00,-2.300000000000000000e+01,-1.000000000000000000e+00,0.000000000000000000e+00,2.830810546875000000e-01,6.906127929687500000e-01,-6.493530273437500000e-01,-1.458129882812500000e-01,-1.660156250000000000e-01,-9.946289062500000000e-01,-1.362304687500000000e-01,7.125000000000000000e+00,-8.312500000000000000e+00,-4.375000000000000000e-01
1.950000000000000899e-01,-1.000000000000000000e+00,-1.000000000000000000e+00,1.000000000000000000e+00,0.000000000000000000e+00,1.000000000000000000e+00,-2.300000000000000000e+01,-1.000000000000000000e+00,0.000000000000000000e+00,2.830810546875000000e-01,6.906127929687500000e-01,-6.493530273437500000e-01,-1.458129882812500000e-01,-1.660156250000000000e-01,-9.946289062500000000e-01,-1.362304687500000000e-01,7.125000000000000000e+00,-8.312500000000000000e+00,-4.375000000000000000e-01
2.000000000000000944e-01,-1.000000000000000000e+00,0.000000000000000000e+00,-1.000000000000000000e+00,-4.000000000000000000e+00,-5.000000000000000000e+00,-3.000000000000000000e+00,-3.000000000000000000e+00,-2.000000000000000000e+00,2.819213867187500000e-01,6.898193359375000000e-01,-6.508178710937500000e-01,-1.453857421875000000e-01,-1.738281250000000000e-01,-9.926757812500000000e-01,-1.186523437500000000e-01,9.250000000000000000e+00,-7.937500000000000000e+00,-8.750000000000000000e-01
2.050000000000000988e-01,-1.000000000000000000e+00,0.000000000000000000e+00,-1.000000000000000000e+00,-4.000000000000000000e+00,-5.000000000000000000e+00,-3.000000000000000000e+00,-3.000000000000000000e+00,-2.000000000000000000e+00,2.819213867187500000e-01,6.898193359375000000e-01,-6.508178710937500000e-01,-1.453857421875000000e-01,-1.738281250000000000e-01,-9.926757812500000000e-01,-1.186523437500000000e-01,9.250000000000000000e+00,-7.937500000000000000e+00,-8.750000000000000000e-01
2.100000000000001033e-01,-1.000000000000000000e+00,0.000000000000000000e+00,-2.000000000000000000e+00,1.000000000000000000e+00,9.000000000000000000e+00,7.000000000000000000e+00,3.000000000000000000e+00,0.000000000000000000e+00,2.819213867187500000e-01,6.898193359375000000e-01,-6.508178710937500000e-01,-1.453857421875000000e-01,-1.738281250000000000e-01,-9.926757812500000000e-01,-1.186523437500000000e-01,9.250000000000000000e+00,-7.937500000000000000e+00,-8.750000000000000000e-01
2.150000000000001077e-01,0.000000000000000000e+00,-2.000000000000000000e+00,1.000000000000000000e+00,-1.000000000000000000e+00,-5.000000000000000000e+00,-1.000000000000000000e+00,-1.000000000000000000e+00,1.000000000000000000e+00,2.807006835937500000e-01,6.892700195312500000e-01,-6.520385742187500000e-01,-1.447753906250000000e-01,-1.791992187500000000e-01,-9.941406250000000000e-01,-1.181640625000000000e-01,7.375000000000000000e+00,-8.500000000000000000e+00,-1.500000000000000000e+00
2.200000000000001121e-01,0.000000000000000000e+00,-2.000000000000000000e+00,1.000000000000000000e+00,-1.000000000000000000e+00,-5.000000000000000000e+00,-1.000000000000000000e+00,-1.000000000000000000e+00,1.000000000000000000e+00,2.807006835937500000e-01,6.892700195312500000e-01,-6.520385742187500000e-01,-1.447753906250000000e-01,-1.791992187500000000e-01,-9.941406250000000000e-01,-1.181640625000000000e-01,7.375000000000000000e+00,-8.500000000000000000e+00,-1.500000000000000000e+00
2.250000000000000888e-01,-1.000000000000000000e+00,-3.000000000000000000e+00,-3.000000000000000000e+00,-2.000000000000000000e+00,-5.000000000000000000e+00,1.600000000000000000e+01,-1.000000000000000000e+01,-3.000000000000000000e+00,2.807006835937500000e-01,6.892700195312500000e-01,-6.520385742187500000e-01,-1.447753906250000000e-01,-1.791992187500000000e-01,-9.941406250000000000e-01,-1.181640625000000000e-01,7.375000000000000000e+00,-8.500000000000000000e+00,-1.500000000000000000e+00
2.300000000000000933e-01,-1.000000000000000000e+00,-3.000000000000000000e+00,-3.000000000000000000e+00,-2.000000000000000000e+00,-5.000000000000000000e+00,1.600000000000000000e+01,-1.000000000000000000e+01,-3.000000000000000000e+00,2.807006835937500000e-01,6.892700195312500000e-01,-6.520385742187500000e-01,-1.447753906250000000e-01,-1.791992187500000000e-01,-9.941406250000000000e-01,-1.181640625000000000e-01,7.375000000000000000e+00,-8.500000000000000000e+00,-1.500000000000000000e+00
2.350000000000000977e-01,-1.000000000000000000e+00,-1.000000000000000000e+00,-1.000000000000000000e+00,0.000000000000000000e+00,5.000000000000000000e+00,1.400000000000000000e+01,6.000000000000000000e+00,0.000000000000000000e+00,2.807006835937500000e-01,6.892700195312500000e-01,-6.520385742187500000e-01,-1.447753906250000000e-01,-1.791992187500000000e-01,-9.941406250000000000e-01,-1.181640625000000000e-01,7.375000000000000000e+00,-8.500000000000000000e+00,-1.500000000000000000e+00
2.400000000000001021e-01,-1.000000000000000000e+00,-1.000000000000000000e+00,-1.000000000000000000e+00,0.000000000000000000e+00,5.000000000000000000e+00,1.400000000000000000e+01,6.000000000000000000e+00,0.000000000000000000e+00,2.807006835937500000e-01,6.892700195312500000e-01,-6.520385742187500000e-01,-1.447753906250000000e-01,-1.791992187500000000e-01,-9.941406250000000000e-01,-1.181640625000000000e-01,7.375000000000000000e+00,-8.500000000000000000e+00,-1.500000000000000000e+00
2.450000000000001066e-01,-1.000000000000000000e+00,-1.000000000000000000e+00,-1.000000000000000000e+00,0.000000000000000000e+00,5.000000000000000000e+00,1.400000000000000000e+01,6.000000000000000000e+00,0.000000000000000000e+00,2.794799804687500000e-01,6.890258789062500000e-01,-6.529541015625000000e-01,-1.441040039062500000e-01,-1.777343750000000000e-01,-9.936523437500000000e-01,-1.142578125000000000e-01,5.187500000000000000e+00,-8.437500000000000000e+00,-1.750000000000000000e+00
2.500000000000001110e-01,-1.000000000000000000e+00,-4.000000000000000000e+00,-4.000000000000000000e+00,-2.000000000000000000e+00,7.000000000000000000e+00,-2.600000000000000000e+01,-1.000000000000000000e+00,-3.000000000000000000e+00,2.794799804687500000e-01,6.890258789062500000e-01,-6.529541015625000000e-01,-1.441040039062500000e-01,-1.777343750000000000e-01,-9.936523437500000000e-01,-1.142578125000000000e-01,5.187500000000000000e+00,-8.437500000000000000e+00,-1.750000000000000000e+00
2.550000000000001155e-01,-1.000000000000000000e+00,-4.000000000000000000e+00,-4.000000000000000000e+00,-2.000000000000000000e+00,7.000000000000000000e+00,-2.600000000000000000e+01,-1.000000000000000000e+00,-3.000000000000000000e+00,2.794799804687500000e-01,6.890258789062500000e-01,-6.529541015625000000e-01,-1.441040039062500000e-01,-1.777343750000000000e-01,-9.936523437500000000e-01,-1.142578125000000000e-01,5.187500000000000000e+00,-8.437500000000000000e+00,-1.750000000000000000e+00
2.600000000000001199e-01,-1.000000000000000000e+00,-4.000000000000000000e+00,-4.000000000000000000e+00,-2.000000000000000000e+00,7.000000000000000000e+00,-2.600000000000000000e+01,-1.000000000000000000e+00,-3.000000000000000000e+00,2.794799804687500000e-01,6.890258789062500000e-01,-6.529541015625000000e-01,-1.441040039062500000e-01,-1.777343750000000000e-01,-9.936523437500000000e-01,-1.142578125000000000e-01,5.187500000000000000e+00,-8.437500000000000000e+00,-1.750000000000000000e+00
2.650000000000001243e-01,-1.000000000000000000e+00,-4.000000000000000000e+00,-4.000000000000000000e+00,-2.000000000000000000e+00,7.000000000000000000e+00,-2.600000000000000000e+01,-1.000000000000000000e+00,-3.000000000000000000e+00,2.794799804687500000e-01,6.890258789062500000e-01,-6.529541015625000000e-01,-1.441040039062500000e-01,-1.777343750000000000e-01,-9.936523437500000000e-01,-1.142578125000000000e-01,5.187500000000000000e+00,-8.437500000000000000e+00,-1.750000000000000000e+00
2.700000000000000733e-01,1.000000000000000000e+00,1.000000000000000000e+00,-1.000000000000000000e+00,3.000000000000000000e+00,3.000000000000000000e+00,1.000000000000000000e+00,2.000000000000000000e+00,1.000000000000000000e+00,2.783203125000000000e-01,6.885375976562500000e-01,-6.540527343750000000e-01,-1.436157226562500000e-01,-1.772460937500000000e-01,-1.004394531250000000e+00,-1.000976562500000000e-01,5.750000000000000000e+00,-7.750000000000000000e+00,-1.625000000000000000e+00
2.750000000000000777e-01,-1.000000000000000000e+00,-1.000000000000000000e+00,0.000000000000000000e+00,-1.000000000000000000e+00,-8.000000000000000000e+00,-3.000000000000000000e+00,-2.000000000000000000e+00,-1.000000000000000000e+00,2.783203125000000000e-01,6.885375976562500000e-01,-6.540527343750000000e-01,-1.436157226562500000e-01,-1.772460937500000000e-01,-1.004394531250000000e+00,-1.000976562500000000e-01,5.750000000000000000e+00,-7.750000000000000000e+00,-1.625000000000000000e+00
2.800000000000000822e-01,-1.000000000000000000e+00,-1.000000000000000000e+00,0.000000000000000000e+00,-1.000000000000000000e+00,-8.000000000000000000e+00,-3.000000000000000000e+00,-2.000000000000000000e+00,-1.000000000000000000e+00,2.770996093750000000e-01,6.881103515625000000e-01,-6.551513671875000000e-01,-1.431274414062500000e-01,-1.777343750000000000e-01,-1.003906250000000000e+00,-1.015625000000000000e-01,6.125000000000000000e+00,-7.562500000000000000e+00,-1.750000000000000000e+00
2.850000000000000866e-01,-1.000000000000000000e+00,-1.000000000000000000e+00,0.000000000000000000e+00,-1.000000000000000000e+00,-8.000000000000000000e+00,-3.000000000000000000e+00,-2.000000000000000000e+00,-1.000000000000000000e+00,2.770996093750000000e-01,6.881103515625000000e-01,-6.551513671875000000e-01,-1.431274414062500000e-01,-1.777343750000000000e-01,-1.003906250000000000e+00,-1.015625000000000000e-01,6.125000000000000000e+00,-7.562500000000000000e+00,-1.750000000000000000e+00
2.900000000000000910e-01,-3.000000000000000000e+00,-3.000000000000000000e+00,-5.000000000000000000e+00,-5.000000000000000000e+00,0.000000000000000000e+00,-8.000000000000000000e+00,-5.000000000000000000e+00,-3.000000000000000000e+00,2.770996093750000000e-01,6.881103515625000000e-01,-6.551513671875000000e-01,-1.431274414062500000e-01,-1.777343750000000000e-01,-1.003906250000000000e+00,-1.015625000000000000e-01,6.125000000000000000e+00,-7.562500000000000000e+00,-1.750000000000000000e+00
2.950000000000000955e-01,0.000000000000000000e+00,1.000000000000000000e+00,1.000000000000000000e+00,4.000000000000000000e+00,0.000000000000000000e+00,7.000000000000000000e+00,-6.000000000000000000e+00,-1.000000000000000000e+00,2.770996093750000000e-01,6.881103515625000000e-01,-6.551513671875000000e-01,-1.431274414062500000e-01,-1.777343750000000000e-01,-1.003906250000000000e+00,-1.015625000000000000e-01,6.125000000000000000e+00,-7.562500000000000000e+00,-1.750000000000000000e+00
3.000000000000000999e-01,0.000000000000000000e+00,1.000000000000000000e+00,1.000000000000000000e+00,4.000000000000000000e+00,0.000000000000000000e+00,7.000000000000000000e+00,-6.000000000000000000e+00,-1.000000000000000000e+00,2.760009765625000000e-01,6.878662109375000000e-01,-6.559448242187500000e-01,-1.427001953125000000e-01,-1.689453125000000000e-01,-1.005371093750000000e+00,-1.035156250000000000e-01,4.250000000000000000e+00,-7.187500000000000000e+00,-1.625000000000000000e+00
3.050000000000001044e-01,0.000000000000000000e+00,1.000000000000000000e+00,1.000000000000000000e+00,4.000000000000000000e+00,0.000000000000000000e+00,7.000000000000000000e+00,-6.000000000000000000e+00,-1.000000000000000000e+00,2.760009765625000000e-01,6.878662109375000000e-01,-6.559448242187500000e-01,-1.427001953125000000e-01,-1.689453125000000000e-01,-1.005371093750000000e+00,-1.035156250000000000e-01,4.250000000000000000e+00,-7.187500000000000000e+00,-1.625000000000000000e+00
3.100000000000001088e-01,-2.000000000000000000e+00,-1.000000000000000000e+00,0.000000000000000000e+00,-1.000000000000000000e+00,1.000000000000000000e+00,2.000000000000000000e+00,4.000000000000000000e+00,0.000000000000000000e+00,2.760009765625000000e-01,6.878662109375000000e-01,-6.559448242187500000e-01,-1.427001953125000000e-01,-1.689453125000000000e-01,-1.005371093750000000e+00,-1.035156250000000000e-01,4.250000000000000000e+00,-7.187500000000000000e+00,-1.625000000000000000e+00
3.150000000000001132e-01,-2.000000000000000000e+00,-1.000000000000000000e+00,0.000000000000000000e+00,-1.000000000000000000e+00,1.000000000000000000e+00,2.000000000000000000e+00,4.000000000000000000e+00,0.000000000000000000e+00,2.760009765625000000e-01,6.878662109375000000e-01,-6.559448242187500000e-01,-1.427001953125000000e-01,-1.689453125000000000e-01,-1.005371093750000000e+00,-1.035156250000000000e-01,4.250000000000000000e+00,-7.187500000000000000e+00,-1.625000000000000000e+00
3.200000000000001732e-01,-2.000000000000000000e+00,-1.000000000000000000e+00,0.000000000000000000e+00,-1.000000000000000000e+00,1.000000000000000000e+00,2.000000000000000000e+00,4.000000000000000000e+00,0.000000000000000000e+00,2.760009765625000000e-01,6.878662109375000000e-01,-6.559448242187500000e-01,-1.427001953125000000e-01,-1.689453125000000000e-01,-1.005371093750000000e+00,-1.035156250000000000e-01,4.250000000000000000e+00,-7.187500000000000000e+00,-1.625000000000000000e+00
3.250000000000001776e-01,-2.000000000000000000e+00,-1.000000000000000000e+00,0.000000000000000000e+00,-1.000000000000000000e+00,1.000000000000000000e+00,2.000000000000000000e+00,4.000000000000000000e+00,0.000000000000000000e+00,2.760009765625000000e-01,6.878662109375000000e-01,-6.559448242187500000e-01,-1.427001953125000000e-01,-1.689453125000000000e-01,-1.005371093750000000e+00,-1.035156250000000000e-01,4.250000000000000000e+00,-7.187500000000000000e+00,-1.625000000000000000e+00
3.300000000000001821e-01,-2.000000000000000000e+00,-1.000000000000000000e+00,0.000000000000000000e+00,-1.000000000000000000e+00,1.000000000000000000e+00,2.000000000000000000e+00,4.000000000000000000e+00,0.000000000000000000e+00,2.760009765625000000e-01,6.878662109375000000e-01,-6.559448242187500000e-01,-1.427001953125000000e-01,-1.689453125000000000e-01,-1.005371093750000000e+00,-1.035156250000000000e-01,4.250000000000000000e+00,-7.187500000000000000e+00,-1.625000000000000000e+00
3.350000000000001865e-01,-2.000000000000000000e+00,-1.000000000000000000e+00,0.000000000000000000e+00,-1.000000000000000000e+00,1.000000000000000000e+00,2.000000000000000000e+00,4.000000000000000000e+00,0.000000000000000000e+00,2.750244140625000000e-01,6.878051757812500000e-01,-6.564941406250000000e-01,-1.423950195312500000e-01,-1.611328125000000000e-01,-1.005371093750000000e+00,-1.074218750000000000e-01,3.125000000000000000e+00,-5.812500000000000000e+00,-1.812500000000000000e+00
3.400000000000001910e-01,-1.000000000000000000e+00,-2.000000000000000000e+00,1.000000000000000000e+00,-3.000000000000000000e+00,-5.000000000000000000e+00,-2.100000000000000000e+01,2.000000000000000000e+00,0.000000000000000000e+00,2.750244140625000000e-01,6.878051757812500000e-01,-6.564941406250000000e-01,-1.423950195312500000e-01,-1.611328125000000000e-01,-1.005371093750000000e+00,-1.074218750000000000e-01,3.125000000000000000e+00,-5.812500000000000000e+00,-1.812500000000000000e+00
3.450000000000001954e-01,-1.000000000000000000e+00,-2.000000000000000000e+00,1.000000000000000000e+00,-3.000000000000000000e+00,-5.000000000000000000e+00,-2.100000000000000000e+01,2.000000000000000000e+00,0.000000000000000000e+00,2.750244140625000000e-01,6.878051757812500000e-01,-6.564941406250000000e-01,-1.423950195312500000e-01,-1.611328125000000000e-01,-1.005371093750000000e+00,-1.074218750000000000e-01,3.125000000000000000e+00,-5.812500000000000000e+00,-1.812500000000000000e+00
3.500000000000001998e-01,-1.000000000000000000e+00,-2.000000000000000000e+00,1.000000000000000000e+00,-3.000000000000000000e+00,-5.000000000000000000e+00,-2.100000000000000000e+01,2.000000000000000000e+00,0.000000000000000000e+00,2.740478515625000000e-01,6.875610351562500000e-01,-6.571655273437500000e-01,-1.423950195312500000e-01,-1.596679687500000000e-01,-1.001464843750000000e+00,-9.912109375000000000e-02,4.687500000000000000e+00,-4.562500000000000000e+00,-2.312500000000000000e+00
3.550000000000002043e-01,-2.000000000000000000e+00,-2.000000000000000000e+00,-2.000000000000000000e+00,-1.000000000000000000e+00,1.000000000000000000e+00,5.000000000000000000e+00,1.000000000000000000e+00,-1.000000000000000000e+00,2.740478515625000000e-01,6.875610351562500000e-01,-6.571655273437500000e-01,-1.423950195312500000e-01,-1.596679687500000000e-01,-1.001464843750000000e+00,-9.912109375000000000e-02,4.687500000000000000e+00,-4.562500000000000000e+00,-2.312500000000000000e+00
3.600000000000002087e-01,-1.000000000000000000e+00,-1.000000000000000000e+00,-1.000000000000000000e+00,-3.000000000000000000e+00,-5.000000000000000000e+00,1.200000000000000000e+01,-5.000000000000000000e+00,0.000000000000000000e+00,2.740478515625000000e-01,6.875610351562500000e-01,-6.571655273437500000e-01,-1.423950195312500000e-01,-1.596679687500000000e-01,-1.001464843750000000e+00,-9.912109375000000000e-02,4.687500000000000000e+00,-4.562500000000000000e+00,-2.312500000000000000e+00
3.650000000000002132e-01,-1.000000000000000000e+00,-1.000000000000000000e+00,-1.000000000000000000e+00,-3.000000000000000000e+00,-5.000000000000000000e+00,1.200000000000000000e+01,-5.000000000000000000e+00,0.000000000000000000e+00,2.740478515625000000e-01,6.875610351562500000e-01,-6.571655273437500000e-01,-1.423950195312500000e-01,-1.596679687500000000e-01,-1.001464843750000000e+00,-9.912109375000000000e-02,4.687500000000000000e+00,-4.562500000000000000e+00,-2.312500000000000000e+00
3.700000000000002176e-01,-1.000000000000000000e+00,-1.000000000000000000e+00,-1.000000000000000000e+00,-3.000000000000000000e+00,-5.000000000000000000e+00,1.200000000000000000e+01,-5.000000000000000000e+00,0.000000000000000000e+00,2.731933593750000000e-01,6.872558593750000000e-01,-6.578979492187500000e-01,-1.423339843750000000e-01,-1.679687500000000000e-01,-9.960937500000000000e-01,-9.326171875000000000e-02,4.187500000000000000e+00,-4.375000000000000000e+00,-2.125000000000000000e+00
3.750000000000002220e-01,-1.000000000000000000e+00,-1.000000000000000000e+00,-1.000000000000000000e+00,-3.000000000000000000e+00,-5.000000000000000000e+00,1.200000000000000000e+01,-5.000000000000000000e+00,0.000000000000000000e+00,2.731933593750000000e-01,6.872558593750000000e-01,-6.578979492187500000e-01,-1.423339843750000000e-01,-1.679687500000000000e-01,-9.960937500000000000e-01,-9.326171875000000000e-02,4.187500000000000000e+00,-4.375000000000000000e+00,-2.125000000000000000e+00
3.800000000000002265e-01,-2.000000000000000000e+00,-1.000000000000000000e+00,-7.000000000000000000e+00,-5.000000000000000000e+00,0.000000000000000000e+00,-1.300000000000000000e+01,-3.000000000000000000e+00,-2.000000000000000000e+00,2.731933593750000000e-01,6.872558593750000000e-01,-6.578979492187500000e-01,-1.423339843750000000e-01,-1.679687500000000000e-01,-9.960937500000000000e-01,-9.326171875000000000e-02,4.187500000000000000e+00,-4.375000000000000000e+00,-2.125000000000000000e+00
3.850000000000001754e-01,-2.000000000000000000e+00,-1.000000000000000000e+00,-7.000000000000000000e+00,-5.000000000000000000e+00,0.000000000000000000e+00,-1.300000000000000000e+01,-3.000000000000000000e+00,-2.000000000000000000e+00,2.731933593750000000e-01,6.872558593750000000e-01,-6.578979492187500000e-01,-1.423339843750000000e-01,-1.679687500000000000e-01,-9.960937500000000000e-01,-9.326171875000000000e-02,4.187500000000000000e+00,-4.375000000000000000e+00,-2.125000000000000000e+00
3.900000000000001799e-01,-2.000000000000000000e+00,-1.000000000000000000e+00,-7.000000000000000000e+00,-5.000000000000000000e+00,0.000000000000000000e+00,-1.300000000000000000e+01,-3.000000000000000000e+00,-2.000000000000000000e+00,2.731933593750000000e-01,6.872558593750000000e-01,-6.578979492187500000e-01,-1.423339843750000000e-01,-1.679687500000000000e-01,-9.960937500000000000e-01,-9.326171875000000000e-02,4.187500000000000000e+00,-4.375000000000000000e+00,-2.125000000000000000e+00
3.950000000000001843e-01,-2.000000000000000000e+00,-1.000000000000000000e+00,-7.000000000000000000e+00,-5.000000000000000000e+00,0.000000000000000000e+00,-1.300000000000000000e+01,-3.000000000000000000e+00,-2.000000000000000000e+00,2.731933593750000000e-01,6.872558593750000000e-01,-6.578979492187500000e-01,-1.423339843750000000e-01,-1.679687500000000000e-01,-9.960937500000000000e-01,-9.326171875000000000e-02,4.187500000000000000e+00,-4.375000000000000000e+00,-2.125000000000000000e+00
4.000000000000001887e-01,-2.000000000000000000e+00,-1.000000000000000000e+00,-7.000000000000000000e+00,-5.000000000000000000e+00,0.000000000000000000e+00,-1.300000000000000000e+01,-3.000000000000000000e+00,-2.000000000000000000e+00,2.723999023437500000e-01,6.871948242187500000e-01,-6.582641601562500000e-01,-1.420898437500000000e-01,-1.674804687500000000e-01,-9.951171875000000000e-01,-9.033203125000000000e-02,1.750000000000000000e+00,-4.375000000000000000e+00,-2.000000000000000000e+00
4.050000000000001932e-01,-1.000000000000000000e+00,0.000000000000000000e+00,0.000000000000000000e+00,0.000000000000000000e+00,-4.000000000000000000e+00,-3.000000000000000000e+00,-3.000000000000000000e+00,-4.000000000000000000e+00,2.723999023437500000e-01,6.871948242187500000e-01,-6.582641601562500000e-01,-1.420898437500000000e-01,-1.674804687500000000e-01,-9.951171875000000000e-01,-9.033203125000000000e-02,1.750000000000000000e+00,-4.375000000000000000e+00,-2.000000000000000000e+00
4.100000000000001976e-01,-1.000000000000000000e+00,0.000000000000000000e+00,0.000000000000000000e+00,0.000000000000000000e+00,-4.000000000000000000e+00,-3.000000000000000000e+00,-3.000000000000000000e+00,-4.000000000000000000e+00,2.716674804687500000e-01,6.870727539062500000e-01,-6.587524414062500000e-01,-1.420288085937500000e-01,-1.665039062500000000e-01,-1.001953125000000000e+00,-9.033203125000000000e-02,2.625000000000000000e+00,-3.687500000000000000e+00,-2.000000000000000000e+00
4.150000000000002021e-01,-1.000000000000000000e+00,0.000000000000000000e+00,0.000000000000000000e+00,0.000000000000000000e+00,-4.000000000000000000e+00,-3.000000000000000000e+00,-3.000000000000000000e+00,-4.000000000000000000e+00,2.716674804687500000e-01,6.870727539062500000e-01,-6.587524414062500000e-01,-1.420288085937500000e-01,-1.665039062500000000e-01,-1.001953125000000000e+00,-9.033203125000000000e-02,2.625000000000000000e+00,-3.687500000000000000e+00,-2.000000000000000000e+00
4.200000000000002065e-01,-1.000000000000000000e+00,0.000000000000000000e+00,0.000000000000000000e+00,0.000000000000000000e+00,-4.000000000000000000e+00,-3.000000000000000000e+00,-3.000000000000000000e+00,-4.000000000000000000e+00,2.716674804687500000e-01,6.870727539062500000e-01,-6.587524414062500000e-01,-1.420288085937500000e-01,-1.665039062500000000e-01,-1.001953125000000000e+00,-9.033203125000000000e-02,2.625000000000000000e+00,-3.687500000000000000e+00,-2.000000000000000000e+00
4.250000000000002109e-01,-1.000000000000000000e+00,-1.000000000000000000e+00,-5.000000000000000000e+00,-3.000000000000000000e+00,5.000000000000000000e+00,-1.500000000000000000e+01,-2.000000000000000000e+00,-4.000000000000000000e+00,2.716674804687500000e-01,6.870727539062500000e-01,-6.587524414062500000e-01,-1.420288085937500000e-01,-1.665039062500000000e-01,-1.001953125000000000e+00,-9.033203125000000000e-02,2.625000000000000000e+00,-3.687500000000000000e+00,-2.000000000000000000e+00
4.300000000000002154e-01,-1.000000000000000000e+00,-1.000000000000000000e+00,-5.000000000000000000e+00,-3.000000000000000000e+00,5.000000000000000000e+00,-1.500000000000000000e+01,-2.000000000000000000e+00,-4.000000000000000000e+00,2.716674804687500000e-01,6.870727539062500000e-01,-6.587524414062500000e-01,-1.420288085937500000e-01,-1.665039062500000000e-01,-1.001953125000000000e+00,-9.033203125000000000e-02,2.625000000000000000e+00,-3.687500000000000000e+00,-2.000000000000000000e+00
4.350000000000002753e-01,0.000000000000000000e+00,-1.000000000000000000e+00,4.000000000000000000e+00,3.000000000000000000e+00,-4.000000000000000000e+00,1.000000000000000000e+01,-4.000000000000000000e+00,3.000000000000000000e+00,2.716674804687500000e-01,6.870727539062500000e-01,-6.587524414062500000e-01,-1.420288085937500000e-01,-1.665039062500000000e-01,-1.001953125000000000e+00,-9.033203125000000000e-02,2.625000000000000000e+00,-3.687500000000000000e+00,-2.000000000000000000e+00
4.400000000000002798e-01,0.000000000000000000e+00,-1.000000000000000000e+00,4.000000000000000000e+00,3.000000000000000000e+00,-4.000000000000000000e+00,1.000000000000000000e+01,-4.000000000000000000e+00,3.000000000000000000e+00,2.709960937500000000e-01,6.867065429687500000e-01,-6.593627929687500000e-01,-1.420288085937500000e-01,-1.660156250000000000e-01,-1.001464843750000000e+00,-9.277343750000000000e-02,4.187500000000000000e+00,-3.187500000000000000e+00,-1.750000000000000000e+00
4.450000000000002842e-01,0.000000000000000000e+00,-1.000000000000000000e+00,4.000000000000000000e+00,3.000000000000000000e+00,-4.000000000000000000e+00,1.000000000000000000e+01,-4.000000000000000000e+00,3.000000000000000000e+00,2.709960937500000000e-01,6.867065429687500000e-01,-6.593627929687500000e-01,-1.420288085937500000e-01,-1.660156250000000000e-01,-1.001464843750000000e+00,-9.277343750000000000e-02,4.187500000000000000e+00,-3.187500000000000000e+00,-1.750000000000000000e+00
4.500000000000002887e-01,1.000000000000000000e+00,-1.000000000000000000e+00,0.000000000000000000e+00,1.000000000000000000e+00,2.000000000000000000e+00,1.000000000000000000e+01,1.000000000000000000e+00,-2.000000000000000000e+00,2.709960937500000000e-01,6.867065429687500000e-01,-6.593627929687500000e-01,-1.420288085937500000e-01,-1.660156250000000000e-01,-1.001464843750000000e+00,-9.277343750000000000e-02,4.187500000000000000e+00,-3.187500000000000000e+00,-1.750000000000000000e+00
4.550000000000002931e-01,1.000000000000000000e+00,-1.000000000000000000e+00,0.000000000000000000e+00,1.000000000000000000e+00,2.000000000000000000e+00,1.000000000000000000e+01,1.000000000000000000e+00,-2.000000000000000000e+00,2.709960937500000000e-01,6.867065429687500000e-01,-6.593627929687500000e-01,-1.420288085937500000e-01,-1.660156250000000000e-01,-1.001464843750000000e+00,-9.277343750000000000e-02,4.187500000000000000e+00,-3.187500000000000000e+00,-1.750000000000000000e+00
4.600000000000002975e-01,-1.000000000000000000e+00,-1.000000000000000000e+00,-2.000000000000000000e+00,-2.000000000000000000e+00,-1.000000000000000000e+00,-2.600000000000000000e+01,-2.000000000000000000e+00,-1.000000000000000000e+00,2.705078125000000000e-01,6.864013671875000000e-01,-6.599121093750000000e-01,-1.420898437500000000e-01,-1.679687500000000000e-01,-9.960937500000000000e-01,-8.789062500000000000e-02,3.437500000000000000e+00,-2.437500000000000000e+00,-1.437500000000000000e+00
4.650000000000003020e-01,-1.000000000000000000e+00,-1.000000000000000000e+00,-2.000000000000000000e+00,-2.000000000000000000e+00,-1.000000000000000000e+00,-2.600000000000000000e+01,-2.000000000000000000e+00,-1.000000000000000000e+00,2.705078125000000000e-01,6.864013671875000000e-01,-6.599121093750000000e-01,-1.420898437500000000e-01,-1.679687500000000000e-01,-9.960937500000000000e-01,-8.789062500000000000e-02,3.437500000000000000e+00,-2.437500000000000000e+00,-1.437500000000000000e+00
4.700000000000003064e-01,-2.000000000000000000e+00,-2.000000000000000000e+00,-2.000000000000000000e+00,-1.000000000000000000e+00,5.000000000000000000e+00,0.000000000000000000e+00,4.000000000000000000e+00,0.000000000000000000e+00,2.705078125000000000e-01,6.864013671875000000e-01,-6.599121093750000000e-01,-1.420898437500000000e-01,-1.679687500000000000e-01,-9.960937500000000000e-01,-8.789062500000000000e-02,3.437500000000000000e+00,-2.437500000000000000e+00,-1.437500000000000000e+00
4.750000000000003109e-01,-2.000000000000000000e+00,-2.000000000000000000e+00,-2.000000000000000000e+00,-1.000000000000000000e+00,5.000000000000000000e+00,0.000000000000000000e+00,4.000000000000000000e+00,0.000000000000000000e+00,2.705078125000000000e-01,6.864013671875000000e-01,-6.599121093750000000e-01,-1.420898437500000000e-01,-1.679687500000000000e-01,-9.960937500000000000e-01,-8.789062500000000000e-02,3.437500000000000000e+00,-2.437500000000000000e+00,-1.437500000000000000e+00
4.800000000000003153e-01,-2.000000000000000000e+00,-2.000000000000000000e+00,-2.000000000000000000e+00,-1.000000000000000000e+00,5.000000000000000000e+00,0.000000000000000000e+00,4.000000000000000000e+00,0.000000000000000000e+00,2.700805664062500000e-01,6.861572265625000000e-01,-6.603393554687500000e-01,-1.420288085937500000e-01,-1.669921875000000000e-01,-1.005859375000000000e+00,-8.349609375000000000e-02,2.500000000000000000e+00,-2.125000000000000000e+00,-1.062500000000000000e+00
4.850000000000003197e-01,-2.000000000000000000e+00,-2.000000000000000000e+00,-2.000000000000000000e+00,-1.000000000000000000e+00,5.000000000000000000e+00,0.000000000000000000e+00,4.000000000000000000e+00,0.000000000000000000e+00,2.700805664062500000e-01,6.861572265625000000e-01,-6.603393554687500000e-01,-1.420288085937500000e-01,-1.669921875000000000e-01,-1.005859375000000000e+00,-8.349609375000000000e-02,2.500000000000000000e+00,-2.125000000000000000e+00,-1.062500000000000000e+00
4.900000000000003242e-01,-1.000000000000000000e+00,0.000000000000000000e+00,0.000000000000000000e+00,-1.000000000000000000e+00,-5.000000000000000000e+00,6.000000000000000000e+00,1.000000000000000000e+00,1.000000000000000000e+00,2.700805664062500000e-01,6.861572265625000000e-01,-6.603393554687500000e-01,-1.420288085937500000e-01,-1.669921875000000000e-01,-1.005859375000000000e+00,-8.349609375000000000e-02,2.500000000000000000e+00,-2.125000000000000000e+00,-1.062500000000000000e+00
4.950000000000002731e-01,-3.000000000000000000e+00,-4.000000000000000000e+00,-2.000000000000000000e+00,-1.000000000000000000e+00,-2.000000000000000000e+00,3.000000000000000000e+00,-1.000000000000000000e+00,-2.000000000000000000e+00,2.700805664062500000e-01,6.861572265625000000e-01,-6.603393554687500000e-01,-1.420288085937500000e-01,-1.669921875000000000e-01,-1.005859375000000000e+00,-8.349609375000000000e-02,2.500000000000000000e+00,-2.125000000000000000e+00,-1.062500000000000000e+00
5.000000000000003331e-01,-3.000000000000000000e+00,-4.000000000000000000e+00,-2.000000000000000000e+00,-1.000000000000000000e+00,-2.000000000000000000e+00,3.000000000000000000e+00,-1.000000000000000000e+00,-2.000000000000000000e+00,2.700805664062500000e-01,6.861572265625000000e-01,-6.603393554687500000e-01,-1.420288085937500000e-01,-1.669921875000000000e-01,-1.005859375000000000e+00,-8.349609375000000000e-02,2.500000000000000000e+00,-2.125000000000000000e+00,-1.062500000000000000e+00
5.050000000000003375e-01,-3.000000000000000000e+00,-4.000000000000000000e+00,-2.000000000000000000e+00,-1.000000000000000000e+00,-2.000000000000000000e+00,3.000000000000000000e+00,-1.000000000000000000e+00,-2.000000000000000000e+00,2.700805664062500000e-01,6.861572265625000000e-01,-6.603393554687500000e-01,-1.420288085937500000e-01,-1.669921875000000000e-01,-1.005859375000000000e+00,-8.349609375000000000e-02,2.500000000000000000e+00,-2.125000000000000000e+00,-1.062500000000000000e+00
5.100000000000003419e-01,-3.000000000000000000e+00,-4.000000000000000000e+00,-2.000000000000000000e+00,-1.000000000000000000e+00,-2.000000000000000000e+00,3.000000000000000000e+00,-1.000000000000000000e+00,-2.000000000000000000e+00,2.697143554687500000e-01,6.859741210937500000e-01,-6.607055664062500000e-01,-1.420898437500000000e-01,-1.684570312500000000e-01,-1.000976562500000000e+00,-7.910156250000000000e-02,1.937500000000000000e+00,-1.437500000000000000e+00,-1.125000000000000000e+00
5.150000000000003464e-01,-3.000000000000000000e+00,-4.000000000000000000e+00,-2.000000000000000000e+00,-1.000000000000000000e+00,-2.000000000000000000e+00,3.000000000000000000e+00,-1.000000000000000000e+00,-2.000000000000000000e+00,2.697143554687500000e-01,6.859741210937500000e-01,-6.607055664062500000e-01,-1.420898437500000000e-01,-1.684570312500000000e-01,-1.000976562500000000e+00,-7.910156250000000000e-02,1.937500000000000000e+00,-1.437500000000000000e+00,-1.125000000000000000e+00
5.200000000000003508e-01,0.000000000000000000e+00,-2.000000000000000000e+00,1.000000000000000000e+00,-1.000000000000000000e+00,0.000000000000000000e+00,1.400000000000000000e+01,-6.000000000000000000e+00,-2.000000000000000000e+00,2.697143554687500000e-01,6.859741210937500000e-01,-6.607055664062500000e-01,-1.420898437500000000e-01,-1.684570312500000000e-01,-1.000976562500000000e+00,-7.910156250000000000e-02,1.937500000000000000e+00,-1.437500000000000000e+00,-1.125000000000000000e+00
5.250000000000003553e-01,0.000000000000000000e+00,-2.000000000000000000e+00,1.000000000000000000e+00,-1.000000000000000000e+00,0.000000000000000000e+00,1.400000000000000000e+01,-6.000000000000000000e+00,-2.000000000000000000e+00,2.697143554687500000e-01,6.859741210937500000e-01,-6.607055664062500000e-01,-1.420898437500000000e-01,-1.684570312500000000e-01,-1.000976562500000000e+00,-7.910156250000000000e-02,1.937500000000000000e+00,-1.437500000000000000e+00,-1.125000000000000000e+00
5.300000000000003597e-01,0.000000000000000000e+00,-2.000000000000000000e+00,1.000000000000000000e+00,-1.000000000000000000e+00,0.000000000000000000e+00,1.400000000000000000e+01,-6.000000000000000000e+00,-2.000000000000000000e+00,2.697143554687500000e-01,6.859741210937500000e-01,-6.607055664062500000e-01,-1.420898437500000000e-01,-1.684570312500000000e-01,-1.000976562500000000e+00,-7.910156250000000000e-02,1.937500000000000000e+00,-1.437500000000000000e+00,-1.125000000000000000e+00
5.350000000000003642e-01,0.000000000000000000e+00,-2.000000000000000000e+00,1.000000000000000000e+00,-1.000000000000000000e+00,0.000000000000000000e+00,1.400000000000000000e+01,-6.000000000000000000e+00,-2.000000000000000000e+00,2.697143554687500000e-01,6.859741210937500000e-01,-6.607055664062500000e-01,-1.420898437500000000e-01,-1.684570312500000000e-01,-1.000976562500000000e+00,-7.910156250000000000e-02,1.937500000000000000e+00,-1.437500000000000000e+00,-1.125000000000000000e+00
5.400000000000003686e-01,-2.000000000000000000e+00,-4.000000000000000000e+00,-1.000000000000000000e+00,-3.000000000000000000e+00,5.000000000000000000e+00,5.000000000000000000e+00,5.000000000000000000e+00,-1.000000000000000000e+00,2.694091796875000000e-01,6.857299804687500000e-01,-6.610107421875000000e-01,-1.422119140625000000e-01,-1.616210937500000000e-01,-1.004394531250000000e+00,-7.470703125000000000e-02,1.625000000000000000e+00,-8.750000000000000000e-01,-1.125000000000000000e+00
5.450000000000003730e-01,-2.000000000000000000e+00,-2.000000000000000000e+00,-1.000000000000000000e+00,0.000000000000000000e+00,2.000000000000000000e+00,-1.000000000000000000e+00,0.000000000000000000e+00,0.000000000000000000e+00,2.694091796875000000e-01,6.857299804687500000e-01,-6.610107421875000000e-01,-1.422119140625000000e-01,-1.616210937500000000e-01,-1.004394531250000000e+00,-7.470703125000000000e-02,1.625000000000000000e+00,-8.750000000000000000e-01,-1.125000000000000000e+00
5.500000000000003775e-01,-2.000000000000000000e+00,-2.000000000000000000e+00,-1.000000000000000000e+00,0.000000000000000000e+00,2.000000000000000000e+00,-1.000000000000000000e+00,0.000000000000000000e+00,0.000000000000000000e+00,2.694091796875000000e-01,6.857299804687500000e-01,-6.610107421875000000e-01,-1.422119140625000000e-01,-1.616210937500000000e-01,-1.004394531250000000e+00,-7.470703125000000000e-02,1.625000000000000000e+00,-8.750000000000000000e-01,-1.125000000000000000e+00
5.550000000000003819e-01,-2.000000000000000000e+00,-2.000000000000000000e+00,-1.000000000000000000e+00,0.000000000000000000e+00,2.000000000000000000e+00,-1.000000000000000000e+00,0.000000000000000000e+00,0.000000000000000000e+00,2.694091796875000000e-01,6.857299804687500000e-01,-6.610107421875000000e-01,-1.422119140625000000e-01,-1.616210937500000000e-01,-1.004394531250000000e+00,-7.470703125000000000e-02,1.625000000000000000e+00,-8.750000000000000000e-01,-1.125000000000000000e+00
5.600000000000003864e-01,-2.000000000000000000e+00,-2.000000000000000000e+00,-1.000000000000000000e+00,0.000000000000000000e+00,2.000000000000000000e+00,-1.000000000000000000e+00,0.000000000000000000e+00,0.000000000000000000e+00,2.692260742187500000e-01,6.856689453125000000e-01,-6.611328125000000000e-01,-1.424560546875000000e-01,-1.567382812500000000e-01,-1.001464843750000000e+00,-8.691406250000000000e-02,1.062500000000000000e+00,-6.250000000000000000e-02,-9.375000000000000000e-01
5.650000000000003908e-01,0.000000000000000000e+00,-1.000000000000000000e+00,-4.000000000000000000e+00,-3.000000000000000000e+00,-4.000000000000000000e+00,-1.100000000000000000e+01,-2.000000000000000000e+00,-2.000000000000000000e+00,2.692260742187500000e-01,6.856689453125000000e-01,-6.611328125000000000e-01,-1.424560546875000000e-01,-1.567382812500000000e-01,-1.001464843750000000e+00,-8.691406250000000000e-02,1.062500000000000000e+00,-6.250000000000000000e-02,-9.375000000000000000e-01
5.700000000000003952e-01,0.000000000000000000e+00,-1.000000000000000000e+00,-4.000000000000000000e+00,-3.000000000000000000e+00,-4.000000000000000000e+00,-1.100000000000000000e+01,-2.000000000000000000e+00,-2.000000000000000000e+00,2.692260742187500000e-01,6.856689453125000000e-01,-6.611328125000000000e-01,-1.424560546875000000e-01,-1.567382812500000000e-01,-1.001464843750000000e+00,-8.691406250000000000e-02,1.062500000000000000e+00,-6.250000000000000000e-02,-9.375000000000000000e-01
5.750000000000003997e-01,-2.000000000000000000e+00,0.000000000000000000e+00,-2.000000000000000000e+00,-1.000000000000000000e+00,0.000000000000000000e+00,-1.700000000000000000e+01,2.000000000000000000e+00,-2.000000000000000000e+00,2.692260742187500000e-01,6.856689453125000000e-01,-6.611328125000000000e-01,-1.424560546875000000e-01,-1.567382812500000000e-01,-1.001464843750000000e+00,-8.691406250000000000e-02,1.062500000000000000e+00,-6.250000000000000000e-02,-9.375000000000000000e-01
5.800000000000004041e-01,-2.000000000000000000e+00,0.000000000000000000e+00,-2.000000000000000000e+00,-1.000000000000000000e+00,0.000000000000000000e+00,-1.700000000000000000e+01,2.000000000000000000e+00,-2.000000000000000000e+00,2.692260742187500000e-01,6.856689453125000000e-01,-6.611328125000000000e-01,-1.424560546875000000e-01,-1.567382812500000000e-01,-1.001464843750000000e+00,-8.691406250000000000e-02,1.062500000000000000e+00,-6.250000000000000000e-02,-9.375000000000000000e-01
5.850000000000004086e-01,-2.000000000000000000e+00,0.000000000000000000e+00,-2.000000000000000000e+00,-1.000000000000000000e+00,0.000000000000000000e+00,-1.700000000000000000e+01,2.000000000000000000e+00,-2.000000000000000000e+00,2.691650390625000000e-01,6.855468750000000000e-01,-6.612548828125000000e-01,-1.425781250000000000e-01,-1.572265625000000000e-01,-1.010253906250000000e+00,-8.398437500000000000e-02,1.125000000000000000e+00,2.500000000000000000e-01,-6.250000000000000000e-02
5.900000000000004130e-01,-2.000000000000000000e+00,0.000000000000000000e+00,-2.000000000000000000e+00,-1.000000000000000000e+00,0.000000000000000000e+00,-1.700000000000000000e+01,2.000000000000000000e+00,-2.000000000000000000e+00,2.691650390625000000e-01,6.855468750000000000e-01,-6.612548828125000000e-01,-1.425781250000000000e-01,-1.572265625000000000e-01,-1.010253906250000000e+00,-8.398437500000000000e-02,1.125000000000000000e+00,2.500000000000000000e-01,-6.250000000000000000e-02
5.950000000000004174e-01,-1.000000000000000000e+00,0.000000000000000000e+00,-5.000000000000000000e+00,-6.000000000000000000e+00,-9.000000000000000000e+00,2.400000000000000000e+01,-1.100000000000000000e+01,-4.000000000000000000e+00,2.691650390625000000e-01,6.855468750000000000e-01,-6.612548828125000000e-01,-1.425781250000000000e-01,-1.572265625000000000e-01,-1.010253906250000000e+00,-8.398437500000000000e-02,1.125000000000000000e+00,2.500000000000000000e-01,-6.250000000000000000e-02
6.000000000000004219e-01,-1.000000000000000000e+00,0.000000000000000000e+00,-5.000000000000000000e+00,-6.000000000000000000e+00,-9.000000000000000000e+00,2.400000000000000000e+01,-1.100000000000000000e+01,-4.000000000000000000e+00,2.691650390625000000e-01,6.855468750000000000e-01,-6.612548828125000000e-01,-1.425781250000000000e-01,-1.572265625000000000e-01,-1.010253906250000000e+00,-8.398437500000000000e-02,1.125000000000000000e+00,2.500000000000000000e-01,-6.250000000000000000e-02
6.050000000000004263e-01,-1.000000000000000000e+00,0.000000000000000000e+00,-5.000000000000000000e+00,-6.000000000000000000e+00,-9.000000000000000000e+00,2.400000000000000000e+01,-1.100000000000000000e+01,-4.000000000000000000e+00,2.691650390625000000e-01,6.855468750000000000e-01,-6.612548828125000000e-01,-1.425781250000000000e-01,-1.572265625000000000e-01,-1.010253906250000000e+00,-8.398437500000000000e-02,1.125000000000000000e+00,2.500000000000000000e-01,-6.250000000000000000e-02
6.100000000000004308e-01,-1.000000000000000000e+00,0.000000000000000000e+00,-5.000000000000000000e+00,-6.000000000000000000e+00,-9.000000000000000000e+00,2.400000000000000000e+01,-1.100000000000000000e+01,-4.000000000000000000e+00,2.691650390625000000e-01,6.855468750000000000e-01,-6.612548828125000000e-01,-1.425781250000000000e-01,-1.572265625000000000e-01,-1.010253906250000000e+00,-8.398437500000000000e-02,1.125000000000000000e+00,2.500000000000000000e-01,-6.250000000000000000e-02
6.150000000000004352e-01,0.000000000000000000e+00,-2.000000000000000000e+00,1.000000000000000000e+00,6.000000000000000000e+00,3.000000000000000000e+00,1.000000000000000000e+01,1.000000000000000000e+00,0.000000000000000000e+00,2.691650390625000000e-01,6.853027343750000000e-01,-6.614379882812500000e-01,-1.427612304687500000e-01,-1.630859375000000000e-01,-1.007812500000000000e+00,-8.447265625000000000e-02,1.687500000000000000e+00,5.625000000000000000e-01,2.500000000000000000e-01
6.200000000000004396e-01,0.000000000000000000e+00,-2.000000000000000000e+00,1.000000000000000000e+00,6.000000000000000000e+00,3.000000000000000000e+00,1.000000000000000000e+01,1.000000000000000000e+00,0.000000000000000000e+00,2.691650390625000000e-01,6.853027343750000000e-01,-6.614379882812500000e-01,-1.427612304687500000e-01,-1.630859375000000000e-01,-1.007812500000000000e+00,-8.447265625000000000e-02,1.687500000000000000e+00,5.625000000000000000e-01,2.500000000000000000e-01
6.250000000000004441e-01,-1.000000000000000000e+00,-2.000000000000000000e+00,-1.000000000000000000e+00,-7.000000000000000000e+00,-3.000000000000000000e+00,-7.000000000000000000e+00,-5.000000000000000000e+00,-3.000000000000000000e+00,2.691650390625000000e-01,6.853027343750000000e-01,-6.614379882812500000e-01,-1.427612304687500000e-01,-1.630859375000000000e-01,-1.007812500000000000e+00,-8.447265625000000000e-02,1.687500000000000000e+00,5.625000000000000000e-01,2.500000000000000000e-01
6.300000000000004485e-01,-1.000000000000000000e+00,-2.000000000000000000e+00,-1.000000000000000000e+00,-7.000000000000000000e+00,-3.000000000000000000e+00,-7.000000000000000000e+00,-5.000000000000000000e+00,-3.000000000000000000e+00,2.691650390625000000e-01,6.853027343750000000e-01,-6.614379882812500000e-01,-1.427612304687500000e-01,-1.630859375000000000e-01,-1.007812500000000000e+00,-8.447265625000000000e-02,1.687500000000000000e+00,5.625000000000000000e-01,2.500000000000000000e-01
6.350000000000004530e-01,-1.000000000000000000e+00,-2.000000000000000000e+00,-1.000000000000000000e+00,-7.000000000000000000e+00,-3.000000000000000000e+00,-7.000000000000000000e+00,-5.000000000000000000e+00,-3.000000000000000000e+00,2.692260742187500000e-01,6.849975585937500000e-01,-6.617431640625000000e-01,-1.427001953125000000e-01,-1.689453125000000000e-01,-1.001464843750000000e+00,-7.958984375000000000e-02,1.812500000000000000e+00,1.250000000000000000e-01,6.875000000000000000e-01
6.400000000000004574e-01,-1.000000000000000000e+00,-2.000000000000000000e+00,-1.000000000000000000e+00,-7.000000000000000000e+00,-3.000000000000000000e+00,-7.000000000000000000e+00,-5.000000000000000000e+00,-3.000000000000000000e+00,2.692260742187500000e-01,6.849975585937500000e-01,-6.617431640625000000e-01,-1.427001953125000000e-01,-1.689453125000000000e-01,-1.001464843750000000e+00,-7.958984375000000000e-02,1.812500000000000000e+00,1.250000000000000000e-01,6.875000000000000000e-01
6.450000000000004619e-01,-3.000000000000000000e+00,-2.000000000000000000e+00,-1.000000000000000000e+00,-2.000000000000000000e+00,-4.000000000000000000e+00,1.000000000000000000e+00,-5.000000000000000000e+00,-1.000000000000000000e+00,2.692260742187500000e-01,6.849975585937500000e-01,-6.617431640625000000e-01,-1.427001953125000000e-01,-1.689453125000000000e-01,-1.001464843750000000e+00,-7.958984375000000000e-02,1.812500000000000000e+00,1.250000000000000000e-01,6.875000000000000000e-01
6.500000000000004663e-01,-3.000000000000000000e+00,-2.000000000000000000e+00,-1.000000000000000000e+00,-2.000000000000000000e+00,-4.000000000000000000e+00,1.000000000000000000e+00,-5.000000000000000000e+00,-1.000000000000000000e+00,2.692260742187500000e-01,6.849975585937500000e-01,-6.617431640625000000e-01,-1.427001953125000000e-01,-1.689453125000000000e-01,-1.001464843750000000e+00,-7.958984375000000000e-02,1.812500000000000000e+00,1.250000000000000000e-01,6.875000000000000000e-01
6.550000000000004707e-01,0.000000000000000000e+00,-2.000000000000000000e+00,0.000000000000000000e+00,1.000000000000000000e+00,3.000000000000000000e+00,-8.000000000000000000e+00,-2.000000000000000000e+00,-1.000000000000000000e+00,2.692260742187500000e-01,6.849975585937500000e-01,-6.617431640625000000e-01,-1.427001953125000000e-01,-1.689453125000000000e-01,-1.001464843750000000e+00,-7.958984375000000000e-02,1.812500000000000000e+00,1.250000000000000000e-01,6.875000000000000000e-01
6.600000000000004752e-01,0.000000000000000000e+00,-2.000000000000000000e+00,0.000000000000000000e+00,1.000000000000000000e+00,3.000000000000000000e+00,-8.000000000000000000e+00,-2.000000000000000000e+00,-1.000000000000000000e+00,2.692260742187500000e-01,6.849975585937500000e-01,-6.617431640625000000e-01,-1.427001953125000000e-01,-1.689453125000000000e-01,-1.001464843750000000e+00,-7.958984375000000000e-02,1.812500000000000000e+00,1.250000000000000000e-01,6.875000000000000000e-01
6.650000000000004796e-01,0.000000000000000000e+00,-2.000000000000000000e+00,0.000000000000000000e+00,1.000000000000000000e+00,3.000000000000000000e+00,-8.000000000000000000e+00,-2.000000000000000000e+00,-1.000000000000000000e+00,2.693481445312500000e-01,6.847534179687500000e-01,-6.619873046875000000e-01,-1.427001953125000000e-01,-1.630859375000000000e-01,-1.003906250000000000e+00,-8.447265625000000000e-02,1.562500000000000000e+00,1.875000000000000000e-01,1.187500000000000000e+00
6.700000000000004841e-01,0.000000000000000000e+00,-2.000000000000000000e+00,0.000000000000000000e+00,1.000000000000000000e+00,3.000000000000000000e+00,-8.000000000000000000e+00,-2.000000000000000000e+00,-1.000000000000000000e+00,2.693481445312500000e-01,6.847534179687500000e-01,-6.619873046875000000e-01,-1.427001953125000000e-01,-1.630859375000000000e-01,-1.003906250000000000e+00,-8.447265625000000000e-02,1.562500000000000000e+00,1.875000000000000000e-01,1.187500000000000000e+00
6.750000000000004885e-01,-1.000000000000000000e+00,0.000000000000000000e+00,1.000000000000000000e+00,-3.000000000000000000e+00,-3.000000000000000000e+00,0.000000000000000000e+00,0.000000000000000000e+00,0.000000000000000000e+00,2.693481445312500000e-01,6.847534179687500000e-01,-6.619873046875000000e-01,-1.427001953125000000e-01,-1.630859375000000000e-01,-1.003906250000000000e+00,-8.447265625000000000e-02,1.562500000000000000e+00,1.875000000000000000e-01,1.187500000000000000e+00
6.800000000000004929e-01,-1.000000000000000000e+00,0.000000000000000000e+00,1.000000000000000000e+00,-3.000000000000000000e+00,-3.000000000000000000e+00,0.000000000000000000e+00,0.000000000000000000e+00,0.000000000000000000e+00,2.693481445312500000e-01,6.847534179687500000e-01,-6.619873046875000000e-01,-1.427001953125000000e-01,-1.630859375000000000e-01,-1.003906250000000000e+00,-8.447265625000000000e-02,1.562500000000000000e+00,1.875000000000000000e-01,1.187500000000000000e+00
6.850000000000004974e-01,-1.000000000000000000e+00,0.000000000000000000e+00,1.000000000000000000e+00,-3.000000000000000000e+00,-3.000000000000000000e+00,0.000000000000000000e+00,0.000000000000000000e+00,0.000000000000000000e+00,2.693481445312500000e-01,6.847534179687500000e-01,-6.619873046875000000e-01,-1.427001953125000000e-01,-1.630859375000000000e-01,-1.003906250000000000e+00,-8.447265625000000000e-02,1.562500000000000000e+00,1.875000000000000000e-01,1.187500000000000000e+00
6.900000000000005018e-01,-1.000000000000000000e+00,0.000000000000000000e+00,1.000000000000000000e+00,-3.000000000000000000e+00,-3.000000000000000000e+00,0.000000000000000000e+00,0.000000000000000000e+00,0.000000000000000000e+00,2.693481445312500000e-01,6.847534179687500000e-01,-6.619873046875000000e-01,-1.427001953125000000e-01,-1.630859375000000000e-01,-1.003906250000000000e+00,-8.447265625000000000e-02,1.562500000000000000e+00,1.875000000000000000e-01,1.187500000000000000e+00
6.950000000000005063e-01,0.000000000000000000e+00,0.000000000000000000e+00,-2.000000000000000000e+00,-3.000000000000000000e+00,-1.000000000000000000e+00,-3.000000000000000000e+01,2.000000000000000000e+00,0.000000000000000000e+00,2.695922851562500000e-01,6.844482421875000000e-01,-6.621704101562500000e-01,-1.425781250000000000e-01,-1.738281250000000000e-01,-1.002929687500000000e+00,-7.861328125000000000e-02,1.187500000000000000e+00,3.125000000000000000e-01,1.437500000000000000e+00
7.000000000000005107e-01,0.000000000000000000e+00,0.000000000000000000e+00,-2.000000000000000000e+00,-3.000000000000000000e+00,-1.000000000000000000e+00,-3.000000000000000000e+01,2.000000000000000000e+00,0.000000000000000000e+00,2.695922851562500000e-01,6.844482421875000000e-01,-6.621704101562500000e-01,-1.425781250000000000e-01,-1.738281250000000000e-01,-1.002929687500000000e+00,-7.861328125000000000e-02,1.187500000000000000e+00,3.125000000000000000e-01,1.437500000000000000e+00
7.050000000000005151e-01,0.000000000000000000e+00,-2.000000000000000000e+00,3.000000000000000000e+00,0.000000000000000000e+00,-5.000000000000000000e+00,2.000000000000000000e+00,-3.000000000000000000e+00,0.000000000000000000e+00,2.695922851562500000e-01,6.844482421875000000e-01,-6.621704101562500000e-01,-1.425781250000000000e-01,-1.738281250000000000e-01,-1.002929687500000000e+00,-7.861328125000000000e-02,1.187500000000000000e+00,3.125000000000000000e-01,1.437500000000000000e+00
7.100000000000005196e-01,0.000000000000000000e+00,-2.000000000000000000e+00,3.000000000000000000e+00,0.000000000000000000e+00,-5.000000000000000000e+00,2.000000000000000000e+00,-3.000000000000000000e+00,0.000000000000000000e+00,2.695922851562500000e-01,6.844482421875000000e-01,-6.621704101562500000e-01,-1.425781250000000000e-01,-1.738281250000000000e-01,-1.002929687500000000e+00,-7.861328125000000000e-02,1.187500000000000000e+00,3.125000000000000000e-01,1.437500000000000000e+00
7.150000000000005240e-01,0.000000000000000000e+00,-2.000000000000000000e+00,3.000000000000000000e+00,0.000000000000000000e+00,-5.000000000000000000e+00,2.000000000000000000e+00,-3.000000000000000000e+00,0.000000000000000000e+00,2.698364257812500000e-01,6.842651367187500000e-01,-6.622924804687500000e-01,-1.425170898437500000e-01,-1.689453125000000000e-01,-9.936523437500000000e-01,-8.789062500000000000e-02,9.375000000000000000e-01,6.250000000000000000e-01,1.187500000000000000e+00
7.200000000000005285e-01,0.000000000000000000e+00,-2.000000000000000000e+00,3.000000000000000000e+00,0.000000000000000000e+00,-5.000000000000000000e+00,2.000000000000000000e+00,-3.000000000000000000e+00,0.000000000000000000e+00,2.698364257812500000e-01,6.842651367187500000e-01,-6.622924804687500000e-01,-1.425170898437500000e-01,-1.689453125000000000e-01,-9.936523437500000000e-01,-8.789062500000000000e-02,9.375000000000000000e-01,6.250000000000000000e-01,1.187500000000000000e+00
7.250000000000005329e-01,-1.000000000000000000e+00,0.000000000000000000e+00,0.000000000000000000e+00,-2.000000000000000000e+00,-2.000000000000000000e+00,1.000000000000000000e+01,1.000000000000000000e+00,1.000000000000000000e+00,2.698364257812500000e-01,6.842651367187500000e-01,-6.622924804687500000e-01,-1.425170898437500000e-01,-1.689453125000000000e-01,-9.936523437500000000e-01,-8.789062500000000000e-02,9.375000000000000000e-01,6.250000000000000000e-01,1.187500000000000000e+00
7.300000000000005373e-01,-1.000000000000000000e+00,0.000000000000000000e+00,0.000000000000000000e+00,-2.000000000000000000e+00,-2.000000000000000000e+00,1.000000000000000000e+01,1.000000000000000000e+00,1.000000000000000000e+00,2.698364257812500000e-01,6.842651367187500000e-01,-6.622924804687500000e-01,-1.425170898437500000e-01,-1.689453125000000000e-01,-9.936523437500000000e-01,-8.789062500000000000e-02,9.375000000000000000e-01,6.250000000000000000e-01,1.187500000000000000e+00
7.350000000000005418e-01,-1.000000000000000000e+00,-2.000000000000000000e+00,-1.000000000000000000e+00,4.000000000000000000e+00,9.000000000000000000e+00,0.000000000000000000e+00,6.000000000000000000e+00,0.000000000000000000e+00,2.698364257812500000e-01,6.842651367187500000e-01,-6.622924804687500000e-01,-1.425170898437500000e-01,-1.689453125000000000e-01,-9.936523437500000000e-01,-8.789062500000000000e-02,9.375000000000000000e-01,6.250000000000000000e-01,1.187500000000000000e+00
7.400000000000005462e-01,-1.000000000000000000e+00,-2.000000000000000000e+00,-1.000000000000000000e+00,4.000000000000000000e+00,9.000000000000000000e+00,0.000000000000000000e+00,6.000000000000000000e+00,0.000000000000000000e+00,2.698364257812500000e-01,6.842651367187500000e-01,-6.622924804687500000e-01,-1.425170898437500000e-01,-1.708984375000000000e-01,-9.965820312500000000e-01,-8.105468750000000000e-02,5.625000000000000000e-01,4.375000000000000000e-01,9.375000000000000000e-01
7.450000000000005507e-01,-1.000000000000000000e+00,-2.000000000000000000e+00,-1.000000000000000000e+00,4.000000000000000000e+00,9.000000000000000000e+00,0.000000000000000000e+00,6.000000000000000000e+00,0.000000000000000000e+00,2.698364257812500000e-01,6.842651367187500000e-01,-6.622924804687500000e-01,-1.425170898437500000e-01,-1.708984375000000000e-01,-9.965820312500000000e-01,-8.105468750000000000e-02,5.625000000000000000e-01,4.375000000000000000e-01,9.375000000000000000e-01
7.500000000000005551e-01,-1.000000000000000000e+00,-2.000000000000000000e+00,-1.000000000000000000e+00,4.000000000000000000e+00,9.000000000000000000e+00,0.000000000000000000e+00,6.000000000000000000e+00,0.000000000000000000e+00,2.698364257812500000e-01,6.842651367187500000e-01,-6.622924804687500000e-01,-1.425170898437500000e-01,-1.708984375000000000e-01,-9.965820312500000000e-01,-8.105468750000000000e-02,5.625000000000000000e-01,4.375000000000000000e-01,9.375000000000000000e-01
7.550000000000005596e-01,-3.000000000000000000e+00,0.000000000000000000e+00,2.000000000000000000e+00,-1.000000000000000000e+00,-3.000000000000000000e+00,-1.000000000000000000e+01,0.000000000000000000e+00,-2.000000000000000000e+00,2.698364257812500000e-01,6.842651367187500000e-01,-6.622924804687500000e-01,-1.425170898437500000e-01,-1.708984375000000000e-01,-9.965820312500000000e-01,-8.105468750000000000e-02,5.625000000000000000e-01,4.375000000000000000e-01,9.375000000000000000e-01
7.600000000000005640e-01,-3.000000000000000000e+00,0.000000000000000000e+00,2.000000000000000000e+00,-1.000000000000000000e+00,-3.000000000000000000e+00,-1.000000000000000000e+01,0.000000000000000000e+00,-2.000000000000000000e+00,2.698364257812500000e-01,6.842651367187500000e-01,-6.622924804687500000e-01,-1.425170898437500000e-01,-1.708984375000000000e-01,-9.965820312500000000e-01,-8.105468750000000000e-02,5.625000000000000000e-01,4.375000000000000000e-01,9.375000000000000000e-01
7.650000000000005684e-01,-3.000000000000000000e+00,0.000000000000000000e+00,2.000000000000000000e+00,-1.000000000000000000e+00,-3.000000000000000000e+00,-1.000000000000000000e+01,0.000000000000000000e+00,-2.000000000000000000e+00,2.698364257812500000e-01,6.842651367187500000e-01,-6.622924804687500000e-01,-1.425170898437500000e-01,-1.708984375000000000e-01,-9.965820312500000000e-01,-8.105468750000000000e-02,5.625000000000000000e-01,4.375000000000000000e-01,9.375000000000000000e-01
7.700000000000005729e-01,-3.000000000000000000e+00,0.000000000000000000e+00,2.000000000000000000e+00,-1.000000000000000000e+00,-3.000000000000000000e+00,-1.000000000000000000e+01,0.000000000000000000e+00,-2.000000000000000000e+00,2.698364257812500000e-01,6.842651367187500000e-01,-6.622924804687500000e-01,-1.425170898437500000e-01,-1.708984375000000000e-01,-9.965820312500000000e-01,-8.105468750000000000e-02,5.625000000000000000e-01,4.375000000000000000e-01,9.375000000000000000e-01
7.750000000000005773e-01,-1.000000000000000000e+00,-2.000000000000000000e+00,0.000000000000000000e+00,-2.000000000000000000e+00,-2.000000000000000000e+00,-8.000000000000000000e+00,-2.000000000000000000e+00,0.000000000000000000e+00,2.700195312500000000e-01,6.842041015625000000e-01,-6.623535156250000000e-01,-1.423339843750000000e-01,-1.713867187500000000e-01,-1.000488281250000000e+00,-8.203125000000000000e-02,-6.250000000000000000e-02,1.875000000000000000e-01,1.062500000000000000e+00
7.800000000000005818e-01,-2.000000000000000000e+00,-3.000000000000000000e+00,-4.000000000000000000e+00,-3.000000000000000000e+00,-4.000000000000000000e+00,-1.700000000000000000e+01,-7.000000000000000000e+00,-4.000000000000000000e+00,2.700195312500000000e-01,6.842041015625000000e-01,-6.623535156250000000e-01,-1.423339843750000000e-01,-1.713867187500000000e-01,-1.000488281250000000e+00,-8.203125000000000000e-02,-6.250000000000000000e-02,1.875000000000000000e-01,1.062500000000000000e+00
7.850000000000005862e-01,-2.000000000000000000e+00,-3.000000000000000000e+00,-4.000000000000000000e+00,-3.000000000000000000e+00,-4.000000000000000000e+00,-1.700000000000000000e+01,-7.000000000000000000e+00,-4.000000000000000000e+00,2.700195312500000000e-01,6.842041015625000000e-01,-6.623535156250000000e-01,-1.423339843750000000e-01,-1.713867187500000000e-01,-1.000488281250000000e+00,-8.203125000000000000e-02,-6.250000000000000000e-02,1.875000000000000000e-01,1.062500000000000000e+00
7.900000000000005906e-01,-2.000000000000000000e+00,-3.000000000000000000e+00,-4.000000000000000000e+00,-3.000000000000000000e+00,-4.000000000000000000e+00,-1.700000000000000000e+01,-7.000000000000000000e+00,-4.000000000000000000e+00,2.702636718750000000e-01,6.841430664062500000e-01,-6.623535156250000000e-01,-1.422729492187500000e-01,-1.674804687500000000e-01,-1.003906250000000000e+00,-9.179687500000000000e-02,3.750000000000000000e-01,3.125000000000000000e-01,1.187500000000000000e+00
7.950000000000005951e-01,-2.000000000000000000e+00,-3.000000000000000000e+00,-4.000000000000000000e+00,-3.000000000000000000e+00,-4.000000000000000000e+00,-1.700000000000000000e+01,-7.000000000000000000e+00,-4.000000000000000000e+00,2.702636718750000000e-01,6.841430664062500000e-01,-6.623535156250000000e-01,-1.422729492187500000e-01,-1.674804687500000000e-01,-1.003906250000000000e+00,-9.179687500000000000e-02,3.750000000000000000e-01,3.125000000000000000e-01,1.187500000000000000e+00
8.000000000000005995e-01,-2.000000000000000000e+00,-3.000000000000000000e+00,-4.000000000000000000e+00,-3.000000000000000000e+00,-4.000000000000000000e+00,-1.700000000000000000e+01,-7.000000000000000000e+00,-4.000000000000000000e+00,2.702636718750000000e-01,6.841430664062500000e-01,-6.623535156250000000e-01,-1.422729492187500000e-01,-1.674804687500000000e-01,-1.003906250000000000e+00,-9.179687500000000000e-02,3.750000000000000000e-01,3.125000000000000000e-01,1.187500000000000000e+00
8.050000000000006040e-01,-2.000000000000000000e+00,-3.000000000000000000e+00,-4.000000000000000000e+00,-3.000000000000000000e+00,-4.000000000000000000e+00,-1.700000000000000000e+01,-7.000000000000000000e+00,-4.000000000000000000e+00,2.702636718750000000e-01,6.841430664062500000e-01,-6.623535156250000000e-01,-1.422729492187500000e-01,-1.674804687500000000e-01,-1.003906250000000000e+00,-9.179687500000000000e-02,3.750000000000000000e-01,3.125000000000000000e-01,1.187500000000000000e+00
8.100000000000006084e-01,-2.000000000000000000e+00,-2.000000000000000000e+00,-3.000000000000000000e+00,0.000000000000000000e+00,3.000000000000000000e+00,0.000000000000000000e+00,1.000000000000000000e+00,-1.000000000000000000e+00,2.702636718750000000e-01,6.841430664062500000e-01,-6.623535156250000000e-01,-1.422729492187500000e-01,-1.674804687500000000e-01,-1.003906250000000000e+00,-9.179687500000000000e-02,3.750000000000000000e-01,3.125000000000000000e-01,1.187500000000000000e+00
8.150000000000006128e-01,-2.000000000000000000e+00,-2.000000000000000000e+00,-3.000000000000000000e+00,0.000000000000000000e+00,3.000000000000000000e+00,0.000000000000000000e+00,1.000000000000000000e+00,-1.000000000000000000e+00,2.702636718750000000e-01,6.841430664062500000e-01,-6.623535156250000000e-01,-1.422729492187500000e-01,-1.674804687500000000e-01,-1.003906250000000000e+00,-9.179687500000000000e-02,3.750000000000000000e-01,3.125000000000000000e-01,1.187500000000000000e+00
8.200000000000006173e-01,-2.000000000000000000e+00,-2.000000000000000000e+00,-3.000000000000000000e+00,0.000000000000000000e+00,3.000000000000000000e+00,0.000000000000000000e+00,1.000000000000000000e+00,-1.000000000000000000e+00,2.703247070312500000e-01,6.838989257812500000e-01,-6.625366210937500000e-01,-1.422119140625000000e-01,-1.689453125000000000e-01,-1.000488281250000000e+00,-8.935546875000000000e-02,1.875000000000000000e+00,1.250000000000000000e-01,8.750000000000000000e-01
8.250000000000006217e-01,-1.000000000000000000e+00,-1.000000000000000000e+00,-2.000000000000000000e+00,0.000000000000000000e+00,-1.000000000000000000e+00,-1.100000000000000000e+01,-5.000000000000000000e+00,-3.000000000000000000e+00,2.703247070312500000e-01,6.838989257812500000e-01,-6.625366210937500000e-01,-1.422119140625000000e-01,-1.689453125000000000e-01,-1.000488281250000000e+00,-8.935546875000000000e-02,1.875000000000000000e+00,1.250000000000000000e-01,8.750000000000000000e-01
8.300000000000006262e-01,-1.000000000000000000e+00,-1.000000000000000000e+00,-2.000000000000000000e+00,0.000000000000000000e+00,-1.000000000000000000e+00,-1.100000000000000000e+01,-5.000000000000000000e+00,-3.000000000000000000e+00,2.703247070312500000e-01,6.838989257812500000e-01,-6.625366210937500000e-01,-1.422119140625000000e-01,-1.689453125000000000e-01,-1.000488281250000000e+00,-8.935546875000000000e-02,1.875000000000000000e+00,1.250000000000000000e-01,8.750000000000000000e-01
8.350000000000006306e-01,0.000000000000000000e+00,-1.000000000000000000e+00,2.000000000000000000e+00,-1.000000000000000000e+00,-9.000000000000000000e+00,-4.100000000000000000e+01,-3.000000000000000000e+00,1.000000000000000000e+00,2.703247070312500000e-01,6.838989257812500000e-01,-6.625366210937500000e-01,-1.422119140625000000e-01,-1.689453125000000000e-01,-1.000488281250000000e+00,-8.935546875000000000e-02,1.875000000000000000e+00,1.250000000000000000e-01,8.750000000000000000e-01
8.400000000000006350e-01,0.000000000000000000e+00,-1.000000000000000000e+00,2.000000000000000000e+00,-1.000000000000000000e+00,-9.000000000000000000e+00,-4.100000000000000000e+01,-3.000000000000000000e+00,1.000000000000000000e+00,2.703247070312500000e-01,6.838989257812500000e-01,-6.625366210937500000e-01,-1.422119140625000000e-01,-1.689453125000000000e-01,-1.000488281250000000e+00,-8.935546875000000000e-02,1.875000000000000000e+00,1.250000000000000000e-01,8.750000000000000000e-01
8.450000000000006395e-01,0.000000000000000000e+00,-1.000000000000000000e+00,2.000000000000000000e+00,-1.000000000000000000e+00,-9.000000000000000000e+00,-4.100000000000000000e+01,-3.000000000000000000e+00,1.000000000000000000e+00,2.704467773437500000e-01,6.837158203125000000e-01,-6.627197265625000000e-01,-1.421508789062500000e-01,-1.689453125000000000e-01,-9.965820312500000000e-01,-8.349609375000000000e-02,1.250000000000000000e+00,-1.875000000000000000e-01,7.500000000000000000e-01
8.500000000000006439e-01,-1.000000000000000000e+00,1.000000000000000000e+00,-2.000000000000000000e+00,-4.000000000000000000e+00,-1.000000000000000000e+00,1.600000000000000000e+01,3.000000000000000000e+00,-1.000000000000000000e+00,2.704467773437500000e-01,6.837158203125000000e-01,-6.627197265625000000e-01,-1.421508789062500000e-01,-1.689453125000000000e-01,-9.965820312500000000e-01,-8.349609375000000000e-02,1.250000000000000000e+00,-1.875000000000000000e-01,7.500000000000000000e-01
8.550000000000006484e-01,-1.000000000000000000e+00,1.000000000000000000e+00,-2.000000000000000000e+00,-4.000000000000000000e+00,-1.000000000000000000e+00,1.600000000000000000e+01,3.000000000000000000e+00,-1.000000000000000000e+00,2.704467773437500000e-01,6.837158203125000000e-01,-6.627197265625000000e-01,-1.421508789062500000e-01,-1.689453125000000000e-01,-9.965820312500000000e-01,-8.349609375000000000e-02,1.250000000000000000e+00,-1.875000000000000000e-01,7.500000000000000000e-01
8.600000000000006528e-01,-1.000000000000000000e+00,1.000000000000000000e+00,-2.000000000000000000e+00,-4.000000000000000000e+00,-1.000000000000000000e+00,1.600000000000000000e+01,3.000000000000000000e+00,-1.000000000000000000e+00,2.704467773437500000e-01,6.837158203125000000e-01,-6.626586914062500000e-01,-1.421508789062500000e-01,-1.665039062500000000e-01,-1.003417968750000000e+00,-9.277343750000000000e-02,9.375000000000000000e-01,-3.125000000000000000e-01,8.125000000000000000e-01
8.650000000000006573e-01,-1.000000000000000000e+00,1.000000000000000000e+00,-2.000000000000000000e+00,-4.000000000000000000e+00,-1.000000000000000000e+00,1.600000000000000000e+01,3.000000000000000000e+00,-1.000000000000000000e+00,2.704467773437500000e-01,6.837158203125000000e-01,-6.626586914062500000e-01,-1.421508789062500000e-01,-1.665039062500000000e-01,-1.003417968750000000e+00,-9.277343750000000000e-02,9.375000000000000000e-01,-3.125000000000000000e-01,8.125000000000000000e-01
8.700000000000006617e-01,-1.000000000000000000e+00,1.000000000000000000e+00,-2.000000000000000000e+00,-4.000000000000000000e+00,-1.000000000000000000e+00,1.600000000000000000e+01,3.000000000000000000e+00,-1.000000000000000000e+00,2.704467773437500000e-01,6.837158203125000000e-01,-6.626586914062500000e-01,-1.421508789062500000e-01,-1.665039062500000000e-01,-1.003417968750000000e+00,-9.277343750000000000e-02,9.375000000000000000e-01,-3.125000000000000000e-01,8.125000000000000000e-01
8.750000000000006661e-01,2.000000000000000000e+00,-2.000000000000000000e+00,1.000000000000000000e+00,-2.000000000000000000e+00,1.000000000000000000e+00,1.100000000000000000e+01,0.000000000000000000e+00,0.000000000000000000e+00,2.704467773437500000e-01,6.837158203125000000e-01,-6.626586914062500000e-01,-1.421508789062500000e-01,-1.665039062500000000e-01,-1.003417968750000000e+00,-9.277343750000000000e-02,9.375000000000000000e-01,-3.125000000000000000e-01,8.125000000000000000e-01
8.800000000000006706e-01,2.000000000000000000e+00,-2.000000000000000000e+00,1.000000000000000000e+00,-2.000000000000000000e+00,1.000000000000000000e+00,1.100000000000000000e+01,0.000000000000000000e+00,0.000000000000000000e+00,2.704467773437500000e-01,6.837768554687500000e-01,-6.626586914062500000e-01,-1.421508789062500000e-01,-1.679687500000000000e-01,-1.000488281250000000e+00,-8.935546875000000000e-02,8.125000000000000000e-01,-1.875000000000000000e-01,7.500000000000000000e-01
8.850000000000006750e-01,2.000000000000000000e+00,-2.000000000000000000e+00,1.000000000000000000e+00,-2.000000000000000000e+00,1.000000000000000000e+00,1.100000000000000000e+01,0.000000000000000000e+00,0.000000000000000000e+00,2.704467773437500000e-01,6.837768554687500000e-01,-6.626586914062500000e-01,-1.421508789062500000e-01,-1.679687500000000000e-01,-1.000488281250000000e+00,-8.935546875000000000e-02,8.125000000000000000e-01,-1.875000000000000000e-01,7.500000000000000000e-01
8.900000000000006795e-01,2.000000000000000000e+00,-2.000000000000000000e+00,1.000000000000000000e+00,-2.000000000000000000e+00,1.000000000000000000e+00,1.100000000000000000e+01,0.000000000000000000e+00,0.000000000000000000e+00,2.704467773437500000e-01,6.837768554687500000e-01,-6.626586914062500000e-01,-1.421508789062500000e-01,-1.679687500000000000e-01,-1.000488281250000000e+00,-8.935546875000000000e-02,8.125000000000000000e-01,-1.875000000000000000e-01,7.500000000000000000e-01
8.950000000000006839e-01,2.000000000000000000e+00,-2.000000000000000000e+00,1.000000000000000000e+00,-2.000000000000000000e+00,1.000000000000000000e+00,1.100000000000000000e+01,0.000000000000000000e+00,0.000000000000000000e+00,2.704467773437500000e-01,6.837768554687500000e-01,-6.626586914062500000e-01,-1.421508789062500000e-01,-1.679687500000000000e-01,-1.000488281250000000e+00,-8.935546875000000000e-02,8.125000000000000000e-01,-1.875000000000000000e-01,7.500000000000000000e-01
9.000000000000006883e-01,-1.000000000000000000e+00,-2.000000000000000000e+00,-2.000000000000000000e+00,-1.000000000000000000e+00,3.000000000000000000e+00,-1.000000000000000000e+00,-1.000000000000000000e+00,-1.000000000000000000e+00,2.704467773437500000e-01,6.837768554687500000e-01,-6.626586914062500000e-01,-1.421508789062500000e-01,-1.679687500000000000e-01,-1.000488281250000000e+00,-8.935546875000000000e-02,8.125000000000000000e-01,-1.875000000000000000e-01,7.500000000000000000e-01
9.050000000000008038e-01,-1.000000000000000000e+00,-2.000000000000000000e+00,-2.000000000000000000e+00,-1.000000000000000000e+00,3.000000000000000000e+00,-1.000000000000000000e+00,-1.000000000000000000e+00,-1.000000000000000000e+00,2.705078125000000000e-01,6.835327148437500000e-01,-6.628417968750000000e-01,-1.421508789062500000e-01,-1.694335937500000000e-01,-9.946289062500000000e-01,-8.496093750000000000e-02,1.687500000000000000e+00,0.000000000000000000e+00,4.375000000000000000e-01
9.100000000000008082e-01,-1.000000000000000000e+00,-2.000000000000000000e+00,-2.000000000000000000e+00,-1.000000000000000000e+00,3.000000000000000000e+00,-1.000000000000000000e+00,-1.000000000000000000e+00,-1.000000000000000000e+00,2.705078125000000000e-01,6.835327148437500000e-01,-6.628417968750000000e-01,-1.421508789062500000e-01,-1.694335937500000000e-01,-9.946289062500000000e-01,-8.496093750000000000e-02,1.687500000000000000e+00,0.000000000000000000e+00,4.375000000000000000e-01
9.150000000000008127e-01,-3.000000000000000000e+00,-2.000000000000000000e+00,1.000000000000000000e+00,1.000000000000000000e+00,-2.000000000000000000e+00,-2.700000000000000000e+01,-1.000000000000000000e+00,-1.000000000000000000e+00,2.705078125000000000e-01,6.835327148437500000e-01,-6.628417968750000000e-01,-1.421508789062500000e-01,-1.694335937500000000e-01,-9.946289062500000000e-01,-8.496093750000000000e-02,1.687500000000000000e+00,0.000000000000000000e+00,4.375000000000000000e-01
9.200000000000008171e-01,-3.000000000000000000e+00,-2.000000000000000000e+00,1.000000000000000000e+00,1.000000000000000000e+00,-2.000000000000000000e+00,-2.700000000000000000e+01,-1.000000000000000000e+00,-1.000000000000000000e+00,2.705078125000000000e-01,6.835327148437500000e-01,-6.628417968750000000e-01,-1.421508789062500000e-01,-1.694335937500000000e-01,-9.946289062500000000e-01,-8.496093750000000000e-02,1.687500000000000000e+00,0.000000000000000000e+00,4.375000000000000000e-01
9.250000000000008216e-01,-3.000000000000000000e+00,-2.000000000000000000e+00,1.000000000000000000e+00,1.000000000000000000e+00,-2.000000000000000000e+00,-2.700000000000000000e+01,-1.000000000000000000e+00,-1.000000000000000000e+00,2.704467773437500000e-01,6.832885742187500000e-01,-6.631469726562500000e-01,-1.421508789062500000e-01,-1.665039062500000000e-01,-9.951171875000000000e-01,-8.251953125000000000e-02,1.875000000000000000e+00,-4.375000000000000000e-01,5.625000000000000000e-01
9.300000000000008260e-01,0.000000000000000000e+00,-2.000000000000000000e+00,1.000000000000000000e+00,-2.000000000000000000e+00,2.000000000000000000e+00,4.000000000000000000e+00,-2.000000000000000000e+00,-1.000000000000000000e+00,2.704467773437500000e-01,6.832885742187500000e-01,-6.631469726562500000e-01,-1.421508789062500000e-01,-1.665039062500000000e-01,-9.951171875000000000e-01,-8.251953125000000000e-02,1.875000000000000000e+00,-4.375000000000000000e-01,5.625000000000000000e-01
9.350000000000008304e-01,0.000000000000000000e+00,-2.000000000000000000e+00,1.000000000000000000e+00,-2.000000000000000000e+00,2.000000000000000000e+00,4.000000000000000000e+00,-2.000000000000000000e+00,-1.000000000000000000e+00,2.704467773437500000e-01,6.832885742187500000e-01,-6.631469726562500000e-01,-1.421508789062500000e-01,-1.665039062500000000e-01,-9.951171875000000000e-01,-8.251953125000000000e-02,1.875000000000000000e+00,-4.375000000000000000e-01,5.625000000000000000e-01
9.400000000000008349e-01,-1.000000000000000000e+00,-1.000000000000000000e+00,-4.000000000000000000e+00,0.000000000000000000e+00,-2.000000000000000000e+00,-4.000000000000000000e+00,0.000000000000000000e+00,-1.000000000000000000e+00,2.704467773437500000e-01,6.832885742187500000e-01,-6.631469726562500000e-01,-1.421508789062500000e-01,-1.665039062500000000e-01,-9.951171875000000000e-01,-8.251953125000000000e-02,1.875000000000000000e+00,-4.375000000000000000e-01,5.625000000000000000e-01
9.450000000000008393e-01,-1.000000000000000000e+00,-1.000000000000000000e+00,-4.000000000000000000e+00,0.000000000000000000e+00,-2.000000000000000000e+00,-4.000000000000000000e+00,0.000000000000000000e+00,-1.000000000000000000e+00,2.704467773437500000e-01,6.832885742187500000e-01,-6.631469726562500000e-01,-1.421508789062500000e-01,-1.665039062500000000e-01,-9.951171875000000000e-01,-8.251953125000000000e-02,1.875000000000000000e+00,-4.375000000000000000e-01,5.625000000000000000e-01
9.500000000000008438e-01,-1.000000000000000000e+00,-1.000000000000000000e+00,-4.000000000000000000e+00,0.000000000000000000e+00,-2.000000000000000000e+00,-4.000000000000000000e+00,0.000000000000000000e+00,-1.000000000000000000e+00,2.705078125000000000e-01,6.831054687500000000e-01,-6.633300781250000000e-01,-1.420288085937500000e-01,-1.689453125000000000e-01,-9.960937500000000000e-01,-8.203125000000000000e-02,1.500000000000000000e+00,-3.125000000000000000e-01,1.062500000000000000e+00
9.550000000000008482e-01,-1.000000000000000000e+00,-1.000000000000000000e+00,-4.000000000000000000e+00,0.000000000000000000e+00,-2.000000000000000000e+00,-4.000000000000000000e+00,0.000000000000000000e+00,-1.000000000000000000e+00,2.705078125000000000e-01,6.831054687500000000e-01,-6.633300781250000000e-01,-1.420288085937500000e-01,-1.689453125000000000e-01,-9.960937500000000000e-01,-8.203125000000000000e-02,1.500000000000000000e+00,-3.125000000000000000e-01,1.062500000000000000e+00
9.600000000000008527e-01,-1.000000000000000000e+00,-2.000000000000000000e+00,-1.000000000000000000e+00,-2.000000000000000000e+00,-4.000000000000000000e+00,-1.000000000000000000e+00,-2.000000000000000000e+00,-1.000000000000000000e+00,2.705078125000000000e-01,6.831054687500000000e-01,-6.633300781250000000e-01,-1.420288085937500000e-01,-1.689453125000000000e-01,-9.960937500000000000e-01,-8.203125000000000000e-02,1.500000000000000000e+00,-3.125000000000000000e-01,1.062500000000000000e+00
9.650000000000007461e-01,-1.000000000000000000e+00,0.000000000000000000e+00,2.000000000000000000e+00,1.000000000000000000e+00,-4.000000000000000000e+00,1.400000000000000000e+01,0.000000000000000000e+00,0.000000000000000000e+00,2.705078125000000000e-01,6.831054687500000000e-01,-6.633300781250000000e-01,-1.420288085937500000e-01,-1.689453125000000000e-01,-9.960937500000000000e-01,-8.203125000000000000e-02,1.500000000000000000e+00,-3.125000000000000000e-01,1.062500000000000000e+00
9.700000000000007505e-01,-1.000000000000000000e+00,0.000000000000000000e+00,2.000000000000000000e+00,1.000000000000000000e+00,-4.000000000000000000e+00,1.400000000000000000e+01,0.000000000000000000e+00,0.000000000000000000e+00,2.705078125000000000e-01,6.831054687500000000e-01,-6.633300781250000000e-01,-1.420288085937500000e-01,-1.689453125000000000e-01,-9.960937500000000000e-01,-8.203125000000000000e-02,1.500000000000000000e+00,-3.125000000000000000e-01,1.062500000000000000e+00
9.750000000000007550e-01,-3.000000000000000000e+00,1.000000000000000000e+00,-2.000000000000000000e+00,-2.000000000000000000e+00,1.000000000000000000e+00,-1.000000000000000000e+01,-2.000000000000000000e+00,0.000000000000000000e+00,2.706909179687500000e-01,6.828002929687500000e-01,-6.635742187500000000e-01,-1.419067382812500000e-01,-1.733398437500000000e-01,-1.002441406250000000e+00,-8.740234375000000000e-02,2.000000000000000000e+00,6.250000000000000000e-02,1.312500000000000000e+00
9.800000000000007594e-01,-3.000000000000000000e+00,1.000000000000000000e+00,-1.000000000000000000e+00,0.000000000000000000e+00,-2.000000000000000000e+00,5.000000000000000000e+00,-2.000000000000000000e+00,-1.000000000000000000e+00,2.706909179687500000e-01,6.828002929687500000e-01,-6.635742187500000000e-01,-1.419067382812500000e-01,-1.733398437500000000e-01,-1.002441406250000000e+00,-8.740234375000000000e-02,2.000000000000000000e+00,6.250000000000000000e-02,1.312500000000000000e+00
9.850000000000007638e-01,-3.000000000000000000e+00,1.000000000000000000e+00,-1.000000000000000000e+00,0.000000000000000000e+00,-2.000000000000000000e+00,5.000000000000000000e+00,-2.000000000000000000e+00,-1.000000000000000000e+00,2.706909179687500000e-01,6.828002929687500000e-01,-6.635742187500000000e-01,-1.419067382812500000e-01,-1.733398437500000000e-01,-1.002441406250000000e+00,-8.740234375000000000e-02,2.000000000000000000e+00,6.250000000000000000e-02,1.312500000000000000e+00
9.900000000000007683e-01,-3.000000000000000000e+00,1.000000000000000000e+00,-1.000000000000000000e+00,0.000000000000000000e+00,-2.000000000000000000e+00,5.000000000000000000e+00,-2.000000000000000000e+00,-1.000000000000000000e+00,2.706909179687500000e-01,6.828002929687500000e-01,-6.635742187500000000e-01,-1.419067382812500000e-01,-1.733398437500000000e-01,-1.002441406250000000e+00,-8.740234375000000000e-02,2.000000000000000000e+00,6.250000000000000000e-02,1.312500000000000000e+00
9.950000000000007727e-01,-3.000000000000000000e+00,1.000000000000000000e+00,-1.000000000000000000e+00,0.000000000000000000e+00,-2.000000000000000000e+00,5.000000000000000000e+00,-2.000000000000000000e+00,-1.000000000000000000e+00,2.709960937500000000e-01,6.823120117187500000e-01,-6.639404296875000000e-01,-1.420288085937500000e-01,-1.699218750000000000e-01,-9.960937500000000000e-01,-8.105468750000000000e-02,3.375000000000000000e+00,1.125000000000000000e+00,1.625000000000000000e+00
1.000000000000000888e+00,0.000000000000000000e+00,-2.000000000000000000e+00,-1.000000000000000000e+00,-1.000000000000000000e+00,-2.000000000000000000e+00,-6.000000000000000000e+00,0.000000000000000000e+00,-3.000000000000000000e+00,2.709960937500000000e-01,6.823120117187500000e-01,-6.639404296875000000e-01,-1.420288085937500000e-01,-1.699218750000000000e-01,-9.960937500000000000e-01,-8.105468750000000000e-02,3.375000000000000000e+00,1.125000000000000000e+00,1.625000000000000000e+00
1.005000000000000560e+00,-2.000000000000000000e+00,-4.000000000000000000e+00,1.000000000000000000e+00,0.000000000000000000e+00,-1.000000000000000000e+00,1.000000000000000000e+00,-3.000000000000000000e+00,-1.000000000000000000e+00,2.709960937500000000e-01,6.823120117187500000e-01,-6.639404296875000000e-01,-1.420288085937500000e-01,-1.699218750000000000e-01,-9.960937500000000000e-01,-8.105468750000000000e-02,3.375000000000000000e+00,1.125000000000000000e+00,1.625000000000000000e+00
1.010000000000000453e+00,-1.000000000000000000e+00,0.000000000000000000e+00,-1.000000000000000000e+00,-2.000000000000000000e+00,-4.000000000000000000e+00,-1.700000000000000000e+01,-8.000000000000000000e+00,0.000000000000000000e+00,2.709960937500000000e-01,6.823120117187500000e-01,-6.639404296875000000e-01,-1.420288085937500000e-01,-1.699218750000000000e-01,-9.960937500000000000e-01,-8.105468750000000000e-02,3.375000000000000000e+00,1.125000000000000000e+00,1.625000000000000000e+00
1.015000000000000346e+00,-1.000000000000000000e+00,0.000000000000000000e+00,-1.000000000000000000e+00,-2.000000000000000000e+00,-4.000000000000000000e+00,-1.700000000000000000e+01,-8.000000000000000000e+00,0.000000000000000000e+00,2.713623046875000000e-01,6.818237304687500000e-01,-6.643066406250000000e-01,-1.420288085937500000e-01,-1.806640625000000000e-01,-9.902343750000000000e-01,-7.714843750000000000e-02,2.750000000000000000e+00,1.312500000000000000e+00,1.687500000000000000e+00
1.020000000000000240e+00,-1.000000000000000000e+00,0.000000000000000000e+00,-1.000000000000000000e+00,-2.000000000000000000e+00,-4.000000000000000000e+00,-1.700000000000000000e+01,-8.000000000000000000e+00,0.000000000000000000e+00,2.713623046875000000e-01,6.818237304687500000e-01,-6.643066406250000000e-01,-1.420288085937500000e-01,-1.806640625000000000e-01,-9.902343750000000000e-01,-7.714843750000000000e-02,2.750000000000000000e+00,1.312500000000000000e+00,1.687500000000000000e+00
1.024999999999999911e+00,-1.000000000000000000e+00,-3.000000000000000000e+00,-1.000000000000000000e+00,-2.000000000000000000e+00,0.000000000000000000e+00,9.000000000000000000e+00,-2.000000000000000000e+00,-1.000000000000000000e+00,2.713623046875000000e-01,6.818237304687500000e-01,-6.643066406250000000e-01,-1.420288085937500000e-01,-1.806640625000000000e-01,-9.902343750000000000e-01,-7.714843750000000000e-02,2.750000000000000000e+00,1.312500000000000000e+00,1.687500000000000000e+00
1.030000000000000027e+00,-1.000000000000000000e+00,-3.000000000000000000e+00,-1.000000000000000000e+00,-2.000000000000000000e+00,0.000000000000000000e+00,9.000000000000000000e+00,-2.000000000000000000e+00,-1.000000000000000000e+00,2.713623046875000000e-01,6.818237304687500000e-01,-6.643066406250000000e-01,-1.420288085937500000e-01,-1.806640625000000000e-01,-9.902343750000000000e-01,-7.714843750000000000e-02,2.750000000000000000e+00,1.312500000000000000e+00,1.687500000000000000e+00
1.034999999999999920e+00,0.000000000000000000e+00,-1.000000000000000000e+00,-3.000000000000000000e+00,-3.000000000000000000e+00,-1.000000000000000000e+00,1.100000000000000000e+01,-3.000000000000000000e+00,-2.000000000000000000e+00,2.713623046875000000e-01,6.818237304687500000e-01,-6.643066406250000000e-01,-1.420288085937500000e-01,-1.806640625000000000e-01,-9.902343750000000000e-01,-7.714843750000000000e-02,2.750000000000000000e+00,1.312500000000000000e+00,1.687500000000000000e+00
1.039999999999999813e+00,0.000000000000000000e+00,-1.000000000000000000e+00,-3.000000000000000000e+00,-3.000000000000000000e+00,-1.000000000000000000e+00,1.100000000000000000e+01,-3.000000000000000000e+00,-2.000000000000000000e+00,2.713623046875000000e-01,6.818237304687500000e-01,-6.643066406250000000e-01,-1.420288085937500000e-01,-1.806640625000000000e-01,-9.902343750000000000e-01,-7.714843750000000000e-02,2.750000000000000000e+00,1.312500000000000000e+00,1.687500000000000000e+00
1.044999999999999707e+00,0.000000000000000000e+00,-1.000000000000000000e+00,-3.000000000000000000e+00,-3.000000000000000000e+00,-1.000000000000000000e+00,1.100000000000000000e+01,-3.000000000000000000e+00,-2.000000000000000000e+00,2.717285156250000000e-01,6.816406250000000000e-01,-6.643676757812500000e-01,-1.419067382812500000e-01,-1.816406250000000000e-01,-9.926757812500000000e-01,-7.812500000000000000e-02,5.000000000000000000e-01,1.187500000000000000e+00,1.125000000000000000e+00
1.049999999999999600e+00,0.000000000000000000e+00,-1.000000000000000000e+00,-3.000000000000000000e+00,-3.000000000000000000e+00,-1.000000000000000000e+00,1.100000000000000000e+01,-3.000000000000000000e+00,-2.000000000000000000e+00,2.717285156250000000e-01,6.816406250000000000e-01,-6.643676757812500000e-01,-1.419067382812500000e-01,-1.816406250000000000e-01,-9.926757812500000000e-01,-7.812500000000000000e-02,5.000000000000000000e-01,1.187500000000000000e+00,1.125000000000000000e+00
1.054999999999999494e+00,1.000000000000000000e+00,-1.000000000000000000e+00,1.000000000000000000e+00,1.000000000000000000e+00,1.000000000000000000e+00,1.500000000000000000e+01,0.000000000000000000e+00,0.000000000000000000e+00,2.717285156250000000e-01,6.816406250000000000e-01,-6.643676757812500000e-01,-1.419067382812500000e-01,-1.762695312500000000e-01,-1.000488281250000000e+00,-7.617187500000000000e-02,5.625000000000000000e-01,8.125000000000000000e-01,1.875000000000000000e-01
1.059999999999999387e+00,0.000000000000000000e+00,-2.000000000000000000e+00,-1.000000000000000000e+00,-2.000000000000000000e+00,0.000000000000000000e+00,4.000000000000000000e+00,1.000000000000000000e+00,0.000000000000000000e+00,2.717285156250000000e-01,6.816406250000000000e-01,-6.643676757812500000e-01,-1.419067382812500000e-01,-1.762695312500000000e-01,-1.000488281250000000e+00,-7.617187500000000000e-02,5.625000000000000000e-01,8.125000000000000000e-01,1.875000000000000000e-01
1.064999999999999281e+00,0.000000000000000000e+00,-2.000000000000000000e+00,-1.000000000000000000e+00,-2.000000000000000000e+00,0.000000000000000000e+00,4.000000000000000000e+00,1.000000000000000000e+00,0.000000000000000000e+00,2.717285156250000000e-01,6.816406250000000000e-01,-6.643676757812500000e-01,-1.419067382812500000e-01,-1.762695312500000000e-01,-1.000488281250000000e+00,-7.617187500000000000e-02,5.625000000000000000e-01,8.125000000000000000e-01,1.875000000000000000e-01
1.069999999999999174e+00,-4.000000000000000000e+00,-1.000000000000000000e+00,0.000000000000000000e+00,-2.000000000000000000e+00,2.000000000000000000e+00,4.000000000000000000e+00,-4.000000000000000000e+00,-3.000000000000000000e+00,2.717285156250000000e-01,6.816406250000000000e-01,-6.643676757812500000e-01,-1.419067382812500000e-01,-1.762695312500000000e-01,-1.000488281250000000e+00,-7.617187500000000000e-02,5.625000000000000000e-01,8.125000000000000000e-01,1.875000000000000000e-01
1.074999999999999067e+00,-4.000000000000000000e+00,-1.000000000000000000e+00,0.000000000000000000e+00,-2.000000000000000000e+00,2.000000000000000000e+00,4.000000000000000000e+00,-4.000000000000000000e+00,-3.000000000000000000e+00,2.717285156250000000e-01,6.816406250000000000e-01,-6.643676757812500000e-01,-1.419067382812500000e-01,-1.762695312500000000e-01,-1.000488281250000000e+00,-7.617187500000000000e-02,5.625000000000000000e-01,8.125000000000000000e-01,1.875000000000000000e-01
1.079999999999998961e+00,-4.000000000000000000e+00,-1.000000000000000000e+00,0.000000000000000000e+00,-2.000000000000000000e+00,2.000000000000000000e+00,4.000000000000000000e+00,-4.000000000000000000e+00,-3.000000000000000000e+00,2.717895507812500000e-01,6.813354492187500000e-01,-6.646118164062500000e-01,-1.422119140625000000e-01,-1.718750000000000000e-01,-9.970703125000000000e-01,-7.714843750000000000e-02,2.625000000000000000e+00,1.250000000000000000e+00,-4.375000000000000000e-01
1.084999999999998854e+00,-2.000000000000000000e+00,1.000000000000000000e+00,-1.000000000000000000e+00,-1.000000000000000000e+00,-1.000000000000000000e+00,-1.500000000000000000e+01,-1.000000000000000000e+00,-1.000000000000000000e+00,2.717895507812500000e-01,6.813354492187500000e-01,-6.646118164062500000e-01,-1.422119140625000000e-01,-1.718750000000000000e-01,-9.970703125000000000e-01,-7.714843750000000000e-02,2.625000000000000000e+00,1.250000000000000000e+00,-4.375000000000000000e-01
1.089999999999998748e+00,-2.000000000000000000e+00,1.000000000000000000e+00,-1.000000000000000000e+00,-1.000000000000000000e+00,-1.000000000000000000e+00,-1.500000000000000000e+01,-1.000000000000000000e+00,-1.000000000000000000e+00,2.717895507812500000e-01,6.813354492187500000e-01,-6.646118164062500000e-01,-1.422119140625000000e-01,-1.718750000000000000e-01,-9.970703125000000000e-01,-7.714843750000000000e-02,2.625000000000000000e+00,1.250000000000000000e+00,-4.375000000000000000e-01
1.094999999999998641e+00,-2.000000000000000000e+00,-1.000000000000000000e+00,-6.000000000000000000e+00,-5.000000000000000000e+00,4.000000000000000000e+00,-1.300000000000000000e+01,-1.100000000000000000e+01,-3.000000000000000000e+00,2.717895507812500000e-01,6.813354492187500000e-01,-6.646118164062500000e-01,-1.422119140625000000e-01,-1.718750000000000000e-01,-9.970703125000000000e-01,-7.714843750000000000e-02,2.625000000000000000e+00,1.250000000000000000e+00,-4.375000000000000000e-01
1.099999999999998312e+00,-2.000000000000000000e+00,-1.000000000000000000e+00,-6.000000000000000000e+00,-5.000000000000000000e+00,4.000000000000000000e+00,-1.300000000000000000e+01,-1.100000000000000000e+01,-3.000000000000000000e+00,2.717895507812500000e-01,6.813354492187500000e-01,-6.646118164062500000e-01,-1.422119140625000000e-01,-1.718750000000000000e-01,-9.970703125000000000e-01,-7.714843750000000000e-02,2.625000000000000000e+00,1.250000000000000000e+00,-4.375000000000000000e-01
1.104999999999998428e+00,-2.000000000000000000e+00,-1.000000000000000000e+00,-6.000000000000000000e+00,-5.000000000000000000e+00,4.000000000000000000e+00,-1.300000000000000000e+01,-1.100000000000000000e+01,-3.000000000000000000e+00,2.717895507812500000e-01,6.813354492187500000e-01,-6.646118164062500000e-01,-1.422119140625000000e-01,-1.718750000000000000e-01,-9.970703125000000000e-01,-7.714843750000000000e-02,2.625000000000000000e+00,1.250000000000000000e+00,-4.375000000000000000e-01
1.109999999999998321e+00,-2.000000000000000000e+00,-1.000000000000000000e+00,-6.000000000000000000e+00,-5.000000000000000000e+00,4.000000000000000000e+00,-1.300000000000000000e+01,-1.100000000000000000e+01,-3.000000000000000000e+00,2.717895507812500000e-01,6.813354492187500000e-01,-6.646118164062500000e-01,-1.422119140625000000e-01,-1.718750000000000000e-01,-9.970703125000000000e-01,-7.714843750000000000e-02,2.625000000000000000e+00,1.250000000000000000e+00,-4.375000000000000000e-01
1.114999999999998215e+00,-2.000000000000000000e+00,-1.000000000000000000e+00,-6.000000000000000000e+00,-5.000000000000000000e+00,4.000000000000000000e+00,-1.300000000000000000e+01,-1.100000000000000000e+01,-3.000000000000000000e+00,2.717895507812500000e-01,6.809082031250000000e-01,-6.649169921875000000e-01,-1.426391601562500000e-01,-1.723632812500000000e-01,-9.926757812500000000e-01,-7.177734375000000000e-02,3.000000000000000000e+00,1.437500000000000000e+00,-9.375000000000000000e-01
1.119999999999998108e+00,-2.000000000000000000e+00,0.000000000000000000e+00,-2.000000000000000000e+00,0.000000000000000000e+00,-1.100000000000000000e+01,4.000000000000000000e+00,-5.000000000000000000e+00,-1.000000000000000000e+00,2.717895507812500000e-01,6.809082031250000000e-01,-6.649169921875000000e-01,-1.426391601562500000e-01,-1.723632812500000000e-01,-9.926757812500000000e-01,-7.177734375000000000e-02,3.000000000000000000e+00,1.437500000000000000e+00,-9.375000000000000000e-01
1.124999999999998002e+00,-2.000000000000000000e+00,0.000000000000000000e+00,-2.000000000000000000e+00,0.000000000000000000e+00,-1.100000000000000000e+01,4.000000000000000000e+00,-5.000000000000000000e+00,-1.000000000000000000e+00,2.719726562500000000e-01,6.807861328125000000e-01,-6.648559570312500000e-01,-1.430664062500000000e-01,-1.723632812500000000e-01,-9.765625000000000000e-01,-7.031250000000000000e-02,3.125000000000000000e-01,2.750000000000000000e+00,-1.250000000000000000e+00
1.129999999999997895e+00,-2.000000000000000000e+00,0.000000000000000000e+00,-2.000000000000000000e+00,0.000000000000000000e+00,-1.100000000000000000e+01,4.000000000000000000e+00,-5.000000000000000000e+00,-1.000000000000000000e+00,2.719726562500000000e-01,6.807861328125000000e-01,-6.648559570312500000e-01,-1.430664062500000000e-01,-1.723632812500000000e-01,-9.765625000000000000e-01,-7.031250000000000000e-02,3.125000000000000000e-01,2.750000000000000000e+00,-1.250000000000000000e+00
1.134999999999997788e+00,0.000000000000000000e+00,-2.000000000000000000e+00,-8.000000000000000000e+00,-2.000000000000000000e+00,-3.000000000000000000e+00,7.000000000000000000e+00,2.000000000000000000e+00,-5.000000000000000000e+00,2.719726562500000000e-01,6.807861328125000000e-01,-6.648559570312500000e-01,-1.430664062500000000e-01,-1.723632812500000000e-01,-9.765625000000000000e-01,-7.031250000000000000e-02,3.125000000000000000e-01,2.750000000000000000e+00,-1.250000000000000000e+00
1.139999999999997682e+00,0.000000000000000000e+00,-2.000000000000000000e+00,-8.000000000000000000e+00,-2.000000000000000000e+00,-3.000000000000000000e+00,7.000000000000000000e+00,2.000000000000000000e+00,-5.000000000000000000e+00,2.719726562500000000e-01,6.807861328125000000e-01,-6.648559570312500000e-01,-1.430664062500000000e-01,-1.723632812500000000e-01,-9.765625000000000000e-01,-7.031250000000000000e-02,3.125000000000000000e-01,2.750000000000000000e+00,-1.250000000000000000e+00
1.144999999999997575e+00,0.000000000000000000e+00,-2.000000000000000000e+00,-8.000000000000000000e+00,-2.000000000000000000e+00,-3.000000000000000000e+00,7.000000000000000000e+00,2.000000000000000000e+00,-5.000000000000000000e+00,2.719726562500000000e-01,6.807861328125000000e-01,-6.648559570312500000e-01,-1.430664062500000000e-01,-1.723632812500000000e-01,-9.765625000000000000e-01,-7.031250000000000000e-02,3.125000000000000000e-01,2.750000000000000000e+00,-1.250000000000000000e+00
1.149999999999997691e+00,1.000000000000000000e+00,1.000000000000000000e+00,3.000000000000000000e+00,0.000000000000000000e+00,6.000000000000000000e+00,1.000000000000000000e+00,3.000000000000000000e+00,0.000000000000000000e+00,2.719726562500000000e-01,6.807861328125000000e-01,-6.648559570312500000e-01,-1.430664062500000000e-01,-1.723632812500000000e-01,-9.765625000000000000e-01,-7.031250000000000000e-02,3.125000000000000000e-01,2.750000000000000000e+00,-1.250000000000000000e+00
1.154999999999997362e+00,1.000000000000000000e+00,1.000000000000000000e+00,3.000000000000000000e+00,0.000000000000000000e+00,6.000000000000000000e+00,1.000000000000000000e+00,3.000000000000000000e+00,0.000000000000000000e+00,2.719726562500000000e-01,6.807861328125000000e-01,-6.648559570312500000e-01,-1.430664062500000000e-01,-1.723632812500000000e-01,-9.765625000000000000e-01,-7.031250000000000000e-02,3.125000000000000000e-01,2.750000000000000000e+00,-1.250000000000000000e+00
1.159999999999997256e+00,1.000000000000000000e+00,1.000000000000000000e+00,3.000000000000000000e+00,0.000000000000000000e+00,6.000000000000000000e+00,1.000000000000000000e+00,3.000000000000000000e+00,0.000000000000000000e+00,2.725219726562500000e-01,6.808471679687500000e-01,-6.644897460937500000e-01,-1.436157226562500000e-01,-1.777343750000000000e-01,-9.882812500000000000e-01,-6.640625000000000000e-02,-1.875000000000000000e+00,4.937500000000000000e+00,-1.187500000000000000e+00
1.164999999999997149e+00,1.000000000000000000e+00,1.000000000000000000e+00,3.000000000000000000e+00,0.000000000000000000e+00,6.000000000000000000e+00,1.000000000000000000e+00,3.000000000000000000e+00,0.000000000000000000e+00,2.725219726562500000e-01,6.808471679687500000e-01,-6.644897460937500000e-01,-1.436157226562500000e-01,-1.777343750000000000e-01,-9.882812500000000000e-01,-6.640625000000000000e-02,-1.875000000000000000e+00,4.937500000000000000e+00,-1.187500000000000000e+00
1.169999999999997042e+00,0.000000000000000000e+00,-1.000000000000000000e+00,1.000000000000000000e+00,-2.000000000000000000e+00,-7.000000000000000000e+00,-2.600000000000000000e+01,2.000000000000000000e+00,-1.000000000000000000e+00,2.725219726562500000e-01,6.808471679687500000e-01,-6.644897460937500000e-01,-1.436157226562500000e-01,-1.777343750000000000e-01,-9.882812500000000000e-01,-6.640625000000000000e-02,-1.875000000000000000e+00,4.937500000000000000e+00,-1.187500000000000000e+00
1.174999999999996936e+00,-2.000000000000000000e+00,-1.000000000000000000e+00,2.000000000000000000e+00,-1.000000000000000000e+00,-6.000000000000000000e+00,4.000000000000000000e+00,2.000000000000000000e+00,0.000000000000000000e+00,2.725219726562500000e-01,6.808471679687500000e-01,-6.644897460937500000e-01,-1.436157226562500000e-01,-1.777343750000000000e-01,-9.882812500000000000e-01,-6.640625000000000000e-02,-1.875000000000000000e+00,4.937500000000000000e+00,-1.187500000000000000e+00
1.179999999999996829e+00,-2.000000000000000000e+00,-1.000000000000000000e+00,2.000000000000000000e+00,-1.000000000000000000e+00,-6.000000000000000000e+00,4.000000000000000000e+00,2.000000000000000000e+00,0.000000000000000000e+00,2.725219726562500000e-01,6.808471679687500000e-01,-6.644897460937500000e-01,-1.436157226562500000e-01,-1.777343750000000000e-01,-9.882812500000000000e-01,-6.640625000000000000e-02,-1.875000000000000000e+00,4.937500000000000000e+00,-1.187500000000000000e+00
1.184999999999996723e+00,-2.000000000000000000e+00,-1.000000000000000000e+00,2.000000000000000000e+00,-1.000000000000000000e+00,-6.000000000000000000e+00,4.000000000000000000e+00,2.000000000000000000e+00,0.000000000000000000e+00,2.725219726562500000e-01,6.808471679687500000e-01,-6.644897460937500000e-01,-1.436157226562500000e-01,-1.777343750000000000e-01,-9.882812500000000000e-01,-6.640625000000000000e-02,-1.875000000000000000e+00,4.937500000000000000e+00,-1.187500000000000000e+00
1.189999999999996616e+00,-2.000000000000000000e+00,-1.000000000000000000e+00,2.000000000000000000e+00,-1.000000000000000000e+00,-6.000000000000000000e+00,4.000000000000000000e+00,2.000000000000000000e+00,0.000000000000000000e+00,2.732543945312500000e-01,6.812133789062500000e-01,-6.636352539062500000e-01,-1.444702148437500000e-01,-1.835937500000000000e-01,-9.799804687500000000e-01,-6.933593750000000000e-02,-4.687500000000000000e+00,7.187500000000000000e+00,-2.625000000000000000e+00
1.194999999999996509e+00,-2.000000000000000000e+00,-1.000000000000000000e+00,2.000000000000000000e+00,-1.000000000000000000e+00,-6.000000000000000000e+00,4.000000000000000000e+00,2.000000000000000000e+00,0.000000000000000000e+00,2.732543945312500000e-01,6.812133789062500000e-01,-6.636352539062500000e-01,-1.444702148437500000e-01,-1.835937500000000000e-01,-9.799804687500000000e-01,-6.933593750000000000e-02,-4.687500000000000000e+00,7.187500000000000000e+00,-2.625000000000000000e+00
1.199999999999996403e+00,0.000000000000000000e+00,-3.000000000000000000e+00,3.000000000000000000e+00,3.000000000000000000e+00,3.000000000000000000e+00,0.000000000000000000e+00,3.000000000000000000e+00,0.000000000000000000e+00,2.732543945312500000e-01,6.812133789062500000e-01,-6.636352539062500000e-01,-1.444702148437500000e-01,-1.835937500000000000e-01,-9.799804687500000000e-01,-6.933593750000000000e-02,-4.687500000000000000e+00,7.187500000000000000e+00,-2.625000000000000000e+00
1.204999999999996296e+00,0.000000000000000000e+00,-3.000000000000000000e+00,3.000000000000000000e+00,3.000000000000000000e+00,3.000000000000000000e+00,0.000000000000000000e+00,3.000000000000000000e+00,0.000000000000000000e+00,2.732543945312500000e-01,6.812133789062500000e-01,-6.636352539062500000e-01,-1.444702148437500000e-01,-1.835937500000000000e-01,-9.799804687500000000e-01,-6.933593750000000000e-02,-4.687500000000000000e+00,7.187500000000000000e+00,-2.625000000000000000e+00
1.209999999999996190e+00,0.000000000000000000e+00,-3.000000000000000000e+00,3.000000000000000000e+00,3.000000000000000000e+00,3.000000000000000000e+00,0.000000000000000000e+00,3.000000000000000000e+00,0.000000000000000000e+00,2.740478515625000000e-01,6.820678710937500000e-01,-6.622314453125000000e-01,-1.456298828125000000e-01,-1.684570312500000000e-01,-9.873046875000000000e-01,-7.275390625000000000e-02,-8.250000000000000000e+00,9.187500000000000000e+00,-4.125000000000000000e+00
1.214999999999996083e+00,-4.000000000000000000e+00,-2.000000000000000000e+00,-1.000000000000000000e+00,1.000000000000000000e+00,-2.000000000000000000e+00,2.000000000000000000e+00,1.000000000000000000e+00,0.000000000000000000e+00,2.740478515625000000e-01,6.820678710937500000e-01,-6.622314453125000000e-01,-1.456298828125000000e-01,-1.684570312500000000e-01,-9.873046875000000000e-01,-7.275390625000000000e-02,-8.250000000000000000e+00,9.187500000000000000e+00,-4.125000000000000000e+00
1.219999999999995977e+00,-4.000000000000000000e+00,-2.000000000000000000e+00,-1.000000000000000000e+00,1.000000000000000000e+00,-2.000000000000000000e+00,2.000000000000000000e+00,1.000000000000000000e+00,0.000000000000000000e+00,2.740478515625000000e-01,6.820678710937500000e-01,-6.622314453125000000e-01,-1.456298828125000000e-01,-1.684570312500000000e-01,-9.873046875000000000e-01,-7.275390625000000000e-02,-8.250000000000000000e+00,9.187500000000000000e+00,-4.125000000000000000e+00
1.224999999999996092e+00,-2.000000000000000000e+00,-1.000000000000000000e+00,-1.000000000000000000e+00,-2.000000000000000000e+00,-3.000000000000000000e+00,1.600000000000000000e+01,3.000000000000000000e+00,-2.000000000000000000e+00,2.740478515625000000e-01,6.820678710937500000e-01,-6.622314453125000000e-01,-1.456298828125000000e-01,-1.684570312500000000e-01,-9.873046875000000000e-01,-7.275390625000000000e-02,-8.250000000000000000e+00,9.187500000000000000e+00,-4.125000000000000000e+00
1.229999999999995763e+00,-2.000000000000000000e+00,-1.000000000000000000e+00,-1.000000000000000000e+00,-2.000000000000000000e+00,-3.000000000000000000e+00,1.600000000000000000e+01,3.000000000000000000e+00,-2.000000000000000000e+00,2.740478515625000000e-01,6.820678710937500000e-01,-6.622314453125000000e-01,-1.456298828125000000e-01,-1.684570312500000000e-01,-9.873046875000000000e-01,-7.275390625000000000e-02,-8.250000000000000000e+00,9.187500000000000000e+00,-4.125000000000000000e+00
1.234999999999995657e+00,-2.000000000000000000e+00,-1.000000000000000000e+00,-1.000000000000000000e+00,-2.000000000000000000e+00,-3.000000000000000000e+00,1.600000000000000000e+01,3.000000000000000000e+00,-2.000000000000000000e+00,2.748413085937500000e-01,6.828613281250000000e-01,-6.607055664062500000e-01,-1.469116210937500000e-01,-1.679687500000000000e-01,-1.001464843750000000e+00,-7.519531250000000000e-02,-8.250000000000000000e+00,9.937500000000000000e+00,-4.562500000000000000e+00
