1.000000000000000021e-02,-2.000000000000000000e+00,0.000000000000000000e+00,0.000000000000000000e+00,3.000000000000000000e+00,6.000000000000000000e+00,9.000000000000000000e+00,1.000000000000000000e+00,0.000000000000000000e+00,5.626831054687500000e-01,1.417236328125000000e-01,-3.843994140625000000e-01,-7.180175781250000000e-01,-1.152343750000000000e-01,-1.334472656250000000e+00,4.272460937500000000e-01,2.625000000000000000e+01,-6.787500000000000000e+01,-5.043750000000000000e+01
1.499999999999999944e-02,-2.000000000000000000e+00,0.000000000000000000e+00,0.000000000000000000e+00,3.000000000000000000e+00,6.000000000000000000e+00,9.000000000000000000e+00,1.000000000000000000e+00,0.000000000000000000e+00,5.626831054687500000e-01,1.417236328125000000e-01,-3.843994140625000000e-01,-7.180175781250000000e-01,-1.152343750000000000e-01,-1.334472656250000000e+00,4.272460937500000000e-01,2.625000000000000000e+01,-6.787500000000000000e+01,-5.043750000000000000e+01
2.000000000000000042e-02,-2.000000000000000000e+00,0.000000000000000000e+00,0.000000000000000000e+00,3.000000000000000000e+00,6.000000000000000000e+00,9.000000000000000000e+00,1.000000000000000000e+00,0.000000000000000000e+00,5.626831054687500000e-01,1.417236328125000000e-01,-3.843994140625000000e-01,-7.180175781250000000e-01,-1.152343750000000000e-01,-1.334472656250000000e+00,4.272460937500000000e-01,2.625000000000000000e+01,-6.787500000000000000e+01,-5.043750000000000000e+01
2.500000000000000139e-02,-2.000000000000000000e+00,0.000000000000000000e+00,0.000000000000000000e+00,3.000000000000000000e+00,6.000000000000000000e+00,9.000000000000000000e+00,1.000000000000000000e+00,0.000000000000000000e+00,5.626831054687500000e-01,1.417236328125000000e-01,-3.843994140625000000e-01,-7.180175781250000000e-01,-1.152343750000000000e-01,-1.334472656250000000e+00,4.272460937500000000e-01,2.625000000000000000e+01,-6.787500000000000000e+01,-5.043750000000000000e+01
2.999999999999999889e-02,-2.000000000000000000e+00,0.000000000000000000e+00,0.000000000000000000e+00,3.000000000000000000e+00,6.000000000000000000e+00,9.000000000000000000e+00,1.000000000000000000e+00,0.000000000000000000e+00,5.626831054687500000e-01,1.417236328125000000e-01,-3.843994140625000000e-01,-7.180175781250000000e-01,-1.152343750000000000e-01,-1.334472656250000000e+00,4.272460937500000000e-01,2.625000000000000000e+01,-6.787500000000000000e+01,-5.043750000000000000e+01
3.500000000000000333e-02,-1.000000000000000000e+00,1.000000000000000000e+00,-2.000000000000000000e+00,-1.000000000000000000e+00,-8.000000000000000000e+00,-1.000000000000000000e+01,-2.000000000000000000e+00,-3.000000000000000000e+00,5.626831054687500000e-01,1.417236328125000000e-01,-3.843994140625000000e-01,-7.180175781250000000e-01,-1.152343750000000000e-01,-1.334472656250000000e+00,4.272460937500000000e-01,2.625000000000000000e+01,-6.787500000000000000e+01,-5.043750000000000000e+01
4.000000000000000083e-02,-1.000000000000000000e+00,0.000000000000000000e+00,0.000000000000000000e+00,-1.000000000000000000e+00,0.000000000000000000e+00,8.000000000000000000e+00,0.000000000000000000e+00,-3.000000000000000000e+00,5.539550781250000000e-01,1.561279296875000000e-01,-3.830566406250000000e-01,-7.225341796875000000e-01,5.371093750000000000e-03,-1.329589843750000000e+00,3.627929687500000000e-01,2.531250000000000000e+01,-6.525000000000000000e+01,-4.987500000000000000e+01
4.499999999999999833e-02,-1.000000000000000000e+00,0.000000000000000000e+00,0.000000000000000000e+00,-1.000000000000000000e+00,0.000000000000000000e+00,8.000000000000000000e+00,0.000000000000000000e+00,-3.000000000000000000e+00,5.539550781250000000e-01,1.561279296875000000e-01,-3.830566406250000000e-01,-7.225341796875000000e-01,5.371093750000000000e-03,-1.329589843750000000e+00,3.627929687500000000e-01,2.531250000000000000e+01,-6.525000000000000000e+01,-4.987500000000000000e+01
4.999999999999989869e-02,-1.000000000000000000e+00,0.000000000000000000e+00,0.000000000000000000e+00,-1.000000000000000000e+00,0.000000000000000000e+00,8.000000000000000000e+00,0.000000000000000000e+00,-3.000000000000000000e+00,5.539550781250000000e-01,1.561279296875000000e-01,-3.830566406250000000e-01,-7.225341796875000000e-01,5.371093750000000000e-03,-1.329589843750000000e+00,3.627929687500000000e-01,2.531250000000000000e+01,-6.525000000000000000e+01,-4.987500000000000000e+01
5.499999999999990313e-02,2.000000000000000000e+00,0.000000000000000000e+00,-1.000000000000000000e+00,-3.000000000000000000e+00,1.400000000000000000e+01,6.000000000000000000e+00,1.000000000000000000e+00,-1.000000000000000000e+00,5.539550781250000000e-01,1.561279296875000000e-01,-3.830566406250000000e-01,-7.225341796875000000e-01,5.371093750000000000e-03,-1.329589843750000000e+00,3.627929687500000000e-01,2.531250000000000000e+01,-6.525000000000000000e+01,-4.987500000000000000e+01
5.999999999999990064e-02,-3.000000000000000000e+00,0.000000000000000000e+00,-3.000000000000000000e+00,-1.000000000000000000e+00,1.000000000000000000e+00,2.000000000000000000e+00,0.000000000000000000e+00,-2.000000000000000000e+00,5.472412109375000000e-01,1.715087890625000000e-01,-3.792724609375000000e-01,-7.261352539062500000e-01,1.762695312500000000e-01,-1.324707031250000000e+00,2.851562500000000000e-01,1.525000000000000000e+01,-5.593750000000000000e+01,-5.093750000000000000e+01
6.499999999999990508e-02,-3.000000000000000000e+00,0.000000000000000000e+00,-3.000000000000000000e+00,-1.000000000000000000e+00,1.000000000000000000e+00,2.000000000000000000e+00,0.000000000000000000e+00,-2.000000000000000000e+00,5.472412109375000000e-01,1.715087890625000000e-01,-3.792724609375000000e-01,-7.261352539062500000e-01,1.762695312500000000e-01,-1.324707031250000000e+00,2.851562500000000000e-01,1.525000000000000000e+01,-5.593750000000000000e+01,-5.093750000000000000e+01
6.999999999999989564e-02,-3.000000000000000000e+00,0.000000000000000000e+00,-3.000000000000000000e+00,-1.000000000000000000e+00,1.000000000000000000e+00,2.000000000000000000e+00,0.000000000000000000e+00,-2.000000000000000000e+00,5.472412109375000000e-01,1.715087890625000000e-01,-3.792724609375000000e-01,-7.261352539062500000e-01,1.762695312500000000e-01,-1.324707031250000000e+00,2.851562500000000000e-01,1.525000000000000000e+01,-5.593750000000000000e+01,-5.093750000000000000e+01
7.499999999999999722e-02,-3.000000000000000000e+00,0.000000000000000000e+00,-3.000000000000000000e+00,-1.000000000000000000e+00,1.000000000000000000e+00,2.000000000000000000e+00,0.000000000000000000e+00,-2.000000000000000000e+00,5.472412109375000000e-01,1.715087890625000000e-01,-3.792724609375000000e-01,-7.261352539062500000e-01,1.762695312500000000e-01,-1.324707031250000000e+00,2.851562500000000000e-01,1.525000000000000000e+01,-5.593750000000000000e+01,-5.093750000000000000e+01
8.000000000000000167e-02,-3.000000000000000000e+00,0.000000000000000000e+00,-3.000000000000000000e+00,-1.000000000000000000e+00,1.000000000000000000e+00,2.000000000000000000e+00,0.000000000000000000e+00,-2.000000000000000000e+00,5.472412109375000000e-01,1.715087890625000000e-01,-3.792724609375000000e-01,-7.261352539062500000e-01,1.762695312500000000e-01,-1.324707031250000000e+00,2.851562500000000000e-01,1.525000000000000000e+01,-5.593750000000000000e+01,-5.093750000000000000e+01
8.500000000000000611e-02,0.000000000000000000e+00,-1.000000000000000000e+00,-1.000000000000000000e+00,-2.000000000000000000e+00,4.000000000000000000e+00,-2.000000000000000000e+00,-1.000000000000000000e+00,-1.000000000000000000e+00,5.416259765625000000e-01,1.859741210937500000e-01,-3.739013671875000000e-01,-7.295532226562500000e-01,2.431640625000000000e-01,-1.236816406250000000e+00,2.353515625000000000e-01,1.168750000000000000e+01,-4.412500000000000000e+01,-5.306250000000000000e+01
8.999999999999999667e-02,0.000000000000000000e+00,-1.000000000000000000e+00,-1.000000000000000000e+00,-2.000000000000000000e+00,4.000000000000000000e+00,-2.000000000000000000e+00,-1.000000000000000000e+00,-1.000000000000000000e+00,5.416259765625000000e-01,1.859741210937500000e-01,-3.739013671875000000e-01,-7.295532226562500000e-01,2.431640625000000000e-01,-1.236816406250000000e+00,2.353515625000000000e-01,1.168750000000000000e+01,-4.412500000000000000e+01,-5.306250000000000000e+01
9.500000000000000111e-02,0.000000000000000000e+00,-1.000000000000000000e+00,-1.000000000000000000e+00,-2.000000000000000000e+00,4.000000000000000000e+00,-2.000000000000000000e+00,-1.000000000000000000e+00,-1.000000000000000000e+00,5.416259765625000000e-01,1.859741210937500000e-01,-3.739013671875000000e-01,-7.295532226562500000e-01,2.431640625000000000e-01,-1.236816406250000000e+00,2.353515625000000000e-01,1.168750000000000000e+01,-4.412500000000000000e+01,-5.306250000000000000e+01
1.000000000000000056e-01,0.000000000000000000e+00,-1.000000000000000000e+00,-1.000000000000000000e+00,-2.000000000000000000e+00,4.000000000000000000e+00,-2.000000000000000000e+00,-1.000000000000000000e+00,-1.000000000000000000e+00,5.416259765625000000e-01,1.859741210937500000e-01,-3.739013671875000000e-01,-7.295532226562500000e-01,2.431640625000000000e-01,-1.236816406250000000e+00,2.353515625000000000e-01,1.168750000000000000e+01,-4.412500000000000000e+01,-5.306250000000000000e+01
1.049999999999999961e-01,-2.000000000000000000e+00,-2.000000000000000000e+00,-1.000000000000000000e+00,-2.000000000000000000e+00,-1.000000000000000000e+01,2.000000000000000000e+00,2.000000000000000000e+00,0.000000000000000000e+00,5.416259765625000000e-01,1.859741210937500000e-01,-3.739013671875000000e-01,-7.295532226562500000e-01,2.431640625000000000e-01,-1.236816406250000000e+00,2.353515625000000000e-01,1.168750000000000000e+01,-4.412500000000000000e+01,-5.306250000000000000e+01
1.100000000000000006e-01,-2.000000000000000000e+00,-2.000000000000000000e+00,-1.000000000000000000e+00,-2.000000000000000000e+00,-1.000000000000000000e+01,2.000000000000000000e+00,2.000000000000000000e+00,0.000000000000000000e+00,5.416259765625000000e-01,1.859741210937500000e-01,-3.739013671875000000e-01,-7.295532226562500000e-01,2.431640625000000000e-01,-1.236816406250000000e+00,2.353515625000000000e-01,1.168750000000000000e+01,-4.412500000000000000e+01,-5.306250000000000000e+01
1.150000000000000050e-01,0.000000000000000000e+00,-1.000000000000000000e+00,-1.000000000000000000e+00,-7.000000000000000000e+00,1.000000000000000000e+00,1.400000000000000000e+01,0.000000000000000000e+00,-1.000000000000000000e+00,5.374145507812500000e-01,1.987304687500000000e-01,-3.674926757812500000e-01,-7.325439453125000000e-01,1.997070312500000000e-01,-1.085937500000000000e+00,2.246093750000000000e-01,4.250000000000000000e+00,-3.300000000000000000e+01,-5.587500000000000000e+01
1.199999999999999956e-01,0.000000000000000000e+00,-1.000000000000000000e+00,-1.000000000000000000e+00,-7.000000000000000000e+00,1.000000000000000000e+00,1.400000000000000000e+01,0.000000000000000000e+00,-1.000000000000000000e+00,5.374145507812500000e-01,1.987304687500000000e-01,-3.674926757812500000e-01,-7.325439453125000000e-01,1.997070312500000000e-01,-1.085937500000000000e+00,2.246093750000000000e-01,4.250000000000000000e+00,-3.300000000000000000e+01,-5.587500000000000000e+01
1.250000000000000000e-01,0.000000000000000000e+00,-1.000000000000000000e+00,-1.000000000000000000e+00,-7.000000000000000000e+00,1.000000000000000000e+00,1.400000000000000000e+01,0.000000000000000000e+00,-1.000000000000000000e+00,5.374145507812500000e-01,1.987304687500000000e-01,-3.674926757812500000e-01,-7.325439453125000000e-01,1.997070312500000000e-01,-1.085937500000000000e+00,2.246093750000000000e-01,4.250000000000000000e+00,-3.300000000000000000e+01,-5.587500000000000000e+01
1.300000000000000044e-01,0.000000000000000000e+00,-1.000000000000000000e+00,-1.000000000000000000e+00,-7.000000000000000000e+00,1.000000000000000000e+00,1.400000000000000000e+01,0.000000000000000000e+00,-1.000000000000000000e+00,5.374145507812500000e-01,1.987304687500000000e-01,-3.674926757812500000e-01,-7.325439453125000000e-01,1.997070312500000000e-01,-1.085937500000000000e+00,2.246093750000000000e-01,4.250000000000000000e+00,-3.300000000000000000e+01,-5.587500000000000000e+01
1.350000000000000089e-01,1.000000000000000000e+00,0.000000000000000000e+00,2.000000000000000000e+00,-3.000000000000000000e+00,0.000000000000000000e+00,3.000000000000000000e+00,1.000000000000000000e+00,1.000000000000000000e+00,5.358886718750000000e-01,2.112426757812500000e-01,-3.601074218750000000e-01,-7.338867187500000000e-01,1.362304687500000000e-01,-1.007812500000000000e+00,2.382812500000000000e-01,-1.606250000000000000e+01,-2.712500000000000000e+01,-5.975000000000000000e+01
1.400000000000000133e-01,-1.000000000000000000e+00,-1.000000000000000000e+00,2.000000000000000000e+00,0.000000000000000000e+00,-1.000000000000000000e+00,-7.000000000000000000e+00,-1.000000000000000000e+00,-2.000000000000000000e+00,5.358886718750000000e-01,2.112426757812500000e-01,-3.601074218750000000e-01,-7.338867187500000000e-01,1.362304687500000000e-01,-1.007812500000000000e+00,2.382812500000000000e-01,-1.606250000000000000e+01,-2.712500000000000000e+01,-5.975000000000000000e+01
1.449999999999999900e-01,-1.000000000000000000e+00,-1.000000000000000000e+00,2.000000000000000000e+00,0.000000000000000000e+00,-1.000000000000000000e+00,-7.000000000000000000e+00,-1.000000000000000000e+00,-2.000000000000000000e+00,5.358886718750000000e-01,2.112426757812500000e-01,-3.601074218750000000e-01,-7.338867187500000000e-01,1.362304687500000000e-01,-1.007812500000000000e+00,2.382812500000000000e-01,-1.606250000000000000e+01,-2.712500000000000000e+01,-5.975000000000000000e+01
1.499999999999999944e-01,-1.000000000000000000e+00,-1.000000000000000000e+00,2.000000000000000000e+00,0.000000000000000000e+00,-1.000000000000000000e+00,-7.000000000000000000e+00,-1.000000000000000000e+00,-2.000000000000000000e+00,5.358886718750000000e-01,2.112426757812500000e-01,-3.601074218750000000e-01,-7.338867187500000000e-01,1.362304687500000000e-01,-1.007812500000000000e+00,2.382812500000000000e-01,-1.606250000000000000e+01,-2.712500000000000000e+01,-5.975000000000000000e+01
1.549999999999999989e-01,-1.000000000000000000e+00,-1.000000000000000000e+00,2.000000000000000000e+00,0.000000000000000000e+00,-1.000000000000000000e+00,-7.000000000000000000e+00,-1.000000000000000000e+00,-2.000000000000000000e+00,5.358886718750000000e-01,2.112426757812500000e-01,-3.601074218750000000e-01,-7.338867187500000000e-01,1.362304687500000000e-01,-1.007812500000000000e+00,2.382812500000000000e-01,-1.606250000000000000e+01,-2.712500000000000000e+01,-5.975000000000000000e+01
1.600000000000000033e-01,-1.000000000000000000e+00,-1.000000000000000000e+00,2.000000000000000000e+00,0.000000000000000000e+00,-1.000000000000000000e+00,-7.000000000000000000e+00,-1.000000000000000000e+00,-2.000000000000000000e+00,5.358886718750000000e-01,2.112426757812500000e-01,-3.601074218750000000e-01,-7.338867187500000000e-01,1.362304687500000000e-01,-1.007812500000000000e+00,2.382812500000000000e-01,-1.606250000000000000e+01,-2.712500000000000000e+01,-5.975000000000000000e+01
1.650000000000000078e-01,-1.000000000000000000e+00,-1.000000000000000000e+00,-3.000000000000000000e+00,-3.000000000000000000e+00,-2.000000000000000000e+00,-8.000000000000000000e+00,-3.000000000000000000e+00,-1.000000000000000000e+00,5.356445312500000000e-01,2.239990234375000000e-01,-3.519287109375000000e-01,-7.341918945312500000e-01,1.118164062500000000e-01,-9.980468750000000000e-01,2.714843750000000000e-01,-2.956250000000000000e+01,-2.481250000000000000e+01,-6.368750000000000000e+01
1.700000000000000122e-01,-1.000000000000000000e+00,-1.000000000000000000e+00,-3.000000000000000000e+00,-3.000000000000000000e+00,-2.000000000000000000e+00,-8.000000000000000000e+00,-3.000000000000000000e+00,-1.000000000000000000e+00,5.356445312500000000e-01,2.239990234375000000e-01,-3.519287109375000000e-01,-7.341918945312500000e-01,1.118164062500000000e-01,-9.980468750000000000e-01,2.714843750000000000e-01,-2.956250000000000000e+01,-2.481250000000000000e+01,-6.368750000000000000e+01
1.749999999999999889e-01,-1.000000000000000000e+00,-1.000000000000000000e+00,-3.000000000000000000e+00,-3.000000000000000000e+00,-2.000000000000000000e+00,-8.000000000000000000e+00,-3.000000000000000000e+00,-1.000000000000000000e+00,5.356445312500000000e-01,2.239990234375000000e-01,-3.519287109375000000e-01,-7.341918945312500000e-01,1.118164062500000000e-01,-9.980468750000000000e-01,2.714843750000000000e-01,-2.956250000000000000e+01,-2.481250000000000000e+01,-6.368750000000000000e+01
1.799999999999999933e-01,-3.000000000000000000e+00,-2.000000000000000000e+00,-1.000000000000000000e+00,-3.000000000000000000e+00,-8.000000000000000000e+00,-3.000000000000000000e+00,-2.000000000000000000e+00,-3.000000000000000000e+00,5.356445312500000000e-01,2.239990234375000000e-01,-3.519287109375000000e-01,-7.341918945312500000e-01,1.118164062500000000e-01,-9.980468750000000000e-01,2.714843750000000000e-01,-2.956250000000000000e+01,-2.481250000000000000e+01,-6.368750000000000000e+01
1.849999999999999978e-01,-3.000000000000000000e+00,-2.000000000000000000e+00,-1.000000000000000000e+00,-3.000000000000000000e+00,-8.000000000000000000e+00,-3.000000000000000000e+00,-2.000000000000000000e+00,-3.000000000000000000e+00,5.356445312500000000e-01,2.239990234375000000e-01,-3.519287109375000000e-01,-7.341918945312500000e-01,1.118164062500000000e-01,-9.980468750000000000e-01,2.714843750000000000e-01,-2.956250000000000000e+01,-2.481250000000000000e+01,-6.368750000000000000e+01
1.900000000000000022e-01,0.000000000000000000e+00,2.000000000000000000e+00,-1.000000000000000000e+00,1.000000000000000000e+00,2.000000000000000000e+00,1.300000000000000000e+01,6.000000000000000000e+00,0.000000000000000000e+00,5.347900390625000000e-01,2.357177734375000000e-01,-3.438720703125000000e-01,-7.349853515625000000e-01,9.326171875000000000e-02,-9.819335937500000000e-01,3.076171875000000000e-01,-2.681250000000000000e+01,-2.293750000000000000e+01,-6.493750000000000000e+01
1.950000000000000899e-01,0.000000000000000000e+00,2.000000000000000000e+00,-1.000000000000000000e+00,1.000000000000000000e+00,2.000000000000000000e+00,1.300000000000000000e+01,6.000000000000000000e+00,0.000000000000000000e+00,5.347900390625000000e-01,2.357177734375000000e-01,-3.438720703125000000e-01,-7.349853515625000000e-01,9.326171875000000000e-02,-9.819335937500000000e-01,3.076171875000000000e-01,-2.681250000000000000e+01,-2.293750000000000000e+01,-6.493750000000000000e+01
2.000000000000000944e-01,0.000000000000000000e+00,2.000000000000000000e+00,-1.000000000000000000e+00,1.000000000000000000e+00,2.000000000000000000e+00,1.300000000000000000e+01,6.000000000000000000e+00,0.000000000000000000e+00,5.347900390625000000e-01,2.357177734375000000e-01,-3.438720703125000000e-01,-7.349853515625000000e-01,9.326171875000000000e-02,-9.819335937500000000e-01,3.076171875000000000e-01,-2.681250000000000000e+01,-2.293750000000000000e+01,-6.493750000000000000e+01
2.050000000000000988e-01,0.000000000000000000e+00,2.000000000000000000e+00,-1.000000000000000000e+00,1.000000000000000000e+00,2.000000000000000000e+00,1.300000000000000000e+01,6.000000000000000000e+00,0.000000000000000000e+00,5.347900390625000000e-01,2.357177734375000000e-01,-3.438720703125000000e-01,-7.349853515625000000e-01,9.326171875000000000e-02,-9.819335937500000000e-01,3.076171875000000000e-01,-2.681250000000000000e+01,-2.293750000000000000e+01,-6.493750000000000000e+01
2.100000000000001033e-01,0.000000000000000000e+00,0.000000000000000000e+00,1.000000000000000000e+00,-2.000000000000000000e+00,-6.000000000000000000e+00,-1.400000000000000000e+01,-5.000000000000000000e+00,-3.000000000000000000e+00,5.347900390625000000e-01,2.357177734375000000e-01,-3.438720703125000000e-01,-7.349853515625000000e-01,9.326171875000000000e-02,-9.819335937500000000e-01,3.076171875000000000e-01,-2.681250000000000000e+01,-2.293750000000000000e+01,-6.493750000000000000e+01
2.150000000000001077e-01,0.000000000000000000e+00,0.000000000000000000e+00,1.000000000000000000e+00,-2.000000000000000000e+00,-6.000000000000000000e+00,-1.400000000000000000e+01,-5.000000000000000000e+00,-3.000000000000000000e+00,5.325927734375000000e-01,2.461547851562500000e-01,-3.364257812500000000e-01,-7.365722656250000000e-01,6.787109375000000000e-02,-8.803710937500000000e-01,3.388671875000000000e-01,-1.968750000000000000e+01,-2.187500000000000000e+01,-6.531250000000000000e+01
2.200000000000001121e-01,-1.000000000000000000e+00,-3.000000000000000000e+00,-1.000000000000000000e+00,0.000000000000000000e+00,6.000000000000000000e+00,1.000000000000000000e+00,2.000000000000000000e+00,0.000000000000000000e+00,5.325927734375000000e-01,2.461547851562500000e-01,-3.364257812500000000e-01,-7.365722656250000000e-01,6.787109375000000000e-02,-8.803710937500000000e-01,3.388671875000000000e-01,-1.968750000000000000e+01,-2.187500000000000000e+01,-6.531250000000000000e+01
2.250000000000000888e-01,-1.000000000000000000e+00,-3.000000000000000000e+00,-1.000000000000000000e+00,0.000000000000000000e+00,6.000000000000000000e+00,1.000000000000000000e+00,2.000000000000000000e+00,0.000000000000000000e+00,5.325927734375000000e-01,2.461547851562500000e-01,-3.364257812500000000e-01,-7.365722656250000000e-01,6.787109375000000000e-02,-8.803710937500000000e-01,3.388671875000000000e-01,-1.968750000000000000e+01,-2.187500000000000000e+01,-6.531250000000000000e+01
2.300000000000000933e-01,-1.000000000000000000e+00,-3.000000000000000000e+00,-1.000000000000000000e+00,0.000000000000000000e+00,6.000000000000000000e+00,1.000000000000000000e+00,2.000000000000000000e+00,0.000000000000000000e+00,5.325927734375000000e-01,2.461547851562500000e-01,-3.364257812500000000e-01,-7.365722656250000000e-01,6.787109375000000000e-02,-8.803710937500000000e-01,3.388671875000000000e-01,-1.968750000000000000e+01,-2.187500000000000000e+01,-6.531250000000000000e+01
2.350000000000000977e-01,-1.000000000000000000e+00,-3.000000000000000000e+00,-1.000000000000000000e+00,0.000000000000000000e+00,6.000000000000000000e+00,1.000000000000000000e+00,2.000000000000000000e+00,0.000000000000000000e+00,5.325927734375000000e-01,2.461547851562500000e-01,-3.364257812500000000e-01,-7.365722656250000000e-01,6.787109375000000000e-02,-8.803710937500000000e-01,3.388671875000000000e-01,-1.968750000000000000e+01,-2.187500000000000000e+01,-6.531250000000000000e+01
2.400000000000001021e-01,1.000000000000000000e+00,0.000000000000000000e+00,2.000000000000000000e+00,0.000000000000000000e+00,-6.000000000000000000e+00,0.000000000000000000e+00,-1.000000000000000000e+00,3.000000000000000000e+00,5.325927734375000000e-01,2.461547851562500000e-01,-3.364257812500000000e-01,-7.365722656250000000e-01,6.787109375000000000e-02,-8.803710937500000000e-01,3.388671875000000000e-01,-1.968750000000000000e+01,-2.187500000000000000e+01,-6.531250000000000000e+01
2.450000000000001066e-01,1.000000000000000000e+00,0.000000000000000000e+00,2.000000000000000000e+00,0.000000000000000000e+00,-6.000000000000000000e+00,0.000000000000000000e+00,-1.000000000000000000e+00,3.000000000000000000e+00,5.295410156250000000e-01,2.553100585937500000e-01,-3.300170898437500000e-01,-7.385864257812500000e-01,5.175781250000000000e-02,-7.597656250000000000e-01,3.696289062500000000e-01,-1.600000000000000000e+01,-2.150000000000000000e+01,-6.125000000000000000e+01
2.500000000000001110e-01,0.000000000000000000e+00,-3.000000000000000000e+00,-2.000000000000000000e+00,-2.000000000000000000e+00,-3.000000000000000000e+00,-7.000000000000000000e+00,-3.000000000000000000e+00,2.000000000000000000e+00,5.295410156250000000e-01,2.553100585937500000e-01,-3.300170898437500000e-01,-7.385864257812500000e-01,5.175781250000000000e-02,-7.597656250000000000e-01,3.696289062500000000e-01,-1.600000000000000000e+01,-2.150000000000000000e+01,-6.125000000000000000e+01
2.550000000000001155e-01,0.000000000000000000e+00,-3.000000000000000000e+00,-2.000000000000000000e+00,-2.000000000000000000e+00,-3.000000000000000000e+00,-7.000000000000000000e+00,-3.000000000000000000e+00,2.000000000000000000e+00,5.295410156250000000e-01,2.553100585937500000e-01,-3.300170898437500000e-01,-7.385864257812500000e-01,5.175781250000000000e-02,-7.597656250000000000e-01,3.696289062500000000e-01,-1.600000000000000000e+01,-2.150000000000000000e+01,-6.125000000000000000e+01
2.600000000000001199e-01,1.000000000000000000e+00,-2.000000000000000000e+00,0.000000000000000000e+00,-3.000000000000000000e+00,-3.000000000000000000e+00,-3.000000000000000000e+00,-5.000000000000000000e+00,-3.000000000000000000e+00,5.295410156250000000e-01,2.553100585937500000e-01,-3.300170898437500000e-01,-7.385864257812500000e-01,5.175781250000000000e-02,-7.597656250000000000e-01,3.696289062500000000e-01,-1.600000000000000000e+01,-2.150000000000000000e+01,-6.125000000000000000e+01
2.650000000000001243e-01,1.000000000000000000e+00,-2.000000000000000000e+00,0.000000000000000000e+00,-3.000000000000000000e+00,-3.000000000000000000e+00,-3.000000000000000000e+00,-5.000000000000000000e+00,-3.000000000000000000e+00,5.295410156250000000e-01,2.553100585937500000e-01,-3.300170898437500000e-01,-7.385864257812500000e-01,5.175781250000000000e-02,-7.597656250000000000e-01,3.696289062500000000e-01,-1.600000000000000000e+01,-2.150000000000000000e+01,-6.125000000000000000e+01
2.700000000000000733e-01,1.000000000000000000e+00,-2.000000000000000000e+00,0.000000000000000000e+00,-3.000000000000000000e+00,-3.000000000000000000e+00,-3.000000000000000000e+00,-5.000000000000000000e+00,-3.000000000000000000e+00,5.295410156250000000e-01,2.553100585937500000e-01,-3.300170898437500000e-01,-7.385864257812500000e-01,5.175781250000000000e-02,-7.597656250000000000e-01,3.696289062500000000e-01,-1.600000000000000000e+01,-2.150000000000000000e+01,-6.125000000000000000e+01
2.750000000000000777e-01,1.000000000000000000e+00,-2.000000000000000000e+00,0.000000000000000000e+00,-3.000000000000000000e+00,-3.000000000000000000e+00,-3.000000000000000000e+00,-5.000000000000000000e+00,-3.000000000000000000e+00,5.295410156250000000e-01,2.553100585937500000e-01,-3.300170898437500000e-01,-7.385864257812500000e-01,5.175781250000000000e-02,-7.597656250000000000e-01,3.696289062500000000e-01,-1.600000000000000000e+01,-2.150000000000000000e+01,-6.125000000000000000e+01
2.800000000000000822e-01,-3.000000000000000000e+00,-2.000000000000000000e+00,-2.000000000000000000e+00,-2.000000000000000000e+00,1.000000000000000000e+00,-2.000000000000000000e+00,-1.000000000000000000e+00,-1.000000000000000000e+00,5.260620117187500000e-01,2.630004882812500000e-01,-3.246459960937500000e-01,-7.407226562500000000e-01,3.564453125000000000e-02,-6.923828125000000000e-01,3.803710937500000000e-01,-1.162500000000000000e+01,-2.043750000000000000e+01,-5.506250000000000000e+01
2.850000000000000866e-01,-3.000000000000000000e+00,-2.000000000000000000e+00,-2.000000000000000000e+00,-2.000000000000000000e+00,1.000000000000000000e+00,-2.000000000000000000e+00,-1.000000000000000000e+00,-1.000000000000000000e+00,5.260620117187500000e-01,2.630004882812500000e-01,-3.246459960937500000e-01,-7.407226562500000000e-01,3.564453125000000000e-02,-6.923828125000000000e-01,3.803710937500000000e-01,-1.162500000000000000e+01,-2.043750000000000000e+01,-5.506250000000000000e+01
2.900000000000000910e-01,0.000000000000000000e+00,-2.000000000000000000e+00,1.000000000000000000e+00,0.000000000000000000e+00,0.000000000000000000e+00,-1.000000000000000000e+00,-1.000000000000000000e+00,1.000000000000000000e+00,5.260620117187500000e-01,2.630004882812500000e-01,-3.246459960937500000e-01,-7.407226562500000000e-01,3.564453125000000000e-02,-6.923828125000000000e-01,3.803710937500000000e-01,-1.162500000000000000e+01,-2.043750000000000000e+01,-5.506250000000000000e+01
2.950000000000000955e-01,-3.000000000000000000e+00,-2.000000000000000000e+00,-2.000000000000000000e+00,1.000000000000000000e+00,1.000000000000000000e+00,0.000000000000000000e+00,0.000000000000000000e+00,-3.000000000000000000e+00,5.223999023437500000e-01,2.692871093750000000e-01,-3.202514648437500000e-01,-7.429809570312500000e-01,8.789062500000000000e-03,-6.459960937500000000e-01,3.740234375000000000e-01,-6.875000000000000000e+00,-1.831250000000000000e+01,-4.993750000000000000e+01
3.000000000000000999e-01,-3.000000000000000000e+00,-2.000000000000000000e+00,-2.000000000000000000e+00,1.000000000000000000e+00,1.000000000000000000e+00,0.000000000000000000e+00,0.000000000000000000e+00,-3.000000000000000000e+00,5.223999023437500000e-01,2.692871093750000000e-01,-3.202514648437500000e-01,-7.429809570312500000e-01,8.789062500000000000e-03,-6.459960937500000000e-01,3.740234375000000000e-01,-6.875000000000000000e+00,-1.831250000000000000e+01,-4.993750000000000000e+01
3.050000000000001044e-01,-3.000000000000000000e+00,-2.000000000000000000e+00,-2.000000000000000000e+00,1.000000000000000000e+00,1.000000000000000000e+00,0.000000000000000000e+00,0.000000000000000000e+00,-3.000000000000000000e+00,5.223999023437500000e-01,2.692871093750000000e-01,-3.202514648437500000e-01,-7.429809570312500000e-01,8.789062500000000000e-03,-6.459960937500000000e-01,3.740234375000000000e-01,-6.875000000000000000e+00,-1.831250000000000000e+01,-4.993750000000000000e+01
3.100000000000001088e-01,-3.000000000000000000e+00,-2.000000000000000000e+00,-2.000000000000000000e+00,1.000000000000000000e+00,1.000000000000000000e+00,0.000000000000000000e+00,0.000000000000000000e+00,-3.000000000000000000e+00,5.223999023437500000e-01,2.692871093750000000e-01,-3.202514648437500000e-01,-7.429809570312500000e-01,8.789062500000000000e-03,-6.459960937500000000e-01,3.740234375000000000e-01,-6.875000000000000000e+00,-1.831250000000000000e+01,-4.993750000000000000e+01
3.150000000000001132e-01,-2.000000000000000000e+00,-3.000000000000000000e+00,-3.000000000000000000e+00,-1.000000000000000000e+00,0.000000000000000000e+00,0.000000000000000000e+00,-2.000000000000000000e+00,-1.000000000000000000e+00,5.223999023437500000e-01,2.692871093750000000e-01,-3.202514648437500000e-01,-7.429809570312500000e-01,8.789062500000000000e-03,-6.459960937500000000e-01,3.740234375000000000e-01,-6.875000000000000000e+00,-1.831250000000000000e+01,-4.993750000000000000e+01
3.200000000000001732e-01,0.000000000000000000e+00,-2.000000000000000000e+00,-2.000000000000000000e+00,-1.000000000000000000e+00,0.000000000000000000e+00,-1.000000000000000000e+00,1.000000000000000000e+00,0.000000000000000000e+00,5.184326171875000000e-01,2.742919921875000000e-01,-3.164672851562500000e-01,-7.455444335937500000e-01,-7.812500000000000000e-03,-6.445312500000000000e-01,3.476562500000000000e-01,3.750000000000000000e-01,-1.550000000000000000e+01,-4.593750000000000000e+01
3.250000000000001776e-01,0.000000000000000000e+00,-2.000000000000000000e+00,-2.000000000000000000e+00,-1.000000000000000000e+00,0.000000000000000000e+00,-1.000000000000000000e+00,1.000000000000000000e+00,0.000000000000000000e+00,5.184326171875000000e-01,2.742919921875000000e-01,-3.164672851562500000e-01,-7.455444335937500000e-01,-7.812500000000000000e-03,-6.445312500000000000e-01,3.476562500000000000e-01,3.750000000000000000e-01,-1.550000000000000000e+01,-4.593750000000000000e+01
3.300000000000001821e-01,0.000000000000000000e+00,-2.000000000000000000e+00,-2.000000000000000000e+00,-1.000000000000000000e+00,0.000000000000000000e+00,-1.000000000000000000e+00,1.000000000000000000e+00,0.000000000000000000e+00,5.184326171875000000e-01,2.742919921875000000e-01,-3.164672851562500000e-01,-7.455444335937500000e-01,-7.812500000000000000e-03,-6.445312500000000000e-01,3.476562500000000000e-01,3.750000000000000000e-01,-1.550000000000000000e+01,-4.593750000000000000e+01
3.350000000000001865e-01,0.000000000000000000e+00,-2.000000000000000000e+00,-2.000000000000000000e+00,-1.000000000000000000e+00,0.000000000000000000e+00,-1.000000000000000000e+00,1.000000000000000000e+00,0.000000000000000000e+00,5.184326171875000000e-01,2.742919921875000000e-01,-3.164672851562500000e-01,-7.455444335937500000e-01,-7.812500000000000000e-03,-6.445312500000000000e-01,3.476562500000000000e-01,3.750000000000000000e-01,-1.550000000000000000e+01,-4.593750000000000000e+01
3.400000000000001910e-01,0.000000000000000000e+00,-2.000000000000000000e+00,-2.000000000000000000e+00,-1.000000000000000000e+00,0.000000000000000000e+00,-1.000000000000000000e+00,1.000000000000000000e+00,0.000000000000000000e+00,5.184326171875000000e-01,2.742919921875000000e-01,-3.164672851562500000e-01,-7.455444335937500000e-01,-7.812500000000000000e-03,-6.445312500000000000e-01,3.476562500000000000e-01,3.750000000000000000e-01,-1.550000000000000000e+01,-4.593750000000000000e+01
3.450000000000001954e-01,-2.000000000000000000e+00,0.000000000000000000e+00,0.000000000000000000e+00,2.000000000000000000e+00,0.000000000000000000e+00,2.000000000000000000e+00,0.000000000000000000e+00,-1.000000000000000000e+00,5.184326171875000000e-01,2.742919921875000000e-01,-3.164672851562500000e-01,-7.455444335937500000e-01,-7.812500000000000000e-03,-6.445312500000000000e-01,3.476562500000000000e-01,3.750000000000000000e-01,-1.550000000000000000e+01,-4.593750000000000000e+01
3.500000000000001998e-01,-1.000000000000000000e+00,-1.000000000000000000e+00,-3.000000000000000000e+00,-1.000000000000000000e+00,-6.000000000000000000e+00,-7.000000000000000000e+00,-6.000000000000000000e+00,-1.000000000000000000e+00,5.184326171875000000e-01,2.742919921875000000e-01,-3.164672851562500000e-01,-7.455444335937500000e-01,-7.812500000000000000e-03,-6.445312500000000000e-01,3.476562500000000000e-01,3.750000000000000000e-01,-1.550000000000000000e+01,-4.593750000000000000e+01
3.550000000000002043e-01,-1.000000000000000000e+00,-1.000000000000000000e+00,-3.000000000000000000e+00,-1.000000000000000000e+00,-6.000000000000000000e+00,-7.000000000000000000e+00,-6.000000000000000000e+00,-1.000000000000000000e+00,5.184326171875000000e-01,2.742919921875000000e-01,-3.164672851562500000e-01,-7.455444335937500000e-01,-7.812500000000000000e-03,-6.445312500000000000e-01,3.476562500000000000e-01,3.750000000000000000e-01,-1.550000000000000000e+01,-4.593750000000000000e+01
3.600000000000002087e-01,0.000000000000000000e+00,-1.000000000000000000e+00,0.000000000000000000e+00,-1.000000000000000000e+00,-4.000000000000000000e+00,-5.000000000000000000e+00,-5.000000000000000000e+00,-3.000000000000000000e+00,5.137939453125000000e-01,2.778930664062500000e-01,-3.136596679687500000e-01,-7.486572265625000000e-01,-1.416015625000000000e-02,-6.245117187500000000e-01,3.232421875000000000e-01,1.068750000000000000e+01,-1.287500000000000000e+01,-4.081250000000000000e+01
3.650000000000002132e-01,0.000000000000000000e+00,-1.000000000000000000e+00,0.000000000000000000e+00,-1.000000000000000000e+00,-4.000000000000000000e+00,-5.000000000000000000e+00,-5.000000000000000000e+00,-3.000000000000000000e+00,5.137939453125000000e-01,2.778930664062500000e-01,-3.136596679687500000e-01,-7.486572265625000000e-01,-1.416015625000000000e-02,-6.245117187500000000e-01,3.232421875000000000e-01,1.068750000000000000e+01,-1.287500000000000000e+01,-4.081250000000000000e+01
3.700000000000002176e-01,-2.000000000000000000e+00,-1.000000000000000000e+00,2.000000000000000000e+00,0.000000000000000000e+00,2.000000000000000000e+00,4.000000000000000000e+00,0.000000000000000000e+00,-2.000000000000000000e+00,5.137939453125000000e-01,2.778930664062500000e-01,-3.136596679687500000e-01,-7.486572265625000000e-01,-1.416015625000000000e-02,-6.245117187500000000e-01,3.232421875000000000e-01,1.068750000000000000e+01,-1.287500000000000000e+01,-4.081250000000000000e+01
3.750000000000002220e-01,1.000000000000000000e+00,1.000000000000000000e+00,-2.000000000000000000e+00,-3.000000000000000000e+00,-2.000000000000000000e+00,2.000000000000000000e+00,1.000000000000000000e+00,0.000000000000000000e+00,5.078125000000000000e-01,2.801513671875000000e-01,-3.119506835937500000e-01,-7.525024414062500000e-01,-1.269531250000000000e-02,-5.815429687500000000e-01,2.934570312500000000e-01,2.418750000000000000e+01,-1.168750000000000000e+01,-3.543750000000000000e+01
3.800000000000002265e-01,1.000000000000000000e+00,1.000000000000000000e+00,-2.000000000000000000e+00,-3.000000000000000000e+00,-2.000000000000000000e+00,2.000000000000000000e+00,1.000000000000000000e+00,0.000000000000000000e+00,5.078125000000000000e-01,2.801513671875000000e-01,-3.119506835937500000e-01,-7.525024414062500000e-01,-1.269531250000000000e-02,-5.815429687500000000e-01,2.934570312500000000e-01,2.418750000000000000e+01,-1.168750000000000000e+01,-3.543750000000000000e+01
3.850000000000001754e-01,-3.000000000000000000e+00,0.000000000000000000e+00,-4.000000000000000000e+00,-2.000000000000000000e+00,-1.000000000000000000e+00,-2.000000000000000000e+00,1.000000000000000000e+00,-1.000000000000000000e+00,5.010986328125000000e-01,2.813720703125000000e-01,-3.117065429687500000e-01,-7.567138671875000000e-01,7.812500000000000000e-03,-5.341796875000000000e-01,2.797851562500000000e-01,3.300000000000000000e+01,-1.181250000000000000e+01,-2.687500000000000000e+01
3.900000000000001799e-01,-3.000000000000000000e+00,0.000000000000000000e+00,-4.000000000000000000e+00,-2.000000000000000000e+00,-1.000000000000000000e+00,-2.000000000000000000e+00,1.000000000000000000e+00,-1.000000000000000000e+00,5.010986328125000000e-01,2.813720703125000000e-01,-3.117065429687500000e-01,-7.567138671875000000e-01,7.812500000000000000e-03,-5.341796875000000000e-01,2.797851562500000000e-01,3.300000000000000000e+01,-1.181250000000000000e+01,-2.687500000000000000e+01
3.950000000000001843e-01,-1.000000000000000000e+00,-2.000000000000000000e+00,-3.000000000000000000e+00,-3.000000000000000000e+00,-8.000000000000000000e+00,-1.400000000000000000e+01,-1.000000000000000000e+00,-3.000000000000000000e+00,5.010986328125000000e-01,2.813720703125000000e-01,-3.117065429687500000e-01,-7.567138671875000000e-01,7.812500000000000000e-03,-5.341796875000000000e-01,2.797851562500000000e-01,3.300000000000000000e+01,-1.181250000000000000e+01,-2.687500000000000000e+01
4.000000000000001887e-01,-1.000000000000000000e+00,-2.000000000000000000e+00,-3.000000000000000000e+00,-3.000000000000000000e+00,-8.000000000000000000e+00,-1.400000000000000000e+01,-1.000000000000000000e+00,-3.000000000000000000e+00,5.010986328125000000e-01,2.813720703125000000e-01,-3.117065429687500000e-01,-7.567138671875000000e-01,7.812500000000000000e-03,-5.341796875000000000e-01,2.797851562500000000e-01,3.300000000000000000e+01,-1.181250000000000000e+01,-2.687500000000000000e+01
4.050000000000001932e-01,-1.000000000000000000e+00,-2.000000000000000000e+00,-3.000000000000000000e+00,-3.000000000000000000e+00,-8.000000000000000000e+00,-1.400000000000000000e+01,-1.000000000000000000e+00,-3.000000000000000000e+00,5.010986328125000000e-01,2.813720703125000000e-01,-3.117065429687500000e-01,-7.567138671875000000e-01,7.812500000000000000e-03,-5.341796875000000000e-01,2.797851562500000000e-01,3.300000000000000000e+01,-1.181250000000000000e+01,-2.687500000000000000e+01
4.100000000000001976e-01,-1.000000000000000000e+00,-2.000000000000000000e+00,-3.000000000000000000e+00,-3.000000000000000000e+00,-8.000000000000000000e+00,-1.400000000000000000e+01,-1.000000000000000000e+00,-3.000000000000000000e+00,5.010986328125000000e-01,2.813720703125000000e-01,-3.117065429687500000e-01,-7.567138671875000000e-01,7.812500000000000000e-03,-5.341796875000000000e-01,2.797851562500000000e-01,3.300000000000000000e+01,-1.181250000000000000e+01,-2.687500000000000000e+01
4.150000000000002021e-01,-1.000000000000000000e+00,-2.000000000000000000e+00,-3.000000000000000000e+00,-3.000000000000000000e+00,-8.000000000000000000e+00,-1.400000000000000000e+01,-1.000000000000000000e+00,-3.000000000000000000e+00,5.010986328125000000e-01,2.813720703125000000e-01,-3.117065429687500000e-01,-7.567138671875000000e-01,7.812500000000000000e-03,-5.341796875000000000e-01,2.797851562500000000e-01,3.300000000000000000e+01,-1.181250000000000000e+01,-2.687500000000000000e+01
4.200000000000002065e-01,-2.000000000000000000e+00,-1.000000000000000000e+00,0.000000000000000000e+00,-6.000000000000000000e+00,-1.100000000000000000e+01,-9.000000000000000000e+00,-1.000000000000000000e+01,-3.000000000000000000e+00,4.945678710937500000e-01,2.823486328125000000e-01,-3.126831054687500000e-01,-7.601928710937500000e-01,3.222656250000000000e-02,-5.307617187500000000e-01,2.470703125000000000e-01,3.512500000000000000e+01,-1.443750000000000000e+01,-1.768750000000000000e+01
4.250000000000002109e-01,1.000000000000000000e+00,-2.000000000000000000e+00,-1.000000000000000000e+00,-1.000000000000000000e+00,5.000000000000000000e+00,7.000000000000000000e+00,8.000000000000000000e+00,-1.000000000000000000e+00,4.945678710937500000e-01,2.823486328125000000e-01,-3.126831054687500000e-01,-7.601928710937500000e-01,3.222656250000000000e-02,-5.307617187500000000e-01,2.470703125000000000e-01,3.512500000000000000e+01,-1.443750000000000000e+01,-1.768750000000000000e+01
4.300000000000002154e-01,-2.000000000000000000e+00,-1.000000000000000000e+00,-4.000000000000000000e+00,-4.000000000000000000e+00,0.000000000000000000e+00,2.100000000000000000e+01,-4.000000000000000000e+00,0.000000000000000000e+00,4.886474609375000000e-01,2.834472656250000000e-01,-3.141479492187500000e-01,-7.630615234375000000e-01,8.349609375000000000e-02,-5.786132812500000000e-01,2.216796875000000000e-01,3.443750000000000000e+01,-1.468750000000000000e+01,-1.093750000000000000e+01
4.350000000000002753e-01,-2.000000000000000000e+00,-1.000000000000000000e+00,-4.000000000000000000e+00,-4.000000000000000000e+00,0.000000000000000000e+00,2.100000000000000000e+01,-4.000000000000000000e+00,0.000000000000000000e+00,4.886474609375000000e-01,2.834472656250000000e-01,-3.141479492187500000e-01,-7.630615234375000000e-01,8.349609375000000000e-02,-5.786132812500000000e-01,2.216796875000000000e-01,3.443750000000000000e+01,-1.468750000000000000e+01,-1.093750000000000000e+01
4.400000000000002798e-01,-2.000000000000000000e+00,-1.000000000000000000e+00,-4.000000000000000000e+00,-4.000000000000000000e+00,0.000000000000000000e+00,2.100000000000000000e+01,-4.000000000000000000e+00,0.000000000000000000e+00,4.886474609375000000e-01,2.834472656250000000e-01,-3.141479492187500000e-01,-7.630615234375000000e-01,8.349609375000000000e-02,-5.786132812500000000e-01,2.216796875000000000e-01,3.443750000000000000e+01,-1.468750000000000000e+01,-1.093750000000000000e+01
4.450000000000002842e-01,-1.000000000000000000e+00,0.000000000000000000e+00,-2.000000000000000000e+00,0.000000000000000000e+00,5.000000000000000000e+00,6.000000000000000000e+00,1.000000000000000000e+00,-2.000000000000000000e+00,4.886474609375000000e-01,2.834472656250000000e-01,-3.141479492187500000e-01,-7.630615234375000000e-01,8.349609375000000000e-02,-5.786132812500000000e-01,2.216796875000000000e-01,3.443750000000000000e+01,-1.468750000000000000e+01,-1.093750000000000000e+01
4.500000000000002887e-01,-2.000000000000000000e+00,-1.000000000000000000e+00,-1.000000000000000000e+00,0.000000000000000000e+00,-1.000000000000000000e+00,-8.000000000000000000e+00,-2.000000000000000000e+00,-4.000000000000000000e+00,4.826049804687500000e-01,2.840576171875000000e-01,-3.159790039062500000e-01,-7.658691406250000000e-01,1.630859375000000000e-01,-6.166992187500000000e-01,1.845703125000000000e-01,4.050000000000000000e+01,-1.150000000000000000e+01,-3.875000000000000000e+00
4.550000000000002931e-01,-2.000000000000000000e+00,-1.000000000000000000e+00,-2.000000000000000000e+00,-1.000000000000000000e+00,-1.100000000000000000e+01,-1.800000000000000000e+01,-8.000000000000000000e+00,-2.000000000000000000e+00,4.826049804687500000e-01,2.840576171875000000e-01,-3.159790039062500000e-01,-7.658691406250000000e-01,1.630859375000000000e-01,-6.166992187500000000e-01,1.845703125000000000e-01,4.050000000000000000e+01,-1.150000000000000000e+01,-3.875000000000000000e+00
4.600000000000002975e-01,-2.000000000000000000e+00,-1.000000000000000000e+00,-2.000000000000000000e+00,-1.000000000000000000e+00,-1.100000000000000000e+01,-1.800000000000000000e+01,-8.000000000000000000e+00,-2.000000000000000000e+00,4.826049804687500000e-01,2.840576171875000000e-01,-3.159790039062500000e-01,-7.658691406250000000e-01,1.630859375000000000e-01,-6.166992187500000000e-01,1.845703125000000000e-01,4.050000000000000000e+01,-1.150000000000000000e+01,-3.875000000000000000e+00
4.650000000000003020e-01,-2.000000000000000000e+00,-1.000000000000000000e+00,-2.000000000000000000e+00,-1.000000000000000000e+00,-1.100000000000000000e+01,-1.800000000000000000e+01,-8.000000000000000000e+00,-2.000000000000000000e+00,4.826049804687500000e-01,2.840576171875000000e-01,-3.159790039062500000e-01,-7.658691406250000000e-01,1.630859375000000000e-01,-6.166992187500000000e-01,1.845703125000000000e-01,4.050000000000000000e+01,-1.150000000000000000e+01,-3.875000000000000000e+00
4.700000000000003064e-01,-2.000000000000000000e+00,-1.000000000000000000e+00,-2.000000000000000000e+00,-1.000000000000000000e+00,-1.100000000000000000e+01,-1.800000000000000000e+01,-8.000000000000000000e+00,-2.000000000000000000e+00,4.826049804687500000e-01,2.840576171875000000e-01,-3.159790039062500000e-01,-7.658691406250000000e-01,1.630859375000000000e-01,-6.166992187500000000e-01,1.845703125000000000e-01,4.050000000000000000e+01,-1.150000000000000000e+01,-3.875000000000000000e+00
4.750000000000003109e-01,-2.000000000000000000e+00,-1.000000000000000000e+00,-2.000000000000000000e+00,-1.000000000000000000e+00,-1.100000000000000000e+01,-1.800000000000000000e+01,-8.000000000000000000e+00,-2.000000000000000000e+00,4.826049804687500000e-01,2.840576171875000000e-01,-3.159790039062500000e-01,-7.658691406250000000e-01,1.630859375000000000e-01,-6.166992187500000000e-01,1.845703125000000000e-01,4.050000000000000000e+01,-1.150000000000000000e+01,-3.875000000000000000e+00
4.800000000000003153e-01,-1.000000000000000000e+00,-2.000000000000000000e+00,1.000000000000000000e+00,2.000000000000000000e+00,1.000000000000000000e+00,-8.000000000000000000e+00,0.000000000000000000e+00,0.000000000000000000e+00,4.759521484375000000e-01,2.839965820312500000e-01,-3.177490234375000000e-01,-7.692871093750000000e-01,2.514648437500000000e-01,-6.474609375000000000e-01,1.596679687500000000e-01,4.856250000000000000e+01,-5.875000000000000000e+00,1.000000000000000000e+00
4.850000000000003197e-01,-1.000000000000000000e+00,-2.000000000000000000e+00,1.000000000000000000e+00,2.000000000000000000e+00,1.000000000000000000e+00,-8.000000000000000000e+00,0.000000000000000000e+00,0.000000000000000000e+00,4.759521484375000000e-01,2.839965820312500000e-01,-3.177490234375000000e-01,-7.692871093750000000e-01,2.514648437500000000e-01,-6.474609375000000000e-01,1.596679687500000000e-01,4.856250000000000000e+01,-5.875000000000000000e+00,1.000000000000000000e+00
4.900000000000003242e-01,-1.000000000000000000e+00,-3.000000000000000000e+00,-3.000000000000000000e+00,-2.000000000000000000e+00,-4.000000000000000000e+00,-1.100000000000000000e+01,0.000000000000000000e+00,-1.000000000000000000e+00,4.759521484375000000e-01,2.839965820312500000e-01,-3.177490234375000000e-01,-7.692871093750000000e-01,2.514648437500000000e-01,-6.474609375000000000e-01,1.596679687500000000e-01,4.856250000000000000e+01,-5.875000000000000000e+00,1.000000000000000000e+00
4.950000000000002731e-01,-1.000000000000000000e+00,-3.000000000000000000e+00,-3.000000000000000000e+00,-2.000000000000000000e+00,-4.000000000000000000e+00,-1.100000000000000000e+01,0.000000000000000000e+00,-1.000000000000000000e+00,4.759521484375000000e-01,2.839965820312500000e-01,-3.177490234375000000e-01,-7.692871093750000000e-01,2.514648437500000000e-01,-6.474609375000000000e-01,1.596679687500000000e-01,4.856250000000000000e+01,-5.875000000000000000e+00,1.000000000000000000e+00
5.000000000000003331e-01,-1.000000000000000000e+00,-2.000000000000000000e+00,-3.000000000000000000e+00,-4.000000000000000000e+00,-9.000000000000000000e+00,-7.000000000000000000e+00,-4.000000000000000000e+00,-2.000000000000000000e+00,4.697875976562500000e-01,2.832031250000000000e-01,-3.194580078125000000e-01,-7.727050781250000000e-01,3.193359375000000000e-01,-6.772460937500000000e-01,1.250000000000000000e-01,5.162500000000000000e+01,5.000000000000000000e-01,7.000000000000000000e+00
5.050000000000003375e-01,-1.000000000000000000e+00,-2.000000000000000000e+00,-3.000000000000000000e+00,-4.000000000000000000e+00,-9.000000000000000000e+00,-7.000000000000000000e+00,-4.000000000000000000e+00,-2.000000000000000000e+00,4.697875976562500000e-01,2.832031250000000000e-01,-3.194580078125000000e-01,-7.727050781250000000e-01,3.193359375000000000e-01,-6.772460937500000000e-01,1.250000000000000000e-01,5.162500000000000000e+01,5.000000000000000000e-01,7.000000000000000000e+00
5.100000000000003419e-01,-1.000000000000000000e+00,-2.000000000000000000e+00,-3.000000000000000000e+00,-4.000000000000000000e+00,-9.000000000000000000e+00,-7.000000000000000000e+00,-4.000000000000000000e+00,-2.000000000000000000e+00,4.697875976562500000e-01,2.832031250000000000e-01,-3.194580078125000000e-01,-7.727050781250000000e-01,3.193359375000000000e-01,-6.772460937500000000e-01,1.250000000000000000e-01,5.162500000000000000e+01,5.000000000000000000e-01,7.000000000000000000e+00
5.150000000000003464e-01,-1.000000000000000000e+00,-2.000000000000000000e+00,-2.000000000000000000e+00,-1.000000000000000000e+00,1.000000000000000000e+00,-1.200000000000000000e+01,2.000000000000000000e+00,-1.000000000000000000e+00,4.641113281250000000e-01,2.814941406250000000e-01,-3.211669921875000000e-01,-7.760009765625000000e-01,3.627929687500000000e-01,-6.977539062500000000e-01,1.108398437500000000e-01,5.275000000000000000e+01,7.250000000000000000e+00,1.300000000000000000e+01
5.200000000000003508e-01,-1.000000000000000000e+00,0.000000000000000000e+00,0.000000000000000000e+00,1.000000000000000000e+00,4.000000000000000000e+00,2.000000000000000000e+00,-1.000000000000000000e+00,-1.000000000000000000e+00,4.641113281250000000e-01,2.814941406250000000e-01,-3.211669921875000000e-01,-7.760009765625000000e-01,3.627929687500000000e-01,-6.977539062500000000e-01,1.108398437500000000e-01,5.275000000000000000e+01,7.250000000000000000e+00,1.300000000000000000e+01
5.250000000000003553e-01,-1.000000000000000000e+00,0.000000000000000000e+00,0.000000000000000000e+00,1.000000000000000000e+00,4.000000000000000000e+00,2.000000000000000000e+00,-1.000000000000000000e+00,-1.000000000000000000e+00,4.641113281250000000e-01,2.814941406250000000e-01,-3.211669921875000000e-01,-7.760009765625000000e-01,3.627929687500000000e-01,-6.977539062500000000e-01,1.108398437500000000e-01,5.275000000000000000e+01,7.250000000000000000e+00,1.300000000000000000e+01
5.300000000000003597e-01,-1.000000000000000000e+00,0.000000000000000000e+00,0.000000000000000000e+00,1.000000000000000000e+00,4.000000000000000000e+00,2.000000000000000000e+00,-1.000000000000000000e+00,-1.000000000000000000e+00,4.641113281250000000e-01,2.814941406250000000e-01,-3.211669921875000000e-01,-7.760009765625000000e-01,3.627929687500000000e-01,-6.977539062500000000e-01,1.108398437500000000e-01,5.275000000000000000e+01,7.250000000000000000e+00,1.300000000000000000e+01
5.350000000000003642e-01,-1.000000000000000000e+00,1.000000000000000000e+00,2.000000000000000000e+00,-1.000000000000000000e+00,3.000000000000000000e+00,5.000000000000000000e+00,0.000000000000000000e+00,1.000000000000000000e+00,4.592895507812500000e-01,2.791137695312500000e-01,-3.226928710937500000e-01,-7.791137695312500000e-01,3.813476562500000000e-01,-7.358398437500000000e-01,1.215820312500000000e-01,5.075000000000000000e+01,1.262500000000000000e+01,1.681250000000000000e+01
5.400000000000003686e-01,-1.000000000000000000e+00,1.000000000000000000e+00,2.000000000000000000e+00,-1.000000000000000000e+00,3.000000000000000000e+00,5.000000000000000000e+00,0.000000000000000000e+00,1.000000000000000000e+00,4.592895507812500000e-01,2.791137695312500000e-01,-3.226928710937500000e-01,-7.791137695312500000e-01,3.813476562500000000e-01,-7.358398437500000000e-01,1.215820312500000000e-01,5.075000000000000000e+01,1.262500000000000000e+01,1.681250000000000000e+01
5.450000000000003730e-01,-1.000000000000000000e+00,1.000000000000000000e+00,2.000000000000000000e+00,-1.000000000000000000e+00,3.000000000000000000e+00,5.000000000000000000e+00,0.000000000000000000e+00,1.000000000000000000e+00,4.592895507812500000e-01,2.791137695312500000e-01,-3.226928710937500000e-01,-7.791137695312500000e-01,3.813476562500000000e-01,-7.358398437500000000e-01,1.215820312500000000e-01,5.075000000000000000e+01,1.262500000000000000e+01,1.681250000000000000e+01
5.500000000000003775e-01,1.000000000000000000e+00,0.000000000000000000e+00,-2.000000000000000000e+00,0.000000000000000000e+00,-7.000000000000000000e+00,5.000000000000000000e+00,-2.000000000000000000e+00,1.000000000000000000e+00,4.592895507812500000e-01,2.791137695312500000e-01,-3.226928710937500000e-01,-7.791137695312500000e-01,3.813476562500000000e-01,-7.358398437500000000e-01,1.215820312500000000e-01,5.075000000000000000e+01,1.262500000000000000e+01,1.681250000000000000e+01
5.550000000000003819e-01,1.000000000000000000e+00,0.000000000000000000e+00,-2.000000000000000000e+00,0.000000000000000000e+00,-7.000000000000000000e+00,5.000000000000000000e+00,-2.000000000000000000e+00,1.000000000000000000e+00,4.592895507812500000e-01,2.791137695312500000e-01,-3.226928710937500000e-01,-7.791137695312500000e-01,3.813476562500000000e-01,-7.358398437500000000e-01,1.215820312500000000e-01,5.075000000000000000e+01,1.262500000000000000e+01,1.681250000000000000e+01
5.600000000000003864e-01,-2.000000000000000000e+00,0.000000000000000000e+00,0.000000000000000000e+00,3.000000000000000000e+00,1.100000000000000000e+01,1.300000000000000000e+01,-1.000000000000000000e+00,-2.000000000000000000e+00,4.559326171875000000e-01,2.761230468750000000e-01,-3.239135742187500000e-01,-7.816162109375000000e-01,3.935546875000000000e-01,-7.963867187500000000e-01,1.484375000000000000e-01,4.381250000000000000e+01,1.806250000000000000e+01,2.018750000000000000e+01
5.650000000000003908e-01,-2.000000000000000000e+00,0.000000000000000000e+00,0.000000000000000000e+00,3.000000000000000000e+00,1.100000000000000000e+01,1.300000000000000000e+01,-1.000000000000000000e+00,-2.000000000000000000e+00,4.559326171875000000e-01,2.761230468750000000e-01,-3.239135742187500000e-01,-7.816162109375000000e-01,3.935546875000000000e-01,-7.963867187500000000e-01,1.484375000000000000e-01,4.381250000000000000e+01,1.806250000000000000e+01,2.018750000000000000e+01
5.700000000000003952e-01,-2.000000000000000000e+00,0.000000000000000000e+00,0.000000000000000000e+00,3.000000000000000000e+00,1.100000000000000000e+01,1.300000000000000000e+01,-1.000000000000000000e+00,-2.000000000000000000e+00,4.559326171875000000e-01,2.761230468750000000e-01,-3.239135742187500000e-01,-7.816162109375000000e-01,3.935546875000000000e-01,-7.963867187500000000e-01,1.484375000000000000e-01,4.381250000000000000e+01,1.806250000000000000e+01,2.018750000000000000e+01
5.750000000000003997e-01,0.000000000000000000e+00,0.000000000000000000e+00,1.000000000000000000e+00,-4.000000000000000000e+00,1.000000000000000000e+00,2.100000000000000000e+01,1.400000000000000000e+01,-2.000000000000000000e+00,4.539794921875000000e-01,2.727661132812500000e-01,-3.248901367187500000e-01,-7.835693359375000000e-01,3.852539062500000000e-01,-8.417968750000000000e-01,1.733398437500000000e-01,3.675000000000000000e+01,2.212500000000000000e+01,2.250000000000000000e+01
5.800000000000004041e-01,-2.000000000000000000e+00,-2.000000000000000000e+00,-4.000000000000000000e+00,-3.000000000000000000e+00,-6.000000000000000000e+00,-1.100000000000000000e+01,-3.000000000000000000e+00,-2.000000000000000000e+00,4.539794921875000000e-01,2.727661132812500000e-01,-3.248901367187500000e-01,-7.835693359375000000e-01,3.852539062500000000e-01,-8.417968750000000000e-01,1.733398437500000000e-01,3.675000000000000000e+01,2.212500000000000000e+01,2.250000000000000000e+01
5.850000000000004086e-01,-2.000000000000000000e+00,-2.000000000000000000e+00,-4.000000000000000000e+00,-3.000000000000000000e+00,-6.000000000000000000e+00,-1.100000000000000000e+01,-3.000000000000000000e+00,-2.000000000000000000e+00,4.539794921875000000e-01,2.727661132812500000e-01,-3.248901367187500000e-01,-7.835693359375000000e-01,3.852539062500000000e-01,-8.417968750000000000e-01,1.733398437500000000e-01,3.675000000000000000e+01,2.212500000000000000e+01,2.250000000000000000e+01
5.900000000000004130e-01,-2.000000000000000000e+00,-2.000000000000000000e+00,-4.000000000000000000e+00,-3.000000000000000000e+00,-6.000000000000000000e+00,-1.100000000000000000e+01,-3.000000000000000000e+00,-2.000000000000000000e+00,4.539794921875000000e-01,2.727661132812500000e-01,-3.248901367187500000e-01,-7.835693359375000000e-01,3.852539062500000000e-01,-8.417968750000000000e-01,1.733398437500000000e-01,3.675000000000000000e+01,2.212500000000000000e+01,2.250000000000000000e+01
5.950000000000004174e-01,-1.000000000000000000e+00,-2.000000000000000000e+00,0.000000000000000000e+00,-2.000000000000000000e+00,-6.000000000000000000e+00,-1.300000000000000000e+01,1.000000000000000000e+00,0.000000000000000000e+00,4.527587890625000000e-01,2.691650390625000000e-01,-3.253784179687500000e-01,-7.853393554687500000e-01,3.979492187500000000e-01,-8.813476562500000000e-01,2.255859375000000000e-01,3.112500000000000000e+01,2.593750000000000000e+01,2.325000000000000000e+01
6.000000000000004219e-01,-1.000000000000000000e+00,-2.000000000000000000e+00,0.000000000000000000e+00,-2.000000000000000000e+00,-6.000000000000000000e+00,-1.300000000000000000e+01,1.000000000000000000e+00,0.000000000000000000e+00,4.527587890625000000e-01,2.691650390625000000e-01,-3.253784179687500000e-01,-7.853393554687500000e-01,3.979492187500000000e-01,-8.813476562500000000e-01,2.255859375000000000e-01,3.112500000000000000e+01,2.593750000000000000e+01,2.325000000000000000e+01
6.050000000000004263e-01,-1.000000000000000000e+00,-2.000000000000000000e+00,0.000000000000000000e+00,-2.000000000000000000e+00,-6.000000000000000000e+00,-1.300000000000000000e+01,1.000000000000000000e+00,0.000000000000000000e+00,4.527587890625000000e-01,2.691650390625000000e-01,-3.253784179687500000e-01,-7.853393554687500000e-01,3.979492187500000000e-01,-8.813476562500000000e-01,2.255859375000000000e-01,3.112500000000000000e+01,2.593750000000000000e+01,2.325000000000000000e+01
6.100000000000004308e-01,1.000000000000000000e+00,2.000000000000000000e+00,1.000000000000000000e+00,-3.000000000000000000e+00,5.000000000000000000e+00,-2.000000000000000000e+00,-5.000000000000000000e+00,-1.000000000000000000e+00,4.527587890625000000e-01,2.691650390625000000e-01,-3.253784179687500000e-01,-7.853393554687500000e-01,3.979492187500000000e-01,-8.813476562500000000e-01,2.255859375000000000e-01,3.112500000000000000e+01,2.593750000000000000e+01,2.325000000000000000e+01
6.150000000000004352e-01,1.000000000000000000e+00,2.000000000000000000e+00,1.000000000000000000e+00,-3.000000000000000000e+00,5.000000000000000000e+00,-2.000000000000000000e+00,-5.000000000000000000e+00,-1.000000000000000000e+00,4.527587890625000000e-01,2.691650390625000000e-01,-3.253784179687500000e-01,-7.853393554687500000e-01,3.979492187500000000e-01,-8.813476562500000000e-01,2.255859375000000000e-01,3.112500000000000000e+01,2.593750000000000000e+01,2.325000000000000000e+01
6.200000000000004396e-01,0.000000000000000000e+00,-2.000000000000000000e+00,-1.000000000000000000e+00,2.000000000000000000e+00,9.000000000000000000e+00,2.300000000000000000e+01,1.000000000000000000e+00,-1.000000000000000000e+00,4.534912109375000000e-01,2.656250000000000000e-01,-3.255615234375000000e-01,-7.860107421875000000e-01,3.964843750000000000e-01,-9.633789062500000000e-01,2.529296875000000000e-01,1.981250000000000000e+01,2.800000000000000000e+01,2.618750000000000000e+01
6.250000000000004441e-01,0.000000000000000000e+00,-2.000000000000000000e+00,-1.000000000000000000e+00,2.000000000000000000e+00,9.000000000000000000e+00,2.300000000000000000e+01,1.000000000000000000e+00,-1.000000000000000000e+00,4.534912109375000000e-01,2.656250000000000000e-01,-3.255615234375000000e-01,-7.860107421875000000e-01,3.964843750000000000e-01,-9.633789062500000000e-01,2.529296875000000000e-01,1.981250000000000000e+01,2.800000000000000000e+01,2.618750000000000000e+01
6.300000000000004485e-01,0.000000000000000000e+00,-2.000000000000000000e+00,-1.000000000000000000e+00,2.000000000000000000e+00,9.000000000000000000e+00,2.300000000000000000e+01,1.000000000000000000e+00,-1.000000000000000000e+00,4.534912109375000000e-01,2.656250000000000000e-01,-3.255615234375000000e-01,-7.860107421875000000e-01,3.964843750000000000e-01,-9.633789062500000000e-01,2.529296875000000000e-01,1.981250000000000000e+01,2.800000000000000000e+01,2.618750000000000000e+01
6.350000000000004530e-01,0.000000000000000000e+00,-2.000000000000000000e+00,-1.000000000000000000e+00,2.000000000000000000e+00,9.000000000000000000e+00,2.300000000000000000e+01,1.000000000000000000e+00,-1.000000000000000000e+00,4.534912109375000000e-01,2.656250000000000000e-01,-3.255615234375000000e-01,-7.860107421875000000e-01,3.964843750000000000e-01,-9.633789062500000000e-01,2.529296875000000000e-01,1.981250000000000000e+01,2.800000000000000000e+01,2.618750000000000000e+01
6.400000000000004574e-01,-2.000000000000000000e+00,-1.000000000000000000e+00,-2.000000000000000000e+00,0.000000000000000000e+00,-4.000000000000000000e+00,-1.300000000000000000e+01,-4.000000000000000000e+00,1.000000000000000000e+00,4.567260742187500000e-01,2.627563476562500000e-01,-3.249511718750000000e-01,-7.853393554687500000e-01,3.754882812500000000e-01,-1.102539062500000000e+00,2.739257812500000000e-01,5.500000000000000000e+00,2.925000000000000000e+01,2.525000000000000000e+01
6.450000000000004619e-01,-2.000000000000000000e+00,-1.000000000000000000e+00,-1.000000000000000000e+00,-6.000000000000000000e+00,-4.000000000000000000e+00,-2.000000000000000000e+00,1.000000000000000000e+00,-2.000000000000000000e+00,4.567260742187500000e-01,2.627563476562500000e-01,-3.249511718750000000e-01,-7.853393554687500000e-01,3.754882812500000000e-01,-1.102539062500000000e+00,2.739257812500000000e-01,5.500000000000000000e+00,2.925000000000000000e+01,2.525000000000000000e+01
6.500000000000004663e-01,-2.000000000000000000e+00,-1.000000000000000000e+00,-1.000000000000000000e+00,-6.000000000000000000e+00,-4.000000000000000000e+00,-2.000000000000000000e+00,1.000000000000000000e+00,-2.000000000000000000e+00,4.567260742187500000e-01,2.627563476562500000e-01,-3.249511718750000000e-01,-7.853393554687500000e-01,3.754882812500000000e-01,-1.102539062500000000e+00,2.739257812500000000e-01,5.500000000000000000e+00,2.925000000000000000e+01,2.525000000000000000e+01
6.550000000000004707e-01,-2.000000000000000000e+00,-1.000000000000000000e+00,-1.000000000000000000e+00,-6.000000000000000000e+00,-4.000000000000000000e+00,-2.000000000000000000e+00,1.000000000000000000e+00,-2.000000000000000000e+00,4.567260742187500000e-01,2.627563476562500000e-01,-3.249511718750000000e-01,-7.853393554687500000e-01,3.754882812500000000e-01,-1.102539062500000000e+00,2.739257812500000000e-01,5.500000000000000000e+00,2.925000000000000000e+01,2.525000000000000000e+01
6.600000000000004752e-01,-2.000000000000000000e+00,-1.000000000000000000e+00,-1.000000000000000000e+00,-6.000000000000000000e+00,-4.000000000000000000e+00,-2.000000000000000000e+00,1.000000000000000000e+00,-2.000000000000000000e+00,4.567260742187500000e-01,2.627563476562500000e-01,-3.249511718750000000e-01,-7.853393554687500000e-01,3.754882812500000000e-01,-1.102539062500000000e+00,2.739257812500000000e-01,5.500000000000000000e+00,2.925000000000000000e+01,2.525000000000000000e+01
6.650000000000004796e-01,-2.000000000000000000e+00,-1.000000000000000000e+00,-1.000000000000000000e+00,-6.000000000000000000e+00,-4.000000000000000000e+00,-2.000000000000000000e+00,1.000000000000000000e+00,-2.000000000000000000e+00,4.567260742187500000e-01,2.627563476562500000e-01,-3.249511718750000000e-01,-7.853393554687500000e-01,3.754882812500000000e-01,-1.102539062500000000e+00,2.739257812500000000e-01,5.500000000000000000e+00,2.925000000000000000e+01,2.525000000000000000e+01
6.700000000000004841e-01,-1.000000000000000000e+00,-1.000000000000000000e+00,-2.000000000000000000e+00,-1.000000000000000000e+00,0.000000000000000000e+00,-4.000000000000000000e+00,-2.000000000000000000e+00,-2.000000000000000000e+00,4.609375000000000000e-01,2.601318359375000000e-01,-3.226318359375000000e-01,-7.847290039062500000e-01,3.608398437500000000e-01,-1.210449218750000000e+00,3.046875000000000000e-01,-8.125000000000000000e-01,3.368750000000000000e+01,1.725000000000000000e+01
6.750000000000004885e-01,-1.000000000000000000e+00,-1.000000000000000000e+00,-2.000000000000000000e+00,-1.000000000000000000e+00,0.000000000000000000e+00,-4.000000000000000000e+00,-2.000000000000000000e+00,-2.000000000000000000e+00,4.609375000000000000e-01,2.601318359375000000e-01,-3.226318359375000000e-01,-7.847290039062500000e-01,3.608398437500000000e-01,-1.210449218750000000e+00,3.046875000000000000e-01,-8.125000000000000000e-01,3.368750000000000000e+01,1.725000000000000000e+01
6.800000000000004929e-01,-1.000000000000000000e+00,-1.000000000000000000e+00,-2.000000000000000000e+00,-1.000000000000000000e+00,0.000000000000000000e+00,-4.000000000000000000e+00,-2.000000000000000000e+00,-2.000000000000000000e+00,4.609375000000000000e-01,2.601318359375000000e-01,-3.226318359375000000e-01,-7.847290039062500000e-01,3.608398437500000000e-01,-1.210449218750000000e+00,3.046875000000000000e-01,-8.125000000000000000e-01,3.368750000000000000e+01,1.725000000000000000e+01
6.850000000000004974e-01,0.000000000000000000e+00,-1.000000000000000000e+00,1.000000000000000000e+00,-1.000000000000000000e+00,-9.000000000000000000e+00,-1.900000000000000000e+01,-1.100000000000000000e+01,-2.000000000000000000e+00,4.609375000000000000e-01,2.601318359375000000e-01,-3.226318359375000000e-01,-7.847290039062500000e-01,3.608398437500000000e-01,-1.210449218750000000e+00,3.046875000000000000e-01,-8.125000000000000000e-01,3.368750000000000000e+01,1.725000000000000000e+01
6.900000000000005018e-01,0.000000000000000000e+00,-1.000000000000000000e+00,1.000000000000000000e+00,-1.000000000000000000e+00,-9.000000000000000000e+00,-1.900000000000000000e+01,-1.100000000000000000e+01,-2.000000000000000000e+00,4.609375000000000000e-01,2.601318359375000000e-01,-3.226318359375000000e-01,-7.847290039062500000e-01,3.608398437500000000e-01,-1.210449218750000000e+00,3.046875000000000000e-01,-8.125000000000000000e-01,3.368750000000000000e+01,1.725000000000000000e+01
6.950000000000005063e-01,0.000000000000000000e+00,-1.000000000000000000e+00,1.000000000000000000e+00,-1.000000000000000000e+00,-9.000000000000000000e+00,-1.900000000000000000e+01,-1.100000000000000000e+01,-2.000000000000000000e+00,4.609375000000000000e-01,2.601318359375000000e-01,-3.226318359375000000e-01,-7.847290039062500000e-01,3.608398437500000000e-01,-1.210449218750000000e+00,3.046875000000000000e-01,-8.125000000000000000e-01,3.368750000000000000e+01,1.725000000000000000e+01
7.000000000000005107e-01,0.000000000000000000e+00,-1.000000000000000000e+00,1.000000000000000000e+00,-1.000000000000000000e+00,-9.000000000000000000e+00,-1.900000000000000000e+01,-1.100000000000000000e+01,-2.000000000000000000e+00,4.609375000000000000e-01,2.601318359375000000e-01,-3.226318359375000000e-01,-7.847290039062500000e-01,3.608398437500000000e-01,-1.210449218750000000e+00,3.046875000000000000e-01,-8.125000000000000000e-01,3.368750000000000000e+01,1.725000000000000000e+01
7.050000000000005151e-01,-1.000000000000000000e+00,-3.000000000000000000e+00,0.000000000000000000e+00,2.000000000000000000e+00,-1.000000000000000000e+00,0.000000000000000000e+00,0.000000000000000000e+00,-2.000000000000000000e+00,4.644165039062500000e-01,2.574462890625000000e-01,-3.194580078125000000e-01,-7.848510742187500000e-01,3.154296875000000000e-01,-1.170898437500000000e+00,3.833007812500000000e-01,-3.000000000000000000e+00,3.400000000000000000e+01,8.687500000000000000e+00
7.100000000000005196e-01,-1.000000000000000000e+00,-3.000000000000000000e+00,0.000000000000000000e+00,2.000000000000000000e+00,-1.000000000000000000e+00,0.000000000000000000e+00,0.000000000000000000e+00,-2.000000000000000000e+00,4.644165039062500000e-01,2.574462890625000000e-01,-3.194580078125000000e-01,-7.848510742187500000e-01,3.154296875000000000e-01,-1.170898437500000000e+00,3.833007812500000000e-01,-3.000000000000000000e+00,3.400000000000000000e+01,8.687500000000000000e+00
7.150000000000005240e-01,-3.000000000000000000e+00,-2.000000000000000000e+00,-1.000000000000000000e+00,-1.000000000000000000e+00,-3.000000000000000000e+00,2.700000000000000000e+01,-2.000000000000000000e+00,-2.000000000000000000e+00,4.644165039062500000e-01,2.574462890625000000e-01,-3.194580078125000000e-01,-7.848510742187500000e-01,3.154296875000000000e-01,-1.170898437500000000e+00,3.833007812500000000e-01,-3.000000000000000000e+00,3.400000000000000000e+01,8.687500000000000000e+00
7.200000000000005285e-01,-3.000000000000000000e+00,-2.000000000000000000e+00,-1.000000000000000000e+00,-1.000000000000000000e+00,-3.000000000000000000e+00,2.700000000000000000e+01,-2.000000000000000000e+00,-2.000000000000000000e+00,4.692382812500000000e-01,2.557983398437500000e-01,-3.157958984375000000e-01,-7.840576171875000000e-01,2.207031250000000000e-01,-1.181640625000000000e+00,4.506835937500000000e-01,-1.900000000000000000e+01,2.800000000000000000e+01,1.625000000000000000e+00
7.250000000000005329e-01,-1.000000000000000000e+00,1.000000000000000000e+00,-1.000000000000000000e+00,1.000000000000000000e+00,1.000000000000000000e+00,-2.000000000000000000e+00,2.000000000000000000e+00,0.000000000000000000e+00,4.692382812500000000e-01,2.557983398437500000e-01,-3.157958984375000000e-01,-7.840576171875000000e-01,2.207031250000000000e-01,-1.181640625000000000e+00,4.506835937500000000e-01,-1.900000000000000000e+01,2.800000000000000000e+01,1.625000000000000000e+00
7.300000000000005373e-01,-1.000000000000000000e+00,1.000000000000000000e+00,-1.000000000000000000e+00,1.000000000000000000e+00,1.000000000000000000e+00,-2.000000000000000000e+00,2.000000000000000000e+00,0.000000000000000000e+00,4.692382812500000000e-01,2.557983398437500000e-01,-3.157958984375000000e-01,-7.840576171875000000e-01,2.207031250000000000e-01,-1.181640625000000000e+00,4.506835937500000000e-01,-1.900000000000000000e+01,2.800000000000000000e+01,1.625000000000000000e+00
7.350000000000005418e-01,-1.000000000000000000e+00,1.000000000000000000e+00,-1.000000000000000000e+00,1.000000000000000000e+00,1.000000000000000000e+00,-2.000000000000000000e+00,2.000000000000000000e+00,0.000000000000000000e+00,4.692382812500000000e-01,2.557983398437500000e-01,-3.157958984375000000e-01,-7.840576171875000000e-01,2.207031250000000000e-01,-1.181640625000000000e+00,4.506835937500000000e-01,-1.900000000000000000e+01,2.800000000000000000e+01,1.625000000000000000e+00
7.400000000000005462e-01,-1.000000000000000000e+00,1.000000000000000000e+00,-1.000000000000000000e+00,1.000000000000000000e+00,1.000000000000000000e+00,-2.000000000000000000e+00,2.000000000000000000e+00,0.000000000000000000e+00,4.692382812500000000e-01,2.557983398437500000e-01,-3.157958984375000000e-01,-7.840576171875000000e-01,2.207031250000000000e-01,-1.181640625000000000e+00,4.506835937500000000e-01,-1.900000000000000000e+01,2.800000000000000000e+01,1.625000000000000000e+00
7.450000000000005507e-01,-2.000000000000000000e+00,0.000000000000000000e+00,0.000000000000000000e+00,2.000000000000000000e+00,-2.000000000000000000e+00,-7.000000000000000000e+00,-1.000000000000000000e+00,-2.000000000000000000e+00,4.761962890625000000e-01,2.563476562500000000e-01,-3.107910156250000000e-01,-7.816162109375000000e-01,1.352539062500000000e-01,-1.286132812500000000e+00,5.292968750000000000e-01,-4.231250000000000000e+01,2.012500000000000000e+01,-1.000000000000000000e+01
7.500000000000005551e-01,-4.000000000000000000e+00,-1.000000000000000000e+00,-1.000000000000000000e+00,-3.000000000000000000e+00,-2.000000000000000000e+00,-6.000000000000000000e+00,-4.000000000000000000e+00,-2.000000000000000000e+00,4.761962890625000000e-01,2.563476562500000000e-01,-3.107910156250000000e-01,-7.816162109375000000e-01,1.352539062500000000e-01,-1.286132812500000000e+00,5.292968750000000000e-01,-4.231250000000000000e+01,2.012500000000000000e+01,-1.000000000000000000e+01
7.550000000000005596e-01,-4.000000000000000000e+00,-1.000000000000000000e+00,-1.000000000000000000e+00,-3.000000000000000000e+00,-2.000000000000000000e+00,-6.000000000000000000e+00,-4.000000000000000000e+00,-2.000000000000000000e+00,4.761962890625000000e-01,2.563476562500000000e-01,-3.107910156250000000e-01,-7.816162109375000000e-01,1.352539062500000000e-01,-1.286132812500000000e+00,5.292968750000000000e-01,-4.231250000000000000e+01,2.012500000000000000e+01,-1.000000000000000000e+01
7.600000000000005640e-01,-4.000000000000000000e+00,-1.000000000000000000e+00,-1.000000000000000000e+00,-3.000000000000000000e+00,-2.000000000000000000e+00,-6.000000000000000000e+00,-4.000000000000000000e+00,-2.000000000000000000e+00,4.761962890625000000e-01,2.563476562500000000e-01,-3.107910156250000000e-01,-7.816162109375000000e-01,1.352539062500000000e-01,-1.286132812500000000e+00,5.292968750000000000e-01,-4.231250000000000000e+01,2.012500000000000000e+01,-1.000000000000000000e+01
7.650000000000005684e-01,-1.000000000000000000e+00,-1.000000000000000000e+00,-3.000000000000000000e+00,-3.000000000000000000e+00,-8.000000000000000000e+00,-7.000000000000000000e+00,1.000000000000000000e+00,-2.000000000000000000e+00,4.761962890625000000e-01,2.563476562500000000e-01,-3.107910156250000000e-01,-7.816162109375000000e-01,1.352539062500000000e-01,-1.286132812500000000e+00,5.292968750000000000e-01,-4.231250000000000000e+01,2.012500000000000000e+01,-1.000000000000000000e+01
7.700000000000005729e-01,-1.000000000000000000e+00,-1.000000000000000000e+00,-3.000000000000000000e+00,-3.000000000000000000e+00,-8.000000000000000000e+00,-7.000000000000000000e+00,1.000000000000000000e+00,-2.000000000000000000e+00,4.761962890625000000e-01,2.563476562500000000e-01,-3.107910156250000000e-01,-7.816162109375000000e-01,1.352539062500000000e-01,-1.286132812500000000e+00,5.292968750000000000e-01,-4.231250000000000000e+01,2.012500000000000000e+01,-1.000000000000000000e+01
7.750000000000005773e-01,1.000000000000000000e+00,-1.000000000000000000e+00,0.000000000000000000e+00,7.000000000000000000e+00,1.200000000000000000e+01,1.300000000000000000e+01,0.000000000000000000e+00,1.000000000000000000e+00,4.833984375000000000e-01,2.581787109375000000e-01,-3.049316406250000000e-01,-7.788696289062500000e-01,4.736328125000000000e-02,-1.414062500000000000e+00,6.074218750000000000e-01,-5.093750000000000000e+01,1.300000000000000000e+01,-2.387500000000000000e+01
7.800000000000005818e-01,1.000000000000000000e+00,-1.000000000000000000e+00,0.000000000000000000e+00,7.000000000000000000e+00,1.200000000000000000e+01,1.300000000000000000e+01,0.000000000000000000e+00,1.000000000000000000e+00,4.833984375000000000e-01,2.581787109375000000e-01,-3.049316406250000000e-01,-7.788696289062500000e-01,4.736328125000000000e-02,-1.414062500000000000e+00,6.074218750000000000e-01,-5.093750000000000000e+01,1.300000000000000000e+01,-2.387500000000000000e+01
7.850000000000005862e-01,1.000000000000000000e+00,-1.000000000000000000e+00,0.000000000000000000e+00,7.000000000000000000e+00,1.200000000000000000e+01,1.300000000000000000e+01,0.000000000000000000e+00,1.000000000000000000e+00,4.833984375000000000e-01,2.581787109375000000e-01,-3.049316406250000000e-01,-7.788696289062500000e-01,4.736328125000000000e-02,-1.414062500000000000e+00,6.074218750000000000e-01,-5.093750000000000000e+01,1.300000000000000000e+01,-2.387500000000000000e+01
7.900000000000005906e-01,1.000000000000000000e+00,-1.000000000000000000e+00,0.000000000000000000e+00,7.000000000000000000e+00,1.200000000000000000e+01,1.300000000000000000e+01,0.000000000000000000e+00,1.000000000000000000e+00,4.833984375000000000e-01,2.581787109375000000e-01,-3.049316406250000000e-01,-7.788696289062500000e-01,4.736328125000000000e-02,-1.414062500000000000e+00,6.074218750000000000e-01,-5.093750000000000000e+01,1.300000000000000000e+01,-2.387500000000000000e+01
7.950000000000005951e-01,0.000000000000000000e+00,-2.000000000000000000e+00,1.000000000000000000e+00,-2.000000000000000000e+00,-7.000000000000000000e+00,-1.000000000000000000e+01,1.000000000000000000e+00,1.000000000000000000e+00,4.889526367187500000e-01,2.609252929687500000e-01,-2.987060546875000000e-01,-7.769165039062500000e-01,-4.150390625000000000e-02,-1.421386718750000000e+00,6.738281250000000000e-01,-4.912500000000000000e+01,5.062500000000000000e+00,-3.800000000000000000e+01
8.000000000000005995e-01,-1.000000000000000000e+00,-1.000000000000000000e+00,-4.000000000000000000e+00,-6.000000000000000000e+00,-5.000000000000000000e+00,-1.200000000000000000e+01,-5.000000000000000000e+00,-4.000000000000000000e+00,4.889526367187500000e-01,2.609252929687500000e-01,-2.987060546875000000e-01,-7.769165039062500000e-01,-4.150390625000000000e-02,-1.421386718750000000e+00,6.738281250000000000e-01,-4.912500000000000000e+01,5.062500000000000000e+00,-3.800000000000000000e+01
8.050000000000006040e-01,-1.000000000000000000e+00,-1.000000000000000000e+00,-4.000000000000000000e+00,-6.000000000000000000e+00,-5.000000000000000000e+00,-1.200000000000000000e+01,-5.000000000000000000e+00,-4.000000000000000000e+00,4.889526367187500000e-01,2.609252929687500000e-01,-2.987060546875000000e-01,-7.769165039062500000e-01,-4.150390625000000000e-02,-1.421386718750000000e+00,6.738281250000000000e-01,-4.912500000000000000e+01,5.062500000000000000e+00,-3.800000000000000000e+01
8.100000000000006084e-01,-1.000000000000000000e+00,-1.000000000000000000e+00,-4.000000000000000000e+00,-6.000000000000000000e+00,-5.000000000000000000e+00,-1.200000000000000000e+01,-5.000000000000000000e+00,-4.000000000000000000e+00,4.889526367187500000e-01,2.609252929687500000e-01,-2.987060546875000000e-01,-7.769165039062500000e-01,-4.150390625000000000e-02,-1.421386718750000000e+00,6.738281250000000000e-01,-4.912500000000000000e+01,5.062500000000000000e+00,-3.800000000000000000e+01
8.150000000000006128e-01,-1.000000000000000000e+00,-1.000000000000000000e+00,-4.000000000000000000e+00,-6.000000000000000000e+00,-5.000000000000000000e+00,-1.200000000000000000e+01,-5.000000000000000000e+00,-4.000000000000000000e+00,4.889526367187500000e-01,2.609252929687500000e-01,-2.987060546875000000e-01,-7.769165039062500000e-01,-4.150390625000000000e-02,-1.421386718750000000e+00,6.738281250000000000e-01,-4.912500000000000000e+01,5.062500000000000000e+00,-3.800000000000000000e+01
8.200000000000006173e-01,-1.000000000000000000e+00,-1.000000000000000000e+00,-4.000000000000000000e+00,-6.000000000000000000e+00,-5.000000000000000000e+00,-1.200000000000000000e+01,-5.000000000000000000e+00,-4.000000000000000000e+00,4.889526367187500000e-01,2.609252929687500000e-01,-2.987060546875000000e-01,-7.769165039062500000e-01,-4.150390625000000000e-02,-1.421386718750000000e+00,6.738281250000000000e-01,-4.912500000000000000e+01,5.062500000000000000e+00,-3.800000000000000000e+01
8.250000000000006217e-01,0.000000000000000000e+00,-1.000000000000000000e+00,1.000000000000000000e+00,2.000000000000000000e+00,2.000000000000000000e+00,-1.000000000000000000e+00,1.000000000000000000e+00,-1.000000000000000000e+00,4.923095703125000000e-01,2.649536132812500000e-01,-2.926025390625000000e-01,-7.758178710937500000e-01,-7.373046875000000000e-02,-1.379394531250000000e+00,7.275390625000000000e-01,-4.493750000000000000e+01,-5.125000000000000000e+00,-4.812500000000000000e+01
8.300000000000006262e-01,0.000000000000000000e+00,-1.000000000000000000e+00,1.000000000000000000e+00,2.000000000000000000e+00,2.000000000000000000e+00,-1.000000000000000000e+00,1.000000000000000000e+00,-1.000000000000000000e+00,4.923095703125000000e-01,2.649536132812500000e-01,-2.926025390625000000e-01,-7.758178710937500000e-01,-7.373046875000000000e-02,-1.379394531250000000e+00,7.275390625000000000e-01,-4.493750000000000000e+01,-5.125000000000000000e+00,-4.812500000000000000e+01
8.350000000000006306e-01,0.000000000000000000e+00,-1.000000000000000000e+00,1.000000000000000000e+00,2.000000000000000000e+00,2.000000000000000000e+00,-1.000000000000000000e+00,1.000000000000000000e+00,-1.000000000000000000e+00,4.923095703125000000e-01,2.649536132812500000e-01,-2.926025390625000000e-01,-7.758178710937500000e-01,-7.373046875000000000e-02,-1.379394531250000000e+00,7.275390625000000000e-01,-4.493750000000000000e+01,-5.125000000000000000e+00,-4.812500000000000000e+01
8.400000000000006350e-01,-1.000000000000000000e+00,-3.000000000000000000e+00,-3.000000000000000000e+00,-1.000000000000000000e+00,-6.000000000000000000e+00,-1.400000000000000000e+01,-5.000000000000000000e+00,-1.000000000000000000e+00,4.923095703125000000e-01,2.649536132812500000e-01,-2.926025390625000000e-01,-7.758178710937500000e-01,-7.373046875000000000e-02,-1.379394531250000000e+00,7.275390625000000000e-01,-4.493750000000000000e+01,-5.125000000000000000e+00,-4.812500000000000000e+01
8.450000000000006395e-01,-1.000000000000000000e+00,-3.000000000000000000e+00,-3.000000000000000000e+00,-1.000000000000000000e+00,-6.000000000000000000e+00,-1.400000000000000000e+01,-5.000000000000000000e+00,-1.000000000000000000e+00,4.923095703125000000e-01,2.649536132812500000e-01,-2.926025390625000000e-01,-7.758178710937500000e-01,-7.373046875000000000e-02,-1.379394531250000000e+00,7.275390625000000000e-01,-4.493750000000000000e+01,-5.125000000000000000e+00,-4.812500000000000000e+01
8.500000000000006439e-01,-1.000000000000000000e+00,-3.000000000000000000e+00,-3.000000000000000000e+00,-1.000000000000000000e+00,-6.000000000000000000e+00,-1.400000000000000000e+01,-5.000000000000000000e+00,-1.000000000000000000e+00,4.923095703125000000e-01,2.649536132812500000e-01,-2.926025390625000000e-01,-7.758178710937500000e-01,-7.373046875000000000e-02,-1.379394531250000000e+00,7.275390625000000000e-01,-4.493750000000000000e+01,-5.125000000000000000e+00,-4.812500000000000000e+01
8.550000000000006484e-01,0.000000000000000000e+00,-1.000000000000000000e+00,0.000000000000000000e+00,-3.000000000000000000e+00,-2.000000000000000000e+00,1.000000000000000000e+00,3.000000000000000000e+00,1.000000000000000000e+00,4.933471679687500000e-01,2.694091796875000000e-01,-2.879638671875000000e-01,-7.753295898437500000e-01,-1.005859375000000000e-01,-1.267578125000000000e+00,8.217773437500000000e-01,-4.143750000000000000e+01,-1.631250000000000000e+01,-4.950000000000000000e+01
8.600000000000006528e-01,-2.000000000000000000e+00,-2.000000000000000000e+00,-1.000000000000000000e+00,-4.000000000000000000e+00,0.000000000000000000e+00,6.000000000000000000e+00,0.000000000000000000e+00,-2.000000000000000000e+00,4.933471679687500000e-01,2.694091796875000000e-01,-2.879638671875000000e-01,-7.753295898437500000e-01,-1.005859375000000000e-01,-1.267578125000000000e+00,8.217773437500000000e-01,-4.143750000000000000e+01,-1.631250000000000000e+01,-4.950000000000000000e+01
8.650000000000006573e-01,-2.000000000000000000e+00,-2.000000000000000000e+00,-1.000000000000000000e+00,-4.000000000000000000e+00,0.000000000000000000e+00,6.000000000000000000e+00,0.000000000000000000e+00,-2.000000000000000000e+00,4.933471679687500000e-01,2.694091796875000000e-01,-2.879638671875000000e-01,-7.753295898437500000e-01,-1.005859375000000000e-01,-1.267578125000000000e+00,8.217773437500000000e-01,-4.143750000000000000e+01,-1.631250000000000000e+01,-4.950000000000000000e+01
8.700000000000006617e-01,-2.000000000000000000e+00,-2.000000000000000000e+00,-1.000000000000000000e+00,-4.000000000000000000e+00,0.000000000000000000e+00,6.000000000000000000e+00,0.000000000000000000e+00,-2.000000000000000000e+00,4.933471679687500000e-01,2.694091796875000000e-01,-2.879638671875000000e-01,-7.753295898437500000e-01,-1.005859375000000000e-01,-1.267578125000000000e+00,8.217773437500000000e-01,-4.143750000000000000e+01,-1.631250000000000000e+01,-4.950000000000000000e+01
8.750000000000006661e-01,-1.000000000000000000e+00,0.000000000000000000e+00,2.000000000000000000e+00,5.000000000000000000e+00,9.000000000000000000e+00,9.000000000000000000e+00,0.000000000000000000e+00,-1.000000000000000000e+00,4.925537109375000000e-01,2.736206054687500000e-01,-2.850952148437500000e-01,-7.753906250000000000e-01,-8.007812500000000000e-02,-1.140625000000000000e+00,8.442382812500000000e-01,-3.325000000000000000e+01,-2.231250000000000000e+01,-4.300000000000000000e+01
8.800000000000006706e-01,-1.000000000000000000e+00,0.000000000000000000e+00,2.000000000000000000e+00,5.000000000000000000e+00,9.000000000000000000e+00,9.000000000000000000e+00,0.000000000000000000e+00,-1.000000000000000000e+00,4.925537109375000000e-01,2.736206054687500000e-01,-2.850952148437500000e-01,-7.753906250000000000e-01,-8.007812500000000000e-02,-1.140625000000000000e+00,8.442382812500000000e-01,-3.325000000000000000e+01,-2.231250000000000000e+01,-4.300000000000000000e+01
8.850000000000006750e-01,-1.000000000000000000e+00,0.000000000000000000e+00,-2.000000000000000000e+00,-1.000000000000000000e+00,-5.000000000000000000e+00,0.000000000000000000e+00,1.000000000000000000e+00,0.000000000000000000e+00,4.925537109375000000e-01,2.736206054687500000e-01,-2.850952148437500000e-01,-7.753906250000000000e-01,-8.007812500000000000e-02,-1.140625000000000000e+00,8.442382812500000000e-01,-3.325000000000000000e+01,-2.231250000000000000e+01,-4.300000000000000000e+01
8.900000000000006795e-01,-1.000000000000000000e+00,0.000000000000000000e+00,-2.000000000000000000e+00,-1.000000000000000000e+00,-5.000000000000000000e+00,0.000000000000000000e+00,1.000000000000000000e+00,0.000000000000000000e+00,4.925537109375000000e-01,2.736206054687500000e-01,-2.850952148437500000e-01,-7.753906250000000000e-01,-8.007812500000000000e-02,-1.140625000000000000e+00,8.442382812500000000e-01,-3.325000000000000000e+01,-2.231250000000000000e+01,-4.300000000000000000e+01
8.950000000000006839e-01,-1.000000000000000000e+00,0.000000000000000000e+00,-2.000000000000000000e+00,-1.000000000000000000e+00,-5.000000000000000000e+00,0.000000000000000000e+00,1.000000000000000000e+00,0.000000000000000000e+00,4.925537109375000000e-01,2.736206054687500000e-01,-2.850952148437500000e-01,-7.753906250000000000e-01,-8.007812500000000000e-02,-1.140625000000000000e+00,8.442382812500000000e-01,-3.325000000000000000e+01,-2.231250000000000000e+01,-4.300000000000000000e+01
9.000000000000006883e-01,-1.000000000000000000e+00,-1.000000000000000000e+00,-2.000000000000000000e+00,-5.000000000000000000e+00,-6.000000000000000000e+00,-9.000000000000000000e+00,-2.000000000000000000e+00,2.000000000000000000e+00,4.902343750000000000e-01,2.760620117187500000e-01,-2.847900390625000000e-01,-7.761230468750000000e-01,-6.933593750000000000e-02,-1.072753906250000000e+00,8.247070312500000000e-01,-1.787500000000000000e+01,-2.306250000000000000e+01,-2.900000000000000000e+01
9.050000000000008038e-01,-1.000000000000000000e+00,-1.000000000000000000e+00,-2.000000000000000000e+00,-5.000000000000000000e+00,-6.000000000000000000e+00,-9.000000000000000000e+00,-2.000000000000000000e+00,2.000000000000000000e+00,4.902343750000000000e-01,2.760620117187500000e-01,-2.847900390625000000e-01,-7.761230468750000000e-01,-6.933593750000000000e-02,-1.072753906250000000e+00,8.247070312500000000e-01,-1.787500000000000000e+01,-2.306250000000000000e+01,-2.900000000000000000e+01
9.100000000000008082e-01,-2.000000000000000000e+00,-1.000000000000000000e+00,0.000000000000000000e+00,-2.000000000000000000e+00,-6.000000000000000000e+00,-7.000000000000000000e+00,-2.000000000000000000e+00,-1.000000000000000000e+00,4.902343750000000000e-01,2.760620117187500000e-01,-2.847900390625000000e-01,-7.761230468750000000e-01,-6.933593750000000000e-02,-1.072753906250000000e+00,8.247070312500000000e-01,-1.787500000000000000e+01,-2.306250000000000000e+01,-2.900000000000000000e+01
9.150000000000008127e-01,-2.000000000000000000e+00,-1.000000000000000000e+00,0.000000000000000000e+00,-2.000000000000000000e+00,-6.000000000000000000e+00,-7.000000000000000000e+00,-2.000000000000000000e+00,-1.000000000000000000e+00,4.902343750000000000e-01,2.760620117187500000e-01,-2.847900390625000000e-01,-7.761230468750000000e-01,-6.933593750000000000e-02,-1.072753906250000000e+00,8.247070312500000000e-01,-1.787500000000000000e+01,-2.306250000000000000e+01,-2.900000000000000000e+01
9.200000000000008171e-01,-1.000000000000000000e+00,-2.000000000000000000e+00,-1.000000000000000000e+00,-2.000000000000000000e+00,-6.000000000000000000e+00,-8.000000000000000000e+00,-3.000000000000000000e+00,-3.000000000000000000e+00,4.873046875000000000e-01,2.757568359375000000e-01,-2.863159179687500000e-01,-7.775268554687500000e-01,-7.128906250000000000e-02,-1.040527343750000000e+00,7.436523437500000000e-01,-9.375000000000000000e-01,-1.525000000000000000e+01,-1.518750000000000000e+01
9.250000000000008216e-01,-1.000000000000000000e+00,-2.000000000000000000e+00,-1.000000000000000000e+00,-2.000000000000000000e+00,-6.000000000000000000e+00,-8.000000000000000000e+00,-3.000000000000000000e+00,-3.000000000000000000e+00,4.873046875000000000e-01,2.757568359375000000e-01,-2.863159179687500000e-01,-7.775268554687500000e-01,-7.128906250000000000e-02,-1.040527343750000000e+00,7.436523437500000000e-01,-9.375000000000000000e-01,-1.525000000000000000e+01,-1.518750000000000000e+01
9.300000000000008260e-01,-1.000000000000000000e+00,-2.000000000000000000e+00,-1.000000000000000000e+00,-2.000000000000000000e+00,-6.000000000000000000e+00,-8.000000000000000000e+00,-3.000000000000000000e+00,-3.000000000000000000e+00,4.873046875000000000e-01,2.757568359375000000e-01,-2.863159179687500000e-01,-7.775268554687500000e-01,-7.128906250000000000e-02,-1.040527343750000000e+00,7.436523437500000000e-01,-9.375000000000000000e-01,-1.525000000000000000e+01,-1.518750000000000000e+01
9.350000000000008304e-01,-2.000000000000000000e+00,-1.000000000000000000e+00,0.000000000000000000e+00,-1.000000000000000000e+00,1.000000000000000000e+01,1.900000000000000000e+01,0.000000000000000000e+00,-2.000000000000000000e+00,4.829101562500000000e-01,2.719116210937500000e-01,-2.893676757812500000e-01,-7.804565429687500000e-01,-1.035156250000000000e-01,-9.794921875000000000e-01,6.865234375000000000e-01,2.125000000000000000e+01,-3.875000000000000000e+00,-4.000000000000000000e+00
9.400000000000008349e-01,-2.000000000000000000e+00,-1.000000000000000000e+00,0.000000000000000000e+00,-1.000000000000000000e+00,1.000000000000000000e+01,1.900000000000000000e+01,0.000000000000000000e+00,-2.000000000000000000e+00,4.829101562500000000e-01,2.719116210937500000e-01,-2.893676757812500000e-01,-7.804565429687500000e-01,-1.035156250000000000e-01,-9.794921875000000000e-01,6.865234375000000000e-01,2.125000000000000000e+01,-3.875000000000000000e+00,-4.000000000000000000e+00
9.450000000000008393e-01,-2.000000000000000000e+00,-2.000000000000000000e+00,-1.000000000000000000e+00,-2.000000000000000000e+00,-2.000000000000000000e+00,-2.000000000000000000e+00,-1.000000000000000000e+00,-1.000000000000000000e+00,4.829101562500000000e-01,2.719116210937500000e-01,-2.893676757812500000e-01,-7.804565429687500000e-01,-1.035156250000000000e-01,-9.794921875000000000e-01,6.865234375000000000e-01,2.125000000000000000e+01,-3.875000000000000000e+00,-4.000000000000000000e+00
9.500000000000008438e-01,-1.000000000000000000e+00,-1.000000000000000000e+00,-1.000000000000000000e+00,-2.000000000000000000e+00,-3.000000000000000000e+00,-4.000000000000000000e+00,-2.000000000000000000e+00,-2.000000000000000000e+00,4.829101562500000000e-01,2.719116210937500000e-01,-2.893676757812500000e-01,-7.804565429687500000e-01,-1.035156250000000000e-01,-9.794921875000000000e-01,6.865234375000000000e-01,2.125000000000000000e+01,-3.875000000000000000e+00,-4.000000000000000000e+00
9.550000000000008482e-01,-1.000000000000000000e+00,-1.000000000000000000e+00,-1.000000000000000000e+00,-2.000000000000000000e+00,-3.000000000000000000e+00,-4.000000000000000000e+00,-2.000000000000000000e+00,-2.000000000000000000e+00,4.829101562500000000e-01,2.719116210937500000e-01,-2.893676757812500000e-01,-7.804565429687500000e-01,-1.035156250000000000e-01,-9.794921875000000000e-01,6.865234375000000000e-01,2.125000000000000000e+01,-3.875000000000000000e+00,-4.000000000000000000e+00
9.600000000000008527e-01,-2.000000000000000000e+00,-2.000000000000000000e+00,-1.000000000000000000e+00,-2.000000000000000000e+00,-3.000000000000000000e+00,-7.000000000000000000e+00,-4.000000000000000000e+00,-2.000000000000000000e+00,4.829101562500000000e-01,2.719116210937500000e-01,-2.893676757812500000e-01,-7.804565429687500000e-01,-1.035156250000000000e-01,-9.794921875000000000e-01,6.865234375000000000e-01,2.125000000000000000e+01,-3.875000000000000000e+00,-4.000000000000000000e+00
9.650000000000007461e-01,-1.000000000000000000e+00,-1.000000000000000000e+00,-1.000000000000000000e+00,0.000000000000000000e+00,0.000000000000000000e+00,-1.000000000000000000e+00,2.000000000000000000e+00,0.000000000000000000e+00,4.772338867187500000e-01,2.654418945312500000e-01,-2.935180664062500000e-01,-7.846679687500000000e-01,-1.123046875000000000e-01,-8.720703125000000000e-01,6.196289062500000000e-01,3.943750000000000000e+01,5.375000000000000000e+00,5.062500000000000000e+00
9.700000000000007505e-01,-1.000000000000000000e+00,-1.000000000000000000e+00,-1.000000000000000000e+00,0.000000000000000000e+00,0.000000000000000000e+00,-1.000000000000000000e+00,2.000000000000000000e+00,0.000000000000000000e+00,4.772338867187500000e-01,2.654418945312500000e-01,-2.935180664062500000e-01,-7.846679687500000000e-01,-1.123046875000000000e-01,-8.720703125000000000e-01,6.196289062500000000e-01,3.943750000000000000e+01,5.375000000000000000e+00,5.062500000000000000e+00
9.750000000000007550e-01,1.000000000000000000e+00,-1.000000000000000000e+00,-3.000000000000000000e+00,1.000000000000000000e+00,1.000000000000000000e+00,4.000000000000000000e+00,2.000000000000000000e+00,0.000000000000000000e+00,4.772338867187500000e-01,2.654418945312500000e-01,-2.935180664062500000e-01,-7.846679687500000000e-01,-1.123046875000000000e-01,-8.720703125000000000e-01,6.196289062500000000e-01,3.943750000000000000e+01,5.375000000000000000e+00,5.062500000000000000e+00
9.800000000000007594e-01,-2.000000000000000000e+00,1.000000000000000000e+00,0.000000000000000000e+00,-3.000000000000000000e+00,-7.000000000000000000e+00,-4.000000000000000000e+00,-2.000000000000000000e+00,-2.000000000000000000e+00,4.713745117187500000e-01,2.568969726562500000e-01,-2.985839843750000000e-01,-7.890625000000000000e-01,-1.083984375000000000e-01,-7.924804687500000000e-01,5.537109375000000000e-01,4.881250000000000000e+01,1.368750000000000000e+01,1.575000000000000000e+01
9.850000000000007638e-01,-2.000000000000000000e+00,1.000000000000000000e+00,0.000000000000000000e+00,-3.000000000000000000e+00,-7.000000000000000000e+00,-4.000000000000000000e+00,-2.000000000000000000e+00,-2.000000000000000000e+00,4.713745117187500000e-01,2.568969726562500000e-01,-2.985839843750000000e-01,-7.890625000000000000e-01,-1.083984375000000000e-01,-7.924804687500000000e-01,5.537109375000000000e-01,4.881250000000000000e+01,1.368750000000000000e+01,1.575000000000000000e+01
9.900000000000007683e-01,-2.000000000000000000e+00,1.000000000000000000e+00,0.000000000000000000e+00,-3.000000000000000000e+00,-7.000000000000000000e+00,-4.000000000000000000e+00,-2.000000000000000000e+00,-2.000000000000000000e+00,4.713745117187500000e-01,2.568969726562500000e-01,-2.985839843750000000e-01,-7.890625000000000000e-01,-1.083984375000000000e-01,-7.924804687500000000e-01,5.537109375000000000e-01,4.881250000000000000e+01,1.368750000000000000e+01,1.575000000000000000e+01
9.950000000000007727e-01,-2.000000000000000000e+00,1.000000000000000000e+00,0.000000000000000000e+00,-3.000000000000000000e+00,-7.000000000000000000e+00,-4.000000000000000000e+00,-2.000000000000000000e+00,-2.000000000000000000e+00,4.713745117187500000e-01,2.568969726562500000e-01,-2.985839843750000000e-01,-7.890625000000000000e-01,-1.083984375000000000e-01,-7.924804687500000000e-01,5.537109375000000000e-01,4.881250000000000000e+01,1.368750000000000000e+01,1.575000000000000000e+01
1.000000000000000888e+00,-2.000000000000000000e+00,-1.000000000000000000e+00,-2.000000000000000000e+00,0.000000000000000000e+00,-5.000000000000000000e+00,-5.000000000000000000e+00,-1.000000000000000000e+00,0.000000000000000000e+00,4.666137695312500000e-01,2.467651367187500000e-01,-3.037109375000000000e-01,-7.932128906250000000e-01,-1.103515625000000000e-01,-7.285156250000000000e-01,4.946289062500000000e-01,4.950000000000000000e+01,2.268750000000000000e+01,2.425000000000000000e+01
1.005000000000000560e+00,-1.000000000000000000e+00,-1.000000000000000000e+00,-1.000000000000000000e+00,-1.000000000000000000e+00,-4.000000000000000000e+00,-8.000000000000000000e+00,-2.000000000000000000e+00,0.000000000000000000e+00,4.666137695312500000e-01,2.467651367187500000e-01,-3.037109375000000000e-01,-7.932128906250000000e-01,-1.103515625000000000e-01,-7.285156250000000000e-01,4.946289062500000000e-01,4.950000000000000000e+01,2.268750000000000000e+01,2.425000000000000000e+01
1.010000000000000453e+00,-1.000000000000000000e+00,-1.000000000000000000e+00,-1.000000000000000000e+00,-1.000000000000000000e+00,-4.000000000000000000e+00,-8.000000000000000000e+00,-2.000000000000000000e+00,0.000000000000000000e+00,4.666137695312500000e-01,2.467651367187500000e-01,-3.037109375000000000e-01,-7.932128906250000000e-01,-1.103515625000000000e-01,-7.285156250000000000e-01,4.946289062500000000e-01,4.950000000000000000e+01,2.268750000000000000e+01,2.425000000000000000e+01
1.015000000000000346e+00,-1.000000000000000000e+00,-1.000000000000000000e+00,-1.000000000000000000e+00,-1.000000000000000000e+00,-4.000000000000000000e+00,-8.000000000000000000e+00,-2.000000000000000000e+00,0.000000000000000000e+00,4.666137695312500000e-01,2.467651367187500000e-01,-3.037109375000000000e-01,-7.932128906250000000e-01,-1.103515625000000000e-01,-7.285156250000000000e-01,4.946289062500000000e-01,4.950000000000000000e+01,2.268750000000000000e+01,2.425000000000000000e+01
1.020000000000000240e+00,-1.000000000000000000e+00,-2.000000000000000000e+00,-2.000000000000000000e+00,1.000000000000000000e+00,0.000000000000000000e+00,1.000000000000000000e+00,-2.000000000000000000e+00,-2.000000000000000000e+00,4.634399414062500000e-01,2.352294921875000000e-01,-3.085327148437500000e-01,-7.966918945312500000e-01,-1.147460937500000000e-01,-6.977539062500000000e-01,4.448242187500000000e-01,4.531250000000000000e+01,3.250000000000000000e+01,3.037500000000000000e+01
1.024999999999999911e+00,-1.000000000000000000e+00,-2.000000000000000000e+00,-2.000000000000000000e+00,1.000000000000000000e+00,0.000000000000000000e+00,1.000000000000000000e+00,-2.000000000000000000e+00,-2.000000000000000000e+00,4.634399414062500000e-01,2.352294921875000000e-01,-3.085327148437500000e-01,-7.966918945312500000e-01,-1.147460937500000000e-01,-6.977539062500000000e-01,4.448242187500000000e-01,4.531250000000000000e+01,3.250000000000000000e+01,3.037500000000000000e+01
1.030000000000000027e+00,-1.000000000000000000e+00,-3.000000000000000000e+00,-2.000000000000000000e+00,-3.000000000000000000e+00,-3.000000000000000000e+00,-4.000000000000000000e+00,-1.000000000000000000e+00,-3.000000000000000000e+00,4.634399414062500000e-01,2.352294921875000000e-01,-3.085327148437500000e-01,-7.966918945312500000e-01,-1.147460937500000000e-01,-6.977539062500000000e-01,4.448242187500000000e-01,4.531250000000000000e+01,3.250000000000000000e+01,3.037500000000000000e+01
1.034999999999999920e+00,-1.000000000000000000e+00,-3.000000000000000000e+00,-2.000000000000000000e+00,-3.000000000000000000e+00,-3.000000000000000000e+00,-4.000000000000000000e+00,-1.000000000000000000e+00,-3.000000000000000000e+00,4.634399414062500000e-01,2.352294921875000000e-01,-3.085327148437500000e-01,-7.966918945312500000e-01,-1.147460937500000000e-01,-6.977539062500000000e-01,4.448242187500000000e-01,4.531250000000000000e+01,3.250000000000000000e+01,3.037500000000000000e+01
1.039999999999999813e+00,-1.000000000000000000e+00,-3.000000000000000000e+00,-2.000000000000000000e+00,-3.000000000000000000e+00,-3.000000000000000000e+00,-4.000000000000000000e+00,-1.000000000000000000e+00,-3.000000000000000000e+00,4.614868164062500000e-01,2.222900390625000000e-01,-3.127441406250000000e-01,-7.998657226562500000e-01,-1.313476562500000000e-01,-7.006835937500000000e-01,4.067382812500000000e-01,4.418750000000000000e+01,4.262500000000000000e+01,3.425000000000000000e+01
1.044999999999999707e+00,1.000000000000000000e+00,1.000000000000000000e+00,0.000000000000000000e+00,-1.000000000000000000e+00,0.000000000000000000e+00,0.000000000000000000e+00,0.000000000000000000e+00,0.000000000000000000e+00,4.614868164062500000e-01,2.222900390625000000e-01,-3.127441406250000000e-01,-7.998657226562500000e-01,-1.313476562500000000e-01,-7.006835937500000000e-01,4.067382812500000000e-01,4.418750000000000000e+01,4.262500000000000000e+01,3.425000000000000000e+01
1.049999999999999600e+00,1.000000000000000000e+00,1.000000000000000000e+00,0.000000000000000000e+00,-1.000000000000000000e+00,0.000000000000000000e+00,0.000000000000000000e+00,0.000000000000000000e+00,0.000000000000000000e+00,4.614868164062500000e-01,2.222900390625000000e-01,-3.127441406250000000e-01,-7.998657226562500000e-01,-1.313476562500000000e-01,-7.006835937500000000e-01,4.067382812500000000e-01,4.418750000000000000e+01,4.262500000000000000e+01,3.425000000000000000e+01
1.054999999999999494e+00,1.000000000000000000e+00,-2.000000000000000000e+00,-1.000000000000000000e+00,-3.000000000000000000e+00,1.000000000000000000e+00,-2.000000000000000000e+00,-1.000000000000000000e+00,0.000000000000000000e+00,4.598999023437500000e-01,2.080078125000000000e-01,-3.167114257812500000e-01,-8.031005859375000000e-01,-1.435546875000000000e-01,-7.153320312500000000e-01,3.720703125000000000e-01,4.793750000000000000e+01,5.006250000000000000e+01,3.687500000000000000e+01
1.059999999999999387e+00,0.000000000000000000e+00,0.000000000000000000e+00,-2.000000000000000000e+00,-2.000000000000000000e+00,-1.000000000000000000e+00,-3.000000000000000000e+00,-1.000000000000000000e+00,0.000000000000000000e+00,4.598999023437500000e-01,2.080078125000000000e-01,-3.167114257812500000e-01,-8.031005859375000000e-01,-1.435546875000000000e-01,-7.153320312500000000e-01,3.720703125000000000e-01,4.793750000000000000e+01,5.006250000000000000e+01,3.687500000000000000e+01
1.064999999999999281e+00,0.000000000000000000e+00,0.000000000000000000e+00,-2.000000000000000000e+00,-2.000000000000000000e+00,-1.000000000000000000e+00,-3.000000000000000000e+00,-1.000000000000000000e+00,0.000000000000000000e+00,4.598999023437500000e-01,2.080078125000000000e-01,-3.167114257812500000e-01,-8.031005859375000000e-01,-1.435546875000000000e-01,-7.153320312500000000e-01,3.720703125000000000e-01,4.793750000000000000e+01,5.006250000000000000e+01,3.687500000000000000e+01
1.069999999999999174e+00,0.000000000000000000e+00,0.000000000000000000e+00,-2.000000000000000000e+00,-2.000000000000000000e+00,-1.000000000000000000e+00,-3.000000000000000000e+00,-1.000000000000000000e+00,0.000000000000000000e+00,4.598999023437500000e-01,2.080078125000000000e-01,-3.167114257812500000e-01,-8.031005859375000000e-01,-1.435546875000000000e-01,-7.153320312500000000e-01,3.720703125000000000e-01,4.793750000000000000e+01,5.006250000000000000e+01,3.687500000000000000e+01
1.074999999999999067e+00,-2.000000000000000000e+00,-2.000000000000000000e+00,-1.000000000000000000e+00,-2.000000000000000000e+00,-4.000000000000000000e+00,-6.000000000000000000e+00,-1.000000000000000000e+00,-2.000000000000000000e+00,4.598999023437500000e-01,2.080078125000000000e-01,-3.167114257812500000e-01,-8.031005859375000000e-01,-1.435546875000000000e-01,-7.153320312500000000e-01,3.720703125000000000e-01,4.793750000000000000e+01,5.006250000000000000e+01,3.687500000000000000e+01
1.079999999999998961e+00,-1.000000000000000000e+00,-1.000000000000000000e+00,-1.000000000000000000e+00,-1.000000000000000000e+00,7.000000000000000000e+00,1.700000000000000000e+01,-1.000000000000000000e+00,-1.000000000000000000e+00,4.583740234375000000e-01,1.932373046875000000e-01,-3.202514648437500000e-01,-8.062744140625000000e-01,-1.601562500000000000e-01,-7.104492187500000000e-01,3.559570312500000000e-01,5.012500000000000000e+01,5.362500000000000000e+01,3.693750000000000000e+01
1.084999999999998854e+00,-1.000000000000000000e+00,-1.000000000000000000e+00,-1.000000000000000000e+00,-1.000000000000000000e+00,7.000000000000000000e+00,1.700000000000000000e+01,-1.000000000000000000e+00,-1.000000000000000000e+00,4.583740234375000000e-01,1.932373046875000000e-01,-3.202514648437500000e-01,-8.062744140625000000e-01,-1.601562500000000000e-01,-7.104492187500000000e-01,3.559570312500000000e-01,5.012500000000000000e+01,5.362500000000000000e+01,3.693750000000000000e+01
1.089999999999998748e+00,-2.000000000000000000e+00,-1.000000000000000000e+00,-2.000000000000000000e+00,1.000000000000000000e+00,0.000000000000000000e+00,-4.000000000000000000e+00,-2.000000000000000000e+00,0.000000000000000000e+00,4.583740234375000000e-01,1.932373046875000000e-01,-3.202514648437500000e-01,-8.062744140625000000e-01,-1.601562500000000000e-01,-7.104492187500000000e-01,3.559570312500000000e-01,5.012500000000000000e+01,5.362500000000000000e+01,3.693750000000000000e+01
1.094999999999998641e+00,-2.000000000000000000e+00,-1.000000000000000000e+00,-2.000000000000000000e+00,1.000000000000000000e+00,0.000000000000000000e+00,-4.000000000000000000e+00,-2.000000000000000000e+00,0.000000000000000000e+00,4.583740234375000000e-01,1.932373046875000000e-01,-3.202514648437500000e-01,-8.062744140625000000e-01,-1.601562500000000000e-01,-7.104492187500000000e-01,3.559570312500000000e-01,5.012500000000000000e+01,5.362500000000000000e+01,3.693750000000000000e+01
1.099999999999998312e+00,-2.000000000000000000e+00,-1.000000000000000000e+00,-2.000000000000000000e+00,1.000000000000000000e+00,0.000000000000000000e+00,-4.000000000000000000e+00,-2.000000000000000000e+00,0.000000000000000000e+00,4.583740234375000000e-01,1.932373046875000000e-01,-3.202514648437500000e-01,-8.062744140625000000e-01,-1.601562500000000000e-01,-7.104492187500000000e-01,3.559570312500000000e-01,5.012500000000000000e+01,5.362500000000000000e+01,3.693750000000000000e+01
1.104999999999998428e+00,-1.000000000000000000e+00,-1.000000000000000000e+00,-3.000000000000000000e+00,-1.000000000000000000e+00,-4.000000000000000000e+00,3.000000000000000000e+00,1.000000000000000000e+00,-1.000000000000000000e+00,4.573974609375000000e-01,1.785888671875000000e-01,-3.233032226562500000e-01,-8.089599609375000000e-01,-1.806640625000000000e-01,-7.114257812500000000e-01,3.476562500000000000e-01,4.656250000000000000e+01,5.475000000000000000e+01,3.618750000000000000e+01
1.109999999999998321e+00,-1.000000000000000000e+00,-1.000000000000000000e+00,-3.000000000000000000e+00,-1.000000000000000000e+00,-4.000000000000000000e+00,3.000000000000000000e+00,1.000000000000000000e+00,-1.000000000000000000e+00,4.573974609375000000e-01,1.785888671875000000e-01,-3.233032226562500000e-01,-8.089599609375000000e-01,-1.806640625000000000e-01,-7.114257812500000000e-01,3.476562500000000000e-01,4.656250000000000000e+01,5.475000000000000000e+01,3.618750000000000000e+01
1.114999999999998215e+00,-1.000000000000000000e+00,-1.000000000000000000e+00,-3.000000000000000000e+00,-1.000000000000000000e+00,-4.000000000000000000e+00,3.000000000000000000e+00,1.000000000000000000e+00,-1.000000000000000000e+00,4.573974609375000000e-01,1.785888671875000000e-01,-3.233032226562500000e-01,-8.089599609375000000e-01,-1.806640625000000000e-01,-7.114257812500000000e-01,3.476562500000000000e-01,4.656250000000000000e+01,5.475000000000000000e+01,3.618750000000000000e+01
1.119999999999998108e+00,0.000000000000000000e+00,-1.000000000000000000e+00,-1.000000000000000000e+00,0.000000000000000000e+00,-1.000000000000000000e+00,2.000000000000000000e+00,0.000000000000000000e+00,-1.000000000000000000e+00,4.574584960937500000e-01,1.646118164062500000e-01,-3.258666992187500000e-01,-8.108520507812500000e-01,-1.899414062500000000e-01,-7.290039062500000000e-01,3.637695312500000000e-01,3.831250000000000000e+01,5.375000000000000000e+01,3.518750000000000000e+01
1.124999999999998002e+00,0.000000000000000000e+00,-1.000000000000000000e+00,0.000000000000000000e+00,0.000000000000000000e+00,1.000000000000000000e+00,-2.000000000000000000e+00,-1.000000000000000000e+00,0.000000000000000000e+00,4.574584960937500000e-01,1.646118164062500000e-01,-3.258666992187500000e-01,-8.108520507812500000e-01,-1.899414062500000000e-01,-7.290039062500000000e-01,3.637695312500000000e-01,3.831250000000000000e+01,5.375000000000000000e+01,3.518750000000000000e+01
1.129999999999997895e+00,0.000000000000000000e+00,-1.000000000000000000e+00,0.000000000000000000e+00,0.000000000000000000e+00,1.000000000000000000e+00,-2.000000000000000000e+00,-1.000000000000000000e+00,0.000000000000000000e+00,4.574584960937500000e-01,1.646118164062500000e-01,-3.258666992187500000e-01,-8.108520507812500000e-01,-1.899414062500000000e-01,-7.290039062500000000e-01,3.637695312500000000e-01,3.831250000000000000e+01,5.375000000000000000e+01,3.518750000000000000e+01
1.134999999999997788e+00,0.000000000000000000e+00,-1.000000000000000000e+00,0.000000000000000000e+00,0.000000000000000000e+00,1.000000000000000000e+00,-2.000000000000000000e+00,-1.000000000000000000e+00,0.000000000000000000e+00,4.574584960937500000e-01,1.646118164062500000e-01,-3.258666992187500000e-01,-8.108520507812500000e-01,-1.899414062500000000e-01,-7.290039062500000000e-01,3.637695312500000000e-01,3.831250000000000000e+01,5.375000000000000000e+01,3.518750000000000000e+01
1.139999999999997682e+00,-2.000000000000000000e+00,-4.000000000000000000e+00,0.000000000000000000e+00,-1.000000000000000000e+00,2.000000000000000000e+00,1.000000000000000000e+00,2.000000000000000000e+00,0.000000000000000000e+00,4.588623046875000000e-01,1.519165039062500000e-01,-3.275146484375000000e-01,-8.118286132812500000e-01,-1.928710937500000000e-01,-7.573242187500000000e-01,3.852539062500000000e-01,2.668750000000000000e+01,5.262500000000000000e+01,3.187500000000000000e+01
1.144999999999997575e+00,-2.000000000000000000e+00,-4.000000000000000000e+00,0.000000000000000000e+00,-1.000000000000000000e+00,2.000000000000000000e+00,1.000000000000000000e+00,2.000000000000000000e+00,0.000000000000000000e+00,4.588623046875000000e-01,1.519165039062500000e-01,-3.275146484375000000e-01,-8.118286132812500000e-01,-1.928710937500000000e-01,-7.573242187500000000e-01,3.852539062500000000e-01,2.668750000000000000e+01,5.262500000000000000e+01,3.187500000000000000e+01
1.149999999999997691e+00,-2.000000000000000000e+00,-4.000000000000000000e+00,0.000000000000000000e+00,-1.000000000000000000e+00,2.000000000000000000e+00,1.000000000000000000e+00,2.000000000000000000e+00,0.000000000000000000e+00,4.588623046875000000e-01,1.519165039062500000e-01,-3.275146484375000000e-01,-8.118286132812500000e-01,-1.928710937500000000e-01,-7.573242187500000000e-01,3.852539062500000000e-01,2.668750000000000000e+01,5.262500000000000000e+01,3.187500000000000000e+01
1.154999999999997362e+00,-1.000000000000000000e+00,0.000000000000000000e+00,-1.000000000000000000e+00,-3.000000000000000000e+00,-5.000000000000000000e+00,-1.100000000000000000e+01,-4.000000000000000000e+00,-2.000000000000000000e+00,4.588623046875000000e-01,1.519165039062500000e-01,-3.275146484375000000e-01,-8.118286132812500000e-01,-1.928710937500000000e-01,-7.573242187500000000e-01,3.852539062500000000e-01,2.668750000000000000e+01,5.262500000000000000e+01,3.187500000000000000e+01
1.159999999999997256e+00,-1.000000000000000000e+00,0.000000000000000000e+00,-1.000000000000000000e+00,-3.000000000000000000e+00,-5.000000000000000000e+00,-1.100000000000000000e+01,-4.000000000000000000e+00,-2.000000000000000000e+00,4.588623046875000000e-01,1.519165039062500000e-01,-3.275146484375000000e-01,-8.118286132812500000e-01,-1.928710937500000000e-01,-7.573242187500000000e-01,3.852539062500000000e-01,2.668750000000000000e+01,5.262500000000000000e+01,3.187500000000000000e+01
1.164999999999997149e+00,1.000000000000000000e+00,-1.000000000000000000e+00,-1.000000000000000000e+00,0.000000000000000000e+00,0.000000000000000000e+00,2.000000000000000000e+00,1.000000000000000000e+00,-2.000000000000000000e+00,4.617309570312500000e-01,1.405639648437500000e-01,-3.286132812500000000e-01,-8.118286132812500000e-01,-1.860351562500000000e-01,-8.046875000000000000e-01,3.984375000000000000e-01,1.531250000000000000e+01,5.043750000000000000e+01,3.025000000000000000e+01
1.169999999999997042e+00,1.000000000000000000e+00,-1.000000000000000000e+00,-1.000000000000000000e+00,0.000000000000000000e+00,0.000000000000000000e+00,2.000000000000000000e+00,1.000000000000000000e+00,-2.000000000000000000e+00,4.617309570312500000e-01,1.405639648437500000e-01,-3.286132812500000000e-01,-8.118286132812500000e-01,-1.860351562500000000e-01,-8.046875000000000000e-01,3.984375000000000000e-01,1.531250000000000000e+01,5.043750000000000000e+01,3.025000000000000000e+01
1.174999999999996936e+00,1.000000000000000000e+00,-1.000000000000000000e+00,-1.000000000000000000e+00,0.000000000000000000e+00,0.000000000000000000e+00,2.000000000000000000e+00,1.000000000000000000e+00,-2.000000000000000000e+00,4.617309570312500000e-01,1.405639648437500000e-01,-3.286132812500000000e-01,-8.118286132812500000e-01,-1.860351562500000000e-01,-8.046875000000000000e-01,3.984375000000000000e-01,1.531250000000000000e+01,5.043750000000000000e+01,3.025000000000000000e+01
1.179999999999996829e+00,1.000000000000000000e+00,-1.000000000000000000e+00,-1.000000000000000000e+00,0.000000000000000000e+00,0.000000000000000000e+00,2.000000000000000000e+00,1.000000000000000000e+00,-2.000000000000000000e+00,4.617309570312500000e-01,1.405639648437500000e-01,-3.286132812500000000e-01,-8.118286132812500000e-01,-1.860351562500000000e-01,-8.046875000000000000e-01,3.984375000000000000e-01,1.531250000000000000e+01,5.043750000000000000e+01,3.025000000000000000e+01
1.184999999999996723e+00,-1.000000000000000000e+00,-3.000000000000000000e+00,-1.000000000000000000e+00,-1.000000000000000000e+00,2.000000000000000000e+00,5.000000000000000000e+00,2.000000000000000000e+00,1.000000000000000000e+00,4.652099609375000000e-01,1.303710937500000000e-01,-3.294677734375000000e-01,-8.112182617187500000e-01,-1.899414062500000000e-01,-8.305664062500000000e-01,4.262695312500000000e-01,7.875000000000000000e+00,4.681250000000000000e+01,2.925000000000000000e+01
1.189999999999996616e+00,-3.000000000000000000e+00,-1.000000000000000000e+00,-1.000000000000000000e+00,-1.000000000000000000e+00,-5.000000000000000000e+00,-1.400000000000000000e+01,-5.000000000000000000e+00,-2.000000000000000000e+00,4.652099609375000000e-01,1.303710937500000000e-01,-3.294677734375000000e-01,-8.112182617187500000e-01,-1.899414062500000000e-01,-8.305664062500000000e-01,4.262695312500000000e-01,7.875000000000000000e+00,4.681250000000000000e+01,2.925000000000000000e+01
1.194999999999996509e+00,-3.000000000000000000e+00,-1.000000000000000000e+00,-1.000000000000000000e+00,-1.000000000000000000e+00,-5.000000000000000000e+00,-1.400000000000000000e+01,-5.000000000000000000e+00,-2.000000000000000000e+00,4.652099609375000000e-01,1.303710937500000000e-01,-3.294677734375000000e-01,-8.112182617187500000e-01,-1.899414062500000000e-01,-8.305664062500000000e-01,4.262695312500000000e-01,7.875000000000000000e+00,4.681250000000000000e+01,2.925000000000000000e+01
1.199999999999996403e+00,-3.000000000000000000e+00,-1.000000000000000000e+00,-1.000000000000000000e+00,-1.000000000000000000e+00,-5.000000000000000000e+00,-1.400000000000000000e+01,-5.000000000000000000e+00,-2.000000000000000000e+00,4.652099609375000000e-01,1.303710937500000000e-01,-3.294677734375000000e-01,-8.112182617187500000e-01,-1.899414062500000000e-01,-8.305664062500000000e-01,4.262695312500000000e-01,7.875000000000000000e+00,4.681250000000000000e+01,2.925000000000000000e+01
1.204999999999996296e+00,-3.000000000000000000e+00,-1.000000000000000000e+00,-1.000000000000000000e+00,-1.000000000000000000e+00,-5.000000000000000000e+00,-1.400000000000000000e+01,-5.000000000000000000e+00,-2.000000000000000000e+00,4.652099609375000000e-01,1.303710937500000000e-01,-3.294677734375000000e-01,-8.112182617187500000e-01,-1.899414062500000000e-01,-8.305664062500000000e-01,4.262695312500000000e-01,7.875000000000000000e+00,4.681250000000000000e+01,2.925000000000000000e+01
1.209999999999996190e+00,-3.000000000000000000e+00,-1.000000000000000000e+00,-1.000000000000000000e+00,-1.000000000000000000e+00,-5.000000000000000000e+00,-1.400000000000000000e+01,-5.000000000000000000e+00,-2.000000000000000000e+00,4.652099609375000000e-01,1.303710937500000000e-01,-3.294677734375000000e-01,-8.112182617187500000e-01,-1.899414062500000000e-01,-8.305664062500000000e-01,4.262695312500000000e-01,7.875000000000000000e+00,4.681250000000000000e+01,2.925000000000000000e+01
1.214999999999996083e+00,-1.000000000000000000e+00,-1.000000000000000000e+00,-1.000000000000000000e+00,-2.000000000000000000e+00,-6.000000000000000000e+00,-6.000000000000000000e+00,-3.000000000000000000e+00,-2.000000000000000000e+00,4.688110351562500000e-01,1.210327148437500000e-01,-3.301391601562500000e-01,-8.103027343750000000e-01,-2.192382812500000000e-01,-8.276367187500000000e-01,4.550781250000000000e-01,3.187500000000000000e+00,4.312500000000000000e+01,2.593750000000000000e+01
1.219999999999995977e+00,-1.000000000000000000e+00,-2.000000000000000000e+00,-3.000000000000000000e+00,-3.000000000000000000e+00,0.000000000000000000e+00,2.000000000000000000e+00,-1.000000000000000000e+00,-3.000000000000000000e+00,4.688110351562500000e-01,1.210327148437500000e-01,-3.301391601562500000e-01,-8.103027343750000000e-01,-2.192382812500000000e-01,-8.276367187500000000e-01,4.550781250000000000e-01,3.187500000000000000e+00,4.312500000000000000e+01,2.593750000000000000e+01
1.224999999999996092e+00,-1.000000000000000000e+00,-2.000000000000000000e+00,-3.000000000000000000e+00,-3.000000000000000000e+00,0.000000000000000000e+00,2.000000000000000000e+00,-1.000000000000000000e+00,-3.000000000000000000e+00,4.688110351562500000e-01,1.210327148437500000e-01,-3.301391601562500000e-01,-8.103027343750000000e-01,-2.192382812500000000e-01,-8.276367187500000000e-01,4.550781250000000000e-01,3.187500000000000000e+00,4.312500000000000000e+01,2.593750000000000000e+01
1.229999999999995763e+00,-1.000000000000000000e+00,-2.000000000000000000e+00,-3.000000000000000000e+00,-3.000000000000000000e+00,0.000000000000000000e+00,2.000000000000000000e+00,-1.000000000000000000e+00,-3.000000000000000000e+00,4.688110351562500000e-01,1.210327148437500000e-01,-3.301391601562500000e-01,-8.103027343750000000e-01,-2.192382812500000000e-01,-8.276367187500000000e-01,4.550781250000000000e-01,3.187500000000000000e+00,4.312500000000000000e+01,2.593750000000000000e+01
1.234999999999995657e+00,-2.000000000000000000e+00,0.000000000000000000e+00,-1.000000000000000000e+00,-1.000000000000000000e+00,-2.000000000000000000e+00,-1.000000000000000000e+00,-3.000000000000000000e+00,-1.000000000000000000e+00,4.688110351562500000e-01,1.210327148437500000e-01,-3.301391601562500000e-01,-8.103027343750000000e-01,-2.192382812500000000e-01,-8.276367187500000000e-01,4.550781250000000000e-01,3.187500000000000000e+00,4.312500000000000000e+01,2.593750000000000000e+01
1.239999999999995550e+00,-2.000000000000000000e+00,0.000000000000000000e+00,-1.000000000000000000e+00,-1.000000000000000000e+00,-2.000000000000000000e+00,-1.000000000000000000e+00,-3.000000000000000000e+00,-1.000000000000000000e+00,4.688110351562500000e-01,1.210327148437500000e-01,-3.301391601562500000e-01,-8.103027343750000000e-01,-2.192382812500000000e-01,-8.276367187500000000e-01,4.550781250000000000e-01,3.187500000000000000e+00,4.312500000000000000e+01,2.593750000000000000e+01
