0.005,-2.0,-5.0,2.0,-6.0,-4.0,-3.0,-1.0,-1.0,0.2154541015625,-0.009521484375,0.150390625,-0.96484375,0.20068359375,-0.18603515625,0.77978515625,-21.375,30.0625,-9.125
0.01,-2.0,4.0,3.0,1.0,0.0,-1.0,-1.0,-2.0,0.2154541015625,-0.009521484375,0.150390625,-0.96484375,0.20068359375,-0.18603515625,0.77978515625,-21.375,30.0625,-9.125
0.015,-2.0,4.0,3.0,1.0,0.0,-1.0,-1.0,-2.0,0.21868896484375,-0.0125732421875,0.15283203125,-0.96368408203125,0.158203125,-0.22412109375,0.78662109375,-31.125,24.9375,-6.8125
0.02,-2.0,4.0,3.0,1.0,0.0,-1.0,-1.0,-2.0,0.21868896484375,-0.0125732421875,0.15283203125,-0.96368408203125,0.158203125,-0.22412109375,0.78662109375,-31.125,24.9375,-6.8125
0.025,0.0,1.0,-14.0,-6.0,3.0,0.0,1.0,2.0,0.21868896484375,-0.0125732421875,0.15283203125,-0.96368408203125,0.158203125,-0.22412109375,0.78662109375,-31.125,24.9375,-6.8125
0.030000000000000002,0.0,1.0,-14.0,-6.0,3.0,0.0,1.0,2.0,0.21868896484375,-0.0125732421875,0.15283203125,-0.96368408203125,0.158203125,-0.22412109375,0.78662109375,-31.125,24.9375,-6.8125
0.035,0.0,1.0,-14.0,-6.0,3.0,0.0,1.0,2.0,0.223388671875,-0.01556396484375,0.1541748046875,-0.96234130859375,0.1279296875,-0.2890625,0.77978515625,-35.5625,20.0,-2.25
0.04,0.0,-1.0,7.0,19.0,-3.0,-5.0,-2.0,-2.0,0.223388671875,-0.01556396484375,0.1541748046875,-0.96234130859375,0.1279296875,-0.2890625,0.77978515625,-35.5625,20.0,-2.25
0.045,0.0,-1.0,7.0,19.0,-3.0,-5.0,-2.0,-2.0,0.223388671875,-0.01556396484375,0.1541748046875,-0.96234130859375,0.1279296875,-0.2890625,0.77978515625,-35.5625,20.0,-2.25
0.049999999999999996,0.0,-1.0,7.0,19.0,-3.0,-5.0,-2.0,-2.0,0.223388671875,-0.01556396484375,0.1541748046875,-0.96234130859375,0.1279296875,-0.2890625,0.77978515625,-35.5625,20.0,-2.25
0.05499999999999999,1.0,-1.0,-1.0,2.0,8.0,3.0,1.0,-1.0,0.223388671875,-0.01556396484375,0.1541748046875,-0.96234130859375,0.1279296875,-0.2890625,0.77978515625,-35.5625,20.0,-2.25
0.05999999999999999,1.0,-1.0,-1.0,2.0,8.0,3.0,1.0,-1.0,0.223388671875,-0.01556396484375,0.1541748046875,-0.96234130859375,0.1279296875,-0.2890625,0.77978515625,-35.5625,20.0,-2.25
0.06499999999999999,1.0,-1.0,-1.0,2.0,8.0,3.0,1.0,-1.0,0.22760009765625,-0.01751708984375,0.15478515625,-0.96124267578125,0.1328125,-0.3037109375,0.818359375,-32.75,14.125,1.125
0.06999999999999999,1.0,-1.0,-1.0,2.0,8.0,3.0,1.0,-1.0,0.22760009765625,-0.01751708984375,0.15478515625,-0.96124267578125,0.1328125,-0.3037109375,0.818359375,-32.75,14.125,1.125
0.075,-6.0,-16.0,-2.0,0.0,-10.0,-6.0,-2.0,-3.0,0.22760009765625,-0.01751708984375,0.15478515625,-0.96124267578125,0.1328125,-0.3037109375,0.818359375,-32.75,14.125,1.125
0.08,-6.0,-16.0,-2.0,0.0,-10.0,-6.0,-2.0,-3.0,0.22760009765625,-0.01751708984375,0.15478515625,-0.96124267578125,0.1328125,-0.3037109375,0.818359375,-32.75,14.125,1.125
0.085,0.0,3.0,-2.0,-13.0,-7.0,-3.0,-2.0,-1.0,0.22760009765625,-0.01751708984375,0.15478515625,-0.96124267578125,0.1328125,-0.3037109375,0.818359375,-32.75,14.125,1.125
0.09000000000000001,0.0,3.0,-2.0,-13.0,-7.0,-3.0,-2.0,-1.0,0.22760009765625,-0.01751708984375,0.15478515625,-0.96124267578125,0.1328125,-0.3037109375,0.818359375,-32.75,14.125,1.125
0.09500000000000001,0.0,3.0,-2.0,-13.0,-7.0,-3.0,-2.0,-1.0,0.23175048828125,-0.01934814453125,0.1549072265625,-0.960205078125,0.1181640625,-0.30078125,0.82373046875,-33.1875,12.0625,3.1875
0.10000000000000002,0.0,3.0,-2.0,-13.0,-7.0,-3.0,-2.0,-1.0,0.23175048828125,-0.01934814453125,0.1549072265625,-0.960205078125,0.1181640625,-0.30078125,0.82373046875,-33.1875,12.0625,3.1875
0.10500000000000002,-2.0,0.0,-1.0,3.0,5.0,2.0,0.0,-1.0,0.23175048828125,-0.01934814453125,0.1549072265625,-0.960205078125,0.1181640625,-0.30078125,0.82373046875,-33.1875,12.0625,3.1875
0.11000000000000003,-2.0,0.0,-1.0,3.0,5.0,2.0,0.0,-1.0,0.23175048828125,-0.01934814453125,0.1549072265625,-0.960205078125,0.1181640625,-0.30078125,0.82373046875,-33.1875,12.0625,3.1875
0.11500000000000003,-2.0,0.0,-1.0,3.0,5.0,2.0,0.0,-1.0,0.23681640625,-0.02117919921875,0.1546630859375,-0.958984375,0.099609375,-0.36279296875,0.8408203125,-35.6875,9.75,4.5625
0.12000000000000004,2.0,1.0,19.0,1.0,9.0,3.0,0.0,1.0,0.23681640625,-0.02117919921875,0.1546630859375,-0.958984375,0.099609375,-0.36279296875,0.8408203125,-35.6875,9.75,4.5625
0.12500000000000003,2.0,1.0,19.0,1.0,9.0,3.0,0.0,1.0,0.23681640625,-0.02117919921875,0.1546630859375,-0.958984375,0.099609375,-0.36279296875,0.8408203125,-35.6875,9.75,4.5625
0.13000000000000003,2.0,-1.0,8.0,-9.0,-5.0,-3.0,-2.0,-1.0,0.23681640625,-0.02117919921875,0.1546630859375,-0.958984375,0.099609375,-0.36279296875,0.8408203125,-35.6875,9.75,4.5625
0.13500000000000004,2.0,-1.0,8.0,-9.0,-5.0,-3.0,-2.0,-1.0,0.23681640625,-0.02117919921875,0.1546630859375,-0.958984375,0.099609375,-0.36279296875,0.8408203125,-35.6875,9.75,4.5625
0.14000000000000004,2.0,-1.0,8.0,-9.0,-5.0,-3.0,-2.0,-1.0,0.2413330078125,-0.0224609375,0.1544189453125,-0.95782470703125,0.0927734375,-0.3525390625,0.84814453125,-33.6875,6.6875,3.625
0.14500000000000005,2.0,-1.0,8.0,-9.0,-5.0,-3.0,-2.0,-1.0,0.2413330078125,-0.0224609375,0.1544189453125,-0.95782470703125,0.0927734375,-0.3525390625,0.84814453125,-33.6875,6.6875,3.625
0.15000000000000005,-3.0,3.0,-4.0,2.0,0.0,-2.0,0.0,-1.0,0.2413330078125,-0.0224609375,0.1544189453125,-0.95782470703125,0.0927734375,-0.3525390625,0.84814453125,-33.6875,6.6875,3.625
0.15500000000000005,-3.0,3.0,-4.0,2.0,0.0,-2.0,0.0,-1.0,0.2413330078125,-0.0224609375,0.1544189453125,-0.95782470703125,0.0927734375,-0.3525390625,0.84814453125,-33.6875,6.6875,3.625
0.16000000000000006,-1.0,-4.0,-8.0,-13.0,-7.0,-3.0,0.0,-1.0,0.2413330078125,-0.0224609375,0.1544189453125,-0.95782470703125,0.0927734375,-0.3525390625,0.84814453125,-33.6875,6.6875,3.625
0.16500000000000006,-1.0,-4.0,-8.0,-13.0,-7.0,-3.0,0.0,-1.0,0.2413330078125,-0.0224609375,0.1544189453125,-0.95782470703125,0.0927734375,-0.3525390625,0.84814453125,-33.6875,6.6875,3.625
0.17000000000000007,-1.0,-4.0,-8.0,-13.0,-7.0,-3.0,0.0,-1.0,0.2462158203125,-0.0233154296875,0.15447998046875,-0.95654296875,0.1220703125,-0.36865234375,0.8515625,-35.3125,6.3125,2.5625
0.17500000000000007,-1.0,-4.0,-8.0,-13.0,-7.0,-3.0,0.0,-1.0,0.2462158203125,-0.0233154296875,0.15447998046875,-0.95654296875,0.1220703125,-0.36865234375,0.8515625,-35.3125,6.3125,2.5625
0.18000000000000008,0.0,4.0,7.0,17.0,2.0,-1.0,-2.0,0.0,0.2462158203125,-0.0233154296875,0.15447998046875,-0.95654296875,0.1220703125,-0.36865234375,0.8515625,-35.3125,6.3125,2.5625
0.18500000000000008,0.0,4.0,7.0,17.0,2.0,-1.0,-2.0,0.0,0.2462158203125,-0.0233154296875,0.15447998046875,-0.95654296875,0.1220703125,-0.36865234375,0.8515625,-35.3125,6.3125,2.5625
0.19000000000000009,0.0,4.0,7.0,17.0,2.0,-1.0,-2.0,0.0,0.251953125,-0.02508544921875,0.15484619140625,-0.9549560546875,0.10888671875,-0.38427734375,0.85888671875,-41.3125,10.0625,1.0625
0.1950000000000001,0.0,4.0,7.0,17.0,2.0,-1.0,-2.0,0.0,0.251953125,-0.02508544921875,0.15484619140625,-0.9549560546875,0.10888671875,-0.38427734375,0.85888671875,-41.3125,10.0625,1.0625
0.2000000000000001,-1.0,2.0,-20.0,-15.0,0.0,-3.0,0.0,-1.0,0.251953125,-0.02508544921875,0.15484619140625,-0.9549560546875,0.10888671875,-0.38427734375,0.85888671875,-41.3125,10.0625,1.0625
0.2050000000000001,-1.0,2.0,-20.0,-15.0,0.0,-3.0,0.0,-1.0,0.251953125,-0.02508544921875,0.15484619140625,-0.9549560546875,0.10888671875,-0.38427734375,0.85888671875,-41.3125,10.0625,1.0625
0.2100000000000001,-2.0,0.0,7.0,17.0,-4.0,-2.0,-1.0,0.0,0.251953125,-0.02508544921875,0.15484619140625,-0.9549560546875,0.10888671875,-0.38427734375,0.85888671875,-41.3125,10.0625,1.0625
0.2150000000000001,-2.0,0.0,7.0,17.0,-4.0,-2.0,-1.0,0.0,0.251953125,-0.02508544921875,0.15484619140625,-0.9549560546875,0.10888671875,-0.38427734375,0.85888671875,-41.3125,10.0625,1.0625
0.2200000000000001,-2.0,0.0,7.0,17.0,-4.0,-2.0,-1.0,0.0,0.25836181640625,-0.027099609375,0.1552734375,-0.953125,0.07275390625,-0.46337890625,0.85986328125,-41.4375,8.9375,-0.3125
0.22500000000000012,-2.0,0.0,7.0,17.0,-4.0,-2.0,-1.0,0.0,0.25836181640625,-0.027099609375,0.1552734375,-0.953125,0.07275390625,-0.46337890625,0.85986328125,-41.4375,8.9375,-0.3125
0.23000000000000012,-2.0,0.0,7.0,17.0,-4.0,-2.0,-1.0,0.0,0.25836181640625,-0.027099609375,0.1552734375,-0.953125,0.07275390625,-0.46337890625,0.85986328125,-41.4375,8.9375,-0.3125
0.23500000000000013,0.0,2.0,-1.0,4.0,-4.0,1.0,1.0,-2.0,0.25836181640625,-0.027099609375,0.1552734375,-0.953125,0.07275390625,-0.46337890625,0.85986328125,-41.4375,8.9375,-0.3125
0.24000000000000013,-2.0,-5.0,-13.0,-35.0,-7.0,-1.0,0.0,-1.0,0.25836181640625,-0.027099609375,0.1552734375,-0.953125,0.07275390625,-0.46337890625,0.85986328125,-41.4375,8.9375,-0.3125
0.24500000000000013,-2.0,-5.0,-13.0,-35.0,-7.0,-1.0,0.0,-1.0,0.25836181640625,-0.027099609375,0.1552734375,-0.953125,0.07275390625,-0.46337890625,0.85986328125,-41.4375,8.9375,-0.3125
0.2500000000000001,-2.0,-5.0,-13.0,-35.0,-7.0,-1.0,0.0,-1.0,0.263427734375,-0.02911376953125,0.15521240234375,-0.95166015625,0.037109375,-0.47802734375,0.86962890625,-34.0625,7.375,1.625
0.2550000000000001,-1.0,1.0,-2.0,2.0,0.0,0.0,0.0,1.0,0.263427734375,-0.02911376953125,0.15521240234375,-0.95166015625,0.037109375,-0.47802734375,0.86962890625,-34.0625,7.375,1.625
0.2600000000000001,-1.0,-5.0,7.0,-21.0,-3.0,-3.0,-2.0,0.0,0.263427734375,-0.02911376953125,0.15521240234375,-0.95166015625,0.037109375,-0.47802734375,0.86962890625,-34.0625,7.375,1.625
0.2650000000000001,-1.0,-5.0,7.0,-21.0,-3.0,-3.0,-2.0,0.0,0.2667236328125,-0.03045654296875,0.15484619140625,-0.9508056640625,0.04638671875,-0.4814453125,0.87890625,-23.5625,4.9375,3.4375
0.27000000000000013,-1.0,-5.0,7.0,-21.0,-3.0,-3.0,-2.0,0.0,0.2667236328125,-0.03045654296875,0.15484619140625,-0.9508056640625,0.04638671875,-0.4814453125,0.87890625,-23.5625,4.9375,3.4375
0.27500000000000013,1.0,-2.0,15.0,-4.0,0.0,1.0,-2.0,-1.0,0.2667236328125,-0.03045654296875,0.15484619140625,-0.9508056640625,0.04638671875,-0.4814453125,0.87890625,-23.5625,4.9375,3.4375
0.28000000000000014,-1.0,3.0,3.0,23.0,5.0,2.0,0.0,-1.0,0.2667236328125,-0.03045654296875,0.15484619140625,-0.9508056640625,0.04638671875,-0.4814453125,0.87890625,-23.5625,4.9375,3.4375
0.28500000000000014,-1.0,3.0,3.0,23.0,5.0,2.0,0.0,-1.0,0.2667236328125,-0.03045654296875,0.15484619140625,-0.9508056640625,0.04638671875,-0.4814453125,0.87890625,-23.5625,4.9375,3.4375
0.29000000000000015,-1.0,3.0,3.0,23.0,5.0,2.0,0.0,-1.0,0.269287109375,-0.03155517578125,0.1546630859375,-0.9500732421875,0.06884765625,-0.47314453125,0.87646484375,-20.0,6.25,3.3125
0.29500000000000015,-1.0,3.0,3.0,23.0,5.0,2.0,0.0,-1.0,0.269287109375,-0.03155517578125,0.1546630859375,-0.9500732421875,0.06884765625,-0.47314453125,0.87646484375,-20.0,6.25,3.3125
0.30000000000000016,1.0,-2.0,-4.0,3.0,0.0,2.0,0.0,1.0,0.269287109375,-0.03155517578125,0.1546630859375,-0.9500732421875,0.06884765625,-0.47314453125,0.87646484375,-20.0,6.25,3.3125
0.30500000000000016,1.0,-2.0,-4.0,3.0,0.0,2.0,0.0,1.0,0.269287109375,-0.03155517578125,0.1546630859375,-0.9500732421875,0.06884765625,-0.47314453125,0.87646484375,-20.0,6.25,3.3125
0.31000000000000016,1.0,-2.0,-4.0,3.0,0.0,2.0,0.0,1.0,0.269287109375,-0.03155517578125,0.1546630859375,-0.9500732421875,0.06884765625,-0.47314453125,0.87646484375,-20.0,6.25,3.3125
0.31500000000000017,0.0,0.0,-5.0,0.0,-2.0,-1.0,-1.0,-2.0,0.271240234375,-0.0325927734375,0.15484619140625,-0.949462890625,0.0693359375,-0.48486328125,0.88330078125,-16.125,7.25,1.625
0.3200000000000002,0.0,0.0,-5.0,0.0,-2.0,-1.0,-1.0,-2.0,0.271240234375,-0.0325927734375,0.15484619140625,-0.949462890625,0.0693359375,-0.48486328125,0.88330078125,-16.125,7.25,1.625
0.3250000000000002,0.0,0.0,-5.0,0.0,-2.0,-1.0,-1.0,-2.0,0.271240234375,-0.0325927734375,0.15484619140625,-0.949462890625,0.0693359375,-0.48486328125,0.88330078125,-16.125,7.25,1.625
0.3300000000000002,-1.0,-1.0,3.0,5.0,6.0,3.0,-1.0,1.0,0.271240234375,-0.0325927734375,0.15484619140625,-0.949462890625,0.0693359375,-0.48486328125,0.88330078125,-16.125,7.25,1.625
0.3350000000000002,-1.0,-1.0,3.0,5.0,6.0,3.0,-1.0,1.0,0.273193359375,-0.03369140625,0.15496826171875,-0.94879150390625,0.056640625,-0.49560546875,0.87890625,-15.8125,6.6875,1.3125
0.3400000000000002,-1.0,-1.0,3.0,5.0,6.0,3.0,-1.0,1.0,0.273193359375,-0.03369140625,0.15496826171875,-0.94879150390625,0.056640625,-0.49560546875,0.87890625,-15.8125,6.6875,1.3125
0.3450000000000002,-2.0,0.0,-9.0,-14.0,-5.0,-2.0,-2.0,0.0,0.273193359375,-0.03369140625,0.15496826171875,-0.94879150390625,0.056640625,-0.49560546875,0.87890625,-15.8125,6.6875,1.3125
0.3500000000000002,-2.0,0.0,-9.0,-14.0,-5.0,-2.0,-2.0,0.0,0.273193359375,-0.03369140625,0.15496826171875,-0.94879150390625,0.056640625,-0.49560546875,0.87890625,-15.8125,6.6875,1.3125
0.3550000000000002,-4.0,1.0,-1.0,-7.0,-7.0,-4.0,-3.0,-3.0,0.273193359375,-0.03369140625,0.15496826171875,-0.94879150390625,0.056640625,-0.49560546875,0.87890625,-15.8125,6.6875,1.3125
0.3600000000000002,-4.0,1.0,-1.0,-7.0,-7.0,-4.0,-3.0,-3.0,0.273193359375,-0.03369140625,0.15496826171875,-0.94879150390625,0.056640625,-0.49560546875,0.87890625,-15.8125,6.6875,1.3125
0.3650000000000002,-4.0,1.0,-1.0,-7.0,-7.0,-4.0,-3.0,-3.0,0.275146484375,-0.03472900390625,0.155029296875,-0.94818115234375,0.04931640625,-0.48876953125,0.87158203125,-16.1875,5.625,1.625
0.3700000000000002,-1.0,2.0,12.0,13.0,-4.0,-3.0,-3.0,2.0,0.275146484375,-0.03472900390625,0.155029296875,-0.94818115234375,0.04931640625,-0.48876953125,0.87158203125,-16.1875,5.625,1.625
0.3750000000000002,-1.0,-2.0,-8.0,6.0,-2.0,-3.0,-1.0,-1.0,0.275146484375,-0.03472900390625,0.155029296875,-0.94818115234375,0.04931640625,-0.48876953125,0.87158203125,-16.1875,5.625,1.625
0.3800000000000002,-1.0,-2.0,-8.0,6.0,-2.0,-3.0,-1.0,-1.0,0.27728271484375,-0.035888671875,0.15509033203125,-0.947509765625,0.04833984375,-0.484375,0.8515625,-17.0,6.625,1.75
0.38500000000000023,-1.0,-2.0,-8.0,6.0,-2.0,-3.0,-1.0,-1.0,0.27728271484375,-0.035888671875,0.15509033203125,-0.947509765625,0.04833984375,-0.484375,0.8515625,-17.0,6.625,1.75
0.39000000000000024,-1.0,-2.0,-8.0,6.0,-2.0,-3.0,-1.0,-1.0,0.27728271484375,-0.035888671875,0.15509033203125,-0.947509765625,0.04833984375,-0.484375,0.8515625,-17.0,6.625,1.75
0.39500000000000024,0.0,0.0,5.0,4.0,1.0,-1.0,-1.0,-1.0,0.27728271484375,-0.035888671875,0.15509033203125,-0.947509765625,0.04833984375,-0.484375,0.8515625,-17.0,6.625,1.75
0.40000000000000024,0.0,0.0,5.0,4.0,1.0,-1.0,-1.0,-1.0,0.27728271484375,-0.035888671875,0.15509033203125,-0.947509765625,0.04833984375,-0.484375,0.8515625,-17.0,6.625,1.75
0.40500000000000025,0.0,0.0,5.0,4.0,1.0,-1.0,-1.0,-1.0,0.27984619140625,-0.037353515625,0.15533447265625,-0.9466552734375,0.04638671875,-0.498046875,0.86767578125,-20.1875,7.6875,0.75
0.41000000000000025,-2.0,-5.0,8.0,1.0,6.0,1.0,1.0,-3.0,0.27984619140625,-0.037353515625,0.15533447265625,-0.9466552734375,0.04638671875,-0.498046875,0.86767578125,-20.1875,7.6875,0.75
0.41500000000000026,-2.0,-5.0,8.0,1.0,6.0,1.0,1.0,-3.0,0.27984619140625,-0.037353515625,0.15533447265625,-0.9466552734375,0.04638671875,-0.498046875,0.86767578125,-20.1875,7.6875,0.75
0.42000000000000026,-3.0,-3.0,-5.0,2.0,-7.0,-3.0,1.0,0.0,0.27984619140625,-0.037353515625,0.15533447265625,-0.9466552734375,0.04638671875,-0.498046875,0.86767578125,-20.1875,7.6875,0.75
0.42500000000000027,-3.0,-3.0,-5.0,2.0,-7.0,-3.0,1.0,0.0,0.27984619140625,-0.037353515625,0.15533447265625,-0.9466552734375,0.04638671875,-0.498046875,0.86767578125,-20.1875,7.6875,0.75
0.43000000000000027,-3.0,-3.0,-5.0,2.0,-7.0,-3.0,1.0,0.0,0.28216552734375,-0.038818359375,0.15557861328125,-0.94586181640625,0.02099609375,-0.53857421875,0.89208984375,-17.9375,6.75,0.0
0.4350000000000003,-1.0,0.0,0.0,0.0,1.0,0.0,0.0,-1.0,0.28216552734375,-0.038818359375,0.15557861328125,-0.94586181640625,0.02099609375,-0.53857421875,0.89208984375,-17.9375,6.75,0.0
0.4400000000000003,-1.0,0.0,0.0,0.0,1.0,0.0,0.0,-1.0,0.28216552734375,-0.038818359375,0.15557861328125,-0.94586181640625,0.02099609375,-0.53857421875,0.89208984375,-17.9375,6.75,0.0
0.4450000000000003,0.0,0.0,-6.0,-3.0,0.0,-2.0,-2.0,0.0,0.28216552734375,-0.038818359375,0.15557861328125,-0.94586181640625,0.02099609375,-0.53857421875,0.89208984375,-17.9375,6.75,0.0
0.4500000000000003,0.0,0.0,-6.0,-3.0,0.0,-2.0,-2.0,0.0,0.28216552734375,-0.038818359375,0.15557861328125,-0.94586181640625,0.02099609375,-0.53857421875,0.89208984375,-17.9375,6.75,0.0
0.4550000000000003,0.0,0.0,-6.0,-3.0,0.0,-2.0,-2.0,0.0,0.28216552734375,-0.038818359375,0.15557861328125,-0.94586181640625,0.02099609375,-0.53857421875,0.89208984375,-17.9375,6.75,0.0
0.4600000000000003,0.0,0.0,-6.0,-3.0,0.0,-2.0,-2.0,0.0,0.28399658203125,-0.0399169921875,0.1556396484375,-0.9453125,0.0078125,-0.54443359375,0.884765625,-14.0,4.375,0.375
0.4650000000000003,-3.0,-2.0,2.0,4.0,-4.0,-1.0,-2.0,-2.0,0.28399658203125,-0.0399169921875,0.1556396484375,-0.9453125,0.0078125,-0.54443359375,0.884765625,-14.0,4.375,0.375
0.4700000000000003,-3.0,-2.0,2.0,4.0,-4.0,-1.0,-2.0,-2.0,0.28399658203125,-0.0399169921875,0.1556396484375,-0.9453125,0.0078125,-0.54443359375,0.884765625,-14.0,4.375,0.375
0.4750000000000003,-3.0,-2.0,2.0,4.0,-4.0,-1.0,-2.0,-2.0,0.2850341796875,-0.0404052734375,0.15570068359375,-0.9449462890625,0.03173828125,-0.54541015625,0.873046875,-8.4375,3.0,0.5
0.4800000000000003,-2.0,-6.0,-16.0,-21.0,-4.0,-2.0,-1.0,0.0,0.2850341796875,-0.0404052734375,0.15570068359375,-0.9449462890625,0.03173828125,-0.54541015625,0.873046875,-8.4375,3.0,0.5
0.4850000000000003,2.0,1.0,1.0,0.0,1.0,2.0,2.0,-1.0,0.2850341796875,-0.0404052734375,0.15570068359375,-0.9449462890625,0.03173828125,-0.54541015625,0.873046875,-8.4375,3.0,0.5
0.4900000000000003,2.0,1.0,1.0,0.0,1.0,2.0,2.0,-1.0,0.2850341796875,-0.0404052734375,0.15570068359375,-0.9449462890625,0.03173828125,-0.54541015625,0.873046875,-8.4375,3.0,0.5
0.49500000000000033,2.0,1.0,1.0,0.0,1.0,2.0,2.0,-1.0,0.2850341796875,-0.0404052734375,0.15570068359375,-0.9449462890625,0.03173828125,-0.54541015625,0.873046875,-8.4375,3.0,0.5
0.5000000000000003,2.0,1.0,1.0,0.0,1.0,2.0,2.0,-1.0,0.28558349609375,-0.0411376953125,0.15606689453125,-0.9447021484375,0.01708984375,-0.53515625,0.8642578125,-6.3125,4.25,-0.6875
0.5050000000000003,2.0,1.0,1.0,0.0,1.0,2.0,2.0,-1.0,0.28558349609375,-0.0411376953125,0.15606689453125,-0.9447021484375,0.01708984375,-0.53515625,0.8642578125,-6.3125,4.25,-0.6875
0.5100000000000003,2.0,6.0,-6.0,-20.0,-9.0,-5.0,-1.0,0.0,0.28558349609375,-0.0411376953125,0.15606689453125,-0.9447021484375,0.01708984375,-0.53515625,0.8642578125,-6.3125,4.25,-0.6875
0.5150000000000003,-1.0,-1.0,3.0,1.0,3.0,-1.0,-3.0,-2.0,0.28558349609375,-0.0411376953125,0.15606689453125,-0.9447021484375,0.01708984375,-0.53515625,0.8642578125,-6.3125,4.25,-0.6875
0.5200000000000004,-1.0,-1.0,3.0,1.0,3.0,-1.0,-3.0,-2.0,0.28558349609375,-0.0411376953125,0.15606689453125,-0.9447021484375,0.01708984375,-0.53515625,0.8642578125,-6.3125,4.25,-0.6875
0.5250000000000004,-1.0,-2.0,-4.0,8.0,0.0,-2.0,0.0,-2.0,0.28631591796875,-0.0419921875,0.1563720703125,-0.94439697265625,0.001953125,-0.5341796875,0.8486328125,-7.0,3.9375,-1.3125
0.5300000000000004,-1.0,-2.0,-15.0,-9.0,1.0,1.0,-3.0,-1.0,0.28741455078125,-0.04290771484375,0.15667724609375,-0.9439697265625,-0.005859375,-0.55859375,0.8447265625,-7.875,3.6875,-1.5
0.5350000000000004,-1.0,-2.0,-15.0,-9.0,1.0,1.0,-3.0,-1.0,0.28741455078125,-0.04290771484375,0.15667724609375,-0.9439697265625,-0.005859375,-0.55859375,0.8447265625,-7.875,3.6875,-1.5
0.5400000000000004,-4.0,-2.0,11.0,8.0,4.0,-1.0,-1.0,-2.0,0.28741455078125,-0.04290771484375,0.15667724609375,-0.9439697265625,-0.005859375,-0.55859375,0.8447265625,-7.875,3.6875,-1.5
0.5450000000000004,-4.0,-2.0,11.0,8.0,4.0,-1.0,-1.0,-2.0,0.28741455078125,-0.04290771484375,0.15667724609375,-0.9439697265625,-0.005859375,-0.55859375,0.8447265625,-7.875,3.6875,-1.5
0.5500000000000004,0.0,-2.0,-8.0,-4.0,-3.0,1.0,-1.0,-3.0,0.28741455078125,-0.04290771484375,0.15667724609375,-0.9439697265625,-0.005859375,-0.55859375,0.8447265625,-7.875,3.6875,-1.5
0.5550000000000004,0.0,-2.0,-8.0,-4.0,-3.0,1.0,-1.0,-3.0,0.28741455078125,-0.04290771484375,0.15667724609375,-0.9439697265625,-0.005859375,-0.55859375,0.8447265625,-7.875,3.6875,-1.5
0.5600000000000004,0.0,-2.0,-8.0,-4.0,-3.0,1.0,-1.0,-3.0,0.28790283203125,-0.0435791015625,0.15704345703125,-0.9437255859375,-0.00390625,-0.564453125,0.85595703125,-4.375,3.1875,-1.625
0.5650000000000004,0.0,-2.0,-8.0,-4.0,-3.0,1.0,-1.0,-3.0,0.28790283203125,-0.0435791015625,0.15704345703125,-0.9437255859375,-0.00390625,-0.564453125,0.85595703125,-4.375,3.1875,-1.625
0.5700000000000004,0.0,1.0,24.0,20.0,1.0,-3.0,-1.0,0.0,0.28790283203125,-0.0435791015625,0.15704345703125,-0.9437255859375,-0.00390625,-0.564453125,0.85595703125,-4.375,3.1875,-1.625
0.5750000000000004,0.0,1.0,3.0,-5.0,-1.0,-2.0,0.0,0.0,0.28790283203125,-0.0435791015625,0.15704345703125,-0.9437255859375,-0.00390625,-0.564453125,0.85595703125,-4.375,3.1875,-1.625
0.5800000000000004,0.0,1.0,3.0,-5.0,-1.0,-2.0,0.0,0.0,0.28790283203125,-0.0435791015625,0.15704345703125,-0.9437255859375,-0.00390625,-0.564453125,0.85595703125,-4.375,3.1875,-1.625
0.5850000000000004,0.0,1.0,3.0,-5.0,-1.0,-2.0,0.0,0.0,0.28851318359375,-0.0440673828125,0.157470703125,-0.94342041015625,0.0029296875,-0.5537109375,0.84521484375,-5.0,2.625,-1.9375
0.5900000000000004,0.0,1.0,3.0,-5.0,-1.0,-2.0,0.0,0.0,0.28851318359375,-0.0440673828125,0.157470703125,-0.94342041015625,0.0029296875,-0.5537109375,0.84521484375,-5.0,2.625,-1.9375
0.5950000000000004,-1.0,-1.0,4.0,5.0,-1.0,-1.0,-1.0,-1.0,0.28851318359375,-0.0440673828125,0.157470703125,-0.94342041015625,0.0029296875,-0.5537109375,0.84521484375,-5.0,2.625,-1.9375
0.6000000000000004,-1.0,-1.0,4.0,5.0,-1.0,-1.0,-1.0,-1.0,0.28851318359375,-0.0440673828125,0.157470703125,-0.94342041015625,0.0029296875,-0.5537109375,0.84521484375,-5.0,2.625,-1.9375
0.6050000000000004,-1.0,-1.0,4.0,5.0,-1.0,-1.0,-1.0,-1.0,0.28851318359375,-0.0440673828125,0.157470703125,-0.94342041015625,0.0029296875,-0.5537109375,0.84521484375,-5.0,2.625,-1.9375
0.6100000000000004,-3.0,-1.0,6.0,-1.0,-1.0,1.0,-2.0,0.0,0.28936767578125,-0.0450439453125,0.15802001953125,-0.94305419921875,-0.00927734375,-0.5625,0.837890625,-6.125,4.5625,-2.5
0.6150000000000004,-3.0,-1.0,6.0,-1.0,-1.0,1.0,-2.0,0.0,0.28936767578125,-0.0450439453125,0.15802001953125,-0.94305419921875,-0.00927734375,-0.5625,0.837890625,-6.125,4.5625,-2.5
0.6200000000000004,-3.0,-1.0,6.0,-1.0,-1.0,1.0,-2.0,0.0,0.28936767578125,-0.0450439453125,0.15802001953125,-0.94305419921875,-0.00927734375,-0.5625,0.837890625,-6.125,4.5625,-2.5
0.6250000000000004,-3.0,-1.0,6.0,-1.0,-1.0,1.0,-2.0,0.0,0.28936767578125,-0.0450439453125,0.15802001953125,-0.94305419921875,-0.00927734375,-0.5625,0.837890625,-6.125,4.5625,-2.5
0.6300000000000004,-3.0,-3.0,-12.0,-14.0,-6.0,-2.0,-4.0,-1.0,0.28936767578125,-0.0450439453125,0.15802001953125,-0.94305419921875,-0.00927734375,-0.5625,0.837890625,-6.125,4.5625,-2.5
0.6350000000000005,-3.0,-3.0,-12.0,-14.0,-6.0,-2.0,-4.0,-1.0,0.28997802734375,-0.046142578125,0.1585693359375,-0.94268798828125,-0.0146484375,-0.5751953125,0.83642578125,-4.3125,4.9375,-2.4375
0.6400000000000005,-3.0,-3.0,-12.0,-14.0,-6.0,-2.0,-4.0,-1.0,0.28997802734375,-0.046142578125,0.1585693359375,-0.94268798828125,-0.0146484375,-0.5751953125,0.83642578125,-4.3125,4.9375,-2.4375
0.6450000000000005,0.0,-4.0,-2.0,-6.0,-1.0,0.0,0.0,-3.0,0.28997802734375,-0.046142578125,0.1585693359375,-0.94268798828125,-0.0146484375,-0.5751953125,0.83642578125,-4.3125,4.9375,-2.4375
0.6500000000000005,0.0,-4.0,-2.0,-6.0,-1.0,0.0,0.0,-3.0,0.28997802734375,-0.046142578125,0.1585693359375,-0.94268798828125,-0.0146484375,-0.5751953125,0.83642578125,-4.3125,4.9375,-2.4375
0.6550000000000005,2.0,-3.0,-8.0,-6.0,-2.0,1.0,2.0,-1.0,0.28997802734375,-0.046142578125,0.1585693359375,-0.94268798828125,-0.0146484375,-0.5751953125,0.83642578125,-4.3125,4.9375,-2.4375
0.6600000000000005,2.0,-3.0,-8.0,-6.0,-2.0,1.0,2.0,-1.0,0.28997802734375,-0.046142578125,0.1585693359375,-0.94268798828125,-0.0146484375,-0.5751953125,0.83642578125,-4.3125,4.9375,-2.4375
0.6650000000000005,2.0,-3.0,-8.0,-6.0,-2.0,1.0,2.0,-1.0,0.28997802734375,-0.046142578125,0.1585693359375,-0.94268798828125,-0.0146484375,-0.5751953125,0.83642578125,-4.3125,4.9375,-2.4375
0.6700000000000005,2.0,-3.0,-8.0,-6.0,-2.0,1.0,2.0,-1.0,0.29034423828125,-0.04718017578125,0.1590576171875,-0.94244384765625,-0.02099609375,-0.58984375,0.849609375,-2.6875,4.6875,-2.3125
0.6750000000000005,-3.0,-1.0,5.0,2.0,-4.0,-2.0,-2.0,1.0,0.29034423828125,-0.04718017578125,0.1590576171875,-0.94244384765625,-0.02099609375,-0.58984375,0.849609375,-2.6875,4.6875,-2.3125
0.6800000000000005,-3.0,-1.0,5.0,2.0,-4.0,-2.0,-2.0,1.0,0.29034423828125,-0.04718017578125,0.1590576171875,-0.94244384765625,-0.02099609375,-0.58984375,0.849609375,-2.6875,4.6875,-2.3125
0.6850000000000005,0.0,3.0,16.0,12.0,1.0,-2.0,1.0,-2.0,0.29034423828125,-0.04718017578125,0.1590576171875,-0.94244384765625,-0.02099609375,-0.58984375,0.849609375,-2.6875,4.6875,-2.3125
0.6900000000000005,0.0,3.0,16.0,12.0,1.0,-2.0,1.0,-2.0,0.29052734375,-0.04803466796875,0.15960693359375,-0.9422607421875,-0.0126953125,-0.58349609375,0.83837890625,-1.25,4.5,-2.3125
0.6950000000000005,-3.0,-6.0,-23.0,-19.0,-1.0,-1.0,0.0,-2.0,0.29052734375,-0.04803466796875,0.15960693359375,-0.9422607421875,-0.0126953125,-0.58349609375,0.83837890625,-1.25,4.5,-2.3125
0.7000000000000005,-3.0,-6.0,-23.0,-19.0,-1.0,-1.0,0.0,-2.0,0.29052734375,-0.04803466796875,0.15960693359375,-0.9422607421875,-0.0126953125,-0.58349609375,0.83837890625,-1.25,4.5,-2.3125
0.7050000000000005,0.0,-2.0,7.0,6.0,0.0,-2.0,-2.0,-1.0,0.29052734375,-0.04803466796875,0.15960693359375,-0.9422607421875,-0.0126953125,-0.58349609375,0.83837890625,-1.25,4.5,-2.3125
0.7100000000000005,0.0,-2.0,7.0,6.0,0.0,-2.0,-2.0,-1.0,0.29052734375,-0.04803466796875,0.15960693359375,-0.9422607421875,-0.0126953125,-0.58349609375,0.83837890625,-1.25,4.5,-2.3125
0.7150000000000005,0.0,-2.0,7.0,6.0,0.0,-2.0,-2.0,-1.0,0.290771484375,-0.04876708984375,0.1600341796875,-0.94207763671875,-0.00341796875,-0.580078125,0.82421875,-1.125,4.25,-1.5625
0.7200000000000005,0.0,-2.0,7.0,6.0,0.0,-2.0,-2.0,-1.0,0.290771484375,-0.04876708984375,0.1600341796875,-0.94207763671875,-0.00341796875,-0.580078125,0.82421875,-1.125,4.25,-1.5625
0.7250000000000005,-1.0,-2.0,2.0,8.0,-1.0,0.0,-1.0,0.0,0.290771484375,-0.04876708984375,0.1600341796875,-0.94207763671875,-0.00341796875,-0.580078125,0.82421875,-1.125,4.25,-1.5625
0.7300000000000005,-1.0,-2.0,2.0,8.0,-1.0,0.0,-1.0,0.0,0.290771484375,-0.04876708984375,0.1600341796875,-0.94207763671875,-0.00341796875,-0.580078125,0.82421875,-1.125,4.25,-1.5625
0.7350000000000005,-2.0,-1.0,6.0,0.0,-2.0,-3.0,-1.0,0.0,0.290771484375,-0.04876708984375,0.1600341796875,-0.94207763671875,-0.00341796875,-0.580078125,0.82421875,-1.125,4.25,-1.5625
0.7400000000000005,-2.0,-1.0,6.0,0.0,-2.0,-3.0,-1.0,0.0,0.290771484375,-0.04876708984375,0.1600341796875,-0.94207763671875,-0.00341796875,-0.580078125,0.82421875,-1.125,4.25,-1.5625
0.7450000000000006,-2.0,-1.0,6.0,0.0,-2.0,-3.0,-1.0,0.0,0.290771484375,-0.04876708984375,0.1600341796875,-0.94207763671875,-0.00341796875,-0.580078125,0.82421875,-1.125,4.25,-1.5625
0.7500000000000006,-2.0,-1.0,6.0,0.0,-2.0,-3.0,-1.0,0.0,0.29132080078125,-0.04986572265625,0.16046142578125,-0.9417724609375,-0.01416015625,-0.57958984375,0.826171875,-3.6875,5.3125,-1.625
0.7550000000000006,-2.0,-1.0,6.0,0.0,-2.0,-3.0,-1.0,0.0,0.29132080078125,-0.04986572265625,0.16046142578125,-0.9417724609375,-0.01416015625,-0.57958984375,0.826171875,-3.6875,5.3125,-1.625
0.7600000000000006,-1.0,-2.0,-11.0,3.0,0.0,-1.0,-1.0,0.0,0.29132080078125,-0.04986572265625,0.16046142578125,-0.9417724609375,-0.01416015625,-0.57958984375,0.826171875,-3.6875,5.3125,-1.625
0.7650000000000006,-1.0,-2.0,-11.0,3.0,0.0,-1.0,-1.0,0.0,0.29132080078125,-0.04986572265625,0.16046142578125,-0.9417724609375,-0.01416015625,-0.57958984375,0.826171875,-3.6875,5.3125,-1.625
0.7700000000000006,-3.0,-6.0,-31.0,-15.0,-4.0,-4.0,-4.0,-2.0,0.2923583984375,-0.0511474609375,0.16094970703125,-0.9412841796875,-0.01904296875,-0.6083984375,0.826171875,-5.3125,6.125,-1.875
0.7750000000000006,-3.0,-6.0,-31.0,-15.0,-4.0,-4.0,-4.0,-2.0,0.2923583984375,-0.0511474609375,0.16094970703125,-0.9412841796875,-0.01904296875,-0.6083984375,0.826171875,-5.3125,6.125,-1.875
0.7800000000000006,-3.0,-6.0,-31.0,-15.0,-4.0,-4.0,-4.0,-2.0,0.2923583984375,-0.0511474609375,0.16094970703125,-0.9412841796875,-0.01904296875,-0.6083984375,0.826171875,-5.3125,6.125,-1.875
0.7850000000000006,-3.0,-6.0,-31.0,-15.0,-4.0,-4.0,-4.0,-2.0,0.2923583984375,-0.0511474609375,0.16094970703125,-0.9412841796875,-0.01904296875,-0.6083984375,0.826171875,-5.3125,6.125,-1.875
0.7900000000000006,-4.0,-1.0,5.0,7.0,2.0,0.0,-2.0,-2.0,0.2923583984375,-0.0511474609375,0.16094970703125,-0.9412841796875,-0.01904296875,-0.6083984375,0.826171875,-5.3125,6.125,-1.875
0.7950000000000006,-4.0,-1.0,5.0,7.0,2.0,0.0,-2.0,-2.0,0.2923583984375,-0.0511474609375,0.16094970703125,-0.9412841796875,-0.01904296875,-0.6083984375,0.826171875,-5.3125,6.125,-1.875
0.8000000000000006,-4.0,-1.0,5.0,7.0,2.0,0.0,-2.0,-2.0,0.29315185546875,-0.052490234375,0.16143798828125,-0.94091796875,-0.0322265625,-0.60009765625,0.83837890625,-4.8125,5.8125,-1.9375
0.8050000000000006,-4.0,-1.0,5.0,7.0,2.0,0.0,-2.0,-2.0,0.29315185546875,-0.052490234375,0.16143798828125,-0.94091796875,-0.0322265625,-0.60009765625,0.83837890625,-4.8125,5.8125,-1.9375
0.8100000000000006,0.0,-3.0,-9.0,2.0,0.0,-1.0,0.0,-2.0,0.29315185546875,-0.052490234375,0.16143798828125,-0.94091796875,-0.0322265625,-0.60009765625,0.83837890625,-4.8125,5.8125,-1.9375
0.8150000000000006,0.0,-3.0,-9.0,2.0,0.0,-1.0,0.0,-2.0,0.29315185546875,-0.052490234375,0.16143798828125,-0.94091796875,-0.0322265625,-0.60009765625,0.83837890625,-4.8125,5.8125,-1.9375
0.8200000000000006,1.0,3.0,2.0,-1.0,-1.0,-1.0,-1.0,0.0,0.29315185546875,-0.052490234375,0.16143798828125,-0.94091796875,-0.0322265625,-0.60009765625,0.83837890625,-4.8125,5.8125,-1.9375
0.8250000000000006,1.0,3.0,2.0,-1.0,-1.0,-1.0,-1.0,0.0,0.29315185546875,-0.052490234375,0.16143798828125,-0.94091796875,-0.0322265625,-0.60009765625,0.83837890625,-4.8125,5.8125,-1.9375
0.8300000000000006,1.0,3.0,2.0,-1.0,-1.0,-1.0,-1.0,0.0,0.29400634765625,-0.0537109375,0.16168212890625,-0.94049072265625,-0.037109375,-0.6025390625,0.82470703125,-4.875,4.4375,-1.3125
0.8350000000000006,1.0,3.0,2.0,-1.0,-1.0,-1.0,-1.0,0.0,0.29400634765625,-0.0537109375,0.16168212890625,-0.94049072265625,-0.037109375,-0.6025390625,0.82470703125,-4.875,4.4375,-1.3125
0.8400000000000006,-1.0,-4.0,10.0,1.0,-4.0,-1.0,0.0,-1.0,0.29400634765625,-0.0537109375,0.16168212890625,-0.94049072265625,-0.037109375,-0.6025390625,0.82470703125,-4.875,4.4375,-1.3125
0.8450000000000006,0.0,0.0,-8.0,4.0,-2.0,0.0,1.0,0.0,0.29400634765625,-0.0537109375,0.16168212890625,-0.94049072265625,-0.037109375,-0.6025390625,0.82470703125,-4.875,4.4375,-1.3125
0.8500000000000006,0.0,2.0,9.0,8.0,0.0,2.0,0.0,0.0,0.29473876953125,-0.0550537109375,0.16192626953125,-0.940185546875,-0.03857421875,-0.6064453125,0.81787109375,-3.375,5.1875,-0.875
0.8550000000000006,0.0,2.0,9.0,8.0,0.0,2.0,0.0,0.0,0.29473876953125,-0.0550537109375,0.16192626953125,-0.940185546875,-0.03857421875,-0.6064453125,0.81787109375,-3.375,5.1875,-0.875
0.8600000000000007,0.0,2.0,9.0,8.0,0.0,2.0,0.0,0.0,0.29473876953125,-0.0550537109375,0.16192626953125,-0.940185546875,-0.03857421875,-0.6064453125,0.81787109375,-3.375,5.1875,-0.875
0.8650000000000007,0.0,2.0,9.0,8.0,0.0,2.0,0.0,0.0,0.29473876953125,-0.0550537109375,0.16192626953125,-0.940185546875,-0.03857421875,-0.6064453125,0.81787109375,-3.375,5.1875,-0.875
0.8700000000000007,-2.0,-3.0,-1.0,5.0,1.0,-1.0,-2.0,-1.0,0.29473876953125,-0.0550537109375,0.16192626953125,-0.940185546875,-0.03857421875,-0.6064453125,0.81787109375,-3.375,5.1875,-0.875
0.8750000000000007,-2.0,-3.0,-1.0,5.0,1.0,-1.0,-2.0,-1.0,0.29510498046875,-0.05633544921875,0.16217041015625,-0.93994140625,-0.037109375,-0.59765625,0.81201171875,-2.0,5.3125,-0.4375
0.8800000000000007,1.0,1.0,7.0,-1.0,-2.0,-2.0,-1.0,-1.0,0.29510498046875,-0.05633544921875,0.16217041015625,-0.93994140625,-0.037109375,-0.59765625,0.81201171875,-2.0,5.3125,-0.4375
0.8850000000000007,1.0,1.0,7.0,-1.0,-2.0,-2.0,-1.0,-1.0,0.29510498046875,-0.05633544921875,0.16217041015625,-0.93994140625,-0.037109375,-0.59765625,0.81201171875,-2.0,5.3125,-0.4375
0.8900000000000007,-1.0,-4.0,-2.0,-7.0,-5.0,-2.0,-1.0,-1.0,0.29510498046875,-0.05633544921875,0.16217041015625,-0.93994140625,-0.037109375,-0.59765625,0.81201171875,-2.0,5.3125,-0.4375
0.8950000000000007,-1.0,-4.0,-2.0,-7.0,-5.0,-2.0,-1.0,-1.0,0.29510498046875,-0.0576171875,0.162353515625,-0.9398193359375,-0.04541015625,-0.583984375,0.8203125,-1.0,5.5,-0.1875
0.9000000000000007,-1.0,1.0,-2.0,3.0,4.0,2.0,1.0,-1.0,0.29510498046875,-0.0576171875,0.162353515625,-0.9398193359375,-0.04541015625,-0.583984375,0.8203125,-1.0,5.5,-0.1875
0.9050000000000007,-1.0,1.0,-2.0,3.0,4.0,2.0,1.0,-1.0,0.29510498046875,-0.0576171875,0.162353515625,-0.9398193359375,-0.04541015625,-0.583984375,0.8203125,-1.0,5.5,-0.1875
0.9100000000000007,0.0,2.0,1.0,1.0,-5.0,-1.0,-2.0,-3.0,0.29510498046875,-0.0576171875,0.162353515625,-0.9398193359375,-0.04541015625,-0.583984375,0.8203125,-1.0,5.5,-0.1875
0.9150000000000007,0.0,2.0,1.0,1.0,-5.0,-1.0,-2.0,-3.0,0.29522705078125,-0.05902099609375,0.16241455078125,-0.939697265625,-0.0556640625,-0.5859375,0.81787109375,-1.375,5.3125,0.125
0.9200000000000007,0.0,2.0,1.0,1.0,-5.0,-1.0,-2.0,-3.0,0.29522705078125,-0.05902099609375,0.16241455078125,-0.939697265625,-0.0556640625,-0.5859375,0.81787109375,-1.375,5.3125,0.125
0.9250000000000007,0.0,-2.0,-7.0,-4.0,0.0,0.0,-2.0,-1.0,0.29522705078125,-0.05902099609375,0.16241455078125,-0.939697265625,-0.0556640625,-0.5859375,0.81787109375,-1.375,5.3125,0.125
0.9300000000000007,0.0,-2.0,-7.0,-4.0,0.0,0.0,-2.0,-1.0,0.29547119140625,-0.06036376953125,0.16259765625,-0.93951416015625,-0.0458984375,-0.58984375,0.814453125,-1.9375,5.4375,-0.25
0.9350000000000007,0.0,-2.0,-7.0,-4.0,0.0,0.0,-2.0,-1.0,0.29547119140625,-0.06036376953125,0.16259765625,-0.93951416015625,-0.0458984375,-0.58984375,0.814453125,-1.9375,5.4375,-0.25
0.9400000000000007,1.0,6.0,22.0,13.0,4.0,2.0,0.0,0.0,0.29547119140625,-0.06036376953125,0.16259765625,-0.93951416015625,-0.0458984375,-0.58984375,0.814453125,-1.9375,5.4375,-0.25
0.9450000000000007,-1.0,-4.0,9.0,-4.0,1.0,-2.0,0.0,1.0,0.29547119140625,-0.06036376953125,0.16259765625,-0.93951416015625,-0.0458984375,-0.58984375,0.814453125,-1.9375,5.4375,-0.25
0.9500000000000007,-1.0,-4.0,9.0,-4.0,1.0,-2.0,0.0,1.0,0.29547119140625,-0.06036376953125,0.16259765625,-0.93951416015625,-0.0458984375,-0.58984375,0.814453125,-1.9375,5.4375,-0.25
0.9550000000000007,-1.0,-4.0,9.0,-4.0,1.0,-2.0,0.0,1.0,0.2958984375,-0.06146240234375,0.1627197265625,-0.93927001953125,-0.046875,-0.5966796875,0.80126953125,-1.9375,4.125,-0.4375
0.9600000000000007,-1.0,-2.0,1.0,-6.0,-3.0,-3.0,0.0,-2.0,0.2958984375,-0.06146240234375,0.1627197265625,-0.93927001953125,-0.046875,-0.5966796875,0.80126953125,-1.9375,4.125,-0.4375
0.9650000000000007,-2.0,-4.0,-7.0,-4.0,-1.0,-2.0,-1.0,-2.0,0.2958984375,-0.06146240234375,0.1627197265625,-0.93927001953125,-0.046875,-0.5966796875,0.80126953125,-1.9375,4.125,-0.4375
0.9700000000000008,-2.0,-4.0,-7.0,-4.0,-1.0,-2.0,-1.0,-2.0,0.2958984375,-0.06146240234375,0.1627197265625,-0.93927001953125,-0.046875,-0.5966796875,0.80126953125,-1.9375,4.125,-0.4375
0.9750000000000008,-2.0,-3.0,-7.0,0.0,-2.0,-1.0,-2.0,-1.0,0.296630859375,-0.0625,0.16290283203125,-0.93890380859375,-0.048828125,-0.6064453125,0.8095703125,-3.5625,3.8125,-0.6875
0.9800000000000008,-2.0,-3.0,-7.0,0.0,-2.0,-1.0,-2.0,-1.0,0.296630859375,-0.0625,0.16290283203125,-0.93890380859375,-0.048828125,-0.6064453125,0.8095703125,-3.5625,3.8125,-0.6875
0.9850000000000008,-2.0,-3.0,-7.0,0.0,-2.0,-1.0,-2.0,-1.0,0.296630859375,-0.0625,0.16290283203125,-0.93890380859375,-0.048828125,-0.6064453125,0.8095703125,-3.5625,3.8125,-0.6875
0.9900000000000008,-2.0,-3.0,-7.0,0.0,-2.0,-1.0,-2.0,-1.0,0.296630859375,-0.0625,0.16290283203125,-0.93890380859375,-0.048828125,-0.6064453125,0.8095703125,-3.5625,3.8125,-0.6875
0.9950000000000008,-3.0,-1.0,-1.0,-3.0,-2.0,-3.0,-2.0,-2.0,0.29742431640625,-0.06365966796875,0.16302490234375,-0.9385986328125,-0.0634765625,-0.6123046875,0.7900390625,-2.8125,3.5,-1.125
1.0000000000000007,-3.0,-1.0,-1.0,-3.0,-2.0,-3.0,-2.0,-2.0,0.29742431640625,-0.06365966796875,0.16302490234375,-0.9385986328125,-0.0634765625,-0.6123046875,0.7900390625,-2.8125,3.5,-1.125
1.0050000000000006,-3.0,-5.0,-10.0,4.0,-7.0,-5.0,-3.0,-2.0,0.29742431640625,-0.06365966796875,0.16302490234375,-0.9385986328125,-0.0634765625,-0.6123046875,0.7900390625,-2.8125,3.5,-1.125
1.0100000000000005,-3.0,-5.0,-10.0,4.0,-7.0,-5.0,-3.0,-2.0,0.29742431640625,-0.06365966796875,0.16302490234375,-0.9385986328125,-0.0634765625,-0.6123046875,0.7900390625,-2.8125,3.5,-1.125
1.0150000000000003,0.0,-2.0,-6.0,-1.0,-1.0,-1.0,-1.0,-2.0,0.29742431640625,-0.06365966796875,0.16302490234375,-0.9385986328125,-0.0634765625,-0.6123046875,0.7900390625,-2.8125,3.5,-1.125
1.0200000000000002,0.0,-2.0,-6.0,-1.0,-1.0,-1.0,-1.0,-2.0,0.29833984375,-0.06488037109375,0.163330078125,-0.93817138671875,-0.05712890625,-0.6162109375,0.7890625,-3.75,4.5,-1.5625
1.0250000000000001,0.0,-2.0,-6.0,-1.0,-1.0,-1.0,-1.0,-2.0,0.29833984375,-0.06488037109375,0.163330078125,-0.93817138671875,-0.05712890625,-0.6162109375,0.7890625,-3.75,4.5,-1.5625
1.03,-1.0,0.0,3.0,-6.0,-4.0,-2.0,0.0,0.0,0.29833984375,-0.06488037109375,0.163330078125,-0.93817138671875,-0.05712890625,-0.6162109375,0.7890625,-3.75,4.5,-1.5625
1.035,-1.0,0.0,3.0,-6.0,-4.0,-2.0,0.0,0.0,0.29833984375,-0.06488037109375,0.163330078125,-0.93817138671875,-0.05712890625,-0.6162109375,0.7890625,-3.75,4.5,-1.5625
1.0399999999999998,-2.0,-1.0,4.0,-4.0,-1.0,0.0,0.0,-1.0,0.29931640625,-0.06597900390625,0.163818359375,-0.93768310546875,-0.0498046875,-0.60986328125,0.783203125,-4.25,4.375,-2.5625
1.0449999999999997,-2.0,-1.0,4.0,-4.0,-1.0,0.0,0.0,-1.0,0.29931640625,-0.06597900390625,0.163818359375,-0.93768310546875,-0.0498046875,-0.60986328125,0.783203125,-4.25,4.375,-2.5625
1.0499999999999996,-2.0,-1.0,4.0,-4.0,-1.0,0.0,0.0,-1.0,0.29931640625,-0.06597900390625,0.163818359375,-0.93768310546875,-0.0498046875,-0.60986328125,0.783203125,-4.25,4.375,-2.5625
1.0549999999999995,-2.0,-2.0,-11.0,1.0,0.0,-2.0,-1.0,-1.0,0.29931640625,-0.06597900390625,0.163818359375,-0.93768310546875,-0.0498046875,-0.60986328125,0.783203125,-4.25,4.375,-2.5625
1.0599999999999994,-2.0,-2.0,-11.0,1.0,0.0,-2.0,-1.0,-1.0,0.29931640625,-0.06597900390625,0.163818359375,-0.93768310546875,-0.0498046875,-0.60986328125,0.783203125,-4.25,4.375,-2.5625
1.0649999999999993,0.0,-7.0,-18.0,-11.0,-4.0,-1.0,-1.0,0.0,0.300537109375,-0.06695556640625,0.16448974609375,-0.9371337890625,-0.05029296875,-0.62158203125,0.79638671875,-5.625,4.125,-3.8125
1.0699999999999992,0.0,-7.0,-18.0,-11.0,-4.0,-1.0,-1.0,0.0,0.300537109375,-0.06695556640625,0.16448974609375,-0.9371337890625,-0.05029296875,-0.62158203125,0.79638671875,-5.625,4.125,-3.8125
1.074999999999999,-1.0,-2.0,-12.0,-5.0,2.0,0.0,-1.0,-1.0,0.300537109375,-0.06695556640625,0.16448974609375,-0.9371337890625,-0.05029296875,-0.62158203125,0.79638671875,-5.625,4.125,-3.8125
1.079999999999999,-1.0,8.0,-1.0,6.0,0.0,-2.0,-1.0,-1.0,0.300537109375,-0.06695556640625,0.16448974609375,-0.9371337890625,-0.05029296875,-0.62158203125,0.79638671875,-5.625,4.125,-3.8125
1.0849999999999989,-1.0,8.0,-1.0,6.0,0.0,-2.0,-1.0,-1.0,0.300537109375,-0.06695556640625,0.16448974609375,-0.9371337890625,-0.05029296875,-0.62158203125,0.79638671875,-5.625,4.125,-3.8125
1.0899999999999987,-1.0,8.0,-1.0,6.0,0.0,-2.0,-1.0,-1.0,0.3016357421875,-0.0679931640625,0.1651611328125,-0.93658447265625,-0.0546875,-0.62548828125,0.8056640625,-5.625,4.1875,-3.6875
1.0949999999999986,-1.0,8.0,-1.0,6.0,0.0,-2.0,-1.0,-1.0,0.3016357421875,-0.0679931640625,0.1651611328125,-0.93658447265625,-0.0546875,-0.62548828125,0.8056640625,-5.625,4.1875,-3.6875
1.0999999999999985,-1.0,2.0,-7.0,-1.0,-2.0,-1.0,-1.0,-2.0,0.3016357421875,-0.0679931640625,0.1651611328125,-0.93658447265625,-0.0546875,-0.62548828125,0.8056640625,-5.625,4.1875,-3.6875
1.1049999999999984,0.0,-2.0,-23.0,0.0,0.0,0.0,0.0,1.0,0.3016357421875,-0.0679931640625,0.1651611328125,-0.93658447265625,-0.0546875,-0.62548828125,0.8056640625,-5.625,4.1875,-3.6875
1.1099999999999983,0.0,-2.0,-23.0,0.0,0.0,0.0,0.0,1.0,0.3016357421875,-0.0679931640625,0.1651611328125,-0.93658447265625,-0.0546875,-0.62548828125,0.8056640625,-5.625,4.1875,-3.6875
1.1149999999999982,-1.0,-3.0,-19.0,-9.0,-5.0,-2.0,-4.0,-2.0,0.30267333984375,-0.06884765625,0.165771484375,-0.93603515625,-0.05615234375,-0.6337890625,0.79931640625,-4.125,3.375,-3.75
1.119999999999998,-1.0,-3.0,-19.0,-9.0,-5.0,-2.0,-4.0,-2.0,0.30267333984375,-0.06884765625,0.165771484375,-0.93603515625,-0.05615234375,-0.6337890625,0.79931640625,-4.125,3.375,-3.75
1.124999999999998,-1.0,-3.0,-19.0,-9.0,-5.0,-2.0,-4.0,-2.0,0.30267333984375,-0.06884765625,0.165771484375,-0.93603515625,-0.05615234375,-0.6337890625,0.79931640625,-4.125,3.375,-3.75
1.129999999999998,-1.0,-3.0,-19.0,-9.0,-5.0,-2.0,-4.0,-2.0,0.30267333984375,-0.06884765625,0.165771484375,-0.93603515625,-0.05615234375,-0.6337890625,0.79931640625,-4.125,3.375,-3.75
1.1349999999999978,0.0,-1.0,-5.0,4.0,5.0,0.0,-1.0,-1.0,0.30364990234375,-0.06976318359375,0.1663818359375,-0.935546875,-0.05224609375,-0.6259765625,0.80126953125,-4.4375,3.6875,-3.5
1.1399999999999977,-1.0,-2.0,-6.0,-6.0,8.0,2.0,-1.0,-1.0,0.30364990234375,-0.06976318359375,0.1663818359375,-0.935546875,-0.05224609375,-0.6259765625,0.80126953125,-4.4375,3.6875,-3.5
1.1449999999999976,-1.0,-2.0,-6.0,-6.0,8.0,2.0,-1.0,-1.0,0.30364990234375,-0.06976318359375,0.1663818359375,-0.935546875,-0.05224609375,-0.6259765625,0.80126953125,-4.4375,3.6875,-3.5
1.1499999999999975,-1.0,-2.0,9.0,-2.0,0.0,2.0,0.0,0.0,0.30364990234375,-0.06976318359375,0.1663818359375,-0.935546875,-0.05224609375,-0.6259765625,0.80126953125,-4.4375,3.6875,-3.5
1.1549999999999974,-1.0,-2.0,9.0,-2.0,0.0,2.0,0.0,0.0,0.30364990234375,-0.06976318359375,0.1663818359375,-0.935546875,-0.05224609375,-0.6259765625,0.80126953125,-4.4375,3.6875,-3.5
1.1599999999999973,-1.0,-2.0,9.0,-2.0,0.0,2.0,0.0,0.0,0.3045654296875,-0.070556640625,0.166748046875,-0.93511962890625,-0.05859375,-0.623046875,0.79150390625,-4.125,2.75,-2.6875
1.1649999999999971,1.0,1.0,5.0,8.0,8.0,-1.0,1.0,-1.0,0.3045654296875,-0.070556640625,0.166748046875,-0.93511962890625,-0.05859375,-0.623046875,0.79150390625,-4.125,2.75,-2.6875
1.169999999999997,1.0,1.0,5.0,8.0,8.0,-1.0,1.0,-1.0,0.3045654296875,-0.070556640625,0.166748046875,-0.93511962890625,-0.05859375,-0.623046875,0.79150390625,-4.125,2.75,-2.6875
1.174999999999997,-2.0,0.0,5.0,3.0,-2.0,-1.0,-2.0,-1.0,0.3045654296875,-0.070556640625,0.166748046875,-0.93511962890625,-0.05859375,-0.623046875,0.79150390625,-4.125,2.75,-2.6875
1.1799999999999968,-2.0,0.0,5.0,3.0,-2.0,-1.0,-2.0,-1.0,0.30511474609375,-0.0712890625,0.1671142578125,-0.934814453125,-0.05712890625,-0.60595703125,0.79736328125,-3.1875,2.625,-2.25
1.1849999999999967,-2.0,0.0,5.0,3.0,-2.0,-1.0,-2.0,-1.0,0.30511474609375,-0.0712890625,0.1671142578125,-0.934814453125,-0.05712890625,-0.60595703125,0.79736328125,-3.1875,2.625,-2.25
1.1899999999999966,-2.0,0.0,5.0,3.0,-2.0,-1.0,-2.0,-1.0,0.30511474609375,-0.0712890625,0.1671142578125,-0.934814453125,-0.05712890625,-0.60595703125,0.79736328125,-3.1875,2.625,-2.25
1.1949999999999965,-1.0,0.0,-10.0,-13.0,-3.0,-2.0,-1.0,-1.0,0.30511474609375,-0.0712890625,0.1671142578125,-0.934814453125,-0.05712890625,-0.60595703125,0.79736328125,-3.1875,2.625,-2.25
1.1999999999999964,-1.0,0.0,-10.0,-13.0,-3.0,-2.0,-1.0,-1.0,0.30511474609375,-0.0712890625,0.1671142578125,-0.934814453125,-0.05712890625,-0.60595703125,0.79736328125,-3.1875,2.625,-2.25
1.2049999999999963,-1.0,0.0,-10.0,-13.0,-3.0,-2.0,-1.0,-1.0,0.3057861328125,-0.07196044921875,0.1673583984375,-0.93450927734375,-0.0517578125,-0.61328125,0.80126953125,-3.75,2.3125,-1.5625
1.2099999999999962,-1.0,0.0,-10.0,-13.0,-3.0,-2.0,-1.0,-1.0,0.3057861328125,-0.07196044921875,0.1673583984375,-0.93450927734375,-0.0517578125,-0.61328125,0.80126953125,-3.75,2.3125,-1.5625
1.214999999999996,-3.0,-3.0,11.0,4.0,0.0,-1.0,-2.0,-1.0,0.3057861328125,-0.07196044921875,0.1673583984375,-0.93450927734375,-0.0517578125,-0.61328125,0.80126953125,-3.75,2.3125,-1.5625
1.219999999999996,-3.0,-3.0,11.0,4.0,0.0,-1.0,-2.0,-1.0,0.3057861328125,-0.07196044921875,0.1673583984375,-0.93450927734375,-0.0517578125,-0.61328125,0.80126953125,-3.75,2.3125,-1.5625
1.2249999999999959,0.0,-1.0,9.0,6.0,0.0,1.0,0.0,-2.0,0.3057861328125,-0.07196044921875,0.1673583984375,-0.93450927734375,-0.0517578125,-0.61328125,0.80126953125,-3.75,2.3125,-1.5625
1.2299999999999958,0.0,-1.0,9.0,6.0,0.0,1.0,0.0,-2.0,0.3057861328125,-0.07196044921875,0.1673583984375,-0.93450927734375,-0.0517578125,-0.61328125,0.80126953125,-3.75,2.3125,-1.5625
1.2349999999999957,0.0,-1.0,9.0,6.0,0.0,1.0,0.0,-2.0,0.306640625,-0.07269287109375,0.16754150390625,-0.93414306640625,-0.05126953125,-0.6240234375,0.8046875,-4.5,2.375,-1.1875
1.2399999999999956,0.0,-1.0,9.0,6.0,0.0,1.0,0.0,-2.0,0.306640625,-0.07269287109375,0.16754150390625,-0.93414306640625,-0.05126953125,-0.6240234375,0.8046875,-4.5,2.375,-1.1875
1.2449999999999954,-1.0,0.0,-10.0,-5.0,-5.0,-3.0,-2.0,0.0,0.306640625,-0.07269287109375,0.16754150390625,-0.93414306640625,-0.05126953125,-0.6240234375,0.8046875,-4.5,2.375,-1.1875
1.2499999999999953,-1.0,0.0,-10.0,-5.0,-5.0,-3.0,-2.0,0.0,0.306640625,-0.07269287109375,0.16754150390625,-0.93414306640625,-0.05126953125,-0.6240234375,0.8046875,-4.5,2.375,-1.1875
1.2549999999999952,0.0,-2.0,5.0,7.0,0.0,0.0,0.0,1.0,0.3072509765625,-0.0733642578125,0.1676025390625,-0.93389892578125,-0.06103515625,-0.6298828125,0.798828125,-2.625,1.9375,-0.75
1.2599999999999951,0.0,-2.0,5.0,7.0,0.0,0.0,0.0,1.0,0.3072509765625,-0.0733642578125,0.1676025390625,-0.93389892578125,-0.06103515625,-0.6298828125,0.798828125,-2.625,1.9375,-0.75
1.264999999999995,0.0,-2.0,5.0,7.0,0.0,0.0,0.0,1.0,0.3072509765625,-0.0733642578125,0.1676025390625,-0.93389892578125,-0.06103515625,-0.6298828125,0.798828125,-2.625,1.9375,-0.75
1.269999999999995,0.0,-2.0,5.0,7.0,0.0,0.0,0.0,1.0,0.3072509765625,-0.0733642578125,0.1676025390625,-0.93389892578125,-0.06103515625,-0.6298828125,0.798828125,-2.625,1.9375,-0.75
1.2749999999999948,1.0,-1.0,7.0,-3.0,-1.0,-1.0,0.0,0.0,0.3072509765625,-0.0733642578125,0.1676025390625,-0.93389892578125,-0.06103515625,-0.6298828125,0.798828125,-2.625,1.9375,-0.75
1.2799999999999947,1.0,-1.0,7.0,-3.0,-1.0,-1.0,0.0,0.0,0.3072509765625,-0.0733642578125,0.1676025390625,-0.93389892578125,-0.06103515625,-0.6298828125,0.798828125,-2.625,1.9375,-0.75
1.2849999999999946,1.0,-1.0,7.0,-3.0,-1.0,-1.0,0.0,0.0,0.30810546875,-0.07403564453125,0.1676025390625,-0.93353271484375,-0.060546875,-0.64013671875,0.8046875,-3.8125,1.375,-0.4375
1.2899999999999945,1.0,-1.0,7.0,-3.0,-1.0,-1.0,0.0,0.0,0.30810546875,-0.07403564453125,0.1676025390625,-0.93353271484375,-0.060546875,-0.64013671875,0.8046875,-3.8125,1.375,-0.4375
1.2949999999999944,1.0,-1.0,2.0,3.0,0.0,-1.0,0.0,-1.0,0.30810546875,-0.07403564453125,0.1676025390625,-0.93353271484375,-0.060546875,-0.64013671875,0.8046875,-3.8125,1.375,-0.4375
1.2999999999999943,1.0,-1.0,2.0,3.0,0.0,-1.0,0.0,-1.0,0.30810546875,-0.07403564453125,0.1676025390625,-0.93353271484375,-0.060546875,-0.64013671875,0.8046875,-3.8125,1.375,-0.4375
1.3049999999999942,-2.0,-1.0,-1.0,0.0,0.0,-3.0,-1.0,-2.0,0.30810546875,-0.07403564453125,0.1676025390625,-0.93353271484375,-0.060546875,-0.64013671875,0.8046875,-3.8125,1.375,-0.4375
1.309999999999994,-2.0,-1.0,-1.0,0.0,0.0,-3.0,-1.0,-2.0,0.30810546875,-0.07403564453125,0.1676025390625,-0.93353271484375,-0.060546875,-0.64013671875,0.8046875,-3.8125,1.375,-0.4375
1.314999999999994,-2.0,-1.0,-1.0,0.0,0.0,-3.0,-1.0,-2.0,0.30853271484375,-0.07440185546875,0.16754150390625,-0.93341064453125,-0.052734375,-0.62890625,0.79931640625,-1.4375,0.5625,-0.125
1.3199999999999938,-2.0,-1.0,-1.0,0.0,0.0,-3.0,-1.0,-2.0,0.30853271484375,-0.07440185546875,0.16754150390625,-0.93341064453125,-0.052734375,-0.62890625,0.79931640625,-1.4375,0.5625,-0.125
1.3249999999999937,-1.0,-1.0,-7.0,4.0,0.0,-1.0,0.0,-1.0,0.30853271484375,-0.07440185546875,0.16754150390625,-0.93341064453125,-0.052734375,-0.62890625,0.79931640625,-1.4375,0.5625,-0.125
1.3299999999999936,-1.0,-1.0,-7.0,4.0,0.0,-1.0,0.0,-1.0,0.30853271484375,-0.07440185546875,0.16754150390625,-0.93341064453125,-0.052734375,-0.62890625,0.79931640625,-1.4375,0.5625,-0.125
1.3349999999999935,-1.0,-3.0,-14.0,-2.0,-2.0,-1.0,-2.0,-2.0,0.30902099609375,-0.0748291015625,0.1676025390625,-0.93316650390625,-0.0458984375,-0.626953125,0.80224609375,-2.25,1.3125,-0.3125
1.3399999999999934,-1.0,-3.0,-14.0,-2.0,-2.0,-1.0,-2.0,-2.0,0.30902099609375,-0.0748291015625,0.1676025390625,-0.93316650390625,-0.0458984375,-0.626953125,0.80224609375,-2.25,1.3125,-0.3125
1.3449999999999933,-1.0,-3.0,-14.0,-2.0,-2.0,-1.0,-2.0,-2.0,0.30902099609375,-0.0748291015625,0.1676025390625,-0.93316650390625,-0.0458984375,-0.626953125,0.80224609375,-2.25,1.3125,-0.3125
1.3499999999999932,-1.0,-3.0,-14.0,-2.0,-2.0,-1.0,-2.0,-2.0,0.30902099609375,-0.0748291015625,0.1676025390625,-0.93316650390625,-0.0458984375,-0.626953125,0.80224609375,-2.25,1.3125,-0.3125
1.354999999999993,0.0,-2.0,7.0,6.0,-5.0,-2.0,-1.0,1.0,0.30902099609375,-0.0748291015625,0.1676025390625,-0.93316650390625,-0.0458984375,-0.626953125,0.80224609375,-2.25,1.3125,-0.3125
1.359999999999993,0.0,-2.0,7.0,6.0,-5.0,-2.0,-1.0,1.0,0.30902099609375,-0.0748291015625,0.1676025390625,-0.93316650390625,-0.0458984375,-0.626953125,0.80224609375,-2.25,1.3125,-0.3125
1.3649999999999929,0.0,-2.0,7.0,6.0,-5.0,-2.0,-1.0,1.0,0.3096923828125,-0.0753173828125,0.16766357421875,-0.93292236328125,-0.04736328125,-0.62939453125,0.796875,-3.0,1.5,-0.5625
1.3699999999999928,0.0,-2.0,7.0,6.0,-5.0,-2.0,-1.0,1.0,0.3096923828125,-0.0753173828125,0.16766357421875,-0.93292236328125,-0.04736328125,-0.62939453125,0.796875,-3.0,1.5,-0.5625
1.3749999999999927,0.0,-1.0,5.0,6.0,-4.0,-2.0,-1.0,-1.0,0.3096923828125,-0.0753173828125,0.16766357421875,-0.93292236328125,-0.04736328125,-0.62939453125,0.796875,-3.0,1.5,-0.5625
1.3799999999999926,0.0,-1.0,5.0,6.0,-4.0,-2.0,-1.0,-1.0,0.3096923828125,-0.0753173828125,0.16766357421875,-0.93292236328125,-0.04736328125,-0.62939453125,0.796875,-3.0,1.5,-0.5625
1.3849999999999925,-1.0,0.0,-8.0,3.0,0.0,-1.0,0.0,-2.0,0.3096923828125,-0.0753173828125,0.16766357421875,-0.93292236328125,-0.04736328125,-0.62939453125,0.796875,-3.0,1.5,-0.5625
1.3899999999999924,-1.0,0.0,-8.0,3.0,0.0,-1.0,0.0,-2.0,0.3096923828125,-0.0753173828125,0.16766357421875,-0.93292236328125,-0.04736328125,-0.62939453125,0.796875,-3.0,1.5,-0.5625
1.3949999999999922,-1.0,0.0,-8.0,3.0,0.0,-1.0,0.0,-2.0,0.3101806640625,-0.07574462890625,0.1678466796875,-0.93267822265625,-0.0498046875,-0.63330078125,0.8037109375,-2.25,1.5,-1.0
1.3999999999999921,-1.0,0.0,-8.0,3.0,0.0,-1.0,0.0,-2.0,0.3101806640625,-0.07574462890625,0.1678466796875,-0.93267822265625,-0.0498046875,-0.63330078125,0.8037109375,-2.25,1.5,-1.0
1.404999999999992,-1.0,0.0,-7.0,-5.0,0.0,1.0,-2.0,-1.0,0.3101806640625,-0.07574462890625,0.1678466796875,-0.93267822265625,-0.0498046875,-0.63330078125,0.8037109375,-2.25,1.5,-1.0
1.409999999999992,-1.0,0.0,-7.0,-5.0,0.0,1.0,-2.0,-1.0,0.3101806640625,-0.07574462890625,0.1678466796875,-0.93267822265625,-0.0498046875,-0.63330078125,0.8037109375,-2.25,1.5,-1.0
1.4149999999999918,-2.0,0.0,-4.0,-3.0,-1.0,1.0,0.0,0.0,0.31060791015625,-0.0760498046875,0.1678466796875,-0.93255615234375,-0.0439453125,-0.630859375,0.8056640625,-1.8125,0.8125,0.0
1.4199999999999917,-2.0,0.0,-4.0,-3.0,-1.0,1.0,0.0,0.0,0.31060791015625,-0.0760498046875,0.1678466796875,-0.93255615234375,-0.0439453125,-0.630859375,0.8056640625,-1.8125,0.8125,0.0
1.4249999999999916,-2.0,0.0,-4.0,-3.0,-1.0,1.0,0.0,0.0,0.31060791015625,-0.0760498046875,0.1678466796875,-0.93255615234375,-0.0439453125,-0.630859375,0.8056640625,-1.8125,0.8125,0.0
1.4299999999999915,0.0,-3.0,10.0,-4.0,1.0,1.0,-1.0,-1.0,0.31060791015625,-0.0760498046875,0.1678466796875,-0.93255615234375,-0.0439453125,-0.630859375,0.8056640625,-1.8125,0.8125,0.0
1.4349999999999914,0.0,-3.0,10.0,-4.0,1.0,1.0,-1.0,-1.0,0.31060791015625,-0.0760498046875,0.1678466796875,-0.9324951171875,-0.03662109375,-0.62255859375,0.80615234375,-0.5625,0.875,0.625
1.4399999999999913,0.0,-3.0,10.0,-4.0,1.0,1.0,-1.0,-1.0,0.31060791015625,-0.0760498046875,0.1678466796875,-0.9324951171875,-0.03662109375,-0.62255859375,0.80615234375,-0.5625,0.875,0.625
1.4449999999999912,-3.0,-1.0,2.0,-6.0,-2.0,-2.0,-3.0,0.0,0.31060791015625,-0.0760498046875,0.1678466796875,-0.9324951171875,-0.03662109375,-0.62255859375,0.80615234375,-0.5625,0.875,0.625
1.449999999999991,-3.0,-1.0,2.0,-6.0,-2.0,-2.0,-3.0,0.0,0.31060791015625,-0.0760498046875,0.1678466796875,-0.9324951171875,-0.03662109375,-0.62255859375,0.80615234375,-0.5625,0.875,0.625
1.454999999999991,1.0,2.0,16.0,7.0,5.0,1.0,0.0,1.0,0.31060791015625,-0.0760498046875,0.1678466796875,-0.9324951171875,-0.03662109375,-0.62255859375,0.80615234375,-0.5625,0.875,0.625
1.4599999999999909,1.0,2.0,16.0,7.0,5.0,1.0,0.0,1.0,0.31072998046875,-0.07647705078125,0.16766357421875,-0.9324951171875,-0.056640625,-0.634765625,0.81494140625,-0.5,1.0,0.875
1.4649999999999908,1.0,2.0,16.0,7.0,5.0,1.0,0.0,1.0,0.31072998046875,-0.07647705078125,0.16766357421875,-0.9324951171875,-0.056640625,-0.634765625,0.81494140625,-0.5,1.0,0.875
1.4699999999999906,-1.0,-2.0,-14.0,-1.0,-3.0,-2.0,-1.0,1.0,0.31072998046875,-0.07647705078125,0.16766357421875,-0.9324951171875,-0.056640625,-0.634765625,0.81494140625,-0.5,1.0,0.875
1.4749999999999905,1.0,1.0,6.0,-1.0,-1.0,-1.0,-1.0,2.0,0.31072998046875,-0.07647705078125,0.16766357421875,-0.9324951171875,-0.056640625,-0.634765625,0.81494140625,-0.5,1.0,0.875
1.4799999999999904,-2.0,2.0,3.0,3.0,2.0,-2.0,-1.0,-1.0,0.31072998046875,-0.07647705078125,0.16766357421875,-0.9324951171875,-0.056640625,-0.634765625,0.81494140625,-0.5,1.0,0.875
1.4849999999999903,-2.0,2.0,3.0,3.0,2.0,-2.0,-1.0,-1.0,0.310546875,-0.0767822265625,0.16748046875,-0.93255615234375,-0.05712890625,-0.625,0.81005859375,1.3125,0.625,0.9375
1.4899999999999902,0.0,0.0,17.0,0.0,0.0,0.0,0.0,-1.0,0.310546875,-0.0767822265625,0.16748046875,-0.93255615234375,-0.05712890625,-0.625,0.81005859375,1.3125,0.625,0.9375
1.4949999999999901,-1.0,-3.0,-4.0,-5.0,-6.0,-2.0,-4.0,1.0,0.310546875,-0.0767822265625,0.16748046875,-0.93255615234375,-0.05712890625,-0.625,0.81005859375,1.3125,0.625,0.9375
1.49999999999999,-1.0,-3.0,-4.0,-5.0,-6.0,-2.0,-4.0,1.0,0.31072998046875,-0.07696533203125,0.16748046875,-0.9324951171875,-0.04736328125,-0.62353515625,0.8056640625,-1.0625,0.375,0.0
1.50499999999999,-1.0,-3.0,-4.0,-5.0,-6.0,-2.0,-4.0,1.0,0.31072998046875,-0.07696533203125,0.16748046875,-0.9324951171875,-0.04736328125,-0.62353515625,0.8056640625,-1.0625,0.375,0.0
1.5099999999999898,0.0,5.0,12.0,12.0,4.0,-1.0,1.0,0.0,0.31072998046875,-0.07696533203125,0.16748046875,-0.9324951171875,-0.04736328125,-0.62353515625,0.8056640625,-1.0625,0.375,0.0
1.5149999999999897,-1.0,-3.0,-14.0,-2.0,-3.0,-3.0,-1.0,-4.0,0.31072998046875,-0.07696533203125,0.16748046875,-0.9324951171875,-0.04736328125,-0.62353515625,0.8056640625,-1.0625,0.375,0.0
1.5199999999999896,0.0,-1.0,-3.0,1.0,3.0,2.0,-1.0,-2.0,0.31121826171875,-0.07733154296875,0.16748046875,-0.93231201171875,-0.0517578125,-0.62646484375,0.796875,-2.0625,0.75,-0.125
1.5249999999999895,0.0,-1.0,-3.0,1.0,3.0,2.0,-1.0,-2.0,0.31121826171875,-0.07733154296875,0.16748046875,-0.93231201171875,-0.0517578125,-0.62646484375,0.796875,-2.0625,0.75,-0.125
1.5299999999999894,0.0,-1.0,-3.0,1.0,3.0,2.0,-1.0,-2.0,0.31121826171875,-0.07733154296875,0.16748046875,-0.93231201171875,-0.0517578125,-0.62646484375,0.796875,-2.0625,0.75,-0.125
1.5349999999999893,-2.0,-2.0,-8.0,-7.0,-5.0,0.0,1.0,0.0,0.31121826171875,-0.07733154296875,0.16748046875,-0.93231201171875,-0.0517578125,-0.62646484375,0.796875,-2.0625,0.75,-0.125
1.5399999999999892,-2.0,-2.0,-8.0,-7.0,-5.0,0.0,1.0,0.0,0.31121826171875,-0.07733154296875,0.16748046875,-0.93231201171875,-0.0517578125,-0.62646484375,0.796875,-2.0625,0.75,-0.125
1.544999999999989,-2.0,-1.0,9.0,3.0,-1.0,-4.0,-2.0,-3.0,0.31121826171875,-0.07733154296875,0.16748046875,-0.93231201171875,-0.0517578125,-0.62646484375,0.796875,-2.0625,0.75,-0.125
1.549999999999989,-2.0,-1.0,9.0,3.0,-1.0,-4.0,-2.0,-3.0,0.31146240234375,-0.07763671875,0.1673583984375,-0.93218994140625,-0.05419921875,-0.6328125,0.8046875,-1.0625,0.6875,0.375
1.5549999999999888,-2.0,-1.0,9.0,3.0,-1.0,-4.0,-2.0,-3.0,0.31146240234375,-0.07763671875,0.1673583984375,-0.93218994140625,-0.05419921875,-0.6328125,0.8046875,-1.0625,0.6875,0.375
1.5599999999999887,0.0,0.0,1.0,1.0,-2.0,-3.0,-1.0,1.0,0.31146240234375,-0.07763671875,0.1673583984375,-0.93218994140625,-0.05419921875,-0.6328125,0.8046875,-1.0625,0.6875,0.375
1.5649999999999886,-3.0,-3.0,-4.0,-4.0,-4.0,-2.0,-1.0,1.0,0.31146240234375,-0.07763671875,0.1673583984375,-0.93218994140625,-0.05419921875,-0.6328125,0.8046875,-1.0625,0.6875,0.375
1.5699999999999885,-3.0,-3.0,-4.0,-4.0,-4.0,-2.0,-1.0,1.0,0.3114013671875,-0.0780029296875,0.167236328125,-0.93218994140625,-0.05126953125,-0.6337890625,0.80126953125,1.3125,1.0,0.75
1.5749999999999884,-2.0,-1.0,11.0,4.0,0.0,0.0,-1.0,0.0,0.3114013671875,-0.0780029296875,0.167236328125,-0.93218994140625,-0.05126953125,-0.6337890625,0.80126953125,1.3125,1.0,0.75
1.5799999999999883,-2.0,-1.0,11.0,4.0,0.0,0.0,-1.0,0.0,0.3114013671875,-0.0780029296875,0.167236328125,-0.93218994140625,-0.05126953125,-0.6337890625,0.80126953125,1.3125,1.0,0.75
1.5849999999999882,-1.0,2.0,-6.0,-4.0,1.0,1.0,-1.0,1.0,0.3114013671875,-0.0780029296875,0.167236328125,-0.93218994140625,-0.05126953125,-0.6337890625,0.80126953125,1.3125,1.0,0.75
1.589999999999988,-1.0,2.0,-6.0,-4.0,1.0,1.0,-1.0,1.0,0.3114013671875,-0.0780029296875,0.167236328125,-0.93218994140625,-0.05126953125,-0.6337890625,0.80126953125,1.3125,1.0,0.75
1.594999999999988,0.0,0.0,1.0,-2.0,-1.0,2.0,0.0,0.0,0.31085205078125,-0.07818603515625,0.167236328125,-0.932373046875,-0.04833984375,-0.615234375,0.81298828125,2.75,1.3125,0.625
1.5999999999999879,-3.0,0.0,-7.0,-5.0,-4.0,-4.0,0.0,-1.0,0.31085205078125,-0.07818603515625,0.167236328125,-0.932373046875,-0.04833984375,-0.615234375,0.81298828125,2.75,1.3125,0.625
1.6049999999999878,0.0,-2.0,-3.0,5.0,1.0,0.0,-2.0,-1.0,0.3104248046875,-0.0784912109375,0.16729736328125,-0.9324951171875,-0.0478515625,-0.595703125,0.810546875,0.75,1.6875,0.25
1.6099999999999877,0.0,-2.0,-3.0,5.0,1.0,0.0,-2.0,-1.0,0.3104248046875,-0.0784912109375,0.16729736328125,-0.9324951171875,-0.0478515625,-0.595703125,0.810546875,0.75,1.6875,0.25
1.6149999999999876,0.0,-2.0,-3.0,5.0,1.0,0.0,-2.0,-1.0,0.3104248046875,-0.0784912109375,0.16729736328125,-0.9324951171875,-0.0478515625,-0.595703125,0.810546875,0.75,1.6875,0.25
1.6199999999999875,0.0,1.0,5.0,3.0,0.0,-2.0,-1.0,-2.0,0.3104248046875,-0.0784912109375,0.16729736328125,-0.9324951171875,-0.0478515625,-0.595703125,0.810546875,0.75,1.6875,0.25
1.6249999999999873,0.0,1.0,5.0,3.0,0.0,-2.0,-1.0,-2.0,0.3104248046875,-0.0784912109375,0.16729736328125,-0.9324951171875,-0.0478515625,-0.595703125,0.810546875,0.75,1.6875,0.25
1.6299999999999872,-1.0,-2.0,-8.0,-4.0,1.0,1.0,-1.0,0.0,0.310546875,-0.07879638671875,0.16705322265625,-0.93243408203125,-0.05419921875,-0.6025390625,0.8056640625,-1.8125,0.5625,1.0625
1.6349999999999871,-2.0,-1.0,3.0,0.0,-1.0,-3.0,-1.0,0.0,0.310546875,-0.07879638671875,0.16705322265625,-0.93243408203125,-0.05419921875,-0.6025390625,0.8056640625,-1.8125,0.5625,1.0625
1.639999999999987,-2.0,-1.0,3.0,0.0,-1.0,-3.0,-1.0,0.0,0.310546875,-0.07879638671875,0.16705322265625,-0.93243408203125,-0.05419921875,-0.6025390625,0.8056640625,-1.8125,0.5625,1.0625
1.644999999999987,-1.0,-1.0,1.0,0.0,-1.0,-1.0,-2.0,-2.0,0.310546875,-0.07879638671875,0.16705322265625,-0.93243408203125,-0.05419921875,-0.6025390625,0.8056640625,-1.8125,0.5625,1.0625
1.6499999999999868,-1.0,-1.0,1.0,0.0,-1.0,-1.0,-2.0,-2.0,0.310546875,-0.07879638671875,0.16705322265625,-0.93243408203125,-0.05419921875,-0.6025390625,0.8056640625,-1.8125,0.5625,1.0625
1.6549999999999867,-1.0,-1.0,1.0,0.0,-1.0,-1.0,-2.0,-2.0,0.3109130859375,-0.07891845703125,0.166748046875,-0.932373046875,-0.04443359375,-0.62353515625,0.79443359375,-1.3125,-0.5625,1.75
1.6599999999999866,-2.0,-1.0,-17.0,5.0,15.0,2.0,1.0,0.0,0.3109130859375,-0.07891845703125,0.166748046875,-0.932373046875,-0.04443359375,-0.62353515625,0.79443359375,-1.3125,-0.5625,1.75
1.6649999999999865,-2.0,-1.0,-17.0,5.0,15.0,2.0,1.0,0.0,0.3109130859375,-0.07891845703125,0.166748046875,-0.932373046875,-0.04443359375,-0.62353515625,0.79443359375,-1.3125,-0.5625,1.75
1.6699999999999864,-1.0,-3.0,2.0,0.0,-3.0,0.0,-1.0,0.0,0.31072998046875,-0.078857421875,0.16644287109375,-0.9324951171875,-0.0439453125,-0.63818359375,0.798828125,2.6875,-0.5,1.625
1.6749999999999863,-1.0,-3.0,2.0,0.0,-3.0,0.0,-1.0,0.0,0.31072998046875,-0.078857421875,0.16644287109375,-0.9324951171875,-0.0439453125,-0.63818359375,0.798828125,2.6875,-0.5,1.625
1.6799999999999862,-1.0,-3.0,2.0,0.0,-3.0,0.0,-1.0,0.0,0.31072998046875,-0.078857421875,0.16644287109375,-0.9324951171875,-0.0439453125,-0.63818359375,0.798828125,2.6875,-0.5,1.625
1.684999999999986,-1.0,1.0,3.0,-3.0,-6.0,0.0,-2.0,-1.0,0.31072998046875,-0.078857421875,0.16644287109375,-0.9324951171875,-0.0439453125,-0.63818359375,0.798828125,2.6875,-0.5,1.625
1.689999999999986,-1.0,1.0,3.0,-3.0,-6.0,0.0,-2.0,-1.0,0.31072998046875,-0.078857421875,0.16644287109375,-0.9324951171875,-0.0439453125,-0.63818359375,0.798828125,2.6875,-0.5,1.625
1.6949999999999859,1.0,1.0,0.0,-4.0,0.0,-2.0,0.0,-3.0,0.3099365234375,-0.07891845703125,0.166259765625,-0.93280029296875,-0.05078125,-0.61962890625,0.7939453125,5.3125,-0.0625,1.4375
1.6999999999999857,0.0,-5.0,-26.0,-16.0,-4.0,0.0,-1.0,1.0,0.3099365234375,-0.07891845703125,0.166259765625,-0.93280029296875,-0.05078125,-0.61962890625,0.7939453125,5.3125,-0.0625,1.4375
1.7049999999999856,0.0,-5.0,-26.0,-16.0,-4.0,0.0,-1.0,1.0,0.3099365234375,-0.07891845703125,0.166259765625,-0.93280029296875,-0.05078125,-0.61962890625,0.7939453125,5.3125,-0.0625,1.4375
1.7099999999999855,0.0,0.0,-3.0,-5.0,-3.0,0.0,-2.0,-2.0,0.3099365234375,-0.07891845703125,0.166259765625,-0.93280029296875,-0.05078125,-0.61962890625,0.7939453125,5.3125,-0.0625,1.4375
1.7149999999999854,-2.0,-1.0,8.0,4.0,-3.0,-2.0,-2.0,-2.0,0.30902099609375,-0.07879638671875,0.16619873046875,-0.93310546875,-0.04296875,-0.5908203125,0.80078125,4.6875,0.25,1.0625
1.7199999999999853,-2.0,-1.0,8.0,4.0,-3.0,-2.0,-2.0,-2.0,0.30902099609375,-0.07879638671875,0.16619873046875,-0.93310546875,-0.04296875,-0.5908203125,0.80078125,4.6875,0.25,1.0625
1.7249999999999852,-1.0,-3.0,-3.0,2.0,3.0,3.0,2.0,0.0,0.30865478515625,-0.0789794921875,0.16619873046875,-0.9332275390625,-0.04296875,-0.58203125,0.798828125,0.5625,1.3125,0.625
1.729999999999985,-1.0,-3.0,-3.0,2.0,3.0,3.0,2.0,0.0,0.30865478515625,-0.0789794921875,0.16619873046875,-0.9332275390625,-0.04296875,-0.58203125,0.798828125,0.5625,1.3125,0.625
1.734999999999985,-1.0,-3.0,-3.0,2.0,3.0,3.0,2.0,0.0,0.30865478515625,-0.0789794921875,0.16619873046875,-0.9332275390625,-0.04296875,-0.58203125,0.798828125,0.5625,1.3125,0.625
1.739999999999985,-1.0,-3.0,-3.0,2.0,3.0,3.0,2.0,0.0,0.30865478515625,-0.0789794921875,0.16619873046875,-0.9332275390625,-0.04296875,-0.58203125,0.798828125,0.5625,1.3125,0.625
1.7449999999999848,-1.0,2.0,4.0,4.0,-2.0,-2.0,-3.0,-2.0,0.30865478515625,-0.0789794921875,0.16619873046875,-0.9332275390625,-0.04296875,-0.58203125,0.798828125,0.5625,1.3125,0.625
1.7499999999999847,-1.0,2.0,4.0,4.0,-2.0,-2.0,-3.0,-2.0,0.30865478515625,-0.0789794921875,0.16619873046875,-0.9332275390625,-0.04296875,-0.58203125,0.798828125,0.5625,1.3125,0.625
1.7549999999999846,-3.0,-5.0,-29.0,-8.0,-6.0,-4.0,-3.0,-3.0,0.30926513671875,-0.079345703125,0.1661376953125,-0.9329833984375,-0.0537109375,-0.61669921875,0.80126953125,-3.625,0.75,0.0625
1.7599999999999845,-3.0,-5.0,-29.0,-8.0,-6.0,-4.0,-3.0,-3.0,0.30926513671875,-0.079345703125,0.1661376953125,-0.9329833984375,-0.0537109375,-0.61669921875,0.80126953125,-3.625,0.75,0.0625
1.7649999999999844,-2.0,-2.0,0.0,-8.0,-5.0,-2.0,-2.0,1.0,0.30926513671875,-0.079345703125,0.1661376953125,-0.9329833984375,-0.0537109375,-0.61669921875,0.80126953125,-3.625,0.75,0.0625
1.7699999999999843,-2.0,-1.0,1.0,2.0,1.0,-1.0,0.0,-2.0,0.30926513671875,-0.079345703125,0.1661376953125,-0.9329833984375,-0.0537109375,-0.61669921875,0.80126953125,-3.625,0.75,0.0625
1.7749999999999841,-2.0,-1.0,1.0,2.0,1.0,-1.0,0.0,-2.0,0.30926513671875,-0.079345703125,0.1661376953125,-0.9329833984375,-0.0537109375,-0.61669921875,0.80126953125,-3.625,0.75,0.0625
1.779999999999984,-2.0,-1.0,1.0,2.0,1.0,-1.0,0.0,-2.0,0.30987548828125,-0.0797119140625,0.16607666015625,-0.93280029296875,-0.05908203125,-0.61865234375,0.80078125,-3.5625,0.6875,-0.125
1.784999999999984,-2.0,-1.0,1.0,2.0,1.0,-1.0,0.0,-2.0,0.30987548828125,-0.0797119140625,0.16607666015625,-0.93280029296875,-0.05908203125,-0.61865234375,0.80078125,-3.5625,0.6875,-0.125
1.7899999999999838,1.0,-1.0,6.0,0.0,-2.0,-2.0,0.0,-1.0,0.30987548828125,-0.0797119140625,0.16607666015625,-0.93280029296875,-0.05908203125,-0.61865234375,0.80078125,-3.5625,0.6875,-0.125
1.7949999999999837,1.0,-1.0,6.0,0.0,-2.0,-2.0,0.0,-1.0,0.30987548828125,-0.0797119140625,0.16607666015625,-0.93280029296875,-0.05908203125,-0.61865234375,0.80078125,-3.5625,0.6875,-0.125
1.7999999999999836,1.0,-1.0,6.0,0.0,-2.0,-2.0,0.0,-1.0,0.30987548828125,-0.0797119140625,0.16607666015625,-0.93280029296875,-0.05908203125,-0.61865234375,0.80078125,-3.5625,0.6875,-0.125
1.8049999999999835,-2.0,-1.0,1.0,-8.0,-2.0,-1.0,-1.0,-2.0,0.3099365234375,-0.0797119140625,0.16607666015625,-0.9327392578125,-0.056640625,-0.62060546875,0.80224609375,-0.625,0.3125,0.0
1.8099999999999834,-2.0,-1.0,1.0,-8.0,-2.0,-1.0,-1.0,-2.0,0.3099365234375,-0.0797119140625,0.16607666015625,-0.9327392578125,-0.056640625,-0.62060546875,0.80224609375,-0.625,0.3125,0.0
1.8149999999999833,-2.0,-1.0,1.0,-8.0,-2.0,-1.0,-1.0,-2.0,0.3099365234375,-0.0797119140625,0.16607666015625,-0.9327392578125,-0.056640625,-0.62060546875,0.80224609375,-0.625,0.3125,0.0
1.8199999999999832,-1.0,1.0,-4.0,-1.0,0.0,-2.0,-1.0,0.0,0.3099365234375,-0.0797119140625,0.16607666015625,-0.9327392578125,-0.056640625,-0.62060546875,0.80224609375,-0.625,0.3125,0.0
1.824999999999983,-1.0,1.0,-4.0,-1.0,0.0,-2.0,-1.0,0.0,0.3099365234375,-0.0797119140625,0.16607666015625,-0.9327392578125,-0.056640625,-0.62060546875,0.80224609375,-0.625,0.3125,0.0
1.829999999999983,-1.0,1.0,-4.0,-1.0,0.0,-2.0,-1.0,0.0,0.3099365234375,-0.0797119140625,0.16607666015625,-0.9327392578125,-0.056640625,-0.62060546875,0.80224609375,-0.625,0.3125,0.0
1.8349999999999829,0.0,-2.0,-8.0,-13.0,2.0,0.0,-1.0,-2.0,0.309814453125,-0.079833984375,0.166259765625,-0.9327392578125,-0.05078125,-0.60888671875,0.8095703125,0.1875,0.5625,-1.0625
1.8399999999999828,0.0,-2.0,-8.0,-13.0,2.0,0.0,-1.0,-2.0,0.309814453125,-0.079833984375,0.166259765625,-0.9327392578125,-0.05078125,-0.60888671875,0.8095703125,0.1875,0.5625,-1.0625
1.8449999999999827,0.0,-2.0,-8.0,-13.0,2.0,0.0,-1.0,-2.0,0.309814453125,-0.079833984375,0.166259765625,-0.9327392578125,-0.05078125,-0.60888671875,0.8095703125,0.1875,0.5625,-1.0625
1.8499999999999825,0.0,-2.0,-8.0,-13.0,2.0,0.0,-1.0,-2.0,0.309814453125,-0.079833984375,0.166259765625,-0.9327392578125,-0.05078125,-0.60888671875,0.8095703125,0.1875,0.5625,-1.0625
1.8549999999999824,-1.0,0.0,6.0,4.0,-3.0,-2.0,-3.0,-1.0,0.309814453125,-0.079833984375,0.166259765625,-0.9327392578125,-0.05078125,-0.60888671875,0.8095703125,0.1875,0.5625,-1.0625
1.8599999999999823,-1.0,0.0,6.0,4.0,-3.0,-2.0,-3.0,-1.0,0.30963134765625,-0.0799560546875,0.16656494140625,-0.9327392578125,-0.06494140625,-0.5986328125,0.80322265625,0.0625,0.4375,-2.0625
1.8649999999999822,-1.0,0.0,6.0,4.0,-3.0,-2.0,-3.0,-1.0,0.30963134765625,-0.0799560546875,0.16656494140625,-0.9327392578125,-0.06494140625,-0.5986328125,0.80322265625,0.0625,0.4375,-2.0625
1.8699999999999821,0.0,-1.0,0.0,-2.0,-4.0,-1.0,-1.0,-1.0,0.30963134765625,-0.0799560546875,0.16656494140625,-0.9327392578125,-0.06494140625,-0.5986328125,0.80322265625,0.0625,0.4375,-2.0625
1.874999999999982,0.0,-1.0,0.0,-2.0,-4.0,-1.0,-1.0,-1.0,0.30963134765625,-0.0799560546875,0.16656494140625,-0.9327392578125,-0.06494140625,-0.5986328125,0.80322265625,0.0625,0.4375,-2.0625
1.879999999999982,0.0,-2.0,5.0,-1.0,-3.0,-2.0,1.0,1.0,0.30963134765625,-0.0799560546875,0.16656494140625,-0.9327392578125,-0.06494140625,-0.5986328125,0.80322265625,0.0625,0.4375,-2.0625
1.8849999999999818,0.0,-2.0,5.0,-1.0,-3.0,-2.0,1.0,1.0,0.3095703125,-0.080078125,0.166748046875,-0.9327392578125,-0.06103515625,-0.599609375,0.80615234375,-0.4375,0.375,-1.5625
1.8899999999999817,0.0,-2.0,5.0,-1.0,-3.0,-2.0,1.0,1.0,0.3095703125,-0.080078125,0.166748046875,-0.9327392578125,-0.06103515625,-0.599609375,0.80615234375,-0.4375,0.375,-1.5625
1.8949999999999816,0.0,-2.0,5.0,-1.0,-3.0,-2.0,1.0,1.0,0.3095703125,-0.080078125,0.166748046875,-0.9327392578125,-0.06103515625,-0.599609375,0.80615234375,-0.4375,0.375,-1.5625
1.8999999999999815,2.0,-2.0,2.0,7.0,-4.0,-3.0,-2.0,-1.0,0.3095703125,-0.080078125,0.166748046875,-0.9327392578125,-0.06103515625,-0.599609375,0.80615234375,-0.4375,0.375,-1.5625
1.9049999999999814,2.0,-2.0,2.0,7.0,-4.0,-3.0,-2.0,-1.0,0.3095703125,-0.080078125,0.166748046875,-0.9327392578125,-0.06103515625,-0.599609375,0.80615234375,-0.4375,0.375,-1.5625
1.9099999999999813,-2.0,-1.0,-18.0,-6.0,-4.0,0.0,-1.0,-2.0,0.3095703125,-0.080078125,0.166748046875,-0.9327392578125,-0.06103515625,-0.599609375,0.80615234375,-0.4375,0.375,-1.5625
1.9149999999999812,-2.0,-1.0,-18.0,-6.0,-4.0,0.0,-1.0,-2.0,0.309814453125,-0.080322265625,0.16693115234375,-0.9326171875,-0.06201171875,-0.61474609375,0.81640625,-2.125,0.5,-1.375
1.919999999999981,-2.0,-1.0,-18.0,-6.0,-4.0,0.0,-1.0,-2.0,0.309814453125,-0.080322265625,0.16693115234375,-0.9326171875,-0.06201171875,-0.61474609375,0.81640625,-2.125,0.5,-1.375
1.924999999999981,-2.0,-1.0,-18.0,-6.0,-4.0,0.0,-1.0,-2.0,0.309814453125,-0.080322265625,0.16693115234375,-0.9326171875,-0.06201171875,-0.61474609375,0.81640625,-2.125,0.5,-1.375
1.9299999999999808,0.0,1.0,9.0,6.0,-1.0,-2.0,-2.0,0.0,0.309814453125,-0.080322265625,0.16693115234375,-0.9326171875,-0.06201171875,-0.61474609375,0.81640625,-2.125,0.5,-1.375
1.9349999999999807,0.0,1.0,9.0,6.0,-1.0,-2.0,-2.0,0.0,0.309814453125,-0.080322265625,0.16693115234375,-0.9326171875,-0.06201171875,-0.61474609375,0.81640625,-2.125,0.5,-1.375
1.9399999999999806,0.0,1.0,9.0,6.0,-1.0,-2.0,-2.0,0.0,0.310302734375,-0.08050537109375,0.16705322265625,-0.932373046875,-0.05859375,-0.63525390625,0.81005859375,-2.25,0.0,-1.4375
1.9449999999999805,0.0,1.0,9.0,6.0,-1.0,-2.0,-2.0,0.0,0.310302734375,-0.08050537109375,0.16705322265625,-0.932373046875,-0.05859375,-0.63525390625,0.81005859375,-2.25,0.0,-1.4375
1.9499999999999804,-1.0,-1.0,2.0,-4.0,-2.0,0.0,-2.0,-1.0,0.310302734375,-0.08050537109375,0.16705322265625,-0.932373046875,-0.05859375,-0.63525390625,0.81005859375,-2.25,0.0,-1.4375
1.9549999999999803,-1.0,-1.0,2.0,-4.0,-2.0,0.0,-2.0,-1.0,0.310302734375,-0.08050537109375,0.16705322265625,-0.932373046875,-0.05859375,-0.63525390625,0.81005859375,-2.25,0.0,-1.4375
1.9599999999999802,-3.0,-1.0,19.0,14.0,1.0,0.0,0.0,-2.0,0.310302734375,-0.08062744140625,0.167236328125,-0.932373046875,-0.06201171875,-0.63818359375,0.80029296875,1.5,0.375,-1.1875
1.96499999999998,-3.0,-1.0,19.0,14.0,1.0,0.0,0.0,-2.0,0.310302734375,-0.08062744140625,0.167236328125,-0.932373046875,-0.06201171875,-0.63818359375,0.80029296875,1.5,0.375,-1.1875
1.96999999999998,-3.0,-1.0,19.0,14.0,1.0,0.0,0.0,-2.0,0.310302734375,-0.08062744140625,0.167236328125,-0.932373046875,-0.06201171875,-0.63818359375,0.80029296875,1.5,0.375,-1.1875
1.9749999999999799,-3.0,-1.0,19.0,14.0,1.0,0.0,0.0,-2.0,0.310302734375,-0.08062744140625,0.167236328125,-0.932373046875,-0.06201171875,-0.63818359375,0.80029296875,1.5,0.375,-1.1875
1.9799999999999798,0.0,-2.0,5.0,-5.0,-1.0,1.0,0.0,0.0,0.310302734375,-0.08062744140625,0.167236328125,-0.932373046875,-0.06201171875,-0.63818359375,0.80029296875,1.5,0.375,-1.1875
1.9849999999999797,0.0,-2.0,5.0,-5.0,-1.0,1.0,0.0,0.0,0.310302734375,-0.08062744140625,0.167236328125,-0.932373046875,-0.06201171875,-0.63818359375,0.80029296875,1.5,0.375,-1.1875
1.9899999999999796,-2.0,-1.0,-1.0,-5.0,-2.0,-3.0,-1.0,-2.0,0.30987548828125,-0.08074951171875,0.16741943359375,-0.93243408203125,-0.0576171875,-0.62353515625,0.806640625,2.875,0.5625,-1.25
1.9949999999999795,-2.0,-1.0,-1.0,-5.0,-2.0,-3.0,-1.0,-2.0,0.30987548828125,-0.08074951171875,0.16741943359375,-0.93243408203125,-0.0576171875,-0.62353515625,0.806640625,2.875,0.5625,-1.25
1.9999999999999793,-2.0,-1.0,-1.0,-5.0,-2.0,-3.0,-1.0,-2.0,0.30987548828125,-0.08074951171875,0.16741943359375,-0.93243408203125,-0.0576171875,-0.62353515625,0.806640625,2.875,0.5625,-1.25
2.0049999999999795,-2.0,-1.0,-1.0,-5.0,-2.0,-3.0,-1.0,-2.0,0.30987548828125,-0.08074951171875,0.16741943359375,-0.93243408203125,-0.0576171875,-0.62353515625,0.806640625,2.875,0.5625,-1.25
2.0099999999999794,-2.0,-1.0,-7.0,-1.0,3.0,-1.0,-2.0,-2.0,0.30987548828125,-0.08074951171875,0.16741943359375,-0.93243408203125,-0.0576171875,-0.62353515625,0.806640625,2.875,0.5625,-1.25
2.0149999999999793,-1.0,-4.0,-19.0,-7.0,1.0,-3.0,-2.0,-2.0,0.30987548828125,-0.08074951171875,0.16741943359375,-0.93243408203125,-0.0576171875,-0.62353515625,0.806640625,2.875,0.5625,-1.25
2.019999999999979,-1.0,-4.0,-19.0,-7.0,1.0,-3.0,-2.0,-2.0,0.3094482421875,-0.08074951171875,0.16766357421875,-0.93255615234375,-0.0576171875,-0.6123046875,0.8125,2.125,0.1875,-1.3125
2.024999999999979,-3.0,-2.0,-8.0,-5.0,-3.0,-3.0,-1.0,-2.0,0.3094482421875,-0.08074951171875,0.16766357421875,-0.93255615234375,-0.0576171875,-0.6123046875,0.8125,2.125,0.1875,-1.3125
2.029999999999979,-3.0,-2.0,-8.0,-5.0,-3.0,-3.0,-1.0,-2.0,0.3094482421875,-0.08074951171875,0.16766357421875,-0.93255615234375,-0.0576171875,-0.6123046875,0.8125,2.125,0.1875,-1.3125
2.034999999999979,-2.0,0.0,1.0,-4.0,-3.0,-1.0,-1.0,0.0,0.30999755859375,-0.08087158203125,0.1678466796875,-0.93231201171875,-0.05517578125,-0.630859375,0.7890625,-1.75,0.125,-1.5625
2.0399999999999787,-2.0,0.0,1.0,-4.0,-3.0,-1.0,-1.0,0.0,0.30999755859375,-0.08087158203125,0.1678466796875,-0.93231201171875,-0.05517578125,-0.630859375,0.7890625,-1.75,0.125,-1.5625
2.0449999999999786,-2.0,0.0,1.0,-4.0,-3.0,-1.0,-1.0,0.0,0.30999755859375,-0.08087158203125,0.1678466796875,-0.93231201171875,-0.05517578125,-0.630859375,0.7890625,-1.75,0.125,-1.5625
2.0499999999999785,0.0,3.0,3.0,4.0,2.0,1.0,0.0,0.0,0.30999755859375,-0.08087158203125,0.1678466796875,-0.93231201171875,-0.05517578125,-0.630859375,0.7890625,-1.75,0.125,-1.5625
2.0549999999999784,-1.0,-3.0,-15.0,-4.0,-4.0,-2.0,-2.0,-2.0,0.310546875,-0.08099365234375,0.16802978515625,-0.93206787109375,-0.0478515625,-0.64697265625,0.79638671875,-1.1875,0.3125,-1.125
2.0599999999999783,-1.0,-3.0,-15.0,-4.0,-4.0,-2.0,-2.0,-2.0,0.310546875,-0.08099365234375,0.16802978515625,-0.93206787109375,-0.0478515625,-0.64697265625,0.79638671875,-1.1875,0.3125,-1.125
2.064999999999978,-1.0,-3.0,-15.0,-4.0,-4.0,-2.0,-2.0,-2.0,0.310546875,-0.08099365234375,0.16802978515625,-0.93206787109375,-0.0478515625,-0.64697265625,0.79638671875,-1.1875,0.3125,-1.125
2.069999999999978,0.0,1.0,-2.0,2.0,2.0,0.0,1.0,1.0,0.310546875,-0.08099365234375,0.16802978515625,-0.93206787109375,-0.0478515625,-0.64697265625,0.79638671875,-1.1875,0.3125,-1.125
2.074999999999978,0.0,1.0,-2.0,2.0,2.0,0.0,1.0,1.0,0.31060791015625,-0.0810546875,0.168212890625,-0.9320068359375,-0.04541015625,-0.63330078125,0.7919921875,1.125,0.875,-0.8125
2.079999999999978,0.0,1.0,-2.0,2.0,2.0,0.0,1.0,1.0,0.31060791015625,-0.0810546875,0.168212890625,-0.9320068359375,-0.04541015625,-0.63330078125,0.7919921875,1.125,0.875,-0.8125
2.0849999999999778,-5.0,-2.0,4.0,1.0,-2.0,-3.0,-3.0,-1.0,0.31060791015625,-0.0810546875,0.168212890625,-0.9320068359375,-0.04541015625,-0.63330078125,0.7919921875,1.125,0.875,-0.8125
2.0899999999999777,-2.0,-4.0,-12.0,-4.0,-2.0,-2.0,-3.0,-2.0,0.31060791015625,-0.0810546875,0.168212890625,-0.9320068359375,-0.04541015625,-0.63330078125,0.7919921875,1.125,0.875,-0.8125
2.0949999999999775,-3.0,1.0,-4.0,-2.0,-1.0,-1.0,0.0,1.0,0.31060791015625,-0.0810546875,0.168212890625,-0.9320068359375,-0.04541015625,-0.63330078125,0.7919921875,1.125,0.875,-0.8125
2.0999999999999774,1.0,1.0,3.0,0.0,0.0,-1.0,-2.0,-1.0,0.31024169921875,-0.08123779296875,0.1683349609375,-0.93212890625,-0.0595703125,-0.6279296875,0.81005859375,2.6875,0.8125,-0.625
2.1049999999999773,1.0,1.0,3.0,0.0,0.0,-1.0,-2.0,-1.0,0.31024169921875,-0.08123779296875,0.1683349609375,-0.93212890625,-0.0595703125,-0.6279296875,0.81005859375,2.6875,0.8125,-0.625
2.1099999999999772,1.0,1.0,3.0,0.0,0.0,-1.0,-2.0,-1.0,0.31024169921875,-0.08123779296875,0.1683349609375,-0.93212890625,-0.0595703125,-0.6279296875,0.81005859375,2.6875,0.8125,-0.625
2.114999999999977,1.0,-1.0,-8.0,-3.0,-4.0,-2.0,-2.0,1.0,0.31024169921875,-0.08123779296875,0.1683349609375,-0.93212890625,-0.0595703125,-0.6279296875,0.81005859375,2.6875,0.8125,-0.625
2.119999999999977,1.0,-1.0,-8.0,-3.0,-4.0,-2.0,-2.0,1.0,0.31024169921875,-0.08123779296875,0.1683349609375,-0.93212890625,-0.0595703125,-0.6279296875,0.81005859375,2.6875,0.8125,-0.625
2.124999999999977,-1.0,-1.0,-3.0,0.0,-4.0,-2.0,0.0,-2.0,0.31024169921875,-0.08123779296875,0.1683349609375,-0.93212890625,-0.0595703125,-0.6279296875,0.81005859375,2.6875,0.8125,-0.625
2.129999999999977,0.0,1.0,8.0,4.0,-2.0,0.0,0.0,0.0,0.3096923828125,-0.081298828125,0.16839599609375,-0.93231201171875,-0.060546875,-0.60791015625,0.8037109375,2.8125,0.3125,-0.4375
2.1349999999999767,0.0,1.0,8.0,4.0,-2.0,0.0,0.0,0.0,0.3096923828125,-0.081298828125,0.16839599609375,-0.93231201171875,-0.060546875,-0.60791015625,0.8037109375,2.8125,0.3125,-0.4375
2.1399999999999766,-3.0,0.0,5.0,7.0,5.0,0.0,-1.0,-2.0,0.3096923828125,-0.081298828125,0.16839599609375,-0.93231201171875,-0.060546875,-0.60791015625,0.8037109375,2.8125,0.3125,-0.4375
2.1449999999999765,-3.0,0.0,5.0,7.0,5.0,0.0,-1.0,-2.0,0.3096923828125,-0.08135986328125,0.16839599609375,-0.9322509765625,-0.05322265625,-0.615234375,0.798828125,0.1875,0.0625,0.1875
2.1499999999999764,-2.0,-2.0,22.0,11.0,-3.0,-3.0,-2.0,-1.0,0.3096923828125,-0.08135986328125,0.16839599609375,-0.9322509765625,-0.05322265625,-0.615234375,0.798828125,0.1875,0.0625,0.1875
2.1549999999999763,-2.0,-2.0,22.0,11.0,-3.0,-3.0,-2.0,-1.0,0.3096923828125,-0.08135986328125,0.16839599609375,-0.9322509765625,-0.05322265625,-0.615234375,0.798828125,0.1875,0.0625,0.1875
2.159999999999976,-1.0,-2.0,5.0,0.0,-3.0,0.0,-2.0,-2.0,0.31011962890625,-0.08135986328125,0.16815185546875,-0.93218994140625,-0.0478515625,-0.6279296875,0.78271484375,-0.9375,-0.6875,1.0625
2.164999999999976,-1.0,-2.0,5.0,0.0,-3.0,0.0,-2.0,-2.0,0.31011962890625,-0.08135986328125,0.16815185546875,-0.93218994140625,-0.0478515625,-0.6279296875,0.78271484375,-0.9375,-0.6875,1.0625
2.169999999999976,-1.0,-2.0,5.0,0.0,-3.0,0.0,-2.0,-2.0,0.31011962890625,-0.08135986328125,0.16815185546875,-0.93218994140625,-0.0478515625,-0.6279296875,0.78271484375,-0.9375,-0.6875,1.0625
2.174999999999976,-3.0,-3.0,-21.0,-4.0,2.0,0.0,-3.0,-2.0,0.31011962890625,-0.08135986328125,0.16815185546875,-0.93218994140625,-0.0478515625,-0.6279296875,0.78271484375,-0.9375,-0.6875,1.0625
2.1799999999999757,-3.0,-3.0,-21.0,-4.0,2.0,0.0,-3.0,-2.0,0.31011962890625,-0.08135986328125,0.16815185546875,-0.93218994140625,-0.0478515625,-0.6279296875,0.78271484375,-0.9375,-0.6875,1.0625
2.1849999999999756,-2.0,0.0,-2.0,-3.0,0.0,-1.0,0.0,1.0,0.310546875,-0.08148193359375,0.1678466796875,-0.93206787109375,-0.05126953125,-0.64208984375,0.7880859375,-0.375,-0.4375,1.5
2.1899999999999755,-2.0,0.0,-2.0,-3.0,0.0,-1.0,0.0,1.0,0.310546875,-0.08148193359375,0.1678466796875,-0.93206787109375,-0.05126953125,-0.64208984375,0.7880859375,-0.375,-0.4375,1.5
2.1949999999999754,-2.0,0.0,-2.0,-3.0,0.0,-1.0,0.0,1.0,0.310546875,-0.08148193359375,0.1678466796875,-0.93206787109375,-0.05126953125,-0.64208984375,0.7880859375,-0.375,-0.4375,1.5
2.1999999999999753,-1.0,-2.0,-4.0,-4.0,-1.0,-1.0,-1.0,0.0,0.310546875,-0.08148193359375,0.1678466796875,-0.93206787109375,-0.05126953125,-0.64208984375,0.7880859375,-0.375,-0.4375,1.5
2.204999999999975,-1.0,-2.0,-4.0,-4.0,-1.0,-1.0,-1.0,0.0,0.3101806640625,-0.08172607421875,0.16748046875,-0.9322509765625,-0.0576171875,-0.62744140625,0.791015625,2.875,0.125,2.1875
2.209999999999975,-1.0,-1.0,-4.0,0.0,-2.0,0.0,-1.0,-1.0,0.3101806640625,-0.08172607421875,0.16748046875,-0.9322509765625,-0.0576171875,-0.62744140625,0.791015625,2.875,0.125,2.1875
2.214999999999975,-1.0,-1.0,-4.0,0.0,-2.0,0.0,-1.0,-1.0,0.3101806640625,-0.08172607421875,0.16748046875,-0.9322509765625,-0.0576171875,-0.62744140625,0.791015625,2.875,0.125,2.1875
2.219999999999975,1.0,-1.0,10.0,5.0,-3.0,-3.0,-1.0,-1.0,0.3101806640625,-0.08172607421875,0.16748046875,-0.9322509765625,-0.0576171875,-0.62744140625,0.791015625,2.875,0.125,2.1875
2.2249999999999748,1.0,-1.0,10.0,5.0,-3.0,-3.0,-1.0,-1.0,0.30987548828125,-0.08197021484375,0.1671142578125,-0.932373046875,-0.06201171875,-0.61376953125,0.80419921875,1.5625,0.1875,2.125
2.2299999999999747,1.0,-1.0,10.0,5.0,-3.0,-3.0,-1.0,-1.0,0.30987548828125,-0.08197021484375,0.1671142578125,-0.932373046875,-0.06201171875,-0.61376953125,0.80419921875,1.5625,0.1875,2.125
2.2349999999999746,1.0,-1.0,10.0,5.0,-3.0,-3.0,-1.0,-1.0,0.30987548828125,-0.08197021484375,0.1671142578125,-0.932373046875,-0.06201171875,-0.61376953125,0.80419921875,1.5625,0.1875,2.125
2.2399999999999745,-2.0,-3.0,-7.0,-7.0,-2.0,-1.0,0.0,-1.0,0.30987548828125,-0.08197021484375,0.1671142578125,-0.932373046875,-0.06201171875,-0.61376953125,0.80419921875,1.5625,0.1875,2.125
2.2449999999999743,-3.0,-3.0,1.0,3.0,-5.0,-4.0,-2.0,-3.0,0.30987548828125,-0.0821533203125,0.166748046875,-0.93243408203125,-0.0546875,-0.60400390625,0.80029296875,-0.875,0.125,2.3125
2.2499999999999742,-3.0,-3.0,1.0,3.0,-5.0,-4.0,-2.0,-3.0,0.30987548828125,-0.0821533203125,0.166748046875,-0.93243408203125,-0.0546875,-0.60400390625,0.80029296875,-0.875,0.125,2.3125
2.254999999999974,-3.0,-3.0,1.0,3.0,-5.0,-4.0,-2.0,-3.0,0.30987548828125,-0.0821533203125,0.166748046875,-0.93243408203125,-0.0546875,-0.60400390625,0.80029296875,-0.875,0.125,2.3125
2.259999999999974,-3.0,-3.0,1.0,3.0,-5.0,-4.0,-2.0,-3.0,0.30987548828125,-0.0821533203125,0.166748046875,-0.93243408203125,-0.0546875,-0.60400390625,0.80029296875,-0.875,0.125,2.3125
2.264999999999974,0.0,3.0,20.0,2.0,-4.0,-3.0,-2.0,0.0,0.30987548828125,-0.0821533203125,0.166748046875,-0.93243408203125,-0.0546875,-0.60400390625,0.80029296875,-0.875,0.125,2.3125
2.269999999999974,0.0,3.0,20.0,2.0,-4.0,-3.0,-2.0,0.0,0.31036376953125,-0.0823974609375,0.166259765625,-0.932373046875,-0.056640625,-0.62060546875,0.80224609375,-2.6875,-0.4375,2.5625
2.2749999999999737,0.0,3.0,20.0,2.0,-4.0,-3.0,-2.0,0.0,0.31036376953125,-0.0823974609375,0.166259765625,-0.932373046875,-0.056640625,-0.62060546875,0.80224609375,-2.6875,-0.4375,2.5625
2.2799999999999736,-2.0,-2.0,4.0,0.0,0.0,1.0,-1.0,-1.0,0.31036376953125,-0.0823974609375,0.166259765625,-0.932373046875,-0.056640625,-0.62060546875,0.80224609375,-2.6875,-0.4375,2.5625
2.2849999999999735,0.0,-1.0,-15.0,-6.0,-2.0,1.0,1.0,-1.0,0.31109619140625,-0.08258056640625,0.16571044921875,-0.93218994140625,-0.056640625,-0.64306640625,0.79833984375,-2.8125,-0.9375,2.625
2.2899999999999734,0.0,-1.0,-15.0,-6.0,-2.0,1.0,1.0,-1.0,0.31109619140625,-0.08258056640625,0.16571044921875,-0.93218994140625,-0.056640625,-0.64306640625,0.79833984375,-2.8125,-0.9375,2.625
2.2949999999999733,-1.0,-3.0,3.0,-2.0,-3.0,-1.0,-2.0,1.0,0.31109619140625,-0.08258056640625,0.16571044921875,-0.93218994140625,-0.056640625,-0.64306640625,0.79833984375,-2.8125,-0.9375,2.625
2.299999999999973,-1.0,-3.0,3.0,-2.0,-3.0,-1.0,-2.0,1.0,0.31109619140625,-0.08258056640625,0.16571044921875,-0.93218994140625,-0.056640625,-0.64306640625,0.79833984375,-2.8125,-0.9375,2.625
2.304999999999973,0.0,-2.0,-9.0,1.0,0.0,1.0,0.0,0.0,0.3109130859375,-0.082763671875,0.165283203125,-0.93231201171875,-0.05810546875,-0.6357421875,0.79443359375,2.3125,-0.125,2.5625
2.309999999999973,0.0,-2.0,-9.0,1.0,0.0,1.0,0.0,0.0,0.3109130859375,-0.082763671875,0.165283203125,-0.93231201171875,-0.05810546875,-0.6357421875,0.79443359375,2.3125,-0.125,2.5625
2.314999999999973,0.0,-2.0,-9.0,1.0,0.0,1.0,0.0,0.0,0.3109130859375,-0.082763671875,0.165283203125,-0.93231201171875,-0.05810546875,-0.6357421875,0.79443359375,2.3125,-0.125,2.5625
2.3199999999999728,0.0,-2.0,-9.0,1.0,0.0,1.0,0.0,0.0,0.3109130859375,-0.082763671875,0.165283203125,-0.93231201171875,-0.05810546875,-0.6357421875,0.79443359375,2.3125,-0.125,2.5625
2.3249999999999726,-1.0,-1.0,8.0,-6.0,-2.0,-1.0,-1.0,-1.0,0.3109130859375,-0.082763671875,0.165283203125,-0.93231201171875,-0.05810546875,-0.6357421875,0.79443359375,2.3125,-0.125,2.5625
2.3299999999999725,-1.0,-1.0,8.0,-6.0,-2.0,-1.0,-1.0,-1.0,0.31005859375,-0.082763671875,0.1650390625,-0.9326171875,-0.05517578125,-0.6083984375,0.81396484375,3.9375,0.25,1.8125
2.3349999999999724,-1.0,-1.0,8.0,-6.0,-2.0,-1.0,-1.0,-1.0,0.31005859375,-0.082763671875,0.1650390625,-0.9326171875,-0.05517578125,-0.6083984375,0.81396484375,3.9375,0.25,1.8125
2.3399999999999723,-1.0,-1.0,8.0,-6.0,-2.0,-1.0,-1.0,-1.0,0.31005859375,-0.082763671875,0.1650390625,-0.9326171875,-0.05517578125,-0.6083984375,0.81396484375,3.9375,0.25,1.8125
2.344999999999972,0.0,1.0,6.0,2.0,-4.0,-3.0,-1.0,-3.0,0.31005859375,-0.082763671875,0.1650390625,-0.9326171875,-0.05517578125,-0.6083984375,0.81396484375,3.9375,0.25,1.8125
2.349999999999972,0.0,1.0,6.0,2.0,-4.0,-3.0,-1.0,-3.0,0.31005859375,-0.082763671875,0.1650390625,-0.9326171875,-0.05517578125,-0.6083984375,0.81396484375,3.9375,0.25,1.8125
2.354999999999972,-1.0,-3.0,0.0,-1.0,16.0,4.0,1.0,1.0,0.31005859375,-0.082763671875,0.1650390625,-0.9326171875,-0.05517578125,-0.6083984375,0.81396484375,3.9375,0.25,1.8125
2.359999999999972,-1.0,-3.0,0.0,-1.0,16.0,4.0,1.0,1.0,0.31005859375,-0.082763671875,0.1650390625,-0.9326171875,-0.05517578125,-0.6083984375,0.81396484375,3.9375,0.25,1.8125
2.364999999999972,-1.0,-3.0,0.0,-1.0,16.0,4.0,1.0,1.0,0.309814453125,-0.0828857421875,0.164794921875,-0.9327392578125,-0.06005859375,-0.595703125,0.8076171875,0.4375,-0.125,1.1875
2.3699999999999717,-1.0,3.0,4.0,-3.0,2.0,1.0,-2.0,-1.0,0.309814453125,-0.0828857421875,0.164794921875,-0.9327392578125,-0.06005859375,-0.595703125,0.8076171875,0.4375,-0.125,1.1875
2.3749999999999716,-1.0,3.0,4.0,-3.0,2.0,1.0,-2.0,-1.0,0.309814453125,-0.0828857421875,0.164794921875,-0.9327392578125,-0.06005859375,-0.595703125,0.8076171875,0.4375,-0.125,1.1875
2.3799999999999715,-1.0,3.0,4.0,-3.0,2.0,1.0,-2.0,-1.0,0.309814453125,-0.0828857421875,0.164794921875,-0.9327392578125,-0.06005859375,-0.595703125,0.8076171875,0.4375,-0.125,1.1875
2.3849999999999714,0.0,0.0,-12.0,-4.0,-7.0,-1.0,-1.0,0.0,0.3101806640625,-0.08294677734375,0.16461181640625,-0.9326171875,-0.05615234375,-0.603515625,0.8017578125,-3.1875,-0.4375,0.75
2.3899999999999713,0.0,0.0,-12.0,-4.0,-7.0,-1.0,-1.0,0.0,0.3101806640625,-0.08294677734375,0.16461181640625,-0.9326171875,-0.05615234375,-0.603515625,0.8017578125,-3.1875,-0.4375,0.75
2.394999999999971,0.0,0.0,-12.0,-4.0,-7.0,-1.0,-1.0,0.0,0.3101806640625,-0.08294677734375,0.16461181640625,-0.9326171875,-0.05615234375,-0.603515625,0.8017578125,-3.1875,-0.4375,0.75
2.399999999999971,0.0,0.0,-12.0,-4.0,-7.0,-1.0,-1.0,0.0,0.3101806640625,-0.08294677734375,0.16461181640625,-0.9326171875,-0.05615234375,-0.603515625,0.8017578125,-3.1875,-0.4375,0.75
2.404999999999971,-2.0,-1.0,-6.0,-12.0,-4.0,-1.0,1.0,1.0,0.3101806640625,-0.08294677734375,0.16461181640625,-0.9326171875,-0.05615234375,-0.603515625,0.8017578125,-3.1875,-0.4375,0.75
2.409999999999971,-2.0,-1.0,-6.0,-12.0,-4.0,-1.0,1.0,1.0,0.3101806640625,-0.08294677734375,0.16461181640625,-0.9326171875,-0.05615234375,-0.603515625,0.8017578125,-3.1875,-0.4375,0.75
2.4149999999999707,-2.0,-1.0,-6.0,-12.0,-4.0,-1.0,1.0,1.0,0.31085205078125,-0.08306884765625,0.1644287109375,-0.93243408203125,-0.05126953125,-0.63720703125,0.80419921875,-2.6875,-0.3125,0.8125
2.4199999999999706,-3.0,-4.0,-17.0,-8.0,-2.0,-3.0,-1.0,-2.0,0.31085205078125,-0.08306884765625,0.1644287109375,-0.93243408203125,-0.05126953125,-0.63720703125,0.80419921875,-2.6875,-0.3125,0.8125
2.4249999999999705,-3.0,-4.0,-17.0,-8.0,-2.0,-3.0,-1.0,-2.0,0.31085205078125,-0.08306884765625,0.1644287109375,-0.93243408203125,-0.05126953125,-0.63720703125,0.80419921875,-2.6875,-0.3125,0.8125
2.4299999999999704,-3.0,-1.0,-1.0,-1.0,-6.0,-4.0,-3.0,-2.0,0.31085205078125,-0.08306884765625,0.1644287109375,-0.93243408203125,-0.05126953125,-0.63720703125,0.80419921875,-2.6875,-0.3125,0.8125
2.4349999999999703,-3.0,-1.0,-1.0,-1.0,-6.0,-4.0,-3.0,-2.0,0.31085205078125,-0.08306884765625,0.1644287109375,-0.93243408203125,-0.05126953125,-0.63720703125,0.80419921875,-2.6875,-0.3125,0.8125
2.43999999999997,-3.0,-1.0,-1.0,-1.0,-6.0,-4.0,-3.0,-2.0,0.3109130859375,-0.08306884765625,0.1644287109375,-0.93243408203125,-0.0576171875,-0.640625,0.80224609375,-0.6875,0.5625,0.5
2.44499999999997,-3.0,-1.0,-1.0,-1.0,-6.0,-4.0,-3.0,-2.0,0.3109130859375,-0.08306884765625,0.1644287109375,-0.93243408203125,-0.0576171875,-0.640625,0.80224609375,-0.6875,0.5625,0.5
2.44999999999997,0.0,1.0,-1.0,-4.0,-2.0,0.0,-1.0,0.0,0.3109130859375,-0.08306884765625,0.1644287109375,-0.93243408203125,-0.0576171875,-0.640625,0.80224609375,-0.6875,0.5625,0.5
2.45499999999997,0.0,1.0,-1.0,-4.0,-2.0,0.0,-1.0,0.0,0.3109130859375,-0.08306884765625,0.1644287109375,-0.93243408203125,-0.0576171875,-0.640625,0.80224609375,-0.6875,0.5625,0.5
2.4599999999999698,-1.0,-1.0,8.0,5.0,-5.0,-3.0,0.0,-1.0,0.3109130859375,-0.08306884765625,0.1644287109375,-0.93243408203125,-0.0576171875,-0.640625,0.80224609375,-0.6875,0.5625,0.5
2.4649999999999697,-1.0,-1.0,8.0,5.0,-5.0,-3.0,0.0,-1.0,0.31036376953125,-0.0831298828125,0.1644287109375,-0.9326171875,-0.06005859375,-0.611328125,0.8076171875,2.5625,0.375,0.25
2.4699999999999696,-1.0,-1.0,8.0,5.0,-5.0,-3.0,0.0,-1.0,0.31036376953125,-0.0831298828125,0.1644287109375,-0.9326171875,-0.06005859375,-0.611328125,0.8076171875,2.5625,0.375,0.25
2.4749999999999694,-1.0,-1.0,8.0,5.0,-5.0,-3.0,0.0,-1.0,0.31036376953125,-0.0831298828125,0.1644287109375,-0.9326171875,-0.06005859375,-0.611328125,0.8076171875,2.5625,0.375,0.25
2.4799999999999693,-1.0,0.0,-5.0,-8.0,-3.0,-1.0,-1.0,2.0,0.31036376953125,-0.0831298828125,0.1644287109375,-0.9326171875,-0.06005859375,-0.611328125,0.8076171875,2.5625,0.375,0.25
2.4849999999999692,-3.0,1.0,10.0,4.0,-3.0,-1.0,-1.0,-2.0,0.31036376953125,-0.0831298828125,0.1644287109375,-0.9326171875,-0.06005859375,-0.611328125,0.8076171875,2.5625,0.375,0.25
2.489999999999969,-3.0,1.0,10.0,4.0,-3.0,-1.0,-1.0,-2.0,0.310302734375,-0.0831298828125,0.1644287109375,-0.9326171875,-0.0537109375,-0.59765625,0.81396484375,0.8125,0.5625,-0.125
2.494999999999969,-3.0,1.0,10.0,4.0,-3.0,-1.0,-1.0,-2.0,0.310302734375,-0.0831298828125,0.1644287109375,-0.9326171875,-0.0537109375,-0.59765625,0.81396484375,0.8125,0.5625,-0.125
2.499999999999969,-2.0,0.0,-9.0,0.0,1.0,0.0,-2.0,0.0,0.310302734375,-0.0831298828125,0.1644287109375,-0.9326171875,-0.0537109375,-0.59765625,0.81396484375,0.8125,0.5625,-0.125
2.504999999999969,-2.0,0.0,-9.0,0.0,1.0,0.0,-2.0,0.0,0.310302734375,-0.0831298828125,0.1644287109375,-0.9326171875,-0.0537109375,-0.59765625,0.81396484375,0.8125,0.5625,-0.125
2.5099999999999687,-1.0,1.0,-11.0,-5.0,0.0,-2.0,-2.0,-2.0,0.310302734375,-0.0831298828125,0.1644287109375,-0.9326171875,-0.0537109375,-0.59765625,0.81396484375,0.8125,0.5625,-0.125
2.5149999999999686,-1.0,1.0,-11.0,-5.0,0.0,-2.0,-2.0,-2.0,0.310302734375,-0.0831298828125,0.1644287109375,-0.9326171875,-0.0537109375,-0.59765625,0.81396484375,0.8125,0.5625,-0.125
2.5199999999999685,-1.0,1.0,-11.0,-5.0,0.0,-2.0,-2.0,-2.0,0.31036376953125,-0.083251953125,0.1644287109375,-0.9326171875,-0.0537109375,-0.60595703125,0.8134765625,-1.4375,0.6875,0.25
2.5249999999999684,-1.0,1.0,-11.0,-5.0,0.0,-2.0,-2.0,-2.0,0.31036376953125,-0.083251953125,0.1644287109375,-0.9326171875,-0.0537109375,-0.60595703125,0.8134765625,-1.4375,0.6875,0.25
2.5299999999999683,-1.0,-2.0,11.0,-1.0,1.0,-1.0,0.0,0.0,0.31036376953125,-0.083251953125,0.1644287109375,-0.9326171875,-0.0537109375,-0.60595703125,0.8134765625,-1.4375,0.6875,0.25
2.534999999999968,-1.0,-2.0,11.0,-1.0,1.0,-1.0,0.0,0.0,0.31036376953125,-0.083251953125,0.1644287109375,-0.9326171875,-0.0537109375,-0.60595703125,0.8134765625,-1.4375,0.6875,0.25
2.539999999999968,0.0,3.0,3.0,14.0,0.0,-2.0,0.0,0.0,0.31085205078125,-0.08343505859375,0.164306640625,-0.93243408203125,-0.0546875,-0.6240234375,0.8017578125,-2.6875,0.375,0.5625
2.544999999999968,0.0,3.0,3.0,14.0,0.0,-2.0,0.0,0.0,0.31085205078125,-0.08343505859375,0.164306640625,-0.93243408203125,-0.0546875,-0.6240234375,0.8017578125,-2.6875,0.375,0.5625
2.549999999999968,0.0,3.0,3.0,14.0,0.0,-2.0,0.0,0.0,0.31085205078125,-0.08343505859375,0.164306640625,-0.93243408203125,-0.0546875,-0.6240234375,0.8017578125,-2.6875,0.375,0.5625
2.5549999999999677,0.0,3.0,3.0,14.0,0.0,-2.0,0.0,0.0,0.31085205078125,-0.08343505859375,0.164306640625,-0.93243408203125,-0.0546875,-0.6240234375,0.8017578125,-2.6875,0.375,0.5625
2.5599999999999676,-1.0,-3.0,4.0,-1.0,0.0,-3.0,-2.0,-2.0,0.31085205078125,-0.08343505859375,0.164306640625,-0.93243408203125,-0.0546875,-0.6240234375,0.8017578125,-2.6875,0.375,0.5625
2.5649999999999675,-1.0,-3.0,4.0,-1.0,0.0,-3.0,-2.0,-2.0,0.31121826171875,-0.0836181640625,0.1641845703125,-0.93231201171875,-0.05615234375,-0.630859375,0.798828125,-1.375,0.0625,0.5625
2.5699999999999674,-1.0,-3.0,4.0,-1.0,0.0,-3.0,-2.0,-2.0,0.31121826171875,-0.0836181640625,0.1641845703125,-0.93231201171875,-0.05615234375,-0.630859375,0.798828125,-1.375,0.0625,0.5625
2.5749999999999673,-1.0,-3.0,4.0,-1.0,0.0,-3.0,-2.0,-2.0,0.31121826171875,-0.0836181640625,0.1641845703125,-0.93231201171875,-0.05615234375,-0.630859375,0.798828125,-1.375,0.0625,0.5625
2.579999999999967,-1.0,-1.0,2.0,-2.0,-1.0,-2.0,-2.0,-1.0,0.31121826171875,-0.0836181640625,0.1641845703125,-0.93231201171875,-0.05615234375,-0.630859375,0.798828125,-1.375,0.0625,0.5625
2.584999999999967,-1.0,-4.0,-19.0,-6.0,1.0,0.0,0.0,-1.0,0.31121826171875,-0.0836181640625,0.1641845703125,-0.93231201171875,-0.05615234375,-0.630859375,0.798828125,-1.375,0.0625,0.5625
2.589999999999967,-1.0,-4.0,-19.0,-6.0,1.0,0.0,0.0,-1.0,0.31121826171875,-0.0836181640625,0.1641845703125,-0.93231201171875,-0.05615234375,-0.630859375,0.798828125,-1.375,0.0625,0.5625
2.594999999999967,-1.0,-4.0,-19.0,-6.0,1.0,0.0,0.0,-1.0,0.31109619140625,-0.083740234375,0.1641845703125,-0.932373046875,-0.05517578125,-0.62353515625,0.8037109375,1.25,0.75,0.375
2.599999999999967,-1.0,1.0,-3.0,-5.0,0.0,1.0,-2.0,1.0,0.31109619140625,-0.083740234375,0.1641845703125,-0.932373046875,-0.05517578125,-0.62353515625,0.8037109375,1.25,0.75,0.375
2.6049999999999667,-1.0,1.0,-3.0,-5.0,0.0,1.0,-2.0,1.0,0.31109619140625,-0.083740234375,0.1641845703125,-0.932373046875,-0.05517578125,-0.62353515625,0.8037109375,1.25,0.75,0.375
2.6099999999999666,-2.0,-1.0,5.0,-3.0,-3.0,0.0,-1.0,1.0,0.310546875,-0.08392333984375,0.1641845703125,-0.93255615234375,-0.06005859375,-0.60498046875,0.81298828125,1.9375,1.3125,0.375
2.6149999999999665,-2.0,-1.0,5.0,-3.0,-3.0,0.0,-1.0,1.0,0.310546875,-0.08392333984375,0.1641845703125,-0.93255615234375,-0.06005859375,-0.60498046875,0.81298828125,1.9375,1.3125,0.375
2.6199999999999664,-1.0,-2.0,3.0,-1.0,6.0,1.0,-2.0,-2.0,0.310546875,-0.08392333984375,0.1641845703125,-0.93255615234375,-0.06005859375,-0.60498046875,0.81298828125,1.9375,1.3125,0.375
2.6249999999999662,-1.0,-2.0,-3.0,-7.0,-1.0,-1.0,-3.0,0.0,0.310546875,-0.08392333984375,0.1641845703125,-0.93255615234375,-0.06005859375,-0.60498046875,0.81298828125,1.9375,1.3125,0.375
2.629999999999966,-1.0,-2.0,-3.0,-7.0,-1.0,-1.0,-3.0,0.0,0.310302734375,-0.084228515625,0.1641845703125,-0.93255615234375,-0.0634765625,-0.6044921875,0.802734375,0.3125,1.25,0.25
2.634999999999966,-1.0,-2.0,-3.0,-7.0,-1.0,-1.0,-3.0,0.0,0.310302734375,-0.084228515625,0.1641845703125,-0.93255615234375,-0.0634765625,-0.6044921875,0.802734375,0.3125,1.25,0.25
2.639999999999966,2.0,2.0,-1.0,7.0,-1.0,-1.0,0.0,1.0,0.310302734375,-0.084228515625,0.1641845703125,-0.93255615234375,-0.0634765625,-0.6044921875,0.802734375,0.3125,1.25,0.25
2.644999999999966,2.0,2.0,-1.0,7.0,-1.0,-1.0,0.0,1.0,0.310302734375,-0.084228515625,0.1641845703125,-0.93255615234375,-0.0634765625,-0.6044921875,0.802734375,0.3125,1.25,0.25
2.6499999999999657,0.0,-2.0,-5.0,-2.0,1.0,0.0,1.0,-1.0,0.310302734375,-0.084228515625,0.1641845703125,-0.93255615234375,-0.0634765625,-0.6044921875,0.802734375,0.3125,1.25,0.25
2.6549999999999656,0.0,-2.0,-5.0,-2.0,1.0,0.0,1.0,-1.0,0.310302734375,-0.084228515625,0.1641845703125,-0.93255615234375,-0.0634765625,-0.6044921875,0.802734375,0.3125,1.25,0.25
2.6599999999999655,0.0,-2.0,-5.0,-2.0,1.0,0.0,1.0,-1.0,0.310302734375,-0.084228515625,0.1641845703125,-0.93255615234375,-0.0634765625,-0.6044921875,0.802734375,0.3125,1.25,0.25
2.6649999999999654,0.0,-2.0,-5.0,-2.0,1.0,0.0,1.0,-1.0,0.31036376953125,-0.084228515625,0.1641845703125,-0.93255615234375,-0.0625,-0.626953125,0.8076171875,-0.4375,0.5625,0.25
2.6699999999999653,0.0,1.0,2.0,-4.0,1.0,-3.0,-2.0,0.0,0.31036376953125,-0.084228515625,0.1641845703125,-0.93255615234375,-0.0625,-0.626953125,0.8076171875,-0.4375,0.5625,0.25
2.674999999999965,0.0,1.0,7.0,2.0,-4.0,-1.0,-1.0,0.0,0.31036376953125,-0.084228515625,0.1641845703125,-0.93255615234375,-0.0625,-0.626953125,0.8076171875,-0.4375,0.5625,0.25
2.679999999999965,0.0,1.0,7.0,2.0,-4.0,-1.0,-1.0,0.0,0.31024169921875,-0.08428955078125,0.1641845703125,-0.93255615234375,-0.05859375,-0.6298828125,0.80224609375,1.3125,0.1875,0.0625
2.684999999999965,0.0,1.0,7.0,2.0,-4.0,-1.0,-1.0,0.0,0.31024169921875,-0.08428955078125,0.1641845703125,-0.93255615234375,-0.05859375,-0.6298828125,0.80224609375,1.3125,0.1875,0.0625
2.689999999999965,0.0,1.0,7.0,2.0,-4.0,-1.0,-1.0,0.0,0.31024169921875,-0.08428955078125,0.1641845703125,-0.93255615234375,-0.05859375,-0.6298828125,0.80224609375,1.3125,0.1875,0.0625
2.6949999999999648,0.0,-3.0,-23.0,-10.0,-1.0,1.0,0.0,-1.0,0.31024169921875,-0.08428955078125,0.1641845703125,-0.93255615234375,-0.05859375,-0.6298828125,0.80224609375,1.3125,0.1875,0.0625
2.6999999999999647,0.0,-3.0,-23.0,-10.0,-1.0,1.0,0.0,-1.0,0.30975341796875,-0.0843505859375,0.16424560546875,-0.9327392578125,-0.0625,-0.62158203125,0.80517578125,3.4375,0.6875,0.0
2.7049999999999645,1.0,1.0,9.0,6.0,5.0,1.0,1.0,2.0,0.30975341796875,-0.0843505859375,0.16424560546875,-0.9327392578125,-0.0625,-0.62158203125,0.80517578125,3.4375,0.6875,0.0
2.7099999999999644,-2.0,-3.0,6.0,1.0,-5.0,-4.0,-4.0,-2.0,0.30975341796875,-0.0843505859375,0.16424560546875,-0.9327392578125,-0.0625,-0.62158203125,0.80517578125,3.4375,0.6875,0.0
2.7149999999999643,-2.0,-3.0,6.0,1.0,-5.0,-4.0,-4.0,-2.0,0.30975341796875,-0.0843505859375,0.16424560546875,-0.9327392578125,-0.0625,-0.62158203125,0.80517578125,3.4375,0.6875,0.0
2.7199999999999642,-2.0,-3.0,6.0,1.0,-5.0,-4.0,-4.0,-2.0,0.30975341796875,-0.0843505859375,0.16424560546875,-0.9327392578125,-0.0625,-0.62158203125,0.80517578125,3.4375,0.6875,0.0
2.724999999999964,-2.0,-5.0,-11.0,-7.0,-1.0,-2.0,-2.0,-1.0,0.30926513671875,-0.08447265625,0.16436767578125,-0.932861328125,-0.0615234375,-0.60302734375,0.79736328125,2.375,0.8125,-0.5625
2.729999999999964,-2.0,-5.0,-11.0,-7.0,-1.0,-2.0,-2.0,-1.0,0.30926513671875,-0.08447265625,0.16436767578125,-0.932861328125,-0.0615234375,-0.60302734375,0.79736328125,2.375,0.8125,-0.5625
2.734999999999964,-2.0,-3.0,2.0,-1.0,-2.0,0.0,0.0,0.0,0.30926513671875,-0.08447265625,0.16436767578125,-0.932861328125,-0.0615234375,-0.60302734375,0.79736328125,2.375,0.8125,-0.5625
2.739999999999964,-2.0,-3.0,2.0,-1.0,-2.0,0.0,0.0,0.0,0.30926513671875,-0.08447265625,0.16436767578125,-0.932861328125,-0.0615234375,-0.60302734375,0.79736328125,2.375,0.8125,-0.5625
2.7449999999999637,0.0,2.0,12.0,7.0,6.0,1.0,0.0,-1.0,0.3092041015625,-0.0845947265625,0.16455078125,-0.932861328125,-0.05126953125,-0.6015625,0.79638671875,0.0,1.25,-0.5
2.7499999999999636,0.0,2.0,12.0,7.0,6.0,1.0,0.0,-1.0,0.3092041015625,-0.0845947265625,0.16455078125,-0.932861328125,-0.05126953125,-0.6015625,0.79638671875,0.0,1.25,-0.5
2.7549999999999635,-2.0,-1.0,2.0,1.0,-1.0,-2.0,1.0,-3.0,0.3092041015625,-0.0845947265625,0.16455078125,-0.932861328125,-0.05126953125,-0.6015625,0.79638671875,0.0,1.25,-0.5
2.7599999999999634,-2.0,-1.0,2.0,1.0,-1.0,-2.0,1.0,-3.0,0.3092041015625,-0.0845947265625,0.16455078125,-0.932861328125,-0.05126953125,-0.6015625,0.79638671875,0.0,1.25,-0.5
2.7649999999999633,-1.0,1.0,-3.0,-2.0,2.0,0.0,0.0,1.0,0.30950927734375,-0.08477783203125,0.16461181640625,-0.93267822265625,-0.05908203125,-0.6142578125,0.79345703125,-1.8125,0.75,-0.4375
2.769999999999963,-1.0,1.0,-3.0,-2.0,2.0,0.0,0.0,1.0,0.30950927734375,-0.08477783203125,0.16461181640625,-0.93267822265625,-0.05908203125,-0.6142578125,0.79345703125,-1.8125,0.75,-0.4375
2.774999999999963,0.0,-1.0,4.0,-5.0,2.0,0.0,-1.0,-1.0,0.30950927734375,-0.08477783203125,0.16461181640625,-0.93267822265625,-0.05908203125,-0.6142578125,0.79345703125,-1.8125,0.75,-0.4375
2.779999999999963,-1.0,-1.0,6.0,2.0,-3.0,-3.0,-3.0,-2.0,0.30950927734375,-0.08477783203125,0.16461181640625,-0.93267822265625,-0.05908203125,-0.6142578125,0.79345703125,-1.8125,0.75,-0.4375
2.784999999999963,-1.0,-1.0,6.0,2.0,-3.0,-3.0,-3.0,-2.0,0.30950927734375,-0.08477783203125,0.16461181640625,-0.93267822265625,-0.05908203125,-0.6142578125,0.79345703125,-1.8125,0.75,-0.4375
2.7899999999999627,-1.0,-1.0,6.0,2.0,-3.0,-3.0,-3.0,-2.0,0.3099365234375,-0.0849609375,0.16461181640625,-0.93255615234375,-0.0595703125,-0.6259765625,0.79296875,-1.375,0.5625,0.0
2.7949999999999626,-1.0,-1.0,6.0,2.0,-3.0,-3.0,-3.0,-2.0,0.3099365234375,-0.0849609375,0.16461181640625,-0.93255615234375,-0.0595703125,-0.6259765625,0.79296875,-1.375,0.5625,0.0
2.7999999999999625,0.0,-1.0,-14.0,-5.0,-5.0,-2.0,-1.0,1.0,0.3099365234375,-0.0849609375,0.16461181640625,-0.93255615234375,-0.0595703125,-0.6259765625,0.79296875,-1.375,0.5625,0.0
2.8049999999999624,0.0,-1.0,-14.0,-5.0,-5.0,-2.0,-1.0,1.0,0.3099365234375,-0.0849609375,0.16461181640625,-0.93255615234375,-0.0595703125,-0.6259765625,0.79296875,-1.375,0.5625,0.0
2.8099999999999623,-1.0,-1.0,19.0,6.0,-1.0,-1.0,-2.0,-3.0,0.3099365234375,-0.0849609375,0.16461181640625,-0.93255615234375,-0.0595703125,-0.6259765625,0.79296875,-1.375,0.5625,0.0
2.814999999999962,-1.0,1.0,8.0,3.0,0.0,-1.0,-1.0,-1.0,0.3099365234375,-0.0849609375,0.16461181640625,-0.93255615234375,-0.0595703125,-0.6259765625,0.79296875,-1.375,0.5625,0.0
2.819999999999962,-1.0,1.0,8.0,3.0,0.0,-1.0,-1.0,-1.0,0.3099365234375,-0.08502197265625,0.16461181640625,-0.93255615234375,-0.06494140625,-0.623046875,0.802734375,0.625,0.4375,0.4375
2.824999999999962,0.0,-1.0,-5.0,-1.0,-1.0,-2.0,-3.0,-1.0,0.3099365234375,-0.08502197265625,0.16461181640625,-0.93255615234375,-0.06494140625,-0.623046875,0.802734375,0.625,0.4375,0.4375
2.829999999999962,0.0,-1.0,-5.0,-1.0,-1.0,-2.0,-3.0,-1.0,0.3099365234375,-0.08502197265625,0.16461181640625,-0.93255615234375,-0.06494140625,-0.623046875,0.802734375,0.625,0.4375,0.4375
2.8349999999999618,0.0,-3.0,-8.0,-4.0,-5.0,-3.0,-3.0,-1.0,0.3099365234375,-0.08502197265625,0.16461181640625,-0.93255615234375,-0.05517578125,-0.61181640625,0.802734375,0.4375,0.5625,0.375
2.8399999999999617,0.0,-3.0,-8.0,-4.0,-5.0,-3.0,-3.0,-1.0,0.3099365234375,-0.08502197265625,0.16461181640625,-0.93255615234375,-0.05517578125,-0.61181640625,0.802734375,0.4375,0.5625,0.375
2.8449999999999616,-3.0,0.0,-7.0,2.0,-1.0,-3.0,-2.0,-1.0,0.3099365234375,-0.08502197265625,0.16461181640625,-0.93255615234375,-0.05517578125,-0.61181640625,0.802734375,0.4375,0.5625,0.375
2.8499999999999615,-2.0,-1.0,2.0,1.0,-4.0,-3.0,-1.0,-3.0,0.3099365234375,-0.08502197265625,0.16461181640625,-0.93255615234375,-0.05517578125,-0.61181640625,0.802734375,0.4375,0.5625,0.375
2.8549999999999613,-2.0,-1.0,2.0,1.0,-4.0,-3.0,-1.0,-3.0,0.3099365234375,-0.08502197265625,0.16461181640625,-0.93255615234375,-0.05517578125,-0.61181640625,0.802734375,0.4375,0.5625,0.375
2.8599999999999612,-2.0,-1.0,2.0,1.0,-4.0,-3.0,-1.0,-3.0,0.3099365234375,-0.0849609375,0.16461181640625,-0.93255615234375,-0.05615234375,-0.6142578125,0.80126953125,-0.5625,0.3125,0.0625
2.864999999999961,-2.0,-3.0,19.0,10.0,-2.0,-2.0,-3.0,-1.0,0.3099365234375,-0.0849609375,0.16461181640625,-0.93255615234375,-0.05615234375,-0.6142578125,0.80126953125,-0.5625,0.3125,0.0625
2.869999999999961,0.0,0.0,5.0,3.0,-5.0,1.0,1.0,-2.0,0.3104248046875,-0.08502197265625,0.16448974609375,-0.93243408203125,-0.060546875,-0.634765625,0.79638671875,-1.625,-0.875,0.25
2.874999999999961,0.0,0.0,5.0,3.0,-5.0,1.0,1.0,-2.0,0.3104248046875,-0.08502197265625,0.16448974609375,-0.93243408203125,-0.060546875,-0.634765625,0.79638671875,-1.625,-0.875,0.25
2.879999999999961,0.0,0.0,5.0,3.0,-5.0,1.0,1.0,-2.0,0.3104248046875,-0.08502197265625,0.16448974609375,-0.93243408203125,-0.060546875,-0.634765625,0.79638671875,-1.625,-0.875,0.25
2.8849999999999607,1.0,-1.0,7.0,3.0,1.0,2.0,-1.0,0.0,0.3104248046875,-0.08502197265625,0.16448974609375,-0.93243408203125,-0.060546875,-0.634765625,0.79638671875,-1.625,-0.875,0.25
2.8899999999999606,1.0,-1.0,7.0,3.0,1.0,2.0,-1.0,0.0,0.3104248046875,-0.08502197265625,0.16448974609375,-0.93243408203125,-0.060546875,-0.634765625,0.79638671875,-1.625,-0.875,0.25
2.8949999999999605,-1.0,-2.0,2.0,-2.0,-3.0,-1.0,0.0,-1.0,0.310791015625,-0.0849609375,0.164306640625,-0.93231201171875,-0.06640625,-0.63037109375,0.79345703125,-1.0625,-1.25,0.125
2.8999999999999604,-1.0,-2.0,2.0,-2.0,-3.0,-1.0,0.0,-1.0,0.310791015625,-0.0849609375,0.164306640625,-0.93231201171875,-0.06640625,-0.63037109375,0.79345703125,-1.0625,-1.25,0.125
2.9049999999999603,-3.0,0.0,1.0,1.0,-1.0,-1.0,-1.0,-2.0,0.310791015625,-0.0849609375,0.164306640625,-0.93231201171875,-0.06640625,-0.63037109375,0.79345703125,-1.0625,-1.25,0.125
2.90999999999996,-3.0,0.0,1.0,1.0,-1.0,-1.0,-1.0,-2.0,0.310791015625,-0.0849609375,0.164306640625,-0.93231201171875,-0.06640625,-0.63037109375,0.79345703125,-1.0625,-1.25,0.125
2.91499999999996,-1.0,0.0,-5.0,0.0,-1.0,0.0,0.0,0.0,0.310791015625,-0.0849609375,0.164306640625,-0.93231201171875,-0.06640625,-0.63037109375,0.79345703125,-1.0625,-1.25,0.125
2.91999999999996,-1.0,0.0,-5.0,0.0,-1.0,0.0,0.0,0.0,0.310791015625,-0.0849609375,0.164306640625,-0.93231201171875,-0.06640625,-0.63037109375,0.79345703125,-1.0625,-1.25,0.125
2.92499999999996,-1.0,0.0,-5.0,0.0,-1.0,0.0,0.0,0.0,0.310546875,-0.08489990234375,0.1641845703125,-0.93243408203125,-0.06298828125,-0.6220703125,0.80224609375,1.9375,-0.75,0.625
2.9299999999999597,0.0,-1.0,-9.0,-7.0,0.0,0.0,-2.0,-4.0,0.310546875,-0.08489990234375,0.1641845703125,-0.93243408203125,-0.06298828125,-0.6220703125,0.80224609375,1.9375,-0.75,0.625
2.9349999999999596,0.0,-1.0,-9.0,-7.0,0.0,0.0,-2.0,-4.0,0.310546875,-0.08489990234375,0.1641845703125,-0.93243408203125,-0.06298828125,-0.6220703125,0.80224609375,1.9375,-0.75,0.625
2.9399999999999595,0.0,-1.0,-9.0,-7.0,0.0,0.0,-2.0,-4.0,0.310546875,-0.08489990234375,0.1641845703125,-0.93243408203125,-0.06298828125,-0.6220703125,0.80224609375,1.9375,-0.75,0.625
2.9449999999999594,-1.0,-4.0,-6.0,-6.0,1.0,-1.0,0.0,0.0,0.310546875,-0.0849609375,0.1641845703125,-0.93243408203125,-0.064453125,-0.60986328125,0.80810546875,0.9375,0.0,0.3125
2.9499999999999593,-1.0,-4.0,-6.0,-6.0,1.0,-1.0,0.0,0.0,0.310546875,-0.0849609375,0.1641845703125,-0.93243408203125,-0.064453125,-0.60986328125,0.80810546875,0.9375,0.0,0.3125
2.954999999999959,-1.0,-4.0,-6.0,-6.0,1.0,-1.0,0.0,0.0,0.310546875,-0.0849609375,0.1641845703125,-0.93243408203125,-0.064453125,-0.60986328125,0.80810546875,0.9375,0.0,0.3125
2.959999999999959,-1.0,-4.0,-6.0,-6.0,1.0,-1.0,0.0,0.0,0.310546875,-0.0849609375,0.1641845703125,-0.93243408203125,-0.064453125,-0.60986328125,0.80810546875,0.9375,0.0,0.3125
2.964999999999959,-2.0,-3.0,-27.0,-10.0,-2.0,0.0,-2.0,-1.0,0.310546875,-0.0849609375,0.1641845703125,-0.93243408203125,-0.064453125,-0.60986328125,0.80810546875,0.9375,0.0,0.3125
2.969999999999959,-2.0,-3.0,-27.0,-10.0,-2.0,0.0,-2.0,-1.0,0.310546875,-0.0849609375,0.1641845703125,-0.93243408203125,-0.064453125,-0.60986328125,0.80810546875,0.9375,0.0,0.3125
2.974999999999959,1.0,0.0,4.0,2.0,-1.0,0.0,0.0,-1.0,0.31048583984375,-0.0849609375,0.1641845703125,-0.93243408203125,-0.06640625,-0.61083984375,0.806640625,-0.875,0.25,0.0625
2.9799999999999587,1.0,0.0,4.0,2.0,-1.0,0.0,0.0,-1.0,0.31048583984375,-0.0849609375,0.1641845703125,-0.93243408203125,-0.06640625,-0.61083984375,0.806640625,-0.875,0.25,0.0625
2.9849999999999586,1.0,0.0,4.0,2.0,-1.0,0.0,0.0,-1.0,0.31048583984375,-0.0849609375,0.1641845703125,-0.93243408203125,-0.06640625,-0.61083984375,0.806640625,-0.875,0.25,0.0625
2.9899999999999585,1.0,0.0,4.0,2.0,-1.0,0.0,0.0,-1.0,0.31048583984375,-0.0849609375,0.1641845703125,-0.93243408203125,-0.06640625,-0.61083984375,0.806640625,-0.875,0.25,0.0625
2.9949999999999584,-5.0,-1.0,2.0,-1.0,0.0,-1.0,-3.0,-1.0,0.31048583984375,-0.0849609375,0.1641845703125,-0.93243408203125,-0.06640625,-0.61083984375,0.806640625,-0.875,0.25,0.0625
2.9999999999999583,-5.0,-1.0,2.0,-1.0,0.0,-1.0,-3.0,-1.0,0.31048583984375,-0.0849609375,0.1641845703125,-0.93243408203125,-0.06640625,-0.61083984375,0.806640625,-0.875,0.25,0.0625
3.004999999999958,-5.0,-1.0,2.0,-1.0,0.0,-1.0,-3.0,-1.0,0.310791015625,-0.0850830078125,0.1640625,-0.932373046875,-0.06884765625,-0.626953125,0.8076171875,-1.5625,-0.3125,0.0
3.009999999999958,0.0,-2.0,0.0,3.0,1.0,0.0,1.0,-1.0,0.310791015625,-0.0850830078125,0.1640625,-0.932373046875,-0.06884765625,-0.626953125,0.8076171875,-1.5625,-0.3125,0.0
3.014999999999958,0.0,-2.0,0.0,3.0,1.0,0.0,1.0,-1.0,0.310791015625,-0.0850830078125,0.1640625,-0.932373046875,-0.06884765625,-0.626953125,0.8076171875,-1.5625,-0.3125,0.0
3.019999999999958,0.0,-2.0,0.0,3.0,1.0,0.0,1.0,-1.0,0.310791015625,-0.0850830078125,0.1640625,-0.932373046875,-0.06884765625,-0.626953125,0.8076171875,-1.5625,-0.3125,0.0
3.0249999999999577,-1.0,1.0,2.0,5.0,-3.0,-1.0,0.0,-1.0,0.3109130859375,-0.08514404296875,0.1639404296875,-0.93231201171875,-0.0712890625,-0.62841796875,0.80322265625,-0.25,-1.0625,0.0625
3.0299999999999576,-1.0,1.0,2.0,5.0,-3.0,-1.0,0.0,-1.0,0.3109130859375,-0.08514404296875,0.1639404296875,-0.93231201171875,-0.0712890625,-0.62841796875,0.80322265625,-0.25,-1.0625,0.0625
3.0349999999999575,-1.0,1.0,2.0,5.0,-3.0,-1.0,0.0,-1.0,0.3109130859375,-0.08514404296875,0.1639404296875,-0.93231201171875,-0.0712890625,-0.62841796875,0.80322265625,-0.25,-1.0625,0.0625
3.0399999999999574,-1.0,1.0,2.0,5.0,-3.0,-1.0,0.0,-1.0,0.3109130859375,-0.08514404296875,0.1639404296875,-0.93231201171875,-0.0712890625,-0.62841796875,0.80322265625,-0.25,-1.0625,0.0625
3.0449999999999573,-3.0,-6.0,-11.0,-11.0,-6.0,-1.0,-1.0,-1.0,0.3109130859375,-0.08514404296875,0.1639404296875,-0.93231201171875,-0.0712890625,-0.62841796875,0.80322265625,-0.25,-1.0625,0.0625
3.049999999999957,-3.0,-6.0,-11.0,-11.0,-6.0,-1.0,-1.0,-1.0,0.3109130859375,-0.08514404296875,0.1639404296875,-0.93231201171875,-0.0712890625,-0.62841796875,0.80322265625,-0.25,-1.0625,0.0625
3.054999999999957,-2.0,-6.0,-14.0,-12.0,3.0,0.0,-1.0,0.0,0.31072998046875,-0.0850830078125,0.16387939453125,-0.93243408203125,-0.06591796875,-0.625,0.798828125,2.0,-0.5625,0.1875
3.059999999999957,-2.0,-6.0,-14.0,-12.0,3.0,0.0,-1.0,0.0,0.31072998046875,-0.0850830078125,0.16387939453125,-0.93243408203125,-0.06591796875,-0.625,0.798828125,2.0,-0.5625,0.1875
3.064999999999957,-2.0,-6.0,-14.0,-12.0,3.0,0.0,-1.0,0.0,0.31072998046875,-0.0850830078125,0.16387939453125,-0.93243408203125,-0.06591796875,-0.625,0.798828125,2.0,-0.5625,0.1875
3.0699999999999568,-2.0,-6.0,-14.0,-12.0,3.0,0.0,-1.0,0.0,0.31072998046875,-0.0850830078125,0.16387939453125,-0.93243408203125,-0.06591796875,-0.625,0.798828125,2.0,-0.5625,0.1875
3.0749999999999567,-2.0,0.0,-6.0,-5.0,-5.0,-3.0,-1.0,-1.0,0.31072998046875,-0.0850830078125,0.16387939453125,-0.93243408203125,-0.06591796875,-0.625,0.798828125,2.0,-0.5625,0.1875
3.0799999999999566,-2.0,0.0,-6.0,-5.0,-5.0,-3.0,-1.0,-1.0,0.31072998046875,-0.0850830078125,0.16387939453125,-0.93243408203125,-0.06591796875,-0.625,0.798828125,2.0,-0.5625,0.1875
3.0849999999999564,-2.0,0.0,-6.0,-5.0,-5.0,-3.0,-1.0,-1.0,0.310302734375,-0.0850830078125,0.16400146484375,-0.9324951171875,-0.07568359375,-0.6162109375,0.79931640625,2.4375,-0.5,-1.0625
3.0899999999999563,-2.0,0.0,-6.0,-5.0,-5.0,-3.0,-1.0,-1.0,0.310302734375,-0.0850830078125,0.16400146484375,-0.9324951171875,-0.07568359375,-0.6162109375,0.79931640625,2.4375,-0.5,-1.0625
3.0949999999999562,-1.0,0.0,10.0,9.0,1.0,0.0,-1.0,-1.0,0.310302734375,-0.0850830078125,0.16400146484375,-0.9324951171875,-0.07568359375,-0.6162109375,0.79931640625,2.4375,-0.5,-1.0625
3.099999999999956,-1.0,0.0,10.0,9.0,1.0,0.0,-1.0,-1.0,0.310302734375,-0.0850830078125,0.16400146484375,-0.9324951171875,-0.07568359375,-0.6162109375,0.79931640625,2.4375,-0.5,-1.0625
3.104999999999956,0.0,-1.0,1.0,-2.0,-1.0,-1.0,1.0,-2.0,0.3101806640625,-0.0849609375,0.1641845703125,-0.93255615234375,-0.0625,-0.61474609375,0.79833984375,1.375,-0.625,-1.3125
3.109999999999956,0.0,-1.0,1.0,-2.0,-1.0,-1.0,1.0,-2.0,0.3101806640625,-0.0849609375,0.1641845703125,-0.93255615234375,-0.0625,-0.61474609375,0.79833984375,1.375,-0.625,-1.3125
3.114999999999956,0.0,-1.0,1.0,-2.0,-1.0,-1.0,1.0,-2.0,0.3101806640625,-0.0849609375,0.1641845703125,-0.93255615234375,-0.0625,-0.61474609375,0.79833984375,1.375,-0.625,-1.3125
3.1199999999999557,0.0,-1.0,1.0,-2.0,-1.0,-1.0,1.0,-2.0,0.3101806640625,-0.0849609375,0.1641845703125,-0.93255615234375,-0.0625,-0.61474609375,0.79833984375,1.375,-0.625,-1.3125
3.1249999999999556,0.0,-3.0,-4.0,-2.0,-3.0,-3.0,-3.0,1.0,0.3101806640625,-0.0849609375,0.1641845703125,-0.93255615234375,-0.0625,-0.61474609375,0.79833984375,1.375,-0.625,-1.3125
3.1299999999999555,0.0,-3.0,-4.0,-2.0,-3.0,-3.0,-3.0,1.0,0.3101806640625,-0.0849609375,0.1641845703125,-0.93255615234375,-0.0625,-0.61474609375,0.79833984375,1.375,-0.625,-1.3125
3.1349999999999554,0.0,-1.0,4.0,0.0,2.0,-1.0,-1.0,0.0,0.31005859375,-0.08489990234375,0.16436767578125,-0.93255615234375,-0.060546875,-0.6083984375,0.79736328125,0.4375,-0.3125,-1.4375
3.1399999999999553,0.0,-1.0,4.0,0.0,2.0,-1.0,-1.0,0.0,0.31005859375,-0.08489990234375,0.16436767578125,-0.93255615234375,-0.060546875,-0.6083984375,0.79736328125,0.4375,-0.3125,-1.4375
3.144999999999955,0.0,-1.0,4.0,0.0,2.0,-1.0,-1.0,0.0,0.31005859375,-0.08489990234375,0.16436767578125,-0.93255615234375,-0.060546875,-0.6083984375,0.79736328125,0.4375,-0.3125,-1.4375
3.149999999999955,0.0,-1.0,4.0,0.0,2.0,-1.0,-1.0,0.0,0.31005859375,-0.08489990234375,0.16436767578125,-0.93255615234375,-0.060546875,-0.6083984375,0.79736328125,0.4375,-0.3125,-1.4375
3.154999999999955,-1.0,-1.0,-18.0,9.0,7.0,-1.0,-2.0,-1.0,0.31005859375,-0.08489990234375,0.16436767578125,-0.93255615234375,-0.060546875,-0.6083984375,0.79736328125,0.4375,-0.3125,-1.4375
3.159999999999955,-1.0,-1.0,-18.0,9.0,7.0,-1.0,-2.0,-1.0,0.31005859375,-0.08489990234375,0.16436767578125,-0.93255615234375,-0.060546875,-0.6083984375,0.79736328125,0.4375,-0.3125,-1.4375
3.1649999999999547,-1.0,-1.0,-18.0,9.0,7.0,-1.0,-2.0,-1.0,0.3104248046875,-0.08477783203125,0.16455078125,-0.93243408203125,-0.060546875,-0.6220703125,0.8046875,-1.4375,-0.6875,-1.4375
3.1699999999999546,-1.0,-1.0,-18.0,9.0,7.0,-1.0,-2.0,-1.0,0.3104248046875,-0.08477783203125,0.16455078125,-0.93243408203125,-0.060546875,-0.6220703125,0.8046875,-1.4375,-0.6875,-1.4375
3.1749999999999545,0.0,1.0,11.0,6.0,2.0,0.0,-1.0,1.0,0.3104248046875,-0.08477783203125,0.16455078125,-0.93243408203125,-0.060546875,-0.6220703125,0.8046875,-1.4375,-0.6875,-1.4375
3.1799999999999544,0.0,1.0,11.0,6.0,2.0,0.0,-1.0,1.0,0.3104248046875,-0.08477783203125,0.16455078125,-0.93243408203125,-0.060546875,-0.6220703125,0.8046875,-1.4375,-0.6875,-1.4375
3.1849999999999543,0.0,1.0,11.0,6.0,2.0,0.0,-1.0,1.0,0.3104248046875,-0.08477783203125,0.16455078125,-0.93243408203125,-0.060546875,-0.6220703125,0.8046875,-1.4375,-0.6875,-1.4375
3.189999999999954,-2.0,-2.0,16.0,2.0,-5.0,-3.0,0.0,1.0,0.310546875,-0.0848388671875,0.16461181640625,-0.932373046875,-0.076171875,-0.6240234375,0.80224609375,-0.625,-1.0,-1.25
3.194999999999954,-2.0,-2.0,16.0,2.0,-5.0,-3.0,0.0,1.0,0.310546875,-0.0848388671875,0.16461181640625,-0.932373046875,-0.076171875,-0.6240234375,0.80224609375,-0.625,-1.0,-1.25
3.199999999999954,-1.0,-2.0,-11.0,0.0,0.0,-1.0,-3.0,-2.0,0.310546875,-0.0848388671875,0.16461181640625,-0.932373046875,-0.076171875,-0.6240234375,0.80224609375,-0.625,-1.0,-1.25
3.204999999999954,-1.0,-2.0,-11.0,0.0,0.0,-1.0,-3.0,-2.0,0.310546875,-0.0848388671875,0.16461181640625,-0.932373046875,-0.076171875,-0.6240234375,0.80224609375,-0.625,-1.0,-1.25
3.209999999999954,0.0,2.0,8.0,2.0,1.0,0.0,-2.0,-1.0,0.310546875,-0.0848388671875,0.16461181640625,-0.932373046875,-0.076171875,-0.6240234375,0.80224609375,-0.625,-1.0,-1.25
3.2149999999999537,1.0,0.0,-9.0,-2.0,1.0,-1.0,0.0,-1.0,0.310546875,-0.0848388671875,0.16455078125,-0.932373046875,-0.06201171875,-0.619140625,0.80712890625,0.8125,-0.4375,-0.625
3.2199999999999536,1.0,0.0,-9.0,-2.0,1.0,-1.0,0.0,-1.0,0.310546875,-0.0848388671875,0.16455078125,-0.932373046875,-0.06201171875,-0.619140625,0.80712890625,0.8125,-0.4375,-0.625
3.2249999999999535,-1.0,-2.0,-3.0,-7.0,-3.0,-1.0,-1.0,-4.0,0.310546875,-0.0848388671875,0.16455078125,-0.932373046875,-0.06201171875,-0.619140625,0.80712890625,0.8125,-0.4375,-0.625
3.2299999999999534,-1.0,-2.0,-3.0,-7.0,-3.0,-1.0,-1.0,-4.0,0.310546875,-0.0848388671875,0.16455078125,-0.932373046875,-0.0595703125,-0.61279296875,0.810546875,0.3125,0.3125,-0.5
3.2349999999999532,-1.0,-2.0,-3.0,-7.0,-3.0,-1.0,-1.0,-4.0,0.310546875,-0.0848388671875,0.16455078125,-0.932373046875,-0.0595703125,-0.61279296875,0.810546875,0.3125,0.3125,-0.5
3.239999999999953,0.0,-1.0,2.0,-6.0,-2.0,-1.0,-1.0,-2.0,0.310546875,-0.0848388671875,0.16455078125,-0.932373046875,-0.0595703125,-0.61279296875,0.810546875,0.3125,0.3125,-0.5
3.244999999999953,0.0,2.0,5.0,-3.0,-2.0,-1.0,0.0,0.0,0.310546875,-0.0848388671875,0.16455078125,-0.932373046875,-0.0595703125,-0.61279296875,0.810546875,0.3125,0.3125,-0.5
3.249999999999953,-2.0,-2.0,-6.0,-3.0,-2.0,-3.0,0.0,-1.0,0.31085205078125,-0.0850830078125,0.16461181640625,-0.9322509765625,-0.06298828125,-0.62158203125,0.80078125,-1.5625,0.625,-0.375
3.254999999999953,-2.0,-2.0,-6.0,-3.0,-2.0,-3.0,0.0,-1.0,0.31085205078125,-0.0850830078125,0.16461181640625,-0.9322509765625,-0.06298828125,-0.62158203125,0.80078125,-1.5625,0.625,-0.375
3.2599999999999527,-2.0,-2.0,-6.0,-3.0,-2.0,-3.0,0.0,-1.0,0.31085205078125,-0.0850830078125,0.16461181640625,-0.9322509765625,-0.06298828125,-0.62158203125,0.80078125,-1.5625,0.625,-0.375
3.2649999999999526,-2.0,-2.0,-6.0,-3.0,-2.0,-3.0,0.0,-1.0,0.31085205078125,-0.0850830078125,0.16461181640625,-0.9322509765625,-0.06298828125,-0.62158203125,0.80078125,-1.5625,0.625,-0.375
3.2699999999999525,-2.0,-4.0,3.0,-3.0,-1.0,0.0,0.0,0.0,0.31085205078125,-0.0850830078125,0.16461181640625,-0.9322509765625,-0.06298828125,-0.62158203125,0.80078125,-1.5625,0.625,-0.375
3.2749999999999524,-2.0,-4.0,3.0,-3.0,-1.0,0.0,0.0,0.0,0.31085205078125,-0.0850830078125,0.16461181640625,-0.9322509765625,-0.06298828125,-0.62158203125,0.80078125,-1.5625,0.625,-0.375
3.2799999999999523,-2.0,-4.0,3.0,-3.0,-1.0,0.0,0.0,0.0,0.31085205078125,-0.0850830078125,0.16461181640625,-0.9322509765625,-0.06298828125,-0.62158203125,0.80078125,-1.5625,0.625,-0.375
3.284999999999952,0.0,0.0,-14.0,-2.0,-2.0,0.0,-2.0,-2.0,0.31109619140625,-0.085205078125,0.16461181640625,-0.93212890625,-0.06298828125,-0.6337890625,0.8076171875,-1.0625,0.375,-0.25
3.289999999999952,-3.0,0.0,9.0,7.0,0.0,0.0,0.0,-1.0,0.31109619140625,-0.085205078125,0.16461181640625,-0.93212890625,-0.06298828125,-0.6337890625,0.8076171875,-1.0625,0.375,-0.25
