0.005,-1.0,0.0,-1.0,0.0,1.0,-1.0,-1.0,-3.0,0.48016357421875,-0.12518310546875,0.31292724609375,-0.80987548828125,0.09521484375,-0.86767578125,0.5107421875,-1.25,-0.5,-0.0625
0.01,-1.0,0.0,-1.0,0.0,1.0,-1.0,-1.0,-3.0,0.48040771484375,-0.12518310546875,0.3128662109375,-0.80975341796875,0.09716796875,-0.8681640625,0.513671875,-1.3125,-0.5625,-0.375
0.015,-1.0,0.0,-1.0,0.0,1.0,-1.0,-1.0,-3.0,0.48040771484375,-0.12518310546875,0.3128662109375,-0.80975341796875,0.09716796875,-0.8681640625,0.513671875,-1.3125,-0.5625,-0.375
0.02,-1.0,-4.0,0.0,-2.0,-1.0,-2.0,-2.0,0.0,0.48040771484375,-0.12518310546875,0.3128662109375,-0.80975341796875,0.09716796875,-0.8681640625,0.513671875,-1.3125,-0.5625,-0.375
0.025,-2.0,-2.0,-4.0,-6.0,-12.0,-2.0,0.0,0.0,0.48040771484375,-0.12518310546875,0.3128662109375,-0.80975341796875,0.09716796875,-0.8681640625,0.513671875,-1.3125,-0.5625,-0.375
0.030000000000000002,-2.0,-2.0,-4.0,-6.0,-12.0,-2.0,0.0,0.0,0.48040771484375,-0.12518310546875,0.3128662109375,-0.80975341796875,0.09716796875,-0.8681640625,0.513671875,-1.3125,-0.5625,-0.375
0.035,-2.0,-2.0,-4.0,-6.0,-12.0,-2.0,0.0,0.0,0.4805908203125,-0.125244140625,0.3128662109375,-0.80963134765625,0.09521484375,-0.86767578125,0.5087890625,-1.3125,-0.5,-0.375
0.04,-2.0,-2.0,-4.0,-6.0,-12.0,-2.0,0.0,0.0,0.4805908203125,-0.125244140625,0.3128662109375,-0.80963134765625,0.09521484375,-0.86767578125,0.5087890625,-1.3125,-0.5,-0.375
0.045,-1.0,-2.0,-1.0,3.0,0.0,0.0,-1.0,-1.0,0.4805908203125,-0.125244140625,0.3128662109375,-0.80963134765625,0.09521484375,-0.86767578125,0.5087890625,-1.3125,-0.5,-0.375
0.049999999999999996,-1.0,-2.0,-1.0,3.0,0.0,0.0,-1.0,-1.0,0.4805908203125,-0.125244140625,0.3128662109375,-0.80963134765625,0.09521484375,-0.86767578125,0.5087890625,-1.3125,-0.5,-0.375
0.05499999999999999,-1.0,-2.0,-1.0,3.0,0.0,0.0,-1.0,-1.0,0.48065185546875,-0.125244140625,0.31280517578125,-0.80963134765625,0.0966796875,-0.87255859375,0.51025390625,-0.9375,-0.4375,-0.3125
0.05999999999999999,-1.0,-2.0,-1.0,3.0,0.0,0.0,-1.0,-1.0,0.48065185546875,-0.125244140625,0.31280517578125,-0.80963134765625,0.0966796875,-0.87255859375,0.51025390625,-0.9375,-0.4375,-0.3125
0.06499999999999999,-4.0,-1.0,-4.0,1.0,-1.0,-2.0,0.0,-2.0,0.48065185546875,-0.125244140625,0.31280517578125,-0.80963134765625,0.0966796875,-0.87255859375,0.51025390625,-0.9375,-0.4375,-0.3125
0.06999999999999999,-4.0,-1.0,-4.0,1.0,-1.0,-2.0,0.0,-2.0,0.48065185546875,-0.125244140625,0.31280517578125,-0.80963134765625,0.0966796875,-0.87255859375,0.51025390625,-0.9375,-0.4375,-0.3125
0.075,0.0,-3.0,0.0,0.0,7.0,-1.0,0.0,-2.0,0.48065185546875,-0.125244140625,0.31280517578125,-0.80963134765625,0.0966796875,-0.87255859375,0.51025390625,-0.9375,-0.4375,-0.3125
0.08,0.0,-3.0,0.0,0.0,7.0,-1.0,0.0,-2.0,0.48065185546875,-0.125244140625,0.31280517578125,-0.80963134765625,0.0966796875,-0.87255859375,0.51025390625,-0.9375,-0.4375,-0.3125
0.085,0.0,-3.0,0.0,0.0,7.0,-1.0,0.0,-2.0,0.48065185546875,-0.125244140625,0.31280517578125,-0.80963134765625,0.0966796875,-0.86865234375,0.5126953125,-0.8125,-0.4375,0.0
0.09000000000000001,0.0,-3.0,0.0,0.0,7.0,-1.0,0.0,-2.0,0.48065185546875,-0.125244140625,0.31280517578125,-0.80963134765625,0.0966796875,-0.86865234375,0.5126953125,-0.8125,-0.4375,0.0
0.09500000000000001,1.0,-1.0,0.0,-1.0,-4.0,1.0,-2.0,-3.0,0.48065185546875,-0.125244140625,0.31280517578125,-0.80963134765625,0.0966796875,-0.86865234375,0.5126953125,-0.8125,-0.4375,0.0
0.10000000000000002,1.0,-1.0,0.0,-1.0,-4.0,1.0,-2.0,-3.0,0.48065185546875,-0.125244140625,0.31280517578125,-0.80963134765625,0.0966796875,-0.86865234375,0.5126953125,-0.8125,-0.4375,0.0
0.10500000000000002,-1.0,-1.0,-2.0,-7.0,-1.0,0.0,-1.0,0.0,0.48065185546875,-0.125244140625,0.31280517578125,-0.80963134765625,0.0966796875,-0.86865234375,0.5126953125,-0.8125,-0.4375,0.0
0.11000000000000003,-1.0,-1.0,-2.0,-7.0,-1.0,0.0,-1.0,0.0,0.48065185546875,-0.125244140625,0.31280517578125,-0.80963134765625,0.0966796875,-0.86865234375,0.5126953125,-0.8125,-0.4375,0.0
0.11500000000000003,-1.0,-1.0,-2.0,-7.0,-1.0,0.0,-1.0,0.0,0.4808349609375,-0.125244140625,0.31280517578125,-0.80950927734375,0.09521484375,-0.86767578125,0.5126953125,-1.4375,-0.625,-0.375
0.12000000000000004,-1.0,-1.0,-2.0,-7.0,-1.0,0.0,-1.0,0.0,0.4808349609375,-0.125244140625,0.31280517578125,-0.80950927734375,0.09521484375,-0.86767578125,0.5126953125,-1.4375,-0.625,-0.375
0.12500000000000003,-1.0,0.0,2.0,5.0,-3.0,-3.0,-2.0,-2.0,0.4808349609375,-0.125244140625,0.31280517578125,-0.80950927734375,0.09521484375,-0.86767578125,0.5126953125,-1.4375,-0.625,-0.375
0.13000000000000003,-1.0,0.0,2.0,5.0,-3.0,-3.0,-2.0,-2.0,0.4808349609375,-0.125244140625,0.31280517578125,-0.80950927734375,0.09521484375,-0.86767578125,0.5126953125,-1.4375,-0.625,-0.375
0.13500000000000004,-1.0,0.0,2.0,5.0,-3.0,-3.0,-2.0,-2.0,0.4810791015625,-0.125244140625,0.312744140625,-0.80938720703125,0.09326171875,-0.87109375,0.50927734375,-1.4375,-0.625,-0.4375
0.14000000000000004,-2.0,-1.0,1.0,5.0,3.0,-2.0,-1.0,-1.0,0.4810791015625,-0.125244140625,0.312744140625,-0.80938720703125,0.09326171875,-0.87109375,0.50927734375,-1.4375,-0.625,-0.4375
0.14500000000000005,-2.0,-1.0,1.0,5.0,3.0,-2.0,-1.0,-1.0,0.4810791015625,-0.125244140625,0.312744140625,-0.80938720703125,0.09326171875,-0.87109375,0.50927734375,-1.4375,-0.625,-0.4375
0.15000000000000005,-1.0,1.0,-2.0,0.0,6.0,-2.0,-1.0,-2.0,0.4810791015625,-0.125244140625,0.312744140625,-0.80938720703125,0.09326171875,-0.87109375,0.50927734375,-1.4375,-0.625,-0.4375
0.15500000000000005,-1.0,1.0,-2.0,0.0,6.0,-2.0,-1.0,-2.0,0.4810791015625,-0.125244140625,0.312744140625,-0.80938720703125,0.09326171875,-0.87109375,0.50927734375,-1.4375,-0.625,-0.4375
0.16000000000000006,-1.0,1.0,-2.0,0.0,6.0,-2.0,-1.0,-2.0,0.48114013671875,-0.12530517578125,0.31268310546875,-0.809326171875,0.0966796875,-0.8720703125,0.505859375,-0.8125,-0.375,-0.375
0.16500000000000006,-1.0,1.0,-2.0,0.0,6.0,-2.0,-1.0,-2.0,0.48114013671875,-0.12530517578125,0.31268310546875,-0.809326171875,0.0966796875,-0.8720703125,0.505859375,-0.8125,-0.375,-0.375
0.17000000000000007,-2.0,-1.0,0.0,-5.0,-4.0,-2.0,-1.0,0.0,0.48114013671875,-0.12530517578125,0.31268310546875,-0.809326171875,0.0966796875,-0.8720703125,0.505859375,-0.8125,-0.375,-0.375
0.17500000000000007,-2.0,-1.0,0.0,-5.0,-4.0,-2.0,-1.0,0.0,0.48114013671875,-0.12530517578125,0.31268310546875,-0.809326171875,0.0966796875,-0.8720703125,0.505859375,-0.8125,-0.375,-0.375
0.18000000000000008,1.0,-1.0,0.0,0.0,-5.0,-2.0,0.0,-1.0,0.48114013671875,-0.12530517578125,0.31268310546875,-0.809326171875,0.0966796875,-0.8720703125,0.505859375,-0.8125,-0.375,-0.375
0.18500000000000008,1.0,-1.0,0.0,0.0,-5.0,-2.0,0.0,-1.0,0.48114013671875,-0.12530517578125,0.31268310546875,-0.809326171875,0.0966796875,-0.8720703125,0.505859375,-0.8125,-0.375,-0.375
0.19000000000000009,1.0,-1.0,0.0,0.0,-5.0,-2.0,0.0,-1.0,0.48114013671875,-0.12530517578125,0.31268310546875,-0.809326171875,0.09423828125,-0.8662109375,0.5068359375,-1.0,-0.4375,-0.25
0.1950000000000001,1.0,-1.0,0.0,0.0,-5.0,-2.0,0.0,-1.0,0.48114013671875,-0.12530517578125,0.31268310546875,-0.809326171875,0.09423828125,-0.8662109375,0.5068359375,-1.0,-0.4375,-0.25
0.2000000000000001,1.0,0.0,-2.0,5.0,5.0,1.0,-3.0,-2.0,0.48114013671875,-0.12530517578125,0.31268310546875,-0.809326171875,0.09423828125,-0.8662109375,0.5068359375,-1.0,-0.4375,-0.25
0.2050000000000001,1.0,0.0,-1.0,-1.0,-4.0,1.0,0.0,-2.0,0.48114013671875,-0.12530517578125,0.31268310546875,-0.809326171875,0.09423828125,-0.8662109375,0.5068359375,-1.0,-0.4375,-0.25
0.2100000000000001,1.0,0.0,-1.0,-1.0,-4.0,1.0,0.0,-2.0,0.4813232421875,-0.12530517578125,0.31268310546875,-0.8092041015625,0.0966796875,-0.875,0.509765625,-1.125,-0.5625,-0.5
0.2150000000000001,1.0,0.0,-1.0,-1.0,-4.0,1.0,0.0,-2.0,0.4813232421875,-0.12530517578125,0.31268310546875,-0.8092041015625,0.0966796875,-0.875,0.509765625,-1.125,-0.5625,-0.5
0.2200000000000001,-2.0,-1.0,1.0,2.0,-1.0,-1.0,-2.0,0.0,0.4813232421875,-0.12530517578125,0.31268310546875,-0.8092041015625,0.0966796875,-0.875,0.509765625,-1.125,-0.5625,-0.5
0.22500000000000012,0.0,-1.0,-2.0,0.0,1.0,2.0,-1.0,0.0,0.4813232421875,-0.12530517578125,0.31268310546875,-0.8092041015625,0.0966796875,-0.875,0.509765625,-1.125,-0.5625,-0.5
0.23000000000000012,0.0,-1.0,-2.0,0.0,1.0,2.0,-1.0,0.0,0.4813232421875,-0.12530517578125,0.31268310546875,-0.8092041015625,0.0966796875,-0.875,0.509765625,-1.125,-0.5625,-0.5
0.23500000000000013,0.0,-1.0,-2.0,0.0,1.0,2.0,-1.0,0.0,0.4813232421875,-0.12530517578125,0.31268310546875,-0.8092041015625,0.0966796875,-0.875,0.509765625,-1.125,-0.5625,-0.5
0.24000000000000013,0.0,-1.0,-2.0,0.0,1.0,2.0,-1.0,0.0,0.48138427734375,-0.12530517578125,0.31268310546875,-0.8092041015625,0.09326171875,-0.87353515625,0.50537109375,-0.9375,-0.5625,-0.5
0.24500000000000013,-1.0,-4.0,-4.0,-16.0,-8.0,-2.0,-2.0,-2.0,0.48138427734375,-0.12530517578125,0.31268310546875,-0.8092041015625,0.09326171875,-0.87353515625,0.50537109375,-0.9375,-0.5625,-0.5
0.2500000000000001,-3.0,-2.0,-3.0,-3.0,-3.0,-5.0,-1.0,-3.0,0.48138427734375,-0.12530517578125,0.31268310546875,-0.8092041015625,0.09326171875,-0.87353515625,0.50537109375,-0.9375,-0.5625,-0.5
0.2550000000000001,-3.0,-2.0,-3.0,-3.0,-3.0,-5.0,-1.0,-3.0,0.48138427734375,-0.12530517578125,0.31268310546875,-0.8092041015625,0.09326171875,-0.87353515625,0.50537109375,-0.9375,-0.5625,-0.5
0.2600000000000001,-3.0,-2.0,-3.0,-3.0,-3.0,-5.0,-1.0,-3.0,0.4815673828125,-0.125244140625,0.31268310546875,-0.80908203125,0.099609375,-0.87451171875,0.5126953125,-1.0625,-0.5,-0.625
0.2650000000000001,-3.0,-2.0,-3.0,-3.0,-3.0,-5.0,-1.0,-3.0,0.4815673828125,-0.125244140625,0.31268310546875,-0.80908203125,0.099609375,-0.87451171875,0.5126953125,-1.0625,-0.5,-0.625
0.27000000000000013,-3.0,-2.0,-3.0,-3.0,-3.0,-5.0,-1.0,-3.0,0.4815673828125,-0.125244140625,0.31268310546875,-0.80908203125,0.099609375,-0.87451171875,0.5126953125,-1.0625,-0.5,-0.625
0.27500000000000013,-3.0,-2.0,-3.0,-3.0,-3.0,-5.0,-1.0,-3.0,0.4815673828125,-0.125244140625,0.31268310546875,-0.80908203125,0.099609375,-0.87451171875,0.5126953125,-1.0625,-0.5,-0.625
0.28000000000000014,-3.0,-2.0,-3.0,-3.0,-3.0,-5.0,-1.0,-3.0,0.4815673828125,-0.125244140625,0.31268310546875,-0.80908203125,0.099609375,-0.87451171875,0.5126953125,-1.0625,-0.5,-0.625
0.28500000000000014,-3.0,-2.0,-3.0,-3.0,-3.0,-5.0,-1.0,-3.0,0.4815673828125,-0.125244140625,0.31268310546875,-0.80908203125,0.099609375,-0.87451171875,0.5126953125,-1.0625,-0.5,-0.625
0.29000000000000015,-2.0,0.0,1.0,0.0,-7.0,-3.0,0.0,1.0,0.4815673828125,-0.125244140625,0.31268310546875,-0.80908203125,0.09716796875,-0.8701171875,0.50390625,-0.875,-0.4375,-0.5625
0.29500000000000015,-1.0,-1.0,-3.0,-6.0,-4.0,-1.0,-1.0,-2.0,0.4815673828125,-0.125244140625,0.31268310546875,-0.80908203125,0.09716796875,-0.8701171875,0.50390625,-0.875,-0.4375,-0.5625
0.30000000000000016,0.0,-1.0,0.0,8.0,2.0,-2.0,-3.0,0.0,0.4815673828125,-0.125244140625,0.31268310546875,-0.80908203125,0.09716796875,-0.8701171875,0.50390625,-0.875,-0.4375,-0.5625
0.30500000000000016,0.0,-1.0,0.0,8.0,2.0,-2.0,-3.0,0.0,0.4815673828125,-0.125244140625,0.31268310546875,-0.80908203125,0.10302734375,-0.86669921875,0.51123046875,-0.875,-0.375,-0.3125
0.31000000000000016,0.0,-1.0,0.0,8.0,2.0,-2.0,-3.0,0.0,0.4815673828125,-0.125244140625,0.31268310546875,-0.80908203125,0.10302734375,-0.86669921875,0.51123046875,-0.875,-0.375,-0.3125
0.31500000000000017,-1.0,-2.0,-2.0,3.0,-4.0,-2.0,-1.0,-3.0,0.4815673828125,-0.125244140625,0.31268310546875,-0.80908203125,0.10302734375,-0.86669921875,0.51123046875,-0.875,-0.375,-0.3125
0.3200000000000002,-1.0,-2.0,-2.0,3.0,-4.0,-2.0,-1.0,-3.0,0.4815673828125,-0.125244140625,0.31268310546875,-0.80908203125,0.10302734375,-0.86669921875,0.51123046875,-0.875,-0.375,-0.3125
0.3250000000000002,-2.0,0.0,-3.0,1.0,0.0,-2.0,-1.0,-3.0,0.4815673828125,-0.125244140625,0.31268310546875,-0.80908203125,0.10302734375,-0.86669921875,0.51123046875,-0.875,-0.375,-0.3125
0.3300000000000002,-2.0,0.0,-3.0,1.0,0.0,-2.0,-1.0,-3.0,0.4815673828125,-0.125244140625,0.31268310546875,-0.80908203125,0.10302734375,-0.86669921875,0.51123046875,-0.875,-0.375,-0.3125
0.3350000000000002,-2.0,0.0,-3.0,1.0,0.0,-2.0,-1.0,-3.0,0.4815673828125,-0.125244140625,0.31268310546875,-0.80908203125,0.09765625,-0.87353515625,0.5126953125,-0.8125,-0.1875,-0.125
0.3400000000000002,-2.0,0.0,-3.0,1.0,0.0,-2.0,-1.0,-3.0,0.4815673828125,-0.125244140625,0.31268310546875,-0.80908203125,0.09765625,-0.87353515625,0.5126953125,-0.8125,-0.1875,-0.125
0.3450000000000002,-3.0,-3.0,-2.0,-1.0,-2.0,0.0,0.0,-2.0,0.4815673828125,-0.125244140625,0.31268310546875,-0.80908203125,0.09765625,-0.87353515625,0.5126953125,-0.8125,-0.1875,-0.125
0.3500000000000002,-3.0,-3.0,-2.0,-1.0,-2.0,0.0,0.0,-2.0,0.4815673828125,-0.12530517578125,0.31268310546875,-0.80908203125,0.09716796875,-0.87744140625,0.50537109375,-0.625,-0.375,-0.1875
0.3550000000000002,0.0,-3.0,-1.0,-5.0,1.0,0.0,-3.0,-1.0,0.4815673828125,-0.12530517578125,0.31268310546875,-0.80908203125,0.09716796875,-0.87744140625,0.50537109375,-0.625,-0.375,-0.1875
0.3600000000000002,0.0,-3.0,-2.0,3.0,-1.0,-2.0,-1.0,-1.0,0.4815673828125,-0.12530517578125,0.31268310546875,-0.80908203125,0.09716796875,-0.87744140625,0.50537109375,-0.625,-0.375,-0.1875
0.3650000000000002,-1.0,-1.0,-1.0,1.0,12.0,2.0,-1.0,-1.0,0.4815673828125,-0.12530517578125,0.31268310546875,-0.80908203125,0.09716796875,-0.87744140625,0.50537109375,-0.625,-0.375,-0.1875
0.3700000000000002,-1.0,-1.0,-1.0,1.0,12.0,2.0,-1.0,-1.0,0.4815673828125,-0.12530517578125,0.31268310546875,-0.80908203125,0.09716796875,-0.87744140625,0.50537109375,-0.625,-0.375,-0.1875
0.3750000000000002,-1.0,-1.0,-1.0,1.0,12.0,2.0,-1.0,-1.0,0.4815673828125,-0.12530517578125,0.3126220703125,-0.80908203125,0.09326171875,-0.87255859375,0.50634765625,-0.875,-0.3125,0.0625
0.3800000000000002,-1.0,-1.0,-1.0,1.0,12.0,2.0,-1.0,-1.0,0.4815673828125,-0.12530517578125,0.3126220703125,-0.80908203125,0.09326171875,-0.87255859375,0.50634765625,-0.875,-0.3125,0.0625
0.38500000000000023,-1.0,-1.0,-1.0,1.0,12.0,2.0,-1.0,-1.0,0.4815673828125,-0.12530517578125,0.3126220703125,-0.80908203125,0.09326171875,-0.87255859375,0.50634765625,-0.875,-0.3125,0.0625
0.39000000000000024,0.0,0.0,-4.0,-18.0,-8.0,1.0,2.0,-1.0,0.4815673828125,-0.12530517578125,0.3126220703125,-0.80908203125,0.09326171875,-0.87255859375,0.50634765625,-0.875,-0.3125,0.0625
0.39500000000000024,0.0,-1.0,-1.0,-2.0,-1.0,-1.0,0.0,-1.0,0.4815673828125,-0.12530517578125,0.3126220703125,-0.80908203125,0.09326171875,-0.87255859375,0.50634765625,-0.875,-0.3125,0.0625
0.40000000000000024,-1.0,0.0,0.0,1.0,-9.0,-3.0,-1.0,-1.0,0.48162841796875,-0.12530517578125,0.3126220703125,-0.80908203125,0.095703125,-0.8740234375,0.50634765625,-0.9375,-0.25,0.125
0.40500000000000025,-1.0,0.0,0.0,1.0,-9.0,-3.0,-1.0,-1.0,0.48162841796875,-0.12530517578125,0.3126220703125,-0.80908203125,0.095703125,-0.8740234375,0.50634765625,-0.9375,-0.25,0.125
0.41000000000000025,-1.0,0.0,0.0,1.0,-9.0,-3.0,-1.0,-1.0,0.48162841796875,-0.12530517578125,0.3126220703125,-0.80908203125,0.095703125,-0.8740234375,0.50634765625,-0.9375,-0.25,0.125
0.41500000000000026,-1.0,1.0,1.0,8.0,4.0,0.0,-1.0,-1.0,0.48162841796875,-0.12530517578125,0.3126220703125,-0.80908203125,0.095703125,-0.8740234375,0.50634765625,-0.9375,-0.25,0.125
0.42000000000000026,-1.0,1.0,1.0,8.0,4.0,0.0,-1.0,-1.0,0.48162841796875,-0.12530517578125,0.3126220703125,-0.80908203125,0.09765625,-0.87060546875,0.4990234375,-0.75,-0.3125,0.0
0.42500000000000027,-1.0,1.0,1.0,8.0,4.0,0.0,-1.0,-1.0,0.48162841796875,-0.12530517578125,0.3126220703125,-0.80908203125,0.09765625,-0.87060546875,0.4990234375,-0.75,-0.3125,0.0
0.43000000000000027,0.0,2.0,-1.0,1.0,0.0,-2.0,-2.0,0.0,0.48162841796875,-0.12530517578125,0.3126220703125,-0.80908203125,0.09765625,-0.87060546875,0.4990234375,-0.75,-0.3125,0.0
0.4350000000000003,0.0,2.0,-1.0,1.0,0.0,-2.0,-2.0,0.0,0.48162841796875,-0.12530517578125,0.3126220703125,-0.80908203125,0.09765625,-0.87060546875,0.4990234375,-0.75,-0.3125,0.0
0.4400000000000003,-1.0,0.0,0.0,3.0,2.0,-2.0,0.0,-2.0,0.48162841796875,-0.12530517578125,0.3126220703125,-0.80908203125,0.09765625,-0.87060546875,0.4990234375,-0.75,-0.3125,0.0
0.4450000000000003,-1.0,0.0,0.0,3.0,2.0,-2.0,0.0,-2.0,0.48162841796875,-0.12530517578125,0.3126220703125,-0.80908203125,0.09765625,-0.87060546875,0.4990234375,-0.75,-0.3125,0.0
0.4500000000000003,-1.0,0.0,0.0,3.0,2.0,-2.0,0.0,-2.0,0.48162841796875,-0.1253662109375,0.3126220703125,-0.80908203125,0.09716796875,-0.8701171875,0.5048828125,-0.125,-0.375,-0.125
0.4550000000000003,-1.0,0.0,0.0,3.0,2.0,-2.0,0.0,-2.0,0.48162841796875,-0.1253662109375,0.3126220703125,-0.80908203125,0.09716796875,-0.8701171875,0.5048828125,-0.125,-0.375,-0.125
0.4600000000000003,-1.0,-1.0,-3.0,6.0,9.0,-1.0,0.0,-1.0,0.48162841796875,-0.1253662109375,0.3126220703125,-0.80908203125,0.09716796875,-0.8701171875,0.5048828125,-0.125,-0.375,-0.125
0.4650000000000003,-1.0,-4.0,-3.0,-3.0,0.0,0.0,-3.0,-1.0,0.48162841796875,-0.1253662109375,0.3126220703125,-0.80908203125,0.09716796875,-0.8701171875,0.5048828125,-0.125,-0.375,-0.125
0.4700000000000003,-1.0,-4.0,-3.0,-3.0,0.0,0.0,-3.0,-1.0,0.48162841796875,-0.1253662109375,0.3126220703125,-0.80908203125,0.09716796875,-0.8701171875,0.5048828125,-0.125,-0.375,-0.125
0.4750000000000003,-1.0,-4.0,-3.0,-3.0,0.0,0.0,-3.0,-1.0,0.481689453125,-0.1253662109375,0.3126220703125,-0.80908203125,0.09619140625,-0.87109375,0.50341796875,-0.3125,-0.4375,-0.5
0.4800000000000003,-1.0,-4.0,-3.0,-3.0,0.0,0.0,-3.0,-1.0,0.481689453125,-0.1253662109375,0.3126220703125,-0.80908203125,0.09619140625,-0.87109375,0.50341796875,-0.3125,-0.4375,-0.5
0.4850000000000003,-1.0,-2.0,-1.0,-6.0,-4.0,-1.0,0.0,1.0,0.481689453125,-0.1253662109375,0.3126220703125,-0.80908203125,0.09619140625,-0.87109375,0.50341796875,-0.3125,-0.4375,-0.5
0.4900000000000003,-1.0,-2.0,-1.0,-6.0,-4.0,-1.0,0.0,1.0,0.481689453125,-0.1253662109375,0.3126220703125,-0.80908203125,0.09619140625,-0.87109375,0.50341796875,-0.3125,-0.4375,-0.5
0.49500000000000033,-1.0,-2.0,-1.0,-6.0,-4.0,-1.0,0.0,1.0,0.481689453125,-0.1253662109375,0.3126220703125,-0.80902099609375,0.09765625,-0.87060546875,0.50439453125,-0.25,-0.625,-0.6875
0.5000000000000003,0.0,-3.0,1.0,5.0,2.0,-1.0,0.0,-1.0,0.481689453125,-0.1253662109375,0.3126220703125,-0.80902099609375,0.09765625,-0.87060546875,0.50439453125,-0.25,-0.625,-0.6875
0.5050000000000003,0.0,-3.0,1.0,5.0,2.0,-1.0,0.0,-1.0,0.481689453125,-0.1253662109375,0.3126220703125,-0.80902099609375,0.09765625,-0.87060546875,0.50439453125,-0.25,-0.625,-0.6875
0.5100000000000003,0.0,-1.0,-1.0,-5.0,-2.0,-1.0,-1.0,0.0,0.481689453125,-0.1253662109375,0.3126220703125,-0.80902099609375,0.09765625,-0.87060546875,0.50439453125,-0.25,-0.625,-0.6875
0.5150000000000003,0.0,-1.0,-1.0,-5.0,-2.0,-1.0,-1.0,0.0,0.481689453125,-0.1253662109375,0.3126220703125,-0.80902099609375,0.095703125,-0.869140625,0.51123046875,-0.25,-0.3125,-0.5
0.5200000000000004,0.0,-1.0,-1.0,-5.0,-2.0,-1.0,-1.0,0.0,0.481689453125,-0.1253662109375,0.3126220703125,-0.80902099609375,0.095703125,-0.869140625,0.51123046875,-0.25,-0.3125,-0.5
0.5250000000000004,0.0,-2.0,-4.0,-21.0,-4.0,1.0,0.0,-1.0,0.481689453125,-0.1253662109375,0.3126220703125,-0.80902099609375,0.095703125,-0.869140625,0.51123046875,-0.25,-0.3125,-0.5
0.5300000000000004,0.0,-2.0,-4.0,-21.0,-4.0,1.0,0.0,-1.0,0.481689453125,-0.1253662109375,0.3126220703125,-0.80902099609375,0.095703125,-0.869140625,0.51123046875,-0.25,-0.3125,-0.5
0.5350000000000004,1.0,0.0,1.0,-3.0,-2.0,-3.0,-1.0,0.0,0.481689453125,-0.12542724609375,0.31256103515625,-0.80902099609375,0.09228515625,-0.873046875,0.49755859375,-0.75,-0.375,-0.625
0.5400000000000004,1.0,0.0,1.0,-3.0,-2.0,-3.0,-1.0,0.0,0.481689453125,-0.12542724609375,0.31256103515625,-0.80902099609375,0.09228515625,-0.873046875,0.49755859375,-0.75,-0.375,-0.625
0.5450000000000004,-1.0,-2.0,-2.0,-5.0,-6.0,0.0,-1.0,0.0,0.481689453125,-0.12542724609375,0.31256103515625,-0.80902099609375,0.09228515625,-0.873046875,0.49755859375,-0.75,-0.375,-0.625
0.5500000000000004,-1.0,-2.0,-2.0,-5.0,-6.0,0.0,-1.0,0.0,0.481689453125,-0.12542724609375,0.31256103515625,-0.80902099609375,0.09228515625,-0.873046875,0.49755859375,-0.75,-0.375,-0.625
0.5550000000000004,-1.0,-2.0,-2.0,-5.0,-6.0,0.0,-1.0,0.0,0.481689453125,-0.12542724609375,0.31256103515625,-0.80902099609375,0.1015625,-0.87060546875,0.51025390625,-0.5,-0.375,-0.5
0.5600000000000004,-5.0,0.0,1.0,8.0,0.0,-2.0,-1.0,-2.0,0.481689453125,-0.12542724609375,0.31256103515625,-0.80902099609375,0.1015625,-0.87060546875,0.51025390625,-0.5,-0.375,-0.5
0.5650000000000004,-5.0,0.0,1.0,8.0,0.0,-2.0,-1.0,-2.0,0.481689453125,-0.12542724609375,0.31256103515625,-0.80902099609375,0.1015625,-0.87060546875,0.51025390625,-0.5,-0.375,-0.5
0.5700000000000004,-1.0,-1.0,-3.0,6.0,12.0,1.0,-2.0,-2.0,0.481689453125,-0.12542724609375,0.31256103515625,-0.80902099609375,0.1015625,-0.87060546875,0.51025390625,-0.5,-0.375,-0.5
0.5750000000000004,-1.0,-1.0,-3.0,6.0,12.0,1.0,-2.0,-2.0,0.481689453125,-0.12542724609375,0.31256103515625,-0.80902099609375,0.1015625,-0.87060546875,0.51025390625,-0.5,-0.375,-0.5
0.5800000000000004,-1.0,-1.0,-3.0,6.0,12.0,1.0,-2.0,-2.0,0.481689453125,-0.12542724609375,0.31256103515625,-0.80902099609375,0.099609375,-0.8720703125,0.50732421875,0.1875,0.0,-0.0625
0.5850000000000004,-1.0,-1.0,-3.0,6.0,12.0,1.0,-2.0,-2.0,0.481689453125,-0.12542724609375,0.31256103515625,-0.80902099609375,0.099609375,-0.8720703125,0.50732421875,0.1875,0.0,-0.0625
0.5900000000000004,0.0,-2.0,-4.0,11.0,13.0,0.0,0.0,0.0,0.481689453125,-0.12542724609375,0.31256103515625,-0.80902099609375,0.099609375,-0.8720703125,0.50732421875,0.1875,0.0,-0.0625
0.5950000000000004,0.0,-2.0,-4.0,11.0,13.0,0.0,0.0,0.0,0.481689453125,-0.12542724609375,0.31256103515625,-0.80902099609375,0.099609375,-0.8720703125,0.50732421875,0.1875,0.0,-0.0625
0.6000000000000004,-2.0,-3.0,-3.0,-6.0,1.0,0.0,-1.0,-2.0,0.481689453125,-0.12542724609375,0.31256103515625,-0.80902099609375,0.099609375,-0.8720703125,0.50732421875,0.1875,0.0,-0.0625
0.6050000000000004,-2.0,-3.0,-3.0,-6.0,1.0,0.0,-1.0,-2.0,0.481689453125,-0.12542724609375,0.31256103515625,-0.80902099609375,0.099609375,-0.8720703125,0.50732421875,0.1875,0.0,-0.0625
0.6100000000000004,-2.0,-3.0,-3.0,-6.0,1.0,0.0,-1.0,-2.0,0.4815673828125,-0.1253662109375,0.3126220703125,-0.80908203125,0.0986328125,-0.869140625,0.50732421875,1.0625,0.0625,0.0625
0.6150000000000004,-2.0,-3.0,-3.0,-6.0,1.0,0.0,-1.0,-2.0,0.4815673828125,-0.1253662109375,0.3126220703125,-0.80908203125,0.0986328125,-0.869140625,0.50732421875,1.0625,0.0625,0.0625
0.6200000000000004,-3.0,-6.0,1.0,1.0,-2.0,-2.0,-1.0,-1.0,0.4815673828125,-0.1253662109375,0.3126220703125,-0.80908203125,0.0986328125,-0.869140625,0.50732421875,1.0625,0.0625,0.0625
0.6250000000000004,-3.0,-6.0,1.0,1.0,-2.0,-2.0,-1.0,-1.0,0.4815673828125,-0.1253662109375,0.3126220703125,-0.80908203125,0.0986328125,-0.869140625,0.50732421875,1.0625,0.0625,0.0625
0.6300000000000004,-3.0,-6.0,1.0,1.0,-2.0,-2.0,-1.0,-1.0,0.4814453125,-0.12542724609375,0.31256103515625,-0.8092041015625,0.09521484375,-0.87255859375,0.5068359375,1.0,0.0625,0.25
0.6350000000000005,-3.0,-6.0,1.0,1.0,-2.0,-2.0,-1.0,-1.0,0.4814453125,-0.12542724609375,0.31256103515625,-0.8092041015625,0.09521484375,-0.87255859375,0.5068359375,1.0,0.0625,0.25
0.6400000000000005,1.0,5.0,4.0,9.0,-8.0,-2.0,-1.0,-4.0,0.4814453125,-0.12542724609375,0.31256103515625,-0.8092041015625,0.09521484375,-0.87255859375,0.5068359375,1.0,0.0625,0.25
0.6450000000000005,1.0,5.0,4.0,9.0,-8.0,-2.0,-1.0,-4.0,0.4814453125,-0.12542724609375,0.31256103515625,-0.8092041015625,0.09521484375,-0.87255859375,0.5068359375,1.0,0.0625,0.25
0.6500000000000005,1.0,2.0,-2.0,-1.0,-6.0,-1.0,-1.0,0.0,0.4814453125,-0.12542724609375,0.31256103515625,-0.8092041015625,0.09521484375,-0.87255859375,0.5068359375,1.0,0.0625,0.25
0.6550000000000005,1.0,2.0,-2.0,-1.0,-6.0,-1.0,-1.0,0.0,0.4814453125,-0.12542724609375,0.31256103515625,-0.8092041015625,0.09521484375,-0.87255859375,0.5068359375,1.0,0.0625,0.25
0.6600000000000005,1.0,2.0,-2.0,-1.0,-6.0,-1.0,-1.0,0.0,0.48150634765625,-0.12542724609375,0.31256103515625,-0.8092041015625,0.09326171875,-0.86865234375,0.5029296875,0.75,0.0625,0.75
0.6650000000000005,1.0,2.0,-2.0,-1.0,-6.0,-1.0,-1.0,0.0,0.48150634765625,-0.12542724609375,0.31256103515625,-0.8092041015625,0.09326171875,-0.86865234375,0.5029296875,0.75,0.0625,0.75
0.6700000000000005,-1.0,-3.0,-4.0,-26.0,-6.0,1.0,2.0,0.0,0.48150634765625,-0.12542724609375,0.31256103515625,-0.8092041015625,0.09326171875,-0.86865234375,0.5029296875,0.75,0.0625,0.75
0.6750000000000005,-1.0,-3.0,-4.0,-26.0,-6.0,1.0,2.0,0.0,0.48150634765625,-0.12542724609375,0.31256103515625,-0.8092041015625,0.09326171875,-0.86865234375,0.5029296875,0.75,0.0625,0.75
0.6800000000000005,1.0,-1.0,1.0,-5.0,-15.0,-1.0,-1.0,0.0,0.48150634765625,-0.12542724609375,0.31256103515625,-0.8092041015625,0.09326171875,-0.86865234375,0.5029296875,0.75,0.0625,0.75
0.6850000000000005,1.0,-1.0,1.0,-5.0,-15.0,-1.0,-1.0,0.0,0.48150634765625,-0.12542724609375,0.31256103515625,-0.8092041015625,0.09326171875,-0.86865234375,0.5029296875,0.75,0.0625,0.75
0.6900000000000005,1.0,-1.0,1.0,-5.0,-15.0,-1.0,-1.0,0.0,0.48150634765625,-0.12542724609375,0.3125,-0.80914306640625,0.09912109375,-0.875,0.50830078125,0.0625,-0.125,0.5
0.6950000000000005,1.0,-1.0,1.0,-5.0,-15.0,-1.0,-1.0,0.0,0.48150634765625,-0.12542724609375,0.3125,-0.80914306640625,0.09912109375,-0.875,0.50830078125,0.0625,-0.125,0.5
0.7000000000000005,-2.0,-1.0,-2.0,1.0,4.0,0.0,0.0,-1.0,0.48150634765625,-0.12542724609375,0.3125,-0.80914306640625,0.09912109375,-0.875,0.50830078125,0.0625,-0.125,0.5
0.7050000000000005,-2.0,-1.0,-2.0,1.0,4.0,0.0,0.0,-1.0,0.48150634765625,-0.12548828125,0.3125,-0.80914306640625,0.09228515625,-0.8740234375,0.51025390625,0.3125,0.0,0.1875
0.7100000000000005,-2.0,-1.0,-2.0,1.0,4.0,0.0,0.0,-1.0,0.48150634765625,-0.12548828125,0.3125,-0.80914306640625,0.09228515625,-0.8740234375,0.51025390625,0.3125,0.0,0.1875
0.7150000000000005,-1.0,0.0,1.0,5.0,-1.0,-2.0,0.0,-1.0,0.48150634765625,-0.12548828125,0.3125,-0.80914306640625,0.09228515625,-0.8740234375,0.51025390625,0.3125,0.0,0.1875
0.7200000000000005,-1.0,0.0,1.0,5.0,-1.0,-2.0,0.0,-1.0,0.48150634765625,-0.12548828125,0.3125,-0.80914306640625,0.09228515625,-0.8740234375,0.51025390625,0.3125,0.0,0.1875
0.7250000000000005,-1.0,0.0,-1.0,0.0,-3.0,-3.0,-1.0,-2.0,0.48150634765625,-0.12548828125,0.3125,-0.80914306640625,0.09228515625,-0.8740234375,0.51025390625,0.3125,0.0,0.1875
0.7300000000000005,-1.0,0.0,-1.0,0.0,-3.0,-3.0,-1.0,-2.0,0.48150634765625,-0.12548828125,0.3125,-0.80914306640625,0.09228515625,-0.8740234375,0.51025390625,0.3125,0.0,0.1875
0.7350000000000005,-1.0,0.0,-1.0,0.0,-3.0,-3.0,-1.0,-2.0,0.48150634765625,-0.12548828125,0.3125,-0.80914306640625,0.09130859375,-0.86767578125,0.50146484375,0.0,0.0625,-0.375
0.7400000000000005,-1.0,0.0,-1.0,0.0,-3.0,-3.0,-1.0,-2.0,0.48150634765625,-0.12548828125,0.3125,-0.80914306640625,0.09130859375,-0.86767578125,0.50146484375,0.0,0.0625,-0.375
0.7450000000000006,1.0,0.0,0.0,3.0,0.0,-1.0,0.0,0.0,0.48150634765625,-0.12548828125,0.3125,-0.80914306640625,0.09130859375,-0.86767578125,0.50146484375,0.0,0.0625,-0.375
0.7500000000000006,1.0,0.0,0.0,3.0,0.0,-1.0,0.0,0.0,0.48150634765625,-0.12548828125,0.3125,-0.80914306640625,0.09130859375,-0.86767578125,0.50146484375,0.0,0.0625,-0.375
0.7550000000000006,-1.0,0.0,-1.0,6.0,-1.0,-2.0,-2.0,-2.0,0.48150634765625,-0.12548828125,0.3125,-0.80914306640625,0.09130859375,-0.86767578125,0.50146484375,0.0,0.0625,-0.375
0.7600000000000006,-1.0,0.0,-1.0,6.0,-1.0,-2.0,-2.0,-2.0,0.48150634765625,-0.12548828125,0.3125,-0.80914306640625,0.09130859375,-0.86767578125,0.50146484375,0.0,0.0625,-0.375
0.7650000000000006,-1.0,0.0,-1.0,6.0,-1.0,-2.0,-2.0,-2.0,0.48150634765625,-0.12548828125,0.3125,-0.80914306640625,0.09765625,-0.87744140625,0.5029296875,0.0625,0.0625,-0.625
0.7700000000000006,-1.0,0.0,-1.0,6.0,-1.0,-2.0,-2.0,-2.0,0.48150634765625,-0.12548828125,0.3125,-0.80914306640625,0.09765625,-0.87744140625,0.5029296875,0.0625,0.0625,-0.625
0.7750000000000006,-1.0,-1.0,-1.0,-1.0,0.0,-1.0,0.0,-2.0,0.48150634765625,-0.12548828125,0.3125,-0.80914306640625,0.09765625,-0.87744140625,0.5029296875,0.0625,0.0625,-0.625
0.7800000000000006,-1.0,-1.0,-1.0,-1.0,0.0,-1.0,0.0,-2.0,0.4815673828125,-0.12548828125,0.3125,-0.80914306640625,0.09619140625,-0.87158203125,0.5078125,0.6875,0.0,-0.75
0.7850000000000006,-1.0,-1.0,-1.0,-1.0,0.0,-1.0,0.0,-2.0,0.4815673828125,-0.12548828125,0.3125,-0.80914306640625,0.09619140625,-0.87158203125,0.5078125,0.6875,0.0,-0.75
0.7900000000000006,-1.0,-1.0,-1.0,-1.0,0.0,-1.0,0.0,-2.0,0.4815673828125,-0.12548828125,0.3125,-0.80914306640625,0.09619140625,-0.87158203125,0.5078125,0.6875,0.0,-0.75
0.7950000000000006,-3.0,-3.0,-3.0,4.0,-2.0,-2.0,-3.0,-2.0,0.4815673828125,-0.12548828125,0.3125,-0.80914306640625,0.09619140625,-0.87158203125,0.5078125,0.6875,0.0,-0.75
0.8000000000000006,-1.0,-2.0,-5.0,-27.0,-6.0,0.0,1.0,0.0,0.4815673828125,-0.12548828125,0.3125,-0.80914306640625,0.09619140625,-0.87158203125,0.5078125,0.6875,0.0,-0.75
0.8050000000000006,-1.0,-2.0,-5.0,-27.0,-6.0,0.0,1.0,0.0,0.4815673828125,-0.12548828125,0.3125,-0.80914306640625,0.09619140625,-0.87158203125,0.5078125,0.6875,0.0,-0.75
0.8100000000000006,-1.0,-2.0,-5.0,-27.0,-6.0,0.0,1.0,0.0,0.4815673828125,-0.12554931640625,0.3125,-0.80914306640625,0.09912109375,-0.873046875,0.50634765625,0.875,-0.0625,-1.0
0.8150000000000006,-1.0,-2.0,-5.0,-27.0,-6.0,0.0,1.0,0.0,0.4815673828125,-0.12554931640625,0.3125,-0.80914306640625,0.09912109375,-0.873046875,0.50634765625,0.875,-0.0625,-1.0
0.8200000000000006,-1.0,0.0,-1.0,-13.0,-5.0,1.0,-1.0,-2.0,0.4815673828125,-0.12554931640625,0.3125,-0.80914306640625,0.09912109375,-0.873046875,0.50634765625,0.875,-0.0625,-1.0
0.8250000000000006,-1.0,0.0,-1.0,-13.0,-5.0,1.0,-1.0,-2.0,0.4815673828125,-0.12554931640625,0.3125,-0.80914306640625,0.09912109375,-0.873046875,0.50634765625,0.875,-0.0625,-1.0
0.8300000000000006,-1.0,0.0,-1.0,-13.0,-5.0,1.0,-1.0,-2.0,0.4815673828125,-0.12554931640625,0.3125,-0.80914306640625,0.09912109375,-0.873046875,0.50634765625,0.875,-0.0625,-1.0
0.8350000000000006,1.0,0.0,-2.0,5.0,4.0,-1.0,-1.0,-1.0,0.4815673828125,-0.12554931640625,0.3125,-0.80914306640625,0.09912109375,-0.873046875,0.50634765625,0.875,-0.0625,-1.0
0.8400000000000006,1.0,0.0,-2.0,5.0,4.0,-1.0,-1.0,-1.0,0.4814453125,-0.1253662109375,0.3126220703125,-0.8092041015625,0.09912109375,-0.87060546875,0.5078125,1.3125,-0.125,-0.8125
0.8450000000000006,-2.0,0.0,1.0,0.0,-3.0,-1.0,-1.0,-1.0,0.4814453125,-0.1253662109375,0.3126220703125,-0.8092041015625,0.09912109375,-0.87060546875,0.5078125,1.3125,-0.125,-0.8125
0.8500000000000006,-2.0,0.0,1.0,0.0,-3.0,-1.0,-1.0,-1.0,0.4814453125,-0.1253662109375,0.3126220703125,-0.8092041015625,0.09912109375,-0.87060546875,0.5078125,1.3125,-0.125,-0.8125
0.8550000000000006,-2.0,0.0,0.0,-4.0,0.0,0.0,-3.0,-3.0,0.4814453125,-0.1253662109375,0.3126220703125,-0.8092041015625,0.09716796875,-0.865234375,0.5068359375,0.75,0.0,-0.3125
0.8600000000000007,-2.0,-1.0,-2.0,5.0,-3.0,-3.0,-2.0,-1.0,0.4814453125,-0.1253662109375,0.3126220703125,-0.8092041015625,0.09716796875,-0.865234375,0.5068359375,0.75,0.0,-0.3125
0.8650000000000007,-2.0,-1.0,-2.0,5.0,-3.0,-3.0,-2.0,-1.0,0.4814453125,-0.1253662109375,0.3126220703125,-0.8092041015625,0.09716796875,-0.865234375,0.5068359375,0.75,0.0,-0.3125
0.8700000000000007,-1.0,-2.0,-1.0,0.0,2.0,1.0,1.0,1.0,0.4814453125,-0.1253662109375,0.3126220703125,-0.8092041015625,0.09716796875,-0.865234375,0.5068359375,0.75,0.0,-0.3125
0.8750000000000007,-1.0,-2.0,-1.0,4.0,-1.0,-4.0,0.0,-2.0,0.4814453125,-0.12542724609375,0.3126220703125,-0.8092041015625,0.09619140625,-0.87109375,0.50732421875,0.125,0.0625,0.1875
0.8800000000000007,-1.0,-2.0,-1.0,4.0,-1.0,-4.0,0.0,-2.0,0.4814453125,-0.12542724609375,0.3126220703125,-0.8092041015625,0.09619140625,-0.87109375,0.50732421875,0.125,0.0625,0.1875
0.8850000000000007,-2.0,-3.0,-1.0,-2.0,-6.0,-3.0,-3.0,0.0,0.4814453125,-0.12542724609375,0.3126220703125,-0.8092041015625,0.09619140625,-0.87109375,0.50732421875,0.125,0.0625,0.1875
0.8900000000000007,-2.0,-3.0,-1.0,-2.0,-6.0,-3.0,-3.0,0.0,0.4814453125,-0.12542724609375,0.3126220703125,-0.8092041015625,0.09619140625,-0.87109375,0.50732421875,0.125,0.0625,0.1875
0.8950000000000007,-2.0,-3.0,-1.0,-2.0,-6.0,-3.0,-3.0,0.0,0.4814453125,-0.12542724609375,0.3126220703125,-0.8092041015625,0.09619140625,-0.87109375,0.50732421875,0.125,0.0625,0.1875
0.9000000000000007,-2.0,-2.0,-2.0,-2.0,-4.0,1.0,-2.0,-1.0,0.4814453125,-0.12542724609375,0.3126220703125,-0.8092041015625,0.09619140625,-0.87109375,0.50732421875,0.125,0.0625,0.1875
0.9050000000000007,-2.0,-2.0,-2.0,-2.0,-4.0,1.0,-2.0,-1.0,0.4814453125,-0.12542724609375,0.31256103515625,-0.8092041015625,0.09326171875,-0.86962890625,0.51171875,-0.3125,0.125,0.375
0.9100000000000007,2.0,1.0,-1.0,-2.0,-2.0,-2.0,0.0,-2.0,0.4814453125,-0.12542724609375,0.31256103515625,-0.8092041015625,0.09326171875,-0.86962890625,0.51171875,-0.3125,0.125,0.375
0.9150000000000007,2.0,1.0,-1.0,-2.0,-2.0,-2.0,0.0,-2.0,0.4814453125,-0.12542724609375,0.31256103515625,-0.8092041015625,0.09326171875,-0.86962890625,0.51171875,-0.3125,0.125,0.375
0.9200000000000007,-3.0,-2.0,0.0,2.0,-4.0,-2.0,-3.0,-1.0,0.4814453125,-0.12542724609375,0.31256103515625,-0.8092041015625,0.091796875,-0.8740234375,0.50830078125,-0.4375,0.0,-0.25
0.9250000000000007,1.0,-1.0,-4.0,-24.0,-9.0,-1.0,0.0,-2.0,0.4814453125,-0.12542724609375,0.31256103515625,-0.8092041015625,0.091796875,-0.8740234375,0.50830078125,-0.4375,0.0,-0.25
0.9300000000000007,1.0,-1.0,-4.0,-24.0,-9.0,-1.0,0.0,-2.0,0.4814453125,-0.12542724609375,0.31256103515625,-0.8092041015625,0.091796875,-0.8740234375,0.50830078125,-0.4375,0.0,-0.25
0.9350000000000007,-1.0,0.0,0.0,0.0,-1.0,-1.0,0.0,0.0,0.4814453125,-0.12542724609375,0.31256103515625,-0.8092041015625,0.091796875,-0.8740234375,0.50830078125,-0.4375,0.0,-0.25
0.9400000000000007,-1.0,0.0,0.0,0.0,-1.0,-1.0,0.0,0.0,0.4814453125,-0.12542724609375,0.31256103515625,-0.8092041015625,0.091796875,-0.8740234375,0.50830078125,-0.4375,0.0,-0.25
0.9450000000000007,-1.0,0.0,0.0,0.0,-1.0,-1.0,0.0,0.0,0.4814453125,-0.12542724609375,0.31256103515625,-0.8092041015625,0.09912109375,-0.86962890625,0.509765625,0.25,-0.1875,-0.75
0.9500000000000007,-1.0,0.0,0.0,0.0,-1.0,-1.0,0.0,0.0,0.4814453125,-0.12542724609375,0.31256103515625,-0.8092041015625,0.09912109375,-0.86962890625,0.509765625,0.25,-0.1875,-0.75
0.9550000000000007,-1.0,0.0,-2.0,2.0,5.0,0.0,-3.0,1.0,0.4814453125,-0.12542724609375,0.31256103515625,-0.8092041015625,0.09912109375,-0.86962890625,0.509765625,0.25,-0.1875,-0.75
0.9600000000000007,-1.0,-1.0,-1.0,-2.0,1.0,0.0,0.0,-1.0,0.4814453125,-0.12542724609375,0.31256103515625,-0.8092041015625,0.09912109375,-0.86962890625,0.509765625,0.25,-0.1875,-0.75
0.9650000000000007,-1.0,-1.0,-1.0,-2.0,1.0,0.0,0.0,-1.0,0.4814453125,-0.12542724609375,0.31256103515625,-0.8092041015625,0.09912109375,-0.86962890625,0.509765625,0.25,-0.1875,-0.75
0.9700000000000008,-1.0,-1.0,-1.0,-2.0,1.0,0.0,0.0,-1.0,0.4814453125,-0.12542724609375,0.31256103515625,-0.8092041015625,0.09716796875,-0.86474609375,0.5068359375,0.8125,-0.0625,-0.375
0.9750000000000008,-1.0,-1.0,-1.0,-2.0,1.0,0.0,0.0,-1.0,0.4814453125,-0.12542724609375,0.31256103515625,-0.8092041015625,0.09716796875,-0.86474609375,0.5068359375,0.8125,-0.0625,-0.375
0.9800000000000008,-1.0,-1.0,-1.0,-2.0,1.0,0.0,0.0,-1.0,0.4814453125,-0.12542724609375,0.31256103515625,-0.8092041015625,0.09716796875,-0.86474609375,0.5068359375,0.8125,-0.0625,-0.375
0.9850000000000008,-1.0,1.0,1.0,3.0,1.0,-1.0,-1.0,-1.0,0.4814453125,-0.12542724609375,0.31256103515625,-0.8092041015625,0.09716796875,-0.86474609375,0.5068359375,0.8125,-0.0625,-0.375
0.9900000000000008,-1.0,1.0,1.0,3.0,1.0,-1.0,-1.0,-1.0,0.4814453125,-0.12542724609375,0.31256103515625,-0.8092041015625,0.09912109375,-0.87353515625,0.50927734375,0.75,-0.0625,0.125
0.9950000000000008,0.0,2.0,0.0,-9.0,-4.0,-2.0,-2.0,-1.0,0.4814453125,-0.12542724609375,0.31256103515625,-0.8092041015625,0.09912109375,-0.87353515625,0.50927734375,0.75,-0.0625,0.125
1.0000000000000007,-1.0,0.0,0.0,3.0,1.0,1.0,-2.0,0.0,0.4814453125,-0.12542724609375,0.31256103515625,-0.8092041015625,0.09912109375,-0.87353515625,0.50927734375,0.75,-0.0625,0.125
1.0050000000000006,-3.0,-1.0,-1.0,7.0,14.0,-1.0,-3.0,-1.0,0.4814453125,-0.12542724609375,0.31256103515625,-0.8092041015625,0.09912109375,-0.87353515625,0.50927734375,0.75,-0.0625,0.125
1.0100000000000005,-3.0,-1.0,-1.0,7.0,14.0,-1.0,-3.0,-1.0,0.4814453125,-0.12542724609375,0.31256103515625,-0.8092041015625,0.09912109375,-0.87353515625,0.50927734375,0.75,-0.0625,0.125
1.0150000000000003,-3.0,-1.0,-1.0,7.0,14.0,-1.0,-3.0,-1.0,0.4814453125,-0.12548828125,0.31256103515625,-0.8092041015625,0.09423828125,-0.86865234375,0.50732421875,0.5625,0.0625,0.375
1.0200000000000002,-1.0,1.0,-1.0,5.0,3.0,2.0,-1.0,1.0,0.4814453125,-0.12548828125,0.31256103515625,-0.8092041015625,0.09423828125,-0.86865234375,0.50732421875,0.5625,0.0625,0.375
1.0250000000000001,-1.0,1.0,-1.0,5.0,3.0,2.0,-1.0,1.0,0.4814453125,-0.12548828125,0.31256103515625,-0.8092041015625,0.09423828125,-0.86865234375,0.50732421875,0.5625,0.0625,0.375
1.03,0.0,-1.0,0.0,-2.0,-6.0,-3.0,0.0,-2.0,0.4814453125,-0.12548828125,0.31256103515625,-0.8092041015625,0.09423828125,-0.86865234375,0.50732421875,0.5625,0.0625,0.375
1.035,0.0,-1.0,0.0,-2.0,-6.0,-3.0,0.0,-2.0,0.4814453125,-0.12548828125,0.31256103515625,-0.8092041015625,0.09423828125,-0.86865234375,0.50732421875,0.5625,0.0625,0.375
1.0399999999999998,0.0,-1.0,0.0,-2.0,-6.0,-3.0,0.0,-2.0,0.48150634765625,-0.12548828125,0.31256103515625,-0.80914306640625,0.0947265625,-0.873046875,0.5029296875,0.125,-0.125,-0.25
1.0449999999999997,1.0,-3.0,0.0,-3.0,-8.0,-1.0,0.0,-2.0,0.48150634765625,-0.12548828125,0.31256103515625,-0.80914306640625,0.0947265625,-0.873046875,0.5029296875,0.125,-0.125,-0.25
1.0499999999999996,-1.0,1.0,3.0,25.0,9.0,-1.0,-1.0,-2.0,0.48150634765625,-0.12548828125,0.31256103515625,-0.80914306640625,0.0947265625,-0.873046875,0.5029296875,0.125,-0.125,-0.25
1.0549999999999995,-1.0,-2.0,-1.0,0.0,-1.0,0.0,-1.0,0.0,0.48150634765625,-0.12548828125,0.31256103515625,-0.80914306640625,0.0947265625,-0.873046875,0.5029296875,0.125,-0.125,-0.25
1.0599999999999994,-1.0,-2.0,-1.0,0.0,-1.0,0.0,-1.0,0.0,0.48150634765625,-0.12548828125,0.31256103515625,-0.80914306640625,0.09912109375,-0.87060546875,0.509765625,0.4375,-0.375,-0.8125
1.0649999999999993,-1.0,-2.0,-1.0,0.0,-1.0,0.0,-1.0,0.0,0.48150634765625,-0.12548828125,0.31256103515625,-0.80914306640625,0.09912109375,-0.87060546875,0.509765625,0.4375,-0.375,-0.8125
1.0699999999999992,-1.0,-2.0,-1.0,0.0,-1.0,0.0,-1.0,0.0,0.48150634765625,-0.12548828125,0.31256103515625,-0.80914306640625,0.09912109375,-0.87060546875,0.509765625,0.4375,-0.375,-0.8125
1.074999999999999,0.0,-2.0,0.0,-1.0,1.0,0.0,0.0,-1.0,0.48150634765625,-0.12548828125,0.31256103515625,-0.80914306640625,0.09912109375,-0.87060546875,0.509765625,0.4375,-0.375,-0.8125
1.079999999999999,-3.0,-2.0,-1.0,-3.0,0.0,-1.0,-3.0,-2.0,0.4814453125,-0.12548828125,0.31256103515625,-0.8092041015625,0.0986328125,-0.8662109375,0.517578125,0.5625,-0.3125,-1.0
1.0849999999999989,-3.0,-2.0,-1.0,-3.0,0.0,-1.0,-3.0,-2.0,0.4814453125,-0.12548828125,0.31256103515625,-0.8092041015625,0.0986328125,-0.8662109375,0.517578125,0.5625,-0.3125,-1.0
1.0899999999999987,0.0,-2.0,-3.0,-7.0,-4.0,-3.0,0.0,-1.0,0.4814453125,-0.12548828125,0.31256103515625,-0.8092041015625,0.0986328125,-0.8662109375,0.517578125,0.5625,-0.3125,-1.0
1.0949999999999986,0.0,-2.0,-3.0,-7.0,-4.0,-3.0,0.0,-1.0,0.4814453125,-0.12548828125,0.31256103515625,-0.8092041015625,0.0986328125,-0.8662109375,0.517578125,0.5625,-0.3125,-1.0
1.0999999999999985,-1.0,-3.0,-3.0,1.0,4.0,1.0,0.0,-2.0,0.4814453125,-0.12548828125,0.31256103515625,-0.8092041015625,0.0986328125,-0.8662109375,0.517578125,0.5625,-0.3125,-1.0
1.1049999999999984,-1.0,-3.0,-3.0,1.0,4.0,1.0,0.0,-2.0,0.4814453125,-0.12548828125,0.31256103515625,-0.8092041015625,0.09765625,-0.8681640625,0.51123046875,0.5,-0.1875,-0.5625
1.1099999999999983,-2.0,-1.0,-2.0,-4.0,-6.0,-1.0,-2.0,0.0,0.4814453125,-0.12548828125,0.31256103515625,-0.8092041015625,0.09765625,-0.8681640625,0.51123046875,0.5,-0.1875,-0.5625
1.1149999999999982,-2.0,-1.0,-2.0,-4.0,-6.0,-1.0,-2.0,0.0,0.4814453125,-0.12548828125,0.31256103515625,-0.8092041015625,0.09765625,-0.8681640625,0.51123046875,0.5,-0.1875,-0.5625
1.119999999999998,0.0,-3.0,1.0,6.0,-5.0,-4.0,-2.0,0.0,0.4814453125,-0.12548828125,0.31256103515625,-0.8092041015625,0.09814453125,-0.876953125,0.51806640625,0.9375,-0.125,-0.5
1.124999999999998,0.0,-3.0,1.0,6.0,-5.0,-4.0,-2.0,0.0,0.4814453125,-0.12548828125,0.31256103515625,-0.8092041015625,0.09814453125,-0.876953125,0.51806640625,0.9375,-0.125,-0.5
1.129999999999998,0.0,-3.0,1.0,6.0,-5.0,-4.0,-2.0,0.0,0.4814453125,-0.12548828125,0.31256103515625,-0.8092041015625,0.09814453125,-0.876953125,0.51806640625,0.9375,-0.125,-0.5
1.1349999999999978,-2.0,0.0,0.0,7.0,3.0,-3.0,-1.0,-1.0,0.4814453125,-0.12548828125,0.31256103515625,-0.8092041015625,0.09814453125,-0.876953125,0.51806640625,0.9375,-0.125,-0.5
1.1399999999999977,-2.0,0.0,0.0,7.0,3.0,-3.0,-1.0,-1.0,0.4814453125,-0.12548828125,0.31256103515625,-0.8092041015625,0.10009765625,-0.861328125,0.5185546875,-0.5625,0.0,-0.1875
1.1449999999999976,-2.0,0.0,0.0,7.0,3.0,-3.0,-1.0,-1.0,0.4814453125,-0.12548828125,0.31256103515625,-0.8092041015625,0.10009765625,-0.861328125,0.5185546875,-0.5625,0.0,-0.1875
1.1499999999999975,-1.0,-1.0,0.0,1.0,-5.0,0.0,-1.0,0.0,0.4814453125,-0.12548828125,0.31256103515625,-0.8092041015625,0.10009765625,-0.861328125,0.5185546875,-0.5625,0.0,-0.1875
1.1549999999999974,-1.0,-1.0,0.0,1.0,-5.0,0.0,-1.0,0.0,0.4814453125,-0.12548828125,0.31256103515625,-0.8092041015625,0.10009765625,-0.861328125,0.5185546875,-0.5625,0.0,-0.1875
1.1599999999999973,0.0,0.0,0.0,0.0,-4.0,-3.0,-3.0,-1.0,0.4814453125,-0.12548828125,0.31256103515625,-0.8092041015625,0.10009765625,-0.861328125,0.5185546875,-0.5625,0.0,-0.1875
1.1649999999999971,0.0,0.0,0.0,0.0,-4.0,-3.0,-3.0,-1.0,0.4814453125,-0.12548828125,0.31256103515625,-0.8092041015625,0.10009765625,-0.861328125,0.5185546875,-0.5625,0.0,-0.1875
1.169999999999997,0.0,0.0,0.0,0.0,-4.0,-3.0,-3.0,-1.0,0.4814453125,-0.12548828125,0.31256103515625,-0.8092041015625,0.09765625,-0.8681640625,0.5068359375,-0.125,0.0625,0.1875
1.174999999999997,0.0,0.0,0.0,0.0,-4.0,-3.0,-3.0,-1.0,0.4814453125,-0.12548828125,0.31256103515625,-0.8092041015625,0.09765625,-0.8681640625,0.5068359375,-0.125,0.0625,0.1875
1.1799999999999968,-1.0,0.0,1.0,6.0,2.0,0.0,0.0,-2.0,0.4814453125,-0.12548828125,0.31256103515625,-0.8092041015625,0.09765625,-0.8681640625,0.5068359375,-0.125,0.0625,0.1875
1.1849999999999967,-1.0,0.0,1.0,6.0,2.0,0.0,0.0,-2.0,0.4814453125,-0.12548828125,0.31256103515625,-0.8092041015625,0.09765625,-0.8681640625,0.5068359375,-0.125,0.0625,0.1875
1.1899999999999966,-1.0,-1.0,-2.0,-6.0,-8.0,-1.0,0.0,-1.0,0.4814453125,-0.12548828125,0.31256103515625,-0.8092041015625,0.09619140625,-0.87548828125,0.50537109375,0.125,-0.0625,-0.0625
1.1949999999999965,-1.0,-1.0,-2.0,-6.0,-8.0,-1.0,0.0,-1.0,0.4814453125,-0.12548828125,0.31256103515625,-0.8092041015625,0.09619140625,-0.87548828125,0.50537109375,0.125,-0.0625,-0.0625
1.1999999999999964,-1.0,-1.0,-2.0,-6.0,-8.0,-1.0,0.0,-1.0,0.4814453125,-0.12548828125,0.31256103515625,-0.8092041015625,0.09619140625,-0.87548828125,0.50537109375,0.125,-0.0625,-0.0625
1.2049999999999963,-1.0,-1.0,-2.0,-6.0,-8.0,-1.0,0.0,-1.0,0.4814453125,-0.12548828125,0.31256103515625,-0.8092041015625,0.09619140625,-0.87548828125,0.50537109375,0.125,-0.0625,-0.0625
1.2099999999999962,-1.0,-1.0,-2.0,-6.0,-8.0,-1.0,0.0,-1.0,0.4814453125,-0.12548828125,0.31256103515625,-0.8092041015625,0.09619140625,-0.87548828125,0.50537109375,0.125,-0.0625,-0.0625
1.214999999999996,-1.0,-1.0,-2.0,-6.0,-8.0,-1.0,0.0,-1.0,0.4814453125,-0.12548828125,0.31256103515625,-0.8092041015625,0.09619140625,-0.87548828125,0.50537109375,0.125,-0.0625,-0.0625
1.219999999999996,0.0,-1.0,0.0,-7.0,-4.0,2.0,0.0,0.0,0.4814453125,-0.12548828125,0.31256103515625,-0.8092041015625,0.09765625,-0.87060546875,0.50927734375,0.4375,0.0625,-0.0625
1.2249999999999959,-1.0,-1.0,-1.0,-1.0,1.0,-1.0,0.0,-1.0,0.4814453125,-0.12548828125,0.31256103515625,-0.8092041015625,0.09765625,-0.87060546875,0.50927734375,0.4375,0.0625,-0.0625
1.2299999999999958,-1.0,-1.0,-1.0,-1.0,1.0,-1.0,0.0,-1.0,0.4814453125,-0.12548828125,0.31256103515625,-0.8092041015625,0.09765625,-0.87060546875,0.50927734375,0.4375,0.0625,-0.0625
1.2349999999999957,-1.0,1.0,-1.0,-2.0,1.0,2.0,0.0,0.0,0.4814453125,-0.12548828125,0.31256103515625,-0.8092041015625,0.09765625,-0.87060546875,0.50927734375,0.4375,0.0625,-0.0625
1.2399999999999956,-1.0,1.0,-1.0,-2.0,1.0,2.0,0.0,0.0,0.4814453125,-0.12548828125,0.31256103515625,-0.8092041015625,0.09765625,-0.87060546875,0.50927734375,0.4375,0.0625,-0.0625
1.2449999999999954,-1.0,1.0,-1.0,-2.0,1.0,2.0,0.0,0.0,0.4814453125,-0.12548828125,0.31256103515625,-0.8092041015625,0.09765625,-0.87060546875,0.50927734375,0.4375,0.0625,-0.0625
1.2499999999999953,-1.0,1.0,-1.0,-2.0,1.0,2.0,0.0,0.0,0.4814453125,-0.12548828125,0.31256103515625,-0.8092041015625,0.09765625,-0.87060546875,0.50927734375,0.4375,0.0625,-0.0625
1.2549999999999952,-1.0,1.0,-1.0,-2.0,1.0,2.0,0.0,0.0,0.4814453125,-0.12548828125,0.31256103515625,-0.8092041015625,0.09765625,-0.87060546875,0.50927734375,0.4375,0.0625,-0.0625
1.2599999999999951,0.0,-1.0,-2.0,-3.0,4.0,2.0,0.0,0.0,0.48126220703125,-0.12548828125,0.31256103515625,-0.80926513671875,0.095703125,-0.8720703125,0.50634765625,1.4375,0.125,-0.125
1.264999999999995,-1.0,-1.0,-1.0,-3.0,-6.0,-1.0,-1.0,-1.0,0.48126220703125,-0.12548828125,0.31256103515625,-0.80926513671875,0.095703125,-0.8720703125,0.50634765625,1.4375,0.125,-0.125
1.269999999999995,-1.0,-1.0,-1.0,-3.0,-6.0,-1.0,-1.0,-1.0,0.4810791015625,-0.12542724609375,0.3126220703125,-0.80938720703125,0.0986328125,-0.87060546875,0.5146484375,1.25,0.0,0.0
1.2749999999999948,-1.0,-1.0,-1.0,-3.0,-6.0,-1.0,-1.0,-1.0,0.4810791015625,-0.12542724609375,0.3126220703125,-0.80938720703125,0.0986328125,-0.87060546875,0.5146484375,1.25,0.0,0.0
1.2799999999999947,-1.0,-1.0,-1.0,-3.0,-6.0,-1.0,-1.0,-1.0,0.4810791015625,-0.12542724609375,0.3126220703125,-0.80938720703125,0.0986328125,-0.87060546875,0.5146484375,1.25,0.0,0.0
1.2849999999999946,-5.0,-2.0,-3.0,-6.0,1.0,-1.0,-1.0,0.0,0.4810791015625,-0.12542724609375,0.3126220703125,-0.80938720703125,0.0986328125,-0.87060546875,0.5146484375,1.25,0.0,0.0
1.2899999999999945,0.0,3.0,-1.0,2.0,0.0,-1.0,-4.0,-3.0,0.4810791015625,-0.12542724609375,0.3126220703125,-0.80938720703125,0.0986328125,-0.87060546875,0.5146484375,1.25,0.0,0.0
1.2949999999999944,0.0,3.0,-1.0,2.0,0.0,-1.0,-4.0,-3.0,0.48089599609375,-0.12542724609375,0.31256103515625,-0.80950927734375,0.095703125,-0.86376953125,0.51171875,1.0,0.125,0.4375
1.2999999999999943,0.0,3.0,-1.0,2.0,0.0,-1.0,-4.0,-3.0,0.48089599609375,-0.12542724609375,0.31256103515625,-0.80950927734375,0.095703125,-0.86376953125,0.51171875,1.0,0.125,0.4375
1.3049999999999942,0.0,-2.0,-3.0,-4.0,-4.0,-3.0,-2.0,0.0,0.48089599609375,-0.12542724609375,0.31256103515625,-0.80950927734375,0.095703125,-0.86376953125,0.51171875,1.0,0.125,0.4375
1.309999999999994,0.0,-2.0,-3.0,-4.0,-4.0,-3.0,-2.0,0.0,0.48089599609375,-0.12542724609375,0.31256103515625,-0.80950927734375,0.095703125,-0.86376953125,0.51171875,1.0,0.125,0.4375
1.314999999999994,-3.0,-2.0,-2.0,-11.0,-14.0,-2.0,-1.0,-2.0,0.48089599609375,-0.12542724609375,0.31256103515625,-0.80950927734375,0.095703125,-0.86376953125,0.51171875,1.0,0.125,0.4375
1.3199999999999938,-3.0,-2.0,-2.0,-11.0,-14.0,-2.0,-1.0,-2.0,0.48089599609375,-0.12542724609375,0.31256103515625,-0.80950927734375,0.095703125,-0.86376953125,0.51171875,1.0,0.125,0.4375
1.3249999999999937,-3.0,-2.0,-2.0,-11.0,-14.0,-2.0,-1.0,-2.0,0.48089599609375,-0.12548828125,0.31256103515625,-0.80950927734375,0.09326171875,-0.8681640625,0.50732421875,-0.1875,0.0,0.3125
1.3299999999999936,-3.0,-2.0,-2.0,-11.0,-14.0,-2.0,-1.0,-2.0,0.48089599609375,-0.12548828125,0.31256103515625,-0.80950927734375,0.09326171875,-0.8681640625,0.50732421875,-0.1875,0.0,0.3125
1.3349999999999935,0.0,1.0,-1.0,0.0,2.0,-2.0,0.0,-1.0,0.48089599609375,-0.12548828125,0.31256103515625,-0.80950927734375,0.09326171875,-0.8681640625,0.50732421875,-0.1875,0.0,0.3125
1.3399999999999934,0.0,1.0,-1.0,0.0,2.0,-2.0,0.0,-1.0,0.48089599609375,-0.12548828125,0.31256103515625,-0.80950927734375,0.09326171875,-0.8681640625,0.50732421875,-0.1875,0.0,0.3125
1.3449999999999933,-1.0,0.0,0.0,2.0,-1.0,-2.0,0.0,-1.0,0.48089599609375,-0.12548828125,0.31256103515625,-0.80950927734375,0.09912109375,-0.8701171875,0.509765625,0.1875,0.0,-0.3125
1.3499999999999932,-1.0,0.0,0.0,2.0,-1.0,-2.0,0.0,-1.0,0.48089599609375,-0.12548828125,0.31256103515625,-0.80950927734375,0.09912109375,-0.8701171875,0.509765625,0.1875,0.0,-0.3125
1.354999999999993,-1.0,0.0,0.0,2.0,-1.0,-2.0,0.0,-1.0,0.48089599609375,-0.12548828125,0.31256103515625,-0.80950927734375,0.09912109375,-0.8701171875,0.509765625,0.1875,0.0,-0.3125
1.359999999999993,-1.0,0.0,0.0,2.0,-1.0,-2.0,0.0,-1.0,0.48089599609375,-0.12548828125,0.31256103515625,-0.80950927734375,0.09912109375,-0.8701171875,0.509765625,0.1875,0.0,-0.3125
1.3649999999999929,0.0,-2.0,0.0,-2.0,6.0,-2.0,-1.0,-1.0,0.48089599609375,-0.12548828125,0.31256103515625,-0.80950927734375,0.09912109375,-0.8701171875,0.509765625,0.1875,0.0,-0.3125
1.3699999999999928,0.0,-2.0,0.0,-2.0,6.0,-2.0,-1.0,-1.0,0.48089599609375,-0.12548828125,0.31256103515625,-0.80950927734375,0.09912109375,-0.8701171875,0.509765625,0.1875,0.0,-0.3125
1.3749999999999927,0.0,-2.0,0.0,-2.0,6.0,-2.0,-1.0,-1.0,0.48089599609375,-0.12548828125,0.31256103515625,-0.80950927734375,0.09423828125,-0.8671875,0.51171875,0.0625,0.0,-0.5625
1.3799999999999926,-1.0,-2.0,-2.0,-2.0,-1.0,-2.0,-2.0,-3.0,0.48089599609375,-0.12548828125,0.31256103515625,-0.80950927734375,0.09423828125,-0.8671875,0.51171875,0.0625,0.0,-0.5625
1.3849999999999925,-1.0,-2.0,-2.0,-2.0,-1.0,-2.0,-2.0,-3.0,0.48089599609375,-0.12548828125,0.31256103515625,-0.80950927734375,0.09423828125,-0.8671875,0.51171875,0.0625,0.0,-0.5625
1.3899999999999924,-3.0,-1.0,-2.0,4.0,3.0,-3.0,-3.0,-2.0,0.48089599609375,-0.12548828125,0.31256103515625,-0.80950927734375,0.09423828125,-0.8671875,0.51171875,0.0625,0.0,-0.5625
1.3949999999999922,-3.0,-1.0,-2.0,4.0,3.0,-3.0,-3.0,-2.0,0.48089599609375,-0.12548828125,0.31256103515625,-0.80950927734375,0.09423828125,-0.8671875,0.51171875,0.0625,0.0,-0.5625
1.3999999999999921,-3.0,-1.0,-2.0,4.0,3.0,-3.0,-3.0,-2.0,0.48095703125,-0.12548828125,0.31256103515625,-0.80950927734375,0.1015625,-0.87841796875,0.509765625,0.5,-0.0625,-0.625
1.404999999999992,-3.0,-1.0,-2.0,4.0,3.0,-3.0,-3.0,-2.0,0.48095703125,-0.12548828125,0.31256103515625,-0.80950927734375,0.1015625,-0.87841796875,0.509765625,0.5,-0.0625,-0.625
1.409999999999992,-3.0,-2.0,-2.0,-5.0,-3.0,-2.0,-1.0,-1.0,0.48095703125,-0.12548828125,0.31256103515625,-0.80950927734375,0.1015625,-0.87841796875,0.509765625,0.5,-0.0625,-0.625
1.4149999999999918,2.0,-1.0,2.0,2.0,-7.0,-2.0,-4.0,1.0,0.48095703125,-0.12548828125,0.31256103515625,-0.80950927734375,0.1015625,-0.87841796875,0.509765625,0.5,-0.0625,-0.625
1.4199999999999917,-1.0,0.0,-1.0,-1.0,3.0,1.0,1.0,0.0,0.48095703125,-0.12548828125,0.31256103515625,-0.80950927734375,0.1015625,-0.87841796875,0.509765625,0.5,-0.0625,-0.625
1.4249999999999916,-1.0,-4.0,-2.0,-1.0,0.0,-1.0,-1.0,-1.0,0.48089599609375,-0.12548828125,0.31256103515625,-0.80950927734375,0.10009765625,-0.86083984375,0.50927734375,0.1875,0.0,-0.125
1.4299999999999915,-1.0,-4.0,-2.0,-1.0,0.0,-1.0,-1.0,-1.0,0.48089599609375,-0.12548828125,0.31256103515625,-0.80950927734375,0.10009765625,-0.86083984375,0.50927734375,0.1875,0.0,-0.125
1.4349999999999914,-1.0,-2.0,-3.0,-3.0,0.0,0.0,-2.0,-2.0,0.48089599609375,-0.12548828125,0.31256103515625,-0.80950927734375,0.10009765625,-0.86083984375,0.50927734375,0.1875,0.0,-0.125
1.4399999999999913,-1.0,-2.0,-3.0,-3.0,0.0,0.0,-2.0,-2.0,0.48089599609375,-0.12548828125,0.31256103515625,-0.80950927734375,0.10009765625,-0.86083984375,0.50927734375,0.1875,0.0,-0.125
1.4449999999999912,-1.0,-2.0,-3.0,-3.0,0.0,0.0,-2.0,-2.0,0.48095703125,-0.12548828125,0.3125,-0.80950927734375,0.09375,-0.86962890625,0.5068359375,-0.25,0.0,0.125
1.449999999999991,0.0,2.0,1.0,4.0,9.0,0.0,0.0,-1.0,0.48095703125,-0.12548828125,0.3125,-0.80950927734375,0.09375,-0.86962890625,0.5068359375,-0.25,0.0,0.125
1.454999999999991,0.0,2.0,1.0,4.0,9.0,0.0,0.0,-1.0,0.48095703125,-0.12548828125,0.3125,-0.80950927734375,0.09375,-0.86962890625,0.5068359375,-0.25,0.0,0.125
1.4599999999999909,1.0,-3.0,-2.0,-13.0,2.0,3.0,2.0,1.0,0.48095703125,-0.12548828125,0.3125,-0.80950927734375,0.09375,-0.86962890625,0.5068359375,-0.25,0.0,0.125
1.4649999999999908,1.0,-3.0,-2.0,-13.0,2.0,3.0,2.0,1.0,0.48095703125,-0.12548828125,0.3125,-0.80950927734375,0.09375,-0.86962890625,0.5068359375,-0.25,0.0,0.125
1.4699999999999906,1.0,-3.0,-2.0,-13.0,2.0,3.0,2.0,1.0,0.48095703125,-0.12548828125,0.3125,-0.80950927734375,0.09375,-0.86962890625,0.5068359375,-0.25,0.0,0.125
1.4749999999999905,-3.0,-2.0,-1.0,-3.0,-3.0,-2.0,-1.0,-2.0,0.48095703125,-0.12548828125,0.3125,-0.80950927734375,0.09765625,-0.875,0.51171875,0.125,0.0625,0.125
1.4799999999999904,-3.0,-2.0,-1.0,-3.0,-3.0,-2.0,-1.0,-2.0,0.48095703125,-0.12548828125,0.3125,-0.80950927734375,0.09765625,-0.875,0.51171875,0.125,0.0625,0.125
1.4849999999999903,-2.0,-1.0,0.0,2.0,-3.0,-2.0,0.0,-1.0,0.48095703125,-0.12548828125,0.3125,-0.80950927734375,0.09814453125,-0.8681640625,0.5126953125,0.0625,0.125,0.375
1.4899999999999902,-2.0,-1.0,0.0,2.0,-3.0,-2.0,0.0,-1.0,0.48095703125,-0.12548828125,0.3125,-0.80950927734375,0.09814453125,-0.8681640625,0.5126953125,0.0625,0.125,0.375
1.4949999999999901,-2.0,-1.0,0.0,2.0,-3.0,-2.0,0.0,-1.0,0.48095703125,-0.12548828125,0.3125,-0.80950927734375,0.09814453125,-0.8681640625,0.5126953125,0.0625,0.125,0.375
1.49999999999999,-3.0,-1.0,-1.0,3.0,1.0,-2.0,0.0,-2.0,0.48095703125,-0.12548828125,0.3125,-0.80950927734375,0.09814453125,-0.8681640625,0.5126953125,0.0625,0.125,0.375
1.50499999999999,-3.0,-1.0,-1.0,3.0,1.0,-2.0,0.0,-2.0,0.48095703125,-0.12548828125,0.3125,-0.80950927734375,0.0947265625,-0.86767578125,0.50830078125,0.3125,0.1875,0.4375
1.5099999999999898,-3.0,-1.0,-1.0,3.0,1.0,-2.0,0.0,-2.0,0.48095703125,-0.12548828125,0.3125,-0.80950927734375,0.0947265625,-0.86767578125,0.50830078125,0.3125,0.1875,0.4375
1.5149999999999897,-3.0,0.0,-3.0,2.0,1.0,2.0,-2.0,-1.0,0.48095703125,-0.12548828125,0.3125,-0.80950927734375,0.0947265625,-0.86767578125,0.50830078125,0.3125,0.1875,0.4375
1.5199999999999896,-1.0,0.0,-3.0,-1.0,0.0,0.0,-1.0,-1.0,0.48095703125,-0.12548828125,0.3125,-0.80950927734375,0.0947265625,-0.86767578125,0.50830078125,0.3125,0.1875,0.4375
1.5249999999999895,-1.0,0.0,-3.0,-1.0,0.0,0.0,-1.0,-1.0,0.48095703125,-0.12548828125,0.3125,-0.80950927734375,0.0947265625,-0.86767578125,0.50830078125,0.3125,0.1875,0.4375
1.5299999999999894,-1.0,0.0,-3.0,-1.0,0.0,0.0,-1.0,-1.0,0.48095703125,-0.12548828125,0.3125,-0.80950927734375,0.09912109375,-0.86669921875,0.50927734375,0.25,-0.125,0.3125
1.5349999999999893,-1.0,0.0,-3.0,-1.0,0.0,0.0,-1.0,-1.0,0.48095703125,-0.12548828125,0.3125,-0.80950927734375,0.09912109375,-0.86669921875,0.50927734375,0.25,-0.125,0.3125
1.5399999999999892,1.0,-3.0,-3.0,-3.0,-1.0,-1.0,-2.0,-1.0,0.48095703125,-0.12548828125,0.3125,-0.80950927734375,0.09912109375,-0.86669921875,0.50927734375,0.25,-0.125,0.3125
1.544999999999989,-1.0,-2.0,-3.0,-7.0,-15.0,-3.0,-1.0,-1.0,0.48095703125,-0.12554931640625,0.3125,-0.80950927734375,0.09130859375,-0.87109375,0.509765625,0.4375,-0.125,0.125
1.549999999999989,-1.0,-2.0,-3.0,-7.0,-15.0,-3.0,-1.0,-1.0,0.48095703125,-0.12554931640625,0.3125,-0.80950927734375,0.09130859375,-0.87109375,0.509765625,0.4375,-0.125,0.125
1.5549999999999888,-1.0,-2.0,-3.0,-7.0,-15.0,-3.0,-1.0,-1.0,0.48095703125,-0.12554931640625,0.3125,-0.80950927734375,0.09130859375,-0.87109375,0.509765625,0.4375,-0.125,0.125
1.5599999999999887,-1.0,-2.0,-3.0,-7.0,-15.0,-3.0,-1.0,-1.0,0.48095703125,-0.12554931640625,0.3125,-0.80950927734375,0.09130859375,-0.87109375,0.509765625,0.4375,-0.125,0.125
1.5649999999999886,-2.0,1.0,-2.0,-2.0,2.0,-1.0,-2.0,-1.0,0.48095703125,-0.12554931640625,0.3125,-0.80950927734375,0.09130859375,-0.87109375,0.509765625,0.4375,-0.125,0.125
1.5699999999999885,-2.0,1.0,-2.0,-2.0,2.0,-1.0,-2.0,-1.0,0.48095703125,-0.12554931640625,0.3125,-0.80950927734375,0.09228515625,-0.8662109375,0.515625,0.375,-0.0625,-0.0625
1.5749999999999884,-2.0,-2.0,1.0,-4.0,-6.0,-2.0,-2.0,-2.0,0.48095703125,-0.12554931640625,0.3125,-0.80950927734375,0.09228515625,-0.8662109375,0.515625,0.375,-0.0625,-0.0625
1.5799999999999883,-1.0,0.0,0.0,-2.0,-2.0,-2.0,-1.0,-3.0,0.48095703125,-0.12554931640625,0.3125,-0.80950927734375,0.09228515625,-0.8662109375,0.515625,0.375,-0.0625,-0.0625
1.5849999999999882,-1.0,0.0,0.0,-2.0,-2.0,-2.0,-1.0,-3.0,0.48095703125,-0.12554931640625,0.3125,-0.80950927734375,0.09228515625,-0.8662109375,0.515625,0.375,-0.0625,-0.0625
1.589999999999988,-1.0,0.0,0.0,-2.0,-2.0,-2.0,-1.0,-3.0,0.48095703125,-0.12554931640625,0.3125,-0.80950927734375,0.09228515625,-0.8662109375,0.515625,0.375,-0.0625,-0.0625
1.594999999999988,-2.0,-4.0,-1.0,1.0,-2.0,1.0,-2.0,-3.0,0.48095703125,-0.12554931640625,0.3125,-0.80950927734375,0.09326171875,-0.87255859375,0.5126953125,0.0,-0.125,-0.1875
1.5999999999999879,-1.0,-2.0,0.0,-2.0,-2.0,-1.0,-2.0,-1.0,0.48095703125,-0.12554931640625,0.3125,-0.80950927734375,0.09326171875,-0.87255859375,0.5126953125,0.0,-0.125,-0.1875
1.6049999999999878,-1.0,-2.0,0.0,-2.0,-2.0,-1.0,-2.0,-1.0,0.48095703125,-0.12554931640625,0.3125,-0.80950927734375,0.09326171875,-0.87255859375,0.5126953125,0.0,-0.125,-0.1875
1.6099999999999877,-1.0,0.0,1.0,0.0,-1.0,-2.0,-1.0,-1.0,0.48095703125,-0.12554931640625,0.3125,-0.80950927734375,0.09326171875,-0.87255859375,0.5126953125,0.0,-0.125,-0.1875
1.6149999999999876,-1.0,0.0,1.0,0.0,-1.0,-2.0,-1.0,-1.0,0.48095703125,-0.12554931640625,0.3125,-0.80950927734375,0.09326171875,-0.87255859375,0.5126953125,0.0,-0.125,-0.1875
1.6199999999999875,-1.0,0.0,1.0,0.0,-1.0,-2.0,-1.0,-1.0,0.48089599609375,-0.12554931640625,0.3125,-0.80950927734375,0.0927734375,-0.86962890625,0.5166015625,0.1875,-0.125,-0.125
1.6249999999999873,-1.0,0.0,1.0,0.0,-1.0,-2.0,-1.0,-1.0,0.48089599609375,-0.12554931640625,0.3125,-0.80950927734375,0.0927734375,-0.86962890625,0.5166015625,0.1875,-0.125,-0.125
1.6299999999999872,-2.0,-2.0,2.0,18.0,7.0,-3.0,-1.0,0.0,0.48089599609375,-0.12554931640625,0.3125,-0.80950927734375,0.0927734375,-0.86962890625,0.5166015625,0.1875,-0.125,-0.125
1.6349999999999871,-2.0,-2.0,2.0,18.0,7.0,-3.0,-1.0,0.0,0.48089599609375,-0.12554931640625,0.3125,-0.80950927734375,0.0927734375,-0.86962890625,0.5166015625,0.1875,-0.125,-0.125
1.639999999999987,-2.0,-2.0,2.0,18.0,7.0,-3.0,-1.0,0.0,0.48089599609375,-0.12554931640625,0.3125,-0.80950927734375,0.09765625,-0.87109375,0.51171875,0.4375,-0.125,-0.25
1.644999999999987,-2.0,0.0,-1.0,-2.0,4.0,0.0,-2.0,1.0,0.48089599609375,-0.12554931640625,0.3125,-0.80950927734375,0.09765625,-0.87109375,0.51171875,0.4375,-0.125,-0.25
1.6499999999999868,-2.0,0.0,-1.0,-2.0,4.0,0.0,-2.0,1.0,0.48089599609375,-0.12554931640625,0.3125,-0.80950927734375,0.09765625,-0.87109375,0.51171875,0.4375,-0.125,-0.25
1.6549999999999867,-1.0,-1.0,-3.0,4.0,10.0,1.0,-2.0,-2.0,0.48089599609375,-0.12554931640625,0.3125,-0.80950927734375,0.09765625,-0.87109375,0.51171875,0.4375,-0.125,-0.25
1.6599999999999866,-1.0,-1.0,-3.0,4.0,10.0,1.0,-2.0,-2.0,0.48089599609375,-0.12554931640625,0.3125,-0.80950927734375,0.09765625,-0.87109375,0.51171875,0.4375,-0.125,-0.25
1.6649999999999865,-1.0,-1.0,-3.0,4.0,10.0,1.0,-2.0,-2.0,0.48089599609375,-0.12554931640625,0.3125,-0.80950927734375,0.09619140625,-0.8681640625,0.509765625,0.3125,-0.1875,-0.625
1.6699999999999864,-1.0,-1.0,-3.0,4.0,10.0,1.0,-2.0,-2.0,0.48089599609375,-0.12554931640625,0.3125,-0.80950927734375,0.09619140625,-0.8681640625,0.509765625,0.3125,-0.1875,-0.625
1.6749999999999863,0.0,-1.0,-3.0,-11.0,-6.0,-2.0,-2.0,-1.0,0.48089599609375,-0.12554931640625,0.3125,-0.80950927734375,0.09619140625,-0.8681640625,0.509765625,0.3125,-0.1875,-0.625
1.6799999999999862,0.0,-1.0,-4.0,-7.0,-6.0,-3.0,-4.0,-1.0,0.48089599609375,-0.12554931640625,0.3125,-0.80950927734375,0.09619140625,-0.8681640625,0.509765625,0.3125,-0.1875,-0.625
1.684999999999986,0.0,-1.0,-4.0,-7.0,-6.0,-3.0,-4.0,-1.0,0.48089599609375,-0.12554931640625,0.3125,-0.80950927734375,0.09619140625,-0.8681640625,0.509765625,0.3125,-0.1875,-0.625
1.689999999999986,-2.0,0.0,-4.0,0.0,1.0,1.0,0.0,0.0,0.48095703125,-0.12554931640625,0.3125,-0.80950927734375,0.09912109375,-0.86669921875,0.50927734375,0.5625,-0.0625,-0.625
1.6949999999999859,0.0,-2.0,0.0,1.0,-6.0,-2.0,0.0,-1.0,0.48095703125,-0.12554931640625,0.3125,-0.80950927734375,0.09912109375,-0.86669921875,0.50927734375,0.5625,-0.0625,-0.625
1.6999999999999857,0.0,-2.0,0.0,1.0,-6.0,-2.0,0.0,-1.0,0.48095703125,-0.12554931640625,0.3125,-0.80950927734375,0.09814453125,-0.86572265625,0.50927734375,0.75,0.0625,0.0625
1.7049999999999856,0.0,-2.0,0.0,1.0,-6.0,-2.0,0.0,-1.0,0.48095703125,-0.12554931640625,0.3125,-0.80950927734375,0.09814453125,-0.86572265625,0.50927734375,0.75,0.0625,0.0625
1.7099999999999855,0.0,-1.0,-2.0,4.0,-1.0,-2.0,-1.0,-1.0,0.48095703125,-0.12554931640625,0.3125,-0.80950927734375,0.09814453125,-0.86572265625,0.50927734375,0.75,0.0625,0.0625
1.7149999999999854,0.0,-1.0,-2.0,4.0,-1.0,-2.0,-1.0,-1.0,0.48095703125,-0.12554931640625,0.3125,-0.80950927734375,0.09814453125,-0.86572265625,0.50927734375,0.75,0.0625,0.0625
1.7199999999999853,0.0,1.0,1.0,-5.0,-5.0,-3.0,-2.0,-1.0,0.48095703125,-0.12554931640625,0.3125,-0.80950927734375,0.09814453125,-0.86572265625,0.50927734375,0.75,0.0625,0.0625
1.7249999999999852,0.0,1.0,1.0,-5.0,-5.0,-3.0,-2.0,-1.0,0.48095703125,-0.12554931640625,0.3125,-0.80950927734375,0.09814453125,-0.86572265625,0.50927734375,0.75,0.0625,0.0625
1.729999999999985,0.0,1.0,1.0,-5.0,-5.0,-3.0,-2.0,-1.0,0.48089599609375,-0.1256103515625,0.3125,-0.80950927734375,0.0927734375,-0.8701171875,0.5146484375,0.125,0.0625,0.3125
1.734999999999985,0.0,1.0,1.0,-5.0,-5.0,-3.0,-2.0,-1.0,0.48089599609375,-0.1256103515625,0.3125,-0.80950927734375,0.0927734375,-0.8701171875,0.5146484375,0.125,0.0625,0.3125
1.739999999999985,1.0,0.0,1.0,1.0,2.0,-1.0,1.0,-2.0,0.48089599609375,-0.1256103515625,0.3125,-0.80950927734375,0.0927734375,-0.8701171875,0.5146484375,0.125,0.0625,0.3125
1.7449999999999848,1.0,0.0,1.0,1.0,2.0,-1.0,1.0,-2.0,0.48089599609375,-0.1256103515625,0.3125,-0.80950927734375,0.0927734375,-0.8701171875,0.5146484375,0.125,0.0625,0.3125
1.7499999999999847,-1.0,-1.0,-2.0,-4.0,-1.0,0.0,-1.0,-1.0,0.48089599609375,-0.1256103515625,0.3125,-0.80950927734375,0.0927734375,-0.8701171875,0.5146484375,0.125,0.0625,0.3125
1.7549999999999846,-1.0,-1.0,-2.0,-4.0,-1.0,0.0,-1.0,-1.0,0.48089599609375,-0.1256103515625,0.31243896484375,-0.80950927734375,0.09375,-0.8662109375,0.52001953125,0.25,0.0625,0.5
1.7599999999999845,-1.0,-1.0,-2.0,-4.0,-1.0,0.0,-1.0,-1.0,0.48089599609375,-0.1256103515625,0.31243896484375,-0.80950927734375,0.09375,-0.8662109375,0.52001953125,0.25,0.0625,0.5
1.7649999999999844,-3.0,-4.0,-1.0,1.0,9.0,2.0,0.0,-2.0,0.48089599609375,-0.1256103515625,0.31243896484375,-0.80950927734375,0.09375,-0.8662109375,0.52001953125,0.25,0.0625,0.5
1.7699999999999843,0.0,-2.0,-4.0,-35.0,-12.0,2.0,0.0,0.0,0.48089599609375,-0.1256103515625,0.31243896484375,-0.80950927734375,0.09375,-0.8662109375,0.52001953125,0.25,0.0625,0.5
1.7749999999999841,0.0,-2.0,-4.0,-35.0,-12.0,2.0,0.0,0.0,0.48089599609375,-0.1256103515625,0.31243896484375,-0.80950927734375,0.09521484375,-0.86474609375,0.5078125,0.0625,0.125,0.625
1.779999999999984,0.0,-2.0,-4.0,-35.0,-12.0,2.0,0.0,0.0,0.48089599609375,-0.1256103515625,0.31243896484375,-0.80950927734375,0.09521484375,-0.86474609375,0.5078125,0.0625,0.125,0.625
1.784999999999984,0.0,0.0,0.0,-5.0,-3.0,-1.0,0.0,-2.0,0.48089599609375,-0.1256103515625,0.31243896484375,-0.80950927734375,0.09521484375,-0.86474609375,0.5078125,0.0625,0.125,0.625
1.7899999999999838,0.0,0.0,0.0,-5.0,-3.0,-1.0,0.0,-2.0,0.48089599609375,-0.1256103515625,0.31243896484375,-0.80950927734375,0.09521484375,-0.86474609375,0.5078125,0.0625,0.125,0.625
1.7949999999999837,-1.0,0.0,1.0,5.0,1.0,-1.0,0.0,-2.0,0.48089599609375,-0.1256103515625,0.31243896484375,-0.80950927734375,0.09521484375,-0.86474609375,0.5078125,0.0625,0.125,0.625
1.7999999999999836,-1.0,0.0,1.0,5.0,1.0,-1.0,0.0,-2.0,0.48089599609375,-0.1256103515625,0.31243896484375,-0.80950927734375,0.09521484375,-0.86474609375,0.5078125,0.0625,0.125,0.625
1.8049999999999835,-1.0,0.0,1.0,5.0,1.0,-1.0,0.0,-2.0,0.48089599609375,-0.1256103515625,0.31243896484375,-0.80950927734375,0.091796875,-0.87158203125,0.51416015625,0.0625,0.0625,0.375
1.8099999999999834,-1.0,0.0,1.0,5.0,1.0,-1.0,0.0,-2.0,0.48089599609375,-0.1256103515625,0.31243896484375,-0.80950927734375,0.091796875,-0.87158203125,0.51416015625,0.0625,0.0625,0.375
1.8149999999999833,2.0,0.0,-3.0,-6.0,-7.0,0.0,0.0,1.0,0.48089599609375,-0.1256103515625,0.31243896484375,-0.80950927734375,0.091796875,-0.87158203125,0.51416015625,0.0625,0.0625,0.375
1.8199999999999832,-1.0,0.0,0.0,3.0,1.0,-2.0,-2.0,-1.0,0.48089599609375,-0.1256103515625,0.31243896484375,-0.80950927734375,0.091796875,-0.87158203125,0.51416015625,0.0625,0.0625,0.375
1.824999999999983,-1.0,0.0,0.0,3.0,1.0,-2.0,-2.0,-1.0,0.48089599609375,-0.1256103515625,0.31243896484375,-0.80950927734375,0.091796875,-0.87158203125,0.51416015625,0.0625,0.0625,0.375
1.829999999999983,-1.0,0.0,0.0,3.0,1.0,-2.0,-2.0,-1.0,0.480712890625,-0.12567138671875,0.31243896484375,-0.80963134765625,0.0966796875,-0.869140625,0.51318359375,1.0625,0.1875,0.4375
1.8349999999999829,-1.0,0.0,0.0,3.0,1.0,-2.0,-2.0,-1.0,0.480712890625,-0.12567138671875,0.31243896484375,-0.80963134765625,0.0966796875,-0.869140625,0.51318359375,1.0625,0.1875,0.4375
1.8399999999999828,-2.0,-3.0,-1.0,5.0,2.0,-5.0,-1.0,-1.0,0.480712890625,-0.12567138671875,0.31243896484375,-0.80963134765625,0.0966796875,-0.869140625,0.51318359375,1.0625,0.1875,0.4375
1.8449999999999827,-2.0,-3.0,-3.0,-2.0,-2.0,-2.0,-1.0,-1.0,0.480712890625,-0.12567138671875,0.31243896484375,-0.80963134765625,0.0966796875,-0.869140625,0.51318359375,1.0625,0.1875,0.4375
1.8499999999999825,-2.0,-3.0,-3.0,-2.0,-2.0,-2.0,-1.0,-1.0,0.48052978515625,-0.125732421875,0.3123779296875,-0.80975341796875,0.09130859375,-0.86865234375,0.51025390625,1.0625,0.1875,0.25
1.8549999999999824,-2.0,-3.0,-3.0,-2.0,-2.0,-2.0,-1.0,-1.0,0.48052978515625,-0.125732421875,0.3123779296875,-0.80975341796875,0.09130859375,-0.86865234375,0.51025390625,1.0625,0.1875,0.25
1.8599999999999823,-2.0,1.0,-2.0,-4.0,-6.0,-3.0,0.0,0.0,0.48052978515625,-0.125732421875,0.3123779296875,-0.80975341796875,0.09130859375,-0.86865234375,0.51025390625,1.0625,0.1875,0.25
1.8649999999999822,-2.0,1.0,-2.0,-4.0,-6.0,-3.0,0.0,0.0,0.48052978515625,-0.125732421875,0.3123779296875,-0.80975341796875,0.09130859375,-0.86865234375,0.51025390625,1.0625,0.1875,0.25
1.8699999999999821,1.0,-1.0,0.0,12.0,-6.0,-2.0,-1.0,0.0,0.48052978515625,-0.125732421875,0.3123779296875,-0.80975341796875,0.09130859375,-0.86865234375,0.51025390625,1.0625,0.1875,0.25
1.874999999999982,1.0,-1.0,0.0,12.0,-6.0,-2.0,-1.0,0.0,0.48052978515625,-0.125732421875,0.3123779296875,-0.80975341796875,0.09130859375,-0.86865234375,0.51025390625,1.0625,0.1875,0.25
1.879999999999982,1.0,-1.0,0.0,12.0,-6.0,-2.0,-1.0,0.0,0.48052978515625,-0.125732421875,0.3123779296875,-0.80975341796875,0.09326171875,-0.8681640625,0.51220703125,0.9375,0.125,0.0
1.8849999999999818,1.0,-1.0,0.0,12.0,-6.0,-2.0,-1.0,0.0,0.48052978515625,-0.125732421875,0.3123779296875,-0.80975341796875,0.09326171875,-0.8681640625,0.51220703125,0.9375,0.125,0.0
1.8899999999999817,-2.0,-1.0,-1.0,-2.0,-3.0,1.0,-2.0,0.0,0.48052978515625,-0.125732421875,0.3123779296875,-0.80975341796875,0.09326171875,-0.8681640625,0.51220703125,0.9375,0.125,0.0
1.8949999999999816,-2.0,-1.0,-1.0,-2.0,-3.0,1.0,-2.0,0.0,0.48052978515625,-0.125732421875,0.3123779296875,-0.80975341796875,0.09326171875,-0.8681640625,0.51220703125,0.9375,0.125,0.0
1.8999999999999815,0.0,0.0,3.0,9.0,2.0,3.0,0.0,-1.0,0.48052978515625,-0.125732421875,0.3123779296875,-0.80975341796875,0.09326171875,-0.8681640625,0.51220703125,0.9375,0.125,0.0
1.9049999999999814,0.0,0.0,3.0,9.0,2.0,3.0,0.0,-1.0,0.48052978515625,-0.125732421875,0.3123779296875,-0.80975341796875,0.09326171875,-0.8681640625,0.51220703125,0.9375,0.125,0.0
1.9099999999999813,0.0,0.0,3.0,9.0,2.0,3.0,0.0,-1.0,0.48052978515625,-0.125732421875,0.3123779296875,-0.80975341796875,0.09326171875,-0.86572265625,0.5107421875,0.8125,-0.0625,-0.5
1.9149999999999812,1.0,-2.0,-1.0,-1.0,1.0,-2.0,-1.0,-2.0,0.48052978515625,-0.125732421875,0.3123779296875,-0.80975341796875,0.09326171875,-0.86572265625,0.5107421875,0.8125,-0.0625,-0.5
1.919999999999981,1.0,-2.0,-1.0,-1.0,1.0,-2.0,-1.0,-2.0,0.48052978515625,-0.125732421875,0.3123779296875,-0.80975341796875,0.09326171875,-0.86572265625,0.5107421875,0.8125,-0.0625,-0.5
1.924999999999981,1.0,-2.0,-1.0,-1.0,1.0,-2.0,-1.0,-2.0,0.48052978515625,-0.125732421875,0.3123779296875,-0.80975341796875,0.09326171875,-0.86572265625,0.5107421875,0.8125,-0.0625,-0.5
1.9299999999999808,-2.0,-4.0,-2.0,-2.0,-3.0,-3.0,0.0,-2.0,0.48052978515625,-0.125732421875,0.3123779296875,-0.80975341796875,0.09375,-0.8623046875,0.52099609375,0.375,0.0,-0.375
1.9349999999999807,-1.0,-1.0,-4.0,-25.0,-10.0,-1.0,-1.0,-1.0,0.48052978515625,-0.125732421875,0.3123779296875,-0.80975341796875,0.09375,-0.8623046875,0.52099609375,0.375,0.0,-0.375
1.9399999999999806,-1.0,-1.0,-4.0,-25.0,-10.0,-1.0,-1.0,-1.0,0.48052978515625,-0.125732421875,0.3123779296875,-0.80975341796875,0.09375,-0.8623046875,0.52099609375,0.375,0.0,-0.375
1.9449999999999805,-3.0,0.0,-3.0,-4.0,1.0,-1.0,-1.0,0.0,0.48052978515625,-0.125732421875,0.3123779296875,-0.80975341796875,0.09375,-0.8623046875,0.52099609375,0.375,0.0,-0.375
1.9499999999999804,-3.0,0.0,-3.0,-4.0,1.0,-1.0,-1.0,0.0,0.48052978515625,-0.125732421875,0.3123779296875,-0.80975341796875,0.09375,-0.8623046875,0.52099609375,0.375,0.0,-0.375
1.9549999999999803,-3.0,0.0,-3.0,-4.0,1.0,-1.0,-1.0,0.0,0.48052978515625,-0.125732421875,0.3123779296875,-0.80975341796875,0.09375,-0.86865234375,0.513671875,-0.25,0.125,0.125
1.9599999999999802,-3.0,0.0,-3.0,-4.0,1.0,-1.0,-1.0,0.0,0.48052978515625,-0.125732421875,0.3123779296875,-0.80975341796875,0.09375,-0.86865234375,0.513671875,-0.25,0.125,0.125
1.96499999999998,-2.0,0.0,-2.0,7.0,5.0,-1.0,-3.0,-2.0,0.48052978515625,-0.125732421875,0.3123779296875,-0.80975341796875,0.09375,-0.86865234375,0.513671875,-0.25,0.125,0.125
1.96999999999998,-2.0,0.0,-2.0,7.0,5.0,-1.0,-3.0,-2.0,0.48052978515625,-0.125732421875,0.3123779296875,-0.80975341796875,0.09375,-0.86865234375,0.513671875,-0.25,0.125,0.125
1.9749999999999799,-1.0,-2.0,-3.0,-5.0,-1.0,0.0,-1.0,0.0,0.48052978515625,-0.125732421875,0.3123779296875,-0.80975341796875,0.09375,-0.86865234375,0.513671875,-0.25,0.125,0.125
1.9799999999999798,-1.0,-2.0,-3.0,-5.0,-1.0,0.0,-1.0,0.0,0.48052978515625,-0.125732421875,0.3123779296875,-0.80975341796875,0.09375,-0.86865234375,0.513671875,-0.25,0.125,0.125
1.9849999999999797,-1.0,-2.0,-3.0,-5.0,-1.0,0.0,-1.0,0.0,0.48052978515625,-0.12579345703125,0.31231689453125,-0.80975341796875,0.08935546875,-0.8701171875,0.51318359375,-0.4375,-0.0625,0.125
1.9899999999999796,-1.0,-2.0,-3.0,-5.0,-1.0,0.0,-1.0,0.0,0.48052978515625,-0.12579345703125,0.31231689453125,-0.80975341796875,0.08935546875,-0.8701171875,0.51318359375,-0.4375,-0.0625,0.125
1.9949999999999795,-1.0,-2.0,0.0,-1.0,-7.0,-3.0,-1.0,-1.0,0.48052978515625,-0.12579345703125,0.31231689453125,-0.80975341796875,0.08935546875,-0.8701171875,0.51318359375,-0.4375,-0.0625,0.125
1.9999999999999793,-1.0,-1.0,1.0,1.0,-2.0,-1.0,-2.0,-3.0,0.48046875,-0.12579345703125,0.31231689453125,-0.809814453125,0.09130859375,-0.87158203125,0.5166015625,0.25,0.0,-0.0625
2.0049999999999795,-1.0,-1.0,1.0,1.0,-2.0,-1.0,-2.0,-3.0,0.48046875,-0.12579345703125,0.31231689453125,-0.809814453125,0.09130859375,-0.87158203125,0.5166015625,0.25,0.0,-0.0625
2.0099999999999794,-1.0,-2.0,-2.0,1.0,-4.0,-2.0,1.0,-1.0,0.48046875,-0.12579345703125,0.31231689453125,-0.809814453125,0.09130859375,-0.87158203125,0.5166015625,0.25,0.0,-0.0625
2.0149999999999793,-1.0,-2.0,-2.0,1.0,-4.0,-2.0,1.0,-1.0,0.48046875,-0.12579345703125,0.31231689453125,-0.809814453125,0.09130859375,-0.87158203125,0.5166015625,0.25,0.0,-0.0625
2.019999999999979,-2.0,-3.0,0.0,0.0,-2.0,-1.0,-2.0,0.0,0.48046875,-0.12579345703125,0.31231689453125,-0.809814453125,0.09130859375,-0.87158203125,0.5166015625,0.25,0.0,-0.0625
2.024999999999979,0.0,-2.0,-4.0,-1.0,1.0,-2.0,-1.0,-1.0,0.48040771484375,-0.12567138671875,0.3123779296875,-0.809814453125,0.09716796875,-0.86279296875,0.50732421875,1.0,-0.1875,-0.4375
2.029999999999979,0.0,-2.0,-4.0,-1.0,1.0,-2.0,-1.0,-1.0,0.48040771484375,-0.12567138671875,0.3123779296875,-0.809814453125,0.09716796875,-0.86279296875,0.50732421875,1.0,-0.1875,-0.4375
2.034999999999979,-1.0,3.0,-1.0,3.0,3.0,1.0,0.0,-1.0,0.48040771484375,-0.12567138671875,0.3123779296875,-0.809814453125,0.09716796875,-0.86279296875,0.50732421875,1.0,-0.1875,-0.4375
2.0399999999999787,-1.0,3.0,-1.0,3.0,3.0,1.0,0.0,-1.0,0.48040771484375,-0.12567138671875,0.3123779296875,-0.809814453125,0.09716796875,-0.86279296875,0.50732421875,1.0,-0.1875,-0.4375
2.0449999999999786,-1.0,3.0,-1.0,3.0,3.0,1.0,0.0,-1.0,0.48040771484375,-0.12567138671875,0.3123779296875,-0.809814453125,0.09716796875,-0.86279296875,0.50732421875,1.0,-0.1875,-0.4375
2.0499999999999785,0.0,-2.0,-2.0,0.0,2.0,-2.0,0.0,-2.0,0.48040771484375,-0.12567138671875,0.3123779296875,-0.809814453125,0.09716796875,-0.86279296875,0.50732421875,1.0,-0.1875,-0.4375
2.0549999999999784,0.0,-2.0,-2.0,0.0,2.0,-2.0,0.0,-2.0,0.48040771484375,-0.12567138671875,0.3123779296875,-0.809814453125,0.09912109375,-0.86572265625,0.5146484375,0.875,-0.375,-0.875
2.0599999999999783,-1.0,-2.0,-1.0,2.0,1.0,-1.0,-2.0,-2.0,0.48040771484375,-0.12567138671875,0.3123779296875,-0.809814453125,0.09912109375,-0.86572265625,0.5146484375,0.875,-0.375,-0.875
2.064999999999978,-1.0,-2.0,-1.0,2.0,1.0,-1.0,-2.0,-2.0,0.48040771484375,-0.12567138671875,0.3123779296875,-0.809814453125,0.09912109375,-0.86572265625,0.5146484375,0.875,-0.375,-0.875
2.069999999999978,-1.0,1.0,0.0,0.0,-6.0,-1.0,0.0,-1.0,0.48028564453125,-0.12548828125,0.31256103515625,-0.80987548828125,0.09619140625,-0.86328125,0.5166015625,0.625,-0.375,-1.3125
2.074999999999978,-1.0,-2.0,-1.0,3.0,-5.0,-2.0,-1.0,-3.0,0.48028564453125,-0.12548828125,0.31256103515625,-0.80987548828125,0.09619140625,-0.86328125,0.5166015625,0.625,-0.375,-1.3125
2.079999999999978,-1.0,-2.0,-1.0,3.0,-5.0,-2.0,-1.0,-3.0,0.48028564453125,-0.12548828125,0.31256103515625,-0.80987548828125,0.09619140625,-0.86328125,0.5166015625,0.625,-0.375,-1.3125
2.0849999999999778,-2.0,-1.0,0.0,-6.0,-13.0,-3.0,-3.0,-1.0,0.48028564453125,-0.12548828125,0.31256103515625,-0.80987548828125,0.09619140625,-0.86328125,0.5166015625,0.625,-0.375,-1.3125
2.0899999999999777,-2.0,-1.0,0.0,-6.0,-13.0,-3.0,-3.0,-1.0,0.48028564453125,-0.1253662109375,0.312744140625,-0.809814453125,0.10107421875,-0.8564453125,0.50439453125,0.25,-0.125,-1.0625
2.0949999999999775,0.0,0.0,-2.0,-17.0,-7.0,0.0,-1.0,-1.0,0.48028564453125,-0.1253662109375,0.312744140625,-0.809814453125,0.10107421875,-0.8564453125,0.50439453125,0.25,-0.125,-1.0625
2.0999999999999774,0.0,0.0,-2.0,-17.0,-7.0,0.0,-1.0,-1.0,0.48028564453125,-0.1253662109375,0.312744140625,-0.809814453125,0.10107421875,-0.8564453125,0.50439453125,0.25,-0.125,-1.0625
2.1049999999999773,-4.0,1.0,-2.0,3.0,4.0,0.0,-2.0,-1.0,0.48028564453125,-0.1253662109375,0.312744140625,-0.809814453125,0.10107421875,-0.8564453125,0.50439453125,0.25,-0.125,-1.0625
2.1099999999999772,-4.0,1.0,-2.0,3.0,4.0,0.0,-2.0,-1.0,0.48028564453125,-0.1253662109375,0.312744140625,-0.809814453125,0.10107421875,-0.8564453125,0.50439453125,0.25,-0.125,-1.0625
2.114999999999977,-4.0,1.0,-2.0,3.0,4.0,0.0,-2.0,-1.0,0.47967529296875,-0.1248779296875,0.31317138671875,-0.81005859375,0.1123046875,-0.8154296875,0.572265625,-0.5625,-0.125,-1.375
2.119999999999977,0.0,-1.0,2.0,4.0,-2.0,-1.0,-2.0,0.0,0.47967529296875,-0.1248779296875,0.31317138671875,-0.81005859375,0.1123046875,-0.8154296875,0.572265625,-0.5625,-0.125,-1.375
2.124999999999977,0.0,-1.0,2.0,4.0,-2.0,-1.0,-2.0,0.0,0.47967529296875,-0.1248779296875,0.31317138671875,-0.81005859375,0.1123046875,-0.8154296875,0.572265625,-0.5625,-0.125,-1.375
2.129999999999977,0.0,-1.0,-1.0,-4.0,2.0,-1.0,-1.0,-1.0,0.48095703125,-0.12591552734375,0.3126220703125,-0.80938720703125,0.0751953125,-0.91845703125,0.4560546875,-5.125,1.0625,1.5
2.1349999999999767,0.0,-1.0,-1.0,-4.0,2.0,-1.0,-1.0,-1.0,0.48095703125,-0.12591552734375,0.3126220703125,-0.80938720703125,0.0751953125,-0.91845703125,0.4560546875,-5.125,1.0625,1.5
2.1399999999999766,0.0,-1.0,-1.0,-4.0,2.0,-1.0,-1.0,-1.0,0.48095703125,-0.12591552734375,0.3126220703125,-0.80938720703125,0.0751953125,-0.91845703125,0.4560546875,-5.125,1.0625,1.5
2.1449999999999765,-1.0,-4.0,-1.0,0.0,2.0,-2.0,-2.0,0.0,0.48095703125,-0.12591552734375,0.3126220703125,-0.80938720703125,0.0751953125,-0.91845703125,0.4560546875,-5.125,1.0625,1.5
2.1499999999999764,-1.0,-4.0,-1.0,0.0,2.0,-2.0,-2.0,0.0,0.480224609375,-0.12615966796875,0.31231689453125,-0.80987548828125,0.08056640625,-0.83837890625,0.50927734375,3.3125,0.75,2.875
2.1549999999999763,-1.0,-4.0,-1.0,0.0,2.0,-2.0,-2.0,0.0,0.480224609375,-0.12615966796875,0.31231689453125,-0.80987548828125,0.08056640625,-0.83837890625,0.50927734375,3.3125,0.75,2.875
2.159999999999976,0.0,-1.0,-2.0,0.0,0.0,0.0,-2.0,-1.0,0.480224609375,-0.12615966796875,0.31231689453125,-0.80987548828125,0.08056640625,-0.83837890625,0.50927734375,3.3125,0.75,2.875
2.164999999999976,-2.0,-3.0,1.0,0.0,0.0,-1.0,1.0,0.0,0.480224609375,-0.12615966796875,0.31231689453125,-0.80987548828125,0.08056640625,-0.83837890625,0.50927734375,3.3125,0.75,2.875
2.169999999999976,-2.0,-3.0,1.0,0.0,0.0,-1.0,1.0,0.0,0.480224609375,-0.12615966796875,0.31231689453125,-0.80987548828125,0.08056640625,-0.83837890625,0.50927734375,3.3125,0.75,2.875
2.174999999999976,-2.0,-3.0,1.0,0.0,0.0,-1.0,1.0,0.0,0.48126220703125,-0.12640380859375,0.3121337890625,-0.809326171875,0.09326171875,-0.9189453125,0.49560546875,-4.4375,-0.8125,-0.9375
2.1799999999999757,-2.0,-3.0,1.0,0.0,0.0,-1.0,1.0,0.0,0.48126220703125,-0.12640380859375,0.3121337890625,-0.809326171875,0.09326171875,-0.9189453125,0.49560546875,-4.4375,-0.8125,-0.9375
2.1849999999999756,-1.0,0.0,-1.0,-6.0,-4.0,3.0,1.0,-1.0,0.48126220703125,-0.12640380859375,0.3121337890625,-0.809326171875,0.09326171875,-0.9189453125,0.49560546875,-4.4375,-0.8125,-0.9375
2.1899999999999755,-1.0,0.0,-1.0,-6.0,-4.0,3.0,1.0,-1.0,0.48126220703125,-0.12640380859375,0.3121337890625,-0.809326171875,0.09326171875,-0.9189453125,0.49560546875,-4.4375,-0.8125,-0.9375
2.1949999999999754,-1.0,0.0,-2.0,-1.0,-2.0,-3.0,-2.0,0.0,0.47991943359375,-0.125244140625,0.31298828125,-0.80999755859375,0.12255859375,-0.84423828125,0.51953125,9.9375,-0.4375,-3.4375
2.1999999999999753,-1.0,0.0,-2.0,-1.0,-2.0,-3.0,-2.0,0.0,0.47991943359375,-0.125244140625,0.31298828125,-0.80999755859375,0.12255859375,-0.84423828125,0.51953125,9.9375,-0.4375,-3.4375
2.204999999999975,-1.0,0.0,-2.0,-1.0,-2.0,-3.0,-2.0,0.0,0.47991943359375,-0.125244140625,0.31298828125,-0.80999755859375,0.12255859375,-0.84423828125,0.51953125,9.9375,-0.4375,-3.4375
2.209999999999975,-2.0,-2.0,-3.0,-17.0,-2.0,-1.0,-1.0,-1.0,0.47991943359375,-0.125244140625,0.31298828125,-0.80999755859375,0.12255859375,-0.84423828125,0.51953125,9.9375,-0.4375,-3.4375
2.214999999999975,0.0,2.0,1.0,-3.0,-4.0,0.0,0.0,1.0,0.479248046875,-0.12506103515625,0.313232421875,-0.810302734375,0.09033203125,-0.84033203125,0.5380859375,2.0625,0.3125,-0.9375
2.219999999999975,-1.0,-1.0,0.0,-6.0,-7.0,-1.0,-2.0,0.0,0.479248046875,-0.12506103515625,0.313232421875,-0.810302734375,0.09033203125,-0.84033203125,0.5380859375,2.0625,0.3125,-0.9375
2.2249999999999748,-1.0,-1.0,0.0,-6.0,-7.0,-1.0,-2.0,0.0,0.479248046875,-0.12506103515625,0.313232421875,-0.810302734375,0.09033203125,-0.84033203125,0.5380859375,2.0625,0.3125,-0.9375
2.2299999999999747,-1.0,-1.0,0.0,-6.0,-7.0,-1.0,-2.0,0.0,0.479248046875,-0.12506103515625,0.313232421875,-0.810302734375,0.09033203125,-0.84033203125,0.5380859375,2.0625,0.3125,-0.9375
2.2349999999999746,-2.0,-4.0,-3.0,-5.0,-2.0,-1.0,-1.0,-2.0,0.479248046875,-0.12506103515625,0.313232421875,-0.810302734375,0.09033203125,-0.84033203125,0.5380859375,2.0625,0.3125,-0.9375
2.2399999999999745,-2.0,-4.0,-3.0,-5.0,-2.0,-1.0,-1.0,-2.0,0.479248046875,-0.12506103515625,0.313232421875,-0.810302734375,0.09033203125,-0.84033203125,0.5380859375,2.0625,0.3125,-0.9375
2.2449999999999743,-2.0,-4.0,-3.0,-5.0,-2.0,-1.0,-1.0,-2.0,0.479736328125,-0.12548828125,0.31280517578125,-0.81011962890625,0.08740234375,-0.8642578125,0.52294921875,-4.5625,-0.25,1.875
2.2499999999999742,-1.0,2.0,-3.0,-1.0,0.0,1.0,-1.0,0.0,0.479736328125,-0.12548828125,0.31280517578125,-0.81011962890625,0.08740234375,-0.8642578125,0.52294921875,-4.5625,-0.25,1.875
2.254999999999974,-2.0,1.0,2.0,0.0,-2.0,-1.0,-1.0,-1.0,0.479736328125,-0.12548828125,0.31280517578125,-0.81011962890625,0.08740234375,-0.8642578125,0.52294921875,-4.5625,-0.25,1.875
2.259999999999974,-2.0,-3.0,-3.0,-2.0,-5.0,-2.0,-2.0,-2.0,0.48028564453125,-0.1260986328125,0.31243896484375,-0.809814453125,0.08251953125,-0.8896484375,0.50439453125,-3.375,0.375,1.5
2.264999999999974,-2.0,-3.0,-3.0,-2.0,-5.0,-2.0,-2.0,-2.0,0.48028564453125,-0.1260986328125,0.31243896484375,-0.809814453125,0.08251953125,-0.8896484375,0.50439453125,-3.375,0.375,1.5
2.269999999999974,-2.0,-3.0,-3.0,-2.0,-5.0,-2.0,-2.0,-2.0,0.48028564453125,-0.1260986328125,0.31243896484375,-0.809814453125,0.08251953125,-0.8896484375,0.50439453125,-3.375,0.375,1.5
2.2749999999999737,0.0,-1.0,-1.0,2.0,8.0,2.0,1.0,0.0,0.48028564453125,-0.1260986328125,0.31243896484375,-0.809814453125,0.08251953125,-0.8896484375,0.50439453125,-3.375,0.375,1.5
2.2799999999999736,0.0,-1.0,-1.0,2.0,8.0,2.0,1.0,0.0,0.48028564453125,-0.12615966796875,0.3123779296875,-0.809814453125,0.08837890625,-0.88916015625,0.5107421875,-0.5,-0.0625,-0.4375
2.2849999999999735,0.0,-1.0,-1.0,2.0,8.0,2.0,1.0,0.0,0.48028564453125,-0.12615966796875,0.3123779296875,-0.809814453125,0.08837890625,-0.88916015625,0.5107421875,-0.5,-0.0625,-0.4375
2.2899999999999734,-2.0,-4.0,-1.0,-4.0,-6.0,-3.0,-1.0,-2.0,0.48028564453125,-0.12615966796875,0.3123779296875,-0.809814453125,0.08837890625,-0.88916015625,0.5107421875,-0.5,-0.0625,-0.4375
2.2949999999999733,-2.0,-4.0,-1.0,-4.0,-6.0,-3.0,-1.0,-2.0,0.48028564453125,-0.12615966796875,0.3123779296875,-0.809814453125,0.08837890625,-0.88916015625,0.5107421875,-0.5,-0.0625,-0.4375
2.299999999999973,-1.0,0.0,-2.0,-7.0,-14.0,-3.0,-2.0,-2.0,0.48028564453125,-0.12615966796875,0.3123779296875,-0.809814453125,0.08837890625,-0.88916015625,0.5107421875,-0.5,-0.0625,-0.4375
2.304999999999973,-1.0,0.0,-2.0,-7.0,-14.0,-3.0,-2.0,-2.0,0.48028564453125,-0.12615966796875,0.3123779296875,-0.809814453125,0.08837890625,-0.88916015625,0.5107421875,-0.5,-0.0625,-0.4375
2.309999999999973,-1.0,0.0,-2.0,-7.0,-14.0,-3.0,-2.0,-2.0,0.4801025390625,-0.125732421875,0.312744140625,-0.80987548828125,0.109375,-0.8505859375,0.51318359375,1.3125,-0.125,-1.625
2.314999999999973,-1.0,0.0,-2.0,-7.0,-14.0,-3.0,-2.0,-2.0,0.4801025390625,-0.125732421875,0.312744140625,-0.80987548828125,0.109375,-0.8505859375,0.51318359375,1.3125,-0.125,-1.625
2.3199999999999728,-2.0,-3.0,-2.0,-3.0,-7.0,-1.0,-1.0,0.0,0.4801025390625,-0.125732421875,0.312744140625,-0.80987548828125,0.109375,-0.8505859375,0.51318359375,1.3125,-0.125,-1.625
2.3249999999999726,-2.0,-3.0,-2.0,-3.0,-7.0,-1.0,-1.0,0.0,0.4801025390625,-0.125732421875,0.312744140625,-0.80987548828125,0.109375,-0.8505859375,0.51318359375,1.3125,-0.125,-1.625
2.3299999999999725,-3.0,0.0,-2.0,0.0,1.0,0.0,-2.0,-5.0,0.47991943359375,-0.12554931640625,0.31298828125,-0.80987548828125,0.10400390625,-0.8681640625,0.50927734375,1.625,0.1875,-1.25
2.3349999999999724,-3.0,0.0,-2.0,0.0,1.0,0.0,-2.0,-5.0,0.47991943359375,-0.12554931640625,0.31298828125,-0.80987548828125,0.10400390625,-0.8681640625,0.50927734375,1.625,0.1875,-1.25
2.3399999999999723,-3.0,0.0,-2.0,0.0,1.0,0.0,-2.0,-5.0,0.47991943359375,-0.12554931640625,0.31298828125,-0.80987548828125,0.10400390625,-0.8681640625,0.50927734375,1.625,0.1875,-1.25
2.344999999999972,-3.0,0.0,-2.0,0.0,1.0,0.0,-2.0,-5.0,0.47991943359375,-0.12554931640625,0.31298828125,-0.80987548828125,0.10400390625,-0.8681640625,0.50927734375,1.625,0.1875,-1.25
2.349999999999972,-3.0,-3.0,-4.0,-12.0,0.0,-1.0,-1.0,-2.0,0.47991943359375,-0.12554931640625,0.31298828125,-0.80987548828125,0.10400390625,-0.8681640625,0.50927734375,1.625,0.1875,-1.25
2.354999999999972,-3.0,-3.0,-4.0,-12.0,0.0,-1.0,-1.0,-2.0,0.47991943359375,-0.12554931640625,0.31298828125,-0.80987548828125,0.10400390625,-0.8681640625,0.50927734375,1.625,0.1875,-1.25
2.359999999999972,-3.0,-3.0,-4.0,-12.0,0.0,-1.0,-1.0,-2.0,0.47967529296875,-0.1253662109375,0.31304931640625,-0.81005859375,0.09814453125,-0.8525390625,0.51806640625,1.3125,-0.25,-0.375
2.364999999999972,-3.0,-3.0,-4.0,-12.0,0.0,-1.0,-1.0,-2.0,0.47967529296875,-0.1253662109375,0.31304931640625,-0.81005859375,0.09814453125,-0.8525390625,0.51806640625,1.3125,-0.25,-0.375
2.3699999999999717,0.0,0.0,-2.0,2.0,3.0,-1.0,-2.0,1.0,0.47967529296875,-0.1253662109375,0.31304931640625,-0.81005859375,0.09814453125,-0.8525390625,0.51806640625,1.3125,-0.25,-0.375
2.3749999999999716,0.0,0.0,-2.0,2.0,3.0,-1.0,-2.0,1.0,0.47967529296875,-0.1253662109375,0.31304931640625,-0.81005859375,0.09814453125,-0.8525390625,0.51806640625,1.3125,-0.25,-0.375
2.3799999999999715,1.0,-3.0,-2.0,1.0,-2.0,-3.0,-1.0,0.0,0.47967529296875,-0.1253662109375,0.31304931640625,-0.81005859375,0.09814453125,-0.8525390625,0.51806640625,1.3125,-0.25,-0.375
2.3849999999999714,1.0,-3.0,-2.0,1.0,-2.0,-3.0,-1.0,0.0,0.47967529296875,-0.1253662109375,0.31304931640625,-0.81005859375,0.09814453125,-0.8525390625,0.51806640625,1.3125,-0.25,-0.375
2.3899999999999713,1.0,-3.0,-2.0,1.0,-2.0,-3.0,-1.0,0.0,0.48004150390625,-0.1256103515625,0.3128662109375,-0.80987548828125,0.0966796875,-0.87451171875,0.51171875,-2.3125,-0.125,0.6875
2.394999999999971,1.0,-3.0,-2.0,1.0,-2.0,-3.0,-1.0,0.0,0.48004150390625,-0.1256103515625,0.3128662109375,-0.80987548828125,0.0966796875,-0.87451171875,0.51171875,-2.3125,-0.125,0.6875
2.399999999999971,-1.0,-2.0,-2.0,-1.0,-4.0,-2.0,-1.0,-2.0,0.48004150390625,-0.1256103515625,0.3128662109375,-0.80987548828125,0.0966796875,-0.87451171875,0.51171875,-2.3125,-0.125,0.6875
2.404999999999971,-1.0,-2.0,-2.0,-1.0,-4.0,-2.0,-1.0,-2.0,0.48004150390625,-0.1256103515625,0.3128662109375,-0.80987548828125,0.0966796875,-0.87451171875,0.51171875,-2.3125,-0.125,0.6875
2.409999999999971,-1.0,-1.0,2.0,19.0,1.0,-3.0,-3.0,0.0,0.47991943359375,-0.12591552734375,0.31256103515625,-0.80999755859375,0.0830078125,-0.87451171875,0.521484375,-0.25,0.0,1.6875
2.4149999999999707,-1.0,-1.0,2.0,19.0,1.0,-3.0,-3.0,0.0,0.47991943359375,-0.12591552734375,0.31256103515625,-0.80999755859375,0.0830078125,-0.87451171875,0.521484375,-0.25,0.0,1.6875
2.4199999999999706,-1.0,-1.0,2.0,19.0,1.0,-3.0,-3.0,0.0,0.47991943359375,-0.12591552734375,0.31256103515625,-0.80999755859375,0.0830078125,-0.87451171875,0.521484375,-0.25,0.0,1.6875
2.4249999999999705,-1.0,-1.0,2.0,19.0,1.0,-3.0,-3.0,0.0,0.47991943359375,-0.12591552734375,0.31256103515625,-0.80999755859375,0.0830078125,-0.87451171875,0.521484375,-0.25,0.0,1.6875
2.4299999999999704,0.0,0.0,0.0,1.0,7.0,1.0,0.0,0.0,0.47991943359375,-0.12591552734375,0.31256103515625,-0.80999755859375,0.0830078125,-0.87451171875,0.521484375,-0.25,0.0,1.6875
2.4349999999999703,0.0,0.0,0.0,1.0,7.0,1.0,0.0,0.0,0.48016357421875,-0.1260986328125,0.3123779296875,-0.80987548828125,0.0888671875,-0.86767578125,0.50732421875,-1.625,-0.0625,0.5625
2.43999999999997,0.0,0.0,0.0,1.0,7.0,1.0,0.0,0.0,0.48016357421875,-0.1260986328125,0.3123779296875,-0.80987548828125,0.0888671875,-0.86767578125,0.50732421875,-1.625,-0.0625,0.5625
2.44499999999997,-1.0,-3.0,-3.0,5.0,13.0,-1.0,-2.0,-3.0,0.48016357421875,-0.1260986328125,0.3123779296875,-0.80987548828125,0.0888671875,-0.86767578125,0.50732421875,-1.625,-0.0625,0.5625
2.44999999999997,-1.0,-3.0,-3.0,5.0,13.0,-1.0,-2.0,-3.0,0.48016357421875,-0.1260986328125,0.3123779296875,-0.80987548828125,0.0888671875,-0.86767578125,0.50732421875,-1.625,-0.0625,0.5625
2.45499999999997,-2.0,-2.0,-2.0,-3.0,7.0,1.0,-3.0,-1.0,0.48016357421875,-0.1260986328125,0.3123779296875,-0.80987548828125,0.0888671875,-0.86767578125,0.50732421875,-1.625,-0.0625,0.5625
2.4599999999999698,-2.0,-2.0,-2.0,-3.0,7.0,1.0,-3.0,-1.0,0.48016357421875,-0.1260986328125,0.3123779296875,-0.80987548828125,0.0888671875,-0.86767578125,0.50732421875,-1.625,-0.0625,0.5625
2.4649999999999697,-2.0,-2.0,-2.0,-3.0,7.0,1.0,-3.0,-1.0,0.4803466796875,-0.12628173828125,0.312255859375,-0.809814453125,0.09423828125,-0.86962890625,0.51318359375,-1.3125,-0.1875,0.625
2.4699999999999696,-2.0,-2.0,-2.0,-3.0,7.0,1.0,-3.0,-1.0,0.4803466796875,-0.12628173828125,0.312255859375,-0.809814453125,0.09423828125,-0.86962890625,0.51318359375,-1.3125,-0.1875,0.625
2.4749999999999694,2.0,0.0,0.0,-4.0,-2.0,-1.0,2.0,0.0,0.4803466796875,-0.12628173828125,0.312255859375,-0.809814453125,0.09423828125,-0.86962890625,0.51318359375,-1.3125,-0.1875,0.625
2.4799999999999693,2.0,0.0,0.0,-4.0,-2.0,-1.0,2.0,0.0,0.4803466796875,-0.12628173828125,0.312255859375,-0.809814453125,0.09423828125,-0.86962890625,0.51318359375,-1.3125,-0.1875,0.625
2.4849999999999692,0.0,1.0,1.0,-2.0,-1.0,-1.0,-2.0,-2.0,0.48065185546875,-0.12628173828125,0.31219482421875,-0.8096923828125,0.095703125,-0.86865234375,0.50341796875,-1.3125,-0.25,-0.375
2.489999999999969,0.0,1.0,1.0,-2.0,-1.0,-1.0,-2.0,-2.0,0.48065185546875,-0.12628173828125,0.31219482421875,-0.8096923828125,0.095703125,-0.86865234375,0.50341796875,-1.3125,-0.25,-0.375
2.494999999999969,0.0,1.0,1.0,-2.0,-1.0,-1.0,-2.0,-2.0,0.48065185546875,-0.12628173828125,0.31219482421875,-0.8096923828125,0.095703125,-0.86865234375,0.50341796875,-1.3125,-0.25,-0.375
2.499999999999969,0.0,1.0,1.0,-2.0,-1.0,-1.0,-2.0,-2.0,0.48065185546875,-0.12628173828125,0.31219482421875,-0.8096923828125,0.095703125,-0.86865234375,0.50341796875,-1.3125,-0.25,-0.375
2.504999999999969,-3.0,-2.0,-2.0,-3.0,-5.0,-2.0,1.0,-1.0,0.48065185546875,-0.12628173828125,0.31219482421875,-0.8096923828125,0.095703125,-0.86865234375,0.50341796875,-1.3125,-0.25,-0.375
2.5099999999999687,-3.0,-2.0,-2.0,-3.0,-5.0,-2.0,1.0,-1.0,0.48065185546875,-0.12628173828125,0.31219482421875,-0.8096923828125,0.095703125,-0.86865234375,0.50341796875,-1.3125,-0.25,-0.375
2.5149999999999686,-3.0,-2.0,-2.0,-3.0,-5.0,-2.0,1.0,-1.0,0.48046875,-0.12615966796875,0.312255859375,-0.80975341796875,0.0947265625,-0.873046875,0.51513671875,1.3125,-0.375,-0.625
2.5199999999999685,-3.0,-2.0,-2.0,-3.0,-5.0,-2.0,1.0,-1.0,0.48046875,-0.12615966796875,0.312255859375,-0.80975341796875,0.0947265625,-0.873046875,0.51513671875,1.3125,-0.375,-0.625
2.5249999999999684,0.0,0.0,-1.0,-8.0,-7.0,-3.0,-1.0,0.0,0.48046875,-0.12615966796875,0.312255859375,-0.80975341796875,0.0947265625,-0.873046875,0.51513671875,1.3125,-0.375,-0.625
2.5299999999999683,0.0,0.0,-1.0,-8.0,-7.0,-3.0,-1.0,0.0,0.48046875,-0.12615966796875,0.312255859375,-0.80975341796875,0.0947265625,-0.873046875,0.51513671875,1.3125,-0.375,-0.625
2.534999999999968,-1.0,0.0,0.0,3.0,-2.0,-2.0,-1.0,-1.0,0.48046875,-0.12615966796875,0.312255859375,-0.80975341796875,0.0947265625,-0.873046875,0.51513671875,1.3125,-0.375,-0.625
2.539999999999968,-1.0,0.0,0.0,3.0,-2.0,-2.0,-1.0,-1.0,0.48046875,-0.12615966796875,0.312255859375,-0.80975341796875,0.0947265625,-0.873046875,0.51513671875,1.3125,-0.375,-0.625
2.544999999999968,-1.0,0.0,0.0,3.0,-2.0,-2.0,-1.0,-1.0,0.48046875,-0.12615966796875,0.312255859375,-0.809814453125,0.0908203125,-0.86083984375,0.51416015625,0.25,-0.3125,0.0625
2.549999999999968,-1.0,0.0,0.0,3.0,-2.0,-2.0,-1.0,-1.0,0.48046875,-0.12615966796875,0.312255859375,-0.809814453125,0.0908203125,-0.86083984375,0.51416015625,0.25,-0.3125,0.0625
2.5549999999999677,-2.0,0.0,-1.0,1.0,1.0,0.0,-2.0,-1.0,0.48046875,-0.12615966796875,0.312255859375,-0.809814453125,0.0908203125,-0.86083984375,0.51416015625,0.25,-0.3125,0.0625
2.5599999999999676,0.0,-1.0,-2.0,-2.0,-3.0,2.0,1.0,-1.0,0.48040771484375,-0.12615966796875,0.312255859375,-0.809814453125,0.08935546875,-0.8681640625,0.5166015625,-0.8125,-0.1875,0.5
2.5649999999999675,0.0,-1.0,-2.0,-2.0,-3.0,2.0,1.0,-1.0,0.48040771484375,-0.12615966796875,0.312255859375,-0.809814453125,0.08935546875,-0.8681640625,0.5166015625,-0.8125,-0.1875,0.5
2.5699999999999674,0.0,-1.0,-2.0,-2.0,-3.0,2.0,1.0,-1.0,0.48040771484375,-0.12615966796875,0.312255859375,-0.809814453125,0.08935546875,-0.8681640625,0.5166015625,-0.8125,-0.1875,0.5
2.5749999999999673,0.0,-2.0,-1.0,-9.0,-3.0,0.0,0.0,2.0,0.48040771484375,-0.12615966796875,0.312255859375,-0.809814453125,0.08935546875,-0.8681640625,0.5166015625,-0.8125,-0.1875,0.5
2.579999999999967,0.0,-2.0,-1.0,-9.0,-3.0,0.0,0.0,2.0,0.4805908203125,-0.1263427734375,0.3121337890625,-0.8096923828125,0.0927734375,-0.8671875,0.5126953125,-1.5625,-0.125,0.4375
2.584999999999967,0.0,-2.0,-1.0,-9.0,-3.0,0.0,0.0,2.0,0.4805908203125,-0.1263427734375,0.3121337890625,-0.8096923828125,0.0927734375,-0.8671875,0.5126953125,-1.5625,-0.125,0.4375
2.589999999999967,-1.0,0.0,-2.0,-4.0,-3.0,0.0,-1.0,-2.0,0.4805908203125,-0.1263427734375,0.3121337890625,-0.8096923828125,0.0927734375,-0.8671875,0.5126953125,-1.5625,-0.125,0.4375
2.594999999999967,-1.0,0.0,-2.0,-4.0,-3.0,0.0,-1.0,-2.0,0.4805908203125,-0.1263427734375,0.3121337890625,-0.8096923828125,0.0927734375,-0.8671875,0.5126953125,-1.5625,-0.125,0.4375
2.599999999999967,-3.0,-1.0,-1.0,-4.0,-2.0,-3.0,0.0,-3.0,0.4805908203125,-0.1263427734375,0.3121337890625,-0.8096923828125,0.0927734375,-0.8671875,0.5126953125,-1.5625,-0.125,0.4375
2.6049999999999667,-3.0,-1.0,-1.0,-4.0,-2.0,-3.0,0.0,-3.0,0.48077392578125,-0.1263427734375,0.3121337890625,-0.80963134765625,0.099609375,-0.87060546875,0.51318359375,-1.25,-0.25,-0.0625
2.6099999999999666,-3.0,-1.0,-1.0,-4.0,-2.0,-3.0,0.0,-3.0,0.48077392578125,-0.1263427734375,0.3121337890625,-0.80963134765625,0.099609375,-0.87060546875,0.51318359375,-1.25,-0.25,-0.0625
2.6149999999999665,0.0,-3.0,-2.0,2.0,-2.0,-2.0,0.0,1.0,0.48077392578125,-0.1263427734375,0.3121337890625,-0.80963134765625,0.099609375,-0.87060546875,0.51318359375,-1.25,-0.25,-0.0625
2.6199999999999664,0.0,-3.0,-2.0,2.0,-2.0,-2.0,0.0,1.0,0.48077392578125,-0.1263427734375,0.3121337890625,-0.80963134765625,0.099609375,-0.87060546875,0.51318359375,-1.25,-0.25,-0.0625
2.6249999999999662,-1.0,-1.0,1.0,3.0,2.0,-1.0,0.0,-2.0,0.48077392578125,-0.1263427734375,0.3121337890625,-0.80963134765625,0.099609375,-0.87060546875,0.51318359375,-1.25,-0.25,-0.0625
2.629999999999966,0.0,0.0,-3.0,-4.0,-4.0,-2.0,-1.0,0.0,0.4808349609375,-0.1263427734375,0.3121337890625,-0.8095703125,0.10107421875,-0.87060546875,0.5087890625,0.4375,-0.0625,-0.5
2.634999999999966,0.0,0.0,-3.0,-4.0,-4.0,-2.0,-1.0,0.0,0.4808349609375,-0.1263427734375,0.3121337890625,-0.8095703125,0.10107421875,-0.87060546875,0.5087890625,0.4375,-0.0625,-0.5
2.639999999999966,0.0,1.0,-1.0,1.0,5.0,1.0,0.0,0.0,0.4808349609375,-0.1263427734375,0.3121337890625,-0.8095703125,0.10107421875,-0.87060546875,0.5087890625,0.4375,-0.0625,-0.5
2.644999999999966,0.0,1.0,-1.0,1.0,5.0,1.0,0.0,0.0,0.4808349609375,-0.1263427734375,0.3121337890625,-0.8095703125,0.10107421875,-0.87060546875,0.5087890625,0.4375,-0.0625,-0.5
2.6499999999999657,0.0,1.0,-1.0,1.0,5.0,1.0,0.0,0.0,0.48077392578125,-0.1263427734375,0.3121337890625,-0.80963134765625,0.09521484375,-0.86376953125,0.51318359375,0.5625,-0.125,-0.125
2.6549999999999656,-2.0,0.0,-1.0,0.0,-3.0,-5.0,-3.0,-2.0,0.48077392578125,-0.1263427734375,0.3121337890625,-0.80963134765625,0.09521484375,-0.86376953125,0.51318359375,0.5625,-0.125,-0.125
2.6599999999999655,-2.0,-3.0,0.0,1.0,6.0,0.0,0.0,0.0,0.48077392578125,-0.1263427734375,0.3121337890625,-0.80963134765625,0.09521484375,-0.86376953125,0.51318359375,0.5625,-0.125,-0.125
2.6649999999999654,-2.0,-3.0,0.0,1.0,6.0,0.0,0.0,0.0,0.48077392578125,-0.1263427734375,0.3121337890625,-0.80963134765625,0.09521484375,-0.86376953125,0.51318359375,0.5625,-0.125,-0.125
2.6699999999999653,-1.0,-2.0,-1.0,3.0,2.0,-1.0,0.0,0.0,0.48077392578125,-0.1263427734375,0.3121337890625,-0.80963134765625,0.09228515625,-0.8701171875,0.5166015625,-0.875,-0.1875,0.25
2.674999999999965,-3.0,-1.0,0.0,-2.0,-2.0,0.0,-3.0,-1.0,0.48077392578125,-0.1263427734375,0.3121337890625,-0.80963134765625,0.09228515625,-0.8701171875,0.5166015625,-0.875,-0.1875,0.25
2.679999999999965,-1.0,-1.0,0.0,-3.0,-4.0,-3.0,-1.0,-2.0,0.48095703125,-0.12652587890625,0.31201171875,-0.80950927734375,0.08837890625,-0.865234375,0.51025390625,-1.375,-0.0625,0.1875
2.684999999999965,-1.0,-1.0,0.0,-3.0,-4.0,-3.0,-1.0,-2.0,0.48095703125,-0.12652587890625,0.31201171875,-0.80950927734375,0.08837890625,-0.865234375,0.51025390625,-1.375,-0.0625,0.1875
2.689999999999965,-1.0,-1.0,0.0,-3.0,-4.0,-3.0,-1.0,-2.0,0.48095703125,-0.12652587890625,0.31201171875,-0.80950927734375,0.08837890625,-0.865234375,0.51025390625,-1.375,-0.0625,0.1875
2.6949999999999648,-2.0,-3.0,-2.0,-6.0,4.0,-2.0,-1.0,-1.0,0.48095703125,-0.12652587890625,0.31201171875,-0.80950927734375,0.08837890625,-0.865234375,0.51025390625,-1.375,-0.0625,0.1875
2.6999999999999647,-1.0,-1.0,-4.0,0.0,0.0,-1.0,-1.0,-1.0,0.48095703125,-0.12652587890625,0.31201171875,-0.80950927734375,0.08837890625,-0.865234375,0.51025390625,-1.375,-0.0625,0.1875
2.7049999999999645,-1.0,-1.0,-4.0,0.0,0.0,-1.0,-1.0,-1.0,0.4810791015625,-0.1265869140625,0.31195068359375,-0.8094482421875,0.09228515625,-0.87158203125,0.515625,-1.25,-0.25,-0.0625
2.7099999999999644,-1.0,-1.0,-4.0,0.0,0.0,-1.0,-1.0,-1.0,0.4810791015625,-0.1265869140625,0.31195068359375,-0.8094482421875,0.09228515625,-0.87158203125,0.515625,-1.25,-0.25,-0.0625
2.7149999999999643,-2.0,0.0,0.0,2.0,2.0,1.0,0.0,0.0,0.4810791015625,-0.1265869140625,0.31195068359375,-0.8094482421875,0.09228515625,-0.87158203125,0.515625,-1.25,-0.25,-0.0625
2.7199999999999642,-2.0,0.0,0.0,2.0,2.0,1.0,0.0,0.0,0.4810791015625,-0.1265869140625,0.31195068359375,-0.8094482421875,0.09228515625,-0.87158203125,0.515625,-1.25,-0.25,-0.0625
2.724999999999964,-2.0,0.0,0.0,2.0,2.0,1.0,0.0,0.0,0.4810791015625,-0.1265869140625,0.31195068359375,-0.8094482421875,0.09228515625,-0.87158203125,0.515625,-1.25,-0.25,-0.0625
2.729999999999964,-2.0,-1.0,0.0,3.0,-3.0,0.0,-1.0,-2.0,0.4810791015625,-0.1265869140625,0.31195068359375,-0.8094482421875,0.09228515625,-0.87158203125,0.515625,-1.25,-0.25,-0.0625
2.734999999999964,-2.0,-1.0,0.0,3.0,-3.0,0.0,-1.0,-2.0,0.4810791015625,-0.12652587890625,0.31195068359375,-0.8094482421875,0.10009765625,-0.8662109375,0.515625,0.25,-0.1875,-0.125
2.739999999999964,-1.0,-1.0,0.0,-7.0,-2.0,-1.0,0.0,-2.0,0.4810791015625,-0.12652587890625,0.31195068359375,-0.8094482421875,0.10009765625,-0.8662109375,0.515625,0.25,-0.1875,-0.125
2.7449999999999637,-1.0,-1.0,0.0,-7.0,-2.0,-1.0,0.0,-2.0,0.4810791015625,-0.12652587890625,0.31195068359375,-0.8094482421875,0.10009765625,-0.8662109375,0.515625,0.25,-0.1875,-0.125
2.7499999999999636,-1.0,-1.0,-2.0,-1.0,-4.0,-2.0,-1.0,-2.0,0.4810791015625,-0.12652587890625,0.31195068359375,-0.8094482421875,0.09619140625,-0.86669921875,0.50927734375,0.25,-0.25,-0.5625
2.7549999999999635,-1.0,-1.0,-2.0,-1.0,-4.0,-2.0,-1.0,-2.0,0.4810791015625,-0.12652587890625,0.31195068359375,-0.8094482421875,0.09619140625,-0.86669921875,0.50927734375,0.25,-0.25,-0.5625
2.7599999999999634,0.0,-2.0,-2.0,0.0,-1.0,-3.0,-3.0,-1.0,0.4810791015625,-0.12652587890625,0.31195068359375,-0.8094482421875,0.09619140625,-0.86669921875,0.50927734375,0.25,-0.25,-0.5625
2.7649999999999633,0.0,-2.0,-2.0,0.0,-1.0,-3.0,-3.0,-1.0,0.4810791015625,-0.12652587890625,0.31195068359375,-0.8094482421875,0.09619140625,-0.86669921875,0.50927734375,0.25,-0.25,-0.5625
2.769999999999963,0.0,-2.0,-2.0,0.0,-1.0,-3.0,-3.0,-1.0,0.4810791015625,-0.1265869140625,0.31195068359375,-0.8094482421875,0.09326171875,-0.8671875,0.5126953125,-0.3125,-0.1875,-0.25
2.774999999999963,0.0,-2.0,-2.0,0.0,-1.0,-3.0,-3.0,-1.0,0.4810791015625,-0.1265869140625,0.31195068359375,-0.8094482421875,0.09326171875,-0.8671875,0.5126953125,-0.3125,-0.1875,-0.25
2.779999999999963,0.0,-3.0,-2.0,0.0,-5.0,-2.0,-2.0,-1.0,0.4810791015625,-0.1265869140625,0.31195068359375,-0.8094482421875,0.09326171875,-0.8671875,0.5126953125,-0.3125,-0.1875,-0.25
2.784999999999963,1.0,-1.0,-2.0,-6.0,-1.0,-1.0,0.0,-3.0,0.4810791015625,-0.1265869140625,0.31195068359375,-0.8094482421875,0.09326171875,-0.8671875,0.5126953125,-0.3125,-0.1875,-0.25
2.7899999999999627,1.0,-1.0,-2.0,-6.0,-1.0,-1.0,0.0,-3.0,0.48126220703125,-0.126708984375,0.3118896484375,-0.80938720703125,0.0927734375,-0.86767578125,0.5146484375,-1.6875,0.0625,0.3125
2.7949999999999626,1.0,-1.0,-2.0,-6.0,-1.0,-1.0,0.0,-3.0,0.48126220703125,-0.126708984375,0.3118896484375,-0.80938720703125,0.0927734375,-0.86767578125,0.5146484375,-1.6875,0.0625,0.3125
2.7999999999999625,-3.0,-4.0,-4.0,-10.0,0.0,0.0,1.0,0.0,0.48126220703125,-0.126708984375,0.3118896484375,-0.80938720703125,0.0927734375,-0.86767578125,0.5146484375,-1.6875,0.0625,0.3125
2.8049999999999624,-2.0,-3.0,0.0,4.0,2.0,-1.0,0.0,-2.0,0.48126220703125,-0.126708984375,0.3118896484375,-0.80938720703125,0.0927734375,-0.86767578125,0.5146484375,-1.6875,0.0625,0.3125
2.8099999999999623,-2.0,-3.0,0.0,4.0,2.0,-1.0,0.0,-2.0,0.48126220703125,-0.126708984375,0.3118896484375,-0.80938720703125,0.0927734375,-0.86767578125,0.5146484375,-1.6875,0.0625,0.3125
2.814999999999962,-2.0,-3.0,0.0,4.0,2.0,-1.0,0.0,-2.0,0.4814453125,-0.12689208984375,0.31170654296875,-0.80926513671875,0.08984375,-0.880859375,0.50732421875,-1.1875,-0.0625,0.375
2.819999999999962,-2.0,-3.0,0.0,4.0,2.0,-1.0,0.0,-2.0,0.4814453125,-0.12689208984375,0.31170654296875,-0.80926513671875,0.08984375,-0.880859375,0.50732421875,-1.1875,-0.0625,0.375
2.824999999999962,-1.0,0.0,-1.0,1.0,-2.0,-1.0,0.0,0.0,0.4814453125,-0.12689208984375,0.31170654296875,-0.80926513671875,0.08984375,-0.880859375,0.50732421875,-1.1875,-0.0625,0.375
2.829999999999962,-2.0,0.0,-4.0,-3.0,-3.0,-2.0,-3.0,-2.0,0.4814453125,-0.12689208984375,0.31170654296875,-0.80926513671875,0.0947265625,-0.8740234375,0.51220703125,0.5,-0.0625,-0.0625
2.8349999999999618,-2.0,0.0,-4.0,-3.0,-3.0,-2.0,-3.0,-2.0,0.4814453125,-0.12689208984375,0.31170654296875,-0.80926513671875,0.0947265625,-0.8740234375,0.51220703125,0.5,-0.0625,-0.0625
2.8399999999999617,-1.0,-1.0,-2.0,-1.0,-2.0,-2.0,0.0,-2.0,0.4814453125,-0.12689208984375,0.31170654296875,-0.80926513671875,0.0947265625,-0.8740234375,0.51220703125,0.5,-0.0625,-0.0625
2.8449999999999616,-2.0,1.0,1.0,5.0,-2.0,-3.0,-2.0,-2.0,0.4814453125,-0.12689208984375,0.31170654296875,-0.80926513671875,0.0947265625,-0.8740234375,0.51220703125,0.5,-0.0625,-0.0625
2.8499999999999615,-2.0,1.0,1.0,5.0,-2.0,-3.0,-2.0,-2.0,0.481201171875,-0.12677001953125,0.31182861328125,-0.80938720703125,0.09716796875,-0.8642578125,0.5146484375,1.3125,0.0,-0.375
2.8549999999999613,-2.0,1.0,-2.0,1.0,4.0,0.0,0.0,-1.0,0.481201171875,-0.12677001953125,0.31182861328125,-0.80938720703125,0.09716796875,-0.8642578125,0.5146484375,1.3125,0.0,-0.375
2.8599999999999612,-2.0,1.0,-2.0,1.0,4.0,0.0,0.0,-1.0,0.481201171875,-0.12677001953125,0.31182861328125,-0.80938720703125,0.09716796875,-0.8642578125,0.5146484375,1.3125,0.0,-0.375
2.864999999999961,-2.0,1.0,-2.0,1.0,4.0,0.0,0.0,-1.0,0.481201171875,-0.12677001953125,0.31182861328125,-0.80938720703125,0.09716796875,-0.8642578125,0.5146484375,1.3125,0.0,-0.375
2.869999999999961,-1.0,0.0,-1.0,23.0,15.0,-2.0,-3.0,0.0,0.481201171875,-0.12677001953125,0.31182861328125,-0.80938720703125,0.09716796875,-0.8671875,0.509765625,0.1875,-0.3125,-0.625
2.874999999999961,-1.0,0.0,-1.0,23.0,15.0,-2.0,-3.0,0.0,0.481201171875,-0.12677001953125,0.31182861328125,-0.80938720703125,0.09716796875,-0.8671875,0.509765625,0.1875,-0.3125,-0.625
2.879999999999961,-1.0,0.0,-1.0,23.0,15.0,-2.0,-3.0,0.0,0.481201171875,-0.12677001953125,0.31182861328125,-0.80938720703125,0.09716796875,-0.8671875,0.509765625,0.1875,-0.3125,-0.625
2.8849999999999607,-1.0,0.0,-2.0,-3.0,-1.0,1.0,1.0,0.0,0.481201171875,-0.12677001953125,0.31182861328125,-0.80938720703125,0.09716796875,-0.8671875,0.509765625,0.1875,-0.3125,-0.625
2.8899999999999606,-1.0,0.0,-2.0,-3.0,-1.0,1.0,1.0,0.0,0.481201171875,-0.12677001953125,0.31182861328125,-0.80938720703125,0.09716796875,-0.8671875,0.509765625,0.1875,-0.3125,-0.625
2.8949999999999605,-1.0,0.0,-2.0,-3.0,-1.0,1.0,1.0,0.0,0.481201171875,-0.12677001953125,0.31182861328125,-0.80938720703125,0.0927734375,-0.87060546875,0.51123046875,-0.25,-0.125,-0.375
2.8999999999999604,-1.0,0.0,-2.0,-3.0,-1.0,1.0,1.0,0.0,0.481201171875,-0.12677001953125,0.31182861328125,-0.80938720703125,0.0927734375,-0.87060546875,0.51123046875,-0.25,-0.125,-0.375
2.9049999999999603,0.0,-2.0,0.0,2.0,0.0,2.0,0.0,-1.0,0.481201171875,-0.12677001953125,0.31182861328125,-0.80938720703125,0.0927734375,-0.87060546875,0.51123046875,-0.25,-0.125,-0.375
2.90999999999996,0.0,-2.0,0.0,2.0,0.0,2.0,0.0,-1.0,0.481201171875,-0.12677001953125,0.31182861328125,-0.80938720703125,0.0927734375,-0.87060546875,0.51123046875,-0.25,-0.125,-0.375
2.91499999999996,2.0,-1.0,-1.0,-7.0,-2.0,-1.0,0.0,0.0,0.481201171875,-0.12677001953125,0.31182861328125,-0.80938720703125,0.0927734375,-0.87060546875,0.51123046875,-0.25,-0.125,-0.375
2.91999999999996,2.0,-1.0,-1.0,-7.0,-2.0,-1.0,0.0,0.0,0.481201171875,-0.12677001953125,0.31182861328125,-0.80938720703125,0.0927734375,-0.87060546875,0.51123046875,-0.25,-0.125,-0.375
2.92499999999996,2.0,-1.0,-1.0,-7.0,-2.0,-1.0,0.0,0.0,0.481201171875,-0.12677001953125,0.31182861328125,-0.8094482421875,0.0927734375,-0.86669921875,0.51904296875,-0.0625,0.0,0.25
2.9299999999999597,2.0,-1.0,-1.0,-7.0,-2.0,-1.0,0.0,0.0,0.481201171875,-0.12677001953125,0.31182861328125,-0.8094482421875,0.0927734375,-0.86669921875,0.51904296875,-0.0625,0.0,0.25
2.9349999999999596,0.0,1.0,0.0,-1.0,-4.0,1.0,-2.0,-1.0,0.481201171875,-0.12677001953125,0.31182861328125,-0.8094482421875,0.0927734375,-0.86669921875,0.51904296875,-0.0625,0.0,0.25
2.9399999999999595,0.0,1.0,0.0,-1.0,-4.0,1.0,-2.0,-1.0,0.481201171875,-0.12677001953125,0.31182861328125,-0.8094482421875,0.0927734375,-0.86669921875,0.51904296875,-0.0625,0.0,0.25
2.9449999999999594,-1.0,-1.0,-3.0,-8.0,-3.0,3.0,1.0,-1.0,0.481201171875,-0.1268310546875,0.31182861328125,-0.8094482421875,0.0888671875,-0.86767578125,0.50927734375,0.125,0.0,0.0625
2.9499999999999593,-1.0,-1.0,-3.0,-8.0,-3.0,3.0,1.0,-1.0,0.481201171875,-0.1268310546875,0.31182861328125,-0.8094482421875,0.0888671875,-0.86767578125,0.50927734375,0.125,0.0,0.0625
2.954999999999959,-1.0,-1.0,-3.0,-8.0,-3.0,3.0,1.0,-1.0,0.481201171875,-0.1268310546875,0.31182861328125,-0.8094482421875,0.0888671875,-0.86767578125,0.50927734375,0.125,0.0,0.0625
2.959999999999959,-1.0,-1.0,-3.0,-8.0,-3.0,3.0,1.0,-1.0,0.481201171875,-0.1268310546875,0.31182861328125,-0.8094482421875,0.0888671875,-0.86767578125,0.50927734375,0.125,0.0,0.0625
2.964999999999959,0.0,2.0,1.0,1.0,-1.0,-2.0,0.0,-2.0,0.481201171875,-0.1268310546875,0.31182861328125,-0.8094482421875,0.0888671875,-0.86767578125,0.50927734375,0.125,0.0,0.0625
2.969999999999959,0.0,2.0,1.0,1.0,-1.0,-2.0,0.0,-2.0,0.481201171875,-0.1268310546875,0.31182861328125,-0.8094482421875,0.0888671875,-0.86767578125,0.50927734375,0.125,0.0,0.0625
2.974999999999959,-1.0,0.0,0.0,6.0,-3.0,-4.0,-4.0,-1.0,0.481201171875,-0.1268310546875,0.31182861328125,-0.8094482421875,0.09619140625,-0.865234375,0.51220703125,-0.4375,-0.125,-0.3125
2.9799999999999587,0.0,-1.0,-2.0,-6.0,8.0,4.0,-1.0,-2.0,0.481201171875,-0.1268310546875,0.31182861328125,-0.8094482421875,0.09619140625,-0.865234375,0.51220703125,-0.4375,-0.125,-0.3125
2.9849999999999586,0.0,-1.0,-2.0,-6.0,8.0,4.0,-1.0,-2.0,0.481201171875,-0.1268310546875,0.31182861328125,-0.8094482421875,0.09619140625,-0.865234375,0.51220703125,-0.4375,-0.125,-0.3125
2.9899999999999585,0.0,-1.0,-2.0,-6.0,8.0,4.0,-1.0,-2.0,0.481201171875,-0.1268310546875,0.31182861328125,-0.8094482421875,0.09619140625,-0.865234375,0.51220703125,-0.4375,-0.125,-0.3125
2.9949999999999584,-1.0,-1.0,0.0,-1.0,-7.0,-3.0,1.0,0.0,0.481201171875,-0.1268310546875,0.31182861328125,-0.8094482421875,0.09619140625,-0.865234375,0.51220703125,-0.4375,-0.125,-0.3125
2.9999999999999583,-1.0,-1.0,0.0,-1.0,-7.0,-3.0,1.0,0.0,0.481201171875,-0.1268310546875,0.31182861328125,-0.8094482421875,0.09619140625,-0.865234375,0.51220703125,-0.4375,-0.125,-0.3125
3.004999999999958,-1.0,-1.0,0.0,-1.0,-7.0,-3.0,1.0,0.0,0.481201171875,-0.1268310546875,0.31182861328125,-0.8094482421875,0.09375,-0.8681640625,0.50634765625,-0.3125,-0.375,-0.6875
3.009999999999958,-1.0,-1.0,0.0,-1.0,-7.0,-3.0,1.0,0.0,0.481201171875,-0.1268310546875,0.31182861328125,-0.8094482421875,0.09375,-0.8681640625,0.50634765625,-0.3125,-0.375,-0.6875
3.014999999999958,0.0,-2.0,-3.0,-4.0,-13.0,-5.0,-1.0,-1.0,0.481201171875,-0.1268310546875,0.31182861328125,-0.8094482421875,0.09375,-0.8681640625,0.50634765625,-0.3125,-0.375,-0.6875
3.019999999999958,0.0,-2.0,-3.0,-4.0,-13.0,-5.0,-1.0,-1.0,0.481201171875,-0.1268310546875,0.31182861328125,-0.8094482421875,0.09375,-0.8681640625,0.50634765625,-0.3125,-0.375,-0.6875
3.0249999999999577,-2.0,-2.0,-2.0,-3.0,10.0,-1.0,-1.0,-1.0,0.481201171875,-0.1268310546875,0.31182861328125,-0.80938720703125,0.09130859375,-0.8740234375,0.5029296875,0.0625,-0.3125,-0.625
3.0299999999999576,-2.0,-2.0,-2.0,-3.0,10.0,-1.0,-1.0,-1.0,0.481201171875,-0.1268310546875,0.31182861328125,-0.80938720703125,0.09130859375,-0.8740234375,0.5029296875,0.0625,-0.3125,-0.625
3.0349999999999575,-2.0,-2.0,-2.0,-3.0,10.0,-1.0,-1.0,-1.0,0.481201171875,-0.1268310546875,0.31182861328125,-0.80938720703125,0.09130859375,-0.8740234375,0.5029296875,0.0625,-0.3125,-0.625
3.0399999999999574,-2.0,-1.0,-1.0,-3.0,-4.0,-2.0,-1.0,-1.0,0.481201171875,-0.1268310546875,0.31182861328125,-0.80938720703125,0.09130859375,-0.8740234375,0.5029296875,0.0625,-0.3125,-0.625
3.0449999999999573,-2.0,-1.0,-1.0,-3.0,-4.0,-2.0,-1.0,-1.0,0.481201171875,-0.1268310546875,0.31182861328125,-0.80938720703125,0.09130859375,-0.8740234375,0.5029296875,0.0625,-0.3125,-0.625
3.049999999999957,0.0,-1.0,-3.0,-3.0,-3.0,-1.0,-1.0,-2.0,0.481201171875,-0.1268310546875,0.31182861328125,-0.80938720703125,0.09130859375,-0.8740234375,0.5029296875,0.0625,-0.3125,-0.625
3.054999999999957,0.0,-1.0,-3.0,-3.0,-3.0,-1.0,-1.0,-2.0,0.481201171875,-0.1268310546875,0.311767578125,-0.8094482421875,0.09228515625,-0.87060546875,0.517578125,0.0625,-0.1875,-0.4375
3.059999999999957,-2.0,-2.0,-2.0,-2.0,-1.0,-2.0,-2.0,-1.0,0.481201171875,-0.1268310546875,0.311767578125,-0.8094482421875,0.09228515625,-0.87060546875,0.517578125,0.0625,-0.1875,-0.4375
3.064999999999957,-2.0,-2.0,-2.0,-2.0,-1.0,-2.0,-2.0,-1.0,0.481201171875,-0.1268310546875,0.311767578125,-0.8094482421875,0.09228515625,-0.87060546875,0.517578125,0.0625,-0.1875,-0.4375
3.0699999999999568,-2.0,-2.0,0.0,-7.0,-6.0,1.0,-1.0,-3.0,0.481201171875,-0.1268310546875,0.311767578125,-0.8094482421875,0.09228515625,-0.87060546875,0.517578125,0.0625,-0.1875,-0.4375
3.0749999999999567,-2.0,-2.0,0.0,-7.0,-6.0,1.0,-1.0,-3.0,0.481201171875,-0.1268310546875,0.311767578125,-0.8094482421875,0.09228515625,-0.87060546875,0.517578125,0.0625,-0.1875,-0.4375
3.0799999999999566,-2.0,-2.0,0.0,-7.0,-6.0,1.0,-1.0,-3.0,0.48114013671875,-0.1268310546875,0.311767578125,-0.8094482421875,0.091796875,-0.8681640625,0.51611328125,0.0625,-0.125,-0.25
3.0849999999999564,-2.0,-2.0,0.0,-7.0,-6.0,1.0,-1.0,-3.0,0.48114013671875,-0.1268310546875,0.311767578125,-0.8094482421875,0.091796875,-0.8681640625,0.51611328125,0.0625,-0.125,-0.25
3.0899999999999563,-2.0,-3.0,-1.0,-1.0,-2.0,-3.0,-1.0,-1.0,0.48114013671875,-0.1268310546875,0.311767578125,-0.8094482421875,0.091796875,-0.8681640625,0.51611328125,0.0625,-0.125,-0.25
3.0949999999999562,-2.0,-3.0,-1.0,-1.0,-2.0,-3.0,-1.0,-1.0,0.48114013671875,-0.1268310546875,0.311767578125,-0.8094482421875,0.091796875,-0.8681640625,0.51611328125,0.0625,-0.125,-0.25
3.099999999999956,-1.0,-1.0,-1.0,-3.0,-9.0,3.0,-2.0,0.0,0.48114013671875,-0.1268310546875,0.311767578125,-0.8094482421875,0.095703125,-0.86865234375,0.51220703125,0.3125,-0.1875,-0.375
3.104999999999956,-1.0,-1.0,-1.0,-3.0,-9.0,3.0,-2.0,0.0,0.48114013671875,-0.1268310546875,0.311767578125,-0.8094482421875,0.095703125,-0.86865234375,0.51220703125,0.3125,-0.1875,-0.375
3.109999999999956,-1.0,-1.0,-1.0,-3.0,-9.0,3.0,-2.0,0.0,0.48114013671875,-0.1268310546875,0.311767578125,-0.8094482421875,0.095703125,-0.86865234375,0.51220703125,0.3125,-0.1875,-0.375
3.114999999999956,-1.0,-1.0,-1.0,-3.0,-9.0,3.0,-2.0,0.0,0.48114013671875,-0.1268310546875,0.311767578125,-0.8094482421875,0.095703125,-0.86865234375,0.51220703125,0.3125,-0.1875,-0.375
3.1199999999999557,1.0,-1.0,0.0,0.0,-1.0,-1.0,0.0,0.0,0.48114013671875,-0.1268310546875,0.311767578125,-0.8094482421875,0.095703125,-0.86865234375,0.51220703125,0.3125,-0.1875,-0.375
3.1249999999999556,1.0,-1.0,0.0,0.0,-1.0,-1.0,0.0,0.0,0.48114013671875,-0.1268310546875,0.311767578125,-0.8094482421875,0.095703125,-0.86865234375,0.51220703125,0.3125,-0.1875,-0.375
3.1299999999999555,0.0,-3.0,0.0,0.0,1.0,-1.0,0.0,-1.0,0.48114013671875,-0.1268310546875,0.31182861328125,-0.8094482421875,0.099609375,-0.869140625,0.51025390625,-0.1875,-0.375,-0.5625
3.1349999999999554,-1.0,0.0,-3.0,3.0,-1.0,0.0,0.0,-2.0,0.48114013671875,-0.1268310546875,0.31182861328125,-0.8094482421875,0.099609375,-0.869140625,0.51025390625,-0.1875,-0.375,-0.5625
3.1399999999999553,-2.0,0.0,0.0,-1.0,2.0,1.0,0.0,-1.0,0.48114013671875,-0.1268310546875,0.31182861328125,-0.8094482421875,0.099609375,-0.869140625,0.51025390625,-0.1875,-0.375,-0.5625
3.144999999999955,1.0,0.0,-1.0,-17.0,-11.0,0.0,0.0,1.0,0.48114013671875,-0.1268310546875,0.31182861328125,-0.8094482421875,0.099609375,-0.869140625,0.51025390625,-0.1875,-0.375,-0.5625
3.149999999999955,1.0,0.0,-1.0,-17.0,-11.0,0.0,0.0,1.0,0.48114013671875,-0.1268310546875,0.31182861328125,-0.8094482421875,0.099609375,-0.869140625,0.51025390625,-0.1875,-0.375,-0.5625
3.154999999999955,1.0,0.0,-1.0,-17.0,-11.0,0.0,0.0,1.0,0.48114013671875,-0.1268310546875,0.31182861328125,-0.8094482421875,0.099609375,-0.8671875,0.513671875,0.0625,-0.375,-0.625
3.159999999999955,1.0,0.0,-1.0,-17.0,-11.0,0.0,0.0,1.0,0.48114013671875,-0.1268310546875,0.31182861328125,-0.8094482421875,0.099609375,-0.8671875,0.513671875,0.0625,-0.375,-0.625
3.1649999999999547,-2.0,-3.0,-3.0,-3.0,-2.0,0.0,-1.0,-2.0,0.48114013671875,-0.1268310546875,0.31182861328125,-0.8094482421875,0.099609375,-0.8671875,0.513671875,0.0625,-0.375,-0.625
3.1699999999999546,-1.0,0.0,-2.0,3.0,-1.0,-3.0,0.0,-1.0,0.48114013671875,-0.1268310546875,0.31182861328125,-0.8094482421875,0.099609375,-0.8671875,0.513671875,0.0625,-0.375,-0.625
3.1749999999999545,-1.0,0.0,-2.0,3.0,-1.0,-3.0,0.0,-1.0,0.48114013671875,-0.1268310546875,0.31182861328125,-0.8094482421875,0.0927734375,-0.8681640625,0.51025390625,0.3125,-0.25,-0.5
3.1799999999999544,-1.0,0.0,-2.0,3.0,-1.0,-3.0,0.0,-1.0,0.48114013671875,-0.1268310546875,0.31182861328125,-0.8094482421875,0.0927734375,-0.8681640625,0.51025390625,0.3125,-0.25,-0.5
3.1849999999999543,-1.0,0.0,-2.0,3.0,-1.0,-3.0,0.0,-1.0,0.48114013671875,-0.1268310546875,0.31182861328125,-0.8094482421875,0.0927734375,-0.8681640625,0.51025390625,0.3125,-0.25,-0.5
3.189999999999954,-1.0,-1.0,-2.0,-1.0,-4.0,-2.0,0.0,-1.0,0.48114013671875,-0.1268310546875,0.31182861328125,-0.8094482421875,0.0927734375,-0.8681640625,0.51025390625,0.3125,-0.25,-0.5
3.194999999999954,-1.0,-1.0,-2.0,-1.0,-4.0,-2.0,0.0,-1.0,0.48114013671875,-0.1268310546875,0.31182861328125,-0.8094482421875,0.0927734375,-0.8681640625,0.51025390625,0.3125,-0.25,-0.5
3.199999999999954,-1.0,-1.0,-2.0,-1.0,-4.0,-2.0,0.0,-1.0,0.48114013671875,-0.1268310546875,0.31182861328125,-0.8094482421875,0.0927734375,-0.8681640625,0.51025390625,0.3125,-0.25,-0.5
3.204999999999954,1.0,1.0,0.0,-3.0,0.0,2.0,-1.0,0.0,0.48114013671875,-0.1268310546875,0.31182861328125,-0.8094482421875,0.09716796875,-0.8671875,0.51025390625,0.375,-0.0625,0.0
3.209999999999954,0.0,-1.0,-1.0,2.0,-5.0,-1.0,-2.0,0.0,0.48114013671875,-0.1268310546875,0.31182861328125,-0.8094482421875,0.09716796875,-0.8671875,0.51025390625,0.375,-0.0625,0.0
3.2149999999999537,-2.0,-2.0,-1.0,2.0,5.0,-1.0,-3.0,-3.0,0.48114013671875,-0.1268310546875,0.31182861328125,-0.8094482421875,0.09716796875,-0.8671875,0.51025390625,0.375,-0.0625,0.0
3.2199999999999536,-2.0,-2.0,-1.0,2.0,5.0,-1.0,-3.0,-3.0,0.48114013671875,-0.1268310546875,0.31182861328125,-0.8094482421875,0.09716796875,-0.8671875,0.51025390625,0.375,-0.0625,0.0
3.2249999999999535,-2.0,-2.0,-1.0,2.0,5.0,-1.0,-3.0,-3.0,0.48114013671875,-0.1268310546875,0.31182861328125,-0.8094482421875,0.0888671875,-0.86083984375,0.5107421875,-0.25,-0.0625,0.1875
3.2299999999999534,1.0,-1.0,-3.0,-20.0,-5.0,1.0,1.0,0.0,0.48114013671875,-0.1268310546875,0.31182861328125,-0.8094482421875,0.0888671875,-0.86083984375,0.5107421875,-0.25,-0.0625,0.1875
3.2349999999999532,1.0,-1.0,-3.0,-20.0,-5.0,1.0,1.0,0.0,0.48114013671875,-0.1268310546875,0.31182861328125,-0.8094482421875,0.0888671875,-0.86083984375,0.5107421875,-0.25,-0.0625,0.1875
3.239999999999953,-1.0,-1.0,-1.0,-2.0,-1.0,-1.0,-1.0,-1.0,0.48126220703125,-0.12689208984375,0.311767578125,-0.80938720703125,0.09228515625,-0.869140625,0.5126953125,-1.25,-0.3125,-0.125
3.244999999999953,-1.0,-1.0,-1.0,-2.0,-1.0,-1.0,-1.0,-1.0,0.48126220703125,-0.12689208984375,0.311767578125,-0.80938720703125,0.09228515625,-0.869140625,0.5126953125,-1.25,-0.3125,-0.125
3.249999999999953,-1.0,-1.0,-1.0,-2.0,-1.0,-1.0,-1.0,-1.0,0.48126220703125,-0.12689208984375,0.311767578125,-0.80938720703125,0.09228515625,-0.869140625,0.5126953125,-1.25,-0.3125,-0.125
3.254999999999953,-3.0,-1.0,0.0,2.0,-2.0,0.0,-3.0,-2.0,0.48126220703125,-0.12689208984375,0.311767578125,-0.80938720703125,0.09228515625,-0.869140625,0.5126953125,-1.25,-0.3125,-0.125
3.2599999999999527,-3.0,-1.0,0.0,2.0,-2.0,0.0,-3.0,-2.0,0.48126220703125,-0.12689208984375,0.311767578125,-0.80938720703125,0.09228515625,-0.869140625,0.5126953125,-1.25,-0.3125,-0.125
3.2649999999999526,-2.0,-1.0,0.0,-2.0,-3.0,-4.0,-1.0,-1.0,0.4813232421875,-0.12689208984375,0.311767578125,-0.80938720703125,0.09375,-0.87158203125,0.5068359375,-0.8125,-0.375,-0.5
3.2699999999999525,-2.0,-1.0,0.0,-2.0,-3.0,-4.0,-1.0,-1.0,0.4813232421875,-0.12689208984375,0.311767578125,-0.80938720703125,0.09375,-0.87158203125,0.5068359375,-0.8125,-0.375,-0.5
3.2749999999999524,-2.0,-1.0,0.0,-2.0,-3.0,-4.0,-1.0,-1.0,0.4813232421875,-0.12689208984375,0.311767578125,-0.80938720703125,0.09375,-0.87158203125,0.5068359375,-0.8125,-0.375,-0.5
3.2799999999999523,-1.0,-3.0,-1.0,5.0,5.0,-2.0,-2.0,-3.0,0.4813232421875,-0.12689208984375,0.311767578125,-0.80938720703125,0.09375,-0.87158203125,0.5068359375,-0.8125,-0.375,-0.5
3.284999999999952,-1.0,-3.0,-1.0,5.0,5.0,-2.0,-2.0,-3.0,0.4813232421875,-0.12689208984375,0.311767578125,-0.80938720703125,0.09375,-0.87158203125,0.5068359375,-0.8125,-0.375,-0.5
3.289999999999952,-1.0,-3.0,-1.0,5.0,5.0,-2.0,-2.0,-3.0,0.4813232421875,-0.12689208984375,0.311767578125,-0.80938720703125,0.0966796875,-0.86865234375,0.5068359375,-0.125,-0.3125,-0.5625
3.294999999999952,-1.0,-3.0,-1.0,5.0,5.0,-2.0,-2.0,-3.0,0.4813232421875,-0.12689208984375,0.311767578125,-0.80938720703125,0.0966796875,-0.86865234375,0.5068359375,-0.125,-0.3125,-0.5625
3.299999999999952,-3.0,-2.0,1.0,6.0,2.0,-1.0,-1.0,-1.0,0.4813232421875,-0.12689208984375,0.311767578125,-0.80938720703125,0.0966796875,-0.86865234375,0.5068359375,-0.125,-0.3125,-0.5625
3.3049999999999518,-1.0,-3.0,-5.0,-7.0,-6.0,-2.0,-1.0,-3.0,0.4813232421875,-0.12689208984375,0.311767578125,-0.80938720703125,0.09375,-0.8701171875,0.515625,0.5,-0.3125,-0.5
3.3099999999999516,-1.0,-3.0,-5.0,-7.0,-6.0,-2.0,-1.0,-3.0,0.4813232421875,-0.12689208984375,0.311767578125,-0.80938720703125,0.09375,-0.8701171875,0.515625,0.5,-0.3125,-0.5
