timestamp,ch1,ch2,ch3,ch4,ch5,ch6,ch7,ch8,noise
0.005,-3,1,15,-7,-3,-3,-2,-2,0.0
0.01,2,-4,-12,20,6,2,-1,1,0.0
0.015,0,-5,-2,-14,-2,1,-1,-1,0.0
0.02,-2,5,1,17,-4,-3,-2,0,0.0
0.025,1,1,-12,-8,1,-1,-2,-2,0.0
0.03,1,1,-12,-1,-2,0,1,-2,0.0
0.035,-1,1,22,-10,-2,-3,-1,0,0.0
0.04,-1,0,8,-11,2,-1,-1,-3,0.0
0.045,1,0,-4,-1,1,-2,1,1,0.0
0.05,-3,-1,0,-10,1,1,0,-1,0.0
0.055,1,-3,-4,10,-2,1,-1,-1,0.0
0.06,-3,-2,-20,-11,0,-1,-1,0,0.0
0.065,4,26,26,-5,-3,-3,-3,-1,0.0
0.07,4,3,-21,6,1,0,0,-1,0.0
0.075,0,-1,15,-2,0,-2,0,-2,0.0
0.08,-3,-8,-15,-2,-1,-5,-2,-2,0.0
0.085,1,11,-7,-2,4,0,-1,-4,0.0
0.09,-3,-15,-5,-30,-8,1,1,1,0.0
0.095,1,8,-4,10,-1,0,-3,1,0.0
0.1,3,2,-5,-1,0,0,-2,2,0.0
0.105,-2,-5,17,9,-1,-1,-1,-2,0.0
0.11,-2,-5,-43,16,5,-5,1,-3,0.0
0.115,-3,-5,-14,-36,2,-1,0,-5,0.0
0.12,0,1,49,24,-1,-2,-3,0,0.0
0.125,-4,-15,-77,-27,-2,0,-1,-1,0.0
0.13,2,10,30,23,1,-1,-2,-2,0.0
0.135,-2,-18,-60,-11,-3,-1,-1,7,0.0
0.14,-6,-7,-33,-21,-3,-7,-2,-6,0.0
0.145,-1,-8,-14,3,1,1,1,1,0.0
0.15,-2,-2,-6,-19,-4,0,-2,-2,0.0
0.155,0,4,9,5,3,0,-2,-1,0.0
0.16,-1,-3,26,-1,-1,0,0,1,0.0
0.165,2,10,-4,7,-2,1,0,2,0.0
0.17,-13,-15,-26,-9,2,-5,-2,-9,0.0
0.17500000000000002,4,5,28,16,-1,0,0,3,0.0
0.18,-7,-7,9,-7,-2,-2,-4,-9,0.0
0.185,-4,-12,16,-1,-1,0,-1,-1,0.0
0.19,6,1,15,12,1,-2,-2,6,0.0
0.195,-5,2,2,-21,-5,-2,0,-5,0.0
0.2,-3,3,-2,-1,0,-1,0,-6,0.0
0.20500000000000002,2,-4,-13,5,-1,0,-1,8,0.0
0.21,-3,-1,20,-1,-4,-2,-2,-3,0.0
0.215,1,-1,-5,-5,1,2,-2,0,0.0
0.22,-5,-1,-19,-12,-2,-3,0,-3,0.0
0.225,0,1,-6,-3,0,-1,-1,-9,0.0
0.23,0,-4,13,16,-3,-1,-1,-1,0.0
0.23500000000000001,-3,-1,-1,-25,-2,-4,-1,-1,0.0
0.24,0,-1,0,-3,-3,-1,0,-1,0.0
0.245,-1,1,7,-2,2,-3,-3,-1,0.0
0.25,-1,-2,-7,10,2,-1,0,0,0.0
0.255,-5,-5,-7,0,-1,-2,-2,-5,0.0
0.26,1,-2,21,-6,-1,1,-1,1,0.0
0.265,-6,0,7,5,-2,-3,-2,-7,0.0
0.27,1,0,-8,5,-1,-2,-1,4,0.0
0.275,-1,0,15,16,2,-1,-2,-2,0.0
0.28,0,2,-16,-5,-2,-3,-2,2,0.0
0.28500000000000003,-1,-3,0,-7,-1,1,2,1,0.0
0.29,-2,-1,8,-8,1,1,-1,-3,0.0
0.295,-2,1,12,8,-1,-3,-1,-1,0.0
0.3,0,-3,-22,8,2,-1,-3,-3,0.0
0.305,-1,-2,-3,-21,0,-2,-2,-2,0.0
0.31,-3,-1,-30,-9,-2,-1,-2,-2,0.0
0.315,1,-1,4,2,-3,-1,0,-2,0.0
0.32,-2,0,22,3,0,-1,0,3,0.0
0.325,-3,-3,5,6,-4,-4,-3,-4,0.0
0.33,-3,-3,3,-13,-2,-3,-1,-2,0.0
0.335,-1,-1,-4,2,0,1,1,0,0.0
0.34,-1,-1,18,6,2,0,-2,-2,0.0
0.34500000000000003,-1,-2,-12,-2,-2,0,-2,3,0.0
0.35000000000000003,2,2,10,3,1,-3,-1,0,0.0
0.355,1,-4,-28,-12,1,0,-1,0,0.0
0.36,1,6,22,13,-1,-2,-2,-4,0.0
0.365,-1,-3,5,4,-4,1,0,1,0.0
0.37,-4,-1,-3,-10,0,-3,-3,-4,0.0
0.375,-1,-3,7,2,0,0,1,1,0.0
0.38,-3,-2,-10,0,-1,-4,-4,-5,0.0
0.385,-1,-2,8,12,0,-1,0,1,0.0
0.39,-2,-1,5,-8,-1,-1,-1,-2,0.0
0.395,0,-1,-4,12,3,-1,1,0,0.0
0.4,2,1,-2,-2,-2,1,1,1,0.0
0.405,0,1,4,-2,1,-1,-2,-1,0.0
0.41000000000000003,-3,-13,1,-4,0,-2,-2,0,0.0
0.41500000000000004,-3,-1,-21,15,3,-3,-4,-1,0.0
0.42,-5,1,15,14,-4,-5,-2,-6,0.0
0.425,1,6,1,-34,3,-1,1,0,0.0
0.43,1,2,-4,18,-5,-1,-1,-1,0.0
0.435,1,2,-9,-22,0,0,-2,0,0.0
0.44,-2,0,3,14,0,-1,0,-4,0.0
0.445,5,2,14,4,-1,4,2,8,0.0
0.45,0,0,-20,-24,-1,-1,0,-3,0.0
0.455,-2,-3,11,4,-7,-4,-1,-3,0.0
0.46,-1,0,13,1,0,3,0,-1,0.0
0.465,-4,-5,-27,-8,-3,-3,-2,-3,0.0
0.47000000000000003,1,5,18,10,1,-2,1,2,0.0
0.47500000000000003,3,4,-12,-1,-3,-1,0,2,0.0
0.48,-16,-30,20,-22,-2,-9,-7,-7,0.0
0.485,3,18,-8,0,1,2,1,0,0.0
0.49,4,1,-3,12,6,-2,-2,-2,0.0
0.495,-16,-32,-13,-29,-9,-7,-5,-9,0.0
0.5,6,12,-4,0,1,1,4,4,0.0
0.505,-1,-5,33,6,-2,1,1,-3,0.0
0.51,-9,-28,-62,-10,0,-1,-4,-3,0.0
0.515,6,16,48,9,-1,1,1,1,0.0
0.52,0,5,-35,-5,0,1,0,-2,0.0
0.525,0,11,4,-9,-5,-3,0,0,0.0
0.53,3,12,22,15,-1,3,0,0,0.0
0.535,1,-5,-9,-7,-3,-3,-2,-1,0.0
0.54,-3,-16,-19,4,1,2,-2,0,0.0
0.545,0,4,5,-3,0,-4,-3,-3,0.0
0.55,-10,-5,2,-2,0,-4,1,-3,0.0
0.555,-4,-7,-19,-2,2,-2,-2,0,0.0
0.56,5,10,13,1,-4,2,2,2,0.0
0.5650000000000001,-8,-29,-15,-3,-1,-1,-1,-1,0.0
0.5700000000000001,-1,-3,20,2,-1,-1,-1,1,0.0
0.5750000000000001,-3,0,-12,1,7,-1,0,-2,0.0
0.58,0,-23,-2,-7,-1,-2,-3,-1,0.0
0.585,-6,-5,13,-6,-3,-2,0,-2,0.0
0.59,-6,-1,17,11,2,0,2,-2,0.0
0.595,5,8,-9,-13,-1,-2,-1,3,0.0
0.6,0,0,33,10,-3,-2,-3,-5,0.0
0.605,-2,-12,-21,-4,2,-2,-3,-5,0.0
0.61,3,14,28,-2,-4,-1,1,-2,0.0
0.615,2,10,1,10,0,0,-1,-1,0.0
0.62,2,3,-20,-7,-2,-3,1,0,0.0
0.625,4,5,12,9,0,-3,-5,-1,0.0
0.63,-1,14,54,17,0,4,2,4,0.0
0.635,-10,-41,-103,-30,-2,-6,-2,-8,0.0
0.64,0,18,25,5,2,2,1,1,0.0
0.645,-1,2,10,21,4,1,-1,0,0.0
0.65,2,-1,-5,-28,-4,-2,-3,1,0.0
0.655,9,13,9,9,-6,-1,-2,-1,0.0
0.66,-1,5,-13,-7,3,-3,-1,-2,0.0
0.665,-6,-13,1,-7,-4,-2,-1,-2,0.0
0.67,-1,-5,-18,3,-1,0,-2,-4,0.0
0.675,7,15,45,13,-1,2,1,3,0.0
0.68,-9,-18,-33,-15,2,-1,0,-1,0.0
0.685,2,16,32,6,1,1,1,2,0.0
0.6900000000000001,-3,-13,-29,-4,-1,0,-2,-2,0.0
0.6950000000000001,-2,5,16,5,2,2,0,-2,0.0
0.7000000000000001,3,-1,-2,19,-14,-6,-5,-5,0.0
0.705,3,-1,-19,-50,9,-1,0,0,0.0
0.71,-8,-21,-11,3,1,-1,-3,-6,0.0
0.715,1,3,5,4,0,-2,0,-1,0.0
0.72,-2,-4,-10,-2,5,-3,-3,-2,0.0
0.725,1,6,-6,22,-4,1,2,-1,0.0
0.73,2,3,-18,-18,-5,-4,-2,-3,0.0
0.735,2,3,36,24,-4,4,1,2,0.0
0.74,-9,-6,10,-38,-1,-8,-2,-2,0.0
0.745,4,-1,-76,-8,-7,-2,0,0,0.0
0.75,6,13,12,-41,17,4,0,2,0.0
0.755,1,-9,20,32,-19,2,0,1,0.0
0.76,-3,-14,-34,16,-2,-5,-1,-3,0.0
0.765,2,12,10,-35,3,1,-1,0,0.0
0.77,6,5,11,48,-4,-2,0,1,0.0
0.775,-6,11,-8,-20,-4,-7,-3,0,0.0
0.78,3,5,-7,-19,18,5,-1,1,0.0
0.785,-1,-11,22,62,-17,-2,-1,-3,0.0
0.79,-2,6,-20,17,8,-4,-1,-2,0.0
0.795,-7,-9,8,-26,-4,1,-1,-1,0.0
0.8,4,13,13,68,-1,0,0,2,0.0
0.805,-8,-17,0,16,5,-2,-5,-6,0.0
0.81,0,8,-30,-92,7,-9,-3,-2,0.0
0.8150000000000001,0,-1,3,35,-19,0,0,-6,0.0
0.8200000000000001,-7,-5,10,-5,-6,1,0,2,0.0
0.8250000000000001,-1,-23,-1,28,12,-1,-1,-1,0.0
0.8300000000000001,-2,12,22,43,-24,-2,-1,-2,0.0
0.835,1,1,-34,-77,18,1,-1,-1,0.0
0.84,4,5,2,13,-4,2,-1,0,0.0
0.845,1,10,27,5,0,-2,0,2,0.0
0.85,0,-9,-16,11,-6,0,-2,-2,0.0
0.855,-4,1,17,31,2,-5,-2,-1,0.0
0.86,-5,-4,-26,-21,-5,0,0,-1,0.0
0.865,-2,-3,-3,15,0,-2,-5,-4,0.0
0.87,-7,-14,9,-43,-4,-2,-2,-2,0.0
0.875,7,20,5,11,6,1,2,1,0.0
0.88,9,11,19,15,-3,3,2,2,0.0
0.885,-11,-42,11,-48,-5,-5,-3,-3,0.0
0.89,1,0,8,17,-4,-2,1,1,0.0
0.895,-10,11,-15,12,-2,-1,-1,-3,0.0
0.9,-11,-32,-8,-30,10,-3,-3,-4,0.0
0.905,14,31,20,47,-2,-1,3,5,0.0
0.91,-3,-18,-22,-39,-2,3,1,0,0.0
0.915,-4,-6,0,0,-6,-7,-2,-3,0.0
0.92,2,14,11,26,16,4,3,1,0.0
0.925,1,7,-6,-2,-15,0,-1,-3,0.0
0.93,6,-1,-1,-55,0,1,-1,0,0.0
0.935,3,2,-18,11,6,0,-3,-2,0.0
0.9400000000000001,-19,-22,-5,-17,-9,-8,-5,-7,0.0
0.9450000000000001,-4,9,10,-25,2,0,-2,-2,0.0
0.9500000000000001,-2,-5,13,61,-2,-3,-1,-2,0.0
0.9550000000000001,1,5,21,-1,4,0,-1,2,0.0
0.96,5,-5,-5,-51,-5,-1,-1,0,0.0
0.965,-1,8,-16,-2,2,-1,0,0,0.0
0.97,-2,-1,1,6,-3,-1,-2,-3,0.0
0.975,-3,-12,-1,4,-2,-3,-2,-2,0.0
0.98,1,5,0,25,-9,-1,1,0,0.0
0.985,-4,0,-16,-4,12,0,-1,-1,0.0
0.99,1,-4,-15,4,-3,-1,3,0,0.0
0.995,-4,-17,-6,36,-1,-3,-1,-1,0.0
1.0,1,5,6,-64,0,-1,-2,-2,0.0
1.0050000000000001,-3,-2,-1,2,-1,1,0,-2,0.0
1.01,-1,1,-16,17,-3,-2,-5,-4,0.0
1.0150000000000001,-2,-2,5,-16,1,1,1,0,0.0
1.02,0,-2,-31,13,-1,2,1,-2,0.0
1.025,-3,-9,-13,-7,2,0,1,-2,0.0
1.03,-4,0,27,-11,9,0,-3,-3,0.0
1.035,-3,-4,-15,-34,-13,-5,-2,0,0.0
1.04,4,4,-35,2,4,-1,-2,-2,0.0
1.045,-2,1,52,-11,-6,-5,-4,1,0.0
1.05,-4,-3,-4,24,6,-3,-5,-3,0.0
1.055,4,-1,26,-17,1,3,0,-1,0.0
1.06,0,2,-12,6,-1,-1,-1,-1,0.0
1.065,0,2,11,31,2,-4,-1,-3,0.0
1.07,-2,-1,-47,-45,-3,-2,0,1,0.0
1.075,-3,-11,-24,2,7,1,-1,-5,0.0
1.08,4,11,29,9,-10,-5,0,6,0.0
1.085,-5,-14,-23,-11,7,-3,-6,-5,0.0
1.09,-2,-2,-42,5,-2,-3,-1,-1,0.0
1.095,-2,3,43,-16,1,1,1,0,0.0
1.1,1,0,-29,11,1,1,-3,-2,0.0
1.105,-1,2,-2,-22,-15,-1,-2,0,0.0
1.11,1,1,41,23,8,2,-1,2,0.0
1.115,-3,-2,-22,4,0,-2,-1,-1,0.0
1.12,0,-2,49,3,-2,-1,0,-1,0.0
1.125,2,7,0,-20,-3,-2,1,-1,0.0
1.1300000000000001,1,-6,-38,10,-5,0,1,-1,0.0
1.135,-1,2,10,8,7,-3,-2,-1,0.0
1.1400000000000001,-3,-3,26,-4,2,1,0,0,0.0
1.145,0,-3,-21,-14,-4,0,-1,0,0.0
1.1500000000000001,-2,7,27,27,-2,-2,-1,-4,0.0
1.155,-3,-7,-16,-14,-3,-2,-3,-2,0.0
1.16,-3,5,-13,-5,-4,-3,-2,-2,0.0
1.165,1,5,-5,-4,-2,-2,0,2,0.0
1.17,-4,-5,15,-2,8,1,-1,-2,0.0
1.175,0,-6,-2,-9,1,3,-1,-1,0.0
1.18,-3,-2,7,26,1,-1,-2,-3,0.0
1.185,-1,0,-1,-20,-8,0,3,-1,0.0
1.19,-1,-4,2,1,-7,-6,-3,2,0.0
1.195,2,0,-3,5,7,-1,-3,-1,0.0
1.2,0,-4,2,1,-6,-2,-1,-3,0.0
1.205,1,6,-10,4,3,1,0,-2,0.0
1.21,-1,8,14,-6,-2,2,0,0,0.0
1.215,0,-2,-32,4,-6,-2,-1,-1,0.0
1.22,-6,-14,5,-4,-2,-2,-2,-1,0.0
1.225,-4,-11,-7,4,3,-2,-3,-5,0.0
1.23,1,3,7,1,-2,-1,1,-2,0.0
1.235,2,5,12,6,-2,0,0,0,0.0
1.24,0,5,-5,-11,0,-2,-2,1,0.0
1.245,-6,-6,17,-13,-5,-1,0,-1,0.0
1.25,-6,-11,-39,-5,-3,-4,-4,-3,0.0
1.2550000000000001,3,0,4,-3,-6,0,0,0,0.0
1.26,1,7,7,3,1,-2,-3,-2,0.0
1.2650000000000001,-1,7,1,-3,-5,-3,2,-1,0.0
1.27,2,-3,-10,0,2,0,1,-3,0.0
1.2750000000000001,2,4,-6,4,6,-1,0,0,0.0
1.28,-2,-4,6,11,-2,-3,1,-1,0.0
1.285,-4,-5,0,-4,-3,-1,-2,0,0.0
1.29,-1,-2,5,0,-2,-2,-1,-2,0.0
1.295,-2,-7,8,-6,-1,0,-1,1,0.0
1.3,0,-1,-12,-1,-2,-4,-1,-1,0.0
1.305,1,1,-1,10,-1,-5,-1,-1,0.0
1.31,0,0,-2,-1,-2,2,-1,0,0.0
1.315,-2,-4,2,-17,0,-3,-4,-4,0.0
1.32,-1,-5,-3,-14,-5,2,-1,1,0.0
1.325,-1,-1,-6,6,-1,-1,-1,-4,0.0
1.33,1,2,4,12,-5,0,1,-2,0.0
1.335,-5,-7,-6,8,5,-5,-1,-3,0.0
1.34,2,2,-2,-12,5,0,0,-1,0.0
1.345,-1,-4,3,4,-2,-3,-3,0,0.0
1.35,-1,-5,3,-8,-1,-3,-3,-2,0.0
1.355,-2,3,-4,3,1,-2,1,-1,0.0
1.36,-3,-1,6,6,-3,0,0,0,0.0
1.365,0,4,-2,3,-4,0,-1,-2,0.0
1.37,-2,-10,-18,-4,-1,0,-2,-3,0.0
1.375,0,6,2,-5,2,0,1,3,0.0
1.3800000000000001,-6,-12,-10,-5,-1,-2,-2,-2,0.0
1.385,-1,8,10,-10,-1,-4,-3,0,0.0
1.3900000000000001,1,0,5,16,-1,0,-1,-1,0.0
1.395,-1,2,4,-6,4,0,1,-1,0.0
1.4000000000000001,-3,-6,9,1,-4,0,-1,0,0.0
1.405,-1,-1,-1,2,-1,-4,-2,-1,0.0
1.41,1,5,5,-9,-1,-2,-2,0,0.0
1.415,-1,-5,-5,15,4,0,0,-1,0.0
1.42,1,5,6,-17,-1,-1,-2,0,0.0
1.425,-1,-18,-14,7,7,2,0,-1,0.0
1.43,-1,10,0,11,-5,-5,-2,0,0.0
1.435,-3,-16,-6,-32,8,1,-2,-2,0.0
1.44,2,8,-3,3,-6,2,2,0,0.0
1.445,1,2,1,11,-4,0,3,0,0.0
1.45,0,4,12,-27,-1,1,0,-1,0.0
1.455,-1,4,8,29,-7,-4,-1,-1,0.0
1.46,0,-6,-25,-20,9,-2,0,0,0.0
1.465,-2,7,17,-3,1,2,-2,-1,0.0
1.47,1,0,-5,-6,-1,-2,-2,1,0.0
1.475,1,9,4,-1,-7,-2,-3,-1,0.0
1.48,-5,-27,1,14,3,-4,-4,-2,0.0
1.485,1,2,-2,-3,-6,3,0,0,0.0
1.49,-1,2,2,9,3,-1,-1,-2,0.0
1.495,0,-2,-21,-2,-6,0,1,0,0.0
1.5,1,6,15,-11,4,1,1,1,0.0
1.5050000000000001,-5,-6,-32,20,-2,1,1,-1,0.0
1.51,0,0,32,-21,1,-1,-2,0,0.0
1.5150000000000001,-3,-8,-3,16,-1,-2,-2,-2,0.0
1.52,-3,8,-71,-2,-10,-2,-2,-2,0.0
1.5250000000000001,-5,-21,14,1,-1,-3,-3,-3,0.0
1.53,-2,4,-7,4,1,-4,-1,-3,0.0
1.5350000000000001,3,-4,11,-3,-1,1,0,1,0.0
1.54,-3,0,-7,-2,-1,-1,-1,-3,0.0
1.545,1,4,7,-28,-3,-3,-4,-2,0.0
1.55,-5,-3,-14,10,-4,-4,-2,-2,0.0
1.555,-1,0,8,24,-12,-3,-3,-1,0.0
1.56,1,7,-9,-63,7,3,-4,-1,0.0
1.565,-2,-8,-10,4,-5,-3,0,1,0.0
1.57,0,2,12,-16,-2,4,2,1,0.0
1.575,-1,-7,-17,10,3,-2,0,-1,0.0
1.58,1,13,33,31,-8,-1,0,-1,0.0
1.585,0,10,-1,12,3,-3,-2,-1,0.0
1.59,2,-2,6,-28,-8,-2,1,-1,0.0
1.595,1,8,-22,14,5,3,0,0,0.0
1.6,-4,-21,5,7,1,-3,1,-2,0.0
1.605,2,10,32,-3,6,-1,1,-3,0.0
1.61,-3,-10,-35,25,-15,-6,-2,-3,0.0
1.615,-6,-3,-13,-30,-11,-5,-1,-4,0.0
1.62,0,-13,-28,0,21,3,-2,-1,0.0
1.625,-2,2,16,-39,-17,-3,-2,0,0.0
1.6300000000000001,-7,-18,-6,19,20,-1,-5,-3,0.0
1.635,0,4,16,1,-5,-2,0,-3,0.0
1.6400000000000001,-2,-2,13,-8,-11,-5,-2,-1,0.0
1.645,4,5,-7,48,11,3,3,4,0.0
1.6500000000000001,-4,-11,-18,-27,2,3,2,-2,0.0
1.655,-1,-4,9,14,-5,0,-2,-1,0.0
1.6600000000000001,-3,-1,-4,10,-6,-8,0,-1,0.0
1.665,-3,-14,-20,-7,0,-3,-3,-1,0.0
1.67,-1,9,15,27,-1,0,-1,-3,0.0
1.675,-1,11,7,-21,8,-4,-3,1,0.0
1.68,4,26,12,-9,-13,-3,0,-1,0.0
1.685,-6,-49,-63,-6,2,0,-1,-3,0.0
1.69,0,4,14,51,-3,-1,0,-2,0.0
1.695,-2,-25,-19,-50,9,5,1,-2,0.0
1.7,2,10,23,21,-12,-3,-3,-2,0.0
1.705,0,18,-3,-3,1,-5,-1,0,0.0
1.71,3,0,9,-13,14,4,3,4,0.0
1.715,-1,-11,-20,-9,-16,2,-1,-3,0.0
1.72,-6,-11,2,28,13,-3,-1,-2,0.0
1.725,1,13,27,5,-12,-4,-1,-3,0.0
1.73,-3,-8,1,-9,-5,-3,-2,-2,0.0
1.735,0,17,-48,-23,6,0,-3,-1,0.0
1.74,-4,-40,-2,-20,-1,0,-1,-2,0.0
1.745,-5,-8,0,0,-4,0,-1,-4,0.0
1.75,2,9,0,-17,-2,-7,-2,1,0.0
1.7550000000000001,1,-10,20,30,3,2,2,1,0.0
1.76,-5,-5,15,-5,-6,1,0,-4,0.0
1.7650000000000001,0,2,-25,7,6,-4,-5,0,0.0
1.77,-1,-5,0,-30,10,6,3,0,0.0
1.7750000000000001,0,9,31,26,-6,-5,-4,0,0.0
1.78,0,11,0,-3,-1,-6,-2,-2,0.0
1.7850000000000001,0,3,3,4,-7,-2,-1,-2,0.0
1.79,-1,-7,5,-5,4,-2,-2,-1,0.0
1.795,3,6,13,1,0,1,1,1,0.0
1.8,-2,2,2,9,-2,-7,0,0,0.0
1.805,-6,-21,-4,-7,2,2,0,-1,0.0
1.81,-1,-2,-15,4,0,-1,-1,-1,0.0
1.815,-1,-6,4,6,-2,-4,-3,-3,0.0
1.82,-1,-3,-5,-4,-2,-1,0,1,0.0
1.825,0,-6,-9,-1,-1,-2,-3,-2,0.0
1.83,-1,-12,-11,1,-1,1,0,-1,0.0
1.835,-3,-6,2,0,-1,-2,-1,-3,0.0
1.84,-1,-5,-6,-7,-2,-1,-2,-2,0.0
1.845,0,14,-19,4,-1,0,-1,0,0.0
1.85,-8,-28,0,-4,3,-7,-6,-5,0.0
1.855,-1,9,23,1,1,1,0,1,0.0
1.86,-1,2,-19,-6,-2,-1,-1,-3,0.0
1.865,-1,-12,-57,0,0,-8,-2,-1,0.0
1.87,1,8,-2,-2,-3,5,3,0,0.0
1.875,-1,4,-3,-4,-1,-1,-2,1,0.0
1.8800000000000001,-4,-18,2,-1,0,-3,-3,0,0.0
1.885,-1,9,12,2,-4,-1,0,0,0.0
1.8900000000000001,0,-7,-25,-3,4,1,2,0,0.0
1.895,1,6,-20,0,0,-2,-1,-2,0.0
1.9000000000000001,6,39,35,-6,-5,1,1,0,0.0
1.905,-5,-16,-68,0,4,-6,-4,-3,0.0
1.9100000000000001,1,17,24,0,1,2,0,2,0.0
1.915,-1,-7,16,0,-1,1,1,-2,0.0
1.92,-2,3,-16,-3,1,-2,-3,-2,0.0
1.925,-3,-8,22,7,-1,4,1,-2,0.0
1.93,4,25,6,-6,-2,-3,-3,1,0.0
1.935,-10,-36,34,-3,4,-8,-6,-4,0.0
1.94,-2,-17,-6,1,-3,1,2,-2,0.0
1.945,0,3,9,-3,-1,-1,-1,0,0.0
1.95,-2,11,24,6,0,-1,-3,-1,0.0
1.955,0,-6,-68,-5,3,-2,-2,-1,0.0
1.96,2,17,28,2,1,3,1,0,0.0
1.965,-3,-27,-31,-6,3,-3,-1,-5,0.0
1.97,-2,1,-28,-2,-3,0,1,1,0.0
1.975,-6,-20,-28,-1,0,0,-2,-2,0.0
1.98,-2,-33,7,0,1,-2,-2,0,0.0
1.985,6,23,1,4,-2,4,3,1,0.0
1.99,1,17,-6,-3,-5,-4,-3,-2,0.0
1.995,1,-16,8,2,-2,0,1,1,0.0
2.0,-5,-9,8,1,4,0,0,-1,0.0
2.005,-2,21,53,-5,-4,-3,-1,-1,0.0
2.0100000000000002,-6,-21,-9,1,0,0,-2,-2,0.0
2.015,5,14,23,4,-4,-1,0,2,0.0
2.02,-2,-4,-10,-7,-1,-1,0,-1,0.0
2.025,-5,-28,12,-6,-2,-3,-3,-3,0.0
2.0300000000000002,-1,4,-11,0,0,1,1,0,0.0
2.035,3,30,-17,2,-1,0,1,3,0.0
2.04,9,-44,-17,-7,0,-3,-1,0,0.0
2.045,-38,13,2,1,-2,-3,-2,3,0.0
2.05,18,-7,0,-5,-3,-2,-1,-7,0.0
2.055,-5,4,14,2,-1,3,1,4,0.0
2.06,-3,3,-31,-1,-2,-1,0,2,0.0
2.065,3,-15,31,1,-1,-2,-5,-4,0.0
2.07,3,-2,14,-2,-5,0,2,7,0.0
2.075,7,4,3,0,-1,3,1,-10,0.0
2.08,-14,13,21,3,-1,-1,3,-4,0.0
2.085,-20,-22,-16,-8,-2,-5,-7,-10,0.0
2.09,3,14,-1,6,2,2,4,-1,0.0
2.095,1,24,14,2,1,-1,4,-6,0.0
2.1,-7,-21,20,1,0,-2,-5,-5,0.0
2.105,18,-9,-31,-6,-2,-4,-5,5,0.0
2.11,-17,6,11,4,-1,1,-6,-8,0.0
2.115,2,24,11,0,-6,1,-2,8,0.0
2.12,-14,14,-3,-4,-1,-3,-4,3,0.0
2.125,20,21,10,0,0,3,4,2,0.0
2.13,0,-2,-8,-8,0,-5,-3,-1,0.0
2.1350000000000002,11,-3,13,-1,-2,-4,0,-3,0.0
2.14,-7,7,9,0,0,4,2,0,0.0
2.145,-20,-12,-10,-4,-2,-4,-3,4,0.0
2.15,23,25,-15,0,-3,-4,-7,-6,0.0
2.1550000000000002,-26,-7,-38,-2,2,6,9,5,0.0
2.16,19,47,65,9,-5,8,10,0,0.0
2.165,-14,6,-41,-4,4,-11,-8,-11,0.0
2.17,7,15,-10,-2,-8,-1,0,10,0.0
2.1750000000000003,17,-6,12,0,-3,-2,-14,6,0.0
2.18,-11,-10,-13,0,0,-4,-6,-15,0.0
2.185,21,13,-9,-3,-3,1,4,-2,0.0
2.19,-1,-4,34,1,0,2,6,7,0.0
2.195,24,8,13,-1,-2,0,-6,-1,0.0
2.2,-23,-69,-97,-9,6,-6,-6,-5,0.0
2.205,14,32,40,1,-6,-3,-9,8,0.0
2.21,2,-36,-23,-3,5,-2,-12,-16,0.0
2.215,-2,-16,-1,0,0,0,1,0,0.0
2.22,-2,-13,1,-1,0,1,0,-1,0.0
2.225,-4,-9,0,-2,-3,-2,-1,-3,0.0
2.23,0,-5,-2,-1,-2,-3,-4,-2,0.0
2.235,-2,18,0,-1,0,-1,-1,-2,0.0
2.24,-1,13,-1,-1,-2,-3,-3,-1,0.0
2.245,0,5,-3,0,-4,0,-2,0,0.0
2.25,-3,7,0,-1,-1,1,1,0,0.0
2.255,-1,-10,2,-2,0,-3,0,-3,0.0
2.2600000000000002,-2,-8,-2,0,0,-2,0,-2,0.0
2.265,-1,4,-3,0,-5,-1,-1,-1,0.0
2.27,1,-1,-2,-2,-3,-1,-3,0,0.0
2.275,0,-6,1,1,2,-1,-2,-3,0.0
2.2800000000000002,0,4,1,-1,0,-2,-1,1,0.0
2.285,2,-2,-3,-3,-1,0,-1,-2,0.0
2.29,-2,-2,1,-2,2,-2,-2,-2,0.0
2.295,1,-3,-1,0,3,-1,0,-1,0.0
2.3000000000000003,-2,1,-3,-2,-1,-1,-2,-2,0.0
2.305,-1,-5,-1,0,-2,-2,-1,-1,0.0
2.31,-2,2,0,0,-3,1,-1,0,0.0
2.315,-3,-1,-2,-2,-3,0,1,-1,0.0
2.32,-1,3,-2,-2,-1,0,0,-3,0.0
2.325,0,-7,4,-2,-1,-1,-2,0,0.0
2.33,-2,-1,-1,-1,1,-3,1,-3,0.0
2.335,-1,6,-3,-1,-1,2,0,-1,0.0
2.34,2,-2,0,-3,0,-3,-3,-2,0.0
2.345,0,0,1,-1,-2,-2,-2,-1,0.0
2.35,0,-5,-1,-1,-1,-2,-2,0,0.0
2.355,0,-7,0,1,2,-2,1,-4,0.0
2.36,0,0,-3,-1,-3,-2,-1,-2,0.0
2.365,-2,3,-1,1,-2,-2,0,-3,0.0
2.37,-3,-3,-1,1,0,-1,-1,-1,0.0
2.375,0,-3,-2,-1,2,-1,-2,-1,0.0
2.38,-1,2,-1,-1,-2,-1,-3,0,0.0
2.3850000000000002,-2,-1,-3,-3,-1,-1,-3,-1,0.0
2.39,0,-1,-4,0,3,-1,0,-2,0.0
2.395,-2,1,0,1,1,-1,-2,-1,0.0
2.4,1,2,-1,-1,0,-1,0,0,0.0
2.4050000000000002,-1,-4,-2,-4,-2,-3,-3,0,0.0
2.41,-2,-2,1,-3,-2,0,-1,-2,0.0
2.415,0,-3,-3,-2,-1,1,-1,-2,0.0
2.42,0,2,-1,-1,-4,-2,-1,-1,0.0
2.4250000000000003,0,0,-3,-1,-1,-1,-3,0,0.0
2.43,0,0,0,3,-2,-3,-4,-2,0.0
2.435,-1,-2,2,-3,-1,-1,-1,0,0.0
2.44,0,-1,-2,-3,-1,2,-1,0,0.0
2.445,0,1,-1,-4,-4,1,-1,1,0.0
2.45,-2,-3,-6,-1,0,0,-1,-3,0.0
2.455,-4,-1,1,1,-2,-1,-1,-1,0.0
2.46,1,-3,-1,0,0,0,-3,-3,0.0
2.465,-1,-1,-1,0,0,-3,0,-4,0.0
2.47,-1,-2,-2,-1,-1,0,0,0,0.0
2.475,0,-1,-1,-2,-1,0,-3,-2,0.0
2.48,-2,-2,1,-2,0,-2,0,-2,0.0
2.485,-1,-3,1,0,-1,-1,-3,-3,0.0
2.49,0,0,0,-2,0,-1,0,0,0.0
2.495,0,1,-1,0,-3,-2,0,-1,0.0
2.5,-3,-1,-1,0,-1,1,-1,1,0.0
2.505,1,-3,-1,0,4,2,-1,-1,0.0
2.5100000000000002,-2,-1,2,-1,-1,-3,-2,-2,0.0
2.515,-1,0,0,1,-2,0,-2,0,0.0
2.52,-2,1,-2,-1,1,-1,-1,-2,0.0
2.525,-1,-4,0,-2,-4,1,-2,1,0.0
2.5300000000000002,-3,-3,0,-2,-2,-2,1,0,0.0
2.535,-1,-3,2,0,-1,0,0,-22,0.0
2.54,-4,0,-2,0,-3,-2,2,-5,0.0
2.545,-3,0,-4,-3,-3,-2,-4,-10,0.0
2.5500000000000003,0,0,0,0,0,1,4,7,0.0
2.555,0,-2,-3,-2,1,-2,4,10,0.0
2.56,-1,0,-2,0,-3,-1,-5,-11,0.0
2.565,0,-1,-3,-4,-1,-2,0,-4,0.0
2.57,1,-2,0,-1,0,0,1,3,0.0
2.575,-1,-2,-1,-1,0,-2,-5,-10,0.0
2.58,-2,-1,1,0,-2,-1,3,13,0.0
2.585,1,-3,-2,-1,1,1,-3,-1,0.0
2.59,-4,-3,0,-3,-3,-2,-6,-10,0.0
2.595,0,0,-2,1,-2,-2,1,2,0.0
2.6,-3,-2,-1,-1,0,-1,-4,-8,0.0
2.605,-2,2,0,3,-1,-2,1,0,0.0
2.61,-2,0,-4,-2,-1,-2,0,3,0.0
2.615,-3,-1,-2,-2,2,0,-2,0,0.0
2.62,0,0,-2,-1,-1,-1,-2,-3,0.0
2.625,-2,-4,2,-2,-2,-2,-5,-2,0.0
2.63,2,-2,-1,-1,-1,-3,1,-4,0.0
2.6350000000000002,0,-3,2,-2,-3,-4,-5,2,0.0
2.64,0,-2,-1,1,-2,1,-1,-4,0.0
2.645,0,-1,1,-1,2,0,2,5,0.0
2.65,-1,-4,0,-2,1,-2,-3,-23,0.0
2.6550000000000002,-2,-1,-1,-2,-5,0,3,9,0.0
2.66,2,-3,1,-2,0,0,0,7,0.0
2.665,0,-1,-2,-1,0,-2,1,1,0.0
2.67,-3,-2,0,-2,2,-2,-6,0,0.0
2.6750000000000003,0,-1,0,-2,-1,-1,1,-1,0.0
2.68,-1,-2,-2,-2,-1,1,-1,-2,0.0
2.685,-1,0,0,-1,-1,0,-2,0,0.0
2.69,-1,-2,0,-2,-1,-2,-1,0,0.0
2.695,-2,-2,-3,1,-1,-1,-4,-5,0.0
2.7,-1,-2,-3,-1,-2,0,-2,3,0.0
2.705,0,0,-3,1,1,-1,-1,-2,0.0
2.71,-1,-1,0,-1,-1,-1,0,-1,0.0
2.715,-1,-2,1,-1,-1,-2,0,-2,0.0
2.72,-1,-2,-2,-1,-3,-3,-2,-3,0.0
2.725,-1,-2,1,-2,-1,-2,-1,-1,0.0
2.73,-1,0,-1,-2,-1,0,-2,-1,0.0
2.735,0,-1,-2,-1,0,-2,-1,-3,0.0
2.74,0,-3,0,-1,-3,-2,-2,1,0.0
2.745,0,-1,1,-1,-1,-1,0,1,0.0
2.75,1,-2,1,0,2,-1,0,-1,0.0
2.755,-1,-1,-2,0,-1,-2,0,1,0.0
2.7600000000000002,-1,-1,-3,0,1,1,0,-3,0.0
2.765,-2,-2,0,1,-2,-1,-4,-7,0.0
2.77,-2,-1,-1,0,-3,0,1,-2,0.0
2.775,-2,-1,2,-2,2,0,-1,2,0.0
2.7800000000000002,0,0,3,-2,0,-2,0,-2,0.0
2.785,0,-4,-1,-1,-1,-1,1,0,0.0
2.79,0,0,0,-1,0,0,-2,-4,0.0
2.795,-2,-2,-1,-1,0,0,-2,-1,0.0
2.8000000000000003,0,0,-2,-2,-3,-1,-3,-1,0.0
2.805,1,-2,0,-3,-2,-1,1,0,0.0
2.81,-2,-1,-4,-1,0,-1,0,0,0.0
2.815,-1,-2,0,1,-1,1,0,0,0.0
2.82,-1,-3,-2,-2,-1,1,1,-2,0.0
2.825,0,0,-2,-1,-2,-2,-2,1,0.0
2.83,0,-2,0,0,0,-2,-1,0,0.0
2.835,-1,0,-3,-1,-2,0,-3,-1,0.0
2.84,-1,-2,-1,-1,0,-1,1,-4,0.0
2.845,-1,-2,-1,-1,1,-1,-2,0,0.0
2.85,0,1,-4,-1,0,-3,-2,-2,0.0
2.855,-2,-1,-2,-1,-2,0,-2,-2,0.0
2.86,-2,-4,0,-4,0,-3,-3,-1,0.0
2.865,1,-1,-2,3,-1,0,1,-1,0.0
2.87,-1,-3,1,-1,0,-2,-1,0,0.0
2.875,-1,-1,-3,0,1,-1,-2,-1,0.0
2.88,1,1,0,-2,-5,0,-1,0,0.0
2.8850000000000002,-1,-1,0,-1,1,1,-3,-3,0.0
2.89,-1,-3,-1,-1,-2,-1,0,-2,0.0
2.895,-1,-2,-1,0,-2,-2,-2,0,0.0
2.9,-1,-2,1,-1,-2,-1,-2,-3,0.0
2.9050000000000002,-2,0,-1,0,-1,-2,-1,-1,0.0
2.91,0,1,-2,1,-2,1,0,0,0.0
2.915,-2,-1,0,-3,0,-2,-2,0,0.0
2.92,-3,-2,-1,-1,-2,-2,0,1,0.0
2.9250000000000003,-2,1,-1,-2,-2,-2,-3,-3,0.0
2.93,-1,0,0,0,2,-2,-1,-3,0.0
2.935,-1,-3,-1,-1,-2,-3,-1,-2,0.0
2.94,1,0,-1,-1,-1,-1,-2,0,0.0
2.945,0,-2,0,-3,1,-1,-1,-3,0.0
2.95,-1,-1,-1,0,-1,-2,-3,-2,0.0
2.955,-3,-1,-1,-2,-3,0,-2,-1,0.0
2.96,-1,-1,-4,-1,-1,0,-1,-1,0.0
2.965,-1,0,-1,-2,-1,-1,-1,-1,0.0
2.97,-1,-2,-1,0,-1,-4,0,1,0.0
2.975,0,-2,0,0,0,1,3,0,0.0
2.98,-1,-1,4,-2,-1,-4,-1,-2,0.0
2.985,-1,-2,-3,-2,1,-1,-3,-1,0.0
2.99,-2,-1,-1,-2,-1,-2,-4,-1,0.0
2.995,0,-1,-1,0,1,-3,-2,0,0.0
3.0,-2,-3,0,0,2,-1,0,0,0.0
3.005,0,-2,1,0,0,-1,0,1,0.0
3.0100000000000002,0,-4,-1,-2,-2,-3,-1,-2,0.0
3.015,-1,-1,-1,-1,-3,0,-1,-2,0.0
3.02,-1,-2,-2,-1,3,-1,0,-1,0.0
3.025,-1,-3,-3,-1,-2,-1,0,-1,0.0
3.0300000000000002,-2,-2,-1,-1,1,-1,-1,0,0.0
3.035,1,-2,1,0,0,-2,-2,-3,0.0
3.04,-1,-3,-2,-2,-2,-1,-1,0,0.0
3.045,-1,-1,-2,-1,-1,-1,-2,-1,0.0
3.0500000000000003,0,0,0,-2,1,1,0,0,0.0
3.055,0,-2,-1,0,-1,-1,0,-2,0.0
3.06,0,-2,-3,-3,2,-2,-2,-1,0.0
3.065,-1,-2,-2,0,-1,-3,0,0,0.0
3.0700000000000003,0,-3,-1,-1,-3,-1,-1,-1,0.0
3.075,-3,0,0,-2,3,0,-3,-1,0.0
3.08,0,-2,1,-1,-2,1,-2,-3,0.0
3.085,0,-1,-1,0,0,0,-1,0,0.0
3.09,-1,-1,-1,0,-2,0,-1,-1,0.0
3.095,0,1,-1,-1,1,0,-2,-3,0.0
3.1,0,-1,-1,-1,-1,-2,1,-1,0.0
3.105,-1,-3,1,-2,-1,-1,-2,-4,0.0
3.11,0,0,-2,4,-1,-2,1,-1,0.0
3.115,-2,-3,-1,-3,0,1,0,0,0.0
3.12,0,-1,0,0,0,-1,0,-2,0.0
3.125,0,-1,-1,1,1,-2,-1,-1,0.0
3.13,-1,-1,-1,-5,0,0,0,-1,0.0
3.1350000000000002,-1,-1,0,-3,-3,-1,-2,0,0.0
3.14,-1,0,1,2,0,0,-3,-2,0.0
3.145,0,-2,0,0,-2,-1,-1,0,0.0
3.15,0,-1,-2,-3,1,-1,-2,-3,0.0
3.1550000000000002,0,0,1,1,1,-1,-2,0,0.0
3.16,-2,0,0,-1,0,-2,0,-1,0.0
3.165,-1,-2,0,-2,-2,-2,-2,0,0.0
3.17,-2,0,-3,-2,-1,-3,-4,-1,0.0
3.1750000000000003,1,-2,0,0,0,-1,0,-1,0.0
3.18,-2,-3,0,0,1,-2,-1,-2,0.0
3.185,-1,-2,-3,0,-1,-1,0,-2,0.0
3.19,-1,-3,0,-1,0,-1,-2,-2,0.0
3.1950000000000003,-1,-4,0,0,-2,-1,-2,-2,0.0
3.2,-1,1,1,-1,-1,-1,-3,-1,0.0
3.205,0,0,-1,-1,1,1,-1,-1,0.0
3.21,-1,-1,2,-2,-4,0,0,0,0.0
3.215,0,-2,-2,-1,-2,-1,2,-2,0.0
3.22,1,-2,-2,-3,-2,1,-3,-2,0.0
3.225,-1,-1,-1,0,-2,-2,-3,-3,0.0
3.23,0,-1,-3,-1,-1,-2,-1,-2,0.0
3.235,-3,-3,-2,0,-1,-3,-3,-2,0.0
3.24,-3,-1,-1,-1,1,-2,-1,-3,0.0
3.245,-2,0,-1,-2,0,-3,0,-4,0.0
3.25,-2,-1,0,-2,0,-1,-1,0,0.0
3.255,-1,-1,-3,3,-2,-2,-2,-4,0.0
3.2600000000000002,-1,-2,0,-1,-5,-1,0,0,0.0
3.265,-1,-2,-1,-2,-1,1,1,1,0.0
3.27,-2,2,0,-1,1,-1,-1,0,0.0
3.275,-1,-2,1,-2,0,-2,0,-2,0.0
3.2800000000000002,-2,-2,-1,0,-2,-2,-3,-1,0.0
3.285,1,-1,0,-2,-1,-1,0,-1,0.0
3.29,-1,-3,0,0,-2,0,-2,-1,0.0
3.295,-2,0,0,-2,1,-1,0,-1,0.0
3.3000000000000003,-1,0,-1,0,0,0,-1,0,0.0
3.305,-1,-1,-2,-1,0,-3,-3,-1,0.0
3.31,-1,3,-3,0,-1,2,-1,-3,0.0
3.315,-1,-1,-1,2,-2,-1,-1,-3,0.0
3.3200000000000003,-1,-3,0,0,-5,-2,0,-1,0.0
3.325,0,1,-2,-3,0,0,0,-1,0.0
3.33,-1,-2,0,1,1,-3,-2,1,0.0
3.335,-2,0,-1,-1,0,2,0,1,0.0
3.34,0,1,-1,0,2,-1,-2,-1,0.0
3.345,-1,-1,0,-1,0,-1,-1,-3,0.0
3.35,1,-2,0,-4,-2,0,-1,0,0.0
3.355,-1,0,1,-1,0,1,1,0,0.0
3.36,-2,-1,-2,-1,-2,-1,-3,-1,0.0
3.365,-1,1,-1,0,1,-2,-2,-1,0.0
3.37,0,-2,-1,2,3,0,1,-2,0.0
3.375,0,-1,-3,-2,-1,-1,-1,-1,0.0
3.38,1,-1,-1,0,-2,1,-1,-1,0.0
3.3850000000000002,-2,-4,0,-1,-2,-2,0,-1,0.0
3.39,-1,-2,1,-1,0,-2,0,-1,0.0
3.395,-2,1,0,-2,-1,0,-3,-2,0.0
3.4,-3,-1,-1,-1,0,-1,-2,-2,0.0
3.4050000000000002,-1,-3,0,-1,0,-1,-1,-2,0.0
3.41,0,-2,-2,-2,-1,-1,-4,-1,0.0
3.415,0,-1,0,0,-2,-1,0,1,0.0
3.42,0,-2,-1,-3,1,-1,0,-2,0.0
3.4250000000000003,0,0,-1,1,1,0,-1,0,0.0
3.43,-2,-3,-3,1,1,1,-1,0,0.0
3.435,-2,-1,-1,-3,-1,-3,-1,-2,0.0
3.44,1,-1,-2,-1,-2,-2,0,0,0.0
3.4450000000000003,-2,-2,-1,-2,-1,1,-1,0,0.0
3.45,1,1,2,0,-1,-2,0,-3,0.0
3.455,-1,-2,-3,-1,0,-1,-3,0,0.0
3.46,0,-1,-1,-1,2,-2,-3,-3,0.0
3.465,-2,-2,2,-4,-1,0,-1,-2,0.0
3.47,-2,-1,-2,-1,0,-3,-3,-4,0.0
3.475,0,2,-2,-2,0,-2,0,-2,0.0
3.48,-1,-1,-2,-2,1,1,0,0,0.0
3.485,-1,-2,0,-2,-2,-3,-2,1,0.0
3.49,0,-3,-2,0,-1,-1,-1,-2,0.0
3.495,0,-4,1,-1,-3,-2,0,0,0.0
3.5,-2,-1,1,-2,1,-1,-1,0,0.0
3.505,0,0,0,0,1,0,-2,-3,0.0
3.5100000000000002,-1,0,-2,-2,0,-1,1,0,0.0
3.515,-1,-1,-1,1,2,-1,-1,-2,0.0
3.52,1,0,-1,-2,0,-1,-3,-1,0.0
3.525,-1,1,-1,-3,-1,-1,-2,0,0.0
3.5300000000000002,-1,-5,1,-3,-2,-2,-1,-1,0.0
3.535,-2,-2,0,-1,0,-2,-1,0,0.0
3.54,-1,0,1,-1,-1,-2,-1,0,0.0
3.545,0,-2,0,1,1,0,1,-3,0.0
3.5500000000000003,0,1,-4,-1,-1,-2,-1,-2,0.0
3.555,-1,-3,-2,-5,-1,-1,-1,-2,0.0
3.56,-2,-5,0,0,2,-2,-2,-2,0.0
3.565,-2,-2,-1,-1,-3,-1,-1,-1,0.0
3.5700000000000003,0,-2,2,-3,0,-1,0,-2,0.0
3.575,0,-2,0,2,1,-1,-2,-1,0.0
3.58,-1,0,-2,-1,0,0,-1,-4,0.0
3.585,0,-1,-1,2,-1,-1,1,-1,0.0
3.59,-3,-1,0,-2,0,-2,0,0,0.0
3.595,1,-2,0,-3,-1,-1,-3,-1,0.0
3.6,0,-2,0,-1,-2,0,0,0,0.0
3.605,-1,-1,-1,0,-2,-1,-1,1,0.0
3.61,0,-2,-1,-3,-3,-2,-1,-1,0.0
3.615,-2,-3,-2,2,0,-2,0,-1,0.0
3.62,-1,-2,-1,-1,1,-1,0,-1,0.0
3.625,-2,-1,-2,-1,-1,-2,-4,-1,0.0
3.63,-1,-1,-1,-2,-2,-2,-1,-2,0.0
3.6350000000000002,0,0,-2,0,0,1,-2,-1,0.0
3.64,-1,-3,0,1,0,-2,-1,-1,0.0
3.645,-1,-4,-3,-2,-1,-2,0,-1,0.0
3.65,0,0,-1,-2,-3,0,-2,1,0.0
3.6550000000000002,-1,1,-2,-3,-1,-2,-1,-4,0.0
3.66,-1,-3,-1,-1,-1,-1,0,-3,0.0
3.665,-2,-1,0,-2,2,2,-2,-2,0.0
3.67,-2,-1,0,1,1,2,1,1,0.0
3.6750000000000003,-1,-4,0,1,1,-1,-2,-2,0.0
3.68,-1,1,-2,-2,-4,-2,1,-2,0.0
3.685,-1,-2,-3,-1,-1,1,1,-1,0.0
3.69,-1,-3,1,0,-2,-1,-3,-2,0.0
3.6950000000000003,-1,-1,-2,-2,-1,-1,0,-2,0.0
3.7,-2,0,0,-1,-2,-1,-4,1,0.0
3.705,0,-1,0,1,0,-2,-2,-1,0.0
3.71,0,1,-3,1,-4,-1,-1,0,0.0
3.715,-1,-3,0,-2,-3,-3,0,-1,0.0
3.72,0,-2,-1,0,1,-1,-1,-1,0.0
3.725,-1,-1,-2,0,-1,0,-1,-3,0.0
3.73,-3,-3,-2,-2,1,-1,0,0,0.0
3.735,0,-1,0,-1,-2,-2,-2,-1,0.0
3.74,-1,1,-2,-2,-4,0,0,-1,0.0
3.745,-2,-2,0,-1,-1,-1,-3,-1,0.0
3.75,0,-1,-1,-2,2,-2,1,-2,0.0
3.755,-2,-1,-2,0,-1,-3,-2,-1,0.0
3.7600000000000002,0,-1,-2,-3,-1,-1,-3,-2,0.0
3.765,0,-2,-1,-3,-1,-2,-1,-1,0.0
3.77,-2,-1,-3,-3,-2,1,-1,-1,0.0
3.775,-1,0,1,-2,-4,0,-1,1,0.0
3.7800000000000002,-1,-3,2,1,-2,-1,-2,0,0.0
3.785,1,1,-2,0,-2,0,0,-2,0.0
3.79,0,-2,-2,0,0,2,-3,0,0.0
3.795,-1,-1,-2,-1,2,0,1,-1,0.0
3.8000000000000003,-2,-3,-2,-2,0,-2,-1,-1,0.0
3.805,-1,1,-1,-2,-1,0,0,-1,0.0
3.81,-2,0,-1,0,0,-2,-1,-2,0.0
3.815,0,-1,-4,-1,-2,1,-1,-3,0.0
3.8200000000000003,-2,-3,-1,-2,2,0,-1,-2,0.0
3.825,-1,-4,-1,-2,-2,-5,0,-1,0.0
3.83,0,-1,-2,0,-3,-1,-3,-1,0.0
3.835,-3,-2,-1,-1,-2,0,0,-1,0.0
3.84,-2,1,-2,-1,-2,-3,0,0,0.0
3.845,-1,0,0,-1,0,0,-2,-1,0.0
3.85,0,-3,-1,-4,0,-2,-3,-1,0.0
3.855,0,-2,2,0,-1,0,1,-3,0.0
3.86,-1,-1,-1,-2,0,-1,-1,0,0.0
3.865,-1,-2,-1,-3,0,-2,1,0,0.0
3.87,-2,-2,-2,0,0,-3,1,-2,0.0
3.875,-1,-2,-2,0,-1,-2,-3,0,0.0
3.88,1,-3,-3,0,-2,-1,0,0,0.0
3.8850000000000002,-2,-4,0,0,1,-1,0,-3,0.0
3.89,0,1,-2,-2,0,2,-4,-2,0.0
3.895,-2,-2,0,-4,0,-2,0,1,0.0
3.9,-1,-2,-3,0,-2,-1,0,-2,0.0
3.9050000000000002,-2,-1,-3,-2,-1,-1,-1,0,0.0
3.91,-2,1,1,-1,0,-2,0,0,0.0
3.915,-1,0,0,-1,-2,-2,0,-3,0.0
3.92,0,-1,2,-4,1,-1,-2,-1,0.0
3.9250000000000003,-1,-4,-2,-1,-1,-1,-2,-1,0.0
3.93,0,-2,0,-2,3,-1,0,0,0.0
3.935,-1,-3,1,0,-1,-1,-3,-1,0.0
3.94,-2,1,-1,-1,0,-2,-2,-1,0.0
3.9450000000000003,-1,-2,0,0,-4,0,1,-2,0.0
3.95,0,0,-1,0,1,-1,-2,0,0.0
3.955,-1,-3,-4,2,-1,-2,0,0,0.0
3.96,-1,-3,-1,3,-1,-1,-2,-1,0.0
3.9650000000000003,-2,1,0,-4,0,-1,-2,-1,0.0
3.97,-1,-3,-1,-2,0,-2,0,-1,0.0
3.975,-2,-1,1,-2,-1,0,-1,-1,0.0
3.98,0,-1,-2,-1,-1,-3,-2,-2,0.0
3.985,-2,-1,-1,-1,-2,-1,0,0,0.0
3.99,-1,-3,0,0,0,-1,1,-2,0.0
3.995,-1,-1,-1,-3,-1,-3,0,-3,0.0
4.0,-1,-1,-1,-2,-2,-2,0,-2,0.0
4.005,-1,-1,-1,-3,0,-2,-4,-2,0.0
4.01,-1,0,-1,-1,-2,-1,1,-5,0.0
4.015,-2,-3,-1,-3,-2,-3,-2,-1,0.0
4.0200000000000005,-1,-2,1,-1,-1,0,-2,0,0.0
4.025,-3,-2,-2,1,1,2,1,-2,0.0
4.03,-3,1,0,-1,-3,-1,-1,1,0.0
4.035,0,0,0,0,2,-1,0,-1,0.0
4.04,-1,-1,-2,-2,0,0,0,-1,0.0
4.045,1,0,-1,-1,-2,0,-1,-2,0.0
4.05,0,0,-2,1,-3,0,0,0,0.0
4.055,0,-1,-1,0,-2,-1,-1,0,0.0
4.0600000000000005,-1,2,0,-1,-4,-1,-2,0,0.0
4.065,-1,0,-1,0,-2,-2,0,0,0.0
4.07,-1,2,-3,-2,0,-2,-1,-1,0.0
4.075,-2,-1,-4,0,-2,2,-3,-3,0.0
4.08,-1,-3,1,-1,-1,0,0,-1,0.0
4.085,-1,-2,-1,-1,1,-2,-2,0,0.0
4.09,-1,-3,0,-1,-3,-1,-1,0,0.0
4.095,0,-1,-1,-2,3,-1,0,-1,0.0
4.1,0,-1,-1,-2,-2,-1,-2,-2,0.0
4.105,-1,0,-2,0,-2,-2,-1,-2,0.0
4.11,-1,-1,1,-1,1,-1,-2,-1,0.0
4.115,-3,-1,-2,1,-1,0,-1,0,0.0
4.12,-2,0,-1,1,0,-2,-2,-2,0.0
4.125,-1,0,-1,-1,-2,-2,0,0,0.0
4.13,0,-5,-3,0,-5,-1,-2,-1,0.0
4.135,1,0,-1,-1,-2,0,0,-2,0.0
4.14,-1,-2,-3,0,0,-1,0,-1,0.0
4.1450000000000005,-2,-2,0,1,-1,0,-3,-3,0.0
4.15,-1,-2,-1,-4,-2,-1,0,-2,0.0
4.155,-1,-1,0,-4,1,1,-2,1,0.0
4.16,-1,-1,-3,-1,0,-2,1,0,0.0
4.165,-1,-1,-1,1,-1,-1,1,0,0.0
4.17,0,-2,-1,0,0,0,0,-2,0.0
4.175,-1,0,0,-1,1,-2,-1,1,0.0
4.18,0,-1,-2,-1,1,-2,0,0,0.0
4.1850000000000005,-3,-3,1,-4,1,0,-4,0,0.0
4.19,-3,-1,-3,-1,0,-2,-1,0,0.0
4.195,-1,-3,0,0,-2,-1,0,-1,0.0
4.2,-1,-3,-2,0,-1,1,0,-2,0.0
4.205,0,-1,-3,0,-3,0,0,-2,0.0
4.21,-2,-1,0,-1,-1,-2,-3,0,0.0
4.215,-1,-3,-1,-2,-1,-2,0,-3,0.0
4.22,-1,1,0,1,-2,-1,-2,0,0.0
4.225,1,-3,-3,-1,1,-1,-2,0,0.0
4.23,-1,-5,-2,-3,3,-2,0,-1,0.0
4.235,-1,1,0,1,1,-1,-1,0,0.0
4.24,-2,-3,1,-2,-3,0,0,-2,0.0
4.245,-2,-1,-2,-1,0,0,-1,-2,0.0
4.25,0,0,0,2,0,2,-1,0,0.0
4.255,-1,-1,0,-3,-2,0,-1,-3,0.0
4.26,-1,-1,-1,-1,1,0,-1,-2,0.0
4.265,-1,-2,0,0,-2,-2,0,-1,0.0
4.2700000000000005,-2,-1,-4,0,1,-2,-3,-4,0.0
4.275,-1,-4,-3,-2,0,-1,-1,0,0.0
4.28,-2,-2,-1,-1,-1,0,-2,-2,0.0
4.285,1,-2,1,-1,-1,-2,-3,0,0.0
4.29,0,-3,2,-3,-3,-2,-1,0,0.0
4.295,-3,-2,-1,-1,-2,-3,-1,0,0.0
4.3,0,-1,-2,0,-4,-1,1,-1,0.0
4.305,-1,-2,-1,-1,0,-1,-1,-1,0.0
4.3100000000000005,0,0,0,-2,-1,-1,0,-4,0.0
4.315,0,1,1,1,-2,-2,-2,-1,0.0
4.32,-1,-1,-2,-3,-1,0,-1,-1,0.0
4.325,1,-3,0,0,0,-1,1,-3,0.0
4.33,-2,-1,0,-1,1,-3,-5,-2,0.0
4.335,-2,-2,-2,-3,-1,-1,-1,1,0.0
4.34,-3,-2,0,2,1,-2,0,-1,0.0
4.345,-2,-1,-1,-2,1,-2,1,1,0.0
4.3500000000000005,-2,0,-1,-1,-2,0,0,-2,0.0
4.355,1,0,0,-1,-1,-1,-3,-2,0.0
4.36,0,-3,1,-2,-2,-3,0,-2,0.0
4.365,-2,-2,-2,-3,-1,-1,-3,0,0.0
4.37,-3,-3,1,0,-3,-2,-1,0,0.0
4.375,-1,-3,-1,0,-1,-2,0,0,0.0
4.38,0,-1,-1,-3,-1,-2,-2,0,0.0
4.385,-1,0,0,1,-1,-2,0,-2,0.0
4.39,0,1,-1,-3,-1,-1,-1,-2,0.0
4.3950000000000005,-1,-1,-1,2,-2,-1,0,0,0.0
4.4,0,-1,-1,-1,2,-1,0,0,0.0
4.405,-2,-1,0,-2,-3,-1,1,-4,0.0
4.41,0,0,0,-1,2,-1,-1,-1,0.0
4.415,-1,-2,-2,-2,-3,0,0,0,0.0
4.42,-3,-1,-1,0,1,-2,-2,1,0.0
4.425,-1,-1,-1,-2,-4,-1,-2,-1,0.0
4.43,-1,-2,-3,1,-4,-1,-1,1,0.0
4.4350000000000005,-1,-1,1,-2,0,-1,0,0,0.0
4.44,-1,-1,-1,0,-1,0,-1,-1,0.0
4.445,1,-1,-2,-3,-1,-2,0,-1,0.0
4.45,0,-1,-1,-2,-2,0,1,-1,0.0
4.455,-2,-1,-5,-2,-1,-3,-2,-2,0.0
4.46,-1,0,1,0,-3,-2,0,-2,0.0
4.465,-1,-1,-4,-2,-1,0,-1,0,0.0
4.47,0,-1,-1,1,0,-1,1,-2,0.0
4.4750000000000005,-1,-1,0,-3,2,-1,0,-1,0.0
4.48,-1,1,-1,-1,-1,0,-1,-3,0.0
4.485,-2,-4,-2,0,-2,0,0,-1,0.0
4.49,-1,-1,0,-2,-2,0,-3,0,0.0
4.495,1,-2,-3,-2,2,-2,0,-3,0.0
4.5,0,-3,-3,-3,-2,-1,-1,0,0.0
4.505,-1,-1,1,1,0,-1,-1,-1,0.0
4.51,-1,-2,-2,-2,0,-2,-2,-1,0.0
4.515,-2,-3,0,0,-1,-2,-2,-2,0.0
4.5200000000000005,-1,-2,-1,-1,0,-2,-2,-1,0.0
4.525,-1,-1,-1,0,-1,-4,-1,-1,0.0
4.53,-1,1,-1,-2,1,0,1,0,0.0
4.535,0,0,1,0,2,-1,-1,0,0.0
4.54,-1,-2,-1,0,0,-1,-2,-2,0.0
4.545,-3,-2,-1,-1,2,-1,-1,-2,0.0
4.55,-1,-3,-2,-1,-2,-2,0,-1,0.0
4.555,-1,-1,-2,-2,0,-2,0,-1,0.0
4.5600000000000005,-1,-1,-1,-2,-3,-1,-1,0,0.0
4.565,1,1,0,-2,-1,-2,-3,-1,0.0
4.57,-1,0,-1,-1,-1,-1,-3,1,0.0
4.575,-3,0,-2,0,0,0,1,-1,0.0
4.58,-1,-5,-1,-1,0,0,-1,-3,0.0
4.585,-1,-1,-1,-1,-1,0,-2,-1,0.0
4.59,-1,0,-1,-1,-1,-3,1,-1,0.0
4.595,-1,-2,3,0,0,-2,-2,-1,0.0
4.6000000000000005,-2,-4,-3,-3,0,-3,-1,0,0.0
4.605,-2,0,-1,-1,-2,1,-3,0,0.0
4.61,-1,-4,-3,0,-1,-2,-2,-2,0.0
4.615,-1,0,0,1,-1,0,-2,-1,0.0
4.62,-2,1,0,1,-1,0,2,-3,0.0
4.625,-1,-1,-1,-2,1,0,0,-2,0.0
4.63,-3,-2,-1,-1,0,-2,-2,-2,0.0
4.635,-1,-2,-3,0,-2,0,-2,-2,0.0
4.64,-1,-3,0,-1,-2,-1,-2,0,0.0
4.6450000000000005,0,-2,-2,0,-2,0,0,-3,0.0
4.65,-1,-2,0,-1,0,-1,1,-2,0.0
4.655,0,-1,-3,-2,-2,-1,0,0,0.0
4.66,-2,0,-1,-2,-1,-1,-1,-1,0.0
4.665,0,0,-1,-3,0,-2,-2,2,0.0
4.67,-2,-3,1,-1,-1,0,-2,-1,0.0
4.675,-2,-2,-2,-1,-3,0,-3,1,0.0
4.68,0,0,0,-1,-3,-2,0,-2,0.0
4.6850000000000005,-1,-2,1,-1,1,-2,-1,0,0.0
4.69,0,1,-2,0,0,-1,0,-1,0.0
4.695,-2,-1,0,-2,-2,-2,-1,0,0.0
4.7,-2,1,-2,0,-1,2,-2,0,0.0
4.705,0,-3,-4,-2,-1,-1,1,-1,0.0
4.71,-1,-2,0,4,3,-2,-2,-2,0.0
4.715,-2,-1,-2,-5,0,0,-2,-2,0.0
4.72,-1,-4,-2,-1,0,-1,0,0,0.0
4.7250000000000005,-2,-2,-4,-2,-2,-3,-2,0,0.0
4.73,-1,-1,-1,-2,0,0,-1,0,0.0
4.735,-1,1,-1,0,0,-2,-1,-2,0.0
4.74,1,-3,1,-2,-1,-1,-2,0,0.0
4.745,-1,-1,1,-1,0,-1,-2,0,0.0
4.75,-2,1,-1,-1,-2,-2,1,0,0.0
4.755,0,-3,-2,-1,-1,-2,0,-4,0.0
4.76,-2,-1,0,-2,0,-2,0,-1,0.0
4.765,0,0,-4,0,0,-2,0,-1,0.0
4.7700000000000005,0,-1,0,-1,-3,-2,-2,-2,0.0
4.775,0,-1,0,0,1,-2,1,-1,0.0
4.78,-2,-2,-2,-1,-2,-2,0,0,0.0
4.785,-1,0,-2,-1,-2,1,1,-1,0.0
4.79,-2,-3,0,-2,-2,-2,-4,-2,0.0
4.795,-1,-2,0,0,-3,-2,0,0,0.0
4.8,-2,0,-4,0,0,-2,-1,2,0.0
4.805,-1,-1,-1,0,0,-2,-1,0,0.0
4.8100000000000005,0,1,-3,-2,-2,0,1,-2,0.0
4.815,-1,-3,-3,-2,-3,0,-2,-3,0.0
4.82,-1,-1,-1,0,-1,-2,0,-2,0.0
4.825,0,-1,0,0,-1,-1,-2,-3,0.0
4.83,-2,0,-2,1,0,1,0,-1,0.0
4.835,-1,-2,-2,0,1,0,-1,1,0.0
4.84,0,-1,-1,-1,-1,-2,-1,-3,0.0
4.845,-1,-1,0,0,-2,-1,-4,-2,0.0
4.8500000000000005,-2,-2,0,-2,-2,-2,-2,-1,0.0
4.855,-3,-1,0,-2,0,-2,-1,-1,0.0
4.86,-1,0,-1,-1,-1,0,-1,-2,0.0
4.865,-1,-3,-1,-2,0,-2,0,-1,0.0
4.87,1,-3,-1,0,-2,-2,1,0,0.0
4.875,-1,-3,-1,-2,0,0,0,0,0.0
4.88,1,-1,-1,-1,-2,-1,-1,0,0.0
4.885,-1,0,-1,1,1,0,-2,-1,0.0
4.89,-3,-1,-3,-1,-2,1,-1,-2,0.0
4.8950000000000005,1,-1,0,-3,1,-4,-3,-2,0.0
4.9,-2,-1,1,-1,1,-2,0,-1,0.0
4.905,-1,-2,-1,0,-1,-1,1,0,0.0
4.91,-1,-3,-1,-1,2,-1,-2,-1,0.0
4.915,-2,-2,-3,0,1,0,-2,-2,0.0
4.92,-2,-1,-2,-1,-2,-3,-1,-2,0.0
4.925,-2,1,0,-1,1,-1,0,-1,0.0
4.93,-2,-1,-1,-4,-3,0,1,-1,0.0
4.9350000000000005,-3,0,2,1,-1,-2,-1,-1,0.0
4.94,-1,-2,-2,0,2,1,-2,-2,0.0
4.945,-1,-1,-2,-2,-3,-2,-1,-1,0.0
4.95,-1,-2,0,-1,-3,-2,-1,0,0.0
4.955,1,-2,-1,-3,-2,-2,-3,-2,0.0
4.96,-1,0,-1,-1,-1,-1,0,-2,0.0
4.965,-1,-3,-2,0,1,-2,-3,-3,0.0
4.97,-1,-3,-1,-1,0,0,-1,-1,0.0
4.9750000000000005,-2,0,0,-1,-4,-1,1,-2,0.0
4.98,-1,-1,1,-1,-1,0,-3,1,0.0
4.985,-1,-3,0,0,-1,0,1,1,0.0
4.99,-1,0,-1,1,-2,-2,0,0,0.0
4.995,-1,-1,-2,-4,1,0,-1,0,0.0
5.0,0,-2,-2,0,-1,-3,-1,-1,0.0
5.005,-1,-2,1,-1,2,-1,0,-1,0.0
5.01,-1,-2,-3,-2,-1,-1,-2,-1,0.0
5.015,-1,-2,0,0,-3,-2,-1,-2,0.0
5.0200000000000005,-1,0,-1,0,-2,-1,-1,-1,0.0
5.025,-2,-1,-1,-1,-3,-1,-3,0,0.0
5.03,0,0,-1,-2,2,-2,1,-2,0.0
5.035,-1,0,0,-5,-2,1,0,-1,0.0
5.04,-1,-1,-1,-1,2,-1,-2,-1,0.0
5.045,-1,-2,-3,-2,-3,-2,-3,0,0.0
5.05,-1,-1,-2,-1,2,0,-1,-2,0.0
5.055,-2,0,-1,1,-1,-1,1,-1,0.0
5.0600000000000005,-1,-2,-2,-1,0,-1,-1,-1,0.0
5.065,-1,-2,-1,-1,-2,1,-3,-1,0.0
5.07,-1,-1,0,-1,1,-1,-2,1,0.0
5.075,-2,-3,-2,1,1,-1,1,1,0.0
5.08,-1,-1,0,-1,-2,-2,-1,-1,0.0
5.085,-1,-2,-1,-1,-1,-2,-1,-3,0.0
5.09,-1,-1,-1,-3,-3,-1,-2,0,0.0
5.095,-3,-3,-2,0,1,-1,-2,-1,0.0
5.1000000000000005,-1,0,0,-2,-1,-2,0,-1,0.0
5.105,-2,-2,-2,0,1,0,-2,-1,0.0
5.11,-1,-2,1,-1,1,-3,0,0,0.0
5.115,0,-1,-2,-1,-3,0,-2,-1,0.0
5.12,-3,1,-2,-2,1,-1,-1,-1,0.0
5.125,-1,-1,-1,-1,-2,-2,2,-1,0.0
5.13,0,0,-1,-2,-2,-1,-1,-1,0.0
5.135,1,-3,0,0,-1,-1,-4,-2,0.0
5.14,-2,-1,-2,0,-3,-2,-1,0,0.0
5.1450000000000005,-1,0,1,-1,-2,-1,1,-1,0.0
5.15,-3,1,-3,0,-2,-2,0,0,0.0
5.155,-2,0,-1,-1,-3,-1,-2,-1,0.0
5.16,1,-1,-3,1,-1,0,0,-2,0.0
5.165,-1,-1,0,-2,-2,0,0,0,0.0
5.17,-2,-2,-1,-2,-2,-1,-3,-1,0.0
5.175,-1,-2,-2,-1,0,-1,1,0,0.0
5.18,-1,-2,-1,-1,0,-2,-1,-1,0.0
5.1850000000000005,-1,-1,-4,-2,0,-1,0,-1,0.0
5.19,0,-1,-1,-3,-1,-1,-2,-2,0.0
5.195,0,-3,-2,2,1,-1,1,-1,0.0
5.2,-2,-2,3,-2,-1,0,-2,-2,0.0
5.205,-1,0,0,-1,-2,-2,-1,-1,0.0
5.21,1,-3,-1,-2,-1,0,0,-3,0.0
5.215,-2,0,-3,-1,1,0,0,0,0.0
5.22,0,1,-2,1,-1,-1,1,-1,0.0
5.2250000000000005,0,-1,1,-1,-2,-2,0,-2,0.0
5.23,-1,-3,-1,-1,-2,0,-1,0,0.0
5.235,-1,-2,0,-2,-2,-1,-2,-1,0.0
5.24,-1,-1,0,0,-1,-2,0,-2,0.0
5.245,-1,-3,-1,0,2,-1,-1,1,0.0
5.25,-2,1,0,1,-1,-1,-1,-1,0.0
5.255,0,-3,-1,-3,-3,-2,-1,0,0.0
5.26,-2,-2,-1,-1,-3,0,-2,-1,0.0
5.265,-1,-1,1,0,-2,0,-1,-2,0.0
5.2700000000000005,0,0,0,0,-1,-1,0,1,0.0
5.275,-1,0,0,1,1,-3,-3,-1,0.0
5.28,-2,0,-4,0,-1,-2,-1,1,0.0
5.285,-2,-4,-1,0,-2,-1,0,1,0.0
5.29,-1,-1,1,0,-2,1,-2,-2,0.0
5.295,-3,-2,3,0,-1,-1,0,-1,0.0
5.3,-2,-1,0,-3,0,0,-1,-2,0.0
5.305,-3,0,0,-1,1,-2,-2,-1,0.0
5.3100000000000005,-1,-1,0,-3,-1,-3,0,-2,0.0
5.315,0,0,0,0,-1,-1,-1,-1,0.0
5.32,-3,-4,-2,-2,-2,-1,0,-2,0.0
5.325,0,-1,-3,-1,-1,0,-2,0,0.0
5.33,-2,-2,-1,0,-1,-1,-2,0,0.0
5.335,0,-1,0,-2,-1,-1,0,0,0.0
5.34,-1,-2,-3,-2,-1,0,-1,0,0.0
5.345,0,1,-2,-2,-2,-2,-1,0,0.0
5.3500000000000005,-2,-3,-1,-2,0,-2,-1,-1,0.0
5.355,0,-1,0,-2,1,-2,0,-2,0.0
5.36,1,-2,1,0,-2,-1,-1,0,0.0
5.365,-2,0,-1,0,-1,-3,-2,-2,0.0
5.37,-1,-2,0,0,-2,-4,-1,0,0.0
5.375,0,-2,1,-1,-1,-2,1,-1,0.0
5.38,1,1,-1,-2,-2,-2,-2,-1,0.0
5.385,0,0,0,-3,-1,0,1,0,0.0
5.39,-1,-3,-5,-1,0,0,0,-2,0.0
5.3950000000000005,0,-1,0,-1,-2,-1,-1,2,0.0
5.4,0,-1,2,0,-1,-1,-1,0,0.0
5.405,0,-1,-2,-2,0,-2,1,-1,0.0
5.41,1,-2,0,0,0,-1,-3,0,0.0
5.415,-1,-1,-4,-1,-1,1,-1,-2,0.0
5.42,-1,-1,-2,-1,0,-2,0,-2,0.0
5.425,-1,-2,-3,-1,-2,0,-3,-1,0.0
5.43,-1,0,-1,-1,0,-2,0,-1,0.0
5.4350000000000005,-2,-2,-2,0,2,0,-1,-2,0.0
5.44,-2,-1,0,-2,0,-1,-2,0,0.0
5.445,-2,-3,1,-2,2,-2,-2,-3,0.0
5.45,1,-1,-1,-2,-5,-2,-3,-1,0.0
5.455,-2,-1,-2,-1,0,-2,-1,0,0.0
5.46,-2,-1,-1,0,0,-1,-1,-1,0.0
5.465,-1,-1,-1,0,-1,1,-3,-2,0.0
5.47,-1,-1,-1,-3,-1,0,0,-2,0.0
5.4750000000000005,-1,1,0,0,-3,0,-1,-3,0.0
5.48,-1,1,0,0,-1,-1,-2,-2,0.0
5.485,-1,-1,-1,1,-1,-1,0,-2,0.0
5.49,-2,-3,-4,-1,-2,2,-2,0,0.0
5.495,-1,1,-2,-2,0,-2,-1,0,0.0
5.5,-1,-4,-4,-2,-2,0,-1,0,0.0
5.505,-1,-1,-1,0,-3,-1,-2,-3,0.0
5.51,-1,-1,2,-1,1,-1,0,-1,0.0
5.515,-2,-2,0,0,-2,-1,-1,-3,0.0
5.5200000000000005,-1,0,-3,-2,-3,-1,-1,-1,0.0
5.525,0,-1,-3,-2,-2,-3,0,0,0.0
5.53,-2,-3,-3,-1,0,-2,-1,-2,0.0
5.535,-1,-2,-2,0,-1,-3,0,0,0.0
5.54,-1,0,1,-1,1,-2,-2,-2,0.0
5.545,-3,-3,-2,-1,-3,-3,1,-1,0.0
5.55,-2,1,-1,0,-1,-1,-2,0,0.0
5.555,-1,-2,-2,1,-1,0,-1,-2,0.0
5.5600000000000005,0,-4,0,-2,1,-2,-2,-1,0.0
5.565,0,-1,1,1,-1,0,1,0,0.0
5.57,-1,-2,-1,1,1,-2,-1,-2,0.0
5.575,-2,0,-1,-2,-1,-2,-2,0,0.0
5.58,0,-3,-5,-2,-2,-2,1,0,0.0
5.585,0,-1,-2,-1,-1,0,0,-2,0.0
5.59,1,-2,0,-1,-1,0,-1,0,0.0
5.595,1,0,0,-1,-2,0,-1,-1,0.0
5.6000000000000005,-1,-3,2,-1,1,-2,-1,-1,0.0
5.605,-1,-3,-2,0,0,-1,0,-1,0.0
5.61,-2,-1,0,1,-3,0,-1,0,0.0
5.615,-1,-1,-1,-3,-1,0,-3,-1,0.0
5.62,-1,-1,-3,-1,-3,-2,-1,0,0.0
5.625,-1,0,0,-1,-1,0,0,-1,0.0
5.63,-1,-3,1,0,-2,-2,-2,-3,0.0
5.635,-2,-3,-1,-2,3,0,1,0,0.0
5.64,-2,-2,-1,-1,-3,1,-2,-2,0.0
5.6450000000000005,0,0,-3,-3,-2,0,-1,-2,0.0
5.65,0,-1,-1,0,1,-1,0,0,0.0
5.655,-2,-3,1,-2,-4,-2,2,0,0.0
5.66,-1,-3,-1,0,-1,0,-2,-1,0.0
5.665,-1,-1,1,-2,-1,-2,-2,-1,0.0
5.67,-2,-2,-2,-3,0,-1,0,0,0.0
5.675,-3,-2,-2,-1,-2,-1,-3,-1,0.0
5.68,1,-2,1,0,-2,2,-1,1,0.0
5.6850000000000005,0,-2,0,-1,-1,0,-2,0,0.0
5.69,0,-1,-3,-2,-1,-4,1,-2,0.0
5.695,-1,-2,-1,1,1,-3,-1,0,0.0
5.7,-2,0,-1,-1,1,-1,1,-2,0.0
5.705,0,-1,0,0,0,-1,-2,-1,0.0
5.71,-1,-1,0,-3,-1,1,0,-1,0.0
5.715,0,-2,0,-2,-2,-1,-1,0,0.0
5.72,-2,0,-2,-2,0,-1,1,0,0.0
5.7250000000000005,-2,-3,0,-1,-1,-1,-3,-1,0.0
5.73,-1,-1,-2,-2,-1,-3,-1,-4,0.0
5.735,-2,-4,-2,0,0,-1,-1,2,0.0
5.74,1,-1,-1,0,1,-1,-2,-2,0.0
5.745,-3,-4,-3,-3,0,-1,0,0,0.0
5.75,-2,1,-1,-2,-2,0,0,1,0.0
5.755,-2,1,-3,-2,0,-2,-4,-3,0.0
5.76,-1,-1,-2,-3,0,0,-1,-1,0.0
5.765,0,-1,-1,-2,-2,0,-2,-1,0.0
5.7700000000000005,1,0,0,0,-1,0,-2,-3,0.0
5.775,1,-2,-2,-1,-1,-1,-1,-1,0.0
5.78,-1,-2,-2,0,1,-3,-1,0,0.0
5.785,-1,-1,-1,-2,0,-3,0,-1,0.0
5.79,-4,-2,-2,-1,0,-1,0,1,0.0
5.795,-1,0,0,1,-2,-1,2,-3,0.0
5.8,-2,-1,0,-1,-2,0,0,-3,0.0
5.805,-2,-2,0,0,2,0,0,-2,0.0
5.8100000000000005,1,-2,0,0,-2,-1,-1,-1,0.0
5.815,-2,0,-2,0,3,-1,1,-1,0.0
5.82,-1,-1,-1,-2,-1,-3,-1,0,0.0
5.825,-1,-2,-3,-4,-2,-4,-2,-2,0.0
5.83,-1,-2,0,-2,0,-2,-2,0,0.0
5.835,0,0,-3,-1,0,0,-2,0,0.0
5.84,-1,-2,-1,1,-2,0,-1,-1,0.0
5.845,-1,-1,-2,-1,-1,0,-2,0,0.0
5.8500000000000005,-1,-4,0,1,0,0,-2,-1,0.0
5.855,-1,0,-1,-5,-1,-3,-1,-2,0.0
5.86,0,-1,-2,-1,1,-1,-1,-1,0.0
5.865,-1,-1,-1,0,-1,-1,-3,-1,0.0
5.87,-1,1,-4,-3,1,-1,0,-1,0.0
5.875,-2,-4,2,-2,1,-3,0,-1,0.0
5.88,-1,-2,-1,-2,-4,0,0,0,0.0
5.885,0,-2,-2,-3,1,0,1,-1,0.0
5.89,-1,0,1,1,-2,-1,-1,-1,0.0
5.8950000000000005,1,-1,0,-3,-3,0,-1,-3,0.0
5.9,-2,1,-2,0,0,-1,-2,-2,0.0
5.905,-2,-1,0,0,-1,-1,0,-3,0.0
5.91,-1,-1,0,1,-2,-1,-1,0,0.0
5.915,-1,1,-3,-2,-3,0,-1,1,0.0
5.92,-2,-3,2,-2,1,-2,-1,-1,0.0
5.925,-1,0,-4,-1,1,-1,0,-1,0.0
5.93,0,-1,1,-1,1,-2,-2,-3,0.0
5.9350000000000005,0,-3,-1,-2,0,0,-1,-1,0.0
5.94,-1,1,-5,-2,-3,-2,0,-3,0.0
5.945,-2,1,0,1,-3,-1,-3,1,0.0
5.95,-1,-3,-2,-2,1,-2,1,0,0.0
5.955,-2,-1,-2,0,-2,-2,0,0,0.0
5.96,0,-2,0,0,2,-1,-4,-1,0.0
5.965,0,-3,1,1,-1,0,0,-2,0.0
5.97,-2,0,-3,1,-2,0,1,-2,0.0
5.9750000000000005,-2,-2,-1,-2,0,-1,-1,-1,0.0
5.98,-1,-4,-2,-3,-2,-1,1,1,0.0
5.985,-2,1,-1,-1,0,-2,-3,-2,0.0
5.99,0,-2,-2,0,0,-1,-3,-1,0.0
5.995,0,-1,0,-1,0,-1,-1,0,0.0
6.0,1,0,-2,0,-1,0,-1,-1,0.0
6.005,0,-3,0,0,-2,-2,1,-2,0.0
6.01,-1,-2,-1,-2,-4,-1,-1,-2,0.0
6.015000000000001,-1,1,-3,0,-1,-3,-2,-1,0.0
6.0200000000000005,-3,-1,1,-2,-2,0,-3,-1,0.0
6.025,0,-1,-2,-3,0,0,-1,0,0.0
6.03,0,0,-1,-1,-1,2,-1,-2,0.0
6.035,-1,-3,2,-2,-2,-3,-3,-2,0.0
6.04,-2,-2,0,1,1,-1,1,-2,0.0
6.045,-2,0,-2,0,-3,-1,0,1,0.0
6.05,-2,-3,-2,-3,-2,-2,-1,0,0.0
6.055,0,-1,-1,1,3,1,-2,-1,0.0
6.0600000000000005,0,-1,-1,1,0,-2,0,-2,0.0
6.065,0,-1,-2,-2,3,-2,-1,-2,0.0
6.07,0,1,-3,-1,-1,-2,-1,-3,0.0
6.075,-1,-2,-1,0,-3,0,-1,-1,0.0
6.08,-2,0,-1,0,-2,0,0,1,0.0
6.085,1,-4,2,1,0,0,-2,-1,0.0
6.09,-1,0,-2,-1,-3,0,-1,0,0.0
6.095,-3,-2,0,-1,-2,0,0,1,0.0
6.1000000000000005,0,-1,-3,0,0,-3,-1,-1,0.0
6.105,-2,0,-2,-2,-1,-2,-1,0,0.0
6.11,-1,1,1,1,0,-2,1,-1,0.0
6.115,1,-2,-2,-2,0,0,-2,-2,0.0
6.12,-1,-1,1,-3,-1,1,0,-1,0.0
6.125,-1,-1,-1,-2,-1,-2,-1,-2,0.0
6.13,-2,-2,-1,-1,-2,-1,-1,0,0.0
6.135,0,-1,-3,-1,0,-2,2,0,0.0
6.140000000000001,-1,0,-1,1,0,-3,-3,0,0.0
6.1450000000000005,1,-2,-3,0,-1,-2,-3,-1,0.0
6.15,-1,-1,-2,-4,-1,1,0,-2,0.0
6.155,0,-2,-2,-2,-1,-2,1,-2,0.0
6.16,-3,-1,0,-1,-1,0,-1,-1,0.0
6.165,1,-3,1,-2,-1,0,1,-2,0.0
6.17,-1,-1,-3,2,1,0,1,-1,0.0
6.175,-3,-2,0,0,-1,-3,-1,-1,0.0
6.18,-1,-3,-1,-3,0,-2,-1,-2,0.0
6.1850000000000005,-1,-2,-3,-1,-1,-1,-2,1,0.0
6.19,-1,-2,0,-1,0,-4,-4,0,0.0
6.195,0,-4,-2,0,0,0,0,-3,0.0
6.2,0,0,-1,1,0,-1,0,-2,0.0
6.205,-1,1,0,-1,-3,-2,-2,-1,0.0
6.21,-2,-4,0,-3,2,1,0,0,0.0
6.215,-2,0,0,-2,-1,0,-1,-1,0.0
6.22,-1,-4,0,0,-2,-1,-1,-1,0.0
6.2250000000000005,-1,-2,-2,-1,-1,0,0,-2,0.0
6.23,0,-2,0,1,-2,-3,-3,-3,0.0
6.235,0,1,1,1,0,0,-1,-2,0.0
6.24,-1,-3,-2,-2,-1,-1,1,0,0.0
6.245,-1,-1,1,0,-3,0,-1,-1,0.0
6.25,-1,-2,0,-2,0,-1,0,-1,0.0
6.255,-2,-3,-1,-1,-2,-2,-1,2,0.0
6.26,-1,-1,0,-2,0,-1,-1,-1,0.0
6.265000000000001,-2,0,-2,-2,0,0,1,0,0.0
6.2700000000000005,0,-1,-4,-2,1,0,-3,0,0.0
6.275,-1,-1,-4,-1,-2,0,-3,-2,0.0
6.28,-1,-4,-1,-1,0,1,0,0,0.0
6.285,-2,-2,1,0,-3,-4,-2,0,0.0
6.29,-2,0,-1,-2,-1,-3,-3,-1,0.0
6.295,-1,-1,-1,-2,0,-1,-1,0,0.0
6.3,-1,-2,-1,1,-4,-1,-2,-2,0.0
6.305,0,0,-3,-3,1,0,-2,0,0.0
6.3100000000000005,0,-1,-1,-1,0,0,0,-1,0.0
6.315,-3,-2,0,-1,0,-2,-2,-1,0.0
6.32,-1,0,-3,-2,-4,-3,1,1,0.0
6.325,-1,-2,0,0,0,0,2,-1,0.0
6.33,-1,0,0,-1,-2,-3,0,2,0.0
6.335,-2,-2,-3,0,0,0,-2,0,0.0
6.34,2,0,-1,-1,-2,-1,-1,-3,0.0
6.345,-2,-2,-2,-1,-1,-1,-4,-1,0.0
6.3500000000000005,-3,-4,0,1,-1,0,-1,-1,0.0
6.355,-1,-1,-1,0,0,0,2,-1,0.0
6.36,0,0,-2,-1,0,-1,-3,-1,0.0
6.365,-1,-3,0,-1,-2,0,-1,-2,0.0
6.37,0,-3,0,-3,-5,-3,-1,-3,0.0
6.375,0,0,-1,1,1,-1,0,-1,0.0
6.38,-1,-3,-1,-1,0,-2,-3,-1,0.0
6.385,0,0,-3,1,0,0,-2,-2,0.0
6.390000000000001,-2,-2,-3,-1,1,-1,0,0,0.0
6.3950000000000005,-1,-2,1,-3,-2,0,-3,1,0.0
6.4,-1,0,-2,-3,2,-2,-2,-1,0.0
6.405,-2,-3,1,0,0,-3,0,-1,0.0
6.41,-1,-1,-2,0,1,-1,-1,0,0.0
6.415,0,-2,-4,-1,-2,-1,-1,-1,0.0
6.42,-1,-2,-1,0,-2,1,0,0,0.0
6.425,-1,-3,1,-2,0,-3,-1,-1,0.0
6.43,0,-1,2,-1,-1,0,-2,-1,0.0
6.4350000000000005,-1,-1,-1,0,0,-1,-2,0,0.0
6.44,-1,-2,-2,0,-2,0,-1,0,0.0
6.445,-1,0,-1,-2,1,1,1,-2,0.0
6.45,-3,-2,-2,-2,-3,-1,-1,-2,0.0
6.455,-2,-1,2,0,-3,-3,1,-3,0.0
6.46,-1,1,-3,0,1,-2,-2,0,0.0
6.465,0,0,-3,-3,-3,-1,-2,-1,0.0
6.47,-1,0,-2,-4,0,-3,-2,0,0.0
6.4750000000000005,-1,-1,1,-2,-1,-3,-1,-2,0.0
6.48,-4,-2,0,-1,0,-1,-1,-1,0.0
6.485,-1,0,-1,-1,-1,0,-3,-1,0.0
6.49,0,-2,-2,1,0,0,-1,-1,0.0
6.495,0,-1,-4,-3,-1,-1,-1,-2,0.0
6.5,-1,-2,3,-1,0,-2,-1,0,0.0
6.505,-1,-2,0,-1,-2,-2,1,0,0.0
6.51,0,-1,-1,0,-1,-1,-2,0,0.0
6.515000000000001,0,1,-2,-1,1,0,-2,0,0.0
6.5200000000000005,1,-1,-1,-1,-2,-1,0,-1,0.0
6.525,0,-1,-1,2,-4,-1,-1,-2,0.0
6.53,-1,-2,0,-2,1,-1,-1,-1,0.0
6.535,-3,-3,-1,-3,-2,-1,-1,-1,0.0
6.54,-1,-1,0,-1,-1,-2,-2,0,0.0
6.545,-1,-4,0,-1,1,-1,-1,-2,0.0
6.55,-1,-4,1,-1,-1,-2,0,-1,0.0
6.555,1,1,-1,-2,1,-1,-1,0,0.0
6.5600000000000005,-2,0,0,-1,3,-3,-1,-3,0.0
6.565,-1,1,-1,0,-2,-1,-1,-1,0.0
6.57,-2,-3,-2,3,0,1,0,-3,0.0
6.575,-1,-1,2,-1,-2,1,-3,0,0.0
6.58,-1,-1,-2,-2,-2,-2,0,-2,0.0
6.585,0,-1,-1,-1,-3,-2,0,-1,0.0
6.59,-2,0,0,-3,3,-1,-2,-1,0.0
6.595,-1,-2,-3,-2,-2,-5,-1,0,0.0
6.6000000000000005,0,0,2,-1,-1,-1,-1,-3,0.0
6.605,0,-1,0,-3,2,1,2,0,0.0
6.61,-3,-1,-3,2,-2,-2,-1,0,0.0
6.615,-2,0,-2,-1,0,-1,0,2,0.0
6.62,-2,-2,-2,-2,-3,0,0,-1,0.0
6.625,1,1,-1,-2,-4,0,-2,-2,0.0
6.63,0,0,2,0,-1,-2,-1,-1,0.0
6.635,-2,-1,-4,0,-1,0,0,0,0.0
6.640000000000001,-1,-4,-2,1,-1,-2,-3,0,0.0
6.6450000000000005,-1,-3,1,-1,-3,-1,-3,0,0.0
6.65,-1,0,-2,-1,-2,-2,0,1,0.0
6.655,-1,-3,1,-4,0,-2,-3,-2,0.0
6.66,0,-1,-3,-2,-1,-1,0,-2,0.0
6.665,-1,-1,-2,0,2,-1,-1,1,0.0
6.67,0,-1,-1,-2,-3,-1,-1,-1,0.0
6.675,-2,-1,0,1,-2,-1,0,-2,0.0
6.68,-2,-3,1,1,-1,0,-1,-1,0.0
6.6850000000000005,-3,1,-1,1,-1,-2,-3,-2,0.0
6.69,-1,3,-1,-1,-2,0,-1,-1,0.0
6.695,-1,-3,1,-2,2,-1,-3,-2,0.0
6.7,-1,0,-1,-1,-1,-1,-1,-1,0.0
6.705,0,-1,-2,-3,0,-1,1,-1,0.0
6.71,-2,-1,-2,-2,-3,-1,-2,-1,0.0
6.715,0,0,0,-1,0,-1,2,0,0.0
6.72,-3,-1,-1,-1,1,-1,-1,-1,0.0
6.7250000000000005,0,-3,1,-1,0,-1,-1,1,0.0
6.73,0,-3,-3,-2,0,-1,-1,-2,0.0
6.735,0,-2,-2,-2,-3,-2,0,-2,0.0
6.74,-1,0,-1,0,-2,0,-1,-1,0.0
6.745,-2,-2,-1,0,-1,-3,-1,0,0.0
6.75,-1,-1,0,-2,0,0,-2,0,0.0
6.755,-1,0,-3,0,-1,0,-1,1,0.0
6.76,0,-2,-1,-1,-1,-1,-1,0,0.0
6.765000000000001,0,0,-2,-2,-1,0,-1,-4,0.0
6.7700000000000005,-1,0,0,-1,0,-1,0,-2,0.0
6.775,1,0,-1,-1,-1,-2,1,-3,0.0
6.78,-2,-2,0,-2,0,-1,-2,-3,0.0
6.785,-1,-3,1,-1,-2,-1,-1,-1,0.0
6.79,0,-1,-4,0,1,-1,-1,-1,0.0
6.795,-3,-2,-2,-1,1,0,1,-1,0.0
6.8,-2,0,0,-2,1,-2,-1,0,0.0
6.805,-1,-3,0,-2,-1,0,0,-1,0.0
6.8100000000000005,-1,-1,-1,-1,-1,0,-1,-1,0.0
6.815,-2,-1,-1,0,-4,-2,-1,-3,0.0
6.82,0,1,-1,1,-2,-1,1,0,0.0
6.825,-2,-3,-1,-1,2,-4,-5,0,0.0
6.83,-1,-3,0,-1,-2,-1,-3,-2,0.0
6.835,0,-1,-1,-5,0,0,-1,-2,0.0
6.84,-1,-4,-1,-2,-2,-3,1,-1,0.0
6.845,0,-1,-1,1,-1,-1,-1,0,0.0
6.8500000000000005,-2,-2,1,-1,2,-1,2,-1,0.0
6.855,-1,-3,-4,1,-2,-2,-3,-1,0.0
6.86,0,-2,-1,-2,0,-1,-2,-3,0.0
6.865,0,1,-2,0,-3,-1,0,-1,0.0
6.87,0,0,1,-3,-2,-3,0,-1,0.0
6.875,-1,0,-1,-2,-3,-1,-5,0,0.0
6.88,-1,-2,-1,-3,-1,-1,-1,0,0.0
6.885,-2,1,-3,2,0,0,0,-1,0.0
6.890000000000001,-1,-2,-2,-1,1,0,1,-2,0.0
6.8950000000000005,-2,-1,1,0,0,0,0,0,0.0
6.9,0,-2,-2,1,-3,-1,-1,0,0.0
6.905,0,-1,-1,-1,-1,-2,-1,-2,0.0
6.91,-1,-1,-3,-1,0,-1,-2,-1,0.0
6.915,-1,-3,-1,0,-1,-1,0,-3,0.0
6.92,-1,0,-1,-2,-1,1,-2,-2,0.0
6.925,-1,-2,0,-4,-2,1,2,-1,0.0
6.93,0,1,0,-2,0,-1,-2,-2,0.0
6.9350000000000005,0,-2,-2,0,1,-2,-2,-1,0.0
6.94,-1,-3,1,-1,-3,-2,-3,-2,0.0
6.945,-1,-3,0,0,-2,-2,-2,-1,0.0
6.95,-1,-2,0,2,-1,0,-2,-1,0.0
6.955,-3,-1,-2,-1,1,-1,0,-1,0.0
6.96,-2,-1,-2,-2,-2,-1,-2,-1,0.0
6.965,-1,-3,-1,0,0,0,-3,-2,0.0
6.97,-2,-1,0,-3,-1,-2,-1,0,0.0
6.9750000000000005,1,-3,1,-2,-5,0,0,-1,0.0
6.98,0,-1,-1,-2,1,-1,0,2,0.0
6.985,0,-2,-3,-2,-1,0,1,1,0.0
6.99,-1,-2,-1,-1,-2,-3,-1,-2,0.0
6.995,0,-1,-4,0,-3,-1,-2,-1,0.0
7.0,-1,1,-2,2,0,0,0,-2,0.0
7.005,-1,-2,-1,-1,0,-1,-2,-1,0.0
7.01,-2,-3,-1,-1,-3,0,-2,-1,0.0
7.015000000000001,0,2,1,-1,-2,-1,-1,-1,0.0
7.0200000000000005,-1,-1,-2,-2,-1,0,0,-1,0.0
7.025,-1,-2,0,1,0,-1,-1,-1,0.0
7.03,-2,0,-1,-1,-1,1,-2,-1,0.0
7.035,-1,-2,-1,-1,-2,-2,0,-1,0.0
7.04,0,-1,-1,-2,0,-2,-1,0,0.0
7.045,-2,-2,1,0,-1,0,-1,-1,0.0
7.05,-1,0,-1,0,0,-2,0,0,0.0
7.055,0,0,2,1,-1,0,-1,-2,0.0
7.0600000000000005,-2,-1,-3,2,-2,-1,-1,-2,0.0
7.065,1,-2,-3,-1,-2,-2,1,1,0.0
7.07,-1,-3,-1,-2,-2,-2,0,-1,0.0
7.075,-1,-1,-3,-1,1,0,0,0,0.0
7.08,-1,-2,-1,-2,-1,-3,-2,-4,0.0
7.085,-2,-2,2,-1,-2,-2,-4,-2,0.0
7.09,-2,-3,2,1,-3,-1,0,-1,0.0
7.095,-3,1,-1,-1,0,-1,-4,-1,0.0
7.1000000000000005,-2,-2,-3,1,-1,0,3,-2,0.0
7.105,-1,0,-2,-3,-1,1,0,1,0.0
7.11,1,-1,-1,0,0,-3,-2,1,0.0
7.115,-2,-4,0,-2,-4,-1,-3,-1,0.0
7.12,0,-2,-1,0,-1,0,-2,2,0.0
7.125,0,-2,0,-2,0,-2,-1,-1,0.0
7.13,-2,-2,-1,1,-1,0,2,-2,0.0
7.135,-2,-2,0,0,1,-1,2,-2,0.0
7.140000000000001,0,1,1,-1,0,-2,0,-1,0.0
7.1450000000000005,1,-1,-2,1,-1,-1,1,0,0.0
7.15,-1,-2,-2,-1,0,0,1,0,0.0
7.155,-1,-1,1,-1,-3,-4,0,-2,0.0
7.16,-2,-3,0,-2,0,-1,-2,-2,0.0
7.165,-2,0,-1,1,1,-3,-3,-1,0.0
7.17,-2,-2,-4,-2,-2,-1,-1,0,0.0
7.175,0,-1,-1,-2,-1,-3,-1,-1,0.0
7.18,-2,-3,2,-2,-1,-1,-2,-1,0.0
7.1850000000000005,-3,0,0,-4,-1,-2,-1,-1,0.0
7.19,-1,-4,0,-1,-1,0,-2,-2,0.0
7.195,-2,-1,-2,0,-2,-2,-2,-1,0.0
7.2,0,-3,-1,0,-1,-1,-2,-1,0.0
7.205,-1,-1,0,1,0,-2,1,-2,0.0
7.21,2,-3,0,-1,-1,0,-3,-1,0.0
7.215,-2,-1,-2,2,1,-2,-3,0,0.0
7.22,-2,-2,0,-2,-1,-3,-1,-1,0.0
7.2250000000000005,0,-1,-2,-2,0,-2,-1,-2,0.0
7.23,-2,1,-2,-2,-2,-2,-2,-3,0.0
7.235,-3,-3,0,-4,-1,0,0,-2,0.0
7.24,-2,-1,-1,1,-1,-1,-2,-1,0.0
7.245,-2,-3,0,-2,-2,0,0,1,0.0
7.25,-2,-1,0,-1,2,-1,-2,-3,0.0
7.255,-2,-1,-1,0,-1,-1,1,0,0.0
7.26,0,0,-1,0,-1,-1,-2,-3,0.0
7.265000000000001,-1,0,1,-3,0,-1,-1,-2,0.0
7.2700000000000005,0,-2,-3,-1,-2,-2,-1,-1,0.0
7.275,0,-3,-2,0,1,0,-3,0,0.0
7.28,0,-1,1,0,1,-2,1,0,0.0
7.285,-2,-1,-2,2,-1,-1,-1,-1,0.0
7.29,-1,0,1,-1,-2,-3,-2,-1,0.0
7.295,-1,0,-1,-3,-1,-1,-1,-1,0.0
7.3,1,-2,-2,0,-1,0,1,-1,0.0
7.305,-2,-3,0,-1,-1,-2,-3,-1,0.0
7.3100000000000005,0,-2,-2,-4,1,-1,3,-1,0.0
7.315,0,-3,-2,0,-2,-3,-2,-1,0.0
7.32,-3,1,-1,-2,-2,-1,-3,-1,0.0
7.325,-1,-1,0,-1,0,-2,-1,-3,0.0
7.33,1,-4,1,-1,0,-1,0,1,0.0
7.335,-1,-1,1,-2,0,-3,-1,-2,0.0
7.34,-3,-2,-1,-1,-1,0,-3,1,0.0
7.345,-2,-2,-3,1,-1,-1,-1,-2,0.0
7.3500000000000005,-1,0,-1,0,-1,-2,0,-2,0.0
7.355,0,-3,-1,0,-1,0,-1,-3,0.0
7.36,-2,-4,-1,-1,-2,-1,-1,-2,0.0
7.365,0,-1,-2,-1,-1,-1,-1,-1,0.0
7.37,-2,0,-2,-1,-1,-1,-2,0,0.0
7.375,-2,0,-1,-1,-1,0,1,0,0.0
7.38,0,-2,-1,0,-1,0,0,-1,0.0
7.385,0,-2,0,-2,-2,0,-2,0,0.0
7.390000000000001,-3,-1,-2,0,-2,-3,0,-2,0.0
7.3950000000000005,-2,-2,-2,-1,0,-2,-2,-1,0.0
7.4,0,-1,-1,-1,-4,0,-1,0,0.0
7.405,0,0,0,-2,-1,-1,-1,-1,0.0
7.41,0,-2,0,-1,-1,2,-1,-1,0.0
7.415,-1,-1,-2,-1,-2,1,-1,0,0.0
7.42,0,-2,0,-3,1,-2,0,-1,0.0
7.425,-1,-1,-2,1,0,-2,-5,-1,0.0
7.43,-2,-2,0,-2,0,-1,-1,-1,0.0
7.4350000000000005,0,-2,-1,-2,-1,-3,-1,-2,0.0
7.44,-1,-1,1,-1,-1,-1,-1,-2,0.0
7.445,-1,-3,-1,-1,0,-2,-1,-1,0.0
7.45,0,2,0,0,-1,0,-3,-1,0.0
7.455,-1,-2,-1,2,0,0,1,0,0.0
7.46,-1,0,-3,0,1,-1,-2,-1,0.0
7.465,-2,0,-2,1,1,-1,1,0,0.0
7.47,-2,-1,-1,-1,-2,0,0,-1,0.0
7.4750000000000005,-1,0,0,-2,1,-3,-2,-2,0.0
7.48,0,-2,0,-3,1,1,-3,-2,0.0
7.485,-2,-4,1,-2,-3,-1,0,-2,0.0
7.49,1,-3,-4,-2,-1,-1,-2,-1,0.0
7.495,0,0,1,-2,-1,-3,0,0,0.0
7.5,-2,0,0,-1,-2,-2,0,-3,0.0
7.505,0,-1,-3,-2,-1,1,-2,-1,0.0
7.51,-1,-2,1,1,2,-1,0,-1,0.0
7.515000000000001,-1,-1,-1,-2,1,-1,-3,-1,0.0
7.5200000000000005,-1,-2,-2,0,0,-3,0,0,0.0
7.525,0,-2,0,0,-4,-2,1,-1,0.0
7.53,0,0,-1,-4,-3,-2,-4,0,0.0
7.535,0,0,-1,0,-2,-1,-1,0,0.0
7.54,-1,1,0,-3,-1,-2,0,-1,0.0
7.545,-2,-1,-2,-1,0,-1,-1,-3,0.0
7.55,-3,-2,-1,0,1,-2,-2,0,0.0
7.555,-1,-1,0,-1,-2,0,0,-2,0.0
7.5600000000000005,-1,-1,-1,-2,-1,1,0,-1,0.0
7.565,-2,-3,-3,0,0,-1,-1,-1,0.0
7.57,0,-2,0,-1,2,-3,0,-2,0.0
7.575,-2,-3,-1,1,-1,-2,0,-1,0.0
7.58,-1,-1,-1,-1,0,-2,-2,-3,0.0
7.585,-2,1,-1,-1,-1,0,-2,1,0.0
7.59,-1,-1,-1,-2,-1,0,-2,-2,0.0
7.595,-3,-1,-1,-1,0,0,-2,-1,0.0
7.6000000000000005,-2,-3,0,2,-2,-1,1,0,0.0
7.605,1,-2,2,-2,-2,-1,-3,-1,0.0
7.61,-2,-4,0,-3,-2,-1,-3,-2,0.0
7.615,0,-2,1,0,0,0,-1,-2,0.0
7.62,0,-1,-1,0,-1,-3,-3,0,0.0
7.625,-1,1,-1,-2,1,-2,-2,-1,0.0
7.63,-2,-4,-2,0,1,-2,0,-1,0.0
7.635,-3,-1,-1,-1,-1,-1,-1,-2,0.0
7.640000000000001,-1,-1,-1,-2,-2,-2,0,-2,0.0
7.6450000000000005,-2,1,-2,-1,1,-3,0,-2,0.0
7.65,0,0,-1,-2,1,-2,-1,-2,0.0
7.655,-1,-2,-1,-2,-2,1,-2,-1,0.0
7.66,-1,-1,-3,-1,-1,-2,-3,-2,0.0
7.665,-2,-1,-1,-2,0,-2,0,-1,0.0
7.67,1,-3,-2,0,-3,0,0,-2,0.0
7.675,-1,-3,-1,-3,-1,-2,0,0,0.0
7.68,0,-2,-1,0,1,-2,0,0,0.0
7.6850000000000005,-1,-2,0,-2,-3,0,-2,-1,0.0
7.69,1,-3,1,0,0,-2,-2,-1,0.0
7.695,0,-1,-1,-2,1,-1,-2,-1,0.0
7.7,2,-3,-2,0,-2,-1,-1,0,0.0
7.705,-1,-1,-2,-2,1,-2,0,-3,0.0
7.71,-2,-1,0,-3,-1,-2,-3,0,0.0
7.715,0,-1,-2,0,-1,-3,0,-2,0.0
7.72,-2,-3,-2,-1,0,-1,-2,0,0.0
7.7250000000000005,0,-3,-2,0,-1,-1,0,-2,0.0
7.73,-2,1,0,-1,-1,-2,-1,-3,0.0
7.735,-3,-3,-2,0,-1,-1,0,-3,0.0
7.74,-3,-2,0,-1,-1,-2,-1,-1,0.0
7.745,0,-4,0,0,0,-1,-1,0,0.0
7.75,0,2,1,-1,0,-2,0,0,0.0
7.755,0,-1,-3,0,-2,0,-4,0,0.0
7.76,-2,0,-1,-2,-3,0,1,-2,0.0
7.765000000000001,-1,-1,-1,0,-3,-2,1,-1,0.0
7.7700000000000005,-2,0,0,1,0,-2,-1,0,0.0
7.775,-1,-1,-2,-2,-1,-2,0,-3,0.0
7.78,1,-2,0,-1,0,0,-3,-1,0.0
7.785,0,-2,-1,0,-3,-1,-2,-1,0.0
7.79,0,-3,1,-1,0,0,0,-1,0.0
7.795,0,-1,-2,-1,-2,0,0,1,0.0
7.8,-1,1,-2,-1,-1,0,1,0,0.0
7.805000000000001,-1,-3,0,0,-2,-2,-1,-2,0.0
7.8100000000000005,-2,0,-4,0,-1,-1,-1,-1,0.0
7.815,-1,0,-3,0,-2,-2,-1,-2,0.0
7.82,0,-1,0,-1,0,0,-1,-1,0.0
7.825,-1,-2,1,-1,2,-1,0,-1,0.0
7.83,0,0,-2,-2,-3,0,0,0,0.0
7.835,0,-1,0,-1,0,0,-3,0,0.0
7.84,-2,-2,-1,-1,0,0,-1,-2,0.0
7.845,-2,1,0,-1,-2,-1,-2,-3,0.0
7.8500000000000005,-1,0,-2,-3,2,0,2,-1,0.0
7.855,-1,-2,-1,-1,-1,-2,-2,-2,0.0
7.86,-2,-1,0,-1,-2,-1,0,-2,0.0
7.865,-1,1,-3,-2,-1,0,-2,0,0.0
7.87,-1,-3,-1,0,-2,-1,-2,-2,0.0
7.875,0,1,-1,-2,-1,-2,-1,1,0.0
7.88,-1,-1,-1,-1,-1,-1,-1,-1,0.0
7.885,0,-2,-1,-2,0,-2,0,-1,0.0
7.890000000000001,-2,-1,0,-2,0,-2,-3,-2,0.0
7.8950000000000005,-2,-4,-1,-2,-4,-2,-1,0,0.0
7.9,-2,-1,-2,-2,-2,-2,-2,-1,0.0
7.905,0,-1,0,-2,-1,-1,0,-2,0.0
7.91,-2,-2,-3,1,1,1,2,-3,0.0
7.915,-1,0,1,-2,-2,0,-1,-1,0.0
7.92,-1,1,-2,-1,-2,0,0,1,0.0
7.925,-1,-3,1,1,0,0,-1,-1,0.0
7.930000000000001,-1,-2,-1,0,-1,-1,-2,-1,0.0
7.9350000000000005,-1,0,1,0,1,0,-1,-2,0.0
7.94,-1,-1,-2,-1,0,-1,-4,-1,0.0
7.945,0,-2,-1,-3,-3,-2,0,0,0.0
7.95,-1,-1,-1,0,-4,-1,0,-1,0.0
7.955,-1,-2,0,-1,0,-1,-1,-2,0.0
7.96,-1,-2,0,0,0,-2,-1,-2,0.0
7.965,-2,0,-3,-1,-2,0,-1,0,0.0
7.97,-3,1,-2,-3,-1,-2,0,-1,0.0
7.9750000000000005,-2,-3,0,-1,0,-3,0,-1,0.0
7.98,1,-2,-1,-1,-1,-1,-3,-1,0.0
7.985,-2,-4,0,0,0,-1,-1,-3,0.0
7.99,-1,1,-1,-2,-2,-1,-3,-1,0.0
7.995,-3,0,0,0,-1,0,-2,-1,0.0
8.0,-2,-2,0,1,-1,-2,0,-3,0.0
8.005,-1,-2,-3,-1,-2,0,-1,-1,0.0
8.01,1,-1,-1,1,-1,-2,0,0,0.0
8.015,0,-2,-1,-2,1,0,-2,-1,0.0
8.02,-2,-2,-2,-1,0,-1,-1,0,0.0
8.025,-1,-2,1,-2,-4,-1,-3,-2,0.0
8.03,0,-1,1,0,-1,-1,-2,1,0.0
8.035,0,1,-5,1,-1,-2,-1,-1,0.0
8.040000000000001,-1,-4,-2,-2,1,0,1,-1,0.0
8.045,0,-1,-2,0,1,-1,0,-1,0.0
8.05,0,-4,0,-3,-1,0,-3,0,0.0
8.055,0,-2,1,-2,0,0,-2,-2,0.0
8.06,0,1,1,-2,-1,0,-3,-1,0.0
8.065,-1,-1,0,1,2,0,-2,-1,0.0
8.07,0,-2,-1,-1,1,-1,0,-2,0.0
8.075,-1,-2,-1,1,-1,-1,0,-1,0.0
8.08,0,-1,-1,-2,0,-5,-1,0,0.0
8.085,-1,-1,0,-1,1,-1,-1,-1,0.0
8.09,-2,-1,-2,-2,-1,-2,-1,-3,0.0
8.095,0,-1,-2,-3,-2,2,-1,-3,0.0
8.1,0,-1,2,-2,-2,-2,0,-3,0.0
8.105,-1,1,-2,-1,1,-1,-2,1,0.0
8.11,-1,-3,0,0,1,-1,0,-1,0.0
8.115,-1,-1,-1,0,-2,-4,0,-1,0.0
8.120000000000001,-1,-3,-1,2,-1,-1,0,-1,0.0
8.125,-1,-1,-3,-4,-2,0,-2,-1,0.0
8.13,-1,-3,-1,-2,-2,-1,-2,-2,0.0
8.135,-2,-1,2,-1,-3,-2,-2,-1,0.0
8.14,-1,-1,-4,0,-1,1,-1,-1,0.0
8.145,-3,-2,-3,-2,-1,-1,-1,-2,0.0
8.15,-1,0,-4,-1,-2,0,0,-2,0.0
8.155,-1,-2,-1,-2,-1,-1,-3,-3,0.0
8.16,-2,-1,0,-3,0,-1,-3,-2,0.0
8.165000000000001,-2,-1,-1,-2,-2,-2,1,-2,0.0
8.17,-1,-1,-3,-1,0,1,0,-2,0.0
8.175,-2,-1,-3,-1,-2,0,-2,0,0.0
8.18,0,-1,-1,-1,-3,-1,-3,0,0.0
8.185,-2,1,0,1,-2,-2,-2,0,0.0
8.19,-1,-1,0,-1,-1,-2,-2,-1,0.0
8.195,-2,-1,0,1,-1,-1,-1,-1,0.0
8.2,-2,0,-2,-2,-1,-2,-3,-2,0.0
8.205,-1,1,-1,-2,-2,-1,0,-1,0.0
8.21,-2,-1,1,-1,-1,-1,0,-1,0.0
8.215,0,-3,-3,-2,1,-2,1,1,0.0
8.22,-1,0,-1,0,-2,0,1,-2,0.0
8.225,0,-1,0,1,-1,-3,-1,0,0.0
8.23,-2,2,0,0,-3,0,-1,-1,0.0
8.235,0,0,-3,-2,0,0,-3,-1,0.0
8.24,0,-2,-1,-2,2,0,0,1,0.0
8.245000000000001,0,-1,0,-4,0,-2,-1,-1,0.0
8.25,-1,0,-1,0,0,-2,1,-1,0.0
8.255,-1,-1,2,0,-3,-1,0,1,0.0
8.26,0,-2,-2,0,-2,0,0,0,0.0
8.265,-1,-2,-1,-1,2,-2,0,-1,0.0
8.27,-2,-2,0,-3,0,-4,-3,-1,0.0
8.275,-2,1,-2,-2,1,-2,0,-1,0.0
8.28,0,-1,-1,0,-2,-1,0,-3,0.0
8.285,0,0,-3,-2,-1,-1,-2,-2,0.0
8.290000000000001,-1,-4,2,-1,-2,0,-3,0,0.0
8.295,1,-2,1,2,-1,0,0,-1,0.0
8.3,-3,1,-3,0,1,-2,0,0,0.0
8.305,-3,-2,0,-1,1,-1,-1,-2,0.0
8.31,-3,-1,-2,1,-1,-2,-2,-2,0.0
8.315,-1,1,-3,-3,0,-3,-4,0,0.0
8.32,-1,-4,3,-1,2,0,0,-1,0.0
8.325,-2,-1,0,-1,-1,0,0,-1,0.0
8.33,-1,-3,-1,-2,-1,-2,-1,-2,0.0
8.335,-2,-1,-5,-1,1,-1,-1,-3,0.0
8.34,-1,-1,-2,-3,-4,-3,-2,-1,0.0
8.345,0,-1,-1,-2,-2,-1,-3,1,0.0
8.35,0,-2,-2,-3,2,-2,-1,0,0.0
8.355,-1,-1,3,0,1,1,-2,0,0.0
8.36,0,-2,1,-1,-1,-1,-3,0,0.0
8.365,-1,-1,-2,0,0,0,0,-3,0.0
8.370000000000001,-1,-4,-2,1,-3,-2,1,-1,0.0
8.375,-2,-4,-2,-3,-3,-2,-1,-2,0.0
8.38,-1,1,-3,-3,1,-2,0,-1,0.0
8.385,-1,-3,-2,0,-2,-1,1,1,0.0
8.39,-1,0,-1,-2,0,-1,-1,-1,0.0
8.395,-1,-1,-3,1,1,-2,-1,-1,0.0
8.4,0,-2,0,1,0,-2,-2,-2,0.0
8.405,-2,-1,-2,1,-2,-1,-1,-1,0.0
8.41,0,-1,0,0,0,0,0,-3,0.0
8.415000000000001,-2,0,0,-2,0,-1,1,-1,0.0
8.42,-2,-1,-1,-3,0,-1,-1,-1,0.0
8.425,-4,-1,1,0,1,-2,-3,-2,0.0
8.43,-1,-3,-1,-1,2,-2,-2,1,0.0
8.435,0,-3,-2,-2,0,-2,0,0,0.0
8.44,-1,-1,0,-2,-1,0,-1,0,0.0
8.445,-2,-3,-2,0,1,1,0,-2,0.0
8.45,0,1,-1,-2,0,-2,0,-1,0.0
8.455,-2,-2,-2,-1,-1,0,-1,-3,0.0
8.46,-3,-2,-1,1,1,-1,-1,-3,0.0
8.465,0,-3,0,-2,-1,-1,-2,-1,0.0
8.47,-1,-4,1,-2,1,1,-1,-4,0.0
8.475,-1,-2,-1,-3,-1,-2,-1,-2,0.0
8.48,0,-1,-2,-2,-5,0,-1,-1,0.0
8.485,0,-2,-1,0,-1,-3,-3,-1,0.0
8.49,-1,-1,-1,-1,0,-1,0,1,0.0
8.495000000000001,0,-3,-1,-2,-1,-1,0,-2,0.0
8.5,-1,-3,-3,-1,-2,1,-1,1,0.0
8.505,-1,-2,-2,1,0,0,1,-2,0.0
8.51,0,-1,0,-2,-1,-1,0,0,0.0
8.515,0,-1,1,-2,1,-1,1,-1,0.0
8.52,0,-1,-2,-1,-1,-2,-1,0,0.0
8.525,-1,-1,1,-4,-1,-1,-3,-1,0.0
8.53,-4,0,-1,0,-3,0,-2,-1,0.0
8.535,0,0,-1,0,0,-1,-1,1,0.0
8.540000000000001,-1,-2,-1,1,-2,-3,0,-1,0.0
8.545,-2,-3,0,-3,-2,-1,0,-2,0.0
8.55,0,-1,-2,0,0,-1,-1,-1,0.0
8.555,0,-1,-2,0,-4,-2,0,-1,0.0
8.56,-1,1,-3,-2,-3,-1,-2,1,0.0
8.565,-1,-2,-1,-1,-2,-3,0,-2,0.0
8.57,-1,0,-1,-1,-2,0,1,-1,0.0
8.575000000000001,-1,-1,0,-3,0,-1,-4,-2,0.0
8.58,-1,-1,-1,-1,0,0,-3,-2,0.0
8.585,1,-1,-2,1,-1,-2,-1,0,0.0
8.59,-1,-2,-2,-1,-1,-2,0,0,0.0
8.595,-2,-1,-1,0,-2,-2,-1,-1,0.0
8.6,-1,0,1,-2,-1,-1,-1,-3,0.0
8.605,0,-2,-1,-3,0,-1,-2,0,0.0
8.61,-1,-3,-3,-1,2,1,-1,-4,0.0
8.615,1,-2,-1,-2,-3,-1,-1,-2,0.0
8.620000000000001,0,1,-2,0,1,-3,-2,-2,0.0
8.625,-2,-1,-2,0,1,0,-1,-2,0.0
8.63,1,1,0,1,-1,-4,-1,1,0.0
8.635,-3,0,1,-2,-1,-3,-2,-2,0.0
8.64,-2,-5,0,-2,0,-1,0,0,0.0
8.645,-3,-1,-2,-2,-2,-3,-3,-1,0.0
8.65,-2,-5,0,-1,-1,-1,-1,-2,0.0
8.655,-2,-2,-1,1,1,-2,-1,-1,0.0
8.66,-1,1,0,0,-2,-1,1,0,0.0
8.665000000000001,0,4,-2,1,-2,1,0,0,0.0
8.67,-1,-1,-1,-1,-3,-1,0,0,0.0
8.675,1,0,0,-2,-2,0,-1,-2,0.0
8.68,0,-5,2,-1,2,0,-3,-4,0.0
8.685,-1,-1,1,0,-1,-3,0,0,0.0
8.69,-1,-2,1,-3,2,0,-1,-3,0.0
8.695,-1,-2,0,2,-1,1,-1,0,0.0
8.700000000000001,-2,-1,-1,-1,-2,-1,-1,1,0.0
8.705,0,-1,-1,-2,-2,-2,-3,-1,0.0
8.71,0,-1,-1,1,-1,-2,-2,-1,0.0
8.715,-1,-3,-1,-2,0,-3,-1,0,0.0
8.72,-2,-1,-3,0,-1,-2,0,0,0.0
8.725,-1,-5,1,-2,-1,1,0,-3,0.0
8.73,-2,-1,-2,-2,0,-1,-3,-1,0.0
8.735,0,-1,-2,0,0,0,0,-1,0.0
8.74,-1,-2,-2,-2,-3,-2,-1,-3,0.0
8.745000000000001,-2,-3,-1,0,-1,0,-1,-1,0.0
8.75,0,0,-1,0,-4,-1,0,-3,0.0
8.755,-2,-3,0,-1,-2,-1,-1,-1,0.0
8.76,-2,-2,0,-3,-1,-2,0,0,0.0
8.765,0,0,-3,-1,-1,-1,-2,1,0.0
8.77,0,-1,2,-1,1,-1,0,1,0.0
8.775,-1,-3,-2,0,-2,0,-2,-1,0.0
8.78,-2,-1,-2,0,-4,-1,-2,-1,0.0
8.785,-3,0,0,-1,0,-1,-1,1,0.0
8.790000000000001,-2,1,-2,-1,0,0,-2,-2,0.0
8.795,0,-1,-1,-1,-2,-2,0,-2,0.0
8.8,0,-2,-2,-1,3,-1,-2,0,0.0
8.805,0,-2,-2,-2,1,-2,-2,-3,0.0
8.81,-2,-2,1,-1,-2,0,-2,-1,0.0
8.815,-1,0,-1,-1,1,-1,-2,0,0.0
8.82,0,2,2,-1,-1,0,0,-2,0.0
8.825000000000001,0,1,-1,-3,-2,-2,0,-2,0.0
8.83,1,-3,-2,-4,0,-2,-3,0,0.0
8.835,-2,-2,2,-2,0,0,-2,-1,0.0
8.84,0,-2,-1,-3,-4,-3,-1,-1,0.0
8.845,-2,-1,1,-1,1,-2,-2,-1,0.0
8.85,0,-2,-2,0,-2,-3,1,-1,0.0
8.855,0,1,-4,-2,-1,-1,0,0,0.0
8.86,-2,-3,-2,-2,0,-2,0,-2,0.0
8.865,-1,-3,0,-2,-1,-1,0,-3,0.0
8.870000000000001,-1,1,-2,-2,0,-1,-2,-1,0.0
8.875,-2,1,-1,-1,-3,-1,-2,-1,0.0
8.88,1,0,-1,1,0,0,1,0,0.0
8.885,-1,-2,-1,-1,-4,0,-2,0,0.0
8.89,-3,-2,-2,0,-2,-2,0,1,0.0
8.895,-2,2,1,-3,-3,-1,0,-2,0.0
8.9,0,0,-1,-3,-2,-2,-1,-1,0.0
8.905,-1,-1,3,0,-1,-1,-2,-1,0.0
8.91,0,-3,0,1,1,0,0,-1,0.0
8.915000000000001,-1,1,-2,-1,0,-1,-2,1,0.0
8.92,-1,0,-2,1,0,-1,-1,-2,0.0
8.925,-1,-2,-2,2,-4,0,0,-1,0.0
8.93,-2,-1,-2,0,-3,-3,-1,-1,0.0
8.935,0,2,-1,-3,-1,-1,0,0,0.0
8.94,-1,4,2,2,-2,1,-1,0,0.0
8.945,0,0,-3,-3,0,-3,-2,-1,0.0
8.950000000000001,-2,-1,-2,-3,0,0,0,0,0.0
8.955,0,-10,1,-2,6,-2,-3,-3,0.0
8.96,-2,-9,4,-2,3,-5,1,-4,0.0
8.965,-2,3,-3,-1,-4,-2,0,-3,0.0
8.97,-1,3,-1,0,-3,2,-2,1,0.0
8.975,0,3,-5,1,-5,1,-1,1,0.0
8.98,0,1,-3,1,-1,1,-1,0,0.0
8.985,-2,-4,-1,-3,-1,1,-1,-1,0.0
8.99,-1,-1,1,-2,1,-3,-4,-3,0.0
8.995000000000001,0,-1,0,0,-4,-1,2,-1,0.0
9.0,-1,-4,-1,-3,-1,-3,0,0,0.0
9.005,0,0,-2,0,-2,-1,1,-1,0.0
9.01,-1,-1,1,-3,-1,0,-1,-2,0.0
9.015,-1,-1,-3,0,0,0,-2,-2,0.0
9.02,-2,-3,0,-2,0,-1,-3,-2,0.0
9.025,-2,-2,1,-2,3,0,-2,-2,0.0
9.03,-1,-4,-2,1,-1,-3,-1,-3,0.0
9.035,-1,1,-1,-1,-2,-2,0,0,0.0
9.040000000000001,-2,2,-2,-1,-4,-1,-2,1,0.0
9.045,0,0,1,-1,-2,-1,-3,-2,0.0
9.05,-1,-4,2,0,1,0,0,-2,0.0
9.055,-1,-1,0,-4,-2,0,-1,-2,0.0
9.06,-1,-2,-2,-1,-2,1,-2,-2,0.0
9.065,-1,-3,0,-2,1,-3,-2,-1,0.0
9.07,-3,-2,-2,-1,-2,-1,0,0,0.0
9.075000000000001,-1,-2,0,-2,0,-2,0,-1,0.0
9.08,-2,-3,1,0,-3,-1,-2,-1,0.0
9.085,0,-1,-3,0,2,-2,1,0,0.0
9.09,-1,-1,-1,-1,-1,0,0,-4,0.0
9.095,-1,-3,-1,-2,0,-2,-2,-3,0.0
9.1,0,0,-3,-2,-3,-2,-2,0,0.0
9.105,-2,-2,0,0,-2,0,-1,-1,0.0
9.11,-1,-1,-1,-1,1,-2,-2,0,0.0
9.115,0,-2,-1,1,-1,-1,-2,-1,0.0
9.120000000000001,-1,-2,0,-1,3,0,-1,-1,0.0
9.125,1,-3,1,-1,-2,1,-1,-2,0.0
9.13,0,-3,-2,0,-3,-1,-2,-2,0.0
9.135,-1,0,0,0,-2,-1,0,-3,0.0
9.14,-1,1,-2,-3,-1,0,-2,-2,0.0
9.145,-2,0,-1,-2,1,-1,1,-2,0.0
9.15,-1,3,-1,-1,-2,-2,-1,-1,0.0
9.155,-2,-4,0,1,-1,-2,-2,-2,0.0
9.16,0,0,-3,-1,1,-1,-2,0,0.0
9.165000000000001,-1,-1,0,-2,0,-1,0,-2,0.0
9.17,0,-2,3,-1,2,2,-2,-2,0.0
9.175,-2,-2,0,1,-1,0,-1,-1,0.0
9.18,0,0,0,-1,-1,-3,2,-3,0.0
9.185,-1,-3,0,-1,-1,0,-1,0,0.0
9.19,-2,0,-3,-3,-1,0,1,-1,0.0
9.195,-1,-1,-2,-4,-1,-1,-1,0,0.0
9.200000000000001,-1,-2,-1,1,1,0,-2,-1,0.0
9.205,-1,-1,-2,-1,-1,-2,-2,-2,0.0
9.21,0,-2,0,-2,0,-2,-1,-1,0.0
9.215,-2,-1,-1,1,-1,1,-1,-2,0.0
9.22,-2,-2,-1,-2,-1,-2,-1,-1,0.0
9.225,-3,-1,-3,-1,-1,-2,-2,-1,0.0
9.23,-1,1,-1,0,-2,-2,-2,0,0.0
9.235,-2,-2,-1,-3,0,-4,-1,-1,0.0
9.24,-1,-1,-2,1,-2,-2,0,2,0.0
9.245000000000001,0,-2,0,1,1,0,-1,1,0.0
9.25,-1,0,-3,-1,-1,-2,0,-2,0.0
9.255,-1,1,0,-1,1,1,-1,-2,0.0
9.26,-1,-1,0,-1,-2,-2,0,-2,0.0
9.265,-1,0,-2,-1,1,-2,0,-1,0.0
9.27,-1,-3,-1,0,-2,0,-1,-2,0.0
9.275,0,-2,-5,0,-2,-2,-1,-3,0.0
9.28,-2,-2,-2,-2,-1,0,-1,-2,0.0
9.285,-1,1,0,0,-2,-1,-1,1,0.0
9.290000000000001,-2,-1,-3,-3,-3,0,-2,-1,0.0
9.295,-1,0,-1,1,-1,-1,-1,1,0.0
9.3,0,0,1,-1,0,0,-2,-2,0.0
9.305,-2,-2,-1,0,-2,-1,0,-2,0.0
9.31,0,0,-1,-3,1,0,3,1,0.0
9.315,-1,0,1,-2,-2,-1,0,-1,0.0
9.32,-1,-2,1,-1,0,-1,-3,0,0.0
9.325000000000001,-1,-4,-2,-1,-2,-2,-1,-2,0.0
9.33,-2,-2,-1,0,1,-3,-4,-2,0.0
9.335,-1,-2,-1,0,-2,-3,0,0,0.0
9.34,0,0,-2,-1,1,1,3,1,0.0
9.345,0,-3,0,-2,-2,-1,0,0,0.0
9.35,-1,-2,-1,-2,-4,-2,-2,0,0.0
9.355,-1,-1,-4,0,1,1,0,0,0.0
9.36,-1,0,-2,0,-1,-3,-2,-1,0.0
9.365,0,1,-2,-2,1,-3,-2,-1,0.0
9.370000000000001,-2,-3,-1,-2,-3,0,-2,0,0.0
9.375,-1,1,-2,-1,-2,-3,-2,0,0.0
9.38,-2,-2,-2,-2,-1,-4,-1,-2,0.0
9.385,0,0,-1,0,0,-2,0,0,0.0
9.39,2,-2,0,-1,0,0,-1,0,0.0
9.395,0,-3,0,1,-2,0,-1,0,0.0
9.4,0,-1,-3,0,-2,-1,-1,-2,0.0
9.405,-1,-2,0,-3,-2,-2,-1,-2,0.0
9.41,-2,-3,-1,-2,1,-2,0,-2,0.0
9.415000000000001,-1,-1,-1,-1,0,0,-1,-2,0.0
9.42,-1,-1,0,-1,-2,0,-2,0,0.0
9.425,-1,0,-1,-2,0,0,-1,0,0.0
9.43,-2,-1,-1,2,-3,-1,-1,0,0.0
9.435,-2,-2,1,-3,-1,0,-1,-1,0.0
9.44,-2,-1,-1,-3,0,-2,-2,-1,0.0
9.445,-2,-1,-3,-1,-2,-3,0,-3,0.0
9.450000000000001,-1,-1,-2,-1,0,-2,-2,0,0.0
9.455,-1,-3,-1,-2,1,0,-1,1,0.0
9.46,-1,-3,-2,-1,0,-1,-1,1,0.0
9.465,-2,0,1,-2,0,1,-2,0,0.0
9.47,1,0,-3,-1,-1,-3,-1,-2,0.0
9.475,0,-1,0,1,-1,-1,-1,0,0.0
9.48,-1,-3,-1,-1,0,-2,0,-2,0.0
9.485,-1,-2,-1,-1,1,-1,-1,-2,0.0
9.49,-1,-2,0,0,1,0,-2,-2,0.0
9.495000000000001,-2,-1,-1,-1,-1,-1,-2,-1,0.0
9.5,-2,-3,0,0,1,-2,-1,-2,0.0
9.505,-2,-2,-3,1,-2,-2,-1,-1,0.0
9.51,-2,0,-1,-1,-1,-1,-2,-2,0.0
9.515,-1,-2,0,-2,-1,-1,0,-2,0.0
9.52,-1,0,-3,-1,0,0,0,-2,0.0
9.525,0,0,1,0,0,-1,-1,0,0.0
9.53,0,0,1,-3,0,-1,0,-1,0.0
9.535,0,2,-1,-2,1,1,-2,-2,0.0
9.540000000000001,1,-1,0,-3,-2,-2,-2,-2,0.0
9.545,-1,-4,-1,-1,-2,-1,-1,-2,0.0
9.55,-1,-1,-1,0,2,-1,1,-2,0.0
9.555,-1,-4,0,0,0,-3,1,-2,0.0
9.56,-1,-2,-2,-2,1,1,-3,-1,0.0
9.565,0,-1,-1,-2,1,0,0,-1,0.0
9.57,-1,-1,-1,1,-1,-1,2,1,0.0
9.575000000000001,-2,0,-3,0,-2,-3,0,-2,0.0
9.58,-1,-1,-1,0,-2,0,-1,-1,0.0
9.585,0,-1,-3,0,0,0,-3,-1,0.0
9.59,0,-3,-1,-2,2,-2,0,-3,0.0
9.595,0,-2,-1,-2,2,-2,-3,-2,0.0
9.6,-1,1,-2,-4,0,-2,-1,1,0.0
9.605,-3,-2,0,-1,1,-2,1,-3,0.0
9.61,-2,-2,-1,-2,-2,-2,-4,-3,0.0
9.615,0,0,-1,2,0,-1,0,-3,0.0
9.620000000000001,-1,-3,3,0,-3,-2,-1,-1,0.0
9.625,0,0,-3,-2,-2,-1,0,0,0.0
9.63,-1,-2,-4,-2,-4,-1,-1,0,0.0
9.635,-2,-2,-1,-5,-2,-3,-2,-1,0.0
9.64,-3,-2,-1,0,0,0,-1,-1,0.0
9.645,-1,1,-1,-1,-1,1,-1,-2,0.0
9.65,0,-1,1,2,-3,-3,-1,-2,0.0
9.655,-1,0,-1,-1,-2,1,-2,-1,0.0
9.66,-2,1,-2,1,-4,-1,1,-2,0.0
9.665000000000001,-1,-1,0,-2,-1,0,-1,-3,0.0
9.67,-2,1,-2,0,-3,-1,-2,-1,0.0
9.675,0,-3,-2,1,-1,-2,-3,0,0.0
9.68,0,-3,1,0,0,-3,1,-1,0.0
9.685,-2,-2,-3,1,-1,0,-2,0,0.0
9.69,-1,0,-3,-4,-2,0,0,-3,0.0
9.695,0,0,-2,-2,0,0,2,-1,0.0
9.700000000000001,-1,-2,-2,0,-1,-2,-2,-2,0.0
9.705,-1,-1,-1,0,0,-4,-3,-2,0.0
9.71,1,-3,-1,-2,0,-1,1,1,0.0
9.715,-3,2,-3,-2,0,-1,-2,-1,0.0
9.72,-1,-2,-1,0,-2,0,-1,-2,0.0
9.725,0,-2,1,-3,-2,-1,-2,1,0.0
9.73,-1,0,-1,-2,-2,1,-1,-3,0.0
9.735,0,-1,0,0,-2,-1,0,-1,0.0
9.74,0,0,-1,-1,1,0,-1,0,0.0
9.745000000000001,-1,-1,1,-1,-3,-1,-1,-1,0.0
9.75,-1,1,-2,-2,-1,-2,-2,-2,0.0
9.755,-3,-5,-4,-3,-2,-2,-3,-1,0.0
9.76,0,1,0,-1,-1,0,-1,0,0.0
9.765,-1,-1,-1,-1,0,-1,-1,-2,0.0
9.77,-3,-3,0,-1,1,1,-2,-3,0.0
9.775,-1,-2,0,1,-3,-2,-2,0,0.0
9.78,-2,-1,-3,-2,0,-2,-2,-3,0.0
9.785,-1,-1,0,-3,-3,0,-1,-1,0.0
9.790000000000001,0,0,-2,-1,-1,-4,-1,2,0.0
9.795,-2,-1,-2,1,-1,-1,-1,-2,0.0
9.8,1,-1,1,1,-2,-1,-2,0,0.0
9.805,0,1,-3,-1,1,-2,1,0,0.0
9.81,-1,-2,-2,-2,0,0,-2,-2,0.0
9.815,-1,-1,2,-2,-2,0,-1,-1,0.0
9.82,-2,0,0,-1,0,0,-2,-2,0.0
9.825000000000001,0,-4,-1,-3,0,-2,0,1,0.0
9.83,0,0,1,-1,1,-2,-2,1,0.0
9.835,-1,0,-4,0,2,-1,1,-1,0.0
9.84,-1,-3,1,-2,-2,-1,-1,-2,0.0
9.845,0,-3,-1,0,0,-2,-2,-1,0.0
9.85,-2,-2,1,-1,0,-1,0,-2,0.0
9.855,0,-4,0,-1,0,-1,0,-1,0.0
9.86,-2,-2,-2,0,-2,-1,-2,-3,0.0
9.865,-1,1,-1,0,-1,0,-1,-2,0.0
9.870000000000001,-1,-1,-1,-2,0,0,-3,-2,0.0
9.875,0,0,-1,1,-1,-1,-2,-1,0.0
9.88,0,0,-2,-1,2,0,0,1,0.0
9.885,-1,-1,1,1,-2,-2,-2,-2,0.0
9.89,-2,-4,0,2,-1,-1,1,-2,0.0
9.895,0,0,0,-1,0,-3,-2,-1,0.0
9.9,0,-2,-1,-1,-1,-1,-3,-1,0.0
9.905,-2,-4,0,-3,1,0,-2,0,0.0
9.91,-1,-2,-1,-2,1,-2,-2,0,0.0
9.915000000000001,-1,-1,-2,-2,-2,-1,-2,-1,0.0
9.92,-1,-1,-1,-1,-1,-1,1,-2,0.0
9.925,-1,-2,-2,0,1,-2,-1,-3,0.0
9.93,0,-1,1,0,0,0,1,0,0.0
9.935,-1,-1,0,-1,-1,-1,-1,-2,0.0
9.94,-1,-1,-4,-1,1,-2,-2,-2,0.0
9.945,-1,-1,-3,-2,-3,-1,-1,-1,0.0
9.950000000000001,-2,-5,-2,-1,-2,-2,-4,-2,0.0
9.955,-1,-1,0,-1,0,0,0,0,0.0
9.96,0,0,0,-3,-2,-2,0,0,0.0
9.965,-1,-2,-1,0,-2,0,0,-1,0.0
9.97,-1,0,-5,0,-1,-4,-3,-1,0.0
9.975,0,-3,2,-2,-2,-2,0,-1,0.0
9.98,-1,-4,-2,-1,-1,-1,-1,-2,0.0
9.985,-1,-1,0,-2,-1,0,0,-1,0.0
9.99,-1,-2,2,-1,-2,-1,-2,-2,0.0
9.995000000000001,-3,-2,-2,-1,1,1,-2,0,0.0
10.0,0,-3,-1,1,-1,-2,-1,1,0.0
10.005,0,-1,-1,0,0,-2,0,-2,0.0
10.01,1,-1,-4,-3,-2,-2,0,-1,0.0
10.015,-1,-1,0,0,0,-2,-1,-1,0.0
10.02,-2,-1,0,-2,-1,1,1,-1,0.0
10.025,-2,-2,-3,2,0,-1,-2,1,0.0
10.03,-2,-1,-2,-1,0,-2,-1,-2,0.0
10.035,0,0,-1,-3,1,-1,-3,-1,0.0
10.040000000000001,-2,-1,-2,0,0,-1,-1,0,0.0
10.045,-1,-1,-2,-2,-1,-2,-1,0,0.0
10.05,-3,-2,-1,2,-2,0,0,2,0.0
10.055,-1,-2,-1,-2,-2,-2,1,1,0.0
10.06,-2,-1,-1,0,0,-2,-3,-4,0.0
10.065,-1,-2,2,-3,-1,-1,-1,-1,0.0
10.07,1,0,1,-4,-2,0,-1,-3,0.0
10.075000000000001,-1,-1,0,-1,-1,0,0,1,0.0
10.08,1,-2,-1,-2,-2,-4,-4,0,0.0
10.085,-2,-1,-2,-2,-1,-1,-1,2,0.0
10.09,-1,0,-3,-1,-1,0,-2,-1,0.0
10.095,-3,-2,-3,0,-1,-1,2,-2,0.0
10.1,-1,1,1,-1,-1,0,2,-2,0.0
10.105,1,2,-1,-1,-3,-1,0,-3,0.0
10.11,0,-2,1,1,-1,-4,-2,0,0.0
10.115,-1,1,-2,-1,1,-1,-1,-2,0.0
10.120000000000001,-2,-4,-3,-3,-2,0,0,0,0.0
10.125,-2,-3,-2,-1,-1,-2,-4,-2,0.0
10.13,-1,-3,0,-1,0,2,2,-1,0.0
10.135,-2,-3,-2,-3,-2,-2,-2,0,0.0
10.14,-1,-3,-1,-4,1,-1,-1,-1,0.0
10.145,-1,0,-2,0,-1,-2,0,-2,0.0
10.15,-2,0,0,0,-2,1,0,0,0.0
10.155,0,0,-1,0,-1,-1,-2,-3,0.0
10.16,-2,1,-2,0,0,-1,0,-1,0.0
10.165000000000001,-2,-4,0,-2,2,0,-2,-2,0.0
10.17,-2,0,0,-1,-2,-2,-2,-3,0.0
10.175,0,-1,-1,-2,-1,0,-1,-1,0.0
10.18,0,-2,0,0,-1,-2,1,0,0.0
10.185,0,-3,-1,-1,-1,-2,-1,-1,0.0
10.19,-1,-3,-2,-2,0,1,0,-4,0.0
10.195,-2,-1,-1,-1,-1,-2,-2,-1,0.0
10.200000000000001,-1,-1,0,-1,0,-2,-1,0,0.0
10.205,0,-2,-1,-2,0,-1,0,0,0.0
10.21,0,-3,2,-4,-1,-2,-1,-2,0.0
10.215,0,-1,-3,0,-3,-2,1,-2,0.0
10.22,-1,-1,0,2,0,1,-1,-1,0.0
10.225,-1,-1,-1,-1,-1,-2,0,-3,0.0
10.23,-2,-2,0,-1,-1,-1,-3,1,0.0
10.235,-1,-1,-1,-1,0,-1,-1,-2,0.0
10.24,0,-1,-2,-1,-2,-1,1,0,0.0
10.245000000000001,-1,-3,0,0,0,0,1,0,0.0
10.25,0,-1,-4,0,-1,-1,0,-1,0.0
10.255,-3,0,-2,-3,-1,0,-1,-1,0.0
10.26,-1,0,-1,-2,1,-2,-2,-1,0.0
10.265,0,-2,-1,1,1,-1,0,-1,0.0
10.27,-2,-2,1,-1,0,-3,0,-2,0.0
10.275,0,1,-1,2,-1,0,-2,-1,0.0
10.28,-1,-1,0,-2,-2,-2,-1,0,0.0
10.285,-2,-2,-1,-1,0,-3,-2,0,0.0
10.290000000000001,-2,-1,-3,-2,-1,0,0,-1,0.0
10.295,-3,-3,-2,-1,-3,0,-1,-2,0.0
10.3,-1,-1,-1,-1,0,-1,-2,0,0.0
10.305,-1,-2,-1,-3,-4,-1,-2,-2,0.0
10.31,0,1,-2,-1,-1,-2,1,1,0.0
10.315,-1,0,-1,-1,1,-1,-1,0,0.0
10.32,-1,-1,-3,-1,1,0,-2,-1,0.0
10.325000000000001,-1,-2,-2,-2,-2,-1,-2,0,0.0
10.33,0,-1,0,1,-3,-1,-2,-2,0.0
10.335,-2,-1,-2,-3,-1,-1,-1,-1,0.0
10.34,-1,1,-1,2,-3,-2,1,-2,0.0
10.345,-1,0,-1,-1,-1,-2,-2,-2,0.0
10.35,0,-3,-1,-1,-2,0,-3,0,0.0
10.355,-1,-1,-1,-1,0,-1,-2,0,0.0
10.36,-2,-3,1,1,0,-2,-3,-1,0.0
10.365,0,0,0,-1,-3,-1,-2,1,0.0
10.370000000000001,-1,0,-4,-1,-3,-3,0,0,0.0
10.375,-1,-1,-1,1,-3,-3,0,-2,0.0
10.38,-1,-2,-2,-5,2,-1,-2,-3,0.0
10.385,-2,0,1,1,1,0,1,-1,0.0
10.39,-3,-1,-2,-3,0,-1,-2,1,0.0
10.395,-1,-1,-1,1,-1,0,2,0,0.0
10.4,0,-1,-2,-4,-2,-1,-1,0,0.0
10.405,1,0,-4,2,0,-1,-2,-3,0.0
10.41,-2,-2,-2,-3,0,-3,-1,-2,0.0
10.415000000000001,-2,-1,2,-1,-1,-1,-2,-2,0.0
10.42,-1,-1,-1,1,-1,0,0,-1,0.0
10.425,-1,0,-2,-2,3,1,1,1,0.0
10.43,-1,-2,0,-1,1,-1,0,-3,0.0
10.435,-1,-3,0,-1,-1,-2,-3,-1,0.0
10.44,-1,-1,0,-2,-3,0,1,-1,0.0
10.445,-1,-2,-1,0,0,0,-2,0,0.0
10.450000000000001,-1,0,-3,0,-1,0,-1,-1,0.0
10.455,-1,-2,-1,-3,-1,-3,1,-1,0.0
10.46,0,-2,-1,-2,-1,-1,0,1,0.0
10.465,-1,1,1,0,-1,-1,0,-1,0.0
10.47,1,-4,-1,1,0,0,-2,-2,0.0
10.475,1,-1,0,0,-1,-1,-2,1,0.0
10.48,-1,-2,-1,0,1,-2,-1,-2,0.0
10.485,-1,-1,-2,-2,-1,-1,-1,-2,0.0
10.49,-1,-1,-1,-1,-3,-2,-2,-1,0.0
10.495000000000001,-2,1,-1,-1,0,-1,-1,-1,0.0
10.5,-3,-3,-1,1,-4,-2,-3,1,0.0
10.505,-2,-1,-1,-2,-1,-2,0,-1,0.0
10.51,-2,0,-1,-1,2,-1,-1,0,0.0
10.515,0,-2,1,0,-1,0,-1,-3,0.0
10.52,-1,-2,-1,-2,1,-3,-1,-1,0.0
10.525,0,-5,-1,-3,1,-1,-1,0,0.0
10.53,-1,-3,1,-1,-1,0,0,-1,0.0
10.535,-1,0,-2,-2,0,-2,0,0,0.0
10.540000000000001,0,1,1,-3,-1,-1,-2,-3,0.0
10.545,-1,-2,-1,-4,0,-1,-2,-2,0.0
10.55,-2,0,-3,0,0,0,2,2,0.0
10.555,-1,-4,-2,0,0,-3,-1,-2,0.0
10.56,0,0,-2,1,-2,-2,-1,0,0.0
10.565,-1,1,0,0,0,-1,-2,-1,0.0
10.57,-1,0,-2,-1,-3,-1,-2,-2,0.0
10.575000000000001,-3,-2,0,0,-1,-1,-1,-1,0.0
10.58,-1,-1,-2,-1,1,-1,-1,0,0.0
10.585,-2,-1,1,0,-2,0,1,-1,0.0
10.59,-1,0,1,-3,0,-1,1,-1,0.0
10.595,1,-1,-2,-3,-1,-1,1,0,0.0
10.6,-3,-5,-3,-2,0,-1,-1,-2,0.0
10.605,0,-1,-3,-3,-1,0,-4,0,0.0
10.61,-1,1,0,-2,-1,-1,-1,-2,0.0
10.615,-2,-1,0,0,-2,1,0,-1,0.0
10.620000000000001,-1,1,-2,1,1,-1,-2,-2,0.0
10.625,0,-1,1,-1,1,-2,1,-1,0.0
10.63,-1,-1,0,-2,0,-4,-1,0,0.0
10.635,0,-3,-1,0,-4,-1,-3,-1,0.0
10.64,0,1,-1,0,-2,-1,0,-1,0.0
10.645,0,-2,-1,0,0,1,-2,-2,0.0
10.65,-1,-2,-1,0,0,0,-4,-2,0.0
10.655,0,0,-1,-1,3,-1,-2,0,0.0
10.66,-1,-2,-1,-2,-1,0,-1,-1,0.0
10.665000000000001,-3,-1,-1,0,-3,-4,-2,1,0.0
10.67,0,-2,-3,-2,-2,1,0,0,0.0
10.675,-4,-2,-1,-3,-3,0,-2,-3,0.0
10.68,-1,0,-1,-3,-5,1,0,-3,0.0
10.685,-2,-2,1,-2,3,-2,-2,-1,0.0
10.69,-1,-3,-1,1,-1,-4,-2,-1,0.0
10.695,-1,-1,-2,-1,0,0,-1,-2,0.0
10.700000000000001,-2,-2,0,1,0,-1,-1,0,0.0
10.705,-2,-2,-1,1,-1,-1,-2,-1,0.0
10.71,0,-1,0,-1,-4,-1,0,0,0.0
10.715,-2,-2,-3,-2,-2,-1,-1,0,0.0
10.72,-1,0,1,-1,-2,0,-1,1,0.0
10.725,-2,-2,-4,-1,-4,-2,0,-2,0.0
10.73,1,-1,2,-1,0,-1,1,0,0.0
10.735,-1,2,-2,-3,3,-1,-3,-1,0.0
10.74,-1,-1,-2,-2,-2,-2,-2,-3,0.0
10.745000000000001,-1,-1,-2,-1,0,-1,-1,-1,0.0
10.75,-1,0,-2,-1,0,-3,-1,-2,0.0
10.755,0,-1,-2,-1,-2,1,1,1,0.0
10.76,-1,-1,0,-1,-2,-2,-3,0,0.0
10.765,-1,-1,0,-2,0,-1,-2,-3,0.0
10.77,-3,-2,-2,-1,1,-2,-2,-1,0.0
10.775,0,0,-4,0,-1,-2,-2,-2,0.0
10.78,-2,-1,-2,0,0,0,-2,0,0.0
10.785,0,-2,0,0,-3,0,1,1,0.0
10.790000000000001,-3,-2,-2,-1,0,-1,0,-1,0.0
10.795,-2,-2,3,-2,-1,-4,0,-1,0.0
10.8,-1,-1,-2,-1,-2,-2,-1,-1,0.0
10.805,-2,1,1,1,-2,0,0,1,0.0
10.81,-3,-1,-1,-1,-2,1,-2,-2,0.0
10.815,0,-1,-4,-1,-1,1,-2,-1,0.0
10.82,0,-2,-1,-1,0,-2,1,-1,0.0
10.825000000000001,-1,-3,-3,-3,2,-1,-1,-1,0.0
10.83,0,-2,0,-2,0,-1,-1,-2,0.0
10.835,-2,-2,2,0,-3,-1,-1,-2,0.0
10.84,-1,-1,0,-1,0,0,-2,-1,0.0
10.845,-2,-1,0,0,-1,1,-2,-1,0.0
10.85,-1,-2,-3,-1,-1,-1,-3,-1,0.0
10.855,-2,-3,0,-1,3,-2,-1,-1,0.0
10.86,0,-3,0,0,2,1,2,1,0.0
10.865,-2,-1,-3,0,-4,-2,-1,-1,0.0
10.870000000000001,-1,-1,0,-4,-2,-2,-2,-2,0.0
10.875,-1,0,1,-1,-1,-1,0,0,0.0
10.88,0,-1,-2,-1,0,-1,-1,-1,0.0
10.885,-1,-1,-1,-2,0,-1,-1,-3,0.0
10.89,-2,0,-2,0,-1,-2,-2,1,0.0
10.895,-2,-1,-2,-2,1,-1,-3,-3,0.0
10.9,-2,2,1,-2,1,-2,0,0,0.0
10.905,1,-1,-2,2,0,-2,-1,-3,0.0
10.91,1,-3,0,1,0,2,2,0,0.0
10.915000000000001,-2,1,1,0,-2,-2,0,-2,0.0
10.92,0,0,0,10,1,0,-1,-3,0.0
10.925,-2,-3,-10,-19,0,0,-1,1,0.0
10.93,-1,1,2,23,0,-4,-2,0,0.0
10.935,1,-3,-2,-6,2,0,0,-1,0.0
10.94,-4,-1,3,-11,-6,-6,-3,-1,0.0
10.945,-1,0,11,49,-1,-2,-2,-3,0.0
10.950000000000001,-4,-1,-10,-45,-3,-2,-2,-3,0.0
10.955,0,2,9,14,2,-1,1,-2,0.0
10.96,-6,-5,-25,-36,7,-1,0,-2,0.0
10.965,6,28,44,7,-13,-9,-4,-4,0.0
10.97,-14,-30,-12,25,33,-1,-2,-6,0.0
10.975,1,-11,20,-27,-28,0,-1,0,0.0
10.98,-1,-9,-7,71,24,10,5,2,0.0
10.985,-5,-13,-13,-102,-32,-14,-7,-4,0.0
10.99,-11,-37,-37,-28,6,3,-1,-4,0.0
10.995000000000001,4,35,43,-17,-6,-7,-1,0,0.0
11.0,1,-16,-1,42,8,2,-4,0,0.0
11.005,-9,-38,-53,18,4,6,1,-1,0.0
11.01,7,27,67,-2,-40,-5,-3,1,0.0
11.015,-2,8,-29,5,22,1,-2,-1,0.0
11.02,-6,-20,16,-66,-5,-4,-4,-2,0.0
11.025,-1,13,-34,35,3,-4,-1,-2,0.0
11.03,1,3,7,-20,-16,-2,-2,1,0.0
11.035,3,13,-3,21,3,6,1,1,0.0
11.040000000000001,2,-4,33,-16,-15,-5,-3,2,0.0
11.045,2,10,-13,20,13,5,-1,1,0.0
11.05,-6,-10,-45,-20,-2,-2,0,-1,0.0
11.055,-5,-25,17,10,-16,-6,-5,-2,0.0
11.06,3,14,2,-8,4,-1,-1,-1,0.0
11.065,0,-2,2,-2,4,3,4,3,0.0
11.07,5,11,34,9,-2,-3,-3,0,0.0
11.075000000000001,0,-3,-23,-17,9,1,0,0,0.0
11.08,-5,-6,-73,1,-7,-8,-4,-6,0.0
11.085,0,4,28,-2,6,3,3,-1,0.0
11.09,5,11,2,17,1,1,1,-2,0.0
11.095,-4,-8,24,-11,-3,-3,-1,-2,0.0
11.1,-3,-8,-5,17,-10,-4,-2,-3,0.0
11.105,3,-14,-7,-41,1,0,0,3,0.0
11.11,0,-16,-2,23,6,-1,0,-4,0.0
11.115,0,0,-22,0,3,-2,-1,-1,0.0
11.120000000000001,1,18,20,1,-6,-2,1,2,0.0
11.125,-5,-33,-21,-13,-1,-1,-1,-1,0.0
11.13,1,4,0,7,3,-2,-1,-1,0.0
11.135,-5,-10,-19,4,-2,-3,-2,-4,0.0
11.14,2,8,15,-3,-7,0,0,-2,0.0
11.145,-1,-2,21,11,2,2,-2,-4,0.0
11.15,6,21,-25,1,-5,-1,-3,7,0.0
11.155,-3,-8,-10,-10,-4,3,3,1,0.0
11.16,3,9,20,26,0,2,-1,0,0.0
11.165000000000001,-2,10,-13,-12,-4,-2,-1,3,0.0
11.17,1,9,-3,-17,-1,0,2,-1,0.0
11.175,-1,4,18,21,2,-2,-3,-1,0.0
11.18,2,0,-9,-24,-4,1,2,1,0.0
11.185,0,1,23,12,-1,-2,-2,-3,0.0
11.19,-2,13,16,-2,3,-1,-3,0,0.0
11.195,-5,-13,3,4,-1,0,-2,-2,0.0
11.200000000000001,6,1,35,1,-2,1,2,4,0.0
11.205,-3,-10,-1,-2,1,-1,-4,-3,0.0
11.21,-3,2,-2,20,6,0,0,-2,0.0
11.215,-1,1,-1,-2,-7,-2,-1,0,0.0
11.22,-2,2,-2,3,2,0,0,-2,0.0
11.225,-1,1,-1,1,5,1,-1,0,0.0
11.23,-1,-1,-2,-4,-2,-2,-2,-1,0.0
11.235,-1,1,0,0,-1,-1,-1,-1,0.0
11.24,-1,-1,0,-5,-4,-1,0,-1,0.0
11.245000000000001,-1,-2,-1,-2,-2,0,0,0,0.0
11.25,-1,-3,-4,-2,0,0,-2,-1,0.0
11.255,-2,-9,-2,-1,2,-2,-2,-1,0.0
11.26,0,4,-1,-3,-3,-3,-2,1,0.0
11.265,-3,3,0,3,-1,-1,0,-4,0.0
11.27,0,-4,-1,0,1,-1,-2,-3,0.0
11.275,-1,-2,2,2,-1,0,-1,-2,0.0
11.28,-2,1,-1,1,2,-2,-1,0,0.0
11.285,-1,0,-2,9,-4,1,1,1,0.0
11.290000000000001,-1,-2,-2,-1,1,-3,-1,0,0.0
11.295,-1,0,-4,-6,-1,-3,-1,-2,0.0
11.3,-1,-7,1,-2,-3,2,0,-1,0.0
11.305,1,-27,-3,-2,-6,2,-1,3,0.0
11.31,-1,2,0,0,-3,0,-1,0,0.0
11.315,-2,22,-4,-27,2,-3,-2,-4,0.0
11.32,0,4,-8,-43,-8,3,1,-2,0.0
11.325000000000001,-1,-1,-1,2,-9,4,1,-1,0.0
11.33,1,15,-9,-8,-4,3,3,4,0.0
11.335,0,-1,5,21,2,-2,-3,0,0.0
11.34,-1,-8,10,4,0,-3,-4,-2,0.0
11.345,-1,-2,-2,-10,5,-2,-2,0,0.0
11.35,0,-14,-8,-3,1,-2,-1,-1,0.0
11.355,0,-5,-6,-4,-3,-1,-2,-2,0.0
11.36,-1,-2,-1,-4,-3,-1,0,-1,0.0
11.365,-1,0,0,6,-3,0,0,3,0.0
11.370000000000001,1,-8,4,-5,-4,0,-1,-1,0.0
11.375,-1,1,-5,-1,4,1,0,1,0.0
11.38,0,-1,3,4,4,-2,-2,-1,0.0
11.385,-3,-9,-4,6,-2,-2,-2,-2,0.0
11.39,-1,-4,1,-12,-1,-1,-1,0,0.0
11.395,-1,2,6,4,0,-2,-1,-3,0.0
11.4,0,-2,-1,-13,-1,-1,-1,-1,0.0
11.405,-1,-8,-3,-5,-3,0,-1,-3,0.0
11.41,-1,-2,-5,-11,-5,-1,1,5,0.0
11.415000000000001,-2,-3,6,14,8,-1,-3,-2,0.0
11.42,-2,-4,-2,16,-2,-2,-2,0,0.0
11.425,-1,3,-4,-2,-1,-1,0,-2,0.0
11.43,-1,-2,0,-16,-1,-1,-2,-3,0.0
11.435,1,-3,6,7,3,1,2,-1,0.0
11.44,-1,-1,3,6,-4,-1,-2,0,0.0
11.445,1,-2,-4,-9,2,0,0,1,0.0
11.450000000000001,-3,-4,-2,-5,-5,-2,-1,-2,0.0
11.455,-1,3,2,-8,1,2,0,0,0.0
11.46,-1,-2,-4,2,-1,-1,-1,-2,0.0
11.465,-1,2,-5,-3,-4,-3,-2,-1,0.0
11.47,-1,1,0,31,5,1,-2,-1,0.0
11.475,-2,-6,-9,-32,-4,-4,0,1,0.0
11.48,-1,0,2,13,2,1,-1,1,0.0
11.485,-2,-3,2,-9,-4,-3,-1,-1,0.0
11.49,-1,1,1,2,-2,-1,0,-3,0.0
11.495000000000001,0,0,-3,2,4,0,0,-3,0.0
11.5,-2,-3,-6,-2,-4,-3,2,0,0.0
11.505,-1,-1,5,16,0,-1,-3,-2,0.0
11.51,-2,-1,-3,-14,0,-2,-1,3,0.0
11.515,0,-2,-3,-1,-6,-1,0,-2,0.0
11.52,-2,0,-1,-3,2,-3,-2,-1,0.0
11.525,-1,-2,-3,4,-1,-1,-1,-1,0.0
11.53,-1,0,2,-7,1,-2,-1,-2,0.0
11.535,0,0,-2,4,-3,1,0,-2,0.0
11.540000000000001,-1,-2,-6,-2,-2,-1,-2,-2,0.0
11.545,-3,0,1,-3,-2,-1,0,-1,0.0
11.55,-2,-1,-3,0,0,2,1,-2,0.0
11.555,-1,-3,-3,-1,-3,-1,0,-1,0.0
11.56,-1,-1,-4,2,-2,-1,0,-3,0.0
11.565,0,-1,2,6,3,0,-1,1,0.0
11.57,-3,-3,1,-9,-3,-2,-2,-2,0.0
11.575000000000001,-4,-1,-1,1,-1,-3,0,1,0.0
11.58,-2,0,3,-2,-2,0,-2,0,0.0
11.585,-1,3,-3,1,2,-1,-1,-3,0.0
11.59,0,-2,-5,10,-6,-3,-2,-1,0.0
11.595,-2,-3,2,-12,4,0,-1,-3,0.0
11.6,-1,-3,-4,-1,-1,-1,-1,-4,0.0
11.605,0,1,3,-1,-2,-1,0,4,0.0
11.61,-2,-1,-3,-9,2,-3,-3,-2,0.0
11.615,0,-4,4,5,-8,-3,-2,-1,0.0
11.620000000000001,0,2,-4,1,5,-1,1,-2,0.0
11.625,0,-4,0,-4,-1,-1,-1,-3,0.0
11.63,2,1,-1,3,4,0,1,0,0.0
11.635,-1,-1,-7,11,-3,-1,-3,-2,0.0
11.64,-1,-4,-4,-23,2,1,1,-2,0.0
11.645,-4,1,13,7,-3,-3,0,1,0.0
11.65,-2,-7,4,-15,-2,-3,-1,-4,0.0
11.655,-1,0,8,22,2,-2,-2,-5,0.0
11.66,1,2,4,9,-2,-1,2,6,0.0
11.665000000000001,-1,-4,-36,-18,-1,-1,1,-1,0.0
11.67,-1,-1,-2,0,0,-1,-1,-1,0.0
11.675,0,0,15,7,-5,-1,-1,0,0.0
11.68,-2,1,6,0,4,-1,-2,-1,0.0
11.685,-1,-9,-27,-24,-3,-2,-1,0,0.0
11.69,-2,1,21,21,-1,-1,-1,-2,0.0
11.695,1,2,17,-15,-4,-2,-2,0,0.0
11.700000000000001,-6,-1,35,48,0,-9,-6,-7,0.0
11.705,0,-6,-18,-7,1,2,0,0,0.0
11.71,-3,-4,0,-11,-4,-1,0,-1,0.0
11.715,1,5,5,-27,2,3,0,2,0.0
11.72,3,1,13,5,-8,0,1,3,0.0
11.725,0,1,11,9,0,-3,-2,-2,0.0
11.73,-3,-11,-32,11,-3,0,0,-7,0.0
11.735,-4,6,20,-8,-3,-2,-1,1,0.0
11.74,-3,-9,-34,-16,1,-3,-1,0,0.0
11.745000000000001,3,11,9,-2,-5,0,1,0,0.0
11.75,2,-5,-40,5,-8,-2,-2,0,0.0
11.755,0,-2,-37,-15,10,0,0,0,0.0
11.76,-5,-12,-2,3,13,5,-4,-6,0.0
11.765,3,4,0,22,-19,-2,3,1,0.0
11.77,-7,-7,-7,-37,13,-7,-3,-5,0.0
11.775,3,2,27,49,-1,1,3,-1,0.0
11.78,3,-8,-17,-48,-5,1,2,3,0.0
11.785,-12,0,70,19,6,-7,-9,-8,0.0
11.790000000000001,8,8,-14,-32,-9,9,6,7,0.0
11.795,-4,-1,6,16,9,-6,-6,-5,0.0
11.8,12,16,-46,19,7,4,5,6,0.0
11.805,-4,-8,-1,59,-9,0,1,2,0.0
11.81,1,33,41,-30,3,-4,0,0,0.0
11.815,-9,-81,-76,-66,14,-3,-8,-8,0.0
11.82,11,27,11,14,-13,5,5,5,0.0
11.825000000000001,-5,2,-48,12,24,-1,-5,-13,0.0
11.83,-11,-56,55,50,-44,-6,-4,-3,0.0
11.835,-1,10,48,-64,8,-3,-1,2,0.0
11.84,4,46,2,85,-29,-8,-3,-1,0.0
11.845,-27,-17,-22,-71,64,-6,-10,-13,0.0
11.85,5,16,63,52,-13,3,0,-2,0.0
11.855,2,30,36,2,-14,0,-1,2,0.0
11.86,-3,-17,-100,-27,20,2,-4,0,0.0
11.865,-12,-32,-85,23,0,-2,-2,-3,0.0
11.870000000000001,-8,1,-9,-24,23,-3,-4,-4,0.0
11.875,3,-4,19,79,-59,-8,-2,1,0.0
11.88,-6,-11,-29,-28,-42,-19,-6,-4,0.0
11.885,5,1,83,17,89,31,8,6,0.0
11.89,0,-39,-30,6,-61,-7,1,-5,0.0
11.895,-3,-4,9,-55,-14,-4,-1,-1,0.0
11.9,5,60,67,25,20,-4,-3,1,0.0
11.905,-7,2,-91,-18,-33,-10,-6,-7,0.0
11.91,4,18,59,-10,17,-3,-1,-1,0.0
11.915000000000001,0,-37,-93,-52,-23,-3,1,-1,0.0
11.92,-6,2,39,84,61,14,1,-2,0.0
11.925,4,5,35,33,-14,-4,-3,0,0.0
11.93,0,-5,-5,2,-8,0,-1,1,0.0
11.935,1,-1,37,-50,-42,-6,0,0,0.0
11.94,-1,9,-27,-22,54,6,-1,0,0.0
11.945,-11,-39,-58,5,-5,-2,3,-5,0.0
11.950000000000001,-1,-2,-11,-21,-50,-12,-4,-3,0.0
11.955,6,42,10,-51,35,8,1,2,0.0
11.96,1,-14,-26,35,-15,-5,-1,-3,0.0
11.965,2,-8,-8,6,-8,-5,0,-1,0.0
11.97,-9,-16,-40,-1,8,-3,-5,-6,0.0
11.975,-1,0,-1,-13,2,0,-2,1,0.0
11.98,4,2,-31,-27,8,2,0,3,0.0
11.985,-5,-9,-66,-39,0,-3,-2,-3,0.0
11.99,0,5,15,-10,-2,-3,-2,-4,0.0
11.995000000000001,0,0,17,22,1,2,-1,-1,0.0
12.0,1,-4,9,-4,-2,0,1,1,0.0
12.005,-2,2,23,16,-6,-4,-1,0,0.0
12.01,1,-3,2,-21,3,5,1,0,0.0
12.015,0,-1,2,32,1,-3,-4,0,0.0
12.02,2,0,-8,-25,-5,-1,-3,0,0.0
12.025,-1,-1,16,13,3,0,0,-1,0.0
12.030000000000001,0,0,9,-5,-2,3,2,0,0.0
12.035,1,1,28,8,0,1,0,1,0.0
12.040000000000001,-1,0,25,6,-1,-4,-2,1,0.0
12.045,0,-2,-2,2,-4,-4,-1,-1,0.0
12.05,-2,-3,-9,0,1,1,-1,-2,0.0
12.055,0,-2,1,1,1,-2,-1,-2,0.0
12.06,0,-3,-4,-4,-5,-2,1,-2,0.0
12.065,-1,-4,-4,-4,-2,-2,-2,-1,0.0
12.07,-1,0,-1,8,0,1,0,-1,0.0
12.075000000000001,-2,1,-1,-3,1,0,-2,-3,0.0
12.08,-2,-2,-5,-3,0,-2,-3,0,0.0
12.085,0,0,-2,9,5,0,1,-2,0.0
12.09,-2,-5,-1,-7,-2,-1,0,-1,0.0
12.095,-2,-2,-2,-19,-1,-1,1,0,0.0
12.1,0,-2,-4,3,5,0,-3,-2,0.0
12.105,0,1,0,-16,-5,-3,-1,-2,0.0
12.11,0,0,1,24,-1,1,0,-2,0.0
12.115,-2,-1,-3,-4,0,0,-1,0,0.0
12.120000000000001,-2,-3,0,-9,-4,-1,2,-1,0.0
12.125,0,2,-2,8,-1,-2,-2,0,0.0
12.13,-3,-3,-3,-10,0,-3,-3,-1,0.0
12.135,3,3,-1,8,1,0,0,-1,0.0
12.14,-2,-3,0,1,-1,1,-2,2,0.0
12.145,-4,-2,-2,0,-2,-3,-1,-3,0.0
12.15,-2,0,-3,1,-3,-3,-2,1,0.0
12.155000000000001,-2,-8,-2,-22,0,-1,-3,0,0.0
12.16,6,4,0,9,0,1,-2,1,0.0
12.165000000000001,-2,0,-1,-6,-4,-2,-1,-1,0.0
12.17,-5,-8,-1,8,-4,-2,0,-2,0.0
12.175,-5,-5,-2,-24,-6,0,-1,-1,0.0
12.18,-5,-5,0,3,-6,-3,-1,-1,0.0
12.185,2,5,-1,-14,4,-1,-4,-3,0.0
12.19,-2,-3,-3,-13,-4,-1,-1,-2,0.0
12.195,-6,-7,-2,-7,12,2,1,1,0.0
12.200000000000001,2,3,-1,15,4,0,0,-3,0.0
12.205,-7,1,-1,27,-6,-2,-1,-2,0.0
12.21,-2,-2,-4,-23,0,1,3,-2,0.0
12.215,1,-15,0,12,-8,-2,-2,-1,0.0
12.22,3,18,-5,-6,6,-4,-1,-2,0.0
12.225,0,5,-2,5,0,-3,-3,-1,0.0
12.23,1,-6,-1,0,-7,0,3,0,0.0
12.235,-4,2,1,41,8,-1,0,-2,0.0
12.24,2,-1,-2,-34,4,3,-1,0,0.0
12.245000000000001,1,-7,0,8,-6,-1,-1,-2,0.0
12.25,-2,2,-4,-9,-6,-5,-2,-2,0.0
12.255,0,3,0,9,4,2,-1,-1,0.0
12.26,1,-7,1,-1,-3,0,1,0,0.0
12.265,-2,-64,-2,-7,-1,-1,-1,0,0.0
12.27,0,-51,1,4,4,-3,-2,-2,0.0
12.275,3,56,-4,-4,-6,-2,-1,-2,0.0
12.280000000000001,-7,37,-1,-16,-7,-3,2,-2,0.0
12.285,-1,44,-1,8,5,-2,-1,-2,0.0
12.290000000000001,0,10,2,3,2,-1,-2,-2,0.0
12.295,-2,-21,0,-15,-6,-3,-2,-1,0.0
12.3,-1,-2,-3,7,3,-1,-2,-1,0.0
12.305,-2,0,-2,3,-8,-1,0,0,0.0
12.31,-1,-2,-1,-3,-1,-1,0,0,0.0
12.315,2,-13,-2,-11,0,-1,-1,-1,0.0
12.32,0,-10,-2,-1,-2,-3,-3,-1,0.0
12.325000000000001,-1,-6,-4,-3,4,-2,-1,-3,0.0
12.33,-2,2,0,3,3,2,-3,0,0.0
12.335,-2,-8,-2,-11,-2,-1,0,-1,0.0
12.34,-4,-14,0,-1,-2,-4,-1,-1,0.0
12.345,-3,0,0,16,-4,-2,0,1,0.0
12.35,-2,10,-6,0,1,-2,-1,-1,0.0
12.355,-2,-6,0,-16,-2,-1,1,-1,0.0
12.36,-2,-8,1,-1,-5,-3,-2,-2,0.0
12.365,2,8,0,1,2,-1,-3,0,0.0
12.370000000000001,-2,7,-1,-3,-5,0,-1,-1,0.0
12.375,1,-6,-1,2,-1,-2,-1,0,0.0
12.38,-1,-4,-3,-7,0,-3,0,-2,0.0
12.385,0,8,3,-3,2,1,-3,0,0.0
12.39,-2,-5,-2,3,0,0,-3,-1,0.0
12.395,-3,-9,-1,-5,-5,-2,-1,-2,0.0
12.4,-2,-1,-1,0,1,1,-1,0,0.0
12.405000000000001,0,-1,-1,3,-1,-1,0,-1,0.0
12.41,-1,1,-1,-7,0,-2,-2,-2,0.0
12.415000000000001,-1,0,0,4,3,0,-2,-1,0.0
12.42,0,-4,-2,5,-1,-1,-2,-2,0.0
12.425,-1,-5,-1,-12,-2,0,0,0,0.0
12.43,-2,1,-1,-2,1,-1,0,-1,0.0
12.435,2,-1,-1,-1,-7,0,-3,-2,0.0
12.44,-1,-2,-2,6,3,-1,0,-2,0.0
12.445,0,-2,1,-6,2,-1,-2,-1,0.0
12.450000000000001,0,1,1,10,-3,0,1,-1,0.0
12.455,-2,-4,-4,-13,-1,-3,-1,0,0.0
12.46,0,-4,2,2,-1,-2,-2,0,0.0
12.465,-1,4,-1,-1,0,0,0,0,0.0
12.47,0,4,-2,4,1,-2,-2,-1,0.0
12.475,-2,-2,0,0,0,0,-3,-2,0.0
12.48,0,0,0,-8,-2,0,-2,-3,0.0
12.485,-1,0,-4,17,3,-1,0,-2,0.0
12.49,0,-1,-1,-16,-2,1,-1,0,0.0
12.495000000000001,0,-4,-1,-6,-2,-1,2,-1,0.0
12.5,0,0,-2,-4,0,-1,-1,2,0.0
12.505,-1,0,-2,-7,-6,-4,-1,-1,0.0
12.51,-2,1,-1,6,3,1,-1,0,0.0
12.515,-2,-5,-1,2,-1,-1,-2,-2,0.0
12.52,-1,-1,2,-6,1,0,0,-2,0.0
12.525,0,-1,2,-1,-2,-1,-2,1,0.0
12.530000000000001,-2,0,0,-11,2,-2,1,0,0.0
12.535,-3,0,1,22,-2,-3,-3,1,0.0
12.540000000000001,0,-3,-2,-3,10,1,1,0,0.0
12.545,-1,-4,0,6,-7,-2,-2,-4,0.0
12.55,-1,-1,-1,-6,2,-1,-2,-3,0.0
12.555,1,4,4,-12,-8,-2,0,1,0.0
12.56,-3,-5,-8,-19,20,1,-1,-2,0.0
12.565,-2,-8,1,5,-9,-3,-1,-3,0.0
12.57,0,6,4,74,-22,-6,-3,-2,0.0
12.575000000000001,-2,1,-14,-95,31,6,0,2,0.0
12.58,-1,-8,3,28,-18,-1,-1,0,0.0
12.585,0,9,-2,-5,0,-1,-2,-2,0.0
12.59,-5,-15,3,-11,3,-1,0,-2,0.0
12.595,1,7,-1,25,-9,-5,-1,-1,0.0
12.6,1,4,-1,5,-2,1,-1,-1,0.0
12.605,-1,-5,-1,-16,5,1,-3,-1,0.0
12.61,1,2,-2,-6,-6,-4,-1,1,0.0
12.615,-3,0,3,29,-4,-2,-3,-3,0.0
12.620000000000001,1,1,-11,-45,5,-1,-3,0,0.0
12.625,-2,-8,2,-17,-6,-3,-1,-1,0.0
12.63,-2,3,-1,37,3,-2,-1,-1,0.0
12.635,-5,-8,-3,-7,-9,-2,0,1,0.0
12.64,0,2,-4,-27,9,1,-1,0,0.0
12.645,-2,-5,-2,8,3,1,-3,-1,0.0
12.65,-3,1,-1,-2,-9,-4,0,-2,0.0
12.655000000000001,1,-1,-1,-3,1,-2,-1,-1,0.0
12.66,-1,-1,-1,-10,-1,-1,0,0,0.0
12.665000000000001,-1,-3,0,20,-2,-2,-2,-3,0.0
12.67,-1,-1,0,-9,-1,-3,-2,-1,0.0
12.675,-1,-1,-2,-11,4,1,1,0,0.0
12.68,-1,-2,1,12,0,-1,-2,-3,0.0
12.685,0,1,-2,-4,-5,-4,-2,-2,0.0
12.69,-1,-4,0,5,0,-2,-3,-2,0.0
12.695,-1,-2,0,5,-1,-1,-1,-1,0.0
12.700000000000001,-3,1,0,-2,-3,0,-1,-1,0.0
12.705,-2,-3,-1,14,-7,-1,1,-2,0.0
12.71,0,-2,-3,-31,7,-2,-3,0,0.0
12.715,0,-2,-1,0,-2,0,-1,-2,0.0
12.72,-1,-3,0,6,-7,-2,-1,0,0.0
12.725,-1,-1,0,-2,0,1,-2,-1,0.0
12.73,-2,0,0,12,-9,0,1,-1,0.0
12.735,-1,1,-3,-14,2,1,-1,-3,0.0
12.74,-1,-4,-1,1,0,-1,0,-1,0.0
12.745000000000001,-2,-1,0,14,-3,-1,-2,-1,0.0
12.75,-3,-3,-1,-3,2,-3,-1,1,0.0
12.755,-2,2,-3,0,2,-4,0,1,0.0
12.76,-2,-1,-1,-2,4,-2,-2,-2,0.0
12.765,0,-2,0,9,-1,1,1,-1,0.0
12.77,0,-3,1,0,-3,-1,-1,-1,0.0
12.775,-1,1,-3,-3,-8,-3,-2,0,0.0
12.780000000000001,0,-2,-4,-10,9,2,0,-1,0.0
12.785,-1,-2,0,1,-7,-3,-2,-3,0.0
12.790000000000001,1,-1,0,-4,-3,-2,0,-2,0.0
12.795,-2,-2,3,0,1,0,0,-1,0.0
12.8,-1,0,-3,-7,-1,-2,-3,-1,0.0
12.805,-1,-1,-4,1,-5,-2,-1,-2,0.0
12.81,-2,0,0,3,0,2,-1,-1,0.0
12.815,-1,-1,-1,-10,-3,-1,-4,-1,0.0
12.82,0,2,-1,8,-3,-2,-1,-2,0.0
12.825000000000001,-1,-2,2,11,5,-1,0,0,0.0
12.83,-2,-5,-2,-15,-1,-1,-2,-2,0.0
12.835,-1,-2,-2,8,2,-1,0,-1,0.0
12.84,-1,-2,3,21,-5,0,-2,0,0.0
12.845,-1,-2,-2,-6,3,0,-2,-1,0.0
12.85,-1,-2,-1,6,3,0,-1,-3,0.0
12.855,-3,0,-1,-8,-2,-1,-1,-2,0.0
12.86,0,1,-2,1,1,0,1,-1,0.0
12.865,-2,-3,-4,-14,-2,-2,0,-1,0.0
12.870000000000001,-2,-1,1,7,-4,0,-2,-1,0.0
12.875,0,-1,0,11,-7,-2,-1,-1,0.0
12.88,-1,-2,-2,-8,-1,-1,1,0,0.0
12.885,-1,-1,0,-5,1,0,0,-1,0.0
12.89,-2,2,-1,2,-3,-1,-2,1,0.0
12.895,0,-1,1,10,2,0,0,-1,0.0
12.9,-1,-1,-5,-13,-1,-2,0,-2,0.0
12.905000000000001,1,-2,-1,15,0,0,1,0,0.0
12.91,-1,2,-2,-1,4,1,-1,0,0.0
12.915000000000001,-3,-4,2,8,8,0,0,-1,0.0
12.92,-2,-6,4,20,-4,-2,-2,-2,0.0
12.925,-2,1,-6,-49,-2,0,-2,-1,0.0
12.93,-1,-4,0,4,-2,-4,-1,-1,0.0
12.935,-1,0,-2,0,0,-1,-4,-1,0.0
12.94,-1,-1,2,-3,-2,-1,-2,-1,0.0
12.945,-1,-2,-2,6,-1,-2,-2,1,0.0
12.950000000000001,1,-1,-2,-2,5,1,0,-1,0.0
12.955,0,-3,-3,-41,-7,0,-1,-1,0.0
12.96,-3,-22,6,-113,13,-7,-4,-6,0.0
12.965,-6,-29,7,-77,13,-10,-2,-11,0.0
12.97,-4,-1,-6,-13,-10,-3,-2,-5,0.0
12.975,0,9,-6,75,-10,1,0,-1,0.0
12.98,1,18,-8,95,-5,7,-1,4,0.0
12.985,0,7,1,92,-3,1,-2,4,0.0
12.99,1,-8,4,76,2,0,-2,-1,0.0
12.995000000000001,-1,-8,-2,65,-6,-1,-1,1,0.0
13.0,1,-6,-4,72,-7,0,1,1,0.0
13.005,1,18,-5,98,-5,2,-2,2,0.0
13.01,2,14,6,96,-4,-1,-2,2,0.0
13.015,0,8,-1,39,7,-2,-3,0,0.0
13.02,-2,1,3,38,-2,-2,-1,0,0.0
13.025,-3,-3,-1,34,1,-1,-1,0,0.0
13.030000000000001,-1,-2,2,-34,-1,1,1,3,0.0
13.035,-2,-7,-1,-119,9,-2,-1,-1,0.0
13.040000000000001,-2,-11,0,-66,-4,-5,-3,-2,0.0
13.045,-2,-4,-1,-26,1,-2,0,-4,0.0
13.05,-2,-4,-1,2,-6,-3,-1,-2,0.0
13.055,0,-4,-1,84,6,0,-1,0,0.0
13.06,0,2,-3,65,-4,0,-1,-1,0.0
13.065,0,3,-3,92,-7,1,-1,0,0.0
13.07,-1,-1,-1,31,-5,-3,-2,0,0.0
13.075000000000001,-2,-2,-1,71,2,-4,0,-3,0.0
13.08,-1,3,-5,13,-1,0,1,-2,0.0
13.085,2,5,-2,38,-5,-1,0,-1,0.0
13.09,-2,-3,-1,10,6,-1,-1,-2,0.0
13.095,-1,0,1,-3,-4,-3,-2,1,0.0
13.1,-2,2,1,-10,1,1,-3,-1,0.0
13.105,-1,-6,-1,-39,-1,-4,0,-2,0.0
13.11,0,-1,-3,-36,1,-1,-1,-2,0.0
13.115,1,-3,2,-32,-3,0,-1,0,0.0
13.120000000000001,0,0,1,5,1,0,-1,-1,0.0
13.125,0,-4,-1,-42,1,1,0,-1,0.0
13.13,-2,-2,-3,-15,-2,-1,-1,-2,0.0
13.135,0,0,-1,-25,-3,0,0,-1,0.0
13.14,-1,-2,-5,2,2,-1,-1,-1,0.0
13.145,-3,-2,-4,-15,-5,1,-2,-2,0.0
13.15,-4,-1,-3,2,-4,-2,-3,-3,0.0
13.155000000000001,0,-31,0,-2,-2,1,0,1,0.0
13.16,-3,-37,2,-1,4,0,-1,0,0.0
13.165000000000001,1,-5,-2,-9,-2,-2,0,-1,0.0
13.17,-1,-10,1,-2,-4,-1,-1,0,0.0
13.175,-3,12,-1,-11,2,2,-2,-1,0.0
13.18,-2,22,-2,7,-7,-1,-2,-1,0.0
13.185,-1,-48,2,-1,2,-4,-3,-2,0.0
13.19,-3,18,1,-7,-3,-1,1,-1,0.0
13.195,-5,17,-4,3,1,-3,2,-1,0.0
13.200000000000001,-2,48,-1,-11,-5,-2,2,-1,0.0
13.205,0,23,1,1,6,-1,-1,1,0.0
13.21,-2,-17,-2,-2,3,-3,-1,-1,0.0
13.215,-1,-22,-5,-13,-3,-2,-2,-3,0.0
13.22,0,-9,0,-13,-1,-3,-4,-3,0.0
13.225,3,8,-7,9,4,-1,-2,0,0.0
13.23,1,4,1,-19,-5,-1,-2,-3,0.0
13.235,-1,11,-7,1,4,-3,-3,-2,0.0
13.24,-1,-22,-2,-6,-4,-1,0,-1,0.0
13.245000000000001,-3,10,-3,-24,-1,-3,-3,-2,0.0
13.25,-1,-11,-1,3,-3,0,-2,-2,0.0
13.255,0,0,-2,3,-3,0,-1,0,0.0
13.26,-1,-9,-2,-2,1,-2,1,0,0.0
13.265,0,-6,3,2,-1,2,-2,1,0.0
13.27,-4,-2,-3,-5,-1,-1,-1,-1,0.0
13.275,-4,-17,7,-1,-3,0,-1,-2,0.0
13.280000000000001,-3,-7,0,1,2,-1,0,0,0.0
13.285,-1,2,-6,-13,-1,1,1,0,0.0
13.290000000000001,0,-20,-29,-34,-2,-3,-2,0,0.0
13.295,0,-38,-27,-47,7,0,0,-3,0.0
13.3,-3,-23,-113,-119,2,-3,-2,-5,0.0
13.305,0,-6,-111,-59,10,-1,0,-1,0.0
13.31,-2,5,20,21,-3,-2,-2,-4,0.0
13.315,-2,16,-5,65,-2,-2,-3,-3,0.0
13.32,-3,3,17,91,-2,1,1,-1,0.0
13.325000000000001,2,29,50,72,-11,2,1,1,0.0
13.33,0,4,-36,65,-5,0,0,2,0.0
13.335,2,8,92,24,-1,-1,-1,0,0.0
13.34,-2,-23,64,13,5,2,0,0,0.0
13.345,-1,1,-57,-88,0,-3,-2,-5,0.0
13.35,-4,-8,-25,-25,-1,-5,-2,-3,0.0
13.355,-1,2,-35,-20,4,1,1,-1,0.0
13.36,-9,-20,-24,-53,-4,-3,0,-2,0.0
13.365,-3,-6,-62,-4,2,-4,-2,-1,0.0
13.370000000000001,0,3,-25,22,-5,-2,-1,-1,0.0
13.375,-1,4,-16,5,-3,-1,-3,-3,0.0
13.38,3,2,-16,11,2,2,2,0,0.0
13.385,-3,-9,-18,-2,-2,0,-1,-2,0.0
13.39,1,9,10,29,2,-1,-1,-1,0.0
13.395,-5,-6,9,1,-3,5,1,1,0.0
13.4,1,2,-5,-41,-2,-3,-1,1,0.0
13.405000000000001,-1,0,2,3,4,0,0,-3,0.0
13.41,-4,-18,5,2,0,-2,-3,-1,0.0
13.415000000000001,-1,-6,-16,-8,1,-2,-2,-2,0.0
13.42,-6,-13,2,73,-2,-2,-2,-2,0.0
13.425,2,7,2,-31,-3,0,-2,1,0.0
13.43,-1,-1,7,0,0,-1,-4,-2,0.0
13.435,1,7,-2,15,-2,0,-2,1,0.0
13.44,-3,-15,3,-17,-1,-3,-6,-3,0.0
13.445,1,-8,-6,-36,2,0,-5,-3,0.0
13.450000000000001,0,3,-1,77,0,-1,-4,0,0.0
13.455,0,-2,-3,65,-2,-1,-1,-1,0.0
13.46,3,10,6,-3,9,5,6,0,0.0
13.465,-4,-7,4,16,-2,-3,-3,-1,0.0
13.47,-2,-2,-5,-5,-2,0,-3,-3,0.0
13.475,-3,-17,2,-49,-3,1,-2,-1,0.0
13.48,1,6,-9,-57,-5,-7,-4,-1,0.0
13.485,5,5,-25,2,-8,-2,-1,-1,0.0
13.49,-1,-5,-13,-17,-1,-3,-2,-2,0.0
13.495000000000001,2,-4,-13,-24,-2,0,-2,-2,0.0
13.5,-6,9,-2,-8,3,-1,1,-2,0.0
13.505,-2,3,-16,-6,-1,-5,-2,-2,0.0
13.51,0,18,5,-36,0,-1,-1,-2,0.0
13.515,0,8,-19,69,14,1,1,-2,0.0
13.52,1,-11,-7,-14,-9,-3,-1,-2,0.0
13.525,0,14,-1,17,-3,-4,0,0,0.0
13.530000000000001,-1,6,-1,6,-1,-1,-2,0,0.0
13.535,2,-2,0,-16,-3,-2,0,-1,0.0
13.540000000000001,-1,-9,-3,0,-2,-1,0,1,0.0
13.545,-1,-3,-4,-8,2,-2,-3,-1,0.0
13.55,-4,-16,-1,-3,4,2,1,0,0.0
13.555,0,-8,2,-13,-16,-6,-1,-4,0.0
13.56,-3,7,-3,12,-7,-8,-6,-4,0.0
13.565,-1,-23,-7,-12,25,8,2,-2,0.0
13.57,0,-1,2,-5,-18,-5,-1,-3,0.0
13.575000000000001,3,1,1,-2,-3,-1,0,-2,0.0
13.58,-4,-5,-2,-1,3,1,1,0,0.0
13.585,0,4,0,-2,-6,-3,0,-1,0.0
13.59,-2,-2,-3,-10,2,1,-1,0,0.0
13.595,0,-3,-2,-6,7,-2,3,0,0.0
13.6,-1,1,0,0,-9,-3,1,-1,0.0
13.605,-2,-2,-1,-6,3,0,-1,0,0.0
13.61,-2,-2,0,0,2,0,2,-1,0.0
13.615,-3,-2,1,-19,-11,-2,-2,-2,0.0
13.620000000000001,0,7,-2,3,7,0,-2,0,0.0
13.625,-2,-7,-1,18,2,-2,-1,-2,0.0
13.63,-1,-10,-5,-19,1,3,1,-1,0.0
13.635,1,5,3,7,-7,-3,-3,-1,0.0
13.64,0,1,-1,-6,4,0,-3,-2,0.0
13.645,-1,0,0,-22,-6,1,1,0,0.0
13.65,0,0,-1,-8,12,0,-1,-1,0.0
13.655000000000001,0,-5,1,0,-5,-2,-2,-1,0.0
13.66,-1,-3,-2,-6,-1,-1,-1,0,0.0
13.665000000000001,0,0,1,-1,-4,-3,-1,-2,0.0
13.67,-1,-3,1,4,-2,-1,-2,1,0.0
13.675,-1,5,-3,-5,-7,0,-1,0,0.0
13.68,-2,-2,-3,8,6,-1,-4,-1,0.0
13.685,2,-4,-1,-4,-4,1,-1,-2,0.0
13.69,-1,-1,-1,-8,-2,0,-1,2,0.0
13.695,1,-1,-2,13,0,-2,-3,0,0.0
13.700000000000001,0,-2,1,-2,-3,-2,0,1,0.0
13.705,0,1,-1,2,3,-1,-1,-2,0.0
13.71,0,-3,3,2,0,-1,-2,-2,0.0
13.715,-2,-2,-3,-19,-1,-2,-1,-2,0.0
13.72,-2,0,-1,3,0,-2,-3,-3,0.0
13.725,-1,-2,0,-1,1,0,-2,1,0.0
13.73,0,-3,2,5,-7,-1,-3,-2,0.0
13.735,-1,-1,1,-5,-1,-1,0,1,0.0
13.74,-3,-5,0,3,-4,-2,-1,0,0.0
13.745000000000001,0,-3,-1,-1,4,0,-1,-1,0.0
13.75,-2,-4,-3,-8,-6,-1,-1,-2,0.0
13.755,-2,3,0,15,-3,-3,2,0,0.0
13.76,0,-1,-4,-14,-3,-1,2,0,0.0
13.765,-3,-1,0,4,-7,-3,-2,-2,0.0
13.77,-1,-2,-4,-9,5,0,-1,-1,0.0
13.775,0,-9,-1,-11,1,-1,-1,-1,0.0
13.780000000000001,0,3,-2,15,-3,-3,-2,-3,0.0
13.785,1,0,0,-21,-6,-2,-1,0,0.0
13.790000000000001,0,0,-1,29,6,-1,-1,-4,0.0
13.795,-1,1,0,0,-2,-3,-1,-1,0.0
13.8,-3,-3,0,-7,2,-1,-1,-1,0.0
13.805,-2,-2,-4,16,7,1,0,-1,0.0
13.81,-1,-4,0,-8,-3,-1,0,0,0.0
13.815,-2,-3,3,1,-2,-2,-1,0,0.0
13.82,-1,-1,-2,-6,1,-1,0,-1,0.0
13.825000000000001,0,-2,0,6,3,1,-2,0,0.0
13.83,-2,0,-1,-6,-5,-2,-2,-3,0.0
13.835,-1,-3,-2,3,0,-4,-3,-3,0.0
13.84,2,-1,0,-5,-2,0,0,0,0.0
13.845,-2,-2,0,4,4,-1,0,-2,0.0
13.85,-1,0,-1,-3,-1,-2,0,-1,0.0
13.855,0,-1,0,-2,-1,1,1,-2,0.0
13.86,0,0,-1,0,0,-2,-2,0,0.0
13.865,-2,0,-3,0,1,-1,-1,-1,0.0
13.870000000000001,-1,-4,1,-2,-3,0,0,-1,0.0
13.875,-2,-4,-1,-2,0,1,-2,-1,0.0
13.88,-1,-1,0,-3,-2,-3,-1,-1,0.0
13.885,0,0,-1,-1,1,-1,0,-1,0.0
13.89,-1,0,-2,-4,0,-3,-1,-3,0.0
13.895,-2,-1,-3,0,0,0,-1,0,0.0
13.9,0,-2,0,-1,-2,0,0,0,0.0
13.905000000000001,-1,-1,-4,1,0,-1,-2,-1,0.0
13.91,-1,-2,-2,-19,-6,-1,-2,-1,0.0
13.915000000000001,0,1,0,7,4,1,1,-2,0.0
13.92,-2,-1,0,0,2,-1,-3,-2,0.0
13.925,-2,0,0,0,-4,-2,-2,1,0.0
13.93,-1,2,-1,4,0,-4,-2,-1,0.0
13.935,0,-1,-1,-3,-4,-5,-1,-1,0.0
13.94,-2,0,-2,1,-1,-1,-1,-3,0.0
13.945,-1,-3,0,-3,-2,1,1,-3,0.0
13.950000000000001,0,4,-1,-1,2,3,1,0,0.0
13.955,-1,0,1,-3,-1,-1,-2,2,0.0
13.96,-3,-1,-2,2,-1,-1,-2,-1,0.0
13.965,-1,-1,1,-1,-3,-1,-4,0,0.0
13.97,-3,-1,-3,-9,-2,1,-1,-1,0.0
13.975,0,0,0,3,-1,-2,0,2,0.0
13.98,0,-1,0,0,1,-2,0,-1,0.0
13.985,-2,-1,-3,0,-1,-2,2,-2,0.0
13.99,0,-1,-1,4,-2,-1,-1,1,0.0
13.995000000000001,-2,-2,-2,-4,-1,0,-3,-3,0.0
14.0,-1,-2,-2,-5,-2,-2,0,-1,0.0
14.005,-2,0,-1,3,1,0,-1,-2,0.0
14.01,-1,-1,-2,-1,-1,-1,-1,0,0.0
14.015,-3,-5,-3,-5,-3,0,-3,-2,0.0
14.02,1,0,-2,0,2,0,-1,0,0.0
14.025,0,-2,-4,2,-4,-2,-2,-2,0.0
14.030000000000001,-2,-3,-2,-12,-4,-3,-1,-2,0.0
14.035,-1,2,0,4,-2,1,0,-2,0.0
14.040000000000001,-1,-4,0,-3,-1,-1,0,0,0.0
14.045,0,2,3,-4,-4,-2,0,1,0.0
14.05,-2,-2,-1,1,0,-2,-3,-2,0.0
14.055,0,0,-2,-3,-2,-2,0,-1,0.0
14.06,0,0,1,-1,-4,-2,0,-1,0.0
14.065,-1,0,-3,-3,1,0,-1,-2,0.0
14.07,0,-3,-1,0,2,0,-2,-4,0.0
14.075000000000001,-1,-1,-2,-1,-2,-1,-1,-1,0.0
14.08,-2,1,0,0,0,-3,-3,0,0.0
14.085,0,-3,-2,-8,-6,-2,-2,0,0.0
14.09,-1,-4,-1,8,2,0,-1,0,0.0
14.095,-2,-4,-5,-17,-2,-2,-1,-2,0.0
14.1,-1,0,1,9,-1,2,1,-1,0.0
14.105,-1,-1,-1,-2,3,-3,-2,-1,0.0
14.11,1,0,-1,6,4,0,-2,0,0.0
14.115,-2,-1,1,-3,2,-1,-1,-1,0.0
14.120000000000001,0,-3,-4,0,-2,0,-2,-2,0.0
14.125,-2,-2,-5,-6,4,1,-2,0,0.0
14.13,-2,-1,2,-2,-4,0,-1,-1,0.0
14.135,1,-3,3,0,-2,-1,0,0,0.0
14.14,-1,-5,1,0,-1,-3,-1,-1,0.0
14.145,-2,-2,-2,5,-1,-1,-1,0,0.0
14.15,-1,-4,-3,-7,-1,-1,1,-2,0.0
14.155000000000001,0,-3,-2,-1,1,0,-1,-2,0.0
14.16,-1,-3,0,-3,-2,-2,-1,-1,0.0
14.165000000000001,-2,-2,0,0,-3,-1,0,-1,0.0
14.17,0,-2,-1,-4,-4,-4,0,1,0.0
14.175,1,-5,-1,0,-1,-2,-3,-1,0.0
14.18,-2,-1,-1,0,1,-2,-3,-1,0.0
14.185,0,1,0,-1,1,-1,-2,-2,0.0
14.19,-1,0,0,-2,0,-1,-3,0,0.0
14.195,-1,-2,-1,0,-1,0,-1,-1,0.0
14.200000000000001,0,-2,1,-2,-6,0,-1,-2,0.0
14.205,-1,-3,-1,3,3,0,-1,-3,0.0
14.21,-3,-1,0,0,-3,0,0,-1,0.0
14.215,-2,-1,-3,-14,1,-1,0,-3,0.0
14.22,0,-2,-2,2,3,0,-3,-1,0.0
14.225,-1,0,0,-1,2,-2,1,1,0.0
14.23,0,-4,-2,-3,-2,-3,-3,-3,0.0
14.235,-1,1,0,6,0,-3,0,1,0.0
14.24,-1,0,-2,-5,-3,0,-1,-1,0.0
14.245000000000001,-1,-2,-2,-11,-4,1,-3,-1,0.0
14.25,-1,-1,0,8,5,-2,0,0,0.0
14.255,0,0,-1,2,1,0,1,0,0.0
14.26,-2,-2,-3,-3,2,0,-1,-3,0.0
14.265,-2,-1,-2,6,-2,-1,-2,-2,0.0
14.27,-1,-1,-2,-6,-1,-2,-1,-2,0.0
14.275,0,1,1,-2,-1,0,-1,-2,0.0
14.280000000000001,-1,-1,0,2,-2,-1,0,-2,0.0
14.285,-1,-1,0,-5,-4,-4,-1,-2,0.0
14.290000000000001,-2,-1,-1,-1,-3,-2,-2,0,0.0
14.295,0,1,-4,0,0,2,-1,0,0.0
14.3,0,-2,-2,0,1,-3,-1,-3,0.0
14.305,-2,2,1,5,-3,-2,0,-3,0.0
14.31,-1,-3,-2,-9,-2,0,-1,-1,0.0
14.315,-1,0,1,7,0,-4,-2,-2,0.0
14.32,-2,-1,-1,0,-1,-1,-1,0,0.0
14.325000000000001,0,-2,-2,-4,1,-1,-2,-3,0.0
14.33,0,-2,1,7,4,-1,0,-1,0.0
14.335,0,-3,-2,-10,2,0,1,0,0.0
14.34,0,-2,-3,1,-2,-1,-2,0,0.0
14.345,2,-1,-3,0,-3,-2,-2,-1,0.0
14.35,-1,0,-3,0,-7,-3,-2,0,0.0
14.355,-1,-1,-2,-3,2,-1,-1,-1,0.0
14.36,-1,-2,1,1,-1,-1,-2,0,0.0
14.365,-2,-2,-1,-3,2,-1,-1,1,0.0
14.370000000000001,-1,-1,1,2,-2,1,-1,-2,0.0
14.375,-1,-2,0,2,0,-4,-2,-1,0.0
14.38,0,0,-1,-5,3,-1,-3,-3,0.0
14.385,-1,0,-1,4,-2,-1,-2,-2,0.0
14.39,0,-4,-1,-4,-1,-1,0,-1,0.0
14.395,-2,-2,0,0,-5,-2,-1,-1,0.0
14.4,-1,-2,-2,0,2,-2,-1,0,0.0
14.405000000000001,1,-2,-1,-3,-1,-1,-2,-1,0.0
14.41,-2,0,-1,8,0,-2,-2,-2,0.0
14.415000000000001,-3,-1,-2,-19,-3,-3,2,-1,0.0
14.42,-1,-2,1,1,-4,-1,0,-2,0.0
14.425,-1,-3,0,0,1,-1,0,-2,0.0
14.43,1,-2,0,4,0,1,-1,1,0.0
14.435,-1,0,-2,2,-2,1,-2,-1,0.0
14.44,-2,-3,-1,2,5,0,-1,0,0.0
14.445,-2,-3,0,-1,-5,-1,-1,-1,0.0
14.450000000000001,-1,0,-1,-7,-2,-1,-2,-1,0.0
14.455,-1,-2,-1,7,0,0,-1,0,0.0
14.46,-3,0,0,-12,-3,-3,-3,-1,0.0
14.465,0,-2,-2,12,4,-1,0,0,0.0
14.47,-3,-3,0,-4,-2,-2,-1,-2,0.0
14.475,-2,2,-3,-5,0,0,0,-1,0.0
14.48,1,-2,0,8,-2,0,-1,-3,0.0
14.485,0,-5,-2,-13,-3,-4,-2,-2,0.0
14.49,0,1,-1,4,-1,-2,-2,-2,0.0
14.495000000000001,-1,-5,-2,12,9,-1,0,-1,0.0
14.5,0,-2,-5,-17,-4,-2,-1,0,0.0
14.505,-1,-1,3,7,-1,1,0,1,0.0
14.51,-2,-1,-2,-7,-1,-1,-3,-1,0.0
14.515,0,-1,1,7,3,-1,-4,-2,0.0
14.52,-1,-1,-4,-2,-3,-1,-1,1,0.0
14.525,-2,1,-3,-5,-3,-1,0,0,0.0
14.530000000000001,-1,-3,1,-2,1,-1,1,-1,0.0
14.535,0,-4,0,5,-3,-3,-2,-1,0.0
14.540000000000001,-2,-4,-3,-6,1,0,0,0,0.0
14.545,-2,0,-3,-7,2,-1,-2,0,0.0
14.55,-1,-1,-1,-2,-2,-2,-1,-2,0.0
14.555,-1,0,1,-5,-1,-2,-2,0,0.0
14.56,1,-2,0,5,-2,0,-1,-3,0.0
14.565,0,-4,-2,1,-2,0,-2,-3,0.0
14.57,0,2,-4,-8,-2,-1,1,-1,0.0
14.575000000000001,-1,0,0,8,-2,-2,-2,-1,0.0
14.58,-2,-2,-3,-6,-4,-4,-2,-2,0.0
14.585,-2,-1,1,-1,-1,-3,-1,0,0.0
14.59,1,-1,-2,-4,-1,-2,-2,-3,0.0
14.595,0,1,1,3,1,0,1,0,0.0
14.6,-2,1,-2,0,0,-1,-1,-1,0.0
14.605,2,-3,2,4,-2,-1,-1,-1,0.0
14.61,-1,-3,-4,-6,-2,-2,-2,0,0.0
14.615,-2,0,-3,-8,-1,-1,-2,-3,0.0
14.620000000000001,0,3,2,-8,-6,-4,-2,-4,0.0
14.625,-2,0,-3,-1,1,0,-2,0,0.0
14.63,-1,1,1,1,2,0,-1,-2,0.0
14.635,-2,-1,-2,-8,-4,-3,-1,-1,0.0
14.64,-1,1,-1,3,2,1,-2,0,0.0
14.645,0,-1,-2,-2,0,0,0,-2,0.0
14.65,0,-3,-2,0,-2,-1,0,0,0.0
14.655000000000001,-1,-2,-3,-4,-3,-2,-3,-1,0.0
14.66,-1,-1,0,5,0,0,2,-1,0.0
14.665000000000001,-1,-1,-1,2,-2,-1,0,-1,0.0
14.67,-1,-2,1,1,1,-3,-1,-1,0.0
14.675,-1,-2,-2,2,-5,-1,-1,-2,0.0
14.68,-1,-2,2,6,2,-1,-2,-2,0.0
14.685,-2,1,-2,-2,0,1,-1,-1,0.0
14.69,-1,0,-1,6,1,-1,0,-2,0.0
14.695,1,-3,-1,-5,-6,-1,-2,-2,0.0
14.700000000000001,-1,-3,-1,9,3,1,-2,-2,0.0
14.705,-3,2,-1,-5,-2,-3,-2,-1,0.0
14.71,-1,-1,0,8,-1,-1,-1,-2,0.0
14.715,-2,-3,-1,-11,1,-1,-1,-1,0.0
14.72,0,-3,-2,0,0,-2,-1,0,0.0
14.725,0,-3,-1,-4,-5,-3,-1,-1,0.0
14.73,-1,-1,-4,2,2,0,0,0,0.0
14.735,-3,-1,0,6,-3,-1,2,0,0.0
14.74,-3,-4,-4,-7,2,1,-2,0,0.0
14.745000000000001,0,-3,0,3,-2,0,-1,-1,0.0
14.75,-2,1,-3,-2,-1,-3,0,-3,0.0
14.755,0,0,-2,7,2,-1,-2,-1,0.0
14.76,-1,-1,-1,-17,-5,-2,-2,0,0.0
14.765,-2,-1,0,8,3,-1,-1,-1,0.0
14.77,-1,-2,-3,-7,-2,-1,0,0,0.0
14.775,-1,-1,-4,-1,0,-1,-1,-1,0.0
14.780000000000001,-3,0,0,6,1,0,0,-1,0.0
14.785,-2,-2,1,-7,1,-3,-2,-2,0.0
14.790000000000001,1,-3,0,-14,-4,-1,-2,-1,0.0
14.795,0,-1,3,-4,2,-1,0,0,0.0
14.8,-1,-3,-1,3,-2,0,-1,0,0.0
14.805,-2,-3,-3,-6,-3,-4,0,-3,0.0
14.81,-1,0,-1,4,5,1,0,-2,0.0
14.815,-1,-3,-3,-4,-1,-1,-1,-2,0.0
14.82,1,3,0,4,-1,0,0,-1,0.0
14.825000000000001,-1,-3,-1,-4,1,-1,-1,-1,0.0
14.83,-1,0,-1,-5,-5,0,0,-3,0.0
14.835,-2,-1,-1,0,-1,-2,-1,0,0.0
14.84,-1,-4,-2,0,1,-4,-3,-2,0.0
14.845,-1,2,-2,-5,-1,0,-2,-1,0.0
14.85,1,-3,-1,-1,-3,-2,0,-2,0.0
14.855,1,-3,0,-5,0,-1,-1,-2,0.0
14.86,-2,-1,-3,0,-3,-3,-1,-4,0.0
14.865,-1,0,-1,-4,1,-1,-1,-1,0.0
14.870000000000001,-1,-2,0,3,-1,-3,-2,0,0.0
14.875,-1,-1,0,-5,-1,-1,1,1,0.0
14.88,-1,-3,0,8,0,2,-1,0,0.0
14.885,-1,-3,-4,-5,1,-2,-1,-2,0.0
14.89,0,-1,1,0,-5,0,-2,-1,0.0
14.895,-2,-2,0,4,-1,-2,-3,-1,0.0
14.9,0,-3,0,-4,-2,0,-1,-3,0.0
14.905000000000001,0,-2,-3,-3,-3,-1,-1,-1,0.0
14.91,-1,-2,1,1,2,-2,-1,0,0.0
14.915000000000001,-2,-3,-1,-1,2,1,1,-1,0.0
14.92,-1,0,-1,-5,0,-1,-1,0,0.0
14.925,-1,2,-2,0,0,-1,-1,-1,0.0
14.93,0,-4,-1,-9,-1,-3,-1,-2,0.0
14.935,-3,0,-1,3,-2,1,-1,-1,0.0
14.94,-1,-4,-3,-8,-2,-1,-1,-2,0.0
14.945,-1,-3,1,1,1,-2,-1,-1,0.0
14.950000000000001,-3,1,-1,6,3,1,-2,-2,0.0
14.955,-2,-1,-1,-2,-3,0,-3,0,0.0
14.96,-1,-2,-1,2,-5,-2,0,0,0.0
14.965,-2,0,-2,1,0,0,-1,0,0.0
14.97,-1,0,-2,-1,-2,0,0,-2,0.0
14.975,-1,-1,-2,0,0,-1,1,-2,0.0
14.98,-1,0,2,2,-5,-2,-1,-2,0.0
14.985,0,-2,-2,1,2,2,0,0,0.0
14.99,-2,-4,0,2,-2,-2,-3,1,0.0
14.995000000000001,-1,2,-3,0,-4,-4,-2,-1,0.0
15.0,-2,1,0,0,0,0,0,-1,0.0
15.005,-1,-1,1,-3,-1,-2,-2,-1,0.0
15.01,-1,-1,-2,7,5,1,0,-2,0.0
15.015,-1,-3,-3,-15,-3,0,0,-1,0.0
15.02,0,-2,-4,-6,1,-1,-3,-3,0.0
15.025,0,0,0,-4,-3,-1,-2,-1,0.0
15.030000000000001,-2,1,12,-2,-3,0,-2,1,0.0
15.035,-3,-6,-10,-5,-1,-2,-1,-2,0.0
15.040000000000001,0,0,-1,4,-1,-1,-1,-1,0.0
15.045,-2,-9,-51,-6,-3,-1,-2,-3,0.0
15.05,0,4,21,13,-1,0,0,-2,0.0
15.055,1,-3,-26,-33,-5,1,0,-1,0.0
15.06,4,-3,21,10,7,-1,-1,1,0.0
15.065,1,5,35,9,4,1,1,1,0.0
15.07,-4,0,7,8,-5,-6,-3,-5,0.0
15.075000000000001,-2,-5,-27,-10,4,2,0,-2,0.0
15.08,-3,-1,4,-10,-2,-6,-1,-2,0.0
15.085,0,-5,-11,8,-1,1,0,0,0.0
15.09,-1,-2,-3,-1,1,2,0,-1,0.0
15.095,1,-1,23,-5,-1,1,0,3,0.0
15.1,2,1,-30,-2,0,3,0,-1,0.0
15.105,-7,-5,-46,19,0,-5,-6,-3,0.0
15.11,-1,4,49,9,-6,-4,0,-2,0.0
15.115,3,0,-82,-26,2,3,0,3,0.0
15.120000000000001,0,-5,26,-21,2,-3,6,6,0.0
15.125,-7,-3,15,16,-17,-15,-7,-14,0.0
15.13,4,5,-10,-42,1,8,2,2,0.0
15.135,-7,-3,25,78,3,-8,-5,-5,0.0
15.14,1,-3,-45,-40,-1,3,3,-7,0.0
15.145,3,1,49,-35,1,4,3,4,0.0
15.15,2,7,-27,65,12,2,1,4,0.0
15.155000000000001,-4,-13,-10,-68,-4,0,0,-1,0.0
15.16,-2,0,-13,76,-2,-1,-2,2,0.0
15.165000000000001,-6,-7,1,-18,-9,-7,-7,-5,0.0
15.17,2,3,8,-1,4,1,1,-2,0.0
15.175,5,9,-8,9,7,5,2,2,0.0
15.18,-4,-9,20,8,-1,-3,-2,-3,0.0
15.185,6,2,2,-30,-4,3,2,5,0.0
15.19,-3,-6,-17,5,9,2,0,2,0.0
15.195,-1,1,21,18,-1,-5,-4,-3,0.0
15.200000000000001,0,-4,-1,-47,-12,-2,0,1,0.0
15.205,-10,-8,-42,73,7,-7,-6,-8,0.0
15.21,2,-6,-35,-36,-4,3,2,-1,0.0
15.215,5,5,-5,-48,-31,-6,-1,4,0.0
15.22,-10,-27,-72,59,38,-5,-7,-10,0.0
15.225,8,9,44,50,3,6,2,4,0.0
15.23,-3,-2,37,12,2,-7,-5,-7,0.0
15.235,-13,-12,-88,37,-9,-8,-11,-12,0.0
15.24,2,-3,-15,40,6,4,3,4,0.0
15.245000000000001,-8,-15,-97,-3,-7,-13,-7,-7,0.0
15.25,-3,-6,107,14,0,1,-2,-4,0.0
15.255,-3,5,-7,-43,-6,-5,-1,-4,0.0
15.26,4,16,47,-20,-1,4,2,6,0.0
15.265,-3,-5,29,74,7,-5,-5,-5,0.0
15.27,-2,-9,-18,-14,-11,-4,-3,-2,0.0
15.275,-2,-10,1,-13,1,1,2,6,0.0
15.280000000000001,-3,10,-20,16,-3,-4,-4,-6,0.0
15.285,2,8,-40,9,6,2,2,-2,0.0
15.290000000000001,4,-15,-13,-54,-13,-1,-2,1,0.0
15.295,-4,5,-21,69,18,-1,1,-2,0.0
15.3,-3,-10,-3,-39,-12,-2,-1,-2,0.0
15.305,0,19,88,57,10,-1,-2,-1,0.0
15.31,1,-7,10,-14,-14,-1,0,-2,0.0
15.315,-1,-21,-82,-57,2,2,1,3,0.0
15.32,0,26,-7,20,17,-1,-3,0,0.0
15.325000000000001,-8,-23,-51,-55,-6,-2,-4,-4,0.0
15.33,3,2,-3,6,2,3,2,2,0.0
15.335,-2,-8,-30,-40,-14,-7,-2,-5,0.0
15.34,5,10,47,-16,11,4,0,9,0.0
15.345,-3,-21,-15,-28,-17,-4,-1,0,0.0
15.35,0,4,-5,10,8,1,-2,0,0.0
15.355,8,4,17,6,-2,5,2,4,0.0
15.36,-6,9,-36,-16,-5,-6,-2,-4,0.0
15.365,-1,2,-19,-15,3,1,-1,1,0.0
15.370000000000001,3,8,36,1,2,3,0,2,0.0
15.375,-10,-17,-48,27,-3,-7,-6,-5,0.0
15.38,3,5,38,0,-1,5,4,2,0.0
15.385,-3,-4,-6,-40,-2,-5,-3,-3,0.0
15.39,-8,0,-27,27,6,-5,-1,-3,0.0
15.395,3,4,21,5,-2,-1,-1,-1,0.0
15.4,-1,-12,6,-11,-15,-1,-1,-1,0.0
15.405000000000001,5,14,53,38,8,5,0,0,0.0
15.41,3,0,46,-14,4,0,2,1,0.0
15.415000000000001,-1,0,-30,-18,-6,-6,-2,-1,0.0
15.42,-8,-9,0,-5,0,-2,-2,-4,0.0
15.425,1,-4,14,-6,-1,2,3,2,0.0
15.43,-1,1,-20,7,-1,-2,-1,-2,0.0
15.435,7,5,51,-2,9,7,3,2,0.0
15.44,-3,-7,-56,-31,-8,-5,-4,-3,0.0
15.445,0,4,-5,-1,3,-2,-1,1,0.0
15.450000000000001,-3,-7,-13,-8,1,-3,-1,-2,0.0
15.455,-1,-3,10,-11,-1,0,-1,0,0.0
15.46,-3,-2,22,16,-2,-1,-3,-4,0.0
15.465,0,1,-3,-19,-1,-2,-2,-3,0.0
15.47,-4,-3,-13,1,-5,0,-3,-2,0.0
15.475,2,5,28,10,1,-1,0,0,0.0
15.48,-3,-8,5,21,-3,-2,1,-2,0.0
15.485000000000001,2,3,-7,3,-2,0,2,1,0.0
15.49,-5,-3,8,9,-4,-4,-2,-2,0.0
15.495000000000001,0,1,11,3,3,2,1,2,0.0
15.5,-2,-7,6,2,-4,-2,-3,-3,0.0
15.505,-1,0,-9,3,6,0,-1,-2,0.0
15.51,1,0,4,-9,-3,-2,-2,-1,0.0
15.515,-1,2,6,4,-7,-5,-2,1,0.0
15.52,-2,-6,1,7,10,1,0,1,0.0
15.525,-1,-1,5,3,-4,1,1,-2,0.0
15.530000000000001,-2,-4,-9,-9,-5,-2,-1,-2,0.0
15.535,0,-1,2,-3,-4,1,-4,0,0.0
15.540000000000001,0,-2,4,-3,-3,-3,1,-3,0.0
15.545,1,0,-2,11,2,0,0,0,0.0
15.55,-1,3,0,4,0,1,1,1,0.0
15.555,-3,-7,-6,-16,-9,-5,-2,-2,0.0
15.56,-4,1,3,14,11,-1,0,-1,0.0
15.565,1,-2,3,3,1,1,-1,-1,0.0
15.57,1,-1,-9,-2,-7,-3,-2,-2,0.0
15.575000000000001,1,1,10,0,3,0,1,-1,0.0
15.58,-3,-2,1,-2,-10,-3,-4,-4,0.0
15.585,0,2,1,5,0,-2,0,1,0.0
15.59,-2,0,-4,-1,7,0,-3,0,0.0
15.595,-1,4,0,3,-4,-1,0,1,0.0
15.6,0,0,0,-7,-3,-3,-3,-2,0.0
15.605,-2,-6,-4,-3,-3,-1,-2,-2,0.0
15.610000000000001,-2,-2,1,0,-4,-1,1,0,0.0
15.615,0,0,-2,6,3,0,0,-1,0.0
15.620000000000001,-1,-5,-2,-1,-7,-1,-2,-3,0.0
15.625,-1,1,2,-8,1,1,0,0,0.0
15.63,-2,-1,-3,6,-1,-1,0,-2,0.0
15.635,-2,-1,1,21,2,-3,-3,-3,0.0
15.64,0,-5,-3,-43,1,2,1,2,0.0
15.645,0,-4,-1,5,-6,-1,0,-2,0.0
15.65,-3,-2,-4,-11,-3,-2,-2,-1,0.0
15.655000000000001,0,4,5,8,1,0,3,3,0.0
15.66,-3,-1,-2,4,-2,-4,-4,-2,0.0
15.665000000000001,-2,2,-2,-3,1,-1,-3,0,0.0
15.67,-2,-3,0,-5,-3,-1,-1,-4,0.0
15.675,-2,-2,1,-7,2,-1,0,-4,0.0
15.68,0,0,1,6,-3,-1,-2,0,0.0
15.685,-1,0,-4,-8,-1,-1,-3,-1,0.0
15.69,-1,-3,-1,3,0,-1,0,0,0.0
15.695,0,0,0,-2,-1,-1,-2,-1,0.0
15.700000000000001,-1,-4,1,-3,-4,-4,-2,-3,0.0
15.705,-1,1,0,9,0,0,-2,-2,0.0
15.71,0,-2,-1,-5,-2,-2,-2,-2,0.0
15.715,1,2,-2,-8,2,0,-2,-1,0.0
15.72,-1,-3,-2,3,-3,-2,0,-2,0.0
15.725,0,-3,-2,-5,-1,-1,-1,2,0.0
15.73,-2,0,-2,1,1,-3,-2,1,0.0
15.735000000000001,-2,-1,-2,-12,-3,0,-3,-2,0.0
15.74,-1,0,2,13,3,-2,-1,0,0.0
15.745000000000001,-2,1,-1,-2,-1,-2,-2,-3,0.0
15.75,-2,-7,-3,-5,-4,-1,-2,-4,0.0
15.755,-2,-5,0,-8,-2,-1,-1,0,0.0
15.76,0,-1,1,3,1,-1,-1,2,0.0
15.765,-2,-4,0,-1,-2,-3,-1,-1,0.0
15.77,-1,0,-2,-6,1,-1,-1,-2,0.0
15.775,0,-4,-3,-5,-4,-1,0,-1,0.0
15.780000000000001,-2,0,2,4,-6,-2,1,-2,0.0
15.785,-2,-3,0,6,4,-1,-1,2,0.0
15.790000000000001,2,-1,-1,-15,1,-1,-1,2,0.0
15.795,0,0,-1,1,2,-3,-2,-3,0.0
15.8,-1,3,0,-1,2,-1,-1,0,0.0
15.805,-1,-3,-3,-2,-1,-2,0,-2,0.0
15.81,-1,3,-1,2,-2,1,0,-1,0.0
15.815,-1,0,-2,2,0,0,-1,0,0.0
15.82,1,-3,-3,-25,-3,-2,-1,-2,0.0
15.825000000000001,-1,3,1,24,2,-2,0,-2,0.0
15.83,0,-5,-1,-14,-2,1,-4,0,0.0
15.835,0,-1,0,6,3,1,2,0,0.0
15.84,-3,-1,1,-1,-4,-1,-2,-2,0.0
15.845,0,-3,-3,-3,0,-2,0,-2,0.0
15.85,0,-1,0,4,1,-1,-1,-1,0.0
15.855,-1,-2,4,4,2,-2,-2,-3,0.0
15.860000000000001,-1,-2,-2,5,0,-3,-1,-1,0.0
15.865,-2,1,-1,-8,-1,2,0,1,0.0
15.870000000000001,0,-6,-1,6,-2,-1,-3,0,0.0
15.875,-2,-4,-2,-4,-3,-2,0,-3,0.0
15.88,0,1,-2,-3,0,0,0,-1,0.0
15.885,-2,0,-5,-7,-7,-3,-1,-2,0.0
15.89,-1,-3,0,8,4,0,0,-1,0.0
15.895,0,2,0,-2,-2,-1,1,0,0.0
15.9,-1,-5,-2,1,1,-1,1,-3,0.0
15.905000000000001,-2,0,2,2,-3,0,0,-2,0.0
15.91,-1,0,-2,-10,-1,-2,-2,-1,0.0
15.915000000000001,-1,-2,-2,-6,-5,-1,-1,-1,0.0
15.92,-1,-1,-1,9,3,0,-3,-1,0.0
15.925,1,0,-3,-19,-1,-1,-3,0,0.0
15.93,-1,3,-1,4,-3,-2,2,0,0.0
15.935,-2,-3,-3,-7,0,0,-1,-1,0.0
15.94,-2,1,1,-1,-2,-2,-3,-2,0.0
15.945,-1,0,-3,2,-1,0,-3,-2,0.0
15.950000000000001,-3,-3,-1,5,-1,-2,-3,-3,0.0
15.955,0,7,87,-1,1,-3,-3,-4,0.0
15.96,-6,-16,-71,5,-4,-3,-2,-1,0.0
15.965,4,14,58,19,-2,3,2,-2,0.0
15.97,-6,-11,-18,-14,3,-7,-4,-5,0.0
15.975,2,3,-35,3,12,5,3,2,0.0
15.98,-2,2,-8,1,-10,-9,-6,-5,0.0
15.985000000000001,-5,14,77,64,-10,-6,-2,-2,0.0
15.99,0,2,-20,-32,4,0,-1,-2,0.0
15.995000000000001,-3,-7,-8,-3,-4,-3,-3,-5,0.0
16.0,5,15,11,46,16,7,2,4,0.0
16.005,-9,-19,69,-2,-23,-8,-3,-8,0.0
16.01,0,17,44,27,3,-1,2,1,0.0
16.015,-4,-4,-52,-5,5,0,1,-1,0.0
16.02,1,-3,-35,-24,-8,-4,-4,-1,0.0
16.025,-3,-12,-103,-14,-3,2,2,0,0.0
16.03,2,8,16,13,8,-1,-1,1,0.0
16.035,-3,-21,-30,-4,10,2,-1,-5,0.0
16.04,-5,8,53,-1,-2,-3,-2,-1,0.0
16.045,1,-3,-60,-39,-6,-2,-2,0,0.0
16.05,-2,0,30,46,-4,-1,-4,-3,0.0
16.055,7,2,-31,-53,0,6,4,8,0.0
16.06,-1,2,77,44,-7,-5,0,-2,0.0
16.065,-2,-18,5,-7,25,4,2,-4,0.0
16.07,-3,-5,40,18,-2,2,-1,-1,0.0
16.075,-1,29,-29,19,-8,-4,-4,-1,0.0
16.080000000000002,1,-12,29,-79,-2,4,2,3,0.0
16.085,-8,11,24,5,4,-7,-6,-4,0.0
16.09,-4,-37,-116,-24,-12,-4,1,-3,0.0
16.095,2,10,57,-14,-9,-3,0,0,0.0
16.1,2,-3,-40,-23,2,2,-1,5,0.0
16.105,0,-3,-33,-4,-1,-2,-2,0,0.0
16.11,2,8,14,34,-9,-2,-3,1,0.0
16.115000000000002,-9,-23,48,50,5,-8,-5,-5,0.0
16.12,-3,14,-36,-41,-20,-5,-2,-5,0.0
16.125,5,11,2,-1,36,10,2,6,0.0
16.13,2,-9,-64,-17,3,4,2,2,0.0
16.135,-13,-24,49,-83,-37,-12,-2,-5,0.0
16.14,3,3,59,59,26,7,2,1,0.0
16.145,-7,-25,-46,4,-8,-6,-4,-4,0.0
16.15,8,21,18,-10,-3,0,2,3,0.0
16.155,0,-11,-52,24,6,2,0,0,0.0
16.16,-10,-12,-12,-72,-20,-12,-6,-8,0.0
16.165,2,21,0,12,3,1,0,-3,0.0
16.17,-4,-14,2,-7,-4,-3,-2,-2,0.0
16.175,0,-4,-46,15,4,-1,-2,-2,0.0
16.18,-7,-22,-41,23,1,-1,-4,-5,0.0
16.185,8,14,28,19,3,1,0,4,0.0
16.19,-6,-4,-7,-24,-9,-5,-1,-6,0.0
16.195,0,2,15,10,-3,-3,-2,3,0.0
16.2,-1,-7,-70,-36,6,2,2,-4,0.0
16.205000000000002,1,-1,5,-8,-13,-4,-2,-1,0.0
16.21,-3,-12,-1,22,20,4,0,-2,0.0
16.215,3,11,-15,-43,-12,-2,-3,-2,0.0
16.22,-7,-21,-25,49,-5,-7,-5,-5,0.0
16.225,2,-10,16,-9,-12,-1,2,1,0.0
16.23,-1,9,22,-7,-5,-4,-2,-1,0.0
16.235,2,7,0,19,11,2,-1,0,0.0
16.240000000000002,-1,2,1,4,2,4,2,3,0.0
16.245,5,2,0,-38,3,3,1,3,0.0
16.25,-11,-9,45,40,-8,-13,-9,-8,0.0
16.255,-5,-14,-12,2,-3,-2,-1,-4,0.0
16.26,3,12,-4,-3,-1,-1,1,1,0.0
16.265,-1,-6,48,-6,2,1,2,2,0.0
16.27,3,-1,-85,-13,3,3,0,0,0.0
16.275,-3,17,55,-6,-12,-5,-2,-6,0.0
16.28,0,-2,19,6,6,0,0,-1,0.0
16.285,3,0,55,10,1,0,-1,1,0.0
16.29,-4,-2,-22,-1,-9,-3,0,0,0.0
16.295,-1,0,-21,-19,4,0,3,2,0.0
16.3,-1,4,25,28,-3,-1,0,-1,0.0
16.305,0,-3,-7,-22,0,-2,0,0,0.0
16.31,2,2,39,29,5,2,-1,1,0.0
16.315,-3,-8,-20,-12,-14,-4,-5,-6,0.0
16.32,2,1,-52,-19,6,-2,0,7,0.0
16.325,-3,-1,64,8,-14,-5,-4,-4,0.0
16.330000000000002,1,2,-25,-16,-7,-1,1,-1,0.0
16.335,-5,-6,-25,-27,-9,-6,-4,-3,0.0
16.34,3,0,34,7,-13,2,0,2,0.0
16.345,2,12,-28,-7,34,7,5,5,0.0
16.35,-6,-23,26,10,-9,-7,-6,-7,0.0
16.355,-9,-28,-16,62,7,-6,-5,-6,0.0
16.36,4,24,63,-34,-18,-3,-2,0,0.0
16.365000000000002,-8,-21,26,-37,-5,-7,-6,-2,0.0
16.37,4,2,63,44,75,21,5,4,0.0
16.375,-3,-2,-69,-54,-13,-3,-1,-3,0.0
16.38,-12,-15,-16,-7,-13,-4,-3,-6,0.0
16.385,1,25,72,43,-18,-6,-5,-3,0.0
16.39,12,24,89,-92,-3,5,3,3,0.0
16.395,-10,-29,-85,-34,-5,-8,-4,-3,0.0
16.4,5,10,122,65,-1,4,1,4,0.0
16.405,-5,-13,-53,-73,-21,-3,0,-4,0.0
16.41,-9,-14,37,87,10,-3,-6,-6,0.0
16.415,9,20,-28,5,-8,6,1,2,0.0
16.42,0,-4,-56,-36,-9,-4,-4,1,0.0
16.425,4,10,32,48,20,6,3,2,0.0
16.43,-3,-6,-51,-32,4,-4,-2,-3,0.0
16.435,3,5,108,50,-7,5,3,0,0.0
16.44,-8,-21,-66,13,7,-6,-2,1,0.0
16.445,-2,-12,14,19,27,5,0,-3,0.0
16.45,0,-17,-34,-12,-27,-5,-3,-2,0.0
16.455000000000002,3,14,38,0,-26,-1,3,4,0.0
16.46,7,7,-59,3,42,13,5,5,0.0
16.465,-12,-32,12,13,-9,-12,-9,-10,0.0
16.47,-2,1,-49,-35,-12,-3,-1,-1,0.0
16.475,-4,-11,35,13,-15,-5,-3,-4,0.0
16.48,-1,-4,31,19,-7,0,1,1,0.0
16.485,2,-6,-31,-9,3,2,-1,1,0.0
16.490000000000002,-1,-3,19,27,6,-2,-1,-3,0.0
16.495,3,10,-18,-6,12,4,1,2,0.0
16.5,-1,-17,-85,4,3,-4,-3,-2,0.0
16.505,5,25,28,-47,1,4,4,2,0.0
16.51,-4,4,71,18,-30,-8,-6,-4,0.0
16.515,1,3,5,34,51,8,2,3,0.0
16.52,-6,-15,22,-31,-13,-2,-2,-5,0.0
16.525,-4,1,20,5,-8,-3,-3,-3,0.0
16.53,6,9,-9,-16,-15,3,2,2,0.0
16.535,-6,-16,-34,30,3,-1,-5,-3,0.0
16.54,6,26,47,-45,-23,-4,2,2,0.0
16.545,5,23,110,50,8,4,2,3,0.0
16.55,-9,-43,-82,-72,25,-2,-3,-5,0.0
16.555,-2,0,-35,-22,-37,-7,-2,-1,0.0
16.56,-9,-1,-25,0,8,-9,-7,-8,0.0
16.565,0,10,22,4,23,-1,-1,-4,0.0
16.57,1,-3,-26,12,-9,1,0,-2,0.0
16.575,5,13,28,-14,-8,1,2,3,0.0
16.580000000000002,2,-7,40,-1,2,2,1,1,0.0
16.585,5,7,47,10,-19,-1,1,3,0.0
16.59,3,38,97,31,10,1,1,-1,0.0
16.595,-16,-62,-9,23,23,1,0,-1,0.0
16.6,5,18,90,2,-34,-1,1,2,0.0
16.605,-16,-61,-113,6,33,-3,-7,-6,0.0
16.61,7,23,79,23,4,2,-4,3,0.0
16.615000000000002,-6,9,-49,-79,-21,-5,-2,-5,0.0
16.62,5,-20,-18,-8,-4,1,2,6,0.0
16.625,-6,0,-1,40,33,5,-1,-2,0.0
16.63,-11,-32,-92,-48,-19,-14,-11,-9,0.0
16.635,11,41,13,-8,-15,4,1,4,0.0
16.64,-13,-52,-105,-66,-2,-9,-3,-8,0.0
16.645,-3,-2,121,21,-7,2,1,3,0.0
16.65,-7,17,-8,-40,-16,-8,-2,-4,0.0
16.655,12,22,-23,15,-7,1,0,3,0.0
16.66,-5,-13,-115,-16,53,7,-1,-2,0.0
16.665,2,1,56,-50,-36,-10,-6,-2,0.0
16.67,1,-12,-96,89,18,0,-1,1,0.0
16.675,0,-43,18,49,-3,-1,1,2,0.0
16.68,-2,-8,22,-43,-18,-1,1,-1,0.0
16.685,10,47,-13,-6,-11,0,3,3,0.0
16.69,-5,-13,-58,-3,1,-10,-6,-3,0.0
16.695,1,21,-8,30,20,7,1,0,0.0
16.7,4,34,-12,-13,-11,-1,0,1,0.0
16.705000000000002,-12,8,-28,-55,-12,-7,-3,-8,0.0
16.71,-1,-11,72,43,14,2,0,1,0.0
16.715,-7,-30,-49,-61,-24,-9,-4,-8,0.0
16.72,4,-5,-27,-13,-4,-3,-3,-1,0.0
16.725,-1,-18,-70,51,24,4,1,-1,0.0
16.73,1,19,43,-31,6,3,-1,-2,0.0
16.735,3,11,4,6,17,6,2,2,0.0
16.740000000000002,-1,-19,-10,-26,-6,-4,-3,-1,0.0
16.745,5,-3,-71,-14,-1,1,0,1,0.0
16.75,-6,-6,25,50,-20,-7,-4,-2,0.0
16.755,4,22,-1,53,31,3,0,1,0.0
16.76,-3,-11,17,-10,-3,-1,-2,-1,0.0
16.765,3,2,44,5,5,0,-1,0,0.0
16.77,-6,1,21,7,3,1,-3,-4,0.0
16.775,-1,-5,9,-19,-11,-3,0,-1,0.0
16.78,-5,-15,13,30,-2,-2,-2,-3,0.0
16.785,-1,-8,-15,1,-12,-2,-4,-3,0.0
16.79,-5,-3,-21,36,4,-1,-2,-3,0.0
16.795,-2,-5,50,-18,-9,-1,-2,0,0.0
16.8,-1,-5,-7,-7,3,-3,-1,1,0.0
16.805,-1,1,4,-17,-9,-3,1,0,0.0
16.81,-1,0,-2,-6,2,-1,-4,1,0.0
16.815,0,-2,12,-9,-3,1,-1,1,0.0
16.82,-2,-3,10,-2,1,-1,-1,0,0.0
16.825,1,0,3,-2,-2,-4,-3,-1,0.0
16.830000000000002,0,-1,3,11,2,-1,-1,-1,0.0
16.835,1,-3,1,-13,-4,-1,0,-1,0.0
16.84,-2,-3,-10,2,2,-3,-1,-3,0.0
16.845,-1,2,8,6,0,-2,2,-3,0.0
16.85,-2,-2,2,-2,0,-3,-7,-5,0.0
16.855,2,4,0,-3,0,-5,0,0,0.0
16.86,-2,-6,-6,1,-3,0,-2,-4,0.0
16.865000000000002,-1,0,1,1,1,0,-2,-1,0.0
16.87,0,-2,-4,-1,-1,0,0,0,0.0
16.875,-1,-1,6,2,-1,0,-2,1,0.0
16.88,-2,-1,-1,-6,-2,0,-1,0,0.0
16.885,-1,-3,7,0,-2,-2,-1,-1,0.0
16.89,-1,2,-2,-1,-1,-2,0,0,0.0
16.895,-1,-7,-1,-2,1,1,2,0,0.0
16.9,-1,-1,-2,0,1,0,-3,-1,0.0
16.905,-1,-1,-2,-1,-2,2,0,-1,0.0
16.91,0,-4,3,-2,-2,-1,-2,-2,0.0
16.915,-1,0,-4,-1,-1,-1,-1,-1,0.0
16.92,-2,0,-3,-1,-2,-1,0,-1,0.0
16.925,0,-2,-1,-1,-1,-2,0,1,0.0
16.93,-1,-2,-3,0,-2,-2,-2,-1,0.0
16.935,-2,-2,3,-2,-2,-2,-3,-3,0.0
16.94,0,0,-5,1,1,0,0,1,0.0
16.945,0,1,-4,-2,0,0,-2,0,0.0
16.95,0,-2,0,-4,1,-1,-1,-3,0.0
16.955000000000002,0,0,0,0,-3,-4,-2,0,0.0
16.96,-1,0,-1,-1,-1,-1,0,-2,0.0
16.965,-2,-3,0,-4,-3,1,1,-2,0.0
16.97,1,0,-4,-1,2,-2,0,-1,0.0
16.975,-1,-2,0,2,-1,3,1,-1,0.0
16.98,-1,3,-5,-1,-3,-1,-3,-1,0.0
16.985,-1,-5,3,-2,0,-1,-1,-1,0.0
16.990000000000002,-2,-2,6,2,1,-2,-3,-1,0.0
16.995,-1,0,-3,-2,1,-1,-3,-1,0.0
17.0,-2,-1,7,0,-2,-2,0,0,0.0
17.005,0,2,-3,0,0,-1,-1,-2,0.0
17.01,-1,0,0,-1,-1,0,2,1,0.0
17.015,0,-3,4,2,2,1,0,-2,0.0
17.02,-3,-4,-5,-2,0,-2,-3,-3,0.0
17.025,-1,-1,-2,-1,0,-2,-3,-1,0.0
17.03,0,1,11,4,0,-1,-2,-1,0.0
17.035,-2,-4,-31,-10,2,-2,1,-1,0.0
17.04,-2,-2,-7,-7,-2,-2,1,-1,0.0
17.045,0,-3,-1,2,-1,0,-1,-2,0.0
17.05,-2,1,-1,-4,-1,-3,-2,0,0.0
17.055,-2,-1,7,2,1,1,-3,-3,0.0
17.06,1,-1,2,2,-1,1,-1,6,0.0
17.065,-3,-4,-18,-5,-2,-2,-3,-2,0.0
17.07,-1,-2,-1,0,-1,-2,-2,-4,0.0
17.075,-1,0,12,1,1,0,1,1,0.0
17.080000000000002,-1,-4,-9,-4,0,0,0,-3,0.0
17.085,-1,2,4,-3,1,-1,-2,1,0.0
17.09,0,-2,15,-4,0,-1,0,0,0.0
17.095,-1,-1,-8,-1,-2,-4,0,-3,0.0
17.1,0,-2,15,8,-1,-5,-3,-2,0.0
17.105,0,-1,6,0,-3,-1,1,0,0.0
17.11,-2,-4,-35,-5,1,0,-1,-4,0.0
17.115000000000002,-4,1,12,10,-1,0,-2,-3,0.0
17.12,5,-1,-21,-6,1,2,1,2,0.0
17.125,-5,-3,-21,-6,-1,-1,-1,-5,0.0
17.13,1,-2,6,-2,0,-1,-1,6,0.0
17.135,1,-3,7,-5,1,-3,5,2,0.0
17.14,-3,-3,1,1,-1,0,-5,-7,0.0
17.145,2,0,3,7,0,0,2,2,0.0
17.150000000000002,-3,2,-12,5,-2,-2,-2,-3,0.0
17.155,0,1,-31,-13,-1,-3,4,3,0.0
17.16,-3,-4,24,-15,-3,-3,-2,-4,0.0
17.165,-1,4,15,-1,-2,0,2,-4,0.0
17.17,7,-1,3,4,2,2,-6,7,0.0
17.175,4,1,-3,-9,0,1,5,3,0.0
17.18,-4,-6,-4,19,-3,-4,-3,-4,0.0
17.185,-2,-4,-17,-12,-2,-3,-5,-3,0.0
17.19,3,3,40,15,-2,0,2,0,0.0
17.195,0,-2,-2,-21,-1,0,-6,-1,0.0
17.2,0,0,9,4,-2,0,0,-2,0.0
17.205000000000002,-1,-1,8,5,4,-1,-1,3,0.0
17.21,-6,-9,-50,-21,-6,-5,-17,-9,0.0
17.215,-2,-1,36,20,0,-1,1,3,0.0
17.22,0,2,5,-10,2,-1,5,4,0.0
17.225,0,-5,-21,1,-2,4,2,-4,0.0
17.23,2,1,-20,0,4,3,7,1,0.0
17.235,1,5,66,29,0,1,-3,5,0.0
17.240000000000002,-5,-3,-42,-13,-5,-7,-5,-7,0.0
17.245,0,6,56,16,4,-3,0,0,0.0
17.25,-2,4,3,-5,2,0,4,-3,0.0
17.255,6,3,7,18,4,4,2,6,0.0
17.26,-2,-15,-46,-21,-6,-4,-4,-4,0.0
17.265,-4,-9,-33,-8,4,-2,1,-2,0.0
17.27,-9,-16,-66,-26,-6,-3,0,-4,0.0
17.275000000000002,8,18,4,5,0,3,-1,0,0.0
17.28,-6,-25,-58,-43,-8,-3,-3,-3,0.0
17.285,4,25,74,32,1,-2,-3,0,0.0
17.29,-14,-24,14,-11,-1,-6,-2,-9,0.0
17.295,16,34,48,36,3,6,4,2,0.0
17.3,-13,-17,-1,-81,0,-3,-4,-2,0.0
17.305,0,-14,10,8,-10,-4,-9,6,0.0
17.31,-1,2,12,7,1,2,8,-4,0.0
17.315,-4,3,100,37,-3,-11,-13,-7,0.0
17.32,4,-13,-53,-29,-2,1,1,1,0.0
17.325,0,8,45,-30,-2,-1,-1,1,0.0
17.330000000000002,8,15,80,50,2,3,2,4,0.0
17.335,-18,-36,5,-77,-17,-11,-4,-10,0.0
17.34,-10,-11,-62,104,28,-1,-6,-10,0.0
17.345,-3,-3,-21,-57,-20,-3,-1,1,0.0
17.35,7,6,76,18,1,3,3,5,0.0
17.355,10,9,-27,-31,-9,5,5,4,0.0
17.36,-10,-21,56,3,3,-9,-5,-5,0.0
17.365000000000002,1,-17,-61,31,-2,4,4,-2,0.0
17.37,0,0,-73,-24,0,-1,1,7,0.0
17.375,-8,-20,-79,66,7,-1,-4,-6,0.0
17.38,8,10,57,-10,-15,5,0,0,0.0
17.385,-2,-1,67,-3,3,-4,1,-4,0.0
17.39,-8,-24,-24,27,-1,-7,-9,-6,0.0
17.395,2,-18,-59,-67,0,1,2,2,0.0
17.400000000000002,4,39,17,20,6,-4,-1,3,0.0
17.405,-5,10,76,28,-13,-6,-3,-11,0.0
17.41,-5,-11,-4,-11,2,0,-1,-2,0.0
17.415,-3,-4,2,-26,-13,-7,-5,2,0.0
17.42,-8,-40,-11,-5,37,12,5,0,0.0
17.425,1,-21,-96,-62,-9,-8,-2,1,0.0
17.43,-4,10,39,-9,3,0,-3,-4,0.0
17.435,-12,-14,-24,35,0,-6,-5,-5,0.0
17.44,6,14,105,100,-12,-1,-1,5,0.0
17.445,-5,9,-68,-43,-4,-7,-8,-6,0.0
17.45,4,-11,45,21,18,5,4,4,0.0
17.455000000000002,-18,-42,-8,-47,-46,-21,-14,-22,0.0
17.46,12,58,126,26,47,16,9,6,0.0
17.465,2,-17,-71,29,5,5,5,3,0.0
17.47,13,17,-12,-15,5,4,2,7,0.0
17.475,-1,4,33,-102,1,4,1,0,0.0
17.48,-4,33,-39,15,-21,-7,-5,-3,0.0
17.485,-2,15,38,20,9,2,2,-4,0.0
17.490000000000002,-3,-22,-45,-41,-4,1,-1,6,0.0
17.495,9,13,-11,17,14,2,3,6,0.0
17.5,-3,0,48,-60,-13,0,1,-1,0.0
17.505,2,-6,50,38,11,4,3,1,0.0
17.51,2,39,66,-7,-22,-9,-7,-4,0.0
17.515,-7,1,-25,48,19,1,-2,-4,0.0
17.52,-5,-34,33,1,-15,1,2,-1,0.0
17.525000000000002,13,63,105,30,0,7,2,6,0.0
17.53,-28,-92,-93,-31,-26,-13,-9,-14,0.0
17.535,4,33,-39,-16,18,1,0,6,0.0
17.54,5,1,4,-38,-11,-1,1,2,0.0
17.545,-1,3,-20,12,6,1,1,1,0.0
17.55,3,7,4,11,-8,-4,0,-5,0.0
17.555,0,2,-68,-18,7,6,3,1,0.0
17.56,0,-16,3,27,-15,-5,-2,0,0.0
17.565,7,12,-13,-30,9,-5,-3,2,0.0
17.57,3,34,127,-31,2,4,0,-4,0.0
17.575,-8,-18,-22,34,-13,-6,-3,-6,0.0
17.580000000000002,1,-24,-34,10,-10,2,2,6,0.0
17.585,-5,-3,-36,-66,2,1,-2,-2,0.0
17.59,0,6,15,-19,-5,-5,-3,-1,0.0
17.595,6,13,-7,45,26,1,-2,-1,0.0
17.6,-14,-21,-58,34,-14,-5,-3,-9,0.0
17.605,6,-1,-54,-19,-2,0,-2,6,0.0
17.61,-14,-40,-70,-14,1,-6,-6,-6,0.0
17.615000000000002,-1,-12,70,45,-12,-2,-1,-3,0.0
17.62,11,35,-68,-32,32,4,1,1,0.0
17.625,-23,-84,-118,-24,-13,-7,-5,-10,0.0
17.63,11,46,49,34,17,7,5,3,0.0
17.635,1,-6,25,15,-4,3,2,2,0.0
17.64,0,14,12,-19,6,-2,-1,-1,0.0
17.645,-4,0,42,0,-5,1,1,-1,0.0
17.650000000000002,4,25,11,30,9,-2,0,2,0.0
17.655,-1,-1,-39,-25,-5,1,2,1,0.0
17.66,3,-13,17,-69,-24,-6,-3,1,0.0
17.665,-1,6,32,58,21,0,0,-6,0.0
17.67,-1,-27,0,-45,-13,-1,-1,4,0.0
17.675,-6,12,17,36,-12,-4,-4,-4,0.0
17.68,2,6,20,17,5,0,-3,0,0.0
17.685,-6,-15,-35,-52,-12,-7,-4,-3,0.0
17.69,-2,2,-16,14,3,2,0,-2,0.0
17.695,2,6,-42,-27,-2,-3,-2,-2,0.0
17.7,-5,4,46,3,-5,-3,0,-5,0.0
17.705000000000002,-4,1,50,45,-4,-1,-3,-4,0.0
17.71,4,22,-17,11,-4,-4,-2,-2,0.0
17.715,2,-9,-41,28,5,2,2,1,0.0
17.72,1,3,-3,-19,-9,-2,0,-1,0.0
17.725,4,0,23,24,8,2,2,5,0.0
17.73,-2,-2,10,-23,-6,0,-1,-2,0.0
17.735,2,5,34,2,0,-2,-1,2,0.0
17.740000000000002,-3,-4,-23,-3,1,1,-1,-3,0.0
17.745,-4,-5,10,-9,1,2,0,-1,0.0
17.75,0,4,-18,4,4,-2,-2,-1,0.0
17.755,-1,2,11,-8,-1,-1,-2,-2,0.0
17.76,0,5,3,18,3,-1,0,-1,0.0
17.765,-3,-7,18,-18,1,0,0,-3,0.0
17.77,0,-3,-16,4,-7,-2,0,0,0.0
17.775000000000002,-1,-1,8,-9,0,-2,-3,-3,0.0
17.78,-1,-2,-6,5,-1,-3,-1,0,0.0
17.785,-3,-3,2,-7,1,-3,-2,-2,0.0
17.79,-2,-2,-9,-6,-2,2,0,0,0.0
17.795,1,4,10,3,0,2,-2,0,0.0
17.8,0,-1,-11,2,1,-2,-2,-1,0.0
17.805,-3,-5,1,-10,1,-3,-2,-2,0.0
17.81,-2,1,10,11,3,-2,0,-1,0.0
17.815,0,-2,-10,-14,-2,0,1,0,0.0
17.82,-2,-1,-8,7,-4,-2,-1,-2,0.0
17.825,-4,-3,2,-7,-1,0,1,-4,0.0
17.830000000000002,0,-4,0,-2,-2,0,-3,-2,0.0
17.835,2,-3,5,2,-1,-1,-1,0,0.0
17.84,-1,-3,-5,-2,1,-1,-1,0,0.0
17.845,-2,-3,-3,-7,-5,-5,-2,-1,0.0
17.85,0,-1,-4,-2,-2,-2,-2,1,0.0
17.855,-2,-3,-1,-4,-3,-1,1,2,0.0
17.86,-2,1,-5,2,-1,-1,-1,-1,0.0
17.865000000000002,0,0,6,-2,1,0,0,-1,0.0
17.87,-2,-2,-6,-2,-4,-2,-1,-1,0.0
17.875,-2,1,6,0,-3,-2,-3,-4,0.0
17.88,0,0,0,1,-3,-2,-1,-1,0.0
17.885,-1,-1,-2,-2,-1,0,-1,-1,0.0
17.89,-1,1,-5,-2,-1,-1,1,-1,0.0
17.895,-1,-1,2,-2,0,-3,-1,-1,0.0
17.900000000000002,-2,0,-3,0,0,-1,0,-1,0.0
17.905,-1,-2,1,-3,-3,-3,-4,-1,0.0
17.91,0,2,0,1,-2,0,1,0,0.0
17.915,1,0,6,-1,1,-1,-1,-1,0.0
17.92,-3,-2,-4,-2,-2,0,-2,-3,0.0
17.925,0,-2,0,0,-2,-1,-1,-2,0.0
17.93,0,-1,0,0,0,0,0,2,0.0
17.935,-1,2,3,-1,-4,-3,0,-2,0.0
17.94,-1,-3,-3,-3,0,-1,-2,0,0.0
17.945,-2,-2,-5,-3,-2,0,-1,-3,0.0
17.95,0,1,-1,-1,-1,-2,-1,-3,0.0
17.955000000000002,-1,0,1,-2,0,-2,-3,0,0.0
17.96,0,0,1,0,0,-2,0,-2,0.0
17.965,-3,-3,1,-2,0,-2,-3,-4,0.0
17.97,-1,1,-3,0,1,-3,0,-1,0.0
17.975,-3,-5,1,-1,-2,-2,0,-1,0.0
17.98,-2,-5,-3,0,-2,-1,-2,-3,0.0
17.985,0,-2,0,-2,-1,-1,-2,-1,0.0
17.990000000000002,-1,-4,-3,-1,0,0,-3,-1,0.0
17.995,0,1,5,0,-2,0,-1,0,0.0
18.0,0,-1,-1,1,0,0,-1,1,0.0
18.005,0,-2,1,-3,0,-1,-1,-2,0.0
18.01,-1,-1,-3,-2,-3,-5,0,-3,0.0
18.015,0,3,1,5,0,0,1,-2,0.0
18.02,-1,-2,-2,-9,-1,-1,-1,-1,0.0
18.025000000000002,0,0,0,3,-2,-2,0,2,0.0
18.03,-1,0,-1,-6,0,-1,-2,-2,0.0
18.035,-1,-1,1,8,0,-1,-3,-2,0.0
18.04,-3,-2,0,0,-3,-1,-2,-1,0.0
