0.005,-3.0,-1.0,1.0,1.0,-4.0,-4.0,-4.0,-4.0,-0.56292724609375,0.1766357421875,-0.11859130859375,0.79864501953125,-0.15185546875,-0.962890625,0.3203125,0.375,-2.0,0.125
0.01,-1.0,0.0,4.0,3.0,0.0,0.0,2.0,-1.0,-0.56280517578125,0.17626953125,-0.11846923828125,0.798828125,-0.1455078125,-0.95703125,0.3154296875,0.9375,-2.125,0.125
0.015,-1.0,0.0,4.0,3.0,0.0,0.0,2.0,-1.0,-0.56280517578125,0.17626953125,-0.11846923828125,0.798828125,-0.1455078125,-0.95703125,0.3154296875,0.9375,-2.125,0.125
0.02,-1.0,0.0,4.0,3.0,0.0,0.0,2.0,-1.0,-0.56280517578125,0.17626953125,-0.11846923828125,0.798828125,-0.1455078125,-0.95703125,0.3154296875,0.9375,-2.125,0.125
0.025,-1.0,0.0,4.0,3.0,0.0,0.0,2.0,-1.0,-0.56280517578125,0.17626953125,-0.11846923828125,0.798828125,-0.1455078125,-0.95703125,0.3154296875,0.9375,-2.125,0.125
0.030000000000000002,-1.0,-1.0,3.0,3.0,-4.0,-3.0,0.0,-1.0,-0.5626220703125,0.17596435546875,-0.1182861328125,0.799072265625,-0.14501953125,-0.95556640625,0.31884765625,0.875,-1.9375,0.625
0.035,-1.0,-1.0,3.0,3.0,-4.0,-3.0,0.0,-1.0,-0.5626220703125,0.17596435546875,-0.1182861328125,0.799072265625,-0.14501953125,-0.95556640625,0.31884765625,0.875,-1.9375,0.625
0.04,-2.0,-3.0,-1.0,-3.0,-2.0,-2.0,-2.0,1.0,-0.5626220703125,0.17596435546875,-0.1182861328125,0.799072265625,-0.14501953125,-0.95556640625,0.31884765625,0.875,-1.9375,0.625
0.045,-2.0,-3.0,-1.0,-3.0,-2.0,-2.0,-2.0,1.0,-0.5626220703125,0.17596435546875,-0.1182861328125,0.799072265625,-0.14501953125,-0.95556640625,0.31884765625,0.875,-1.9375,0.625
0.049999999999999996,-2.0,-3.0,-1.0,-3.0,-2.0,-2.0,-2.0,1.0,-0.5626220703125,0.17596435546875,-0.1182861328125,0.799072265625,-0.14501953125,-0.95556640625,0.31884765625,0.875,-1.9375,0.625
0.05499999999999999,-2.0,-3.0,-1.0,-3.0,-2.0,-2.0,-2.0,1.0,-0.5626220703125,0.17596435546875,-0.1182861328125,0.799072265625,-0.14501953125,-0.95556640625,0.31884765625,0.875,-1.9375,0.625
0.05999999999999999,-2.0,-3.0,-1.0,-3.0,-2.0,-2.0,-2.0,1.0,-0.5626220703125,0.17596435546875,-0.1182861328125,0.799072265625,-0.14501953125,-0.95556640625,0.31884765625,0.875,-1.9375,0.625
0.06499999999999999,-2.0,-2.0,1.0,2.0,-2.0,0.0,-2.0,-2.0,-0.56243896484375,0.1756591796875,-0.1180419921875,0.79925537109375,-0.142578125,-0.9541015625,0.32275390625,0.5,-2.125,0.875
0.06999999999999999,-2.0,-2.0,1.0,2.0,-2.0,0.0,-2.0,-2.0,-0.56243896484375,0.1756591796875,-0.1180419921875,0.79925537109375,-0.142578125,-0.9541015625,0.32275390625,0.5,-2.125,0.875
0.075,-2.0,-2.0,1.0,2.0,-2.0,0.0,-2.0,-2.0,-0.56243896484375,0.1756591796875,-0.1180419921875,0.79925537109375,-0.142578125,-0.9541015625,0.32275390625,0.5,-2.125,0.875
0.08,1.0,-3.0,-6.0,-9.0,-3.0,4.0,3.0,2.0,-0.5626220703125,0.17535400390625,-0.11767578125,0.79931640625,-0.14208984375,-0.953125,0.31396484375,-1.0625,-2.3125,1.0625
0.085,-2.0,0.0,-6.0,-5.0,-5.0,-4.0,-4.0,-4.0,-0.5626220703125,0.17535400390625,-0.11767578125,0.79931640625,-0.14208984375,-0.953125,0.31396484375,-1.0625,-2.3125,1.0625
0.09000000000000001,-2.0,0.0,-6.0,-5.0,-5.0,-4.0,-4.0,-4.0,-0.5626220703125,0.17535400390625,-0.11767578125,0.79931640625,-0.14208984375,-0.953125,0.31396484375,-1.0625,-2.3125,1.0625
0.09500000000000001,-2.0,0.0,-6.0,-5.0,-5.0,-4.0,-4.0,-4.0,-0.5626220703125,0.17535400390625,-0.11767578125,0.79931640625,-0.14208984375,-0.953125,0.31396484375,-1.0625,-2.3125,1.0625
0.10000000000000002,-2.0,0.0,-6.0,-5.0,-5.0,-4.0,-4.0,-4.0,-0.5626220703125,0.17535400390625,-0.11767578125,0.79931640625,-0.14208984375,-0.953125,0.31396484375,-1.0625,-2.3125,1.0625
0.10500000000000002,-2.0,0.0,-6.0,-5.0,-5.0,-4.0,-4.0,-4.0,-0.5626220703125,0.17535400390625,-0.11767578125,0.79931640625,-0.14208984375,-0.953125,0.31396484375,-1.0625,-2.3125,1.0625
0.11000000000000003,-1.0,1.0,2.0,6.0,3.0,-1.0,8.0,-2.0,-0.56280517578125,0.1751708984375,-0.117431640625,0.7991943359375,-0.14306640625,-0.95751953125,0.31201171875,-1.4375,-1.4375,0.8125
0.11500000000000003,1.0,0.0,-1.0,-5.0,-2.0,-5.0,-13.0,-2.0,-0.56280517578125,0.1751708984375,-0.117431640625,0.7991943359375,-0.14306640625,-0.95751953125,0.31201171875,-1.4375,-1.4375,0.8125
0.12000000000000004,1.0,0.0,-1.0,-5.0,-2.0,-5.0,-13.0,-2.0,-0.56280517578125,0.1751708984375,-0.117431640625,0.7991943359375,-0.14306640625,-0.95751953125,0.31201171875,-1.4375,-1.4375,0.8125
0.12500000000000003,1.0,0.0,-1.0,-5.0,-2.0,-5.0,-13.0,-2.0,-0.56280517578125,0.1751708984375,-0.117431640625,0.7991943359375,-0.14306640625,-0.95751953125,0.31201171875,-1.4375,-1.4375,0.8125
0.13000000000000003,1.0,0.0,-1.0,-5.0,-2.0,-5.0,-13.0,-2.0,-0.56280517578125,0.1751708984375,-0.117431640625,0.7991943359375,-0.14306640625,-0.95751953125,0.31201171875,-1.4375,-1.4375,0.8125
0.13500000000000004,1.0,0.0,-1.0,-5.0,-2.0,-5.0,-13.0,-2.0,-0.56280517578125,0.1751708984375,-0.117431640625,0.7991943359375,-0.14306640625,-0.95751953125,0.31201171875,-1.4375,-1.4375,0.8125
0.14000000000000004,0.0,-2.0,2.0,1.0,4.0,1.0,4.0,2.0,-0.56280517578125,0.1751708984375,-0.117431640625,0.79925537109375,-0.1484375,-0.95849609375,0.3125,-0.25,-0.4375,0.5625
0.14500000000000005,0.0,-2.0,2.0,1.0,4.0,1.0,4.0,2.0,-0.56280517578125,0.1751708984375,-0.117431640625,0.79925537109375,-0.1484375,-0.95849609375,0.3125,-0.25,-0.4375,0.5625
0.15000000000000005,0.0,-2.0,2.0,1.0,4.0,1.0,4.0,2.0,-0.56280517578125,0.1751708984375,-0.117431640625,0.79925537109375,-0.1484375,-0.95849609375,0.3125,-0.25,-0.4375,0.5625
0.15500000000000005,0.0,-2.0,2.0,1.0,4.0,1.0,4.0,2.0,-0.56280517578125,0.1751708984375,-0.117431640625,0.79925537109375,-0.1484375,-0.95849609375,0.3125,-0.25,-0.4375,0.5625
0.16000000000000006,-2.0,-1.0,-2.0,-7.0,-2.0,-1.0,0.0,-2.0,-0.56280517578125,0.1751708984375,-0.117431640625,0.79925537109375,-0.1416015625,-0.95947265625,0.3154296875,0.8125,0.25,0.5
0.16500000000000006,-2.0,-1.0,-2.0,-7.0,-2.0,-1.0,0.0,-2.0,-0.56280517578125,0.1751708984375,-0.117431640625,0.79925537109375,-0.1416015625,-0.95947265625,0.3154296875,0.8125,0.25,0.5
0.17000000000000007,0.0,0.0,-3.0,2.0,2.0,-2.0,-2.0,-2.0,-0.56280517578125,0.1751708984375,-0.117431640625,0.79925537109375,-0.1416015625,-0.95947265625,0.3154296875,0.8125,0.25,0.5
0.17500000000000007,0.0,0.0,-3.0,2.0,2.0,-2.0,-2.0,-2.0,-0.56280517578125,0.1751708984375,-0.117431640625,0.79925537109375,-0.1416015625,-0.95947265625,0.3154296875,0.8125,0.25,0.5
0.18000000000000008,0.0,0.0,-3.0,2.0,2.0,-2.0,-2.0,-2.0,-0.56280517578125,0.1751708984375,-0.117431640625,0.79925537109375,-0.1416015625,-0.95947265625,0.3154296875,0.8125,0.25,0.5
0.18500000000000008,0.0,0.0,-3.0,2.0,2.0,-2.0,-2.0,-2.0,-0.56280517578125,0.1751708984375,-0.117431640625,0.79925537109375,-0.1416015625,-0.95947265625,0.3154296875,0.8125,0.25,0.5
0.19000000000000009,-1.0,-2.0,-2.0,-3.0,-1.0,-3.0,-2.0,-2.0,-0.5626220703125,0.1751708984375,-0.11737060546875,0.79937744140625,-0.14453125,-0.953125,0.31640625,0.5,0.0,1.0625
0.1950000000000001,-2.0,-2.0,-3.0,0.0,-1.0,0.0,1.0,-1.0,-0.5626220703125,0.1751708984375,-0.11737060546875,0.79937744140625,-0.14453125,-0.953125,0.31640625,0.5,0.0,1.0625
0.2000000000000001,-2.0,-2.0,-3.0,0.0,-1.0,0.0,1.0,-1.0,-0.5626220703125,0.1751708984375,-0.11737060546875,0.79937744140625,-0.14453125,-0.953125,0.31640625,0.5,0.0,1.0625
0.2050000000000001,-2.0,-2.0,-3.0,0.0,-1.0,0.0,1.0,-1.0,-0.5626220703125,0.1751708984375,-0.11737060546875,0.79937744140625,-0.14453125,-0.953125,0.31640625,0.5,0.0,1.0625
0.2100000000000001,-2.0,-2.0,-3.0,0.0,-1.0,0.0,1.0,-1.0,-0.5626220703125,0.1751708984375,-0.11737060546875,0.79937744140625,-0.14453125,-0.953125,0.31640625,0.5,0.0,1.0625
0.2150000000000001,-2.0,-2.0,-3.0,0.0,-1.0,0.0,1.0,-1.0,-0.5626220703125,0.1751708984375,-0.11737060546875,0.79937744140625,-0.14453125,-0.953125,0.31640625,0.5,0.0,1.0625
0.2200000000000001,-3.0,-3.0,-1.0,1.0,0.0,1.0,0.0,0.0,-0.5626220703125,0.1751708984375,-0.11737060546875,0.79937744140625,-0.14794921875,-0.94677734375,0.3125,0.0,0.4375,0.75
0.22500000000000012,-3.0,-3.0,-1.0,1.0,0.0,1.0,0.0,0.0,-0.5626220703125,0.1751708984375,-0.11737060546875,0.79937744140625,-0.14794921875,-0.94677734375,0.3125,0.0,0.4375,0.75
0.23000000000000012,-3.0,-3.0,-1.0,1.0,0.0,1.0,0.0,0.0,-0.5626220703125,0.1751708984375,-0.11737060546875,0.79937744140625,-0.14794921875,-0.94677734375,0.3125,0.0,0.4375,0.75
0.23500000000000013,-1.0,-2.0,-5.0,-1.0,-2.0,-6.0,-3.0,-1.0,-0.5626220703125,0.1751708984375,-0.11737060546875,0.79937744140625,-0.14794921875,-0.94677734375,0.3125,0.0,0.4375,0.75
0.24000000000000013,-1.0,-2.0,-5.0,-1.0,-2.0,-6.0,-3.0,-1.0,-0.56268310546875,0.1754150390625,-0.11724853515625,0.79931640625,-0.1552734375,-0.95458984375,0.32177734375,-1.625,0.75,1.0
0.24500000000000013,-2.0,-1.0,-1.0,-4.0,-6.0,-1.0,0.0,-1.0,-0.56268310546875,0.1754150390625,-0.11724853515625,0.79931640625,-0.1552734375,-0.95458984375,0.32177734375,-1.625,0.75,1.0
0.2500000000000001,0.0,-2.0,-2.0,-6.0,0.0,1.0,9.0,0.0,-0.56268310546875,0.1754150390625,-0.11724853515625,0.79931640625,-0.1552734375,-0.95458984375,0.32177734375,-1.625,0.75,1.0
0.2550000000000001,0.0,-2.0,-2.0,-6.0,0.0,1.0,9.0,0.0,-0.56268310546875,0.1754150390625,-0.11724853515625,0.79931640625,-0.1552734375,-0.95458984375,0.32177734375,-1.625,0.75,1.0
0.2600000000000001,0.0,-2.0,-2.0,-6.0,0.0,1.0,9.0,0.0,-0.56268310546875,0.1754150390625,-0.11724853515625,0.79931640625,-0.1552734375,-0.95458984375,0.32177734375,-1.625,0.75,1.0
0.2650000000000001,-2.0,-1.0,-4.0,-1.0,5.0,0.0,-4.0,-2.0,-0.5628662109375,0.1756591796875,-0.1170654296875,0.79913330078125,-0.15283203125,-0.95947265625,0.3134765625,-1.875,0.5,1.0
0.27000000000000013,-2.0,-1.0,-4.0,-1.0,5.0,0.0,-4.0,-2.0,-0.5628662109375,0.1756591796875,-0.1170654296875,0.79913330078125,-0.15283203125,-0.95947265625,0.3134765625,-1.875,0.5,1.0
0.27500000000000013,-2.0,-1.0,-2.0,0.0,-2.0,-2.0,-3.0,-2.0,-0.5628662109375,0.1756591796875,-0.1170654296875,0.79913330078125,-0.15283203125,-0.95947265625,0.3134765625,-1.875,0.5,1.0
0.28000000000000014,-2.0,-1.0,-2.0,0.0,-2.0,-2.0,-3.0,-2.0,-0.5628662109375,0.1756591796875,-0.1170654296875,0.79913330078125,-0.15283203125,-0.95947265625,0.3134765625,-1.875,0.5,1.0
0.28500000000000014,-2.0,-1.0,-2.0,0.0,-2.0,-2.0,-3.0,-2.0,-0.5628662109375,0.1756591796875,-0.1170654296875,0.79913330078125,-0.15283203125,-0.95947265625,0.3134765625,-1.875,0.5,1.0
0.29000000000000015,-1.0,-2.0,-2.0,3.0,-1.0,1.0,-3.0,-1.0,-0.562744140625,0.17584228515625,-0.11700439453125,0.7991943359375,-0.14892578125,-0.9541015625,0.3154296875,-0.125,0.875,1.0
0.29500000000000015,-1.0,-2.0,-2.0,3.0,-1.0,1.0,-3.0,-1.0,-0.562744140625,0.17584228515625,-0.11700439453125,0.7991943359375,-0.14892578125,-0.9541015625,0.3154296875,-0.125,0.875,1.0
0.30000000000000016,-1.0,-2.0,-2.0,3.0,-1.0,1.0,-3.0,-1.0,-0.562744140625,0.17584228515625,-0.11700439453125,0.7991943359375,-0.14892578125,-0.9541015625,0.3154296875,-0.125,0.875,1.0
0.30500000000000016,-1.0,-3.0,-2.0,-2.0,-6.0,-5.0,-3.0,-2.0,-0.562744140625,0.17584228515625,-0.11700439453125,0.7991943359375,-0.15185546875,-0.95751953125,0.30908203125,-0.6875,0.8125,0.875
0.31000000000000016,-3.0,-2.0,-3.0,-7.0,-10.0,-5.0,-4.0,-3.0,-0.562744140625,0.17584228515625,-0.11700439453125,0.7991943359375,-0.15185546875,-0.95751953125,0.30908203125,-0.6875,0.8125,0.875
0.31500000000000017,-1.0,-1.0,1.0,2.0,-5.0,-6.0,-2.0,-2.0,-0.562744140625,0.17584228515625,-0.11700439453125,0.7991943359375,-0.15185546875,-0.95751953125,0.30908203125,-0.6875,0.8125,0.875
0.3200000000000002,-1.0,-1.0,1.0,2.0,-5.0,-6.0,-2.0,-2.0,-0.562744140625,0.17584228515625,-0.11700439453125,0.7991943359375,-0.15185546875,-0.95751953125,0.30908203125,-0.6875,0.8125,0.875
0.3250000000000002,-1.0,-1.0,1.0,2.0,-5.0,-6.0,-2.0,-2.0,-0.562744140625,0.17584228515625,-0.11700439453125,0.7991943359375,-0.15185546875,-0.95751953125,0.30908203125,-0.6875,0.8125,0.875
0.3300000000000002,1.0,-3.0,-6.0,0.0,8.0,7.0,4.0,4.0,-0.56280517578125,0.17608642578125,-0.116943359375,0.799072265625,-0.15673828125,-0.9580078125,0.31298828125,-1.1875,0.8125,0.9375
0.3350000000000002,-1.0,-2.0,0.0,-1.0,0.0,-4.0,-3.0,0.0,-0.56280517578125,0.17608642578125,-0.116943359375,0.799072265625,-0.15673828125,-0.9580078125,0.31298828125,-1.1875,0.8125,0.9375
0.3400000000000002,-1.0,-2.0,0.0,-1.0,0.0,-4.0,-3.0,0.0,-0.56280517578125,0.17608642578125,-0.116943359375,0.799072265625,-0.15673828125,-0.9580078125,0.31298828125,-1.1875,0.8125,0.9375
0.3450000000000002,-1.0,-2.0,0.0,-1.0,0.0,-4.0,-3.0,0.0,-0.56280517578125,0.17608642578125,-0.116943359375,0.799072265625,-0.15673828125,-0.9580078125,0.31298828125,-1.1875,0.8125,0.9375
0.3500000000000002,0.0,0.0,-1.0,-2.0,-4.0,-3.0,-1.0,-1.0,-0.56280517578125,0.17608642578125,-0.116943359375,0.799072265625,-0.1533203125,-0.9560546875,0.31103515625,-1.0,0.8125,0.5
0.3550000000000002,0.0,1.0,1.0,-1.0,-4.0,-2.0,-4.0,-2.0,-0.56280517578125,0.17608642578125,-0.116943359375,0.799072265625,-0.1533203125,-0.9560546875,0.31103515625,-1.0,0.8125,0.5
0.3600000000000002,0.0,1.0,1.0,-1.0,-4.0,-2.0,-4.0,-2.0,-0.56280517578125,0.17608642578125,-0.116943359375,0.799072265625,-0.1533203125,-0.9560546875,0.31103515625,-1.0,0.8125,0.5
0.3650000000000002,0.0,1.0,1.0,-1.0,-4.0,-2.0,-4.0,-2.0,-0.56280517578125,0.17608642578125,-0.116943359375,0.799072265625,-0.1533203125,-0.9560546875,0.31103515625,-1.0,0.8125,0.5
0.3700000000000002,-3.0,-4.0,-17.0,-8.0,-1.0,2.0,-1.0,-1.0,-0.56280517578125,0.17608642578125,-0.116943359375,0.799072265625,-0.1533203125,-0.9560546875,0.31103515625,-1.0,0.8125,0.5
0.3750000000000002,-2.0,-3.0,-2.0,-4.0,-4.0,-4.0,-1.0,-2.0,-0.56298828125,0.17626953125,-0.11676025390625,0.7989501953125,-0.15869140625,-0.95654296875,0.31005859375,-1.5625,0.25,0.5625
0.3800000000000002,-2.0,-3.0,-2.0,-4.0,-4.0,-4.0,-1.0,-2.0,-0.56298828125,0.17626953125,-0.11676025390625,0.7989501953125,-0.15869140625,-0.95654296875,0.31005859375,-1.5625,0.25,0.5625
0.38500000000000023,-2.0,-3.0,-2.0,-4.0,-4.0,-4.0,-1.0,-2.0,-0.56298828125,0.17626953125,-0.11676025390625,0.7989501953125,-0.15869140625,-0.95654296875,0.31005859375,-1.5625,0.25,0.5625
0.39000000000000024,-2.0,-3.0,-2.0,-4.0,-4.0,-4.0,-1.0,-2.0,-0.56298828125,0.17626953125,-0.11676025390625,0.7989501953125,-0.15869140625,-0.95654296875,0.31005859375,-1.5625,0.25,0.5625
0.39500000000000024,-2.0,0.0,5.0,2.0,-2.0,-2.0,1.0,0.0,-0.56329345703125,0.1763916015625,-0.11663818359375,0.7987060546875,-0.15283203125,-0.951171875,0.3076171875,-2.5,0.0,0.5625
0.40000000000000024,0.0,-2.0,-3.0,3.0,4.0,4.0,2.0,1.0,-0.56329345703125,0.1763916015625,-0.11663818359375,0.7987060546875,-0.15283203125,-0.951171875,0.3076171875,-2.5,0.0,0.5625
0.40500000000000025,0.0,-2.0,-3.0,3.0,4.0,4.0,2.0,1.0,-0.56329345703125,0.1763916015625,-0.11663818359375,0.7987060546875,-0.15283203125,-0.951171875,0.3076171875,-2.5,0.0,0.5625
0.41000000000000025,0.0,-2.0,-3.0,3.0,4.0,4.0,2.0,1.0,-0.56329345703125,0.1763916015625,-0.11663818359375,0.7987060546875,-0.15283203125,-0.951171875,0.3076171875,-2.5,0.0,0.5625
0.41500000000000026,0.0,-2.0,-3.0,3.0,4.0,4.0,2.0,1.0,-0.56329345703125,0.1763916015625,-0.11663818359375,0.7987060546875,-0.15283203125,-0.951171875,0.3076171875,-2.5,0.0,0.5625
0.42000000000000026,1.0,1.0,3.0,3.0,7.0,3.0,0.0,-3.0,-0.56353759765625,0.17645263671875,-0.1165771484375,0.79852294921875,-0.14697265625,-0.96630859375,0.3076171875,-1.6875,0.25,0.375
0.42500000000000027,1.0,1.0,3.0,3.0,7.0,3.0,0.0,-3.0,-0.56353759765625,0.17645263671875,-0.1165771484375,0.79852294921875,-0.14697265625,-0.96630859375,0.3076171875,-1.6875,0.25,0.375
0.43000000000000027,1.0,2.0,-11.0,-2.0,1.0,-4.0,-4.0,-1.0,-0.56353759765625,0.17645263671875,-0.1165771484375,0.79852294921875,-0.14697265625,-0.96630859375,0.3076171875,-1.6875,0.25,0.375
0.4350000000000003,1.0,2.0,-11.0,-2.0,1.0,-4.0,-4.0,-1.0,-0.56353759765625,0.17645263671875,-0.1165771484375,0.79852294921875,-0.14697265625,-0.96630859375,0.3076171875,-1.6875,0.25,0.375
0.4400000000000003,-1.0,-1.0,-2.0,-5.0,-9.0,-6.0,-2.0,-2.0,-0.56378173828125,0.176513671875,-0.11651611328125,0.79840087890625,-0.15576171875,-0.9638671875,0.30517578125,-1.4375,0.0,0.1875
0.4450000000000003,-1.0,-1.0,-2.0,-5.0,-9.0,-6.0,-2.0,-2.0,-0.56378173828125,0.176513671875,-0.11651611328125,0.79840087890625,-0.15576171875,-0.9638671875,0.30517578125,-1.4375,0.0,0.1875
0.4500000000000003,-1.0,-1.0,-2.0,-5.0,-9.0,-6.0,-2.0,-2.0,-0.56378173828125,0.176513671875,-0.11651611328125,0.79840087890625,-0.15576171875,-0.9638671875,0.30517578125,-1.4375,0.0,0.1875
0.4550000000000003,0.0,-1.0,7.0,2.0,-4.0,0.0,1.0,-1.0,-0.56378173828125,0.176513671875,-0.11651611328125,0.79840087890625,-0.15087890625,-0.95654296875,0.30615234375,0.8125,-0.1875,-0.0625
0.4600000000000003,0.0,-1.0,7.0,2.0,-4.0,0.0,1.0,-1.0,-0.56378173828125,0.176513671875,-0.11651611328125,0.79840087890625,-0.15087890625,-0.95654296875,0.30615234375,0.8125,-0.1875,-0.0625
0.4650000000000003,0.0,-1.0,7.0,2.0,-4.0,0.0,1.0,-1.0,-0.56378173828125,0.176513671875,-0.11651611328125,0.79840087890625,-0.15087890625,-0.95654296875,0.30615234375,0.8125,-0.1875,-0.0625
0.4700000000000003,0.0,-1.0,7.0,2.0,-4.0,0.0,1.0,-1.0,-0.56378173828125,0.176513671875,-0.11651611328125,0.79840087890625,-0.15087890625,-0.95654296875,0.30615234375,0.8125,-0.1875,-0.0625
0.4750000000000003,-1.0,-1.0,-1.0,5.0,11.0,3.0,-2.0,-2.0,-0.56378173828125,0.176513671875,-0.11651611328125,0.79840087890625,-0.15087890625,-0.95654296875,0.30615234375,0.8125,-0.1875,-0.0625
0.4800000000000003,-1.0,-3.0,-1.0,-6.0,-8.0,-4.0,-3.0,-1.0,-0.56378173828125,0.176513671875,-0.11651611328125,0.79840087890625,-0.14990234375,-0.95458984375,0.30419921875,-0.3125,-0.6875,0.0
0.4850000000000003,-1.0,-3.0,-1.0,-6.0,-8.0,-4.0,-3.0,-1.0,-0.56378173828125,0.176513671875,-0.11651611328125,0.79840087890625,-0.14990234375,-0.95458984375,0.30419921875,-0.3125,-0.6875,0.0
0.4900000000000003,-1.0,-3.0,-1.0,-6.0,-8.0,-4.0,-3.0,-1.0,-0.56378173828125,0.176513671875,-0.11651611328125,0.79840087890625,-0.14990234375,-0.95458984375,0.30419921875,-0.3125,-0.6875,0.0
0.49500000000000033,-2.0,-1.0,2.0,4.0,7.0,6.0,-6.0,0.0,-0.56378173828125,0.176513671875,-0.11651611328125,0.79840087890625,-0.14990234375,-0.95458984375,0.30419921875,-0.3125,-0.6875,0.0
0.5000000000000003,-2.0,-1.0,2.0,4.0,7.0,6.0,-6.0,0.0,-0.56378173828125,0.176513671875,-0.11651611328125,0.79840087890625,-0.14990234375,-0.95458984375,0.30419921875,-0.3125,-0.6875,0.0
0.5050000000000003,1.0,-2.0,-3.0,-4.0,-3.0,-2.0,-2.0,-1.0,-0.5640869140625,0.1763916015625,-0.11639404296875,0.7982177734375,-0.15625,-0.95556640625,0.3056640625,-2.0625,-1.125,-0.25
0.5100000000000003,1.0,-2.0,-3.0,-4.0,-3.0,-2.0,-2.0,-1.0,-0.5640869140625,0.1763916015625,-0.11639404296875,0.7982177734375,-0.15625,-0.95556640625,0.3056640625,-2.0625,-1.125,-0.25
0.5150000000000003,1.0,-2.0,-3.0,-4.0,-3.0,-2.0,-2.0,-1.0,-0.5640869140625,0.1763916015625,-0.11639404296875,0.7982177734375,-0.15625,-0.95556640625,0.3056640625,-2.0625,-1.125,-0.25
0.5200000000000004,1.0,-2.0,-3.0,-4.0,-3.0,-2.0,-2.0,-1.0,-0.5640869140625,0.1763916015625,-0.11639404296875,0.7982177734375,-0.15625,-0.95556640625,0.3056640625,-2.0625,-1.125,-0.25
0.5250000000000004,0.0,-1.0,1.0,-1.0,-1.0,0.0,-3.0,-4.0,-0.564208984375,0.17620849609375,-0.1162109375,0.7982177734375,-0.15283203125,-0.95703125,0.30419921875,-0.5,-1.375,-0.125
0.5300000000000004,-2.0,-2.0,-1.0,-1.0,0.0,-1.0,-1.0,-2.0,-0.564208984375,0.17620849609375,-0.1162109375,0.7982177734375,-0.15283203125,-0.95703125,0.30419921875,-0.5,-1.375,-0.125
0.5350000000000004,-3.0,0.0,-1.0,-4.0,-1.0,0.0,-3.0,-3.0,-0.564208984375,0.17620849609375,-0.1162109375,0.7982177734375,-0.15283203125,-0.95703125,0.30419921875,-0.5,-1.375,-0.125
0.5400000000000004,-3.0,0.0,-1.0,-4.0,-1.0,0.0,-3.0,-3.0,-0.564208984375,0.17620849609375,-0.1162109375,0.7982177734375,-0.15283203125,-0.95703125,0.30419921875,-0.5,-1.375,-0.125
0.5450000000000004,-1.0,-2.0,-4.0,-2.0,1.0,1.0,1.0,-1.0,-0.5643310546875,0.176025390625,-0.1160888671875,0.79815673828125,-0.150390625,-0.9599609375,0.30712890625,-0.75,-1.3125,-0.0625
0.5500000000000004,-1.0,-2.0,-4.0,-2.0,1.0,1.0,1.0,-1.0,-0.5643310546875,0.176025390625,-0.1160888671875,0.79815673828125,-0.150390625,-0.9599609375,0.30712890625,-0.75,-1.3125,-0.0625
0.5550000000000004,-1.0,-2.0,-4.0,-2.0,1.0,1.0,1.0,-1.0,-0.5643310546875,0.176025390625,-0.1160888671875,0.79815673828125,-0.150390625,-0.9599609375,0.30712890625,-0.75,-1.3125,-0.0625
0.5600000000000004,-2.0,-1.0,-1.0,-3.0,1.0,-3.0,-1.0,0.0,-0.5643310546875,0.176025390625,-0.1160888671875,0.79815673828125,-0.150390625,-0.9599609375,0.30712890625,-0.75,-1.3125,-0.0625
0.5650000000000004,-2.0,-1.0,-1.0,-3.0,1.0,-3.0,-1.0,0.0,-0.5643310546875,0.176025390625,-0.1160888671875,0.79815673828125,-0.150390625,-0.9599609375,0.30712890625,-0.75,-1.3125,-0.0625
0.5700000000000004,-2.0,-2.0,-1.0,1.0,0.0,0.0,0.0,-1.0,-0.5643310546875,0.176025390625,-0.1160888671875,0.79815673828125,-0.1533203125,-0.9619140625,0.31005859375,-0.6875,-0.8125,-0.375
0.5750000000000004,-2.0,-2.0,-1.0,1.0,0.0,0.0,0.0,-1.0,-0.5643310546875,0.176025390625,-0.1160888671875,0.79815673828125,-0.1533203125,-0.9619140625,0.31005859375,-0.6875,-0.8125,-0.375
0.5800000000000004,-2.0,-2.0,-1.0,1.0,0.0,0.0,0.0,-1.0,-0.5643310546875,0.176025390625,-0.1160888671875,0.79815673828125,-0.1533203125,-0.9619140625,0.31005859375,-0.6875,-0.8125,-0.375
0.5850000000000004,-2.0,-2.0,-1.0,1.0,0.0,0.0,0.0,-1.0,-0.5643310546875,0.176025390625,-0.1160888671875,0.79815673828125,-0.1533203125,-0.9619140625,0.31005859375,-0.6875,-0.8125,-0.375
0.5900000000000004,-2.0,-1.0,-1.0,-1.0,-1.0,0.0,-9.0,-3.0,-0.56414794921875,0.17584228515625,-0.11614990234375,0.79827880859375,-0.15234375,-0.955078125,0.31005859375,1.0,-0.625,-0.625
0.5950000000000004,-2.0,-1.0,-1.0,-1.0,-1.0,0.0,-9.0,-3.0,-0.56414794921875,0.17584228515625,-0.11614990234375,0.79827880859375,-0.15234375,-0.955078125,0.31005859375,1.0,-0.625,-0.625
0.6000000000000004,-2.0,1.0,2.0,0.0,-3.0,-1.0,1.0,-1.0,-0.56414794921875,0.17584228515625,-0.11614990234375,0.79827880859375,-0.15234375,-0.955078125,0.31005859375,1.0,-0.625,-0.625
0.6050000000000004,-2.0,1.0,2.0,0.0,-3.0,-1.0,1.0,-1.0,-0.56414794921875,0.17584228515625,-0.11614990234375,0.79827880859375,-0.15234375,-0.955078125,0.31005859375,1.0,-0.625,-0.625
0.6100000000000004,-2.0,1.0,2.0,0.0,-3.0,-1.0,1.0,-1.0,-0.56414794921875,0.17584228515625,-0.11614990234375,0.79827880859375,-0.15234375,-0.955078125,0.31005859375,1.0,-0.625,-0.625
0.6150000000000004,-2.0,1.0,2.0,0.0,-3.0,-1.0,1.0,-1.0,-0.56414794921875,0.17584228515625,-0.11614990234375,0.79827880859375,-0.15234375,-0.955078125,0.31005859375,1.0,-0.625,-0.625
0.6200000000000004,-2.0,-2.0,-6.0,0.0,4.0,0.0,1.0,0.0,-0.56414794921875,0.17584228515625,-0.11614990234375,0.79833984375,-0.14990234375,-0.9541015625,0.314453125,0.25,-0.875,-0.8125
0.6250000000000004,-2.0,-2.0,-6.0,0.0,4.0,0.0,1.0,0.0,-0.56414794921875,0.17584228515625,-0.11614990234375,0.79833984375,-0.14990234375,-0.9541015625,0.314453125,0.25,-0.875,-0.8125
0.6300000000000004,-2.0,-2.0,-6.0,0.0,4.0,0.0,1.0,0.0,-0.56414794921875,0.17584228515625,-0.11614990234375,0.79833984375,-0.14990234375,-0.9541015625,0.314453125,0.25,-0.875,-0.8125
0.6350000000000005,-2.0,-2.0,-6.0,0.0,4.0,0.0,1.0,0.0,-0.56414794921875,0.17584228515625,-0.11614990234375,0.79833984375,-0.14990234375,-0.9541015625,0.314453125,0.25,-0.875,-0.8125
0.6400000000000005,-1.0,-1.0,-3.0,-1.0,-1.0,-2.0,-1.0,-1.0,-0.56414794921875,0.17584228515625,-0.11614990234375,0.79833984375,-0.14990234375,-0.9541015625,0.314453125,0.25,-0.875,-0.8125
0.6450000000000005,-1.0,-1.0,-3.0,-1.0,-1.0,-2.0,-1.0,-1.0,-0.56414794921875,0.17584228515625,-0.11614990234375,0.79833984375,-0.14990234375,-0.9541015625,0.314453125,0.25,-0.875,-0.8125
0.6500000000000005,-3.0,-2.0,-1.0,-6.0,-6.0,-2.0,-1.0,-1.0,-0.56414794921875,0.1756591796875,-0.1162109375,0.79833984375,-0.15576171875,-0.95654296875,0.31005859375,0.0,-1.0,-1.0625
0.6550000000000005,-3.0,-2.0,-1.0,-6.0,-6.0,-2.0,-1.0,-1.0,-0.56414794921875,0.1756591796875,-0.1162109375,0.79833984375,-0.15576171875,-0.95654296875,0.31005859375,0.0,-1.0,-1.0625
0.6600000000000005,-3.0,-2.0,-1.0,-6.0,-6.0,-2.0,-1.0,-1.0,-0.56414794921875,0.1756591796875,-0.1162109375,0.79833984375,-0.15576171875,-0.95654296875,0.31005859375,0.0,-1.0,-1.0625
0.6650000000000005,-3.0,-2.0,-1.0,-6.0,-6.0,-2.0,-1.0,-1.0,-0.56414794921875,0.1756591796875,-0.1162109375,0.79833984375,-0.15576171875,-0.95654296875,0.31005859375,0.0,-1.0,-1.0625
0.6700000000000005,-1.0,0.0,-4.0,1.0,-5.0,-1.0,1.0,0.0,-0.56414794921875,0.1756591796875,-0.1162109375,0.79840087890625,-0.15771484375,-0.95654296875,0.3115234375,-0.8125,-0.9375,-1.0
0.6750000000000005,-1.0,0.0,-4.0,1.0,-5.0,-1.0,1.0,0.0,-0.56414794921875,0.1756591796875,-0.1162109375,0.79840087890625,-0.15771484375,-0.95654296875,0.3115234375,-0.8125,-0.9375,-1.0
0.6800000000000005,-1.0,-1.0,-9.0,-3.0,-1.0,-3.0,-9.0,-2.0,-0.56414794921875,0.1756591796875,-0.1162109375,0.79840087890625,-0.15771484375,-0.95654296875,0.3115234375,-0.8125,-0.9375,-1.0
0.6850000000000005,-1.0,-1.0,-9.0,-3.0,-1.0,-3.0,-9.0,-2.0,-0.56414794921875,0.1756591796875,-0.1162109375,0.79840087890625,-0.15771484375,-0.95654296875,0.3115234375,-0.8125,-0.9375,-1.0
0.6900000000000005,-1.0,-1.0,-9.0,-3.0,-1.0,-3.0,-9.0,-2.0,-0.56414794921875,0.1756591796875,-0.1162109375,0.79840087890625,-0.15771484375,-0.95654296875,0.3115234375,-0.8125,-0.9375,-1.0
0.6950000000000005,-1.0,-1.0,-9.0,-3.0,-1.0,-3.0,-9.0,-2.0,-0.56414794921875,0.1756591796875,-0.1162109375,0.79840087890625,-0.15771484375,-0.95654296875,0.3115234375,-0.8125,-0.9375,-1.0
0.7000000000000005,-1.0,-1.0,4.0,1.0,-1.0,1.0,0.0,1.0,-0.5640869140625,0.1756591796875,-0.1162109375,0.79840087890625,-0.15234375,-0.96337890625,0.31298828125,-0.25,-0.5625,-0.8125
0.7050000000000005,-1.0,-1.0,4.0,1.0,-1.0,1.0,0.0,1.0,-0.5640869140625,0.1756591796875,-0.1162109375,0.79840087890625,-0.15234375,-0.96337890625,0.31298828125,-0.25,-0.5625,-0.8125
0.7100000000000005,-1.0,-1.0,4.0,1.0,-1.0,1.0,0.0,1.0,-0.5640869140625,0.1756591796875,-0.1162109375,0.79840087890625,-0.15234375,-0.96337890625,0.31298828125,-0.25,-0.5625,-0.8125
0.7150000000000005,-1.0,-2.0,-8.0,-10.0,-4.0,-1.0,1.0,0.0,-0.5640869140625,0.1756591796875,-0.1162109375,0.79840087890625,-0.15234375,-0.96337890625,0.31298828125,-0.25,-0.5625,-0.8125
0.7200000000000005,-1.0,-2.0,-8.0,-10.0,-4.0,-1.0,1.0,0.0,-0.5640869140625,0.1756591796875,-0.1162109375,0.79840087890625,-0.15234375,-0.96337890625,0.31298828125,-0.25,-0.5625,-0.8125
0.7250000000000005,-1.0,-2.0,-8.0,-10.0,-4.0,-1.0,1.0,0.0,-0.5640869140625,0.1756591796875,-0.1162109375,0.79840087890625,-0.15234375,-0.96337890625,0.31298828125,-0.25,-0.5625,-0.8125
0.7300000000000005,2.0,1.0,3.0,3.0,-2.0,-2.0,-1.0,-1.0,-0.5640869140625,0.1756591796875,-0.1162109375,0.79840087890625,-0.150390625,-0.958984375,0.30859375,0.5,-0.375,-0.75
0.7350000000000005,2.0,1.0,3.0,3.0,-2.0,-2.0,-1.0,-1.0,-0.5640869140625,0.1756591796875,-0.1162109375,0.79840087890625,-0.150390625,-0.958984375,0.30859375,0.5,-0.375,-0.75
0.7400000000000005,2.0,1.0,3.0,3.0,-2.0,-2.0,-1.0,-1.0,-0.5640869140625,0.1756591796875,-0.1162109375,0.79840087890625,-0.150390625,-0.958984375,0.30859375,0.5,-0.375,-0.75
0.7450000000000006,2.0,1.0,3.0,3.0,-2.0,-2.0,-1.0,-1.0,-0.5640869140625,0.1756591796875,-0.1162109375,0.79840087890625,-0.150390625,-0.958984375,0.30859375,0.5,-0.375,-0.75
0.7500000000000006,0.0,1.0,2.0,7.0,-2.0,-1.0,3.0,0.0,-0.5640869140625,0.1756591796875,-0.1162109375,0.79840087890625,-0.15087890625,-0.9560546875,0.31005859375,-0.3125,-0.125,-0.5
0.7550000000000006,0.0,1.0,2.0,7.0,-2.0,-1.0,3.0,0.0,-0.5640869140625,0.1756591796875,-0.1162109375,0.79840087890625,-0.15087890625,-0.9560546875,0.31005859375,-0.3125,-0.125,-0.5
0.7600000000000006,-1.0,-2.0,-2.0,-2.0,2.0,0.0,0.0,-3.0,-0.5640869140625,0.1756591796875,-0.1162109375,0.79840087890625,-0.15087890625,-0.9560546875,0.31005859375,-0.3125,-0.125,-0.5
0.7650000000000006,-1.0,-2.0,-2.0,-2.0,2.0,0.0,0.0,-3.0,-0.5640869140625,0.1756591796875,-0.1162109375,0.79840087890625,-0.15087890625,-0.9560546875,0.31005859375,-0.3125,-0.125,-0.5
0.7700000000000006,-1.0,-2.0,-2.0,-2.0,2.0,0.0,0.0,-3.0,-0.5640869140625,0.1756591796875,-0.1162109375,0.79840087890625,-0.15087890625,-0.9560546875,0.31005859375,-0.3125,-0.125,-0.5
0.7750000000000006,-1.0,-2.0,-2.0,-2.0,2.0,0.0,0.0,-3.0,-0.5640869140625,0.1756591796875,-0.1162109375,0.79840087890625,-0.15087890625,-0.9560546875,0.31005859375,-0.3125,-0.125,-0.5
0.7800000000000006,0.0,1.0,1.0,-3.0,-9.0,-5.0,0.0,1.0,-0.5640869140625,0.17559814453125,-0.1162109375,0.79840087890625,-0.1435546875,-0.96142578125,0.3134765625,0.1875,-0.25,-0.5625
0.7850000000000006,0.0,1.0,1.0,-3.0,-9.0,-5.0,0.0,1.0,-0.5640869140625,0.17559814453125,-0.1162109375,0.79840087890625,-0.1435546875,-0.96142578125,0.3134765625,0.1875,-0.25,-0.5625
0.7900000000000006,0.0,1.0,1.0,-3.0,-9.0,-5.0,0.0,1.0,-0.5640869140625,0.17559814453125,-0.1162109375,0.79840087890625,-0.1435546875,-0.96142578125,0.3134765625,0.1875,-0.25,-0.5625
0.7950000000000006,0.0,1.0,1.0,-3.0,-9.0,-5.0,0.0,1.0,-0.5640869140625,0.17559814453125,-0.1162109375,0.79840087890625,-0.1435546875,-0.96142578125,0.3134765625,0.1875,-0.25,-0.5625
0.8000000000000006,-3.0,-4.0,-6.0,0.0,-2.0,-2.0,1.0,-1.0,-0.5640869140625,0.17559814453125,-0.1162109375,0.79840087890625,-0.1435546875,-0.96142578125,0.3134765625,0.1875,-0.25,-0.5625
0.8050000000000006,-3.0,-4.0,-6.0,0.0,-2.0,-2.0,1.0,-1.0,-0.5640869140625,0.17559814453125,-0.1162109375,0.79840087890625,-0.1435546875,-0.96142578125,0.3134765625,0.1875,-0.25,-0.5625
0.8100000000000006,-3.0,-4.0,-6.0,0.0,-2.0,-2.0,1.0,-1.0,-0.5640869140625,0.17559814453125,-0.1162109375,0.79840087890625,-0.14306640625,-0.95556640625,0.30224609375,-0.25,-0.1875,-0.125
0.8150000000000006,-2.0,-3.0,1.0,2.0,3.0,4.0,4.0,0.0,-0.5640869140625,0.17559814453125,-0.1162109375,0.79840087890625,-0.14306640625,-0.95556640625,0.30224609375,-0.25,-0.1875,-0.125
0.8200000000000006,-2.0,-3.0,1.0,2.0,3.0,4.0,4.0,0.0,-0.5640869140625,0.17559814453125,-0.1162109375,0.79840087890625,-0.14306640625,-0.95556640625,0.30224609375,-0.25,-0.1875,-0.125
0.8250000000000006,-2.0,-3.0,1.0,2.0,3.0,4.0,4.0,0.0,-0.5640869140625,0.17559814453125,-0.1162109375,0.79840087890625,-0.14306640625,-0.95556640625,0.30224609375,-0.25,-0.1875,-0.125
0.8300000000000006,0.0,-2.0,-2.0,-9.0,-11.0,-2.0,-3.0,-2.0,-0.5640869140625,0.175537109375,-0.1162109375,0.79840087890625,-0.14208984375,-0.9580078125,0.30810546875,-0.1875,0.5,0.1875
0.8350000000000006,0.0,-2.0,-2.0,-9.0,-11.0,-2.0,-3.0,-2.0,-0.5640869140625,0.175537109375,-0.1162109375,0.79840087890625,-0.14208984375,-0.9580078125,0.30810546875,-0.1875,0.5,0.1875
0.8400000000000006,-1.0,1.0,1.0,3.0,4.0,2.0,2.0,-2.0,-0.5640869140625,0.175537109375,-0.1162109375,0.79840087890625,-0.14208984375,-0.9580078125,0.30810546875,-0.1875,0.5,0.1875
0.8450000000000006,-1.0,1.0,1.0,3.0,4.0,2.0,2.0,-2.0,-0.5640869140625,0.175537109375,-0.1162109375,0.79840087890625,-0.14208984375,-0.9580078125,0.30810546875,-0.1875,0.5,0.1875
0.8500000000000006,-1.0,1.0,1.0,3.0,4.0,2.0,2.0,-2.0,-0.5640869140625,0.175537109375,-0.1162109375,0.79840087890625,-0.14208984375,-0.9580078125,0.30810546875,-0.1875,0.5,0.1875
0.8550000000000006,-1.0,1.0,1.0,3.0,4.0,2.0,2.0,-2.0,-0.5640869140625,0.175537109375,-0.1162109375,0.79840087890625,-0.14208984375,-0.9580078125,0.30810546875,-0.1875,0.5,0.1875
0.8600000000000007,-2.0,-2.0,2.0,1.0,-2.0,-5.0,-3.0,-1.0,-0.5640869140625,0.175537109375,-0.11627197265625,0.79840087890625,-0.14892578125,-0.96630859375,0.31005859375,-0.5,0.5,0.5
0.8650000000000007,-2.0,-2.0,-8.0,-1.0,3.0,2.0,0.0,1.0,-0.5640869140625,0.175537109375,-0.11627197265625,0.79840087890625,-0.14892578125,-0.96630859375,0.31005859375,-0.5,0.5,0.5
0.8700000000000007,-2.0,-2.0,-8.0,-1.0,3.0,2.0,0.0,1.0,-0.5640869140625,0.175537109375,-0.11627197265625,0.79840087890625,-0.14892578125,-0.96630859375,0.31005859375,-0.5,0.5,0.5
0.8750000000000007,0.0,-3.0,1.0,4.0,4.0,0.0,1.0,-1.0,-0.5640869140625,0.175537109375,-0.11627197265625,0.79840087890625,-0.14892578125,-0.96630859375,0.31005859375,-0.5,0.5,0.5
0.8800000000000007,-1.0,-3.0,-2.0,5.0,-1.0,1.0,1.0,0.0,-0.5640869140625,0.175537109375,-0.11627197265625,0.79840087890625,-0.14501953125,-0.9619140625,0.31494140625,-0.0625,0.3125,0.5
0.8850000000000007,-3.0,-2.0,0.0,-8.0,-9.0,-11.0,-5.0,-2.0,-0.5640869140625,0.175537109375,-0.11627197265625,0.79840087890625,-0.14501953125,-0.9619140625,0.31494140625,-0.0625,0.3125,0.5
0.8900000000000007,-3.0,-2.0,0.0,-8.0,-9.0,-11.0,-5.0,-2.0,-0.5640869140625,0.175537109375,-0.11627197265625,0.79840087890625,-0.14501953125,-0.9619140625,0.31494140625,-0.0625,0.3125,0.5
0.8950000000000007,-3.0,-2.0,0.0,-8.0,-9.0,-11.0,-5.0,-2.0,-0.5640869140625,0.175537109375,-0.11627197265625,0.79840087890625,-0.14501953125,-0.9619140625,0.31494140625,-0.0625,0.3125,0.5
0.9000000000000007,-1.0,0.0,-1.0,-1.0,3.0,-5.0,0.0,0.0,-0.5640869140625,0.175537109375,-0.11627197265625,0.79840087890625,-0.14404296875,-0.96142578125,0.3056640625,-1.0,0.5,0.875
0.9050000000000007,-1.0,-2.0,4.0,-3.0,-3.0,0.0,-1.0,-2.0,-0.5640869140625,0.175537109375,-0.11627197265625,0.79840087890625,-0.14404296875,-0.96142578125,0.3056640625,-1.0,0.5,0.875
0.9100000000000007,-1.0,-2.0,4.0,-3.0,-3.0,0.0,-1.0,-2.0,-0.5640869140625,0.175537109375,-0.11627197265625,0.79840087890625,-0.14404296875,-0.96142578125,0.3056640625,-1.0,0.5,0.875
0.9150000000000007,-1.0,-2.0,4.0,-3.0,-3.0,0.0,-1.0,-2.0,-0.5640869140625,0.175537109375,-0.11627197265625,0.79840087890625,-0.14404296875,-0.96142578125,0.3056640625,-1.0,0.5,0.875
0.9200000000000007,-1.0,-2.0,4.0,-3.0,-3.0,0.0,-1.0,-2.0,-0.5640869140625,0.175537109375,-0.11627197265625,0.79840087890625,-0.14404296875,-0.96142578125,0.3056640625,-1.0,0.5,0.875
0.9250000000000007,0.0,-2.0,-3.0,-5.0,-1.0,0.0,-1.0,-1.0,-0.5640869140625,0.175537109375,-0.11627197265625,0.79840087890625,-0.14404296875,-0.96142578125,0.3056640625,-1.0,0.5,0.875
0.9300000000000007,0.0,2.0,0.0,2.0,2.0,1.0,-1.0,-1.0,-0.5643310546875,0.17578125,-0.11614990234375,0.7982177734375,-0.1533203125,-0.96240234375,0.3056640625,-1.9375,0.875,1.1875
0.9350000000000007,-1.0,-1.0,1.0,3.0,2.0,1.0,1.0,0.0,-0.5643310546875,0.17578125,-0.11614990234375,0.7982177734375,-0.1533203125,-0.96240234375,0.3056640625,-1.9375,0.875,1.1875
0.9400000000000007,-1.0,-1.0,1.0,3.0,2.0,1.0,1.0,0.0,-0.5643310546875,0.17578125,-0.11614990234375,0.7982177734375,-0.1533203125,-0.96240234375,0.3056640625,-1.9375,0.875,1.1875
0.9450000000000007,-1.0,-2.0,1.0,-1.0,1.0,0.0,2.0,-2.0,-0.5643310546875,0.17578125,-0.11614990234375,0.7982177734375,-0.1533203125,-0.96240234375,0.3056640625,-1.9375,0.875,1.1875
0.9500000000000007,-1.0,-2.0,-5.0,-4.0,-4.0,-3.0,-1.0,-2.0,-0.564453125,0.17608642578125,-0.115966796875,0.79803466796875,-0.1513671875,-0.9560546875,0.30810546875,-1.75,0.9375,1.375
0.9550000000000007,-1.0,-2.0,-5.0,-4.0,-4.0,-3.0,-1.0,-2.0,-0.564453125,0.17608642578125,-0.115966796875,0.79803466796875,-0.1513671875,-0.9560546875,0.30810546875,-1.75,0.9375,1.375
0.9600000000000007,-1.0,-2.0,-5.0,-4.0,-4.0,-3.0,-1.0,-2.0,-0.564453125,0.17608642578125,-0.115966796875,0.79803466796875,-0.1513671875,-0.9560546875,0.30810546875,-1.75,0.9375,1.375
0.9650000000000007,-1.0,-1.0,-1.0,-1.0,-6.0,-4.0,0.0,-1.0,-0.5648193359375,0.17645263671875,-0.11572265625,0.79779052734375,-0.15478515625,-0.96142578125,0.30908203125,-3.125,0.9375,1.9375
0.9700000000000008,-2.0,-1.0,1.0,-2.0,3.0,1.0,2.0,-1.0,-0.5648193359375,0.17645263671875,-0.11572265625,0.79779052734375,-0.15478515625,-0.96142578125,0.30908203125,-3.125,0.9375,1.9375
0.9750000000000008,0.0,0.0,-4.0,-4.0,9.0,4.0,-1.0,-2.0,-0.5648193359375,0.17645263671875,-0.11572265625,0.79779052734375,-0.15478515625,-0.96142578125,0.30908203125,-3.125,0.9375,1.9375
0.9800000000000008,0.0,0.0,-4.0,-4.0,9.0,4.0,-1.0,-2.0,-0.5648193359375,0.17645263671875,-0.11572265625,0.79779052734375,-0.15478515625,-0.96142578125,0.30908203125,-3.125,0.9375,1.9375
0.9850000000000008,0.0,-2.0,-3.0,3.0,-5.0,-3.0,-4.0,1.0,-0.5650634765625,0.17681884765625,-0.11541748046875,0.79754638671875,-0.15576171875,-0.9697265625,0.3046875,-2.375,0.625,2.125
0.9900000000000008,-2.0,-3.0,-2.0,-1.0,-6.0,-4.0,-4.0,-2.0,-0.5650634765625,0.17681884765625,-0.11541748046875,0.79754638671875,-0.15576171875,-0.9697265625,0.3046875,-2.375,0.625,2.125
0.9950000000000008,0.0,-1.0,3.0,-3.0,-7.0,-4.0,-4.0,-1.0,-0.5650634765625,0.17681884765625,-0.11541748046875,0.79754638671875,-0.15576171875,-0.9697265625,0.3046875,-2.375,0.625,2.125
1.0000000000000007,-1.0,-3.0,-10.0,-10.0,0.0,-1.0,0.0,-2.0,-0.5650634765625,0.17681884765625,-0.11541748046875,0.79754638671875,-0.15576171875,-0.9697265625,0.3046875,-2.375,0.625,2.125
1.0050000000000006,-1.0,-2.0,-7.0,-4.0,-1.0,4.0,0.0,0.0,-0.56494140625,0.1771240234375,-0.11517333984375,0.797607421875,-0.1513671875,-0.96337890625,0.30322265625,0.25,0.75,2.375
1.0100000000000005,-1.0,-2.0,-7.0,-4.0,-1.0,4.0,0.0,0.0,-0.56494140625,0.1771240234375,-0.11517333984375,0.797607421875,-0.1513671875,-0.96337890625,0.30322265625,0.25,0.75,2.375
1.0150000000000003,-1.0,-2.0,-7.0,-4.0,-1.0,4.0,0.0,0.0,-0.56494140625,0.1771240234375,-0.11517333984375,0.797607421875,-0.1513671875,-0.96337890625,0.30322265625,0.25,0.75,2.375
1.0200000000000002,-1.0,-2.0,-7.0,-4.0,-1.0,4.0,0.0,0.0,-0.56494140625,0.1771240234375,-0.11517333984375,0.797607421875,-0.1513671875,-0.96337890625,0.30322265625,0.25,0.75,2.375
1.0250000000000001,0.0,-1.0,0.0,0.0,-3.0,1.0,-4.0,-3.0,-0.56475830078125,0.17742919921875,-0.114990234375,0.7977294921875,-0.1552734375,-0.95703125,0.306640625,0.75,0.8125,2.1875
1.03,0.0,0.0,2.0,2.0,-3.0,-4.0,-1.0,-2.0,-0.56475830078125,0.17742919921875,-0.114990234375,0.7977294921875,-0.1552734375,-0.95703125,0.306640625,0.75,0.8125,2.1875
1.035,0.0,0.0,2.0,2.0,-3.0,-4.0,-1.0,-2.0,-0.56475830078125,0.17742919921875,-0.114990234375,0.7977294921875,-0.1552734375,-0.95703125,0.306640625,0.75,0.8125,2.1875
1.0399999999999998,0.0,0.0,2.0,2.0,-3.0,-4.0,-1.0,-2.0,-0.56475830078125,0.17742919921875,-0.114990234375,0.7977294921875,-0.1552734375,-0.95703125,0.306640625,0.75,0.8125,2.1875
1.0449999999999997,0.0,0.0,2.0,2.0,-3.0,-4.0,-1.0,-2.0,-0.56475830078125,0.17742919921875,-0.114990234375,0.7977294921875,-0.1552734375,-0.95703125,0.306640625,0.75,0.8125,2.1875
1.0499999999999996,-1.0,-2.0,-4.0,0.0,4.0,3.0,-5.0,0.0,-0.56463623046875,0.17767333984375,-0.11480712890625,0.7977294921875,-0.1572265625,-0.95654296875,0.3037109375,0.1875,0.4375,1.6875
1.0549999999999995,-2.0,-2.0,-9.0,-3.0,-6.0,-4.0,-13.0,-2.0,-0.56463623046875,0.17767333984375,-0.11480712890625,0.7977294921875,-0.1572265625,-0.95654296875,0.3037109375,0.1875,0.4375,1.6875
1.0599999999999994,-2.0,-2.0,-9.0,-3.0,-6.0,-4.0,-13.0,-2.0,-0.56463623046875,0.17767333984375,-0.11480712890625,0.7977294921875,-0.1572265625,-0.95654296875,0.3037109375,0.1875,0.4375,1.6875
1.0649999999999993,-2.0,-2.0,-9.0,-3.0,-6.0,-4.0,-13.0,-2.0,-0.56463623046875,0.17767333984375,-0.11480712890625,0.7977294921875,-0.1572265625,-0.95654296875,0.3037109375,0.1875,0.4375,1.6875
1.0699999999999992,-3.0,0.0,1.0,1.0,3.0,0.0,4.0,-1.0,-0.56463623046875,0.17767333984375,-0.11480712890625,0.7977294921875,-0.1572265625,-0.95654296875,0.3037109375,0.1875,0.4375,1.6875
1.074999999999999,0.0,-1.0,1.0,-3.0,-1.0,0.0,4.0,0.0,-0.56451416015625,0.177734375,-0.11468505859375,0.7978515625,-0.150390625,-0.951171875,0.306640625,0.6875,-0.0625,1.125
1.079999999999999,0.0,-1.0,1.0,-3.0,-1.0,0.0,4.0,0.0,-0.56451416015625,0.177734375,-0.11468505859375,0.7978515625,-0.150390625,-0.951171875,0.306640625,0.6875,-0.0625,1.125
1.0849999999999989,0.0,-1.0,1.0,-3.0,-1.0,0.0,4.0,0.0,-0.56451416015625,0.177734375,-0.11468505859375,0.7978515625,-0.150390625,-0.951171875,0.306640625,0.6875,-0.0625,1.125
1.0899999999999987,-1.0,-2.0,4.0,3.0,-1.0,2.0,0.0,0.0,-0.564453125,0.177734375,-0.11468505859375,0.7978515625,-0.15576171875,-0.9560546875,0.30908203125,0.3125,-0.4375,0.75
1.0949999999999986,0.0,-2.0,-3.0,1.0,-1.0,-2.0,1.0,0.0,-0.564453125,0.177734375,-0.11468505859375,0.7978515625,-0.15576171875,-0.9560546875,0.30908203125,0.3125,-0.4375,0.75
1.0999999999999985,0.0,-2.0,-3.0,1.0,-1.0,-2.0,1.0,0.0,-0.564453125,0.177734375,-0.11468505859375,0.7978515625,-0.15576171875,-0.9560546875,0.30908203125,0.3125,-0.4375,0.75
1.1049999999999984,0.0,-2.0,-3.0,1.0,-1.0,-2.0,1.0,0.0,-0.564453125,0.177734375,-0.11468505859375,0.7978515625,-0.15576171875,-0.9560546875,0.30908203125,0.3125,-0.4375,0.75
1.1099999999999983,0.0,-2.0,-3.0,1.0,-1.0,-2.0,1.0,0.0,-0.564453125,0.177734375,-0.11468505859375,0.7978515625,-0.15576171875,-0.9560546875,0.30908203125,0.3125,-0.4375,0.75
1.1149999999999982,-1.0,1.0,5.0,0.0,-4.0,-5.0,-4.0,-2.0,-0.564453125,0.177734375,-0.11468505859375,0.7978515625,-0.15576171875,-0.9560546875,0.30908203125,0.3125,-0.4375,0.75
1.119999999999998,-1.0,1.0,5.0,0.0,-4.0,-5.0,-4.0,-2.0,-0.56451416015625,0.177734375,-0.11468505859375,0.7978515625,-0.1572265625,-0.95849609375,0.298828125,0.0,-1.0,-0.0625
1.124999999999998,0.0,-1.0,2.0,4.0,9.0,9.0,9.0,4.0,-0.56451416015625,0.177734375,-0.11468505859375,0.7978515625,-0.1572265625,-0.95849609375,0.298828125,0.0,-1.0,-0.0625
1.129999999999998,0.0,-1.0,2.0,4.0,9.0,9.0,9.0,4.0,-0.56451416015625,0.177734375,-0.11468505859375,0.7978515625,-0.1572265625,-0.95849609375,0.298828125,0.0,-1.0,-0.0625
1.1349999999999978,0.0,-1.0,2.0,4.0,9.0,9.0,9.0,4.0,-0.56451416015625,0.177734375,-0.11468505859375,0.7978515625,-0.1572265625,-0.95849609375,0.298828125,0.0,-1.0,-0.0625
1.1399999999999977,0.0,-1.0,2.0,4.0,9.0,9.0,9.0,4.0,-0.56451416015625,0.177734375,-0.11468505859375,0.7978515625,-0.1572265625,-0.95849609375,0.298828125,0.0,-1.0,-0.0625
1.1449999999999976,-2.0,-2.0,0.0,-5.0,-7.0,-2.0,-4.0,-1.0,-0.564453125,0.17742919921875,-0.11480712890625,0.7979736328125,-0.15185546875,-0.9541015625,0.3046875,0.625,-1.0625,-0.9375
1.1499999999999975,-2.0,-2.0,0.0,-5.0,-7.0,-2.0,-4.0,-1.0,-0.564453125,0.17742919921875,-0.11480712890625,0.7979736328125,-0.15185546875,-0.9541015625,0.3046875,0.625,-1.0625,-0.9375
1.1549999999999974,-2.0,1.0,-3.0,-1.0,1.0,2.0,1.0,1.0,-0.56451416015625,0.17724609375,-0.11474609375,0.7979736328125,-0.15771484375,-0.958984375,0.3017578125,0.0625,-1.1875,-0.6875
1.1599999999999973,-2.0,1.0,-3.0,-1.0,1.0,2.0,1.0,1.0,-0.56451416015625,0.17724609375,-0.11474609375,0.7979736328125,-0.15771484375,-0.958984375,0.3017578125,0.0625,-1.1875,-0.6875
1.1649999999999971,-1.0,0.0,1.0,4.0,7.0,-4.0,0.0,-1.0,-0.56451416015625,0.17724609375,-0.11474609375,0.7979736328125,-0.15771484375,-0.958984375,0.3017578125,0.0625,-1.1875,-0.6875
1.169999999999997,-1.0,0.0,1.0,4.0,7.0,-4.0,0.0,-1.0,-0.56451416015625,0.17724609375,-0.11474609375,0.7979736328125,-0.15771484375,-0.958984375,0.3017578125,0.0625,-1.1875,-0.6875
1.174999999999997,-1.0,0.0,1.0,4.0,7.0,-4.0,0.0,-1.0,-0.56451416015625,0.17724609375,-0.11474609375,0.7979736328125,-0.15771484375,-0.958984375,0.3017578125,0.0625,-1.1875,-0.6875
1.1799999999999968,-1.0,0.0,1.0,4.0,7.0,-4.0,0.0,-1.0,-0.56451416015625,0.17724609375,-0.11474609375,0.7979736328125,-0.15771484375,-0.958984375,0.3017578125,0.0625,-1.1875,-0.6875
1.1849999999999967,-1.0,-3.0,-9.0,-9.0,-5.0,-3.0,-4.0,-2.0,-0.56439208984375,0.1768798828125,-0.1148681640625,0.798095703125,-0.1533203125,-0.96337890625,0.30810546875,0.9375,-1.1875,-1.3125
1.1899999999999966,-1.0,-2.0,-2.0,-3.0,-9.0,-7.0,-4.0,-2.0,-0.56439208984375,0.1768798828125,-0.1148681640625,0.798095703125,-0.1533203125,-0.96337890625,0.30810546875,0.9375,-1.1875,-1.3125
1.1949999999999965,-1.0,-2.0,-2.0,-3.0,-9.0,-7.0,-4.0,-2.0,-0.56439208984375,0.1768798828125,-0.1148681640625,0.798095703125,-0.1533203125,-0.96337890625,0.30810546875,0.9375,-1.1875,-1.3125
1.1999999999999964,-1.0,-2.0,-2.0,-3.0,-9.0,-7.0,-4.0,-2.0,-0.56439208984375,0.1768798828125,-0.1148681640625,0.798095703125,-0.1533203125,-0.96337890625,0.30810546875,0.9375,-1.1875,-1.3125
1.2049999999999963,-1.0,-2.0,-2.0,-3.0,-9.0,-7.0,-4.0,-2.0,-0.56439208984375,0.1768798828125,-0.1148681640625,0.798095703125,-0.1533203125,-0.96337890625,0.30810546875,0.9375,-1.1875,-1.3125
1.2099999999999962,1.0,-3.0,-3.0,4.0,4.0,1.0,3.0,0.0,-0.56439208984375,0.1766357421875,-0.11492919921875,0.798095703125,-0.15673828125,-0.96240234375,0.306640625,0.3125,-0.875,-1.25
1.214999999999996,-1.0,-1.0,2.0,-1.0,-2.0,-2.0,0.0,-2.0,-0.56439208984375,0.1766357421875,-0.11492919921875,0.798095703125,-0.15673828125,-0.96240234375,0.306640625,0.3125,-0.875,-1.25
1.219999999999996,-1.0,-1.0,2.0,-1.0,-2.0,-2.0,0.0,-2.0,-0.56439208984375,0.1766357421875,-0.11492919921875,0.798095703125,-0.15673828125,-0.96240234375,0.306640625,0.3125,-0.875,-1.25
1.2249999999999959,-1.0,-1.0,2.0,-1.0,-2.0,-2.0,0.0,-2.0,-0.56439208984375,0.1766357421875,-0.11492919921875,0.798095703125,-0.15673828125,-0.96240234375,0.306640625,0.3125,-0.875,-1.25
1.2299999999999958,-3.0,-1.0,-2.0,-1.0,-4.0,-1.0,-7.0,-4.0,-0.5643310546875,0.17633056640625,-0.11517333984375,0.7982177734375,-0.146484375,-0.95751953125,0.31103515625,1.0,-0.5625,-1.5
1.2349999999999957,-3.0,-1.0,-2.0,-1.0,-4.0,-1.0,-7.0,-4.0,-0.5643310546875,0.17633056640625,-0.11517333984375,0.7982177734375,-0.146484375,-0.95751953125,0.31103515625,1.0,-0.5625,-1.5
1.2399999999999956,-2.0,-2.0,-6.0,-4.0,-4.0,-2.0,-4.0,-1.0,-0.5643310546875,0.17633056640625,-0.11517333984375,0.7982177734375,-0.146484375,-0.95751953125,0.31103515625,1.0,-0.5625,-1.5
1.2449999999999954,-2.0,-2.0,-6.0,-4.0,-4.0,-2.0,-4.0,-1.0,-0.5643310546875,0.17633056640625,-0.11517333984375,0.7982177734375,-0.146484375,-0.95751953125,0.31103515625,1.0,-0.5625,-1.5
1.2499999999999953,-2.0,-2.0,-6.0,-4.0,-4.0,-2.0,-4.0,-1.0,-0.5643310546875,0.17633056640625,-0.11517333984375,0.7982177734375,-0.146484375,-0.95751953125,0.31103515625,1.0,-0.5625,-1.5
1.2549999999999952,-2.0,-2.0,-6.0,-4.0,-4.0,-2.0,-4.0,-1.0,-0.5643310546875,0.17633056640625,-0.11517333984375,0.7982177734375,-0.146484375,-0.95751953125,0.31103515625,1.0,-0.5625,-1.5
1.2599999999999951,-1.0,1.0,1.0,0.0,3.0,3.0,3.0,1.0,-0.5643310546875,0.17633056640625,-0.11517333984375,0.7982177734375,-0.15478515625,-0.9619140625,0.3017578125,0.375,-0.125,-0.6875
1.264999999999995,1.0,2.0,2.0,2.0,-2.0,-1.0,-2.0,-1.0,-0.5643310546875,0.17633056640625,-0.11517333984375,0.7982177734375,-0.15478515625,-0.9619140625,0.3017578125,0.375,-0.125,-0.6875
1.269999999999995,1.0,2.0,2.0,2.0,-2.0,-1.0,-2.0,-1.0,-0.5643310546875,0.17633056640625,-0.11517333984375,0.7982177734375,-0.15478515625,-0.9619140625,0.3017578125,0.375,-0.125,-0.6875
1.2749999999999948,1.0,2.0,2.0,2.0,-2.0,-1.0,-2.0,-1.0,-0.5643310546875,0.17633056640625,-0.11517333984375,0.7982177734375,-0.15478515625,-0.9619140625,0.3017578125,0.375,-0.125,-0.6875
1.2799999999999947,1.0,2.0,2.0,2.0,-2.0,-1.0,-2.0,-1.0,-0.5643310546875,0.17633056640625,-0.11517333984375,0.7982177734375,-0.15478515625,-0.9619140625,0.3017578125,0.375,-0.125,-0.6875
1.2849999999999946,1.0,2.0,2.0,2.0,-2.0,-1.0,-2.0,-1.0,-0.5643310546875,0.17633056640625,-0.11517333984375,0.7982177734375,-0.15478515625,-0.9619140625,0.3017578125,0.375,-0.125,-0.6875
1.2899999999999945,-1.0,-1.0,2.0,1.0,-1.0,-1.0,-4.0,-2.0,-0.564208984375,0.17608642578125,-0.11541748046875,0.79833984375,-0.14599609375,-0.95751953125,0.31201171875,0.5625,-0.0625,-1.0625
1.2949999999999944,-1.0,-1.0,2.0,1.0,-1.0,-1.0,-4.0,-2.0,-0.564208984375,0.17608642578125,-0.11541748046875,0.79833984375,-0.14599609375,-0.95751953125,0.31201171875,0.5625,-0.0625,-1.0625
1.2999999999999943,-1.0,-1.0,2.0,1.0,-1.0,-1.0,-4.0,-2.0,-0.564208984375,0.17608642578125,-0.11541748046875,0.79833984375,-0.14599609375,-0.95751953125,0.31201171875,0.5625,-0.0625,-1.0625
1.3049999999999942,0.0,0.0,2.0,1.0,-5.0,-5.0,-4.0,-1.0,-0.564208984375,0.17608642578125,-0.11541748046875,0.79827880859375,-0.150390625,-0.958984375,0.3046875,-0.3125,-0.1875,-0.625
1.309999999999994,0.0,0.0,2.0,1.0,-5.0,-5.0,-4.0,-1.0,-0.564208984375,0.17608642578125,-0.11541748046875,0.79827880859375,-0.150390625,-0.958984375,0.3046875,-0.3125,-0.1875,-0.625
1.314999999999994,-1.0,-1.0,-2.0,-4.0,-3.0,0.0,0.0,-1.0,-0.564208984375,0.17608642578125,-0.11541748046875,0.79827880859375,-0.150390625,-0.958984375,0.3046875,-0.3125,-0.1875,-0.625
1.3199999999999938,-1.0,-1.0,-2.0,-4.0,-3.0,0.0,0.0,-1.0,-0.564208984375,0.17608642578125,-0.11541748046875,0.79827880859375,-0.150390625,-0.958984375,0.3046875,-0.3125,-0.1875,-0.625
1.3249999999999937,-1.0,-1.0,-2.0,-4.0,-3.0,0.0,0.0,-1.0,-0.564208984375,0.17608642578125,-0.11541748046875,0.79827880859375,-0.150390625,-0.958984375,0.3046875,-0.3125,-0.1875,-0.625
1.3299999999999936,-1.0,-1.0,-2.0,-4.0,-3.0,0.0,0.0,-1.0,-0.564208984375,0.17608642578125,-0.11541748046875,0.79827880859375,-0.150390625,-0.958984375,0.3046875,-0.3125,-0.1875,-0.625
1.3349999999999935,-4.0,-2.0,0.0,3.0,4.0,5.0,1.0,1.0,-0.564208984375,0.17608642578125,-0.11541748046875,0.79833984375,-0.1455078125,-0.9599609375,0.3125,0.3125,0.0625,-1.0
1.3399999999999934,-4.0,-2.0,0.0,3.0,4.0,5.0,1.0,1.0,-0.564208984375,0.17608642578125,-0.11541748046875,0.79833984375,-0.1455078125,-0.9599609375,0.3125,0.3125,0.0625,-1.0
1.3449999999999933,-1.0,-3.0,-1.0,-4.0,1.0,1.0,1.0,-1.0,-0.564208984375,0.17608642578125,-0.11541748046875,0.79833984375,-0.1455078125,-0.9599609375,0.3125,0.3125,0.0625,-1.0
1.3499999999999932,-1.0,-3.0,-1.0,-4.0,1.0,1.0,1.0,-1.0,-0.564208984375,0.17608642578125,-0.11541748046875,0.79833984375,-0.1455078125,-0.9599609375,0.3125,0.3125,0.0625,-1.0
1.354999999999993,-1.0,-3.0,-1.0,-4.0,1.0,1.0,1.0,-1.0,-0.564208984375,0.17608642578125,-0.11541748046875,0.79833984375,-0.1455078125,-0.9599609375,0.3125,0.3125,0.0625,-1.0
1.359999999999993,-1.0,-3.0,-1.0,-4.0,1.0,1.0,1.0,-1.0,-0.564208984375,0.17608642578125,-0.11541748046875,0.79833984375,-0.1455078125,-0.9599609375,0.3125,0.3125,0.0625,-1.0
1.3649999999999929,0.0,-2.0,-3.0,0.0,-5.0,-5.0,-2.0,-1.0,-0.564208984375,0.17608642578125,-0.11541748046875,0.79833984375,-0.15283203125,-0.95654296875,0.31005859375,0.0625,0.0,-0.4375
1.3699999999999928,-3.0,0.0,1.0,2.0,-3.0,-3.0,-4.0,-4.0,-0.564208984375,0.17608642578125,-0.11541748046875,0.79833984375,-0.15283203125,-0.95654296875,0.31005859375,0.0625,0.0,-0.4375
1.3749999999999927,-3.0,0.0,1.0,2.0,-3.0,-3.0,-4.0,-4.0,-0.564208984375,0.17608642578125,-0.11541748046875,0.79833984375,-0.15283203125,-0.95654296875,0.31005859375,0.0625,0.0,-0.4375
1.3799999999999926,-3.0,0.0,1.0,2.0,-3.0,-3.0,-4.0,-4.0,-0.564208984375,0.17608642578125,-0.11541748046875,0.79833984375,-0.15283203125,-0.95654296875,0.31005859375,0.0625,0.0,-0.4375
1.3849999999999925,1.0,-1.0,-4.0,3.0,5.0,3.0,4.0,2.0,-0.564208984375,0.17608642578125,-0.11541748046875,0.79833984375,-0.15576171875,-0.9580078125,0.30029296875,0.1875,-0.1875,-0.375
1.3899999999999924,1.0,-3.0,-4.0,-3.0,-3.0,-5.0,1.0,-1.0,-0.564208984375,0.17608642578125,-0.11541748046875,0.79833984375,-0.15576171875,-0.9580078125,0.30029296875,0.1875,-0.1875,-0.375
1.3949999999999922,1.0,-3.0,-4.0,-3.0,-3.0,-5.0,1.0,-1.0,-0.564208984375,0.17608642578125,-0.11541748046875,0.79833984375,-0.15576171875,-0.9580078125,0.30029296875,0.1875,-0.1875,-0.375
1.3999999999999921,1.0,-3.0,-4.0,-3.0,-3.0,-5.0,1.0,-1.0,-0.564208984375,0.17608642578125,-0.11541748046875,0.79833984375,-0.15576171875,-0.9580078125,0.30029296875,0.1875,-0.1875,-0.375
1.404999999999992,1.0,-3.0,-4.0,-3.0,-3.0,-5.0,1.0,-1.0,-0.564208984375,0.17608642578125,-0.11541748046875,0.79833984375,-0.15576171875,-0.9580078125,0.30029296875,0.1875,-0.1875,-0.375
1.409999999999992,1.0,-3.0,-4.0,-3.0,-3.0,-5.0,1.0,-1.0,-0.564208984375,0.17608642578125,-0.11541748046875,0.79833984375,-0.15576171875,-0.9580078125,0.30029296875,0.1875,-0.1875,-0.375
1.4149999999999918,0.0,0.0,-3.0,-1.0,-2.0,-2.0,-5.0,-3.0,-0.564208984375,0.17608642578125,-0.11541748046875,0.79833984375,-0.14794921875,-0.9599609375,0.3076171875,0.4375,0.125,-0.5625
1.4199999999999917,0.0,0.0,-3.0,-1.0,-2.0,-2.0,-5.0,-3.0,-0.564208984375,0.17608642578125,-0.11541748046875,0.79833984375,-0.14794921875,-0.9599609375,0.3076171875,0.4375,0.125,-0.5625
1.4249999999999916,-1.0,-2.0,0.0,-3.0,-2.0,-2.0,-2.0,0.0,-0.564208984375,0.17608642578125,-0.11541748046875,0.79833984375,-0.14794921875,-0.9599609375,0.3076171875,0.4375,0.125,-0.5625
1.4299999999999915,-1.0,-2.0,0.0,-3.0,-2.0,-2.0,-2.0,0.0,-0.564208984375,0.17608642578125,-0.11541748046875,0.79833984375,-0.14794921875,-0.9599609375,0.3076171875,0.4375,0.125,-0.5625
1.4349999999999914,-1.0,-2.0,0.0,-3.0,-2.0,-2.0,-2.0,0.0,-0.564208984375,0.17608642578125,-0.11541748046875,0.79833984375,-0.14794921875,-0.9599609375,0.3076171875,0.4375,0.125,-0.5625
1.4399999999999913,-2.0,-2.0,-2.0,-6.0,-4.0,-4.0,1.0,-1.0,-0.564208984375,0.17608642578125,-0.11541748046875,0.79833984375,-0.1552734375,-0.96435546875,0.31103515625,-0.1875,0.0625,-0.25
1.4449999999999912,-2.0,-2.0,-2.0,-6.0,-4.0,-4.0,1.0,-1.0,-0.564208984375,0.17608642578125,-0.11541748046875,0.79833984375,-0.1552734375,-0.96435546875,0.31103515625,-0.1875,0.0625,-0.25
1.449999999999991,-1.0,1.0,1.0,2.0,-6.0,-2.0,-2.0,-3.0,-0.564208984375,0.17608642578125,-0.11541748046875,0.79833984375,-0.1552734375,-0.96435546875,0.31103515625,-0.1875,0.0625,-0.25
1.454999999999991,-1.0,1.0,1.0,2.0,-6.0,-2.0,-2.0,-3.0,-0.564208984375,0.17608642578125,-0.11541748046875,0.79833984375,-0.15087890625,-0.95556640625,0.30712890625,0.0,-0.0625,-0.375
1.4599999999999909,-1.0,1.0,1.0,2.0,-6.0,-2.0,-2.0,-3.0,-0.564208984375,0.17608642578125,-0.11541748046875,0.79833984375,-0.15087890625,-0.95556640625,0.30712890625,0.0,-0.0625,-0.375
1.4649999999999908,-2.0,0.0,2.0,3.0,6.0,1.0,-1.0,0.0,-0.564208984375,0.17608642578125,-0.11541748046875,0.79833984375,-0.15087890625,-0.95556640625,0.30712890625,0.0,-0.0625,-0.375
1.4699999999999906,-2.0,0.0,2.0,3.0,6.0,1.0,-1.0,0.0,-0.564208984375,0.17608642578125,-0.11541748046875,0.79833984375,-0.15087890625,-0.95556640625,0.30712890625,0.0,-0.0625,-0.375
1.4749999999999905,-2.0,0.0,2.0,3.0,6.0,1.0,-1.0,0.0,-0.564208984375,0.17608642578125,-0.11541748046875,0.79833984375,-0.15087890625,-0.95556640625,0.30712890625,0.0,-0.0625,-0.375
1.4799999999999904,-2.0,-2.0,-4.0,0.0,-2.0,-2.0,-4.0,-2.0,-0.564208984375,0.176025390625,-0.115478515625,0.79833984375,-0.14892578125,-0.96240234375,0.3046875,-0.5,-0.1875,0.0
1.4849999999999903,-2.0,-2.0,-4.0,0.0,-2.0,-2.0,-4.0,-2.0,-0.564208984375,0.176025390625,-0.115478515625,0.79833984375,-0.14892578125,-0.96240234375,0.3046875,-0.5,-0.1875,0.0
1.4899999999999902,-2.0,-2.0,-4.0,0.0,-2.0,-2.0,-4.0,-2.0,-0.564208984375,0.176025390625,-0.115478515625,0.79833984375,-0.14892578125,-0.96240234375,0.3046875,-0.5,-0.1875,0.0
1.4949999999999901,0.0,0.0,-3.0,1.0,-3.0,-4.0,0.0,-2.0,-0.564208984375,0.176025390625,-0.115478515625,0.79833984375,-0.14892578125,-0.96240234375,0.3046875,-0.5,-0.1875,0.0
1.49999999999999,0.0,0.0,-3.0,1.0,-3.0,-4.0,0.0,-2.0,-0.564208984375,0.176025390625,-0.115478515625,0.79833984375,-0.14892578125,-0.96240234375,0.3046875,-0.5,-0.1875,0.0
1.50499999999999,-3.0,-3.0,-14.0,-8.0,-3.0,0.0,1.0,-1.0,-0.564208984375,0.176025390625,-0.115478515625,0.79833984375,-0.15380859375,-0.95947265625,0.3095703125,-0.3125,-0.0625,-0.1875
1.5099999999999898,-3.0,-3.0,-14.0,-8.0,-3.0,0.0,1.0,-1.0,-0.564208984375,0.176025390625,-0.115478515625,0.79833984375,-0.15380859375,-0.95947265625,0.3095703125,-0.3125,-0.0625,-0.1875
1.5149999999999897,-3.0,-3.0,-14.0,-8.0,-3.0,0.0,1.0,-1.0,-0.564208984375,0.176025390625,-0.115478515625,0.79833984375,-0.15380859375,-0.95947265625,0.3095703125,-0.3125,-0.0625,-0.1875
1.5199999999999896,-2.0,-3.0,-4.0,-2.0,-6.0,-4.0,-10.0,-3.0,-0.564208984375,0.176025390625,-0.115478515625,0.79833984375,-0.15478515625,-0.96337890625,0.3076171875,-0.25,-0.1875,0.3125
1.5249999999999895,-1.0,-1.0,1.0,4.0,3.0,2.0,-1.0,-2.0,-0.564208984375,0.176025390625,-0.115478515625,0.79833984375,-0.15478515625,-0.96337890625,0.3076171875,-0.25,-0.1875,0.3125
1.5299999999999894,-1.0,-1.0,1.0,4.0,3.0,2.0,-1.0,-2.0,-0.564208984375,0.176025390625,-0.115478515625,0.79833984375,-0.15478515625,-0.96337890625,0.3076171875,-0.25,-0.1875,0.3125
1.5349999999999893,-1.0,-1.0,1.0,4.0,3.0,2.0,-1.0,-2.0,-0.564208984375,0.176025390625,-0.115478515625,0.79833984375,-0.15478515625,-0.96337890625,0.3076171875,-0.25,-0.1875,0.3125
1.5399999999999892,0.0,-2.0,-4.0,-8.0,-8.0,-2.0,2.0,0.0,-0.564208984375,0.17608642578125,-0.11541748046875,0.79833984375,-0.1572265625,-0.95556640625,0.302734375,0.125,-0.375,0.1875
1.544999999999989,-1.0,-2.0,-3.0,0.0,0.0,-6.0,-1.0,-2.0,-0.564208984375,0.17608642578125,-0.11541748046875,0.79833984375,-0.1572265625,-0.95556640625,0.302734375,0.125,-0.375,0.1875
1.549999999999989,-2.0,0.0,3.0,-1.0,-2.0,-1.0,-5.0,-3.0,-0.564208984375,0.17608642578125,-0.11541748046875,0.79833984375,-0.1572265625,-0.95556640625,0.302734375,0.125,-0.375,0.1875
1.5549999999999888,-2.0,0.0,3.0,-1.0,-2.0,-1.0,-5.0,-3.0,-0.564208984375,0.17608642578125,-0.11541748046875,0.79833984375,-0.1572265625,-0.95556640625,0.302734375,0.125,-0.375,0.1875
1.5599999999999887,0.0,0.0,1.0,-2.0,-4.0,0.0,-2.0,-3.0,-0.564208984375,0.17608642578125,-0.11541748046875,0.79833984375,-0.15185546875,-0.9599609375,0.30908203125,-0.875,-0.625,0.375
1.5649999999999886,0.0,0.0,-4.0,3.0,7.0,0.0,2.0,0.0,-0.564208984375,0.17608642578125,-0.11541748046875,0.79833984375,-0.15185546875,-0.9599609375,0.30908203125,-0.875,-0.625,0.375
1.5699999999999885,0.0,0.0,-4.0,3.0,7.0,0.0,2.0,0.0,-0.564208984375,0.17608642578125,-0.11541748046875,0.79833984375,-0.15185546875,-0.9599609375,0.30908203125,-0.875,-0.625,0.375
1.5749999999999884,0.0,0.0,-4.0,3.0,7.0,0.0,2.0,0.0,-0.564208984375,0.17608642578125,-0.11541748046875,0.79833984375,-0.15185546875,-0.9599609375,0.30908203125,-0.875,-0.625,0.375
1.5799999999999883,0.0,-2.0,-2.0,3.0,2.0,0.0,1.0,0.0,-0.564208984375,0.176025390625,-0.11541748046875,0.79833984375,-0.15283203125,-0.9609375,0.30908203125,-0.0625,-0.1875,0.0
1.5849999999999882,-1.0,0.0,3.0,-2.0,-8.0,-4.0,-4.0,-1.0,-0.564208984375,0.176025390625,-0.11541748046875,0.79833984375,-0.15283203125,-0.9609375,0.30908203125,-0.0625,-0.1875,0.0
1.589999999999988,-1.0,0.0,3.0,-2.0,-8.0,-4.0,-4.0,-1.0,-0.564208984375,0.176025390625,-0.11541748046875,0.79833984375,-0.15283203125,-0.9609375,0.30908203125,-0.0625,-0.1875,0.0
1.594999999999988,-1.0,0.0,3.0,-2.0,-8.0,-4.0,-4.0,-1.0,-0.564208984375,0.176025390625,-0.11541748046875,0.79833984375,-0.15283203125,-0.9609375,0.30908203125,-0.0625,-0.1875,0.0
1.5999999999999879,-1.0,0.0,3.0,-2.0,-8.0,-4.0,-4.0,-1.0,-0.564208984375,0.176025390625,-0.11541748046875,0.79833984375,-0.15283203125,-0.9609375,0.30908203125,-0.0625,-0.1875,0.0
1.6049999999999878,0.0,1.0,-1.0,3.0,6.0,3.0,4.0,1.0,-0.564208984375,0.176025390625,-0.115478515625,0.79833984375,-0.1533203125,-0.9560546875,0.3076171875,-0.5,-0.125,-0.25
1.6099999999999877,-1.0,-2.0,-1.0,3.0,0.0,0.0,0.0,1.0,-0.564208984375,0.176025390625,-0.115478515625,0.79833984375,-0.1533203125,-0.9560546875,0.3076171875,-0.5,-0.125,-0.25
1.6149999999999876,-1.0,-2.0,-1.0,3.0,0.0,0.0,0.0,1.0,-0.564208984375,0.176025390625,-0.115478515625,0.79833984375,-0.1533203125,-0.9560546875,0.3076171875,-0.5,-0.125,-0.25
1.6199999999999875,-1.0,-2.0,-1.0,3.0,0.0,0.0,0.0,1.0,-0.564208984375,0.176025390625,-0.115478515625,0.79833984375,-0.1533203125,-0.9560546875,0.3076171875,-0.5,-0.125,-0.25
1.6249999999999873,-1.0,-1.0,0.0,0.0,-1.0,-4.0,2.0,-1.0,-0.564208984375,0.176025390625,-0.115478515625,0.79833984375,-0.1474609375,-0.96044921875,0.3154296875,-0.25,-0.5625,-0.3125
1.6299999999999872,-1.0,-1.0,0.0,0.0,-1.0,-4.0,2.0,-1.0,-0.564208984375,0.176025390625,-0.115478515625,0.79833984375,-0.1474609375,-0.96044921875,0.3154296875,-0.25,-0.5625,-0.3125
1.6349999999999871,-1.0,-1.0,0.0,0.0,-1.0,-4.0,2.0,-1.0,-0.564208984375,0.176025390625,-0.115478515625,0.79833984375,-0.1474609375,-0.96044921875,0.3154296875,-0.25,-0.5625,-0.3125
1.639999999999987,-1.0,-2.0,-3.0,6.0,4.0,-1.0,1.0,-1.0,-0.564208984375,0.176025390625,-0.115478515625,0.79833984375,-0.1474609375,-0.96044921875,0.3154296875,-0.25,-0.5625,-0.3125
1.644999999999987,1.0,-2.0,-3.0,-11.0,-4.0,-3.0,-3.0,1.0,-0.564208984375,0.176025390625,-0.115478515625,0.79833984375,-0.1513671875,-0.9580078125,0.29931640625,-0.1875,-0.5625,-0.0625
1.6499999999999868,1.0,-2.0,-3.0,-11.0,-4.0,-3.0,-3.0,1.0,-0.564208984375,0.176025390625,-0.115478515625,0.79833984375,-0.1513671875,-0.9580078125,0.29931640625,-0.1875,-0.5625,-0.0625
1.6549999999999867,1.0,-2.0,-3.0,-11.0,-4.0,-3.0,-3.0,1.0,-0.564208984375,0.176025390625,-0.115478515625,0.79833984375,-0.1513671875,-0.9580078125,0.29931640625,-0.1875,-0.5625,-0.0625
1.6599999999999866,-2.0,-3.0,-2.0,-5.0,-4.0,0.0,-1.0,-3.0,-0.564208984375,0.176025390625,-0.115478515625,0.79833984375,-0.1513671875,-0.96044921875,0.3095703125,-0.4375,-0.0625,-0.4375
1.6649999999999865,-2.0,-1.0,0.0,3.0,-3.0,-5.0,-2.0,0.0,-0.564208984375,0.176025390625,-0.115478515625,0.79833984375,-0.1513671875,-0.96044921875,0.3095703125,-0.4375,-0.0625,-0.4375
1.6699999999999864,1.0,1.0,0.0,1.0,-1.0,-1.0,-4.0,-2.0,-0.564208984375,0.176025390625,-0.115478515625,0.79833984375,-0.1513671875,-0.96044921875,0.3095703125,-0.4375,-0.0625,-0.4375
1.6749999999999863,1.0,1.0,0.0,1.0,-1.0,-1.0,-4.0,-2.0,-0.564208984375,0.176025390625,-0.115478515625,0.79833984375,-0.1513671875,-0.96044921875,0.3095703125,-0.4375,-0.0625,-0.4375
1.6799999999999862,1.0,1.0,0.0,1.0,-1.0,-1.0,-4.0,-2.0,-0.564208984375,0.176025390625,-0.115478515625,0.79833984375,-0.1513671875,-0.96044921875,0.3095703125,-0.4375,-0.0625,-0.4375
1.684999999999986,-1.0,-2.0,-2.0,-2.0,1.0,5.0,1.0,1.0,-0.564208984375,0.176025390625,-0.115478515625,0.79833984375,-0.14697265625,-0.958984375,0.31103515625,0.1875,-0.125,-0.5625
1.689999999999986,-1.0,-2.0,-2.0,-2.0,1.0,5.0,1.0,1.0,-0.564208984375,0.176025390625,-0.115478515625,0.79833984375,-0.14697265625,-0.958984375,0.31103515625,0.1875,-0.125,-0.5625
1.6949999999999859,-1.0,-2.0,-2.0,-2.0,1.0,5.0,1.0,1.0,-0.564208984375,0.176025390625,-0.115478515625,0.79833984375,-0.14697265625,-0.958984375,0.31103515625,0.1875,-0.125,-0.5625
1.6999999999999857,-1.0,-2.0,-2.0,-2.0,1.0,5.0,1.0,1.0,-0.564208984375,0.176025390625,-0.115478515625,0.79833984375,-0.14697265625,-0.958984375,0.31103515625,0.1875,-0.125,-0.5625
1.7049999999999856,0.0,-2.0,-1.0,-4.0,-5.0,-6.0,-5.0,-3.0,-0.564208984375,0.17596435546875,-0.115478515625,0.79833984375,-0.146484375,-0.9619140625,0.3125,0.5625,-0.1875,-0.625
1.7099999999999855,-1.0,-1.0,1.0,4.0,1.0,1.0,0.0,-2.0,-0.564208984375,0.17596435546875,-0.115478515625,0.79833984375,-0.146484375,-0.9619140625,0.3125,0.5625,-0.1875,-0.625
1.7149999999999854,-1.0,-1.0,1.0,4.0,1.0,1.0,0.0,-2.0,-0.564208984375,0.17596435546875,-0.115478515625,0.79833984375,-0.146484375,-0.9619140625,0.3125,0.5625,-0.1875,-0.625
1.7199999999999853,-1.0,-1.0,1.0,4.0,1.0,1.0,0.0,-2.0,-0.564208984375,0.17596435546875,-0.115478515625,0.79833984375,-0.146484375,-0.9619140625,0.3125,0.5625,-0.1875,-0.625
1.7249999999999852,0.0,0.0,0.0,0.0,0.0,5.0,1.0,0.0,-0.564208984375,0.17596435546875,-0.115478515625,0.79833984375,-0.14990234375,-0.95849609375,0.30615234375,-0.1875,-0.25,-0.3125
1.729999999999985,-4.0,-2.0,1.0,3.0,-4.0,-6.0,-4.0,-1.0,-0.564208984375,0.17596435546875,-0.115478515625,0.79833984375,-0.14990234375,-0.95849609375,0.30615234375,-0.1875,-0.25,-0.3125
1.734999999999985,-4.0,-2.0,1.0,3.0,-4.0,-6.0,-4.0,-1.0,-0.564208984375,0.17596435546875,-0.115478515625,0.79833984375,-0.14990234375,-0.95849609375,0.30615234375,-0.1875,-0.25,-0.3125
1.739999999999985,-4.0,-2.0,1.0,3.0,-4.0,-6.0,-4.0,-1.0,-0.564208984375,0.17596435546875,-0.115478515625,0.79833984375,-0.14990234375,-0.95849609375,0.30615234375,-0.1875,-0.25,-0.3125
1.7449999999999848,-4.0,-2.0,1.0,3.0,-4.0,-6.0,-4.0,-1.0,-0.564208984375,0.17596435546875,-0.115478515625,0.79833984375,-0.14990234375,-0.95849609375,0.30615234375,-0.1875,-0.25,-0.3125
1.7499999999999847,0.0,-1.0,3.0,0.0,-3.0,-4.0,-3.0,0.0,-0.564208984375,0.17596435546875,-0.115478515625,0.79833984375,-0.14990234375,-0.95849609375,0.30615234375,-0.1875,-0.25,-0.3125
1.7549999999999846,-1.0,-1.0,-1.0,1.0,3.0,-2.0,-1.0,-1.0,-0.564208984375,0.17596435546875,-0.11553955078125,0.79833984375,-0.1474609375,-0.95458984375,0.30859375,-0.8125,-0.0625,-0.5
1.7599999999999845,-1.0,-1.0,-1.0,1.0,3.0,-2.0,-1.0,-1.0,-0.564208984375,0.17596435546875,-0.11553955078125,0.79833984375,-0.1474609375,-0.95458984375,0.30859375,-0.8125,-0.0625,-0.5
1.7649999999999844,-1.0,-1.0,-1.0,1.0,3.0,-2.0,-1.0,-1.0,-0.564208984375,0.17596435546875,-0.11553955078125,0.79833984375,-0.1474609375,-0.95458984375,0.30859375,-0.8125,-0.0625,-0.5
1.7699999999999843,-2.0,1.0,0.0,-2.0,-2.0,-4.0,-2.0,-1.0,-0.564208984375,0.17596435546875,-0.11553955078125,0.79833984375,-0.1474609375,-0.95458984375,0.30859375,-0.8125,-0.0625,-0.5
1.7749999999999841,-2.0,1.0,0.0,-2.0,-2.0,-4.0,-2.0,-1.0,-0.564208984375,0.17596435546875,-0.11553955078125,0.79833984375,-0.1474609375,-0.95458984375,0.30859375,-0.8125,-0.0625,-0.5
1.779999999999984,-2.0,0.0,-2.0,1.0,-1.0,1.0,1.0,0.0,-0.564208984375,0.17596435546875,-0.11553955078125,0.79833984375,-0.150390625,-0.9599609375,0.30712890625,-0.6875,0.375,-0.1875
1.784999999999984,-2.0,0.0,-2.0,1.0,-1.0,1.0,1.0,0.0,-0.564208984375,0.17596435546875,-0.11553955078125,0.79833984375,-0.150390625,-0.9599609375,0.30712890625,-0.6875,0.375,-0.1875
1.7899999999999838,-2.0,0.0,-2.0,1.0,-1.0,1.0,1.0,0.0,-0.564208984375,0.17596435546875,-0.11553955078125,0.79833984375,-0.150390625,-0.9599609375,0.30712890625,-0.6875,0.375,-0.1875
1.7949999999999837,-2.0,0.0,-2.0,1.0,-1.0,1.0,1.0,0.0,-0.564208984375,0.17596435546875,-0.11553955078125,0.79833984375,-0.150390625,-0.9599609375,0.30712890625,-0.6875,0.375,-0.1875
1.7999999999999836,-1.0,-2.0,-3.0,1.0,2.0,0.0,-2.0,-2.0,-0.564208984375,0.17596435546875,-0.11553955078125,0.79833984375,-0.14990234375,-0.96142578125,0.310546875,-0.375,0.1875,-0.3125
1.8049999999999835,-1.0,-2.0,-3.0,1.0,2.0,0.0,-2.0,-2.0,-0.564208984375,0.17596435546875,-0.11553955078125,0.79833984375,-0.14990234375,-0.96142578125,0.310546875,-0.375,0.1875,-0.3125
1.8099999999999834,1.0,1.0,4.0,-1.0,0.0,-1.0,0.0,0.0,-0.564208984375,0.17596435546875,-0.11553955078125,0.79833984375,-0.14990234375,-0.96142578125,0.310546875,-0.375,0.1875,-0.3125
1.8149999999999833,1.0,1.0,4.0,-1.0,0.0,-1.0,0.0,0.0,-0.564208984375,0.17596435546875,-0.11553955078125,0.79833984375,-0.14990234375,-0.96142578125,0.310546875,-0.375,0.1875,-0.3125
1.8199999999999832,1.0,1.0,4.0,-1.0,0.0,-1.0,0.0,0.0,-0.564208984375,0.17596435546875,-0.11553955078125,0.79833984375,-0.14990234375,-0.96142578125,0.310546875,-0.375,0.1875,-0.3125
1.824999999999983,1.0,1.0,4.0,-1.0,0.0,-1.0,0.0,0.0,-0.564208984375,0.17596435546875,-0.11553955078125,0.79833984375,-0.14990234375,-0.96142578125,0.310546875,-0.375,0.1875,-0.3125
1.829999999999983,-1.0,-4.0,-7.0,-6.0,-1.0,4.0,1.0,2.0,-0.564208984375,0.1759033203125,-0.11553955078125,0.79833984375,-0.14599609375,-0.9609375,0.310546875,0.4375,0.1875,-0.3125
1.8349999999999829,-1.0,-4.0,-7.0,-6.0,-1.0,4.0,1.0,2.0,-0.564208984375,0.1759033203125,-0.11553955078125,0.79833984375,-0.14599609375,-0.9609375,0.310546875,0.4375,0.1875,-0.3125
1.8399999999999828,-1.0,-4.0,-7.0,-6.0,-1.0,4.0,1.0,2.0,-0.564208984375,0.1759033203125,-0.11553955078125,0.79833984375,-0.14599609375,-0.9609375,0.310546875,0.4375,0.1875,-0.3125
1.8449999999999827,-1.0,-2.0,-13.0,-7.0,-1.0,1.0,-1.0,-2.0,-0.564208984375,0.1759033203125,-0.11553955078125,0.79833984375,-0.14599609375,-0.9609375,0.310546875,0.4375,0.1875,-0.3125
1.8499999999999825,-1.0,-2.0,-13.0,-7.0,-1.0,1.0,-1.0,-2.0,-0.564208984375,0.1759033203125,-0.11553955078125,0.79833984375,-0.14599609375,-0.9609375,0.310546875,0.4375,0.1875,-0.3125
1.8549999999999824,-1.0,-2.0,-13.0,-7.0,-1.0,1.0,-1.0,-2.0,-0.564208984375,0.1759033203125,-0.11553955078125,0.79833984375,-0.146484375,-0.955078125,0.31201171875,0.0,0.375,-0.1875
1.8599999999999823,-2.0,-1.0,-1.0,-1.0,-5.0,-4.0,0.0,-2.0,-0.564208984375,0.1759033203125,-0.11553955078125,0.79833984375,-0.146484375,-0.955078125,0.31201171875,0.0,0.375,-0.1875
1.8649999999999822,-2.0,-1.0,-1.0,-1.0,-5.0,-4.0,0.0,-2.0,-0.564208984375,0.1759033203125,-0.11553955078125,0.79833984375,-0.146484375,-0.955078125,0.31201171875,0.0,0.375,-0.1875
1.8699999999999821,-2.0,-1.0,-1.0,-1.0,-5.0,-4.0,0.0,-2.0,-0.564208984375,0.1759033203125,-0.11553955078125,0.79833984375,-0.146484375,-0.955078125,0.31201171875,0.0,0.375,-0.1875
1.874999999999982,-3.0,-1.0,-2.0,-3.0,-4.0,-5.0,-2.0,-3.0,-0.564208984375,0.1759033203125,-0.11553955078125,0.79833984375,-0.146484375,-0.955078125,0.31201171875,0.0,0.375,-0.1875
1.879999999999982,-3.0,-1.0,-2.0,-3.0,-4.0,-5.0,-2.0,-3.0,-0.56414794921875,0.1759033203125,-0.11553955078125,0.79840087890625,-0.1484375,-0.953125,0.31396484375,-0.6875,0.3125,-0.3125
1.8849999999999818,-1.0,0.0,0.0,2.0,-1.0,-2.0,0.0,-2.0,-0.56414794921875,0.1759033203125,-0.11553955078125,0.79840087890625,-0.1484375,-0.953125,0.31396484375,-0.6875,0.3125,-0.3125
1.8899999999999817,-1.0,0.0,0.0,2.0,-1.0,-2.0,0.0,-2.0,-0.56414794921875,0.1759033203125,-0.11553955078125,0.79840087890625,-0.1484375,-0.953125,0.31396484375,-0.6875,0.3125,-0.3125
1.8949999999999816,-1.0,0.0,0.0,2.0,-1.0,-2.0,0.0,-2.0,-0.56414794921875,0.1759033203125,-0.11553955078125,0.79840087890625,-0.1484375,-0.953125,0.31396484375,-0.6875,0.3125,-0.3125
1.8999999999999815,-1.0,0.0,0.0,2.0,-1.0,-2.0,0.0,-2.0,-0.56414794921875,0.1759033203125,-0.11553955078125,0.79840087890625,-0.1484375,-0.953125,0.31396484375,-0.6875,0.3125,-0.3125
1.9049999999999814,-1.0,-1.0,-1.0,1.0,-1.0,0.0,1.0,0.0,-0.56414794921875,0.1759033203125,-0.1156005859375,0.79840087890625,-0.14892578125,-0.9619140625,0.31103515625,-0.25,-0.125,-0.1875
1.9099999999999813,-1.0,-1.0,-1.0,1.0,-1.0,0.0,1.0,0.0,-0.56414794921875,0.1759033203125,-0.1156005859375,0.79840087890625,-0.14892578125,-0.9619140625,0.31103515625,-0.25,-0.125,-0.1875
1.9149999999999812,-2.0,0.0,0.0,0.0,-2.0,0.0,0.0,-2.0,-0.56414794921875,0.1759033203125,-0.1156005859375,0.79840087890625,-0.14892578125,-0.9619140625,0.31103515625,-0.25,-0.125,-0.1875
1.919999999999981,-2.0,0.0,0.0,0.0,-2.0,0.0,0.0,-2.0,-0.56414794921875,0.1759033203125,-0.1156005859375,0.79840087890625,-0.14892578125,-0.9619140625,0.31103515625,-0.25,-0.125,-0.1875
1.924999999999981,-2.0,0.0,0.0,0.0,-2.0,0.0,0.0,-2.0,-0.56414794921875,0.1759033203125,-0.1156005859375,0.79840087890625,-0.14892578125,-0.9619140625,0.31103515625,-0.25,-0.125,-0.1875
1.9299999999999808,-2.0,0.0,0.0,0.0,-2.0,0.0,0.0,-2.0,-0.56414794921875,0.1759033203125,-0.1156005859375,0.79840087890625,-0.14892578125,-0.9619140625,0.31103515625,-0.25,-0.125,-0.1875
1.9349999999999807,-2.0,0.0,0.0,0.0,-2.0,0.0,0.0,-2.0,-0.56414794921875,0.1759033203125,-0.1156005859375,0.79840087890625,-0.14892578125,-0.9619140625,0.31103515625,-0.25,-0.125,-0.1875
1.9399999999999806,0.0,-2.0,-2.0,-1.0,-1.0,-2.0,-1.0,-1.0,-0.56414794921875,0.1759033203125,-0.1156005859375,0.79840087890625,-0.15380859375,-0.9560546875,0.30517578125,0.3125,-0.25,-0.1875
1.9449999999999805,0.0,-2.0,-2.0,-1.0,-1.0,-2.0,-1.0,-1.0,-0.56414794921875,0.1759033203125,-0.1156005859375,0.79840087890625,-0.15380859375,-0.9560546875,0.30517578125,0.3125,-0.25,-0.1875
1.9499999999999804,0.0,-2.0,-2.0,-1.0,-1.0,-2.0,-1.0,-1.0,-0.56414794921875,0.1759033203125,-0.1156005859375,0.79840087890625,-0.15380859375,-0.9560546875,0.30517578125,0.3125,-0.25,-0.1875
1.9549999999999803,2.0,-2.0,1.0,0.0,1.0,0.0,0.0,-1.0,-0.56414794921875,0.17584228515625,-0.1156005859375,0.79840087890625,-0.1494140625,-0.96142578125,0.30712890625,0.0,0.0,-0.0625
1.9599999999999802,2.0,-2.0,1.0,0.0,1.0,0.0,0.0,-1.0,-0.56414794921875,0.17584228515625,-0.1156005859375,0.79840087890625,-0.1494140625,-0.96142578125,0.30712890625,0.0,0.0,-0.0625
1.96499999999998,-1.0,-1.0,-1.0,-2.0,-3.0,-1.0,3.0,0.0,-0.56414794921875,0.17584228515625,-0.1156005859375,0.79840087890625,-0.1494140625,-0.96142578125,0.30712890625,0.0,0.0,-0.0625
1.96999999999998,-1.0,-1.0,-1.0,-2.0,-3.0,-1.0,3.0,0.0,-0.56414794921875,0.17584228515625,-0.1156005859375,0.79840087890625,-0.1494140625,-0.96142578125,0.30712890625,0.0,0.0,-0.0625
1.9749999999999799,-1.0,-1.0,-1.0,-2.0,-3.0,-1.0,3.0,0.0,-0.56414794921875,0.17584228515625,-0.1156005859375,0.79840087890625,-0.1494140625,-0.96142578125,0.30712890625,0.0,0.0,-0.0625
1.9799999999999798,-1.0,-1.0,-1.0,-2.0,-3.0,-1.0,3.0,0.0,-0.56414794921875,0.17584228515625,-0.1156005859375,0.79840087890625,-0.1494140625,-0.96142578125,0.30712890625,0.0,0.0,-0.0625
1.9849999999999797,-1.0,-1.0,-1.0,-2.0,-3.0,-1.0,3.0,0.0,-0.56414794921875,0.17584228515625,-0.1156005859375,0.79840087890625,-0.1494140625,-0.96142578125,0.30712890625,0.0,0.0,-0.0625
1.9899999999999796,0.0,1.0,1.0,0.0,-1.0,-3.0,-2.0,-1.0,-0.56414794921875,0.17584228515625,-0.1156005859375,0.79840087890625,-0.1494140625,-0.96142578125,0.30712890625,0.0,0.0,-0.0625
1.9949999999999795,0.0,-3.0,-1.0,7.0,1.0,-2.0,0.0,-1.0,-0.56414794921875,0.17584228515625,-0.1156005859375,0.79840087890625,-0.154296875,-0.95556640625,0.3056640625,-0.125,0.0,-0.25
1.9999999999999793,0.0,-3.0,-1.0,7.0,1.0,-2.0,0.0,-1.0,-0.56414794921875,0.17584228515625,-0.1156005859375,0.79840087890625,-0.154296875,-0.95556640625,0.3056640625,-0.125,0.0,-0.25
2.0049999999999795,0.0,-3.0,-1.0,7.0,1.0,-2.0,0.0,-1.0,-0.56414794921875,0.17584228515625,-0.1156005859375,0.79840087890625,-0.154296875,-0.95556640625,0.3056640625,-0.125,0.0,-0.25
2.0099999999999794,-2.0,-2.0,-1.0,-1.0,-3.0,-2.0,-4.0,-1.0,-0.56414794921875,0.17584228515625,-0.1156005859375,0.79840087890625,-0.154296875,-0.95556640625,0.3056640625,-0.125,0.0,-0.25
2.0149999999999793,-2.0,-2.0,-1.0,-1.0,-3.0,-2.0,-4.0,-1.0,-0.56414794921875,0.17584228515625,-0.1156005859375,0.79840087890625,-0.154296875,-0.95556640625,0.3056640625,-0.125,0.0,-0.25
2.019999999999979,-3.0,0.0,1.0,-2.0,-4.0,-4.0,-2.0,-3.0,-0.56414794921875,0.17584228515625,-0.1156005859375,0.79840087890625,-0.15087890625,-0.9609375,0.31103515625,0.3125,-0.4375,-0.125
2.024999999999979,-1.0,0.0,0.0,1.0,-1.0,1.0,-3.0,-1.0,-0.56414794921875,0.17584228515625,-0.1156005859375,0.79840087890625,-0.15087890625,-0.9609375,0.31103515625,0.3125,-0.4375,-0.125
2.029999999999979,-1.0,0.0,0.0,1.0,-1.0,1.0,-3.0,-1.0,-0.56414794921875,0.17584228515625,-0.1156005859375,0.79840087890625,-0.15087890625,-0.9609375,0.31103515625,0.3125,-0.4375,-0.125
2.034999999999979,1.0,-1.0,1.0,8.0,6.0,5.0,4.0,3.0,-0.56414794921875,0.17584228515625,-0.1156005859375,0.79840087890625,-0.15087890625,-0.9609375,0.31103515625,0.3125,-0.4375,-0.125
2.0399999999999787,-3.0,-4.0,-1.0,-2.0,-1.0,1.0,-2.0,-2.0,-0.56414794921875,0.17584228515625,-0.1156005859375,0.79840087890625,-0.1494140625,-0.95654296875,0.30712890625,-0.125,-0.375,0.0625
2.0449999999999786,-1.0,-3.0,-5.0,-6.0,-7.0,-7.0,-6.0,-1.0,-0.56414794921875,0.17584228515625,-0.1156005859375,0.79840087890625,-0.1494140625,-0.95654296875,0.30712890625,-0.125,-0.375,0.0625
2.0499999999999785,-1.0,-3.0,-5.0,-6.0,-7.0,-7.0,-6.0,-1.0,-0.56414794921875,0.17584228515625,-0.1156005859375,0.79840087890625,-0.1494140625,-0.95654296875,0.30712890625,-0.125,-0.375,0.0625
2.0549999999999784,-1.0,-3.0,-5.0,-6.0,-7.0,-7.0,-6.0,-1.0,-0.56414794921875,0.17584228515625,-0.1156005859375,0.79840087890625,-0.1494140625,-0.95654296875,0.30712890625,-0.125,-0.375,0.0625
2.0599999999999783,0.0,1.0,-2.0,2.0,2.0,1.0,2.0,0.0,-0.56414794921875,0.17584228515625,-0.1156005859375,0.79840087890625,-0.14794921875,-0.9619140625,0.3095703125,0.3125,-0.125,0.1875
2.064999999999978,2.0,-1.0,-3.0,0.0,-1.0,2.0,0.0,1.0,-0.56414794921875,0.17584228515625,-0.1156005859375,0.79840087890625,-0.14794921875,-0.9619140625,0.3095703125,0.3125,-0.125,0.1875
2.069999999999978,0.0,-3.0,-10.0,-18.0,-2.0,-3.0,-4.0,-1.0,-0.56414794921875,0.17584228515625,-0.1156005859375,0.79840087890625,-0.14794921875,-0.9619140625,0.3095703125,0.3125,-0.125,0.1875
2.074999999999978,-2.0,-2.0,0.0,2.0,-4.0,-2.0,-2.0,-1.0,-0.56414794921875,0.17584228515625,-0.1156005859375,0.79840087890625,-0.14794921875,-0.9619140625,0.3095703125,0.3125,-0.125,0.1875
2.079999999999978,-2.0,-2.0,0.0,2.0,-4.0,-2.0,-2.0,-1.0,-0.56414794921875,0.17584228515625,-0.1156005859375,0.79840087890625,-0.14794921875,-0.9619140625,0.3095703125,0.3125,-0.125,0.1875
2.0849999999999778,-2.0,-2.0,0.0,2.0,-4.0,-2.0,-2.0,-1.0,-0.56414794921875,0.17584228515625,-0.1156005859375,0.79840087890625,-0.14794921875,-0.9619140625,0.3095703125,0.3125,-0.125,0.1875
2.0899999999999777,-3.0,-2.0,0.0,3.0,3.0,2.0,-1.0,-1.0,-0.56414794921875,0.17584228515625,-0.1156005859375,0.79840087890625,-0.14697265625,-0.9638671875,0.3095703125,-0.25,0.125,0.0
2.0949999999999775,-3.0,-2.0,0.0,3.0,3.0,2.0,-1.0,-1.0,-0.56414794921875,0.17584228515625,-0.1156005859375,0.79840087890625,-0.14697265625,-0.9638671875,0.3095703125,-0.25,0.125,0.0
2.0999999999999774,-2.0,-3.0,-7.0,-8.0,-5.0,-2.0,5.0,0.0,-0.56414794921875,0.17578125,-0.1156005859375,0.79840087890625,-0.14599609375,-0.958984375,0.31201171875,0.25,-0.125,0.0625
2.1049999999999773,-2.0,-3.0,-7.0,-8.0,-5.0,-2.0,5.0,0.0,-0.56414794921875,0.17578125,-0.1156005859375,0.79840087890625,-0.14599609375,-0.958984375,0.31201171875,0.25,-0.125,0.0625
2.1099999999999772,-2.0,-3.0,-7.0,-8.0,-5.0,-2.0,5.0,0.0,-0.56414794921875,0.17578125,-0.1156005859375,0.79840087890625,-0.14599609375,-0.958984375,0.31201171875,0.25,-0.125,0.0625
2.114999999999977,1.0,-1.0,0.0,2.0,0.0,-1.0,-1.0,-1.0,-0.56414794921875,0.17578125,-0.1156005859375,0.79840087890625,-0.14599609375,-0.958984375,0.31201171875,0.25,-0.125,0.0625
2.119999999999977,1.0,-1.0,0.0,2.0,0.0,-1.0,-1.0,-1.0,-0.56414794921875,0.17578125,-0.1156005859375,0.79840087890625,-0.14599609375,-0.958984375,0.31201171875,0.25,-0.125,0.0625
2.124999999999977,-1.0,-1.0,-12.0,-9.0,-3.0,-3.0,-3.0,-2.0,-0.56414794921875,0.17578125,-0.11566162109375,0.79840087890625,-0.14501953125,-0.95703125,0.3095703125,0.3125,-0.125,0.125
2.129999999999977,-1.0,-1.0,-12.0,-9.0,-3.0,-3.0,-3.0,-2.0,-0.56414794921875,0.17578125,-0.11566162109375,0.79840087890625,-0.14501953125,-0.95703125,0.3095703125,0.3125,-0.125,0.125
2.1349999999999767,-1.0,-2.0,3.0,4.0,5.0,1.0,3.0,2.0,-0.56414794921875,0.17578125,-0.11566162109375,0.79840087890625,-0.14501953125,-0.95703125,0.3095703125,0.3125,-0.125,0.125
2.1399999999999766,0.0,2.0,1.0,2.0,2.0,3.0,4.0,-1.0,-0.56414794921875,0.17578125,-0.11566162109375,0.79840087890625,-0.14501953125,-0.95703125,0.3095703125,0.3125,-0.125,0.125
2.1449999999999765,0.0,2.0,1.0,2.0,2.0,3.0,4.0,-1.0,-0.56414794921875,0.17578125,-0.11566162109375,0.79840087890625,-0.14501953125,-0.95703125,0.3095703125,0.3125,-0.125,0.125
2.1499999999999764,-3.0,-3.0,-2.0,0.0,-3.0,-2.0,-2.0,-2.0,-0.56414794921875,0.17578125,-0.11566162109375,0.79840087890625,-0.14501953125,-0.95703125,0.3095703125,0.3125,-0.125,0.125
2.1549999999999763,-2.0,0.0,2.0,-6.0,-4.0,-2.0,-3.0,-1.0,-0.56414794921875,0.17578125,-0.11566162109375,0.79840087890625,-0.14794921875,-0.9580078125,0.31298828125,0.1875,0.0625,-0.0625
2.159999999999976,-2.0,0.0,2.0,-6.0,-4.0,-2.0,-3.0,-1.0,-0.56414794921875,0.17578125,-0.11566162109375,0.79840087890625,-0.14794921875,-0.9580078125,0.31298828125,0.1875,0.0625,-0.0625
2.164999999999976,-2.0,0.0,2.0,-6.0,-4.0,-2.0,-3.0,-1.0,-0.56414794921875,0.17578125,-0.11566162109375,0.79840087890625,-0.14794921875,-0.9580078125,0.31298828125,0.1875,0.0625,-0.0625
2.169999999999976,-2.0,0.0,0.0,-1.0,-2.0,-2.0,-3.0,-2.0,-0.56414794921875,0.17578125,-0.11566162109375,0.79840087890625,-0.154296875,-0.9609375,0.30908203125,-0.25,0.125,0.0
2.174999999999976,-2.0,-2.0,1.0,2.0,-3.0,-4.0,-3.0,-3.0,-0.56414794921875,0.17578125,-0.11566162109375,0.79840087890625,-0.154296875,-0.9609375,0.30908203125,-0.25,0.125,0.0
2.1799999999999757,-2.0,-2.0,1.0,2.0,-3.0,-4.0,-3.0,-3.0,-0.56414794921875,0.17578125,-0.11566162109375,0.79840087890625,-0.154296875,-0.9609375,0.30908203125,-0.25,0.125,0.0
2.1849999999999756,-2.0,-2.0,1.0,2.0,-3.0,-4.0,-3.0,-3.0,-0.56414794921875,0.17578125,-0.11566162109375,0.79840087890625,-0.154296875,-0.9609375,0.30908203125,-0.25,0.125,0.0
2.1899999999999755,-2.0,-2.0,1.0,2.0,-3.0,-4.0,-3.0,-3.0,-0.56414794921875,0.17578125,-0.11566162109375,0.79840087890625,-0.154296875,-0.9609375,0.30908203125,-0.25,0.125,0.0
2.1949999999999754,0.0,-3.0,-4.0,6.0,8.0,0.0,1.0,2.0,-0.56414794921875,0.17578125,-0.11566162109375,0.79840087890625,-0.1474609375,-0.95654296875,0.306640625,0.9375,0.0,-0.1875
2.1999999999999753,-2.0,0.0,-2.0,0.0,1.0,3.0,-3.0,-1.0,-0.56414794921875,0.17578125,-0.11566162109375,0.79840087890625,-0.1474609375,-0.95654296875,0.306640625,0.9375,0.0,-0.1875
2.204999999999975,-2.0,0.0,-2.0,0.0,1.0,3.0,-3.0,-1.0,-0.56414794921875,0.17578125,-0.11566162109375,0.79840087890625,-0.1474609375,-0.95654296875,0.306640625,0.9375,0.0,-0.1875
2.209999999999975,-2.0,0.0,-2.0,0.0,1.0,3.0,-3.0,-1.0,-0.56414794921875,0.17578125,-0.11566162109375,0.79840087890625,-0.1474609375,-0.95654296875,0.306640625,0.9375,0.0,-0.1875
2.214999999999975,-3.0,-3.0,-7.0,-7.0,0.0,1.0,-2.0,-3.0,-0.56414794921875,0.17572021484375,-0.11566162109375,0.79840087890625,-0.1494140625,-0.95556640625,0.30810546875,-0.1875,-0.375,0.0
2.219999999999975,-1.0,-1.0,2.0,2.0,3.0,3.0,0.0,0.0,-0.56414794921875,0.17572021484375,-0.11566162109375,0.79840087890625,-0.1494140625,-0.95556640625,0.30810546875,-0.1875,-0.375,0.0
2.2249999999999748,-1.0,-1.0,2.0,2.0,3.0,3.0,0.0,0.0,-0.56414794921875,0.17572021484375,-0.11566162109375,0.79840087890625,-0.1494140625,-0.95556640625,0.30810546875,-0.1875,-0.375,0.0
2.2299999999999747,-1.0,-1.0,2.0,2.0,3.0,3.0,0.0,0.0,-0.56414794921875,0.17572021484375,-0.11566162109375,0.79840087890625,-0.1494140625,-0.95556640625,0.30810546875,-0.1875,-0.375,0.0
2.2349999999999746,-2.0,-1.0,2.0,1.0,-2.0,0.0,0.0,0.0,-0.56414794921875,0.17572021484375,-0.11566162109375,0.79840087890625,-0.14404296875,-0.96044921875,0.3076171875,-1.0,-0.375,-0.25
2.2399999999999745,-1.0,-3.0,-6.0,-5.0,-4.0,-3.0,-3.0,-1.0,-0.56414794921875,0.17572021484375,-0.11566162109375,0.79840087890625,-0.14404296875,-0.96044921875,0.3076171875,-1.0,-0.375,-0.25
2.2449999999999743,-1.0,-3.0,-6.0,-5.0,-4.0,-3.0,-3.0,-1.0,-0.56414794921875,0.17572021484375,-0.11566162109375,0.79840087890625,-0.14404296875,-0.96044921875,0.3076171875,-1.0,-0.375,-0.25
2.2499999999999742,-1.0,-3.0,-6.0,-5.0,-4.0,-3.0,-3.0,-1.0,-0.56414794921875,0.17572021484375,-0.11566162109375,0.79840087890625,-0.14404296875,-0.96044921875,0.3076171875,-1.0,-0.375,-0.25
2.254999999999974,-1.0,-3.0,-6.0,-5.0,-4.0,-3.0,-3.0,-1.0,-0.56414794921875,0.17572021484375,-0.11566162109375,0.79840087890625,-0.14404296875,-0.96044921875,0.3076171875,-1.0,-0.375,-0.25
2.259999999999974,-1.0,0.0,0.0,-4.0,0.0,-1.0,-2.0,-1.0,-0.56414794921875,0.17572021484375,-0.11572265625,0.79840087890625,-0.14697265625,-0.96484375,0.314453125,0.125,-0.0625,0.0
2.264999999999974,-1.0,-1.0,-3.0,1.0,1.0,-2.0,1.0,-1.0,-0.56414794921875,0.17572021484375,-0.11572265625,0.79840087890625,-0.14697265625,-0.96484375,0.314453125,0.125,-0.0625,0.0
2.269999999999974,-1.0,-1.0,-3.0,1.0,1.0,-2.0,1.0,-1.0,-0.56414794921875,0.17572021484375,-0.11572265625,0.79840087890625,-0.14697265625,-0.96484375,0.314453125,0.125,-0.0625,0.0
2.2749999999999737,-1.0,-1.0,-3.0,1.0,1.0,-2.0,1.0,-1.0,-0.56414794921875,0.17572021484375,-0.11572265625,0.79840087890625,-0.14697265625,-0.96484375,0.314453125,0.125,-0.0625,0.0
2.2799999999999736,-1.0,-1.0,-3.0,1.0,1.0,-2.0,1.0,-1.0,-0.56414794921875,0.17572021484375,-0.11572265625,0.79840087890625,-0.14697265625,-0.96484375,0.314453125,0.125,-0.0625,0.0
2.2849999999999735,-1.0,-1.0,-3.0,1.0,1.0,-2.0,1.0,-1.0,-0.56414794921875,0.17572021484375,-0.11572265625,0.79840087890625,-0.14697265625,-0.96484375,0.314453125,0.125,-0.0625,0.0
2.2899999999999734,-3.0,-2.0,0.0,1.0,1.0,-1.0,-1.0,-1.0,-0.5640869140625,0.1756591796875,-0.11572265625,0.7984619140625,-0.1474609375,-0.95751953125,0.3125,0.625,0.0,0.0
2.2949999999999733,-3.0,-2.0,0.0,1.0,1.0,-1.0,-1.0,-1.0,-0.5640869140625,0.1756591796875,-0.11572265625,0.7984619140625,-0.1474609375,-0.95751953125,0.3125,0.625,0.0,0.0
2.299999999999973,-3.0,-2.0,0.0,1.0,1.0,-1.0,-1.0,-1.0,-0.5640869140625,0.1756591796875,-0.11572265625,0.7984619140625,-0.1474609375,-0.95751953125,0.3125,0.625,0.0,0.0
2.304999999999973,1.0,0.0,-2.0,1.0,-5.0,-1.0,-3.0,-2.0,-0.5640869140625,0.1756591796875,-0.11572265625,0.7984619140625,-0.1474609375,-0.95751953125,0.3125,0.625,0.0,0.0
2.309999999999973,1.0,1.0,2.0,0.0,-1.0,1.0,-2.0,-2.0,-0.5640869140625,0.1756591796875,-0.11572265625,0.7984619140625,-0.14599609375,-0.953125,0.31689453125,0.1875,-0.125,0.0625
2.314999999999973,1.0,1.0,2.0,0.0,-1.0,1.0,-2.0,-2.0,-0.5640869140625,0.1756591796875,-0.11572265625,0.7984619140625,-0.14599609375,-0.953125,0.31689453125,0.1875,-0.125,0.0625
2.3199999999999728,1.0,1.0,2.0,0.0,-1.0,1.0,-2.0,-2.0,-0.5640869140625,0.1756591796875,-0.11572265625,0.7984619140625,-0.14599609375,-0.953125,0.31689453125,0.1875,-0.125,0.0625
2.3249999999999726,-1.0,-3.0,-6.0,-4.0,-3.0,-1.0,-2.0,-1.0,-0.5640869140625,0.1756591796875,-0.11572265625,0.7984619140625,-0.15576171875,-0.962890625,0.3056640625,-0.9375,-0.1875,0.1875
2.3299999999999725,-1.0,-3.0,-6.0,-4.0,-3.0,-1.0,-2.0,-1.0,-0.5640869140625,0.1756591796875,-0.11572265625,0.7984619140625,-0.15576171875,-0.962890625,0.3056640625,-0.9375,-0.1875,0.1875
2.3349999999999724,-2.0,-2.0,-1.0,-2.0,-4.0,-6.0,-7.0,-4.0,-0.5640869140625,0.1756591796875,-0.11572265625,0.7984619140625,-0.15576171875,-0.962890625,0.3056640625,-0.9375,-0.1875,0.1875
2.3399999999999723,-2.0,-2.0,-1.0,-2.0,-4.0,-6.0,-7.0,-4.0,-0.5640869140625,0.1756591796875,-0.11572265625,0.7984619140625,-0.15576171875,-0.962890625,0.3056640625,-0.9375,-0.1875,0.1875
2.344999999999972,-2.0,-2.0,-1.0,-2.0,-4.0,-6.0,-7.0,-4.0,-0.5640869140625,0.1756591796875,-0.11572265625,0.7984619140625,-0.15576171875,-0.962890625,0.3056640625,-0.9375,-0.1875,0.1875
2.349999999999972,-2.0,-2.0,-1.0,-2.0,-4.0,-6.0,-7.0,-4.0,-0.5640869140625,0.1756591796875,-0.11572265625,0.7984619140625,-0.15576171875,-0.962890625,0.3056640625,-0.9375,-0.1875,0.1875
2.354999999999972,-2.0,-2.0,-1.0,-2.0,-4.0,-6.0,-7.0,-4.0,-0.5640869140625,0.1756591796875,-0.11572265625,0.7984619140625,-0.15576171875,-0.962890625,0.3056640625,-0.9375,-0.1875,0.1875
2.359999999999972,-2.0,-2.0,-1.0,-2.0,-4.0,-6.0,-7.0,-4.0,-0.5640869140625,0.1756591796875,-0.11572265625,0.7984619140625,-0.15576171875,-0.962890625,0.3056640625,-0.9375,-0.1875,0.1875
2.364999999999972,-1.0,-1.0,-1.0,1.0,-1.0,0.0,1.0,-1.0,-0.5640869140625,0.1756591796875,-0.11572265625,0.7984619140625,-0.15380859375,-0.95947265625,0.30029296875,-0.5,-0.3125,0.125
2.3699999999999717,-1.0,-1.0,-1.0,1.0,-1.0,0.0,1.0,-1.0,-0.5640869140625,0.1756591796875,-0.11572265625,0.7984619140625,-0.15380859375,-0.95947265625,0.30029296875,-0.5,-0.3125,0.125
2.3749999999999716,-3.0,-2.0,3.0,1.0,1.0,-2.0,-2.0,-2.0,-0.56396484375,0.17559814453125,-0.11578369140625,0.798583984375,-0.1474609375,-0.96337890625,0.3125,1.0,-0.0625,-0.125
2.3799999999999715,-3.0,-2.0,3.0,1.0,1.0,-2.0,-2.0,-2.0,-0.56396484375,0.17559814453125,-0.11578369140625,0.798583984375,-0.1474609375,-0.96337890625,0.3125,1.0,-0.0625,-0.125
2.3849999999999714,-1.0,0.0,-2.0,1.0,1.0,-1.0,-2.0,-2.0,-0.56396484375,0.17559814453125,-0.11578369140625,0.798583984375,-0.1474609375,-0.96337890625,0.3125,1.0,-0.0625,-0.125
2.3899999999999713,-1.0,0.0,-2.0,1.0,1.0,-1.0,-2.0,-2.0,-0.56396484375,0.17559814453125,-0.11578369140625,0.798583984375,-0.1474609375,-0.96337890625,0.3125,1.0,-0.0625,-0.125
2.394999999999971,-1.0,0.0,-2.0,1.0,1.0,-1.0,-2.0,-2.0,-0.56396484375,0.17559814453125,-0.11578369140625,0.798583984375,-0.1474609375,-0.96337890625,0.3125,1.0,-0.0625,-0.125
2.399999999999971,-1.0,0.0,-2.0,1.0,1.0,-1.0,-2.0,-2.0,-0.56396484375,0.17559814453125,-0.11578369140625,0.798583984375,-0.1474609375,-0.96337890625,0.3125,1.0,-0.0625,-0.125
2.404999999999971,-1.0,-4.0,-3.0,-1.0,-2.0,-5.0,-2.0,-1.0,-0.56396484375,0.175537109375,-0.11578369140625,0.798583984375,-0.1474609375,-0.95556640625,0.3115234375,0.3125,-0.0625,0.0625
2.409999999999971,0.0,0.0,-3.0,-7.0,-2.0,-3.0,0.0,1.0,-0.56396484375,0.175537109375,-0.11578369140625,0.798583984375,-0.1474609375,-0.95556640625,0.3115234375,0.3125,-0.0625,0.0625
2.4149999999999707,0.0,0.0,-3.0,-7.0,-2.0,-3.0,0.0,1.0,-0.56396484375,0.175537109375,-0.11578369140625,0.798583984375,-0.1474609375,-0.95556640625,0.3115234375,0.3125,-0.0625,0.0625
2.4199999999999706,0.0,0.0,-3.0,-7.0,-2.0,-3.0,0.0,1.0,-0.56396484375,0.175537109375,-0.11578369140625,0.798583984375,-0.1474609375,-0.95556640625,0.3115234375,0.3125,-0.0625,0.0625
2.4249999999999705,0.0,0.0,-3.0,-7.0,-2.0,-3.0,0.0,1.0,-0.56396484375,0.175537109375,-0.11578369140625,0.798583984375,-0.1474609375,-0.95556640625,0.3115234375,0.3125,-0.0625,0.0625
2.4299999999999704,0.0,0.0,-3.0,-7.0,-2.0,-3.0,0.0,1.0,-0.56396484375,0.175537109375,-0.11578369140625,0.798583984375,-0.1474609375,-0.95556640625,0.3115234375,0.3125,-0.0625,0.0625
2.4349999999999703,-3.0,-1.0,-6.0,-2.0,-3.0,1.0,-2.0,0.0,-0.56396484375,0.175537109375,-0.1158447265625,0.798583984375,-0.146484375,-0.96044921875,0.31298828125,-0.375,-0.1875,0.0
2.43999999999997,0.0,-1.0,-1.0,0.0,-3.0,-5.0,-2.0,-3.0,-0.56396484375,0.175537109375,-0.1158447265625,0.798583984375,-0.146484375,-0.96044921875,0.31298828125,-0.375,-0.1875,0.0
2.44499999999997,0.0,-1.0,-1.0,0.0,-3.0,-5.0,-2.0,-3.0,-0.56396484375,0.175537109375,-0.1158447265625,0.798583984375,-0.146484375,-0.96044921875,0.31298828125,-0.375,-0.1875,0.0
2.44999999999997,0.0,-1.0,-1.0,0.0,-3.0,-5.0,-2.0,-3.0,-0.56396484375,0.175537109375,-0.1158447265625,0.798583984375,-0.146484375,-0.96044921875,0.31298828125,-0.375,-0.1875,0.0
2.45499999999997,0.0,0.0,0.0,4.0,4.0,6.0,2.0,-1.0,-0.56390380859375,0.175537109375,-0.1158447265625,0.798583984375,-0.14697265625,-0.95556640625,0.310546875,-0.25,0.0,-0.0625
2.4599999999999698,0.0,0.0,0.0,4.0,4.0,6.0,2.0,-1.0,-0.56390380859375,0.175537109375,-0.1158447265625,0.798583984375,-0.14697265625,-0.95556640625,0.310546875,-0.25,0.0,-0.0625
2.4649999999999697,-3.0,-3.0,-7.0,-4.0,-1.0,-1.0,-8.0,-1.0,-0.56390380859375,0.175537109375,-0.1158447265625,0.798583984375,-0.14697265625,-0.95556640625,0.310546875,-0.25,0.0,-0.0625
2.4699999999999696,-3.0,-3.0,-7.0,-4.0,-1.0,-1.0,-8.0,-1.0,-0.56390380859375,0.175537109375,-0.1158447265625,0.798583984375,-0.14697265625,-0.95556640625,0.310546875,-0.25,0.0,-0.0625
2.4749999999999694,-3.0,-3.0,-7.0,-4.0,-1.0,-1.0,-8.0,-1.0,-0.56390380859375,0.175537109375,-0.1158447265625,0.798583984375,-0.14697265625,-0.95556640625,0.310546875,-0.25,0.0,-0.0625
2.4799999999999693,-3.0,-3.0,-7.0,-4.0,-1.0,-1.0,-8.0,-1.0,-0.56390380859375,0.175537109375,-0.1158447265625,0.798583984375,-0.14697265625,-0.95556640625,0.310546875,-0.25,0.0,-0.0625
2.4849999999999692,0.0,0.0,2.0,1.0,-3.0,-6.0,-2.0,-3.0,-0.56390380859375,0.175537109375,-0.1158447265625,0.798583984375,-0.14697265625,-0.95849609375,0.3115234375,-0.3125,-0.0625,0.0625
2.489999999999969,0.0,-1.0,3.0,-3.0,-2.0,1.0,3.0,0.0,-0.56390380859375,0.175537109375,-0.1158447265625,0.798583984375,-0.14697265625,-0.95849609375,0.3115234375,-0.3125,-0.0625,0.0625
2.494999999999969,0.0,-1.0,3.0,-3.0,-2.0,1.0,3.0,0.0,-0.56390380859375,0.175537109375,-0.1158447265625,0.798583984375,-0.14697265625,-0.95849609375,0.3115234375,-0.3125,-0.0625,0.0625
2.499999999999969,0.0,-1.0,3.0,-3.0,-2.0,1.0,3.0,0.0,-0.56390380859375,0.175537109375,-0.1158447265625,0.798583984375,-0.14697265625,-0.95849609375,0.3115234375,-0.3125,-0.0625,0.0625
2.504999999999969,0.0,-1.0,3.0,-3.0,-2.0,1.0,3.0,0.0,-0.56390380859375,0.175537109375,-0.1158447265625,0.798583984375,-0.14697265625,-0.95849609375,0.3115234375,-0.3125,-0.0625,0.0625
2.5099999999999687,0.0,-1.0,3.0,-3.0,-2.0,1.0,3.0,0.0,-0.56390380859375,0.175537109375,-0.1158447265625,0.798583984375,-0.14697265625,-0.95849609375,0.3115234375,-0.3125,-0.0625,0.0625
2.5149999999999686,1.0,-1.0,1.0,2.0,0.0,-1.0,-3.0,-3.0,-0.56390380859375,0.17547607421875,-0.1158447265625,0.798583984375,-0.14697265625,-0.96142578125,0.3115234375,-0.5625,0.0625,0.25
2.5199999999999685,1.0,-1.0,1.0,2.0,0.0,-1.0,-3.0,-3.0,-0.56390380859375,0.17547607421875,-0.1158447265625,0.798583984375,-0.14697265625,-0.96142578125,0.3115234375,-0.5625,0.0625,0.25
2.5249999999999684,1.0,-1.0,1.0,2.0,0.0,-1.0,-3.0,-3.0,-0.56390380859375,0.17547607421875,-0.1158447265625,0.798583984375,-0.14697265625,-0.96142578125,0.3115234375,-0.5625,0.0625,0.25
2.5299999999999683,0.0,0.0,-7.0,-11.0,-3.0,-2.0,-2.0,-1.0,-0.56390380859375,0.17547607421875,-0.1158447265625,0.798583984375,-0.14697265625,-0.96142578125,0.3115234375,-0.5625,0.0625,0.25
2.534999999999968,0.0,0.0,-7.0,-11.0,-3.0,-2.0,-2.0,-1.0,-0.56390380859375,0.17547607421875,-0.1158447265625,0.798583984375,-0.1484375,-0.95654296875,0.30908203125,0.1875,0.375,0.0625
2.539999999999968,-1.0,-3.0,-4.0,-4.0,-1.0,0.0,0.0,-1.0,-0.56390380859375,0.17547607421875,-0.1158447265625,0.798583984375,-0.1484375,-0.95654296875,0.30908203125,0.1875,0.375,0.0625
2.544999999999968,-1.0,-3.0,-4.0,-4.0,-1.0,0.0,0.0,-1.0,-0.56390380859375,0.17547607421875,-0.1158447265625,0.798583984375,-0.1484375,-0.95654296875,0.30908203125,0.1875,0.375,0.0625
2.549999999999968,-1.0,-3.0,-4.0,-4.0,-1.0,0.0,0.0,-1.0,-0.56390380859375,0.17547607421875,-0.1158447265625,0.798583984375,-0.1484375,-0.95654296875,0.30908203125,0.1875,0.375,0.0625
2.5549999999999677,-1.0,-3.0,-4.0,-4.0,-1.0,0.0,0.0,-1.0,-0.56390380859375,0.17547607421875,-0.1158447265625,0.798583984375,-0.1484375,-0.95654296875,0.30908203125,0.1875,0.375,0.0625
2.5599999999999676,0.0,-4.0,-5.0,-3.0,1.0,-1.0,-3.0,-2.0,-0.56390380859375,0.17547607421875,-0.11590576171875,0.798583984375,-0.1455078125,-0.9580078125,0.31298828125,-0.125,0.5625,0.375
2.5649999999999675,0.0,-4.0,-5.0,-3.0,1.0,-1.0,-3.0,-2.0,-0.56390380859375,0.17547607421875,-0.11590576171875,0.798583984375,-0.1455078125,-0.9580078125,0.31298828125,-0.125,0.5625,0.375
2.5699999999999674,-2.0,-2.0,-2.0,3.0,-1.0,-3.0,8.0,0.0,-0.56390380859375,0.17547607421875,-0.11590576171875,0.798583984375,-0.1455078125,-0.9580078125,0.31298828125,-0.125,0.5625,0.375
2.5749999999999673,-2.0,-2.0,-2.0,3.0,-1.0,-3.0,8.0,0.0,-0.56390380859375,0.17547607421875,-0.11590576171875,0.798583984375,-0.1455078125,-0.9580078125,0.31298828125,-0.125,0.5625,0.375
2.579999999999967,-2.0,-2.0,-2.0,3.0,-1.0,-3.0,8.0,0.0,-0.56390380859375,0.17547607421875,-0.11590576171875,0.798583984375,-0.1455078125,-0.9580078125,0.31298828125,-0.125,0.5625,0.375
2.584999999999967,-2.0,-2.0,-2.0,3.0,-1.0,-3.0,8.0,0.0,-0.56390380859375,0.17547607421875,-0.11590576171875,0.798583984375,-0.1455078125,-0.9580078125,0.31298828125,-0.125,0.5625,0.375
2.589999999999967,-1.0,0.0,-1.0,-2.0,-2.0,-1.0,2.0,-3.0,-0.56390380859375,0.17547607421875,-0.11590576171875,0.798583984375,-0.1494140625,-0.9580078125,0.310546875,-0.1875,0.4375,0.4375
2.594999999999967,-1.0,0.0,-1.0,-2.0,-2.0,-1.0,2.0,-3.0,-0.56390380859375,0.17547607421875,-0.11590576171875,0.798583984375,-0.1494140625,-0.9580078125,0.310546875,-0.1875,0.4375,0.4375
2.599999999999967,-1.0,0.0,-1.0,-2.0,-2.0,-1.0,2.0,-3.0,-0.56390380859375,0.17547607421875,-0.11590576171875,0.798583984375,-0.1494140625,-0.9580078125,0.310546875,-0.1875,0.4375,0.4375
2.6049999999999667,-1.0,0.0,-1.0,-2.0,-2.0,-1.0,2.0,-3.0,-0.56390380859375,0.17547607421875,-0.11590576171875,0.798583984375,-0.1494140625,-0.9580078125,0.310546875,-0.1875,0.4375,0.4375
2.6099999999999666,0.0,-1.0,-5.0,1.0,2.0,-1.0,2.0,0.0,-0.56390380859375,0.17547607421875,-0.11590576171875,0.798583984375,-0.1494140625,-0.9580078125,0.310546875,-0.1875,0.4375,0.4375
2.6149999999999665,-2.0,1.0,1.0,-1.0,-3.0,-2.0,-2.0,-2.0,-0.56390380859375,0.1754150390625,-0.11590576171875,0.79864501953125,-0.146484375,-0.9541015625,0.31005859375,-0.5,0.4375,0.375
2.6199999999999664,-2.0,1.0,1.0,-1.0,-3.0,-2.0,-2.0,-2.0,-0.56390380859375,0.1754150390625,-0.11590576171875,0.79864501953125,-0.146484375,-0.9541015625,0.31005859375,-0.5,0.4375,0.375
2.6249999999999662,-2.0,1.0,1.0,-1.0,-3.0,-2.0,-2.0,-2.0,-0.56390380859375,0.1754150390625,-0.11590576171875,0.79864501953125,-0.146484375,-0.9541015625,0.31005859375,-0.5,0.4375,0.375
2.629999999999966,-2.0,1.0,1.0,-1.0,-3.0,-2.0,-2.0,-2.0,-0.56390380859375,0.1754150390625,-0.11590576171875,0.79864501953125,-0.146484375,-0.9541015625,0.31005859375,-0.5,0.4375,0.375
2.634999999999966,1.0,-1.0,-2.0,-2.0,2.0,0.0,1.0,2.0,-0.5640869140625,0.175537109375,-0.11590576171875,0.7984619140625,-0.1484375,-0.95849609375,0.30419921875,-1.25,0.6875,0.1875
2.639999999999966,-1.0,-3.0,-5.0,-5.0,-2.0,-1.0,-1.0,-1.0,-0.5640869140625,0.175537109375,-0.11590576171875,0.7984619140625,-0.1484375,-0.95849609375,0.30419921875,-1.25,0.6875,0.1875
2.644999999999966,-2.0,-1.0,3.0,-1.0,-2.0,-1.0,-2.0,-1.0,-0.5640869140625,0.175537109375,-0.11590576171875,0.7984619140625,-0.1484375,-0.95849609375,0.30419921875,-1.25,0.6875,0.1875
2.6499999999999657,-2.0,-1.0,3.0,-1.0,-2.0,-1.0,-2.0,-1.0,-0.5640869140625,0.175537109375,-0.11590576171875,0.7984619140625,-0.1484375,-0.95849609375,0.30419921875,-1.25,0.6875,0.1875
2.6549999999999656,-2.0,-1.0,3.0,-1.0,-2.0,-1.0,-2.0,-1.0,-0.5640869140625,0.175537109375,-0.11590576171875,0.7984619140625,-0.1484375,-0.95849609375,0.30419921875,-1.25,0.6875,0.1875
2.6599999999999655,-1.0,1.0,1.0,1.0,6.0,4.0,0.0,2.0,-0.5640869140625,0.175537109375,-0.115966796875,0.7984619140625,-0.1455078125,-0.9609375,0.3076171875,-0.75,0.625,0.3125
2.6649999999999654,-1.0,1.0,1.0,1.0,6.0,4.0,0.0,2.0,-0.5640869140625,0.175537109375,-0.115966796875,0.7984619140625,-0.1455078125,-0.9609375,0.3076171875,-0.75,0.625,0.3125
2.6699999999999653,-1.0,1.0,1.0,1.0,6.0,4.0,0.0,2.0,-0.5640869140625,0.175537109375,-0.115966796875,0.7984619140625,-0.1455078125,-0.9609375,0.3076171875,-0.75,0.625,0.3125
2.674999999999965,-2.0,-2.0,0.0,-3.0,-7.0,-4.0,-3.0,-3.0,-0.5640869140625,0.175537109375,-0.115966796875,0.7984619140625,-0.14794921875,-0.958984375,0.3125,-0.0625,0.625,0.25
2.679999999999965,0.0,-2.0,-3.0,1.0,-1.0,-1.0,-1.0,-1.0,-0.5640869140625,0.175537109375,-0.115966796875,0.7984619140625,-0.14794921875,-0.958984375,0.3125,-0.0625,0.625,0.25
2.684999999999965,0.0,-2.0,-3.0,1.0,-1.0,-1.0,-1.0,-1.0,-0.5640869140625,0.175537109375,-0.115966796875,0.7984619140625,-0.14794921875,-0.958984375,0.3125,-0.0625,0.625,0.25
2.689999999999965,0.0,-2.0,-3.0,1.0,-1.0,-1.0,-1.0,-1.0,-0.5640869140625,0.175537109375,-0.115966796875,0.7984619140625,-0.14794921875,-0.958984375,0.3125,-0.0625,0.625,0.25
2.6949999999999648,-1.0,-3.0,-4.0,-2.0,-3.0,-2.0,-10.0,0.0,-0.5640869140625,0.17547607421875,-0.115966796875,0.7984619140625,-0.1435546875,-0.95556640625,0.30810546875,0.0625,0.375,0.3125
2.6999999999999647,-1.0,-3.0,-4.0,-2.0,-3.0,-2.0,-10.0,0.0,-0.5640869140625,0.17547607421875,-0.115966796875,0.7984619140625,-0.1435546875,-0.95556640625,0.30810546875,0.0625,0.375,0.3125
2.7049999999999645,-1.0,-1.0,2.0,2.0,7.0,0.0,-1.0,-1.0,-0.5640869140625,0.17547607421875,-0.115966796875,0.7984619140625,-0.1435546875,-0.95556640625,0.30810546875,0.0625,0.375,0.3125
2.7099999999999644,-1.0,-1.0,2.0,2.0,7.0,0.0,-1.0,-1.0,-0.5640869140625,0.17547607421875,-0.115966796875,0.7984619140625,-0.1435546875,-0.95556640625,0.30810546875,0.0625,0.375,0.3125
2.7149999999999643,-1.0,-1.0,2.0,2.0,7.0,0.0,-1.0,-1.0,-0.5640869140625,0.17547607421875,-0.115966796875,0.7984619140625,-0.1435546875,-0.95556640625,0.30810546875,0.0625,0.375,0.3125
2.7199999999999642,-1.0,-1.0,2.0,2.0,7.0,0.0,-1.0,-1.0,-0.5640869140625,0.17547607421875,-0.115966796875,0.7984619140625,-0.1435546875,-0.95556640625,0.30810546875,0.0625,0.375,0.3125
2.724999999999964,-2.0,-1.0,-2.0,-5.0,-8.0,-4.0,-3.0,0.0,-0.5640869140625,0.17547607421875,-0.115966796875,0.7984619140625,-0.150390625,-0.955078125,0.30859375,-0.8125,0.375,0.1875
2.729999999999964,-2.0,-1.0,-2.0,-5.0,-8.0,-4.0,-3.0,0.0,-0.5640869140625,0.17547607421875,-0.115966796875,0.7984619140625,-0.150390625,-0.955078125,0.30859375,-0.8125,0.375,0.1875
2.734999999999964,-1.0,-2.0,-4.0,-2.0,-4.0,-5.0,-4.0,-2.0,-0.5640869140625,0.17547607421875,-0.115966796875,0.7984619140625,-0.150390625,-0.955078125,0.30859375,-0.8125,0.375,0.1875
2.739999999999964,-1.0,-1.0,0.0,0.0,0.0,2.0,1.0,-2.0,-0.5640869140625,0.17547607421875,-0.115966796875,0.7984619140625,-0.150390625,-0.955078125,0.30859375,-0.8125,0.375,0.1875
2.7449999999999637,-1.0,-2.0,-4.0,-1.0,1.0,3.0,3.0,0.0,-0.5640869140625,0.17547607421875,-0.115966796875,0.7984619140625,-0.15478515625,-0.96044921875,0.30810546875,-0.6875,0.3125,0.0625
2.7499999999999636,-1.0,-2.0,-4.0,-1.0,1.0,3.0,3.0,0.0,-0.5640869140625,0.17547607421875,-0.115966796875,0.7984619140625,-0.15478515625,-0.96044921875,0.30810546875,-0.6875,0.3125,0.0625
2.7549999999999635,-1.0,-2.0,-4.0,-1.0,1.0,3.0,3.0,0.0,-0.5640869140625,0.17547607421875,-0.115966796875,0.7984619140625,-0.15478515625,-0.96044921875,0.30810546875,-0.6875,0.3125,0.0625
2.7599999999999634,-4.0,-2.0,-3.0,-2.0,-2.0,-2.0,1.0,-3.0,-0.5640869140625,0.17547607421875,-0.115966796875,0.7984619140625,-0.1533203125,-0.9599609375,0.31005859375,0.1875,0.0,0.125
2.7649999999999633,1.0,0.0,-8.0,-5.0,-4.0,-3.0,-1.0,1.0,-0.5640869140625,0.17547607421875,-0.115966796875,0.7984619140625,-0.1533203125,-0.9599609375,0.31005859375,0.1875,0.0,0.125
2.769999999999963,1.0,0.0,-8.0,-5.0,-4.0,-3.0,-1.0,1.0,-0.5640869140625,0.17547607421875,-0.115966796875,0.7984619140625,-0.1533203125,-0.9599609375,0.31005859375,0.1875,0.0,0.125
2.774999999999963,1.0,0.0,-8.0,-5.0,-4.0,-3.0,-1.0,1.0,-0.5640869140625,0.17547607421875,-0.115966796875,0.7984619140625,-0.1533203125,-0.9599609375,0.31005859375,0.1875,0.0,0.125
2.779999999999963,1.0,-2.0,-4.0,-4.0,-2.0,-2.0,-1.0,-1.0,-0.5640869140625,0.17547607421875,-0.115966796875,0.7984619140625,-0.1533203125,-0.9599609375,0.31005859375,0.1875,0.0,0.125
2.784999999999963,-1.0,-2.0,-1.0,1.0,-2.0,-2.0,-11.0,-4.0,-0.5640869140625,0.175537109375,-0.115966796875,0.7984619140625,-0.15478515625,-0.9521484375,0.3056640625,-0.25,-0.0625,0.125
2.7899999999999627,-1.0,-2.0,-1.0,1.0,-2.0,-2.0,-11.0,-4.0,-0.5640869140625,0.175537109375,-0.115966796875,0.7984619140625,-0.15478515625,-0.9521484375,0.3056640625,-0.25,-0.0625,0.125
2.7949999999999626,-1.0,0.0,-3.0,-4.0,-3.0,-5.0,-1.0,-1.0,-0.5640869140625,0.175537109375,-0.115966796875,0.7984619140625,-0.15478515625,-0.9521484375,0.3056640625,-0.25,-0.0625,0.125
2.7999999999999625,-1.0,0.0,-3.0,-4.0,-3.0,-5.0,-1.0,-1.0,-0.5640869140625,0.175537109375,-0.115966796875,0.7984619140625,-0.15478515625,-0.9521484375,0.3056640625,-0.25,-0.0625,0.125
2.8049999999999624,-1.0,0.0,-3.0,-4.0,-3.0,-5.0,-1.0,-1.0,-0.5640869140625,0.175537109375,-0.115966796875,0.7984619140625,-0.15478515625,-0.9521484375,0.3056640625,-0.25,-0.0625,0.125
2.8099999999999623,-1.0,-1.0,-2.0,1.0,2.0,4.0,5.0,1.0,-0.5640869140625,0.175537109375,-0.115966796875,0.7984619140625,-0.1513671875,-0.9609375,0.30419921875,-0.3125,0.1875,0.0625
2.814999999999962,-1.0,-1.0,-2.0,1.0,2.0,4.0,5.0,1.0,-0.5640869140625,0.175537109375,-0.115966796875,0.7984619140625,-0.1513671875,-0.9609375,0.30419921875,-0.3125,0.1875,0.0625
2.819999999999962,-1.0,-1.0,-2.0,1.0,2.0,4.0,5.0,1.0,-0.5640869140625,0.175537109375,-0.115966796875,0.7984619140625,-0.1513671875,-0.9609375,0.30419921875,-0.3125,0.1875,0.0625
2.824999999999962,-2.0,-4.0,-11.0,-1.0,0.0,3.0,-1.0,-2.0,-0.5640869140625,0.175537109375,-0.115966796875,0.7984619140625,-0.15234375,-0.958984375,0.30615234375,0.125,0.125,0.125
2.829999999999962,-1.0,-2.0,-2.0,0.0,-1.0,0.0,0.0,0.0,-0.5640869140625,0.175537109375,-0.115966796875,0.7984619140625,-0.15234375,-0.958984375,0.30615234375,0.125,0.125,0.125
2.8349999999999618,-1.0,-2.0,-2.0,0.0,-1.0,0.0,0.0,0.0,-0.5640869140625,0.175537109375,-0.115966796875,0.7984619140625,-0.15234375,-0.958984375,0.30615234375,0.125,0.125,0.125
2.8399999999999617,-1.0,-2.0,-2.0,0.0,-1.0,0.0,0.0,0.0,-0.5640869140625,0.175537109375,-0.115966796875,0.7984619140625,-0.15234375,-0.958984375,0.30615234375,0.125,0.125,0.125
2.8449999999999616,-1.0,-2.0,-2.0,0.0,-1.0,0.0,0.0,0.0,-0.5640869140625,0.175537109375,-0.115966796875,0.7984619140625,-0.15234375,-0.958984375,0.30615234375,0.125,0.125,0.125
2.8499999999999615,-2.0,-2.0,-3.0,-8.0,0.0,-1.0,0.0,-1.0,-0.5640869140625,0.17547607421875,-0.115966796875,0.7984619140625,-0.1474609375,-0.95703125,0.3095703125,0.125,0.0,0.1875
2.8549999999999613,0.0,0.0,-1.0,-2.0,-4.0,-7.0,-3.0,-4.0,-0.5640869140625,0.17547607421875,-0.115966796875,0.7984619140625,-0.1474609375,-0.95703125,0.3095703125,0.125,0.0,0.1875
2.8599999999999612,0.0,0.0,-1.0,-2.0,-4.0,-7.0,-3.0,-4.0,-0.5640869140625,0.17547607421875,-0.115966796875,0.7984619140625,-0.1474609375,-0.95703125,0.3095703125,0.125,0.0,0.1875
2.864999999999961,0.0,-2.0,0.0,0.0,0.0,1.0,-1.0,-3.0,-0.5640869140625,0.17547607421875,-0.115966796875,0.7984619140625,-0.1474609375,-0.95703125,0.3095703125,0.125,0.0,0.1875
2.869999999999961,0.0,-2.0,0.0,0.0,0.0,1.0,-1.0,-3.0,-0.5640869140625,0.17547607421875,-0.115966796875,0.7984619140625,-0.14599609375,-0.9638671875,0.302734375,-0.3125,-0.1875,0.375
2.874999999999961,-2.0,-2.0,-1.0,0.0,-1.0,-4.0,4.0,0.0,-0.5640869140625,0.17547607421875,-0.115966796875,0.7984619140625,-0.14599609375,-0.9638671875,0.302734375,-0.3125,-0.1875,0.375
2.879999999999961,-2.0,-2.0,-1.0,0.0,-1.0,-4.0,4.0,0.0,-0.5640869140625,0.17547607421875,-0.115966796875,0.7984619140625,-0.14599609375,-0.9638671875,0.302734375,-0.3125,-0.1875,0.375
2.8849999999999607,-1.0,-1.0,0.0,0.0,-4.0,-4.0,-3.0,-2.0,-0.5640869140625,0.17547607421875,-0.115966796875,0.7984619140625,-0.14990234375,-0.95849609375,0.31201171875,0.0625,0.125,0.125
2.8899999999999606,-1.0,-1.0,0.0,0.0,-4.0,-4.0,-3.0,-2.0,-0.5640869140625,0.17547607421875,-0.115966796875,0.7984619140625,-0.14990234375,-0.95849609375,0.31201171875,0.0625,0.125,0.125
2.8949999999999605,-1.0,1.0,-2.0,-5.0,2.0,2.0,0.0,0.0,-0.5640869140625,0.17547607421875,-0.115966796875,0.7984619140625,-0.14990234375,-0.95849609375,0.31201171875,0.0625,0.125,0.125
2.8999999999999604,-1.0,1.0,-2.0,-5.0,2.0,2.0,0.0,0.0,-0.5640869140625,0.17547607421875,-0.115966796875,0.7984619140625,-0.14990234375,-0.95849609375,0.31201171875,0.0625,0.125,0.125
2.9049999999999603,-1.0,1.0,-2.0,-5.0,2.0,2.0,0.0,0.0,-0.5640869140625,0.17547607421875,-0.115966796875,0.7984619140625,-0.14990234375,-0.95849609375,0.31201171875,0.0625,0.125,0.125
2.90999999999996,-1.0,1.0,-2.0,-5.0,2.0,2.0,0.0,0.0,-0.5640869140625,0.17547607421875,-0.115966796875,0.7984619140625,-0.14990234375,-0.95849609375,0.31201171875,0.0625,0.125,0.125
2.91499999999996,1.0,-2.0,-1.0,2.0,1.0,2.0,0.0,1.0,-0.5640869140625,0.17547607421875,-0.115966796875,0.7984619140625,-0.14501953125,-0.95458984375,0.30712890625,0.0,0.0625,0.0
2.91999999999996,1.0,-2.0,-1.0,2.0,1.0,2.0,0.0,1.0,-0.5640869140625,0.17547607421875,-0.115966796875,0.7984619140625,-0.14501953125,-0.95458984375,0.30712890625,0.0,0.0625,0.0
2.92499999999996,1.0,-2.0,-1.0,2.0,1.0,2.0,0.0,1.0,-0.5640869140625,0.17547607421875,-0.115966796875,0.7984619140625,-0.14501953125,-0.95458984375,0.30712890625,0.0,0.0625,0.0
2.9299999999999597,-1.0,-1.0,1.0,-1.0,-4.0,-4.0,-2.0,-1.0,-0.5640869140625,0.17547607421875,-0.115966796875,0.7984619140625,-0.14501953125,-0.95458984375,0.30712890625,0.0,0.0625,0.0
2.9349999999999596,-1.0,-1.0,1.0,-1.0,-4.0,-4.0,-2.0,-1.0,-0.5640869140625,0.17547607421875,-0.115966796875,0.7984619140625,-0.14501953125,-0.95458984375,0.30712890625,0.0,0.0625,0.0
2.9399999999999595,-3.0,0.0,-2.0,-2.0,-2.0,-3.0,-3.0,-2.0,-0.5640869140625,0.17547607421875,-0.11602783203125,0.7984619140625,-0.14697265625,-0.95751953125,0.306640625,0.5,-0.1875,0.0
2.9449999999999594,-3.0,0.0,-2.0,-2.0,-2.0,-3.0,-3.0,-2.0,-0.5640869140625,0.17547607421875,-0.11602783203125,0.7984619140625,-0.14697265625,-0.95751953125,0.306640625,0.5,-0.1875,0.0
2.9499999999999593,-3.0,0.0,-2.0,-2.0,-2.0,-3.0,-3.0,-2.0,-0.5640869140625,0.17547607421875,-0.11602783203125,0.7984619140625,-0.14697265625,-0.95751953125,0.306640625,0.5,-0.1875,0.0
2.954999999999959,-3.0,0.0,-2.0,-2.0,-2.0,-3.0,-3.0,-2.0,-0.5640869140625,0.17547607421875,-0.11602783203125,0.7984619140625,-0.14697265625,-0.95751953125,0.306640625,0.5,-0.1875,0.0
2.959999999999959,-1.0,0.0,4.0,4.0,-2.0,-1.0,1.0,0.0,-0.5640869140625,0.17547607421875,-0.11602783203125,0.7984619140625,-0.150390625,-0.95947265625,0.30517578125,0.9375,-0.125,0.0
2.964999999999959,-1.0,0.0,4.0,4.0,-2.0,-1.0,1.0,0.0,-0.5640869140625,0.17547607421875,-0.11602783203125,0.7984619140625,-0.150390625,-0.95947265625,0.30517578125,0.9375,-0.125,0.0
2.969999999999959,-2.0,-1.0,0.0,0.0,1.0,0.0,-3.0,-2.0,-0.5640869140625,0.17547607421875,-0.11602783203125,0.7984619140625,-0.150390625,-0.95947265625,0.30517578125,0.9375,-0.125,0.0
2.974999999999959,-2.0,-1.0,0.0,0.0,1.0,0.0,-3.0,-2.0,-0.5640869140625,0.17547607421875,-0.11602783203125,0.7984619140625,-0.150390625,-0.95947265625,0.30517578125,0.9375,-0.125,0.0
2.9799999999999587,-2.0,-1.0,0.0,0.0,1.0,0.0,-3.0,-2.0,-0.5640869140625,0.17547607421875,-0.11602783203125,0.7984619140625,-0.1513671875,-0.955078125,0.3095703125,0.5625,-0.0625,-0.25
2.9849999999999586,-2.0,-1.0,0.0,0.0,1.0,0.0,-3.0,-2.0,-0.5640869140625,0.17547607421875,-0.11602783203125,0.7984619140625,-0.1513671875,-0.955078125,0.3095703125,0.5625,-0.0625,-0.25
2.9899999999999585,-1.0,-2.0,-1.0,0.0,0.0,-1.0,-4.0,-3.0,-0.5640869140625,0.17547607421875,-0.11602783203125,0.7984619140625,-0.1513671875,-0.955078125,0.3095703125,0.5625,-0.0625,-0.25
2.9949999999999584,-1.0,-2.0,-1.0,0.0,0.0,-1.0,-4.0,-3.0,-0.5640869140625,0.17547607421875,-0.11602783203125,0.7984619140625,-0.1513671875,-0.955078125,0.3095703125,0.5625,-0.0625,-0.25
2.9999999999999583,-1.0,-2.0,-1.0,0.0,0.0,-1.0,-4.0,-3.0,-0.5640869140625,0.17547607421875,-0.11602783203125,0.7984619140625,-0.1513671875,-0.955078125,0.3095703125,0.5625,-0.0625,-0.25
3.004999999999958,-1.0,-2.0,-1.0,0.0,0.0,-1.0,-4.0,-3.0,-0.5640869140625,0.17547607421875,-0.11602783203125,0.7984619140625,-0.1513671875,-0.955078125,0.3095703125,0.5625,-0.0625,-0.25
3.009999999999958,-1.0,-2.0,-1.0,0.0,0.0,-1.0,-4.0,-3.0,-0.5640869140625,0.17547607421875,-0.11602783203125,0.7984619140625,-0.15185546875,-0.95556640625,0.3056640625,0.125,-0.125,0.0
3.014999999999958,-1.0,-2.0,-1.0,0.0,0.0,-1.0,-4.0,-3.0,-0.5640869140625,0.17547607421875,-0.11602783203125,0.7984619140625,-0.15185546875,-0.95556640625,0.3056640625,0.125,-0.125,0.0
3.019999999999958,-2.0,-2.0,-1.0,-6.0,-9.0,-6.0,-4.0,-2.0,-0.5640869140625,0.17547607421875,-0.11602783203125,0.7984619140625,-0.15185546875,-0.95556640625,0.3056640625,0.125,-0.125,0.0
3.0249999999999577,-2.0,-2.0,-1.0,-6.0,-9.0,-6.0,-4.0,-2.0,-0.5640869140625,0.17547607421875,-0.11602783203125,0.7984619140625,-0.15185546875,-0.95556640625,0.3056640625,0.125,-0.125,0.0
3.0299999999999576,-2.0,-2.0,-1.0,-6.0,-9.0,-6.0,-4.0,-2.0,-0.5640869140625,0.17547607421875,-0.11602783203125,0.7984619140625,-0.15185546875,-0.95556640625,0.3056640625,0.125,-0.125,0.0
3.0349999999999575,-2.0,-2.0,-1.0,-6.0,-9.0,-6.0,-4.0,-2.0,-0.5640869140625,0.17547607421875,-0.11602783203125,0.7984619140625,-0.15185546875,-0.95556640625,0.3056640625,0.125,-0.125,0.0
3.0399999999999574,0.0,-2.0,-5.0,-4.0,0.0,0.0,1.0,-1.0,-0.5640869140625,0.1754150390625,-0.11602783203125,0.7984619140625,-0.1474609375,-0.95751953125,0.302734375,0.0625,-0.4375,-0.125
3.0449999999999573,0.0,-2.0,-5.0,-4.0,0.0,0.0,1.0,-1.0,-0.5640869140625,0.1754150390625,-0.11602783203125,0.7984619140625,-0.1474609375,-0.95751953125,0.302734375,0.0625,-0.4375,-0.125
3.049999999999957,-1.0,0.0,-1.0,4.0,-1.0,1.0,1.0,1.0,-0.5640869140625,0.1754150390625,-0.11602783203125,0.7984619140625,-0.1474609375,-0.95751953125,0.302734375,0.0625,-0.4375,-0.125
3.054999999999957,-1.0,0.0,-1.0,4.0,-1.0,1.0,1.0,1.0,-0.5640869140625,0.1754150390625,-0.11602783203125,0.7984619140625,-0.1474609375,-0.95751953125,0.302734375,0.0625,-0.4375,-0.125
3.059999999999957,-1.0,0.0,-1.0,4.0,-1.0,1.0,1.0,1.0,-0.5640869140625,0.1754150390625,-0.11602783203125,0.7984619140625,-0.14599609375,-0.95849609375,0.3154296875,0.0,-0.375,-0.125
3.064999999999957,-1.0,0.0,-1.0,4.0,-1.0,1.0,1.0,1.0,-0.5640869140625,0.1754150390625,-0.11602783203125,0.7984619140625,-0.14599609375,-0.95849609375,0.3154296875,0.0,-0.375,-0.125
3.0699999999999568,-1.0,0.0,-1.0,4.0,-1.0,1.0,1.0,1.0,-0.5640869140625,0.1754150390625,-0.11602783203125,0.7984619140625,-0.14599609375,-0.95849609375,0.3154296875,0.0,-0.375,-0.125
3.0749999999999567,-1.0,0.0,-1.0,4.0,-1.0,1.0,1.0,1.0,-0.5640869140625,0.1754150390625,-0.11602783203125,0.7984619140625,-0.14599609375,-0.95849609375,0.3154296875,0.0,-0.375,-0.125
3.0799999999999566,0.0,0.0,2.0,-4.0,-3.0,-3.0,-4.0,-2.0,-0.5640869140625,0.1754150390625,-0.11602783203125,0.7984619140625,-0.14599609375,-0.95849609375,0.3154296875,0.0,-0.375,-0.125
3.0849999999999564,0.0,0.0,2.0,-4.0,-3.0,-3.0,-4.0,-2.0,-0.5640869140625,0.1754150390625,-0.11602783203125,0.7984619140625,-0.14599609375,-0.95849609375,0.3154296875,0.0,-0.375,-0.125
3.0899999999999563,0.0,0.0,2.0,-4.0,-3.0,-3.0,-4.0,-2.0,-0.5640869140625,0.1754150390625,-0.11602783203125,0.7984619140625,-0.146484375,-0.95751953125,0.30859375,0.25,-0.4375,-0.125
3.0949999999999562,0.0,0.0,2.0,-4.0,-3.0,-3.0,-4.0,-2.0,-0.5640869140625,0.1754150390625,-0.11602783203125,0.7984619140625,-0.146484375,-0.95751953125,0.30859375,0.25,-0.4375,-0.125
3.099999999999956,-2.0,-3.0,0.0,-4.0,1.0,1.0,1.0,-1.0,-0.5640869140625,0.1754150390625,-0.11602783203125,0.7984619140625,-0.146484375,-0.95751953125,0.30859375,0.25,-0.4375,-0.125
3.104999999999956,-2.0,-3.0,0.0,-4.0,1.0,1.0,1.0,-1.0,-0.5640869140625,0.1754150390625,-0.11602783203125,0.7984619140625,-0.146484375,-0.95751953125,0.30859375,0.25,-0.4375,-0.125
3.109999999999956,-2.0,-3.0,0.0,-4.0,1.0,1.0,1.0,-1.0,-0.5640869140625,0.1754150390625,-0.11602783203125,0.7984619140625,-0.146484375,-0.95751953125,0.30859375,0.25,-0.4375,-0.125
3.114999999999956,-2.0,-3.0,0.0,-4.0,1.0,1.0,1.0,-1.0,-0.5640869140625,0.1754150390625,-0.11602783203125,0.7984619140625,-0.146484375,-0.95751953125,0.30859375,0.25,-0.4375,-0.125
3.1199999999999557,-1.0,0.0,1.0,3.0,0.0,-1.0,-3.0,-1.0,-0.5640869140625,0.1754150390625,-0.11602783203125,0.7984619140625,-0.1455078125,-0.96142578125,0.31396484375,0.125,-0.25,0.1875
3.1249999999999556,0.0,-2.0,-5.0,-8.0,0.0,-1.0,-1.0,-2.0,-0.5640869140625,0.1754150390625,-0.11602783203125,0.7984619140625,-0.1455078125,-0.96142578125,0.31396484375,0.125,-0.25,0.1875
3.1299999999999555,0.0,-2.0,-5.0,-8.0,0.0,-1.0,-1.0,-2.0,-0.5640869140625,0.1754150390625,-0.11602783203125,0.7984619140625,-0.1455078125,-0.96142578125,0.31396484375,0.125,-0.25,0.1875
3.1349999999999554,0.0,-2.0,-5.0,-8.0,0.0,-1.0,-1.0,-2.0,-0.5640869140625,0.1754150390625,-0.11602783203125,0.79852294921875,-0.1533203125,-0.9541015625,0.30859375,-0.25,-0.3125,0.3125
3.1399999999999553,0.0,-2.0,-5.0,-8.0,0.0,-1.0,-1.0,-2.0,-0.5640869140625,0.1754150390625,-0.11602783203125,0.79852294921875,-0.1533203125,-0.9541015625,0.30859375,-0.25,-0.3125,0.3125
3.144999999999955,-1.0,0.0,-3.0,2.0,6.0,0.0,0.0,0.0,-0.5640869140625,0.1754150390625,-0.11602783203125,0.79852294921875,-0.1533203125,-0.9541015625,0.30859375,-0.25,-0.3125,0.3125
3.149999999999955,-1.0,0.0,-3.0,2.0,6.0,0.0,0.0,0.0,-0.5640869140625,0.1754150390625,-0.11602783203125,0.79852294921875,-0.1533203125,-0.9541015625,0.30859375,-0.25,-0.3125,0.3125
3.154999999999955,-2.0,-2.0,-2.0,4.0,-1.0,-2.0,-9.0,-3.0,-0.5640869140625,0.1754150390625,-0.11602783203125,0.79852294921875,-0.1533203125,-0.9541015625,0.30859375,-0.25,-0.3125,0.3125
3.159999999999955,-2.0,-2.0,-2.0,4.0,-1.0,-2.0,-9.0,-3.0,-0.5640869140625,0.1754150390625,-0.11602783203125,0.79852294921875,-0.1533203125,-0.9541015625,0.30859375,-0.25,-0.3125,0.3125
3.1649999999999547,-2.0,-2.0,-2.0,4.0,-1.0,-2.0,-9.0,-3.0,-0.56402587890625,0.17535400390625,-0.11602783203125,0.79852294921875,-0.14990234375,-0.9560546875,0.3125,-0.625,-0.5,0.5
3.1699999999999546,-2.0,-2.0,-2.0,4.0,-1.0,-2.0,-9.0,-3.0,-0.56402587890625,0.17535400390625,-0.11602783203125,0.79852294921875,-0.14990234375,-0.9560546875,0.3125,-0.625,-0.5,0.5
3.1749999999999545,-1.0,-2.0,0.0,-4.0,-2.0,-2.0,-2.0,-4.0,-0.56402587890625,0.17535400390625,-0.11602783203125,0.79852294921875,-0.14990234375,-0.9560546875,0.3125,-0.625,-0.5,0.5
3.1799999999999544,-2.0,0.0,-7.0,-9.0,-3.0,-1.0,0.0,1.0,-0.56402587890625,0.17535400390625,-0.11602783203125,0.79852294921875,-0.14990234375,-0.9560546875,0.3125,-0.625,-0.5,0.5
3.1849999999999543,-2.0,0.0,-7.0,-9.0,-3.0,-1.0,0.0,1.0,-0.56402587890625,0.17535400390625,-0.11602783203125,0.79852294921875,-0.14990234375,-0.9560546875,0.3125,-0.625,-0.5,0.5
3.189999999999954,-2.0,0.0,-7.0,-9.0,-3.0,-1.0,0.0,1.0,-0.56402587890625,0.17535400390625,-0.11602783203125,0.79852294921875,-0.14990234375,-0.9560546875,0.3125,-0.625,-0.5,0.5
3.194999999999954,-2.0,0.0,-7.0,-9.0,-3.0,-1.0,0.0,1.0,-0.56402587890625,0.17535400390625,-0.11602783203125,0.79852294921875,-0.14990234375,-0.9560546875,0.3125,-0.625,-0.5,0.5
3.199999999999954,-3.0,-1.0,-2.0,-6.0,-1.0,1.0,-2.0,-1.0,-0.56402587890625,0.17535400390625,-0.11602783203125,0.79852294921875,-0.15283203125,-0.96826171875,0.31103515625,-0.875,-0.5625,0.9375
3.204999999999954,0.0,0.0,0.0,3.0,0.0,0.0,2.0,-1.0,-0.56402587890625,0.17535400390625,-0.11602783203125,0.79852294921875,-0.15283203125,-0.96826171875,0.31103515625,-0.875,-0.5625,0.9375
3.209999999999954,0.0,0.0,0.0,3.0,0.0,0.0,2.0,-1.0,-0.5638427734375,0.17535400390625,-0.11602783203125,0.79864501953125,-0.14794921875,-0.95849609375,0.3076171875,1.4375,-0.0625,0.6875
3.2149999999999537,0.0,0.0,0.0,3.0,0.0,0.0,2.0,-1.0,-0.5638427734375,0.17535400390625,-0.11602783203125,0.79864501953125,-0.14794921875,-0.95849609375,0.3076171875,1.4375,-0.0625,0.6875
3.2199999999999536,0.0,1.0,-1.0,2.0,-1.0,0.0,-1.0,-1.0,-0.5638427734375,0.17535400390625,-0.11602783203125,0.79864501953125,-0.14794921875,-0.95849609375,0.3076171875,1.4375,-0.0625,0.6875
3.2249999999999535,1.0,-4.0,-8.0,-7.0,-2.0,-2.0,0.0,-1.0,-0.5638427734375,0.17535400390625,-0.11602783203125,0.79864501953125,-0.14794921875,-0.95849609375,0.3076171875,1.4375,-0.0625,0.6875
3.2299999999999534,-1.0,-1.0,-3.0,-4.0,-5.0,-5.0,-4.0,-2.0,-0.5638427734375,0.17535400390625,-0.11602783203125,0.79864501953125,-0.14794921875,-0.95849609375,0.3076171875,1.4375,-0.0625,0.6875
3.2349999999999532,-1.0,-1.0,-3.0,-4.0,-5.0,-5.0,-4.0,-2.0,-0.56378173828125,0.17535400390625,-0.11602783203125,0.79864501953125,-0.1494140625,-0.9482421875,0.3134765625,0.75,0.4375,0.25
3.239999999999953,-1.0,-1.0,-3.0,-4.0,-5.0,-5.0,-4.0,-2.0,-0.56378173828125,0.17535400390625,-0.11602783203125,0.79864501953125,-0.1494140625,-0.9482421875,0.3134765625,0.75,0.4375,0.25
3.244999999999953,0.0,-1.0,-1.0,3.0,3.0,1.0,4.0,0.0,-0.56378173828125,0.17535400390625,-0.11602783203125,0.79864501953125,-0.1494140625,-0.9482421875,0.3134765625,0.75,0.4375,0.25
3.249999999999953,0.0,-1.0,-1.0,3.0,3.0,1.0,4.0,0.0,-0.56378173828125,0.17535400390625,-0.11602783203125,0.79864501953125,-0.1494140625,-0.9482421875,0.3134765625,0.75,0.4375,0.25
3.254999999999953,0.0,-1.0,-1.0,3.0,3.0,1.0,4.0,0.0,-0.56378173828125,0.17535400390625,-0.11602783203125,0.79864501953125,-0.1494140625,-0.9482421875,0.3134765625,0.75,0.4375,0.25
3.2599999999999527,-1.0,-2.0,0.0,-1.0,-2.0,-2.0,0.0,-2.0,-0.56390380859375,0.17529296875,-0.115966796875,0.79864501953125,-0.14599609375,-0.95458984375,0.31591796875,-1.25,-0.375,0.25
3.2649999999999526,0.0,0.0,1.0,-2.0,-3.0,0.0,-2.0,-1.0,-0.56390380859375,0.17529296875,-0.115966796875,0.79864501953125,-0.14599609375,-0.95458984375,0.31591796875,-1.25,-0.375,0.25
3.2699999999999525,0.0,0.0,1.0,-2.0,-3.0,0.0,-2.0,-1.0,-0.56390380859375,0.17529296875,-0.115966796875,0.79864501953125,-0.14599609375,-0.95458984375,0.31591796875,-1.25,-0.375,0.25
3.2749999999999524,0.0,0.0,1.0,-2.0,-3.0,0.0,-2.0,-1.0,-0.56390380859375,0.17529296875,-0.115966796875,0.79864501953125,-0.14208984375,-0.9619140625,0.3125,-0.5,-0.3125,0.5625
3.2799999999999523,-3.0,-2.0,-2.0,-1.0,-5.0,-4.0,-5.0,-1.0,-0.56390380859375,0.17529296875,-0.115966796875,0.79864501953125,-0.14208984375,-0.9619140625,0.3125,-0.5,-0.3125,0.5625
3.284999999999952,-3.0,-2.0,-2.0,-1.0,-5.0,-4.0,-5.0,-1.0,-0.56390380859375,0.17529296875,-0.115966796875,0.79864501953125,-0.14208984375,-0.9619140625,0.3125,-0.5,-0.3125,0.5625
3.289999999999952,-3.0,-2.0,-3.0,2.0,1.0,1.0,0.0,-1.0,-0.56390380859375,0.17529296875,-0.115966796875,0.79864501953125,-0.14208984375,-0.9619140625,0.3125,-0.5,-0.3125,0.5625
