0.005,-3.0,1.0,-4.0,6.0,-1.0,0.0,-1.0,-2.0,-0.0614013671875,-0.3470458984375,0.90386962890625,0.242431640625,0.05712890625,-0.66357421875,0.77392578125,0.0625,-0.4375,-0.625
0.01,-2.0,0.0,6.0,3.0,0.0,0.0,0.0,-1.0,-0.06146240234375,-0.34716796875,0.90380859375,0.24261474609375,0.05224609375,-0.66455078125,0.78271484375,-1.8125,0.125,-1.1875
0.015,-1.0,-5.0,-14.0,-6.0,0.0,0.0,4.0,-3.0,-0.06146240234375,-0.34716796875,0.90380859375,0.24261474609375,0.05224609375,-0.66455078125,0.78271484375,-1.8125,0.125,-1.1875
0.02,-1.0,-5.0,-14.0,-6.0,0.0,0.0,4.0,-3.0,-0.06146240234375,-0.34716796875,0.90380859375,0.24261474609375,0.05224609375,-0.66455078125,0.78271484375,-1.8125,0.125,-1.1875
0.025,-1.0,-5.0,-14.0,-6.0,0.0,0.0,4.0,-3.0,-0.06146240234375,-0.34716796875,0.90380859375,0.24261474609375,0.05224609375,-0.66455078125,0.78271484375,-1.8125,0.125,-1.1875
0.030000000000000002,-1.0,-5.0,-14.0,-6.0,0.0,0.0,4.0,-3.0,-0.06146240234375,-0.34716796875,0.90380859375,0.24261474609375,0.05224609375,-0.66455078125,0.78271484375,-1.8125,0.125,-1.1875
0.035,-1.0,-5.0,-14.0,-6.0,0.0,0.0,4.0,-3.0,-0.06146240234375,-0.34716796875,0.90380859375,0.24261474609375,0.05224609375,-0.66455078125,0.78271484375,-1.8125,0.125,-1.1875
0.04,-1.0,-5.0,-14.0,-6.0,0.0,0.0,4.0,-3.0,-0.06146240234375,-0.34716796875,0.90380859375,0.24261474609375,0.05224609375,-0.66455078125,0.78271484375,-1.8125,0.125,-1.1875
0.045,-1.0,-3.0,14.0,7.0,10.0,1.0,-1.0,0.0,-0.06146240234375,-0.34716796875,0.90380859375,0.24261474609375,0.05224609375,-0.66455078125,0.78271484375,-1.8125,0.125,-1.1875
0.049999999999999996,-1.0,-3.0,14.0,7.0,10.0,1.0,-1.0,0.0,-0.06146240234375,-0.34716796875,0.90380859375,0.24261474609375,0.05224609375,-0.66455078125,0.78271484375,-1.8125,0.125,-1.1875
0.05499999999999999,-3.0,0.0,-4.0,0.0,0.0,-1.0,-4.0,-1.0,-0.06170654296875,-0.34783935546875,0.90350341796875,0.24267578125,0.05126953125,-0.67041015625,0.77734375,-5.25,0.0625,-0.75
0.05999999999999999,-3.0,0.0,-4.0,0.0,0.0,-1.0,-4.0,-1.0,-0.06170654296875,-0.34783935546875,0.90350341796875,0.24267578125,0.05126953125,-0.67041015625,0.77734375,-5.25,0.0625,-0.75
0.06499999999999999,-1.0,1.0,19.0,6.0,-7.0,-2.0,-1.0,-2.0,-0.06170654296875,-0.34783935546875,0.90350341796875,0.24267578125,0.05126953125,-0.67041015625,0.77734375,-5.25,0.0625,-0.75
0.06999999999999999,-1.0,1.0,19.0,6.0,-7.0,-2.0,-1.0,-2.0,-0.062255859375,-0.349365234375,0.90283203125,0.24273681640625,0.05712890625,-0.6708984375,0.74609375,-9.4375,1.1875,-1.0
0.075,0.0,-3.0,3.0,9.0,0.0,-1.0,-2.0,-1.0,-0.062255859375,-0.349365234375,0.90283203125,0.24273681640625,0.05712890625,-0.6708984375,0.74609375,-9.4375,1.1875,-1.0
0.08,0.0,-3.0,3.0,9.0,0.0,-1.0,-2.0,-1.0,-0.062255859375,-0.349365234375,0.90283203125,0.24273681640625,0.05712890625,-0.6708984375,0.74609375,-9.4375,1.1875,-1.0
0.085,-1.0,1.0,-7.0,-6.0,-2.0,0.0,0.0,-1.0,-0.062744140625,-0.35076904296875,0.90216064453125,0.24298095703125,0.05615234375,-0.67138671875,0.7392578125,-8.375,0.875,-1.6875
0.09000000000000001,-1.0,-2.0,4.0,-5.0,-2.0,-1.0,-1.0,-1.0,-0.062744140625,-0.35076904296875,0.90216064453125,0.24298095703125,0.05615234375,-0.67138671875,0.7392578125,-8.375,0.875,-1.6875
0.09500000000000001,-1.0,-2.0,4.0,-5.0,-2.0,-1.0,-1.0,-1.0,-0.062744140625,-0.35076904296875,0.90216064453125,0.24298095703125,0.05615234375,-0.67138671875,0.7392578125,-8.375,0.875,-1.6875
0.10000000000000002,-1.0,-2.0,4.0,-5.0,-2.0,-1.0,-1.0,-1.0,-0.062744140625,-0.35076904296875,0.90216064453125,0.24298095703125,0.05615234375,-0.67138671875,0.7392578125,-8.375,0.875,-1.6875
0.10500000000000002,-1.0,-2.0,4.0,-5.0,-2.0,-1.0,-1.0,-1.0,-0.062744140625,-0.35076904296875,0.90216064453125,0.24298095703125,0.05615234375,-0.67138671875,0.7392578125,-8.375,0.875,-1.6875
0.11000000000000003,-1.0,-2.0,4.0,-5.0,-2.0,-1.0,-1.0,-1.0,-0.062744140625,-0.35076904296875,0.90216064453125,0.24298095703125,0.05615234375,-0.67138671875,0.7392578125,-8.375,0.875,-1.6875
0.11500000000000003,-2.0,-2.0,-6.0,-3.0,-1.0,-1.0,-1.0,0.0,-0.06280517578125,-0.3511962890625,0.9019775390625,0.2430419921875,0.05859375,-0.69189453125,0.75732421875,-1.875,0.0625,-0.6875
0.12000000000000004,-2.0,-2.0,-6.0,-3.0,-1.0,-1.0,-1.0,0.0,-0.06280517578125,-0.3511962890625,0.9019775390625,0.2430419921875,0.05859375,-0.69189453125,0.75732421875,-1.875,0.0625,-0.6875
0.12500000000000003,-2.0,-2.0,-6.0,-3.0,-1.0,-1.0,-1.0,0.0,-0.06280517578125,-0.3511962890625,0.9019775390625,0.2430419921875,0.05859375,-0.69189453125,0.75732421875,-1.875,0.0625,-0.6875
0.13000000000000003,0.0,1.0,14.0,1.0,-1.0,-3.0,-2.0,-2.0,-0.06280517578125,-0.3511962890625,0.9019775390625,0.2430419921875,0.05859375,-0.69189453125,0.75732421875,-1.875,0.0625,-0.6875
0.13500000000000004,0.0,1.0,14.0,1.0,-1.0,-3.0,-2.0,-2.0,-0.06280517578125,-0.3511962890625,0.9019775390625,0.2430419921875,0.05859375,-0.69189453125,0.75732421875,-1.875,0.0625,-0.6875
0.14000000000000004,0.0,-1.0,17.0,4.0,-4.0,1.0,-2.0,-1.0,-0.06280517578125,-0.350830078125,0.902099609375,0.2431640625,0.05615234375,-0.68603515625,0.76708984375,2.3125,0.625,-0.5
0.14500000000000005,0.0,-1.0,17.0,4.0,-4.0,1.0,-2.0,-1.0,-0.06280517578125,-0.350830078125,0.902099609375,0.2431640625,0.05615234375,-0.68603515625,0.76708984375,2.3125,0.625,-0.5
0.15000000000000005,0.0,-1.0,17.0,4.0,-4.0,1.0,-2.0,-1.0,-0.06280517578125,-0.350830078125,0.902099609375,0.2431640625,0.05615234375,-0.68603515625,0.76708984375,2.3125,0.625,-0.5
0.15500000000000005,0.0,-1.0,17.0,4.0,-4.0,1.0,-2.0,-1.0,-0.06280517578125,-0.350830078125,0.902099609375,0.2431640625,0.05615234375,-0.68603515625,0.76708984375,2.3125,0.625,-0.5
0.16000000000000006,1.0,-2.0,-14.0,-37.0,-4.0,-1.0,-2.0,1.0,-0.06268310546875,-0.3502197265625,0.90234375,0.2432861328125,0.05908203125,-0.66455078125,0.7685546875,2.8125,0.125,-0.25
0.16500000000000006,1.0,-2.0,-14.0,-37.0,-4.0,-1.0,-2.0,1.0,-0.06268310546875,-0.3502197265625,0.90234375,0.2432861328125,0.05908203125,-0.66455078125,0.7685546875,2.8125,0.125,-0.25
0.17000000000000007,1.0,-1.0,-19.0,-13.0,-4.0,-3.0,0.0,-1.0,-0.06268310546875,-0.3502197265625,0.90234375,0.2432861328125,0.05908203125,-0.66455078125,0.7685546875,2.8125,0.125,-0.25
0.17500000000000007,1.0,-1.0,-19.0,-13.0,-4.0,-3.0,0.0,-1.0,-0.06268310546875,-0.3502197265625,0.90234375,0.2432861328125,0.05908203125,-0.66455078125,0.7685546875,2.8125,0.125,-0.25
0.18000000000000008,1.0,-1.0,-19.0,-13.0,-4.0,-3.0,0.0,-1.0,-0.06268310546875,-0.3502197265625,0.90234375,0.2432861328125,0.05908203125,-0.66455078125,0.7685546875,2.8125,0.125,-0.25
0.18500000000000008,1.0,-1.0,-19.0,-13.0,-4.0,-3.0,0.0,-1.0,-0.06268310546875,-0.3502197265625,0.90234375,0.2432861328125,0.05908203125,-0.66455078125,0.7685546875,2.8125,0.125,-0.25
0.19000000000000009,-1.0,-1.0,14.0,19.0,0.0,1.0,3.0,-1.0,-0.06268310546875,-0.350341796875,0.90234375,0.2430419921875,0.05322265625,-0.66748046875,0.76953125,-1.375,-0.9375,0.9375
0.1950000000000001,0.0,0.0,16.0,-3.0,0.0,1.0,0.0,0.0,-0.06268310546875,-0.350341796875,0.90234375,0.2430419921875,0.05322265625,-0.66748046875,0.76953125,-1.375,-0.9375,0.9375
0.2000000000000001,0.0,0.0,16.0,-3.0,0.0,1.0,0.0,0.0,-0.06268310546875,-0.350341796875,0.90234375,0.2430419921875,0.05322265625,-0.66748046875,0.76953125,-1.375,-0.9375,0.9375
0.2050000000000001,0.0,0.0,16.0,-3.0,0.0,1.0,0.0,0.0,-0.06268310546875,-0.350341796875,0.90234375,0.2430419921875,0.05322265625,-0.66748046875,0.76953125,-1.375,-0.9375,0.9375
0.2100000000000001,0.0,0.0,16.0,-3.0,0.0,1.0,0.0,0.0,-0.06268310546875,-0.350341796875,0.90234375,0.2430419921875,0.05322265625,-0.66748046875,0.76953125,-1.375,-0.9375,0.9375
0.2150000000000001,-1.0,-1.0,-12.0,-3.0,1.0,-2.0,-2.0,-2.0,-0.06268310546875,-0.350341796875,0.90234375,0.2430419921875,0.05322265625,-0.66748046875,0.76953125,-1.375,-0.9375,0.9375
0.2200000000000001,-1.0,-2.0,-7.0,-6.0,-3.0,-4.0,1.0,-2.0,-0.06268310546875,-0.35107421875,0.90216064453125,0.24261474609375,0.04736328125,-0.67626953125,0.7626953125,-4.5625,-2.375,1.0625
0.22500000000000012,-1.0,-2.0,-7.0,-6.0,-3.0,-4.0,1.0,-2.0,-0.06268310546875,-0.35107421875,0.90216064453125,0.24261474609375,0.04736328125,-0.67626953125,0.7626953125,-4.5625,-2.375,1.0625
0.23000000000000012,-1.0,-2.0,-7.0,-6.0,-3.0,-4.0,1.0,-2.0,-0.06268310546875,-0.35107421875,0.90216064453125,0.24261474609375,0.04736328125,-0.67626953125,0.7626953125,-4.5625,-2.375,1.0625
0.23500000000000013,-2.0,-4.0,-12.0,-17.0,-4.0,-2.0,-3.0,-1.0,-0.0625,-0.35150146484375,0.90216064453125,0.2421875,0.05126953125,-0.69091796875,0.75927734375,-1.4375,-2.6875,1.5
0.24000000000000013,-2.0,-4.0,-12.0,-17.0,-4.0,-2.0,-3.0,-1.0,-0.0625,-0.35150146484375,0.90216064453125,0.2421875,0.05126953125,-0.69091796875,0.75927734375,-1.4375,-2.6875,1.5
0.24500000000000013,-1.0,0.0,-3.0,9.0,2.0,0.0,-1.0,1.0,-0.0625,-0.35150146484375,0.90216064453125,0.2421875,0.05126953125,-0.69091796875,0.75927734375,-1.4375,-2.6875,1.5
0.2500000000000001,-1.0,0.0,-3.0,9.0,2.0,0.0,-1.0,1.0,-0.0625,-0.35150146484375,0.90216064453125,0.2421875,0.05126953125,-0.69091796875,0.75927734375,-1.4375,-2.6875,1.5
0.2550000000000001,-1.0,0.0,-3.0,9.0,2.0,0.0,-1.0,1.0,-0.0625,-0.35150146484375,0.90216064453125,0.2421875,0.05126953125,-0.69091796875,0.75927734375,-1.4375,-2.6875,1.5
0.2600000000000001,-1.0,0.0,-3.0,9.0,2.0,0.0,-1.0,1.0,-0.0625,-0.35150146484375,0.90216064453125,0.2421875,0.05126953125,-0.69091796875,0.75927734375,-1.4375,-2.6875,1.5
0.2650000000000001,-5.0,-2.0,2.0,0.0,-4.0,-1.0,-1.0,-2.0,-0.0625,-0.35150146484375,0.90216064453125,0.2421875,0.05126953125,-0.69091796875,0.75927734375,-1.4375,-2.6875,1.5
0.27000000000000013,-5.0,-2.0,2.0,0.0,-4.0,-1.0,-1.0,-2.0,-0.0621337890625,-0.3509521484375,0.9024658203125,0.24188232421875,0.05615234375,-0.69140625,0.7626953125,4.5,-2.1875,1.1875
0.27500000000000013,-1.0,-2.0,4.0,-10.0,-4.0,-4.0,-2.0,-1.0,-0.0621337890625,-0.3509521484375,0.9024658203125,0.24188232421875,0.05615234375,-0.69140625,0.7626953125,4.5,-2.1875,1.1875
0.28000000000000014,-1.0,-2.0,4.0,-10.0,-4.0,-4.0,-2.0,-1.0,-0.0621337890625,-0.3509521484375,0.9024658203125,0.24188232421875,0.05615234375,-0.69140625,0.7626953125,4.5,-2.1875,1.1875
0.28500000000000014,-1.0,1.0,1.0,-9.0,0.0,1.0,1.0,0.0,-0.0621337890625,-0.3509521484375,0.9024658203125,0.24188232421875,0.05615234375,-0.69140625,0.7626953125,4.5,-2.1875,1.1875
0.29000000000000015,-1.0,1.0,1.0,-9.0,0.0,1.0,1.0,0.0,-0.0621337890625,-0.3509521484375,0.9024658203125,0.24188232421875,0.05615234375,-0.69140625,0.7626953125,4.5,-2.1875,1.1875
0.29500000000000015,-1.0,1.0,1.0,-9.0,0.0,1.0,1.0,0.0,-0.061767578125,-0.34991455078125,0.9029541015625,0.24169921875,0.05029296875,-0.67822265625,0.7705078125,6.3125,-1.5,0.6875
0.30000000000000016,-4.0,-5.0,-20.0,15.0,-4.0,-3.0,-3.0,-3.0,-0.061767578125,-0.34991455078125,0.9029541015625,0.24169921875,0.05029296875,-0.67822265625,0.7705078125,6.3125,-1.5,0.6875
0.30500000000000016,-4.0,-5.0,-20.0,15.0,-4.0,-3.0,-3.0,-3.0,-0.061767578125,-0.34991455078125,0.9029541015625,0.24169921875,0.05029296875,-0.67822265625,0.7705078125,6.3125,-1.5,0.6875
0.31000000000000016,-1.0,1.0,-5.0,4.0,0.0,0.0,-2.0,-1.0,-0.061767578125,-0.34991455078125,0.9029541015625,0.24169921875,0.05029296875,-0.67822265625,0.7705078125,6.3125,-1.5,0.6875
0.31500000000000017,-1.0,1.0,-5.0,4.0,0.0,0.0,-2.0,-1.0,-0.06146240234375,-0.349365234375,0.9031982421875,0.24151611328125,0.05419921875,-0.66796875,0.76318359375,3.5625,-1.375,0.75
0.3200000000000002,-1.0,1.0,-5.0,4.0,0.0,0.0,-2.0,-1.0,-0.06146240234375,-0.349365234375,0.9031982421875,0.24151611328125,0.05419921875,-0.66796875,0.76318359375,3.5625,-1.375,0.75
0.3250000000000002,-1.0,-1.0,5.0,10.0,-3.0,-2.0,-1.0,-1.0,-0.06146240234375,-0.349365234375,0.9031982421875,0.24151611328125,0.05419921875,-0.66796875,0.76318359375,3.5625,-1.375,0.75
0.3300000000000002,-1.0,-1.0,5.0,10.0,-3.0,-2.0,-1.0,-1.0,-0.06146240234375,-0.349365234375,0.9031982421875,0.24151611328125,0.05419921875,-0.66796875,0.76318359375,3.5625,-1.375,0.75
0.3350000000000002,1.0,-1.0,-9.0,-17.0,-1.0,-4.0,-2.0,0.0,-0.061279296875,-0.3492431640625,0.90338134765625,0.2412109375,0.05615234375,-0.66796875,0.76513671875,0.625,-1.5,1.25
0.3400000000000002,0.0,2.0,8.0,11.0,0.0,1.0,3.0,-3.0,-0.061279296875,-0.3492431640625,0.90338134765625,0.2412109375,0.05615234375,-0.66796875,0.76513671875,0.625,-1.5,1.25
0.3450000000000002,-1.0,-2.0,9.0,1.0,0.0,0.0,-1.0,0.0,-0.061279296875,-0.3492431640625,0.90338134765625,0.2412109375,0.05615234375,-0.66796875,0.76513671875,0.625,-1.5,1.25
0.3500000000000002,-1.0,-2.0,9.0,1.0,0.0,0.0,-1.0,0.0,-0.061279296875,-0.3492431640625,0.90338134765625,0.2412109375,0.05615234375,-0.66796875,0.76513671875,0.625,-1.5,1.25
0.3550000000000002,-1.0,0.0,-9.0,7.0,0.0,0.0,1.0,0.0,-0.06134033203125,-0.34954833984375,0.9033203125,0.24072265625,0.05615234375,-0.67822265625,0.76025390625,-1.75,-1.625,2.1875
0.3600000000000002,-1.0,1.0,-5.0,-7.0,2.0,0.0,0.0,-1.0,-0.06134033203125,-0.34954833984375,0.9033203125,0.24072265625,0.05615234375,-0.67822265625,0.76025390625,-1.75,-1.625,2.1875
0.3650000000000002,-1.0,1.0,-5.0,-7.0,2.0,0.0,0.0,-1.0,-0.06134033203125,-0.34954833984375,0.9033203125,0.24072265625,0.05615234375,-0.67822265625,0.76025390625,-1.75,-1.625,2.1875
0.3700000000000002,-3.0,-6.0,11.0,23.0,-3.0,-3.0,-4.0,-4.0,-0.061279296875,-0.349853515625,0.9033203125,0.24041748046875,0.06640625,-0.68603515625,0.763671875,-0.9375,-1.0,1.9375
0.3750000000000002,-1.0,2.0,-6.0,-4.0,0.0,0.0,-1.0,-1.0,-0.061279296875,-0.349853515625,0.9033203125,0.24041748046875,0.06640625,-0.68603515625,0.763671875,-0.9375,-1.0,1.9375
0.3800000000000002,-1.0,2.0,-6.0,-4.0,0.0,0.0,-1.0,-1.0,-0.061279296875,-0.349853515625,0.9033203125,0.24041748046875,0.06640625,-0.68603515625,0.763671875,-0.9375,-1.0,1.9375
0.38500000000000023,-3.0,-2.0,-9.0,2.0,0.0,0.0,1.0,0.0,-0.061279296875,-0.349853515625,0.9033203125,0.24041748046875,0.06640625,-0.68603515625,0.763671875,-0.9375,-1.0,1.9375
0.39000000000000024,-3.0,-2.0,-9.0,2.0,0.0,0.0,1.0,0.0,-0.06121826171875,-0.349365234375,0.90362548828125,0.24005126953125,0.05859375,-0.6767578125,0.7607421875,3.0,-0.1875,2.1875
0.39500000000000024,-1.0,-2.0,0.0,-8.0,-1.0,-2.0,-2.0,-1.0,-0.06121826171875,-0.349365234375,0.90362548828125,0.24005126953125,0.05859375,-0.6767578125,0.7607421875,3.0,-0.1875,2.1875
0.40000000000000024,-1.0,-2.0,0.0,-8.0,-1.0,-2.0,-2.0,-1.0,-0.06121826171875,-0.349365234375,0.90362548828125,0.24005126953125,0.05859375,-0.6767578125,0.7607421875,3.0,-0.1875,2.1875
0.40500000000000025,-1.0,-2.0,0.0,-8.0,-1.0,-2.0,-2.0,-1.0,-0.06121826171875,-0.349365234375,0.90362548828125,0.24005126953125,0.05859375,-0.6767578125,0.7607421875,3.0,-0.1875,2.1875
0.41000000000000025,-2.0,-5.0,-11.0,-3.0,-2.0,0.0,1.0,-2.0,-0.06121826171875,-0.349365234375,0.90362548828125,0.24005126953125,0.05859375,-0.6767578125,0.7607421875,3.0,-0.1875,2.1875
0.41500000000000026,-3.0,-5.0,-56.0,-18.0,-3.0,0.0,-2.0,-2.0,-0.0611572265625,-0.34857177734375,0.904052734375,0.23968505859375,0.0654296875,-0.6630859375,0.75439453125,4.9375,0.375,2.9375
0.42000000000000026,-3.0,-5.0,-56.0,-18.0,-3.0,0.0,-2.0,-2.0,-0.0611572265625,-0.34857177734375,0.904052734375,0.23968505859375,0.0654296875,-0.6630859375,0.75439453125,4.9375,0.375,2.9375
0.42500000000000027,-1.0,-2.0,-20.0,-10.0,-3.0,-1.0,-2.0,-1.0,-0.0611572265625,-0.34857177734375,0.904052734375,0.23968505859375,0.0654296875,-0.6630859375,0.75439453125,4.9375,0.375,2.9375
0.43000000000000027,-1.0,-2.0,-20.0,-10.0,-3.0,-1.0,-2.0,-1.0,-0.061279296875,-0.3480224609375,0.90435791015625,0.23931884765625,0.064453125,-0.662109375,0.76123046875,2.75,0.75,3.125
0.4350000000000003,-1.0,3.0,11.0,5.0,-2.0,-3.0,0.0,-3.0,-0.061279296875,-0.3480224609375,0.90435791015625,0.23931884765625,0.064453125,-0.662109375,0.76123046875,2.75,0.75,3.125
0.4400000000000003,-1.0,3.0,11.0,5.0,-2.0,-3.0,0.0,-3.0,-0.061279296875,-0.3480224609375,0.90435791015625,0.23931884765625,0.064453125,-0.662109375,0.76123046875,2.75,0.75,3.125
0.4450000000000003,-1.0,3.0,11.0,5.0,-2.0,-3.0,0.0,-3.0,-0.061279296875,-0.3480224609375,0.90435791015625,0.23931884765625,0.064453125,-0.662109375,0.76123046875,2.75,0.75,3.125
0.4500000000000003,-1.0,-3.0,4.0,-3.0,-4.0,-2.0,0.0,-1.0,-0.061279296875,-0.3480224609375,0.90435791015625,0.23931884765625,0.064453125,-0.662109375,0.76123046875,2.75,0.75,3.125
0.4550000000000003,0.0,-1.0,-2.0,1.0,0.0,2.0,-1.0,1.0,-0.06146240234375,-0.34759521484375,0.90460205078125,0.23876953125,0.05419921875,-0.66455078125,0.76953125,1.625,0.3125,3.6875
0.4600000000000003,-1.0,-1.0,21.0,8.0,2.0,1.0,-2.0,-1.0,-0.06146240234375,-0.34759521484375,0.90460205078125,0.23876953125,0.05419921875,-0.66455078125,0.76953125,1.625,0.3125,3.6875
0.4650000000000003,-1.0,-1.0,21.0,8.0,2.0,1.0,-2.0,-1.0,-0.06146240234375,-0.34759521484375,0.90460205078125,0.23876953125,0.05419921875,-0.66455078125,0.76953125,1.625,0.3125,3.6875
0.4700000000000003,-1.0,-1.0,21.0,8.0,2.0,1.0,-2.0,-1.0,-0.06146240234375,-0.34759521484375,0.90460205078125,0.23876953125,0.05419921875,-0.66455078125,0.76953125,1.625,0.3125,3.6875
0.4750000000000003,-1.0,0.0,-4.0,-7.0,-1.0,-2.0,-1.0,-3.0,-0.0616455078125,-0.3475341796875,0.90478515625,0.23828125,0.0576171875,-0.67041015625,0.76416015625,0.1875,0.0,3.375
0.4800000000000003,-1.0,-2.0,-3.0,11.0,-4.0,0.0,0.0,-1.0,-0.0616455078125,-0.3475341796875,0.90478515625,0.23828125,0.0576171875,-0.67041015625,0.76416015625,0.1875,0.0,3.375
0.4850000000000003,-1.0,-1.0,17.0,9.0,0.0,0.0,-1.0,0.0,-0.0616455078125,-0.3475341796875,0.90478515625,0.23828125,0.0576171875,-0.67041015625,0.76416015625,0.1875,0.0,3.375
0.4900000000000003,-1.0,-1.0,17.0,9.0,0.0,0.0,-1.0,0.0,-0.0616455078125,-0.3475341796875,0.90478515625,0.23828125,0.0576171875,-0.67041015625,0.76416015625,0.1875,0.0,3.375
0.49500000000000033,-1.0,-1.0,17.0,9.0,0.0,0.0,-1.0,0.0,-0.0616455078125,-0.3475341796875,0.90478515625,0.23828125,0.0576171875,-0.67041015625,0.76416015625,0.1875,0.0,3.375
0.5000000000000003,-1.0,-4.0,-15.0,4.0,0.0,-1.0,-4.0,-2.0,-0.061767578125,-0.34735107421875,0.90496826171875,0.23773193359375,0.04833984375,-0.6669921875,0.767578125,0.5,-0.5,3.0625
0.5050000000000003,-1.0,-4.0,-15.0,4.0,0.0,-1.0,-4.0,-2.0,-0.061767578125,-0.34735107421875,0.90496826171875,0.23773193359375,0.04833984375,-0.6669921875,0.767578125,0.5,-0.5,3.0625
0.5100000000000003,0.0,-2.0,-6.0,9.0,2.0,-1.0,-1.0,-1.0,-0.061767578125,-0.34735107421875,0.90496826171875,0.23773193359375,0.04833984375,-0.6669921875,0.767578125,0.5,-0.5,3.0625
0.5150000000000003,0.0,-2.0,-6.0,9.0,2.0,-1.0,-1.0,-1.0,-0.061767578125,-0.34735107421875,0.90496826171875,0.23773193359375,0.04833984375,-0.6669921875,0.767578125,0.5,-0.5,3.0625
0.5200000000000004,0.0,-2.0,-6.0,9.0,2.0,-1.0,-1.0,-1.0,-0.061767578125,-0.34735107421875,0.90496826171875,0.23773193359375,0.04833984375,-0.6669921875,0.767578125,0.5,-0.5,3.0625
0.5250000000000004,-1.0,1.0,-4.0,-3.0,-4.0,-2.0,-2.0,0.0,-0.06195068359375,-0.34716796875,0.9051513671875,0.23724365234375,0.046875,-0.6708984375,0.76220703125,1.25,-0.3125,2.8125
0.5300000000000004,-1.0,1.0,-4.0,-3.0,-4.0,-2.0,-2.0,0.0,-0.06195068359375,-0.34716796875,0.9051513671875,0.23724365234375,0.046875,-0.6708984375,0.76220703125,1.25,-0.3125,2.8125
0.5350000000000004,0.0,-1.0,10.0,15.0,-2.0,-1.0,0.0,0.0,-0.06195068359375,-0.34716796875,0.9051513671875,0.23724365234375,0.046875,-0.6708984375,0.76220703125,1.25,-0.3125,2.8125
0.5400000000000004,0.0,-1.0,10.0,15.0,-2.0,-1.0,0.0,0.0,-0.06195068359375,-0.34716796875,0.9051513671875,0.23724365234375,0.046875,-0.6708984375,0.76220703125,1.25,-0.3125,2.8125
0.5450000000000004,0.0,-1.0,10.0,15.0,-2.0,-1.0,0.0,0.0,-0.06195068359375,-0.34716796875,0.9051513671875,0.23724365234375,0.046875,-0.6708984375,0.76220703125,1.25,-0.3125,2.8125
0.5500000000000004,2.0,0.0,-6.0,-5.0,1.0,1.0,1.0,0.0,-0.06201171875,-0.34674072265625,0.9053955078125,0.23699951171875,0.04638671875,-0.6708984375,0.76416015625,2.625,0.1875,1.625
0.5550000000000004,-1.0,-1.0,15.0,-17.0,-3.0,0.0,-1.0,-1.0,-0.06201171875,-0.34674072265625,0.9053955078125,0.23699951171875,0.04638671875,-0.6708984375,0.76416015625,2.625,0.1875,1.625
0.5600000000000004,-1.0,-1.0,15.0,-17.0,-3.0,0.0,-1.0,-1.0,-0.06201171875,-0.34674072265625,0.9053955078125,0.23699951171875,0.04638671875,-0.6708984375,0.76416015625,2.625,0.1875,1.625
0.5650000000000004,-2.0,-5.0,-7.0,8.0,-6.0,-3.0,-4.0,-2.0,-0.06201171875,-0.34674072265625,0.9053955078125,0.23699951171875,0.04638671875,-0.6708984375,0.76416015625,2.625,0.1875,1.625
0.5700000000000004,-1.0,-2.0,5.0,-3.0,-2.0,-3.0,-2.0,-2.0,-0.06201171875,-0.34619140625,0.9056396484375,0.23687744140625,0.05712890625,-0.6611328125,0.7666015625,2.625,0.3125,1.375
0.5750000000000004,-1.0,-2.0,-22.0,-10.0,-1.0,-2.0,-3.0,0.0,-0.06201171875,-0.34619140625,0.9056396484375,0.23687744140625,0.05712890625,-0.6611328125,0.7666015625,2.625,0.3125,1.375
0.5800000000000004,-1.0,-2.0,-22.0,-10.0,-1.0,-2.0,-3.0,0.0,-0.06201171875,-0.34619140625,0.9056396484375,0.23687744140625,0.05712890625,-0.6611328125,0.7666015625,2.625,0.3125,1.375
0.5850000000000004,-2.0,2.0,25.0,13.0,0.0,-1.0,1.0,0.0,-0.06201171875,-0.34619140625,0.9056396484375,0.23687744140625,0.05712890625,-0.6611328125,0.7666015625,2.625,0.3125,1.375
0.5900000000000004,-2.0,-1.0,-9.0,-5.0,-1.0,-1.0,-1.0,0.0,-0.06219482421875,-0.3458251953125,0.90576171875,0.23675537109375,0.04931640625,-0.65869140625,0.765625,1.4375,1.125,1.125
0.5950000000000004,-1.0,0.0,-1.0,-11.0,-1.0,0.0,0.0,0.0,-0.06219482421875,-0.3458251953125,0.90576171875,0.23675537109375,0.04931640625,-0.65869140625,0.765625,1.4375,1.125,1.125
0.6000000000000004,-1.0,0.0,-1.0,-11.0,-1.0,0.0,0.0,0.0,-0.06219482421875,-0.3458251953125,0.90576171875,0.23675537109375,0.04931640625,-0.65869140625,0.765625,1.4375,1.125,1.125
0.6050000000000004,-1.0,0.0,-1.0,-11.0,-1.0,0.0,0.0,0.0,-0.06219482421875,-0.3458251953125,0.90576171875,0.23675537109375,0.04931640625,-0.65869140625,0.765625,1.4375,1.125,1.125
0.6100000000000004,-1.0,0.0,-1.0,-11.0,-1.0,0.0,0.0,0.0,-0.06219482421875,-0.3458251953125,0.90576171875,0.23675537109375,0.04931640625,-0.65869140625,0.765625,1.4375,1.125,1.125
0.6150000000000004,-1.0,1.0,5.0,7.0,0.0,-3.0,-2.0,0.0,-0.0625,-0.34576416015625,0.90582275390625,0.23663330078125,0.04833984375,-0.6669921875,0.76513671875,-0.1875,1.0,1.0625
0.6200000000000004,-1.0,1.0,5.0,7.0,0.0,-3.0,-2.0,0.0,-0.0625,-0.34576416015625,0.90582275390625,0.23663330078125,0.04833984375,-0.6669921875,0.76513671875,-0.1875,1.0,1.0625
0.6250000000000004,-1.0,1.0,5.0,7.0,0.0,-3.0,-2.0,0.0,-0.0625,-0.34576416015625,0.90582275390625,0.23663330078125,0.04833984375,-0.6669921875,0.76513671875,-0.1875,1.0,1.0625
0.6300000000000004,-5.0,-7.0,14.0,-17.0,-6.0,-1.0,-2.0,-1.0,-0.06268310546875,-0.3455810546875,0.9058837890625,0.236572265625,0.04638671875,-0.66796875,0.7705078125,0.5625,1.0625,0.625
0.6350000000000005,-5.0,-7.0,14.0,-17.0,-6.0,-1.0,-2.0,-1.0,-0.06268310546875,-0.3455810546875,0.9058837890625,0.236572265625,0.04638671875,-0.66796875,0.7705078125,0.5625,1.0625,0.625
0.6400000000000005,-1.0,-2.0,-1.0,9.0,-4.0,-1.0,0.0,-1.0,-0.06268310546875,-0.3455810546875,0.9058837890625,0.236572265625,0.04638671875,-0.66796875,0.7705078125,0.5625,1.0625,0.625
0.6450000000000005,-1.0,-2.0,-1.0,9.0,-4.0,-1.0,0.0,-1.0,-0.06268310546875,-0.3455810546875,0.9058837890625,0.236572265625,0.04638671875,-0.66796875,0.7705078125,0.5625,1.0625,0.625
0.6500000000000005,-1.0,-2.0,-1.0,9.0,-4.0,-1.0,0.0,-1.0,-0.06268310546875,-0.3455810546875,0.9058837890625,0.236572265625,0.04638671875,-0.66796875,0.7705078125,0.5625,1.0625,0.625
0.6550000000000005,-1.0,-2.0,-1.0,9.0,-4.0,-1.0,0.0,-1.0,-0.06268310546875,-0.3455810546875,0.9058837890625,0.236572265625,0.04638671875,-0.66796875,0.7705078125,0.5625,1.0625,0.625
0.6600000000000005,-1.0,2.0,8.0,5.0,-1.0,-1.0,0.0,0.0,-0.06298828125,-0.34564208984375,0.90582275390625,0.236572265625,0.0478515625,-0.6572265625,0.76220703125,-1.0,1.125,0.5
0.6650000000000005,-1.0,2.0,8.0,5.0,-1.0,-1.0,0.0,0.0,-0.06298828125,-0.34564208984375,0.90582275390625,0.236572265625,0.0478515625,-0.6572265625,0.76220703125,-1.0,1.125,0.5
0.6700000000000005,-2.0,-7.0,-39.0,-14.0,-6.0,-2.0,-3.0,-2.0,-0.06298828125,-0.34564208984375,0.90582275390625,0.236572265625,0.0478515625,-0.6572265625,0.76220703125,-1.0,1.125,0.5
0.6750000000000005,-2.0,-7.0,-39.0,-14.0,-6.0,-2.0,-3.0,-2.0,-0.06298828125,-0.34564208984375,0.90582275390625,0.236572265625,0.0478515625,-0.6572265625,0.76220703125,-1.0,1.125,0.5
0.6800000000000005,-2.0,-7.0,-39.0,-14.0,-6.0,-2.0,-3.0,-2.0,-0.06298828125,-0.34564208984375,0.90582275390625,0.236572265625,0.0478515625,-0.6572265625,0.76220703125,-1.0,1.125,0.5
0.6850000000000005,-2.0,-7.0,-39.0,-14.0,-6.0,-2.0,-3.0,-2.0,-0.06298828125,-0.34564208984375,0.90582275390625,0.236572265625,0.0478515625,-0.6572265625,0.76220703125,-1.0,1.125,0.5
0.6900000000000005,1.0,2.0,8.0,0.0,1.0,-2.0,-3.0,0.0,-0.063232421875,-0.34588623046875,0.90576171875,0.2364501953125,0.04052734375,-0.67138671875,0.7646484375,-1.625,0.3125,0.3125
0.6950000000000005,1.0,2.0,8.0,0.0,1.0,-2.0,-3.0,0.0,-0.063232421875,-0.34588623046875,0.90576171875,0.2364501953125,0.04052734375,-0.67138671875,0.7646484375,-1.625,0.3125,0.3125
0.7000000000000005,1.0,2.0,8.0,0.0,1.0,-2.0,-3.0,0.0,-0.063232421875,-0.34588623046875,0.90576171875,0.2364501953125,0.04052734375,-0.67138671875,0.7646484375,-1.625,0.3125,0.3125
0.7050000000000005,1.0,2.0,8.0,0.0,1.0,-2.0,-3.0,0.0,-0.063232421875,-0.34588623046875,0.90576171875,0.2364501953125,0.04052734375,-0.67138671875,0.7646484375,-1.625,0.3125,0.3125
0.7100000000000005,-1.0,-1.0,-4.0,5.0,1.0,0.0,0.0,-1.0,-0.063232421875,-0.34588623046875,0.90576171875,0.2364501953125,0.04443359375,-0.6728515625,0.76806640625,-0.625,-0.4375,0.5
0.7150000000000005,-1.0,-1.0,-4.0,5.0,1.0,0.0,0.0,-1.0,-0.063232421875,-0.34588623046875,0.90576171875,0.2364501953125,0.04443359375,-0.6728515625,0.76806640625,-0.625,-0.4375,0.5
0.7200000000000005,-1.0,-1.0,-4.0,5.0,1.0,0.0,0.0,-1.0,-0.063232421875,-0.34588623046875,0.90576171875,0.2364501953125,0.04443359375,-0.6728515625,0.76806640625,-0.625,-0.4375,0.5
0.7250000000000005,0.0,1.0,1.0,3.0,0.0,-2.0,1.0,-1.0,-0.063232421875,-0.34588623046875,0.90576171875,0.2364501953125,0.04443359375,-0.6728515625,0.76806640625,-0.625,-0.4375,0.5
0.7300000000000005,0.0,1.0,1.0,3.0,0.0,-2.0,1.0,-1.0,-0.063232421875,-0.34588623046875,0.90576171875,0.2364501953125,0.04443359375,-0.6728515625,0.76806640625,-0.625,-0.4375,0.5
0.7350000000000005,0.0,1.0,1.0,3.0,0.0,-2.0,1.0,-1.0,-0.063232421875,-0.34588623046875,0.90576171875,0.2364501953125,0.04443359375,-0.6728515625,0.76806640625,-0.625,-0.4375,0.5
0.7400000000000005,0.0,-2.0,-7.0,0.0,-1.0,-1.0,-1.0,-1.0,-0.0631103515625,-0.3455810546875,0.9058837890625,0.2364501953125,0.05126953125,-0.6708984375,0.7734375,1.8125,-0.25,0.3125
0.7450000000000006,0.0,-2.0,-7.0,0.0,-1.0,-1.0,-1.0,-1.0,-0.0631103515625,-0.3455810546875,0.9058837890625,0.2364501953125,0.05126953125,-0.6708984375,0.7734375,1.8125,-0.25,0.3125
0.7500000000000006,0.0,-3.0,-27.0,2.0,0.0,-1.0,-1.0,-1.0,-0.0631103515625,-0.3455810546875,0.9058837890625,0.2364501953125,0.05126953125,-0.6708984375,0.7734375,1.8125,-0.25,0.3125
0.7550000000000006,0.0,-3.0,-27.0,2.0,0.0,-1.0,-1.0,-1.0,-0.0631103515625,-0.3455810546875,0.9058837890625,0.2364501953125,0.05126953125,-0.6708984375,0.7734375,1.8125,-0.25,0.3125
0.7600000000000006,0.0,-3.0,-27.0,2.0,0.0,-1.0,-1.0,-1.0,-0.0631103515625,-0.3455810546875,0.9058837890625,0.2364501953125,0.05126953125,-0.6708984375,0.7734375,1.8125,-0.25,0.3125
0.7650000000000006,0.0,-3.0,-27.0,2.0,0.0,-1.0,-1.0,-1.0,-0.0631103515625,-0.3455810546875,0.9058837890625,0.2364501953125,0.05126953125,-0.6708984375,0.7734375,1.8125,-0.25,0.3125
0.7700000000000006,0.0,1.0,8.0,14.0,1.0,-1.0,0.0,-2.0,-0.06304931640625,-0.3450927734375,0.90606689453125,0.23638916015625,0.0517578125,-0.66259765625,0.7734375,2.1875,0.125,0.5625
0.7750000000000006,0.0,1.0,8.0,14.0,1.0,-1.0,0.0,-2.0,-0.06304931640625,-0.3450927734375,0.90606689453125,0.23638916015625,0.0517578125,-0.66259765625,0.7734375,2.1875,0.125,0.5625
0.7800000000000006,0.0,1.0,8.0,14.0,1.0,-1.0,0.0,-2.0,-0.06304931640625,-0.3450927734375,0.90606689453125,0.23638916015625,0.0517578125,-0.66259765625,0.7734375,2.1875,0.125,0.5625
0.7850000000000006,0.0,1.0,8.0,14.0,1.0,-1.0,0.0,-2.0,-0.06304931640625,-0.3450927734375,0.90606689453125,0.23638916015625,0.0517578125,-0.66259765625,0.7734375,2.1875,0.125,0.5625
0.7900000000000006,-3.0,-3.0,-1.0,14.0,2.0,-1.0,0.0,-1.0,-0.0631103515625,-0.34490966796875,0.90625,0.23614501953125,0.0380859375,-0.6689453125,0.76953125,1.1875,-0.5,0.9375
0.7950000000000006,-3.0,-3.0,-1.0,14.0,2.0,-1.0,0.0,-1.0,-0.0631103515625,-0.34490966796875,0.90625,0.23614501953125,0.0380859375,-0.6689453125,0.76953125,1.1875,-0.5,0.9375
0.8000000000000006,-2.0,1.0,24.0,9.0,-2.0,-1.0,0.0,-2.0,-0.0631103515625,-0.34490966796875,0.90625,0.23614501953125,0.0380859375,-0.6689453125,0.76953125,1.1875,-0.5,0.9375
0.8050000000000006,-2.0,1.0,24.0,9.0,-2.0,-1.0,0.0,-2.0,-0.0631103515625,-0.34490966796875,0.90625,0.23614501953125,0.0380859375,-0.6689453125,0.76953125,1.1875,-0.5,0.9375
0.8100000000000006,-2.0,1.0,24.0,9.0,-2.0,-1.0,0.0,-2.0,-0.0631103515625,-0.34490966796875,0.90625,0.23614501953125,0.0380859375,-0.6689453125,0.76953125,1.1875,-0.5,0.9375
0.8150000000000006,-2.0,1.0,24.0,9.0,-2.0,-1.0,0.0,-2.0,-0.0631103515625,-0.34490966796875,0.90625,0.23614501953125,0.0380859375,-0.6689453125,0.76953125,1.1875,-0.5,0.9375
0.8200000000000006,0.0,-3.0,16.0,-2.0,-4.0,-2.0,0.0,1.0,-0.06298828125,-0.34466552734375,0.9063720703125,0.2359619140625,0.04443359375,-0.66796875,0.7626953125,1.6875,-1.0625,0.9375
0.8250000000000006,0.0,-3.0,16.0,-2.0,-4.0,-2.0,0.0,1.0,-0.06298828125,-0.34466552734375,0.9063720703125,0.2359619140625,0.04443359375,-0.66796875,0.7626953125,1.6875,-1.0625,0.9375
0.8300000000000006,-1.0,-1.0,-28.0,-32.0,-2.0,-1.0,-1.0,0.0,-0.06298828125,-0.34466552734375,0.9063720703125,0.2359619140625,0.04443359375,-0.66796875,0.7626953125,1.6875,-1.0625,0.9375
0.8350000000000006,-1.0,-1.0,-28.0,-32.0,-2.0,-1.0,-1.0,0.0,-0.06298828125,-0.34466552734375,0.9063720703125,0.2359619140625,0.04443359375,-0.66796875,0.7626953125,1.6875,-1.0625,0.9375
0.8400000000000006,-1.0,-1.0,-28.0,-32.0,-2.0,-1.0,-1.0,0.0,-0.06298828125,-0.34466552734375,0.9063720703125,0.2359619140625,0.04443359375,-0.66796875,0.7626953125,1.6875,-1.0625,0.9375
0.8450000000000006,-1.0,-1.0,-28.0,-32.0,-2.0,-1.0,-1.0,0.0,-0.06298828125,-0.34466552734375,0.9063720703125,0.2359619140625,0.04443359375,-0.66796875,0.7626953125,1.6875,-1.0625,0.9375
0.8500000000000006,-1.0,-2.0,6.0,1.0,-1.0,0.0,1.0,-1.0,-0.06292724609375,-0.34442138671875,0.906494140625,0.23590087890625,0.05078125,-0.6689453125,0.76416015625,1.875,-0.1875,0.1875
0.8550000000000006,-1.0,-2.0,6.0,1.0,-1.0,0.0,1.0,-1.0,-0.06292724609375,-0.34442138671875,0.906494140625,0.23590087890625,0.05078125,-0.6689453125,0.76416015625,1.875,-0.1875,0.1875
0.8600000000000007,-1.0,-2.0,6.0,1.0,-1.0,0.0,1.0,-1.0,-0.06292724609375,-0.34442138671875,0.906494140625,0.23590087890625,0.05078125,-0.6689453125,0.76416015625,1.875,-0.1875,0.1875
0.8650000000000007,-1.0,-2.0,6.0,1.0,-1.0,0.0,1.0,-1.0,-0.06292724609375,-0.34442138671875,0.906494140625,0.23590087890625,0.05078125,-0.6689453125,0.76416015625,1.875,-0.1875,0.1875
0.8700000000000007,-2.0,-1.0,-5.0,5.0,0.0,-2.0,-4.0,-2.0,-0.06298828125,-0.34405517578125,0.9066162109375,0.23590087890625,0.04736328125,-0.6591796875,0.7646484375,1.875,0.5625,0.4375
0.8750000000000007,-3.0,-3.0,-4.0,-12.0,0.0,0.0,-1.0,0.0,-0.06298828125,-0.34405517578125,0.9066162109375,0.23590087890625,0.04736328125,-0.6591796875,0.7646484375,1.875,0.5625,0.4375
0.8800000000000007,-1.0,1.0,22.0,30.0,1.0,0.0,0.0,-2.0,-0.06298828125,-0.34405517578125,0.9066162109375,0.23590087890625,0.04736328125,-0.6591796875,0.7646484375,1.875,0.5625,0.4375
0.8850000000000007,-1.0,1.0,22.0,30.0,1.0,0.0,0.0,-2.0,-0.06298828125,-0.34405517578125,0.9066162109375,0.23590087890625,0.04736328125,-0.6591796875,0.7646484375,1.875,0.5625,0.4375
0.8900000000000007,-1.0,1.0,22.0,30.0,1.0,0.0,0.0,-2.0,-0.06298828125,-0.34405517578125,0.9066162109375,0.23590087890625,0.04736328125,-0.6591796875,0.7646484375,1.875,0.5625,0.4375
0.8950000000000007,0.0,-2.0,4.0,2.0,-1.0,-2.0,0.0,0.0,-0.06298828125,-0.34405517578125,0.9066162109375,0.23590087890625,0.03759765625,-0.66357421875,0.77392578125,0.625,0.5,0.625
0.9000000000000007,0.0,1.0,4.0,-10.0,-1.0,2.0,6.0,-1.0,-0.06298828125,-0.34405517578125,0.9066162109375,0.23590087890625,0.03759765625,-0.66357421875,0.77392578125,0.625,0.5,0.625
0.9050000000000007,0.0,1.0,4.0,-10.0,-1.0,2.0,6.0,-1.0,-0.06298828125,-0.34405517578125,0.9066162109375,0.23590087890625,0.03759765625,-0.66357421875,0.77392578125,0.625,0.5,0.625
0.9100000000000007,0.0,1.0,4.0,-10.0,-1.0,2.0,6.0,-1.0,-0.06298828125,-0.34405517578125,0.9066162109375,0.23590087890625,0.03759765625,-0.66357421875,0.77392578125,0.625,0.5,0.625
0.9150000000000007,0.0,1.0,4.0,-10.0,-1.0,2.0,6.0,-1.0,-0.06298828125,-0.34405517578125,0.9066162109375,0.23590087890625,0.03759765625,-0.66357421875,0.77392578125,0.625,0.5,0.625
0.9200000000000007,-1.0,-2.0,7.0,-6.0,-7.0,-2.0,-3.0,0.0,-0.06298828125,-0.34405517578125,0.9066162109375,0.23590087890625,0.048828125,-0.6640625,0.7685546875,-0.75,0.375,0.4375
0.9250000000000007,-1.0,-2.0,7.0,-6.0,-7.0,-2.0,-3.0,0.0,-0.06298828125,-0.34405517578125,0.9066162109375,0.23590087890625,0.048828125,-0.6640625,0.7685546875,-0.75,0.375,0.4375
0.9300000000000007,-3.0,-2.0,-8.0,-20.0,0.0,-1.0,-3.0,-3.0,-0.06298828125,-0.34405517578125,0.9066162109375,0.23590087890625,0.048828125,-0.6640625,0.7685546875,-0.75,0.375,0.4375
0.9350000000000007,-3.0,-2.0,-8.0,-20.0,0.0,-1.0,-3.0,-3.0,-0.06298828125,-0.34405517578125,0.9066162109375,0.23590087890625,0.048828125,-0.6640625,0.7685546875,-0.75,0.375,0.4375
0.9400000000000007,-3.0,-2.0,-8.0,-20.0,0.0,-1.0,-3.0,-3.0,-0.06298828125,-0.34405517578125,0.9066162109375,0.23590087890625,0.048828125,-0.6640625,0.7685546875,-0.75,0.375,0.4375
0.9450000000000007,-2.0,-1.0,15.0,-8.0,0.0,0.0,-3.0,-1.0,-0.063232421875,-0.34417724609375,0.90655517578125,0.23583984375,0.05322265625,-0.6630859375,0.76806640625,-1.1875,1.25,0.8125
0.9500000000000007,-2.0,-1.0,15.0,-8.0,0.0,0.0,-3.0,-1.0,-0.063232421875,-0.34417724609375,0.90655517578125,0.23583984375,0.05322265625,-0.6630859375,0.76806640625,-1.1875,1.25,0.8125
0.9550000000000007,3.0,0.0,3.0,23.0,2.0,1.0,0.0,1.0,-0.06396484375,-0.34442138671875,0.90643310546875,0.23590087890625,0.0380859375,-0.66015625,0.7763671875,-3.3125,3.1875,0.5625
0.9600000000000007,0.0,-2.0,15.0,-5.0,-11.0,-5.0,-4.0,4.0,-0.06396484375,-0.34442138671875,0.90643310546875,0.23590087890625,0.0380859375,-0.66015625,0.7763671875,-3.3125,3.1875,0.5625
0.9650000000000007,0.0,-2.0,15.0,-5.0,-11.0,-5.0,-4.0,4.0,-0.06396484375,-0.34442138671875,0.90643310546875,0.23590087890625,0.0380859375,-0.66015625,0.7763671875,-3.3125,3.1875,0.5625
0.9700000000000008,0.0,-2.0,15.0,-5.0,-11.0,-5.0,-4.0,4.0,-0.06396484375,-0.34442138671875,0.90643310546875,0.23590087890625,0.0380859375,-0.66015625,0.7763671875,-3.3125,3.1875,0.5625
0.9750000000000008,0.0,-2.0,15.0,-5.0,-11.0,-5.0,-4.0,4.0,-0.06396484375,-0.34442138671875,0.90643310546875,0.23590087890625,0.0380859375,-0.66015625,0.7763671875,-3.3125,3.1875,0.5625
0.9800000000000008,-2.0,-4.0,-27.0,-13.0,4.0,1.0,-2.0,-2.0,-0.0648193359375,-0.34521484375,0.90606689453125,0.2359619140625,0.03369140625,-0.67529296875,0.7724609375,-5.875,2.8125,-0.125
0.9850000000000008,-2.0,-4.0,-27.0,-13.0,4.0,1.0,-2.0,-2.0,-0.0648193359375,-0.34521484375,0.90606689453125,0.2359619140625,0.03369140625,-0.67529296875,0.7724609375,-5.875,2.8125,-0.125
0.9900000000000008,-1.0,1.0,6.0,-4.0,-3.0,-2.0,-1.0,1.0,-0.0648193359375,-0.34521484375,0.90606689453125,0.2359619140625,0.03369140625,-0.67529296875,0.7724609375,-5.875,2.8125,-0.125
0.9950000000000008,-1.0,1.0,6.0,-4.0,-3.0,-2.0,-1.0,1.0,-0.0648193359375,-0.34521484375,0.90606689453125,0.2359619140625,0.03369140625,-0.67529296875,0.7724609375,-5.875,2.8125,-0.125
1.0000000000000007,-1.0,-1.0,-9.0,-3.0,-1.0,-4.0,-3.0,0.0,-0.0655517578125,-0.3460693359375,0.9056396484375,0.23590087890625,0.03076171875,-0.67626953125,0.74951171875,-5.4375,1.875,0.125
1.0050000000000006,-1.0,-1.0,-9.0,-3.0,-1.0,-4.0,-3.0,0.0,-0.0655517578125,-0.3460693359375,0.9056396484375,0.23590087890625,0.03076171875,-0.67626953125,0.74951171875,-5.4375,1.875,0.125
1.0100000000000005,-1.0,-1.0,-9.0,-3.0,-1.0,-4.0,-3.0,0.0,-0.0655517578125,-0.3460693359375,0.9056396484375,0.23590087890625,0.03076171875,-0.67626953125,0.74951171875,-5.4375,1.875,0.125
1.0150000000000003,-2.0,-1.0,1.0,1.0,-1.0,-1.0,-2.0,-1.0,-0.0655517578125,-0.3460693359375,0.9056396484375,0.23590087890625,0.03076171875,-0.67626953125,0.74951171875,-5.4375,1.875,0.125
1.0200000000000002,-1.0,-4.0,-23.0,-15.0,-3.0,-1.0,-2.0,-2.0,-0.06561279296875,-0.34613037109375,0.9056396484375,0.23590087890625,0.0380859375,-0.68359375,0.74658203125,0.875,-0.25,-0.125
1.0250000000000001,-1.0,-4.0,-23.0,-15.0,-3.0,-1.0,-2.0,-2.0,-0.06561279296875,-0.34613037109375,0.9056396484375,0.23590087890625,0.0380859375,-0.68359375,0.74658203125,0.875,-0.25,-0.125
1.03,-1.0,-4.0,-23.0,-15.0,-3.0,-1.0,-2.0,-2.0,-0.06561279296875,-0.34613037109375,0.9056396484375,0.23590087890625,0.0380859375,-0.68359375,0.74658203125,0.875,-0.25,-0.125
1.035,-1.0,-1.0,3.0,-8.0,-3.0,-2.0,-2.0,-3.0,-0.06561279296875,-0.34613037109375,0.9056396484375,0.23590087890625,0.0380859375,-0.68359375,0.74658203125,0.875,-0.25,-0.125
1.0399999999999998,-1.0,-3.0,-14.0,3.0,1.0,-2.0,0.0,-3.0,-0.06524658203125,-0.3450927734375,0.9061279296875,0.2357177734375,0.04443359375,-0.68798828125,0.765625,7.6875,-0.8125,0.875
1.0449999999999997,-1.0,-3.0,-14.0,3.0,1.0,-2.0,0.0,-3.0,-0.06524658203125,-0.3450927734375,0.9061279296875,0.2357177734375,0.04443359375,-0.68798828125,0.765625,7.6875,-0.8125,0.875
1.0499999999999996,-1.0,-3.0,-14.0,3.0,1.0,-2.0,0.0,-3.0,-0.06524658203125,-0.3450927734375,0.9061279296875,0.2357177734375,0.04443359375,-0.68798828125,0.765625,7.6875,-0.8125,0.875
1.0549999999999995,-3.0,-3.0,5.0,-4.0,-2.0,-4.0,-1.0,-4.0,-0.06524658203125,-0.3450927734375,0.9061279296875,0.2357177734375,0.04443359375,-0.68798828125,0.765625,7.6875,-0.8125,0.875
1.0599999999999994,-3.0,-3.0,5.0,-4.0,-2.0,-4.0,-1.0,-4.0,-0.06524658203125,-0.3450927734375,0.9061279296875,0.2357177734375,0.04443359375,-0.68798828125,0.765625,7.6875,-0.8125,0.875
1.0649999999999993,-3.0,-1.0,6.0,13.0,7.0,-2.0,-1.0,-2.0,-0.06500244140625,-0.3433837890625,0.90673828125,0.23583984375,0.0478515625,-0.65576171875,0.77783203125,9.625,1.125,0.875
1.0699999999999992,-3.0,-1.0,6.0,13.0,7.0,-2.0,-1.0,-2.0,-0.06500244140625,-0.3433837890625,0.90673828125,0.23583984375,0.0478515625,-0.65576171875,0.77783203125,9.625,1.125,0.875
1.074999999999999,-3.0,-1.0,6.0,13.0,7.0,-2.0,-1.0,-2.0,-0.06500244140625,-0.3433837890625,0.90673828125,0.23583984375,0.0478515625,-0.65576171875,0.77783203125,9.625,1.125,0.875
1.079999999999999,-2.0,-2.0,-15.0,-21.0,-11.0,-2.0,-1.0,-1.0,-0.0654296875,-0.34295654296875,0.9068603515625,0.23583984375,0.04296875,-0.6318359375,0.78125,-0.5,2.5,0.8125
1.0849999999999989,0.0,2.0,26.0,-3.0,0.0,1.0,1.0,0.0,-0.0654296875,-0.34295654296875,0.9068603515625,0.23583984375,0.04296875,-0.6318359375,0.78125,-0.5,2.5,0.8125
1.0899999999999987,0.0,2.0,26.0,-3.0,0.0,1.0,1.0,0.0,-0.0654296875,-0.34295654296875,0.9068603515625,0.23583984375,0.04296875,-0.6318359375,0.78125,-0.5,2.5,0.8125
1.0949999999999986,0.0,2.0,26.0,-3.0,0.0,1.0,1.0,0.0,-0.0654296875,-0.34295654296875,0.9068603515625,0.23583984375,0.04296875,-0.6318359375,0.78125,-0.5,2.5,0.8125
1.0999999999999985,0.0,2.0,26.0,-3.0,0.0,1.0,1.0,0.0,-0.0654296875,-0.34295654296875,0.9068603515625,0.23583984375,0.04296875,-0.6318359375,0.78125,-0.5,2.5,0.8125
1.1049999999999984,0.0,2.0,26.0,-3.0,0.0,1.0,1.0,0.0,-0.0654296875,-0.34295654296875,0.9068603515625,0.23583984375,0.04296875,-0.6318359375,0.78125,-0.5,2.5,0.8125
1.1099999999999983,-3.0,-4.0,-10.0,-23.0,-1.0,1.0,-1.0,-1.0,-0.0660400390625,-0.34454345703125,0.9063720703125,0.2354736328125,0.0302734375,-0.6484375,0.76318359375,-10.875,-0.25,1.5
1.1149999999999982,-3.0,4.0,0.0,28.0,-2.0,-4.0,-3.0,-4.0,-0.0660400390625,-0.34454345703125,0.9063720703125,0.2354736328125,0.0302734375,-0.6484375,0.76318359375,-10.875,-0.25,1.5
1.119999999999998,-1.0,-2.0,-19.0,-9.0,-2.0,-1.0,0.0,0.0,-0.0660400390625,-0.34454345703125,0.9063720703125,0.2354736328125,0.0302734375,-0.6484375,0.76318359375,-10.875,-0.25,1.5
1.124999999999998,-1.0,-2.0,-19.0,-9.0,-2.0,-1.0,0.0,0.0,-0.0660400390625,-0.34454345703125,0.9063720703125,0.2354736328125,0.0302734375,-0.6484375,0.76318359375,-10.875,-0.25,1.5
1.129999999999998,0.0,4.0,15.0,6.0,-3.0,-3.0,-2.0,-2.0,-0.0665283203125,-0.34600830078125,0.90582275390625,0.2352294921875,0.0537109375,-0.70458984375,0.771484375,-8.125,0.75,1.375
1.1349999999999978,0.0,4.0,15.0,6.0,-3.0,-3.0,-2.0,-2.0,-0.0665283203125,-0.34600830078125,0.90582275390625,0.2352294921875,0.0537109375,-0.70458984375,0.771484375,-8.125,0.75,1.375
1.1399999999999977,0.0,4.0,15.0,6.0,-3.0,-3.0,-2.0,-2.0,-0.0665283203125,-0.34600830078125,0.90582275390625,0.2352294921875,0.0537109375,-0.70458984375,0.771484375,-8.125,0.75,1.375
1.1449999999999976,-8.0,-11.0,0.0,-2.0,3.0,0.0,-3.0,-3.0,-0.06719970703125,-0.345947265625,0.90570068359375,0.23541259765625,0.0390625,-0.7001953125,0.77099609375,0.5625,3.9375,-0.25
1.1499999999999975,-8.0,-11.0,0.0,-2.0,3.0,0.0,-3.0,-3.0,-0.06719970703125,-0.345947265625,0.90570068359375,0.23541259765625,0.0390625,-0.7001953125,0.77099609375,0.5625,3.9375,-0.25
1.1549999999999974,1.0,-3.0,-25.0,-22.0,-8.0,1.0,-2.0,1.0,-0.06719970703125,-0.345947265625,0.90570068359375,0.23541259765625,0.0390625,-0.7001953125,0.77099609375,0.5625,3.9375,-0.25
1.1599999999999973,1.0,-3.0,-25.0,-22.0,-8.0,1.0,-2.0,1.0,-0.06719970703125,-0.345947265625,0.90570068359375,0.23541259765625,0.0390625,-0.7001953125,0.77099609375,0.5625,3.9375,-0.25
1.1649999999999971,1.0,-3.0,-25.0,-22.0,-8.0,1.0,-2.0,1.0,-0.06719970703125,-0.345947265625,0.90570068359375,0.23541259765625,0.0390625,-0.7001953125,0.77099609375,0.5625,3.9375,-0.25
1.169999999999997,-4.0,-4.0,-4.0,6.0,1.0,-1.0,-1.0,0.0,-0.0675048828125,-0.34521484375,0.9058837890625,0.2357177734375,0.02197265625,-0.66015625,0.7490234375,4.0625,2.25,-1.1875
1.174999999999997,-4.0,-4.0,-4.0,6.0,1.0,-1.0,-1.0,0.0,-0.0675048828125,-0.34521484375,0.9058837890625,0.2357177734375,0.02197265625,-0.66015625,0.7490234375,4.0625,2.25,-1.1875
1.1799999999999968,3.0,-1.0,4.0,-7.0,2.0,2.0,2.0,0.0,-0.0675048828125,-0.34521484375,0.9058837890625,0.2357177734375,0.02197265625,-0.66015625,0.7490234375,4.0625,2.25,-1.1875
1.1849999999999967,3.0,-1.0,4.0,-7.0,2.0,2.0,2.0,0.0,-0.0675048828125,-0.34521484375,0.9058837890625,0.2357177734375,0.02197265625,-0.66015625,0.7490234375,4.0625,2.25,-1.1875
1.1899999999999966,1.0,-1.0,-27.0,-32.0,-3.0,2.0,1.0,4.0,-0.06744384765625,-0.34423828125,0.90625,0.23577880859375,0.04833984375,-0.65625,0.76904296875,5.0625,1.25,0.625
1.1949999999999965,1.0,-1.0,-27.0,-32.0,-3.0,2.0,1.0,4.0,-0.06744384765625,-0.34423828125,0.90625,0.23577880859375,0.04833984375,-0.65625,0.76904296875,5.0625,1.25,0.625
1.1999999999999964,1.0,-1.0,-27.0,-32.0,-3.0,2.0,1.0,4.0,-0.06744384765625,-0.34423828125,0.90625,0.23577880859375,0.04833984375,-0.65625,0.76904296875,5.0625,1.25,0.625
1.2049999999999963,1.0,-1.0,-27.0,-32.0,-3.0,2.0,1.0,4.0,-0.06744384765625,-0.34423828125,0.90625,0.23577880859375,0.04833984375,-0.65625,0.76904296875,5.0625,1.25,0.625
1.2099999999999962,1.0,2.0,11.0,-5.0,17.0,3.0,6.0,3.0,-0.06793212890625,-0.34417724609375,0.9061279296875,0.23626708984375,0.0546875,-0.6640625,0.7880859375,-1.3125,4.1875,-1.0625
1.214999999999996,1.0,2.0,11.0,-5.0,17.0,3.0,6.0,3.0,-0.06793212890625,-0.34417724609375,0.9061279296875,0.23626708984375,0.0546875,-0.6640625,0.7880859375,-1.3125,4.1875,-1.0625
1.219999999999996,-16.0,6.0,26.0,0.0,-3.0,-4.0,-19.0,-68.0,-0.06793212890625,-0.34417724609375,0.9061279296875,0.23626708984375,0.0546875,-0.6640625,0.7880859375,-1.3125,4.1875,-1.0625
1.2249999999999959,-16.0,6.0,26.0,0.0,-3.0,-4.0,-19.0,-68.0,-0.06793212890625,-0.34417724609375,0.9061279296875,0.23626708984375,0.0546875,-0.6640625,0.7880859375,-1.3125,4.1875,-1.0625
1.2299999999999958,-16.0,6.0,26.0,0.0,-3.0,-4.0,-19.0,-68.0,-0.06793212890625,-0.34417724609375,0.9061279296875,0.23626708984375,0.0546875,-0.6640625,0.7880859375,-1.3125,4.1875,-1.0625
1.2349999999999957,-16.0,6.0,26.0,0.0,-3.0,-4.0,-19.0,-68.0,-0.06793212890625,-0.34417724609375,0.9061279296875,0.23626708984375,0.0546875,-0.6640625,0.7880859375,-1.3125,4.1875,-1.0625
1.2399999999999956,4.0,1.0,-24.0,-36.0,-10.0,-3.0,0.0,12.0,-0.0694580078125,-0.34466552734375,0.9056396484375,0.23699951171875,0.0322265625,-0.65771484375,0.796875,-7.5625,8.375,-1.875
1.2449999999999954,4.0,1.0,-24.0,-36.0,-10.0,-3.0,0.0,12.0,-0.0694580078125,-0.34466552734375,0.9056396484375,0.23699951171875,0.0322265625,-0.65771484375,0.796875,-7.5625,8.375,-1.875
1.2499999999999953,15.0,-2.0,6.0,21.0,1.0,1.0,16.0,91.0,-0.0694580078125,-0.34466552734375,0.9056396484375,0.23699951171875,0.0322265625,-0.65771484375,0.796875,-7.5625,8.375,-1.875
1.2549999999999952,15.0,-2.0,6.0,21.0,1.0,1.0,16.0,91.0,-0.0694580078125,-0.34466552734375,0.9056396484375,0.23699951171875,0.0322265625,-0.65771484375,0.796875,-7.5625,8.375,-1.875
1.2599999999999951,-34.0,-13.0,12.0,46.0,10.0,-4.0,-24.0,-93.0,-0.0694580078125,-0.34466552734375,0.9056396484375,0.23699951171875,0.0322265625,-0.65771484375,0.796875,-7.5625,8.375,-1.875
1.264999999999995,-34.0,-13.0,12.0,46.0,10.0,-4.0,-24.0,-93.0,-0.0694580078125,-0.34466552734375,0.9056396484375,0.23699951171875,0.0322265625,-0.65771484375,0.796875,-7.5625,8.375,-1.875
1.269999999999995,4.0,-4.0,-13.0,-2.0,-3.0,-4.0,5.0,43.0,-0.07135009765625,-0.345947265625,0.90478515625,0.23773193359375,0.029296875,-0.6513671875,0.78271484375,-12.6875,9.375,-2.0
1.2749999999999948,4.0,-4.0,-13.0,-2.0,-3.0,-4.0,5.0,43.0,-0.07135009765625,-0.345947265625,0.90478515625,0.23773193359375,0.029296875,-0.6513671875,0.78271484375,-12.6875,9.375,-2.0
1.2799999999999947,4.0,-4.0,-13.0,-2.0,-3.0,-4.0,5.0,43.0,-0.07135009765625,-0.345947265625,0.90478515625,0.23773193359375,0.029296875,-0.6513671875,0.78271484375,-12.6875,9.375,-2.0
1.2849999999999946,4.0,-4.0,-13.0,-2.0,-3.0,-4.0,5.0,43.0,-0.07135009765625,-0.345947265625,0.90478515625,0.23773193359375,0.029296875,-0.6513671875,0.78271484375,-12.6875,9.375,-2.0
1.2899999999999945,16.0,-4.0,-5.0,8.0,-7.0,-1.0,4.0,17.0,-0.0733642578125,-0.34881591796875,0.9031982421875,0.23895263671875,0.04052734375,-0.66455078125,0.7548828125,-20.6875,9.9375,-5.1875
1.2949999999999944,16.0,-4.0,-5.0,8.0,-7.0,-1.0,4.0,17.0,-0.0733642578125,-0.34881591796875,0.9031982421875,0.23895263671875,0.04052734375,-0.66455078125,0.7548828125,-20.6875,9.9375,-5.1875
1.2999999999999943,-17.0,-5.0,-11.0,4.0,4.0,1.0,-8.0,-104.0,-0.0733642578125,-0.34881591796875,0.9031982421875,0.23895263671875,0.04052734375,-0.66455078125,0.7548828125,-20.6875,9.9375,-5.1875
1.3049999999999942,-17.0,-5.0,-11.0,4.0,4.0,1.0,-8.0,-104.0,-0.0733642578125,-0.34881591796875,0.9031982421875,0.23895263671875,0.04052734375,-0.66455078125,0.7548828125,-20.6875,9.9375,-5.1875
1.309999999999994,-17.0,-5.0,-11.0,4.0,4.0,1.0,-8.0,-104.0,-0.0733642578125,-0.34881591796875,0.9031982421875,0.23895263671875,0.04052734375,-0.66455078125,0.7548828125,-20.6875,9.9375,-5.1875
1.314999999999994,-17.0,-5.0,-11.0,4.0,4.0,1.0,-8.0,-104.0,-0.0733642578125,-0.34881591796875,0.9031982421875,0.23895263671875,0.04052734375,-0.66455078125,0.7548828125,-20.6875,9.9375,-5.1875
1.3199999999999938,5.0,3.0,4.0,-12.0,-1.0,1.0,1.0,10.0,-0.0755615234375,-0.3511962890625,0.9017333984375,0.24029541015625,0.03466796875,-0.701171875,0.744140625,-16.125,11.625,-5.625
1.3249999999999937,5.0,3.0,4.0,-12.0,-1.0,1.0,1.0,10.0,-0.0755615234375,-0.3511962890625,0.9017333984375,0.24029541015625,0.03466796875,-0.701171875,0.744140625,-16.125,11.625,-5.625
1.3299999999999936,16.0,3.0,15.0,-12.0,1.0,5.0,19.0,26.0,-0.0755615234375,-0.3511962890625,0.9017333984375,0.24029541015625,0.03466796875,-0.701171875,0.744140625,-16.125,11.625,-5.625
1.3349999999999935,16.0,3.0,15.0,-12.0,1.0,5.0,19.0,26.0,-0.0755615234375,-0.3511962890625,0.9017333984375,0.24029541015625,0.03466796875,-0.701171875,0.744140625,-16.125,11.625,-5.625
1.3399999999999934,-54.0,-10.0,-28.0,-90.0,-9.0,-5.0,-40.0,-97.0,-0.0755615234375,-0.3511962890625,0.9017333984375,0.24029541015625,0.03466796875,-0.701171875,0.744140625,-16.125,11.625,-5.625
1.3449999999999933,-54.0,-10.0,-28.0,-90.0,-9.0,-5.0,-40.0,-97.0,-0.0755615234375,-0.3511962890625,0.9017333984375,0.24029541015625,0.03466796875,-0.701171875,0.744140625,-16.125,11.625,-5.625
1.3499999999999932,-1.0,-4.0,0.0,-11.0,-2.0,-1.0,-3.0,39.0,-0.0770263671875,-0.3525390625,0.90081787109375,0.241455078125,0.05615234375,-0.7109375,0.7177734375,-7.3125,9.75,-3.9375
1.354999999999993,-1.0,-4.0,0.0,-11.0,-2.0,-1.0,-3.0,39.0,-0.0770263671875,-0.3525390625,0.90081787109375,0.241455078125,0.05615234375,-0.7109375,0.7177734375,-7.3125,9.75,-3.9375
1.359999999999993,-1.0,-4.0,0.0,-11.0,-2.0,-1.0,-3.0,39.0,-0.0770263671875,-0.3525390625,0.90081787109375,0.241455078125,0.05615234375,-0.7109375,0.7177734375,-7.3125,9.75,-3.9375
1.3649999999999929,-1.0,-4.0,0.0,-11.0,-2.0,-1.0,-3.0,39.0,-0.0770263671875,-0.3525390625,0.90081787109375,0.241455078125,0.05615234375,-0.7109375,0.7177734375,-7.3125,9.75,-3.9375
1.3699999999999928,-14.0,1.0,8.0,34.0,-7.0,-2.0,3.0,-17.0,-0.0775146484375,-0.352783203125,0.90069580078125,0.2413330078125,0.05859375,-0.71240234375,0.712890625,0.9375,3.5625,2.4375
1.3749999999999927,37.0,9.0,-6.0,-13.0,29.0,11.0,34.0,72.0,-0.0775146484375,-0.352783203125,0.90069580078125,0.2413330078125,0.05859375,-0.71240234375,0.712890625,0.9375,3.5625,2.4375
1.3799999999999926,37.0,9.0,-6.0,-13.0,29.0,11.0,34.0,72.0,-0.0775146484375,-0.352783203125,0.90069580078125,0.2413330078125,0.05859375,-0.71240234375,0.712890625,0.9375,3.5625,2.4375
1.3849999999999925,37.0,9.0,-6.0,-13.0,29.0,11.0,34.0,72.0,-0.0775146484375,-0.352783203125,0.90069580078125,0.2413330078125,0.05859375,-0.71240234375,0.712890625,0.9375,3.5625,2.4375
1.3899999999999924,37.0,9.0,-6.0,-13.0,29.0,11.0,34.0,72.0,-0.0775146484375,-0.352783203125,0.90069580078125,0.2413330078125,0.05859375,-0.71240234375,0.712890625,0.9375,3.5625,2.4375
1.3949999999999922,37.0,9.0,-6.0,-13.0,29.0,11.0,34.0,72.0,-0.0775146484375,-0.352783203125,0.90069580078125,0.2413330078125,0.05859375,-0.71240234375,0.712890625,0.9375,3.5625,2.4375
1.3999999999999921,3.0,-4.0,33.0,-2.0,2.0,-2.0,-7.0,90.0,-0.07843017578125,-0.3511962890625,0.90130615234375,0.240966796875,0.02001953125,-0.69873046875,0.7412109375,9.375,5.375,4.9375
1.404999999999992,11.0,-1.0,10.0,4.0,-14.0,-2.0,-1.0,53.0,-0.07843017578125,-0.3511962890625,0.90130615234375,0.240966796875,0.02001953125,-0.69873046875,0.7412109375,9.375,5.375,4.9375
1.409999999999992,11.0,-1.0,10.0,4.0,-14.0,-2.0,-1.0,53.0,-0.07843017578125,-0.3511962890625,0.90130615234375,0.240966796875,0.02001953125,-0.69873046875,0.7412109375,9.375,5.375,4.9375
1.4149999999999918,16.0,-7.0,-7.0,26.0,3.0,6.0,22.0,39.0,-0.07843017578125,-0.3511962890625,0.90130615234375,0.240966796875,0.02001953125,-0.69873046875,0.7412109375,9.375,5.375,4.9375
1.4199999999999917,16.0,-7.0,-7.0,26.0,3.0,6.0,22.0,39.0,-0.07843017578125,-0.3511962890625,0.90130615234375,0.240966796875,0.02001953125,-0.69873046875,0.7412109375,9.375,5.375,4.9375
1.4249999999999916,16.0,-7.0,-7.0,26.0,3.0,6.0,22.0,39.0,-0.07940673828125,-0.34979248046875,0.9017333984375,0.2410888671875,0.0283203125,-0.65185546875,0.76953125,4.5625,7.0,2.75
1.4299999999999915,-3.0,-3.0,-18.0,-30.0,-7.0,-1.0,-1.0,0.0,-0.07940673828125,-0.34979248046875,0.9017333984375,0.2410888671875,0.0283203125,-0.65185546875,0.76953125,4.5625,7.0,2.75
1.4349999999999914,-3.0,-3.0,-18.0,-30.0,-7.0,-1.0,-1.0,0.0,-0.07940673828125,-0.34979248046875,0.9017333984375,0.2410888671875,0.0283203125,-0.65185546875,0.76953125,4.5625,7.0,2.75
1.4399999999999913,-3.0,-3.0,-18.0,-30.0,-7.0,-1.0,-1.0,0.0,-0.07940673828125,-0.34979248046875,0.9017333984375,0.2410888671875,0.0283203125,-0.65185546875,0.76953125,4.5625,7.0,2.75
1.4449999999999912,18.0,12.0,13.0,15.0,-13.0,0.0,9.0,42.0,-0.07940673828125,-0.34979248046875,0.9017333984375,0.2410888671875,0.0283203125,-0.65185546875,0.76953125,4.5625,7.0,2.75
1.449999999999991,18.0,12.0,13.0,15.0,-13.0,0.0,9.0,42.0,-0.08056640625,-0.349609375,0.90155029296875,0.24176025390625,0.04443359375,-0.68408203125,0.7939453125,-2.625,8.875,-0.5625
1.454999999999991,-53.0,-13.0,-7.0,28.0,4.0,-7.0,-34.0,-116.0,-0.08056640625,-0.349609375,0.90155029296875,0.24176025390625,0.04443359375,-0.68408203125,0.7939453125,-2.625,8.875,-0.5625
1.4599999999999909,-53.0,-13.0,-7.0,28.0,4.0,-7.0,-34.0,-116.0,-0.08056640625,-0.349609375,0.90155029296875,0.24176025390625,0.04443359375,-0.68408203125,0.7939453125,-2.625,8.875,-0.5625
1.4649999999999908,-53.0,-13.0,-7.0,28.0,4.0,-7.0,-34.0,-116.0,-0.08056640625,-0.349609375,0.90155029296875,0.24176025390625,0.04443359375,-0.68408203125,0.7939453125,-2.625,8.875,-0.5625
1.4699999999999906,-53.0,-13.0,-7.0,28.0,4.0,-7.0,-34.0,-116.0,-0.08056640625,-0.349609375,0.90155029296875,0.24176025390625,0.04443359375,-0.68408203125,0.7939453125,-2.625,8.875,-0.5625
1.4749999999999905,-53.0,-13.0,-7.0,28.0,4.0,-7.0,-34.0,-116.0,-0.08056640625,-0.349609375,0.90155029296875,0.24176025390625,0.04443359375,-0.68408203125,0.7939453125,-2.625,8.875,-0.5625
1.4799999999999904,-14.0,13.0,11.0,-15.0,-6.0,-5.0,-14.0,-76.0,-0.082275390625,-0.35003662109375,0.90118408203125,0.24200439453125,0.005859375,-0.6787109375,0.78515625,-6.6875,7.9375,0.6875
1.4849999999999903,-14.0,13.0,11.0,-15.0,-6.0,-5.0,-14.0,-76.0,-0.082275390625,-0.35003662109375,0.90118408203125,0.24200439453125,0.005859375,-0.6787109375,0.78515625,-6.6875,7.9375,0.6875
1.4899999999999902,-14.0,13.0,11.0,-15.0,-6.0,-5.0,-14.0,-76.0,-0.082275390625,-0.35003662109375,0.90118408203125,0.24200439453125,0.005859375,-0.6787109375,0.78515625,-6.6875,7.9375,0.6875
1.4949999999999901,23.0,-4.0,9.0,-31.0,-5.0,1.0,22.0,81.0,-0.082275390625,-0.35003662109375,0.90118408203125,0.24200439453125,0.005859375,-0.6787109375,0.78515625,-6.6875,7.9375,0.6875
1.49999999999999,-9.0,-4.0,-1.0,1.0,0.0,1.0,-6.0,-96.0,-0.08367919921875,-0.35205078125,0.90020751953125,0.24212646484375,-0.0185546875,-0.65966796875,0.740234375,-15.1875,3.0,-1.75
1.50499999999999,-13.0,-5.0,0.0,-15.0,-8.0,-8.0,-28.0,-30.0,-0.08367919921875,-0.35205078125,0.90020751953125,0.24212646484375,-0.0185546875,-0.65966796875,0.740234375,-15.1875,3.0,-1.75
1.5099999999999898,10.0,-1.0,2.0,8.0,1.0,2.0,13.0,31.0,-0.08367919921875,-0.35205078125,0.90020751953125,0.24212646484375,-0.0185546875,-0.65966796875,0.740234375,-15.1875,3.0,-1.75
1.5149999999999897,7.0,3.0,-13.0,4.0,-3.0,-3.0,-4.0,-20.0,-0.0838623046875,-0.3548583984375,0.899169921875,0.24188232421875,-0.001953125,-0.701171875,0.7041015625,-14.5,-3.875,-2.375
1.5199999999999896,-14.0,-7.0,-3.0,19.0,17.0,4.0,-13.0,-74.0,-0.0838623046875,-0.3548583984375,0.899169921875,0.24188232421875,-0.001953125,-0.701171875,0.7041015625,-14.5,-3.875,-2.375
1.5249999999999895,-14.0,-7.0,-3.0,19.0,17.0,4.0,-13.0,-74.0,-0.0838623046875,-0.3548583984375,0.899169921875,0.24188232421875,-0.001953125,-0.701171875,0.7041015625,-14.5,-3.875,-2.375
1.5299999999999894,-14.0,-7.0,-3.0,19.0,17.0,4.0,-13.0,-74.0,-0.0838623046875,-0.3548583984375,0.899169921875,0.24188232421875,-0.001953125,-0.701171875,0.7041015625,-14.5,-3.875,-2.375
1.5349999999999893,5.0,5.0,-8.0,18.0,5.0,-1.0,5.0,18.0,-0.08349609375,-0.35479736328125,0.899169921875,0.2420654296875,0.05029296875,-0.74560546875,0.7451171875,3.8125,-0.125,-0.4375
1.5399999999999892,-10.0,-3.0,-1.0,7.0,-15.0,-5.0,-9.0,-3.0,-0.08349609375,-0.35479736328125,0.899169921875,0.2420654296875,0.05029296875,-0.74560546875,0.7451171875,3.8125,-0.125,-0.4375
1.544999999999989,2.0,-1.0,-6.0,-7.0,-1.0,0.0,7.0,44.0,-0.08349609375,-0.35479736328125,0.899169921875,0.2420654296875,0.05029296875,-0.74560546875,0.7451171875,3.8125,-0.125,-0.4375
1.549999999999989,2.0,-1.0,-6.0,-7.0,-1.0,0.0,7.0,44.0,-0.08349609375,-0.35479736328125,0.899169921875,0.2420654296875,0.05029296875,-0.74560546875,0.7451171875,3.8125,-0.125,-0.4375
1.5549999999999888,2.0,-1.0,-6.0,-7.0,-1.0,0.0,7.0,44.0,-0.08349609375,-0.35479736328125,0.899169921875,0.2420654296875,0.05029296875,-0.74560546875,0.7451171875,3.8125,-0.125,-0.4375
1.5599999999999887,2.0,-1.0,-6.0,-7.0,-1.0,0.0,7.0,44.0,-0.08349609375,-0.35479736328125,0.899169921875,0.2420654296875,0.05029296875,-0.74560546875,0.7451171875,3.8125,-0.125,-0.4375
1.5649999999999886,7.0,-3.0,2.0,-9.0,-8.0,0.0,8.0,18.0,-0.08367919921875,-0.35296630859375,0.899658203125,0.2427978515625,0.01318359375,-0.68798828125,0.7470703125,10.6875,4.1875,-2.375
1.5699999999999885,7.0,-3.0,2.0,-9.0,-8.0,0.0,8.0,18.0,-0.08367919921875,-0.35296630859375,0.899658203125,0.2427978515625,0.01318359375,-0.68798828125,0.7470703125,10.6875,4.1875,-2.375
1.5749999999999884,15.0,-1.0,-13.0,-13.0,-2.0,-3.0,0.0,85.0,-0.08392333984375,-0.35137939453125,0.900146484375,0.2432861328125,0.00634765625,-0.6494140625,0.76025390625,6.8125,3.5,-1.1875
1.5799999999999883,-24.0,-3.0,16.0,0.0,-1.0,-3.0,-15.0,-112.0,-0.08392333984375,-0.35137939453125,0.900146484375,0.2432861328125,0.00634765625,-0.6494140625,0.76025390625,6.8125,3.5,-1.1875
1.5849999999999882,1.0,-6.0,-20.0,-20.0,-10.0,-2.0,7.0,84.0,-0.08392333984375,-0.35137939453125,0.900146484375,0.2432861328125,0.00634765625,-0.6494140625,0.76025390625,6.8125,3.5,-1.1875
1.589999999999988,1.0,-6.0,-20.0,-20.0,-10.0,-2.0,7.0,84.0,-0.08392333984375,-0.35137939453125,0.900146484375,0.2432861328125,0.00634765625,-0.6494140625,0.76025390625,6.8125,3.5,-1.1875
1.594999999999988,1.0,-6.0,-20.0,-20.0,-10.0,-2.0,7.0,84.0,-0.08392333984375,-0.35137939453125,0.900146484375,0.2432861328125,0.00634765625,-0.6494140625,0.76025390625,6.8125,3.5,-1.1875
1.5999999999999879,1.0,1.0,-6.0,4.0,-1.0,-4.0,-9.0,-14.0,-0.0841064453125,-0.35186767578125,0.89996337890625,0.2432861328125,0.013671875,-0.654296875,0.75537109375,-5.1875,0.0,-0.3125
1.6049999999999878,6.0,1.0,11.0,-2.0,-2.0,-2.0,0.0,17.0,-0.0841064453125,-0.35186767578125,0.89996337890625,0.2432861328125,0.013671875,-0.654296875,0.75537109375,-5.1875,0.0,-0.3125
1.6099999999999877,6.0,1.0,11.0,-2.0,-2.0,-2.0,0.0,17.0,-0.0841064453125,-0.35186767578125,0.89996337890625,0.2432861328125,0.013671875,-0.654296875,0.75537109375,-5.1875,0.0,-0.3125
1.6149999999999876,6.0,1.0,11.0,-2.0,-2.0,-2.0,0.0,17.0,-0.0841064453125,-0.35186767578125,0.89996337890625,0.2432861328125,0.013671875,-0.654296875,0.75537109375,-5.1875,0.0,-0.3125
1.6199999999999875,6.0,1.0,11.0,-2.0,-2.0,-2.0,0.0,17.0,-0.0841064453125,-0.35186767578125,0.89996337890625,0.2432861328125,0.013671875,-0.654296875,0.75537109375,-5.1875,0.0,-0.3125
1.6249999999999873,1.0,-2.0,1.0,22.0,-7.0,-3.0,1.0,14.0,-0.08416748046875,-0.35369873046875,0.8992919921875,0.2430419921875,0.03125,-0.6884765625,0.7412109375,-10.8125,-1.8125,-0.1875
1.6299999999999872,1.0,-2.0,1.0,22.0,-7.0,-3.0,1.0,14.0,-0.08416748046875,-0.35369873046875,0.8992919921875,0.2430419921875,0.03125,-0.6884765625,0.7412109375,-10.8125,-1.8125,-0.1875
1.6349999999999871,1.0,-2.0,1.0,22.0,-7.0,-3.0,1.0,14.0,-0.08416748046875,-0.35369873046875,0.8992919921875,0.2430419921875,0.03125,-0.6884765625,0.7412109375,-10.8125,-1.8125,-0.1875
1.639999999999987,3.0,6.0,17.0,12.0,-5.0,-5.0,-1.0,-12.0,-0.08428955078125,-0.3546142578125,0.89898681640625,0.2427978515625,0.0263671875,-0.7109375,0.73291015625,-4.125,-0.75,0.9375
1.644999999999987,3.0,6.0,17.0,12.0,-5.0,-5.0,-1.0,-12.0,-0.08428955078125,-0.3546142578125,0.89898681640625,0.2427978515625,0.0263671875,-0.7109375,0.73291015625,-4.125,-0.75,0.9375
1.6499999999999868,3.0,6.0,17.0,12.0,-5.0,-5.0,-1.0,-12.0,-0.08428955078125,-0.3546142578125,0.89898681640625,0.2427978515625,0.0263671875,-0.7109375,0.73291015625,-4.125,-0.75,0.9375
1.6549999999999867,3.0,6.0,17.0,12.0,-5.0,-5.0,-1.0,-12.0,-0.08428955078125,-0.3546142578125,0.89898681640625,0.2427978515625,0.0263671875,-0.7109375,0.73291015625,-4.125,-0.75,0.9375
1.6599999999999866,0.0,10.0,0.0,10.0,1.0,1.0,2.0,25.0,-0.08428955078125,-0.3546142578125,0.89898681640625,0.2427978515625,0.0263671875,-0.7109375,0.73291015625,-4.125,-0.75,0.9375
1.6649999999999865,-1.0,-4.0,-3.0,-2.0,0.0,0.0,1.0,-2.0,-0.08428955078125,-0.35430908203125,0.89910888671875,0.24267578125,0.02099609375,-0.70263671875,0.744140625,2.875,0.25,1.0625
1.6699999999999864,-1.0,-10.0,-9.0,-6.0,12.0,-1.0,-4.0,33.0,-0.08428955078125,-0.35430908203125,0.89910888671875,0.24267578125,0.02099609375,-0.70263671875,0.744140625,2.875,0.25,1.0625
1.6749999999999863,-1.0,-10.0,-9.0,-6.0,12.0,-1.0,-4.0,33.0,-0.08428955078125,-0.35430908203125,0.89910888671875,0.24267578125,0.02099609375,-0.70263671875,0.744140625,2.875,0.25,1.0625
1.6799999999999862,-1.0,-10.0,-9.0,-6.0,12.0,-1.0,-4.0,33.0,-0.08428955078125,-0.35430908203125,0.89910888671875,0.24267578125,0.02099609375,-0.70263671875,0.744140625,2.875,0.25,1.0625
1.684999999999986,-1.0,-10.0,-9.0,-6.0,12.0,-1.0,-4.0,33.0,-0.08428955078125,-0.35430908203125,0.89910888671875,0.24267578125,0.02099609375,-0.70263671875,0.744140625,2.875,0.25,1.0625
1.689999999999986,-2.0,1.0,-3.0,-5.0,-2.0,-3.0,-3.0,3.0,-0.08428955078125,-0.3533935546875,0.8995361328125,0.24249267578125,0.015625,-0.68896484375,0.7529296875,4.9375,0.3125,1.5
1.6949999999999859,6.0,-2.0,5.0,13.0,-1.0,1.0,7.0,19.0,-0.08428955078125,-0.3533935546875,0.8995361328125,0.24249267578125,0.015625,-0.68896484375,0.7529296875,4.9375,0.3125,1.5
1.6999999999999857,6.0,-2.0,5.0,13.0,-1.0,1.0,7.0,19.0,-0.08428955078125,-0.3533935546875,0.8995361328125,0.24249267578125,0.015625,-0.68896484375,0.7529296875,4.9375,0.3125,1.5
1.7049999999999856,-3.0,0.0,-3.0,-29.0,3.0,1.0,-2.0,7.0,-0.0841064453125,-0.352783203125,0.89984130859375,0.24224853515625,0.02197265625,-0.67919921875,0.751953125,3.5625,-0.5625,1.875
1.7099999999999855,-3.0,0.0,-3.0,-29.0,3.0,1.0,-2.0,7.0,-0.0841064453125,-0.352783203125,0.89984130859375,0.24224853515625,0.02197265625,-0.67919921875,0.751953125,3.5625,-0.5625,1.875
1.7149999999999854,-3.0,-3.0,5.0,29.0,2.0,-2.0,-3.0,-28.0,-0.0841064453125,-0.352783203125,0.89984130859375,0.24224853515625,0.02197265625,-0.67919921875,0.751953125,3.5625,-0.5625,1.875
1.7199999999999853,-3.0,-3.0,5.0,29.0,2.0,-2.0,-3.0,-28.0,-0.0841064453125,-0.352783203125,0.89984130859375,0.24224853515625,0.02197265625,-0.67919921875,0.751953125,3.5625,-0.5625,1.875
1.7249999999999852,-3.0,-3.0,5.0,29.0,2.0,-2.0,-3.0,-28.0,-0.0841064453125,-0.352783203125,0.89984130859375,0.24224853515625,0.02197265625,-0.67919921875,0.751953125,3.5625,-0.5625,1.875
1.729999999999985,-5.0,-3.0,-5.0,9.0,-3.0,-2.0,-6.0,-22.0,-0.08392333984375,-0.35223388671875,0.90020751953125,0.2418212890625,0.021484375,-0.68798828125,0.75,3.5,-1.25,2.5
1.734999999999985,-5.0,-3.0,-5.0,9.0,-3.0,-2.0,-6.0,-22.0,-0.08392333984375,-0.35223388671875,0.90020751953125,0.2418212890625,0.021484375,-0.68798828125,0.75,3.5,-1.25,2.5
1.739999999999985,1.0,0.0,7.0,-1.0,-9.0,-3.0,1.0,1.0,-0.08392333984375,-0.35223388671875,0.90020751953125,0.2418212890625,0.021484375,-0.68798828125,0.75,3.5,-1.25,2.5
1.7449999999999848,1.0,0.0,7.0,-1.0,-9.0,-3.0,1.0,1.0,-0.08392333984375,-0.35223388671875,0.90020751953125,0.2418212890625,0.021484375,-0.68798828125,0.75,3.5,-1.25,2.5
1.7499999999999847,-3.0,-2.0,-16.0,1.0,-3.0,-2.0,-3.0,-2.0,-0.08392333984375,-0.35223388671875,0.90020751953125,0.2418212890625,0.021484375,-0.68798828125,0.75,3.5,-1.25,2.5
1.7549999999999846,0.0,-2.0,-1.0,1.0,-5.0,-1.0,1.0,2.0,-0.0836181640625,-0.3515625,0.900634765625,0.2413330078125,0.0126953125,-0.6923828125,0.75732421875,4.8125,-2.1875,2.5
1.7599999999999845,0.0,-2.0,-1.0,1.0,-5.0,-1.0,1.0,2.0,-0.0836181640625,-0.3515625,0.900634765625,0.2413330078125,0.0126953125,-0.6923828125,0.75732421875,4.8125,-2.1875,2.5
1.7649999999999844,0.0,-2.0,-1.0,1.0,-5.0,-1.0,1.0,2.0,-0.0836181640625,-0.3515625,0.900634765625,0.2413330078125,0.0126953125,-0.6923828125,0.75732421875,4.8125,-2.1875,2.5
1.7699999999999843,0.0,-4.0,1.0,-5.0,-3.0,0.0,-1.0,-4.0,-0.083251953125,-0.3507080078125,0.90106201171875,0.240966796875,0.0146484375,-0.69287109375,0.75146484375,5.9375,-1.9375,1.9375
1.7749999999999841,0.0,-4.0,1.0,-5.0,-3.0,0.0,-1.0,-4.0,-0.083251953125,-0.3507080078125,0.90106201171875,0.240966796875,0.0146484375,-0.69287109375,0.75146484375,5.9375,-1.9375,1.9375
1.779999999999984,-3.0,0.0,-1.0,8.0,-4.0,-3.0,-7.0,-22.0,-0.083251953125,-0.3507080078125,0.90106201171875,0.240966796875,0.0146484375,-0.69287109375,0.75146484375,5.9375,-1.9375,1.9375
1.784999999999984,-3.0,0.0,-1.0,8.0,-4.0,-3.0,-7.0,-22.0,-0.083251953125,-0.3507080078125,0.90106201171875,0.240966796875,0.0146484375,-0.69287109375,0.75146484375,5.9375,-1.9375,1.9375
1.7899999999999838,-3.0,0.0,-1.0,8.0,-4.0,-3.0,-7.0,-22.0,-0.083251953125,-0.3507080078125,0.90106201171875,0.240966796875,0.0146484375,-0.69287109375,0.75146484375,5.9375,-1.9375,1.9375
1.7949999999999837,-3.0,0.0,-1.0,8.0,-4.0,-3.0,-7.0,-22.0,-0.083251953125,-0.3507080078125,0.90106201171875,0.240966796875,0.0146484375,-0.69287109375,0.75146484375,5.9375,-1.9375,1.9375
1.7999999999999836,-11.0,-2.0,-13.0,-6.0,1.0,-1.0,-7.0,-42.0,-0.0828857421875,-0.34979248046875,0.90155029296875,0.24066162109375,0.02099609375,-0.68310546875,0.7490234375,6.25,-1.375,2.0
1.8049999999999835,2.0,-2.0,-2.0,-6.0,2.0,0.0,2.0,8.0,-0.0828857421875,-0.34979248046875,0.90155029296875,0.24066162109375,0.02099609375,-0.68310546875,0.7490234375,6.25,-1.375,2.0
1.8099999999999834,2.0,-2.0,-2.0,-6.0,2.0,0.0,2.0,8.0,-0.0828857421875,-0.34979248046875,0.90155029296875,0.24066162109375,0.02099609375,-0.68310546875,0.7490234375,6.25,-1.375,2.0
1.8149999999999833,2.0,-2.0,-2.0,-6.0,2.0,0.0,2.0,8.0,-0.0828857421875,-0.34979248046875,0.90155029296875,0.24066162109375,0.02099609375,-0.68310546875,0.7490234375,6.25,-1.375,2.0
1.8199999999999832,2.0,-2.0,-2.0,-6.0,2.0,0.0,2.0,8.0,-0.0828857421875,-0.34979248046875,0.90155029296875,0.24066162109375,0.02099609375,-0.68310546875,0.7490234375,6.25,-1.375,2.0
1.824999999999983,2.0,-2.0,-2.0,-6.0,2.0,0.0,2.0,8.0,-0.0828857421875,-0.34979248046875,0.90155029296875,0.24066162109375,0.02099609375,-0.68310546875,0.7490234375,6.25,-1.375,2.0
1.829999999999983,0.0,1.0,-3.0,-11.0,-8.0,-4.0,-2.0,-7.0,-0.08270263671875,-0.34906005859375,0.9019775390625,0.24029541015625,0.02294921875,-0.67626953125,0.75390625,4.25,-0.75,2.8125
1.8349999999999829,0.0,1.0,-3.0,-11.0,-8.0,-4.0,-2.0,-7.0,-0.08270263671875,-0.34906005859375,0.9019775390625,0.24029541015625,0.02294921875,-0.67626953125,0.75390625,4.25,-0.75,2.8125
1.8399999999999828,0.0,1.0,-3.0,-11.0,-8.0,-4.0,-2.0,-7.0,-0.08270263671875,-0.34906005859375,0.9019775390625,0.24029541015625,0.02294921875,-0.67626953125,0.75390625,4.25,-0.75,2.8125
1.8449999999999827,-1.0,-3.0,-3.0,-1.0,-4.0,0.0,2.0,4.0,-0.08270263671875,-0.34906005859375,0.9019775390625,0.24029541015625,0.02294921875,-0.67626953125,0.75390625,4.25,-0.75,2.8125
1.8499999999999825,-1.0,-3.0,-3.0,-1.0,-4.0,0.0,2.0,4.0,-0.08282470703125,-0.34881591796875,0.90216064453125,0.23980712890625,0.01513671875,-0.67578125,0.76025390625,1.0625,-0.375,2.6875
1.8549999999999824,0.0,-4.0,0.0,-7.0,5.0,2.0,-3.0,2.0,-0.08282470703125,-0.34881591796875,0.90216064453125,0.23980712890625,0.01513671875,-0.67578125,0.76025390625,1.0625,-0.375,2.6875
1.8599999999999823,0.0,-4.0,0.0,-7.0,5.0,2.0,-3.0,2.0,-0.08282470703125,-0.34881591796875,0.90216064453125,0.23980712890625,0.01513671875,-0.67578125,0.76025390625,1.0625,-0.375,2.6875
1.8649999999999822,0.0,-4.0,0.0,-7.0,5.0,2.0,-3.0,2.0,-0.08282470703125,-0.34881591796875,0.90216064453125,0.23980712890625,0.01513671875,-0.67578125,0.76025390625,1.0625,-0.375,2.6875
1.8699999999999821,0.0,-4.0,0.0,-7.0,5.0,2.0,-3.0,2.0,-0.08282470703125,-0.34881591796875,0.90216064453125,0.23980712890625,0.01513671875,-0.67578125,0.76025390625,1.0625,-0.375,2.6875
1.874999999999982,-3.0,-2.0,1.0,1.0,0.0,-1.0,0.0,2.0,-0.08282470703125,-0.34881591796875,0.90216064453125,0.23980712890625,0.01513671875,-0.67578125,0.76025390625,1.0625,-0.375,2.6875
1.879999999999982,-3.0,-2.0,1.0,1.0,0.0,-1.0,0.0,2.0,-0.08282470703125,-0.34881591796875,0.90216064453125,0.23980712890625,0.01513671875,-0.67578125,0.76025390625,1.0625,-0.375,2.6875
1.8849999999999818,-3.0,-2.0,1.0,1.0,0.0,-1.0,0.0,2.0,-0.08282470703125,-0.3485107421875,0.90240478515625,0.2393798828125,0.01806640625,-0.6806640625,0.76953125,1.0,-0.75,2.875
1.8899999999999817,-1.0,-1.0,-3.0,-2.0,-2.0,-1.0,0.0,4.0,-0.08282470703125,-0.3485107421875,0.90240478515625,0.2393798828125,0.01806640625,-0.6806640625,0.76953125,1.0,-0.75,2.875
1.8949999999999816,-1.0,-1.0,-3.0,-2.0,-2.0,-1.0,0.0,4.0,-0.08282470703125,-0.3485107421875,0.90240478515625,0.2393798828125,0.01806640625,-0.6806640625,0.76953125,1.0,-0.75,2.875
1.8999999999999815,-1.0,-1.0,-3.0,-2.0,-2.0,-1.0,0.0,4.0,-0.08282470703125,-0.3485107421875,0.90240478515625,0.2393798828125,0.01806640625,-0.6806640625,0.76953125,1.0,-0.75,2.875
1.9049999999999814,-2.0,-2.0,2.0,-1.0,6.0,2.0,3.0,-3.0,-0.08282470703125,-0.3485107421875,0.90240478515625,0.2393798828125,0.01806640625,-0.6806640625,0.76953125,1.0,-0.75,2.875
1.9099999999999813,1.0,0.0,-2.0,-12.0,0.0,-2.0,-1.0,-2.0,-0.08251953125,-0.347900390625,0.90283203125,0.23876953125,0.01953125,-0.68359375,0.759765625,4.1875,-1.9375,3.25
1.9149999999999812,1.0,0.0,-2.0,-12.0,0.0,-2.0,-1.0,-2.0,-0.08251953125,-0.347900390625,0.90283203125,0.23876953125,0.01953125,-0.68359375,0.759765625,4.1875,-1.9375,3.25
1.919999999999981,1.0,0.0,-2.0,-12.0,0.0,-2.0,-1.0,-2.0,-0.08251953125,-0.347900390625,0.90283203125,0.23876953125,0.01953125,-0.68359375,0.759765625,4.1875,-1.9375,3.25
1.924999999999981,0.0,1.0,-1.0,-1.0,-1.0,-1.0,-3.0,0.0,-0.0819091796875,-0.34686279296875,0.9034423828125,0.238037109375,0.0234375,-0.66796875,0.76171875,6.375,-3.1875,4.25
1.9299999999999808,0.0,1.0,-1.0,-1.0,-1.0,-1.0,-3.0,0.0,-0.0819091796875,-0.34686279296875,0.9034423828125,0.238037109375,0.0234375,-0.66796875,0.76171875,6.375,-3.1875,4.25
1.9349999999999807,0.0,-1.0,0.0,2.0,1.0,5.0,0.0,0.0,-0.0819091796875,-0.34686279296875,0.9034423828125,0.238037109375,0.0234375,-0.66796875,0.76171875,6.375,-3.1875,4.25
1.9399999999999806,0.0,-1.0,0.0,2.0,1.0,5.0,0.0,0.0,-0.0819091796875,-0.34686279296875,0.9034423828125,0.238037109375,0.0234375,-0.66796875,0.76171875,6.375,-3.1875,4.25
1.9449999999999805,0.0,-1.0,0.0,2.0,1.0,5.0,0.0,0.0,-0.0819091796875,-0.34686279296875,0.9034423828125,0.238037109375,0.0234375,-0.66796875,0.76171875,6.375,-3.1875,4.25
1.9499999999999804,0.0,-1.0,0.0,2.0,1.0,5.0,0.0,0.0,-0.0819091796875,-0.34686279296875,0.9034423828125,0.238037109375,0.0234375,-0.66796875,0.76171875,6.375,-3.1875,4.25
1.9549999999999803,-1.0,0.0,-2.0,1.0,1.0,-3.0,-2.0,1.0,-0.081298828125,-0.3458251953125,0.9041748046875,0.23712158203125,0.02099609375,-0.6728515625,0.75634765625,7.1875,-3.8125,5.25
1.9599999999999802,-1.0,0.0,-2.0,1.0,1.0,-3.0,-2.0,1.0,-0.081298828125,-0.3458251953125,0.9041748046875,0.23712158203125,0.02099609375,-0.6728515625,0.75634765625,7.1875,-3.8125,5.25
1.96499999999998,-1.0,-1.0,-2.0,-5.0,-1.0,1.0,-1.0,-3.0,-0.081298828125,-0.3458251953125,0.9041748046875,0.23712158203125,0.02099609375,-0.6728515625,0.75634765625,7.1875,-3.8125,5.25
1.96999999999998,-1.0,-1.0,-2.0,-5.0,-1.0,1.0,-1.0,-3.0,-0.081298828125,-0.3458251953125,0.9041748046875,0.23712158203125,0.02099609375,-0.6728515625,0.75634765625,7.1875,-3.8125,5.25
1.9749999999999799,-1.0,-1.0,-2.0,-5.0,-1.0,1.0,-1.0,-3.0,-0.081298828125,-0.3458251953125,0.9041748046875,0.23712158203125,0.02099609375,-0.6728515625,0.75634765625,7.1875,-3.8125,5.25
1.9799999999999798,-1.0,-1.0,-2.0,-5.0,-1.0,1.0,-1.0,-3.0,-0.081298828125,-0.3458251953125,0.9041748046875,0.23712158203125,0.02099609375,-0.6728515625,0.75634765625,7.1875,-3.8125,5.25
1.9849999999999797,13.0,-12.0,-45.0,-24.0,-6.0,-3.0,-8.0,-3.0,-0.08074951171875,-0.344970703125,0.90478515625,0.23614501953125,0.01513671875,-0.66845703125,0.74365234375,6.3125,-3.8125,5.0625
1.9899999999999796,13.0,-12.0,-45.0,-24.0,-6.0,-3.0,-8.0,-3.0,-0.08074951171875,-0.344970703125,0.90478515625,0.23614501953125,0.01513671875,-0.66845703125,0.74365234375,6.3125,-3.8125,5.0625
1.9949999999999795,13.0,-12.0,-45.0,-24.0,-6.0,-3.0,-8.0,-3.0,-0.08074951171875,-0.344970703125,0.90478515625,0.23614501953125,0.01513671875,-0.66845703125,0.74365234375,6.3125,-3.8125,5.0625
1.9999999999999793,13.0,-12.0,-45.0,-24.0,-6.0,-3.0,-8.0,-3.0,-0.08074951171875,-0.344970703125,0.90478515625,0.23614501953125,0.01513671875,-0.66845703125,0.74365234375,6.3125,-3.8125,5.0625
2.0049999999999795,-2.0,-3.0,-16.0,-10.0,-3.0,0.0,1.0,-3.0,-0.08050537109375,-0.344482421875,0.90521240234375,0.23529052734375,0.02197265625,-0.70751953125,0.75634765625,5.625,-2.1875,4.8125
2.0099999999999794,-5.0,3.0,15.0,10.0,0.0,-2.0,2.0,0.0,-0.08050537109375,-0.344482421875,0.90521240234375,0.23529052734375,0.02197265625,-0.70751953125,0.75634765625,5.625,-2.1875,4.8125
2.0149999999999793,-5.0,3.0,15.0,10.0,0.0,-2.0,2.0,0.0,-0.08050537109375,-0.344482421875,0.90521240234375,0.23529052734375,0.02197265625,-0.70751953125,0.75634765625,5.625,-2.1875,4.8125
2.019999999999979,-5.0,3.0,15.0,10.0,0.0,-2.0,2.0,0.0,-0.08050537109375,-0.344482421875,0.90521240234375,0.23529052734375,0.02197265625,-0.70751953125,0.75634765625,5.625,-2.1875,4.8125
2.024999999999979,-5.0,3.0,15.0,10.0,0.0,-2.0,2.0,0.0,-0.08050537109375,-0.344482421875,0.90521240234375,0.23529052734375,0.02197265625,-0.70751953125,0.75634765625,5.625,-2.1875,4.8125
2.029999999999979,1.0,-1.0,30.0,14.0,2.0,0.0,-3.0,0.0,-0.08050537109375,-0.344482421875,0.90521240234375,0.23529052734375,0.02197265625,-0.70751953125,0.75634765625,5.625,-2.1875,4.8125
2.034999999999979,1.0,-1.0,30.0,14.0,2.0,0.0,-3.0,0.0,-0.079833984375,-0.3426513671875,0.90618896484375,0.2344970703125,0.03173828125,-0.6962890625,0.7373046875,14.3125,-2.3125,5.5625
2.0399999999999787,-4.0,-1.0,-11.0,7.0,0.0,3.0,7.0,0.0,-0.079833984375,-0.3426513671875,0.90618896484375,0.2344970703125,0.03173828125,-0.6962890625,0.7373046875,14.3125,-2.3125,5.5625
2.0449999999999786,-4.0,-1.0,-11.0,7.0,0.0,3.0,7.0,0.0,-0.079833984375,-0.3426513671875,0.90618896484375,0.2344970703125,0.03173828125,-0.6962890625,0.7373046875,14.3125,-2.3125,5.5625
2.0499999999999785,-4.0,-1.0,-11.0,7.0,0.0,3.0,7.0,0.0,-0.079833984375,-0.3426513671875,0.90618896484375,0.2344970703125,0.03173828125,-0.6962890625,0.7373046875,14.3125,-2.3125,5.5625
2.0549999999999784,0.0,-1.0,-4.0,5.0,-1.0,1.0,-1.0,-3.0,-0.07891845703125,-0.33880615234375,0.90789794921875,0.23370361328125,0.0205078125,-0.6689453125,0.76416015625,25.0,-1.875,6.625
2.0599999999999783,-3.0,2.0,15.0,0.0,1.0,-3.0,-3.0,1.0,-0.07891845703125,-0.33880615234375,0.90789794921875,0.23370361328125,0.0205078125,-0.6689453125,0.76416015625,25.0,-1.875,6.625
2.064999999999978,-1.0,-2.0,-74.0,-28.0,1.0,2.0,0.0,2.0,-0.07891845703125,-0.33880615234375,0.90789794921875,0.23370361328125,0.0205078125,-0.6689453125,0.76416015625,25.0,-1.875,6.625
2.069999999999978,-1.0,-2.0,-74.0,-28.0,1.0,2.0,0.0,2.0,-0.07891845703125,-0.33880615234375,0.90789794921875,0.23370361328125,0.0205078125,-0.6689453125,0.76416015625,25.0,-1.875,6.625
2.074999999999978,-4.0,-4.0,10.0,5.0,-4.0,-10.0,-9.0,-4.0,-0.077880859375,-0.335205078125,0.9095458984375,0.2327880859375,-0.005859375,-0.6240234375,0.78857421875,20.25,-4.1875,5.625
2.079999999999978,-4.0,-4.0,10.0,5.0,-4.0,-10.0,-9.0,-4.0,-0.077880859375,-0.335205078125,0.9095458984375,0.2327880859375,-0.005859375,-0.6240234375,0.78857421875,20.25,-4.1875,5.625
2.0849999999999778,-4.0,-4.0,10.0,5.0,-4.0,-10.0,-9.0,-4.0,-0.077880859375,-0.335205078125,0.9095458984375,0.2327880859375,-0.005859375,-0.6240234375,0.78857421875,20.25,-4.1875,5.625
2.0899999999999777,-1.0,4.0,27.0,3.0,-2.0,-3.0,0.0,0.0,-0.0771484375,-0.334228515625,0.9102783203125,0.231689453125,-0.0078125,-0.64501953125,0.7568359375,7.5,-6.0625,4.6875
2.0949999999999775,-1.0,4.0,27.0,3.0,-2.0,-3.0,0.0,0.0,-0.0771484375,-0.334228515625,0.9102783203125,0.231689453125,-0.0078125,-0.64501953125,0.7568359375,7.5,-6.0625,4.6875
2.0999999999999774,-1.0,4.0,24.0,-3.0,2.0,4.0,4.0,0.0,-0.0771484375,-0.334228515625,0.9102783203125,0.231689453125,-0.0078125,-0.64501953125,0.7568359375,7.5,-6.0625,4.6875
2.1049999999999773,-1.0,4.0,24.0,-3.0,2.0,4.0,4.0,0.0,-0.0771484375,-0.334228515625,0.9102783203125,0.231689453125,-0.0078125,-0.64501953125,0.7568359375,7.5,-6.0625,4.6875
2.1099999999999772,-1.0,4.0,24.0,-3.0,2.0,4.0,4.0,0.0,-0.0771484375,-0.334228515625,0.9102783203125,0.231689453125,-0.0078125,-0.64501953125,0.7568359375,7.5,-6.0625,4.6875
2.114999999999977,-3.0,-6.0,-32.0,-5.0,-1.0,-2.0,-5.0,-4.0,-0.0771484375,-0.334228515625,0.9102783203125,0.231689453125,-0.0078125,-0.64501953125,0.7568359375,7.5,-6.0625,4.6875
2.119999999999977,-22.0,-5.0,13.0,1.0,-2.0,1.0,2.0,-2.0,-0.07537841796875,-0.33245849609375,0.91131591796875,0.23065185546875,0.01513671875,-0.6279296875,0.77392578125,11.8125,-9.375,4.3125
2.124999999999977,-22.0,-5.0,13.0,1.0,-2.0,1.0,2.0,-2.0,-0.07537841796875,-0.33245849609375,0.91131591796875,0.23065185546875,0.01513671875,-0.6279296875,0.77392578125,11.8125,-9.375,4.3125
2.129999999999977,1.0,-3.0,-5.0,-4.0,-2.0,-2.0,-3.0,-1.0,-0.07537841796875,-0.33245849609375,0.91131591796875,0.23065185546875,0.01513671875,-0.6279296875,0.77392578125,11.8125,-9.375,4.3125
2.1349999999999767,1.0,-3.0,-5.0,-4.0,-2.0,-2.0,-3.0,-1.0,-0.07537841796875,-0.33245849609375,0.91131591796875,0.23065185546875,0.01513671875,-0.6279296875,0.77392578125,11.8125,-9.375,4.3125
2.1399999999999766,1.0,-3.0,-5.0,-4.0,-2.0,-2.0,-3.0,-1.0,-0.07537841796875,-0.33245849609375,0.91131591796875,0.23065185546875,0.01513671875,-0.6279296875,0.77392578125,11.8125,-9.375,4.3125
2.1449999999999765,-3.0,4.0,-18.0,13.0,1.0,2.0,2.0,0.0,-0.07452392578125,-0.33233642578125,0.91168212890625,0.2298583984375,0.025390625,-0.6474609375,0.79638671875,1.125,-5.5625,3.375
2.1499999999999764,-3.0,4.0,-18.0,13.0,1.0,2.0,2.0,0.0,-0.07452392578125,-0.33233642578125,0.91168212890625,0.2298583984375,0.025390625,-0.6474609375,0.79638671875,1.125,-5.5625,3.375
2.1549999999999763,-3.0,4.0,-18.0,13.0,1.0,2.0,2.0,0.0,-0.07452392578125,-0.33233642578125,0.91168212890625,0.2298583984375,0.025390625,-0.6474609375,0.79638671875,1.125,-5.5625,3.375
2.159999999999976,-8.0,-9.0,-48.0,28.0,-7.0,-5.0,-4.0,-3.0,-0.07427978515625,-0.3330078125,0.91162109375,0.2291259765625,-0.00732421875,-0.6748046875,0.7724609375,-2.0625,-5.125,1.875
2.164999999999976,-8.0,-9.0,-48.0,28.0,-7.0,-5.0,-4.0,-3.0,-0.07427978515625,-0.3330078125,0.91162109375,0.2291259765625,-0.00732421875,-0.6748046875,0.7724609375,-2.0625,-5.125,1.875
2.169999999999976,5.0,6.0,60.0,35.0,6.0,3.0,0.0,2.0,-0.07427978515625,-0.3330078125,0.91162109375,0.2291259765625,-0.00732421875,-0.6748046875,0.7724609375,-2.0625,-5.125,1.875
2.174999999999976,5.0,6.0,60.0,35.0,6.0,3.0,0.0,2.0,-0.07427978515625,-0.3330078125,0.91162109375,0.2291259765625,-0.00732421875,-0.6748046875,0.7724609375,-2.0625,-5.125,1.875
2.1799999999999757,-7.0,1.0,-46.0,-14.0,6.0,4.0,3.0,1.0,-0.07427978515625,-0.3330078125,0.91162109375,0.2291259765625,-0.00732421875,-0.6748046875,0.7724609375,-2.0625,-5.125,1.875
2.1849999999999756,3.0,2.0,-12.0,-8.0,-1.0,0.0,-2.0,-2.0,-0.07354736328125,-0.33306884765625,0.91180419921875,0.22857666015625,0.0185546875,-0.69873046875,0.8017578125,2.5,-4.9375,1.5
2.1899999999999755,3.0,2.0,-12.0,-8.0,-1.0,0.0,-2.0,-2.0,-0.07354736328125,-0.33306884765625,0.91180419921875,0.22857666015625,0.0185546875,-0.69873046875,0.8017578125,2.5,-4.9375,1.5
2.1949999999999754,2.0,3.0,22.0,-14.0,4.0,1.0,1.0,0.0,-0.07354736328125,-0.33306884765625,0.91180419921875,0.22857666015625,0.0185546875,-0.69873046875,0.8017578125,2.5,-4.9375,1.5
2.1999999999999753,2.0,3.0,22.0,-14.0,4.0,1.0,1.0,0.0,-0.0723876953125,-0.331787109375,0.91241455078125,0.22833251953125,0.013671875,-0.6474609375,0.79638671875,8.375,-5.4375,0.0
2.204999999999975,-3.0,-7.0,-54.0,-17.0,-10.0,-3.0,-3.0,-3.0,-0.0723876953125,-0.331787109375,0.91241455078125,0.22833251953125,0.013671875,-0.6474609375,0.79638671875,8.375,-5.4375,0.0
2.209999999999975,-3.0,-7.0,-54.0,-17.0,-10.0,-3.0,-3.0,-3.0,-0.0723876953125,-0.331787109375,0.91241455078125,0.22833251953125,0.013671875,-0.6474609375,0.79638671875,8.375,-5.4375,0.0
2.214999999999975,-3.0,-7.0,-54.0,-17.0,-10.0,-3.0,-3.0,-3.0,-0.0723876953125,-0.331787109375,0.91241455078125,0.22833251953125,0.013671875,-0.6474609375,0.79638671875,8.375,-5.4375,0.0
2.219999999999975,-3.0,-7.0,-54.0,-17.0,-10.0,-3.0,-3.0,-3.0,-0.0723876953125,-0.331787109375,0.91241455078125,0.22833251953125,0.013671875,-0.6474609375,0.79638671875,8.375,-5.4375,0.0
2.2249999999999748,23.0,-20.0,-9.0,14.0,-22.0,-14.0,-8.0,-14.0,-0.07110595703125,-0.330078125,0.913330078125,0.2276611328125,0.0244140625,-0.64501953125,0.79833984375,11.5,-6.0625,3.1875
2.2299999999999747,23.0,-20.0,-9.0,14.0,-22.0,-14.0,-8.0,-14.0,-0.07110595703125,-0.330078125,0.913330078125,0.2276611328125,0.0244140625,-0.64501953125,0.79833984375,11.5,-6.0625,3.1875
2.2349999999999746,23.0,-20.0,-9.0,14.0,-22.0,-14.0,-8.0,-14.0,-0.07110595703125,-0.330078125,0.913330078125,0.2276611328125,0.0244140625,-0.64501953125,0.79833984375,11.5,-6.0625,3.1875
2.2399999999999745,23.0,-20.0,-9.0,14.0,-22.0,-14.0,-8.0,-14.0,-0.07110595703125,-0.330078125,0.913330078125,0.2276611328125,0.0244140625,-0.64501953125,0.79833984375,11.5,-6.0625,3.1875
2.2449999999999743,8.0,8.0,18.0,-16.0,10.0,6.0,4.0,5.0,-0.07080078125,-0.33074951171875,0.91326904296875,0.22698974609375,0.01708984375,-0.66845703125,0.7685546875,-1.8125,-3.9375,2.3125
2.2499999999999742,8.0,8.0,18.0,-16.0,10.0,6.0,4.0,5.0,-0.07080078125,-0.33074951171875,0.91326904296875,0.22698974609375,0.01708984375,-0.66845703125,0.7685546875,-1.8125,-3.9375,2.3125
2.254999999999974,8.0,8.0,18.0,-16.0,10.0,6.0,4.0,5.0,-0.07080078125,-0.33074951171875,0.91326904296875,0.22698974609375,0.01708984375,-0.66845703125,0.7685546875,-1.8125,-3.9375,2.3125
2.259999999999974,-4.0,-3.0,63.0,-13.0,-4.0,-1.0,-1.0,1.0,-0.07080078125,-0.33074951171875,0.91326904296875,0.22698974609375,0.01708984375,-0.66845703125,0.7685546875,-1.8125,-3.9375,2.3125
2.264999999999974,-4.0,-3.0,63.0,-13.0,-4.0,-1.0,-1.0,1.0,-0.07080078125,-0.33074951171875,0.91326904296875,0.22698974609375,0.01708984375,-0.66845703125,0.7685546875,-1.8125,-3.9375,2.3125
2.269999999999974,-7.0,4.0,25.0,-2.0,3.0,-2.0,-2.0,0.0,-0.06927490234375,-0.3280029296875,0.9144287109375,0.2266845703125,0.0390625,-0.6357421875,0.81982421875,16.5625,-4.4375,2.0625
2.2749999999999737,-7.0,4.0,25.0,-2.0,3.0,-2.0,-2.0,0.0,-0.06927490234375,-0.3280029296875,0.9144287109375,0.2266845703125,0.0390625,-0.6357421875,0.81982421875,16.5625,-4.4375,2.0625
2.2799999999999736,-7.0,4.0,25.0,-2.0,3.0,-2.0,-2.0,0.0,-0.06927490234375,-0.3280029296875,0.9144287109375,0.2266845703125,0.0390625,-0.6357421875,0.81982421875,16.5625,-4.4375,2.0625
2.2849999999999735,-10.0,4.0,31.0,-49.0,-2.0,2.0,1.0,-2.0,-0.06927490234375,-0.3280029296875,0.9144287109375,0.2266845703125,0.0390625,-0.6357421875,0.81982421875,16.5625,-4.4375,2.0625
2.2899999999999734,-10.0,4.0,31.0,-49.0,-2.0,2.0,1.0,-2.0,-0.06927490234375,-0.3280029296875,0.9144287109375,0.2266845703125,0.0390625,-0.6357421875,0.81982421875,16.5625,-4.4375,2.0625
2.2949999999999733,-10.0,4.0,31.0,-49.0,-2.0,2.0,1.0,-2.0,-0.06927490234375,-0.3280029296875,0.9144287109375,0.2266845703125,0.0390625,-0.6357421875,0.81982421875,16.5625,-4.4375,2.0625
2.299999999999973,-10.0,4.0,31.0,-49.0,-2.0,2.0,1.0,-2.0,-0.06927490234375,-0.3280029296875,0.9144287109375,0.2266845703125,0.0390625,-0.6357421875,0.81982421875,16.5625,-4.4375,2.0625
2.304999999999973,-10.0,4.0,31.0,-49.0,-2.0,2.0,1.0,-2.0,-0.06927490234375,-0.3280029296875,0.9144287109375,0.2266845703125,0.0390625,-0.6357421875,0.81982421875,16.5625,-4.4375,2.0625
2.309999999999973,-12.0,-6.0,6.0,4.0,-1.0,-4.0,-4.0,-4.0,-0.0687255859375,-0.3258056640625,0.9154052734375,0.22601318359375,0.02783203125,-0.61669921875,0.833984375,10.8125,-1.4375,4.9375
2.314999999999973,-1.0,3.0,-19.0,-15.0,2.0,0.0,0.0,4.0,-0.0694580078125,-0.3265380859375,0.91522216796875,0.22540283203125,0.0,-0.619140625,0.80029296875,-7.125,0.4375,3.125
2.3199999999999728,-1.0,3.0,-19.0,-15.0,2.0,0.0,0.0,4.0,-0.0694580078125,-0.3265380859375,0.91522216796875,0.22540283203125,0.0,-0.619140625,0.80029296875,-7.125,0.4375,3.125
2.3249999999999726,-2.0,-4.0,9.0,-2.0,1.0,1.0,0.0,-3.0,-0.0694580078125,-0.3265380859375,0.91522216796875,0.22540283203125,0.0,-0.619140625,0.80029296875,-7.125,0.4375,3.125
2.3299999999999725,-5.0,0.0,-6.0,21.0,1.0,-1.0,0.0,-4.0,-0.06964111328125,-0.3272705078125,0.91510009765625,0.22491455078125,0.0185546875,-0.64013671875,0.7919921875,-4.625,-0.6875,2.25
2.3349999999999724,-5.0,0.0,-6.0,21.0,1.0,-1.0,0.0,-4.0,-0.06964111328125,-0.3272705078125,0.91510009765625,0.22491455078125,0.0185546875,-0.64013671875,0.7919921875,-4.625,-0.6875,2.25
2.3399999999999723,-5.0,0.0,-6.0,21.0,1.0,-1.0,0.0,-4.0,-0.06964111328125,-0.3272705078125,0.91510009765625,0.22491455078125,0.0185546875,-0.64013671875,0.7919921875,-4.625,-0.6875,2.25
2.344999999999972,-5.0,0.0,-6.0,21.0,1.0,-1.0,0.0,-4.0,-0.06964111328125,-0.3272705078125,0.91510009765625,0.22491455078125,0.0185546875,-0.64013671875,0.7919921875,-4.625,-0.6875,2.25
2.349999999999972,0.0,2.0,-2.0,-22.0,-3.0,1.0,-1.0,-3.0,-0.06976318359375,-0.32781982421875,0.9150390625,0.22430419921875,0.02001953125,-0.65869140625,0.77685546875,-1.8125,-1.4375,3.0625
2.354999999999972,23.0,-4.0,-26.0,-47.0,-10.0,-2.0,0.0,4.0,-0.06976318359375,-0.32781982421875,0.9150390625,0.22430419921875,0.02001953125,-0.65869140625,0.77685546875,-1.8125,-1.4375,3.0625
2.359999999999972,23.0,-4.0,-26.0,-47.0,-10.0,-2.0,0.0,4.0,-0.06976318359375,-0.32781982421875,0.9150390625,0.22430419921875,0.02001953125,-0.65869140625,0.77685546875,-1.8125,-1.4375,3.0625
2.364999999999972,23.0,-4.0,-26.0,-47.0,-10.0,-2.0,0.0,4.0,-0.06976318359375,-0.32781982421875,0.9150390625,0.22430419921875,0.02001953125,-0.65869140625,0.77685546875,-1.8125,-1.4375,3.0625
2.3699999999999717,23.0,-4.0,-26.0,-47.0,-10.0,-2.0,0.0,4.0,-0.06976318359375,-0.32781982421875,0.9150390625,0.22430419921875,0.02001953125,-0.65869140625,0.77685546875,-1.8125,-1.4375,3.0625
2.3749999999999716,-2.0,0.0,-8.0,20.0,0.0,-1.0,1.0,-1.0,-0.06976318359375,-0.32781982421875,0.9150390625,0.22430419921875,0.02001953125,-0.65869140625,0.77685546875,-1.8125,-1.4375,3.0625
2.3799999999999715,-2.0,0.0,-8.0,20.0,0.0,-1.0,1.0,-1.0,-0.07000732421875,-0.328369140625,0.91497802734375,0.223876953125,0.0068359375,-0.66259765625,0.7626953125,-1.5,-0.875,1.875
2.3849999999999714,10.0,4.0,-9.0,7.0,6.0,2.0,1.0,8.0,-0.07000732421875,-0.328369140625,0.91497802734375,0.223876953125,0.0068359375,-0.66259765625,0.7626953125,-1.5,-0.875,1.875
2.3899999999999713,10.0,4.0,-9.0,7.0,6.0,2.0,1.0,8.0,-0.07000732421875,-0.328369140625,0.91497802734375,0.223876953125,0.0068359375,-0.66259765625,0.7626953125,-1.5,-0.875,1.875
2.394999999999971,-15.0,-6.0,-14.0,11.0,-1.0,-3.0,-1.0,-5.0,-0.07000732421875,-0.328369140625,0.91497802734375,0.223876953125,0.0068359375,-0.66259765625,0.7626953125,-1.5,-0.875,1.875
2.399999999999971,-15.0,-6.0,-14.0,11.0,-1.0,-3.0,-1.0,-5.0,-0.07000732421875,-0.328369140625,0.91497802734375,0.223876953125,0.0068359375,-0.66259765625,0.7626953125,-1.5,-0.875,1.875
2.404999999999971,-9.0,-7.0,-7.0,-2.0,-6.0,-3.0,-5.0,-4.0,-0.06964111328125,-0.326904296875,0.9154052734375,0.22406005859375,0.0322265625,-0.63720703125,0.77490234375,9.25,0.75,0.0
2.409999999999971,-9.0,-7.0,-7.0,-2.0,-6.0,-3.0,-5.0,-4.0,-0.06964111328125,-0.326904296875,0.9154052734375,0.22406005859375,0.0322265625,-0.63720703125,0.77490234375,9.25,0.75,0.0
2.4149999999999707,-9.0,-7.0,-7.0,-2.0,-6.0,-3.0,-5.0,-4.0,-0.06964111328125,-0.326904296875,0.9154052734375,0.22406005859375,0.0322265625,-0.63720703125,0.77490234375,9.25,0.75,0.0
2.4199999999999706,-9.0,-7.0,-7.0,-2.0,-6.0,-3.0,-5.0,-4.0,-0.06964111328125,-0.326904296875,0.9154052734375,0.22406005859375,0.0322265625,-0.63720703125,0.77490234375,9.25,0.75,0.0
2.4249999999999705,-3.0,-3.0,-8.0,3.0,1.0,0.0,0.0,-2.0,-0.069580078125,-0.32586669921875,0.915771484375,0.22418212890625,0.03125,-0.6357421875,0.77734375,6.8125,1.75,0.5
2.4299999999999704,-3.0,-3.0,-8.0,3.0,1.0,0.0,0.0,-2.0,-0.069580078125,-0.32586669921875,0.915771484375,0.22418212890625,0.03125,-0.6357421875,0.77734375,6.8125,1.75,0.5
2.4349999999999703,-8.0,1.0,18.0,-5.0,0.0,-1.0,0.0,-3.0,-0.069580078125,-0.32586669921875,0.915771484375,0.22418212890625,0.03125,-0.6357421875,0.77734375,6.8125,1.75,0.5
2.43999999999997,-8.0,1.0,18.0,-5.0,0.0,-1.0,0.0,-3.0,-0.069580078125,-0.32586669921875,0.915771484375,0.22418212890625,0.03125,-0.6357421875,0.77734375,6.8125,1.75,0.5
2.44499999999997,-8.0,1.0,18.0,-5.0,0.0,-1.0,0.0,-3.0,-0.069580078125,-0.32586669921875,0.915771484375,0.22418212890625,0.03125,-0.6357421875,0.77734375,6.8125,1.75,0.5
2.44999999999997,-8.0,1.0,18.0,-5.0,0.0,-1.0,0.0,-3.0,-0.069580078125,-0.32586669921875,0.915771484375,0.22418212890625,0.03125,-0.6357421875,0.77734375,6.8125,1.75,0.5
2.45499999999997,4.0,-4.0,-29.0,10.0,-6.0,-5.0,-2.0,0.0,-0.06976318359375,-0.32574462890625,0.91583251953125,0.2242431640625,0.02197265625,-0.62158203125,0.77197265625,0.375,1.375,0.3125
2.4599999999999698,4.0,-4.0,-29.0,10.0,-6.0,-5.0,-2.0,0.0,-0.06976318359375,-0.32574462890625,0.91583251953125,0.2242431640625,0.02197265625,-0.62158203125,0.77197265625,0.375,1.375,0.3125
2.4649999999999697,-7.0,2.0,7.0,15.0,2.0,-1.0,0.0,-1.0,-0.06976318359375,-0.32574462890625,0.91583251953125,0.2242431640625,0.02197265625,-0.62158203125,0.77197265625,0.375,1.375,0.3125
2.4699999999999696,-7.0,2.0,7.0,15.0,2.0,-1.0,0.0,-1.0,-0.06976318359375,-0.32574462890625,0.91583251953125,0.2242431640625,0.02197265625,-0.62158203125,0.77197265625,0.375,1.375,0.3125
2.4749999999999694,0.0,0.0,12.0,3.0,-4.0,-1.0,-2.0,-1.0,-0.06976318359375,-0.32574462890625,0.91583251953125,0.2242431640625,0.02197265625,-0.62158203125,0.77197265625,0.375,1.375,0.3125
2.4799999999999693,0.0,0.0,12.0,3.0,-4.0,-1.0,-2.0,-1.0,-0.06976318359375,-0.32574462890625,0.91583251953125,0.2242431640625,0.02197265625,-0.62158203125,0.77197265625,0.375,1.375,0.3125
2.4849999999999692,-4.0,-2.0,-11.0,10.0,2.0,0.0,-1.0,-2.0,-0.0699462890625,-0.32598876953125,0.91571044921875,0.22418212890625,0.021484375,-0.6357421875,0.791015625,-2.25,0.75,0.8125
2.489999999999969,-4.0,-2.0,-11.0,10.0,2.0,0.0,-1.0,-2.0,-0.0699462890625,-0.32598876953125,0.91571044921875,0.22418212890625,0.021484375,-0.6357421875,0.791015625,-2.25,0.75,0.8125
2.494999999999969,-4.0,-2.0,-11.0,10.0,2.0,0.0,-1.0,-2.0,-0.0699462890625,-0.32598876953125,0.91571044921875,0.22418212890625,0.021484375,-0.6357421875,0.791015625,-2.25,0.75,0.8125
2.499999999999969,-4.0,-2.0,-11.0,10.0,2.0,0.0,-1.0,-2.0,-0.0699462890625,-0.32598876953125,0.91571044921875,0.22418212890625,0.021484375,-0.6357421875,0.791015625,-2.25,0.75,0.8125
2.504999999999969,-3.0,0.0,14.0,-7.0,-2.0,-1.0,-2.0,-2.0,-0.07012939453125,-0.3265380859375,0.91558837890625,0.2237548828125,-0.00146484375,-0.61767578125,0.779296875,-4.125,-1.5,1.375
2.5099999999999687,1.0,1.0,-4.0,-6.0,2.0,3.0,0.0,2.0,-0.07012939453125,-0.3265380859375,0.91558837890625,0.2237548828125,-0.00146484375,-0.61767578125,0.779296875,-4.125,-1.5,1.375
2.5149999999999686,1.0,1.0,-4.0,-6.0,2.0,3.0,0.0,2.0,-0.07012939453125,-0.3265380859375,0.91558837890625,0.2237548828125,-0.00146484375,-0.61767578125,0.779296875,-4.125,-1.5,1.375
2.5199999999999685,1.0,1.0,-4.0,-6.0,2.0,3.0,0.0,2.0,-0.07012939453125,-0.3265380859375,0.91558837890625,0.2237548828125,-0.00146484375,-0.61767578125,0.779296875,-4.125,-1.5,1.375
2.5249999999999684,1.0,1.0,-4.0,-6.0,2.0,3.0,0.0,2.0,-0.07012939453125,-0.3265380859375,0.91558837890625,0.2237548828125,-0.00146484375,-0.61767578125,0.779296875,-4.125,-1.5,1.375
2.5299999999999683,-4.0,-6.0,-7.0,-31.0,-4.0,-3.0,-3.0,-6.0,-0.07012939453125,-0.3265380859375,0.91558837890625,0.2237548828125,-0.00146484375,-0.61767578125,0.779296875,-4.125,-1.5,1.375
2.534999999999968,-4.0,-6.0,-7.0,-31.0,-4.0,-3.0,-3.0,-6.0,-0.0701904296875,-0.32745361328125,0.91534423828125,0.223388671875,0.01708984375,-0.65185546875,0.78955078125,-5.0,-1.75,1.125
2.539999999999968,-2.0,0.0,3.0,6.0,-2.0,-1.0,-1.0,-3.0,-0.0701904296875,-0.32745361328125,0.91534423828125,0.223388671875,0.01708984375,-0.65185546875,0.78955078125,-5.0,-1.75,1.125
2.544999999999968,-2.0,0.0,3.0,6.0,-2.0,-1.0,-1.0,-3.0,-0.0701904296875,-0.32745361328125,0.91534423828125,0.223388671875,0.01708984375,-0.65185546875,0.78955078125,-5.0,-1.75,1.125
2.549999999999968,-2.0,0.0,3.0,6.0,-2.0,-1.0,-1.0,-3.0,-0.0701904296875,-0.32745361328125,0.91534423828125,0.223388671875,0.01708984375,-0.65185546875,0.78955078125,-5.0,-1.75,1.125
2.5549999999999677,-2.0,0.0,3.0,6.0,-2.0,-1.0,-1.0,-3.0,-0.0701904296875,-0.32745361328125,0.91534423828125,0.223388671875,0.01708984375,-0.65185546875,0.78955078125,-5.0,-1.75,1.125
2.5599999999999676,0.0,2.0,-23.0,14.0,5.0,2.0,0.0,0.0,-0.0701904296875,-0.32745361328125,0.91534423828125,0.223388671875,0.01708984375,-0.65185546875,0.78955078125,-5.0,-1.75,1.125
2.5649999999999675,-2.0,4.0,1.0,-12.0,-2.0,0.0,-1.0,0.0,-0.07025146484375,-0.3277587890625,0.915283203125,0.223388671875,0.0185546875,-0.64794921875,0.77783203125,-1.125,0.25,-0.3125
2.5699999999999674,-2.0,4.0,1.0,-12.0,-2.0,0.0,-1.0,0.0,-0.07025146484375,-0.3277587890625,0.915283203125,0.223388671875,0.0185546875,-0.64794921875,0.77783203125,-1.125,0.25,-0.3125
2.5749999999999673,-2.0,4.0,1.0,-12.0,-2.0,0.0,-1.0,0.0,-0.07025146484375,-0.3277587890625,0.915283203125,0.223388671875,0.0185546875,-0.64794921875,0.77783203125,-1.125,0.25,-0.3125
2.579999999999967,3.0,3.0,4.0,-7.0,-3.0,-1.0,-2.0,1.0,-0.0699462890625,-0.3272705078125,0.91546630859375,0.2232666015625,0.0087890625,-0.64892578125,0.77734375,4.1875,-1.75,0.1875
2.584999999999967,3.0,3.0,4.0,-7.0,-3.0,-1.0,-2.0,1.0,-0.0699462890625,-0.3272705078125,0.91546630859375,0.2232666015625,0.0087890625,-0.64892578125,0.77734375,4.1875,-1.75,0.1875
2.589999999999967,-4.0,-4.0,-1.0,-10.0,2.0,0.0,0.0,-2.0,-0.0699462890625,-0.3272705078125,0.91546630859375,0.2232666015625,0.0087890625,-0.64892578125,0.77734375,4.1875,-1.75,0.1875
2.594999999999967,-4.0,-4.0,-1.0,-10.0,2.0,0.0,0.0,-2.0,-0.0699462890625,-0.3272705078125,0.91546630859375,0.2232666015625,0.0087890625,-0.64892578125,0.77734375,4.1875,-1.75,0.1875
2.599999999999967,-4.0,-4.0,-1.0,-10.0,2.0,0.0,0.0,-2.0,-0.0699462890625,-0.3272705078125,0.91546630859375,0.2232666015625,0.0087890625,-0.64892578125,0.77734375,4.1875,-1.75,0.1875
2.6049999999999667,-4.0,-4.0,-1.0,-10.0,2.0,0.0,0.0,-2.0,-0.0699462890625,-0.3272705078125,0.91546630859375,0.2232666015625,0.0087890625,-0.64892578125,0.77734375,4.1875,-1.75,0.1875
2.6099999999999666,-3.0,-8.0,22.0,20.0,-7.0,-4.0,-1.0,-2.0,-0.069580078125,-0.32684326171875,0.91571044921875,0.22314453125,0.00927734375,-0.63623046875,0.77978515625,3.3125,-2.5625,0.0625
2.6149999999999665,-5.0,-1.0,-8.0,6.0,-3.0,-2.0,0.0,-2.0,-0.069580078125,-0.32684326171875,0.91571044921875,0.22314453125,0.00927734375,-0.63623046875,0.77978515625,3.3125,-2.5625,0.0625
2.6199999999999664,-5.0,-1.0,-8.0,6.0,-3.0,-2.0,0.0,-2.0,-0.069580078125,-0.32684326171875,0.91571044921875,0.22314453125,0.00927734375,-0.63623046875,0.77978515625,3.3125,-2.5625,0.0625
2.6249999999999662,-5.0,-1.0,-8.0,6.0,-3.0,-2.0,0.0,-2.0,-0.069580078125,-0.32684326171875,0.91571044921875,0.22314453125,0.00927734375,-0.63623046875,0.77978515625,3.3125,-2.5625,0.0625
2.629999999999966,-5.0,-1.0,-8.0,6.0,-3.0,-2.0,0.0,-2.0,-0.069580078125,-0.32684326171875,0.91571044921875,0.22314453125,0.00927734375,-0.63623046875,0.77978515625,3.3125,-2.5625,0.0625
2.634999999999966,-5.0,-1.0,-8.0,6.0,-3.0,-2.0,0.0,-2.0,-0.069580078125,-0.32684326171875,0.91571044921875,0.22314453125,0.00927734375,-0.63623046875,0.77978515625,3.3125,-2.5625,0.0625
2.639999999999966,-2.0,-2.0,20.0,-2.0,-1.0,-3.0,-3.0,-1.0,-0.069091796875,-0.3265380859375,0.9158935546875,0.2230224609375,0.01416015625,-0.63623046875,0.79248046875,2.125,-2.5,-0.125
2.644999999999966,-2.0,-2.0,20.0,-2.0,-1.0,-3.0,-3.0,-1.0,-0.069091796875,-0.3265380859375,0.9158935546875,0.2230224609375,0.01416015625,-0.63623046875,0.79248046875,2.125,-2.5,-0.125
2.6499999999999657,-1.0,1.0,-2.0,8.0,2.0,1.0,2.0,1.0,-0.069091796875,-0.3265380859375,0.9158935546875,0.2230224609375,0.01416015625,-0.63623046875,0.79248046875,2.125,-2.5,-0.125
2.6549999999999656,-2.0,1.0,22.0,10.0,-4.0,-1.0,0.0,0.0,-0.069091796875,-0.32647705078125,0.9158935546875,0.2230224609375,0.02197265625,-0.64404296875,0.80908203125,0.5,-0.8125,-0.8125
2.6599999999999655,-2.0,1.0,22.0,10.0,-4.0,-1.0,0.0,0.0,-0.069091796875,-0.32647705078125,0.9158935546875,0.2230224609375,0.02197265625,-0.64404296875,0.80908203125,0.5,-0.8125,-0.8125
2.6649999999999654,-2.0,1.0,22.0,10.0,-4.0,-1.0,0.0,0.0,-0.069091796875,-0.32647705078125,0.9158935546875,0.2230224609375,0.02197265625,-0.64404296875,0.80908203125,0.5,-0.8125,-0.8125
2.6699999999999653,-2.0,1.0,22.0,10.0,-4.0,-1.0,0.0,0.0,-0.069091796875,-0.32647705078125,0.9158935546875,0.2230224609375,0.02197265625,-0.64404296875,0.80908203125,0.5,-0.8125,-0.8125
2.674999999999965,5.0,2.0,-11.0,-18.0,2.0,2.0,1.0,3.0,-0.069091796875,-0.32647705078125,0.9158935546875,0.2230224609375,0.02197265625,-0.64404296875,0.80908203125,0.5,-0.8125,-0.8125
2.679999999999965,-4.0,-7.0,-8.0,24.0,-8.0,-6.0,-4.0,-7.0,-0.069091796875,-0.32647705078125,0.9158935546875,0.2230224609375,0.02197265625,-0.64404296875,0.80908203125,0.5,-0.8125,-0.8125
2.684999999999965,0.0,2.0,15.0,-13.0,3.0,0.0,-2.0,-1.0,-0.06903076171875,-0.32635498046875,0.9158935546875,0.22320556640625,0.02490234375,-0.63330078125,0.8056640625,-0.25,0.4375,-1.0625
2.689999999999965,-3.0,-5.0,-11.0,-7.0,-5.0,-3.0,0.0,-1.0,-0.06903076171875,-0.32635498046875,0.9158935546875,0.22320556640625,0.02490234375,-0.63330078125,0.8056640625,-0.25,0.4375,-1.0625
2.6949999999999648,-3.0,-5.0,-11.0,-7.0,-5.0,-3.0,0.0,-1.0,-0.06903076171875,-0.32635498046875,0.9158935546875,0.22320556640625,0.02490234375,-0.63330078125,0.8056640625,-0.25,0.4375,-1.0625
2.6999999999999647,-1.0,1.0,16.0,-9.0,3.0,0.0,0.0,2.0,-0.0692138671875,-0.32763671875,0.9154052734375,0.22320556640625,0.01806640625,-0.6484375,0.796875,-7.9375,-0.5,-0.8125
2.7049999999999645,-1.0,1.0,16.0,-9.0,3.0,0.0,0.0,2.0,-0.0692138671875,-0.32763671875,0.9154052734375,0.22320556640625,0.01806640625,-0.6484375,0.796875,-7.9375,-0.5,-0.8125
2.7099999999999644,-1.0,-3.0,-4.0,-26.0,-6.0,-4.0,-3.0,-3.0,-0.0692138671875,-0.32763671875,0.9154052734375,0.22320556640625,0.01806640625,-0.6484375,0.796875,-7.9375,-0.5,-0.8125
2.7149999999999643,-2.0,-4.0,1.0,-5.0,-3.0,-1.0,-2.0,-1.0,-0.0692138671875,-0.32763671875,0.9154052734375,0.22320556640625,0.01806640625,-0.6484375,0.796875,-7.9375,-0.5,-0.8125
2.7199999999999642,-3.0,3.0,31.0,-2.0,0.0,1.0,1.0,0.0,-0.06903076171875,-0.3282470703125,0.915283203125,0.22296142578125,0.01318359375,-0.6708984375,0.791015625,-1.75,-2.5625,0.125
2.724999999999964,-2.0,-3.0,-7.0,27.0,0.0,-1.0,-2.0,-1.0,-0.06903076171875,-0.3282470703125,0.915283203125,0.22296142578125,0.01318359375,-0.6708984375,0.791015625,-1.75,-2.5625,0.125
2.729999999999964,-2.0,-3.0,-7.0,27.0,0.0,-1.0,-2.0,-1.0,-0.06903076171875,-0.3282470703125,0.915283203125,0.22296142578125,0.01318359375,-0.6708984375,0.791015625,-1.75,-2.5625,0.125
2.734999999999964,-2.0,-3.0,-7.0,27.0,0.0,-1.0,-2.0,-1.0,-0.06903076171875,-0.3282470703125,0.915283203125,0.22296142578125,0.01318359375,-0.6708984375,0.791015625,-1.75,-2.5625,0.125
2.739999999999964,-2.0,0.0,3.0,8.0,-1.0,0.0,-2.0,-1.0,-0.06866455078125,-0.327880859375,0.91546630859375,0.222900390625,0.015625,-0.65478515625,0.7890625,3.375,-1.9375,-0.1875
2.7449999999999637,1.0,3.0,-9.0,-13.0,1.0,1.0,0.0,0.0,-0.06866455078125,-0.327880859375,0.91546630859375,0.222900390625,0.015625,-0.65478515625,0.7890625,3.375,-1.9375,-0.1875
2.7499999999999636,1.0,3.0,-9.0,-13.0,1.0,1.0,0.0,0.0,-0.06866455078125,-0.327880859375,0.91546630859375,0.222900390625,0.015625,-0.65478515625,0.7890625,3.375,-1.9375,-0.1875
2.7549999999999635,1.0,3.0,-9.0,-13.0,1.0,1.0,0.0,0.0,-0.06866455078125,-0.327880859375,0.91546630859375,0.222900390625,0.015625,-0.65478515625,0.7890625,3.375,-1.9375,-0.1875
2.7599999999999634,-2.0,-5.0,-10.0,2.0,-4.0,-1.0,-3.0,-2.0,-0.068359375,-0.32696533203125,0.915771484375,0.222900390625,0.0185546875,-0.64892578125,0.79248046875,6.1875,-0.875,-0.125
2.7649999999999633,-2.0,-5.0,-10.0,2.0,-4.0,-1.0,-3.0,-2.0,-0.068359375,-0.32696533203125,0.915771484375,0.222900390625,0.0185546875,-0.64892578125,0.79248046875,6.1875,-0.875,-0.125
2.769999999999963,-2.0,-5.0,-10.0,2.0,-4.0,-1.0,-3.0,-2.0,-0.068359375,-0.32696533203125,0.915771484375,0.222900390625,0.0185546875,-0.64892578125,0.79248046875,6.1875,-0.875,-0.125
2.774999999999963,3.0,0.0,1.0,-4.0,1.0,3.0,0.0,2.0,-0.068115234375,-0.3260498046875,0.9161376953125,0.22296142578125,0.01953125,-0.6298828125,0.787109375,5.3125,-0.1875,0.0
2.779999999999963,0.0,0.0,18.0,2.0,0.0,0.0,-1.0,1.0,-0.068115234375,-0.3260498046875,0.9161376953125,0.22296142578125,0.01953125,-0.6298828125,0.787109375,5.3125,-0.1875,0.0
2.784999999999963,0.0,0.0,18.0,2.0,0.0,0.0,-1.0,1.0,-0.068115234375,-0.3260498046875,0.9161376953125,0.22296142578125,0.01953125,-0.6298828125,0.787109375,5.3125,-0.1875,0.0
2.7899999999999627,0.0,0.0,18.0,2.0,0.0,0.0,-1.0,1.0,-0.068115234375,-0.3260498046875,0.9161376953125,0.22296142578125,0.01953125,-0.6298828125,0.787109375,5.3125,-0.1875,0.0
2.7949999999999626,-2.0,-3.0,-52.0,-2.0,-1.0,0.0,-2.0,0.0,-0.0679931640625,-0.32562255859375,0.916259765625,0.22296142578125,0.021484375,-0.62939453125,0.79150390625,2.3125,-0.0625,0.0625
2.7999999999999625,2.0,1.0,-1.0,-6.0,4.0,3.0,0.0,2.0,-0.0679931640625,-0.32562255859375,0.916259765625,0.22296142578125,0.021484375,-0.62939453125,0.79150390625,2.3125,-0.0625,0.0625
2.8049999999999624,2.0,1.0,-1.0,-6.0,4.0,3.0,0.0,2.0,-0.0679931640625,-0.32562255859375,0.916259765625,0.22296142578125,0.021484375,-0.62939453125,0.79150390625,2.3125,-0.0625,0.0625
2.8099999999999623,2.0,1.0,-1.0,-6.0,4.0,3.0,0.0,2.0,-0.0679931640625,-0.32562255859375,0.916259765625,0.22296142578125,0.021484375,-0.62939453125,0.79150390625,2.3125,-0.0625,0.0625
2.814999999999962,-3.0,-5.0,-17.0,-17.0,-6.0,-5.0,-2.0,-1.0,-0.0679931640625,-0.32562255859375,0.916259765625,0.22296142578125,0.021484375,-0.62939453125,0.79150390625,2.3125,-0.0625,0.0625
2.819999999999962,-2.0,-2.0,-29.0,-6.0,-2.0,-4.0,-1.0,-2.0,-0.06805419921875,-0.325927734375,0.91619873046875,0.22296142578125,0.021484375,-0.640625,0.7939453125,-1.9375,-0.125,0.0625
2.824999999999962,-2.0,-2.0,-29.0,-6.0,-2.0,-4.0,-1.0,-2.0,-0.06805419921875,-0.325927734375,0.91619873046875,0.22296142578125,0.021484375,-0.640625,0.7939453125,-1.9375,-0.125,0.0625
2.829999999999962,-2.0,-2.0,-29.0,-6.0,-2.0,-4.0,-1.0,-2.0,-0.06805419921875,-0.325927734375,0.91619873046875,0.22296142578125,0.021484375,-0.640625,0.7939453125,-1.9375,-0.125,0.0625
2.8349999999999618,-3.0,0.0,-1.0,1.0,-2.0,-1.0,-2.0,-1.0,-0.06805419921875,-0.325927734375,0.91619873046875,0.22296142578125,0.021484375,-0.640625,0.7939453125,-1.9375,-0.125,0.0625
2.8399999999999617,-3.0,-6.0,-21.0,-12.0,-1.0,-3.0,-3.0,-1.0,-0.06817626953125,-0.3262939453125,0.91607666015625,0.22283935546875,0.01806640625,-0.64892578125,0.78564453125,-1.5625,-0.1875,0.125
2.8449999999999616,-3.0,-6.0,-21.0,-12.0,-1.0,-3.0,-3.0,-1.0,-0.06817626953125,-0.3262939453125,0.91607666015625,0.22283935546875,0.01806640625,-0.64892578125,0.78564453125,-1.5625,-0.1875,0.125
2.8499999999999615,-3.0,-6.0,-21.0,-12.0,-1.0,-3.0,-3.0,-1.0,-0.06817626953125,-0.3262939453125,0.91607666015625,0.22283935546875,0.01806640625,-0.64892578125,0.78564453125,-1.5625,-0.1875,0.125
2.8549999999999613,-3.0,-3.0,-18.0,9.0,-1.0,-1.0,0.0,-1.0,-0.06817626953125,-0.3262939453125,0.91607666015625,0.22283935546875,0.01806640625,-0.64892578125,0.78564453125,-1.5625,-0.1875,0.125
2.8599999999999612,-3.0,-3.0,-18.0,9.0,-1.0,-1.0,0.0,-1.0,-0.06805419921875,-0.325927734375,0.91619873046875,0.222900390625,0.01953125,-0.650390625,0.7890625,2.9375,-0.0625,-0.3125
2.864999999999961,-3.0,-3.0,-18.0,9.0,-1.0,-1.0,0.0,-1.0,-0.06805419921875,-0.325927734375,0.91619873046875,0.222900390625,0.01953125,-0.650390625,0.7890625,2.9375,-0.0625,-0.3125
2.869999999999961,-1.0,0.0,20.0,-12.0,1.0,-1.0,-1.0,-2.0,-0.06805419921875,-0.325927734375,0.91619873046875,0.222900390625,0.01953125,-0.650390625,0.7890625,2.9375,-0.0625,-0.3125
2.874999999999961,-1.0,0.0,20.0,-12.0,1.0,-1.0,-1.0,-2.0,-0.06805419921875,-0.325927734375,0.91619873046875,0.222900390625,0.01953125,-0.650390625,0.7890625,2.9375,-0.0625,-0.3125
2.879999999999961,-1.0,0.0,20.0,-12.0,1.0,-1.0,-1.0,-2.0,-0.06805419921875,-0.325927734375,0.91619873046875,0.222900390625,0.01953125,-0.650390625,0.7890625,2.9375,-0.0625,-0.3125
2.8849999999999607,-1.0,1.0,-22.0,-7.0,-2.0,-1.0,-1.0,0.0,-0.0679931640625,-0.3253173828125,0.9163818359375,0.22308349609375,0.02197265625,-0.63232421875,0.794921875,3.3125,0.6875,-0.4375
2.8899999999999606,-1.0,1.0,-22.0,-7.0,-2.0,-1.0,-1.0,0.0,-0.0679931640625,-0.3253173828125,0.9163818359375,0.22308349609375,0.02197265625,-0.63232421875,0.794921875,3.3125,0.6875,-0.4375
2.8949999999999605,-1.0,1.0,-22.0,-7.0,-2.0,-1.0,-1.0,0.0,-0.0679931640625,-0.3253173828125,0.9163818359375,0.22308349609375,0.02197265625,-0.63232421875,0.794921875,3.3125,0.6875,-0.4375
2.8999999999999604,0.0,3.0,5.0,-8.0,0.0,1.0,2.0,2.0,-0.06793212890625,-0.3250732421875,0.91644287109375,0.22314453125,0.02197265625,-0.6337890625,0.79638671875,1.0625,0.0,-0.375
2.9049999999999603,0.0,3.0,5.0,-8.0,0.0,1.0,2.0,2.0,-0.06793212890625,-0.3250732421875,0.91644287109375,0.22314453125,0.02197265625,-0.6337890625,0.79638671875,1.0625,0.0,-0.375
2.90999999999996,0.0,3.0,5.0,-8.0,0.0,1.0,2.0,2.0,-0.06793212890625,-0.3250732421875,0.91644287109375,0.22314453125,0.02197265625,-0.6337890625,0.79638671875,1.0625,0.0,-0.375
2.91499999999996,-3.0,-1.0,9.0,-1.0,3.0,-2.0,0.0,-1.0,-0.06793212890625,-0.3250732421875,0.91644287109375,0.22314453125,0.02197265625,-0.6337890625,0.79638671875,1.0625,0.0,-0.375
2.91999999999996,-3.0,-1.0,9.0,-1.0,3.0,-2.0,0.0,-1.0,-0.06793212890625,-0.3250732421875,0.91644287109375,0.22314453125,0.02197265625,-0.6337890625,0.79638671875,1.0625,0.0,-0.375
2.92499999999996,2.0,1.0,18.0,5.0,2.0,2.0,-1.0,-1.0,-0.06793212890625,-0.32525634765625,0.9163818359375,0.22308349609375,0.02099609375,-0.6376953125,0.79150390625,-1.25,-0.25,0.25
2.9299999999999597,2.0,1.0,18.0,5.0,2.0,2.0,-1.0,-1.0,-0.06793212890625,-0.32525634765625,0.9163818359375,0.22308349609375,0.02099609375,-0.6376953125,0.79150390625,-1.25,-0.25,0.25
2.9349999999999596,2.0,1.0,18.0,5.0,2.0,2.0,-1.0,-1.0,-0.06793212890625,-0.32525634765625,0.9163818359375,0.22308349609375,0.02099609375,-0.6376953125,0.79150390625,-1.25,-0.25,0.25
2.9399999999999595,2.0,1.0,18.0,5.0,2.0,2.0,-1.0,-1.0,-0.06793212890625,-0.32525634765625,0.9163818359375,0.22308349609375,0.02099609375,-0.6376953125,0.79150390625,-1.25,-0.25,0.25
2.9449999999999594,-1.0,-4.0,3.0,-12.0,-5.0,-4.0,-2.0,-4.0,-0.06793212890625,-0.32525634765625,0.9163818359375,0.22308349609375,0.02197265625,-0.64111328125,0.79296875,-0.6875,-0.375,0.0625
2.9499999999999593,-1.0,-4.0,3.0,-12.0,-5.0,-4.0,-2.0,-4.0,-0.06793212890625,-0.32525634765625,0.9163818359375,0.22308349609375,0.02197265625,-0.64111328125,0.79296875,-0.6875,-0.375,0.0625
2.954999999999959,-1.0,-4.0,3.0,-12.0,-5.0,-4.0,-2.0,-4.0,-0.06793212890625,-0.32525634765625,0.9163818359375,0.22308349609375,0.02197265625,-0.64111328125,0.79296875,-0.6875,-0.375,0.0625
2.959999999999959,-1.0,-4.0,3.0,-12.0,-5.0,-4.0,-2.0,-4.0,-0.06793212890625,-0.32525634765625,0.9163818359375,0.22308349609375,0.02197265625,-0.64111328125,0.79296875,-0.6875,-0.375,0.0625
2.964999999999959,1.0,-1.0,-3.0,0.0,0.0,2.0,0.0,0.0,-0.06793212890625,-0.32525634765625,0.9163818359375,0.22308349609375,0.0224609375,-0.642578125,0.794921875,0.1875,0.125,-0.25
2.969999999999959,-2.0,-2.0,-2.0,16.0,-2.0,-2.0,-2.0,-2.0,-0.06793212890625,-0.32525634765625,0.9163818359375,0.22308349609375,0.0224609375,-0.642578125,0.794921875,0.1875,0.125,-0.25
2.974999999999959,-2.0,-2.0,-2.0,16.0,-2.0,-2.0,-2.0,-2.0,-0.06793212890625,-0.32525634765625,0.9163818359375,0.22308349609375,0.0224609375,-0.642578125,0.794921875,0.1875,0.125,-0.25
2.9799999999999587,-2.0,-2.0,-2.0,16.0,-2.0,-2.0,-2.0,-2.0,-0.06793212890625,-0.32525634765625,0.9163818359375,0.22308349609375,0.0224609375,-0.642578125,0.794921875,0.1875,0.125,-0.25
2.9849999999999586,-2.0,-2.0,-2.0,16.0,-2.0,-2.0,-2.0,-2.0,-0.06793212890625,-0.32525634765625,0.9163818359375,0.22308349609375,0.0224609375,-0.642578125,0.794921875,0.1875,0.125,-0.25
2.9899999999999585,1.0,-4.0,-9.0,-12.0,-2.0,-1.0,-1.0,-2.0,-0.06787109375,-0.32501220703125,0.91650390625,0.22308349609375,0.0283203125,-0.64013671875,0.78857421875,2.1875,0.375,0.25
2.9949999999999584,1.0,-4.0,-9.0,-12.0,-2.0,-1.0,-1.0,-2.0,-0.06787109375,-0.32501220703125,0.91650390625,0.22308349609375,0.0283203125,-0.64013671875,0.78857421875,2.1875,0.375,0.25
2.9999999999999583,-1.0,-2.0,3.0,-2.0,-1.0,0.0,1.0,-2.0,-0.06787109375,-0.32501220703125,0.91650390625,0.22308349609375,0.0283203125,-0.64013671875,0.78857421875,2.1875,0.375,0.25
3.004999999999958,-1.0,-2.0,3.0,-2.0,-1.0,0.0,1.0,-2.0,-0.06787109375,-0.32501220703125,0.91650390625,0.22308349609375,0.0283203125,-0.64013671875,0.78857421875,2.1875,0.375,0.25
3.009999999999958,-1.0,-2.0,3.0,-2.0,-1.0,0.0,1.0,-2.0,-0.06787109375,-0.32501220703125,0.91650390625,0.22308349609375,0.0283203125,-0.64013671875,0.78857421875,2.1875,0.375,0.25
3.014999999999958,-1.0,-2.0,3.0,-2.0,-1.0,0.0,1.0,-2.0,-0.06787109375,-0.32501220703125,0.91650390625,0.22308349609375,0.0283203125,-0.64013671875,0.78857421875,2.1875,0.375,0.25
3.019999999999958,-1.0,-2.0,3.0,-2.0,-1.0,0.0,1.0,-2.0,-0.06787109375,-0.32501220703125,0.91650390625,0.22308349609375,0.0283203125,-0.64013671875,0.78857421875,2.1875,0.375,0.25
3.0249999999999577,-2.0,-4.0,-29.0,-24.0,-3.0,-5.0,-3.0,-2.0,-0.06787109375,-0.32440185546875,0.91668701171875,0.22314453125,0.0263671875,-0.625,0.7978515625,2.6875,1.0,0.375
3.0299999999999576,-2.0,-4.0,-29.0,-24.0,-3.0,-5.0,-3.0,-2.0,-0.06787109375,-0.32440185546875,0.91668701171875,0.22314453125,0.0263671875,-0.625,0.7978515625,2.6875,1.0,0.375
3.0349999999999575,-2.0,-4.0,-29.0,-24.0,-3.0,-5.0,-3.0,-2.0,-0.06787109375,-0.32440185546875,0.91668701171875,0.22314453125,0.0263671875,-0.625,0.7978515625,2.6875,1.0,0.375
3.0399999999999574,3.0,3.0,10.0,-9.0,3.0,1.0,0.0,0.0,-0.06787109375,-0.32440185546875,0.91668701171875,0.22314453125,0.0263671875,-0.625,0.7978515625,2.6875,1.0,0.375
3.0449999999999573,3.0,3.0,10.0,-9.0,3.0,1.0,0.0,0.0,-0.0682373046875,-0.3251953125,0.9163818359375,0.22308349609375,0.015625,-0.6318359375,0.78466796875,-5.125,0.75,0.1875
3.049999999999957,-3.0,-3.0,-7.0,11.0,0.0,-2.0,-2.0,-1.0,-0.0682373046875,-0.3251953125,0.9163818359375,0.22308349609375,0.015625,-0.6318359375,0.78466796875,-5.125,0.75,0.1875
3.054999999999957,-3.0,-3.0,-7.0,11.0,0.0,-2.0,-2.0,-1.0,-0.0682373046875,-0.3251953125,0.9163818359375,0.22308349609375,0.015625,-0.6318359375,0.78466796875,-5.125,0.75,0.1875
3.059999999999957,-3.0,-3.0,-7.0,11.0,0.0,-2.0,-2.0,-1.0,-0.0682373046875,-0.3251953125,0.9163818359375,0.22308349609375,0.015625,-0.6318359375,0.78466796875,-5.125,0.75,0.1875
3.064999999999957,-3.0,-3.0,-7.0,11.0,0.0,-2.0,-2.0,-1.0,-0.0682373046875,-0.3251953125,0.9163818359375,0.22308349609375,0.015625,-0.6318359375,0.78466796875,-5.125,0.75,0.1875
3.0699999999999568,-1.0,-2.0,11.0,0.0,-2.0,-1.0,-1.0,-1.0,-0.06817626953125,-0.3255615234375,0.91632080078125,0.222900390625,0.02099609375,-0.64453125,0.7822265625,-1.625,-1.0625,0.5
3.0749999999999567,-1.0,-2.0,11.0,0.0,-2.0,-1.0,-1.0,-1.0,-0.06817626953125,-0.3255615234375,0.91632080078125,0.222900390625,0.02099609375,-0.64453125,0.7822265625,-1.625,-1.0625,0.5
3.0799999999999566,-1.0,0.0,19.0,16.0,-1.0,-1.0,-1.0,-3.0,-0.06817626953125,-0.3255615234375,0.91632080078125,0.222900390625,0.02099609375,-0.64453125,0.7822265625,-1.625,-1.0625,0.5
3.0849999999999564,-1.0,0.0,19.0,16.0,-1.0,-1.0,-1.0,-3.0,-0.06817626953125,-0.3255615234375,0.91632080078125,0.222900390625,0.02099609375,-0.64453125,0.7822265625,-1.625,-1.0625,0.5
3.0899999999999563,-1.0,0.0,19.0,16.0,-1.0,-1.0,-1.0,-3.0,-0.06817626953125,-0.3255615234375,0.91632080078125,0.222900390625,0.02099609375,-0.64453125,0.7822265625,-1.625,-1.0625,0.5
3.0949999999999562,-1.0,0.0,19.0,16.0,-1.0,-1.0,-1.0,-3.0,-0.06817626953125,-0.3255615234375,0.91632080078125,0.222900390625,0.02099609375,-0.64453125,0.7822265625,-1.625,-1.0625,0.5
3.099999999999956,2.0,4.0,16.0,-50.0,0.0,1.0,1.0,1.0,-0.06805419921875,-0.32537841796875,0.9163818359375,0.222900390625,0.029296875,-0.638671875,0.78857421875,1.6875,0.0625,0.3125
3.104999999999956,2.0,4.0,16.0,-50.0,0.0,1.0,1.0,1.0,-0.06805419921875,-0.32537841796875,0.9163818359375,0.222900390625,0.029296875,-0.638671875,0.78857421875,1.6875,0.0625,0.3125
3.109999999999956,2.0,4.0,16.0,-50.0,0.0,1.0,1.0,1.0,-0.06805419921875,-0.32537841796875,0.9163818359375,0.222900390625,0.029296875,-0.638671875,0.78857421875,1.6875,0.0625,0.3125
3.114999999999956,2.0,4.0,16.0,-50.0,0.0,1.0,1.0,1.0,-0.06805419921875,-0.32537841796875,0.9163818359375,0.222900390625,0.029296875,-0.638671875,0.78857421875,1.6875,0.0625,0.3125
3.1199999999999557,-4.0,-4.0,37.0,51.0,-2.0,-4.0,-1.0,-4.0,-0.06805419921875,-0.32537841796875,0.9163818359375,0.222900390625,0.029296875,-0.638671875,0.78857421875,1.6875,0.0625,0.3125
3.1249999999999556,-4.0,-4.0,37.0,51.0,-2.0,-4.0,-1.0,-4.0,-0.06805419921875,-0.32537841796875,0.9163818359375,0.222900390625,0.029296875,-0.638671875,0.78857421875,1.6875,0.0625,0.3125
3.1299999999999555,-2.0,-4.0,-36.0,45.0,-2.0,-1.0,-2.0,-1.0,-0.068115234375,-0.3248291015625,0.91656494140625,0.2230224609375,0.01904296875,-0.64111328125,0.796875,2.9375,0.8125,-0.3125
3.1349999999999554,-2.0,-4.0,-36.0,45.0,-2.0,-1.0,-2.0,-1.0,-0.068115234375,-0.3248291015625,0.91656494140625,0.2230224609375,0.01904296875,-0.64111328125,0.796875,2.9375,0.8125,-0.3125
3.1399999999999553,-2.0,-4.0,-36.0,45.0,-2.0,-1.0,-2.0,-1.0,-0.068115234375,-0.3248291015625,0.91656494140625,0.2230224609375,0.01904296875,-0.64111328125,0.796875,2.9375,0.8125,-0.3125
3.144999999999955,-2.0,-4.0,-36.0,45.0,-2.0,-1.0,-2.0,-1.0,-0.068115234375,-0.3248291015625,0.91656494140625,0.2230224609375,0.01904296875,-0.64111328125,0.796875,2.9375,0.8125,-0.3125
3.149999999999955,1.0,2.0,1.0,-7.0,2.0,-1.0,0.0,0.0,-0.0682373046875,-0.3251953125,0.91644287109375,0.22296142578125,0.013671875,-0.63037109375,0.77880859375,-1.875,-0.125,0.25
3.154999999999955,1.0,2.0,1.0,-7.0,2.0,-1.0,0.0,0.0,-0.0682373046875,-0.3251953125,0.91644287109375,0.22296142578125,0.013671875,-0.63037109375,0.77880859375,-1.875,-0.125,0.25
3.159999999999955,1.0,2.0,1.0,-7.0,2.0,-1.0,0.0,0.0,-0.0682373046875,-0.3251953125,0.91644287109375,0.22296142578125,0.013671875,-0.63037109375,0.77880859375,-1.875,-0.125,0.25
3.1649999999999547,1.0,2.0,-13.0,-6.0,3.0,6.0,2.0,2.0,-0.0682373046875,-0.3251953125,0.91644287109375,0.22296142578125,0.013671875,-0.63037109375,0.77880859375,-1.875,-0.125,0.25
3.1699999999999546,1.0,2.0,-13.0,-6.0,3.0,6.0,2.0,2.0,-0.0682373046875,-0.3251953125,0.91644287109375,0.22296142578125,0.013671875,-0.63037109375,0.77880859375,-1.875,-0.125,0.25
3.1749999999999545,-3.0,-6.0,-11.0,22.0,-3.0,-2.0,-2.0,-3.0,-0.0682373046875,-0.3251953125,0.91644287109375,0.22296142578125,0.013671875,-0.63037109375,0.77880859375,-1.875,-0.125,0.25
3.1799999999999544,-2.0,-2.0,0.0,4.0,1.0,-1.0,-1.0,0.0,-0.06805419921875,-0.32550048828125,0.91644287109375,0.22265625,0.01416015625,-0.6416015625,0.7734375,-0.5625,-2.25,0.6875
3.1849999999999543,-2.0,-2.0,0.0,4.0,1.0,-1.0,-1.0,0.0,-0.06805419921875,-0.32550048828125,0.91644287109375,0.22265625,0.01416015625,-0.6416015625,0.7734375,-0.5625,-2.25,0.6875
3.189999999999954,-2.0,-2.0,0.0,4.0,1.0,-1.0,-1.0,0.0,-0.06805419921875,-0.32550048828125,0.91644287109375,0.22265625,0.01416015625,-0.6416015625,0.7734375,-0.5625,-2.25,0.6875
3.194999999999954,1.0,2.0,31.0,-13.0,-3.0,-2.0,-1.0,-1.0,-0.06805419921875,-0.32550048828125,0.91644287109375,0.22265625,0.01416015625,-0.6416015625,0.7734375,-0.5625,-2.25,0.6875
3.199999999999954,1.0,2.0,31.0,-13.0,-3.0,-2.0,-1.0,-1.0,-0.06805419921875,-0.32550048828125,0.91644287109375,0.22265625,0.01416015625,-0.6416015625,0.7734375,-0.5625,-2.25,0.6875
3.204999999999954,-2.0,-1.0,-20.0,-6.0,-3.0,-4.0,-1.0,-2.0,-0.06787109375,-0.325439453125,0.91650390625,0.22247314453125,0.02197265625,-0.6396484375,0.78857421875,0.6875,-1.375,0.5
3.209999999999954,-2.0,-2.0,6.0,-5.0,-3.0,-3.0,-1.0,0.0,-0.06787109375,-0.325439453125,0.91650390625,0.22247314453125,0.02197265625,-0.6396484375,0.78857421875,0.6875,-1.375,0.5
3.2149999999999537,-2.0,-2.0,6.0,-5.0,-3.0,-3.0,-1.0,0.0,-0.06787109375,-0.325439453125,0.91650390625,0.22247314453125,0.02197265625,-0.6396484375,0.78857421875,0.6875,-1.375,0.5
3.2199999999999536,1.0,-1.0,3.0,17.0,4.0,-1.0,-1.0,-1.0,-0.06787109375,-0.325439453125,0.91650390625,0.22247314453125,0.02197265625,-0.6396484375,0.78857421875,0.6875,-1.375,0.5
3.2249999999999535,0.0,-3.0,-32.0,-9.0,0.0,2.0,2.0,-1.0,-0.06768798828125,-0.324951171875,0.91668701171875,0.2225341796875,0.02001953125,-0.6484375,0.79541015625,3.8125,-0.375,-0.1875
3.2299999999999534,-2.0,-5.0,28.0,15.0,-7.0,-3.0,-5.0,-4.0,-0.06768798828125,-0.324951171875,0.91668701171875,0.2225341796875,0.02001953125,-0.6484375,0.79541015625,3.8125,-0.375,-0.1875
3.2349999999999532,-2.0,-5.0,28.0,15.0,-7.0,-3.0,-5.0,-4.0,-0.06768798828125,-0.324951171875,0.91668701171875,0.2225341796875,0.02001953125,-0.6484375,0.79541015625,3.8125,-0.375,-0.1875
3.239999999999953,-2.0,-5.0,28.0,15.0,-7.0,-3.0,-5.0,-4.0,-0.06768798828125,-0.324951171875,0.91668701171875,0.2225341796875,0.02001953125,-0.6484375,0.79541015625,3.8125,-0.375,-0.1875
3.244999999999953,3.0,2.0,-17.0,-34.0,-3.0,-2.0,-3.0,1.0,-0.06756591796875,-0.32403564453125,0.91693115234375,0.22265625,0.0185546875,-0.62744140625,0.80615234375,4.25,0.375,-0.25
3.249999999999953,3.0,2.0,-17.0,-34.0,-3.0,-2.0,-3.0,1.0,-0.06756591796875,-0.32403564453125,0.91693115234375,0.22265625,0.0185546875,-0.62744140625,0.80615234375,4.25,0.375,-0.25
3.254999999999953,0.0,3.0,-1.0,-12.0,3.0,2.0,1.0,1.0,-0.06756591796875,-0.32403564453125,0.91693115234375,0.22265625,0.0185546875,-0.62744140625,0.80615234375,4.25,0.375,-0.25
3.2599999999999527,0.0,3.0,-1.0,-12.0,3.0,2.0,1.0,1.0,-0.06756591796875,-0.32403564453125,0.91693115234375,0.22265625,0.0185546875,-0.62744140625,0.80615234375,4.25,0.375,-0.25
3.2649999999999526,0.0,-3.0,-20.0,-23.0,0.0,-1.0,0.0,-1.0,-0.0675048828125,-0.32403564453125,0.9169921875,0.22265625,0.02490234375,-0.6181640625,0.80029296875,-0.75,0.3125,-0.125
3.2699999999999525,0.0,-3.0,-20.0,-23.0,0.0,-1.0,0.0,-1.0,-0.0675048828125,-0.32403564453125,0.9169921875,0.22265625,0.02490234375,-0.6181640625,0.80029296875,-0.75,0.3125,-0.125
3.2749999999999524,0.0,-3.0,-20.0,-23.0,0.0,-1.0,0.0,-1.0,-0.0675048828125,-0.32403564453125,0.9169921875,0.22265625,0.02490234375,-0.6181640625,0.80029296875,-0.75,0.3125,-0.125
3.2799999999999523,-5.0,-9.0,-21.0,0.0,-7.0,-3.0,-2.0,-3.0,-0.06756591796875,-0.32470703125,0.916748046875,0.2225341796875,0.0234375,-0.63232421875,0.7978515625,-4.375,-0.75,0.25
3.284999999999952,2.0,1.0,3.0,6.0,2.0,-1.0,1.0,-2.0,-0.06756591796875,-0.32470703125,0.916748046875,0.2225341796875,0.0234375,-0.63232421875,0.7978515625,-4.375,-0.75,0.25
3.289999999999952,2.0,1.0,3.0,6.0,2.0,-1.0,1.0,-2.0,-0.06756591796875,-0.32470703125,0.916748046875,0.2225341796875,0.0234375,-0.63232421875,0.7978515625,-4.375,-0.75,0.25
3.294999999999952,2.0,1.0,3.0,6.0,2.0,-1.0,1.0,-2.0,-0.06756591796875,-0.32470703125,0.916748046875,0.2225341796875,0.0234375,-0.63232421875,0.7978515625,-4.375,-0.75,0.25
3.299999999999952,2.0,1.0,3.0,6.0,2.0,-1.0,1.0,-2.0,-0.06756591796875,-0.32470703125,0.916748046875,0.2225341796875,0.0234375,-0.63232421875,0.7978515625,-4.375,-0.75,0.25
