39.505,0,1,0,8,39,3,2,2
39.51,1,2,1,14,11,5,0,1
39.515,0,3,2,3,18,4,4,4
39.52,1,2,2,4,23,2,1,1
39.525,0,0,2,6,3,7,3,1
39.53,1,3,3,10,3,2,3,1
39.535,1,1,0,5,4,2,2,3
39.54,1,1,3,2,22,3,2,3
39.545,4,2,4,0,9,6,3,2
39.55,2,1,1,4,8,2,2,1
39.555,2,1,2,1,9,2,1,1
39.56,0,2,5,0,4,0,2,1
39.565,3,3,8,18,43,8,4,1
39.57,3,2,4,1,0,1,0,3
39.575,1,1,6,6,11,8,1,2
39.58,1,2,2,5,7,1,1,3
39.585,0,1,1,17,24,3,1,2
39.59,1,1,1,26,38,6,2,0
39.595,0,2,0,2,28,0,0,2
39.6,0,1,1,7,22,0,1,1
39.605,1,1,3,32,51,5,2,1
39.61,2,1,2,10,4,7,6,3
39.615,2,2,1,19,37,3,3,2
39.62,1,2,1,6,30,3,1,0
39.625,0,1,0,21,21,1,1,1
39.63,1,0,1,1,33,0,1,0
39.635,1,0,5,26,11,0,0,2
39.64,1,1,2,26,8,1,2,1
39.645,1,2,0,24,1,6,4,3
39.65,1,1,1,1,19,6,3,0
39.655,1,0,0,4,42,1,1,1
39.66,0,1,8,23,1,5,2,0
39.665,1,0,2,27,15,1,0,2
39.67,1,1,1,4,37,3,2,0
39.675,1,2,4,18,33,8,2,2
39.68,1,1,1,2,44,12,2,2
39.685,2,0,3,12,2,1,1,1
39.69,2,1,2,5,5,5,3,2
39.695,0,0,2,3,2,3,2,1
39.7,3,3,6,26,69,10,4,3
39.705,1,1,2,7,29,5,1,1
39.71,2,2,3,8,8,3,4,0
39.715,0,1,2,4,20,5,1,0
39.72,3,2,2,5,38,2,2,3
39.725,2,1,2,10,21,1,0,2
39.73,1,1,4,3,22,3,0,0
39.735,1,1,1,15,48,3,2,0
39.74,1,1,1,0,10,6,2,2
39.745,2,2,5,14,10,2,1,1
39.75,0,0,2,27,50,4,1,1
39.755,1,2,5,22,48,2,1,1
39.76,2,1,1,14,1,3,3,4
39.765,1,0,2,6,3,2,1,0
39.77,2,1,3,7,23,3,0,1
39.775,1,1,0,2,2,6,0,2
39.78,1,0,0,0,38,7,2,1
39.785,2,2,5,22,5,7,2,1
39.79,1,0,1,31,103,2,1,0
39.795,2,2,0,27,48,2,2,0
39.8,0,2,2,19,15,0,1,3
39.805,1,3,1,19,23,1,1,2
39.81,1,1,1,6,15,1,1,3
39.815,1,1,1,4,8,0,2,2
39.82,2,0,3,4,15,3,0,2
39.825,1,0,4,27,61,1,0,2
39.83,1,3,1,32,83,3,1,1
39.835,0,2,2,19,4,6,0,1
39.84,1,3,1,9,3,6,3,3
39.845,0,0,1,10,11,0,1,2
39.85,0,1,3,5,7,2,0,1
39.855,2,1,3,8,61,3,2,1
39.86,1,4,4,4,10,2,2,2
39.865,1,1,3,13,25,5,4,1
39.87,2,1,1,26,37,3,2,3
39.875,2,2,4,13,60,0,0,2
39.88,0,0,2,11,15,1,1,2
39.885,3,1,2,1,14,0,2,1
39.89,1,2,2,7,13,2,1,3
39.895,1,0,1,6,6,6,0,1
39.9,1,1,1,6,4,3,0,1
39.905,1,0,1,11,5,1,0,2
39.91,1,1,1,16,41,5,1,2
39.915,2,0,5,9,56,4,2,1
39.92,0,2,1,5,16,2,2,2
39.925,0,1,1,9,28,1,1,1
39.93,1,3,2,17,16,1,0,1
39.935,2,1,0,8,10,6,2,3
39.94,1,1,1,1,23,3,0,2
39.945,2,1,2,5,17,4,4,3
39.95,3,2,1,10,31,1,1,2
39.955,2,1,0,13,13,4,0,1
39.96,3,1,1,6,1,0,1,1
39.965,0,2,0,5,17,2,1,1
39.97,3,1,4,14,13,4,4,1
39.975,2,2,1,9,10,1,3,2
39.98,1,1,2,4,30,2,2,1
39.985,0,0,4,7,33,7,0,3
39.99,2,2,4,41,87,13,5,2
39.995,1,2,1,3,27,5,1,2
40,2,1,0,17,6,2,1,1
40.005,1,2,4,38,16,5,1,2
40.01,0,0,1,25,49,3,1,1
40.015,0,0,3,21,22,3,2,2
40.02,1,1,1,5,13,2,0,0
40.025,2,2,2,16,5,0,0,0
40.03,1,2,1,3,2,1,1,1
40.035,0,1,1,3,27,5,0,0
40.04,1,1,1,9,34,1,1,1
40.045,1,1,2,24,54,4,2,1
40.05,3,3,3,10,4,5,4,3
40.055,1,0,1,8,4,2,3,2
40.06,1,2,1,0,1,0,2,4
40.065,0,2,1,14,13,5,1,2
40.07,0,0,0,3,12,7,1,1
40.075,1,1,2,2,2,0,2,1
40.08,2,3,3,3,3,4,2,1
40.085,1,0,1,2,12,0,1,1
40.09,1,1,2,19,24,8,4,1
40.095,1,2,1,12,8,8,2,2
40.1,1,2,1,10,26,3,3,1
40.105,2,1,1,1,2,3,1,2
40.11,1,1,1,5,26,2,0,1
40.115,3,2,2,15,14,2,1,1
40.12,0,0,3,1,24,1,1,3
40.125,1,1,1,11,27,3,0,1
40.13,1,1,2,22,8,1,2,3
40.135,0,0,2,2,3,6,1,1
40.14,1,3,1,2,5,0,0,2
40.145,2,0,3,10,7,1,2,2
40.15,0,1,1,5,1,4,2,1
40.155,1,1,0,2,3,2,1,1
40.16,0,0,2,16,41,0,2,2
40.165,1,1,4,25,62,3,1,1
40.17,2,1,2,7,1,8,1,2
40.175,1,2,2,2,13,7,1,0
40.18,0,1,2,3,7,4,1,1
40.185,1,1,0,8,7,6,1,1
40.19,0,0,0,1,12,0,0,2
40.195,3,3,6,22,1,6,5,3
40.2,2,0,2,2,5,4,6,1
40.205,0,0,3,5,1,3,3,2
40.21,1,1,1,14,20,1,0,0
40.215,0,0,2,14,10,1,1,2
40.22,2,2,4,17,24,3,1,2
40.225,2,3,0,8,26,3,2,0
40.23,2,1,2,3,21,0,1,1
40.235,2,2,1,0,2,3,2,0
40.24,0,0,1,4,16,0,1,1
40.245,0,0,0,9,2,2,3,2
40.25,1,2,6,2,6,0,4,4
40.255,0,0,3,3,8,0,2,3
40.26,0,0,2,10,16,1,1,1
40.265,2,3,0,1,30,3,2,2
40.27,2,2,0,1,10,5,4,3
40.275,0,2,5,3,16,1,1,3
40.28,2,1,1,7,12,7,4,1
40.285,0,3,4,4,5,4,0,0
40.29,0,1,3,8,17,1,3,1
40.295,3,10,1,3,27,4,1,1
40.3,0,2,10,37,65,4,0,0
40.305,0,1,1,3,17,1,0,1
40.31,2,0,3,18,11,4,2,2
40.315,0,2,1,11,9,1,0,3
40.32,3,2,2,3,20,2,3,2
40.325,2,1,2,3,15,6,1,3
40.33,1,2,4,8,34,2,0,0
40.335,2,1,3,8,29,0,1,0
40.34,1,2,1,19,35,2,1,1
40.345,1,2,5,30,38,0,1,2
40.35,1,2,2,2,5,1,1,0
40.355,1,0,1,4,18,3,3,1
40.36,0,1,0,2,17,2,1,1
40.365,2,1,2,14,52,11,3,0
40.37,0,4,6,2,33,5,0,1
40.375,1,0,8,8,2,1,2,1
40.38,2,2,2,11,10,0,1,0
40.385,2,1,1,10,0,3,1,3
40.39,2,4,2,3,3,2,1,0
40.395,1,6,18,8,13,2,1,1
40.4,3,16,17,18,77,3,0,1
40.405,2,7,26,11,86,2,4,3
40.41,0,19,12,13,43,17,4,3
40.415,6,20,19,18,46,9,2,3
40.42,1,16,8,21,3,7,3,1
40.425,7,30,52,13,3,6,5,5
40.43,1,7,10,11,16,12,6,2
40.435,11,16,52,10,14,13,11,8
40.44,2,7,80,7,21,4,0,2
40.445,0,6,52,3,51,15,6,1
40.45,12,39,108,25,104,6,3,5
40.455,10,2,29,13,36,23,7,4
40.46,18,3,108,2,41,26,7,6
40.465,22,26,59,2,47,0,3,1
40.47,29,30,94,28,28,6,4,10
40.475,47,37,73,5,23,1,11,4
40.48,37,62,52,3,74,2,0,3
40.485,86,15,1,7,46,10,9,6
40.49,96,27,96,2,78,4,5,18
40.495,75,23,75,9,17,12,1,16
40.5,68,20,93,15,27,29,17,2
40.505,23,26,101,36,39,24,28,31
40.51,50,25,44,58,66,1,1,4
40.515,60,40,85,55,20,10,6,1
40.52,33,15,55,46,7,7,9,12
40.525,39,47,32,39,53,3,15,2
40.53,127,18,53,12,98,33,10,24
40.535,128,91,124,23,104,10,12,12
40.54,83,45,100,30,31,18,1,2
40.545,74,10,108,28,17,15,3,3
40.55,5,27,6,55,44,3,2,2
40.555,27,10,65,12,54,37,7,5
40.56,3,0,58,38,54,26,0,1
40.565,21,14,9,42,8,36,1,3
40.57,32,70,128,92,50,19,1,1
40.575,39,35,28,21,45,4,0,2
40.58,12,33,90,25,30,3,8,9
40.585,35,11,60,6,39,0,12,8
40.59,19,9,57,49,59,24,4,1
40.595,6,21,115,62,3,0,3,4
40.6,18,12,20,12,17,27,6,7
40.605,1,25,25,36,27,5,9,2
40.61,27,16,21,43,4,8,5,6
40.615,55,42,54,23,31,14,12,13
40.62,13,67,44,41,36,5,5,4
40.625,6,0,37,20,29,32,11,1
40.63,19,33,60,29,5,16,7,6
40.635,16,4,48,17,4,1,0,2
40.64,32,7,2,15,14,19,6,6
40.645,2,4,34,15,34,7,1,1
40.65,10,5,73,16,29,13,2,0
40.655,32,11,82,23,2,10,0,9
40.66,1,5,22,26,16,6,1,4
40.665,11,15,90,14,20,4,1,1
40.67,9,5,3,23,20,10,0,3
40.675,19,2,78,10,20,2,1,3
40.68,0,19,100,4,27,4,3,1
40.685,11,11,46,4,0,2,3,4
40.69,8,4,13,16,8,12,0,4
40.695,2,21,38,11,16,2,0,1
40.7,6,1,21,4,4,2,2,1
40.705,7,18,80,4,6,2,0,1
40.71,3,7,59,4,10,4,1,0
40.715,4,17,31,12,16,5,0,1
40.72,4,15,41,11,13,8,2,0
40.725,13,6,10,7,7,7,2,3
40.73,1,2,30,11,13,4,3,3
40.735,5,2,24,9,3,6,2,2
40.74,0,1,9,8,19,6,3,2
40.745,13,4,18,2,8,3,2,0
40.75,3,3,7,10,5,1,4,6
40.755,11,4,11,3,7,2,2,2
40.76,1,1,5,1,10,2,3,2
40.765,8,7,1,29,15,4,1,2
40.77,4,2,1,30,25,10,4,2
40.775,0,2,30,28,103,8,0,1
40.78,5,3,11,26,49,3,4,2
40.785,7,2,1,0,89,3,0,3
40.79,4,0,6,83,65,5,9,13
40.795,1,12,18,75,50,12,8,12
40.8,8,4,14,83,17,0,0,15
40.805,11,17,2,29,34,8,5,33
40.81,8,5,1,12,12,3,3,1
40.815,6,2,1,59,52,6,2,8
40.82,3,13,7,22,45,4,1,41
40.825,19,7,7,47,122,7,2,14
40.83,45,2,2,5,108,5,4,83
40.835,42,52,10,59,110,4,6,76
40.84,3,18,7,62,5,17,0,98
40.845,13,35,13,56,36,4,11,64
40.85,15,23,5,63,56,3,4,3
40.855,56,28,8,39,49,3,4,21
40.86,11,2,6,5,12,3,9,27
40.865,23,23,3,46,72,13,13,68
40.87,17,6,2,12,36,7,2,3
40.875,4,32,3,51,98,16,0,6
40.88,1,22,5,72,121,14,4,16
40.885,3,10,13,58,26,8,3,10
40.89,4,4,2,14,59,3,4,36
40.895,7,3,0,21,9,5,1,17
40.9,7,1,0,4,9,2,2,8
40.905,3,0,4,6,15,9,6,10
40.91,8,6,8,15,49,3,6,21
40.915,4,11,1,33,29,13,7,15
40.92,2,0,8,14,33,6,4,2
40.925,2,10,7,24,14,3,3,11
40.93,6,11,1,5,31,0,2,14
40.935,1,9,1,4,16,4,5,21
40.94,1,4,2,29,25,3,1,13
40.945,7,8,1,13,72,5,4,12
40.95,4,0,1,16,79,4,1,0
40.955,0,7,7,30,59,5,1,3
40.96,3,2,1,14,22,4,1,7
40.965,3,0,1,17,8,2,2,0
40.97,3,1,1,1,17,2,3,4
40.975,3,8,6,34,2,1,3,2
40.98,0,5,1,8,32,5,1,1
40.985,0,3,2,4,8,9,0,1
40.99,1,0,1,10,27,8,4,10
40.995,3,2,4,11,9,1,1,2
41,2,1,1,16,47,6,3,1
41.005,1,2,1,5,12,9,2,3
41.01,4,1,2,21,4,10,4,5
41.015,2,3,3,6,29,2,1,3
41.02,2,3,1,6,30,2,0,1
41.025,0,0,0,5,24,4,1,3
41.03,2,4,0,7,17,5,3,4
41.035,1,3,1,5,1,7,3,1
41.04,1,2,0,4,1,2,2,3
41.045,3,2,2,4,13,1,1,2
41.05,2,2,0,3,1,5,2,0
41.055,1,1,2,0,19,2,2,1
41.06,2,1,1,0,41,6,0,2
41.065,1,0,3,25,33,16,4,3
41.07,3,2,2,6,3,13,1,1
41.075,2,4,0,1,6,4,0,1
41.08,2,1,1,6,24,1,2,2
41.085,1,0,0,15,37,5,0,2
41.09,1,0,1,5,3,1,0,2
41.095,2,1,3,16,7,7,3,1
41.1,1,0,1,3,8,3,2,2
41.105,2,3,1,5,4,6,1,4
41.11,2,3,1,1,35,2,2,2
41.115,0,2,3,13,61,7,3,1
41.12,1,1,0,3,0,3,0,2
41.125,2,2,2,4,1,0,3,4
41.13,1,0,0,1,11,5,1,3
41.135,3,1,0,1,14,0,0,1
41.14,1,1,1,0,11,6,5,3
41.145,1,1,1,1,10,10,1,2
41.15,0,2,1,1,11,4,1,2
41.155,2,3,4,24,29,7,2,3
41.16,2,2,1,5,5,1,0,2
41.165,1,0,2,11,21,1,1,0
41.17,1,0,1,8,1,0,0,2
41.175,0,1,2,17,5,1,0,3
41.18,1,1,2,13,13,1,1,1
41.185,2,2,2,2,26,6,3,0
41.19,2,2,0,2,28,0,2,1
41.195,1,1,2,1,24,0,1,1
41.2,2,0,2,19,16,5,2,1
41.205,2,2,2,23,3,4,0,0
41.21,2,1,1,4,29,7,3,3
41.215,2,2,3,6,25,3,2,1
41.22,1,1,0,2,27,3,3,2
41.225,2,1,1,14,1,6,0,0
41.23,0,1,4,22,12,2,1,1
41.235,1,1,1,0,0,3,2,4
41.24,3,1,3,2,9,0,3,0
41.245,0,1,1,12,23,1,0,2
41.25,1,1,4,20,42,5,2,1
41.255,0,2,0,10,3,1,3,0
41.26,2,3,2,5,0,3,0,1
41.265,1,0,0,6,4,1,1,2
41.27,1,0,1,0,18,0,1,2
41.275,2,1,1,19,21,2,2,1
41.28,1,2,4,15,48,3,1,1
41.285,2,2,0,0,3,4,2,1
41.29,3,2,1,6,12,0,0,1
41.295,2,0,1,1,5,1,4,3
41.3,1,2,1,3,8,2,2,0
41.305,2,1,0,4,1,1,2,1
41.31,1,0,3,23,14,1,1,1
41.315,2,1,1,2,33,6,2,1
41.32,1,0,1,11,8,3,1,1
41.325,0,1,3,7,29,3,1,1
41.33,1,1,1,14,36,1,1,0
41.335,0,1,3,14,48,2,1,0
41.34,1,1,2,9,12,0,1,1
41.345,3,3,3,4,16,6,3,1
41.35,1,1,0,7,13,7,2,0
41.355,1,1,1,0,12,0,1,2
41.36,1,2,1,7,4,2,1,1
41.365,1,1,0,4,19,1,2,2
41.37,0,2,2,5,27,11,3,0
41.375,0,2,2,7,11,2,0,0
41.38,1,1,0,8,4,1,1,0
41.385,1,1,2,5,18,2,0,1
41.39,1,1,0,5,38,0,2,1
41.395,1,1,2,0,22,3,2,2
41.4,1,2,2,8,18,7,0,1
41.405,2,2,2,21,37,4,3,3
41.41,1,2,0,1,7,1,1,2
41.415,1,2,0,5,6,3,1,0
41.42,2,1,2,21,56,1,1,1
41.425,2,4,3,25,76,6,3,2
41.43,1,2,0,3,20,2,1,0
41.435,2,2,3,6,62,2,3,3
41.44,1,1,2,5,22,3,1,1
41.445,0,2,0,4,18,4,0,1
41.45,2,2,0,3,2,3,2,1
41.455,0,2,0,7,6,4,2,2
41.46,3,1,1,2,25,4,2,2
41.465,0,0,0,2,29,0,0,0
41.47,0,1,0,10,10,0,1,0
41.475,1,1,3,29,36,1,1,1
41.48,3,3,2,7,4,4,3,3
41.485,1,0,3,6,16,4,2,2
41.49,1,0,1,1,15,1,2,1
41.495,0,2,2,10,8,0,1,0
41.5,1,1,1,9,18,1,1,1
41.505,1,2,1,3,16,3,1,1
41.51,2,1,0,2,14,4,4,2
41.515,1,1,2,3,6,2,1,1
41.52,1,2,2,1,54,9,2,3
41.525,0,1,2,12,23,4,0,2
41.53,1,2,4,19,8,4,0,1
41.535,1,1,1,8,0,0,1,1
41.54,0,2,1,2,29,1,0,2
41.545,1,1,2,9,14,1,0,0
41.55,1,0,1,1,11,3,1,2
41.555,2,1,6,2,1,4,4,2
41.56,1,0,1,3,2,11,1,1
41.565,0,2,0,3,11,0,1,1
41.57,0,4,2,4,32,0,1,0
41.575,2,1,2,25,66,7,3,2
41.58,2,0,2,1,7,4,0,1
41.585,2,1,2,9,26,0,2,2
41.59,1,2,2,9,41,1,2,2
41.595,1,0,1,1,11,0,0,0
41.6,1,1,3,13,19,4,2,1
41.605,2,2,1,14,36,1,0,0
41.61,1,2,2,1,23,6,2,4
41.615,1,0,1,11,9,5,2,1
41.62,1,2,0,18,32,2,0,0
41.625,1,1,4,9,20,3,0,1
41.63,2,0,1,1,21,4,2,1
41.635,2,2,1,2,34,1,2,3
41.64,0,2,1,19,63,2,2,3
41.645,1,1,4,16,63,4,3,1
41.65,2,3,3,22,3,3,2,1
41.655,2,2,0,5,13,1,1,0
41.66,1,1,1,7,12,3,1,1
41.665,2,3,2,10,12,6,2,1
41.67,0,1,1,10,11,0,0,1
41.675,1,2,4,17,11,3,2,2
41.68,2,1,4,19,53,8,1,1
41.685,1,1,2,6,2,2,1,2
41.69,2,1,1,2,1,3,0,1
41.695,0,2,2,11,30,1,1,2
41.7,1,1,0,4,2,0,2,1
41.705,1,2,2,1,12,2,0,2
41.71,3,1,1,4,21,3,4,3
41.715,1,1,2,12,2,0,2,1
41.72,1,2,3,4,45,5,2,2
41.725,2,2,1,40,68,7,1,1
41.73,1,1,1,16,22,4,1,2
41.735,1,2,4,5,32,1,1,0
41.74,3,0,1,9,3,0,2,5
41.745,4,1,1,15,38,3,1,1
41.75,1,0,2,1,3,0,0,2
41.755,1,1,3,0,29,1,1,2
41.76,0,1,3,2,18,8,2,1
41.765,2,2,1,3,6,1,0,3
41.77,0,2,4,15,23,4,3,2
41.775,2,1,0,4,40,1,1,0
41.78,2,3,1,3,0,10,3,1
41.785,2,1,0,2,4,5,1,0
41.79,1,1,0,5,1,0,2,2
41.795,2,1,4,4,72,3,1,1
41.8,2,2,3,19,68,1,2,2
41.805,2,1,1,5,4,4,4,2
41.81,1,1,1,0,22,0,0,0
41.815,0,2,4,7,14,5,2,0
41.82,1,0,2,21,14,7,1,2
41.825,1,4,7,11,13,6,1,3
41.83,2,1,1,16,15,0,3,1
41.835,3,2,1,20,47,6,5,2
41.84,1,1,2,31,91,3,1,0
41.845,1,2,9,3,14,2,1,0
41.85,0,2,11,8,14,4,2,1
41.855,2,2,2,22,2,1,0,0
41.86,3,3,8,18,34,2,0,2
41.865,2,6,7,6,28,1,1,5
41.87,1,26,4,5,58,9,3,0
41.875,4,14,8,2,13,3,9,7
41.88,1,27,1,16,8,6,0,2
41.885,14,18,45,6,20,3,4,7
41.89,5,20,29,10,14,5,4,0
41.895,3,57,92,7,40,23,0,6
41.9,39,32,17,20,60,25,2,7
41.905,24,2,8,21,15,1,5,6
41.91,57,21,87,12,14,2,5,21
41.915,14,6,68,18,41,29,21,23
41.92,68,57,6,13,3,35,7,6
41.925,41,83,115,17,70,2,16,15
41.93,79,98,46,48,16,23,13,13
41.935,3,43,93,6,98,19,4,6
41.94,107,51,25,10,39,25,7,27
41.945,128,14,111,38,46,29,1,35
41.95,94,69,121,11,64,23,13,4
41.955,66,85,69,13,45,15,28,9
41.96,28,49,2,20,77,27,12,11
41.965,101,54,19,7,23,24,3,13
41.97,27,101,127,18,11,16,6,11
41.975,81,119,79,6,30,54,13,5
41.98,5,48,33,0,46,34,28,26
41.985,103,46,49,6,48,44,15,19
41.99,68,27,11,38,63,60,20,4
41.995,30,60,77,55,8,15,4,7
42,8,32,57,12,54,28,9,7
42.005,7,54,78,21,40,12,2,7
42.01,14,75,83,50,1,20,3,2
42.015,27,2,70,29,22,6,3,4
42.02,6,23,1,48,28,3,7,12
42.025,12,28,15,11,8,26,5,4
42.03,16,4,55,18,11,8,1,3
42.035,40,9,8,34,2,5,2,10
42.04,28,13,52,5,8,15,3,9
42.045,13,6,27,3,21,10,0,5
42.05,17,1,7,11,10,0,3,1
42.055,6,2,22,8,29,7,1,1
42.06,18,8,29,6,7,12,4,8
42.065,40,20,19,23,29,7,0,10
42.07,32,15,20,19,14,12,7,10
42.075,29,19,35,23,3,15,3,2
42.08,20,6,21,27,20,1,3,1
42.085,18,5,41,8,6,0,1,4
42.09,30,0,43,9,6,18,2,2
42.095,12,7,23,39,9,10,3,1
42.1,10,6,12,23,6,2,2,1
42.105,11,15,15,1,17,5,1,1
42.11,20,5,16,11,10,7,4,2
42.115,14,2,9,8,26,7,1,2
42.12,1,6,0,17,6,16,5,2
42.125,10,1,9,13,1,1,4,3
42.13,1,1,2,6,21,8,3,2
42.135,7,2,3,3,19,3,4,1
42.14,9,2,11,8,29,12,6,5
42.145,3,1,6,14,43,3,2,0
42.15,4,3,1,40,23,7,1,0
42.155,2,4,4,18,8,0,0,1
42.16,2,2,8,3,12,2,4,3
42.165,4,2,6,5,3,1,1,1
42.17,4,3,3,21,2,3,1,1
42.175,2,1,1,13,0,6,3,0
42.18,4,2,4,10,3,5,4,3
42.185,2,1,7,7,29,6,4,1
42.19,7,1,4,24,20,4,2,3
42.195,2,2,0,2,39,11,5,1
42.2,0,1,2,6,19,3,2,2
42.205,1,6,5,18,44,2,2,3
42.21,8,0,6,34,66,5,0,3
42.215,7,2,5,30,26,14,6,1
42.22,9,19,11,45,2,11,6,7
42.225,0,5,3,6,21,3,1,3
42.23,7,7,6,38,54,2,1,1
42.235,2,1,6,49,109,5,1,0
42.24,3,3,5,40,92,14,3,1
42.245,6,5,5,19,32,6,4,7
42.25,0,55,10,72,96,13,0,36
42.255,12,33,19,98,97,20,1,46
42.26,15,13,11,28,109,6,2,2
42.265,2,7,9,21,50,4,8,27
42.27,13,10,3,58,67,7,1,24
42.275,26,42,2,5,43,9,5,5
42.28,17,18,1,7,95,0,1,8
42.285,26,9,7,14,27,2,1,2
42.29,22,33,7,21,54,4,4,7
42.295,3,18,4,20,31,2,4,15
42.3,11,50,9,45,60,7,1,6
42.305,17,5,12,36,110,18,8,1
42.31,16,9,13,30,68,17,6,7
42.315,4,4,1,3,67,0,2,2
42.32,3,4,11,69,109,7,1,6
42.325,1,6,3,30,12,5,1,5
42.33,4,9,9,11,5,14,4,3
42.335,7,9,6,21,17,4,2,4
42.34,6,3,4,6,42,8,5,9
42.345,5,1,0,6,0,6,2,12
42.35,3,13,1,28,83,8,0,2
42.355,5,13,3,34,84,11,2,13
42.36,1,6,2,6,10,1,4,3
42.365,0,1,0,5,3,4,1,5
42.37,1,4,2,6,13,3,2,4
42.375,2,2,1,1,44,5,1,5
42.38,2,0,1,25,25,4,2,3
42.385,2,9,2,17,19,2,0,4
42.39,5,2,3,8,93,4,3,4
42.395,3,8,10,8,27,10,6,8
42.4,4,4,2,22,66,6,3,2
42.405,0,1,2,1,56,0,2,1
42.41,1,2,5,31,126,10,3,3
42.415,1,3,4,22,29,4,1,2
42.42,0,1,1,11,22,4,0,2
42.425,0,0,2,5,15,1,1,1
42.43,1,3,2,13,19,2,1,1
42.435,1,1,0,9,5,0,4,5
42.44,1,2,2,19,9,2,1,0
42.445,2,4,3,23,45,0,2,2
42.45,1,2,2,5,19,1,3,2
42.455,0,4,3,27,36,7,2,3
42.46,3,1,2,12,22,3,1,1
42.465,3,2,4,4,12,6,6,2
42.47,0,2,2,17,37,3,0,1
42.475,0,2,2,14,42,3,1,1
42.48,2,2,2,3,36,1,0,0
42.485,2,3,3,13,54,7,4,2
42.49,1,2,2,9,24,4,3,3
42.495,1,1,1,5,44,6,0,0
42.5,1,1,3,16,1,2,0,0
42.505,0,0,2,12,35,7,1,3
42.51,1,1,2,19,16,4,1,2
42.515,3,4,7,27,21,6,4,1
42.52,1,0,1,10,18,8,1,1
42.525,1,1,2,4,31,1,1,1
42.53,2,4,4,15,15,1,1,1
42.535,1,0,1,1,1,3,0,1
42.54,1,1,2,3,24,5,1,1
42.545,0,3,4,4,11,5,1,1
42.55,1,1,1,20,21,3,5,1
42.555,1,1,0,16,30,3,3,2
42.56,0,4,3,14,1,3,3,1
42.565,1,0,1,2,16,1,1,2
42.57,3,2,4,2,3,4,3,1
42.575,0,1,2,8,9,1,2,2
42.58,1,1,1,7,7,2,2,2
42.585,1,0,2,6,5,5,3,1
42.59,0,3,6,5,29,3,1,0
42.595,1,1,1,3,43,4,1,3
42.6,3,0,3,24,66,10,3,2
42.605,2,1,0,10,31,4,1,3
42.61,3,2,1,13,31,7,6,2
42.615,1,1,3,13,31,6,2,1
42.62,1,1,4,7,5,1,1,2
42.625,1,2,2,1,9,1,0,1
42.63,1,0,1,3,6,8,2,1
42.635,0,2,0,6,9,4,0,1
42.64,1,2,0,15,25,3,1,2
42.645,0,0,1,4,7,3,2,2
42.65,1,2,1,3,9,3,3,2
42.655,0,0,0,3,8,5,0,0
42.66,2,2,2,1,14,4,2,1
42.665,2,3,3,1,5,4,1,3
42.67,1,0,3,11,1,8,3,2
42.675,1,3,4,25,11,6,4,3
42.68,1,1,0,17,28,6,2,1
42.685,2,2,1,7,69,5,2,1
42.69,2,2,1,8,16,2,1,0
42.695,1,1,1,19,38,2,1,1
42.7,3,0,2,3,27,3,2,2
42.705,2,3,1,10,9,2,1,2
42.71,2,0,2,0,5,2,0,1
42.715,1,2,1,7,14,6,0,0
42.72,1,1,0,6,16,2,0,0
42.725,1,0,1,15,9,1,1,1
42.73,0,1,3,6,24,1,2,1
42.735,1,3,0,6,7,6,4,2
42.74,2,2,4,6,10,0,6,1
42.745,0,0,1,1,4,1,2,1
42.75,0,4,3,8,32,4,0,1
42.755,1,1,3,2,8,4,2,0
42.76,2,0,2,13,6,7,4,4
42.765,1,2,0,7,22,3,0,1
42.77,2,7,17,9,37,7,1,1
42.775,1,7,6,22,36,3,3,3
42.78,1,7,16,4,3,6,0,0
42.785,4,25,24,7,5,3,2,1
42.79,3,11,10,5,27,7,3,3
42.795,1,5,12,4,15,16,4,1
42.8,2,19,10,14,13,0,3,1
42.805,7,41,9,8,52,5,1,1
42.81,10,18,39,1,42,0,3,5
42.815,3,14,83,3,1,9,6,3
42.82,2,1,76,17,78,22,9,4
42.825,1,39,107,4,19,1,0,1
42.83,5,11,40,12,85,2,2,2
42.835,8,7,78,1,1,25,15,6
42.84,8,59,48,19,7,18,7,2
42.845,21,24,112,39,20,21,3,1
42.85,1,25,87,5,77,9,3,0
42.855,28,95,75,65,106,4,16,14
42.86,18,97,84,42,63,14,10,6
42.865,70,34,78,24,4,36,8,20
42.87,59,33,105,1,74,37,12,11
42.875,40,33,127,26,49,17,1,2
42.88,95,54,10,22,68,40,6,17
42.885,20,26,123,8,53,0,11,6
42.89,17,22,18,39,75,33,15,3
42.895,47,20,64,16,60,5,19,12
42.9,42,45,15,3,8,46,17,15
42.905,2,41,71,2,20,20,12,4
42.91,2,39,19,11,34,9,11,0
42.915,11,32,127,9,6,12,5,6
42.92,4,29,81,11,4,56,18,1
42.925,4,20,71,66,35,26,0,5
42.93,26,19,39,35,22,18,0,3
42.935,10,19,58,5,39,5,0,3
42.94,22,37,128,30,49,20,1,1
42.945,6,7,47,25,19,3,5,3
42.95,9,24,50,9,43,3,4,2
42.955,25,19,5,25,29,4,7,3
42.96,15,11,25,35,73,0,3,3
42.965,14,1,35,29,18,17,5,3
42.97,27,7,75,18,34,15,8,7
42.975,31,11,37,2,2,1,0,5
42.98,8,17,50,1,15,1,2,0
42.985,8,1,53,17,4,2,5,7
42.99,24,3,17,10,7,14,4,4
42.995,19,15,51,16,37,18,3,3
43,9,10,3,14,26,9,0,0
43.005,17,22,20,10,2,1,4,4
43.01,0,46,27,10,3,3,4,2
43.015,5,6,31,5,4,6,4,4
43.02,6,15,80,3,22,23,5,2
43.025,4,9,24,3,9,21,2,2
43.03,5,14,39,2,6,5,6,2
43.035,10,3,41,9,3,2,5,5
43.04,1,2,0,8,19,13,1,2
43.045,3,4,8,11,11,3,3,1
43.05,7,10,1,1,6,7,3,4
43.055,6,4,20,6,9,3,1,2
43.06,3,4,39,4,11,2,3,0
43.065,3,5,19,3,12,4,1,3
43.07,1,3,18,2,4,14,3,1
43.075,1,0,4,15,32,9,1,0
43.08,1,1,5,2,14,4,1,1
43.085,0,0,11,20,24,6,0,1
43.09,1,2,9,3,2,5,0,2
43.095,4,3,5,19,18,1,2,1
43.1,5,1,9,22,0,6,4,3
43.105,1,3,11,43,13,3,2,1
43.11,1,1,4,11,42,1,2,6
43.115,5,2,11,9,26,8,4,3
43.12,10,0,13,19,10,2,0,6
43.125,15,12,6,0,63,12,1,12
43.13,25,1,14,24,6,1,1,29
43.135,28,3,9,16,20,9,6,16
43.14,7,20,11,9,22,7,1,2
43.145,4,12,7,20,41,2,4,24
43.15,12,8,0,5,40,2,7,12
43.155,15,23,8,9,54,4,3,6
43.16,4,14,10,40,32,5,1,3
43.165,15,8,7,31,52,8,1,1
43.17,8,7,3,0,92,10,2,9
43.175,15,8,1,10,58,2,1,9
43.18,10,10,4,12,31,11,3,10
43.185,7,7,2,41,60,1,0,9
43.19,7,6,7,37,67,2,1,1
43.195,4,6,1,3,17,0,1,2
43.2,9,9,10,33,86,5,0,2
43.205,8,5,4,7,16,1,0,3
43.21,7,8,2,3,12,5,3,1
43.215,6,14,4,16,38,7,3,4
43.22,2,1,1,3,2,7,2,5
43.225,5,6,2,2,18,9,2,8
43.23,3,18,2,8,20,0,3,14
43.235,6,7,2,14,39,1,1,3
43.24,2,6,9,14,13,10,3,1
43.245,7,4,4,37,48,4,0,0
43.25,1,5,0,11,4,1,2,7
43.255,1,1,5,15,22,4,0,4
43.26,3,0,3,12,8,1,2,0
43.265,7,0,1,29,106,5,0,2
43.27,6,0,2,3,68,2,1,0
43.275,4,1,1,8,49,3,4,3
43.28,5,5,4,17,50,3,1,2
43.285,1,4,4,12,22,2,1,0
43.29,2,1,1,5,20,2,3,4
43.295,2,4,2,12,2,5,5,1
43.3,3,8,5,3,6,6,1,2
43.305,0,7,1,14,2,5,0,1
43.31,3,0,2,3,25,14,6,6
43.315,4,5,1,5,55,6,1,1
43.32,1,2,3,2,8,3,1,1
43.325,1,2,2,20,5,1,1,1
43.33,1,1,2,1,38,2,1,4
43.335,1,1,2,5,69,0,2,4
43.34,0,1,2,2,6,8,3,1
43.345,1,4,0,12,4,3,1,0
43.35,1,1,0,0,12,1,1,1
43.355,2,1,3,34,4,1,0,1
43.36,2,1,7,25,4,5,1,2
43.365,3,3,1,4,22,2,0,0
43.37,1,1,2,3,26,1,1,1
43.375,3,4,4,0,49,3,4,3
43.38,1,1,1,4,3,2,2,1
43.385,1,3,0,5,6,1,0,0
43.39,1,1,4,1,3,9,2,2
43.395,4,0,1,15,30,4,2,0
43.4,0,2,2,2,24,3,3,1
43.405,3,3,1,7,6,16,4,3
43.41,2,1,2,15,69,2,1,0
43.415,2,2,4,9,29,1,2,2
43.42,0,1,0,6,26,2,2,0
43.425,0,0,1,5,77,2,2,1
43.43,1,0,1,18,65,3,3,4
43.435,3,3,5,8,33,9,2,2
43.44,1,1,0,8,4,4,1,0
43.445,2,1,2,3,15,4,2,0
43.45,1,1,2,3,6,0,2,1
43.455,0,3,1,2,8,4,1,1
43.46,2,1,2,13,8,2,2,4
43.465,2,1,3,9,44,0,2,2
43.47,1,1,5,1,15,0,1,2
43.475,1,0,1,2,48,2,2,0
43.48,0,0,4,1,28,6,1,1
43.485,1,0,2,3,4,2,3,0
43.49,1,1,1,6,38,6,1,1
43.495,2,2,2,7,56,1,2,0
43.5,1,1,3,31,40,5,2,4
43.505,1,0,1,3,3,6,4,3
43.51,0,2,2,5,9,2,1,1
43.515,1,1,2,6,10,8,3,0
43.52,1,1,1,20,22,2,0,0
43.525,1,0,0,6,13,7,4,1
43.53,1,1,2,5,1,4,2,0
43.535,3,0,5,2,12,2,4,3
43.54,2,0,2,8,29,4,1,2
43.545,2,1,2,6,12,2,1,3
43.55,0,0,2,2,4,8,3,1
43.555,1,2,1,4,5,1,2,0
43.56,0,1,2,6,21,1,1,0
43.565,2,0,1,7,1,0,1,0
43.57,3,4,1,12,0,0,5,3
43.575,0,2,1,1,42,6,4,1
43.58,1,1,2,1,25,0,1,0
43.585,0,1,2,27,3,3,2,1
43.59,0,1,1,3,2,5,1,1
43.595,1,1,2,4,32,2,2,2
43.6,2,2,2,2,35,4,3,2
43.605,0,1,1,22,21,2,0,0
43.61,1,0,3,15,28,0,1,1
43.615,1,1,2,7,14,2,3,2
43.62,2,2,1,8,8,6,1,3
43.625,1,1,0,1,0,2,1,2
43.63,2,2,3,4,3,4,1,2
43.635,1,1,2,10,6,5,1,2
43.64,2,1,4,7,14,1,2,1
43.645,2,0,0,6,1,1,0,1
43.65,2,2,1,2,8,0,2,3
43.655,1,0,1,12,22,3,2,1
43.66,1,1,0,4,26,4,1,1
43.665,1,2,2,14,16,4,2,2
43.67,1,0,2,10,13,0,0,1
43.675,2,0,2,11,1,8,3,2
43.68,1,0,1,17,12,8,2,0
43.685,0,2,4,6,2,1,1,0
43.69,2,0,1,14,26,0,1,0
43.695,2,2,3,7,9,8,4,4
43.7,2,1,2,2,5,6,2,1
43.705,4,1,6,2,6,5,3,1
43.71,3,4,3,1,32,8,0,1
43.715,1,8,9,1,6,2,1,2
43.72,3,1,2,2,12,8,3,2
43.725,2,10,12,0,20,3,4,1
43.73,5,2,3,6,31,13,7,4
43.735,4,7,2,7,45,6,1,0
43.74,7,5,0,5,8,0,0,1
43.745,17,21,26,0,8,2,1,2
43.75,25,3,25,38,14,10,0,6
43.755,31,10,5,28,9,11,7,10
43.76,4,2,16,0,25,6,2,0
43.765,32,2,85,10,25,28,11,5
43.77,58,49,87,19,51,18,13,11
43.775,33,45,58,25,14,19,3,7
43.78,86,35,45,42,2,0,13,21
43.785,63,47,24,32,22,29,19,15
43.79,76,22,93,12,45,0,6,17
43.795,105,17,76,44,51,18,7,5
43.8,77,43,110,21,25,60,11,15
43.805,91,57,12,6,42,86,17,3
43.81,31,46,60,24,21,17,16,8
43.815,70,52,100,50,14,0,9,15
43.82,58,54,92,11,20,8,11,19
43.825,122,92,88,64,20,33,24,49
43.83,61,67,90,24,25,13,7,13
43.835,65,26,54,32,21,4,4,9
43.84,109,25,63,61,28,3,2,20
43.845,21,6,62,64,6,10,4,10
43.85,48,5,10,9,19,3,3,6
43.855,66,14,102,27,26,8,5,10
43.86,1,26,23,4,17,7,1,3
43.865,3,28,22,12,25,16,3,2
43.87,65,27,23,10,8,18,13,17
43.875,7,7,27,49,13,5,7,0
43.88,19,22,18,4,5,20,8,4
43.885,33,34,44,5,8,25,6,1
43.89,5,8,20,4,9,6,6,1
43.895,52,11,20,0,5,6,1,4
43.9,34,10,15,4,1,7,2,5
43.905,6,17,20,26,42,25,6,2
43.91,23,6,10,1,10,6,1,2
43.915,31,10,31,2,6,4,0,0
43.92,27,16,12,6,0,2,6,6
43.925,5,3,5,6,16,18,2,1
43.93,10,7,9,1,0,3,1,1
43.935,16,11,18,4,17,8,1,1
43.94,1,7,5,9,16,4,3,5
43.945,42,5,3,17,5,12,1,5
43.95,15,9,2,10,4,0,4,0
43.955,0,8,2,6,6,1,0,3
43.96,6,10,5,12,12,4,3,3
43.965,18,10,2,1,31,7,4,0
43.97,1,1,13,3,35,7,0,1
43.975,6,12,64,1,12,39,6,3
43.98,0,2,5,10,3,3,0,0
43.985,2,7,18,2,5,13,5,1
43.99,6,2,20,7,9,1,1,1
43.995,14,5,25,20,24,17,8,5
44,6,4,4,16,38,6,7,3
44.005,4,1,9,10,27,5,1,3
44.01,1,1,2,16,19,4,2,1
44.015,0,1,12,3,5,9,1,1
44.02,0,2,1,9,12,4,2,5
44.025,2,0,12,6,1,7,2,1
44.03,1,2,14,4,7,1,1,4
44.035,0,4,16,2,1,7,5,2
44.04,0,2,6,3,8,4,1,0
44.045,8,5,3,15,7,1,0,3
44.05,5,1,3,7,7,1,0,3
44.055,2,1,3,4,20,3,1,1
44.06,0,0,9,12,2,0,1,1
44.065,2,2,5,3,15,3,2,1
44.07,1,4,1,30,39,2,2,1
44.075,0,2,12,4,11,10,3,12
44.08,8,17,11,42,54,1,1,7
44.085,5,4,3,23,81,0,3,8
44.09,0,10,3,23,4,1,2,1
44.095,4,2,3,46,42,2,4,2
44.1,5,5,6,44,46,10,0,2
44.105,2,5,6,20,87,9,5,8
44.11,9,32,9,11,57,3,2,5
44.115,1,10,3,21,6,7,0,0
44.12,13,5,8,6,17,4,9,18
44.125,13,28,9,6,54,5,2,2
44.13,4,31,5,38,40,2,2,31
44.135,5,13,4,16,81,6,7,14
44.14,9,6,1,25,47,5,2,5
44.145,14,3,2,49,73,2,4,13
44.15,16,7,9,69,128,12,1,25
44.155,13,2,4,18,24,1,4,4
44.16,18,17,7,20,30,3,3,5
44.165,15,22,5,45,18,14,8,14
44.17,8,5,9,23,6,10,2,2
44.175,7,10,7,5,24,5,3,1
44.18,1,5,8,37,99,18,4,7
44.185,12,15,4,33,115,14,1,6
44.19,5,8,5,7,42,8,5,1
44.195,9,8,6,49,127,11,4,3
44.2,3,11,1,20,42,4,0,2
44.205,2,1,1,1,43,1,2,3
44.21,3,3,7,16,34,2,5,5
44.215,4,6,0,21,33,4,3,4
44.22,4,5,0,21,98,5,4,4
44.225,2,9,4,14,2,0,0,1
44.23,3,1,5,1,37,2,0,7
44.235,4,4,0,5,25,5,5,7
44.24,2,4,5,4,12,4,5,1
44.245,1,3,3,8,15,0,1,0
44.25,4,10,2,3,31,0,0,4
44.255,2,0,3,11,15,1,2,1
44.26,3,8,2,20,13,0,2,4
44.265,2,2,4,3,43,3,1,2
44.27,2,1,11,28,34,6,3,3
44.275,0,1,2,15,22,0,1,0
44.28,2,1,1,12,23,4,2,1
44.285,3,3,0,1,23,2,1,1
44.29,1,1,4,30,44,3,2,0
44.295,1,1,2,21,31,3,2,3
44.3,4,5,2,5,66,10,6,4
44.305,1,3,3,27,62,9,0,1
44.31,2,1,4,31,57,9,3,3
44.315,1,3,4,18,22,2,0,0
44.32,0,2,2,7,44,0,0,2
44.325,3,3,4,19,31,2,1,1
44.33,2,1,4,8,13,3,2,3
44.335,2,3,3,6,42,0,0,1
44.34,2,0,3,33,112,7,3,0
44.345,0,1,0,6,5,2,2,1
44.35,1,2,1,3,37,1,2,1
44.355,1,1,0,8,1,2,1,4
44.36,0,1,1,9,31,1,1,1
44.365,0,3,3,4,3,1,1,1
44.37,2,0,2,13,49,1,0,0
44.375,2,4,6,19,0,7,2,1
44.38,2,0,1,19,14,6,2,1
44.385,4,2,6,46,11,1,2,3
44.39,0,0,0,5,10,3,2,3
44.395,0,0,0,17,13,3,2,3
44.4,0,2,1,3,31,5,2,0
44.405,1,1,1,8,6,4,1,0
44.41,1,0,0,4,13,6,1,1
44.415,0,2,1,1,11,2,2,1
44.42,1,0,2,7,14,3,1,1
44.425,1,1,4,13,54,3,3,1
44.43,5,3,3,5,20,11,5,2
44.435,1,0,2,5,3,6,1,0
44.44,0,0,1,2,18,3,1,1
44.445,1,1,1,6,7,0,1,1
44.45,1,1,3,0,11,1,0,3
44.455,2,1,3,5,1,13,3,3
44.46,1,1,1,12,20,10,1,1
44.465,2,2,3,20,5,3,1,3
44.47,2,3,2,2,17,7,3,1
44.475,2,1,1,9,13,3,2,2
44.48,2,1,1,6,5,2,2,3
44.485,1,2,0,11,6,1,3,1
44.49,1,0,1,6,7,2,0,2
44.495,1,3,3,1,6,3,1,0
44.5,2,3,4,5,19,8,2,2
44.505,3,2,4,16,47,9,1,0
44.51,0,0,2,4,11,6,3,3
44.515,1,0,3,7,2,2,1,3
44.52,2,0,1,12,2,4,1,2
44.525,1,1,1,4,10,8,2,2
44.53,1,1,0,0,4,3,0,1
44.535,0,1,2,5,22,7,3,2
44.54,1,1,3,17,50,7,2,1
44.545,1,3,4,15,4,2,2,2
44.55,0,1,2,16,0,3,2,0
44.555,1,1,2,10,5,2,1,1
44.56,2,1,3,2,11,2,2,0
44.565,1,1,1,14,14,0,0,1
44.57,0,2,4,4,13,1,1,2
44.575,1,1,0,2,12,0,2,1
44.58,0,3,1,2,0,3,1,0
44.585,1,0,1,1,19,2,1,1
44.59,0,3,0,9,32,7,1,1
44.595,1,2,5,4,0,4,2,2
44.6,2,0,2,3,0,1,2,3
44.605,0,1,2,12,32,4,2,0
44.61,0,1,0,5,15,1,1,1
44.615,1,1,0,6,15,2,1,2
44.62,1,3,2,10,9,0,1,2
44.625,0,1,1,16,6,10,1,1
44.63,1,0,1,9,3,4,3,2
44.635,3,3,9,9,5,1,3,1
44.64,0,1,1,0,6,1,0,0
44.645,1,7,0,8,37,3,4,2
44.65,3,0,8,9,9,9,5,4
44.655,4,6,10,14,48,2,2,2
44.66,2,2,6,31,72,16,5,1
44.665,1,3,1,14,4,12,3,3
44.67,3,7,28,49,10,9,3,2
44.675,1,10,4,24,16,12,3,1
44.68,6,1,17,40,16,25,6,0
44.685,10,38,8,27,2,9,7,5
44.69,9,24,4,53,21,23,6,2
44.695,4,20,10,59,69,47,11,6
44.7,24,18,28,16,50,44,15,7
44.705,11,6,70,17,15,28,0,6
44.71,13,4,62,6,20,27,9,4
44.715,17,3,20,38,28,36,13,6
44.72,3,43,97,24,28,5,1,1
44.725,32,52,81,33,28,21,4,5
44.73,48,13,78,18,21,44,10,1
44.735,38,57,51,1,9,14,7,4
44.74,59,22,80,17,26,14,8,13
44.745,6,10,128,37,77,23,3,7
44.75,19,9,62,26,15,11,6,2
44.755,10,43,80,20,5,2,2,2
44.76,23,8,105,63,8,15,1,4
44.765,4,20,15,83,26,18,3,3
44.77,3,18,23,61,5,31,2,3
44.775,25,2,25,4,48,49,6,1
44.78,22,2,11,35,7,4,3,0
44.785,13,14,0,65,26,10,1,3
44.79,8,31,54,39,5,15,9,6
44.795,20,31,27,0,25,31,13,2
44.8,2,2,15,12,15,26,11,2
44.805,11,8,27,4,3,21,2,4
44.81,9,8,28,12,27,28,2,0
44.815,10,4,2,10,23,10,1,1
44.82,1,16,12,5,1,2,2,2
44.825,2,16,4,7,1,4,1,3
44.83,8,2,4,9,6,8,4,1
44.835,15,8,7,12,11,7,1,4
44.84,5,1,7,0,11,10,1,1
44.845,3,7,3,10,9,10,2,0
44.85,6,1,16,20,1,3,2,6
44.855,1,6,14,5,4,4,0,3
44.86,5,1,25,19,2,4,0,2
44.865,0,0,4,17,28,5,0,1
44.87,5,3,12,9,9,5,3,2
44.875,2,6,16,2,11,12,2,1
44.88,0,1,6,2,3,9,1,1
44.885,2,3,4,6,2,1,1,2
44.89,2,5,16,8,11,8,3,4
44.895,2,15,12,3,45,5,3,0
44.9,1,1,17,2,11,1,1,2
44.905,4,1,10,3,7,11,5,3
44.91,1,4,8,6,3,1,1,2
44.915,1,0,1,1,0,0,1,2
44.92,2,1,3,5,7,2,3,1
44.925,2,11,5,8,6,1,2,2
44.93,1,3,1,4,12,0,0,0
44.935,2,6,0,16,38,2,3,1
44.94,6,3,3,25,37,2,3,2
44.945,1,4,1,26,42,1,2,4
44.95,6,19,6,2,22,6,2,0
44.955,3,6,1,38,30,0,1,6
44.96,1,13,1,14,20,5,5,3
44.965,6,3,0,21,19,2,2,6
44.97,6,9,17,26,70,16,7,8
44.975,7,9,7,61,70,0,1,1
44.98,27,31,9,2,68,2,6,6
44.985,3,71,2,32,62,3,3,17
44.99,32,36,5,24,91,7,2,3
44.995,10,7,6,38,66,10,5,7
45,15,31,3,13,97,6,2,3
45.005,12,95,9,1,63,5,1,10
45.01,36,76,7,24,68,10,0,2
45.015,22,11,3,41,70,4,4,4
45.02,8,58,10,24,93,2,8,1
45.025,37,4,35,79,8,14,9,6
45.03,16,40,3,13,37,1,1,3
45.035,15,83,12,52,74,2,0,1
45.04,24,28,3,10,19,3,5,5
45.045,5,39,15,33,67,14,3,1
45.05,3,19,1,29,48,13,5,2
45.055,10,12,8,19,23,2,4,14
45.06,28,25,11,1,56,5,1,11
45.065,23,68,16,69,60,10,0,5
45.07,3,21,6,7,3,1,2,7
45.075,4,10,13,7,106,8,0,1
45.08,5,24,1,19,60,14,2,6
45.085,3,19,3,38,127,6,2,2
45.09,6,7,1,65,93,2,6,2
45.095,7,53,6,30,31,4,1,1
45.1,3,34,10,22,7,3,2,0
45.105,3,14,3,23,66,8,2,0
45.11,3,13,1,22,0,7,3,2
45.115,0,9,6,27,39,3,1,2
45.12,6,0,3,1,9,0,4,6
45.125,1,2,2,40,37,3,3,3
45.13,5,32,1,4,4,2,2,2
45.135,15,0,2,20,67,11,3,2
45.14,20,5,29,19,6,3,5,5
45.145,1,22,1,3,28,1,1,1
45.15,0,13,4,45,64,5,1,1
45.155,0,9,7,52,23,4,1,0
45.16,1,3,0,23,92,7,0,5
45.165,4,5,2,38,51,4,0,0
45.17,5,1,3,27,32,3,4,4
45.175,0,6,1,22,8,2,2,1
45.18,1,15,2,22,65,2,2,1
45.185,3,5,7,54,118,4,0,3
45.19,3,1,1,20,28,6,0,0
45.195,3,13,5,8,58,3,1,1
45.2,1,1,4,1,45,7,0,1
45.205,7,2,2,20,1,8,3,1
45.21,4,3,6,31,77,7,1,0
45.215,3,7,7,15,8,3,3,2
45.22,0,1,4,9,34,1,0,1
45.225,0,5,1,12,2,1,1,1
45.23,1,6,1,11,6,0,2,2
45.235,2,1,3,7,10,10,2,1
45.24,2,0,3,7,6,4,1,0
45.245,4,4,2,9,16,1,0,2
45.25,2,0,2,5,3,4,1,1
45.255,1,1,4,14,20,0,1,2
45.26,0,1,0,1,2,8,3,1
45.265,1,2,11,9,19,7,1,3
45.27,0,2,1,3,97,6,1,1
45.275,3,4,3,38,88,9,0,0
45.28,3,0,0,11,2,5,0,1
45.285,1,7,1,4,60,11,4,3
45.29,2,0,1,29,29,2,0,2
45.295,2,1,2,39,39,2,0,0
45.3,0,1,1,4,10,2,1,1
45.305,7,12,0,1,22,9,1,1
45.31,0,3,1,0,37,5,1,0
45.315,2,6,0,2,61,6,2,2
45.32,3,5,6,10,26,6,2,5
45.325,2,1,3,12,26,1,0,2
45.33,1,1,1,9,1,2,1,3
45.335,1,0,1,18,11,1,0,1
45.34,0,5,1,11,6,6,4,2
45.345,3,1,3,2,4,1,1,0
45.35,2,2,7,1,22,3,0,0
45.355,1,2,5,7,9,0,1,0
45.36,1,2,6,5,17,2,1,2
45.365,1,3,0,6,29,1,1,2
45.37,2,4,6,1,71,7,5,2
45.375,1,0,5,27,66,3,0,0
45.38,1,0,1,5,2,10,0,0
45.385,1,3,4,6,37,2,1,0
45.39,2,3,5,6,31,2,1,0
45.395,1,1,4,12,27,4,4,0
45.4,1,1,0,14,26,6,3,2
45.405,0,1,3,16,7,1,0,1
45.41,1,1,2,1,5,4,1,1
45.415,1,0,2,18,11,1,0,0
45.42,0,0,0,22,4,0,1,1
45.425,1,5,4,7,12,2,5,2
45.43,3,1,1,5,13,3,0,2
45.435,1,1,1,11,14,3,1,3
45.44,2,0,1,4,9,1,1,1
45.445,1,2,0,4,4,3,1,2
45.45,0,2,3,0,1,3,4,1
45.455,0,0,0,8,3,8,1,1
45.46,0,3,6,18,78,2,3,1
45.465,2,0,2,29,107,5,3,3
45.47,1,1,0,24,19,1,0,1
45.475,2,1,6,15,5,1,1,4
45.48,0,0,11,40,35,2,0,2
45.485,1,4,15,16,15,2,1,2
45.49,1,3,5,17,5,6,4,3
45.495,1,1,2,3,39,4,2,1
45.5,3,2,7,25,63,5,1,2
45.505,3,2,4,18,14,1,0,2
45.51,1,2,3,12,28,5,0,0
45.515,1,3,6,8,14,4,1,2
45.52,2,4,1,2,24,2,1,1
45.525,0,5,7,12,5,3,1,1
45.53,1,1,5,15,24,1,2,1
45.535,1,1,6,9,13,1,3,1
45.54,3,2,2,6,5,5,3,4
45.545,1,4,9,8,9,0,1,1
45.55,1,2,13,28,5,1,4,3
45.555,2,2,3,6,24,4,1,2
45.56,1,1,1,20,27,3,2,1
45.565,1,1,18,0,54,9,1,1
45.57,1,1,11,4,9,1,2,1
45.575,4,1,8,0,24,12,5,5
45.58,6,1,12,40,40,14,2,2
45.585,2,0,7,42,6,5,1,1
45.59,5,7,7,1,17,4,4,4
45.595,6,2,20,17,2,9,4,3
45.6,5,1,12,19,25,3,0,2
45.605,3,21,8,20,108,3,4,3
45.61,5,7,9,15,93,9,4,2
45.615,2,11,42,13,19,22,13,8
45.62,2,14,43,3,41,1,8,3
45.625,0,6,10,39,39,7,6,0
45.63,13,13,21,48,16,18,10,7
45.635,37,10,20,18,27,9,9,9
45.64,21,17,25,5,95,21,16,2
45.645,46,43,64,10,45,13,21,22
45.65,74,12,86,19,54,2,2,9
45.655,30,13,2,15,25,10,1,0
45.66,73,50,94,16,21,16,0,0
45.665,73,19,60,44,7,4,4,2
45.67,35,39,44,89,94,12,7,9
45.675,72,2,62,33,60,41,47,46
45.68,72,4,29,2,59,24,1,2
45.685,64,24,1,44,61,37,3,13
45.69,74,8,80,32,26,63,15,7
45.695,84,59,44,27,29,103,27,29
45.7,112,25,90,3,55,2,4,30
45.705,112,43,94,10,1,11,4,1
45.71,53,2,127,31,20,22,1,5
45.715,61,7,34,34,84,4,3,13
45.72,3,0,82,0,55,23,0,17
45.725,0,10,4,28,7,9,6,1
45.73,44,12,30,9,48,24,3,3
45.735,13,30,3,1,48,30,6,4
45.74,36,24,107,27,4,3,1,0
45.745,18,32,44,24,3,10,2,4
45.75,17,5,8,3,0,9,5,2
45.755,14,13,5,1,36,16,1,7
45.76,6,38,49,12,2,5,3,0
45.765,34,19,2,4,5,9,1,7
45.77,30,3,21,16,13,18,1,3
45.775,15,13,23,12,15,4,5,1
45.78,20,12,17,10,26,4,2,7
45.785,1,11,4,18,14,7,1,3
45.79,8,10,18,22,18,15,4,2
45.795,8,9,8,9,5,10,3,4
45.8,7,20,15,2,1,10,8,4
45.805,3,10,9,2,9,9,1,2
45.81,14,4,3,14,23,17,5,2
45.815,6,14,7,6,30,9,3,2
45.82,7,8,22,15,9,9,1,1
45.825,2,7,22,12,29,1,1,3
45.83,1,3,1,23,24,4,0,1
45.835,9,10,4,12,13,4,2,0
45.84,1,9,5,4,62,13,3,6
45.845,19,1,13,37,43,22,9,0
45.85,11,31,8,42,44,3,0,7
45.855,8,45,7,78,102,10,2,4
45.86,2,22,3,10,42,8,5,10
45.865,18,78,14,51,41,14,1,11
45.87,4,53,26,36,41,3,8,24
45.875,38,7,14,28,21,7,1,16
45.88,30,36,5,9,7,6,5,3
45.885,14,2,7,53,59,12,11,12
45.89,11,12,3,99,100,2,3,38
45.895,7,26,3,27,5,5,1,23
45.9,35,32,7,33,8,13,4,8
45.905,11,1,6,2,58,1,0,3
45.91,7,12,21,35,21,19,6,9
45.915,2,7,11,6,40,19,5,18
45.92,6,38,3,23,69,0,2,0
45.925,1,29,2,27,1,10,6,7
45.93,14,4,3,5,36,11,0,2
45.935,2,7,0,17,22,0,0,1
45.94,0,1,4,51,59,2,2,6
45.945,5,16,4,69,111,2,5,4
45.95,12,9,6,15,51,15,13,14
45.955,1,19,12,47,71,12,5,8
45.96,1,20,7,40,79,5,4,1
45.965,0,11,2,41,49,0,1,10
45.97,4,21,4,76,62,6,1,3
45.975,0,9,2,36,25,7,2,5
45.98,0,5,0,15,98,8,5,5
45.985,5,28,0,21,1,8,1,1
45.99,8,0,4,4,59,3,0,0
45.995,1,13,1,26,14,4,4,1
46,0,5,3,2,68,2,2,6
46.005,3,6,7,49,100,3,1,2
46.01,3,11,11,47,27,2,4,1
46.015,6,7,6,15,10,0,2,3
46.02,0,15,4,41,64,3,2,0
46.025,3,14,4,11,67,7,2,1
46.03,2,0,0,29,78,5,2,1
46.035,0,3,9,28,99,7,4,1
46.04,0,1,0,6,14,0,2,2
46.045,0,9,1,22,38,4,1,3
46.05,1,2,1,13,80,1,1,2
46.055,3,7,2,7,19,2,1,2
46.06,3,4,7,7,83,16,6,2
46.065,2,5,2,11,23,2,2,3
46.07,0,8,0,37,29,11,3,1
46.075,1,3,1,0,11,1,0,1
46.08,3,2,2,0,5,3,1,1
46.085,2,3,3,5,12,1,2,1
46.09,0,3,2,2,28,4,0,2
46.095,0,4,0,2,2,3,3,0
46.1,0,2,11,16,32,5,1,2
46.105,2,1,2,3,36,17,1,1
46.11,3,3,0,2,16,8,0,0
46.115,0,0,3,17,29,3,0,1
46.12,1,1,5,8,18,2,3,2
46.125,3,4,3,5,9,8,1,2
46.13,1,0,3,18,4,2,0,0
46.135,2,3,4,24,5,5,3,3
46.14,2,4,3,21,6,6,4,0
46.145,5,5,5,20,9,3,6,4
46.15,1,5,2,4,15,4,1,1
46.155,3,2,2,15,8,7,1,1
46.16,0,2,2,11,4,2,1,0
46.165,1,2,1,1,4,3,0,0
46.17,3,5,2,1,12,3,2,2
46.175,5,3,4,9,9,0,4,4
46.18,1,0,0,3,17,0,2,2
46.185,2,1,4,32,7,2,2,3
46.19,1,5,14,61,70,9,2,2
46.195,1,1,1,9,11,3,3,1
46.2,3,5,5,25,8,5,1,2
46.205,0,0,0,18,23,3,1,3
46.21,1,1,2,3,18,3,2,2
46.215,2,2,2,3,11,4,0,1
46.22,0,1,2,6,13,5,2,3
46.225,1,3,2,24,16,6,1,3
46.23,1,2,0,2,26,4,1,2
46.235,0,4,3,8,88,1,1,1
46.24,2,2,2,1,60,8,0,1
46.245,2,2,3,22,53,4,3,2
46.25,0,2,1,10,9,1,4,2
46.255,2,2,1,4,27,5,1,1
46.26,2,3,1,9,13,2,1,1
46.265,0,1,3,3,11,6,2,3
46.27,1,0,0,3,5,2,1,0
46.275,1,0,3,7,34,3,4,2
46.28,0,1,3,8,61,8,1,1
46.285,2,1,6,8,95,14,4,3
46.29,1,1,1,4,16,1,4,2
46.295,4,1,4,7,28,9,3,2
46.3,0,0,1,1,17,8,2,0
46.305,1,0,1,9,36,2,1,0
46.31,0,0,3,2,2,2,1,0
46.315,2,3,26,7,5,0,1,2
46.32,2,1,12,1,12,0,2,1
46.325,1,0,2,4,18,7,1,2
46.33,3,8,1,0,22,4,2,2
46.335,1,2,3,14,13,4,4,2
46.34,2,1,2,15,24,11,3,1
46.345,1,1,5,19,23,3,2,0
46.35,3,1,2,16,0,8,1,5
46.355,1,2,2,19,18,11,1,1
46.36,0,0,0,7,16,0,0,0
46.365,0,0,4,14,2,6,0,2
46.37,2,1,1,9,8,4,2,2
46.375,1,1,4,1,7,4,2,1
46.38,2,0,0,3,10,4,4,0
46.385,2,2,5,17,38,13,3,2
46.39,0,3,2,35,63,6,1,0
46.395,0,3,31,18,48,1,1,1
46.4,1,1,1,5,44,6,1,0
46.405,1,2,1,12,15,4,4,2
46.41,1,2,1,26,31,4,1,1
46.415,1,1,9,13,38,6,3,2
46.42,1,2,7,5,3,2,1,3
46.425,1,0,10,15,26,8,3,0
46.43,3,10,7,1,9,6,4,1
46.435,5,12,8,10,44,5,1,4
46.44,1,11,9,3,55,9,1,2
46.445,3,2,3,3,16,16,6,5
46.45,5,4,32,4,19,6,8,3
46.455,0,10,5,15,29,5,1,0
46.46,2,4,29,12,9,9,4,1
46.465,0,22,42,4,1,11,8,2
46.47,0,1,36,16,20,5,5,2
46.475,2,1,1,11,10,0,1,1
46.48,4,14,43,18,58,13,3,2
46.485,1,9,38,8,29,8,2,4
46.49,2,15,60,7,3,2,1,2
46.495,1,8,31,8,41,10,1,1
46.5,1,4,5,5,3,8,5,4
46.505,10,0,44,17,59,20,2,2
46.51,10,8,23,0,35,5,4,1
46.515,3,16,9,10,32,15,3,2
46.52,1,15,11,25,58,4,1,1
46.525,11,9,33,4,7,19,6,1
46.53,7,30,64,4,36,4,2,2
46.535,1,15,5,22,1,11,3,1
46.54,14,14,4,10,9,4,7,3
46.545,23,19,45,7,3,41,7,10
46.55,0,16,5,7,50,70,17,8
46.555,9,55,32,7,63,52,25,6
46.56,33,17,72,20,42,23,21,14
46.565,16,17,39,30,50,19,3,0
46.57,44,19,56,5,33,8,5,13
46.575,10,24,45,25,22,1,5,5
46.58,12,5,8,14,36,15,0,0
46.585,7,9,48,5,43,21,14,4
46.59,41,11,36,2,3,17,3,7
46.595,14,17,8,26,37,11,4,2
46.6,36,31,3,6,3,5,11,14
46.605,26,10,35,26,5,12,3,5
46.61,41,23,1,10,9,31,11,7
46.615,12,8,3,29,35,36,10,0
46.62,5,9,27,12,24,6,0,2
46.625,16,1,18,30,7,10,0,6
46.63,15,6,30,12,25,5,4,1
46.635,7,5,18,4,38,16,4,6
46.64,1,2,11,6,6,3,0,1
46.645,13,4,15,7,21,18,6,2
46.65,11,3,1,4,17,7,2,1
46.655,3,1,5,1,4,5,0,2
46.66,13,5,5,14,1,5,4,7
46.665,1,4,10,6,11,2,2,1
46.67,5,5,1,4,6,1,4,3
46.675,7,2,12,1,7,6,1,1
46.68,1,1,17,0,3,1,1,1
46.685,5,6,11,0,3,6,3,1
46.69,5,6,5,7,7,2,1,0
46.695,6,3,5,13,16,3,1,2
46.7,0,0,10,18,35,2,2,1
46.705,4,1,2,37,50,2,0,2
46.71,4,6,4,18,6,1,2,1
46.715,1,1,5,16,42,1,1,1
46.72,1,5,13,65,56,7,2,2
46.725,4,1,5,23,17,10,0,1
46.73,3,7,5,3,54,1,0,1
46.735,3,3,2,2,64,15,4,2
46.74,3,2,6,30,90,2,1,0
46.745,9,9,4,28,7,2,1,1
46.75,3,12,3,2,85,20,8,3
46.755,5,3,3,7,90,7,1,0
46.76,1,37,3,38,2,0,4,2
46.765,8,39,3,38,59,4,5,6
46.77,3,3,9,13,114,18,2,2
46.775,3,4,9,13,55,24,9,6
46.78,7,17,8,18,23,4,2,4
46.785,2,14,1,31,47,7,6,13
46.79,0,3,0,7,46,9,5,2
46.795,4,9,6,11,71,6,0,2
46.8,1,5,3,6,62,8,2,4
46.805,5,33,4,18,97,16,5,6
46.81,11,27,5,12,19,2,1,1
46.815,6,6,1,21,13,7,4,1
46.82,12,6,8,30,35,20,13,9
46.825,2,0,8,16,7,6,1,1
46.83,2,2,1,12,5,2,4,3
46.835,1,1,1,5,114,0,3,1
46.84,2,5,3,22,105,6,1,3
46.845,5,15,1,16,24,1,5,3
46.85,4,0,10,22,26,9,3,3
46.855,1,8,2,0,22,1,1,0
46.86,1,14,1,19,29,4,1,2
46.865,3,11,2,23,127,7,0,4
46.87,1,4,1,8,127,4,1,2
46.875,2,1,8,28,64,9,0,0
46.88,1,0,4,11,41,2,2,3
46.885,3,8,3,20,1,4,2,4
46.89,2,2,2,6,27,3,2,3
46.895,1,6,3,12,26,5,0,0
46.9,2,2,2,11,19,0,1,3
46.905,3,9,5,11,7,1,0,1
46.91,3,4,7,40,57,11,5,3
46.915,0,2,0,18,30,2,1,0
46.92,2,0,1,2,35,4,3,1
46.925,0,0,3,15,33,2,2,1
46.93,3,3,1,27,75,1,4,5
46.935,1,2,6,13,54,10,3,4
46.94,1,3,6,27,24,2,2,3
46.945,2,0,0,9,5,3,1,1
46.95,0,0,0,9,11,3,0,1
46.955,0,2,2,3,6,1,0,1
46.96,1,2,1,12,38,4,1,0
46.965,3,5,1,10,60,6,2,1
46.97,3,2,3,21,44,3,1,2
46.975,2,0,1,4,6,1,3,5
46.98,1,0,0,1,23,0,1,0
46.985,1,4,3,2,20,1,1,0
46.99,1,1,1,7,27,1,1,1
46.995,1,0,1,13,28,2,0,1
47,2,2,3,9,66,1,0,2
47.005,1,4,2,4,37,3,2,1
47.01,1,2,1,18,23,5,1,2
47.015,1,3,1,47,126,7,1,1
47.02,2,1,7,62,105,13,3,3
47.025,2,1,1,12,29,2,4,3
47.03,0,0,0,2,50,2,2,1
47.035,2,1,0,12,74,1,2,1
47.04,1,0,2,26,71,9,1,0
47.045,0,2,1,14,27,13,5,1
47.05,1,2,1,11,13,4,1,1
47.055,3,0,2,4,23,2,2,0
47.06,2,0,0,6,6,1,1,1
47.065,2,3,2,10,21,2,3,3
47.07,0,1,0,8,20,1,2,1
47.075,0,0,2,6,42,6,5,3
47.08,2,1,1,4,16,0,0,1
47.085,0,1,2,32,25,4,2,1
47.09,2,4,9,24,36,5,2,1
47.095,0,1,1,8,15,1,1,1
47.1,3,2,4,0,12,5,3,4
47.105,2,0,2,16,5,3,0,0
47.11,1,1,0,4,7,2,0,1
47.115,4,0,2,10,17,3,3,2
47.12,0,1,0,12,9,2,1,1
47.125,1,2,3,13,7,1,1,2
47.13,2,1,0,0,9,2,1,2
47.135,2,2,2,5,11,3,2,2
47.14,2,1,2,8,0,3,1,1
47.145,0,1,2,5,95,6,1,1
47.15,1,1,1,1,89,3,0,1
47.155,1,3,1,13,12,4,2,2
47.16,2,0,0,2,10,1,3,2
47.165,0,1,1,13,9,6,3,4
47.17,1,0,3,20,36,7,4,3
47.175,0,3,3,3,9,1,2,1
47.18,1,1,3,6,5,2,1,0
47.185,1,2,0,2,3,4,1,2
47.19,1,1,1,4,19,10,4,4
47.195,1,10,5,26,94,3,4,2
47.2,1,1,1,0,89,0,3,1
47.205,0,1,1,1,38,4,2,0
47.21,2,1,0,3,19,0,1,2
47.215,1,3,1,5,25,3,2,1
47.22,0,0,1,6,29,8,5,3
47.225,2,2,3,2,0,4,0,0
47.23,1,1,2,4,8,2,1,0
47.235,1,1,5,5,2,0,0,0
47.24,1,2,1,23,1,2,4,4
47.245,1,2,2,31,39,4,3,0
47.25,2,3,3,4,48,3,2,1
47.255,2,1,0,4,30,1,1,1
47.26,1,4,1,9,42,3,4,3
47.265,3,2,3,2,18,3,1,3
47.27,1,0,0,6,23,6,5,1
47.275,0,2,1,4,31,3,1,1
47.28,2,0,1,1,5,1,2,1
47.285,2,0,0,1,5,3,1,1
47.29,1,1,4,5,3,5,2,2
47.295,1,0,4,24,7,5,2,0
47.3,1,3,5,28,6,4,1,1
47.305,1,3,4,6,35,4,3,1
47.31,1,0,0,1,13,3,2,2
47.315,3,1,1,2,12,6,3,1
47.32,1,0,1,8,25,2,1,2
47.325,1,0,2,12,37,1,2,0
47.33,1,1,2,11,34,6,2,0
47.335,2,1,3,1,38,8,2,3
47.34,1,0,2,4,9,2,2,3
47.345,1,2,2,2,2,1,1,2
47.35,0,1,2,9,4,3,2,1
47.355,0,1,1,5,8,4,1,1
47.36,2,3,4,4,8,6,3,2
47.365,0,1,0,5,6,1,0,3
47.37,0,2,1,5,7,3,0,1
47.375,0,0,1,6,12,4,1,1
47.38,3,2,0,4,9,6,0,1
47.385,1,1,2,24,13,3,0,2
47.39,2,2,0,19,17,1,1,4
47.395,1,3,7,25,41,5,4,3
47.4,1,0,2,1,8,1,1,2
47.405,0,1,1,8,31,2,1,1
47.41,1,3,3,12,35,2,2,0
47.415,2,2,4,4,0,1,3,1
47.42,0,0,1,1,11,5,2,1
47.425,1,1,2,14,37,1,1,1
47.43,2,2,6,31,78,2,2,2
47.435,1,1,1,11,36,1,0,2
47.44,0,1,1,1,1,4,1,1
47.445,1,2,2,10,15,1,0,1
47.45,1,2,3,23,2,2,1,1
47.455,3,5,4,38,26,4,2,3
47.46,3,1,0,8,6,9,5,2
47.465,1,1,6,20,30,8,2,1
47.47,2,1,2,11,18,0,1,1
47.475,2,2,1,17,25,4,1,1
47.48,1,1,1,13,3,6,1,3
47.485,1,0,1,4,55,1,4,3
47.49,4,3,6,12,117,12,5,4
47.495,0,3,13,42,92,0,1,1
47.5,1,6,11,32,76,19,2,0
47.505,0,5,14,9,9,8,3,0
47.51,7,34,1,3,20,11,4,4
47.515,5,22,24,2,15,8,2,4
47.52,3,2,20,30,52,13,0,1
47.525,6,6,7,23,102,6,10,3
47.53,7,13,8,15,41,27,5,6
47.535,8,65,33,52,80,7,2,10
47.54,27,75,22,4,91,7,8,10
47.545,2,37,61,31,14,5,4,1
47.55,3,29,41,30,2,24,10,11
47.555,62,41,35,14,69,9,8,12
47.56,58,28,15,4,12,24,4,14
47.565,47,37,86,17,105,19,1,7
47.57,93,28,127,12,90,5,15,5
47.575,4,18,14,3,12,22,7,5
47.58,69,12,14,5,32,42,1,9
47.585,73,14,78,21,13,41,8,10
47.59,41,85,121,13,73,6,22,38
47.595,97,83,88,41,73,28,5,18
47.6,27,30,98,36,92,22,6,11
47.605,62,30,44,20,65,21,9,14
47.61,102,4,108,24,2,9,8,31
47.615,128,16,74,9,32,37,6,17
47.62,36,95,91,18,41,10,15,6
47.625,86,56,127,1,38,35,1,14
47.63,87,74,116,11,45,13,6,14
47.635,55,25,2,12,65,14,7,14
47.64,22,43,76,29,22,1,2,7
47.645,122,16,26,7,14,4,4,17
47.65,5,25,29,37,27,26,2,4
47.655,35,5,82,9,17,19,1,8
47.66,92,34,33,7,33,22,3,10
47.665,2,20,11,1,10,14,6,6
47.67,48,46,28,1,71,11,4,10
47.675,11,18,51,14,4,15,2,1
47.68,40,1,26,4,4,5,1,10
47.685,2,18,25,19,6,6,1,0
47.69,24,43,59,18,9,3,2,0
47.695,5,10,59,14,3,7,5,6
47.7,22,3,18,9,15,11,1,1
47.705,2,4,5,1,15,0,1,1
47.71,2,8,12,10,8,10,1,0
47.715,9,8,31,4,11,6,3,1
47.72,13,7,8,0,15,5,2,1
47.725,10,6,11,1,11,1,4,4
47.73,15,19,11,10,13,1,1,1
47.735,8,12,25,9,21,6,1,0
47.74,14,9,15,6,11,2,3,2
47.745,10,4,16,18,27,8,4,1
47.75,10,9,14,13,9,12,2,2
47.755,4,2,4,21,24,3,3,1
47.76,22,6,10,5,30,2,4,6
47.765,0,11,6,6,32,4,2,1
47.77,14,15,0,65,69,9,3,0
47.775,4,4,10,13,42,0,1,1
47.78,9,7,2,18,45,6,1,20
47.785,2,24,7,8,34,3,0,15
47.79,2,60,17,9,61,5,0,3
47.795,3,34,14,21,92,20,7,32
47.8,4,15,2,39,44,6,1,22
47.805,15,7,10,79,61,1,7,8
47.81,7,19,3,21,33,8,0,8
47.815,5,3,5,29,69,11,0,4
47.82,21,0,1,11,3,3,3,15
47.825,0,8,2,14,89,3,6,19
47.83,21,2,0,3,31,4,2,23
47.835,3,3,9,22,69,7,2,6
47.84,3,13,4,14,27,0,0,5
47.845,15,8,4,17,5,0,2,2
47.85,4,7,5,53,85,10,2,7
47.855,0,0,2,28,18,2,3,3
47.86,8,3,1,15,56,6,1,2
47.865,1,5,4,21,112,7,5,3
47.87,0,10,7,36,3,5,1,10
47.875,2,1,7,24,28,5,0,6
47.88,2,5,3,43,112,7,2,5
47.885,3,3,6,21,48,1,1,10
47.89,2,10,6,44,49,1,1,3
47.895,3,6,4,53,65,6,4,3
47.9,1,2,2,15,4,4,3,2
47.905,3,6,3,9,12,5,3,4
47.91,7,5,0,10,54,4,1,4
47.915,0,5,0,6,19,2,0,3
47.92,3,2,4,16,5,8,5,7
47.925,1,1,4,9,34,6,0,2
47.93,0,0,2,5,47,8,1,2
47.935,0,2,5,8,8,2,1,3
47.94,2,2,3,5,41,6,3,1
47.945,2,3,1,4,6,1,0,2
47.95,2,2,1,1,26,0,1,1
47.955,1,2,3,5,16,5,1,1
47.96,3,2,3,14,33,6,4,3
47.965,1,2,2,8,3,6,3,2
47.97,2,2,0,13,18,7,2,2
47.975,3,2,1,13,71,3,1,3
47.98,0,1,0,14,27,0,1,2
47.985,2,3,3,37,71,5,1,3
47.99,4,5,1,1,8,6,3,3
47.995,1,2,1,1,22,2,3,1
48,1,1,1,5,30,10,7,3
48.005,0,1,2,22,26,0,1,1
48.01,3,1,2,7,41,4,2,2
48.015,1,1,0,7,69,8,3,2
48.02,1,1,2,10,46,5,4,3
48.025,2,3,4,4,94,3,1,1
48.03,1,1,1,4,7,6,2,2
48.035,5,5,4,2,35,10,5,2
48.04,1,3,2,4,61,1,2,2
48.045,1,3,3,25,33,1,1,1
48.05,1,1,1,1,26,5,0,1
48.055,1,0,1,16,44,3,2,1
48.06,2,4,4,31,81,8,3,1
48.065,1,2,0,10,73,2,1,1
48.07,0,3,2,21,35,3,1,0
48.075,1,2,4,24,1,4,5,2
48.08,2,2,2,1,11,0,1,1
48.085,1,0,1,13,19,1,0,0
48.09,1,3,4,9,7,2,0,0
48.095,3,2,0,5,29,1,1,0
48.1,2,0,0,8,2,2,4,3
48.105,3,2,3,7,28,3,3,1
48.11,0,2,1,15,94,6,4,1
48.115,2,0,3,4,105,2,2,2
48.12,1,3,2,5,8,6,4,2
48.125,1,1,1,16,20,2,0,1
48.13,1,3,2,19,13,0,1,5
48.135,0,1,1,1,17,1,1,1
48.14,0,2,3,1,26,4,1,2
48.145,1,0,0,7,45,3,1,2
48.15,3,3,2,3,1,1,1,0
48.155,2,1,3,7,24,2,2,2
48.16,1,1,0,1,6,1,3,3
48.165,1,2,1,18,28,5,3,4
48.17,2,2,4,30,98,4,2,2
48.175,0,2,1,6,58,3,0,2
48.18,0,0,0,23,29,1,1,3
48.185,2,2,5,23,2,3,2,1
48.19,1,3,0,6,27,2,0,3
48.195,1,1,2,0,4,5,4,1
48.2,2,1,2,4,1,2,1,2
48.205,0,0,3,21,64,12,3,1
48.21,1,1,5,19,89,8,2,0
48.215,1,1,3,7,13,4,1,2
48.22,0,0,1,4,48,1,2,1
48.225,1,1,1,1,42,8,5,2
48.23,0,0,2,12,57,4,2,2
48.235,0,3,4,3,26,3,0,0
48.24,2,2,2,18,27,2,2,1
48.245,1,2,2,1,13,0,0,2
48.25,1,0,0,14,21,2,1,0
48.255,0,1,0,4,43,1,1,0
48.26,3,3,6,21,64,7,4,5
48.265,0,2,2,4,12,3,2,1
48.27,0,0,2,8,16,11,2,2
48.275,1,0,2,6,2,2,2,1
48.28,0,3,1,7,5,2,1,0
48.285,2,1,3,5,27,0,3,4
48.29,1,1,3,5,26,5,2,1
48.295,0,2,1,4,5,2,1,2
48.3,1,1,1,4,1,1,1,1
48.305,1,2,2,6,15,3,2,2
48.31,1,1,1,3,12,3,1,1
48.315,2,1,0,6,5,1,1,1
48.32,3,1,4,1,3,4,3,2
48.325,0,1,1,1,14,3,1,1
48.33,1,0,2,8,13,1,2,0
48.335,2,3,5,2,28,8,3,2
48.34,1,0,1,2,2,3,2,1
48.345,0,1,1,4,1,3,1,1
48.35,1,1,4,1,12,2,2,0
48.355,2,0,3,19,48,3,2,3
48.36,1,2,4,26,81,3,0,2
48.365,2,2,0,16,25,4,2,2
48.37,1,3,4,17,31,5,1,3
48.375,0,1,2,0,7,1,0,0
48.38,1,1,2,3,25,5,1,1
48.385,2,1,0,8,12,6,1,3
48.39,1,2,0,6,25,5,0,1
48.395,1,2,2,12,43,7,1,0
48.4,1,0,2,6,19,5,0,1
48.405,1,0,1,10,22,7,1,1
48.41,1,0,1,8,1,6,0,0
48.415,1,3,1,10,54,0,1,1
48.42,1,1,1,9,72,4,1,1
48.425,1,1,1,5,1,2,1,0
48.43,0,0,0,3,10,5,4,2
48.435,1,0,4,5,1,5,1,2
48.44,2,0,4,18,65,4,2,1
48.445,3,8,4,2,48,2,1,1
48.45,3,5,2,6,10,2,0,1
48.455,5,11,16,7,17,5,1,1
48.46,2,4,4,17,19,1,1,0
48.465,13,0,16,2,2,21,2,1
48.47,20,28,23,3,23,33,4,1
48.475,27,12,38,18,36,26,2,8
48.48,3,20,0,44,2,13,3,4
48.485,65,37,46,7,56,0,14,24
48.49,15,19,60,18,94,18,4,1
48.495,14,22,85,25,21,17,6,5
48.5,1,21,78,11,5,10,5,5
48.505,1,38,47,18,13,24,16,11
48.51,51,22,82,9,25,6,1,7
48.515,48,30,44,33,16,33,13,24
48.52,63,21,54,3,3,26,4,13
48.525,102,27,61,41,72,31,25,35
48.53,16,0,108,14,44,4,2,11
48.535,80,21,128,8,22,9,12,14
48.54,59,85,127,26,2,23,8,8
48.545,56,8,27,4,1,17,1,1
48.55,1,43,61,23,25,23,0,1
48.555,4,65,79,33,65,46,4,12
48.56,81,6,47,46,71,4,5,12
48.565,107,27,42,16,68,32,5,27
48.57,25,0,41,16,12,8,3,3
48.575,12,40,111,16,65,21,2,5
48.58,30,13,54,3,55,21,7,1
48.585,101,11,30,10,13,16,8,25
48.59,89,35,28,24,69,50,6,16
48.595,32,27,0,26,16,14,5,8
48.6,15,16,3,32,13,14,8,2
48.605,4,1,33,4,33,5,0,1
48.61,46,12,18,2,0,31,6,4
48.615,23,3,16,9,18,8,3,2
48.62,28,8,105,2,9,10,0,5
48.625,48,19,6,19,36,17,13,14
48.63,17,11,1,3,8,12,11,2
48.635,66,1,29,17,32,2,1,13
48.64,2,18,89,3,24,11,7,2
48.645,18,2,23,7,2,8,4,1
48.65,26,2,20,9,13,0,4,10
48.655,17,4,11,3,33,14,9,8
48.66,3,3,12,0,47,12,6,0
48.665,21,3,28,15,54,10,2,7
48.67,26,18,49,1,65,10,2,5
48.675,3,4,1,0,23,7,4,2
48.68,10,18,21,7,38,8,3,0
48.685,5,23,18,13,3,17,3,0
48.69,0,4,17,2,12,7,2,2
48.695,10,5,29,4,4,9,3,0
48.7,11,1,27,8,1,2,2,4
48.705,17,1,4,12,51,5,1,9
48.71,0,9,29,3,37,8,3,2
48.715,2,3,8,6,19,3,2,3
48.72,5,3,17,4,2,6,2,0
48.725,12,2,27,6,10,2,7,9
48.73,8,1,2,3,13,7,3,3
48.735,1,4,14,3,13,2,6,1
48.74,2,8,23,1,7,2,5,1
48.745,4,1,5,5,8,0,1,2
48.75,8,1,5,2,2,4,1,3
48.755,7,6,2,3,0,7,3,1
48.76,7,9,11,5,13,3,3,2
48.765,2,1,2,4,12,2,4,4
48.77,3,1,3,10,11,4,1,1
48.775,2,3,3,11,9,1,1,0
48.78,2,1,5,50,98,3,2,2
48.785,4,10,18,60,104,8,4,5
48.79,1,1,7,4,65,5,1,6
48.795,1,0,3,12,38,2,2,6
48.8,0,6,0,0,79,4,0,2
48.805,29,13,18,7,44,19,5,6
48.81,30,8,13,61,89,16,5,4
48.815,10,17,10,28,67,21,6,6
48.82,14,31,1,39,80,13,8,29
48.825,10,21,8,36,97,5,1,12
48.83,11,23,4,4,5,6,1,4
48.835,25,28,2,7,17,0,4,8
48.84,10,2,13,12,79,5,9,39
48.845,37,19,11,78,34,4,6,11
48.85,22,3,6,23,3,4,2,13
48.855,26,23,14,71,70,22,17,62
48.86,42,40,7,15,30,10,1,11
48.865,17,2,4,16,42,3,1,6
48.87,19,13,7,6,47,5,1,29
48.875,4,14,10,14,25,14,11,25
48.88,10,13,12,45,26,2,6,2
48.885,7,9,13,98,127,16,5,15
48.89,9,13,31,56,128,19,5,11
48.895,5,5,4,4,21,5,0,10
48.9,5,0,2,19,69,3,4,2
48.905,9,5,2,9,24,4,2,5
48.91,9,1,7,22,53,5,2,10
48.915,6,6,2,23,38,5,0,0
48.92,5,0,6,16,95,11,2,15
48.925,12,6,9,11,6,9,2,8
48.93,10,10,1,3,18,8,4,6
48.935,1,2,3,2,2,0,1,14
48.94,4,1,2,25,30,3,6,2
48.945,3,7,5,11,27,2,0,0
48.95,9,1,1,19,27,1,2,3
48.955,1,2,0,17,6,4,1,9
48.96,2,2,0,1,1,1,5,2
48.965,1,1,4,17,13,2,1,4
48.97,8,4,0,19,23,1,2,4
48.975,3,2,10,10,28,0,1,4
48.98,2,1,11,8,48,3,0,0
48.985,1,1,11,20,45,3,1,3
48.99,1,1,3,7,23,1,4,1
48.995,0,4,2,15,54,5,2,5
49,2,1,2,7,38,2,1,1
49.005,1,2,3,32,127,5,3,3
49.01,3,1,2,27,72,3,3,1
49.015,3,2,4,19,7,2,1,1
49.02,2,1,6,18,42,10,2,6
49.025,2,2,3,5,24,1,1,2
49.03,2,4,4,10,73,1,3,1
49.035,3,3,2,3,18,1,3,7
49.04,1,0,1,2,2,1,2,0
49.045,1,1,2,4,12,1,2,1
49.05,2,0,5,1,20,1,1,1
49.055,3,3,5,22,66,5,4,4
49.06,2,2,3,7,58,3,2,1
49.065,0,2,3,14,16,5,5,2
49.07,5,4,3,17,5,10,6,4
49.075,0,1,0,27,3,11,4,1
49.08,0,1,10,3,9,0,3,1
49.085,1,2,2,8,32,5,1,3
49.09,1,5,7,17,72,10,4,0
49.095,3,1,1,1,25,6,2,3
49.1,0,1,5,32,56,1,1,1
49.105,2,6,31,41,7,2,1,1
49.11,2,2,1,4,28,3,1,1
49.115,1,3,2,11,37,10,4,1
49.12,0,2,3,1,5,9,2,1
49.125,1,1,10,30,47,1,2,1
49.13,2,1,1,3,5,3,0,0
49.135,1,3,6,12,16,1,3,1
49.14,0,2,2,0,29,4,4,1
49.145,2,1,1,5,7,4,3,3
49.15,2,1,9,3,2,3,0,1
49.155,0,2,3,14,55,1,3,2
49.16,2,2,3,19,73,5,0,2
49.165,2,1,1,14,1,2,1,3
49.17,2,1,1,4,25,1,2,3
49.175,1,1,1,4,15,5,2,2
49.18,1,2,0,3,8,0,2,1
49.185,1,2,4,5,4,2,0,1
49.19,2,0,3,2,2,1,0,2
49.195,3,1,1,1,33,2,4,2
49.2,2,1,4,3,26,1,3,2
49.205,1,0,3,3,8,4,7,4
49.21,0,0,2,8,1,0,1,1
49.215,1,3,6,1,1,0,1,2
49.22,1,3,3,7,3,4,2,2
49.225,2,0,1,6,5,4,4,1
49.23,0,0,0,2,6,1,1,1
49.235,1,0,2,9,5,1,2,1
49.24,1,1,1,2,4,5,3,1
49.245,0,0,5,22,51,1,4,1
49.25,0,4,9,44,84,1,4,0
49.255,0,3,0,18,33,6,1,1
49.26,1,0,1,6,29,1,1,1
49.265,0,0,0,8,26,6,3,3
49.27,2,0,1,13,15,7,4,3
49.275,2,1,2,12,5,4,3,3
49.28,3,3,0,6,23,8,2,3
49.285,2,3,2,16,22,3,3,1
49.29,0,0,1,4,13,1,1,1
49.295,1,2,3,3,26,1,0,0
49.3,1,1,2,6,1,4,2,2
49.305,1,2,7,8,3,0,1,1
49.31,1,1,2,1,11,3,1,3
49.315,1,1,1,1,1,3,1,2
49.32,1,2,1,6,13,6,1,0
49.325,1,2,0,8,5,1,1,1
49.33,2,2,0,6,4,1,0,3
49.335,0,1,4,4,14,1,1,1
49.34,1,1,1,10,20,2,0,0
49.345,2,2,5,28,52,3,1,4
49.35,1,3,1,14,48,4,3,2
49.355,2,0,1,3,27,6,1,0
49.36,1,0,0,2,5,11,4,1
49.365,1,1,3,8,23,2,2,3
49.37,2,0,0,7,29,5,4,1
49.375,2,3,0,4,4,5,2,3
49.38,1,3,3,14,19,1,2,3
49.385,2,1,2,19,14,3,2,3
49.39,1,0,0,8,14,1,1,2
49.395,3,3,6,1,2,3,1,2
49.4,1,1,1,1,11,2,2,1
49.405,3,0,2,4,6,2,2,3
49.41,2,2,0,5,3,0,2,1
49.415,1,1,1,2,6,1,0,0
49.42,1,1,1,9,2,2,2,3
49.425,1,0,1,6,3,0,2,1
49.43,8,1,0,3,17,9,2,3
49.435,0,3,1,10,22,11,2,0
49.44,2,1,5,29,36,8,2,2
49.445,1,3,7,4,13,5,4,2
49.45,10,2,1,0,12,2,3,3
49.455,19,8,3,7,13,1,4,4
49.46,0,0,5,27,1,5,4,3
49.465,3,1,3,15,18,4,0,0
49.47,0,1,2,3,19,4,4,2
49.475,10,0,12,7,11,1,1,4
49.48,4,1,6,4,7,4,2,4
49.485,11,4,3,11,5,0,4,4
49.49,0,4,8,9,28,6,2,0
49.495,9,1,2,12,50,7,0,3
49.5,10,3,2,4,3,1,0,3
49.505,6,2,6,18,21,0,1,1
49.51,1,3,4,2,5,2,0,0
49.515,0,1,11,0,27,8,5,1
49.52,8,2,9,11,74,13,6,2
49.525,11,4,13,0,48,4,3,2
49.53,8,15,4,2,33,5,6,0
49.535,1,9,25,14,39,6,1,0
49.54,18,24,38,15,23,15,1,4
49.545,25,6,9,6,24,0,1,2
49.55,47,13,50,2,59,6,1,4
49.555,17,29,77,3,43,28,6,2
49.56,15,5,10,3,2,4,2,2
49.565,45,12,95,8,55,17,10,12
49.57,16,28,31,43,40,10,9,12
49.575,48,42,37,8,70,36,3,1
49.58,75,10,16,23,72,0,6,1
49.585,11,28,18,11,43,15,7,2
49.59,26,49,128,11,34,34,12,1
49.595,71,35,69,9,16,6,1,6
49.6,43,20,63,30,18,20,5,9
49.605,107,12,51,5,55,18,21,40
49.61,114,38,75,26,86,29,21,4
49.615,73,23,18,3,30,65,16,2
49.62,33,37,42,45,34,53,14,33
49.625,25,6,44,66,11,54,4,13
49.63,90,43,24,1,2,31,8,34
49.635,59,48,111,68,48,28,4,2
49.64,55,10,62,81,78,28,9,12
49.645,128,29,41,15,12,31,10,27
49.65,73,42,9,0,42,4,3,8
49.655,30,42,42,2,50,15,9,6
49.66,4,1,5,34,60,2,4,5
49.665,1,17,68,12,28,4,4,5
49.67,36,8,18,4,10,4,5,0
49.675,69,14,49,10,26,51,13,2
49.68,11,12,28,22,25,9,3,6
49.685,4,7,16,17,20,3,1,2
49.69,73,1,18,2,28,18,7,7
49.695,51,2,29,5,18,10,4,0
49.7,25,11,25,16,7,0,1,0
49.705,13,10,11,4,25,3,2,5
49.71,59,3,27,1,36,16,5,10
49.715,46,14,6,6,18,2,4,2
49.72,23,7,10,4,6,19,1,7
49.725,35,9,22,1,49,2,1,6
49.73,24,2,14,8,1,0,1,4
49.735,26,7,23,14,13,4,5,1
49.74,0,1,10,16,9,5,2,2
49.745,1,1,17,4,21,10,2,1
49.75,29,7,8,3,9,7,0,3
49.755,23,10,29,0,16,6,2,5
49.76,5,6,21,11,8,7,3,1
49.765,21,2,7,5,34,6,2,1
49.77,53,8,3,2,2,7,2,8
49.775,16,1,15,9,16,8,0,1
49.78,1,1,7,2,5,3,1,2
49.785,5,1,4,3,13,17,6,2
49.79,5,4,1,0,12,0,1,0
49.795,9,2,12,1,9,2,1,1
49.8,4,2,10,3,1,2,1,0
49.805,5,1,8,1,9,3,4,4
49.81,7,6,8,2,9,4,1,1
49.815,6,2,11,3,6,5,4,2
49.82,6,2,0,4,10,1,3,1
49.825,7,2,5,1,3,12,2,3
49.83,6,4,2,6,1,2,3,0
49.835,15,1,5,3,3,0,1,1
49.84,4,1,1,1,4,4,1,0
49.845,5,0,7,32,40,2,2,5
49.85,1,2,3,28,10,5,4,7
49.855,3,0,2,7,12,0,3,8
49.86,4,3,6,2,20,5,0,0
49.865,3,1,3,7,20,5,2,2
49.87,4,4,2,2,15,2,0,2
49.875,0,3,1,4,11,9,5,8
49.88,5,0,0,16,38,4,0,0
49.885,2,1,4,11,4,2,4,1
49.89,2,1,4,34,46,5,1,1
49.895,0,3,4,59,29,3,1,0
49.9,0,1,3,0,34,1,3,1
49.905,1,0,2,10,3,4,1,1
49.91,2,1,2,9,77,0,2,1
49.915,0,2,2,62,68,14,4,3
49.92,0,1,3,2,81,5,2,2
49.925,2,1,0,10,86,4,2,5
49.93,3,2,2,23,24,5,3,2
49.935,6,0,3,27,8,4,2,5
49.94,5,1,5,21,120,10,1,3
49.945,1,1,1,22,98,5,2,12
49.95,6,2,0,1,6,1,4,15
49.955,1,0,6,10,40,10,6,31
49.96,3,2,6,19,51,4,2,18
49.965,1,4,3,4,29,4,2,2
49.97,2,2,4,8,9,3,1,8
49.975,3,2,0,16,7,5,3,13
49.98,3,1,7,23,7,18,7,4
49.985,1,0,0,22,28,1,1,0
49.99,1,0,2,1,27,2,1,4
49.995,1,3,7,27,72,10,1,5
50,1,1,2,26,121,11,2,1
50.005,2,2,6,63,128,19,8,5
50.01,1,5,5,17,28,3,2,11
50.015,3,0,6,44,86,4,3,8
50.02,1,0,0,0,69,1,1,2
50.025,1,1,2,29,28,9,3,1
50.03,6,1,5,23,41,5,0,6
50.035,0,2,1,6,20,3,3,7
50.04,1,4,8,42,93,7,4,4
50.045,0,1,3,8,21,6,2,4
50.05,2,0,0,8,4,2,2,4
50.055,2,0,2,5,5,2,0,5
50.06,2,0,1,6,0,2,2,1
50.065,1,2,0,14,12,1,1,2
50.07,3,3,3,23,23,7,4,6
50.075,1,0,3,23,39,5,1,2
50.08,2,3,21,5,3,1,1,4
50.085,3,1,1,1,7,0,2,2
50.09,1,1,1,6,48,2,0,0
50.095,1,2,0,16,61,1,2,1
50.1,2,2,2,23,66,6,4,3
50.105,0,4,9,7,23,3,0,3
50.11,3,1,0,5,6,4,5,1
50.115,1,4,3,20,57,5,2,1
50.12,1,1,2,11,69,3,0,3
50.125,1,0,2,20,11,1,0,0
50.13,3,2,0,9,16,4,4,2
50.135,2,3,0,8,19,1,2,4
50.14,0,1,6,17,42,4,0,1
50.145,1,1,2,5,32,1,1,4
50.15,2,3,3,5,19,2,1,1
50.155,2,1,1,9,45,1,1,5
50.16,2,1,1,6,30,0,2,1
50.165,3,1,4,6,6,2,1,3
50.17,0,0,0,13,80,0,1,2
50.175,4,1,5,29,80,9,5,2
50.18,0,1,1,7,41,1,0,1
50.185,0,1,1,2,29,0,0,2
50.19,0,1,1,9,26,4,2,1
50.195,2,2,0,6,16,1,3,1
50.2,1,0,3,3,15,1,1,2
50.205,2,0,1,0,9,0,1,1
50.21,2,3,5,9,26,5,3,5
50.215,1,2,0,3,13,0,2,0
50.22,1,1,0,4,8,1,4,2
50.225,2,2,0,9,9,0,1,1
50.23,0,1,7,4,25,1,0,1
50.235,1,2,0,2,4,4,2,2
50.24,1,1,0,4,23,2,3,1
50.245,2,1,1,2,9,1,0,1
50.25,0,0,0,9,40,2,0,0
50.255,0,1,4,31,59,5,3,3
50.26,1,1,1,4,9,0,0,2
50.265,2,0,2,4,9,2,2,3
50.27,0,4,5,6,7,1,2,3
50.275,0,2,1,9,20,1,2,1
50.28,2,0,2,0,15,5,1,1
50.285,3,0,0,8,26,9,3,2
50.29,3,1,0,3,24,0,1,2
50.295,1,1,0,7,22,6,0,1
50.3,2,2,6,18,60,10,4,2
50.305,0,1,2,1,64,5,0,0
50.31,1,1,1,11,68,10,1,0
50.315,0,0,4,1,36,0,1,1
50.32,0,2,10,20,39,4,1,1
50.325,2,1,1,9,19,2,0,1
50.33,1,2,1,1,6,3,1,1
50.335,1,0,1,4,7,1,0,0
50.34,1,2,2,3,9,6,3,0
50.345,0,1,1,1,7,1,1,1
50.35,0,2,1,1,9,3,1,1
50.355,1,1,4,2,13,2,2,3
50.36,2,3,3,2,14,1,1,2
50.365,2,3,4,1,14,1,1,3
50.37,1,0,1,19,16,1,1,1
50.375,0,3,3,5,29,0,0,1
50.38,1,1,1,1,9,1,3,1
50.385,1,1,1,10,26,2,2,1
50.39,1,2,2,27,49,1,4,3
50.395,1,0,1,1,4,2,2,0
50.4,1,1,1,3,6,1,0,1
50.405,0,2,0,2,1,4,2,2
50.41,1,0,2,5,24,5,1,0
50.415,1,1,2,1,8,2,0,1
50.42,2,1,1,1,8,0,2,3
50.425,0,2,2,12,22,1,1,1
50.43,2,1,3,5,20,5,4,3
50.435,1,0,1,1,6,1,1,1
50.44,1,1,0,1,4,6,2,0
50.445,1,1,1,9,6,0,1,0
50.45,1,1,3,16,10,6,2,3
50.455,3,2,2,9,0,5,2,3
50.46,1,2,0,8,9,3,2,0
50.465,0,1,2,1,4,3,0,0
50.47,2,2,4,6,16,0,1,2
50.475,0,0,0,2,25,1,1,1
50.48,2,2,0,3,65,6,3,5
50.485,2,1,2,22,18,2,2,2
50.49,2,2,1,9,21,1,0,2
50.495,3,6,3,13,4,5,5,3
50.5,1,1,0,19,34,4,0,1
50.505,3,2,1,9,51,5,3,1
50.51,2,2,3,9,20,3,0,1
50.515,0,0,0,7,27,4,0,0
50.52,0,2,1,6,30,2,1,1
50.525,1,2,3,3,20,3,1,1
50.53,1,0,1,5,34,0,1,1
50.535,0,2,2,15,3,1,1,0
50.54,1,7,2,14,30,0,3,1
50.545,0,3,4,6,1,3,0,0
50.55,0,0,1,4,37,1,0,2
50.555,4,3,0,7,31,1,5,4
50.56,2,14,10,26,25,2,3,2
50.565,2,4,2,16,12,3,3,2
50.57,2,5,21,13,10,15,6,5
50.575,5,12,1,1,35,15,5,1
50.58,1,38,27,7,11,10,4,5
50.585,12,31,38,21,4,15,5,8
50.59,9,10,4,18,31,1,3,5
50.595,2,9,61,8,2,3,6,4
50.6,22,24,57,13,57,3,3,1
50.605,11,6,8,6,17,1,7,7
50.61,21,15,58,37,50,23,10,5
50.615,73,18,7,19,59,13,5,14
50.62,8,1,39,30,59,13,4,6
50.625,82,21,1,2,14,18,9,21
50.63,29,3,103,95,29,2,5,2
50.635,30,0,68,71,18,8,1,2
50.64,39,42,118,56,15,18,1,0
50.645,46,8,80,90,40,18,3,5
50.65,86,26,32,34,16,19,0,11
50.655,35,3,63,15,46,8,6,0
50.66,1,29,127,14,31,19,0,9
50.665,4,20,77,18,18,3,4,2
50.67,38,44,40,9,40,9,1,8
50.675,20,24,17,27,40,2,6,3
50.68,8,4,6,47,23,5,11,11
50.685,17,9,34,32,28,8,1,5
50.69,3,22,46,11,4,32,5,1
50.695,51,8,8,4,14,12,3,9
50.7,6,4,1,1,7,1,7,9
50.705,9,16,5,8,4,6,3,0
50.71,21,7,68,1,13,11,5,3
50.715,17,7,3,11,21,11,1,3
50.72,8,10,7,15,8,6,0,0
50.725,11,3,26,7,9,19,9,7
50.73,3,7,49,13,8,4,2,0
50.735,23,5,16,13,3,4,4,3
50.74,7,15,52,3,8,1,5,3
50.745,2,5,28,6,23,5,2,1
50.75,8,5,62,12,4,17,0,3
50.755,13,1,14,8,9,8,3,3
50.76,11,7,6,4,3,5,1,2
50.765,3,14,10,0,8,4,2,1
50.77,3,7,10,4,23,6,5,2
50.775,17,5,8,5,5,2,0,4
50.78,22,6,35,6,7,5,2,0
50.785,3,24,24,7,2,15,3,2
50.79,4,4,22,11,6,14,1,1
50.795,6,2,3,6,12,8,2,2
50.8,6,1,16,4,10,6,1,1
50.805,2,1,5,3,2,5,1,1
50.81,1,6,22,1,9,15,4,2
50.815,7,0,17,1,6,2,4,6
50.82,6,2,13,5,18,22,3,1
50.825,1,1,0,8,3,10,2,1
50.83,2,9,26,16,11,5,1,2
50.835,10,3,9,3,18,12,6,4
50.84,5,7,13,1,11,2,4,1
50.845,1,1,4,1,1,6,3,2
50.85,0,2,2,2,7,5,2,1
50.855,6,3,2,0,6,0,1,3
50.86,5,5,17,3,6,1,1,0
50.865,2,1,12,10,10,3,2,0
50.87,1,2,6,3,3,3,2,0
50.875,5,3,7,3,5,1,2,1
50.88,5,4,16,2,6,0,0,1
50.885,2,3,9,2,1,4,2,3
50.89,0,3,1,3,5,2,0,3
50.895,4,2,5,8,6,4,3,0
50.9,1,0,7,9,37,3,3,8
50.905,3,2,0,30,33,8,2,3
50.91,1,1,4,7,55,0,0,0
50.915,1,2,11,11,21,1,1,5
50.92,2,1,1,4,48,3,1,2
50.925,3,3,6,17,26,11,8,10
50.93,2,11,2,22,45,7,5,2
50.935,3,0,3,4,17,3,0,10
50.94,2,2,0,2,42,5,1,2
50.945,4,2,2,19,29,9,2,3
50.95,2,1,1,12,35,8,6,10
50.955,3,3,3,8,19,2,2,8
50.96,1,1,2,8,11,1,1,1
50.965,3,0,3,19,10,4,1,2
50.97,4,3,4,13,12,5,4,1
50.975,1,2,1,19,20,0,3,0
50.98,2,2,9,14,65,8,4,2
50.985,3,1,2,18,11,3,1,6
50.99,0,1,3,27,48,6,1,10
50.995,2,0,0,8,60,0,3,4
51,1,0,3,5,21,0,2,2
51.005,1,1,4,26,40,3,1,2
51.01,3,3,2,22,9,2,2,3
51.015,0,1,5,39,95,7,1,3
51.02,1,2,1,1,73,4,2,2
51.025,0,1,1,26,19,3,1,1
51.03,2,1,3,21,23,3,1,2
51.035,1,3,2,32,1,3,1,3
51.04,1,1,1,14,52,0,0,1
51.045,0,1,2,7,44,0,0,1
51.05,2,2,4,21,16,1,2,6
51.055,1,0,3,31,95,5,1,6
51.06,2,2,6,32,122,10,1,1
51.065,3,2,3,6,86,6,5,3
51.07,2,1,1,13,4,6,3,3
51.075,3,1,1,11,31,2,1,1
51.08,0,1,0,8,26,1,0,6
51.085,2,2,3,14,3,1,2,3
51.09,3,2,7,32,1,3,1,2
51.095,3,2,2,4,10,7,4,6
51.1,2,1,0,4,33,2,1,1
51.105,2,1,1,2,9,1,2,3
51.11,1,1,7,37,30,1,1,0
51.115,1,3,3,26,21,2,3,2
51.12,1,3,5,10,60,1,1,1
51.125,0,2,2,2,43,2,4,1
51.13,3,1,3,2,31,9,3,1
51.135,1,2,1,4,8,3,0,2
51.14,1,1,3,20,63,0,4,1
51.145,5,1,2,2,78,9,7,4
51.15,1,1,1,16,49,6,1,1
51.155,1,1,1,5,25,3,5,2
51.16,1,0,1,7,35,4,0,0
51.165,2,5,8,11,1,9,5,5
51.17,3,4,3,5,24,6,4,3
51.175,2,1,2,4,10,5,1,2
51.18,1,1,1,11,12,6,2,1
51.185,1,1,2,1,71,2,1,1
51.19,1,1,1,1,26,2,2,0
51.195,1,2,4,6,8,1,1,1
51.2,2,1,1,1,30,0,1,2
51.205,1,0,2,7,56,1,0,3
51.21,2,1,1,3,7,1,2,1
51.215,0,1,1,4,4,0,1,0
51.22,1,1,4,11,23,1,1,1
51.225,1,2,0,2,11,0,1,0
51.23,1,2,1,6,1,2,1,1
51.235,1,2,1,2,87,6,2,2
51.24,3,3,1,11,58,14,4,1
51.245,4,3,4,3,16,1,3,2
51.25,0,1,2,10,33,4,2,0
51.255,0,2,1,4,20,2,2,1
51.26,0,3,1,8,52,2,0,1
51.265,0,1,5,23,45,3,0,1
51.27,0,2,1,6,35,2,1,2
51.275,4,2,2,2,9,4,3,4
51.28,0,1,3,5,1,0,2,1
51.285,2,0,2,13,41,2,4,4
51.29,1,1,1,9,6,0,0,1
51.295,2,0,0,2,47,1,6,3
51.3,2,3,2,7,8,1,1,2
51.305,0,2,2,30,45,2,1,1
51.31,1,1,4,12,13,2,2,3
51.315,3,0,2,2,24,5,5,4
51.32,1,1,1,1,10,0,1,3
51.325,0,0,2,17,31,1,2,1
51.33,0,1,2,1,9,3,1,3
51.335,1,2,2,5,32,2,2,2
51.34,3,1,1,5,12,2,3,3
51.345,1,1,1,4,13,2,1,0
51.35,1,0,2,5,15,0,1,2
51.355,3,2,1,1,69,8,1,2
51.36,2,1,3,6,11,2,4,2
51.365,1,1,2,13,43,0,0,1
51.37,1,1,3,12,7,3,0,1
51.375,1,3,2,2,8,2,1,1
51.38,1,0,0,2,14,1,1,0
51.385,1,1,3,11,1,0,3,1
51.39,0,0,1,2,1,2,2,3
51.395,3,0,1,0,0,4,4,4
51.4,3,3,6,5,5,1,1,2
51.405,1,2,2,6,20,1,2,2
51.41,2,1,2,3,13,0,0,1
51.415,2,1,2,6,13,3,1,1
51.42,2,0,2,10,45,0,0,0
51.425,0,1,2,12,71,1,1,1
51.43,1,2,3,4,6,5,4,1
51.435,0,0,1,12,12,4,2,3
51.44,0,1,3,1,37,1,1,0
51.445,3,1,1,12,97,4,1,0
51.45,2,2,1,2,2,0,2,1
51.455,1,0,1,2,16,2,2,2
51.46,3,1,2,1,6,0,3,2
51.465,1,2,1,4,8,1,1,2
51.47,1,1,5,1,10,1,0,1
51.475,2,1,2,1,5,3,4,1
51.48,0,0,0,4,35,1,0,2
51.485,1,1,1,2,1,2,2,2
51.49,1,2,3,4,4,2,1,2
51.495,1,0,1,1,18,1,2,1
51.5,2,2,0,3,4,1,2,1
51.505,2,3,0,0,22,1,1,3
51.51,0,1,2,5,15,1,1,1
51.515,0,2,3,2,1,2,0,1
51.52,0,1,3,4,27,7,3,2
51.525,1,2,3,11,31,5,2,0
51.53,1,1,1,8,30,2,2,0
51.535,0,2,0,1,12,1,1,1
51.54,1,0,5,15,15,16,4,3
51.545,3,6,7,9,66,7,0,1
51.55,0,3,8,25,17,5,1,2
51.555,3,2,8,24,22,1,0,1
51.56,0,13,5,3,52,3,2,1
51.565,2,4,15,4,27,15,2,2
51.57,8,23,48,20,20,1,5,14
51.575,0,11,24,18,125,4,2,7
51.58,5,6,16,25,25,6,7,14
51.585,11,9,20,29,116,10,2,3
51.59,16,11,34,45,73,25,4,3
51.595,9,1,35,11,71,3,0,9
51.6,15,42,80,61,37,1,8,15
51.605,19,43,57,23,4,0,3,16
51.61,7,61,58,9,43,14,4,6
51.615,9,17,41,34,81,10,6,12
51.62,14,5,48,23,3,12,2,14
51.625,8,14,31,11,14,9,8,10
51.63,14,43,84,3,9,11,6,1
51.635,6,19,30,17,35,14,10,8
51.64,8,49,32,19,35,6,2,1
51.645,19,62,67,5,17,17,9,13
51.65,4,33,2,2,27,37,8,15
51.655,6,51,40,4,18,18,7,8
51.66,8,32,73,1,16,12,5,5
51.665,10,2,56,29,36,6,12,8
51.67,5,5,8,42,41,7,8,7
51.675,13,1,84,17,13,19,9,6
51.68,7,10,77,33,19,31,14,9
51.685,33,5,56,18,36,2,17,10
51.69,19,13,73,24,66,19,16,5
51.695,5,27,7,39,39,6,5,2
51.7,5,64,28,22,2,9,7,6
51.705,22,4,90,28,43,27,6,1
51.71,7,17,38,9,4,23,5,3
51.715,14,7,22,42,50,8,1,5
51.72,18,12,78,15,0,6,3,6
51.725,15,5,37,18,19,14,12,8
51.73,3,4,0,29,38,12,2,2
51.735,26,9,45,17,41,7,2,4
51.74,3,23,128,1,50,1,6,1
51.745,3,25,31,26,27,18,1,7
51.75,0,1,32,3,5,6,3,5
51.755,8,2,76,8,3,9,4,2
51.76,13,17,127,4,3,1,3,6
51.765,14,2,24,17,21,13,8,6
51.77,3,16,65,11,29,0,4,1
51.775,3,5,13,30,16,4,2,2
51.78,6,14,39,46,4,2,4,5
51.785,3,3,37,57,1,1,6,4
51.79,1,1,26,14,39,6,1,0
51.795,7,15,44,18,40,1,4,2
51.8,1,1,28,1,2,3,1,2
51.805,4,4,3,17,7,7,3,1
51.81,7,6,7,12,13,1,2,3
51.815,7,9,3,8,19,2,3,1
51.82,6,2,29,2,8,6,2,2
51.825,4,11,23,1,1,1,1,3
51.83,2,5,28,12,16,1,3,3
51.835,3,10,6,4,8,3,4,3
51.84,2,2,16,13,7,1,0,1
51.845,2,1,7,4,27,7,4,0
51.85,5,2,7,0,7,1,2,4
51.855,1,1,9,2,8,5,2,2
51.86,5,1,4,15,26,2,2,2
51.865,1,2,15,16,5,8,1,1
51.87,0,1,5,9,1,7,1,1
51.875,0,10,16,0,1,1,1,4
51.88,0,1,5,21,34,3,3,1
51.885,8,0,6,32,93,0,0,6
51.89,6,1,3,30,96,5,3,5
51.895,3,6,2,6,51,5,4,9
51.9,1,4,4,25,81,1,1,2
51.905,7,4,10,23,78,1,2,4
51.91,1,0,6,1,86,11,6,24
51.915,6,10,14,3,102,11,3,21
51.92,4,7,7,11,34,14,9,30
51.925,2,13,3,3,40,5,2,5
51.93,12,13,2,6,54,0,8,55
51.935,2,2,3,21,41,4,3,25
51.94,11,1,1,19,85,8,4,55
51.945,7,2,2,45,94,1,3,48
51.95,60,8,0,6,2,11,3,49
51.955,6,3,6,28,76,5,5,24
51.96,18,14,6,43,127,13,7,46
51.965,0,6,7,2,128,9,6,14
51.97,0,9,3,11,64,9,0,15
51.975,8,1,2,14,1,0,0,7
51.98,13,5,3,14,28,1,2,24
51.985,11,6,4,3,46,10,7,5
51.99,10,6,1,13,62,0,2,18
51.995,3,9,8,18,78,7,0,22
52,11,17,3,2,69,10,0,25
52.005,17,3,2,12,78,10,3,12
52.01,1,2,3,54,127,8,2,0
52.015,11,1,9,24,9,11,5,5
52.02,15,0,0,24,35,3,2,9
52.025,8,1,5,6,54,14,11,15
52.03,3,6,5,30,48,6,1,4
52.035,3,3,4,13,111,7,3,5
52.04,8,1,7,19,59,4,3,3
52.045,5,3,0,43,77,2,7,12
52.05,6,3,4,15,5,5,11,0
52.055,6,4,3,7,34,5,0,1
52.06,4,6,1,2,7,4,3,15
52.065,3,1,2,25,3,5,0,4
52.07,1,2,5,34,52,8,4,3
52.075,1,1,2,5,37,5,2,18
52.08,3,7,3,57,123,2,5,12
52.085,3,2,10,29,41,5,3,4
52.09,1,1,0,19,22,2,3,5
52.095,1,2,0,6,4,2,2,15
52.1,3,1,7,45,89,6,1,13
52.105,2,1,5,15,47,10,1,5
52.11,3,4,5,1,41,8,0,1
52.115,4,2,4,5,58,1,1,1
52.12,6,4,7,18,67,7,4,5
52.125,3,2,0,16,21,5,3,4
52.13,3,4,3,11,18,2,0,8
52.135,1,1,2,4,4,1,3,4
52.14,4,2,3,7,10,1,1,6
52.145,3,2,1,9,29,2,1,12
52.15,0,1,1,30,6,5,0,3
52.155,2,1,3,48,107,9,1,2
52.16,3,9,3,33,35,3,0,1
52.165,2,2,3,26,39,6,2,3
52.17,0,0,2,4,3,2,3,1
52.175,1,3,13,14,13,0,0,1
52.18,2,1,2,5,33,1,1,3
52.185,3,2,0,10,32,3,1,3
52.19,1,2,5,13,6,1,1,0
52.195,1,1,7,12,3,3,1,3
52.2,3,1,7,11,81,5,3,1
52.205,1,0,0,12,45,4,2,1
52.21,2,2,4,26,63,4,3,3
52.215,1,2,1,8,39,2,4,4
52.22,1,0,2,6,18,0,0,0
52.225,2,1,0,6,14,5,3,4
52.23,0,2,1,0,19,3,1,2
52.235,0,1,3,4,2,1,0,0
52.24,1,2,6,7,7,1,1,0
52.245,0,0,1,9,25,1,0,5
52.25,1,0,0,4,14,1,3,3
52.255,2,1,1,9,18,2,2,1
52.26,2,3,3,24,13,1,1,1
52.265,1,4,6,13,6,2,5,3
52.27,2,0,1,10,23,2,0,2
52.275,3,3,1,21,57,5,2,3
52.28,1,1,2,23,13,0,1,0
52.285,2,1,2,14,40,1,2,3
52.29,2,2,4,1,24,4,4,4
52.295,0,2,1,9,34,9,5,4
52.3,0,0,1,2,3,2,1,2
52.305,1,1,4,1,22,3,1,2
52.31,2,1,1,12,2,0,1,0
52.315,1,0,1,9,28,1,1,6
52.32,0,3,4,11,23,3,3,2
52.325,0,4,2,1,18,6,1,1
52.33,2,1,3,13,25,13,1,1
52.335,0,2,0,13,29,1,1,1
52.34,2,3,0,10,48,7,1,2
52.345,1,1,3,16,67,2,0,1
52.35,1,1,0,7,19,5,5,3
52.355,0,1,0,8,51,4,1,0
52.36,1,1,2,11,36,0,1,0
52.365,1,0,1,6,32,1,2,3
52.37,0,1,1,10,21,3,1,1
52.375,1,1,4,10,1,5,3,2
52.38,3,1,0,17,8,0,2,3
52.385,1,2,1,9,55,1,1,1
52.39,1,2,5,9,87,1,0,2
52.395,1,1,1,3,19,4,2,3
52.4,2,2,2,1,6,0,1,1
52.405,1,1,0,12,19,7,1,2
52.41,2,1,3,27,12,2,1,2
52.415,2,0,0,0,1,4,4,2
52.42,2,0,0,1,33,3,2,2
52.425,1,2,0,5,13,4,1,0
52.43,1,2,0,8,11,9,2,1
52.435,2,2,6,3,4,3,0,1
52.44,0,0,1,3,13,2,3,2
52.445,1,3,2,5,8,1,3,5
52.45,2,0,1,9,16,11,3,1
52.455,0,3,3,0,5,0,1,1
52.46,1,1,0,9,2,2,1,0
52.465,1,2,1,4,10,2,2,0
52.47,2,2,1,3,16,2,2,0
52.475,1,1,0,2,9,5,1,0
52.48,1,0,0,4,4,0,1,0
52.485,2,2,1,9,9,1,0,2
52.49,2,0,2,4,4,3,2,3
52.495,2,1,0,4,3,1,0,2
52.5,1,2,1,0,8,5,1,2
52.505,3,1,2,7,12,5,0,1
52.51,1,1,1,3,8,10,3,2
52.515,1,1,1,0,2,2,0,1
52.52,1,0,3,5,17,3,2,2
52.525,0,1,1,2,7,1,4,1
52.53,1,1,2,3,6,3,2,0
52.535,2,2,1,3,1,1,1,0
52.54,1,1,2,4,6,12,0,1
52.545,1,0,0,5,23,8,4,3
52.55,1,1,2,8,13,3,0,0
52.555,2,1,2,2,46,4,1,2
52.56,3,3,10,8,50,1,2,1
52.565,2,1,1,6,22,13,6,2
52.57,3,1,3,4,25,3,2,1
52.575,2,8,1,19,33,6,5,2
52.58,1,2,4,8,11,2,1,1
52.585,0,4,6,10,15,4,1,1
52.59,2,1,10,12,2,6,2,3
52.595,1,1,6,1,26,1,1,0
52.6,0,3,2,13,25,0,0,0
52.605,1,9,3,9,7,3,1,0
52.61,5,2,14,8,16,8,4,9
52.615,0,10,8,4,9,0,4,2
52.62,3,13,19,9,12,19,7,3
52.625,1,4,29,2,29,18,8,2
52.63,1,3,44,8,26,7,1,0
52.635,7,14,15,6,23,8,7,6
52.64,1,10,8,17,45,4,6,0
52.645,3,10,2,9,15,1,2,1
52.65,0,8,18,4,39,12,11,4
52.655,7,18,14,19,33,8,5,2
52.66,3,30,52,22,24,13,2,4
52.665,16,20,58,30,44,1,1,12
52.67,17,7,1,12,37,32,16,0
52.675,1,24,5,6,12,16,3,4
52.68,14,48,72,15,42,59,4,7
52.685,14,37,28,2,16,26,14,9
52.69,22,48,54,6,20,28,0,7
52.695,8,22,12,10,26,26,8,0
52.7,9,0,10,2,21,9,3,1
52.705,7,28,19,26,56,13,4,5
52.71,3,1,28,4,48,13,0,1
52.715,17,0,17,11,4,14,1,2
52.72,0,26,35,16,34,7,0,5
52.725,10,7,14,48,26,13,1,2
52.73,5,13,23,3,18,9,4,0
52.735,17,23,15,0,20,15,3,1
52.74,32,39,54,20,2,13,0,5
52.745,37,15,26,22,10,15,4,0
52.75,17,4,3,24,17,13,1,1
52.755,23,20,4,4,21,2,3,4
52.76,10,18,15,30,3,28,6,2
52.765,2,3,24,3,9,20,1,2
52.77,6,11,0,9,30,7,2,1
52.775,6,10,7,10,18,8,9,5
52.78,9,13,34,0,1,10,0,3
52.785,6,11,5,14,11,2,4,1
52.79,13,12,4,0,3,1,2,5
52.795,7,1,30,13,1,8,5,1
52.8,0,10,17,15,23,19,0,0
52.805,7,4,3,7,3,11,0,2
52.81,1,7,4,7,2,0,1,2
52.815,11,8,17,11,0,3,5,2
52.82,1,12,10,6,20,10,4,4
52.825,2,14,7,2,13,2,1,1
52.83,2,8,8,3,12,1,2,1
52.835,9,1,6,5,6,16,6,3
52.84,20,4,6,5,2,12,3,1
52.845,2,3,6,2,3,2,2,0
52.85,7,3,9,7,7,4,4,5
52.855,5,8,1,4,5,6,1,0
52.86,5,0,1,7,31,8,6,5
52.865,10,1,7,2,8,1,0,3
52.87,1,2,0,5,5,4,2,2
52.875,1,1,9,5,0,6,0,1
52.88,7,2,3,2,0,1,1,0
52.885,3,2,3,1,3,2,1,0
52.89,7,8,9,6,6,2,2,4
52.895,2,0,3,2,36,7,1,1
52.9,1,1,3,2,4,9,2,0
52.905,2,2,3,3,9,8,0,1
52.91,4,4,4,3,1,1,3,3
52.915,0,1,3,2,1,0,1,2
52.92,3,0,1,2,2,2,0,0
52.925,0,1,2,5,11,5,2,1
52.93,3,5,12,0,6,3,2,2
52.935,1,2,8,10,5,2,1,1
52.94,2,2,1,3,2,4,0,0
52.945,2,2,2,1,4,1,0,1
52.95,3,0,2,2,5,3,3,2
52.955,0,2,1,2,2,3,4,3
52.96,1,0,1,2,1,1,0,1
52.965,0,3,1,2,7,4,2,1
52.97,1,2,4,2,14,12,2,0
52.975,0,2,2,6,29,3,2,1
52.98,0,2,3,4,9,6,1,3
52.985,3,4,7,14,24,9,6,2
52.99,0,2,5,14,17,4,2,1
52.995,1,6,1,9,5,4,0,4
53,2,1,1,5,14,1,2,0
53.005,4,1,1,28,3,4,3,1
53.01,12,8,12,27,3,14,6,5
53.015,1,3,4,1,26,2,0,1
53.02,0,1,1,23,1,7,4,4
53.025,3,3,2,21,38,2,1,4
53.03,3,2,2,13,25,5,4,3
53.035,1,2,2,11,26,1,2,4
53.04,0,0,7,39,99,10,1,10
53.045,6,5,1,63,47,2,1,22
53.05,15,23,6,3,61,11,2,47
53.055,6,5,7,33,20,5,4,33
53.06,15,26,2,2,8,10,0,40
53.065,1,4,2,6,14,4,1,4
53.07,4,5,2,4,76,7,3,26
53.075,1,8,1,13,55,2,1,12
53.08,7,11,3,12,1,4,3,17
53.085,4,1,0,21,102,8,0,0
53.09,4,1,2,16,105,16,4,11
53.095,3,2,1,32,80,5,3,16
53.1,4,6,6,80,112,9,1,8
53.105,3,4,2,3,1,1,1,10
53.11,0,2,2,39,89,10,2,9
53.115,2,5,4,43,60,8,4,2
53.12,0,8,3,28,48,6,1,5
53.125,5,7,2,29,4,4,2,10
53.13,2,7,5,35,38,15,3,4
53.135,2,1,4,26,7,8,6,19
53.14,6,3,0,35,18,3,2,3
53.145,3,4,5,10,9,5,1,17
53.15,3,4,3,42,5,0,1,17
53.155,1,1,0,10,30,1,0,14
53.16,1,4,1,19,47,2,5,23
53.165,6,2,1,12,1,8,3,7
53.17,0,4,2,26,14,2,2,24
53.175,9,1,2,4,56,3,0,29
53.18,20,5,6,6,40,1,1,2
53.185,11,1,1,24,4,1,0,44
53.19,2,0,0,19,15,7,1,2
53.195,3,4,6,20,2,6,5,40
53.2,4,1,2,20,23,0,5,3
53.205,3,1,12,12,14,3,1,12
53.21,7,6,13,16,9,5,3,1
53.215,0,0,1,12,27,1,0,9
53.22,0,1,3,3,5,1,2,5
53.225,4,3,1,11,0,2,3,12
53.23,2,0,22,14,17,6,5,6
53.235,3,1,0,11,13,3,1,13
53.24,7,1,3,15,13,2,3,8
53.245,3,1,7,3,12,3,3,14
53.25,5,1,0,40,44,5,0,3
53.255,5,3,3,6,27,3,2,13
53.26,0,1,2,2,22,2,0,2
53.265,2,3,2,2,14,1,3,12
53.27,3,1,4,33,6,2,2,2
53.275,1,4,3,69,75,8,0,11
53.28,3,2,6,17,4,1,0,1
53.285,2,0,5,9,0,4,0,9
53.29,2,2,5,2,81,1,1,4
53.295,2,1,3,2,94,6,0,4
53.3,0,1,3,3,30,1,1,2
53.305,6,1,4,4,20,1,2,6
53.31,1,1,3,5,44,0,0,5
53.315,0,2,0,14,53,5,1,4
53.32,2,0,4,6,51,4,0,2
53.325,2,2,0,17,3,4,2,4
53.33,1,1,4,18,34,3,1,2
53.335,1,2,0,11,31,1,1,7
53.34,1,0,0,4,23,1,4,2
53.345,1,0,1,16,8,0,0,3
53.35,1,0,5,16,52,1,3,1
53.355,2,3,2,3,38,1,2,0
53.36,1,1,1,2,5,1,2,1
53.365,1,0,2,5,22,3,2,2
53.37,3,2,3,3,20,1,1,2
53.375,2,2,1,12,9,1,1,1
53.38,1,2,0,3,11,1,4,2
53.385,4,1,2,2,13,4,6,5
53.39,3,2,11,3,40,4,7,6
53.395,1,0,3,1,61,2,1,1
53.4,1,2,2,35,75,7,3,2
53.405,3,3,4,1,15,0,2,1
53.41,2,0,2,5,14,3,4,2
53.415,1,1,2,14,58,1,0,2
53.42,0,0,0,7,8,2,1,2
53.425,2,0,1,6,25,5,1,4
53.43,0,2,7,0,3,1,3,3
53.435,0,2,3,4,18,2,1,1
53.44,1,3,3,1,3,4,3,1
53.445,1,1,3,2,1,2,1,1
53.45,1,0,2,9,3,0,2,2
53.455,2,3,5,18,2,5,5,3
53.46,2,0,0,1,10,2,2,2
53.465,1,2,3,2,4,0,2,2
53.47,2,1,3,5,24,2,4,4
53.475,3,0,1,4,5,0,3,0
53.48,0,1,1,4,15,1,4,3
53.485,0,1,2,12,80,2,1,0
53.49,2,1,6,19,103,2,1,0
53.495,0,1,5,20,9,3,2,1
53.5,2,3,1,9,19,8,3,2
53.505,2,3,2,2,5,0,3,1
53.51,1,0,0,5,35,0,2,1
53.515,1,0,1,12,4,2,0,3
53.52,1,2,1,5,6,2,2,0
53.525,1,0,1,4,16,2,1,1
53.53,0,1,2,2,2,0,1,0
53.535,1,2,2,1,1,1,1,1
53.54,2,2,3,1,14,3,1,0
53.545,2,2,1,4,23,1,2,3
53.55,0,2,3,5,8,0,2,2
53.555,0,0,3,4,0,6,1,0
53.56,1,1,1,1,10,3,3,3
53.565,2,3,6,4,21,1,2,1
53.57,1,2,1,5,2,0,1,0
53.575,2,0,0,4,11,1,2,0
53.58,2,0,3,9,11,3,1,1
53.585,0,2,2,4,47,3,1,1
53.59,3,3,2,7,52,9,7,4
53.595,3,3,5,6,50,4,3,2
53.6,1,1,4,24,39,1,2,1
53.605,0,1,1,2,6,0,0,1
53.61,0,2,8,19,29,4,2,2
53.615,2,0,2,7,7,2,0,0
53.62,1,0,3,11,12,1,2,0
53.625,2,1,3,19,6,1,0,3
53.63,2,3,2,3,10,5,2,3
53.635,0,0,1,4,41,1,3,1
53.64,1,1,2,6,2,5,2,0
53.645,0,0,2,2,11,1,1,3
53.65,1,1,2,8,1,1,0,3
53.655,1,2,1,1,13,2,1,1
53.66,0,3,0,1,20,1,1,1
53.665,1,0,1,6,14,4,1,1
53.67,0,0,0,7,1,1,1,2
53.675,4,1,1,4,17,1,2,2
53.68,1,0,0,8,27,2,1,0
53.685,2,1,5,0,21,2,0,0
53.69,1,3,5,17,65,1,2,2
53.695,1,0,3,5,14,1,1,0
53.7,3,2,3,10,22,3,4,5
53.705,2,0,3,1,47,3,0,1
53.71,4,7,1,19,25,1,1,2
53.715,0,1,1,21,34,1,2,2
53.72,2,0,0,1,7,2,1,1
53.725,1,0,3,6,2,5,4,1
53.73,0,2,2,5,17,1,2,2
53.735,0,9,4,0,8,3,1,2
53.74,2,0,3,10,16,1,1,0
53.745,1,3,4,6,20,5,4,5
53.75,0,3,4,1,8,2,0,0
53.755,2,0,1,1,10,3,2,3
53.76,0,13,11,0,12,3,1,0
53.765,1,2,4,4,25,4,2,0
53.77,0,8,2,26,22,0,1,0
53.775,2,4,3,12,15,2,1,0
53.78,2,1,0,13,40,4,1,1
53.785,3,5,9,28,51,12,7,7
53.79,2,5,3,6,17,4,1,1
53.795,1,3,1,11,0,5,0,0
53.8,1,1,19,17,29,1,2,3
53.805,1,2,39,2,16,3,3,3
53.81,1,26,6,11,23,1,1,1
53.815,0,14,14,8,30,4,3,5
53.82,2,10,50,7,54,8,2,4
53.825,4,12,44,17,19,11,6,4
53.83,4,4,34,3,1,8,2,2
53.835,0,20,21,2,1,9,4,1
53.84,2,8,10,13,4,3,4,4
53.845,16,22,14,4,46,7,1,5
53.85,2,21,20,4,73,4,1,1
53.855,25,49,30,10,58,7,22,8
53.86,21,72,100,18,27,5,1,0
53.865,33,15,39,10,15,16,1,6
53.87,18,2,44,8,8,45,15,3
53.875,1,68,86,7,14,14,6,0
53.88,2,27,34,16,32,15,5,6
53.885,39,28,79,2,35,17,7,3
53.89,39,40,39,10,22,6,4,9
53.895,3,17,32,2,75,11,1,4
53.9,38,20,71,16,11,24,4,0
53.905,47,5,79,20,6,25,6,4
53.91,2,64,62,23,12,13,0,1
53.915,2,44,62,8,48,19,16,5
53.92,7,31,70,10,10,3,0,6
53.925,9,10,68,33,2,10,6,0
53.93,6,12,41,13,16,7,4,1
53.935,3,13,1,5,19,25,3,1
53.94,12,11,4,12,12,11,6,0
53.945,33,19,41,5,13,1,3,3
53.95,36,22,91,15,31,7,3,4
53.955,4,5,14,4,28,2,5,2
53.96,11,22,42,4,5,11,3,3
53.965,9,12,21,3,4,26,6,4
53.97,10,4,53,3,6,8,1,3
53.975,0,20,9,5,5,10,2,1
53.98,1,29,15,9,11,5,2,3
53.985,1,6,1,4,12,10,1,1
53.99,12,3,24,18,14,18,0,0
53.995,12,7,23,1,17,17,6,5
54,1,11,28,5,1,11,5,1
54.005,2,0,13,1,0,7,2,1
54.01,22,1,1,4,10,3,1,2
54.015,25,1,2,2,8,2,3,5
54.02,8,18,14,4,3,15,2,1
54.025,14,6,11,7,5,2,5,3
54.03,3,6,21,3,1,11,4,3
54.035,0,4,24,10,6,13,0,1
54.04,4,20,15,3,24,21,6,6
54.045,3,10,7,14,60,11,4,0
54.05,1,1,9,27,0,2,1,2
54.055,2,2,11,6,3,4,6,4
54.06,6,2,3,8,1,18,3,1
54.065,3,4,0,6,27,1,3,2
54.07,1,2,30,4,9,0,0,0
54.075,0,12,5,0,6,4,1,1
54.08,2,23,2,2,9,13,4,0
54.085,4,8,0,5,19,1,3,3
54.09,1,5,5,1,10,1,2,2
54.095,3,4,22,0,18,6,5,2
54.1,2,2,6,3,4,10,6,5
54.105,2,4,9,0,7,1,0,1
54.11,0,5,1,2,0,3,0,0
54.115,3,1,5,5,1,4,3,2
54.12,5,7,1,2,2,4,2,3
54.125,3,4,5,8,20,1,1,0
54.13,2,8,6,13,24,2,1,3
54.135,0,3,4,1,9,1,1,5
54.14,4,0,3,17,14,6,3,5
54.145,2,3,9,1,16,4,2,2
54.15,1,1,3,11,14,1,0,3
54.155,3,0,5,13,2,2,0,4
54.16,0,1,3,5,41,0,0,0
54.165,0,1,7,18,25,8,8,7
54.17,0,9,0,46,55,5,3,9
54.175,8,5,4,80,4,3,1,10
54.18,8,6,6,24,41,14,10,12
54.185,1,3,0,3,31,8,8,15
54.19,0,1,4,16,19,13,5,13
54.195,5,15,0,41,52,7,3,5
54.2,7,4,1,8,115,12,4,5
54.205,4,13,2,77,80,24,10,29
54.21,7,10,6,3,86,0,3,25
54.215,7,2,2,37,71,4,1,24
54.22,22,12,0,5,96,5,8,11
54.225,35,26,2,25,67,4,2,23
54.23,6,22,0,21,40,4,2,4
54.235,15,37,3,16,68,15,7,8
54.24,3,24,3,25,47,1,3,12
54.245,6,3,2,1,56,4,0,8
54.25,1,6,7,26,53,10,3,0
54.255,3,6,3,59,92,10,1,23
54.26,3,17,4,79,110,11,1,3
54.265,5,11,0,61,88,3,2,5
54.27,1,6,5,29,73,3,2,16
54.275,3,3,1,6,15,1,2,8
54.28,5,1,0,36,71,1,3,4
54.285,2,7,0,16,37,2,3,6
54.29,4,2,0,18,5,5,3,7
54.295,1,7,3,5,28,6,1,7
54.3,4,1,0,4,5,2,2,10
54.305,7,11,6,16,14,1,2,14
54.31,3,2,4,37,67,4,4,5
54.315,5,9,0,5,14,3,1,9
54.32,4,2,1,7,33,5,2,4
54.325,8,9,0,8,8,2,0,1
54.33,2,7,2,13,4,1,0,2
54.335,1,3,5,1,26,2,5,3
54.34,2,4,1,8,6,2,2,5
54.345,2,5,2,16,32,1,1,2
54.35,1,0,2,10,78,3,2,0
54.355,1,3,0,1,33,1,2,4
54.36,1,4,1,6,3,4,2,1
54.365,3,3,2,3,28,0,1,2
54.37,1,3,0,3,21,3,1,4
54.375,2,1,2,1,8,0,0,1
54.38,0,2,1,4,7,3,1,2
54.385,2,3,1,10,17,2,1,1
54.39,2,0,1,7,26,1,3,3
54.395,0,0,2,6,21,3,0,2
54.4,0,0,1,13,15,2,2,1
54.405,2,2,1,23,14,0,1,7
54.41,3,1,1,5,57,1,1,2
54.415,1,2,1,7,36,3,3,2
54.42,1,1,0,2,29,0,1,0
54.425,2,5,5,12,45,0,2,1
54.43,0,1,1,2,21,3,1,0
54.435,1,1,3,4,19,1,3,2
54.44,1,2,0,7,42,4,1,3
54.445,2,3,1,8,23,0,4,2
54.45,0,0,0,5,9,1,2,1
54.455,1,1,1,14,6,3,1,0
54.46,1,2,2,16,27,2,0,0
54.465,1,3,2,2,38,4,3,1
54.47,0,2,1,3,6,3,1,0
54.475,3,2,0,2,36,0,4,4
54.48,0,1,1,2,35,2,1,3
54.485,3,3,3,15,65,4,1,4
54.49,0,0,2,12,38,1,3,2
54.495,2,2,3,1,44,0,2,0
54.5,1,2,1,5,51,4,4,2
54.505,1,2,1,6,10,4,3,3
54.51,2,1,3,3,7,0,1,1
54.515,4,1,0,3,13,3,0,2
54.52,2,2,3,7,27,1,2,3
54.525,1,1,0,9,17,1,1,2
54.53,1,2,3,6,54,2,0,1
54.535,0,2,2,2,38,1,2,0
54.54,2,2,3,2,3,1,1,1
54.545,2,1,3,3,37,0,2,1
54.55,1,1,0,1,21,1,3,3
54.555,1,0,1,0,1,1,1,1
54.56,0,0,1,5,12,1,3,1
54.565,2,2,1,6,4,1,1,1
54.57,1,0,3,0,13,1,2,1
54.575,1,1,1,6,31,1,0,1
54.58,0,1,1,8,14,1,0,1
54.585,2,1,3,14,18,4,3,5
54.59,1,0,1,9,8,3,3,2
54.595,0,1,2,1,22,5,4,3
54.6,2,2,1,2,3,2,1,1
54.605,0,2,0,6,8,0,1,0
54.61,1,1,1,2,16,1,2,0
54.615,0,1,0,3,0,0,0,1
54.62,3,2,1,10,13,4,1,2
54.625,4,2,6,29,68,7,4,1
54.63,2,2,2,1,20,1,4,2
54.635,0,1,4,3,5,1,0,1
54.64,2,1,0,7,30,0,0,1
54.645,1,1,0,10,16,1,1,2
54.65,3,2,0,5,16,1,0,1
54.655,2,3,2,6,1,0,1,0
54.66,2,1,1,0,16,1,0,0
54.665,1,0,1,2,19,0,0,1
54.67,1,0,1,12,55,1,4,2
54.675,2,3,5,48,101,8,4,4
54.68,1,4,6,8,32,5,3,3
54.685,1,1,1,13,10,2,1,1
54.69,0,1,0,14,27,1,0,0
54.695,1,1,4,16,7,4,2,1
54.7,1,1,1,13,4,1,2,2
54.705,1,1,4,2,13,2,4,3
54.71,0,0,1,0,18,2,0,1
54.715,1,1,1,5,3,1,3,1
54.72,1,0,0,6,20,3,0,1
54.725,2,1,0,8,13,0,1,2
54.73,1,0,1,1,16,1,2,1
54.735,3,2,3,15,39,2,3,1
54.74,0,3,2,11,4,1,0,0
54.745,0,2,3,5,26,0,0,0
54.75,2,2,2,28,22,5,2,2
54.755,1,2,1,16,79,0,1,1
54.76,2,1,0,2,9,1,0,3
54.765,1,0,2,4,35,1,1,1
54.77,2,0,6,17,105,7,5,3
54.775,0,1,1,12,20,2,1,1
54.78,2,1,0,6,5,0,2,0
54.785,0,1,1,12,7,0,1,1
54.79,2,0,1,11,9,1,0,1
54.795,2,0,1,3,16,0,1,1
54.8,1,0,4,4,10,0,2,2
54.805,1,2,1,2,27,2,2,1
54.81,2,3,4,27,4,2,3,1
54.815,1,1,1,10,1,1,1,1
54.82,1,1,3,4,13,1,0,1
54.825,2,0,1,9,56,6,0,2
54.83,2,1,1,2,31,3,0,2
54.835,1,2,1,10,98,11,5,3
54.84,0,4,7,15,59,1,1,1
54.845,1,1,2,7,9,3,0,1
54.85,2,2,0,1,3,2,2,2
54.855,3,1,5,3,5,1,1,1
54.86,2,1,4,10,0,6,2,1
54.865,1,4,6,1,6,4,0,1
54.87,0,2,0,6,11,0,0,0
54.875,0,3,4,11,25,4,2,0
54.88,1,1,11,16,86,6,1,1
54.885,1,1,13,3,11,1,3,3
54.89,1,7,12,10,25,3,0,1
54.895,0,3,3,4,17,5,2,0
54.9,2,8,3,6,12,1,0,2
54.905,0,9,5,11,33,6,2,4
54.91,2,3,2,6,30,1,1,2
54.915,0,10,1,28,25,3,2,2
54.92,1,7,13,18,52,1,1,3
54.925,3,14,19,26,50,10,4,2
54.93,3,32,12,30,61,8,3,2
54.935,3,5,24,0,81,2,7,5
54.94,1,11,14,34,122,2,1,0
54.945,7,12,16,13,16,6,3,5
54.95,1,7,51,13,17,0,3,1
54.955,7,21,2,32,34,2,3,3
54.96,5,7,49,20,3,6,2,2
54.965,14,30,39,17,8,13,11,8
54.97,2,18,15,6,17,2,0,5
54.975,3,23,71,6,19,6,5,2
54.98,11,3,61,5,41,2,3,8
54.985,12,1,51,6,73,3,6,1
54.99,25,15,1,7,16,24,11,4
54.995,14,22,53,24,57,17,5,8
55,52,1,49,5,40,41,5,4
55.005,43,35,74,33,85,25,5,13
55.01,33,43,89,23,41,12,2,2
55.015,14,12,91,17,54,1,1,1
55.02,112,42,98,28,19,36,15,9
55.025,79,52,40,3,84,38,17,9
55.03,24,43,111,27,58,14,6,12
55.035,33,20,4,17,33,9,0,18
55.04,21,32,47,7,39,4,7,3
55.045,60,43,67,29,9,18,0,9
55.05,2,10,22,24,17,12,5,6
55.055,11,7,51,39,18,7,4,5
55.06,32,37,85,24,6,7,2,6
55.065,35,7,26,20,27,3,5,3
55.07,42,11,14,22,32,16,4,1
55.075,7,7,11,21,9,5,9,5
55.08,46,5,25,10,15,21,6,3
55.085,27,12,31,10,52,18,5,0
55.09,10,17,23,36,10,14,6,0
55.095,7,10,38,5,1,21,1,2
55.1,21,22,34,7,59,56,10,5
55.105,18,15,12,14,29,21,5,3
55.11,1,1,3,1,20,3,3,3
55.115,9,4,39,2,9,8,4,4
55.12,2,16,19,5,4,2,3,5
55.125,12,9,5,1,4,14,6,1
55.13,26,33,32,5,0,9,0,4
55.135,28,4,17,5,30,0,2,2
55.14,35,2,10,0,14,5,5,3
55.145,5,7,19,2,10,15,2,0
55.15,10,3,9,1,20,4,5,5
55.155,1,4,7,8,22,19,3,2
55.16,6,4,0,2,11,9,2,3
55.165,1,10,7,1,14,7,2,3
55.17,5,9,21,9,16,10,2,0
55.175,4,16,18,13,42,6,4,1
55.18,7,7,25,1,10,19,2,2
55.185,7,6,18,43,59,22,2,6
55.19,10,10,12,8,2,4,0,2
55.195,10,9,15,17,15,8,7,5
55.2,5,7,6,9,22,3,3,1
55.205,1,6,2,15,32,18,1,0
55.21,1,4,7,8,3,2,1,2
55.215,6,4,1,6,5,1,1,0
55.22,2,4,11,2,0,2,2,1
55.225,1,4,7,4,7,7,4,3
55.23,1,1,2,5,3,10,1,1
55.235,1,4,1,3,1,5,0,0
55.24,4,2,5,11,13,4,2,1
55.245,1,0,9,5,6,2,2,1
55.25,2,3,2,14,15,1,1,0
55.255,2,2,3,13,11,10,3,2
55.26,3,1,2,4,0,4,2,1
55.265,1,0,2,3,6,1,1,3
55.27,3,3,6,2,5,2,1,1
55.275,0,2,0,5,10,0,0,0
55.28,2,3,2,7,2,0,1,1
55.285,1,5,1,1,45,8,1,2
55.29,5,1,2,22,83,9,0,4
55.295,9,2,4,38,95,8,2,1
55.3,6,0,1,36,85,2,3,1
55.305,5,4,1,23,20,1,1,2
55.31,6,10,1,23,59,2,2,7
55.315,2,2,8,67,105,20,6,11
55.32,7,14,11,29,98,13,3,7
55.325,1,3,1,16,66,2,1,1
55.33,6,1,0,10,119,16,5,11
55.335,5,16,4,23,89,3,4,22
55.34,14,10,1,8,37,2,2,17
55.345,21,5,5,11,18,7,0,5
55.35,3,35,4,3,40,6,5,7
55.355,9,29,5,3,38,1,4,18
55.36,17,3,11,23,34,9,4,17
55.365,21,5,8,44,9,7,2,1
55.37,4,3,11,49,30,11,8,7
55.375,1,12,0,5,23,1,3,6
55.38,4,7,1,6,54,8,3,3
55.385,6,8,6,8,95,0,1,0
55.39,3,17,1,47,4,5,4,1
55.395,4,6,3,21,109,10,3,1
55.4,1,7,10,36,49,9,7,4
55.405,10,2,8,18,72,7,5,10
55.41,0,13,1,2,51,3,1,4
55.415,1,1,3,1,43,7,3,1
55.42,11,8,8,4,107,12,4,0
55.425,6,3,1,49,128,6,0,0
55.43,8,10,5,11,73,4,2,0
55.435,5,11,6,17,24,6,1,5
55.44,8,3,1,13,23,4,4,2
55.445,13,10,10,48,10,11,4,13
55.45,1,5,4,22,0,1,0,15
55.455,4,4,5,40,68,6,2,10
55.46,4,1,7,15,38,9,3,1
55.465,3,4,2,6,25,2,2,3
55.47,0,4,2,3,4,4,1,7
55.475,6,7,7,7,77,18,10,6
55.48,2,5,4,21,30,5,2,7
55.485,3,3,3,22,37,2,1,1
55.49,1,4,5,45,28,10,3,4
55.495,2,1,4,23,21,3,0,0
55.5,1,2,1,29,18,5,3,7
55.505,5,4,4,20,11,0,1,0
55.51,0,5,0,13,11,0,3,2
55.515,1,1,3,4,101,5,0,2
55.52,0,0,1,4,108,14,5,4
55.525,1,2,1,8,23,5,2,4
55.53,2,6,1,10,15,2,2,2
55.535,1,0,3,17,24,3,0,3
55.54,3,2,4,23,74,1,1,2
55.545,4,6,9,36,39,2,2,1
55.55,3,2,2,2,68,9,6,6
55.555,0,0,0,8,38,3,1,0
55.56,0,3,3,38,47,4,1,2
55.565,1,0,3,6,30,0,0,0
55.57,1,3,0,17,111,2,4,2
55.575,1,2,2,5,60,7,2,1
55.58,3,3,6,13,21,4,1,2
55.585,0,0,1,2,33,2,1,1
55.59,0,1,3,13,43,1,0,0
55.595,1,6,2,8,9,5,3,2
55.6,2,1,7,11,45,5,0,0
55.605,4,2,2,1,18,4,1,1
55.61,1,0,1,12,20,4,1,0
55.615,1,0,0,26,97,3,0,1
55.62,3,2,6,6,17,5,6,4
55.625,1,2,0,8,45,4,1,0
55.63,1,3,1,15,77,2,2,1
55.635,2,0,4,7,19,3,0,2
55.64,3,2,0,4,33,1,3,3
55.645,2,1,0,7,6,2,1,1
55.65,2,4,1,7,13,2,1,1
55.655,1,0,0,8,33,1,0,1
55.66,1,1,5,4,3,1,1,1
55.665,2,1,9,5,18,0,3,1
55.67,1,3,1,3,53,2,1,2
55.675,1,1,1,20,11,2,0,0
55.68,1,1,5,12,22,2,0,0
55.685,1,1,1,6,6,0,1,1
55.69,2,4,4,19,17,6,5,3
55.695,1,4,1,9,15,1,4,3
55.7,2,3,3,3,6,5,2,1
55.705,1,1,4,1,11,3,0,2
55.71,1,0,0,18,0,7,2,1
55.715,1,1,4,24,0,5,1,0
55.72,2,0,2,4,19,3,1,2
55.725,2,2,0,2,41,4,1,1
55.73,0,1,1,17,26,5,4,3
55.735,1,2,0,1,68,2,3,1
55.74,2,1,0,18,87,3,1,0
55.745,1,3,1,1,5,2,1,2
55.75,2,3,1,0,42,1,1,1
55.755,0,2,4,1,32,2,1,0
55.76,1,2,2,12,14,7,5,4
55.765,1,0,7,12,14,5,3,1
55.77,1,2,3,10,16,2,3,0
55.775,2,0,2,10,95,4,2,2
55.78,1,1,4,14,65,3,2,1
55.785,2,1,1,15,17,1,1,3
55.79,4,3,3,16,12,10,6,1
55.795,2,0,1,3,40,11,6,1
55.8,0,2,1,5,21,4,2,1
55.805,3,2,5,14,37,9,5,5
55.81,0,3,1,2,3,1,1,4
55.815,2,0,0,18,18,5,2,5
55.82,1,2,5,8,25,5,2,3
55.825,0,3,2,9,78,3,0,2
55.83,1,1,1,9,16,0,2,5
55.835,2,3,3,42,72,9,4,1
55.84,6,1,13,25,115,5,0,8
55.845,1,0,20,2,27,5,1,4
55.85,4,3,0,11,57,12,2,2
55.855,7,0,1,21,108,2,2,1
55.86,2,0,2,9,21,8,3,10
55.865,2,1,4,35,20,4,3,1
55.87,0,4,25,6,49,5,7,3
55.875,1,9,9,9,22,6,7,5
55.88,1,4,2,9,5,14,8,2
55.885,2,9,11,27,52,4,4,3
55.89,18,7,5,50,90,1,7,1
55.895,34,6,5,3,9,13,8,6
55.9,18,25,46,21,16,12,1,4
55.905,20,1,28,7,45,2,1,0
55.91,7,0,29,18,66,14,2,3
55.915,16,6,0,8,23,2,2,1
55.92,56,9,29,23,35,2,0,5
55.925,7,2,4,35,68,11,7,8
55.93,26,32,2,30,54,17,0,4
55.935,7,14,45,1,22,9,2,1
55.94,48,17,78,8,30,10,1,7
55.945,0,11,13,10,20,25,16,11
55.95,105,42,85,5,4,6,11,20
55.955,5,10,76,22,58,1,2,1
55.96,49,33,41,4,31,14,10,15
55.965,12,24,18,22,79,15,11,3
55.97,63,39,47,9,19,16,9,10
55.975,89,2,65,27,65,38,18,15
55.98,122,26,107,7,85,9,17,28
55.985,57,43,27,1,25,20,5,2
55.99,4,3,46,4,16,11,3,9
55.995,12,7,40,30,24,47,3,12
56,22,5,61,74,126,37,17,4
56.005,10,41,127,27,2,23,2,8
56.01,4,4,72,12,72,17,0,1
56.015,5,16,74,30,20,3,4,2
56.02,36,15,5,2,24,22,4,8
56.025,62,3,28,7,14,2,4,6
56.03,15,19,52,28,10,4,3,1
56.035,9,9,4,37,39,2,8,0
56.04,42,29,38,16,12,37,9,10
56.045,2,11,65,9,33,15,9,5
56.05,5,10,16,7,6,12,1,0
56.055,20,14,31,17,8,5,4,5
56.06,23,0,31,8,20,2,2,2
56.065,0,12,31,28,16,19,2,2
56.07,4,12,5,6,16,22,4,2
56.075,12,6,5,6,31,4,7,8
56.08,8,19,13,13,19,2,2,2
56.085,1,13,6,4,7,17,0,1
56.09,3,14,9,1,9,1,3,3
56.095,22,15,1,3,5,1,3,3
56.1,21,4,7,2,16,11,0,3
56.105,3,9,34,10,15,24,5,0
56.11,5,0,4,10,38,16,8,3
56.115,25,7,20,7,17,11,1,1
56.12,6,8,23,10,38,0,2,2
56.125,3,11,3,7,2,5,4,2
56.13,4,16,26,10,21,4,4,2
56.135,15,1,44,1,22,8,1,6
56.14,5,6,15,8,17,5,3,1
56.145,10,2,16,15,17,3,0,1
56.15,14,0,6,22,12,4,5,8
56.155,5,7,33,9,1,5,3,0
56.16,1,6,40,1,4,2,0,2
56.165,15,1,8,4,1,4,2,2
56.17,0,2,27,3,2,7,1,0
56.175,13,4,18,3,1,0,4,4
56.18,10,1,7,10,0,2,4,2
56.185,4,8,8,1,7,2,1,1
56.19,1,5,3,6,18,2,1,0
56.195,11,5,12,22,65,7,4,6
56.2,1,6,10,17,16,0,2,13
56.205,1,4,4,22,12,7,2,10
56.21,7,10,6,6,7,4,0,4
56.215,9,3,7,18,72,6,2,13
56.22,14,0,4,8,28,5,4,5
56.225,9,5,4,7,49,5,4,8
56.23,12,2,6,19,72,2,0,1
56.235,10,5,12,50,4,4,1,0
56.24,1,1,8,18,17,6,6,5
56.245,4,7,2,19,34,1,0,6
56.25,3,6,1,17,34,0,1,0
56.255,17,0,6,22,85,11,1,10
56.26,22,4,5,11,11,6,4,20
56.265,3,10,7,14,82,18,2,1
56.27,42,5,3,31,22,1,0,5
56.275,59,5,7,15,59,3,5,8
56.28,8,9,1,28,70,1,1,6
56.285,44,26,1,35,2,9,1,65
56.29,15,13,4,20,42,0,7,46
56.295,56,9,11,54,76,1,3,30
56.3,24,0,1,26,66,5,9,58
56.305,29,9,2,16,17,12,0,14
56.31,14,5,5,52,88,16,8,38
56.315,6,7,1,39,18,6,4,6
56.32,7,2,4,2,44,14,0,8
56.325,17,3,5,4,11,7,3,10
56.33,8,6,2,9,65,7,4,8
56.335,10,3,11,41,100,22,8,15
56.34,10,2,4,19,75,13,3,20
56.345,7,3,4,1,103,11,4,14
56.35,10,6,7,43,19,1,1,5
56.355,1,3,5,87,82,8,0,13
56.36,11,2,8,64,93,24,7,22
56.365,7,3,1,13,127,7,1,9
56.37,4,3,3,9,84,5,1,7
56.375,8,1,2,15,9,1,4,5
56.38,2,5,3,8,3,0,2,12
56.385,7,4,2,24,49,7,4,15
56.39,4,0,2,3,27,0,1,6
56.395,0,0,4,39,73,9,4,2
56.4,3,3,1,14,39,1,0,9
56.405,1,3,2,3,15,4,2,4
56.41,2,2,1,35,127,9,0,1
56.415,1,4,7,14,80,14,5,3
56.42,1,3,1,9,4,1,0,2
56.425,1,0,1,27,35,4,1,2
56.43,4,1,2,7,40,3,0,2
56.435,4,2,3,7,0,4,0,3
56.44,3,3,2,1,25,4,2,6
56.445,2,3,3,17,10,5,3,7
56.45,0,3,0,11,10,10,5,7
56.455,0,2,2,22,13,1,1,0
56.46,8,5,4,4,58,6,4,7
56.465,3,1,3,39,52,4,1,2
56.47,0,5,8,33,27,10,2,1
56.475,1,3,5,17,33,9,3,0
56.48,1,2,1,6,46,1,2,5
56.485,1,2,2,8,30,2,4,1
56.49,2,2,1,20,29,8,4,1
56.495,1,1,7,63,81,12,2,1
56.5,2,1,1,12,51,4,3,6
56.505,0,7,3,1,10,1,5,2
56.51,0,1,4,8,25,5,1,3
56.515,1,2,0,18,26,0,1,3
56.52,1,1,1,18,21,2,2,4
56.525,2,1,4,38,22,1,1,2
56.53,1,0,1,21,8,2,2,2
56.535,2,0,3,22,5,0,1,1
56.54,3,2,5,11,4,3,3,5
56.545,1,1,1,5,21,1,1,1
56.55,0,2,0,5,17,0,2,1
56.555,1,1,2,7,33,4,2,2
56.56,0,4,2,7,53,1,1,2
56.565,0,2,1,8,34,1,1,1
56.57,4,2,6,20,9,3,1,3
56.575,1,1,1,17,5,1,1,1
56.58,1,0,1,1,20,1,0,3
56.585,0,1,1,5,4,1,2,1
56.59,2,2,2,15,27,2,3,0
56.595,1,1,2,21,80,1,1,1
56.6,1,0,1,3,86,1,2,4
56.605,1,1,8,28,89,6,1,2
56.61,2,0,1,2,13,5,2,1
56.615,2,2,4,11,7,7,3,0
56.62,1,0,1,28,34,3,1,0
56.625,1,1,1,6,76,3,3,0
56.63,0,3,2,10,5,3,5,1
56.635,2,2,1,8,66,1,2,2
56.64,0,2,5,6,6,4,4,2
56.645,4,1,0,2,46,1,1,1
56.65,1,0,0,13,38,2,0,1
56.655,1,1,0,20,72,0,1,1
56.66,1,1,1,1,51,2,2,0
56.665,3,1,1,1,24,3,2,2
56.67,1,3,3,14,31,1,1,0
56.675,1,2,2,15,15,3,1,2
56.68,2,0,0,4,4,2,1,2
56.685,1,1,0,8,4,1,1,0
56.69,2,2,4,8,18,5,0,1
56.695,1,1,0,11,43,2,2,1
56.7,3,2,1,2,19,2,1,0
56.705,1,1,1,6,1,5,2,3
56.71,0,1,1,15,43,12,2,1
56.715,1,2,4,32,83,2,3,1
56.72,1,3,5,5,41,7,3,3
56.725,1,1,3,3,28,4,3,1
56.73,2,2,9,4,20,2,2,1
56.735,2,1,4,27,64,4,2,1
56.74,1,1,1,4,23,0,3,3
56.745,1,1,3,10,20,3,3,0
56.75,2,2,3,3,10,3,3,3
56.755,1,2,1,9,29,1,0,0
56.76,2,1,3,3,28,4,2,0
56.765,0,0,1,11,9,1,1,2
56.77,4,1,1,28,19,3,1,0
56.775,1,1,2,10,14,3,2,2
56.78,0,3,0,1,5,5,1,0
56.785,0,2,4,7,4,2,2,2
56.79,2,8,1,2,11,2,2,2
56.795,2,2,3,1,8,6,3,4
56.8,0,2,2,4,0,1,1,0
56.805,3,1,0,5,20,1,1,2
56.81,3,2,4,7,23,12,4,1
56.815,14,0,2,26,6,4,0,3
56.82,6,3,3,18,19,1,4,2
56.825,3,4,8,16,79,7,4,2
56.83,3,1,2,3,17,6,2,1
56.835,2,4,6,10,26,9,1,1
56.84,0,2,1,21,9,6,1,3
56.845,3,3,3,10,36,8,5,0
56.85,1,2,3,12,9,8,1,0
56.855,1,1,1,13,3,3,1,1
56.86,5,3,1,5,5,10,7,2
56.865,6,1,0,5,23,9,3,0
56.87,4,1,0,2,15,21,1,3
56.875,3,2,3,5,14,9,3,1
56.88,1,2,1,13,25,0,1,1
56.885,2,3,1,7,8,3,0,0
56.89,5,3,6,4,11,2,4,2
56.895,3,3,1,8,5,1,0,0
56.9,1,1,11,9,4,4,0,3
56.905,4,4,5,8,4,1,1,2
56.91,3,4,8,1,11,5,0,2
56.915,1,1,26,11,32,6,1,0
56.92,2,5,12,31,104,10,1,1
56.925,3,14,23,11,31,5,1,2
56.93,1,4,8,4,4,11,4,0
56.935,1,5,10,4,0,4,3,0
56.94,0,9,2,23,29,14,4,0
56.945,2,15,68,13,50,3,1,1
56.95,3,39,1,21,51,11,1,2
56.955,3,71,61,13,18,14,6,1
56.96,9,48,30,19,20,8,1,3
56.965,12,65,83,19,41,16,5,0
56.97,16,31,15,9,56,1,10,8
56.975,18,48,124,21,62,13,8,7
56.98,16,5,119,14,55,0,0,5
56.985,9,40,45,5,54,14,1,1
56.99,34,57,99,5,62,7,5,2
56.995,14,30,5,2,17,10,4,2
57,41,87,72,13,22,4,11,13
57.005,0,24,72,18,20,16,6,4
57.01,2,56,89,14,2,5,2,4
57.015,45,45,78,15,65,5,2,11
57.02,72,78,61,3,44,27,2,8
57.025,97,59,61,9,13,9,8,12
57.03,12,33,20,13,48,14,4,2
57.035,2,86,66,8,0,8,9,8
57.04,5,84,122,9,7,10,1,0
57.045,42,59,128,47,10,12,6,2
57.05,36,48,73,33,16,16,10,13
57.055,52,6,72,12,10,20,4,4
57.06,17,5,28,23,20,6,0,2
57.065,6,29,128,22,40,4,11,3
57.07,17,3,80,13,51,3,9,0
57.075,9,5,109,27,6,2,1,1
57.08,3,15,13,2,19,19,0,3
57.085,7,4,1,23,0,5,3,5
57.09,3,2,22,19,4,8,6,1
57.095,3,4,8,0,3,6,0,6
57.1,7,8,18,2,2,8,4,2
57.105,15,17,3,9,22,3,2,1
57.11,12,2,7,4,2,4,1,1
57.115,3,3,8,3,11,6,3,1
57.12,5,25,10,1,7,6,2,0
57.125,8,28,87,11,11,15,3,0
57.13,16,1,12,6,23,39,4,1
57.135,16,7,13,1,13,8,5,2
57.14,23,2,22,1,10,8,1,3
57.145,18,17,23,2,34,9,4,2
57.15,6,8,36,3,2,6,5,3
57.155,0,12,6,4,3,0,2,1
57.16,2,9,9,1,3,2,1,2
57.165,3,4,24,5,9,9,5,4
57.17,1,5,5,2,4,6,4,3
57.175,1,3,38,7,11,3,3,3
57.18,10,5,5,10,14,2,1,0
57.185,3,7,17,19,6,4,3,0
57.19,6,10,30,2,4,8,3,2
57.195,7,6,31,4,5,9,7,7
57.2,6,5,34,2,8,3,1,2
57.205,9,5,11,5,6,0,2,0
57.21,0,10,27,2,5,1,5,4
57.215,10,2,9,5,3,6,5,4
57.22,1,4,10,1,1,5,8,5
57.225,6,6,3,8,0,3,0,2
57.23,3,6,10,7,2,3,2,1
57.235,5,2,1,1,2,5,2,2
57.24,2,2,5,5,9,6,7,4
57.245,3,2,2,2,0,0,1,3
57.25,2,2,5,2,4,0,1,1
57.255,0,3,5,0,3,3,1,1
57.26,1,1,15,4,6,1,3,3
57.265,1,6,7,2,7,0,0,1
57.27,1,2,7,19,45,7,3,1
57.275,3,18,4,54,59,3,1,2
57.28,7,15,8,29,78,10,10,13
57.285,8,14,6,22,95,10,13,18
57.29,3,6,7,12,49,10,3,4
57.295,1,3,0,18,35,5,2,1
57.3,4,15,3,13,13,0,4,5
57.305,1,4,4,21,27,0,6,6
57.31,2,4,4,4,21,7,1,1
57.315,3,0,6,3,9,1,1,1
57.32,1,4,1,4,16,3,0,0
57.325,0,2,2,2,27,0,2,4
57.33,0,4,5,12,46,1,1,2
57.335,2,5,1,15,24,3,3,4
57.34,1,0,5,15,26,5,1,3
57.345,2,5,2,4,0,11,5,2
57.35,8,14,11,30,50,20,10,10
57.355,10,2,4,15,97,8,1,4
57.36,4,16,1,30,40,4,2,1
57.365,5,4,6,19,19,4,2,5
57.37,5,10,6,33,16,9,1,1
57.375,14,15,6,5,56,6,2,11
57.38,1,11,2,9,11,0,2,3
57.385,2,4,1,25,16,4,1,3
57.39,8,3,4,7,0,5,4,14
57.395,1,0,2,1,72,7,5,19
57.4,0,4,7,31,82,7,2,1
57.405,0,7,2,9,11,5,3,2
57.41,1,0,0,30,40,2,1,1
57.415,6,3,5,5,11,6,6,13
57.42,0,1,1,6,7,7,0,0
57.425,1,0,1,16,3,4,5,3
57.43,1,2,3,3,13,2,3,0
57.435,0,3,4,7,51,2,1,3
57.44,1,2,1,21,95,15,3,2
57.445,6,7,3,8,52,0,1,6
57.45,2,3,4,1,15,1,0,5
57.455,2,3,3,17,7,6,5,5
57.46,2,3,0,22,1,1,1,0
57.465,2,2,4,20,22,2,1,1
57.47,5,4,6,22,74,7,5,3
57.475,5,5,2,10,49,1,0,2
57.48,3,4,1,1,47,1,0,1
57.485,4,2,1,6,2,0,2,2
57.49,1,3,2,3,23,1,1,2
57.495,4,7,0,2,0,1,1,1
57.5,1,1,1,4,5,1,4,3
57.505,4,6,4,2,8,2,2,5
57.51,1,14,3,10,20,0,1,2
57.515,8,31,5,5,1,3,2,7
57.52,3,1,2,2,8,3,3,1
57.525,3,0,4,2,18,5,1,1
57.53,2,2,3,9,33,4,0,1
57.535,2,6,1,6,8,2,1,4
57.54,2,1,5,2,15,1,1,0
57.545,1,9,3,5,23,6,2,1
57.55,1,2,2,10,60,6,1,1
57.555,1,3,0,7,44,2,2,2
57.56,2,3,0,34,91,2,1,1
57.565,3,4,1,19,27,2,5,3
57.57,2,4,0,2,12,0,0,2
57.575,4,1,0,9,5,1,2,2
57.58,2,1,2,5,39,1,0,0
57.585,0,2,3,7,19,8,2,2
57.59,0,3,2,2,20,9,3,2
57.595,3,6,4,10,21,2,3,5
57.6,1,2,1,3,12,2,1,2
57.605,2,1,0,9,10,1,1,0
57.61,1,6,0,7,60,6,3,2
57.615,3,2,2,13,30,2,0,1
57.62,2,1,3,18,32,3,2,2
57.625,2,3,5,17,10,6,2,0
57.63,1,2,1,1,25,0,1,0
57.635,2,1,1,15,3,1,1,1
57.64,0,1,2,5,5,4,4,2
57.645,1,2,3,11,2,0,1,0
57.65,1,3,5,17,24,5,1,1
57.655,1,7,0,7,16,3,2,2
57.66,1,2,2,10,75,6,0,1
57.665,1,1,3,19,103,6,0,1
57.67,1,1,1,5,73,0,2,1
57.675,0,2,2,7,1,3,1,2
57.68,2,1,2,7,32,7,2,2
57.685,0,2,2,5,23,6,4,2
57.69,1,3,2,10,7,4,3,2
57.695,0,1,2,3,16,1,2,2
57.7,1,1,2,15,3,0,1,1
57.705,0,1,3,13,11,8,1,1
57.71,0,1,2,4,11,2,0,0
57.715,2,1,0,17,1,0,1,1
57.72,1,1,2,3,24,0,2,2
57.725,1,3,3,1,11,2,1,1
57.73,0,0,2,9,13,1,0,1
57.735,2,0,4,1,15,2,1,1
57.74,1,1,3,5,9,2,3,2
57.745,1,0,0,10,8,2,1,1
57.75,1,1,2,8,19,1,1,0
57.755,1,1,3,2,5,2,1,3
57.76,1,0,8,17,6,3,3,1
57.765,2,1,3,14,22,3,3,2
57.77,1,0,2,2,5,3,0,1
57.775,0,0,0,3,2,3,1,2
57.78,1,2,1,2,23,2,0,2
57.785,1,2,3,7,13,3,3,3
57.79,3,3,3,1,23,2,0,2
57.795,1,1,1,6,15,1,0,2
57.8,1,1,2,10,13,11,5,2
57.805,1,0,1,0,12,14,3,1
57.81,1,1,0,0,1,3,1,0
57.815,0,0,1,1,2,2,1,1
57.82,1,2,3,1,4,4,3,2
57.825,0,1,2,0,5,2,1,0
57.83,0,1,1,2,6,1,1,3
57.835,1,1,5,3,11,0,4,2
57.84,2,0,4,6,19,3,1,1
57.845,3,1,2,3,2,5,5,1
57.85,2,0,0,0,7,2,2,0
57.855,2,0,1,3,20,3,3,2
57.86,1,1,2,7,0,4,1,2
57.865,0,1,1,2,1,4,2,0
57.87,1,0,2,10,14,0,1,1
57.875,1,0,0,13,7,2,3,5
57.88,1,2,4,15,5,1,1,2
57.885,2,0,2,10,8,7,3,5
57.89,0,3,2,6,1,11,3,1
57.895,0,1,1,3,6,1,0,1
57.9,1,0,4,14,26,0,0,2
57.905,1,1,0,1,2,5,4,1
57.91,0,2,3,1,0,3,7,1
57.915,2,3,4,29,3,0,3,2
57.92,0,0,1,13,7,5,1,1
57.925,2,2,4,5,14,4,1,2
57.93,1,2,7,5,8,7,1,3
57.935,1,1,2,7,4,6,1,0
57.94,5,20,22,6,30,2,5,3
57.945,1,17,19,14,1,3,1,0
57.95,1,1,5,6,50,4,3,0
57.955,7,25,14,4,31,10,2,3
57.96,5,11,3,8,4,2,4,3
57.965,0,8,18,0,12,1,4,4
57.97,3,13,5,16,45,4,2,4
57.975,1,1,21,16,33,6,3,3
57.98,5,25,74,7,48,8,1,2
57.985,3,6,20,33,5,11,6,3
57.99,1,23,22,6,28,9,4,3
57.995,2,11,24,5,17,13,8,6
58,6,9,98,16,70,13,7,6
58.005,3,30,90,0,4,18,6,1
58.01,9,10,79,11,50,28,11,4
58.015,10,2,58,3,48,8,4,1
58.02,5,50,98,35,50,6,9,5
58.025,16,2,24,38,84,10,4,3
58.03,27,8,67,8,86,12,5,3
58.035,32,51,97,22,45,6,13,1
58.04,6,64,22,28,1,34,18,10
58.045,18,39,77,48,38,29,15,15
58.05,11,6,81,17,37,22,4,2
58.055,19,14,80,42,34,37,3,3
58.06,12,57,128,43,87,36,6,3
58.065,55,43,12,16,66,57,21,18
58.07,54,2,6,8,85,1,12,13
58.075,49,2,93,30,41,24,7,5
58.08,15,20,5,12,24,1,11,6
58.085,21,49,93,12,65,4,13,0
58.09,9,19,82,10,65,1,13,6
58.095,14,0,77,3,21,5,15,11
58.1,11,5,64,6,15,44,0,8
58.105,7,2,93,24,45,9,8,7
58.11,28,6,35,7,62,1,8,18
58.115,20,16,33,3,24,17,9,6
58.12,11,4,54,31,3,11,5,1
58.125,18,6,11,25,12,16,1,1
58.13,9,10,3,16,9,3,3,3
58.135,3,23,17,4,6,4,4,1
58.14,6,14,15,24,21,13,3,3
58.145,0,8,31,3,11,6,1,2
58.15,19,1,9,31,1,5,2,2
58.155,1,5,45,3,5,2,6,3
58.16,9,4,5,25,6,3,3,4
58.165,15,21,9,12,4,7,0,1
58.17,26,3,10,8,1,15,2,3
58.175,9,15,39,6,6,12,5,0
58.18,3,4,26,18,7,16,3,1
58.185,3,26,21,22,2,1,1,0
58.19,4,33,9,14,5,5,2,1
58.195,3,5,0,16,2,3,4,1
58.2,7,3,16,7,27,10,2,4
58.205,5,9,3,13,10,1,5,1
58.21,5,2,14,25,23,12,6,1
58.215,2,7,20,9,5,11,5,2
58.22,7,1,18,8,5,3,3,5
58.225,1,3,6,1,6,5,4,3
58.23,4,3,8,1,1,1,2,1
58.235,2,7,0,3,3,1,3,1
58.24,3,4,4,11,13,2,2,2
58.245,3,3,0,6,2,5,2,2
58.25,4,5,7,0,7,5,2,2
58.255,3,2,8,2,7,6,2,3
58.26,0,1,3,28,72,7,1,7
58.265,5,12,4,23,90,4,3,5
58.27,4,2,10,5,14,3,0,5
58.275,3,16,1,6,10,2,2,9
58.28,25,23,3,13,77,3,2,1
58.285,24,29,0,25,71,32,19,19
58.29,16,7,9,2,110,11,5,7
58.295,6,5,4,19,25,9,4,26
58.3,53,12,5,48,64,6,4,21
58.305,15,32,10,57,16,1,2,14
58.31,5,11,1,58,60,3,3,4
58.315,9,1,8,17,126,23,8,12
58.32,22,35,18,64,98,24,12,24
58.325,17,21,7,23,21,14,5,6
58.33,0,18,0,9,128,17,1,9
58.335,8,34,14,56,65,9,7,9
58.34,8,5,10,9,98,2,11,54
58.345,12,4,8,17,74,0,1,13
58.35,25,24,2,24,26,3,6,1
58.355,27,32,9,28,62,2,1,8
58.36,2,21,1,2,12,4,3,28
58.365,9,14,10,67,60,6,0,18
58.37,5,7,7,40,46,2,1,13
58.375,11,1,4,2,110,14,2,11
58.38,9,14,1,3,67,14,3,1
58.385,13,9,7,13,29,3,3,0
58.39,0,11,6,2,102,1,2,4
58.395,6,1,2,19,29,16,10,2
58.4,15,9,1,37,48,4,3,4
58.405,9,15,0,30,77,6,2,4
58.41,5,9,6,24,97,7,3,1
58.415,4,5,10,47,77,3,2,7
58.42,1,7,9,27,26,0,2,9
58.425,4,9,15,11,27,7,3,2
58.43,9,8,1,12,6,0,5,4
58.435,2,7,11,58,127,16,5,5
58.44,6,4,9,48,128,28,7,11
58.445,3,1,1,13,125,11,4,3
58.45,3,5,3,3,16,14,4,1
58.455,1,2,2,14,11,2,2,0
58.46,3,1,3,4,2,6,1,3
58.465,2,6,2,17,4,2,1,4
58.47,1,1,2,22,43,0,2,5
58.475,2,1,2,8,17,2,1,4
58.48,3,4,5,2,19,2,1,2
58.485,4,1,2,23,11,6,2,2
58.49,3,3,1,2,21,8,3,1
58.495,1,1,4,14,27,1,1,0
58.5,1,1,3,0,26,1,0,1
58.505,3,3,1,19,54,4,1,4
58.51,0,1,5,29,31,1,2,1
58.515,1,0,0,13,79,2,1,2
58.52,0,2,4,39,74,8,3,3
58.525,3,2,2,12,25,2,3,0
58.53,4,0,1,25,53,7,8,3
58.535,4,1,2,29,57,12,8,4
58.54,1,1,1,3,32,23,4,2
58.545,2,1,0,1,28,1,0,0
58.55,0,1,2,4,24,2,1,1
58.555,1,1,1,7,26,3,0,0
58.56,0,0,1,16,1,8,4,3
58.565,1,1,2,17,16,7,1,1
58.57,2,3,7,34,13,9,4,2
58.575,0,0,2,5,21,9,2,2
58.58,1,1,2,7,42,2,2,2
58.585,1,1,1,4,13,7,1,2
58.59,1,0,0,8,1,4,3,1
58.595,2,1,1,8,13,4,0,0
58.6,0,3,1,6,7,1,3,2
58.605,3,3,7,9,30,1,2,1
58.61,0,0,4,15,16,1,1,0
58.615,3,2,4,36,79,1,2,4
58.62,2,1,3,11,7,6,3,2
58.625,2,2,1,8,2,2,0,2
58.63,2,2,2,12,20,1,0,2
58.635,1,2,1,6,12,5,3,1
58.64,1,0,1,6,5,6,3,3
58.645,2,2,0,6,14,6,2,1
58.65,0,1,3,2,20,5,1,0
58.655,1,3,2,2,20,7,4,2
58.66,1,1,1,7,3,2,0,0
58.665,0,0,1,0,24,3,2,2
58.67,0,0,2,14,53,2,0,1
58.675,1,0,6,30,51,1,1,1
58.68,1,2,5,29,88,6,0,2
58.685,1,1,1,14,37,3,2,2
58.69,1,1,2,9,23,2,2,2
58.695,2,0,4,11,11,2,1,1
58.7,1,0,1,15,41,1,2,2
58.705,0,2,0,6,25,4,2,2
58.71,1,2,0,5,9,2,3,3
58.715,1,1,1,3,40,3,2,1
58.72,0,1,1,2,24,1,1,4
58.725,3,1,2,7,44,5,0,0
58.73,0,1,0,0,15,8,3,3
58.735,2,0,2,1,9,12,0,1
58.74,1,1,3,6,28,9,5,2
58.745,1,2,1,2,12,1,0,0
58.75,2,2,2,13,8,1,2,1
58.755,1,1,2,19,13,4,6,2
58.76,0,0,0,8,0,2,5,1
58.765,0,0,4,11,8,1,1,3
58.77,4,1,5,0,8,3,3,4
58.775,0,1,0,6,10,1,2,1
58.78,3,3,2,21,8,4,3,2
58.785,0,1,2,4,0,3,2,0
58.79,1,2,2,1,12,1,1,2
58.795,1,1,4,3,2,3,3,2
58.8,0,1,1,9,11,0,4,2
58.805,0,1,1,10,13,4,1,2
58.81,2,2,7,2,50,8,2,1
58.815,1,1,1,24,72,2,0,1
58.82,1,1,0,15,14,1,1,0
58.825,1,1,1,2,2,0,1,2
58.83,1,1,1,2,1,4,2,2
58.835,0,1,1,3,12,2,1,2
58.84,3,2,2,7,19,2,2,2
58.845,2,6,4,4,26,1,4,3
58.85,0,0,1,1,34,1,0,1
58.855,1,1,1,0,18,6,3,0
58.86,0,1,0,6,16,5,1,0
58.865,0,1,0,11,8,1,1,3
58.87,3,0,3,13,2,4,3,2
58.875,1,1,2,1,6,2,2,2
58.88,0,0,2,9,20,1,0,1
58.885,1,1,8,15,35,4,1,0
58.89,0,2,3,12,38,1,1,1
58.895,2,2,3,10,57,9,0,1
58.9,4,3,1,4,12,1,1,2
58.905,2,2,1,2,13,3,0,2
58.91,0,0,1,9,6,3,1,1
58.915,2,1,1,2,24,1,4,1
58.92,0,1,1,7,12,1,2,2
58.925,0,1,0,1,10,0,1,2
58.93,4,2,3,11,1,5,4,5
58.935,3,1,4,3,11,3,0,1
58.94,0,0,1,1,3,1,0,1
58.945,0,1,2,13,23,6,2,2
58.95,1,0,1,5,5,0,1,1
58.955,2,1,0,4,11,9,4,3
58.96,3,0,2,2,1,3,1,3
58.965,1,2,5,6,6,3,4,0
58.97,1,2,1,4,18,11,6,1
58.975,3,2,1,30,31,4,4,2
58.98,3,7,5,0,57,17,5,3
58.985,0,1,13,6,9,11,2,1
58.99,2,6,7,2,4,19,5,1
58.995,2,2,18,10,37,1,0,1
59,4,15,29,9,8,6,8,2
59.005,6,0,17,11,7,28,7,0
59.01,3,22,55,27,75,9,5,4
59.015,13,51,31,2,95,4,4,10
59.02,5,3,54,7,83,7,5,0
59.025,6,11,64,8,4,22,2,2
59.03,2,31,22,4,26,29,6,3
59.035,17,43,13,22,28,52,11,3
59.04,2,81,116,17,24,15,6,5
59.045,41,3,98,4,78,10,8,6
59.05,2,36,119,26,65,10,16,2
59.055,22,45,59,69,74,2,3,9
59.06,32,92,106,56,44,10,7,17
59.065,9,29,84,11,46,41,19,4
59.07,48,2,56,37,116,24,5,11
59.075,13,2,51,40,1,93,17,4
59.08,20,53,18,51,122,1,14,11
59.085,0,58,128,82,6,14,20,16
59.09,32,109,70,7,7,10,0,3
59.095,13,16,93,8,32,48,1,4
59.1,3,28,65,7,35,15,6,3
59.105,19,32,90,32,19,27,2,7
59.11,6,11,91,47,5,26,1,2
59.115,9,11,11,25,93,17,9,12
59.12,15,25,31,44,42,6,7,3
59.125,40,9,1,8,43,9,0,4
59.13,7,6,14,33,88,11,1,0
59.135,3,11,65,36,10,15,7,3
59.14,3,11,2,7,44,0,2,3
59.145,0,9,2,9,39,2,3,1
59.15,7,9,71,15,48,8,3,0
59.155,1,13,71,11,10,16,3,2
59.16,4,9,19,4,12,10,7,7
59.165,7,11,29,24,8,5,1,0
59.17,15,1,24,9,2,6,6,8
59.175,5,9,22,15,7,21,7,3
59.18,3,14,0,21,17,8,4,1
59.185,2,4,17,8,23,6,3,2
59.19,9,3,23,2,9,2,1,2
59.195,3,15,3,6,1,9,7,3
59.2,3,3,13,1,7,2,3,1
59.205,0,9,48,6,30,2,2,2
59.21,3,28,10,16,6,7,2,0
59.215,2,6,9,10,17,26,5,1
59.22,8,2,1,25,13,46,4,1
59.225,3,3,14,16,44,10,1,1
59.23,2,1,7,3,4,7,2,1
59.235,1,1,2,12,13,3,3,1
59.24,4,4,6,29,36,12,4,3
59.245,3,1,0,5,13,0,4,5
59.25,6,3,1,17,15,5,3,3
59.255,1,5,5,11,11,7,3,4
59.26,1,1,8,23,1,11,3,1
59.265,1,9,9,18,35,4,2,2
59.27,6,2,3,2,11,7,7,5
59.275,2,0,2,14,28,1,3,0
59.28,1,1,1,22,33,0,2,1
59.285,18,1,7,14,18,7,1,2
59.29,12,1,0,20,17,1,2,2
59.295,0,5,10,7,14,3,0,1
59.3,2,3,3,41,86,5,3,2
59.305,4,2,0,45,61,12,4,6
59.31,4,2,0,5,38,1,0,1
59.315,2,5,12,11,10,2,0,1
59.32,2,5,4,7,78,14,6,5
59.325,3,5,9,7,127,15,4,2
59.33,9,5,7,28,46,12,7,5
59.335,6,5,6,39,9,10,7,13
59.34,10,15,17,74,93,23,8,11
59.345,2,0,3,11,25,4,2,10
59.35,1,1,0,4,66,10,0,7
59.355,3,2,4,37,70,0,4,11
59.36,1,2,0,1,85,9,5,6
59.365,5,0,3,1,69,9,4,1
59.37,7,2,4,50,64,7,3,14
59.375,5,12,6,22,11,4,3,3
59.38,4,13,4,43,33,5,1,2
59.385,0,3,2,2,1,3,2,1
59.39,1,6,13,89,74,16,1,4
59.395,2,3,10,51,22,13,5,6
59.4,2,2,1,14,81,6,3,2
59.405,1,2,4,55,47,7,4,5
59.41,0,1,4,21,1,2,2,2
59.415,0,1,2,7,32,0,1,3
59.42,1,4,1,1,5,1,1,2
59.425,3,6,9,6,41,6,6,3
59.43,1,1,5,7,75,4,2,0
59.435,2,4,9,33,19,5,2,3
59.44,1,2,3,19,98,10,5,1
59.445,2,3,0,2,58,12,5,0
59.45,3,1,6,37,3,6,3,3
59.455,1,3,2,3,2,1,4,3
59.46,1,0,2,19,58,0,1,1
59.465,1,4,0,29,81,6,2,2
59.47,1,1,2,8,24,1,2,10
59.475,3,0,2,15,27,4,2,6
59.48,0,1,1,7,29,5,1,1
59.485,1,11,6,18,76,9,4,2
59.49,1,0,0,13,13,8,2,2
59.495,1,0,2,1,12,2,0,0
59.5,0,1,0,13,15,3,4,2
59.505,1,1,4,32,111,10,5,4
59.51,1,0,2,38,114,8,1,3
59.515,1,3,0,37,4,0,3,2
59.52,3,1,0,5,22,8,8,7
59.525,0,1,2,7,10,1,2,2
59.53,0,0,4,38,91,5,1,1
59.535,1,0,2,17,72,3,0,4
59.54,0,1,0,8,43,3,3,2
59.545,1,1,2,2,24,4,2,3
59.55,2,2,1,11,8,1,1,3
59.555,2,1,2,7,23,3,1,2
59.56,1,1,2,28,27,1,1,1
59.565,1,2,7,38,52,5,2,1
59.57,2,3,6,54,109,4,0,5
59.575,4,0,2,25,100,10,5,3
59.58,1,1,1,3,44,4,0,3
59.585,1,1,2,15,51,3,1,1
59.59,1,1,1,18,24,3,1,2
59.595,0,1,1,3,16,2,1,1
59.6,1,2,2,7,1,1,1,1
59.605,0,2,1,15,26,1,1,2
59.61,1,1,1,19,22,3,2,2
59.615,1,8,3,13,22,4,1,0
59.62,0,1,2,11,44,8,3,0
59.625,3,2,2,8,46,0,1,3
59.63,2,0,5,18,4,4,3,2
59.635,2,0,2,0,61,6,1,1
59.64,1,2,1,0,4,2,3,2
59.645,3,4,2,10,31,3,0,1
59.65,0,2,2,5,15,2,0,0
59.655,5,0,3,20,7,0,2,2
59.66,1,5,14,42,39,5,3,2
59.665,2,4,4,20,28,4,1,2
59.67,2,2,1,15,52,1,1,1
59.675,1,2,2,11,19,0,1,1
59.68,1,3,2,6,30,1,1,2
59.685,2,0,3,4,18,1,3,2
59.69,1,1,1,5,21,2,0,1
59.695,1,1,1,2,35,2,0,1
59.7,3,1,1,3,68,9,3,2
59.705,0,1,1,9,2,0,0,1
59.71,2,0,7,23,17,5,0,0
59.715,0,0,6,0,69,9,4,2
59.72,1,6,3,2,104,5,1,0
59.725,0,1,2,33,67,7,1,0
59.73,0,3,2,5,78,1,3,1
59.735,2,0,2,6,53,7,1,4
59.74,2,2,0,4,8,2,0,3
59.745,1,2,1,17,21,1,0,1
59.75,2,1,3,4,5,0,2,3
59.755,0,1,2,10,19,1,2,1
59.76,1,1,1,5,47,5,2,1
59.765,4,1,1,1,1,3,1,0
59.77,0,0,1,1,20,1,1,1
59.775,1,1,1,4,45,4,2,0
59.78,3,2,1,5,28,5,2,2
59.785,1,4,0,1,4,0,4,0
59.79,1,1,0,2,6,3,1,1
59.795,2,1,4,13,20,1,1,1
59.8,1,1,3,9,53,0,2,2
59.805,1,1,1,8,34,2,1,1
59.81,0,4,0,7,60,2,0,2
59.815,0,0,0,8,41,2,2,1
59.82,0,2,1,18,31,1,1,1
59.825,1,0,3,21,25,1,3,3
59.83,0,2,3,29,92,2,1,1
59.835,1,4,1,7,27,3,1,2
59.84,4,1,3,29,51,1,2,2
59.845,1,5,1,11,23,1,1,3
59.85,2,0,11,10,5,0,2,0
59.855,2,2,2,2,3,1,1,0
59.86,0,2,0,23,18,1,2,3
59.865,1,2,2,20,9,1,1,2
59.87,0,2,2,8,14,4,5,2
59.875,1,4,4,1,35,1,1,1
59.88,4,4,1,12,2,6,2,4
59.885,3,3,3,6,52,0,1,4
59.89,1,9,2,4,29,5,0,0
59.895,1,9,0,17,59,10,2,4
59.9,5,9,4,10,89,8,0,2
59.905,2,7,0,2,64,5,2,4
59.91,0,3,6,17,20,1,2,2
59.915,0,4,0,22,47,1,0,0
59.92,0,4,1,3,39,6,3,3
59.925,5,6,3,26,46,1,1,3
59.93,2,0,4,19,2,1,0,3
59.935,2,2,3,1,1,1,1,1
59.94,1,3,15,18,10,2,0,1
59.945,5,1,15,9,9,1,1,0
59.95,0,0,9,3,8,2,2,3
59.955,1,3,1,7,25,3,0,0
59.96,0,0,3,4,22,1,2,0
59.965,0,0,1,2,12,2,1,3
59.97,1,1,2,17,39,3,0,2
59.975,2,2,3,13,2,4,1,2
59.98,1,0,0,1,47,4,2,1
59.985,1,2,3,2,42,1,0,3
59.99,2,3,6,9,27,1,1,0
59.995,1,3,4,7,35,1,1,2
60,0,0,4,3,59,1,1,2
60.005,1,2,0,12,42,1,0,0
60.01,1,2,4,4,70,1,2,3
60.015,2,0,0,11,70,7,3,3
60.02,2,1,3,1,0,4,0,0
60.025,3,2,7,14,2,9,3,1
60.03,0,0,0,14,13,2,0,0
60.035,3,4,5,2,4,1,1,2
60.04,0,2,7,22,29,4,0,3
60.045,2,2,2,2,44,8,4,2
60.05,0,0,1,1,2,3,0,1
60.055,3,7,9,8,10,3,4,2
60.06,1,5,4,2,24,20,5,2
60.065,1,0,4,25,27,4,0,0
60.07,2,1,1,11,18,4,4,1
60.075,0,3,2,11,29,14,6,1
60.08,4,1,1,0,12,2,3,2
60.085,1,4,0,32,113,1,1,2
60.09,8,13,34,75,117,10,4,6
60.095,4,12,16,14,11,4,2,2
60.1,2,3,11,19,32,5,4,1
60.105,2,6,20,17,4,0,0,0
60.11,6,7,17,21,3,2,4,6
60.115,0,11,15,29,75,8,1,1
60.12,4,10,1,1,17,12,2,1
60.125,8,2,12,2,89,3,4,3
60.13,10,9,1,9,33,8,8,3
60.135,2,13,27,0,30,8,4,0
60.14,3,32,6,4,3,11,1,1
60.145,20,50,63,7,27,5,2,4
60.15,38,18,76,25,10,6,1,4
60.155,25,20,2,5,9,1,0,5
60.16,23,5,86,27,21,8,11,1
60.165,5,5,1,28,42,6,16,11
60.17,33,23,42,28,18,21,2,7
60.175,10,56,13,17,13,15,3,7
60.18,23,0,27,40,119,37,4,15
60.185,77,69,123,17,5,4,8,17
60.19,62,101,14,5,37,58,9,9
60.195,30,23,6,50,91,47,7,4
60.2,108,42,127,4,15,12,5,10
60.205,76,19,4,51,11,78,20,2
60.21,12,51,25,27,15,14,7,3
60.215,19,12,36,27,8,14,7,18
60.22,9,10,74,16,30,3,2,3
60.225,15,1,100,7,58,1,0,6
60.23,18,38,54,38,90,0,1,0
60.235,8,27,6,2,1,1,2,5
60.24,5,11,60,40,23,7,5,1
60.245,16,7,70,21,18,8,1,1
60.25,9,3,50,17,21,4,3,3
60.255,33,6,88,52,40,24,13,18
60.26,12,23,20,27,6,20,0,0
60.265,31,8,21,11,5,30,2,6
60.27,4,0,19,65,25,15,8,8
60.275,3,6,22,1,19,11,5,1
60.28,14,25,34,16,23,12,3,0
60.285,39,23,22,35,21,10,1,4
60.29,29,18,20,1,12,12,6,6
60.295,2,8,3,4,13,11,1,2
60.3,6,21,6,5,3,3,3,2
60.305,2,5,26,4,15,13,0,1
60.31,15,2,19,25,14,0,7,6
60.315,11,2,25,6,22,5,5,5
60.32,4,3,2,5,15,1,0,2
60.325,5,15,40,56,93,6,1,2
60.33,11,8,10,1,22,13,2,3
60.335,17,8,12,22,35,9,3,1
60.34,18,14,26,87,48,4,3,8
60.345,4,8,14,33,60,2,6,7
60.35,4,8,7,18,29,5,1,21
60.355,2,5,11,1,29,3,3,32
60.36,30,58,9,11,8,4,11,23
60.365,26,26,1,29,23,7,0,17
60.37,8,7,11,2,15,16,10,10
60.375,13,15,11,8,18,5,1,29
60.38,18,20,6,49,62,21,4,36
60.385,3,3,11,4,6,2,0,2
60.39,0,7,5,19,63,7,1,2
60.395,3,7,5,2,57,15,7,12
60.4,8,50,2,42,81,9,6,19
60.405,17,31,6,0,0,8,2,24
60.41,19,2,1,22,14,12,7,41
60.415,12,36,8,44,11,1,2,12
60.42,12,26,0,45,109,1,2,15
60.425,4,14,1,6,49,7,3,0
60.43,2,0,3,22,22,5,3,20
60.435,6,20,2,7,77,1,1,23
60.44,2,8,1,34,23,4,1,14
60.445,5,7,1,5,10,5,0,11
60.45,7,7,1,11,50,2,1,12
60.455,7,5,5,21,59,2,2,23
60.46,3,2,1,19,53,5,1,14
60.465,8,4,14,4,78,21,6,0
60.47,3,4,0,7,3,2,0,4
60.475,1,6,1,5,40,4,3,8
60.48,0,5,1,7,19,1,2,6
60.485,1,3,0,6,80,7,1,1
60.49,6,16,13,37,56,14,8,9
60.495,1,12,2,30,30,5,2,7
60.5,1,4,0,6,78,2,4,10
60.505,6,2,0,21,127,2,3,8
60.51,5,7,1,16,25,5,4,5
60.515,1,3,2,4,49,4,4,1
60.52,0,6,0,17,23,1,1,6
60.525,6,3,2,11,29,4,3,2
60.53,2,3,6,7,17,5,2,4
60.535,3,2,1,6,23,0,0,4
60.54,3,8,2,3,42,3,2,5
60.545,0,3,4,16,31,4,0,2
60.55,0,2,2,22,8,1,0,4
60.555,3,1,1,6,55,2,3,4
60.56,2,4,5,12,14,3,1,5
60.565,1,1,0,20,11,1,0,1
60.57,1,1,5,35,72,5,1,1
60.575,4,4,11,78,55,13,4,0
60.58,3,8,0,41,54,1,1,2
60.585,3,1,2,4,9,1,0,2
60.59,2,1,0,7,6,0,2,1
60.595,0,3,4,24,26,4,0,1
60.6,1,1,1,21,50,3,1,4
60.605,1,2,3,3,2,1,1,1
60.61,1,1,0,10,53,5,4,4
60.615,0,2,3,10,60,3,0,1
60.62,3,4,5,10,29,6,3,2
60.625,4,5,2,36,51,10,3,2
60.63,6,4,5,46,55,4,2,1
60.635,3,2,5,4,8,6,4,5
60.64,0,1,5,32,55,1,3,3
60.645,3,2,2,11,42,1,0,1
60.65,0,2,2,1,29,3,2,3
60.655,1,1,1,12,24,5,1,1
60.66,2,1,2,12,34,2,1,1
60.665,1,2,1,3,33,2,2,0
60.67,0,0,1,6,89,1,0,0
60.675,0,1,2,23,92,6,1,1
60.68,0,1,4,19,60,8,4,3
60.685,1,3,3,8,6,1,3,1
60.69,3,0,1,11,7,3,2,3
60.695,1,0,1,9,18,0,0,1
60.7,2,0,2,14,15,5,1,2
60.705,3,1,3,5,18,2,1,0
60.71,1,2,15,5,27,1,1,2
60.715,1,1,2,13,86,1,1,0
60.72,0,1,3,17,23,1,3,2
60.725,3,2,0,8,4,4,2,2
60.73,0,1,0,8,16,2,2,1
60.735,2,0,1,5,2,3,1,1
60.74,2,2,2,2,14,1,0,1
60.745,2,1,0,5,4,1,0,0
60.75,0,1,0,16,21,3,0,1
60.755,1,3,4,18,39,0,2,1
60.76,0,1,2,22,13,1,1,2
60.765,2,1,5,31,48,6,2,1
60.77,2,1,1,8,1,1,1,3
60.775,1,1,1,1,6,2,2,1
60.78,1,1,1,5,3,1,1,1
60.785,2,1,2,0,1,1,1,1
60.79,0,1,6,18,13,2,1,0
60.795,2,3,6,27,38,3,2,2
60.8,4,2,14,32,21,8,3,4
60.805,2,2,1,26,21,2,3,2
60.81,4,1,0,17,21,0,3,3
60.815,1,0,2,17,35,1,1,0
60.82,1,0,5,9,8,0,0,2
60.825,1,1,2,7,8,2,2,0
60.83,0,0,3,3,0,4,0,1
60.835,1,2,0,1,5,2,1,1
60.84,0,0,2,10,45,2,1,1
60.845,0,2,2,2,33,2,2,1
60.85,1,2,1,12,34,3,3,3
60.855,1,0,4,1,33,0,2,0
60.86,1,1,4,20,16,0,1,0
60.865,2,3,4,13,11,2,1,0
60.87,1,1,2,12,7,1,0,2
60.875,2,1,1,6,18,0,2,0
60.88,1,3,3,5,5,1,1,2
60.885,1,2,2,2,13,2,2,4
60.89,0,3,0,16,15,5,3,1
60.895,1,1,3,12,24,1,3,1
60.9,2,2,1,12,24,3,1,2
60.905,1,2,2,46,40,8,3,0
60.91,0,1,2,5,23,1,1,2
60.915,2,3,3,0,10,1,1,2
60.92,0,1,2,9,20,1,1,1
60.925,3,3,14,5,18,0,2,4
60.93,1,1,1,6,14,1,0,1
60.935,1,1,2,22,14,2,1,1
60.94,0,2,3,37,22,5,0,2
60.945,0,1,2,26,84,6,1,0
60.95,3,3,4,25,74,7,4,3
60.955,1,2,0,13,3,8,3,2
60.96,1,2,5,18,4,1,1,0
60.965,1,1,2,21,18,4,1,1
60.97,1,1,2,4,27,0,2,1
60.975,1,0,1,17,4,3,0,0
60.98,2,0,2,14,12,5,2,2
60.985,2,1,3,2,13,6,3,1
60.99,1,0,4,3,6,0,2,0
60.995,1,2,2,5,14,0,1,1
61,1,0,3,16,2,0,1,2
61.005,1,2,5,38,7,2,2,2
61.01,0,1,4,4,8,5,3,1
61.015,0,3,4,15,23,2,0,2
61.02,2,3,2,46,1,6,5,2
61.025,0,1,5,5,34,7,0,1
61.03,1,2,4,2,1,1,5,5
61.035,2,2,9,4,48,3,2,1
61.04,1,5,1,2,50,0,3,1
61.045,2,1,2,12,4,2,3,2
61.05,3,1,17,18,29,10,2,1
61.055,2,3,2,4,10,5,4,2
61.06,2,0,12,10,20,2,4,2
61.065,4,20,23,9,66,7,1,5
61.07,8,9,44,15,61,1,2,2
61.075,15,20,16,5,9,5,2,4
61.08,2,54,35,6,48,19,1,2
61.085,18,6,21,3,53,15,0,0
61.09,7,8,18,22,11,44,6,0
61.095,23,6,51,50,34,62,6,2
61.1,2,20,34,44,46,16,11,2
61.105,2,39,42,58,84,9,2,10
61.11,23,23,15,38,77,23,0,6
61.115,27,25,111,35,1,27,4,10
61.12,14,7,14,1,70,27,15,9
61.125,39,38,27,20,47,43,14,7
61.13,27,55,69,75,117,3,3,7
61.135,32,11,120,66,84,17,9,1
61.14,13,16,76,33,57,9,0,5
61.145,27,11,50,24,33,19,12,2
61.15,36,8,16,61,9,19,0,0
61.155,10,20,76,63,33,9,12,10
61.16,9,49,46,50,37,17,9,4
61.165,4,100,13,21,4,5,4,1
61.17,15,37,42,95,23,3,5,5
61.175,8,22,40,111,18,33,0,6
61.18,3,17,26,81,3,21,4,5
61.185,13,1,13,0,7,10,5,6
61.19,10,18,74,17,50,27,3,0
61.195,18,15,44,17,100,45,13,1
61.2,20,6,3,23,66,1,3,3
61.205,5,2,3,10,14,1,7,5
61.21,21,12,5,35,5,8,1,3
61.215,3,25,11,7,14,8,2,2
61.22,6,24,24,7,2,7,2,3
61.225,0,10,8,7,34,2,3,1
61.23,2,15,12,30,14,1,2,1
61.235,7,2,6,28,30,13,5,3
61.24,6,4,4,26,6,10,4,3
61.245,13,10,8,6,3,8,1,1
61.25,7,6,12,21,0,7,2,2
61.255,6,0,6,8,10,7,6,4
61.26,8,7,0,23,36,3,1,3
61.265,4,3,2,32,49,2,2,3
61.27,5,1,8,2,7,8,4,3
61.275,2,4,2,11,4,6,3,1
61.28,4,4,4,10,43,1,2,2
61.285,2,4,6,2,10,6,3,1
61.29,5,17,1,12,46,2,2,1
61.295,4,18,3,0,11,10,7,6
61.3,2,9,2,16,83,7,2,4
61.305,2,4,4,4,38,12,7,5
61.31,5,3,5,45,41,11,6,5
61.315,7,6,0,14,1,2,1,1
61.32,12,8,17,21,19,6,5,5
61.325,0,5,7,44,63,9,4,11
61.33,5,10,5,23,59,15,5,2
61.335,16,3,3,18,92,6,2,6
61.34,21,14,2,11,44,3,1,4
61.345,0,4,4,8,18,2,0,5
61.35,1,13,3,10,8,5,1,6
61.355,5,20,1,1,20,6,1,7
61.36,8,15,0,19,80,3,3,12
61.365,3,10,5,31,83,14,8,13
61.37,3,3,1,0,73,8,2,2
61.375,1,1,0,20,68,8,5,9
61.38,4,2,6,13,7,5,0,6
61.385,0,0,6,28,30,5,3,3
61.39,6,2,5,3,11,5,5,5
61.395,3,0,6,27,9,9,5,0
61.4,4,2,0,26,43,0,3,2
61.405,4,7,3,12,89,3,2,5
61.41,2,3,3,11,9,1,2,1
61.415,2,2,4,32,62,2,2,2
61.42,4,9,4,4,45,2,3,2
61.425,2,1,2,3,15,0,1,7
61.43,1,5,0,0,31,0,1,1
61.435,2,1,0,18,17,2,1,2
61.44,1,6,1,15,92,7,2,3
61.445,2,2,3,1,16,1,2,2
61.45,1,4,4,13,16,3,1,2
61.455,1,5,8,17,5,2,3,0
61.46,3,2,1,6,13,2,2,4
61.465,0,1,1,4,2,3,2,2
61.47,1,0,2,18,11,2,2,2
61.475,0,1,1,12,30,2,1,2
61.48,2,3,1,22,41,3,1,3
61.485,3,2,5,5,15,6,4,4
61.49,2,1,1,4,12,2,5,3
61.495,2,1,2,18,28,2,1,0
61.5,0,2,4,7,55,3,2,2
61.505,2,3,7,5,12,1,0,2
61.51,1,1,3,11,0,2,3,2
61.515,2,0,0,1,35,1,0,2
61.52,0,3,9,40,72,7,3,3
61.525,1,2,2,42,112,6,1,0
61.53,3,8,11,26,24,8,2,2
61.535,2,0,0,19,9,2,4,2
61.54,0,3,4,19,18,6,3,1
61.545,0,3,5,42,19,7,2,2
61.55,1,1,6,15,9,0,1,2
61.555,1,3,2,18,11,2,0,0
61.56,1,2,1,1,70,3,0,2
61.565,2,3,2,15,93,4,4,4
61.57,3,8,5,11,26,13,4,3
61.575,2,8,2,20,37,2,2,1
61.58,0,3,1,11,87,1,2,2
61.585,1,3,11,7,71,2,3,5
61.59,1,1,2,1,38,5,0,0
61.595,2,7,4,75,128,9,4,5
61.6,2,2,3,1,23,1,2,0
61.605,2,1,3,13,48,4,3,0
61.61,1,4,3,37,2,2,1,2
61.615,2,0,2,25,38,0,1,0
61.62,1,2,7,11,11,2,0,0
61.625,1,1,2,13,40,3,2,2
61.63,5,3,9,3,73,6,2,0
61.635,8,7,2,16,62,6,0,1
61.64,3,3,1,11,26,2,5,2
61.645,3,5,10,19,40,4,4,3
61.65,2,1,1,59,47,3,1,0
61.655,0,12,10,21,31,10,3,1
61.66,3,8,2,22,44,9,2,5
61.665,2,2,0,12,74,5,2,0
61.67,0,5,7,12,32,3,4,1
61.675,2,2,1,37,7,6,1,0
61.68,3,7,3,22,28,3,2,0
61.685,1,22,3,44,63,11,1,1
61.69,12,35,6,25,21,12,7,5
61.695,3,10,1,16,60,8,3,1
61.7,4,2,5,26,10,5,4,2
61.705,2,0,8,46,55,2,3,3
61.71,2,10,2,36,67,0,1,0
61.715,1,1,4,6,115,1,3,3
61.72,1,0,8,49,40,1,1,0
61.725,7,0,7,11,98,3,0,0
61.73,5,6,10,28,121,5,1,1
61.735,2,10,2,12,27,5,5,3
61.74,4,8,3,21,11,2,0,0
61.745,3,0,10,9,45,4,0,1
61.75,9,10,2,39,60,9,3,4
61.755,3,12,2,16,69,1,0,3
61.76,1,4,7,22,15,1,1,3
61.765,0,7,10,4,62,5,0,1
61.77,0,9,9,67,19,3,1,0
61.775,1,4,2,6,54,1,1,2
61.78,4,5,12,36,120,7,1,3
61.785,3,8,8,24,33,12,4,3
61.79,1,3,0,3,6,2,1,0
61.795,2,10,9,9,38,5,2,2
61.8,7,16,8,22,73,4,1,1
61.805,6,14,2,8,107,2,1,0
61.81,1,2,1,28,60,0,4,3
61.815,0,8,2,40,88,1,1,0
61.82,1,4,3,18,5,1,3,2
61.825,3,6,1,27,95,8,4,1
61.83,2,4,0,66,22,8,3,3
61.835,1,18,6,5,11,10,1,0
61.84,1,11,18,92,78,8,5,4
61.845,2,2,2,31,68,5,0,0
61.85,4,7,7,15,12,6,3,1
61.855,1,1,24,3,18,1,1,1
61.86,3,6,3,25,10,4,6,3
61.865,0,3,0,10,29,4,0,1
61.87,3,2,1,11,39,2,1,0
61.875,0,5,4,18,60,4,1,2
61.88,2,6,3,46,49,6,1,2
61.885,2,5,7,11,50,5,1,1
61.89,5,4,3,15,61,4,3,4
61.895,3,0,3,21,73,5,3,1
61.9,1,7,5,6,29,1,3,0
61.905,0,1,6,37,52,2,1,1
61.91,1,1,4,0,30,1,4,0
61.915,1,6,5,6,63,3,0,1
61.92,2,2,4,5,9,1,0,1
61.925,1,1,0,33,70,4,1,2
61.93,2,6,3,17,85,6,0,2
61.935,3,7,6,2,68,5,1,1
61.94,3,2,0,25,27,1,1,1
61.945,1,1,6,23,29,4,2,1
61.95,0,1,6,11,22,3,5,3
61.955,0,1,0,20,17,1,1,3
61.96,3,1,2,21,38,3,2,0
61.965,2,2,1,0,43,3,1,1
61.97,2,3,6,26,61,1,1,0
61.975,3,1,2,5,15,5,3,3
61.98,3,6,14,3,74,7,5,2
61.985,0,4,17,4,18,1,0,3
61.99,1,4,4,12,12,2,0,1
61.995,1,1,3,22,18,2,0,1
62,0,0,2,14,14,3,1,0
62.005,3,1,6,2,28,2,2,2
62.01,1,3,2,43,82,10,4,3
62.015,1,1,3,2,17,6,1,2
62.02,1,3,3,11,29,3,1,1
62.025,1,1,2,2,14,3,1,2
62.03,1,1,2,19,66,1,0,2
62.035,1,1,6,5,46,5,3,0
62.04,2,1,0,15,8,0,0,0
62.045,2,3,5,27,69,2,3,0
62.05,2,5,2,30,31,1,3,4
62.055,1,5,2,3,6,1,1,2
62.06,2,0,5,3,8,2,1,1
62.065,1,0,1,3,7,2,1,2
62.07,1,1,3,2,20,3,2,1
62.075,5,2,1,14,17,1,1,2
62.08,0,0,2,34,55,2,3,2
62.085,1,11,1,64,73,2,2,3
62.09,3,2,10,10,28,5,2,1
62.095,1,3,1,1,39,0,1,2
62.1,4,1,3,5,55,5,2,0
62.105,2,2,4,34,80,1,0,0
62.11,1,1,3,15,5,6,6,2
62.115,2,3,4,17,45,2,4,2
62.12,0,2,8,21,22,3,3,4
62.125,4,3,12,27,31,6,2,2
62.13,1,1,1,8,20,2,3,1
62.135,2,3,7,39,104,5,3,2
62.14,2,2,8,61,104,8,1,1
62.145,2,1,3,25,67,2,1,2
62.15,3,2,3,4,6,1,1,0
62.155,4,4,5,5,41,1,3,1
62.16,1,1,5,8,40,3,1,3
62.165,0,0,10,11,23,2,1,0
62.17,2,2,14,33,27,6,4,2
62.175,0,3,1,3,5,1,2,1
62.18,2,2,2,8,1,4,2,0
62.185,2,1,1,2,25,2,0,1
62.19,0,1,2,23,56,6,3,0
62.195,3,1,1,1,23,3,3,1
62.2,1,4,32,15,83,1,1,1
62.205,1,3,6,3,37,1,1,2
62.21,0,2,7,12,10,2,1,2
62.215,1,1,9,16,47,5,0,1
62.22,5,7,7,6,22,1,4,2
62.225,1,0,2,16,5,1,3,1
62.23,2,2,5,13,19,4,3,4
62.235,2,3,8,8,7,7,4,0
62.24,0,2,7,10,11,2,1,4
62.245,3,22,11,10,23,1,0,1
62.25,0,1,2,2,26,3,3,0
62.255,3,1,9,3,9,3,0,2
62.26,0,2,8,10,2,6,1,2
62.265,1,3,6,2,33,2,1,2
62.27,0,0,3,14,8,1,5,2
62.275,2,5,4,32,38,4,3,1
62.28,0,7,34,6,8,8,4,2
62.285,1,4,7,6,23,2,2,2
62.29,2,1,3,12,49,5,2,2
62.295,1,2,0,12,13,7,1,0
62.3,3,1,14,0,15,6,3,3
62.305,3,1,1,3,22,1,3,0
62.31,15,15,6,0,30,2,4,6
62.315,0,10,5,13,31,1,0,2
62.32,17,6,5,24,11,7,3,4
62.325,16,24,7,5,16,4,2,9
62.33,29,14,5,8,15,9,5,8
62.335,1,5,23,39,36,5,2,4
62.34,18,3,5,9,15,1,1,3
62.345,3,14,19,5,9,13,5,2
62.35,1,3,20,23,60,2,1,3
62.355,4,10,3,5,54,6,1,3
62.36,10,11,9,21,100,2,1,1
62.365,14,50,63,27,86,10,3,1
62.37,18,4,55,17,77,1,9,5
62.375,33,9,79,8,8,8,2,3
62.38,86,22,19,24,0,29,13,24
62.385,81,19,102,33,75,32,18,30
62.39,18,14,110,12,28,19,5,1
62.395,9,95,86,38,5,21,9,6
62.4,41,82,19,6,38,5,14,16
62.405,71,17,24,3,65,31,0,10
62.41,83,78,40,15,94,23,9,17
62.415,69,123,3,15,58,3,4,2
62.42,36,42,88,36,8,11,13,11
62.425,35,78,35,5,7,23,21,16
62.43,6,23,10,3,10,18,1,7
62.435,112,5,33,4,38,29,1,15
62.44,110,20,5,105,1,13,14,29
62.445,102,29,69,127,49,7,2,17
62.45,114,27,53,107,83,60,17,7
62.455,66,19,72,15,29,20,6,5
62.46,78,52,34,52,60,53,7,7
62.465,85,9,41,18,78,39,14,5
62.47,55,88,107,20,44,42,22,1
62.475,26,98,127,82,70,6,6,9
62.48,128,31,21,37,51,36,2,15
62.485,55,5,31,50,58,14,2,2
62.49,24,24,18,39,5,15,2,4
62.495,41,3,2,13,10,6,7,15
62.5,72,15,55,43,14,1,5,16
62.505,9,6,49,57,3,22,4,5
62.51,54,8,8,36,11,14,1,9
62.515,20,14,10,1,1,4,4,7
62.52,41,25,36,28,7,3,1,3
62.525,27,11,36,8,5,7,3,1
62.53,1,15,51,16,4,5,2,1
62.535,3,11,27,35,37,18,7,5
62.54,4,9,22,22,10,7,8,3
62.545,3,28,20,4,7,5,1,2
62.55,6,5,0,10,21,6,1,1
62.555,1,4,17,7,4,5,1,0
62.56,21,8,13,19,16,9,3,0
62.565,5,15,6,4,2,1,2,0
62.57,14,4,6,14,20,4,3,4
62.575,25,9,15,30,37,4,0,2
62.58,5,5,19,6,5,2,5,5
62.585,20,9,16,7,1,9,6,20
62.59,24,17,13,30,30,3,3,17
62.595,13,21,8,26,32,0,2,12
62.6,13,2,15,72,3,4,2,0
62.605,23,2,4,39,26,10,3,7
62.61,24,35,1,26,4,5,3,4
62.615,21,53,3,25,3,2,1,11
62.62,5,15,7,24,48,3,7,22
62.625,32,2,5,9,56,4,8,10
62.63,26,5,12,18,3,19,6,41
62.635,34,40,5,109,36,14,3,1
62.64,51,36,16,1,42,14,2,9
62.645,18,35,4,11,44,5,2,16
62.65,7,13,8,51,50,14,1,24
62.655,13,32,0,5,8,1,1,6
62.66,16,24,2,37,9,4,2,17
62.665,9,2,8,33,27,0,7,18
62.67,2,7,5,40,76,1,10,4
62.675,8,33,8,48,24,3,1,2
62.68,9,46,1,43,26,13,2,19
62.685,21,35,5,6,22,32,11,8
62.69,7,26,1,32,35,13,3,9
62.695,23,10,4,27,36,3,5,2
62.7,4,17,4,25,80,5,2,5
62.705,3,1,7,17,34,3,2,4
62.71,5,1,3,8,6,1,1,8
62.715,8,19,1,10,27,0,0,1
62.72,7,10,3,10,54,0,3,8
62.725,4,0,4,3,78,4,2,4
62.73,3,4,0,21,16,1,3,16
62.735,5,1,7,19,59,10,3,8
62.74,1,5,6,1,64,8,2,2
62.745,2,10,3,40,19,3,0,5
62.75,3,15,1,19,16,8,3,7
62.755,1,2,3,18,96,11,2,8
62.76,3,1,6,5,75,13,5,1
62.765,7,4,5,15,65,12,5,3
62.77,2,0,0,15,4,1,1,3
62.775,4,1,1,26,65,2,2,1
62.78,0,0,5,33,8,4,1,3
62.785,0,0,1,7,15,1,2,1
62.79,1,5,1,5,17,1,3,3
62.795,4,0,2,0,1,0,3,1
62.8,4,5,1,4,18,4,3,0
62.805,0,3,2,14,3,1,0,2
62.81,0,1,1,10,7,2,1,2
62.815,5,5,3,6,62,4,2,3
62.82,1,2,4,9,1,4,1,1
62.825,1,3,2,37,48,7,4,0
62.83,1,4,3,16,11,2,3,4
62.835,2,3,4,37,21,6,2,0
62.84,0,0,1,14,7,1,1,0
62.845,1,1,1,4,29,6,2,1
62.85,1,4,2,13,64,7,0,0
62.855,3,1,1,2,74,6,0,1
62.86,3,1,1,13,12,0,1,0
62.865,3,5,3,16,16,3,4,4
62.87,2,1,4,19,89,5,2,3
62.875,1,1,0,4,28,1,1,0
62.88,2,3,2,28,73,5,5,4
62.885,1,1,2,12,63,2,0,0
62.89,0,4,0,4,5,1,1,0
62.895,0,2,1,9,10,1,0,1
62.9,3,2,1,12,22,1,2,0
62.905,0,1,2,31,59,3,1,0
62.91,3,3,6,32,37,5,3,4
62.915,2,0,2,10,31,2,1,1
62.92,1,0,4,11,62,4,3,0
62.925,0,1,0,6,46,2,1,4
62.93,2,3,3,1,71,7,2,2
62.935,0,1,4,28,99,8,0,2
62.94,1,0,2,12,17,0,2,1
62.945,2,7,3,11,4,2,1,2
62.95,1,0,0,7,11,6,2,0
62.955,1,2,3,8,3,4,3,2
62.96,1,0,9,16,45,2,2,0
62.965,2,2,6,52,125,11,5,3
62.97,1,0,1,6,58,1,1,1
62.975,0,2,0,0,26,3,2,1
62.98,1,1,2,9,1,3,1,1
62.985,0,2,1,7,43,1,0,1
62.99,0,1,0,4,40,0,2,1
62.995,0,0,5,0,2,2,2,0
63,3,2,0,4,47,4,3,2
63.005,0,1,2,20,10,1,3,3
63.01,2,2,2,26,36,4,4,3
63.015,1,1,2,6,33,1,1,2
63.02,1,0,2,7,2,0,3,0
63.025,2,0,0,5,15,0,1,0
63.03,0,2,2,10,2,1,1,0
63.035,3,1,4,8,9,1,2,1
63.04,4,2,3,26,39,9,4,3
63.045,1,0,0,5,12,1,0,2
63.05,1,2,3,8,24,3,1,0
63.055,0,0,2,4,4,4,1,2
63.06,1,1,1,4,4,1,1,1
63.065,1,0,1,4,11,1,1,0
63.07,2,1,0,5,18,1,2,1
63.075,3,2,0,17,51,4,7,2
63.08,1,2,3,50,100,7,1,3
63.085,0,1,0,0,7,4,2,2
63.09,0,0,1,1,16,5,6,2
63.095,1,0,1,3,11,0,1,1
63.1,1,1,2,5,0,1,1,2
63.105,0,0,0,3,5,3,3,1
63.11,1,2,2,8,24,4,3,1
63.115,2,3,7,18,16,3,1,2
63.12,1,1,2,20,54,6,2,1
63.125,3,1,2,21,46,2,0,1
63.13,1,1,5,8,14,3,1,0
63.135,1,1,2,12,25,8,1,1
63.14,0,1,1,11,47,4,1,2
63.145,1,0,2,20,45,6,2,2
63.15,0,1,1,16,3,1,2,0
63.155,1,1,1,10,7,5,4,0
63.16,0,0,2,15,28,0,1,0
63.165,1,1,1,1,17,6,3,0
63.17,1,1,6,6,12,2,3,2
63.175,2,4,6,5,69,9,1,3
63.18,3,3,1,17,57,2,5,2
63.185,7,12,0,1,27,16,8,5
63.19,2,4,9,3,7,6,3,1
63.195,6,23,12,8,12,3,3,5
63.2,1,4,5,3,11,8,2,1
63.205,2,16,14,6,13,19,9,3
63.21,8,18,4,24,17,18,1,4
63.215,12,16,5,8,20,5,2,4
63.22,1,13,21,11,38,5,3,2
63.225,1,2,42,13,3,3,2,1
63.23,9,7,29,15,0,7,0,3
63.235,2,57,6,14,3,1,8,9
63.24,1,6,57,10,24,9,0,0
63.245,29,8,17,4,26,1,1,1
63.25,25,25,51,20,62,12,3,2
63.255,3,28,4,20,8,26,8,11
63.26,20,17,5,20,58,15,2,3
63.265,46,27,92,30,65,1,7,3
63.27,20,28,118,30,24,6,5,15
63.275,32,53,84,28,65,30,19,16
63.28,29,29,96,36,75,15,4,3
63.285,2,33,65,5,9,9,4,1
63.29,52,15,71,7,39,19,12,1
63.295,29,21,60,4,4,8,2,0
63.3,50,26,60,43,3,16,2,6
63.305,16,49,52,6,64,15,6,12
63.31,27,10,42,36,123,5,8,14
63.315,29,42,20,23,91,48,13,2
63.32,56,60,100,29,60,26,21,2
63.325,11,43,105,16,20,22,7,1
63.33,12,28,54,19,5,25,3,1
63.335,6,64,75,84,119,27,8,3
63.34,62,27,71,11,114,18,0,10
63.345,36,56,21,6,73,18,0,8
63.35,35,10,53,25,3,22,3,7
63.355,5,63,56,2,55,8,7,0
63.36,12,13,116,26,9,23,5,6
63.365,49,9,5,7,9,27,11,3
63.37,43,22,22,12,29,24,2,2
63.375,35,30,87,1,9,13,10,17
63.38,12,1,12,18,5,13,9,7
63.385,5,1,45,19,37,6,3,2
63.39,11,6,15,8,7,2,1,0
63.395,1,16,60,16,2,13,1,2
63.4,29,4,47,4,27,7,2,1
63.405,16,11,38,17,62,8,3,1
63.41,10,9,19,7,40,3,3,2
63.415,10,7,41,7,16,15,8,6
63.42,13,11,48,7,13,11,7,4
63.425,28,7,3,3,6,7,4,4
63.43,7,0,36,18,16,3,1,1
63.435,6,1,3,12,15,3,0,2
63.44,0,9,51,8,117,2,4,2
63.445,12,1,5,43,125,12,1,1
63.45,12,2,24,3,3,1,2,1
63.455,1,7,16,14,73,12,0,1
63.46,23,28,24,4,15,15,8,56
63.465,1,8,34,8,57,15,11,98
63.47,37,12,8,74,112,3,5,40
63.475,23,7,14,38,128,8,2,26
63.48,35,9,6,29,71,0,3,16
63.485,56,62,6,25,125,9,2,53
63.49,25,56,17,81,128,18,8,15
63.495,11,64,15,116,127,27,10,29
63.5,16,50,6,49,58,23,13,82
63.505,18,18,1,11,95,3,11,63
63.51,7,26,0,7,23,15,2,43
63.515,5,70,4,27,38,7,8,33
63.52,4,35,9,42,45,0,1,18
63.525,19,39,4,44,22,10,4,94
63.53,20,62,5,16,79,11,4,110
63.535,12,31,7,7,48,5,4,14
63.54,22,28,12,19,111,1,19,73
63.545,12,34,3,10,21,14,1,22
63.55,17,31,19,39,107,21,9,17
63.555,8,15,1,3,50,9,4,17
63.56,54,12,11,30,88,3,15,19
63.565,38,10,11,32,78,1,2,29
63.57,12,1,17,79,94,20,6,1
63.575,12,24,7,17,62,6,3,0
63.58,1,5,9,35,29,12,5,7
63.585,25,12,2,16,68,10,5,13
63.59,13,19,3,8,62,4,2,18
63.595,1,2,4,3,102,7,1,13
63.6,7,5,3,25,86,10,5,20
63.605,1,2,4,2,28,3,2,14
63.61,18,5,2,13,50,7,3,25
63.615,3,16,6,64,25,7,2,6
63.62,6,8,0,14,13,5,1,21
63.625,8,4,0,2,33,7,3,13
63.63,6,7,1,3,11,0,2,30
63.635,3,8,3,1,15,2,1,15
63.64,3,2,1,10,102,8,2,6
63.645,1,0,4,33,73,17,2,26
63.65,11,7,2,22,31,6,6,10
63.655,2,4,3,9,24,4,6,4
63.66,0,0,4,8,36,1,2,5
63.665,17,3,4,32,47,4,0,0
63.67,15,2,1,11,51,0,3,13
63.675,3,5,1,22,69,2,0,4
63.68,6,3,4,13,51,7,6,3
63.685,5,2,1,12,20,1,2,0
63.69,7,3,1,9,51,7,5,5
63.695,3,1,3,18,37,1,2,11
63.7,2,0,1,6,32,1,1,9
63.705,5,1,2,9,17,6,2,0
63.71,2,2,1,4,48,3,0,3
63.715,3,5,0,11,2,2,3,7
63.72,1,3,3,13,29,2,2,5
63.725,1,2,3,2,40,2,1,2
63.73,4,5,3,35,73,6,3,6
63.735,0,1,3,4,14,1,3,1
63.74,5,2,1,24,36,3,3,2
63.745,0,2,1,12,15,8,2,5
63.75,0,1,2,10,12,2,1,2
63.755,5,2,3,2,39,0,1,1
63.76,4,0,0,11,11,1,1,16
63.765,5,2,1,14,1,1,1,14
63.77,0,1,3,1,11,2,4,4
63.775,0,3,0,2,2,3,2,2
63.78,2,2,4,6,25,2,3,4
63.785,1,2,1,0,28,1,1,5
63.79,2,3,1,13,61,0,1,6
63.795,3,2,2,3,58,7,2,2
63.8,2,0,1,1,25,1,1,9
63.805,3,3,8,25,18,7,5,7
63.81,0,1,5,32,59,4,0,3
63.815,3,4,1,16,17,0,3,4
63.82,2,3,2,10,16,2,1,5
63.825,1,1,1,0,14,0,1,1
63.83,2,1,0,1,20,1,1,7
63.835,0,2,1,5,56,1,0,2
