41.005,1,3,1,1,4,4,2,1
41.01,2,1,1,0,3,1,2,2
41.015,1,2,1,1,5,3,2,4
41.02,0,0,1,2,1,3,1,3
41.025,1,0,0,1,0,2,1,1
41.03,1,1,0,1,2,0,1,0
41.035,2,1,1,1,2,1,3,2
41.04,0,1,2,0,0,2,3,3
41.045,2,0,2,2,1,3,4,2
41.05,2,4,0,0,1,4,3,5
41.055,1,1,1,1,2,3,4,0
41.06,0,0,1,1,0,1,1,1
41.065,1,1,1,0,1,2,1,1
41.07,3,0,0,2,2,2,1,2
41.075,2,3,2,2,2,3,5,3
41.08,3,3,0,2,2,3,2,2
41.085,2,2,2,1,0,4,1,0
41.09,1,1,1,2,1,2,3,0
41.095,1,2,0,3,3,4,2,0
41.1,0,0,1,0,2,0,1,0
41.105,1,0,1,0,2,2,0,1
41.11,3,3,2,0,3,2,1,1
41.115,1,0,1,0,3,2,0,1
41.12,0,3,1,2,0,1,4,2
41.125,2,2,1,0,1,1,3,4
41.13,0,1,0,1,0,2,1,2
41.135,2,1,0,1,3,5,3,3
41.14,4,0,1,2,1,2,0,1
41.145,1,1,1,0,1,3,4,2
41.15,2,1,1,1,4,2,0,0
41.155,1,1,1,1,2,2,2,1
41.16,2,3,3,3,4,2,1,1
41.165,0,0,1,2,1,2,1,2
41.17,2,3,0,2,1,0,0,1
41.175,1,0,2,1,0,1,1,3
41.18,2,1,1,0,5,3,0,1
41.185,0,0,0,0,3,3,2,1
41.19,0,1,2,2,0,1,2,1
41.195,2,3,1,0,0,4,3,1
41.2,2,2,0,1,1,7,5,4
41.205,1,3,4,1,1,3,4,0
41.21,1,0,1,0,2,2,1,3
41.215,1,0,0,1,2,1,1,0
41.22,0,1,0,2,7,4,1,1
41.225,1,2,0,1,3,2,4,4
41.23,1,2,0,0,1,4,3,0
41.235,0,2,1,1,1,4,4,0
41.24,1,2,2,1,2,2,1,0
41.245,2,0,2,3,4,3,3,1
41.25,1,0,3,3,2,5,5,2
41.255,0,0,1,2,2,2,1,3
41.26,3,0,1,1,1,3,3,1
41.265,3,2,2,0,3,5,5,1
41.27,3,0,0,2,3,1,1,1
41.275,0,0,1,2,6,1,4,3
41.28,0,1,1,1,3,0,0,2
41.285,2,2,1,0,0,1,1,1
41.29,2,2,1,1,2,1,3,3
41.295,3,0,1,2,5,3,4,3
41.3,4,1,1,1,1,2,2,1
41.305,1,2,1,2,1,1,1,2
41.31,1,2,1,2,5,4,2,1
41.315,0,1,2,1,3,6,4,2
41.32,1,3,1,2,0,0,1,1
41.325,2,1,0,1,0,0,0,1
41.33,0,2,2,0,1,4,2,4
41.335,3,1,2,2,4,1,6,3
41.34,2,2,2,5,2,1,1,1
41.345,0,1,1,1,0,3,3,1
41.35,0,1,1,0,2,1,1,1
41.355,0,1,0,0,1,4,1,0
41.36,1,2,1,3,1,0,2,2
41.365,4,2,0,1,1,3,2,3
41.37,1,1,2,2,2,3,2,1
41.375,1,2,1,2,4,0,1,1
41.38,1,1,1,0,2,1,0,0
41.385,1,1,1,1,1,2,1,0
41.39,2,0,1,0,1,3,3,3
41.395,1,2,2,0,1,3,4,4
41.4,1,0,1,3,0,2,1,0
41.405,2,1,0,3,5,2,3,3
41.41,1,1,3,1,1,1,1,2
41.415,1,0,2,1,1,3,2,1
41.42,1,1,1,1,1,0,0,2
41.425,2,0,0,1,0,2,3,2
41.43,0,1,2,2,1,2,0,0
41.435,2,1,3,3,1,2,4,0
41.44,2,0,2,2,7,3,0,0
41.445,0,2,0,1,0,1,2,2
41.45,1,2,1,0,1,2,0,2
41.455,1,1,3,0,4,0,1,1
41.46,0,0,0,1,1,4,0,2
41.465,0,0,2,1,1,1,3,1
41.47,2,2,3,2,4,3,2,1
41.475,1,0,1,1,1,1,2,1
41.48,2,2,1,2,0,1,2,2
41.485,1,0,0,0,2,2,2,0
41.49,1,2,0,2,1,2,2,2
41.495,0,1,1,0,1,3,0,0
41.5,0,1,2,1,3,3,2,1
41.505,2,3,3,3,1,2,3,2
41.51,4,1,1,1,4,2,1,1
41.515,1,1,0,3,12,1,3,1
41.52,2,2,1,0,3,1,1,1
41.525,1,2,2,2,6,1,2,1
41.53,1,1,1,0,2,2,1,1
41.535,0,4,1,3,0,3,2,1
41.54,0,1,0,1,2,0,1,2
41.545,4,0,1,0,3,6,1,1
41.55,1,1,2,3,2,4,0,2
41.555,0,2,0,0,2,1,3,2
41.56,0,1,1,1,1,1,2,2
41.565,1,2,3,1,2,2,1,0
41.57,1,2,2,2,2,3,2,2
41.575,1,2,1,0,3,2,1,1
41.58,1,0,2,2,13,2,4,2
41.585,1,3,1,1,0,3,3,3
41.59,1,0,0,1,2,2,2,1
41.595,2,0,2,2,1,3,3,2
41.6,0,2,0,1,3,4,2,2
41.605,2,1,1,1,2,0,2,0
41.61,1,1,1,1,7,4,0,1
41.615,1,2,3,1,1,0,3,1
41.62,2,0,1,0,1,5,3,0
41.625,2,1,1,1,3,2,1,1
41.63,0,1,2,1,1,1,0,1
41.635,2,1,1,1,5,4,2,4
41.64,0,1,0,2,4,4,1,1
41.645,1,2,2,3,4,4,1,2
41.65,2,2,2,3,5,2,3,1
41.655,2,2,0,1,2,1,4,2
41.66,1,2,3,0,1,1,1,2
41.665,0,1,1,1,2,1,1,1
41.67,2,0,1,0,2,1,2,3
41.675,2,1,1,1,3,4,2,1
41.68,1,3,3,1,1,4,3,3
41.685,1,2,0,0,1,1,0,0
41.69,1,1,2,0,3,0,0,0
41.695,1,3,1,2,1,2,4,2
41.7,2,1,3,2,2,3,1,3
41.705,1,1,0,2,0,1,1,4
41.71,1,1,0,1,0,0,1,0
41.715,1,2,1,2,0,1,4,2
41.72,1,2,3,1,0,4,3,3
41.725,1,2,1,5,2,2,1,1
41.73,2,3,1,2,2,0,1,1
41.735,2,1,0,0,3,4,5,1
41.74,1,1,1,1,0,1,3,0
41.745,3,2,2,1,0,0,4,2
41.75,0,1,2,0,1,0,2,2
41.755,2,1,1,1,14,6,4,5
41.76,1,0,0,3,2,8,3,1
41.765,1,1,1,1,2,1,0,0
41.77,0,1,1,1,0,4,0,3
41.775,1,1,1,1,3,1,1,3
41.78,2,0,0,1,2,2,4,1
41.785,2,1,1,1,0,0,1,1
41.79,1,2,1,1,3,1,2,3
41.795,0,0,0,1,4,1,0,1
41.8,1,1,1,2,0,2,0,1
41.805,1,2,1,0,1,0,1,1
41.81,2,2,0,4,6,4,2,3
41.815,0,1,4,1,2,2,4,3
41.82,0,3,1,3,2,4,3,0
41.825,1,0,1,1,2,3,3,2
41.83,0,0,0,2,7,2,1,4
41.835,1,1,1,1,0,5,3,3
41.84,3,1,2,0,2,3,4,4
41.845,1,1,1,2,3,1,2,0
41.85,2,2,3,0,0,2,1,0
41.855,1,0,1,0,7,8,3,3
41.86,0,1,2,0,2,3,3,3
41.865,1,0,1,0,1,3,4,4
41.87,1,1,1,2,3,2,1,1
41.875,0,1,0,3,0,5,2,1
41.88,4,1,0,1,0,2,0,1
41.885,1,0,2,0,4,3,2,0
41.89,0,1,0,2,2,3,2,3
41.895,3,1,1,1,2,5,1,1
41.9,1,2,2,1,5,2,0,1
41.905,2,2,1,2,1,0,3,3
41.91,1,3,0,1,2,2,0,0
41.915,1,0,2,0,2,2,1,0
41.92,1,1,0,1,2,1,1,0
41.925,3,2,4,3,1,5,2,1
41.93,1,1,3,1,2,5,3,1
41.935,1,0,2,2,1,3,0,1
41.94,1,2,0,2,3,1,1,1
41.945,2,1,1,1,2,3,2,0
41.95,0,1,1,2,1,1,2,0
41.955,1,1,0,1,1,2,1,2
41.96,4,1,2,2,2,6,2,4
41.965,0,2,1,1,3,4,1,1
41.97,1,2,2,1,3,1,0,4
41.975,1,2,1,1,3,3,2,1
41.98,1,1,2,4,2,2,1,2
41.985,0,1,1,1,1,5,3,3
41.99,3,2,3,0,1,4,1,1
41.995,2,2,1,0,2,3,1,1
42,1,1,1,0,2,1,3,2
42.005,0,1,3,1,2,2,2,2
42.01,0,1,1,1,1,2,0,1
42.015,3,2,1,1,2,7,5,5
42.02,1,1,1,2,3,2,2,3
42.025,0,0,0,2,2,1,1,1
42.03,1,1,1,2,1,1,1,2
42.035,1,0,3,1,1,1,5,2
42.04,1,2,2,1,4,2,2,1
42.045,1,1,1,0,4,4,1,1
42.05,2,0,0,0,2,1,2,2
42.055,0,1,0,2,0,2,0,1
42.06,1,2,1,0,2,2,3,3
42.065,2,2,2,3,0,2,1,1
42.07,3,1,2,1,2,0,1,1
42.075,1,2,3,2,2,1,1,1
42.08,1,0,1,2,3,2,1,1
42.085,0,0,0,1,3,1,1,0
42.09,2,1,0,2,2,1,2,0
42.095,1,2,2,0,2,1,2,1
42.1,1,2,1,1,4,2,2,1
42.105,1,2,3,13,1,0,0,0
42.11,1,2,0,2,1,1,1,0
42.115,0,2,0,3,1,3,3,3
42.12,3,2,1,2,3,2,0,0
42.125,1,1,1,12,27,3,2,3
42.13,1,1,4,12,20,7,3,1
42.135,1,1,3,5,7,1,2,1
42.14,2,1,1,7,9,2,1,3
42.145,1,1,3,1,5,1,2,2
42.15,1,1,1,7,17,0,2,2
42.155,0,1,2,1,1,1,2,2
42.16,0,0,2,9,12,6,4,3
42.165,0,1,1,2,7,2,1,3
42.17,4,3,1,1,1,1,1,1
42.175,1,1,0,5,6,1,1,1
42.18,0,0,1,1,2,3,1,2
42.185,3,0,0,5,14,5,1,4
42.19,1,1,2,1,1,1,2,2
42.195,1,3,2,2,7,3,2,1
42.2,1,0,0,1,0,1,2,1
42.205,1,1,1,1,6,1,2,2
42.21,1,1,2,2,4,0,1,0
42.215,3,1,1,1,7,2,3,5
42.22,2,1,2,3,4,1,2,1
42.225,2,2,1,2,4,3,2,2
42.23,1,1,1,1,4,1,3,3
42.235,1,0,1,2,4,4,2,2
42.24,1,2,1,2,0,1,0,1
42.245,0,2,1,0,5,5,5,2
42.25,1,0,1,1,2,3,1,2
42.255,1,1,4,0,3,3,1,0
42.26,3,1,2,2,5,2,1,2
42.265,2,0,2,0,2,0,0,0
42.27,0,0,2,2,1,2,3,1
42.275,0,1,1,2,1,1,2,2
42.28,1,1,2,1,2,1,1,2
42.285,0,3,2,1,1,3,4,1
42.29,1,2,0,3,2,1,2,2
42.295,1,2,1,1,0,1,1,2
42.3,0,2,1,5,1,2,2,1
42.305,2,0,2,1,4,2,1,3
42.31,1,2,2,1,0,3,4,1
42.315,2,2,2,1,4,2,2,3
42.32,2,1,0,1,3,5,1,0
42.325,0,1,1,2,4,2,0,1
42.33,1,0,2,1,3,0,1,0
42.335,3,0,1,0,0,4,2,2
42.34,2,1,2,2,4,3,6,0
42.345,1,1,1,0,0,1,0,2
42.35,1,1,0,1,1,1,3,0
42.355,0,1,1,1,1,1,1,1
42.36,1,0,1,1,5,1,0,1
42.365,0,1,1,1,2,1,0,0
42.37,0,0,1,2,3,2,1,3
42.375,0,1,2,2,0,3,1,1
42.38,2,3,0,1,2,2,0,1
42.385,1,2,3,1,8,2,4,3
42.39,1,2,2,3,1,2,2,2
42.395,1,1,2,1,1,0,1,1
42.4,0,1,0,0,2,2,1,2
42.405,2,2,2,2,2,3,1,1
42.41,0,1,1,1,1,1,1,2
42.415,3,1,2,1,1,3,1,2
42.42,1,2,2,1,4,1,4,3
42.425,3,0,0,1,2,2,4,3
42.43,1,2,1,2,4,3,1,0
42.435,1,1,0,2,1,1,0,3
42.44,1,0,1,1,2,3,2,2
42.445,1,1,2,1,0,1,0,2
42.45,2,2,1,1,1,3,1,0
42.455,2,0,0,1,2,2,1,3
42.46,2,1,1,5,1,1,1,3
42.465,1,1,4,10,7,0,2,2
42.47,2,0,1,15,29,5,3,2
42.475,0,1,2,15,40,2,2,3
42.48,0,1,4,1,11,2,1,2
42.485,2,0,1,7,18,2,4,2
42.49,2,2,1,27,38,3,1,4
42.495,0,1,1,9,25,8,6,2
42.5,2,1,3,2,24,1,3,4
42.505,2,2,5,50,56,5,1,2
42.51,2,2,1,3,6,1,0,0
42.515,1,2,0,14,18,3,1,2
42.52,1,4,1,14,11,1,0,2
42.525,1,1,2,16,26,0,2,0
42.53,3,1,4,21,45,10,4,1
42.535,1,1,3,9,31,5,1,2
42.54,2,2,3,39,53,4,2,3
42.545,2,2,0,10,10,2,0,1
42.55,1,1,3,2,4,1,2,2
42.555,0,1,2,2,7,3,0,3
42.56,1,2,0,7,4,0,0,2
42.565,1,1,3,7,18,4,2,1
42.57,1,3,2,1,38,4,1,0
42.575,1,1,2,1,11,2,0,2
42.58,1,1,2,21,28,2,1,0
42.585,1,0,2,7,0,0,2,2
42.59,1,0,2,14,1,2,1,2
42.595,0,5,0,1,29,1,1,2
42.6,0,0,1,7,33,2,0,1
42.605,1,3,5,14,14,12,5,3
42.61,2,0,1,0,12,3,1,0
42.615,2,1,3,1,12,0,1,1
42.62,0,1,1,6,29,2,1,1
42.625,2,2,2,9,11,2,1,1
42.63,1,0,0,0,13,1,1,1
42.635,0,1,1,5,20,1,2,1
42.64,1,1,2,1,2,3,1,3
42.645,0,1,1,1,17,2,1,0
42.65,0,3,4,0,7,5,3,1
42.655,1,1,2,8,7,6,2,0
42.66,2,2,7,5,5,4,0,2
42.665,0,1,2,1,9,1,1,1
42.67,2,1,1,10,32,4,2,1
42.675,2,1,3,10,37,5,3,3
42.68,0,1,2,3,2,4,3,1
42.685,1,1,1,4,1,1,2,1
42.69,2,1,0,5,7,5,0,2
42.695,2,4,2,1,1,4,2,2
42.7,3,1,1,3,6,0,2,1
42.705,1,0,1,12,6,2,1,4
42.71,1,3,0,5,9,0,3,2
42.715,2,3,1,4,1,1,0,2
42.72,1,2,1,0,2,3,2,2
42.725,0,1,2,5,1,3,2,2
42.73,1,1,3,3,1,0,3,3
42.735,0,1,1,2,0,1,1,1
42.74,1,2,1,1,1,1,0,1
42.745,3,0,0,0,5,0,1,1
42.75,3,0,3,0,1,4,1,2
42.755,0,1,1,0,4,1,1,0
42.76,0,1,0,3,1,1,1,1
42.765,0,1,1,2,2,4,1,1
42.77,1,1,1,1,2,1,2,0
42.775,3,1,2,1,3,4,4,3
42.78,3,1,1,2,4,3,3,3
42.785,0,1,2,1,2,2,0,1
42.79,2,0,0,1,0,1,1,1
42.795,0,1,2,2,2,1,1,4
42.8,1,3,0,2,2,2,1,1
42.805,3,3,2,4,2,3,2,2
42.81,2,1,2,1,4,1,6,5
42.815,1,1,3,4,2,1,2,1
42.82,1,1,0,1,2,3,3,2
42.825,2,2,1,2,1,4,1,0
42.83,1,2,2,0,1,2,0,1
42.835,2,0,3,1,1,4,4,4
42.84,2,3,4,3,2,2,2,3
42.845,1,2,1,2,4,0,0,1
42.85,2,4,3,6,4,5,4,3
42.855,1,2,3,0,1,1,2,0
42.86,0,1,2,1,5,4,4,2
42.865,1,1,0,2,4,2,1,3
42.87,3,0,1,2,6,5,4,3
42.875,0,0,3,3,3,1,4,1
42.88,2,0,4,1,0,4,2,2
42.885,2,1,2,1,6,4,4,2
42.89,1,2,1,5,0,2,4,2
42.895,1,1,4,3,1,1,1,1
42.9,1,1,1,9,2,2,0,2
42.905,4,2,2,11,7,7,4,0
42.91,0,0,3,5,2,2,2,0
42.915,2,1,8,6,1,3,3,1
42.92,3,3,9,1,5,4,2,1
42.925,1,1,3,4,5,4,2,1
42.93,2,1,0,4,5,1,1,3
42.935,0,2,4,10,15,6,3,2
42.94,1,1,3,12,10,3,1,4
42.945,0,0,5,10,18,3,0,0
42.95,1,0,1,16,12,0,0,1
42.955,1,1,1,9,17,0,2,1
42.96,2,2,3,1,2,4,5,1
42.965,2,2,3,2,6,0,1,1
42.97,1,0,1,15,22,3,0,0
42.975,0,2,2,24,16,4,0,1
42.98,0,2,0,10,3,1,2,1
42.985,0,2,3,40,52,6,3,1
42.99,1,2,2,25,53,3,0,0
42.995,5,5,8,38,69,12,6,5
43,1,1,1,17,42,2,3,0
43.005,1,0,4,48,35,3,2,0
43.01,3,2,6,19,14,4,3,3
43.015,0,3,8,35,53,8,5,1
43.02,2,4,13,89,88,8,4,4
43.025,2,2,6,85,74,9,2,1
43.03,6,6,13,41,79,19,8,12
43.035,1,1,5,38,119,7,1,10
43.04,1,2,2,36,57,5,2,1
43.045,0,4,1,43,26,2,1,0
43.05,0,1,3,14,51,1,1,1
43.055,1,2,2,12,6,0,2,1
43.06,1,3,5,15,28,10,7,5
43.065,1,1,2,18,12,2,1,2
43.07,0,2,3,28,42,1,3,5
43.075,4,3,5,33,3,7,2,11
43.08,1,1,3,7,14,1,2,2
43.085,1,1,1,12,71,2,0,1
43.09,2,6,7,6,11,5,3,7
43.095,3,3,1,9,51,6,4,3
43.1,1,2,0,6,63,2,0,2
43.105,2,3,3,9,5,3,3,3
43.11,1,2,3,19,42,2,1,1
43.115,3,1,4,23,51,4,4,11
43.12,5,12,4,5,75,2,3,2
43.125,0,0,2,27,100,5,4,16
43.13,2,2,1,0,11,3,0,25
43.135,1,4,0,25,2,1,2,9
43.14,0,1,4,13,14,2,1,6
43.145,3,2,4,12,18,2,4,3
43.15,1,2,1,8,11,1,1,2
43.155,2,2,2,2,15,4,6,2
43.16,0,0,0,1,6,1,0,3
43.165,0,1,0,5,5,1,3,6
43.17,2,1,1,11,13,1,0,3
43.175,2,1,3,14,14,3,3,1
43.18,1,1,1,8,14,0,2,4
43.185,1,1,2,9,28,0,1,1
43.19,1,0,5,12,6,1,2,1
43.195,2,2,1,2,21,4,3,1
43.2,1,2,1,3,4,2,1,2
43.205,0,3,0,8,1,4,3,2
43.21,0,1,2,29,8,1,1,0
43.215,2,2,5,15,19,2,1,2
43.22,1,1,2,10,21,4,0,1
43.225,0,2,4,4,6,2,2,2
43.23,3,1,3,29,17,1,3,1
43.235,1,1,0,8,12,2,1,1
43.24,1,0,1,9,31,1,0,1
43.245,2,0,1,6,0,2,1,0
43.25,0,7,2,18,66,2,3,2
43.255,1,3,0,10,24,0,3,0
43.26,2,1,3,5,6,0,0,1
43.265,0,2,0,10,69,2,1,0
43.27,2,1,10,14,3,7,1,6
43.275,0,0,0,18,28,1,2,2
43.28,0,3,2,8,16,7,4,1
43.285,2,4,7,40,76,14,4,0
43.29,3,5,4,25,74,13,5,3
43.295,1,0,1,28,90,1,2,3
43.3,3,4,3,9,61,5,1,5
43.305,2,4,10,37,31,7,2,1
43.31,3,2,5,12,17,3,1,1
43.315,0,3,3,11,3,2,4,2
43.32,1,1,3,1,7,3,9,4
43.325,1,2,5,1,18,2,8,2
43.33,1,1,2,4,16,0,2,2
43.335,2,0,4,16,40,3,3,1
43.34,1,1,0,4,19,4,1,1
43.345,0,1,1,3,30,6,0,3
43.35,0,3,3,6,5,9,2,0
43.355,3,2,2,6,7,9,1,1
43.36,5,5,5,1,21,5,9,5
43.365,2,1,1,5,30,27,15,3
43.37,0,0,2,0,71,28,18,4
43.375,3,3,16,24,9,2,3,1
43.38,14,3,3,20,27,4,0,1
43.385,15,1,11,15,26,10,2,1
43.39,10,6,12,5,27,2,2,7
43.395,17,15,3,15,38,3,11,6
43.4,3,5,2,19,77,7,5,2
43.405,13,1,7,8,11,2,2,1
43.41,16,14,12,13,5,9,3,1
43.415,7,6,10,31,48,14,3,0
43.42,14,10,1,0,23,12,11,7
43.425,44,16,14,13,43,5,4,6
43.43,52,1,5,1,76,2,1,9
43.435,3,6,8,4,5,17,3,3
43.44,24,24,14,16,20,0,9,7
43.445,21,27,20,4,2,10,8,1
43.45,17,10,34,14,43,4,2,4
43.455,4,10,9,29,8,4,2,6
43.46,6,20,7,15,6,4,0,2
43.465,13,14,3,23,44,5,4,2
43.47,52,30,20,20,17,4,2,3
43.475,5,7,0,7,23,13,5,12
43.48,43,6,15,32,32,1,1,4
43.485,68,12,58,38,29,3,1,11
43.49,14,7,18,9,12,7,3,2
43.495,12,5,53,1,10,6,3,7
43.5,51,28,34,31,15,3,3,10
43.505,30,33,17,49,9,23,5,11
43.51,23,6,17,19,2,12,4,3
43.515,50,11,8,26,2,13,6,11
43.52,40,3,3,20,9,10,9,15
43.525,26,20,16,14,35,41,9,7
43.53,22,24,16,5,19,25,4,6
43.535,9,19,13,32,31,0,3,1
43.54,17,5,22,63,29,7,5,4
43.545,21,5,24,15,59,22,4,7
43.55,9,5,2,14,15,23,4,8
43.555,41,5,20,23,44,11,1,1
43.56,9,17,14,18,28,10,8,14
43.565,29,17,9,51,54,10,5,4
43.57,18,8,0,11,51,4,3,9
43.575,18,5,13,6,13,7,4,15
43.58,18,9,23,9,15,30,16,6
43.585,29,8,1,12,20,2,8,0
43.59,28,1,42,15,1,8,4,1
43.595,24,6,3,20,20,11,4,10
43.6,13,5,9,7,5,3,1,5
43.605,9,1,9,15,25,19,8,10
43.61,22,1,13,4,20,15,5,2
43.615,2,1,11,30,27,3,9,11
43.62,42,18,2,9,35,2,7,9
43.625,16,8,1,19,59,11,7,5
43.63,11,4,26,9,16,10,7,12
43.635,9,1,41,22,50,6,0,7
43.64,23,12,25,40,16,4,5,1
43.645,13,3,2,24,8,1,9,4
43.65,15,8,19,60,39,14,7,2
43.655,10,6,35,42,51,17,6,4
43.66,6,3,35,27,46,8,12,9
43.665,16,11,43,74,17,9,5,0
43.67,12,13,40,25,44,14,11,18
43.675,40,5,5,14,31,5,0,8
43.68,58,5,27,36,19,12,9,10
43.685,14,23,12,83,25,14,12,3
43.69,2,11,6,6,58,7,10,6
43.695,20,7,28,85,9,16,7,13
43.7,6,17,0,4,48,19,16,9
43.705,7,11,4,5,63,14,6,8
43.71,5,9,9,125,50,11,9,10
43.715,16,4,14,6,53,21,11,5
43.72,3,6,31,68,3,11,3,0
43.725,5,22,34,18,56,14,6,3
43.73,72,2,31,12,78,39,20,16
43.735,81,42,44,96,10,17,2,10
43.74,26,3,43,32,14,7,7,8
43.745,6,5,8,54,24,11,9,10
43.75,16,8,18,3,45,9,10,4
43.755,35,0,7,74,72,0,6,6
43.76,14,1,22,47,54,2,7,10
43.765,26,9,25,58,27,4,14,17
43.77,16,1,19,115,2,18,7,15
43.775,38,23,5,126,23,7,8,6
43.78,48,7,31,84,66,20,12,13
43.785,54,17,22,113,39,16,10,19
43.79,37,11,12,21,32,37,16,12
43.795,44,0,8,74,60,17,2,13
43.8,38,13,50,25,66,21,15,24
43.805,14,1,2,10,52,9,9,6
43.81,15,8,1,66,50,6,3,6
43.815,7,9,8,41,20,4,2,22
43.82,5,10,5,104,26,2,1,8
43.825,17,3,3,110,49,11,5,33
43.83,11,7,3,66,35,13,12,33
43.835,15,6,1,118,45,1,8,62
43.84,5,2,8,127,25,0,1,44
43.845,16,52,6,103,112,9,7,16
43.85,19,22,8,102,84,11,13,43
43.855,16,10,3,125,15,2,2,14
43.86,9,8,2,62,8,2,0,61
43.865,29,27,1,45,9,3,7,88
43.87,6,7,3,2,1,3,8,15
43.875,7,23,0,51,13,2,1,11
43.88,3,1,5,36,10,2,1,22
43.885,19,17,2,5,11,1,3,80
43.89,4,6,3,24,7,4,2,12
43.895,1,9,0,46,28,1,3,5
43.9,0,10,5,40,29,7,7,2
43.905,8,10,1,36,3,2,3,8
43.91,15,3,4,107,10,2,3,16
43.915,6,8,1,68,12,1,2,14
43.92,3,5,1,10,4,1,3,6
43.925,9,3,0,26,14,1,2,11
43.93,9,5,0,22,22,1,1,5
43.935,3,0,1,2,20,3,2,25
43.94,13,8,0,17,11,1,1,29
43.945,5,8,1,32,11,3,4,4
43.95,7,3,1,16,6,2,4,20
43.955,10,3,0,4,2,1,4,0
43.96,3,10,1,12,6,3,3,21
43.965,3,3,1,1,5,3,1,12
43.97,7,2,0,1,3,1,3,14
43.975,0,5,0,14,3,5,3,7
43.98,1,0,2,4,4,3,3,7
43.985,4,1,2,2,6,1,1,14
43.99,3,1,1,9,6,4,5,9
43.995,0,3,2,4,3,1,1,2
44,2,4,4,4,5,3,4,1
44.005,1,1,0,0,0,5,3,2
44.01,4,3,2,2,0,0,1,4
44.015,1,0,2,12,3,3,1,3
44.02,1,1,3,8,4,6,1,1
44.025,4,3,4,7,6,2,0,0
44.03,1,2,0,6,6,4,2,4
44.035,2,1,2,6,1,0,1,5
44.04,2,1,1,3,5,4,3,6
44.045,1,2,1,1,3,1,2,2
44.05,1,2,2,2,1,2,0,6
44.055,0,0,1,5,8,5,5,1
44.06,1,3,2,2,7,4,1,5
44.065,2,2,2,7,5,5,3,0
44.07,2,2,0,5,1,6,2,5
44.075,2,1,2,5,4,5,1,1
44.08,1,3,1,5,1,1,0,3
44.085,1,2,2,3,7,2,3,5
44.09,1,2,0,13,4,2,4,1
44.095,0,0,1,0,0,3,1,3
44.1,1,0,1,4,2,1,0,1
44.105,1,3,3,15,10,2,4,3
44.11,0,1,2,8,1,2,1,1
44.115,2,3,0,3,6,2,1,1
44.12,1,1,2,3,9,3,2,1
44.125,2,0,2,7,6,2,2,2
44.13,1,1,0,3,1,1,2,1
44.135,0,1,0,1,0,1,1,1
44.14,2,2,2,3,5,0,4,1
44.145,1,1,1,2,2,0,1,1
44.15,2,1,2,5,3,0,1,3
44.155,1,1,1,3,1,0,0,0
44.16,2,2,1,0,0,1,1,1
44.165,0,1,4,1,4,1,1,1
44.17,2,2,1,3,3,2,2,1
44.175,2,1,4,3,5,5,4,2
44.18,2,0,0,3,1,2,0,0
44.185,2,1,1,1,3,2,1,2
44.19,1,2,2,2,2,1,1,0
44.195,1,0,2,3,1,1,4,3
44.2,2,1,2,2,0,4,2,1
44.205,0,2,1,2,3,3,1,2
44.21,1,0,2,1,0,4,2,1
44.215,2,1,1,1,1,0,0,3
44.22,0,1,1,1,2,0,0,0
44.225,2,2,1,1,2,2,4,3
44.23,2,1,0,10,4,5,3,4
44.235,0,1,0,3,0,3,0,1
44.24,0,1,1,1,1,1,1,2
44.245,2,2,0,2,1,1,2,4
44.25,1,2,0,0,3,3,2,1
44.255,1,1,3,2,0,1,1,0
44.26,3,2,1,0,0,0,2,2
44.265,2,3,0,1,0,3,1,2
44.27,2,0,1,3,6,7,5,5
44.275,1,1,2,3,7,3,4,3
44.28,0,0,2,1,3,2,0,0
44.285,1,1,1,2,7,4,2,1
44.29,1,1,0,2,1,2,1,0
44.295,1,0,0,0,2,4,3,1
44.3,0,1,0,3,2,1,0,1
44.305,1,1,0,3,4,0,1,1
44.31,2,1,2,3,1,0,0,3
44.315,4,2,1,0,1,3,2,3
44.32,1,2,2,1,4,3,1,2
44.325,1,2,1,2,1,1,2,1
44.33,0,0,2,1,0,1,3,2
44.335,1,1,1,2,0,1,0,1
44.34,1,1,2,3,3,1,1,0
44.345,1,2,2,1,7,2,0,0
44.35,2,0,1,1,3,1,3,2
44.355,2,2,2,1,6,0,1,0
44.36,0,1,0,0,1,6,3,2
44.365,2,1,2,2,1,1,2,1
44.37,1,0,2,1,2,2,2,5
44.375,1,0,1,2,1,3,2,1
44.38,1,1,0,2,0,3,1,1
44.385,0,0,0,1,1,2,3,2
44.39,0,3,0,1,2,1,2,2
44.395,1,2,1,1,0,1,4,5
44.4,2,0,2,1,3,2,4,1
44.405,0,2,1,3,1,2,2,2
44.41,1,1,1,0,2,2,2,0
44.415,1,3,1,0,2,2,2,1
44.42,2,2,1,0,1,2,2,3
44.425,1,0,0,2,10,0,2,1
44.43,1,0,2,0,1,1,0,1
44.435,0,1,2,4,2,1,2,1
44.44,0,0,0,2,3,3,3,2
44.445,1,2,0,1,2,2,3,1
44.45,1,1,0,2,1,2,1,0
44.455,2,2,1,5,4,5,3,0
44.46,2,5,2,1,0,0,1,0
44.465,0,0,1,2,3,6,4,2
44.47,1,1,0,1,1,1,2,1
44.475,1,0,0,1,2,0,2,1
44.48,1,1,3,2,6,5,5,3
44.485,1,0,1,2,0,4,2,1
44.49,1,1,1,2,0,1,1,0
44.495,0,1,1,2,7,3,4,2
44.5,2,2,1,2,5,6,3,4
44.505,2,0,1,0,1,3,1,2
44.51,0,2,0,2,1,0,0,1
44.515,3,0,1,0,2,2,1,0
44.52,4,1,1,3,3,6,6,6
44.525,1,1,2,4,1,3,2,2
44.53,0,1,0,1,0,1,5,2
44.535,1,0,1,0,1,1,0,1
44.54,1,2,1,0,4,1,1,1
44.545,3,2,1,0,1,1,3,1
44.55,0,2,3,2,2,5,3,2
44.555,1,1,1,1,6,1,1,2
44.56,1,0,1,1,0,1,1,2
44.565,0,3,1,2,3,0,5,4
44.57,1,0,1,2,4,0,2,2
44.575,0,1,0,0,0,1,1,2
44.58,1,0,1,4,2,0,1,0
44.585,2,4,2,1,3,2,2,2
44.59,3,1,0,2,6,3,1,1
44.595,3,2,2,1,1,0,3,2
44.6,1,1,3,1,1,0,2,2
44.605,1,1,2,2,2,1,0,1
44.61,0,0,2,3,3,0,2,3
44.615,3,2,2,1,1,3,3,2
44.62,2,2,1,0,3,3,3,1
44.625,1,1,0,1,1,0,0,3
44.63,2,1,3,0,2,2,1,3
44.635,1,1,0,2,1,2,1,0
44.64,0,1,0,0,5,3,1,0
44.645,2,1,2,3,12,1,1,1
44.65,3,0,2,1,2,5,4,1
44.655,3,1,1,0,0,2,2,3
44.66,0,1,1,3,0,1,2,1
44.665,0,1,0,1,4,3,3,1
44.67,2,1,2,3,3,1,0,2
44.675,1,2,1,0,3,2,0,0
44.68,2,1,1,1,0,1,1,1
44.685,1,1,1,0,3,0,1,0
44.69,1,1,1,0,5,1,0,1
44.695,1,1,1,1,2,1,2,3
44.7,2,0,2,2,3,2,1,2
44.705,0,2,1,1,0,1,1,1
44.71,0,2,1,0,3,2,3,0
44.715,1,1,0,2,1,3,1,1
44.72,2,0,2,1,3,2,0,2
44.725,2,0,2,2,1,2,0,3
44.73,1,2,2,1,0,1,1,1
44.735,1,0,1,3,2,4,4,4
44.74,2,2,1,2,2,1,4,4
44.745,1,0,2,1,1,0,2,4
44.75,1,0,0,2,2,1,1,1
44.755,2,1,2,1,2,2,1,2
44.76,3,1,1,2,2,1,2,3
44.765,2,0,1,1,8,5,3,3
44.77,0,2,0,0,3,1,2,1
44.775,1,2,1,10,2,2,0,2
44.78,1,0,1,2,5,4,1,1
44.785,1,0,0,2,2,5,1,1
44.79,1,0,0,9,11,2,1,0
44.795,2,1,0,4,12,3,2,0
44.8,1,3,0,7,4,2,3,2
44.805,3,3,1,0,2,3,4,4
44.81,1,2,1,3,1,2,2,0
44.815,1,2,3,5,13,7,5,1
44.82,4,2,1,0,4,3,1,1
44.825,0,2,1,2,1,3,1,2
44.83,0,2,1,1,2,2,3,1
44.835,1,2,3,3,3,1,2,2
44.84,0,0,1,3,1,2,1,2
44.845,1,2,1,4,1,1,3,0
44.85,3,1,1,5,7,1,2,1
44.855,1,1,1,3,3,4,1,1
44.86,0,2,2,0,4,0,1,0
44.865,0,4,0,1,2,1,0,1
44.87,2,0,0,5,10,3,2,0
44.875,2,3,1,0,0,3,3,4
44.88,2,1,2,1,1,1,3,2
44.885,2,1,1,3,4,3,2,3
44.89,2,0,3,2,0,2,3,4
44.895,1,1,0,1,1,3,2,2
44.9,2,11,1,0,4,3,1,2
44.905,1,8,0,3,2,3,3,3
44.91,1,0,0,3,4,3,2,1
44.915,0,1,2,2,2,6,5,5
44.92,1,0,0,1,3,2,1,0
44.925,1,6,2,0,0,1,5,1
44.93,1,3,0,3,1,2,1,0
44.935,2,1,4,1,2,4,2,3
44.94,1,2,2,2,0,2,2,3
44.945,0,2,1,2,1,0,3,2
44.95,0,2,0,4,3,1,1,1
44.955,0,3,0,1,1,1,1,0
44.96,3,1,2,1,3,3,5,2
44.965,2,1,2,3,3,2,2,1
44.97,1,2,1,1,5,1,0,1
44.975,3,2,0,1,1,1,2,2
44.98,2,1,2,1,1,4,3,3
44.985,3,3,3,1,1,3,3,3
44.99,0,3,4,3,0,2,0,1
44.995,1,1,0,1,3,1,2,3
45,1,3,0,0,2,1,2,1
45.005,0,1,0,2,5,1,0,0
45.01,4,2,3,0,2,6,6,4
45.015,1,1,3,4,2,3,0,1
45.02,2,1,1,2,4,3,1,0
45.025,0,2,2,2,1,3,4,2
45.03,1,2,1,0,0,0,2,3
45.035,1,0,1,2,1,3,2,2
45.04,3,1,2,1,4,1,0,1
45.045,0,1,0,1,2,2,0,2
45.05,2,1,0,0,1,0,1,2
45.055,3,1,0,1,1,1,1,0
45.06,0,1,1,2,3,1,1,1
45.065,1,1,3,2,0,0,1,0
45.07,2,0,2,0,3,3,3,1
45.075,1,2,0,3,0,7,2,2
45.08,1,1,1,4,3,2,1,1
45.085,2,4,0,8,2,1,0,0
45.09,1,1,2,2,3,2,1,2
45.095,0,0,2,3,2,3,0,1
45.1,1,0,1,1,0,3,2,0
45.105,1,0,1,2,0,1,3,1
45.11,2,2,2,1,2,1,1,2
45.115,0,1,1,1,3,0,1,1
45.12,2,2,2,4,3,3,1,2
45.125,3,1,2,4,3,0,0,3
45.13,1,3,1,1,1,1,0,1
45.135,0,0,0,0,1,0,0,2
45.14,3,1,1,1,0,0,2,0
45.145,1,1,1,1,3,1,0,0
45.15,2,0,1,3,3,2,2,2
45.155,1,0,2,0,3,0,0,4
45.16,1,2,2,2,1,0,0,3
45.165,1,1,0,0,1,1,0,3
45.17,1,1,1,6,4,0,1,0
45.175,1,3,4,5,3,0,1,1
45.18,1,1,0,3,0,1,1,1
45.185,0,0,1,0,2,0,1,1
45.19,0,1,0,1,3,3,3,0
45.195,2,2,1,9,9,0,2,3
45.2,2,2,3,2,3,0,2,1
45.205,0,3,0,17,23,0,1,1
45.21,1,1,2,32,49,1,0,1
45.215,3,1,2,9,18,5,5,1
45.22,0,2,1,17,28,3,1,1
45.225,3,1,1,16,33,2,3,2
45.23,0,3,4,22,17,4,1,1
45.235,2,1,3,6,2,1,1,1
45.24,2,3,5,27,27,3,1,1
45.245,3,2,3,22,19,3,3,2
45.25,2,2,1,22,11,4,1,3
45.255,1,1,1,4,5,1,1,0
45.26,0,2,0,3,13,1,0,1
45.265,0,1,1,8,19,1,0,0
45.27,2,1,1,24,25,5,2,0
45.275,1,2,3,26,3,4,1,1
45.28,0,2,1,23,11,3,1,0
45.285,2,2,4,14,11,1,4,2
45.29,0,0,2,8,17,2,1,1
45.295,4,2,2,1,5,6,4,6
45.3,0,0,2,2,2,4,0,0
45.305,1,0,2,11,47,9,2,1
45.31,1,1,1,3,4,2,1,2
45.315,1,0,1,5,22,1,0,1
45.32,2,1,3,71,114,6,1,1
45.325,1,3,10,33,11,9,4,4
45.33,1,1,2,22,27,3,5,3
45.335,1,1,2,21,6,1,0,4
45.34,4,5,9,5,1,8,4,3
45.345,2,1,5,12,49,3,2,5
45.35,1,3,0,24,28,0,0,0
45.355,1,0,4,39,1,10,2,1
45.36,6,6,14,28,90,21,8,6
45.365,0,1,0,44,38,3,1,0
45.37,2,1,5,37,46,4,1,2
45.375,0,3,4,6,10,1,2,0
45.38,2,4,7,6,86,3,5,3
45.385,7,5,7,30,65,14,9,8
45.39,1,3,12,44,18,12,3,1
45.395,5,4,15,24,108,8,2,2
45.4,6,6,7,27,44,29,15,10
45.405,5,4,7,44,83,17,12,9
45.41,8,8,6,108,125,5,4,7
45.415,8,6,11,12,66,26,14,10
45.42,10,6,11,6,4,39,19,14
45.425,6,1,7,17,106,9,2,9
45.43,0,5,10,32,127,22,3,4
45.435,1,5,45,62,99,15,8,1
45.44,2,3,13,40,63,50,18,8
45.445,1,1,1,51,66,27,2,7
45.45,1,3,3,31,3,9,2,6
45.455,2,5,18,33,36,2,3,3
45.46,11,6,4,51,77,22,16,11
45.465,2,3,19,36,91,17,2,5
45.47,3,2,5,43,30,25,15,7
45.475,3,4,46,7,44,12,3,6
45.48,5,13,40,1,90,42,8,2
45.485,10,8,2,16,77,20,18,11
45.49,1,0,4,17,96,28,13,6
45.495,2,1,5,15,80,9,1,2
45.5,3,2,11,103,73,32,9,5
45.505,1,2,3,48,31,17,4,9
45.51,2,2,4,55,123,59,12,4
45.515,1,2,16,18,89,8,2,7
45.52,4,7,15,32,50,16,9,7
45.525,4,3,10,32,24,10,1,4
45.53,1,2,6,46,9,24,7,2
45.535,5,7,9,43,72,12,1,4
45.54,5,6,12,50,99,9,1,4
45.545,2,0,5,6,14,8,4,1
45.55,6,2,4,24,3,12,13,9
45.555,0,2,6,49,44,4,3,0
45.56,0,0,0,21,95,8,4,0
45.565,4,5,10,22,54,4,7,5
45.57,0,0,10,5,14,11,3,1
45.575,1,1,3,6,76,22,4,1
45.58,1,4,4,15,27,7,0,0
45.585,3,10,1,38,77,2,2,4
45.59,1,4,6,52,19,8,2,3
45.595,4,4,13,7,102,5,4,2
45.6,0,0,3,6,27,7,3,1
45.605,1,2,0,38,76,8,0,2
45.61,3,2,3,17,59,8,2,4
45.615,11,0,4,9,29,2,5,6
45.62,6,4,1,7,10,2,3,2
45.625,4,5,1,7,4,9,1,2
45.63,2,1,4,16,79,3,1,1
45.635,2,12,1,8,6,3,2,1
45.64,1,11,2,28,9,1,2,2
45.645,2,12,3,23,36,1,1,2
45.65,3,18,2,16,80,7,1,0
45.655,10,24,3,21,84,15,5,5
45.66,27,3,2,12,31,0,5,2
45.665,4,9,4,14,20,9,5,26
45.67,6,20,4,16,19,1,1,38
45.675,6,3,1,4,28,3,2,1
45.68,7,7,2,6,6,4,0,2
45.685,1,7,4,13,41,2,1,1
45.69,3,17,2,7,47,8,1,17
45.695,1,8,1,4,26,4,2,0
45.7,5,4,2,3,33,2,4,2
45.705,7,2,1,6,9,3,2,5
45.71,11,5,0,4,36,2,2,5
45.715,30,1,2,4,2,1,2,1
45.72,13,20,4,6,15,2,2,7
45.725,1,18,5,5,36,0,4,0
45.73,5,27,2,9,8,3,1,5
45.735,5,3,3,3,11,4,2,1
45.74,15,9,4,5,19,0,2,30
45.745,12,6,3,12,9,2,1,28
45.75,12,3,6,6,12,1,2,9
45.755,2,6,4,13,27,4,4,1
45.76,2,5,4,23,33,6,4,2
45.765,2,11,1,14,14,1,3,1
45.77,9,3,1,24,97,3,0,2
45.775,6,6,4,30,39,2,2,2
45.78,6,10,0,8,1,1,2,7
45.785,10,3,0,2,30,2,1,1
45.79,1,5,1,5,2,1,1,4
45.795,2,2,4,26,31,2,0,1
45.8,5,3,4,19,17,4,1,8
45.805,5,0,0,1,20,2,1,3
45.81,0,10,4,15,41,6,1,8
45.815,5,12,3,4,23,1,1,4
45.82,2,2,1,8,10,3,1,4
45.825,3,2,1,7,4,0,0,2
45.83,0,4,5,21,23,5,3,4
45.835,3,4,1,5,11,0,1,1
45.84,2,4,1,11,19,2,1,0
45.845,5,9,1,0,8,1,2,6
45.85,3,5,3,16,30,4,4,4
45.855,2,3,3,6,20,3,3,2
45.86,1,3,2,17,50,3,2,2
45.865,2,2,7,32,90,6,1,2
45.87,4,0,2,2,13,4,0,2
45.875,1,2,0,2,6,2,2,1
45.88,1,1,2,3,6,0,1,1
45.885,4,4,1,18,16,0,0,0
45.89,3,1,4,10,16,3,2,0
45.895,3,2,0,6,11,2,1,0
45.9,1,0,3,4,16,5,2,1
45.905,1,3,0,1,15,1,1,1
45.91,1,0,2,7,22,2,0,4
45.915,1,0,1,5,11,0,3,1
45.92,3,1,0,8,16,2,2,1
45.925,1,1,0,0,12,1,2,3
45.93,1,2,1,1,0,1,2,1
45.935,1,3,3,2,8,2,2,1
45.94,1,0,1,10,21,3,1,1
45.945,2,2,1,2,7,2,1,1
45.95,0,3,2,7,8,2,1,1
45.955,1,2,1,8,10,4,2,1
45.96,1,0,0,18,8,1,3,4
45.965,1,1,2,11,10,1,1,2
45.97,1,0,2,8,9,2,1,2
45.975,0,4,0,17,6,2,0,3
45.98,0,11,3,3,11,2,2,0
45.985,0,2,2,7,41,4,1,2
45.99,0,0,0,11,33,7,2,1
45.995,2,1,3,4,3,4,3,3
46,2,2,0,5,3,2,1,2
46.005,1,2,1,9,15,2,0,1
46.01,2,3,0,10,19,1,3,0
46.015,2,3,3,21,29,0,3,1
46.02,2,0,3,31,81,8,5,4
46.025,1,3,2,2,13,2,1,1
46.03,1,2,2,12,21,1,1,1
46.035,1,1,1,16,13,0,1,1
46.04,1,1,0,3,20,0,0,2
46.045,1,2,1,3,13,4,3,0
46.05,1,1,1,1,18,0,1,2
46.055,0,4,3,4,9,5,2,1
46.06,1,1,1,3,5,0,1,1
46.065,1,1,0,15,26,4,3,1
46.07,2,2,5,46,40,7,4,1
46.075,2,1,3,14,51,4,2,1
46.08,3,0,3,7,45,8,2,1
46.085,3,1,4,12,2,4,5,3
46.09,1,2,0,2,12,3,4,5
46.095,3,3,3,20,8,7,3,2
46.1,1,0,2,8,25,5,1,1
46.105,2,0,2,28,9,1,0,1
46.11,2,3,4,4,17,1,1,1
46.115,1,1,0,4,5,2,1,1
46.12,3,0,1,7,13,3,2,0
46.125,1,3,4,5,27,3,2,2
46.13,2,2,4,22,45,3,0,1
46.135,0,2,8,18,8,4,4,3
46.14,1,0,0,12,15,2,1,1
46.145,0,3,4,9,9,1,1,2
46.15,1,2,2,6,19,0,3,4
46.155,2,2,1,7,5,2,4,2
46.16,0,0,2,4,27,5,4,1
46.165,0,1,1,10,10,1,3,2
46.17,4,3,10,5,4,6,3,5
46.175,2,1,0,20,40,7,4,4
46.18,3,3,4,9,33,3,0,1
46.185,2,1,2,7,11,0,1,3
46.19,1,2,3,2,19,3,1,0
46.195,0,2,1,0,9,3,2,1
46.2,1,1,0,1,12,4,3,2
46.205,1,3,0,14,18,3,4,4
46.21,1,1,2,16,10,1,2,3
46.215,3,2,1,2,0,0,1,1
46.22,0,1,2,2,18,4,1,1
46.225,2,0,2,2,22,0,0,2
46.23,1,0,1,1,5,3,2,1
46.235,1,3,1,4,13,5,1,3
46.24,1,0,1,1,16,1,1,3
46.245,2,1,4,4,15,1,0,1
46.25,1,0,2,11,34,3,0,1
46.255,0,0,3,22,63,8,4,2
46.26,2,1,1,6,3,1,0,1
46.265,0,1,1,11,31,4,2,0
46.27,1,2,4,9,13,1,2,1
46.275,2,1,2,8,1,2,1,1
46.28,1,2,1,2,12,4,1,2
46.285,1,1,0,1,6,1,0,2
46.29,2,2,0,4,18,0,2,0
46.295,0,1,0,5,10,2,0,2
46.3,0,0,5,13,13,3,1,2
46.305,2,1,3,4,7,4,1,2
46.31,1,1,1,5,12,0,1,1
46.315,2,1,0,8,36,0,1,0
46.32,1,1,4,1,16,2,5,1
46.325,1,2,0,9,7,1,1,0
46.33,1,0,2,3,6,3,2,0
46.335,2,2,2,12,30,2,3,1
46.34,1,0,0,2,22,2,1,0
46.345,1,1,3,26,102,4,0,3
46.35,2,1,7,1,38,0,2,0
46.355,9,7,7,10,5,13,11,7
46.36,1,2,0,37,35,4,1,3
46.365,2,1,9,81,50,8,5,2
46.37,1,1,6,15,16,1,2,0
46.375,0,0,1,6,38,6,4,0
46.38,1,1,3,1,8,3,1,1
46.385,6,10,18,28,25,17,7,10
46.39,3,5,7,36,66,9,6,5
46.395,2,2,1,22,6,1,0,2
46.4,4,3,8,3,40,9,4,1
46.405,4,6,9,21,15,14,8,5
46.41,8,8,16,24,19,22,12,9
46.415,4,5,3,84,90,3,5,3
46.42,2,2,6,61,17,11,6,2
46.425,4,5,13,5,48,6,7,5
46.43,1,2,6,63,94,14,1,0
46.435,1,1,0,12,6,6,2,2
46.44,1,2,1,5,25,1,5,1
46.445,2,2,2,0,127,0,3,0
46.45,2,3,1,67,128,1,2,1
46.455,2,2,2,25,117,1,4,1
46.46,2,3,7,19,85,1,1,2
46.465,5,8,6,27,79,2,5,4
46.47,1,1,4,79,115,35,3,0
46.475,2,1,3,23,4,11,3,4
46.48,1,2,1,16,33,16,6,1
46.485,6,4,2,2,66,0,4,5
46.49,2,1,3,113,33,10,1,3
46.495,1,5,14,8,11,1,4,5
46.5,10,8,13,38,62,34,25,11
46.505,4,4,8,25,28,3,11,5
46.51,8,8,14,35,127,20,7,8
46.515,3,2,2,11,63,5,5,4
46.52,10,9,10,15,49,32,11,12
46.525,1,0,2,27,127,8,2,2
46.53,2,1,4,32,100,3,1,0
46.535,4,3,4,62,65,30,6,2
46.54,2,0,4,39,82,5,10,6
46.545,7,7,10,25,50,0,5,5
46.55,3,7,11,28,36,40,5,3
46.555,8,8,16,20,32,1,4,4
46.56,3,2,6,5,77,9,1,2
46.565,5,4,9,25,12,31,5,0
46.57,6,3,22,43,3,7,4,1
46.575,8,10,18,22,11,33,13,8
46.58,0,3,8,25,21,6,1,1
46.585,3,2,8,2,75,5,6,3
46.59,4,4,9,39,127,18,7,3
46.595,6,3,6,16,11,1,4,5
46.6,0,2,7,12,78,8,2,1
46.605,6,2,5,15,36,10,7,8
46.61,2,3,22,28,56,2,1,3
46.615,3,5,8,26,122,1,6,1
46.62,2,2,8,32,127,15,1,3
46.625,5,2,1,47,68,2,4,4
46.63,8,9,6,8,88,7,7,5
46.635,0,0,3,63,125,8,4,2
46.64,1,0,16,62,109,19,4,3
46.645,1,1,12,28,11,2,2,3
46.65,1,2,12,47,101,3,2,4
46.655,1,3,7,10,74,2,6,4
46.66,1,3,7,35,22,17,4,3
46.665,3,2,4,5,19,11,6,2
46.67,2,2,4,25,35,3,8,4
46.675,5,3,0,31,91,12,5,6
46.68,1,1,2,4,21,7,1,0
46.685,4,5,8,15,93,9,3,3
46.69,1,5,11,31,25,4,7,5
46.695,1,1,2,19,36,6,5,3
46.7,1,0,7,1,18,10,3,0
46.705,2,3,11,7,128,15,1,1
46.71,1,1,3,28,14,1,2,1
46.715,1,0,5,17,25,1,5,4
46.72,2,0,3,12,37,0,0,2
46.725,1,1,2,8,26,3,3,2
46.73,1,2,1,13,51,4,2,0
46.735,0,1,0,5,27,2,1,1
46.74,2,3,2,24,73,7,2,1
46.745,1,4,1,3,0,8,4,2
46.75,1,10,2,18,76,12,1,4
46.755,1,2,1,6,24,8,1,0
46.76,2,1,5,18,4,6,4,0
46.765,9,1,7,11,42,5,5,8
46.77,1,1,4,15,52,8,7,5
46.775,0,1,1,11,23,1,1,12
46.78,3,5,3,4,20,7,5,5
46.785,5,4,2,13,31,0,1,43
46.79,13,2,1,17,11,2,6,44
46.795,18,2,1,7,24,1,0,10
46.8,23,2,0,3,23,2,2,8
46.805,20,2,6,3,9,1,0,4
46.81,29,6,2,4,10,4,1,10
46.815,39,24,4,28,9,6,9,30
46.82,10,7,6,24,11,5,1,49
46.825,2,0,1,11,17,8,5,21
46.83,21,2,3,8,9,2,1,30
46.835,32,0,2,10,63,1,4,26
46.84,21,8,4,9,9,3,4,8
46.845,21,7,1,21,6,2,0,45
46.85,0,2,1,15,8,2,1,96
46.855,62,6,0,14,20,0,6,8
46.86,9,2,2,17,16,5,3,14
46.865,47,3,5,15,67,4,2,95
46.87,58,5,11,16,20,2,4,83
46.875,6,5,3,3,26,2,0,31
46.88,13,11,1,14,15,0,2,41
46.885,8,13,7,39,24,3,5,31
46.89,11,2,1,11,6,0,0,13
46.895,11,4,7,6,7,3,1,61
46.9,6,2,7,6,18,3,4,57
46.905,14,1,1,11,19,2,7,12
46.91,7,1,2,3,15,3,7,1
46.915,14,2,1,1,6,1,2,19
46.92,21,12,0,10,20,3,7,36
46.925,17,0,2,7,18,2,2,37
46.93,12,1,5,13,23,7,5,56
46.935,18,1,2,15,43,1,1,47
46.94,17,4,2,20,56,0,4,19
46.945,6,2,7,11,26,3,9,19
46.95,6,3,0,13,35,1,3,37
46.955,14,11,4,6,30,2,4,5
46.96,9,5,2,5,31,7,2,13
46.965,5,3,2,16,16,0,0,46
46.97,26,2,2,7,21,0,1,20
46.975,19,1,3,28,56,3,3,4
46.98,9,7,7,48,68,18,12,7
46.985,1,1,0,27,14,3,2,13
46.99,16,1,0,2,16,1,2,5
46.995,18,1,1,6,13,6,2,10
47,6,2,2,4,31,2,1,14
47.005,6,1,0,18,8,2,4,23
47.01,10,2,1,17,30,0,1,31
47.015,13,2,2,16,20,2,5,22
47.02,2,4,1,9,2,3,0,27
47.025,5,1,1,8,8,0,1,15
47.03,1,1,1,30,27,2,0,6
47.035,8,0,1,48,47,5,1,1
47.04,5,1,1,18,0,6,3,5
47.045,13,2,0,2,37,0,1,2
47.05,8,1,1,3,28,2,5,8
47.055,3,2,3,15,57,5,2,4
47.06,11,3,1,3,1,2,1,11
47.065,3,7,2,1,5,2,2,6
47.07,8,5,1,8,3,3,1,8
47.075,5,0,1,2,8,3,4,2
47.08,1,3,1,1,20,3,1,0
47.085,2,1,1,14,8,3,3,5
47.09,5,1,2,18,20,0,1,6
47.095,9,2,1,11,26,5,2,2
47.1,2,0,1,20,27,5,2,3
47.105,4,2,1,0,2,5,2,0
47.11,7,1,1,6,23,0,2,2
47.115,6,1,4,2,1,2,2,1
47.12,4,0,2,20,23,2,1,4
47.125,2,2,1,3,1,4,3,3
47.13,1,3,4,21,44,7,3,4
47.135,4,1,3,4,14,3,0,5
47.14,0,2,2,0,9,0,0,4
47.145,4,1,1,1,1,2,0,1
47.15,3,1,1,5,8,1,0,1
47.155,1,1,2,6,2,1,0,3
47.16,4,1,1,6,8,3,3,5
47.165,5,2,2,8,12,4,3,4
47.17,2,3,7,5,10,0,1,1
47.175,1,2,2,19,39,1,1,1
47.18,1,2,3,27,74,4,2,4
47.185,3,8,0,6,10,4,0,1
47.19,2,1,0,13,10,1,2,1
47.195,3,1,0,6,3,1,1,2
47.2,1,1,0,15,24,0,1,3
47.205,2,1,3,5,1,5,5,4
47.21,1,2,2,2,18,1,1,0
47.215,1,2,3,8,6,4,5,4
47.22,2,2,1,24,48,4,4,1
47.225,4,4,6,48,100,9,3,5
47.23,0,2,0,14,25,0,0,3
47.235,2,2,0,10,1,0,4,3
47.24,2,3,1,0,7,0,3,1
47.245,1,1,1,13,42,3,1,1
47.25,1,2,1,4,14,4,2,0
47.255,0,0,0,2,14,3,1,1
47.26,1,2,3,14,0,2,2,3
47.265,2,1,0,7,10,6,4,1
47.27,2,0,3,9,1,1,2,0
47.275,0,1,1,18,8,3,3,1
47.28,3,2,6,25,19,5,7,4
47.285,3,1,3,9,24,4,4,2
47.29,1,1,1,2,4,2,0,1
47.295,0,1,3,14,26,3,2,1
47.3,0,1,0,11,11,1,1,1
47.305,2,1,3,7,4,0,1,1
47.31,0,1,1,14,0,3,3,2
47.315,2,2,0,6,4,1,3,3
47.32,1,1,0,2,4,6,5,2
47.325,0,1,0,1,8,2,0,1
47.33,1,2,0,18,10,4,4,4
47.335,2,2,1,33,43,2,2,1
47.34,2,1,2,1,4,1,2,0
47.345,2,1,3,11,21,2,4,5
47.35,2,0,2,7,7,3,2,3
47.355,1,0,1,8,24,1,0,3
47.36,3,1,3,1,38,2,2,1
47.365,1,2,1,1,3,1,1,2
47.37,0,1,2,2,10,0,1,3
47.375,1,1,3,0,4,2,1,0
47.38,0,0,2,21,34,2,1,4
47.385,3,3,11,64,86,9,1,0
47.39,2,2,2,3,31,1,3,1
47.395,3,1,1,0,15,4,5,1
47.4,1,3,3,7,14,1,1,1
47.405,1,0,4,16,32,5,3,2
47.41,1,1,1,4,22,1,0,1
47.415,1,3,5,15,68,7,5,1
47.42,0,3,8,14,29,2,3,0
47.425,1,1,0,10,5,1,1,1
47.43,1,1,3,14,16,4,0,2
47.435,1,2,6,23,4,6,0,1
47.44,0,1,2,15,18,7,1,3
47.445,1,1,3,29,21,1,4,0
47.45,2,3,5,25,60,2,1,2
47.455,0,2,4,42,55,5,2,0
47.46,5,5,13,69,51,14,10,6
47.465,1,3,1,66,58,7,7,1
47.47,3,2,4,3,15,5,11,6
47.475,4,3,12,26,86,2,7,6
47.48,6,7,12,37,2,6,4,5
47.485,2,0,5,15,115,15,3,2
47.49,2,3,4,67,128,22,5,1
47.495,7,5,5,45,2,10,11,5
47.5,3,3,6,34,11,0,1,4
47.505,0,0,3,37,46,13,2,2
47.51,0,1,1,23,93,2,2,2
47.515,2,5,16,83,102,11,4,1
47.52,6,5,4,41,35,15,7,8
47.525,4,10,8,15,18,9,7,4
47.53,10,9,20,55,31,40,16,10
47.535,8,8,13,17,47,10,0,5
47.54,1,4,3,44,82,30,2,1
47.545,3,6,25,86,93,10,3,2
47.55,1,1,16,46,10,7,2,4
47.555,0,1,2,72,35,3,4,1
47.56,4,2,13,78,35,2,4,1
47.565,7,4,4,8,20,6,5,6
47.57,4,5,1,9,7,34,6,2
47.575,3,3,9,13,71,8,2,3
47.58,7,9,8,25,62,16,17,8
47.585,4,8,16,21,25,13,8,6
47.59,3,8,33,29,88,5,2,1
47.595,4,5,12,19,44,7,1,4
47.6,2,1,3,5,6,39,8,4
47.605,2,2,8,22,53,20,5,4
47.61,5,3,9,7,127,52,13,5
47.615,2,2,2,20,78,21,5,0
47.62,2,4,11,24,72,15,7,4
47.625,3,2,9,13,23,7,0,0
47.63,1,0,1,33,47,6,1,2
47.635,2,3,7,9,94,9,5,1
47.64,2,4,8,27,88,4,4,3
47.645,0,3,5,35,65,7,0,2
47.65,1,1,2,14,53,4,2,0
47.655,2,0,4,29,12,2,0,2
47.66,1,1,5,13,27,6,4,0
47.665,0,0,2,46,100,9,4,2
47.67,0,1,5,53,5,14,2,0
47.675,0,2,3,41,11,15,2,1
47.68,1,0,2,0,34,7,1,0
47.685,2,1,0,8,63,2,1,2
47.69,2,2,0,1,112,9,2,1
47.695,1,2,5,32,34,5,2,1
47.7,0,1,1,6,33,4,1,2
47.705,3,2,9,8,8,6,0,2
47.71,1,1,2,11,14,5,3,1
47.715,0,1,0,3,13,5,3,2
47.72,1,2,5,18,23,1,2,4
47.725,3,2,4,20,128,14,4,3
47.73,1,3,1,1,83,7,2,1
47.735,0,1,4,18,70,1,1,2
47.74,2,2,4,7,12,2,1,0
47.745,0,0,2,2,5,2,2,3
47.75,2,2,3,20,28,4,2,1
47.755,5,2,1,12,45,0,3,1
47.76,0,0,4,12,14,5,5,9
47.765,9,1,1,9,48,3,0,16
47.77,7,4,1,9,0,6,9,2
47.775,1,7,0,18,88,5,2,0
47.78,8,4,2,3,59,0,2,17
47.785,6,1,5,22,44,11,10,9
47.79,14,1,1,6,25,3,3,5
47.795,8,0,1,5,20,0,1,14
47.8,42,2,1,6,16,1,2,21
47.805,38,8,3,4,6,5,4,39
47.81,13,3,3,9,16,5,2,12
47.815,7,1,0,4,11,3,4,5
47.82,22,4,0,2,18,3,2,3
47.825,13,29,3,9,63,5,2,12
47.83,19,20,1,36,33,1,13,75
47.835,9,0,4,6,28,2,3,19
47.84,8,20,5,3,30,1,3,19
47.845,19,2,4,4,12,1,1,32
47.85,101,12,5,8,13,0,8,22
47.855,58,6,2,32,92,7,9,39
47.86,47,17,6,43,83,16,8,5
47.865,2,5,0,17,0,1,8,5
47.87,61,4,1,14,19,2,3,38
47.875,28,6,3,7,31,2,5,2
47.88,20,3,1,8,60,1,2,19
47.885,48,1,4,3,20,1,2,4
47.89,7,5,1,4,23,9,13,5
47.895,21,6,3,15,13,1,0,9
47.9,14,2,2,17,43,2,2,12
47.905,17,5,1,25,51,4,2,4
47.91,35,2,3,8,8,2,2,9
47.915,3,5,3,2,4,1,4,6
47.92,14,3,0,7,28,5,3,12
47.925,4,6,1,10,1,6,3,2
47.93,19,3,3,17,16,9,0,9
47.935,12,4,2,9,3,8,3,4
47.94,3,2,5,30,60,4,3,5
47.945,12,10,0,5,13,3,1,20
47.95,8,4,0,15,7,6,3,27
47.955,19,0,2,17,6,10,6,2
47.96,17,3,3,16,34,4,2,9
47.965,5,0,3,2,30,2,1,2
47.97,4,1,3,22,78,10,6,9
47.975,1,0,2,8,9,3,2,1
47.98,9,4,6,24,46,3,4,9
47.985,3,5,4,6,19,4,6,22
47.99,6,5,11,17,11,7,7,13
47.995,2,1,2,16,64,3,4,2
48,4,6,6,15,88,4,5,2
48.005,1,1,1,13,30,1,1,2
48.01,6,2,4,15,9,3,2,0
48.015,2,3,5,14,33,7,1,4
48.02,11,3,1,15,69,2,1,2
48.025,4,1,1,22,102,7,3,1
48.03,4,0,1,2,4,1,2,3
48.035,1,3,5,5,3,3,4,4
48.04,6,1,6,22,39,4,1,1
48.045,10,2,6,6,3,1,0,2
48.05,5,3,2,7,2,1,3,6
48.055,5,0,0,9,35,6,3,1
48.06,9,1,5,35,34,9,4,1
48.065,2,3,5,35,72,7,1,1
48.07,3,0,2,11,20,1,1,2
48.075,2,2,0,2,1,2,1,1
48.08,5,2,4,1,14,7,6,1
48.085,2,2,2,2,19,3,2,3
48.09,5,1,2,9,18,7,6,3
48.095,5,1,1,5,11,1,1,1
48.1,2,0,1,17,17,4,0,2
48.105,2,0,0,4,19,4,4,2
48.11,6,1,1,0,8,4,4,7
48.115,0,4,1,3,2,1,1,1
48.12,2,1,1,2,7,2,1,1
48.125,2,2,3,4,4,3,5,2
48.13,1,3,0,10,9,1,0,2
48.135,4,0,0,6,15,1,0,4
48.14,3,1,3,7,7,2,2,3
48.145,0,3,2,5,1,4,3,1
48.15,4,1,1,2,7,0,0,1
48.155,2,1,1,12,51,4,1,3
48.16,0,2,2,2,1,3,3,2
48.165,3,0,3,36,93,10,6,3
48.17,3,3,3,16,19,4,5,4
48.175,1,1,1,11,14,6,5,2
48.18,2,3,4,0,9,7,7,3
48.185,0,0,1,9,15,1,1,3
48.19,2,3,5,0,20,6,3,2
48.195,0,2,2,1,0,6,4,3
48.2,3,4,0,5,3,4,4,3
48.205,0,2,3,8,9,3,1,0
48.21,0,0,3,3,1,0,2,1
48.215,3,2,2,2,8,1,1,1
48.22,1,1,1,0,9,2,1,0
48.225,0,2,0,9,2,3,2,2
48.23,2,0,1,5,28,2,2,0
48.235,2,2,4,23,78,5,2,5
48.24,1,2,1,9,11,2,3,3
48.245,2,0,1,10,31,0,4,3
48.25,0,2,0,2,0,2,5,2
48.255,1,2,0,14,4,5,4,4
48.26,3,3,3,9,12,6,0,2
48.265,1,2,2,2,2,0,1,1
48.27,0,0,1,0,10,3,3,0
48.275,1,2,0,2,5,1,1,0
48.28,1,1,4,1,7,3,0,1
48.285,3,3,5,4,12,1,2,0
48.29,2,1,3,7,3,2,1,0
48.295,0,1,0,6,32,0,0,1
48.3,4,14,8,6,4,3,6,2
48.305,1,1,2,6,2,1,0,0
48.31,0,1,2,3,4,0,2,4
48.315,0,1,2,11,21,3,0,3
48.32,1,2,1,5,1,2,2,0
48.325,1,0,1,23,22,2,0,0
48.33,1,2,8,33,66,5,3,1
48.335,1,0,2,14,21,1,0,2
48.34,1,0,1,16,32,3,1,1
48.345,0,2,2,9,31,9,3,1
48.35,1,1,2,9,31,1,4,2
48.355,2,3,1,27,55,14,3,4
48.36,3,0,8,25,47,5,5,3
48.365,1,4,8,10,11,10,0,1
48.37,0,3,2,0,30,8,3,1
48.375,0,4,9,47,73,1,5,0
48.38,1,1,3,19,50,16,6,3
48.385,0,2,10,45,77,8,4,1
48.39,6,2,9,92,55,3,10,4
48.395,2,1,0,53,51,13,5,0
48.4,1,2,6,33,19,9,3,6
48.405,7,5,5,31,48,41,10,9
48.41,4,7,8,45,22,61,2,2
48.415,2,0,5,35,34,10,2,1
48.42,1,2,4,28,101,7,2,1
48.425,0,1,2,15,34,13,3,3
48.43,2,0,0,55,11,15,5,4
48.435,4,6,15,2,23,17,4,2
48.44,1,1,5,62,57,10,1,1
48.445,1,2,2,1,61,4,3,4
48.45,3,3,17,17,61,19,6,5
48.455,6,3,3,23,33,11,11,6
48.46,5,7,15,19,4,17,3,4
48.465,2,10,24,33,46,19,5,1
48.47,6,4,6,66,92,39,15,8
48.475,0,5,9,24,57,39,9,0
48.48,5,1,10,90,31,18,1,4
48.485,1,1,3,2,47,15,6,1
48.49,1,5,17,63,127,24,7,3
48.495,3,4,7,7,33,27,7,6
48.5,4,3,2,11,5,33,6,6
48.505,1,4,22,107,128,39,12,1
48.51,1,6,21,84,36,17,6,5
48.515,0,6,45,29,9,21,5,1
48.52,1,1,8,50,12,12,3,0
48.525,2,2,13,6,26,37,8,3
48.53,1,4,6,4,57,35,7,2
48.535,1,1,13,22,8,4,1,2
48.54,5,5,12,12,19,17,7,4
48.545,3,4,12,17,2,3,1,2
48.55,1,3,12,5,67,11,4,5
48.555,1,3,12,32,1,13,6,4
48.56,1,2,3,17,6,8,3,3
48.565,2,3,11,0,41,12,7,2
48.57,3,5,10,18,68,10,4,4
48.575,3,0,9,17,97,15,4,4
48.58,0,0,3,11,39,2,3,0
48.585,1,1,1,6,23,1,6,3
48.59,0,1,0,3,17,10,1,2
48.595,1,1,1,6,23,1,3,0
48.6,1,0,5,25,10,2,4,0
48.605,1,4,10,2,6,1,4,0
48.61,1,1,5,3,21,5,1,0
48.615,2,2,8,47,57,13,6,2
48.62,0,0,1,7,27,5,1,0
48.625,2,2,1,31,56,3,5,4
48.63,3,0,0,1,47,20,3,2
48.635,2,2,2,19,24,5,2,1
48.64,1,3,1,13,55,0,1,0
48.645,0,1,2,6,19,1,1,1
48.65,0,4,7,12,25,4,2,3
48.655,3,0,1,3,6,1,2,1
48.66,0,1,2,4,4,2,2,3
48.665,3,1,1,5,1,1,3,1
48.67,2,0,1,1,11,3,0,1
48.675,4,0,1,5,37,1,1,4
48.68,1,3,1,12,60,10,4,4
48.685,3,2,2,10,5,2,2,4
48.69,2,0,0,10,31,2,0,0
48.695,0,0,1,8,30,1,1,0
48.7,1,0,2,9,12,1,0,2
48.705,1,2,3,0,14,2,2,4
48.71,0,2,0,5,3,1,1,1
48.715,2,1,1,8,24,4,1,3
48.72,1,2,3,6,5,3,3,0
48.725,4,2,1,3,1,2,1,1
48.73,1,0,4,1,12,3,0,1
48.735,1,2,1,1,4,5,3,1
48.74,3,0,1,10,6,2,3,1
48.745,1,0,2,2,2,4,4,5
48.75,1,1,1,3,7,1,0,2
48.755,1,1,1,8,4,0,0,1
48.76,0,1,2,26,36,1,2,3
48.765,1,3,1,2,3,3,2,2
48.77,4,1,1,2,1,1,0,1
48.775,1,0,1,2,15,4,1,0
48.78,1,2,2,2,34,4,0,1
48.785,1,2,3,6,26,7,3,2
48.79,1,1,0,1,0,3,2,3
48.795,2,1,3,14,15,5,6,2
48.8,1,0,1,2,4,1,1,2
48.805,2,1,0,3,0,3,1,3
48.81,0,1,2,3,22,2,2,3
48.815,2,1,3,43,76,6,5,6
48.82,1,1,4,7,3,1,2,2
48.825,1,1,1,1,1,0,1,1
48.83,2,0,2,5,0,5,6,4
48.835,2,2,0,18,18,1,3,2
48.84,1,1,0,6,17,7,8,7
48.845,1,1,1,1,7,3,2,1
48.85,0,3,3,2,7,1,1,0
48.855,2,0,1,15,20,3,5,2
48.86,2,0,3,3,37,10,8,5
48.865,2,1,1,1,3,1,0,1
48.87,1,1,1,7,5,0,2,2
48.875,3,1,1,5,4,4,4,2
48.88,0,1,2,3,10,1,2,2
48.885,0,1,2,0,2,3,1,3
48.89,1,0,1,11,33,5,4,2
48.895,0,2,1,19,47,4,1,3
48.9,2,1,0,12,34,2,1,0
48.905,1,3,2,3,24,4,4,4
48.91,3,0,2,2,28,2,5,1
48.915,1,0,1,13,6,1,1,0
48.92,1,2,1,9,15,6,2,3
48.925,1,2,0,5,4,3,5,6
48.93,1,0,2,4,7,3,4,2
48.935,1,3,2,6,2,1,0,2
48.94,1,2,4,3,8,4,4,2
48.945,2,1,5,25,4,9,7,5
48.95,3,3,2,11,10,0,2,2
48.955,1,1,3,16,28,3,1,1
48.96,3,1,0,7,13,2,1,2
48.965,0,2,2,7,2,2,1,2
48.97,1,1,0,5,8,1,4,1
48.975,2,2,1,20,15,2,0,0
48.98,0,2,0,20,55,1,1,0
48.985,2,1,0,17,30,3,1,0
48.99,2,1,4,29,36,7,5,0
48.995,1,2,3,12,17,0,3,0
49,1,1,0,2,5,0,2,0
49.005,1,0,1,4,11,1,2,1
49.01,2,4,3,4,4,3,1,2
49.015,4,1,3,1,12,2,2,0
49.02,1,0,0,4,16,0,1,0
49.025,0,1,0,4,8,2,1,1
49.03,1,3,2,3,4,4,4,5
49.035,2,0,3,9,16,2,4,3
49.04,2,1,0,4,15,1,0,0
49.045,3,2,6,22,66,1,3,2
49.05,0,0,2,25,56,2,2,3
49.055,1,2,2,3,8,6,4,1
49.06,1,1,1,7,0,1,0,1
49.065,1,1,3,8,3,0,1,1
49.07,1,0,4,7,5,1,1,2
49.075,1,1,1,4,21,2,0,2
49.08,1,1,2,6,27,0,0,2
49.085,0,1,1,6,7,3,0,1
49.09,2,1,2,14,34,1,1,1
49.095,0,1,5,46,52,3,1,2
49.1,4,4,2,22,100,2,6,3
49.105,1,2,2,4,30,0,0,2
49.11,1,0,4,8,26,1,2,1
49.115,0,2,0,34,85,2,1,1
49.12,2,1,3,46,103,6,1,2
49.125,1,4,4,14,10,3,2,2
49.13,1,1,3,17,20,0,0,1
49.135,1,2,0,1,5,5,2,0
49.14,4,4,7,3,38,7,4,3
49.145,2,3,5,30,73,8,3,0
49.15,0,1,5,10,116,2,4,3
49.155,2,0,7,40,94,5,5,1
49.16,6,5,4,37,42,14,8,9
49.165,4,4,9,36,15,6,1,2
49.17,0,1,2,59,78,1,3,0
49.175,1,3,11,70,104,23,5,4
49.18,0,2,7,50,21,9,6,1
49.185,6,7,16,54,39,30,17,8
49.19,1,1,9,58,110,1,13,2
49.195,4,4,16,72,35,5,2,1
49.2,3,3,16,45,20,15,1,2
49.205,4,3,7,37,51,26,4,3
49.21,4,5,12,28,76,27,1,2
49.215,1,0,0,84,85,39,1,2
49.22,3,3,9,63,75,41,1,4
49.225,8,11,28,63,111,42,1,6
49.23,0,2,6,8,115,6,8,3
49.235,3,0,1,10,112,11,1,1
49.24,1,0,3,71,84,5,0,3
49.245,17,16,12,119,127,1,24,20
49.25,2,7,8,0,58,8,6,5
49.255,1,3,3,44,25,17,3,3
49.26,10,5,12,43,55,11,16,14
49.265,1,2,18,8,107,3,0,0
49.27,2,1,5,7,36,14,2,2
49.275,4,4,7,19,71,19,12,7
49.28,1,1,10,39,73,7,0,0
49.285,4,1,7,42,56,48,14,6
49.29,1,0,3,4,127,13,2,1
49.295,2,4,14,17,62,16,1,4
49.3,6,6,35,21,11,18,6,7
49.305,5,4,10,19,14,42,11,6
49.31,7,8,14,68,46,22,7,7
49.315,3,1,1,16,45,16,4,0
49.32,3,1,6,23,82,9,5,3
49.325,0,0,6,16,4,25,3,1
49.33,1,0,4,23,112,7,1,3
49.335,2,5,5,15,79,6,3,4
49.34,2,1,2,43,42,18,6,3
49.345,1,0,1,0,34,2,1,1
49.35,0,7,12,26,72,0,2,2
49.355,3,2,5,6,15,11,7,1
49.36,2,2,2,41,28,7,0,3
49.365,2,1,3,8,54,1,0,1
49.37,4,2,1,70,31,15,3,4
49.375,2,2,8,7,31,30,5,4
49.38,0,3,0,3,93,23,2,5
49.385,3,3,8,29,44,12,7,5
49.39,0,0,0,34,79,10,3,1
49.395,2,3,2,1,37,6,0,1
49.4,4,4,3,30,75,9,3,5
49.405,1,1,10,72,16,3,3,1
49.41,0,0,7,21,46,13,4,2
49.415,3,1,0,8,22,15,2,1
49.42,2,1,1,2,105,4,4,2
49.425,0,0,1,16,24,1,2,1
49.43,2,1,3,41,67,15,1,1
49.435,4,3,4,23,28,2,2,2
49.44,3,4,3,6,9,1,0,2
49.445,1,1,0,9,36,1,3,3
49.45,2,1,0,10,62,7,4,7
49.455,1,2,4,16,67,21,5,2
49.46,1,2,3,22,24,8,1,3
49.465,5,2,9,3,79,7,5,4
49.47,4,2,0,1,76,2,4,2
49.475,1,1,1,6,34,4,3,0
49.48,4,2,6,12,37,8,4,4
49.485,2,1,1,3,40,0,3,1
49.49,1,1,1,8,48,0,3,2
49.495,1,1,0,10,60,4,2,0
49.5,2,2,2,1,93,8,4,1
49.505,2,0,2,2,28,2,2,1
49.51,1,2,2,8,43,1,2,1
49.515,1,1,1,6,11,3,0,3
49.52,2,3,6,6,25,5,6,6
49.525,0,2,2,10,14,4,1,3
49.53,1,2,2,7,34,3,0,0
49.535,7,0,1,7,14,2,3,5
49.54,1,1,2,5,9,2,2,0
49.545,1,2,1,14,2,1,0,2
49.55,1,1,0,14,0,2,0,2
49.555,2,1,1,10,9,3,1,1
49.56,9,2,3,10,5,1,1,19
49.565,23,2,6,7,9,2,5,19
49.57,2,0,0,11,5,0,3,4
49.575,1,2,1,1,54,1,1,6
49.58,9,4,7,23,11,8,4,1
49.585,9,0,1,13,19,5,4,4
49.59,5,2,1,2,12,3,2,2
49.595,4,2,0,19,28,8,3,5
49.6,0,0,1,11,92,6,2,4
49.605,4,3,6,41,88,5,4,4
49.61,1,3,2,9,2,2,0,1
49.615,1,1,1,3,12,6,2,2
49.62,2,1,1,0,9,5,4,2
49.625,1,1,0,3,27,2,2,2
49.63,4,1,2,9,12,1,0,5
49.635,0,2,5,5,3,4,0,1
49.64,4,2,1,6,15,1,1,4
49.645,5,0,2,12,17,1,0,3
49.65,3,2,0,9,20,3,2,2
49.655,1,0,3,2,10,0,1,1
49.66,2,1,1,0,10,1,0,1
49.665,6,1,1,1,7,1,3,2
49.67,1,1,1,11,11,2,1,2
49.675,4,0,1,17,23,1,2,5
49.68,2,1,2,39,77,5,3,0
49.685,3,2,3,4,6,4,3,3
49.69,2,2,0,21,43,3,2,3
49.695,2,3,2,3,25,0,0,4
49.7,3,3,6,44,81,9,1,2
49.705,2,1,1,14,14,3,5,1
49.71,1,1,1,2,9,3,1,2
49.715,1,0,3,0,6,1,0,1
49.72,1,1,0,2,8,2,4,2
49.725,3,1,0,3,12,6,7,5
49.73,4,1,2,2,4,4,1,2
49.735,2,1,2,5,2,0,2,1
49.74,0,0,1,13,4,0,0,1
49.745,2,1,1,5,29,1,3,1
49.75,1,0,3,3,1,1,1,3
49.755,2,0,0,6,17,2,3,2
49.76,2,2,3,3,5,2,2,1
49.765,3,3,4,11,2,0,2,1
49.77,1,3,2,23,12,3,0,0
49.775,1,2,5,9,11,8,3,3
49.78,2,1,1,2,19,0,2,1
49.785,2,2,2,4,54,5,5,0
49.79,0,3,2,5,8,12,5,3
49.795,1,1,1,3,8,4,5,2
49.8,0,2,3,5,4,5,2,1
49.805,1,1,2,6,27,0,2,3
49.81,2,1,1,9,16,4,7,5
49.815,2,2,2,10,28,3,1,3
49.82,1,1,1,15,5,2,1,1
49.825,3,0,3,1,13,3,3,4
49.83,2,0,2,3,4,6,1,1
49.835,1,1,1,6,6,12,3,1
49.84,1,1,0,3,2,0,0,1
49.845,0,1,2,6,2,1,4,3
49.85,1,1,2,4,0,8,3,0
49.855,3,0,2,8,5,1,5,1
49.86,1,0,4,6,20,0,1,1
49.865,2,3,4,34,35,8,5,6
49.87,2,2,1,9,18,1,4,2
49.875,2,1,0,0,4,1,1,2
49.88,1,1,2,2,12,1,1,1
49.885,2,1,1,5,23,2,2,1
49.89,0,2,3,1,6,4,2,0
49.895,2,2,3,1,12,7,3,3
49.9,1,3,3,11,22,2,1,2
49.905,1,1,0,8,12,2,0,2
49.91,0,1,5,5,1,4,1,1
49.915,1,2,0,8,12,1,1,2
49.92,2,0,3,1,10,0,1,2
49.925,0,3,2,4,4,3,2,0
49.93,1,0,0,6,18,1,2,1
49.935,1,0,0,1,42,3,0,1
49.94,3,3,5,23,5,8,4,1
49.945,0,1,2,15,20,5,3,4
49.95,0,2,0,9,12,3,0,1
49.955,1,1,1,9,6,1,0,1
49.96,1,1,1,2,26,3,4,3
49.965,3,3,4,4,56,9,6,2
49.97,2,0,1,7,1,6,3,3
49.975,2,1,2,7,6,3,4,4
49.98,3,1,1,11,22,5,0,1
49.985,0,0,3,15,43,1,4,2
49.99,1,0,0,9,0,3,1,1
49.995,1,1,3,4,13,5,0,1
50,1,2,0,1,3,4,1,1
50.005,2,3,3,3,31,3,2,3
50.01,0,0,1,1,4,7,1,1
50.015,2,1,2,3,5,3,0,1
50.02,0,1,0,0,7,2,2,1
50.025,1,1,2,0,0,1,2,1
50.03,1,0,1,10,6,2,2,4
50.035,1,3,2,5,16,4,3,2
50.04,2,3,4,1,1,1,1,2
50.045,0,0,2,1,12,6,1,2
50.05,2,1,2,3,6,5,0,0
50.055,0,1,1,3,22,2,3,1
50.06,3,4,4,37,35,11,5,4
50.065,0,1,2,9,24,2,2,1
50.07,0,1,0,6,4,2,2,2
50.075,3,2,3,9,25,2,2,1
50.08,0,1,1,11,8,3,0,3
50.085,2,3,3,6,6,2,2,3
50.09,1,1,2,0,7,2,4,2
50.095,1,0,3,16,59,3,0,2
50.1,2,3,8,22,52,2,1,2
50.105,1,2,1,45,82,2,3,2
50.11,2,3,0,32,74,2,1,3
50.115,3,0,2,46,82,8,5,2
50.12,5,4,9,62,43,11,6,4
50.125,6,7,6,45,65,6,9,7
50.13,0,2,2,44,128,7,3,2
50.135,3,4,5,26,39,9,3,2
50.14,6,7,13,55,127,26,8,6
50.145,4,4,8,46,115,1,1,1
50.15,2,1,5,95,27,13,4,4
50.155,7,8,11,79,86,28,14,7
50.16,5,7,18,6,107,28,9,8
50.165,10,10,11,102,116,32,9,11
50.17,1,0,9,75,127,27,2,5
50.175,1,6,13,52,101,25,2,1
50.18,5,5,1,11,84,2,13,10
50.185,9,5,5,84,47,6,14,15
50.19,0,2,8,73,117,27,3,2
50.195,5,5,6,14,87,16,6,5
50.2,2,4,6,41,37,1,4,1
50.205,0,1,1,78,22,19,2,1
50.21,4,4,10,36,49,23,5,7
50.215,6,6,16,18,32,9,7,6
50.22,1,1,2,47,10,14,5,2
50.225,3,1,2,12,89,38,10,4
50.23,8,4,6,8,112,13,15,6
50.235,7,8,20,39,127,20,12,11
50.24,17,13,18,6,104,49,22,16
50.245,3,2,7,91,101,22,0,2
50.25,0,2,3,5,75,15,9,3
50.255,0,1,4,87,10,8,2,4
50.26,0,1,16,59,26,13,1,1
50.265,6,8,20,39,55,23,5,6
50.27,3,13,17,14,118,3,2,2
50.275,7,5,14,75,52,23,4,7
50.28,3,2,3,25,48,15,7,5
50.285,2,1,4,13,89,2,8,5
50.29,6,6,10,20,74,8,7,7
50.295,3,1,4,27,58,11,5,5
50.3,2,4,6,59,127,14,2,1
50.305,5,0,1,24,26,1,2,1
50.31,1,1,8,14,87,9,3,3
50.315,2,1,2,7,39,13,1,2
50.32,5,2,12,9,127,23,10,7
50.325,2,1,4,11,18,3,3,1
50.33,3,1,4,1,128,24,0,3
50.335,4,5,14,42,47,3,0,1
50.34,1,1,0,16,64,10,4,2
50.345,2,3,5,10,59,11,2,1
50.35,0,1,3,0,105,25,2,0
50.355,5,3,5,26,49,22,8,7
50.36,1,4,6,2,27,12,1,3
50.365,0,1,0,2,36,19,3,4
50.37,5,3,6,2,1,5,0,1
50.375,3,3,5,21,30,5,1,0
50.38,2,3,7,38,38,6,1,0
50.385,1,0,3,50,55,4,3,2
50.39,3,2,3,18,11,15,0,0
50.395,2,1,1,18,62,4,3,3
50.4,2,1,2,1,59,10,1,3
50.405,3,0,2,13,56,1,4,3
50.41,1,1,28,5,27,13,2,2
50.415,2,1,3,3,10,7,4,1
50.42,5,3,4,18,18,16,10,5
50.425,2,3,2,0,16,2,1,2
50.43,1,2,5,6,79,7,0,1
50.435,1,3,1,9,63,0,1,1
50.44,1,1,8,26,52,2,0,2
50.445,1,2,0,5,31,4,5,5
50.45,1,1,9,0,10,3,1,2
50.455,3,1,1,15,32,4,3,2
50.46,2,1,11,16,128,15,1,3
50.465,4,4,5,5,4,3,5,5
50.47,0,1,7,10,36,1,1,1
50.475,0,1,1,4,15,4,2,3
50.48,0,2,7,12,4,0,1,1
50.485,1,2,2,6,22,3,1,1
50.49,0,1,3,4,34,3,0,1
50.495,1,1,1,7,32,1,0,2
50.5,4,1,1,12,6,0,6,3
50.505,2,1,1,3,6,1,3,4
50.51,0,1,6,11,4,2,2,4
50.515,1,2,0,1,12,2,1,4
50.52,1,1,0,4,3,1,1,2
50.525,1,0,3,12,12,1,3,2
50.53,4,9,0,15,12,3,0,4
50.535,21,4,2,2,1,3,4,1
50.54,18,1,2,9,13,4,2,1
50.545,7,0,0,2,33,1,1,3
50.55,2,1,6,12,8,4,3,5
50.555,1,6,3,5,7,2,1,1
50.56,11,1,1,11,31,0,0,3
50.565,7,2,3,3,42,5,6,2
50.57,0,4,9,36,76,4,0,3
50.575,0,6,6,15,12,1,5,1
50.58,7,1,3,1,13,1,1,4
50.585,2,3,1,4,15,5,4,5
50.59,1,3,2,5,0,4,0,2
50.595,3,5,0,18,3,4,2,4
50.6,1,0,1,9,40,2,2,3
50.605,6,6,0,19,47,3,1,1
50.61,2,2,0,14,60,6,1,1
50.615,5,1,1,12,40,1,2,1
50.62,2,4,0,2,11,2,1,1
50.625,1,2,5,21,57,4,0,2
50.63,0,3,3,17,26,4,1,1
50.635,4,2,5,3,3,0,1,1
50.64,2,4,1,9,4,2,1,1
50.645,3,6,0,3,38,6,0,1
50.65,1,3,4,14,25,9,2,1
50.655,2,2,3,6,0,2,2,6
50.66,4,1,0,1,2,4,1,2
50.665,1,3,4,10,14,5,0,1
50.67,2,2,0,5,18,0,3,6
50.675,1,3,4,6,8,2,2,3
50.68,4,2,3,5,13,1,1,2
50.685,1,1,0,5,19,0,0,0
50.69,1,1,6,11,0,3,3,1
50.695,2,1,0,0,5,1,2,2
50.7,1,2,0,6,11,3,0,1
50.705,0,1,1,4,5,0,0,2
50.71,4,0,3,5,12,0,0,1
50.715,3,3,3,5,21,1,1,1
50.72,3,4,4,43,71,5,1,2
50.725,1,1,1,16,36,1,0,1
50.73,3,0,1,4,73,5,1,1
50.735,1,3,1,1,17,3,2,2
50.74,1,2,2,13,10,0,2,1
50.745,1,3,2,4,11,3,1,2
50.75,1,0,1,8,37,3,3,0
50.755,0,0,1,2,12,4,1,1
50.76,2,2,2,1,8,2,1,1
50.765,0,0,1,6,2,5,2,1
50.77,0,0,0,10,24,3,0,2
50.775,4,2,3,17,21,8,3,2
50.78,2,0,0,4,2,2,1,1
50.785,2,1,2,1,1,4,3,0
50.79,0,0,3,3,11,1,1,2
50.795,2,0,3,2,8,3,4,2
50.8,1,2,2,2,10,2,2,0
50.805,2,1,3,6,0,2,3,2
50.81,2,3,0,19,8,1,1,1
50.815,1,2,1,11,4,3,1,3
50.82,1,2,1,3,5,5,5,2
50.825,1,1,2,5,10,5,3,1
50.83,1,2,2,2,17,2,1,2
50.835,1,1,1,5,6,2,1,1
50.84,2,2,2,1,7,2,1,2
50.845,2,0,1,0,8,6,5,6
50.85,1,0,1,12,20,1,2,2
50.855,1,0,0,10,28,7,8,6
50.86,0,0,1,1,5,3,4,2
50.865,0,1,3,4,8,3,2,2
50.87,1,2,1,5,0,4,6,4
50.875,0,1,1,5,20,4,5,2
50.88,1,2,2,4,13,2,3,1
50.885,1,1,0,2,2,2,1,4
50.89,1,3,0,7,5,6,1,1
50.895,1,0,2,23,9,0,3,1
50.9,2,2,1,1,4,2,0,1
50.905,2,1,1,4,6,5,4,1
50.91,1,2,2,2,3,2,1,1
50.915,3,0,1,8,9,4,4,2
50.92,2,1,2,1,5,4,3,4
50.925,2,4,1,7,14,1,2,1
50.93,1,2,0,0,21,5,5,3
50.935,1,2,2,2,9,1,1,4
50.94,0,1,2,4,18,3,1,2
50.945,0,2,0,3,0,0,1,1
50.95,1,1,3,3,1,6,2,4
50.955,1,1,1,10,10,5,3,4
50.96,2,2,7,2,2,5,2,1
50.965,2,2,1,3,19,3,2,2
50.97,2,2,2,7,25,5,1,0
50.975,2,0,0,5,32,3,1,1
50.98,0,3,1,9,42,0,4,2
50.985,2,2,0,2,3,2,0,2
50.99,2,2,2,6,1,1,2,1
50.995,2,3,1,7,6,4,4,0
51,0,1,1,6,15,2,1,2
51.005,1,2,1,4,5,3,2,1
51.01,0,2,1,3,9,2,1,2
51.015,1,2,1,3,2,0,1,1
51.02,1,1,3,5,3,1,2,1
51.025,2,1,1,5,18,1,1,3
51.03,1,2,2,2,2,4,1,2
51.035,3,2,1,0,12,1,4,2
51.04,1,1,3,2,3,0,1,1
51.045,1,2,0,2,2,2,0,1
51.05,2,2,4,6,5,4,2,2
51.055,0,1,0,1,12,5,0,0
51.06,2,2,1,1,3,5,5,3
51.065,1,0,3,1,5,1,3,2
51.07,2,1,1,5,3,3,0,0
51.075,2,1,1,1,1,1,2,3
51.08,2,1,1,1,1,1,0,3
51.085,1,2,2,2,2,2,0,1
51.09,1,1,1,3,2,2,0,0
51.095,3,0,3,1,1,1,0,4
51.1,2,1,0,3,5,5,3,1
51.105,1,2,1,2,1,0,4,2
51.11,0,1,1,1,9,4,1,1
51.115,0,0,0,0,3,0,1,2
51.12,0,1,2,3,2,0,1,1
51.125,0,1,1,2,4,1,4,2
51.13,1,2,0,2,1,3,2,1
51.135,2,0,0,0,0,3,0,1
51.14,0,3,4,0,3,3,2,5
51.145,1,2,3,0,2,5,3,3
51.15,1,0,0,2,5,2,0,2
51.155,1,3,4,1,7,1,1,2
51.16,3,2,3,1,2,1,0,1
51.165,1,2,0,5,12,2,0,1
51.17,1,1,2,22,23,0,0,1
51.175,0,1,0,6,22,3,2,0
51.18,1,1,2,3,8,0,1,1
51.185,4,4,12,23,45,5,0,3
51.19,1,1,1,17,60,3,2,2
51.195,5,7,15,52,87,17,6,6
51.2,3,3,3,38,73,4,7,3
51.205,3,2,11,49,90,0,1,2
51.21,1,1,11,94,101,6,0,2
51.215,2,1,0,82,87,1,3,2
51.22,5,8,43,5,5,12,2,5
51.225,1,6,18,18,30,6,3,1
51.23,8,15,37,11,65,13,12,10
51.235,0,4,17,127,127,7,4,2
51.24,6,4,20,50,0,23,8,8
51.245,1,1,12,32,33,15,8,1
51.25,2,6,36,48,49,8,3,0
51.255,8,8,28,92,89,11,11,8
51.26,6,2,6,37,28,23,2,6
51.265,2,1,21,60,44,15,4,5
51.27,0,1,14,22,29,4,7,1
51.275,6,9,22,32,92,27,7,4
51.28,3,0,3,82,55,0,3,0
51.285,3,3,3,16,76,12,4,3
51.29,5,5,5,13,52,17,0,4
51.295,0,1,12,76,120,32,4,1
51.3,8,5,15,48,71,14,15,5
51.305,9,10,27,45,65,28,4,4
51.31,3,14,60,10,8,12,7,10
51.315,4,7,11,10,93,20,8,9
51.32,1,3,19,47,72,35,3,2
51.325,0,2,5,18,44,28,2,1
51.33,7,6,29,12,103,1,10,6
51.335,7,4,4,24,5,16,11,7
51.34,1,1,5,9,34,4,4,1
51.345,2,4,4,11,59,1,8,3
51.35,0,1,5,33,110,23,4,3
51.355,1,1,2,15,24,21,3,1
51.36,4,0,6,41,9,11,5,5
51.365,0,5,3,29,71,6,0,4
51.37,1,2,2,31,68,0,3,0
51.375,2,5,7,10,90,9,3,2
51.38,2,0,16,33,64,23,2,1
51.385,1,0,1,13,46,37,2,3
51.39,7,9,33,81,62,21,11,10
51.395,4,6,1,59,27,4,5,5
51.4,6,4,10,1,60,1,6,6
51.405,6,6,9,58,12,19,8,6
51.41,2,2,1,21,34,14,2,1
51.415,0,2,1,7,27,3,0,0
51.42,1,1,4,12,14,1,1,4
51.425,2,1,1,23,109,13,3,2
51.43,4,2,1,37,15,0,3,1
51.435,3,3,4,5,7,5,3,1
51.44,0,2,16,17,24,13,6,3
51.445,1,4,31,5,37,27,5,5
51.45,2,4,6,14,39,2,4,4
51.455,1,1,3,3,16,6,1,1
51.46,1,0,8,0,30,1,0,2
51.465,0,0,5,2,48,4,3,2
51.47,4,3,7,4,65,11,5,3
51.475,1,2,6,3,47,1,0,0
51.48,2,2,3,2,35,4,1,2
51.485,1,5,8,28,26,3,0,2
51.49,3,1,3,36,11,2,4,4
51.495,1,1,10,48,112,7,5,2
51.5,3,4,4,22,127,7,4,4
51.505,0,2,5,6,3,0,1,2
51.51,1,1,5,15,24,1,1,2
51.515,0,0,4,13,28,2,1,0
51.52,0,2,0,17,37,2,1,1
51.525,3,0,14,28,49,5,5,5
51.53,0,4,16,1,18,4,0,4
51.535,1,3,11,14,56,14,5,3
51.54,0,2,1,13,114,1,3,4
51.545,0,2,0,16,18,6,3,2
51.55,1,1,7,20,20,3,1,1
51.555,0,3,10,7,66,0,0,0
51.56,1,0,1,1,10,1,1,1
51.565,3,2,7,31,18,5,5,5
51.57,1,2,1,3,14,1,2,2
51.575,3,1,2,5,17,0,5,2
51.58,1,2,3,2,4,2,0,1
51.585,0,3,8,14,3,3,2,3
51.59,1,0,2,2,25,2,2,1
51.595,4,1,5,7,24,1,0,1
51.6,1,1,0,6,24,3,1,1
51.605,2,1,3,6,7,2,1,1
51.61,2,2,2,13,15,3,3,2
51.615,0,1,4,5,46,2,2,1
51.62,1,2,1,26,61,0,1,3
51.625,0,1,1,8,9,1,1,2
51.63,2,2,3,2,22,0,2,2
51.635,1,1,5,8,32,3,2,2
51.64,2,1,3,3,4,1,2,2
51.645,12,2,2,4,12,0,1,2
51.65,18,2,2,4,9,2,0,1
51.655,4,4,4,8,3,4,1,2
51.66,3,3,1,4,3,2,3,3
51.665,5,3,4,8,9,1,4,5
51.67,7,1,0,0,4,0,0,2
51.675,2,1,1,4,20,2,1,0
51.68,0,0,1,2,8,2,2,4
51.685,0,4,1,0,19,1,1,1
51.69,4,9,5,3,6,1,0,2
51.695,2,0,0,0,2,1,1,3
51.7,3,0,0,2,11,4,3,0
51.705,1,1,1,3,3,1,1,1
51.71,1,1,2,1,6,1,2,3
51.715,2,1,1,2,0,1,0,0
51.72,3,1,2,5,3,2,1,2
51.725,1,2,1,6,12,1,3,2
51.73,2,2,3,13,49,1,1,4
51.735,3,3,5,40,86,9,3,4
51.74,1,2,6,3,9,1,0,1
51.745,1,3,1,3,7,0,1,2
51.75,3,1,3,4,9,3,3,2
51.755,2,1,5,11,39,5,1,2
51.76,0,2,3,0,7,1,2,2
51.765,1,2,1,2,5,2,1,1
51.77,1,1,1,6,6,5,0,1
51.775,2,2,9,4,22,6,0,0
51.78,1,2,28,2,12,1,1,2
51.785,0,1,3,7,34,0,0,2
51.79,2,0,3,2,1,1,2,3
51.795,4,2,2,12,25,2,4,3
51.8,2,1,6,2,9,4,3,2
51.805,1,1,1,9,5,1,0,1
51.81,1,0,8,0,28,3,0,3
51.815,1,2,5,0,3,1,1,1
51.82,0,0,4,1,0,1,1,0
51.825,1,2,4,6,6,4,1,3
51.83,3,2,1,8,10,0,4,5
51.835,0,1,3,1,12,2,1,1
51.84,1,2,1,0,5,0,4,2
51.845,1,0,1,7,9,1,0,2
51.85,1,0,0,24,30,5,2,3
51.855,2,1,7,32,60,9,2,2
51.86,2,2,2,11,0,3,2,1
51.865,1,0,2,3,2,2,1,2
51.87,3,2,3,6,2,2,2,1
51.875,2,1,2,16,31,1,1,0
51.88,1,0,5,5,6,3,2,0
51.885,2,1,1,0,23,4,5,4
51.89,2,6,6,8,19,4,2,1
51.895,2,2,4,32,67,9,7,2
51.9,2,4,2,30,43,11,3,1
51.905,1,2,1,6,26,2,1,1
51.91,1,0,2,17,26,9,4,1
51.915,1,0,5,8,12,4,2,2
51.92,1,1,1,1,7,3,4,0
51.925,2,2,4,2,3,3,0,2
51.93,0,1,2,12,8,5,6,3
51.935,1,1,1,6,9,6,6,3
51.94,2,1,0,19,41,0,3,4
51.945,4,1,0,20,83,4,2,2
51.95,2,2,11,14,25,1,3,1
51.955,3,4,2,3,14,4,3,4
51.96,1,2,0,13,9,1,1,2
51.965,0,0,1,6,19,2,1,1
51.97,0,2,1,7,22,4,5,3
51.975,0,1,1,1,1,6,2,0
51.98,1,1,0,5,0,3,1,2
51.985,0,3,3,1,11,1,3,1
51.99,1,1,0,7,12,0,1,1
51.995,0,0,0,2,16,0,1,0
52,2,1,2,3,23,3,3,2
52.005,0,3,3,13,3,0,2,3
52.01,0,3,1,4,11,0,1,1
52.015,0,2,2,1,13,2,2,1
52.02,2,1,0,7,4,1,2,1
52.025,0,0,2,6,14,0,1,1
52.03,0,1,0,7,9,2,2,0
52.035,2,3,3,27,59,6,2,2
52.04,0,2,0,8,6,3,1,1
52.045,0,1,1,10,17,1,1,2
52.05,2,1,0,14,10,3,1,1
52.055,2,1,1,2,2,3,1,2
52.06,1,2,3,0,16,2,1,2
52.065,1,0,5,6,5,1,1,1
52.07,2,0,1,6,4,2,2,2
52.075,2,0,1,4,22,3,2,2
52.08,1,1,5,1,35,2,1,0
52.085,3,2,2,6,14,2,1,2
52.09,0,1,3,12,22,2,0,2
52.095,2,3,2,0,12,2,1,2
52.1,1,2,6,17,3,4,4,2
52.105,1,2,1,5,6,0,1,1
52.11,1,2,3,9,22,5,2,1
52.115,0,2,0,5,5,1,1,0
52.12,1,0,4,19,13,3,0,1
52.125,1,1,2,3,11,2,0,3
52.13,2,1,0,9,24,1,2,2
52.135,0,3,3,12,3,3,1,1
52.14,1,0,1,26,30,5,3,1
52.145,2,2,0,25,6,2,3,1
52.15,2,1,0,0,14,4,4,2
52.155,0,2,4,1,4,2,1,1
52.16,2,2,5,12,9,3,0,2
52.165,2,0,1,21,1,2,1,1
52.17,2,1,2,7,6,1,2,0
52.175,2,4,11,5,10,1,1,0
52.18,1,1,0,13,30,2,2,1
52.185,1,1,0,12,48,3,1,0
52.19,2,2,1,10,2,2,1,4
52.195,1,3,0,11,10,4,3,3
52.2,1,0,0,8,28,3,0,2
52.205,1,2,4,5,49,6,2,3
52.21,0,3,3,2,10,5,4,4
52.215,1,2,1,2,14,0,0,1
52.22,1,0,2,4,3,0,1,1
52.225,1,0,3,6,48,7,2,0
52.23,0,3,6,15,82,9,3,1
52.235,4,3,4,15,68,1,4,3
52.24,2,1,0,6,17,0,2,2
52.245,1,2,3,16,7,3,5,3
52.25,0,1,4,10,19,6,2,2
52.255,1,4,7,38,32,1,5,4
52.26,0,2,1,30,22,0,0,2
52.265,2,1,0,9,5,4,2,4
52.27,0,2,4,7,4,1,1,2
52.275,1,3,2,35,35,2,2,0
52.28,4,5,2,88,89,4,5,1
52.285,2,3,5,80,47,13,5,3
52.29,0,2,5,2,23,2,1,3
52.295,3,3,0,23,82,3,5,5
52.3,3,3,7,17,27,4,5,4
52.305,1,5,7,2,80,4,1,0
52.31,0,4,17,83,105,8,1,1
52.315,4,3,10,76,38,15,2,4
52.32,1,2,4,20,26,4,2,0
52.325,0,4,4,78,20,5,5,2
52.33,0,0,2,63,78,16,12,1
52.335,4,9,7,67,24,5,15,9
52.34,3,4,31,42,50,0,9,5
52.345,3,4,4,23,58,2,9,6
52.35,2,1,3,7,4,9,9,4
52.355,2,2,5,10,34,11,4,3
52.36,0,3,33,9,21,20,11,3
52.365,2,2,18,69,101,19,6,5
52.37,12,14,28,1,17,25,9,12
52.375,3,10,27,32,10,3,1,2
52.38,2,9,20,9,12,8,9,3
52.385,1,0,2,9,39,12,6,4
52.39,2,3,9,51,39,17,1,0
52.395,4,5,10,46,115,3,2,3
52.4,6,6,16,49,123,49,9,8
52.405,0,2,3,80,54,27,0,2
52.41,4,0,6,50,89,27,6,9
52.415,1,3,5,11,26,1,2,1
52.42,3,0,2,35,3,12,4,4
52.425,3,5,6,25,24,32,3,1
52.43,0,3,8,2,51,7,4,2
52.435,1,1,3,46,28,18,1,0
52.44,4,4,9,52,128,2,5,3
52.445,1,0,27,66,124,9,4,4
52.45,3,6,20,33,27,16,10,4
52.455,4,2,3,3,57,11,3,7
52.46,3,8,29,3,89,25,7,3
52.465,14,17,26,51,75,24,19,15
52.47,1,3,4,14,90,14,5,3
52.475,1,3,7,6,3,13,2,2
52.48,1,1,3,54,25,22,5,0
52.485,1,2,7,29,52,11,2,1
52.49,1,1,4,16,42,1,2,2
52.495,2,5,10,15,97,0,4,6
52.5,3,2,3,20,69,1,4,3
52.505,3,1,3,1,14,2,4,5
52.51,5,3,8,45,11,2,3,2
52.515,2,1,1,26,85,8,1,0
52.52,1,1,1,5,51,9,1,2
52.525,3,4,17,49,46,39,9,6
52.53,0,2,2,22,3,8,0,4
52.535,1,5,13,51,97,1,1,1
52.54,0,1,3,17,21,1,3,3
52.545,1,2,7,26,23,10,2,3
52.55,1,0,1,4,33,9,1,6
52.555,0,1,1,2,52,10,1,3
52.56,3,5,5,7,100,5,1,4
52.565,1,5,5,16,38,0,2,0
52.57,2,0,1,12,75,7,3,4
52.575,1,2,1,22,54,6,0,2
52.58,0,1,3,3,22,1,1,2
52.585,2,1,2,21,56,2,1,2
52.59,1,1,5,13,33,1,0,1
52.595,3,2,3,9,28,2,2,7
52.6,3,1,4,11,3,0,2,3
52.605,1,2,4,5,80,4,0,2
52.61,1,1,0,27,68,6,1,3
52.615,1,2,1,29,71,3,1,2
52.62,0,1,4,0,6,4,1,0
52.625,3,0,2,51,63,0,1,2
52.63,1,1,5,18,30,2,1,1
52.635,2,3,3,24,55,7,3,0
52.64,1,4,6,6,29,7,8,4
52.645,1,1,2,11,13,2,1,0
52.65,0,1,1,7,60,2,7,5
52.655,2,2,5,3,21,1,1,0
52.66,1,1,1,0,12,9,6,5
52.665,2,2,3,7,1,5,0,2
52.67,3,3,0,7,4,2,2,0
52.675,3,2,4,4,1,3,4,3
52.68,1,1,1,6,31,1,3,2
52.685,1,3,1,8,8,0,1,1
52.69,3,4,5,15,18,3,0,3
52.695,1,1,1,2,14,0,1,1
52.7,4,5,3,19,41,0,3,4
52.705,1,1,2,19,9,1,3,0
52.71,2,2,4,7,76,8,2,2
52.715,2,3,5,33,29,6,4,3
52.72,1,2,0,19,26,1,2,1
52.725,0,3,2,9,24,0,0,1
52.73,5,1,2,13,20,0,2,1
52.735,1,1,0,29,38,2,4,4
52.74,1,3,1,13,15,3,2,3
52.745,3,2,2,7,10,3,3,1
52.75,0,2,4,3,10,1,1,1
52.755,0,5,0,2,5,4,3,2
52.76,1,7,2,2,3,0,1,1
52.765,0,4,2,5,13,2,1,2
52.77,2,0,1,9,26,1,1,0
52.775,2,9,2,5,12,1,2,0
52.78,1,10,1,15,8,7,6,6
52.785,1,3,1,0,17,1,0,1
52.79,1,3,4,4,13,1,0,4
52.795,1,0,2,7,21,1,0,2
52.8,3,3,4,7,28,1,1,2
52.805,5,0,3,22,47,5,0,1
52.81,0,2,0,17,2,2,2,1
52.815,2,2,1,20,15,2,0,1
52.82,0,2,1,24,10,1,1,1
52.825,1,0,4,5,17,8,3,2
52.83,2,4,5,18,54,6,3,3
52.835,2,3,0,34,24,2,2,4
52.84,1,1,1,11,6,1,1,1
52.845,1,2,0,14,47,6,0,1
52.85,1,1,1,9,4,2,0,1
52.855,3,2,3,1,11,2,1,3
52.86,2,1,2,8,11,5,2,1
52.865,1,3,1,5,16,1,3,1
52.87,0,0,2,5,1,0,3,0
52.875,0,0,0,6,22,2,2,6
52.88,2,3,3,2,12,1,2,2
52.885,2,0,0,7,24,6,0,3
52.89,1,1,4,2,2,1,0,2
52.895,1,1,4,4,5,4,3,3
52.9,0,1,3,13,16,2,1,0
52.905,3,2,2,7,29,4,1,2
52.91,2,0,2,19,58,2,2,1
52.915,0,1,3,10,51,3,3,3
52.92,2,1,0,4,2,1,2,0
52.925,2,1,3,8,4,7,1,2
52.93,2,0,1,8,24,0,2,1
52.935,2,4,7,1,12,2,1,3
52.94,2,1,0,2,9,1,1,3
52.945,2,1,0,0,2,2,1,1
52.95,1,0,0,1,14,3,3,0
52.955,2,2,1,4,17,5,2,1
52.96,2,3,3,2,21,1,2,0
52.965,1,0,3,6,26,2,1,2
52.97,3,3,9,19,16,5,3,2
52.975,0,0,1,3,4,1,1,1
52.98,1,3,1,5,7,0,0,1
52.985,1,2,1,2,5,4,3,1
52.99,0,1,0,11,9,3,1,1
52.995,1,1,3,4,1,2,3,2
53,1,1,1,6,13,4,0,1
53.005,0,1,3,6,9,0,4,3
53.01,1,2,1,4,15,3,5,4
53.015,1,0,4,6,1,0,3,4
53.02,0,0,0,2,5,1,1,1
53.025,2,2,0,0,6,3,2,2
53.03,1,3,2,1,16,1,1,2
53.035,3,1,2,4,7,7,6,4
53.04,1,2,2,2,10,1,0,1
53.045,1,0,2,7,12,1,0,2
53.05,3,0,3,4,8,0,2,1
53.055,0,2,4,9,3,1,2,1
53.06,1,2,4,19,22,4,2,2
53.065,1,1,2,2,19,3,1,1
53.07,2,2,1,7,58,1,0,2
53.075,2,1,3,2,0,2,1,0
53.08,4,0,2,5,8,3,2,1
53.085,1,2,3,9,4,2,1,2
53.09,3,0,0,3,25,4,3,1
53.095,1,1,2,9,17,2,1,2
53.1,0,4,4,5,0,2,4,2
53.105,1,0,1,3,3,2,3,2
53.11,1,3,1,26,36,2,1,3
53.115,1,3,3,32,14,5,6,3
53.12,4,2,1,4,7,3,4,1
53.125,1,1,3,1,4,0,1,3
53.13,1,1,0,10,19,2,2,1
53.135,0,2,1,8,1,0,0,2
53.14,2,0,1,11,9,1,1,1
53.145,2,2,3,8,3,2,2,3
53.15,1,2,3,20,18,1,2,1
53.155,2,1,5,7,5,0,2,2
53.16,1,2,2,2,7,3,1,3
53.165,2,3,2,7,6,2,2,2
53.17,0,2,4,6,2,0,3,3
53.175,0,2,1,5,1,2,0,0
53.18,0,1,1,9,6,2,2,2
53.185,0,2,4,17,17,3,3,2
53.19,3,2,0,0,3,0,0,1
53.195,2,1,0,1,4,2,2,1
53.2,1,0,1,0,10,5,4,5
53.205,1,1,3,18,23,3,3,3
53.21,0,0,4,2,17,6,0,0
53.215,2,1,3,8,9,3,2,2
53.22,0,2,1,5,11,2,3,3
53.225,0,1,1,2,6,1,3,4
53.23,0,0,0,5,8,0,3,1
53.235,1,1,4,5,0,0,1,0
53.24,1,3,7,5,9,4,2,2
53.245,1,1,1,10,7,4,2,1
53.25,1,2,2,17,16,1,0,3
53.255,2,2,3,1,7,2,4,2
53.26,1,1,0,13,11,2,3,0
53.265,2,1,1,8,3,3,2,1
53.27,1,0,1,5,4,2,1,0
53.275,1,1,1,9,19,1,1,1
53.28,0,0,1,3,10,1,0,2
53.285,1,0,1,7,13,2,3,5
53.29,0,1,1,3,2,1,0,1
53.295,1,2,2,10,5,1,2,5
53.3,1,2,2,25,44,3,2,5
53.305,3,3,3,5,15,6,5,3
53.31,1,2,4,10,2,1,1,0
53.315,1,0,1,3,2,3,1,1
53.32,0,0,0,2,1,4,1,2
53.325,1,0,3,4,58,7,3,2
53.33,2,2,1,15,0,4,3,0
53.335,3,3,4,17,10,4,4,3
53.34,2,2,4,5,8,4,4,1
53.345,0,3,1,1,5,0,0,1
53.35,1,1,1,4,5,2,1,1
53.355,1,0,3,17,13,8,1,1
53.36,0,1,0,14,31,0,2,1
53.365,1,2,1,31,17,1,1,2
53.37,5,5,9,32,9,11,7,6
53.375,0,0,5,9,61,1,2,1
53.38,0,2,3,23,48,6,1,0
53.385,3,1,0,68,78,2,2,4
53.39,1,1,9,95,15,3,2,0
53.395,1,1,2,42,45,13,4,3
53.4,1,2,6,14,70,8,4,3
53.405,4,4,4,18,46,1,7,4
53.41,0,2,4,70,110,9,1,0
53.415,3,0,6,70,93,11,6,4
53.42,2,1,10,83,111,2,1,1
53.425,4,3,5,30,81,13,10,7
53.43,3,3,1,5,3,10,3,3
53.435,7,6,7,20,65,0,9,8
53.44,0,1,7,15,29,6,4,2
53.445,3,3,5,15,97,1,3,4
53.45,7,2,9,19,46,42,14,7
53.455,4,1,0,80,127,31,8,7
53.46,4,1,2,19,70,2,10,6
53.465,4,0,3,9,25,2,2,3
53.47,1,1,5,20,128,9,1,2
53.475,6,3,0,62,44,10,14,6
53.48,15,13,25,81,102,59,18,19
53.485,2,2,2,17,58,15,4,3
53.49,2,1,3,61,81,13,6,2
53.495,0,3,3,15,1,11,3,1
53.5,1,1,4,7,14,15,8,6
53.505,0,3,3,19,50,12,6,2
53.51,4,3,0,27,45,9,3,6
53.515,0,0,5,18,103,3,1,1
53.52,2,1,0,44,27,6,2,1
53.525,3,4,6,6,9,9,3,2
53.53,1,1,1,8,13,2,1,0
53.535,0,0,3,19,25,8,3,1
53.54,1,1,3,16,7,3,1,1
53.545,2,4,9,29,115,11,4,2
53.55,2,0,2,32,65,10,1,1
53.555,3,3,2,38,69,9,5,4
53.56,2,3,5,10,13,2,2,3
53.565,1,2,3,16,25,8,3,1
53.57,1,0,2,4,31,4,3,5
53.575,5,3,5,6,24,4,6,2
53.58,1,1,6,33,70,11,5,1
53.585,4,1,5,13,20,11,11,8
53.59,4,5,6,22,54,12,2,1
53.595,2,3,3,7,51,3,1,2
53.6,2,1,6,0,74,0,0,3
53.605,0,0,3,3,12,1,2,1
53.61,3,5,10,24,79,9,5,4
53.615,0,4,4,17,27,10,4,1
53.62,1,0,2,3,20,8,1,1
53.625,0,2,2,19,56,6,3,1
53.63,3,2,1,22,49,4,3,1
53.635,1,1,1,21,22,1,2,2
53.64,1,4,4,8,128,3,2,1
53.645,1,1,0,4,16,4,2,4
53.65,1,1,1,5,7,3,0,0
53.655,2,3,3,4,26,4,5,3
53.66,0,1,1,6,20,8,4,2
53.665,1,0,2,5,1,3,1,0
53.67,0,0,2,10,2,2,0,1
53.675,1,1,1,0,34,2,3,1
53.68,0,0,2,5,15,1,1,0
53.685,2,3,3,7,14,1,1,1
53.69,2,2,3,6,24,2,1,2
53.695,1,3,0,8,13,1,1,1
53.7,0,2,1,6,0,2,2,1
53.705,2,3,6,21,60,0,1,2
53.71,3,2,2,6,5,5,3,4
53.715,14,5,3,18,5,1,4,5
53.72,3,18,0,4,8,0,1,2
53.725,5,23,0,1,32,6,1,2
53.73,4,3,1,2,8,3,1,2
53.735,1,6,5,1,28,0,2,3
53.74,12,24,3,6,46,5,3,1
53.745,29,17,5,3,27,7,2,3
53.75,0,7,1,3,71,1,0,1
53.755,6,6,3,1,84,2,3,1
53.76,4,3,1,5,14,0,3,3
53.765,7,9,2,4,22,2,0,1
53.77,3,11,4,1,4,1,2,0
53.775,6,15,4,2,24,1,2,1
53.78,2,30,3,2,75,1,0,0
53.785,4,36,2,9,99,7,3,4
53.79,3,6,1,6,13,2,1,0
53.795,2,14,4,10,37,3,3,3
53.8,4,3,0,15,29,0,1,1
53.805,4,8,3,13,52,3,1,2
53.81,2,11,0,1,16,1,0,1
53.815,10,28,1,8,25,3,5,6
53.82,14,21,4,3,11,2,2,3
53.825,2,30,4,2,34,0,5,1
53.83,2,21,1,1,11,2,2,0
53.835,12,5,3,25,38,6,4,4
53.84,22,15,7,36,96,13,4,4
53.845,5,6,2,9,8,0,0,1
53.85,7,26,3,5,33,3,1,2
53.855,1,10,3,1,21,3,1,1
53.86,9,9,5,30,68,2,1,1
53.865,1,5,1,29,28,0,1,1
53.87,0,14,1,4,33,4,1,4
53.875,5,5,1,8,29,1,0,3
53.88,0,8,1,7,39,6,3,1
53.885,0,14,2,9,0,4,0,1
53.89,5,4,0,15,16,1,0,0
53.895,5,4,7,7,18,4,2,1
53.9,2,13,1,5,17,0,3,0
53.905,1,4,0,6,35,5,1,0
53.91,0,8,3,12,13,2,2,1
53.915,6,1,1,3,21,2,2,2
53.92,4,3,0,2,15,4,4,2
53.925,3,9,2,15,12,5,2,1
53.93,0,1,6,2,18,5,4,1
53.935,8,16,0,11,25,1,0,0
53.94,3,7,1,13,2,2,1,1
53.945,0,2,0,7,2,0,1,3
53.95,2,10,3,17,31,3,2,2
53.955,1,2,1,2,10,0,1,1
53.96,1,2,3,3,3,1,0,1
53.965,2,2,1,2,38,1,2,0
53.97,3,4,1,4,12,2,1,0
53.975,0,0,3,3,5,5,2,0
53.98,1,1,2,4,10,0,2,2
53.985,2,3,5,22,5,3,2,1
53.99,1,1,1,6,22,5,2,0
53.995,1,1,1,1,21,0,4,1
54,1,4,3,9,23,2,1,3
54.005,3,3,2,13,19,5,7,6
54.01,1,0,1,3,3,3,4,5
54.015,2,2,1,9,24,0,2,3
54.02,2,1,3,6,13,1,3,2
54.025,1,2,2,8,9,0,1,2
54.03,1,3,2,3,19,0,2,0
54.035,0,10,2,3,3,3,2,0
54.04,0,1,1,2,6,1,2,1
54.045,0,0,4,0,4,2,1,0
54.05,1,2,1,1,9,2,2,0
54.055,0,0,1,1,10,4,0,1
54.06,2,1,0,3,20,1,1,1
54.065,3,2,1,4,2,0,1,2
54.07,3,1,0,8,4,2,4,1
54.075,1,1,2,2,2,8,5,4
54.08,1,2,1,6,33,6,2,2
54.085,1,1,3,0,38,2,1,2
54.09,1,1,2,9,16,0,2,0
54.095,3,2,2,8,28,3,1,3
54.1,3,4,0,1,29,5,5,2
54.105,2,1,1,22,20,6,0,2
54.11,2,3,2,15,1,2,3,2
54.115,1,1,0,0,43,1,2,1
54.12,0,2,4,6,13,1,1,1
54.125,0,2,2,9,3,4,0,0
54.13,1,0,3,8,1,1,4,2
54.135,2,1,1,5,31,0,1,1
54.14,2,0,1,3,1,4,5,1
54.145,1,0,1,1,18,0,1,3
54.15,2,2,2,8,9,2,1,1
54.155,0,0,4,14,22,5,2,2
54.16,2,1,0,4,2,4,4,1
54.165,1,2,3,5,4,1,1,0
54.17,3,2,7,3,12,4,1,1
54.175,1,0,1,8,7,2,4,4
54.18,1,1,4,2,7,0,1,2
54.185,3,1,0,6,2,3,7,4
54.19,0,2,1,1,7,1,0,1
54.195,1,2,0,3,3,1,2,1
54.2,1,2,1,1,7,5,5,3
54.205,1,2,1,25,31,2,4,1
54.21,4,0,4,49,58,6,1,2
54.215,0,0,3,3,4,1,4,1
54.22,0,1,2,15,0,2,0,1
54.225,1,2,3,6,7,2,4,3
54.23,1,1,3,22,26,1,1,1
54.235,2,2,0,5,4,3,1,0
54.24,1,0,2,8,54,6,3,1
54.245,2,3,1,13,37,4,0,2
54.25,1,3,2,13,18,3,1,1
54.255,1,1,3,8,23,1,2,1
54.26,1,0,2,12,47,1,2,1
54.265,2,0,1,4,36,6,2,1
54.27,1,0,0,3,16,2,1,2
54.275,2,3,3,10,2,0,1,1
54.28,1,3,4,5,2,2,0,1
54.285,1,0,0,9,29,1,0,2
54.29,1,2,8,43,74,6,0,4
54.295,0,1,2,27,43,4,3,1
54.3,3,0,0,21,81,3,1,1
54.305,2,1,0,18,42,3,3,1
54.31,1,2,3,23,39,13,3,1
54.315,1,3,7,27,72,22,3,2
54.32,3,4,14,3,37,3,1,1
54.325,2,4,14,4,62,2,3,0
54.33,4,0,9,46,38,4,8,4
54.335,2,2,4,20,32,13,4,1
54.34,3,2,10,22,81,18,5,4
54.345,3,2,9,46,86,12,5,4
54.35,2,1,1,10,66,24,6,6
54.355,2,3,8,43,36,19,4,2
54.36,2,1,2,51,94,14,12,4
54.365,5,9,18,88,57,2,6,3
54.37,5,5,19,76,63,29,7,6
54.375,4,2,12,11,77,28,4,4
54.38,1,0,4,1,31,23,0,0
54.385,9,8,12,65,111,16,23,17
54.39,1,5,0,39,12,18,12,1
54.395,1,2,17,95,92,55,3,1
54.4,1,2,2,44,37,28,7,1
54.405,6,12,25,76,59,22,1,4
54.41,0,2,10,42,10,33,12,5
54.415,6,7,1,26,55,10,9,6
54.42,3,6,3,69,124,19,4,6
54.425,2,1,4,42,16,10,4,1
54.43,2,3,19,16,68,16,1,2
54.435,4,2,2,8,75,18,2,0
54.44,2,2,1,4,39,9,2,1
54.445,6,4,5,73,99,12,5,5
54.45,2,2,12,41,37,0,0,3
54.455,1,1,2,11,68,9,2,1
54.46,4,4,15,25,80,19,7,2
54.465,1,0,7,14,22,15,0,2
54.47,3,1,7,4,38,8,3,0
54.475,6,7,11,1,96,8,7,7
54.48,0,2,9,10,90,9,2,3
54.485,2,1,1,35,26,2,2,1
54.49,1,1,3,24,56,11,2,0
54.495,2,1,4,22,49,13,6,3
54.5,2,5,7,10,19,3,3,3
54.505,1,1,3,17,38,1,1,0
54.51,2,4,4,15,73,3,7,4
54.515,1,3,3,1,14,1,4,2
54.52,2,1,9,38,4,4,4,0
54.525,3,1,2,6,8,8,6,1
54.53,0,0,12,28,27,3,2,2
54.535,1,1,3,9,31,15,0,2
54.54,2,1,1,14,33,6,4,0
54.545,0,1,3,18,34,2,0,1
54.55,2,3,4,6,118,7,3,3
54.555,1,1,3,20,20,27,2,2
54.56,5,3,11,7,1,20,2,4
54.565,2,3,4,39,38,7,6,2
54.57,2,2,0,4,3,3,1,1
54.575,0,3,1,20,29,4,1,1
54.58,3,1,4,4,46,2,4,3
54.585,1,2,2,23,68,3,1,1
54.59,3,1,4,13,1,10,5,4
54.595,1,1,3,2,98,1,0,2
54.6,1,0,1,16,36,6,2,3
54.605,0,0,0,8,6,4,2,3
54.61,2,6,5,9,85,8,2,0
54.615,0,1,2,5,32,2,1,3
54.62,1,1,0,14,85,12,1,1
54.625,1,1,2,3,29,6,1,0
54.63,1,0,0,3,32,0,3,2
54.635,2,2,1,8,72,9,3,4
54.64,3,0,3,17,5,3,6,5
54.645,1,3,1,9,26,3,0,1
54.65,2,2,0,7,34,3,2,0
54.655,1,3,5,7,24,0,3,0
54.66,2,0,4,27,13,2,2,3
54.665,0,5,3,24,36,1,2,3
54.67,5,3,7,11,37,9,7,3
54.675,1,0,2,9,43,0,3,4
54.68,1,4,2,11,15,4,6,4
54.685,0,0,1,9,23,3,4,2
54.69,1,0,0,2,7,3,1,2
54.695,1,2,0,1,37,2,4,2
54.7,4,3,4,7,12,8,5,4
54.705,2,4,3,3,38,7,4,4
54.71,0,1,1,2,8,2,1,2
54.715,1,2,2,0,2,3,2,1
54.72,1,0,1,0,15,2,2,2
54.725,1,1,1,4,4,2,1,2
54.73,3,4,1,1,8,8,4,7
54.735,4,8,3,6,65,1,0,0
54.74,3,2,0,7,49,2,1,0
54.745,1,1,1,6,7,4,5,4
54.75,2,2,3,4,16,0,2,1
54.755,1,2,2,1,16,2,1,0
54.76,5,4,3,9,25,3,0,1
54.765,2,5,2,1,25,2,1,2
54.77,3,3,0,10,15,2,0,4
54.775,3,9,2,10,30,0,3,0
54.78,1,3,1,3,0,3,1,3
54.785,2,8,2,15,25,2,2,1
54.79,0,3,2,9,8,2,2,1
54.795,1,2,7,4,25,4,1,3
54.8,6,1,3,17,12,3,6,4
54.805,2,1,0,2,20,0,1,1
54.81,0,5,0,2,9,1,0,1
54.815,0,0,2,11,17,1,1,1
54.82,5,2,0,11,5,2,0,0
54.825,6,4,4,16,10,1,2,1
54.83,0,2,1,11,21,4,5,1
54.835,2,3,1,2,18,1,1,1
54.84,0,2,1,4,23,5,0,1
54.845,0,0,0,5,14,3,2,1
54.85,4,3,2,5,1,2,1,2
54.855,2,1,0,8,13,1,1,1
54.86,2,0,0,4,1,3,2,2
54.865,2,0,3,9,8,2,1,5
54.87,2,2,1,16,34,0,0,1
54.875,3,0,1,19,37,5,4,2
54.88,1,1,3,22,12,1,1,1
54.885,2,3,4,14,5,5,0,3
54.89,2,4,4,27,83,3,0,1
54.895,2,2,1,8,93,3,1,2
54.9,2,1,1,1,20,0,2,3
54.905,2,0,0,18,23,5,6,3
54.91,0,5,0,13,27,2,2,0
54.915,2,5,2,14,39,2,0,2
54.92,0,4,2,6,16,1,2,4
54.925,0,1,3,24,20,3,2,3
54.93,2,2,0,10,25,7,2,2
54.935,3,1,1,4,34,3,1,2
54.94,0,1,1,1,19,2,2,1
54.945,1,2,4,4,3,0,1,2
54.95,2,1,0,9,19,2,2,1
54.955,1,2,1,1,25,2,1,1
54.96,2,0,4,5,13,2,2,2
54.965,1,1,0,5,9,4,2,3
54.97,0,1,2,1,16,2,3,4
54.975,2,4,1,11,37,0,0,2
54.98,0,1,1,9,3,1,1,0
54.985,1,0,4,5,15,1,1,1
54.99,2,1,2,2,18,3,3,2
54.995,3,2,1,0,29,3,3,0
55,2,0,0,9,10,2,5,6
55.005,1,2,2,22,26,2,2,1
55.01,0,2,4,1,10,2,2,3
55.015,1,1,1,11,10,0,0,1
55.02,1,0,0,10,7,2,4,3
55.025,3,1,1,1,4,0,2,1
55.03,2,2,3,0,2,2,0,1
55.035,1,0,0,9,39,2,1,2
55.04,2,2,0,10,37,4,2,4
55.045,0,2,2,19,13,4,3,0
55.05,2,1,3,10,12,1,1,2
55.055,2,2,0,13,36,3,1,2
55.06,1,1,1,10,4,0,4,0
55.065,2,0,1,2,4,1,1,2
55.07,0,0,1,3,5,4,2,1
55.075,3,3,2,2,13,4,2,3
55.08,1,2,1,4,2,1,3,4
55.085,2,1,1,5,1,1,1,0
55.09,1,0,1,5,7,2,2,0
55.095,2,2,4,0,1,4,4,1
55.1,3,1,6,16,44,5,4,2
55.105,1,1,3,14,19,6,7,5
55.11,1,1,1,5,6,3,2,0
55.115,0,2,1,2,5,1,1,1
55.12,2,3,1,9,12,4,4,4
55.125,3,0,1,2,7,2,6,2
55.13,0,1,1,9,64,1,1,1
55.135,0,1,3,3,24,4,1,2
55.14,2,4,2,10,29,1,5,2
55.145,1,0,1,8,40,3,2,1
55.15,1,1,1,3,18,1,1,0
55.155,0,0,1,11,18,1,1,1
55.16,0,2,2,1,3,4,1,1
55.165,2,4,2,6,27,3,1,3
55.17,3,1,2,10,5,1,1,3
55.175,0,2,4,4,21,4,4,2
55.18,3,1,1,6,9,2,1,3
55.185,4,1,3,17,16,5,3,2
55.19,2,3,3,3,0,5,4,3
55.195,1,2,1,16,14,4,2,1
55.2,1,1,2,20,12,2,1,1
55.205,0,0,3,1,38,6,4,1
55.21,2,4,4,5,31,6,4,3
55.215,1,0,1,3,29,2,2,2
55.22,0,1,0,7,33,1,1,0
55.225,1,1,1,4,24,5,1,1
55.23,0,1,6,9,28,2,0,3
55.235,2,4,11,6,86,7,0,5
55.24,1,0,2,1,67,7,0,2
55.245,3,3,5,19,99,11,6,6
55.25,1,1,2,24,43,5,3,2
55.255,1,0,5,19,10,4,3,1
55.26,2,1,3,19,12,3,4,2
55.265,1,5,11,24,92,1,1,3
55.27,2,3,3,41,64,12,0,1
55.275,2,1,1,24,20,10,1,1
55.28,4,2,2,73,28,7,1,1
55.285,4,6,3,59,10,18,9,4
55.29,3,4,6,42,123,16,7,5
55.295,4,2,2,108,127,1,8,7
55.3,2,2,2,21,62,1,1,3
55.305,8,8,17,1,56,11,10,8
55.31,11,12,17,9,107,18,15,12
55.315,3,4,8,16,43,21,4,5
55.32,7,6,22,85,128,47,6,8
55.325,1,4,20,119,99,7,3,3
55.33,0,4,10,32,51,4,4,1
55.335,0,1,0,14,63,25,3,1
55.34,6,3,12,11,127,51,9,9
55.345,1,4,6,11,73,55,1,2
55.35,10,11,15,29,45,15,14,11
55.355,4,4,3,73,11,16,23,9
55.36,5,4,6,37,128,27,6,5
55.365,6,4,7,79,127,61,12,10
55.37,4,8,16,83,11,22,15,8
55.375,5,5,15,55,7,13,7,6
55.38,1,1,5,21,78,27,4,0
55.385,3,5,5,23,128,16,4,3
55.39,1,0,4,9,13,3,1,1
55.395,3,5,3,50,58,18,2,2
55.4,5,5,8,30,16,7,9,7
55.405,6,8,14,43,36,18,10,9
55.41,4,2,3,10,38,8,6,4
55.415,1,3,2,10,74,11,6,6
55.42,2,4,6,13,10,32,2,2
55.425,2,1,9,37,54,7,5,5
55.43,0,1,7,38,69,5,1,1
55.435,0,1,2,6,53,4,1,1
55.44,1,2,6,15,56,7,0,2
55.445,1,3,4,22,11,15,1,0
55.45,1,2,0,37,43,5,2,2
55.455,3,3,7,55,112,15,8,4
55.46,1,3,3,7,100,0,2,1
55.465,2,4,4,3,19,8,1,5
55.47,1,0,1,10,6,14,6,4
55.475,3,2,3,2,26,13,3,5
55.48,2,1,1,11,10,6,4,4
55.485,3,2,14,83,115,20,2,2
55.49,1,5,5,11,57,7,2,2
55.495,0,0,1,23,32,4,0,1
55.5,1,3,3,1,37,4,1,1
55.505,4,8,7,25,118,7,8,6
55.51,0,1,1,4,39,7,5,4
55.515,0,0,2,14,55,5,0,1
55.52,2,3,5,6,16,1,3,3
55.525,1,2,1,6,18,4,4,4
55.53,3,0,1,19,26,9,5,3
55.535,2,0,4,54,93,12,5,2
55.54,1,2,1,17,64,9,2,0
55.545,2,2,1,36,114,1,3,2
55.55,2,0,2,8,47,5,1,2
55.555,1,0,1,5,17,4,1,0
55.56,0,0,2,0,5,5,6,2
55.565,1,2,1,5,3,2,0,1
55.57,0,2,2,3,16,17,1,3
55.575,1,2,2,14,45,22,0,1
55.58,1,2,6,11,5,1,1,3
55.585,3,1,2,16,48,6,1,1
55.59,3,2,4,1,87,7,4,6
55.595,3,3,1,1,71,15,5,2
55.6,1,0,1,10,3,8,5,4
55.605,0,3,1,7,12,0,2,0
55.61,3,9,2,10,10,7,0,0
55.615,1,2,2,11,4,11,3,3
55.62,3,0,1,3,17,2,2,5
55.625,0,1,1,5,3,7,1,0
55.63,1,1,0,1,24,8,1,2
55.635,1,1,0,9,10,8,1,0
55.64,1,2,0,1,10,6,5,1
55.645,2,1,1,1,11,4,2,3
55.65,4,4,2,7,13,4,1,2
55.655,7,5,3,1,5,4,2,0
55.66,0,7,1,2,23,5,2,2
55.665,3,8,1,6,41,0,2,1
55.67,9,1,2,3,4,3,0,2
55.675,13,10,2,2,16,9,2,4
55.68,6,5,1,2,11,2,0,5
55.685,2,1,2,11,17,2,2,1
55.69,2,2,6,15,66,6,1,2
55.695,7,7,7,33,85,10,4,1
55.7,0,3,2,4,5,1,3,3
55.705,2,5,2,9,27,2,1,1
55.71,3,3,0,4,6,1,1,0
55.715,4,2,0,1,17,3,0,3
55.72,2,0,1,6,11,0,0,2
55.725,4,6,1,2,13,1,2,0
55.73,2,5,2,10,9,6,4,2
55.735,0,3,1,5,3,9,5,1
55.74,2,4,2,8,17,7,1,2
55.745,1,2,3,7,9,2,2,0
55.75,3,1,0,3,3,3,1,3
55.755,4,3,1,3,3,0,2,1
55.76,2,1,2,7,6,7,3,2
55.765,2,1,1,1,62,0,2,1
55.77,2,3,4,15,96,6,3,1
55.775,1,3,1,3,10,2,2,1
55.78,2,1,5,13,4,1,0,1
55.785,0,1,2,30,41,3,0,1
55.79,3,6,7,27,16,8,4,1
55.795,4,2,4,23,33,2,1,0
55.8,0,6,1,16,19,9,4,2
55.805,1,7,3,19,36,1,1,0
55.81,2,2,1,9,30,1,1,3
55.815,2,2,2,3,28,4,3,4
55.82,1,2,3,4,9,4,1,1
55.825,3,3,1,14,24,2,0,1
55.83,2,1,0,12,13,2,0,1
55.835,1,2,2,7,20,1,1,1
55.84,3,5,3,3,9,5,3,3
55.845,2,2,4,2,3,1,2,2
55.85,1,3,2,11,4,1,1,2
55.855,2,1,1,9,14,0,4,4
55.86,1,3,2,4,4,2,2,2
55.865,1,1,0,3,8,0,2,1
55.87,1,0,2,2,3,1,1,2
55.875,2,3,1,1,0,3,1,0
55.88,1,0,0,5,2,1,4,1
55.885,0,0,2,1,4,2,2,2
55.89,3,2,1,10,6,1,1,0
55.895,3,0,1,19,7,11,6,4
55.9,2,0,2,3,4,3,1,2
55.905,1,1,2,0,7,2,4,2
55.91,3,1,1,3,8,2,2,5
55.915,1,1,0,8,7,4,2,0
55.92,0,1,2,8,7,0,1,2
55.925,1,1,1,0,1,1,1,1
55.93,1,1,0,2,4,1,1,1
55.935,1,3,2,2,1,3,2,5
55.94,0,2,2,2,6,1,1,3
55.945,1,1,1,0,11,4,4,1
55.95,1,1,2,7,7,0,3,1
55.955,1,1,2,2,14,1,3,2
55.96,4,5,7,38,59,8,2,4
55.965,1,2,1,2,2,9,3,3
55.97,2,4,6,1,13,3,1,2
55.975,1,1,0,15,24,4,7,4
55.98,2,1,2,9,23,0,4,3
55.985,1,2,3,7,22,5,2,0
55.99,0,1,1,2,5,1,3,1
55.995,2,1,2,6,22,0,2,3
56,3,2,2,2,3,10,7,5
56.005,1,3,5,9,47,5,1,5
56.01,2,3,2,4,16,2,2,3
56.015,1,1,1,12,3,7,4,3
56.02,1,0,1,9,18,2,3,4
56.025,3,2,3,2,11,2,1,1
56.03,0,0,1,9,10,2,0,1
56.035,3,2,3,2,9,2,5,3
56.04,1,0,2,0,8,1,2,0
56.045,0,0,1,2,1,3,1,1
56.05,0,1,2,5,3,2,0,1
56.055,1,2,0,10,7,2,0,1
56.06,1,0,2,5,2,3,1,1
56.065,1,1,1,1,9,4,1,1
56.07,1,1,0,1,0,1,2,0
56.075,2,1,2,2,1,0,0,3
56.08,1,4,3,6,9,4,0,1
56.085,0,2,4,4,4,2,0,1
56.09,1,0,1,2,9,1,1,1
56.095,0,1,3,10,15,1,2,2
56.1,2,2,6,25,31,6,4,4
56.105,0,1,1,2,34,2,3,1
56.11,1,1,2,11,28,3,0,1
56.115,2,2,2,5,5,3,2,1
56.12,1,1,3,18,20,1,1,2
56.125,0,1,0,4,4,1,1,1
56.13,1,1,2,4,0,3,1,1
56.135,2,0,2,5,10,1,2,2
56.14,4,3,2,5,58,0,2,2
56.145,4,3,4,16,62,10,5,5
56.15,0,2,2,8,10,0,3,2
56.155,0,1,1,5,5,1,2,0
56.16,1,0,1,2,4,3,1,1
56.165,0,1,0,10,33,2,1,2
56.17,3,2,0,9,7,0,0,4
56.175,2,1,4,6,19,1,1,3
56.18,0,2,0,5,6,3,1,0
56.185,2,3,2,0,11,0,2,1
56.19,1,2,1,2,11,3,4,1
56.195,3,2,4,7,7,2,1,0
56.2,2,0,1,10,5,5,1,2
56.205,0,0,1,7,19,1,1,2
56.21,1,2,8,67,78,8,3,3
56.215,1,3,3,15,27,1,3,2
56.22,1,1,0,0,2,5,2,0
56.225,1,0,0,1,8,3,0,0
56.23,1,2,1,19,24,1,0,1
56.235,1,1,3,22,5,4,1,2
56.24,1,1,2,5,14,1,1,2
56.245,2,2,3,17,20,6,2,0
56.25,1,1,1,16,15,2,1,1
56.255,0,4,10,10,21,0,1,3
56.26,0,1,1,7,23,2,4,2
56.265,1,1,1,5,3,2,3,0
56.27,0,0,1,5,3,0,2,1
56.275,0,1,2,2,16,3,2,0
56.28,3,1,2,11,7,4,3,3
56.285,0,2,1,7,7,0,0,1
56.29,3,0,2,0,2,0,1,1
56.295,0,1,3,6,25,0,1,0
56.3,1,3,3,4,24,1,1,1
56.305,1,1,2,5,21,2,2,1
56.31,1,1,2,6,5,1,1,0
56.315,1,0,1,5,7,4,4,1
56.32,2,0,2,2,18,3,3,2
56.325,2,1,0,5,46,2,2,3
56.33,0,1,1,1,15,3,1,3
56.335,3,0,1,9,24,5,3,2
56.34,2,0,1,8,7,4,3,3
56.345,2,1,4,24,50,4,0,0
56.35,2,4,11,4,76,4,2,1
56.355,2,1,9,38,96,9,2,1
56.36,2,4,12,27,55,8,2,1
56.365,4,3,6,12,71,17,3,4
56.37,7,7,9,23,54,1,11,6
56.375,3,5,3,11,44,6,5,5
56.38,6,5,6,18,49,5,8,7
56.385,3,4,5,44,82,4,2,5
56.39,0,3,1,32,52,11,3,2
56.395,1,3,11,100,87,7,3,1
56.4,1,1,0,34,26,6,4,2
56.405,2,3,8,22,30,8,0,1
56.41,2,3,7,48,34,10,2,3
56.415,9,14,23,30,13,40,15,10
56.42,9,4,33,32,98,16,14,9
56.425,10,12,16,46,98,5,12,15
56.43,12,22,36,23,89,28,17,13
56.435,9,17,33,47,77,22,16,13
56.44,5,2,25,5,53,5,7,6
56.445,11,5,15,3,84,37,19,16
56.45,13,15,33,91,100,66,16,16
56.455,0,8,26,69,65,9,4,4
56.46,0,1,16,22,15,4,2,1
56.465,3,4,3,13,88,12,3,3
56.47,4,6,18,10,30,8,4,4
56.475,4,0,7,56,1,32,3,4
56.48,5,14,27,41,57,9,6,4
56.485,0,2,8,42,48,6,1,1
56.49,1,1,1,10,66,13,0,0
56.495,1,1,11,18,13,18,2,1
56.5,7,8,14,48,110,47,17,11
56.505,3,3,7,42,4,26,6,5
56.51,3,10,55,27,65,8,3,3
56.515,1,1,3,16,56,9,0,2
56.52,6,6,15,24,73,5,11,7
56.525,5,8,7,12,64,10,7,6
56.53,0,1,7,4,61,1,1,3
56.535,2,2,5,0,34,14,1,4
56.54,4,4,3,18,34,0,4,3
56.545,1,3,3,30,29,31,5,3
56.55,0,2,10,7,104,14,4,2
56.555,1,3,3,5,1,6,6,0
56.56,3,2,4,23,43,6,6,5
56.565,1,1,5,24,79,5,3,0
56.57,1,0,12,13,56,4,1,2
56.575,2,2,2,16,29,7,2,1
56.58,4,2,3,5,24,13,7,7
56.585,3,2,4,1,2,12,6,1
56.59,3,3,1,11,91,9,2,4
56.595,1,0,9,37,52,2,2,0
56.6,4,5,9,11,12,7,5,4
56.605,3,2,0,6,20,1,3,4
56.61,1,0,4,27,62,10,1,1
56.615,1,1,3,2,19,1,1,0
56.62,0,2,2,1,16,11,1,1
56.625,2,2,3,13,34,2,5,1
56.63,1,2,4,18,58,18,11,5
56.635,9,7,14,9,71,12,9,8
56.64,1,0,1,10,47,1,2,0
56.645,1,1,3,5,17,10,3,1
56.65,2,1,3,28,34,1,0,2
56.655,1,0,1,20,9,1,1,2
56.66,2,3,1,5,3,10,4,2
56.665,2,0,1,5,23,2,3,4
56.67,1,2,2,1,45,2,1,1
56.675,1,0,1,17,86,8,4,2
56.68,4,2,4,10,0,3,1,1
56.685,0,0,16,17,39,1,3,3
56.69,2,0,4,4,32,2,5,4
56.695,0,1,3,6,18,5,0,0
56.7,1,1,1,17,65,1,1,0
56.705,0,2,3,4,28,1,2,0
56.71,2,1,1,10,0,3,1,2
56.715,1,1,3,1,5,7,1,1
56.72,2,0,6,3,10,4,1,1
56.725,2,1,2,15,60,2,1,1
56.73,5,2,4,13,37,9,11,6
56.735,2,1,1,21,11,1,1,1
56.74,0,1,4,6,28,2,4,2
56.745,0,0,0,0,28,2,1,1
56.75,2,2,5,9,16,5,3,3
56.755,1,1,1,9,10,4,3,1
56.76,1,1,3,19,6,8,5,4
56.765,0,1,2,4,5,4,3,0
56.77,2,5,3,37,54,5,1,3
56.775,1,1,3,16,21,2,0,0
56.78,1,0,1,10,10,4,2,1
56.785,2,3,2,11,19,3,1,2
56.79,1,0,2,11,2,0,3,2
56.795,1,1,1,1,6,0,0,0
56.8,1,3,5,3,12,1,2,1
56.805,2,1,2,6,5,1,0,1
56.81,2,4,1,9,8,1,1,2
56.815,1,0,3,9,14,4,2,4
56.82,0,2,2,7,10,3,2,3
56.825,1,1,3,14,12,1,5,1
56.83,1,0,1,4,9,3,5,1
56.835,1,1,1,0,5,0,1,0
56.84,0,10,2,6,15,5,4,1
56.845,0,0,1,11,24,3,0,0
56.85,0,5,6,10,47,3,1,1
56.855,4,1,1,3,0,0,1,1
56.86,1,5,0,3,11,2,0,0
56.865,3,6,2,2,12,4,2,1
56.87,1,1,3,27,43,0,2,1
56.875,2,3,3,28,3,3,1,2
56.88,4,3,4,2,43,5,2,2
56.885,1,1,3,4,18,1,1,3
56.89,1,1,2,7,2,3,3,1
56.895,0,1,3,6,9,1,4,3
56.9,0,2,4,5,7,5,1,3
56.905,1,1,2,7,8,2,1,1
56.91,1,0,2,13,10,1,0,1
56.915,3,3,6,1,26,2,1,3
56.92,0,0,2,5,7,4,2,2
56.925,3,1,3,1,0,6,4,5
56.93,1,0,2,4,16,3,2,1
56.935,0,1,6,17,17,1,0,1
56.94,3,3,3,16,43,12,5,1
56.945,1,2,1,6,4,5,0,2
56.95,3,1,2,13,29,1,1,1
56.955,2,1,2,29,81,8,3,2
56.96,2,1,2,6,65,0,2,3
56.965,1,1,5,21,33,1,2,4
56.97,2,2,3,6,11,5,3,2
56.975,1,0,2,11,21,4,2,0
56.98,2,1,3,5,6,0,2,0
56.985,1,0,1,1,14,3,1,1
56.99,3,2,2,3,9,1,5,1
56.995,0,2,0,8,11,1,1,2
57,1,1,0,12,30,2,1,0
57.005,3,2,1,22,34,2,0,1
57.01,0,1,3,6,16,0,2,4
57.015,2,2,2,26,79,4,1,5
57.02,1,0,2,4,1,2,1,1
57.025,2,0,1,0,7,0,0,1
57.03,0,0,0,1,8,4,3,2
57.035,2,1,2,10,25,4,6,4
57.04,1,2,2,15,1,1,3,0
57.045,1,13,3,18,13,4,5,2
57.05,0,0,1,21,7,3,4,2
57.055,2,2,1,2,18,2,0,1
57.06,2,1,0,7,9,2,5,4
57.065,3,1,2,2,8,8,4,2
57.07,2,1,0,3,4,2,3,0
57.075,1,5,1,3,13,0,1,1
57.08,1,1,3,4,8,1,1,1
57.085,1,0,3,1,1,2,2,1
57.09,2,2,2,10,25,1,0,1
57.095,1,1,0,9,8,1,2,0
57.1,1,3,1,16,1,1,2,2
57.105,2,0,3,12,17,7,2,2
57.11,2,4,8,10,21,1,2,1
57.115,1,2,1,11,25,1,2,1
57.12,1,4,5,5,12,2,4,0
57.125,1,0,0,4,15,1,2,4
57.13,0,1,1,2,1,3,4,3
57.135,2,0,0,17,43,3,1,0
57.14,0,2,6,22,42,8,3,1
57.145,1,1,3,20,58,2,1,1
57.15,3,3,10,71,85,15,4,5
57.155,0,1,4,4,19,1,0,2
57.16,2,0,4,12,24,1,2,0
57.165,2,2,4,1,27,1,2,1
57.17,0,1,6,10,28,5,2,0
57.175,0,2,2,4,7,2,2,0
57.18,0,3,3,9,8,0,2,4
57.185,1,1,0,0,6,2,0,2
57.19,0,0,1,8,8,2,2,1
57.195,1,2,4,8,15,4,1,0
57.2,2,0,3,11,18,0,2,1
57.205,2,3,0,3,8,1,1,1
57.21,1,2,1,9,1,1,4,3
57.215,2,1,3,13,2,4,3,1
57.22,1,1,2,13,1,2,1,1
57.225,1,1,1,17,70,3,0,2
57.23,3,2,4,36,6,3,3,4
57.235,1,1,2,7,24,3,2,1
57.24,2,2,1,5,1,4,2,3
57.245,1,2,0,12,2,3,1,0
57.25,2,1,3,32,9,3,1,1
57.255,1,0,5,2,66,0,1,3
57.26,0,1,6,37,26,6,1,0
57.265,2,2,3,27,4,7,6,4
57.27,1,1,1,14,6,1,0,1
57.275,1,1,1,13,26,1,1,4
57.28,0,1,3,18,10,5,4,1
57.285,0,1,4,2,26,1,0,0
57.29,2,2,2,5,6,3,3,4
57.295,1,1,3,14,46,3,3,2
57.3,1,1,0,2,52,1,0,0
57.305,1,1,1,16,94,2,2,1
57.31,2,2,4,18,89,1,3,0
57.315,1,1,1,1,1,5,1,1
57.32,3,4,5,5,0,9,7,6
57.325,1,0,7,42,62,8,0,0
57.33,0,0,3,46,97,4,4,1
57.335,2,1,2,18,24,2,2,4
57.34,1,3,6,3,35,5,3,2
57.345,4,2,5,5,66,11,4,5
57.35,3,4,9,9,71,5,2,2
57.355,1,5,6,23,89,7,2,1
57.36,3,4,3,22,70,3,3,1
57.365,1,3,7,18,45,8,1,2
57.37,2,5,12,43,83,9,1,2
57.375,2,0,5,25,53,14,3,1
57.38,3,6,17,57,112,7,1,1
57.385,3,5,2,13,53,20,6,5
57.39,5,6,10,23,28,28,14,9
57.395,1,2,4,43,123,4,2,1
57.4,6,4,3,3,114,14,12,5
57.405,2,2,9,20,60,6,7,3
57.41,1,1,0,35,69,6,3,3
57.415,5,2,2,2,62,3,2,3
57.42,5,3,7,20,35,20,8,8
57.425,2,6,17,106,27,8,7,0
57.43,2,3,18,92,128,3,0,2
57.435,11,7,6,118,100,1,14,13
57.44,3,3,6,34,16,7,1,0
57.445,2,5,14,38,57,6,5,0
57.45,4,3,11,4,61,6,5,4
57.455,3,3,15,64,70,16,6,5
57.46,6,5,17,64,128,31,5,7
57.465,4,6,9,12,20,18,7,3
57.47,14,13,8,101,127,19,22,18
57.475,2,3,9,50,121,19,2,2
57.48,2,1,8,68,51,20,6,1
57.485,1,0,6,8,53,26,2,0
57.49,1,0,5,19,42,2,4,3
57.495,1,0,4,4,52,13,2,2
57.5,5,6,8,41,36,9,0,6
57.505,1,1,6,22,35,15,2,3
57.51,0,1,4,10,36,8,4,3
57.515,0,0,2,1,95,2,2,1
57.52,1,1,1,31,20,10,0,1
57.525,2,2,3,7,127,11,3,4
57.53,1,1,2,28,2,23,3,3
57.535,0,0,4,64,92,14,1,0
57.54,2,2,2,17,12,22,1,0
57.545,4,4,5,21,126,8,8,5
57.55,1,4,4,8,96,1,2,1
57.555,1,0,2,12,122,11,1,1
57.56,0,1,2,5,56,7,2,2
57.565,3,3,15,42,14,11,6,2
57.57,3,1,1,1,52,4,1,1
57.575,1,2,0,2,19,3,1,1
57.58,1,2,1,6,23,3,2,2
57.585,1,0,2,2,6,3,1,2
57.59,2,4,9,41,40,20,2,4
57.595,1,2,3,11,27,1,1,0
57.6,1,0,4,30,24,0,2,1
57.605,4,4,6,18,33,2,1,1
57.61,3,1,2,9,54,1,1,2
57.615,2,0,1,12,3,0,1,4
57.62,2,1,1,10,4,13,3,2
57.625,1,3,3,3,6,4,0,0
57.63,4,1,3,16,96,7,4,3
57.635,5,4,7,15,45,13,6,4
57.64,3,1,6,18,4,2,2,3
57.645,3,4,6,6,88,3,2,5
57.65,0,1,2,4,35,4,0,1
57.655,2,0,0,5,30,1,1,3
57.66,2,1,1,15,8,3,4,5
57.665,2,2,2,12,30,1,3,1
57.67,1,3,2,2,3,2,0,1
57.675,2,2,2,2,0,1,3,2
57.68,3,2,2,5,11,7,5,5
57.685,0,2,1,6,32,9,5,4
57.69,2,0,4,27,8,7,6,1
57.695,0,0,3,26,18,5,0,2
57.7,2,3,4,13,29,1,2,1
57.705,5,1,2,4,8,9,8,5
57.71,4,3,3,1,7,5,6,5
57.715,2,3,2,13,13,0,2,1
57.72,1,1,2,1,4,3,1,2
57.725,1,2,1,1,41,0,1,1
57.73,2,0,1,3,48,2,4,0
57.735,1,1,2,15,23,9,4,0
57.74,1,2,4,8,4,3,3,1
57.745,1,5,1,7,11,1,2,3
57.75,1,10,2,3,12,4,2,3
57.755,1,0,1,3,2,1,1,0
57.76,1,1,3,4,7,3,2,0
57.765,0,1,1,3,5,1,2,0
57.77,3,2,4,4,1,3,5,4
57.775,0,1,0,1,5,0,1,0
57.78,1,2,1,2,9,1,1,0
57.785,4,2,0,4,4,2,0,1
57.79,0,1,2,4,16,1,2,2
57.795,0,3,2,7,43,2,2,1
57.8,1,2,1,1,5,3,4,3
57.805,1,3,2,3,10,0,1,0
57.81,0,0,1,4,3,0,1,1
57.815,1,1,2,2,5,1,0,1
57.82,2,3,2,11,27,4,0,0
57.825,1,0,1,11,7,1,0,2
57.83,2,0,2,7,52,4,2,2
57.835,4,1,3,10,54,7,6,6
57.84,1,1,2,1,8,5,3,3
57.845,0,3,1,11,28,1,1,2
57.85,1,0,0,2,8,1,0,1
57.855,2,1,0,11,25,1,0,1
57.86,1,1,3,0,7,5,1,0
57.865,0,1,2,13,21,2,0,1
57.87,1,0,0,3,12,1,1,2
57.875,0,0,1,6,10,2,3,1
57.88,2,1,1,4,8,2,2,2
57.885,1,2,2,5,3,1,0,1
57.89,2,0,3,10,9,2,0,0
57.895,1,1,2,6,3,3,2,2
57.9,1,1,3,8,3,1,1,0
57.905,1,2,0,20,29,0,3,4
57.91,3,2,0,35,56,6,4,3
57.915,1,1,1,12,5,2,2,4
57.92,0,0,1,2,14,2,2,1
57.925,1,2,2,18,6,0,2,1
57.93,2,0,2,2,15,2,1,1
57.935,1,2,2,11,9,0,1,1
57.94,2,1,3,8,1,2,0,4
57.945,3,2,2,38,99,7,2,3
57.95,1,3,2,13,35,4,0,1
57.955,0,1,0,6,7,1,0,3
57.96,0,1,1,20,56,2,1,0
57.965,1,2,4,33,51,7,3,0
57.97,1,1,3,2,7,1,3,0
57.975,3,2,2,12,4,2,1,1
57.98,1,1,1,3,6,2,2,2
57.985,0,0,1,7,26,4,3,2
57.99,1,0,3,3,12,7,2,1
57.995,1,1,1,7,5,0,0,2
58,0,3,0,7,12,1,1,3
58.005,1,1,2,6,10,2,2,1
58.01,1,2,2,4,5,2,0,4
58.015,2,1,1,12,16,2,3,2
58.02,1,2,4,10,29,3,3,0
58.025,2,0,1,12,19,4,1,2
58.03,0,0,1,2,11,0,2,0
58.035,2,1,1,6,4,2,0,2
58.04,0,0,1,17,14,2,0,3
58.045,1,1,1,10,14,1,2,2
58.05,1,3,3,2,6,3,1,1
58.055,2,3,1,6,3,2,1,0
58.06,1,2,1,4,1,1,1,0
58.065,3,1,0,6,23,2,1,1
58.07,2,1,8,4,3,3,0,3
58.075,4,0,3,9,45,4,2,3
58.08,1,4,2,9,21,1,1,0
58.085,1,0,1,11,14,1,1,1
58.09,3,3,1,24,30,0,2,1
58.095,1,0,3,27,41,3,0,1
58.1,2,0,4,10,1,1,0,1
58.105,1,1,1,3,30,0,1,0
58.11,0,2,0,5,10,0,0,1
58.115,1,3,1,7,12,1,0,2
58.12,2,1,3,11,8,2,0,0
58.125,1,2,2,19,7,4,2,0
58.13,1,1,3,3,0,5,2,1
58.135,3,2,2,4,11,1,1,5
58.14,2,0,0,3,18,0,1,3
58.145,1,1,1,7,6,1,6,4
58.15,2,2,0,6,3,2,3,3
58.155,0,1,1,1,12,2,2,2
58.16,0,1,0,10,39,1,0,1
58.165,2,1,5,11,83,3,0,1
58.17,0,1,2,20,19,2,1,0
58.175,1,1,1,6,11,1,3,4
58.18,1,1,0,8,7,1,2,0
58.185,2,3,2,4,16,1,1,2
58.19,2,0,0,0,14,4,2,2
58.195,1,0,1,5,6,3,2,1
58.2,3,1,2,6,15,1,0,1
58.205,0,2,1,6,3,1,0,0
58.21,0,1,1,1,11,2,1,1
58.215,2,0,1,0,6,1,1,1
58.22,0,1,0,0,7,0,0,3
58.225,2,0,0,1,5,1,1,1
58.23,1,1,0,1,3,0,1,2
58.235,3,2,1,0,0,2,1,2
58.24,2,1,1,4,12,2,2,3
58.245,2,0,1,11,19,1,1,2
58.25,1,0,2,20,2,5,3,3
58.255,3,3,6,5,17,0,1,0
58.26,1,2,2,2,7,3,2,0
58.265,2,2,0,9,19,4,5,5
58.27,1,0,1,9,8,0,0,2
58.275,0,0,1,4,7,1,1,1
58.28,2,3,3,5,5,2,5,5
58.285,1,3,2,0,2,2,3,1
58.29,1,1,0,3,3,1,0,1
58.295,1,2,1,12,21,4,2,1
58.3,1,1,0,9,14,5,2,2
58.305,1,0,5,16,45,3,2,3
58.31,2,4,5,1,6,2,4,2
58.315,2,2,3,2,6,3,4,1
58.32,1,1,0,2,2,2,2,2
58.325,0,1,1,1,7,5,2,2
58.33,2,1,2,3,6,1,4,0
58.335,1,2,2,2,2,1,4,2
58.34,1,2,2,5,7,3,3,0
58.345,4,0,2,9,16,0,1,2
58.35,2,1,3,11,9,1,4,3
58.355,1,1,2,8,22,5,1,2
58.36,2,2,1,0,1,0,1,1
58.365,2,1,1,2,11,6,4,5
58.37,2,3,0,6,2,2,3,1
58.375,2,1,0,2,8,4,1,2
58.38,1,2,0,0,5,2,1,1
58.385,1,1,1,7,1,3,2,1
58.39,0,1,0,17,0,5,2,3
58.395,1,1,2,5,11,5,2,3
58.4,2,0,2,7,3,5,0,1
58.405,1,2,1,3,5,1,1,0
58.41,1,1,0,5,0,2,2,4
58.415,1,2,0,12,3,5,2,3
58.42,2,2,3,5,8,2,3,1
58.425,1,2,0,6,7,1,0,0
58.43,1,0,1,11,4,0,0,0
58.435,3,3,6,31,24,5,1,0
58.44,1,3,0,2,6,1,2,2
58.445,0,1,1,2,6,4,2,2
58.45,3,0,1,3,6,0,1,2
58.455,1,1,2,12,12,2,2,1
58.46,2,1,1,5,2,0,1,4
58.465,3,4,10,0,10,1,1,1
58.47,1,0,0,1,4,2,2,0
58.475,0,1,1,5,29,3,1,0
58.48,3,2,3,6,37,4,2,3
58.485,1,3,5,54,51,7,5,3
58.49,1,3,1,3,9,3,4,1
58.495,1,0,0,5,1,1,0,0
58.5,3,0,0,4,7,1,2,1
58.505,0,1,2,9,11,2,0,4
58.51,1,0,3,4,11,3,3,0
58.515,0,1,1,2,5,1,2,0
58.52,0,0,1,5,18,3,0,2
58.525,2,2,1,2,3,2,2,4
58.53,0,4,3,2,1,2,0,0
58.535,1,2,3,3,4,4,3,4
58.54,0,1,0,5,3,2,2,0
58.545,1,2,3,4,4,1,1,4
58.55,1,2,1,1,7,3,1,2
58.555,1,1,1,0,4,2,2,2
58.56,1,3,2,2,8,3,0,2
58.565,1,0,1,2,10,0,2,0
58.57,1,1,0,2,2,2,0,3
58.575,2,1,0,1,2,4,3,2
58.58,1,1,2,2,0,0,2,2
58.585,1,0,2,10,26,0,1,0
58.59,2,1,4,7,10,3,3,1
58.595,1,1,1,8,1,0,1,3
58.6,2,2,1,14,2,1,0,1
58.605,1,0,0,13,11,1,0,1
58.61,2,2,2,5,7,2,1,1
58.615,1,1,1,7,3,6,0,0
58.62,3,2,2,8,0,3,1,0
58.625,0,0,1,7,7,2,1,3
58.63,2,1,1,5,14,3,4,0
58.635,2,2,2,8,20,2,1,0
58.64,0,1,0,4,6,2,2,0
58.645,3,1,2,1,4,1,2,3
58.65,0,3,1,0,0,0,0,3
58.655,1,1,2,0,3,2,0,2
58.66,1,1,1,0,3,1,0,1
58.665,2,0,1,1,2,1,0,0
58.67,0,0,1,1,5,3,2,0
58.675,0,1,2,1,8,2,0,1
58.68,2,2,1,5,3,2,1,1
58.685,2,1,3,0,1,4,3,2
58.69,1,2,4,6,5,4,2,0
58.695,0,3,6,13,0,4,0,2
58.7,1,2,1,7,3,2,2,2
58.705,2,4,4,2,5,4,3,0
58.71,1,0,3,14,40,2,1,0
58.715,0,1,3,8,22,3,1,1
58.72,2,3,8,31,17,3,2,2
58.725,2,1,3,5,9,5,5,2
58.73,1,1,3,0,2,6,2,0
58.735,2,3,6,29,83,12,5,2
58.74,2,2,9,36,47,9,5,5
58.745,5,7,5,38,62,10,7,8
58.75,1,3,3,2,25,5,3,0
58.755,2,1,31,78,87,22,6,7
58.76,2,6,12,21,3,5,8,5
58.765,2,4,11,9,97,6,1,2
58.77,6,5,9,23,123,24,14,12
58.775,2,0,19,47,56,15,1,4
58.78,5,3,7,106,127,19,7,7
58.785,3,5,25,99,126,25,10,5
58.79,5,6,20,96,108,17,6,5
58.795,8,13,36,120,13,30,10,8
58.8,3,3,0,43,6,9,6,6
58.805,10,6,20,98,43,40,14,9
58.81,5,3,6,72,31,20,9,7
58.815,3,1,7,3,18,20,9,3
58.82,1,4,8,64,85,2,3,1
58.825,0,3,18,22,93,22,1,2
58.83,1,5,46,20,74,4,3,3
58.835,0,6,17,26,97,21,2,4
58.84,7,5,3,53,128,30,13,10
58.845,3,2,13,40,127,14,2,4
58.85,2,2,10,19,68,2,2,2
58.855,1,3,12,8,44,23,5,1
58.86,1,2,11,11,69,28,1,1
58.865,3,5,40,30,9,14,2,1
58.87,2,1,23,35,102,10,10,2
58.875,4,8,18,12,95,33,1,7
58.88,0,0,16,0,49,38,8,3
58.885,2,8,35,20,73,14,4,1
58.89,2,4,9,54,5,19,1,4
58.895,2,2,10,3,52,2,8,1
58.9,2,3,13,5,6,4,1,3
58.905,2,2,11,22,117,19,1,3
58.91,3,1,5,24,3,4,3,0
58.915,2,4,5,7,68,16,4,3
58.92,1,1,4,5,99,13,1,0
58.925,1,0,11,18,127,6,2,1
58.93,1,0,0,16,123,5,1,3
58.935,1,0,2,30,104,19,6,2
58.94,5,1,3,2,4,19,9,6
58.945,0,2,17,4,17,2,0,1
58.95,2,3,3,27,121,3,3,5
58.955,1,1,7,28,54,9,1,0
58.96,2,3,5,2,27,16,8,5
58.965,3,1,10,10,35,3,1,2
58.97,1,3,2,25,14,10,4,0
58.975,1,2,4,1,13,14,0,2
58.98,3,4,11,2,9,8,3,1
58.985,3,1,11,43,43,6,1,0
58.99,1,4,5,16,83,1,1,2
58.995,2,0,5,9,29,4,3,2
59,0,0,1,7,23,4,3,2
59.005,2,5,16,10,51,18,2,1
59.01,4,3,1,31,8,25,2,3
59.015,4,4,6,7,36,20,8,8
59.02,0,7,40,25,26,3,3,2
59.025,4,7,6,21,13,4,2,2
59.03,0,2,7,0,6,9,3,3
59.035,1,1,2,1,29,4,0,0
59.04,3,0,1,15,16,4,1,2
59.045,1,0,6,7,21,2,2,2
59.05,1,0,4,14,7,4,2,2
59.055,2,2,1,39,74,4,2,2
59.06,0,5,19,1,94,10,3,0
59.065,0,2,2,4,82,12,0,2
59.07,1,2,4,23,18,13,3,4
59.075,0,1,2,0,41,0,2,0
59.08,1,3,13,11,2,2,1,1
59.085,2,1,3,4,17,2,0,1
59.09,2,3,8,2,2,1,1,1
59.095,0,1,1,1,5,2,2,1
59.1,1,2,6,19,0,4,0,1
59.105,1,3,1,17,5,4,3,4
59.11,1,1,2,17,61,6,0,0
59.115,3,1,6,4,5,1,0,2
59.12,1,2,11,9,18,3,4,1
59.125,2,1,2,7,11,3,2,1
59.13,0,2,2,11,8,0,1,2
59.135,1,2,2,2,7,4,1,2
59.14,4,2,1,6,14,1,5,4
59.145,2,1,3,10,24,8,2,1
59.15,1,1,0,4,7,2,0,0
59.155,1,1,1,8,12,3,1,1
59.16,0,1,2,15,75,7,1,3
59.165,1,3,5,10,5,2,1,0
59.17,0,1,2,6,33,2,2,2
59.175,0,2,1,3,21,4,3,1
59.18,1,1,5,0,11,4,2,1
59.185,3,1,4,45,43,6,2,2
59.19,0,5,3,10,50,3,2,1
59.195,1,7,2,3,9,1,1,2
59.2,3,2,3,1,17,5,3,2
59.205,1,1,1,7,1,4,1,1
59.21,1,1,2,12,14,7,1,1
59.215,1,2,3,1,3,3,0,1
59.22,1,3,3,1,11,4,3,2
59.225,1,3,2,3,6,5,1,2
59.23,2,3,3,5,19,1,0,1
59.235,8,0,0,1,12,3,3,1
59.24,2,6,4,8,4,3,2,0
59.245,17,1,4,27,64,5,2,1
59.25,23,2,1,6,13,11,2,0
59.255,13,1,1,5,4,0,1,2
59.26,1,3,7,23,26,14,5,5
59.265,21,0,5,16,51,2,3,3
59.27,34,3,1,16,31,2,3,4
59.275,13,3,10,32,61,2,3,1
59.28,25,4,4,17,97,6,4,4
59.285,13,6,3,0,70,9,4,8
59.29,14,4,1,6,14,7,4,0
59.295,8,0,3,9,10,1,1,5
59.3,11,3,9,1,7,6,1,4
59.305,21,2,26,0,34,2,0,1
59.31,13,1,1,12,22,1,1,0
59.315,19,2,4,2,30,1,1,3
59.32,8,5,8,2,7,2,2,1
59.325,5,0,1,15,27,2,4,3
59.33,15,1,1,14,48,8,2,2
59.335,0,2,0,3,24,1,0,1
59.34,4,0,0,5,27,0,0,1
59.345,11,1,9,11,14,1,2,1
59.35,10,3,5,9,15,1,0,2
59.355,3,2,8,3,8,2,3,1
59.36,3,1,0,3,15,4,3,1
59.365,10,2,9,6,34,3,1,5
59.37,6,1,1,15,15,2,2,1
59.375,2,2,5,9,39,2,2,1
59.38,4,3,2,4,25,1,3,3
59.385,2,0,4,9,49,4,1,2
59.39,8,1,0,4,45,5,2,5
59.395,4,2,1,8,28,3,1,1
59.4,1,1,1,3,13,0,0,2
59.405,4,1,6,2,1,1,0,1
59.41,2,2,2,10,13,2,4,0
59.415,3,2,1,10,12,0,1,1
59.42,1,2,2,2,14,3,0,1
59.425,3,2,3,12,46,3,2,2
59.43,2,4,0,11,32,2,2,2
59.435,3,1,5,24,33,0,2,1
59.44,1,4,6,5,2,3,2,0
59.445,3,1,2,9,21,4,0,1
59.45,1,0,2,2,2,2,2,2
59.455,1,1,1,14,14,2,2,1
59.46,2,1,2,17,43,5,1,3
59.465,4,2,5,14,59,9,5,5
59.47,1,0,1,1,20,1,1,1
59.475,1,2,1,13,14,9,5,4
59.48,0,1,1,2,11,1,2,1
59.485,2,1,2,1,18,2,2,3
59.49,2,2,1,7,19,7,2,2
59.495,4,1,3,0,3,5,4,1
59.5,1,1,1,9,22,1,0,2
59.505,1,2,2,18,18,2,1,1
59.51,0,4,6,8,3,8,3,3
59.515,0,1,3,10,28,5,4,2
59.52,0,2,2,2,13,1,1,3
59.525,1,1,4,4,24,2,2,2
59.53,3,2,1,6,12,1,0,1
59.535,1,2,1,4,1,4,1,2
59.54,0,3,1,11,6,0,1,0
59.545,3,1,2,9,17,2,1,1
59.55,1,3,0,18,53,8,0,3
59.555,2,3,8,42,79,8,3,1
59.56,2,1,0,5,10,2,3,2
59.565,0,2,1,6,13,1,0,0
59.57,0,2,2,7,9,2,1,3
59.575,2,1,1,12,49,2,3,3
59.58,2,3,5,7,5,1,2,3
59.585,1,1,1,5,3,4,1,1
59.59,2,0,4,8,7,3,1,3
59.595,2,1,4,14,43,2,2,1
59.6,1,1,6,12,35,2,1,2
59.605,2,3,1,5,13,3,1,0
59.61,0,2,0,2,23,1,2,1
59.615,1,2,2,26,77,2,2,1
59.62,0,2,1,3,24,2,1,1
59.625,0,1,1,6,15,0,2,2
59.63,0,1,2,4,22,4,1,1
59.635,1,2,0,20,49,1,1,2
59.64,1,0,4,23,26,9,4,0
59.645,1,0,1,9,18,5,0,1
59.65,2,2,1,3,15,5,1,4
59.655,1,0,1,11,17,0,0,0
59.66,0,3,0,18,16,2,1,0
59.665,2,0,5,14,7,1,0,1
59.67,1,2,4,6,19,1,1,1
59.675,2,3,6,23,29,1,1,3
59.68,1,0,3,16,9,0,2,1
59.685,0,1,0,7,29,1,2,2
59.69,3,4,2,16,23,4,3,1
59.695,2,1,4,16,53,2,0,1
59.7,3,1,3,3,53,5,3,1
59.705,0,1,5,21,3,8,2,4
59.71,1,1,4,29,28,13,5,3
59.715,5,4,4,53,38,14,10,6
59.72,1,1,2,18,86,4,2,2
59.725,3,2,3,15,104,14,4,2
59.73,2,3,4,19,22,2,3,3
59.735,1,1,1,43,80,5,14,2
59.74,1,1,2,5,92,6,2,2
59.745,0,0,7,52,127,9,3,0
59.75,2,2,17,77,102,26,3,3
59.755,1,1,0,12,13,15,8,1
59.76,2,2,2,29,95,27,10,0
59.765,6,6,12,86,40,31,12,6
59.77,2,2,3,15,46,18,5,1
59.775,0,4,2,29,11,27,5,2
59.78,2,3,7,58,32,14,4,3
59.785,1,0,1,7,73,23,11,3
59.79,11,14,27,38,21,4,8,9
59.795,3,2,6,0,68,4,2,1
59.8,11,9,0,28,39,36,8,8
59.805,2,2,9,63,128,39,9,1
59.81,2,1,1,29,98,17,9,1
59.815,4,4,7,53,105,0,2,3
59.82,2,5,12,21,10,30,2,1
59.825,5,3,20,32,9,15,3,3
59.83,1,6,5,17,9,14,5,6
59.835,2,0,4,19,13,7,3,2
59.84,1,4,13,20,25,8,6,4
59.845,6,7,11,11,68,45,17,9
59.85,5,3,7,26,110,25,6,4
59.855,0,3,7,8,41,33,1,3
59.86,1,1,3,3,10,36,6,1
59.865,1,3,7,1,63,4,0,1
59.87,2,0,1,22,75,4,1,6
59.875,2,4,8,41,41,2,8,2
59.88,1,1,8,49,4,0,1,3
59.885,0,2,7,9,80,5,0,1
59.89,4,4,6,30,58,1,6,3
59.895,0,0,1,34,32,2,2,1
59.9,1,1,1,4,34,11,1,4
59.905,0,1,5,33,73,33,1,0
59.91,2,0,23,32,92,4,3,1
59.915,5,4,0,11,54,11,9,6
59.92,1,1,4,7,39,14,1,0
59.925,3,4,10,19,60,3,4,2
59.93,4,2,3,31,29,1,6,3
59.935,0,1,5,12,52,6,1,1
59.94,2,2,5,9,127,0,5,4
59.945,6,3,1,10,67,15,10,7
59.95,3,5,3,30,48,3,3,4
59.955,3,2,2,15,28,1,2,3
59.96,0,0,6,2,12,5,3,4
59.965,1,1,5,2,22,9,5,1
59.97,3,0,0,36,76,14,8,4
59.975,1,1,2,41,121,10,6,1
59.98,2,2,6,24,19,8,4,4
59.985,5,6,12,2,60,7,5,3
59.99,1,0,2,0,81,5,2,2
59.995,0,1,1,8,7,3,0,0
60,0,2,2,7,27,6,1,2
60.005,5,3,4,2,42,17,4,2
60.01,7,6,10,3,73,17,5,8
60.015,3,4,6,5,14,6,7,5
60.02,1,1,2,7,11,4,2,1
60.025,2,1,2,17,32,3,2,1
60.03,2,4,8,18,48,1,2,1
60.035,1,1,1,11,23,9,3,4
60.04,2,1,1,5,23,13,2,3
60.045,4,6,11,37,90,15,7,5
60.05,3,1,1,2,65,4,4,0
60.055,0,3,3,4,13,4,1,0
60.06,1,0,2,2,29,1,0,3
60.065,0,0,1,27,1,7,2,2
60.07,0,0,5,15,32,8,2,4
60.075,2,1,0,11,43,8,5,3
60.08,1,1,2,20,39,2,2,3
60.085,2,0,3,2,27,4,3,2
60.09,0,6,0,1,19,3,3,2
60.095,0,2,3,14,11,4,4,5
60.1,2,0,0,37,2,1,1,0
60.105,1,2,2,29,23,6,0,1
60.11,0,1,1,5,3,3,1,1
60.115,0,1,1,20,4,3,2,2
60.12,0,2,2,6,3,3,1,0
60.125,4,1,1,9,27,3,3,2
60.13,3,0,2,1,34,6,1,1
60.135,8,1,3,0,2,2,4,5
60.14,71,3,1,11,42,4,4,9
60.145,77,0,4,30,75,4,3,2
60.15,5,0,1,14,22,3,2,10
60.155,7,1,0,7,0,4,3,3
60.16,3,1,1,14,10,3,3,31
60.165,128,3,1,8,19,6,8,28
60.17,102,4,3,11,5,0,3,24
60.175,6,4,3,10,18,4,1,7
60.18,2,10,1,7,15,2,1,2
60.185,23,2,1,15,22,2,0,11
60.19,3,0,3,12,12,8,4,0
60.195,6,0,0,2,2,3,1,2
60.2,16,3,5,2,5,0,1,4
60.205,16,2,1,5,6,5,4,7
60.21,5,1,0,3,10,5,1,9
60.215,27,2,1,3,7,2,0,11
60.22,39,1,1,1,7,2,2,4
60.225,10,0,1,2,1,3,2,4
60.23,18,1,1,7,3,7,4,2
60.235,1,2,1,14,11,9,0,1
60.24,6,2,3,4,2,3,0,5
60.245,21,1,1,13,10,1,0,2
60.25,22,1,0,1,10,2,1,2
60.255,1,1,0,1,12,4,1,2
60.26,6,1,3,3,44,3,3,1
60.265,7,2,0,10,18,1,4,2
60.27,12,1,4,3,73,5,1,2
60.275,5,3,1,3,9,1,3,3
60.28,8,3,1,11,21,1,0,1
60.285,6,1,1,12,20,0,2,2
60.29,11,1,1,8,13,4,4,2
60.295,2,0,3,6,11,0,4,3
60.3,0,0,3,2,1,2,1,0
60.305,5,1,3,7,21,7,5,5
60.31,9,1,6,2,20,0,1,5
60.315,3,0,0,3,0,11,11,2
60.32,2,1,4,14,15,6,2,3
60.325,1,2,0,6,2,5,2,2
60.33,7,1,1,8,13,6,0,0
60.335,0,2,0,2,2,4,4,1
60.34,1,1,1,2,4,0,2,1
60.345,2,2,2,1,5,1,1,1
60.35,5,1,1,3,7,1,2,1
60.355,2,1,2,10,10,5,4,4
60.36,1,2,3,2,10,0,2,2
60.365,1,3,1,2,8,1,2,1
60.37,2,2,2,3,12,1,1,2
60.375,1,1,1,7,9,2,2,0
60.38,1,1,4,22,21,5,2,0
60.385,2,1,4,12,7,1,0,1
60.39,5,2,1,5,10,4,1,0
60.395,1,1,1,2,6,6,3,3
60.4,0,1,1,14,31,2,2,1
60.405,0,0,0,10,27,1,0,1
60.41,2,2,4,4,1,3,1,2
60.415,3,4,5,16,78,0,1,1
60.42,1,1,1,8,35,3,3,1
60.425,0,1,0,7,12,1,1,1
60.43,1,0,3,13,9,1,2,2
60.435,0,1,1,8,9,1,1,1
60.44,0,0,2,5,3,2,1,2
60.445,0,2,1,0,11,0,2,1
60.45,4,1,0,3,0,2,1,2
60.455,1,1,1,15,32,4,2,0
60.46,2,2,2,12,13,2,2,0
60.465,0,1,0,4,2,2,1,6
60.47,1,2,0,4,4,0,1,0
60.475,0,1,2,8,32,2,1,1
60.48,1,3,2,12,6,0,0,1
60.485,0,1,2,2,7,2,1,2
60.49,3,2,2,9,10,3,3,2
60.495,2,2,0,1,11,5,5,3
60.5,0,1,1,21,20,2,1,2
60.505,1,1,3,25,6,2,2,1
60.51,1,2,3,1,15,3,1,0
60.515,1,0,1,5,8,5,2,1
60.52,1,3,1,2,13,1,3,0
60.525,2,1,1,5,2,2,1,4
60.53,1,1,1,1,4,0,1,3
60.535,1,4,10,9,5,5,1,1
60.54,0,1,1,4,10,1,2,2
60.545,1,0,1,17,32,1,0,0
60.55,3,2,4,43,47,3,0,2
60.555,2,1,1,1,2,1,0,0
60.56,2,0,1,0,1,1,2,1
60.565,2,2,0,10,12,1,2,1
60.57,0,1,1,6,18,0,2,4
60.575,0,1,2,7,10,1,4,2
60.58,2,2,0,7,4,2,1,1
60.585,1,1,0,3,17,3,2,2
60.59,0,0,1,11,5,3,1,1
60.595,2,2,1,16,8,2,2,0
60.6,0,2,1,8,5,0,1,2
60.605,3,0,2,10,26,1,0,1
60.61,0,2,1,7,5,3,0,3
60.615,1,2,1,7,11,2,1,2
60.62,2,1,3,6,11,4,2,2
60.625,2,2,0,9,13,1,1,1
60.63,3,2,1,13,28,3,3,2
60.635,1,1,2,3,6,1,0,0
60.64,1,0,3,4,6,1,2,4
60.645,1,1,2,6,13,2,2,1
60.65,2,3,5,5,4,4,3,1
60.655,1,3,1,2,2,1,1,1
60.66,2,3,1,3,11,3,2,2
60.665,0,0,0,2,1,3,1,2
60.67,0,1,0,3,1,2,0,3
60.675,1,1,2,2,6,1,1,0
60.68,0,1,4,2,2,3,2,2
60.685,1,1,0,0,2,3,2,0
60.69,1,2,1,4,1,1,1,1
60.695,4,1,2,1,5,1,2,1
60.7,0,0,0,3,1,1,1,0
60.705,2,2,1,19,28,4,5,3
60.71,0,0,1,12,21,5,3,0
60.715,1,1,4,16,46,3,0,2
60.72,2,2,2,8,23,1,1,0
60.725,0,1,1,5,4,3,3,4
60.73,0,1,4,6,10,2,2,1
60.735,2,1,5,30,63,7,4,1
60.74,3,1,2,28,8,4,3,4
60.745,1,4,8,34,48,8,4,3
60.75,2,2,7,61,42,8,4,2
60.755,3,1,1,43,66,7,4,1
60.76,1,3,8,22,82,18,8,5
60.765,13,17,33,37,66,34,20,13
60.77,1,2,4,22,44,5,4,1
60.775,2,1,2,10,11,3,2,3
60.78,3,0,8,75,10,4,0,1
60.785,3,5,5,90,6,3,13,6
60.79,1,2,1,78,57,11,5,4
60.795,10,8,13,9,29,25,20,14
60.8,6,5,6,14,69,5,10,5
60.805,0,4,9,57,12,26,5,1
60.81,1,4,6,7,93,6,5,4
60.815,5,3,6,51,105,12,11,4
60.82,16,19,23,10,16,8,26,19
60.825,16,18,33,7,128,8,20,16
60.83,9,11,21,21,69,2,11,13
60.835,3,2,6,40,1,1,2,0
60.84,9,6,12,6,24,19,14,8
60.845,4,1,3,16,18,23,7,1
60.85,8,7,8,82,90,13,12,7
60.855,2,1,3,28,93,8,10,0
60.86,15,14,30,29,63,17,20,17
60.865,3,9,20,33,12,19,0,2
60.87,4,6,10,20,13,10,0,0
60.875,2,2,3,22,15,7,2,4
60.88,3,6,7,36,36,4,6,4
60.885,2,1,1,29,7,0,2,2
60.89,5,7,10,4,47,7,15,6
60.895,3,0,6,59,24,10,0,0
60.9,2,1,1,39,61,17,5,4
60.905,0,2,1,63,127,34,6,3
60.91,4,3,5,8,36,22,10,8
60.915,2,2,2,12,77,10,4,5
60.92,1,1,4,29,38,2,1,2
60.925,1,1,5,4,61,0,3,0
60.93,3,0,4,10,75,7,2,4
60.935,6,7,8,13,49,20,15,9
60.94,2,1,1,22,33,21,5,2
60.945,1,5,5,17,33,0,3,1
60.95,5,3,1,5,7,16,9,6
60.955,2,2,3,6,128,14,1,1
60.96,2,1,1,21,25,5,1,1
60.965,5,3,5,10,64,10,4,1
60.97,1,1,1,13,56,19,4,2
60.975,0,1,1,25,50,13,3,1
60.98,8,10,18,8,121,9,12,11
60.985,9,12,13,15,127,21,9,12
60.99,0,1,3,22,105,14,3,2
60.995,1,1,3,7,44,5,0,1
61,1,1,2,0,95,2,2,1
61.005,1,1,1,23,37,14,3,2
61.01,3,3,4,11,27,10,2,4
61.015,1,2,1,2,10,4,0,1
61.02,3,2,1,2,0,4,3,3
61.025,3,5,5,20,18,2,2,6
61.03,4,5,7,22,12,6,3,4
61.035,2,3,1,13,23,5,1,1
61.04,5,5,7,24,41,4,5,4
61.045,0,1,3,8,11,7,1,2
61.05,1,1,3,4,18,9,5,5
61.055,1,2,4,1,8,0,1,2
61.06,3,1,1,11,31,3,4,2
61.065,1,2,2,20,42,1,1,2
61.07,0,1,2,28,2,10,1,2
61.075,2,1,1,4,9,2,2,3
61.08,1,2,4,10,11,8,1,3
61.085,1,2,1,20,20,14,1,2
61.09,1,2,4,22,42,13,2,2
61.095,2,0,5,18,15,2,2,2
61.1,0,1,0,11,39,5,1,2
61.105,6,5,7,44,16,1,8,6
61.11,1,1,2,11,24,1,1,1
61.115,1,0,2,4,34,1,0,1
61.12,2,1,2,1,3,6,2,2
61.125,0,1,1,10,2,5,1,1
61.13,2,0,0,1,5,1,1,2
61.135,3,2,2,4,9,0,1,1
61.14,0,0,1,9,31,7,5,2
61.145,3,3,4,2,12,6,6,0
61.15,4,1,0,6,43,4,5,3
61.155,1,1,2,11,36,3,1,4
61.16,2,0,3,3,7,2,0,1
61.165,1,1,0,16,30,2,0,0
61.17,1,0,1,10,17,5,4,3
61.175,2,1,1,0,7,2,4,4
61.18,2,2,1,5,10,1,3,2
61.185,2,4,0,3,3,3,0,2
61.19,0,2,0,0,4,0,1,0
61.195,2,1,2,3,2,1,3,1
61.2,3,0,3,1,3,1,1,0
61.205,0,1,1,3,18,2,1,1
61.21,1,1,2,1,6,5,2,0
61.215,0,3,6,4,6,8,2,1
61.22,2,0,1,8,13,1,1,2
61.225,1,0,1,5,4,1,0,3
61.23,1,0,3,11,24,0,2,2
61.235,1,0,3,36,72,2,2,3
61.24,0,2,0,18,21,4,2,1
61.245,1,2,3,3,6,2,2,3
61.25,3,0,5,15,11,4,2,3
61.255,1,1,1,1,4,3,0,0
61.26,0,1,3,3,19,4,1,1
61.265,1,1,1,9,15,0,1,1
61.27,0,3,1,1,11,1,1,2
61.275,3,1,2,1,8,2,2,2
61.28,2,3,0,3,15,2,3,1
61.285,2,0,1,19,24,2,0,2
61.29,1,1,4,39,22,4,1,2
61.295,0,4,1,3,7,3,2,2
61.3,1,1,1,10,26,0,1,0
61.305,4,1,4,42,52,2,0,1
61.31,4,1,0,42,55,2,0,0
61.315,18,3,10,14,72,13,4,2
61.32,11,5,9,28,45,8,5,5
61.325,0,1,1,17,27,2,1,1
61.33,2,0,5,64,115,6,1,3
61.335,0,3,5,10,117,0,2,1
61.34,4,1,5,28,54,3,1,2
61.345,0,3,4,15,27,2,0,4
61.35,1,1,1,28,50,0,2,1
61.355,1,0,4,47,62,2,2,1
61.36,2,0,0,30,54,4,2,2
61.365,1,2,0,22,8,5,2,2
61.37,4,1,5,1,6,5,2,0
61.375,4,0,3,17,2,2,1,1
61.38,4,3,5,16,14,2,2,0
61.385,1,1,2,11,45,4,1,1
61.39,4,3,1,6,16,4,3,4
61.395,1,0,1,11,9,4,2,1
61.4,3,3,3,1,8,6,1,4
61.405,1,2,2,4,34,3,1,1
61.41,0,0,2,7,17,3,1,0
61.415,4,2,4,12,17,5,2,2
61.42,3,0,3,18,15,1,1,2
61.425,2,2,3,11,19,4,5,1
61.43,1,4,7,3,44,0,2,1
61.435,2,1,0,3,11,1,1,0
61.44,1,3,0,1,14,2,2,1
61.445,0,0,1,10,16,2,0,0
61.45,0,1,2,15,9,6,3,4
61.455,1,1,2,10,22,1,0,1
61.46,3,1,0,15,71,3,1,0
61.465,3,1,4,21,79,4,0,1
61.47,2,2,2,0,5,2,1,1
61.475,1,1,1,2,18,4,3,4
61.48,0,0,1,2,15,0,2,2
61.485,1,4,3,3,25,0,3,1
61.49,1,1,1,1,3,2,4,3
61.495,1,1,3,4,0,3,2,0
61.5,0,1,3,8,39,0,1,0
61.505,1,2,3,2,38,6,3,2
61.51,2,2,2,8,9,4,4,4
61.515,0,0,2,8,47,2,0,1
61.52,2,1,1,13,52,0,0,1
61.525,0,0,1,9,11,0,1,1
61.53,2,1,1,9,17,3,2,1
61.535,1,0,1,7,12,0,2,1
61.54,2,1,0,5,18,0,0,1
61.545,3,1,0,4,29,2,0,3
61.55,1,2,1,13,30,2,2,0
61.555,1,2,9,19,22,2,3,1
61.56,1,2,0,6,1,1,1,0
61.565,1,1,2,2,11,4,2,1
61.57,1,2,2,4,3,1,2,4
61.575,2,0,0,19,24,5,2,1
61.58,1,0,2,6,30,4,2,3
61.585,1,2,2,14,2,3,4,0
61.59,0,0,3,5,4,0,0,2
61.595,1,1,1,4,5,1,1,2
61.6,1,0,0,12,41,0,2,2
61.605,1,2,0,14,12,0,4,3
61.61,1,0,2,16,2,1,0,1
61.615,4,4,9,54,50,4,3,4
61.62,2,0,1,15,17,2,5,3
61.625,2,0,1,20,33,1,2,1
61.63,1,1,1,21,19,5,6,4
61.635,2,1,5,32,22,1,1,0
61.64,2,2,4,37,6,2,1,2
61.645,2,1,5,27,87,8,5,4
61.65,1,1,5,19,1,3,2,2
61.655,1,2,0,24,28,3,3,3
61.66,1,1,3,3,32,5,4,1
61.665,2,2,5,15,3,5,2,3
61.67,0,0,5,21,25,0,1,1
61.675,2,4,10,69,5,3,3,1
61.68,1,2,1,17,5,1,2,1
61.685,0,0,1,1,8,3,2,3
61.69,3,2,3,4,10,2,3,3
61.695,0,1,3,6,11,0,0,1
61.7,1,1,0,1,22,1,1,2
61.705,1,1,1,2,3,1,1,3
61.71,1,3,3,4,42,4,3,3
61.715,0,1,2,6,8,3,2,2
61.72,1,2,4,9,49,3,2,3
61.725,0,2,0,13,61,1,1,3
61.73,0,1,2,12,34,1,0,1
61.735,5,2,1,3,3,2,1,4
61.74,0,2,3,3,14,3,1,5
61.745,1,2,1,6,42,1,1,0
61.75,2,1,1,6,21,4,3,2
61.755,1,2,4,9,10,0,1,2
61.76,1,1,1,6,85,4,1,1
61.765,1,0,2,22,3,6,3,1
61.77,1,0,1,7,36,0,1,0
61.775,1,2,9,11,19,1,0,1
61.78,4,5,5,5,23,6,4,2
61.785,2,4,27,2,6,7,6,5
61.79,6,10,33,13,74,6,9,5
61.795,1,2,4,9,62,2,1,3
61.8,6,10,17,53,81,16,11,8
61.805,16,9,4,0,58,28,25,19
61.81,4,5,19,20,43,2,7,4
61.815,4,3,7,65,16,13,6,3
61.82,7,4,1,28,34,31,15,8
61.825,4,0,10,23,1,24,8,6
61.83,8,2,23,4,57,31,13,11
61.835,2,6,32,46,55,14,3,4
61.84,5,2,10,8,76,34,13,6
61.845,0,0,8,85,21,24,1,2
61.85,5,7,43,43,63,17,11,5
61.855,6,9,21,42,113,8,1,3
61.86,7,7,2,21,67,3,3,8
61.865,0,4,56,84,48,7,8,2
61.87,8,11,25,48,94,29,11,9
61.875,8,8,12,98,96,39,17,9
61.88,5,2,19,8,125,10,4,3
61.885,10,8,47,70,111,51,16,12
61.89,5,8,7,39,2,20,6,7
61.895,1,1,6,1,81,13,3,1
61.9,5,1,11,11,45,44,17,9
61.905,7,3,2,26,116,13,17,11
61.91,4,7,11,76,38,9,9,6
61.915,14,10,9,118,58,53,20,15
61.92,1,0,15,22,8,1,2,2
61.925,7,8,12,3,98,19,12,8
61.93,2,3,12,9,94,32,5,3
61.935,3,2,1,43,32,3,5,0
61.94,3,0,1,6,94,15,5,5
61.945,0,2,11,31,35,3,1,2
61.95,6,4,12,34,22,9,8,7
61.955,1,1,2,24,46,7,2,0
61.96,1,3,1,28,127,13,1,1
61.965,1,3,4,35,125,9,5,1
61.97,6,4,7,54,91,11,5,6
61.975,2,3,5,4,57,17,10,5
61.98,8,6,15,21,88,23,19,12
61.985,0,2,4,28,3,5,2,3
61.99,2,1,2,16,30,0,7,6
61.995,7,10,4,42,40,13,13,9
62,0,2,5,8,31,2,1,0
62.005,1,4,6,10,47,12,1,2
62.01,1,0,4,0,95,6,5,4
62.015,3,1,1,4,34,9,4,4
62.02,2,3,9,41,18,1,0,1
62.025,1,1,3,20,8,9,2,0
62.03,2,2,15,1,40,3,1,2
62.035,2,4,12,6,50,9,2,2
62.04,2,1,3,2,99,5,0,2
62.045,0,0,1,3,42,8,2,1
62.05,3,3,5,45,39,9,5,4
62.055,0,0,1,9,16,4,1,1
62.06,2,4,1,28,36,11,4,5
62.065,6,5,5,17,48,9,5,7
62.07,2,1,8,6,24,7,2,1
62.075,1,0,4,19,40,4,4,1
62.08,1,1,7,0,37,6,3,2
62.085,0,1,2,9,14,2,1,3
62.09,0,0,5,7,54,1,0,0
62.095,1,1,1,14,27,3,1,3
62.1,0,1,9,13,12,3,1,1
62.105,1,1,4,13,80,4,0,0
62.11,4,3,7,4,9,4,3,5
62.115,3,0,4,13,11,5,1,1
62.12,2,0,3,7,27,3,2,4
62.125,1,0,3,7,24,8,1,0
62.13,1,1,3,14,59,9,0,2
62.135,1,0,0,23,108,8,1,0
62.14,4,3,1,5,27,4,3,2
62.145,1,0,0,1,93,13,5,3
62.15,2,1,6,16,51,5,3,3
62.155,4,1,4,25,61,1,2,3
62.16,1,3,3,27,1,2,2,2
62.165,0,4,18,26,20,0,2,0
62.17,1,4,22,7,29,0,3,1
62.175,2,0,7,1,39,3,1,3
62.18,1,1,2,13,5,4,1,1
62.185,5,0,6,9,20,0,1,2
62.19,10,2,5,3,28,0,1,2
62.195,6,5,2,11,1,2,5,5
62.2,0,0,2,2,7,1,0,2
62.205,2,3,11,9,42,1,3,4
62.21,1,0,4,17,10,2,0,3
62.215,1,3,10,28,48,2,2,2
62.22,3,0,4,26,55,2,0,3
62.225,0,3,7,1,33,3,0,1
62.23,0,1,4,3,4,0,1,0
62.235,2,1,5,5,35,4,1,3
62.24,3,2,3,1,51,15,2,1
62.245,1,0,4,4,5,1,1,0
62.25,2,1,1,6,28,1,4,1
62.255,1,1,2,4,4,2,3,1
62.26,1,2,1,10,13,0,1,2
62.265,3,1,4,5,0,2,2,1
62.27,4,2,1,7,20,1,0,1
62.275,0,3,3,2,17,1,1,1
62.28,1,1,3,5,10,2,1,5
62.285,2,2,2,2,18,3,4,3
62.29,4,1,1,16,11,1,2,1
62.295,0,1,1,9,14,2,3,1
62.3,1,0,1,9,33,1,2,1
62.305,2,1,3,15,80,6,0,0
62.31,3,0,1,13,9,1,1,1
62.315,3,1,1,17,6,0,3,2
62.32,1,3,1,0,2,1,1,1
62.325,0,1,1,14,1,1,1,2
62.33,1,1,2,19,45,6,0,2
62.335,3,4,6,25,40,10,5,4
62.34,0,2,0,4,19,5,1,0
62.345,1,0,0,14,44,1,3,2
62.35,1,0,4,3,3,5,1,1
62.355,1,1,3,2,11,3,3,1
62.36,3,1,4,2,16,2,2,2
62.365,0,2,2,5,2,1,1,1
62.37,0,2,1,10,11,1,2,2
62.375,1,0,2,1,31,1,1,0
62.38,1,2,2,23,46,6,4,3
62.385,1,3,0,7,14,0,1,1
62.39,4,2,5,8,18,4,0,1
62.395,0,1,2,10,6,1,0,1
62.4,1,2,5,4,8,0,1,0
62.405,3,3,7,27,74,5,2,4
62.41,0,1,2,4,10,2,4,6
62.415,1,1,1,14,5,3,2,2
62.42,1,3,3,6,15,1,0,0
62.425,0,11,1,12,21,1,1,1
62.43,0,1,4,29,63,3,0,0
62.435,1,1,3,18,52,4,2,1
62.44,3,3,4,3,0,9,5,2
62.445,0,5,0,3,34,1,0,0
62.45,1,2,2,7,53,0,0,2
62.455,0,3,1,3,19,2,2,0
62.46,1,1,0,5,4,4,2,2
62.465,1,1,2,2,14,5,1,1
62.47,1,0,1,5,7,2,0,1
62.475,1,1,1,17,8,1,0,3
62.48,0,2,2,12,28,2,1,0
62.485,1,2,2,3,30,1,0,0
62.49,3,0,4,1,21,3,4,3
62.495,1,0,2,15,25,6,4,1
62.5,1,2,7,8,6,0,0,1
62.505,1,3,2,12,17,4,1,1
62.51,1,0,2,12,16,3,0,1
62.515,1,1,1,1,7,1,2,1
62.52,2,3,2,6,58,1,3,2
62.525,0,2,2,19,32,6,4,2
62.53,2,4,6,24,41,8,4,4
62.535,1,0,1,13,37,3,0,1
62.54,3,2,4,31,91,6,1,4
62.545,1,1,1,19,28,2,1,1
62.55,1,1,0,11,6,2,0,1
62.555,1,0,1,8,0,2,1,1
62.56,1,1,1,10,2,3,0,1
62.565,2,1,1,2,22,1,1,4
62.57,1,1,4,10,29,2,2,1
62.575,1,1,1,9,13,2,1,0
62.58,0,0,1,9,12,3,0,2
62.585,0,2,2,15,78,3,1,2
62.59,2,2,3,13,14,1,1,3
62.595,3,5,4,5,2,3,4,2
62.6,2,1,0,2,13,1,1,1
62.605,1,1,2,1,26,2,1,2
62.61,0,0,1,17,17,0,2,0
62.615,1,0,0,8,23,1,0,0
62.62,0,4,4,6,4,0,2,0
62.625,3,1,3,0,22,0,3,3
62.63,0,2,0,2,15,0,1,0
62.635,2,1,1,6,7,3,1,1
62.64,0,1,2,7,2,1,2,3
62.645,2,0,2,5,5,1,1,1
62.65,0,1,2,6,18,1,1,2
62.655,0,0,0,8,3,0,2,1
62.66,3,2,1,9,10,2,1,0
62.665,1,0,1,14,31,3,4,2
62.67,2,1,0,11,47,4,2,2
62.675,0,2,1,6,31,2,2,1
62.68,0,1,1,3,10,1,0,1
62.685,1,3,3,19,8,3,1,2
62.69,1,2,0,1,16,0,0,0
62.695,0,0,1,9,10,2,1,1
62.7,0,2,3,16,20,5,2,1
62.705,2,1,0,5,19,1,0,2
62.71,2,1,3,3,27,6,3,3
62.715,3,2,1,1,20,1,1,0
62.72,1,1,1,12,59,3,1,1
62.725,1,2,2,5,15,3,0,2
62.73,3,2,5,1,2,2,2,4
62.735,3,3,0,2,14,0,3,3
62.74,2,0,3,13,2,2,0,0
62.745,1,0,1,6,16,2,1,2
62.75,0,1,1,1,18,2,1,2
62.755,0,0,1,7,43,2,1,0
62.76,0,0,2,16,27,3,0,1
62.765,1,2,4,27,20,3,2,1
62.77,2,2,6,34,47,4,0,0
62.775,0,5,12,34,20,7,4,3
62.78,2,3,6,23,68,6,2,0
62.785,4,4,3,28,39,10,6,3
62.79,4,0,1,25,93,25,11,5
62.795,6,6,19,6,57,25,13,9
62.8,0,1,31,9,101,5,0,1
62.805,4,0,1,16,56,5,1,6
62.81,4,3,3,12,61,7,1,1
62.815,2,1,6,55,112,3,4,3
62.82,0,4,28,29,66,22,10,2
62.825,11,7,4,38,102,16,17,14
62.83,5,8,26,49,31,8,1,1
62.835,1,5,7,111,50,2,10,4
62.84,5,4,4,57,93,16,12,7
62.845,8,5,29,33,9,42,21,10
62.85,5,9,10,11,73,41,17,11
62.855,7,12,61,92,6,21,7,5
62.86,3,0,5,80,42,13,7,6
62.865,1,9,30,58,77,4,7,7
62.87,7,1,9,55,0,24,17,10
62.875,7,9,26,39,52,43,20,11
62.88,2,6,27,14,34,0,1,1
62.885,0,3,47,10,79,3,1,1
62.89,6,3,4,60,30,0,5,5
62.895,1,2,7,32,77,0,13,11
62.9,6,7,6,49,41,22,2,6
62.905,6,4,4,57,76,0,12,8
62.91,11,7,20,58,97,31,10,9
62.915,1,1,1,17,9,5,1,1
62.92,5,5,18,9,37,1,1,5
62.925,1,1,0,63,128,5,7,4
62.93,4,1,3,30,127,8,0,0
62.935,9,8,7,31,127,24,10,9
62.94,3,4,17,42,128,8,4,5
62.945,1,4,3,3,51,9,3,2
62.95,0,2,6,16,4,2,2,3
62.955,0,1,10,24,17,6,2,0
62.96,1,3,9,36,35,1,3,1
62.965,0,2,0,51,5,7,1,0
62.97,3,6,7,10,59,14,3,3
62.975,1,0,24,61,78,9,4,1
62.98,5,3,4,7,52,16,6,6
62.985,2,0,2,42,105,8,0,0
62.99,6,8,13,20,13,6,11,6
62.995,2,8,14,9,37,4,4,3
63,1,6,10,9,20,7,4,0
63.005,1,0,5,5,20,5,1,2
63.01,0,1,7,0,71,8,0,1
63.015,2,0,6,39,128,17,4,3
63.02,1,1,3,3,88,5,4,6
63.025,2,2,0,8,4,2,2,1
63.03,3,0,3,13,13,5,0,0
63.035,1,0,4,6,65,1,0,2
63.04,0,1,2,1,43,8,1,3
63.045,0,0,4,13,30,1,5,0
63.05,6,3,5,24,50,4,7,6
63.055,1,2,2,6,33,1,1,2
63.06,0,0,5,2,26,2,3,2
63.065,1,1,2,8,9,1,4,3
63.07,1,1,1,0,21,9,5,3
63.075,0,3,1,1,53,1,1,2
63.08,0,0,2,9,33,1,1,2
63.085,0,1,5,30,28,10,3,1
63.09,2,2,0,1,63,13,1,0
63.095,2,0,4,4,18,5,3,0
63.1,3,2,1,0,3,2,2,3
63.105,3,1,2,2,2,4,6,2
63.11,0,0,1,1,15,0,0,0
63.115,2,2,0,0,16,3,1,1
63.12,3,1,0,7,12,0,0,3
63.125,3,3,3,2,35,4,2,3
63.13,1,1,2,9,13,1,2,1
63.135,3,2,1,2,7,4,1,1
63.14,2,0,1,8,15,1,1,1
63.145,1,1,2,5,13,2,1,0
63.15,1,2,3,5,20,2,0,2
63.155,0,0,2,6,18,1,3,2
63.16,1,2,1,2,8,3,4,4
63.165,0,2,1,1,15,4,1,0
63.17,5,1,2,2,12,2,4,3
63.175,1,0,1,2,6,1,1,0
63.18,0,5,1,18,38,4,1,1
63.185,0,8,4,4,66,6,3,1
63.19,1,2,6,28,16,4,0,1
63.195,2,1,1,0,15,1,2,5
63.2,2,0,1,17,17,1,0,1
63.205,0,1,3,8,56,6,1,1
63.21,2,3,6,39,49,3,0,3
63.215,1,2,2,5,15,4,4,2
63.22,1,5,2,5,4,6,2,1
63.225,0,0,4,17,21,1,0,1
63.23,0,1,3,16,9,1,3,2
63.235,0,0,1,1,22,3,3,1
63.24,0,1,0,0,9,6,6,3
63.245,2,0,0,13,20,4,0,2
63.25,1,1,5,10,18,5,5,6
63.255,1,2,1,5,1,3,2,1
63.26,0,2,1,7,0,4,3,0
63.265,2,1,1,0,6,5,1,4
63.27,2,0,1,5,16,2,1,2
63.275,3,1,0,18,24,3,1,1
63.28,3,3,2,13,38,2,0,5
63.285,1,2,1,11,4,5,5,0
63.29,1,1,1,7,45,2,0,1
63.295,1,1,1,24,3,0,1,1
63.3,1,3,2,18,0,3,2,3
63.305,3,11,5,5,8,3,4,3
63.31,0,0,3,4,33,2,0,1
63.315,1,1,6,24,24,1,2,3
63.32,1,0,1,8,70,6,3,2
63.325,2,1,0,14,3,2,1,0
63.33,1,0,2,2,11,2,0,2
63.335,2,4,1,9,6,6,3,3
63.34,1,3,4,3,30,2,1,1
63.345,0,2,2,20,37,4,0,0
63.35,0,0,0,13,6,0,1,0
63.355,2,1,1,7,12,4,1,0
63.36,4,3,3,0,1,4,3,2
63.365,1,2,2,5,4,3,3,2
63.37,2,0,0,6,7,2,0,1
63.375,1,1,0,12,10,5,3,7
63.38,3,4,3,23,17,8,6,2
63.385,0,1,1,14,12,7,5,3
63.39,2,1,1,2,36,1,1,0
63.395,2,2,3,15,46,5,1,0
63.4,0,0,0,7,43,1,3,2
63.405,4,0,1,1,8,1,4,1
63.41,0,3,3,13,1,3,1,0
63.415,0,2,1,10,16,1,1,2
63.42,2,2,2,1,23,0,1,2
63.425,2,1,2,7,22,3,1,4
63.43,3,3,2,15,26,0,1,3
63.435,0,2,1,13,17,2,2,2
63.44,1,3,5,20,111,13,4,4
63.445,2,1,2,11,44,3,2,1
63.45,0,0,1,5,2,2,2,1
63.455,2,1,0,6,0,2,0,1
63.46,2,2,1,7,22,2,1,1
63.465,1,1,7,0,3,5,2,4
63.47,2,0,4,8,34,5,4,1
63.475,1,0,1,6,0,4,4,0
63.48,1,1,1,6,29,2,2,1
63.485,1,1,1,13,2,1,0,1
63.49,1,2,5,18,20,3,2,0
63.495,1,2,3,12,1,4,1,1
63.5,2,0,0,6,12,3,2,0
63.505,1,0,1,4,0,5,4,1
63.51,2,0,1,8,7,0,0,2
63.515,1,0,1,1,4,3,1,1
63.52,1,2,1,0,5,1,0,2
63.525,4,3,1,16,26,1,3,3
63.53,2,1,1,4,53,6,4,2
63.535,1,2,3,17,11,3,0,0
63.54,2,0,0,3,16,0,1,1
63.545,0,0,1,1,11,2,2,0
63.55,1,2,1,2,12,2,0,1
63.555,3,1,2,4,12,0,1,2
63.56,0,1,2,5,1,1,1,0
63.565,2,1,2,4,13,2,4,1
63.57,3,1,3,13,4,1,2,2
63.575,0,1,0,16,58,1,1,2
63.58,1,1,0,7,13,2,1,0
63.585,1,1,2,6,1,0,1,2
63.59,1,1,0,2,14,4,1,2
63.595,3,2,0,5,11,3,3,3
63.6,2,0,2,5,9,0,0,1
63.605,0,1,1,3,4,1,2,1
63.61,0,1,1,3,1,1,1,1
63.615,2,1,0,21,49,7,1,4
63.62,3,4,8,22,95,15,6,3
63.625,2,2,3,19,8,5,0,1
63.63,2,0,2,11,20,1,2,1
63.635,0,1,0,3,1,4,2,1
63.64,2,0,1,3,19,1,1,1
63.645,1,1,2,2,1,4,1,4
63.65,2,1,1,5,9,2,2,2
63.655,1,1,3,1,2,3,5,1
63.66,1,2,3,3,19,2,2,0
63.665,1,2,1,2,9,4,3,2
63.67,1,0,2,4,12,1,3,0
63.675,2,1,2,10,15,1,2,0
63.68,1,1,0,25,11,0,1,3
63.685,1,2,3,10,29,1,1,1
63.69,1,0,1,4,32,3,0,0
63.695,2,3,0,4,8,3,1,1
63.7,1,2,3,9,13,5,4,0
63.705,0,1,1,1,26,2,1,1
63.71,2,4,10,2,20,1,3,2
63.715,3,0,1,0,31,1,1,2
63.72,0,1,1,5,17,1,3,1
63.725,4,2,4,15,11,7,5,1
63.73,2,1,1,5,29,4,3,3
63.735,0,1,4,22,22,3,2,1
63.74,1,1,1,6,1,4,4,2
63.745,1,1,0,6,17,0,1,0
63.75,2,1,2,3,0,4,4,0
63.755,2,3,0,2,0,1,1,2
63.76,0,0,3,3,17,0,1,3
63.765,1,1,2,3,8,2,3,1
63.77,2,2,3,2,6,3,1,3
63.775,0,0,0,3,1,1,3,0
63.78,4,1,4,16,14,4,4,4
63.785,1,0,2,11,24,6,1,2
63.79,1,1,1,12,79,4,2,2
63.795,0,1,0,15,6,0,2,4
63.8,1,1,0,6,16,4,0,1
63.805,2,0,1,3,15,1,0,1
63.81,1,2,1,17,66,4,1,0
63.815,3,1,1,11,6,0,1,2
63.82,3,2,3,17,10,2,2,2
63.825,3,3,1,3,10,0,1,2
63.83,0,2,2,14,9,0,2,1
63.835,0,0,1,18,23,1,2,1
63.84,1,2,5,16,11,5,3,1
63.845,1,3,3,6,3,1,2,1
63.85,1,0,1,0,5,2,1,2
63.855,2,2,4,7,38,0,3,2
63.86,4,1,1,7,44,2,3,5
63.865,1,1,1,2,3,4,2,1
63.87,2,2,1,2,35,2,0,2
63.875,1,2,1,10,43,3,0,2
63.88,0,2,1,14,29,3,2,2
63.885,1,0,1,1,9,1,2,0
63.89,0,1,1,1,13,1,0,2
63.895,1,0,1,1,32,0,2,1
63.9,4,2,5,4,51,4,2,3
63.905,2,2,2,0,32,0,1,2
63.91,0,1,1,3,22,3,2,0
63.915,1,0,0,4,13,4,2,1
63.92,0,3,5,2,16,2,2,2
63.925,1,3,0,16,28,1,1,1
63.93,0,2,1,36,66,4,1,2
63.935,1,1,0,24,51,2,0,0
63.94,0,1,0,3,46,3,2,2
63.945,3,1,1,6,49,10,4,0
63.95,2,3,4,3,26,1,2,1
63.955,0,0,6,27,44,4,2,1
63.96,3,2,6,42,75,3,1,1
63.965,1,1,1,6,4,3,2,3
63.97,1,2,3,10,9,6,3,3
63.975,2,5,9,17,33,1,3,3
63.98,1,2,8,21,71,4,1,1
63.985,3,3,9,21,93,4,0,0
63.99,0,5,11,2,92,12,3,1
63.995,2,4,14,39,58,25,7,5
64,1,1,4,49,127,7,5,1
64.005,1,0,1,26,108,2,8,5
64.01,2,1,0,18,40,6,10,7
64.015,1,1,14,46,29,1,9,2
64.02,0,1,5,23,50,1,1,0
64.025,8,10,19,47,95,21,4,6
64.03,8,11,23,27,88,5,16,12
64.035,1,2,13,45,66,2,0,1
64.04,2,1,5,77,51,9,5,1
64.045,5,3,19,38,127,19,6,2
64.05,3,7,15,106,30,13,3,6
64.055,3,0,4,27,121,43,8,4
64.06,5,5,12,13,68,1,1,1
64.065,4,5,28,14,49,2,8,6
64.07,4,8,19,4,101,11,10,6
64.075,4,6,17,24,51,49,12,5
64.08,7,7,46,48,18,11,14,10
64.085,3,3,12,4,64,13,10,3
64.09,2,4,4,42,19,7,3,0
64.095,7,8,21,111,112,12,8,8
64.1,1,1,28,57,96,23,9,2
64.105,9,12,29,35,23,33,9,8
64.11,1,1,5,67,32,12,7,2
64.115,4,3,4,40,51,16,9,7
64.12,4,3,2,15,28,30,4,5
64.125,2,0,6,13,95,10,0,0
64.13,1,2,2,22,81,14,5,3
64.135,1,4,6,51,28,11,1,5
64.14,5,2,3,22,62,6,12,8
64.145,5,8,15,0,58,12,6,6
64.15,2,0,1,0,26,23,5,4
64.155,2,1,3,14,93,32,13,7
64.16,7,8,5,29,66,22,12,10
64.165,4,5,11,13,52,3,3,5
64.17,2,2,0,36,74,14,1,4
64.175,1,3,1,4,88,14,1,1
64.18,1,1,4,13,89,40,9,4
64.185,0,3,2,29,30,8,1,1
64.19,7,6,0,46,29,8,12,7
64.195,3,6,6,6,72,16,4,2
64.2,6,6,9,23,104,6,5,5
64.205,2,2,2,2,66,4,1,2
64.21,1,3,6,33,44,3,1,2
64.215,6,5,1,6,82,2,11,9
64.22,0,2,2,0,28,8,1,2
64.225,1,2,1,32,6,8,3,2
64.23,1,1,0,13,74,8,1,1
64.235,0,2,2,12,10,3,0,1
64.24,2,2,5,6,18,1,1,1
64.245,3,2,4,23,111,11,1,2
64.25,2,0,3,3,36,24,3,3
64.255,4,4,7,5,88,1,4,2
64.26,3,2,2,6,6,0,1,2
64.265,3,2,0,3,50,5,0,3
64.27,1,2,4,26,12,5,2,1
64.275,0,2,2,5,21,2,1,0
64.28,2,2,1,21,97,11,2,4
64.285,0,2,1,5,46,12,1,3
64.29,2,1,1,5,9,7,4,6
64.295,3,1,3,5,27,3,2,5
64.3,2,1,0,6,38,3,3,2
64.305,2,0,1,5,9,0,1,0
64.31,1,2,3,0,2,4,1,0
64.315,3,8,1,19,8,1,3,4
64.32,2,1,1,15,2,5,3,1
64.325,2,0,2,7,5,1,1,2
64.33,2,1,1,2,15,3,1,1
64.335,1,0,0,2,5,0,0,1
64.34,2,2,2,17,72,2,3,1
64.345,1,4,1,3,1,5,3,2
64.35,0,2,1,5,32,3,0,0
64.355,2,2,1,1,14,3,1,3
64.36,4,6,2,11,22,1,0,2
64.365,2,3,1,5,2,1,1,2
64.37,0,0,0,1,10,1,0,2
64.375,0,1,3,9,5,3,1,1
64.38,1,1,1,2,35,8,4,5
64.385,1,1,4,3,31,2,1,0
64.39,0,8,1,2,24,3,2,2
64.395,2,0,2,1,18,4,0,3
64.4,1,0,2,10,35,5,3,3
64.405,3,1,1,1,1,3,2,3
64.41,1,2,1,13,10,1,0,1
64.415,3,0,3,11,6,1,1,3
64.42,2,3,2,7,6,5,4,2
64.425,1,2,1,1,21,2,0,0
64.43,1,1,4,10,62,6,1,1
64.435,4,3,2,21,82,8,2,3
64.44,0,1,2,9,4,2,1,1
64.445,2,4,3,15,7,3,4,1
64.45,0,1,1,2,10,3,0,1
64.455,1,1,3,3,13,1,0,3
64.46,0,0,0,7,4,0,1,1
64.465,1,2,1,10,29,0,2,3
64.47,1,1,1,8,49,4,3,4
64.475,1,2,0,2,11,2,3,1
64.48,2,0,1,23,36,3,1,0
64.485,1,1,0,7,0,0,3,2
64.49,1,1,2,5,45,5,4,2
64.495,0,2,1,2,20,1,1,2
64.5,1,1,0,4,14,1,0,1
64.505,0,0,0,7,7,2,1,1
64.51,3,1,2,1,5,1,1,0
64.515,1,1,4,7,12,3,3,0
64.52,1,1,2,3,14,1,0,1
64.525,1,2,3,6,7,1,1,2
64.53,1,0,1,6,10,3,1,1
64.535,2,1,2,2,5,2,3,3
64.54,0,2,9,1,2,0,3,2
64.545,1,0,0,18,16,1,1,1
64.55,1,1,4,39,61,5,1,3
64.555,2,3,2,7,13,3,2,0
64.56,1,1,1,7,5,0,0,1
64.565,2,0,2,5,0,0,1,3
64.57,1,7,1,9,29,2,1,1
64.575,2,6,2,13,22,3,3,3
64.58,2,1,2,26,84,3,1,0
64.585,2,1,2,7,14,2,1,1
64.59,0,0,3,6,44,1,1,0
64.595,3,1,4,9,17,5,1,0
64.6,1,1,1,0,5,2,1,1
64.605,2,3,2,3,4,1,4,0
64.61,0,4,3,2,9,1,1,0
64.615,2,0,1,1,12,2,2,3
64.62,3,1,1,2,17,0,2,3
64.625,1,1,0,1,7,4,3,3
64.63,2,4,2,4,2,0,0,1
64.635,1,1,2,6,6,2,1,0
64.64,1,0,3,27,20,3,2,0
64.645,2,2,3,8,23,2,4,4
64.65,3,3,3,5,47,5,4,2
64.655,0,0,1,10,21,1,1,1
64.66,1,2,2,17,32,3,2,1
64.665,2,1,0,8,10,1,1,2
64.67,1,1,0,1,13,1,0,1
64.675,0,0,2,3,20,0,2,0
64.68,0,1,2,8,5,0,0,0
64.685,1,1,0,2,50,0,1,0
64.69,2,2,1,3,50,4,2,2
64.695,1,1,1,25,63,5,3,2
64.7,4,1,0,11,16,1,0,1
64.705,2,2,5,7,17,1,1,0
64.71,1,0,1,4,3,2,1,3
64.715,3,1,3,10,14,4,0,1
64.72,2,2,1,7,6,1,2,1
64.725,0,2,0,0,12,1,1,1
64.73,1,2,2,0,5,1,1,1
64.735,0,2,0,6,1,1,2,2
64.74,0,1,2,1,10,3,2,3
64.745,2,2,1,8,24,3,2,0
64.75,3,2,2,16,28,1,0,1
64.755,0,2,2,2,5,1,0,1
64.76,2,0,1,3,19,2,2,2
64.765,1,1,0,2,12,2,4,2
64.77,0,2,3,7,6,1,0,1
64.775,1,0,1,9,6,0,1,0
64.78,1,0,1,3,0,1,0,2
64.785,1,0,3,2,17,3,3,2
64.79,1,0,2,4,5,1,0,0
64.795,2,1,3,2,0,1,1,1
64.8,1,2,0,3,6,2,2,2
64.805,3,1,1,14,7,0,2,2
64.81,1,1,0,1,9,4,2,3
64.815,1,1,2,0,4,1,1,0
64.82,1,1,2,2,11,2,2,2
64.825,2,1,3,18,19,1,0,2
64.83,1,2,1,9,21,1,2,1
64.835,0,3,10,8,38,3,1,1
64.84,2,2,1,5,13,2,4,3
64.845,0,1,3,15,8,0,0,0
64.85,2,3,4,44,64,4,3,3
64.855,2,0,3,35,60,6,3,1
64.86,3,2,3,8,7,1,1,2
64.865,1,0,0,6,20,2,0,2
64.87,3,1,2,8,36,7,4,1
64.875,1,1,0,19,37,2,0,1
64.88,1,1,2,25,36,2,3,2
64.885,1,0,3,5,14,2,1,2
64.89,3,3,9,21,50,11,5,4
64.895,0,1,1,24,89,2,4,1
64.9,6,6,11,29,99,18,9,8
64.905,0,1,1,30,33,1,2,1
64.91,2,3,6,6,9,2,5,3
64.915,2,2,6,19,17,6,4,2
64.92,4,6,14,2,24,14,9,6
64.925,4,2,7,21,86,16,5,4
64.93,5,4,14,54,94,10,6,2
64.935,4,4,5,22,66,4,8,4
64.94,1,1,2,61,96,5,3,3
64.945,4,2,2,80,59,11,7,4
64.95,6,3,6,19,81,24,9,9
64.955,3,5,8,3,61,17,4,3
64.96,1,3,9,47,46,5,2,1
64.965,6,7,16,74,31,4,6,6
64.97,0,3,3,35,72,17,0,1
64.975,6,8,13,36,58,11,10,8
64.98,0,2,8,100,7,13,2,2
64.985,2,1,5,26,56,6,1,2
64.99,3,3,2,18,30,20,4,2
64.995,2,6,10,9,57,10,4,4
65,7,7,14,11,108,3,3,4
65.005,4,3,5,31,12,19,8,6
65.01,2,2,8,41,34,16,6,0
65.015,5,4,13,84,75,20,2,2
65.02,5,9,19,32,97,19,6,6
65.025,1,1,4,40,8,14,5,2
65.03,0,2,5,14,127,4,1,3
65.035,7,6,6,5,124,27,13,9
65.04,2,2,2,14,10,2,2,4
65.045,6,6,7,6,5,4,6,6
65.05,0,1,3,16,111,18,3,1
65.055,2,2,5,1,9,16,5,3
65.06,0,1,4,19,89,12,2,0
65.065,4,2,2,3,9,24,12,5
65.07,7,4,6,10,13,34,15,11
65.075,1,1,1,45,101,16,2,0
65.08,1,1,12,41,37,4,4,1
65.085,1,1,3,10,47,23,0,1
65.09,0,1,4,3,32,0,1,1
65.095,4,5,15,28,9,8,5,4
65.1,1,1,4,6,48,18,0,1
65.105,3,2,2,8,27,20,1,3
65.11,3,2,0,8,28,4,3,5
65.115,2,4,1,28,33,0,2,4
65.12,1,1,0,16,79,5,0,1
65.125,1,1,1,21,81,17,0,2
65.13,2,2,2,32,14,6,2,1
65.135,0,2,3,1,38,6,4,2
65.14,1,1,5,37,33,0,0,1
65.145,5,5,11,40,45,9,6,5
65.15,2,0,1,3,21,1,1,0
65.155,2,1,0,1,64,1,0,0
65.16,1,0,0,11,40,2,1,0
65.165,3,2,7,1,47,10,3,4
65.17,1,2,4,8,26,6,3,4
65.175,1,1,4,4,22,7,1,0
65.18,4,2,5,3,103,7,2,3
65.185,5,3,11,1,26,9,5,5
65.19,3,2,5,2,28,1,8,6
65.195,2,2,3,15,11,7,3,1
65.2,3,2,3,3,30,5,5,4
65.205,1,1,3,21,9,8,2,3
65.21,2,2,2,8,63,3,2,1
65.215,0,1,3,19,63,5,3,1
65.22,0,4,2,9,45,6,1,1
65.225,3,1,1,7,55,10,7,5
65.23,0,2,3,42,40,4,1,0
65.235,2,4,4,8,3,3,0,3
65.24,1,0,2,1,43,3,0,2
65.245,1,1,0,3,17,0,1,3
65.25,1,0,3,10,63,1,3,1
65.255,3,0,1,12,49,6,2,1
65.26,2,3,5,1,93,3,1,1
65.265,3,1,2,3,37,8,3,2
65.27,1,1,0,10,10,0,4,0
65.275,1,0,2,3,48,1,1,2
65.28,1,3,0,5,34,2,0,1
65.285,0,2,3,11,35,5,0,2
65.29,1,2,0,1,11,1,3,2
65.295,0,0,1,0,19,1,4,4
65.3,1,0,2,8,21,1,3,3
65.305,1,0,1,2,1,2,1,1
65.31,1,1,0,10,10,9,1,0
65.315,1,0,2,0,27,5,1,3
65.32,3,1,1,4,19,2,1,2
65.325,1,3,2,4,1,4,0,0
65.33,1,1,1,6,0,2,1,1
65.335,0,2,3,4,9,4,2,0
65.34,3,1,2,3,5,0,2,0
65.345,2,2,1,4,9,0,0,0
65.35,1,1,1,16,36,1,2,1
65.355,0,3,5,15,7,3,2,1
65.36,1,1,2,1,6,0,3,3
65.365,1,2,1,3,4,4,1,3
65.37,1,2,4,7,9,1,1,1
65.375,1,3,0,3,13,3,2,1
65.38,1,0,2,3,16,3,1,1
65.385,1,1,2,1,3,2,3,4
65.39,0,1,0,6,15,1,0,0
65.395,1,1,1,1,2,2,0,1
65.4,1,2,1,6,21,1,0,1
65.405,3,0,1,5,10,3,3,2
65.41,2,1,4,26,4,0,3,1
65.415,1,2,2,6,9,5,3,1
65.42,1,0,0,2,19,1,2,4
65.425,1,1,3,4,11,1,2,1
65.43,1,1,0,13,12,1,3,1
65.435,0,1,2,27,16,3,1,0
65.44,2,3,4,37,76,11,4,4
65.445,3,0,1,6,28,5,2,1
65.45,0,2,2,6,21,3,0,1
65.455,3,1,1,21,14,5,1,2
65.46,0,1,1,12,19,1,2,1
65.465,2,3,1,12,12,0,1,1
65.47,1,0,4,28,42,2,2,0
65.475,1,2,2,9,25,2,1,3
65.48,0,0,2,4,2,0,2,2
65.485,0,1,3,13,25,0,0,1
65.49,2,0,2,10,17,3,0,0
65.495,2,2,2,0,10,2,0,2
65.5,1,1,3,6,8,1,0,1
65.505,1,1,0,11,6,0,0,1
65.51,1,1,1,8,17,4,2,3
65.515,1,2,3,7,2,2,3,4
65.52,2,1,1,8,10,3,2,1
65.525,1,0,1,5,25,2,0,2
65.53,2,4,10,1,9,2,1,3
65.535,1,0,1,18,15,1,0,1
65.54,2,0,1,3,0,3,3,2
65.545,2,2,1,11,16,2,1,1
65.55,1,2,0,4,13,1,1,1
65.555,0,0,0,5,4,1,1,3
65.56,1,4,5,7,22,2,1,2
65.565,2,0,1,11,51,3,4,4
65.57,3,2,0,10,28,4,1,2
65.575,2,0,2,13,19,1,0,0
65.58,1,0,1,17,26,0,2,1
65.585,1,0,1,6,8,1,1,3
65.59,2,0,1,8,11,2,1,0
65.595,3,4,1,3,3,2,2,0
65.6,1,2,3,3,5,0,1,1
65.605,1,1,1,5,4,1,1,1
65.61,1,2,2,2,1,1,0,1
65.615,1,1,1,5,19,3,2,3
65.62,2,1,0,12,17,0,1,1
65.625,2,0,4,20,16,4,3,2
65.63,1,1,1,6,7,5,4,1
65.635,1,1,1,14,4,0,4,4
65.64,0,0,0,10,17,2,2,1
65.645,2,3,5,6,31,4,1,1
65.65,3,1,0,8,28,2,4,5
65.655,2,2,3,19,6,4,6,2
65.66,0,0,0,4,2,1,0,0
65.665,1,0,2,0,1,1,1,1
65.67,1,2,3,11,18,3,3,1
65.675,1,1,2,16,37,5,3,1
65.68,3,4,7,29,41,3,4,2
65.685,2,0,1,12,9,1,1,1
65.69,0,2,0,4,4,2,2,2
65.695,2,1,1,10,4,4,4,1
65.7,1,2,1,10,11,0,3,2
65.705,3,0,2,10,16,2,1,1
65.71,1,1,1,4,2,2,1,2
65.715,5,1,1,1,11,2,1,3
65.72,0,2,2,7,1,2,2,0
65.725,0,1,0,8,2,0,0,0
65.73,2,1,3,1,7,0,0,0
65.735,4,3,3,22,37,8,2,0
65.74,1,2,0,5,2,0,2,3
65.745,1,1,1,4,10,1,0,0
65.75,3,0,3,4,3,2,1,1
65.755,1,2,2,16,21,2,1,2
65.76,2,1,1,25,62,3,0,2
65.765,1,2,1,1,4,2,1,4
65.77,0,1,1,15,11,1,1,1
65.775,0,1,0,2,12,0,2,2
65.78,2,0,2,7,18,2,1,1
65.785,0,0,0,1,0,4,2,0
65.79,1,1,1,8,25,3,1,0
65.795,1,0,4,3,2,5,0,2
65.8,1,0,2,12,20,1,3,2
65.805,2,1,1,11,4,2,3,3
65.81,1,3,0,7,0,0,0,0
65.815,0,0,1,1,9,3,2,1
65.82,0,0,2,1,5,1,0,1
65.825,0,1,2,9,8,1,1,0
65.83,2,0,0,8,33,0,1,2
65.835,1,2,4,29,44,3,2,0
65.84,2,0,0,8,8,4,4,3
65.845,1,1,2,20,29,4,4,4
65.85,0,0,2,3,7,2,1,1
65.855,0,1,1,6,3,1,0,2
65.86,1,1,4,2,0,2,1,1
65.865,1,1,4,3,2,2,3,1
65.87,1,2,2,5,16,1,3,3
65.875,2,0,2,5,10,0,0,1
65.88,1,1,0,3,12,4,0,0
65.885,0,2,1,14,15,0,1,1
65.89,3,3,8,39,33,8,1,1
65.895,0,1,2,20,37,1,1,0
65.9,2,0,4,19,39,4,2,4
65.905,3,2,4,0,22,3,3,1
65.91,2,1,6,42,66,6,0,2
65.915,2,0,7,59,88,3,2,1
65.92,0,1,6,37,127,9,3,0
65.925,0,1,1,23,25,1,1,1
65.93,5,9,18,65,92,28,11,7
65.935,1,0,7,17,113,3,2,0
65.94,3,3,4,20,128,13,7,2
65.945,4,2,1,20,60,15,8,5
65.95,1,2,9,96,127,5,2,3
65.955,3,3,5,64,64,7,2,1
65.96,12,13,26,44,35,23,19,12
65.965,3,3,7,13,13,15,2,3
65.97,1,2,3,31,9,6,0,1
65.975,6,4,12,21,82,16,11,7
65.98,3,1,8,100,96,4,1,1
65.985,6,7,19,78,93,26,5,7
65.99,7,8,16,1,52,40,10,7
65.995,11,10,18,33,95,63,21,17
66,1,2,1,1,110,8,5,0
66.005,5,3,11,35,37,21,10,4
66.01,3,3,6,20,60,2,2,3
66.015,6,5,5,56,1,7,4,4
66.02,6,7,11,42,1,20,16,10
66.025,11,11,16,35,54,33,24,13
66.03,0,2,1,2,26,5,11,2
66.035,4,7,6,13,127,1,2,6
66.04,0,3,8,17,60,2,1,2
66.045,6,7,4,52,109,16,8,5
66.05,1,3,18,99,8,1,1,1
66.055,4,3,1,42,62,2,5,3
66.06,0,1,6,39,47,14,3,3
66.065,4,1,2,67,35,8,1,4
66.07,3,2,0,13,24,3,9,4
66.075,1,1,6,16,58,18,0,0
66.08,1,1,8,27,25,7,6,0
