11.755,2,2,3,1,0,1,0,2
11.76,0,0,1,3,1,1,0,1
11.765,2,2,3,0,2,3,3,1
11.77,1,2,1,1,1,2,1,2
11.775,3,1,1,0,1,2,1,1
11.78,3,1,1,0,1,1,1,3
11.785,1,0,0,2,1,0,2,1
11.79,0,1,0,1,1,2,0,1
11.795,1,1,2,0,2,2,1,0
11.8,1,0,0,0,0,0,2,2
11.805,2,3,2,1,1,1,2,0
11.81,3,0,1,3,2,3,1,1
11.815,3,0,4,3,1,1,3,3
11.82,0,0,1,2,1,1,2,2
11.825,3,1,1,1,1,0,2,1
11.83,0,2,0,0,0,1,1,3
11.835,0,1,1,0,1,4,2,0
11.84,2,0,2,2,0,1,1,0
11.845,0,3,1,1,2,3,1,3
11.85,2,2,2,1,2,1,0,0
11.855,2,1,0,1,1,1,0,0
11.86,0,2,1,1,3,1,0,0
11.865,0,2,1,1,1,3,2,2
11.87,1,2,2,1,2,1,1,2
11.875,0,3,3,0,1,2,2,2
11.88,1,1,3,0,1,1,1,1
11.885,1,2,0,1,1,2,1,1
11.89,1,2,3,1,1,1,1,1
11.895,1,0,1,2,1,1,1,0
11.9,1,0,2,0,2,2,3,1
11.905,3,3,3,1,3,0,1,2
11.91,1,2,0,1,0,1,3,2
11.915,1,2,0,1,3,1,0,0
11.92,3,1,4,1,1,0,3,0
11.925,0,2,1,1,1,0,2,1
11.93,0,2,0,2,2,3,2,1
11.935,0,1,0,2,1,0,1,1
11.94,3,0,1,1,0,1,0,0
11.945,2,0,1,4,1,0,0,2
11.95,1,2,1,3,1,4,2,2
11.955,1,2,0,0,1,2,0,1
11.96,1,3,1,1,3,2,2,1
11.965,2,1,2,0,1,4,1,1
11.97,1,1,1,2,0,4,3,4
11.975,1,0,0,0,2,5,1,2
11.98,1,2,1,0,5,0,3,2
11.985,1,1,1,4,9,10,6,1
11.99,2,2,0,4,1,4,1,0
11.995,3,0,3,4,5,5,1,1
12,3,1,1,5,1,7,4,4
12.005,1,1,2,2,28,6,8,2
12.01,1,1,2,4,8,2,4,2
12.015,0,1,1,3,12,9,0,2
12.02,1,0,0,3,3,10,4,2
12.025,1,2,1,20,34,11,6,0
12.03,3,1,1,16,66,2,5,3
12.035,1,3,3,3,3,4,5,2
12.04,0,0,5,5,25,1,4,1
12.045,0,1,1,3,16,6,2,3
12.05,4,0,3,4,33,1,1,0
12.055,1,2,1,9,10,1,2,3
12.06,0,2,1,2,8,5,2,1
12.065,1,1,1,8,9,4,4,0
12.07,3,3,3,9,3,2,1,0
12.075,0,1,0,14,7,0,3,1
12.08,0,0,0,2,24,1,3,1
12.085,1,3,1,20,21,0,2,1
12.09,1,1,2,2,31,1,5,2
12.095,1,0,3,3,11,1,2,3
12.1,1,2,0,3,14,0,0,1
12.105,1,1,1,6,7,18,0,0
12.11,2,1,6,20,53,27,4,1
12.115,2,0,1,15,25,9,6,3
12.12,6,3,8,40,74,2,5,5
12.125,3,2,2,12,4,8,7,4
12.13,1,3,6,3,5,8,5,1
12.135,1,0,5,14,4,2,3,2
12.14,4,2,3,33,8,0,4,3
12.145,2,1,1,45,15,2,1,1
12.15,2,7,9,10,1,13,6,5
12.155,1,0,5,3,7,7,7,5
12.16,4,1,2,9,5,2,1,1
12.165,2,0,3,1,20,9,6,3
12.17,2,0,1,13,9,4,2,3
12.175,3,1,2,10,18,0,4,2
12.18,1,1,2,14,19,5,2,2
12.185,4,5,7,17,42,6,6,6
12.19,2,1,3,11,10,2,0,2
12.195,2,3,5,13,23,6,4,5
12.2,1,0,2,15,15,2,0,3
12.205,1,1,1,7,14,1,3,0
12.21,3,0,0,2,29,4,0,2
12.215,5,2,3,3,22,1,4,5
12.22,1,0,2,8,2,1,4,2
12.225,4,4,2,0,35,0,0,2
12.23,2,2,2,4,6,1,1,5
12.235,0,3,1,5,26,0,1,2
12.24,1,2,1,2,7,3,3,2
12.245,1,1,1,5,22,8,1,0
12.25,4,2,0,2,4,4,2,5
12.255,1,1,1,4,4,0,2,4
12.26,3,1,1,5,6,4,1,2
12.265,0,1,2,5,17,2,1,1
12.27,0,3,1,5,7,1,4,2
12.275,0,3,4,2,20,2,0,0
12.28,2,2,3,3,24,4,3,3
12.285,2,0,2,8,11,5,4,3
12.29,1,2,2,0,1,4,1,2
12.295,1,1,1,15,18,1,2,1
12.3,0,1,1,2,18,1,0,1
12.305,1,1,1,3,4,1,3,1
12.31,3,1,1,1,9,6,7,5
12.315,0,1,1,9,25,4,5,2
12.32,1,1,1,4,12,3,0,2
12.325,2,2,2,4,13,3,8,4
12.33,1,0,0,0,0,10,5,1
12.335,2,3,1,0,23,8,4,6
12.34,3,2,3,1,2,2,5,5
12.345,0,2,1,7,40,6,8,4
12.35,1,0,0,2,4,2,1,1
12.355,1,3,3,10,4,6,2,1
12.36,1,2,1,1,12,2,3,3
12.365,3,1,2,4,5,2,1,0
12.37,0,0,2,3,7,5,4,0
12.375,1,28,5,1,0,2,2,1
12.38,0,16,5,4,0,3,1,1
12.385,3,3,4,1,3,2,3,5
12.39,1,1,1,2,1,1,1,1
12.395,6,3,1,0,0,1,0,2
12.4,0,7,2,3,2,3,3,3
12.405,2,4,1,0,3,1,1,1
12.41,1,3,0,1,0,0,7,6
12.415,3,2,7,1,7,5,4,2
12.42,2,2,2,4,13,0,2,0
12.425,3,6,1,3,8,3,4,2
12.43,1,6,6,17,4,7,4,1
12.435,1,8,2,10,76,0,1,0
12.44,2,4,2,12,17,8,11,4
12.445,7,2,14,47,24,3,7,7
12.45,1,3,1,15,102,9,5,3
12.455,2,6,7,17,3,7,4,3
12.46,0,2,0,4,34,5,1,0
12.465,1,2,3,19,0,11,13,5
12.47,1,4,5,27,11,8,3,1
12.475,3,5,4,3,2,2,2,3
12.48,1,2,0,12,14,6,1,2
12.485,0,2,1,14,7,9,2,5
12.49,3,4,6,21,43,1,3,2
12.495,1,0,2,23,55,9,4,1
12.5,1,2,9,18,14,11,14,6
12.505,2,2,2,17,43,1,4,2
12.51,2,2,2,20,59,6,10,1
12.515,5,0,3,12,27,6,7,4
12.52,3,0,3,8,34,15,2,5
12.525,2,4,2,0,32,10,5,0
12.53,3,3,2,12,45,26,6,2
12.535,50,24,38,25,9,0,10,13
12.54,35,21,10,34,11,22,6,6
12.545,11,26,10,85,38,9,1,28
12.55,0,23,13,3,41,1,3,17
12.555,13,5,2,0,83,16,7,9
12.56,22,42,5,18,73,0,4,27
12.565,8,11,4,13,16,4,0,18
12.57,5,11,5,1,14,11,12,11
12.575,7,22,3,5,13,3,5,8
12.58,11,27,4,0,40,2,2,4
12.585,4,1,4,1,51,2,3,8
12.59,0,4,0,1,38,5,2,2
12.595,6,5,1,1,19,0,2,5
12.6,7,9,2,3,20,2,4,3
12.605,4,2,4,10,4,3,7,6
12.61,2,3,2,5,14,1,2,4
12.615,0,5,1,4,8,7,5,1
12.62,7,13,6,11,14,4,4,4
12.625,2,3,3,5,1,2,1,1
12.63,1,1,4,13,12,4,3,1
12.635,0,1,2,3,19,2,0,3
12.64,0,3,1,11,45,0,3,4
12.645,2,1,3,6,12,6,1,0
12.65,2,4,2,17,10,0,2,2
12.655,3,3,5,21,28,5,4,0
12.66,1,0,1,17,79,1,3,2
12.665,5,2,4,36,66,7,3,3
12.67,0,4,9,41,89,9,1,0
12.675,4,4,7,0,63,13,3,5
12.68,0,1,6,5,31,2,1,0
12.685,2,8,4,12,76,6,6,1
12.69,1,1,4,29,128,14,1,0
12.695,2,4,9,20,72,15,6,3
12.7,3,0,5,16,46,7,8,4
12.705,3,0,1,8,84,6,1,2
12.71,1,1,0,17,61,6,1,1
12.715,3,1,1,41,104,24,0,4
12.72,4,2,2,54,47,34,2,3
12.725,8,7,18,27,58,27,8,9
12.73,3,1,6,12,21,2,4,1
12.735,3,3,12,40,121,20,4,4
12.74,5,7,17,96,105,28,7,3
12.745,3,7,7,41,102,3,1,1
12.75,17,9,3,8,68,13,17,14
12.755,6,3,23,39,109,15,7,5
12.76,1,6,7,53,43,13,12,1
12.765,1,1,11,53,50,40,12,5
12.77,2,2,2,47,77,47,2,3
12.775,1,0,1,45,127,31,4,1
12.78,12,9,18,3,57,33,16,13
12.785,4,2,3,79,94,26,16,7
12.79,7,6,4,33,30,22,12,10
12.795,7,16,36,36,78,45,4,6
12.8,1,7,16,24,8,75,5,0
12.805,0,3,6,51,127,7,13,5
12.81,3,13,61,64,17,15,6,1
12.815,1,4,5,15,56,6,2,1
12.82,7,11,34,93,113,31,6,6
12.825,3,3,5,0,91,10,2,5
12.83,3,6,13,15,79,42,6,4
12.835,2,3,17,43,34,5,1,3
12.84,2,0,1,5,56,50,22,12
12.845,4,5,9,61,106,4,9,5
12.85,6,6,17,16,105,12,10,3
12.855,5,3,5,22,35,4,5,2
12.86,1,0,1,18,117,7,2,2
12.865,5,3,11,37,30,10,8,8
12.87,1,0,6,5,31,13,3,1
12.875,3,0,2,44,86,9,1,2
12.88,2,2,9,34,18,3,3,2
12.885,3,3,8,5,73,19,6,5
12.89,7,5,4,12,41,40,18,10
12.895,4,5,6,25,46,26,6,2
12.9,1,4,7,22,11,24,9,2
12.905,1,1,1,42,119,8,1,2
12.91,5,1,2,11,4,0,14,7
12.915,13,8,26,39,73,11,10,12
12.92,0,1,0,15,82,2,6,2
12.925,6,6,12,38,41,25,10,7
12.93,1,1,2,25,26,0,9,5
12.935,3,4,7,4,45,8,7,3
12.94,9,6,4,10,44,33,11,8
12.945,4,2,0,10,78,10,3,3
12.95,4,1,3,3,94,2,0,1
12.955,0,3,3,2,58,11,2,2
12.96,1,0,2,1,38,14,9,4
12.965,1,2,1,14,56,26,6,1
12.97,4,1,0,15,94,3,2,4
12.975,5,5,4,14,80,5,9,10
12.98,4,4,0,8,76,5,7,8
12.985,6,2,2,37,85,18,10,9
12.99,2,2,7,19,35,33,5,2
12.995,1,2,4,11,101,12,5,2
13,1,4,3,4,7,9,4,10
13.005,2,2,3,11,26,17,8,7
13.01,9,1,3,8,7,8,5,7
13.015,2,1,3,4,9,8,0,6
13.02,6,1,1,21,23,6,4,0
13.025,6,2,3,21,9,5,5,15
13.03,1,6,8,11,44,8,0,11
13.035,5,3,1,25,8,1,7,0
13.04,24,6,4,12,12,1,3,59
13.045,13,5,1,7,67,2,3,54
13.05,35,12,6,4,3,1,5,6
13.055,42,6,0,14,17,2,4,9
13.06,3,10,5,6,4,5,3,30
13.065,19,4,3,1,17,8,11,53
13.07,2,1,1,11,25,7,10,24
13.075,2,2,2,17,31,4,1,4
13.08,4,1,0,26,5,0,4,5
13.085,9,2,1,10,13,2,2,24
13.09,1,11,2,21,23,7,8,69
13.095,26,5,1,22,4,4,0,13
13.1,10,7,2,21,70,2,2,28
13.105,5,2,4,12,17,6,7,19
13.11,39,2,6,0,19,9,15,12
13.115,27,0,4,8,7,8,5,19
13.12,56,70,7,2,10,3,16,47
13.125,9,66,12,9,2,2,8,68
13.13,58,19,0,10,1,1,0,101
13.135,36,6,4,1,4,7,6,91
13.14,4,17,9,10,22,12,15,17
13.145,26,3,1,3,7,3,5,6
13.15,4,3,2,11,10,1,2,7
13.155,1,11,0,4,75,7,5,31
13.16,8,27,5,0,50,6,6,26
13.165,14,5,1,7,26,1,1,3
13.17,19,3,4,4,44,8,4,8
13.175,11,6,4,4,4,5,1,5
13.18,10,6,4,16,23,3,5,6
13.185,6,4,4,9,51,1,2,9
13.19,4,21,2,3,6,1,2,13
13.195,2,0,1,1,16,1,1,5
13.2,1,0,2,4,18,3,3,7
13.205,1,2,1,4,1,1,1,3
13.21,4,0,0,4,7,0,2,3
13.215,3,1,1,8,28,1,0,3
13.22,4,1,3,13,56,5,0,1
13.225,1,3,1,12,16,1,1,5
13.23,3,0,1,15,37,4,0,3
13.235,0,1,1,4,9,3,3,2
13.24,0,2,1,2,5,4,4,1
13.245,3,0,1,1,3,1,1,2
13.25,1,3,0,1,3,0,1,1
13.255,2,1,1,6,3,3,1,2
13.26,1,2,2,4,30,2,0,2
13.265,1,7,1,15,32,5,2,0
13.27,0,2,0,21,57,4,1,3
13.275,1,1,1,3,39,1,0,1
13.28,0,4,1,2,16,2,0,1
13.285,2,3,0,4,8,1,1,3
13.29,2,0,1,9,61,3,4,1
13.295,3,3,3,0,12,1,5,2
13.3,3,2,0,13,15,1,2,1
13.305,2,0,2,18,73,3,0,1
13.31,2,0,3,17,13,4,3,5
13.315,1,1,1,2,0,1,1,0
13.32,0,0,0,12,55,2,1,2
13.325,0,1,2,15,5,5,2,0
13.33,5,5,4,0,51,12,7,5
13.335,1,1,1,32,91,2,1,0
13.34,1,4,3,6,16,2,4,3
13.345,3,1,1,1,9,0,4,0
13.35,1,2,4,16,81,13,7,4
13.355,2,3,4,27,45,13,6,1
13.36,0,0,2,8,49,3,2,4
13.365,1,2,0,1,21,2,1,5
13.37,2,0,2,38,121,8,5,0
13.375,3,5,4,89,127,13,0,4
13.38,1,2,9,58,5,4,8,3
13.385,0,1,3,22,47,7,0,1
13.39,4,1,6,7,55,14,3,3
13.395,0,2,2,11,22,6,3,2
13.4,1,2,2,23,101,10,4,1
13.405,0,4,3,4,65,6,10,3
13.41,4,6,0,17,0,5,17,6
13.415,2,1,1,7,103,17,1,1
13.42,5,8,11,6,74,5,6,7
13.425,0,3,6,8,83,19,2,0
13.43,0,4,1,21,89,41,2,0
13.435,6,5,9,20,65,30,3,6
13.44,7,7,14,63,32,6,14,10
13.445,8,7,13,52,69,6,9,9
13.45,8,11,13,55,93,31,16,8
13.455,2,1,1,38,127,19,13,4
13.46,3,8,18,45,48,29,9,1
13.465,4,6,4,43,3,16,3,2
13.47,1,7,19,12,5,19,13,6
13.475,5,5,20,13,128,4,8,4
13.48,15,11,18,65,92,38,23,16
13.485,7,9,25,58,127,18,7,6
13.49,6,5,4,84,128,1,10,8
13.495,7,3,11,77,127,17,10,10
13.5,5,6,17,84,116,33,4,7
13.505,1,2,1,37,51,6,9,4
13.51,1,0,6,43,80,27,9,3
13.515,1,0,5,29,7,1,6,1
13.52,1,4,14,27,40,27,0,0
13.525,0,5,45,20,128,7,7,3
13.53,0,0,2,42,104,29,4,1
13.535,0,0,21,78,49,14,1,1
13.54,8,3,13,38,97,18,11,5
13.545,13,4,2,52,91,3,12,10
13.55,0,2,3,27,9,25,3,0
13.555,4,4,0,10,38,3,5,7
13.56,2,1,3,4,9,14,6,2
13.565,1,5,0,20,7,25,2,3
13.57,2,2,8,2,70,19,2,2
13.575,1,0,3,8,94,15,5,3
13.58,2,2,1,13,36,7,1,1
13.585,5,6,4,8,111,5,5,5
13.59,5,3,15,5,0,14,2,4
13.595,1,0,6,28,59,19,4,1
13.6,2,2,2,5,76,6,1,2
13.605,1,4,3,11,26,19,9,3
13.61,0,3,8,4,37,17,5,5
13.615,5,0,3,2,23,28,7,3
13.62,10,8,10,39,127,21,8,6
13.625,2,3,5,28,68,15,2,5
13.63,2,2,3,20,81,36,5,1
13.635,4,3,6,27,22,7,12,6
13.64,1,1,2,27,79,1,3,0
13.645,4,2,2,17,19,26,6,3
13.65,3,1,6,14,68,23,6,3
13.655,2,1,1,14,26,36,4,2
13.66,5,2,5,9,28,5,6,2
13.665,3,1,2,1,107,8,1,0
13.67,0,2,1,1,23,45,9,2
13.675,1,1,8,36,8,23,7,4
13.68,2,2,2,6,65,12,2,3
13.685,3,2,0,12,110,20,3,1
13.69,4,5,8,25,100,23,8,4
13.695,1,0,1,31,24,5,0,1
13.7,5,3,9,2,44,2,0,2
13.705,4,2,2,30,58,1,2,6
13.71,0,1,0,5,18,0,5,2
13.715,1,2,3,10,13,2,1,2
13.72,4,0,1,7,55,5,2,2
13.725,2,1,1,2,10,2,5,3
13.73,3,4,11,11,66,6,7,7
13.735,2,1,1,16,58,9,5,1
13.74,2,1,3,18,29,8,1,1
13.745,1,2,2,15,45,10,0,1
13.75,1,1,2,8,4,4,5,4
13.755,4,2,1,22,57,2,2,2
13.76,0,1,0,16,65,4,0,2
13.765,0,2,0,12,13,5,4,4
13.77,3,1,3,6,17,2,2,2
13.775,3,1,3,3,24,8,4,1
13.78,0,0,0,15,67,4,2,2
13.785,0,3,1,9,2,8,1,0
13.79,6,6,2,13,35,4,2,2
13.795,3,3,1,2,7,4,3,7
13.8,1,1,0,9,23,3,2,7
13.805,1,0,0,5,22,5,0,2
13.81,1,0,5,22,17,0,3,0
13.815,3,2,1,10,40,1,5,27
13.82,22,1,2,1,7,1,2,40
13.825,32,4,0,4,43,4,5,16
13.83,3,2,1,12,19,3,3,9
13.835,3,1,3,8,1,5,0,0
13.84,9,3,1,6,6,5,4,10
13.845,4,7,2,13,32,3,2,11
13.85,41,1,2,10,5,1,4,10
13.855,15,0,1,15,8,3,7,47
13.86,13,1,1,5,4,1,0,38
13.865,24,4,1,3,9,2,1,5
13.87,25,15,2,15,1,1,3,12
13.875,38,26,7,15,78,3,8,36
13.88,19,7,2,12,20,3,6,13
13.885,4,13,4,2,1,3,2,8
13.89,6,8,3,8,38,1,2,19
13.895,6,7,3,16,11,5,3,20
13.9,19,4,8,43,9,10,9,50
13.905,12,2,3,6,2,1,8,2
13.91,32,3,1,2,11,1,1,2
13.915,2,6,4,3,13,4,0,14
13.92,4,3,0,3,0,2,1,16
13.925,8,4,2,1,5,0,0,4
13.93,11,4,2,8,6,2,0,14
13.935,9,6,2,7,12,0,1,8
13.94,9,8,3,5,3,1,2,1
13.945,6,10,2,6,3,0,0,2
13.95,12,5,2,2,8,2,2,25
13.955,1,2,1,5,18,3,4,20
13.96,10,1,0,3,13,2,2,7
13.965,15,1,3,10,54,2,3,8
13.97,13,2,3,31,81,7,3,2
13.975,4,8,2,12,18,0,1,9
13.98,1,3,1,13,4,5,3,12
13.985,1,2,0,11,61,1,3,5
13.99,15,1,0,24,88,0,3,11
13.995,2,3,2,22,57,1,1,9
14,9,1,3,1,41,5,4,1
14.005,8,1,1,9,43,9,1,2
14.01,1,1,0,8,13,3,0,0
14.015,5,3,2,9,17,1,0,3
14.02,1,4,1,7,1,3,5,5
14.025,6,1,3,4,2,3,3,5
14.03,4,3,1,5,8,4,3,5
14.035,1,4,2,1,12,1,1,3
14.04,3,2,2,9,5,3,3,1
14.045,2,1,2,10,17,0,2,1
14.05,1,3,3,3,7,2,0,6
14.055,1,1,0,6,20,2,1,5
14.06,2,2,3,8,4,2,3,3
14.065,2,1,2,13,13,3,2,2
14.07,7,7,3,20,7,3,5,7
14.075,2,1,3,8,50,2,0,3
14.08,0,3,3,5,26,6,2,4
14.085,1,1,3,8,9,3,1,0
14.09,5,2,3,1,38,3,1,4
14.095,1,2,3,4,53,1,2,1
14.1,2,1,0,4,50,0,0,3
14.105,0,3,4,2,15,0,2,1
14.11,2,0,1,9,9,0,1,0
14.115,1,2,2,5,3,1,0,0
14.12,3,0,3,3,4,0,1,3
14.125,3,1,1,4,10,3,2,1
14.13,2,2,2,11,37,5,3,3
14.135,0,1,1,7,34,1,3,3
14.14,1,1,2,28,67,5,3,3
14.145,1,0,1,3,16,0,1,0
14.15,2,1,0,4,2,3,1,0
14.155,1,1,0,2,1,0,3,0
14.16,1,1,2,1,21,0,1,2
14.165,1,1,1,14,23,1,3,1
14.17,1,3,2,15,5,2,3,2
14.175,1,0,0,7,56,4,3,3
14.18,2,1,2,5,23,1,1,1
14.185,0,2,2,9,2,1,1,0
14.19,2,2,4,1,36,2,3,4
14.195,1,1,2,5,2,1,0,1
14.2,0,2,1,12,34,1,0,2
14.205,1,2,3,9,22,3,5,5
14.21,0,0,1,2,0,2,1,1
14.215,1,4,1,3,12,5,3,0
14.22,1,1,2,9,1,0,1,2
14.225,1,1,2,8,24,1,4,3
14.23,4,4,12,37,72,7,4,5
14.235,4,3,0,2,69,8,6,4
14.24,1,2,2,10,10,4,0,2
14.245,3,4,3,3,50,0,5,3
14.25,1,1,2,7,56,6,4,1
14.255,1,1,1,3,10,1,1,3
14.26,3,0,4,5,34,9,6,3
14.265,1,3,7,9,67,5,2,2
14.27,1,1,3,16,47,2,1,2
14.275,3,3,3,5,81,3,5,2
14.28,1,2,4,13,55,4,3,1
14.285,3,1,2,18,69,12,7,3
14.29,3,6,11,77,80,20,7,6
14.295,3,1,1,13,10,1,0,1
14.3,1,1,1,24,81,4,7,0
14.305,1,2,3,22,21,11,6,3
14.31,4,5,5,41,90,1,6,6
14.315,4,4,2,1,24,3,2,3
14.32,6,5,4,23,17,0,4,5
14.325,2,4,2,6,39,4,1,2
14.33,1,3,7,0,84,1,3,0
14.335,8,8,13,14,101,5,11,7
14.34,4,4,9,48,60,14,9,5
14.345,0,1,6,56,25,13,5,2
14.35,2,1,0,4,2,15,5,3
14.355,10,9,11,2,10,20,13,11
14.36,7,2,0,39,55,4,8,5
14.365,5,4,0,41,4,2,11,4
14.37,6,5,1,45,91,16,12,9
14.375,1,2,2,27,48,11,4,3
14.38,5,5,6,40,1,26,10,6
14.385,3,2,2,22,75,18,3,4
14.39,6,7,12,3,62,20,10,4
14.395,7,6,9,22,5,3,16,11
14.4,4,2,6,10,111,14,1,4
14.405,7,9,5,48,56,15,16,8
14.41,0,5,1,8,75,11,4,5
14.415,0,3,3,17,104,10,1,1
14.42,1,0,3,1,81,37,8,2
14.425,5,1,4,31,0,2,10,6
14.43,6,4,3,5,22,37,13,9
14.435,4,4,11,38,40,17,1,1
14.44,9,8,12,78,50,40,11,9
14.445,4,6,8,12,2,32,8,6
14.45,1,0,2,50,55,7,3,1
14.455,3,3,8,67,7,22,11,6
14.46,3,3,6,49,41,2,0,1
14.465,4,2,0,0,29,32,8,6
14.47,2,2,3,6,5,1,7,2
14.475,5,3,18,5,88,5,3,4
14.48,2,2,6,26,124,4,8,3
14.485,2,4,10,42,128,14,4,2
14.49,0,7,6,64,3,15,3,1
14.495,1,2,3,46,104,7,0,2
14.5,3,4,5,23,60,4,5,4
14.505,0,7,28,26,4,9,8,3
14.51,4,3,7,23,112,23,10,2
14.515,2,5,9,3,5,18,6,4
14.52,3,4,5,17,124,28,2,4
14.525,5,3,0,7,2,5,6,5
14.53,2,2,2,9,9,25,2,1
14.535,3,2,5,2,88,21,5,1
14.54,1,0,7,19,18,7,6,1
14.545,1,2,8,2,12,4,1,1
14.55,1,2,0,1,38,10,2,2
14.555,0,2,0,23,90,5,1,3
14.56,0,0,4,5,10,19,1,3
14.565,3,1,2,18,41,8,4,2
14.57,0,2,1,37,8,11,1,1
14.575,3,3,4,33,112,12,1,2
14.58,2,5,6,3,64,3,6,3
14.585,1,1,3,20,69,13,1,1
14.59,3,0,2,13,43,11,1,0
14.595,1,0,4,36,35,4,1,0
14.6,0,1,2,20,6,2,1,2
14.605,0,1,2,14,18,13,1,1
14.61,4,3,7,9,28,17,5,3
14.615,1,0,2,12,16,11,2,7
14.62,4,4,5,6,31,15,7,3
14.625,1,1,1,6,45,2,3,1
14.63,2,5,10,39,46,2,3,1
14.635,0,1,0,27,4,3,4,1
14.64,3,0,0,20,95,1,1,1
14.645,3,1,6,12,83,5,0,3
14.65,2,3,3,12,54,9,3,2
14.655,1,4,4,4,40,5,0,1
14.66,2,1,1,3,52,11,2,1
14.665,1,0,2,23,39,19,7,0
14.67,0,2,3,8,19,3,3,1
14.675,2,4,3,9,19,8,2,3
14.68,1,1,0,5,29,2,1,0
14.685,0,0,4,5,18,1,1,2
14.69,1,2,2,11,4,1,3,3
14.695,3,2,3,1,30,7,5,4
14.7,2,0,2,8,64,1,2,0
14.705,4,3,3,16,20,9,5,3
14.71,0,0,1,1,6,2,6,2
14.715,1,1,0,3,6,4,0,1
14.72,1,0,1,8,69,4,4,1
14.725,1,2,5,3,51,2,3,2
14.73,0,1,2,18,9,9,3,3
14.735,0,3,3,4,8,6,3,2
14.74,6,2,2,6,9,3,4,6
14.745,5,0,0,11,37,1,1,3
14.75,2,0,1,13,2,2,3,4
14.755,1,2,0,5,12,1,1,5
14.76,15,2,3,1,12,3,5,3
14.765,10,6,3,9,9,3,2,10
14.77,10,8,4,0,16,0,3,13
14.775,1,7,0,1,1,3,5,33
14.78,104,11,1,10,9,4,0,51
14.785,12,15,3,7,4,1,1,80
14.79,42,9,6,7,7,4,4,102
14.795,30,1,3,5,35,2,1,29
14.8,102,19,5,8,44,4,3,18
14.805,65,21,5,9,18,6,9,68
14.81,31,14,3,21,11,1,10,119
14.815,11,1,8,50,91,12,6,34
14.82,16,4,1,13,21,1,0,15
14.825,24,20,4,3,5,3,4,27
14.83,5,5,3,3,9,1,1,1
14.835,0,1,0,10,56,5,4,9
14.84,8,6,1,0,21,1,1,30
14.845,25,8,4,20,54,12,9,7
14.85,14,3,3,4,24,4,7,22
14.855,5,5,0,6,6,4,6,32
14.86,11,11,2,9,5,2,3,6
14.865,10,3,5,13,27,3,2,2
14.87,12,6,1,6,9,2,3,4
14.875,3,8,3,8,14,4,2,12
14.88,6,2,4,7,36,1,0,6
14.885,9,0,2,18,57,6,2,14
14.89,11,2,2,17,89,7,5,16
14.895,5,4,1,8,21,1,1,1
14.9,6,0,1,4,58,4,6,0
14.905,9,1,3,22,55,8,3,1
14.91,9,2,1,1,0,9,4,3
14.915,5,2,1,1,21,3,2,7
14.92,2,0,1,20,36,2,1,2
14.925,3,4,4,30,36,4,3,3
14.93,2,2,0,6,55,2,1,0
14.935,4,0,1,4,14,4,1,4
14.94,4,4,4,3,11,3,2,7
14.945,10,6,5,19,15,12,5,0
14.95,6,1,2,12,1,2,0,1
14.955,4,3,0,12,2,2,0,2
14.96,1,3,4,10,11,3,2,2
14.965,3,2,1,2,13,5,3,1
14.97,3,0,1,6,9,3,2,0
14.975,2,3,2,4,24,0,3,4
14.98,3,1,2,32,96,8,4,4
14.985,2,2,0,6,24,1,3,4
14.99,2,1,3,1,22,3,1,3
14.995,2,2,3,7,12,3,1,1
15,1,2,1,8,11,0,0,2
15.005,4,1,3,3,28,3,2,2
15.01,3,0,0,4,21,3,2,1
15.015,2,4,2,3,39,2,1,3
15.02,3,2,2,6,15,6,4,3
15.025,1,2,3,3,32,1,1,1
15.03,3,1,4,17,51,0,0,1
15.035,2,3,4,16,30,6,3,2
15.04,1,3,0,17,42,3,0,2
15.045,1,3,1,13,14,1,0,2
15.05,2,2,0,3,30,3,1,0
15.055,1,1,0,7,17,2,1,2
15.06,3,5,6,0,3,3,4,3
15.065,0,1,2,7,15,1,1,2
15.07,1,1,4,7,25,3,2,2
15.075,1,1,0,3,17,2,0,1
15.08,1,3,2,2,6,0,2,1
15.085,2,3,1,6,31,3,6,4
15.09,1,2,5,6,3,4,3,4
15.095,1,0,2,14,55,4,1,2
15.1,1,1,1,6,13,1,1,4
15.105,4,1,0,0,20,1,0,0
15.11,1,1,4,8,0,2,0,1
15.115,0,3,3,4,3,2,2,2
15.12,1,2,1,0,40,4,2,2
15.125,2,2,3,5,18,4,2,4
15.13,2,2,2,2,3,4,6,5
15.135,1,2,2,2,12,2,2,4
15.14,0,0,1,14,72,4,3,1
15.145,1,2,1,0,9,0,1,0
15.15,3,1,2,3,0,2,0,0
15.155,2,2,4,11,19,1,3,2
15.16,2,1,0,3,3,3,2,2
15.165,2,1,3,6,9,2,1,2
15.17,1,2,1,12,27,1,0,2
15.175,0,2,3,19,4,1,0,2
15.18,1,3,1,4,3,2,3,2
15.185,1,2,4,2,25,1,1,1
15.19,2,1,5,12,23,6,1,2
15.195,4,1,0,1,51,1,5,3
15.2,1,1,2,14,4,3,2,1
15.205,1,1,1,1,5,2,1,1
15.21,1,1,0,7,46,5,1,1
15.215,2,1,1,3,60,0,1,3
15.22,1,1,0,5,15,3,1,3
15.225,4,2,4,8,27,9,6,3
15.23,1,1,1,1,25,4,5,1
15.235,1,0,1,1,16,7,1,0
15.24,0,0,1,7,23,3,0,0
15.245,0,0,3,1,26,2,3,1
15.25,2,1,2,11,12,3,2,2
15.255,3,0,2,11,13,4,4,2
15.26,0,0,1,22,100,3,1,6
15.265,5,4,5,49,98,13,3,6
15.27,1,0,0,37,70,3,3,3
15.275,4,5,4,39,127,2,3,3
15.28,0,1,1,2,1,6,1,4
15.285,1,2,0,17,9,4,2,2
15.29,1,3,2,10,35,3,2,1
15.295,1,1,2,20,91,10,0,1
15.3,7,1,8,22,38,2,5,3
15.305,0,4,2,3,10,5,2,1
15.31,5,7,6,35,25,1,5,4
15.315,1,1,3,26,55,1,0,4
15.32,3,3,3,12,20,0,5,1
15.325,2,0,0,11,2,11,6,2
15.33,2,0,6,46,44,8,7,3
15.335,1,0,8,14,11,7,8,0
15.34,2,7,10,15,105,18,10,4
15.345,3,1,3,10,10,13,1,0
15.35,5,1,1,56,102,5,2,2
15.355,1,2,2,67,35,11,2,2
15.36,2,2,2,9,44,13,3,1
15.365,4,1,3,33,29,8,4,2
15.37,6,8,14,65,37,9,2,6
15.375,3,0,4,42,59,28,11,4
15.38,6,2,5,23,64,44,10,4
15.385,1,1,2,4,34,30,8,3
15.39,5,4,7,52,128,12,6,4
15.395,2,1,6,31,110,14,1,1
15.4,2,1,1,28,37,22,4,5
15.405,3,6,6,14,43,40,0,3
15.41,3,8,7,2,69,9,2,4
15.415,5,10,15,29,31,19,12,5
15.42,3,2,12,77,93,24,3,2
15.425,3,1,5,6,20,1,7,2
15.43,8,6,4,17,23,12,7,9
15.435,1,3,0,12,14,6,3,0
15.44,1,0,11,23,75,3,6,0
15.445,3,3,2,12,100,2,2,1
15.45,2,2,1,6,40,1,0,7
15.455,0,3,5,13,35,4,9,4
15.46,1,5,16,0,2,6,6,4
15.465,3,1,1,38,109,8,0,4
15.47,3,5,4,18,69,6,11,7
15.475,1,1,17,29,81,20,3,1
15.48,5,4,8,39,83,2,1,2
15.485,5,3,9,35,127,26,13,7
15.49,10,1,1,37,14,3,18,9
15.495,2,1,7,16,63,3,3,5
15.5,8,8,15,27,65,52,15,9
15.505,2,0,4,4,32,52,7,6
15.51,0,2,4,85,110,29,7,0
15.515,4,4,1,2,39,13,3,2
15.52,2,1,7,28,41,1,3,2
15.525,3,3,4,8,27,5,1,0
15.53,3,4,7,36,6,0,5,5
15.535,0,3,11,46,90,8,3,3
15.54,3,1,8,51,74,6,6,1
15.545,1,0,4,12,87,1,5,1
15.55,3,1,3,24,16,33,8,6
15.555,7,6,5,46,108,7,5,8
15.56,1,0,9,3,99,3,4,5
15.565,1,3,3,60,68,12,3,1
15.57,3,3,1,10,124,5,1,1
15.575,2,5,4,9,110,4,0,1
15.58,5,4,5,15,12,13,2,1
15.585,2,2,2,14,21,21,0,1
15.59,1,0,5,2,11,5,0,0
15.595,5,3,9,59,63,2,2,4
15.6,2,2,1,20,69,12,8,1
15.605,1,0,6,14,50,1,2,0
15.61,2,3,0,9,69,2,1,2
15.615,3,0,1,20,12,13,3,1
15.62,1,2,6,14,3,16,2,2
15.625,2,4,1,11,29,5,2,0
15.63,3,0,4,2,70,4,4,2
15.635,3,3,0,30,72,10,7,5
15.64,2,0,4,0,58,15,1,3
15.645,5,8,7,13,81,9,7,5
15.65,1,3,4,20,0,4,3,2
15.655,3,3,4,9,9,35,9,5
15.66,3,2,5,18,94,23,2,1
15.665,0,3,0,5,36,21,5,2
15.67,2,3,9,32,40,13,8,1
15.675,3,2,5,27,60,2,2,3
15.68,2,2,1,1,9,2,1,0
15.685,0,3,5,11,23,6,0,2
15.69,3,1,1,2,79,4,8,6
15.695,4,1,3,5,69,9,1,1
15.7,0,1,0,3,5,17,2,1
15.705,1,2,1,9,15,15,0,2
15.71,0,1,2,8,12,3,3,3
15.715,3,1,1,23,30,15,2,3
15.72,2,2,1,8,46,6,5,1
15.725,2,2,2,0,36,3,5,1
15.73,0,0,1,11,13,3,0,1
15.735,2,1,0,19,39,7,3,0
15.74,1,2,1,3,63,6,5,2
15.745,5,3,1,6,8,12,7,2
15.75,1,3,2,3,100,13,0,1
15.755,1,2,3,18,17,12,0,1
15.76,3,1,1,14,77,3,2,3
15.765,0,0,2,16,30,2,2,2
15.77,0,1,2,1,12,3,1,1
15.775,3,1,1,11,3,11,5,8
15.78,1,2,0,9,30,6,0,5
15.785,1,1,2,4,50,5,0,4
15.79,1,5,0,12,11,3,0,1
15.795,3,0,4,6,6,3,2,21
15.8,2,1,1,2,16,5,2,2
15.805,8,4,0,9,10,5,2,1
15.81,4,1,2,0,12,3,2,4
15.815,4,1,1,17,42,2,1,15
15.82,12,1,3,3,8,0,2,5
15.825,19,1,2,6,22,4,5,2
15.83,2,1,0,8,33,1,3,6
15.835,1,1,1,9,0,1,1,25
15.84,4,2,1,3,46,3,3,8
15.845,10,3,3,2,15,2,3,34
15.85,7,3,2,3,2,3,4,5
15.855,12,0,2,6,9,4,3,4
15.86,26,0,4,39,90,7,8,2
15.865,1,9,1,6,10,2,2,2
15.87,15,3,4,0,0,0,1,0
15.875,14,0,1,7,11,0,3,24
15.88,17,7,2,9,24,1,1,8
15.885,20,6,3,1,18,2,7,29
15.89,14,20,7,3,34,1,7,31
15.895,8,5,1,5,17,2,6,14
15.9,3,3,0,4,12,3,1,5
15.905,1,6,2,2,4,1,2,12
15.91,3,22,6,1,7,2,4,1
15.915,20,41,1,6,3,4,1,2
15.92,2,6,1,4,15,2,1,0
15.925,10,20,4,6,3,2,4,9
15.93,2,10,3,13,20,4,0,3
15.935,9,5,1,0,5,2,2,12
15.94,14,0,4,19,23,4,1,9
15.945,4,12,2,11,10,4,6,4
15.95,7,3,3,4,1,2,3,4
15.955,7,13,2,15,4,1,4,6
15.96,7,4,0,4,8,0,3,3
15.965,1,0,1,2,33,0,5,2
15.97,2,1,2,1,5,2,4,3
15.975,1,3,0,6,1,1,1,1
15.98,7,5,0,8,29,2,0,4
15.985,5,11,3,8,30,1,0,7
15.99,2,4,3,9,4,4,5,10
15.995,14,7,0,7,6,1,3,0
16,2,0,0,3,22,1,1,0
16.005,5,2,3,12,55,5,3,4
16.01,5,2,1,19,10,0,0,4
16.015,8,7,5,3,22,5,3,3
16.02,1,0,3,16,9,1,1,0
16.025,4,5,2,2,17,0,2,0
16.03,8,3,0,12,13,4,3,9
16.035,3,2,1,6,16,4,3,2
16.04,0,3,2,0,6,1,0,2
16.045,2,0,1,15,1,4,2,1
16.05,0,2,4,3,14,3,3,0
16.055,2,2,1,34,4,4,0,2
16.06,1,2,2,17,22,1,0,1
16.065,4,1,2,23,87,3,5,3
16.07,1,0,1,14,16,4,3,2
16.075,0,5,1,11,18,2,3,0
16.08,1,3,1,0,10,1,2,2
16.085,1,3,1,18,35,3,3,1
16.09,1,1,2,4,19,3,1,0
16.095,4,2,0,7,8,0,2,3
16.1,2,1,0,9,15,6,4,4
16.105,1,0,2,9,1,0,1,1
16.11,1,0,1,3,6,1,1,1
16.115,1,2,0,1,12,4,0,1
16.12,2,0,1,1,8,0,1,0
16.125,0,0,0,7,1,2,3,2
16.13,4,0,2,5,35,7,2,1
16.135,4,1,4,7,0,2,2,2
16.14,0,0,2,7,5,4,0,0
16.145,3,6,0,17,7,4,5,1
16.15,0,3,1,7,8,3,0,2
16.155,1,1,1,3,7,3,3,1
16.16,1,2,2,6,0,9,4,4
16.165,2,3,0,2,5,4,2,2
16.17,2,5,4,13,40,2,2,1
16.175,1,4,5,16,42,1,0,1
16.18,2,2,3,12,39,2,3,5
16.185,2,1,1,5,17,5,2,0
16.19,3,1,4,2,17,1,2,2
16.195,2,0,2,10,0,1,2,0
16.2,1,3,1,2,6,4,2,0
16.205,2,0,2,3,3,1,0,2
16.21,1,3,4,9,31,4,2,3
16.215,0,1,1,12,35,2,1,2
16.22,1,2,2,10,57,6,2,2
16.225,1,0,0,0,5,2,1,1
16.23,4,2,2,8,25,3,0,2
16.235,0,1,3,4,3,2,2,2
16.24,1,1,1,15,28,1,0,3
16.245,3,1,2,14,30,4,0,1
16.25,2,0,1,5,9,2,0,1
16.255,3,1,1,3,8,2,2,1
16.26,0,1,1,2,22,0,3,3
16.265,1,0,2,21,7,2,2,1
16.27,4,3,5,54,54,0,1,1
16.275,0,2,0,15,21,0,1,2
16.28,4,3,3,3,14,1,5,2
16.285,2,2,2,4,6,2,3,0
16.29,1,0,1,9,27,0,2,0
16.295,1,2,2,9,64,4,0,1
16.3,2,2,2,0,37,6,2,2
16.305,2,2,0,7,22,9,2,3
16.31,0,2,0,23,15,1,1,2
16.315,1,1,2,17,1,5,2,2
16.32,0,0,3,31,82,3,2,0
16.325,2,1,1,2,5,4,2,3
16.33,5,4,3,15,88,8,7,3
16.335,0,1,6,20,42,11,0,1
16.34,3,3,8,29,54,15,0,1
16.345,6,7,6,17,49,9,7,4
16.35,1,2,0,0,2,0,3,3
16.355,1,2,4,3,28,1,2,1
16.36,2,2,11,32,48,10,2,4
16.365,1,3,1,17,48,6,5,1
16.37,5,1,3,25,45,7,4,3
16.375,6,4,2,29,9,9,4,4
16.38,1,3,1,0,36,8,6,4
16.385,0,2,2,9,40,14,4,1
16.39,4,2,1,9,82,12,9,3
16.395,7,3,6,17,101,17,10,8
16.4,2,2,8,2,6,9,3,0
16.405,8,5,11,7,58,40,8,8
16.41,5,2,9,18,38,2,3,5
16.415,7,3,7,22,26,6,1,2
16.42,8,0,19,14,51,14,9,8
16.425,5,3,0,5,16,28,3,7
16.43,4,7,10,8,11,7,4,2
16.435,6,2,4,25,52,30,8,8
16.44,1,1,2,10,103,4,2,2
16.445,1,4,11,79,35,9,3,4
16.45,6,5,0,36,15,18,15,6
16.455,12,9,19,45,56,65,16,9
16.46,0,0,5,3,117,25,4,1
16.465,1,1,2,22,101,1,9,2
16.47,4,4,7,88,27,12,3,3
16.475,1,2,2,23,42,34,2,3
16.48,4,1,6,17,108,29,7,2
16.485,6,9,14,2,73,6,16,9
16.49,11,7,4,13,109,5,15,12
16.495,2,1,2,24,65,12,3,0
16.5,1,2,4,39,8,31,6,1
16.505,4,3,6,9,26,4,5,2
16.51,5,2,13,68,100,14,3,3
16.515,0,4,28,20,41,31,2,0
16.52,0,0,2,26,64,75,11,1
16.525,1,2,3,27,116,27,2,0
16.53,6,2,3,33,54,2,6,4
16.535,2,5,1,8,89,17,10,3
16.54,1,1,1,17,13,42,4,2
16.545,0,4,1,5,45,16,3,2
16.55,6,2,3,18,58,59,9,2
16.555,2,1,4,31,127,0,1,1
16.56,0,2,6,0,24,47,3,0
16.565,4,2,7,19,41,6,5,3
16.57,6,2,26,57,2,13,3,2
16.575,1,2,1,11,79,13,7,2
16.58,2,3,2,6,68,25,5,4
16.585,1,1,8,41,127,69,12,5
16.59,1,2,5,25,63,17,4,1
16.595,2,1,8,2,35,6,2,3
16.6,3,1,4,53,89,12,1,2
16.605,5,3,2,2,39,39,1,4
16.61,4,0,7,3,14,32,5,6
16.615,7,4,5,5,30,2,6,6
16.62,1,0,7,18,71,11,5,4
16.625,5,6,7,11,65,20,5,4
16.63,7,4,7,15,17,29,15,7
16.635,5,8,16,9,7,14,5,7
16.64,4,2,5,18,43,7,2,4
16.645,2,1,9,14,5,5,5,4
16.65,1,2,6,17,106,14,0,3
16.655,7,2,7,38,44,5,9,6
16.66,1,1,2,24,13,8,1,1
16.665,4,4,8,8,26,19,3,3
16.67,1,1,4,26,69,37,4,2
16.675,3,1,5,12,34,12,3,3
16.68,2,2,4,8,6,3,3,3
16.685,1,3,2,19,25,14,2,1
16.69,6,3,8,57,7,35,12,8
16.695,2,4,5,17,2,5,1,1
16.7,5,4,8,5,30,8,2,2
16.705,2,1,2,17,43,1,0,1
16.71,2,1,3,12,93,3,1,3
16.715,2,2,2,19,105,16,2,3
16.72,1,1,3,16,26,13,3,0
16.725,3,2,0,7,5,11,0,1
16.73,2,2,1,20,3,13,5,0
16.735,3,3,4,10,18,8,2,2
16.74,1,0,5,13,53,5,1,3
16.745,2,2,1,17,58,3,2,1
16.75,3,0,0,10,53,1,4,2
16.755,3,4,0,2,25,7,1,0
16.76,1,1,1,1,14,3,3,4
16.765,2,1,2,3,25,0,3,0
16.77,0,1,2,15,15,7,2,1
16.775,0,1,1,1,12,1,1,0
16.78,2,2,3,22,40,2,2,2
16.785,1,0,1,7,3,7,2,1
16.79,1,5,0,18,2,5,5,6
16.795,4,7,4,2,24,1,1,1
16.8,1,1,1,15,4,1,1,6
16.805,6,3,1,2,2,4,1,4
16.81,6,2,1,8,11,1,1,43
16.815,13,1,2,4,3,0,5,41
16.82,6,1,1,7,1,3,1,16
16.825,2,3,2,5,7,2,0,2
16.83,30,2,2,1,19,4,2,1
16.835,9,5,1,19,70,3,2,15
16.84,4,0,2,11,5,4,5,2
16.845,19,3,1,0,14,1,0,10
16.85,9,2,2,4,8,0,2,35
16.855,6,5,0,5,37,3,2,14
16.86,25,2,0,0,37,8,2,47
16.865,12,4,2,0,13,2,2,14
16.87,7,4,2,7,12,2,2,3
16.875,7,2,2,3,11,1,2,28
16.88,5,4,3,4,1,0,5,9
16.885,8,3,1,3,8,0,1,5
16.89,7,6,1,2,3,2,4,8
16.895,0,1,1,7,0,1,1,2
16.9,7,3,0,8,13,2,1,2
16.905,18,0,4,14,41,3,1,3
16.91,3,0,0,6,12,3,1,21
16.915,9,5,6,13,0,2,3,3
16.92,10,1,0,4,2,1,2,7
16.925,9,0,0,13,39,2,4,1
16.93,4,4,0,26,17,1,3,12
16.935,2,1,1,21,68,6,5,2
16.94,1,1,1,1,1,6,2,7
16.945,7,1,0,5,21,4,2,0
16.95,1,2,2,11,3,5,2,11
16.955,5,2,3,6,33,5,4,8
16.96,1,2,4,6,3,0,5,5
16.965,2,0,0,2,9,4,2,2
16.97,2,0,1,0,22,0,1,6
16.975,4,1,1,4,18,5,1,0
16.98,5,1,2,9,4,8,2,2
16.985,3,1,1,4,4,3,1,1
16.99,3,3,3,6,8,2,2,1
16.995,2,0,1,8,5,1,2,4
17,2,1,3,0,4,2,2,3
17.005,3,2,2,3,35,2,0,2
17.01,1,3,4,5,35,1,3,4
17.015,1,0,3,6,3,2,1,0
17.02,5,4,2,1,3,5,4,3
17.025,0,1,0,4,11,3,3,2
17.03,1,2,0,1,12,1,0,4
17.035,2,0,1,5,22,5,2,2
17.04,2,0,0,1,27,3,1,1
17.045,2,1,3,14,68,4,1,1
17.05,2,4,1,8,4,6,5,1
17.055,2,1,1,3,1,1,4,1
17.06,2,1,2,5,7,2,0,1
17.065,4,0,2,13,13,1,3,1
17.07,0,2,2,5,1,0,1,2
17.075,0,1,3,8,2,1,2,3
17.08,0,2,1,3,3,3,1,2
17.085,0,1,2,17,16,5,2,0
17.09,2,1,1,14,6,0,1,1
17.095,1,0,1,5,16,3,2,1
17.1,4,1,1,4,20,4,1,0
17.105,2,0,3,21,43,4,2,2
17.11,0,1,1,4,7,3,2,2
17.115,3,3,1,1,8,5,4,3
17.12,1,3,1,3,3,2,1,2
17.125,0,1,0,21,51,1,0,1
17.13,1,3,5,36,55,5,3,1
17.135,1,3,2,7,7,3,1,1
17.14,2,0,0,1,26,1,1,2
17.145,0,1,2,2,16,1,0,0
17.15,2,0,0,6,17,0,0,2
17.155,2,2,2,4,3,2,2,3
17.16,1,1,1,9,13,6,2,3
17.165,1,3,1,2,2,2,3,1
17.17,1,2,2,22,31,3,4,0
17.175,3,0,4,49,74,9,0,1
17.18,1,2,1,16,11,3,2,1
17.185,2,1,0,14,1,3,3,3
17.19,1,1,0,1,3,1,2,1
17.195,0,2,1,12,18,0,2,2
17.2,1,0,4,6,9,3,2,1
17.205,3,1,3,0,20,1,0,2
17.21,3,0,1,15,38,4,4,3
17.215,2,2,1,8,0,0,4,2
17.22,3,2,4,7,11,3,2,4
17.225,1,1,3,10,15,4,1,0
17.23,1,2,1,5,30,4,2,1
17.235,1,2,1,3,12,2,0,0
17.24,0,1,2,2,4,4,3,1
17.245,2,1,0,2,0,1,1,2
17.25,1,0,2,8,20,4,2,2
17.255,2,2,2,9,21,3,2,0
17.26,1,1,2,22,1,2,4,2
17.265,2,1,1,8,12,8,3,0
17.27,1,2,2,1,32,5,1,0
17.275,0,3,1,14,38,2,3,1
17.28,3,1,1,2,1,5,2,1
17.285,0,2,1,8,11,2,2,1
17.29,2,1,1,6,32,4,0,1
17.295,1,1,2,17,64,6,1,0
17.3,2,2,1,5,2,2,1,1
17.305,1,1,1,7,10,2,1,3
17.31,1,2,3,13,36,3,2,3
17.315,1,0,1,6,23,1,1,1
17.32,0,0,0,0,5,1,2,3
17.325,2,2,0,4,5,3,1,2
17.33,2,1,1,12,12,2,4,3
17.335,1,2,3,6,2,4,1,0
17.34,2,1,1,14,33,2,1,1
17.345,2,1,6,22,49,5,4,5
17.35,1,2,1,1,25,0,3,3
17.355,1,0,1,7,38,3,1,3
17.36,0,2,2,5,12,4,1,1
17.365,2,4,1,1,11,7,2,1
17.37,1,0,1,8,3,11,2,1
17.375,2,4,6,21,4,4,2,4
17.38,3,3,0,13,28,4,4,4
17.385,3,1,4,2,67,6,3,1
17.39,1,1,2,3,42,12,4,2
17.395,0,3,5,33,94,5,0,1
17.4,5,3,9,47,75,4,4,5
17.405,1,3,0,36,6,5,5,1
17.41,1,1,0,14,8,5,1,1
17.415,4,3,3,4,12,5,8,2
17.42,2,2,8,18,87,13,3,0
17.425,0,2,1,24,31,1,9,3
17.43,8,5,3,71,94,15,17,9
17.435,3,4,5,68,112,16,0,2
17.44,5,5,17,39,95,1,2,3
17.445,7,7,26,96,16,32,9,3
17.45,9,3,8,92,127,9,14,9
17.455,3,0,2,15,52,25,2,0
17.46,1,7,15,34,83,23,6,0
17.465,2,5,33,36,79,40,8,2
17.47,4,3,24,5,1,18,21,9
17.475,1,0,0,74,112,41,2,0
17.48,14,1,8,30,39,97,4,9
17.485,7,0,27,58,127,42,20,1
17.49,1,1,8,78,6,30,13,5
17.495,1,0,5,22,73,0,13,1
17.5,6,2,0,13,59,16,5,6
17.505,3,3,5,7,127,82,29,7
17.51,9,1,14,127,7,12,3,9
17.515,4,5,15,92,104,45,6,3
17.52,0,4,2,28,76,49,3,1
17.525,7,5,7,63,60,1,4,5
17.53,7,2,2,5,76,32,5,5
17.535,7,4,17,0,23,34,0,1
17.54,1,3,6,23,14,40,1,2
17.545,4,4,0,3,64,87,5,3
17.55,2,4,2,30,61,16,5,1
17.555,3,3,4,6,100,50,15,4
17.56,13,12,19,38,50,66,29,15
17.565,0,1,4,24,51,10,20,5
17.57,2,2,4,25,110,5,7,5
17.575,5,6,17,68,47,40,13,1
17.58,3,2,1,32,41,8,4,2
17.585,2,1,7,55,96,26,4,2
17.59,5,1,1,24,69,14,9,4
17.595,2,1,0,22,44,53,11,2
17.6,0,3,15,13,35,39,5,1
17.605,1,2,4,27,7,5,5,2
17.61,9,5,11,18,11,8,6,4
17.615,7,6,19,58,4,15,18,7
17.62,2,4,7,8,23,34,9,2
17.625,1,5,9,50,48,13,4,1
17.63,1,2,1,14,28,14,1,1
17.635,2,4,5,1,62,8,0,1
17.64,0,1,0,6,2,5,2,0
17.645,0,6,11,35,38,19,5,1
17.65,1,2,3,6,22,17,6,1
17.655,2,2,2,20,85,2,9,1
17.66,1,1,3,5,70,21,0,1
17.665,2,1,1,10,24,14,4,0
17.67,2,0,2,37,34,8,6,4
17.675,0,1,0,23,11,3,0,3
17.68,4,3,5,14,70,5,3,2
17.685,2,5,2,1,48,7,1,2
17.69,1,2,1,7,28,1,0,3
17.695,2,1,5,2,2,18,7,2
17.7,3,1,1,35,42,8,6,2
17.705,1,2,3,2,80,2,3,0
17.71,2,0,0,13,6,2,1,1
17.715,0,0,3,27,88,16,1,2
17.72,1,4,5,3,79,10,2,1
17.725,2,2,0,13,3,3,3,2
17.73,1,2,0,2,25,14,5,0
17.735,1,2,1,1,47,14,2,1
17.74,4,4,18,23,56,9,3,5
17.745,0,1,8,2,12,6,1,1
17.75,1,2,4,7,44,2,1,3
17.755,4,4,4,3,5,18,10,5
17.76,0,2,1,21,18,9,1,1
17.765,4,2,1,2,46,5,5,4
17.77,3,3,1,1,38,3,2,1
17.775,1,4,2,7,51,8,2,3
17.78,2,0,2,4,8,9,2,0
17.785,2,1,2,13,113,12,4,1
17.79,0,5,4,15,21,2,5,1
17.795,0,1,0,5,66,5,2,0
17.8,4,0,0,13,100,15,0,2
17.805,3,0,5,6,55,3,1,2
17.81,3,4,5,18,69,3,4,5
17.815,0,0,3,7,3,4,0,0
17.82,1,2,0,1,18,4,0,1
17.825,4,0,0,2,25,1,1,20
17.83,3,0,5,7,8,11,0,31
17.835,1,1,4,3,30,4,3,16
17.84,16,0,1,8,42,2,0,11
17.845,9,2,1,3,27,1,2,15
17.85,1,3,2,11,34,3,9,45
17.855,15,1,3,2,47,4,0,100
17.86,21,3,3,11,1,8,5,37
17.865,8,5,3,13,20,2,6,24
17.87,9,3,3,10,11,1,8,6
17.875,15,5,3,6,3,1,9,47
17.88,6,1,3,2,7,4,13,63
17.885,17,4,0,0,8,5,7,18
17.89,13,1,2,7,2,0,8,35
17.895,8,1,2,5,5,6,2,10
17.9,2,5,3,1,22,1,6,10
17.905,12,3,1,2,19,2,1,3
17.91,41,1,2,9,10,1,3,17
17.915,31,4,2,2,13,0,5,52
17.92,17,4,2,9,19,5,6,2
17.925,29,0,1,12,6,2,10,53
17.93,27,1,3,5,12,1,0,10
17.935,87,1,0,2,1,0,4,19
17.94,81,4,3,15,37,8,10,16
17.945,16,2,1,10,2,1,11,39
17.95,9,0,0,14,47,2,4,59
17.955,12,0,0,6,78,5,3,20
17.96,33,4,3,1,10,2,3,4
17.965,31,3,6,3,7,3,4,13
17.97,12,4,2,7,8,4,4,2
17.975,16,3,4,2,24,3,3,11
17.98,14,1,3,5,19,1,1,13
17.985,12,1,2,4,12,1,1,5
17.99,28,6,6,11,12,5,6,4
17.995,19,1,1,5,11,5,0,3
18,1,0,2,3,12,2,3,4
18.005,14,3,2,5,5,1,0,12
18.01,11,2,3,7,15,0,2,3
18.015,4,1,3,2,7,1,1,6
18.02,4,1,1,0,14,0,4,3
18.025,0,3,2,7,27,4,0,5
18.03,5,1,0,13,38,2,4,15
18.035,21,6,5,4,1,0,3,52
18.04,15,2,1,7,14,2,3,17
18.045,3,1,2,32,6,3,0,3
18.05,5,4,27,9,1,7,2,5
18.055,7,2,4,14,43,0,2,12
18.06,5,1,0,11,40,4,2,14
18.065,0,0,5,13,15,0,2,1
18.07,0,9,5,3,15,3,2,5
18.075,2,1,2,10,19,1,2,2
18.08,0,1,3,2,23,3,1,0
18.085,3,2,1,7,7,6,3,5
18.09,2,3,5,2,1,1,0,2
18.095,1,3,0,20,19,0,2,8
18.1,2,0,2,10,37,1,1,1
18.105,2,3,1,4,39,2,2,2
18.11,3,1,0,1,2,3,1,6
18.115,0,2,2,3,5,6,2,6
18.12,3,0,2,5,5,1,2,0
18.125,7,2,3,8,7,1,1,6
18.13,4,2,1,5,15,3,4,3
18.135,0,1,2,5,8,0,1,10
18.14,0,2,0,2,5,0,1,3
18.145,0,1,3,2,3,2,3,1
18.15,0,1,2,31,16,5,2,5
18.155,3,2,1,3,34,3,0,5
18.16,2,2,6,6,9,0,0,3
18.165,3,1,4,7,10,3,4,7
18.17,5,1,3,2,17,2,1,4
18.175,1,3,3,2,42,6,1,3
18.18,3,0,2,11,34,7,0,3
18.185,1,3,2,3,6,3,1,4
18.19,5,0,1,6,6,4,3,3
18.195,4,3,1,1,5,4,3,1
18.2,2,0,3,3,15,1,0,8
18.205,4,1,1,1,0,3,3,5
18.21,2,3,1,3,7,5,1,3
18.215,2,1,1,6,4,1,1,7
18.22,1,2,4,13,15,1,3,4
18.225,2,3,4,10,15,2,1,1
18.23,4,0,1,0,2,2,0,4
18.235,0,2,2,5,13,1,3,6
18.24,2,1,3,7,14,0,0,0
18.245,2,1,1,4,3,2,1,0
18.25,1,0,1,9,24,2,1,0
18.255,3,1,2,19,64,0,1,2
18.26,1,2,2,9,15,1,3,1
18.265,1,1,0,4,2,7,2,1
18.27,1,1,1,2,7,3,2,0
18.275,3,1,4,10,19,5,1,0
18.28,2,1,1,0,21,5,2,1
18.285,4,1,3,27,58,1,3,5
18.29,2,2,3,9,1,9,5,4
18.295,2,0,0,9,14,1,2,0
18.3,0,1,0,8,2,0,3,1
18.305,3,0,2,8,14,8,6,2
18.31,1,2,6,17,23,0,0,2
18.315,2,0,4,12,23,0,0,0
18.32,4,3,4,17,83,13,7,5
18.325,1,2,4,19,86,8,2,1
18.33,1,3,5,13,41,2,1,2
18.335,0,3,7,13,88,14,7,4
18.34,2,1,10,14,51,4,5,2
18.345,5,5,13,13,2,6,5,4
18.35,5,5,6,18,18,6,2,4
18.355,6,7,7,5,10,17,19,13
18.36,2,1,1,16,39,16,1,6
18.365,0,3,9,16,26,11,4,1
18.37,1,11,30,21,84,12,0,1
18.375,1,8,11,14,100,15,4,5
18.38,3,8,22,3,128,13,10,0
18.385,2,0,5,41,107,1,1,4
18.39,6,4,4,21,116,10,7,8
18.395,9,5,13,35,58,18,9,6
18.4,7,7,19,27,111,3,1,7
18.405,0,2,2,60,128,34,10,1
18.41,9,7,23,86,3,47,20,11
18.415,0,2,2,5,80,7,10,2
18.42,8,1,7,46,13,59,15,12
18.425,5,6,7,3,4,77,18,2
18.43,3,3,15,81,79,36,23,9
18.435,4,5,22,39,91,19,10,6
18.44,5,10,24,60,111,27,4,5
18.445,2,4,14,34,27,14,4,1
18.45,4,2,16,18,13,0,9,8
18.455,1,0,4,56,125,35,12,2
18.46,0,4,12,30,4,25,2,1
18.465,5,4,6,22,94,33,17,6
18.47,3,2,0,50,106,19,10,5
18.475,1,3,8,30,36,15,1,4
18.48,4,1,5,10,67,4,5,3
18.485,0,1,1,28,44,10,7,2
18.49,2,3,1,26,79,53,7,5
18.495,9,4,8,29,65,21,11,8
18.5,2,3,21,2,13,18,0,1
18.505,2,5,19,19,74,5,7,6
18.51,4,0,8,18,68,7,0,2
18.515,3,3,15,48,84,17,4,1
18.52,4,3,13,27,6,17,6,5
18.525,3,1,3,10,47,12,11,4
18.53,3,1,2,3,79,41,8,3
18.535,4,5,7,12,69,4,1,2
18.54,1,1,11,4,68,11,2,1
18.545,1,0,3,21,55,1,2,2
18.55,0,1,8,16,109,7,2,1
18.555,1,1,8,7,45,6,4,4
18.56,1,4,3,4,16,13,7,3
18.565,3,4,2,13,40,11,6,3
18.57,1,2,8,3,59,1,2,0
18.575,4,10,20,39,50,3,0,2
18.58,0,5,8,37,35,10,1,0
18.585,6,8,4,63,54,19,12,4
18.59,0,8,10,18,97,11,2,0
18.595,3,0,2,4,61,6,4,1
18.6,4,3,3,37,1,10,6,2
18.605,1,1,3,4,52,14,3,1
18.61,3,6,7,11,29,6,4,3
18.615,0,3,2,16,90,2,4,3
18.62,2,1,2,24,19,10,2,3
18.625,3,2,3,23,16,6,5,4
18.63,2,3,4,35,44,15,2,1
18.635,0,1,2,21,52,5,1,1
18.64,3,2,9,15,14,5,10,7
18.645,7,0,3,11,5,1,5,5
18.65,0,2,4,1,62,3,6,6
18.655,6,5,9,3,86,14,3,3
18.66,1,1,7,4,6,11,7,5
18.665,1,2,7,1,35,6,0,1
18.67,1,0,2,19,42,13,2,4
18.675,1,2,0,6,37,9,3,3
18.68,1,0,1,35,27,1,1,1
18.685,1,0,2,6,10,2,0,2
18.69,3,3,0,5,16,17,2,1
18.695,0,3,3,23,59,6,4,1
18.7,2,1,2,10,21,3,1,5
18.705,2,1,3,9,12,10,4,3
18.71,2,2,4,3,6,1,2,0
18.715,2,1,1,7,42,1,1,0
18.72,2,3,1,17,49,2,3,2
18.725,0,3,4,1,75,1,2,1
18.73,1,1,2,4,17,8,5,3
18.735,0,1,2,3,32,6,4,2
18.74,4,2,0,34,44,14,5,5
18.745,3,4,5,13,59,5,1,4
18.75,0,1,3,2,8,6,0,1
18.755,1,0,4,4,18,3,1,0
18.76,0,2,3,5,25,3,2,1
18.765,1,2,0,1,9,1,2,3
18.77,2,2,2,1,27,3,0,1
18.775,0,0,2,12,15,1,3,2
18.78,4,2,1,4,22,1,1,3
18.785,5,1,1,8,7,1,0,3
18.79,0,4,3,5,12,1,0,2
18.795,2,1,1,6,7,2,4,4
18.8,1,2,14,6,5,2,0,2
18.805,0,1,6,3,11,3,1,0
18.81,2,1,4,14,5,2,0,0
18.815,3,4,11,7,67,12,4,4
18.82,3,1,8,8,82,1,2,3
18.825,4,3,5,28,53,6,7,3
18.83,0,0,2,1,8,5,2,2
18.835,0,1,4,9,18,2,3,1
18.84,2,4,7,7,5,4,1,0
18.845,2,2,3,15,19,3,0,1
18.85,1,0,1,10,38,2,0,4
18.855,4,1,0,4,60,1,6,5
18.86,2,1,2,5,1,1,0,3
18.865,1,1,4,9,26,1,1,1
18.87,0,0,2,7,1,2,0,3
18.875,0,0,2,15,31,2,5,1
18.88,7,3,7,4,8,3,2,4
18.885,1,1,1,1,15,2,2,3
18.89,3,4,5,3,10,1,1,6
18.895,5,1,3,1,15,4,2,2
18.9,5,3,3,1,20,2,2,2
18.905,1,0,6,3,21,1,0,15
18.91,7,0,2,1,6,1,3,15
18.915,5,2,3,10,32,1,1,13
18.92,6,1,1,25,73,5,2,1
18.925,3,2,0,2,27,5,3,3
18.93,5,3,2,10,17,8,4,4
18.935,4,3,2,1,18,4,4,4
18.94,1,0,2,3,33,3,1,5
18.945,1,0,7,3,3,6,1,2
18.95,3,1,0,0,9,2,5,5
18.955,3,3,3,3,1,2,1,6
18.96,1,2,1,6,32,2,1,4
18.965,4,4,0,1,20,6,1,1
18.97,6,2,6,22,4,7,2,5
18.975,1,1,1,2,6,0,1,2
18.98,5,1,3,1,4,2,1,3
18.985,1,0,5,1,4,6,2,3
18.99,0,1,5,7,8,5,3,1
18.995,3,2,4,18,24,0,1,1
19,4,0,3,15,25,4,2,5
19.005,0,0,1,11,20,2,1,2
19.01,2,2,6,11,22,4,3,5
19.015,5,0,0,5,44,5,3,1
19.02,0,2,0,16,22,1,1,1
19.025,1,1,1,16,25,1,1,2
19.03,1,2,1,20,26,5,3,2
19.035,1,2,14,12,38,5,2,2
19.04,1,4,1,8,2,3,3,1
19.045,1,2,1,8,10,2,1,0
19.05,3,0,1,13,25,3,1,0
19.055,3,0,1,2,12,3,0,0
19.06,1,2,7,4,5,3,1,2
19.065,3,1,5,4,5,1,2,3
19.07,1,1,3,8,15,0,1,2
19.075,0,4,5,7,12,3,1,0
19.08,0,2,1,9,25,1,1,1
19.085,1,2,5,15,26,4,2,0
19.09,2,2,2,0,0,1,4,2
19.095,2,1,6,4,1,1,0,1
19.1,0,1,3,8,9,2,3,1
19.105,1,1,0,2,14,4,0,2
19.11,2,2,4,5,2,1,2,3
19.115,1,3,4,4,0,2,0,1
19.12,2,1,1,2,8,2,4,2
19.125,1,0,1,5,13,0,0,2
19.13,1,0,1,7,52,2,1,1
19.135,2,2,1,13,55,8,5,4
19.14,1,3,4,19,32,1,3,0
19.145,0,2,2,3,16,3,1,2
19.15,2,3,3,1,1,2,2,0
19.155,2,1,2,2,7,2,0,1
19.16,1,1,2,3,10,1,1,1
19.165,1,1,0,3,17,2,1,4
19.17,1,1,4,19,16,3,2,0
19.175,1,2,2,1,8,1,1,0
19.18,1,1,4,2,50,5,0,0
19.185,2,1,5,4,13,2,1,2
19.19,3,3,1,18,12,1,2,4
19.195,1,2,4,5,19,7,1,0
19.2,1,3,1,4,28,3,1,0
19.205,1,0,1,7,23,6,4,1
19.21,1,1,4,31,6,3,4,0
19.215,0,2,0,2,26,10,4,2
19.22,4,3,1,2,48,11,0,2
19.225,2,2,0,2,57,5,4,4
19.23,2,1,4,6,91,9,3,2
19.235,3,2,4,17,53,1,9,6
19.24,2,1,3,9,38,1,1,1
19.245,1,9,38,13,105,3,2,3
19.25,6,6,4,1,51,1,6,4
19.255,4,1,7,19,30,21,5,6
19.26,6,0,0,31,105,25,2,5
19.265,3,2,17,6,50,4,1,2
19.27,8,10,38,37,18,49,24,10
19.275,0,0,1,19,75,27,6,3
19.28,12,10,6,6,59,3,22,16
19.285,8,9,3,29,30,5,6,8
19.29,9,11,19,36,127,43,17,8
19.295,10,10,22,65,87,38,5,10
19.3,3,3,12,16,98,29,3,4
19.305,5,8,9,15,98,80,7,7
19.31,12,7,0,29,23,83,11,7
19.315,2,0,1,70,127,25,2,5
19.32,6,10,15,48,71,5,7,10
19.325,8,5,2,38,79,17,10,12
19.33,5,3,4,38,5,47,2,3
19.335,1,2,0,43,64,29,4,2
19.34,6,1,5,4,15,35,12,12
19.345,1,3,34,40,25,59,7,0
19.35,4,2,12,21,18,5,5,3
19.355,4,2,4,12,7,2,4,7
19.36,2,2,5,23,16,22,9,4
19.365,8,9,5,18,91,8,10,8
19.37,6,9,23,65,30,3,5,6
19.375,1,0,2,22,82,34,3,4
19.38,0,0,1,40,96,10,7,2
19.385,6,2,12,42,4,14,1,2
19.39,2,7,3,2,112,11,2,4
19.395,2,2,0,8,45,19,1,0
19.4,2,3,2,3,126,13,2,0
19.405,3,3,9,5,30,13,5,2
19.41,9,7,1,15,46,14,11,5
19.415,3,5,18,7,72,26,0,2
19.42,2,5,23,32,19,22,2,2
19.425,5,4,2,9,45,38,11,4
19.43,1,6,2,17,52,22,12,7
19.435,5,2,3,18,41,6,0,1
19.44,2,1,0,16,17,1,4,3
19.445,3,1,0,11,49,4,1,4
19.45,4,3,4,27,95,7,2,1
19.455,5,5,9,9,48,2,1,3
19.46,0,2,1,6,20,2,3,1
19.465,5,1,5,1,18,22,3,3
19.47,5,3,9,0,75,1,9,4
19.475,1,1,7,1,24,31,0,1
19.48,5,3,5,11,9,7,7,7
19.485,2,2,0,7,10,20,5,4
19.49,2,0,7,25,53,0,4,3
19.495,3,2,1,29,68,1,4,3
19.5,3,3,2,6,5,14,7,4
19.505,1,0,9,31,50,11,5,2
19.51,1,2,7,9,20,10,1,2
19.515,0,3,2,12,88,15,1,0
19.52,3,2,2,12,7,0,0,2
19.525,6,3,3,5,60,9,5,3
19.53,1,0,1,4,35,3,0,3
19.535,2,1,2,3,31,7,5,3
19.54,3,1,8,11,89,7,6,5
19.545,0,1,6,18,21,6,1,1
19.55,1,2,1,16,4,9,2,4
19.555,2,1,8,15,22,30,5,0
19.56,2,2,1,1,70,3,0,1
19.565,1,1,3,22,46,2,0,1
19.57,7,1,2,7,3,7,5,4
19.575,4,3,3,12,101,13,8,1
19.58,1,1,2,2,31,0,3,2
19.585,1,1,0,3,7,7,0,1
19.59,3,1,0,18,60,11,4,1
19.595,2,2,0,10,57,25,3,1
19.6,2,3,6,20,65,16,2,1
19.605,0,1,6,3,51,1,0,2
19.61,3,2,2,0,42,6,5,4
19.615,2,0,1,5,67,1,0,0
19.62,2,0,1,3,87,14,2,1
19.625,4,2,1,10,22,3,2,1
19.63,0,0,0,2,11,0,3,2
19.635,1,1,1,5,16,5,1,1
19.64,0,0,0,1,1,3,1,0
19.645,1,3,3,15,14,2,1,6
19.65,1,1,2,13,9,2,0,6
19.655,1,4,2,5,9,2,0,1
19.66,2,6,3,3,24,0,1,2
19.665,1,1,3,3,20,3,0,14
19.67,1,0,2,8,37,1,3,12
19.675,1,2,3,2,17,0,1,7
19.68,3,0,2,8,18,2,1,1
19.685,1,1,1,12,44,1,2,1
19.69,2,2,1,3,1,1,2,7
19.695,2,2,3,4,18,1,1,2
19.7,0,1,2,3,110,8,0,1
19.705,1,1,2,8,48,6,4,6
19.71,3,2,4,24,3,1,3,5
19.715,4,4,0,21,2,8,6,1
19.72,1,1,0,15,18,3,3,3
19.725,1,1,1,5,2,4,1,2
19.73,1,3,2,7,7,3,1,2
19.735,0,0,1,5,2,2,0,2
19.74,1,0,4,3,1,0,5,4
19.745,1,2,1,0,1,0,1,2
19.75,0,2,1,4,7,3,1,2
19.755,9,4,1,3,10,0,1,4
19.76,3,2,1,3,16,2,0,1
19.765,1,0,4,0,10,1,0,3
19.77,3,1,1,11,14,0,0,14
19.775,1,0,1,2,1,0,1,8
19.78,8,2,0,2,10,2,3,4
19.785,0,1,1,20,56,2,1,1
19.79,2,0,0,9,95,9,4,4
19.795,0,3,6,32,16,5,3,3
19.8,5,3,2,1,2,5,5,5
19.805,2,0,2,7,16,2,1,3
19.81,2,0,3,11,68,2,2,5
19.815,1,3,4,25,93,7,4,4
19.82,1,1,1,5,50,1,3,0
19.825,1,3,1,7,26,1,3,2
19.83,2,0,4,12,22,2,1,3
19.835,1,1,3,27,10,3,3,4
19.84,1,0,4,7,9,5,3,0
19.845,1,2,1,10,46,2,0,1
19.85,1,1,1,1,0,2,3,4
19.855,3,1,0,2,13,6,0,2
19.86,5,0,4,6,12,5,3,2
19.865,4,1,3,1,3,0,0,1
19.87,0,0,1,9,11,1,0,3
19.875,2,1,1,4,26,1,0,3
19.88,1,1,0,2,10,2,1,1
19.885,2,1,0,3,3,3,0,3
19.89,1,4,4,2,34,3,1,1
19.895,2,0,0,2,61,3,3,4
19.9,2,1,4,1,21,0,1,3
19.905,2,3,7,10,5,1,2,2
19.91,3,0,5,12,37,6,7,6
19.915,1,1,2,19,63,0,0,1
19.92,2,0,2,1,13,2,1,1
19.925,1,1,1,8,40,1,3,2
19.93,1,3,2,36,3,1,2,1
19.935,3,1,3,8,17,4,1,0
19.94,1,4,1,5,8,5,1,2
19.945,2,2,3,6,19,1,1,3
19.95,2,0,0,2,15,4,3,3
19.955,0,2,2,2,16,2,1,1
19.96,3,2,4,2,2,0,0,2
19.965,2,2,4,6,7,0,3,2
19.97,0,2,2,4,10,0,1,1
19.975,1,2,1,4,6,0,1,2
19.98,1,0,1,2,1,1,2,0
19.985,1,2,2,1,13,1,1,3
19.99,5,1,3,12,25,5,4,3
19.995,1,2,4,12,14,1,2,2
20,0,1,1,1,12,2,2,0
20.005,2,1,2,8,47,4,2,2
20.01,2,1,0,26,55,1,0,0
20.015,2,2,1,4,7,3,2,1
20.02,2,1,1,4,11,3,1,1
20.025,0,1,4,12,9,8,3,1
20.03,2,0,0,18,31,1,0,1
20.035,0,1,2,2,14,2,0,0
20.04,1,3,1,2,5,1,3,1
20.045,2,2,0,3,13,3,0,0
20.05,1,1,1,5,19,2,3,1
20.055,1,3,0,4,10,1,0,2
20.06,4,1,1,3,30,1,2,2
20.065,0,3,2,5,10,3,2,0
20.07,1,0,4,4,2,3,0,0
20.075,0,2,1,19,15,0,2,0
20.08,0,0,1,13,20,1,1,1
20.085,3,1,4,10,12,1,1,1
20.09,3,2,3,1,6,6,3,2
20.095,0,0,1,8,5,5,0,0
20.1,0,2,1,10,62,7,1,0
20.105,5,3,2,27,85,15,4,5
20.11,3,3,0,17,15,4,5,1
20.115,1,2,0,3,24,5,1,2
20.12,1,2,4,4,23,1,4,1
20.125,1,4,5,13,1,5,2,3
20.13,5,1,7,9,85,1,3,4
20.135,0,1,3,8,3,4,2,1
20.14,3,0,0,6,80,12,3,6
20.145,2,3,2,11,87,3,4,0
20.15,4,4,11,17,20,4,1,2
20.155,1,3,6,21,4,16,7,1
20.16,2,1,0,33,14,18,0,1
20.165,2,3,4,6,6,7,6,4
20.17,4,1,0,31,71,22,8,5
20.175,5,4,9,36,1,21,6,4
20.18,9,5,11,25,101,21,11,6
20.185,2,1,7,10,128,13,4,0
20.19,1,7,37,3,2,28,20,7
20.195,8,3,4,24,64,13,17,10
20.2,8,1,8,20,47,23,12,5
20.205,2,7,15,42,50,5,5,3
20.21,9,4,1,17,57,7,17,13
20.215,9,2,30,64,25,10,14,10
20.22,4,3,12,36,72,6,4,4
20.225,4,2,0,29,57,16,11,5
20.23,2,1,8,59,126,30,17,8
20.235,3,0,11,7,37,16,2,5
20.24,2,4,0,69,117,56,19,5
20.245,7,11,20,80,108,75,27,9
20.25,16,13,17,41,17,86,27,20
20.255,8,4,8,31,21,5,8,6
20.26,5,3,9,10,103,20,8,4
20.265,1,1,8,28,35,23,8,4
20.27,10,3,9,18,94,20,22,14
20.275,1,0,6,9,69,17,8,3
20.28,1,1,2,7,49,7,1,3
20.285,5,1,17,36,82,40,6,6
20.29,9,10,22,36,110,100,27,13
20.295,9,5,3,2,99,39,13,8
20.3,2,2,9,32,128,17,3,4
20.305,2,0,12,37,8,36,4,0
20.31,11,5,12,74,58,36,19,11
20.315,1,2,6,55,93,9,1,0
20.32,0,2,3,44,45,34,5,0
20.325,6,9,4,6,70,32,10,6
20.33,2,2,3,14,3,16,3,4
20.335,5,4,8,37,26,28,2,2
20.34,1,1,4,14,9,7,1,2
20.345,4,3,5,53,55,31,4,4
20.35,4,2,2,35,42,8,5,1
20.355,1,0,20,14,117,24,1,3
20.36,1,4,7,7,127,61,8,2
20.365,7,6,9,64,1,41,12,7
20.37,0,0,13,4,97,32,21,7
20.375,0,2,3,43,10,27,7,1
20.38,4,2,0,7,51,14,6,2
20.385,2,0,3,11,30,9,7,4
20.39,4,3,6,18,46,16,1,2
20.395,1,1,7,11,61,8,2,1
20.4,2,4,2,31,111,22,3,4
20.405,1,5,9,41,42,6,5,2
20.41,5,5,0,46,104,13,3,4
20.415,0,3,11,33,33,9,3,2
20.42,1,0,4,15,11,2,3,2
20.425,2,1,3,26,4,30,5,1
20.43,4,7,10,19,68,7,3,4
20.435,2,3,1,4,99,29,6,0
20.44,3,6,8,7,7,13,3,2
20.445,5,3,10,3,13,9,11,5
20.45,2,2,9,24,14,14,3,1
20.455,3,2,1,13,64,12,6,4
20.46,3,2,1,8,16,8,3,2
20.465,2,1,9,4,24,16,5,1
20.47,3,3,2,29,97,5,1,5
20.475,2,5,4,46,1,19,12,6
20.48,3,3,3,14,22,26,10,3
20.485,10,11,20,50,30,29,16,9
20.49,2,3,5,6,14,18,1,4
20.495,2,3,5,21,74,24,7,2
20.5,0,2,4,9,32,2,0,2
20.505,1,1,2,28,5,1,1,1
20.51,0,3,0,4,51,10,2,1
20.515,0,0,4,13,104,6,4,1
20.52,1,4,12,6,10,8,0,1
20.525,0,2,8,22,47,6,3,3
20.53,1,3,2,4,127,11,5,2
20.535,1,3,5,15,11,16,1,0
20.54,6,5,5,18,6,0,6,5
20.545,1,2,2,7,17,3,4,2
20.55,1,0,0,16,7,2,4,1
20.555,1,0,2,4,12,2,2,1
20.56,5,2,4,3,21,6,3,4
20.565,2,0,2,10,56,5,1,0
20.57,0,2,2,9,46,3,2,2
20.575,5,4,7,10,7,0,2,3
20.58,1,1,3,1,33,5,1,3
20.585,1,2,3,9,79,11,2,0
20.59,2,2,2,4,23,4,0,2
20.595,1,1,2,2,3,8,5,2
20.6,2,0,3,15,29,1,1,2
20.605,1,2,1,11,21,8,1,2
20.61,0,3,6,16,19,3,2,0
20.615,2,4,3,16,20,1,1,2
20.62,2,1,4,10,22,2,1,1
20.625,2,0,1,4,17,6,1,1
20.63,2,3,4,16,72,12,4,2
20.635,3,6,2,21,10,0,3,3
20.64,1,1,2,5,28,2,0,4
20.645,7,2,1,13,1,2,0,0
20.65,12,0,0,13,7,1,2,1
20.655,6,2,2,16,7,2,2,1
20.66,5,2,3,6,18,2,3,3
20.665,4,0,1,11,41,2,0,1
20.67,5,1,1,6,1,0,3,11
20.675,5,0,1,15,7,1,1,1
20.68,6,2,4,18,7,0,0,5
20.685,7,1,2,3,10,1,3,2
20.69,1,3,0,2,2,1,3,2
20.695,3,0,1,11,5,0,0,11
20.7,2,1,2,6,5,2,1,14
20.705,1,1,1,2,50,3,2,0
20.71,3,0,0,9,2,0,2,4
20.715,0,2,0,12,9,4,4,1
20.72,2,1,2,3,11,2,1,6
20.725,3,1,0,18,25,4,2,0
20.73,1,2,4,18,4,3,2,2
20.735,3,2,2,8,35,5,3,2
20.74,1,1,0,10,13,2,0,2
20.745,0,1,0,5,2,7,2,1
20.75,1,1,3,1,1,8,0,0
20.755,2,0,0,0,31,10,2,1
20.76,4,3,5,7,37,3,2,3
20.765,2,1,0,16,10,4,1,1
20.77,5,0,3,14,12,3,1,5
20.775,2,2,4,5,8,7,3,2
20.78,1,2,0,10,24,1,1,3
20.785,1,1,4,10,6,2,1,3
20.79,1,1,1,6,14,6,3,5
20.795,2,2,0,2,8,3,2,4
20.8,1,2,0,3,2,2,3,1
20.805,1,1,1,2,8,1,2,4
20.81,5,2,3,3,14,5,1,0
20.815,0,1,1,1,26,1,1,1
20.82,4,2,2,7,37,5,4,2
20.825,1,5,3,1,33,1,3,3
20.83,0,0,1,1,3,0,1,0
20.835,1,2,1,2,12,2,2,2
20.84,0,1,1,2,26,2,0,2
20.845,0,2,2,10,36,1,1,0
20.85,1,1,1,4,12,4,0,3
20.855,2,2,5,17,8,3,2,2
20.86,1,1,2,9,20,0,1,1
20.865,1,1,1,4,2,3,2,0
20.87,4,3,5,3,5,0,1,2
20.875,1,0,0,8,22,1,2,1
20.88,1,3,3,11,45,4,0,1
20.885,2,1,4,7,2,3,2,1
20.89,1,3,2,3,0,1,5,3
20.895,1,0,2,7,7,3,1,2
20.9,1,3,3,10,13,0,2,0
20.905,2,0,3,1,4,2,0,2
20.91,0,0,1,4,1,1,0,2
20.915,1,1,0,0,11,1,2,1
20.92,1,0,1,1,1,2,1,4
20.925,0,1,0,9,18,1,1,1
20.93,4,1,2,9,55,2,2,3
20.935,3,1,1,16,74,4,1,1
20.94,2,2,4,5,10,1,5,1
20.945,3,2,0,13,20,2,2,4
20.95,1,2,1,1,3,1,1,0
20.955,0,2,1,4,15,0,2,0
20.96,3,2,2,3,1,0,1,2
20.965,2,1,2,5,2,3,4,3
20.97,1,0,0,6,5,2,0,2
20.975,1,1,1,20,6,1,2,1
20.98,3,2,3,16,12,4,0,1
20.985,0,1,0,1,3,0,1,1
20.99,2,0,0,9,11,6,3,3
20.995,0,1,0,5,7,5,6,3
21,1,1,1,6,17,3,2,2
21.005,3,2,1,1,6,2,0,1
21.01,2,0,1,2,12,6,0,1
21.015,0,1,2,11,2,3,2,1
21.02,0,3,1,5,9,4,0,3
21.025,1,2,1,8,3,2,1,2
21.03,1,2,2,0,9,3,2,1
21.035,1,1,5,0,5,2,1,1
21.04,3,0,3,11,16,9,3,1
21.045,2,2,4,26,79,8,2,4
21.05,1,3,2,5,5,2,0,1
21.055,1,2,3,2,4,1,2,1
21.06,1,1,0,13,32,1,1,1
21.065,2,1,3,1,19,6,3,4
21.07,1,1,2,5,11,1,1,2
21.075,0,0,0,3,3,3,4,1
21.08,0,1,0,7,0,1,1,1
21.085,3,2,1,3,27,1,2,1
21.09,1,2,1,10,15,2,2,0
21.095,3,1,5,21,10,6,2,1
21.1,1,1,0,3,28,1,1,0
21.105,1,0,2,3,27,2,0,1
21.11,0,2,0,10,15,0,2,3
21.115,1,1,2,3,12,2,2,3
21.12,4,0,3,0,5,0,0,1
21.125,2,0,0,1,23,0,2,3
21.13,1,0,3,10,8,1,3,0
21.135,3,3,4,9,0,8,5,2
21.14,0,1,1,9,37,10,2,0
21.145,4,4,5,5,59,10,4,2
21.15,1,1,4,9,55,2,3,2
21.155,3,3,2,12,83,0,0,3
21.16,3,4,4,25,59,1,5,1
21.165,3,4,5,7,13,4,4,3
21.17,1,1,0,15,94,4,1,0
21.175,7,6,7,31,33,7,8,6
21.18,4,0,2,23,16,1,5,2
21.185,9,5,5,12,22,21,13,7
21.19,3,1,3,21,99,13,2,2
21.195,1,6,10,41,94,12,5,1
21.2,2,1,0,25,8,0,6,1
21.205,8,11,8,16,6,2,14,6
21.21,17,13,20,37,74,20,21,16
21.215,1,1,7,41,63,5,2,1
21.22,7,6,3,4,63,7,13,5
21.225,7,6,1,8,59,5,9,5
21.23,1,2,3,54,28,9,4,1
21.235,2,3,3,92,15,12,3,0
21.24,19,12,24,86,128,49,26,19
21.245,11,7,14,29,115,25,11,10
21.25,1,0,5,36,92,1,2,4
21.255,9,3,8,40,62,23,6,7
21.26,5,5,0,39,54,6,9,5
21.265,1,1,1,1,4,15,6,1
21.27,2,0,7,42,44,14,0,1
21.275,9,5,6,35,87,3,11,8
21.28,12,10,12,27,54,51,28,15
21.285,9,8,6,53,80,6,7,6
21.29,5,4,16,52,2,21,3,4
21.295,3,2,2,24,23,6,5,1
21.3,0,1,7,35,48,31,6,3
21.305,3,6,1,5,41,28,13,8
21.31,1,1,4,2,33,33,3,2
21.315,3,1,4,33,90,29,2,0
21.32,7,6,12,9,48,23,3,6
21.325,7,8,13,12,44,22,2,3
21.33,0,2,1,26,26,39,12,1
21.335,1,3,13,61,7,19,2,2
21.34,1,3,2,34,127,46,12,6
21.345,1,2,8,56,48,23,11,1
21.35,6,3,1,21,1,9,4,5
21.355,4,6,7,22,56,11,6,3
21.36,2,5,7,12,85,8,3,1
21.365,2,3,1,22,66,6,1,0
21.37,1,4,3,7,64,38,2,0
21.375,1,11,44,27,128,9,1,3
21.38,3,4,4,9,7,19,6,4
21.385,2,3,4,6,110,18,6,3
21.39,4,3,1,23,7,3,5,3
21.395,10,5,3,36,54,25,14,12
21.4,1,1,1,16,31,24,4,1
21.405,1,1,6,12,15,26,1,1
21.41,2,0,4,6,10,40,2,0
21.415,4,1,1,15,114,6,5,6
21.42,11,3,7,23,13,23,6,8
21.425,2,7,5,20,39,5,4,1
21.43,2,1,4,20,122,2,6,1
21.435,2,2,2,27,49,12,3,2
21.44,0,1,5,17,60,20,2,1
21.445,4,3,1,13,74,11,7,4
21.45,0,6,8,6,28,4,1,2
21.455,5,1,8,12,0,18,6,4
21.46,2,2,3,5,53,12,2,0
21.465,3,5,4,9,70,1,4,2
21.47,10,6,7,18,50,6,2,6
21.475,2,1,12,28,5,23,6,1
21.48,1,0,0,14,111,2,4,3
21.485,2,3,7,7,20,12,6,4
21.49,6,3,8,44,63,8,1,3
21.495,0,4,5,10,128,24,0,4
21.5,1,2,2,18,8,33,5,2
21.505,1,0,8,58,8,11,5,4
21.51,2,2,3,26,37,3,1,2
21.515,2,3,3,13,80,15,4,1
21.52,3,4,1,20,69,0,7,6
21.525,4,6,8,2,47,16,10,6
21.53,4,2,3,10,56,11,11,5
21.535,2,2,1,12,28,12,6,1
21.54,1,0,2,11,14,12,0,4
21.545,1,2,0,13,79,12,0,0
21.55,2,3,6,3,7,3,1,3
21.555,1,2,1,0,10,11,1,0
21.56,2,0,1,2,7,1,4,2
21.565,2,1,0,4,14,4,2,5
21.57,1,0,3,22,39,2,1,1
21.575,5,3,1,3,31,1,2,4
21.58,3,1,5,16,39,2,7,5
21.585,1,3,2,14,26,4,6,3
21.59,6,3,2,8,47,4,3,5
21.595,1,1,2,0,21,2,1,1
21.6,2,3,2,7,52,4,3,5
21.605,1,1,0,7,11,4,0,2
21.61,2,2,1,6,30,1,3,3
21.615,3,2,2,8,24,1,0,3
21.62,1,1,3,2,17,11,5,4
21.625,1,2,1,4,11,2,0,1
21.63,2,0,1,7,21,3,3,3
21.635,3,1,1,1,22,4,3,0
21.64,3,4,3,6,10,4,5,3
21.645,1,1,6,8,15,3,4,1
21.65,1,3,0,9,16,3,1,1
21.655,1,1,3,8,1,3,0,0
21.66,2,2,3,13,5,2,1,3
21.665,0,2,1,5,0,1,1,3
21.67,0,2,1,2,0,1,2,3
21.675,3,7,1,6,1,1,1,5
21.68,2,0,0,6,7,3,0,1
21.685,3,1,3,15,52,4,0,1
21.69,2,3,3,12,43,1,1,1
21.695,1,1,1,2,6,1,0,1
21.7,2,1,3,3,8,4,4,3
21.705,2,2,2,7,12,0,0,1
21.71,0,2,3,0,40,1,1,2
21.715,3,4,2,3,7,4,3,1
21.72,1,1,0,0,7,2,4,1
21.725,1,0,1,0,9,2,4,2
21.73,0,0,0,2,2,0,3,1
21.735,1,1,1,7,2,1,2,0
21.74,2,4,2,11,17,0,3,2
21.745,1,2,3,4,5,3,2,2
21.75,3,0,2,4,24,2,1,0
21.755,1,2,0,0,13,3,2,3
21.76,1,0,2,2,9,2,2,0
21.765,3,1,2,5,5,0,1,2
21.77,1,0,2,4,4,2,3,1
21.775,0,1,3,3,3,2,2,2
21.78,3,2,2,4,1,1,2,0
21.785,0,3,4,13,65,5,4,1
21.79,6,9,16,14,87,15,10,6
21.795,1,1,1,22,8,4,3,2
21.8,1,1,3,17,17,8,6,2
21.805,1,1,1,9,7,9,2,1
21.81,1,1,2,3,13,3,1,1
21.815,0,1,1,4,14,1,1,1
21.82,3,3,0,20,18,5,2,1
21.825,3,1,4,2,3,8,6,6
21.83,2,4,7,57,64,13,8,4
21.835,1,1,2,11,20,2,2,2
21.84,1,1,1,2,46,1,3,1
21.845,2,4,6,4,39,1,3,1
21.85,0,3,0,6,7,2,3,1
21.855,3,1,3,8,4,1,1,0
21.86,2,1,2,1,8,1,1,3
21.865,2,1,1,0,0,3,3,2
21.87,2,2,2,4,4,1,1,1
21.875,2,2,4,7,32,4,3,3
21.88,1,2,1,5,5,1,3,2
21.885,1,3,1,7,3,3,1,2
21.89,2,1,2,6,8,3,1,1
21.895,2,0,1,8,44,2,3,2
21.9,2,1,6,27,80,6,2,3
21.905,0,0,1,7,53,2,2,1
21.91,3,2,3,22,62,0,3,4
21.915,0,4,1,4,0,0,2,2
21.92,0,0,0,13,36,1,2,2
21.925,0,0,4,19,42,3,1,2
21.93,0,0,3,14,1,6,5,2
21.935,1,1,2,3,12,1,2,3
21.94,2,2,0,1,9,4,6,6
21.945,2,0,0,6,30,0,2,1
21.95,1,0,0,5,18,0,1,1
21.955,0,2,0,11,34,2,1,1
21.96,2,2,0,5,9,3,1,0
21.965,0,1,0,3,5,1,0,1
21.97,1,2,3,1,29,1,2,3
21.975,2,2,0,12,59,3,3,2
21.98,1,3,1,0,4,1,1,1
21.985,3,2,3,0,22,3,2,0
21.99,0,1,1,4,9,1,0,0
21.995,0,1,1,1,36,8,1,2
22,2,1,3,9,67,6,1,4
22.005,1,2,1,16,11,2,5,2
22.01,0,2,0,9,3,2,2,2
22.015,2,2,0,1,18,4,4,1
22.02,0,1,1,3,24,1,3,0
22.025,0,1,0,2,2,4,2,2
22.03,1,0,0,11,30,0,2,1
22.035,3,3,4,14,27,3,3,1
22.04,1,3,3,4,4,0,1,1
22.045,2,1,0,0,5,3,2,2
22.05,2,3,1,5,25,2,3,3
22.055,1,0,1,0,3,3,3,4
22.06,0,3,1,1,4,1,0,1
22.065,1,1,4,2,3,3,2,0
22.07,2,1,1,2,5,3,0,2
22.075,1,1,0,7,7,1,1,0
22.08,2,2,3,4,35,2,1,1
22.085,2,0,1,12,43,2,2,5
22.09,4,2,3,1,0,1,5,3
22.095,1,1,3,9,14,5,2,0
22.1,1,1,1,0,9,2,1,2
22.105,1,4,5,1,16,6,2,0
22.11,1,2,1,3,23,1,0,1
22.115,3,0,2,10,47,4,2,0
22.12,2,2,3,8,7,5,1,4
22.125,2,0,0,11,19,5,3,0
22.13,2,5,3,17,18,5,5,2
22.135,0,2,3,19,54,1,2,0
22.14,2,3,5,8,14,7,5,4
22.145,1,0,1,14,23,4,0,1
22.15,2,2,2,13,4,8,2,1
22.155,0,1,1,0,2,3,1,2
22.16,1,2,1,5,48,6,2,1
22.165,0,2,2,1,48,1,2,1
22.17,0,2,4,3,109,3,4,1
22.175,3,5,4,5,39,3,6,6
22.18,1,0,3,40,81,5,2,1
22.185,0,2,0,21,25,2,1,2
22.19,0,3,3,34,65,0,4,1
22.195,4,3,8,8,14,17,4,1
22.2,1,1,4,25,69,4,4,0
22.205,5,5,3,3,94,3,9,5
22.21,1,4,8,47,124,13,7,4
22.215,3,1,3,26,61,3,5,2
22.22,0,2,6,26,76,8,2,2
22.225,4,3,8,62,51,8,0,2
22.23,7,5,8,44,27,15,12,7
22.235,4,2,5,46,79,5,2,4
22.24,4,1,2,10,26,3,4,3
22.245,3,1,5,19,84,1,3,1
22.25,1,3,8,2,70,7,7,2
22.255,4,3,13,1,13,42,4,4
22.26,9,2,10,27,120,29,3,5
22.265,6,3,6,57,23,2,9,7
22.27,6,4,3,30,120,14,11,8
22.275,7,5,4,2,24,20,10,6
22.28,7,5,10,7,37,11,3,3
22.285,10,10,19,19,63,4,4,5
22.29,8,1,1,51,111,58,19,8
22.295,6,0,3,15,39,38,13,6
22.3,0,3,10,50,3,12,6,1
22.305,2,1,4,41,0,24,1,4
22.31,2,4,16,67,91,33,11,2
22.315,3,4,10,2,27,19,5,5
22.32,5,7,8,13,79,6,12,6
22.325,0,4,1,21,49,12,9,3
22.33,0,8,23,70,66,14,8,3
22.335,5,4,13,31,3,2,0,2
22.34,6,8,12,27,34,16,11,8
22.345,3,3,8,6,67,32,8,8
22.35,1,0,1,21,2,3,3,0
22.355,0,0,6,22,17,1,8,3
22.36,0,2,7,15,115,11,3,2
22.365,5,3,1,9,86,39,15,5
22.37,2,0,11,58,32,2,4,4
22.375,2,3,5,10,11,29,1,4
22.38,10,9,19,40,7,3,11,9
22.385,3,1,11,13,61,24,5,3
22.39,3,2,9,64,42,36,10,4
22.395,5,4,2,38,100,15,10,5
22.4,7,5,10,27,28,1,4,7
22.405,8,9,18,41,67,29,11,6
22.41,1,1,3,23,20,11,4,3
22.415,4,0,6,38,24,17,5,5
22.42,3,1,1,33,50,6,1,2
22.425,4,0,3,43,65,27,15,9
22.43,5,3,0,20,12,43,17,6
22.435,0,1,3,14,47,11,2,3
22.44,8,1,6,0,1,38,8,6
22.445,3,3,6,49,49,7,4,4
22.45,6,4,3,3,128,13,5,5
22.455,0,0,3,43,15,2,2,1
22.46,2,2,2,1,3,36,2,0
22.465,1,0,4,34,1,21,3,2
22.47,5,1,8,48,68,9,7,3
22.475,3,2,1,37,1,6,0,2
22.48,4,4,2,23,41,12,10,5
22.485,4,1,1,23,78,1,9,5
22.49,3,3,6,10,63,14,2,0
22.495,3,2,0,18,63,10,5,6
22.5,2,3,10,46,68,17,0,1
22.505,0,3,5,21,111,5,1,3
22.51,0,4,2,25,72,11,2,1
22.515,2,1,1,12,22,14,1,3
22.52,2,1,2,19,127,6,1,1
22.525,3,3,11,52,100,1,4,4
22.53,2,2,1,33,59,11,5,4
22.535,2,2,3,10,1,4,2,2
22.54,3,3,2,6,1,0,4,2
22.545,3,1,2,12,63,5,3,2
22.55,1,0,3,16,41,1,1,0
22.555,2,0,1,6,79,17,7,6
22.56,1,3,0,28,73,21,4,3
22.565,2,0,5,15,33,15,1,1
22.57,2,0,4,40,23,11,2,1
22.575,0,3,2,29,48,23,2,2
22.58,2,2,1,8,42,5,0,2
22.585,2,2,4,17,50,2,1,2
22.59,2,4,5,19,19,0,2,3
22.595,0,0,2,2,9,6,2,0
22.6,1,2,1,0,36,1,5,2
22.605,4,1,2,13,123,6,4,1
22.61,1,3,3,10,39,8,8,3
22.615,4,2,3,10,35,6,2,1
22.62,4,3,3,9,12,1,1,1
22.625,2,2,2,18,36,1,1,1
22.63,1,0,3,10,42,1,1,3
22.635,3,2,1,9,18,11,7,3
22.64,0,2,4,3,43,2,1,1
22.645,1,3,4,10,49,3,4,0
22.65,2,1,2,5,18,7,3,2
22.655,3,2,2,16,1,3,0,0
22.66,2,2,1,10,8,2,4,2
22.665,2,3,3,0,3,3,2,0
22.67,4,1,3,5,6,7,3,1
22.675,20,4,1,23,21,2,0,4
22.68,17,7,0,4,16,5,1,2
22.685,8,1,1,4,28,3,3,1
22.69,4,1,1,6,3,5,3,4
22.695,19,2,0,4,4,0,2,3
22.7,2,5,2,10,3,6,3,1
22.705,9,6,9,30,59,27,9,9
22.71,6,2,2,6,3,3,4,3
22.715,4,2,1,1,11,3,0,2
22.72,8,10,3,6,8,0,1,3
22.725,3,14,2,10,27,7,1,8
22.73,11,1,3,2,10,4,1,5
22.735,21,4,3,6,9,2,0,3
22.74,38,36,3,9,4,1,2,4
22.745,46,14,3,1,5,0,3,0
22.75,49,9,0,3,1,6,0,7
22.755,5,5,4,1,12,4,1,9
22.76,22,0,2,3,1,3,2,7
22.765,27,2,1,3,12,7,3,5
22.77,13,7,2,8,3,2,0,1
22.775,15,12,1,4,1,1,2,0
22.78,14,9,2,2,9,6,0,6
22.785,2,3,1,1,7,0,2,3
22.79,17,9,3,9,6,1,1,1
22.795,21,4,1,0,6,3,4,2
22.8,9,4,4,3,4,0,4,2
22.805,1,3,0,17,29,3,0,3
22.81,8,0,3,16,4,8,2,0
22.815,2,6,10,3,7,6,2,2
22.82,5,3,3,3,2,7,2,3
22.825,5,7,2,28,8,4,1,3
22.83,9,1,2,3,13,1,2,0
22.835,2,1,1,1,6,2,1,2
22.84,2,7,0,0,7,3,2,2
22.845,10,3,2,1,9,8,4,1
22.85,12,2,3,1,4,4,4,4
22.855,4,1,1,3,12,6,3,1
22.86,2,2,2,11,13,4,3,0
22.865,3,3,6,34,11,3,0,0
22.87,7,1,1,2,29,3,1,0
22.875,3,2,2,9,18,1,5,1
22.88,6,5,0,11,17,3,5,3
22.885,4,2,2,0,2,3,1,2
22.89,2,2,0,0,6,1,3,0
22.895,7,2,2,3,7,0,3,1
22.9,4,2,1,5,22,2,1,0
22.905,6,0,2,17,21,3,2,2
22.91,1,3,1,9,17,3,0,1
22.915,1,3,1,0,9,4,5,4
22.92,1,2,5,2,6,2,0,1
22.925,1,3,2,1,15,3,3,0
22.93,1,2,5,4,28,5,0,2
22.935,1,1,3,3,12,1,1,0
22.94,3,1,4,19,42,1,1,1
22.945,1,1,2,10,14,1,4,2
22.95,1,1,1,5,8,2,2,1
22.955,2,4,3,3,1,1,1,1
22.96,1,2,0,1,5,2,0,2
22.965,2,3,2,5,12,3,1,3
22.97,1,0,1,2,38,5,4,3
22.975,2,2,0,0,6,4,2,2
22.98,0,2,0,0,10,1,1,2
22.985,1,4,4,14,1,0,1,1
22.99,3,5,10,33,5,7,3,4
22.995,3,2,2,2,3,2,1,1
23,0,2,2,8,12,1,0,1
23.005,0,0,3,18,41,1,0,1
23.01,2,1,3,5,2,5,2,0
23.015,2,2,2,7,10,3,2,2
23.02,3,3,4,0,6,1,1,3
23.025,2,2,2,16,17,5,4,4
23.03,1,2,1,8,4,0,1,0
23.035,3,3,4,6,3,1,2,1
23.04,1,1,2,3,2,3,2,1
23.045,1,2,4,9,4,1,1,0
23.05,0,2,2,1,9,2,1,0
23.055,1,1,0,6,7,0,0,2
23.06,2,0,0,0,1,1,2,2
23.065,3,0,3,5,16,7,4,2
23.07,2,2,2,3,27,2,3,1
23.075,1,2,1,4,3,12,4,2
23.08,4,4,3,11,8,4,2,0
23.085,0,1,1,1,7,1,1,2
23.09,1,2,1,10,24,1,1,0
23.095,2,3,1,2,3,5,4,1
23.1,1,2,3,2,4,1,1,0
23.105,2,1,0,15,79,5,3,1
23.11,2,0,4,50,101,5,3,1
23.115,2,0,4,6,14,5,4,2
23.12,1,1,1,0,1,5,2,3
23.125,1,1,1,2,3,3,1,2
23.13,0,0,2,10,12,1,0,2
23.135,3,1,1,5,9,2,2,1
23.14,0,2,2,2,3,1,1,0
23.145,1,2,2,10,24,2,2,1
23.15,1,0,1,12,6,2,0,2
23.155,2,1,1,10,12,4,0,0
23.16,2,0,1,4,30,1,1,2
23.165,0,2,1,5,14,3,1,0
23.17,2,2,2,9,19,1,3,0
23.175,3,1,3,0,20,1,1,1
23.18,1,0,3,7,33,1,4,4
23.185,2,1,0,3,5,5,2,1
23.19,2,1,0,3,14,6,1,1
23.195,1,2,1,8,13,4,2,1
23.2,2,2,1,6,22,0,2,2
23.205,1,1,3,17,43,3,4,1
23.21,0,3,1,22,80,7,1,1
23.215,5,6,5,25,96,9,7,4
23.22,2,2,3,11,41,5,3,4
23.225,1,0,0,25,74,5,0,1
23.23,1,1,5,51,39,2,2,2
23.235,2,1,8,2,45,1,3,1
23.24,1,2,7,31,4,5,1,1
23.245,3,3,2,34,3,11,4,0
23.25,3,2,6,49,16,17,6,3
23.255,6,5,2,21,52,10,12,4
23.26,5,0,3,44,26,2,7,3
23.265,3,6,10,68,51,20,9,5
23.27,8,6,2,21,47,19,12,10
23.275,2,4,9,75,34,10,7,4
23.28,6,6,5,43,35,13,16,8
23.285,3,2,3,21,33,2,4,7
23.29,10,4,0,7,95,9,6,5
23.295,1,1,8,6,64,45,2,1
23.3,1,3,9,27,86,11,3,1
23.305,5,8,24,76,104,35,12,4
23.31,2,2,22,94,90,29,9,4
23.315,4,3,22,6,96,28,1,1
23.32,1,0,1,49,21,7,7,3
23.325,0,4,2,8,97,52,9,5
23.33,12,3,1,31,47,19,13,10
23.335,6,2,34,124,128,17,8,5
23.34,21,15,12,72,90,10,23,20
23.345,8,7,14,71,23,5,2,6
23.35,9,9,27,70,29,33,10,9
23.355,3,2,17,47,26,1,5,1
23.36,1,4,7,67,117,3,3,2
23.365,7,5,1,24,38,19,7,5
23.37,3,3,6,16,69,4,9,5
23.375,3,1,5,25,1,21,0,3
23.38,1,5,13,99,107,14,4,1
23.385,1,1,3,26,16,9,1,1
23.39,8,8,3,32,7,36,18,8
23.395,11,6,3,4,81,37,17,11
23.4,9,2,5,5,3,23,9,9
23.405,6,5,8,18,48,7,2,5
23.41,3,1,3,38,76,18,6,6
23.415,5,3,2,45,45,5,7,4
23.42,1,3,2,42,4,6,2,0
23.425,1,7,33,0,39,19,6,2
23.43,0,4,5,21,12,17,4,5
23.435,2,2,13,40,127,2,2,0
23.44,1,3,11,60,91,2,2,1
23.445,1,2,6,5,116,2,1,1
23.45,4,2,3,25,41,20,0,5
23.455,1,2,4,48,26,6,1,2
23.46,10,8,14,22,24,9,7,11
23.465,6,3,11,13,28,5,3,6
23.47,0,3,2,15,6,12,7,2
23.475,2,2,4,13,48,14,3,1
23.48,2,2,1,38,25,3,5,2
23.485,5,1,2,25,93,24,0,6
23.49,2,3,2,26,96,12,1,2
23.495,1,2,3,7,29,11,5,1
23.5,2,1,1,1,16,1,2,3
23.505,2,4,8,6,75,6,2,3
23.51,3,2,1,34,94,8,1,0
23.515,1,2,1,6,21,8,4,1
23.52,3,2,4,2,80,11,1,2
23.525,2,4,0,10,65,12,3,2
23.53,1,1,4,35,34,22,4,1
23.535,1,1,4,9,23,29,8,2
23.54,1,1,3,0,13,6,1,3
23.545,1,0,0,14,23,6,1,2
23.55,1,4,9,10,76,22,2,1
23.555,3,3,2,20,39,3,8,2
23.56,1,3,9,4,92,5,3,3
23.565,4,0,7,19,3,11,4,4
23.57,0,1,6,4,67,8,0,3
23.575,0,5,3,9,44,9,3,1
23.58,3,1,2,4,48,12,7,6
23.585,3,2,11,16,40,3,4,4
23.59,5,5,7,8,21,12,3,6
23.595,3,0,2,18,42,1,5,1
23.6,0,3,6,34,49,12,3,1
23.605,4,2,1,49,52,3,1,2
23.61,0,0,1,8,16,3,2,0
23.615,3,2,5,9,25,2,1,3
23.62,3,1,4,2,73,16,7,4
23.625,6,6,2,3,53,12,3,5
23.63,3,1,3,16,63,3,1,2
23.635,9,3,3,30,53,9,8,4
23.64,2,2,3,4,15,2,0,0
23.645,2,2,0,11,70,0,1,0
23.65,2,1,2,20,66,4,1,2
23.655,6,2,8,6,114,2,5,2
23.66,4,3,5,4,8,6,3,3
23.665,1,0,2,3,33,6,1,0
23.67,5,0,1,12,30,14,0,0
23.675,1,1,2,9,7,11,1,1
23.68,1,0,3,7,20,12,3,2
23.685,3,3,3,10,60,9,4,5
23.69,2,0,0,20,11,9,1,0
23.695,0,1,1,3,35,5,4,4
23.7,2,1,2,5,10,5,5,3
23.705,3,2,4,0,35,5,2,1
23.71,1,0,2,0,23,1,1,2
23.715,0,1,1,1,36,2,3,1
23.72,0,4,2,8,38,10,3,1
23.725,2,6,6,2,25,13,4,1
23.73,2,5,0,9,3,1,1,1
23.735,1,0,2,10,7,1,0,1
23.74,2,1,0,1,18,2,1,0
23.745,2,2,2,6,117,5,2,6
23.75,0,3,7,34,54,3,4,4
23.755,0,1,3,3,3,7,2,3
23.76,1,6,2,9,4,2,2,5
23.765,1,1,2,15,9,0,1,1
23.77,5,1,1,15,8,6,6,0
23.775,2,1,1,2,25,7,2,1
23.78,2,2,2,4,3,0,3,1
23.785,2,2,2,4,21,1,2,1
23.79,1,1,0,4,3,1,0,9
23.795,6,2,3,6,21,2,1,14
23.8,9,1,1,0,0,2,1,3
23.805,1,2,1,3,16,1,1,1
23.81,1,3,3,9,18,0,1,0
23.815,9,4,0,3,10,1,1,7
23.82,17,6,0,0,5,1,4,3
23.825,1,9,2,2,7,2,0,5
23.83,8,1,2,8,10,1,1,8
23.835,3,3,1,0,4,2,1,2
23.84,14,7,2,4,27,0,1,3
23.845,16,2,1,14,45,3,3,12
23.85,5,4,2,3,10,1,2,5
23.855,3,3,2,2,5,0,3,8
23.86,1,5,1,2,14,3,3,2
23.865,6,0,0,21,102,5,1,4
23.87,3,6,8,45,76,13,5,6
23.875,2,5,4,0,6,2,1,2
23.88,1,2,28,10,19,1,2,5
23.885,5,7,3,3,0,0,0,5
23.89,3,0,3,16,23,1,0,1
23.895,7,0,8,1,5,1,3,2
23.9,2,1,20,5,4,0,0,2
23.905,2,4,2,5,4,4,4,2
23.91,2,1,2,8,8,1,3,0
23.915,1,0,0,1,15,4,5,2
23.92,1,2,8,6,2,2,1,2
23.925,2,3,2,10,18,6,1,1
23.93,2,1,0,5,20,7,4,3
23.935,2,2,2,11,0,0,1,1
23.94,6,1,7,15,17,3,0,1
23.945,2,2,2,9,6,3,1,5
23.95,4,4,5,2,57,2,4,1
23.955,2,5,5,16,74,10,4,3
23.96,7,1,1,25,60,6,4,5
23.965,1,0,2,9,33,6,4,1
23.97,2,4,0,29,54,1,2,2
23.975,2,4,2,1,0,1,2,1
23.98,3,0,6,4,3,2,1,1
23.985,2,0,5,10,34,2,0,2
23.99,3,3,4,36,105,11,1,3
23.995,0,5,8,12,49,5,1,1
24,0,2,8,8,4,1,4,3
24.005,2,3,6,1,17,3,0,1
24.01,1,2,13,4,8,1,1,0
24.015,1,4,3,4,2,1,0,2
24.02,1,4,2,4,1,0,0,6
24.025,1,2,3,5,3,3,0,1
24.03,1,1,1,9,5,0,1,1
24.035,0,1,2,7,30,5,1,2
24.04,4,2,1,13,42,1,1,2
24.045,3,0,2,10,11,0,2,1
24.05,1,0,6,5,12,1,3,0
24.055,1,3,1,7,14,0,1,1
24.06,4,2,2,5,7,0,2,2
24.065,0,2,2,5,8,1,0,1
24.07,1,2,5,3,10,1,1,0
24.075,0,2,1,8,10,3,1,2
24.08,3,0,3,3,43,1,1,2
24.085,1,1,8,28,95,2,2,1
24.09,0,3,4,2,6,5,4,4
24.095,3,3,1,1,25,3,2,1
24.1,1,1,2,11,9,3,1,1
24.105,3,2,1,2,18,1,0,2
24.11,1,0,5,2,4,2,2,0
24.115,1,1,1,8,0,1,1,1
24.12,0,7,31,3,23,4,2,2
24.125,2,2,1,8,35,1,2,2
24.13,1,2,0,8,31,1,1,0
24.135,2,2,0,7,28,1,2,2
24.14,1,1,5,4,10,2,0,1
24.145,0,4,2,1,4,3,2,2
24.15,2,2,3,3,18,0,1,3
24.155,1,1,1,4,5,0,1,1
24.16,1,1,6,9,22,0,0,1
24.165,3,1,3,8,10,3,3,1
24.17,1,1,4,10,25,1,2,0
24.175,1,3,3,7,33,2,2,2
24.18,0,1,2,8,6,3,3,1
24.185,0,2,2,1,33,4,2,3
24.19,2,2,4,14,55,1,0,0
24.195,0,0,2,3,21,3,3,0
24.2,0,1,2,4,6,2,1,1
24.205,1,2,1,3,19,1,3,2
24.21,0,0,0,9,19,2,3,3
24.215,1,2,2,8,26,3,3,1
24.22,2,1,4,4,12,0,1,1
24.225,1,1,1,1,14,1,0,1
24.23,1,0,1,0,9,1,0,4
24.235,3,0,1,2,11,3,1,0
24.24,1,1,1,5,5,0,1,0
24.245,2,1,2,2,6,0,2,2
24.25,1,0,1,0,5,3,1,1
24.255,0,0,0,2,3,2,1,3
24.26,2,2,2,13,38,3,2,2
24.265,1,0,3,15,47,2,3,2
24.27,3,1,0,14,30,5,2,2
24.275,1,0,3,11,18,12,5,1
24.28,2,1,1,8,16,2,4,5
24.285,1,1,2,12,10,6,1,2
24.29,2,1,4,6,19,3,2,0
24.295,1,2,1,6,20,6,2,1
24.3,1,4,2,10,60,2,3,0
24.305,0,2,2,17,82,4,0,1
24.31,5,3,6,19,81,11,4,3
24.315,2,1,1,9,91,10,2,1
24.32,5,3,6,67,23,18,9,7
24.325,0,7,26,19,23,3,2,0
24.33,0,1,2,33,42,4,5,1
24.335,0,2,8,46,39,11,6,3
24.34,5,4,6,44,63,1,1,2
24.345,3,1,11,95,46,12,3,4
24.35,5,5,8,74,46,25,13,6
24.355,1,7,20,5,49,9,4,2
24.36,1,5,13,57,82,0,5,1
24.365,5,1,6,54,33,4,2,5
24.37,0,1,24,59,96,11,0,1
24.375,6,4,8,11,109,10,13,5
24.38,0,3,8,6,12,33,7,2
24.385,0,4,2,43,37,14,11,3
24.39,5,8,14,15,66,45,8,3
24.395,8,11,31,102,40,46,17,12
24.4,6,3,7,20,3,19,12,7
24.405,10,4,2,8,82,44,7,9
24.41,0,2,6,14,15,7,5,0
24.415,7,5,5,2,8,14,23,9
24.42,5,4,12,13,127,21,10,2
24.425,5,8,14,28,1,6,2,3
24.43,1,2,9,50,58,28,1,0
24.435,14,6,8,26,78,2,11,13
24.44,0,1,2,18,31,32,6,1
24.445,1,3,5,46,121,25,2,3
24.45,3,1,11,28,59,1,5,4
24.455,8,4,9,7,74,1,14,10
24.46,3,2,8,17,28,4,5,5
24.465,3,3,8,16,62,43,10,5
24.47,3,3,12,42,88,18,1,3
24.475,1,3,14,3,6,23,7,3
24.48,1,2,6,87,109,17,1,3
24.485,3,2,3,4,35,5,2,1
24.49,8,6,14,15,35,3,5,4
24.495,0,9,4,21,30,1,2,5
24.5,9,8,8,39,51,36,13,10
24.505,0,2,4,21,41,6,2,0
24.51,4,3,7,31,57,23,11,2
24.515,4,2,10,64,93,17,13,3
24.52,1,2,4,43,62,11,9,5
24.525,1,4,14,7,20,4,0,1
24.53,0,1,8,60,47,12,1,1
24.535,4,0,15,54,10,13,2,1
24.54,4,5,8,57,57,7,2,3
24.545,2,2,1,29,121,1,5,4
24.55,0,1,5,41,20,10,1,4
24.555,2,3,9,37,14,25,4,5
24.56,1,4,8,3,90,3,7,4
24.565,5,4,9,58,56,6,3,4
24.57,4,4,3,23,70,7,4,2
24.575,3,9,8,2,15,36,10,5
24.58,2,2,6,23,34,28,7,1
24.585,1,0,8,15,0,4,3,0
24.59,3,6,10,6,54,4,2,2
24.595,4,7,9,60,10,14,9,5
24.6,2,0,2,14,114,8,2,1
24.605,3,1,0,27,103,4,1,1
24.61,2,4,7,7,71,6,5,3
24.615,1,4,3,2,109,2,4,2
24.62,0,0,0,10,10,1,3,1
24.625,6,6,19,34,40,5,1,2
24.63,3,2,4,19,10,11,5,3
24.635,1,5,8,2,27,3,5,3
24.64,0,0,4,16,117,2,3,2
24.645,0,1,1,3,57,2,5,3
24.65,2,1,1,7,12,4,5,2
24.655,4,1,4,2,24,8,3,1
24.66,3,2,2,2,21,14,3,3
24.665,1,1,1,30,45,9,1,0
24.67,1,5,10,13,30,24,5,2
24.675,0,2,4,8,2,3,4,4
24.68,1,2,0,4,84,6,1,0
24.685,3,0,5,35,49,12,1,4
24.69,4,3,1,25,19,8,10,5
24.695,0,1,6,4,7,3,1,1
24.7,1,4,2,2,12,3,1,1
24.705,1,0,1,14,25,5,0,2
24.71,1,0,1,14,6,6,0,1
24.715,0,1,0,4,3,3,3,0
24.72,2,1,1,2,6,7,5,4
24.725,2,5,1,15,10,5,0,3
24.73,2,2,2,8,21,6,4,3
24.735,1,1,1,10,8,1,0,0
24.74,1,1,0,13,10,0,1,0
24.745,1,1,0,2,3,0,3,1
24.75,1,0,1,9,12,1,1,1
24.755,0,3,1,4,4,1,1,1
24.76,3,1,2,4,5,3,0,2
24.765,0,1,2,11,12,1,0,0
24.77,1,1,0,8,7,7,3,5
24.775,5,0,2,0,1,1,0,1
24.78,1,0,1,1,8,1,1,0
24.785,2,3,1,4,0,0,2,1
24.79,4,2,1,5,9,1,2,3
24.795,0,6,0,6,6,1,1,2
24.8,2,10,3,1,1,2,3,1
24.805,0,2,4,1,6,1,0,0
24.81,2,6,1,2,1,2,0,1
24.815,2,1,3,2,2,0,1,1
24.82,13,5,1,11,18,1,2,0
24.825,12,5,7,33,65,11,5,4
24.83,2,1,1,2,21,1,2,2
24.835,4,4,0,6,6,1,3,1
24.84,4,0,4,1,2,3,2,4
24.845,4,0,1,8,14,2,1,2
24.85,4,1,1,2,5,0,0,2
24.855,2,1,1,7,11,2,0,0
24.86,1,1,1,4,3,1,1,2
24.865,2,2,0,8,15,1,1,0
24.87,4,1,0,1,5,6,6,4
24.875,1,2,1,4,16,2,0,0
24.88,1,5,2,6,13,1,2,0
24.885,0,2,2,5,11,1,1,1
24.89,1,3,3,0,2,1,0,2
24.895,0,1,1,5,7,4,1,1
24.9,4,0,0,2,11,4,1,3
24.905,2,0,2,8,3,4,0,3
24.91,1,1,2,19,6,8,4,3
24.915,0,2,0,0,0,3,2,1
24.92,6,4,2,0,21,5,5,1
24.925,2,1,2,9,20,3,0,1
24.93,1,1,3,21,13,1,1,1
24.935,4,4,2,18,17,3,2,1
24.94,0,2,1,4,11,0,0,3
24.945,2,0,1,13,27,5,1,1
24.95,3,1,4,19,88,3,0,0
24.955,1,0,2,9,3,0,0,1
24.96,3,4,0,5,19,1,2,2
24.965,2,1,4,13,39,2,1,1
24.97,4,4,6,14,1,9,6,4
24.975,0,2,1,4,4,3,0,1
24.98,3,1,3,4,18,3,1,1
24.985,1,0,3,2,10,3,2,2
24.99,1,1,1,5,7,0,0,0
24.995,2,2,6,9,13,2,1,3
25,1,2,1,5,4,1,1,1
25.005,1,5,4,12,20,4,2,1
25.01,0,0,1,9,26,1,2,2
25.015,3,1,3,6,8,1,2,1
25.02,2,1,2,1,14,2,0,0
25.025,2,0,0,11,26,6,1,2
25.03,0,1,1,2,3,10,2,3
25.035,2,2,1,9,24,4,2,2
25.04,2,4,2,27,14,4,3,3
25.045,0,3,1,6,9,8,4,2
25.05,1,0,2,9,21,1,2,1
25.055,1,0,0,2,11,1,0,0
25.06,0,3,2,6,2,0,2,1
25.065,2,1,3,9,0,1,1,1
25.07,0,1,3,4,4,3,3,2
25.075,0,1,1,8,5,1,1,1
25.08,3,0,4,1,25,5,1,4
25.085,1,1,1,0,18,1,1,1
25.09,2,1,1,1,3,3,1,0
25.095,2,3,3,1,6,2,0,0
25.1,1,1,5,0,2,1,1,1
25.105,0,0,1,1,3,2,0,1
25.11,1,2,1,8,17,1,1,0
25.115,0,1,1,0,5,0,1,1
25.12,1,1,1,13,12,9,2,1
25.125,1,1,2,4,4,4,6,3
25.13,1,2,0,7,3,4,4,1
25.135,1,2,2,1,2,2,2,2
25.14,0,1,1,12,3,3,0,2
25.145,2,1,2,4,1,0,0,1
25.15,3,5,0,5,2,1,1,4
25.155,1,1,1,0,1,0,1,2
25.16,0,1,2,0,3,1,4,1
25.165,1,1,0,1,3,0,2,1
25.17,1,1,5,0,0,2,1,3
25.175,1,2,0,1,5,2,1,1
25.18,2,1,2,6,20,3,4,0
25.185,2,1,3,4,30,6,4,4
25.19,1,1,1,4,5,3,0,1
25.195,1,0,1,5,11,0,0,3
25.2,2,3,2,10,28,1,1,1
25.205,2,1,0,7,12,4,1,1
25.21,1,0,1,3,3,2,1,1
25.215,1,0,2,1,11,0,1,3
25.22,1,3,2,3,0,2,2,0
25.225,1,0,4,5,16,0,2,2
25.23,2,1,2,2,20,4,1,0
25.235,2,3,1,11,2,4,3,2
25.24,0,1,2,26,28,7,3,1
25.245,2,3,2,10,5,5,0,1
25.25,2,0,0,3,10,0,4,3
25.255,0,0,1,4,13,0,2,1
25.26,1,1,0,10,1,0,1,1
25.265,2,1,0,1,1,3,2,1
25.27,1,0,2,0,15,3,3,3
25.275,1,0,0,8,2,0,3,2
25.28,3,1,1,5,33,2,1,3
25.285,1,1,2,11,3,2,1,1
25.29,2,3,16,4,13,8,4,2
25.295,3,0,2,16,39,3,4,4
25.3,1,1,1,6,20,6,1,0
25.305,4,3,8,1,4,10,5,3
25.31,2,1,4,19,92,3,0,1
25.315,0,2,5,5,84,2,1,3
25.32,0,2,7,35,2,1,0,1
25.325,2,2,0,39,79,7,2,2
25.33,2,2,6,10,50,14,8,2
25.335,0,0,0,3,21,6,4,1
25.34,2,4,29,22,2,4,3,0
25.345,2,2,3,29,88,2,2,2
25.35,1,1,3,12,27,3,7,3
25.355,4,5,9,6,65,8,0,4
25.36,6,4,44,6,59,17,7,5
25.365,1,0,1,12,75,23,7,1
25.37,6,8,6,15,39,13,13,10
25.375,3,3,2,37,41,8,5,2
25.38,1,1,12,70,15,9,6,2
25.385,1,4,12,48,106,5,2,3
25.39,1,0,8,101,125,1,3,0
25.395,1,1,1,12,14,7,3,2
25.4,5,1,0,16,67,7,1,4
25.405,11,8,20,52,65,27,14,10
25.41,3,4,14,84,81,2,10,5
25.415,2,7,27,100,88,15,4,2
25.42,2,0,0,69,25,21,7,2
25.425,6,1,7,3,63,11,1,3
25.43,0,6,19,23,18,23,12,1
25.435,1,4,13,75,95,13,5,2
25.44,2,2,10,19,15,17,8,4
25.445,0,1,17,61,128,3,3,1
25.45,4,8,10,12,11,4,5,3
25.455,4,7,9,26,7,0,11,5
25.46,5,4,13,17,46,3,3,5
25.465,1,4,14,114,73,14,9,3
25.47,2,1,2,41,128,13,3,1
25.475,0,5,21,40,112,6,2,7
25.48,8,8,20,64,63,19,12,6
25.485,3,0,3,56,24,9,4,2
25.49,1,5,7,29,92,6,4,3
25.495,4,1,2,18,55,12,4,5
25.5,6,4,2,5,127,26,15,6
25.505,0,2,1,15,2,19,1,1
25.51,2,1,5,22,44,1,3,3
25.515,6,7,9,37,78,7,17,11
25.52,4,4,1,15,54,9,3,5
25.525,1,3,32,18,103,12,1,1
25.53,2,1,0,17,20,10,5,1
25.535,2,3,8,22,37,7,2,3
25.54,2,0,2,67,20,8,1,0
25.545,3,3,10,9,42,2,5,3
25.55,4,3,2,13,26,4,1,1
25.555,3,3,10,3,55,5,2,5
25.56,4,7,47,93,61,9,2,2
25.565,3,5,4,28,58,3,9,5
25.57,5,4,3,2,12,6,5,3
25.575,5,2,1,18,28,3,6,4
25.58,1,1,7,17,31,10,1,2
25.585,1,4,1,9,111,12,2,1
25.59,1,1,2,5,6,2,1,0
25.595,2,2,7,33,22,0,2,1
25.6,1,2,3,20,69,6,0,1
25.605,1,3,1,6,55,14,3,1
25.61,3,1,2,24,12,16,4,4
25.615,2,2,2,13,25,0,2,1
25.62,3,3,5,6,13,2,1,1
25.625,1,2,1,20,8,1,1,3
25.63,3,1,6,8,5,3,3,2
25.635,2,4,8,5,58,2,3,3
25.64,2,2,5,21,18,15,6,3
25.645,4,3,2,60,80,0,7,5
25.65,2,1,4,7,35,2,0,0
25.655,2,4,4,10,24,5,0,2
25.66,5,3,8,3,29,3,3,1
25.665,2,1,1,18,14,5,2,1
25.67,3,1,2,2,9,3,3,0
25.675,0,2,2,5,17,3,1,2
25.68,3,1,1,3,6,4,2,0
25.685,3,1,2,2,15,7,2,3
25.69,0,2,4,44,96,11,4,1
25.695,1,3,9,24,2,1,3,3
25.7,1,3,3,33,10,9,3,3
25.705,6,6,2,7,92,15,11,7
25.71,2,1,2,1,42,1,3,0
25.715,0,2,2,1,8,2,0,1
25.72,1,0,1,7,29,6,3,1
25.725,1,0,0,3,52,2,3,2
25.73,3,2,5,9,3,4,1,1
25.735,4,0,2,6,6,8,7,6
25.74,1,2,2,11,17,1,2,1
25.745,2,2,2,7,6,1,1,0
25.75,2,3,4,16,6,5,1,1
25.755,1,2,3,1,15,1,3,0
25.76,2,0,1,3,11,1,2,1
25.765,1,0,3,1,6,2,4,1
25.77,1,0,2,7,12,2,1,0
25.775,2,1,2,2,0,1,1,3
25.78,1,2,4,2,30,2,5,2
25.785,4,3,4,10,10,8,7,4
25.79,1,1,2,30,38,2,5,4
25.795,5,3,5,10,7,6,8,4
25.8,0,0,2,1,48,3,0,1
25.805,3,0,1,2,76,1,1,3
25.81,2,1,2,2,60,3,1,3
25.815,2,0,1,16,14,1,3,3
25.82,1,1,2,8,10,1,6,3
25.825,1,1,1,3,16,4,0,2
25.83,2,3,1,4,8,2,2,3
25.835,1,3,2,2,14,1,2,0
25.84,3,2,4,4,3,0,1,1
25.845,1,0,2,3,10,4,2,2
25.85,4,0,2,3,32,0,1,0
25.855,3,2,1,9,57,4,3,1
25.86,3,0,1,4,14,6,4,3
25.865,0,0,1,1,19,0,1,2
25.87,2,2,4,4,1,2,4,2
25.875,1,2,1,1,23,2,2,0
25.88,1,1,2,3,0,3,2,1
25.885,1,0,1,0,5,2,1,2
25.89,0,2,3,2,13,1,0,2
25.895,0,1,1,4,9,2,2,3
25.9,0,3,0,4,8,3,4,2
25.905,1,0,0,6,7,6,1,1
25.91,4,4,4,7,4,5,0,3
25.915,1,0,4,11,56,1,0,1
25.92,5,2,2,27,95,6,3,2
25.925,2,1,5,13,38,6,6,3
25.93,1,2,1,17,16,5,0,1
25.935,1,3,3,8,8,2,1,2
25.94,4,1,0,5,5,1,3,2
25.945,1,1,1,3,3,3,2,0
25.95,1,1,0,0,9,0,1,2
25.955,0,1,3,2,9,1,2,1
25.96,3,2,2,11,40,5,4,3
25.965,3,1,1,4,5,2,1,1
25.97,1,1,1,13,30,1,2,1
25.975,1,1,1,11,15,5,0,0
25.98,4,0,3,13,33,2,1,1
25.985,1,0,2,6,17,1,2,1
25.99,1,1,1,7,7,0,0,1
25.995,3,1,0,6,18,7,3,3
26,2,2,4,4,10,3,4,3
26.005,1,9,2,0,6,3,3,2
26.01,0,1,1,1,10,1,1,2
26.015,0,0,0,4,4,0,3,1
26.02,1,1,2,5,42,2,0,1
26.025,2,1,2,5,66,5,2,0
26.03,3,1,2,3,14,2,2,2
26.035,2,5,4,4,12,1,3,2
26.04,2,2,1,3,1,1,0,1
26.045,2,3,0,8,7,3,2,3
26.05,1,2,1,13,24,1,0,1
26.055,0,3,5,15,25,3,0,3
26.06,1,0,1,8,14,2,2,1
26.065,0,2,1,3,10,1,1,2
26.07,1,0,0,5,17,3,2,4
26.075,2,0,0,4,12,0,1,2
26.08,2,3,6,9,12,0,1,1
26.085,1,0,0,2,12,0,0,0
26.09,0,1,0,5,1,2,2,1
26.095,2,0,0,0,4,2,4,2
26.1,4,1,0,6,16,3,2,3
26.105,1,2,1,4,10,2,0,1
26.11,2,0,1,5,3,1,1,1
26.115,2,7,6,1,10,0,2,1
26.12,1,1,2,1,15,6,2,0
26.125,0,1,3,0,15,2,1,0
26.13,0,1,2,2,3,0,1,1
26.135,3,0,1,6,14,2,4,3
26.14,0,2,0,1,4,0,1,1
26.145,3,4,2,2,39,1,5,1
26.15,1,0,1,3,37,2,1,1
26.155,1,1,2,20,15,1,0,0
26.16,2,2,0,4,14,3,1,3
26.165,1,0,2,11,9,2,0,1
26.17,5,3,4,10,7,4,2,1
26.175,1,0,6,9,32,4,1,2
26.18,3,3,5,23,86,6,2,3
26.185,2,1,2,7,6,0,0,1
26.19,2,3,0,3,2,4,3,0
26.195,0,2,1,1,11,6,4,1
26.2,1,1,2,1,11,2,2,1
26.205,0,0,2,4,13,1,3,1
26.21,0,1,0,4,1,1,1,1
26.215,3,2,0,11,14,3,1,1
26.22,0,1,1,17,33,4,2,2
26.225,3,2,2,9,18,0,0,0
26.23,0,2,4,27,42,5,3,2
26.235,1,0,1,4,12,1,3,1
26.24,1,1,2,8,24,3,1,2
26.245,2,1,0,8,13,1,1,3
26.25,0,2,2,2,14,1,1,0
26.255,0,0,6,1,15,5,2,2
26.26,0,1,0,1,2,1,3,4
26.265,1,0,2,7,29,3,1,1
26.27,2,3,2,9,17,3,0,1
26.275,0,4,3,13,24,1,2,1
26.28,1,1,1,17,39,4,0,1
26.285,3,1,7,35,56,4,0,3
26.29,1,0,1,12,36,0,3,5
26.295,3,0,2,3,9,1,0,3
26.3,1,1,20,4,19,8,3,2
26.305,0,0,0,2,13,7,2,0
26.31,0,2,0,3,4,1,1,1
26.315,0,1,0,0,15,7,4,1
26.32,3,4,3,1,15,3,2,1
26.325,0,2,3,1,7,5,2,1
26.33,0,3,3,1,1,2,3,2
26.335,2,0,3,0,8,2,0,3
26.34,3,2,6,4,1,2,1,1
26.345,0,2,11,4,18,1,1,2
26.35,1,2,11,6,31,3,1,1
26.355,1,2,0,0,11,2,2,2
26.36,0,2,5,6,10,3,2,1
26.365,1,0,3,10,26,3,0,0
26.37,4,1,0,6,43,7,3,2
26.375,1,1,4,10,15,0,3,2
26.38,2,4,3,4,2,0,1,0
26.385,2,5,9,2,6,1,1,2
26.39,1,3,11,6,20,0,1,3
26.395,1,2,21,5,12,2,1,1
26.4,1,2,1,3,15,3,1,1
26.405,2,3,9,11,45,3,1,1
26.41,2,1,1,2,18,2,0,1
26.415,1,2,7,6,5,0,4,2
26.42,2,3,4,3,2,1,4,1
26.425,2,1,4,4,3,0,1,0
26.43,0,0,6,11,30,2,2,0
26.435,1,0,5,2,4,2,1,2
26.44,1,1,5,8,4,1,3,0
26.445,0,3,7,3,2,2,2,1
26.45,1,1,3,15,41,5,1,1
26.455,1,1,0,3,4,1,1,0
26.46,2,0,0,0,2,3,0,2
26.465,1,2,27,8,13,1,2,4
26.47,0,2,5,7,46,2,0,2
26.475,3,2,2,9,45,4,1,4
26.48,1,5,5,13,14,1,0,1
26.485,3,2,2,1,7,1,2,1
26.49,1,3,3,2,7,2,0,0
26.495,3,2,2,1,8,0,0,0
26.5,0,1,2,5,1,0,2,3
26.505,1,2,8,10,23,3,4,1
26.51,1,7,18,24,51,1,0,1
26.515,1,0,9,8,6,1,3,1
26.52,3,5,2,14,41,1,2,2
26.525,1,1,5,18,30,7,4,4
26.53,4,5,24,1,21,5,3,1
26.535,2,3,2,28,49,1,0,1
26.54,1,0,2,14,56,3,2,2
26.545,0,1,7,2,10,1,3,1
26.55,0,5,14,21,45,8,4,2
26.555,3,5,5,9,79,1,3,3
26.56,1,4,23,29,74,6,3,0
26.565,3,0,3,34,58,1,0,2
26.57,3,4,13,11,99,5,7,5
26.575,1,1,3,46,98,3,2,0
26.58,1,1,5,15,84,5,0,1
26.585,2,3,7,49,3,2,3,5
26.59,0,2,9,86,66,10,7,2
26.595,2,2,3,60,3,0,2,3
26.6,1,2,2,46,15,17,2,1
26.605,5,5,4,4,26,7,10,6
26.61,4,1,3,9,5,3,1,1
26.615,2,7,18,19,54,11,7,6
26.62,1,2,3,22,11,4,3,2
26.625,2,4,6,26,26,10,7,4
26.63,4,2,1,18,67,6,1,3
26.635,7,15,21,11,16,22,18,10
26.64,2,4,0,57,33,18,2,2
26.645,2,3,1,4,41,0,1,2
26.65,4,7,13,17,10,28,8,7
26.655,12,15,18,12,83,33,27,12
26.66,14,7,8,73,59,24,22,14
26.665,1,4,12,26,10,22,3,2
26.67,3,4,3,3,27,12,5,0
26.675,1,2,4,2,3,8,2,2
26.68,0,1,6,34,58,11,5,1
26.685,0,2,3,4,41,3,7,1
26.69,0,6,19,101,48,4,1,2
26.695,8,8,18,8,5,12,14,10
26.7,6,4,10,44,78,20,7,6
26.705,5,10,43,15,12,18,3,1
26.71,0,4,9,6,6,14,6,4
26.715,7,6,7,7,46,2,8,5
26.72,2,3,7,4,63,13,3,1
26.725,3,2,4,19,127,29,2,5
26.73,2,4,7,34,65,13,5,3
26.735,2,1,7,51,50,10,1,0
26.74,4,3,3,20,76,7,0,0
26.745,1,1,1,35,5,13,3,3
26.75,1,5,9,24,42,7,2,0
26.755,2,3,6,15,3,1,2,1
26.76,2,3,42,55,2,7,3,3
26.765,6,5,14,20,25,15,9,8
26.77,1,2,1,7,27,5,2,0
26.775,1,0,16,6,56,8,1,0
26.78,6,3,8,33,22,5,2,4
26.785,4,5,7,6,107,7,6,5
26.79,5,3,3,7,20,7,8,5
26.795,0,1,12,14,86,14,4,3
26.8,2,2,6,9,12,1,0,0
26.805,1,1,5,13,30,3,4,1
26.81,2,3,9,8,32,6,3,3
26.815,3,3,7,15,16,11,0,3
26.82,1,3,3,10,18,1,1,3
26.825,4,4,7,1,15,13,5,3
26.83,3,2,4,7,47,2,3,3
26.835,2,4,4,5,54,0,4,3
26.84,2,3,2,25,26,4,1,0
26.845,0,1,6,3,8,0,3,1
26.85,3,0,3,25,41,3,0,1
26.855,0,1,8,1,17,2,2,1
26.86,1,1,8,9,32,2,2,2
26.865,3,1,5,35,75,11,5,2
26.87,2,4,5,26,51,2,0,2
26.875,2,2,2,1,62,5,0,1
26.88,1,0,4,38,94,7,2,0
26.885,0,4,8,35,73,2,2,0
26.89,2,1,10,27,54,3,4,5
26.895,1,2,4,1,18,2,1,2
26.9,0,0,1,5,18,1,1,0
26.905,1,0,1,13,27,4,1,1
26.91,4,3,1,4,27,4,1,2
26.915,4,3,3,11,2,3,3,3
26.92,3,0,2,23,76,6,4,3
26.925,1,1,2,4,6,2,1,1
26.93,2,1,1,1,44,6,2,1
26.935,0,1,1,2,15,0,1,2
26.94,0,1,0,4,8,1,1,1
26.945,2,5,1,0,2,3,1,3
26.95,3,1,3,7,50,1,1,1
26.955,4,2,1,27,110,5,3,5
26.96,0,1,2,5,3,2,0,1
26.965,0,1,0,7,28,3,2,3
26.97,1,2,1,0,8,1,0,1
26.975,1,2,2,4,0,1,2,1
26.98,0,2,5,14,31,3,2,1
26.985,1,0,1,4,22,2,1,2
26.99,1,0,1,2,18,2,3,3
26.995,5,4,1,9,35,3,3,2
27,1,0,3,0,41,1,1,0
27.005,9,2,1,5,24,2,4,1
27.01,9,12,3,1,13,3,5,0
27.015,5,13,1,0,19,0,0,2
27.02,1,4,4,3,9,3,4,2
27.025,0,3,0,0,1,0,1,1
27.03,7,1,2,2,25,4,2,4
27.035,1,7,2,1,14,3,2,2
27.04,2,4,4,3,18,2,2,4
27.045,3,7,1,2,4,2,1,0
27.05,1,1,5,2,4,0,3,1
27.055,0,3,2,1,6,1,2,2
27.06,0,1,2,8,5,2,2,3
27.065,1,4,0,7,4,2,1,2
27.07,0,2,32,3,0,1,1,1
27.075,3,0,3,2,3,3,1,0
27.08,0,6,8,11,21,1,1,0
27.085,1,2,3,31,64,7,3,5
27.09,1,3,11,15,15,2,4,2
27.095,3,4,11,32,46,5,0,1
27.1,5,2,6,12,9,5,3,1
27.105,4,1,19,6,19,3,0,3
27.11,1,2,6,3,6,2,0,1
27.115,1,3,2,10,24,2,0,1
27.12,0,8,11,9,7,7,0,1
27.125,3,6,2,13,14,0,1,3
27.13,2,2,4,3,15,1,3,2
27.135,0,1,4,16,39,0,2,0
27.14,2,0,6,3,2,3,1,1
27.145,1,1,5,7,28,1,2,2
27.15,2,3,1,7,6,0,0,1
27.155,0,1,10,3,9,2,1,2
27.16,5,2,4,9,10,2,2,2
27.165,1,0,2,4,2,0,1,1
27.17,2,1,8,9,0,0,0,1
27.175,1,2,8,10,10,3,1,1
27.18,1,2,1,14,34,2,3,3
27.185,2,1,0,14,23,1,1,2
27.19,2,1,3,10,1,3,3,1
27.195,2,2,2,9,6,5,3,2
27.2,1,4,3,8,21,5,3,1
27.205,1,1,2,2,16,3,2,1
27.21,1,1,2,0,3,0,3,0
27.215,2,3,16,8,18,1,1,2
27.22,1,4,7,3,36,4,2,2
27.225,0,1,5,4,13,4,1,1
27.23,3,1,5,19,69,4,0,1
27.235,4,6,0,19,66,7,2,3
27.24,0,0,1,1,6,3,1,0
27.245,1,1,2,5,10,1,1,0
27.25,0,0,1,3,1,4,1,1
27.255,2,1,7,9,22,1,1,0
27.26,0,2,1,5,7,2,3,1
27.265,3,0,8,9,5,6,5,1
27.27,3,1,9,7,22,5,5,3
27.275,1,0,5,3,12,7,3,2
27.28,1,1,1,16,13,4,2,0
27.285,2,2,6,11,31,1,0,0
27.29,2,1,0,11,31,3,3,4
27.295,1,2,5,4,6,2,2,1
27.3,1,1,2,2,13,2,2,2
27.305,1,1,1,7,22,1,2,1
27.31,3,2,5,8,39,2,1,0
27.315,0,4,5,4,26,1,2,4
27.32,1,4,8,6,3,1,6,1
27.325,2,5,6,5,29,3,0,0
27.33,0,2,4,0,8,1,2,1
27.335,2,1,3,11,16,0,1,1
27.34,2,2,2,0,26,3,0,0
27.345,3,2,4,10,3,4,6,5
27.35,1,5,1,1,3,2,1,0
27.355,0,1,5,6,10,2,1,2
27.36,2,4,0,22,37,7,4,4
27.365,1,0,5,5,28,0,3,1
27.37,1,0,0,13,5,2,1,2
27.375,1,7,13,7,36,3,1,1
27.38,1,1,2,5,19,3,2,0
27.385,1,0,9,6,9,1,1,0
27.39,0,3,2,1,12,4,3,1
27.395,3,1,0,0,4,1,2,1
27.4,1,2,3,6,10,2,3,0
27.405,1,1,2,9,11,3,1,0
27.41,1,4,8,21,34,1,1,0
27.415,3,0,0,4,45,0,2,1
27.42,2,4,3,4,17,4,3,4
27.425,2,1,2,12,20,5,3,1
27.43,1,1,0,5,3,4,3,1
27.435,0,0,1,0,19,1,0,1
27.44,2,0,15,2,1,3,2,1
27.445,1,3,2,2,3,2,2,3
27.45,3,2,2,2,0,2,1,1
27.455,1,2,1,0,3,1,0,0
27.46,1,0,2,12,5,2,1,3
27.465,2,0,3,8,9,3,1,1
27.47,0,0,1,5,17,4,0,5
27.475,1,2,4,4,46,3,4,2
27.48,3,5,14,23,90,3,3,2
27.485,1,0,1,5,27,1,3,2
27.49,1,3,3,4,7,1,2,0
27.495,1,0,1,3,8,3,1,1
27.5,1,0,2,15,34,5,4,1
27.505,1,2,3,24,33,2,3,2
27.51,2,0,1,15,28,4,3,3
27.515,1,3,4,6,3,1,1,2
27.52,1,0,5,1,14,3,1,1
27.525,3,5,11,10,30,7,4,2
27.53,3,2,0,17,34,7,4,3
27.535,3,0,1,15,2,3,3,3
27.54,2,1,2,11,30,2,6,3
27.545,3,1,0,14,43,1,2,1
27.55,1,4,4,12,50,1,2,2
27.555,1,1,1,14,85,0,4,0
27.56,1,1,3,4,103,5,3,1
27.565,3,1,2,28,12,9,7,2
27.57,2,5,6,12,18,4,3,3
27.575,1,0,0,3,19,0,5,1
27.58,2,1,1,14,57,6,4,2
27.585,2,1,1,4,48,1,1,1
27.59,0,3,8,52,69,8,6,3
27.595,5,5,7,65,68,12,5,2
27.6,1,1,0,15,63,0,1,1
27.605,4,7,5,8,55,3,4,4
27.61,7,5,12,19,2,17,11,5
27.615,5,1,14,35,34,6,1,3
27.62,2,5,16,52,113,10,1,3
27.625,2,4,13,48,40,2,1,1
27.63,3,1,5,3,73,3,0,1
27.635,6,2,1,37,7,10,7,6
27.64,1,2,4,23,101,13,6,4
27.645,1,1,12,83,53,4,1,2
27.65,1,1,1,12,90,5,4,2
27.655,2,1,2,86,109,16,7,2
27.66,4,5,9,40,21,6,10,5
27.665,1,2,7,7,65,2,1,2
27.67,4,7,18,45,56,4,2,2
27.675,9,11,12,51,104,12,9,8
27.68,8,3,1,33,58,14,14,9
27.685,1,2,13,54,84,3,5,0
27.69,1,3,7,17,50,6,2,0
27.695,4,5,4,50,127,27,12,7
27.7,5,1,1,15,128,14,9,3
27.705,7,1,16,59,109,20,3,6
27.71,10,4,3,4,8,4,8,4
27.715,2,5,15,44,82,17,5,3
27.72,8,5,19,61,127,16,10,5
27.725,7,4,13,4,9,46,7,5
27.73,3,4,2,53,113,62,14,8
27.735,1,1,6,74,107,22,8,3
27.74,11,16,29,60,46,22,15,12
27.745,9,0,8,29,119,10,2,4
27.75,5,5,2,19,108,4,10,5
27.755,6,1,6,14,66,31,7,7
27.76,1,2,16,1,49,7,5,3
27.765,0,2,7,14,63,14,3,3
27.77,6,5,13,28,17,25,8,3
27.775,0,2,4,12,34,2,1,0
27.78,0,3,6,3,15,13,7,4
27.785,0,0,7,11,24,10,2,1
27.79,4,4,18,32,34,4,5,3
27.795,1,5,2,57,26,4,7,3
27.8,0,1,4,49,26,21,2,2
27.805,3,3,8,47,127,23,10,4
27.81,3,3,3,28,93,19,1,1
27.815,1,1,3,12,128,23,4,2
27.82,6,6,13,23,84,3,4,3
27.825,2,2,2,40,95,2,7,4
27.83,2,1,5,28,74,4,1,4
27.835,3,6,12,36,54,1,4,5
27.84,1,3,12,74,46,2,1,2
27.845,1,2,1,0,0,3,3,1
27.85,5,3,2,21,31,14,10,8
27.855,3,5,16,47,59,4,1,2
27.86,1,4,12,2,2,13,4,4
27.865,0,1,3,14,60,7,0,3
27.87,4,2,1,8,96,27,4,3
27.875,5,3,3,27,26,11,5,4
27.88,1,3,6,7,50,5,2,1
27.885,2,4,2,6,63,0,3,4
27.89,0,0,6,49,54,3,3,3
27.895,1,1,3,23,17,5,1,1
27.9,5,0,4,5,98,5,1,0
27.905,1,0,2,17,16,3,3,0
27.91,2,1,4,3,3,16,2,1
27.915,4,2,6,7,42,2,2,3
27.92,1,3,2,12,77,8,3,1
27.925,2,1,2,6,50,4,2,2
27.93,1,1,1,6,10,13,1,1
27.935,4,1,5,14,75,14,5,0
27.94,1,2,0,20,69,2,3,2
27.945,2,1,3,3,20,5,0,1
27.95,1,1,1,1,58,1,3,3
27.955,1,3,22,7,56,7,2,0
27.96,1,2,4,35,72,7,3,3
27.965,3,4,4,10,45,2,3,3
27.97,2,0,3,15,20,2,4,4
27.975,1,1,5,11,33,2,3,2
27.98,1,0,1,5,47,2,3,1
27.985,2,1,4,10,60,3,1,2
27.99,1,5,3,8,19,8,0,1
27.995,3,1,4,2,3,5,4,4
28,0,2,2,24,33,4,0,0
28.005,1,0,4,46,6,3,1,0
28.01,3,2,0,3,46,1,4,3
28.015,2,7,2,20,86,6,2,3
28.02,1,0,5,5,18,2,0,2
28.025,1,1,1,13,9,1,1,2
28.03,1,2,1,9,8,1,1,1
28.035,2,2,0,4,30,5,1,2
28.04,3,2,5,1,38,3,1,0
28.045,4,3,1,10,10,0,1,2
28.05,0,5,2,1,29,1,1,0
28.055,3,0,1,4,18,2,2,0
28.06,4,3,4,12,39,7,2,3
28.065,1,2,3,14,4,2,2,1
28.07,1,0,0,1,19,3,3,3
28.075,3,1,0,5,38,1,2,0
28.08,0,2,1,1,12,1,1,1
28.085,1,3,1,3,14,1,2,1
28.09,1,1,0,4,10,7,2,6
28.095,1,1,1,3,14,1,2,2
28.1,2,2,3,2,15,0,4,1
28.105,2,0,0,14,26,1,1,0
28.11,0,1,2,11,33,2,0,3
28.115,0,0,0,5,27,5,3,2
28.12,6,3,2,1,12,0,1,0
28.125,15,2,2,4,3,3,3,4
28.13,13,4,1,1,14,3,3,6
28.135,6,4,2,2,8,2,2,0
28.14,0,0,1,15,24,1,1,10
28.145,1,0,0,5,12,0,2,17
28.15,3,5,2,1,6,4,2,5
28.155,1,2,1,1,23,2,0,1
28.16,18,2,1,6,14,1,1,2
28.165,14,3,5,2,42,1,4,12
28.17,6,7,2,30,73,6,1,2
28.175,8,2,2,2,4,1,1,7
28.18,3,0,1,3,17,2,1,10
28.185,7,4,3,2,7,2,2,7
28.19,7,5,0,19,24,2,3,2
28.195,5,2,4,18,20,5,4,10
28.2,6,4,3,2,9,1,0,1
28.205,2,0,4,11,13,2,3,3
28.21,2,3,2,9,21,2,1,6
28.215,5,1,0,8,3,1,2,0
28.22,5,3,3,15,36,7,2,2
28.225,2,0,0,17,45,4,0,1
28.23,6,2,1,15,9,0,2,0
28.235,3,1,0,15,46,2,0,0
28.24,3,0,2,13,69,10,5,2
28.245,1,1,1,2,16,3,4,5
28.25,5,5,0,11,44,5,2,3
28.255,1,2,1,5,8,0,1,1
28.26,5,1,1,10,1,5,4,3
28.265,8,1,2,19,21,1,3,2
28.27,1,3,3,13,14,7,4,1
28.275,3,3,6,9,5,0,0,2
28.28,3,0,1,2,0,3,1,2
28.285,3,2,1,7,19,1,2,0
28.29,2,2,2,2,16,0,2,1
28.295,3,1,0,17,56,2,0,3
28.3,2,0,5,4,8,2,1,1
28.305,2,2,0,1,4,4,0,2
28.31,0,1,4,8,8,0,0,1
28.315,1,3,4,4,4,0,2,2
28.32,2,2,1,8,18,4,1,3
28.325,0,3,0,26,6,0,1,1
28.33,2,1,2,12,0,4,1,1
28.335,0,5,1,4,10,3,3,3
28.34,1,3,4,6,27,4,4,2
28.345,1,3,3,1,2,0,0,2
28.35,0,3,2,6,1,3,2,2
28.355,1,0,3,7,24,3,2,0
28.36,1,1,2,10,10,2,1,1
28.365,2,3,1,5,14,3,2,1
28.37,1,0,3,20,10,1,1,0
28.375,1,0,2,7,15,3,3,3
28.38,2,1,1,2,6,3,5,1
28.385,1,0,1,4,4,2,3,2
28.39,3,3,2,10,16,3,1,0
28.395,2,0,2,4,10,0,1,0
28.4,0,0,6,3,3,4,3,1
28.405,3,2,1,2,8,2,1,1
28.41,1,3,0,9,0,1,0,2
28.415,1,1,3,13,3,4,3,4
28.42,1,0,0,9,20,4,3,2
28.425,2,1,2,17,58,1,3,2
28.43,1,3,1,7,3,0,2,2
28.435,1,2,1,6,11,1,1,1
28.44,0,0,0,8,16,2,1,1
28.445,2,1,2,1,9,2,0,3
28.45,1,0,0,5,7,0,1,1
28.455,1,2,0,1,1,1,0,1
28.46,4,2,2,2,8,1,1,3
28.465,1,3,5,10,7,6,4,3
28.47,1,1,3,14,5,0,1,2
28.475,2,1,1,7,3,2,2,2
28.48,1,1,1,3,13,2,1,3
28.485,2,0,3,0,2,1,3,1
28.49,2,0,1,4,4,5,5,1
28.495,1,0,1,1,0,2,2,1
28.5,3,2,2,1,14,3,2,3
28.505,1,2,1,4,28,1,3,2
28.51,3,2,0,9,13,7,5,1
28.515,3,2,4,0,34,1,4,3
28.52,1,2,2,9,12,0,0,0
28.525,2,1,2,6,20,0,1,1
28.53,0,1,0,1,5,2,1,2
28.535,1,1,0,2,3,1,1,0
28.54,1,2,4,4,2,4,3,1
28.545,0,1,3,7,19,1,1,2
28.55,2,2,2,1,10,2,1,0
28.555,1,1,2,5,7,2,0,1
28.56,0,1,0,1,2,1,2,1
28.565,3,1,0,5,1,1,3,1
28.57,1,1,1,1,9,2,3,1
28.575,1,1,0,6,11,0,0,1
28.58,0,0,2,4,6,0,2,1
28.585,1,0,2,1,8,3,1,2
28.59,0,5,5,4,10,1,1,1
28.595,3,0,1,5,11,1,0,1
28.6,0,1,1,0,15,2,2,2
28.605,2,2,0,10,16,1,0,1
28.61,3,3,1,12,20,4,4,3
28.615,2,2,1,9,39,1,4,4
28.62,2,1,2,8,52,1,1,1
28.625,1,1,1,8,27,2,2,2
28.63,2,0,3,7,36,1,3,0
28.635,3,1,2,2,22,6,6,3
28.64,2,3,1,29,12,5,4,3
28.645,2,4,7,4,19,4,2,4
28.65,2,2,2,5,8,2,1,0
28.655,0,6,1,5,48,6,2,0
28.66,4,3,6,14,26,3,5,2
28.665,1,0,2,17,16,1,0,0
28.67,1,6,3,10,31,7,2,0
28.675,5,2,8,25,40,6,4,4
28.68,1,0,3,5,40,4,1,2
28.685,2,5,1,11,25,5,4,3
28.69,2,2,6,18,55,7,2,2
28.695,0,0,3,36,69,7,2,1
28.7,3,3,0,17,96,1,1,1
28.705,7,6,16,37,92,16,6,2
28.71,0,6,4,3,46,2,7,4
28.715,9,5,8,12,94,12,11,6
28.72,2,0,0,41,117,2,0,1
28.725,4,3,11,48,119,18,10,3
28.73,4,3,2,13,14,15,11,2
28.735,3,1,4,4,10,6,0,6
28.74,0,3,24,6,120,4,1,3
28.745,4,2,6,21,47,17,6,3
28.75,5,1,3,8,23,7,1,3
28.755,8,4,23,62,22,16,4,7
28.76,3,7,29,29,108,17,1,3
28.765,3,4,41,10,128,12,4,3
28.77,3,2,7,2,20,1,1,0
28.775,10,4,26,112,17,21,12,8
28.78,9,7,8,16,39,3,5,6
28.785,6,8,3,8,116,6,11,6
28.79,1,0,6,3,58,36,6,4
28.795,3,1,3,9,24,5,2,4
28.8,9,2,4,14,46,3,6,7
28.805,4,1,5,47,11,5,3,6
28.81,4,4,17,33,45,5,3,2
28.815,3,4,19,25,87,32,12,2
28.82,8,2,1,5,122,70,24,14
28.825,10,11,6,11,22,25,10,10
28.83,10,8,2,56,24,17,7,11
28.835,9,11,20,103,85,48,14,11
28.84,4,9,14,14,110,15,4,5
28.845,1,3,11,36,1,11,4,1
28.85,0,1,8,33,40,0,5,2
28.855,1,1,4,22,3,18,2,1
28.86,1,6,11,5,34,12,2,1
28.865,4,6,8,2,55,22,11,6
28.87,2,4,14,4,4,8,6,1
28.875,1,5,15,0,63,12,6,3
28.88,0,0,1,27,22,17,8,2
28.885,5,4,17,43,70,23,6,4
28.89,2,3,5,9,94,17,7,2
28.895,2,0,2,4,16,11,6,1
28.9,5,8,5,10,18,1,5,5
28.905,3,1,11,23,84,9,4,1
28.91,1,0,4,7,40,4,0,2
28.915,2,0,6,10,50,2,0,1
28.92,2,2,5,1,47,9,0,1
28.925,3,2,7,27,29,5,3,2
28.93,4,3,3,1,37,7,6,3
28.935,8,5,12,3,18,6,8,7
28.94,3,4,21,9,18,10,3,3
28.945,1,1,3,16,92,10,1,0
28.95,5,7,9,42,45,1,3,4
28.955,1,0,8,16,17,8,3,1
28.96,2,2,1,4,15,5,3,2
28.965,2,1,0,8,66,14,3,2
28.97,8,1,1,25,110,26,13,7
28.975,1,1,3,34,77,13,1,2
28.98,2,1,5,30,46,4,4,2
28.985,1,2,3,6,42,3,1,2
28.99,5,1,2,32,82,6,4,1
28.995,1,1,3,16,5,1,1,5
29,0,3,0,6,26,1,2,1
29.005,2,1,0,16,25,3,2,2
29.01,0,1,3,5,25,6,8,1
29.015,6,4,4,13,23,15,9,6
29.02,3,1,10,7,44,2,5,0
29.025,6,13,22,55,52,14,12,7
29.03,0,1,7,10,54,1,2,2
29.035,3,2,1,8,104,0,4,1
29.04,1,1,6,8,17,1,1,0
29.045,1,0,1,10,5,5,4,4
29.05,3,0,17,13,29,18,4,3
29.055,0,2,4,7,12,15,6,3
29.06,0,1,1,19,60,2,0,0
29.065,2,0,1,5,44,4,2,3
29.07,3,4,2,8,73,10,8,4
29.075,2,0,3,0,66,6,3,0
29.08,5,3,6,1,26,0,2,4
29.085,0,1,5,8,1,3,2,1
29.09,0,2,6,12,35,5,1,1
29.095,1,1,3,2,41,1,2,2
29.1,0,1,6,3,14,3,0,0
29.105,0,0,1,15,13,2,2,3
29.11,4,2,4,0,11,3,4,1
29.115,2,0,2,5,4,4,2,2
29.12,3,2,0,6,22,2,0,1
29.125,1,2,2,1,15,3,3,1
29.13,2,3,5,3,4,1,2,0
29.135,3,1,3,5,16,1,1,3
29.14,1,1,6,4,2,2,1,1
29.145,2,3,1,4,5,2,2,2
29.15,2,3,3,0,11,2,1,1
29.155,5,4,4,4,9,2,0,0
29.16,1,1,0,3,6,1,1,2
29.165,6,9,2,3,9,3,3,1
29.17,3,20,2,1,2,3,4,5
29.175,14,23,2,4,6,1,0,0
29.18,13,12,0,1,7,3,2,3
29.185,1,15,4,0,1,0,0,3
29.19,5,71,3,2,6,1,2,2
29.195,9,2,1,8,15,1,1,3
29.2,1,3,3,3,17,1,1,0
29.205,1,5,1,5,3,0,0,1
29.21,3,10,4,3,2,0,1,1
29.215,3,7,4,3,3,2,1,3
29.22,0,10,3,1,0,0,1,1
29.225,0,6,4,2,4,3,2,2
29.23,1,6,1,1,1,2,1,1
29.235,1,7,0,5,2,3,2,0
29.24,1,10,2,0,3,1,0,1
29.245,3,6,0,2,6,3,2,3
29.25,2,7,2,9,6,2,0,2
29.255,4,10,1,1,28,6,2,1
29.26,2,0,6,13,44,3,1,3
29.265,2,1,1,3,3,2,1,3
29.27,5,4,2,2,13,5,3,2
29.275,1,3,1,4,26,2,4,4
29.28,1,1,0,11,12,4,2,1
29.285,3,5,1,7,2,1,1,2
29.29,2,4,2,5,2,6,2,1
29.295,1,2,2,0,16,4,5,3
29.3,1,2,1,7,35,3,4,2
29.305,1,5,2,30,47,6,2,1
29.31,2,1,2,11,6,4,3,3
29.315,4,5,5,7,13,4,4,6
29.32,1,6,0,1,8,0,0,1
29.325,2,2,2,8,38,2,1,0
29.33,0,4,1,12,28,2,0,1
29.335,4,3,2,5,20,4,1,2
29.34,1,1,2,3,26,1,0,0
29.345,2,3,0,2,24,3,1,2
29.35,2,1,2,4,10,7,2,1
29.355,1,4,5,3,13,6,4,3
29.36,2,1,1,4,7,2,2,3
29.365,1,3,5,12,17,2,1,1
29.37,2,3,4,11,29,5,2,2
29.375,0,1,2,2,18,4,1,1
29.38,0,1,3,1,26,0,0,2
29.385,1,0,2,7,37,2,0,1
29.39,2,1,2,11,16,2,2,2
29.395,1,1,2,4,13,0,1,1
29.4,4,4,4,22,63,9,6,5
29.405,1,2,0,12,3,2,4,1
29.41,2,4,1,6,5,7,6,4
29.415,2,1,1,6,5,1,1,2
29.42,2,1,1,8,20,4,3,2
29.425,1,1,4,3,3,2,0,4
29.43,3,1,6,5,15,3,1,2
29.435,1,2,0,2,1,2,1,1
29.44,0,0,1,3,21,1,0,2
29.445,1,1,0,13,21,3,1,1
29.45,0,3,1,1,17,1,1,3
29.455,3,2,6,3,9,2,1,2
29.46,1,0,2,12,2,1,2,0
29.465,2,1,1,1,5,1,1,1
29.47,1,2,1,3,13,1,1,2
29.475,0,0,0,1,5,5,4,1
29.48,0,1,1,7,8,1,2,0
29.485,2,1,2,2,5,0,2,1
29.49,1,2,3,0,14,1,4,2
29.495,4,3,0,0,10,5,1,1
29.5,1,1,1,4,18,4,0,0
29.505,1,2,1,5,13,5,1,2
29.51,0,3,3,6,16,3,2,0
29.515,2,1,2,1,6,4,1,1
29.52,3,0,0,16,27,4,3,1
29.525,3,1,2,22,34,5,1,1
29.53,1,1,1,4,2,5,3,1
29.535,0,2,2,1,10,3,1,2
29.54,1,2,3,5,28,2,0,2
29.545,4,8,0,10,6,6,6,4
29.55,1,2,2,2,15,4,1,1
29.555,0,2,0,7,1,3,1,0
29.56,0,0,1,3,18,1,2,2
29.565,0,0,1,4,14,3,0,1
29.57,3,0,1,5,3,4,1,0
29.575,0,1,2,8,6,1,1,0
29.58,1,1,2,18,26,8,4,3
29.585,2,1,1,6,4,2,1,0
29.59,2,2,0,5,6,2,2,1
29.595,2,1,0,1,12,2,1,0
29.6,0,3,1,0,4,1,2,1
29.605,0,2,2,9,22,4,2,1
29.61,0,1,1,2,4,5,2,4
29.615,0,1,3,12,5,2,2,4
29.62,1,5,1,4,10,1,2,1
29.625,2,1,1,2,10,1,0,2
29.63,1,2,1,5,2,3,0,1
29.635,1,3,3,1,2,4,5,1
29.64,2,0,2,6,2,3,0,0
29.645,3,0,2,3,2,1,2,2
29.65,4,0,0,3,3,1,2,1
29.655,1,0,1,0,4,3,1,4
29.66,1,2,1,8,1,0,1,0
29.665,0,1,1,0,3,1,1,0
29.67,0,3,0,2,4,1,2,0
29.675,2,2,1,12,14,2,2,0
29.68,1,0,3,17,18,1,1,1
29.685,0,1,3,7,9,3,2,3
29.69,2,2,0,13,28,3,0,1
29.695,1,0,0,7,42,2,2,2
29.7,2,1,0,1,0,0,2,0
29.705,1,2,1,2,7,2,1,1
29.71,1,1,1,4,15,5,1,0
29.715,5,3,2,6,0,5,3,2
29.72,4,2,2,3,12,1,4,3
29.725,1,3,1,4,3,1,2,1
29.73,1,0,0,4,1,2,2,2
29.735,1,1,0,7,8,2,1,1
29.74,0,0,2,2,27,2,0,0
29.745,4,1,2,23,19,0,1,1
29.75,0,3,1,36,20,5,3,1
29.755,1,2,1,22,4,1,1,0
29.76,1,1,3,1,25,5,6,3
29.765,0,1,0,12,23,4,2,2
29.77,0,0,0,12,2,6,2,1
29.775,2,0,5,40,32,5,1,1
29.78,0,1,0,2,29,1,1,0
29.785,3,3,3,14,15,5,3,3
29.79,2,2,0,11,106,2,5,4
29.795,2,3,2,9,14,1,1,1
29.8,4,4,4,5,9,7,3,3
29.805,2,3,2,17,87,1,0,3
29.81,1,0,2,48,67,7,2,2
29.815,2,3,3,10,57,7,3,2
29.82,6,4,7,13,35,9,3,4
29.825,1,0,5,11,37,11,0,1
29.83,1,1,5,68,67,1,2,0
29.835,2,0,2,74,73,1,5,1
29.84,3,2,8,14,44,9,4,0
29.845,1,4,6,34,118,3,3,4
29.85,4,5,13,64,89,14,6,1
29.855,1,1,0,6,1,8,7,4
29.86,7,8,18,58,102,16,8,7
29.865,4,6,2,10,39,10,0,3
29.87,2,4,2,35,47,9,4,0
29.875,10,11,19,11,35,22,23,12
29.88,1,2,4,22,24,19,7,2
29.885,0,0,9,30,9,1,3,0
29.89,4,1,6,16,116,2,10,2
29.895,2,3,4,12,26,15,4,6
29.9,2,4,10,32,95,12,5,2
29.905,11,5,8,73,123,43,14,10
29.91,6,4,9,29,19,6,12,7
29.915,1,2,2,29,24,3,7,2
29.92,0,4,4,44,11,11,3,2
29.925,4,5,1,43,67,7,2,1
29.93,3,3,8,15,16,19,5,6
29.935,1,4,3,14,22,1,5,3
29.94,6,6,12,49,66,4,5,5
29.945,12,12,26,53,32,49,19,13
29.95,3,2,10,2,99,3,0,1
29.955,5,0,27,35,26,7,5,5
29.96,8,5,13,31,106,0,12,10
29.965,6,7,1,43,46,22,8,9
29.97,3,3,14,21,86,1,7,6
29.975,6,9,22,44,101,6,7,8
29.98,8,9,8,5,50,7,9,7
29.985,5,1,2,10,68,17,2,3
29.99,4,6,9,72,7,20,0,4
29.995,3,2,13,1,47,13,0,3
30,7,1,2,2,107,27,8,4
30.005,10,9,19,17,77,11,17,11
30.01,4,3,8,46,83,4,2,5
30.015,0,0,8,30,80,2,4,2
30.02,7,3,11,58,128,42,10,9
30.025,8,4,13,24,7,43,11,8
30.03,2,1,9,44,88,17,5,2
30.035,1,1,7,23,75,9,1,3
30.04,1,2,5,25,47,5,4,2
30.045,7,5,14,29,60,17,8,6
30.05,1,0,3,7,46,12,7,1
30.055,2,6,13,2,46,2,4,0
30.06,4,0,14,3,3,10,0,2
30.065,0,2,6,5,78,5,0,4
30.07,1,7,6,16,45,11,2,3
30.075,4,5,15,91,112,5,4,2
30.08,4,7,11,35,80,15,4,3
30.085,3,1,5,23,4,10,5,4
30.09,2,1,0,4,30,3,4,0
30.095,1,0,8,27,2,1,2,2
30.1,7,9,4,17,126,10,9,10
30.105,1,1,4,16,73,10,6,4
30.11,2,1,1,4,9,7,1,2
30.115,1,2,1,25,34,3,1,3
30.12,6,4,11,81,90,8,6,6
30.125,7,10,14,42,63,8,12,8
30.13,7,6,12,7,2,2,7,5
30.135,3,2,0,2,8,11,5,2
30.14,0,0,1,12,10,0,4,0
30.145,3,0,3,0,17,3,1,3
30.15,1,1,10,16,4,15,3,1
30.155,3,3,0,7,56,4,4,2
30.16,3,4,11,3,71,10,3,1
30.165,1,4,7,13,100,11,4,2
30.17,4,0,3,2,28,1,0,0
30.175,3,0,2,28,23,1,1,0
30.18,1,3,3,6,37,4,6,1
30.185,5,1,3,10,27,18,6,6
30.19,1,1,4,7,46,5,2,1
30.195,2,0,1,3,10,2,2,0
30.2,0,3,9,23,70,1,3,2
30.205,4,2,1,5,1,4,3,0
30.21,2,7,6,2,55,7,4,2
30.215,1,1,2,12,24,4,3,1
30.22,2,2,1,2,1,3,5,1
30.225,1,3,1,5,16,5,2,1
30.23,1,1,1,1,16,1,0,3
30.235,2,0,4,46,26,10,2,1
30.24,0,1,3,6,16,4,2,1
30.245,3,2,1,8,18,2,1,1
30.25,2,2,7,5,17,6,5,2
30.255,1,2,0,16,5,0,1,0
30.26,1,2,1,15,12,3,1,0
30.265,1,5,1,5,21,2,1,2
30.27,0,1,1,4,3,0,1,0
30.275,2,1,1,13,7,2,3,2
30.28,2,1,0,7,7,3,2,0
30.285,4,1,4,3,13,6,6,2
30.29,0,0,2,2,6,3,1,0
30.295,0,3,2,5,8,4,3,0
30.3,3,3,1,7,10,1,2,3
30.305,0,1,2,2,7,1,4,4
30.31,1,2,2,4,2,2,1,1
30.315,1,1,3,0,18,2,4,2
30.32,4,0,1,5,65,4,1,2
30.325,3,1,0,9,9,0,0,0
30.33,1,0,1,13,46,0,0,2
30.335,2,4,2,7,30,7,4,2
30.34,0,1,1,7,20,1,2,0
30.345,2,2,2,3,4,2,0,1
30.35,0,3,1,11,20,1,0,1
30.355,1,2,2,16,24,2,1,2
30.36,1,0,2,13,9,5,3,4
30.365,1,1,4,5,3,3,2,0
30.37,0,2,3,3,8,1,3,2
30.375,1,2,3,5,27,1,1,2
30.38,2,3,3,3,48,1,1,2
30.385,2,1,2,8,30,1,1,1
30.39,1,2,2,12,32,4,3,0
30.395,2,3,1,33,93,1,0,2
30.4,3,1,5,67,85,11,8,3
30.405,0,1,3,19,5,6,2,2
30.41,3,2,2,2,1,10,4,3
30.415,1,0,3,2,9,4,2,0
30.42,0,0,4,32,84,5,3,1
30.425,3,0,2,14,38,8,4,4
30.43,2,1,2,1,30,2,1,0
30.435,2,3,2,2,22,5,3,1
30.44,1,3,3,0,25,6,1,0
30.445,0,2,0,17,19,2,4,1
30.45,1,1,1,32,43,1,0,1
30.455,1,0,0,10,9,2,0,2
30.46,1,1,5,1,7,4,1,2
30.465,1,2,2,3,10,2,4,1
30.47,3,1,0,17,21,3,3,3
30.475,3,0,1,16,0,0,0,3
30.48,2,1,2,1,8,4,5,3
30.485,0,0,2,16,50,3,3,2
30.49,2,2,1,5,5,2,1,2
30.495,0,1,3,1,14,0,0,1
30.5,0,2,1,9,13,1,1,0
30.505,3,1,2,3,15,5,4,4
30.51,1,1,2,4,14,1,1,1
30.515,1,1,0,2,15,4,4,2
30.52,2,0,1,3,5,2,2,0
30.525,1,2,1,1,7,0,1,0
30.53,1,3,1,9,18,3,2,3
30.535,1,1,1,1,18,1,3,1
30.54,3,0,0,25,58,1,0,1
30.545,2,2,3,43,47,7,2,4
30.55,0,1,1,5,16,3,2,3
30.555,2,2,3,16,9,3,3,1
30.56,0,0,1,6,20,2,0,0
30.565,2,0,0,14,27,0,0,1
30.57,3,1,3,8,12,1,2,0
30.575,2,1,1,2,10,2,2,1
30.58,1,0,2,2,6,3,4,1
30.585,1,0,2,5,9,2,2,1
30.59,2,0,0,8,2,0,3,2
30.595,2,1,1,14,18,2,0,2
30.6,3,1,2,22,1,1,0,0
30.605,2,2,1,30,6,2,2,2
30.61,0,1,3,11,7,3,2,2
30.615,0,0,0,3,1,0,0,1
30.62,2,0,1,10,9,2,0,2
30.625,1,3,4,17,30,4,2,2
30.63,2,1,0,9,6,2,4,2
30.635,0,3,1,3,4,1,1,3
30.64,2,0,0,8,2,6,2,1
30.645,2,1,1,0,18,0,0,1
30.65,2,2,1,3,7,4,2,2
30.655,2,1,3,5,2,6,4,3
30.66,0,3,3,3,1,3,2,1
30.665,1,0,0,3,1,4,2,0
30.67,1,1,1,1,2,0,3,3
30.675,1,2,2,1,7,1,1,1
30.68,1,1,2,2,12,1,1,2
30.685,2,0,1,10,8,5,3,0
30.69,1,0,0,9,12,1,0,0
30.695,2,2,1,14,11,1,1,2
30.7,1,1,1,0,5,6,1,1
30.705,0,2,1,5,7,2,1,1
30.71,2,1,1,3,4,1,0,2
30.715,2,1,1,4,4,0,2,2
30.72,1,1,0,2,9,3,1,2
30.725,2,3,1,3,14,0,3,1
30.73,1,1,1,4,9,2,0,2
30.735,1,1,3,8,11,1,1,3
30.74,1,0,1,11,3,1,4,2
30.745,1,1,5,19,7,3,2,3
30.75,2,1,3,12,30,4,2,2
30.755,3,3,4,13,10,1,3,1
30.76,2,2,2,10,3,2,2,2
30.765,1,0,0,8,2,1,0,1
30.77,3,2,0,1,6,0,2,1
30.775,1,2,1,1,5,2,0,1
30.78,1,0,3,9,11,0,1,0
30.785,1,2,1,13,11,0,1,1
30.79,2,1,1,10,2,1,1,1
30.795,0,2,0,8,24,0,0,2
30.8,2,1,0,14,49,4,2,0
30.805,1,1,2,2,4,0,1,1
30.81,1,1,1,1,4,1,2,0
30.815,3,3,1,4,11,3,3,1
30.82,1,1,1,1,24,5,0,0
30.825,6,4,3,33,13,6,8,6
30.83,3,2,1,21,15,0,1,1
30.835,1,1,7,17,27,0,3,0
30.84,2,4,7,45,84,12,3,5
30.845,4,2,6,62,46,9,5,4
30.85,4,2,3,20,3,6,5,2
30.855,3,3,3,21,80,13,3,3
30.86,4,1,5,1,49,18,7,6
30.865,2,1,3,11,14,17,8,3
30.87,4,1,8,46,89,5,4,2
30.875,4,3,4,70,26,10,12,4
30.88,4,1,2,18,18,4,8,3
30.885,11,14,22,72,86,15,8,5
30.89,6,12,18,58,89,29,15,4
30.895,1,10,48,41,39,13,11,5
30.9,0,5,16,63,127,14,0,1
30.905,2,1,2,65,65,7,1,3
30.91,1,8,16,72,58,5,8,1
30.915,0,2,4,40,128,7,18,2
30.92,4,2,12,30,42,7,3,3
30.925,2,3,12,42,80,18,1,1
30.93,1,6,24,20,72,21,5,1
30.935,1,9,18,17,128,5,8,0
30.94,4,9,11,18,114,3,4,5
30.945,3,6,18,24,28,17,5,1
30.95,5,1,1,1,80,10,8,2
30.955,1,4,15,70,22,12,2,4
30.96,7,4,3,112,127,13,7,3
30.965,1,3,4,36,27,13,6,1
30.97,1,1,13,22,11,10,1,2
30.975,1,9,30,15,117,18,4,3
30.98,0,1,3,3,41,10,1,1
30.985,10,2,5,79,97,24,10,6
30.99,7,7,14,73,95,36,17,5
30.995,4,1,3,35,123,12,7,5
31,0,2,5,21,61,20,5,3
31.005,3,1,3,26,47,1,0,0
31.01,3,1,16,2,26,4,7,1
31.015,3,1,5,27,18,15,6,3
31.02,1,1,1,44,27,1,2,1
31.025,2,4,6,37,60,10,2,2
31.03,2,9,22,25,65,7,5,0
31.035,5,8,13,18,24,31,13,9
31.04,7,7,5,13,29,5,10,6
31.045,1,5,7,21,74,2,4,1
31.05,7,4,5,12,97,3,4,5
31.055,8,6,2,11,6,15,14,8
31.06,1,1,1,36,54,4,1,0
31.065,1,6,41,70,39,12,4,4
31.07,5,4,10,35,46,2,3,2
31.075,2,2,9,0,87,17,4,3
31.08,2,3,0,17,18,18,0,1
31.085,2,1,2,7,19,19,8,3
31.09,6,6,11,32,30,13,7,5
31.095,1,0,0,31,70,11,5,2
31.1,0,2,3,15,18,9,2,1
31.105,1,2,4,11,12,1,3,0
31.11,2,6,17,17,31,2,0,3
31.115,3,0,6,27,34,4,5,3
31.12,2,3,1,38,93,2,3,0
31.125,3,0,7,26,9,5,1,0
31.13,3,3,6,2,37,17,7,4
31.135,6,6,13,10,39,19,6,4
31.14,5,3,7,4,41,3,2,4
31.145,1,1,8,44,43,0,0,1
31.15,1,0,5,4,61,7,4,1
31.155,3,1,2,11,25,9,1,3
31.16,2,3,0,10,82,1,1,2
31.165,3,1,1,10,17,3,0,2
31.17,1,2,2,7,72,5,0,3
31.175,1,2,6,4,23,9,4,5
31.18,1,3,2,10,15,4,1,1
31.185,2,3,0,10,14,12,7,5
31.19,2,3,2,22,14,5,1,1
31.195,3,1,4,16,81,3,2,1
31.2,0,2,1,21,68,4,4,1
31.205,0,2,1,15,108,1,3,1
31.21,0,4,4,2,49,5,1,0
31.215,0,2,0,6,49,1,1,2
31.22,4,1,1,31,12,3,3,3
31.225,7,3,4,12,4,3,7,7
31.23,5,2,7,1,2,4,3,4
31.235,1,2,3,12,3,2,0,3
31.24,1,2,6,6,11,4,2,1
31.245,2,4,4,10,36,4,0,1
31.25,1,0,2,18,24,0,0,1
31.255,2,1,6,3,13,6,5,3
31.26,1,1,4,5,13,6,0,2
31.265,2,2,2,22,9,7,1,1
31.27,3,2,1,1,14,0,2,0
31.275,2,1,2,8,9,6,1,1
31.28,3,4,6,52,111,4,1,2
31.285,0,3,2,14,23,5,2,3
31.29,2,0,4,15,26,0,2,3
31.295,1,1,1,8,33,3,1,0
31.3,2,0,2,8,8,4,3,4
31.305,2,1,6,12,9,6,3,1
31.31,1,1,2,2,25,4,1,3
31.315,0,1,0,13,11,1,1,2
31.32,1,1,0,3,16,1,1,2
31.325,3,0,0,2,6,0,2,1
31.33,2,0,4,10,5,2,1,1
31.335,0,2,0,1,2,1,2,2
31.34,1,1,1,9,3,1,2,1
31.345,0,1,1,1,4,0,0,1
31.35,1,2,1,4,64,8,2,2
31.355,2,3,0,13,75,4,0,1
31.36,2,2,4,3,40,5,3,4
31.365,1,1,2,7,21,2,1,0
31.37,1,0,1,13,23,2,0,0
31.375,1,3,1,5,1,2,1,2
31.38,2,2,2,4,11,8,4,2
31.385,0,1,2,4,10,2,1,1
31.39,0,2,1,16,11,1,1,0
31.395,2,1,0,2,34,0,1,1
31.4,1,2,4,1,19,1,1,2
31.405,0,0,1,2,18,0,1,0
31.41,2,4,2,4,12,4,4,4
31.415,2,1,1,1,16,4,6,5
31.42,0,1,0,25,42,3,1,0
31.425,3,1,1,3,27,3,4,1
31.43,1,4,1,22,12,4,1,0
31.435,0,2,0,2,8,1,1,0
31.44,3,1,0,19,29,1,1,4
31.445,4,3,8,45,61,6,6,4
31.45,1,3,3,4,7,0,3,2
31.455,1,1,1,8,47,0,1,0
31.46,1,2,1,10,62,4,1,4
31.465,1,1,3,1,16,5,3,4
31.47,2,2,0,8,4,1,1,0
31.475,1,1,2,10,15,0,1,2
31.48,1,1,0,3,17,2,0,1
31.485,2,1,2,3,8,2,0,3
31.49,0,1,1,1,7,1,1,2
31.495,2,3,2,3,17,2,0,1
31.5,1,0,3,6,3,1,1,0
31.505,1,1,0,9,6,1,1,1
31.51,1,0,2,6,5,3,2,1
31.515,4,3,2,3,11,1,0,1
31.52,1,2,1,4,3,0,1,1
31.525,0,3,4,9,2,2,0,1
31.53,1,1,1,6,14,0,1,1
31.535,2,1,0,1,7,1,0,0
31.54,1,2,2,26,27,5,3,2
31.545,2,1,1,24,24,0,2,0
31.55,3,1,2,10,37,3,1,3
31.555,2,2,1,25,74,5,1,4
31.56,1,1,1,12,67,3,1,6
31.565,2,1,1,10,16,1,2,1
31.57,0,0,0,25,8,5,2,0
31.575,1,2,2,12,70,7,3,1
31.58,1,3,5,7,2,1,4,1
31.585,1,2,3,7,11,0,1,3
31.59,2,3,3,9,10,1,0,1
31.595,2,3,0,7,14,7,3,3
31.6,1,2,3,2,20,4,2,1
31.605,2,1,2,3,14,1,2,1
31.61,1,0,5,2,12,1,2,2
31.615,0,1,3,11,21,1,1,2
31.62,1,2,2,10,14,2,3,0
31.625,1,3,2,11,20,0,1,1
31.63,2,2,3,14,24,5,3,1
31.635,2,2,0,9,6,2,0,3
31.64,0,2,2,5,9,1,1,0
31.645,2,0,1,3,8,2,2,0
31.65,1,0,2,5,13,1,0,1
31.655,3,0,2,1,1,2,0,2
31.66,0,1,2,12,12,2,2,2
31.665,1,0,1,0,40,2,2,0
31.67,0,0,0,7,47,2,1,3
31.675,0,0,1,4,3,1,1,0
31.68,2,3,0,5,2,1,1,1
31.685,0,0,0,0,5,2,2,2
31.69,2,1,1,8,19,1,1,1
31.695,0,3,1,5,3,5,5,4
31.7,3,0,3,1,1,3,1,1
31.705,3,5,2,5,17,1,1,2
31.71,1,2,1,4,13,0,0,0
31.715,0,2,1,2,13,1,1,1
31.72,1,0,0,1,7,1,0,0
31.725,1,2,3,9,19,2,3,2
31.73,2,0,1,5,4,0,1,1
31.735,1,0,1,3,13,0,0,3
31.74,1,1,1,7,1,1,2,3
31.745,2,0,2,37,18,3,1,1
31.75,2,4,5,3,8,1,4,3
31.755,1,1,0,8,1,2,1,0
31.76,0,0,3,8,12,2,4,1
31.765,0,2,1,3,11,0,1,0
31.77,0,3,2,2,9,3,4,4
31.775,0,1,0,4,4,1,0,2
31.78,3,2,4,2,4,0,0,4
31.785,1,1,1,28,4,4,4,4
31.79,2,0,1,32,28,5,6,4
31.795,0,2,3,2,3,1,1,0
31.8,0,1,0,3,9,2,1,0
31.805,2,1,3,4,12,2,0,0
31.81,1,0,2,11,17,3,1,1
31.815,0,0,1,5,6,3,0,0
31.82,0,3,1,6,16,2,1,2
31.825,1,2,3,1,3,1,2,2
31.83,1,0,2,8,7,1,1,3
31.835,0,2,2,5,4,4,1,1
31.84,0,2,2,3,0,1,2,2
31.845,1,1,1,5,14,2,2,0
31.85,4,2,2,1,17,3,1,3
31.855,4,1,1,6,15,1,2,2
31.86,1,0,0,5,0,2,3,1
31.865,2,1,1,6,0,1,1,0
31.87,0,0,4,19,14,2,1,2
31.875,1,1,3,5,10,3,1,0
31.88,2,2,1,4,18,3,3,1
31.885,2,0,2,13,40,5,1,0
31.89,2,1,2,5,2,2,2,1
31.895,2,2,0,5,21,0,1,1
31.9,0,1,0,9,38,2,3,2
31.905,3,5,2,34,2,3,3,3
31.91,1,4,2,17,11,1,3,2
31.915,0,0,2,4,15,6,3,3
31.92,2,2,0,36,7,4,4,1
31.925,1,1,1,38,12,4,0,2
31.93,2,5,5,11,16,3,2,1
31.935,2,0,4,9,100,5,3,4
31.94,0,1,3,16,4,0,1,1
31.945,2,2,6,22,33,1,4,2
31.95,0,1,0,4,49,7,0,2
31.955,4,8,16,42,85,18,7,3
31.96,4,6,17,7,14,15,10,1
31.965,10,18,44,109,93,30,10,10
31.97,4,5,12,59,25,5,2,2
31.975,1,5,20,61,14,18,4,1
31.98,2,2,2,89,65,5,3,6
31.985,8,10,19,25,21,18,16,11
31.99,15,15,25,1,10,22,18,15
31.995,2,1,4,29,104,0,1,0
32,7,4,7,5,63,17,9,7
32.005,4,8,10,11,23,19,4,3
32.01,2,2,1,23,66,17,6,4
32.015,2,9,2,75,7,32,4,0
32.02,3,0,2,61,43,4,2,2
32.025,3,10,44,9,19,13,1,2
32.03,7,2,7,54,48,6,6,9
32.035,1,1,4,75,29,0,2,2
32.04,1,5,28,23,110,18,1,1
32.045,2,6,33,5,5,12,4,2
32.05,9,8,6,88,86,29,2,4
32.055,1,2,14,12,73,8,0,0
32.06,2,3,15,40,27,8,2,2
32.065,5,6,11,35,7,6,6,6
32.07,6,8,5,7,89,8,12,11
32.075,3,6,19,18,3,7,2,1
32.08,2,1,7,16,38,15,4,4
32.085,7,3,13,34,31,10,2,6
32.09,5,0,4,32,36,15,3,3
32.095,18,20,62,37,62,36,23,14
32.1,6,4,13,81,25,9,4,6
32.105,6,8,3,52,74,20,12,7
32.11,4,6,3,75,15,14,10,5
32.115,1,2,11,8,8,4,1,2
32.12,1,0,8,24,50,5,0,2
32.125,3,1,3,43,59,0,2,2
32.13,2,1,2,43,24,30,7,3
32.135,9,8,10,56,31,8,9,9
32.14,5,4,5,71,41,6,3,5
32.145,0,5,16,43,32,14,1,1
32.15,0,4,5,28,26,13,4,4
32.155,4,7,9,57,42,12,6,5
32.16,4,4,3,9,84,5,8,3
32.165,5,3,6,56,54,13,5,3
32.17,2,0,4,21,8,1,0,0
32.175,2,5,6,34,47,12,2,3
32.18,6,4,1,11,47,23,8,4
32.185,2,4,8,68,35,12,4,3
32.19,3,2,1,2,45,6,0,1
32.195,0,0,3,48,4,5,2,1
32.2,2,2,0,13,58,0,4,6
32.205,5,9,33,4,38,5,5,2
32.21,5,2,11,5,7,6,2,4
32.215,3,3,24,16,58,2,1,1
32.22,2,8,11,12,85,8,2,1
32.225,1,0,6,33,43,9,7,5
32.23,3,2,2,35,80,22,5,2
32.235,1,2,1,44,84,7,1,1
32.24,3,1,4,2,10,5,5,5
32.245,3,0,1,28,2,3,4,4
32.25,1,1,3,26,51,8,1,1
32.255,1,2,15,25,61,2,1,1
32.26,0,3,1,3,23,4,0,3
32.265,4,3,1,6,65,19,5,1
32.27,1,1,6,15,30,3,3,0
32.275,2,2,11,4,33,8,2,1
32.28,0,1,1,31,24,8,2,1
32.285,4,5,4,55,73,2,7,5
32.29,1,1,1,21,44,7,0,2
32.295,0,1,11,6,22,6,0,0
32.3,0,1,1,23,44,2,2,2
32.305,3,2,4,32,58,10,5,6
32.31,0,2,4,6,6,1,1,3
32.315,6,2,2,22,18,1,3,6
32.32,3,1,5,31,70,7,3,5
32.325,2,1,6,5,99,9,0,0
32.33,3,0,0,16,39,1,3,1
32.335,1,3,1,41,16,2,2,0
32.34,6,2,6,27,51,19,7,4
32.345,3,0,13,37,5,5,3,0
32.35,0,0,8,11,4,3,1,0
32.355,0,2,1,6,64,4,0,1
32.36,2,0,1,16,65,6,2,3
32.365,3,2,3,20,8,9,6,5
32.37,1,1,2,20,53,1,2,1
32.375,1,1,3,1,1,3,2,2
32.38,0,5,1,2,21,2,2,3
32.385,0,7,6,0,39,3,1,3
32.39,3,1,5,17,25,2,3,2
32.395,1,2,2,0,2,5,4,2
32.4,4,3,3,1,28,3,1,1
32.405,4,0,1,3,128,7,2,4
32.41,0,0,2,13,21,2,4,0
32.415,0,2,2,8,7,3,1,0
32.42,1,4,1,0,9,2,2,3
32.425,0,2,0,9,23,5,2,1
32.43,1,1,3,21,29,1,3,1
32.435,1,1,2,31,1,6,3,1
32.44,1,2,1,4,29,1,2,3
32.445,0,1,1,4,14,1,0,2
32.45,1,3,1,7,13,2,1,1
32.455,1,0,3,8,4,0,0,1
32.46,1,1,1,2,18,2,2,2
32.465,4,4,2,2,20,0,1,2
32.47,2,0,0,4,31,4,2,1
32.475,2,1,2,0,14,1,1,1
32.48,1,2,2,2,3,2,2,3
32.485,3,0,0,16,6,2,1,0
32.49,2,5,29,9,9,3,1,1
32.495,0,3,1,10,1,5,3,2
32.5,2,3,4,6,8,1,1,0
32.505,1,0,6,4,13,4,5,1
32.51,1,1,4,0,2,0,3,1
32.515,4,1,1,17,23,2,2,2
32.52,2,0,6,2,4,1,2,2
32.525,1,1,2,2,22,0,1,3
32.53,1,0,3,2,6,2,1,0
32.535,1,1,4,5,54,3,1,2
32.54,5,4,3,29,43,7,5,3
32.545,2,4,5,2,44,1,1,1
32.55,2,1,3,6,8,1,3,2
32.555,1,2,5,9,4,0,0,0
32.56,1,2,0,1,2,0,2,0
32.565,0,1,3,0,1,1,2,1
32.57,1,2,0,1,3,2,0,4
32.575,2,3,3,1,15,3,3,2
32.58,3,0,1,9,13,1,0,2
32.585,1,1,5,6,24,3,4,3
32.59,6,13,4,2,4,4,3,2
32.595,0,1,3,1,10,1,2,1
32.6,1,0,0,5,1,2,0,0
32.605,1,2,2,2,9,0,1,1
32.61,2,3,1,5,3,0,1,0
32.615,3,3,5,1,18,1,0,3
32.62,3,2,1,22,45,1,2,3
32.625,1,2,8,47,62,4,1,1
32.63,0,2,0,0,7,1,2,3
32.635,0,3,1,1,0,1,3,1
32.64,1,3,3,19,40,3,1,0
32.645,4,5,6,25,69,7,3,1
32.65,1,1,3,14,22,0,2,1
32.655,2,2,1,4,1,2,2,0
32.66,1,1,1,6,19,1,2,2
32.665,1,2,4,24,48,5,3,2
32.67,1,0,2,10,17,1,0,1
32.675,1,1,0,3,14,3,1,1
32.68,1,2,2,3,1,4,3,3
32.685,0,3,1,8,16,1,3,0
32.69,2,1,4,3,6,3,3,1
32.695,1,2,0,4,2,1,1,4
32.7,1,0,1,8,10,0,2,1
32.705,3,0,3,6,10,1,1,1
32.71,0,1,2,0,6,1,0,1
32.715,3,1,2,2,2,0,2,2
32.72,2,2,2,10,16,3,1,0
32.725,0,1,1,0,19,1,0,0
32.73,2,1,1,5,28,1,2,1
32.735,4,3,5,8,41,5,4,1
32.74,0,2,3,12,2,2,2,1
32.745,0,1,1,2,1,1,1,1
32.75,0,0,0,1,7,3,2,2
32.755,1,3,1,2,10,3,2,1
32.76,3,1,0,4,11,4,5,3
32.765,1,0,2,10,21,1,2,4
32.77,2,1,1,26,24,3,3,3
32.775,1,1,2,21,31,0,1,0
32.78,2,3,5,28,71,4,4,3
32.785,0,1,1,2,11,2,3,0
32.79,3,3,0,17,9,1,0,0
32.795,0,2,2,7,6,3,3,1
32.8,2,1,0,16,24,0,2,0
32.805,2,0,1,6,7,2,2,3
32.81,1,0,4,5,21,3,4,2
32.815,1,3,2,14,10,3,4,0
32.82,1,0,0,6,18,0,0,3
32.825,0,2,1,2,25,2,1,1
32.83,1,1,0,1,3,0,2,2
32.835,1,1,2,7,9,3,2,3
32.84,0,1,2,0,6,6,4,2
32.845,3,0,1,2,1,1,1,1
32.85,2,2,1,14,24,2,1,2
32.855,3,4,3,28,64,4,4,3
32.86,1,2,3,10,3,6,4,2
32.865,1,0,1,10,9,2,0,2
32.87,0,3,4,2,15,2,2,3
32.875,4,1,7,0,13,0,1,1
32.88,2,4,0,12,12,2,0,0
32.885,0,0,0,10,11,1,2,1
32.89,2,1,1,4,16,4,0,2
32.895,0,0,4,16,14,1,0,2
32.9,1,0,3,8,64,0,2,1
32.905,3,3,3,21,77,5,3,4
32.91,0,1,0,2,10,1,2,1
32.915,0,0,1,11,19,1,1,2
32.92,1,1,1,6,13,2,0,1
32.925,4,1,2,2,19,2,4,2
32.93,1,1,2,6,21,0,1,2
32.935,1,1,2,10,1,0,1,1
32.94,3,0,2,8,5,1,1,2
32.945,0,1,2,1,3,2,1,2
32.95,0,3,4,5,9,0,1,0
32.955,0,2,2,3,20,0,0,2
32.96,2,0,1,1,11,1,0,0
32.965,1,3,0,5,23,0,1,1
32.97,1,1,3,13,14,2,1,0
32.975,2,1,1,2,3,3,4,1
32.98,1,2,2,20,16,3,0,0
32.985,3,4,5,35,33,6,2,2
32.99,2,2,1,10,20,2,0,1
32.995,3,3,3,4,37,2,1,2
33,3,1,1,3,8,3,1,0
33.005,2,0,0,11,26,1,0,0
33.01,0,2,1,8,15,1,2,1
33.015,1,0,3,10,16,2,1,1
33.02,0,1,2,16,8,2,3,4
33.025,1,1,4,12,14,1,0,0
33.03,1,1,1,0,10,1,1,1
33.035,2,0,1,8,6,0,0,0
33.04,1,2,3,2,6,2,3,0
33.045,0,1,2,3,20,1,0,0
33.05,1,1,2,0,11,0,3,0
33.055,2,0,0,3,1,0,1,1
33.06,1,1,1,4,6,3,0,0
33.065,2,3,3,3,8,3,2,3
33.07,4,1,0,13,14,2,1,2
33.075,1,1,1,6,16,1,1,1
33.08,2,1,1,10,36,3,4,4
33.085,0,2,2,12,61,2,0,2
33.09,1,4,0,13,37,4,0,0
33.095,3,3,7,54,60,11,5,1
33.1,0,3,3,12,50,1,3,2
33.105,1,0,1,5,10,0,1,1
33.11,1,3,3,11,91,2,0,1
33.115,6,2,3,19,75,12,7,5
33.12,1,1,2,10,34,8,4,1
33.125,0,0,10,32,57,1,1,2
33.13,3,0,2,27,25,6,1,0
33.135,4,3,1,56,107,11,2,3
33.14,6,4,6,53,71,17,10,6
33.145,3,1,5,8,48,1,1,7
33.15,3,0,5,25,91,15,0,1
33.155,1,4,7,24,61,2,0,2
33.16,5,4,8,74,10,14,6,4
33.165,6,7,12,38,29,20,11,8
33.17,3,3,7,23,67,14,2,2
33.175,0,0,1,27,22,3,2,1
33.18,0,1,2,28,60,10,2,2
33.185,3,3,9,23,53,1,1,1
33.19,2,0,24,21,79,2,1,5
33.195,3,11,7,42,124,12,10,4
33.2,9,10,28,25,8,26,20,11
33.205,9,1,13,24,95,7,7,9
33.21,5,8,11,47,90,13,7,3
33.215,8,11,18,27,75,9,7,4
33.22,12,13,30,64,128,21,15,9
33.225,3,1,17,84,127,32,7,7
33.23,2,3,11,31,89,6,14,3
33.235,11,8,20,86,97,23,9,11
33.24,2,2,0,76,81,23,7,7
33.245,2,0,9,59,74,20,4,1
33.25,4,10,26,57,93,8,0,2
33.255,4,2,2,39,124,7,12,5
33.26,6,1,9,41,75,1,7,5
33.265,2,2,10,27,38,23,3,1
33.27,4,3,7,30,4,1,1,4
33.275,5,4,16,104,71,2,6,5
33.28,1,2,1,92,71,4,8,2
33.285,4,3,3,49,53,16,5,1
33.29,3,1,13,112,53,9,3,2
33.295,8,2,12,29,5,1,2,3
33.3,8,8,20,18,37,28,12,8
33.305,7,1,1,12,48,14,6,5
33.31,1,2,5,17,5,0,0,1
33.315,5,1,1,4,11,4,5,4
33.32,3,0,3,32,31,0,5,0
33.325,8,4,8,36,20,16,7,3
33.33,4,2,2,28,1,7,7,4
33.335,1,6,6,19,68,3,7,2
33.34,3,1,1,58,48,12,7,7
33.345,0,3,5,35,51,15,4,1
33.35,9,8,4,8,79,1,13,13
33.355,3,4,6,13,2,7,1,0
33.36,6,5,0,49,21,5,9,7
33.365,9,9,10,11,28,8,12,7
33.37,4,3,3,17,60,9,2,5
33.375,2,0,1,17,24,7,0,3
33.38,3,2,3,7,27,6,1,4
33.385,4,4,3,8,9,24,4,4
33.39,2,1,1,18,13,2,2,1
33.395,3,1,7,7,47,1,4,1
33.4,1,5,27,45,74,1,1,0
33.405,5,0,2,17,4,14,2,2
33.41,4,3,4,2,33,14,5,7
33.415,2,0,8,15,68,6,2,3
33.42,3,3,7,3,127,2,1,2
33.425,1,1,1,31,55,16,7,4
33.43,3,4,6,2,61,8,2,0
33.435,2,2,0,13,18,5,1,2
33.44,0,0,8,2,11,3,5,1
33.445,1,2,2,10,25,2,3,1
33.45,1,1,4,20,78,5,1,1
33.455,1,1,2,8,52,4,1,1
33.46,2,1,9,45,75,12,4,1
33.465,0,5,14,17,127,4,5,1
33.47,1,3,1,29,24,2,1,0
33.475,3,5,6,5,54,15,7,3
33.48,1,1,6,1,24,0,1,1
33.485,1,2,2,1,2,3,1,3
33.49,2,2,1,9,28,0,1,1
33.495,1,3,4,3,12,7,0,1
33.5,2,3,0,25,33,11,3,1
33.505,0,1,0,8,15,7,4,0
33.51,4,0,2,40,75,7,6,2
33.515,0,1,4,7,42,15,5,0
33.52,0,2,2,11,6,8,4,1
33.525,2,0,1,5,12,1,1,0
33.53,2,1,1,12,25,2,1,2
33.535,0,2,0,4,2,1,1,1
33.54,1,2,1,2,6,5,0,1
33.545,1,1,1,1,5,0,1,0
33.55,1,3,3,3,36,1,1,2
33.555,0,1,0,4,19,1,2,4
33.56,1,0,1,14,22,8,4,3
33.565,2,1,0,7,10,0,1,2
33.57,1,4,0,2,8,2,2,3
33.575,1,3,1,2,6,2,1,0
33.58,2,1,3,6,18,4,1,4
33.585,2,2,2,5,10,2,4,4
33.59,1,1,2,2,28,2,1,2
33.595,1,0,1,2,5,0,0,0
33.6,3,1,3,7,3,3,4,4
33.605,1,2,1,6,7,1,1,0
33.61,3,4,4,14,9,3,1,1
33.615,0,2,2,6,5,6,3,0
33.62,0,3,1,3,19,3,6,4
33.625,1,1,0,2,2,1,1,1
33.63,2,2,1,2,21,0,2,1
33.635,2,0,3,2,13,0,1,0
33.64,1,1,3,7,3,0,0,1
33.645,3,0,3,6,9,1,3,1
33.65,2,3,2,7,19,1,4,4
33.655,1,2,0,8,10,1,0,2
33.66,1,2,2,1,3,4,2,3
33.665,1,1,3,4,10,1,1,2
33.67,0,5,32,5,9,0,2,2
33.675,1,2,2,3,21,3,1,1
33.68,0,1,0,5,27,3,4,4
33.685,1,2,0,1,2,1,0,1
33.69,1,1,9,10,64,3,0,1
33.695,3,5,9,29,80,5,6,3
33.7,1,0,4,0,3,0,2,2
33.705,4,1,0,9,22,2,1,2
33.71,0,3,5,17,47,1,0,2
33.715,1,1,3,17,11,1,0,0
33.72,2,1,1,18,5,4,0,2
33.725,2,5,7,10,9,2,6,6
33.73,4,1,3,12,41,3,1,2
33.735,0,1,2,9,9,1,1,1
33.74,1,0,0,2,9,3,3,1
33.745,1,0,1,4,21,2,3,1
33.75,0,1,2,9,15,4,2,1
33.755,3,3,1,6,4,2,0,3
33.76,0,3,3,2,1,2,3,1
33.765,2,1,1,1,12,0,2,2
33.77,0,4,3,2,23,2,3,2
33.775,1,1,0,5,15,2,2,1
33.78,1,1,0,7,20,2,1,2
33.785,1,2,8,2,5,3,1,0
33.79,1,0,2,5,6,0,1,3
33.795,2,2,1,4,22,2,3,3
33.8,0,1,4,12,6,2,0,1
33.805,2,2,2,1,2,1,2,2
33.81,1,3,2,13,3,4,3,3
33.815,0,0,2,7,3,1,0,2
33.82,2,3,0,1,10,0,0,2
33.825,2,1,5,9,53,3,1,0
33.83,3,1,1,6,69,5,1,0
33.835,4,2,0,3,12,3,0,1
33.84,2,0,5,5,24,3,4,1
33.845,1,1,0,2,8,5,2,0
33.85,2,3,2,11,18,0,2,2
33.855,2,1,1,2,4,1,0,0
33.86,4,2,0,1,5,2,1,1
33.865,2,4,1,5,5,0,1,0
33.87,1,2,2,0,5,1,0,1
33.875,0,1,1,5,16,3,1,5
33.88,2,2,2,5,7,1,4,2
33.885,0,2,3,15,26,3,1,2
33.89,2,0,0,6,19,1,1,1
33.895,1,0,1,7,3,2,4,1
33.9,1,0,1,2,4,1,1,1
33.905,0,0,1,6,2,3,3,0
33.91,3,1,2,12,3,2,1,1
33.915,2,3,2,7,0,3,0,1
33.92,0,2,2,13,16,3,6,3
33.925,2,1,2,5,38,4,2,2
33.93,0,3,1,2,19,1,0,0
33.935,1,2,1,1,5,4,1,2
33.94,4,2,2,5,15,1,0,0
33.945,3,1,1,4,12,1,2,2
33.95,1,2,2,4,16,1,3,1
33.955,2,0,1,10,8,1,1,2
33.96,0,1,3,15,19,1,1,2
33.965,1,4,3,28,53,5,7,3
33.97,2,0,0,2,5,1,3,1
33.975,2,0,1,8,4,2,0,3
33.98,1,0,1,5,6,0,1,1
33.985,3,2,1,6,9,0,0,1
33.99,1,1,1,3,5,2,3,0
33.995,0,0,1,2,21,0,1,0
34,3,2,4,17,69,11,6,4
34.005,2,1,4,17,15,1,1,2
34.01,2,1,2,10,12,8,4,2
34.015,0,3,4,3,10,4,1,1
34.02,2,4,1,2,4,1,0,1
34.025,2,2,1,2,8,2,1,3
34.03,1,1,0,2,4,3,3,1
34.035,3,1,1,3,8,2,5,3
34.04,0,1,2,0,22,6,2,0
34.045,1,2,1,1,17,2,2,1
34.05,1,2,1,3,26,2,1,2
34.055,1,2,1,7,3,1,2,0
34.06,2,2,0,4,1,1,2,1
34.065,1,1,1,9,26,0,0,0
34.07,0,0,0,0,2,4,2,2
34.075,1,3,4,1,15,2,2,0
34.08,0,1,2,19,3,3,3,0
34.085,2,0,0,15,33,1,1,1
34.09,3,1,0,19,13,0,1,0
34.095,2,4,4,13,19,4,1,1
34.1,1,1,0,9,6,0,2,0
34.105,1,2,3,22,6,0,3,0
34.11,0,1,0,9,27,1,2,1
34.115,0,1,3,11,0,3,2,1
34.12,2,0,2,5,15,2,2,0
34.125,0,0,2,4,16,1,1,1
34.13,2,1,2,9,4,1,2,0
34.135,2,2,1,19,20,3,4,1
34.14,3,2,3,16,54,3,2,3
34.145,0,0,0,1,11,1,1,2
34.15,1,1,1,15,28,2,1,2
34.155,0,3,1,15,19,1,1,1
34.16,4,3,2,1,75,5,1,3
34.165,0,1,2,4,56,1,0,1
34.17,1,2,1,15,78,0,1,1
34.175,1,3,1,51,96,1,3,3
34.18,1,0,3,0,65,1,1,1
34.185,1,5,6,6,60,1,1,2
34.19,0,3,1,51,84,1,4,1
34.195,1,5,4,19,76,2,2,1
34.2,2,4,10,8,24,5,4,0
34.205,3,4,6,51,11,6,4,5
34.21,4,5,2,5,20,12,6,0
34.215,3,1,4,0,53,4,0,0
34.22,2,6,36,23,93,2,3,4
34.225,2,3,6,30,126,5,1,4
34.23,8,14,42,76,112,26,11,9
34.235,3,5,0,20,37,8,12,5
34.24,8,9,7,51,103,1,10,8
34.245,4,11,7,27,120,8,2,3
34.25,4,7,11,52,80,2,9,8
34.255,7,11,6,1,75,3,6,10
34.26,3,4,20,7,101,1,1,2
34.265,11,3,17,52,113,26,18,14
34.27,13,10,21,84,119,13,16,13
34.275,4,5,5,21,67,37,7,3
34.28,7,3,3,20,12,7,11,5
34.285,2,2,1,7,13,7,0,4
34.29,8,2,4,58,26,17,6,8
34.295,7,3,3,30,44,5,6,5
34.3,5,1,26,15,86,16,1,2
34.305,1,2,4,20,78,3,3,3
34.31,12,13,32,31,77,6,20,15
34.315,7,9,8,22,25,11,8,4
34.32,4,6,2,61,20,16,2,3
34.325,1,0,1,30,10,14,1,2
34.33,1,3,2,12,4,3,5,2
34.335,2,1,2,15,55,16,3,1
34.34,5,1,9,19,3,2,6,5
34.345,3,0,46,5,44,10,1,2
34.35,0,2,16,16,10,6,1,1
34.355,1,2,2,28,23,3,1,2
34.36,1,2,0,7,81,12,4,2
34.365,3,5,19,8,29,9,6,4
34.37,5,3,7,15,71,6,6,4
34.375,2,1,5,4,11,5,3,5
34.38,1,3,2,7,50,12,2,1
34.385,3,0,6,37,22,4,5,5
34.39,1,0,0,39,2,2,2,2
34.395,0,1,7,33,82,2,1,3
34.4,4,2,7,28,62,1,11,4
34.405,0,1,6,5,61,9,5,4
34.41,1,1,12,37,93,5,4,2
34.415,0,2,6,20,40,1,4,0
34.42,3,4,3,3,61,12,2,3
34.425,3,2,4,9,13,1,2,3
34.43,1,0,4,45,55,5,1,0
34.435,1,2,3,9,58,2,3,2
34.44,3,2,8,6,2,4,1,4
34.445,3,2,12,30,31,4,6,1
34.45,2,2,4,28,127,9,3,1
34.455,2,5,11,58,64,15,8,4
34.46,2,2,7,4,54,1,2,0
34.465,1,1,20,11,10,4,1,4
34.47,0,1,3,18,21,5,0,1
34.475,0,2,4,7,28,1,1,1
34.48,5,6,10,14,10,6,5,4
34.485,2,3,6,47,66,12,0,1
34.49,0,3,3,21,41,8,3,1
34.495,1,3,2,4,50,5,3,0
34.5,3,0,4,1,36,5,0,1
34.505,2,3,3,0,17,4,6,4
34.51,4,1,5,24,7,7,5,2
34.515,1,0,4,6,1,4,1,0
34.52,2,1,2,8,67,1,1,0
34.525,2,2,6,5,47,6,2,4
34.53,1,2,1,12,51,15,3,1
34.535,3,1,2,15,14,10,1,2
34.54,2,2,1,2,65,2,3,1
34.545,1,5,5,26,40,2,4,4
34.55,0,2,3,7,24,9,2,2
34.555,0,1,0,19,14,3,1,0
34.56,0,1,3,11,6,1,3,1
34.565,1,1,7,4,34,1,1,1
34.57,3,3,7,20,5,1,4,4
34.575,1,1,1,8,10,0,2,2
34.58,2,1,2,42,22,7,8,3
34.585,1,2,3,17,33,3,1,1
34.59,1,2,6,9,14,1,2,2
34.595,0,2,2,1,1,1,2,3
34.6,1,2,0,4,0,4,0,1
34.605,4,2,4,14,7,7,1,0
34.61,4,2,2,14,16,4,3,2
34.615,0,0,2,4,2,0,0,1
34.62,3,0,0,2,20,2,1,2
34.625,1,1,2,5,16,3,3,3
34.63,3,1,1,7,60,1,1,1
34.635,2,1,2,14,9,3,0,0
34.64,1,1,3,0,15,1,1,2
34.645,2,2,5,23,47,2,1,2
34.65,1,0,3,1,9,1,1,3
34.655,2,3,1,10,1,4,1,1
34.66,3,4,1,1,8,4,3,1
34.665,1,2,0,9,14,3,0,1
34.67,0,3,2,5,18,3,1,2
34.675,1,0,2,1,14,1,1,3
34.68,3,1,3,0,14,3,0,1
34.685,1,1,1,9,12,3,1,2
34.69,1,3,1,7,17,3,3,1
34.695,0,0,3,8,7,1,0,0
34.7,1,3,4,12,8,1,1,2
34.705,1,4,1,5,7,2,2,4
34.71,1,1,2,5,5,5,4,2
34.715,3,2,1,1,7,1,0,2
34.72,0,1,1,1,4,1,1,2
34.725,2,1,2,0,1,2,2,1
34.73,0,1,1,3,12,2,1,0
34.735,1,1,1,1,0,1,2,2
34.74,1,1,0,1,6,0,1,1
34.745,1,0,1,14,38,3,0,0
34.75,2,1,3,18,36,4,3,2
34.755,1,1,2,3,15,1,3,1
34.76,0,4,6,0,8,1,1,0
34.765,1,0,0,15,29,5,0,1
34.77,0,1,9,57,67,1,1,1
34.775,0,0,2,11,15,2,0,2
34.78,5,0,2,19,63,12,7,4
34.785,0,1,1,11,1,10,4,1
34.79,1,0,2,10,39,2,1,1
34.795,1,3,1,1,22,3,1,3
34.8,0,1,1,10,26,3,2,0
34.805,3,4,2,14,10,6,4,1
34.81,2,2,0,12,7,1,1,0
34.815,1,2,2,2,9,3,1,0
34.82,1,1,2,6,11,0,2,0
34.825,1,4,1,9,19,0,1,1
34.83,1,2,0,8,17,0,0,1
34.835,3,0,0,6,8,2,2,1
34.84,1,1,3,9,3,1,0,1
34.845,1,2,2,0,14,2,2,3
34.85,2,0,2,8,10,0,1,2
34.855,1,1,2,4,0,1,1,0
34.86,1,1,4,11,2,3,1,3
34.865,2,1,4,7,15,6,4,2
34.87,3,2,2,15,12,3,0,0
34.875,0,0,0,1,14,3,0,0
34.88,0,0,0,7,19,1,1,0
34.885,0,2,0,3,7,6,2,0
34.89,2,1,3,1,10,0,1,2
34.895,1,0,2,1,1,3,1,4
34.9,0,3,4,6,3,1,1,3
34.905,0,1,2,11,1,3,0,0
34.91,1,1,4,30,15,1,1,1
34.915,2,3,0,2,22,2,1,1
34.92,4,4,8,5,15,6,3,2
34.925,2,0,2,7,7,2,3,2
34.93,0,1,1,14,4,2,1,2
34.935,3,1,0,3,1,0,1,2
34.94,2,1,1,7,4,3,1,1
34.945,1,2,1,4,4,0,1,2
34.95,1,1,1,6,5,1,1,3
34.955,1,2,2,3,13,3,0,0
34.96,1,3,0,4,3,2,2,3
34.965,2,0,2,9,10,1,2,3
34.97,1,2,2,7,1,4,2,3
34.975,4,1,5,24,13,4,4,1
34.98,1,0,0,10,0,1,2,1
34.985,0,2,2,4,19,2,0,1
34.99,0,5,3,24,28,3,1,2
34.995,1,1,0,20,10,3,2,2
35,3,0,0,8,1,2,1,2
35.005,0,1,1,4,18,2,2,2
35.01,2,0,1,18,9,1,0,1
35.015,3,5,5,16,23,4,3,3
35.02,2,1,0,8,17,1,2,2
35.025,3,2,1,20,23,4,1,1
35.03,1,1,3,0,2,3,1,1
35.035,1,0,1,1,4,1,0,1
35.04,3,1,1,2,1,1,1,1
35.045,1,2,2,2,9,4,3,4
35.05,3,1,0,3,2,4,3,0
35.055,0,3,0,5,9,2,1,2
35.06,0,1,0,5,5,0,2,2
35.065,0,1,3,0,8,2,0,0
35.07,2,1,1,1,7,0,0,1
35.075,0,2,1,3,3,0,1,1
35.08,2,3,1,4,4,1,1,1
35.085,1,3,3,5,2,1,0,2
35.09,0,1,4,1,6,3,3,3
35.095,2,2,1,9,2,1,0,3
35.1,1,2,0,14,7,1,1,1
35.105,2,1,1,6,5,2,2,0
35.11,1,0,1,4,4,2,1,1
35.115,2,1,1,2,11,2,4,3
35.12,0,0,2,4,0,2,0,1
35.125,3,0,2,9,9,1,0,1
35.13,3,3,2,20,3,5,3,2
35.135,1,1,4,1,8,2,2,0
35.14,3,1,0,5,0,3,1,1
35.145,0,1,1,2,6,1,1,1
35.15,0,1,1,5,4,3,3,2
35.155,2,1,1,5,4,1,1,1
35.16,1,2,0,4,1,2,0,1
35.165,1,2,1,8,5,0,1,1
35.17,0,0,1,4,8,1,2,3
35.175,1,3,1,1,2,2,0,1
35.18,1,1,1,7,6,2,1,0
35.185,0,2,1,1,2,1,1,2
35.19,2,2,1,1,0,2,1,2
35.195,0,1,2,4,8,3,3,1
35.2,2,1,1,2,3,0,3,1
35.205,2,2,4,9,38,1,3,3
35.21,1,2,4,29,62,6,5,4
35.215,2,2,1,7,10,0,2,2
35.22,1,2,1,4,4,2,0,3
35.225,0,0,0,2,2,1,2,0
35.23,1,1,2,14,22,2,1,2
35.235,2,3,2,5,10,7,3,2
35.24,1,0,1,5,16,3,0,1
35.245,3,3,4,26,38,3,1,3
35.25,2,2,3,8,10,3,1,1
35.255,1,0,2,2,2,2,3,2
35.26,1,2,3,20,32,1,0,2
35.265,0,2,1,13,21,3,2,1
35.27,1,1,1,6,5,2,3,1
35.275,1,2,0,3,5,3,3,0
35.28,1,2,1,16,5,2,2,0
35.285,1,1,4,13,31,3,3,1
35.29,1,1,0,25,53,3,1,2
35.295,0,2,2,37,69,2,1,3
35.3,1,2,8,50,111,5,1,2
35.305,1,4,3,36,79,0,3,1
35.31,1,0,0,41,34,11,3,5
35.315,2,4,10,99,104,25,6,1
35.32,10,13,18,14,47,25,13,9
35.325,5,4,7,44,73,11,7,6
35.33,7,8,12,37,81,20,8,7
35.335,5,6,12,58,106,5,12,6
35.34,10,17,33,60,104,34,24,13
35.345,11,6,16,65,21,27,12,10
35.35,6,9,6,66,27,1,1,2
35.355,8,7,10,89,117,37,13,8
35.36,0,4,10,19,42,3,0,1
35.365,8,1,3,58,3,11,4,7
35.37,11,12,15,42,76,34,10,8
35.375,3,7,11,45,42,9,11,4
35.38,5,3,3,35,70,2,1,4
35.385,6,8,37,35,47,15,6,3
35.39,8,6,13,83,16,30,23,11
35.395,3,4,12,12,61,6,1,5
35.4,10,13,25,25,32,5,10,9
35.405,6,5,17,93,53,9,0,5
35.41,14,13,17,12,74,38,6,7
35.415,0,4,16,3,101,11,4,3
35.42,0,7,20,55,106,10,2,0
35.425,4,4,1,69,52,1,3,2
35.43,2,2,4,68,72,26,2,1
35.435,1,0,2,3,10,26,4,3
35.44,5,9,16,69,55,30,10,5
35.445,10,4,3,2,22,13,16,11
35.45,10,10,19,9,40,17,10,5
35.455,6,4,14,8,58,4,2,2
35.46,7,5,18,62,59,4,3,5
35.465,3,1,20,37,111,13,2,1
35.47,1,2,4,10,30,9,2,0
35.475,3,1,7,2,82,1,1,4
35.48,3,4,7,2,20,14,0,4
35.485,2,5,7,65,67,33,12,2
35.49,4,1,5,36,8,8,8,2
35.495,1,0,1,23,61,20,5,3
35.5,0,1,5,3,5,25,8,4
35.505,5,7,26,19,28,8,2,7
35.51,2,4,6,28,6,2,2,2
35.515,1,1,9,27,31,36,4,1
35.52,4,7,9,2,40,6,2,3
35.525,1,4,13,16,39,6,4,2
35.53,4,6,1,4,107,11,5,5
35.535,2,0,5,4,127,12,3,5
35.54,7,12,13,14,113,23,13,8
35.545,2,1,4,45,49,19,5,0
35.55,1,3,4,1,46,13,2,2
35.555,4,6,6,20,6,23,4,5
35.56,4,4,9,46,5,3,3,4
35.565,5,4,4,7,99,8,6,6
35.57,1,4,6,20,34,8,7,5
35.575,0,5,11,7,104,4,1,2
35.58,0,1,1,14,26,9,2,1
35.585,2,1,4,0,59,10,1,2
35.59,2,1,1,0,5,13,2,2
35.595,2,5,4,4,29,21,6,5
35.6,0,3,1,3,17,3,2,0
35.605,4,1,10,1,81,28,12,3
35.61,6,5,8,1,69,22,10,8
35.615,0,0,1,6,36,5,2,4
35.62,2,1,1,16,35,3,3,5
35.625,2,3,2,18,21,7,6,2
35.63,1,2,2,8,71,18,4,4
35.635,0,1,1,3,34,9,1,1
35.64,2,0,1,9,19,0,0,1
35.645,3,1,2,18,39,0,2,3
35.65,1,0,5,17,59,1,1,1
35.655,1,1,6,9,65,5,5,4
35.66,7,5,13,72,25,16,6,4
35.665,0,1,6,2,59,8,1,0
35.67,1,0,6,21,47,6,0,0
35.675,2,1,4,2,18,5,0,1
35.68,1,1,1,4,9,4,0,1
35.685,1,1,7,10,24,1,2,1
35.69,3,2,2,11,16,22,6,1
35.695,2,3,5,19,13,12,1,2
35.7,2,1,5,18,111,8,4,3
35.705,1,1,1,21,34,4,6,1
35.71,1,1,2,6,14,5,2,0
35.715,1,2,2,11,12,6,1,1
35.72,0,0,1,6,25,2,1,1
35.725,2,1,1,6,31,0,2,1
35.73,1,1,0,15,52,11,3,1
35.735,1,2,4,16,48,1,0,0
35.74,0,3,2,14,36,5,3,1
35.745,0,1,1,0,23,3,1,0
35.75,1,0,2,1,21,3,3,4
35.755,1,1,2,5,15,6,0,1
35.76,0,2,1,3,15,2,4,1
35.765,2,2,1,2,16,4,2,3
35.77,1,1,1,8,22,1,2,2
35.775,1,2,2,3,14,5,3,1
35.78,1,1,2,2,13,2,0,0
35.785,0,2,1,4,7,5,1,1
35.79,2,3,4,11,5,0,2,2
35.795,3,1,1,1,12,4,1,3
35.8,0,1,1,1,2,0,1,1
35.805,1,0,1,5,6,2,1,2
35.81,1,0,1,3,3,0,2,2
35.815,1,2,2,4,13,7,5,2
35.82,1,2,1,0,21,1,1,0
35.825,2,0,2,1,1,0,2,1
35.83,1,0,2,7,5,3,1,0
35.835,1,3,5,1,3,5,3,0
35.84,1,1,3,3,11,1,1,2
35.845,1,2,2,1,5,3,3,1
35.85,2,3,0,0,5,0,1,2
35.855,2,3,0,1,0,1,4,2
35.86,2,0,3,5,41,4,2,2
35.865,3,0,1,20,57,6,5,1
35.87,1,1,2,5,14,2,1,1
35.875,2,0,4,16,18,7,1,0
35.88,0,0,2,4,5,0,2,0
35.885,1,9,3,7,12,2,1,1
35.89,3,1,2,10,4,1,2,3
35.895,4,0,1,17,7,1,0,3
35.9,40,2,2,3,19,3,0,5
35.905,61,1,2,2,10,6,1,0
35.91,7,2,1,1,19,0,1,5
35.915,4,4,1,7,9,2,3,0
35.92,1,1,1,0,3,2,1,0
35.925,28,1,1,0,6,1,0,0
35.93,1,4,3,10,30,4,1,2
35.935,10,1,1,15,39,1,0,2
35.94,4,2,2,6,12,2,1,3
35.945,16,1,2,22,26,2,1,3
35.95,17,1,2,1,2,2,1,4
35.955,12,1,1,15,19,2,1,1
35.96,7,1,1,4,8,3,4,1
35.965,6,0,0,5,17,3,3,0
35.97,11,3,0,1,3,7,3,4
35.975,1,2,1,5,0,4,2,0
35.98,14,2,4,19,53,4,0,2
35.985,4,1,1,11,24,4,2,1
35.99,8,1,3,5,13,5,3,0
35.995,1,1,1,4,6,0,0,2
36,6,1,1,6,24,3,1,2
36.005,9,1,2,10,19,2,0,1
36.01,3,1,3,5,6,2,3,1
36.015,1,0,3,1,11,5,3,3
36.02,2,0,1,6,5,3,2,0
36.025,3,1,1,8,20,5,1,3
36.03,0,1,2,4,10,1,1,2
36.035,0,0,0,2,7,0,1,1
36.04,0,3,2,1,3,5,0,1
36.045,1,1,2,6,2,1,2,3
36.05,3,2,1,10,12,5,2,0
36.055,5,2,0,2,2,2,2,1
36.06,0,1,1,5,1,2,2,3
36.065,0,0,1,3,10,2,0,2
36.07,2,2,2,2,6,1,0,1
36.075,2,3,0,2,20,2,2,1
36.08,0,0,3,6,21,2,1,1
36.085,2,0,1,6,1,3,0,1
36.09,1,1,2,4,2,3,1,1
36.095,1,0,1,5,9,1,0,1
36.1,1,2,1,15,8,2,0,1
36.105,4,5,0,9,2,3,0,3
36.11,4,1,1,0,9,4,4,1
36.115,1,1,1,11,65,5,0,2
36.12,0,0,1,5,17,1,1,0
36.125,2,2,3,7,8,3,2,1
36.13,1,2,1,1,2,2,3,2
36.135,0,1,2,7,13,4,0,1
36.14,2,1,1,8,4,1,0,3
36.145,2,1,1,20,3,6,2,0
36.15,3,1,3,2,8,4,3,3
36.155,4,1,1,3,10,0,1,1
36.16,0,1,2,2,1,5,3,2
36.165,1,1,2,7,8,0,1,5
36.17,0,1,2,0,8,4,2,0
36.175,2,0,0,4,8,2,1,1
36.18,2,0,0,14,11,0,1,1
36.185,3,3,1,28,25,5,4,3
36.19,4,0,0,2,4,2,3,1
36.195,1,3,3,6,10,4,3,3
36.2,1,3,1,1,3,2,1,3
36.205,1,0,2,6,0,2,0,1
36.21,1,2,2,7,9,3,1,2
36.215,1,0,1,4,1,5,1,1
36.22,2,1,2,5,10,3,3,4
36.225,1,1,0,7,34,7,1,1
36.23,2,4,6,19,8,1,0,1
36.235,3,1,1,20,22,5,3,5
36.24,2,1,4,14,4,2,5,5
36.245,1,0,4,16,21,2,1,3
36.25,0,1,3,0,9,2,4,5
36.255,2,2,1,0,16,3,2,1
36.26,1,2,1,16,8,6,2,4
36.265,1,4,3,6,15,0,2,0
36.27,1,0,2,4,7,0,3,0
36.275,1,3,1,3,13,1,1,1
36.28,1,1,1,3,13,2,1,1
36.285,0,1,2,4,1,2,2,0
36.29,3,2,1,0,9,2,1,3
36.295,0,2,1,1,1,1,3,3
36.3,1,4,4,1,11,1,2,3
36.305,4,1,1,7,33,1,1,1
36.31,1,2,0,7,28,0,0,2
36.315,1,3,0,5,6,0,1,2
36.32,1,1,3,6,31,5,3,1
36.325,1,1,0,1,34,0,0,0
36.33,1,2,0,4,11,6,0,0
36.335,1,1,1,5,4,6,1,1
36.34,0,3,2,5,12,2,1,1
36.345,1,2,0,8,18,2,3,2
36.35,0,1,2,3,6,0,1,2
36.355,3,3,2,20,11,6,2,2
36.36,1,0,3,6,6,5,2,2
36.365,1,1,3,13,41,4,1,1
36.37,3,2,5,42,59,4,4,3
36.375,1,0,1,8,3,3,3,1
36.38,5,1,1,8,10,4,1,3
36.385,0,2,2,3,6,1,2,1
36.39,0,1,0,16,6,2,2,1
36.395,3,4,5,3,11,2,3,3
36.4,2,1,3,45,19,0,2,1
36.405,1,2,1,27,0,4,3,2
36.41,2,0,4,18,2,2,2,0
36.415,3,5,5,37,46,7,2,3
36.42,1,0,2,20,47,5,1,1
36.425,3,0,5,35,26,8,0,1
36.43,3,0,3,28,53,5,2,0
36.435,1,5,15,19,39,11,6,1
36.44,3,1,5,31,68,10,2,2
36.445,2,2,5,23,15,9,7,4
36.45,2,1,3,23,13,2,3,0
36.455,1,1,2,15,1,3,1,3
36.46,3,1,5,24,36,3,4,2
36.465,0,6,16,1,30,4,5,0
36.47,2,1,1,4,86,11,2,2
36.475,5,7,27,12,55,4,7,1
36.48,4,5,13,6,85,5,10,7
36.485,9,17,20,48,73,7,4,7
36.49,4,5,25,13,105,11,3,2
36.495,5,6,18,27,89,7,10,6
36.5,2,8,13,59,45,20,7,2
36.505,12,11,26,77,98,13,8,11
36.51,0,1,7,81,127,13,4,1
36.515,6,3,16,85,100,42,11,6
36.52,2,4,10,86,120,4,2,2
36.525,0,3,10,7,27,11,4,1
36.53,4,0,13,22,8,2,9,4
36.535,4,2,6,45,78,14,8,7
36.54,1,9,23,70,22,14,8,2
36.545,4,2,20,34,99,6,7,7
36.55,5,3,7,22,20,15,3,6
36.555,2,6,18,9,117,19,7,3
36.56,6,6,5,3,20,18,5,2
36.565,3,9,18,20,25,17,5,3
36.57,7,10,17,0,90,13,7,6
36.575,4,7,15,2,9,12,2,2
36.58,5,8,15,12,23,9,9,4
36.585,4,8,10,28,91,6,9,7
36.59,6,5,0,30,55,7,4,5
36.595,0,1,7,8,16,14,1,1
36.6,4,1,3,4,57,25,8,7
36.605,1,1,7,34,45,2,2,1
36.61,0,2,3,1,25,3,0,3
36.615,2,2,1,9,12,25,6,3
36.62,3,2,9,26,55,24,7,3
36.625,3,1,15,17,76,1,1,0
36.63,9,3,1,36,43,11,6,7
36.635,0,3,0,1,29,7,5,1
36.64,2,1,6,18,66,19,7,2
