38.005,2,2,5,7,17,5,3,6
38.01,1,2,1,5,2,0,1,4
38.015,9,0,1,2,7,1,4,3
38.02,6,0,2,7,13,3,2,3
38.025,1,0,2,1,3,0,1,1
38.03,2,2,5,4,14,2,5,0
38.035,8,1,1,1,6,4,2,1
38.04,2,0,1,1,11,1,1,1
38.045,3,1,3,5,10,1,0,1
38.05,7,1,1,1,1,1,1,4
38.055,5,1,1,6,3,0,1,3
38.06,5,1,0,3,12,1,0,0
38.065,4,1,2,5,13,4,3,3
38.07,0,2,0,3,3,1,1,4
38.075,1,2,1,10,5,5,2,1
38.08,7,3,3,1,1,1,1,4
38.085,1,1,2,1,14,1,1,1
38.09,2,0,1,4,11,0,3,1
38.095,5,1,4,11,34,4,6,2
38.1,0,2,1,2,18,3,2,0
38.105,2,1,0,5,15,0,0,0
38.11,0,2,3,8,14,4,2,3
38.115,5,1,0,6,10,2,0,4
38.12,0,1,1,6,2,3,2,0
38.125,1,6,3,2,4,3,0,1
38.13,1,2,2,1,3,4,4,2
38.135,3,2,1,7,4,2,2,1
38.14,1,2,2,2,6,2,3,1
38.145,2,0,2,1,5,2,1,0
38.15,2,0,3,5,0,0,1,6
38.155,0,0,1,1,2,1,3,0
38.16,2,1,1,3,0,3,0,0
38.165,3,4,3,2,1,2,1,1
38.17,1,0,1,0,10,1,2,1
38.175,1,1,0,5,0,1,1,0
38.18,4,2,1,6,20,2,1,5
38.185,2,3,5,21,46,4,3,1
38.19,2,2,1,6,4,0,2,1
38.195,1,2,4,1,4,1,0,1
38.2,2,1,3,5,10,1,1,2
38.205,2,1,2,17,8,4,5,5
38.21,0,5,2,6,1,3,1,0
38.215,3,0,1,7,2,1,1,1
38.22,1,2,3,6,16,1,2,2
38.225,0,2,0,2,14,1,0,0
38.23,3,2,2,2,5,2,3,1
38.235,1,0,1,1,3,4,3,2
38.24,1,0,1,2,1,1,2,1
38.245,2,3,4,1,1,2,3,0
38.25,1,3,1,1,4,0,1,1
38.255,2,2,1,4,4,3,1,0
38.26,1,1,1,4,8,2,1,1
38.265,3,0,1,2,1,3,2,1
38.27,1,2,3,7,7,2,1,2
38.275,0,1,1,6,10,0,2,0
38.28,3,4,2,1,1,4,4,1
38.285,1,0,2,2,3,1,2,1
38.29,1,3,1,7,15,0,0,1
38.295,1,0,3,3,23,2,3,2
38.3,4,2,6,16,12,4,3,2
38.305,1,2,2,2,3,0,1,4
38.31,2,3,1,5,11,0,1,3
38.315,2,3,3,19,24,6,4,0
38.32,1,0,3,11,6,2,2,1
38.325,1,2,0,3,14,3,0,0
38.33,1,1,5,3,7,0,2,2
38.335,2,1,0,2,2,3,1,1
38.34,2,4,7,3,4,2,0,1
38.345,2,1,8,8,8,3,1,1
38.35,1,1,3,2,2,1,1,3
38.355,1,0,2,1,3,1,3,3
38.36,4,1,3,5,5,3,2,2
38.365,0,5,0,4,9,1,2,1
38.37,1,0,4,7,6,3,0,2
38.375,1,1,2,2,0,5,3,3
38.38,3,3,3,1,1,2,2,4
38.385,3,1,6,5,1,3,4,2
38.39,3,1,1,1,4,2,3,1
38.395,0,3,3,5,2,2,1,0
38.4,0,0,3,3,2,0,0,1
38.405,4,0,1,2,1,1,2,0
38.41,0,1,1,2,6,1,2,2
38.415,2,1,4,9,28,5,2,2
38.42,1,1,1,4,7,3,1,3
38.425,2,1,3,14,17,0,1,4
38.43,2,0,1,15,20,3,2,2
38.435,4,2,4,6,14,4,1,2
38.44,2,1,3,16,25,1,0,1
38.445,3,5,3,16,47,5,2,1
38.45,2,7,1,4,3,4,3,3
38.455,0,1,1,6,6,5,4,3
38.46,0,3,1,6,17,1,1,2
38.465,2,2,1,6,22,4,1,1
38.47,1,0,2,20,15,1,2,1
38.475,2,0,3,39,89,2,0,0
38.48,0,7,8,60,95,16,11,7
38.485,1,1,12,32,77,1,2,2
38.49,3,7,0,19,115,16,11,7
38.495,2,1,3,16,35,5,7,3
38.5,4,2,0,16,20,2,1,3
38.505,3,1,7,3,25,5,1,0
38.51,5,4,15,30,51,17,14,5
38.515,0,3,1,23,80,4,2,3
38.52,3,4,2,1,18,9,5,4
38.525,1,2,5,7,27,1,3,0
38.53,1,5,4,11,25,7,12,5
38.535,8,3,6,22,13,1,2,2
38.54,0,0,1,14,81,20,14,8
38.545,5,5,1,38,76,20,8,1
38.55,4,4,2,9,85,4,8,8
38.555,2,8,21,9,19,12,23,10
38.56,3,2,15,23,78,9,15,7
38.565,2,2,4,57,117,18,6,5
38.57,1,0,5,8,3,14,2,2
38.575,1,1,4,10,69,13,0,1
38.58,1,1,11,37,127,19,8,5
38.585,4,3,9,26,124,16,3,2
38.59,4,6,9,14,47,15,5,5
38.595,3,4,10,18,61,8,13,9
38.6,3,3,2,4,9,31,6,1
38.605,2,2,29,1,31,13,10,4
38.61,7,10,87,9,4,23,14,5
38.615,2,1,98,12,37,27,7,3
38.62,6,2,87,17,34,1,10,2
38.625,5,1,99,2,5,7,4,1
38.63,5,4,35,34,83,11,1,1
38.635,4,1,1,27,64,7,4,3
38.64,0,1,27,4,81,3,11,7
38.645,2,3,12,7,80,19,4,3
38.65,4,2,15,5,21,1,3,2
38.655,1,6,18,4,25,0,3,2
38.66,1,1,21,11,33,12,4,1
38.665,7,5,4,8,59,22,9,6
38.67,1,0,14,26,13,8,2,2
38.675,1,2,5,24,64,2,3,4
38.68,3,2,8,8,13,4,10,3
38.685,0,5,0,1,23,21,2,1
38.69,3,2,25,29,29,3,1,0
38.695,5,0,15,5,28,12,3,3
38.7,3,0,1,12,48,9,1,1
38.705,2,2,3,10,20,5,2,1
38.71,1,1,11,6,11,1,5,1
38.715,6,1,12,13,31,19,8,4
38.72,3,6,6,17,40,1,6,1
38.725,4,4,10,5,47,7,3,1
38.73,2,2,1,17,21,1,3,0
38.735,1,2,5,3,28,6,3,6
38.74,0,2,4,15,15,9,3,0
38.745,1,4,2,12,25,6,3,3
38.75,0,4,3,17,23,8,6,3
38.755,2,0,2,3,22,0,2,2
38.76,5,3,1,19,6,26,5,3
38.765,3,1,2,1,80,19,8,3
38.77,4,1,2,4,9,10,0,1
38.775,2,3,7,10,25,0,7,2
38.78,1,1,3,7,2,1,0,1
38.785,1,0,1,8,27,12,4,1
38.79,1,1,5,4,8,3,0,0
38.795,1,1,7,14,14,13,1,3
38.8,4,1,5,2,76,42,8,3
38.805,5,6,9,23,24,17,13,9
38.81,1,4,2,8,88,6,5,0
38.815,0,0,7,11,56,6,2,2
38.82,1,1,2,0,34,11,5,3
38.825,3,1,3,3,2,2,1,0
38.83,3,2,3,0,19,0,0,1
38.835,2,1,1,35,14,7,2,1
38.84,4,4,2,12,10,4,6,5
38.845,2,1,2,0,41,6,4,1
38.85,2,1,1,2,18,3,1,3
38.855,1,4,2,5,10,2,4,3
38.86,1,3,7,7,8,0,0,3
38.865,2,1,2,3,7,3,2,2
38.87,2,1,1,0,31,1,4,4
38.875,0,2,1,1,19,0,1,0
38.88,0,1,0,6,3,3,1,0
38.885,1,3,4,10,38,6,4,4
38.89,1,0,1,13,6,1,1,0
38.895,2,4,0,4,9,2,0,1
38.9,1,2,2,2,13,3,2,0
38.905,3,2,0,22,6,2,1,2
38.91,2,2,1,9,4,0,2,3
38.915,3,6,4,1,12,3,1,0
38.92,1,1,1,0,12,2,3,3
38.925,1,2,0,7,1,3,1,2
38.93,1,3,1,20,9,6,1,2
38.935,3,1,2,10,0,0,1,2
38.94,2,1,1,16,4,1,0,1
38.945,2,2,1,1,4,2,1,1
38.95,1,3,3,1,16,3,4,1
38.955,1,0,1,13,18,3,3,1
38.96,2,3,1,2,3,5,3,3
38.965,3,3,3,10,5,1,3,2
38.97,1,3,1,1,4,3,1,1
38.975,2,1,1,2,4,2,3,5
38.98,0,1,0,4,1,2,3,3
38.985,2,1,1,13,26,2,3,1
38.99,1,1,3,1,11,4,4,0
38.995,1,2,1,8,21,26,7,3
39,3,5,2,10,48,2,5,0
39.005,4,9,6,8,20,21,14,10
39.01,4,3,3,4,12,7,9,5
39.015,2,3,9,13,31,5,5,4
39.02,1,2,8,2,34,3,1,0
39.025,1,3,12,2,42,5,1,2
39.03,2,3,6,3,32,7,10,3
39.035,2,5,7,7,52,4,3,2
39.04,2,2,5,13,7,0,0,0
39.045,1,2,5,3,6,6,4,1
39.05,0,1,6,1,30,4,5,1
39.055,2,3,10,3,23,4,2,2
39.06,0,4,3,2,8,12,1,4
39.065,3,6,1,8,3,1,1,5
39.07,2,1,2,11,9,1,4,8
39.075,17,2,1,4,23,1,1,2
39.08,21,1,4,8,16,10,2,7
39.085,16,0,5,0,64,5,3,0
39.09,1,0,2,8,14,3,1,1
39.095,10,0,1,0,3,6,3,2
39.1,1,2,2,9,73,0,3,5
39.105,2,0,2,3,16,13,2,1
39.11,12,2,4,14,17,11,8,13
39.115,22,1,0,2,13,4,1,4
39.12,15,1,7,0,2,4,5,5
39.125,5,0,2,1,3,1,0,1
39.13,24,2,2,16,2,4,6,16
39.135,0,5,2,1,12,1,1,7
39.14,16,1,9,3,12,4,4,22
39.145,27,5,0,20,15,7,3,15
39.15,22,2,3,18,3,16,10,7
39.155,48,6,1,15,13,3,2,4
39.16,41,1,1,17,20,2,2,25
39.165,18,4,3,13,7,1,3,5
39.17,18,1,12,21,5,3,2,41
39.175,3,0,1,13,8,4,0,26
39.18,34,4,1,11,56,7,7,5
39.185,30,2,4,2,36,4,0,18
39.19,9,0,3,0,3,12,6,49
39.195,20,9,5,2,6,2,8,65
39.2,19,5,1,2,30,7,7,42
39.205,15,1,6,6,2,2,2,5
39.21,2,2,4,0,12,9,2,7
39.215,22,7,2,4,27,0,8,34
39.22,27,0,2,2,6,1,3,13
39.225,9,1,3,5,10,4,2,25
39.23,2,4,2,6,1,3,2,3
39.235,9,0,7,1,4,6,5,2
39.24,4,0,12,2,26,11,13,21
39.245,2,2,1,7,32,3,3,21
39.25,2,3,1,4,13,0,0,0
39.255,17,2,3,1,10,1,1,3
39.26,10,4,3,19,33,1,6,3
39.265,2,3,3,1,7,3,1,24
39.27,2,1,1,17,31,2,1,29
39.275,13,0,4,15,12,7,7,26
39.28,3,2,4,2,17,5,2,29
39.285,10,2,3,1,33,6,1,23
39.29,3,1,5,4,15,0,2,3
39.295,19,2,1,4,13,2,4,1
39.3,21,1,4,4,8,6,5,11
39.305,20,5,0,5,3,2,3,3
39.31,12,0,2,3,10,1,3,4
39.315,9,4,7,2,6,1,5,10
39.32,21,3,4,3,25,2,2,26
39.325,10,2,2,6,53,7,4,26
39.33,27,1,4,5,30,2,5,13
39.335,1,1,0,3,17,7,5,14
39.34,15,1,1,6,12,4,5,20
39.345,13,1,7,2,28,5,3,2
39.35,9,2,0,13,30,3,2,8
39.355,1,1,1,1,9,6,5,1
39.36,1,3,0,15,13,3,4,7
39.365,11,2,1,0,8,5,1,1
39.37,7,1,1,0,39,3,0,3
39.375,6,2,7,6,50,7,4,2
39.38,10,0,4,3,1,5,1,4
39.385,1,5,4,9,15,7,5,7
39.39,7,2,5,5,24,0,1,6
39.395,2,0,0,12,34,4,1,0
39.4,7,3,1,1,16,7,1,3
39.405,7,2,3,7,3,3,5,30
39.41,8,0,0,1,10,4,1,3
39.415,2,2,5,2,10,2,7,15
39.42,6,5,6,0,0,7,5,26
39.425,0,0,1,10,9,2,1,0
39.43,9,1,1,0,24,5,2,4
39.435,6,4,4,5,30,10,5,3
39.44,2,3,0,15,21,2,2,10
39.445,5,2,4,1,7,1,1,3
39.45,2,4,5,9,9,2,4,4
39.455,4,2,1,3,18,4,6,6
39.46,2,4,0,9,12,1,0,2
39.465,3,1,3,7,8,1,0,3
39.47,1,4,4,2,15,2,0,2
39.475,1,0,1,10,22,10,8,9
39.48,3,2,4,10,12,2,3,1
39.485,2,9,9,5,11,1,2,1
39.49,0,3,2,0,1,6,2,1
39.495,4,0,9,2,4,0,1,15
39.5,1,1,3,4,6,0,0,22
39.505,8,2,4,20,41,9,7,5
39.51,1,3,1,5,17,1,3,5
39.515,8,2,1,4,24,1,2,0
39.52,7,2,1,2,13,5,3,7
39.525,1,1,5,8,5,0,2,2
39.53,14,1,3,18,25,0,5,10
39.535,1,0,3,5,5,1,4,6
39.54,1,4,4,6,8,4,1,8
39.545,1,1,1,8,14,3,2,2
39.55,1,1,1,8,10,2,0,3
39.555,5,2,3,2,2,0,0,5
39.56,3,2,2,2,66,4,0,2
39.565,0,2,4,4,23,5,7,1
39.57,1,1,2,2,12,0,1,3
39.575,6,0,4,5,31,6,6,10
39.58,2,0,2,1,6,3,1,3
39.585,0,0,2,3,8,0,1,2
39.59,3,2,1,4,9,1,1,1
39.595,4,2,2,2,25,2,1,3
39.6,0,1,4,12,38,9,6,9
39.605,2,2,8,1,18,5,2,2
39.61,2,3,1,7,3,3,2,4
39.615,1,1,2,1,8,0,0,6
39.62,4,1,1,4,2,1,0,0
39.625,2,1,2,5,3,2,0,0
39.63,3,1,1,6,15,3,0,2
39.635,1,5,0,1,3,5,5,1
39.64,1,1,2,8,16,1,1,2
39.645,4,1,7,13,1,4,1,3
39.65,3,2,1,4,8,6,5,5
39.655,1,1,3,9,0,1,1,2
39.66,0,2,4,5,7,1,1,3
39.665,1,1,3,2,15,0,0,2
39.67,2,1,0,19,41,4,8,7
39.675,0,6,12,36,89,8,7,4
39.68,1,1,0,13,79,6,0,0
39.685,1,4,16,7,28,5,1,2
39.69,2,4,0,12,53,3,7,5
39.695,3,3,1,6,3,5,3,1
39.7,0,1,0,5,72,1,2,2
39.705,1,0,2,3,49,12,3,3
39.71,4,2,5,4,5,5,1,3
39.715,2,4,2,20,10,6,3,1
39.72,3,1,7,39,40,5,0,1
39.725,1,7,22,34,52,8,1,3
39.73,2,4,9,0,5,12,14,8
39.735,0,0,3,8,70,23,2,0
39.74,2,2,9,1,53,5,3,2
39.745,1,1,32,87,78,3,5,0
39.75,0,1,4,47,15,5,1,1
39.755,3,5,1,30,108,0,10,7
39.76,2,1,11,66,31,11,8,8
39.765,6,11,23,57,108,11,9,9
39.77,0,5,15,42,27,4,4,2
39.775,2,3,9,50,45,6,15,4
39.78,5,7,1,60,86,38,27,17
39.785,0,2,7,18,49,15,1,0
39.79,6,2,2,36,37,17,4,3
39.795,1,5,17,3,37,41,15,5
39.8,4,6,4,23,38,33,13,6
39.805,1,5,8,60,94,4,4,2
39.81,0,5,4,9,31,8,8,2
39.815,1,0,7,21,36,0,3,1
39.82,2,5,6,39,106,36,0,3
39.825,2,1,9,43,27,25,2,1
39.83,6,2,10,12,11,30,6,1
39.835,3,4,4,9,78,14,9,5
39.84,4,7,29,18,30,0,4,0
39.845,1,3,20,6,62,2,6,3
39.85,2,3,2,4,20,31,3,0
39.855,6,0,6,5,39,50,7,1
39.86,0,2,1,15,38,4,9,7
39.865,3,3,28,4,61,14,0,1
39.87,2,3,2,11,52,3,6,6
39.875,6,1,4,12,13,2,1,1
39.88,2,5,6,22,36,31,11,5
39.885,3,3,2,16,8,1,5,5
39.89,0,3,7,11,6,8,2,1
39.895,4,0,5,8,105,30,1,0
39.9,1,1,9,5,3,34,8,3
39.905,2,6,12,13,12,10,7,7
39.91,2,1,11,18,85,18,5,0
39.915,0,1,8,1,45,33,8,4
39.92,0,8,11,30,111,4,12,8
39.925,2,4,7,17,30,3,1,1
39.93,4,1,10,46,60,7,1,1
39.935,0,9,32,7,88,3,3,0
39.94,6,4,3,5,69,19,3,3
39.945,1,4,9,12,5,20,11,4
39.95,4,2,2,9,11,28,4,2
39.955,0,3,6,20,30,24,0,2
39.96,0,0,4,11,12,9,2,0
39.965,2,1,5,5,49,11,2,3
39.97,0,2,4,18,26,5,0,1
39.975,3,4,14,2,12,7,2,2
39.98,1,0,5,4,65,1,1,1
39.985,1,4,3,13,38,3,3,4
39.99,1,0,2,14,18,13,1,1
39.995,0,1,6,9,61,6,1,0
40,2,0,2,3,4,16,2,1
40.005,1,1,0,4,38,9,0,3
40.01,5,2,4,8,23,13,3,6
40.015,1,1,6,1,12,1,5,7
40.02,4,2,1,1,3,4,1,0
40.025,2,0,5,15,10,9,7,5
40.03,7,0,4,5,18,4,1,5
40.035,10,2,11,10,47,3,4,0
40.04,1,3,6,4,9,2,0,1
40.045,9,2,4,10,25,5,2,8
40.05,19,1,2,7,7,6,1,6
40.055,1,2,2,2,36,3,0,17
40.06,7,2,4,2,28,1,3,12
40.065,3,2,1,1,28,8,6,2
40.07,43,7,4,0,12,8,2,2
40.075,10,2,2,14,4,1,1,3
40.08,5,3,2,10,18,2,0,3
40.085,0,1,3,9,10,8,4,1
40.09,6,3,1,12,32,3,3,6
40.095,26,1,1,12,1,1,3,6
40.1,66,5,2,14,49,2,2,2
40.105,52,3,2,6,15,8,0,22
40.11,23,8,7,3,14,16,13,18
40.115,22,7,3,2,3,7,2,33
40.12,57,10,1,1,4,3,1,7
40.125,29,8,2,2,30,1,1,30
40.13,0,5,2,7,54,1,3,12
40.135,14,3,4,3,12,1,6,46
40.14,2,1,9,2,1,7,7,11
40.145,3,6,4,6,2,7,6,9
40.15,2,0,12,6,7,3,4,6
40.155,2,1,6,2,1,5,3,36
40.16,13,4,2,5,5,3,2,29
40.165,25,8,1,0,0,0,4,2
40.17,16,0,4,6,12,6,1,8
40.175,26,3,4,4,2,10,9,18
40.18,3,10,7,5,21,2,7,5
40.185,8,0,1,31,15,3,2,9
40.19,1,2,0,7,11,9,5,9
40.195,14,0,2,0,6,3,5,16
40.2,13,2,8,20,6,7,3,7
40.205,21,7,2,2,14,6,7,15
40.21,6,3,2,5,10,3,2,5
40.215,6,2,5,2,5,1,2,16
40.22,6,5,5,3,1,3,3,9
40.225,17,1,1,4,6,8,7,26
40.23,11,0,10,3,47,9,6,10
40.235,5,1,9,17,65,6,4,10
40.24,6,0,5,0,11,4,3,1
40.245,1,3,4,2,17,5,4,12
40.25,3,3,1,7,13,10,9,4
40.255,10,1,4,7,47,2,3,2
40.26,6,1,4,14,64,7,5,0
40.265,4,5,13,9,15,0,3,10
40.27,19,0,2,4,16,4,3,5
40.275,16,2,3,2,10,5,4,7
40.28,14,0,2,1,7,3,1,7
40.285,1,1,0,9,8,1,0,8
40.29,2,2,2,8,18,2,2,9
40.295,6,0,13,5,6,1,1,6
40.3,2,4,11,9,11,7,6,2
40.305,16,5,3,8,22,1,3,2
40.31,14,3,6,22,64,1,8,36
40.315,2,2,0,24,43,1,6,33
40.32,1,2,6,25,43,11,12,16
40.325,9,0,1,1,10,1,1,8
40.33,6,4,6,11,0,1,1,1
40.335,3,4,8,6,2,2,0,11
40.34,3,3,1,2,12,2,3,1
40.345,0,2,4,2,5,5,4,6
40.35,2,0,2,6,7,7,5,10
40.355,4,3,6,2,11,4,6,8
40.36,1,3,12,3,5,5,3,1
40.365,4,0,1,4,17,8,4,4
40.37,0,1,1,1,3,2,1,1
40.375,3,1,1,6,26,3,2,11
40.38,10,2,3,4,2,0,0,19
40.385,3,1,1,3,9,0,0,14
40.39,2,3,3,3,20,0,2,17
40.395,4,2,0,2,19,6,0,2
40.4,12,2,1,9,11,6,3,6
40.405,17,1,2,3,14,1,1,1
40.41,6,1,3,4,1,3,3,4
40.415,7,1,4,11,7,2,2,4
40.42,6,3,1,2,7,1,0,7
40.425,5,0,2,1,7,5,1,2
40.43,4,1,6,5,11,1,3,0
40.435,0,3,4,10,17,3,1,5
40.44,1,0,2,2,0,1,5,1
40.445,3,2,6,6,6,0,2,2
40.45,4,2,0,3,3,1,1,1
40.455,3,2,2,9,11,2,2,3
40.46,4,2,5,5,21,3,3,3
40.465,2,0,6,14,53,0,0,1
40.47,2,1,0,11,2,3,2,3
40.475,9,3,1,9,17,1,0,2
40.48,2,5,1,10,9,5,6,3
40.485,4,2,8,9,31,2,2,0
40.49,2,3,0,3,2,1,0,4
40.495,1,3,1,4,2,3,2,0
40.5,3,2,3,1,14,2,2,4
40.505,2,1,1,10,10,1,2,0
40.51,7,1,6,1,2,5,4,2
40.515,4,1,2,12,37,6,3,2
40.52,0,1,0,5,6,1,0,1
40.525,1,0,0,9,13,1,3,3
40.53,4,2,3,10,2,0,1,1
40.535,2,1,5,9,5,7,3,2
40.54,4,0,5,14,31,1,1,3
40.545,1,1,2,15,39,0,1,3
40.55,3,2,6,2,19,0,1,0
40.555,2,1,4,14,37,8,4,0
40.56,4,2,4,0,44,0,0,1
40.565,0,6,4,13,60,21,15,7
40.57,3,5,4,21,25,9,15,4
40.575,2,5,12,52,100,16,17,9
40.58,3,3,0,39,71,4,4,2
40.585,1,0,1,10,53,3,4,2
40.59,1,5,27,43,83,14,6,5
40.595,0,1,7,9,80,6,5,5
40.6,3,2,1,20,65,4,1,1
40.605,3,1,4,0,26,10,11,5
40.61,4,0,6,7,25,9,3,5
40.615,0,1,1,8,56,9,5,0
40.62,3,0,8,8,71,7,1,2
40.625,4,3,7,66,104,32,12,8
40.63,8,0,5,46,82,13,12,8
40.635,1,1,9,15,54,31,12,4
40.64,0,3,14,20,32,7,2,2
40.645,4,4,1,1,112,21,11,9
40.65,0,0,1,6,120,10,14,7
40.655,2,1,4,26,15,30,2,0
40.66,0,1,10,10,1,1,1,1
40.665,3,6,24,52,33,12,14,7
40.67,5,5,9,16,19,5,1,3
40.675,2,2,1,15,105,5,6,5
40.68,2,1,0,4,13,11,1,2
40.685,2,3,2,10,83,6,6,4
40.69,3,3,4,1,84,26,3,5
40.695,2,2,7,11,27,50,7,2
40.7,0,1,1,11,42,27,9,6
40.705,4,0,3,10,18,2,3,4
40.71,0,3,6,2,5,5,9,1
40.715,2,8,26,4,34,21,13,4
40.72,1,1,4,3,55,1,3,0
40.725,3,2,5,4,39,42,10,4
40.73,2,2,2,8,46,16,8,3
40.735,3,3,9,5,10,0,9,2
40.74,3,0,7,10,69,9,2,3
40.745,1,1,2,2,10,13,5,4
40.75,4,1,9,11,70,2,3,5
40.755,3,2,4,9,74,12,8,6
40.76,2,0,5,0,23,6,5,6
40.765,1,4,9,10,5,23,12,4
40.77,2,3,0,4,66,2,1,1
40.775,2,1,3,14,22,7,3,0
40.78,2,2,5,16,92,10,3,3
40.785,3,1,0,8,63,18,11,4
40.79,1,2,3,1,9,4,5,4
40.795,2,1,4,4,21,4,1,1
40.8,5,1,5,8,53,1,7,3
40.805,7,6,8,6,82,16,10,6
40.81,1,1,0,1,10,31,1,0
40.815,1,1,6,28,50,13,0,1
40.82,0,1,11,5,94,11,1,5
40.825,2,2,6,7,1,6,3,3
40.83,4,3,3,4,59,1,0,4
40.835,0,4,2,9,107,2,2,1
40.84,4,0,1,7,36,2,3,3
40.845,1,1,1,1,29,0,1,0
40.85,1,1,3,4,11,12,6,3
40.855,1,1,3,2,14,2,0,2
40.86,2,2,0,4,26,2,2,1
40.865,0,3,3,12,22,6,1,1
40.87,0,1,0,2,73,10,6,2
40.875,2,2,1,0,25,4,3,2
40.88,3,1,4,5,7,0,7,2
40.885,1,4,9,1,21,2,4,1
40.89,1,2,2,11,3,2,1,3
40.895,1,1,1,1,27,1,0,17
40.9,3,2,2,5,20,4,3,11
40.905,5,1,4,9,37,1,1,6
40.91,2,2,1,7,22,2,0,3
40.915,1,4,4,1,3,2,1,0
40.92,13,3,0,12,12,5,4,4
40.925,14,1,3,7,20,5,2,2
40.93,17,1,2,10,42,4,2,4
40.935,11,3,0,18,24,4,2,3
40.94,1,5,1,0,7,2,1,1
40.945,5,2,2,11,22,2,1,2
40.95,1,0,1,10,23,0,1,2
40.955,4,3,1,12,11,4,4,5
40.96,2,1,2,13,21,1,4,3
40.965,7,1,1,4,3,3,3,6
40.97,2,2,1,8,26,3,2,1
40.975,14,3,3,6,5,5,6,3
40.98,7,1,1,0,13,1,2,13
40.985,0,0,5,1,6,2,2,24
40.99,2,0,2,2,3,2,1,7
40.995,3,5,5,0,47,11,8,1
41,5,3,4,12,13,6,7,9
41.005,8,1,3,2,9,1,0,4
41.01,21,1,2,2,18,2,2,15
41.015,3,1,1,6,14,3,2,3
41.02,2,1,1,1,4,2,2,0
41.025,14,2,4,4,3,2,5,24
41.03,13,1,1,2,7,3,4,27
41.035,30,3,2,6,20,2,3,35
41.04,39,1,2,2,2,4,4,22
41.045,6,2,1,6,15,3,6,4
41.05,1,1,2,4,6,2,1,14
41.055,2,1,4,1,5,5,1,7
41.06,29,0,1,2,1,2,0,19
41.065,8,3,0,4,7,5,1,6
41.07,4,3,0,2,10,3,4,11
41.075,3,1,4,2,1,1,2,15
41.08,1,2,0,4,5,0,0,9
41.085,6,2,0,5,18,5,3,6
41.09,7,1,1,4,14,1,4,10
41.095,5,4,7,7,40,4,7,0
41.1,1,1,3,1,1,1,3,9
41.105,7,0,1,6,7,3,1,1
41.11,4,0,1,3,5,2,1,1
41.115,5,0,4,8,15,1,5,4
41.12,0,2,1,4,4,5,2,0
41.125,9,5,7,2,16,4,8,2
41.13,3,1,1,14,58,7,6,3
41.135,1,1,2,2,34,1,2,6
41.14,3,1,3,1,15,0,1,10
41.145,11,1,2,2,9,1,4,12
41.15,19,2,1,0,4,5,1,1
41.155,6,1,3,4,0,7,9,6
41.16,8,5,2,2,3,7,7,7
41.165,11,1,0,3,19,1,3,21
41.17,1,1,3,3,2,6,6,11
41.175,13,3,0,4,2,9,10,4
41.18,7,5,4,4,4,8,6,8
41.185,3,2,0,9,22,4,5,0
41.19,7,8,26,20,45,1,2,4
41.195,6,3,0,5,26,3,1,4
41.2,4,4,2,3,7,4,1,4
41.205,2,0,7,3,37,1,3,2
41.21,1,1,1,0,57,7,4,7
41.215,3,3,0,1,7,9,5,3
41.22,2,0,0,7,3,1,1,3
41.225,2,2,3,7,19,0,1,10
41.23,0,1,6,10,37,1,0,6
41.235,2,1,3,7,16,3,1,2
41.24,0,3,4,5,11,1,2,3
41.245,5,0,3,6,14,4,5,5
41.25,1,2,1,0,10,1,1,0
41.255,1,2,2,0,4,1,1,0
41.26,6,4,5,4,4,4,3,5
41.265,9,4,1,7,9,2,0,3
41.27,6,3,7,18,29,1,3,9
41.275,5,3,2,3,6,2,3,18
41.28,1,5,5,3,8,2,5,7
41.285,4,2,1,4,15,2,1,0
41.29,9,2,6,7,25,2,3,4
41.295,2,2,2,6,3,3,3,11
41.3,0,2,1,0,4,0,2,4
41.305,0,3,0,7,13,5,0,3
41.31,0,1,2,3,22,1,2,3
41.315,0,1,0,4,11,3,0,4
41.32,2,2,1,2,5,5,0,3
41.325,4,0,2,1,0,3,3,4
41.33,1,0,2,2,22,3,1,2
41.335,0,1,1,1,2,2,3,1
41.34,7,0,0,2,2,4,2,3
41.345,1,1,2,8,10,3,2,3
41.35,2,1,1,13,5,5,0,2
41.355,10,0,0,0,3,1,2,6
41.36,6,3,1,2,18,1,3,2
41.365,3,2,2,7,2,2,5,0
41.37,2,2,4,21,38,4,0,1
41.375,9,1,4,9,11,3,5,8
41.38,8,0,1,2,25,3,0,9
41.385,7,1,2,4,18,3,2,14
41.39,5,2,0,2,19,1,1,24
41.395,1,0,0,1,12,0,0,4
41.4,6,1,1,2,5,0,1,5
41.405,1,2,3,3,6,3,3,10
41.41,7,2,2,2,16,1,0,6
41.415,1,5,2,1,0,5,2,1
41.42,3,0,0,0,13,5,0,4
41.425,4,5,2,3,17,2,5,4
41.43,4,0,1,5,13,1,1,5
41.435,1,1,2,1,2,0,1,6
41.44,6,2,2,12,7,1,1,7
41.445,0,1,4,5,4,2,3,3
41.45,3,0,0,8,16,2,1,3
41.455,2,2,1,8,8,6,3,7
41.46,2,3,1,1,40,0,1,7
41.465,10,4,1,3,28,2,1,7
41.47,0,1,3,1,12,4,3,9
41.475,9,2,7,5,12,1,2,0
41.48,5,1,2,2,22,1,3,7
41.485,3,1,1,14,70,12,3,2
41.49,2,1,2,2,22,4,0,8
41.495,1,2,1,12,13,1,2,1
41.5,1,1,0,3,2,3,3,2
41.505,7,3,2,1,0,4,1,1
41.51,1,5,21,2,0,3,1,2
41.515,1,3,4,5,14,2,0,3
41.52,5,5,5,2,10,1,1,3
41.525,3,2,4,0,4,0,2,4
41.53,3,1,4,1,1,5,4,7
41.535,17,2,2,2,12,3,3,4
41.54,4,4,1,8,5,3,2,0
41.545,5,2,5,5,15,1,1,5
41.55,1,1,3,7,28,3,1,6
41.555,9,2,3,6,8,1,1,4
41.56,10,1,4,2,31,1,1,1
41.565,9,2,1,8,40,4,4,2
41.57,7,2,4,8,24,2,4,6
41.575,5,4,2,5,18,0,0,4
41.58,5,3,24,1,4,0,2,4
41.585,0,0,4,2,7,3,1,0
41.59,2,1,3,3,5,0,1,4
41.595,6,1,2,7,1,0,2,0
41.6,2,0,3,3,8,2,3,3
41.605,4,0,1,0,20,2,0,2
41.61,2,0,4,7,9,3,0,12
41.615,4,1,1,1,3,3,1,12
41.62,2,2,5,3,9,2,1,1
41.625,2,2,1,1,16,1,2,4
41.63,1,2,6,7,29,6,0,2
41.635,9,2,3,0,6,0,4,8
41.64,7,1,0,2,3,2,1,2
41.645,3,2,3,6,8,0,2,1
41.65,1,1,2,6,2,0,1,3
41.655,1,1,2,1,5,4,4,3
41.66,3,1,4,1,10,3,1,7
41.665,1,2,2,1,1,0,1,6
41.67,1,0,2,7,14,1,1,1
41.675,2,1,3,1,9,1,5,1
41.68,4,4,1,2,8,3,3,5
41.685,4,1,0,5,33,2,2,0
41.69,2,1,0,10,52,1,1,0
41.695,1,2,1,18,51,3,0,8
41.7,1,1,1,8,77,10,2,1
41.705,3,3,4,23,6,1,1,0
41.71,3,0,5,10,50,3,1,2
41.715,4,0,1,1,46,6,1,1
41.72,3,0,5,21,50,15,9,3
41.725,3,4,4,27,1,12,8,4
41.73,3,0,2,8,1,9,6,4
41.735,4,1,1,12,43,6,11,4
41.74,3,5,4,2,48,1,4,3
41.745,1,1,3,15,0,4,6,5
41.75,6,7,7,2,46,16,17,7
41.755,1,3,2,34,32,4,0,0
41.76,3,1,5,26,78,13,6,4
41.765,5,3,3,3,49,1,3,1
41.77,1,0,7,16,62,2,2,1
41.775,7,9,19,35,21,22,19,8
41.78,2,2,1,62,100,10,5,6
41.785,4,8,10,18,52,1,9,0
41.79,2,2,1,15,32,3,3,1
41.795,5,2,5,8,67,4,1,5
41.8,1,0,4,9,33,3,4,1
41.805,1,1,4,14,62,23,2,2
41.81,4,0,2,3,3,6,0,0
41.815,2,8,22,2,97,36,1,1
41.82,8,1,4,43,74,33,3,4
41.825,1,2,7,21,2,4,2,4
41.83,4,0,5,12,107,4,1,2
41.835,5,7,10,26,51,17,9,5
41.84,3,4,0,14,24,1,3,5
41.845,2,2,2,1,118,10,8,6
41.85,2,4,5,8,83,24,4,1
41.855,0,2,7,1,82,5,1,1
41.86,0,6,21,6,61,9,11,6
41.865,4,8,27,19,17,0,8,6
41.87,1,5,4,32,61,19,8,1
41.875,1,1,13,14,29,2,2,3
41.88,0,2,3,23,35,1,2,3
41.885,2,0,13,12,74,11,3,6
41.89,8,5,20,7,9,20,7,6
41.895,4,7,10,30,6,24,13,11
41.9,10,7,20,4,64,2,16,8
41.905,5,0,3,20,89,15,0,2
41.91,3,0,2,6,19,0,2,1
41.915,2,1,1,17,49,8,3,3
41.92,7,0,6,4,31,9,0,6
41.925,3,1,2,9,17,12,0,3
41.93,1,3,5,8,92,7,7,3
41.935,1,1,0,16,26,1,7,3
41.94,2,4,0,3,2,15,3,1
41.945,0,5,1,0,4,1,1,0
41.95,1,1,6,2,62,10,5,2
41.955,5,0,3,16,72,8,1,2
41.96,1,3,5,9,45,7,3,1
41.965,4,3,1,4,23,6,5,1
41.97,2,1,7,10,2,9,0,2
41.975,1,0,2,14,3,9,3,0
41.98,0,2,1,1,16,9,2,2
41.985,1,6,5,36,48,11,4,3
41.99,3,1,1,13,42,15,4,10
41.995,2,1,5,10,44,5,2,8
42,2,4,2,7,7,0,2,2
42.005,1,5,3,14,54,3,2,0
42.01,0,1,2,19,30,4,3,3
42.015,4,5,10,14,16,0,6,5
42.02,4,1,0,28,10,3,3,4
42.025,1,1,5,26,14,1,0,1
42.03,5,5,11,34,23,16,11,6
42.035,4,1,0,12,12,7,0,0
42.04,0,3,3,2,20,3,3,7
42.045,0,3,0,22,1,4,1,9
42.05,0,3,1,8,17,5,7,14
42.055,1,1,4,0,8,1,7,6
42.06,14,3,4,1,48,10,5,8
42.065,7,3,6,9,2,5,2,0
42.07,20,0,2,11,6,6,1,9
42.075,11,7,5,2,62,6,2,18
42.08,17,0,2,1,16,2,6,16
42.085,6,1,0,5,27,3,3,7
42.09,0,0,1,11,11,0,1,10
42.095,9,1,4,2,38,2,3,4
42.1,15,0,1,9,1,0,1,10
42.105,2,1,5,5,4,3,2,13
42.11,3,4,1,2,45,4,3,27
42.115,15,1,2,1,8,4,4,5
42.12,1,16,2,9,18,2,2,12
42.125,13,15,4,4,9,1,3,11
42.13,21,1,3,8,24,0,1,13
42.135,16,1,4,2,3,10,5,14
42.14,18,3,1,7,40,8,1,102
42.145,18,44,4,26,13,8,1,95
42.15,1,15,7,21,70,16,12,10
42.155,9,11,4,18,91,5,10,14
42.16,18,20,0,2,44,2,13,54
42.165,13,23,1,6,24,1,1,11
42.17,14,52,2,9,4,5,1,4
42.175,26,29,11,3,37,11,2,16
42.18,1,12,7,14,39,12,7,12
42.185,16,42,10,9,45,13,5,7
42.19,19,71,11,0,1,3,3,19
42.195,20,6,4,2,1,1,1,28
42.2,8,16,7,6,9,7,9,18
42.205,23,23,2,14,39,2,5,9
42.21,42,7,8,12,18,4,5,1
42.215,6,43,5,18,91,13,15,17
42.22,29,28,10,3,7,1,2,21
42.225,40,18,9,8,3,4,2,15
42.23,24,28,13,3,101,8,3,12
42.235,21,96,13,9,63,6,8,17
42.24,20,60,11,5,7,10,5,55
42.245,35,6,8,30,66,5,0,42
42.25,14,12,5,31,23,2,0,1
42.255,33,51,1,18,11,5,5,23
42.26,18,28,8,14,20,6,3,16
42.265,13,13,5,23,13,6,1,23
42.27,5,3,7,4,19,2,4,4
42.275,18,22,10,12,33,2,0,1
42.28,9,72,12,7,42,4,3,6
42.285,16,27,10,9,11,6,9,32
42.29,5,12,11,12,29,3,8,4
42.295,3,5,9,14,4,5,0,7
42.3,5,21,2,16,4,0,12,36
42.305,0,21,3,7,12,4,2,25
42.31,1,17,9,9,22,1,1,10
42.315,9,8,1,13,61,3,0,9
42.32,7,2,16,38,70,14,12,13
42.325,24,2,2,7,38,9,0,4
42.33,1,12,2,7,8,0,3,7
42.335,13,24,4,7,21,1,0,1
42.34,1,2,2,4,24,2,0,1
42.345,13,9,13,18,57,7,7,13
42.35,4,2,1,6,60,10,3,1
42.355,2,4,7,23,45,0,0,0
42.36,1,3,5,8,17,1,3,6
42.365,0,4,11,7,15,1,0,4
42.37,11,7,1,1,4,4,3,19
42.375,20,10,1,15,7,6,1,29
42.38,7,7,7,3,65,0,0,15
42.385,5,9,2,0,35,0,4,2
42.39,14,7,9,7,9,3,9,23
42.395,3,4,1,12,20,2,4,14
42.4,1,16,0,2,46,6,2,5
42.405,6,7,3,4,42,0,5,3
42.41,14,7,8,39,67,12,10,7
42.415,3,2,8,30,91,14,9,12
42.42,11,5,3,13,96,6,5,4
42.425,10,18,6,24,5,8,7,9
42.43,0,0,3,9,35,7,9,13
42.435,1,1,0,5,16,2,4,8
42.44,19,3,1,8,91,6,1,1
42.445,23,1,7,8,35,7,4,2
42.45,3,36,4,23,8,4,0,8
42.455,15,8,0,8,18,1,1,6
42.46,1,7,8,8,63,8,4,2
42.465,5,1,2,18,78,3,0,1
42.47,13,14,3,6,41,7,8,7
42.475,9,4,0,8,9,2,4,13
42.48,3,2,8,8,25,1,3,0
42.485,4,8,4,2,11,1,0,3
42.49,9,7,4,1,3,2,0,3
42.495,7,13,10,10,10,5,2,3
42.5,6,0,6,12,11,1,3,0
42.505,1,6,2,13,5,1,3,5
42.51,3,1,3,2,30,0,1,1
42.515,4,4,2,3,29,2,3,1
42.52,4,2,1,4,18,0,0,2
42.525,4,2,3,2,23,5,3,2
42.53,3,6,9,5,13,1,1,10
42.535,2,5,7,11,63,3,2,2
42.54,6,1,1,16,65,7,1,4
42.545,2,1,1,7,28,4,0,6
42.55,9,1,3,8,5,3,2,11
42.555,6,11,2,17,4,1,4,9
42.56,0,10,1,5,0,5,4,1
42.565,5,6,4,5,3,3,3,2
42.57,1,1,15,9,17,2,3,4
42.575,9,3,4,5,26,4,0,7
42.58,17,5,2,1,28,2,7,5
42.585,2,5,6,17,16,4,3,4
42.59,2,0,2,7,14,1,0,0
42.595,11,12,3,14,88,1,3,2
42.6,6,6,2,24,89,9,7,2
42.605,3,10,0,2,9,3,3,5
42.61,6,2,2,9,35,4,3,2
42.615,3,3,0,2,7,1,1,7
42.62,2,7,6,0,6,3,2,1
42.625,1,5,0,4,17,2,5,0
42.63,1,4,2,0,27,4,1,3
42.635,1,1,5,1,33,5,2,5
42.64,0,0,3,1,4,4,2,0
42.645,4,4,0,4,15,1,0,1
42.65,0,3,6,12,17,2,3,1
42.655,1,1,4,7,54,7,6,3
42.66,0,2,2,2,38,0,2,5
42.665,16,1,1,9,14,3,2,1
42.67,4,2,0,6,20,2,1,0
42.675,1,0,2,13,41,7,6,3
42.68,1,4,2,17,26,1,2,0
42.685,2,1,0,21,3,5,3,1
42.69,0,3,3,16,68,11,5,2
42.695,1,8,16,39,45,13,12,6
42.7,0,0,2,10,74,4,2,1
42.705,3,6,13,9,117,22,15,8
42.71,0,7,10,2,1,2,1,3
42.715,1,6,14,3,90,5,6,2
42.72,0,5,12,17,11,9,4,4
42.725,4,1,9,9,25,3,3,1
42.73,6,10,14,54,96,18,15,13
42.735,1,0,6,19,4,2,7,6
42.74,3,7,13,7,31,12,10,4
42.745,0,2,9,40,118,15,1,2
42.75,5,5,9,40,78,4,7,4
42.755,11,6,15,50,33,21,17,12
42.76,6,2,2,2,6,15,10,5
42.765,2,9,13,62,128,18,8,5
42.77,4,3,1,42,115,3,10,12
42.775,5,5,9,15,40,8,10,9
42.78,5,2,4,11,9,5,4,2
42.785,9,6,9,50,27,38,25,14
42.79,1,3,2,16,14,1,5,2
42.795,4,1,3,68,46,15,2,2
42.8,2,1,12,37,57,7,1,0
42.805,21,18,19,41,114,5,9,2
42.81,26,6,2,11,47,6,2,14
42.815,6,4,3,0,82,14,3,5
42.82,11,13,5,67,109,29,12,5
42.825,3,13,22,73,62,6,0,8
42.83,9,7,32,0,80,7,2,0
42.835,5,8,4,23,36,4,1,2
42.84,13,3,40,89,128,23,5,6
42.845,5,0,14,77,9,14,11,7
42.85,12,5,11,8,34,5,0,2
42.855,6,5,4,39,45,13,2,1
42.86,5,4,4,27,93,15,6,0
42.865,7,11,7,62,58,11,9,11
42.87,2,6,4,44,123,15,7,3
42.875,16,9,16,29,22,7,14,10
42.88,1,11,5,13,2,22,19,7
42.885,5,1,2,14,31,5,1,4
42.89,23,5,18,13,7,8,7,1
42.895,42,4,0,3,0,4,2,2
42.9,18,9,14,18,3,3,7,2
42.905,8,16,11,29,19,11,1,0
42.91,3,41,2,10,31,1,6,5
42.915,3,9,21,15,79,33,21,14
42.92,5,13,15,34,28,6,2,1
42.925,3,11,10,12,11,2,8,0
42.93,4,10,2,27,43,4,7,5
42.935,6,1,1,26,54,9,6,3
42.94,7,1,13,50,8,3,16,8
42.945,6,5,11,48,50,22,3,3
42.95,5,11,15,59,128,12,8,7
42.955,6,3,1,47,53,21,11,7
42.96,5,5,5,59,17,1,9,4
42.965,7,6,3,35,41,10,8,7
42.97,5,2,20,31,21,8,4,4
42.975,13,4,7,41,47,20,21,15
42.98,1,4,12,15,46,4,5,5
42.985,2,0,6,23,76,5,6,8
42.99,2,1,5,24,94,0,3,0
42.995,8,5,6,5,14,12,5,3
43,4,2,12,34,43,4,2,5
43.005,14,2,6,18,127,16,2,2
43.01,20,12,3,18,24,2,2,5
43.015,7,1,4,20,28,0,2,3
43.02,3,3,7,4,43,6,6,2
43.025,0,11,2,21,50,7,9,10
43.03,4,5,5,42,72,6,2,0
43.035,10,6,4,12,39,6,15,10
43.04,3,2,0,70,27,5,9,14
43.045,6,2,4,34,37,8,2,1
43.05,1,5,5,26,82,9,7,5
43.055,1,0,3,19,14,4,7,3
43.06,5,5,5,0,25,4,2,2
43.065,2,6,4,3,74,14,2,4
43.07,11,10,18,2,113,9,13,11
43.075,8,1,1,19,60,3,2,0
43.08,5,2,2,21,25,6,0,5
43.085,7,2,5,19,26,8,6,9
43.09,4,2,4,1,34,5,1,9
43.095,6,2,5,5,37,1,1,2
43.1,13,16,3,21,3,1,6,7
43.105,6,10,5,8,18,1,3,6
43.11,23,3,3,11,15,1,5,2
43.115,1,5,5,2,9,0,4,12
43.12,15,1,7,2,24,1,3,2
43.125,13,1,2,8,12,1,2,1
43.13,3,5,0,17,29,5,3,7
43.135,9,9,1,2,21,2,7,5
43.14,2,1,4,1,89,12,6,3
43.145,7,1,1,18,13,0,5,3
43.15,0,9,3,2,13,3,0,1
43.155,2,5,9,24,47,1,7,2
43.16,9,5,0,3,12,2,5,4
43.165,25,7,1,1,2,4,6,1
43.17,43,5,2,12,12,11,7,7
43.175,4,7,2,11,11,2,2,9
43.18,13,1,0,10,6,4,1,10
43.185,7,14,5,15,9,3,2,12
43.19,38,15,9,12,37,6,7,1
43.195,38,4,3,1,52,7,6,13
43.2,21,14,3,1,1,0,2,8
43.205,27,6,6,14,3,5,4,0
43.21,32,14,2,1,3,7,3,3
43.215,2,45,2,17,97,11,3,17
43.22,6,3,1,0,11,8,1,3
43.225,30,33,2,3,1,1,1,41
43.23,17,18,3,3,10,7,3,31
43.235,27,1,3,0,9,4,1,2
43.24,42,5,0,9,23,6,4,14
43.245,2,30,0,8,62,0,8,20
43.25,13,7,4,4,0,7,6,33
43.255,3,10,2,1,21,5,1,2
43.26,5,11,5,19,1,4,1,11
43.265,6,20,5,8,7,8,5,7
43.27,14,4,2,3,24,1,1,5
43.275,15,6,5,11,27,4,0,1
43.28,9,12,5,7,55,8,6,7
43.285,12,4,5,3,1,0,2,9
43.29,12,11,3,11,24,8,11,5
43.295,3,25,3,4,23,7,3,13
43.3,10,2,7,1,30,4,0,5
43.305,12,3,3,12,32,2,0,14
43.31,8,19,7,7,15,1,3,6
43.315,27,3,4,6,5,1,1,9
43.32,11,4,4,4,12,0,0,8
43.325,4,31,4,7,59,4,4,3
43.33,3,40,6,25,88,10,12,18
43.335,10,6,3,6,33,3,5,9
43.34,1,13,0,1,61,1,1,15
43.345,5,26,3,8,8,9,8,9
43.35,1,11,4,8,62,3,3,1
43.355,5,0,1,4,19,4,2,0
43.36,5,8,8,9,4,3,1,5
43.365,7,10,2,2,58,3,3,2
43.37,1,10,2,12,62,11,9,2
43.375,1,8,4,15,43,7,3,1
43.38,4,5,5,9,27,3,2,3
43.385,15,13,0,11,17,0,1,3
43.39,3,20,3,17,30,2,2,4
43.395,3,18,13,14,0,0,1,4
43.4,2,1,3,7,27,0,3,8
43.405,10,2,4,4,23,3,0,0
43.41,11,5,2,8,2,4,2,0
43.415,16,8,3,13,26,5,0,4
43.42,8,8,4,5,2,2,1,2
43.425,4,11,1,3,15,1,5,5
43.43,1,13,5,4,5,5,2,11
43.435,7,4,2,8,14,5,9,4
43.44,3,4,4,8,26,1,4,4
43.445,3,5,4,6,11,4,3,6
43.45,1,5,3,7,27,3,4,1
43.455,7,3,2,4,0,1,0,3
43.46,0,1,4,10,1,8,6,3
43.465,0,4,2,8,2,1,2,2
43.47,5,4,2,6,2,2,2,2
43.475,3,0,3,3,9,1,0,2
43.48,3,2,2,4,16,0,4,1
43.485,4,5,1,5,23,3,3,2
43.49,4,3,3,0,5,1,2,3
43.495,4,0,3,2,9,4,3,4
43.5,3,0,2,32,33,5,6,5
43.505,3,1,4,29,34,8,4,3
43.51,1,1,1,17,98,4,0,1
43.515,4,2,4,26,13,4,9,3
43.52,1,4,8,32,48,7,5,4
43.525,4,3,4,7,5,12,4,0
43.53,1,3,2,29,27,3,0,1
43.535,1,2,14,24,7,9,1,0
43.54,0,1,12,11,35,18,6,2
43.545,5,7,12,10,62,24,18,14
43.55,3,5,13,3,84,0,1,0
43.555,3,5,6,5,72,5,5,0
43.56,4,0,3,14,18,9,2,0
43.565,6,0,0,25,88,12,6,4
43.57,0,4,3,26,62,19,11,5
43.575,8,7,21,38,13,9,11,12
43.58,2,3,2,21,58,14,6,5
43.585,0,1,3,4,67,6,2,4
43.59,0,3,1,12,13,8,3,0
43.595,6,1,4,14,4,6,6,6
43.6,2,4,6,28,15,17,7,3
43.605,5,3,2,17,7,6,6,5
43.61,3,3,1,15,18,10,3,0
43.615,3,1,2,18,27,7,4,1
43.62,1,4,4,6,66,2,3,4
43.625,5,7,6,20,49,4,5,6
43.63,2,4,4,34,12,16,4,4
43.635,1,2,1,1,3,11,2,2
43.64,0,4,9,1,50,6,6,5
43.645,3,0,2,5,61,2,8,2
43.65,1,3,4,26,67,12,1,2
43.655,3,0,26,5,127,11,0,3
43.66,3,0,4,10,59,8,7,1
43.665,0,0,3,4,29,4,4,2
43.67,4,1,1,5,20,4,0,0
43.675,0,4,8,11,7,8,0,2
43.68,0,2,6,1,0,2,2,0
43.685,0,2,2,1,54,10,4,4
43.69,2,2,3,8,46,4,4,1
43.695,0,1,0,6,4,7,3,1
43.7,6,3,0,1,4,0,1,1
43.705,12,1,5,5,23,4,4,1
43.71,6,8,2,10,14,0,1,2
43.715,1,2,0,0,7,1,2,2
43.72,0,4,5,6,3,6,2,2
43.725,1,5,1,9,16,1,2,0
43.73,1,2,4,11,14,1,2,6
43.735,7,12,2,14,42,1,4,1
43.74,11,5,3,2,15,3,1,9
43.745,43,34,3,7,32,3,2,20
43.75,5,13,3,7,45,0,6,11
43.755,27,43,2,6,19,0,5,33
43.76,28,17,2,3,66,13,1,46
43.765,1,22,0,5,9,4,3,0
43.77,15,9,2,6,35,2,1,11
43.775,6,40,5,4,65,0,1,0
43.78,23,22,3,11,78,4,1,4
43.785,1,11,1,12,27,3,2,1
43.79,19,11,0,22,33,8,10,18
43.795,3,3,8,1,28,2,7,5
43.8,9,14,1,1,23,2,1,18
43.805,3,20,4,10,23,0,4,17
43.81,3,0,4,2,6,2,4,4
43.815,9,6,9,4,10,0,0,4
43.82,15,9,1,12,10,5,4,0
43.825,21,6,6,25,15,9,3,2
43.83,2,8,1,20,34,8,3,0
43.835,6,18,0,19,43,5,3,6
43.84,17,8,2,5,10,4,5,4
43.845,9,12,4,3,6,3,3,1
43.85,1,0,3,3,5,1,1,4
43.855,10,5,2,1,27,2,3,6
43.86,4,9,25,4,7,4,2,1
43.865,0,9,1,15,20,4,7,8
43.87,2,8,7,23,13,0,3,3
43.875,2,1,0,5,3,3,0,2
43.88,10,5,2,7,2,2,2,1
43.885,2,3,8,2,1,1,1,2
43.89,3,5,6,1,9,3,0,1
43.895,1,4,5,5,16,4,4,2
43.9,1,8,0,3,6,3,4,2
43.905,1,3,0,2,1,0,1,5
43.91,5,2,0,1,8,3,2,4
43.915,5,1,5,3,5,6,4,6
43.92,4,1,4,16,39,1,0,1
43.925,7,0,0,8,4,4,0,3
43.93,13,0,3,10,11,3,2,2
43.935,3,5,3,14,9,2,0,3
43.94,2,2,2,8,52,2,1,3
43.945,0,6,23,16,69,7,6,2
43.95,0,1,1,5,12,0,1,3
43.955,1,1,9,32,88,12,10,2
43.96,4,8,13,48,90,19,14,12
43.965,9,8,13,6,41,17,20,14
43.97,3,2,2,20,48,6,4,3
43.975,3,5,2,11,39,11,2,2
43.98,3,1,3,5,74,1,3,1
43.985,14,13,9,6,54,19,28,22
43.99,4,6,1,31,93,0,9,6
43.995,2,7,9,3,64,3,4,2
44,6,1,5,25,24,22,1,2
44.005,3,1,0,22,99,19,4,1
44.01,3,12,7,24,82,26,15,9
44.015,3,0,1,25,61,15,3,3
44.02,1,7,25,44,50,3,1,1
44.025,2,10,13,30,45,27,18,12
44.03,1,1,7,39,106,30,8,4
44.035,3,2,5,17,75,16,5,0
44.04,2,3,7,21,42,4,1,5
44.045,6,3,10,1,13,8,4,3
44.05,0,5,26,14,8,9,2,1
44.055,1,0,2,11,0,35,10,2
44.06,4,7,15,21,3,19,15,9
44.065,7,12,4,28,56,3,16,13
44.07,1,1,7,30,46,21,10,1
44.075,0,1,3,4,56,0,3,0
44.08,0,1,10,18,14,0,1,1
44.085,2,3,5,10,8,7,7,4
44.09,2,0,1,1,4,3,5,2
44.095,0,2,0,18,11,7,5,3
44.1,5,8,4,2,16,10,8,7
44.105,1,1,2,2,24,10,1,0
44.11,3,1,7,10,0,6,3,4
44.115,0,1,2,0,23,3,6,3
44.12,1,4,5,1,24,8,1,1
44.125,3,6,4,3,0,18,2,3
44.13,2,1,1,5,14,1,2,5
44.135,2,0,1,8,41,10,3,2
44.14,0,1,9,15,86,14,1,6
44.145,1,3,1,5,28,26,10,3
44.15,0,1,1,9,32,6,1,5
44.155,1,2,1,1,21,3,3,2
44.16,3,3,1,23,32,3,3,0
44.165,3,2,2,3,2,6,3,0
44.17,1,1,2,2,8,0,0,1
44.175,13,3,2,0,29,6,6,1
44.18,6,2,6,6,13,3,2,2
44.185,5,3,1,43,9,6,3,1
44.19,2,2,0,37,21,5,0,4
44.195,5,4,2,3,24,2,3,3
44.2,6,5,2,11,0,0,1,2
44.205,4,8,1,18,2,4,1,3
44.21,4,15,2,20,11,1,6,2
44.215,1,1,1,2,7,4,2,9
44.22,6,7,4,8,3,3,0,1
44.225,3,5,6,3,7,1,5,0
44.23,2,1,2,13,17,5,3,4
44.235,10,1,1,5,7,1,0,0
44.24,14,6,1,7,2,1,2,2
44.245,9,1,0,3,31,1,3,5
44.25,11,5,1,3,2,6,1,2
44.255,13,2,3,7,26,4,4,3
44.26,9,4,1,9,23,1,1,2
44.265,2,3,5,6,14,5,2,3
44.27,3,0,3,2,11,2,0,1
44.275,9,0,3,2,14,1,1,1
44.28,0,2,2,4,2,5,1,3
44.285,8,4,1,1,3,4,6,8
44.29,11,7,2,5,25,4,1,7
44.295,14,3,0,1,15,1,2,1
44.3,6,0,0,0,8,3,2,2
44.305,8,1,1,5,2,3,6,0
44.31,4,2,3,4,7,3,3,5
44.315,2,2,2,8,19,1,0,1
44.32,1,5,1,0,7,3,4,2
44.325,4,21,2,7,29,4,1,3
44.33,3,10,2,1,38,2,5,2
44.335,2,2,0,2,26,0,2,1
44.34,2,3,2,3,0,1,3,1
44.345,18,1,3,1,6,5,1,3
44.35,10,1,1,12,35,4,1,1
44.355,0,0,1,5,41,4,1,2
44.36,1,9,9,4,31,15,14,10
44.365,5,3,2,4,19,4,0,1
44.37,3,7,1,0,14,5,1,1
44.375,2,1,1,1,23,4,6,6
44.38,1,5,0,5,7,5,5,3
44.385,6,6,5,4,1,3,3,2
44.39,2,2,4,4,3,1,1,1
44.395,5,1,1,3,5,1,2,5
44.4,0,3,2,1,18,3,2,2
44.405,0,7,4,8,2,3,0,3
44.41,3,2,0,6,17,4,2,1
44.415,3,1,1,1,1,1,3,4
44.42,3,4,1,4,22,2,3,2
44.425,3,7,0,4,34,6,4,0
44.43,1,2,3,11,12,1,1,0
44.435,5,9,2,15,23,0,4,2
44.44,7,7,1,9,14,3,2,3
44.445,2,4,2,2,14,1,1,1
44.45,1,1,0,8,9,2,1,2
44.455,1,1,2,4,5,1,1,0
44.46,5,6,3,1,20,5,2,1
44.465,1,1,2,13,35,0,1,0
44.47,1,3,6,11,31,4,4,3
44.475,3,0,2,2,16,2,1,1
44.48,0,2,3,6,2,5,0,2
44.485,5,1,4,0,10,2,2,2
44.49,2,0,0,6,1,1,1,1
44.495,2,1,3,10,9,5,3,1
44.5,2,0,2,5,14,1,2,1
44.505,1,1,4,2,5,1,2,0
44.51,1,2,2,7,13,5,4,1
44.515,1,3,1,14,18,4,1,4
44.52,5,1,0,1,3,1,1,3
44.525,1,0,3,1,22,1,0,1
44.53,3,3,0,2,12,4,1,1
44.535,12,3,2,4,25,2,1,2
44.54,2,6,4,6,29,1,2,2
44.545,1,2,2,0,5,3,3,2
44.55,1,0,1,5,23,2,4,4
44.555,2,4,1,29,68,0,2,0
44.56,0,0,1,10,3,4,3,1
44.565,2,0,3,8,3,2,3,1
44.57,1,2,2,1,6,2,2,3
44.575,6,2,1,5,3,5,4,3
44.58,1,3,5,1,5,3,0,0
44.585,5,2,1,2,3,1,1,1
44.59,1,4,0,7,27,2,0,0
44.595,3,0,6,5,7,2,5,5
44.6,3,2,3,1,23,3,0,2
44.605,4,3,1,11,35,1,2,0
44.61,2,1,1,4,9,2,2,3
44.615,1,1,1,4,1,6,1,1
44.62,5,1,0,0,21,0,1,1
44.625,1,2,1,2,18,5,3,2
44.63,1,5,3,4,22,0,0,1
44.635,1,2,2,18,18,2,2,4
44.64,1,3,1,14,6,5,0,0
44.645,1,3,2,8,3,3,0,0
44.65,2,1,0,6,30,2,4,3
44.655,2,1,3,10,24,3,1,2
44.66,2,1,3,3,4,2,3,2
44.665,2,1,0,1,14,4,2,0
44.67,4,4,4,1,8,1,3,3
44.675,0,2,1,2,4,2,0,1
44.68,0,6,1,7,2,1,2,1
44.685,1,1,1,3,19,2,1,0
44.69,3,2,1,0,3,0,1,6
44.695,1,1,1,11,6,0,1,2
44.7,4,1,2,0,11,3,3,1
44.705,1,1,0,6,7,2,4,3
44.71,1,2,1,0,5,1,1,5
44.715,2,0,2,0,5,3,1,2
44.72,1,0,7,8,32,0,1,1
44.725,2,2,3,8,28,2,1,1
44.73,3,1,5,2,10,2,3,1
44.735,1,2,3,4,1,5,3,4
44.74,0,2,5,1,15,3,2,0
44.745,0,2,6,5,29,3,0,4
44.75,1,0,1,6,8,1,1,1
44.755,2,1,1,2,27,1,3,0
44.76,0,5,4,13,55,11,7,3
44.765,2,2,3,15,25,2,0,0
44.77,0,0,0,4,12,0,3,4
44.775,1,1,1,2,71,2,2,0
44.78,3,1,1,16,64,3,5,4
44.785,1,2,5,2,21,0,1,2
44.79,3,2,2,4,25,3,1,1
44.795,0,2,2,12,40,4,4,0
44.8,1,3,6,36,85,11,5,3
44.805,6,3,2,5,73,2,2,1
44.81,1,2,1,26,70,0,3,2
44.815,2,3,1,22,19,2,6,0
44.82,5,1,3,25,63,6,1,1
44.825,1,3,0,2,72,4,2,1
44.83,5,0,4,1,48,7,6,1
44.835,2,1,3,11,22,0,4,2
44.84,2,1,4,2,81,3,0,3
44.845,3,2,2,8,49,1,1,2
44.85,4,6,0,4,51,7,4,1
44.855,1,6,5,1,82,6,4,3
44.86,1,1,0,24,70,5,5,5
44.865,2,0,4,2,13,3,1,2
44.87,7,25,5,16,65,6,10,7
44.875,1,8,1,4,22,2,2,0
44.88,4,12,3,7,18,1,1,1
44.885,2,10,3,1,35,3,1,1
44.89,2,9,2,17,3,1,1,0
44.895,0,3,2,5,11,3,2,0
44.9,4,2,5,15,36,9,7,5
44.905,2,15,1,11,17,6,0,1
44.91,0,3,2,7,11,2,0,1
44.915,0,1,1,5,18,0,0,1
44.92,1,1,2,9,8,2,2,1
44.925,2,1,4,2,3,5,6,4
44.93,2,3,2,4,12,1,2,1
44.935,2,2,0,3,28,2,1,1
44.94,2,1,0,10,13,0,0,0
44.945,3,4,4,38,46,7,6,2
44.95,1,1,4,9,1,0,2,4
44.955,2,3,5,1,12,0,5,2
44.96,0,1,1,13,35,1,1,3
44.965,4,1,2,7,32,4,1,1
44.97,4,8,3,13,8,1,0,2
44.975,0,6,4,14,51,6,4,4
44.98,4,2,3,5,7,1,0,1
44.985,0,3,1,19,25,2,4,0
44.99,1,6,1,1,34,3,0,2
44.995,2,1,2,2,17,5,3,2
45,4,4,11,36,80,7,5,2
45.005,0,1,1,4,11,1,0,2
45.01,2,0,6,1,23,2,3,0
45.015,0,1,2,7,11,0,4,2
45.02,1,0,4,3,19,5,2,1
45.025,2,2,5,22,29,3,4,4
45.03,3,7,5,19,113,20,11,9
45.035,3,1,1,8,25,7,1,1
45.04,5,8,5,27,41,6,5,2
45.045,3,5,4,7,3,2,3,1
45.05,2,4,9,3,6,2,6,2
45.055,2,7,2,3,22,5,3,2
45.06,3,1,4,39,73,10,4,0
45.065,4,4,12,20,46,22,7,4
45.07,2,1,3,37,127,10,9,6
45.075,1,2,12,55,72,5,2,1
45.08,3,4,3,8,49,17,5,1
45.085,1,1,2,9,37,6,2,0
45.09,11,9,12,17,30,9,12,14
45.095,1,0,11,8,1,15,6,3
45.1,2,1,7,17,104,4,2,2
45.105,1,3,3,23,44,1,11,8
45.11,2,0,0,28,88,12,2,2
45.115,5,2,4,44,3,5,2,0
45.12,0,3,1,8,85,17,10,5
45.125,7,9,16,48,11,26,14,11
45.13,2,4,24,36,111,16,0,1
45.135,1,2,9,9,99,4,10,7
45.14,6,9,33,58,76,30,10,9
45.145,0,4,6,14,38,8,6,3
45.15,5,5,1,12,3,9,1,1
45.155,1,5,0,18,98,7,11,8
45.16,3,1,3,18,100,1,7,3
45.165,4,4,16,38,9,7,11,6
45.17,3,3,1,24,85,2,4,0
45.175,1,7,6,24,13,8,13,5
45.18,9,7,5,4,14,15,10,7
45.185,2,4,5,32,7,13,5,4
45.19,0,5,15,20,3,7,8,7
45.195,9,3,17,29,54,4,4,8
45.2,1,1,4,29,44,12,3,2
45.205,5,1,6,57,45,39,11,5
45.21,1,1,4,28,8,5,7,3
45.215,11,8,13,6,127,0,16,8
45.22,1,3,0,4,50,17,7,3
45.225,2,2,3,9,84,24,8,3
45.23,3,4,15,15,30,11,0,1
45.235,1,3,10,12,37,7,1,0
45.24,1,3,10,9,16,6,3,2
45.245,2,2,4,58,31,8,6,5
45.25,1,0,5,23,43,7,2,0
45.255,1,2,9,37,79,11,11,5
45.26,5,5,6,1,26,7,4,4
45.265,4,2,1,14,90,20,13,7
45.27,1,0,2,12,14,2,1,2
45.275,2,3,2,21,30,3,3,3
45.28,1,1,6,23,101,4,0,2
45.285,3,6,3,27,12,2,2,1
45.29,0,1,8,29,58,14,6,1
45.295,1,1,3,13,1,12,4,0
45.3,2,0,1,22,1,0,2,1
45.305,0,2,0,18,42,2,9,2
45.31,0,0,0,27,89,6,3,4
45.315,6,7,3,18,29,11,16,11
45.32,2,2,7,19,46,2,1,1
45.325,1,5,1,14,5,1,3,2
45.33,3,0,4,15,58,1,3,1
45.335,5,2,0,21,49,11,1,1
45.34,1,0,3,26,64,2,3,2
45.345,2,5,1,24,42,3,3,2
45.35,2,2,3,6,23,3,5,4
45.355,1,1,2,2,26,4,9,5
45.36,2,2,8,22,122,14,13,9
45.365,1,1,4,1,44,2,2,2
45.37,0,1,3,11,22,1,1,1
45.375,3,4,0,3,19,5,5,1
45.38,1,3,1,12,16,1,5,1
45.385,2,5,5,4,38,10,9,4
45.39,3,2,2,8,27,7,3,3
45.395,0,3,3,2,19,3,0,0
45.4,2,1,3,11,8,6,3,2
45.405,2,1,3,10,0,0,1,2
45.41,1,0,6,8,1,1,3,2
45.415,2,0,1,7,1,5,1,6
45.42,1,3,0,2,7,0,0,1
45.425,1,4,3,0,4,2,2,2
45.43,2,5,2,3,3,0,4,1
45.435,7,7,3,12,1,2,1,16
45.44,9,6,1,9,43,1,2,15
45.445,2,6,2,9,58,2,1,1
45.45,3,5,0,4,0,0,2,2
45.455,4,4,4,3,5,1,1,3
45.46,17,2,2,2,5,2,2,10
45.465,5,4,7,6,35,3,4,2
45.47,12,1,2,3,36,2,2,2
45.475,5,4,4,14,19,5,6,7
45.48,2,3,2,7,25,2,1,9
45.485,6,0,4,6,17,1,5,1
45.49,5,4,2,2,17,2,2,8
45.495,4,5,1,3,1,1,2,3
45.5,5,5,2,8,6,3,1,8
45.505,5,4,1,16,22,5,3,6
45.51,8,4,5,6,80,4,1,1
45.515,1,5,3,8,15,1,1,7
45.52,3,4,3,7,10,0,5,17
45.525,2,3,4,2,19,1,0,19
45.53,3,1,3,9,19,4,4,0
45.535,11,5,3,7,4,3,4,1
45.54,4,4,1,1,11,3,1,2
45.545,2,1,1,7,10,2,3,3
45.55,0,2,1,3,19,3,3,1
45.555,3,0,1,3,15,4,7,2
45.56,4,0,3,11,75,5,2,2
45.565,3,2,1,24,42,5,2,0
45.57,4,5,1,14,26,7,3,3
45.575,18,4,0,3,18,7,3,5
45.58,20,6,2,10,22,2,1,1
45.585,5,5,1,6,36,5,1,0
45.59,1,2,5,10,43,4,4,2
45.595,4,2,0,3,25,1,0,3
45.6,4,4,1,3,15,0,2,2
45.605,2,19,5,6,3,2,0,3
45.61,1,4,0,2,4,1,3,3
45.615,5,2,4,6,23,4,4,0
45.62,4,0,1,2,18,1,2,2
45.625,5,13,1,6,2,4,1,1
45.63,3,2,1,1,2,1,1,0
45.635,1,4,1,1,9,0,2,2
45.64,2,3,3,1,17,2,1,1
45.645,5,1,6,8,18,4,4,5
45.65,4,9,2,2,8,2,2,2
45.655,6,13,7,4,1,3,1,2
45.66,3,7,2,4,4,4,4,1
45.665,3,14,5,3,9,2,2,2
45.67,12,2,5,10,13,7,5,2
45.675,5,6,2,3,2,1,5,2
45.68,13,8,5,19,32,7,3,9
45.685,1,1,3,14,42,3,2,3
45.69,2,1,2,25,76,10,4,4
45.695,3,11,1,9,0,3,2,0
45.7,3,19,0,1,12,3,6,5
45.705,2,3,4,5,8,2,5,3
45.71,3,1,3,6,2,0,1,5
45.715,1,2,2,1,8,1,2,0
45.72,1,4,2,8,14,4,1,0
45.725,2,3,2,1,8,1,1,3
45.73,3,5,2,7,26,1,2,2
45.735,0,8,2,13,13,3,2,1
45.74,1,8,2,7,11,2,2,1
45.745,5,2,1,8,0,3,1,3
45.75,7,5,0,3,3,2,4,1
45.755,3,3,1,0,9,2,0,2
45.76,6,1,6,5,9,0,1,0
45.765,1,7,0,4,8,3,3,2
45.77,1,3,2,0,3,1,1,3
45.775,3,9,5,6,15,3,2,1
45.78,5,0,1,14,27,7,5,0
45.785,0,5,6,4,14,1,3,1
45.79,1,2,0,2,20,3,0,3
45.795,1,1,4,6,26,3,1,4
45.8,6,30,8,29,67,10,4,3
45.805,1,2,4,16,30,2,2,4
45.81,1,1,0,6,3,1,2,2
45.815,0,0,4,13,11,1,1,1
45.82,0,1,5,8,31,4,1,2
45.825,0,3,9,3,42,3,0,1
45.83,5,0,5,1,7,1,3,1
45.835,13,2,5,1,0,3,3,2
45.84,3,4,0,2,6,3,1,2
45.845,10,12,1,8,6,0,2,5
45.85,2,14,4,3,14,4,1,3
45.855,4,13,6,1,20,3,0,3
45.86,2,9,4,7,21,4,1,3
45.865,4,3,0,8,10,2,3,2
45.87,3,3,3,10,48,4,4,3
45.875,6,18,3,3,13,3,1,6
45.88,2,23,1,3,3,3,3,4
45.885,2,2,0,2,1,1,0,1
45.89,1,6,1,1,28,2,0,1
45.895,1,2,1,9,33,3,2,4
45.9,1,1,1,6,6,4,2,1
45.905,1,7,0,9,10,3,4,1
45.91,1,7,0,5,1,2,1,1
45.915,9,10,4,3,7,4,3,6
45.92,2,1,0,7,0,1,5,2
45.925,1,2,2,7,12,4,2,0
45.93,2,3,1,1,8,1,2,0
45.935,3,2,2,6,2,0,3,1
45.94,1,4,8,5,7,1,1,2
45.945,3,3,0,2,5,0,1,1
45.95,2,0,1,9,8,3,0,0
45.955,8,3,1,0,0,1,0,1
45.96,3,2,2,5,9,1,0,2
45.965,5,5,2,7,10,1,0,1
45.97,1,2,3,10,20,2,1,1
45.975,2,4,4,2,28,3,2,1
45.98,3,1,4,7,2,1,2,2
45.985,3,3,0,0,11,2,2,3
45.99,1,1,0,1,17,0,3,1
45.995,3,4,4,18,16,7,4,3
46,0,3,4,22,34,4,1,1
46.005,4,5,7,9,14,2,3,4
46.01,1,1,4,6,28,1,1,2
46.015,4,0,1,7,8,1,0,1
46.02,0,0,5,7,26,0,3,0
46.025,1,0,1,12,34,2,2,0
46.03,1,3,2,4,19,8,8,3
46.035,0,5,2,24,73,9,1,1
46.04,1,1,3,9,36,6,2,5
46.045,0,3,1,11,22,4,5,2
46.05,6,0,2,23,29,0,4,4
46.055,0,3,6,26,25,9,9,2
46.06,0,2,0,15,43,12,3,5
46.065,3,7,2,8,97,4,7,4
46.07,1,1,6,1,12,3,6,4
46.075,6,11,24,9,57,10,7,6
46.08,8,1,9,5,127,15,6,1
46.085,2,4,7,4,38,2,5,4
46.09,5,1,6,71,32,10,7,5
46.095,1,4,10,29,55,5,10,6
46.1,4,1,1,54,105,18,1,3
46.105,9,5,4,63,38,5,6,1
46.11,4,4,16,16,66,27,5,5
46.115,3,4,16,55,60,13,1,0
46.12,1,3,12,15,95,19,9,5
46.125,4,7,8,24,4,18,13,4
46.13,6,3,4,27,57,3,2,5
46.135,2,5,37,14,68,1,2,3
46.14,10,5,9,34,128,33,15,8
46.145,7,2,21,50,31,16,4,3
46.15,10,7,5,13,65,10,11,10
46.155,3,5,24,53,64,22,0,3
46.16,8,9,20,6,55,34,25,11
46.165,1,3,3,4,65,10,9,4
46.17,7,0,6,4,41,2,3,1
46.175,9,6,0,15,8,6,2,4
46.18,1,1,9,3,62,15,11,1
46.185,4,6,4,11,42,16,5,6
46.19,5,0,7,36,5,5,6,4
46.195,1,3,4,30,61,0,1,3
46.2,6,1,2,15,4,5,4,2
46.205,6,6,17,15,21,5,11,1
46.21,3,1,5,11,1,8,2,2
46.215,2,1,2,19,16,2,1,3
46.22,20,3,4,19,24,2,1,2
46.225,12,1,2,10,8,11,5,9
46.23,4,1,7,10,39,1,5,2
46.235,2,0,1,1,42,5,1,5
46.24,3,2,3,3,46,0,1,8
46.245,7,3,2,6,80,5,3,7
46.25,6,4,5,40,1,9,4,4
46.255,0,5,8,35,59,5,6,5
46.26,3,6,4,4,75,13,8,5
46.265,5,2,2,1,101,7,2,2
46.27,2,0,6,1,18,1,5,6
46.275,2,0,1,9,30,5,0,2
46.28,2,0,2,0,22,1,4,2
46.285,5,0,1,5,1,2,7,1
46.29,2,1,3,13,63,4,1,2
46.295,0,7,2,10,76,6,11,4
46.3,1,3,9,14,33,0,1,2
46.305,3,1,4,17,0,4,2,2
46.31,1,1,5,0,44,5,4,3
46.315,1,4,19,8,28,14,6,8
46.32,1,0,8,8,19,4,3,3
46.325,3,0,8,8,13,3,0,0
46.33,1,0,4,11,36,3,2,1
46.335,3,2,6,19,74,7,4,2
46.34,1,0,2,6,46,7,1,3
46.345,3,1,5,11,62,0,1,0
46.35,1,2,9,26,22,1,1,7
46.355,5,5,13,14,30,9,6,1
46.36,1,2,2,5,39,6,7,2
46.365,6,6,3,4,18,3,3,7
46.37,2,2,2,0,40,2,2,4
46.375,10,7,5,2,17,3,1,2
46.38,14,2,1,1,17,3,5,4
46.385,2,1,1,3,4,1,0,1
46.39,10,6,2,2,13,7,3,0
46.395,3,3,2,1,14,4,5,6
46.4,6,3,3,0,27,3,0,0
46.405,7,1,1,6,5,1,4,14
46.41,6,5,5,1,1,1,2,23
46.415,6,0,2,6,2,3,2,10
46.42,5,2,6,1,3,1,3,1
46.425,15,1,4,1,4,1,0,3
46.43,4,9,4,1,25,5,5,3
46.435,4,7,1,3,2,3,2,1
46.44,5,3,1,5,9,6,5,9
46.445,1,13,2,9,90,7,6,6
46.45,5,1,2,20,26,6,2,2
46.455,2,5,1,7,17,2,1,2
46.46,13,7,3,1,5,2,3,2
46.465,9,3,1,1,20,2,0,14
46.47,2,10,5,7,27,0,3,20
46.475,1,0,2,5,3,6,3,2
46.48,4,2,1,4,10,2,0,2
46.485,13,5,2,2,20,2,3,2
46.49,13,3,1,4,1,3,3,4
46.495,9,8,1,0,11,4,5,4
46.5,2,4,3,2,5,2,4,6
46.505,1,1,3,4,23,5,3,1
46.51,1,1,2,4,4,1,2,5
46.515,1,2,5,7,11,7,4,2
46.52,2,3,1,12,18,2,1,2
46.525,4,5,4,3,3,4,0,3
46.53,6,2,2,11,14,4,3,1
46.535,5,1,1,5,11,0,0,1
46.54,1,2,2,3,8,4,4,1
46.545,0,1,3,3,2,1,3,3
46.55,3,1,0,0,13,1,2,2
46.555,1,1,2,10,10,0,1,2
46.56,4,6,2,9,9,0,0,5
46.565,2,1,1,1,8,1,2,0
46.57,2,4,4,2,6,3,3,1
46.575,1,2,2,18,10,4,1,4
46.58,4,1,2,7,0,0,3,3
46.585,1,4,3,2,5,3,1,0
46.59,2,0,2,6,13,4,7,2
46.595,2,4,1,0,0,1,3,0
46.6,6,1,4,5,14,2,2,1
46.605,2,1,0,1,4,4,1,3
46.61,2,1,1,1,12,1,1,0
46.615,1,1,2,1,17,1,1,0
46.62,11,3,2,11,15,2,2,2
46.625,0,3,1,4,17,1,1,1
46.63,2,2,7,4,0,2,1,1
46.635,1,1,2,8,14,1,2,1
46.64,3,1,2,1,8,2,1,2
46.645,0,0,1,1,6,1,3,3
46.65,2,3,2,5,7,3,2,1
46.655,1,1,1,1,1,1,1,1
46.66,1,1,1,1,6,4,5,3
46.665,4,1,3,3,7,2,1,2
46.67,3,0,0,7,1,0,1,5
46.675,1,3,0,5,23,2,0,1
46.68,1,1,4,6,17,2,1,1
46.685,1,1,2,13,16,2,1,1
46.69,1,0,1,9,4,3,3,1
46.695,1,5,2,1,8,1,0,1
46.7,2,1,0,5,7,0,1,2
46.705,2,4,3,3,11,0,0,2
46.71,2,1,1,1,3,0,0,0
46.715,0,3,1,2,2,3,3,1
46.72,4,2,1,9,5,3,2,2
46.725,1,2,0,0,32,2,2,1
46.73,1,1,3,10,10,1,2,2
46.735,1,1,2,17,40,1,4,2
46.74,1,4,3,4,22,4,5,2
46.745,3,5,8,38,90,19,18,8
46.75,6,4,2,38,94,23,3,3
46.755,1,3,3,16,19,13,7,5
46.76,7,8,5,12,71,19,27,16
46.765,3,3,10,42,76,20,7,4
46.77,3,2,4,17,26,9,6,1
46.775,1,7,1,73,51,11,5,2
46.78,0,0,21,44,77,3,11,6
46.785,0,5,23,82,71,6,1,1
46.79,2,6,17,25,85,13,5,1
46.795,0,2,7,13,22,11,3,0
46.8,5,0,3,12,6,26,10,4
46.805,9,1,4,24,19,11,7,1
46.81,1,11,19,31,87,15,18,12
46.815,4,3,3,7,14,11,6,4
46.82,1,0,1,13,14,3,4,0
46.825,3,3,4,20,81,1,1,6
46.83,1,4,7,44,71,6,3,1
46.835,1,1,7,11,57,7,1,1
46.84,2,4,3,22,102,22,7,1
46.845,0,4,8,3,101,4,1,1
46.85,1,2,2,8,51,11,8,1
46.855,8,2,6,44,107,18,9,8
46.86,6,5,4,7,8,10,4,6
46.865,2,5,5,29,26,20,7,6
46.87,2,8,3,13,28,0,5,11
46.875,4,2,1,14,14,1,1,1
46.88,0,4,2,8,1,1,3,2
46.885,4,4,2,14,7,12,6,1
46.89,0,2,2,2,19,1,5,1
46.895,2,1,4,4,28,2,1,2
46.9,0,1,4,8,11,0,1,1
46.905,1,2,1,6,49,12,6,5
46.91,2,3,3,15,46,1,3,1
46.915,7,5,5,33,28,1,3,5
46.92,2,3,0,10,28,13,0,4
46.925,1,1,3,2,36,6,4,2
46.93,1,2,1,6,25,1,0,0
46.935,2,1,0,4,11,1,1,2
46.94,2,1,1,2,0,4,1,3
46.945,3,1,0,7,6,0,2,2
46.95,1,0,4,13,16,2,0,2
46.955,1,3,3,4,15,5,0,1
46.96,4,3,3,1,2,0,3,2
46.965,2,1,1,3,8,6,1,0
46.97,1,0,1,4,3,1,1,0
46.975,4,1,1,7,6,2,3,1
46.98,5,2,3,3,18,10,3,6
46.985,1,4,6,10,64,11,5,1
46.99,2,1,4,38,72,6,1,1
46.995,3,10,6,7,12,0,8,6
47,1,1,3,8,17,8,2,3
47.005,6,1,4,5,33,4,2,3
47.01,1,2,2,12,3,4,0,1
47.015,1,3,2,3,17,3,3,3
47.02,3,4,2,6,9,1,3,0
47.025,2,4,3,5,41,8,9,1
47.03,1,5,2,10,11,7,5,3
47.035,0,1,3,5,8,0,1,2
47.04,3,1,1,18,19,2,3,1
47.045,0,1,2,6,20,2,3,1
47.05,2,3,2,0,10,2,3,2
47.055,2,1,1,1,2,1,0,2
47.06,2,1,5,12,16,3,1,3
47.065,1,2,1,1,3,4,4,1
47.07,1,1,1,20,12,2,1,0
47.075,3,3,5,28,105,12,6,8
47.08,1,6,6,24,67,20,10,7
47.085,2,1,3,8,1,3,2,1
47.09,2,1,0,28,42,9,1,1
47.095,2,2,6,51,100,20,8,4
47.1,5,0,3,20,52,5,1,7
47.105,1,2,0,9,37,6,4,6
47.11,2,0,5,14,47,8,6,12
47.115,5,2,3,25,55,8,3,8
47.12,0,3,1,3,2,3,1,7
47.125,2,1,2,5,20,0,2,1
47.13,1,0,2,5,10,1,3,9
47.135,3,1,0,7,39,7,4,14
47.14,6,1,2,4,13,1,0,1
47.145,22,1,5,3,4,3,6,16
47.15,22,4,4,14,28,3,4,8
47.155,8,1,3,3,12,0,3,8
47.16,6,2,0,2,2,1,2,5
47.165,14,0,5,1,8,1,5,6
47.17,9,1,5,8,17,3,1,0
47.175,1,6,3,9,23,3,1,2
47.18,1,2,9,6,29,2,1,0
47.185,7,4,6,21,11,7,3,14
47.19,0,4,0,2,19,4,2,1
47.195,2,1,4,37,67,7,4,7
47.2,1,2,3,6,14,4,2,6
47.205,6,6,1,4,28,6,0,10
47.21,2,6,3,1,14,1,3,2
47.215,13,1,2,17,42,3,0,0
47.22,4,2,1,1,8,2,0,1
47.225,1,0,5,10,15,2,7,5
47.23,15,11,0,2,8,5,6,7
47.235,2,12,2,4,20,6,2,0
47.24,6,2,3,1,15,0,4,31
47.245,7,11,1,6,27,1,2,6
47.25,13,2,0,6,19,5,5,5
47.255,0,10,4,1,12,5,5,6
47.26,18,3,3,2,1,2,4,16
47.265,12,13,1,7,14,5,1,1
47.27,13,7,4,4,22,0,0,5
47.275,32,6,1,4,1,0,2,4
47.28,18,7,5,7,10,4,1,4
47.285,6,11,1,3,29,3,3,7
47.29,2,20,5,17,103,12,6,1
47.295,6,3,2,16,13,2,2,0
47.3,0,1,1,9,39,2,2,0
47.305,3,9,5,2,17,1,4,6
47.31,12,13,2,2,23,4,4,15
47.315,5,5,3,2,15,4,0,14
47.32,10,1,2,4,11,6,4,0
47.325,6,2,3,2,0,7,5,13
47.33,9,4,1,3,17,1,2,10
47.335,5,1,4,7,3,3,1,10
47.34,18,10,2,1,0,2,3,2
47.345,10,44,2,1,5,5,4,10
47.35,10,7,5,1,1,3,1,2
47.355,6,3,2,0,10,2,1,4
47.36,1,2,0,4,14,1,2,2
47.365,4,14,1,2,2,4,0,1
47.37,3,2,4,2,0,4,4,1
47.375,4,4,2,9,19,3,2,3
47.38,5,6,1,9,7,3,6,4
47.385,4,14,0,0,22,3,3,1
47.39,7,6,4,5,10,3,2,4
47.395,2,9,1,7,10,2,2,0
47.4,1,1,6,4,5,2,2,5
47.405,2,1,1,9,22,6,3,1
47.41,3,3,0,1,35,5,3,1
47.415,4,4,1,8,16,0,0,0
47.42,3,2,1,12,26,5,1,0
47.425,3,1,2,2,22,2,0,1
47.43,2,6,4,16,19,7,5,5
47.435,3,3,0,3,20,2,1,2
47.44,5,1,1,6,20,3,2,5
47.445,2,3,4,2,5,4,1,0
47.45,0,0,2,5,21,3,1,2
47.455,2,3,1,8,12,4,2,1
47.46,2,1,0,2,4,1,0,0
47.465,3,5,5,11,13,5,3,1
47.47,1,3,1,3,9,3,1,1
47.475,3,3,4,8,11,1,0,1
47.48,1,1,2,2,8,4,2,2
47.485,1,2,1,3,5,1,2,2
47.49,1,4,0,0,5,2,2,1
47.495,1,4,3,6,8,2,2,3
47.5,1,0,0,1,4,2,3,3
47.505,0,1,2,5,10,0,1,3
47.51,2,4,5,4,13,2,2,1
47.515,2,3,4,20,16,5,2,5
47.52,2,2,3,20,25,5,1,2
47.525,1,11,1,19,30,2,4,0
47.53,4,5,0,5,7,2,0,2
47.535,0,0,1,7,10,3,0,0
47.54,2,0,1,5,6,1,4,2
47.545,1,3,4,2,6,4,0,2
47.55,0,2,4,6,16,0,2,0
47.555,0,3,1,2,1,7,3,2
47.56,1,1,2,6,13,0,1,3
47.565,3,2,1,19,48,3,0,0
47.57,2,1,3,0,4,2,0,1
47.575,1,0,2,4,3,2,0,1
47.58,3,1,3,6,5,1,1,1
47.585,0,1,3,10,13,1,0,1
47.59,0,2,0,2,3,1,3,2
47.595,1,0,0,3,2,2,5,1
47.6,1,1,0,1,9,3,3,0
47.605,1,0,3,1,7,6,2,4
47.61,2,3,3,5,1,5,3,2
47.615,1,2,1,4,5,3,1,0
47.62,0,2,0,11,15,4,1,1
47.625,2,1,1,2,2,3,1,2
47.63,4,2,1,4,7,0,1,2
47.635,3,1,2,3,2,1,3,0
47.64,1,1,2,12,22,2,4,0
47.645,3,4,4,0,4,0,2,3
47.65,2,2,3,0,0,5,1,3
47.655,1,1,2,0,3,2,2,2
47.66,2,1,1,3,8,4,1,0
47.665,0,2,1,14,23,2,2,0
47.67,0,1,2,0,8,4,3,2
47.675,2,3,4,3,8,2,0,1
47.68,0,2,1,8,13,1,1,2
47.685,3,2,3,1,9,0,1,2
47.69,0,4,3,4,4,1,0,3
47.695,0,2,1,0,1,3,1,4
47.7,4,1,1,6,6,2,2,2
47.705,1,1,2,4,16,2,3,3
47.71,1,0,1,2,13,1,2,1
47.715,2,4,1,0,2,2,2,1
47.72,4,0,2,4,12,1,0,0
47.725,3,0,1,4,5,1,3,0
47.73,4,2,1,2,2,2,3,1
47.735,0,2,4,3,2,3,0,3
47.74,1,0,4,3,10,2,1,2
47.745,2,0,4,2,11,1,4,2
47.75,3,2,0,0,6,2,2,1
47.755,1,1,0,5,1,1,0,1
47.76,0,1,1,3,1,0,0,3
47.765,1,0,1,5,10,3,1,1
47.77,2,1,4,3,3,1,2,0
47.775,4,1,1,3,3,0,2,0
47.78,2,1,2,7,13,5,3,4
47.785,1,3,2,9,18,1,2,0
47.79,0,2,2,8,5,0,1,1
47.795,1,1,3,3,2,0,1,0
47.8,1,3,5,5,10,4,3,5
47.805,1,1,2,7,24,5,1,2
47.81,2,4,3,3,7,5,5,2
47.815,0,2,8,5,0,1,3,1
47.82,1,3,1,0,3,0,2,1
47.825,4,0,1,10,8,0,0,1
47.83,1,0,1,11,0,0,1,3
47.835,1,1,1,2,9,2,1,0
47.84,2,2,3,4,23,6,1,2
47.845,3,1,1,8,14,2,1,1
47.85,0,0,2,1,1,1,0,1
47.855,0,3,1,8,8,3,1,0
47.86,1,3,6,9,79,10,6,2
47.865,4,3,1,6,36,2,3,2
47.87,1,2,1,5,6,1,1,1
47.875,5,3,4,27,4,2,2,1
47.88,1,0,2,18,52,1,1,0
47.885,1,3,0,8,38,2,1,1
47.89,1,5,9,1,47,8,1,1
47.895,0,0,2,32,25,1,2,1
47.9,1,2,8,26,8,3,1,1
47.905,2,1,8,28,71,0,3,1
47.91,1,1,3,9,44,3,6,1
47.915,0,1,0,17,128,7,0,0
47.92,3,1,4,21,93,1,3,8
47.925,3,0,2,28,105,12,3,3
47.93,1,2,2,9,42,1,0,0
47.935,0,1,17,27,110,13,1,1
47.94,3,3,5,1,27,6,6,2
47.945,2,2,5,7,127,6,6,1
47.95,2,2,2,4,111,1,3,3
47.955,3,1,7,19,53,4,1,2
47.96,3,3,2,11,39,4,1,0
47.965,2,2,11,11,51,4,5,1
47.97,1,2,10,47,15,22,6,2
47.975,1,2,1,30,50,4,1,4
47.98,2,0,7,55,15,1,4,4
47.985,0,3,1,28,60,6,2,3
47.99,4,2,7,42,69,6,1,4
47.995,11,4,7,3,29,6,5,6
48,1,1,2,22,111,9,2,5
48.005,0,4,5,27,69,4,3,2
48.01,2,4,4,3,69,8,3,2
48.015,2,2,5,6,34,4,2,2
48.02,3,3,1,6,30,7,1,0
48.025,1,4,1,3,16,7,3,1
48.03,5,0,20,33,6,2,1,2
48.035,1,1,1,14,24,4,3,0
48.04,2,2,2,11,37,0,1,1
48.045,3,0,4,19,21,0,2,1
48.05,0,0,1,0,66,6,2,0
48.055,3,0,2,9,57,7,1,1
48.06,2,2,8,5,93,2,1,1
48.065,2,2,3,2,1,1,2,3
48.07,5,6,8,45,103,22,9,8
48.075,3,1,0,38,127,2,3,4
48.08,3,4,4,16,98,11,3,0
48.085,4,5,6,35,101,6,5,1
48.09,1,1,8,23,58,1,1,1
48.095,3,2,4,15,35,4,3,1
48.1,2,5,5,7,2,0,4,1
48.105,3,1,18,7,17,6,2,2
48.11,3,4,3,14,45,2,1,1
48.115,1,1,0,9,5,2,2,1
48.12,1,6,7,3,21,0,1,4
48.125,3,3,5,4,20,4,2,1
48.13,1,2,1,2,14,3,5,1
48.135,1,6,7,4,1,2,1,2
48.14,1,4,4,5,22,5,5,4
48.145,5,4,11,16,67,14,12,8
48.15,1,1,2,10,22,3,1,0
48.155,1,7,2,3,11,3,2,2
48.16,2,1,1,4,29,0,1,3
48.165,3,1,2,8,22,2,3,2
48.17,4,0,1,9,0,3,3,4
48.175,1,3,3,14,26,2,3,1
48.18,4,8,4,2,7,2,0,1
48.185,3,1,0,2,4,3,2,2
48.19,2,1,0,0,3,1,1,1
48.195,1,4,0,2,6,1,2,1
48.2,5,14,0,1,2,1,1,0
48.205,16,6,7,1,4,1,0,1
48.21,2,4,0,2,16,1,0,4
48.215,14,8,6,1,16,10,9,6
48.22,1,5,0,13,16,2,0,1
48.225,7,1,0,4,5,1,5,8
48.23,3,15,4,0,7,5,5,3
48.235,0,22,4,2,3,2,2,1
48.24,3,4,1,0,20,3,0,2
48.245,0,4,0,4,8,2,2,5
48.25,5,7,1,4,13,2,1,1
48.255,8,4,0,8,1,6,4,1
48.26,1,0,6,5,13,3,2,3
48.265,12,2,3,0,10,1,1,2
48.27,2,6,0,3,13,2,4,4
48.275,7,2,4,4,3,1,1,1
48.28,7,3,0,2,12,0,1,0
48.285,8,11,0,1,4,1,0,2
48.29,3,6,7,3,1,1,0,2
48.295,0,4,1,1,11,4,1,2
48.3,3,10,3,9,63,3,0,0
48.305,0,1,5,2,18,5,4,1
48.31,1,2,2,8,26,4,2,1
48.315,2,5,1,2,21,1,2,1
48.32,1,2,1,0,10,1,0,3
48.325,2,0,2,12,54,2,2,1
48.33,0,2,0,12,62,0,3,2
48.335,0,3,4,8,9,3,0,2
48.34,0,2,0,3,36,8,6,4
48.345,1,3,2,7,9,5,2,2
48.35,1,1,1,7,18,1,3,2
48.355,2,2,1,4,20,1,5,2
48.36,3,3,2,4,11,0,3,1
48.365,1,1,0,2,16,2,0,1
48.37,4,2,2,1,10,5,1,2
48.375,2,4,2,8,7,5,3,3
48.38,1,2,0,3,4,2,2,1
48.385,1,2,0,1,0,3,3,0
48.39,1,3,0,5,8,5,1,1
48.395,2,5,0,13,39,0,2,1
48.4,2,5,4,18,68,7,6,4
48.405,1,3,1,2,10,2,1,2
48.41,2,2,0,1,0,4,1,0
48.415,2,4,3,7,16,1,1,0
48.42,2,2,0,2,4,1,2,2
48.425,1,2,3,6,17,3,1,0
48.43,0,2,2,2,17,4,4,0
48.435,2,6,3,12,2,6,7,5
48.44,0,4,5,10,39,2,5,6
48.445,3,1,0,15,7,2,2,1
48.45,0,2,2,11,34,1,1,1
48.455,1,2,0,3,8,2,3,3
48.46,2,0,1,3,10,2,1,0
48.465,1,1,2,0,2,3,1,0
48.47,1,1,1,1,5,2,1,4
48.475,3,2,2,4,13,1,0,0
48.48,0,2,2,2,15,3,2,0
48.485,4,2,1,8,1,1,3,2
48.49,1,1,1,8,10,4,0,1
48.495,3,1,3,7,18,1,1,2
48.5,2,2,3,2,3,0,0,1
48.505,5,2,1,7,20,1,0,2
48.51,1,6,3,3,37,8,3,3
48.515,1,2,0,1,13,0,2,3
48.52,3,6,0,0,7,2,0,1
48.525,2,4,3,1,12,1,2,2
48.53,3,1,1,10,13,1,0,1
48.535,3,0,2,2,10,0,1,0
48.54,1,1,1,7,17,1,3,2
48.545,0,3,5,15,18,3,6,3
48.55,3,1,0,8,72,8,6,6
48.555,0,1,4,3,49,12,6,2
48.56,0,1,4,28,17,2,6,4
48.565,0,2,10,26,16,5,4,5
48.57,4,7,14,21,67,5,9,5
48.575,1,3,6,1,80,2,1,1
48.58,6,7,6,7,36,6,6,6
48.585,1,5,1,30,18,1,15,12
48.59,4,2,9,21,105,7,1,2
48.595,1,1,2,23,15,13,3,2
48.6,0,1,17,40,10,13,2,2
48.605,3,1,0,13,1,13,3,0
48.61,4,5,8,10,45,5,11,4
48.615,3,3,3,5,28,1,1,0
48.62,1,1,5,10,2,0,0,0
48.625,1,1,7,22,93,11,2,5
48.63,1,2,2,22,5,3,3,3
48.635,2,3,3,2,32,9,1,1
48.64,0,1,3,15,0,4,5,6
48.645,2,3,4,11,18,8,1,2
48.65,8,0,7,19,24,6,3,2
48.655,3,5,11,38,31,14,9,6
48.66,1,1,5,5,35,2,1,2
48.665,1,2,7,21,101,7,2,4
48.67,0,0,2,8,42,2,1,1
48.675,2,2,2,6,22,4,0,1
48.68,1,4,2,0,34,0,1,3
48.685,1,2,1,3,36,8,2,3
48.69,11,0,1,12,59,1,3,4
48.695,5,3,3,17,82,13,4,1
48.7,2,4,5,10,9,2,1,0
48.705,0,1,3,2,19,3,4,4
48.71,0,3,3,1,8,1,3,1
48.715,2,1,3,2,12,5,3,2
48.72,2,3,3,3,10,1,1,0
48.725,4,3,3,3,16,2,6,5
48.73,2,3,1,17,58,12,9,7
48.735,3,0,1,1,4,2,3,2
48.74,2,8,6,8,18,3,1,0
48.745,0,0,3,7,28,1,3,2
48.75,2,2,6,6,26,7,3,3
48.755,1,5,4,5,12,0,5,2
48.76,1,0,0,2,21,2,1,1
48.765,2,9,6,9,5,2,2,1
48.77,1,2,1,0,2,1,1,3
48.775,2,2,0,3,38,3,4,0
48.78,2,4,1,2,2,2,2,1
48.785,5,0,1,5,3,2,3,2
48.79,2,0,6,2,4,5,7,4
48.795,3,1,1,1,36,6,2,2
48.8,3,4,1,6,0,1,5,7
48.805,1,1,5,5,1,2,2,1
48.81,2,1,1,4,1,1,1,0
48.815,1,16,2,10,2,2,4,1
48.82,1,10,2,3,3,2,0,0
48.825,1,6,3,6,9,2,1,2
48.83,2,5,0,8,2,0,0,1
48.835,2,3,4,18,15,8,5,2
48.84,3,3,4,8,13,0,3,2
48.845,0,1,3,0,12,4,1,1
48.85,2,1,1,0,4,1,3,1
48.855,6,3,4,9,17,5,2,3
48.86,2,1,1,1,4,1,1,3
48.865,2,1,2,9,0,1,0,2
48.87,4,3,1,3,5,3,1,0
48.875,2,0,0,3,5,0,1,2
48.88,2,0,1,2,2,1,1,4
48.885,2,3,3,1,4,1,2,4
48.89,5,6,1,0,0,1,2,2
48.895,3,2,1,4,0,1,0,1
48.9,1,1,0,6,4,1,1,0
48.905,4,2,5,3,12,1,2,1
48.91,1,4,2,10,19,3,1,4
48.915,0,3,3,7,7,0,4,0
48.92,0,2,4,4,10,0,1,2
48.925,3,0,1,13,11,1,0,1
48.93,2,0,1,3,9,0,0,0
48.935,0,3,0,5,4,1,1,1
48.94,1,1,1,13,12,3,1,2
48.945,3,0,2,8,8,1,0,4
48.95,3,1,1,5,10,2,2,2
48.955,1,3,6,2,3,4,1,0
48.96,4,0,1,3,7,2,1,2
48.965,4,7,0,6,9,1,2,0
48.97,1,0,9,10,29,5,4,0
48.975,2,7,2,13,0,2,3,1
48.98,1,3,1,2,9,4,0,1
48.985,1,1,2,8,10,5,4,4
48.99,1,3,1,4,2,2,1,0
48.995,3,1,1,6,4,0,1,1
49,0,1,2,3,6,3,0,2
49.005,1,0,0,5,10,4,1,0
49.01,2,2,5,0,8,1,0,2
49.015,3,1,4,1,1,3,1,0
49.02,0,0,2,1,0,2,0,3
49.025,3,1,3,6,2,2,1,2
49.03,1,2,1,3,35,7,7,4
49.035,2,2,0,6,8,3,3,0
49.04,2,4,0,5,7,1,0,2
49.045,0,1,0,5,13,4,3,3
49.05,3,2,0,3,7,0,0,3
49.055,3,1,3,2,0,2,1,1
49.06,0,1,1,1,5,3,3,3
49.065,2,1,2,4,5,1,1,3
49.07,2,1,3,4,10,1,2,3
49.075,4,1,2,2,5,4,1,5
49.08,2,3,4,8,8,2,4,2
49.085,2,3,4,5,0,2,4,2
49.09,1,0,1,5,10,1,1,0
49.095,2,5,2,3,1,1,4,2
49.1,0,6,3,0,6,3,1,0
49.105,3,0,1,10,7,2,1,1
49.11,1,1,2,0,6,1,1,1
49.115,1,1,0,5,0,1,1,2
49.12,2,1,2,4,15,2,2,3
49.125,4,1,4,25,42,2,2,2
49.13,4,3,3,10,29,0,1,1
49.135,0,1,2,3,10,3,3,0
49.14,1,0,0,1,1,1,1,0
49.145,2,2,0,5,1,0,2,0
49.15,3,1,3,12,9,0,1,1
49.155,0,2,3,0,23,1,1,0
49.16,2,3,5,14,48,4,6,3
49.165,0,1,0,7,4,4,1,1
49.17,4,1,1,0,2,3,2,2
49.175,4,1,0,5,9,1,1,0
49.18,2,0,0,2,2,0,1,3
49.185,3,6,7,23,15,7,7,5
49.19,0,1,4,3,14,0,2,4
49.195,0,2,1,0,8,0,1,3
49.2,0,1,2,0,40,4,0,2
49.205,1,0,0,5,19,3,3,1
49.21,2,3,0,2,3,2,7,2
49.215,4,4,7,24,24,13,7,5
49.22,2,4,10,53,97,10,7,5
49.225,0,4,8,51,80,11,6,4
49.23,2,8,11,0,46,20,11,7
49.235,5,0,5,21,5,10,3,1
49.24,5,7,18,38,51,28,22,11
49.245,7,8,19,30,35,34,20,13
49.25,1,10,19,18,14,9,7,5
49.255,2,4,4,25,9,6,2,2
49.26,2,7,9,67,81,4,7,3
49.265,1,4,9,7,112,1,8,4
49.27,3,5,3,7,3,13,1,4
49.275,1,3,4,11,22,3,1,2
49.28,5,7,14,40,55,14,11,3
49.285,9,9,0,16,83,22,7,9
49.29,8,11,4,2,21,3,2,1
49.295,0,1,2,24,123,14,9,2
49.3,4,7,6,9,53,2,5,2
49.305,6,4,4,21,2,3,9,9
49.31,2,2,1,1,4,1,4,2
49.315,1,2,10,30,37,10,11,6
49.32,6,8,4,7,68,3,2,2
49.325,1,1,5,2,15,4,3,1
49.33,6,9,10,15,10,9,6,3
49.335,2,4,1,11,26,2,3,3
49.34,0,3,6,33,127,6,2,2
49.345,3,2,2,9,79,7,4,0
49.35,0,9,3,7,74,2,1,3
49.355,1,2,6,16,60,4,6,0
49.36,1,1,2,14,8,2,3,1
49.365,1,2,3,31,8,4,3,3
49.37,3,0,0,34,48,6,1,3
49.375,1,1,6,2,47,4,0,3
49.38,2,3,3,4,79,1,0,0
49.385,2,5,0,17,17,2,1,1
49.39,0,6,3,8,60,12,4,1
49.395,1,4,0,1,56,6,1,2
49.4,2,6,10,32,35,0,1,1
49.405,0,4,8,26,51,3,7,0
49.41,3,7,1,27,87,7,6,1
49.415,1,3,5,14,10,4,1,1
49.42,1,1,0,8,35,3,2,3
49.425,1,0,6,12,33,4,3,1
49.43,3,6,5,17,31,4,2,5
49.435,1,4,8,19,31,3,2,2
49.44,1,6,14,27,61,6,1,1
49.445,1,5,5,3,64,7,10,7
49.45,3,5,4,15,1,4,3,1
49.455,2,2,1,1,44,2,0,1
49.46,4,4,6,9,28,3,3,4
49.465,2,2,2,9,30,2,1,0
49.47,2,2,1,11,21,2,1,1
49.475,1,2,5,6,16,5,6,3
49.48,2,2,2,1,13,0,1,4
49.485,2,1,1,9,13,1,4,1
49.49,1,0,0,5,68,6,1,5
49.495,2,3,5,16,85,4,1,4
49.5,5,7,0,4,77,3,6,3
49.505,2,2,0,4,57,9,2,0
49.51,2,4,9,30,29,3,6,4
49.515,0,8,3,4,5,2,1,0
49.52,2,0,2,8,12,1,0,2
49.525,3,0,5,8,45,4,6,3
49.53,3,5,1,8,3,4,2,1
49.535,1,2,7,7,1,4,2,0
49.54,3,1,1,4,16,2,2,2
49.545,0,2,1,2,9,3,2,0
49.55,0,4,1,5,6,1,0,3
49.555,1,1,0,4,5,1,1,1
49.56,2,6,1,3,16,0,3,1
49.565,3,12,2,2,10,5,0,2
49.57,7,7,1,2,10,5,3,1
49.575,1,2,2,2,2,3,1,0
49.58,3,6,2,0,22,4,4,3
49.585,4,1,2,4,8,1,2,1
49.59,2,2,3,6,1,2,2,1
49.595,2,6,2,4,8,0,2,2
49.6,8,5,3,6,30,6,2,5
49.605,2,1,1,10,1,2,0,1
49.61,6,3,2,13,21,1,0,3
49.615,8,5,1,7,16,0,5,1
49.62,13,5,3,5,35,3,4,1
49.625,1,3,4,10,37,1,5,9
49.63,2,0,3,5,16,0,2,18
49.635,1,6,5,8,9,5,4,11
49.64,4,5,1,2,15,2,1,3
49.645,3,1,1,6,0,3,1,1
49.65,2,3,2,9,12,2,0,7
49.655,3,2,3,4,14,1,1,1
49.66,5,1,2,1,10,1,0,0
49.665,1,2,2,1,2,2,4,4
49.67,14,8,1,5,6,2,2,5
49.675,1,6,0,6,14,1,2,3
49.68,4,0,5,7,10,1,1,7
49.685,9,1,0,3,3,2,3,2
49.69,3,1,3,2,18,1,4,3
49.695,1,4,1,6,4,0,0,0
49.7,1,4,2,0,12,1,3,0
49.705,1,1,1,10,21,1,3,1
49.71,3,3,4,15,36,6,3,1
49.715,0,1,2,5,1,4,1,4
49.72,2,1,1,5,2,0,0,0
49.725,5,5,0,6,4,1,1,3
49.73,1,2,5,6,11,1,2,2
49.735,8,3,1,13,8,2,2,3
49.74,1,5,4,11,23,2,0,2
49.745,1,7,3,4,1,1,2,1
49.75,3,3,1,13,2,3,3,1
49.755,3,0,1,8,7,0,1,1
49.76,2,1,1,3,32,4,0,1
49.765,1,2,1,3,13,2,1,0
49.77,1,0,0,16,29,4,1,1
49.775,7,2,3,4,7,5,1,0
49.78,1,3,1,4,8,0,1,4
49.785,5,3,1,0,2,0,1,0
49.79,1,1,2,10,15,1,0,1
49.795,0,1,1,13,20,3,1,1
49.8,5,1,1,12,8,1,3,1
49.805,2,4,2,6,10,3,1,5
49.81,0,2,3,2,3,0,1,1
49.815,3,4,1,2,10,1,2,0
49.82,1,1,2,2,0,0,2,4
49.825,0,1,3,11,9,1,1,1
49.83,1,2,2,1,16,1,0,1
49.835,2,1,0,18,76,4,1,1
49.84,6,1,11,56,127,1,4,6
49.845,3,6,12,17,21,7,11,7
49.85,1,6,21,37,96,26,17,9
49.855,2,2,3,16,16,2,0,2
49.86,4,1,2,12,61,0,5,2
49.865,2,4,2,10,1,8,1,4
49.87,0,2,3,8,31,3,2,3
49.875,3,1,3,5,55,7,7,2
49.88,2,4,2,1,18,4,1,2
49.885,3,2,1,3,0,7,2,2
49.89,0,0,2,2,12,4,4,0
49.895,4,3,0,1,12,1,1,0
49.9,1,3,4,14,15,1,0,1
49.905,1,10,3,3,35,9,3,2
49.91,1,4,5,4,5,1,1,3
49.915,2,7,2,3,8,5,4,1
49.92,3,0,2,9,27,1,0,2
49.925,2,3,4,3,2,4,2,0
49.93,3,1,2,1,1,0,3,1
49.935,1,3,2,2,40,1,3,1
49.94,0,3,3,8,88,8,5,5
49.945,2,0,2,3,7,0,3,4
49.95,0,3,2,2,11,3,3,0
49.955,1,1,0,5,4,3,1,3
49.96,1,2,2,2,15,7,2,3
49.965,0,2,0,3,3,0,5,2
49.97,1,2,3,0,10,0,3,2
49.975,2,1,4,4,15,1,1,4
49.98,1,1,2,7,20,4,3,1
49.985,2,1,3,20,18,3,1,2
49.99,2,3,4,4,0,2,3,1
49.995,3,5,6,2,2,6,6,7
50,3,3,2,1,35,3,3,3
50.005,3,3,0,2,12,4,1,1
50.01,0,2,1,1,3,0,0,3
50.015,2,0,0,6,6,5,8,2
50.02,1,4,1,3,7,1,1,0
50.025,1,3,2,6,45,1,2,2
50.03,2,2,6,4,39,3,3,2
50.035,1,4,2,1,5,3,2,1
50.04,0,1,2,5,11,5,1,0
50.045,3,2,2,2,30,3,1,3
50.05,2,3,3,15,43,1,1,1
50.055,3,1,4,6,0,3,0,2
50.06,0,1,2,6,8,1,0,1
50.065,1,2,0,5,7,5,5,0
50.07,0,2,1,2,15,6,6,2
50.075,2,8,3,4,11,2,2,4
50.08,2,3,0,0,5,2,2,0
50.085,1,2,3,4,13,3,2,1
50.09,2,0,3,4,2,3,2,4
50.095,4,0,1,0,3,1,1,2
50.1,0,2,1,2,9,2,2,5
50.105,3,1,3,5,12,2,2,0
50.11,2,0,1,2,18,0,1,0
50.115,1,2,0,5,20,0,2,1
50.12,3,1,5,10,46,1,1,1
50.125,3,1,1,4,15,7,6,4
50.13,3,1,1,1,1,2,1,1
50.135,1,4,2,1,10,0,2,0
50.14,1,4,0,1,3,1,1,1
50.145,0,1,0,0,8,0,0,2
50.15,2,1,1,4,13,2,1,2
50.155,1,1,2,0,24,0,2,2
50.16,3,2,6,1,49,8,8,6
50.165,2,2,3,14,10,3,2,2
50.17,0,4,2,3,40,0,2,2
50.175,0,1,2,1,15,0,3,1
50.18,2,3,2,3,24,1,1,0
50.185,0,0,1,0,14,3,1,3
50.19,2,4,2,2,17,4,4,1
50.195,3,3,4,1,4,0,4,2
50.2,2,0,5,0,22,3,0,2
50.205,3,2,1,5,9,2,5,2
50.21,1,4,2,5,2,6,2,1
50.215,1,2,3,5,16,4,2,4
50.22,1,2,5,8,22,5,2,3
50.225,1,0,4,9,0,4,1,0
50.23,4,1,2,3,22,3,1,1
50.235,3,3,2,6,21,2,2,1
50.24,0,1,4,1,18,2,4,4
50.245,0,1,2,2,2,5,3,1
50.25,3,0,1,5,6,1,4,1
50.255,2,3,2,1,3,1,1,2
50.26,4,0,3,2,26,1,0,2
50.265,1,2,5,5,10,4,1,2
50.27,2,0,2,3,11,3,1,1
50.275,1,1,2,14,24,4,3,1
50.28,1,2,3,15,20,2,2,3
50.285,3,4,2,4,10,0,2,4
50.29,2,0,1,1,4,3,0,0
50.295,0,0,1,2,1,2,0,1
50.3,0,4,2,4,14,0,0,1
50.305,1,1,2,2,6,6,0,1
50.31,1,0,3,10,14,3,0,0
50.315,4,2,1,4,9,1,0,1
50.32,4,1,2,4,15,2,1,3
50.325,1,3,1,3,4,1,2,4
50.33,1,1,2,1,6,0,1,2
50.335,1,2,0,5,17,1,1,0
50.34,1,5,1,8,3,2,0,3
50.345,2,1,3,1,2,2,1,2
50.35,1,1,3,10,8,5,2,1
50.355,2,4,0,7,13,0,2,3
50.36,2,5,3,6,7,1,0,1
50.365,0,1,0,2,17,2,1,1
50.37,0,1,0,7,44,4,2,1
50.375,5,1,5,8,9,2,2,1
50.38,0,6,0,5,5,1,2,2
50.385,2,1,1,3,5,1,0,2
50.39,2,3,1,15,28,0,1,4
50.395,1,3,5,3,9,0,0,1
50.4,0,2,3,23,48,2,2,0
50.405,1,3,4,4,38,6,6,4
50.41,2,0,4,13,72,5,3,0
50.415,2,3,3,12,34,1,2,0
50.42,5,1,3,46,87,0,6,2
50.425,2,4,9,56,56,9,4,1
50.43,1,3,2,14,34,1,0,3
50.435,2,0,2,12,12,2,1,1
50.44,5,3,5,7,67,16,6,6
50.445,2,2,6,14,102,16,8,3
50.45,1,1,2,3,33,3,3,1
50.455,1,2,1,2,3,4,1,2
50.46,1,6,5,8,24,1,1,1
50.465,3,0,3,5,13,3,0,0
50.47,0,1,3,8,38,6,5,2
50.475,2,0,3,5,26,2,0,0
50.48,1,0,1,11,12,5,3,1
50.485,4,0,1,5,15,1,0,2
50.49,3,2,0,6,3,4,1,1
50.495,4,2,3,4,1,5,2,1
50.5,3,1,1,5,4,1,2,2
50.505,3,2,4,1,12,6,5,6
50.51,2,2,1,3,2,2,5,3
50.515,0,3,1,2,3,0,4,1
50.52,0,1,1,8,10,0,0,1
50.525,1,2,2,4,6,3,4,2
50.53,1,0,1,1,22,2,1,1
50.535,2,1,1,5,17,3,1,4
50.54,1,2,1,1,4,3,5,4
50.545,2,1,1,5,45,2,1,2
50.55,2,2,1,4,14,3,1,0
50.555,1,7,6,18,69,14,6,1
50.56,1,3,2,6,96,3,2,3
50.565,2,5,8,24,90,16,8,2
50.57,0,3,3,21,48,6,3,0
50.575,1,2,3,8,63,5,9,1
50.58,3,4,10,8,15,7,3,4
50.585,1,2,7,21,77,6,3,3
50.59,2,1,1,8,1,7,4,0
50.595,2,5,2,0,10,7,4,3
50.6,0,0,2,0,17,2,4,2
50.605,0,2,3,18,96,10,5,3
50.61,3,1,5,30,65,6,2,2
50.615,0,4,1,6,107,2,7,1
50.62,0,7,6,16,75,13,13,4
50.625,0,4,4,32,94,4,6,1
50.63,1,1,5,0,70,4,4,3
50.635,0,3,5,10,5,1,5,1
50.64,4,4,2,1,69,9,8,6
50.645,3,2,2,6,84,6,9,2
50.65,4,1,0,46,35,7,13,6
50.655,2,2,9,15,6,0,4,1
50.66,2,5,5,8,51,9,9,0
50.665,4,1,4,21,94,3,12,8
50.67,1,6,5,8,25,23,13,7
50.675,4,0,1,8,49,1,8,3
50.68,2,1,5,0,81,13,1,1
50.685,3,3,6,0,31,3,1,0
50.69,4,4,7,38,62,9,6,4
50.695,1,1,8,26,83,9,3,0
50.7,0,4,5,4,24,4,3,1
50.705,1,0,0,15,47,9,8,2
50.71,2,0,0,4,39,2,4,0
50.715,2,5,8,12,49,6,5,1
50.72,3,3,3,3,36,1,0,1
50.725,5,1,8,8,34,0,2,5
50.73,2,1,1,0,8,2,1,3
50.735,1,3,4,6,45,5,4,3
50.74,3,2,0,2,41,1,5,3
50.745,2,1,5,6,83,1,1,2
50.75,1,2,1,2,13,10,3,3
50.755,1,3,0,9,41,5,9,6
50.76,2,4,1,4,26,1,1,1
50.765,0,0,3,7,19,0,1,2
50.77,4,0,2,2,5,5,0,1
50.775,0,4,1,2,14,2,0,2
50.78,2,1,2,3,20,1,1,4
50.785,3,0,1,10,6,1,1,1
50.79,1,2,0,4,11,1,1,1
50.795,8,17,2,1,2,6,3,1
50.8,3,11,0,2,15,3,3,0
50.805,10,5,1,2,6,2,1,0
50.81,5,9,2,0,8,3,1,0
50.815,1,3,1,1,23,1,1,0
50.82,3,1,3,6,24,4,3,3
50.825,6,5,0,15,22,8,6,4
50.83,2,5,1,5,16,0,1,1
50.835,3,1,2,3,11,1,2,1
50.84,2,1,0,3,5,1,2,0
50.845,4,7,4,0,13,5,4,3
50.85,3,1,4,5,41,2,4,1
50.855,4,7,3,19,65,6,3,3
50.86,1,4,0,1,11,1,2,1
50.865,2,4,5,6,26,3,2,0
50.87,2,5,1,0,4,2,1,5
50.875,2,0,4,9,12,1,1,3
50.88,1,2,2,6,9,6,4,2
50.885,1,3,4,3,3,0,2,2
50.89,0,1,3,4,1,1,3,1
50.895,4,3,3,1,9,2,5,4
50.9,3,2,2,4,15,0,2,1
50.905,1,3,1,12,19,1,1,0
50.91,4,2,4,9,1,1,1,1
50.915,1,0,1,9,12,1,6,3
50.92,1,4,4,16,22,1,0,2
50.925,3,2,2,10,9,2,1,0
50.93,3,2,3,3,12,4,3,0
50.935,1,4,2,15,32,1,0,1
50.94,0,1,2,7,1,1,1,0
50.945,0,2,1,3,2,0,1,3
50.95,1,1,2,8,9,5,1,0
50.955,1,1,0,5,3,1,2,0
50.96,3,3,0,1,4,0,0,2
50.965,2,4,3,8,9,4,0,1
50.97,2,4,1,4,15,0,2,0
50.975,0,0,2,6,9,1,0,2
50.98,2,1,2,1,14,0,1,1
50.985,2,2,3,2,5,0,1,3
50.99,2,2,4,0,2,1,2,1
50.995,2,1,3,8,2,4,0,1
51,1,1,2,0,3,0,1,4
51.005,1,2,2,5,2,7,5,4
51.01,0,1,1,7,15,1,2,1
51.015,2,4,3,0,19,1,4,1
51.02,3,8,0,14,47,5,4,2
51.025,1,0,0,6,4,1,0,1
51.03,3,3,2,0,0,3,3,1
51.035,2,1,0,4,7,4,4,0
51.04,1,2,1,7,1,3,2,2
51.045,1,1,1,2,13,1,1,2
51.05,2,0,0,2,3,1,0,3
51.055,1,0,2,4,8,2,0,0
51.06,2,0,3,1,1,1,2,3
51.065,2,1,0,3,4,1,1,1
51.07,1,0,0,4,10,2,1,2
51.075,1,1,1,2,14,4,1,1
51.08,1,2,1,8,18,6,3,0
51.085,2,2,1,5,0,2,0,0
51.09,0,1,1,3,8,1,2,1
51.095,0,3,0,3,3,2,1,0
51.1,1,2,2,1,2,1,1,1
51.105,0,5,1,4,6,0,2,1
51.11,2,2,1,0,5,6,3,4
51.115,2,4,13,18,80,13,7,6
51.12,1,2,2,4,23,3,0,2
51.125,1,2,6,10,40,9,3,2
51.13,3,3,9,41,40,12,1,1
51.135,7,6,3,35,49,3,12,23
51.14,0,3,3,44,120,30,5,17
51.145,0,4,17,45,82,13,3,20
51.15,1,0,7,1,53,3,5,18
51.155,1,7,17,5,76,8,11,2
51.16,1,3,11,12,38,12,5,16
51.165,1,0,4,1,96,12,3,6
51.17,3,2,4,31,31,15,8,10
51.175,4,1,5,29,67,15,1,6
51.18,3,3,13,17,9,12,3,1
51.185,2,1,3,4,14,20,6,1
51.19,2,3,2,23,60,13,3,8
51.195,4,2,13,27,10,8,13,6
51.2,5,0,2,0,27,8,0,0
51.205,1,1,1,7,22,1,2,3
51.21,0,1,3,13,17,5,2,4
51.215,0,1,2,8,2,3,0,5
51.22,1,0,9,5,78,3,1,0
51.225,2,4,2,9,18,4,5,2
51.23,5,2,3,5,55,2,6,1
51.235,2,5,5,5,31,6,6,5
51.24,0,0,1,5,81,1,0,2
51.245,2,4,8,15,24,8,1,2
51.25,1,2,1,0,67,12,5,2
51.255,3,3,0,6,21,4,5,1
51.26,2,2,1,11,53,2,3,1
51.265,1,5,0,4,18,4,2,2
51.27,4,3,5,16,47,2,4,2
51.275,0,8,3,4,5,3,2,1
51.28,1,3,1,19,2,2,0,0
51.285,0,2,0,3,32,2,1,1
51.29,1,2,3,5,44,4,3,5
51.295,2,2,1,7,16,0,3,3
51.3,6,4,6,22,41,10,6,5
51.305,1,4,1,6,10,4,4,3
51.31,0,0,5,12,7,1,1,0
51.315,3,4,3,9,29,5,4,3
51.32,2,0,0,3,7,2,2,1
51.325,1,3,1,9,27,0,2,0
51.33,2,3,2,4,2,1,2,2
51.335,2,4,2,3,18,1,1,2
51.34,1,0,0,2,11,1,1,0
51.345,1,1,0,2,5,3,2,1
51.35,3,1,1,2,1,1,2,3
51.355,0,2,2,9,7,4,1,0
51.36,1,0,0,10,14,5,0,1
51.365,1,5,4,9,14,1,1,1
51.37,1,1,2,5,9,1,2,1
51.375,1,0,2,3,15,2,2,1
51.38,0,2,1,2,2,2,0,0
51.385,3,2,0,4,12,7,1,2
51.39,1,2,2,4,9,2,1,1
51.395,2,4,4,2,1,2,3,3
51.4,3,0,3,5,1,1,1,0
51.405,1,1,2,3,13,2,0,0
51.41,1,1,0,2,2,1,1,2
51.415,2,1,0,7,22,1,2,2
51.42,2,1,1,5,19,4,0,0
51.425,1,1,0,1,15,2,0,1
51.43,1,3,2,4,9,2,2,3
51.435,1,4,2,0,3,2,0,1
51.44,2,3,0,1,7,2,1,0
51.445,1,0,1,2,8,1,2,5
51.45,1,2,3,5,23,2,3,2
51.455,3,2,0,2,3,1,1,0
51.46,2,2,1,5,13,3,0,1
51.465,1,0,0,3,51,6,4,3
51.47,3,3,1,13,21,2,0,0
51.475,6,3,3,9,63,0,1,3
51.48,2,0,1,6,23,2,3,3
51.485,1,9,16,69,112,28,14,5
51.49,5,4,7,29,10,5,6,0
51.495,1,1,11,45,78,1,5,2
51.5,0,4,2,35,24,6,3,4
51.505,2,3,1,61,116,16,10,1
51.51,6,1,10,64,12,15,4,5
51.515,4,0,1,16,107,10,0,0
51.52,2,2,3,25,76,13,14,7
51.525,2,4,4,33,84,0,8,5
51.53,1,3,6,27,54,8,1,1
51.535,3,1,5,13,26,3,3,3
51.54,1,0,2,9,87,1,9,7
51.545,4,1,5,0,20,1,1,3
51.55,1,0,1,15,46,2,0,0
51.555,4,2,9,11,22,7,6,4
51.56,2,2,1,0,17,7,1,0
51.565,0,1,8,0,100,5,6,1
51.57,1,6,5,3,55,2,2,3
51.575,1,0,2,19,2,2,0,1
51.58,1,3,11,24,39,5,3,2
51.585,7,3,2,28,55,5,3,3
51.59,3,3,2,22,59,11,2,4
51.595,1,1,6,6,14,6,5,3
51.6,1,0,2,3,37,3,0,1
51.605,1,1,1,4,35,2,2,0
51.61,3,2,3,2,4,1,2,0
51.615,3,5,6,19,15,11,3,3
51.62,1,3,1,12,33,4,1,1
51.625,1,4,3,28,36,4,7,3
51.63,3,3,4,14,17,1,0,2
51.635,0,3,3,4,82,7,6,4
51.64,3,3,8,16,66,7,6,1
51.645,1,1,3,10,15,1,4,2
51.65,2,2,4,5,75,8,8,4
51.655,0,5,1,10,18,1,0,1
51.66,0,1,10,19,8,6,1,0
51.665,1,1,0,7,66,4,0,1
51.67,1,2,1,21,40,7,8,2
51.675,0,6,3,7,51,7,5,3
51.68,3,2,2,0,41,2,1,0
51.685,4,3,4,5,68,10,5,4
51.69,1,0,1,3,23,10,5,3
51.695,2,1,3,16,38,0,0,3
51.7,0,2,2,1,47,3,2,3
51.705,2,4,3,4,24,2,5,2
51.71,3,3,7,12,90,3,1,1
51.715,2,1,1,1,37,2,2,3
51.72,2,0,1,4,59,7,2,3
51.725,0,1,1,11,28,2,1,0
51.73,2,3,0,1,26,2,1,2
51.735,4,0,3,31,31,8,3,2
51.74,3,2,1,1,54,2,3,0
51.745,1,2,2,4,13,0,3,4
51.75,1,3,0,3,24,1,4,0
51.755,1,1,1,4,17,5,5,5
51.76,1,2,1,3,12,1,0,1
51.765,1,5,3,11,12,0,1,1
51.77,1,0,3,0,2,2,2,1
51.775,1,3,2,4,15,3,1,0
51.78,0,1,0,6,2,1,2,2
51.785,0,0,0,1,10,5,4,3
51.79,1,10,3,2,8,0,0,4
51.795,0,1,2,2,1,2,0,1
51.8,2,1,3,8,6,4,1,3
51.805,1,1,0,3,6,1,0,3
51.81,3,5,0,1,1,4,2,2
51.815,2,0,2,0,0,4,1,0
51.82,2,1,1,5,7,2,2,1
51.825,3,1,3,3,1,2,4,2
51.83,4,3,0,4,5,1,2,1
51.835,3,1,2,4,2,5,4,1
51.84,2,1,1,8,30,1,1,2
51.845,1,4,4,13,40,5,6,3
51.85,0,1,0,0,17,2,3,0
51.855,2,8,4,4,14,1,1,2
51.86,3,1,1,8,9,0,1,0
51.865,3,1,2,16,39,4,1,0
51.87,1,2,3,14,7,4,0,3
51.875,6,2,0,14,73,7,2,3
51.88,1,3,2,6,2,5,3,1
51.885,3,0,0,3,22,4,1,1
51.89,1,2,1,12,4,0,2,1
51.895,1,1,3,9,27,3,0,3
51.9,3,1,2,9,12,2,1,3
51.905,1,3,1,4,20,2,1,1
51.91,2,1,2,6,8,1,2,2
51.915,0,1,2,6,3,1,1,1
51.92,2,3,4,2,5,3,2,2
51.925,4,0,1,2,19,3,2,1
51.93,1,1,1,5,9,3,5,6
51.935,0,1,3,4,8,1,1,2
51.94,0,1,2,10,2,7,3,2
51.945,1,1,2,3,18,4,0,2
51.95,2,4,1,0,5,0,0,1
51.955,0,1,2,2,1,1,1,1
51.96,1,4,5,0,11,1,0,1
51.965,3,1,1,3,5,3,2,1
51.97,2,0,1,8,2,6,1,3
51.975,0,1,0,8,44,6,0,3
51.98,1,1,3,2,6,2,1,3
51.985,2,3,4,16,20,0,2,2
51.99,0,1,3,10,4,1,0,1
51.995,1,1,1,2,0,2,1,1
52,3,2,0,0,14,1,1,2
52.005,1,5,3,15,20,0,1,1
52.01,0,3,5,34,70,7,7,1
52.015,2,4,1,1,15,0,1,4
52.02,0,1,1,3,8,1,4,1
52.025,1,2,1,2,3,1,0,2
52.03,1,1,1,2,11,1,0,1
52.035,1,2,0,1,3,0,2,1
52.04,2,1,1,3,7,1,0,3
52.045,4,1,2,2,4,1,3,1
52.05,0,3,1,1,13,4,1,2
52.055,0,0,2,2,9,1,0,1
52.06,2,1,6,14,11,2,1,5
52.065,2,0,2,12,37,4,5,3
52.07,0,1,1,3,3,1,3,2
52.075,3,0,3,5,5,5,1,2
52.08,2,0,1,2,4,0,1,0
52.085,1,2,1,0,19,1,1,0
52.09,1,3,1,3,0,3,1,3
52.095,1,0,2,1,9,5,1,1
52.1,5,1,0,14,9,2,2,1
52.105,1,3,5,14,3,4,3,1
52.11,1,4,5,2,37,2,2,1
52.115,1,0,6,20,2,4,0,0
52.12,3,2,1,7,0,1,2,0
52.125,2,2,1,10,17,0,1,1
52.13,3,1,1,3,3,3,1,0
52.135,0,1,3,4,1,1,1,1
52.14,1,0,1,5,7,3,1,1
52.145,2,1,2,6,4,4,2,1
52.15,0,1,2,12,22,1,2,0
52.155,3,4,4,19,29,2,2,1
52.16,0,3,1,6,37,3,2,1
52.165,2,2,1,10,83,3,0,1
52.17,3,2,3,8,13,1,2,3
52.175,2,1,0,6,13,1,3,3
52.18,3,4,3,15,18,4,4,3
52.185,1,2,2,3,29,2,2,0
52.19,2,2,0,2,23,1,0,1
52.195,2,1,5,1,19,6,8,5
52.2,1,0,1,5,18,1,1,1
52.205,2,1,0,2,13,2,2,2
52.21,2,2,1,8,13,1,4,1
52.215,3,1,0,11,26,4,3,0
52.22,1,3,1,5,20,5,2,2
52.225,2,4,2,5,0,5,2,2
52.23,2,1,0,1,13,1,2,0
52.235,1,2,2,3,18,2,1,0
52.24,2,2,3,8,26,3,5,3
52.245,2,3,0,4,14,2,1,1
52.25,0,2,1,8,55,3,1,0
52.255,1,1,2,15,77,4,1,3
52.26,3,3,2,1,16,2,0,1
52.265,1,0,3,4,9,2,1,1
52.27,1,3,1,2,20,0,1,1
52.275,1,0,2,22,11,1,0,1
52.28,0,2,2,9,26,6,1,3
52.285,1,0,2,18,20,10,3,0
52.29,0,2,2,4,29,4,3,3
52.295,3,10,3,6,77,7,3,0
52.3,1,2,6,14,44,15,3,3
52.305,5,0,3,28,40,9,0,4
52.31,0,5,7,26,2,5,10,0
52.315,7,4,9,29,113,21,23,7
52.32,11,12,14,30,105,38,25,12
52.325,7,2,2,23,78,2,5,3
52.33,5,2,1,17,7,8,5,2
52.335,0,2,1,45,12,4,14,4
52.34,8,5,3,0,59,20,21,12
52.345,9,7,19,9,42,20,13,8
52.35,3,0,13,4,47,3,1,2
52.355,1,3,7,4,11,1,3,3
52.36,6,2,10,32,60,5,0,3
52.365,7,9,17,48,43,26,6,5
52.37,1,4,5,3,92,11,11,1
52.375,1,5,17,16,40,10,16,6
52.38,1,2,25,6,89,14,8,1
52.385,6,9,15,17,59,2,5,4
52.39,4,8,20,49,98,6,6,1
52.395,12,10,36,82,36,20,9,9
52.4,2,3,13,80,127,11,0,0
52.405,12,1,9,6,10,14,1,1
52.41,3,8,9,12,20,9,6,1
52.415,2,8,23,7,112,7,5,2
52.42,2,2,9,5,19,1,3,3
52.425,1,2,7,27,81,14,10,6
52.43,1,1,4,13,24,4,1,3
52.435,1,0,5,10,22,0,1,3
52.44,3,0,1,1,70,4,5,2
52.445,1,0,0,6,10,2,1,0
52.45,1,1,3,0,58,4,0,2
52.455,0,4,1,16,72,6,6,3
52.46,1,1,2,6,9,1,1,1
52.465,3,2,3,3,4,2,2,4
52.47,4,5,3,7,30,2,2,0
52.475,3,2,2,7,19,0,0,1
52.48,0,2,2,4,0,4,1,1
52.485,1,1,1,2,8,3,2,0
52.49,5,2,2,3,28,3,0,4
52.495,1,0,2,2,19,2,1,1
52.5,1,1,1,1,16,1,1,1
52.505,5,3,1,8,7,6,4,2
52.51,2,4,1,5,13,0,3,1
52.515,2,1,4,5,12,2,0,2
52.52,1,2,1,3,4,1,1,1
52.525,1,3,5,16,27,4,3,2
52.53,3,3,3,5,8,3,0,0
52.535,2,0,3,14,17,4,4,1
52.54,1,3,0,20,6,1,1,1
52.545,3,3,0,5,17,0,0,0
52.55,1,1,0,9,15,1,3,1
52.555,2,1,4,7,13,1,4,6
52.56,2,1,4,1,12,3,1,5
52.565,0,1,2,2,5,0,1,0
52.57,2,1,3,0,9,5,4,0
52.575,2,1,1,4,4,0,0,1
52.58,2,0,4,2,7,3,0,1
52.585,4,1,2,7,3,1,2,1
52.59,0,4,2,6,11,3,2,1
52.595,1,2,1,0,10,0,3,0
52.6,4,3,2,15,19,2,2,4
52.605,1,2,1,5,19,6,6,1
52.61,3,2,2,1,10,4,2,3
52.615,1,1,1,6,1,4,3,2
52.62,3,2,2,0,14,5,2,0
52.625,0,1,1,3,11,2,1,3
52.63,0,1,2,2,18,1,1,2
52.635,1,2,4,0,21,1,0,2
52.64,2,0,3,9,27,4,2,0
52.645,0,6,2,9,38,1,3,1
52.65,0,1,4,2,5,2,2,2
52.655,3,1,0,3,10,0,1,0
52.66,0,2,1,6,7,2,1,1
52.665,1,1,1,4,16,0,5,3
52.67,2,0,1,9,19,6,2,2
52.675,3,1,1,3,15,2,1,0
52.68,1,2,3,3,38,0,0,1
52.685,3,2,1,14,7,8,0,1
52.69,5,5,9,20,5,2,5,5
52.695,6,6,5,3,34,19,4,9
52.7,3,3,5,18,15,4,9,2
52.705,3,3,11,8,1,13,8,5
52.71,3,2,2,16,64,3,3,0
52.715,0,3,0,19,51,5,6,0
52.72,1,3,7,25,20,11,5,5
52.725,1,3,17,36,1,5,1,2
52.73,0,6,0,32,35,1,1,0
52.735,1,2,5,22,13,4,4,3
52.74,1,1,9,0,28,8,3,1
52.745,3,1,1,45,93,3,3,3
52.75,1,2,5,33,52,12,8,1
52.755,1,2,4,16,10,0,1,0
52.76,3,4,5,17,18,3,1,2
52.765,3,1,4,11,26,3,2,1
52.77,3,1,2,9,40,0,4,0
52.775,2,2,2,3,14,0,0,3
52.78,2,2,1,0,9,2,1,1
52.785,4,2,4,18,58,10,1,2
52.79,6,6,1,33,93,3,3,6
52.795,1,2,2,22,13,0,2,0
52.8,1,2,6,27,33,6,2,1
52.805,2,0,0,5,12,6,5,1
52.81,5,2,2,2,7,1,2,1
52.815,5,2,2,6,6,5,4,1
52.82,2,4,1,5,28,2,4,2
52.825,1,2,2,11,4,6,0,2
52.83,1,3,1,13,5,1,1,2
52.835,1,3,1,5,6,2,0,1
52.84,2,0,4,5,7,3,2,3
52.845,1,5,2,6,11,0,0,3
52.85,4,0,3,28,64,3,3,3
52.855,3,4,2,7,24,2,6,4
52.86,2,0,3,5,16,2,0,2
52.865,1,2,1,3,16,6,3,3
52.87,0,1,3,3,41,5,3,4
52.875,1,0,2,3,14,1,1,1
52.88,4,4,2,2,10,3,4,1
52.885,0,1,1,0,11,3,0,2
52.89,4,2,4,13,22,2,2,1
52.895,2,5,11,48,90,14,7,5
52.9,2,7,1,6,4,0,1,1
52.905,1,0,3,2,23,5,3,2
52.91,2,2,4,12,8,4,4,3
52.915,0,2,0,12,12,1,1,3
52.92,1,0,3,11,7,6,4,2
52.925,4,2,0,6,37,1,2,0
52.93,1,1,2,13,23,4,4,0
52.935,2,2,1,6,8,4,3,3
52.94,2,1,3,3,22,0,2,1
52.945,1,4,1,4,29,1,4,3
52.95,3,1,1,4,9,3,1,2
52.955,5,2,2,4,36,2,0,2
52.96,0,0,2,4,9,2,1,3
52.965,2,1,0,3,5,4,1,0
52.97,0,3,0,0,4,1,1,0
52.975,1,0,0,2,17,2,2,1
52.98,2,0,2,4,1,5,1,2
52.985,4,3,4,5,7,2,1,2
52.99,0,2,1,6,11,1,2,2
52.995,1,1,0,3,26,2,0,2
53,4,2,3,0,41,5,4,4
53.005,2,1,0,1,17,3,2,1
53.01,2,2,3,5,39,11,7,6
53.015,4,0,1,6,7,2,4,0
53.02,1,2,3,6,32,2,1,1
53.025,1,1,3,8,36,7,1,2
53.03,2,1,2,1,13,5,4,1
53.035,2,2,3,1,36,5,3,1
53.04,2,0,2,3,3,3,3,1
53.045,3,2,3,3,9,5,0,2
53.05,6,1,2,2,3,2,0,0
53.055,2,4,1,8,3,2,1,2
53.06,0,2,0,1,21,3,2,0
53.065,1,1,1,7,65,1,3,2
53.07,2,3,7,13,67,5,2,1
53.075,6,5,1,5,7,1,2,1
53.08,3,7,0,5,10,1,1,1
53.085,0,2,2,3,17,1,0,1
53.09,2,3,2,0,28,1,2,3
53.095,2,0,2,3,21,8,4,1
53.1,1,5,2,3,15,1,0,2
53.105,2,1,1,7,13,2,3,1
53.11,1,3,3,2,2,0,1,2
53.115,3,4,3,7,3,0,2,0
53.12,3,3,2,3,8,2,4,4
53.125,1,0,1,3,24,1,0,1
53.13,2,1,0,3,11,2,1,2
53.135,5,0,1,2,8,0,4,3
53.14,2,3,4,4,27,3,0,2
53.145,4,3,4,15,4,1,3,4
53.15,1,2,1,5,1,4,1,3
53.155,1,1,1,18,38,4,4,1
53.16,4,4,5,22,26,7,4,4
53.165,0,2,1,3,45,2,0,1
53.17,4,1,2,2,38,3,3,0
53.175,1,2,2,1,7,0,0,1
53.18,0,0,1,4,8,3,1,3
53.185,0,1,4,1,7,2,2,3
53.19,2,1,1,3,12,3,2,1
53.195,2,6,3,8,13,2,1,0
53.2,8,4,2,0,23,4,2,1
53.205,0,5,4,10,15,6,5,1
53.21,0,1,1,0,4,3,1,1
53.215,6,2,4,7,3,0,3,1
53.22,1,2,1,7,3,0,1,2
53.225,2,4,1,0,3,3,1,2
53.23,3,0,2,2,7,5,1,1
53.235,2,2,0,6,1,3,1,2
53.24,3,4,5,14,1,4,4,4
53.245,4,1,1,4,12,3,1,0
53.25,1,2,4,2,12,0,2,2
53.255,1,3,2,0,4,2,0,1
53.26,2,1,1,3,22,3,1,2
53.265,0,3,3,1,37,7,5,2
53.27,3,1,0,1,6,2,0,0
53.275,0,2,1,4,4,5,4,1
53.28,1,1,0,1,4,1,2,1
53.285,0,0,1,7,19,4,2,0
53.29,3,2,2,5,23,1,1,2
53.295,1,2,5,4,38,2,2,1
53.3,1,2,2,7,26,4,5,5
53.305,2,0,1,3,7,0,5,1
53.31,0,1,1,3,1,2,1,3
53.315,2,2,0,3,25,4,3,1
53.32,0,1,4,13,19,5,1,0
53.325,3,1,1,5,5,2,1,2
53.33,2,2,4,8,3,3,6,2
53.335,0,4,1,5,23,2,3,0
53.34,4,1,2,6,17,0,2,0
53.345,0,3,1,10,9,1,1,1
53.35,0,1,3,11,10,1,2,0
53.355,4,3,5,14,28,3,0,2
53.36,1,3,3,23,37,0,0,1
