42.005,2,2,1,0,1,1,1,2
42.01,1,1,1,1,3,1,2,1
42.015,1,0,0,0,2,1,2,1
42.02,2,2,3,1,1,0,0,0
42.025,3,2,3,1,0,2,2,0
42.03,1,1,3,0,1,2,1,2
42.035,0,0,1,2,2,1,0,3
42.04,2,1,1,2,3,2,0,0
42.045,1,0,1,1,1,1,2,1
42.05,1,3,1,0,1,1,0,1
42.055,2,0,2,1,2,1,2,1
42.06,1,2,0,2,0,2,1,0
42.065,0,1,1,1,3,0,0,1
42.07,0,2,1,1,1,2,1,1
42.075,0,1,1,1,1,1,0,1
42.08,2,3,1,1,1,1,1,2
42.085,1,1,2,2,1,0,1,1
42.09,0,3,2,1,0,0,2,0
42.095,1,0,1,0,2,0,1,0
42.1,1,2,0,3,2,1,0,0
42.105,2,4,2,0,1,1,1,2
42.11,1,0,1,1,2,1,0,2
42.115,2,1,2,0,1,2,1,0
42.12,2,1,2,1,1,0,1,1
42.125,4,2,0,2,1,1,0,3
42.13,1,2,1,0,1,1,2,2
42.135,0,2,1,1,2,0,1,1
42.14,0,2,2,1,1,0,0,2
42.145,1,1,1,1,1,0,1,0
42.15,2,1,0,0,1,1,1,2
42.155,0,1,0,1,1,1,2,0
42.16,2,1,0,2,1,1,0,0
42.165,0,1,1,1,1,1,1,1
42.17,3,2,2,1,1,2,0,2
42.175,1,1,2,1,1,2,0,1
42.18,0,1,3,1,1,0,3,0
42.185,0,1,1,2,1,1,1,1
42.19,0,0,1,2,2,0,1,0
42.195,0,0,1,4,0,2,0,2
42.2,1,2,1,1,1,3,1,2
42.205,0,6,1,1,0,1,2,1
42.21,0,0,1,0,1,2,2,2
42.215,1,0,1,0,2,1,1,1
42.22,1,2,2,1,2,1,1,1
42.225,0,1,1,3,2,3,1,1
42.23,3,0,1,1,1,1,0,1
42.235,1,1,2,0,0,1,2,1
42.24,1,1,1,0,1,4,1,1
42.245,1,1,1,0,1,0,2,2
42.25,0,1,1,1,1,1,2,0
42.255,1,1,0,2,1,0,1,1
42.26,1,3,0,4,2,0,0,0
42.265,2,1,0,2,1,2,1,1
42.27,1,2,1,1,3,3,2,2
42.275,1,2,1,0,2,1,1,1
42.28,2,1,2,1,1,1,2,3
42.285,1,1,2,2,2,1,1,0
42.29,1,0,0,0,2,2,0,1
42.295,2,2,2,0,0,0,1,1
42.3,2,2,1,0,1,2,2,2
42.305,2,10,2,2,0,2,1,1
42.31,1,1,1,2,1,2,0,1
42.315,1,1,1,3,2,2,1,2
42.32,0,1,2,0,1,1,2,3
42.325,1,3,0,0,2,1,1,1
42.33,0,2,1,2,1,3,3,1
42.335,1,3,3,2,1,2,1,0
42.34,3,2,1,1,2,0,1,1
42.345,1,2,4,1,0,1,3,2
42.35,0,3,1,1,2,1,3,0
42.355,1,1,1,1,2,2,0,1
42.36,1,0,2,2,0,1,0,1
42.365,2,1,1,1,1,2,2,0
42.37,0,2,1,1,1,1,1,1
42.375,1,1,2,0,1,1,0,1
42.38,2,3,1,3,0,1,1,1
42.385,2,0,3,0,1,2,0,1
42.39,2,1,2,1,0,2,1,1
42.395,1,2,1,1,1,3,1,1
42.4,2,2,2,1,1,1,0,1
42.405,0,0,1,1,0,1,1,1
42.41,2,6,1,1,2,0,0,2
42.415,2,7,2,1,2,3,2,1
42.42,2,2,2,1,3,1,2,2
42.425,1,0,1,0,2,0,1,1
42.43,1,1,2,1,0,1,1,4
42.435,1,3,0,1,1,1,1,3
42.44,1,0,1,2,1,1,0,3
42.445,1,0,1,2,1,2,2,1
42.45,1,3,2,1,2,1,0,1
42.455,1,2,0,1,1,1,1,0
42.46,1,1,1,2,2,1,1,0
42.465,1,2,0,1,0,1,1,1
42.47,0,4,2,1,1,0,2,1
42.475,1,1,0,1,1,1,3,2
42.48,1,0,0,2,2,1,0,1
42.485,1,3,1,2,3,1,1,1
42.49,1,2,1,2,0,1,2,1
42.495,0,2,2,1,1,1,1,1
42.5,0,3,1,1,1,3,1,0
42.505,0,0,1,0,2,2,2,0
42.51,1,2,2,2,2,3,1,1
42.515,3,0,1,2,1,1,0,0
42.52,3,0,1,1,1,1,2,1
42.525,0,2,2,2,0,1,3,2
42.53,1,3,0,0,0,3,2,1
42.535,1,0,1,1,2,1,1,1
42.54,1,2,1,1,3,1,2,1
42.545,2,0,1,1,1,1,2,0
42.55,2,1,1,2,0,0,0,1
42.555,1,1,2,1,2,1,0,2
42.56,1,0,3,2,1,0,0,2
42.565,1,1,1,0,0,0,1,2
42.57,1,6,2,2,2,0,0,0
42.575,3,6,1,1,0,1,0,1
42.58,0,0,2,0,3,2,2,2
42.585,1,1,3,0,1,1,1,2
42.59,2,1,1,2,1,0,2,0
42.595,1,1,1,2,1,0,1,0
42.6,0,1,1,2,1,2,0,0
42.605,0,0,1,3,1,1,2,0
42.61,1,3,2,1,0,1,1,1
42.615,0,2,0,2,1,1,0,0
42.62,0,2,1,1,1,1,1,0
42.625,1,1,1,1,2,1,0,1
42.63,2,3,1,1,0,1,1,1
42.635,1,1,1,0,1,0,1,1
42.64,0,1,1,1,0,1,1,2
42.645,1,1,0,2,4,3,0,0
42.65,3,4,0,0,2,0,2,0
42.655,1,1,1,1,2,1,1,1
42.66,1,1,0,0,3,2,1,0
42.665,1,2,0,2,1,0,0,0
42.67,1,0,0,1,2,1,0,0
42.675,3,2,0,1,2,2,2,1
42.68,1,1,1,0,1,1,3,3
42.685,3,1,2,2,0,2,2,1
42.69,1,2,1,1,2,2,2,0
42.695,0,1,1,2,1,5,0,0
42.7,1,2,0,2,2,2,2,2
42.705,3,3,1,1,3,13,2,2
42.71,1,1,0,0,2,12,2,1
42.715,1,2,3,1,3,11,2,1
42.72,2,1,1,1,1,14,0,1
42.725,1,3,1,0,0,10,3,3
42.73,1,2,1,0,2,2,0,2
42.735,2,0,3,2,1,3,2,1
42.74,2,2,1,1,5,3,1,0
42.745,1,1,3,1,2,7,7,2
42.75,1,1,1,0,1,4,3,2
42.755,1,1,1,5,4,5,7,5
42.76,2,2,2,5,1,7,2,2
42.765,3,3,3,5,9,7,9,3
42.77,1,2,0,1,8,30,6,2
42.775,2,1,0,2,5,25,1,0
42.78,2,1,2,2,28,8,1,4
42.785,2,4,6,0,7,9,2,4
42.79,2,0,3,8,6,14,2,2
42.795,1,2,1,12,6,21,4,1
42.8,1,0,1,12,10,4,1,2
42.805,1,2,1,13,53,5,1,2
42.81,2,2,2,3,22,8,6,2
42.815,1,2,2,8,17,7,6,0
42.82,0,0,0,14,35,3,6,3
42.825,0,0,0,2,14,4,3,2
42.83,2,3,4,20,2,1,4,4
42.835,1,1,3,8,2,7,4,3
42.84,3,3,1,49,54,4,8,2
42.845,2,2,2,27,43,4,1,1
42.85,1,4,4,8,6,2,0,2
42.855,1,1,1,10,24,12,6,1
42.86,1,1,4,16,3,8,1,3
42.865,0,1,3,8,13,2,2,1
42.87,0,0,1,7,10,7,0,1
42.875,1,3,2,13,17,1,2,3
42.88,2,2,1,6,22,6,0,1
42.885,1,0,0,4,9,0,3,1
42.89,1,1,1,5,9,4,5,3
42.895,1,1,3,4,18,10,2,2
42.9,2,2,3,10,11,2,2,2
42.905,1,2,1,7,12,2,0,1
42.91,2,1,1,4,5,4,1,0
42.915,1,2,2,7,7,6,0,3
42.92,2,3,5,10,25,12,1,3
42.925,0,1,1,2,5,6,4,3
42.93,0,1,0,5,6,2,5,2
42.935,0,0,0,12,13,1,0,3
42.94,0,0,1,17,32,0,3,0
42.945,0,1,1,5,3,5,2,0
42.95,0,1,1,10,14,11,4,2
42.955,0,1,2,5,50,13,5,3
42.96,1,4,1,40,56,4,0,4
42.965,4,2,3,10,26,6,4,5
42.97,1,0,5,29,62,2,1,2
42.975,1,2,0,24,13,8,3,1
42.98,1,3,3,21,31,4,2,2
42.985,3,2,6,6,10,0,3,0
42.99,1,1,2,42,10,0,2,1
42.995,4,4,2,5,28,11,3,3
43,1,1,2,62,51,12,2,2
43.005,4,5,3,69,99,8,4,3
43.01,2,1,2,12,2,3,3,2
43.015,1,0,4,40,90,3,2,1
43.02,2,4,0,14,54,4,3,2
43.025,1,1,1,34,9,2,0,1
43.03,4,6,13,69,67,5,0,3
43.035,1,0,1,24,46,1,1,1
43.04,1,2,4,11,3,8,1,2
43.045,1,1,4,4,7,7,1,2
43.05,1,2,3,29,61,2,1,0
43.055,1,1,1,23,44,1,3,1
43.06,1,0,0,9,24,0,3,3
43.065,6,3,7,28,24,7,5,4
43.07,0,3,4,17,18,6,3,8
43.075,0,0,1,7,49,1,0,13
43.08,3,2,4,2,43,6,1,2
43.085,2,2,4,13,7,1,1,3
43.09,4,0,0,35,63,1,1,5
43.095,6,9,2,43,25,2,3,3
43.1,1,2,1,2,11,1,1,1
43.105,0,2,3,31,19,1,0,1
43.11,3,3,2,23,10,1,0,1
43.115,1,2,3,13,27,2,3,8
43.12,1,0,1,10,5,2,1,2
43.125,0,2,3,32,64,3,2,3
43.13,0,1,8,39,63,1,2,1
43.135,1,1,9,4,49,5,5,2
43.14,2,0,1,18,29,4,2,10
43.145,1,0,1,15,27,0,3,10
43.15,2,0,1,4,13,1,3,5
43.155,1,0,0,2,15,5,2,1
43.16,0,1,2,7,28,3,2,2
43.165,1,1,5,36,69,3,3,14
43.17,10,4,2,25,7,5,6,18
43.175,3,1,3,5,11,2,0,11
43.18,2,1,1,30,30,7,5,11
43.185,2,2,2,8,20,2,1,17
43.19,8,1,4,21,58,2,6,6
43.195,1,1,1,0,19,1,0,3
43.2,4,1,1,0,14,3,1,7
43.205,2,0,0,5,5,2,3,11
43.21,4,2,1,2,4,2,2,7
43.215,1,1,4,2,10,0,1,6
43.22,0,3,4,6,36,1,5,7
43.225,2,2,4,25,69,7,6,5
43.23,2,1,1,21,11,7,4,1
43.235,0,0,3,12,40,1,2,2
43.24,2,5,7,31,77,11,4,0
43.245,0,1,2,3,42,0,3,1
43.25,0,1,2,3,5,3,2,2
43.255,1,4,1,15,2,2,2,4
43.26,0,0,0,1,6,1,0,2
43.265,3,2,2,9,7,2,2,2
43.27,0,1,0,7,5,2,1,6
43.275,5,2,2,17,58,10,6,2
43.28,3,1,0,1,17,1,2,8
43.285,2,1,1,7,9,1,3,3
43.29,6,2,3,11,48,0,3,1
43.295,1,1,4,5,27,4,0,0
43.3,0,2,1,12,9,2,0,3
43.305,2,1,1,7,26,3,3,1
43.31,1,2,4,9,1,1,1,4
43.315,0,1,2,2,14,8,1,1
43.32,0,2,1,1,7,15,3,1
43.325,0,1,1,14,17,7,3,4
43.33,0,0,3,1,1,5,3,3
43.335,1,1,1,5,25,2,1,2
43.34,1,2,1,9,27,6,3,4
43.345,2,2,1,1,18,1,0,2
43.35,1,3,4,14,26,2,2,3
43.355,1,1,1,6,28,2,1,4
43.36,3,0,0,3,6,1,0,2
43.365,0,1,2,3,4,1,1,2
43.37,5,2,2,4,25,3,1,3
43.375,3,4,2,14,30,2,0,20
43.38,9,5,1,4,2,0,2,30
43.385,5,1,1,4,3,0,0,1
43.39,0,1,2,7,29,2,1,0
43.395,2,1,2,10,10,3,0,9
43.4,1,1,3,11,11,2,1,12
43.405,2,2,2,1,5,1,2,4
43.41,2,1,1,6,19,2,1,6
43.415,0,1,0,10,3,1,2,4
43.42,1,0,1,1,37,3,2,4
43.425,0,4,2,22,55,1,2,3
43.43,1,2,5,9,15,2,2,0
43.435,2,4,0,16,6,3,1,4
43.44,0,1,1,24,7,4,0,2
43.445,4,0,4,7,22,5,4,6
43.45,3,3,1,5,46,6,1,2
43.455,3,2,0,7,24,2,5,6
43.46,1,2,5,9,35,3,2,4
43.465,0,1,2,3,22,4,2,0
43.47,1,0,2,22,43,1,0,0
43.475,1,3,6,31,51,6,0,0
43.48,1,1,1,6,15,1,0,6
43.485,1,1,1,2,12,2,2,2
43.49,3,1,5,10,4,3,4,1
43.495,1,0,2,2,0,1,2,2
43.5,1,2,4,8,19,0,2,1
43.505,0,1,1,3,29,0,0,0
43.51,2,0,1,7,40,3,0,1
43.515,0,0,0,4,17,2,1,1
43.52,1,3,2,17,37,3,0,3
43.525,1,3,3,13,24,4,2,5
43.53,0,1,4,23,40,3,1,3
43.535,3,5,7,56,25,6,1,1
43.54,0,1,0,6,17,4,2,1
43.545,1,0,2,18,29,1,1,0
43.55,2,0,2,8,4,3,0,4
43.555,4,0,3,11,35,1,0,0
43.56,2,2,2,5,9,5,4,1
43.565,2,1,0,8,10,1,3,2
43.57,1,2,1,1,19,0,1,3
43.575,1,2,3,18,23,3,1,2
43.58,2,1,2,1,3,5,1,4
43.585,1,1,0,19,1,2,3,2
43.59,3,2,2,5,28,2,1,1
43.595,0,1,2,4,15,1,1,2
43.6,0,1,1,9,16,0,1,1
43.605,0,2,1,7,21,1,1,0
43.61,2,2,0,2,3,1,2,4
43.615,0,2,2,1,23,1,1,1
43.62,1,1,0,4,5,0,0,2
43.625,1,2,1,2,4,2,1,1
43.63,0,1,2,11,2,3,1,4
43.635,1,0,2,1,9,1,1,0
43.64,1,1,2,6,13,4,1,0
43.645,1,1,1,7,1,4,1,0
43.65,1,2,2,7,13,3,2,0
43.655,1,2,2,9,22,1,1,2
43.66,1,1,2,8,10,1,2,2
43.665,2,0,2,9,12,4,2,2
43.67,1,0,1,0,59,4,4,1
43.675,2,3,3,0,78,4,0,2
43.68,2,0,2,3,11,1,2,2
43.685,3,1,2,30,26,0,0,3
43.69,1,1,3,8,19,1,1,2
43.695,2,10,1,6,29,1,2,0
43.7,3,3,2,17,32,2,2,1
43.705,2,1,2,3,33,0,0,2
43.71,2,2,1,10,42,2,1,1
43.715,1,1,1,2,22,2,2,2
43.72,1,0,0,8,39,2,2,1
43.725,0,1,1,27,5,2,0,0
43.73,1,2,3,17,11,3,3,3
43.735,1,2,1,4,35,1,1,4
43.74,2,3,1,3,41,0,1,2
43.745,1,1,2,8,3,2,1,0
43.75,2,5,2,8,17,2,2,2
43.755,3,1,3,3,10,0,1,1
43.76,0,0,2,8,22,2,1,1
43.765,0,6,2,8,4,2,2,0
43.77,4,9,1,5,9,1,2,9
43.775,1,1,4,23,2,1,0,6
43.78,0,1,1,3,10,4,3,4
43.785,2,2,0,32,3,0,2,17
43.79,7,1,2,8,6,4,5,29
43.795,3,2,2,2,5,2,3,29
43.8,7,6,2,2,20,0,1,14
43.805,2,14,2,5,12,7,5,9
43.81,1,8,1,6,24,1,1,9
43.815,12,2,3,24,36,1,1,5
43.82,14,32,1,2,36,6,0,1
43.825,16,16,9,10,26,3,0,22
43.83,4,15,2,6,15,4,2,4
43.835,15,9,0,11,23,3,14,51
43.84,31,8,8,1,11,1,4,21
43.845,15,81,19,0,8,5,6,19
43.85,80,43,10,13,16,2,1,56
43.855,48,67,4,10,10,3,2,14
43.86,0,63,2,0,8,3,4,15
43.865,6,32,14,7,10,3,6,35
43.87,36,88,11,13,28,8,10,2
43.875,68,18,6,2,7,6,9,80
43.88,21,97,9,5,5,2,8,4
43.885,65,72,16,7,12,5,0,51
43.89,13,29,24,16,18,10,13,72
43.895,66,53,7,3,4,5,5,26
43.9,82,113,27,8,8,3,1,3
43.905,61,93,21,7,5,1,5,6
43.91,83,27,13,7,5,2,1,51
43.915,6,65,15,11,4,3,2,25
43.92,113,18,21,18,21,1,3,23
43.925,36,68,33,9,0,0,0,0
43.93,27,27,7,1,5,0,6,42
43.935,27,84,25,5,14,2,9,2
43.94,30,12,7,4,6,1,13,64
43.945,27,19,24,13,4,5,16,52
43.95,35,31,14,2,0,6,1,25
43.955,32,34,3,7,8,5,6,87
43.96,15,70,20,3,6,0,1,60
43.965,6,8,1,3,2,7,10,74
43.97,42,8,1,3,1,2,6,11
43.975,9,108,2,4,4,2,4,9
43.98,11,72,19,21,39,3,2,5
43.985,20,7,7,34,57,7,8,8
43.99,20,4,6,13,24,2,2,11
43.995,49,4,1,15,8,2,0,14
44,61,33,3,14,12,5,8,59
44.005,41,9,12,14,28,2,1,22
44.01,47,7,4,17,40,4,2,16
44.015,27,20,0,16,8,2,3,4
44.02,28,26,10,3,10,1,0,36
44.025,34,18,5,5,23,6,12,16
44.03,2,33,2,32,43,5,6,29
44.035,14,38,1,8,8,1,2,12
44.04,20,11,3,4,4,1,3,5
44.045,12,2,2,14,19,1,3,30
44.05,42,36,14,15,17,5,4,2
44.055,29,61,9,6,22,3,5,1
44.06,11,42,4,3,18,2,3,19
44.065,91,18,15,2,18,3,5,21
44.07,19,35,0,20,34,3,4,31
44.075,15,8,6,4,3,2,6,20
44.08,37,34,14,1,1,1,2,7
44.085,1,28,22,16,11,0,2,15
44.09,39,57,5,9,7,5,1,47
44.095,30,9,0,1,6,1,3,24
44.1,22,21,9,3,11,3,1,17
44.105,10,13,12,12,8,2,1,5
44.11,22,8,5,0,0,2,0,1
44.115,16,10,4,7,3,2,0,22
44.12,6,28,7,6,5,3,1,1
44.125,16,14,8,6,6,0,1,8
44.13,3,7,3,17,37,2,1,5
44.135,2,14,0,21,19,1,3,12
44.14,1,1,2,29,27,4,3,2
44.145,5,22,3,15,4,0,1,1
44.15,6,1,5,14,18,2,0,4
44.155,3,3,2,7,10,0,0,1
44.16,1,2,1,5,0,0,3,3
44.165,4,3,0,20,26,1,2,3
44.17,5,10,5,43,55,5,3,5
44.175,1,2,1,20,9,2,3,12
44.18,4,1,3,26,12,2,3,1
44.185,8,2,4,12,12,4,3,1
44.19,7,1,0,37,56,1,0,4
44.195,2,0,1,11,11,0,2,3
44.2,2,3,5,31,6,2,4,5
44.205,5,9,2,20,23,3,2,2
44.21,1,1,0,6,19,0,1,2
44.215,3,2,3,1,11,1,4,4
44.22,4,10,8,48,50,2,5,1
44.225,3,4,1,18,46,1,2,0
44.23,3,4,5,15,110,5,1,1
44.235,2,3,3,12,32,3,1,4
44.24,3,1,2,19,16,2,6,4
44.245,1,2,3,17,26,5,1,4
44.25,3,4,8,18,80,14,1,4
44.255,2,6,10,21,69,6,9,2
44.26,2,1,0,19,45,14,4,4
44.265,2,2,2,10,6,1,4,4
44.27,3,3,1,70,51,6,1,3
44.275,2,3,4,47,48,5,1,0
44.28,0,2,5,1,46,2,5,1
44.285,5,3,2,0,89,4,1,1
44.29,2,1,2,8,26,2,0,0
44.295,1,4,10,10,90,1,5,3
44.3,3,2,5,10,32,18,4,5
44.305,1,4,7,20,53,7,4,2
44.31,4,3,4,76,57,7,5,4
44.315,2,0,0,22,23,2,1,2
44.32,4,3,4,1,15,9,1,3
44.325,2,1,2,50,34,13,2,1
44.33,1,2,1,9,108,1,0,1
44.335,1,1,0,5,78,3,1,1
44.34,3,1,8,70,115,4,1,2
44.345,1,3,3,29,54,12,3,1
44.35,2,0,2,6,49,3,2,3
44.355,3,5,4,26,42,7,7,4
44.36,1,0,3,29,4,8,4,0
44.365,1,1,4,53,44,3,2,2
44.37,2,2,5,53,6,0,0,2
44.375,6,4,5,54,4,7,7,6
44.38,2,1,2,42,31,7,2,0
44.385,2,3,2,5,52,6,2,3
44.39,1,2,1,30,36,1,1,0
44.395,4,3,2,33,59,2,1,4
44.4,1,3,3,25,8,6,2,3
44.405,3,1,3,0,40,2,3,15
44.41,3,2,3,11,50,2,2,25
44.415,1,1,2,8,36,2,0,4
44.42,5,2,2,13,63,4,3,19
44.425,4,2,3,13,52,8,2,12
44.43,4,5,0,9,20,2,5,39
44.435,1,7,2,8,34,2,4,48
44.44,0,2,4,1,68,3,1,1
44.445,2,0,1,4,34,1,1,4
44.45,2,0,3,16,10,2,6,9
44.455,4,1,2,21,5,1,3,13
44.46,3,0,0,10,37,7,2,1
44.465,1,2,0,1,12,1,1,5
44.47,7,4,1,13,27,4,2,2
44.475,1,2,4,16,6,3,2,11
44.48,0,1,1,18,68,1,2,11
44.485,2,2,2,2,37,1,4,9
44.49,2,2,4,28,36,3,1,5
44.495,3,1,7,41,90,5,3,8
44.5,1,3,1,19,85,1,0,1
44.505,0,2,4,1,60,1,1,2
44.51,0,1,0,21,5,4,1,4
44.515,2,0,0,14,10,4,4,7
44.52,2,2,1,31,18,3,1,1
44.525,0,0,1,11,8,0,2,3
44.53,1,5,2,31,25,1,1,9
44.535,1,1,0,0,64,1,3,7
44.54,3,2,2,9,15,4,1,7
44.545,2,3,3,3,20,1,1,3
44.55,5,2,4,3,8,3,4,4
44.555,0,5,1,3,16,1,2,4
44.56,2,5,1,3,44,1,1,3
44.565,0,1,2,4,36,0,1,2
44.57,1,2,3,34,16,2,3,3
44.575,0,1,2,2,16,5,3,1
44.58,2,1,0,3,85,2,4,2
44.585,3,2,3,1,76,0,0,6
44.59,2,0,1,38,7,2,2,2
44.595,0,2,2,6,18,1,1,2
44.6,2,3,6,5,65,3,2,3
44.605,2,3,1,7,34,4,4,4
44.61,0,4,8,44,13,4,2,2
44.615,0,1,2,25,37,1,1,3
44.62,1,1,1,3,26,0,2,7
44.625,6,1,1,12,15,4,0,10
44.63,4,1,3,27,31,4,3,9
44.635,2,1,3,6,1,1,4,29
44.64,4,2,3,1,14,0,5,28
44.645,4,4,1,2,32,0,1,2
44.65,3,5,2,20,22,0,5,25
44.655,4,3,1,22,57,2,3,41
44.66,3,2,3,1,17,3,7,29
44.665,17,3,0,4,2,1,1,4
44.67,19,1,1,8,8,2,3,14
44.675,7,0,1,13,33,1,1,30
44.68,24,16,5,1,9,2,2,23
44.685,8,9,2,2,10,4,6,18
44.69,16,7,0,10,28,2,2,2
44.695,68,10,4,11,1,2,3,10
44.7,20,27,2,1,12,1,0,4
44.705,12,20,7,2,27,1,0,37
44.71,34,4,1,14,65,5,0,21
44.715,2,33,2,13,29,2,3,60
44.72,1,37,1,8,12,1,5,73
44.725,13,103,13,15,8,6,11,6
44.73,34,15,18,6,0,8,15,47
44.735,80,20,4,7,20,0,2,29
44.74,41,50,0,9,17,2,5,34
44.745,45,41,9,7,9,2,8,13
44.75,38,87,7,12,8,3,13,76
44.755,79,84,8,2,8,2,3,8
44.76,2,83,16,12,14,3,10,0
44.765,72,75,11,5,3,4,16,90
44.77,12,2,7,6,14,3,4,27
44.775,2,9,0,5,11,1,0,15
44.78,42,22,6,2,7,1,7,45
44.785,63,19,1,0,2,2,3,24
44.79,8,59,5,5,14,3,5,48
44.795,40,40,3,1,10,3,9,13
44.8,53,23,1,6,8,0,2,2
44.805,31,8,6,2,5,1,5,25
44.81,7,25,7,16,36,1,7,25
44.815,7,8,1,21,36,5,1,18
44.82,23,23,11,2,14,3,4,24
44.825,5,2,4,2,1,2,1,9
44.83,13,6,6,1,4,1,3,16
44.835,14,4,4,3,14,1,2,21
44.84,12,2,2,4,2,1,1,8
44.845,1,1,1,6,7,3,4,2
44.85,9,16,2,8,14,3,7,10
44.855,17,10,2,8,11,2,2,0
44.86,12,15,2,3,10,3,4,0
44.865,5,1,4,13,21,1,2,6
44.87,17,0,4,5,11,2,1,3
44.875,10,2,2,14,27,1,1,10
44.88,19,8,0,29,33,6,3,10
44.885,25,1,0,3,4,1,1,10
44.89,4,3,4,4,5,0,2,8
44.895,14,6,0,2,21,0,4,22
44.9,7,7,1,11,14,0,1,8
44.905,1,2,4,15,23,4,1,10
44.91,16,9,0,9,2,2,1,4
44.915,37,0,1,4,4,2,2,9
44.92,17,0,1,7,7,2,4,10
44.925,11,3,2,4,3,1,0,10
44.93,15,2,13,0,3,1,2,3
44.935,15,3,6,9,11,2,1,4
44.94,2,24,2,4,7,1,0,1
44.945,0,12,2,4,7,2,0,4
44.95,10,4,6,2,7,3,2,4
44.955,13,7,4,2,3,2,0,4
44.96,1,11,1,4,7,2,2,1
44.965,10,3,2,7,8,2,0,3
44.97,1,2,0,2,1,4,0,1
44.975,14,0,3,6,6,1,0,4
44.98,1,11,2,4,2,1,0,0
44.985,6,5,5,3,2,2,1,1
44.99,5,2,1,16,21,2,2,2
44.995,8,1,3,27,53,6,0,1
45,1,1,2,7,4,0,2,1
45.005,2,3,3,10,15,1,1,1
45.01,0,4,0,14,13,6,2,2
45.015,4,1,4,20,11,3,4,3
45.02,1,0,1,9,13,4,2,3
45.025,1,4,2,7,6,4,1,1
45.03,2,3,3,19,31,5,5,3
45.035,4,0,3,22,40,4,8,5
45.04,3,0,6,47,56,4,5,2
45.045,3,1,2,15,15,4,2,2
45.05,1,1,5,5,11,8,6,3
45.055,6,2,0,10,42,1,4,0
45.06,1,0,4,29,55,3,3,1
45.065,1,5,6,82,64,3,0,0
45.07,1,1,3,9,33,1,1,1
45.075,3,1,1,2,44,6,4,1
45.08,1,2,6,38,58,2,2,0
45.085,1,2,5,4,68,9,5,1
45.09,1,2,3,11,33,1,3,2
45.095,1,2,1,50,69,1,4,1
45.1,2,1,1,31,92,1,2,1
45.105,0,1,5,8,9,0,0,1
45.11,5,9,9,1,22,8,10,5
45.115,1,3,6,19,12,11,5,1
45.12,0,1,8,6,15,6,2,0
45.125,5,5,10,13,9,6,5,5
45.13,2,4,5,34,101,13,1,4
45.135,3,2,4,46,115,1,5,1
45.14,0,0,1,16,100,0,0,0
45.145,2,1,1,6,12,4,1,1
45.15,0,1,1,6,10,11,0,1
45.155,4,3,10,16,84,18,6,3
45.16,4,1,1,22,82,1,2,4
45.165,1,2,2,52,82,1,0,0
45.17,2,4,7,29,15,5,6,4
45.175,4,5,11,69,128,12,4,4
45.18,0,0,1,17,44,4,2,1
45.185,0,3,5,56,85,12,9,3
45.19,1,0,0,11,9,7,9,3
45.195,2,1,3,27,66,7,3,0
45.2,1,1,1,15,8,8,3,2
45.205,3,2,3,8,12,15,3,1
45.21,1,2,5,20,10,1,5,1
45.215,3,1,1,15,45,9,2,3
45.22,0,2,7,20,4,1,3,1
45.225,0,2,5,38,108,13,0,1
45.23,1,3,7,68,51,12,0,1
45.235,1,2,3,12,42,1,0,2
45.24,4,3,3,21,16,8,7,3
45.245,2,4,5,4,46,3,3,2
45.25,2,1,1,20,7,1,1,3
45.255,2,3,5,3,0,2,2,1
45.26,1,2,0,17,23,0,3,1
45.265,1,1,3,12,81,7,3,2
45.27,1,1,5,18,74,3,2,1
45.275,0,0,4,23,39,4,2,3
45.28,2,2,5,18,26,1,5,4
45.285,2,0,1,13,3,6,1,3
45.29,4,1,0,6,35,1,2,15
45.295,8,2,0,3,1,1,7,13
45.3,3,2,1,25,14,4,1,9
45.305,5,2,5,28,65,1,4,1
45.31,1,1,2,34,64,3,2,0
45.315,1,2,2,2,1,2,4,10
45.32,5,2,1,6,10,5,2,4
45.325,2,5,3,1,21,5,3,9
45.33,1,8,2,24,32,9,2,2
45.335,2,1,3,3,36,7,4,2
45.34,1,1,1,15,22,2,3,1
45.345,3,0,3,12,1,7,3,12
45.35,4,0,1,9,28,1,1,2
45.355,5,1,0,9,15,2,0,3
45.36,4,2,0,4,19,2,2,4
45.365,0,4,0,2,13,5,1,1
45.37,2,1,6,32,50,3,1,3
45.375,0,2,0,5,4,1,0,1
45.38,2,1,2,8,28,0,1,1
45.385,4,3,2,2,3,1,1,1
45.39,3,2,2,4,5,5,4,3
45.395,1,2,2,11,0,2,0,0
45.4,2,0,4,15,17,1,2,2
45.405,0,4,3,9,25,3,3,3
45.41,3,2,0,18,38,3,3,4
45.415,2,5,4,3,26,3,0,6
45.42,3,2,1,13,4,1,3,6
45.425,1,0,1,6,9,4,2,5
45.43,1,2,2,19,16,4,1,4
45.435,1,2,1,17,68,3,3,1
45.44,9,3,2,9,37,1,1,7
45.445,3,1,0,1,19,2,1,6
45.45,1,1,1,11,19,2,1,2
45.455,1,1,1,9,15,1,0,0
45.46,2,0,2,8,26,2,0,0
45.465,3,3,2,9,36,5,1,0
45.47,3,0,3,12,46,2,3,3
45.475,1,2,3,3,6,2,2,3
45.48,2,1,0,1,32,2,1,0
45.485,0,1,1,1,6,0,0,5
45.49,2,1,3,14,9,0,2,1
45.495,1,1,2,17,12,1,3,5
45.5,0,1,1,4,14,0,2,1
45.505,1,0,3,16,4,4,1,2
45.51,2,2,5,14,11,4,2,2
45.515,4,2,1,7,14,4,5,1
45.52,0,1,2,3,10,0,0,1
45.525,2,0,2,2,3,1,1,2
45.53,1,2,0,15,29,1,1,1
45.535,2,9,2,19,35,0,0,6
45.54,0,2,4,33,47,2,1,0
45.545,2,0,2,12,24,0,2,4
45.55,22,1,1,5,8,0,1,19
45.555,16,1,2,4,5,3,1,8
45.56,8,1,0,6,10,1,4,37
45.565,21,2,2,6,4,1,4,12
45.57,1,1,1,1,6,4,2,3
45.575,24,2,4,8,7,4,1,31
45.58,33,1,3,2,8,1,0,48
45.585,38,0,1,12,7,1,0,13
45.59,17,3,2,18,12,2,4,5
45.595,28,2,0,7,3,0,1,5
45.6,21,0,3,1,9,4,7,35
45.605,2,35,1,3,7,2,4,5
45.61,7,20,4,1,19,0,1,22
45.615,2,3,3,0,29,0,2,5
45.62,10,10,5,1,1,2,3,33
45.625,24,16,2,2,6,0,2,23
45.63,27,32,1,1,3,0,2,12
45.635,14,39,5,2,7,3,2,3
45.64,18,13,2,4,2,0,2,19
45.645,10,21,2,5,5,0,3,12
45.65,27,19,1,6,8,5,7,24
45.655,4,24,9,6,8,3,1,9
45.66,63,11,4,1,5,2,3,8
45.665,44,1,9,6,4,5,5,9
45.67,23,50,4,3,2,0,2,0
45.675,43,41,4,3,6,0,1,20
45.68,35,39,6,1,4,1,2,16
45.685,43,12,2,4,2,1,0,6
45.69,33,29,1,3,4,3,2,4
45.695,43,7,1,1,2,0,0,8
45.7,38,1,5,0,0,1,3,17
45.705,13,10,2,2,3,2,3,4
45.71,5,8,4,2,3,0,1,4
45.715,8,35,5,1,2,3,2,5
45.72,11,16,0,1,2,1,4,5
45.725,10,8,3,2,0,3,5,1
45.73,15,4,2,1,1,1,3,1
45.735,4,1,2,1,2,1,2,3
45.74,15,3,8,0,2,0,1,1
45.745,6,10,1,0,2,1,1,0
45.75,7,11,3,1,1,1,0,0
45.755,14,9,2,1,1,2,3,2
45.76,1,10,2,1,0,2,3,5
45.765,16,10,1,1,0,1,0,3
45.77,4,3,1,1,2,2,1,4
45.775,4,10,1,2,1,0,1,4
45.78,4,6,0,2,0,3,0,2
45.785,1,3,6,0,1,0,4,1
45.79,4,6,1,1,0,2,1,0
45.795,4,1,1,2,2,4,3,3
45.8,1,5,1,1,0,0,2,1
45.805,8,9,2,2,2,3,2,3
45.81,5,1,2,2,2,2,1,3
45.815,0,12,2,2,1,2,2,1
45.82,13,7,1,2,1,1,4,1
45.825,6,3,1,3,2,2,1,0
45.83,6,1,1,0,0,1,1,2
45.835,6,1,3,1,2,3,4,3
45.84,6,7,2,5,2,2,2,3
45.845,5,9,1,1,1,1,0,1
45.85,1,25,1,0,0,1,1,0
45.855,2,4,2,5,4,1,0,1
45.86,4,11,1,2,2,1,1,3
45.865,5,6,1,0,0,3,3,4
45.87,1,7,0,2,1,2,0,2
45.875,1,2,3,2,0,1,1,1
45.88,3,10,1,1,1,1,0,2
45.885,8,1,1,3,2,3,2,4
45.89,5,0,1,2,1,2,2,1
45.895,1,1,2,2,1,1,0,1
45.9,1,6,1,1,2,1,1,0
45.905,4,6,2,1,1,1,0,3
45.91,0,5,2,2,1,1,4,0
45.915,1,2,4,5,1,1,0,3
45.92,7,0,0,2,0,2,0,2
45.925,3,5,0,5,6,2,1,1
45.93,1,4,1,7,6,2,1,0
45.935,1,2,1,14,10,1,0,1
45.94,2,3,0,3,2,1,1,2
45.945,5,3,4,14,41,10,6,3
45.95,1,3,1,15,54,7,3,1
45.955,1,2,2,7,57,12,7,1
45.96,0,1,6,26,14,7,7,4
45.965,1,2,1,7,6,4,5,1
45.97,2,2,0,3,2,1,2,2
45.975,4,4,4,15,9,6,6,2
45.98,3,2,3,36,14,5,1,0
45.985,0,3,8,81,22,3,6,3
45.99,1,0,1,1,25,5,1,5
45.995,1,1,2,4,32,13,3,3
46,0,2,0,3,47,4,7,2
46.005,3,1,3,45,46,3,5,2
46.01,0,0,3,25,55,2,6,2
46.015,1,4,4,13,38,4,6,1
46.02,1,0,1,26,3,4,0,0
46.025,2,2,0,14,19,4,3,0
46.03,0,3,2,3,6,10,8,3
46.035,0,0,2,13,34,1,2,3
46.04,0,1,4,5,65,9,1,0
46.045,2,4,10,62,46,12,2,1
46.05,7,4,8,28,7,10,10,8
46.055,2,3,4,32,46,12,1,1
46.06,0,0,0,4,68,7,5,3
46.065,4,3,1,23,14,5,8,5
46.07,1,0,3,27,29,4,6,1
46.075,0,0,3,4,48,3,8,1
46.08,0,1,2,0,2,4,4,3
46.085,1,2,2,16,21,5,3,0
46.09,3,2,7,69,52,1,0,2
46.095,1,0,8,49,90,2,5,2
46.1,2,2,5,24,67,11,6,2
46.105,3,0,1,29,48,13,7,5
46.11,1,1,0,5,35,3,7,4
46.115,3,3,5,6,27,1,1,3
46.12,4,7,17,10,8,11,9,7
46.125,3,4,2,45,86,5,7,6
46.13,0,1,1,12,35,3,6,4
46.135,3,0,4,40,16,4,3,1
46.14,0,1,0,10,25,6,1,1
46.145,3,3,5,26,69,6,3,3
46.15,0,2,7,6,107,0,3,1
46.155,4,3,4,17,17,9,6,3
46.16,4,4,3,2,79,4,4,3
46.165,1,1,2,38,89,5,1,0
46.17,2,1,6,41,19,4,0,1
46.175,1,2,4,12,10,3,0,2
46.18,3,1,4,24,5,8,4,3
46.185,1,0,3,38,50,3,1,0
46.19,1,1,2,37,95,7,0,1
46.195,3,4,13,85,51,6,5,2
46.2,1,2,7,34,57,2,1,0
46.205,1,0,2,31,44,1,1,1
46.21,2,3,4,30,84,9,3,2
46.215,3,1,2,0,44,2,2,3
46.22,0,0,7,73,63,4,1,2
46.225,0,2,0,24,80,0,1,0
46.23,1,0,4,11,10,6,2,1
46.235,2,3,0,13,49,0,0,2
46.24,3,5,0,5,45,5,3,2
46.245,1,2,1,36,26,1,2,0
46.25,4,0,1,9,2,0,1,1
46.255,1,3,1,20,35,0,2,2
46.26,2,2,1,0,14,4,2,2
46.265,1,4,9,32,12,2,0,3
46.27,6,5,0,14,41,1,3,3
46.275,0,3,0,2,4,3,3,0
46.28,0,5,1,10,10,0,1,2
46.285,0,2,2,1,45,6,2,1
46.29,2,2,1,6,16,1,2,1
46.295,2,2,5,19,27,4,1,4
46.3,1,2,2,5,23,2,1,2
46.305,1,1,3,14,11,1,0,0
46.31,3,1,0,15,59,4,1,1
46.315,2,0,2,35,4,0,2,2
46.32,2,8,7,44,34,9,4,2
46.325,1,0,3,4,14,0,2,1
46.33,2,2,3,24,28,1,1,2
46.335,0,1,2,10,32,0,0,2
46.34,2,1,0,13,48,3,1,2
46.345,3,2,3,9,22,3,3,1
46.35,1,3,4,8,9,3,2,4
46.355,1,0,0,8,51,0,0,1
46.36,2,1,1,8,47,4,0,1
46.365,1,2,3,30,39,0,1,1
46.37,0,1,2,47,34,2,5,2
46.375,0,1,1,14,36,0,0,0
46.38,1,1,1,21,73,1,1,2
46.385,2,2,3,36,30,4,0,1
46.39,1,1,3,14,11,2,0,1
46.395,1,2,3,8,32,2,1,1
46.4,3,1,0,15,39,1,0,1
46.405,0,0,0,13,15,1,1,1
46.41,1,1,2,23,45,2,1,2
46.415,1,3,0,3,20,2,0,2
46.42,0,1,2,17,4,2,0,1
46.425,2,2,2,13,22,6,2,0
46.43,1,1,2,19,33,0,1,2
46.435,0,2,3,6,5,0,2,2
46.44,0,1,1,18,7,1,1,4
46.445,1,1,1,11,30,1,0,4
46.45,1,3,0,11,33,1,0,2
46.455,2,1,1,14,1,1,2,2
46.46,2,2,2,13,3,1,0,1
46.465,2,1,0,19,13,0,1,4
46.47,7,4,1,1,9,2,4,6
46.475,1,3,2,4,6,1,1,7
46.48,1,2,1,0,5,1,3,8
46.485,3,1,1,19,17,1,2,2
46.49,8,4,2,16,3,4,0,4
46.495,8,11,3,2,10,2,4,6
46.5,1,42,2,6,13,3,4,33
46.505,13,43,6,2,7,3,0,28
46.51,0,5,9,7,0,0,1,2
46.515,10,21,4,5,3,0,1,9
46.52,63,2,5,7,20,0,7,28
46.525,7,7,1,8,16,2,7,18
46.53,20,10,8,5,4,0,4,13
46.535,35,29,0,1,0,2,10,22
46.54,14,56,6,7,2,0,2,8
46.545,14,9,15,7,11,5,4,3
46.55,24,2,6,4,5,0,0,4
46.555,29,33,9,1,0,1,6,14
46.56,50,2,1,2,4,2,4,33
46.565,21,64,22,5,2,1,0,43
46.57,20,104,7,5,11,1,1,3
46.575,55,57,2,3,4,2,4,1
46.58,66,44,1,1,0,0,1,5
46.585,43,44,17,2,1,5,6,21
46.59,34,13,8,1,1,1,1,2
46.595,12,37,18,3,1,1,1,11
46.6,16,37,14,10,6,2,4,10
46.605,52,28,11,2,2,1,2,27
46.61,80,12,11,5,1,0,2,43
46.615,8,34,24,10,4,2,1,16
46.62,37,2,2,6,5,2,0,8
46.625,1,18,6,1,4,1,3,0
46.63,17,12,12,10,7,5,4,5
46.635,0,74,1,1,6,3,4,2
46.64,8,31,6,4,4,2,3,11
46.645,8,30,2,6,4,1,2,0
46.65,1,8,2,1,3,1,5,10
46.655,0,19,5,6,5,3,2,2
46.66,48,6,5,6,4,1,0,5
46.665,49,7,6,9,16,2,1,0
46.67,24,37,7,6,1,2,1,6
46.675,25,2,1,0,2,0,1,1
46.68,15,72,0,9,9,0,0,7
46.685,13,81,10,4,11,2,4,9
46.69,23,27,8,1,0,0,1,1
46.695,2,48,12,5,3,1,2,5
46.7,36,56,23,5,5,3,2,5
46.705,44,40,10,6,12,0,4,1
46.71,48,10,2,11,12,0,1,8
46.715,15,14,11,3,1,2,4,9
46.72,9,48,15,5,4,2,1,6
46.725,1,7,3,5,5,0,3,2
46.73,2,67,10,14,22,0,1,2
46.735,44,11,2,53,46,5,3,9
46.74,25,57,0,1,6,2,5,2
46.745,7,34,4,7,5,1,2,4
46.75,9,82,0,3,3,2,3,6
46.755,7,7,2,9,11,2,1,2
46.76,25,40,1,5,6,5,3,6
46.765,20,20,13,5,2,1,1,2
46.77,8,0,8,2,6,2,4,3
46.775,32,10,1,5,6,1,1,2
46.78,31,24,5,7,8,3,0,4
46.785,26,12,4,3,3,2,1,3
46.79,17,17,5,5,3,0,3,0
46.795,7,18,10,3,2,0,1,2
46.8,15,12,10,2,4,1,1,2
46.805,0,11,2,2,0,2,1,5
46.81,7,19,2,3,2,1,1,1
46.815,3,9,5,5,2,3,2,4
46.82,8,11,4,7,2,0,0,0
46.825,5,16,1,16,19,0,2,3
46.83,13,8,4,7,2,1,5,0
46.835,8,8,2,3,13,8,2,3
46.84,5,31,0,8,3,3,1,3
46.845,1,7,2,2,21,3,2,2
46.85,5,10,1,7,21,0,0,0
46.855,4,6,2,8,41,4,1,1
46.86,3,2,6,32,67,10,3,2
46.865,1,5,2,17,18,2,4,2
46.87,0,14,0,5,38,5,1,3
46.875,2,0,2,29,3,1,1,1
46.88,1,0,6,19,3,5,4,1
46.885,5,1,7,8,16,9,2,4
46.89,3,1,1,36,9,0,0,1
46.895,2,5,2,18,96,7,1,0
46.9,3,6,3,10,73,12,5,4
46.905,1,0,2,27,31,5,4,1
46.91,2,3,2,5,29,2,1,1
46.915,0,1,4,15,33,17,8,0
46.92,2,2,1,12,9,5,6,6
46.925,1,0,3,22,30,6,3,0
46.93,1,1,2,20,8,2,3,0
46.935,2,1,2,37,19,8,10,1
46.94,1,2,3,12,52,18,8,5
46.945,2,1,8,47,95,13,5,1
46.95,4,3,13,22,126,18,5,7
46.955,0,0,4,50,81,3,0,4
46.96,1,2,5,40,25,5,4,1
46.965,3,1,2,12,15,1,4,2
46.97,3,3,4,10,50,12,2,1
46.975,2,0,1,49,104,1,1,2
46.98,0,1,3,54,110,7,1,1
46.985,4,0,1,8,35,20,9,4
46.99,1,1,1,48,24,21,6,3
46.995,4,5,11,82,118,24,5,2
47,2,3,7,13,82,6,4,3
47.005,1,2,0,10,101,1,3,3
47.01,0,0,2,9,92,6,6,1
47.015,1,2,0,20,58,12,8,3
47.02,2,6,9,48,43,9,2,4
47.025,1,1,4,37,11,7,4,1
47.03,2,2,4,52,50,10,5,2
47.035,1,1,6,6,77,11,1,1
47.04,2,1,4,1,57,4,4,1
47.045,2,6,14,44,11,6,2,3
47.05,1,1,4,18,5,2,1,2
47.055,0,1,5,14,90,0,5,0
47.06,1,2,9,12,98,13,2,2
47.065,2,1,4,37,27,0,4,2
47.07,1,1,1,17,52,18,5,1
47.075,4,5,13,54,62,20,1,6
47.08,2,1,3,28,38,10,2,1
47.085,3,4,11,70,88,23,7,6
47.09,0,0,1,10,26,3,1,1
47.095,1,2,1,4,29,3,4,3
47.1,1,1,2,14,97,13,1,2
47.105,0,2,3,62,51,10,4,1
47.11,2,1,10,58,66,12,5,2
47.115,1,3,2,19,23,3,1,0
47.12,1,1,0,12,47,1,1,1
47.125,1,0,4,31,75,8,1,1
47.13,0,0,1,5,31,7,1,0
47.135,2,1,1,1,21,0,1,1
47.14,0,0,1,19,16,1,1,0
47.145,0,2,1,21,38,11,6,5
47.15,0,4,6,37,115,8,1,2
47.155,2,1,2,15,15,3,0,0
47.16,1,1,3,5,73,6,2,0
47.165,0,0,1,0,8,5,1,2
47.17,2,0,0,12,30,0,2,3
47.175,1,1,2,3,27,1,0,2
47.18,1,1,3,17,29,1,3,1
47.185,1,1,2,4,4,0,0,4
47.19,1,1,1,5,13,6,2,4
47.195,1,2,2,5,31,1,4,6
47.2,1,1,0,13,66,2,3,2
47.205,4,2,3,12,26,6,3,1
47.21,2,2,2,3,10,4,5,4
47.215,3,2,3,19,13,3,1,0
47.22,1,1,1,7,24,1,1,1
47.225,1,1,1,16,15,1,0,8
47.23,5,0,4,0,6,5,1,0
47.235,1,1,1,5,8,5,2,5
47.24,0,1,1,0,20,5,1,4
47.245,1,1,4,16,7,0,1,1
47.25,4,2,0,8,20,0,1,2
47.255,4,0,1,3,15,0,0,4
47.26,5,3,3,3,9,3,4,5
47.265,0,7,0,4,7,2,3,3
47.27,27,5,2,8,4,2,1,8
47.275,24,15,5,16,30,0,0,33
47.28,10,22,2,13,18,0,3,38
47.285,8,9,0,7,19,1,1,9
47.29,46,18,4,2,8,2,3,3
47.295,34,23,2,10,7,3,4,8
47.3,29,16,3,4,13,2,6,30
47.305,59,34,10,13,9,3,3,4
47.31,33,61,8,9,15,4,1,14
47.315,10,107,14,6,2,1,1,22
47.32,13,15,10,3,3,5,2,8
47.325,1,53,8,11,14,2,1,2
47.33,32,18,3,5,9,4,5,15
47.335,61,23,14,4,2,1,5,4
47.34,41,22,1,6,10,1,5,10
47.345,7,89,10,3,3,0,2,23
47.35,20,9,10,0,5,2,1,9
47.355,16,1,3,0,2,0,4,23
47.36,2,33,2,5,7,1,2,13
47.365,43,50,11,5,3,2,1,16
47.37,49,45,4,1,0,1,1,18
47.375,12,13,2,2,4,3,6,26
47.38,7,11,2,5,8,2,2,21
47.385,38,44,3,3,3,3,6,13
47.39,32,28,2,1,5,1,0,2
47.395,37,11,5,5,2,1,1,1
47.4,16,8,5,3,6,2,0,6
47.405,21,76,0,2,2,3,6,5
47.41,2,13,2,0,1,1,0,1
47.415,13,43,5,1,3,2,3,11
47.42,6,11,6,5,3,1,3,2
47.425,14,32,3,2,1,1,0,4
47.43,14,2,5,2,3,3,3,4
47.435,4,32,0,3,0,1,2,0
47.44,3,24,5,1,6,4,4,3
47.445,9,17,1,1,0,0,0,6
47.45,1,19,1,1,1,0,2,1
47.455,7,27,1,2,2,0,3,7
47.46,1,18,0,3,2,1,3,8
47.465,10,14,4,1,1,1,3,2
47.47,0,28,7,1,0,4,2,0
47.475,3,13,2,2,2,2,1,1
47.48,1,0,1,4,4,1,2,5
47.485,6,3,0,1,1,2,0,5
47.49,2,40,7,4,4,1,4,2
47.495,0,11,1,1,2,1,1,4
47.5,3,5,1,1,0,1,0,3
47.505,4,15,1,1,1,3,2,1
47.51,6,18,3,1,3,3,2,4
47.515,22,18,1,2,0,5,3,1
47.52,23,8,0,1,2,5,2,2
47.525,1,1,1,2,2,1,1,5
47.53,9,12,4,4,7,2,0,3
47.535,2,2,1,3,14,6,5,0
47.54,7,7,3,3,22,0,1,1
47.545,7,4,1,4,7,1,2,2
47.55,5,0,4,4,1,1,2,2
47.555,1,3,3,7,6,3,2,6
47.56,6,1,1,8,25,2,1,3
47.565,2,1,3,21,51,1,4,1
47.57,1,5,1,1,2,1,1,1
47.575,4,0,0,3,2,3,1,3
47.58,8,5,3,0,15,1,4,2
47.585,1,1,1,6,23,3,4,9
47.59,0,1,2,0,2,2,0,4
47.595,3,4,1,6,16,4,5,0
47.6,1,1,1,3,5,1,0,1
47.605,1,1,0,16,42,5,2,0
47.61,6,4,6,32,17,8,7,5
47.615,2,0,2,17,19,2,0,2
47.62,1,1,5,28,12,7,3,1
47.625,1,4,10,60,18,5,2,1
47.63,0,1,2,13,14,2,2,1
47.635,2,1,5,32,32,1,5,2
47.64,0,2,8,44,114,13,2,1
47.645,1,1,0,13,36,0,1,3
47.65,0,0,2,0,50,8,0,1
47.655,3,2,0,3,8,5,8,1
47.66,1,1,2,11,68,5,2,0
47.665,1,1,1,43,100,4,4,0
47.67,0,1,2,10,82,5,8,0
47.675,1,2,6,23,18,5,5,3
47.68,2,3,6,13,95,13,8,4
47.685,0,0,7,16,67,1,2,1
47.69,1,4,8,11,8,5,2,1
47.695,1,2,4,13,52,13,5,3
47.7,3,3,2,59,34,1,4,6
47.705,4,4,9,68,11,10,6,3
47.71,2,3,11,36,10,6,3,1
47.715,0,1,2,42,17,1,3,1
47.72,3,3,6,20,17,3,1,2
47.725,2,2,8,69,54,4,2,0
47.73,2,5,11,61,7,2,4,3
47.735,2,2,0,2,22,3,6,4
47.74,0,1,3,49,81,6,1,3
47.745,3,2,7,51,36,2,4,3
47.75,0,2,0,30,64,1,6,1
47.755,5,4,2,14,33,4,5,2
47.76,1,1,5,54,50,8,3,2
47.765,6,2,2,61,54,3,2,3
47.77,0,2,6,53,50,11,1,0
47.775,3,2,3,33,11,2,5,4
47.78,0,0,4,14,61,3,3,2
47.785,0,4,7,13,12,0,2,3
47.79,1,1,6,17,20,5,1,1
47.795,1,1,0,34,17,7,1,2
47.8,3,1,1,23,57,11,3,1
47.805,2,1,1,1,38,11,5,2
47.81,3,1,1,7,18,4,5,1
47.815,3,1,0,4,36,3,4,1
47.82,0,1,0,15,37,5,1,1
47.825,1,3,2,32,72,7,2,0
47.83,1,2,2,42,80,10,4,4
47.835,2,2,1,36,59,7,1,0
47.84,3,3,5,15,21,14,3,2
47.845,1,2,3,1,59,0,1,2
47.85,2,1,3,1,77,2,1,3
47.855,1,3,5,2,21,4,4,3
47.86,0,1,2,5,32,1,2,1
47.865,0,4,4,2,61,6,0,2
47.87,2,1,4,12,25,5,1,2
47.875,2,3,1,11,17,1,4,2
47.88,4,7,4,17,54,4,6,6
47.885,1,1,2,32,51,0,4,3
47.89,4,1,1,9,24,6,2,2
47.895,3,0,2,24,71,1,2,2
47.9,1,0,0,12,3,2,2,1
47.905,0,0,2,19,9,0,3,56
47.91,11,5,2,8,7,10,5,18
47.915,3,4,1,12,4,5,7,25
47.92,43,6,3,4,75,2,14,39
47.925,18,3,2,38,83,5,9,81
47.93,43,8,4,30,17,6,14,101
47.935,0,13,15,28,43,4,9,74
47.94,44,24,5,6,5,3,6,30
47.945,69,37,2,20,12,8,16,17
47.95,8,61,2,4,1,5,4,77
47.955,98,1,11,3,18,5,6,71
47.96,59,32,2,0,4,1,10,58
47.965,90,5,0,6,3,5,27,38
47.97,56,33,10,6,9,11,31,28
47.975,126,92,19,15,2,0,25,119
47.98,127,35,13,38,20,3,27,127
47.985,95,24,10,12,27,9,4,95
47.99,1,13,8,4,14,6,43,112
47.995,16,77,1,4,6,3,4,105
48,108,3,4,20,35,16,11,67
48.005,52,28,13,12,22,1,28,109
48.01,40,20,13,4,9,3,4,126
48.015,64,60,10,15,14,9,31,42
48.02,113,16,2,1,7,0,10,60
48.025,52,22,1,1,1,1,16,96
48.03,75,23,11,1,4,2,12,7
48.035,44,17,4,6,15,2,16,49
48.04,39,1,7,5,13,6,19,4
48.045,28,24,7,6,16,3,2,84
48.05,2,19,2,5,7,0,3,48
48.055,14,14,2,4,3,1,5,8
48.06,3,1,7,26,36,2,0,58
48.065,8,8,8,13,31,8,3,45
48.07,32,9,2,19,25,3,3,17
48.075,21,9,2,9,23,4,6,43
48.08,38,18,1,14,12,3,8,69
48.085,5,4,2,13,17,0,1,6
48.09,38,13,7,36,51,3,1,16
48.095,0,14,8,27,27,4,2,11
48.1,21,28,2,5,7,2,6,18
48.105,9,11,4,1,8,1,2,14
48.11,24,8,0,9,2,1,0,6
48.115,3,2,5,0,7,2,3,2
48.12,2,1,3,24,15,5,1,0
48.125,17,6,5,3,2,1,0,11
48.13,9,22,4,9,9,1,3,5
48.135,14,4,3,11,10,1,0,6
48.14,5,1,1,2,5,2,0,12
48.145,5,0,0,5,12,2,1,9
48.15,4,3,1,6,15,1,3,5
48.155,3,4,5,25,24,1,1,5
48.16,7,2,1,10,12,2,1,6
48.165,6,1,2,16,14,3,1,0
48.17,10,6,1,0,12,2,2,0
48.175,9,3,2,17,38,3,0,3
48.18,4,2,1,7,9,5,1,2
48.185,6,4,1,2,6,0,2,2
48.19,3,2,4,17,31,6,4,3
48.195,2,2,3,29,46,7,9,5
48.2,2,2,5,49,90,23,13,1
48.205,3,1,2,11,94,0,4,2
48.21,3,0,6,54,109,0,7,3
48.215,2,1,3,22,85,11,6,3
48.22,7,1,0,5,22,3,2,3
48.225,4,1,4,5,41,4,4,4
48.23,1,2,3,15,16,11,1,7
48.235,6,3,10,23,33,11,2,3
48.24,3,0,1,17,19,4,3,4
48.245,4,1,2,45,49,4,3,3
48.25,1,2,0,53,48,8,3,1
48.255,0,4,4,9,46,14,9,6
48.26,3,3,5,31,10,9,1,0
48.265,0,0,3,8,9,4,3,1
48.27,2,2,1,24,57,1,1,1
48.275,3,4,5,1,63,0,2,3
48.28,0,1,0,44,121,1,3,0
48.285,1,4,9,27,62,10,4,4
48.29,3,2,4,42,79,11,1,1
48.295,5,7,10,3,87,10,2,6
48.3,4,5,17,11,104,3,2,3
48.305,1,2,1,32,96,15,6,4
48.31,7,6,1,36,51,23,15,9
48.315,1,2,2,43,28,6,2,2
48.32,3,0,2,8,11,12,6,3
48.325,2,1,4,11,23,2,0,0
48.33,2,2,1,42,32,5,1,3
48.335,1,2,1,43,128,7,0,2
48.34,0,0,7,28,127,4,4,2
48.345,3,5,8,37,128,7,4,4
48.35,2,1,4,12,14,7,5,3
48.355,2,1,0,20,10,0,3,0
48.36,0,4,7,29,17,3,2,1
48.365,8,10,8,22,1,4,8,10
48.37,0,1,2,2,58,0,3,4
48.375,0,2,1,3,36,4,3,2
48.38,4,5,3,12,80,5,3,3
48.385,1,0,3,10,32,3,0,1
48.39,2,4,7,22,88,6,2,1
48.395,2,4,3,1,8,1,2,4
48.4,2,0,2,6,42,2,1,0
48.405,2,0,4,10,40,0,2,2
48.41,3,1,1,11,78,12,0,2
48.415,1,1,1,7,39,8,4,6
48.42,1,3,3,31,10,2,3,3
48.425,1,2,2,24,5,2,3,2
48.43,1,1,6,38,124,9,1,2
48.435,3,5,8,21,7,13,5,6
48.44,1,2,7,26,24,1,4,2
48.445,3,5,6,22,26,12,2,0
48.45,0,2,0,14,56,3,2,4
48.455,1,1,3,35,2,2,1,1
48.46,1,2,3,15,41,7,1,2
48.465,1,2,2,3,14,2,3,2
48.47,2,2,2,12,31,4,6,3
48.475,1,2,1,2,7,4,0,0
48.48,1,2,2,10,6,1,2,1
48.485,0,0,0,3,93,3,2,2
48.49,0,0,1,0,46,2,1,1
48.495,1,1,1,14,95,8,3,2
48.5,1,2,1,7,67,2,1,1
48.505,0,1,2,28,78,8,1,1
48.51,3,3,5,14,30,5,2,2
48.515,1,3,2,18,60,2,1,1
48.52,0,1,2,39,43,1,0,1
48.525,4,0,4,19,127,3,1,2
48.53,2,5,12,47,24,9,7,10
48.535,3,1,3,23,74,0,2,4
48.54,2,2,1,13,24,0,2,7
48.545,3,1,1,16,3,5,0,37
48.55,0,1,2,14,59,1,5,50
48.555,9,10,1,14,16,3,3,25
48.56,9,2,2,7,72,2,8,23
48.565,10,1,1,1,23,2,0,7
48.57,6,1,0,5,33,2,2,18
48.575,11,1,2,9,22,0,4,0
48.58,45,3,1,0,17,0,5,27
48.585,60,0,3,1,5,5,2,4
48.59,66,4,2,13,2,1,3,17
48.595,57,6,1,4,6,1,2,18
48.6,8,2,0,3,9,2,3,24
48.605,43,4,3,4,4,1,1,18
48.61,7,1,1,2,5,3,4,34
48.615,63,11,1,0,2,2,1,34
48.62,71,7,3,3,3,1,3,6
48.625,34,4,1,8,4,6,2,5
48.63,72,40,2,6,1,3,3,24
48.635,57,21,6,18,26,11,4,9
48.64,89,39,9,2,6,2,4,8
48.645,93,44,4,3,5,2,0,23
48.65,68,4,1,2,3,0,4,1
48.655,30,35,7,1,3,3,3,3
48.66,7,109,11,2,5,4,2,3
48.665,72,17,0,7,12,4,4,1
48.67,49,25,4,7,11,2,2,21
48.675,55,55,11,5,4,1,1,5
48.68,8,88,11,2,2,0,1,4
48.685,77,50,4,3,1,0,4,8
48.69,91,22,1,0,2,1,1,0
48.695,26,26,3,1,0,3,4,13
48.7,18,6,1,3,1,0,1,22
48.705,14,9,4,7,6,4,1,1
48.71,11,2,6,2,1,3,5,7
48.715,33,32,2,1,2,1,3,9
48.72,11,10,6,2,5,5,3,10
48.725,1,5,1,2,0,1,0,9
48.73,3,14,1,1,0,1,2,10
48.735,28,2,3,1,3,1,1,5
48.74,12,14,5,2,1,1,3,8
48.745,34,32,4,2,1,2,2,2
48.75,26,2,0,1,1,0,0,7
48.755,28,21,3,6,4,2,3,5
48.76,15,1,4,4,4,2,4,7
48.765,5,2,2,2,1,0,0,1
48.77,12,3,2,5,3,4,1,3
48.775,21,11,3,1,0,1,1,10
48.78,22,0,2,3,1,1,0,4
48.785,2,21,3,2,1,0,1,1
48.79,29,8,3,0,2,1,1,0
48.795,15,4,1,1,0,0,2,7
48.8,6,5,0,0,3,2,3,8
48.805,19,5,1,1,1,2,1,1
48.81,28,1,1,3,0,2,1,2
48.815,4,3,2,1,1,1,1,3
48.82,2,1,0,0,1,1,1,0
48.825,17,3,3,3,3,2,3,5
48.83,30,4,0,2,2,3,1,2
48.835,11,8,3,0,1,3,3,8
48.84,8,11,0,1,2,2,1,2
48.845,3,4,4,3,4,3,1,3
48.85,5,3,3,2,0,2,1,1
48.855,5,1,0,2,0,2,1,5
48.86,0,1,0,0,1,0,2,1
48.865,1,3,1,2,1,0,2,0
48.87,12,5,8,1,1,1,2,1
48.875,4,2,0,1,0,0,3,1
48.88,7,6,2,0,3,3,2,1
48.885,2,3,2,1,0,0,0,0
48.89,1,2,1,1,0,0,0,0
48.895,2,4,2,2,4,3,3,3
48.9,3,0,1,1,0,1,1,3
48.905,2,3,2,2,5,3,2,0
48.91,3,2,0,0,10,3,1,1
48.915,0,0,0,8,1,3,4,1
48.92,2,0,4,6,21,12,3,1
48.925,1,1,1,8,15,2,4,0
48.93,1,0,1,41,33,1,1,2
48.935,1,2,1,11,24,0,1,0
48.94,1,0,1,14,30,6,4,1
48.945,0,0,3,33,42,2,2,1
48.95,2,2,3,2,11,7,2,2
48.955,0,1,6,42,37,3,0,0
48.96,0,0,1,30,42,1,3,0
48.965,1,1,0,6,22,3,1,1
48.97,1,1,1,4,34,0,3,1
48.975,3,3,0,20,39,5,6,5
48.98,1,0,2,2,7,1,1,0
48.985,1,3,2,7,10,3,2,2
48.99,2,1,3,16,9,1,3,1
48.995,2,0,1,8,21,9,2,2
49,1,0,1,0,41,12,3,1
49.005,1,0,0,9,23,11,5,1
49.01,2,1,3,5,7,11,4,3
49.015,1,1,4,0,10,11,1,1
49.02,2,3,0,9,31,12,5,3
49.025,2,0,3,12,7,2,4,2
49.03,1,1,1,1,1,1,2,0
49.035,2,1,3,14,27,14,0,1
49.04,0,2,3,33,64,11,3,2
49.045,1,0,4,4,46,23,2,0
49.05,4,3,2,13,94,2,7,2
49.055,1,1,0,19,85,3,2,2
49.06,2,3,0,20,21,6,5,2
49.065,1,1,3,8,69,2,4,1
49.07,4,2,3,15,54,13,8,7
49.075,2,3,1,30,35,14,5,0
49.08,2,1,2,17,27,2,3,1
49.085,1,2,0,26,2,7,1,0
49.09,2,3,5,62,55,18,2,2
49.095,0,0,0,25,55,4,3,1
49.1,1,2,2,7,2,17,9,4
49.105,0,1,1,2,59,11,2,2
49.11,2,0,4,31,51,5,4,2
49.115,0,2,4,17,37,1,0,1
49.12,0,3,5,5,67,18,3,1
49.125,2,2,6,76,82,26,2,3
49.13,0,1,0,43,23,6,2,3
49.135,3,1,2,25,4,10,3,0
49.14,4,2,6,27,18,20,11,5
49.145,1,1,0,27,127,30,5,3
49.15,0,2,6,12,12,2,1,2
49.155,0,1,1,17,111,20,3,1
49.16,1,1,5,13,119,2,1,1
49.165,6,7,11,5,54,13,11,9
49.17,2,2,6,24,59,1,0,1
49.175,3,5,6,27,83,9,2,4
49.18,1,2,3,13,38,7,5,2
49.185,2,1,3,28,61,13,4,2
49.19,2,3,7,5,96,4,0,0
49.195,2,1,2,33,62,15,5,3
49.2,1,2,7,3,23,9,1,1
49.205,3,2,5,25,11,9,2,2
49.21,2,4,4,21,19,7,2,2
49.215,3,4,9,8,5,9,4,2
49.22,1,0,3,15,49,12,2,1
49.225,3,0,1,26,40,2,1,2
49.23,2,0,4,4,72,14,4,3
49.235,2,3,5,16,18,14,2,2
49.24,2,2,3,7,34,3,3,4
49.245,1,0,1,1,58,9,2,2
49.25,3,3,4,11,18,5,3,0
49.255,4,1,1,4,59,9,4,2
49.26,2,4,4,7,51,1,1,0
49.265,1,2,0,8,2,0,3,0
49.27,1,1,1,23,45,3,1,1
49.275,0,1,1,28,23,3,3,0
49.28,4,1,3,16,24,8,5,5
49.285,2,0,2,14,45,2,2,1
49.29,1,0,0,7,1,0,5,2
49.295,1,2,6,26,20,1,2,7
49.3,0,0,3,11,14,0,0,3
49.305,2,0,1,5,29,2,1,3
49.31,1,4,4,12,31,3,6,9
49.315,2,1,1,19,43,4,1,1
49.32,0,1,3,4,80,9,2,4
49.325,1,1,0,7,78,6,1,8
49.33,1,1,2,10,71,10,2,18
49.335,8,3,2,7,24,2,2,8
49.34,7,9,1,5,91,14,9,13
49.345,45,1,1,11,29,11,4,10
49.35,34,0,0,1,47,4,4,33
49.355,2,0,5,35,118,9,4,22
49.36,17,3,4,28,68,4,4,47
49.365,8,1,3,0,10,1,5,77
49.37,15,1,1,2,12,0,7,11
49.375,12,2,3,5,26,6,10,35
49.38,29,16,3,22,4,2,0,26
49.385,12,2,1,7,29,4,3,12
49.39,87,9,4,7,38,5,5,17
49.395,8,4,3,10,47,2,0,31
49.4,7,7,2,14,7,3,6,38
49.405,27,15,4,12,17,2,8,57
49.41,46,19,1,9,12,1,5,55
49.415,30,53,5,2,38,5,1,72
49.42,67,26,12,2,13,1,1,84
49.425,94,2,0,9,13,4,11,38
49.43,40,18,4,0,4,1,5,31
49.435,15,11,2,1,12,2,5,99
49.44,44,4,2,1,25,1,16,39
49.445,4,54,1,3,14,0,9,17
49.45,26,28,5,8,31,3,4,27
49.455,33,100,2,9,9,0,5,43
49.46,40,44,11,3,11,0,8,1
49.465,45,25,1,2,0,3,7,25
49.47,1,57,8,2,5,3,2,47
49.475,124,20,1,2,7,1,2,81
49.48,121,16,4,1,10,2,3,41
49.485,53,21,9,10,1,2,6,102
49.49,5,58,6,5,5,2,0,32
49.495,22,49,5,1,6,3,2,8
49.5,49,74,7,5,6,3,0,23
49.505,36,43,11,11,17,3,4,20
49.51,61,99,15,2,14,3,2,1
49.515,22,32,8,8,18,4,13,45
49.52,55,22,3,0,4,1,1,24
49.525,36,43,4,10,7,0,1,0
49.53,33,15,4,3,9,2,6,60
49.535,66,10,6,6,1,1,0,10
49.54,0,5,2,3,9,2,14,63
49.545,4,15,8,4,5,3,6,36
49.55,29,24,6,1,12,2,1,10
49.555,32,53,2,3,3,1,2,9
49.56,45,12,1,8,12,3,0,13
49.565,2,20,10,6,1,5,3,1
49.57,39,19,3,5,6,3,3,1
49.575,3,16,3,5,0,2,2,9
49.58,25,0,6,8,0,3,4,16
49.585,2,3,1,2,4,1,2,2
49.59,18,5,2,1,7,2,3,11
49.595,8,22,3,1,8,1,2,5
49.6,26,11,2,4,9,2,1,15
49.605,35,27,6,5,1,0,2,12
49.61,15,32,2,5,0,1,3,11
49.615,26,14,8,3,1,1,2,46
49.62,28,24,7,3,5,1,4,32
49.625,44,6,0,4,1,0,1,17
49.63,13,2,0,2,3,1,0,4
49.635,34,0,7,11,6,0,1,1
49.64,3,6,1,9,11,4,4,19
49.645,4,44,10,7,0,1,1,4
49.65,30,87,15,6,2,1,0,25
49.655,12,48,8,2,2,2,7,39
49.66,0,4,8,3,1,2,4,5
49.665,32,14,0,16,5,1,5,31
49.67,23,7,5,2,0,1,6,3
49.675,19,21,0,6,6,3,1,7
49.68,13,12,7,2,1,1,3,6
49.685,21,2,4,6,5,1,3,3
49.69,10,26,2,2,3,1,1,1
49.695,4,8,4,2,1,0,2,0
49.7,1,21,3,6,8,4,3,1
49.705,3,18,2,2,0,1,1,3
49.71,5,5,2,3,3,2,0,2
49.715,4,1,0,16,7,2,2,1
49.72,8,7,2,9,2,4,5,5
49.725,4,3,3,4,5,12,4,3
49.73,0,1,2,1,18,5,3,2
49.735,3,3,6,60,4,6,5,4
49.74,5,6,11,34,29,4,6,6
49.745,1,3,3,6,19,5,0,3
49.75,0,1,12,19,46,2,6,1
49.755,1,2,2,24,42,15,11,1
49.76,0,2,3,17,61,5,1,1
49.765,1,1,3,29,56,4,1,1
49.77,2,7,9,34,52,18,5,7
49.775,0,1,1,54,5,2,6,1
49.78,1,1,3,101,74,19,5,3
49.785,1,0,9,87,88,27,12,3
49.79,4,3,0,56,59,15,3,0
49.795,0,2,1,68,55,10,2,1
49.8,1,5,6,22,6,7,2,0
49.805,7,3,2,50,29,11,8,8
49.81,1,1,5,42,77,8,6,2
49.815,0,3,3,63,66,3,3,1
49.82,4,1,1,95,29,2,8,6
49.825,2,1,0,46,62,0,2,2
49.83,2,2,7,71,85,7,2,2
49.835,3,4,4,80,55,14,3,2
49.84,4,2,5,38,39,13,3,4
49.845,3,1,1,7,39,0,4,1
49.85,0,1,3,1,96,3,5,6
49.855,0,1,3,22,82,3,0,1
49.86,1,1,5,3,15,17,4,1
49.865,0,1,5,9,43,11,2,4
49.87,2,1,2,18,47,7,3,1
49.875,2,1,2,10,64,11,3,3
49.88,1,2,1,20,21,5,4,3
49.885,1,2,0,8,58,11,6,3
49.89,3,3,6,20,63,5,2,3
49.895,5,6,7,5,56,5,8,6
49.9,0,3,1,12,1,2,1,1
49.905,0,0,1,6,7,2,1,0
49.91,1,1,1,12,26,5,1,1
49.915,0,3,5,22,4,1,3,3
49.92,0,0,3,1,18,0,2,4
49.925,3,1,1,35,18,14,1,1
49.93,1,0,2,17,7,6,1,0
49.935,2,0,0,15,7,1,4,0
49.94,0,1,0,18,49,4,3,3
49.945,1,2,2,2,30,5,0,1
49.95,3,2,0,3,28,4,3,1
49.955,3,2,3,10,34,5,0,3
49.96,2,1,3,2,68,1,0,0
49.965,1,2,4,21,89,6,2,3
49.97,2,1,3,19,57,1,0,1
49.975,0,2,2,18,6,9,4,3
49.98,2,2,1,20,28,9,7,5
49.985,1,1,2,9,41,5,3,1
49.99,5,5,7,17,60,12,7,4
49.995,2,3,2,0,31,4,2,2
50,1,1,1,13,28,3,1,1
50.005,1,2,3,28,6,7,3,1
50.01,0,2,1,16,7,3,1,0
50.015,2,0,2,15,3,3,1,1
50.02,1,4,4,2,24,0,0,1
50.025,1,0,0,0,2,3,1,3
50.03,1,2,6,57,88,6,1,0
50.035,4,3,8,74,57,8,3,2
50.04,0,0,0,6,35,1,1,1
50.045,2,2,2,6,51,0,2,0
50.05,1,2,0,0,16,4,0,2
50.055,0,1,3,43,10,13,3,2
50.06,0,0,2,16,28,1,0,1
50.065,2,1,0,0,45,5,4,3
50.07,0,0,2,18,28,1,1,0
50.075,1,0,1,10,26,3,4,2
50.08,4,2,1,4,8,3,0,0
50.085,3,1,0,8,2,5,2,7
50.09,0,3,3,13,7,1,1,4
50.095,0,0,1,2,12,1,2,1
50.1,5,1,4,8,21,2,3,7
50.105,4,1,0,2,25,1,3,2
50.11,0,2,4,1,23,1,2,14
50.115,3,4,1,16,33,3,1,8
50.12,5,2,1,1,12,2,4,33
50.125,2,2,0,0,15,2,2,25
50.13,2,1,2,5,26,3,1,17
50.135,9,2,0,13,3,2,3,33
50.14,9,2,0,6,10,4,14,71
50.145,46,10,1,5,10,1,3,3
50.15,1,9,5,2,4,3,2,11
50.155,43,14,2,9,4,3,0,35
50.16,47,4,3,3,9,4,8,18
50.165,49,24,0,2,7,0,4,26
50.17,12,4,3,0,4,0,1,15
50.175,53,22,1,15,18,4,6,21
50.18,39,16,4,5,9,1,3,16
50.185,13,2,1,5,6,2,1,14
50.19,29,4,7,6,2,1,3,15
50.195,46,37,13,9,13,2,4,17
50.2,77,9,11,8,13,1,6,23
50.205,44,34,7,6,3,0,0,6
50.21,52,4,3,1,5,2,0,7
50.215,68,1,2,4,1,2,3,8
50.22,9,6,4,1,2,4,3,26
50.225,7,35,9,11,5,0,1,7
50.23,31,43,1,6,12,4,2,3
50.235,53,44,6,3,1,1,1,1
50.24,52,8,7,2,1,2,3,21
50.245,58,69,6,1,4,2,2,5
50.25,15,8,2,5,6,3,0,3
50.255,21,21,2,3,1,2,0,3
50.26,18,0,2,4,2,0,1,2
50.265,4,19,4,4,1,3,1,2
50.27,10,25,6,9,8,7,5,7
50.275,8,10,1,0,2,0,0,6
50.28,2,6,2,3,3,0,0,1
50.285,4,9,2,7,1,1,1,1
50.29,2,19,0,3,0,2,4,7
50.295,6,6,0,0,2,0,0,3
50.3,3,19,2,1,4,1,0,2
50.305,6,21,3,0,1,2,0,3
50.31,11,7,4,1,3,4,5,1
50.315,0,18,2,0,1,1,0,4
50.32,6,7,3,1,0,0,0,2
50.325,7,13,1,2,1,1,1,3
50.33,1,7,2,3,3,0,1,2
50.335,3,6,2,0,3,2,0,1
50.34,3,8,4,3,2,2,3,4
50.345,8,12,1,3,2,2,5,5
50.35,1,8,5,6,0,1,1,1
50.355,4,6,0,2,0,2,3,2
50.36,4,0,1,0,3,0,1,4
50.365,2,2,4,1,1,1,1,2
50.37,2,3,0,1,3,2,2,4
50.375,5,1,2,2,3,1,3,3
50.38,1,3,7,4,3,1,1,1
50.385,0,1,0,1,2,1,2,0
50.39,1,1,0,1,0,2,1,0
50.395,1,5,1,1,2,1,1,2
50.4,1,2,0,1,3,3,0,3
50.405,0,6,0,1,2,3,1,3
50.41,3,4,0,0,3,2,3,2
50.415,2,0,1,1,2,0,1,2
50.42,0,2,1,1,1,2,0,1
50.425,3,5,2,1,0,1,0,0
50.43,1,5,1,2,1,1,2,1
50.435,2,1,2,2,2,2,2,1
50.44,0,2,0,1,2,0,2,1
50.445,3,3,2,2,3,3,1,1
50.45,0,0,2,0,6,2,2,1
50.455,1,3,1,2,2,1,2,4
50.46,0,2,1,3,10,0,2,2
50.465,2,0,2,0,4,5,2,1
50.47,2,3,0,5,0,1,1,1
50.475,0,4,0,2,8,7,0,0
50.48,1,1,2,12,27,2,1,1
50.485,0,1,1,8,29,11,6,0
50.49,3,3,3,25,37,9,8,3
50.495,2,2,3,8,17,8,4,0
50.5,1,0,1,3,35,5,4,4
50.505,2,3,2,22,31,6,8,5
50.51,2,1,1,11,5,9,2,0
50.515,0,5,5,5,15,3,2,0
50.52,5,7,11,38,17,11,7,6
50.525,0,3,3,1,52,2,3,1
50.53,1,1,1,18,27,1,3,2
50.535,1,0,5,78,67,1,1,0
50.54,0,4,1,6,18,5,0,1
50.545,1,1,1,5,3,0,0,1
50.55,1,1,1,6,3,2,3,0
50.555,1,1,2,51,61,5,1,2
50.56,3,0,2,19,34,7,2,3
50.565,2,1,3,28,44,2,3,1
50.57,0,3,3,21,47,1,1,0
50.575,1,1,2,7,57,6,1,0
50.58,3,4,3,46,76,5,5,2
50.585,2,2,3,45,62,14,6,2
50.59,1,0,2,14,6,7,4,1
50.595,2,5,5,11,95,3,5,1
50.6,0,1,3,50,8,0,0,1
50.605,0,1,2,11,66,0,1,1
50.61,1,1,0,12,71,1,3,0
50.615,4,3,1,33,48,3,1,3
50.62,0,0,2,26,30,2,5,4
50.625,1,1,4,2,63,7,8,3
50.63,6,6,9,27,26,17,8,6
50.635,2,2,3,3,8,1,2,2
50.64,0,1,0,16,9,3,1,1
50.645,1,0,7,21,31,2,2,2
50.65,1,1,2,7,6,3,1,1
50.655,0,1,4,8,52,6,3,1
50.66,1,0,1,15,5,3,1,2
50.665,1,0,3,10,19,6,1,1
50.67,0,1,5,15,46,5,1,2
50.675,6,4,6,28,120,7,6,4
50.68,0,0,1,42,5,11,1,2
50.685,0,1,2,46,40,3,0,3
50.69,4,4,8,33,29,10,8,7
50.695,1,1,4,11,42,1,3,2
50.7,0,0,2,20,56,6,3,3
50.705,2,3,2,51,117,6,7,4
50.71,1,1,0,12,28,0,3,0
50.715,0,1,1,38,56,1,1,2
50.72,0,1,2,15,94,1,1,1
50.725,1,0,4,68,28,1,1,1
50.73,1,2,9,43,24,14,3,3
50.735,1,5,11,50,24,3,1,1
50.74,1,2,3,34,16,0,2,1
50.745,2,2,3,5,12,3,1,0
50.75,0,1,1,10,9,1,2,0
50.755,1,1,3,15,22,0,2,0
50.76,1,1,2,22,27,5,1,1
50.765,3,4,7,31,35,5,3,2
50.77,1,0,1,26,26,6,2,0
50.775,5,3,7,30,0,11,4,5
50.78,1,0,2,14,42,5,2,0
50.785,1,1,1,12,24,7,3,1
50.79,0,0,1,4,14,5,2,2
50.795,1,3,5,1,47,4,2,2
50.8,1,3,1,11,7,1,0,2
50.805,0,2,2,9,17,7,4,3
50.81,3,2,1,3,8,4,3,2
50.815,0,2,0,9,44,5,0,1
50.82,1,1,3,25,18,1,0,1
50.825,0,1,0,7,42,6,1,1
50.83,2,1,0,25,49,4,1,2
50.835,0,2,2,0,32,2,2,1
50.84,1,1,0,3,35,5,0,1
50.845,1,1,0,6,83,6,0,1
50.85,1,2,1,8,72,7,4,0
50.855,0,1,1,5,4,0,3,2
50.86,2,3,3,11,68,3,0,2
50.865,3,3,5,7,39,4,3,4
50.87,0,1,1,2,14,0,0,1
50.875,2,2,3,25,39,1,2,1
50.88,1,2,3,10,12,5,5,2
50.885,2,1,2,6,9,0,2,3
50.89,1,0,3,51,42,0,4,2
50.895,1,1,1,54,46,3,6,1
50.9,1,3,7,68,33,6,2,2
50.905,1,1,0,5,15,3,4,2
50.91,1,1,0,12,37,1,2,3
50.915,1,2,3,2,39,6,2,2
50.92,2,2,4,15,110,3,6,4
50.925,2,5,4,20,76,3,5,4
50.93,1,1,5,43,54,0,2,1
50.935,2,0,2,10,24,2,2,0
50.94,1,2,0,1,10,4,4,2
50.945,0,1,1,22,28,1,1,0
50.95,2,1,2,23,7,1,1,0
50.955,1,1,3,17,27,1,0,2
50.96,2,1,1,23,45,3,1,1
50.965,1,1,2,16,77,2,1,2
50.97,4,4,2,13,35,11,7,2
50.975,2,1,2,39,31,1,2,1
50.98,0,1,3,1,11,3,0,1
50.985,1,1,2,4,41,2,0,0
50.99,0,1,1,19,42,6,1,2
50.995,1,1,0,8,10,2,1,1
51,1,2,0,1,0,3,5,3
51.005,1,1,1,5,9,1,1,1
51.01,2,2,1,14,16,3,2,3
51.015,2,2,1,10,35,3,2,1
51.02,2,1,4,4,27,5,3,3
51.025,1,3,0,3,12,1,1,4
51.03,1,0,1,4,21,1,0,1
51.035,3,5,0,3,8,0,1,4
51.04,1,8,1,7,8,0,3,2
51.045,6,1,4,13,35,4,2,2
51.05,6,2,0,12,18,3,3,18
51.055,5,3,3,8,14,1,1,16
51.06,12,17,4,7,10,1,3,2
51.065,4,57,2,6,1,4,1,7
51.07,17,10,1,4,5,1,1,3
51.075,10,6,0,1,5,1,1,18
51.08,29,47,4,8,10,0,5,34
51.085,5,20,1,7,2,0,3,23
51.09,17,22,1,3,1,0,5,32
51.095,25,11,3,4,15,2,3,14
51.1,25,13,0,10,15,1,2,21
51.105,0,18,0,6,5,1,4,18
51.11,0,25,2,3,1,1,1,1
51.115,28,23,6,4,2,0,1,1
51.12,9,24,5,3,1,0,1,10
51.125,13,1,13,0,0,3,3,9
51.13,5,18,0,0,7,1,1,7
51.135,22,25,3,4,1,2,2,10
51.14,10,0,1,4,0,0,1,7
51.145,17,3,10,8,12,3,6,6
51.15,6,2,3,3,6,0,4,16
51.155,10,1,1,2,2,2,1,1
51.16,10,1,1,2,10,5,1,5
51.165,34,26,3,2,2,1,1,3
51.17,33,9,3,3,1,0,2,9
51.175,25,32,2,1,1,2,1,1
51.18,17,4,3,2,3,2,1,8
51.185,18,5,7,6,2,3,0,1
51.19,5,34,7,3,2,3,4,17
51.195,18,6,1,1,6,1,0,14
51.2,7,4,4,1,5,0,2,7
51.205,3,26,10,0,3,1,2,1
51.21,19,6,5,3,1,1,3,2
51.215,3,3,0,0,0,1,0,2
51.22,2,5,3,6,4,3,0,4
51.225,7,16,6,2,1,3,2,5
51.23,11,11,2,1,2,0,1,1
51.235,11,1,0,1,1,2,1,1
51.24,8,3,3,3,3,0,1,1
51.245,6,1,5,2,2,1,1,3
51.25,0,5,3,1,1,3,1,0
51.255,0,8,5,3,1,2,2,1
51.26,4,6,1,2,3,2,3,3
51.265,7,1,2,2,2,2,1,2
51.27,4,0,1,0,0,2,1,2
51.275,2,8,1,1,3,1,1,0
51.28,3,9,0,2,1,1,2,2
51.285,9,3,1,2,1,1,1,2
51.29,7,7,0,1,1,1,0,3
51.295,0,2,4,5,2,1,1,1
51.3,1,6,1,1,1,2,2,3
51.305,3,6,4,2,0,1,0,1
51.31,7,1,1,1,1,0,1,2
51.315,1,4,1,2,4,1,0,2
51.32,0,4,3,1,2,0,0,1
51.325,2,3,1,2,1,0,0,1
51.33,2,0,0,2,2,1,0,1
51.335,2,3,1,1,2,0,3,3
51.34,5,4,3,4,2,1,3,0
51.345,2,2,2,2,1,1,3,3
51.35,1,2,3,1,2,1,1,0
51.355,0,3,2,1,1,1,3,1
51.36,0,0,2,0,2,1,1,2
51.365,3,0,1,1,0,1,1,0
51.37,2,3,0,1,1,1,2,0
51.375,0,0,1,2,2,1,1,0
51.38,2,2,2,1,1,1,1,1
51.385,0,0,1,1,2,0,1,1
51.39,1,1,1,3,1,0,0,1
51.395,0,0,2,0,0,0,0,1
51.4,2,1,2,1,1,1,2,2
51.405,1,3,2,2,2,1,1,1
51.41,1,1,0,1,1,1,0,0
51.415,0,2,1,1,0,1,4,3
51.42,1,4,2,0,6,4,2,2
51.425,1,2,1,1,14,2,4,4
51.43,4,1,5,2,3,7,1,1
51.435,1,2,0,4,1,2,2,2
51.44,2,2,1,3,1,3,0,0
51.445,0,1,0,2,8,2,2,3
51.45,2,0,0,2,3,6,5,2
51.455,1,2,3,1,1,2,0,1
51.46,0,0,0,2,1,2,2,2
51.465,2,1,2,0,2,3,0,3
51.47,0,2,2,2,1,2,2,0
51.475,2,0,1,1,1,3,2,1
51.48,1,1,1,4,3,4,2,3
51.485,1,0,6,12,44,3,4,1
51.49,2,5,11,30,46,1,6,1
51.495,2,3,8,10,58,10,4,1
51.5,0,0,1,0,103,9,8,0
51.505,1,1,4,35,20,5,8,3
51.51,2,0,4,21,30,3,4,0
51.515,2,3,3,28,48,3,1,2
51.52,2,2,0,14,57,15,5,2
51.525,3,1,0,34,53,4,7,4
51.53,3,2,5,35,46,7,6,3
51.535,1,0,1,28,55,7,0,1
51.54,1,2,1,10,39,5,1,2
51.545,2,1,3,29,14,1,4,2
51.55,2,2,2,16,2,6,5,1
51.555,2,0,6,40,16,7,4,2
51.56,2,3,8,62,4,3,5,2
51.565,1,0,0,28,6,5,2,0
51.57,3,1,1,19,41,2,5,3
51.575,1,1,2,8,25,3,0,1
51.58,1,1,2,32,62,12,1,1
51.585,3,3,10,56,27,0,4,3
51.59,2,2,3,16,56,2,5,4
51.595,2,1,1,6,76,7,0,0
51.6,0,1,6,53,18,1,2,2
51.605,0,2,6,29,27,9,1,0
51.61,1,3,6,57,49,9,1,0
51.615,2,3,5,15,80,8,4,3
51.62,1,2,3,11,16,10,3,2
51.625,1,1,5,17,50,8,3,1
51.63,4,2,1,29,15,1,4,2
51.635,0,2,8,11,127,9,1,2
51.64,4,6,7,29,102,8,1,3
51.645,0,0,7,6,6,5,4,3
51.65,3,2,3,27,47,13,1,2
51.655,3,2,4,14,1,4,1,3
51.66,1,2,1,6,4,21,8,1
51.665,3,5,0,4,92,12,5,5
51.67,0,0,2,23,74,1,2,2
51.675,2,0,0,10,15,4,2,3
51.68,0,1,1,33,52,1,0,1
51.685,2,3,8,71,68,7,0,0
51.69,2,2,3,26,10,2,1,1
51.695,3,1,2,10,46,1,4,2
51.7,1,1,2,12,41,2,3,0
51.705,2,1,1,35,56,6,0,2
51.71,4,2,1,17,83,5,4,1
51.715,1,0,8,83,50,13,4,0
51.72,0,1,2,36,66,13,6,4
51.725,1,0,1,2,37,10,0,1
51.73,1,3,0,5,28,3,0,1
51.735,2,0,3,25,44,2,1,1
51.74,3,4,11,72,79,7,2,2
51.745,2,0,5,13,30,4,3,3
51.75,0,0,3,4,61,4,1,1
51.755,1,1,1,10,6,3,1,1
51.76,1,1,5,16,62,2,2,1
51.765,1,1,1,2,68,1,0,0
51.77,1,0,4,13,15,3,3,3
51.775,1,2,3,13,11,0,1,1
51.78,3,4,5,22,6,6,5,5
51.785,1,0,1,10,73,2,3,0
51.79,0,2,1,12,47,0,0,2
51.795,1,1,0,1,38,0,2,2
51.8,0,0,1,8,26,0,2,0
51.805,1,1,2,24,5,7,2,1
51.81,1,1,0,15,12,6,2,2
51.815,3,1,2,27,58,8,2,4
51.82,1,0,4,57,45,6,1,2
51.825,2,2,0,23,0,1,2,8
51.83,1,1,4,31,41,1,1,1
51.835,1,3,4,3,18,8,1,8
51.84,1,2,0,12,32,3,3,1
51.845,1,0,1,12,21,2,3,1
51.85,3,2,6,19,24,4,2,7
51.855,3,2,0,12,21,3,1,4
51.86,1,3,3,17,23,7,5,1
51.865,3,1,3,39,40,2,3,16
51.87,3,2,3,19,62,0,0,23
51.875,3,1,5,20,49,4,3,15
51.88,2,2,2,3,5,2,2,3
51.885,2,4,0,20,27,2,1,10
51.89,2,3,4,7,9,1,1,12
51.895,19,0,1,8,17,1,2,6
51.9,17,2,1,6,3,1,2,12
51.905,4,3,1,7,8,0,1,2
51.91,2,2,1,12,6,1,1,9
51.915,16,14,7,0,1,2,5,9
51.92,16,7,3,13,17,1,3,13
51.925,21,1,6,7,15,3,4,6
51.93,10,33,1,2,3,3,2,15
51.935,10,8,2,4,5,1,3,20
51.94,60,67,7,4,10,0,1,29
51.945,13,56,5,5,1,4,3,23
51.95,79,7,2,5,17,0,2,18
51.955,117,28,7,0,0,3,5,26
51.96,40,40,1,4,7,0,2,36
51.965,23,33,9,8,9,2,6,53
51.97,22,56,3,4,2,1,3,45
51.975,65,5,2,6,2,1,0,6
51.98,19,1,4,3,7,1,3,2
51.985,34,29,7,1,3,1,3,21
51.99,5,3,12,5,1,2,1,12
51.995,53,90,11,5,1,4,2,0
52,17,34,6,0,6,2,3,7
52.005,128,48,6,4,1,2,3,11
52.01,126,69,2,6,6,6,9,32
52.015,39,16,8,4,2,3,9,11
52.02,12,20,6,7,4,1,2,1
52.025,3,22,5,1,3,2,2,21
52.03,54,6,4,5,6,3,6,38
52.035,36,42,1,4,5,0,2,7
52.04,43,12,5,0,0,1,2,4
52.045,6,6,5,0,0,1,0,10
52.05,5,28,1,1,4,1,0,6
52.055,0,4,1,2,2,2,4,4
52.06,8,14,1,0,1,1,2,2
52.065,15,18,4,2,4,1,1,1
52.07,6,6,0,2,1,1,2,5
52.075,4,13,3,3,0,1,1,0
52.08,6,10,4,1,0,2,3,3
52.085,2,24,3,0,2,0,1,2
52.09,5,19,2,1,1,1,3,5
52.095,16,3,1,3,3,3,5,1
52.1,12,2,2,4,0,0,2,1
52.105,5,7,3,2,2,1,0,4
52.11,2,20,4,1,1,1,0,2
52.115,2,3,3,1,1,1,3,4
52.12,8,6,0,1,1,0,1,1
52.125,5,3,2,0,1,2,2,4
52.13,4,2,0,2,1,1,0,3
52.135,6,3,3,2,0,2,2,3
52.14,6,2,0,3,0,3,1,1
52.145,3,7,0,1,0,1,0,2
52.15,2,7,1,0,1,2,1,2
52.155,23,1,0,0,0,1,1,2
52.16,23,7,1,1,0,0,0,4
52.165,4,4,3,1,0,3,1,0
52.17,3,1,1,0,2,3,3,1
52.175,6,5,3,4,3,2,1,1
52.18,3,3,2,0,0,1,1,1
52.185,1,11,2,1,1,0,0,2
52.19,1,46,5,1,2,2,1,2
52.195,3,17,0,1,0,1,4,4
52.2,6,1,0,1,1,3,2,4
52.205,5,5,1,0,0,2,0,1
52.21,5,1,3,1,3,0,0,0
52.215,10,5,1,1,1,1,0,0
52.22,5,1,1,2,1,2,2,1
52.225,0,4,0,4,3,3,1,1
52.23,2,10,1,3,1,0,1,0
52.235,2,0,4,6,3,4,2,0
52.24,2,8,1,0,1,0,2,1
52.245,5,2,2,0,1,0,1,4
52.25,1,6,2,0,2,1,2,0
52.255,6,1,2,2,0,2,3,0
52.26,5,2,2,0,3,1,0,3
52.265,1,2,3,1,5,2,1,0
52.27,1,4,1,1,8,1,3,1
52.275,3,4,1,2,11,7,3,2
52.28,3,3,2,3,2,6,3,0
52.285,1,1,0,2,3,1,1,1
52.29,1,7,1,1,6,7,2,1
52.295,2,2,1,13,8,1,6,4
52.3,1,2,3,0,9,7,2,1
52.305,1,0,0,7,3,3,0,0
52.31,0,3,4,34,40,2,0,4
52.315,2,2,4,27,44,6,3,0
52.32,2,2,6,25,63,5,1,1
52.325,4,2,1,6,11,8,6,1
52.33,1,0,1,11,30,6,1,1
52.335,1,1,3,9,75,6,6,1
52.34,3,3,1,14,54,4,3,3
52.345,2,1,2,10,13,1,1,2
52.35,3,2,6,21,5,9,4,2
52.355,1,4,8,10,17,7,7,4
52.36,2,1,3,8,1,2,5,1
52.365,1,1,2,4,32,5,1,0
52.37,1,3,1,27,59,1,1,1
52.375,2,2,3,65,48,1,1,1
52.38,4,3,7,25,22,10,4,3
52.385,1,2,0,5,6,2,1,0
52.39,2,1,1,3,59,0,1,1
52.395,3,1,0,33,0,12,6,3
52.4,0,1,4,15,7,6,1,1
52.405,2,0,2,5,50,5,2,2
52.41,3,3,2,12,21,4,4,4
52.415,1,1,1,13,21,3,3,3
52.42,2,1,0,10,64,12,1,1
52.425,1,1,2,4,29,1,1,1
52.43,3,5,12,40,25,4,3,2
52.435,1,3,8,42,1,4,1,1
52.44,6,6,7,43,64,17,11,6
52.445,0,1,4,7,80,7,8,2
52.45,0,0,0,38,47,12,1,1
52.455,1,2,0,83,3,0,2,3
52.46,0,2,3,11,17,7,1,0
52.465,3,2,1,22,36,9,1,2
52.47,1,3,2,11,59,1,3,0
52.475,2,3,2,46,32,3,5,2
52.48,3,2,7,4,51,8,4,1
52.485,0,2,4,7,39,4,5,4
52.49,1,3,0,27,85,6,4,4
52.495,2,1,1,8,74,6,1,1
52.5,4,0,3,10,84,9,2,1
52.505,1,1,8,5,73,7,3,1
52.51,0,1,1,12,15,1,1,2
52.515,2,2,2,23,47,7,1,1
52.52,1,3,3,22,51,3,2,1
52.525,2,4,9,1,105,8,4,1
52.53,1,1,2,36,64,6,1,1
52.535,5,2,4,17,32,2,5,6
52.54,1,0,3,23,62,5,2,2
52.545,0,1,2,7,9,1,4,2
52.55,1,2,4,2,6,5,4,4
52.555,2,0,0,17,23,6,2,3
52.56,1,0,2,15,24,9,4,1
52.565,1,2,5,12,2,4,1,3
52.57,3,0,1,0,2,2,2,2
52.575,2,2,1,3,35,4,4,3
52.58,1,1,2,26,64,4,1,2
52.585,2,2,1,21,38,4,1,1
52.59,5,6,4,25,42,9,8,8
52.595,2,0,2,2,0,3,1,1
52.6,1,0,1,3,46,9,2,1
52.605,2,5,4,27,36,1,5,4
52.61,1,1,0,32,74,2,2,0
52.615,1,2,3,52,2,8,5,2
52.62,1,2,4,32,18,1,2,0
52.625,4,2,1,2,12,4,1,2
52.63,0,1,1,11,11,5,1,3
52.635,0,4,2,13,18,2,1,1
52.64,1,3,3,7,16,2,0,0
52.645,1,2,3,2,48,1,0,1
52.65,3,4,7,23,81,9,4,3
52.655,1,1,0,10,49,5,3,3
52.66,1,2,3,4,40,1,3,1
52.665,2,2,2,9,36,4,5,5
52.67,2,2,3,13,22,6,2,3
52.675,1,2,6,26,48,1,3,1
52.68,1,0,0,12,36,1,1,1
52.685,3,1,2,0,37,2,3,4
52.69,1,1,2,25,80,4,1,2
52.695,3,3,6,51,110,12,5,4
52.7,1,0,2,19,10,3,1,1
52.705,2,5,5,21,15,4,4,2
52.71,1,0,1,16,18,2,2,0
52.715,1,0,2,1,2,1,1,1
52.72,0,1,2,2,8,4,1,0
52.725,0,0,1,31,74,1,2,1
52.73,0,1,3,48,109,7,1,1
52.735,3,3,0,10,85,1,1,1
52.74,2,1,3,7,49,11,5,3
52.745,1,0,3,33,100,2,2,1
52.75,3,4,4,52,43,6,5,4
52.755,1,3,4,3,33,0,0,1
52.76,1,2,0,10,51,4,4,2
52.765,3,3,5,3,54,4,2,2
52.77,1,0,3,9,13,2,0,1
52.775,1,1,4,1,18,2,3,3
52.78,3,0,2,24,41,6,6,8
52.785,1,1,3,3,31,2,1,6
52.79,1,1,0,15,30,2,1,0
52.795,0,1,3,11,42,3,3,1
52.8,0,3,3,1,26,0,2,2
52.805,0,0,1,0,13,0,2,6
52.81,0,0,0,2,35,1,1,1
52.815,4,3,3,8,45,8,4,9
52.82,1,1,2,1,2,3,0,8
52.825,4,3,3,22,30,5,0,6
52.83,1,0,0,15,44,2,1,3
52.835,2,2,6,31,122,5,0,3
52.84,0,4,10,59,61,5,1,2
52.845,2,1,1,3,15,6,2,10
52.85,2,2,3,11,42,1,4,2
52.855,1,1,3,4,30,4,0,28
52.86,6,1,2,3,35,9,5,16
52.865,1,3,0,7,11,5,5,3
52.87,6,0,3,6,8,3,1,0
52.875,15,2,3,4,47,5,4,45
52.88,0,1,1,2,84,5,1,50
52.885,3,6,5,52,49,6,4,13
52.89,15,8,3,16,45,2,1,1
52.895,0,2,1,6,29,1,3,25
52.9,9,0,3,29,27,5,0,45
52.905,18,0,1,11,2,3,0,27
52.91,3,3,0,12,27,5,2,7
52.915,5,2,2,9,5,2,1,2
52.92,6,2,0,4,19,0,1,42
52.925,28,5,3,3,4,2,3,35
52.93,39,3,2,1,5,1,1,2
52.935,6,1,3,1,12,2,3,2
52.94,13,0,4,4,8,5,6,18
52.945,7,4,0,4,12,4,3,26
52.95,9,1,1,9,15,0,2,15
52.955,4,0,1,5,3,2,0,3
52.96,1,2,2,3,15,1,1,5
52.965,10,3,4,10,2,5,6,26
52.97,80,3,0,2,2,3,5,5
52.975,45,1,1,10,13,6,6,25
52.98,21,1,1,6,1,1,5,57
52.985,32,2,1,7,3,2,2,2
52.99,24,4,1,6,12,1,3,6
52.995,21,7,3,4,11,2,3,8
53,21,3,2,2,9,6,5,1
53.005,4,4,5,7,7,2,5,1
53.01,14,10,3,4,3,1,3,6
53.015,27,5,2,2,1,0,1,11
53.02,21,18,2,1,4,2,3,1
53.025,1,5,1,0,2,0,3,2
53.03,12,8,1,1,5,3,2,21
53.035,2,49,1,2,1,2,0,14
53.04,1,19,3,1,4,2,1,11
53.045,10,2,4,1,4,0,3,3
53.05,10,1,2,1,2,1,1,7
53.055,3,11,0,4,0,0,2,16
53.06,3,2,1,1,4,1,1,10
53.065,14,3,2,4,2,2,3,5
53.07,16,2,2,4,4,1,5,0
53.075,4,10,1,2,2,1,0,3
53.08,6,1,1,4,1,0,1,9
53.085,7,9,2,2,3,1,0,1
53.09,12,4,3,3,2,0,2,1
53.095,4,8,1,2,5,1,1,1
53.1,7,4,1,3,1,1,4,5
53.105,4,1,0,1,5,1,1,2
53.11,7,2,1,0,2,0,2,6
53.115,7,7,5,6,1,3,4,1
53.12,2,1,1,5,3,2,3,3
53.125,4,0,5,5,4,3,4,2
53.13,4,0,1,4,2,1,3,3
53.135,8,10,1,5,3,1,0,3
53.14,1,1,3,1,6,1,0,3
53.145,0,3,0,1,1,2,6,7
53.15,10,1,3,2,0,3,3,2
53.155,4,4,4,2,1,2,1,3
53.16,4,2,4,6,6,1,1,3
53.165,15,0,1,1,3,3,1,5
53.17,0,0,1,6,2,0,0,1
53.175,0,3,4,3,5,1,2,2
53.18,5,1,5,12,9,2,1,3
53.185,8,3,3,1,1,4,4,1
53.19,5,0,1,3,4,2,1,0
53.195,1,10,2,4,1,2,0,2
53.2,6,1,2,3,3,2,1,4
53.205,0,1,0,2,1,1,0,0
53.21,20,1,1,1,1,1,0,1
53.215,8,1,3,1,3,2,1,0
53.22,2,3,2,1,0,4,4,5
53.225,6,2,1,4,6,2,3,1
53.23,11,2,1,0,1,2,4,5
53.235,7,3,4,0,1,1,0,1
53.24,0,0,1,2,1,1,1,1
53.245,3,2,2,0,2,0,1,1
53.25,5,5,4,2,1,2,1,2
53.255,8,0,0,3,2,2,1,3
53.26,4,1,1,0,1,3,1,2
53.265,6,3,2,5,0,0,2,2
53.27,3,0,3,4,3,1,1,1
53.275,2,1,1,2,1,0,0,1
53.28,11,1,0,3,1,3,2,2
53.285,3,2,2,2,0,1,1,1
53.29,2,0,1,4,3,3,3,2
53.295,2,1,0,4,1,1,0,3
53.3,4,1,1,10,1,0,1,3
53.305,1,0,1,5,0,1,3,2
53.31,5,1,3,10,1,0,1,1
53.315,5,2,2,2,4,0,0,2
53.32,2,2,3,1,0,1,0,1
53.325,0,0,0,0,4,4,3,1
53.33,3,1,3,3,3,2,2,4
53.335,0,1,2,7,2,2,2,0
53.34,2,1,2,6,4,3,3,3
53.345,0,1,0,1,4,1,0,0
53.35,1,2,2,8,6,8,4,4
53.355,2,3,1,11,16,0,5,2
53.36,1,1,0,16,5,3,2,1
53.365,3,1,1,17,13,1,4,1
53.37,0,2,4,7,10,0,7,1
53.375,0,2,7,9,28,9,1,1
53.38,4,2,4,15,20,1,2,1
53.385,2,2,2,34,45,10,1,0
53.39,1,2,6,5,24,5,6,2
53.395,0,1,2,3,27,19,7,1
53.4,2,2,2,31,47,9,4,2
53.405,0,0,0,79,44,12,0,1
53.41,0,3,4,39,35,10,0,2
53.415,3,2,5,52,53,2,1,1
53.42,1,1,3,28,75,1,7,4
53.425,0,1,2,44,18,0,1,4
53.43,1,2,4,38,59,8,5,3
53.435,3,5,9,4,4,15,5,3
53.44,0,1,2,9,27,8,0,1
53.445,0,1,3,14,1,10,2,2
53.45,0,0,1,27,26,2,9,4
53.455,4,2,5,2,11,3,3,0
53.46,1,1,7,57,32,5,1,1
53.465,3,3,5,23,23,10,6,3
53.47,1,0,5,32,43,5,2,0
53.475,1,1,0,39,66,11,7,3
53.48,3,4,7,32,80,14,8,5
53.485,6,5,7,81,66,13,14,11
53.49,3,2,9,74,1,11,8,5
53.495,2,1,1,2,72,17,7,2
53.5,1,1,4,20,25,2,2,2
53.505,1,0,0,6,23,3,3,1
53.51,7,5,0,74,109,13,9,5
53.515,2,3,6,56,63,7,1,4
53.52,4,2,5,38,128,8,4,5
53.525,2,1,3,42,119,12,8,4
53.53,5,4,10,0,53,14,9,7
53.535,2,4,9,48,42,7,3,2
53.54,2,0,1,11,44,6,0,2
53.545,4,4,8,45,3,6,8,6
53.55,1,2,4,26,67,0,3,1
53.555,1,2,9,113,80,13,1,3
53.56,5,4,12,36,68,20,6,8
53.565,4,1,0,1,75,3,4,2
53.57,1,2,1,9,79,9,3,3
53.575,4,2,2,14,36,2,4,1
53.58,2,3,1,25,37,1,2,3
53.585,3,1,2,19,78,2,1,1
53.59,2,1,1,2,28,1,1,4
53.595,3,3,4,25,45,1,5,8
53.6,2,0,3,46,33,0,3,12
53.605,4,1,1,21,13,5,4,19
53.61,2,1,2,9,3,8,4,2
53.615,0,2,2,15,29,4,2,2
53.62,2,1,2,10,28,4,2,1
53.625,0,1,3,21,1,1,3,4
53.63,1,0,1,5,87,6,1,1
53.635,1,3,2,19,128,12,2,2
53.64,6,3,1,23,101,4,4,0
53.645,2,0,2,15,1,3,1,3
53.65,0,2,2,39,127,6,1,3
53.655,4,5,13,88,128,13,5,4
53.66,2,0,2,1,26,0,2,1
53.665,3,2,2,31,84,2,2,4
53.67,0,1,1,11,14,1,3,1
53.675,2,0,2,46,13,1,1,1
53.68,3,4,6,60,92,8,2,4
53.685,1,0,2,8,33,2,1,1
53.69,1,2,0,3,80,3,3,0
53.695,2,1,3,0,86,2,1,2
53.7,3,2,1,13,64,1,2,5
53.705,1,1,1,1,24,1,0,4
53.71,2,4,2,21,18,3,3,0
53.715,0,3,6,15,10,5,0,1
53.72,0,2,2,32,49,1,1,3
53.725,3,2,3,8,19,4,3,5
53.73,1,2,5,15,15,2,4,4
53.735,0,2,1,7,20,2,2,5
53.74,5,4,4,13,21,1,2,6
53.745,1,0,3,10,51,3,2,4
53.75,1,4,4,4,6,2,0,0
53.755,2,3,4,15,56,5,4,0
53.76,3,1,1,34,37,0,2,1
53.765,1,1,0,9,19,1,1,2
53.77,1,3,6,18,15,3,2,7
53.775,1,2,1,15,70,3,1,3
53.78,0,3,4,25,35,5,2,9
53.785,2,1,1,7,13,3,1,12
53.79,6,0,1,2,4,0,1,23
53.795,5,2,4,13,20,3,3,0
53.8,3,6,2,3,6,2,3,12
53.805,0,2,2,2,13,0,3,14
53.81,8,0,3,18,16,7,3,14
53.815,18,5,2,3,5,2,1,28
53.82,29,5,1,12,6,1,2,45
53.825,9,1,2,16,10,3,4,10
53.83,3,11,3,14,20,1,5,18
53.835,21,8,1,2,7,1,0,19
53.84,45,9,4,2,1,4,0,15
53.845,9,48,11,10,6,7,6,1
53.85,26,24,11,11,8,0,5,11
53.855,34,29,4,11,18,2,6,15
53.86,18,10,4,9,10,2,5,22
53.865,2,51,1,5,2,2,1,3
53.87,29,36,16,1,4,3,6,28
53.875,8,20,0,5,1,0,2,1
53.88,55,27,4,5,6,3,3,32
53.885,34,19,0,4,4,7,9,30
53.89,10,34,7,4,7,2,1,0
53.895,57,5,16,7,8,2,4,3
53.9,77,13,1,0,0,2,3,11
53.905,15,64,4,6,5,1,3,33
53.91,23,18,15,4,2,2,4,2
53.915,40,105,31,8,2,1,4,9
53.92,40,5,1,2,4,3,5,15
53.925,9,14,7,3,5,1,1,5
53.93,39,16,9,4,3,1,2,5
53.935,32,2,3,4,3,2,1,7
53.94,2,1,3,2,2,4,6,13
53.945,24,25,8,1,3,2,0,3
53.95,8,13,3,5,4,3,4,8
53.955,10,28,5,4,6,2,0,1
53.96,7,14,4,1,1,3,2,7
53.965,11,36,6,0,0,1,4,6
53.97,6,3,2,0,1,2,1,2
53.975,4,8,19,7,1,1,0,2
53.98,10,9,3,3,0,2,1,4
53.985,11,4,3,2,4,2,0,0
53.99,20,2,2,1,3,0,2,1
53.995,6,9,6,3,5,1,0,2
54,24,0,2,3,1,2,4,6
54.005,8,12,1,4,0,1,2,5
54.01,10,4,4,0,0,1,2,0
54.015,5,23,15,1,0,0,2,2
54.02,9,11,6,1,0,1,3,4
54.025,2,39,7,1,1,1,0,4
54.03,1,14,3,3,4,1,3,3
54.035,8,1,5,2,0,0,1,1
54.04,2,10,3,1,2,3,0,1
54.045,10,0,6,0,1,2,2,1
54.05,2,5,1,4,4,2,2,0
54.055,7,7,8,2,1,2,3,4
54.06,2,0,2,1,4,3,2,4
54.065,12,9,3,1,1,0,0,0
54.07,3,0,0,2,1,0,0,1
54.075,1,6,5,1,3,2,2,1
54.08,4,1,0,0,1,2,3,4
54.085,1,16,4,2,1,0,0,1
54.09,2,5,0,2,0,0,0,0
54.095,1,5,2,0,1,1,0,0
54.1,10,8,4,1,3,3,3,3
54.105,3,0,0,0,4,2,2,1
54.11,2,3,1,0,1,1,1,0
54.115,1,2,1,3,0,0,0,0
54.12,0,3,3,1,1,1,0,0
54.125,1,10,1,1,0,1,1,1
54.13,1,1,4,1,3,2,3,2
54.135,0,3,3,0,0,2,2,1
54.14,3,2,1,3,2,1,1,0
54.145,0,4,0,0,1,1,0,1
54.15,3,2,3,2,1,3,1,2
54.155,2,1,2,1,0,1,1,1
54.16,3,5,1,0,2,0,0,3
54.165,0,5,2,0,2,1,2,2
54.17,2,4,2,4,7,1,0,1
54.175,0,0,3,1,0,2,0,1
54.18,1,2,1,0,3,0,0,2
54.185,1,3,1,1,2,4,3,0
54.19,2,2,2,1,1,2,1,1
54.195,1,1,1,0,2,2,0,1
54.2,4,1,2,2,13,3,1,1
54.205,2,1,0,1,15,3,4,1
54.21,3,6,2,2,12,1,0,1
54.215,1,3,5,3,0,0,1,0
54.22,3,6,4,6,2,3,1,2
54.225,4,8,1,7,6,7,9,3
54.23,4,2,6,27,34,7,1,3
54.235,0,1,1,8,5,13,5,1
54.24,1,1,0,0,23,13,4,0
54.245,3,6,2,13,1,6,0,3
54.25,1,3,0,2,2,2,2,2
54.255,0,4,5,1,39,2,5,0
54.26,5,3,6,30,16,3,3,3
54.265,0,3,3,41,40,7,0,0
54.27,3,3,0,6,14,3,1,1
54.275,0,2,3,8,15,0,1,1
54.28,0,1,2,37,10,8,2,1
54.285,1,1,2,14,20,2,2,1
54.29,1,1,2,47,40,0,0,3
54.295,3,7,7,22,61,14,7,5
54.3,2,1,1,11,29,0,2,1
54.305,1,0,3,18,14,1,0,1
54.31,0,0,2,54,79,2,4,1
54.315,2,2,3,33,33,2,2,0
54.32,1,3,5,25,40,7,4,1
54.325,3,2,0,12,51,0,4,5
54.33,1,1,6,39,70,6,5,1
54.335,2,2,7,13,117,13,5,2
54.34,3,3,10,7,82,8,2,2
54.345,2,2,3,50,39,3,0,1
54.35,2,2,2,20,61,7,0,2
54.355,0,1,6,25,37,1,2,1
54.36,3,4,3,31,39,1,5,0
54.365,2,1,0,41,66,2,2,0
54.37,3,3,9,4,19,8,5,3
54.375,0,0,4,20,83,3,5,3
54.38,0,0,1,73,121,8,3,2
54.385,0,1,4,3,39,1,3,0
54.39,1,1,0,8,12,3,1,1
54.395,3,1,3,21,0,2,1,2
54.4,2,2,8,29,5,10,7,3
54.405,3,4,9,18,31,14,7,5
54.41,0,1,1,9,29,4,3,0
54.415,0,1,1,10,29,2,1,2
54.42,1,1,2,14,27,4,4,2
54.425,1,2,0,6,30,3,2,0
54.43,1,3,0,15,36,0,2,1
54.435,1,3,5,31,28,4,1,0
54.44,1,1,4,17,42,0,2,0
54.445,1,0,1,8,63,0,1,2
54.45,3,4,1,34,28,5,3,2
54.455,0,0,4,19,11,2,0,0
54.46,3,2,0,26,25,1,3,3
54.465,2,3,6,45,103,9,1,2
54.47,1,0,2,8,71,5,3,2
54.475,2,4,4,6,59,4,2,2
54.48,0,0,0,24,49,1,1,1
54.485,0,1,5,15,64,6,1,1
54.49,5,3,7,51,19,16,7,5
54.495,0,0,1,4,29,2,0,1
54.5,1,1,2,4,60,1,1,1
54.505,1,3,5,5,8,6,4,2
54.51,0,1,2,21,16,6,3,0
54.515,0,2,3,8,25,17,3,1
54.52,4,3,1,21,89,7,1,1
54.525,1,1,3,38,83,7,0,1
54.53,3,2,1,8,14,8,3,3
54.535,1,1,5,22,85,2,2,4
54.54,4,4,10,38,87,5,4,2
54.545,0,1,4,17,54,0,2,1
54.55,1,5,6,52,82,3,2,1
54.555,1,1,4,18,17,1,0,0
54.56,3,4,5,2,68,5,4,4
54.565,2,0,2,6,9,2,2,0
54.57,1,0,0,2,33,9,1,1
54.575,1,1,5,14,4,0,4,3
54.58,6,4,11,6,27,6,4,6
54.585,1,3,1,17,29,2,5,0
54.59,0,2,3,9,60,2,1,1
54.595,3,4,9,42,22,13,7,8
54.6,0,1,3,10,15,6,2,0
54.605,0,1,4,21,29,4,5,3
54.61,3,1,2,1,6,1,0,2
54.615,3,1,1,6,15,5,4,1
54.62,1,0,1,3,14,0,1,2
54.625,1,1,3,6,92,0,1,1
54.63,0,2,0,26,97,1,5,3
54.635,4,6,10,31,88,2,4,5
54.64,4,3,3,53,61,24,7,7
54.645,3,3,1,20,67,7,2,1
54.65,1,1,1,7,21,1,1,1
54.655,0,0,1,7,16,1,1,0
54.66,1,1,3,27,92,6,0,2
54.665,0,1,2,19,28,1,1,1
54.67,2,2,5,1,59,1,2,3
54.675,3,0,3,8,26,5,4,3
54.68,1,1,4,15,33,9,4,5
54.685,0,3,5,21,71,6,0,1
54.69,1,0,1,7,34,5,3,1
54.695,0,0,1,16,56,10,3,2
54.7,0,0,5,28,85,13,2,1
54.705,1,1,2,15,28,9,3,3
54.71,4,3,11,76,54,12,5,4
54.715,2,0,1,8,39,4,2,0
54.72,1,2,2,10,0,5,3,3
54.725,1,1,0,3,12,2,1,2
54.73,3,2,1,13,33,2,2,1
54.735,1,0,0,15,33,2,0,0
54.74,1,0,2,7,18,3,2,2
54.745,3,5,4,22,12,6,4,4
54.75,1,1,1,2,61,2,3,2
54.755,4,2,1,13,8,1,2,3
54.76,0,2,1,3,18,5,2,1
54.765,2,1,2,0,12,2,2,4
54.77,2,0,3,31,67,6,3,1
54.775,0,2,6,69,51,5,1,1
54.78,0,4,1,13,16,6,6,6
54.785,0,5,1,3,8,1,2,2
54.79,1,3,1,16,15,2,2,7
54.795,1,1,1,17,28,1,1,5
54.8,0,2,1,1,16,1,0,7
54.805,0,1,2,12,22,0,0,38
54.81,2,8,4,6,3,3,4,47
54.815,1,6,0,16,11,3,3,12
54.82,4,2,0,13,16,0,1,1
54.825,3,4,1,9,10,1,1,4
54.83,16,31,3,8,8,3,3,21
54.835,17,14,1,5,22,2,3,3
54.84,4,8,0,8,10,1,0,8
54.845,0,7,3,2,4,0,3,0
54.85,41,14,5,0,4,0,3,10
54.855,8,44,6,6,3,1,4,4
54.86,21,62,4,0,9,2,4,39
54.865,24,30,6,6,9,2,1,40
54.87,63,40,6,6,1,0,1,2
54.875,29,7,4,16,20,2,1,0
54.88,11,17,7,4,10,2,0,8
54.885,15,5,14,9,1,3,4,16
54.89,78,35,9,1,1,1,2,17
54.895,17,3,9,5,7,1,1,11
54.9,25,5,12,4,6,2,4,20
54.905,62,16,10,2,3,1,2,14
54.91,7,23,1,5,1,2,1,4
54.915,12,28,8,2,2,2,2,4
54.92,8,8,3,2,3,1,1,20
54.925,12,2,2,1,2,1,2,14
54.93,6,5,2,2,2,4,3,12
54.935,3,0,3,0,5,1,3,7
54.94,4,6,4,2,6,2,1,1
54.945,11,22,2,0,0,0,3,5
54.95,39,14,3,1,2,2,4,5
54.955,25,16,1,5,5,6,3,6
54.96,0,27,2,2,1,1,1,8
54.965,3,1,0,6,1,6,4,7
54.97,7,4,1,10,1,2,2,0
54.975,19,10,1,12,3,1,0,3
54.98,9,11,1,13,6,0,3,2
54.985,19,14,3,2,10,5,2,0
54.99,10,14,8,1,2,6,2,8
54.995,14,9,3,8,16,4,0,4
55,4,9,1,4,9,1,1,2
55.005,55,4,0,0,6,4,3,7
55.01,48,5,1,2,15,3,1,7
55.015,2,6,1,2,10,1,2,4
55.02,10,2,1,7,12,3,0,5
55.025,3,5,1,4,2,4,1,1
55.03,8,0,2,0,4,2,2,3
55.035,11,5,0,0,7,2,4,5
55.04,12,14,2,6,2,1,0,5
55.045,7,23,3,5,7,1,0,1
55.05,5,2,3,2,3,4,4,3
55.055,1,8,2,0,3,1,1,0
55.06,8,25,7,1,4,2,2,8
55.065,16,27,7,0,4,1,3,1
55.07,4,18,3,3,4,0,1,1
55.075,9,14,1,1,4,0,2,3
55.08,16,6,0,4,1,2,1,5
55.085,3,1,5,4,4,2,4,3
55.09,5,9,3,3,6,3,3,2
55.095,1,11,1,1,6,0,0,1
55.1,12,6,2,3,1,2,2,0
55.105,8,2,2,5,5,0,1,1
55.11,2,1,0,1,3,1,0,3
55.115,8,4,3,2,3,0,0,2
55.12,7,3,1,1,2,1,2,0
55.125,2,6,0,1,2,2,2,1
55.13,4,3,2,1,1,2,2,0
55.135,4,3,1,1,6,1,1,0
55.14,1,1,1,2,9,3,2,2
55.145,5,3,3,1,2,3,2,3
55.15,3,3,2,1,4,7,3,3
55.155,1,1,2,2,4,3,1,1
55.16,1,1,0,0,3,1,3,2
55.165,1,2,3,6,7,4,2,0
55.17,4,4,1,3,28,4,4,3
55.175,2,2,1,1,1,7,2,3
55.18,5,1,0,1,4,1,5,2
55.185,1,3,4,21,10,3,3,1
55.19,0,1,2,7,26,4,5,0
55.195,2,1,3,2,10,8,6,1
55.2,1,3,4,9,3,4,1,0
55.205,1,0,4,5,6,3,8,3
55.21,1,1,0,8,37,5,2,0
55.215,0,1,1,19,23,3,1,2
55.22,3,5,7,0,4,1,4,1
55.225,1,1,2,12,67,7,2,1
55.23,4,4,4,6,29,2,1,3
55.235,2,1,1,24,19,7,0,1
55.24,1,2,1,0,9,3,1,2
55.245,2,1,1,15,26,6,1,0
55.25,2,2,2,9,45,9,1,2
55.255,1,1,6,19,47,1,4,1
55.26,0,1,1,8,3,1,2,1
55.265,1,0,0,11,15,2,1,3
55.27,2,1,7,2,22,4,2,1
55.275,0,1,3,9,3,0,2,0
55.28,0,1,3,17,14,1,1,1
55.285,3,1,1,15,34,6,4,2
55.29,1,2,8,32,78,5,4,1
55.295,2,1,1,26,54,1,5,4
55.3,0,1,4,13,75,13,3,1
55.305,0,1,0,12,29,2,0,4
55.31,3,2,4,17,15,0,6,1
55.315,1,2,0,20,24,11,2,0
55.32,3,4,9,39,26,4,1,5
55.325,1,2,0,3,18,4,1,1
55.33,1,3,6,18,9,1,2,1
55.335,1,1,2,30,82,4,1,1
55.34,0,0,5,21,99,8,6,2
55.345,1,5,8,6,83,19,7,2
55.35,2,1,5,19,21,8,4,1
55.355,1,2,4,67,3,7,1,0
55.36,1,0,2,1,35,6,0,1
55.365,3,1,0,41,22,9,2,2
55.37,0,3,8,52,15,10,3,3
55.375,3,4,3,20,32,7,5,4
55.38,2,2,4,15,105,15,5,1
55.385,2,2,0,14,24,6,8,3
55.39,1,0,3,37,112,2,3,2
55.395,3,4,6,33,53,5,5,4
55.4,0,1,6,22,1,3,1,0
55.405,3,2,2,75,58,21,1,1
55.41,2,4,8,7,80,4,6,4
55.415,0,2,5,5,31,4,2,1
55.42,2,4,5,12,12,6,2,5
55.425,2,2,6,31,92,7,1,0
55.43,0,1,3,15,40,11,1,0
55.435,2,2,9,2,4,8,2,2
55.44,4,2,4,34,122,15,8,4
55.445,2,1,4,18,73,5,2,2
55.45,2,0,2,17,10,1,1,2
55.455,0,3,6,28,1,3,3,0
55.46,2,0,1,9,7,1,1,1
55.465,2,2,2,8,10,9,0,0
55.47,4,1,5,41,68,7,3,2
55.475,0,1,0,9,14,0,1,0
55.48,2,1,2,23,10,2,0,0
55.485,3,1,2,12,6,1,2,1
55.49,0,1,6,46,42,0,0,1
55.495,1,1,4,17,56,13,0,1
55.5,2,1,1,15,19,4,3,1
55.505,1,2,2,9,40,5,4,2
55.51,2,0,1,11,47,0,1,0
55.515,0,0,2,26,42,7,4,3
55.52,1,1,3,11,43,4,0,8
55.525,2,0,1,9,8,0,2,6
55.53,3,1,2,1,10,5,1,4
55.535,1,0,3,13,18,1,0,1
55.54,3,2,2,9,36,3,4,8
55.545,2,3,4,1,16,3,1,17
55.55,1,3,3,12,0,1,3,35
55.555,3,0,1,18,2,1,5,8
55.56,2,1,2,7,23,0,2,1
55.565,7,1,0,11,3,0,1,2
55.57,3,4,3,22,10,0,3,20
55.575,4,2,6,40,8,2,3,8
55.58,5,1,5,42,40,11,4,1
55.585,2,4,5,5,2,2,2,5
55.59,3,1,1,9,12,1,4,3
55.595,2,0,2,24,20,5,1,1
55.6,2,1,2,11,57,0,2,3
55.605,3,2,3,6,79,2,0,4
55.61,21,1,0,10,15,0,1,5
55.615,23,2,0,3,11,3,3,1
55.62,6,1,2,26,31,0,0,16
55.625,3,2,2,7,40,1,4,13
55.63,5,1,1,0,34,2,1,10
55.635,5,2,0,5,15,0,1,4
55.64,3,2,3,7,27,3,2,7
55.645,13,2,5,23,25,1,1,8
55.65,28,11,1,9,12,3,0,7
55.655,18,39,3,14,19,1,2,1
55.66,3,11,1,1,2,3,1,5
55.665,3,3,3,10,2,2,1,2
55.67,5,15,10,38,15,0,2,9
55.675,12,10,1,14,5,3,2,5
55.68,12,23,3,2,31,0,1,6
55.685,6,2,0,2,1,0,0,2
55.69,1,5,1,2,9,1,2,2
55.695,7,16,2,11,2,4,3,4
55.7,18,24,1,1,13,1,0,0
55.705,4,7,3,1,1,1,1,1
55.71,3,9,2,10,1,3,1,2
55.715,1,1,0,1,5,1,2,2
55.72,5,8,1,1,4,3,2,0
55.725,3,3,1,9,7,1,2,5
55.73,7,2,0,6,5,0,1,0
55.735,2,10,3,1,11,1,1,3
55.74,2,10,2,10,3,1,1,1
55.745,1,1,1,1,2,4,1,0
55.75,12,4,2,4,7,2,2,4
55.755,16,2,0,4,0,4,5,3
55.76,3,1,3,1,3,3,0,4
55.765,7,10,4,1,3,1,2,1
55.77,7,10,3,1,4,2,1,1
55.775,9,5,0,0,9,0,1,1
55.78,3,3,3,2,4,2,2,0
55.785,2,12,0,5,1,1,4,6
55.79,5,6,1,6,1,2,0,2
55.795,3,7,0,4,4,1,0,2
55.8,3,2,5,0,1,2,2,2
55.805,3,0,0,0,4,1,1,2
55.81,6,5,2,3,1,2,3,1
55.815,4,0,0,2,3,2,3,4
55.82,2,18,4,1,1,1,1,2
55.825,0,7,1,4,5,3,0,3
55.83,1,3,1,1,0,2,3,1
55.835,1,2,0,1,0,2,0,1
55.84,8,5,3,3,1,2,2,1
55.845,2,5,1,1,0,2,2,1
55.85,1,7,3,4,1,2,3,0
55.855,5,5,3,1,2,2,1,3
55.86,4,13,2,1,1,2,4,3
55.865,2,25,2,2,2,3,3,0
55.87,2,14,6,3,3,3,2,2
55.875,1,14,1,1,3,3,1,2
55.88,0,3,1,1,2,1,0,0
55.885,1,3,2,0,1,2,2,2
55.89,3,2,0,1,1,1,2,2
55.895,0,8,1,2,0,0,1,0
55.9,0,2,1,1,1,2,1,0
55.905,5,1,0,1,0,1,2,2
55.91,3,4,0,2,2,3,3,3
55.915,8,11,1,0,1,1,0,1
55.92,1,4,1,1,1,1,0,1
55.925,2,10,0,4,3,1,1,0
55.93,0,3,2,1,1,2,1,0
55.935,4,7,1,0,2,1,3,1
55.94,2,7,1,1,4,3,0,2
55.945,0,3,0,1,0,1,0,0
55.95,2,1,2,0,1,1,1,2
55.955,3,2,3,2,0,2,1,1
55.96,1,2,1,2,0,2,3,1
55.965,1,1,3,2,6,3,1,1
55.97,1,1,1,1,6,2,0,1
55.975,2,5,3,8,5,0,0,1
55.98,2,1,2,1,13,1,4,1
55.985,1,1,0,5,23,5,4,1
55.99,2,4,0,2,4,5,2,4
55.995,2,0,2,7,6,4,0,1
56,3,3,5,3,17,6,4,3
56.005,1,0,5,14,1,4,2,2
56.01,0,1,0,6,3,5,5,1
56.015,2,0,0,12,5,6,3,0
56.02,0,1,0,21,6,0,4,1
56.025,0,1,1,7,14,6,3,3
56.03,3,1,3,4,23,1,5,2
56.035,0,2,1,1,10,0,2,0
56.04,0,0,9,52,3,0,2,2
56.045,2,3,3,1,16,4,3,0
56.05,1,2,0,4,2,7,1,2
56.055,2,0,2,9,45,5,2,4
56.06,2,1,2,6,2,17,6,1
56.065,2,0,2,20,33,1,1,1
56.07,1,0,3,29,9,2,1,1
56.075,1,1,2,27,10,10,1,2
56.08,1,0,2,23,33,0,2,2
56.085,1,1,0,24,10,4,5,4
56.09,1,3,14,94,83,7,3,2
56.095,1,0,0,25,34,5,1,0
56.1,0,2,2,20,12,18,5,1
56.105,1,2,1,47,76,8,0,1
56.11,1,2,11,52,92,10,4,1
56.115,4,5,10,76,90,24,4,2
56.12,1,1,3,4,6,7,3,1
56.125,0,0,2,37,10,2,5,0
56.13,0,1,6,51,2,6,2,2
56.135,1,1,2,2,0,23,5,4
56.14,1,3,1,32,36,4,3,0
56.145,3,4,5,22,39,7,3,2
56.15,4,1,4,18,56,7,2,2
56.155,1,1,1,20,125,6,2,0
56.16,3,4,13,92,94,21,5,5
56.165,2,1,1,17,14,11,1,1
56.17,3,4,4,38,74,3,2,4
56.175,1,1,5,37,5,2,6,1
56.18,2,3,3,13,69,9,9,4
56.185,4,4,7,40,67,9,7,5
56.19,1,2,6,22,50,8,5,2
56.195,2,1,4,44,4,2,2,1
56.2,2,1,3,6,24,4,1,1
56.205,0,2,3,24,30,8,2,1
56.21,1,1,2,12,5,3,3,0
56.215,1,3,0,36,61,1,3,3
56.22,1,0,2,27,22,7,2,1
56.225,3,3,4,42,52,3,5,3
56.23,2,3,4,15,106,3,0,2
56.235,2,2,3,19,20,1,2,3
56.24,2,1,0,6,35,13,3,1
56.245,2,4,2,12,18,6,0,0
56.25,0,2,9,43,67,8,0,2
56.255,2,4,15,76,79,10,2,4
56.26,1,1,5,28,41,1,2,1
56.265,3,4,3,14,7,9,5,5
56.27,1,2,7,27,17,7,1,1
56.275,2,3,5,4,70,8,6,2
56.28,1,2,3,14,43,0,4,3
56.285,1,1,3,23,46,1,1,3
56.29,1,0,4,10,62,4,3,1
56.295,2,0,0,9,49,2,1,0
56.3,1,1,3,11,67,4,3,1
56.305,0,1,1,1,16,7,0,2
56.31,1,2,0,9,24,1,1,1
56.315,1,2,3,45,68,1,1,1
56.32,1,2,3,24,63,4,6,3
56.325,2,0,0,3,55,1,1,1
56.33,1,1,1,29,84,9,1,2
56.335,1,1,3,27,86,8,1,2
56.34,4,5,7,18,8,17,8,4
56.345,2,0,2,7,10,9,0,0
56.35,0,0,0,2,34,2,1,1
56.355,0,0,1,8,33,1,2,3
56.36,0,0,2,20,8,8,2,2
56.365,1,3,4,21,31,0,1,0
56.37,1,1,1,20,34,2,0,0
56.375,0,2,3,17,58,0,1,2
56.38,1,1,1,17,4,1,2,0
56.385,0,0,4,19,7,4,3,1
56.39,1,2,4,31,35,2,2,1
56.395,2,2,2,5,37,6,2,1
56.4,1,0,1,11,6,7,3,2
56.405,4,1,1,21,15,1,3,1
56.41,3,1,3,41,45,2,2,2
56.415,1,2,5,8,3,1,2,1
56.42,1,1,0,17,31,2,1,2
56.425,1,1,1,5,36,2,2,2
56.43,2,2,1,5,2,4,2,0
56.435,1,1,3,28,90,3,1,1
56.44,3,3,4,21,83,3,2,2
56.445,0,3,2,4,51,3,2,2
56.45,0,1,2,23,61,1,2,1
56.455,1,1,0,7,42,1,1,1
56.46,2,1,2,6,12,1,0,0
56.465,0,0,1,9,8,0,1,1
56.47,1,0,2,13,22,0,1,0
56.475,1,1,3,27,34,3,2,5
56.48,2,0,0,6,6,0,1,1
56.485,5,4,3,7,7,4,3,12
56.49,2,0,1,3,25,5,1,12
56.495,3,0,3,13,38,1,2,5
56.5,10,4,1,3,4,1,3,3
56.505,14,0,0,1,4,2,3,14
56.51,3,1,0,10,12,1,3,7
56.515,0,4,3,10,24,0,0,5
56.52,2,3,2,0,1,1,2,7
56.525,3,0,2,8,6,1,0,5
56.53,1,1,0,3,1,2,4,3
56.535,4,1,1,8,21,2,1,1
56.54,1,3,1,4,8,1,0,3
56.545,1,0,2,1,4,1,1,4
56.55,2,3,1,2,1,0,0,0
56.555,2,0,0,2,7,3,1,4
56.56,3,2,1,0,2,2,2,1
56.565,2,2,0,2,0,0,2,4
56.57,0,1,0,2,2,2,1,5
56.575,1,0,1,7,6,1,1,0
56.58,2,2,0,3,3,1,2,1
56.585,1,3,3,3,2,2,2,1
56.59,0,2,4,0,3,3,2,4
56.595,2,1,2,4,9,0,3,1
56.6,2,3,2,0,2,0,1,2
56.605,0,1,0,0,1,2,2,1
56.61,0,1,1,3,3,0,1,1
56.615,1,2,1,3,6,3,1,0
56.62,0,0,0,0,1,3,1,2
56.625,0,2,3,3,1,2,1,2
56.63,2,2,0,1,0,3,6,4
56.635,3,1,3,6,8,2,1,1
56.64,0,2,1,2,1,0,1,0
56.645,2,1,1,0,1,0,1,0
56.65,3,1,1,4,4,3,2,2
56.655,2,1,0,0,1,0,1,0
56.66,2,2,1,1,1,1,1,1
56.665,1,1,2,1,1,1,0,2
56.67,0,3,4,1,1,0,0,1
56.675,0,0,1,2,2,1,0,1
56.68,2,1,0,1,0,2,1,1
56.685,2,1,0,2,2,1,2,1
56.69,1,2,1,1,1,2,0,1
56.695,0,0,3,1,1,0,1,2
56.7,1,2,1,1,1,2,1,2
56.705,2,0,3,4,0,1,0,1
56.71,1,2,2,1,0,2,1,0
56.715,1,0,1,2,3,2,3,0
56.72,2,2,4,1,0,2,1,1
56.725,3,1,1,1,0,1,2,4
56.73,2,2,2,1,1,2,3,2
56.735,1,1,1,1,0,0,1,1
56.74,3,0,0,2,3,0,2,2
56.745,2,2,6,1,1,1,2,2
56.75,0,0,0,2,1,0,0,1
56.755,0,1,2,1,3,1,2,1
56.76,1,0,0,0,1,1,1,1
56.765,1,0,0,1,1,1,2,1
56.77,2,1,1,1,0,0,1,0
56.775,1,2,2,1,1,0,1,1
56.78,1,0,1,2,1,3,1,3
56.785,0,0,1,1,0,3,3,1
56.79,1,2,2,1,1,0,3,2
56.795,2,2,1,2,1,1,0,0
56.8,1,2,1,2,2,2,0,0
56.805,2,2,1,1,2,1,2,1
56.81,1,0,1,2,2,1,1,1
56.815,3,3,0,0,0,0,2,1
56.82,2,0,0,1,1,2,3,2
56.825,0,2,0,4,0,0,1,0
56.83,0,1,1,0,0,1,0,1
56.835,1,1,0,1,2,0,1,2
56.84,1,2,2,1,2,2,2,3
56.845,1,2,1,2,2,2,1,0
56.85,1,0,1,1,3,3,1,1
56.855,0,0,1,1,2,1,1,1
56.86,0,0,1,1,1,2,0,0
56.865,1,1,1,2,2,2,1,1
56.87,1,2,1,1,2,1,3,0
56.875,0,1,3,8,10,11,6,0
56.88,1,1,0,2,2,5,3,2
56.885,0,1,1,1,3,1,1,2
56.89,3,3,3,0,4,3,3,1
56.895,1,3,3,2,8,7,6,2
56.9,2,0,1,0,10,0,2,2
56.905,1,2,1,5,15,1,1,1
56.91,1,1,3,8,22,13,11,0
56.915,1,0,0,9,6,9,5,4
56.92,1,1,1,2,5,6,3,2
56.925,1,1,2,18,1,5,2,0
56.93,0,1,1,13,9,8,2,1
56.935,2,1,1,4,5,6,1,2
56.94,1,1,0,24,54,5,0,0
56.945,3,4,6,44,20,8,3,4
56.95,1,1,1,20,9,10,3,0
56.955,2,0,2,7,1,2,0,0
56.96,1,0,2,13,27,6,1,1
56.965,1,0,4,4,8,10,1,4
56.97,4,1,1,36,9,14,6,3
56.975,1,5,4,28,34,5,4,2
56.98,1,2,1,3,22,8,4,2
56.985,1,1,3,23,13,0,2,1
56.99,0,1,4,73,49,7,0,1
56.995,2,1,0,22,3,0,3,5
57,3,5,6,11,22,5,4,3
57.005,2,3,5,21,29,4,2,0
57.01,2,2,0,0,40,2,2,2
57.015,2,1,6,41,36,10,3,2
57.02,4,4,11,50,58,13,0,3
57.025,1,2,3,23,57,13,5,0
57.03,2,4,3,34,71,18,2,0
57.035,0,0,10,62,106,14,5,0
57.04,1,2,0,1,40,6,2,0
57.045,1,1,2,13,42,3,4,3
57.05,1,0,2,18,6,11,4,3
57.055,4,2,1,36,72,4,10,6
57.06,0,1,2,53,100,8,7,2
57.065,2,2,2,10,8,4,2,2
57.07,1,0,1,18,22,8,3,2
57.075,2,1,1,24,35,22,4,1
57.08,2,0,0,21,3,10,1,0
57.085,8,6,5,1,63,5,7,8
57.09,2,1,2,4,13,1,4,2
57.095,1,1,4,36,80,4,5,1
57.1,1,1,5,24,58,3,4,1
57.105,1,1,1,23,30,9,6,2
57.11,3,3,7,13,12,5,6,1
57.115,1,2,3,10,37,7,3,1
57.12,2,4,1,34,63,1,4,3
57.125,1,1,1,3,17,1,3,1
57.13,2,2,3,19,54,3,5,4
57.135,0,1,5,54,77,4,4,3
57.14,1,0,5,49,17,9,0,1
57.145,6,6,11,67,46,15,6,5
57.15,0,0,1,16,88,2,4,1
57.155,1,2,1,5,68,8,2,2
57.16,1,2,2,7,13,12,7,3
57.165,1,0,0,17,5,5,0,0
57.17,1,0,3,27,16,9,5,3
57.175,6,6,8,3,38,19,5,6
57.18,1,2,4,8,82,12,4,2
57.185,4,2,3,13,128,9,6,5
57.19,2,1,2,16,127,8,3,1
57.195,6,4,5,1,120,3,6,6
57.2,1,0,0,1,15,16,6,3
57.205,0,1,2,0,10,4,0,2
57.21,1,1,5,9,8,7,2,1
57.215,0,2,6,3,44,2,2,1
57.22,4,5,3,38,3,4,3,6
57.225,0,1,4,40,54,6,0,2
57.23,1,2,6,14,19,5,1,1
57.235,0,2,9,13,5,17,3,0
57.24,3,3,11,40,89,9,1,3
57.245,1,0,2,16,80,16,6,2
57.25,2,1,2,1,92,2,3,1
57.255,2,0,1,3,55,1,3,3
57.26,6,7,6,9,26,29,13,7
57.265,0,0,3,5,83,11,1,2
57.27,0,0,2,16,36,0,2,1
57.275,2,2,3,7,75,12,2,2
57.28,1,1,0,15,7,3,1,1
57.285,1,0,3,2,22,5,1,3
57.29,3,3,3,17,18,1,2,2
57.295,2,1,1,8,15,1,0,0
57.3,2,2,2,9,38,3,0,1
57.305,0,1,1,12,9,10,1,1
57.31,1,0,3,20,6,1,3,0
57.315,0,2,4,5,87,8,2,2
57.32,6,6,8,21,62,7,9,8
57.325,0,1,0,24,48,2,1,0
57.33,0,0,3,4,15,5,4,0
57.335,1,3,9,24,8,10,4,4
57.34,2,0,4,21,58,0,0,1
57.345,4,3,4,13,8,8,6,2
57.35,1,1,2,8,16,3,4,3
57.355,0,2,3,31,52,7,1,0
57.36,2,2,0,9,21,7,3,2
57.365,0,3,3,19,10,6,4,2
57.37,2,1,1,6,7,4,2,1
57.375,1,0,2,7,6,2,1,0
57.38,1,0,0,7,14,1,0,1
57.385,1,2,2,2,17,4,3,2
57.39,2,2,2,4,1,4,6,4
57.395,0,1,3,4,9,1,1,2
57.4,1,2,0,3,5,2,4,0
57.405,11,1,1,3,28,1,2,12
57.41,8,3,2,2,8,0,0,10
57.415,10,2,1,2,13,1,1,0
57.42,0,1,0,3,20,1,0,0
57.425,3,0,1,4,8,2,2,0
57.43,10,3,5,4,13,6,4,16
57.435,7,3,1,9,1,0,1,4
57.44,5,1,3,15,8,0,1,2
57.445,8,4,2,4,3,2,0,3
57.45,1,1,1,2,12,3,1,1
57.455,7,10,1,1,5,1,2,4
57.46,5,5,2,3,12,3,1,4
57.465,12,14,5,11,9,5,1,3
57.47,6,5,3,3,1,1,0,6
57.475,2,1,1,5,3,2,4,6
57.48,26,19,2,1,5,2,1,4
57.485,28,19,5,1,5,2,1,3
57.49,15,9,1,0,3,1,2,0
57.495,1,2,3,1,2,1,1,5
57.5,10,22,3,3,6,1,1,2
57.505,3,16,3,2,4,1,0,1
57.51,2,3,5,0,3,0,1,3
57.515,3,11,2,5,6,3,2,5
57.52,8,3,1,1,2,1,3,0
57.525,6,12,4,0,3,5,4,6
57.53,23,24,1,1,2,1,1,4
57.535,8,8,6,2,6,2,2,9
57.54,8,4,1,1,0,2,0,0
57.545,7,7,1,1,4,1,1,1
57.55,8,2,4,1,8,1,1,1
57.555,0,1,1,2,4,1,0,2
57.56,4,12,2,2,1,4,3,1
57.565,0,16,3,0,2,0,2,2
57.57,5,6,4,2,2,3,3,3
57.575,1,1,2,2,2,1,1,2
57.58,3,10,1,0,1,0,2,1
57.585,2,4,2,1,0,3,3,1
57.59,0,4,3,4,2,1,1,0
57.595,4,1,1,1,0,1,0,0
57.6,3,0,1,3,3,1,3,1
57.605,1,6,0,0,1,1,0,1
57.61,2,7,1,2,3,1,0,2
57.615,2,4,2,3,2,3,4,2
57.62,2,4,1,3,1,1,2,0
57.625,1,2,1,0,0,0,0,1
57.63,5,3,1,1,0,0,2,4
57.635,2,1,3,1,1,1,3,2
57.64,3,2,0,0,2,0,2,1
57.645,1,3,0,2,3,3,1,0
57.65,1,2,2,1,5,1,2,1
57.655,1,2,1,2,0,1,0,1
57.66,1,0,4,6,5,4,3,3
57.665,3,4,0,3,3,3,2,3
57.67,4,1,1,2,1,0,0,1
57.675,0,3,3,1,3,1,0,0
57.68,0,1,1,1,0,0,3,2
57.685,1,2,1,1,1,0,1,1
57.69,0,1,1,1,1,2,2,2
57.695,2,0,1,1,0,2,2,2
57.7,0,1,0,1,1,1,1,0
57.705,1,2,3,2,3,0,3,2
57.71,0,1,0,1,2,0,0,1
57.715,3,3,3,3,2,2,0,3
57.72,4,0,0,1,0,1,0,2
57.725,0,3,1,1,1,2,1,0
57.73,1,1,2,1,1,0,1,1
57.735,1,2,2,4,2,0,0,0
57.74,1,1,1,1,2,1,2,1
57.745,1,1,0,2,2,2,1,2
57.75,1,2,2,2,1,1,3,3
57.755,0,2,1,2,0,1,1,3
57.76,1,1,3,1,1,0,2,1
57.765,1,2,0,1,1,1,2,0
57.77,1,1,4,5,4,4,2,1
57.775,3,0,1,2,0,0,3,2
57.78,2,2,0,0,1,0,2,4
57.785,0,2,0,2,5,1,0,1
57.79,1,0,2,0,0,1,2,3
57.795,1,1,0,1,0,3,1,1
57.8,0,2,2,0,0,3,2,2
57.805,1,3,2,1,5,1,2,1
57.81,2,0,0,2,16,3,4,2
57.815,0,2,2,1,10,1,2,1
57.82,2,0,1,1,14,0,6,2
57.825,1,0,0,2,4,2,4,2
57.83,2,1,0,1,6,1,3,1
57.835,2,0,2,1,2,5,2,1
57.84,2,0,0,0,5,2,7,2
57.845,1,1,1,2,14,4,0,1
57.85,4,5,10,12,6,5,1,2
57.855,1,0,2,20,46,5,5,1
57.86,3,1,4,1,15,0,9,5
57.865,0,1,2,15,9,3,1,1
57.87,1,1,0,2,4,5,4,2
57.875,0,0,0,9,16,5,4,2
57.88,1,2,4,3,8,0,3,0
57.885,2,1,0,3,10,0,2,2
57.89,1,2,0,2,9,3,1,1
57.895,2,1,4,7,9,5,3,3
57.9,0,1,3,29,36,23,7,2
57.905,7,8,16,40,60,11,2,6
57.91,0,2,2,18,52,7,1,1
57.915,3,4,4,30,19,11,10,4
57.92,0,0,0,21,48,9,1,0
57.925,1,0,5,24,58,11,1,2
57.93,3,4,3,5,16,4,4,2
57.935,1,1,3,16,10,2,1,2
57.94,2,1,0,16,11,0,2,1
57.945,2,0,1,8,41,4,2,0
57.95,1,0,1,16,0,1,1,2
57.955,1,1,1,6,46,1,4,3
57.96,2,3,7,37,2,3,2,3
57.965,1,1,2,43,48,3,3,1
57.97,3,2,6,28,23,4,0,3
57.975,3,1,4,50,39,2,6,5
57.98,1,0,1,5,75,9,2,2
57.985,2,2,5,17,39,6,3,2
57.99,1,0,1,31,2,3,1,0
57.995,1,1,1,2,43,0,2,3
58,4,1,1,5,32,12,5,6
58.005,2,2,8,31,36,11,3,3
58.01,6,6,10,62,28,13,7,7
58.015,2,2,2,33,22,2,4,1
58.02,3,1,1,4,12,10,1,1
58.025,4,1,4,11,34,13,1,1
58.03,1,2,6,23,87,17,2,2
58.035,2,1,3,19,33,4,1,3
58.04,1,0,3,12,125,6,3,2
58.045,7,4,3,43,33,6,6,5
58.05,3,3,9,10,18,9,4,5
58.055,4,7,14,11,9,9,5,2
58.06,0,3,3,88,88,1,1,0
58.065,1,2,4,16,23,6,0,0
58.07,2,0,1,15,6,2,4,0
58.075,1,1,1,8,7,9,0,2
58.08,5,4,4,1,56,2,2,5
58.085,1,1,1,6,18,7,2,1
58.09,1,3,1,12,31,2,0,1
58.095,2,2,1,69,47,1,2,3
58.1,2,2,1,10,111,3,0,1
58.105,2,3,4,22,15,3,2,1
58.11,3,0,6,34,120,6,0,1
58.115,0,2,3,24,20,6,2,1
58.12,3,3,4,14,23,2,3,4
58.125,2,2,3,17,42,10,5,3
58.13,3,1,1,15,74,1,5,2
58.135,1,1,2,6,37,4,3,1
58.14,2,2,4,7,57,2,1,3
58.145,1,0,2,1,49,4,1,2
58.15,0,1,1,22,46,5,1,2
58.155,0,0,1,15,40,3,2,1
58.16,2,1,1,13,101,7,0,0
58.165,2,2,0,19,36,6,1,0
58.17,2,2,4,16,16,3,2,0
58.175,0,1,2,14,22,6,1,2
58.18,1,0,3,1,52,4,3,1
58.185,2,4,7,20,52,2,3,4
58.19,2,2,3,8,2,1,1,4
58.195,2,2,0,1,6,12,4,0
58.2,0,0,3,28,47,11,3,1
58.205,0,0,6,33,55,3,1,1
58.21,0,0,4,15,18,1,2,3
58.215,2,2,4,30,30,0,3,2
58.22,0,1,1,19,13,2,1,1
58.225,2,0,1,3,21,2,4,2
58.23,3,2,7,28,65,8,2,0
58.235,1,2,2,9,2,4,2,1
58.24,1,1,3,7,30,1,2,1
58.245,1,0,0,20,52,5,0,2
58.25,3,2,2,2,43,0,1,3
58.255,1,1,0,6,10,1,3,4
58.26,1,0,2,2,19,0,0,1
58.265,1,2,3,16,41,2,0,0
58.27,0,0,1,6,11,10,1,1
58.275,2,1,1,4,15,0,1,1
58.28,0,2,1,24,43,0,1,2
58.285,1,3,3,32,102,1,0,2
58.29,2,0,0,3,15,2,2,0
58.295,1,0,2,3,0,4,2,5
58.3,1,1,2,10,23,1,1,6
58.305,1,0,0,4,11,1,3,3
58.31,4,4,3,9,4,4,2,5
58.315,4,0,1,7,14,1,2,1
58.32,6,2,2,18,17,3,1,2
58.325,6,4,2,2,1,1,1,4
58.33,2,0,1,5,8,2,2,0
58.335,1,3,2,4,8,1,1,9
58.34,24,30,2,5,8,2,1,22
58.345,22,31,7,0,9,1,2,12
58.35,13,9,4,1,5,0,2,6
58.355,6,0,0,4,4,4,1,2
58.36,15,2,2,7,19,2,1,13
58.365,13,6,4,1,1,1,3,0
58.37,19,11,5,3,5,3,2,4
58.375,4,4,2,1,10,1,0,3
58.38,11,4,2,3,1,1,4,10
58.385,21,27,2,6,12,1,2,1
58.39,15,29,2,1,4,1,0,2
58.395,14,6,0,5,2,2,0,5
58.4,10,3,4,4,5,0,2,2
58.405,4,40,1,3,8,2,3,5
58.41,10,27,2,2,5,1,3,3
58.415,11,5,8,2,5,1,2,1
58.42,9,9,2,2,2,0,1,2
58.425,8,18,2,2,1,3,1,3
58.43,0,4,2,1,2,2,3,2
58.435,2,3,2,2,1,1,1,0
58.44,2,2,2,1,3,3,1,7
58.445,4,8,2,1,3,1,0,2
58.45,2,1,4,1,4,3,3,1
58.455,5,5,5,1,2,3,3,3
58.46,7,4,1,8,5,1,2,0
58.465,1,11,1,1,0,2,2,4
58.47,7,2,4,3,2,2,2,0
58.475,4,0,1,2,1,1,2,1
58.48,5,5,5,4,1,1,2,3
58.485,0,5,9,1,3,2,1,2
58.49,2,6,5,2,1,2,0,1
58.495,3,2,1,2,2,4,3,0
58.5,2,1,2,2,3,2,2,3
58.505,2,11,2,2,1,1,0,2
58.51,2,1,6,3,2,1,2,1
58.515,0,1,1,1,3,3,1,3
58.52,2,0,2,3,4,3,3,3
58.525,2,4,2,1,1,3,2,1
58.53,1,0,3,3,2,2,0,1
58.535,2,0,0,1,1,0,1,1
58.54,3,3,4,4,3,2,1,1
58.545,2,2,2,1,0,2,0,1
58.55,0,1,0,0,0,1,1,0
58.555,1,2,0,1,1,3,1,2
58.56,2,0,5,1,4,0,1,2
58.565,1,4,1,0,2,2,3,2
58.57,0,1,2,2,1,1,1,3
58.575,1,1,1,0,1,3,0,3
58.58,1,1,1,1,1,1,1,1
58.585,2,2,0,1,1,2,3,4
58.59,1,3,0,4,5,2,3,2
58.595,1,0,2,3,2,3,0,1
58.6,2,1,1,0,1,1,2,2
58.605,3,5,1,0,0,0,0,0
58.61,1,1,2,3,0,1,1,2
58.615,3,1,2,2,0,1,2,2
58.62,0,0,2,1,2,0,1,1
58.625,1,0,1,3,0,1,2,2
58.63,2,1,1,2,2,3,2,2
58.635,1,1,1,1,1,2,3,1
58.64,0,2,4,0,0,1,1,0
58.645,2,1,2,2,2,2,1,1
58.65,2,1,1,2,1,0,1,0
58.655,2,2,2,2,2,0,1,0
58.66,4,1,2,2,3,1,2,3
58.665,2,2,3,1,2,1,1,2
58.67,1,1,1,2,1,1,0,1
58.675,2,0,1,1,3,1,2,1
58.68,0,0,1,1,2,0,1,2
58.685,1,1,0,0,2,3,0,1
58.69,1,3,5,0,2,3,5,3
58.695,0,0,1,1,0,4,1,4
58.7,0,1,2,1,3,3,2,3
58.705,0,2,1,1,1,3,1,1
58.71,1,2,0,1,5,1,2,1
58.715,0,1,0,2,3,1,2,0
58.72,0,5,3,11,15,4,2,2
58.725,2,1,0,1,0,0,5,3
58.73,1,1,2,3,35,10,3,1
58.735,2,0,2,12,71,0,2,1
58.74,2,0,3,7,83,3,3,1
58.745,3,2,2,24,4,11,5,2
58.75,4,2,2,25,76,3,3,1
58.755,0,1,4,13,70,1,5,1
58.76,1,2,4,11,52,12,7,0
58.765,0,1,3,26,56,2,3,2
58.77,0,1,4,36,21,9,4,3
58.775,0,2,0,17,45,3,2,1
58.78,1,1,2,7,75,8,2,1
58.785,1,0,2,11,1,10,3,2
58.79,2,2,5,0,30,5,1,1
58.795,1,1,5,8,89,14,4,3
58.8,2,1,3,14,23,3,7,3
58.805,0,3,8,0,23,7,5,0
58.81,3,3,3,34,23,7,9,4
58.815,2,2,2,23,26,2,1,2
58.82,1,2,1,24,28,3,5,2
58.825,1,1,3,12,23,4,6,3
58.83,1,1,2,11,53,11,1,2
58.835,3,4,4,30,49,2,3,3
58.84,1,2,1,32,96,2,2,2
58.845,0,0,4,18,13,3,3,3
58.85,1,1,0,13,48,8,3,1
58.855,3,2,2,2,78,0,3,3
58.86,0,3,6,17,81,2,3,4
58.865,3,2,1,11,97,19,0,2
58.87,3,2,4,5,13,5,3,4
58.875,1,1,2,26,16,5,5,3
58.88,0,3,4,11,24,3,1,2
58.885,1,2,5,17,51,5,7,4
58.89,2,0,3,0,70,2,2,2
58.895,1,1,3,16,31,10,0,0
58.9,2,3,0,12,76,4,7,2
58.905,3,3,0,16,22,11,2,1
58.91,2,1,5,25,80,2,1,3
58.915,2,0,3,8,17,10,3,4
58.92,3,0,2,30,25,1,1,1
58.925,1,0,6,16,14,17,2,1
58.93,0,0,1,1,2,12,1,1
58.935,2,2,1,29,49,11,2,3
58.94,2,2,6,10,29,11,9,4
58.945,4,3,1,26,0,7,4,3
58.95,0,3,2,35,19,3,3,0
58.955,0,0,2,5,68,3,3,1
58.96,2,1,0,8,12,6,2,2
58.965,1,0,2,25,8,2,2,3
58.97,3,5,7,14,6,2,4,3
58.975,2,2,2,3,19,9,1,1
58.98,2,2,0,4,49,5,1,3
58.985,1,1,0,26,11,8,3,1
58.99,1,1,1,19,35,15,0,0
58.995,4,4,5,19,7,9,6,4
59,1,1,2,41,51,1,2,1
59.005,3,2,3,10,43,5,1,1
59.01,1,1,3,28,17,9,0,2
59.015,1,3,9,85,112,7,3,3
59.02,2,0,1,28,56,16,6,3
59.025,0,0,3,29,17,23,5,5
59.03,1,4,7,13,17,6,0,2
59.035,1,1,0,33,76,3,4,3
59.04,2,4,6,3,67,11,3,1
59.045,1,3,3,5,30,11,3,2
59.05,1,2,1,9,28,1,1,1
59.055,1,2,1,9,2,3,3,3
59.06,2,1,1,12,1,2,2,3
59.065,3,2,3,15,25,2,1,2
59.07,2,0,2,13,20,3,2,0
59.075,1,0,3,14,32,3,1,1
59.08,1,2,3,15,30,9,2,1
59.085,4,4,5,3,5,4,4,5
59.09,1,0,1,15,26,12,2,1
59.095,1,1,1,13,7,6,0,1
59.1,3,3,2,11,54,4,0,2
59.105,0,0,2,9,15,0,2,0
59.11,1,2,0,2,44,2,3,0
59.115,1,1,2,20,26,6,1,1
59.12,3,3,0,10,37,4,4,3
59.125,2,3,7,33,52,11,8,5
59.13,1,2,2,19,13,3,0,1
59.135,2,0,0,8,75,18,4,0
59.14,1,2,0,5,41,2,1,0
59.145,1,0,0,6,59,10,3,4
59.15,4,0,1,18,4,2,1,0
59.155,2,1,1,14,16,3,2,1
59.16,2,2,2,7,13,1,0,2
59.165,1,3,1,26,59,1,1,3
59.17,0,0,0,6,33,2,2,1
59.175,0,1,1,8,0,1,2,0
59.18,2,1,3,2,13,2,3,1
59.185,0,1,1,12,21,2,0,1
59.19,1,0,1,17,4,4,0,0
59.195,2,1,4,10,30,5,2,3
59.2,0,0,2,5,21,0,1,1
59.205,0,0,0,11,46,1,3,1
59.21,1,1,2,0,13,1,1,2
59.215,0,1,1,7,16,2,2,1
59.22,2,0,2,0,6,2,1,2
59.225,1,0,0,8,27,1,1,2
59.23,3,2,2,1,4,0,2,3
59.235,0,1,0,2,18,4,1,2
59.24,1,1,2,1,19,2,0,0
59.245,1,0,0,2,20,0,1,1
59.25,2,4,1,0,5,0,0,1
59.255,1,1,2,4,6,2,1,1
59.26,1,1,1,1,8,0,5,3
59.265,1,1,1,3,25,0,0,1
59.27,1,1,2,0,11,1,0,0
59.275,1,1,1,2,1,4,1,2
59.28,0,1,1,3,5,1,0,0
59.285,2,1,1,2,8,0,1,3
59.29,2,2,0,0,5,2,2,0
59.295,5,2,1,4,3,1,4,5
59.3,1,1,1,3,3,3,3,1
59.305,2,2,0,0,6,1,2,0
59.31,1,2,0,1,2,2,1,0
59.315,1,0,1,1,3,1,2,2
59.32,1,3,2,3,9,3,2,1
59.325,4,3,2,1,7,2,0,2
59.33,3,3,2,1,2,1,2,1
59.335,0,2,6,4,6,3,3,2
59.34,0,3,0,2,3,1,1,1
59.345,0,1,2,1,6,1,1,1
59.35,0,2,0,1,3,1,1,1
59.355,3,0,2,2,3,2,3,3
59.36,0,0,1,1,1,0,1,3
59.365,0,1,0,1,3,3,0,0
59.37,1,2,1,2,2,0,2,1
59.375,2,1,4,1,2,1,2,1
59.38,1,0,0,3,4,4,1,1
59.385,3,2,1,1,1,1,0,0
59.39,2,0,1,5,1,1,4,4
59.395,1,3,0,1,0,0,1,1
59.4,1,0,0,2,2,1,2,2
59.405,0,3,1,2,0,1,1,0
59.41,1,2,5,2,1,0,2,1
59.415,1,1,1,2,1,1,0,1
59.42,0,3,2,1,2,0,1,1
59.425,1,1,1,2,1,2,5,3
59.43,0,1,1,1,1,1,0,2
59.435,0,1,1,4,1,2,0,3
59.44,3,1,1,2,1,3,1,1
59.445,1,1,4,2,1,0,1,1
59.45,0,0,1,2,2,3,2,2
59.455,0,0,0,1,0,2,2,0
59.46,2,5,3,2,4,6,5,2
59.465,1,1,2,0,2,1,1,1
59.47,1,3,1,2,2,0,1,1
59.475,1,2,4,3,3,0,1,1
59.48,1,0,3,0,4,3,2,1
59.485,2,0,0,0,1,1,2,1
59.49,1,0,0,1,0,0,2,2
59.495,0,1,1,1,4,4,3,3
59.5,1,2,2,1,1,1,2,3
59.505,1,1,0,4,1,0,3,2
59.51,0,2,4,2,7,0,2,1
59.515,2,0,1,1,2,1,2,0
59.52,1,1,1,1,1,1,0,1
59.525,2,0,0,0,1,3,1,0
59.53,2,2,1,1,1,1,3,1
59.535,0,2,0,1,0,1,3,2
59.54,1,1,2,0,1,0,0,2
59.545,2,1,0,2,1,0,1,1
59.55,3,2,2,1,1,3,3,3
59.555,2,1,0,0,1,1,1,2
59.56,0,0,0,1,1,0,2,0
59.565,1,0,2,0,3,1,1,2
59.57,1,1,0,1,1,0,2,2
59.575,0,2,0,2,2,3,3,1
59.58,2,3,0,1,0,1,2,0
59.585,2,1,0,2,2,1,1,2
59.59,1,1,3,3,1,0,1,2
59.595,2,1,1,2,4,3,1,0
59.6,0,0,2,3,3,2,1,1
59.605,0,0,0,0,0,1,1,0
59.61,1,1,0,2,2,3,1,1
59.615,1,2,1,1,1,0,3,1
59.62,1,1,2,0,3,1,0,3
59.625,2,1,4,3,4,1,0,0
59.63,2,1,4,3,0,0,2,2
59.635,0,1,2,3,1,0,1,2
59.64,0,1,0,1,1,7,5,2
59.645,0,0,1,1,4,8,1,0
59.65,1,1,1,3,5,1,1,0
59.655,1,1,2,2,2,3,1,1
59.66,1,0,0,0,4,0,0,0
59.665,3,1,0,1,0,4,4,1
59.67,2,0,2,1,1,4,2,0
59.675,1,2,1,0,21,6,1,0
59.68,2,1,2,4,28,8,1,2
59.685,0,2,2,0,2,5,0,2
59.69,1,1,1,1,11,1,3,3
59.695,2,1,1,4,18,9,3,3
59.7,0,1,0,1,10,4,2,1
59.705,1,1,0,10,12,5,1,1
59.71,2,1,1,3,12,4,1,1
59.715,1,1,1,19,9,5,2,2
59.72,1,1,4,12,33,6,3,2
59.725,1,2,3,8,9,1,2,1
59.73,1,0,0,2,29,5,4,2
59.735,1,0,1,5,16,2,3,1
59.74,2,2,0,1,20,2,1,2
59.745,1,2,1,18,9,5,5,1
59.75,2,3,2,2,39,2,1,1
59.755,1,1,4,17,35,3,5,0
59.76,2,3,2,1,22,8,6,1
59.765,2,1,1,3,3,0,5,1
59.77,2,0,1,2,54,19,5,2
59.775,0,0,1,19,79,20,2,1
59.78,1,1,1,9,13,9,3,1
59.785,1,2,6,17,4,4,1,1
59.79,1,1,7,29,35,2,3,2
59.795,3,4,5,15,4,3,3,2
59.8,3,3,3,3,2,9,4,5
59.805,1,1,4,20,2,0,4,1
59.81,0,1,4,37,23,7,3,1
59.815,2,3,5,5,69,13,1,1
59.82,1,1,0,20,87,10,4,2
59.825,3,3,2,30,58,9,1,0
59.83,3,3,3,21,19,4,2,5
59.835,2,2,5,14,32,2,4,4
59.84,3,3,4,24,10,14,7,4
59.845,2,1,6,63,24,4,1,0
59.85,2,0,0,20,64,5,1,3
59.855,3,3,1,30,34,5,3,1
59.86,1,2,1,9,66,8,2,1
59.865,4,5,6,12,29,4,4,4
59.87,0,1,0,18,4,2,1,1
59.875,0,0,2,19,10,2,1,3
59.88,1,0,5,30,58,8,0,2
59.885,1,0,1,17,71,10,3,3
59.89,0,2,6,33,25,5,2,2
59.895,0,0,3,16,56,3,2,2
59.9,2,1,1,29,9,6,1,3
59.905,1,1,0,8,26,3,3,2
59.91,4,5,9,9,13,13,5,5
59.915,1,1,0,36,24,3,2,1
59.92,3,2,4,5,9,8,5,3
59.925,4,2,3,36,27,2,3,4
59.93,1,1,1,15,17,8,5,1
59.935,3,6,3,19,2,2,1,0
59.94,2,2,2,18,83,4,4,2
59.945,1,2,4,28,10,4,0,0
59.95,2,2,0,3,8,1,4,2
59.955,2,1,1,10,10,1,2,2
59.96,1,1,4,45,49,1,0,0
59.965,1,0,4,9,42,10,2,4
59.97,6,5,3,43,46,6,5,6
59.975,0,2,2,12,99,0,1,1
59.98,5,1,14,70,111,11,5,3
59.985,1,2,4,8,37,0,1,0
59.99,1,2,4,12,3,6,1,0
59.995,1,1,1,10,24,1,2,1
60,4,3,3,21,18,6,7,4
60.005,2,1,8,7,9,0,2,1
60.01,1,2,4,2,50,6,6,4
60.015,2,5,9,13,30,18,6,4
60.02,1,2,3,14,37,4,2,0
60.025,0,0,1,11,45,3,2,2
60.03,1,1,2,12,52,1,2,0
60.035,1,0,3,10,2,1,2,1
60.04,1,1,0,20,16,7,2,1
60.045,1,4,4,1,54,1,1,0
60.05,2,1,3,36,21,3,5,6
60.055,1,2,1,36,36,1,2,0
60.06,0,1,4,17,35,7,5,2
60.065,1,0,3,20,29,2,2,1
60.07,3,2,0,3,59,1,3,4
60.075,2,5,9,8,30,4,5,2
60.08,1,0,3,12,24,2,3,1
60.085,3,3,5,9,26,1,3,2
60.09,1,0,2,12,4,3,3,3
60.095,2,1,0,17,11,2,2,3
60.1,1,1,3,13,13,4,2,2
60.105,0,0,5,4,41,4,1,1
60.11,1,0,0,10,14,2,1,0
60.115,1,2,5,15,13,4,2,2
60.12,2,2,1,7,3,7,1,0
60.125,1,1,2,1,1,4,3,2
60.13,1,2,2,13,44,3,3,3
60.135,1,0,1,10,3,2,2,1
60.14,1,1,1,3,17,0,1,1
60.145,1,2,0,2,13,1,1,0
60.15,1,1,1,5,40,0,0,0
60.155,2,2,4,21,1,4,3,4
60.16,0,0,1,18,22,0,2,2
60.165,1,1,2,13,75,2,1,1
60.17,1,1,2,1,9,3,2,0
60.175,1,1,1,1,8,5,2,1
60.18,1,3,2,0,14,2,3,2
60.185,3,1,2,1,16,3,2,0
60.19,3,1,1,7,7,3,2,1
60.195,4,0,3,7,17,2,3,2
60.2,3,2,2,17,19,2,0,3
60.205,1,0,0,3,12,0,2,3
60.21,1,5,1,7,4,0,0,1
60.215,12,9,2,1,10,0,0,0
60.22,16,2,1,3,2,3,2,1
60.225,2,2,1,5,1,2,2,2
60.23,0,1,2,1,3,4,4,3
60.235,1,2,2,3,8,1,1,4
60.24,11,1,2,2,1,0,1,3
60.245,1,1,1,0,3,1,3,0
60.25,1,1,0,7,11,0,2,1
60.255,1,0,3,1,3,3,5,3
60.26,2,2,1,2,6,3,4,4
60.265,5,3,2,1,8,0,2,0
60.27,15,5,3,2,1,3,3,6
60.275,4,3,4,7,4,1,0,2
60.28,20,1,3,1,5,1,2,2
60.285,3,1,0,1,5,1,1,2
60.29,2,1,0,4,3,2,2,0
60.295,3,4,4,0,5,1,2,3
60.3,12,6,0,1,7,1,1,2
60.305,1,2,1,4,0,1,0,1
60.31,2,0,3,0,3,3,2,2
60.315,3,3,17,4,1,1,0,2
60.32,4,1,1,0,1,0,1,1
60.325,2,2,3,3,0,1,1,0
60.33,1,0,5,0,1,0,2,0
60.335,3,2,3,1,0,2,3,1
60.34,4,1,3,1,2,4,3,1
60.345,2,3,4,4,3,0,0,1
60.35,1,2,0,0,4,1,2,1
60.355,2,1,8,2,1,0,3,0
60.36,6,3,3,2,1,0,1,1
60.365,2,1,5,2,3,5,1,1
60.37,2,3,2,1,3,1,1,1
60.375,1,1,0,1,3,1,0,1
60.38,5,0,3,3,2,2,1,4
60.385,3,0,4,1,1,1,0,2
60.39,1,0,8,3,2,2,1,0
60.395,0,0,0,2,1,3,5,4
60.4,1,0,4,3,3,2,1,2
60.405,2,3,4,2,0,1,2,0
60.41,1,0,2,1,3,0,1,1
60.415,0,1,4,1,3,2,0,1
60.42,2,0,2,2,3,1,3,2
60.425,1,1,0,2,0,2,1,0
60.43,2,1,2,4,1,4,1,2
60.435,1,1,2,2,1,1,2,0
60.44,1,0,1,1,2,4,1,1
60.445,1,2,4,4,1,2,1,0
60.45,3,0,1,1,0,1,0,2
60.455,0,0,2,2,2,2,1,2
60.46,2,2,1,2,3,2,0,2
60.465,2,1,4,1,5,5,4,2
60.47,1,4,0,2,2,1,4,3
60.475,1,2,4,0,1,0,2,1
60.48,0,0,1,1,1,0,1,2
60.485,1,0,1,0,1,3,1,3
60.49,0,2,1,0,0,4,3,1
60.495,1,1,4,3,9,4,2,1
60.5,1,1,1,2,1,1,1,1
60.505,0,0,2,2,0,1,1,1
60.51,1,1,4,2,3,0,1,0
60.515,2,1,1,1,0,2,3,3
60.52,0,1,0,4,0,0,0,0
60.525,3,1,1,1,4,5,3,2
60.53,0,0,3,3,3,2,1,0
60.535,0,2,0,1,2,5,0,1
60.54,3,2,2,2,2,6,5,4
60.545,0,0,1,3,4,1,2,2
60.55,2,0,1,1,16,5,5,1
60.555,1,1,2,3,3,4,2,0
60.56,2,1,3,1,2,1,1,0
60.565,0,2,2,1,4,0,2,2
60.57,2,0,2,2,0,4,1,2
60.575,0,1,1,1,4,3,2,3
60.58,2,1,0,1,2,1,2,3
60.585,0,2,3,2,0,10,0,1
60.59,2,0,1,0,9,5,4,2
60.595,2,0,1,2,19,6,7,1
60.6,0,3,1,5,23,4,3,3
60.605,2,1,3,5,35,1,4,1
60.61,3,3,3,1,10,12,2,2
60.615,3,3,7,7,18,8,1,2
60.62,1,0,2,12,25,4,2,1
60.625,1,1,1,3,3,7,2,1
60.63,1,0,3,6,16,5,2,1
60.635,1,1,2,0,7,3,1,1
60.64,1,0,3,12,0,1,1,3
60.645,0,2,1,22,5,9,4,1
60.65,2,2,4,25,9,1,0,1
60.655,1,0,6,2,24,6,7,1
60.66,2,2,5,40,16,2,0,1
60.665,2,3,11,54,101,1,1,3
60.67,1,1,3,1,53,5,5,0
60.675,1,0,2,5,40,1,2,2
60.68,0,2,4,16,23,1,3,0
60.685,0,0,5,30,51,2,5,2
60.69,1,2,2,2,1,1,1,0
60.695,2,2,0,8,48,8,3,1
60.7,3,1,2,18,23,2,4,1
60.705,0,1,10,28,33,6,1,1
60.71,1,0,1,24,14,13,7,0
60.715,2,3,4,19,24,3,2,0
60.72,0,1,1,9,24,14,2,3
60.725,4,2,1,31,32,12,11,4
60.73,1,1,1,10,0,7,0,2
60.735,1,2,7,21,15,13,5,2
60.74,3,4,6,22,10,3,1,0
60.745,2,0,1,29,4,21,8,3
60.75,3,2,6,25,27,5,6,4
60.755,3,3,9,7,39,10,7,5
60.76,0,2,6,23,45,8,4,1
60.765,0,1,5,32,80,5,2,0
60.77,2,3,6,22,53,7,6,3
60.775,1,1,0,4,23,1,2,2
60.78,1,1,3,22,11,1,1,1
60.785,0,0,6,29,84,5,2,0
60.79,1,3,11,72,18,6,3,0
60.795,4,3,2,21,75,31,7,4
60.8,2,4,10,12,84,29,2,2
60.805,1,4,8,39,78,21,5,1
60.81,3,3,6,29,31,17,1,1
60.815,2,1,3,17,58,4,0,2
60.82,0,0,0,1,75,6,1,2
60.825,1,2,1,23,38,3,2,2
60.83,1,1,3,26,77,6,4,2
60.835,1,2,3,24,8,12,5,2
60.84,5,8,9,18,51,11,11,5
60.845,0,0,0,7,44,0,0,0
60.85,2,1,4,47,43,16,0,1
60.855,0,3,4,15,6,12,2,0
60.86,2,1,4,6,21,10,3,1
60.865,2,1,4,24,43,1,2,1
60.87,1,2,2,53,31,11,6,5
60.875,1,1,5,10,50,0,1,0
60.88,2,1,3,16,22,9,1,1
60.885,2,3,1,26,15,1,2,1
60.89,2,1,3,3,20,3,2,2
60.895,2,2,3,7,23,1,3,0
60.9,1,0,1,12,4,1,0,1
60.905,5,4,8,33,33,4,5,5
60.91,2,3,8,29,109,9,3,1
60.915,6,9,19,18,109,18,8,9
60.92,1,1,3,7,52,1,1,1
60.925,0,0,2,14,88,3,2,2
60.93,2,1,3,46,37,3,0,1
60.935,0,1,3,54,127,6,3,0
60.94,2,1,4,29,81,2,1,3
60.945,2,1,2,21,59,8,0,1
60.95,1,0,1,9,10,8,2,1
60.955,1,3,6,9,43,9,2,1
60.96,0,3,3,32,34,13,2,2
60.965,2,1,4,59,89,9,1,1
60.97,3,1,8,17,32,9,1,4
60.975,2,0,3,19,76,1,1,0
60.98,1,1,2,24,58,1,1,1
60.985,2,2,2,0,14,6,4,2
60.99,1,1,0,31,10,1,3,2
60.995,1,2,5,42,36,1,0,1
61,1,1,1,20,8,10,0,1
61.005,0,2,2,9,37,11,0,1
61.01,2,1,4,10,1,8,6,3
61.015,0,2,5,51,86,1,0,2
61.02,1,0,0,13,6,2,3,1
61.025,1,1,0,18,35,2,0,0
61.03,0,0,1,9,17,2,1,1
61.035,3,0,2,18,42,1,0,1
61.04,0,0,0,9,17,2,2,1
61.045,3,2,2,28,32,4,6,3
61.05,5,2,0,23,32,1,2,1
61.055,0,1,1,3,14,5,4,1
61.06,0,1,5,12,21,2,1,2
61.065,1,3,5,21,14,2,1,1
61.07,1,3,4,19,21,2,1,1
61.075,3,2,3,23,30,1,4,4
61.08,1,1,3,2,31,6,3,2
61.085,2,2,0,39,30,3,3,1
61.09,1,2,3,17,2,2,1,6
61.095,1,0,0,2,9,1,2,4
61.1,1,0,1,11,18,0,2,2
61.105,6,1,1,11,19,3,1,1
61.11,4,5,1,0,9,1,2,0
61.115,2,1,4,9,1,2,3,1
61.12,2,2,1,5,2,0,0,0
61.125,2,2,2,4,1,6,0,3
61.13,12,1,0,5,5,1,0,1
61.135,9,5,1,5,7,1,2,7
61.14,4,32,1,3,5,2,1,13
61.145,9,38,5,9,2,1,4,16
61.15,9,1,5,2,10,1,2,4
61.155,28,37,10,2,4,3,2,10
61.16,25,37,1,8,9,2,2,14
61.165,1,8,3,9,4,3,2,11
61.17,7,3,3,2,1,2,1,0
61.175,40,21,1,4,5,1,1,7
61.18,32,14,6,2,0,2,1,10
61.185,2,20,0,1,2,1,0,2
61.19,11,7,5,1,1,3,4,3
61.195,6,19,1,5,0,1,2,1
61.2,8,16,2,5,9,0,2,0
61.205,36,83,5,5,5,2,2,2
61.21,31,70,14,1,5,2,0,5
61.215,29,33,2,2,1,2,2,2
61.22,27,15,0,4,1,0,0,4
61.225,0,12,4,1,2,1,2,5
61.23,7,14,3,3,1,0,2,5
61.235,8,11,3,4,1,0,1,5
61.24,1,8,4,2,0,1,0,1
61.245,13,37,5,4,1,2,3,5
61.25,1,17,1,3,6,3,1,4
61.255,1,14,1,1,1,0,2,0
61.26,2,11,2,1,0,0,0,1
61.265,14,14,1,2,1,1,2,2
61.27,3,9,1,2,2,0,1,2
61.275,9,29,4,0,0,1,1,1
61.28,9,7,5,0,2,1,4,1
61.285,6,23,5,1,0,1,3,3
61.29,5,13,0,0,0,2,1,2
61.295,1,10,1,1,1,4,5,3
61.3,2,4,1,4,1,2,5,4
61.305,6,16,1,3,1,3,3,1
61.31,4,9,1,0,0,2,1,4
61.315,1,13,1,2,0,2,2,0
61.32,4,15,3,2,1,0,3,0
61.325,0,4,2,2,4,1,2,1
61.33,0,4,0,1,1,1,1,2
61.335,2,2,2,2,0,4,1,1
61.34,3,4,2,1,1,1,2,3
61.345,4,7,0,0,2,4,4,4
61.35,0,4,1,3,3,1,1,2
61.355,1,2,3,0,1,7,4,3
61.36,1,3,2,3,3,2,3,3
61.365,3,2,1,4,20,1,2,0
61.37,1,5,3,6,13,1,0,3
61.375,3,8,1,7,14,10,0,2
61.38,2,6,3,2,14,9,1,0
61.385,1,3,4,39,21,9,3,1
61.39,0,2,1,10,2,9,3,0
61.395,0,0,2,4,2,5,1,2
61.4,2,0,0,8,35,3,0,1
61.405,3,6,4,10,4,1,6,3
61.41,2,1,3,3,12,8,2,0
61.415,2,0,4,37,12,4,3,0
61.42,2,4,8,65,30,10,8,3
61.425,1,1,2,25,49,1,2,1
61.43,1,1,2,8,27,16,6,2
61.435,3,1,2,29,9,5,3,0
61.44,2,2,4,13,2,2,2,0
61.445,3,0,2,4,3,1,4,3
61.45,3,3,9,31,35,6,3,2
61.455,0,1,1,14,9,11,1,3
61.46,1,2,7,31,54,14,3,1
61.465,2,3,5,4,77,17,2,0
61.47,1,3,5,3,8,5,0,2
61.475,5,6,2,39,72,3,7,5
61.48,0,0,1,3,25,8,0,3
61.485,3,3,3,45,75,5,8,3
61.49,2,1,3,30,35,1,0,3
61.495,0,1,1,4,27,4,2,0
61.5,3,1,4,13,14,1,1,3
61.505,2,3,1,27,3,12,3,2
61.51,1,2,2,13,41,7,3,1
61.515,0,3,5,22,13,3,1,1
61.52,1,1,2,25,26,4,1,1
61.525,0,1,1,16,17,15,2,1
61.53,4,4,3,0,35,9,5,3
61.535,0,2,1,14,21,0,0,1
61.54,2,3,0,11,10,1,1,1
61.545,0,1,1,26,32,3,4,3
61.55,3,3,5,1,86,17,4,5
61.555,2,1,5,19,18,5,2,1
61.56,1,0,3,17,6,0,0,1
61.565,2,1,1,3,27,2,2,1
61.57,1,1,4,8,8,1,2,0
61.575,1,3,3,21,52,5,0,2
61.58,4,2,4,9,22,0,2,1
61.585,3,3,2,26,14,9,5,4
61.59,2,2,3,4,34,9,5,2
61.595,0,1,1,29,33,4,2,3
61.6,0,0,5,18,12,0,2,1
61.605,2,2,7,35,12,5,1,5
61.61,2,1,1,27,3,2,1,0
61.615,1,1,2,7,32,4,1,1
61.62,0,1,1,5,25,7,2,3
61.625,1,1,1,1,1,0,0,1
61.63,1,0,2,8,8,1,1,0
61.635,2,0,3,17,36,7,1,1
61.64,0,1,2,6,32,1,2,1
61.645,1,2,3,36,58,1,1,2
61.65,3,2,2,7,28,2,3,3
61.655,1,1,3,10,31,2,0,0
61.66,1,2,6,5,70,8,2,2
61.665,0,2,1,9,52,2,1,2
61.67,0,1,3,5,7,1,2,1
61.675,1,1,3,5,8,3,0,2
61.68,2,1,2,7,35,5,1,1
61.685,2,0,0,0,14,5,1,1
61.69,0,2,2,10,17,1,1,4
61.695,0,1,1,19,20,5,3,3
61.7,0,0,1,15,50,1,1,1
61.705,3,3,4,26,48,5,1,0
61.71,2,1,2,14,9,3,3,4
61.715,1,1,2,2,11,1,3,1
61.72,0,0,1,1,2,3,1,2
61.725,3,1,1,8,2,2,1,6
61.73,2,3,1,7,1,2,1,21
61.735,9,10,1,5,1,2,1,15
61.74,4,1,3,9,10,2,4,5
61.745,26,3,1,12,10,2,1,4
61.75,40,2,3,5,2,1,3,9
61.755,15,2,1,1,5,1,3,7
61.76,3,2,0,5,7,2,1,8
61.765,2,1,3,9,8,1,3,1
61.77,9,3,1,4,6,1,0,4
61.775,2,1,1,0,3,0,2,4
61.78,0,4,2,6,4,1,1,3
61.785,1,1,2,5,4,2,0,4
61.79,6,4,3,4,1,4,4,3
61.795,4,1,1,3,2,1,1,4
61.8,17,0,2,6,3,4,2,5
61.805,15,3,0,3,4,3,2,2
61.81,18,2,1,5,3,1,0,2
61.815,31,1,2,4,5,3,4,5
61.82,7,0,3,0,1,0,1,1
61.825,5,4,1,2,3,3,1,0
61.83,22,18,2,0,1,1,3,8
61.835,21,2,1,1,3,4,3,5
61.84,7,2,3,0,3,3,2,6
61.845,1,2,2,0,3,1,2,2
61.85,2,5,0,2,4,3,2,5
61.855,13,3,1,1,2,1,0,3
61.86,14,0,1,1,0,0,0,0
61.865,9,2,1,2,2,2,1,1
61.87,3,2,1,4,0,1,0,3
61.875,4,3,4,2,3,3,2,2
61.88,4,2,1,0,0,0,1,1
61.885,4,3,1,1,1,0,0,3
61.89,1,1,0,1,1,2,4,2
61.895,3,3,1,3,3,0,1,1
61.9,2,1,0,3,1,1,3,2
61.905,4,3,4,1,3,3,2,6
61.91,2,0,1,1,2,0,3,4
61.915,2,1,2,2,1,1,0,0
61.92,2,1,1,0,1,2,1,0
61.925,2,1,0,2,1,0,0,0
61.93,3,1,1,1,1,3,1,1
61.935,1,1,3,3,0,2,0,1
61.94,2,1,1,0,3,4,1,2
61.945,3,2,2,4,11,4,0,0
61.95,2,3,4,6,28,12,6,4
61.955,4,4,7,30,26,8,7,4
61.96,2,2,1,2,27,3,2,3
61.965,0,2,2,24,13,4,2,1
61.97,0,1,1,14,18,2,3,3
61.975,3,3,2,12,10,2,0,2
61.98,1,2,6,26,93,15,1,1
61.985,4,6,5,5,46,12,4,6
61.99,1,0,2,23,14,7,1,0
61.995,2,2,6,23,65,10,4,4
62,2,3,10,82,28,2,3,2
62.005,2,0,1,7,35,1,2,1
62.01,2,3,3,36,5,1,2,1
62.015,0,0,2,40,33,0,1,2
62.02,3,3,3,50,39,1,1,6
62.025,0,1,1,34,37,3,2,3
62.03,0,2,2,50,55,3,1,0
62.035,2,2,2,5,37,8,1,0
62.04,3,0,4,3,14,2,4,3
62.045,1,1,1,17,16,3,4,2
62.05,2,0,2,42,72,5,1,0
62.055,3,2,1,10,12,2,1,1
62.06,1,1,2,4,16,1,1,1
62.065,1,3,1,5,2,0,3,4
62.07,1,1,0,3,4,8,2,2
62.075,3,2,1,28,50,6,1,1
62.08,1,1,3,15,45,5,3,1
62.085,2,1,2,21,1,7,4,1
62.09,0,3,3,8,40,5,2,2
62.095,2,2,1,4,0,2,4,4
62.1,2,1,0,2,11,0,2,1
62.105,1,2,3,18,28,3,2,1
62.11,2,1,0,12,1,3,1,0
62.115,2,1,4,19,6,1,1,1
62.12,1,3,2,7,70,5,4,5
62.125,2,4,14,61,36,6,3,5
62.13,5,2,2,23,85,17,1,2
62.135,2,3,5,3,22,24,4,4
62.14,2,1,1,9,24,3,1,1
62.145,3,4,1,14,1,1,2,1
62.15,1,0,0,2,17,3,1,1
62.155,3,3,1,2,16,4,0,2
62.16,1,1,2,13,33,1,1,2
62.165,0,0,1,1,0,2,0,0
62.17,1,0,1,50,29,8,1,1
62.175,3,2,7,60,18,3,4,2
62.18,1,2,3,2,39,1,1,2
62.185,0,0,0,34,27,3,2,1
62.19,2,0,3,30,41,2,1,1
62.195,0,1,2,14,73,5,3,1
62.2,3,2,3,20,7,0,2,2
62.205,1,2,7,37,16,1,0,0
62.21,4,4,6,22,51,2,3,1
62.215,1,1,1,20,25,1,1,1
62.22,2,0,2,9,6,4,3,3
62.225,2,3,3,3,26,3,0,6
62.23,0,1,0,13,21,4,1,4
62.235,4,0,3,33,38,3,3,1
62.24,1,2,1,5,3,2,4,7
62.245,2,1,3,8,8,3,0,0
62.25,2,1,0,1,2,0,1,4
62.255,3,1,2,0,10,3,2,2
62.26,0,1,2,5,4,0,1,5
62.265,1,1,1,9,9,0,2,2
62.27,0,2,2,1,3,0,1,2
62.275,2,1,0,2,7,2,1,5
62.28,1,0,3,1,2,3,3,3
62.285,0,2,2,2,5,1,2,6
62.29,1,1,3,4,3,4,3,5
62.295,2,1,5,0,1,1,1,0
62.3,1,0,2,1,0,1,1,1
62.305,0,2,1,8,5,3,0,0
62.31,2,2,2,2,0,2,4,4
62.315,0,1,3,2,0,1,1,1
62.32,0,2,0,4,0,1,1,2
62.325,1,1,1,1,3,2,2,2
62.33,1,0,3,0,3,1,2,2
62.335,0,3,2,1,1,0,1,0
62.34,2,1,1,4,4,1,1,3
62.345,1,1,0,0,2,1,1,3
62.35,1,2,4,1,3,3,0,1
62.355,1,0,0,1,0,2,3,0
62.36,0,1,2,0,1,0,1,1
62.365,1,1,0,1,1,4,0,2
62.37,1,2,5,0,2,1,1,2
62.375,0,1,0,4,2,3,1,1
62.38,2,2,3,1,1,2,2,3
62.385,2,2,2,2,0,2,1,0
62.39,2,2,0,3,5,2,2,3
62.395,1,2,0,1,1,3,1,2
62.4,0,1,1,3,2,3,2,3
62.405,1,1,1,1,0,1,2,1
62.41,3,0,2,2,2,1,1,1
62.415,3,1,3,1,3,1,2,0
62.42,1,0,2,3,1,3,1,0
62.425,1,1,3,0,0,1,0,1
62.43,1,1,1,2,0,1,2,2
62.435,0,3,1,2,1,0,2,2
62.44,2,1,1,2,2,1,0,1
62.445,1,1,1,2,1,3,2,1
62.45,1,1,1,1,3,1,1,2
62.455,3,1,1,1,0,1,1,1
62.46,1,0,2,1,2,1,0,0
62.465,1,2,2,1,1,0,1,1
62.47,2,3,0,1,2,3,2,2
62.475,1,1,2,2,2,0,0,2
62.48,1,0,2,1,2,1,4,1
62.485,0,1,1,3,1,0,3,0
62.49,3,2,2,2,1,4,2,0
62.495,1,1,3,1,5,1,1,2
62.5,2,0,3,1,4,1,0,1
62.505,1,1,3,4,59,8,3,1
62.51,3,0,0,1,6,4,4,3
62.515,1,0,2,1,2,4,2,1
62.52,2,4,3,3,27,4,4,3
62.525,2,2,4,1,5,7,5,1
62.53,1,1,0,6,2,10,1,1
62.535,1,1,3,10,20,5,3,2
62.54,2,1,3,7,24,5,4,2
62.545,2,1,2,16,23,8,1,2
62.55,1,1,3,7,1,3,1,2
62.555,2,3,4,35,22,8,0,0
62.56,0,1,0,36,37,6,1,0
62.565,0,1,1,2,53,11,2,0
62.57,2,4,4,5,3,8,1,4
62.575,2,0,2,23,40,5,5,3
62.58,0,1,3,23,71,11,0,3
62.585,4,6,14,80,119,31,5,4
62.59,1,1,5,45,91,7,0,1
62.595,1,0,2,5,27,6,0,0
62.6,1,0,1,4,7,9,3,1
62.605,0,2,4,11,10,12,1,1
62.61,1,2,4,21,40,5,1,3
62.615,5,3,1,34,81,5,2,0
62.62,1,0,4,95,102,19,7,1
62.625,2,1,1,69,120,16,2,4
62.63,5,10,16,23,63,21,8,6
62.635,1,1,3,22,43,3,2,0
62.64,0,0,3,14,7,6,1,0
62.645,3,2,2,8,10,6,3,1
62.65,2,3,8,8,6,5,4,1
62.655,4,4,1,20,7,6,4,5
62.66,3,4,3,38,33,7,1,0
62.665,3,2,2,0,3,1,1,1
62.67,4,1,2,61,35,5,6,4
62.675,0,3,7,74,55,1,1,2
62.68,5,4,8,38,17,12,7,4
62.685,1,3,0,12,16,5,2,4
62.69,1,4,7,14,3,2,1,0
62.695,0,1,2,18,22,5,2,3
62.7,1,1,1,30,23,0,0,2
62.705,3,2,6,4,61,6,6,3
62.71,1,1,3,11,35,9,4,2
62.715,1,0,3,21,12,4,2,1
62.72,2,1,3,18,11,4,0,1
62.725,3,2,2,37,63,7,5,5
62.73,0,0,0,50,85,5,2,2
62.735,3,3,4,1,19,1,4,3
62.74,3,1,0,7,30,15,4,2
62.745,0,1,3,41,28,3,3,3
62.75,1,1,0,24,75,1,1,0
62.755,3,2,3,9,4,4,3,3
62.76,4,3,3,16,0,5,5,6
62.765,1,0,3,2,14,0,0,0
62.77,2,4,3,42,50,1,5,3
62.775,3,0,0,34,80,1,5,5
62.78,2,3,2,16,13,3,3,2
62.785,1,1,1,35,50,4,1,0
62.79,4,2,2,16,25,7,4,3
62.795,1,1,3,10,19,1,1,2
62.8,1,1,4,11,42,6,1,0
62.805,2,2,1,6,14,1,2,3
62.81,2,2,7,8,47,1,0,1
62.815,1,2,0,9,16,2,1,2
62.82,0,1,4,21,2,4,1,2
62.825,2,2,5,15,2,1,1,2
62.83,1,2,26,13,12,0,3,3
62.835,0,1,12,1,4,3,3,1
62.84,2,2,5,5,18,1,0,1
62.845,1,1,2,1,19,0,2,0
62.85,1,1,1,3,45,2,0,0
62.855,1,0,1,15,43,3,2,1
62.86,1,2,1,18,9,1,2,2
62.865,2,1,1,14,17,1,1,2
62.87,1,1,7,1,58,3,3,0
62.875,4,0,1,22,71,4,4,5
62.88,3,1,3,18,69,0,0,1
62.885,1,1,4,53,41,2,0,2
62.89,4,5,12,3,105,13,4,5
62.895,2,0,0,3,26,2,1,1
62.9,3,1,0,0,25,9,7,4
62.905,1,2,1,20,37,1,0,1
62.91,1,1,4,6,9,7,2,0
62.915,1,2,1,2,15,2,2,0
62.92,3,2,1,22,18,3,0,0
62.925,1,0,2,1,54,4,3,1
62.93,1,0,3,5,35,2,0,0
62.935,2,2,0,7,15,1,1,1
62.94,2,1,2,8,7,3,1,1
62.945,2,2,0,7,7,5,3,3
62.95,1,0,2,6,7,1,2,0
62.955,1,1,1,4,5,2,2,0
62.96,2,1,2,5,3,2,0,1
62.965,1,0,3,1,3,3,0,0
62.97,1,1,2,0,0,0,0,1
62.975,0,0,2,2,1,1,3,2
62.98,2,2,2,1,13,2,1,1
62.985,0,2,0,7,2,1,3,3
62.99,0,1,2,9,24,3,1,0
62.995,4,2,8,15,20,4,2,2
63,2,1,1,14,8,0,2,1
63.005,2,3,4,7,9,1,2,2
63.01,1,0,0,0,7,2,1,1
63.015,1,4,3,13,47,5,1,1
63.02,2,2,3,10,7,3,0,0
63.025,1,2,0,10,28,0,2,1
63.03,2,1,1,2,22,2,0,1
63.035,1,0,0,9,19,1,2,1
63.04,2,1,4,21,16,1,3,1
63.045,2,1,2,1,8,2,0,2
63.05,2,2,2,11,5,1,2,2
63.055,0,2,5,19,23,4,1,2
63.06,0,2,1,15,20,3,1,2
63.065,2,1,0,6,7,1,2,2
63.07,2,0,2,6,2,2,2,2
63.075,0,1,0,3,1,4,1,2
63.08,0,2,4,9,14,1,2,1
63.085,2,1,2,11,17,1,0,2
63.09,1,2,2,3,6,4,2,7
63.095,1,2,3,6,11,4,0,5
63.1,1,1,1,1,2,2,0,3
63.105,3,1,2,5,8,1,3,2
63.11,2,2,4,0,1,2,0,4
63.115,2,2,0,9,3,2,1,7
63.12,0,5,1,3,4,5,1,0
63.125,2,2,2,0,6,4,2,2
63.13,0,0,2,1,7,4,1,2
63.135,2,3,3,1,4,1,2,3
63.14,1,4,0,1,1,0,0,5
63.145,5,7,6,8,8,4,7,16
63.15,9,15,4,1,0,0,4,40
63.155,24,2,6,7,9,0,1,8
63.16,19,22,2,1,1,2,1,3
63.165,5,18,6,3,5,4,0,9
63.17,2,25,11,10,3,1,3,6
63.175,11,12,5,2,3,2,3,2
63.18,11,8,0,12,6,2,0,0
63.185,13,34,5,5,7,5,4,5
63.19,4,28,7,3,5,5,7,12
63.195,4,2,2,0,1,2,3,1
63.2,2,3,0,2,2,2,1,3
63.205,2,5,1,3,2,1,0,5
63.21,6,5,6,4,6,1,1,4
63.215,1,7,1,1,2,2,3,5
63.22,3,7,5,1,1,5,4,7
63.225,1,5,0,1,4,1,0,4
63.23,1,2,2,2,2,0,2,4
63.235,0,2,7,5,5,5,2,2
63.24,7,9,4,5,2,4,2,4
63.245,5,10,3,4,7,2,5,6
63.25,4,8,2,1,1,0,1,6
63.255,0,5,2,1,0,2,1,3
63.26,5,4,2,1,2,1,0,2
63.265,0,2,4,1,0,2,1,2
63.27,0,0,1,2,1,2,4,5
63.275,1,1,3,2,0,2,0,1
63.28,3,2,8,2,4,0,0,1
63.285,0,1,2,1,3,1,1,2
63.29,5,3,4,0,3,1,3,3
63.295,3,0,2,1,0,3,2,4
63.3,1,7,7,1,3,1,2,1
63.305,1,1,1,1,2,1,2,2
63.31,0,0,2,2,3,3,2,4
63.315,1,1,2,2,3,3,0,1
63.32,3,0,0,1,2,2,1,1
63.325,2,2,1,0,4,5,5,1
63.33,2,1,2,0,7,0,2,1
63.335,1,2,2,3,30,1,0,0
63.34,2,0,3,9,76,1,9,3
63.345,2,4,5,25,50,1,3,4
63.35,0,2,2,28,6,0,2,1
63.355,1,4,7,12,44,9,1,1
63.36,5,4,10,12,34,5,8,6
63.365,3,3,0,7,12,14,6,1
63.37,1,0,4,44,98,7,5,1
63.375,1,3,8,14,9,8,4,1
63.38,1,2,2,10,42,5,2,2
63.385,0,1,5,43,45,5,4,2
63.39,1,1,3,15,47,5,3,3
63.395,2,2,2,21,14,6,4,3
63.4,2,5,1,0,88,6,6,2
63.405,1,1,0,46,29,8,1,1
63.41,0,2,1,24,61,12,3,1
63.415,1,0,5,45,49,2,1,2
63.42,0,1,1,58,48,10,4,1
63.425,1,1,3,35,47,0,3,1
63.43,1,1,2,12,18,0,1,0
63.435,2,2,5,6,2,0,0,3
63.44,0,1,0,4,40,0,4,0
63.445,2,3,1,5,40,5,1,4
63.45,3,5,9,2,27,4,7,5
63.455,1,2,3,6,38,5,1,1
63.46,1,0,2,42,36,0,2,2
63.465,1,1,5,42,33,20,6,3
63.47,1,4,5,35,10,15,1,1
63.475,0,1,2,17,40,2,3,3
63.48,0,2,2,23,74,8,1,2
63.485,7,8,11,29,53,10,8,6
63.49,3,2,1,26,74,6,1,1
63.495,0,0,1,31,99,6,2,2
63.5,1,2,1,0,101,3,3,1
63.505,0,2,1,27,23,5,3,2
63.51,3,2,0,18,15,3,1,1
63.515,1,0,3,17,58,4,0,0
63.52,2,2,4,19,45,2,4,1
63.525,3,1,2,13,17,3,4,5
63.53,1,3,4,3,30,4,2,1
63.535,2,3,4,53,75,1,5,5
63.54,5,7,11,10,127,4,5,7
63.545,2,1,1,6,105,2,0,2
63.55,3,1,3,12,42,4,3,6
63.555,4,2,6,4,72,7,5,5
63.56,0,1,6,4,52,3,2,1
63.565,0,1,7,31,63,4,0,0
63.57,1,1,2,4,1,2,3,0
63.575,1,0,1,20,34,0,1,1
63.58,1,3,6,8,38,7,4,2
63.585,1,3,6,7,8,7,5,6
63.59,1,2,3,36,22,1,2,0
63.595,3,3,4,15,13,3,2,0
63.6,1,1,2,19,57,0,1,0
63.605,2,0,0,12,47,7,1,1
63.61,1,1,1,20,55,19,3,0
63.615,1,2,1,1,66,3,3,3
63.62,5,2,2,8,0,8,4,4
63.625,1,0,2,23,41,6,3,1
63.63,2,2,3,1,25,5,5,1
63.635,1,0,2,6,71,4,0,0
63.64,2,1,1,12,21,4,3,0
63.645,2,2,7,46,8,5,2,3
63.65,3,1,0,21,24,4,4,3
63.655,1,1,3,25,33,3,1,0
63.66,0,0,0,12,38,2,2,0
63.665,2,1,4,23,19,1,3,2
63.67,2,2,3,16,31,3,2,2
63.675,0,1,1,6,13,4,3,4
63.68,0,0,2,1,6,3,2,1
63.685,3,1,0,2,14,2,0,3
63.69,0,1,1,3,5,0,0,4
63.695,1,0,1,11,2,4,2,2
63.7,2,1,2,4,6,1,3,1
63.705,6,2,2,2,22,2,0,10
63.71,5,3,1,10,28,2,3,6
63.715,1,9,3,0,6,2,2,23
63.72,3,2,2,2,54,1,3,11
63.725,3,2,0,19,44,6,3,5
63.73,1,0,2,4,14,3,4,8
63.735,9,3,1,7,4,0,0,7
63.74,2,1,2,3,11,1,2,3
63.745,4,1,0,7,35,3,2,8
63.75,10,2,0,3,22,3,3,7
63.755,14,1,8,8,9,2,2,3
63.76,3,0,2,1,11,2,5,2
63.765,35,20,0,3,14,2,2,7
63.77,43,8,3,4,29,1,0,7
63.775,14,2,0,5,25,1,1,22
63.78,0,5,3,3,13,2,3,33
63.785,9,33,4,4,6,4,7,13
63.79,27,36,7,4,1,1,1,11
63.795,3,25,2,8,15,0,3,5
63.8,5,46,8,4,17,0,2,12
63.805,26,3,2,3,5,3,3,3
63.81,18,24,8,3,1,0,0,0
63.815,11,12,0,2,8,3,7,3
63.82,13,12,6,0,16,1,3,13
63.825,23,29,6,5,10,1,0,2
63.83,8,8,1,1,4,1,3,15
63.835,37,1,2,5,1,0,0,1
63.84,18,3,0,4,2,0,1,6
63.845,26,11,11,6,2,1,5,4
63.85,16,18,4,3,3,1,1,8
63.855,4,46,2,1,2,3,3,10
63.86,1,53,0,3,5,0,0,6
63.865,8,7,2,1,6,1,1,2
63.87,10,12,2,3,10,2,1,7
63.875,2,19,4,2,4,3,1,2
63.88,17,5,0,1,3,1,4,17
63.885,22,17,2,1,1,2,3,8
63.89,3,22,6,3,2,2,2,2
63.895,9,7,0,2,2,0,1,2
63.9,9,1,2,2,8,4,3,3
63.905,8,11,0,1,1,1,1,0
63.91,1,14,2,1,1,1,1,0
63.915,7,12,1,3,1,3,1,2
63.92,10,6,3,0,3,1,1,4
63.925,6,9,2,2,2,0,2,1
63.93,9,2,3,0,3,2,1,1
63.935,6,8,1,2,3,0,1,4
63.94,1,14,1,1,1,1,1,3
63.945,0,2,2,3,1,2,0,1
63.95,1,0,2,4,2,0,1,5
63.955,1,7,2,0,0,1,0,2
63.96,3,9,2,0,2,4,3,6
63.965,2,5,1,0,1,1,1,1
63.97,5,2,3,3,4,2,3,0
63.975,1,5,2,0,1,0,1,1
63.98,4,3,6,7,7,4,4,7
63.985,5,3,2,1,1,1,1,1
63.99,2,5,1,4,2,2,4,2
63.995,2,2,7,1,1,1,2,0
64,0,3,1,0,4,0,1,2
64.005,0,3,1,1,2,2,1,3
64.01,3,1,2,1,1,1,2,4
64.015,2,4,2,0,1,2,1,0
64.02,1,1,4,2,0,1,1,1
64.025,1,1,1,2,2,1,2,1
64.03,1,3,0,2,3,1,1,1
64.035,2,0,1,2,1,1,1,2
64.04,1,0,1,2,2,1,1,1
64.045,3,0,1,3,1,1,2,2
64.05,0,4,0,2,0,1,0,3
64.055,1,1,0,2,3,5,4,3
64.06,2,3,2,5,14,7,0,0
64.065,1,2,0,9,0,3,2,1
64.07,3,2,2,20,35,20,7,2
64.075,0,0,2,9,14,10,3,1
64.08,3,0,2,3,2,1,2,1
64.085,0,1,3,14,24,1,1,1
64.09,1,0,2,3,4,11,6,0
64.095,2,0,1,27,15,4,0,0
64.1,0,0,2,31,10,0,1,1
64.105,2,0,2,3,33,4,2,0
64.11,0,1,2,40,3,6,1,1
64.115,4,1,1,22,94,6,3,3
64.12,1,0,5,28,44,7,2,0
64.125,0,2,5,58,68,5,9,0
64.13,1,1,4,59,114,4,2,3
64.135,2,0,1,7,14,2,1,2
64.14,1,0,4,20,11,6,4,3
64.145,2,6,2,54,8,5,5,3
64.15,1,4,8,46,48,3,1,3
64.155,0,1,0,48,63,8,5,1
64.16,2,2,1,4,16,12,6,3
64.165,2,1,5,28,71,4,1,1
64.17,2,1,4,9,17,8,4,1
64.175,3,1,4,6,44,9,5,3
64.18,2,4,6,28,96,7,3,1
64.185,1,3,3,65,94,1,2,1
64.19,0,1,6,56,19,1,1,2
64.195,2,0,0,32,70,0,4,0
64.2,3,4,4,13,58,2,1,3
64.205,0,0,1,29,1,3,0,0
64.21,5,4,2,73,22,1,7,4
64.215,3,2,8,53,11,8,8,5
64.22,1,4,18,62,63,4,3,3
64.225,1,2,2,10,94,3,0,2
64.23,1,2,2,32,21,1,3,1
64.235,2,5,5,51,71,7,2,2
64.24,2,1,0,10,2,0,2,4
64.245,2,1,3,40,52,1,1,2
64.25,2,1,1,41,128,5,1,4
64.255,0,0,1,27,43,9,2,3
64.26,3,0,3,28,33,0,0,0
64.265,3,3,7,35,57,9,4,3
64.27,0,1,2,19,2,2,1,1
64.275,1,1,1,10,5,7,3,3
64.28,4,4,3,8,44,10,4,3
64.285,0,0,1,55,18,2,3,1
64.29,2,2,2,49,8,3,2,1
64.295,1,2,8,49,53,6,4,5
64.3,1,3,1,16,119,2,2,1
64.305,1,1,3,10,124,14,4,3
64.31,0,1,4,8,44,10,0,0
64.315,4,5,10,38,37,4,1,2
64.32,1,0,2,6,22,1,1,0
64.325,2,1,1,0,65,3,1,1
64.33,0,2,2,29,126,4,2,4
64.335,2,2,5,0,43,3,2,2
64.34,0,0,2,31,30,3,0,1
64.345,0,1,1,15,73,6,2,1
64.35,1,0,1,6,38,5,1,0
64.355,3,3,1,5,25,2,5,4
64.36,1,3,3,4,74,4,3,1
64.365,2,0,0,34,55,2,2,3
64.37,2,1,1,11,29,5,1,2
64.375,1,2,2,0,52,2,4,2
64.38,1,1,2,0,60,6,1,1
64.385,1,3,3,17,67,8,1,0
64.39,4,4,5,3,29,8,3,3
64.395,1,0,1,3,2,6,0,1
64.4,0,0,0,1,5,2,2,2
64.405,1,2,4,7,92,6,3,2
64.41,1,2,0,10,12,3,0,1
64.415,2,4,5,6,78,13,4,3
64.42,1,1,0,9,6,0,1,1
64.425,2,1,1,14,36,4,0,2
64.43,2,0,3,15,36,3,0,1
64.435,0,0,4,43,41,2,2,9
64.44,2,1,2,4,39,0,2,2
64.445,4,0,2,18,75,3,4,27
64.45,2,1,3,22,0,3,2,28
64.455,5,1,0,30,35,1,2,5
64.46,3,1,3,0,17,2,0,25
64.465,15,1,0,10,17,0,5,16
64.47,14,0,2,11,24,2,1,17
64.475,3,2,1,13,17,0,1,9
64.48,10,8,1,5,43,3,1,4
64.485,12,6,2,1,8,1,2,35
64.49,24,3,1,8,19,0,1,50
64.495,68,15,2,2,17,2,3,41
64.5,51,5,4,2,2,4,7,39
64.505,11,12,4,4,2,2,4,11
64.51,7,24,5,5,0,4,13,23
64.515,6,1,1,1,9,4,5,10
64.52,22,8,1,0,8,1,1,16
64.525,36,37,6,6,4,2,1,4
64.53,44,2,1,6,8,0,2,5
64.535,47,4,3,9,18,4,4,22
64.54,66,28,4,2,15,1,0,13
64.545,5,10,1,1,1,3,1,32
64.55,15,17,2,1,0,1,4,24
64.555,22,3,1,5,6,0,1,6
64.56,29,15,7,3,4,1,2,8
64.565,17,14,5,6,1,0,1,7
64.57,19,5,2,3,1,4,4,13
64.575,3,16,1,4,9,3,1,11
64.58,5,29,0,2,7,0,1,3
64.585,13,26,6,2,3,1,0,2
64.59,51,8,1,0,5,1,2,7
64.595,6,53,7,4,4,1,2,14
64.6,25,19,1,0,0,0,1,9
64.605,6,5,4,2,1,4,4,0
64.61,10,4,2,2,1,1,1,3
64.615,13,9,1,3,1,2,2,9
64.62,39,1,0,0,1,0,0,7
64.625,16,2,1,6,5,2,0,3
64.63,6,3,2,1,3,1,1,0
64.635,5,12,1,2,7,1,4,1
64.64,17,8,3,1,3,2,0,3
64.645,20,6,2,2,1,2,2,2
64.65,13,1,1,2,0,0,3,0
64.655,5,6,0,2,6,0,1,2
64.66,5,3,0,2,2,1,3,0
64.665,3,1,4,0,4,2,2,0
64.67,15,7,6,1,4,3,1,4
64.675,10,1,0,1,2,2,1,3
64.68,1,1,2,2,1,0,3,1
64.685,3,5,1,0,3,0,2,1
64.69,3,1,1,0,1,2,1,5
64.695,11,3,0,1,2,4,2,0
64.7,11,0,2,2,3,2,2,1
64.705,1,4,2,3,3,3,4,4
64.71,0,0,0,3,0,3,3,2
64.715,3,2,1,2,0,1,0,1
64.72,8,0,2,0,1,1,2,1
64.725,3,0,2,1,0,1,0,1
64.73,0,2,3,0,1,2,1,4
64.735,0,4,0,1,3,3,3,1
64.74,3,1,3,3,2,0,3,4
64.745,22,3,1,5,6,0,1,6
64.75,29,15,7,3,4,1,2,8
64.755,3,2,1,2,0,1,0,1
64.76,8,0,2,0,1,1,2,1
64.765,3,0,2,1,0,1,0,1
64.77,0,2,3,0,1,2,1,4
64.775,0,4,0,1,3,3,3,1
64.78,3,1,3,3,2,0,3,4
64.785,3,2,1,2,1,2,1,3
64.79,4,1,3,3,2,3,2,0
64.795,0,2,0,3,0,0,2,0
64.8,1,2,1,1,1,2,3,0
64.805,1,1,1,0,3,0,1,1
64.81,0,1,0,1,1,0,2,4
64.815,2,0,1,2,4,6,3,2
64.82,3,1,0,2,1,1,3,3
64.825,1,2,0,1,4,2,1,1
64.83,2,0,1,2,3,3,0,1
64.835,1,1,1,2,4,3,2,2
64.84,1,1,1,2,9,5,3,0
64.845,0,0,1,4,19,3,1,2
64.85,4,2,1,5,14,5,1,3
64.855,0,0,2,2,6,2,1,0
64.86,1,3,5,5,13,2,1,2
64.865,0,1,1,10,21,3,4,1
64.87,1,1,3,58,46,13,6,1
64.875,1,2,2,1,20,8,1,2
64.88,4,1,0,1,16,4,3,4
64.885,0,1,1,12,21,3,2,0
64.89,0,1,6,24,14,9,2,1
64.895,2,0,3,25,55,9,4,1
64.9,2,1,5,10,22,4,1,0
64.905,0,2,4,26,1,3,1,1
64.91,1,0,0,1,2,2,5,5
64.915,1,2,4,32,27,2,3,3
64.92,3,0,1,21,16,11,6,3
64.925,2,2,5,1,30,2,0,1
64.93,2,2,0,8,23,1,1,0
64.935,3,3,2,5,29,3,4,4
64.94,2,0,0,11,66,16,6,3
64.945,1,0,2,24,13,1,1,1
64.95,2,3,1,18,4,1,1,1
64.955,2,3,2,20,41,0,1,0
64.96,1,1,0,8,23,4,0,1
64.965,2,2,2,19,9,12,0,1
64.97,3,2,10,48,36,11,3,2
64.975,1,0,2,18,27,3,4,0
64.98,0,0,2,28,14,7,2,3
64.985,3,4,5,16,26,18,8,6
64.99,1,3,4,0,11,3,4,2
64.995,0,1,4,22,67,7,2,2
65,4,6,11,18,96,15,2,4
65.005,2,1,3,22,92,0,3,1
65.01,1,2,0,17,1,9,1,0
65.015,4,4,4,20,104,14,3,2
65.02,2,2,4,11,7,3,3,3
65.025,3,3,6,7,11,8,4,2
65.03,1,0,1,1,73,1,1,1
65.035,5,6,8,34,67,11,6,7
65.04,3,2,2,8,4,6,1,3
65.045,1,1,2,16,49,2,1,2
65.05,0,1,3,41,49,3,1,0
65.055,1,1,1,27,27,1,2,1
65.06,4,2,2,41,43,6,1,2
65.065,0,1,5,15,34,9,3,0
65.07,0,1,1,53,71,1,3,2
65.075,0,0,2,7,21,6,0,1
65.08,3,3,4,5,26,1,6,7
65.085,0,0,2,29,22,0,3,2
65.09,4,1,3,12,36,10,2,3
65.095,2,2,1,15,34,14,1,3
65.1,3,2,5,19,46,5,1,2
65.105,3,2,1,3,16,1,2,2
65.11,0,0,2,3,19,8,1,0
65.115,0,2,3,15,38,5,0,0
65.12,3,2,1,41,36,0,1,1
65.125,4,7,10,31,49,8,7,5
65.13,2,2,1,28,91,6,1,0
65.135,4,3,2,8,39,3,3,2
65.14,1,0,2,35,41,2,4,4
65.145,1,0,0,13,25,7,2,1
65.15,2,0,1,15,5,2,1,0
65.155,3,3,3,20,21,2,0,0
65.16,1,0,3,4,69,8,2,1
65.165,1,2,4,36,2,0,1,1
65.17,1,1,7,11,62,8,3,3
65.175,1,2,1,10,2,3,4,1
65.18,0,1,1,20,22,6,5,1
65.185,2,1,0,28,0,5,4,3
65.19,4,1,0,21,27,23,12,8
65.195,3,1,1,31,36,1,0,2
65.2,1,1,2,35,28,5,2,0
65.205,3,0,5,13,58,3,3,3
65.21,2,1,2,3,2,14,8,4
65.215,2,3,5,4,8,7,4,1
65.22,0,2,6,22,20,9,5,3
65.225,1,1,6,62,68,12,3,1
65.23,3,3,4,9,20,2,2,2
65.235,2,2,0,29,44,3,6,5
65.24,3,1,1,4,10,6,2,4
65.245,0,1,0,5,3,2,2,1
65.25,1,0,4,11,13,0,3,0
65.255,0,0,3,27,17,3,1,0
65.26,0,0,0,14,6,3,3,1
65.265,3,2,4,59,101,2,3,3
65.27,1,0,4,3,11,1,0,1
65.275,0,0,3,2,13,2,0,1
65.28,0,1,1,11,37,2,1,1
65.285,1,2,3,14,4,7,1,2
65.29,0,0,2,10,22,8,6,5
65.295,0,1,1,30,13,6,2,2
65.3,1,2,4,24,47,0,1,3
65.305,2,2,2,7,5,5,2,3
65.31,6,4,4,4,7,9,6,3
65.315,1,2,1,26,45,6,0,0
65.32,0,0,0,12,69,2,3,3
65.325,3,0,1,6,6,1,4,3
65.33,3,2,0,9,2,8,7,6
65.335,0,2,3,14,1,3,1,1
65.34,2,4,6,14,21,1,3,2
65.345,0,1,1,15,16,2,1,1
65.35,0,0,0,15,30,4,2,3
65.355,3,2,2,2,100,4,2,1
65.36,2,3,2,24,0,4,4,4
65.365,0,0,1,8,20,0,2,2
65.37,2,1,0,9,5,1,0,1
65.375,1,2,1,25,19,1,1,2
65.38,1,1,2,17,75,1,0,1
65.385,0,1,4,11,21,4,3,3
65.39,1,2,2,15,10,1,1,1
65.395,0,3,5,24,19,2,0,6
65.4,0,0,1,3,39,1,1,4
65.405,1,0,1,17,1,1,1,6
65.41,4,2,3,38,48,1,1,3
65.415,1,5,3,7,17,4,4,21
65.42,1,1,1,8,4,0,3,3
65.425,2,1,6,6,9,2,4,9
65.43,4,2,0,5,3,0,8,14
65.435,2,2,0,2,3,1,0,9
65.44,4,1,1,4,2,3,3,13
65.445,11,6,3,22,49,5,4,8
65.45,22,5,0,4,45,2,1,12
65.455,7,0,3,12,1,1,1,19
65.46,2,2,1,9,3,1,1,5
65.465,41,21,1,10,19,0,0,7
65.47,44,0,1,1,1,3,2,20
65.475,22,3,5,12,19,1,0,21
65.48,10,7,4,5,7,2,1,9
65.485,12,6,1,2,9,3,0,7
65.49,11,16,5,2,2,0,1,2
65.495,15,30,1,1,3,2,3,4
65.5,24,21,4,4,2,0,0,21
65.505,8,13,2,1,11,1,1,4
65.51,4,9,0,2,4,0,0,16
65.515,9,43,11,2,9,3,5,6
65.52,22,84,8,6,8,1,0,9
65.525,36,18,6,5,3,1,1,11
65.53,26,50,7,7,7,0,2,15
65.535,39,0,6,4,4,4,2,3
65.54,28,34,2,1,1,4,5,6
65.545,37,29,11,2,8,3,3,12
65.55,15,4,11,5,6,0,3,5
65.555,47,66,7,2,5,2,2,24
65.56,24,104,16,10,5,4,6,20
65.565,2,8,2,0,2,2,1,7
65.57,45,50,3,4,2,0,2,20
65.575,0,17,6,8,10,3,1,21
65.58,18,26,6,2,0,1,4,31
65.585,33,18,2,1,5,3,2,7
65.59,14,10,7,5,4,4,7,21
65.595,7,24,0,1,1,0,2,1
65.6,27,26,1,7,6,1,0,2
65.605,17,12,1,2,2,2,1,14
65.61,4,35,1,2,1,2,2,5
65.615,14,1,0,0,1,0,1,1
65.62,12,3,3,4,3,3,2,2
65.625,0,1,5,2,1,0,1,0
65.63,6,6,6,1,3,2,0,5
65.635,29,11,4,2,3,2,2,4
65.64,23,2,1,5,3,1,2,3
65.645,4,3,1,1,2,2,2,3
65.65,1,12,5,1,2,4,4,5
65.655,9,5,3,3,2,2,0,2
65.66,1,8,1,1,1,1,2,0
65.665,5,2,1,0,1,2,1,0
65.67,4,23,0,1,3,1,3,1
65.675,4,11,0,3,1,1,0,1
65.68,4,37,4,4,3,3,2,4
65.685,0,24,2,1,1,2,2,3
65.69,8,3,1,1,3,4,4,7
65.695,6,6,3,0,2,2,2,1
65.7,4,10,0,1,1,0,0,5
65.705,5,1,2,1,2,1,2,2
65.71,2,12,3,3,2,1,3,1
65.715,9,14,10,4,4,2,2,0
65.72,8,15,3,1,1,2,5,6
65.725,0,6,2,0,0,1,1,0
65.73,9,14,6,1,2,0,1,2
65.735,4,4,3,2,1,0,2,2
65.74,4,7,1,1,3,0,2,4
65.745,2,10,1,4,2,2,1,2
65.75,2,8,6,2,1,2,2,2
65.755,1,3,1,0,0,1,1,1
65.76,2,1,2,5,3,2,0,3
65.765,14,4,5,3,3,2,1,3
65.77,20,32,2,1,1,0,1,5
65.775,8,26,0,0,1,3,3,1
65.78,6,8,3,3,2,2,1,2
65.785,0,2,4,2,3,2,1,0
65.79,11,10,3,0,1,0,1,4
65.795,3,4,4,4,2,2,2,1
65.8,2,2,1,1,0,1,2,2
65.805,1,5,3,2,3,4,2,3
65.81,2,10,1,1,1,1,0,1
65.815,2,1,1,1,2,1,1,2
65.82,5,7,1,2,2,4,2,5
65.825,5,7,3,3,3,0,1,1
65.83,4,9,1,0,0,1,1,2
65.835,0,3,4,1,1,1,1,1
65.84,0,1,1,2,3,2,2,1
65.845,2,2,10,0,3,0,1,1
65.85,2,6,3,2,1,0,3,0
65.855,1,5,1,1,2,1,1,1
65.86,2,1,1,1,5,5,3,3
65.865,1,1,1,3,3,1,2,1
65.87,2,8,1,1,3,3,2,1
65.875,0,2,5,4,7,1,1,0
65.88,2,3,0,1,4,6,2,1
65.885,3,2,0,8,5,2,0,1
65.89,3,3,1,7,3,3,2,1
65.895,0,2,16,10,7,2,0,2
65.9,1,2,2,10,18,5,1,2
65.905,2,4,4,18,18,7,2,4
65.91,0,2,3,0,45,6,3,1
65.915,1,1,0,5,14,10,3,2
65.92,2,3,3,4,2,5,4,3
65.925,0,2,4,24,41,13,1,1
65.93,3,2,1,60,40,5,2,2
65.935,2,0,8,2,1,7,3,2
65.94,4,3,7,50,1,3,5,4
65.945,3,2,9,56,13,2,3,3
65.95,3,3,1,20,1,3,4,2
65.955,2,2,6,23,14,10,3,1
65.96,2,0,6,1,13,12,2,0
65.965,1,2,9,0,23,6,4,1
65.97,1,3,7,2,66,6,1,3
65.975,4,3,1,89,28,0,7,3
65.98,4,2,5,69,61,5,2,2
65.985,2,3,5,21,25,1,3,0
65.99,1,2,0,18,5,9,1,1
65.995,1,1,3,19,56,3,1,2
66,2,2,5,7,69,1,7,5
66.005,0,2,0,3,43,1,5,0
66.01,2,5,14,62,85,27,8,3
66.015,1,1,2,33,2,15,2,0
66.02,2,1,0,27,25,2,0,2
66.025,2,4,7,22,114,9,2,4
66.03,4,5,13,49,71,12,0,3
66.035,1,0,5,23,10,7,3,5
66.04,1,3,11,41,47,6,1,0
66.045,1,1,2,37,53,0,1,1
66.05,2,2,3,87,47,4,4,3
66.055,1,1,1,61,7,1,0,3
66.06,2,2,2,66,59,5,2,4
66.065,7,7,11,39,4,13,14,7
66.07,1,2,8,58,84,3,3,1
66.075,6,6,12,42,26,18,6,2
66.08,2,3,2,27,20,17,8,8
66.085,1,1,2,18,35,2,3,1
66.09,0,0,0,12,26,7,2,2
66.095,1,1,3,31,57,8,8,2
66.1,2,2,3,55,58,14,8,4
66.105,0,2,3,18,128,4,4,1
66.11,4,5,6,13,40,10,6,3
66.115,2,2,0,37,88,1,0,1
66.12,2,2,9,13,26,4,3,1
66.125,1,1,3,20,2,3,1,1
66.13,1,2,7,4,46,10,3,0
66.135,3,2,4,12,20,8,3,3
66.14,2,3,3,14,19,6,2,2
66.145,3,2,7,12,8,0,6,2
66.15,3,6,4,4,6,21,12,7
66.155,8,7,9,4,80,22,12,10
66.16,2,1,0,37,32,16,10,6
66.165,5,5,10,7,95,18,11,8
66.17,3,3,3,5,96,10,4,4
66.175,4,5,3,25,58,3,9,4
66.18,1,2,2,32,45,9,5,0
66.185,2,0,0,6,17,5,0,1
66.19,1,1,4,19,108,2,7,3
66.195,2,2,3,34,37,11,2,2
66.2,2,2,1,15,114,7,0,0
66.205,1,1,2,9,10,4,1,0
66.21,4,3,2,6,74,13,6,4
66.215,2,1,3,8,9,2,1,1
66.22,1,1,6,23,38,3,2,3
66.225,3,3,1,1,80,0,5,4
66.23,1,2,0,9,24,11,5,2
66.235,3,3,0,16,81,5,8,4
66.24,3,4,2,13,2,2,0,0
66.245,0,2,5,4,92,3,3,2
66.25,1,2,2,21,106,2,2,1
66.255,1,0,1,8,29,5,0,1
66.26,1,3,4,31,34,6,3,3
66.265,1,4,9,18,44,3,1,0
66.27,3,4,3,20,83,8,0,3
66.275,2,1,3,15,96,0,2,1
66.28,0,0,4,24,99,3,2,2
66.285,3,2,5,31,88,9,4,4
66.29,0,2,2,26,30,4,3,0
66.295,1,2,4,1,24,4,1,0
66.3,3,2,7,23,62,5,0,1
66.305,0,0,6,23,34,4,1,1
66.31,2,2,7,26,99,3,2,3
66.315,2,2,6,43,3,5,1,1
66.32,1,2,3,12,8,0,2,0
66.325,3,0,4,32,105,5,2,1
66.33,1,2,2,15,21,1,2,0
66.335,2,2,1,3,4,1,3,1
66.34,1,2,2,7,20,3,1,3
66.345,1,0,0,1,17,0,2,4
66.35,0,3,6,47,108,11,1,1
66.355,1,0,0,3,39,3,3,0
66.36,1,1,4,8,0,2,2,11
66.365,5,2,2,12,4,4,4,0
66.37,4,2,3,8,8,7,0,27
66.375,2,1,5,1,93,7,3,16
66.38,3,0,1,19,9,3,3,38
66.385,6,2,2,23,80,2,3,24
66.39,9,4,1,8,3,4,2,50
66.395,3,0,1,31,67,2,1,31
66.4,24,9,2,29,38,2,1,1
66.405,60,3,0,3,79,2,8,79
66.41,39,6,10,5,119,8,3,112
66.415,16,3,7,14,75,1,1,72
66.42,60,16,11,21,14,1,7,41
66.425,23,8,14,40,4,3,7,24
66.43,68,7,4,11,1,2,12,61
66.435,22,3,3,3,35,3,5,32
66.44,24,13,3,3,7,3,17,45
66.445,61,18,5,37,83,8,6,68
66.45,31,5,4,3,15,2,2,55
66.455,31,78,4,54,14,5,0,16
66.46,12,99,12,3,9,1,12,40
66.465,61,12,1,15,68,3,8,75
66.47,24,51,8,2,32,5,4,63
66.475,12,7,3,18,10,7,9,13
66.48,12,9,1,5,26,1,4,60
66.485,27,12,10,24,29,6,1,25
66.49,25,43,2,16,15,4,3,40
66.495,29,4,5,36,35,4,0,22
66.5,14,30,1,21,15,8,3,56
66.505,52,19,6,13,14,1,1,34
66.51,20,29,8,36,20,2,2,44
66.515,45,31,24,86,83,11,15,24
66.52,21,2,12,0,7,1,2,26
66.525,29,49,1,2,6,1,2,24
66.53,14,63,7,2,13,4,8,8
66.535,3,56,4,21,45,2,4,21
66.54,18,2,2,10,44,7,2,44
66.545,22,12,6,8,3,0,5,6
66.55,28,18,1,15,2,4,14,41
66.555,3,30,4,6,6,0,2,62
66.56,17,6,5,12,21,4,9,38
66.565,7,3,2,14,18,0,1,10
66.57,20,10,7,12,1,1,0,9
66.575,52,71,4,5,3,2,2,13
66.58,93,116,11,12,15,3,9,12
66.585,33,61,5,3,16,2,1,37
66.59,10,30,16,12,15,6,2,26
66.595,8,20,2,1,13,1,4,8
66.6,25,106,2,11,15,1,3,30
66.605,6,30,6,1,6,1,5,46
66.61,7,39,13,10,17,0,0,7
66.615,14,10,6,19,36,4,4,28
66.62,1,34,7,12,25,1,3,12
66.625,18,24,3,9,13,6,8,12
66.63,0,13,7,4,7,3,7,24
66.635,24,1,3,6,7,2,9,28
66.64,10,65,5,4,5,4,4,18
66.645,20,64,1,2,4,6,8,16
66.65,4,14,1,1,4,1,3,7
66.655,0,2,3,1,6,1,7,14
66.66,3,37,1,1,11,4,7,11
66.665,12,14,0,5,3,2,1,23
66.67,18,25,1,10,5,1,3,2
66.675,10,4,4,2,4,3,2,4
66.68,4,15,8,9,17,2,0,1
66.685,17,2,1,1,2,1,3,0
66.69,18,3,0,1,2,2,0,16
66.695,10,17,4,1,3,0,2,9
66.7,5,6,3,2,3,1,4,9
66.705,2,15,4,6,3,1,1,2
66.71,8,8,1,2,0,2,3,22
66.715,19,4,3,7,6,2,0,40
66.72,6,3,0,3,8,0,1,6
66.725,15,16,3,8,3,3,2,2
66.73,23,54,4,5,2,3,7,22
66.735,14,19,5,10,22,1,2,12
66.74,21,17,1,2,2,0,2,9
66.745,13,22,4,7,5,2,4,2
66.75,21,11,6,2,3,2,2,5
66.755,3,2,3,12,13,0,1,10
66.76,4,2,2,11,10,3,1,9
66.765,3,16,5,8,3,2,2,3
66.77,2,16,3,3,3,2,1,3
66.775,10,26,5,2,3,2,0,15
66.78,3,20,5,5,1,2,0,4
66.785,0,0,2,1,1,2,2,0
66.79,1,8,1,4,7,1,1,4
66.795,4,12,6,7,5,1,1,1
66.8,2,8,2,1,3,0,4,7
66.805,2,4,1,2,5,1,1,0
66.81,1,6,2,5,3,3,2,3
66.815,11,1,5,0,2,2,3,6
66.82,6,3,2,1,3,1,1,5
66.825,1,3,2,2,2,1,0,4
66.83,5,14,3,1,5,3,2,2
66.835,10,2,4,0,3,1,2,4
66.84,1,6,0,13,4,2,1,2
66.845,5,10,0,3,1,2,3,2
66.85,1,1,0,3,0,2,2,2
66.855,6,0,1,3,12,6,5,1
66.86,3,6,7,11,1,4,4,3
66.865,1,0,3,40,30,3,11,0
66.87,0,2,6,6,10,4,2,0
66.875,3,2,2,1,6,1,1,1
66.88,0,4,3,3,29,12,9,3
66.885,1,0,0,28,4,2,5,0
66.89,0,3,5,33,56,9,2,1
66.895,2,2,3,26,60,3,1,0
66.9,2,3,12,82,63,4,1,3
66.905,2,2,0,28,33,6,3,1
66.91,3,1,0,1,17,0,2,1
66.915,2,0,0,29,22,2,0,2
66.92,2,0,2,13,35,5,4,3
66.925,0,0,0,17,45,9,3,0
66.93,2,4,1,13,22,13,4,2
66.935,0,2,1,9,28,15,0,1
66.94,3,2,6,28,29,0,9,1
66.945,2,4,2,33,52,7,2,1
66.95,3,0,1,33,26,11,1,2
66.955,1,1,2,9,59,3,5,1
66.96,3,6,6,43,2,6,4,2
66.965,2,3,2,10,15,11,5,2
66.97,1,2,2,18,2,2,3,4
66.975,2,1,2,4,14,0,2,1
66.98,0,3,4,36,94,10,1,1
66.985,0,1,5,24,110,9,2,0
66.99,4,3,4,45,84,0,4,1
66.995,1,1,0,15,12,10,8,1
67,1,4,13,74,62,26,7,6
67.005,0,2,0,32,82,2,5,1
67.01,2,1,1,18,17,10,3,1
67.015,6,5,10,19,9,12,6,7
67.02,2,2,6,19,37,10,1,1
67.025,2,0,5,23,33,1,0,2
67.03,1,4,5,15,85,3,1,1
67.035,1,0,2,45,44,2,1,3
67.04,2,1,6,18,7,6,4,1
67.045,0,4,9,8,34,3,0,2
67.05,1,2,5,35,4,1,1,3
67.055,3,3,1,36,30,0,0,1
67.06,0,1,1,71,4,1,3,2
67.065,0,1,5,5,71,8,1,0
67.07,1,1,3,61,27,1,1,2
67.075,3,2,6,11,54,8,2,3
67.08,2,0,4,17,1,11,7,5
67.085,1,5,0,16,103,1,0,2
67.09,3,0,2,22,54,6,3,4
67.095,1,1,3,6,60,13,4,2
67.1,0,1,5,14,107,9,2,2
67.105,3,1,5,4,32,2,4,1
67.11,1,1,7,40,20,6,5,2
67.115,6,7,13,19,28,11,7,6
