0.01,1,1,4,5,0,0,1,1
0.015,1,1,11,7,3,1,1,1
0.02,1,3,5,17,3,1,1,1
0.025,0,2,3,5,0,0,1,0
0.03,1,3,8,3,3,2,2,2
0.035,0,4,2,9,1,1,1,1
0.04,2,3,3,0,1,0,2,3
0.045,2,2,12,9,4,2,0,0
0.05,1,7,20,0,0,1,1,2
0.055,2,9,14,2,3,1,1,2
0.06,1,1,3,5,0,0,1,0
0.065,0,2,0,2,0,1,0,3
0.07,2,4,12,6,5,4,1,1
0.075,0,2,6,6,3,1,0,2
0.08,1,2,1,11,6,1,0,0
0.085,0,2,1,1,1,1,0,0
0.09,1,4,8,1,2,2,2,3
0.095,2,0,4,2,1,2,1,1
0.1,2,1,4,4,2,0,1,3
0.105,0,0,5,4,5,0,0,1
0.11,1,6,9,2,0,1,0,1
0.115,1,2,10,15,1,2,1,1
0.12,2,4,27,52,10,5,2,2
0.125,1,1,2,5,0,0,2,1
0.13,2,3,0,5,0,0,0,1
0.135,1,2,0,0,2,2,2,1
0.14,1,2,3,6,1,2,2,0
0.145,0,3,1,1,2,1,0,1
0.15,1,5,8,2,4,2,1,2
0.155,0,0,2,3,1,2,1,2
0.16,2,0,0,4,6,1,1,0
0.165,1,0,3,5,5,1,0,1
0.17,3,1,13,21,4,2,2,0
0.175,1,4,5,1,0,0,0,0
0.18,1,6,8,1,1,1,1,2
0.185,4,5,1,1,4,1,1,3
0.19,1,2,6,4,3,1,1,0
0.195,0,1,5,7,6,1,1,0
0.2,2,3,1,5,2,2,2,2
0.205,1,3,3,8,4,2,0,2
0.21,4,3,17,22,6,5,1,0
0.215,1,0,1,9,6,0,0,0
0.22,0,1,1,9,4,0,1,2
0.225,2,0,1,8,2,1,0,1
0.23,1,1,8,10,0,0,1,2
0.235,1,2,1,4,0,3,1,1
0.24,1,3,2,3,0,2,1,0
0.245,0,0,5,8,7,3,2,3
0.25,0,1,4,4,3,0,0,0
0.255,3,3,2,0,2,1,2,2
0.26,1,3,1,1,0,0,1,1
0.265,0,1,5,6,2,3,2,0
0.27,1,1,3,2,1,0,0,1
0.275,2,4,1,0,1,0,1,0
0.28,2,1,4,6,5,1,1,1
0.285,2,2,3,2,2,2,0,1
0.29,0,2,4,7,1,1,2,1
0.295,1,0,1,3,0,0,1,3
0.3,2,1,5,8,3,2,1,1
0.305,1,1,6,9,3,1,2,1
0.31,1,0,1,1,1,0,2,2
0.315,1,1,5,4,3,2,3,1
0.32,0,1,4,2,3,2,0,1
0.325,1,4,4,1,1,2,1,0
0.33,3,0,4,10,0,1,0,1
0.335,2,1,10,19,6,0,4,0
0.34,1,1,9,5,4,4,1,2
0.345,1,0,2,9,1,2,2,1
0.35,0,4,2,2,2,1,0,1
0.355,1,1,3,3,4,1,0,1
0.36,0,2,1,1,2,0,1,1
0.365,1,0,8,2,1,1,0,0
0.37,1,1,10,10,6,2,1,1
0.375,1,1,1,5,1,1,3,1
0.38,0,1,6,6,3,3,2,1
0.385,2,4,4,3,1,1,0,0
0.39,1,1,6,0,1,2,0,1
0.395,1,4,6,0,1,2,1,1
0.4,0,2,19,20,5,3,3,1
0.405,0,1,1,7,5,2,1,2
0.41,1,1,2,0,1,2,3,1
0.415,1,3,4,1,1,1,2,1
0.42,2,1,6,4,3,3,0,0
0.425,0,1,1,2,3,2,1,1
0.43,3,1,5,1,1,2,1,2
0.435,4,0,3,1,3,3,0,1
0.44,2,2,3,1,0,1,1,3
0.445,2,1,3,0,1,1,2,2
0.45,0,2,3,1,3,1,1,1
0.455,1,8,15,4,3,3,1,0
0.46,1,4,17,16,4,0,3,1
0.465,3,13,17,16,2,3,1,2
0.47,1,2,2,2,1,2,1,0
0.475,1,1,2,1,2,2,0,0
0.48,2,2,5,4,3,3,0,1
0.485,2,3,4,7,4,2,0,2
0.49,1,0,1,1,0,1,3,1
0.495,2,4,0,2,1,1,1,2
0.5,1,2,2,2,1,1,0,0
0.505,2,1,7,11,3,3,1,1
0.51,2,4,4,0,2,2,1,2
0.515,0,3,2,2,4,0,1,2
0.52,0,1,1,1,2,1,1,1
0.525,1,0,2,3,1,2,1,0
0.53,1,1,2,0,2,1,1,1
0.535,2,0,2,3,4,2,3,0
0.54,3,7,8,3,1,0,1,0
0.545,1,6,7,1,3,2,2,1
0.55,0,1,1,0,2,1,0,2
0.555,1,2,1,1,1,1,0,1
0.56,1,4,3,9,3,3,1,1
0.565,1,3,2,3,4,3,0,1
0.57,1,0,5,6,2,2,1,1
0.575,1,2,6,10,3,0,0,1
0.58,2,3,28,48,11,4,2,2
0.585,3,2,3,2,3,1,1,1
0.59,2,1,1,2,5,3,1,1
0.595,2,0,2,1,2,2,1,2
0.6,1,2,7,12,1,1,0,1
0.605,0,0,2,3,4,2,1,1
0.61,2,2,3,5,3,2,0,2
0.615,0,0,1,0,0,1,1,3
0.62,1,2,3,5,3,1,1,2
0.625,0,3,8,2,4,2,1,1
0.63,1,3,0,2,1,1,2,0
0.635,1,0,3,6,2,1,1,1
0.64,1,1,4,7,1,2,2,4
0.645,1,3,5,2,1,0,0,1
0.65,0,3,5,5,6,2,2,1
0.655,2,3,6,5,2,1,1,0
0.66,1,1,2,1,5,2,3,1
0.665,0,0,2,9,4,2,2,2
0.67,0,0,2,22,2,2,2,0
0.675,2,2,1,0,3,1,0,2
0.68,1,2,4,4,0,1,2,1
0.685,2,2,3,2,5,4,2,1
0.69,1,4,7,2,6,3,1,0
0.695,3,5,1,1,5,2,1,0
0.7,1,1,3,2,0,3,1,0
0.705,2,0,3,5,2,0,1,1
0.71,1,2,3,5,0,1,0,1
0.715,1,1,1,6,5,3,1,2
0.72,1,3,0,3,2,1,0,1
0.725,0,5,2,1,1,1,2,1
0.73,1,1,4,3,5,2,2,2
0.735,1,1,5,2,0,2,3,1
0.74,1,0,5,4,0,0,1,1
0.745,2,1,1,4,3,4,1,2
0.75,2,1,2,0,3,3,0,0
0.755,0,0,1,4,7,2,1,0
0.76,1,4,6,6,3,1,1,0
0.765,1,3,3,4,1,1,1,0
0.77,1,2,4,3,1,1,1,0
0.775,1,1,1,4,5,2,2,1
0.78,1,1,4,8,2,0,1,0
0.785,1,0,0,7,0,0,0,1
0.79,2,5,6,23,6,3,1,3
0.795,0,2,3,7,4,1,1,1
0.8,0,0,0,0,1,0,1,1
0.805,2,3,1,8,6,0,0,1
0.81,1,2,0,8,1,3,2,2
0.815,2,1,2,1,1,2,0,0
0.82,0,1,1,2,3,1,2,2
0.825,0,0,1,2,3,1,2,1
0.83,1,1,1,8,1,1,0,1
0.835,1,4,8,17,1,2,2,2
0.84,0,2,8,3,2,1,1,1
0.845,1,2,2,8,5,1,3,0
0.85,2,1,2,2,2,1,1,2
0.855,1,0,2,3,2,1,0,2
0.86,1,4,5,5,5,2,1,2
0.865,1,2,5,16,6,3,1,1
0.87,2,3,1,7,2,3,2,1
0.875,1,1,1,4,6,3,1,2
0.88,1,3,4,0,5,0,1,1
0.885,0,2,2,2,4,2,0,1
0.89,0,1,1,3,0,0,1,0
0.895,2,2,1,1,2,3,2,2
0.9,1,3,2,5,3,1,2,0
0.905,3,1,6,2,1,1,1,2
0.91,1,0,8,6,2,2,1,1
0.915,1,7,6,2,2,0,0,1
0.92,0,1,3,2,3,0,2,0
0.925,1,2,8,1,0,1,0,1
0.93,1,1,1,0,9,4,1,1
0.935,1,0,5,9,13,5,1,1
0.94,0,0,2,19,8,3,2,2
0.945,2,1,2,1,0,0,1,2
0.95,1,4,0,0,1,0,2,2
0.955,1,5,8,10,5,5,2,2
0.96,2,11,20,13,1,0,0,0
0.965,1,1,9,3,0,1,0,3
0.97,1,2,2,2,1,1,2,1
0.975,1,2,0,1,4,3,3,1
0.98,3,1,1,6,0,0,2,1
0.985,1,1,3,2,0,1,2,2
0.99,1,1,4,8,5,1,0,1
0.995,1,5,12,19,9,2,1,2
1,0,3,3,0,2,2,1,0
1.005,1,2,4,1,4,2,0,1
1.01,1,1,2,6,5,1,1,1
1.015,1,1,2,5,3,0,0,0
1.02,1,3,1,1,3,1,2,2
1.025,1,1,6,0,5,3,2,3
1.03,0,1,3,3,0,1,2,0
1.035,0,0,0,1,1,0,1,1
1.04,1,0,0,2,1,2,0,0
1.045,1,0,2,3,3,1,0,1
1.05,2,4,6,7,5,3,1,4
1.055,2,0,0,1,1,2,1,0
1.06,2,0,2,2,3,2,1,3
1.065,1,2,0,3,1,1,2,2
1.07,0,1,11,3,1,1,1,1
1.075,1,0,11,0,1,1,1,0
1.08,0,3,5,4,2,1,1,1
1.085,1,1,2,2,0,4,1,3
1.09,1,3,1,1,3,0,1,0
1.095,1,1,1,12,4,3,1,2
1.1,2,3,8,1,6,0,0,0
1.105,2,2,2,13,8,3,3,1
1.11,2,2,1,0,2,1,0,1
1.115,2,1,4,6,4,0,1,3
1.12,0,4,5,9,4,1,0,2
1.125,1,0,0,3,1,0,1,1
1.13,1,3,4,0,2,4,1,2
1.135,2,8,14,3,3,0,0,3
1.14,2,3,1,13,7,3,1,2
1.145,2,0,4,6,3,0,0,0
1.15,0,0,2,1,5,2,0,1
1.155,0,0,0,1,5,1,1,1
1.16,0,5,4,5,2,1,1,3
1.165,0,3,4,3,2,0,2,0
1.17,2,1,3,1,1,0,0,2
1.175,1,1,1,5,4,2,1,2
1.18,2,1,1,3,1,3,1,0
1.185,1,1,3,9,1,3,1,2
1.19,2,3,6,1,2,1,1,0
1.195,1,2,1,4,2,0,2,0
1.2,0,0,1,4,2,3,2,2
1.205,1,1,5,1,3,1,1,2
1.21,0,5,0,4,1,2,1,2
1.215,0,1,0,2,2,0,1,2
1.22,2,1,1,11,7,2,1,1
1.225,0,4,5,3,5,1,2,1
1.23,2,2,0,7,3,2,2,2
1.235,3,3,1,2,1,0,1,1
1.24,0,0,6,3,7,4,2,2
1.245,2,1,6,3,0,2,1,1
1.25,1,1,2,1,7,1,2,2
1.255,0,0,0,4,7,1,0,2
1.26,1,1,5,1,2,0,1,1
1.265,1,3,1,2,3,1,1,1
1.27,0,1,1,2,2,0,1,1
1.275,2,6,1,3,6,3,3,3
1.28,2,0,1,2,1,1,0,3
1.285,1,1,2,1,1,0,2,2
1.29,1,0,2,4,1,2,1,2
1.295,2,0,0,3,2,0,1,1
1.3,1,0,5,8,2,1,2,0
1.305,4,4,8,15,7,2,2,1
1.31,0,0,6,1,2,0,1,2
1.315,1,1,8,10,2,1,2,0
1.32,0,3,6,9,1,1,1,1
1.325,1,1,0,2,1,3,0,1
1.33,3,3,2,2,3,3,2,1
1.335,0,1,4,4,3,1,1,1
1.34,2,1,3,5,2,1,1,1
1.345,3,2,0,5,1,0,0,1
1.35,1,1,3,3,1,1,2,1
1.355,0,2,2,4,2,1,1,0
1.36,1,3,4,0,3,2,3,1
1.365,0,4,3,3,3,2,1,2
1.37,3,1,6,2,2,2,3,1
1.375,2,1,5,3,5,2,1,0
1.38,0,2,5,5,3,2,2,2
1.385,1,3,3,2,0,0,0,3
1.39,0,2,7,3,2,0,0,1
1.395,1,1,2,0,2,0,1,2
1.4,1,1,2,4,2,3,0,0
1.405,1,1,2,7,0,1,2,1
1.41,2,1,2,3,1,1,1,1
1.415,3,1,0,2,2,3,2,1
1.42,1,2,7,2,1,1,1,0
1.425,1,3,5,0,1,1,1,2
1.43,1,3,0,5,1,0,1,0
1.435,0,0,1,0,3,3,1,1
1.44,0,1,2,2,2,1,0,1
1.445,2,2,4,1,0,1,0,2
1.45,1,0,3,2,1,1,0,1
1.455,1,3,2,1,3,3,1,1
1.46,2,0,5,1,2,1,1,3
1.465,0,2,2,1,5,1,1,1
1.47,2,2,3,0,7,0,0,1
1.475,1,2,1,5,4,3,1,1
1.48,2,1,1,0,0,2,0,0
1.485,0,5,3,0,1,2,2,1
1.49,0,1,2,7,2,0,0,2
1.495,0,3,3,4,3,0,0,1
1.5,1,3,1,8,5,3,2,1
1.505,0,3,2,10,6,0,1,1
1.51,2,1,7,10,7,1,1,1
1.515,1,1,3,3,1,0,2,2
1.52,1,4,8,17,9,2,1,1
1.525,2,1,1,3,3,2,3,1
1.53,1,3,5,2,3,2,2,1
1.535,0,3,6,3,2,2,0,1
1.54,4,8,1,2,1,2,2,2
1.545,1,4,1,5,3,1,0,0
1.55,1,5,9,1,1,1,1,2
1.555,2,0,0,7,5,1,2,2
1.56,1,1,1,7,6,1,0,1
1.565,1,3,2,6,1,2,2,0
1.57,2,1,7,9,5,3,1,2
1.575,2,3,6,5,2,0,1,1
1.58,1,1,1,5,1,0,1,1
1.585,3,1,1,2,1,2,2,0
1.59,1,0,1,1,1,2,1,1
1.595,2,2,2,2,2,2,4,3
1.6,1,2,1,0,1,1,3,1
1.605,1,1,0,1,0,1,0,0
1.61,1,3,5,2,3,2,2,0
1.615,0,4,1,3,2,1,0,1
1.62,2,3,2,0,1,1,1,2
1.625,1,0,4,3,4,3,2,2
1.63,1,2,5,0,3,1,0,0
1.635,0,2,4,0,1,0,1,1
1.64,3,1,2,0,1,0,1,0
1.645,2,1,1,4,2,1,1,0
1.65,1,1,1,0,5,4,0,2
1.655,2,3,1,2,2,1,0,0
1.66,0,1,4,4,0,2,1,0
1.665,2,3,9,7,4,3,1,1
1.67,0,1,1,12,1,0,2,1
1.675,2,2,6,15,3,2,2,1
1.68,0,1,3,2,4,0,1,0
1.685,0,5,6,1,4,2,1,0
1.69,3,8,8,15,5,4,2,2
1.695,0,3,3,7,2,2,1,2
1.7,1,3,2,1,0,1,1,1
1.705,1,5,0,4,3,0,1,2
1.71,1,0,1,6,0,1,2,3
1.715,0,0,3,1,1,1,1,1
1.72,1,1,6,5,1,1,1,1
1.725,1,1,0,1,2,1,1,1
1.73,3,4,1,3,4,0,0,0
1.735,2,5,6,3,2,0,1,2
1.74,1,1,2,2,4,0,1,2
1.745,2,1,0,1,2,0,1,1
1.75,1,1,0,2,2,1,1,1
1.755,1,1,2,1,2,3,1,1
1.76,1,2,5,1,1,1,0,1
1.765,1,1,4,5,2,2,2,1
1.77,2,0,1,6,5,1,2,2
1.775,2,3,11,24,4,2,2,1
1.78,1,1,7,8,4,2,0,2
1.785,0,3,3,3,4,3,1,3
1.79,1,1,3,6,2,4,1,2
1.795,1,2,10,11,2,1,2,1
1.8,1,2,5,3,4,3,1,1
1.805,1,1,6,3,0,0,2,0
1.81,1,0,4,1,0,3,3,2
1.815,0,3,6,3,1,0,1,1
1.82,0,1,3,0,0,0,1,1
1.825,0,2,5,1,0,1,1,1
1.83,2,1,0,4,1,0,0,2
1.835,1,6,5,3,6,1,1,3
1.84,3,3,2,1,1,0,1,2
1.845,1,1,3,4,4,3,1,1
1.85,1,0,1,5,2,1,0,1
1.855,1,2,1,3,2,1,0,3
1.86,2,1,1,1,0,1,1,0
1.865,1,3,4,7,4,2,1,1
1.87,2,1,3,0,5,0,1,1
1.875,1,4,4,1,5,4,2,0
1.88,0,2,4,2,4,2,0,1
1.885,3,0,1,3,4,0,1,3
1.89,1,3,1,5,1,1,0,2
1.895,1,0,12,17,8,2,1,1
1.9,3,6,1,12,5,3,2,1
1.905,0,1,4,1,0,2,0,1
1.91,1,0,1,4,0,0,1,1
1.915,2,2,8,13,1,2,1,1
1.92,1,3,6,4,5,3,1,1
1.925,4,2,8,12,0,1,1,0
1.93,0,1,3,8,2,1,0,1
1.935,2,2,2,1,0,1,1,1
1.94,1,2,0,7,0,1,2,0
1.945,1,2,10,8,1,3,1,3
1.95,1,1,4,5,0,3,3,0
1.955,1,1,2,6,4,2,1,2
1.96,1,2,4,5,2,1,0,1
1.965,1,3,5,4,0,0,2,1
1.97,2,7,14,5,1,2,0,3
1.975,1,5,9,4,0,1,0,0
1.98,1,4,1,1,1,2,0,2
1.985,0,2,1,3,2,4,0,0
1.99,1,8,15,4,1,1,3,3
1.995,1,2,2,27,11,1,2,3
2,1,5,2,2,3,4,0,2
2.005,2,3,5,1,1,0,0,0
2.01,1,3,9,4,2,4,1,0
2.015,0,2,4,6,5,1,1,1
2.02,1,0,3,3,3,0,1,1
2.025,1,0,2,1,0,0,1,1
2.03,0,2,2,2,4,1,0,0
2.035,2,4,8,3,1,3,1,0
2.04,1,1,5,8,1,0,0,1
2.045,1,3,6,3,2,1,0,2
2.05,1,2,3,11,3,2,1,1
2.055,3,2,3,3,2,3,1,2
2.06,0,1,1,4,2,0,2,1
2.065,2,4,3,5,0,0,0,1
2.07,1,0,3,2,1,0,2,2
2.075,2,3,3,2,0,1,2,0
2.08,2,0,1,1,2,3,1,0
2.085,0,3,5,2,5,0,2,2
2.09,1,3,1,1,1,1,1,0
2.095,1,2,3,9,0,1,1,1
2.1,3,0,7,2,5,3,1,2
2.105,0,3,7,8,5,5,2,1
2.11,1,6,14,1,2,2,0,0
2.115,1,5,24,3,1,2,0,2
2.12,1,0,2,1,1,1,1,2
2.125,1,2,3,2,3,5,2,1
2.13,1,2,5,2,1,1,0,1
2.135,2,5,11,4,2,2,1,1
2.14,2,7,8,0,5,1,1,2
2.145,1,3,3,1,6,2,1,1
2.15,1,1,2,0,0,1,1,1
2.155,2,1,1,4,4,3,2,2
2.16,0,0,1,2,3,2,0,3
2.165,1,0,4,0,1,2,2,0
2.17,2,6,1,11,0,1,1,1
2.175,1,3,11,21,3,0,0,2
2.18,2,0,7,2,1,1,2,1
2.185,1,0,0,7,8,4,1,0
2.19,0,0,1,0,2,1,1,0
2.195,0,6,7,8,1,1,3,1
2.2,1,1,9,1,2,0,0,1
2.205,2,1,4,3,2,2,1,1
2.21,2,6,7,6,6,4,2,2
2.215,0,1,4,2,4,3,1,0
2.22,1,2,7,5,1,3,0,0
2.225,1,1,4,4,2,1,3,0
2.23,2,0,2,6,4,0,0,2
2.235,2,0,1,3,1,1,1,1
2.24,3,0,6,5,2,0,0,2
2.245,3,6,2,1,2,1,1,2
2.25,1,0,1,2,3,1,1,1
2.255,1,1,1,10,10,3,1,1
2.26,0,2,2,6,2,1,2,0
2.265,0,3,0,1,2,1,2,1
2.27,1,1,10,9,1,1,1,2
2.275,1,0,8,4,2,0,1,0
2.28,0,4,1,5,1,2,1,0
2.285,1,0,5,5,1,3,1,0
2.29,3,4,6,0,0,2,1,2
2.295,2,1,9,9,4,1,0,1
2.3,1,0,1,2,7,1,1,1
2.305,1,1,4,4,4,1,1,2
2.31,1,0,2,8,5,3,0,2
2.315,2,4,5,6,5,0,2,2
2.32,1,2,3,3,2,1,0,0
2.325,2,3,3,4,4,2,1,3
2.33,1,1,1,3,2,0,2,1
2.335,0,1,1,2,2,2,1,0
2.34,1,4,2,0,3,1,3,0
2.345,1,0,3,3,4,0,0,0
2.35,1,1,1,0,2,1,0,1
2.355,0,1,5,0,0,2,2,0
2.36,3,2,1,8,5,2,1,0
2.365,2,0,2,2,1,2,1,3
2.37,2,2,1,2,6,2,1,0
2.375,2,1,2,7,5,1,1,1
2.38,0,1,6,9,3,1,1,1
2.385,0,0,5,1,1,2,2,0
2.39,1,2,3,1,0,3,1,2
2.395,1,3,1,3,6,2,1,1
2.4,2,1,6,1,1,0,1,2
2.405,2,4,3,3,4,1,2,1
2.41,1,1,3,0,1,0,1,2
2.415,1,2,3,3,1,3,2,1
2.42,1,0,1,1,1,1,0,1
2.425,2,3,9,2,3,2,1,1
2.43,1,1,2,5,5,3,1,0
2.435,1,3,4,2,4,1,1,1
2.44,0,1,2,6,2,1,2,1
2.445,0,5,3,1,1,0,1,2
2.45,2,1,1,1,0,2,1,0
2.455,0,2,3,0,3,2,2,1
2.46,0,2,4,0,2,1,1,3
2.465,2,1,0,2,5,3,1,1
2.47,1,1,1,2,2,1,0,4
2.475,0,1,1,10,4,3,0,2
2.48,0,2,5,20,1,4,3,1
2.485,2,0,1,9,2,2,0,1
2.49,2,3,6,1,0,0,3,1
2.495,1,2,2,1,2,2,1,2
2.5,1,0,1,12,1,1,1,0
2.505,1,2,0,6,3,4,2,3
2.51,2,0,3,0,1,1,1,1
2.515,2,4,2,4,0,0,1,0
2.52,1,0,1,2,1,3,3,0
2.525,1,1,4,4,6,3,1,2
2.53,0,1,4,5,7,1,1,2
2.535,0,2,5,8,4,1,0,1
2.54,5,2,0,5,3,2,0,2
2.545,0,2,4,5,0,0,1,0
2.55,3,4,7,11,9,6,2,3
2.555,1,2,5,3,0,2,3,1
2.56,1,2,4,2,0,0,0,2
2.565,1,1,3,0,1,4,2,0
2.57,1,1,4,4,1,2,0,1
2.575,2,3,5,10,1,4,1,2
2.58,1,2,2,3,4,1,0,2
2.585,2,1,1,2,3,2,2,2
2.59,1,1,2,12,5,1,2,0
2.595,3,3,14,28,8,3,2,2
2.6,1,3,2,5,2,1,0,2
2.605,2,1,1,2,2,1,0,4
2.61,0,2,1,2,6,3,1,1
2.615,1,3,1,5,3,3,2,1
2.62,0,2,1,5,1,1,2,1
2.625,2,5,3,2,3,0,0,0
2.63,2,1,2,1,1,1,0,2
2.635,0,2,7,7,1,1,0,1
2.64,1,1,2,4,5,1,1,1
2.645,2,1,1,2,1,2,3,2
2.65,1,3,3,6,2,1,1,0
2.655,0,9,1,0,2,3,1,1
2.66,1,4,0,1,5,4,0,0
2.665,0,3,3,3,0,2,0,1
2.67,1,2,5,4,2,1,0,0
2.675,0,2,3,2,1,1,0,2
2.68,1,1,2,1,3,2,1,2
2.685,1,3,0,0,2,1,0,2
2.69,1,2,0,1,4,0,1,3
2.695,2,0,1,12,1,1,0,1
2.7,2,3,1,9,4,0,3,1
2.705,1,1,2,8,1,2,0,1
2.71,1,5,2,2,5,2,3,3
2.715,2,1,1,1,3,3,3,0
2.72,0,1,2,3,1,4,3,2
2.725,1,0,1,2,3,1,0,0
2.73,1,0,1,8,1,0,1,0
2.735,1,2,1,3,0,2,2,1
2.74,1,1,6,8,6,2,0,0
2.745,1,0,4,0,1,1,1,0
2.75,3,4,4,8,3,0,0,3
2.755,1,0,1,0,1,1,0,1
2.76,2,4,11,9,5,1,1,3
2.765,1,3,5,3,1,0,2,0
2.77,1,1,2,1,1,1,1,1
2.775,0,0,2,3,3,4,1,1
2.78,1,1,2,2,2,0,0,1
2.785,1,3,4,3,1,1,1,1
2.79,1,2,4,2,3,1,0,2
2.795,2,2,10,6,1,1,2,2
2.8,1,2,5,6,5,1,2,1
2.805,2,1,1,2,2,0,2,2
2.81,0,2,3,6,2,2,2,2
2.815,0,2,7,4,2,1,0,0
2.82,2,1,0,6,2,2,1,2
2.825,1,1,3,4,1,0,1,1
2.83,3,6,10,8,3,2,1,1
2.835,1,4,4,2,2,0,1,1
2.84,1,1,4,5,1,2,0,1
2.845,0,3,4,3,1,2,0,1
2.85,2,3,12,7,2,2,1,1
2.855,2,3,4,3,2,1,2,2
2.86,0,1,11,7,2,2,1,1
2.865,1,3,8,0,3,2,0,1
2.87,0,0,3,1,1,0,0,2
2.875,1,3,5,3,0,2,1,1
2.88,2,1,2,1,4,3,2,1
2.885,2,1,6,7,2,0,2,2
2.89,1,0,3,1,2,0,2,2
2.895,2,3,2,7,6,1,2,1
2.9,1,2,3,3,0,1,0,1
2.905,2,1,3,5,4,1,1,2
2.91,0,1,4,7,1,1,4,1
2.915,4,5,10,12,1,1,1,2
2.92,2,2,5,4,0,1,2,0
2.925,1,2,2,14,5,3,2,1
2.93,1,2,6,6,1,2,2,1
2.935,0,2,1,3,3,1,2,1
2.94,1,3,3,3,1,2,0,1
2.945,0,2,5,2,4,1,2,1
2.95,1,0,1,6,1,0,3,1
2.955,0,1,1,1,2,2,2,1
2.96,3,5,4,12,7,1,2,3
2.965,2,0,0,2,2,3,0,1
2.97,2,4,4,6,6,3,2,1
2.975,0,1,7,10,3,0,0,1
2.98,1,6,9,5,4,3,3,1
2.985,3,2,5,4,1,1,0,1
2.99,1,2,5,1,1,1,0,1
2.995,1,3,1,6,2,3,1,1
3,2,0,1,5,5,0,0,3
3.005,1,2,4,4,3,1,3,3
3.01,1,2,4,0,0,1,1,1
3.015,0,2,2,0,4,2,2,1
3.02,3,1,4,0,1,1,1,2
3.025,2,2,4,4,2,0,1,0
3.03,1,3,8,6,4,3,2,0
3.035,1,1,1,2,2,1,1,1
3.04,2,4,7,2,1,2,1,1
3.045,2,0,2,0,1,2,1,1
3.05,2,0,5,13,9,2,1,3
3.055,1,3,1,2,0,2,3,2
3.06,1,2,3,0,5,4,2,1
3.065,1,1,1,15,2,2,0,1
3.07,1,1,0,9,1,2,0,2
3.075,0,1,6,2,2,1,0,1
3.08,0,3,9,3,2,1,0,1
3.085,1,4,2,5,4,4,2,2
3.09,1,4,3,7,4,1,1,0
3.095,2,3,1,0,2,2,0,1
3.1,1,2,4,2,1,0,0,0
3.105,0,3,0,1,1,1,0,1
3.11,1,2,4,3,2,2,2,0
3.115,2,1,4,3,4,2,3,1
3.12,4,0,4,5,6,3,1,1
3.125,1,1,4,7,5,1,0,2
3.13,1,3,5,3,4,1,2,3
3.135,1,0,0,3,4,2,1,1
3.14,1,1,1,1,2,1,2,1
3.145,0,4,10,11,7,4,0,1
3.15,0,3,1,0,0,0,0,1
3.155,1,2,3,3,3,2,0,0
3.16,0,3,5,1,3,2,2,1
3.165,1,3,1,1,0,1,2,2
3.17,2,0,3,2,2,0,0,3
3.175,0,2,1,4,4,1,1,2
3.18,2,3,5,20,5,3,1,0
3.185,1,1,4,0,1,2,3,1
3.19,2,1,1,2,1,1,0,1
3.195,4,4,5,1,1,2,1,3
3.2,1,2,9,6,0,1,1,2
3.205,1,3,2,4,3,0,3,1
3.21,1,1,2,0,3,3,2,2
3.215,0,2,1,0,1,1,0,1
3.22,1,1,6,1,4,1,1,1
3.225,2,0,0,7,1,1,1,2
3.23,0,0,2,0,3,4,1,1
3.235,0,0,5,1,2,3,2,1
3.24,1,2,4,2,1,1,0,2
3.245,1,0,3,2,3,2,0,0
3.25,1,3,7,11,7,1,1,2
3.255,1,2,3,6,2,2,0,2
3.26,1,2,0,0,1,0,2,1
3.265,2,2,1,2,3,2,1,0
3.27,1,3,2,2,0,3,1,2
3.275,1,1,5,0,1,2,2,0
3.28,1,2,3,2,1,1,1,1
3.285,1,2,1,0,1,0,0,1
3.29,1,2,4,1,3,1,2,1
3.295,2,7,11,8,7,3,3,2
3.3,2,2,3,5,1,3,2,1
3.305,1,0,3,7,5,1,0,1
3.31,1,2,2,6,1,0,1,1
3.315,0,0,5,2,1,1,0,2
3.32,1,2,3,2,0,1,2,1
3.325,3,3,2,3,2,4,1,3
3.33,1,2,1,1,2,2,1,1
3.335,3,4,6,1,2,1,3,0
3.34,1,1,2,7,4,2,1,1
3.345,1,1,0,4,4,0,0,0
3.35,1,1,8,2,3,0,0,1
3.355,1,1,5,2,3,1,1,0
3.36,2,3,2,0,1,0,2,0
3.365,0,2,0,4,5,4,3,1
3.37,1,1,1,12,1,2,2,1
3.375,0,1,3,1,3,3,2,2
3.38,1,1,2,0,1,0,1,2
3.385,0,1,4,4,0,2,2,2
3.39,1,5,3,6,0,2,1,1
3.395,1,0,0,2,1,1,2,0
3.4,1,2,4,1,1,3,1,2
3.405,2,1,1,1,2,1,2,2
3.41,0,2,8,5,0,2,2,1
3.415,2,2,8,11,5,1,1,0
3.42,2,5,7,0,2,1,0,2
3.425,0,3,8,7,3,2,0,1
3.43,1,1,4,5,1,1,0,1
3.435,0,3,7,4,5,0,1,3
3.44,2,4,4,5,3,0,2,2
3.445,1,3,2,1,0,2,2,1
3.45,1,7,11,3,2,1,1,1
3.455,1,0,4,0,1,1,1,1
3.46,0,0,3,3,3,1,2,0
3.465,0,1,1,0,3,1,1,0
3.47,3,1,4,1,4,2,0,2
3.475,2,2,5,1,2,1,1,1
3.48,1,0,2,7,0,0,0,1
3.485,0,1,3,2,1,0,1,0
3.49,2,5,9,16,4,1,3,2
3.495,1,4,5,1,6,0,1,1
3.5,2,1,5,2,2,2,1,0
3.505,0,0,0,2,1,1,0,0
3.51,1,1,3,6,2,2,0,1
3.515,0,1,1,6,1,0,2,3
3.52,2,0,1,2,1,1,1,1
3.525,4,1,8,1,7,2,1,2
3.53,1,2,3,4,0,0,1,2
3.535,1,3,5,2,3,3,2,1
3.54,1,1,0,1,3,1,2,1
3.545,3,1,2,2,1,1,2,2
3.55,1,1,0,1,2,0,1,1
3.555,1,0,2,2,2,3,0,0
3.56,1,3,2,4,2,2,0,2
3.565,1,1,5,1,4,2,2,0
3.57,0,2,3,13,8,2,3,1
3.575,0,1,2,1,1,2,2,2
3.58,0,1,6,6,4,2,2,2
3.585,1,3,2,2,2,0,1,1
3.59,0,3,5,4,1,3,1,1
3.595,1,2,3,0,3,1,1,0
3.6,2,2,1,1,3,0,1,1
3.605,1,1,1,5,3,2,0,1
3.61,1,6,6,1,2,1,1,1
3.615,3,3,5,7,0,1,1,3
3.62,1,3,6,4,1,1,2,1
3.625,1,1,0,11,4,4,2,0
3.63,1,3,6,2,1,2,1,1
3.635,1,0,5,2,1,0,0,0
3.64,1,1,1,5,3,2,1,1
3.645,1,2,9,3,1,1,0,2
3.65,2,3,4,1,2,0,1,2
3.655,2,1,1,8,4,2,2,1
3.66,1,1,1,5,0,1,1,2
3.665,0,2,8,6,2,1,1,1
3.67,4,2,1,1,2,1,0,1
3.675,0,1,2,6,3,1,0,1
3.68,2,3,0,5,7,3,1,3
3.685,2,1,0,1,4,1,1,2
3.69,0,1,0,11,4,1,2,1
3.695,3,1,0,12,6,0,1,1
3.7,1,2,5,9,6,2,2,1
3.705,1,1,1,4,1,2,1,1
3.71,2,5,3,0,0,1,1,1
3.715,1,1,0,0,1,2,1,1
3.72,1,2,1,1,1,0,1,0
3.725,2,2,2,5,2,1,0,1
3.73,1,2,0,6,5,1,1,1
3.735,3,1,0,6,4,2,3,0
3.74,4,4,3,0,2,2,2,2
3.745,2,0,4,4,3,1,1,1
3.75,1,2,3,3,5,1,0,2
3.755,0,0,1,8,1,3,2,1
3.76,2,2,7,7,6,3,1,2
3.765,1,4,7,9,5,2,3,2
3.77,0,1,2,2,1,1,1,2
3.775,1,1,3,1,3,0,0,0
3.78,1,1,3,1,4,3,3,0
3.785,2,4,1,2,0,1,1,2
3.79,0,2,2,5,1,2,1,0
3.795,1,6,3,3,3,0,0,0
3.8,0,2,5,2,4,1,2,0
3.805,0,1,0,1,3,1,0,1
3.81,1,3,7,3,3,3,1,1
3.815,0,1,1,0,1,0,0,1
3.82,1,2,1,2,2,2,0,1
3.825,1,1,1,4,1,0,1,1
3.83,1,2,2,0,3,2,1,1
3.835,0,2,4,3,2,0,2,2
3.84,1,1,0,0,1,0,0,1
3.845,0,1,2,5,1,1,1,0
3.85,2,0,2,4,3,2,1,1
3.855,0,3,2,2,3,1,0,1
3.86,1,3,1,5,1,1,0,2
3.865,0,0,7,12,3,2,2,2
3.87,1,1,2,1,0,1,1,1
3.875,1,0,4,4,4,4,3,1
3.88,0,1,1,0,3,1,1,1
3.885,3,0,10,10,11,3,2,1
3.89,1,1,4,3,3,1,1,1
3.895,1,3,3,1,0,1,0,1
3.9,0,3,1,8,2,2,1,1
3.905,2,6,8,17,8,2,3,2
3.91,1,3,1,1,1,2,1,0
3.915,0,5,10,0,1,2,2,2
3.92,1,2,3,3,0,1,0,2
3.925,0,1,1,13,2,0,0,0
3.93,2,2,3,6,2,1,2,1
3.935,1,2,2,3,3,2,1,0
3.94,2,5,2,5,5,1,2,2
3.945,1,1,1,0,0,1,0,0
3.95,0,1,1,3,2,3,0,2
3.955,0,0,1,3,2,1,0,1
3.96,2,4,3,7,1,3,2,2
3.965,0,1,3,1,5,4,1,1
3.97,0,2,1,2,3,2,0,1
3.975,2,3,2,1,1,2,1,1
3.98,1,2,2,1,2,1,0,1
3.985,2,2,2,2,5,3,3,1
3.99,2,1,3,9,6,2,2,2
3.995,2,7,14,3,6,2,1,3
4,0,3,0,5,1,2,1,0
4.005,1,0,2,0,4,3,1,2
4.01,0,1,0,5,1,0,0,1
4.015,2,0,2,5,2,1,1,0
4.02,3,1,1,3,2,2,3,0
4.025,1,1,2,0,2,1,0,0
4.03,2,3,4,2,0,0,0,0
4.035,0,0,6,2,2,0,0,1
4.04,0,2,2,6,4,1,1,1
4.045,3,1,2,1,2,2,2,2
4.05,2,1,1,2,1,1,1,0
4.055,2,3,4,5,1,1,2,1
4.06,2,1,0,2,2,2,1,2
4.065,1,3,4,2,3,1,0,2
4.07,0,2,1,1,1,1,1,3
4.075,0,4,2,10,1,1,0,1
4.08,3,4,9,29,5,1,2,0
4.085,1,1,1,0,5,1,0,1
4.09,1,6,4,3,3,1,1,1
4.095,2,0,1,4,6,1,2,1
4.1,1,0,1,0,2,2,0,3
4.105,0,3,2,5,2,1,1,0
4.11,2,0,3,1,0,2,1,1
4.115,0,1,2,3,3,3,0,1
4.12,2,1,2,6,4,2,0,2
4.125,0,1,0,1,2,0,2,1
4.13,1,0,1,3,3,2,0,1
4.135,1,3,5,6,2,3,2,1
4.14,1,3,0,7,0,2,2,2
4.145,1,2,3,4,1,1,1,0
4.15,1,1,3,4,4,1,1,0
4.155,1,1,2,6,2,0,0,1
4.16,1,2,1,2,2,1,2,1
4.165,0,2,2,5,3,1,0,2
4.17,1,2,5,1,1,4,1,1
4.175,0,4,6,12,6,1,1,1
4.18,1,1,0,7,5,0,0,1
4.185,3,2,3,1,3,1,1,1
4.19,2,1,4,8,3,1,1,2
4.195,3,2,0,5,0,3,1,2
4.2,1,2,0,1,1,1,1,2
4.205,2,6,1,12,6,0,0,2
4.21,1,1,3,13,9,4,2,3
4.215,2,2,2,0,5,2,0,1
4.22,0,0,1,0,7,3,1,3
4.225,0,6,3,8,3,2,1,0
4.23,1,10,14,5,1,0,0,1
4.235,1,3,6,3,3,3,2,1
4.24,1,1,1,1,3,1,0,0
4.245,2,1,4,6,1,2,2,1
4.25,0,1,0,2,1,0,0,0
4.255,1,5,5,2,0,1,2,0
4.26,2,3,2,6,3,2,2,2
4.265,2,1,3,4,4,2,2,0
4.27,0,1,2,0,2,0,1,2
4.275,2,0,0,0,0,1,1,1
4.28,0,0,1,1,1,1,2,1
4.285,3,2,2,1,1,1,0,1
4.29,0,2,4,8,2,1,1,1
4.295,2,2,14,28,5,3,2,3
4.3,1,2,3,1,2,1,0,0
4.305,2,1,0,4,0,2,2,1
4.31,0,0,3,2,3,1,1,0
4.315,1,1,3,4,2,0,0,2
4.32,1,5,8,3,1,2,0,1
4.325,1,2,0,2,0,2,0,0
4.33,0,0,0,11,2,1,2,1
4.335,0,0,3,1,1,1,0,1
4.34,1,2,3,6,3,2,2,0
4.345,1,4,4,2,4,3,1,2
4.35,1,1,5,7,7,1,2,0
4.355,1,0,4,15,7,0,3,2
4.36,1,2,3,2,2,1,0,1
4.365,1,5,8,4,3,0,2,0
4.37,2,0,0,2,1,1,1,1
4.375,2,2,4,12,3,0,0,1
4.38,1,1,0,1,2,2,1,1
4.385,0,1,0,6,8,2,1,2
4.39,1,2,3,6,4,2,2,1
4.395,1,0,5,8,1,2,1,1
4.4,0,2,7,8,4,0,2,1
4.405,1,1,0,3,1,0,3,1
4.41,3,3,1,1,3,4,3,2
4.415,1,1,6,7,0,1,2,1
4.42,1,1,2,5,2,0,1,1
4.425,1,2,4,10,7,3,2,0
4.43,2,4,6,0,2,0,1,1
4.435,2,9,8,15,1,3,1,2
4.44,1,2,0,20,5,1,1,2
4.445,3,1,3,2,6,4,2,1
4.45,1,1,1,0,4,0,1,0
4.455,1,2,1,5,7,2,3,0
4.46,0,1,5,15,9,3,1,0
4.465,1,3,3,1,2,2,0,1
4.47,2,1,3,4,3,4,1,3
4.475,1,2,5,2,0,1,1,1
4.48,3,6,5,3,4,3,2,0
4.485,1,2,4,3,0,1,0,1
4.49,1,4,5,2,4,2,1,1
4.495,1,0,1,11,3,2,2,0
4.5,2,1,0,2,0,2,0,2
4.505,0,2,2,1,1,0,0,1
4.51,1,4,5,1,4,3,2,0
4.515,0,1,5,1,3,2,1,2
4.52,1,2,3,9,0,1,2,1
4.525,3,4,1,1,0,1,3,2
4.53,0,1,10,15,8,2,1,1
4.535,0,1,2,4,4,0,0,1
4.54,1,1,1,4,4,0,0,0
4.545,0,2,2,6,3,2,1,2
4.55,1,2,2,3,5,2,0,1
4.555,0,1,0,1,1,0,0,1
4.56,1,6,3,1,1,1,1,3
4.565,0,0,1,1,2,2,1,1
4.57,1,1,1,0,0,1,1,0
4.575,0,1,12,6,4,2,3,1
4.58,1,0,12,4,3,0,2,1
4.585,2,2,4,7,6,0,3,1
4.59,0,2,6,5,0,0,1,2
4.595,1,1,1,9,5,1,1,2
4.6,1,1,1,3,4,1,1,1
4.605,0,2,7,7,5,2,1,2
4.61,1,0,5,2,1,0,0,1
4.615,2,3,2,4,5,2,1,2
4.62,3,1,2,2,2,1,0,1
4.625,1,3,0,1,1,1,1,2
4.63,1,1,4,1,3,3,2,1
4.635,1,2,4,3,2,1,1,0
4.64,1,3,14,4,1,2,2,2
4.645,2,2,1,3,4,3,3,1
4.65,2,1,4,2,1,0,0,1
4.655,0,3,1,2,5,3,2,1
4.66,2,1,1,2,4,4,2,0
4.665,1,0,14,3,0,2,2,0
4.67,2,6,6,7,2,4,2,3
4.675,1,0,2,0,2,1,1,1
4.68,1,0,3,8,5,3,0,1
4.685,1,0,2,12,2,0,1,2
4.69,0,1,6,17,2,3,2,2
4.695,1,2,1,0,1,0,1,1
4.7,1,2,3,7,5,3,1,2
4.705,0,0,2,2,0,1,2,1
4.71,1,3,7,14,3,0,2,1
4.715,0,4,1,3,2,0,1,3
4.72,1,2,6,3,4,3,1,3
4.725,1,0,4,3,0,1,0,0
4.73,1,5,7,2,4,4,1,0
4.735,2,0,1,6,5,3,2,1
4.74,2,0,3,9,0,1,0,2
4.745,2,4,16,16,0,3,1,1
4.75,2,2,3,1,0,1,0,0
4.755,1,0,0,3,4,2,3,1
4.76,1,2,2,2,3,1,1,1
4.765,1,1,7,14,1,3,1,2
4.77,1,2,8,12,5,3,1,1
4.775,0,3,5,10,4,0,1,1
4.78,0,1,1,3,4,1,0,2
4.785,1,2,4,1,1,1,1,1
4.79,1,1,2,5,1,1,1,1
4.795,2,1,2,0,2,3,1,1
4.8,0,0,1,4,3,2,2,0
4.805,0,9,8,4,2,1,2,0
4.81,4,21,23,18,5,1,0,2
4.815,1,1,3,1,1,0,2,1
4.82,1,4,8,4,1,1,0,0
4.825,2,5,16,2,1,1,0,0
4.83,1,5,7,6,2,2,1,0
4.835,2,2,4,11,2,1,0,0
4.84,1,1,3,3,0,2,3,0
4.845,2,4,0,1,2,0,2,3
4.85,1,1,1,2,1,3,1,2
4.855,3,2,0,0,1,3,1,1
4.86,0,0,3,2,2,1,1,1
4.865,2,3,8,7,6,1,1,1
4.87,1,0,1,1,1,0,1,1
4.875,1,0,2,5,1,2,0,1
4.88,3,2,3,1,1,1,1,2
4.885,1,2,7,5,2,2,2,1
4.89,0,2,5,0,1,1,3,2
4.895,0,1,1,2,2,0,0,1
4.9,0,2,3,2,0,2,3,1
4.905,1,5,9,3,5,2,2,2
4.91,0,1,2,5,4,1,0,2
4.915,0,0,10,17,5,1,1,2
4.92,1,4,9,12,3,1,1,1
4.925,2,1,4,10,3,2,1,1
4.93,1,1,1,3,5,1,0,1
4.935,1,4,3,3,4,1,1,0
4.94,3,0,11,15,6,2,2,2
4.945,1,2,2,6,4,1,0,3
4.95,2,1,3,0,2,1,0,1
4.955,1,1,2,0,3,1,1,0
4.96,0,2,1,1,2,3,1,1
4.965,1,5,4,1,3,0,1,0
4.97,0,4,7,2,1,0,3,0
4.975,1,1,2,7,6,3,1,3
4.98,1,1,1,4,0,1,1,2
4.985,2,1,3,0,2,2,1,2
4.99,0,3,0,5,2,2,1,3
4.995,2,4,4,4,2,1,3,0
5,1,1,4,2,1,2,1,2
5.005,0,2,5,4,1,0,0,0
5.01,3,5,5,3,1,3,0,1
5.015,3,2,9,2,3,0,1,2
5.02,1,3,3,5,6,2,1,2
5.025,1,1,3,2,1,1,0,2
5.03,1,2,3,2,1,3,1,0
5.035,1,1,3,1,3,3,1,1
5.04,2,7,4,7,1,0,1,1
5.045,1,1,5,1,0,2,1,0
5.05,3,3,2,0,2,3,2,1
5.055,0,1,1,1,3,2,1,1
5.06,1,2,4,10,0,0,0,0
5.065,1,2,2,19,2,0,2,0
5.07,0,2,5,3,6,3,1,2
5.075,2,1,1,1,4,1,0,1
5.08,2,2,0,0,3,3,2,0
5.085,2,5,4,2,1,0,3,0
5.09,2,3,3,1,0,2,1,1
5.095,2,5,2,6,1,0,1,3
5.1,1,2,0,15,7,1,2,2
5.105,0,0,4,6,2,0,3,2
5.11,1,1,1,0,0,2,2,1
5.115,2,2,6,4,2,2,1,1
5.12,2,1,0,3,2,2,2,1
5.125,0,1,3,1,1,0,1,1
5.13,2,2,0,1,1,1,2,2
5.135,0,2,5,6,4,0,3,0
5.14,1,5,17,1,1,1,1,1
5.145,3,10,14,7,6,3,0,1
5.15,0,1,8,13,0,2,1,2
5.155,0,2,19,33,4,2,0,0
5.16,3,3,5,6,5,0,0,1
5.165,1,2,0,4,0,3,2,2
5.17,2,3,2,5,2,1,1,1
5.175,0,1,4,5,1,1,1,1
5.18,0,0,5,2,0,1,3,0
5.185,1,2,5,3,1,1,1,2
5.19,1,1,4,2,2,2,0,0
5.195,1,1,4,1,3,2,0,1
5.2,2,1,7,6,4,2,1,2
5.205,2,0,4,5,1,3,0,0
5.21,1,0,0,3,3,2,1,2
5.215,0,1,0,9,2,3,2,2
5.22,0,0,2,9,3,1,1,0
5.225,1,1,15,22,5,0,1,0
5.23,1,2,5,1,4,2,2,1
5.235,1,2,6,8,6,0,1,0
5.24,1,2,3,5,1,2,0,2
5.245,1,1,10,5,2,1,0,1
5.25,1,3,9,6,1,1,2,2
5.255,1,2,3,6,3,1,1,1
5.26,1,4,4,1,2,1,2,1
5.265,1,1,4,4,3,2,2,0
5.27,0,1,1,3,0,1,0,0
5.275,2,2,7,9,3,3,1,1
5.28,0,1,6,2,5,2,1,2
5.285,1,1,4,7,1,2,2,2
5.29,1,3,1,1,2,1,3,1
5.295,1,0,1,2,5,2,2,1
5.3,0,0,0,6,4,1,0,1
5.305,0,1,2,6,2,1,0,0
5.31,1,0,0,1,0,2,1,2
5.315,2,3,1,3,3,1,1,1
5.32,2,5,3,0,2,3,2,2
5.325,0,4,3,6,1,0,2,0
5.33,3,7,21,27,8,5,1,3
5.335,1,3,2,2,0,2,1,0
5.34,1,4,7,2,2,2,0,0
5.345,3,8,5,4,7,4,4,3
5.35,2,3,3,15,8,3,0,1
5.355,0,1,5,5,1,1,0,1
5.36,3,2,4,7,3,2,3,2
5.365,2,0,1,4,0,1,2,1
5.37,0,2,2,1,2,1,0,1
5.375,2,1,3,1,2,2,0,1
5.38,1,4,2,2,3,1,0,1
5.385,3,1,1,3,2,1,3,3
5.39,1,3,0,2,1,1,2,1
5.395,1,0,2,2,1,1,0,1
5.4,0,1,3,1,5,2,1,1
5.405,0,1,1,2,3,2,1,0
5.41,2,4,6,3,7,3,1,1
5.415,6,18,9,1,2,2,4,5
5.42,1,2,2,6,3,2,2,2
5.425,1,3,6,10,7,3,2,2
5.43,0,2,4,0,1,0,0,1
5.435,0,0,5,1,3,2,2,1
5.44,2,2,3,4,1,2,2,1
5.445,0,2,6,5,0,1,1,1
5.45,1,6,9,4,1,2,1,1
5.455,2,2,6,9,5,1,0,0
5.46,2,5,4,3,1,1,1,2
5.465,2,7,2,6,3,0,1,0
5.47,3,4,9,1,2,2,0,2
5.475,1,1,10,9,1,1,2,1
5.48,1,3,7,11,2,0,0,0
5.485,3,4,3,1,3,1,2,0
5.49,1,3,5,13,0,1,0,4
5.495,0,3,6,2,4,2,1,0
5.5,2,1,6,3,5,1,2,0
5.505,2,7,1,7,6,1,1,1
5.51,2,7,11,3,0,0,2,1
5.515,0,10,16,4,4,0,1,1
5.52,2,11,11,9,5,3,3,2
5.525,3,3,5,2,3,3,3,1
5.53,1,4,6,3,1,0,1,0
5.535,1,4,1,4,2,1,2,1
5.54,0,2,5,2,0,3,1,1
5.545,2,3,9,10,0,1,1,1
5.55,2,2,4,0,1,3,1,1
5.555,2,2,1,5,3,0,1,1
5.56,0,0,2,1,1,1,1,3
5.565,0,5,1,3,2,1,3,2
5.57,2,3,3,11,1,3,2,0
5.575,6,13,11,10,0,0,2,4
5.58,2,0,7,7,7,1,0,2
5.585,2,3,1,1,2,2,1,1
5.59,0,2,1,7,1,1,1,0
5.595,1,3,0,5,4,1,1,2
5.6,1,3,4,0,1,2,1,1
5.605,1,1,2,2,1,0,1,1
5.61,2,1,1,1,3,3,2,1
5.615,1,0,2,2,1,1,2,0
5.62,1,1,0,2,0,1,2,1
5.625,0,2,2,0,0,2,1,1
5.63,3,4,1,1,3,2,0,1
5.635,0,0,2,3,3,2,1,3
5.64,2,4,4,1,0,0,2,2
5.645,1,1,1,4,1,2,1,1
5.65,2,3,5,7,3,3,3,2
5.655,1,1,0,2,1,1,1,0
5.66,1,1,0,4,1,2,1,0
5.665,0,1,2,1,1,0,1,1
5.67,0,3,1,13,7,2,0,1
5.675,2,3,2,9,4,1,0,0
5.68,0,5,7,2,2,2,2,2
5.685,2,0,2,6,2,0,3,3
5.69,1,3,1,12,5,2,1,3
5.695,0,3,1,4,3,2,0,0
5.7,1,3,7,18,7,4,2,0
5.705,1,1,9,23,9,2,2,2
5.71,2,1,2,1,1,0,1,0
5.715,2,1,2,2,5,3,3,2
5.72,2,5,10,7,3,2,0,2
5.725,2,4,1,2,3,1,1,1
5.73,1,2,0,0,0,1,1,2
5.735,2,2,1,4,2,2,2,2
5.74,1,2,0,2,0,1,0,0
5.745,1,3,4,0,4,3,0,2
5.75,1,4,7,9,2,1,1,1
5.755,0,4,14,2,0,1,0,1
5.76,2,5,9,12,5,2,2,3
5.765,1,2,1,1,2,3,1,3
5.77,1,2,3,1,1,3,1,2
5.775,0,2,2,7,1,1,1,2
5.78,2,1,2,4,0,0,0,2
5.785,2,2,1,2,7,1,4,2
5.79,0,0,2,7,3,1,1,0
5.795,1,1,6,4,6,4,1,2
5.8,1,4,3,1,5,1,2,2
5.805,0,1,3,4,0,0,1,1
5.81,0,1,4,4,1,1,2,0
5.815,2,2,16,21,2,2,0,0
5.82,1,1,1,7,4,1,1,1
5.825,1,1,3,2,2,4,2,3
5.83,2,3,4,2,1,0,1,1
5.835,1,2,1,9,2,1,1,1
5.84,1,0,1,1,5,1,3,3
5.845,1,2,1,8,4,1,0,0
5.85,3,1,1,18,9,2,0,1
5.855,3,5,7,3,5,2,2,0
5.86,1,2,4,1,6,1,1,1
5.865,0,7,8,5,2,2,2,0
5.87,1,6,9,1,1,0,0,1
5.875,1,0,6,2,2,0,2,1
5.88,1,2,5,1,3,0,0,0
5.885,0,0,2,11,2,2,1,2
5.89,2,4,5,2,1,2,2,0
5.895,0,0,0,1,2,0,2,2
5.9,2,7,5,5,6,5,1,1
5.905,2,4,1,2,2,0,1,3
5.91,2,3,1,7,2,2,1,1
5.915,0,1,1,17,2,1,2,1
5.92,4,5,1,1,1,2,0,1
5.925,1,3,3,2,0,1,1,0
5.93,1,1,1,5,2,1,4,2
5.935,1,5,1,12,1,1,0,1
5.94,2,0,13,13,3,1,1,0
5.945,3,2,1,3,1,4,2,2
5.95,1,1,1,4,5,0,1,2
5.955,1,5,4,2,3,0,1,2
5.96,1,4,5,1,1,0,2,1
5.965,1,4,7,2,6,2,0,1
5.97,2,1,1,4,8,1,0,0
5.975,1,1,0,1,2,2,2,2
5.98,5,12,11,6,6,4,4,3
5.985,0,0,5,6,5,0,0,1
5.99,1,1,1,3,3,2,0,1
5.995,2,1,1,2,0,2,1,1
6,2,8,7,8,4,4,2,1
6.005,2,2,5,3,2,2,3,0
6.01,1,1,2,6,2,3,1,1
6.015,1,3,1,1,4,4,2,2
6.02,0,6,7,4,2,2,0,0
6.025,1,3,1,3,1,1,1,1
6.03,3,2,1,4,1,1,2,2
6.035,1,2,5,1,4,2,0,2
6.04,2,3,10,9,3,0,2,0
6.045,0,2,5,1,1,0,0,0
6.05,1,2,5,8,4,2,1,0
6.055,3,2,3,9,4,2,1,1
6.06,3,3,5,10,6,4,1,3
6.065,1,1,5,1,3,2,2,0
6.07,2,1,3,4,0,2,2,2
6.075,1,4,1,6,3,3,1,0
6.08,1,1,4,5,1,1,1,1
6.085,0,4,5,5,3,2,1,1
6.09,2,7,7,4,3,2,0,1
6.095,1,1,1,4,1,1,1,1
6.1,0,2,2,0,0,2,1,1
6.105,3,1,2,0,2,1,1,1
6.11,1,1,4,6,2,1,0,1
6.115,2,4,1,0,1,2,0,2
6.12,2,5,9,3,4,2,2,0
6.125,2,1,11,15,2,1,3,1
6.13,1,1,4,17,1,1,1,2
6.135,4,3,8,5,4,3,2,1
6.14,2,1,3,1,2,2,0,1
6.145,1,6,10,6,2,2,1,2
6.15,0,4,4,7,0,1,1,1
6.155,0,2,10,10,1,2,0,0
6.16,1,1,9,7,2,3,1,0
6.165,0,0,2,2,3,0,1,1
6.17,2,5,3,2,1,1,2,1
6.175,2,1,3,1,1,1,1,0
6.18,0,1,3,10,2,1,0,1
6.185,3,0,1,7,9,2,0,0
6.19,1,2,1,3,4,1,1,1
6.195,2,2,3,0,3,1,1,0
6.2,2,0,5,2,1,3,2,1
6.205,1,1,6,6,5,1,2,0
6.21,1,1,2,1,4,1,1,2
6.215,1,1,5,10,5,2,2,1
6.22,1,1,1,5,2,2,3,2
6.225,0,0,0,5,0,1,2,1
6.23,1,1,2,6,1,1,0,1
6.235,1,2,0,0,3,2,1,2
6.24,1,2,1,2,2,1,0,0
6.245,1,2,3,1,0,2,0,1
6.25,0,2,1,1,0,0,1,1
6.255,2,1,4,9,1,2,1,2
6.26,0,2,5,5,1,1,1,2
6.265,0,0,5,23,5,2,0,0
6.27,1,1,1,2,0,2,1,0
6.275,1,8,4,2,1,1,1,2
6.28,2,1,8,6,1,1,1,1
6.285,3,2,0,8,0,1,2,2
6.29,1,1,5,6,5,4,1,2
6.295,0,3,1,1,5,3,0,0
6.3,0,3,7,4,2,2,0,0
6.305,0,2,1,2,0,1,0,0
6.31,0,8,10,5,5,1,1,0
6.315,3,17,25,5,4,4,2,0
6.32,3,1,1,6,1,1,0,2
6.325,3,4,4,0,1,1,2,2
6.33,1,1,4,1,3,0,0,0
6.335,1,4,1,3,5,2,2,0
6.34,1,1,1,2,7,6,3,3
6.345,1,3,3,1,2,3,1,2
6.35,1,5,3,2,0,2,1,1
6.355,1,1,18,22,7,3,1,2
6.36,0,2,3,1,2,0,0,1
6.365,1,1,3,3,0,2,1,2
6.37,0,8,6,1,0,2,2,1
6.375,1,2,8,3,3,3,1,2
6.38,0,1,2,3,4,2,1,1
6.385,0,4,6,3,2,0,2,1
6.39,3,1,1,1,1,2,1,2
6.395,1,2,9,1,1,0,2,1
6.4,2,6,5,4,3,2,2,3
6.405,1,0,1,0,3,2,0,2
6.41,1,0,5,4,5,1,1,2
6.415,1,3,4,2,1,3,0,0
6.42,1,0,3,3,1,1,0,1
6.425,0,4,4,1,1,0,1,1
6.43,2,7,9,12,6,2,2,1
6.435,0,1,6,15,1,1,1,1
6.44,1,3,2,14,1,2,1,0
6.445,1,0,1,1,2,3,2,3
6.45,0,1,1,1,1,1,2,1
6.455,1,4,4,0,1,0,1,1
6.46,0,1,7,10,1,2,2,0
6.465,2,4,4,0,2,1,1,1
6.47,2,0,1,5,3,1,1,0
6.475,1,2,1,1,2,4,1,2
6.48,1,2,7,4,0,1,0,2
6.485,1,0,0,4,3,1,1,1
6.49,1,2,3,8,1,3,2,0
6.495,0,0,2,0,1,1,0,1
6.5,1,1,4,8,0,1,1,1
6.505,2,3,0,2,3,3,1,1
6.51,1,2,7,4,2,1,0,0
6.515,2,1,1,4,1,2,1,1
6.52,0,2,6,2,3,2,3,2
6.525,0,3,1,5,2,1,1,1
6.53,0,2,2,4,1,3,1,0
6.535,1,2,5,3,4,4,1,2
6.54,2,8,9,5,3,1,1,3
6.545,1,0,2,4,0,1,2,1
6.55,3,2,4,1,3,1,0,3
6.555,0,0,1,1,1,1,1,2
6.56,1,2,1,5,3,2,1,1
6.565,1,0,3,3,2,2,1,1
6.57,0,7,11,10,2,1,1,2
6.575,2,1,3,2,2,2,1,1
6.58,2,2,0,5,2,1,2,2
6.585,1,1,4,2,2,1,0,2
6.59,0,1,4,7,3,2,2,1
6.595,2,5,3,1,2,1,2,1
6.6,1,3,4,4,0,1,0,0
6.605,3,1,2,19,3,2,2,1
6.61,0,1,2,5,3,2,2,2
6.615,3,5,8,6,2,2,1,1
6.62,2,2,9,7,0,3,1,1
6.625,1,4,4,3,7,3,2,1
