0.01,0,1,2,4,6,2,2,1
0.015,2,2,4,4,4,1,3,2
0.02,1,3,5,3,1,1,1,0
0.025,1,0,3,2,2,1,0,1
0.03,1,1,0,0,1,1,1,0
0.035,2,0,0,3,5,3,0,1
0.04,0,1,0,2,2,2,3,1
0.045,1,1,1,2,3,1,1,1
0.05,1,1,1,1,6,2,1,3
0.055,0,2,2,0,0,0,1,0
0.06,0,1,0,0,0,1,1,1
0.065,0,1,0,1,0,2,1,2
0.07,3,6,7,6,7,3,1,3
0.075,0,0,2,4,0,1,1,0
0.08,0,0,1,1,1,2,1,0
0.085,1,0,2,1,0,1,1,1
0.09,1,1,0,1,1,0,0,0
0.095,3,1,2,0,1,2,0,1
0.1,2,2,2,6,6,2,2,1
0.105,1,0,1,1,0,2,2,0
0.11,3,0,0,2,2,3,1,1
0.115,1,2,3,3,1,0,1,2
0.12,2,0,0,2,0,1,1,1
0.125,1,1,4,5,7,0,1,1
0.13,1,1,0,3,2,0,0,0
0.135,0,1,0,4,1,1,1,1
0.14,2,2,3,1,2,2,1,0
0.145,1,0,0,1,0,2,1,2
0.15,2,2,2,3,6,2,2,3
0.155,1,1,2,4,2,0,1,1
0.16,1,1,1,0,2,2,2,2
0.165,2,0,0,1,0,1,0,1
0.17,1,0,1,2,2,1,1,1
0.175,2,2,1,1,3,2,1,2
0.18,2,0,1,0,3,1,1,0
0.185,1,3,0,1,0,2,3,1
0.19,2,1,0,1,1,1,1,2
0.195,0,2,1,1,2,2,0,2
0.2,2,1,2,3,1,1,1,3
0.205,0,1,0,1,1,0,0,0
0.21,1,2,1,0,0,0,0,2
0.215,1,0,0,0,1,1,1,1
0.22,0,0,1,2,1,3,1,0
0.225,2,1,0,1,0,2,3,0
0.23,1,2,3,0,2,0,1,0
0.235,3,0,3,5,3,2,0,2
0.24,1,1,0,1,1,2,1,2
0.245,3,0,1,0,1,2,1,1
0.25,1,0,0,4,3,1,2,1
0.255,1,1,0,1,0,1,1,0
0.26,0,1,2,0,3,1,1,1
0.265,2,4,6,2,3,0,1,1
0.27,1,1,0,0,2,1,1,2
0.275,0,1,0,1,2,2,0,3
0.28,1,2,1,1,5,3,2,1
0.285,1,0,0,3,1,0,0,1
0.29,0,1,1,9,5,4,1,1
0.295,1,3,3,2,2,0,2,1
0.3,0,0,2,1,0,0,2,2
0.305,1,2,2,1,2,2,0,3
0.31,3,0,1,0,1,1,1,1
0.315,1,0,1,1,0,1,1,2
0.32,1,0,0,4,3,2,0,1
0.325,2,5,4,3,1,2,4,4
0.33,0,1,2,1,2,1,0,1
0.335,1,0,0,0,2,1,1,1
0.34,2,1,2,3,1,0,2,1
0.345,1,0,2,0,3,2,1,2
0.35,2,2,3,6,4,1,0,1
0.355,0,0,1,0,1,1,3,1
0.36,0,1,4,1,3,0,0,1
0.365,1,0,1,0,3,1,2,1
0.37,0,1,1,1,4,3,1,1
0.375,0,3,0,6,6,1,0,0
0.38,2,3,3,5,5,1,1,2
0.385,1,1,2,0,0,1,1,2
0.39,1,3,2,2,1,0,0,1
0.395,2,1,2,6,6,2,3,1
0.4,1,1,0,2,1,1,2,1
0.405,1,1,1,3,3,1,1,1
0.41,1,0,1,2,1,1,1,1
0.415,1,4,3,2,2,1,1,2
0.42,1,0,3,4,2,0,1,1
0.425,1,0,1,4,3,2,1,1
0.43,1,1,1,3,2,2,1,2
0.435,1,0,2,5,5,3,2,1
0.44,1,4,4,1,3,2,2,3
0.445,3,4,4,3,2,1,0,0
0.45,1,4,2,4,5,2,1,0
0.455,1,3,3,4,5,2,2,0
0.46,2,0,2,4,6,1,1,2
0.465,0,2,2,1,0,3,2,1
0.47,2,1,2,6,3,2,1,1
0.475,3,0,0,1,4,4,1,1
0.48,1,0,2,4,3,1,0,1
0.485,1,3,2,5,1,2,1,2
0.49,1,1,1,2,0,1,2,1
0.495,0,2,4,4,5,1,2,3
0.5,1,3,3,5,6,1,0,1
0.505,1,0,1,1,3,3,2,1
0.51,0,1,3,3,1,2,2,1
0.515,1,1,2,1,3,1,1,0
0.52,4,4,0,0,0,3,0,3
0.525,0,1,0,1,0,3,0,1
0.53,0,2,2,1,2,2,0,1
0.535,0,1,3,3,0,2,0,0
0.54,0,2,0,2,0,1,1,1
0.545,1,2,2,5,4,3,2,2
0.55,1,2,2,1,3,1,0,0
0.555,2,1,0,2,2,2,2,1
0.56,1,3,2,3,2,1,0,1
0.565,0,0,2,2,2,1,1,3
0.57,1,1,2,1,1,1,1,0
0.575,0,1,0,2,3,2,1,1
0.58,3,2,3,4,6,1,1,4
0.585,2,0,4,4,1,0,1,1
0.59,2,2,1,1,1,0,2,2
0.595,3,2,1,2,4,3,1,1
0.6,1,3,1,1,4,3,1,1
0.605,3,7,4,1,1,2,2,1
0.61,0,2,1,1,0,0,1,2
0.615,0,0,1,1,4,1,2,1
0.62,1,1,1,0,4,2,0,0
0.625,1,1,1,2,1,1,2,4
0.63,1,3,2,1,2,0,1,1
0.635,2,2,2,1,0,1,2,3
0.64,1,0,0,1,2,3,0,0
0.645,1,2,2,3,1,3,0,1
0.65,1,1,0,3,1,2,3,3
0.655,1,2,3,2,1,0,1,0
0.66,2,2,2,3,3,1,0,3
0.665,0,0,0,1,2,1,1,2
0.67,1,1,0,5,1,3,1,2
0.675,1,3,5,13,4,1,0,2
0.68,1,1,1,0,0,2,3,0
0.685,3,2,2,1,6,2,0,1
0.69,1,0,2,3,1,0,1,0
0.695,0,1,0,1,2,1,2,0
0.7,2,1,0,0,4,0,1,3
0.705,2,1,0,6,4,0,1,0
0.71,2,3,5,3,2,2,2,0
0.715,1,0,1,5,4,1,1,1
0.72,2,2,1,2,6,0,2,1
0.725,3,1,1,1,0,1,1,1
0.73,2,2,0,1,2,3,2,1
0.735,1,4,1,2,2,2,1,0
0.74,0,1,4,6,5,3,0,1
0.745,1,1,3,0,1,1,1,1
0.75,2,3,4,7,3,0,1,1
0.755,1,1,2,1,2,1,1,2
0.76,1,0,2,3,2,3,1,3
0.765,1,1,3,0,0,0,0,2
0.77,2,1,0,4,8,3,2,3
0.775,0,4,2,3,3,1,0,1
0.78,0,0,2,2,0,1,2,1
0.785,1,0,0,1,1,3,2,0
0.79,2,2,2,2,0,0,1,1
0.795,2,0,2,0,3,3,1,2
0.8,1,1,0,1,2,1,3,1
0.805,2,1,0,3,1,0,0,0
0.81,1,1,1,2,1,1,1,1
0.815,2,3,0,0,1,2,1,2
0.82,0,0,1,1,1,1,0,0
0.825,0,3,1,1,1,0,0,2
0.83,2,2,2,1,2,1,2,2
0.835,2,0,0,2,1,0,1,1
0.84,0,2,4,3,3,3,2,3
0.845,1,1,2,2,3,0,0,1
0.85,0,2,0,0,1,2,2,0
0.855,2,2,1,1,1,0,1,1
0.86,2,1,2,1,2,1,0,1
0.865,1,0,0,1,1,1,0,0
0.87,2,4,5,3,1,0,0,3
0.875,1,0,1,2,7,2,2,0
0.88,1,0,1,5,4,1,0,1
0.885,0,2,4,4,3,1,3,1
0.89,0,2,0,6,0,1,1,1
0.895,0,0,1,1,0,1,0,2
0.9,3,1,1,16,8,4,1,0
0.905,2,3,1,2,1,1,1,1
0.91,1,3,3,3,1,1,1,1
0.915,2,2,4,2,0,1,1,1
0.92,0,2,0,1,4,2,2,0
0.925,1,0,1,0,3,1,2,1
0.93,2,2,2,2,2,2,0,0
0.935,1,1,1,1,3,0,2,1
0.94,1,0,1,2,0,0,1,1
0.945,1,1,1,0,4,1,1,2
0.95,0,1,1,2,0,1,0,2
0.955,3,3,3,3,3,1,2,1
0.96,0,1,1,2,2,2,0,0
0.965,1,1,0,2,3,1,2,1
0.97,0,1,1,1,1,0,1,1
0.975,0,1,1,1,2,1,2,2
0.98,1,1,0,2,2,2,2,1
0.985,2,0,1,1,2,3,0,1
0.99,3,4,4,7,3,0,2,2
0.995,0,1,1,2,3,2,0,1
1,2,3,3,2,4,2,0,1
1.005,2,0,2,2,0,2,2,1
1.01,1,1,0,3,2,4,2,1
1.015,1,4,5,4,1,0,0,2
1.02,2,1,1,4,2,1,0,0
1.025,2,1,1,1,2,2,0,0
1.03,2,2,4,5,6,2,2,1
1.035,2,2,0,0,3,1,1,0
1.04,0,1,2,3,6,3,1,4
1.045,0,3,0,1,1,1,2,2
1.05,0,0,0,1,4,1,1,1
1.055,1,2,2,10,3,1,1,3
1.06,2,3,4,20,9,4,1,0
1.065,1,0,1,4,1,1,1,1
1.07,1,3,4,6,1,0,0,2
1.075,1,4,1,1,1,2,3,0
1.08,0,2,0,7,2,2,0,1
1.085,1,0,1,6,5,0,1,1
1.09,0,0,1,2,0,0,2,0
1.095,1,2,0,0,1,1,2,0
1.1,2,4,2,2,1,2,2,2
1.105,0,1,1,0,0,2,2,1
1.11,0,0,1,1,1,0,0,0
1.115,0,1,1,4,3,2,1,1
1.12,1,2,2,1,2,0,1,1
1.125,1,1,1,1,2,1,0,1
1.13,0,1,2,0,0,2,0,1
1.135,1,3,3,5,3,1,2,1
1.14,0,2,0,2,4,0,1,1
1.145,1,0,2,2,2,1,2,2
1.15,2,4,2,1,7,1,0,1
1.155,1,0,1,7,6,2,2,2
1.16,2,1,2,10,8,1,2,2
1.165,0,2,0,3,7,2,1,2
1.17,1,1,0,0,5,0,2,2
1.175,0,0,0,1,2,2,2,0
1.18,2,1,2,2,4,1,2,0
1.185,1,1,1,2,3,2,0,0
1.19,1,2,0,1,5,4,3,2
1.195,1,3,2,3,0,2,1,2
1.2,1,1,0,9,6,2,1,2
1.205,1,4,3,1,1,0,1,0
1.21,0,1,1,3,3,1,1,1
1.215,1,1,0,0,1,1,1,0
1.22,0,3,1,3,3,2,1,2
1.225,2,4,5,1,2,0,1,4
1.23,1,1,1,1,5,2,3,2
1.235,1,1,4,3,2,0,1,0
1.24,2,0,1,3,3,2,2,1
1.245,1,0,1,5,4,0,0,0
1.25,0,1,1,2,3,2,3,1
1.255,2,2,1,3,2,1,3,1
1.26,1,1,0,2,1,2,1,1
1.265,1,2,4,4,3,2,2,2
1.27,2,3,4,1,2,1,2,1
1.275,2,2,3,7,5,2,0,0
1.28,0,2,1,2,1,1,2,0
1.285,0,1,0,3,3,1,2,0
1.29,2,2,3,3,4,0,1,0
1.295,3,2,4,2,4,1,2,3
1.3,1,4,3,2,0,2,3,2
1.305,0,2,1,2,1,0,1,0
1.31,1,3,2,3,7,3,1,1
1.315,1,0,0,0,3,0,0,2
1.32,1,1,1,3,2,0,2,2
1.325,2,2,0,4,2,1,1,3
1.33,2,0,2,2,1,1,1,1
1.335,0,2,3,3,7,3,1,0
1.34,1,0,2,0,1,2,1,1
1.345,1,1,1,0,0,2,1,2
1.35,0,0,1,0,3,2,1,1
1.355,1,1,0,0,2,1,1,2
1.36,1,1,3,5,2,1,1,1
1.365,0,0,0,1,0,1,0,0
1.37,1,3,1,0,2,1,1,2
1.375,1,0,0,1,2,0,1,2
1.38,2,3,1,1,2,1,2,1
1.385,1,0,3,3,1,1,1,1
1.39,0,1,2,1,2,2,1,1
1.395,1,2,1,1,3,3,1,1
1.4,1,3,3,5,4,1,2,1
1.405,2,2,5,3,2,2,1,1
1.41,2,2,5,8,0,0,0,2
1.415,1,1,4,2,2,1,0,1
1.42,0,1,0,1,0,2,1,1
1.425,1,0,0,3,0,2,3,1
1.43,0,0,2,3,0,1,2,1
1.435,1,0,0,2,0,1,1,1
1.44,1,2,3,1,2,1,1,3
1.445,3,2,1,1,0,1,1,1
1.45,1,0,1,3,2,1,0,1
1.455,2,3,2,1,0,1,1,0
1.46,0,0,2,2,1,1,0,0
1.465,0,4,1,2,0,2,0,0
1.47,1,1,1,0,3,1,2,1
1.475,1,3,2,4,2,0,1,0
1.48,3,2,3,0,1,1,2,0
1.485,1,1,0,2,0,1,1,1
1.49,2,3,3,4,4,0,2,4
1.495,0,2,0,0,3,2,2,2
1.5,1,1,0,1,2,1,1,0
1.505,3,1,3,9,7,1,2,1
1.51,1,0,2,0,0,0,0,1
1.515,1,0,1,1,3,1,0,2
1.52,2,2,1,1,3,2,2,3
1.525,3,2,3,0,2,1,2,1
1.53,0,1,0,0,1,3,2,1
1.535,0,1,1,5,1,2,1,0
1.54,0,1,0,2,1,0,1,2
1.545,2,2,0,3,2,2,3,2
1.55,1,0,1,0,0,0,1,1
1.555,1,0,0,2,0,1,0,1
1.56,2,5,6,3,4,3,1,0
1.565,0,2,1,2,2,1,0,0
1.57,2,1,3,3,4,1,0,0
1.575,2,2,2,1,0,2,2,0
1.58,1,1,2,2,1,0,1,1
1.585,2,1,2,1,5,4,1,4
1.59,1,2,0,1,1,0,0,1
1.595,1,4,4,1,2,1,1,2
1.6,1,2,1,2,0,0,1,0
1.605,1,1,0,2,2,3,1,1
1.61,0,1,3,0,0,1,0,0
1.615,2,1,1,1,2,3,2,1
1.62,0,1,2,5,4,3,1,2
1.625,3,2,2,1,3,1,0,0
1.63,0,1,0,4,0,1,3,1
1.635,1,1,1,1,1,1,1,2
1.64,1,1,1,0,0,1,1,2
1.645,1,1,1,0,0,1,1,1
1.65,2,3,2,1,1,0,0,1
1.655,0,1,1,1,1,0,2,0
1.66,1,0,0,4,4,2,1,1
1.665,1,2,2,3,0,1,1,1
1.67,2,3,3,1,2,1,1,0
1.675,2,2,2,1,1,2,1,1
1.68,2,1,3,1,1,0,1,1
1.685,0,0,1,4,1,1,2,1
1.69,1,1,1,1,2,0,0,1
1.695,2,2,4,4,2,0,1,1
1.7,1,1,2,3,3,1,1,2
1.705,0,2,1,1,0,0,1,1
1.71,1,2,3,1,2,2,2,1
1.715,1,0,0,0,0,2,1,0
1.72,2,1,0,1,0,3,1,2
1.725,1,1,0,0,1,2,1,2
1.73,1,3,4,1,3,1,0,1
1.735,0,1,1,2,2,1,1,2
1.74,1,1,3,1,1,1,2,2
1.745,1,4,1,2,3,0,0,1
1.75,2,1,0,1,0,2,3,1
1.755,1,0,0,1,0,1,1,1
1.76,2,1,1,2,1,0,1,1
1.765,0,1,1,5,1,1,1,0
1.77,0,0,2,1,3,2,1,1
1.775,1,3,2,2,1,0,2,1
1.78,0,2,1,3,4,1,1,1
1.785,1,2,3,5,1,1,2,2
1.79,0,1,2,2,1,0,2,1
1.795,1,0,3,0,2,3,1,1
1.8,1,1,0,3,1,1,0,1
1.805,1,2,1,2,2,1,1,0
1.81,0,0,1,0,1,0,1,1
1.815,1,2,4,2,3,2,1,2
1.82,2,2,2,2,5,1,2,1
1.825,1,0,1,1,1,0,1,0
1.83,2,3,4,0,0,2,4,2
1.835,1,1,2,1,1,0,1,2
1.84,1,2,4,3,2,1,1,2
1.845,0,0,0,3,0,0,1,0
1.85,2,0,3,3,0,0,0,0
1.855,2,1,3,1,2,1,1,1
1.86,0,1,0,3,4,1,2,2
1.865,1,2,2,2,1,0,2,1
1.87,0,3,3,2,3,1,1,1
1.875,0,3,1,1,2,2,2,1
1.88,0,2,3,5,4,0,1,1
1.885,3,2,1,0,2,1,0,3
1.89,2,1,0,2,4,2,0,1
1.895,1,0,0,3,4,1,1,0
1.9,1,5,4,11,9,5,3,2
1.905,0,0,2,1,1,1,1,2
1.91,1,2,2,3,2,2,0,1
1.915,1,2,1,3,0,0,2,2
1.92,2,0,0,3,0,2,1,2
1.925,2,1,1,2,2,1,2,1
1.93,2,3,2,4,4,2,0,2
1.935,2,0,0,5,2,1,1,1
1.94,1,2,3,1,2,0,2,0
1.945,2,1,1,4,5,5,1,2
1.95,1,1,0,0,1,0,1,1
1.955,1,3,3,4,3,3,1,1
1.96,1,0,1,4,3,1,0,1
1.965,1,3,1,2,2,1,2,1
1.97,1,2,0,2,1,0,2,1
1.975,1,0,0,3,1,1,3,1
1.98,1,0,1,0,2,2,1,1
1.985,2,2,2,0,1,0,1,0
1.99,2,1,0,4,2,2,0,2
1.995,2,4,2,4,2,0,1,1
2,0,1,4,2,2,1,1,0
2.005,1,0,2,3,2,0,1,2
2.01,0,1,2,8,7,3,1,0
2.015,0,2,1,2,2,2,0,1
2.02,1,3,2,5,7,1,3,2
2.025,0,0,0,2,0,0,1,0
2.03,2,2,2,1,3,4,1,1
2.035,2,0,2,1,3,3,1,1
2.04,0,0,3,3,1,1,0,1
2.045,0,2,1,4,2,1,1,2
2.05,1,1,2,1,0,1,1,1
2.055,2,4,1,1,2,1,1,1
2.06,2,1,3,4,2,1,1,1
2.065,0,1,0,0,1,1,2,2
2.07,2,3,2,4,1,0,1,0
2.075,2,5,3,3,2,2,1,1
2.08,1,2,1,1,2,2,0,1
2.085,1,0,2,1,0,1,1,1
2.09,0,0,0,1,0,0,2,1
2.095,1,1,2,3,2,2,4,3
2.1,2,2,3,1,0,0,1,1
2.105,1,7,5,5,1,1,1,1
2.11,1,1,0,4,1,1,1,2
2.115,0,2,1,0,2,1,0,2
2.12,1,1,2,2,2,2,2,0
2.125,4,2,2,3,0,1,3,2
2.13,2,1,2,2,3,2,1,1
2.135,0,2,3,2,1,2,0,2
2.14,1,1,1,3,5,0,1,1
2.145,0,1,1,5,3,1,0,1
2.15,2,1,1,1,1,2,1,1
2.155,2,1,3,4,4,3,1,0
2.16,2,4,3,3,3,2,0,1
2.165,1,3,3,2,1,2,1,1
2.17,0,0,2,2,2,0,2,1
2.175,1,3,1,5,0,1,2,1
2.18,2,2,3,8,3,1,1,2
2.185,1,1,1,2,1,1,2,1
2.19,1,3,5,16,9,2,0,1
2.195,1,1,0,6,4,1,1,2
2.2,2,4,4,1,0,1,0,2
2.205,3,1,2,1,2,2,0,0
2.21,2,4,3,2,3,1,2,4
2.215,2,1,0,3,1,2,1,1
2.22,1,2,2,2,3,1,1,1
2.225,1,1,0,4,0,0,0,2
2.23,3,3,0,2,0,1,1,1
2.235,1,2,4,6,3,1,1,2
2.24,1,1,0,2,1,1,2,1
2.245,2,1,2,3,4,1,0,1
2.25,1,3,3,2,1,1,1,0
2.255,0,1,0,1,1,1,1,1
2.26,0,0,1,2,1,1,0,0
2.265,1,3,2,1,3,1,0,4
2.27,1,0,2,2,1,0,2,1
2.275,1,1,2,1,2,2,1,1
2.28,0,2,1,1,4,2,1,2
2.285,1,0,2,6,0,2,1,2
2.29,2,2,0,7,6,0,3,2
2.295,1,2,2,0,1,1,1,1
2.3,2,0,3,0,0,1,1,1
2.305,1,1,1,2,3,0,1,1
2.31,1,1,3,3,5,1,1,1
2.315,1,0,0,1,2,2,3,2
2.32,4,1,1,0,0,1,1,2
2.325,0,1,0,3,3,0,0,0
2.33,3,3,3,3,2,4,1,0
2.335,1,4,5,1,3,2,2,2
2.34,0,1,0,0,2,1,1,1
2.345,2,0,1,1,1,1,2,1
2.35,0,2,3,1,0,1,0,1
2.355,1,3,5,4,3,1,1,3
2.36,1,3,2,5,2,3,0,2
2.365,1,2,3,0,0,0,2,3
2.37,2,1,0,4,3,1,1,1
2.375,1,0,0,5,9,2,1,1
2.38,0,0,2,0,1,1,1,2
2.385,0,0,0,2,3,3,1,1
2.39,1,1,3,0,0,1,1,1
2.395,0,2,2,3,5,0,2,0
2.4,0,1,2,8,1,1,0,2
2.405,1,1,1,3,1,0,1,0
2.41,2,1,1,2,2,3,1,1
2.415,2,1,1,2,3,2,0,1
2.42,0,1,0,0,1,1,2,1
2.425,2,0,2,1,1,1,1,2
2.43,0,0,1,0,0,1,2,2
2.435,1,2,2,4,2,2,2,2
2.44,2,3,0,1,1,2,4,2
2.445,0,2,1,2,2,0,1,1
2.45,0,2,0,0,1,3,2,1
2.455,2,3,3,3,2,0,1,1
2.46,1,2,3,0,3,1,1,0
2.465,0,1,1,3,3,2,1,1
2.47,1,3,1,7,3,2,0,1
2.475,1,2,2,5,8,2,0,2
2.48,2,3,3,3,3,1,2,3
2.485,1,1,2,0,0,1,4,0
2.49,2,2,2,2,0,1,1,0
2.495,1,1,1,1,1,1,1,2
2.5,0,2,0,2,2,1,1,1
2.505,1,1,1,2,2,2,1,0
2.51,0,2,4,3,3,1,2,2
2.515,1,0,2,1,0,1,1,1
2.52,1,1,0,1,4,2,3,1
2.525,2,4,5,2,1,1,2,2
2.53,0,1,3,2,1,3,1,0
2.535,0,2,1,2,0,1,0,1
2.54,0,2,1,3,3,2,1,3
2.545,2,2,3,6,0,1,1,0
2.55,0,1,1,1,1,1,2,2
2.555,1,2,2,4,1,0,2,1
2.56,0,3,1,4,3,0,1,1
2.565,0,1,0,1,1,1,1,1
2.57,3,0,1,3,2,2,2,1
2.575,1,0,2,0,0,0,2,1
2.58,1,1,2,2,1,1,1,1
2.585,1,0,2,2,1,1,1,1
2.59,3,3,2,3,2,0,2,1
2.595,2,0,0,2,1,1,1,3
2.6,3,2,3,3,2,1,1,0
2.605,4,3,2,1,1,1,3,1
2.61,1,1,1,3,2,2,0,1
2.615,2,2,2,1,1,4,4,1
2.62,0,1,0,1,0,0,2,0
2.625,0,2,1,2,5,3,0,2
2.63,0,1,3,6,8,4,1,0
2.635,1,1,2,2,5,3,0,2
2.64,1,1,1,2,3,1,1,2
2.645,0,1,1,0,0,1,1,0
2.65,0,2,3,1,4,2,0,2
2.655,2,2,0,1,4,1,0,2
2.66,1,0,2,2,1,2,2,0
2.665,1,1,3,2,1,1,1,1
2.67,1,0,2,2,2,2,2,0
2.675,2,4,5,4,0,1,1,2
2.68,2,1,1,1,4,1,1,1
2.685,2,1,0,2,1,1,0,2
2.69,2,1,0,3,3,2,1,4
2.695,0,2,1,1,0,0,0,2
2.7,3,0,1,0,3,4,2,1
2.705,1,1,1,2,2,2,1,2
2.71,2,2,3,1,1,1,1,1
2.715,2,2,1,2,1,0,0,2
2.72,1,1,1,0,2,0,3,2
2.725,2,1,0,1,1,1,1,1
2.73,1,3,5,7,6,2,2,1
2.735,0,0,1,0,0,0,0,1
2.74,1,0,1,1,1,1,0,1
2.745,1,3,2,1,3,1,2,0
2.75,1,0,1,1,1,2,1,3
2.755,1,0,0,1,4,2,1,1
2.76,2,2,1,3,3,1,1,0
2.765,1,2,3,4,1,0,1,1
2.77,0,1,2,6,5,2,0,1
2.775,0,0,1,9,7,2,2,1
2.78,0,1,2,4,5,1,1,1
2.785,2,0,1,0,2,1,0,2
2.79,0,1,1,0,0,2,0,1
2.795,3,0,1,4,6,2,2,1
2.8,2,2,1,2,0,2,0,3
2.805,1,2,2,0,0,1,1,2
2.81,2,5,3,2,3,1,1,4
2.815,1,0,2,2,2,0,1,0
2.82,0,2,3,4,2,0,1,0
2.825,1,0,2,6,2,2,2,1
2.83,2,1,1,1,3,2,2,0
2.835,1,0,2,3,2,0,1,1
2.84,1,1,2,0,2,1,3,1
2.845,0,2,2,1,1,1,0,1
2.85,1,1,1,2,2,1,0,0
2.855,1,4,5,2,3,2,0,3
2.86,2,1,1,2,1,0,0,1
2.865,1,1,3,1,1,2,3,1
2.87,1,1,1,0,0,1,1,1
2.875,0,0,1,3,1,1,1,0
2.88,1,0,1,3,6,3,2,0
2.885,0,1,2,4,6,2,2,1
2.89,1,1,1,1,2,1,0,1
2.895,1,1,2,4,3,2,1,1
2.9,1,1,1,1,1,2,1,2
2.905,0,2,0,2,5,2,1,1
2.91,2,1,1,1,4,3,1,1
2.915,2,2,2,1,0,1,1,1
2.92,2,1,1,1,1,0,0,2
2.925,2,0,1,1,0,1,1,1
2.93,1,2,2,1,0,1,0,0
2.935,0,2,3,2,1,1,1,1
2.94,1,2,3,2,1,1,1,1
2.945,2,3,1,2,3,1,1,2
2.95,2,2,1,1,1,1,0,1
2.955,1,0,1,0,0,2,1,1
2.96,1,2,0,3,1,1,1,1
2.965,1,0,0,1,6,3,3,1
2.97,1,3,4,2,2,0,1,3
2.975,1,0,3,5,4,1,0,1
2.98,3,2,0,1,0,1,0,2
2.985,0,2,0,1,1,2,0,1
2.99,1,2,2,3,5,0,2,1
2.995,1,2,1,3,2,2,1,2
3,3,3,5,3,1,1,1,3
3.005,0,0,1,1,1,1,0,1
3.01,2,0,0,1,1,1,2,1
3.015,0,0,2,3,2,1,0,2
3.02,0,3,2,0,2,3,2,1
3.025,2,1,1,4,1,0,1,3
3.03,2,0,0,3,2,4,1,1
3.035,1,2,2,3,2,0,1,0
3.04,3,2,2,2,0,1,1,1
3.045,1,1,1,1,1,0,3,1
3.05,1,1,3,3,3,3,3,3
3.055,2,2,1,7,4,3,2,2
3.06,1,2,1,3,1,0,0,1
3.065,1,3,3,1,2,2,2,2
3.07,0,1,1,1,2,1,1,1
3.075,1,0,0,3,3,3,3,1
3.08,2,2,2,1,0,1,1,1
3.085,1,2,2,4,2,2,1,2
3.09,3,5,3,3,2,0,0,3
3.095,0,0,1,4,4,2,0,2
3.1,1,0,1,0,1,1,2,0
3.105,2,1,0,2,2,2,2,1
3.11,1,0,0,2,1,1,1,0
3.115,2,2,0,2,1,0,2,0
3.12,2,0,1,0,2,1,0,2
3.125,0,2,2,3,2,0,0,1
3.13,0,1,1,2,1,1,0,2
3.135,1,2,3,3,1,0,1,1
3.14,2,1,2,1,2,1,0,1
3.145,1,1,0,2,5,1,0,0
3.15,2,4,4,5,2,3,1,2
3.155,0,0,2,0,1,2,0,2
3.16,1,3,4,2,2,1,1,2
3.165,0,1,3,0,2,1,0,1
3.17,1,1,0,1,2,1,1,2
3.175,1,1,0,0,0,1,1,1
3.18,1,1,3,0,1,0,2,0
3.185,3,2,3,1,1,1,1,1
3.19,0,2,1,1,1,1,2,1
3.195,1,1,0,0,0,0,0,2
3.2,0,0,0,1,2,0,1,1
3.205,1,0,1,1,2,3,0,2
3.21,1,1,1,2,2,1,1,4
3.215,0,1,1,0,1,1,1,0
3.22,3,2,1,0,2,2,4,1
3.225,1,0,3,5,7,2,3,1
3.23,0,2,1,3,7,3,0,1
3.235,2,0,3,1,1,0,1,2
3.24,1,0,0,0,1,0,1,2
3.245,1,1,2,2,3,1,0,1
3.25,1,1,1,2,3,2,2,0
3.255,1,2,3,2,1,2,1,2
3.26,1,1,1,1,2,2,0,0
3.265,2,3,4,3,2,1,0,1
3.27,1,1,0,1,1,0,1,1
3.275,3,1,2,0,1,0,1,0
3.28,1,1,4,2,2,1,1,0
3.285,2,3,0,1,1,1,1,1
3.29,1,1,0,0,2,1,0,0
3.295,2,3,3,1,1,1,3,0
3.3,0,3,1,0,0,1,1,0
3.305,1,1,1,4,2,1,1,1
3.31,1,1,1,6,3,1,1,1
3.315,0,2,4,10,3,0,1,0
3.32,2,0,1,3,3,2,1,2
3.325,1,3,7,3,3,3,2,3
3.33,1,0,0,1,3,0,1,2
3.335,1,2,1,1,1,2,0,1
3.34,1,0,2,0,1,0,1,1
3.345,1,1,2,1,1,2,1,0
3.35,1,1,2,2,3,1,1,1
3.355,1,0,0,3,1,0,0,0
3.36,1,4,4,5,3,2,1,2
3.365,0,0,0,3,1,0,1,0
3.37,1,1,2,4,2,0,1,1
3.375,1,1,0,3,1,1,1,0
3.38,2,1,2,1,2,2,1,2
3.385,1,2,2,1,0,0,1,3
3.39,2,2,1,2,2,2,1,1
3.395,1,0,2,3,4,3,3,3
3.4,2,6,6,5,2,0,0,0
3.405,1,2,1,1,1,0,1,0
3.41,1,0,1,1,1,2,2,1
3.415,1,0,1,0,1,1,2,1
3.42,1,1,2,0,1,1,1,2
3.425,2,1,1,3,1,1,2,3
3.43,1,1,2,1,0,0,0,1
3.435,1,4,2,1,2,1,2,2
3.44,0,2,4,3,3,2,1,0
3.445,1,0,1,1,2,1,1,2
3.45,1,0,1,0,1,2,1,0
3.455,2,2,3,0,1,1,0,2
3.46,1,2,2,2,3,1,2,2
3.465,2,3,2,3,2,2,1,1
3.47,1,4,3,2,1,0,1,2
3.475,3,2,2,5,4,2,0,0
3.48,2,4,5,4,6,0,1,2
3.485,1,0,1,0,1,1,1,0
3.49,2,3,2,4,6,1,1,3
3.495,0,0,1,3,0,1,0,2
3.5,0,3,4,4,5,3,1,0
3.505,1,3,4,1,6,2,1,2
3.51,1,0,2,1,3,1,3,1
3.515,2,3,2,3,1,0,1,1
3.52,1,1,1,3,2,3,2,1
3.525,1,0,0,4,2,3,0,0
3.53,2,2,0,2,3,1,3,1
3.535,0,1,1,0,1,0,1,1
3.54,2,2,1,1,3,1,0,1
3.545,1,2,2,2,3,1,1,1
3.55,0,2,2,2,1,1,1,1
3.555,0,1,1,1,3,0,2,2
3.56,1,1,0,3,2,2,1,3
3.565,1,1,0,1,2,0,0,0
3.57,1,0,2,0,1,1,2,2
3.575,2,3,0,2,1,1,1,1
3.58,1,1,2,4,0,1,2,1
3.585,2,2,1,1,2,3,2,1
3.59,3,4,5,5,2,1,1,1
3.595,2,2,2,2,1,1,2,2
3.6,2,1,2,0,0,0,1,1
3.605,2,1,0,2,2,2,2,2
3.61,1,0,0,0,0,3,1,1
3.615,1,0,0,3,3,3,1,1
3.62,2,2,1,2,0,3,2,0
3.625,1,1,0,1,1,0,1,3
3.63,0,1,1,1,0,0,2,1
3.635,2,2,1,4,2,1,2,0
3.64,0,1,0,2,1,1,1,0
3.645,0,3,2,10,3,0,0,1
3.65,1,2,1,0,1,3,1,2
3.655,0,2,2,5,3,3,0,1
3.66,1,1,2,0,1,0,1,1
3.665,2,2,3,2,5,1,2,2
3.67,0,4,0,1,2,0,2,0
3.675,2,1,1,0,2,0,0,1
3.68,2,0,1,1,1,1,1,2
3.685,3,0,2,1,0,1,1,0
3.69,1,2,3,5,3,0,2,0
3.695,0,1,1,3,3,2,2,1
3.7,0,3,1,1,1,1,2,1
3.705,0,1,1,0,2,3,2,1
3.71,0,0,2,2,1,1,1,1
3.715,0,4,3,1,1,1,0,1
3.72,1,1,2,5,0,0,0,1
3.725,1,1,3,1,2,2,0,2
3.73,1,0,1,1,4,2,2,1
3.735,2,4,4,2,2,1,2,1
3.74,2,4,3,2,2,1,2,1
3.745,1,2,1,0,3,1,0,2
3.75,1,0,0,3,3,2,4,1
3.755,1,1,0,2,2,0,0,0
3.76,1,2,2,2,5,3,1,0
3.765,1,1,0,2,0,1,0,2
3.77,1,1,1,0,1,1,1,1
3.775,1,0,0,1,1,0,2,1
3.78,1,1,1,2,0,2,2,1
3.785,1,2,0,0,3,1,1,1
3.79,0,1,1,1,1,2,0,3
3.795,1,0,2,5,4,2,0,1
3.8,2,1,2,1,1,2,0,1
3.805,2,0,1,3,1,0,1,2
3.81,2,2,1,0,1,1,1,2
3.815,1,1,2,2,7,4,2,1
3.82,1,0,0,2,3,1,2,2
3.825,1,2,3,3,1,0,2,1
3.83,3,1,3,1,0,1,1,0
3.835,0,1,1,1,1,0,2,1
3.84,2,2,1,0,4,1,1,2
3.845,2,0,0,1,3,1,2,1
3.85,2,3,2,3,1,1,1,2
3.855,2,0,1,2,1,2,0,2
3.86,2,2,2,2,3,1,1,1
3.865,0,1,1,3,1,2,2,2
3.87,0,1,2,0,0,0,1,0
3.875,1,1,0,1,1,1,2,1
3.88,1,1,0,1,1,0,1,0
3.885,1,2,1,1,2,3,1,1
3.89,1,6,5,3,1,0,1,1
3.895,1,0,2,9,1,0,1,0
3.9,2,2,3,3,1,1,0,0
3.905,0,1,1,2,1,2,2,1
3.91,2,0,3,4,1,1,2,1
3.915,2,2,1,2,1,0,2,1
3.92,2,0,2,1,2,1,2,0
3.925,2,3,2,5,2,0,1,2
3.93,0,1,3,2,3,1,2,0
3.935,1,4,1,3,1,1,1,3
3.94,1,0,1,6,3,0,2,1
3.945,0,2,0,3,1,2,0,0
3.95,1,1,0,7,7,3,1,2
3.955,0,2,0,3,2,1,0,3
3.96,0,1,4,1,1,2,1,0
3.965,3,2,1,0,1,1,1,1
3.97,1,0,1,1,2,2,1,0
3.975,1,1,2,1,1,1,1,1
3.98,1,0,1,1,2,1,0,3
3.985,0,2,3,4,2,1,0,1
3.99,2,3,4,2,2,0,1,0
3.995,1,1,2,1,1,2,0,0
4,2,1,1,3,2,2,1,2
4.005,1,1,1,1,2,3,4,1
4.01,1,1,0,1,3,1,0,1
4.015,1,1,1,0,3,2,3,0
4.02,0,0,1,1,3,0,2,0
4.025,1,0,0,3,0,1,0,2
4.03,1,4,2,8,4,1,1,2
4.035,1,0,3,0,0,1,0,0
4.04,0,1,1,5,6,2,1,1
4.045,2,3,4,11,10,2,2,2
4.05,2,2,3,3,2,2,2,3
4.055,1,0,1,3,1,1,0,1
4.06,0,4,1,0,2,2,1,0
4.065,1,3,2,4,3,0,1,1
4.07,1,1,2,0,2,2,0,2
4.075,1,3,3,0,0,0,1,1
4.08,0,0,1,0,2,3,0,2
4.085,2,3,1,1,3,0,1,3
4.09,1,0,1,0,1,0,3,1
4.095,1,2,0,1,5,2,0,3
4.1,3,2,3,1,1,2,3,1
4.105,0,0,1,0,1,2,1,0
4.11,2,2,2,1,1,1,1,1
4.115,2,1,1,2,1,3,2,2
4.12,1,2,1,1,2,1,2,0
4.125,1,1,2,1,1,0,1,0
4.13,0,1,3,1,2,1,1,1
4.135,1,1,1,0,5,2,2,1
4.14,1,1,3,4,4,0,0,1
4.145,1,0,1,1,0,1,1,0
4.15,0,4,3,1,0,0,1,0
4.155,3,4,1,0,1,1,3,2
4.16,0,1,0,0,3,3,1,1
4.165,0,3,1,5,5,2,0,1
4.17,1,1,1,4,0,0,0,1
4.175,2,2,4,10,5,2,2,0
4.18,1,1,0,2,2,3,1,2
4.185,2,0,3,4,1,2,2,2
4.19,2,5,1,2,0,2,0,1
4.195,1,1,1,1,2,1,0,0
4.2,3,5,3,2,3,1,2,1
4.205,1,1,1,2,3,2,1,0
4.21,0,0,2,2,0,3,1,0
4.215,1,1,3,0,1,2,1,1
4.22,1,2,3,3,1,1,2,2
4.225,1,0,3,1,3,3,0,2
4.23,0,3,2,4,3,1,1,0
4.235,1,1,1,1,1,1,0,1
4.24,1,2,2,1,7,3,1,0
4.245,2,1,1,2,3,0,2,1
4.25,2,0,0,2,1,1,2,2
4.255,0,1,4,1,3,0,2,1
4.26,0,2,1,3,2,2,0,2
4.265,2,2,1,1,2,1,1,1
4.27,5,3,2,5,5,2,0,2
4.275,1,2,1,0,1,0,0,2
4.28,2,0,1,1,0,0,1,2
4.285,2,2,0,4,1,2,2,1
4.29,1,0,3,10,4,2,1,1
4.295,1,1,1,1,2,2,3,3
4.3,1,1,2,3,1,1,0,0
4.305,3,0,2,7,5,2,2,2
4.31,2,4,4,0,2,0,1,1
4.315,0,1,2,1,1,1,1,0
4.32,1,1,1,2,5,4,3,0
4.325,0,0,2,3,3,0,1,0
4.33,0,1,2,5,5,1,1,1
4.335,2,2,2,1,2,1,1,1
4.34,0,2,7,2,1,0,0,0
4.345,1,2,2,4,7,4,3,2
4.35,1,3,5,3,2,2,0,2
4.355,2,1,0,3,1,1,0,0
4.36,1,2,5,5,4,1,0,1
4.365,0,1,2,0,1,1,1,1
4.37,0,1,0,0,1,0,1,0
4.375,1,2,2,3,3,2,2,1
4.38,3,3,0,6,3,0,0,2
4.385,1,0,3,0,3,0,1,1
4.39,1,0,1,2,4,2,2,0
4.395,1,0,0,2,0,1,0,2
4.4,1,3,0,5,0,1,1,1
4.405,1,4,2,7,2,1,1,1
4.41,1,1,1,4,6,4,1,0
4.415,1,0,1,1,1,2,1,1
4.42,1,1,2,1,0,1,1,1
4.425,2,0,0,2,2,0,1,2
4.43,1,2,0,4,1,1,1,0
4.435,1,2,8,5,3,2,2,2
4.44,0,4,1,1,3,2,1,0
4.445,1,0,1,2,1,2,0,0
4.45,2,1,1,2,2,1,1,2
4.455,1,0,1,2,2,1,0,1
4.46,0,1,2,3,1,1,2,0
4.465,3,1,1,2,3,0,1,2
4.47,1,5,3,1,1,1,0,1
4.475,2,2,0,2,1,1,1,2
4.48,1,0,1,2,2,1,0,0
4.485,0,0,2,3,3,0,1,0
4.49,1,3,5,0,1,1,0,1
4.495,2,2,4,3,0,1,1,1
4.5,2,1,2,2,0,0,1,0
4.505,1,2,4,2,4,2,1,4
4.51,0,2,3,2,3,2,1,4
4.515,1,1,1,5,1,1,1,2
4.52,1,1,3,1,2,4,1,2
4.525,0,4,3,3,6,1,1,0
4.53,1,1,3,4,8,0,1,0
4.535,3,5,3,1,1,3,0,2
4.54,0,1,2,0,3,1,0,1
4.545,1,1,0,1,1,1,0,2
4.55,0,1,0,0,0,1,2,1
4.555,1,2,3,2,5,2,3,0
4.56,3,1,4,6,5,1,0,0
4.565,0,3,0,1,3,0,1,0
4.57,2,1,1,1,3,2,2,2
4.575,1,1,1,0,1,0,2,0
4.58,2,3,2,2,3,2,1,2
4.585,2,2,2,2,1,2,1,2
4.59,0,1,1,0,1,2,2,1
4.595,0,1,1,1,1,0,0,1
4.6,2,2,3,4,2,3,3,2
4.605,2,2,0,1,3,0,1,1
4.61,1,1,1,3,1,0,0,1
4.615,2,0,2,2,2,1,1,2
4.62,0,1,0,2,0,1,1,0
4.625,0,1,3,6,4,2,2,3
4.63,1,3,1,2,2,1,1,1
4.635,1,0,1,3,4,3,2,2
4.64,1,2,0,3,5,1,1,1
4.645,0,3,0,0,9,4,0,0
4.65,0,2,3,1,1,0,1,3
4.655,2,1,1,4,3,2,1,1
4.66,1,1,1,1,4,4,4,2
4.665,1,2,1,1,5,4,2,0
4.67,0,1,0,0,1,0,0,1
4.675,2,1,1,0,1,0,1,2
4.68,1,2,2,0,3,0,1,0
4.685,1,1,1,1,1,2,2,0
4.69,1,3,2,3,2,0,3,1
4.695,2,2,0,1,3,2,0,1
4.7,0,0,1,0,0,0,1,1
4.705,1,1,3,3,0,2,2,2
4.71,0,1,1,4,2,1,1,1
4.715,0,1,1,2,3,1,0,1
4.72,1,1,1,4,1,0,1,1
4.725,2,2,0,6,1,3,0,2
4.73,1,3,1,2,2,2,0,0
4.735,0,0,0,0,1,1,2,0
4.74,0,1,2,2,0,0,2,1
4.745,1,1,1,9,9,3,2,1
4.75,1,2,3,3,4,1,2,1
4.755,1,0,2,0,0,2,1,2
4.76,1,1,4,5,2,3,1,1
4.765,3,1,2,0,1,1,1,0
4.77,0,2,2,2,4,2,3,0
4.775,2,1,1,1,1,2,1,0
4.78,2,3,3,1,1,0,0,3
4.785,1,0,1,2,6,2,1,0
4.79,2,0,1,1,2,1,1,0
4.795,0,2,2,1,0,1,1,1
4.8,0,2,2,1,0,1,1,1
4.805,0,1,0,1,1,1,0,0
4.81,1,2,0,1,3,2,1,1
4.815,1,1,0,1,2,1,2,0
4.82,1,0,0,1,2,2,3,0
4.825,2,1,1,5,0,2,2,1
4.83,0,0,3,3,2,1,1,2
4.835,0,4,3,5,3,0,0,1
4.84,2,1,0,0,1,1,1,0
4.845,1,2,0,1,0,2,2,1
4.85,1,1,1,4,1,1,1,1
4.855,1,0,0,2,6,2,1,2
4.86,1,2,3,3,4,1,0,1
4.865,0,2,2,3,3,2,0,0
4.87,2,1,0,6,1,2,1,1
4.875,3,2,3,8,1,0,1,0
4.88,0,3,3,1,2,3,0,1
4.885,0,1,1,0,0,2,2,2
4.89,3,2,3,7,6,3,1,0
4.895,0,1,0,2,1,2,1,1
4.9,1,2,1,1,3,1,2,1
4.905,1,1,1,4,1,2,1,1
4.91,1,5,2,3,1,1,2,2
4.915,1,1,1,1,2,2,2,1
4.92,1,0,1,2,2,1,1,1
4.925,1,4,3,1,3,1,2,2
4.93,2,1,2,1,3,2,2,2
4.935,2,0,1,1,4,1,1,1
4.94,1,0,1,2,1,1,1,1
4.945,1,0,1,0,2,0,1,1
4.95,1,0,0,2,1,2,1,2
4.955,1,3,4,6,4,3,3,3
4.96,0,1,0,4,1,1,0,1
4.965,2,3,4,2,2,2,1,0
4.97,1,1,1,1,3,1,2,1
4.975,1,2,0,0,4,1,1,0
4.98,2,1,1,3,4,1,1,1
4.985,3,3,3,1,1,1,1,3
4.99,1,3,4,5,1,0,0,1
4.995,1,1,2,1,3,0,0,1
5,1,2,4,3,2,1,0,1
5.005,0,1,1,0,0,2,0,1
5.01,2,0,1,0,4,2,1,1
5.015,1,2,1,3,7,1,1,2
5.02,1,3,3,5,5,3,2,0
5.025,1,1,2,1,2,1,1,0
5.03,1,0,0,1,2,2,1,0
5.035,1,0,0,1,0,1,0,1
5.04,2,2,1,0,1,0,1,2
5.045,0,0,3,1,0,1,2,2
5.05,1,2,3,4,2,0,1,1
5.055,1,3,3,3,4,2,1,1
5.06,1,1,1,1,1,1,1,0
5.065,2,1,2,1,1,1,2,2
5.07,1,1,1,2,3,1,1,1
5.075,1,3,3,1,0,0,1,2
5.08,0,1,3,1,1,0,2,2
5.085,0,1,0,3,1,0,0,0
5.09,3,2,2,1,3,2,2,2
5.095,2,2,1,2,0,1,2,1
5.1,4,2,1,4,2,2,3,1
5.105,0,1,2,1,1,1,0,0
5.11,0,1,2,3,3,1,1,2
5.115,0,1,0,0,1,1,2,1
5.12,1,2,2,2,2,0,0,2
5.125,1,0,0,1,1,1,2,1
5.13,2,1,3,0,0,1,3,1
5.135,1,2,4,2,2,1,0,0
5.14,3,1,1,3,5,3,1,1
5.145,1,0,1,3,6,0,1,1
5.15,0,0,0,0,2,1,1,2
5.155,2,1,2,2,0,1,1,1
5.16,0,1,0,2,3,1,1,1
5.165,1,3,1,3,5,3,1,1
5.17,1,4,1,1,0,0,1,0
5.175,2,1,1,4,2,2,1,1
5.18,2,3,1,0,4,0,1,1
5.185,2,0,4,3,4,1,0,2
5.19,1,0,0,1,3,1,0,1
5.195,1,5,1,3,2,0,0,3
5.2,2,1,0,0,2,1,2,0
5.205,1,1,3,6,6,2,1,2
5.21,2,3,3,2,3,0,0,1
5.215,1,1,2,0,3,1,0,0
5.22,0,4,4,2,3,2,1,1
5.225,1,2,2,2,3,0,3,2
5.23,2,1,2,4,6,2,2,0
5.235,1,0,2,1,3,0,1,1
5.24,1,1,1,2,0,1,0,1
5.245,1,0,0,2,1,1,1,1
5.25,0,2,0,1,0,3,1,0
5.255,2,4,2,1,1,1,3,2
5.26,1,1,1,1,3,1,1,1
5.265,2,2,1,0,3,2,0,1
5.27,1,2,2,3,1,1,0,0
5.275,0,0,0,1,2,2,0,0
5.28,0,1,4,1,3,2,3,2
5.285,2,2,1,2,2,2,3,0
5.29,3,1,1,2,4,1,1,0
5.295,0,0,0,4,3,1,1,0
5.3,0,1,1,0,2,2,0,2
5.305,1,3,2,1,3,1,1,1
5.31,1,3,3,5,1,1,1,1
5.315,2,0,0,3,2,2,2,0
5.32,1,0,0,2,1,0,0,1
5.325,1,1,2,2,0,1,4,1
5.33,1,1,1,5,5,3,0,3
5.335,0,0,0,0,0,2,1,0
5.34,2,0,2,4,4,1,1,1
5.345,2,2,0,2,1,1,1,2
5.35,1,1,0,3,0,0,1,0
5.355,2,3,1,1,1,2,1,3
5.36,0,1,1,1,2,1,0,2
5.365,1,0,0,2,1,0,1,1
5.37,2,0,3,2,1,1,2,2
5.375,2,2,1,1,3,1,1,1
5.38,2,3,3,1,0,1,0,2
5.385,0,2,0,1,1,0,2,2
5.39,1,2,1,1,1,0,3,1
5.395,1,1,0,0,1,2,1,2
5.4,1,0,1,3,1,2,1,2
5.405,0,1,2,1,1,0,1,0
5.41,1,2,3,5,6,3,1,2
5.415,2,1,2,2,2,1,1,1
5.42,1,1,1,0,0,0,0,1
5.425,2,0,0,2,1,1,1,2
5.43,2,3,1,2,2,2,1,1
5.435,1,1,0,3,1,0,0,1
5.44,1,1,1,3,3,1,1,2
5.445,1,3,1,3,3,3,0,1
5.45,1,1,1,5,7,1,2,0
5.455,2,2,2,1,0,1,1,0
5.46,2,1,1,3,2,1,1,1
5.465,1,0,0,4,5,1,2,1
5.47,1,2,1,2,1,0,3,2
5.475,0,5,5,4,2,3,1,0
5.48,2,6,6,5,4,0,0,1
5.485,0,1,2,2,2,0,0,1
5.49,2,1,0,2,1,3,1,0
5.495,0,0,1,0,2,1,0,0
5.5,2,0,1,3,3,2,2,0
5.505,2,2,3,3,2,1,0,2
5.51,1,1,0,2,1,0,1,1
5.515,2,1,0,2,3,1,1,1
5.52,0,1,1,1,1,3,1,1
5.525,2,1,1,0,1,2,0,1
5.53,0,1,0,4,3,1,2,1
5.535,1,1,2,1,2,0,2,1
5.54,1,1,0,1,0,3,1,1
5.545,2,2,1,3,2,2,1,0
5.55,1,0,0,0,2,3,1,1
5.555,1,0,0,0,1,2,1,1
5.56,3,0,0,0,0,1,2,0
5.565,0,1,0,2,2,0,1,0
5.57,1,1,3,2,1,1,1,0
5.575,1,1,0,0,1,2,0,3
5.58,1,3,3,1,3,2,1,1
5.585,1,1,2,5,3,1,1,0
5.59,1,2,0,5,2,2,1,1
5.595,1,2,3,4,2,1,0,2
5.6,1,0,2,1,1,2,0,2
5.605,0,4,0,3,3,1,2,1
5.61,0,1,1,3,3,2,0,2
5.615,3,2,3,2,2,2,3,2
5.62,0,1,2,1,3,1,1,1
5.625,1,1,2,0,0,0,1,2
5.63,0,3,5,4,5,1,2,1
5.635,3,1,2,1,1,4,2,0
5.64,2,3,1,2,1,1,2,1
5.645,1,2,1,1,1,2,2,2
5.65,0,0,2,1,1,3,1,1
5.655,2,0,4,3,1,1,1,2
5.66,0,2,3,0,2,1,1,1
5.665,1,4,7,8,3,0,0,0
5.67,2,0,0,1,2,1,1,2
5.675,0,2,0,2,1,2,0,2
5.68,1,0,0,1,1,3,0,1
5.685,1,0,1,6,3,1,0,1
5.69,1,1,2,5,6,1,2,2
5.695,0,1,0,2,2,2,1,0
5.7,3,0,2,1,2,2,1,0
5.705,2,2,5,3,3,3,3,0
5.71,1,3,2,2,0,1,1,2
5.715,1,1,1,1,0,1,0,1
5.72,0,0,2,3,4,2,1,2
5.725,1,1,1,0,3,3,1,1
5.73,2,0,2,5,8,2,0,1
5.735,0,4,3,2,0,1,2,1
5.74,1,2,0,0,1,0,1,2
5.745,2,2,1,3,3,1,1,1
5.75,2,4,1,6,6,3,2,1
5.755,0,3,1,1,1,1,1,1
5.76,1,1,1,3,3,1,0,0
5.765,2,0,1,2,3,2,2,3
5.77,0,0,3,2,3,1,0,1
5.775,1,1,2,0,3,0,0,1
5.78,1,0,1,2,3,1,2,3
5.785,0,1,1,1,2,3,1,1
5.79,3,1,2,3,3,1,2,1
5.795,1,2,1,4,2,1,1,1
5.8,0,3,2,1,1,1,1,1
5.805,0,0,0,3,2,2,2,2
5.81,1,2,1,0,1,2,0,1
5.815,1,0,2,6,6,2,1,2
5.82,2,3,3,10,10,1,1,2
5.825,1,6,5,7,1,1,1,1
5.83,1,0,1,0,0,2,0,0
5.835,0,0,1,0,2,0,1,1
5.84,1,1,3,7,4,3,2,1
5.845,2,3,4,4,1,3,1,2
5.85,1,1,1,5,4,1,3,2
5.855,1,1,1,2,0,0,0,0
5.86,1,0,0,5,0,1,1,2
5.865,1,2,2,9,4,1,0,3
5.87,1,1,1,3,2,2,2,0
5.875,2,0,2,1,0,1,1,1
5.88,2,5,3,5,7,2,1,1
5.885,0,2,3,4,7,3,0,0
5.89,2,2,0,1,1,0,3,2
5.895,1,0,2,1,1,2,2,2
5.9,0,1,2,4,2,0,0,1
5.905,1,1,2,1,4,3,0,1
5.91,1,2,1,3,5,2,2,1
5.915,1,1,3,3,0,0,1,1
5.92,1,1,3,2,2,0,1,3
5.925,2,0,0,1,3,3,3,1
5.93,1,1,0,0,1,0,1,0
5.935,0,1,1,3,4,3,2,2
5.94,1,0,0,2,2,1,1,1
5.945,0,3,2,1,1,1,0,2
5.95,2,2,3,1,1,2,0,1
5.955,2,4,2,2,1,2,2,1
5.96,2,0,1,1,0,1,1,0
5.965,1,1,1,0,0,2,2,1
5.97,1,1,1,0,1,1,1,1
5.975,2,1,2,4,1,1,2,1
5.98,2,0,1,1,2,0,1,1
5.985,2,0,2,3,3,1,0,1
5.99,1,1,0,0,1,0,0,0
5.995,0,1,2,3,1,2,2,3
6,0,2,1,2,0,1,1,0
6.005,0,0,0,1,1,2,0,1
6.01,0,1,0,0,1,3,2,3
6.015,0,0,0,1,3,2,1,1
6.02,1,2,2,6,5,3,0,1
6.025,2,2,0,8,10,0,0,3
6.03,2,1,2,2,2,0,2,1
6.035,3,1,1,1,1,2,0,2
6.04,1,1,1,4,1,0,0,0
6.045,2,1,2,0,4,4,0,0
6.05,2,1,1,4,2,0,1,1
6.055,0,1,0,2,2,2,0,1
6.06,3,3,2,2,0,1,2,1
6.065,2,0,1,3,4,1,3,2
6.07,0,0,3,3,3,3,0,1
6.075,1,1,2,1,1,1,2,1
6.08,1,3,3,6,1,2,1,1
6.085,3,1,1,3,2,0,1,2
6.09,1,2,0,3,3,1,2,0
6.095,1,1,1,0,2,2,1,2
6.1,2,0,1,4,3,2,1,1
6.105,1,2,3,0,2,0,1,1
6.11,0,3,0,0,0,1,2,2
6.115,1,0,1,1,2,0,1,0
6.12,2,0,2,2,1,0,2,2
6.125,3,1,3,5,4,1,1,1
6.13,0,1,0,3,1,2,3,1
6.135,2,1,3,5,3,3,2,0
6.14,1,0,1,1,1,2,0,1
6.145,1,2,2,6,6,3,1,1
6.15,3,3,6,6,5,2,1,4
6.155,0,2,1,2,4,0,1,1
6.16,0,1,1,2,2,1,0,0
6.165,1,1,0,0,1,2,2,2
6.17,0,2,0,1,0,0,1,1
6.175,1,2,4,3,3,2,0,1
6.18,1,3,3,2,3,1,0,2
6.185,2,0,3,2,2,0,1,1
6.19,1,1,2,0,2,1,1,0
6.195,0,0,2,4,2,0,1,2
6.2,1,1,1,0,0,1,1,0
6.205,1,4,2,3,3,3,1,2
6.21,1,2,0,2,1,1,2,1
6.215,1,1,2,0,1,2,0,1
6.22,1,1,1,2,4,3,2,3
6.225,1,2,0,1,1,0,0,2
6.23,2,2,4,1,1,2,2,1
6.235,0,1,1,1,2,1,0,2
6.24,1,2,1,0,2,1,1,3
6.245,1,1,0,2,2,3,0,3
6.25,0,0,2,6,3,0,1,2
6.255,2,0,1,1,0,2,2,0
6.26,1,1,3,3,6,2,1,2
6.265,2,0,1,3,4,0,1,2
6.27,0,2,0,5,1,1,3,2
6.275,1,2,3,0,3,0,0,3
6.28,2,1,1,1,3,1,1,0
6.285,1,6,4,1,0,2,1,2
6.29,2,1,1,1,1,1,0,0
6.295,2,3,4,2,2,1,2,2
6.3,2,0,0,0,0,1,0,1
6.305,1,1,1,1,0,2,2,2
6.31,2,2,1,4,2,2,3,2
6.315,0,4,3,2,2,2,1,1
6.32,2,2,2,1,5,2,1,0
6.325,0,1,1,3,2,2,2,0
6.33,0,3,3,2,1,1,1,1
6.335,1,1,1,1,1,2,0,1
6.34,0,1,1,0,1,4,2,3
6.345,0,2,2,3,3,2,1,1
6.35,1,0,2,3,1,3,2,2
6.355,3,2,5,5,3,2,1,2
6.36,1,1,1,2,2,1,2,1
6.365,3,1,1,1,4,1,2,0
6.37,3,2,3,2,3,0,1,0
6.375,0,2,2,3,1,1,2,2
6.38,2,1,3,2,4,1,2,1
6.385,0,0,1,2,0,2,2,1
6.39,0,1,1,2,3,0,1,3
6.395,1,2,1,2,3,1,3,1
6.4,1,2,0,3,2,1,0,2
6.405,0,2,1,10,9,0,1,0
6.41,3,0,1,3,1,1,1,1
6.415,0,0,2,2,1,1,1,0
6.42,1,2,2,1,1,1,0,2
6.425,1,2,2,4,5,3,2,1
6.43,0,1,2,1,1,0,1,2
6.435,0,2,1,4,0,0,0,1
6.44,2,2,2,1,0,0,3,2
6.445,0,1,0,0,3,1,1,2
6.45,0,0,1,3,0,2,2,1
6.455,4,3,3,10,4,1,0,2
6.46,2,3,1,0,0,1,3,1
6.465,1,3,1,1,3,2,1,1
6.47,0,1,4,0,0,1,2,0
6.475,1,1,1,5,1,0,0,0
6.48,2,2,3,3,3,1,1,1
6.485,3,0,1,1,5,2,1,1
6.49,2,0,1,2,0,0,1,0
6.495,2,3,4,3,4,2,1,1
6.5,0,0,1,2,1,1,0,1
6.505,2,0,1,1,1,0,1,0
6.51,2,3,1,1,1,0,1,3
6.515,1,1,3,5,1,2,2,1
6.52,1,1,2,1,5,1,0,1
6.525,1,4,5,3,3,2,1,2
6.53,0,2,1,1,2,3,1,3
6.535,1,0,2,1,3,0,1,1
6.54,1,0,1,3,2,2,1,0
6.545,1,2,1,5,6,2,3,0
6.55,2,1,2,4,5,0,2,1
6.555,1,0,2,5,3,3,2,1
6.56,1,0,0,3,1,1,0,0
6.565,1,1,2,10,7,3,1,1
6.57,0,4,3,0,2,0,0,0
6.575,0,5,4,2,2,0,0,1
6.58,1,2,4,2,4,0,2,3
6.585,0,1,2,2,1,1,0,1
6.59,1,1,1,2,1,2,2,2
6.595,2,1,4,5,3,0,1,0
6.6,1,2,1,2,1,0,1,0
6.605,1,4,4,2,2,1,1,0
6.61,1,1,1,3,1,1,1,1
6.615,0,0,1,1,3,2,0,2
6.62,1,2,3,4,4,1,3,1
6.625,2,2,0,6,5,1,1,1
6.63,2,4,2,6,3,0,2,2
6.635,3,1,0,1,0,1,2,0
6.64,2,1,1,4,1,0,1,2
6.645,2,3,2,0,2,2,2,2
6.65,0,2,1,3,1,2,1,0
6.655,0,1,1,2,1,2,1,2
6.66,2,2,2,3,4,2,1,3
6.665,1,0,0,0,2,1,0,0
6.67,1,1,0,3,1,0,1,1
6.675,1,2,2,1,3,2,1,1
6.68,1,1,1,2,0,1,3,2
6.685,1,1,2,0,2,1,0,1
6.69,3,4,5,2,3,2,1,1
6.695,1,2,2,0,2,2,1,1
6.7,0,1,0,2,0,0,0,1
6.705,1,2,3,0,1,1,1,2
6.71,2,1,2,0,4,1,0,1
6.715,0,0,1,2,1,0,2,1
6.72,2,1,0,2,5,1,1,1
6.725,1,1,2,5,3,2,1,0
6.73,2,0,1,2,7,4,1,0
6.735,2,2,2,6,8,1,0,2
6.74,1,2,3,6,3,0,0,2
6.745,1,0,2,1,1,1,1,2
6.75,0,1,4,2,3,2,2,2
6.755,1,2,1,2,2,2,2,0
6.76,1,2,3,1,1,2,1,2
6.765,1,1,0,0,1,1,0,0
6.77,1,1,1,0,2,1,0,2
6.775,0,3,2,2,2,1,2,1
6.78,1,0,0,1,0,0,1,0
6.785,2,3,3,7,7,3,2,1
6.79,1,1,0,2,4,0,1,2
6.795,0,0,1,2,2,0,1,2
6.8,0,0,1,1,1,2,2,0
6.805,0,1,1,1,1,1,2,1
6.81,2,2,2,2,2,1,3,1
6.815,3,2,0,3,3,1,1,1
6.82,1,1,2,1,1,2,1,1
6.825,2,2,0,1,0,1,1,0
6.83,1,2,5,4,3,1,1,2
6.835,1,2,1,3,2,1,1,2
6.84,2,1,0,5,5,3,0,2
6.845,2,0,2,2,4,1,1,1
6.85,1,4,2,1,0,2,2,3
6.855,0,0,2,2,4,2,1,1
6.86,1,1,2,0,1,1,2,1
6.865,1,1,0,2,0,1,2,2
6.87,1,1,0,3,2,2,1,0
6.875,1,0,1,1,2,3,1,0
6.88,2,2,0,0,1,0,1,1
6.885,0,0,2,1,3,1,0,1
6.89,1,3,0,1,2,0,1,1
6.895,1,0,2,0,0,0,2,0
6.9,1,2,1,0,1,1,2,1
6.905,2,1,1,4,4,3,1,3
6.91,0,1,1,3,2,1,0,1
6.915,0,0,2,0,1,0,0,2
6.92,1,2,5,3,4,2,1,1
6.925,1,3,4,1,2,2,0,2
6.93,2,1,0,1,1,3,0,1
6.935,1,1,1,4,2,1,1,2
6.94,0,2,1,2,3,4,1,3
6.945,1,1,1,3,4,0,2,1
6.95,2,1,2,6,7,2,0,1
6.955,2,1,0,4,4,0,2,1
6.96,1,0,1,1,3,0,1,2
6.965,0,0,1,2,4,1,2,1
6.97,0,2,1,0,0,1,0,0
6.975,1,1,1,1,1,1,2,0
6.98,1,0,3,3,3,0,1,1
6.985,1,1,0,1,1,1,0,1
6.99,1,1,0,1,1,0,1,1
6.995,1,3,5,2,2,2,1,1
7,2,3,3,2,2,1,0,0
7.005,2,1,0,0,2,2,3,1
7.01,2,1,1,3,1,0,2,1
7.015,2,0,1,3,3,2,1,0
7.02,1,0,1,1,1,1,2,1
7.025,2,2,3,1,2,1,1,1
7.03,1,2,0,1,1,1,2,3
7.035,2,2,2,0,1,0,2,1
7.04,1,2,1,3,4,1,1,1
7.045,0,1,0,6,3,2,1,2
7.05,1,2,3,2,1,1,0,0
7.055,0,0,2,0,3,1,1,2
7.06,2,1,2,1,1,3,0,1
7.065,0,2,2,3,2,2,1,1
7.07,2,1,4,1,1,1,0,0
7.075,0,2,3,2,2,1,1,0
7.08,1,1,1,0,2,1,1,1
7.085,2,2,1,1,1,1,2,1
7.09,2,2,3,3,2,2,1,2
7.095,1,0,0,2,1,1,1,0
7.1,0,1,2,1,2,0,2,2
7.105,1,1,2,1,2,1,0,2
7.11,1,1,0,2,1,1,1,1
7.115,1,1,3,1,1,1,0,0
7.12,1,1,1,2,1,1,2,2
7.125,1,1,0,1,2,2,2,1
7.13,1,1,1,3,2,2,1,1
7.135,2,0,2,1,1,1,1,2
7.14,0,2,2,1,1,1,1,0
7.145,0,1,0,1,3,0,0,2
7.15,1,2,3,4,1,2,1,0
7.155,1,2,3,3,1,3,2,1
7.16,2,2,3,2,1,1,1,0
7.165,1,1,0,4,1,0,0,0
7.17,0,3,3,12,6,2,2,1
7.175,0,0,0,0,2,1,1,2
7.18,3,1,2,1,2,4,3,1
7.185,0,0,1,3,6,1,2,1
7.19,0,1,1,5,0,2,0,1
7.195,0,1,1,2,1,0,2,0
7.2,2,1,0,3,5,3,1,2
7.205,3,4,3,4,4,2,2,1
7.21,1,3,1,1,1,1,1,0
7.215,1,0,2,3,0,0,1,1
7.22,0,0,0,2,2,1,0,0
7.225,0,1,1,1,2,1,0,1
7.23,1,2,2,0,4,1,1,1
7.235,1,3,1,1,4,3,2,0
7.24,2,2,1,0,0,2,0,1
7.245,0,2,2,3,3,1,0,0
7.25,1,0,1,0,2,2,2,1
7.255,4,2,2,0,1,1,1,2
7.26,2,1,0,2,1,0,0,0
7.265,2,1,3,1,5,1,1,1
7.27,1,0,2,2,1,2,1,0
7.275,1,1,2,2,1,2,1,1
7.28,0,1,1,1,2,3,2,2
7.285,1,3,3,6,2,1,0,2
7.29,2,0,3,0,2,0,1,1
7.295,0,0,1,1,4,1,1,1
7.3,2,3,2,4,0,1,2,2
7.305,0,1,0,0,1,2,1,2
7.31,0,0,1,1,1,1,1,1
7.315,2,0,1,1,2,1,2,0
7.32,2,2,2,4,2,1,1,1
7.325,3,0,1,5,3,3,2,2
7.33,0,2,1,1,5,1,2,1
7.335,0,2,0,6,3,1,1,1
7.34,0,1,0,2,0,1,1,1
7.345,2,3,3,5,2,1,0,0
7.35,3,2,2,3,3,1,1,2
7.355,1,0,1,1,0,2,0,0
7.36,0,0,1,4,1,0,2,1
7.365,2,1,1,1,0,1,1,1
7.37,1,0,1,2,0,1,1,1
7.375,1,5,4,5,4,1,1,1
7.38,1,1,1,3,4,2,1,0
7.385,0,2,2,3,2,0,1,2
7.39,1,1,3,6,3,2,1,2
7.395,3,2,1,1,1,1,2,1
7.4,1,3,3,0,0,0,1,1
7.405,1,1,1,0,0,1,3,2
7.41,0,1,1,2,2,5,2,2
7.415,1,0,2,0,0,1,1,2
7.42,2,1,0,1,1,1,2,2
7.425,1,2,2,3,2,0,0,1
7.43,0,3,1,3,1,2,1,2
7.435,0,0,1,3,3,3,0,0
7.44,0,0,1,7,5,0,2,1
7.445,1,0,2,5,5,1,2,1
7.45,1,1,2,0,1,1,1,0
7.455,0,1,0,0,0,1,1,1
7.46,0,1,3,5,6,2,2,2
7.465,0,4,2,2,1,2,1,1
7.47,1,1,0,1,2,1,0,0
7.475,1,1,1,0,1,0,1,1
7.48,1,2,2,4,3,2,1,1
7.485,1,1,1,1,1,0,1,1
7.49,1,1,0,0,1,0,1,1
7.495,1,1,3,1,0,0,1,2
7.5,2,3,0,1,1,3,1,1
7.505,1,2,1,3,3,2,1,0
7.51,1,0,0,1,1,0,1,2
7.515,0,0,1,2,2,2,1,0
7.52,2,2,2,2,1,1,2,1
7.525,1,1,3,2,1,1,3,1
7.53,2,2,1,1,2,0,1,0
7.535,3,1,1,4,9,4,1,1
7.54,0,0,1,6,10,4,1,0
7.545,0,0,0,0,0,3,3,1
7.55,1,0,1,2,2,1,2,0
7.555,1,3,2,0,2,1,1,1
7.56,1,1,1,3,5,4,1,0
7.565,2,1,3,1,3,0,3,2
7.57,0,2,1,1,0,0,2,1
7.575,1,2,0,1,0,1,2,1
7.58,1,2,2,4,5,1,0,1
7.585,3,0,3,3,2,1,1,2
7.59,1,1,3,0,4,1,1,3
7.595,2,3,5,10,4,2,3,2
7.6,2,3,2,5,4,1,1,1
7.605,1,1,1,1,2,0,0,1
7.61,1,1,4,3,0,0,2,2
7.615,0,2,0,5,4,1,0,1
7.62,1,2,1,2,7,3,1,1
7.625,3,3,2,0,3,0,2,1
7.63,2,2,0,4,1,0,1,2
7.635,2,1,1,3,1,1,1,2
7.64,1,1,1,4,6,1,3,1
7.645,1,1,3,0,1,0,1,3
7.65,2,3,2,1,1,2,1,0
7.655,0,0,1,0,1,1,0,2
7.66,2,0,1,2,0,3,0,0
7.665,0,1,2,2,2,2,1,2
7.67,2,1,3,2,2,0,2,2
7.675,1,2,1,0,2,1,0,0
7.68,1,2,1,2,0,0,1,2
7.685,2,0,1,3,5,4,1,0
7.69,0,1,1,1,1,2,2,1
7.695,3,3,1,1,1,0,2,2
7.7,3,1,0,2,2,1,2,2
7.705,1,1,1,3,1,1,0,1
7.71,1,1,2,2,6,2,2,0
7.715,1,1,3,2,4,2,2,1
7.72,1,0,3,6,7,3,0,0
7.725,2,2,2,3,4,1,2,1
7.73,2,1,2,1,0,2,1,1
7.735,1,1,0,0,1,1,2,0
7.74,3,1,3,2,5,1,2,0
7.745,1,1,2,0,1,1,1,2
7.75,0,1,0,0,0,0,1,1
7.755,1,0,0,2,0,1,0,1
7.76,1,1,4,2,2,1,2,0
7.765,1,0,0,0,0,1,1,0
7.77,2,2,2,1,2,3,2,1
7.775,1,5,3,2,2,2,2,3
7.78,2,1,1,1,2,2,2,2
7.785,1,2,2,4,2,0,0,1
7.79,1,2,1,3,2,0,0,1
7.795,1,1,1,0,0,2,1,2
7.8,1,2,3,2,1,2,1,1
7.805,1,0,1,5,8,4,2,1
7.81,1,2,2,8,6,0,0,0
7.815,3,2,1,3,1,2,0,0
7.82,1,4,4,7,4,1,2,1
7.825,0,2,2,3,7,3,2,2
7.83,1,1,0,3,2,1,0,1
7.835,2,3,2,0,1,0,0,1
7.84,0,2,1,4,0,1,1,1
7.845,1,1,1,1,0,0,1,1
7.85,1,0,0,2,4,3,3,2
7.855,1,0,0,2,2,0,1,2
7.86,2,0,2,3,4,3,1,2
7.865,2,1,1,1,1,1,0,1
7.87,1,1,2,4,2,2,2,1
7.875,2,1,1,2,0,0,1,1
7.88,2,1,1,2,1,1,0,2
7.885,1,1,2,1,0,2,0,1
7.89,3,3,2,1,2,0,1,1
7.895,0,0,1,1,4,1,0,1
7.9,1,0,0,1,1,1,1,1
7.905,2,6,4,1,2,1,2,1
7.91,1,1,3,3,5,2,1,0
7.915,1,1,3,5,1,1,2,2
7.92,1,1,2,0,0,0,1,0
7.925,0,1,2,2,2,2,0,1
7.93,0,3,2,4,0,1,1,2
7.935,1,1,1,3,1,1,2,3
7.94,1,0,1,2,4,1,1,1
7.945,0,0,3,3,2,0,1,1
7.95,1,3,6,7,4,1,0,1
7.955,1,2,2,1,0,3,0,0
7.96,1,6,4,5,4,2,2,0
7.965,3,5,1,5,4,1,1,2
7.97,3,2,0,1,2,2,1,1
7.975,1,0,1,0,0,1,1,1
7.98,0,2,4,1,2,1,1,2
7.985,2,1,4,12,7,1,2,1
7.99,1,2,2,2,0,2,1,3
7.995,2,3,4,5,1,0,1,1
8,4,0,1,1,1,2,2,0
8.005,0,1,3,2,2,1,0,1
8.01,1,1,1,2,3,2,1,1
8.015,1,2,1,2,2,1,0,0
8.02,0,1,3,5,2,2,0,0
8.025,1,1,1,2,2,0,0,1
8.03,1,1,1,0,1,1,2,2
8.035,2,2,0,1,1,1,1,1
8.04,1,0,0,3,1,1,0,1
8.045,1,1,1,1,1,2,1,1
8.05,0,3,1,1,4,1,1,1
8.055,1,4,3,4,7,3,3,2
8.06,3,1,0,2,2,0,1,3
8.065,1,0,0,0,0,1,3,2
8.07,2,1,3,5,2,0,2,1
8.075,1,2,0,1,1,1,1,4
8.08,1,1,1,1,4,1,0,1
8.085,1,2,1,3,6,0,0,0
8.09,1,3,0,2,2,0,1,0
8.095,1,1,2,2,4,1,2,2
8.1,2,2,1,0,1,2,0,0
8.105,3,2,1,2,2,2,2,0
8.11,1,1,3,6,4,2,0,2
8.115,2,1,0,6,3,1,2,0
8.12,1,0,1,0,1,1,2,1
8.125,1,1,1,1,1,1,1,1
