14.88,1,1,1,5,4,2,1,3
14.885,2,2,1,0,0,1,1,1
14.89,4,1,3,3,2,2,0,2
14.895,0,1,1,0,0,1,2,1
14.9,1,1,2,2,2,1,2,1
14.905,2,1,0,1,2,2,1,0
14.91,3,2,0,1,2,1,2,2
14.915,1,2,2,2,2,1,0,1
14.92,3,1,1,0,1,1,0,0
14.925,2,3,1,5,3,2,1,2
14.93,0,1,0,2,0,1,1,0
14.935,2,1,1,1,1,2,0,1
14.94,1,1,1,6,1,0,3,2
14.945,1,2,0,4,2,1,1,1
14.95,0,1,0,3,5,1,2,1
14.955,1,1,1,0,3,2,1,1
14.96,0,2,1,2,1,0,0,0
14.965,0,0,0,2,1,1,1,1
14.97,0,0,1,0,2,1,1,1
14.975,1,1,2,0,0,1,2,0
14.98,0,2,1,1,2,2,1,1
14.985,0,3,2,2,2,1,1,0
14.99,1,1,1,1,0,1,0,1
14.995,1,1,4,1,0,2,0,0
15,1,1,0,1,1,0,0,1
15.005,1,1,1,1,3,1,0,1
15.01,2,1,3,0,2,0,2,1
15.015,0,0,2,2,1,2,2,1
15.02,1,2,1,0,2,0,1,2
15.025,2,2,2,0,1,1,0,0
15.03,3,0,1,2,2,2,1,2
15.035,2,1,1,1,1,1,2,2
15.04,1,1,1,3,1,2,0,1
15.045,1,0,0,1,2,2,3,0
15.05,0,3,1,1,1,0,0,1
15.055,0,1,2,3,3,3,2,2
15.06,0,0,1,1,3,0,0,1
15.065,2,0,1,1,1,1,1,1
15.07,1,1,2,1,1,1,0,1
15.075,2,2,1,5,4,1,2,1
15.08,2,2,1,3,2,2,1,0
15.085,1,0,1,1,3,3,3,1
15.09,2,0,0,1,2,1,0,0
15.095,1,1,1,0,0,2,0,1
15.1,1,2,2,0,2,3,2,1
15.105,0,0,2,1,1,0,2,3
15.11,1,1,0,5,6,2,0,1
15.115,1,1,1,1,0,3,1,0
15.12,1,2,0,1,0,0,0,1
15.125,0,1,1,0,2,3,0,1
15.13,1,0,1,2,0,0,1,2
15.135,1,1,0,2,1,1,1,1
15.14,3,1,3,0,2,1,2,1
15.145,0,0,3,2,1,0,1,2
15.15,1,2,1,2,3,3,2,0
15.155,1,1,1,3,2,1,1,1
15.16,2,3,2,1,2,3,1,1
15.165,2,2,0,1,2,0,2,2
15.17,2,3,2,3,4,3,2,1
15.175,0,1,2,2,4,1,0,1
15.18,1,0,1,3,0,1,1,1
15.185,3,1,1,1,1,1,2,2
15.19,0,0,0,0,3,1,2,1
15.195,0,1,2,1,4,1,1,0
15.2,1,3,0,1,0,1,0,1
15.205,0,2,2,2,0,2,0,1
15.21,0,1,2,1,2,1,1,1
15.215,0,2,1,1,3,3,0,2
15.22,1,1,2,3,3,1,2,1
15.225,0,1,2,2,2,0,3,1
15.23,1,1,2,1,1,1,1,3
15.235,1,2,0,2,2,1,1,0
15.24,2,2,2,2,1,1,0,3
15.245,1,1,1,4,3,1,1,2
15.25,1,1,2,3,0,1,2,0
15.255,2,2,0,1,0,0,0,0
15.26,0,2,2,1,1,1,2,2
15.265,1,0,0,0,0,2,1,1
15.27,1,1,1,1,1,3,2,1
15.275,2,3,0,0,3,2,1,2
15.28,1,0,1,1,1,1,2,0
15.285,2,1,0,1,0,0,0,1
15.29,1,2,1,2,0,0,0,1
15.295,0,0,1,3,2,4,2,2
15.3,0,0,1,1,0,0,0,2
15.305,0,0,2,2,1,2,0,0
15.31,1,1,2,1,3,1,1,1
15.315,1,2,1,2,3,1,2,1
15.32,0,1,1,3,1,4,1,1
15.325,0,3,1,1,2,0,1,2
15.33,1,0,0,2,2,1,2,1
15.335,2,1,3,0,1,2,2,0
15.34,0,0,2,3,4,1,0,2
15.345,3,2,3,3,2,2,0,1
15.35,2,1,1,1,1,0,1,0
15.355,1,0,0,2,1,0,0,1
15.36,1,1,0,2,0,0,1,1
15.365,1,0,2,1,1,1,1,1
15.37,3,3,2,0,0,3,2,1
15.375,1,0,1,2,4,1,0,2
15.38,1,1,1,1,1,0,2,2
15.385,0,1,1,1,1,0,1,0
15.39,1,1,1,2,1,1,1,3
15.395,2,3,2,3,5,3,0,0
15.4,1,0,0,1,0,0,3,0
15.405,3,2,2,3,2,1,1,2
15.41,1,2,1,2,0,1,2,2
15.415,0,1,0,2,5,3,1,0
15.42,1,1,1,1,1,0,0,2
15.425,1,2,1,3,0,2,2,0
15.43,0,0,2,1,3,1,1,1
15.435,2,2,2,3,3,2,1,1
15.44,0,2,3,4,1,1,0,1
15.445,1,1,0,2,1,2,1,1
15.45,2,0,0,2,2,2,1,2
15.455,0,1,0,1,1,2,1,3
15.46,1,1,1,1,2,2,0,0
15.465,3,1,1,1,1,0,1,2
15.47,0,1,1,3,4,0,1,1
15.475,1,2,1,0,1,1,2,1
15.48,3,2,1,2,3,3,1,0
15.485,0,1,1,4,3,1,1,2
15.49,1,0,2,0,0,1,1,0
15.495,0,1,1,0,2,1,0,1
15.5,2,2,1,1,4,2,1,0
15.505,1,1,1,1,2,1,2,1
15.51,2,1,2,6,1,1,3,3
15.515,0,1,2,4,2,2,2,2
15.52,1,1,0,1,1,3,3,1
15.525,2,2,0,2,2,1,1,1
15.53,1,1,2,4,3,2,1,1
15.535,2,2,3,3,1,0,0,1
15.54,1,1,2,1,1,1,0,1
15.545,1,2,2,1,1,1,2,1
15.55,1,2,1,2,2,1,2,1
15.555,1,1,1,1,2,1,3,1
15.56,2,0,0,0,2,3,1,1
15.565,1,1,1,1,2,2,0,1
15.57,1,0,2,5,4,0,0,2
15.575,1,2,2,3,1,1,2,2
15.58,1,2,1,1,0,1,2,2
15.585,0,0,1,1,1,0,0,3
15.59,3,2,2,2,4,2,0,1
15.595,1,1,0,1,2,1,0,0
15.6,1,1,2,1,2,0,0,0
15.605,3,2,3,2,1,1,1,0
15.61,0,0,1,2,2,0,3,3
15.615,1,2,0,1,2,2,2,2
15.62,3,4,0,3,1,2,0,1
15.625,1,1,1,6,3,0,2,2
15.63,1,1,2,2,0,3,1,1
15.635,1,2,2,1,1,2,2,1
15.64,1,1,0,2,1,1,2,3
15.645,1,1,0,1,3,1,0,1
15.65,0,2,1,0,3,1,0,1
15.655,1,0,0,2,2,1,1,1
15.66,0,1,1,3,0,0,1,1
15.665,1,3,2,0,0,1,1,1
15.67,1,0,1,1,2,1,1,2
15.675,2,0,3,0,2,0,0,1
15.68,0,1,1,5,4,0,1,1
15.685,1,0,1,3,1,3,2,1
15.69,1,2,1,2,3,1,0,1
15.695,1,1,0,3,3,3,0,0
15.7,2,1,3,4,4,2,1,1
15.705,1,2,2,2,1,1,0,3
15.71,0,2,2,3,3,3,1,0
15.715,1,1,1,1,1,3,2,2
15.72,1,0,1,1,2,2,3,2
15.725,1,1,1,1,1,1,2,1
15.73,1,2,1,4,3,0,1,0
15.735,2,1,1,1,1,1,1,2
15.74,1,4,3,1,1,1,0,0
15.745,0,0,1,2,1,2,2,1
15.75,1,0,1,2,3,0,3,2
15.755,0,1,2,0,3,0,2,1
15.76,2,0,1,0,0,3,1,1
15.765,0,1,1,3,2,1,2,1
15.77,1,1,1,0,1,2,0,1
15.775,2,2,0,4,5,3,0,2
15.78,3,0,2,1,3,1,0,2
15.785,1,0,1,0,2,0,1,1
15.79,1,0,1,2,0,2,1,0
15.795,2,1,2,0,3,2,2,1
15.8,0,3,2,4,1,2,1,1
15.805,1,1,3,8,5,1,1,1
15.81,0,2,2,1,1,1,1,1
15.815,2,0,1,5,3,1,2,1
15.82,1,2,0,0,3,3,1,0
15.825,0,2,1,1,0,2,1,3
15.83,0,2,1,0,1,1,1,1
15.835,3,1,0,4,3,2,2,0
15.84,2,0,0,3,2,1,1,0
15.845,2,1,2,2,1,0,1,1
15.85,2,2,1,0,0,3,2,1
15.855,0,1,1,1,3,0,0,0
15.86,0,1,1,4,0,1,1,1
15.865,1,1,1,0,0,3,2,1
15.87,1,0,2,3,3,3,0,1
15.875,2,2,2,3,3,1,0,2
15.88,1,3,1,2,1,0,1,3
15.885,1,2,0,1,2,2,0,1
15.89,2,1,2,2,3,1,0,0
15.895,1,0,1,5,5,4,2,2
15.9,2,1,2,0,1,1,1,1
15.905,1,2,1,2,1,0,1,1
15.91,0,2,1,0,2,2,1,2
15.915,1,0,2,3,5,4,1,2
15.92,1,1,1,1,3,2,0,2
15.925,1,0,0,0,1,2,1,0
15.93,2,1,2,3,1,0,2,1
15.935,1,2,1,0,3,1,1,1
15.94,1,0,1,2,3,2,0,3
15.945,2,1,1,1,1,1,2,1
15.95,2,1,1,1,2,0,1,0
15.955,0,3,1,2,1,1,1,1
15.96,0,2,2,5,4,3,2,0
15.965,0,1,1,1,1,1,0,0
15.97,1,1,2,2,3,1,1,0
15.975,3,2,1,0,2,1,1,0
15.98,2,1,0,1,0,1,1,1
15.985,2,2,1,4,3,2,2,2
15.99,0,2,2,3,1,0,1,1
15.995,1,0,1,1,1,3,0,0
16,1,1,3,5,2,0,1,1
16.005,4,2,2,0,4,1,1,0
16.01,9,6,2,1,3,2,2,1
16.015,3,0,1,0,1,3,1,3
16.02,1,3,2,1,2,1,0,0
16.025,0,0,2,1,1,0,0,1
16.03,3,3,3,0,2,1,3,4
16.035,2,2,1,1,0,2,0,0
16.04,3,2,2,0,4,4,5,2
16.045,1,1,4,3,1,0,2,1
16.05,0,2,1,5,5,3,2,0
16.055,1,0,1,1,2,1,1,3
16.06,1,1,1,1,2,2,2,1
16.065,1,1,3,2,1,3,2,0
16.07,1,2,0,0,1,1,2,1
16.075,1,2,2,2,0,2,1,1
16.08,1,1,0,0,1,1,2,1
16.085,1,3,3,3,2,0,0,1
16.09,1,0,2,0,1,2,2,2
16.095,1,2,1,0,1,1,2,2
16.1,2,2,1,1,2,2,0,0
16.105,3,2,1,3,3,1,2,3
16.11,1,1,0,2,2,1,0,1
16.115,0,1,1,2,3,0,1,1
16.12,2,1,2,5,4,0,1,1
16.125,0,0,1,2,3,3,1,2
16.13,2,2,1,2,0,0,1,0
16.135,7,4,2,4,4,0,1,2
16.14,1,3,1,0,1,1,2,1
16.145,3,1,0,0,0,0,0,0
16.15,2,1,0,1,0,0,1,2
16.155,3,0,1,0,3,1,1,0
16.16,2,3,2,3,2,1,1,2
16.165,2,3,2,0,1,2,1,1
16.17,1,2,2,0,1,2,2,2
16.175,1,0,1,2,2,1,1,0
16.18,0,2,0,2,1,2,1,1
16.185,1,2,1,2,1,1,0,0
16.19,1,1,1,2,5,2,1,2
16.195,1,0,1,1,0,1,2,1
16.2,1,1,1,0,3,0,2,2
16.205,2,1,2,2,2,2,1,0
16.21,2,3,2,2,1,2,1,0
16.215,1,1,1,2,2,1,2,0
16.22,1,2,1,2,3,2,1,0
16.225,4,0,1,0,2,1,2,1
16.23,2,1,0,1,0,1,2,2
16.235,1,1,1,1,0,1,2,2
16.24,0,2,2,3,2,0,1,2
16.245,1,2,1,5,3,2,2,0
16.25,1,1,1,3,1,2,2,0
16.255,0,2,2,5,3,0,1,2
16.26,2,1,2,1,1,2,1,0
16.265,1,2,2,0,2,2,2,1
16.27,1,1,2,5,3,2,0,2
16.275,1,1,1,2,3,1,1,1
16.28,2,1,2,1,1,1,2,1
16.285,1,2,2,3,3,1,1,1
16.29,2,1,2,2,1,0,1,2
16.295,0,1,1,4,4,0,1,1
16.3,2,0,1,3,1,1,1,0
16.305,1,0,2,1,3,1,2,2
16.31,1,0,0,2,5,3,0,1
16.315,0,1,3,2,2,1,0,0
16.32,2,1,1,0,0,1,2,0
16.325,3,2,2,1,0,0,1,1
16.33,0,2,1,0,2,1,0,1
16.335,2,2,0,2,4,2,1,2
16.34,3,0,0,3,2,2,2,1
16.345,1,2,2,5,4,1,2,1
16.35,0,1,4,3,1,0,1,0
16.355,2,0,1,3,3,2,1,1
16.36,1,3,1,2,0,3,2,3
16.365,0,2,1,2,1,0,1,1
16.37,2,1,0,3,2,0,0,1
16.375,6,2,1,0,1,1,2,0
16.38,8,6,3,1,2,2,1,1
16.385,4,2,2,5,3,2,0,3
16.39,3,1,1,2,0,2,2,2
16.395,0,2,1,4,5,1,2,2
16.4,3,1,1,2,0,1,2,1
16.405,0,2,1,2,2,3,1,0
16.41,1,2,2,0,5,3,1,1
16.415,2,3,3,4,2,3,0,2
16.42,1,1,1,2,4,3,2,2
16.425,2,0,1,0,1,2,2,1
16.43,0,1,1,8,6,1,2,2
16.435,1,2,5,11,10,1,0,2
16.44,1,2,0,4,6,2,1,1
16.445,2,1,2,3,3,2,1,0
16.45,4,5,3,4,1,0,2,2
16.455,2,1,2,6,2,2,1,3
16.46,2,0,0,0,0,1,1,0
16.465,0,2,2,1,1,3,2,1
16.47,1,1,0,0,2,1,3,1
16.475,3,2,1,0,1,1,0,0
16.48,1,1,4,3,3,0,0,1
16.485,2,3,1,2,2,1,0,0
16.49,3,1,1,4,8,1,3,1
16.495,6,1,3,6,11,2,1,1
16.5,4,1,2,5,3,2,2,2
16.505,0,2,4,4,3,4,1,1
16.51,2,4,3,10,9,3,0,1
16.515,0,1,2,0,3,4,2,3
16.52,2,1,0,2,3,1,2,1
16.525,0,2,1,6,1,2,2,2
16.53,2,7,7,7,2,1,0,1
16.535,5,18,23,20,14,5,2,3
16.54,0,2,4,8,5,2,1,2
16.545,1,8,3,3,5,3,2,1
16.55,1,10,8,5,3,4,0,1
16.555,0,8,2,1,1,1,0,1
16.56,6,3,3,3,6,3,1,1
16.565,1,1,7,13,8,4,3,3
16.57,2,5,6,3,4,4,1,1
16.575,2,1,1,6,7,2,0,1
16.58,6,0,1,1,2,2,1,1
16.585,1,14,12,13,12,2,1,1
16.59,8,9,7,3,1,3,1,4
16.595,2,1,0,1,6,4,4,3
16.6,1,2,1,8,5,3,2,2
16.605,0,2,1,9,8,0,0,1
16.61,2,2,0,7,6,4,2,1
16.615,10,3,2,3,1,2,1,5
16.62,7,5,8,2,2,1,1,1
16.625,6,2,1,3,0,2,4,6
16.63,9,4,1,6,3,0,1,1
16.635,0,2,3,5,1,2,1,3
16.64,4,0,2,9,10,4,5,9
16.645,2,12,11,2,2,4,1,1
16.65,6,15,9,4,0,0,1,2
16.655,4,2,7,3,1,1,1,0
16.66,3,3,3,6,1,0,2,3
16.665,1,5,0,1,2,4,3,1
16.67,5,9,4,0,5,6,5,6
16.675,12,7,2,4,6,2,1,1
16.68,2,3,4,17,8,3,3,3
16.685,4,14,14,7,7,2,4,5
16.69,6,26,18,4,4,1,0,1
16.695,1,4,3,12,13,7,5,4
16.7,4,6,2,5,1,1,4,7
16.705,5,8,4,9,6,0,1,0
16.71,1,9,5,0,0,4,1,0
16.715,3,8,8,7,4,1,1,0
16.72,3,1,2,6,2,4,0,0
16.725,1,2,17,9,3,1,2,3
16.73,3,10,20,3,6,5,1,1
16.735,1,6,4,0,4,3,1,1
16.74,5,2,5,8,2,4,2,0
16.745,7,6,10,2,3,5,0,3
16.75,3,5,6,1,1,2,1,1
16.755,1,3,5,4,6,2,1,1
16.76,0,0,1,4,6,0,0,1
16.765,2,2,10,9,3,3,2,4
16.77,1,5,25,12,3,0,1,0
16.775,4,1,2,1,2,1,1,2
16.78,1,1,8,2,0,1,1,0
16.785,0,7,4,5,7,3,2,1
16.79,2,2,9,9,4,2,0,1
16.795,0,1,7,2,2,3,4,6
16.8,4,2,5,12,1,4,3,5
16.805,4,1,0,6,7,2,0,1
16.81,1,6,1,7,4,2,1,0
16.815,6,9,3,1,4,6,2,2
16.82,4,9,4,3,6,4,3,1
16.825,4,9,7,3,1,3,1,2
16.83,5,6,18,6,3,2,1,3
16.835,1,1,4,10,10,5,2,1
16.84,0,0,10,17,6,2,1,0
16.845,1,0,0,9,5,1,0,0
16.85,1,3,8,12,1,3,2,2
16.855,2,3,1,28,3,1,1,2
16.86,10,3,22,25,4,1,0,1
16.865,16,0,21,1,7,1,2,2
16.87,10,16,59,65,13,5,3,7
16.875,28,19,74,26,20,9,8,18
16.88,48,36,66,70,30,12,5,12
16.885,65,1,11,31,1,1,1,28
16.89,24,1,17,73,11,3,4,1
16.895,15,5,12,84,5,2,4,3
16.9,16,30,86,119,25,12,6,6
16.905,16,29,81,80,34,13,8,6
16.91,34,0,18,34,10,0,0,3
16.915,25,12,30,36,11,2,2,2
16.92,14,0,7,25,0,4,4,10
16.925,58,18,61,69,23,9,2,13
16.93,49,3,36,53,5,2,0,8
16.935,11,2,25,16,4,0,3,15
16.94,17,0,8,36,5,3,4,5
16.945,30,21,72,49,18,5,3,10
16.95,41,13,89,72,19,6,3,3
16.955,47,1,48,60,1,3,5,9
16.96,24,2,18,2,5,2,1,3
16.965,10,10,0,14,1,3,0,1
16.97,14,15,35,25,9,5,2,1
16.975,7,5,8,68,3,4,2,1
16.98,10,6,29,77,5,0,1,3
16.985,21,6,22,25,5,0,0,5
16.99,23,13,15,57,10,6,2,7
16.995,3,9,29,46,5,4,1,0
17,14,16,23,4,1,2,1,1
17.005,5,13,35,23,1,4,4,4
17.01,27,2,14,55,12,4,0,3
17.015,21,21,61,103,22,7,4,8
17.02,24,7,1,8,2,2,0,3
17.025,17,5,23,8,1,1,1,3
17.03,6,0,11,23,3,1,3,0
17.035,9,1,4,3,1,1,1,0
17.04,11,9,15,18,4,3,0,6
17.045,40,14,46,37,10,5,2,5
17.05,15,6,16,29,2,1,3,3
17.055,16,5,15,24,14,6,3,2
17.06,12,9,11,56,14,7,5,3
17.065,9,3,4,43,7,2,1,1
17.07,1,6,17,21,0,0,0,0
17.075,3,5,50,77,14,2,2,1
17.08,17,10,31,59,14,5,5,6
17.085,9,3,3,1,1,0,1,1
17.09,3,4,1,7,2,3,1,0
17.095,6,5,1,3,9,3,2,0
17.1,15,0,2,15,6,2,0,2
17.105,3,4,4,14,6,1,2,1
17.11,5,2,21,48,9,2,1,1
17.115,8,2,7,21,6,0,0,2
17.12,3,6,2,0,6,4,1,1
17.125,3,8,12,51,7,0,3,1
17.13,2,4,0,18,8,1,1,2
17.135,6,11,13,24,8,5,3,2
17.14,8,14,27,2,3,3,0,2
17.145,9,8,11,2,12,7,5,8
17.15,4,8,4,18,6,3,2,1
17.155,1,8,36,33,8,2,1,1
17.16,5,4,11,12,1,3,1,2
17.165,4,6,24,16,4,3,1,1
17.17,7,1,21,17,7,5,4,2
17.175,3,2,3,4,1,0,1,2
17.18,7,3,15,20,0,3,2,3
17.185,12,2,16,41,6,4,2,5
17.19,9,3,13,27,8,6,2,3
17.195,3,7,2,5,0,3,2,3
17.2,7,1,2,9,3,1,1,4
17.205,9,11,5,8,3,1,1,4
17.21,5,10,3,12,0,1,1,0
17.215,5,3,4,23,6,3,1,2
17.22,8,3,0,29,7,4,2,4
17.225,10,4,19,7,3,1,1,2
17.23,18,8,37,52,9,1,0,1
17.235,1,8,51,101,19,5,5,1
17.24,19,3,4,7,3,0,2,6
17.245,17,9,7,25,7,6,4,4
17.25,3,2,18,21,1,0,1,0
17.255,1,2,14,39,5,0,1,1
17.26,8,2,5,3,3,2,0,4
17.265,3,3,6,14,9,6,5,7
17.27,10,2,17,27,6,3,2,5
17.275,23,8,14,10,5,3,1,7
17.28,8,13,37,3,12,6,4,3
17.285,0,5,9,4,6,2,2,1
17.29,5,7,16,27,8,3,3,1
17.295,11,0,25,28,2,3,2,0
17.3,4,2,3,6,3,2,0,2
17.305,4,0,13,20,3,1,1,0
17.31,0,8,16,2,2,0,1,0
17.315,6,2,1,8,2,2,1,0
17.32,8,7,3,41,4,1,2,2
17.325,3,0,5,19,2,3,3,3
17.33,1,0,2,3,2,1,0,0
17.335,30,3,2,11,6,3,1,0
17.34,25,5,38,59,7,2,0,1
17.345,13,7,30,53,7,6,5,1
17.35,49,4,1,5,3,0,1,1
17.355,3,5,16,5,9,5,2,1
17.36,13,5,25,11,6,1,1,2
17.365,3,1,5,1,3,1,0,3
17.37,8,1,11,23,1,0,2,0
17.375,9,2,17,21,3,1,0,1
17.38,10,6,13,24,7,1,1,2
17.385,9,2,5,1,3,2,1,2
17.39,8,0,15,61,8,0,1,2
17.395,5,1,26,48,10,2,3,0
17.4,6,7,29,48,14,6,3,4
17.405,3,6,2,5,0,1,0,0
17.41,0,7,5,22,2,1,1,3
17.415,8,3,25,50,2,0,2,1
17.42,9,5,15,9,2,0,3,0
17.425,1,4,2,16,4,4,0,1
17.43,5,8,21,45,13,6,4,3
17.435,7,1,7,23,3,0,1,1
17.44,6,2,9,16,2,1,0,3
17.445,7,1,14,27,2,1,1,1
17.45,7,3,3,4,3,0,3,1
17.455,5,6,4,23,9,2,0,0
17.46,3,4,2,0,1,1,0,0
17.465,4,1,22,31,1,2,0,0
17.47,0,4,33,55,11,6,3,3
17.475,4,6,8,21,5,5,1,1
17.48,1,4,0,7,4,0,1,2
17.485,3,4,6,4,2,4,1,1
17.49,9,2,7,15,0,1,0,0
17.495,1,7,16,16,3,1,3,2
17.5,0,11,6,4,2,1,1,3
17.505,2,13,8,5,6,4,3,4
17.51,1,16,12,27,4,1,1,3
17.515,19,12,0,1,7,2,0,5
17.52,4,5,4,4,0,2,0,2
17.525,3,4,8,22,2,4,1,0
17.53,8,1,3,4,3,5,2,2
17.535,10,12,12,12,9,3,1,0
17.54,2,15,10,10,4,2,1,2
17.545,7,0,2,1,5,1,1,1
17.55,16,6,5,8,7,3,0,1
17.555,9,19,4,5,3,3,4,5
17.56,10,9,3,9,7,1,1,3
17.565,3,1,4,8,5,2,1,3
17.57,0,5,1,11,0,1,1,1
17.575,8,1,4,1,3,0,1,3
17.58,12,1,0,2,0,0,3,0
17.585,5,13,12,1,12,5,2,2
17.59,10,11,4,20,6,1,3,4
17.595,6,14,8,12,6,5,0,1
17.6,4,5,3,10,1,0,0,3
17.605,4,2,2,1,1,1,1,0
17.61,10,11,5,3,1,1,1,1
17.615,16,1,5,15,1,1,4,3
17.62,19,5,0,10,3,2,2,1
17.625,1,7,7,9,4,5,1,1
17.63,2,18,5,1,3,4,1,3
17.635,14,6,5,11,8,4,2,1
17.64,2,11,21,21,4,2,1,0
17.645,10,8,24,29,8,3,3,3
17.65,2,5,1,1,4,2,2,2
17.655,2,2,2,11,4,3,0,1
17.66,1,3,3,9,4,4,2,2
17.665,2,5,8,3,1,1,1,0
17.67,0,4,1,0,1,1,1,1
17.675,4,5,2,4,5,4,4,2
17.68,5,2,6,7,4,2,0,1
17.685,4,5,2,4,1,1,1,2
17.69,3,6,7,5,5,2,1,1
17.695,4,3,2,8,2,0,0,1
17.7,0,3,9,13,6,4,2,3
17.705,2,1,2,3,3,0,0,1
17.71,13,5,0,3,1,1,2,3
17.715,3,1,1,3,2,3,0,4
17.72,2,5,6,3,3,2,0,1
17.725,1,3,3,0,1,0,0,1
17.73,2,3,0,1,1,0,1,0
17.735,3,6,6,3,2,1,0,1
17.74,1,7,6,4,2,1,3,2
17.745,1,2,0,4,1,0,3,2
17.75,3,4,1,6,5,2,0,1
17.755,1,1,0,2,1,1,2,0
17.76,5,1,2,2,2,2,2,3
17.765,4,2,1,4,3,3,1,0
17.77,1,3,5,5,3,1,0,3
17.775,2,2,3,2,3,0,1,1
17.78,1,3,2,9,6,3,1,0
17.785,6,5,16,29,6,3,3,3
17.79,3,4,11,3,5,0,0,0
17.795,3,3,2,10,8,2,0,1
17.8,1,5,4,14,2,2,1,2
17.805,0,5,0,9,1,2,0,2
17.81,4,5,1,5,4,2,2,3
17.815,2,2,7,6,2,0,1,0
17.82,1,7,4,6,0,0,0,2
17.825,1,5,11,4,1,1,1,2
17.83,3,1,6,7,8,5,2,2
17.835,4,8,4,3,5,1,0,1
17.84,1,2,5,7,4,2,1,1
17.845,1,0,2,2,0,1,0,1
17.85,3,1,6,1,1,1,1,1
17.855,0,1,4,8,6,4,2,2
17.86,2,4,5,1,4,1,2,2
17.865,2,2,5,17,5,2,1,3
17.87,3,7,23,30,9,3,3,1
17.875,6,1,7,2,5,2,1,2
17.88,0,2,10,11,5,1,1,0
17.885,2,3,0,2,3,1,1,0
17.89,3,3,3,4,2,0,2,1
17.895,1,2,3,10,3,2,0,1
17.9,1,1,4,7,0,1,1,2
17.905,0,4,6,1,0,0,0,0
17.91,1,4,4,3,1,1,1,0
17.915,3,8,5,5,5,3,1,2
17.92,1,2,3,11,0,3,1,3
17.925,4,4,4,3,1,0,1,0
17.93,8,4,5,0,1,1,0,2
17.935,1,2,2,5,2,0,1,1
17.94,1,2,3,14,9,2,4,2
17.945,5,6,11,3,0,4,3,3
17.95,1,2,3,7,1,1,0,1
17.955,1,2,0,1,2,1,1,2
17.96,1,1,2,3,5,0,1,1
17.965,0,6,14,4,0,1,1,2
17.97,2,7,17,15,4,4,3,1
17.975,2,2,3,11,4,1,0,1
17.98,2,6,3,6,3,0,3,1
17.985,2,1,6,4,4,1,0,0
17.99,1,1,2,4,0,1,0,1
17.995,1,4,6,8,3,1,0,2
18,4,0,3,4,1,3,1,1
18.005,2,7,7,6,5,2,2,3
18.01,0,1,3,6,2,2,2,1
18.015,0,1,3,2,3,4,3,0
18.02,4,5,6,6,6,2,1,1
18.025,6,4,1,8,4,2,2,3
18.03,2,4,4,2,9,4,1,0
18.035,4,6,10,3,0,1,0,1
18.04,8,2,5,18,3,1,1,3
18.045,4,3,1,1,4,3,2,1
18.05,2,2,2,2,2,0,0,0
18.055,4,1,6,2,2,4,2,3
18.06,3,3,3,9,3,1,1,1
18.065,0,2,4,5,2,0,1,1
18.07,1,2,1,11,2,2,0,2
18.075,0,2,2,6,2,1,2,1
18.08,2,0,5,1,1,2,0,0
18.085,1,2,4,9,2,2,2,0
18.09,6,6,1,9,3,3,0,1
18.095,0,0,3,9,2,2,3,1
18.1,1,0,8,19,2,2,0,1
18.105,1,2,1,1,1,0,1,0
18.11,2,2,9,5,2,1,3,2
18.115,1,0,6,11,1,1,2,1
18.12,4,3,15,25,2,2,1,3
18.125,0,8,8,0,3,0,1,1
18.13,2,3,16,21,5,3,2,1
18.135,3,0,4,3,3,3,2,2
18.14,4,6,18,24,10,0,0,0
18.145,5,2,8,17,3,1,0,2
18.15,2,3,6,6,5,0,0,1
18.155,6,2,0,5,0,0,0,1
18.16,21,4,23,34,5,3,4,9
18.165,15,7,0,2,7,3,2,4
18.17,30,1,19,41,5,1,2,7
18.175,14,5,29,19,10,4,2,2
18.18,7,4,8,7,3,0,1,2
18.185,6,9,2,16,7,1,1,1
18.19,6,4,32,38,7,2,3,4
18.195,4,10,66,92,21,4,2,1
18.2,59,1,3,27,5,4,3,5
18.205,79,5,12,2,4,2,3,5
18.21,33,6,18,11,1,2,3,7
18.215,25,3,25,31,14,2,4,7
18.22,8,10,38,34,6,2,3,7
18.225,28,5,17,6,2,1,1,9
18.23,5,7,55,12,2,3,1,2
18.235,10,16,21,76,15,5,7,8
18.24,37,7,52,62,15,5,2,3
18.245,1,9,54,67,16,4,1,3
18.25,24,8,12,1,8,4,2,1
18.255,15,14,26,3,11,1,4,10
18.26,38,6,24,48,1,0,1,9
18.265,1,3,40,21,5,3,2,3
18.27,28,2,29,70,9,0,1,1
18.275,3,6,29,21,4,3,3,4
18.28,14,10,30,35,9,4,2,0
18.285,5,11,9,34,5,7,2,3
18.29,18,13,19,8,9,6,4,8
18.295,11,8,16,2,0,2,0,1
18.3,5,1,22,31,6,2,2,0
18.305,22,1,5,5,6,3,0,3
18.31,26,2,21,2,1,1,1,4
18.315,19,14,20,39,12,5,2,9
18.32,2,10,4,32,9,1,2,11
18.325,14,8,6,26,11,8,7,16
18.33,39,12,36,9,5,5,2,7
18.335,9,2,9,21,3,2,2,2
18.34,20,7,10,5,1,0,1,4
18.345,7,2,21,35,7,1,1,3
18.35,15,9,15,61,4,0,1,0
18.355,1,0,15,92,5,2,2,4
18.36,9,11,28,62,5,1,0,6
18.365,14,6,8,12,6,1,1,5
18.37,17,0,1,20,3,1,1,1
18.375,2,3,18,18,8,4,0,3
18.38,16,1,15,40,4,4,1,1
18.385,10,12,37,51,0,0,2,0
18.39,2,12,44,43,0,4,1,0
18.395,2,3,21,26,2,1,1,2
18.4,4,6,28,7,0,2,1,1
18.405,15,2,5,2,3,2,0,0
18.41,7,9,2,57,3,2,1,2
18.415,3,2,9,7,1,0,1,2
18.42,12,9,38,59,14,6,4,2
18.425,7,8,14,16,4,1,0,2
18.43,5,2,32,38,3,3,2,2
18.435,1,0,6,13,1,1,0,1
18.44,5,0,0,17,1,1,1,0
18.445,7,3,12,16,3,0,0,0
18.45,4,2,4,20,5,1,2,3
18.455,0,3,0,13,2,0,1,1
18.46,0,3,13,17,8,2,0,3
18.465,20,3,21,43,8,2,1,1
18.47,12,5,19,40,3,2,3,2
18.475,6,9,25,48,19,10,6,7
18.48,0,8,32,24,3,4,2,1
18.485,6,3,19,9,2,1,1,1
18.49,2,11,30,12,5,4,0,0
18.495,6,5,10,6,2,2,1,1
18.5,10,10,13,23,10,8,4,6
18.505,8,1,2,11,1,2,0,2
18.51,7,5,5,41,8,4,2,4
18.515,9,10,10,14,4,1,2,2
18.52,6,1,1,1,3,1,2,4
18.525,1,8,2,28,2,4,3,5
18.53,2,4,4,11,2,1,0,0
18.535,6,2,7,6,5,3,1,1
18.54,4,5,21,1,3,3,3,0
18.545,6,5,12,20,6,3,4,3
18.55,4,5,3,5,5,2,1,3
18.555,12,11,29,40,13,4,0,1
18.56,0,0,6,8,5,2,1,0
18.565,9,9,26,46,17,6,3,1
18.57,7,4,5,5,4,4,2,5
18.575,13,6,2,20,6,4,2,1
18.58,17,9,28,34,6,1,0,5
18.585,3,1,12,13,1,1,1,2
18.59,5,0,7,10,3,2,1,0
18.595,1,12,32,7,6,3,1,5
18.6,0,3,15,9,0,1,0,1
18.605,1,1,3,8,5,1,0,1
18.61,6,14,30,49,10,5,5,4
18.615,7,4,17,10,1,1,1,3
18.62,0,2,9,18,0,1,2,1
18.625,2,1,17,37,2,4,5,6
18.63,7,6,16,10,4,1,2,2
18.635,1,10,17,3,4,0,1,1
18.64,2,1,12,4,7,5,3,3
18.645,3,0,12,16,0,0,0,1
18.65,10,8,10,6,1,3,1,4
18.655,15,1,6,16,3,3,4,5
18.66,3,4,7,39,2,2,0,2
18.665,10,4,1,6,1,4,3,4
18.67,8,1,0,14,1,1,2,1
18.675,9,2,8,16,4,2,2,2
18.68,5,1,12,36,7,3,1,1
18.685,0,7,9,36,13,7,5,4
18.69,3,0,12,1,1,1,1,2
18.695,9,10,8,22,2,2,2,2
18.7,2,12,10,30,4,1,1,2
18.705,9,1,20,33,2,3,4,2
18.71,11,4,18,26,1,4,1,1
18.715,2,1,16,44,4,1,0,1
18.72,10,7,7,44,7,8,5,4
18.725,3,3,12,4,3,3,0,1
18.73,7,2,2,7,5,3,0,0
18.735,1,4,19,11,2,3,0,3
18.74,1,7,1,12,5,0,1,2
18.745,1,7,8,38,6,4,2,4
18.75,0,8,21,18,7,2,1,0
18.755,0,10,35,23,4,2,2,2
18.76,4,4,4,13,3,0,1,1
18.765,10,6,14,5,0,2,1,3
18.77,2,2,6,22,6,1,1,4
18.775,2,1,6,0,7,1,3,1
18.78,6,2,2,8,2,2,1,0
18.785,6,7,22,15,3,2,2,2
18.79,2,2,0,6,0,0,1,3
18.795,7,2,5,30,4,0,1,1
18.8,0,1,1,15,3,2,2,1
18.805,2,3,4,17,2,1,0,0
18.81,6,6,1,5,1,2,1,2
18.815,0,3,11,17,2,3,2,2
18.82,7,1,15,39,4,3,0,1
18.825,2,2,11,40,9,2,1,2
18.83,1,2,10,8,4,6,1,0
18.835,4,11,13,2,7,2,0,1
18.84,5,7,1,5,4,1,1,2
18.845,7,10,2,9,5,1,0,2
18.85,4,1,4,17,9,9,4,3
18.855,3,3,16,18,9,4,1,1
18.86,9,9,1,3,4,1,0,2
18.865,5,8,29,41,5,0,1,1
18.87,0,5,17,18,5,2,2,2
18.875,1,7,19,43,12,7,5,4
18.88,11,11,11,8,2,2,0,1
18.885,7,3,17,15,5,3,2,2
18.89,12,8,16,23,4,1,1,2
18.895,1,14,2,15,1,3,2,2
18.9,1,5,18,29,6,1,1,1
18.905,0,1,11,7,4,2,1,0
18.91,5,9,9,14,4,1,2,0
18.915,6,1,2,0,2,1,1,0
18.92,4,13,8,5,5,0,1,3
18.925,1,1,2,2,3,2,2,1
18.93,1,3,2,5,3,4,1,0
18.935,11,10,5,10,5,1,1,1
18.94,12,3,3,7,8,4,2,1
18.945,29,18,11,12,4,4,0,3
18.95,7,7,0,0,1,1,1,2
18.955,9,15,3,2,1,2,4,2
18.96,11,7,2,2,8,2,3,0
18.965,3,2,7,7,3,4,3,2
18.97,2,0,9,3,2,2,1,2
18.975,9,7,5,6,0,1,0,2
18.98,6,2,13,15,2,1,3,1
18.985,8,8,5,0,4,4,2,0
18.99,16,3,1,1,4,4,1,2
18.995,7,25,1,3,6,4,4,4
19,12,2,7,26,3,2,1,2
19.005,5,8,5,13,4,1,0,2
19.01,16,7,4,4,1,2,1,1
19.015,12,2,7,1,2,1,2,2
19.02,5,8,0,5,5,4,4,2
19.025,1,3,1,8,4,2,1,2
19.03,6,6,3,9,5,3,0,1
19.035,2,7,0,0,2,1,1,2
19.04,8,11,12,5,0,1,2,2
19.045,3,6,2,0,2,1,1,2
19.05,1,7,2,7,1,1,3,3
19.055,5,10,4,3,0,0,1,1
19.06,7,5,1,11,0,0,2,0
19.065,2,12,16,8,6,5,3,5
19.07,5,7,1,0,1,1,1,3
19.075,2,5,1,5,0,0,0,1
19.08,7,0,0,4,3,1,1,0
19.085,4,3,3,5,2,2,3,0
19.09,2,3,5,0,2,1,1,0
19.095,2,4,8,6,0,2,2,1
19.1,1,2,4,10,4,0,1,0
19.105,3,2,2,11,2,2,1,2
19.11,2,2,10,16,5,4,0,1
19.115,1,4,0,5,2,1,1,0
19.12,3,3,4,4,3,1,0,2
19.125,7,1,1,3,1,0,2,1
19.13,8,1,3,8,1,2,3,4
19.135,2,1,10,11,3,0,1,1
19.14,4,5,8,4,0,1,0,2
19.145,3,5,8,4,3,2,2,3
19.15,1,11,4,8,1,1,1,3
19.155,5,2,7,6,3,3,2,6
19.16,1,2,5,8,2,2,1,0
19.165,3,3,7,7,2,1,1,0
19.17,1,1,5,4,3,2,2,1
19.175,2,1,2,1,2,1,1,1
19.18,1,1,8,15,0,0,0,1
19.185,2,5,13,29,3,2,1,2
19.19,3,16,13,10,3,1,3,2
19.195,2,3,6,9,2,1,0,0
19.2,1,3,0,2,2,1,0,0
19.205,3,4,7,5,7,3,1,0
19.21,4,5,1,0,6,0,0,0
19.215,5,5,3,2,2,1,0,0
19.22,1,2,3,11,8,5,2,1
19.225,3,1,0,3,2,0,0,2
19.23,8,5,4,7,4,3,1,2
19.235,3,1,4,4,4,1,2,1
19.24,1,2,1,3,2,1,1,1
19.245,2,5,9,8,3,0,1,0
19.25,0,3,5,2,1,2,2,1
19.255,3,2,1,4,0,1,0,0
19.26,3,3,8,3,1,0,1,2
19.265,0,4,0,9,4,2,1,2
19.27,1,1,6,29,7,1,0,1
19.275,5,5,16,34,14,5,3,3
19.28,1,1,9,11,1,0,1,3
19.285,4,1,10,19,9,3,1,1
19.29,3,0,0,2,4,2,2,3
19.295,2,1,5,7,3,2,1,0
19.3,2,0,2,4,3,0,1,1
19.305,5,3,2,9,2,1,0,0
19.31,1,2,2,13,6,1,0,2
19.315,0,0,4,4,2,1,1,1
19.32,1,0,1,5,2,2,1,0
19.325,3,3,4,4,2,0,1,0
19.33,1,5,3,12,2,2,2,1
19.335,1,10,3,6,3,2,1,1
19.34,1,3,4,2,3,0,1,1
19.345,2,13,6,1,2,2,0,1
19.35,1,2,6,4,1,2,2,3
19.355,1,7,12,4,1,2,2,0
19.36,1,3,2,6,0,0,1,1
19.365,1,2,1,4,1,1,0,0
19.37,5,5,11,9,1,1,1,0
19.375,9,6,16,30,8,1,1,1
19.38,7,5,10,8,0,0,1,2
19.385,1,0,3,2,7,3,2,1
19.39,1,2,3,0,4,3,1,1
19.395,4,4,5,11,5,1,3,1
19.4,0,1,4,1,4,1,1,2
19.405,1,1,2,7,1,2,0,1
19.41,2,3,1,2,1,1,2,2
19.415,1,1,4,4,1,1,2,1
19.42,3,4,4,8,7,6,3,0
19.425,2,5,1,15,4,1,1,0
19.43,1,3,2,11,8,4,2,3
19.435,4,1,2,2,2,0,1,1
19.44,5,3,1,5,3,1,1,3
19.445,1,2,2,5,3,1,1,1
19.45,3,3,4,4,2,3,0,2
19.455,1,4,7,11,1,1,1,2
19.46,1,5,10,18,7,2,1,1
19.465,2,7,5,1,3,2,1,0
19.47,0,1,3,4,2,2,3,1
19.475,4,6,2,1,2,1,0,2
19.48,0,1,5,1,2,3,1,0
19.485,2,1,1,2,3,1,0,2
19.49,1,3,3,1,1,0,0,2
19.495,0,3,9,8,1,1,1,1
19.5,0,0,1,5,0,1,1,1
19.505,5,5,10,4,7,5,1,1
19.51,2,6,10,1,2,1,3,8
19.515,7,1,11,20,5,2,0,1
19.52,1,1,8,8,0,0,1,1
19.525,6,1,20,7,5,1,0,6
19.53,9,3,2,1,9,8,3,7
19.535,38,12,44,1,13,6,7,2
19.54,9,11,23,50,16,10,6,1
19.545,1,7,27,51,3,1,0,1
19.55,5,0,11,12,2,2,0,1
19.555,16,6,24,7,8,5,2,6
19.56,80,3,4,12,4,1,2,7
19.565,5,12,15,22,6,3,2,3
19.57,8,4,30,9,3,2,2,12
19.575,10,2,11,20,2,0,7,17
19.58,22,9,35,8,6,5,1,7
19.585,18,4,20,80,4,5,4,5
19.59,32,15,19,47,13,6,5,13
19.595,10,1,5,45,12,4,1,3
19.6,71,3,17,35,5,3,1,8
19.605,46,14,53,76,15,2,3,2
19.61,0,21,53,20,10,5,2,7
19.615,11,21,51,45,12,8,2,3
19.62,13,10,28,5,8,1,1,13
19.625,4,12,30,27,10,2,0,7
19.63,17,5,20,10,5,3,1,2
19.635,50,6,21,7,13,7,1,4
19.64,22,2,3,27,7,6,5,3
19.645,2,19,48,19,11,4,1,3
19.65,2,22,70,1,5,3,3,7
19.655,16,3,0,18,12,7,2,5
19.66,49,4,9,25,4,6,5,17
19.665,15,1,11,58,9,5,6,11
19.67,19,6,33,11,3,3,3,5
19.675,8,5,18,73,15,6,3,5
19.68,9,4,22,24,8,1,0,1
19.685,3,14,40,8,12,8,1,1
19.69,14,0,34,53,12,3,2,10
19.695,23,5,32,71,10,4,2,2
19.7,27,5,11,7,4,3,3,9
19.705,15,12,42,39,6,2,0,5
19.71,24,5,5,19,8,6,2,0
19.715,4,1,38,53,5,1,1,1
19.72,4,10,38,21,4,1,0,2
19.725,11,9,6,8,10,9,6,3
19.73,26,4,5,4,0,1,0,1
19.735,5,4,5,2,1,2,0,2
19.74,3,5,33,29,5,0,3,3
19.745,4,7,27,18,3,1,2,2
19.75,10,19,54,73,15,5,6,6
19.755,11,1,5,0,6,4,2,1
19.76,16,6,27,8,7,2,1,5
19.765,22,8,17,5,3,1,1,2
19.77,29,4,9,37,2,2,2,2
19.775,7,8,14,27,6,2,2,1
19.78,1,9,23,12,7,7,5,3
19.785,4,10,37,48,7,0,1,4
19.79,5,1,6,31,2,2,1,0
19.795,0,6,25,38,7,1,3,2
19.8,10,3,10,37,4,0,0,5
19.805,1,8,1,7,5,2,2,5
19.81,10,2,5,48,7,3,2,4
19.815,4,4,18,78,7,2,0,0
19.82,5,7,21,91,12,2,1,0
19.825,4,4,10,41,4,3,2,1
19.83,10,4,29,36,7,1,0,1
19.835,8,7,17,36,3,2,0,2
19.84,6,2,8,13,1,2,1,0
19.845,9,4,13,54,8,3,2,1
19.85,1,8,10,43,4,0,1,2
19.855,1,1,18,19,2,3,3,4
19.86,9,1,17,24,1,2,1,3
19.865,4,7,24,36,9,5,4,3
19.87,15,7,10,21,5,3,2,10
19.875,3,1,3,32,9,4,1,0
19.88,2,5,21,63,12,6,3,1
19.885,4,3,23,18,8,5,1,2
19.89,9,2,18,14,4,4,1,1
19.895,1,6,8,3,7,4,5,3
19.9,14,2,5,21,2,2,1,3
19.905,0,1,16,28,0,1,1,3
19.91,6,4,45,59,7,3,0,4
19.915,8,4,15,11,2,2,1,4
19.92,0,3,9,27,3,3,1,1
19.925,17,1,16,34,4,1,1,1
19.93,17,8,2,17,3,1,4,4
19.935,8,12,40,38,1,1,1,3
19.94,10,18,63,31,9,4,6,3
19.945,2,1,2,26,4,3,2,4
19.95,5,2,10,8,1,2,1,0
19.955,4,3,12,2,3,0,1,2
19.96,2,7,37,47,4,2,0,1
19.965,1,3,1,0,0,1,1,2
19.97,3,3,16,1,8,4,4,1
19.975,4,2,23,57,5,2,1,2
19.98,11,4,27,40,1,0,0,2
19.985,1,1,10,12,2,2,0,2
19.99,1,6,15,32,7,3,2,8
19.995,10,9,9,31,0,2,0,2
20,13,6,3,2,2,1,1,0
20.005,1,7,35,52,9,6,4,5
20.01,6,2,11,15,3,0,2,4
20.015,2,5,16,34,7,4,1,2
20.02,3,7,0,31,4,1,1,1
20.025,17,5,9,24,3,2,3,1
20.03,44,1,14,40,6,1,1,1
20.035,2,4,3,25,6,3,1,2
20.04,1,8,21,41,6,1,1,1
20.045,14,12,12,2,1,2,1,3
20.05,26,12,5,35,1,3,3,8
20.055,17,8,19,6,4,4,5,6
20.06,3,3,22,14,1,1,4,12
20.065,2,2,14,15,5,1,0,0
20.07,7,1,7,26,3,1,0,4
20.075,4,3,5,32,4,1,2,2
20.08,1,5,8,10,8,3,0,1
20.085,4,7,2,18,0,3,1,2
20.09,2,1,3,36,1,4,0,5
20.095,12,0,10,33,1,0,1,2
20.1,1,6,7,19,3,3,4,3
20.105,8,6,5,12,1,2,2,1
20.11,6,0,7,17,3,2,1,2
20.115,12,5,7,3,10,6,3,3
20.12,5,5,17,32,4,0,2,0
20.125,5,6,17,11,0,1,1,1
20.13,3,2,2,10,1,2,2,2
20.135,3,3,12,3,1,0,2,0
20.14,9,1,5,6,7,4,3,1
20.145,4,6,30,85,8,1,2,1
20.15,9,12,55,86,13,5,3,4
20.155,30,0,7,17,6,2,1,0
20.16,6,2,12,8,5,1,0,0
20.165,0,0,12,17,2,1,1,0
20.17,6,1,1,39,6,2,1,1
20.175,7,4,2,6,4,0,0,0
20.18,6,8,11,13,7,4,2,2
20.185,3,10,15,18,3,1,1,2
20.19,2,1,2,18,2,4,4,3
20.195,6,3,2,2,2,3,1,0
20.2,10,13,2,9,6,5,4,3
20.205,6,14,21,13,1,1,1,1
20.21,8,7,13,19,1,0,0,0
20.215,1,5,16,22,3,3,3,1
20.22,0,4,10,5,2,0,1,1
20.225,1,2,10,2,0,2,0,2
20.23,8,2,10,15,2,1,1,2
20.235,7,8,25,32,3,1,4,6
20.24,1,4,1,6,4,2,1,0
20.245,6,2,3,10,1,1,2,4
20.25,3,3,16,23,3,3,1,0
20.255,1,2,10,0,8,6,2,0
20.26,1,4,3,7,2,5,3,4
20.265,0,8,4,6,2,10,3,2
20.27,5,4,11,8,1,3,1,3
20.275,5,3,10,23,8,4,3,1
20.28,3,6,12,15,3,3,1,2
20.285,9,3,9,19,14,0,3,2
20.29,1,16,8,2,3,1,1,1
20.295,2,2,17,1,1,1,0,0
20.3,1,1,3,2,0,1,0,0
20.305,1,3,3,0,9,8,4,2
20.31,5,1,4,9,2,3,0,1
20.315,15,6,2,17,5,3,0,0
20.32,14,5,3,15,4,2,0,2
20.325,11,12,1,11,4,4,1,1
20.33,10,4,3,11,5,6,3,2
20.335,6,9,2,11,2,5,0,0
20.34,9,6,0,2,4,4,0,1
20.345,1,13,2,10,4,3,2,2
20.35,1,3,2,5,4,0,0,1
20.355,14,3,3,1,1,1,3,4
20.36,5,1,5,6,2,1,0,2
20.365,1,1,1,6,2,2,1,0
20.37,1,15,13,18,8,2,2,2
20.375,7,6,5,16,3,0,1,1
20.38,16,12,11,17,10,4,2,2
20.385,2,11,4,5,8,3,2,5
20.39,3,10,16,26,15,5,0,1
20.395,9,10,13,21,5,2,2,2
20.4,9,8,6,3,4,1,0,2
20.405,9,9,4,2,2,3,1,0
20.41,1,8,12,0,1,5,1,3
20.415,11,3,5,9,1,2,2,1
20.42,15,7,4,6,0,1,2,0
20.425,7,6,4,13,2,3,2,2
20.43,11,3,17,36,4,3,3,4
20.435,4,1,4,12,1,1,1,1
20.44,9,7,4,2,1,0,0,1
20.445,3,5,5,4,2,1,1,0
20.45,0,5,3,11,1,1,2,2
20.455,2,1,1,1,1,1,3,3
20.46,0,1,2,0,2,1,2,1
20.465,18,16,8,13,3,2,2,1
20.47,0,6,1,13,1,1,1,2
20.475,5,10,15,20,8,5,2,1
20.48,6,4,6,4,0,1,1,1
20.485,5,4,2,3,1,1,1,1
20.49,2,3,2,5,4,3,1,0
20.495,8,1,4,16,3,1,1,2
20.5,4,5,6,10,4,3,1,0
20.505,1,9,5,8,4,2,1,0
20.51,0,0,8,16,2,0,0,0
20.515,6,4,15,23,3,2,2,2
20.52,1,0,1,5,3,4,2,2
20.525,3,5,1,1,2,2,1,1
20.53,1,4,4,2,8,4,2,2
20.535,2,4,16,13,4,3,1,1
20.54,1,1,1,0,2,2,1,1
20.545,1,2,0,4,1,1,1,2
20.55,2,2,0,3,2,2,1,2
20.555,2,2,4,7,0,1,1,2
20.56,3,2,2,10,2,1,0,1
20.565,2,7,14,25,6,3,3,3
20.57,2,3,6,5,2,2,2,1
20.575,0,1,2,4,3,1,2,2
20.58,3,1,6,6,1,1,1,1
20.585,1,4,12,8,2,2,1,1
20.59,1,5,14,3,1,0,1,1
20.595,1,1,4,24,5,3,2,1
20.6,6,4,5,4,4,2,0,2
20.605,1,1,3,4,3,1,2,1
20.61,0,3,17,12,4,3,1,0
20.615,0,1,24,5,1,1,2,1
20.62,1,1,3,5,3,2,1,1
20.625,2,10,27,49,9,3,0,1
20.63,4,5,1,14,5,1,1,2
20.635,4,10,2,14,1,3,1,1
20.64,3,1,11,17,2,2,2,1
20.645,6,3,9,13,0,2,2,1
20.65,1,1,4,3,1,2,1,1
20.655,3,4,0,3,12,2,1,3
20.66,4,1,9,19,7,2,2,1
20.665,1,2,5,14,1,1,1,2
20.67,5,11,13,15,5,1,2,3
20.675,1,2,4,5,3,0,1,0
20.68,1,1,2,5,1,2,1,2
20.685,5,2,2,0,2,2,1,2
20.69,10,2,7,14,2,2,1,3
20.695,1,2,6,12,5,2,1,0
20.7,2,3,5,7,1,1,0,0
20.705,0,2,4,3,2,2,1,1
20.71,1,0,4,8,1,2,0,0
20.715,3,1,11,24,4,2,0,0
20.72,9,7,2,2,4,1,2,1
20.725,1,0,3,2,1,1,1,2
20.73,1,1,1,6,2,0,1,0
20.735,2,3,0,6,1,1,1,1
20.74,1,1,2,1,2,5,4,1
20.745,0,0,0,9,6,0,2,2
20.75,1,4,7,29,3,0,0,2
20.755,3,2,5,6,5,4,1,1
20.76,2,2,11,6,0,2,2,1
20.765,2,0,7,0,1,1,0,1
20.77,2,4,2,0,0,0,2,0
20.775,4,0,5,16,7,1,2,1
20.78,1,0,2,0,0,2,1,1
20.785,0,2,10,3,2,1,1,1
20.79,1,4,3,3,2,2,1,1
20.795,5,2,0,2,1,2,0,0
20.8,3,2,4,2,2,2,2,0
20.805,2,0,6,4,7,1,0,3
20.81,3,2,4,2,5,2,2,1
20.815,1,0,4,16,1,0,1,0
20.82,3,3,1,17,2,0,2,0
20.825,5,5,8,9,8,4,2,1
20.83,1,2,1,4,0,3,0,3
20.835,1,0,5,6,2,0,0,1
20.84,6,2,4,1,1,1,1,2
20.845,8,4,7,9,4,0,2,1
20.85,2,5,4,6,1,3,1,2
20.855,1,0,2,9,5,4,1,1
20.86,0,2,3,1,6,2,2,1
20.865,1,3,14,15,7,4,2,2
20.87,1,1,2,7,0,1,0,0
20.875,1,1,4,3,2,1,1,0
20.88,3,5,14,1,4,3,1,2
20.885,1,1,0,4,2,3,1,1
20.89,2,3,5,4,2,0,1,1
20.895,1,0,3,4,5,1,2,2
20.9,2,1,2,6,1,2,0,2
20.905,3,5,3,6,1,2,2,0
20.91,0,1,7,4,3,1,1,0
20.915,0,2,2,11,2,1,0,1
20.92,2,6,1,9,1,3,2,3
20.925,1,1,2,1,0,0,1,1
20.93,0,3,2,13,4,1,1,2
20.935,4,3,2,4,2,1,1,1
20.94,5,2,11,7,1,2,0,2
20.945,2,4,9,11,4,0,1,1
20.95,3,0,2,2,3,2,3,1
20.955,2,2,8,3,5,0,2,3
20.96,0,0,0,3,3,1,1,1
20.965,4,2,8,12,3,1,0,1
20.97,1,0,0,4,0,1,1,0
20.975,4,7,2,0,2,1,0,2
20.98,1,0,0,6,0,1,0,0
20.985,2,1,4,1,4,2,0,2
20.99,2,1,1,5,0,1,0,2
20.995,4,1,3,4,4,2,2,1
21,4,4,2,4,2,1,2,1
21.005,1,3,3,1,0,1,2,2
21.01,2,1,5,1,1,2,1,1
21.015,1,0,4,1,1,1,0,1
21.02,1,2,6,2,1,0,1,1
21.025,0,1,2,1,3,0,0,2
21.03,3,2,5,10,3,1,1,1
21.035,2,0,14,18,1,0,1,1
21.04,16,2,6,11,3,2,0,3
21.045,25,7,7,9,9,6,5,3
21.05,16,2,18,15,5,3,2,4
21.055,20,7,2,13,5,1,2,5
21.06,7,10,12,3,9,7,7,11
21.065,6,7,7,9,10,4,2,0
21.07,3,3,10,1,4,3,4,6
21.075,12,7,40,32,10,3,2,9
21.08,4,6,24,26,1,1,1,6
21.085,10,5,30,12,2,4,3,5
21.09,3,4,37,75,7,3,4,7
21.095,2,18,9,28,8,6,3,4
21.1,16,5,24,10,4,1,1,5
21.105,59,6,8,0,10,4,2,15
21.11,20,7,43,0,19,8,6,3
21.115,18,2,30,98,8,4,1,7
21.12,7,1,29,66,12,6,3,10
21.125,48,5,13,10,4,1,3,8
21.13,57,7,34,22,6,3,5,29
21.135,24,7,21,42,12,7,0,8
21.14,36,14,34,67,19,10,4,3
21.145,2,4,19,40,2,1,1,15
21.15,44,1,9,11,5,4,2,2
21.155,80,17,9,24,12,8,9,8
21.16,4,18,37,2,9,3,3,0
21.165,9,1,13,13,4,1,1,0
21.17,11,8,8,8,2,1,0,8
21.175,4,1,5,5,4,3,1,2
21.18,9,1,0,3,2,1,2,2
21.185,7,3,4,11,1,1,3,2
21.19,6,8,17,5,6,1,2,4
21.195,18,1,13,11,0,3,1,2
21.2,16,7,18,38,4,2,0,0
21.205,2,16,53,38,11,3,1,4
21.21,0,4,18,2,2,0,0,0
21.215,5,0,15,44,5,1,2,3
21.22,2,14,34,40,13,4,1,5
21.225,21,6,22,3,5,1,0,5
21.23,0,6,19,6,0,2,1,5
21.235,11,7,17,16,9,5,1,1
21.24,4,11,15,27,1,0,1,4
21.245,0,2,0,36,10,4,0,4
21.25,12,3,5,10,2,3,4,7
21.255,7,2,12,2,2,2,1,3
21.26,30,2,12,24,2,0,2,3
21.265,45,6,4,8,0,1,2,4
21.27,12,5,1,12,8,6,5,3
21.275,12,3,14,1,0,0,2,1
21.28,7,5,0,24,2,1,2,0
21.285,8,1,15,30,1,3,2,1
21.29,4,0,2,13,1,2,0,0
21.295,13,1,5,9,0,1,2,4
21.3,21,11,18,21,10,6,4,5
21.305,14,2,4,12,0,3,0,2
21.31,6,0,9,4,1,2,0,0
21.315,8,2,20,7,5,3,0,1
21.32,12,1,4,13,0,0,0,1
21.325,6,6,14,7,6,4,3,0
21.33,2,2,12,54,11,4,4,11
21.335,2,1,8,23,3,1,1,2
21.34,13,8,6,16,6,0,1,1
21.345,2,25,15,12,1,1,0,1
21.35,7,6,14,37,1,0,2,2
21.355,2,4,12,4,8,2,2,0
21.36,10,1,1,14,3,3,1,6
21.365,7,9,18,22,3,3,1,2
21.37,5,1,9,18,6,2,1,0
21.375,9,2,1,14,5,2,1,1
21.38,1,3,12,28,3,1,3,3
21.385,3,1,21,67,11,1,1,1
21.39,4,4,23,20,5,2,1,1
21.395,2,12,28,10,7,6,2,2
21.4,8,5,4,16,1,3,4,3
21.405,3,7,13,1,0,2,0,1
21.41,1,5,10,10,6,3,2,1
21.415,6,6,19,30,9,2,1,3
21.42,6,14,31,31,12,2,2,6
21.425,1,0,0,5,0,0,0,0
21.43,0,3,5,11,1,2,2,1
21.435,1,1,6,9,2,0,2,2
21.44,8,2,3,18,3,1,0,2
21.445,0,3,12,23,2,2,2,1
21.45,5,11,18,15,9,5,3,2
21.455,2,2,13,12,0,1,1,3
21.46,1,6,25,17,6,3,0,1
21.465,1,6,26,2,9,3,4,2
21.47,2,0,2,2,4,0,0,0
21.475,9,7,22,37,9,4,3,3
21.48,2,6,18,13,0,0,0,3
21.485,5,3,7,4,1,3,3,3
21.49,7,8,17,5,2,1,1,0
21.495,1,3,13,12,2,2,0,1
21.5,4,1,0,6,0,0,2,0
21.505,4,5,17,39,5,1,0,2
21.51,1,2,7,4,1,0,1,1
21.515,6,10,43,30,6,3,2,1
21.52,7,2,3,4,3,2,2,7
21.525,3,13,34,19,5,2,1,2
21.53,5,5,20,21,1,1,2,1
21.535,12,6,15,8,8,4,3,8
21.54,1,1,11,11,2,2,3,2
21.545,4,6,1,13,2,2,0,2
21.55,4,10,4,34,4,1,0,2
21.555,2,6,5,9,4,0,0,3
21.56,7,7,7,6,8,4,4,3
21.565,1,3,3,4,0,2,3,1
21.57,2,4,18,19,2,0,0,0
21.575,15,7,26,17,6,4,0,0
21.58,7,0,22,42,0,3,1,4
21.585,0,6,29,62,7,3,1,0
21.59,1,6,18,9,2,2,3,3
21.595,0,6,28,22,5,0,2,0
21.6,3,3,0,19,4,2,1,3
21.605,6,1,1,9,2,0,2,3
21.61,4,14,28,10,9,5,4,6
21.615,4,3,2,47,2,1,1,3
21.62,1,4,4,41,7,1,1,1
21.625,9,2,0,7,7,3,1,2
21.63,3,3,6,12,7,2,0,4
21.635,2,3,19,27,3,4,4,8
21.64,1,7,26,45,9,4,1,0
21.645,7,7,18,22,4,0,1,3
21.65,0,4,18,28,4,2,0,1
21.655,5,2,4,12,10,6,1,2
21.66,2,2,10,14,5,3,1,3
21.665,1,2,17,25,1,1,2,1
21.67,1,0,7,18,5,3,1,2
21.675,6,0,12,2,0,1,0,2
21.68,2,2,9,3,2,1,2,3
21.685,7,2,7,19,1,1,2,1
21.69,14,0,6,3,1,1,2,4
21.695,0,0,0,5,3,2,0,1
21.7,1,0,6,25,2,0,0,3
21.705,3,1,6,56,4,1,1,2
21.71,1,5,16,12,8,5,4,3
21.715,1,1,4,4,4,0,0,0
21.72,0,1,3,12,4,0,0,1
21.725,1,1,8,48,8,2,2,1
21.73,0,5,3,5,2,1,1,1
21.735,2,1,2,11,3,0,0,1
21.74,0,5,9,1,7,1,1,2
21.745,1,4,11,22,4,3,3,3
21.75,0,1,1,6,3,3,0,2
21.755,3,1,9,9,9,4,4,2
21.76,13,14,1,8,6,2,1,0
21.765,1,1,18,31,3,3,1,2
21.77,1,3,15,36,3,2,2,0
21.775,5,1,10,25,11,4,2,1
21.78,0,1,3,8,3,3,2,1
21.785,8,3,2,7,2,4,0,0
21.79,5,1,6,9,1,0,0,0
21.795,5,0,3,4,1,2,1,1
21.8,18,2,7,12,7,3,1,2
21.805,2,11,4,13,0,2,1,4
21.81,9,7,8,27,1,2,2,3
21.815,3,6,2,7,9,3,0,3
21.82,15,6,3,7,9,1,2,6
21.825,3,2,5,8,3,3,0,1
21.83,3,4,3,8,3,2,1,2
21.835,3,1,1,5,3,0,1,1
21.84,7,1,2,3,5,3,2,2
21.845,2,1,1,1,5,1,1,1
21.85,5,11,2,9,1,1,2,2
21.855,8,0,3,1,2,2,0,1
21.86,2,4,2,10,2,1,2,2
21.865,11,11,11,8,2,0,0,0
21.87,6,16,1,5,1,0,1,1
21.875,10,0,0,6,1,4,3,6
21.88,4,1,3,0,4,1,0,1
21.885,1,7,2,5,4,2,1,1
21.89,8,9,5,6,1,4,3,2
21.895,12,5,3,2,0,1,1,3
21.9,15,0,1,5,2,3,0,1
21.905,0,5,7,4,2,4,0,0
21.91,0,4,2,1,3,1,1,0
21.915,9,13,5,3,6,0,3,3
21.92,10,1,1,3,6,4,2,1
21.925,2,1,9,2,3,4,3,0
21.93,1,1,11,3,2,1,0,1
21.935,10,1,2,5,5,2,0,1
21.94,3,5,5,11,6,3,2,4
21.945,6,7,5,5,1,1,0,2
21.95,13,6,2,3,3,3,2,0
21.955,15,6,7,11,3,2,0,2
21.96,5,3,2,3,6,1,1,0
21.965,1,8,8,6,3,3,1,0
21.97,3,6,6,5,2,0,1,1
21.975,9,2,1,3,0,3,0,0
21.98,1,5,1,12,4,1,0,1
21.985,1,2,2,6,2,2,3,2
21.99,0,1,4,1,4,2,1,2
21.995,5,5,12,10,3,0,2,1
22,2,3,2,5,3,2,2,2
22.005,5,8,9,10,1,1,0,0
22.01,17,9,13,17,5,1,3,2
22.015,1,7,3,11,3,2,2,3
22.02,3,1,2,8,2,1,1,1
22.025,1,0,5,3,3,2,1,2
22.03,7,0,2,13,3,2,3,2
22.035,2,3,1,7,4,1,0,1
22.04,2,2,1,10,2,1,1,1
22.045,2,4,2,5,0,0,0,1
22.05,1,3,1,4,6,3,0,1
22.055,1,0,4,4,2,1,2,1
22.06,0,7,10,8,3,3,3,1
22.065,4,1,8,19,3,3,0,1
22.07,1,4,2,2,2,0,1,1
22.075,3,5,10,14,4,1,0,1
22.08,9,6,3,4,0,1,1,0
22.085,4,0,2,1,1,1,1,1
22.09,2,1,3,7,3,4,2,1
22.095,6,4,2,4,1,2,2,2
22.1,12,2,1,9,1,1,1,2
22.105,7,8,8,21,8,1,1,1
22.11,1,3,4,4,3,1,1,0
22.115,5,1,3,11,1,0,0,2
22.12,1,0,1,0,0,1,1,2
22.125,0,1,14,22,6,5,4,2
22.13,3,3,6,19,6,0,1,3
22.135,4,2,3,0,2,1,0,1
22.14,1,0,4,0,3,0,0,2
22.145,2,2,3,6,2,0,2,1
22.15,1,1,3,9,1,2,0,0
22.155,1,0,1,4,4,0,1,2
22.16,0,1,7,2,1,2,1,2
22.165,2,5,5,5,4,1,0,0
22.17,3,7,8,5,1,1,1,2
22.175,1,1,2,2,3,0,1,2
22.18,1,2,5,2,1,2,2,0
22.185,2,1,4,5,1,2,1,1
22.19,3,2,6,0,4,0,0,1
22.195,1,3,1,5,0,2,2,1
22.2,0,3,10,18,3,1,1,1
22.205,12,5,3,8,0,0,2,2
22.21,2,1,10,10,2,2,1,1
22.215,2,2,8,12,6,3,1,0
22.22,2,5,14,33,3,2,2,1
22.225,0,0,8,11,2,0,0,1
22.23,1,1,3,5,1,0,0,1
22.235,4,4,5,11,4,1,1,1
22.24,0,3,8,17,1,1,1,1
22.245,3,4,5,12,3,4,2,3
22.25,2,0,3,2,0,0,1,0
22.255,0,3,3,1,2,2,2,0
22.26,3,4,10,5,4,0,1,0
22.265,1,2,2,0,1,1,3,1
22.27,1,2,2,0,3,2,1,1
22.275,4,2,0,4,6,1,0,2
22.28,11,11,4,3,10,3,1,2
22.285,0,3,6,9,8,0,1,0
22.29,3,5,7,2,1,3,3,1
22.295,1,1,6,8,3,1,1,0
22.3,4,8,14,9,3,1,2,0
22.305,1,5,6,5,1,1,2,0
22.31,2,1,1,6,1,1,1,2
22.315,2,3,4,0,1,1,2,2
22.32,1,2,2,4,1,2,1,2
22.325,6,3,3,7,4,1,1,2
22.33,1,1,7,5,1,3,3,1
22.335,3,1,3,30,6,1,1,1
22.34,3,0,1,5,1,2,0,1
22.345,3,2,1,7,4,4,1,1
22.35,3,2,8,15,2,1,3,2
22.355,1,2,3,4,5,2,2,0
22.36,1,3,2,7,5,1,1,0
22.365,3,4,4,4,1,2,1,0
22.37,0,3,8,4,1,0,0,2
22.375,4,2,2,3,4,5,4,3
22.38,1,0,2,1,3,0,1,1
22.385,1,1,1,0,1,0,1,1
22.39,2,2,3,10,5,2,1,1
22.395,0,2,4,0,1,0,0,1
22.4,4,1,2,5,0,3,2,2
22.405,1,3,5,5,5,3,2,0
22.41,0,4,7,5,2,0,1,1
22.415,0,3,3,1,2,1,1,1
22.42,2,6,2,7,2,4,1,1
22.425,1,0,4,5,1,1,1,2
22.43,1,3,1,12,5,2,0,1
22.435,2,5,9,3,2,1,1,1
22.44,1,3,3,4,1,1,1,1
22.445,2,2,2,6,2,1,1,0
22.45,0,0,4,3,1,1,0,0
22.455,2,2,9,16,3,0,1,1
22.46,1,3,23,22,5,1,1,0
22.465,1,2,3,7,6,5,1,1
22.47,3,6,7,4,3,0,3,0
22.475,1,1,0,13,1,0,1,0
22.48,1,1,11,32,5,1,2,1
22.485,2,4,8,23,10,2,3,2
22.49,2,3,3,7,2,0,1,2
22.495,2,2,6,10,3,1,2,1
22.5,0,0,1,3,0,1,0,1
22.505,2,0,1,5,1,2,1,1
22.51,0,3,5,1,2,0,1,0
22.515,3,2,1,3,6,0,3,0
22.52,0,1,2,5,0,0,1,0
22.525,0,1,1,4,1,1,1,0
22.53,1,0,3,4,2,3,2,2
22.535,2,2,1,0,1,3,1,2
22.54,2,2,2,3,0,1,2,0
22.545,1,3,4,8,4,1,0,2
22.55,2,4,0,1,0,0,1,1
22.555,0,5,10,2,2,0,2,1
22.56,2,4,5,21,5,2,2,0
22.565,1,3,10,24,1,1,2,0
22.57,1,4,7,7,1,1,0,2
22.575,2,1,0,5,2,1,0,1
22.58,1,2,7,2,2,2,2,1
22.585,1,1,4,7,1,1,1,1
22.59,1,2,4,4,2,1,1,1
22.595,2,2,3,10,4,1,3,1
22.6,0,1,4,1,5,1,0,1
22.605,2,2,4,1,4,1,1,2
22.61,2,6,19,4,2,2,2,3
22.615,0,1,4,14,2,3,0,0
22.62,2,1,0,2,4,3,1,1
22.625,1,2,4,1,3,1,2,0
22.63,0,2,1,2,0,2,1,2
22.635,3,2,4,4,4,4,1,0
22.64,1,0,1,1,3,0,1,1
22.645,1,0,8,10,1,1,0,0
22.65,3,4,14,22,3,3,3,2
22.655,2,2,3,9,2,1,0,0
22.66,1,3,7,2,4,2,3,4
22.665,5,2,18,10,0,2,1,5
22.67,2,2,33,30,9,3,2,5
22.675,24,13,33,25,12,3,3,9
22.68,5,6,4,17,2,2,2,1
22.685,20,5,14,11,9,3,0,1
22.69,27,10,21,0,3,3,1,5
22.695,41,8,8,5,2,3,1,1
22.7,24,1,18,48,10,2,0,12
22.705,31,11,21,62,4,2,3,18
22.71,96,16,7,58,1,2,5,17
22.715,74,4,4,25,10,4,4,6
22.72,18,8,19,30,4,1,3,14
22.725,1,14,36,75,16,5,1,1
22.73,16,8,45,87,12,4,7,16
22.735,17,2,36,72,4,2,0,2
22.74,27,2,10,11,6,0,3,3
22.745,15,11,27,24,12,6,2,5
22.75,19,3,30,28,14,6,3,7
22.755,25,3,29,49,17,6,3,4
22.76,4,5,16,2,1,3,4,12
22.765,10,3,5,45,4,3,1,0
22.77,1,4,6,32,7,4,4,2
22.775,19,13,24,0,10,4,1,1
22.78,5,9,22,15,3,1,2,8
22.785,19,8,28,46,5,1,2,3
22.79,31,4,20,45,1,3,1,8
22.795,10,6,3,35,9,6,5,10
22.8,14,1,8,5,2,1,1,2
22.805,12,12,10,2,6,3,7,11
22.81,30,9,20,1,5,2,1,1
22.815,2,6,7,3,6,2,4,8
22.82,14,8,4,16,2,4,3,3
22.825,0,0,1,29,4,1,0,3
22.83,5,3,15,8,4,1,2,2
22.835,8,5,11,3,4,0,1,3
22.84,1,3,24,31,7,1,1,3
22.845,4,11,18,47,5,2,2,5
22.85,7,9,14,13,6,3,4,6
22.855,7,6,6,34,6,5,5,6
22.86,3,0,4,19,11,5,1,5
22.865,1,6,32,36,11,5,0,2
22.87,11,10,37,51,14,5,4,6
22.875,11,3,0,12,2,1,3,0
22.88,5,6,21,12,3,2,1,4
22.885,7,0,7,1,3,2,1,4
22.89,0,9,21,5,6,1,1,1
22.895,5,6,18,13,5,0,2,1
22.9,7,2,4,4,1,0,1,3
22.905,4,1,10,12,1,0,0,2
22.91,11,4,5,1,8,3,0,4
22.915,27,5,17,1,3,3,4,11
22.92,7,6,31,22,2,2,2,2
22.925,2,2,12,20,1,1,1,5
22.93,12,6,20,48,6,1,1,3
22.935,7,7,27,38,3,2,3,4
22.94,0,6,17,7,4,1,2,4
22.945,5,2,16,1,2,0,1,1
22.95,10,3,11,31,5,2,1,2
22.955,15,2,3,17,1,1,1,2
22.96,1,4,4,39,9,3,1,1
22.965,3,7,15,28,8,4,2,0
22.97,0,2,0,10,2,1,1,1
22.975,7,3,3,2,2,0,0,3
22.98,7,5,25,29,5,1,0,1
22.985,7,1,6,6,6,4,3,2
22.99,0,3,2,17,2,2,2,3
22.995,7,5,13,2,5,1,1,2
23,2,4,9,0,7,1,0,0
23.005,5,4,14,9,0,1,1,3
23.01,11,1,2,15,0,1,0,1
23.015,6,2,4,31,3,3,1,0
23.02,7,6,7,23,4,5,3,4
23.025,4,3,20,12,7,1,1,2
23.03,8,4,2,7,4,2,1,3
23.035,5,6,25,55,10,1,1,0
23.04,0,2,1,0,1,1,0,0
23.045,2,0,12,44,4,0,1,1
23.05,8,5,16,44,6,2,2,2
23.055,5,13,37,61,12,6,3,8
23.06,2,5,8,1,4,1,4,2
23.065,5,6,3,1,0,1,0,0
23.07,1,1,5,10,4,2,0,0
23.075,1,3,15,40,6,2,0,1
23.08,4,10,21,34,15,7,4,5
23.085,2,1,4,1,2,0,0,2
23.09,0,2,3,17,6,2,1,2
23.095,5,5,14,21,1,4,1,3
23.1,0,4,7,15,9,4,2,0
23.105,2,5,33,61,7,0,1,1
23.11,5,7,33,88,13,4,4,5
23.115,1,2,1,5,4,2,3,2
23.12,9,1,3,7,1,1,0,2
23.125,9,5,6,7,2,3,4,4
23.13,4,0,4,15,0,1,0,0
23.135,7,7,19,20,2,0,0,1
23.14,13,2,13,25,2,2,2,1
23.145,19,0,5,13,3,0,1,2
23.15,8,5,7,7,1,2,2,4
23.155,3,2,0,3,1,1,1,1
23.16,3,2,14,22,0,1,1,2
23.165,3,2,12,49,7,2,1,3
23.17,1,1,17,2,1,1,0,4
23.175,1,4,7,28,2,2,1,1
23.18,2,2,3,20,0,1,3,7
23.185,9,11,39,20,11,4,2,2
23.19,3,3,19,14,1,2,1,0
23.195,2,3,4,14,6,4,1,2
23.2,0,3,0,8,4,5,3,3
23.205,1,9,16,19,1,0,2,2
23.21,4,4,5,33,6,1,1,1
23.215,2,0,1,28,1,1,1,3
23.22,0,5,16,54,9,6,2,1
23.225,6,7,28,14,3,2,0,1
23.23,12,12,40,43,7,3,2,1
23.235,4,1,7,12,3,2,1,0
23.24,1,4,17,38,6,1,2,1
23.245,2,12,25,17,5,3,1,2
23.25,2,6,26,40,8,0,1,1
23.255,1,2,1,25,3,0,2,0
23.26,6,2,11,17,1,1,1,1
23.265,8,16,33,22,9,6,3,1
23.27,3,1,0,8,2,2,0,2
23.275,3,4,27,70,8,2,1,1
23.28,0,1,1,12,0,1,2,1
23.285,4,4,8,12,1,3,2,3
23.29,1,3,10,2,0,3,2,0
23.295,0,2,5,9,4,1,1,2
23.3,2,5,12,16,6,1,0,2
23.305,2,1,11,16,5,6,1,1
23.31,0,6,11,20,12,6,3,3
23.315,4,6,5,9,3,2,1,3
23.32,3,1,4,9,1,0,2,2
23.325,2,7,28,42,7,3,0,2
23.33,0,1,1,5,0,1,0,0
23.335,3,3,8,11,1,2,2,2
23.34,1,5,8,3,4,3,0,2
23.345,2,0,0,12,1,1,0,2
23.35,0,4,11,9,1,0,1,0
23.355,1,1,6,4,1,1,0,1
23.36,1,0,2,15,0,5,2,1
23.365,1,4,12,43,4,0,2,1
23.37,7,12,6,10,10,4,1,2
23.375,0,4,7,17,3,1,3,2
23.38,11,3,11,33,1,1,1,1
23.385,7,4,5,17,6,1,2,1
23.39,8,4,1,11,2,3,3,2
23.395,8,1,14,20,2,2,5,3
23.4,2,9,9,7,6,1,1,1
23.405,8,1,3,3,4,4,1,1
23.41,18,9,3,4,3,2,2,2
23.415,13,5,5,4,7,5,2,1
23.42,1,6,3,4,2,5,2,2
23.425,10,12,3,7,2,2,1,2
23.43,10,7,8,1,1,2,1,3
23.435,12,2,1,5,8,6,3,1
23.44,11,2,18,18,10,6,6,7
23.445,4,1,3,2,3,4,1,1
23.45,19,2,0,2,1,2,1,2
23.455,9,10,1,12,2,1,2,2
23.46,12,7,3,11,2,0,1,3
23.465,4,8,12,11,15,6,1,3
23.47,11,5,3,2,10,1,1,2
23.475,2,4,4,7,4,2,1,0
23.48,8,5,6,11,5,1,1,1
23.485,5,17,3,3,6,6,5,4
23.49,4,5,1,2,2,1,1,1
23.495,12,10,12,20,5,1,0,1
23.5,3,5,10,9,1,0,2,0
23.505,2,12,3,10,0,2,1,1
23.51,3,0,1,4,2,1,1,1
23.515,1,1,3,4,3,2,1,1
23.52,7,8,1,5,0,0,0,1
23.525,0,4,8,7,1,3,3,4
23.53,3,2,2,1,1,2,1,1
23.535,5,3,0,6,2,3,1,0
23.54,1,4,8,24,6,0,1,1
23.545,3,6,21,21,11,3,3,1
23.55,3,4,16,16,7,4,4,0
23.555,8,1,4,2,3,5,2,6
23.56,4,6,12,11,7,3,1,4
23.565,5,3,14,7,2,2,1,2
23.57,2,3,9,5,0,1,0,2
23.575,2,0,6,2,2,1,1,2
23.58,3,3,11,11,4,3,0,1
23.585,4,2,6,3,1,2,2,2
23.59,3,1,3,19,4,0,1,0
23.595,5,2,3,3,2,1,1,0
23.6,6,1,3,0,7,2,1,0
23.605,4,2,4,2,2,2,1,0
23.61,5,2,3,13,1,1,0,1
23.615,7,4,6,5,3,0,1,0
23.62,0,4,3,6,3,2,2,0
23.625,2,0,3,3,3,1,2,1
23.63,3,5,1,2,3,1,1,2
23.635,4,1,2,5,4,2,1,2
23.64,5,1,3,6,1,1,0,2
23.645,0,2,8,16,1,1,2,0
23.65,3,6,22,17,4,3,2,3
23.655,2,1,7,17,5,4,2,2
23.66,2,5,1,4,2,0,1,1
23.665,0,2,8,3,3,0,1,1
23.67,4,5,22,14,0,1,3,0
23.675,2,1,5,20,5,1,0,2
23.68,0,5,3,3,5,4,1,1
23.685,2,1,9,16,7,1,1,2
23.69,2,5,6,1,9,2,1,1
23.695,2,1,3,16,2,0,0,0
23.7,3,3,15,41,12,6,2,2
23.705,3,3,3,1,2,3,1,1
23.71,4,2,4,6,5,1,1,1
23.715,4,3,4,5,2,1,0,3
23.72,3,1,13,35,3,1,2,0
23.725,5,1,18,25,1,0,0,2
23.73,4,0,3,4,3,3,1,0
23.735,4,2,4,1,4,2,0,0
23.74,2,2,3,1,4,1,1,1
23.745,1,2,1,4,1,3,2,0
23.75,2,0,4,21,2,3,1,1
23.755,0,3,1,9,0,0,3,1
23.76,2,4,5,2,2,1,2,1
23.765,4,2,2,0,1,2,2,1
23.77,2,2,5,7,1,2,1,0
23.775,1,3,4,3,2,3,1,1
23.78,1,2,6,8,4,1,1,1
23.785,0,1,7,10,4,0,1,1
23.79,4,3,5,9,1,1,1,2
23.795,0,5,12,20,6,1,2,1
23.8,5,1,2,7,5,1,2,1
23.805,1,1,7,2,3,1,1,0
23.81,0,2,6,5,5,1,1,2
23.815,2,2,17,10,0,1,2,2
23.82,0,1,11,2,3,2,2,1
23.825,1,6,13,10,6,2,4,1
23.83,3,1,1,3,1,1,1,1
23.835,4,0,8,8,1,1,1,1
23.84,2,4,18,8,0,3,2,3
23.845,2,3,5,1,3,2,1,0
23.85,0,2,5,1,4,4,3,0
23.855,1,6,5,3,1,2,0,2
23.86,1,2,1,5,3,1,1,1
23.865,3,4,4,1,5,1,0,1
23.87,2,1,7,9,7,2,2,1
23.875,1,1,6,9,3,1,2,1
23.88,2,0,1,3,6,2,1,0
23.885,1,2,11,16,3,2,0,1
23.89,3,3,30,32,8,2,0,0
23.895,3,3,0,3,6,4,1,2
23.9,1,1,1,0,1,0,1,0
23.905,1,0,2,2,0,2,2,2
23.91,0,3,8,11,5,2,1,0
23.915,1,1,0,1,1,1,0,0
23.92,1,6,2,7,2,1,0,1
23.925,1,4,6,8,3,0,1,1
23.93,3,2,0,0,2,3,3,1
23.935,1,3,7,8,1,1,1,2
23.94,2,0,0,11,4,1,1,2
23.945,0,3,1,14,2,0,2,2
23.95,1,2,2,1,1,0,1,2
23.955,2,2,0,1,3,0,2,2
23.96,2,1,6,4,1,1,0,2
23.965,1,2,12,19,5,1,1,1
23.97,3,2,5,7,1,1,0,2
23.975,3,1,1,5,1,1,0,1
23.98,3,1,0,11,5,2,2,1
23.985,3,3,4,0,0,1,1,1
23.99,1,4,7,9,3,3,2,1
23.995,1,0,0,0,1,4,0,1
24,2,2,1,10,2,2,0,2
24.005,8,5,1,3,3,0,0,0
24.01,9,2,10,15,1,5,4,2
24.015,7,11,25,32,6,0,4,3
24.02,0,3,6,6,3,2,3,2
24.025,2,1,1,5,1,3,1,2
24.03,0,5,3,1,1,1,0,2
24.035,0,2,12,10,1,1,2,1
24.04,2,1,14,8,5,3,1,2
24.045,4,8,9,9,1,0,2,2
24.05,1,1,0,2,3,0,1,1
24.055,1,2,5,8,2,1,0,1
24.06,0,2,7,6,2,2,1,0
24.065,3,1,2,5,0,0,0,1
24.07,2,7,8,4,0,0,1,1
24.075,1,0,2,2,1,2,2,2
24.08,1,1,1,3,3,1,1,1
24.085,3,3,4,13,10,5,2,2
24.09,0,1,1,7,6,2,1,1
24.095,1,1,1,3,4,2,2,2
24.1,3,3,1,5,6,2,1,1
24.105,3,3,4,2,0,2,0,2
24.11,0,2,9,6,6,2,1,2
24.115,1,1,0,10,0,2,1,1
24.12,2,2,2,3,1,2,0,2
24.125,2,3,3,2,0,1,1,0
24.13,1,4,2,10,5,1,1,1
24.135,2,7,26,50,6,1,1,5
24.14,6,7,38,49,8,3,3,4
24.145,2,9,26,29,11,5,5,11
24.15,15,11,50,12,5,0,1,4
24.155,10,8,36,10,3,1,1,0
24.16,28,17,28,16,8,4,3,1
24.165,4,12,31,42,12,4,3,5
24.17,34,9,16,21,11,8,2,3
24.175,10,2,8,47,4,0,2,1
24.18,19,13,40,47,12,3,3,1
24.185,15,6,27,39,4,2,3,3
24.19,29,1,17,42,8,2,2,7
24.195,27,7,7,4,1,1,7,10
24.2,8,8,1,6,9,4,8,8
24.205,16,10,46,82,16,4,7,17
24.21,4,21,44,82,12,5,6,16
24.215,4,24,67,60,14,6,6,3
24.22,24,8,46,58,11,1,1,3
24.225,13,0,9,1,3,4,0,1
24.23,15,11,29,54,6,3,6,16
24.235,14,2,9,26,8,4,5,3
24.24,56,3,9,19,3,2,1,7
24.245,32,3,21,30,7,4,4,5
24.25,33,3,29,48,6,5,4,4
24.255,23,2,8,18,10,7,4,7
24.26,19,13,33,55,4,0,1,2
24.265,43,4,11,15,5,0,1,9
24.27,10,0,14,18,7,4,3,1
24.275,4,6,19,3,7,3,3,3
24.28,4,7,22,16,8,2,1,1
24.285,20,7,3,14,1,0,1,6
24.29,5,14,43,28,9,4,2,3
24.295,5,3,28,38,2,1,4,7
24.3,2,3,7,12,0,2,0,1
24.305,5,7,3,7,2,1,1,4
24.31,13,1,7,10,1,2,1,3
24.315,10,1,13,19,3,0,0,1
24.32,20,18,53,85,19,4,2,6
24.325,14,20,49,77,19,6,4,5
24.33,1,8,12,10,4,2,2,1
24.335,2,13,28,27,8,5,5,2
24.34,16,3,1,39,13,5,2,0
24.345,18,7,12,32,12,4,1,4
24.35,22,10,20,6,7,1,1,5
24.355,8,9,20,10,4,1,3,2
24.36,8,5,1,14,2,2,0,2
24.365,11,6,15,19,2,3,0,3
24.37,0,2,13,3,1,3,1,1
24.375,8,1,5,5,1,0,2,1
24.38,3,4,1,12,1,2,2,9
24.385,8,4,18,30,8,3,5,12
24.39,1,4,4,20,7,3,4,4
24.395,17,3,10,7,4,2,2,4
24.4,12,5,17,17,5,2,2,2
24.405,3,2,18,2,5,2,2,1
24.41,10,2,12,21,1,1,1,1
24.415,12,0,9,17,6,3,1,1
24.42,5,9,29,29,0,2,1,3
24.425,5,11,38,60,9,0,2,5
24.43,2,4,2,17,1,0,2,1
24.435,6,15,14,46,14,10,5,8
24.44,5,4,18,11,1,1,1,1
24.445,14,1,13,2,1,1,1,5
24.45,4,6,16,35,8,2,1,3
24.455,4,6,17,26,9,2,1,1
24.46,12,0,7,6,4,4,4,6
24.465,13,3,6,21,2,1,0,2
24.47,5,2,12,10,0,1,2,1
24.475,5,12,6,20,0,2,1,2
24.48,3,19,18,19,2,1,0,1
24.485,4,1,0,19,2,0,0,2
24.49,7,7,9,1,3,5,3,3
24.495,3,1,9,5,1,0,2,2
24.5,6,9,10,5,2,0,1,0
24.505,0,3,18,23,3,2,2,3
24.51,3,3,30,39,3,0,1,1
24.515,0,5,3,1,2,1,0,2
24.52,3,4,6,17,2,1,0,0
24.525,2,5,13,19,10,1,1,2
24.53,1,1,10,16,6,2,1,1
24.535,2,2,1,11,1,2,1,2
24.54,2,0,8,4,5,3,1,1
24.545,1,4,1,10,2,0,2,2
24.55,7,2,13,9,0,0,2,4
24.555,3,7,28,7,2,2,2,1
24.56,7,5,3,9,2,3,4,4
24.565,3,3,17,15,5,3,2,4
24.57,6,3,1,23,5,4,0,1
24.575,0,5,8,18,5,2,0,0
24.58,4,5,15,20,1,1,2,1
24.585,13,9,26,25,6,2,3,3
24.59,0,0,11,13,3,0,1,1
24.595,5,5,9,17,3,1,2,4
24.6,7,1,4,16,2,0,0,4
24.605,4,1,1,12,2,1,2,3
24.61,3,6,20,12,5,3,4,5
24.615,13,2,18,8,0,3,1,1
24.62,14,7,8,25,4,3,1,1
24.625,6,5,0,9,7,5,1,0
24.63,2,7,7,8,4,5,3,4
24.635,2,4,11,21,5,2,1,1
24.64,6,1,1,13,0,0,2,2
24.645,3,0,6,20,1,0,0,1
24.65,2,3,14,22,0,2,1,3
24.655,4,3,2,10,2,3,1,2
24.66,14,7,16,7,5,2,2,1
24.665,3,5,24,50,7,2,3,4
24.67,0,5,10,3,1,1,0,1
24.675,1,0,15,23,2,3,2,3
24.68,4,2,2,1,4,2,1,2
24.685,5,4,14,4,5,3,2,1
24.69,3,7,10,12,4,1,0,3
24.695,4,0,1,29,10,2,1,1
24.7,6,0,4,1,3,1,0,0
24.705,2,5,21,54,5,0,2,0
24.71,2,2,12,26,3,2,2,3
24.715,2,7,15,33,1,1,1,1
24.72,6,10,22,30,14,6,3,2
24.725,5,1,6,6,2,1,0,0
24.73,1,6,15,34,3,0,1,2
24.735,4,1,4,16,7,3,1,2
24.74,0,9,26,19,8,6,3,5
24.745,7,6,16,59,14,6,3,3
24.75,7,1,9,9,1,1,0,2
24.755,21,4,7,18,2,2,1,1
24.76,13,17,39,49,12,5,3,1
24.765,4,13,31,9,9,3,2,2
24.77,2,2,3,17,2,0,1,0
24.775,5,8,2,22,4,2,0,0
24.78,8,1,8,14,6,4,3,2
24.785,15,3,15,22,6,1,1,1
24.79,4,0,14,4,1,1,0,0
24.795,2,14,34,9,2,0,1,2
24.8,7,15,35,5,3,1,2,1
24.805,7,2,5,1,0,1,0,1
24.81,1,3,3,4,1,2,1,0
24.815,3,6,9,22,1,0,0,1
24.82,3,3,10,25,6,3,3,5
24.825,0,1,6,1,2,2,2,2
24.83,2,1,5,0,2,1,1,1
24.835,4,2,20,20,2,1,2,3
24.84,3,3,11,15,8,4,0,3
24.845,1,0,11,48,1,0,0,1
24.85,4,3,2,5,3,2,2,3
24.855,2,1,0,8,5,1,1,1
24.86,12,6,12,20,6,3,2,4
24.865,5,7,21,3,4,0,1,0
24.87,1,3,14,2,2,3,1,0
24.875,3,6,10,16,1,3,2,2
24.88,9,5,22,18,6,3,0,0
24.885,3,0,7,11,1,0,0,1
24.89,3,2,1,0,3,3,2,2
24.895,2,7,14,7,3,2,1,2
24.9,2,1,29,15,2,3,2,3
24.905,3,2,5,11,1,2,1,1
24.91,1,1,2,16,1,3,1,1
24.915,0,0,5,7,5,4,0,0
24.92,3,5,10,24,6,4,1,0
24.925,2,14,12,11,4,8,1,2
24.93,3,0,6,15,6,1,1,1
24.935,2,2,10,40,5,4,1,2
24.94,3,5,3,15,2,4,2,0
24.945,8,2,1,2,1,1,1,1
24.95,7,2,8,13,4,2,1,3
24.955,1,2,0,1,9,7,2,3
24.96,5,8,12,8,14,7,1,1
24.965,2,4,1,13,6,5,1,0
24.97,0,2,8,23,3,3,2,1
24.975,3,4,17,36,18,2,2,3
24.98,5,4,15,4,7,6,3,1
24.985,13,15,7,0,4,2,1,3
24.99,1,0,3,17,11,5,3,2
24.995,6,2,8,17,6,2,2,1
25,5,2,3,3,7,8,3,0
25.005,1,0,6,6,4,1,1,1
25.01,2,4,7,21,1,3,1,0
25.015,4,6,4,26,6,5,2,3
25.02,2,3,6,3,10,5,0,1
25.025,10,3,1,5,4,0,1,2
25.03,14,4,8,5,4,2,2,4
25.035,3,3,14,7,0,1,1,3
25.04,6,2,2,4,0,1,0,1
25.045,4,10,4,3,4,4,1,1
25.05,14,2,0,16,11,3,1,2
25.055,5,6,8,14,16,1,2,1
25.06,4,3,20,33,11,4,2,2
25.065,7,1,2,0,6,2,1,2
25.07,1,1,4,5,3,1,2,2
25.075,21,8,4,13,12,4,0,0
25.08,5,4,5,11,1,1,1,1
25.085,7,3,1,5,4,4,4,3
25.09,11,7,7,14,8,1,0,2
25.095,1,8,10,16,6,1,1,1
25.1,3,8,1,1,3,1,3,5
25.105,3,5,6,8,4,1,1,1
25.11,6,5,6,4,2,1,1,1
25.115,1,6,8,2,5,3,3,3
25.12,5,2,3,0,2,2,1,1
25.125,3,6,13,1,0,0,0,2
25.13,4,0,4,11,3,0,0,1
25.135,3,3,6,19,4,1,0,2
25.14,5,4,4,3,1,4,3,2
25.145,2,3,4,3,1,0,1,1
25.15,1,1,10,6,4,0,1,0
25.155,2,4,5,10,1,1,2,0
25.16,13,9,6,2,3,2,0,1
25.165,13,6,9,5,3,1,1,2
25.17,7,3,4,9,8,4,2,2
25.175,4,1,4,13,11,3,0,0
25.18,4,1,10,12,6,3,1,2
25.185,3,7,15,22,3,3,1,0
25.19,4,16,6,3,12,3,0,2
25.195,2,4,0,1,0,3,4,3
25.2,2,1,0,1,2,1,0,2
25.205,0,1,4,10,2,1,1,4
25.21,3,4,2,13,2,1,1,1
25.215,1,2,1,6,2,2,1,0
25.22,6,6,8,18,3,1,1,1
25.225,1,3,2,5,2,2,2,2
25.23,1,3,0,6,1,0,1,1
25.235,3,8,3,6,0,1,1,2
25.24,1,4,7,7,4,1,0,0
25.245,1,8,10,3,3,1,2,1
25.25,1,1,0,14,2,1,2,1
25.255,4,5,16,34,6,4,0,0
25.26,4,2,2,3,3,0,1,0
25.265,0,0,2,2,3,3,2,0
25.27,1,3,2,14,4,0,1,2
25.275,3,2,2,1,2,0,1,0
25.28,4,1,1,7,5,3,2,1
25.285,2,8,4,0,5,1,1,1
25.29,0,4,2,2,1,0,1,1
25.295,2,6,12,6,4,1,0,0
25.3,4,12,20,3,5,4,3,2
25.305,0,1,5,9,0,2,1,1
25.31,2,7,5,24,4,3,2,2
25.315,6,14,17,0,2,2,1,1
25.32,5,7,9,11,1,1,1,0
25.325,2,0,2,10,3,2,2,1
25.33,2,1,6,6,6,3,0,1
25.335,0,1,8,11,6,3,2,2
25.34,1,0,7,15,10,2,0,0
25.345,1,2,2,2,2,0,1,1
25.35,2,2,3,10,1,2,2,0
25.355,2,0,6,2,6,2,2,1
25.36,1,1,2,1,1,2,3,1
25.365,4,6,6,11,4,0,2,0
25.37,4,5,3,2,1,0,2,1
25.375,2,1,2,0,4,2,0,1
25.38,5,2,3,8,6,5,2,5
25.385,1,0,6,3,1,1,1,1
25.39,2,3,1,7,5,4,2,1
25.395,2,2,2,2,1,2,1,1
25.4,1,1,1,4,1,1,1,1
25.405,3,0,2,10,6,3,2,2
25.41,2,8,6,6,3,2,2,1
25.415,1,3,5,5,2,1,0,0
25.42,0,1,2,9,0,3,2,3
25.425,0,4,23,25,8,3,1,2
25.43,6,2,5,30,6,2,1,2
25.435,2,3,4,26,3,3,3,2
25.44,0,0,9,5,1,1,0,2
25.445,1,2,4,9,7,2,0,1
25.45,0,1,1,0,4,2,1,2
25.455,4,1,4,6,2,1,2,2
25.46,2,1,2,8,0,2,1,1
25.465,2,1,1,3,2,2,0,0
25.47,1,1,6,4,1,1,0,1
25.475,1,1,2,1,1,1,2,1
25.48,2,4,10,7,3,3,1,2
25.485,0,6,5,1,1,1,0,0
25.49,3,0,1,5,1,1,0,2
25.495,3,2,1,3,3,3,0,2
25.5,2,2,8,12,3,0,1,1
25.505,1,1,8,5,1,1,0,0
25.51,1,0,0,6,1,0,0,1
25.515,0,2,2,10,3,2,2,1
25.52,6,6,4,1,1,2,2,3
25.525,1,1,6,7,2,3,0,0
25.53,4,1,5,11,4,0,1,0
25.535,0,1,14,5,5,2,1,2
25.54,1,1,1,4,1,1,1,1
25.545,3,6,6,5,5,2,2,3
25.55,2,1,1,5,2,3,2,2
25.555,1,4,1,1,3,1,1,1
25.56,0,7,8,4,0,1,0,2
25.565,1,3,5,5,1,0,1,1
25.57,1,2,1,14,6,1,1,2
25.575,1,3,12,8,5,1,2,0
25.58,1,7,3,3,2,2,1,2
25.585,2,2,7,3,0,2,2,2
25.59,0,0,1,7,1,0,1,1
25.595,1,2,0,3,5,2,1,0
25.6,5,8,12,11,3,2,1,0
25.605,1,1,19,4,2,0,1,2
25.61,1,1,19,2,2,0,2,1
25.615,0,1,4,2,1,2,1,0
25.62,1,0,5,3,1,0,1,2
25.625,0,2,6,3,2,1,2,1
25.63,2,9,6,5,2,2,1,1
25.635,0,2,14,19,0,0,2,0
25.64,0,2,4,8,4,1,0,1
25.645,1,1,1,4,6,3,3,1
25.65,0,2,8,12,6,1,0,2
25.655,0,0,5,12,2,1,1,2
25.66,1,0,7,15,5,2,0,0
25.665,2,3,2,0,2,1,2,0
25.67,0,1,2,8,4,2,0,1
25.675,3,2,2,11,8,1,0,1
25.68,2,2,8,7,1,1,0,3
25.685,0,0,6,5,2,1,1,0
25.69,2,3,0,0,0,1,1,2
25.695,1,1,4,3,3,1,2,0
25.7,3,2,3,6,5,1,4,1
25.705,1,0,3,3,2,2,1,2
25.71,1,1,5,4,3,1,2,2
25.715,1,2,3,8,3,2,1,2
25.72,1,5,3,1,0,0,2,0
25.725,1,5,8,3,1,0,3,1
25.73,4,2,1,9,6,1,1,2
25.735,0,3,2,3,0,2,1,2
25.74,3,1,0,7,1,0,1,2
25.745,1,2,4,4,0,3,0,1
25.75,1,5,5,3,0,2,1,0
25.755,2,0,1,1,2,1,2,0
25.76,2,0,1,1,1,0,1,1
25.765,3,2,9,4,1,0,0,2
25.77,3,5,6,9,13,3,2,2
25.775,0,3,15,9,10,4,0,0
25.78,0,1,1,2,0,0,1,2
25.785,1,7,1,12,6,2,1,2
25.79,0,2,8,0,4,0,1,1
25.795,2,4,4,6,11,4,2,1
25.8,0,1,1,2,1,0,1,2
25.805,2,1,4,1,1,2,2,1
25.81,1,3,2,4,2,0,0,1
25.815,3,2,7,3,3,1,1,2
25.82,1,4,3,0,4,3,2,1
25.825,3,3,1,1,2,2,1,1
25.83,1,1,4,3,0,0,1,2
25.835,0,1,2,4,3,1,1,1
25.84,1,4,6,10,7,2,1,2
25.845,1,0,2,0,0,1,1,1
25.85,3,4,6,0,2,2,0,1
25.855,2,2,4,1,1,2,2,2
25.86,2,11,6,5,3,0,0,0
25.865,1,7,10,1,5,4,2,1
25.87,2,1,2,7,6,4,2,1
25.875,0,0,2,7,2,1,0,2
25.88,1,2,6,5,3,1,1,1
25.885,0,1,4,7,0,1,1,1
25.89,1,0,3,0,4,0,0,1
25.895,3,5,7,0,0,0,1,1
25.9,1,1,5,1,2,3,1,2
25.905,3,3,6,5,0,2,0,1
25.91,1,4,7,2,0,2,4,2
25.915,0,3,13,26,6,0,2,0
25.92,3,2,1,6,5,3,0,2
25.925,4,6,17,33,15,5,1,0
25.93,7,0,0,6,0,1,1,9
25.935,8,1,4,11,3,2,2,2
25.94,20,10,39,44,3,2,2,5
25.945,2,16,65,71,22,6,5,8
25.95,15,9,22,53,1,0,1,4
25.955,6,24,56,73,16,7,4,3
25.96,44,3,6,30,7,2,1,5
25.965,84,14,8,28,5,4,5,13
25.97,29,1,22,31,4,1,3,1
25.975,15,2,3,15,3,2,5,7
25.98,6,3,4,13,3,1,3,1
25.985,37,0,16,86,2,1,2,7
25.99,37,3,3,22,3,0,3,4
25.995,25,0,16,23,2,4,1,2
26,30,6,19,2,4,4,6,5
26.005,50,9,1,35,8,3,0,3
26.01,90,11,14,0,0,1,1,3
26.015,21,6,12,2,3,1,2,5
26.02,6,6,30,43,6,1,2,0
26.025,9,3,12,24,7,3,1,4
26.03,3,3,15,36,3,1,2,6
26.035,22,10,15,10,5,5,5,11
26.04,40,2,17,30,1,1,2,9
26.045,1,5,23,28,1,1,2,1
26.05,11,9,10,22,9,6,1,5
26.055,17,6,22,39,3,1,0,5
26.06,19,2,4,8,3,3,0,1
26.065,3,6,14,23,3,0,1,3
26.07,5,4,18,22,1,1,1,3
26.075,2,2,4,25,3,1,1,0
26.08,12,5,32,40,1,1,1,1
26.085,12,10,24,13,6,4,2,2
26.09,3,2,8,6,5,0,1,3
26.095,8,2,10,17,4,1,2,4
26.1,4,9,22,62,7,0,0,3
26.105,1,12,34,57,10,3,0,2
26.11,1,19,42,26,8,7,6,6
26.115,1,5,7,16,2,1,2,5
26.12,1,5,22,20,7,3,0,0
26.125,21,3,13,14,2,0,2,7
26.13,4,2,11,12,4,1,1,1
26.135,3,7,6,4,6,5,3,3
26.14,8,2,20,26,1,1,2,2
26.145,2,0,3,27,1,1,1,2
26.15,7,2,8,26,7,4,2,3
26.155,6,2,10,27,1,2,2,2
26.16,4,8,6,0,7,4,2,1
26.165,3,4,6,0,2,2,1,3
26.17,2,5,9,29,5,1,1,1
26.175,3,4,0,15,2,0,0,1
26.18,10,1,19,60,17,4,1,0
26.185,7,13,42,85,24,9,5,2
26.19,8,2,1,10,1,3,4,3
26.195,1,6,12,16,0,1,0,1
26.2,1,2,4,23,1,3,3,1
26.205,2,1,0,30,7,1,1,2
26.21,2,5,13,5,2,1,2,4
26.215,1,7,23,15,3,1,3,0
26.22,3,8,23,32,11,5,2,3
26.225,1,1,5,11,3,1,1,3
26.23,10,4,7,12,1,1,0,4
26.235,13,2,2,14,4,0,0,1
26.24,6,0,2,14,3,2,1,3
26.245,3,4,17,21,3,1,1,2
26.25,3,8,19,9,4,2,1,2
26.255,1,4,16,4,3,2,2,3
26.26,27,7,4,12,0,0,2,10
26.265,56,3,7,3,5,1,3,15
26.27,6,1,7,25,6,1,2,4
26.275,1,1,16,31,1,1,0,1
26.28,6,3,13,67,8,3,3,1
26.285,13,0,2,35,1,1,3,2
26.29,2,7,15,21,10,3,2,1
26.295,5,4,17,3,1,0,1,1
26.3,2,3,2,26,7,4,1,0
26.305,9,8,4,25,4,1,2,0
26.31,7,2,7,5,2,2,1,2
26.315,3,7,9,16,8,4,1,2
26.32,9,1,9,5,4,2,2,4
26.325,10,2,1,11,1,1,2,0
26.33,3,6,4,20,5,3,0,1
26.335,5,2,7,4,2,1,0,0
26.34,5,1,1,4,1,3,2,4
26.345,9,0,25,38,2,2,2,3
26.35,1,9,5,5,8,6,4,4
26.355,6,1,12,10,4,2,1,3
26.36,5,3,6,41,10,4,1,4
26.365,6,1,3,12,0,1,1,0
26.37,1,6,8,2,8,3,1,3
26.375,4,1,10,1,3,0,3,3
26.38,1,1,15,9,2,1,1,2
26.385,6,5,5,19,6,3,1,1
26.39,11,3,10,15,5,1,3,0
26.395,8,0,3,2,3,1,1,5
26.4,6,7,4,20,5,4,4,3
26.405,0,1,4,18,2,0,0,1
26.41,6,1,3,5,0,1,1,1
26.415,5,2,8,3,4,2,2,0
26.42,2,2,8,8,0,3,1,0
26.425,3,11,26,47,8,4,1,1
26.43,17,3,8,21,3,1,2,4
26.435,2,2,0,15,3,2,1,4
26.44,7,1,5,19,6,2,0,1
26.445,12,0,9,28,8,3,0,2
26.45,0,1,7,37,2,0,1,1
26.455,2,0,14,28,1,0,2,1
26.46,3,6,12,40,12,5,2,3
26.465,6,1,2,0,3,1,1,2
26.47,2,1,6,10,2,3,1,3
26.475,5,2,0,8,3,2,1,1
26.48,7,4,14,26,7,7,5,4
26.485,2,4,17,18,6,3,0,3
26.49,3,2,32,32,6,5,3,6
26.495,1,2,9,11,2,1,0,1
26.5,2,1,9,4,0,1,0,1
26.505,2,2,25,42,3,1,1,2
26.51,4,0,4,25,1,1,1,0
26.515,3,5,5,3,4,4,1,1
26.52,0,4,2,14,0,1,2,1
26.525,2,1,1,3,1,1,1,3
26.53,2,5,2,3,2,1,0,2
26.535,4,0,22,5,3,3,2,5
26.54,2,3,3,24,3,1,0,1
26.545,4,1,0,10,0,1,2,2
26.55,2,1,6,2,4,4,2,10
26.555,2,1,2,10,1,0,1,0
26.56,2,6,19,39,6,1,0,1
26.565,2,1,3,21,1,0,1,0
26.57,1,2,15,17,3,1,0,3
26.575,4,9,3,20,6,5,4,4
26.58,1,5,3,29,2,1,0,0
26.585,1,3,1,5,3,0,2,2
26.59,0,2,6,13,4,0,0,1
26.595,2,3,9,8,0,2,0,0
26.6,0,4,19,35,4,2,1,0
26.605,9,11,23,9,9,3,2,4
26.61,0,6,19,7,4,0,0,2
26.615,0,2,1,7,0,0,0,1
26.62,1,3,8,15,3,0,2,2
26.625,0,2,8,5,4,3,2,1
26.63,3,4,1,8,1,1,2,1
26.635,0,4,9,23,4,1,2,0
26.64,0,3,2,5,3,1,1,3
26.645,2,4,18,32,5,1,1,1
26.65,3,9,21,22,7,4,3,2
26.655,0,5,7,6,0,1,2,1
26.66,1,1,2,18,2,1,0,1
26.665,1,2,2,1,5,2,2,1
26.67,0,1,7,0,1,1,1,1
26.675,3,1,7,1,2,2,1,2
26.68,2,1,0,3,2,2,1,1
26.685,7,2,3,7,0,2,2,2
26.69,0,4,7,17,2,0,2,1
26.695,2,7,20,43,3,2,2,3
26.7,4,2,10,6,2,1,1,1
26.705,8,7,6,7,6,3,1,0
26.71,5,11,3,11,2,2,0,2
26.715,2,6,10,13,10,1,0,1
26.72,2,2,6,19,4,4,0,1
26.725,4,4,8,9,4,3,0,3
26.73,2,3,5,2,0,3,1,1
26.735,4,7,3,15,3,0,0,0
26.74,15,10,3,1,0,2,2,2
26.745,1,0,7,4,1,1,1,4
26.75,10,5,1,7,2,2,2,3
26.755,2,4,2,6,2,1,0,0
26.76,12,7,3,4,7,0,1,4
26.765,1,8,0,6,3,3,3,2
26.77,20,11,3,9,4,1,0,1
26.775,13,2,3,8,7,2,0,2
26.78,3,5,0,1,2,0,1,2
26.785,3,2,1,1,0,1,1,0
26.79,3,7,3,7,3,1,2,1
26.795,2,3,5,4,8,2,1,2
26.8,2,1,0,0,7,1,2,3
26.805,1,4,3,5,1,1,2,0
26.81,2,0,1,2,1,2,0,0
26.815,3,5,1,8,2,2,0,2
26.82,3,1,3,1,2,0,1,0
26.825,10,12,15,14,7,1,2,3
26.83,3,7,1,0,3,0,1,1
26.835,1,13,5,3,2,2,3,3
26.84,17,13,14,16,2,3,0,1
26.845,12,1,18,32,1,2,0,1
26.85,13,18,45,58,12,2,2,3
26.855,1,5,11,16,8,0,1,1
26.86,7,1,1,2,7,1,0,2
26.865,7,1,2,2,0,2,1,1
26.87,0,3,6,10,4,0,1,2
26.875,2,1,6,7,2,2,3,2
26.88,4,1,7,3,0,2,1,0
26.885,2,5,4,0,3,2,1,1
26.89,1,2,10,10,1,2,2,1
26.895,1,1,3,6,3,2,0,0
26.9,4,5,3,4,1,2,1,1
26.905,2,4,1,4,1,2,1,2
26.91,2,0,0,1,1,2,0,1
26.915,1,5,7,1,1,1,0,0
26.92,4,3,5,5,6,3,2,3
26.925,3,2,4,5,1,1,3,0
26.93,1,2,4,4,1,0,1,1
26.935,1,2,2,6,0,0,1,0
26.94,0,6,0,3,1,0,1,2
26.945,1,2,2,7,0,1,0,1
26.95,3,4,2,1,3,1,2,4
26.955,0,2,2,2,3,0,2,0
26.96,4,1,1,1,1,0,0,2
26.965,10,0,10,11,4,2,1,1
26.97,2,0,8,11,4,1,1,0
26.975,3,7,14,13,1,1,2,3
26.98,1,3,0,1,0,1,1,2
26.985,3,3,1,7,3,1,0,0
26.99,1,4,2,15,3,0,0,1
26.995,3,3,3,1,4,1,2,4
27,2,2,1,6,2,0,0,0
27.005,2,2,0,2,2,1,0,1
27.01,4,5,4,2,1,1,0,1
27.015,3,1,13,11,0,0,0,0
27.02,0,7,0,4,7,1,0,0
27.025,5,4,2,2,4,1,1,3
27.03,1,6,1,35,3,3,4,2
27.035,5,20,24,4,3,1,1,2
27.04,5,4,2,6,8,2,0,1
27.045,3,0,0,6,0,1,1,3
27.05,2,7,7,15,2,2,1,1
27.055,1,5,10,7,3,1,1,1
27.06,2,3,8,9,3,1,2,2
27.065,1,9,10,2,3,3,1,1
27.07,1,3,1,3,1,1,1,1
27.075,4,5,4,3,4,3,2,2
27.08,5,2,6,11,0,1,0,0
27.085,4,2,9,15,4,1,2,3
27.09,1,0,2,2,5,2,2,1
27.095,0,0,3,3,0,0,1,0
27.1,1,0,8,23,0,3,2,4
27.105,0,5,20,35,5,3,4,0
27.11,0,1,0,2,1,0,1,0
27.115,3,0,6,6,0,1,2,0
27.12,1,1,2,5,3,3,1,1
27.125,5,1,6,3,0,0,2,2
27.13,1,2,4,1,2,2,3,0
27.135,2,1,1,1,2,0,1,1
27.14,3,2,4,21,9,6,3,2
27.145,1,4,8,5,3,0,1,2
27.15,4,1,8,4,5,0,1,1
27.155,1,1,1,13,8,3,1,4
27.16,1,2,1,3,6,0,1,0
27.165,1,3,22,42,15,2,0,2
27.17,1,11,7,1,1,2,2,3
27.175,4,2,2,2,0,1,1,0
27.18,2,1,1,2,2,4,2,1
27.185,6,9,16,16,7,1,1,0
27.19,12,5,8,14,1,1,2,2
27.195,3,4,2,10,2,1,1,1
27.2,2,3,14,27,3,0,0,2
27.205,2,0,13,16,1,3,1,1
27.21,1,2,9,11,2,1,1,0
27.215,2,3,4,8,0,2,0,0
27.22,5,5,1,2,5,2,3,1
27.225,2,2,2,11,0,1,2,3
27.23,3,3,2,1,0,1,2,1
27.235,5,1,6,21,2,2,2,2
27.24,5,1,4,2,4,1,1,1
27.245,0,4,1,6,3,1,3,2
27.25,0,4,8,4,1,2,1,1
27.255,3,0,1,9,6,2,2,0
27.26,1,2,1,3,2,3,1,1
27.265,3,3,2,7,0,2,1,1
27.27,0,2,1,12,3,0,0,1
27.275,1,2,2,2,2,2,0,2
27.28,0,5,9,0,5,4,1,1
27.285,1,7,9,13,6,2,2,2
27.29,0,1,0,0,2,1,1,2
27.295,1,0,8,6,3,1,1,1
27.3,0,4,23,6,5,0,2,2
27.305,0,1,0,3,1,1,2,1
27.31,3,5,5,7,4,2,2,1
27.315,1,1,5,9,1,1,0,0
27.32,2,0,11,5,3,4,0,1
27.325,0,5,5,4,0,1,1,1
27.33,1,0,2,2,2,1,1,2
27.335,2,2,2,7,2,3,2,1
27.34,11,10,7,0,3,0,2,3
27.345,4,3,4,7,5,3,1,0
27.35,1,3,0,3,9,2,0,1
27.355,4,2,12,13,6,4,3,2
27.36,1,1,4,2,1,1,0,0
27.365,2,0,4,3,3,3,1,2
27.37,1,2,4,12,7,2,2,0
27.375,0,3,1,3,2,0,0,1
27.38,4,10,10,5,5,4,2,4
27.385,3,1,3,5,6,3,0,1
27.39,2,1,3,2,0,2,2,0
27.395,1,1,4,6,3,0,0,1
27.4,1,1,17,0,2,1,2,0
27.405,2,6,4,7,3,1,2,0
27.41,4,1,3,7,6,1,1,1
27.415,2,5,9,1,2,1,1,3
27.42,3,2,15,11,2,2,1,2
27.425,0,1,2,2,1,1,1,0
27.43,3,5,10,7,8,5,3,2
27.435,2,1,11,9,5,1,1,1
27.44,1,0,6,8,2,0,0,2
27.445,2,3,6,3,2,1,2,2
27.45,1,6,3,7,3,2,1,1
27.455,4,8,9,7,5,5,3,2
27.46,0,2,2,3,3,1,1,3
27.465,1,5,7,1,1,1,1,1
27.47,0,1,3,3,0,0,0,1
27.475,1,3,4,23,12,3,1,3
27.48,3,0,0,4,7,0,0,2
27.485,5,0,4,1,0,2,0,0
27.49,1,7,4,7,3,0,0,1
27.495,1,7,4,0,3,4,0,0
27.5,0,1,2,1,3,1,1,0
27.505,2,2,0,1,3,0,1,1
27.51,2,6,5,21,7,3,2,1
27.515,1,4,5,9,1,0,1,1
27.52,4,2,1,8,4,1,1,1
27.525,2,1,2,6,1,1,1,1
27.53,2,2,7,11,3,1,1,1
27.535,1,6,3,7,5,0,0,1
27.54,4,3,22,29,14,1,1,3
27.545,5,13,4,1,0,6,2,3
27.55,2,2,1,9,4,2,1,4
27.555,1,3,15,5,3,2,0,3
27.56,1,1,13,21,6,1,0,0
27.565,1,3,22,22,2,1,2,1
27.57,3,5,12,33,12,5,2,2
27.575,1,11,9,9,10,3,1,3
27.58,2,12,5,20,3,0,1,2
27.585,3,10,34,38,9,5,4,1
27.59,5,4,16,2,6,7,3,8
27.595,3,1,22,31,2,3,2,3
27.6,3,8,20,23,9,4,3,8
27.605,3,1,17,23,3,2,1,1
27.61,1,1,2,2,0,0,3,0
27.615,7,12,13,15,1,1,3,0
27.62,15,11,17,22,15,8,6,4
27.625,3,3,10,5,0,3,2,5
27.63,19,2,9,42,2,1,3,16
27.635,31,15,26,63,34,16,9,12
27.64,15,4,16,15,4,2,1,5
27.645,77,11,13,15,9,5,2,3
27.65,19,23,45,47,16,6,5,13
27.655,18,4,1,6,0,1,3,9
27.66,5,14,49,32,11,4,1,3
27.665,18,16,47,54,1,4,3,7
27.67,7,2,30,64,4,5,2,5
27.675,3,6,10,19,3,1,3,3
27.68,38,4,14,16,2,1,1,4
27.685,8,6,21,21,5,2,1,3
27.69,10,3,2,2,1,2,1,0
27.695,8,4,8,38,1,0,1,2
27.7,11,2,1,16,0,1,2,3
27.705,22,13,13,24,1,4,2,7
27.71,6,8,5,37,6,4,3,5
27.715,7,9,21,21,6,3,2,1
27.72,2,6,28,31,11,4,2,0
27.725,7,3,19,7,3,1,1,0
27.73,0,9,14,39,6,3,3,2
27.735,10,0,36,35,2,3,2,4
27.74,11,10,53,38,7,4,5,5
27.745,2,4,2,48,14,6,2,3
27.75,3,10,34,32,11,5,4,5
27.755,5,5,16,9,5,1,0,1
27.76,6,1,3,2,2,0,1,2
27.765,6,8,7,42,4,2,1,3
27.77,2,2,2,6,6,1,3,2
27.775,0,4,18,16,9,5,4,4
27.78,5,0,20,61,1,7,4,2
27.785,3,3,4,4,2,2,2,13
27.79,6,6,18,3,3,1,1,1
27.795,3,6,21,11,4,3,2,0
27.8,0,1,4,10,2,2,1,2
27.805,6,3,12,7,1,3,0,2
27.81,24,4,11,11,1,2,1,6
27.815,2,12,18,47,4,1,2,3
27.82,5,4,17,3,0,0,2,2
27.825,2,4,15,45,1,2,2,1
27.83,9,1,9,0,4,0,2,2
27.835,1,0,4,7,6,1,1,4
27.84,7,1,14,12,3,2,3,5
27.845,8,3,18,4,3,1,2,1
27.85,6,10,22,21,1,1,2,1
27.855,4,9,22,51,7,2,0,1
27.86,3,3,4,44,10,3,1,5
27.865,2,3,8,54,6,0,2,2
27.87,5,16,21,82,17,8,5,4
27.875,9,2,4,1,4,1,1,2
27.88,11,4,10,31,8,3,1,2
27.885,7,3,9,23,4,2,1,3
27.89,5,7,14,15,2,2,1,3
27.895,6,2,9,27,5,2,2,0
27.9,7,0,2,7,0,2,2,5
27.905,0,2,1,10,3,0,3,1
27.91,10,1,10,20,1,0,1,0
27.915,2,2,3,12,6,2,2,1
27.92,6,7,6,44,2,3,0,4
27.925,3,8,28,82,7,1,1,1
27.93,2,1,5,8,4,2,3,2
27.935,0,1,2,21,0,3,0,3
27.94,17,2,2,11,5,2,2,9
27.945,3,1,6,21,4,1,1,2
27.95,1,5,5,22,2,1,0,1
27.955,6,2,18,15,4,1,0,4
27.96,3,4,11,56,7,2,0,5
27.965,4,12,9,29,2,3,5,6
27.97,11,4,5,3,1,1,0,0
27.975,19,4,5,30,3,1,3,3
27.98,0,3,5,0,2,0,3,3
27.985,1,5,9,15,0,2,2,2
27.99,2,4,17,24,2,2,0,2
27.995,8,1,7,22,1,1,0,3
28,10,12,4,5,4,1,0,0
28.005,12,2,12,10,5,1,0,0
28.01,9,1,12,19,2,2,2,4
28.015,4,1,2,43,1,0,1,1
28.02,1,8,20,0,5,1,0,0
28.025,7,8,11,4,7,5,4,3
28.03,4,2,16,30,8,1,2,0
28.035,1,0,4,14,7,1,1,1
28.04,6,4,4,10,2,0,1,1
28.045,2,6,22,15,5,1,2,0
28.05,8,14,24,3,7,5,6,6
28.055,5,2,9,36,5,0,1,3
28.06,5,1,28,70,13,4,2,8
28.065,5,7,9,10,3,2,0,2
28.07,9,5,18,14,7,4,2,4
28.075,6,8,6,6,6,4,3,2
28.08,1,8,24,36,7,1,1,3
28.085,1,10,23,19,1,2,0,0
28.09,7,11,10,14,4,0,3,2
28.095,2,2,4,5,2,1,0,2
28.1,1,8,26,23,4,2,1,2
28.105,3,4,23,26,3,0,0,0
28.11,9,6,19,18,5,1,1,0
28.115,1,1,5,5,3,2,0,3
28.12,2,5,1,1,1,0,1,2
28.125,1,9,16,7,7,2,0,1
28.13,3,2,1,13,2,3,2,1
28.135,1,8,15,11,3,2,2,2
28.14,1,6,30,42,3,1,0,1
28.145,12,14,41,36,6,5,4,4
28.15,12,3,11,12,2,1,1,2
28.155,6,4,5,18,3,2,2,3
28.16,0,4,3,14,1,0,0,3
28.165,6,4,0,4,0,2,2,1
28.17,5,3,13,28,5,4,1,2
28.175,4,1,3,6,3,0,2,3
28.18,4,3,7,22,4,2,1,2
28.185,0,2,6,31,5,0,2,0
28.19,13,9,24,17,3,3,2,1
28.195,15,12,30,36,6,4,4,0
28.2,2,4,15,11,2,2,1,5
28.205,5,6,25,2,0,0,0,0
28.21,5,4,12,6,2,1,0,1
28.215,5,8,13,21,3,1,0,2
28.22,1,11,22,20,8,2,2,4
28.225,2,3,7,7,5,3,2,1
28.23,3,3,20,32,13,6,1,1
28.235,4,7,10,23,5,0,1,1
28.24,2,3,23,9,4,5,4,3
28.245,6,6,22,23,3,1,1,1
28.25,3,1,1,10,6,4,2,3
28.255,4,7,2,3,9,4,2,3
28.26,3,10,12,49,16,4,2,2
28.265,3,1,1,9,4,1,0,1
28.27,2,2,18,25,5,0,1,5
28.275,2,8,37,55,9,7,6,6
28.28,8,5,24,51,6,1,1,3
28.285,8,9,27,44,9,5,2,5
28.29,4,4,8,18,8,2,1,0
28.295,6,8,12,17,5,3,1,1
28.3,7,6,5,17,1,3,4,1
28.305,6,1,4,5,5,2,2,1
28.31,6,7,8,1,8,4,1,2
28.315,1,7,8,12,7,6,3,3
28.32,2,2,13,4,2,0,2,1
28.325,0,1,13,14,0,1,2,1
28.33,8,4,10,22,10,3,1,1
28.335,2,2,6,15,1,3,2,1
28.34,8,2,7,20,1,1,0,1
28.345,1,8,16,5,6,3,0,0
28.35,1,0,10,32,1,2,3,0
28.355,5,9,6,9,8,6,3,4
28.36,1,2,2,11,4,1,1,1
28.365,2,3,7,1,5,1,2,2
28.37,3,8,17,16,12,8,2,2
28.375,11,0,27,29,3,4,3,4
28.38,2,1,14,14,5,4,1,0
28.385,2,0,1,2,1,0,0,1
28.39,3,0,2,11,7,5,1,2
28.395,2,8,5,12,3,1,1,1
28.4,3,1,2,21,6,1,1,2
28.405,13,6,8,15,0,7,3,5
28.41,2,2,6,26,13,0,0,1
28.415,2,4,4,1,1,3,0,1
28.42,3,4,5,3,5,2,3,1
28.425,4,0,9,11,0,0,0,3
28.43,6,5,15,7,2,5,2,3
28.435,1,5,10,9,2,2,1,1
28.44,21,16,33,6,3,2,3,5
28.445,6,0,10,13,1,1,1,2
28.45,3,0,1,18,6,4,3,1
28.455,8,2,1,3,3,3,1,4
28.46,8,2,7,1,0,1,1,0
28.465,1,6,4,11,3,2,1,0
28.47,14,2,3,0,0,3,3,3
28.475,7,11,11,2,2,2,1,3
28.48,3,6,6,4,1,1,1,2
28.485,3,5,2,6,1,2,0,0
28.49,13,5,2,0,1,4,1,1
28.495,8,5,0,1,3,3,2,2
28.5,5,11,0,2,0,2,0,1
28.505,5,7,4,10,1,2,1,1
28.51,6,2,2,9,1,2,3,3
28.515,5,4,5,12,1,1,1,1
28.52,4,4,1,3,2,1,1,1
28.525,1,3,2,4,1,3,0,2
28.53,9,13,4,6,0,3,1,3
28.535,2,8,5,3,1,3,3,2
28.54,1,1,6,2,0,1,1,1
28.545,3,5,4,0,7,5,3,0
28.55,1,4,8,1,15,7,1,1
28.555,1,1,1,1,5,4,1,0
28.56,3,4,4,2,2,1,1,2
28.565,3,0,10,8,0,3,1,1
28.57,1,1,13,1,5,2,0,2
28.575,0,2,11,23,9,4,1,0
28.58,3,4,6,1,0,0,0,0
28.585,6,0,3,6,4,3,3,3
28.59,2,3,0,3,1,2,0,1
28.595,5,1,11,14,5,1,0,1
28.6,3,5,17,13,9,3,4,3
28.605,3,5,1,0,2,0,2,0
28.61,2,2,1,2,4,2,0,1
28.615,1,3,4,4,0,1,3,0
28.62,1,4,7,4,1,1,0,0
28.625,6,4,14,19,1,1,3,1
28.63,7,2,2,2,4,2,1,1
28.635,6,3,4,3,0,0,2,1
28.64,3,5,1,1,1,1,1,1
28.645,0,3,7,11,4,0,1,2
28.65,7,1,2,8,3,2,0,0
28.655,2,2,0,4,1,0,1,0
28.66,2,4,1,5,0,2,2,3
28.665,2,5,10,9,5,1,1,0
28.67,0,1,9,4,4,1,1,1
28.675,1,5,15,16,5,3,3,2
28.68,1,2,2,6,2,2,2,2
28.685,0,2,2,4,4,1,1,1
28.69,3,3,8,3,5,1,1,0
28.695,1,2,10,14,0,2,1,1
28.7,1,1,5,7,0,1,0,0
28.705,5,5,5,2,1,0,2,4
28.71,1,1,4,7,2,2,1,1
28.715,3,1,2,15,2,1,1,1
28.72,2,3,3,21,10,1,0,1
28.725,1,4,0,12,9,2,2,1
28.73,2,6,5,9,3,1,1,2
28.735,4,1,3,5,1,3,2,3
28.74,1,2,0,2,5,3,0,1
28.745,2,6,9,6,3,1,1,2
28.75,2,5,11,2,1,1,2,1
28.755,1,1,19,18,2,2,2,2
28.76,2,5,0,1,2,1,1,1
28.765,2,1,6,0,0,1,1,0
28.77,1,1,5,4,4,4,2,0
28.775,2,3,3,13,4,0,1,2
28.78,3,1,1,5,2,2,1,2
28.785,2,0,0,2,1,1,0,1
28.79,0,1,4,3,0,1,2,3
28.795,4,1,6,15,6,2,3,2
28.8,3,5,12,15,4,1,0,2
28.805,2,2,5,4,6,3,2,1
28.81,3,6,7,1,2,1,0,2
28.815,1,1,0,3,3,1,0,1
28.82,2,2,8,3,1,1,2,0
28.825,3,2,5,9,4,0,1,0
28.83,1,1,4,18,1,1,0,2
28.835,3,3,27,65,13,3,2,2
28.84,2,5,2,15,0,0,1,0
28.845,2,0,2,11,5,6,2,4
28.85,1,1,0,5,0,2,2,0
28.855,1,1,7,22,5,1,1,2
28.86,1,2,1,12,4,1,0,1
28.865,0,1,2,1,0,1,0,1
28.87,1,2,6,3,1,2,2,3
28.875,0,5,1,4,2,0,1,2
28.88,0,9,0,7,0,1,2,0
28.885,6,0,2,7,1,2,3,0
28.89,5,0,2,13,4,0,1,1
28.895,0,0,3,6,2,1,0,1
28.9,1,2,2,2,2,2,1,1
28.905,1,1,1,0,1,0,0,1
28.91,2,0,2,6,4,1,2,2
28.915,2,3,0,4,2,1,0,2
28.92,2,3,2,3,2,2,0,2
28.925,3,3,1,4,2,1,0,2
28.93,2,2,2,7,2,0,1,2
28.935,3,4,1,17,2,0,0,1
28.94,0,5,5,5,1,1,1,2
28.945,1,3,8,12,2,1,0,0
28.95,3,0,3,2,4,1,1,0
28.955,0,3,5,15,0,1,2,0
28.96,1,5,15,25,10,4,2,1
28.965,2,3,4,13,7,1,1,0
28.97,2,2,1,2,2,2,1,2
28.975,1,2,3,12,8,3,3,3
28.98,2,1,1,2,2,3,1,2
28.985,2,2,5,9,1,1,0,1
28.99,2,3,9,15,5,3,2,1
28.995,1,0,0,1,1,0,1,1
29,1,1,1,9,4,2,1,2
29.005,3,4,3,1,0,1,1,0
29.01,0,3,7,9,1,1,2,2
29.015,3,4,0,3,0,1,1,2
29.02,1,0,15,1,1,0,0,0
29.025,3,2,6,0,1,1,1,2
29.03,0,3,12,10,1,3,0,2
29.035,0,5,5,5,2,1,0,1
29.04,2,4,9,6,2,1,1,1
29.045,0,1,4,2,3,2,2,3
29.05,1,1,1,1,5,5,2,2
29.055,3,0,3,4,2,1,1,2
29.06,0,4,4,3,1,2,3,3
29.065,3,4,1,4,1,1,1,0
29.07,1,6,2,6,3,3,3,1
29.075,0,1,2,7,3,0,0,1
29.08,2,1,4,2,2,3,1,1
29.085,2,3,2,2,2,1,1,1
29.09,1,1,1,8,7,2,0,3
29.095,1,2,1,1,1,2,3,2
29.1,2,1,3,3,1,2,1,2
29.105,0,1,2,0,5,4,1,0
29.11,3,2,5,7,1,0,2,0
29.115,2,4,2,0,1,0,0,1
29.12,0,0,0,2,3,1,3,2
29.125,0,3,4,0,1,1,1,2
29.13,1,1,2,6,0,0,2,2
29.135,1,1,2,10,7,3,2,2
29.14,2,0,1,2,3,1,1,2
29.145,2,5,7,7,5,3,3,2
29.15,1,1,6,8,2,2,0,2
29.155,1,2,3,1,2,1,0,0
29.16,2,4,10,5,2,4,1,1
29.165,1,0,3,6,2,1,0,0
29.17,2,2,3,3,1,1,1,1
29.175,0,3,9,19,6,0,1,1
29.18,2,6,16,28,7,2,0,2
29.185,2,7,7,6,3,3,2,2
29.19,4,7,15,26,7,3,1,1
29.195,5,6,2,7,5,4,4,4
29.2,9,5,4,15,6,1,1,1
29.205,17,3,8,11,3,2,2,3
29.21,8,0,5,10,8,2,2,2
29.215,5,2,2,8,2,1,1,4
29.22,18,2,4,47,5,2,0,4
29.225,27,9,9,12,6,6,2,7
29.23,10,8,22,3,4,2,2,4
29.235,14,0,0,39,7,0,0,8
29.24,20,10,3,30,2,2,3,7
29.245,8,7,29,45,1,5,2,3
29.25,25,9,11,57,2,4,4,0
29.255,2,2,9,49,14,5,3,10
29.26,11,6,13,22,7,4,2,2
29.265,19,0,13,18,4,5,2,0
29.27,30,3,16,34,1,2,2,1
29.275,6,3,8,8,4,3,3,7
29.28,39,2,27,48,0,0,2,10
29.285,14,7,17,21,5,1,1,5
29.29,4,3,13,9,1,2,1,5
29.295,15,3,11,47,2,4,1,3
29.3,10,2,21,55,6,2,0,3
29.305,5,4,31,6,3,2,4,7
29.31,48,0,2,2,4,1,0,2
29.315,8,8,35,62,14,5,2,0
29.32,4,3,17,59,3,2,1,2
29.325,10,2,11,6,3,4,0,2
29.33,2,3,2,4,4,4,1,1
29.335,1,1,4,11,1,2,0,4
29.34,19,4,1,16,2,1,3,1
29.345,31,8,10,0,1,2,0,4
29.35,28,3,13,12,11,5,3,2
29.355,17,1,15,23,6,3,0,0
29.36,2,3,7,20,4,2,1,3
29.365,1,2,7,46,7,2,1,0
29.37,7,6,27,63,9,1,3,4
29.375,3,1,9,20,1,2,2,3
29.38,9,5,4,11,2,3,2,3
29.385,8,4,3,1,3,1,2,2
29.39,20,2,10,41,8,0,1,1
29.395,13,0,4,11,2,0,1,2
29.4,10,6,18,48,7,2,2,3
29.405,6,7,1,13,0,0,1,2
29.41,22,7,19,18,1,1,2,3
29.415,4,1,11,12,1,1,1,1
29.42,1,0,6,1,3,0,1,3
29.425,4,6,7,27,5,5,3,1
29.43,6,2,1,19,1,0,1,1
29.435,11,6,15,28,10,2,3,3
29.44,1,3,20,27,5,4,2,2
29.445,4,4,8,7,10,6,4,5
29.45,7,3,13,24,0,1,1,2
29.455,2,1,2,9,0,1,0,1
29.46,6,9,14,14,0,2,2,4
29.465,5,6,9,13,0,3,1,1
29.47,9,6,6,12,4,5,2,2
29.475,4,1,3,19,0,1,0,2
29.48,7,0,12,33,3,2,1,0
29.485,5,4,6,11,6,3,1,1
29.49,0,2,6,13,0,0,1,3
29.495,3,2,12,7,3,1,2,3
29.5,2,1,8,6,3,3,3,4
29.505,4,1,8,0,1,2,2,0
29.51,2,2,3,15,1,0,0,3
29.515,2,11,23,16,5,5,2,2
29.52,19,3,21,9,1,1,1,4
29.525,2,5,20,36,10,2,1,1
29.53,0,6,34,18,10,5,3,4
29.535,2,1,2,37,10,3,1,0
29.54,1,1,3,8,10,6,1,1
29.545,1,2,9,4,0,2,2,2
29.55,3,3,22,41,3,2,1,3
29.555,1,1,10,14,4,4,1,1
29.56,1,4,5,34,4,3,1,1
29.565,5,3,12,26,9,5,2,1
29.57,2,5,13,16,3,1,2,0
29.575,3,7,13,1,3,3,3,2
29.58,10,6,13,15,3,4,1,2
29.585,1,1,17,7,4,4,0,1
29.59,5,6,29,26,8,4,4,2
29.595,0,1,2,8,5,2,0,0
29.6,4,0,5,5,1,0,0,2
29.605,4,1,2,11,1,4,1,3
29.61,3,0,5,6,1,2,1,2
29.615,0,4,0,6,2,1,1,10
29.62,2,1,2,6,1,1,2,2
29.625,3,4,0,5,0,1,1,2
29.63,1,3,12,24,7,1,3,0
29.635,17,7,4,1,2,2,2,3
29.64,1,0,9,5,2,2,0,0
29.645,5,2,10,13,3,2,3,4
29.65,1,4,34,37,7,3,2,2
29.655,4,2,6,12,1,1,2,1
29.66,3,6,12,7,6,5,3,3
29.665,2,2,9,17,7,2,2,1
29.67,1,2,15,24,13,5,2,1
29.675,1,3,1,5,3,1,1,1
29.68,3,2,5,7,1,4,2,3
29.685,3,3,3,13,2,1,1,2
29.69,3,6,2,6,2,2,1,2
29.695,1,4,8,10,0,2,1,3
29.7,1,1,8,27,4,2,2,2
29.705,2,5,15,19,3,1,1,2
29.71,5,4,10,14,1,1,0,1
29.715,2,1,13,13,5,3,1,3
29.72,0,4,20,4,3,0,2,1
29.725,7,0,7,6,0,1,0,2
29.73,1,1,19,6,2,2,5,10
29.735,6,0,17,22,3,2,3,2
29.74,1,3,0,4,0,2,1,0
29.745,11,3,24,49,4,0,1,3
29.75,5,1,5,14,1,1,1,1
29.755,5,1,9,15,2,3,0,0
29.76,5,4,1,3,2,1,4,3
29.765,1,4,9,10,1,1,4,4
29.77,1,3,2,5,1,0,0,1
29.775,3,2,7,16,9,5,2,3
29.78,1,1,0,18,3,0,0,1
29.785,1,2,15,12,1,3,3,2
29.79,2,1,0,11,1,3,2,0
29.795,1,0,11,32,3,1,2,1
29.8,1,1,14,31,1,0,1,0
29.805,0,9,24,24,10,6,3,3
29.81,2,4,9,14,1,1,1,0
29.815,3,3,4,9,4,0,2,0
29.82,2,5,3,12,4,3,1,2
29.825,3,9,19,29,9,3,1,0
29.83,5,5,12,10,7,2,1,1
29.835,1,3,17,27,5,1,0,1
29.84,2,1,19,20,2,2,0,1
29.845,2,8,15,12,5,3,1,4
29.85,10,3,15,27,5,2,2,4
29.855,0,1,6,15,2,3,1,1
29.86,1,1,6,7,2,1,1,1
29.865,1,2,10,7,1,1,2,0
29.87,0,4,2,5,4,2,2,3
29.875,2,3,9,4,1,1,1,0
29.88,2,0,2,5,5,3,1,1
29.885,1,1,14,16,8,1,2,0
29.89,0,2,3,8,1,2,1,1
29.895,4,1,6,14,1,0,1,2
29.9,0,3,7,0,5,5,0,1
29.905,3,4,5,9,10,7,3,2
29.91,2,2,4,10,1,3,0,1
29.915,2,6,15,14,2,1,1,0
29.92,0,3,5,15,5,2,1,2
29.925,1,6,17,9,4,1,2,0
29.93,2,1,3,17,3,0,2,1
29.935,2,0,4,1,0,2,0,1
29.94,0,6,10,2,1,2,1,3
29.945,1,4,5,11,0,0,0,0
29.95,4,1,9,17,6,0,1,0
29.955,3,0,5,0,5,3,1,1
29.96,1,5,9,1,3,4,0,1
29.965,2,5,16,8,5,1,1,1
29.97,1,2,3,7,6,2,1,1
29.975,3,8,19,6,0,2,2,2
29.98,1,5,11,7,2,1,1,0
29.985,11,3,3,1,0,3,1,1
29.99,7,6,15,26,0,1,1,1
29.995,1,4,4,0,7,1,1,0
30,8,7,7,15,4,6,3,4
30.005,2,2,7,11,7,4,1,1
30.01,0,0,6,16,1,3,2,2
30.015,1,3,1,6,5,1,0,1
30.02,1,1,8,5,0,2,2,0
30.025,7,2,2,4,4,2,1,0
30.03,8,3,9,15,1,1,0,2
30.035,21,9,7,14,6,2,1,3
30.04,5,3,6,4,0,2,1,3
30.045,3,1,3,9,0,1,1,2
30.05,10,1,4,8,3,2,2,0
30.055,1,5,9,8,2,1,0,0
30.06,6,1,8,5,3,1,1,1
30.065,1,7,21,31,10,4,0,0
30.07,5,3,1,2,2,1,3,1
30.075,1,3,13,1,1,2,1,1
30.08,5,14,22,7,5,2,3,3
30.085,2,6,7,4,1,2,0,1
30.09,8,7,3,6,2,1,0,1
30.095,4,2,5,1,1,1,1,3
30.1,7,5,5,7,1,2,0,2
30.105,8,1,5,6,1,3,0,0
30.11,31,10,2,4,1,0,2,5
30.115,6,3,7,1,0,1,0,1
30.12,2,3,0,4,2,3,4,1
30.125,6,2,0,0,4,3,3,2
30.13,3,2,9,6,3,1,0,1
30.135,1,4,12,16,1,1,0,2
30.14,1,1,7,24,12,3,1,0
30.145,1,7,19,32,7,4,4,2
30.15,3,1,8,5,5,2,2,1
30.155,3,4,9,9,2,2,3,1
30.16,2,0,2,7,3,0,0,0
30.165,2,3,10,17,4,1,0,1
30.17,3,0,2,6,1,1,1,0
30.175,0,4,8,4,1,1,1,1
30.18,1,2,4,2,2,3,3,3
30.185,9,2,2,0,1,0,0,2
30.19,3,6,7,7,3,2,0,0
30.195,1,1,5,2,2,1,1,2
30.2,1,1,8,8,3,3,0,1
30.205,2,2,3,4,1,2,1,1
30.21,3,3,7,8,1,0,1,0
30.215,3,1,2,1,2,1,0,1
30.22,4,0,4,4,2,2,0,0
30.225,2,5,5,11,4,1,0,0
30.23,2,4,4,4,1,2,1,3
30.235,2,6,16,8,2,2,1,0
30.24,2,2,7,3,5,1,1,0
30.245,1,1,2,7,0,0,0,0
30.25,2,4,3,11,2,1,0,0
30.255,3,5,4,11,3,3,2,3
30.26,1,5,6,5,2,1,0,1
30.265,5,1,7,9,8,6,4,3
30.27,0,3,2,3,4,0,0,0
30.275,5,3,12,10,5,0,2,2
30.28,1,3,8,0,0,1,1,1
30.285,1,5,17,16,5,2,2,1
30.29,4,2,4,4,5,2,3,1
30.295,1,3,6,8,2,1,1,1
30.3,2,2,4,4,1,0,2,0
30.305,2,1,6,8,1,0,1,1
30.31,4,11,5,7,3,2,2,2
30.315,0,0,2,16,2,1,0,1
30.32,3,4,6,21,6,2,2,2
30.325,0,0,6,9,1,1,1,1
30.33,3,6,1,5,5,0,0,0
30.335,1,4,4,6,2,2,1,1
30.34,0,5,1,5,1,2,1,0
30.345,1,0,4,7,1,0,0,2
30.35,2,4,7,4,4,1,1,1
30.355,0,3,4,23,14,4,3,2
30.36,1,2,0,0,1,1,1,1
30.365,3,3,1,9,3,0,2,2
30.37,0,2,6,2,2,1,0,1
30.375,1,1,3,7,1,0,0,2
30.38,2,3,9,10,4,1,1,0
30.385,0,2,3,1,1,0,0,0
30.39,0,1,2,2,2,1,2,2
30.395,0,7,10,6,1,1,1,0
30.4,3,2,6,8,3,4,3,4
30.405,2,1,2,1,0,0,0,1
30.41,0,0,1,2,1,0,2,1
30.415,3,1,1,0,1,0,1,1
30.42,0,1,2,3,1,1,0,1
30.425,0,0,11,16,0,2,1,1
30.43,1,3,8,15,1,2,2,2
30.435,4,6,28,39,9,5,5,4
30.44,1,6,3,4,0,1,4,1
30.445,1,2,3,5,4,1,0,2
30.45,3,0,10,12,2,0,0,2
30.455,1,4,10,17,1,1,0,2
30.46,1,3,11,6,3,1,1,1
30.465,0,2,5,0,0,3,3,2
30.47,1,0,5,6,1,1,2,0
30.475,1,1,1,7,3,1,1,0
30.48,1,5,6,2,1,1,0,1
30.485,4,7,8,15,6,2,1,1
30.49,1,3,2,9,2,3,0,0
30.495,1,0,1,1,0,0,1,0
30.5,1,2,3,8,1,1,1,0
30.505,1,1,5,2,2,0,0,1
30.51,1,2,5,12,4,3,2,3
30.515,2,1,4,7,2,2,0,3
30.52,1,3,3,2,1,1,1,1
30.525,0,0,4,3,4,0,2,0
30.53,4,7,28,33,1,4,3,3
30.535,0,3,1,2,0,1,2,1
30.54,1,1,1,4,1,1,1,2
30.545,0,2,3,2,2,0,1,1
30.55,2,3,9,12,1,0,0,0
30.555,1,1,2,2,1,2,3,1
30.56,3,1,3,6,3,3,0,1
30.565,1,2,3,1,1,1,1,0
30.57,2,4,12,20,2,2,1,2
30.575,1,3,12,15,2,1,1,1
30.58,3,1,1,15,7,4,1,2
30.585,1,4,7,2,3,1,0,1
30.59,0,2,11,2,2,3,2,1
30.595,0,3,12,17,0,1,1,0
30.6,1,1,4,5,5,1,1,1
30.605,2,0,3,1,1,2,1,1
30.61,2,0,3,3,1,1,1,0
30.615,2,2,8,12,4,0,2,0
30.62,4,7,6,16,5,1,0,0
30.625,3,1,6,1,0,0,1,2
30.63,2,2,1,3,3,1,2,1
30.635,2,3,1,0,3,4,0,3
30.64,1,6,8,9,1,2,2,2
30.645,3,5,4,9,1,0,2,3
30.65,2,3,11,3,4,0,0,0
30.655,1,1,10,4,3,1,1,2
30.66,3,2,7,1,4,0,1,1
30.665,2,0,0,5,7,4,3,1
30.67,0,1,5,3,2,0,1,0
30.675,1,2,2,1,0,1,3,2
30.68,1,1,1,3,1,1,3,1
30.685,1,1,1,0,0,2,1,0
30.69,1,2,6,7,3,1,1,1
30.695,2,3,1,1,4,3,2,2
30.7,2,5,15,9,1,1,1,1
30.705,1,3,0,2,0,1,1,3
30.71,0,1,5,2,4,1,0,1
30.715,0,2,5,3,1,1,1,0
30.72,0,0,3,1,2,3,2,2
30.725,2,2,6,4,4,2,2,1
30.73,1,0,3,9,1,2,1,1
30.735,5,2,7,4,0,0,3,2
30.74,2,2,4,4,0,1,0,2
30.745,4,3,1,3,1,2,0,0
30.75,6,0,3,0,4,2,1,3
30.755,1,2,4,23,10,4,3,2
30.76,1,4,12,1,2,0,0,1
30.765,1,3,6,12,1,2,1,2
30.77,2,1,2,0,5,5,1,1
30.775,2,2,0,6,5,2,1,1
30.78,0,1,0,3,3,1,2,1
30.785,7,3,5,10,4,1,0,0
30.79,0,5,4,4,1,2,2,1
30.795,3,0,2,8,7,4,3,2
30.8,2,4,0,5,5,0,2,1
30.805,0,2,5,3,1,2,3,3
30.81,2,1,3,10,3,1,2,1
30.815,2,5,19,9,4,0,0,2
30.82,1,5,9,3,1,3,0,0
30.825,1,1,8,26,10,4,4,2
30.83,3,1,3,11,0,1,0,1
30.835,1,5,5,1,1,2,1,1
30.84,2,1,4,10,6,0,1,4
30.845,2,5,1,7,1,2,0,1
30.85,0,2,1,7,3,1,1,0
30.855,1,2,5,0,4,0,1,1
30.86,1,0,2,14,2,4,1,1
30.865,2,1,1,9,2,0,1,2
30.87,4,3,4,9,1,4,2,2
30.875,0,4,12,7,6,3,1,0
30.88,0,2,1,2,0,0,3,1
30.885,1,2,6,6,0,1,1,1
30.89,2,2,0,1,3,1,0,0
30.895,2,5,0,2,4,2,1,3
30.9,2,2,16,14,7,4,1,0
30.905,1,2,2,1,1,2,1,1
30.91,1,3,3,1,3,1,3,2
30.915,1,0,5,2,1,1,1,1
30.92,2,0,1,13,6,0,0,1
30.925,3,4,1,1,3,3,2,1
30.93,1,2,5,24,3,0,2,3
30.935,0,3,4,2,1,1,4,6
30.94,9,0,0,12,0,2,1,0
30.945,0,11,1,25,0,2,4,3
30.95,9,2,3,17,3,1,2,2
30.955,3,11,53,74,9,4,2,10
30.96,27,9,24,41,6,2,5,7
30.965,27,0,14,46,2,2,2,2
30.97,7,5,9,14,3,0,1,0
30.975,3,1,0,25,5,2,1,1
30.98,8,2,4,34,2,3,5,9
30.985,24,8,18,67,7,3,3,11
30.99,6,8,27,68,14,4,3,9
30.995,9,14,51,43,10,4,3,1
31,24,24,45,55,28,13,7,12
31.005,16,1,6,4,6,2,0,4
31.01,8,3,6,42,4,0,4,16
31.015,11,6,11,2,8,4,1,6
31.02,17,4,1,9,9,2,0,8
31.025,10,16,13,13,1,0,2,13
31.03,12,18,30,68,10,5,1,6
31.035,28,2,12,35,3,1,1,4
31.04,14,1,10,6,1,0,4,1
31.045,4,2,12,39,8,2,1,7
31.05,35,0,13,32,4,2,1,2
31.055,20,5,1,7,3,4,3,4
31.06,34,3,10,34,0,0,1,7
31.065,48,6,6,30,13,5,3,13
31.07,21,5,2,24,5,3,2,4
31.075,7,9,11,10,8,5,1,6
31.08,12,2,17,6,1,0,1,1
31.085,2,2,5,0,1,1,1,3
31.09,5,1,17,36,1,1,0,3
31.095,12,6,47,38,6,5,2,3
31.1,12,1,2,21,7,2,2,3
31.105,28,6,6,24,6,1,2,4
31.11,12,4,11,21,0,1,1,0
31.115,13,13,23,11,6,4,4,1
31.12,5,5,3,47,13,8,4,3
31.125,2,6,0,12,1,1,0,2
31.13,2,3,11,7,3,0,1,2
31.135,7,7,13,53,5,6,2,4
31.14,2,3,21,19,6,1,1,0
31.145,1,0,24,20,4,1,1,1
31.15,1,1,7,1,3,1,1,1
31.155,1,8,20,40,3,3,1,1
31.16,1,7,8,15,10,6,3,1
31.165,4,2,16,0,2,4,4,2
31.17,12,2,7,9,4,2,1,2
31.175,10,5,1,15,2,1,1,7
31.18,5,0,0,20,4,0,2,1
31.185,1,0,17,4,2,1,1,2
31.19,5,10,22,23,9,4,4,3
31.195,1,3,19,9,5,1,1,2
31.2,9,3,5,9,6,4,2,0
31.205,1,5,7,6,8,4,2,0
31.21,11,2,17,5,5,1,2,9
31.215,3,2,1,22,6,1,0,3
31.22,3,1,1,36,6,3,0,4
31.225,7,7,3,34,8,6,3,6
31.23,3,7,14,40,8,2,1,2
31.235,0,12,18,45,9,1,1,6
31.24,1,4,7,6,2,0,1,2
31.245,2,2,11,38,6,1,1,1
31.25,7,1,13,6,5,0,0,2
31.255,9,2,3,20,1,1,3,0
31.26,0,1,1,7,4,2,1,1
31.265,6,5,2,14,4,3,3,3
31.27,2,15,13,7,3,3,0,2
31.275,8,2,14,33,4,1,2,2
31.28,9,7,29,2,5,2,1,3
31.285,4,3,7,34,5,3,1,2
31.29,3,8,17,12,14,7,5,5
31.295,3,2,2,9,1,1,2,0
31.3,8,3,16,17,1,1,1,1
31.305,6,5,5,20,7,3,2,0
31.31,1,4,38,64,14,7,4,6
31.315,6,1,9,4,2,2,0,1
31.32,2,3,5,24,3,1,1,2
31.325,2,1,24,27,3,1,0,2
31.33,1,2,7,23,6,1,2,1
31.335,1,7,8,6,10,5,1,1
31.34,10,5,1,10,2,1,0,1
31.345,11,4,19,42,2,2,0,3
31.35,3,4,16,6,3,1,0,1
31.355,0,3,14,16,4,0,2,0
31.36,16,3,7,12,5,0,2,1
31.365,20,13,6,12,7,4,1,2
31.37,7,1,4,9,2,1,0,4
31.375,5,4,10,16,5,2,1,0
31.38,6,8,12,8,1,3,0,1
31.385,1,4,4,14,0,0,0,1
31.39,8,4,15,27,3,1,0,1
31.395,5,1,9,3,2,0,0,1
31.4,7,9,7,12,0,1,4,3
31.405,2,2,6,18,3,4,2,2
31.41,1,5,19,10,5,2,2,3
31.415,2,5,20,7,1,3,1,2
31.42,1,2,11,13,2,2,1,4
31.425,9,4,25,23,8,6,3,2
31.43,5,1,10,3,1,0,1,2
31.435,1,3,8,3,6,2,2,3
31.44,5,5,4,8,3,1,1,2
31.445,10,4,7,2,5,1,2,1
31.45,14,4,11,16,8,4,3,0
31.455,4,6,6,8,7,5,3,5
31.46,8,4,8,31,5,1,1,4
31.465,14,4,9,42,10,1,0,0
31.47,11,1,8,23,12,3,1,1
31.475,3,1,3,4,1,1,0,0
31.48,2,1,5,10,1,2,1,3
31.485,7,1,3,27,4,1,1,1
31.49,8,10,21,10,1,2,2,5
31.495,2,1,2,12,4,3,2,2
31.5,5,2,4,17,2,4,3,4
31.505,6,2,2,3,2,0,1,2
31.51,5,5,6,15,1,0,0,1
31.515,1,11,7,15,2,0,2,2
31.52,4,5,12,5,0,0,0,2
31.525,2,1,15,29,8,4,3,4
31.53,1,1,1,11,2,0,0,2
31.535,2,1,4,4,1,1,1,1
31.54,1,1,2,5,1,0,1,1
31.545,10,5,2,3,5,2,3,0
31.55,9,4,12,28,1,3,2,3
31.555,6,6,2,5,2,4,2,1
31.56,9,3,7,8,6,6,1,2
31.565,0,1,16,34,9,4,0,2
31.57,5,3,4,11,4,3,0,1
31.575,8,6,5,11,4,1,1,1
31.58,0,0,6,29,8,4,2,1
31.585,3,6,5,1,5,5,2,1
31.59,0,4,1,21,6,4,1,1
31.595,9,2,7,4,0,1,1,2
31.6,1,0,5,6,1,1,2,2
31.605,6,3,3,2,3,1,1,1
31.61,9,3,5,10,5,4,0,1
31.615,6,8,1,5,3,0,0,1
31.62,0,0,2,2,7,6,3,3
31.625,12,9,5,7,3,5,2,3
31.63,1,1,15,14,3,1,1,1
31.635,8,7,5,8,3,1,0,4
31.64,1,9,1,2,0,3,2,0
31.645,10,2,4,8,11,0,1,0
31.65,15,5,7,12,9,3,0,1
31.655,2,1,4,3,1,3,1,3
31.66,4,2,10,3,3,2,1,1
31.665,3,4,4,5,2,1,3,1
31.67,17,1,13,16,1,2,2,1
31.675,8,0,12,8,5,1,1,0
31.68,6,1,8,0,3,2,0,3
31.685,10,10,4,2,3,5,1,0
31.69,6,14,1,6,3,1,0,1
31.695,13,3,2,2,0,2,1,2
31.7,3,3,8,7,6,1,0,1
31.705,5,1,13,11,0,1,2,0
31.71,1,2,12,3,6,4,1,1
31.715,4,2,5,0,1,1,1,1
31.72,1,6,9,2,5,1,2,0
31.725,3,10,3,0,1,1,1,0
31.73,4,6,5,0,2,2,3,1
31.735,11,8,4,3,0,2,1,1
31.74,3,5,0,10,8,4,4,3
31.745,5,2,6,20,5,1,1,3
31.75,9,7,14,28,9,2,1,1
31.755,6,11,3,1,3,4,3,2
31.76,5,8,1,1,0,1,1,1
31.765,4,1,3,1,1,0,1,1
31.77,2,7,1,12,1,0,1,2
31.775,3,1,1,4,0,2,1,0
31.78,1,2,10,5,4,3,1,1
31.785,4,12,11,8,3,3,3,1
31.79,1,5,4,5,2,0,1,1
31.795,11,1,1,6,3,3,1,2
31.8,1,3,1,2,1,1,1,0
31.805,0,1,4,6,1,1,1,2
31.81,2,6,1,2,0,1,1,1
31.815,0,5,7,6,4,5,2,2
31.82,4,3,6,7,3,2,1,1
31.825,0,4,4,2,0,1,1,2
31.83,8,3,5,4,1,2,2,2
31.835,2,3,6,9,1,2,2,0
31.84,8,3,1,9,1,2,0,0
31.845,0,6,8,9,2,0,0,0
31.85,1,5,4,8,1,0,2,1
31.855,9,9,7,17,2,2,2,1
31.86,12,10,21,35,8,4,2,2
31.865,4,4,1,7,0,1,1,3
31.87,1,1,3,39,4,3,0,2
31.875,7,7,2,32,1,2,1,1
31.88,8,1,2,10,0,0,1,4
31.885,5,4,15,32,5,2,1,3
31.89,0,1,1,8,0,3,0,0
31.895,2,2,6,15,0,0,0,0
31.9,6,8,6,7,1,2,1,3
31.905,2,3,2,5,2,1,1,2
31.91,3,2,1,11,3,1,2,1
31.915,4,0,7,12,5,2,1,0
31.92,1,9,5,7,1,1,1,1
31.925,5,8,1,3,2,0,1,1
31.93,1,0,1,5,0,2,1,1
31.935,4,3,1,3,1,0,2,2
31.94,6,5,14,21,5,2,0,2
31.945,2,4,3,2,2,1,1,1
31.95,2,4,3,11,1,0,0,1
31.955,1,1,6,8,6,4,1,3
31.96,0,1,1,5,1,2,2,1
31.965,3,1,1,2,2,1,3,0
31.97,3,3,4,4,5,1,3,1
31.975,1,5,9,16,4,3,1,1
31.98,2,6,9,4,16,4,0,2
31.985,3,4,17,54,12,2,0,1
31.99,0,1,6,19,1,2,0,1
31.995,2,2,2,4,0,1,1,2
32,3,3,10,17,5,3,3,1
32.005,6,3,7,17,2,0,2,2
32.01,10,7,7,14,1,1,2,2
32.015,2,0,2,9,3,1,2,0
32.02,0,1,2,7,2,1,0,0
32.025,0,3,5,11,8,2,0,2
32.03,1,1,2,4,4,2,0,1
32.035,4,6,19,23,1,2,2,2
32.04,0,2,7,9,6,2,1,1
32.045,1,5,2,2,5,3,3,1
32.05,2,1,8,17,3,0,1,2
32.055,2,1,3,0,2,1,1,1
32.06,1,2,3,8,3,0,1,2
32.065,4,3,5,4,5,3,1,2
32.07,0,3,0,6,6,1,1,1
32.075,1,6,5,7,2,1,0,1
32.08,3,3,15,12,4,2,3,0
32.085,1,6,1,12,1,2,1,2
32.09,1,3,2,11,6,2,4,2
32.095,3,1,2,10,1,1,0,0
32.1,0,0,6,8,1,3,2,2
32.105,3,4,1,0,0,0,0,1
32.11,0,2,5,4,3,2,3,1
32.115,2,2,1,2,2,1,0,0
32.12,1,0,1,0,2,1,1,1
32.125,2,5,9,3,1,4,1,0
32.13,0,0,1,5,4,2,0,3
32.135,1,1,2,3,2,1,1,1
32.14,1,2,5,3,2,2,1,0
32.145,1,4,2,2,1,1,1,1
32.15,1,4,5,2,2,0,2,1
32.155,2,2,3,6,0,4,1,2
32.16,0,1,1,3,4,1,0,2
32.165,0,2,5,0,5,3,1,3
32.17,1,0,4,4,3,0,1,0
32.175,7,5,13,14,1,1,1,1
32.18,3,6,0,7,1,1,0,0
32.185,12,6,13,39,4,2,2,3
32.19,2,0,4,2,2,4,2,1
32.195,5,4,8,8,1,1,0,1
32.2,6,0,6,21,1,0,0,0
32.205,6,4,5,7,4,3,2,2
32.21,0,5,10,5,2,3,1,1
32.215,7,3,0,0,2,1,2,2
32.22,2,6,5,5,1,0,2,1
32.225,2,6,6,8,2,1,1,1
32.23,2,0,4,3,5,3,0,2
32.235,1,8,9,8,8,4,2,3
32.24,5,3,9,6,2,0,1,2
32.245,1,3,11,7,3,1,2,0
32.25,4,0,2,3,2,1,0,0
32.255,0,1,4,6,1,0,0,1
32.26,0,3,6,10,6,2,2,2
32.265,0,1,6,7,1,1,1,0
32.27,3,0,4,1,1,2,1,2
32.275,0,3,9,0,1,1,2,2
32.28,0,2,7,18,5,2,1,1
32.285,2,2,5,6,2,0,1,0
32.29,6,3,0,0,5,0,3,3
32.295,1,3,10,5,3,1,2,1
32.3,1,4,10,13,6,2,2,3
32.305,0,1,3,2,3,0,1,2
32.31,1,1,2,6,5,4,1,0
32.315,1,1,0,3,1,2,2,1
32.32,4,5,6,1,3,3,1,0
32.325,1,2,3,2,3,1,1,1
32.33,1,1,4,4,3,1,1,1
32.335,1,2,3,4,3,0,0,1
32.34,1,2,4,9,3,0,0,0
32.345,3,0,6,8,0,2,2,2
32.35,2,2,1,3,2,1,0,1
32.355,2,2,0,14,1,2,3,1
32.36,4,1,3,4,2,2,1,1
32.365,1,5,0,6,4,2,2,2
32.37,5,3,4,6,1,1,1,1
32.375,9,3,3,0,3,1,1,3
32.38,7,4,1,1,1,3,1,2
32.385,1,2,3,0,1,1,1,0
32.39,3,2,1,3,3,1,1,1
32.395,2,2,4,0,2,1,0,1
32.4,1,5,3,1,2,3,2,0
32.405,1,3,0,3,6,2,1,0
32.41,1,3,7,5,4,1,1,1
32.415,1,8,4,3,3,3,3,2
32.42,0,3,4,9,4,2,2,1
32.425,1,3,2,4,1,1,0,1
32.43,3,2,1,5,5,1,1,2
32.435,3,5,1,0,4,1,1,1
32.44,1,3,2,6,4,0,1,0
32.445,2,2,1,5,3,1,1,1
32.45,4,4,1,4,3,1,2,1
32.455,0,0,2,3,3,1,1,0
32.46,6,1,11,4,2,1,1,0
32.465,1,6,13,13,1,3,1,2
32.47,7,0,1,10,8,2,2,3
32.475,1,4,4,1,2,1,1,1
32.48,3,3,13,18,5,0,1,1
32.485,6,2,4,1,1,0,2,2
32.49,2,0,10,7,0,5,3,2
32.495,4,3,8,1,1,4,1,2
32.5,2,1,8,8,4,1,1,2
32.505,3,0,10,16,4,2,1,1
32.51,2,9,6,11,0,1,1,1
32.515,1,1,3,5,3,2,2,1
32.52,4,4,7,0,2,1,0,2
32.525,3,7,35,49,13,5,3,8
32.53,1,6,25,31,3,1,0,1
32.535,3,2,1,1,1,0,1,1
32.54,8,2,21,14,2,1,1,0
32.545,5,6,8,7,2,1,3,12
32.55,5,1,23,31,8,1,0,7
32.555,11,1,15,60,1,2,4,8
32.56,11,3,4,21,1,0,3,5
32.565,10,12,33,30,8,4,3,0
32.57,11,5,15,4,4,0,1,3
32.575,6,10,50,43,14,6,0,5
32.58,10,2,10,21,9,4,3,6
32.585,4,5,4,6,3,1,3,2
32.59,21,12,6,16,11,5,8,7
32.595,3,17,59,76,14,6,3,12
32.6,38,2,6,7,3,1,1,8
32.605,20,2,25,29,9,3,0,3
32.61,35,2,1,21,3,2,0,1
32.615,13,1,6,3,1,2,0,6
32.62,11,2,8,24,4,4,8,11
32.625,5,2,11,44,10,5,4,16
32.63,12,11,52,67,4,3,1,5
32.635,39,0,24,39,4,1,3,17
32.64,17,5,19,35,2,2,1,5
32.645,4,5,15,68,9,2,3,7
32.65,10,6,3,10,17,7,3,1
32.655,7,5,22,35,9,5,2,0
32.66,7,6,27,19,7,3,3,0
32.665,27,5,28,16,7,2,1,4
32.67,49,9,17,3,7,2,1,6
32.675,17,3,4,24,4,1,1,3
32.68,4,2,11,17,3,1,1,2
32.685,1,5,12,30,1,1,2,1
32.69,8,5,0,6,1,3,1,3
32.695,11,3,14,32,3,2,2,1
32.7,14,1,4,10,1,1,0,2
32.705,3,1,10,5,5,4,2,0
32.71,10,3,21,30,4,3,0,2
32.715,4,1,3,6,3,2,2,0
32.72,21,1,24,28,5,1,2,7
32.725,15,4,48,62,10,0,1,1
32.73,9,1,12,12,1,0,2,2
32.735,4,2,3,6,0,0,3,3
32.74,8,7,11,11,7,7,3,0
32.745,11,2,26,30,6,0,2,3
32.75,6,3,8,22,1,2,1,3
32.755,16,2,2,10,4,1,1,9
32.76,15,5,6,3,6,5,0,1
32.765,10,1,7,14,0,0,1,1
32.77,6,12,9,6,1,3,1,2
32.775,7,1,12,27,1,1,1,1
32.78,2,0,6,12,2,1,1,4
32.785,2,3,6,25,6,1,0,2
32.79,2,7,10,20,6,1,1,4
32.795,1,4,8,12,2,0,1,5
32.8,2,7,8,0,3,4,4,0
32.805,8,4,8,22,3,2,1,4
32.81,0,7,28,46,0,0,0,1
32.815,3,6,15,9,5,2,1,4
32.82,2,1,22,37,3,0,2,2
32.825,3,0,15,29,0,1,1,3
32.83,0,3,1,4,0,2,1,0
32.835,4,4,4,8,2,0,1,4
32.84,0,8,26,71,11,1,1,1
32.845,2,2,20,75,7,3,3,1
32.85,4,3,7,15,1,1,2,2
32.855,2,2,4,16,1,3,0,0
32.86,2,2,2,11,1,0,1,1
32.865,2,1,8,25,3,1,1,2
32.87,2,6,20,23,3,1,2,2
32.875,2,5,15,15,5,4,3,4
32.88,4,3,16,33,2,2,1,4
32.885,4,13,55,81,13,6,4,7
32.89,5,5,6,0,4,2,1,1
32.895,6,5,23,20,1,1,1,2
32.9,3,1,5,12,0,1,1,0
32.905,0,1,9,23,2,1,1,1
32.91,0,1,2,7,2,3,1,0
32.915,1,1,9,31,2,2,2,3
32.92,0,2,3,34,2,0,1,2
32.925,5,4,16,62,9,3,1,1
32.93,2,1,17,36,6,1,1,5
32.935,1,5,16,33,4,2,2,4
32.94,1,3,11,10,2,1,4,8
32.945,5,0,15,35,6,2,1,2
32.95,5,4,4,20,5,1,1,0
32.955,7,15,32,39,3,4,0,2
32.96,14,4,10,25,4,1,1,0
32.965,20,3,15,20,1,1,2,1
32.97,1,3,3,2,1,2,2,2
32.975,4,6,12,8,3,2,0,1
32.98,1,1,3,20,4,2,0,1
32.985,2,2,1,3,1,1,1,2
32.99,4,4,21,28,5,2,2,2
32.995,7,0,1,5,5,2,3,1
33,1,1,0,17,1,2,1,2
33.005,1,3,10,25,4,0,1,3
33.01,6,2,0,18,6,1,3,2
33.015,4,10,12,22,4,2,1,1
33.02,3,1,1,12,3,6,1,5
33.025,5,4,5,14,3,1,1,1
33.03,1,2,11,8,1,1,1,0
33.035,4,2,0,0,6,2,2,1
33.04,3,3,14,12,6,1,0,1
33.045,1,7,20,35,7,4,0,2
33.05,3,1,6,10,3,1,1,2
33.055,3,4,6,28,7,4,4,3
33.06,4,1,5,13,2,2,2,1
33.065,1,1,8,3,2,2,2,2
33.07,5,6,0,16,3,1,1,0
33.075,2,5,6,19,4,1,0,2
33.08,5,2,1,13,5,4,3,3
33.085,9,4,10,4,6,4,2,0
33.09,11,3,7,2,3,1,0,3
33.095,2,4,5,1,2,0,0,2
33.1,2,1,7,9,1,0,0,2
33.105,3,4,13,13,2,2,0,2
33.11,6,8,30,13,3,2,1,1
33.115,4,5,6,11,4,5,4,5
33.12,6,7,9,12,6,3,4,2
33.125,3,1,8,10,2,0,2,2
33.13,3,4,17,3,5,2,1,1
33.135,5,2,6,32,5,1,0,1
33.14,3,8,47,88,12,5,1,0
33.145,5,4,4,2,3,2,1,3
33.15,3,2,6,2,1,0,1,0
33.155,6,6,15,7,6,2,1,5
33.16,1,0,15,41,5,1,2,3
33.165,0,3,10,12,4,2,2,0
33.17,2,4,11,2,2,3,1,0
33.175,1,2,12,9,7,2,1,2
33.18,1,10,12,1,4,2,1,2
33.185,2,2,7,17,6,5,3,2
33.19,1,5,7,20,1,2,2,1
33.195,1,7,17,17,2,1,1,0
33.2,3,4,30,39,5,0,1,0
33.205,0,4,14,16,7,6,4,2
33.21,1,4,6,15,5,2,0,3
33.215,1,1,2,9,7,1,2,0
33.22,0,3,10,4,1,1,1,1
33.225,4,1,8,45,5,0,1,0
33.23,0,1,21,51,7,5,4,1
33.235,1,3,3,13,2,1,1,1
33.24,0,1,4,21,5,2,2,1
33.245,2,4,1,16,2,1,0,0
33.25,4,0,6,16,5,2,1,1
33.255,2,11,11,4,2,0,1,0
33.26,11,13,20,15,7,1,1,1
33.265,3,0,6,4,1,2,0,1
33.27,1,2,4,7,1,5,0,0
33.275,1,9,12,12,3,6,3,2
33.28,6,11,23,22,7,4,1,2
33.285,2,3,20,31,9,2,0,0
33.29,6,3,2,12,2,2,1,1
33.295,1,2,3,6,0,2,1,0
33.3,1,1,7,12,4,1,0,1
33.305,8,3,1,6,2,2,0,2
33.31,7,3,0,1,3,1,1,0
33.315,18,14,15,3,0,0,1,2
33.32,1,0,12,17,0,3,3,5
33.325,9,6,4,27,12,1,1,2
33.33,9,1,1,14,2,4,3,3
33.335,18,2,4,1,5,1,1,1
33.34,14,11,4,13,5,1,3,4
33.345,1,5,0,2,1,0,2,2
33.35,2,3,4,5,4,5,4,4
33.355,1,4,0,2,1,1,1,2
33.36,13,7,4,6,2,1,0,1
33.365,14,2,0,2,3,1,1,1
33.37,14,11,3,1,2,3,4,5
33.375,4,1,2,6,5,2,2,1
33.38,3,6,0,1,2,0,1,1
33.385,1,5,5,10,8,1,1,1
33.39,13,3,1,6,9,3,0,1
33.395,22,13,10,15,5,0,2,3
33.4,6,7,1,2,3,3,4,2
33.405,6,10,1,3,1,1,2,1
33.41,2,0,1,3,1,0,1,1
33.415,1,0,4,16,3,1,2,1
33.42,3,8,0,2,1,1,0,1
33.425,10,3,3,3,2,3,3,3
33.43,1,2,13,11,2,0,0,1
33.435,4,5,0,9,3,1,2,2
33.44,2,5,8,15,3,2,0,1
33.445,1,8,18,7,0,0,1,1
33.45,2,0,2,19,4,3,1,3
33.455,4,5,3,2,3,2,2,4
33.46,13,6,2,5,5,1,0,2
33.465,1,2,9,10,1,0,1,1
33.47,2,1,8,3,0,2,2,1
33.475,23,15,5,9,4,1,2,2
33.48,4,4,6,2,0,2,1,1
33.485,6,2,1,2,2,2,2,4
33.49,1,1,4,1,2,3,1,1
33.495,6,2,4,4,1,1,0,0
33.5,2,1,1,3,7,3,2,1
33.505,5,3,0,1,1,0,0,0
33.51,1,1,4,9,5,0,1,2
33.515,7,3,4,0,0,1,1,0
33.52,0,2,3,4,1,3,1,0
33.525,1,1,7,13,4,1,1,4
33.53,2,3,1,12,2,1,0,1
33.535,9,2,2,1,0,2,1,2
33.54,6,8,1,0,3,1,1,2
33.545,1,3,3,2,1,1,1,1
33.55,3,0,2,1,1,3,0,1
33.555,2,1,4,13,9,0,1,0
33.56,0,3,12,21,9,3,1,0
33.565,3,1,6,5,4,3,3,1
33.57,3,1,1,13,4,3,1,1
33.575,4,0,7,28,8,3,2,2
33.58,6,0,12,5,4,1,2,1
33.585,9,3,4,5,1,0,1,1
33.59,4,4,8,8,3,0,0,0
33.595,2,5,1,14,0,2,1,2
33.6,1,2,1,2,2,2,1,0
33.605,3,2,2,4,5,0,2,2
33.61,3,1,4,0,1,1,1,0
33.615,3,3,2,1,1,1,0,0
33.62,4,6,7,13,5,2,2,3
33.625,1,3,5,4,2,2,0,1
33.63,1,0,5,6,1,1,3,0
33.635,0,2,17,15,5,1,2,0
33.64,3,6,2,9,4,2,1,1
33.645,0,0,4,4,3,2,1,1
33.65,4,5,4,16,3,2,1,3
33.655,2,0,1,5,2,0,0,1
33.66,0,4,7,7,2,2,0,1
33.665,1,1,3,2,2,1,0,0
33.67,1,1,3,1,4,0,2,2
33.675,1,0,5,17,5,1,1,0
33.68,2,1,2,11,0,0,2,1
33.685,1,3,7,12,2,2,0,0
33.69,5,5,1,1,2,3,1,3
33.695,2,1,0,7,1,1,2,0
33.7,0,3,1,2,2,0,2,1
33.705,1,6,16,19,4,0,1,0
33.71,1,6,21,2,4,4,1,1
33.715,3,5,3,27,14,5,3,3
33.72,1,0,3,9,1,1,1,0
33.725,3,1,8,4,0,2,2,0
33.73,4,3,4,2,0,2,1,1
33.735,4,2,4,13,6,0,0,1
33.74,4,3,1,1,0,1,0,0
33.745,1,7,8,5,1,3,1,2
33.75,2,1,2,3,2,2,2,2
33.755,3,2,2,8,1,1,0,1
33.76,1,5,1,2,2,1,2,1
33.765,3,13,12,11,2,0,1,2
33.77,0,1,5,15,4,1,1,0
33.775,2,3,2,24,0,0,1,0
33.78,2,1,6,17,4,3,2,2
33.785,2,4,6,1,0,0,0,0
33.79,3,1,1,7,1,2,0,0
33.795,2,2,6,4,1,2,1,2
33.8,11,3,5,3,2,2,3,2
33.805,1,2,1,4,4,2,1,1
33.81,0,1,2,6,4,1,0,0
33.815,4,4,13,17,4,1,0,2
33.82,3,1,5,3,5,3,1,1
33.825,0,1,11,13,6,3,2,2
33.83,3,9,7,3,5,2,0,1
33.835,0,6,8,8,3,1,0,1
33.84,2,1,2,11,1,2,3,2
33.845,4,1,12,6,12,0,1,1
33.85,0,3,11,8,5,3,0,1
33.855,4,7,0,8,2,2,1,3
33.86,2,3,1,4,4,2,1,2
33.865,0,3,2,9,7,2,1,2
33.87,4,8,4,1,5,2,3,2
33.875,8,9,4,3,0,1,0,1
33.88,2,3,0,0,0,0,1,1
33.885,3,1,2,8,1,1,0,3
33.89,1,3,9,13,6,2,2,1
33.895,1,2,1,3,1,2,3,2
33.9,0,6,1,3,2,2,0,0
33.905,2,1,8,14,4,0,0,1
33.91,3,5,1,1,4,2,1,3
33.915,2,1,1,6,2,3,2,1
33.92,1,1,5,7,7,1,0,0
33.925,0,0,1,11,2,0,0,0
33.93,5,1,10,29,6,1,2,1
33.935,1,1,0,0,4,1,1,1
33.94,3,0,2,3,1,1,2,1
33.945,2,2,6,9,3,2,2,1
33.95,1,3,3,8,4,4,3,3
33.955,1,5,10,21,3,1,3,2
33.96,0,3,5,4,5,2,0,1
33.965,2,7,13,3,3,4,1,2
33.97,1,0,3,21,6,1,1,0
33.975,7,0,3,5,1,4,2,1
33.98,7,3,7,1,1,1,2,0
33.985,4,1,7,3,3,2,1,2
33.99,1,7,4,5,7,5,2,3
33.995,1,6,6,13,4,0,1,1
34,5,5,11,2,4,0,1,2
34.005,2,2,4,5,0,1,2,1
34.01,2,1,12,6,2,2,1,1
34.015,2,2,8,6,0,1,0,0
34.02,0,1,3,17,9,4,2,1
34.025,2,5,6,7,4,0,1,2
34.03,1,10,6,8,0,1,1,0
34.035,1,0,0,3,1,1,1,1
34.04,0,2,4,6,1,1,2,0
34.045,1,2,9,2,4,2,0,3
34.05,1,5,3,2,0,1,1,2
34.055,2,2,3,7,4,4,3,0
34.06,1,1,10,7,1,1,0,0
34.065,2,5,18,31,9,2,2,2
34.07,0,1,0,0,1,4,0,1
34.075,4,5,1,3,6,4,2,3
34.08,0,2,0,3,3,2,1,0
34.085,0,1,3,8,0,2,2,2
34.09,1,0,4,13,3,1,1,1
34.095,1,2,1,2,1,0,0,0
34.1,2,2,2,5,4,4,2,0
34.105,6,9,6,13,1,3,2,0
34.11,2,2,3,3,4,3,1,1
34.115,2,1,3,0,2,1,0,1
34.12,3,4,6,4,1,1,1,3
34.125,3,14,28,6,5,4,4,1
34.13,0,4,1,1,1,0,1,1
34.135,2,0,5,10,6,1,1,2
34.14,2,7,9,2,1,2,0,1
34.145,3,15,4,2,6,7,4,3
34.15,2,4,11,0,5,3,4,2
34.155,1,8,4,11,3,5,3,2
34.16,3,9,14,0,1,0,0,2
34.165,1,6,17,9,2,1,1,0
34.17,1,6,5,32,1,3,2,2
34.175,1,1,27,43,4,3,2,1
34.18,1,8,11,40,4,3,4,6
34.185,0,5,7,5,11,5,2,2
34.19,6,7,7,5,4,3,2,5
34.195,1,1,13,19,2,1,1,1
34.2,8,0,13,60,6,1,2,2
34.205,16,11,37,40,14,3,2,5
34.21,3,9,57,80,14,3,1,10
34.215,12,8,48,59,4,4,4,12
34.22,9,14,39,66,9,3,1,6
34.225,2,8,9,48,2,1,4,8
34.23,3,7,19,26,2,2,0,3
34.235,8,11,10,27,3,1,1,0
34.24,44,0,28,24,3,1,1,2
34.245,88,5,16,21,4,3,2,5
34.25,7,9,28,39,7,4,1,17
34.255,28,19,40,4,18,10,1,16
34.26,5,4,38,36,0,1,2,5
34.265,36,6,38,69,12,3,1,1
34.27,7,0,27,51,11,3,0,6
34.275,1,3,4,44,4,1,6,18
34.28,12,5,11,33,2,0,0,1
34.285,16,4,13,56,2,5,2,9
34.29,25,15,1,36,12,8,6,8
34.295,29,0,5,5,4,1,1,4
34.3,24,1,3,32,1,4,3,4
34.305,1,5,24,29,5,1,1,0
34.31,1,2,20,59,0,0,1,1
34.315,32,1,10,9,0,2,1,2
34.32,28,5,22,35,9,5,3,6
34.325,3,1,25,50,13,5,3,3
34.33,2,5,9,4,5,0,1,2
34.335,4,1,11,21,5,2,3,2
34.34,15,4,12,12,1,1,4,10
34.345,8,1,1,19,4,2,0,1
34.35,8,0,36,81,10,0,1,1
34.355,13,10,54,93,12,4,4,7
34.36,4,7,11,37,2,1,0,0
34.365,4,7,27,23,6,4,6,0
34.37,2,5,37,30,9,2,1,3
34.375,2,0,17,2,4,4,1,3
34.38,4,2,0,30,5,0,0,2
34.385,2,12,24,10,6,1,3,2
34.39,4,1,14,4,2,2,0,3
34.395,3,13,30,43,10,3,1,3
34.4,4,0,12,9,1,2,2,2
34.405,4,3,3,16,6,5,0,0
34.41,3,14,45,54,11,4,4,9
34.415,8,2,9,17,1,1,2,1
34.42,0,3,11,10,1,2,1,1
34.425,8,4,16,44,3,0,0,1
34.43,6,7,10,7,0,2,1,2
34.435,6,3,3,15,3,2,1,1
34.44,1,0,13,28,9,6,1,1
34.445,3,1,12,5,8,4,0,1
34.45,2,0,19,28,8,3,1,1
34.455,9,5,2,24,3,1,2,1
34.46,1,0,10,14,6,1,1,1
34.465,4,2,6,20,8,3,1,1
34.47,4,2,0,20,7,4,5,12
34.475,23,1,1,3,2,0,1,1
34.48,5,16,5,6,3,4,3,0
34.485,2,5,11,30,4,1,1,0
34.49,2,7,21,11,1,1,2,4
34.495,1,3,3,2,3,2,3,2
34.5,10,0,5,14,0,2,0,1
34.505,8,5,6,22,5,3,4,2
34.51,1,5,6,10,2,1,2,1
34.515,9,2,12,21,3,0,2,2
34.52,6,1,0,10,1,1,1,3
34.525,0,1,7,24,7,2,1,1
34.53,2,6,32,45,8,1,2,1
34.535,23,2,32,40,9,0,1,0
34.54,29,1,6,2,2,3,1,3
34.545,1,2,4,4,1,1,0,1
34.55,0,3,1,18,2,2,2,0
34.555,9,0,8,31,6,2,2,5
34.56,15,0,3,1,1,1,0,1
34.565,2,5,24,14,8,3,1,2
34.57,7,9,9,3,2,1,1,1
34.575,0,2,15,37,8,1,2,1
34.58,6,5,18,36,2,1,2,4
34.585,6,3,4,9,5,1,1,1
34.59,12,2,0,10,2,3,1,1
34.595,12,5,10,10,0,3,2,1
34.6,8,9,8,10,1,0,2,3
34.605,4,3,4,12,2,1,1,3
34.61,3,2,3,11,3,1,2,2
34.615,6,4,16,33,4,1,0,2
34.62,1,6,25,10,3,4,2,0
34.625,2,8,35,32,6,3,2,3
34.63,2,1,3,4,3,3,1,1
34.635,4,3,5,11,5,3,1,2
34.64,7,7,5,7,7,7,4,1
34.645,6,5,0,12,3,1,2,1
34.65,0,2,14,27,3,1,0,0
34.655,11,1,26,18,0,2,3,3
34.66,12,5,18,12,1,0,0,4
34.665,12,6,1,23,2,0,2,7
34.67,3,3,10,17,2,2,1,1
34.675,2,4,4,4,6,1,1,0
34.68,5,7,10,10,8,3,0,3
34.685,5,4,9,6,3,3,4,0
34.69,2,0,1,2,4,1,1,0
34.695,3,1,16,10,2,1,1,1
34.7,2,4,47,14,0,3,1,1
34.705,8,2,13,58,9,4,1,1
34.71,4,1,12,27,7,5,3,3
34.715,5,13,12,8,7,4,3,3
34.72,11,4,14,12,11,2,1,1
34.725,2,4,8,5,1,3,1,0
34.73,1,3,5,13,3,3,3,1
34.735,2,5,15,12,11,5,1,2
34.74,0,7,11,18,6,2,0,1
34.745,1,7,27,1,3,0,1,0
34.75,4,17,31,16,9,4,2,3
34.755,1,3,1,8,6,4,1,0
34.76,3,2,7,8,0,1,1,0
34.765,3,2,6,11,3,1,2,5
34.77,2,1,1,18,2,0,1,2
34.775,1,4,7,1,1,1,2,0
34.78,1,2,2,13,3,1,0,2
34.785,2,2,20,38,3,1,1,2
34.79,5,10,25,53,12,7,3,1
34.795,2,0,29,9,1,2,3,5
34.8,4,2,13,6,2,0,2,1
34.805,12,5,11,21,0,2,0,1
34.81,1,1,13,37,9,4,2,1
34.815,2,4,11,19,1,2,0,2
34.82,3,7,20,22,2,0,1,3
34.825,5,1,3,9,5,3,2,0
34.83,2,3,4,6,2,2,4,2
34.835,2,5,5,41,6,0,0,1
34.84,3,3,19,29,4,1,0,2
34.845,2,5,13,10,1,1,0,0
34.85,1,4,15,14,5,2,1,0
34.855,3,0,1,18,0,0,0,0
34.86,13,2,2,13,4,5,2,4
34.865,2,3,0,8,2,0,1,1
34.87,2,3,11,7,0,1,1,3
34.875,3,0,2,21,4,2,1,2
34.88,1,4,8,29,3,1,0,4
34.885,1,2,20,21,0,2,2,1
34.89,4,9,34,9,5,1,1,0
34.895,3,5,8,35,2,1,2,2
34.9,0,1,1,11,3,0,0,0
34.905,1,4,7,4,0,3,0,1
34.91,2,6,18,29,6,0,0,0
34.915,1,2,7,3,7,2,1,5
34.92,0,2,3,6,1,2,1,1
34.925,5,5,7,1,0,2,2,3
34.93,0,2,5,6,1,0,0,1
34.935,4,0,10,14,5,1,1,1
34.94,3,1,7,3,7,5,3,2
34.945,3,7,10,9,3,4,0,1
34.95,5,1,1,5,2,0,1,1
34.955,6,0,9,8,0,1,3,1
34.96,1,8,9,6,0,1,2,2
34.965,3,2,5,6,2,1,1,0
34.97,8,2,6,1,3,3,2,3
34.975,5,1,3,10,2,0,1,2
34.98,2,1,12,10,3,2,2,1
34.985,1,0,7,7,4,1,0,0
34.99,11,5,3,12,0,3,2,4
34.995,8,16,11,13,1,1,3,4
35,2,1,13,11,4,1,0,1
35.005,7,13,16,18,4,2,2,2
35.01,6,10,0,0,5,3,0,0
35.015,2,4,7,15,5,0,0,2
35.02,5,4,4,4,1,1,2,3
35.025,12,6,0,5,7,1,1,1
35.03,17,2,7,3,2,2,0,1
35.035,9,10,4,1,2,1,3,3
35.04,6,4,10,14,3,0,1,2
35.045,2,4,2,3,5,5,1,0
35.05,3,1,2,2,1,0,0,2
35.055,6,6,2,0,0,0,0,1
35.06,10,0,8,2,6,3,1,1
35.065,1,1,1,2,2,1,4,4
35.07,6,2,4,4,5,2,3,3
35.075,5,1,13,14,6,3,0,1
35.08,3,2,4,0,7,2,3,0
35.085,5,1,10,2,15,4,1,3
35.09,19,10,7,12,3,3,3,4
35.095,1,1,2,2,3,1,1,0
35.1,4,4,5,7,3,1,0,3
35.105,3,2,9,16,2,2,2,1
35.11,15,5,2,1,0,2,1,3
35.115,13,13,22,33,7,5,4,5
35.12,2,5,1,6,1,2,1,0
35.125,5,0,0,4,1,4,0,1
35.13,7,1,8,21,6,0,1,3
35.135,2,4,3,3,3,1,1,2
35.14,4,2,6,2,3,1,1,1
35.145,6,2,4,13,2,1,1,0
35.15,0,1,15,25,7,4,3,2
35.155,5,3,2,13,5,1,1,1
35.16,2,1,2,13,4,1,1,1
35.165,21,12,1,8,2,0,0,4
35.17,1,2,11,15,1,2,0,3
35.175,0,4,3,1,1,3,1,1
35.18,5,2,8,1,0,3,1,2
35.185,5,6,1,12,3,2,1,0
35.19,3,2,2,7,8,2,0,0
35.195,0,0,2,12,2,1,0,0
35.2,1,1,0,1,1,0,0,1
35.205,1,5,11,20,12,3,2,4
35.21,5,4,6,1,1,0,3,1
35.215,1,0,8,14,1,1,1,0
35.22,3,4,3,3,0,1,1,0
35.225,2,3,9,12,6,4,4,1
35.23,2,1,1,2,6,2,1,0
35.235,1,3,5,1,1,1,0,2
35.24,5,3,9,2,1,3,1,1
35.245,1,4,2,1,6,3,2,1
35.25,1,3,2,2,2,0,1,0
35.255,2,3,12,2,1,3,1,1
35.26,5,1,2,1,1,1,4,3
35.265,5,0,8,5,1,0,0,2
35.27,1,0,3,7,11,3,1,2
35.275,1,1,1,2,8,2,2,0
35.28,1,4,4,7,3,0,2,2
35.285,5,4,7,9,2,0,0,0
35.29,2,1,3,3,1,1,1,3
35.295,1,0,9,18,1,4,1,1
35.3,4,1,3,3,1,3,1,2
35.305,6,7,3,15,1,1,2,4
35.31,2,1,3,20,4,1,1,2
35.315,0,2,2,1,3,3,2,3
35.32,0,5,6,4,1,1,0,0
35.325,4,8,2,1,2,1,1,0
35.33,4,8,8,1,3,3,0,3
35.335,4,6,0,2,3,1,0,2
35.34,6,1,17,15,3,3,2,0
35.345,5,9,16,7,4,2,2,4
35.35,0,3,4,15,4,0,2,2
35.355,1,0,3,2,4,2,1,2
35.36,1,0,6,9,3,0,0,1
35.365,2,1,3,2,3,1,1,0
35.37,1,4,7,10,1,0,1,1
35.375,1,6,2,8,5,4,1,1
35.38,1,8,0,2,1,2,0,0
35.385,1,1,2,9,4,0,1,1
35.39,0,3,6,18,2,3,0,3
35.395,2,1,2,1,3,1,1,1
35.4,1,1,0,6,2,1,0,1
35.405,2,1,3,5,2,2,1,1
35.41,0,1,1,6,5,1,0,0
35.415,5,11,6,6,7,3,2,2
35.42,3,4,1,5,0,1,2,1
35.425,0,4,21,31,5,3,2,3
35.43,3,9,12,11,0,1,0,0
35.435,5,2,9,7,2,2,0,2
35.44,0,1,9,8,0,1,1,0
35.445,1,3,5,4,2,0,0,0
35.45,2,0,5,1,2,0,2,2
35.455,0,1,1,2,1,2,1,0
35.46,3,1,1,5,4,0,1,0
35.465,2,1,0,1,2,2,1,0
35.47,2,5,4,3,1,1,1,1
35.475,2,5,3,6,3,2,1,1
35.48,1,4,3,1,0,0,2,0
35.485,1,3,1,5,1,1,1,0
35.49,3,2,6,4,1,3,1,1
35.495,0,2,3,1,3,1,0,2
35.5,3,2,2,1,1,2,2,3
35.505,5,4,2,1,4,1,0,1
35.51,9,11,3,2,4,1,0,1
35.515,2,1,5,10,2,2,2,2
35.52,5,6,25,32,8,4,1,3
35.525,3,6,2,12,6,1,1,1
35.53,0,1,13,16,11,4,3,2
35.535,2,0,2,3,3,0,1,0
35.54,2,2,7,11,2,1,1,1
35.545,3,0,1,2,5,3,2,1
35.55,0,0,3,1,1,2,1,0
35.555,1,3,4,1,1,0,0,0
35.56,4,1,1,1,4,1,0,1
35.565,2,2,4,6,1,3,1,0
35.57,2,4,1,8,4,1,0,1
35.575,1,1,3,2,1,1,2,2
35.58,1,1,5,1,1,0,1,1
35.585,4,1,1,2,1,1,0,2
35.59,0,3,6,5,3,0,1,0
35.595,1,1,2,7,0,0,2,0
35.6,1,2,2,4,1,3,1,1
35.605,0,1,3,4,0,2,1,2
35.61,4,7,9,0,1,2,2,3
35.615,0,0,3,5,4,0,1,0
35.62,1,0,5,8,3,2,2,1
35.625,3,2,1,8,8,3,0,2
35.63,6,0,7,1,4,2,1,2
35.635,3,1,11,2,3,0,1,1
35.64,0,2,1,6,1,1,0,1
35.645,3,2,3,0,3,1,0,0
35.65,2,0,5,0,3,1,1,1
35.655,1,1,1,2,1,0,0,0
35.66,2,1,1,2,0,2,2,2
35.665,0,1,1,3,0,0,2,1
35.67,1,3,3,1,1,1,0,0
35.675,1,1,2,5,4,1,1,2
35.68,1,0,3,2,4,2,1,2
35.685,2,1,0,1,2,1,3,2
35.69,0,2,1,11,1,1,2,1
35.695,1,2,1,2,0,2,1,1
35.7,2,3,3,5,3,1,1,1
35.705,1,2,1,3,1,3,1,0
35.71,1,1,4,6,2,1,2,0
35.715,1,4,2,7,4,6,2,2
35.72,3,0,7,3,1,1,3,1
35.725,3,7,5,9,4,4,1,1
35.73,2,3,14,28,6,1,0,0
35.735,2,10,5,2,5,0,1,1
35.74,1,0,0,3,2,2,3,2
35.745,1,0,2,4,0,2,0,1
35.75,0,2,7,11,1,3,1,1
35.755,3,5,5,5,5,1,2,2
35.76,1,0,2,0,0,0,1,0
35.765,2,2,0,3,1,0,1,3
35.77,0,2,8,5,1,1,0,1
35.775,2,1,7,15,6,0,2,1
35.78,1,8,4,0,4,1,1,2
35.785,1,3,6,1,1,0,1,1
35.79,0,1,0,4,1,0,1,2
35.795,1,2,5,2,1,1,0,1
35.8,2,1,7,14,5,1,0,0
35.805,3,3,10,12,5,3,1,2
35.81,2,5,8,8,3,3,2,2
35.815,0,2,11,14,0,0,1,2
35.82,1,2,16,31,6,1,1,0
35.825,1,2,4,20,3,1,1,1
35.83,1,1,1,18,0,1,0,2
35.835,8,5,16,51,7,1,0,2
35.84,5,4,17,11,7,4,3,3
35.845,4,5,8,0,0,1,2,2
35.85,13,9,16,21,7,3,3,10
35.855,1,1,24,16,6,2,1,8
35.86,15,8,0,2,2,3,5,14
35.865,0,6,16,38,7,1,1,4
35.87,15,13,53,76,14,0,0,7
35.875,12,1,34,58,8,2,2,1
35.88,11,14,46,10,8,3,2,1
35.885,21,3,10,4,0,0,2,4
35.89,14,1,2,5,2,2,3,7
35.895,55,10,23,76,1,0,0,6
35.9,4,9,10,43,1,2,2,2
35.905,5,3,6,9,1,1,4,6
35.91,31,5,20,44,7,1,7,12
35.915,15,2,7,9,1,1,3,4
35.92,24,9,38,71,12,5,1,6
35.925,7,12,17,38,7,1,2,1
35.93,7,1,3,1,3,3,5,6
35.935,24,4,15,4,2,0,1,2
35.94,6,5,10,4,6,1,0,0
35.945,2,1,5,11,5,2,2,3
35.95,19,8,9,19,7,3,1,1
35.955,6,7,8,5,5,5,3,4
35.96,3,1,5,27,3,1,1,3
35.965,1,1,5,8,1,2,2,1
35.97,1,2,4,1,1,2,1,1
35.975,1,2,32,23,3,2,0,4
35.98,12,8,48,47,12,2,1,1
35.985,0,1,12,32,5,2,1,1
35.99,11,8,22,28,4,3,3,4
35.995,5,8,13,4,3,1,0,0
36,9,3,28,43,10,2,0,1
36.005,9,1,5,0,5,1,1,0
36.01,4,8,12,20,3,3,3,2
36.015,2,7,8,21,2,1,1,2
36.02,2,12,8,26,1,3,2,1
36.025,8,1,1,4,1,0,2,4
36.03,1,4,11,4,2,1,1,0
36.035,3,5,15,30,8,5,2,2
36.04,4,9,9,2,1,0,1,1
36.045,9,15,19,2,0,2,1,1
36.05,13,2,15,11,8,3,2,10
36.055,2,0,9,8,3,0,1,3
36.06,3,3,14,14,2,3,0,1
36.065,3,1,13,39,3,1,1,3
36.07,3,8,8,8,7,1,1,5
36.075,1,7,25,38,3,0,3,4
36.08,0,7,13,10,2,1,1,0
36.085,2,1,4,6,2,0,0,1
36.09,0,2,1,13,2,2,2,1
36.095,1,2,4,26,7,3,3,4
36.1,4,1,15,18,3,1,1,1
36.105,18,7,12,15,3,1,1,0
36.11,14,3,2,12,4,1,0,2
36.115,3,0,11,4,2,0,0,4
36.12,4,5,12,2,12,7,5,3
36.125,3,3,7,7,9,6,0,0
36.13,6,2,0,10,2,1,0,1
36.135,2,4,2,5,1,1,2,5
36.14,10,6,2,0,1,1,1,3
36.145,6,2,2,15,6,4,3,1
36.15,7,1,1,17,1,3,3,1
36.155,1,1,18,15,1,1,0,1
36.16,3,0,16,18,3,1,1,1
36.165,4,2,1,1,1,1,2,2
36.17,8,1,0,2,4,2,1,2
36.175,4,7,4,24,0,1,0,2
36.18,8,0,1,13,1,3,0,1
36.185,2,2,6,11,2,2,1,1
36.19,1,2,8,13,1,1,0,2
36.195,6,7,12,8,8,6,5,2
36.2,4,4,5,24,0,1,1,3
36.205,5,3,5,20,2,3,2,2
36.21,3,5,17,27,0,2,1,2
36.215,2,2,11,25,4,1,2,0
36.22,4,0,25,55,8,1,1,0
36.225,2,1,20,42,8,3,0,0
36.23,4,2,0,13,3,0,2,4
36.235,1,2,3,19,4,1,0,0
36.24,3,0,0,2,2,1,1,1
36.245,0,7,17,21,4,0,2,1
36.25,2,4,4,19,3,0,0,2
36.255,4,1,20,20,5,0,1,0
36.26,3,4,13,19,4,3,1,1
36.265,1,2,11,16,0,4,2,0
36.27,7,7,19,32,7,5,1,3
36.275,2,2,8,4,2,0,0,1
36.28,1,4,3,32,2,1,0,0
36.285,3,2,5,20,5,1,1,0
36.29,3,6,18,19,10,4,2,0
36.295,2,0,6,2,2,4,3,5
36.3,2,2,6,1,2,1,0,2
36.305,0,3,3,2,1,0,0,1
36.31,2,1,18,23,8,1,1,2
36.315,2,3,1,12,2,3,1,1
36.32,1,4,12,20,10,4,3,3
36.325,4,2,3,2,0,2,1,1
36.33,11,7,14,27,4,1,1,3
36.335,16,0,9,56,6,3,3,3
36.34,4,13,30,6,3,3,1,3
36.345,3,2,15,0,2,1,3,3
36.35,3,2,18,7,1,1,1,1
36.355,4,2,7,8,3,0,2,3
36.36,1,1,0,24,1,2,0,1
36.365,1,7,8,28,5,5,1,1
36.37,11,8,23,11,2,1,1,4
36.375,4,5,13,6,1,1,1,0
36.38,6,4,1,25,3,1,0,0
36.385,0,6,18,10,3,2,2,3
36.39,1,2,16,5,5,2,1,1
36.395,1,1,7,5,0,1,3,5
36.4,3,1,19,25,10,3,0,1
36.405,5,1,4,8,1,1,0,2
36.41,3,12,25,44,12,7,4,4
36.415,1,1,3,6,4,0,1,1
36.42,1,1,1,4,0,1,0,1
36.425,1,2,9,4,1,2,2,4
36.43,7,10,16,7,0,1,2,4
36.435,4,1,3,5,3,1,2,1
36.44,2,4,20,12,2,2,1,1
36.445,9,6,28,40,6,2,4,1
36.45,4,0,2,2,0,0,0,1
36.455,1,1,3,19,2,2,1,4
36.46,2,4,8,31,7,5,4,7
36.465,5,0,13,7,2,0,0,1
36.47,1,1,5,1,2,3,2,3
36.475,0,3,17,11,2,1,0,2
36.48,4,6,31,31,10,2,0,1
36.485,4,1,7,3,2,2,1,1
36.49,5,3,6,14,2,3,1,2
36.495,2,1,8,16,7,2,0,1
36.5,0,0,17,19,1,0,2,0
36.505,3,2,6,12,4,2,2,2
36.51,2,6,6,5,2,3,0,3
36.515,1,7,6,8,1,0,1,3
36.52,4,3,9,6,6,4,0,0
36.525,3,5,14,5,6,0,0,1
36.53,1,1,11,36,8,1,1,1
36.535,0,5,21,51,9,1,2,1
36.54,2,1,2,13,1,0,0,0
36.545,2,8,5,22,6,2,1,1
36.55,4,1,4,10,1,5,3,2
36.555,0,1,3,0,7,4,2,0
36.56,0,1,2,0,6,3,1,1
36.565,1,2,3,16,3,1,1,2
36.57,0,5,2,3,2,0,1,2
36.575,2,2,8,20,4,5,3,1
36.58,2,2,7,8,14,4,0,0
36.585,2,0,4,3,4,2,1,2
36.59,6,5,5,3,5,1,0,1
36.595,5,3,2,11,5,3,0,0
36.6,4,2,8,20,3,2,0,2
36.605,9,8,4,2,1,3,2,5
36.61,2,4,5,3,3,0,2,0
36.615,20,12,1,2,5,2,0,2
36.62,12,6,0,5,6,2,1,1
36.625,4,12,8,10,0,4,3,4
36.63,1,4,4,12,6,4,3,3
36.635,16,11,3,2,4,1,1,2
36.64,6,3,3,7,3,1,2,1
36.645,6,3,1,2,1,0,0,1
36.65,6,2,8,6,2,2,0,3
36.655,6,3,7,2,2,3,1,1
36.66,7,3,2,1,1,0,2,2
36.665,8,8,6,5,3,2,1,3
36.67,5,1,3,8,3,2,3,1
36.675,13,12,6,7,5,1,2,7
36.68,9,0,3,7,1,3,3,4
36.685,16,11,17,5,2,3,3,5
36.69,10,1,8,8,0,0,1,3
36.695,13,6,2,8,4,4,1,0
36.7,13,1,1,5,0,4,2,2
36.705,11,2,7,1,1,0,1,2
36.71,4,6,0,5,6,2,1,3
36.715,0,3,4,2,1,2,2,1
36.72,3,4,0,4,2,1,1,1
36.725,2,9,3,8,6,2,1,0
36.73,4,1,2,1,0,0,1,2
36.735,0,5,5,4,4,2,3,2
36.74,0,1,3,0,3,2,1,0
36.745,3,9,9,2,3,2,2,2
36.75,0,1,5,4,2,2,1,1
36.755,6,1,6,15,1,3,0,2
36.76,2,0,1,5,5,0,1,1
36.765,7,7,4,2,7,3,2,1
36.77,2,3,3,1,2,0,3,0
36.775,5,4,0,6,0,3,2,2
36.78,4,0,1,2,0,0,0,0
36.785,4,1,1,0,0,0,1,0
36.79,2,4,0,2,1,2,0,1
36.795,1,1,1,3,0,1,0,1
36.8,3,2,1,3,3,0,1,3
36.805,2,1,2,1,2,2,1,1
36.81,1,1,2,1,0,1,1,1
36.815,2,1,4,5,8,2,1,0
36.82,9,5,2,2,2,2,2,4
36.825,3,2,1,1,0,0,0,0
36.83,9,7,2,4,1,3,0,0
36.835,2,1,0,4,3,3,1,0
36.84,2,4,7,0,4,4,2,2
36.845,4,2,3,3,5,3,2,2
36.85,2,4,6,2,6,1,0,2
36.855,1,4,4,5,3,4,3,2
36.86,4,3,1,1,1,1,0,2
36.865,2,4,0,5,2,1,1,1
36.87,0,5,6,6,5,1,1,3
36.875,1,2,3,0,4,1,1,1
36.88,0,0,0,3,3,1,0,2
36.885,3,0,3,5,5,1,0,0
36.89,3,0,6,12,7,1,0,1
36.895,4,4,4,4,4,1,1,1
36.9,0,2,2,2,0,0,2,1
36.905,2,1,3,2,1,2,1,1
36.91,1,1,1,4,0,2,1,0
36.915,0,2,5,4,2,0,1,1
36.92,4,1,2,5,4,0,2,1
36.925,8,5,0,0,2,0,1,0
36.93,4,2,3,7,2,1,1,2
36.935,8,8,4,2,2,2,0,2
36.94,3,1,2,12,5,2,2,1
36.945,0,1,2,3,4,3,2,2
36.95,2,1,2,4,5,3,2,1
36.955,3,3,3,4,1,0,0,2
36.96,4,5,3,1,0,0,2,0
36.965,2,1,4,3,0,1,1,1
36.97,2,1,4,4,1,2,0,1
36.975,0,0,6,3,4,1,1,2
36.98,3,3,2,7,5,3,3,2
36.985,1,4,0,3,2,1,1,1
36.99,1,6,8,13,4,1,0,2
36.995,1,1,2,2,2,3,1,1
37,2,2,5,3,0,1,1,0
37.005,2,2,2,1,6,4,2,2
37.01,3,1,3,1,3,1,1,1
37.015,1,4,3,4,2,0,1,2
37.02,1,3,3,3,3,1,2,1
37.025,0,0,0,1,2,0,0,1
37.03,4,0,0,1,1,0,0,2
37.035,2,1,0,0,0,1,1,0
37.04,2,3,0,10,1,3,2,3
37.045,1,3,7,1,5,1,2,1
37.05,2,0,3,10,10,2,0,3
37.055,0,0,1,2,4,0,0,1
37.06,3,1,1,2,4,2,2,2
37.065,1,1,2,2,2,4,1,2
37.07,0,1,3,3,1,0,3,1
37.075,2,3,2,3,0,2,2,0
37.08,6,1,4,3,3,2,0,1
37.085,3,4,7,6,2,2,0,1
37.09,0,1,4,1,1,2,1,2
37.095,4,2,0,3,1,1,3,1
37.1,2,2,2,1,4,1,0,0
37.105,0,0,1,3,1,3,2,1
37.11,5,5,7,0,2,1,1,1
37.115,0,2,1,2,4,1,1,1
37.12,1,1,3,0,1,2,1,1
37.125,1,3,5,3,3,2,0,1
37.13,2,1,1,6,5,1,1,0
37.135,2,0,4,10,10,3,0,2
37.14,1,1,5,2,4,3,1,1
37.145,0,0,1,0,1,2,1,2
37.15,0,1,4,2,3,2,2,2
37.155,5,5,8,1,0,2,1,1
37.16,1,2,2,1,3,0,1,1
37.165,3,2,3,4,5,2,1,0
37.17,0,0,0,8,2,2,2,1
37.175,0,4,4,4,5,3,1,3
37.18,11,4,2,3,2,2,1,2
37.185,1,3,1,4,4,1,0,2
37.19,1,2,0,10,5,1,1,1
37.195,3,7,6,0,4,3,1,0
37.2,2,2,3,4,5,2,2,1
37.205,2,0,1,4,3,1,3,0
37.21,4,2,1,3,1,2,2,2
37.215,1,2,1,0,3,0,0,0
37.22,2,1,1,0,1,3,3,0
37.225,0,0,3,1,0,0,2,0
37.23,1,1,4,3,1,0,0,1
37.235,3,4,2,3,1,0,1,0
37.24,0,1,0,1,3,2,2,2
37.245,2,1,0,3,3,0,0,0
37.25,5,3,2,1,3,2,0,2
37.255,7,3,3,6,1,1,0,1
37.26,2,0,1,2,4,2,2,3
37.265,3,7,6,6,0,0,0,1
37.27,1,0,2,1,1,1,1,0
37.275,2,0,5,1,0,2,1,0
37.28,0,2,3,5,0,1,0,2
37.285,2,1,3,4,2,3,3,0
37.29,1,3,0,4,2,1,1,1
37.295,0,1,2,14,8,3,3,3
37.3,3,2,5,0,2,1,0,2
37.305,1,2,2,1,2,0,1,1
37.31,3,1,0,3,0,3,3,2
37.315,0,0,1,2,0,0,1,1
37.32,1,2,5,4,3,2,0,0
37.325,1,1,1,4,3,1,2,1
37.33,1,1,2,6,1,2,0,1
37.335,0,2,2,5,1,1,2,3
37.34,2,0,1,1,2,2,2,0
37.345,3,1,7,4,4,3,1,1
37.35,4,6,6,2,3,2,2,1
37.355,0,1,5,4,0,0,2,0
37.36,0,1,1,2,0,2,1,1
37.365,1,1,4,3,0,2,3,2
37.37,1,2,7,2,0,0,0,0
37.375,5,2,1,3,0,3,2,2
37.38,0,3,2,1,1,1,2,0
37.385,0,5,10,7,0,2,1,0
37.39,2,5,16,24,8,1,0,1
37.395,0,7,1,3,2,1,0,2
37.4,1,1,1,0,0,3,1,3
37.405,1,5,3,1,1,2,2,3
37.41,1,6,10,6,1,3,3,2
37.415,1,4,6,2,2,2,1,0
37.42,0,1,0,5,2,1,0,0
37.425,4,2,1,3,3,1,0,1
37.43,9,6,2,2,1,2,1,2
37.435,1,2,4,2,1,1,1,0
37.44,0,1,2,2,2,2,3,1
37.445,1,1,2,2,1,1,1,0
37.45,1,4,2,3,1,1,3,1
37.455,1,3,0,5,7,4,2,2
37.46,2,1,0,6,11,5,0,1
37.465,3,1,6,20,8,0,1,2
37.47,1,1,0,1,0,1,1,2
37.475,4,3,1,0,1,2,1,2
37.48,3,2,3,1,3,2,1,2
37.485,4,2,2,7,2,1,2,1
37.49,0,1,2,3,2,0,0,1
37.495,2,1,1,1,1,3,0,0
37.5,2,2,2,7,7,2,2,0
37.505,2,3,6,2,0,1,1,2
37.51,0,3,5,2,6,2,1,1
37.515,3,8,11,4,6,1,1,2
37.52,1,1,2,1,0,1,1,1
37.525,0,4,3,2,6,2,0,0
37.53,2,2,1,1,2,3,0,2
37.535,1,3,4,7,4,3,1,0
37.54,2,1,5,3,2,1,2,0
37.545,2,4,5,0,1,1,2,0
37.55,0,3,10,1,1,0,1,1
37.555,2,2,4,4,6,1,1,2
37.56,2,2,5,3,0,2,2,1
37.565,1,1,2,3,0,2,1,1
37.57,1,4,3,4,2,0,1,2
37.575,1,1,1,15,2,1,0,1
37.58,3,1,18,44,2,1,1,0
37.585,15,1,7,5,5,3,2,5
37.59,10,7,16,13,4,1,4,7
37.595,4,2,25,7,6,2,3,0
37.6,21,8,15,30,11,5,3,4
37.605,5,7,22,6,10,5,3,6
37.61,24,2,9,28,1,1,1,7
37.615,51,11,35,20,9,2,1,3
37.62,36,8,30,11,6,1,0,4
37.625,45,2,10,34,8,4,1,6
37.63,69,8,2,19,3,2,3,4
37.635,7,2,10,2,7,1,1,3
37.64,0,1,12,16,3,2,1,3
37.645,8,2,17,17,2,2,3,13
37.65,44,15,34,8,3,2,1,2
37.655,14,3,9,20,4,0,0,1
37.66,8,19,41,53,12,7,5,7
37.665,13,4,32,3,6,3,1,2
37.67,13,2,0,25,3,2,1,1
37.675,16,2,16,24,3,3,2,1
37.68,22,16,40,65,12,5,0,0
37.685,10,8,15,9,0,0,1,0
37.69,18,3,16,23,5,1,1,0
37.695,2,5,31,57,4,0,0,2
37.7,2,0,3,6,1,0,0,3
37.705,1,0,30,24,2,3,5,1
37.71,14,2,12,35,6,4,1,4
37.715,15,14,13,33,15,6,3,0
37.72,6,8,33,13,6,0,2,9
37.725,1,7,25,18,4,2,1,1
37.73,11,1,3,1,2,3,2,0
37.735,6,1,12,21,0,1,2,0
37.74,13,9,14,22,8,3,1,1
37.745,9,17,27,5,9,4,2,0
37.75,8,13,14,5,5,3,2,1
37.755,1,1,3,34,3,1,3,7
37.76,5,10,15,19,2,2,1,5
37.765,1,2,18,14,2,0,0,1
37.77,16,1,33,25,9,3,3,0
37.775,11,4,23,7,2,2,3,4
37.78,2,1,21,23,3,1,1,2
37.785,5,14,27,13,7,6,3,6
37.79,3,0,8,12,0,0,1,1
37.795,5,5,16,5,2,1,0,1
37.8,13,5,14,7,0,2,0,1
37.805,10,0,8,2,1,2,0,2
37.81,2,0,16,7,5,1,1,2
37.815,6,6,21,2,12,3,5,5
37.82,1,1,7,9,0,2,1,1
37.825,7,5,15,24,0,1,2,4
37.83,10,2,11,8,8,6,3,11
37.835,4,4,10,10,8,3,2,2
37.84,4,0,18,25,7,3,4,3
37.845,10,1,3,19,5,1,2,1
37.85,3,1,12,29,1,2,1,3
37.855,8,5,11,3,4,4,1,4
37.86,5,3,1,3,1,0,0,2
37.865,0,6,12,4,1,2,0,0
37.87,8,4,21,24,7,5,2,3
37.875,11,4,16,16,8,5,1,1
37.88,9,4,16,26,5,3,2,1
37.885,4,3,10,36,0,3,3,4
37.89,2,2,21,31,3,3,1,0
37.895,1,2,13,15,2,1,1,1
37.9,4,1,6,12,0,1,1,0
37.905,6,1,13,40,5,0,0,2
37.91,8,3,33,86,4,2,2,3
37.915,2,1,8,30,3,3,3,3
37.92,2,8,19,15,1,1,2,1
37.925,7,5,14,25,5,1,3,3
37.93,1,2,21,47,2,2,1,1
37.935,1,1,35,64,8,2,0,1
37.94,12,2,5,11,3,4,3,3
37.945,2,3,5,11,2,1,1,0
37.95,2,2,18,14,4,1,0,0
37.955,6,2,8,20,6,3,2,3
37.96,1,8,17,12,8,4,2,3
37.965,4,4,3,18,2,3,2,1
37.97,6,0,20,13,5,5,3,5
37.975,2,5,21,9,2,2,1,2
37.98,11,5,17,39,4,3,2,8
37.985,2,0,3,8,0,2,1,1
37.99,3,1,8,19,4,0,1,4
37.995,1,2,18,14,2,1,2,2
38,4,2,25,58,6,1,0,1
38.005,6,7,42,65,10,4,2,3
38.01,2,3,0,18,2,3,1,2
38.015,2,2,6,5,4,2,0,0
38.02,8,3,4,15,1,2,1,2
38.025,0,5,3,6,0,1,2,3
38.03,6,9,26,8,3,4,2,1
38.035,3,3,17,39,4,1,1,2
38.04,2,7,18,4,4,3,0,1
38.045,6,3,1,10,2,1,1,1
38.05,1,1,2,2,1,1,0,6
38.055,5,2,14,31,5,0,2,2
38.06,2,3,2,9,4,3,1,0
38.065,6,8,27,54,10,5,1,0
38.07,0,1,12,6,3,1,2,6
38.075,4,0,2,9,1,1,1,1
38.08,1,3,20,15,3,1,2,1
38.085,3,5,17,34,7,3,1,0
38.09,3,11,41,43,10,5,1,1
38.095,2,3,8,0,0,2,3,0
38.1,3,4,1,6,2,1,2,2
38.105,3,5,30,25,2,5,1,2
38.11,1,5,6,5,4,2,2,0
38.115,3,2,7,16,2,0,2,1
38.12,2,6,23,12,3,4,1,1
38.125,3,3,1,4,5,1,2,2
38.13,2,3,1,19,3,0,0,0
38.135,7,8,15,41,11,5,2,2
38.14,4,3,3,5,1,1,3,2
38.145,6,1,6,30,3,2,0,1
38.15,6,5,23,21,1,2,2,3
38.155,1,7,25,48,4,2,0,1
38.16,0,0,15,3,1,3,1,2
38.165,5,1,4,9,1,3,0,2
38.17,2,0,7,27,1,0,1,1
38.175,1,1,2,31,0,1,1,1
38.18,7,4,9,6,5,2,1,3
38.185,6,1,8,2,0,1,1,5
38.19,6,2,2,5,1,2,1,0
38.195,5,1,5,14,3,3,0,2
38.2,0,1,8,24,6,2,0,0
38.205,7,7,9,30,3,4,4,3
38.21,1,1,9,30,2,1,0,0
38.215,3,13,39,76,10,3,1,3
38.22,1,0,4,17,4,1,0,2
38.225,2,1,3,5,1,1,0,0
38.23,2,3,0,12,0,2,1,1
38.235,3,2,18,54,8,2,2,0
38.24,4,0,1,1,6,2,1,0
38.245,3,2,7,15,1,2,1,1
38.25,3,6,12,2,1,0,2,1
38.255,1,5,15,29,5,2,1,0
38.26,2,10,16,6,2,1,2,3
38.265,2,0,8,21,8,2,1,2
38.27,8,9,12,8,2,0,1,1
38.275,7,10,6,1,1,0,0,0
38.28,0,1,7,1,5,2,2,1
38.285,2,0,3,9,0,3,0,0
38.29,2,0,5,11,0,2,1,3
38.295,1,4,0,5,0,1,2,0
38.3,1,1,8,9,6,1,4,2
38.305,1,6,10,19,13,2,0,0
38.31,3,8,2,2,4,2,2,2
38.315,2,5,1,2,2,3,3,1
38.32,6,1,1,4,2,4,2,3
38.325,0,5,5,2,7,1,1,1
38.33,5,0,1,9,5,0,2,1
38.335,0,4,1,8,4,2,1,0
38.34,5,5,6,5,5,1,2,1
38.345,6,6,2,2,5,3,2,1
38.35,7,1,17,11,4,4,2,1
38.355,1,7,8,7,1,1,1,1
38.36,4,3,0,10,6,2,1,1
38.365,2,9,3,3,6,6,1,3
38.37,8,6,5,5,6,1,1,2
38.375,5,9,8,5,1,0,0,1
38.38,3,2,10,6,2,2,2,1
38.385,8,11,6,3,1,1,0,0
38.39,5,5,4,10,4,0,0,0
38.395,5,12,8,2,5,5,4,4
38.4,7,4,6,4,5,2,0,1
38.405,9,9,8,5,1,0,1,2
38.41,1,3,7,1,4,5,1,1
38.415,2,3,4,7,1,1,0,1
38.42,11,7,2,10,7,5,2,1
38.425,1,6,27,28,2,1,2,2
38.43,5,6,3,0,11,6,4,4
38.435,10,8,0,0,0,1,1,0
38.44,14,12,5,2,2,1,1,3
38.445,3,3,6,27,3,0,1,2
38.45,7,4,15,28,3,2,1,0
38.455,3,4,1,4,2,1,1,1
38.46,6,5,0,5,5,3,0,1
38.465,1,1,5,13,5,0,1,2
38.47,3,10,9,8,10,2,2,4
38.475,6,0,3,7,8,1,1,2
38.48,1,2,4,9,5,3,0,2
38.485,0,1,7,1,2,1,0,2
38.49,2,0,5,11,7,1,0,2
38.495,3,2,1,0,1,0,0,0
38.5,1,3,2,7,6,2,1,3
38.505,11,7,11,13,0,2,0,0
38.51,15,13,2,2,1,2,2,2
38.515,2,1,4,1,2,5,2,2
38.52,2,10,9,5,1,2,1,2
38.525,2,9,2,4,3,1,0,2
38.53,1,3,3,10,5,1,1,1
38.535,2,0,2,1,3,0,1,1
38.54,4,7,7,7,5,3,1,3
38.545,6,2,4,2,2,1,2,1
38.55,4,5,6,14,7,2,0,0
38.555,8,9,14,13,7,4,3,3
38.56,2,0,2,16,5,2,2,1
38.565,7,3,1,3,2,1,1,0
38.57,2,2,3,11,4,1,0,3
38.575,3,4,7,8,1,1,1,1
38.58,3,6,14,7,3,2,0,2
38.585,4,6,3,8,3,0,0,0
38.59,2,4,2,3,2,4,1,1
38.595,3,1,0,12,0,2,3,2
38.6,0,1,3,13,2,2,3,1
38.605,2,4,8,12,3,0,0,1
38.61,4,2,1,1,3,2,2,3
38.615,6,2,1,2,4,1,0,2
38.62,5,0,1,11,1,1,1,0
38.625,2,1,1,1,4,3,0,1
38.63,1,5,1,4,2,1,1,1
38.635,3,1,2,1,0,2,1,0
38.64,6,3,14,11,0,1,1,2
38.645,1,3,9,9,5,2,2,1
38.65,2,1,3,2,2,1,4,0
38.655,3,3,21,3,2,1,1,1
38.66,1,1,2,1,1,2,1,2
38.665,1,4,11,13,1,0,2,0
38.67,2,3,14,0,2,3,1,0
38.675,1,5,3,6,5,2,1,0
38.68,1,1,2,4,2,0,1,0
38.685,3,1,6,8,5,2,2,3
38.69,2,2,8,1,0,0,0,0
38.695,0,2,1,2,2,1,2,2
38.7,3,5,4,1,6,4,2,2
38.705,0,1,4,13,1,2,0,4
38.71,1,3,8,6,6,0,3,1
38.715,3,6,1,4,4,0,0,0
38.72,1,1,2,0,0,2,0,0
38.725,4,5,2,7,1,2,0,1
38.73,0,0,4,8,0,1,2,1
38.735,4,3,17,28,3,1,1,1
38.74,1,4,1,7,0,0,2,1
38.745,4,4,2,1,6,3,2,2
38.75,0,1,6,2,1,2,1,3
38.755,1,1,8,2,2,2,2,1
38.76,3,3,10,13,1,3,0,0
38.765,3,2,7,1,2,2,2,1
38.77,1,6,15,4,2,1,0,0
38.775,0,7,16,7,2,3,2,1
38.78,6,4,8,14,2,1,1,2
38.785,2,3,10,19,6,3,2,1
38.79,1,5,7,10,3,1,1,3
38.795,2,2,2,7,2,2,2,2
38.8,3,3,2,8,1,0,1,0
38.805,1,3,3,4,1,0,0,0
38.81,10,6,6,3,3,1,1,1
38.815,4,0,4,1,1,3,1,2
38.82,4,2,5,2,3,2,1,1
38.825,1,4,4,4,2,0,2,2
38.83,2,2,5,2,5,3,1,1
38.835,2,3,2,6,0,1,1,2
38.84,2,1,5,2,3,1,2,1
38.845,1,5,5,0,1,1,1,2
38.85,1,3,5,1,0,1,2,2
38.855,5,7,7,16,2,1,1,2
38.86,1,1,13,1,3,2,3,2
38.865,0,4,10,4,1,2,0,0
38.87,1,0,3,2,4,3,1,0
38.875,3,1,2,2,2,2,3,1
38.88,2,3,6,1,1,2,0,0
38.885,3,3,2,6,1,0,3,2
38.89,1,3,6,4,0,0,0,2
38.895,6,5,5,1,6,2,1,1
38.9,10,8,4,1,1,3,1,2
38.905,1,3,0,5,0,1,2,1
38.91,3,2,5,4,1,2,1,3
38.915,1,3,4,6,8,1,1,1
38.92,3,3,2,9,0,1,1,0
38.925,4,5,0,13,1,1,2,2
38.93,0,2,2,1,3,3,1,2
38.935,4,3,9,11,2,2,1,2
38.94,1,6,2,4,4,1,2,2
38.945,2,2,3,4,2,3,1,1
38.95,0,3,2,2,1,0,1,1
38.955,0,1,2,4,1,2,3,1
38.96,4,2,2,0,1,2,0,2
38.965,0,9,17,7,1,2,0,0
38.97,1,1,1,8,6,1,1,0
38.975,2,1,1,4,4,1,0,2
38.98,3,2,3,2,2,1,1,3
38.985,1,1,7,7,0,1,1,1
38.99,4,3,1,9,7,1,1,2
38.995,0,1,3,4,3,2,1,1
39,2,1,2,3,2,3,3,1
39.005,2,4,3,3,1,0,3,1
39.01,0,2,3,2,0,0,0,1
39.015,4,3,0,3,4,2,1,3
39.02,1,5,1,2,0,3,1,1
39.025,2,0,2,7,6,3,2,1
39.03,3,1,4,2,3,0,2,2
39.035,1,2,9,4,2,2,1,0
39.04,1,5,5,7,3,0,0,1
39.045,1,3,1,5,4,3,2,2
39.05,0,2,2,1,3,0,0,0
39.055,4,2,7,0,5,1,1,2
39.06,2,4,6,3,7,1,1,1
39.065,2,0,2,9,9,4,1,2
39.07,10,11,10,0,2,0,2,3
39.075,4,5,3,1,4,4,2,3
39.08,2,1,0,1,3,2,1,1
39.085,2,4,4,3,8,3,0,2
39.09,1,1,3,0,6,3,3,1
39.095,1,1,11,14,2,2,3,1
39.1,0,2,1,5,6,1,1,1
39.105,3,0,3,4,5,1,1,2
39.11,2,4,3,0,2,0,0,0
39.115,1,1,6,6,3,1,0,1
39.12,3,2,6,3,0,2,0,1
39.125,5,2,0,3,0,3,2,2
39.13,2,5,5,2,4,1,1,1
39.135,1,3,4,16,1,0,1,1
39.14,1,1,2,1,4,1,1,1
39.145,3,1,5,5,2,0,1,0
39.15,3,6,3,8,1,1,1,2
39.155,2,4,15,7,7,2,0,3
39.16,3,1,2,15,3,0,1,2
39.165,17,4,5,35,3,2,1,7
39.17,1,1,8,8,3,3,2,4
39.175,4,14,32,16,9,5,3,3
39.18,15,4,17,58,8,4,6,14
39.185,10,10,45,57,8,4,7,18
39.19,0,5,28,42,14,6,3,2
39.195,13,4,42,53,7,3,5,10
39.2,6,6,26,16,4,3,0,0
39.205,7,0,9,17,10,6,4,5
39.21,55,6,15,1,5,1,0,5
39.215,14,7,34,51,6,3,2,1
39.22,3,9,7,24,5,3,1,5
39.225,5,2,12,19,4,2,3,1
39.23,23,5,26,34,4,3,2,5
39.235,27,3,16,23,3,3,6,12
39.24,17,9,41,22,9,6,3,1
39.245,2,28,65,20,21,11,6,3
39.25,4,3,9,21,1,1,0,2
39.255,0,13,20,30,14,4,4,6
39.26,0,9,11,12,1,2,2,1
39.265,52,0,14,11,7,5,2,3
39.27,65,9,17,33,6,3,4,10
39.275,46,4,37,30,2,0,1,0
39.28,4,2,38,78,5,0,1,2
39.285,26,5,11,23,1,1,5,10
39.29,35,3,22,2,8,4,1,3
39.295,5,2,1,16,4,0,1,0
39.3,4,7,40,46,6,0,2,1
39.305,7,2,9,58,3,2,1,2
39.31,16,0,7,34,2,1,2,3
39.315,3,14,24,53,16,7,5,1
39.32,15,0,3,2,2,2,2,3
39.325,19,3,24,7,3,3,3,14
39.33,4,1,24,34,2,2,0,1
39.335,10,4,14,17,6,3,2,2
39.34,12,11,39,59,17,7,4,5
39.345,7,6,17,1,2,0,0,1
39.35,7,9,26,11,5,1,1,0
39.355,7,2,5,18,3,2,3,6
39.36,5,1,2,7,5,3,3,9
39.365,1,2,28,4,1,0,1,5
39.37,3,7,26,21,8,7,5,5
39.375,7,3,20,31,6,1,0,2
39.38,3,4,11,18,1,1,0,1
39.385,13,7,18,7,1,2,2,0
39.39,6,7,0,5,0,1,0,2
39.395,4,6,3,11,2,3,2,2
39.4,11,5,10,3,0,0,2,3
39.405,3,5,36,35,4,1,3,5
39.41,9,6,20,22,3,1,0,2
39.415,2,1,0,34,8,2,3,3
39.42,3,0,2,24,1,0,1,1
39.425,5,3,1,14,2,1,2,0
39.43,5,2,21,46,5,0,1,1
39.435,11,2,11,3,3,1,2,3
39.44,2,0,10,16,4,4,2,3
39.445,1,4,1,1,2,2,0,1
39.45,3,0,4,16,3,1,1,1
39.455,0,13,38,34,7,6,3,2
39.46,2,3,4,39,7,2,1,4
39.465,9,6,7,22,4,1,0,0
39.47,5,1,4,17,1,3,3,4
39.475,2,7,11,2,1,1,1,0
39.48,2,5,13,32,3,2,0,1
39.485,2,5,1,11,4,2,2,0
39.49,4,4,2,15,1,0,1,5
39.495,2,1,17,7,3,2,0,1
39.5,1,2,19,15,6,3,2,3
39.505,9,4,4,1,11,4,3,4
39.51,2,7,18,18,5,2,2,1
39.515,5,1,6,6,2,2,0,2
39.52,9,3,15,36,5,1,2,2
39.525,1,0,1,26,3,2,0,1
39.53,9,4,1,8,3,2,1,1
39.535,15,3,3,23,7,2,0,1
39.54,4,4,3,4,2,3,4,5
39.545,2,7,8,35,8,1,0,2
39.55,0,10,17,15,5,4,4,3
39.555,5,4,8,6,4,2,0,2
39.56,4,1,8,28,2,5,1,1
39.565,1,4,15,4,7,4,5,2
39.57,1,2,0,11,2,2,0,1
39.575,1,3,11,1,4,3,2,1
39.58,2,1,8,31,1,0,1,4
39.585,6,11,19,66,7,1,1,2
39.59,4,3,1,8,3,2,1,0
39.595,12,5,2,16,1,1,2,3
39.6,2,2,2,20,4,1,0,2
39.605,3,3,12,10,4,4,2,3
39.61,6,2,3,19,1,1,2,2
39.615,2,2,0,17,3,2,2,1
39.62,5,7,9,20,5,1,1,2
39.625,2,2,3,22,2,1,3,3
39.63,6,6,15,40,7,1,3,2
39.635,15,4,10,19,2,2,2,1
39.64,6,9,27,14,3,0,0,1
39.645,2,1,12,6,2,2,2,3
39.65,2,6,33,35,5,0,1,2
39.655,10,6,47,54,9,4,2,7
39.66,0,2,15,10,1,3,3,2
39.665,0,0,5,18,3,2,1,3
39.67,1,3,10,4,4,4,2,2
39.675,7,4,3,13,1,1,1,0
39.68,2,2,4,1,4,4,3,0
39.685,9,4,26,18,5,2,3,1
39.69,5,4,8,11,2,3,0,4
39.695,0,1,5,34,3,3,1,2
39.7,4,6,15,57,11,2,0,1
39.705,1,1,5,11,3,0,1,1
39.71,1,0,11,10,4,2,0,1
39.715,1,1,11,31,6,0,0,3
39.72,2,1,7,19,0,3,3,1
39.725,10,0,9,2,3,1,0,1
39.73,9,4,7,2,4,4,1,2
39.735,3,0,0,2,0,1,1,2
39.74,0,6,12,19,5,2,3,2
39.745,3,2,0,2,2,2,1,4
39.75,3,7,11,15,7,2,2,1
39.755,3,1,6,1,1,1,1,0
39.76,8,3,0,3,3,2,3,5
39.765,4,2,13,9,1,0,0,1
39.77,5,0,7,10,6,1,2,4
39.775,3,5,19,7,3,1,2,1
39.78,2,9,6,7,0,0,0,0
39.785,5,1,18,47,10,1,1,1
39.79,11,6,9,28,11,4,3,2
39.795,2,1,22,15,2,2,2,0
39.8,3,3,7,12,0,1,0,0
39.805,1,2,23,27,1,1,1,2
39.81,2,3,3,30,2,0,0,2
39.815,3,3,11,41,2,0,1,1
39.82,1,2,23,32,7,1,0,1
39.825,5,1,9,17,1,1,0,2
39.83,1,4,2,10,2,1,0,0
39.835,0,0,9,11,0,0,1,2
39.84,1,4,5,24,3,1,0,0
39.845,2,2,0,40,6,1,2,2
39.85,5,3,3,33,4,3,1,1
39.855,0,5,14,37,6,4,1,1
39.86,1,2,1,10,1,2,0,3
39.865,4,1,7,13,9,3,0,2
39.87,4,9,24,14,0,3,0,1
39.875,3,8,36,28,5,1,1,1
39.88,1,6,27,16,4,2,2,4
39.885,4,9,35,37,9,4,2,2
39.89,2,4,4,7,0,3,1,0
39.895,1,2,11,22,9,3,0,0
39.9,6,3,5,10,3,1,0,2
39.905,1,5,16,11,4,2,1,1
39.91,1,5,12,9,4,1,2,2
39.915,4,1,5,13,2,0,0,1
39.92,4,8,6,0,0,1,1,1
39.925,6,4,7,11,0,3,3,3
39.93,2,1,3,11,1,1,1,1
39.935,2,3,3,6,2,2,2,0
39.94,14,15,9,11,2,1,1,3
39.945,3,1,3,1,8,2,1,2
39.95,10,8,2,10,2,3,2,1
39.955,7,0,10,10,2,1,3,5
39.96,3,4,3,6,6,2,3,2
39.965,3,1,5,2,2,3,4,4
39.97,5,5,0,5,2,3,1,1
39.975,6,6,4,3,1,3,0,0
39.98,11,4,1,1,1,2,1,3
39.985,5,0,0,2,1,2,2,1
39.99,18,5,2,3,2,0,0,2
39.995,4,15,5,2,7,4,3,5
40,15,6,0,14,4,1,1,2
40.005,12,5,4,3,3,4,2,3
40.01,2,5,2,2,1,2,0,0
40.015,5,5,2,3,4,1,2,3
40.02,5,0,9,25,2,1,1,1
40.025,9,7,20,32,1,3,1,0
40.03,9,4,5,2,4,3,2,2
40.035,27,12,6,23,6,1,1,4
40.04,4,3,6,5,0,1,1,2
40.045,1,2,7,10,0,0,1,1
40.05,2,4,1,1,2,2,1,2
40.055,10,12,0,2,7,2,1,3
40.06,7,8,5,3,5,6,2,4
40.065,7,3,3,1,1,2,2,2
40.07,3,4,0,4,0,2,1,0
40.075,3,2,3,10,5,1,1,0
40.08,2,10,5,3,2,2,0,1
40.085,5,7,10,2,5,3,3,3
40.09,1,10,0,3,6,6,3,3
40.095,8,2,6,9,5,1,1,0
40.1,3,1,6,7,4,1,0,1
40.105,0,2,0,1,1,1,0,1
40.11,7,3,0,0,1,1,2,2
40.115,5,1,2,2,5,5,2,3
40.12,2,3,2,1,0,1,1,1
40.125,1,3,3,21,5,2,2,2
40.13,4,0,15,45,4,0,2,1
40.135,1,1,5,18,1,1,1,0
40.14,4,5,6,3,5,4,3,3
40.145,4,4,1,1,2,0,0,3
40.15,2,2,2,13,4,1,0,0
40.155,2,1,1,5,3,3,1,2
40.16,1,2,2,1,0,2,0,1
40.165,2,1,4,7,6,0,3,0
40.17,0,2,3,8,0,1,1,1
40.175,3,3,4,13,5,2,3,2
40.18,2,1,1,3,1,3,0,1
40.185,6,1,1,4,0,1,1,1
40.19,10,2,10,35,4,2,2,0
40.195,2,1,30,75,9,1,1,0
40.2,2,4,12,10,3,4,2,1
40.205,13,7,1,5,6,3,2,3
40.21,0,0,9,10,5,0,0,1
40.215,2,0,10,31,4,1,1,1
40.22,1,5,1,0,2,2,2,1
40.225,3,1,8,12,2,2,0,0
40.23,3,1,3,3,3,1,1,0
40.235,3,1,4,9,1,1,1,0
40.24,2,4,2,6,3,5,3,2
40.245,3,1,1,1,1,2,0,0
40.25,0,4,6,9,1,0,0,2
40.255,1,1,3,2,1,1,1,3
40.26,2,3,2,3,3,1,1,1
40.265,1,2,8,3,7,1,1,1
40.27,1,2,8,26,8,4,2,0
40.275,1,2,7,5,3,0,1,1
40.28,1,1,3,8,3,0,2,2
40.285,1,1,2,2,3,4,0,0
40.29,0,4,6,12,3,2,0,0
40.295,0,6,2,19,2,1,1,1
40.3,2,1,9,28,6,1,1,2
40.305,2,0,0,2,1,1,0,0
40.31,1,4,3,4,4,1,2,3
40.315,8,4,18,10,2,1,0,1
40.32,0,1,20,0,1,1,1,0
40.325,2,1,2,3,2,2,2,2
40.33,3,0,2,0,1,2,2,1
40.335,13,6,1,0,3,2,1,0
40.34,16,16,10,5,2,1,2,4
40.345,3,2,7,2,1,2,1,0
40.35,2,0,1,1,1,1,0,2
40.355,2,6,12,16,5,2,2,2
40.36,4,2,5,5,1,0,0,1
40.365,0,3,1,3,0,1,1,2
40.37,4,6,1,4,1,5,2,3
40.375,1,7,17,20,6,10,5,3
40.38,1,8,35,42,10,4,3,4
40.385,1,5,11,13,7,3,4,2
40.39,1,1,3,3,1,2,1,1
40.395,5,2,2,0,3,4,3,3
40.4,1,6,22,32,8,2,0,2
40.405,0,1,3,3,3,0,1,1
40.41,0,2,3,10,3,3,1,1
40.415,3,3,7,1,6,4,0,1
40.42,3,6,4,8,8,3,0,3
40.425,1,2,10,6,5,1,3,1
40.43,1,0,5,5,2,0,1,0
40.435,3,6,6,8,1,1,0,2
40.44,5,4,7,1,5,3,1,0
40.445,2,4,12,3,1,1,0,4
40.45,0,3,3,4,1,1,2,0
