9.505,4,6,2,5,4,4,0,3
9.51,0,5,7,15,2,1,0,0
9.515,1,5,5,1,8,7,4,2
9.52,3,0,4,8,6,1,1,1
9.525,0,2,3,6,3,0,0,0
9.53,2,3,4,3,3,2,2,1
9.535,1,1,3,0,2,2,1,3
9.54,0,4,3,5,8,2,3,2
9.545,1,3,0,1,6,3,1,0
9.55,1,4,10,23,8,2,0,1
9.555,3,4,9,10,8,2,2,0
9.56,2,5,6,28,9,4,2,3
9.565,1,4,1,1,4,0,1,2
9.57,1,2,11,12,1,1,1,0
9.575,2,6,9,18,8,3,4,2
9.58,2,6,6,1,5,3,3,2
9.585,0,3,3,10,2,1,0,0
9.59,2,2,1,1,0,1,2,1
9.595,0,1,4,3,1,0,1,1
9.6,2,0,1,1,1,1,0,3
9.605,3,1,0,3,2,1,0,1
9.61,3,2,0,2,6,2,2,4
9.615,2,2,6,5,0,1,1,1
9.62,1,1,1,1,0,1,1,0
9.625,0,1,1,2,4,0,1,0
9.63,1,4,4,2,2,0,1,0
9.635,3,3,1,6,3,2,3,2
9.64,1,2,1,1,4,4,2,2
9.645,2,2,0,3,1,0,1,1
9.65,0,2,1,4,0,1,1,0
9.655,1,0,1,2,2,0,2,2
9.66,3,0,2,8,1,1,2,2
9.665,1,1,6,1,1,0,0,0
9.67,3,4,5,11,7,1,2,3
9.675,0,3,0,2,4,2,1,1
9.68,0,2,3,1,2,0,1,2
9.685,0,1,4,1,2,1,1,0
9.69,2,4,5,1,2,2,1,0
9.695,1,0,5,3,1,0,0,0
9.7,1,0,5,13,3,1,1,0
9.705,0,1,2,2,3,2,2,2
9.71,1,0,3,4,4,3,1,3
9.715,0,2,3,3,5,3,1,1
9.72,1,2,3,9,4,3,2,1
9.725,1,1,3,4,2,1,1,2
9.73,1,3,4,3,0,1,1,0
9.735,1,1,2,1,3,4,2,2
9.74,1,11,7,3,1,1,1,1
9.745,1,1,6,2,6,3,2,0
9.75,0,3,6,1,0,1,1,1
9.755,1,0,1,1,3,1,0,1
9.76,0,1,5,1,3,1,2,1
9.765,1,4,4,2,1,3,1,2
9.77,1,1,2,3,2,2,2,2
9.775,2,3,2,2,3,1,1,0
9.78,1,2,3,1,3,2,1,1
9.785,0,2,2,2,2,1,1,1
9.79,0,1,3,0,0,2,2,1
9.795,1,4,1,4,4,2,0,3
9.8,1,1,0,1,0,0,3,2
9.805,1,2,0,4,2,2,0,0
9.81,0,1,3,1,0,1,0,0
9.815,1,2,4,3,4,3,3,1
9.82,2,1,2,2,1,0,0,3
9.825,2,3,6,2,0,0,0,2
9.83,3,1,1,2,3,1,1,2
9.835,0,1,1,5,2,1,0,2
9.84,1,1,2,2,1,2,0,0
9.845,1,3,1,1,0,2,1,2
9.85,0,2,3,1,1,0,1,1
9.855,1,3,1,1,0,3,0,2
9.86,0,2,1,3,1,2,0,1
9.865,5,9,13,8,6,3,4,3
9.87,0,3,3,2,1,1,3,2
9.875,1,6,11,6,4,1,2,2
9.88,1,1,4,9,6,1,3,0
9.885,0,1,4,2,1,2,1,0
9.89,1,0,4,3,1,1,1,2
9.895,2,1,3,1,2,1,2,2
9.9,1,3,5,0,0,2,0,1
9.905,1,4,7,6,4,3,2,1
9.91,0,4,13,15,16,5,2,1
9.915,2,3,14,26,12,1,1,0
9.92,1,1,2,5,3,1,0,2
9.925,1,9,12,3,3,1,2,1
9.93,1,0,11,4,4,3,2,2
9.935,3,5,8,3,3,1,2,2
9.94,1,0,2,7,2,1,1,1
9.945,2,3,5,2,2,1,1,0
9.95,5,2,3,8,10,7,4,3
9.955,4,12,23,28,1,1,3,1
9.96,1,1,7,0,3,4,3,3
9.965,5,10,7,9,7,1,2,4
9.97,0,0,4,12,6,2,1,1
9.975,0,4,3,16,1,2,1,0
9.98,1,2,6,4,7,1,1,1
9.985,1,0,11,28,2,2,0,0
9.99,2,7,16,31,7,1,1,1
9.995,1,1,1,35,5,1,0,1
10,2,2,0,1,6,4,1,1
10.005,0,2,0,31,3,1,0,2
10.01,2,0,16,19,2,1,2,0
10.015,0,8,21,2,2,2,4,1
10.02,7,14,1,41,6,7,4,5
10.025,2,10,19,41,5,1,2,1
10.03,3,9,30,73,10,5,2,4
10.035,2,1,13,13,2,0,0,1
10.04,2,2,11,11,2,2,0,1
10.045,1,3,4,4,1,3,2,0
10.05,1,5,29,72,7,2,1,1
10.055,3,6,14,38,7,2,1,2
10.06,1,4,7,33,3,1,0,0
10.065,3,12,27,30,16,4,2,2
10.07,2,1,19,12,0,0,1,1
10.075,4,3,9,12,3,2,1,1
10.08,0,10,20,22,0,2,1,1
10.085,5,8,17,50,7,4,5,4
10.09,2,5,20,37,12,6,1,1
10.095,4,8,16,50,11,4,1,3
10.1,1,7,36,46,9,3,0,0
10.105,10,5,25,79,2,6,4,7
10.11,3,12,43,37,13,9,4,4
10.115,4,12,16,3,15,4,3,2
10.12,4,6,5,6,2,2,1,3
10.125,4,2,2,10,6,2,3,3
10.13,2,2,21,30,7,3,1,3
10.135,4,4,27,29,8,2,5,2
10.14,3,5,1,9,1,2,2,2
10.145,2,1,13,28,4,2,0,2
10.15,1,5,27,79,12,4,1,2
10.155,3,3,23,3,10,8,4,5
10.16,2,4,9,18,2,3,2,2
10.165,3,1,18,46,2,3,1,0
10.17,1,3,15,28,2,2,2,3
10.175,7,6,24,13,9,8,4,5
10.18,2,4,7,9,3,2,1,2
10.185,1,11,16,17,16,9,4,1
10.19,2,3,14,1,1,1,0,2
10.195,2,3,17,7,2,1,1,0
10.2,4,6,20,5,2,3,2,1
10.205,1,4,13,12,13,5,3,4
10.21,4,3,28,74,2,1,3,5
10.215,4,1,45,76,21,8,2,1
10.22,6,5,0,12,5,5,3,5
10.225,0,2,1,5,3,1,0,1
10.23,4,4,10,21,6,6,3,2
10.235,1,5,23,29,7,5,2,0
10.24,1,3,7,1,6,1,2,1
10.245,2,7,1,5,1,2,0,0
10.25,2,7,23,68,8,7,2,3
10.255,3,2,28,127,2,7,4,2
10.26,0,5,54,90,13,3,1,0
10.265,1,8,30,46,4,3,1,0
10.27,6,11,27,30,17,11,4,4
10.275,3,8,15,21,6,7,3,2
10.28,3,8,8,42,3,1,2,3
10.285,1,0,9,11,4,2,1,1
10.29,1,1,3,35,11,2,0,0
10.295,2,3,26,31,9,1,2,1
10.3,4,2,2,43,0,2,1,2
10.305,6,5,9,42,2,3,2,2
10.31,19,21,50,37,20,11,6,10
10.315,4,5,5,6,4,1,0,1
10.32,4,2,13,2,4,3,2,0
10.325,1,1,6,20,2,3,1,2
10.33,3,6,3,34,2,1,0,2
10.335,1,8,11,31,1,0,1,3
10.34,1,0,12,35,5,3,5,3
10.345,3,6,19,18,10,6,3,4
10.35,2,2,8,19,5,5,3,2
10.355,3,14,26,28,7,5,3,3
10.36,12,1,22,29,4,0,1,1
10.365,5,7,17,4,6,3,3,3
10.37,1,2,6,10,0,3,2,1
10.375,1,7,5,6,2,1,1,0
10.38,1,11,15,0,5,2,0,3
10.385,6,9,29,38,5,3,2,3
10.39,1,6,27,34,1,0,0,0
10.395,2,2,13,3,4,2,1,4
10.4,8,1,13,5,0,0,1,3
10.405,8,2,10,33,2,1,4,6
10.41,1,7,8,8,4,4,1,3
10.415,1,6,16,27,4,0,2,2
10.42,4,3,3,8,4,3,2,2
10.425,1,3,9,17,7,4,2,1
10.43,0,3,6,12,6,1,2,1
10.435,4,1,8,5,1,2,0,2
10.44,2,2,6,11,6,4,2,3
10.445,3,10,32,43,11,7,6,3
10.45,0,4,11,0,2,1,1,0
10.455,2,3,4,8,1,2,1,2
10.46,0,3,17,13,3,0,0,0
10.465,2,3,7,11,0,1,0,3
10.47,0,1,7,3,0,2,0,0
10.475,4,2,6,9,1,4,4,4
10.48,0,5,4,11,4,1,3,1
10.485,1,0,5,22,3,1,0,1
10.49,1,1,5,21,6,4,2,1
10.495,2,3,10,9,1,0,3,3
10.5,15,6,9,1,1,1,0,5
10.505,22,4,5,1,2,0,1,0
10.51,0,4,5,13,6,4,0,1
10.515,1,1,4,8,4,5,3,1
10.52,2,4,2,2,2,3,2,3
10.525,8,1,4,24,1,0,0,2
10.53,5,11,2,2,8,7,3,5
10.535,1,4,33,27,5,2,1,0
10.54,4,5,0,7,3,4,2,2
10.545,5,1,14,26,6,2,2,5
10.55,15,2,17,19,2,0,5,6
10.555,0,4,14,4,1,1,6,1
10.56,7,1,4,11,2,3,6,7
10.565,14,10,10,2,3,4,7,0
10.57,13,2,12,8,1,1,1,1
10.575,3,0,7,19,0,2,2,2
10.58,15,3,4,13,1,2,5,3
10.585,43,5,1,13,3,4,6,6
10.59,5,0,1,7,3,3,5,7
10.595,12,3,7,8,1,0,1,2
10.6,2,2,5,25,2,2,9,0
10.605,3,1,4,26,6,4,0,1
10.61,3,0,9,10,1,2,1,4
10.615,16,4,15,17,8,2,1,1
10.62,5,8,18,21,8,1,3,1
10.625,3,4,2,5,6,3,7,3
10.63,4,5,1,9,1,2,6,3
10.635,1,5,6,8,1,0,6,2
10.64,27,11,15,11,1,1,1,4
10.645,41,6,6,8,2,2,2,4
10.65,13,3,3,4,0,0,2,5
10.655,5,3,3,3,6,7,9,4
10.66,6,3,4,2,4,3,3,3
10.665,15,0,10,5,1,2,4,2
10.67,7,2,3,11,2,1,0,2
10.675,21,4,11,20,3,1,2,1
10.68,12,0,4,11,2,1,1,3
10.685,6,6,13,26,2,1,2,3
10.69,21,0,1,3,0,0,9,4
10.695,20,3,10,5,2,1,2,6
10.7,0,0,5,7,5,4,1,4
10.705,4,6,14,13,7,2,2,4
10.71,26,10,15,7,2,1,0,6
10.715,4,6,10,11,2,0,0,4
10.72,10,8,14,11,6,4,6,2
10.725,7,3,1,2,1,1,5,0
10.73,45,5,5,9,2,2,3,3
10.735,42,1,3,12,4,2,2,1
10.74,6,1,4,0,1,1,1,1
10.745,23,1,8,4,3,4,1,4
10.75,15,3,9,8,2,0,3,2
10.755,0,0,1,7,2,3,3,3
10.76,3,0,2,2,1,1,2,7
10.765,5,5,4,1,2,2,2,2
10.77,5,1,8,4,1,0,2,4
10.775,5,5,1,3,1,0,6,1
10.78,13,1,5,2,3,4,3,11
10.785,19,1,10,11,5,1,9,9
10.79,4,8,6,4,3,0,8,10
10.795,37,5,2,1,4,5,0,6
10.8,41,2,2,2,3,3,1,8
10.805,20,5,4,6,3,4,9,7
10.81,6,7,6,6,2,3,1,2
10.815,22,7,6,3,0,0,3,5
10.82,17,4,2,4,3,4,6,19
10.825,37,2,3,0,1,0,4,18
10.83,7,1,14,7,6,3,10,0
10.835,21,4,10,10,4,3,18,9
10.84,20,4,10,14,4,1,9,3
10.845,23,1,4,3,0,1,3,7
10.85,35,6,2,2,0,2,3,0
10.855,27,3,4,5,2,5,12,7
10.86,15,4,2,2,1,3,8,5
10.865,34,10,9,9,8,6,3,1
10.87,24,7,5,3,1,2,1,0
10.875,2,4,4,2,2,1,4,3
10.88,0,3,9,10,8,1,1,8
10.885,5,1,11,8,5,4,12,13
10.89,17,1,7,6,3,5,22,16
10.895,38,0,4,6,5,4,7,7
10.9,33,13,0,0,6,2,6,12
10.905,1,2,1,3,2,3,5,16
10.91,3,3,8,5,4,8,11,19
10.915,23,0,2,0,0,2,5,7
10.92,6,0,1,4,2,2,10,1
10.925,2,2,3,7,3,3,9,4
10.93,12,9,3,1,2,1,1,0
10.935,17,3,4,5,1,1,2,3
10.94,13,2,3,0,0,1,1,7
10.945,1,1,3,6,4,1,2,4
10.95,13,1,5,1,0,1,2,1
10.955,24,1,6,0,1,3,3,2
10.96,54,7,4,4,1,1,0,5
10.965,21,5,5,4,4,2,2,2
10.97,14,5,1,1,1,1,1,4
10.975,34,14,7,6,4,4,7,9
10.98,62,3,4,1,2,4,2,7
10.985,62,9,4,5,1,1,7,2
10.99,42,4,1,1,2,2,8,8
10.995,25,3,2,3,0,4,3,5
11,34,1,3,4,2,1,7,14
11.005,9,1,5,3,7,8,11,6
11.01,8,13,6,5,4,1,5,2
11.015,14,4,4,3,1,1,1,4
11.02,8,1,2,1,0,1,3,1
11.025,12,5,5,5,1,1,1,2
11.03,6,2,3,2,0,3,2,0
11.035,10,2,2,1,3,4,5,1
11.04,8,3,4,1,1,3,3,1
11.045,1,6,5,3,1,2,4,1
11.05,15,0,0,2,1,0,0,0
11.055,6,1,1,2,1,0,2,5
11.06,18,4,6,5,3,0,2,1
11.065,2,0,7,1,1,3,2,4
11.07,3,0,4,4,3,2,2,4
11.075,4,1,3,1,1,3,2,1
11.08,4,4,5,2,0,3,5,2
11.085,5,6,5,4,5,2,0,2
11.09,0,5,6,4,1,2,3,4
11.095,8,3,4,0,3,4,1,3
11.1,3,0,2,0,1,1,0,1
11.105,2,2,1,0,0,2,3,3
11.11,2,3,3,1,4,4,0,3
11.115,0,3,3,4,1,2,0,4
11.12,17,4,5,4,5,1,1,11
11.125,1,2,0,0,0,0,4,1
11.13,4,4,7,1,3,0,1,2
11.135,2,1,6,3,0,1,0,0
11.14,4,1,1,0,1,1,1,3
11.145,3,4,8,6,4,0,0,2
11.15,1,3,1,0,0,2,2,4
11.155,1,0,0,2,0,0,2,0
11.16,5,6,3,5,5,6,2,1
11.165,2,1,1,1,0,2,0,0
11.17,2,10,7,5,6,5,4,1
11.175,1,4,0,1,4,4,2,2
11.18,6,5,6,3,0,1,1,0
11.185,1,3,7,3,4,2,0,1
11.19,0,2,2,1,0,0,1,2
11.195,2,4,1,1,2,2,3,3
11.2,2,7,14,4,2,3,1,2
11.205,0,1,4,2,1,3,3,1
11.21,1,8,12,12,5,0,1,0
11.215,2,3,1,2,2,1,2,1
11.22,2,0,8,12,0,2,1,2
11.225,1,1,14,12,2,3,2,2
11.23,3,0,4,3,8,6,2,2
11.235,2,2,12,18,13,7,2,0
11.24,1,0,5,9,1,0,1,1
11.245,0,0,7,26,6,2,3,2
11.25,1,7,12,16,5,5,0,1
11.255,3,5,7,19,4,2,3,2
11.26,1,2,7,10,9,7,2,2
11.265,1,5,1,0,4,0,1,1
11.27,2,0,7,31,4,2,2,0
11.275,1,1,9,22,5,5,2,2
11.28,1,2,3,9,7,2,0,1
11.285,2,0,10,5,1,2,2,2
11.29,2,2,5,7,5,0,2,2
11.295,1,1,0,16,3,2,2,1
11.3,4,6,21,34,8,4,3,3
11.305,0,1,0,7,6,2,0,0
11.31,1,0,5,2,2,2,1,0
11.315,0,2,6,12,3,0,1,0
11.32,0,2,0,6,7,3,4,1
11.325,2,2,4,6,2,4,1,1
11.33,3,3,4,22,13,4,1,0
11.335,0,6,7,17,10,3,1,1
11.34,3,2,4,10,6,5,1,3
11.345,1,0,6,14,2,1,0,1
11.35,1,0,3,13,1,4,0,1
11.355,0,4,1,7,6,1,1,1
11.36,2,2,2,3,1,2,1,0
11.365,0,1,3,14,2,1,1,1
11.37,3,1,4,9,1,0,4,1
11.375,2,4,23,0,5,3,2,0
11.38,4,10,17,57,13,3,3,5
11.385,2,1,5,7,2,5,0,3
11.39,1,3,9,0,3,0,0,1
11.395,0,4,7,10,2,1,2,3
11.4,0,7,30,36,10,3,1,3
11.405,4,13,58,37,11,3,4,5
11.41,2,2,9,6,6,6,4,2
11.415,2,7,17,19,6,3,0,3
11.42,0,1,1,10,2,0,0,1
11.425,2,5,27,22,5,3,1,1
11.43,1,2,2,13,8,0,2,2
11.435,1,3,5,15,4,5,2,0
11.44,1,2,13,2,5,0,0,1
11.445,3,0,10,20,1,1,1,0
11.45,2,0,17,31,9,5,2,2
11.455,0,4,20,1,1,1,2,0
11.46,1,4,13,30,14,2,2,1
11.465,2,8,24,6,3,1,1,1
11.47,1,0,10,32,3,2,3,0
11.475,2,7,34,5,7,4,2,2
11.48,4,6,2,7,14,8,5,4
11.485,1,5,1,9,2,4,2,1
11.49,0,0,14,33,6,3,1,1
11.495,1,1,17,11,4,1,1,1
11.5,2,4,12,19,7,3,1,0
11.505,1,3,21,23,1,3,2,1
11.51,0,0,6,7,2,1,1,2
11.515,0,3,5,9,5,2,0,1
11.52,2,2,8,37,8,2,1,1
11.525,6,11,17,30,14,6,5,4
11.53,2,5,1,3,9,6,2,0
11.535,1,4,1,21,2,2,1,2
11.54,2,1,9,10,1,0,0,0
11.545,4,5,20,9,4,1,1,1
11.55,3,8,32,5,1,1,1,1
11.555,0,1,12,6,1,0,0,0
11.56,1,2,20,14,5,3,3,0
11.565,2,2,4,1,3,2,1,1
11.57,1,1,2,14,5,2,1,2
11.575,4,7,8,42,10,4,4,4
11.58,2,1,19,49,4,1,1,1
11.585,2,5,22,39,8,4,2,2
11.59,2,5,3,1,3,3,2,1
11.595,0,1,6,11,1,1,1,0
11.6,2,4,7,14,5,2,1,2
11.605,1,5,27,39,10,3,1,0
11.61,2,3,4,4,6,6,3,4
11.615,0,1,3,24,2,1,4,7
11.62,4,11,25,17,6,5,5,3
11.625,5,5,28,14,1,2,0,1
11.63,4,2,1,14,2,2,1,1
11.635,8,4,29,39,6,4,4,2
11.64,5,2,5,30,2,0,0,1
11.645,32,7,5,9,2,3,2,3
11.65,30,1,9,6,5,3,3,2
11.655,1,1,13,26,2,2,2,2
11.66,6,4,12,24,4,1,1,2
11.665,1,8,15,38,5,3,1,2
11.67,13,4,5,30,1,2,1,2
11.675,3,0,4,7,2,1,2,2
11.68,4,6,19,20,9,2,1,3
11.685,2,0,9,13,5,3,0,1
11.69,4,0,7,28,0,3,1,0
11.695,3,2,7,8,5,1,1,0
11.7,7,3,23,2,4,4,1,0
11.705,9,8,27,19,3,3,2,3
11.71,4,0,18,60,2,1,1,3
11.715,2,1,2,16,3,1,1,1
11.72,2,3,1,15,1,1,1,2
11.725,6,4,14,11,2,1,1,2
11.73,1,3,3,6,5,0,1,1
11.735,8,4,4,10,0,0,2,0
11.74,3,1,3,8,0,2,2,2
11.745,12,1,2,8,8,4,3,4
11.75,5,0,3,11,3,1,0,0
11.755,0,2,2,6,2,0,1,0
11.76,1,2,14,19,0,1,1,0
11.765,1,0,10,15,2,1,1,0
11.77,2,2,11,8,5,5,0,1
11.775,6,11,29,13,10,8,3,6
11.78,0,1,7,8,0,0,1,1
11.785,2,4,18,1,3,2,1,2
11.79,2,3,16,6,5,3,0,2
11.795,0,4,11,13,3,3,1,2
11.8,3,1,0,9,1,0,2,0
11.805,3,5,1,10,4,2,1,2
11.81,1,2,6,8,2,2,1,0
11.815,4,1,14,8,0,4,2,3
11.82,4,2,12,19,0,1,0,2
11.825,3,1,12,17,0,1,1,5
11.83,4,2,2,0,2,0,0,2
11.835,1,2,6,6,1,1,0,3
11.84,2,0,4,5,0,3,1,4
11.845,2,2,1,14,3,3,2,0
11.85,0,1,4,11,5,4,3,2
11.855,3,0,1,17,4,1,1,0
11.86,2,6,22,33,5,1,1,2
11.865,3,1,12,22,4,1,1,1
11.87,3,1,9,3,5,2,2,3
11.875,3,4,4,4,1,1,1,1
11.88,2,2,9,10,1,3,3,4
11.885,1,2,12,0,2,1,0,3
11.89,4,3,9,8,2,2,3,3
11.895,2,3,3,16,4,2,2,2
11.9,1,3,1,13,3,4,4,2
11.905,2,1,7,20,2,1,1,3
11.91,2,2,8,26,1,2,1,0
11.915,0,1,0,2,2,0,1,1
11.92,2,2,12,14,2,0,1,1
11.925,2,2,8,23,2,1,1,1
11.93,2,5,5,14,1,0,1,2
11.935,2,3,19,18,1,0,1,1
11.94,1,2,14,29,2,3,2,1
11.945,1,0,6,17,5,3,2,2
11.95,2,0,0,6,2,2,0,1
11.955,0,3,8,3,1,1,1,3
11.96,2,0,6,13,1,0,1,0
11.965,4,5,12,28,0,3,1,1
11.97,1,3,17,18,3,2,2,2
11.975,1,3,12,3,3,1,1,2
11.98,4,1,9,26,2,1,2,3
11.985,1,1,11,28,3,0,1,0
11.99,1,2,4,6,6,2,1,2
11.995,2,2,3,4,1,4,1,1
12,3,3,11,13,2,3,2,2
12.005,2,2,3,19,0,1,1,0
12.01,2,0,1,0,0,1,0,1
12.015,1,2,8,4,2,1,0,2
12.02,1,2,8,11,2,2,1,2
12.025,0,0,1,3,1,1,0,1
12.03,0,2,16,12,2,1,2,1
12.035,1,2,7,18,2,0,0,1
12.04,1,1,3,11,2,0,2,0
12.045,1,4,2,3,0,0,2,1
12.05,2,1,2,11,0,0,0,1
12.055,2,4,12,21,3,2,1,1
12.06,2,8,7,3,2,1,1,2
12.065,0,2,10,1,3,0,0,1
12.07,1,1,15,35,0,5,2,1
12.075,1,1,3,11,2,0,2,1
12.08,0,1,1,13,5,1,1,1
12.085,1,1,1,13,1,1,1,0
12.09,1,2,4,4,0,1,2,2
12.095,0,1,4,5,1,1,1,2
12.1,1,1,6,1,0,2,0,1
12.105,2,3,2,1,1,2,2,2
12.11,0,2,6,4,2,1,1,1
12.115,1,3,3,9,1,1,2,2
12.12,2,4,12,2,5,1,1,0
12.125,0,4,14,1,5,3,2,3
12.13,0,1,2,12,2,1,0,1
12.135,1,2,7,4,1,0,1,1
12.14,1,4,9,7,0,1,0,1
12.145,2,1,4,11,2,3,1,1
12.15,0,2,2,20,3,2,1,1
12.155,0,1,5,4,4,2,0,3
12.16,0,0,2,4,2,0,2,1
12.165,1,3,1,1,2,2,1,1
12.17,0,2,0,7,0,2,1,1
12.175,0,0,5,22,0,0,0,0
12.18,1,1,1,2,1,0,1,1
12.185,1,2,7,1,1,0,0,3
12.19,2,2,8,10,3,1,0,1
12.195,3,3,5,24,2,3,3,3
12.2,2,2,1,3,0,2,0,2
12.205,0,1,3,5,1,1,1,3
12.21,9,2,7,9,0,2,7,2
12.215,2,1,5,3,2,1,2,4
12.22,0,5,15,16,5,2,0,5
12.225,3,1,5,6,3,3,3,3
12.23,1,3,1,5,2,2,1,2
12.235,7,6,10,12,5,5,4,3
12.24,7,1,2,3,0,1,1,4
12.245,0,2,4,12,1,0,2,2
12.25,2,1,2,2,0,2,1,0
12.255,6,3,1,5,0,1,3,4
12.26,1,3,13,20,2,3,2,0
12.265,1,3,1,1,1,1,1,0
12.27,9,4,1,20,5,4,1,1
12.275,1,2,7,21,2,2,2,4
12.28,1,4,3,2,4,3,9,6
12.285,12,2,4,15,3,2,2,3
12.29,22,4,6,8,1,2,9,1
12.295,7,2,1,5,0,1,1,7
12.3,6,5,2,2,3,1,2,1
12.305,2,2,8,7,2,3,8,3
12.31,9,3,0,4,0,1,0,2
12.315,10,3,6,4,1,1,1,4
12.32,6,6,7,8,2,1,2,6
12.325,4,6,3,6,4,3,4,0
12.33,10,4,2,3,2,3,2,0
12.335,2,0,1,3,1,3,0,2
12.34,13,0,1,4,0,1,2,5
12.345,9,2,3,1,1,1,2,5
12.35,9,4,3,6,2,1,5,4
12.355,0,1,6,3,4,4,3,2
12.36,2,5,4,8,1,4,5,3
12.365,13,7,3,4,2,2,4,5
12.37,20,1,0,4,3,4,6,7
12.375,6,1,5,0,1,1,3,1
12.38,11,5,3,7,3,2,2,1
12.385,9,4,9,14,5,1,4,13
12.39,10,11,6,4,1,4,9,13
12.395,16,3,2,4,1,0,0,2
12.4,8,5,2,5,4,4,4,3
12.405,0,8,3,8,2,0,6,6
12.41,22,3,1,4,3,3,5,9
12.415,33,3,1,7,1,1,3,6
12.42,42,2,3,1,1,1,6,5
12.425,2,1,2,2,0,0,4,1
12.43,4,3,11,5,5,3,7,12
12.435,1,2,1,2,5,4,11,16
12.44,9,4,6,1,3,1,5,15
12.445,7,2,4,9,5,5,1,4
12.45,24,6,1,2,2,4,6,2
12.455,3,5,3,3,2,2,0,4
12.46,27,6,9,5,4,7,14,2
12.465,12,16,5,3,0,0,10,5
12.47,13,5,3,1,1,3,4,3
12.475,3,5,6,2,5,5,3,8
12.48,7,1,2,1,1,2,7,14
12.485,10,3,0,4,4,1,8,8
12.49,28,2,7,0,4,2,1,2
12.495,15,5,4,1,0,1,2,5
12.5,9,12,6,7,4,5,6,8
12.505,33,2,1,0,0,0,0,2
12.51,10,2,0,2,4,1,5,6
12.515,10,4,0,2,3,5,1,6
12.52,8,4,3,1,1,3,10,5
12.525,25,8,2,3,2,2,14,7
12.53,6,1,3,3,2,3,7,5
12.535,13,2,2,0,1,0,1,3
12.54,23,5,7,2,1,1,3,10
12.545,22,7,2,1,0,1,5,3
12.55,13,7,6,2,1,5,22,2
12.555,1,2,2,1,5,4,14,13
12.56,4,2,2,2,3,3,4,10
12.565,9,5,1,3,0,2,8,7
12.57,11,20,3,5,1,2,4,1
12.575,14,13,4,3,1,0,2,6
12.58,2,4,0,1,0,2,3,1
12.585,4,3,1,3,1,1,1,7
12.59,12,2,2,2,0,3,3,15
12.595,53,0,2,4,3,1,7,15
12.6,8,2,0,1,2,2,11,4
12.605,18,8,6,5,3,4,1,2
12.61,8,0,0,1,2,1,0,9
12.615,11,2,3,1,0,1,8,9
12.62,2,4,2,1,1,5,6,3
12.625,15,0,1,3,5,2,3,1
12.63,4,6,3,1,1,2,2,10
12.635,2,1,2,2,0,1,3,2
12.64,6,0,6,3,4,4,0,0
12.645,4,2,4,1,1,3,4,4
12.65,18,7,5,4,3,2,6,8
12.655,8,1,2,1,2,0,2,1
12.66,2,7,2,0,2,0,0,6
12.665,32,3,4,1,5,4,6,14
12.67,7,3,1,1,3,2,2,0
12.675,7,1,4,6,2,1,3,1
12.68,28,0,4,5,3,3,1,7
12.685,0,1,2,2,0,3,3,5
12.69,7,7,3,4,1,0,1,4
12.695,6,4,6,5,5,2,0,0
12.7,5,6,1,3,2,0,3,3
12.705,1,1,5,3,1,2,4,1
12.71,2,3,3,2,1,1,0,0
12.715,3,5,7,6,2,2,0,4
12.72,5,2,4,3,1,0,2,5
12.725,5,2,4,4,1,1,1,1
12.73,7,0,3,2,3,3,4,5
12.735,17,1,1,0,2,1,2,6
12.74,15,9,4,1,1,3,5,13
12.745,7,7,1,3,0,2,4,9
12.75,2,1,7,1,1,5,4,10
12.755,0,1,0,1,0,0,0,0
12.76,1,6,4,4,4,4,1,2
12.765,2,1,0,5,2,4,2,1
12.77,28,0,1,3,1,1,5,7
12.775,22,7,1,2,3,3,4,4
12.78,17,8,1,0,1,2,4,4
12.785,8,4,3,2,0,1,1,1
12.79,2,2,2,2,0,2,3,2
12.795,15,6,2,0,1,1,2,1
12.8,7,11,10,8,3,0,2,0
12.805,5,6,7,6,2,3,4,2
12.81,8,1,4,3,2,2,2,11
12.815,3,1,5,2,0,0,1,3
12.82,17,2,1,0,2,3,1,1
12.825,7,2,2,5,3,3,3,3
12.83,9,5,1,1,0,3,1,2
12.835,1,1,2,4,1,2,3,1
12.84,16,5,1,4,2,1,4,1
12.845,11,8,1,1,2,2,3,1
12.85,2,4,5,7,2,2,1,4
12.855,9,3,3,0,0,3,4,5
12.86,1,0,7,1,0,0,2,2
12.865,2,2,3,2,2,2,0,1
12.87,3,0,0,1,0,1,0,2
12.875,3,7,6,8,6,5,5,3
12.88,7,0,2,0,1,0,1,1
12.885,2,1,0,3,1,0,2,1
12.89,2,2,0,0,1,3,1,3
12.895,0,0,1,2,2,2,3,2
12.9,4,0,3,3,2,3,1,1
12.905,2,9,5,5,0,1,0,2
12.91,1,5,2,2,1,3,2,4
12.915,1,5,6,1,0,2,2,1
12.92,0,9,14,4,4,1,2,0
12.925,3,2,2,3,6,3,1,1
12.93,2,4,18,1,4,2,1,0
12.935,4,2,2,4,0,2,0,0
12.94,2,1,9,17,6,3,2,2
12.945,2,1,11,9,3,2,1,3
12.95,1,3,10,3,1,1,1,1
12.955,0,3,7,5,4,0,1,2
12.96,3,5,8,9,2,0,2,3
12.965,1,1,2,1,4,2,2,3
12.97,3,5,5,6,7,5,4,2
12.975,3,4,3,5,3,2,4,3
12.98,2,1,2,1,4,4,2,0
12.985,2,1,1,17,3,1,1,2
12.99,5,8,19,30,9,3,2,3
12.995,2,6,9,6,3,1,3,2
13,4,5,6,0,3,1,2,2
13.005,0,1,3,9,10,5,1,0
13.01,1,1,4,3,0,2,2,1
13.015,2,2,4,4,3,1,1,0
13.02,0,1,8,23,5,5,0,1
13.025,0,1,13,16,4,3,1,1
13.03,2,1,1,4,3,1,1,2
13.035,2,0,7,22,8,5,2,2
13.04,0,5,8,27,3,0,1,1
13.045,2,4,17,35,3,2,1,2
13.05,4,8,7,18,1,2,2,2
13.055,3,4,8,17,8,4,2,4
13.06,0,5,16,7,4,3,0,2
13.065,1,2,5,1,2,1,0,1
13.07,3,7,19,37,9,3,2,3
13.075,0,2,17,32,8,1,1,2
13.08,3,3,14,16,7,4,4,0
13.085,1,1,9,3,0,1,3,2
13.09,1,6,10,6,3,1,1,1
13.095,2,1,4,20,1,1,1,1
13.1,4,9,26,19,10,6,2,4
13.105,3,3,0,5,3,1,1,3
13.11,1,3,12,18,2,2,1,1
13.115,3,1,4,14,2,1,1,1
13.12,0,3,33,29,7,2,0,0
13.125,1,5,27,40,11,2,1,2
13.13,2,4,20,26,12,7,4,2
13.135,3,6,1,13,9,5,2,3
13.14,0,0,11,7,9,2,0,0
13.145,2,2,8,1,2,1,0,1
13.15,5,5,20,11,8,5,1,2
13.155,0,1,9,4,2,2,0,0
13.16,1,0,5,1,2,3,2,1
13.165,1,0,16,35,0,3,2,2
13.17,3,2,15,22,1,4,4,3
13.175,1,3,17,10,3,3,1,0
13.18,1,1,9,3,7,1,0,2
13.185,2,3,4,3,8,3,2,0
13.19,1,3,10,12,5,2,1,1
13.195,1,3,3,2,5,2,1,0
13.2,3,1,14,9,4,2,3,2
13.205,2,5,4,5,1,1,2,0
13.21,1,3,8,6,2,0,0,1
13.215,5,10,3,22,1,3,5,3
13.22,0,1,4,9,1,1,0,2
13.225,0,3,11,4,3,1,1,0
13.23,1,1,1,4,4,1,0,1
13.235,4,10,23,28,8,3,3,2
13.24,6,12,36,28,11,7,4,3
13.245,2,1,5,1,2,0,1,2
13.25,2,4,12,8,0,0,1,1
13.255,2,2,2,3,9,3,3,3
13.26,1,0,10,5,3,1,1,1
13.265,1,3,13,14,0,0,2,2
13.27,1,4,18,14,0,1,1,1
13.275,1,6,5,32,1,0,1,0
13.28,2,2,3,18,2,3,2,1
13.285,3,6,14,4,6,5,2,4
13.29,4,3,9,16,2,0,1,1
13.295,0,1,7,4,5,1,0,1
13.3,1,2,12,12,3,1,1,1
13.305,0,1,5,36,4,1,0,2
13.31,2,6,7,2,3,2,0,2
13.315,3,3,13,3,3,2,1,2
13.32,1,1,9,1,2,3,3,1
13.325,1,1,0,5,2,1,2,0
13.33,2,1,14,15,3,3,2,1
13.335,0,2,1,3,2,0,0,2
13.34,1,3,8,5,1,1,0,2
13.345,0,4,25,38,8,3,1,3
13.35,0,0,4,10,5,3,2,3
13.355,6,9,24,12,7,2,3,5
13.36,3,2,0,21,3,2,2,2
13.365,2,2,26,31,0,1,2,1
13.37,3,3,15,38,7,2,1,2
13.375,2,3,5,2,4,3,2,0
13.38,0,0,4,13,3,3,2,1
13.385,1,3,6,6,1,1,2,1
13.39,1,0,6,27,2,0,1,2
13.395,1,3,5,17,2,1,0,1
13.4,1,2,8,17,5,3,2,2
13.405,3,5,18,12,7,4,0,1
13.41,3,2,9,18,2,1,2,1
13.415,0,1,12,5,3,4,3,0
13.42,0,1,1,16,6,1,0,1
13.425,2,7,17,3,1,1,4,4
13.43,2,0,1,17,3,3,4,3
13.435,2,3,4,6,1,0,0,2
13.44,1,3,13,18,4,1,2,3
13.445,2,2,2,2,3,1,2,2
13.45,1,4,13,11,3,3,1,0
13.455,1,2,4,3,1,3,1,1
13.46,2,0,2,7,4,1,1,0
13.465,0,1,6,6,2,1,1,1
13.47,1,4,8,13,5,1,0,0
13.475,0,2,4,18,1,1,2,2
13.48,0,5,9,7,2,1,1,2
13.485,1,4,15,27,6,4,2,2
13.49,6,7,15,14,4,4,3,2
13.495,3,1,4,16,4,1,3,2
13.5,1,4,5,7,2,0,3,1
13.505,1,2,1,5,3,2,0,0
13.51,1,1,0,5,3,1,2,2
13.515,3,2,4,1,0,1,0,1
13.52,0,0,7,1,2,2,1,0
13.525,0,1,7,2,1,1,0,0
13.53,0,6,11,6,3,2,3,3
13.535,1,0,7,23,4,1,0,0
13.54,1,1,3,24,3,1,0,0
13.545,3,1,2,16,3,3,2,1
13.55,2,0,5,5,1,2,1,1
13.555,0,4,8,4,5,2,1,1
13.56,2,5,5,13,1,1,1,1
13.565,1,1,9,20,4,0,2,1
13.57,1,5,20,31,1,2,1,2
13.575,0,1,14,29,3,1,1,0
13.58,1,1,0,3,3,3,2,2
13.585,1,1,4,4,4,1,1,2
13.59,3,3,0,6,2,2,2,1
13.595,1,0,8,23,1,0,1,0
13.6,2,3,2,18,6,2,1,4
13.605,1,1,1,0,2,2,2,0
13.61,2,3,6,5,2,0,1,1
13.615,2,1,0,0,1,0,1,0
13.62,0,0,4,2,3,3,1,2
13.625,0,1,5,16,0,1,1,1
13.63,2,2,21,40,4,3,3,2
13.635,0,5,14,21,3,1,1,0
13.64,0,0,14,38,3,0,1,1
13.645,3,6,14,19,5,3,2,2
13.65,0,2,0,4,1,0,0,2
13.655,1,1,1,6,1,2,3,2
13.66,0,1,17,26,0,0,1,1
13.665,1,1,16,17,1,2,0,2
13.67,1,1,0,2,0,1,2,1
13.675,3,5,13,7,5,1,2,2
13.68,1,1,7,8,0,0,1,1
13.685,2,1,8,5,3,2,2,1
13.69,0,2,2,6,1,0,0,1
13.695,2,4,0,3,1,1,0,1
13.7,2,1,8,1,2,0,1,2
13.705,2,4,25,31,6,1,1,2
13.71,2,1,1,1,2,1,0,3
13.715,1,1,8,12,1,3,4,4
13.72,1,2,3,2,3,3,1,3
13.725,1,0,12,5,0,0,1,3
13.73,3,4,12,14,4,2,2,1
13.735,3,2,4,7,4,0,1,1
13.74,4,3,5,1,2,3,1,1
13.745,2,0,4,3,0,0,1,0
13.75,1,2,4,4,2,2,1,2
13.755,1,2,4,6,1,2,2,0
13.76,2,2,3,10,0,0,1,0
13.765,1,1,4,4,2,1,1,0
13.77,2,0,8,9,1,1,1,1
13.775,1,1,8,18,3,0,1,1
13.78,0,2,11,23,2,2,0,2
13.785,1,2,3,19,1,2,1,3
13.79,1,2,0,10,3,1,2,1
13.795,0,0,4,12,1,0,1,0
13.8,2,3,8,15,2,0,1,1
13.805,1,1,2,12,2,0,1,1
13.81,0,3,2,8,3,0,1,1
13.815,2,5,8,29,1,3,2,2
13.82,0,2,16,32,5,2,2,3
13.825,1,2,2,3,2,2,1,1
13.83,0,2,3,15,0,2,1,0
13.835,2,3,7,3,2,2,2,1
13.84,0,0,4,16,1,1,3,0
13.845,2,1,2,0,2,1,0,1
13.85,3,1,1,6,3,2,1,2
13.855,0,1,7,9,1,0,1,1
13.86,2,0,9,13,1,1,3,2
13.865,2,2,17,16,3,0,1,2
13.87,0,1,7,15,0,3,3,0
13.875,6,2,0,14,1,1,1,5
13.88,3,0,3,12,1,3,0,2
13.885,4,1,5,6,1,0,1,0
13.89,1,1,4,6,3,1,0,0
13.895,0,2,9,0,1,0,0,1
13.9,1,2,2,2,2,1,1,4
13.905,5,2,1,1,3,4,3,8
13.91,6,2,6,3,0,2,0,1
13.915,5,1,10,8,2,0,1,1
13.92,9,2,2,4,2,0,7,2
13.925,14,1,0,8,2,0,6,2
13.93,0,0,2,10,3,0,7,7
13.935,1,2,3,6,3,1,3,3
13.94,2,5,7,1,5,5,4,3
13.945,13,3,2,5,1,3,10,6
13.95,26,3,2,9,3,0,0,1
13.955,7,4,3,2,3,4,3,0
13.96,39,5,1,3,2,2,1,4
13.965,8,2,3,2,0,0,6,7
13.97,16,0,3,3,0,0,0,6
13.975,52,1,8,10,3,0,2,2
13.98,33,3,5,6,4,5,3,8
13.985,15,2,0,1,2,0,6,5
13.99,3,3,4,2,3,0,3,3
13.995,2,0,1,2,1,3,2,1
14,8,4,1,2,1,2,1,5
14.005,19,7,3,6,2,0,0,4
14.01,7,1,4,3,4,2,5,3
14.015,46,9,6,7,2,1,1,0
14.02,50,4,1,0,0,0,2,2
14.025,3,1,0,3,2,1,1,2
14.03,12,2,3,6,0,2,2,6
14.035,37,2,6,2,2,1,5,11
14.04,17,5,5,1,0,1,3,1
14.045,19,4,1,2,2,1,5,12
14.05,24,5,7,7,3,1,2,9
14.055,25,2,6,6,1,2,10,20
14.06,4,5,2,3,3,1,1,2
14.065,4,17,7,6,4,5,17,39
14.07,15,1,2,4,5,7,7,1
14.075,2,1,2,2,4,4,4,4
14.08,17,2,5,6,3,1,1,1
14.085,2,8,3,5,2,4,4,14
14.09,41,5,3,5,6,5,1,17
14.095,0,3,4,1,2,3,8,8
14.1,3,10,2,2,1,1,2,5
14.105,2,4,1,1,1,1,8,0
14.11,14,2,3,4,1,1,2,5
14.115,9,1,2,1,3,5,6,9
14.12,22,6,1,0,3,0,3,0
14.125,16,5,1,1,0,5,11,1
14.13,19,0,1,3,1,6,14,7
14.135,20,4,2,1,4,5,6,14
14.14,10,3,2,5,4,4,3,7
14.145,8,1,4,11,8,7,2,2
14.15,17,6,1,3,2,1,1,3
14.155,9,14,5,3,0,1,3,2
14.16,12,5,2,3,3,3,4,12
14.165,15,5,3,2,1,2,1,7
14.17,27,2,1,0,2,5,4,4
14.175,53,4,2,5,3,1,0,3
14.18,42,2,2,1,3,3,6,4
14.185,2,4,0,1,0,2,8,1
14.19,17,4,1,0,1,2,1,3
14.195,8,7,7,1,1,2,13,12
14.2,2,7,7,7,3,2,1,1
14.205,3,1,4,5,6,3,1,4
14.21,4,1,1,3,4,4,1,4
14.215,1,4,4,1,2,1,3,1
14.22,1,1,3,3,1,2,8,3
14.225,25,1,1,5,4,2,5,3
14.23,9,3,6,4,1,1,5,6
14.235,44,1,4,0,1,1,1,3
14.24,7,9,7,3,4,4,11,0
14.245,2,1,3,5,3,2,1,5
14.25,2,0,1,7,6,5,2,9
14.255,14,7,5,7,2,5,15,6
14.26,2,7,0,2,4,2,3,3
14.265,17,0,2,4,3,4,3,6
14.27,10,1,2,1,2,1,1,4
14.275,6,3,1,0,0,3,10,4
14.28,4,1,0,2,5,2,1,2
14.285,9,3,1,0,0,1,1,6
14.29,2,1,0,3,1,2,4,3
14.295,9,6,6,2,3,1,2,1
14.3,3,5,3,3,1,2,3,4
14.305,8,1,0,2,2,2,0,3
14.31,5,2,1,2,1,4,4,5
14.315,8,1,1,0,1,3,6,2
14.32,2,1,3,1,2,2,2,3
14.325,19,9,3,0,0,2,2,2
14.33,25,3,4,3,2,1,3,1
14.335,7,2,0,1,0,1,3,6
14.34,3,4,2,3,1,0,0,3
14.345,5,2,1,3,2,1,0,1
14.35,9,3,2,2,2,1,1,1
14.355,4,7,0,5,4,2,1,2
14.36,1,4,5,2,2,0,2,2
14.365,4,1,1,0,1,1,0,5
14.37,6,1,1,4,3,3,2,1
14.375,10,1,1,1,0,1,1,2
14.38,7,1,0,0,1,1,3,2
14.385,6,3,4,3,0,1,0,1
14.39,6,4,2,0,1,2,2,2
14.395,4,4,3,3,2,1,1,1
14.4,1,2,6,3,0,2,1,2
14.405,5,2,3,2,3,3,2,3
14.41,1,3,3,2,0,1,1,1
14.415,4,2,1,3,0,1,4,4
14.42,4,1,1,2,1,0,2,2
14.425,8,4,2,2,4,1,1,1
14.43,4,4,3,2,2,2,2,1
14.435,4,1,2,2,1,1,1,0
14.44,3,9,10,7,4,0,0,2
14.445,0,4,5,6,2,1,1,2
14.45,2,1,3,1,1,0,2,1
14.455,2,0,3,0,6,3,2,1
14.46,4,1,3,1,1,0,2,3
14.465,4,3,1,2,1,2,1,3
14.47,1,3,4,8,4,3,1,3
14.475,1,1,1,1,3,1,3,2
14.48,1,0,3,1,1,0,0,0
14.485,4,1,1,1,1,1,2,1
14.49,1,1,0,1,0,3,2,0
14.495,3,1,2,0,3,3,1,0
14.5,1,0,11,17,1,2,2,2
14.505,1,1,2,23,7,3,0,1
14.51,2,0,1,22,8,1,1,0
14.515,3,10,24,24,6,3,2,2
14.52,6,6,0,8,9,7,5,2
14.525,2,4,1,15,0,0,1,2
14.53,0,1,0,17,2,1,0,0
14.535,1,2,8,5,2,0,2,1
14.54,0,5,13,0,0,2,2,2
14.545,0,2,6,2,2,2,2,1
14.55,1,2,14,12,2,1,0,3
14.555,1,3,6,8,6,6,2,2
14.56,1,0,9,10,8,5,1,0
14.565,0,2,11,16,0,0,1,1
14.57,1,2,1,4,2,3,3,2
14.575,0,1,4,4,4,3,0,1
14.58,1,1,1,1,3,5,2,0
14.585,5,8,17,7,4,3,2,4
14.59,1,0,0,1,2,3,0,0
14.595,4,0,2,17,6,6,1,2
14.6,0,7,23,24,7,1,2,2
14.605,0,3,14,4,0,1,2,1
14.61,0,2,0,9,4,2,1,0
14.615,1,1,8,14,4,2,0,0
14.62,2,1,9,20,2,1,2,1
14.625,1,0,5,15,1,2,1,1
14.63,3,7,29,10,4,4,3,3
14.635,1,0,5,14,6,2,1,1
14.64,0,5,18,21,6,3,1,1
14.645,0,4,21,12,1,2,2,1
14.65,1,2,16,19,3,1,2,0
14.655,2,4,17,34,3,2,2,1
14.66,3,3,12,12,7,4,2,3
14.665,1,0,4,4,0,2,2,2
14.67,1,3,2,2,3,1,1,2
14.675,1,5,16,19,2,2,0,1
14.68,0,3,10,14,2,1,2,1
14.685,3,3,15,6,3,2,0,1
14.69,2,3,6,14,6,5,1,1
14.695,1,2,4,4,1,2,2,2
14.7,1,3,5,7,3,0,0,2
14.705,1,4,7,16,0,0,0,2
14.71,4,7,9,5,1,0,1,1
14.715,4,5,3,6,6,4,3,5
14.72,1,2,1,3,0,2,1,0
14.725,0,1,0,1,3,2,2,1
14.73,1,5,15,9,2,0,1,0
14.735,0,4,4,6,4,0,1,3
14.74,3,1,12,8,0,4,1,3
14.745,0,2,3,1,1,1,1,1
14.75,3,2,1,1,7,3,1,1
14.755,2,5,3,7,0,0,0,1
14.76,0,1,5,2,1,1,1,0
14.765,0,1,1,13,4,2,1,1
14.77,0,2,10,18,3,1,2,0
14.775,4,10,37,56,10,4,3,2
14.78,1,1,8,0,1,1,0,1
14.785,1,4,3,7,4,4,3,1
14.79,2,2,11,6,3,1,2,1
14.795,1,0,2,0,1,1,0,0
14.8,1,3,20,7,2,1,1,0
14.805,3,3,9,14,3,3,2,2
14.81,0,1,3,11,0,2,1,0
14.815,0,1,4,9,1,0,0,0
14.82,0,0,8,6,2,2,1,1
14.825,3,3,4,2,6,3,3,3
14.83,1,4,7,25,7,6,4,3
14.835,1,6,19,29,5,1,1,1
14.84,3,4,4,19,5,3,1,3
14.845,2,4,12,14,3,3,3,3
14.85,3,4,3,1,0,3,2,2
14.855,1,1,0,5,2,3,2,2
14.86,0,1,12,20,1,0,0,2
14.865,3,0,5,5,6,3,1,1
14.87,4,6,5,0,8,6,4,4
14.875,0,3,8,2,2,1,0,1
14.88,2,0,1,16,4,2,1,3
14.885,0,0,4,3,1,2,1,0
14.89,3,2,11,18,1,0,1,1
14.895,3,4,1,17,3,4,3,2
14.9,2,3,5,5,1,2,1,2
14.905,3,3,2,24,5,2,0,1
14.91,2,3,0,3,0,1,2,2
14.915,1,1,5,14,5,2,1,0
14.92,3,1,5,11,4,4,3,3
14.925,1,3,1,2,3,1,1,1
14.93,1,1,6,4,1,2,0,0
14.935,2,3,14,0,1,2,3,1
14.94,1,1,4,11,0,0,2,1
14.945,2,3,8,6,5,4,1,1
14.95,1,1,0,15,1,1,1,2
14.955,1,1,4,17,1,0,0,1
14.96,3,5,16,24,5,3,0,3
14.965,2,5,7,2,4,4,4,3
14.97,0,1,13,16,3,0,1,1
14.975,2,0,2,0,1,1,1,0
14.98,2,1,13,5,4,5,4,3
14.985,0,1,1,10,3,1,1,2
14.99,2,3,1,11,0,1,2,2
14.995,3,5,11,7,1,0,1,1
15,2,1,6,5,2,1,1,1
15.005,1,3,6,7,6,0,1,3
15.01,2,4,7,3,3,2,2,1
15.015,2,1,2,4,2,0,2,1
15.02,0,2,10,33,5,1,1,0
15.025,4,3,32,64,15,5,4,5
15.03,1,2,2,12,4,1,2,0
15.035,1,3,1,15,2,3,2,3
15.04,2,2,3,10,2,0,0,0
15.045,1,7,11,12,2,1,0,0
15.05,3,1,9,10,4,3,1,3
15.055,1,1,1,7,1,0,1,1
15.06,2,4,1,4,1,2,1,1
15.065,0,1,9,17,1,1,0,2
15.07,1,5,10,14,3,1,0,1
15.075,0,1,5,9,3,1,2,1
15.08,1,3,8,13,4,1,1,3
15.085,0,1,5,3,1,2,1,2
15.09,0,0,7,16,2,3,0,1
15.095,0,1,7,4,4,0,1,0
15.1,1,1,7,22,3,1,1,1
15.105,2,2,8,9,2,1,1,2
15.11,2,2,1,2,5,4,3,3
15.115,2,3,7,1,1,1,0,0
15.12,4,2,9,1,0,1,3,2
15.125,0,0,8,7,0,0,1,1
15.13,1,1,10,6,1,2,1,0
15.135,1,3,0,3,2,2,0,3
15.14,2,5,2,2,5,3,2,1
15.145,2,4,5,6,2,3,2,0
15.15,1,3,3,4,1,0,1,1
15.155,0,0,4,8,3,2,3,1
15.16,1,5,31,22,3,1,1,0
15.165,2,1,5,15,0,0,2,1
15.17,0,1,3,2,1,0,1,1
15.175,2,0,8,1,3,4,3,2
15.18,1,4,9,1,5,2,2,1
15.185,0,5,7,14,6,1,0,0
15.19,1,1,4,11,2,2,1,2
15.195,0,1,1,1,2,2,2,2
15.2,1,3,2,15,2,1,2,0
15.205,3,1,2,3,2,0,3,2
15.21,2,1,2,9,4,5,2,3
15.215,0,2,14,6,2,0,1,2
15.22,3,3,12,6,2,5,1,2
15.225,1,2,2,2,0,2,3,2
15.23,0,0,1,3,0,1,1,1
15.235,4,6,37,32,11,6,3,2
15.24,2,1,2,2,1,0,1,4
15.245,1,0,3,5,1,2,1,0
15.25,2,1,1,5,0,2,1,1
15.255,0,0,4,6,0,1,0,0
15.26,0,1,9,21,3,2,1,1
15.265,2,4,6,5,3,2,1,1
15.27,1,1,2,14,2,3,0,2
15.275,1,1,9,13,3,1,0,1
15.28,1,1,0,4,2,1,0,2
15.285,2,2,7,18,4,1,3,2
15.29,2,2,4,3,2,1,0,0
15.295,3,0,1,1,1,2,1,2
15.3,2,1,2,0,1,1,1,0
15.305,0,0,14,12,2,1,1,1
15.31,0,0,6,13,5,2,0,1
15.315,2,5,20,28,3,3,2,3
15.32,0,1,3,17,1,1,1,0
15.325,1,3,2,24,2,0,1,2
15.33,1,2,5,3,4,1,1,2
15.335,1,1,10,10,3,0,1,0
15.34,2,6,14,2,6,6,3,3
15.345,0,1,4,15,1,2,2,0
15.35,1,3,9,4,4,2,2,2
15.355,0,1,6,5,1,2,0,1
15.36,0,1,4,0,2,1,3,0
15.365,3,6,16,15,8,3,3,2
15.37,2,1,1,1,2,3,1,0
15.375,2,1,5,7,4,1,0,0
15.38,0,1,6,19,2,1,1,1
15.385,2,3,1,24,3,2,2,2
15.39,1,7,16,18,5,0,3,2
15.395,2,0,4,2,1,4,1,1
15.4,1,2,1,5,1,1,0,1
15.405,3,2,13,15,1,1,0,2
15.41,1,1,2,13,0,0,2,0
15.415,1,5,10,12,4,3,2,3
15.42,1,4,2,9,3,4,2,1
15.425,1,2,8,0,1,3,3,3
15.43,2,1,9,10,2,1,0,1
15.435,0,1,2,1,0,0,0,1
15.44,0,1,5,1,3,2,2,1
15.445,1,1,1,0,0,2,1,1
15.45,1,1,4,13,0,2,0,1
15.455,1,0,9,24,1,2,2,0
15.46,2,6,6,6,2,1,3,0
15.465,2,2,2,12,0,2,1,1
15.47,2,2,1,8,1,1,1,1
15.475,2,1,5,17,3,0,0,1
15.48,0,1,3,5,0,1,0,0
15.485,4,2,8,2,4,2,3,4
15.49,2,1,5,5,1,2,0,0
15.495,5,0,1,1,0,0,2,2
15.5,2,2,16,21,5,3,2,2
15.505,0,4,5,9,1,3,0,1
15.51,2,1,0,6,0,1,1,1
15.515,4,4,10,12,2,1,0,2
15.52,2,1,0,6,2,2,0,3
15.525,5,2,1,8,2,1,2,3
15.53,7,2,6,5,1,3,2,7
15.535,4,1,3,14,1,1,1,1
15.54,0,2,16,19,0,1,4,1
15.545,0,1,10,19,6,2,1,2
15.55,2,2,3,1,2,3,1,0
15.555,0,0,1,2,0,0,0,1
15.56,2,0,3,5,2,1,2,2
15.565,0,0,8,6,1,1,2,1
15.57,0,1,3,2,0,0,2,2
15.575,2,2,3,2,1,1,3,4
15.58,2,0,3,13,2,3,5,4
15.585,16,5,4,20,5,2,1,1
15.59,7,4,6,4,3,2,3,5
15.595,3,0,5,8,5,3,3,1
15.6,1,1,4,1,0,2,1,1
15.605,6,2,7,11,0,2,3,2
15.61,6,5,2,6,0,3,0,0
15.615,7,3,6,9,4,2,0,4
15.62,5,0,1,3,1,2,3,1
15.625,3,1,1,5,2,0,1,0
15.63,1,3,0,5,3,2,2,5
15.635,2,3,3,4,1,3,1,2
15.64,9,3,2,7,4,2,3,5
15.645,2,2,0,0,1,2,1,1
15.65,17,2,1,2,1,0,3,1
15.655,35,5,0,1,0,1,0,1
15.66,2,6,6,2,3,2,5,5
15.665,3,2,4,5,4,4,1,7
15.67,10,9,5,5,0,2,2,6
15.675,19,0,7,5,4,4,3,4
15.68,16,1,2,1,0,1,2,12
15.685,0,5,6,3,5,3,3,20
15.69,19,1,1,3,3,0,2,8
15.695,4,6,14,6,5,4,5,1
15.7,19,3,9,6,2,3,2,6
15.705,29,5,1,0,1,0,3,11
15.71,8,3,2,1,2,1,3,11
15.715,4,2,8,7,4,2,1,1
15.72,6,0,4,6,3,1,2,4
15.725,5,4,1,2,3,1,4,9
15.73,0,5,1,0,0,2,10,1
15.735,6,9,12,8,9,7,11,25
15.74,24,5,1,3,1,1,1,2
15.745,10,4,3,8,3,1,3,4
15.75,9,2,6,5,5,8,10,1
15.755,3,2,3,3,6,5,7,7
15.76,18,3,7,7,6,4,3,7
15.765,5,3,5,4,2,2,2,1
15.77,1,2,2,1,1,1,1,1
15.775,10,10,2,1,0,3,3,1
15.78,12,2,1,1,1,1,1,1
15.785,1,11,2,2,1,3,2,7
15.79,9,4,4,3,2,3,1,3
15.795,8,1,2,2,4,1,4,1
15.8,8,8,6,4,5,4,5,5
15.805,10,12,4,0,2,2,2,5
15.81,7,10,13,6,4,2,8,10
15.815,10,1,1,5,0,4,17,17
15.82,5,2,1,4,1,1,11,1
15.825,8,2,7,1,3,3,2,5
15.83,15,4,5,4,0,2,7,4
15.835,3,6,1,1,2,2,2,12
15.84,4,0,1,2,0,2,2,2
15.845,9,1,1,1,1,2,9,3
15.85,5,1,1,4,2,1,5,4
15.855,5,7,3,3,3,2,2,8
15.86,13,6,0,4,2,4,0,2
15.865,22,6,1,3,3,2,0,0
15.87,9,4,2,3,3,2,3,2
15.875,6,3,0,1,0,2,5,2
15.88,29,3,2,0,3,0,5,6
15.885,3,4,5,4,2,1,2,8
15.89,8,3,3,1,0,1,5,4
15.895,1,4,3,2,2,0,1,2
15.9,3,4,2,2,0,2,3,2
15.905,1,4,7,10,7,4,7,7
15.91,2,1,0,1,3,1,3,0
15.915,12,2,2,0,2,2,10,15
15.92,26,4,1,1,0,0,1,11
15.925,2,4,5,7,3,4,5,12
15.93,4,1,0,4,2,3,16,2
15.935,2,0,2,2,2,3,8,3
15.94,10,4,2,5,2,1,3,4
15.945,20,6,0,1,2,3,5,2
15.95,1,4,0,1,1,2,1,4
15.955,6,4,2,2,1,1,6,0
15.96,1,2,0,1,3,5,5,2
15.965,15,3,1,0,1,2,10,7
15.97,14,5,0,1,3,4,2,8
15.975,1,5,0,1,3,3,5,4
15.98,6,8,10,8,2,1,1,5
15.985,9,1,5,1,0,0,0,4
15.99,23,1,7,1,2,3,2,0
15.995,46,5,1,4,7,3,4,5
16,8,3,2,2,2,5,3,5
16.005,5,1,1,1,1,1,2,2
16.01,0,3,0,0,1,0,2,2
16.015,6,1,1,1,0,1,5,3
16.02,7,2,1,2,0,1,5,0
16.025,2,2,1,0,1,4,1,2
16.03,7,2,2,4,2,2,1,5
16.035,10,7,12,8,3,1,4,8
16.04,12,4,3,1,0,1,1,5
16.045,11,1,2,2,3,0,5,6
16.05,9,1,2,0,0,1,0,3
16.055,6,1,1,1,1,1,0,3
16.06,14,6,8,9,4,2,1,4
16.065,1,1,3,4,1,3,3,3
16.07,0,5,6,0,1,0,1,1
16.075,2,1,3,3,0,1,1,2
16.08,2,1,2,1,2,2,1,2
16.085,1,2,4,1,1,0,0,3
16.09,1,2,1,2,1,1,1,3
16.095,3,2,2,3,1,2,3,3
16.1,5,6,6,5,0,2,0,0
16.105,2,3,1,1,1,2,3,2
16.11,2,1,2,6,3,2,1,0
16.115,0,2,8,4,0,1,2,2
16.12,2,2,4,6,2,3,3,3
16.125,1,0,2,1,3,1,2,3
16.13,1,2,6,4,3,1,3,1
16.135,4,3,3,2,5,4,3,5
16.14,1,2,0,1,0,1,0,2
16.145,3,0,0,1,2,1,1,2
16.15,3,4,1,4,3,2,2,0
16.155,0,6,3,2,2,2,1,2
16.16,3,7,10,8,2,1,0,0
16.165,3,2,2,9,3,4,5,4
16.17,1,4,10,2,1,1,1,0
16.175,1,1,5,18,2,4,1,2
16.18,2,4,11,48,7,2,0,0
16.185,1,1,9,6,7,5,1,3
16.19,0,3,9,11,6,3,0,0
16.195,2,1,3,1,4,4,2,0
16.2,5,6,2,11,0,4,4,4
16.205,0,3,1,18,9,5,0,0
16.21,3,9,13,40,9,5,2,3
16.215,2,5,5,13,1,0,3,3
16.22,2,3,8,3,3,4,4,3
16.225,2,2,3,9,1,2,1,0
16.23,0,5,17,28,2,0,2,0
16.235,0,3,5,1,0,0,1,0
16.24,3,3,12,8,6,4,3,5
16.245,1,3,1,2,0,3,1,2
16.25,3,4,0,4,0,1,2,2
16.255,0,3,7,23,3,0,1,0
16.26,1,0,5,4,0,1,0,1
16.265,3,4,6,16,1,2,2,2
16.27,3,1,9,7,7,2,0,3
16.275,1,2,18,33,5,1,2,1
16.28,1,3,9,1,3,2,0,1
16.285,3,4,27,36,14,4,0,1
16.29,0,2,4,0,5,1,1,1
16.295,2,4,20,21,5,2,1,0
16.3,1,2,1,21,4,2,1,2
16.305,7,12,7,12,11,8,6,7
16.31,2,3,9,0,2,5,2,2
16.315,1,2,17,22,3,1,1,3
16.32,1,2,5,30,3,0,0,1
16.325,3,4,4,3,4,2,3,1
16.33,2,3,6,21,6,2,0,2
16.335,5,6,2,10,2,4,5,3
16.34,3,5,1,5,3,2,0,2
16.345,0,2,13,22,1,2,2,0
16.35,2,1,7,17,4,1,0,1
16.355,4,7,9,29,4,5,2,2
16.36,3,2,8,25,1,3,3,0
16.365,1,2,20,27,5,0,0,0
16.37,1,6,6,4,6,1,0,0
16.375,0,4,1,7,4,5,2,1
16.38,0,1,10,3,1,2,1,1
16.385,0,0,0,10,8,1,0,1
16.39,2,5,14,7,8,4,2,2
16.395,2,0,6,5,3,4,2,2
16.4,1,2,2,7,1,0,2,2
16.405,2,2,20,26,1,3,1,0
16.41,1,1,0,4,8,6,3,0
16.415,5,11,3,15,7,2,3,3
16.42,0,1,4,0,3,2,1,2
16.425,1,0,21,30,5,1,1,1
16.43,1,4,18,29,6,1,0,1
16.435,2,1,9,24,9,4,1,1
16.44,0,1,5,6,5,2,1,0
16.445,2,6,27,23,2,2,1,0
16.45,2,2,4,22,3,1,0,3
16.455,0,2,24,18,6,1,1,1
16.46,3,3,4,19,1,3,3,1
16.465,1,4,15,1,8,1,0,0
16.47,2,2,25,29,5,1,1,1
16.475,2,3,9,13,2,1,1,1
16.48,0,4,9,22,4,0,1,2
16.485,0,2,10,8,6,3,1,1
16.49,2,3,8,7,1,0,2,2
16.495,0,6,17,21,4,1,1,1
16.5,3,3,8,28,8,9,5,5
16.505,3,5,18,34,5,3,3,3
16.51,0,0,11,23,2,2,1,2
16.515,2,4,5,7,2,3,0,1
16.52,1,4,20,28,6,0,1,1
16.525,2,8,18,16,2,3,3,2
16.53,2,5,0,12,3,3,3,3
16.535,1,1,7,24,4,1,0,0
16.54,3,1,4,2,1,4,3,2
16.545,1,1,16,16,6,4,3,2
16.55,1,1,15,10,3,2,3,3
16.555,2,0,6,2,1,0,0,1
16.56,0,1,0,1,4,2,1,2
16.565,4,5,7,6,3,1,1,2
16.57,1,3,1,5,6,2,1,0
16.575,4,2,8,12,3,1,2,2
16.58,5,8,10,4,7,5,4,2
16.585,1,0,1,3,0,1,2,0
16.59,1,2,8,1,1,0,0,0
16.595,0,1,4,8,0,0,1,0
16.6,1,3,5,9,2,1,1,1
16.605,0,1,4,11,1,0,0,0
16.61,0,2,6,13,1,1,3,0
16.615,1,3,2,9,0,0,0,2
16.62,1,0,1,3,1,0,0,1
16.625,4,2,1,8,6,2,1,1
16.63,4,4,15,40,7,4,3,1
16.635,2,7,3,19,2,1,0,0
16.64,1,3,4,2,2,0,1,1
16.645,0,1,9,19,5,2,1,0
16.65,1,4,21,23,3,1,0,0
16.655,1,4,5,11,2,0,1,0
16.66,0,0,2,10,0,0,1,1
16.665,2,4,10,12,5,2,2,2
16.67,1,3,7,3,2,2,0,0
16.675,2,0,2,11,3,2,2,2
16.68,1,0,1,2,0,0,1,0
16.685,0,4,7,11,2,1,1,0
16.69,1,0,3,1,1,2,1,1
16.695,0,1,3,13,1,2,3,3
16.7,1,1,2,2,1,3,2,1
16.705,2,5,2,13,2,1,3,4
16.71,2,1,4,6,5,4,2,1
16.715,4,6,10,12,5,3,2,3
16.72,3,1,6,5,1,0,4,2
16.725,1,1,1,18,4,2,0,0
16.73,0,0,3,25,1,1,1,0
16.735,1,1,7,4,1,3,1,0
16.74,3,3,5,4,0,1,0,2
16.745,1,5,11,1,3,0,0,3
16.75,2,2,4,5,3,1,1,1
16.755,3,6,15,13,5,3,1,4
16.76,1,8,12,17,1,1,2,0
16.765,1,1,2,0,2,5,4,2
16.77,1,3,16,8,2,2,1,2
16.775,0,2,0,5,0,1,0,0
16.78,1,3,7,3,7,3,2,1
16.785,2,1,4,10,2,2,1,1
16.79,3,2,6,7,1,2,3,3
16.795,0,0,3,8,1,1,1,1
16.8,1,1,3,10,2,2,1,0
16.805,0,0,9,22,3,0,1,1
16.81,3,11,27,38,12,4,3,3
16.815,2,1,5,9,1,1,2,0
16.82,1,2,6,2,1,1,1,0
16.825,2,8,11,1,4,3,2,2
16.83,1,3,14,25,1,0,1,0
16.835,1,1,1,2,2,1,1,0
16.84,0,0,4,4,4,2,2,3
16.845,0,1,2,9,2,1,1,1
16.85,1,5,14,13,2,1,1,1
16.855,3,3,10,12,3,4,2,2
16.86,1,1,5,9,0,0,0,0
16.865,0,1,17,15,3,1,1,1
16.87,0,4,5,28,6,3,2,2
16.875,1,3,4,4,0,1,2,1
16.88,0,0,8,1,1,1,2,2
16.885,1,3,4,8,0,1,1,2
16.89,1,0,3,23,3,2,0,1
16.895,2,0,1,2,4,5,3,2
16.9,2,1,4,3,2,0,3,0
16.905,0,1,2,18,1,1,0,0
16.91,1,1,9,15,1,1,1,1
16.915,2,2,2,3,1,2,0,1
16.92,1,1,1,5,2,2,1,2
16.925,4,3,3,8,3,1,2,2
16.93,0,1,3,1,0,1,2,0
16.935,1,2,0,2,2,1,0,1
16.94,0,0,1,4,3,1,1,0
16.945,4,3,2,2,1,1,1,1
16.95,1,1,1,2,0,0,2,2
16.955,1,5,6,1,3,0,2,1
16.96,0,1,1,9,1,0,0,1
16.965,2,2,6,5,6,3,2,2
16.97,2,2,3,2,0,0,0,1
16.975,1,2,4,3,1,0,0,1
16.98,6,7,14,17,7,4,2,2
16.985,1,1,5,12,2,0,0,0
16.99,1,2,2,2,1,3,2,1
16.995,0,2,1,17,1,2,1,1
17,0,1,6,11,1,1,1,0
17.005,3,5,12,2,3,4,1,3
17.01,0,2,3,7,2,2,2,2
17.015,0,0,10,1,1,1,1,0
17.02,1,0,1,16,0,1,1,0
17.025,3,2,4,1,4,4,3,3
17.03,1,0,2,5,4,1,1,2
17.035,1,2,2,4,2,2,0,1
17.04,1,3,3,4,0,2,1,1
17.045,2,2,7,6,2,2,2,2
17.05,1,2,3,6,1,2,1,1
17.055,3,2,1,6,3,1,3,2
17.06,2,3,9,9,4,1,1,2
17.065,1,1,4,4,1,2,0,2
17.07,1,2,3,13,1,0,2,2
17.075,3,2,5,3,4,4,3,3
17.08,2,2,0,4,2,3,1,4
17.085,2,4,10,7,5,2,1,1
17.09,2,3,3,2,3,2,0,1
17.095,3,4,5,4,0,1,0,1
17.1,2,1,1,7,3,1,2,2
17.105,2,2,17,22,3,2,3,1
17.11,0,1,1,3,2,3,2,2
17.115,2,0,2,2,1,1,1,0
17.12,0,1,4,4,0,1,0,1
17.125,0,2,8,7,1,0,0,2
17.13,3,3,6,7,4,3,0,2
17.135,3,2,0,2,2,3,3,3
17.14,1,1,6,2,1,2,1,0
17.145,0,1,7,7,0,2,2,1
17.15,1,2,6,19,3,1,3,1
17.155,1,2,2,16,1,2,1,0
17.16,1,1,2,3,2,2,2,3
17.165,1,2,3,4,1,2,3,0
17.17,2,2,9,9,2,1,1,1
17.175,2,4,5,18,1,1,2,5
17.18,5,3,5,5,3,1,2,6
17.185,3,1,5,17,3,2,2,2
17.19,2,2,3,8,1,1,1,0
17.195,0,0,4,8,4,0,2,2
17.2,2,1,1,2,1,0,0,1
17.205,6,1,2,1,0,0,0,2
17.21,3,1,6,20,3,0,2,5
17.215,3,1,18,16,3,2,2,2
17.22,1,2,1,0,1,1,3,2
17.225,1,1,5,12,1,1,2,4
17.23,4,1,1,3,0,1,1,2
17.235,1,4,5,1,1,2,2,2
17.24,5,1,4,6,0,3,1,0
17.245,1,1,3,1,1,1,1,1
17.25,1,0,1,0,2,2,4,1
17.255,1,4,6,5,1,2,3,9
17.26,8,1,2,1,2,2,2,11
17.265,14,2,2,1,0,1,1,3
17.27,14,1,3,1,1,1,2,1
17.275,8,2,2,2,1,2,9,3
17.28,9,10,9,9,6,0,2,2
17.285,42,3,8,10,4,2,1,9
17.29,19,1,4,4,3,2,1,4
17.295,18,4,5,10,3,2,1,3
17.3,2,4,8,12,4,1,4,4
17.305,4,5,4,5,1,1,3,6
17.31,3,8,6,2,3,5,10,16
17.315,24,3,5,4,4,4,15,16
17.32,6,3,5,0,2,2,3,7
17.325,13,10,4,5,5,7,6,10
17.33,5,2,6,3,0,1,0,1
17.335,12,1,10,6,3,3,6,11
17.34,3,2,0,0,1,2,7,1
17.345,12,3,8,5,2,2,0,6
17.35,35,7,2,1,0,1,1,10
17.355,17,2,1,2,5,4,2,1
17.36,8,1,2,1,1,3,5,6
17.365,6,2,1,1,2,1,2,6
17.37,16,9,7,6,5,8,9,11
17.375,11,1,6,7,1,1,0,7
17.38,1,2,2,1,1,3,6,8
17.385,3,6,4,3,2,4,3,2
17.39,2,5,6,7,1,0,2,1
17.395,6,3,4,0,2,2,2,2
17.4,0,4,6,1,3,4,9,7
17.405,7,5,5,8,2,2,4,2
17.41,18,7,5,2,1,0,2,1
17.415,21,11,7,3,3,1,3,14
17.42,8,2,1,1,2,0,6,2
17.425,9,1,0,2,2,6,3,5
17.43,14,3,2,2,1,4,15,17
17.435,5,1,4,0,1,3,2,2
17.44,15,3,5,4,0,2,6,6
17.445,12,1,4,4,0,3,13,5
17.45,4,2,1,2,4,3,11,3
17.455,3,1,1,1,0,1,2,1
17.46,3,2,1,0,4,2,12,3
17.465,2,4,2,1,3,2,5,3
17.47,3,0,1,1,2,1,1,4
17.475,8,2,5,2,4,3,2,4
17.48,4,2,3,2,2,1,6,1
17.485,3,0,2,3,0,0,4,2
17.49,7,4,3,0,1,1,0,6
17.495,13,4,11,5,2,4,12,14
17.5,8,9,3,2,2,1,1,6
17.505,8,8,4,1,3,0,3,6
17.51,6,4,0,1,1,0,3,2
17.515,18,7,2,3,3,2,4,2
17.52,8,4,10,12,5,2,9,2
17.525,10,2,1,0,1,1,9,6
17.53,15,1,3,1,1,2,5,3
17.535,0,2,3,2,0,0,3,11
17.54,6,2,1,3,2,0,4,1
17.545,6,2,5,3,1,0,1,3
17.55,12,7,1,3,0,1,0,4
17.555,8,1,3,6,5,3,8,1
17.56,2,0,2,2,0,3,8,3
17.565,9,3,5,6,3,3,4,2
17.57,30,1,2,2,1,2,1,3
17.575,22,7,2,3,5,3,2,5
17.58,5,1,1,0,4,1,5,7
17.585,8,4,1,6,1,1,0,3
17.59,12,7,0,2,1,1,1,0
17.595,12,10,5,0,2,2,1,3
17.6,1,4,4,5,5,4,11,2
17.605,7,5,0,3,3,3,14,7
17.61,19,3,3,5,3,2,5,3
17.615,1,0,0,1,2,0,2,2
17.62,2,1,2,2,1,1,7,2
17.625,3,4,4,2,2,5,10,8
17.63,3,0,5,4,2,1,6,4
17.635,1,1,4,0,1,0,2,13
17.64,6,2,1,2,3,3,11,9
17.645,5,7,13,10,5,2,2,2
17.65,2,2,4,4,2,1,1,8
17.655,4,0,3,5,3,3,0,1
17.66,5,3,1,0,1,1,1,1
17.665,0,2,2,1,2,1,0,1
17.67,3,1,1,1,0,3,8,2
17.675,7,3,3,3,1,1,4,2
17.68,8,6,0,5,3,5,2,1
17.685,0,1,3,2,1,3,1,1
17.69,4,7,10,8,5,2,1,1
17.695,5,6,3,0,2,3,3,3
17.7,3,1,3,1,1,2,2,2
17.705,5,2,1,5,4,3,2,1
17.71,2,2,1,0,0,0,0,2
17.715,3,3,4,0,2,0,2,7
17.72,1,0,0,1,1,0,1,3
17.725,1,1,0,1,0,0,0,0
17.73,3,2,3,2,0,1,2,2
17.735,2,2,7,5,1,1,1,5
17.74,2,1,3,2,4,1,1,2
17.745,3,6,5,4,3,0,1,0
17.75,0,1,0,2,2,0,0,1
17.755,1,2,1,0,1,0,0,1
17.76,0,0,1,3,0,1,1,0
17.765,1,0,0,1,1,2,1,0
17.77,0,0,4,0,3,1,2,1
17.775,1,3,2,10,3,1,0,3
17.78,2,1,12,27,7,3,3,3
17.785,3,1,1,6,4,1,2,3
17.79,1,8,16,24,8,1,0,2
17.795,2,2,2,0,8,6,4,2
17.8,1,2,21,30,0,0,2,1
17.805,2,4,3,11,5,0,3,1
17.81,0,3,5,9,5,1,1,2
17.815,1,2,13,28,5,1,1,1
17.82,1,3,2,18,5,1,1,0
17.825,1,0,5,0,4,3,1,1
17.83,0,1,10,10,1,0,1,3
17.835,3,3,18,38,8,3,2,1
17.84,0,1,2,14,1,2,1,0
17.845,0,2,6,14,3,0,2,2
17.85,2,5,7,16,8,3,4,3
17.855,2,0,4,7,4,1,1,1
17.86,3,1,6,8,0,1,1,1
17.865,1,0,6,13,1,2,1,1
17.87,1,1,6,3,2,4,1,1
17.875,3,5,3,11,2,0,3,2
17.88,1,3,16,10,1,1,1,1
17.885,2,7,14,13,6,4,1,0
17.89,1,1,9,8,5,2,2,0
17.895,1,2,1,0,2,0,1,1
17.9,3,1,8,23,4,2,3,1
17.905,2,4,4,6,10,3,2,2
17.91,3,7,2,13,1,3,3,2
17.915,0,1,9,8,1,2,0,2
17.92,2,6,9,5,1,2,2,1
17.925,1,1,8,5,4,2,0,2
17.93,3,1,12,12,1,0,1,0
17.935,4,4,6,26,5,2,3,1
17.94,1,0,3,0,0,1,3,1
17.945,1,2,7,1,1,1,1,1
17.95,2,3,17,3,2,1,1,1
17.955,1,0,7,20,1,2,1,2
17.96,2,4,5,7,4,0,1,1
17.965,2,1,1,0,1,1,1,1
17.97,1,1,10,21,0,1,1,1
17.975,0,6,20,38,10,2,1,2
17.98,3,1,1,7,2,2,0,1
17.985,0,2,7,16,1,1,0,2
17.99,2,2,3,13,1,0,1,1
17.995,2,3,7,18,1,0,0,1
18,1,5,15,13,4,1,1,2
18.005,2,2,17,29,1,2,1,2
18.01,1,1,3,4,7,4,2,0
18.015,1,3,27,12,2,0,1,1
18.02,1,4,17,7,0,2,0,0
18.025,1,1,1,11,4,1,2,1
18.03,0,0,4,6,3,0,1,0
18.035,2,6,7,21,2,2,3,3
18.04,2,7,17,47,17,4,2,2
18.045,3,2,1,11,3,0,0,1
18.05,1,0,0,19,3,1,0,0
18.055,0,2,21,42,6,0,0,1
18.06,0,2,3,6,2,1,1,0
18.065,2,2,6,7,0,0,0,0
18.07,1,4,6,0,1,2,1,1
18.075,4,4,11,13,3,3,1,1
18.08,1,2,3,16,3,1,2,2
18.085,2,3,3,2,1,1,2,0
18.09,0,0,7,10,2,0,1,1
18.095,1,4,1,14,1,0,0,1
18.1,0,1,3,1,1,1,1,1
18.105,0,1,6,11,1,2,1,0
18.11,0,2,9,1,1,2,0,2
18.115,3,6,10,4,6,4,1,3
18.12,3,0,6,2,1,1,1,2
18.125,1,1,4,9,3,2,0,0
18.13,1,5,12,33,4,0,0,0
18.135,3,5,14,20,7,2,0,1
18.14,1,1,10,5,2,1,1,2
18.145,4,3,1,13,4,2,3,3
18.15,1,2,15,1,2,2,2,1
18.155,0,1,6,20,1,2,1,1
18.16,1,1,11,14,1,1,1,1
18.165,2,3,7,14,1,1,1,2
18.17,0,3,4,12,1,2,0,1
18.175,2,1,6,3,2,0,1,1
18.18,1,1,2,4,1,1,2,2
18.185,1,0,9,10,1,1,0,1
18.19,1,2,10,12,1,2,3,3
18.195,0,1,0,2,1,0,2,4
18.2,0,4,9,2,1,3,2,2
18.205,3,5,17,26,12,7,6,4
18.21,1,4,1,6,2,3,2,2
18.215,4,2,3,11,0,2,1,1
18.22,3,1,3,1,1,3,0,2
18.225,0,0,8,4,0,1,1,2
18.23,3,2,0,17,1,1,1,0
18.235,1,2,12,12,3,1,2,1
18.24,1,2,0,5,2,2,1,1
18.245,4,6,9,7,2,3,0,1
18.25,2,3,14,12,0,1,2,2
18.255,2,2,0,5,3,3,2,2
18.26,4,5,9,10,3,3,2,4
18.265,4,5,6,1,5,1,0,1
18.27,0,1,6,11,1,0,0,0
18.275,0,2,10,1,3,0,0,1
18.28,1,3,11,28,6,1,1,2
18.285,2,1,4,0,1,2,1,4
18.29,1,2,10,26,1,3,3,1
18.295,2,5,2,13,5,2,0,1
18.3,1,1,5,11,2,2,1,1
18.305,1,1,1,0,3,3,0,0
18.31,2,1,0,3,2,2,1,1
18.315,3,5,3,9,1,2,4,3
18.32,1,0,0,9,5,1,0,1
18.325,1,1,2,8,2,1,0,0
18.33,1,5,2,7,1,2,2,2
18.335,0,1,11,27,0,1,1,0
18.34,1,1,5,1,2,1,1,0
18.345,1,0,7,4,0,0,3,1
18.35,1,0,5,5,3,0,0,2
18.355,0,1,13,15,0,3,1,2
18.36,4,8,5,2,4,5,3,4
18.365,2,3,12,11,4,1,3,1
18.37,0,0,0,2,0,1,1,1
18.375,0,1,2,6,1,0,2,1
18.38,1,3,3,0,1,2,0,1
18.385,2,1,2,5,3,3,1,1
18.39,0,3,1,4,0,0,1,1
18.395,2,4,12,9,6,2,3,2
18.4,0,1,1,11,3,3,1,1
18.405,2,3,10,4,2,0,2,1
18.41,3,0,3,8,1,1,1,2
18.415,1,2,7,8,3,1,1,2
18.42,2,1,3,17,1,0,2,0
18.425,1,5,1,5,4,1,1,3
18.43,1,2,7,11,3,0,0,1
18.435,3,1,6,14,1,1,2,0
18.44,1,4,5,2,3,2,1,1
18.445,1,0,2,2,1,3,1,2
18.45,2,3,2,8,5,3,1,0
18.455,0,3,18,18,1,0,1,0
18.46,1,4,9,27,3,0,0,1
18.465,3,6,2,3,2,1,2,2
18.47,1,1,6,10,3,4,1,2
18.475,0,0,3,8,1,0,0,2
18.48,0,1,1,3,1,2,0,0
18.485,2,1,1,6,3,1,0,0
18.49,1,1,0,3,1,2,1,2
18.495,1,1,2,4,5,2,3,1
18.5,1,1,4,17,6,2,0,2
18.505,2,5,8,22,9,4,2,1
18.51,1,2,5,6,1,2,1,0
18.515,1,0,0,4,1,0,0,0
18.52,3,5,9,4,7,4,2,2
18.525,0,0,2,5,0,0,0,1
18.53,1,1,3,4,2,1,1,0
18.535,3,4,13,7,1,1,1,2
18.54,2,2,14,1,1,1,0,1
18.545,2,1,8,2,3,2,1,1
18.55,2,3,6,1,3,2,3,2
18.555,2,2,6,7,0,1,1,2
18.56,2,4,7,8,5,1,2,2
18.565,0,2,12,10,4,1,0,1
18.57,1,2,17,18,2,2,2,2
18.575,2,0,7,0,5,5,4,4
18.58,1,1,3,13,3,2,2,2
18.585,3,3,15,24,7,4,0,1
18.59,2,2,0,3,2,0,1,2
18.595,5,7,4,0,1,3,1,1
18.6,1,0,1,2,0,0,0,0
18.605,0,2,2,12,3,0,1,2
18.61,0,1,6,4,3,2,1,2
18.615,1,3,4,7,1,1,0,1
18.62,1,5,11,19,4,0,0,1
18.625,2,4,20,8,0,3,2,0
18.63,1,4,6,12,6,4,3,1
18.635,1,1,0,7,5,1,0,1
18.64,0,0,1,3,0,0,0,0
18.645,3,1,0,0,1,1,2,2
18.65,0,0,1,5,3,3,2,2
18.655,1,0,1,0,1,1,0,0
18.66,1,6,8,11,0,1,0,1
18.665,1,4,1,4,1,1,0,0
18.67,2,3,3,1,1,1,0,0
18.675,1,2,1,1,1,2,1,0
18.68,1,1,4,1,0,1,0,0
18.685,0,2,5,26,3,1,2,1
18.69,0,1,0,3,2,1,0,1
18.695,1,0,1,14,1,1,2,2
18.7,0,3,1,14,1,2,0,1
18.705,4,4,3,6,5,6,3,3
18.71,1,3,7,11,5,3,0,1
18.715,1,4,16,23,3,0,0,2
18.72,1,1,1,8,2,1,1,0
18.725,2,2,7,4,3,2,3,3
18.73,1,2,1,4,0,1,0,1
18.735,0,1,10,19,1,0,2,2
18.74,2,4,21,9,2,3,2,2
18.745,0,2,1,6,1,1,0,0
18.75,0,3,2,7,3,2,1,1
18.755,0,1,4,5,3,1,2,0
18.76,3,2,3,9,1,1,1,2
18.765,1,0,0,2,0,2,2,1
18.77,1,2,4,2,1,0,1,0
18.775,2,1,5,6,2,1,0,1
18.78,2,0,2,17,1,1,2,0
18.785,0,2,1,0,0,2,3,2
18.79,1,1,12,8,0,4,3,1
18.795,1,3,17,0,4,3,1,3
18.8,2,4,12,12,4,2,2,2
18.805,2,1,4,3,2,1,0,1
18.81,2,4,7,5,3,1,1,1
18.815,0,2,16,11,3,1,1,1
18.82,1,2,1,5,0,0,1,1
18.825,1,0,11,18,3,2,2,0
18.83,1,3,1,4,3,3,2,0
18.835,5,3,6,3,3,3,3,3
18.84,2,1,4,2,1,1,2,1
18.845,4,0,7,12,0,2,2,2
18.85,5,0,6,5,1,1,1,5
18.855,0,1,2,4,2,1,1,2
18.86,4,2,6,21,3,3,1,1
18.865,3,0,3,4,2,0,1,1
18.87,5,1,6,7,1,1,0,0
18.875,1,1,1,1,2,1,0,1
18.88,6,1,10,11,1,1,2,2
18.885,1,4,6,3,3,2,0,2
18.89,4,1,5,8,3,2,3,6
18.895,0,1,6,7,1,1,2,3
18.9,4,4,10,8,1,1,1,0
18.905,15,0,5,2,2,1,3,7
18.91,3,2,4,1,0,3,0,0
18.915,2,1,0,17,1,1,1,0
18.92,1,0,9,19,2,0,1,1
18.925,1,2,7,8,6,5,1,1
18.93,11,3,10,10,2,1,1,1
18.935,5,1,4,3,0,1,1,0
18.94,1,0,1,4,3,3,3,2
18.945,2,0,1,4,2,1,2,1
18.95,3,0,0,1,3,3,1,5
18.955,5,1,0,0,2,1,2,0
18.96,8,1,1,11,2,1,1,0
18.965,29,6,5,16,4,2,1,7
18.97,3,4,3,1,5,3,3,2
18.975,5,1,3,1,5,2,2,2
18.98,6,0,2,2,1,2,2,1
18.985,2,1,2,10,1,1,0,2
18.99,9,3,7,12,3,2,1,2
18.995,14,4,6,5,1,2,2,7
19,13,0,3,1,5,1,0,1
19.005,28,3,9,8,3,1,2,7
19.01,28,0,0,2,1,1,0,15
19.015,4,2,4,4,2,1,0,7
19.02,16,4,2,3,3,2,4,6
19.025,14,0,2,1,1,0,2,1
19.03,4,2,3,3,1,2,2,5
19.035,3,2,2,5,2,2,6,4
19.04,9,6,1,1,2,2,7,4
19.045,10,4,2,9,5,4,3,4
19.05,1,6,10,14,12,10,11,8
19.055,6,2,3,2,0,4,9,7
19.06,15,3,2,0,1,2,11,4
19.065,9,8,3,3,3,1,0,9
19.07,19,1,10,9,4,5,6,5
19.075,0,4,2,6,4,5,4,9
19.08,3,10,8,6,4,4,15,19
19.085,5,0,6,4,4,5,4,0
19.09,17,6,1,1,1,4,4,11
19.095,16,4,3,5,4,4,6,13
19.1,3,2,4,4,1,1,2,9
19.105,5,6,2,1,3,6,14,10
19.11,10,5,3,5,1,4,5,5
19.115,5,14,5,3,3,5,3,3
19.12,4,5,1,1,0,0,6,9
19.125,2,3,5,3,1,3,4,4
19.13,4,0,3,1,0,0,2,3
19.135,2,3,4,0,1,0,1,6
19.14,3,1,0,1,0,0,6,2
19.145,2,8,19,12,6,4,4,4
19.15,4,5,3,1,2,3,5,0
19.155,1,0,7,6,4,3,1,5
19.16,3,0,9,2,2,6,4,11
19.165,5,4,5,2,0,2,1,10
19.17,14,5,4,1,0,5,4,6
19.175,0,0,1,3,2,2,3,1
19.18,10,1,7,8,1,5,12,3
19.185,2,8,9,12,4,1,8,1
19.19,7,2,5,2,0,0,1,1
19.195,0,2,5,4,0,3,2,2
19.2,3,3,4,5,5,2,6,8
19.205,5,6,6,4,0,1,1,9
19.21,7,4,2,2,5,6,7,4
19.215,9,0,1,0,0,4,11,4
19.22,1,2,4,2,1,4,6,3
19.225,0,7,5,5,0,2,6,2
19.23,4,1,5,4,5,5,5,2
19.235,3,4,1,1,0,3,1,6
19.24,0,1,5,4,3,4,1,1
19.245,4,7,4,1,2,1,8,2
19.25,13,6,5,7,1,3,7,0
19.255,6,11,6,2,2,4,2,2
19.26,3,2,10,8,2,3,1,0
19.265,0,3,4,3,1,1,3,4
19.27,8,4,5,3,0,1,3,4
19.275,4,5,8,4,1,3,2,2
19.28,14,1,1,2,3,1,2,11
19.285,32,7,2,2,4,7,12,11
19.29,5,6,1,1,3,5,16,4
19.295,2,4,0,1,2,2,5,3
19.3,0,2,3,1,2,0,1,5
19.305,4,1,5,8,2,1,2,6
19.31,8,2,0,0,1,3,6,7
19.315,5,3,0,2,2,3,2,6
19.32,10,4,6,6,3,3,3,4
19.325,5,2,3,0,1,1,4,1
19.33,4,5,0,3,2,2,3,2
19.335,2,1,1,3,6,7,3,6
19.34,6,5,2,5,3,0,1,2
19.345,12,3,1,0,0,1,3,4
19.35,4,0,2,1,0,2,3,0
19.355,0,4,2,2,1,2,4,0
19.36,1,2,3,1,1,1,0,3
19.365,6,4,5,6,2,1,0,3
19.37,8,4,0,0,1,0,3,3
19.375,5,7,5,2,1,1,0,1
19.38,8,3,5,4,2,0,1,3
19.385,1,2,5,2,2,4,2,5
19.39,8,5,8,7,3,4,3,0
19.395,3,1,3,4,1,0,0,3
19.4,4,2,2,2,4,2,3,2
19.405,10,5,9,6,3,2,3,11
19.41,1,1,3,3,3,2,1,2
19.415,4,2,2,3,1,4,5,4
19.42,3,2,0,4,3,3,2,5
19.425,6,6,4,0,1,1,1,4
19.43,6,3,8,10,7,4,3,1
19.435,0,1,2,4,2,2,2,1
19.44,1,0,1,1,1,1,1,2
19.445,4,1,0,0,1,0,1,0
19.45,5,2,2,3,1,1,0,1
19.455,1,1,2,2,1,1,2,1
19.46,2,1,2,5,1,3,1,5
19.465,2,4,10,11,5,0,2,0
19.47,1,3,4,4,2,2,1,1
19.475,0,2,1,2,1,0,2,2
19.48,0,2,4,2,1,0,3,1
19.485,1,0,3,4,2,1,2,1
19.49,4,2,2,2,3,1,2,1
19.495,1,3,2,2,3,4,0,2
19.5,1,3,5,6,4,2,2,2
19.505,1,1,1,1,0,0,1,0
19.51,8,7,5,4,4,0,0,1
19.515,14,8,0,2,2,1,1,2
19.52,5,4,6,6,5,3,1,2
19.525,2,1,2,1,2,2,1,2
19.53,3,4,4,2,1,2,1,2
19.535,1,1,4,1,3,1,3,3
19.54,0,2,7,15,8,2,1,0
19.545,2,0,5,15,2,2,2,0
19.55,3,5,15,38,13,7,2,2
19.555,0,0,2,0,1,1,1,1
19.56,1,2,2,1,2,2,2,2
19.565,0,3,5,6,1,3,3,1
19.57,1,0,14,33,2,2,1,1
19.575,4,7,14,3,1,1,3,3
19.58,1,4,13,30,12,5,2,1
19.585,0,1,9,9,1,1,0,2
19.59,4,4,3,1,5,2,0,0
19.595,1,1,12,4,4,1,1,0
19.6,1,1,8,5,3,0,2,3
19.605,1,1,6,6,2,1,0,1
19.61,2,2,8,5,1,1,0,1
19.615,2,7,6,12,6,2,1,1
19.62,1,1,1,6,1,2,1,1
19.625,2,0,5,2,0,0,1,0
19.63,4,1,3,19,0,4,4,3
19.635,1,5,12,22,11,0,0,1
19.64,0,1,1,2,5,3,1,0
19.645,1,0,15,35,6,4,1,0
19.65,3,2,2,4,7,2,1,2
19.655,4,2,2,4,0,2,1,1
19.66,1,0,20,15,4,3,1,1
19.665,1,2,16,14,6,4,1,1
19.67,2,1,11,31,5,0,0,0
19.675,1,0,0,3,4,0,1,0
19.68,0,4,13,13,4,1,1,1
19.685,2,4,3,7,5,3,3,1
19.69,1,2,2,7,4,1,0,1
19.695,0,1,9,1,0,2,1,1
19.7,0,3,8,10,7,2,2,0
19.705,1,1,9,2,3,1,1,1
19.71,1,1,4,13,1,1,1,1
19.715,4,7,0,0,8,4,3,3
19.72,1,1,7,7,2,2,0,2
19.725,3,4,23,23,7,2,2,1
19.73,1,1,1,11,2,0,1,1
19.735,1,1,8,19,1,2,2,1
19.74,1,2,1,8,7,2,1,1
19.745,1,4,4,1,5,3,2,4
19.75,2,6,10,13,5,2,0,3
19.755,1,3,2,1,1,0,1,0
19.76,2,0,6,15,10,2,2,1
19.765,1,3,19,3,2,1,1,1
19.77,2,2,15,10,1,1,1,0
19.775,2,2,1,5,8,3,2,1
19.78,1,1,15,11,1,2,0,1
19.785,0,1,7,14,6,4,0,0
19.79,7,15,36,50,22,9,6,7
19.795,2,4,3,6,4,3,0,2
19.8,0,0,2,1,5,4,1,1
19.805,1,3,13,21,3,2,0,1
19.81,0,1,4,3,3,0,1,1
19.815,0,1,15,29,1,3,2,2
19.82,0,2,3,9,1,2,3,2
19.825,1,1,2,7,2,0,0,1
19.83,0,2,3,21,4,1,1,0
19.835,2,4,26,25,4,4,2,3
19.84,3,4,14,7,3,2,2,1
19.845,1,1,5,0,0,1,3,0
19.85,1,2,5,17,1,2,1,0
19.855,1,0,7,10,3,1,1,1
19.86,1,1,2,4,4,3,1,2
19.865,1,3,2,11,3,3,2,2
19.87,2,0,18,39,3,1,0,2
19.875,1,2,7,6,2,0,1,1
19.88,1,1,4,1,0,1,1,1
19.885,3,7,17,14,10,3,2,2
19.89,2,6,3,8,4,3,1,1
19.895,3,1,0,7,1,1,1,0
19.9,3,2,1,11,8,5,3,2
19.905,0,3,4,7,0,0,0,1
19.91,3,5,13,15,1,1,0,1
19.915,0,1,11,23,4,1,0,3
19.92,0,2,4,15,2,1,1,1
19.925,2,9,23,10,1,1,2,3
19.93,2,6,18,2,4,4,1,1
19.935,1,0,4,7,3,3,3,3
19.94,0,0,1,6,1,1,1,1
19.945,3,4,3,20,2,2,0,0
19.95,0,0,5,19,1,2,1,0
19.955,1,0,4,12,0,3,0,1
19.96,1,1,5,9,3,1,0,1
19.965,4,6,9,24,3,3,2,3
19.97,0,1,7,1,0,1,1,2
19.975,0,2,12,2,4,2,1,1
19.98,0,2,32,41,2,1,1,2
19.985,0,1,22,42,3,1,1,3
19.99,1,0,10,18,1,0,2,1
19.995,1,1,4,21,1,1,1,1
20,2,1,2,9,1,0,1,0
20.005,1,1,0,4,1,2,0,3
20.01,1,0,3,8,2,1,1,0
20.015,1,1,2,2,1,0,1,0
20.02,1,1,12,0,3,1,0,1
20.025,1,2,10,17,4,2,2,1
20.03,0,1,3,7,1,1,1,1
20.035,1,1,1,5,2,0,0,2
20.04,1,1,6,19,4,3,3,3
20.045,0,2,2,15,1,0,2,0
20.05,3,0,0,2,0,1,0,0
20.055,0,1,5,1,3,2,1,1
20.06,1,3,6,11,5,2,1,3
20.065,2,5,10,0,1,2,1,2
20.07,1,4,1,8,8,3,4,4
20.075,1,1,1,15,5,6,3,3
20.08,2,1,4,6,1,3,4,5
20.085,4,1,0,1,2,0,1,1
20.09,1,1,10,19,10,3,0,1
20.095,3,6,11,19,2,2,2,3
20.1,2,2,4,5,2,1,1,2
20.105,3,0,4,1,2,3,1,1
20.11,1,0,2,5,3,1,2,1
20.115,2,0,7,14,1,1,1,1
20.12,1,2,9,3,1,4,2,3
20.125,2,5,1,6,0,1,2,3
20.13,3,4,2,5,3,4,2,3
20.135,1,2,2,2,5,2,2,1
20.14,1,2,12,4,2,2,1,1
20.145,3,5,17,2,1,0,3,1
20.15,2,0,6,14,3,4,2,0
20.155,2,3,2,5,1,2,0,1
20.16,3,1,0,6,3,2,2,3
20.165,2,0,9,1,1,0,2,3
20.17,1,4,0,2,4,2,2,2
20.175,0,0,7,24,3,0,1,0
20.18,3,1,13,20,4,1,0,1
20.185,0,2,3,15,1,1,2,0
20.19,2,5,14,10,3,2,3,3
20.195,0,1,8,6,1,1,2,2
20.2,0,3,3,26,2,5,2,1
20.205,0,2,1,6,4,2,1,1
20.21,1,1,0,1,0,0,0,1
20.215,1,2,6,3,2,1,1,2
20.22,0,2,3,5,0,0,1,0
20.225,2,4,14,28,4,3,2,2
20.23,0,1,7,14,0,1,1,3
20.235,1,3,6,16,0,2,3,0
20.24,1,4,24,29,3,1,1,1
20.245,2,1,5,14,1,2,1,3
20.25,1,1,0,10,1,0,0,2
20.255,1,0,5,10,1,1,2,2
20.26,1,2,5,6,2,2,2,1
20.265,2,4,2,6,2,3,2,0
20.27,0,1,3,7,0,1,0,1
20.275,2,3,8,6,2,2,1,1
20.28,2,2,13,1,2,1,1,1
20.285,2,4,12,29,7,2,2,1
20.29,3,1,5,17,1,1,0,1
20.295,0,2,0,5,1,0,0,0
20.3,1,3,1,7,1,2,3,2
20.305,0,0,5,12,1,2,1,1
20.31,1,0,9,1,1,3,1,0
20.315,3,3,19,16,2,1,0,0
20.32,3,3,4,7,3,1,3,3
20.325,0,1,4,8,2,1,0,0
20.33,3,3,0,2,1,3,0,1
20.335,1,2,5,2,0,1,0,0
20.34,1,2,11,0,1,2,1,1
20.345,1,0,9,2,1,1,1,0
20.35,2,0,2,6,5,3,3,3
20.355,1,0,7,10,1,1,3,2
20.36,1,1,2,4,0,3,1,2
20.365,2,2,6,12,2,2,1,2
20.37,1,1,6,15,4,2,2,1
20.375,2,1,3,4,2,0,2,1
20.38,0,1,0,1,1,1,2,2
20.385,1,1,2,4,2,1,1,1
20.39,1,4,7,2,6,0,1,0
20.395,0,0,1,14,1,1,2,2
20.4,0,3,17,24,2,0,1,1
20.405,1,2,25,20,5,2,2,1
20.41,2,0,2,10,4,0,3,1
20.415,2,1,4,14,1,2,1,2
20.42,1,1,5,6,2,1,2,1
20.425,0,3,21,12,1,3,0,1
20.43,1,3,7,1,1,2,0,0
20.435,1,6,14,17,6,3,2,3
20.44,2,1,7,2,4,0,0,0
20.445,3,3,2,17,1,0,3,2
20.45,1,1,2,3,1,2,2,2
20.455,2,2,2,9,3,3,2,3
20.46,1,7,13,9,3,1,1,2
20.465,3,5,2,0,5,2,2,1
20.47,1,0,5,8,1,2,1,2
20.475,1,2,6,7,2,3,1,0
20.48,2,2,0,3,1,2,2,2
20.485,0,3,11,9,1,1,0,2
20.49,2,6,20,32,8,3,3,3
20.495,2,2,5,20,2,0,2,2
20.5,1,2,3,10,6,3,4,2
20.505,2,4,1,8,2,3,2,2
20.51,1,2,1,5,2,1,1,1
20.515,1,1,1,7,3,0,1,0
20.52,2,3,8,7,4,2,1,0
20.525,1,1,3,0,2,2,2,0
20.53,0,2,5,17,1,1,0,0
20.535,1,1,5,11,2,1,0,1
20.54,1,3,11,12,2,4,4,2
20.545,3,5,24,32,1,0,1,2
20.55,0,2,8,7,2,2,1,1
20.555,0,0,1,4,0,3,2,2
20.56,0,0,3,10,0,2,2,3
20.565,1,3,3,7,4,4,3,2
20.57,2,1,5,4,1,2,1,0
20.575,1,3,13,3,6,2,1,2
20.58,1,1,3,8,3,2,2,1
20.585,1,1,2,5,2,1,0,1
20.59,1,0,1,2,1,1,1,0
20.595,0,1,8,2,0,1,1,1
20.6,2,3,6,10,1,0,1,1
20.605,2,5,17,25,5,2,3,2
20.61,2,1,2,2,2,0,2,1
20.615,1,2,3,2,3,1,0,1
20.62,1,1,1,2,2,3,1,1
20.625,1,5,11,6,4,1,1,1
20.63,1,1,11,11,5,3,1,1
20.635,1,1,1,1,0,0,1,1
20.64,1,1,0,3,0,0,1,0
20.645,3,3,4,3,2,2,1,0
20.65,2,8,33,38,5,0,1,0
20.655,1,1,5,10,0,0,1,1
20.66,2,0,1,1,2,0,2,1
20.665,1,3,4,4,0,0,2,1
20.67,0,0,4,3,2,1,1,2
20.675,1,1,3,11,2,0,0,0
20.68,2,2,0,6,2,1,1,0
20.685,2,2,13,4,2,1,1,0
20.69,0,2,7,4,0,3,1,2
20.695,1,2,6,3,4,1,1,1
20.7,1,2,15,6,0,0,1,1
20.705,2,0,11,14,5,3,2,1
20.71,2,0,3,18,6,4,1,2
20.715,0,1,0,2,3,3,1,2
20.72,1,1,2,9,1,0,0,3
20.725,0,0,6,1,0,1,0,0
20.73,1,1,5,14,2,0,3,0
20.735,4,6,2,7,7,5,3,1
20.74,2,1,7,5,2,2,0,1
20.745,1,3,5,1,1,2,1,0
20.75,0,0,8,6,2,2,1,2
20.755,0,0,4,5,1,1,1,1
20.76,3,3,8,7,3,1,2,2
20.765,1,1,1,2,2,3,4,4
20.77,0,4,13,12,3,2,2,1
20.775,1,2,8,1,0,0,2,2
20.78,3,1,2,7,3,3,3,4
20.785,1,1,2,1,0,1,1,1
20.79,2,3,2,0,2,3,2,1
20.795,0,3,8,7,1,1,2,0
20.8,0,3,15,13,2,2,2,1
20.805,1,1,0,1,1,1,3,3
20.81,2,1,1,2,4,2,2,1
20.815,4,0,2,1,2,1,1,0
20.82,1,3,4,2,1,2,3,1
20.825,2,0,0,2,0,2,0,1
20.83,3,3,8,8,5,3,1,3
20.835,1,0,4,6,0,2,3,2
20.84,2,2,6,13,2,2,1,3
20.845,3,4,6,10,4,5,1,1
20.85,1,4,5,3,0,1,5,0
20.855,1,2,7,6,5,4,2,5
20.86,1,0,2,2,0,1,2,2
20.865,3,2,2,8,0,2,3,0
20.87,6,1,4,5,0,0,0,2
20.875,7,8,12,12,5,3,2,3
20.88,3,2,16,16,2,0,1,0
20.885,3,4,32,31,6,3,1,5
20.89,1,2,4,5,2,2,2,2
20.895,0,5,2,3,4,1,2,1
20.9,6,5,1,1,2,4,4,3
20.905,2,3,13,12,3,0,4,3
20.91,3,3,8,5,1,2,1,3
20.915,2,10,19,9,5,1,3,3
20.92,7,4,7,1,3,1,11,5
20.925,13,2,1,0,3,1,4,6
20.93,11,3,3,6,3,3,6,7
20.935,10,10,6,11,3,2,5,6
20.94,9,10,12,16,4,3,4,6
20.945,19,1,2,3,1,3,0,7
20.95,15,1,2,1,2,4,5,2
20.955,6,1,3,1,0,1,5,6
20.96,7,5,10,5,1,0,3,8
20.965,2,7,7,5,1,1,6,4
20.97,1,1,5,1,4,3,1,5
20.975,10,3,10,0,2,2,12,17
20.98,8,2,10,6,0,0,5,1
20.985,4,7,4,4,3,4,0,1
20.99,3,7,4,5,3,1,2,1
20.995,7,1,6,4,1,3,7,10
21,6,3,0,1,4,1,1,4
21.005,21,14,5,4,4,4,6,18
21.01,8,6,9,9,6,7,1,0
21.015,17,5,0,4,1,8,12,9
21.02,12,3,4,2,3,2,5,4
21.025,5,0,3,2,1,2,6,9
21.03,16,15,5,2,1,2,2,8
21.035,8,6,3,0,0,1,4,5
21.04,3,5,9,13,5,2,0,3
21.045,4,8,1,4,2,2,1,4
21.05,1,6,6,6,4,2,3,2
21.055,3,1,2,1,0,1,0,2
21.06,12,1,1,1,2,1,0,6
21.065,7,3,1,5,5,5,9,2
21.07,7,1,3,2,0,1,4,3
21.075,10,3,0,1,2,4,1,7
21.08,1,2,3,2,4,2,1,0
21.085,5,2,3,2,0,3,5,0
21.09,7,2,3,3,2,0,4,2
21.095,7,1,2,2,0,0,3,6
21.1,8,5,1,3,2,4,2,9
21.105,3,2,1,3,4,4,1,1
21.11,6,1,5,9,2,2,0,7
21.115,10,4,6,6,3,1,5,3
21.12,10,1,1,1,2,2,5,2
21.125,7,2,1,2,1,3,5,4
21.13,2,1,1,1,1,2,2,7
21.135,8,2,1,2,1,3,0,0
21.14,4,1,1,1,0,3,7,3
21.145,4,4,8,5,4,3,0,3
21.15,2,2,1,4,2,1,1,1
21.155,12,0,2,3,3,1,2,1
21.16,8,4,3,3,0,1,4,1
21.165,4,1,4,1,1,2,0,6
21.17,1,2,7,1,2,6,9,1
21.175,2,2,0,1,2,0,3,3
21.18,1,0,0,4,2,2,3,2
21.185,4,2,1,4,1,0,2,1
21.19,7,5,5,7,3,2,2,4
21.195,1,2,1,2,1,3,8,5
21.2,3,2,2,2,0,2,0,0
21.205,2,0,6,4,7,6,1,2
21.21,18,5,4,4,1,1,7,4
21.215,7,1,1,0,3,3,1,0
21.22,12,1,1,2,1,3,1,1
21.225,37,6,1,4,1,1,1,2
21.23,2,3,4,5,4,2,4,7
21.235,1,12,4,3,3,3,7,7
21.24,3,2,2,1,3,3,3,6
21.245,25,3,4,0,0,0,0,6
21.25,7,7,4,4,3,2,1,4
21.255,1,6,1,0,0,3,4,2
21.26,7,1,1,2,3,3,1,1
21.265,0,4,4,4,1,1,5,10
21.27,5,1,0,1,2,2,2,7
21.275,6,2,5,2,2,3,5,5
21.28,6,3,1,1,4,5,9,6
21.285,4,0,1,2,3,1,2,0
21.29,5,2,0,2,0,3,4,5
21.295,4,5,1,1,1,2,3,5
21.3,12,5,2,2,1,2,2,3
21.305,6,5,2,4,7,4,8,3
21.31,10,3,1,2,1,0,1,2
21.315,2,4,1,6,3,1,1,5
21.32,6,3,1,2,0,1,6,5
21.325,4,3,2,3,1,0,2,2
21.33,3,1,2,3,1,0,3,2
21.335,3,1,5,6,0,1,3,1
21.34,3,5,6,4,2,1,2,2
21.345,6,4,3,2,2,2,1,1
21.35,4,4,2,2,2,3,4,3
21.355,6,6,8,3,5,4,1,4
21.36,0,2,1,3,1,0,3,1
21.365,1,0,1,1,1,1,0,2
21.37,1,1,1,1,0,1,3,1
21.375,4,2,3,3,1,0,0,2
21.38,1,1,5,5,2,2,1,1
21.385,2,6,12,11,6,5,1,1
21.39,0,3,3,1,1,2,0,4
21.395,5,3,3,1,1,3,2,2
21.4,1,1,3,2,4,3,1,0
21.405,0,1,7,7,6,1,2,0
21.41,3,4,1,0,7,3,3,3
21.415,5,2,0,5,4,1,0,1
21.42,2,1,2,2,1,1,3,3
21.425,2,2,2,3,2,1,1,1
21.43,5,15,38,34,7,4,1,3
21.435,0,0,6,3,3,3,2,2
21.44,1,4,11,10,0,0,2,1
21.445,1,1,7,9,4,2,0,1
21.45,3,1,6,9,1,1,1,2
21.455,0,2,2,8,2,0,2,0
21.46,1,0,2,8,1,2,1,3
21.465,2,1,2,8,3,3,1,4
21.47,1,1,17,11,5,4,1,0
21.475,2,1,6,0,4,2,1,0
21.48,2,2,9,8,4,6,4,4
21.485,0,1,2,18,12,3,1,1
21.49,1,6,27,29,8,2,1,0
21.495,2,7,20,3,0,0,0,3
21.5,0,4,8,17,1,1,4,0
21.505,4,2,2,21,3,3,1,3
21.51,4,10,31,54,9,8,4,5
21.515,1,2,8,9,1,0,1,1
21.52,1,2,17,27,2,0,1,0
21.525,2,2,18,18,0,2,2,1
21.53,0,3,14,22,5,1,1,1
21.535,3,6,12,0,2,1,2,2
21.54,0,0,14,4,1,1,0,1
21.545,4,8,37,44,10,3,2,1
21.55,3,0,6,1,1,3,1,1
21.555,0,1,1,4,2,0,0,1
21.56,1,5,20,7,1,1,0,1
21.565,1,0,5,1,3,2,1,1
21.57,2,4,26,17,6,4,2,4
21.575,3,4,4,12,4,6,1,2
21.58,1,0,2,16,5,0,0,2
21.585,1,1,1,2,3,0,1,1
21.59,0,1,8,0,7,2,1,1
21.595,3,4,11,21,0,0,1,1
21.6,0,0,6,8,2,2,2,0
21.605,1,1,5,18,4,3,2,1
21.61,1,3,4,42,10,1,2,0
21.615,3,6,7,5,10,4,4,3
21.62,1,2,2,25,4,2,1,2
21.625,2,3,2,2,10,4,0,2
21.63,3,6,8,6,9,4,1,3
21.635,1,3,1,5,3,1,1,0
21.64,2,1,11,28,3,2,0,1
21.645,0,3,3,11,4,4,1,3
21.65,0,1,0,4,5,2,1,1
21.655,1,1,1,3,9,4,1,1
21.66,1,3,6,6,0,1,1,1
21.665,2,3,8,3,3,2,3,0
21.67,2,3,14,0,3,3,1,1
21.675,0,1,14,27,8,4,0,0
21.68,1,3,1,31,0,2,0,1
21.685,3,7,7,3,4,3,2,2
21.69,3,2,5,8,3,3,2,2
21.695,2,4,13,14,0,1,1,1
21.7,1,1,9,11,0,1,2,1
21.705,1,2,17,10,7,1,1,3
21.71,0,2,6,12,5,2,1,1
21.715,0,4,12,13,3,0,0,0
21.72,5,9,22,30,8,4,3,0
21.725,0,1,1,6,4,1,1,1
21.73,2,2,1,0,3,1,1,1
21.735,1,3,3,9,2,0,1,2
21.74,2,2,2,6,0,2,0,1
21.745,1,2,1,5,3,3,0,2
21.75,0,2,2,18,2,1,1,1
21.755,2,6,42,27,6,3,2,1
21.76,1,3,16,16,2,2,0,1
21.765,0,3,18,24,1,3,0,1
21.77,4,7,14,11,1,2,2,2
21.775,1,1,16,9,2,0,1,1
21.78,3,7,34,44,10,3,2,2
21.785,1,3,9,11,5,1,0,1
21.79,0,4,7,15,1,0,0,1
21.795,3,9,15,40,8,5,5,3
21.8,1,1,1,5,1,0,1,1
21.805,1,3,2,4,1,1,1,0
21.81,0,2,8,4,0,2,3,0
21.815,0,1,0,11,3,1,0,1
21.82,1,0,5,1,1,2,0,1
21.825,1,5,5,22,0,1,1,0
21.83,2,1,9,8,2,3,1,1
21.835,3,0,16,30,1,0,1,2
21.84,3,4,18,34,9,4,2,3
21.845,1,2,8,14,6,2,0,1
21.85,0,1,8,7,1,1,1,2
21.855,2,1,2,37,10,3,3,4
21.86,0,2,1,15,3,1,0,0
21.865,2,6,9,25,4,0,2,1
21.87,0,2,14,29,4,1,2,0
21.875,0,1,10,30,5,0,1,0
21.88,2,1,1,3,5,4,4,4
21.885,1,4,1,6,2,1,0,0
21.89,2,5,12,33,4,1,3,2
21.895,1,0,3,11,1,0,0,2
21.9,0,0,10,13,1,2,2,1
21.905,0,1,3,9,4,3,2,2
21.91,3,2,6,6,2,1,0,1
21.915,3,4,20,29,4,3,1,0
21.92,1,2,4,5,2,2,1,1
21.925,4,1,1,3,1,0,3,0
21.93,2,5,2,2,5,4,1,1
21.935,0,0,16,22,4,2,0,1
21.94,3,0,4,4,3,2,2,0
21.945,3,3,16,29,5,5,1,3
21.95,2,1,7,4,0,1,0,2
21.955,2,2,1,4,1,1,1,2
21.96,0,2,3,15,1,1,3,0
21.965,0,1,5,1,0,1,0,1
21.97,0,2,20,11,2,2,3,1
21.975,1,2,5,5,1,1,3,1
21.98,2,3,1,5,2,2,1,0
21.985,2,7,16,13,7,4,3,2
21.99,2,1,2,9,1,3,2,2
21.995,1,2,7,18,4,1,1,1
22,3,7,12,19,2,3,1,1
22.005,2,1,5,8,4,1,1,1
22.01,0,1,7,15,3,2,1,0
22.015,1,2,11,22,4,3,0,1
22.02,1,0,6,17,2,2,0,2
22.025,0,1,9,11,1,0,1,0
22.03,2,4,4,15,2,0,1,2
22.035,3,1,5,10,2,3,3,4
22.04,1,1,7,3,2,0,1,2
22.045,1,2,2,2,0,1,1,2
22.05,1,0,3,1,0,0,1,1
22.055,0,2,19,9,1,0,2,0
22.06,4,10,54,47,8,4,2,1
22.065,1,0,2,3,3,3,1,0
22.07,0,2,15,10,0,1,2,0
22.075,3,5,12,2,0,1,1,1
22.08,1,2,14,11,5,2,1,1
22.085,0,2,2,1,4,1,1,1
22.09,0,2,2,9,2,2,1,1
22.095,1,1,1,1,7,1,1,1
22.1,0,0,10,20,5,0,1,2
22.105,1,1,3,7,2,2,0,1
22.11,2,2,4,1,1,2,1,3
22.115,5,14,24,32,5,5,2,3
22.12,0,0,9,11,0,0,0,0
22.125,2,1,10,19,1,2,2,2
22.13,2,1,13,5,0,1,2,1
22.135,1,3,15,15,2,1,1,1
22.14,0,2,16,18,4,1,1,0
22.145,1,3,5,6,1,3,2,2
22.15,0,1,4,4,1,0,1,0
22.155,1,0,11,11,2,1,2,0
22.16,1,0,12,3,2,0,2,1
22.165,1,0,2,2,1,0,2,2
22.17,3,5,8,15,5,4,1,3
22.175,0,3,4,18,3,1,1,2
22.18,1,3,8,3,1,1,2,0
22.185,1,2,4,2,4,4,2,2
22.19,2,1,7,8,3,0,1,1
22.195,2,1,11,20,3,0,0,2
22.2,0,1,1,1,5,1,0,0
22.205,2,1,5,14,2,4,3,2
22.21,3,9,21,7,6,6,3,3
22.215,1,1,4,1,6,3,1,0
22.22,0,0,1,0,5,2,0,1
22.225,0,2,2,1,0,1,2,3
22.23,1,1,6,1,4,1,0,1
22.235,1,1,8,6,0,0,0,1
22.24,1,1,0,3,8,4,3,2
22.245,1,3,2,6,3,0,0,1
22.25,0,1,2,12,2,0,0,0
22.255,3,5,7,14,7,4,4,3
22.26,1,0,4,8,3,3,2,1
22.265,4,4,7,1,4,1,2,2
22.27,2,0,0,1,2,0,0,0
22.275,1,0,3,1,4,3,1,0
22.28,1,1,1,2,0,0,0,0
22.285,2,2,8,2,4,2,2,1
22.29,1,2,2,3,2,1,1,1
22.295,0,2,2,2,3,1,0,1
22.3,0,0,12,27,0,0,2,0
22.305,1,5,21,18,4,3,1,2
22.31,0,2,2,10,1,1,1,2
22.315,2,2,3,1,3,3,2,2
22.32,3,2,1,1,2,1,2,1
22.325,0,2,5,10,1,1,1,1
22.33,0,2,8,8,2,0,1,0
22.335,0,2,1,0,0,2,1,1
22.34,3,4,11,17,3,3,3,2
22.345,1,0,3,14,1,1,1,0
22.35,3,5,4,4,4,6,2,2
22.355,1,1,3,10,1,1,0,1
22.36,0,0,2,12,3,0,0,0
22.365,0,2,4,3,1,2,2,2
22.37,1,1,3,6,2,0,1,1
22.375,2,0,1,10,4,3,1,0
22.38,3,5,3,3,0,3,1,1
22.385,3,3,8,5,1,0,2,2
22.39,1,2,9,16,2,1,0,1
22.395,1,0,5,3,2,1,2,1
22.4,1,2,6,12,5,2,0,3
22.405,1,1,5,12,2,1,1,0
22.41,1,1,0,5,1,1,2,0
22.415,2,2,1,10,2,1,1,1
22.42,1,1,12,17,5,3,1,2
22.425,2,3,4,1,0,3,1,1
22.43,1,2,1,2,2,1,1,0
22.435,1,3,7,4,1,0,2,1
22.44,0,1,13,16,2,0,0,1
22.445,0,1,14,21,4,3,2,3
22.45,1,2,0,0,2,2,1,1
22.455,1,0,2,0,2,0,1,1
22.46,1,2,7,1,0,1,1,0
22.465,1,4,4,4,2,2,2,1
22.47,2,2,3,1,3,3,3,5
22.475,1,1,0,6,1,2,0,1
22.48,1,4,6,6,1,1,2,1
22.485,3,3,1,2,2,0,2,1
22.49,0,1,0,4,2,1,1,0
22.495,1,1,3,1,1,2,0,0
22.5,1,2,12,10,0,0,2,1
22.505,4,3,1,4,2,2,2,1
22.51,2,1,3,4,0,1,0,2
22.515,0,2,2,7,1,0,2,2
22.52,0,2,16,23,0,0,1,1
22.525,1,5,36,41,8,3,1,2
22.53,2,1,3,3,2,2,1,1
22.535,1,2,2,5,1,3,0,1
22.54,1,2,1,7,1,0,1,1
22.545,1,1,4,4,0,1,2,3
22.55,3,1,5,16,3,3,1,0
22.555,3,6,20,35,5,2,2,2
22.56,0,1,5,11,1,0,0,1
22.565,1,1,9,8,1,2,0,2
22.57,0,2,11,12,1,1,1,0
22.575,2,2,5,7,3,2,1,1
22.58,3,2,7,6,1,2,0,3
22.585,1,2,6,9,0,0,2,0
22.59,0,1,8,13,0,2,3,1
22.595,1,2,4,7,1,1,1,1
22.6,1,3,7,14,3,3,3,2
22.605,2,1,3,7,1,3,0,0
22.61,3,4,2,4,1,2,2,3
22.615,1,1,0,1,1,1,1,3
22.62,2,1,2,5,2,3,1,1
22.625,1,3,9,15,3,1,0,1
22.63,1,2,7,9,5,3,4,0
22.635,1,2,1,3,0,1,1,1
22.64,0,0,1,7,1,0,2,1
22.645,1,1,2,6,0,0,1,0
22.65,0,1,10,23,1,1,2,0
22.655,1,6,13,10,5,5,4,3
22.66,1,1,1,2,3,0,1,1
22.665,3,3,3,4,3,2,2,1
22.67,1,4,18,21,3,1,1,1
22.675,2,1,19,14,3,0,1,2
22.68,2,3,2,1,4,0,1,3
22.685,1,4,4,4,2,0,1,1
22.69,1,0,5,3,3,1,1,1
22.695,1,1,0,3,2,1,1,1
22.7,3,2,5,0,3,0,0,0
22.705,0,0,14,6,1,1,1,1
22.71,2,0,2,3,1,2,0,2
22.715,0,0,5,7,4,3,1,0
22.72,1,2,7,3,4,2,0,1
22.725,0,0,9,3,0,0,1,0
22.73,1,3,7,11,5,2,2,2
22.735,1,2,9,15,2,1,1,1
22.74,1,6,7,2,1,5,3,1
22.745,1,1,1,3,3,3,2,2
22.75,0,1,3,9,2,1,1,1
22.755,0,0,1,11,0,1,1,2
22.76,0,1,1,3,6,3,2,2
22.765,0,1,3,5,0,1,1,1
22.77,3,5,6,4,2,0,0,1
22.775,0,1,7,6,4,1,1,0
22.78,1,0,0,12,0,0,0,0
22.785,0,2,6,10,1,1,0,1
22.79,2,1,7,6,0,0,2,2
22.795,2,3,1,3,1,3,2,1
22.8,0,0,3,4,3,3,2,1
22.805,0,2,3,8,1,0,0,2
22.81,0,0,2,4,1,0,1,1
22.815,2,1,0,1,3,1,1,2
22.82,2,0,6,6,1,2,2,1
22.825,2,2,4,4,0,1,1,2
22.83,1,1,1,6,0,0,1,1
22.835,1,3,2,6,3,2,1,2
22.84,2,1,1,6,1,3,4,3
22.845,1,3,2,0,1,0,1,0
22.85,2,1,6,3,1,2,3,2
22.855,0,1,5,7,3,1,2,0
22.86,2,4,16,11,6,3,1,2
22.865,1,2,4,5,4,4,2,2
22.87,1,2,1,13,0,3,1,1
22.875,3,1,5,2,0,4,3,2
22.88,0,3,8,9,4,2,3,2
22.885,2,5,8,12,5,2,1,1
22.89,9,2,0,6,3,1,0,5
22.895,1,2,2,0,0,1,0,1
22.9,5,5,5,6,3,2,0,0
22.905,3,5,2,4,1,1,9,1
22.91,3,1,0,2,3,3,4,2
22.915,19,7,4,3,2,2,1,3
22.92,6,4,5,3,1,1,3,1
22.925,5,5,5,7,1,1,0,1
22.93,5,0,2,2,3,2,6,1
22.935,1,2,5,0,3,2,4,4
22.94,2,4,3,3,0,2,0,5
22.945,7,3,0,4,4,4,3,3
22.95,34,4,2,1,2,3,2,2
22.955,39,11,6,4,1,0,7,11
22.96,2,1,2,1,1,0,1,5
22.965,12,0,1,1,2,3,4,10
22.97,16,3,2,7,6,0,3,1
22.975,11,10,15,13,8,2,1,7
22.98,15,7,1,6,6,5,9,16
22.985,8,3,9,8,8,4,2,9
22.99,50,4,0,2,1,2,1,6
22.995,19,6,7,8,4,2,1,13
23,10,5,7,6,0,1,4,6
23.005,2,9,3,0,4,1,11,6
23.01,5,0,1,1,3,4,3,4
23.015,4,3,2,0,0,2,6,8
23.02,3,4,4,3,2,0,6,1
23.025,15,1,2,0,0,0,8,18
23.03,6,5,6,6,3,1,6,10
23.035,4,11,5,3,2,2,4,3
23.04,3,13,1,2,4,6,7,6
23.045,3,2,5,4,1,4,12,8
23.05,4,2,5,6,3,0,7,1
23.055,19,0,2,2,1,2,3,11
23.06,21,3,5,2,1,2,12,12
23.065,23,1,1,3,3,4,0,8
23.07,15,5,0,3,4,4,7,12
23.075,24,13,6,3,4,4,3,7
23.08,19,9,0,3,3,8,11,22
23.085,8,4,5,3,3,6,5,7
23.09,11,2,0,1,1,1,1,4
23.095,5,4,0,2,4,3,6,10
23.1,5,7,1,4,4,8,7,17
23.105,11,2,6,6,4,5,5,1
23.11,3,2,13,7,4,3,7,9
23.115,10,16,12,6,4,5,3,7
23.12,3,10,3,3,4,2,13,4
23.125,5,10,2,3,3,4,7,1
23.13,6,15,11,6,5,7,5,2
23.135,11,7,1,2,3,8,17,12
23.14,15,2,3,6,2,1,9,9
23.145,19,8,10,12,5,5,3,3
23.15,17,8,12,13,6,3,7,0
23.155,7,0,1,5,3,5,12,2
23.16,13,4,1,3,4,6,17,13
23.165,4,1,4,8,4,4,8,5
23.17,17,0,3,2,0,1,13,9
23.175,7,0,3,5,0,1,17,0
23.18,12,5,5,2,5,2,17,13
23.185,3,0,1,1,2,3,4,6
23.19,6,12,15,9,2,3,5,0
23.195,6,1,3,2,2,5,3,3
23.2,37,5,2,1,1,4,8,18
23.205,34,13,7,3,3,0,6,5
23.21,3,6,2,1,0,0,8,7
23.215,2,2,1,0,2,3,12,9
23.22,46,7,5,3,2,2,5,0
23.225,1,1,1,3,2,0,1,4
23.23,8,1,1,1,3,6,16,15
23.235,11,5,4,2,3,1,3,15
23.24,26,3,2,2,2,2,1,2
23.245,38,16,5,3,1,3,8,8
23.25,10,7,10,7,1,2,0,2
23.255,3,6,9,5,1,4,13,7
23.26,18,7,0,1,2,0,9,3
23.265,0,6,1,1,1,1,0,5
23.27,5,4,2,3,0,1,2,7
23.275,3,3,7,7,1,1,3,8
23.28,8,0,5,3,1,3,4,4
23.285,16,2,2,1,1,1,4,5
23.29,13,1,4,2,0,1,1,2
23.295,5,0,0,2,3,0,2,6
23.3,8,7,3,1,0,5,6,4
23.305,19,9,6,8,5,2,7,1
23.31,44,3,1,1,2,2,5,13
23.315,5,2,6,8,1,0,7,0
23.32,8,1,3,3,0,3,6,0
23.325,7,0,3,3,4,2,1,0
23.33,3,3,1,4,1,1,1,1
23.335,8,5,5,3,4,3,5,2
23.34,0,3,1,0,1,0,2,3
23.345,7,1,3,0,1,0,4,1
23.35,9,2,2,2,2,1,6,5
23.355,3,3,0,1,2,3,0,2
23.36,0,1,1,4,3,2,5,13
23.365,6,1,1,3,0,0,3,0
23.37,10,5,6,4,4,4,6,1
23.375,1,1,2,4,1,1,2,6
23.38,6,3,2,3,0,1,8,7
23.385,15,5,0,1,1,2,5,5
23.39,8,5,10,5,4,2,1,1
23.395,3,6,10,5,4,1,3,0
23.4,4,3,7,6,5,4,8,4
23.405,5,2,0,2,1,2,0,4
23.41,13,8,7,8,4,4,1,7
23.415,2,2,4,6,0,1,2,2
23.42,3,2,2,1,2,3,3,1
23.425,2,1,3,5,0,2,2,2
23.43,4,2,1,1,1,3,6,11
23.435,4,1,4,4,0,1,1,5
23.44,2,3,1,1,2,1,0,2
23.445,0,2,1,5,3,0,5,3
23.45,2,3,6,3,3,2,6,9
23.455,3,3,2,2,1,1,1,5
23.46,1,2,1,4,1,1,1,4
23.465,0,4,3,1,0,3,2,2
23.47,1,2,2,3,0,1,1,1
23.475,2,3,1,2,1,2,2,4
23.48,1,0,1,1,1,1,1,3
23.485,1,1,4,2,1,2,4,1
23.49,3,1,1,2,0,1,0,0
23.495,3,3,0,1,0,2,2,2
23.5,1,4,4,5,0,1,1,1
23.505,1,1,5,10,5,1,0,0
23.51,1,1,5,3,6,4,1,2
23.515,1,1,9,19,4,0,1,1
23.52,1,2,1,7,6,2,1,1
23.525,0,3,25,25,4,2,0,0
23.53,3,7,15,21,9,5,5,4
23.535,1,1,0,12,1,0,1,2
23.54,1,1,1,16,6,1,1,1
23.545,0,2,2,2,2,1,1,2
23.55,4,11,18,18,6,0,1,3
23.555,2,2,4,15,1,2,2,0
23.56,1,3,14,9,2,2,1,2
23.565,3,4,11,9,9,5,5,1
23.57,2,5,8,21,4,2,2,1
23.575,1,2,4,3,7,2,0,1
23.58,2,1,5,16,5,1,1,1
23.585,0,1,0,9,0,1,1,1
23.59,1,2,6,4,0,1,1,3
23.595,0,0,3,2,4,2,0,0
23.6,2,2,7,11,4,3,1,1
23.605,0,1,16,20,5,0,0,0
23.61,1,2,7,15,1,2,1,1
23.615,3,1,8,5,7,2,1,4
23.62,7,22,51,83,22,8,4,2
23.625,4,5,12,2,2,1,1,0
23.63,1,2,1,8,2,4,2,2
23.635,0,1,14,17,0,2,0,1
23.64,1,4,12,19,5,1,0,0
23.645,0,2,7,31,7,1,1,1
23.65,4,8,1,3,1,3,3,5
23.655,3,4,14,10,3,2,0,1
23.66,2,0,11,5,2,0,1,1
23.665,4,10,20,27,10,5,2,3
23.67,0,3,10,26,0,1,1,2
23.675,2,8,19,43,5,3,2,2
23.68,0,4,12,15,0,2,1,0
23.685,0,3,11,19,5,1,0,1
23.69,2,2,0,6,4,6,1,0
23.695,0,0,4,14,9,3,2,2
23.7,2,0,5,0,1,1,0,3
23.705,1,3,22,37,7,4,1,0
23.71,3,8,32,39,8,5,3,3
23.715,0,3,7,18,7,0,1,2
23.72,1,1,2,3,1,2,2,2
23.725,1,1,1,9,3,1,1,1
23.73,2,6,13,31,6,1,1,1
23.735,2,2,0,2,3,0,1,1
23.74,4,3,26,18,2,1,1,1
23.745,1,1,2,4,2,1,1,0
23.75,1,3,13,7,1,1,1,1
23.755,3,6,30,34,8,2,0,3
23.76,1,1,15,30,1,2,2,1
23.765,1,1,8,5,3,2,1,1
23.77,2,3,0,30,11,2,2,3
23.775,1,2,4,14,1,1,0,2
23.78,1,1,9,9,2,0,1,0
23.785,2,5,0,15,1,2,1,1
23.79,2,4,0,1,4,5,3,1
23.795,1,0,1,0,1,1,1,1
23.8,0,1,19,14,0,1,1,0
23.805,4,7,26,55,8,5,3,5
23.81,1,0,5,14,3,1,3,1
23.815,1,3,17,18,5,1,1,0
23.82,1,0,15,15,4,2,1,1
23.825,1,2,4,17,1,1,1,1
23.83,3,0,1,24,2,5,2,1
23.835,1,0,3,5,3,1,0,2
23.84,1,2,0,15,0,1,0,0
23.845,3,8,14,0,4,3,2,3
23.85,1,2,3,12,0,0,3,2
23.855,2,2,10,11,1,2,1,1
23.86,0,2,19,22,3,0,0,0
23.865,0,1,17,34,2,0,0,2
23.87,2,8,31,12,7,3,1,2
23.875,4,8,6,15,5,5,5,2
23.88,0,1,8,1,1,1,0,1
23.885,2,4,21,21,4,1,1,2
23.89,0,0,4,9,2,1,1,1
23.895,0,1,8,10,1,0,0,0
23.9,1,0,11,19,0,2,1,3
23.905,3,3,14,12,3,2,2,1
23.91,2,2,5,10,1,0,1,1
23.915,4,8,16,7,2,2,5,4
23.92,1,2,2,7,5,2,3,2
23.925,1,3,10,2,3,1,0,1
23.93,1,3,8,7,5,0,2,2
23.935,1,1,12,42,1,3,1,0
23.94,3,7,25,33,7,1,3,1
23.945,0,1,3,16,1,1,0,0
23.95,1,4,2,6,1,1,0,0
23.955,1,2,0,12,4,2,0,2
23.96,1,3,10,5,0,2,1,2
23.965,1,6,1,4,3,1,1,3
23.97,2,3,4,1,4,1,0,0
23.975,0,3,17,23,2,3,0,0
23.98,4,8,34,27,3,2,2,0
23.985,0,5,14,19,2,0,1,1
23.99,2,4,14,19,0,2,1,2
23.995,4,2,2,2,1,3,1,2
24,1,4,25,21,3,1,1,2
24.005,3,5,28,12,1,3,3,1
24.01,2,3,1,1,6,1,1,2
24.015,0,3,10,26,3,0,2,1
24.02,4,6,2,2,5,3,2,5
24.025,2,5,13,2,3,2,1,2
24.03,0,1,7,12,1,0,0,1
24.035,3,7,15,3,1,0,1,1
24.04,3,1,2,1,1,3,1,2
24.045,0,0,12,13,2,2,3,1
24.05,1,1,9,7,0,1,0,0
24.055,0,0,7,7,1,1,1,0
24.06,0,3,28,23,2,1,1,1
24.065,3,2,8,4,3,5,3,2
24.07,0,3,3,2,0,1,2,2
24.075,0,0,3,7,0,0,1,1
24.08,1,3,12,14,2,1,0,1
24.085,2,1,10,31,4,1,1,2
24.09,1,1,4,6,2,2,0,1
24.095,1,2,4,6,1,1,1,1
24.1,2,1,6,12,2,1,2,2
24.105,1,2,3,7,1,1,1,0
24.11,4,5,3,2,2,5,1,3
24.115,0,1,17,14,0,0,0,2
24.12,2,2,22,15,0,2,2,1
24.125,3,7,25,17,6,5,3,3
24.13,1,1,5,6,1,1,1,0
24.135,1,1,2,3,0,2,0,1
24.14,4,9,9,9,9,3,3,4
24.145,2,4,14,17,5,2,1,1
24.15,1,1,2,4,3,3,1,1
24.155,3,4,8,14,2,1,1,2
24.16,0,1,3,1,1,1,0,0
24.165,2,4,4,17,4,3,3,1
24.17,0,0,6,1,2,1,3,0
24.175,2,5,7,8,4,1,1,1
24.18,3,6,8,16,3,3,2,2
24.185,1,1,11,13,2,2,1,1
24.19,2,1,4,1,1,0,2,1
24.195,3,2,2,10,6,4,2,2
24.2,1,0,11,8,6,2,1,1
24.205,1,0,4,12,1,3,2,3
24.21,3,2,2,6,3,2,1,3
24.215,1,1,9,9,3,2,2,0
24.22,1,4,0,6,0,1,2,1
24.225,0,3,0,1,1,2,0,0
24.23,2,5,11,5,2,1,2,0
24.235,3,5,12,35,7,3,2,3
24.24,0,1,4,7,3,1,1,1
24.245,0,1,5,6,0,2,1,1
24.25,1,3,14,14,3,1,1,0
24.255,2,4,18,4,3,1,2,3
24.26,2,4,7,13,2,2,1,1
24.265,4,2,1,1,4,2,2,2
24.27,0,0,7,9,4,3,0,1
24.275,1,0,10,13,3,2,1,1
24.28,1,2,0,3,1,1,1,1
24.285,2,2,2,11,0,1,1,1
24.29,3,5,9,20,7,3,1,1
24.295,1,3,4,4,0,2,1,1
24.3,1,0,5,8,3,1,0,3
24.305,0,2,1,14,0,1,1,1
24.31,0,3,5,8,2,1,2,2
24.315,0,1,1,8,1,0,0,0
24.32,1,0,1,0,3,2,1,1
24.325,0,1,8,3,3,2,0,0
24.33,2,5,19,7,5,3,1,2
24.335,2,1,6,1,2,1,1,0
24.34,0,3,19,13,2,1,3,0
24.345,1,3,1,2,2,2,0,1
24.35,0,1,11,1,0,0,0,0
24.355,1,0,4,6,1,0,1,0
24.36,2,3,1,11,1,2,1,3
24.365,2,3,3,4,0,1,0,0
24.37,1,5,13,10,7,5,3,2
24.375,0,2,6,2,6,3,1,1
24.38,1,1,6,4,1,0,1,0
24.385,1,2,9,5,4,1,3,1
24.39,0,0,11,5,2,2,1,0
24.395,1,3,18,15,4,2,2,1
24.4,0,1,7,8,1,0,0,1
24.405,1,1,1,11,1,2,0,1
24.41,1,2,13,33,6,4,2,1
24.415,2,1,1,6,5,3,2,3
24.42,1,0,7,8,2,0,1,0
24.425,0,0,12,13,1,3,1,0
24.43,1,3,9,3,3,1,2,0
24.435,2,5,0,26,1,2,3,2
24.44,1,0,6,12,3,1,1,2
24.445,4,3,4,8,4,4,1,2
24.45,0,1,4,2,2,2,0,1
24.455,1,1,1,10,2,1,1,2
24.46,2,3,11,9,1,0,0,1
24.465,0,0,4,3,2,2,0,1
24.47,2,4,28,31,7,2,2,2
24.475,3,2,11,9,1,5,2,2
24.48,0,1,4,1,1,2,1,0
24.485,0,0,5,16,3,2,2,2
24.49,0,1,11,26,2,2,1,0
24.495,1,0,2,3,1,3,0,1
24.5,2,4,10,14,4,2,2,1
24.505,0,1,7,15,4,3,1,0
24.51,1,5,6,15,4,1,1,3
24.515,3,5,12,12,2,1,2,2
24.52,2,2,2,11,2,3,2,3
24.525,1,2,2,3,1,1,0,1
24.53,0,4,10,19,3,0,0,0
24.535,1,0,10,10,0,0,0,0
24.54,2,1,1,10,2,4,2,2
24.545,1,2,0,1,1,0,3,0
24.55,1,1,4,3,1,1,0,0
24.555,2,2,6,2,1,2,2,2
24.56,1,0,3,0,3,2,1,1
24.565,9,2,2,2,1,1,0,0
24.57,18,2,7,11,3,2,2,4
24.575,20,0,1,4,0,0,4,7
24.58,2,1,1,1,0,3,2,1
24.585,5,3,5,19,4,1,5,3
24.59,3,0,13,23,1,3,1,1
24.595,3,2,9,7,0,1,6,1
24.6,6,5,4,3,2,3,0,2
24.605,1,2,8,7,3,1,5,0
24.61,13,2,9,32,6,3,2,7
24.615,12,0,1,2,1,3,0,1
24.62,8,3,9,11,3,1,4,6
24.625,7,3,2,6,1,0,3,9
24.63,10,5,5,14,3,2,3,2
24.635,6,4,6,1,5,1,1,0
24.64,3,2,4,4,1,2,2,1
24.645,4,8,3,0,3,2,0,1
24.65,1,1,1,4,1,0,2,5
24.655,1,3,9,1,1,2,5,1
24.66,10,1,6,2,2,1,1,2
24.665,12,0,4,4,1,2,3,4
24.67,8,4,6,1,1,1,1,7
24.675,35,9,6,2,4,4,3,4
24.68,12,3,3,3,1,1,2,4
24.685,12,2,1,0,2,1,6,8
24.69,7,8,7,4,5,1,2,1
24.695,5,6,4,3,1,1,1,0
24.7,5,6,12,5,1,1,0,3
24.705,17,5,3,0,1,0,5,0
24.71,1,1,5,1,1,5,16,6
24.715,17,11,11,9,4,1,1,7
24.72,7,5,7,2,1,2,14,8
24.725,25,8,5,5,4,4,12,19
24.73,61,4,1,1,1,1,5,6
24.735,10,2,1,2,0,0,0,6
24.74,8,4,4,1,1,2,13,15
24.745,13,1,0,4,0,2,14,15
24.75,24,8,2,2,4,3,5,0
24.755,13,0,5,0,3,4,5,0
24.76,19,6,2,4,0,1,1,11
24.765,27,9,6,0,4,7,11,7
24.77,3,3,5,5,3,0,1,2
24.775,21,1,8,4,6,5,2,0
24.78,3,8,5,5,0,2,8,21
24.785,3,7,10,4,3,0,5,10
24.79,16,4,4,2,2,3,8,13
24.795,13,7,2,1,1,3,9,7
24.8,4,1,1,0,3,4,2,30
24.805,8,2,8,0,1,2,4,14
24.81,8,0,9,11,2,2,9,2
24.815,15,4,3,1,2,5,2,0
24.82,16,2,2,3,3,3,16,9
24.825,68,2,5,5,2,5,4,4
24.83,40,5,2,1,4,6,9,4
24.835,25,6,3,2,1,0,15,13
24.84,14,15,10,8,3,3,11,7
24.845,20,5,7,7,5,3,20,4
24.85,11,4,5,2,1,6,15,13
24.855,16,9,4,6,4,1,8,16
24.86,14,4,5,9,2,5,13,29
24.865,4,5,0,3,2,0,6,3
24.87,8,18,7,3,1,4,10,1
24.875,14,8,8,6,2,1,2,10
24.88,4,5,4,2,2,5,14,12
24.885,9,3,0,0,1,1,2,2
24.89,26,5,1,6,1,0,3,6
24.895,23,7,1,3,2,3,9,1
24.9,20,10,1,1,3,3,0,20
24.905,52,3,0,2,1,1,8,10
24.91,16,3,1,4,2,4,0,19
24.915,2,3,2,0,4,3,2,7
24.92,20,4,0,1,0,2,3,5
24.925,3,3,1,1,0,2,6,15
24.93,6,3,2,0,2,3,7,23
24.935,13,1,1,1,0,2,5,6
24.94,0,1,8,8,7,6,3,0
24.945,37,6,3,3,1,2,1,9
24.95,6,2,2,1,2,2,4,3
24.955,17,0,0,2,0,2,10,1
24.96,31,5,7,7,4,3,10,11
24.965,74,3,2,5,4,3,10,10
24.97,2,2,4,2,2,2,3,4
24.975,7,0,1,2,2,2,11,8
24.98,18,2,4,0,0,6,10,1
24.985,24,10,4,3,7,7,18,2
24.99,20,1,1,3,2,1,6,1
24.995,4,4,5,3,2,1,3,8
25,2,3,7,6,2,4,4,29
25.005,13,3,0,0,1,3,9,4
25.01,8,4,0,4,3,2,3,3
25.015,13,11,4,2,2,2,1,3
25.02,7,4,6,4,4,2,2,7
25.025,17,9,0,3,2,1,7,1
25.03,1,1,1,3,0,0,3,4
25.035,3,15,12,6,3,1,5,16
25.04,5,1,0,1,0,0,6,4
25.045,10,6,5,2,2,1,2,1
25.05,5,0,2,1,3,5,6,2
25.055,4,4,0,0,0,0,9,5
25.06,12,5,9,4,4,3,2,2
25.065,5,5,5,1,1,3,17,13
25.07,14,3,0,2,2,3,3,5
25.075,4,12,10,8,9,6,14,13
25.08,10,4,1,1,3,1,6,6
25.085,12,1,1,1,1,2,7,12
25.09,10,1,2,2,1,1,11,13
25.095,32,4,0,4,1,3,12,4
25.1,1,9,8,7,4,4,10,8
25.105,5,1,3,1,1,2,2,15
25.11,24,5,2,0,5,3,1,4
25.115,6,4,1,1,1,0,3,2
25.12,2,2,0,1,1,2,4,0
25.125,5,3,2,1,2,1,2,7
25.13,59,3,1,1,0,4,8,10
25.135,13,8,6,4,3,0,4,0
25.14,6,4,3,2,1,1,4,3
25.145,15,1,4,2,2,4,10,5
25.15,2,0,2,2,3,1,6,3
25.155,3,3,4,5,2,0,2,1
25.16,7,1,3,1,2,3,6,16
25.165,3,6,7,8,6,4,5,2
25.17,1,3,1,2,1,3,2,3
25.175,16,2,3,1,2,4,9,7
25.18,13,2,4,1,3,1,9,10
25.185,12,5,3,2,0,0,2,2
25.19,11,0,1,0,2,0,5,3
25.195,23,3,5,1,4,3,3,19
25.2,4,10,7,4,0,1,4,7
25.205,11,3,1,0,0,0,4,0
25.21,3,0,8,9,5,3,10,3
25.215,17,5,1,0,1,0,6,5
25.22,11,0,3,1,2,2,2,3
25.225,1,2,2,1,1,0,2,4
25.23,13,2,2,1,2,2,1,1
25.235,6,5,7,1,0,0,1,7
25.24,2,4,2,1,0,3,2,2
25.245,2,1,1,1,1,0,1,2
25.25,4,5,4,5,4,1,1,1
25.255,14,1,2,1,2,0,3,5
25.26,2,3,1,3,3,2,4,3
25.265,2,1,6,3,3,0,1,1
25.27,2,1,1,1,4,3,2,1
25.275,1,1,3,2,1,0,1,0
25.28,15,6,5,8,5,3,3,3
25.285,2,4,5,1,1,0,3,5
25.29,5,1,1,0,1,3,3,0
25.295,11,11,2,2,1,0,0,1
25.3,3,3,5,1,2,1,1,1
25.305,4,2,1,0,0,0,1,2
25.31,3,1,3,5,2,1,0,1
25.315,7,1,4,2,4,2,2,1
25.32,2,2,5,1,3,6,5,3
25.325,3,5,7,2,2,3,2,2
25.33,0,2,3,6,6,5,2,1
25.335,1,5,11,11,10,4,3,2
25.34,1,3,3,7,9,4,0,1
25.345,1,1,11,15,7,4,1,0
25.35,3,5,2,5,2,1,0,0
25.355,1,2,3,4,8,5,3,1
25.36,2,4,11,18,0,1,2,1
25.365,1,4,8,14,3,1,1,1
25.37,4,6,3,6,2,2,0,0
25.375,0,4,9,0,4,5,0,1
25.38,0,4,13,11,5,1,1,2
25.385,1,2,1,0,6,4,1,0
25.39,5,1,4,14,0,0,2,2
25.395,2,1,3,2,1,2,0,0
25.4,3,6,19,20,2,2,1,0
25.405,0,0,5,0,4,3,2,1
25.41,1,5,9,10,1,1,1,3
25.415,2,2,11,16,6,2,2,2
25.42,2,3,8,28,7,3,2,3
25.425,5,3,13,25,6,4,5,4
25.43,0,1,13,21,3,2,1,1
25.435,2,0,0,1,2,0,0,1
25.44,0,1,6,8,0,0,0,1
25.445,2,7,9,10,7,2,3,2
25.45,2,3,3,5,0,0,2,1
25.455,2,2,5,0,8,5,2,1
25.46,3,3,6,13,4,2,1,3
25.465,2,0,4,6,8,2,0,1
25.47,1,1,4,4,2,1,1,1
25.475,0,2,1,8,1,1,0,2
25.48,2,2,5,1,7,3,2,0
25.485,0,4,15,23,2,1,1,1
25.49,2,7,35,40,4,3,1,1
25.495,2,0,1,2,0,1,1,0
25.5,5,8,8,15,4,5,3,5
25.505,3,10,8,9,4,3,1,3
25.51,2,4,14,26,8,4,0,2
25.515,1,2,5,0,0,1,1,2
25.52,1,3,9,7,5,5,2,1
25.525,2,4,13,10,4,3,1,1
25.53,1,2,6,7,6,1,1,2
25.535,4,11,42,59,5,2,3,4
25.54,2,3,14,26,1,2,1,1
25.545,1,1,3,1,0,3,3,2
25.55,0,1,3,6,2,2,0,1
25.555,3,7,29,27,7,1,1,1
25.56,3,1,4,1,3,1,2,0
25.565,3,3,13,6,0,2,2,1
25.57,2,1,1,5,1,2,0,1
25.575,0,2,9,11,4,3,3,1
25.58,1,2,1,3,1,0,0,1
25.585,1,2,2,15,4,5,0,1
25.59,2,8,19,20,6,5,1,2
25.595,2,6,12,15,4,3,3,2
25.6,1,1,14,11,3,5,2,3
25.605,1,0,20,17,2,2,1,1
25.61,2,4,11,3,2,4,2,1
25.615,3,0,10,9,4,3,0,3
25.62,0,5,9,7,2,2,0,2
25.625,1,2,7,0,1,2,1,1
25.63,2,2,4,11,4,2,3,2
25.635,2,0,3,11,2,3,1,1
25.64,1,2,12,4,3,1,1,1
25.645,1,4,5,13,1,1,2,1
25.65,0,2,6,20,3,1,0,2
25.655,4,11,13,2,6,6,4,5
25.66,2,0,3,28,3,1,1,3
25.665,0,2,2,25,7,4,0,1
25.67,2,3,8,9,3,4,2,3
25.675,2,1,9,6,1,2,1,0
25.68,2,7,12,1,6,3,1,2
25.685,2,2,10,22,7,2,3,2
25.69,0,0,5,13,2,1,1,1
25.695,1,1,2,0,1,1,1,2
25.7,2,4,32,57,5,1,1,0
25.705,1,8,16,11,6,3,1,1
25.71,3,4,2,7,6,3,3,1
25.715,0,0,0,19,1,1,2,1
25.72,2,0,19,43,4,0,1,1
25.725,2,8,18,19,5,2,2,3
25.73,1,2,3,1,2,1,1,1
25.735,0,1,1,9,0,0,0,0
25.74,0,2,20,12,2,1,1,1
25.745,1,3,8,6,2,1,0,0
25.75,2,2,10,12,6,6,3,3
25.755,1,2,6,4,1,1,0,0
25.76,2,3,5,4,5,4,3,2
25.765,3,1,18,1,0,1,2,2
25.77,2,2,7,6,2,2,0,6
25.775,4,4,4,18,5,5,2,3
25.78,0,1,1,5,1,0,0,0
25.785,3,5,1,12,3,3,4,2
25.79,1,1,8,2,0,0,0,2
25.795,1,3,4,2,1,1,2,1
25.8,0,0,5,16,5,3,0,2
25.805,4,7,28,38,9,5,3,3
25.81,2,3,9,29,6,4,3,2
25.815,2,2,10,21,1,0,0,1
25.82,3,4,10,20,3,2,2,3
25.825,2,0,7,5,4,1,2,3
25.83,1,0,11,27,3,1,0,0
25.835,1,1,0,12,1,1,0,1
25.84,1,1,4,0,0,1,0,1
25.845,1,1,16,17,3,0,2,0
25.85,1,0,5,7,2,0,1,0
25.855,0,1,10,3,1,1,0,1
25.86,2,6,20,16,5,3,1,3
25.865,4,0,2,1,4,4,1,3
25.87,1,2,7,8,3,3,1,1
25.875,3,4,3,9,2,5,2,2
25.88,1,0,2,3,1,0,1,0
25.885,2,2,2,15,0,3,2,3
25.89,1,2,11,27,5,1,1,2
25.895,0,1,3,2,1,3,0,2
25.9,1,1,6,3,3,3,3,2
25.905,1,4,10,11,2,1,0,1
25.91,3,1,0,17,0,0,1,1
25.915,3,5,3,3,2,2,1,2
25.92,0,3,24,34,4,0,0,1
25.925,1,2,21,28,4,1,1,1
25.93,1,1,4,12,3,1,2,3
25.935,3,1,0,10,2,0,0,1
25.94,0,3,12,17,1,1,2,1
25.945,0,1,1,3,1,1,0,0
25.95,3,6,6,2,2,3,1,3
25.955,2,5,14,16,0,1,2,1
25.96,1,0,12,9,1,0,0,0
25.965,3,2,11,5,4,2,2,1
25.97,1,5,27,34,5,1,0,2
25.975,1,0,2,5,1,1,1,1
25.98,1,3,8,0,5,1,2,1
25.985,0,2,11,14,3,2,0,1
25.99,0,1,5,2,1,1,1,0
25.995,0,1,1,8,1,1,2,1
26,3,4,14,25,5,3,2,2
26.005,2,0,8,13,1,0,3,1
26.01,2,2,8,18,1,0,1,1
26.015,2,4,12,20,3,2,1,3
26.02,0,1,8,16,3,0,1,0
26.025,2,4,14,17,4,3,1,2
26.03,1,3,4,13,4,1,3,0
26.035,1,3,3,10,2,2,0,0
26.04,1,1,8,12,3,2,0,3
26.045,1,1,2,6,0,1,1,2
26.05,1,2,1,16,0,2,0,1
26.055,3,4,2,8,6,6,4,2
26.06,1,2,6,4,1,0,0,1
26.065,2,1,1,1,1,1,1,0
26.07,2,2,3,2,2,3,2,2
26.075,1,0,8,17,1,1,0,2
26.08,0,2,2,3,4,3,2,2
26.085,1,3,5,1,0,1,0,2
26.09,2,3,1,1,2,0,1,1
26.095,1,4,18,12,0,0,0,0
26.1,1,1,1,10,1,1,2,0
26.105,2,2,4,19,2,4,2,1
26.11,1,2,4,13,2,0,1,0
26.115,1,2,2,9,0,2,0,0
26.12,0,0,1,6,0,2,0,0
26.125,1,1,16,4,3,0,0,0
26.13,1,3,5,11,2,1,0,2
26.135,3,3,1,1,3,0,2,3
26.14,1,2,1,9,2,0,0,1
26.145,2,2,11,7,3,1,0,0
26.15,1,1,16,4,4,4,2,1
26.155,3,5,4,14,8,3,2,2
26.16,2,1,5,8,4,0,1,1
26.165,3,2,2,16,2,2,0,0
26.17,2,1,6,6,1,1,1,0
26.175,0,0,13,28,2,0,1,1
26.18,7,12,37,51,14,8,5,5
26.185,1,0,6,13,0,0,0,2
26.19,0,1,3,3,0,1,2,0
26.195,2,3,0,6,4,2,0,3
26.2,1,2,12,16,1,0,0,1
26.205,1,4,15,6,5,2,2,1
26.21,1,1,7,1,1,3,1,1
26.215,1,2,11,7,2,1,0,2
26.22,1,2,6,5,1,0,0,2
26.225,2,1,7,9,2,2,1,2
26.23,1,1,1,2,4,2,0,1
26.235,1,1,1,6,2,3,2,0
26.24,0,1,5,16,5,1,0,2
26.245,0,3,17,21,4,0,1,0
26.25,1,3,8,6,3,0,1,0
26.255,3,6,15,28,6,3,4,3
26.26,3,9,5,14,10,5,3,3
26.265,1,1,1,2,2,3,2,0
26.27,1,1,6,2,0,1,1,1
26.275,1,4,7,10,6,3,2,0
26.28,0,2,1,17,3,2,1,0
26.285,1,4,8,41,6,3,1,0
26.29,4,3,4,20,1,0,3,1
26.295,3,1,0,7,3,2,1,1
26.3,3,2,4,8,2,2,1,0
26.305,2,2,3,14,1,1,1,3
26.31,1,2,1,19,2,2,4,1
26.315,4,1,7,15,3,2,3,5
26.32,0,0,5,7,3,0,0,1
26.325,1,1,5,13,1,1,3,2
26.33,3,4,13,11,3,1,2,2
26.335,15,4,2,2,4,5,8,7
26.34,1,4,3,8,3,1,0,2
26.345,2,1,5,5,1,0,8,1
26.35,2,0,2,1,3,1,7,5
26.355,13,5,5,3,3,1,1,2
26.36,10,2,6,2,1,2,3,4
26.365,1,4,4,1,2,1,7,1
26.37,22,4,7,3,0,1,4,4
26.375,24,6,4,8,4,4,1,9
26.38,28,5,3,7,1,2,11,5
26.385,22,3,7,10,4,1,0,2
26.39,21,1,3,7,5,6,4,6
26.395,32,1,2,1,1,1,2,4
26.4,25,3,0,0,2,2,9,6
26.405,17,3,1,10,2,2,1,2
26.41,21,3,4,1,2,1,8,2
26.415,3,3,3,3,0,0,1,11
26.42,8,1,4,5,1,1,3,11
26.425,35,4,1,7,1,1,0,7
26.43,13,4,4,8,4,2,1,3
26.435,17,1,1,4,1,1,0,2
26.44,13,5,6,10,3,0,3,7
26.445,7,4,8,5,2,1,4,3
26.45,13,3,3,1,1,2,1,8
26.455,30,8,14,14,6,1,3,3
26.46,7,9,6,1,1,2,7,14
26.465,10,8,10,8,5,3,2,10
26.47,13,6,1,1,1,2,4,3
26.475,98,15,5,6,3,1,4,5
26.48,7,9,1,9,2,4,4,14
26.485,9,4,7,0,3,1,0,5
26.49,7,3,1,2,3,0,3,7
26.495,52,11,1,6,4,3,3,9
26.5,0,7,2,7,4,6,2,11
26.505,33,1,1,0,0,1,9,2
26.51,39,6,0,1,2,0,8,17
26.515,14,0,1,1,3,5,6,8
26.52,33,5,7,0,1,1,3,4
26.525,14,0,2,6,3,6,9,2
26.53,13,1,7,3,1,1,2,6
26.535,29,6,1,3,2,5,2,10
26.54,17,1,0,4,0,0,8,6
26.545,33,5,3,2,4,4,2,6
26.55,28,1,1,1,3,2,5,9
26.555,32,6,9,4,2,4,5,10
26.56,12,1,1,4,2,5,12,16
26.565,3,3,0,3,1,2,7,4
26.57,5,5,2,3,3,1,10,13
26.575,2,3,2,4,2,3,2,16
26.58,40,3,9,10,6,4,9,17
26.585,20,2,4,1,0,1,11,0
26.59,25,16,7,7,5,4,5,5
26.595,4,1,10,4,1,2,5,10
26.6,4,2,4,5,3,1,1,3
26.605,10,6,3,3,4,5,11,16
26.61,4,0,2,2,1,0,8,10
26.615,11,3,4,3,0,2,9,6
26.62,21,1,1,2,3,1,6,2
26.625,7,1,6,5,2,0,3,6
26.63,1,2,1,1,3,5,8,6
26.635,44,5,2,0,1,0,0,13
26.64,4,3,1,1,1,4,12,24
26.645,1,2,0,1,1,3,16,1
26.65,27,1,3,3,4,6,7,9
26.655,52,2,1,3,1,4,6,7
26.66,23,2,3,1,1,1,2,3
26.665,3,4,6,6,3,2,7,3
26.67,15,3,2,4,1,1,2,4
26.675,40,7,8,3,1,3,4,2
26.68,2,3,4,1,3,2,11,2
26.685,11,11,1,3,2,2,2,3
26.69,32,8,3,1,3,6,18,20
26.695,5,4,0,0,2,1,11,3
26.7,24,2,10,6,4,1,3,1
26.705,5,2,1,3,0,1,4,4
26.71,13,2,8,4,0,0,1,7
26.715,12,3,10,6,2,1,1,5
26.72,15,1,1,2,2,2,1,18
26.725,10,1,7,8,4,3,3,1
26.73,3,3,3,2,1,2,7,2
26.735,12,1,1,3,0,2,12,4
26.74,4,3,5,2,1,1,3,2
26.745,3,2,3,1,4,2,1,6
26.75,1,2,2,1,2,4,2,2
26.755,17,4,7,8,3,2,5,2
26.76,2,2,3,1,1,4,0,6
26.765,7,3,2,3,4,2,2,1
26.77,14,8,9,3,1,3,7,0
26.775,12,0,4,2,0,1,3,3
26.78,2,1,3,2,2,5,6,9
26.785,10,11,5,1,5,6,17,1
26.79,7,4,2,2,1,2,10,7
26.795,13,4,1,1,2,1,0,3
26.8,16,6,1,1,3,4,3,4
26.805,8,6,2,4,3,3,6,10
26.81,9,5,2,3,4,1,8,4
26.815,8,2,1,3,3,3,6,2
26.82,17,6,5,3,1,0,3,9
26.825,26,6,6,5,3,2,4,13
26.83,0,2,2,1,1,0,9,4
26.835,5,5,10,4,1,2,5,3
26.84,3,1,5,1,1,1,1,5
26.845,30,0,1,3,1,2,13,2
26.85,25,5,3,2,3,3,6,8
26.855,14,1,1,1,2,2,1,1
26.86,23,4,3,4,3,2,6,4
26.865,10,6,7,5,2,0,3,2
26.87,17,4,7,8,7,6,5,17
26.875,18,2,3,1,1,1,8,0
26.88,0,6,6,2,0,2,9,2
26.885,31,4,0,6,4,6,3,13
26.89,3,4,7,9,5,2,4,4
26.895,1,2,3,0,1,2,7,4
26.9,10,4,1,2,3,7,11,7
26.905,6,4,3,1,0,3,1,2
26.91,12,5,5,8,5,2,2,4
26.915,6,8,3,1,0,1,1,2
26.92,1,1,2,1,1,3,5,1
26.925,6,2,1,1,2,3,9,7
26.93,2,5,3,4,2,3,2,0
26.935,3,4,1,2,1,2,5,0
26.94,11,4,4,1,2,1,1,2
26.945,20,11,2,0,1,1,2,13
26.95,25,4,5,1,2,1,4,5
26.955,18,1,1,1,0,2,1,8
26.96,9,6,8,5,4,4,6,5
26.965,0,2,9,7,3,3,2,2
26.97,2,1,2,4,1,1,3,1
26.975,4,8,6,5,4,2,0,5
26.98,7,9,7,8,8,4,4,5
26.985,7,5,2,4,3,1,1,5
26.99,14,3,2,2,1,1,1,0
26.995,4,3,2,0,1,2,7,3
27,2,3,6,3,2,1,5,10
27.005,9,2,4,4,4,4,3,6
27.01,2,2,0,4,1,0,0,2
27.015,6,5,9,7,3,6,5,1
27.02,2,2,0,1,3,3,5,3
27.025,18,3,1,0,2,2,0,4
27.03,17,9,4,3,1,4,1,5
27.035,10,5,2,1,3,1,0,0
27.04,13,10,2,1,3,1,0,2
27.045,2,1,2,1,1,2,1,2
27.05,4,1,2,5,5,3,2,0
27.055,8,2,4,4,1,0,3,3
27.06,5,1,3,7,3,3,0,0
27.065,6,2,0,1,0,2,2,1
27.07,1,2,3,5,1,0,2,2
27.075,2,2,5,3,2,2,3,3
27.08,1,1,2,0,0,0,1,1
27.085,4,10,15,16,7,0,1,1
27.09,1,1,5,4,1,1,2,0
27.095,1,4,2,5,3,1,2,1
27.1,3,0,1,3,1,2,1,1
27.105,4,0,7,9,8,2,0,1
27.11,1,2,6,20,4,3,1,0
27.115,6,5,6,9,10,4,3,3
27.12,3,2,8,6,1,2,1,0
27.125,0,3,14,18,0,1,1,1
27.13,3,6,25,5,2,4,2,1
27.135,4,6,2,21,10,4,3,3
27.14,3,6,24,15,5,2,2,1
27.145,0,1,6,3,0,3,2,3
27.15,0,8,29,21,0,1,1,1
27.155,1,2,5,20,2,2,1,1
27.16,0,2,1,10,2,2,1,1
27.165,4,3,13,15,3,2,2,1
27.17,3,5,0,2,1,4,2,3
27.175,0,1,8,16,3,1,0,1
27.18,1,4,10,8,8,3,2,2
27.185,4,4,4,4,1,0,1,2
27.19,2,5,9,0,0,1,0,0
27.195,1,3,11,20,10,2,0,0
27.2,1,2,2,7,1,1,1,1
27.205,1,2,7,10,8,2,1,1
27.21,1,5,18,12,3,2,0,0
27.215,4,7,17,46,11,4,2,2
27.22,0,1,7,1,2,0,0,2
27.225,2,1,4,9,0,0,0,0
27.23,0,3,1,3,4,0,0,2
27.235,2,1,10,12,3,1,1,3
27.24,0,0,0,2,2,3,2,1
27.245,1,6,11,3,1,1,1,0
27.25,0,4,20,32,3,1,1,1
27.255,2,4,23,38,7,6,1,2
27.26,2,5,7,8,1,0,2,1
27.265,3,5,27,13,1,1,2,2
27.27,3,1,6,14,5,3,1,3
27.275,2,6,26,41,3,1,0,0
27.28,1,0,8,9,2,1,1,2
27.285,1,2,11,21,9,2,1,1
27.29,4,8,17,28,12,8,4,2
27.295,0,3,5,1,5,3,0,0
27.3,3,8,25,43,11,5,2,1
27.305,4,7,19,20,5,4,2,4
27.31,1,1,4,19,3,1,0,0
27.315,3,10,17,11,1,3,3,2
27.32,5,3,5,6,13,6,3,2
27.325,2,8,25,29,2,0,1,1
27.33,3,5,5,4,2,1,1,2
27.335,3,4,8,4,5,6,2,2
27.34,1,1,3,3,2,2,2,3
27.345,4,8,29,25,5,3,3,3
27.35,6,11,56,58,14,6,2,3
27.355,5,1,8,6,3,0,1,3
27.36,2,7,4,7,4,3,1,0
27.365,1,1,7,2,3,1,1,2
27.37,0,0,11,17,0,1,1,1
27.375,1,1,18,3,3,2,1,0
27.38,1,2,6,16,1,2,0,1
27.385,1,4,6,6,6,3,3,3
27.39,3,4,2,19,2,2,2,1
27.395,2,1,9,7,2,1,0,1
27.4,1,2,6,2,7,4,2,3
27.405,2,5,18,28,0,2,0,1
27.41,1,2,8,13,7,3,1,1
27.415,0,1,13,17,4,0,0,0
27.42,2,1,12,16,1,1,2,0
27.425,1,4,4,40,1,2,2,2
27.43,3,7,12,23,7,3,3,4
27.435,3,3,6,17,6,1,2,2
27.44,2,1,19,17,4,2,1,0
27.445,1,4,43,66,9,2,1,1
27.45,1,0,5,18,1,1,0,3
27.455,6,7,16,34,7,3,3,3
27.46,9,15,32,25,12,8,4,8
27.465,3,3,4,9,0,3,1,3
27.47,2,10,32,40,8,0,1,0
27.475,2,1,16,45,2,1,1,0
27.48,4,6,26,48,8,2,1,2
27.485,2,5,18,37,10,4,3,2
27.49,0,2,16,24,1,1,0,0
27.495,0,3,27,11,2,2,1,1
27.5,4,1,8,28,2,1,1,3
27.505,15,5,9,5,0,0,2,7
27.51,1,3,33,37,4,1,1,1
27.515,2,1,13,5,2,2,0,2
27.52,5,7,19,52,9,4,2,2
27.525,4,1,2,24,2,2,1,1
27.53,1,1,4,1,1,1,0,2
27.535,3,3,6,12,1,3,0,2
27.54,2,0,4,1,2,1,1,1
27.545,3,10,31,26,3,0,1,1
27.55,0,1,7,18,1,3,0,1
27.555,5,3,3,15,3,1,2,3
27.56,9,2,17,31,6,4,2,3
27.565,0,0,15,14,1,1,0,0
27.57,2,3,20,15,2,1,2,1
27.575,3,2,11,9,1,1,1,1
27.58,6,8,16,35,15,8,4,5
27.585,0,4,13,15,4,1,1,1
27.59,0,4,8,2,1,2,2,1
27.595,3,0,13,10,1,1,1,1
27.6,2,2,8,18,3,1,1,2
27.605,1,2,10,4,1,0,1,2
27.61,0,3,2,9,3,1,0,0
27.615,7,6,7,4,5,7,6,4
27.62,1,4,7,4,0,0,1,0
27.625,2,0,9,22,0,3,1,0
27.63,3,3,14,20,5,3,0,2
27.635,1,7,32,24,4,2,1,0
27.64,3,8,48,48,4,4,3,3
27.645,0,2,10,20,6,3,2,1
27.65,3,7,14,9,7,5,4,3
27.655,4,8,8,29,9,5,2,3
27.66,2,3,16,4,1,0,1,0
27.665,2,4,6,14,1,1,1,3
27.67,1,2,1,9,1,1,0,1
27.675,0,1,5,14,2,1,1,1
27.68,0,1,5,10,1,0,2,0
27.685,2,3,5,4,4,3,2,2
27.69,1,0,7,9,4,1,0,2
27.695,1,3,2,3,2,0,0,1
27.7,1,2,1,7,3,2,1,0
27.705,1,3,9,14,1,1,0,2
27.71,3,4,12,9,5,4,2,2
27.715,0,4,4,1,3,0,0,0
27.72,1,3,7,26,4,1,0,1
27.725,1,5,2,30,9,4,2,1
27.73,3,7,12,10,1,2,2,1
27.735,0,1,9,15,3,2,1,1
27.74,0,0,7,12,2,1,2,1
27.745,0,4,1,21,1,1,1,1
27.75,1,1,10,23,1,3,2,2
27.755,1,3,18,4,3,0,1,1
27.76,2,4,1,2,11,5,2,2
27.765,2,3,7,8,0,2,1,1
27.77,0,2,5,17,1,1,0,1
27.775,1,2,8,11,3,0,0,1
27.78,2,2,6,2,1,2,2,1
27.785,2,5,11,3,3,0,0,1
27.79,2,7,13,21,4,2,1,1
27.795,3,8,33,72,11,3,2,2
27.8,0,2,1,16,1,2,1,2
27.805,3,1,12,33,0,2,2,0
27.81,2,1,1,2,0,0,2,0
27.815,0,1,8,9,2,2,0,1
27.82,1,4,5,9,1,0,1,0
27.825,1,5,13,3,1,2,0,2
27.83,3,4,9,13,6,2,4,2
27.835,0,1,1,3,1,1,1,0
27.84,3,6,1,12,1,1,2,2
27.845,1,1,2,12,4,4,3,1
27.85,1,2,2,7,0,1,0,1
27.855,1,0,15,12,1,2,1,3
27.86,1,2,5,11,0,2,1,0
27.865,1,1,2,3,3,1,1,1
27.87,1,0,9,54,7,1,1,2
27.875,1,1,1,10,3,4,1,2
27.88,1,7,26,26,3,0,0,0
27.885,1,5,48,52,8,2,2,0
27.89,1,5,2,17,3,2,1,1
27.895,1,2,1,9,3,0,1,1
27.9,1,4,6,9,0,0,0,1
27.905,0,2,20,23,1,2,0,2
27.91,0,1,1,16,3,0,3,2
27.915,1,1,4,3,4,4,1,2
27.92,1,2,11,5,1,1,1,1
27.925,1,2,4,4,5,1,3,3
27.93,1,2,1,3,0,0,1,1
27.935,2,4,5,5,1,2,2,0
27.94,3,1,8,3,1,0,1,1
27.945,1,1,10,15,6,1,1,2
27.95,1,4,28,28,6,2,1,1
27.955,1,2,7,6,2,3,1,1
27.96,4,3,14,8,2,2,2,0
27.965,3,1,5,2,1,2,2,1
27.97,4,4,9,19,4,0,0,0
27.975,3,4,1,1,7,4,2,2
27.98,2,1,11,26,2,3,0,1
27.985,1,3,20,10,1,0,1,1
27.99,1,3,15,10,2,3,5,1
27.995,2,1,0,13,0,1,4,2
28,9,3,5,0,1,0,1,4
28.005,8,1,7,20,5,0,3,2
28.01,4,2,7,17,1,1,5,1
28.015,6,2,4,4,0,2,2,3
28.02,15,1,2,14,2,2,1,1
28.025,4,3,9,25,2,2,8,0
28.03,2,0,4,6,1,1,10,8
28.035,3,2,2,3,3,0,3,1
28.04,17,0,2,8,0,2,2,2
28.045,24,3,3,6,1,0,4,4
28.05,10,0,8,12,2,1,8,8
28.055,27,1,1,1,0,2,8,11
28.06,12,3,6,11,2,2,8,1
28.065,53,2,10,22,6,5,9,2
28.07,22,5,11,7,1,1,1,1
28.075,8,1,0,1,1,1,7,3
28.08,18,6,11,7,2,0,1,4
28.085,14,6,13,4,3,6,1,3
28.09,27,5,3,6,3,1,3,2
28.095,48,2,7,10,2,2,2,7
28.1,20,2,10,3,1,3,10,2
28.105,30,3,2,11,2,4,3,4
28.11,35,2,3,2,0,0,12,3
28.115,4,11,10,2,4,1,2,1
28.12,7,3,8,13,4,2,5,2
28.125,2,1,6,8,1,1,3,1
28.13,22,1,5,6,4,2,7,6
28.135,31,1,3,1,1,1,3,3
28.14,27,1,0,8,1,2,5,2
28.145,20,4,6,8,2,3,5,0
28.15,48,4,7,2,3,5,1,9
28.155,44,1,3,2,0,0,8,8
28.16,27,4,8,10,2,3,14,5
28.165,5,10,16,16,4,4,9,1
28.17,8,0,7,6,3,2,14,1
28.175,9,4,2,5,1,1,2,9
28.18,14,7,9,10,6,4,7,12
28.185,13,0,3,7,1,0,0,5
28.19,11,5,8,7,0,3,12,13
28.195,49,8,12,6,2,3,5,10
28.2,7,8,8,3,2,2,7,12
28.205,8,2,8,8,5,6,10,29
28.21,4,17,3,1,0,1,5,5
28.215,14,3,3,3,2,3,14,5
28.22,16,5,1,3,1,0,7,11
28.225,44,5,3,0,2,2,5,0
28.23,22,4,5,3,2,3,0,16
28.235,12,0,3,4,5,3,7,8
28.24,27,17,9,4,1,1,3,0
28.245,14,13,4,4,3,4,10,20
28.25,43,9,6,1,2,0,9,20
28.255,9,0,6,5,1,0,16,2
28.26,28,0,1,5,5,4,14,16
28.265,27,1,1,1,7,10,10,5
28.27,17,4,4,5,1,0,3,5
28.275,8,3,4,1,3,3,2,4
28.28,7,5,7,5,2,7,4,8
28.285,6,2,4,5,0,4,3,13
28.29,15,6,5,3,1,1,1,8
28.295,7,3,6,3,2,3,6,2
28.3,22,12,7,7,3,3,2,0
28.305,23,10,4,2,4,9,11,3
28.31,12,3,3,1,4,3,3,1
28.315,23,1,3,1,4,1,8,2
28.32,4,7,3,6,1,4,17,16
28.325,5,9,5,4,2,1,7,3
28.33,11,4,2,1,3,1,9,1
28.335,8,8,3,7,3,1,1,8
28.34,24,2,2,2,1,3,9,37
28.345,29,2,11,4,6,4,0,6
28.35,13,3,1,0,1,3,4,2
28.355,8,0,2,4,0,1,11,3
28.36,15,8,5,9,3,2,3,9
28.365,2,10,7,11,5,0,8,14
28.37,5,7,4,1,1,2,12,14
28.375,7,8,5,5,2,2,7,2
28.38,3,5,1,1,2,1,13,1
28.385,13,2,4,4,4,5,2,1
28.39,35,8,1,0,0,0,2,3
28.395,7,9,4,1,2,3,8,8
28.4,8,4,4,1,2,3,9,7
28.405,6,2,0,2,0,5,10,5
28.41,1,2,1,1,1,1,2,10
28.415,1,1,1,0,2,0,8,9
28.42,4,3,1,1,4,5,10,14
28.425,7,2,0,1,1,0,0,1
28.43,2,3,4,3,2,1,3,2
28.435,10,7,6,1,2,6,11,5
28.44,1,6,5,7,10,7,6,15
28.445,2,0,1,1,2,5,5,2
28.45,3,4,4,5,3,1,5,6
28.455,8,2,8,10,4,2,6,3
28.46,0,6,8,5,2,1,3,4
28.465,5,1,0,0,1,1,1,7
28.47,2,4,0,2,3,0,10,1
28.475,4,3,1,4,2,3,10,3
28.48,44,2,1,2,0,2,2,3
28.485,2,1,3,1,1,1,3,15
28.49,7,3,4,1,2,4,11,3
28.495,0,2,6,6,2,1,0,9
28.5,15,14,9,8,5,6,3,10
28.505,5,1,5,0,0,3,7,2
28.51,2,3,0,1,0,1,6,1
28.515,9,2,7,10,7,4,5,7
28.52,7,3,1,0,0,0,1,1
28.525,5,3,1,2,1,4,4,0
28.53,12,6,11,6,4,1,9,2
28.535,6,7,5,2,1,1,5,2
28.54,3,4,1,1,2,3,8,4
28.545,10,5,2,4,6,5,1,2
28.55,2,1,3,1,0,4,5,0
28.555,2,1,5,1,0,1,1,1
28.56,12,1,2,4,5,3,4,12
28.565,11,1,6,3,1,1,0,3
28.57,1,0,3,2,0,1,2,3
28.575,1,2,5,4,4,0,1,2
28.58,2,5,2,1,0,2,2,5
28.585,3,3,3,3,0,3,4,5
28.59,14,7,3,1,1,1,3,5
28.595,3,1,0,1,0,4,3,0
28.6,9,6,5,1,3,3,4,7
28.605,1,1,4,2,1,0,8,2
28.61,5,1,7,4,3,3,3,4
28.615,3,0,0,2,0,1,2,1
28.62,6,7,4,2,1,0,4,2
28.625,7,1,2,0,0,2,3,5
28.63,3,0,1,1,2,1,1,1
28.635,4,2,3,1,1,2,0,0
28.64,2,4,6,5,2,0,3,2
28.645,2,3,1,3,1,2,2,3
28.65,4,6,7,3,1,2,1,2
28.655,2,2,2,2,0,3,2,1
28.66,1,3,7,6,1,2,2,1
28.665,3,4,3,6,4,2,0,0
28.67,1,2,3,9,0,3,1,2
28.675,3,4,4,3,3,0,1,1
28.68,2,1,5,2,1,1,0,1
28.685,5,3,2,1,3,2,4,2
28.69,4,2,5,12,1,4,2,0
28.695,3,1,0,4,2,1,0,0
28.7,3,0,4,20,7,4,3,3
28.705,2,9,8,1,2,1,1,2
28.71,3,5,9,4,1,0,4,2
28.715,3,2,8,19,9,3,2,2
28.72,2,2,1,3,2,0,0,2
28.725,1,1,2,3,0,0,0,0
28.73,1,1,12,12,2,1,0,0
28.735,3,4,4,14,1,2,1,1
28.74,1,3,10,4,1,2,1,1
28.745,0,2,14,29,9,1,0,1
28.75,2,2,1,3,4,3,1,0
28.755,1,1,4,4,0,0,0,3
28.76,2,2,8,11,3,1,2,1
28.765,0,1,8,28,9,2,0,2
28.77,3,3,17,40,7,2,3,4
28.775,1,5,11,1,4,2,2,2
28.78,1,4,6,11,10,5,1,0
28.785,5,3,2,8,8,3,2,3
28.79,1,4,6,8,0,0,1,2
28.795,1,4,7,21,3,0,0,0
28.8,3,3,6,3,2,3,1,4
28.805,2,4,14,11,6,2,0,1
28.81,1,3,5,32,3,1,0,2
28.815,1,0,15,38,1,1,0,1
28.82,0,0,19,22,1,0,0,1
28.825,2,1,6,7,9,5,2,2
28.83,2,1,2,2,2,1,1,3
28.835,1,4,8,1,1,0,1,2
28.84,2,7,22,15,6,4,1,0
28.845,1,2,12,3,6,3,0,1
28.85,1,3,7,13,3,1,0,1
28.855,3,2,3,5,6,4,3,2
28.86,1,5,22,37,18,7,2,1
28.865,1,2,29,23,2,2,1,0
28.87,3,2,6,28,14,8,4,3
28.875,1,3,15,8,9,5,1,1
28.88,0,1,1,6,3,2,2,2
28.885,4,5,13,18,9,4,2,2
28.89,1,0,0,8,3,2,1,3
28.895,0,4,12,21,2,5,2,0
28.9,1,3,9,8,0,0,1,1
28.905,3,2,8,28,2,0,0,2
28.91,1,3,9,3,3,2,1,1
28.915,3,10,31,29,7,3,3,2
28.92,0,0,3,9,1,2,2,1
28.925,1,3,2,9,8,3,3,1
28.93,1,0,6,5,2,0,0,0
28.935,1,5,28,39,12,5,2,2
28.94,2,3,17,24,2,1,0,1
28.945,3,6,14,33,6,4,2,3
28.95,0,3,11,26,4,0,1,0
28.955,1,4,8,11,6,3,3,4
28.96,1,1,2,0,3,4,1,0
28.965,1,1,20,9,0,0,1,1
28.97,1,5,19,10,3,1,0,2
28.975,3,5,4,22,4,2,2,1
28.98,0,6,16,20,0,1,1,2
28.985,1,2,8,7,1,1,2,1
28.99,0,0,5,11,4,1,1,2
28.995,2,0,13,41,2,0,0,3
29,1,1,1,17,2,5,2,3
29.005,3,1,16,11,1,1,1,4
29.01,7,4,1,28,2,0,2,8
29.015,1,3,9,4,7,1,2,2
29.02,1,1,0,7,1,0,0,1
29.025,2,2,7,23,3,4,0,3
29.03,3,1,3,6,1,1,0,1
29.035,3,10,42,24,8,7,2,4
29.04,0,2,3,23,4,2,0,2
29.045,0,5,17,22,0,0,0,1
29.05,3,7,6,14,7,5,3,2
29.055,5,5,9,16,8,3,1,0
29.06,4,2,1,2,1,2,3,3
29.065,0,6,7,14,3,3,1,1
29.07,5,0,5,11,5,1,2,6
29.075,1,1,4,17,0,1,0,3
29.08,5,2,4,5,4,3,3,4
29.085,2,3,5,4,1,0,1,2
29.09,6,6,1,14,6,6,4,3
29.095,1,1,4,26,4,3,1,2
29.1,0,2,5,13,5,4,2,2
29.105,3,2,15,13,0,1,1,0
29.11,10,7,1,10,6,4,0,3
29.115,17,7,12,37,1,3,3,3
29.12,1,2,5,18,2,0,1,1
29.125,2,3,13,23,5,4,2,4
29.13,1,2,2,2,2,2,1,1
29.135,4,3,8,8,1,0,0,0
29.14,1,0,14,50,6,2,1,0
29.145,6,7,19,37,9,4,3,5
29.15,1,4,5,11,0,3,1,1
29.155,1,0,7,3,2,2,0,0
29.16,1,2,10,22,2,0,0,3
29.165,1,5,16,18,4,2,1,3
29.17,0,1,5,8,1,1,2,4
29.175,7,1,1,4,2,0,1,2
29.18,13,6,13,19,6,2,4,9
29.185,1,4,15,15,2,2,1,2
29.19,1,2,4,19,2,2,3,5
29.195,1,1,5,37,4,2,1,0
29.2,1,0,7,23,5,1,0,1
29.205,1,3,20,14,2,2,0,1
29.21,5,4,21,16,2,1,1,1
29.215,2,0,5,28,7,0,0,1
29.22,5,3,12,25,4,3,1,2
29.225,5,5,19,33,8,3,3,1
29.23,2,6,21,14,1,0,1,2
29.235,0,3,3,18,3,1,2,1
29.24,6,10,18,18,2,2,2,1
29.245,1,0,7,8,0,1,0,0
29.25,5,3,10,15,1,1,1,2
29.255,3,2,6,9,5,3,4,3
29.26,1,1,4,3,3,1,2,1
29.265,1,1,4,16,0,0,1,1
29.27,2,3,4,28,2,0,2,0
29.275,2,7,23,20,7,3,2,3
29.28,1,1,7,15,3,3,0,0
29.285,1,1,3,17,3,0,1,1
29.29,5,2,14,22,4,1,0,1
29.295,0,1,7,14,1,0,0,1
29.3,2,1,7,22,5,2,1,0
29.305,1,1,6,5,3,2,2,2
29.31,1,1,5,14,1,2,1,0
29.315,2,5,7,14,5,4,3,3
29.32,1,1,5,3,0,1,1,1
29.325,1,0,3,9,0,1,1,1
29.33,3,2,16,21,4,0,2,2
29.335,1,4,17,0,8,5,0,2
29.34,0,2,3,3,1,0,1,0
29.345,0,1,4,44,5,0,1,1
29.35,1,4,2,36,4,2,2,0
29.355,1,1,0,8,0,2,2,4
29.36,0,6,11,15,4,3,1,3
29.365,2,0,1,8,1,3,1,3
29.37,1,1,1,20,1,1,1,1
29.375,1,2,11,21,2,0,1,0
29.38,0,2,3,3,2,0,2,0
29.385,2,2,1,17,1,3,3,2
29.39,1,1,7,2,0,1,0,1
29.395,2,1,8,0,1,0,0,1
29.4,0,2,11,4,2,2,1,0
29.405,4,4,20,0,6,2,3,2
29.41,0,1,2,6,3,2,1,0
29.415,1,3,4,8,1,0,1,1
29.42,1,1,0,7,2,0,0,2
29.425,0,0,1,6,0,1,2,1
29.43,1,2,4,0,0,0,0,0
29.435,2,4,15,20,2,0,2,1
29.44,1,2,16,21,1,4,1,0
29.445,2,5,15,3,2,3,2,2
29.45,0,1,2,7,4,2,1,1
29.455,2,1,3,16,0,1,0,0
29.46,1,1,8,10,7,4,2,2
29.465,0,1,9,3,1,2,0,1
29.47,1,0,9,21,2,0,2,0
29.475,1,2,2,8,0,2,0,1
29.48,0,0,7,14,3,0,1,1
29.485,0,2,1,1,5,2,0,0
29.49,1,1,3,1,2,1,1,2
29.495,5,4,1,2,4,3,4,3
29.5,2,1,5,9,0,2,1,1
29.505,0,1,5,3,4,3,1,1
29.51,0,1,2,9,2,2,0,1
29.515,2,1,9,10,2,1,1,2
29.52,3,3,5,3,1,1,0,2
29.525,0,3,6,7,2,1,1,1
29.53,3,8,23,50,5,3,2,3
29.535,3,1,11,26,3,2,0,0
29.54,4,6,17,25,5,1,3,4
29.545,0,0,4,12,1,1,1,1
29.55,1,1,10,29,3,2,1,2
29.555,2,1,5,25,0,1,1,0
29.56,1,1,4,10,1,1,3,0
29.565,0,3,7,4,2,1,1,1
29.57,1,1,3,4,0,1,0,1
29.575,0,4,9,23,5,1,1,1
29.58,3,1,8,6,2,4,0,3
29.585,2,1,4,8,2,1,2,0
29.59,2,3,5,13,1,2,2,0
29.595,1,1,0,16,2,0,0,1
29.6,2,0,1,4,3,1,1,4
29.605,2,2,7,11,1,0,0,1
29.61,3,1,2,10,2,1,1,3
29.615,1,0,0,10,1,2,1,2
29.62,1,1,7,2,0,1,1,1
29.625,2,1,8,11,1,1,2,2
29.63,1,2,8,7,3,2,1,1
29.635,4,4,8,1,4,2,2,2
29.64,1,2,19,2,0,1,3,1
29.645,1,1,7,17,1,3,1,2
29.65,0,2,13,24,4,1,1,1
29.655,0,0,3,2,0,0,1,1
29.66,2,1,13,16,1,1,2,1
29.665,0,3,16,30,6,0,1,1
29.67,1,1,8,11,4,0,1,1
29.675,0,3,9,10,3,2,2,2
29.68,1,0,6,2,3,1,0,2
29.685,1,6,4,5,0,3,2,1
29.69,0,1,7,11,1,1,0,0
29.695,2,2,5,12,6,4,2,2
29.7,0,1,6,0,1,1,2,0
29.705,2,1,3,7,0,1,0,0
29.71,5,4,13,53,7,5,2,2
29.715,2,1,8,41,5,1,2,1
29.72,4,1,0,2,2,1,2,3
29.725,3,0,4,1,3,3,1,1
29.73,8,2,3,8,2,0,5,1
29.735,5,0,8,20,2,3,4,4
29.74,5,1,1,4,3,2,0,1
29.745,8,3,5,1,0,1,3,2
29.75,0,1,9,8,5,2,3,0
29.755,4,1,6,4,3,2,1,0
29.76,6,1,1,1,2,3,6,1
29.765,13,3,4,5,1,1,4,2
29.77,12,2,0,10,1,1,5,5
29.775,5,1,5,7,2,3,1,5
29.78,16,1,5,8,1,1,3,0
29.785,50,6,5,12,3,2,1,3
29.79,7,0,0,8,0,0,5,3
29.795,15,3,5,7,0,2,1,3
29.8,13,1,3,5,1,2,10,6
29.805,17,2,4,4,3,2,0,2
29.81,10,4,2,10,0,3,3,2
29.815,0,3,5,12,5,1,1,2
29.82,31,2,3,0,3,2,5,7
29.825,32,0,0,0,2,2,4,3
29.83,11,6,5,8,1,0,6,11
29.835,6,2,3,4,2,5,10,10
29.84,32,3,2,7,5,3,2,0
29.845,7,1,10,7,3,0,1,2
29.85,23,6,5,4,0,1,1,2
29.855,34,3,3,1,3,1,4,4
29.86,14,4,1,0,4,6,3,13
29.865,24,1,6,7,5,0,1,3
29.87,41,19,5,3,5,2,1,1
29.875,26,8,5,7,7,7,5,5
29.88,40,2,3,4,1,2,1,12
29.885,36,3,5,5,3,3,7,9
29.89,19,5,4,4,0,1,2,1
29.895,19,12,2,2,3,1,5,7
29.9,7,3,4,0,2,4,7,25
29.905,4,3,5,3,0,0,1,10
29.91,1,4,8,12,3,0,11,22
29.915,4,2,2,3,4,3,17,36
29.92,4,9,6,3,2,3,21,11
29.925,11,10,4,6,6,3,6,3
29.93,28,0,6,2,0,0,3,0
29.935,4,0,4,0,0,1,2,7
29.94,13,1,4,1,0,1,4,2
29.945,12,1,8,5,3,1,3,9
29.95,3,4,2,2,4,3,6,11
29.955,4,5,1,5,5,4,3,0
29.96,2,3,5,5,1,1,1,5
29.965,32,1,0,3,0,0,9,11
29.97,15,3,2,4,1,1,14,8
29.975,1,4,9,5,4,2,6,8
29.98,14,9,4,4,3,2,8,5
29.985,33,2,3,4,3,1,11,8
29.99,4,6,10,6,3,1,3,7
29.995,6,1,2,1,1,4,5,12
30,0,5,3,4,2,1,4,2
30.005,12,0,9,7,5,6,13,4
30.01,29,13,7,4,2,3,4,1
30.015,7,3,1,1,1,1,8,2
30.02,6,4,4,2,0,1,7,16
30.025,6,6,11,8,5,3,0,8
30.03,7,1,2,2,3,2,1,2
30.035,28,3,2,0,0,2,5,6
30.04,19,5,2,2,4,4,0,7
30.045,10,1,1,4,2,2,6,3
30.05,4,0,0,1,1,0,6,6
30.055,5,4,7,3,1,1,6,7
30.06,20,3,1,0,0,1,0,2
30.065,8,7,8,5,3,3,1,11
30.07,2,2,2,3,3,4,5,6
30.075,19,0,1,1,2,0,2,12
30.08,6,5,0,1,1,2,6,2
30.085,15,4,0,0,1,1,2,1
30.09,1,15,10,7,3,0,0,3
30.095,4,0,1,1,1,0,7,9
30.1,7,1,7,7,3,3,4,2
30.105,10,4,3,2,1,0,7,2
30.11,12,7,2,2,2,0,2,1
30.115,4,2,3,6,7,7,9,2
30.12,15,2,6,6,5,2,1,4
30.125,22,1,1,1,2,2,3,1
30.13,1,1,3,0,0,0,0,3
30.135,11,2,2,2,0,0,3,5
30.14,1,1,1,2,0,1,1,7
30.145,2,3,0,3,2,0,5,1
30.15,1,1,2,3,0,1,1,0
30.155,5,1,4,2,3,4,9,3
30.16,10,5,3,4,2,0,0,0
30.165,12,2,1,2,0,3,7,3
30.17,18,1,1,2,1,1,7,8
30.175,4,1,3,3,0,2,3,4
30.18,27,7,3,4,4,2,2,12
30.185,8,3,3,1,3,1,2,6
30.19,15,0,7,2,3,4,10,1
30.195,5,3,5,5,2,1,3,1
30.2,3,3,6,8,5,0,3,5
30.205,10,17,6,4,2,3,7,2
30.21,3,0,1,2,1,1,3,8
30.215,4,1,2,5,1,0,6,2
30.22,2,2,1,3,1,2,7,4
30.225,1,5,1,0,1,0,1,2
30.23,29,2,3,2,0,1,2,3
30.235,22,7,9,5,3,1,4,1
30.24,2,1,2,4,1,0,1,0
30.245,4,1,1,1,1,0,3,9
30.25,0,3,1,3,3,0,1,1
30.255,6,2,3,3,1,3,3,1
30.26,2,1,2,0,0,0,5,3
30.265,8,7,9,7,7,2,2,5
30.27,9,1,1,1,2,3,2,1
30.275,0,2,4,2,0,1,3,3
30.28,5,2,3,4,4,1,1,3
30.285,4,5,2,0,1,3,2,3
30.29,3,1,3,2,1,0,1,3
30.295,8,5,1,0,0,1,2,0
30.3,9,10,3,2,3,2,1,4
30.305,1,0,1,1,3,1,1,1
30.31,6,2,4,6,3,3,4,4
30.315,1,2,1,0,2,0,0,1
30.32,0,5,3,2,4,2,3,3
30.325,0,2,1,1,1,0,1,0
30.33,5,3,3,2,1,1,4,2
30.335,1,2,2,6,7,5,0,1
30.34,3,3,1,3,8,2,0,0
30.345,4,1,5,1,5,3,0,1
30.35,1,2,1,5,4,1,2,2
30.355,1,2,7,30,9,0,2,2
30.36,2,2,10,18,6,0,0,1
30.365,0,3,25,40,5,3,1,2
30.37,2,1,6,7,3,2,1,2
30.375,5,3,10,2,5,4,4,4
30.38,2,1,9,24,3,4,2,3
30.385,1,5,3,4,5,4,2,1
30.39,1,4,8,29,21,11,2,0
30.395,1,1,5,13,0,0,2,0
30.4,2,6,20,48,15,7,4,3
30.405,1,1,16,22,1,4,2,2
30.41,3,2,6,4,6,4,2,4
30.415,3,6,24,9,0,2,0,2
30.42,3,4,11,11,6,1,2,1
30.425,1,2,0,3,1,2,2,2
30.43,0,1,12,0,1,0,1,0
30.435,2,1,0,21,2,1,1,0
30.44,1,2,12,24,6,3,2,0
30.445,2,2,7,21,1,1,1,1
30.45,2,3,15,24,1,1,0,2
30.455,0,0,1,2,3,1,0,0
30.46,1,2,6,6,1,3,1,2
30.465,2,4,8,14,10,5,1,0
30.47,2,4,13,26,1,1,2,2
30.475,1,1,8,10,10,6,2,4
30.48,0,1,2,4,5,4,1,0
30.485,1,1,4,12,2,2,0,2
30.49,0,1,0,4,4,4,1,1
30.495,2,0,6,2,2,2,0,0
30.5,0,1,17,35,2,1,0,1
30.505,0,7,30,33,5,4,2,0
30.51,1,1,2,1,5,2,1,0
30.515,3,5,7,31,7,5,3,3
30.52,3,4,10,11,11,5,3,1
30.525,2,6,11,12,5,0,1,2
30.53,5,6,3,13,7,5,3,4
30.535,2,0,1,3,2,1,0,0
30.54,0,2,5,16,9,6,1,2
30.545,1,2,12,12,2,1,1,1
30.55,1,3,15,7,1,0,2,0
30.555,1,1,13,10,0,1,0,0
30.56,2,2,12,2,1,2,4,1
30.565,2,3,4,7,4,0,1,1
30.57,1,2,5,41,8,2,1,1
30.575,2,1,16,15,7,2,1,0
30.58,1,4,1,5,5,3,1,3
30.585,1,0,6,13,0,3,1,3
30.59,0,2,9,9,1,4,2,1
30.595,0,3,0,2,4,3,0,2
30.6,1,5,11,15,4,2,2,2
30.605,0,2,12,13,3,1,0,0
30.61,2,6,18,13,6,4,3,2
30.615,0,2,14,10,1,0,1,1
30.62,3,1,14,24,1,0,1,2
30.625,2,5,16,17,4,2,1,1
30.63,1,1,5,20,2,2,1,2
30.635,1,2,21,6,0,2,2,0
30.64,2,4,1,12,6,3,2,2
30.645,3,0,12,10,3,2,2,1
30.65,3,2,11,13,3,1,2,3
30.655,0,2,6,12,2,3,1,2
30.66,0,2,10,5,0,0,1,1
30.665,0,2,21,23,1,2,2,1
30.67,2,1,3,6,2,2,1,1
30.675,1,1,7,13,0,0,1,0
30.68,3,3,11,28,2,0,1,1
30.685,2,6,20,35,7,3,1,1
30.69,1,2,2,7,1,2,1,1
30.695,0,1,4,10,2,2,0,0
30.7,3,6,25,48,13,6,3,3
30.705,0,2,11,7,2,0,0,0
30.71,0,1,5,4,2,0,0,0
30.715,4,2,4,18,1,2,1,1
30.72,1,0,4,11,1,0,0,0
30.725,1,2,11,17,1,3,2,6
30.73,0,2,7,10,2,1,0,1
30.735,0,2,19,40,1,1,1,1
30.74,0,1,4,26,2,2,2,1
30.745,1,1,5,20,4,1,0,0
30.75,3,2,4,8,2,0,0,0
30.755,1,1,4,18,3,1,2,2
30.76,1,0,6,5,2,2,3,1
30.765,5,1,1,2,1,1,2,1
30.77,1,2,9,20,0,2,1,2
30.775,2,3,2,4,0,1,1,2
30.78,0,0,6,19,3,2,1,0
30.785,1,2,13,25,1,0,1,2
30.79,2,1,6,4,5,3,2,1
30.795,0,3,12,15,6,4,1,1
30.8,1,0,14,21,7,1,1,1
30.805,1,3,9,3,1,1,0,1
30.81,1,3,8,7,2,1,1,0
30.815,2,0,1,22,0,4,2,1
30.82,2,2,0,15,2,0,2,3
30.825,1,1,13,20,2,2,1,2
30.83,4,3,15,22,6,3,2,2
30.835,3,3,0,7,4,3,1,2
30.84,2,3,9,6,5,2,1,0
30.845,2,3,16,17,5,1,0,1
30.85,0,8,46,40,8,4,3,2
30.855,6,3,9,28,4,2,2,6
30.86,1,0,4,17,3,0,2,0
30.865,3,3,5,8,4,4,4,4
30.87,1,0,9,11,1,0,2,0
30.875,1,1,2,14,1,1,1,0
30.88,1,2,8,21,2,0,1,2
30.885,1,1,6,4,1,1,1,0
30.89,0,1,6,4,1,3,1,0
30.895,2,3,2,5,1,1,2,1
30.9,1,2,1,4,7,2,2,3
30.905,1,4,7,19,1,1,0,1
30.91,1,4,8,8,0,1,0,1
30.915,2,3,5,23,0,3,2,0
30.92,0,0,3,7,1,4,3,1
30.925,0,0,6,3,2,3,1,2
30.93,2,3,5,25,5,5,3,2
30.935,1,1,1,5,1,0,0,0
30.94,1,0,6,14,1,2,0,1
30.945,3,0,1,2,2,4,3,1
30.95,2,0,23,30,1,0,1,2
30.955,3,5,17,6,1,1,0,2
30.96,0,0,1,10,2,0,1,0
30.965,2,0,1,5,2,2,0,1
30.97,0,1,9,6,4,1,1,1
30.975,1,3,3,2,1,2,0,2
30.98,2,2,9,9,0,1,2,1
30.985,1,3,9,11,2,1,0,0
30.99,3,4,9,9,4,0,1,2
30.995,0,2,0,17,6,4,2,1
31,0,4,6,7,4,2,0,0
31.005,1,1,2,22,1,2,1,2
31.01,1,2,1,30,0,1,2,1
31.015,2,3,12,8,4,0,0,1
31.02,0,1,9,3,1,1,1,1
31.025,2,2,2,6,5,5,3,3
31.03,0,2,1,9,2,1,1,0
31.035,3,1,1,0,2,1,2,2
31.04,3,2,7,7,2,3,2,1
31.045,1,0,4,5,1,3,0,1
31.05,1,7,9,11,1,2,1,1
31.055,3,0,4,8,2,1,1,0
31.06,2,3,0,1,3,2,1,2
31.065,2,4,18,29,2,1,1,1
31.07,2,2,31,41,6,2,2,1
31.075,2,6,2,0,4,4,2,2
31.08,1,7,5,7,4,4,1,2
31.085,1,2,3,9,0,0,2,0
31.09,2,3,7,1,2,2,1,1
31.095,0,3,4,18,2,2,1,0
31.1,0,0,12,26,0,2,3,3
31.105,4,8,14,7,4,3,2,2
31.11,0,1,3,2,1,1,0,0
31.115,1,3,7,19,2,0,1,1
31.12,0,2,3,1,1,0,0,0
31.125,2,1,9,10,0,3,1,2
31.13,1,1,14,14,2,0,0,1
31.135,4,6,31,43,8,2,2,1
31.14,0,1,3,7,1,0,1,1
31.145,3,7,11,14,8,4,2,4
31.15,2,0,6,4,1,2,0,2
31.155,1,1,8,17,2,0,0,0
31.16,0,1,3,9,3,1,1,0
31.165,0,3,18,37,6,2,3,2
31.17,1,0,0,9,1,1,2,0
31.175,2,5,6,19,2,1,0,0
31.18,1,2,1,4,0,2,2,2
31.185,1,1,0,18,1,0,1,1
31.19,1,1,3,8,2,4,2,2
31.195,0,0,3,14,2,0,0,1
31.2,2,3,2,6,2,3,3,2
31.205,3,4,5,6,1,1,0,1
31.21,1,1,1,0,1,1,1,0
31.215,0,3,12,7,2,1,0,0
31.22,1,1,3,14,1,2,1,4
31.225,2,4,22,40,8,5,3,1
31.23,4,3,2,1,1,2,1,1
31.235,1,2,5,10,1,0,0,1
31.24,2,0,5,2,1,1,1,1
31.245,2,2,0,6,1,2,2,1
31.25,0,0,7,10,2,1,1,1
31.255,2,5,8,4,4,3,2,2
31.26,2,5,9,3,4,0,1,1
31.265,1,0,10,29,1,1,1,1
31.27,0,4,6,20,2,1,0,0
31.275,1,2,7,27,1,0,3,2
31.28,2,1,6,17,2,2,1,0
31.285,2,1,1,18,0,1,1,0
31.29,2,1,3,4,2,2,0,1
31.295,0,2,0,5,1,0,2,1
31.3,1,4,10,19,4,2,1,1
31.305,2,2,12,12,2,1,0,2
31.31,5,0,4,4,3,1,2,7
31.315,0,2,14,14,3,1,1,1
31.32,3,5,23,32,7,3,3,2
31.325,2,6,4,11,2,2,0,1
31.33,6,3,6,0,3,3,2,1
31.335,6,2,1,2,1,1,1,1
31.34,2,2,9,5,2,1,1,2
31.345,2,3,3,3,0,2,3,2
31.35,4,0,0,0,1,0,1,1
31.355,6,4,1,3,1,2,2,2
31.36,3,1,2,5,2,1,1,1
31.365,1,2,8,1,3,2,1,2
31.37,2,1,4,7,1,0,1,4
31.375,8,2,1,5,2,3,4,9
31.38,5,5,2,2,5,3,2,4
31.385,2,2,1,4,1,1,0,2
31.39,12,4,4,17,3,0,1,1
31.395,8,7,14,12,3,1,0,2
31.4,3,2,0,12,2,1,0,2
31.405,5,0,6,5,1,1,2,2
31.41,4,3,6,8,3,0,2,1
31.415,3,0,2,12,1,2,1,3
31.42,10,2,4,5,0,3,1,3
31.425,2,0,3,2,0,1,1,2
31.43,4,1,2,1,2,2,2,2
31.435,1,6,3,0,3,1,1,3
31.44,8,1,0,1,3,1,1,3
31.445,2,1,1,0,2,1,2,1
31.45,18,6,4,6,5,3,2,3
31.455,4,7,7,0,1,2,1,1
31.46,3,6,7,5,0,2,1,0
31.465,1,3,2,4,1,2,1,2
31.47,11,3,0,5,2,0,1,7
31.475,33,4,5,11,7,3,1,1
31.48,39,0,8,11,1,2,1,4
31.485,6,1,1,1,1,0,2,7
31.49,5,3,1,5,2,0,3,4
31.495,9,4,1,2,1,3,3,10
31.5,4,3,3,1,0,1,3,4
31.505,26,5,6,3,1,1,0,7
31.51,32,7,9,11,5,3,0,9
31.515,13,5,4,5,1,2,5,5
31.52,14,0,6,5,2,1,3,13
31.525,1,7,2,0,3,2,4,14
31.53,40,5,2,1,0,1,7,1
31.535,87,13,11,9,7,10,23,19
31.54,10,9,3,3,1,1,6,14
31.545,8,7,4,1,2,2,1,14
31.55,28,2,3,2,0,2,7,7
31.555,62,5,10,10,4,2,1,14
31.56,19,1,3,1,1,3,6,17
31.565,5,6,0,0,4,3,16,20
31.57,3,6,5,5,2,1,14,20
31.575,11,9,7,6,3,4,4,2
31.58,9,1,1,6,2,5,18,8
31.585,5,3,8,8,5,2,5,0
31.59,14,4,2,0,2,1,4,3
31.595,11,2,2,2,4,6,5,1
31.6,33,6,1,3,2,3,5,3
31.605,55,20,7,3,1,4,3,7
31.61,0,1,4,5,3,5,19,12
31.615,14,7,2,1,3,5,9,5
31.62,5,11,10,11,6,1,0,12
31.625,37,13,9,7,1,3,11,2
31.63,10,5,8,10,3,1,8,0
31.635,6,1,5,2,0,0,1,2
31.64,2,2,1,4,0,2,2,1
31.645,9,4,7,4,3,0,2,11
31.65,29,3,5,1,5,4,16,22
31.655,43,4,7,6,3,8,12,10
31.66,21,0,3,5,4,5,3,10
31.665,25,8,3,2,2,2,4,7
31.67,30,2,1,0,1,2,0,2
31.675,14,3,4,0,0,1,15,9
31.68,22,0,1,2,2,1,3,3
31.685,16,4,3,4,1,0,10,3
31.69,0,1,2,2,2,1,1,0
31.695,19,4,6,3,3,5,5,7
31.7,6,13,4,2,1,2,3,7
31.705,22,1,1,2,1,3,0,1
31.71,28,4,3,1,2,2,9,5
31.715,16,4,3,2,0,2,5,9
31.72,12,0,1,1,1,1,6,1
31.725,10,1,1,0,2,1,9,3
31.73,17,1,0,2,1,3,9,4
31.735,24,2,0,5,5,6,13,10
31.74,19,1,3,3,1,3,1,7
31.745,18,3,1,0,3,1,6,2
31.75,18,5,2,1,1,1,6,4
31.755,6,0,5,4,1,0,4,5
31.76,11,3,0,3,2,1,4,4
31.765,4,5,3,2,3,5,7,1
31.77,5,3,2,0,3,3,4,5
31.775,1,4,5,5,4,3,0,1
31.78,13,0,1,1,5,1,2,6
31.785,1,1,6,3,1,0,4,2
31.79,4,3,5,5,3,1,2,9
31.795,18,4,6,4,5,3,6,6
31.8,13,5,14,11,7,3,0,8
31.805,1,3,2,1,2,2,4,3
31.81,20,7,6,5,1,2,3,0
31.815,2,2,2,2,2,3,3,0
31.82,11,1,5,5,1,1,3,1
31.825,7,5,7,2,3,4,10,1
31.83,2,4,4,1,0,1,4,1
31.835,24,4,0,4,1,1,2,3
31.84,1,3,2,6,2,0,1,2
31.845,16,5,5,4,1,1,1,2
31.85,41,4,1,3,3,1,1,1
31.855,6,4,7,2,3,1,1,3
31.86,10,1,1,1,2,1,5,2
31.865,6,3,10,5,3,3,4,5
31.87,4,3,1,1,4,4,1,1
31.875,4,4,4,1,1,0,1,4
31.88,10,4,4,1,0,0,3,4
31.885,7,1,3,2,2,3,3,1
31.89,4,6,6,0,2,1,3,3
31.895,3,1,3,0,1,0,1,2
31.9,11,6,5,4,3,1,1,0
31.905,6,3,3,2,2,1,1,0
31.91,1,3,4,3,2,1,2,1
31.915,1,1,2,4,1,0,1,0
31.92,4,4,5,0,3,2,2,2
31.925,3,1,2,0,3,1,0,1
31.93,1,0,3,1,2,3,3,2
31.935,3,8,7,8,5,2,2,1
31.94,2,5,1,3,2,2,1,2
31.945,10,5,8,7,5,3,3,4
31.95,5,1,2,1,0,1,0,0
31.955,1,0,5,5,3,1,0,2
31.96,0,1,2,4,0,0,2,0
31.965,1,1,2,2,2,3,1,2
31.97,3,8,10,6,1,0,0,1
31.975,1,2,2,0,3,3,1,1
31.98,4,2,1,2,1,1,0,1
31.985,2,1,7,6,1,3,1,1
31.99,2,2,1,3,4,4,2,2
31.995,1,1,2,7,2,1,0,1
32,0,6,14,12,2,3,1,3
32.005,2,0,1,3,2,2,0,0
32.01,2,9,26,35,2,3,1,1
32.015,1,1,2,10,9,4,1,1
32.02,1,3,12,8,1,0,1,1
32.025,0,3,5,5,3,1,0,0
32.03,2,1,3,10,3,1,1,1
32.035,2,4,3,2,3,2,2,1
32.04,1,2,3,6,1,2,1,1
32.045,4,4,17,8,2,6,2,3
32.05,1,2,7,0,0,0,1,0
32.055,2,2,1,12,1,1,2,1
32.06,1,0,6,4,0,2,0,3
32.065,1,1,2,9,0,0,1,1
32.07,4,7,10,11,11,6,3,4
32.075,1,1,4,1,9,4,2,1
32.08,0,2,5,11,1,0,0,1
32.085,1,2,10,16,5,1,0,1
32.09,1,3,0,8,6,6,3,3
32.095,1,6,2,16,8,5,3,1
32.1,1,5,3,4,4,2,0,0
32.105,2,1,0,9,2,1,1,1
32.11,0,2,3,9,3,1,0,0
32.115,2,5,6,16,6,3,2,2
32.12,1,4,13,7,4,1,1,2
32.125,2,2,7,23,2,1,0,1
32.13,3,3,17,28,9,3,1,3
32.135,3,8,6,6,3,4,4,2
32.14,6,7,12,24,6,6,4,4
32.145,1,4,15,8,5,1,0,0
32.15,1,4,5,23,8,3,0,2
32.155,1,4,0,4,1,1,0,1
32.16,2,3,7,28,12,6,2,4
32.165,0,1,5,3,1,1,0,0
32.17,0,1,13,3,2,1,2,2
32.175,3,7,28,18,9,3,2,2
32.18,0,1,7,19,0,1,1,1
32.185,2,4,2,4,2,1,2,2
32.19,1,2,4,13,4,1,1,0
32.195,4,8,15,39,6,5,3,3
32.2,0,1,2,15,4,4,0,0
32.205,4,7,19,15,10,7,3,2
32.21,2,2,20,26,5,1,2,2
32.215,1,1,2,12,1,1,1,2
32.22,1,3,17,16,7,4,3,2
32.225,1,1,7,10,0,2,2,0
32.23,1,3,1,4,6,1,3,2
32.235,1,4,6,9,2,0,2,1
32.24,2,3,3,7,8,5,3,2
32.245,2,3,1,9,3,4,3,2
32.25,1,1,2,0,0,1,0,1
32.255,3,3,5,11,0,1,1,3
32.26,1,0,3,25,5,2,1,1
32.265,2,1,8,25,1,0,2,2
32.27,1,0,8,20,3,0,0,0
32.275,2,2,26,46,7,4,0,3
32.28,1,2,1,2,3,1,1,1
32.285,0,0,1,17,2,2,1,0
32.29,5,9,24,54,11,6,4,5
32.295,1,4,29,32,8,3,1,1
32.3,2,6,23,6,7,6,3,3
32.305,2,6,13,22,7,3,2,4
32.31,0,2,3,12,1,0,0,0
32.315,0,2,11,29,0,2,0,2
32.32,0,0,5,21,2,2,1,0
32.325,1,2,5,1,1,0,0,1
32.33,1,5,6,4,5,2,1,1
32.335,1,3,27,22,4,2,2,2
32.34,3,7,9,34,3,3,3,1
32.345,0,3,7,1,2,1,0,0
32.35,1,1,8,1,2,1,0,2
32.355,0,1,3,24,1,0,1,0
32.36,2,3,20,57,6,2,1,0
32.365,4,7,22,45,11,5,3,3
32.37,3,8,17,30,6,4,1,2
32.375,0,5,11,27,5,1,1,1
32.38,1,3,13,22,3,3,2,3
32.385,2,1,18,30,5,2,2,2
32.39,1,2,12,16,0,1,1,4
32.395,3,5,6,5,4,3,1,3
32.4,1,3,1,17,3,3,1,2
32.405,1,1,6,11,1,2,1,1
32.41,0,6,9,11,4,3,1,1
32.415,1,1,5,14,1,2,1,1
32.42,1,1,12,23,4,3,0,0
32.425,2,3,6,5,3,3,0,2
32.43,1,2,2,1,1,0,1,2
32.435,0,1,4,3,1,0,0,1
32.44,5,11,16,27,11,5,2,3
32.445,0,0,2,10,2,0,1,1
32.45,1,1,4,8,0,1,1,1
32.455,3,0,19,30,2,2,3,2
32.46,0,1,7,0,1,1,0,1
32.465,3,3,6,21,6,4,3,2
32.47,2,4,2,10,4,1,1,1
32.475,1,3,6,25,3,2,2,2
32.48,4,3,17,16,6,4,2,4
32.485,0,1,7,1,1,0,1,1
32.49,0,2,4,2,0,1,0,1
32.495,2,3,6,1,1,0,1,1
32.5,2,5,3,11,1,2,2,4
32.505,2,1,0,4,2,3,1,0
32.51,0,1,4,4,4,2,0,2
32.515,1,2,7,13,2,0,1,2
32.52,1,1,7,32,6,3,2,1
32.525,2,1,8,14,0,2,1,1
32.53,0,1,6,26,1,2,1,0
32.535,2,1,8,7,2,3,1,3
32.54,1,0,19,3,4,3,1,0
32.545,2,1,8,21,1,2,3,2
32.55,3,1,5,1,1,1,0,2
32.555,1,1,1,0,0,2,2,1
32.56,2,4,6,0,2,2,2,0
32.565,0,1,4,5,0,0,1,1
32.57,4,5,3,8,4,3,3,0
32.575,0,1,9,21,3,1,0,1
32.58,1,2,13,0,1,1,3,1
32.585,2,3,0,24,1,1,1,1
32.59,3,2,2,29,9,3,3,1
32.595,1,1,18,15,1,2,0,0
32.6,1,0,5,12,1,0,1,0
32.605,0,1,4,19,3,3,0,3
32.61,2,2,10,3,5,3,1,0
32.615,1,2,8,4,4,3,1,0
32.62,1,3,7,14,3,1,1,1
32.625,2,1,3,11,1,0,1,1
32.63,3,3,12,6,2,1,0,3
32.635,0,0,1,3,1,4,1,1
32.64,0,1,12,14,2,0,1,1
32.645,1,0,14,36,3,0,1,1
32.65,2,0,6,21,1,1,3,2
32.655,2,2,8,19,5,1,2,0
32.66,3,0,3,5,0,1,1,0
32.665,1,1,0,9,1,0,0,0
32.67,0,1,7,11,1,1,0,0
32.675,0,2,10,8,2,1,1,1
32.68,1,0,3,4,0,2,0,1
32.685,2,2,2,10,3,1,0,1
32.69,1,4,5,0,4,5,3,1
32.695,3,2,3,8,1,1,2,2
32.7,1,0,4,7,1,0,1,1
32.705,1,2,3,11,1,2,1,0
32.71,0,1,3,4,0,1,1,1
32.715,2,1,2,9,1,1,1,1
32.72,1,2,0,0,2,2,1,0
32.725,1,0,5,2,2,0,3,1
32.73,2,5,22,9,5,4,1,3
32.735,2,3,4,30,5,2,2,1
32.74,1,1,9,3,0,0,1,0
32.745,1,1,9,20,2,2,1,2
32.75,3,4,2,9,2,3,1,1
32.755,1,1,9,19,2,0,1,2
32.76,2,1,4,2,1,2,1,0
32.765,2,0,10,22,2,1,0,1
32.77,0,3,4,7,0,1,1,0
32.775,1,1,8,17,1,0,0,1
32.78,3,6,18,26,5,2,1,3
32.785,0,3,3,1,2,2,1,1
32.79,1,3,9,16,3,0,0,2
32.795,2,1,16,21,1,2,0,1
32.8,2,2,2,6,3,1,4,2
32.805,3,2,8,4,0,3,1,1
32.81,2,4,1,1,0,0,1,1
32.815,1,0,3,9,1,1,1,0
32.82,0,1,10,9,1,2,0,0
32.825,1,1,4,5,1,1,0,1
32.83,1,1,1,1,0,1,1,1
32.835,1,0,7,2,0,0,4,1
32.84,1,4,1,12,5,2,1,0
32.845,1,5,8,23,7,4,3,1
32.85,4,1,6,7,0,2,1,3
32.855,0,4,10,0,2,1,1,0
32.86,2,1,7,8,1,2,1,1
32.865,0,2,4,3,2,0,2,1
32.87,1,1,2,8,0,0,1,1
32.875,3,4,0,5,1,1,0,2
32.88,1,0,1,2,0,1,1,1
32.885,2,1,1,2,2,0,0,1
32.89,1,3,1,1,2,1,1,1
32.895,2,4,10,3,1,1,1,1
32.9,2,1,1,0,4,3,1,0
32.905,4,1,0,7,4,0,1,3
32.91,13,3,2,3,4,1,2,2
32.915,2,2,5,8,1,1,2,2
32.92,2,2,4,2,0,0,0,1
32.925,2,0,1,0,3,3,3,0
32.93,3,0,3,6,0,1,0,0
32.935,2,4,4,7,2,1,2,2
32.94,0,1,1,4,1,1,1,0
32.945,2,1,2,9,2,0,0,3
32.95,2,1,1,9,1,2,2,1
32.955,1,1,8,16,9,5,2,3
32.96,5,3,0,3,3,2,2,3
32.965,4,1,1,2,3,3,2,6
32.97,3,7,5,7,2,1,1,1
32.975,1,3,7,0,1,1,2,0
32.98,3,3,4,5,1,1,2,2
32.985,1,0,0,2,2,0,0,1
32.99,2,0,5,7,4,2,3,1
32.995,2,2,1,3,0,0,1,1
33,2,4,1,2,0,3,2,1
33.005,4,3,4,1,5,3,4,3
33.01,0,11,3,0,1,1,1,1
33.015,1,5,0,5,1,2,2,1
33.02,1,2,1,1,1,2,2,2
33.025,0,3,6,2,0,0,0,1
33.03,1,4,7,3,0,1,0,0
33.035,2,4,2,1,0,3,3,2
33.04,2,3,1,0,1,2,1,2
33.045,3,2,5,7,5,2,2,2
33.05,3,2,0,2,1,1,1,5
33.055,3,2,0,2,0,1,0,0
33.06,0,5,11,7,2,2,3,4
33.065,3,9,4,8,2,0,2,0
33.07,1,5,22,25,4,1,1,3
33.075,3,2,1,6,7,3,2,2
33.08,9,5,2,1,0,2,1,0
33.085,4,2,2,3,0,1,2,0
33.09,4,3,9,9,2,1,4,4
33.095,14,11,7,3,5,3,4,7
33.1,3,2,3,4,1,1,3,7
33.105,6,3,4,5,1,1,2,0
33.11,9,1,3,3,4,5,4,1
33.115,25,0,0,1,2,1,2,1
33.12,8,1,2,2,1,3,5,12
33.125,8,6,8,10,6,2,0,3
33.13,1,2,0,6,2,0,6,7
33.135,27,1,1,7,5,3,6,21
33.14,16,4,1,4,0,0,2,7
33.145,5,1,4,4,1,5,14,12
33.15,7,3,10,9,8,3,8,4
33.155,34,5,2,1,1,0,6,17
33.16,13,3,2,1,1,4,9,7
33.165,1,3,7,1,2,1,6,11
33.17,39,4,8,4,2,2,11,26
33.175,55,10,10,5,2,5,13,21
33.18,14,11,1,0,2,6,11,10
33.185,21,12,5,3,1,3,8,7
33.19,17,5,5,1,3,5,10,13
33.195,17,4,6,5,1,1,3,4
33.2,15,9,4,4,3,4,9,4
33.205,9,12,8,12,5,1,3,14
33.21,3,3,1,4,3,2,9,11
33.215,36,3,1,2,1,0,3,5
33.22,38,1,1,4,5,6,8,24
33.225,58,9,1,1,1,2,10,28
33.23,34,9,8,4,3,3,8,6
33.235,30,8,5,1,2,1,8,18
33.24,34,2,2,3,1,4,10,20
33.245,36,12,12,12,5,3,0,7
33.25,10,3,3,1,2,6,7,14
33.255,33,9,3,0,2,2,7,3
33.26,23,3,6,2,2,2,4,3
33.265,31,7,2,1,0,2,1,8
33.27,19,6,4,5,2,1,6,16
33.275,55,8,2,1,1,1,2,4
33.28,14,3,0,4,2,0,7,5
33.285,32,6,9,1,4,8,14,3
33.29,28,3,8,4,2,0,2,17
33.295,14,9,1,1,2,3,9,10
33.3,10,22,11,8,8,4,7,23
33.305,16,11,3,4,1,3,15,1
33.31,12,10,2,3,2,1,2,10
33.315,17,6,0,4,5,3,2,4
33.32,4,3,3,0,2,1,6,14
33.325,13,3,2,1,0,1,3,1
33.33,4,4,1,2,3,2,5,10
33.335,5,5,0,2,1,1,0,1
33.34,13,14,2,4,3,3,1,7
33.345,51,3,6,2,3,3,2,5
33.35,2,1,7,4,1,1,1,0
33.355,3,5,0,1,2,1,4,7
33.36,12,8,1,1,0,1,2,11
33.365,25,5,2,2,1,2,3,14
33.37,10,1,2,3,2,0,1,5
33.375,17,3,5,5,3,0,3,3
33.38,12,8,1,2,0,2,2,4
33.385,8,4,5,4,4,2,3,7
33.39,9,1,1,1,0,2,3,3
33.395,12,0,2,3,2,1,1,4
33.4,24,4,1,2,0,3,3,8
33.405,6,3,1,1,2,1,4,3
33.41,3,4,9,6,3,4,5,2
33.415,1,0,4,5,2,1,4,8
33.42,1,4,4,5,2,2,1,1
33.425,11,3,2,6,2,2,1,8
33.43,7,3,9,6,3,1,1,0
33.435,17,7,5,5,3,3,7,2
33.44,26,5,7,3,1,1,2,3
33.445,30,1,1,3,1,1,2,5
33.45,7,0,7,3,1,1,5,5
33.455,10,10,7,4,0,1,2,2
33.46,10,1,1,1,1,1,1,4
33.465,5,0,2,3,1,1,4,9
33.47,3,4,5,4,1,1,1,7
33.475,12,3,4,3,7,4,2,8
33.48,4,1,1,2,1,4,1,3
33.485,11,2,2,1,0,1,1,5
33.49,9,6,8,5,0,1,1,1
33.495,19,3,4,2,0,0,2,1
33.5,9,10,8,6,5,3,2,2
33.505,0,7,7,5,3,5,3,3
33.51,12,3,3,5,3,2,0,0
33.515,10,10,2,1,1,1,2,3
33.52,2,3,3,1,1,0,0,1
33.525,0,0,3,3,2,1,3,1
33.53,2,1,1,1,1,1,1,2
33.535,6,0,4,2,4,2,3,2
33.54,7,4,2,3,2,1,1,1
33.545,11,3,0,5,3,2,0,1
33.55,5,2,3,4,1,0,1,3
33.555,0,2,3,2,0,3,0,3
33.56,2,7,5,2,4,4,3,2
33.565,1,3,3,4,2,1,0,1
33.57,3,4,3,2,5,0,1,0
33.575,1,1,1,3,2,1,1,0
33.58,0,3,10,25,4,0,1,0
33.585,2,2,14,31,12,2,2,3
33.59,2,5,7,8,1,2,2,2
33.595,3,0,2,1,1,1,1,1
33.6,1,2,3,3,3,3,0,1
33.605,1,1,5,12,1,3,2,3
33.61,3,2,3,1,4,3,3,1
33.615,0,5,10,0,1,1,1,1
33.62,0,3,5,0,2,1,1,1
33.625,0,3,8,5,4,1,1,0
33.63,1,0,3,1,4,2,1,1
33.635,2,1,9,1,1,4,1,3
33.64,4,6,9,10,1,1,1,2
33.645,1,2,1,8,1,2,2,1
33.65,1,0,5,3,8,2,0,0
33.655,0,6,3,6,4,1,1,1
33.66,1,2,8,14,1,2,1,1
33.665,3,2,12,32,10,3,1,0
33.67,1,1,3,18,4,3,4,2
33.675,0,2,14,24,7,1,1,1
33.68,1,5,15,19,7,4,4,2
33.685,0,2,8,0,2,1,1,1
33.69,3,2,6,9,2,0,1,0
33.695,0,0,2,10,5,3,3,1
33.7,0,3,8,17,2,0,0,1
33.705,1,2,0,5,5,3,2,3
33.71,1,4,13,22,5,1,1,1
33.715,2,5,9,2,4,5,2,3
33.72,2,3,4,0,1,2,1,1
33.725,2,2,2,13,2,1,1,0
33.73,2,2,10,6,2,2,1,2
33.735,0,1,13,5,2,1,0,1
33.74,1,1,5,2,0,0,0,1
33.745,4,7,18,34,7,5,3,5
33.75,1,3,11,0,9,3,1,2
33.755,1,6,34,62,6,1,0,1
33.76,6,11,48,56,13,8,7,5
33.765,1,8,15,8,7,2,2,1
33.77,1,3,20,21,4,2,1,1
33.775,1,4,23,2,2,2,0,1
33.78,2,6,30,33,3,1,2,1
33.785,0,0,7,10,0,1,0,2
33.79,1,0,9,2,1,1,2,0
33.795,0,3,36,13,0,0,0,1
33.8,3,3,6,6,2,1,1,1
33.805,4,6,6,4,1,1,1,1
33.81,0,1,2,0,6,3,0,1
33.815,1,0,16,14,0,1,1,0
33.82,0,0,9,15,5,4,3,2
33.825,1,2,4,17,4,0,0,1
33.83,1,6,9,0,5,2,0,0
33.835,2,3,10,22,5,2,1,3
33.84,1,2,14,4,2,1,1,2
33.845,1,0,11,5,0,0,2,0
33.85,0,0,3,3,6,1,0,0
33.855,3,0,1,15,1,2,3,1
33.86,1,2,1,4,3,2,0,0
33.865,1,2,13,1,0,1,0,2
33.87,2,2,9,1,11,6,5,5
33.875,0,4,16,21,1,0,1,1
33.88,0,5,15,31,3,1,1,0
33.885,1,1,4,1,3,4,3,2
33.89,2,4,10,11,0,1,0,1
33.895,1,5,18,4,1,2,1,1
33.9,1,3,10,13,7,4,4,1
33.905,1,1,5,9,0,0,1,0
33.91,3,6,9,2,4,5,3,2
33.915,1,2,3,13,4,2,1,1
33.92,1,2,10,3,2,0,2,1
33.925,2,4,13,6,2,3,1,1
33.93,3,1,16,4,1,1,2,2
33.935,4,4,13,15,8,2,2,2
33.94,0,5,13,23,8,4,1,1
33.945,4,1,9,5,2,2,1,4
33.95,0,3,1,3,0,3,1,2
33.955,2,4,9,18,4,1,0,0
33.96,3,3,2,5,1,0,4,1
33.965,0,1,4,12,2,0,2,0
33.97,0,0,2,6,1,0,0,0
33.975,0,1,1,12,2,0,1,2
33.98,3,1,12,15,6,4,2,1
33.985,1,0,1,1,2,3,2,0
33.99,1,5,14,8,1,1,0,1
33.995,1,2,14,27,3,0,1,0
34,0,5,4,28,1,0,2,2
34.005,2,1,9,16,2,1,0,1
34.01,0,0,2,19,1,0,0,2
34.015,0,1,2,2,1,1,1,1
34.02,1,4,0,13,2,3,1,1
34.025,0,0,12,21,2,4,3,3
34.03,1,5,7,7,6,2,1,0
34.035,3,4,7,5,0,0,0,3
34.04,1,1,8,4,1,1,0,1
34.045,1,3,1,8,2,0,0,1
34.05,2,2,13,17,1,2,1,1
34.055,1,0,1,14,4,2,2,1
34.06,1,2,6,25,4,2,1,3
34.065,0,1,8,8,2,2,0,1
34.07,1,1,5,1,1,2,0,0
34.075,4,8,27,22,10,6,6,5
34.08,2,1,6,22,5,3,2,2
34.085,1,3,9,7,3,3,1,2
34.09,1,2,4,2,0,1,1,4
34.095,1,2,2,16,2,0,1,0
34.1,2,5,2,0,1,4,2,3
34.105,4,5,11,4,6,3,2,1
34.11,1,1,2,2,2,0,1,0
34.115,0,1,4,2,2,1,1,0
34.12,2,1,3,2,4,3,1,0
34.125,1,3,8,15,3,1,0,0
34.13,0,1,7,11,0,0,2,0
34.135,0,2,3,16,0,4,2,2
34.14,2,10,11,5,4,3,0,1
34.145,2,2,3,17,1,1,1,0
34.15,1,4,10,5,2,1,1,1
34.155,1,3,10,15,1,0,1,2
34.16,0,3,4,5,0,1,1,1
34.165,1,0,4,5,3,0,1,2
34.17,1,1,10,14,1,1,2,0
34.175,1,1,0,1,1,1,0,0
34.18,0,2,1,5,0,2,0,0
34.185,1,3,3,4,5,3,1,2
34.19,2,1,3,5,1,0,1,2
34.195,0,2,2,5,3,1,2,2
34.2,1,0,1,1,1,1,1,1
34.205,1,1,8,6,0,1,1,1
34.21,2,4,14,7,5,4,3,1
34.215,0,2,0,13,2,1,0,2
34.22,1,6,17,43,6,2,3,3
34.225,1,1,5,6,2,2,0,1
34.23,4,2,5,12,2,3,3,2
34.235,3,1,2,9,0,1,1,1
34.24,2,6,1,8,2,2,1,1
34.245,0,4,12,20,4,2,1,1
34.25,0,2,3,3,1,0,0,0
34.255,1,6,9,14,3,2,2,1
34.26,1,1,12,7,4,1,0,0
34.265,1,0,2,17,2,3,2,2
34.27,2,8,17,25,3,2,1,2
34.275,0,0,4,1,2,2,3,3
34.28,1,3,6,2,6,1,1,0
34.285,1,1,4,1,3,0,0,1
34.29,1,2,7,9,2,2,1,0
34.295,1,2,1,9,1,0,1,1
34.3,2,6,5,7,3,2,2,2
34.305,3,2,4,1,6,2,2,1
34.31,1,3,23,23,1,1,1,1
34.315,4,6,10,14,7,3,1,2
34.32,1,3,8,15,3,1,0,0
34.325,0,1,7,10,0,1,1,1
34.33,1,0,13,6,0,2,2,1
34.335,2,3,5,1,3,3,1,1
34.34,2,2,1,11,2,2,3,2
34.345,2,1,5,12,2,1,0,2
34.35,1,1,2,0,2,0,0,1
34.355,0,1,5,12,0,0,2,1
34.36,1,2,1,7,2,2,2,1
34.365,2,4,1,9,0,1,1,0
34.37,0,2,12,5,1,0,0,2
34.375,2,4,16,9,1,1,0,0
34.38,2,4,8,16,5,2,2,1
34.385,1,1,0,9,0,0,1,1
34.39,1,3,2,25,0,4,0,1
34.395,0,3,3,21,1,1,1,0
34.4,2,2,1,6,4,3,3,3
34.405,0,0,8,24,0,3,1,2
34.41,0,3,11,36,0,2,2,1
34.415,2,2,1,1,3,2,1,0
34.42,0,3,2,11,2,0,1,1
34.425,1,2,2,7,2,4,2,2
34.43,2,4,12,18,5,1,0,2
34.435,1,3,17,18,4,1,1,0
34.44,2,2,11,8,0,1,1,1
34.445,2,1,5,6,0,1,0,1
34.45,1,2,4,9,1,2,1,2
34.455,0,4,0,7,2,0,2,3
34.46,1,1,4,1,1,3,0,0
34.465,1,1,4,2,0,0,0,3
34.47,1,0,5,5,3,2,0,0
34.475,2,2,6,2,2,0,0,0
34.48,1,2,1,1,1,1,2,0
34.485,2,4,0,4,5,4,2,3
34.49,4,1,6,6,0,2,2,4
34.495,3,0,1,2,2,2,3,8
34.5,4,0,3,5,3,1,0,2
34.505,16,3,1,3,2,3,0,0
34.51,8,3,5,4,1,2,4,6
34.515,5,2,1,2,1,0,3,12
34.52,5,1,1,2,1,2,2,6
34.525,29,1,3,3,4,1,1,6
34.53,15,1,1,0,1,1,4,10
34.535,1,4,5,7,7,5,5,6
34.54,2,6,6,4,3,0,1,6
34.545,13,5,3,6,1,0,2,10
34.55,3,1,8,10,4,3,2,2
34.555,13,1,3,2,3,3,4,8
34.56,27,0,2,0,1,2,0,6
34.565,40,10,6,4,4,2,1,3
34.57,12,1,4,4,1,2,1,0
34.575,20,4,6,4,6,3,4,7
34.58,4,1,1,2,1,1,1,0
34.585,1,4,0,1,0,0,0,6
34.59,9,1,1,2,1,2,1,11
34.595,16,5,4,5,7,6,2,5
34.6,34,4,3,4,3,1,1,12
34.605,14,1,6,9,4,1,4,5
34.61,26,3,1,1,1,1,2,1
34.615,38,2,2,2,1,1,1,2
34.62,10,1,1,1,2,1,4,1
34.625,47,12,4,1,4,3,3,2
34.63,73,24,12,11,9,7,3,2
34.635,33,11,6,5,2,0,2,11
34.64,16,7,2,2,5,4,4,8
34.645,1,2,5,6,3,2,3,3
34.65,0,1,4,1,0,4,16,6
34.655,2,1,3,0,2,1,12,9
34.66,24,0,1,3,1,2,2,2
34.665,24,10,5,2,2,2,11,5
34.67,50,15,13,10,5,1,8,4
34.675,17,2,3,8,7,5,11,2
34.68,23,6,1,2,1,5,6,2
34.685,13,1,1,0,0,1,3,20
34.69,15,2,3,2,1,6,13,42
34.695,23,9,6,6,5,4,12,33
34.7,18,11,0,3,3,4,12,19
34.705,6,12,8,6,8,8,3,16
34.71,7,2,0,0,2,6,0,3
34.715,5,5,4,1,1,2,4,15
34.72,30,0,1,1,2,2,7,9
34.725,10,5,4,1,3,0,9,14
34.73,54,15,3,3,0,1,1,8
34.735,40,7,2,0,2,2,7,5
34.74,44,13,6,2,1,3,9,5
34.745,12,4,4,3,1,2,5,14
34.75,23,1,10,7,5,4,9,3
34.755,5,6,2,2,2,1,9,6
34.76,26,2,3,0,3,1,11,8
34.765,2,1,3,4,3,5,8,1
34.77,24,9,4,6,5,5,1,6
34.775,7,9,6,0,2,2,3,13
34.78,58,5,0,0,0,0,2,17
34.785,24,4,6,8,5,5,12,17
34.79,6,3,4,5,2,3,25,19
34.795,34,25,15,10,7,5,2,13
34.8,1,9,8,3,4,2,6,20
34.805,2,10,3,5,6,9,18,8
34.81,4,8,6,5,2,2,3,6
34.815,6,7,8,4,3,0,2,7
34.82,20,3,0,3,3,0,3,10
34.825,12,1,1,0,1,2,1,4
34.83,4,3,1,1,6,9,1,9
34.835,5,1,0,0,1,5,5,1
34.84,3,3,11,7,1,0,1,2
34.845,15,4,11,7,0,1,2,2
34.85,25,4,0,3,1,4,3,2
34.855,16,2,4,1,2,2,2,0
34.86,23,7,1,0,0,1,3,1
34.865,60,4,0,2,1,3,0,2
34.87,1,4,4,3,1,0,1,6
34.875,17,8,1,2,1,2,1,1
34.88,18,9,2,3,0,2,4,7
34.885,8,3,1,0,5,4,3,4
34.89,10,1,5,2,3,4,5,6
34.895,3,6,4,1,1,0,1,4
34.9,12,2,7,7,6,4,0,0
34.905,1,2,2,0,1,1,2,2
34.91,2,0,1,2,0,2,2,11
34.915,10,3,8,6,3,0,2,3
34.92,1,1,1,2,1,3,6,5
34.925,26,8,3,4,2,3,1,3
34.93,17,1,4,7,3,5,5,12
34.935,36,1,2,4,2,4,6,8
34.94,2,5,8,5,3,2,11,0
34.945,12,1,4,1,0,1,7,1
34.95,1,10,7,4,4,3,2,2
34.955,2,2,7,5,0,4,7,1
34.96,10,2,0,0,2,1,3,2
34.965,23,1,1,2,0,2,6,20
34.97,26,4,0,3,0,2,10,11
34.975,42,7,7,1,1,4,7,2
34.98,4,3,10,10,8,1,3,8
34.985,50,6,6,1,3,3,6,1
34.99,0,0,1,1,0,2,6,1
34.995,4,1,1,1,2,1,2,2
35,5,1,3,2,3,1,1,2
35.005,9,1,0,0,2,2,4,4
35.01,11,3,3,1,0,2,0,3
35.015,31,6,4,1,3,0,4,0
35.02,0,2,2,0,1,3,6,6
35.025,13,4,7,4,4,2,0,0
35.03,4,4,5,2,4,2,1,2
35.035,3,5,4,3,3,2,3,2
35.04,0,1,2,4,1,1,1,2
35.045,8,3,5,0,1,1,1,3
35.05,2,1,6,4,3,3,2,1
35.055,7,2,4,5,3,2,1,3
35.06,9,3,1,6,6,5,1,4
35.065,5,0,2,1,1,2,2,2
35.07,2,6,7,2,0,0,0,2
35.075,4,2,1,3,0,0,1,1
35.08,2,5,4,0,1,0,0,1
35.085,11,0,3,1,0,1,1,4
35.09,3,3,1,3,3,2,3,2
35.095,4,5,8,3,1,1,1,1
35.1,1,5,5,1,1,2,3,1
35.105,1,0,1,1,1,1,1,0
35.11,5,4,2,0,1,1,1,1
35.115,3,5,2,2,2,0,1,1
35.12,4,5,8,4,0,0,1,1
35.125,2,2,1,1,0,0,0,1
35.13,3,0,7,4,2,2,3,1
35.135,2,0,0,0,0,1,1,0
35.14,0,0,2,2,1,0,1,0
35.145,2,2,8,4,3,3,1,3
35.15,2,2,2,1,4,2,2,1
35.155,6,6,9,6,3,1,1,2
35.16,2,2,4,11,0,3,2,0
35.165,1,1,3,3,0,1,0,2
35.17,3,4,1,12,4,1,1,2
35.175,2,2,1,0,0,1,1,1
35.18,4,11,12,20,6,3,2,5
35.185,2,1,1,2,2,2,2,1
35.19,1,3,8,14,1,2,2,0
35.195,4,1,0,7,0,1,1,3
35.2,2,1,2,5,2,1,1,0
35.205,0,2,5,10,0,3,2,2
35.21,2,2,1,0,5,2,0,0
35.215,2,2,2,5,1,0,1,1
35.22,2,3,1,8,1,1,1,0
35.225,1,0,1,8,3,3,2,0
35.23,0,1,11,35,4,0,3,2
35.235,1,2,12,18,2,3,2,0
35.24,2,2,16,20,1,0,1,1
35.245,1,1,2,4,4,4,2,1
35.25,1,1,5,3,0,1,1,0
35.255,1,1,4,7,5,1,3,3
35.26,1,2,7,4,4,1,1,0
35.265,5,10,12,9,6,4,3,3
35.27,0,3,3,13,5,3,2,1
35.275,1,3,13,20,4,2,1,2
35.28,1,1,7,16,1,1,0,2
35.285,1,2,3,2,2,2,1,0
35.29,0,2,2,8,4,0,2,2
35.295,4,4,4,5,7,5,4,3
35.3,1,2,4,8,4,0,0,0
35.305,1,1,3,2,4,2,0,0
35.31,2,0,1,4,2,1,2,3
35.315,1,2,1,13,6,5,2,1
35.32,2,1,2,27,0,2,2,3
35.325,2,7,10,2,0,2,0,3
