10.505,2,2,3,3,0,0,1,1
10.51,1,2,2,0,1,2,1,1
10.515,3,4,4,5,2,1,0,1
10.52,2,0,0,3,3,2,1,0
10.525,0,1,1,2,2,1,0,1
10.53,1,1,2,3,1,1,0,1
10.535,2,0,0,0,1,1,1,0
10.54,1,1,0,2,3,0,1,2
10.545,2,1,2,2,3,2,3,1
10.55,1,2,3,3,4,2,2,2
10.555,0,1,1,2,2,0,0,3
10.56,1,0,0,5,3,1,0,1
10.565,1,1,2,2,1,2,1,0
10.57,2,4,3,1,3,2,1,0
10.575,1,1,0,4,0,3,2,0
10.58,3,3,0,5,4,3,2,0
10.585,1,1,1,1,1,1,0,2
10.59,2,2,3,2,0,2,1,1
10.595,0,0,0,2,1,1,1,0
10.6,1,1,1,1,1,3,0,2
10.605,0,2,0,2,2,1,1,0
10.61,1,3,0,2,1,1,0,1
10.615,2,1,0,1,1,1,1,1
10.62,1,0,1,1,4,2,2,1
10.625,2,1,1,0,1,1,2,1
10.63,2,1,3,1,1,4,2,4
10.635,1,1,2,2,3,0,1,0
10.64,1,1,2,4,3,2,2,1
10.645,1,3,1,4,5,3,1,3
10.65,2,1,1,2,1,2,3,2
10.655,1,1,0,2,1,1,1,0
10.66,3,5,3,1,2,1,2,3
10.665,0,1,2,1,3,2,3,0
10.67,1,2,0,1,0,0,1,1
10.675,1,1,3,2,3,3,0,1
10.68,1,1,2,4,1,2,2,1
10.685,1,2,2,3,3,1,3,2
10.69,1,2,3,2,1,1,0,2
10.695,2,1,2,1,0,2,1,3
10.7,1,0,3,2,2,0,0,0
10.705,2,2,2,4,3,1,1,0
10.71,3,0,4,4,3,0,2,0
10.715,1,2,1,2,1,1,1,2
10.72,1,1,0,4,2,2,1,0
10.725,0,1,1,2,2,1,1,1
10.73,0,0,1,0,1,1,1,1
10.735,1,0,1,5,3,1,1,2
10.74,1,0,1,1,1,2,2,1
10.745,1,1,0,4,5,3,0,1
10.75,0,0,2,0,0,2,1,1
10.755,1,1,1,3,5,3,0,2
10.76,2,0,0,1,0,1,1,1
10.765,0,1,1,6,2,1,1,0
10.77,3,3,5,2,3,0,2,1
10.775,1,1,0,1,2,2,2,1
10.78,2,3,4,1,1,1,2,1
10.785,2,3,6,3,4,2,1,1
10.79,2,1,1,1,5,2,1,2
10.795,2,1,1,3,2,1,1,1
10.8,1,5,2,1,1,0,1,2
10.805,2,0,0,4,4,2,1,1
10.81,0,1,2,3,2,0,0,1
10.815,1,4,3,0,1,2,2,1
10.82,1,0,1,0,3,0,1,0
10.825,1,0,3,0,1,1,2,1
10.83,0,0,0,2,0,3,1,2
10.835,2,1,5,5,2,3,1,2
10.84,1,1,1,0,2,0,0,1
10.845,0,3,1,2,4,2,1,1
10.85,0,1,2,1,0,1,1,1
10.855,0,1,1,0,2,3,3,0
10.86,1,3,5,4,1,1,0,2
10.865,2,0,1,2,1,2,2,0
10.87,1,0,1,1,0,3,0,1
10.875,0,3,2,1,0,0,0,1
10.88,1,0,1,3,6,2,2,2
10.885,1,1,1,1,4,1,1,4
10.89,2,2,3,1,4,3,2,0
10.895,1,0,0,2,1,1,2,1
10.9,0,1,1,2,3,1,0,1
10.905,3,3,3,3,3,3,0,2
10.91,2,1,1,1,1,1,2,0
10.915,0,1,1,4,4,0,1,0
10.92,0,2,5,1,1,0,1,1
10.925,0,0,2,2,1,0,0,0
10.93,0,1,4,2,0,1,1,3
10.935,0,2,0,2,2,2,0,1
10.94,1,3,2,2,0,1,1,1
10.945,1,0,0,1,2,2,1,1
10.95,2,1,3,3,3,2,1,1
10.955,1,1,1,0,2,0,1,1
10.96,1,3,2,2,1,1,1,2
10.965,1,1,4,1,3,1,1,2
10.97,1,0,1,3,2,0,1,0
10.975,1,1,1,3,3,2,0,1
10.98,2,1,2,5,5,3,0,0
10.985,1,1,3,5,4,1,1,0
10.99,0,2,1,0,2,0,1,1
10.995,2,3,4,1,2,1,0,3
11,2,2,3,2,0,2,1,2
11.005,3,1,3,5,4,2,2,2
11.01,0,2,2,3,1,0,1,0
11.015,2,1,2,1,3,4,3,1
11.02,0,1,2,1,3,2,0,1
11.025,0,1,0,2,3,2,1,2
11.03,1,2,3,1,1,0,0,0
11.035,0,3,5,1,2,1,2,2
11.04,0,0,0,1,2,3,1,1
11.045,1,2,0,0,0,1,1,1
11.05,2,1,1,3,3,3,2,2
11.055,0,2,2,1,1,0,1,1
11.06,1,1,2,3,1,1,0,2
11.065,2,0,0,2,1,1,1,1
11.07,1,1,4,1,5,1,3,2
11.075,0,0,1,0,0,1,1,1
11.08,2,1,2,1,1,2,2,0
11.085,1,3,1,2,4,0,2,0
11.09,1,0,1,2,2,1,1,1
11.095,0,2,0,2,1,0,2,1
11.1,2,5,3,3,4,1,3,2
11.105,0,0,3,2,1,1,2,1
11.11,0,0,0,1,0,0,1,1
11.115,1,2,1,2,0,0,1,1
11.12,1,0,1,3,5,2,1,0
11.125,2,1,5,0,1,1,1,1
11.13,1,1,1,1,1,3,3,3
11.135,1,4,4,3,1,4,1,1
11.14,2,3,1,1,2,1,2,1
11.145,2,0,1,1,2,1,1,0
11.15,0,1,1,0,0,3,2,1
11.155,2,1,2,2,1,2,3,0
11.16,2,2,1,3,4,0,1,2
11.165,0,1,0,1,1,1,2,2
11.17,0,1,1,1,2,2,0,1
11.175,4,5,1,1,2,1,1,1
11.18,2,2,4,2,1,2,1,1
11.185,2,1,0,1,3,3,2,1
11.19,1,1,1,1,3,2,0,1
11.195,1,1,1,3,2,0,1,2
11.2,0,2,3,1,1,0,1,2
11.205,1,0,1,1,1,1,0,2
11.21,2,0,1,1,4,2,2,1
11.215,1,1,0,2,0,0,1,0
11.22,2,2,3,1,3,4,0,1
11.225,1,1,1,0,2,2,1,0
11.23,0,3,1,0,3,3,1,1
11.235,2,2,1,0,0,0,0,1
11.24,2,2,3,1,2,1,1,1
11.245,1,1,2,4,2,0,0,0
11.25,1,1,2,1,2,1,1,1
11.255,0,0,0,1,4,2,1,0
11.26,0,2,1,2,1,2,1,2
11.265,2,3,3,1,0,2,2,3
11.27,1,1,4,3,3,1,1,1
11.275,0,0,2,4,2,2,1,0
11.28,1,3,3,0,1,1,2,1
11.285,1,4,4,3,3,1,2,2
11.29,2,2,3,1,0,1,2,2
11.295,1,2,2,0,4,1,3,1
11.3,2,2,1,0,1,0,2,2
11.305,0,3,3,3,2,2,1,0
11.31,4,2,0,2,1,1,2,3
11.315,2,0,0,0,1,0,0,1
11.32,2,2,2,1,3,1,1,0
11.325,2,0,0,1,0,2,0,0
11.33,1,2,2,1,1,1,1,1
11.335,2,2,1,3,2,3,2,0
11.34,0,1,2,1,0,2,0,3
11.345,2,2,1,1,1,0,1,0
11.35,1,2,0,1,1,3,1,0
11.355,2,2,4,0,0,1,1,0
11.36,1,1,3,1,2,1,1,0
11.365,3,3,2,5,1,2,2,3
11.37,0,1,1,1,1,0,0,1
11.375,0,2,1,2,0,1,0,0
11.38,2,1,2,1,0,1,0,3
11.385,0,0,1,2,0,0,1,1
11.39,3,1,5,3,2,1,1,3
11.395,1,0,4,2,2,0,2,3
11.4,1,1,1,2,4,2,1,1
11.405,0,0,1,1,2,1,1,1
11.41,2,1,0,3,2,3,4,5
11.415,0,0,2,0,1,0,0,2
11.42,3,5,3,4,3,2,2,2
11.425,1,2,0,1,1,2,3,3
11.43,0,3,5,2,2,1,1,0
11.435,0,2,2,0,1,0,1,2
11.44,1,0,4,3,3,1,1,2
11.445,0,1,2,2,0,1,1,1
11.45,2,3,3,3,5,4,2,2
11.455,0,3,2,3,2,2,0,3
11.46,1,1,0,0,1,1,2,0
11.465,1,3,4,1,2,1,1,1
11.47,2,6,1,0,1,1,1,1
11.475,2,1,5,4,7,4,3,4
11.48,6,1,1,1,5,2,1,0
11.485,9,11,3,2,5,2,1,0
11.49,1,1,3,1,2,0,2,2
11.495,4,3,3,7,4,1,4,2
11.5,1,2,0,1,2,1,3,2
11.505,4,2,2,1,1,0,1,2
11.51,1,1,2,3,6,3,1,1
11.515,1,0,6,0,3,3,2,2
11.52,0,0,0,3,2,1,3,2
11.525,1,1,0,4,1,0,1,1
11.53,1,3,4,0,1,1,2,2
11.535,1,1,0,1,0,1,1,0
11.54,1,2,5,0,1,0,2,3
11.545,1,4,5,1,1,2,0,1
11.55,0,1,1,3,2,4,2,2
11.555,1,2,2,2,2,1,1,0
11.56,5,6,7,8,3,3,1,3
11.565,0,0,1,2,5,2,0,2
11.57,0,1,0,1,6,5,2,5
11.575,1,1,5,0,4,3,1,2
11.58,3,7,6,2,4,3,1,1
11.585,0,0,2,6,6,5,2,0
11.59,1,4,3,3,5,4,1,1
11.595,2,2,3,3,4,3,2,2
11.6,2,3,5,7,4,2,1,1
11.605,0,2,1,3,3,4,2,3
11.61,2,0,0,1,2,1,0,1
11.615,1,3,2,2,3,1,1,2
11.62,0,1,4,13,9,3,2,1
11.625,0,0,1,2,2,1,2,0
11.63,3,1,1,1,3,4,3,3
11.635,1,0,2,4,0,2,1,1
11.64,0,0,1,2,3,1,2,1
11.645,0,0,4,2,6,1,2,3
11.65,3,6,6,2,2,4,1,2
11.655,1,3,0,1,0,3,2,0
11.66,2,3,10,11,9,4,2,2
11.665,2,4,0,1,6,5,4,3
11.67,0,1,9,12,3,4,3,1
11.675,1,5,11,13,11,4,0,0
11.68,2,0,4,9,4,2,1,0
11.685,2,3,22,20,5,2,0,1
11.69,1,3,1,12,1,1,0,2
11.695,1,2,5,5,8,4,4,0
11.7,3,2,10,26,11,4,0,1
11.705,4,12,38,40,11,5,1,2
11.71,0,1,14,14,2,1,2,1
11.715,8,12,37,71,26,9,5,5
11.72,3,6,2,3,8,2,1,2
11.725,3,10,21,5,5,3,2,4
11.73,2,3,3,10,6,5,1,1
11.735,1,6,22,24,6,2,3,1
11.74,2,7,14,35,20,5,1,2
11.745,1,2,35,51,8,0,1,1
11.75,0,3,5,24,1,1,0,1
11.755,6,11,7,12,6,5,4,4
11.76,1,3,18,11,2,0,0,0
11.765,1,0,14,34,4,1,0,1
11.77,3,3,20,1,1,0,2,1
11.775,3,2,18,33,7,6,2,5
11.78,3,11,2,5,18,7,2,2
11.785,8,14,31,57,13,5,4,5
11.79,0,8,16,2,14,7,3,2
11.795,10,19,26,4,7,6,4,5
11.8,4,9,13,50,11,4,2,5
11.805,11,24,4,21,15,8,3,2
11.81,1,6,60,103,4,0,0,3
11.815,6,14,65,52,12,4,2,4
11.82,20,10,59,27,1,3,4,4
11.825,13,2,4,28,30,12,7,0
11.83,15,19,76,67,9,6,4,7
11.835,4,6,6,41,17,5,3,5
11.84,9,12,32,90,26,10,6,4
11.845,12,5,13,24,13,5,2,0
11.85,17,9,45,74,23,9,1,3
11.855,41,7,9,9,13,5,4,10
11.86,1,8,23,14,4,3,1,2
11.865,13,11,1,30,8,3,2,3
11.87,33,11,10,97,0,5,3,4
11.875,21,9,23,42,5,4,1,3
11.88,8,8,44,79,14,11,6,4
11.885,1,19,42,1,7,6,1,0
11.89,29,31,108,76,21,14,8,7
11.895,4,1,28,2,0,4,3,5
11.9,4,8,9,5,4,1,2,9
11.905,6,18,62,124,13,13,7,19
11.91,20,12,85,91,9,0,2,7
11.915,9,10,26,16,3,1,1,1
11.92,3,6,4,63,5,2,0,3
11.925,8,0,17,103,10,2,1,3
11.93,5,21,52,65,20,7,3,2
11.935,16,9,28,2,14,7,4,4
11.94,7,30,68,23,24,16,10,7
11.945,6,10,15,18,6,2,1,1
11.95,0,16,62,88,2,0,0,0
11.955,7,20,69,114,19,11,6,1
11.96,1,2,24,15,8,7,2,1
11.965,4,2,9,14,10,8,3,4
11.97,1,7,28,29,9,4,2,2
11.975,8,19,16,30,22,12,5,6
11.98,2,12,19,62,16,6,3,1
11.985,12,18,6,82,2,6,6,10
11.99,10,17,11,13,6,5,1,3
11.995,2,5,20,18,8,2,1,2
12,4,15,42,5,17,7,2,4
12.005,6,2,10,0,5,1,3,2
12.01,4,9,44,19,4,3,1,0
12.015,2,13,68,88,10,4,2,4
12.02,7,1,22,1,1,1,2,3
12.025,4,4,11,17,2,1,1,2
12.03,2,0,7,17,3,2,1,3
12.035,14,6,0,26,1,1,3,0
12.04,33,2,39,88,16,3,1,2
12.045,6,8,39,100,15,2,3,2
12.05,4,8,24,8,1,1,0,1
12.055,1,3,34,72,1,0,1,2
12.06,1,8,10,42,4,6,6,8
12.065,7,2,3,14,4,1,0,1
12.07,21,1,7,7,2,1,1,1
12.075,20,1,0,5,2,1,0,3
12.08,11,1,11,14,4,5,2,6
12.085,1,1,8,7,2,0,0,1
12.09,6,3,7,16,5,4,1,1
12.095,9,7,1,0,2,1,2,2
12.1,2,17,13,16,4,4,3,4
12.105,2,6,31,65,8,4,2,0
12.11,2,6,2,17,5,6,3,3
12.115,4,5,6,10,4,2,1,0
12.12,6,4,35,45,7,4,3,1
12.125,1,7,31,31,1,0,0,0
12.13,1,6,9,24,3,0,1,1
12.135,10,4,33,30,3,2,1,1
12.14,11,4,8,20,3,0,2,3
12.145,13,4,7,25,1,1,3,3
12.15,14,12,0,13,8,5,3,10
12.155,4,5,5,14,2,1,1,1
12.16,18,15,59,47,7,4,0,1
12.165,9,14,57,67,14,9,6,5
12.17,6,6,21,60,7,2,1,1
12.175,4,16,39,71,10,8,3,2
12.18,1,2,13,23,2,0,1,1
12.185,9,10,27,38,3,2,1,3
12.19,18,10,25,17,2,0,3,2
12.195,14,7,11,16,4,2,1,1
12.2,19,18,48,34,12,7,2,5
12.205,1,3,10,22,2,0,0,1
12.21,10,14,23,16,9,7,5,4
12.215,3,2,21,17,4,0,1,1
12.22,20,7,15,15,2,1,0,2
12.225,10,2,20,11,1,1,1,3
12.23,16,11,39,34,6,0,1,1
12.235,2,4,3,11,7,3,2,2
12.24,1,6,12,12,5,4,0,4
12.245,2,9,18,6,3,1,1,3
12.25,5,0,16,3,2,1,1,1
12.255,1,9,37,47,4,2,1,2
12.26,1,5,24,57,7,4,3,2
12.265,13,10,13,62,5,0,2,1
12.27,2,2,16,84,7,0,1,1
12.275,4,5,7,38,3,2,0,3
12.28,12,3,3,7,1,2,1,1
12.285,6,15,47,30,6,4,1,4
12.29,12,19,47,3,11,7,3,2
12.295,6,4,41,34,1,1,4,2
12.3,4,1,9,33,6,5,4,0
12.305,6,2,7,14,3,4,3,2
12.31,4,4,22,16,3,5,0,2
12.315,11,4,14,2,3,3,1,3
12.32,8,6,34,7,1,1,1,0
12.325,6,4,0,28,8,3,2,0
12.33,2,7,13,22,2,0,1,0
12.335,2,7,33,28,9,4,4,2
12.34,14,12,32,22,6,3,1,1
12.345,4,2,11,15,0,1,1,1
12.35,5,0,5,9,3,2,0,2
12.355,2,0,2,1,1,1,1,2
12.36,2,0,7,21,4,2,1,0
12.365,2,1,21,34,0,1,1,1
12.37,8,3,14,25,5,0,2,5
12.375,6,5,7,3,1,1,2,1
12.38,0,2,1,3,3,1,3,4
12.385,9,4,14,19,0,1,0,3
12.39,13,6,19,6,5,5,2,3
12.395,5,8,51,52,10,4,4,4
12.4,4,0,16,10,3,0,1,0
12.405,2,1,1,6,2,1,0,0
12.41,1,2,2,2,1,2,2,1
12.415,1,2,5,18,1,0,0,1
12.42,6,1,2,3,2,1,0,0
12.425,4,4,14,11,4,1,2,3
12.43,1,0,9,6,2,3,2,0
12.435,6,2,4,1,3,3,0,3
12.44,6,8,3,8,2,2,1,1
12.445,9,3,2,3,5,2,3,2
12.45,1,6,3,1,1,0,0,1
12.455,6,1,7,6,0,3,0,3
12.46,2,0,3,4,2,1,1,1
12.465,8,2,6,2,0,3,1,2
12.47,4,2,4,5,2,1,0,0
12.475,0,1,4,3,1,1,2,1
12.48,3,4,3,5,3,0,1,0
12.485,9,6,5,7,3,1,4,2
12.49,3,2,2,3,1,1,2,0
12.495,10,4,10,9,0,1,2,2
12.5,7,8,7,4,3,0,1,1
12.505,1,8,5,9,5,2,3,3
12.51,6,0,1,2,3,1,0,8
12.515,7,2,10,10,2,0,4,10
12.52,7,11,3,2,2,4,5,11
12.525,7,6,3,1,4,2,6,5
12.53,0,6,6,2,4,2,3,1
12.535,7,6,4,4,2,3,0,14
12.54,2,1,2,2,3,2,5,5
12.545,8,6,4,1,0,1,1,6
12.55,2,16,2,1,0,2,7,14
12.555,7,1,1,0,2,4,3,1
12.56,8,9,8,5,3,1,4,3
12.565,2,4,1,1,3,3,1,5
12.57,0,2,2,3,5,5,8,7
12.575,4,1,0,1,0,1,0,2
12.58,1,1,1,3,2,4,3,2
12.585,4,5,0,1,0,0,1,2
12.59,1,3,4,6,4,0,3,3
12.595,1,2,1,0,1,2,1,1
12.6,2,8,1,1,1,0,1,2
12.605,5,8,5,4,2,4,3,4
12.61,8,6,1,4,3,3,1,7
12.615,2,3,0,1,1,1,2,2
12.62,2,2,2,1,1,1,3,2
12.625,5,3,1,1,2,2,2,3
12.63,12,14,1,2,0,1,2,0
12.635,4,3,4,0,2,2,0,4
12.64,7,0,2,2,0,3,2,11
12.645,3,5,2,2,1,0,1,2
12.65,3,1,5,5,4,2,6,5
12.655,3,1,0,1,4,2,1,2
12.66,3,8,7,3,2,2,1,3
12.665,2,1,2,1,1,1,1,0
12.67,5,1,0,1,1,0,1,1
12.675,3,3,1,7,3,0,3,5
12.68,4,5,1,2,2,3,2,4
12.685,0,2,0,8,1,1,1,1
12.69,1,2,1,0,2,3,1,1
12.695,1,7,9,7,0,3,2,1
12.7,4,9,5,6,7,3,1,1
12.705,7,2,5,11,6,2,3,5
12.71,0,0,3,1,0,2,1,3
12.715,1,1,2,5,1,0,2,4
12.72,3,1,2,1,5,4,1,2
12.725,7,2,0,2,1,0,4,5
12.73,10,15,5,2,2,1,5,4
12.735,7,8,8,5,5,4,4,7
12.74,3,1,3,1,1,2,1,0
12.745,3,2,2,1,0,1,2,4
12.75,9,4,1,3,3,1,3,3
12.755,9,7,7,4,1,1,3,1
12.76,5,1,3,5,6,5,1,3
12.765,1,3,3,9,8,1,1,2
12.77,1,3,3,2,2,0,1,0
12.775,1,1,1,3,2,2,1,2
12.78,2,3,0,2,1,0,2,4
12.785,4,2,2,2,4,2,3,3
12.79,5,1,2,2,2,1,2,2
12.795,7,1,2,1,1,1,1,2
12.8,2,2,0,0,3,1,1,1
12.805,4,3,1,2,5,6,3,2
12.81,2,1,7,4,3,5,4,1
12.815,0,2,1,0,2,0,0,3
12.82,4,0,2,1,2,2,1,2
12.825,4,0,4,0,2,3,2,0
12.83,17,16,9,6,5,5,4,6
12.835,4,1,3,2,2,0,2,2
12.84,3,4,4,1,2,4,4,5
12.845,1,2,1,2,2,1,1,1
12.85,5,3,2,1,1,4,3,3
12.855,0,1,0,7,5,3,2,1
12.86,2,2,5,3,3,1,1,1
12.865,3,0,1,4,1,0,1,3
12.87,2,2,1,1,1,1,1,0
12.875,4,2,2,5,1,2,0,1
12.88,3,2,1,5,5,2,1,1
12.885,0,1,2,0,0,1,0,1
12.89,2,1,1,1,2,2,0,2
12.895,1,4,3,2,2,2,5,8
12.9,3,4,1,1,3,2,2,5
12.905,4,2,0,1,1,1,1,0
12.91,2,3,0,2,2,3,1,1
12.915,1,2,2,4,2,0,1,2
12.92,1,1,2,2,4,3,1,2
12.925,2,4,1,0,2,2,2,5
12.93,1,4,5,5,1,4,3,1
12.935,2,2,1,0,4,3,0,1
12.94,0,1,2,11,7,1,1,2
12.945,4,4,1,1,1,0,0,0
12.95,1,3,0,6,3,1,0,1
12.955,3,0,1,2,2,2,3,3
12.96,4,4,3,1,2,2,2,1
12.965,1,3,1,0,0,1,1,1
12.97,3,2,3,2,2,2,1,4
12.975,11,7,7,14,7,1,0,2
12.98,0,0,0,3,0,3,0,1
12.985,0,4,5,1,1,0,1,0
12.99,0,2,5,6,3,1,1,1
12.995,3,0,2,2,0,1,2,0
13,2,0,1,1,2,2,1,1
13.005,4,1,3,1,4,4,1,3
13.01,0,1,4,5,1,2,3,0
13.015,1,1,2,1,1,1,2,1
13.02,2,0,1,7,3,0,0,1
13.025,3,2,3,2,1,1,2,1
13.03,4,4,2,3,4,1,1,0
13.035,1,1,8,8,0,1,1,2
13.04,2,4,19,20,7,2,0,1
13.045,2,2,4,18,1,1,1,1
13.05,4,4,21,22,2,1,1,2
13.055,0,5,4,2,12,5,2,1
13.06,7,14,15,29,17,8,5,7
13.065,2,3,17,46,3,3,2,2
13.07,0,0,14,37,4,2,1,0
13.075,2,7,25,17,9,1,0,1
13.08,2,0,10,4,3,2,2,1
13.085,2,1,11,16,3,4,4,0
13.09,3,7,21,41,9,8,2,3
13.095,4,16,49,68,18,11,5,3
13.1,3,4,43,64,5,0,0,3
13.105,2,4,39,81,10,1,0,1
13.11,0,5,7,15,7,2,0,1
13.115,5,0,7,57,8,4,0,1
13.12,7,8,7,44,14,7,4,4
13.125,3,5,6,0,16,6,4,1
13.13,3,1,35,39,1,1,1,2
13.135,5,1,13,22,4,2,2,3
13.14,6,11,29,46,18,8,5,3
13.145,3,6,6,29,5,6,3,3
13.15,2,1,27,80,3,2,1,2
13.155,5,7,44,19,1,1,1,2
13.16,6,8,15,39,16,4,1,2
13.165,6,2,12,5,4,1,1,1
13.17,3,0,1,22,2,0,1,0
13.175,14,15,42,29,15,8,4,8
13.18,12,10,26,1,6,3,2,6
13.185,10,8,22,14,9,5,3,8
13.19,0,4,18,26,3,1,2,3
13.195,6,13,29,63,27,14,4,7
13.2,8,14,30,74,19,11,7,5
13.205,1,17,54,38,15,5,1,2
13.21,3,3,16,24,2,1,1,4
13.215,0,4,13,41,6,2,1,5
13.22,5,9,13,32,15,11,6,4
13.225,6,27,107,88,23,11,4,6
13.23,20,35,100,128,24,7,2,7
13.235,23,4,15,4,6,1,1,5
13.24,5,3,8,57,8,7,3,5
13.245,3,8,20,1,8,4,2,2
13.25,9,4,20,13,2,3,1,1
13.255,2,25,42,32,24,11,5,1
13.26,4,8,13,77,9,1,2,1
13.265,16,1,15,23,15,9,7,7
13.27,21,8,35,37,2,1,3,6
13.275,1,20,31,32,10,7,3,1
13.28,2,3,38,91,25,10,6,1
13.285,8,2,22,64,4,2,1,4
13.29,4,17,7,57,2,3,1,1
13.295,13,10,10,3,14,12,7,4
13.3,9,10,10,17,13,8,3,0
13.305,5,17,21,24,4,5,4,3
13.31,7,14,13,52,1,6,5,8
13.315,0,13,10,21,5,1,2,1
13.32,1,9,35,64,3,7,3,3
13.325,1,2,28,16,4,5,3,1
13.33,7,3,26,12,0,1,1,4
13.335,7,11,56,91,18,6,2,0
13.34,4,4,14,31,6,1,1,3
13.345,9,6,5,64,2,3,6,11
13.35,6,1,5,21,3,2,1,1
13.355,12,6,22,21,4,3,1,4
13.36,2,0,0,22,3,3,3,3
13.365,3,0,8,22,2,1,0,0
13.37,3,6,21,72,8,1,0,1
13.375,10,16,41,100,21,9,5,6
13.38,12,15,9,8,1,3,2,1
13.385,5,17,15,71,1,10,4,2
13.39,6,5,10,4,1,0,2,2
13.395,13,1,7,18,7,2,1,1
13.4,15,2,11,10,4,3,0,5
13.405,12,5,0,34,0,1,0,3
13.41,3,3,3,27,5,1,0,4
13.415,22,4,17,18,6,3,4,9
13.42,7,2,0,10,1,1,1,2
13.425,4,6,7,9,6,6,2,1
13.43,12,7,7,15,6,7,4,3
13.435,21,1,17,26,3,0,2,2
13.44,2,3,8,15,2,1,2,1
13.445,2,3,12,6,1,0,1,1
13.45,1,1,14,1,1,1,2,1
13.455,5,3,31,77,4,0,0,1
13.46,3,2,34,85,4,1,0,2
13.465,0,5,14,2,4,1,1,1
13.47,4,3,43,48,11,5,2,6
13.475,4,4,29,17,4,3,1,1
13.48,0,8,2,33,4,5,5,3
13.485,4,5,24,15,4,5,2,1
13.49,5,5,22,36,4,3,2,1
13.495,1,9,48,15,2,3,1,0
13.5,3,6,16,24,0,4,4,1
13.505,0,7,23,18,7,5,2,3
13.51,3,2,10,24,1,0,1,2
13.515,3,4,5,18,11,5,3,5
13.52,4,5,16,39,7,1,1,2
13.525,10,4,17,53,6,1,1,2
13.53,21,10,6,2,3,3,2,3
13.535,4,2,9,45,7,0,0,1
13.54,7,5,2,47,4,1,0,0
13.545,9,3,26,65,1,1,3,0
13.55,2,1,13,66,7,3,3,5
13.555,5,7,19,35,3,0,1,0
13.56,14,16,62,24,9,6,3,4
13.565,10,5,16,2,9,6,1,1
13.57,9,0,1,1,3,1,0,2
13.575,20,3,9,39,2,1,2,1
13.58,7,10,10,17,6,4,2,3
13.585,12,2,1,6,3,1,2,3
13.59,2,1,6,34,3,1,2,1
13.595,1,7,20,65,8,2,3,2
13.6,7,14,33,23,5,0,0,2
13.605,6,15,50,26,7,2,3,3
13.61,21,3,25,11,0,0,0,3
13.615,12,0,7,5,0,2,2,1
13.62,1,1,9,22,3,2,1,0
13.625,1,1,2,2,5,4,3,1
13.63,12,4,5,4,0,2,1,1
13.635,8,2,4,2,5,3,2,1
13.64,5,2,8,4,0,0,1,2
13.645,5,2,7,1,3,1,1,1
13.65,0,5,1,8,4,1,1,0
13.655,8,9,36,3,3,4,3,3
13.66,9,1,14,21,0,1,1,0
13.665,0,1,2,10,2,2,1,0
13.67,10,5,2,15,8,4,2,4
13.675,3,2,7,3,2,0,0,1
13.68,8,8,8,14,5,3,2,3
13.685,1,6,1,2,3,3,0,2
13.69,3,4,16,12,4,1,1,5
13.695,6,1,3,16,7,4,3,3
13.7,5,3,15,29,3,0,0,2
13.705,1,3,3,39,8,4,1,1
13.71,13,4,1,13,5,1,0,0
13.715,1,2,3,9,2,2,2,3
13.72,1,5,9,24,2,1,2,2
13.725,3,3,1,12,2,0,1,0
13.73,8,9,6,4,6,3,3,1
13.735,11,3,23,16,4,1,2,3
13.74,4,1,6,12,1,0,0,1
13.745,1,3,1,1,6,2,1,2
13.75,2,7,5,4,2,1,1,1
13.755,8,2,2,16,1,1,2,3
13.76,17,5,15,16,1,4,0,0
13.765,9,4,8,10,1,2,0,1
13.77,8,9,2,2,3,4,0,1
13.775,11,3,7,12,4,1,0,1
13.78,26,2,7,6,0,3,0,2
13.785,6,5,7,24,3,0,0,3
13.79,10,7,4,49,9,3,3,7
13.795,11,3,18,25,5,3,1,4
13.8,16,5,16,36,7,4,2,8
13.805,3,2,4,3,1,1,2,3
13.81,0,1,9,42,6,2,1,1
13.815,1,6,2,22,4,1,2,0
13.82,11,0,11,4,4,0,1,1
13.825,3,4,4,6,0,1,0,2
13.83,3,3,16,13,4,1,1,0
13.835,15,6,9,5,4,4,4,5
13.84,16,4,3,3,1,2,1,3
13.845,11,3,1,10,2,3,2,6
13.85,6,1,1,4,3,1,2,3
13.855,12,2,7,35,1,1,1,2
13.86,11,1,11,49,2,1,2,1
13.865,9,2,8,3,2,2,1,0
13.87,8,3,12,6,1,3,1,1
13.875,6,0,3,3,1,3,2,4
13.88,12,2,14,22,0,3,2,0
13.885,5,2,18,26,7,3,3,6
13.89,7,6,13,10,4,4,3,3
13.895,3,3,5,11,2,3,2,2
13.9,10,4,11,14,0,2,0,0
13.905,10,13,1,3,2,1,1,1
13.91,3,3,5,1,0,0,2,1
13.915,4,1,1,7,2,1,0,1
13.92,1,0,0,2,0,2,3,1
13.925,0,3,3,8,4,1,1,1
13.93,8,2,3,4,0,1,0,2
13.935,2,7,1,0,1,0,2,1
13.94,5,5,3,2,2,4,3,4
13.945,1,5,1,2,3,1,1,1
13.95,3,6,1,5,3,3,2,3
13.955,4,9,1,4,1,1,0,0
13.96,0,5,1,8,1,2,2,3
13.965,4,2,5,2,1,2,3,0
13.97,2,2,4,2,0,0,1,0
13.975,2,0,2,2,2,1,0,2
13.98,1,2,2,0,3,4,3,8
13.985,7,2,3,2,1,1,0,3
13.99,13,2,4,0,3,2,0,5
13.995,4,2,1,5,1,2,2,3
14,12,20,1,0,3,2,4,8
14.005,5,3,3,3,1,2,4,5
14.01,2,3,5,5,6,5,8,4
14.015,2,1,2,8,5,3,8,5
14.02,10,11,1,1,3,1,3,9
14.025,3,2,1,3,1,1,1,5
14.03,4,3,2,1,1,1,4,1
14.035,8,5,5,1,0,1,6,13
14.04,0,5,10,1,3,5,3,1
14.045,13,4,1,5,1,1,0,2
14.05,9,7,3,1,0,0,4,4
14.055,4,0,1,1,3,1,5,3
14.06,7,9,2,2,1,1,0,1
14.065,2,0,3,1,0,0,0,3
14.07,2,1,3,3,4,3,2,6
14.075,2,0,3,2,2,1,0,3
14.08,1,6,3,4,3,1,2,7
14.085,1,0,2,0,2,0,0,1
14.09,2,2,1,5,3,2,3,0
14.095,2,3,1,1,1,0,2,1
14.1,8,6,1,0,0,1,1,4
14.105,2,1,3,4,2,1,2,6
14.11,13,10,1,2,2,2,2,1
14.115,4,8,1,1,1,0,1,0
14.12,7,3,1,2,0,2,4,8
14.125,4,0,5,4,3,2,1,5
14.13,5,3,2,0,1,2,3,1
14.135,4,3,2,0,2,1,2,2
14.14,2,1,2,0,2,2,2,1
14.145,3,3,2,1,2,6,3,2
14.15,3,1,1,2,0,0,0,1
14.155,5,5,1,2,1,0,0,2
14.16,2,3,1,1,2,0,1,1
14.165,3,2,0,5,5,4,0,0
14.17,3,6,1,12,10,1,3,5
14.175,1,1,5,20,11,0,3,3
14.18,2,1,3,3,1,2,1,4
14.185,9,1,3,1,1,2,0,2
14.19,3,2,1,1,4,1,2,0
14.195,3,1,2,4,1,2,2,2
14.2,2,3,1,2,0,0,0,3
14.205,4,0,0,1,0,1,1,1
14.21,1,2,6,4,6,3,1,1
14.215,2,1,4,1,3,0,3,4
14.22,11,7,1,2,3,3,4,5
14.225,3,2,2,1,3,0,0,3
14.23,1,0,5,6,5,1,3,0
14.235,2,1,4,3,2,0,2,1
14.24,1,1,3,2,1,0,2,0
14.245,2,3,1,0,2,2,3,2
14.25,2,2,1,5,3,1,1,1
14.255,0,2,1,3,3,3,0,0
14.26,2,1,1,1,1,4,2,3
14.265,2,2,4,0,0,1,2,2
14.27,3,2,5,7,4,1,0,1
14.275,3,2,0,4,2,1,1,2
14.28,5,5,3,2,3,2,1,1
14.285,1,1,0,1,0,2,2,1
14.29,1,1,0,0,1,3,2,2
14.295,6,6,0,0,5,4,3,3
14.3,1,4,2,1,6,4,2,1
14.305,6,2,2,2,1,0,2,1
14.31,11,13,1,0,0,0,0,0
14.315,2,2,4,6,3,3,0,3
14.32,1,3,0,0,4,4,4,1
14.325,1,1,0,2,2,1,1,3
14.33,1,2,3,1,1,2,1,1
14.335,0,1,2,1,0,0,2,2
14.34,0,0,2,4,4,2,2,1
14.345,3,4,0,0,2,1,2,5
14.35,0,0,2,1,3,2,1,1
14.355,6,4,5,1,1,2,1,3
14.36,3,3,1,3,3,1,0,1
14.365,4,4,2,1,1,1,2,2
14.37,2,1,2,1,2,1,1,0
14.375,2,0,1,3,1,0,1,5
14.38,0,2,1,3,0,2,1,2
14.385,3,2,1,5,5,4,0,2
14.39,1,3,1,3,0,1,3,3
14.395,1,1,1,2,1,0,0,2
14.4,3,3,1,1,3,5,2,4
14.405,0,3,1,1,0,1,0,1
14.41,0,0,0,2,1,3,3,0
14.415,4,0,2,3,3,2,2,1
14.42,4,0,0,2,0,1,0,0
14.425,13,13,4,1,0,2,2,3
14.43,1,1,3,5,3,1,2,1
14.435,2,1,1,3,2,1,0,2
14.44,1,2,5,4,1,4,2,5
14.445,2,1,2,5,5,2,0,1
14.45,1,2,2,1,4,4,2,1
14.455,1,5,3,5,2,1,1,1
14.46,0,1,2,4,0,1,0,3
14.465,1,0,4,5,4,1,0,2
14.47,2,1,4,11,5,2,3,2
14.475,0,0,5,1,2,0,0,1
14.48,3,0,0,1,3,2,2,1
14.485,0,2,1,8,6,3,1,2
14.49,2,0,1,1,2,2,0,0
14.495,1,1,2,2,1,1,1,0
14.5,0,1,1,2,2,1,1,1
14.505,3,3,2,3,3,1,1,3
14.51,3,4,6,3,3,4,3,1
14.515,0,3,13,11,3,0,2,0
14.52,3,3,4,10,7,2,2,1
14.525,3,12,25,67,19,11,5,2
14.53,3,6,31,13,5,3,2,2
14.535,3,6,15,9,8,2,1,0
14.54,3,14,50,59,17,7,1,4
14.545,2,5,8,24,9,3,1,3
14.55,10,20,49,87,30,15,8,8
14.555,2,1,22,27,3,0,0,1
14.56,3,10,32,26,6,2,1,3
14.565,0,6,16,1,5,2,1,0
14.57,9,12,39,43,15,5,4,6
14.575,5,5,5,7,0,2,0,4
14.58,1,3,0,29,2,2,2,1
14.585,1,2,3,38,2,0,3,3
14.59,11,11,28,46,16,6,5,4
14.595,7,4,12,2,1,0,1,5
14.6,2,11,32,78,16,6,3,0
14.605,3,0,12,25,0,1,1,1
14.61,1,6,3,37,16,6,4,2
14.615,2,6,4,29,3,5,1,1
14.62,6,18,33,67,12,6,4,5
14.625,4,8,10,33,4,4,1,2
14.63,3,10,16,51,26,9,3,3
14.635,12,26,84,109,43,19,11,9
14.64,3,2,35,78,7,0,1,1
14.645,6,1,10,30,4,3,2,1
14.65,2,2,9,10,7,1,1,1
14.655,1,6,0,24,8,7,3,3
14.66,6,4,11,13,10,3,0,1
14.665,2,1,19,17,0,3,0,1
14.67,2,6,8,67,21,13,5,2
14.675,1,11,58,54,4,4,0,0
14.68,2,11,1,35,5,3,1,0
14.685,2,13,46,51,18,8,6,1
14.69,23,5,5,16,2,0,2,10
14.695,4,3,21,38,0,3,3,1
14.7,9,15,49,19,20,8,6,3
14.705,7,1,13,59,8,3,0,2
14.71,18,8,6,9,12,8,7,7
14.715,10,3,39,86,2,10,4,8
14.72,5,4,5,30,11,7,3,1
14.725,2,1,4,8,7,4,1,6
14.73,4,5,41,65,11,9,5,6
14.735,5,2,1,63,3,0,0,2
14.74,0,4,82,98,1,4,2,4
14.745,4,7,40,77,18,16,9,8
14.75,6,13,9,14,16,12,6,6
14.755,12,14,7,14,4,4,4,2
14.76,3,4,32,20,18,10,7,8
14.765,20,9,11,17,0,1,2,1
14.77,1,0,1,2,6,2,2,3
14.775,4,12,3,26,2,4,3,4
14.78,8,3,7,47,1,1,1,0
14.785,8,20,18,5,6,6,3,2
14.79,4,14,27,28,18,12,7,4
14.795,1,7,0,58,9,4,2,6
14.8,8,12,16,64,4,2,2,2
14.805,18,31,45,28,23,18,9,8
14.81,4,2,30,4,2,3,1,5
14.815,7,11,11,28,6,3,1,3
14.82,3,19,51,51,14,6,4,3
14.825,2,3,4,9,11,6,2,2
14.83,15,10,30,33,15,8,2,3
14.835,4,3,47,75,12,4,1,4
14.84,6,12,59,88,6,0,1,2
14.845,1,5,26,21,1,2,2,1
14.85,13,17,52,94,15,9,6,3
14.855,4,0,14,56,4,4,5,4
14.86,8,8,13,8,14,5,2,4
14.865,27,7,1,10,7,2,4,9
14.87,1,2,9,23,4,6,2,6
14.875,3,5,31,12,2,1,1,1
14.88,2,3,13,33,1,3,1,3
14.885,3,1,9,3,1,2,2,0
14.89,7,3,2,4,4,2,2,6
14.895,1,12,26,7,1,0,0,0
14.9,2,0,9,21,0,1,0,1
14.905,2,1,13,27,3,4,2,1
14.91,15,10,49,54,10,7,4,4
14.915,1,1,20,16,2,2,0,1
14.92,6,2,23,25,2,2,1,0
14.925,6,2,13,8,2,4,1,2
14.93,5,11,13,44,1,2,0,1
14.935,4,5,9,17,0,2,1,1
14.94,7,1,0,32,7,3,0,0
14.945,6,2,3,69,10,1,5,6
14.95,5,4,3,28,7,4,1,1
14.955,4,6,3,18,1,1,0,3
14.96,1,3,5,6,0,0,2,1
14.965,14,2,3,6,0,3,2,6
14.97,1,4,5,8,2,3,2,3
14.975,11,9,22,65,16,7,3,3
14.98,24,17,38,48,18,12,7,8
14.985,2,2,1,1,0,1,1,1
14.99,0,4,11,20,1,1,1,2
14.995,4,2,13,11,1,1,1,2
15,1,0,3,31,6,1,0,2
15.005,20,3,7,9,4,2,3,6
15.01,3,12,58,50,13,5,4,1
15.015,5,2,8,0,3,2,1,1
15.02,23,3,18,13,4,0,0,1
15.025,2,2,12,16,3,0,0,1
15.03,8,1,9,27,2,1,2,3
15.035,23,5,1,5,4,2,2,9
15.04,19,5,3,17,3,3,2,3
15.045,2,4,25,41,5,1,1,2
15.05,3,0,2,0,0,2,2,3
15.055,10,7,13,4,2,3,3,1
15.06,23,10,27,26,1,2,1,1
15.065,28,10,9,13,1,2,3,4
15.07,6,6,4,37,3,1,0,2
15.075,7,13,40,51,10,5,4,4
15.08,5,5,36,54,4,2,1,2
15.085,14,9,28,27,4,1,2,2
15.09,7,2,17,33,5,1,1,1
15.095,2,7,12,3,2,3,2,3
15.1,2,7,14,30,0,4,2,4
15.105,1,16,46,16,13,8,6,11
15.11,3,2,31,25,7,3,3,0
15.115,4,1,45,57,7,3,1,0
15.12,3,0,18,11,4,1,1,1
15.125,3,6,1,6,1,2,1,3
15.13,5,10,37,33,2,1,4,7
15.135,4,4,2,12,2,3,0,0
15.14,7,8,29,20,9,6,2,4
15.145,5,4,8,2,4,1,1,1
15.15,7,0,8,6,1,1,1,1
15.155,0,3,28,13,1,0,1,2
15.16,3,5,5,10,7,1,1,3
15.165,4,4,10,46,5,2,1,0
15.17,21,10,24,3,11,5,2,1
15.175,35,2,31,42,9,1,1,7
15.18,0,2,5,29,6,2,2,1
15.185,3,1,10,9,3,1,1,1
15.19,2,2,9,19,1,0,1,1
15.195,8,4,5,6,1,1,2,0
15.2,0,1,17,13,3,2,0,0
15.205,10,8,10,8,2,3,1,1
15.21,5,1,15,14,2,3,1,3
15.215,3,0,16,30,12,4,1,3
15.22,0,1,1,17,6,3,1,2
15.225,9,5,21,57,9,2,2,2
15.23,13,1,12,70,8,1,3,2
15.235,1,6,35,64,16,6,4,2
15.24,8,8,6,3,0,4,2,1
15.245,14,3,4,10,1,0,1,1
15.25,7,1,8,16,0,3,1,2
15.255,2,2,7,7,0,1,0,6
15.26,2,1,1,5,1,2,2,0
15.265,3,3,12,21,1,2,2,0
15.27,5,1,1,11,1,2,1,1
15.275,4,1,14,20,3,1,0,2
15.28,4,2,9,8,3,2,0,2
15.285,1,6,11,16,1,0,2,2
15.29,4,0,5,12,4,1,0,1
15.295,6,2,3,12,3,2,1,2
15.3,10,5,0,10,4,1,3,0
15.305,3,3,18,5,3,1,0,1
15.31,3,1,1,6,3,0,2,3
15.315,8,5,6,7,2,0,2,0
15.32,10,15,9,13,4,2,0,2
15.325,2,0,10,14,2,1,2,4
15.33,2,1,2,8,1,2,1,1
15.335,2,3,2,1,1,2,1,2
15.34,6,3,3,3,1,0,0,3
15.345,3,2,5,10,3,2,1,2
15.35,12,6,5,5,1,2,1,7
15.355,4,0,2,8,6,3,1,2
15.36,2,3,5,4,3,1,2,4
15.365,1,8,0,5,3,5,5,6
15.37,2,4,1,4,3,0,0,2
15.375,3,0,3,7,3,1,2,1
15.38,8,5,4,3,4,3,1,0
15.385,3,6,0,4,3,6,3,2
15.39,1,10,5,4,6,2,2,5
15.395,4,3,1,2,2,0,3,0
15.4,2,2,8,3,3,2,2,1
15.405,6,10,1,0,2,2,0,1
15.41,1,2,6,6,3,3,1,3
15.415,1,5,0,2,2,3,2,5
15.42,0,5,1,0,0,3,1,5
15.425,2,2,0,1,1,0,1,4
15.43,1,0,2,2,1,2,4,1
15.435,1,3,2,1,1,0,2,2
15.44,4,6,6,3,2,1,1,6
15.445,1,2,2,2,1,0,0,1
15.45,6,4,3,0,1,2,2,3
15.455,17,8,3,1,2,3,1,3
15.46,4,0,1,1,0,1,1,3
15.465,7,0,2,1,1,0,0,2
15.47,4,9,2,3,2,4,5,1
15.475,2,4,4,2,3,4,6,5
15.48,8,8,7,5,4,0,1,1
15.485,0,5,1,2,1,2,1,5
15.49,0,1,1,2,1,1,1,1
15.495,3,0,1,2,4,2,0,2
15.5,6,6,3,3,1,2,1,4
15.505,6,4,3,0,0,1,1,1
15.51,4,0,0,3,4,4,3,5
15.515,6,2,1,3,1,0,1,3
15.52,12,3,1,3,0,1,2,6
15.525,2,1,1,1,2,0,1,1
15.53,2,2,7,8,2,1,2,3
15.535,2,1,0,0,0,1,3,6
15.54,7,3,1,2,3,2,5,4
15.545,3,4,5,2,0,1,2,1
15.55,5,2,3,2,2,0,5,4
15.555,9,9,3,2,3,5,10,10
15.56,3,2,4,4,4,3,5,3
15.565,2,2,0,2,2,1,0,3
15.57,6,2,0,1,1,0,1,0
15.575,3,0,0,2,1,1,5,8
15.58,12,3,1,1,1,1,0,3
15.585,4,6,1,1,2,0,2,1
15.59,2,1,2,9,6,1,1,3
15.595,5,1,2,2,6,3,0,1
15.6,1,2,0,4,3,1,2,3
15.605,5,10,5,2,4,1,0,2
15.61,2,5,0,4,6,4,3,4
15.615,6,8,1,3,2,3,5,8
15.62,11,2,1,0,3,1,3,4
15.625,3,1,0,1,2,3,0,2
15.63,0,7,3,2,1,0,1,0
15.635,0,0,3,4,3,0,1,3
15.64,5,2,7,5,2,1,1,1
15.645,1,5,5,3,4,0,0,4
15.65,1,3,1,0,4,3,5,3
15.655,0,0,0,1,0,1,1,1
15.66,8,3,1,5,3,5,5,4
15.665,6,3,1,5,1,2,4,3
15.67,2,4,5,4,2,0,0,2
15.675,8,5,1,2,0,2,1,1
15.68,6,3,0,1,3,1,0,1
15.685,0,5,0,4,1,3,1,2
15.69,1,6,2,0,2,3,1,2
15.695,4,1,2,1,1,1,1,0
15.7,2,1,2,1,4,3,1,2
15.705,1,0,3,4,1,3,3,5
15.71,1,1,3,1,3,3,1,2
15.715,3,2,0,7,3,2,1,2
15.72,2,0,1,4,6,3,3,3
15.725,4,5,4,2,2,0,3,1
15.73,1,1,0,0,1,1,1,3
15.735,2,3,2,2,0,1,1,1
15.74,2,1,0,1,5,5,3,4
15.745,10,3,3,0,1,0,0,3
15.75,4,6,7,6,3,2,1,0
15.755,7,0,2,2,2,4,4,0
15.76,3,4,1,5,2,0,0,1
15.765,8,9,0,7,5,0,0,2
15.77,8,2,0,1,0,1,0,1
15.775,2,1,3,2,0,2,2,1
15.78,0,0,3,2,4,1,3,2
15.785,1,2,7,2,1,1,0,1
15.79,4,2,1,2,1,2,2,1
15.795,0,2,0,1,1,0,1,2
15.8,3,2,3,2,2,3,4,5
15.805,0,1,3,3,1,0,1,1
15.81,6,1,3,4,0,1,1,5
15.815,1,1,1,1,1,2,3,2
15.82,2,2,1,2,2,2,1,0
15.825,2,4,2,12,7,2,2,0
15.83,2,2,0,2,5,6,4,3
15.835,1,2,2,5,2,2,0,1
15.84,4,7,9,13,7,3,0,1
15.845,4,1,1,6,2,0,4,5
15.85,1,4,2,3,2,2,0,1
15.855,0,1,0,1,4,4,2,2
15.86,2,3,3,2,0,2,1,0
15.865,2,1,2,5,1,0,1,1
15.87,1,1,2,4,0,1,0,1
15.875,8,3,1,1,1,0,1,1
15.88,15,13,3,1,1,5,1,1
15.885,1,1,1,3,7,5,1,1
15.89,0,2,1,1,5,3,2,4
15.895,2,1,0,2,3,1,1,3
15.9,6,5,0,2,2,1,1,2
15.905,2,2,1,3,2,3,1,1
15.91,3,0,1,1,7,3,3,2
15.915,2,6,4,4,7,0,1,2
15.92,3,0,2,1,3,5,2,0
15.925,3,0,2,3,1,2,0,1
15.93,0,1,2,10,6,4,1,1
15.935,3,1,2,2,0,2,2,2
15.94,0,1,1,5,8,8,4,4
15.945,2,0,1,5,8,2,0,2
15.95,2,8,15,35,6,1,0,1
15.955,3,3,2,5,2,5,1,3
15.96,0,1,7,10,3,4,4,0
15.965,4,6,22,11,1,7,3,3
15.97,3,3,3,27,2,2,2,0
15.975,4,6,47,65,10,4,3,3
15.98,1,3,4,6,0,3,2,3
15.985,2,7,22,4,11,7,6,2
15.99,3,5,6,58,9,1,2,5
15.995,1,2,6,55,7,2,0,1
16,3,4,7,17,2,1,1,3
16.005,2,5,26,6,0,3,0,0
16.01,3,6,52,20,0,2,1,3
16.015,1,6,5,3,10,3,0,3
16.02,1,2,9,20,5,1,1,0
16.025,3,3,2,3,1,4,2,3
16.03,0,2,1,37,4,1,1,1
16.035,1,3,21,35,2,1,1,1
16.04,2,3,30,43,1,1,1,1
16.045,1,1,10,9,0,0,1,0
16.05,3,5,16,44,5,1,2,2
16.055,2,1,13,2,0,0,0,2
16.06,2,8,4,43,15,6,0,1
16.065,0,9,17,57,9,5,4,1
16.07,7,6,6,21,12,7,3,7
16.075,8,6,16,12,5,4,4,5
16.08,1,5,10,31,1,2,1,0
16.085,6,4,6,57,7,4,2,1
16.09,5,4,23,74,3,1,3,0
16.095,1,1,5,12,3,0,0,0
16.1,5,9,18,6,10,5,2,3
16.105,2,3,24,15,1,0,1,0
16.11,2,0,14,28,6,1,1,1
16.115,8,12,10,21,13,6,1,4
16.12,0,1,21,12,5,3,3,3
16.125,8,20,71,68,29,12,5,4
16.13,5,1,1,32,1,0,0,5
16.135,5,3,9,35,5,4,1,3
16.14,3,10,13,16,12,5,3,4
16.145,12,12,11,33,3,5,1,2
16.15,25,0,20,15,7,1,0,6
16.155,1,3,21,26,11,4,2,1
16.16,3,10,36,15,1,1,0,1
16.165,5,3,12,46,7,2,3,2
16.17,1,3,15,8,6,4,0,5
16.175,8,4,6,2,4,3,0,6
16.18,2,3,23,3,3,2,0,2
16.185,2,4,8,43,10,3,0,1
16.19,10,3,0,72,16,3,1,2
16.195,13,1,4,41,13,4,4,5
16.2,7,6,12,18,1,1,0,1
16.205,8,11,19,33,9,3,0,2
16.21,7,4,28,29,6,1,0,4
16.215,9,4,48,65,18,8,4,3
16.22,7,4,1,76,13,3,1,3
16.225,35,26,24,28,24,12,8,10
16.23,26,15,28,4,10,3,0,2
16.235,12,2,41,14,7,6,5,2
16.24,7,4,23,21,3,5,2,4
16.245,7,9,24,40,14,9,4,5
16.25,2,2,6,4,1,1,0,2
16.255,13,6,1,13,2,2,4,8
16.26,7,11,34,25,3,1,3,1
16.265,20,13,1,70,1,1,4,13
16.27,1,14,55,23,9,3,1,3
16.275,3,6,60,84,3,2,1,1
16.28,13,21,37,0,27,15,9,6
16.285,1,11,34,15,14,6,2,4
16.29,17,5,27,19,8,3,3,3
16.295,5,9,39,20,6,0,0,2
16.3,9,7,9,13,7,5,3,3
16.305,4,2,4,11,6,3,2,0
16.31,4,2,6,10,1,2,1,4
16.315,5,4,0,2,5,3,1,1
16.32,9,17,14,13,6,7,6,6
16.325,10,14,19,38,7,3,2,5
16.33,3,3,18,29,9,4,3,1
16.335,2,13,9,32,1,0,0,2
16.34,4,6,12,28,1,1,0,6
16.345,2,6,1,11,11,4,2,3
16.35,1,0,16,28,9,4,2,1
16.355,12,12,20,16,1,1,4,3
16.36,2,6,16,12,2,2,1,3
16.365,9,2,1,21,1,2,2,0
16.37,1,5,22,17,6,1,1,1
16.375,13,2,27,22,0,5,3,7
16.38,10,4,15,14,2,3,6,7
16.385,1,1,11,7,2,0,2,1
16.39,3,7,17,16,0,0,3,3
16.395,9,5,13,29,0,0,0,2
16.4,7,5,11,5,5,5,1,4
16.405,6,4,12,34,2,3,1,1
16.41,3,1,12,14,3,4,3,1
16.415,0,1,1,4,2,3,1,1
16.42,2,6,8,17,4,1,1,2
16.425,1,1,3,15,2,2,0,3
16.43,1,3,14,10,5,1,1,1
16.435,10,8,30,1,2,4,3,2
16.44,0,7,17,23,9,5,3,1
16.445,4,9,13,4,6,4,1,0
16.45,4,7,7,24,1,1,1,2
16.455,2,1,8,29,5,3,1,1
16.46,7,2,4,9,2,1,2,2
16.465,9,3,3,3,4,3,1,1
16.47,0,4,1,1,4,3,0,1
16.475,10,3,4,13,0,0,1,0
16.48,0,4,16,28,2,0,1,1
16.485,7,0,10,6,7,2,1,1
16.49,8,0,8,21,2,0,0,2
16.495,13,7,6,29,5,4,2,5
16.5,7,7,35,35,8,3,1,1
16.505,17,16,41,27,12,8,4,5
16.51,6,1,1,7,5,4,4,4
16.515,0,9,10,10,3,3,1,0
16.52,9,4,19,8,5,1,0,5
16.525,2,3,6,11,3,0,1,1
16.53,6,16,31,27,14,6,3,4
16.535,1,1,9,15,1,3,1,2
16.54,1,2,15,10,0,1,0,1
16.545,3,2,3,22,3,3,5,6
16.55,5,1,14,28,3,1,1,1
16.555,8,0,18,42,4,2,1,1
16.56,2,0,23,50,8,2,1,2
16.565,6,1,14,21,1,0,1,3
16.57,2,2,18,11,3,1,0,2
16.575,8,1,3,21,4,0,1,3
16.58,0,0,8,35,2,3,1,1
16.585,10,1,2,13,1,2,2,1
16.59,8,0,14,15,1,2,0,0
16.595,9,2,5,24,3,0,0,3
16.6,10,4,14,38,3,3,2,7
16.605,2,2,18,25,1,2,2,1
16.61,1,1,0,14,2,1,0,3
16.615,5,4,10,3,1,1,2,4
16.62,0,2,7,14,2,1,1,1
16.625,2,2,5,26,6,5,3,2
16.63,4,4,13,23,5,3,0,0
16.635,11,6,18,32,8,4,2,0
16.64,5,4,7,26,4,1,2,2
16.645,10,1,6,23,3,1,1,5
16.65,0,2,2,19,2,2,1,2
16.655,2,2,2,2,3,1,1,1
16.66,1,1,11,19,4,0,1,1
16.665,3,1,8,16,6,0,0,0
16.67,1,1,0,10,3,5,2,1
16.675,6,0,10,12,1,1,2,2
16.68,3,2,3,14,1,1,2,1
16.685,6,7,1,5,1,4,2,7
16.69,1,2,6,6,3,2,1,0
16.695,4,2,0,7,0,2,2,0
16.7,4,1,2,11,2,2,1,0
16.705,3,2,1,25,4,2,0,1
16.71,2,4,1,21,5,1,2,2
16.715,3,3,2,4,2,2,0,0
16.72,2,4,7,5,1,0,2,1
16.725,1,3,9,9,0,1,1,1
16.73,7,1,2,2,2,2,1,1
16.735,1,0,0,2,1,1,1,0
16.74,5,3,4,8,6,2,2,1
16.745,2,0,9,9,1,0,0,2
16.75,5,0,12,10,1,2,0,0
16.755,3,3,3,6,3,2,2,2
16.76,1,3,1,0,2,4,1,2
16.765,0,2,22,39,5,4,1,2
16.77,4,4,44,59,11,2,0,1
16.775,6,1,11,23,5,2,0,1
16.78,1,2,5,2,2,1,1,1
16.785,1,2,6,8,1,1,0,2
16.79,10,6,19,29,7,1,1,1
16.795,12,1,5,6,1,1,1,5
16.8,1,2,2,16,3,0,0,1
16.805,2,4,0,8,2,2,0,0
16.81,8,2,8,6,2,1,1,0
16.815,6,1,5,11,1,3,1,0
16.82,5,3,2,5,4,4,3,5
16.825,3,0,5,6,2,1,2,3
16.83,7,2,5,1,0,2,1,1
16.835,2,3,1,9,3,3,2,0
16.84,0,0,2,2,1,1,2,1
16.845,3,5,3,5,0,0,2,1
16.85,11,14,2,3,2,2,2,2
16.855,2,0,1,6,3,3,2,1
16.86,1,1,2,1,1,0,0,0
16.865,2,2,2,9,0,0,1,3
16.87,3,3,3,7,2,1,1,1
16.875,4,3,2,0,0,4,2,1
16.88,6,3,2,4,2,7,4,6
16.885,6,16,8,9,7,3,1,1
16.89,3,5,5,7,1,1,1,3
16.895,3,3,9,11,7,4,7,7
16.9,7,8,1,4,0,3,2,6
16.905,0,1,0,9,3,2,2,5
16.91,0,2,4,4,3,5,6,4
16.915,12,1,5,3,4,0,1,1
16.92,11,28,6,3,2,2,1,0
16.925,8,3,1,3,4,4,5,12
16.93,13,2,3,3,4,5,7,13
16.935,8,3,3,6,2,2,2,7
16.94,2,3,6,17,10,3,4,4
16.945,2,1,2,2,2,4,3,2
16.95,23,8,2,0,5,5,6,9
16.955,6,1,3,4,4,3,2,8
16.96,6,1,2,5,4,1,0,4
16.965,13,1,2,1,1,1,1,4
16.97,6,4,2,1,2,2,1,2
16.975,6,6,3,3,3,2,2,4
16.98,0,1,1,2,3,4,2,4
16.985,11,4,2,3,0,1,2,3
16.99,9,12,0,2,2,1,1,1
16.995,1,3,3,3,0,1,0,0
17,9,2,1,2,3,2,4,7
17.005,3,0,0,0,3,4,1,4
17.01,6,8,3,2,1,3,4,6
17.015,8,2,0,3,1,1,1,0
17.02,5,0,2,0,0,0,2,3
17.025,5,8,5,0,2,3,1,6
17.03,0,1,1,0,2,1,1,4
17.035,0,4,4,5,3,3,4,6
17.04,1,6,2,2,0,3,0,5
17.045,1,1,2,1,4,3,2,4
17.05,0,1,4,5,9,4,0,2
17.055,2,6,4,8,1,2,3,1
17.06,2,5,2,3,3,2,0,2
17.065,8,1,1,6,11,7,1,2
17.07,2,1,1,2,6,5,5,3
17.075,3,1,4,2,1,3,2,2
17.08,1,0,1,1,1,2,2,3
17.085,2,0,1,6,6,3,1,1
17.09,4,2,2,3,0,2,5,3
17.095,0,2,4,4,2,2,2,1
17.1,11,5,4,1,0,1,1,1
17.105,1,2,0,1,4,3,2,6
17.11,3,1,1,6,5,1,3,1
17.115,3,2,2,7,4,1,2,2
17.12,2,1,3,2,3,1,1,1
17.125,3,4,1,0,2,4,3,3
17.13,1,3,4,2,1,0,0,1
17.135,5,3,2,0,2,1,1,2
17.14,8,2,2,5,5,1,0,2
17.145,2,1,1,6,1,0,1,2
17.15,1,1,2,4,4,4,2,2
17.155,2,3,0,2,0,2,3,2
17.16,0,3,0,2,0,2,3,5
17.165,0,3,4,1,0,1,2,2
17.17,5,5,3,5,3,2,1,2
17.175,1,1,0,1,3,1,2,1
17.18,2,4,4,0,2,2,3,2
17.185,4,3,4,3,5,2,1,1
17.19,2,2,2,1,2,1,0,2
17.195,5,6,5,1,1,1,2,3
17.2,2,0,3,5,4,1,1,1
17.205,1,3,1,3,2,0,2,1
17.21,0,0,1,2,3,1,2,5
17.215,2,4,3,2,1,2,1,0
17.22,2,1,1,6,5,4,4,4
17.225,2,3,1,0,0,0,1,1
17.23,3,1,2,2,1,0,1,2
17.235,3,1,0,2,2,1,2,1
17.24,10,12,3,2,1,0,2,0
17.245,2,1,1,2,0,2,3,6
17.25,1,0,3,1,2,2,2,2
17.255,4,4,1,3,2,1,1,2
17.26,4,2,1,8,6,2,1,3
17.265,2,5,4,1,2,4,3,1
17.27,1,2,5,16,7,1,2,1
17.275,5,7,10,8,9,5,1,1
17.28,1,0,1,4,5,0,3,1
17.285,3,1,1,1,5,3,2,4
17.29,1,2,1,10,7,3,1,1
17.295,5,3,5,15,8,3,3,1
17.3,2,5,6,0,3,2,0,1
17.305,1,0,1,6,3,2,1,0
17.31,3,2,3,2,0,1,0,2
17.315,3,0,4,2,2,1,1,2
17.32,0,0,5,5,4,4,0,2
17.325,2,3,3,1,0,1,0,2
17.33,2,3,3,10,1,1,2,2
17.335,1,1,7,11,1,1,0,1
17.34,3,6,5,20,5,0,0,0
17.345,2,8,26,1,4,0,2,2
17.35,6,8,1,4,2,3,3,4
17.355,2,2,6,19,2,3,2,2
17.36,1,2,4,1,8,3,0,0
17.365,1,0,10,23,4,2,1,0
17.37,1,0,5,7,8,5,1,1
17.375,4,8,11,21,11,8,4,3
17.38,8,8,46,82,12,6,3,6
17.385,0,5,13,4,0,2,3,2
17.39,1,12,84,54,2,1,1,1
17.395,1,13,77,30,2,1,1,0
17.4,6,6,31,52,13,3,0,3
17.405,2,4,15,34,2,2,2,3
17.41,3,4,6,6,8,4,2,1
17.415,1,9,26,35,8,5,2,1
17.42,3,11,45,43,22,10,7,5
17.425,4,1,26,10,1,0,0,1
17.43,2,5,2,4,3,1,0,0
17.435,8,5,25,37,0,1,2,2
17.44,2,2,13,35,11,3,1,2
17.445,6,0,2,5,5,4,2,0
17.45,11,6,8,16,3,1,0,4
17.455,6,2,8,12,1,1,2,0
17.46,2,1,2,6,6,4,3,4
17.465,1,3,14,29,2,2,0,4
17.47,9,18,45,3,19,10,6,7
17.475,6,2,31,31,3,0,2,4
17.48,18,3,33,19,6,1,1,1
17.485,15,5,36,23,4,0,0,0
17.49,4,3,4,11,11,2,0,1
17.495,4,2,12,35,9,0,0,1
17.5,1,3,15,14,11,4,4,2
17.505,15,24,77,15,19,8,5,8
17.51,10,5,3,44,6,7,5,10
17.515,7,2,24,17,8,6,4,7
17.52,6,4,9,10,5,1,1,0
17.525,7,10,22,35,8,3,1,2
17.53,8,11,17,11,4,2,1,4
17.535,2,8,6,21,6,2,1,4
17.54,4,7,17,59,9,3,2,1
17.545,7,12,3,14,25,17,8,12
17.55,2,4,13,38,7,6,2,1
17.555,2,4,26,36,6,5,3,1
17.56,6,11,51,26,4,4,5,6
17.565,2,5,5,47,1,0,2,2
17.57,5,5,5,9,3,3,3,5
17.575,4,2,4,3,5,2,1,4
17.58,2,2,54,39,3,4,2,0
17.585,1,3,19,20,4,2,1,1
17.59,11,15,49,45,15,9,6,7
17.595,5,8,11,26,11,7,2,2
17.6,2,1,3,41,12,4,3,2
17.605,0,6,21,58,10,4,2,1
17.61,5,14,6,20,7,4,2,2
17.615,3,13,14,13,9,5,2,1
17.62,3,31,100,84,14,6,4,4
17.625,13,7,55,87,5,1,0,0
17.63,11,15,5,29,4,4,3,6
17.635,18,13,16,39,8,5,1,1
17.64,23,18,14,49,4,3,2,4
17.645,6,5,8,35,3,3,1,1
17.65,1,7,10,82,4,1,1,0
17.655,8,8,20,65,5,0,0,0
17.66,14,0,40,83,11,1,2,2
17.665,7,0,12,31,2,1,0,2
17.67,3,10,3,9,4,3,2,0
17.675,4,9,22,19,9,4,1,3
17.68,2,3,15,50,2,0,2,1
17.685,4,13,10,4,4,2,2,2
17.69,8,3,17,51,5,1,0,0
17.695,18,4,0,3,0,0,0,1
17.7,20,7,18,16,3,0,2,7
17.705,1,2,1,24,4,2,2,4
17.71,1,5,2,39,0,3,2,3
17.715,2,3,13,27,0,0,4,1
17.72,3,2,5,70,2,6,2,0
17.725,8,14,34,76,12,3,1,3
17.73,6,7,21,26,2,3,4,5
17.735,4,4,5,73,6,2,2,4
17.74,1,0,21,24,1,3,1,1
17.745,3,3,2,5,3,0,2,2
17.75,6,0,13,30,6,5,4,3
17.755,1,2,18,3,1,1,0,0
17.76,5,1,6,9,3,1,3,4
17.765,7,1,5,1,3,1,1,1
17.77,0,3,4,29,1,3,2,2
17.775,1,1,10,35,4,0,2,4
17.78,15,15,29,105,11,3,2,1
17.785,9,5,24,72,0,1,1,3
17.79,9,12,41,15,7,6,3,5
17.795,3,2,8,12,3,0,0,2
17.8,11,1,22,13,2,2,0,2
17.805,2,13,25,6,7,3,0,0
17.81,0,13,7,33,7,2,0,3
17.815,0,0,2,6,4,2,1,3
17.82,9,2,16,28,3,2,1,4
17.825,8,6,15,29,7,5,4,5
17.83,7,7,15,13,6,1,1,1
17.835,3,2,24,45,5,5,2,0
17.84,1,5,6,37,3,4,2,3
17.845,3,1,3,12,2,0,1,0
17.85,2,3,8,23,1,1,2,0
17.855,6,6,9,43,2,2,1,1
17.86,15,11,58,73,9,1,2,5
17.865,1,10,32,68,12,11,11,14
17.87,12,2,6,10,3,2,0,0
17.875,4,4,19,17,2,1,1,1
17.88,1,6,37,4,0,2,0,2
17.885,7,2,3,41,7,4,1,1
17.89,11,5,25,11,1,1,1,3
17.895,15,9,4,35,1,5,4,0
17.9,31,9,6,11,6,2,0,5
17.905,17,6,15,42,12,4,1,1
17.91,11,7,5,11,7,3,1,1
17.915,14,9,7,42,1,6,4,4
17.92,2,5,37,46,4,1,1,0
17.925,16,17,39,28,8,3,0,2
17.93,14,10,26,1,2,2,2,4
17.935,8,6,7,26,4,0,1,5
17.94,8,6,2,25,2,4,2,4
17.945,0,11,26,21,4,3,0,3
17.95,2,4,10,6,4,0,2,2
17.955,3,7,2,5,7,2,2,0
17.96,5,7,23,34,3,1,1,2
17.965,0,4,12,19,1,2,1,1
17.97,1,4,19,25,1,1,1,0
17.975,11,13,55,26,9,4,4,5
17.98,0,1,16,11,1,0,1,1
17.985,9,6,20,16,7,7,3,3
17.99,9,12,39,16,9,4,3,2
17.995,0,5,18,14,5,3,2,2
18,0,6,3,1,2,1,0,2
18.005,5,1,1,23,1,2,1,3
18.01,2,4,13,35,0,2,2,0
18.015,2,1,1,5,5,4,1,3
18.02,15,1,5,9,5,2,2,12
18.025,13,4,10,2,3,1,1,2
18.03,10,0,8,10,2,1,2,2
18.035,6,11,37,3,12,6,4,2
18.04,0,5,14,12,2,1,0,1
18.045,5,13,12,1,2,0,0,2
18.05,12,0,10,37,3,1,1,1
18.055,31,9,9,6,2,4,3,6
18.06,10,2,7,16,3,1,2,1
18.065,6,0,5,3,6,4,3,1
18.07,1,2,1,12,0,1,1,1
18.075,6,5,19,17,6,4,0,1
18.08,0,1,1,0,3,1,2,1
18.085,3,1,4,0,3,1,2,1
18.09,0,3,2,5,4,1,2,3
18.095,3,6,26,13,4,1,0,1
18.1,2,3,29,25,5,2,1,2
18.105,4,4,13,7,0,1,2,2
18.11,3,1,0,1,5,1,1,0
18.115,7,5,9,4,1,2,1,0
18.12,14,6,7,5,0,2,1,5
18.125,2,1,12,13,4,3,2,0
18.13,4,2,4,1,4,1,4,5
18.135,1,0,15,20,7,2,2,1
18.14,1,3,1,3,4,3,0,0
18.145,3,3,6,10,3,5,2,1
18.15,2,0,3,34,2,0,1,1
18.155,1,1,1,3,1,1,1,2
18.16,7,1,5,0,5,0,3,3
18.165,1,1,6,0,2,1,0,0
18.17,7,7,2,0,6,3,3,4
18.175,2,1,1,3,2,2,2,3
18.18,5,5,1,2,0,1,2,3
18.185,3,1,1,1,1,1,1,1
18.19,3,5,3,8,2,0,0,1
18.195,1,4,1,9,5,3,2,2
18.2,5,0,6,8,1,0,1,0
18.205,3,3,4,2,5,1,0,0
18.21,0,0,1,2,1,4,1,2
18.215,2,3,0,0,1,1,2,2
18.22,3,3,1,1,1,4,3,2
18.225,3,3,4,6,1,3,1,2
18.23,2,5,3,0,2,0,0,0
18.235,1,4,6,8,0,2,1,2
18.24,3,1,2,0,1,2,1,0
18.245,1,1,4,10,1,1,1,2
18.25,2,3,4,7,0,2,3,1
18.255,3,6,6,3,4,1,1,4
18.26,2,5,4,2,3,2,1,4
18.265,5,6,4,3,3,5,4,7
18.27,1,3,3,2,4,1,0,0
18.275,4,3,3,3,2,1,3,2
18.28,3,2,2,1,0,1,0,3
18.285,2,1,5,4,3,2,1,1
18.29,4,2,1,1,0,1,0,0
18.295,4,11,1,4,4,1,2,3
18.3,1,1,1,2,0,1,3,0
18.305,1,3,2,1,1,0,0,1
18.31,8,2,1,1,0,1,2,0
18.315,0,7,1,2,1,2,2,3
18.32,6,0,3,2,1,1,2,1
18.325,1,4,4,4,4,5,5,11
18.33,8,4,1,1,0,1,0,4
18.335,2,3,8,4,3,1,1,0
18.34,0,2,1,1,1,2,1,3
18.345,3,4,2,0,3,4,4,4
18.35,3,8,2,1,0,1,3,1
18.355,3,6,8,2,1,4,2,1
18.36,2,5,5,5,4,4,5,7
18.365,3,3,2,4,2,1,1,5
18.37,2,2,0,0,1,2,2,1
18.375,11,9,4,2,1,2,4,3
18.38,2,0,3,4,5,5,1,4
18.385,2,1,1,0,2,1,0,1
18.39,1,7,3,4,3,3,4,3
18.395,1,3,4,7,3,2,1,0
18.4,7,2,2,1,3,3,1,2
18.405,18,5,3,2,2,2,2,3
18.41,1,4,1,7,1,5,2,0
18.415,1,4,5,4,10,4,2,1
18.42,3,1,2,7,4,2,1,0
18.425,1,2,3,1,2,1,1,1
18.43,3,1,1,2,3,6,7,11
18.435,0,1,1,3,1,4,3,4
18.44,1,3,4,1,0,2,0,1
18.445,4,4,2,3,2,2,4,7
18.45,12,10,8,8,5,4,0,0
18.455,5,7,4,3,3,5,0,2
18.46,5,7,6,4,1,1,0,1
18.465,3,4,4,2,3,1,2,0
18.47,3,2,1,3,3,2,1,1
18.475,3,0,3,2,2,4,1,1
18.48,7,2,1,3,2,3,0,1
18.485,1,5,1,5,4,1,1,3
18.49,2,3,0,2,2,1,1,1
18.495,2,8,6,5,6,1,1,0
18.5,0,1,2,5,3,1,6,11
18.505,0,5,5,8,6,2,1,0
18.51,2,2,3,1,1,2,1,0
18.515,0,1,3,2,2,2,1,2
18.52,6,5,0,1,0,0,1,3
18.525,12,16,5,4,5,1,2,2
18.53,1,3,3,0,0,0,0,1
18.535,3,2,3,2,3,4,5,8
18.54,1,1,1,4,9,6,1,3
18.545,3,2,1,1,0,3,4,2
18.55,1,0,1,3,2,0,1,1
18.555,4,3,6,4,6,3,3,2
18.56,4,4,1,1,5,3,2,3
18.565,2,3,7,4,3,1,3,1
18.57,2,2,4,10,2,0,1,1
18.575,3,2,2,0,1,1,3,1
18.58,1,4,4,3,2,3,2,3
18.585,0,2,1,1,4,3,1,4
18.59,1,1,0,3,2,1,2,2
18.595,3,0,0,4,2,1,1,3
18.6,1,1,4,3,1,0,1,0
18.605,3,1,2,1,2,0,1,1
18.61,0,1,2,6,3,1,0,1
18.615,1,1,1,1,3,2,1,0
18.62,2,0,2,0,2,3,1,2
18.625,3,7,8,4,1,2,2,3
18.63,1,2,2,3,2,0,1,0
18.635,1,2,3,5,4,1,1,2
18.64,3,1,6,5,1,3,2,1
18.645,0,3,0,4,4,1,1,0
18.65,1,3,1,1,2,1,0,3
18.655,3,1,1,3,7,5,3,1
18.66,0,3,3,1,2,1,1,0
18.665,1,4,0,5,4,3,1,1
18.67,1,1,3,3,0,1,2,0
18.675,3,3,3,11,2,0,3,2
18.68,0,1,3,16,10,3,1,1
18.685,1,0,4,1,6,7,2,2
18.69,0,1,7,3,0,1,1,2
18.695,3,6,24,2,10,6,1,3
18.7,1,1,11,21,1,1,1,1
18.705,3,7,15,20,9,1,1,3
18.71,2,3,37,29,6,0,0,0
18.715,7,10,21,28,12,6,2,4
18.72,6,17,73,55,19,10,6,6
18.725,0,1,11,10,4,5,1,2
18.73,1,2,6,3,3,1,0,2
18.735,8,13,6,43,22,10,6,7
18.74,4,11,24,22,11,4,5,2
18.745,1,6,9,25,10,0,0,1
18.75,2,7,28,1,7,3,0,0
18.755,0,10,8,28,17,5,1,0
18.76,3,5,2,38,9,2,3,0
18.765,8,9,12,11,22,7,3,4
18.77,5,11,8,6,7,7,3,5
18.775,2,0,0,24,5,3,3,4
18.78,3,0,11,56,4,1,1,4
18.785,6,9,22,21,10,5,0,4
18.79,3,4,22,1,5,3,2,2
18.795,1,1,4,16,8,4,3,1
18.8,5,12,9,26,2,3,3,2
18.805,6,7,17,17,12,4,1,5
18.81,2,5,25,6,14,8,3,3
18.815,5,5,4,87,11,5,4,5
18.82,1,8,37,65,6,1,1,2
18.825,7,1,20,50,4,2,0,2
18.83,2,10,33,26,4,0,0,3
18.835,21,0,25,42,3,3,2,3
18.84,6,6,19,44,9,5,4,6
18.845,1,5,3,22,4,4,1,3
18.85,6,8,9,1,17,8,2,4
18.855,12,9,13,15,7,5,2,4
18.86,3,1,12,10,14,6,4,6
18.865,10,16,16,19,26,16,9,6
18.87,7,9,21,17,4,5,2,4
18.875,4,0,17,21,8,6,2,1
18.88,2,11,4,57,18,11,4,6
18.885,1,10,25,25,18,10,6,3
18.89,13,3,29,14,3,1,1,8
18.895,2,6,23,7,2,1,1,1
18.9,16,2,2,17,5,0,1,2
18.905,5,5,16,25,1,2,1,0
18.91,3,2,18,25,1,1,2,2
18.915,1,9,25,27,12,5,2,3
18.92,12,10,34,25,8,5,2,2
18.925,15,13,27,29,7,3,1,3
18.93,21,37,82,81,39,22,11,12
18.935,6,3,17,2,5,2,2,1
18.94,2,3,19,1,7,7,4,4
18.945,5,7,10,3,1,2,2,3
18.95,9,3,35,85,15,6,2,6
18.955,13,3,9,16,1,1,0,0
18.96,27,25,41,90,24,11,6,13
18.965,2,6,8,17,13,9,3,1
18.97,7,11,16,8,1,1,1,1
18.975,3,14,9,17,20,15,6,4
18.98,10,12,1,3,20,10,4,4
18.985,1,8,11,14,12,6,2,2
18.99,1,7,28,26,8,7,3,1
18.995,1,1,22,71,4,0,1,2
19,3,4,4,25,10,5,2,0
19.005,7,1,37,56,13,4,1,1
19.01,15,4,33,70,1,1,1,2
19.015,8,3,43,48,17,5,4,1
19.02,5,11,19,80,4,4,2,5
19.025,10,2,8,1,3,1,1,1
19.03,15,18,41,17,15,7,2,2
19.035,7,9,20,37,7,5,4,5
19.04,3,4,4,13,1,1,1,4
19.045,1,6,14,16,11,7,0,0
19.05,2,2,4,1,10,6,2,3
19.055,4,8,14,17,11,7,2,3
19.06,3,13,38,36,7,4,3,5
19.065,1,2,17,20,6,1,0,1
19.07,4,3,18,55,5,3,2,2
19.075,7,4,19,3,6,3,1,3
19.08,4,5,5,6,9,5,2,1
19.085,1,9,27,28,5,2,0,0
19.09,4,19,2,58,10,10,5,5
19.095,7,6,22,14,7,3,0,4
19.1,7,4,7,34,4,2,1,2
19.105,7,7,34,57,17,10,5,4
19.11,7,1,17,4,6,2,1,2
19.115,3,12,31,70,8,1,0,0
19.12,13,7,41,59,7,1,1,3
19.125,16,6,27,8,4,5,4,8
19.13,15,13,21,7,5,2,1,1
19.135,26,13,2,19,5,7,3,7
19.14,0,2,5,51,6,1,1,1
19.145,8,7,1,7,8,7,2,2
19.15,0,0,4,43,0,1,3,3
19.155,2,5,2,64,1,4,2,3
19.16,1,8,1,19,2,1,4,3
19.165,0,9,13,14,4,6,4,7
19.17,8,2,20,48,3,1,2,2
19.175,1,5,13,0,3,0,1,1
19.18,0,10,0,13,8,5,2,1
19.185,4,7,5,9,5,6,4,4
19.19,1,6,27,17,3,1,0,0
19.195,0,3,15,29,2,1,0,1
19.2,5,4,25,7,9,6,4,2
19.205,3,5,14,30,6,4,0,2
19.21,3,3,3,21,1,2,1,0
19.215,6,2,17,20,1,3,1,1
19.22,4,9,58,53,10,6,3,3
19.225,7,4,4,2,0,0,0,1
19.23,2,5,9,15,2,1,1,1
19.235,9,7,25,0,2,1,1,1
19.24,10,1,29,26,4,2,3,1
19.245,3,8,24,17,16,6,3,1
19.25,1,9,8,20,0,1,1,4
19.255,2,3,3,5,2,3,4,1
19.26,1,2,1,37,0,2,1,0
19.265,0,2,6,14,2,1,1,0
19.27,5,0,10,57,6,2,3,3
19.275,1,0,6,42,11,6,3,2
19.28,1,4,6,7,6,3,0,1
19.285,9,3,20,17,2,1,1,1
19.29,1,0,16,6,3,0,0,2
19.295,6,4,21,8,2,4,2,3
19.3,5,4,36,2,1,1,0,2
19.305,8,2,10,8,3,1,1,4
19.31,10,3,16,27,2,2,0,2
19.315,4,12,24,7,8,6,4,3
19.32,6,1,30,14,2,1,2,1
19.325,17,2,6,6,5,1,0,1
19.33,1,1,6,27,7,5,5,3
19.335,18,8,5,8,2,1,0,1
19.34,3,1,0,20,1,1,3,2
19.345,1,1,18,9,2,0,1,1
19.35,1,1,8,24,5,1,1,0
19.355,1,3,23,20,3,3,2,2
19.36,3,9,1,41,13,8,3,4
19.365,8,1,2,14,4,1,2,4
19.37,3,1,2,4,2,0,1,0
19.375,8,7,24,39,7,3,1,3
19.38,7,3,2,16,0,2,1,1
19.385,11,1,30,1,2,1,2,1
19.39,0,7,14,57,14,4,5,5
19.395,3,6,6,19,2,1,1,2
19.4,1,1,1,1,1,3,0,1
19.405,3,2,11,3,3,2,0,2
19.41,8,0,7,20,2,0,1,0
19.415,15,2,8,16,4,5,1,4
19.42,25,3,17,5,1,1,2,1
19.425,1,1,24,17,4,0,1,2
19.43,0,5,21,28,8,2,1,1
19.435,1,3,6,13,3,2,2,2
19.44,2,5,17,7,3,0,4,5
19.445,1,6,1,11,5,2,0,1
19.45,4,6,5,23,10,7,3,4
19.455,2,1,1,43,1,1,1,1
19.46,6,8,8,40,5,1,0,0
19.465,3,2,22,17,9,4,3,1
19.47,5,2,22,33,5,0,1,2
19.475,10,6,3,12,4,1,3,6
19.48,1,2,8,43,0,2,4,3
19.485,5,4,16,1,3,3,2,0
19.49,17,3,4,16,3,2,3,4
19.495,8,3,4,10,2,1,1,7
19.5,6,1,9,24,4,2,1,0
19.505,4,0,6,7,2,2,1,0
19.51,1,8,17,18,12,5,2,1
19.515,1,0,1,14,4,1,2,3
19.52,10,0,5,2,2,2,2,2
19.525,5,6,12,16,4,5,5,2
19.53,35,4,0,7,0,1,1,6
19.535,4,1,8,7,4,1,0,0
19.54,1,1,2,4,1,1,0,1
19.545,4,2,2,0,1,1,1,1
19.55,5,1,1,4,3,2,0,0
19.555,4,6,10,4,12,3,2,1
19.56,1,2,6,26,5,3,3,0
19.565,4,0,4,14,3,3,0,2
19.57,2,1,9,33,4,2,3,4
19.575,2,2,2,3,2,2,0,1
19.58,5,1,3,15,2,1,1,0
19.585,4,1,6,14,3,1,1,2
19.59,2,3,2,7,1,2,1,3
19.595,1,3,1,0,1,1,1,1
19.6,1,3,5,1,2,0,1,0
19.605,4,2,6,9,1,0,2,0
19.61,1,6,3,9,2,1,2,0
19.615,1,1,2,3,3,2,2,0
19.62,2,0,0,5,4,1,1,0
19.625,2,2,3,3,0,0,0,3
19.63,5,2,1,1,0,4,2,3
19.635,3,1,4,8,2,4,2,0
19.64,0,1,3,3,4,3,1,0
19.645,6,1,13,8,0,2,1,0
19.65,4,4,22,22,5,2,2,2
19.655,5,4,1,2,3,2,1,1
19.66,5,3,1,4,2,3,2,5
19.665,2,5,1,0,1,1,2,3
19.67,8,2,2,1,1,0,2,5
19.675,0,1,1,1,0,0,3,1
19.68,4,11,7,2,3,1,1,2
19.685,3,0,7,9,5,3,1,1
19.69,3,5,6,6,1,2,0,0
19.695,1,1,3,6,1,1,0,1
19.7,2,4,1,0,0,2,3,1
19.705,17,8,2,3,2,2,0,2
19.71,5,2,0,4,2,2,4,10
19.715,3,2,2,0,2,1,2,1
19.72,11,7,0,2,1,1,3,6
19.725,8,15,9,6,2,1,2,3
19.73,4,1,2,1,1,3,4,1
19.735,3,1,2,3,0,2,3,4
19.74,4,7,3,2,2,2,0,1
19.745,7,7,1,3,2,2,2,1
19.75,1,3,0,1,2,2,4,1
19.755,3,0,1,1,1,1,3,4
19.76,2,3,10,4,3,2,3,10
19.765,6,8,2,1,1,1,1,6
19.77,8,1,3,1,3,3,6,1
19.775,2,0,0,1,0,3,5,2
19.78,11,11,6,2,0,3,2,4
19.785,2,2,2,3,1,2,2,3
19.79,5,2,2,1,3,1,1,0
19.795,1,1,1,2,1,1,2,2
19.8,2,5,2,0,0,1,2,2
19.805,2,1,4,2,2,1,0,5
19.81,4,13,7,1,3,5,6,2
19.815,2,12,9,15,10,6,3,2
19.82,0,2,2,0,0,1,0,1
19.825,1,0,1,1,1,2,1,1
19.83,3,2,2,1,2,1,2,0
19.835,9,1,0,4,1,2,4,4
19.84,2,5,2,1,1,2,2,2
19.845,7,7,2,4,4,1,1,2
19.85,0,2,1,7,6,3,2,4
19.855,4,2,2,0,3,6,5,2
19.86,0,8,4,0,0,0,1,0
19.865,3,1,2,3,2,1,2,1
19.87,6,0,0,2,1,2,3,4
19.875,3,1,1,2,1,0,1,3
19.88,7,4,1,5,11,6,3,5
19.885,3,2,5,2,3,2,1,1
19.89,2,0,1,3,2,1,5,4
19.895,1,4,4,4,3,1,1,2
19.9,2,1,1,0,1,4,2,2
19.905,7,5,8,6,6,4,1,2
19.91,1,4,1,1,1,1,1,1
19.915,24,11,0,4,1,0,1,5
19.92,2,1,3,0,1,1,3,0
19.925,6,1,2,1,0,3,5,5
19.93,9,8,0,0,0,4,5,9
19.935,4,5,2,1,3,1,1,1
19.94,3,3,1,11,5,0,1,2
19.945,0,5,1,5,4,1,0,0
19.95,3,5,5,17,9,3,0,1
19.955,3,8,6,2,1,2,1,0
19.96,1,5,4,6,2,0,1,1
19.965,1,2,1,12,6,1,1,1
19.97,2,3,1,1,3,1,2,0
19.975,1,1,3,5,1,3,2,5
19.98,0,0,3,1,0,2,1,3
19.985,1,3,3,6,5,4,4,2
19.99,4,4,2,1,0,1,0,3
19.995,10,6,2,2,2,3,1,1
20,12,11,2,5,1,1,0,1
20.005,1,1,3,7,5,4,4,5
20.01,6,1,1,4,4,4,2,4
20.015,7,5,1,3,1,1,0,2
20.02,0,1,1,3,1,2,6,5
20.025,0,1,0,3,5,2,3,2
20.03,0,3,0,8,6,5,2,1
20.035,4,3,5,1,2,0,0,2
20.04,2,3,2,2,1,1,4,1
20.045,2,2,3,2,1,2,4,4
20.05,3,5,4,0,1,3,2,2
20.055,1,1,5,1,1,1,2,0
20.06,3,2,2,2,2,0,1,2
20.065,3,2,1,1,1,3,1,4
20.07,7,4,3,2,0,4,2,9
20.075,4,1,1,1,6,4,0,0
20.08,4,0,2,0,6,1,2,0
20.085,1,0,1,0,4,2,1,0
20.09,3,4,1,10,5,0,0,0
20.095,0,0,0,1,2,3,3,2
20.1,2,4,3,4,6,3,0,1
20.105,4,3,3,3,7,1,2,3
20.11,3,0,2,7,1,1,2,3
20.115,0,1,1,6,7,5,0,1
20.12,1,2,7,0,5,4,1,1
20.125,1,1,0,4,7,6,1,3
20.13,1,1,4,1,3,2,1,1
20.135,0,0,2,4,4,2,2,1
20.14,1,2,1,2,4,3,2,1
20.145,2,1,0,4,1,2,0,3
20.15,1,2,11,8,2,3,2,1
20.155,2,2,6,26,8,2,1,2
20.16,0,1,27,35,1,1,1,2
20.165,6,8,7,8,9,3,3,3
20.17,2,1,1,20,2,1,0,1
20.175,0,3,16,22,0,4,0,3
20.18,1,6,15,47,3,2,1,0
20.185,1,1,15,14,5,1,1,1
20.19,4,10,29,23,9,4,1,3
20.195,2,5,10,6,0,2,1,3
20.2,3,6,25,66,15,5,4,1
20.205,0,1,5,9,5,1,0,2
20.21,0,4,8,26,5,2,2,1
20.215,4,10,29,28,18,7,2,2
20.22,1,0,6,22,2,1,1,0
20.225,8,16,15,47,26,10,6,6
20.23,0,2,0,21,2,1,1,1
20.235,1,4,18,2,3,2,0,1
20.24,3,0,2,6,3,1,1,3
20.245,0,1,6,25,2,3,0,0
20.25,2,5,14,4,8,4,1,1
20.255,6,7,9,26,13,5,5,8
20.26,3,6,16,39,9,6,4,3
20.265,3,3,2,26,5,3,3,1
20.27,3,5,11,30,6,3,2,1
20.275,5,1,2,25,4,1,1,2
20.28,10,2,14,55,6,5,3,7
20.285,1,1,7,18,2,1,0,0
20.29,0,2,23,26,3,2,2,2
20.295,6,13,4,15,17,10,6,5
20.3,4,4,5,21,7,2,1,2
20.305,1,4,21,24,5,1,0,3
20.31,4,0,10,30,7,4,2,7
20.315,1,1,14,51,2,2,0,3
20.32,1,0,21,19,4,1,0,1
20.325,4,7,5,4,6,7,2,2
20.33,0,6,6,60,10,5,0,2
20.335,10,4,18,4,13,4,2,4
20.34,20,3,2,9,4,2,1,0
20.345,2,2,31,36,1,2,1,3
20.35,0,3,13,5,4,5,2,2
20.355,4,13,23,36,8,2,2,6
20.36,7,5,1,41,6,2,1,2
20.365,3,1,12,6,3,4,2,2
20.37,7,4,1,33,7,3,4,6
20.375,4,1,13,4,5,1,1,1
20.38,9,3,11,38,15,8,4,1
20.385,10,5,27,26,14,4,1,1
20.39,10,5,6,21,3,3,2,5
20.395,14,12,43,82,1,3,4,3
20.4,6,10,11,44,18,7,5,2
20.405,12,3,15,32,2,1,3,8
20.41,6,6,27,38,2,3,3,0
20.415,5,0,23,18,10,5,2,3
20.42,2,2,15,36,9,4,1,2
20.425,4,1,16,12,6,1,0,1
20.43,2,7,35,24,2,1,1,2
20.435,2,8,20,11,2,2,1,1
20.44,21,24,59,86,24,12,6,11
20.445,13,7,47,69,6,0,1,0
20.45,11,5,12,38,1,1,1,0
20.455,22,13,37,34,10,5,1,4
20.46,5,11,2,33,10,8,6,6
20.465,1,6,6,26,5,2,2,1
20.47,5,9,2,42,1,3,2,1
20.475,14,5,15,73,27,12,7,6
20.48,2,15,41,46,13,12,5,5
20.485,0,3,2,7,3,8,4,2
20.49,2,3,10,9,9,0,0,0
20.495,12,20,74,90,28,13,7,6
20.5,13,10,34,54,13,9,8,10
20.505,7,19,43,60,32,17,7,5
20.51,17,7,19,74,14,7,4,6
20.515,28,10,29,90,18,9,4,9
20.52,19,22,29,33,19,10,3,6
20.525,10,9,27,26,14,9,4,3
20.53,15,13,4,36,13,10,3,7
20.535,2,1,2,54,3,3,4,4
20.54,14,4,31,48,0,1,1,2
20.545,13,4,30,18,3,1,1,3
20.55,11,10,1,21,3,0,1,3
20.555,2,16,37,14,6,2,5,4
20.56,2,2,15,32,2,3,4,7
20.565,5,8,22,43,6,5,6,7
20.57,5,3,10,3,2,1,1,3
20.575,12,9,23,38,14,12,8,8
20.58,2,8,38,35,17,9,4,3
20.585,2,1,7,28,6,3,1,2
20.59,3,3,1,29,8,0,0,1
20.595,9,13,64,51,8,5,3,6
20.6,4,3,3,13,7,3,2,2
20.605,2,1,15,23,2,5,3,2
20.61,5,2,11,2,3,0,1,3
20.615,5,13,35,30,8,5,4,5
20.62,2,8,5,20,10,5,3,6
20.625,3,5,17,14,8,2,0,0
20.63,1,3,25,61,9,4,2,3
20.635,8,1,25,84,9,1,2,0
20.64,16,1,2,49,13,5,2,3
20.645,7,9,6,7,1,2,3,3
20.65,2,6,8,5,3,2,2,1
20.655,9,15,62,53,13,3,1,3
20.66,7,9,36,59,12,6,1,3
20.665,3,7,1,57,12,8,3,3
20.67,13,6,13,15,0,0,0,0
20.675,11,5,23,34,11,1,0,2
20.68,6,1,13,23,4,2,0,1
20.685,1,4,24,54,3,4,3,1
20.69,0,7,40,93,10,6,4,3
20.695,3,7,13,37,7,4,1,2
20.7,3,4,0,26,10,5,3,1
20.705,2,4,7,28,7,5,3,2
20.71,5,6,12,73,5,6,4,3
20.715,2,1,10,9,2,1,0,0
20.72,2,9,1,13,2,2,1,1
20.725,12,12,8,6,2,2,2,4
20.73,26,10,56,90,15,5,4,6
20.735,3,8,0,19,6,5,3,3
20.74,1,11,7,11,5,2,2,1
20.745,3,5,7,13,8,5,2,0
20.75,3,2,10,15,5,2,1,2
20.755,14,5,20,53,5,0,0,2
20.76,6,14,49,70,13,7,4,3
20.765,0,5,7,3,1,0,1,1
20.77,1,1,5,7,1,0,1,4
20.775,7,3,1,1,1,0,0,0
20.78,10,2,19,47,5,3,2,1
20.785,22,4,10,14,1,1,0,0
20.79,3,4,9,24,2,0,1,1
20.795,5,5,4,11,1,0,0,2
20.8,4,6,20,18,2,3,3,1
20.805,0,5,20,1,1,1,1,1
20.81,8,5,13,18,1,1,1,2
20.815,9,1,6,17,5,2,3,2
20.82,4,8,0,23,6,2,2,0
20.825,6,7,1,9,2,0,1,1
20.83,4,10,40,48,17,10,3,1
20.835,0,4,49,71,16,6,5,4
20.84,7,18,11,11,11,8,4,5
20.845,3,7,21,23,5,1,0,0
20.85,6,4,1,25,0,1,0,1
20.855,6,8,15,6,5,4,2,1
20.86,27,3,35,9,8,4,3,2
20.865,1,9,23,14,3,5,4,4
20.87,1,1,3,10,8,5,3,1
20.875,7,3,15,4,1,0,3,6
20.88,15,1,9,3,0,0,1,2
20.885,2,2,4,18,2,3,1,2
20.89,3,10,9,15,11,9,7,3
20.895,9,7,43,47,11,5,2,3
20.9,19,13,70,78,17,6,3,2
20.905,21,2,7,5,3,0,1,5
20.91,5,1,8,15,4,1,1,3
20.915,3,1,3,18,2,3,1,0
20.92,17,3,6,29,5,2,1,0
20.925,6,6,13,9,7,3,1,1
20.93,1,2,7,7,7,1,1,0
20.935,9,0,6,16,2,1,1,1
20.94,5,1,1,6,2,1,0,6
20.945,2,1,0,0,0,1,0,2
20.95,1,1,6,16,3,1,2,4
20.955,7,7,11,13,7,3,1,1
20.96,8,7,17,28,3,1,1,1
20.965,11,0,7,5,5,2,1,2
20.97,8,1,8,19,2,2,1,0
20.975,5,3,22,8,2,2,1,1
20.98,3,0,0,1,3,2,1,0
20.985,8,0,4,3,1,1,1,1
20.99,1,1,2,2,1,0,1,2
20.995,3,5,5,6,5,2,1,0
21,3,1,13,11,3,1,1,0
21.005,5,3,11,15,0,0,0,2
21.01,7,1,2,5,0,1,1,1
21.015,0,0,1,4,1,2,1,3
21.02,7,1,6,1,3,2,1,0
21.025,2,1,4,1,4,2,3,1
21.03,4,3,5,8,1,2,2,3
21.035,6,0,6,7,1,0,1,0
21.04,3,4,4,7,3,1,0,0
21.045,14,13,10,10,3,2,2,4
21.05,1,6,1,2,4,2,2,1
21.055,4,3,3,0,3,0,0,2
21.06,3,0,1,3,0,1,3,0
21.065,8,1,6,8,5,3,1,1
21.07,1,1,2,0,0,0,1,0
21.075,2,1,3,4,2,2,2,4
21.08,3,6,5,4,7,2,1,2
21.085,8,8,0,2,1,1,0,0
21.09,6,9,5,4,2,2,2,2
21.095,1,4,0,2,0,0,0,0
21.1,1,1,1,0,1,2,2,2
21.105,3,3,4,5,2,4,3,0
21.11,8,0,2,1,2,3,2,1
21.115,2,6,3,6,4,2,1,2
21.12,5,2,3,1,3,1,3,5
21.125,2,2,1,2,4,2,2,3
21.13,2,3,1,2,0,3,1,1
21.135,4,7,0,2,1,2,1,2
21.14,2,1,1,3,1,0,3,1
21.145,5,1,3,4,5,4,4,1
21.15,0,2,0,1,3,2,5,4
21.155,1,6,2,1,0,1,1,0
21.16,4,1,0,2,0,0,2,1
21.165,7,12,7,4,4,4,1,1
21.17,1,5,1,3,1,0,2,2
21.175,3,8,0,0,1,3,0,1
21.18,11,4,0,2,0,2,1,0
21.185,3,1,1,4,0,3,7,10
21.19,0,12,3,1,2,3,4,0
21.195,0,12,3,2,2,2,0,1
21.2,3,6,3,1,1,0,1,1
21.205,0,0,3,2,3,1,3,1
21.21,6,2,5,5,5,1,1,0
21.215,12,8,2,2,0,3,0,1
21.22,13,16,1,3,1,0,0,3
21.225,10,10,10,6,4,4,8,11
21.23,6,5,2,3,3,0,3,3
21.235,0,3,2,4,3,1,0,0
21.24,6,1,2,1,1,1,1,1
21.245,4,11,1,0,2,4,3,1
21.25,16,11,4,5,6,3,3,7
21.255,1,1,3,1,3,5,6,2
21.26,1,4,1,2,0,1,2,2
21.265,7,3,2,2,2,1,1,3
21.27,11,11,2,4,1,0,0,1
21.275,17,8,2,4,2,2,0,1
21.28,0,0,1,3,5,4,4,2
21.285,2,1,0,1,2,1,2,1
21.29,4,1,2,2,1,0,1,0
21.295,0,2,1,1,1,1,1,1
21.3,1,4,1,2,1,1,0,2
21.305,0,1,1,2,0,2,1,1
21.31,5,3,1,1,3,2,1,2
21.315,7,2,1,3,4,3,2,3
21.32,8,2,4,2,1,3,3,3
21.325,2,5,5,1,2,0,2,1
21.33,0,4,1,1,3,2,2,1
21.335,2,2,3,0,7,1,0,0
21.34,1,1,1,6,5,0,1,2
21.345,3,2,2,1,3,5,1,3
21.35,13,21,10,4,3,0,2,3
21.355,6,1,1,1,1,1,2,7
21.36,0,5,2,2,1,3,2,1
21.365,1,0,2,1,1,1,2,2
21.37,0,1,4,10,9,7,3,0
21.375,3,6,2,1,6,2,2,5
21.38,4,2,5,2,2,0,1,1
21.385,1,1,4,4,2,0,3,0
21.39,1,4,1,5,4,1,0,3
21.395,3,1,2,3,5,1,1,1
21.4,8,4,3,3,1,1,3,3
21.405,3,6,3,1,2,4,1,1
21.41,3,3,2,1,2,0,4,3
21.415,0,1,5,4,2,2,1,2
21.42,1,3,3,3,2,0,1,2
21.425,1,4,3,4,1,1,6,3
21.43,3,1,2,1,1,0,1,1
21.435,5,10,0,3,0,2,1,5
21.44,10,7,6,6,5,2,1,4
21.445,4,1,0,2,0,0,2,1
21.45,4,2,2,1,1,1,0,2
21.455,3,2,2,1,2,2,2,2
21.46,11,4,2,0,1,3,1,1
21.465,5,9,0,0,4,4,1,1
21.47,1,4,4,6,4,1,2,3
21.475,3,3,6,2,3,2,2,1
21.48,2,4,4,3,2,1,1,1
21.485,3,1,5,14,7,2,1,0
21.49,2,3,1,1,0,2,1,2
21.495,4,3,0,2,0,0,1,1
21.5,2,3,4,3,1,4,3,1
21.505,1,2,1,4,0,1,0,1
21.51,3,0,3,1,2,4,2,0
21.515,2,0,4,0,0,2,1,3
21.52,0,0,3,6,2,1,1,2
21.525,2,2,1,5,2,0,1,1
21.53,4,2,3,4,4,3,0,1
21.535,3,1,3,12,9,4,2,2
21.54,0,0,0,4,3,2,1,1
21.545,1,1,0,8,1,1,0,1
21.55,2,2,6,14,3,0,0,1
21.555,2,5,3,6,3,2,1,2
21.56,0,2,1,9,4,1,1,2
21.565,2,3,3,1,4,4,4,4
21.57,2,6,2,6,0,2,2,1
21.575,1,1,0,2,2,2,1,0
21.58,1,0,9,13,5,0,1,1
21.585,0,1,5,4,8,2,2,1
21.59,3,2,19,2,1,1,1,1
21.595,1,0,5,1,16,6,1,0
21.6,1,0,19,23,2,1,1,1
21.605,4,7,8,12,6,6,1,3
21.61,1,1,21,9,3,3,1,1
21.615,3,4,2,2,8,4,1,4
21.62,1,1,12,20,1,1,1,2
21.625,4,8,23,52,10,4,2,3
21.63,3,1,15,30,2,4,0,0
21.635,3,4,1,7,0,4,3,2
21.64,2,7,19,19,7,3,0,0
21.645,5,11,42,50,12,5,3,3
21.65,1,4,20,9,3,1,0,0
21.655,3,9,20,21,8,4,2,1
21.66,1,2,10,24,0,5,3,3
21.665,1,3,15,7,9,3,2,2
21.67,0,3,17,5,3,0,1,0
21.675,8,14,27,33,24,10,7,6
21.68,2,9,39,61,10,4,1,3
21.685,0,3,17,27,4,0,1,1
21.69,2,5,16,10,11,3,1,2
21.695,2,8,11,22,11,4,4,2
21.7,1,6,2,11,4,2,2,1
21.705,1,3,17,15,6,2,1,0
21.71,1,1,8,19,6,2,1,4
21.715,3,2,1,10,2,2,2,3
21.72,2,1,1,7,8,5,0,1
21.725,1,1,5,33,2,3,3,1
21.73,1,5,0,11,5,4,2,1
21.735,0,2,11,9,2,1,1,2
21.74,2,1,7,15,1,0,1,1
21.745,4,5,24,6,2,2,0,0
21.75,4,13,54,4,13,7,5,1
21.755,2,4,3,45,6,5,2,2
21.76,6,11,19,27,14,8,3,6
21.765,15,13,11,48,22,12,7,9
21.77,4,7,18,32,9,6,4,3
21.775,2,7,15,46,5,4,0,0
21.78,1,5,1,34,3,3,2,3
21.785,6,6,49,7,10,7,4,5
21.79,5,7,17,17,0,1,0,0
21.795,1,6,13,15,9,4,2,3
21.8,3,9,26,28,2,3,1,0
21.805,6,15,21,33,2,1,1,0
21.81,0,11,44,36,6,1,2,3
21.815,3,8,37,9,10,5,3,0
21.82,8,5,19,14,2,1,1,2
21.825,9,17,42,59,14,6,5,3
21.83,14,4,8,26,5,2,1,8
21.835,3,12,21,2,6,5,2,0
21.84,0,5,16,0,1,0,2,1
21.845,0,8,34,49,9,3,1,4
21.85,2,1,17,16,6,1,0,2
21.855,2,4,9,1,5,2,1,1
21.86,10,7,19,37,20,11,6,7
21.865,8,10,16,17,11,4,4,5
21.87,3,3,14,34,19,9,2,4
21.875,23,31,58,36,52,30,16,14
21.88,10,4,41,20,13,9,4,2
21.885,16,16,57,79,7,3,3,4
21.89,27,2,11,61,2,3,0,9
21.895,1,2,9,40,9,4,2,5
21.9,4,2,39,53,1,8,6,7
21.905,15,5,29,77,13,6,4,3
21.91,15,10,22,63,11,4,3,6
21.915,12,8,1,55,4,0,0,2
21.92,3,7,10,5,3,0,1,2
21.925,6,9,15,22,14,7,3,2
21.93,1,11,19,27,21,11,5,3
21.935,3,8,35,14,13,4,1,2
21.94,0,12,17,21,0,1,1,1
21.945,11,1,1,39,4,3,5,4
21.95,10,7,6,67,1,3,0,2
21.955,9,5,33,65,9,0,2,0
21.96,3,3,15,9,11,8,2,1
21.965,4,2,6,34,3,2,2,7
21.97,4,5,20,3,9,3,2,1
21.975,16,11,40,12,17,9,4,5
21.98,12,6,9,32,8,3,1,2
21.985,26,10,2,2,15,8,5,6
21.99,2,2,21,13,2,1,0,3
21.995,13,2,6,20,5,1,2,0
22,18,13,38,76,2,3,3,7
22.005,8,10,22,30,1,2,2,1
22.01,3,5,16,11,3,2,4,4
22.015,8,14,56,23,9,4,2,2
22.02,1,3,13,15,6,4,2,1
22.025,2,1,6,4,4,5,3,2
22.03,9,6,8,27,5,4,1,1
22.035,6,6,17,10,4,3,2,1
22.04,7,0,5,3,6,0,0,2
22.045,3,5,24,38,5,2,1,1
22.05,0,8,27,11,5,3,2,4
22.055,14,3,20,4,7,8,3,3
22.06,9,2,4,2,5,4,1,2
22.065,27,13,23,19,10,7,3,6
22.07,14,3,22,31,4,4,2,7
22.075,26,14,51,87,4,1,2,3
22.08,3,5,30,35,8,5,4,2
22.085,9,13,29,22,7,5,1,0
22.09,15,14,13,33,15,7,4,6
22.095,3,8,19,16,0,0,1,0
22.1,11,2,14,36,7,4,1,2
22.105,2,9,13,34,12,7,4,0
22.11,1,11,18,32,9,3,1,1
22.115,13,11,10,2,1,0,1,1
22.12,20,12,13,18,3,3,2,2
22.125,4,9,31,22,6,1,3,6
22.13,0,3,17,16,1,4,3,3
22.135,1,2,3,26,12,8,3,3
22.14,8,2,8,13,4,3,1,0
22.145,6,1,11,3,2,2,2,0
22.15,3,5,13,14,6,5,2,4
22.155,6,0,8,4,3,1,2,1
22.16,7,10,12,12,0,1,2,5
22.165,4,3,10,39,5,2,1,0
22.17,2,11,10,29,2,3,1,1
22.175,1,1,10,22,2,2,2,3
22.18,7,9,40,11,1,1,1,1
22.185,9,12,35,6,4,4,3,4
22.19,4,14,31,69,6,2,0,3
22.195,8,1,10,18,2,2,3,3
22.2,6,4,15,19,2,2,1,1
22.205,2,3,35,48,2,4,2,1
22.21,1,2,8,28,5,2,0,1
22.215,2,2,5,9,4,0,2,4
22.22,14,11,0,2,8,3,2,7
22.225,3,2,25,8,4,1,1,0
22.23,7,11,7,24,6,5,3,3
22.235,2,1,3,5,4,2,1,2
22.24,7,2,11,3,2,1,0,1
22.245,5,4,15,13,4,0,0,0
22.25,0,1,19,1,3,1,2,3
22.255,5,1,8,14,2,1,0,1
22.26,6,5,10,34,6,1,1,2
22.265,15,3,7,39,9,3,4,3
22.27,11,2,1,3,1,1,2,2
22.275,4,8,23,18,7,1,1,2
22.28,15,6,38,25,3,3,2,2
22.285,1,4,3,15,4,1,1,0
22.29,1,2,25,27,5,1,1,2
22.295,2,3,13,27,3,0,2,1
22.3,5,2,19,33,7,3,0,1
22.305,3,1,18,3,3,0,0,2
22.31,0,2,4,9,2,0,2,0
22.315,9,4,13,4,4,0,1,0
22.32,2,8,10,9,2,2,2,1
22.325,2,3,10,4,1,2,1,1
22.33,4,1,2,7,1,1,0,1
22.335,1,4,5,45,5,1,1,2
22.34,1,4,9,5,4,2,2,3
22.345,12,3,15,30,3,2,2,1
22.35,21,6,14,21,2,1,0,1
22.355,15,5,12,4,8,6,4,7
22.36,8,4,21,17,6,3,1,1
22.365,2,5,9,19,5,1,0,0
22.37,1,8,15,10,4,1,1,0
22.375,2,14,6,39,2,3,2,2
22.38,7,12,8,35,5,2,1,0
22.385,10,9,14,6,4,2,4,4
22.39,4,3,2,16,2,1,1,1
22.395,2,3,9,8,4,0,0,2
22.4,1,3,5,6,3,1,1,0
22.405,2,1,4,18,0,1,1,2
22.41,7,5,8,24,5,3,2,4
22.415,3,0,4,18,4,3,1,0
22.42,2,3,18,0,3,0,0,0
22.425,2,10,42,41,9,6,4,1
22.43,8,3,7,9,7,5,2,5
22.435,2,3,15,2,1,0,2,2
22.44,3,1,2,2,4,0,0,1
22.445,12,2,16,32,5,1,0,0
22.45,3,2,1,12,3,4,4,0
22.455,1,0,15,29,2,1,3,0
22.46,2,3,6,34,1,1,1,2
22.465,1,2,3,13,1,1,1,2
22.47,3,3,8,13,1,0,1,0
22.475,4,1,5,6,0,1,0,0
22.48,2,2,7,11,5,2,4,0
22.485,2,2,5,3,1,3,1,1
22.49,2,1,1,0,0,2,2,2
22.495,1,0,4,4,2,2,2,3
22.5,4,3,1,1,3,4,3,3
22.505,5,2,1,2,1,2,3,6
22.51,3,1,4,7,2,1,2,1
22.515,7,5,7,1,6,3,3,3
22.52,4,7,9,10,4,3,3,2
22.525,1,1,3,11,0,2,0,1
22.53,1,1,1,1,1,2,2,0
22.535,7,3,4,11,2,2,2,1
22.54,1,3,1,2,2,2,1,2
22.545,6,1,1,4,0,2,0,2
22.55,2,1,2,1,1,3,0,0
22.555,2,2,0,1,3,3,0,1
22.56,4,2,1,4,2,2,1,0
22.565,3,4,5,5,3,2,2,1
22.57,0,2,2,9,4,2,2,2
22.575,1,1,0,5,1,2,1,1
22.58,2,0,3,4,4,1,1,2
22.585,1,0,7,6,3,1,1,2
22.59,2,3,3,2,0,1,1,0
22.595,2,2,5,4,0,0,0,3
22.6,1,1,3,1,1,2,3,1
22.605,2,0,3,5,2,1,4,2
22.61,1,6,7,4,4,3,2,1
22.615,0,3,9,7,2,1,0,0
22.62,2,3,4,1,0,3,1,1
22.625,2,4,5,5,2,2,0,4
22.63,2,1,3,2,1,2,0,1
22.635,3,1,1,3,0,2,3,2
22.64,6,9,3,2,3,3,0,2
22.645,1,0,0,4,2,0,1,1
22.65,5,5,6,4,1,0,3,5
22.655,2,6,6,6,4,2,0,0
22.66,2,2,0,1,0,1,2,1
22.665,1,4,0,1,3,4,4,4
22.67,1,7,1,2,2,1,0,2
22.675,2,7,3,3,0,1,3,0
22.68,1,0,2,0,1,1,1,3
22.685,1,4,2,1,3,4,1,0
22.69,4,9,3,3,1,1,1,1
22.695,11,10,0,2,0,2,3,4
22.7,5,2,5,1,2,2,1,5
22.705,4,3,2,4,0,2,0,3
22.71,14,4,2,1,2,1,4,2
22.715,0,3,3,4,2,1,1,2
22.72,6,7,2,2,1,1,1,2
22.725,0,3,1,1,2,0,2,1
22.73,10,10,5,6,4,4,4,2
22.735,5,3,2,1,0,1,0,1
22.74,4,1,0,4,1,1,2,2
22.745,3,2,0,3,5,3,1,9
22.75,12,11,2,1,3,0,0,1
22.755,0,2,0,1,2,4,4,6
22.76,2,2,2,1,0,0,1,2
22.765,1,1,4,3,1,0,2,3
22.77,6,4,2,4,3,4,2,1
22.775,4,2,3,2,1,4,5,5
22.78,2,3,0,1,1,0,3,3
22.785,3,9,0,2,1,0,3,0
22.79,13,9,3,3,1,0,0,3
22.795,2,1,2,3,1,0,2,1
22.8,5,2,0,5,1,1,4,3
22.805,4,4,6,9,7,3,2,0
22.81,12,1,0,2,2,1,1,7
22.815,2,6,5,7,4,2,3,5
22.82,9,1,4,2,1,1,0,4
22.825,13,8,2,5,3,0,0,0
22.83,1,8,2,1,3,2,2,2
22.835,0,4,4,3,1,2,4,4
22.84,3,0,3,7,6,4,6,6
22.845,1,5,3,2,0,1,1,0
22.85,1,1,2,2,3,0,1,1
22.855,1,0,4,2,0,1,3,1
22.86,3,3,2,3,4,5,3,5
22.865,1,2,3,2,0,1,1,1
22.87,0,5,3,5,2,4,1,0
22.875,3,3,4,6,3,5,2,3
22.88,1,1,2,8,2,2,0,0
22.885,2,2,2,3,4,3,1,3
22.89,3,3,2,1,1,0,1,3
22.895,2,5,2,4,1,3,1,2
22.9,3,7,2,3,2,1,1,0
22.905,8,3,1,2,1,1,5,5
22.91,11,8,1,1,2,3,2,3
22.915,1,3,3,1,0,2,5,4
22.92,6,0,1,3,0,2,4,2
22.925,0,2,1,2,1,3,4,6
22.93,6,1,2,2,1,1,1,2
22.935,5,3,1,3,2,2,2,3
22.94,2,1,2,0,3,0,1,0
22.945,0,3,2,1,1,1,0,1
22.95,2,1,3,4,1,1,1,1
22.955,2,1,3,2,0,1,1,2
22.96,1,1,2,1,1,3,3,2
22.965,2,2,1,3,0,1,2,3
22.97,4,5,2,2,2,3,1,2
22.975,6,0,2,5,6,3,1,0
22.98,3,4,3,5,3,1,0,3
22.985,5,3,5,6,4,0,0,1
22.99,5,1,4,2,3,3,1,3
22.995,2,2,4,4,4,1,2,1
23,3,7,2,4,3,1,1,0
23.005,2,7,0,13,2,3,3,1
23.01,4,1,2,1,0,0,1,0
23.015,1,3,3,0,5,6,3,3
23.02,7,9,1,6,2,4,3,3
23.025,1,2,2,0,2,4,0,2
23.03,3,4,6,1,0,1,0,0
23.035,0,0,0,3,7,2,0,3
23.04,1,5,8,2,4,2,2,3
23.045,3,1,1,8,7,1,1,3
23.05,1,3,3,6,6,4,3,2
23.055,1,0,2,6,3,1,1,0
23.06,1,0,1,5,11,6,5,3
23.065,4,8,11,25,7,1,0,2
23.07,0,2,2,6,2,0,0,1
23.075,0,1,2,7,6,2,1,1
23.08,1,5,11,13,10,3,1,1
23.085,1,2,4,11,4,3,3,2
23.09,1,2,3,18,10,4,1,1
23.095,2,2,12,10,3,1,2,1
23.1,3,5,27,70,16,2,2,1
23.105,2,3,13,17,12,4,1,0
23.11,2,2,7,14,2,2,2,2
23.115,6,8,5,15,10,7,3,4
23.12,0,2,13,37,5,1,1,1
23.125,1,0,11,14,5,1,0,1
23.13,9,15,34,78,16,10,5,4
23.135,0,1,26,26,8,3,1,0
23.14,0,1,15,0,1,0,2,1
23.145,1,5,40,41,9,2,1,1
23.15,6,13,28,16,17,7,1,2
23.155,2,3,25,11,7,3,1,1
23.16,5,8,16,84,17,8,5,4
23.165,0,1,11,28,6,2,0,1
23.17,1,2,9,19,2,2,0,1
23.175,1,0,17,4,5,3,3,3
23.18,0,1,15,44,8,1,1,1
23.185,3,6,15,7,6,4,3,3
23.19,2,8,14,0,4,3,0,0
23.195,1,1,5,23,1,2,1,1
23.2,1,3,29,8,0,3,1,2
23.205,4,10,15,21,13,8,5,4
23.21,0,2,7,43,6,1,2,2
23.215,1,1,38,40,8,2,1,3
23.22,5,4,23,41,13,4,1,0
23.225,4,3,4,43,13,6,5,3
23.23,12,4,13,16,5,3,2,6
23.235,1,3,7,24,2,1,2,0
23.24,4,5,11,11,4,0,0,2
23.245,1,6,6,35,18,6,2,1
23.25,2,12,22,17,12,7,4,3
23.255,4,7,4,7,8,7,4,3
23.26,1,3,33,40,0,2,0,0
23.265,3,4,22,40,14,8,3,3
23.27,2,2,5,1,2,3,4,2
23.275,3,0,17,47,2,2,1,7
23.28,13,6,21,13,0,0,4,1
23.285,8,8,7,34,12,5,2,2
23.29,4,12,6,36,3,4,4,1
23.295,5,11,31,40,7,6,2,4
23.3,5,8,6,14,5,4,5,3
23.305,4,4,23,9,12,3,3,5
23.31,4,13,38,84,14,7,3,4
23.315,2,3,2,34,14,5,4,8
23.32,0,10,29,30,4,1,1,7
23.325,4,3,8,29,1,2,1,1
23.33,8,1,3,17,1,0,2,1
23.335,8,7,13,33,6,0,1,0
23.34,1,3,39,59,0,4,4,5
23.345,2,21,91,66,8,2,2,3
23.35,4,5,19,36,24,13,8,7
23.355,5,5,38,75,0,1,2,0
23.36,4,10,11,24,11,7,3,5
23.365,30,10,43,35,8,3,0,1
23.37,23,4,40,75,9,1,1,1
23.375,0,11,41,18,10,4,2,4
23.38,2,5,13,12,3,0,1,1
23.385,3,4,24,12,15,6,5,1
23.39,5,4,29,57,7,5,5,5
23.395,0,7,15,61,13,13,9,15
23.4,5,15,22,16,0,0,2,3
23.405,10,20,35,27,10,4,1,1
23.41,8,0,37,87,7,6,5,4
23.415,2,3,13,50,6,2,1,2
23.42,8,12,15,4,2,1,0,0
23.425,1,6,2,11,3,1,0,2
23.43,7,19,31,30,22,9,3,1
23.435,12,14,33,30,17,7,3,3
23.44,35,17,21,32,20,13,8,17
23.445,2,24,15,17,10,6,4,6
23.45,12,36,107,71,19,5,4,6
23.455,0,16,84,127,18,1,0,4
23.46,15,5,59,94,12,3,2,7
23.465,12,0,15,55,1,3,2,1
23.47,2,12,15,59,10,5,3,4
23.475,9,4,1,49,4,3,0,5
23.48,8,10,11,22,4,1,2,0
23.485,6,10,11,34,15,5,0,4
23.49,9,5,2,45,8,1,1,1
23.495,2,0,5,14,3,0,1,2
23.5,8,0,6,12,1,3,1,2
23.505,2,2,4,19,2,0,1,0
23.51,1,3,8,35,4,3,3,3
23.515,11,6,0,12,5,3,2,5
23.52,2,4,23,22,1,0,3,7
23.525,7,8,4,10,10,6,1,1
23.53,2,15,30,11,10,7,3,3
23.535,4,5,11,18,1,0,4,2
23.54,2,5,8,37,2,2,1,7
23.545,4,1,2,13,2,1,2,10
23.55,3,8,9,56,2,0,0,1
23.555,1,1,33,4,1,4,3,0
23.56,10,7,14,14,1,0,1,1
23.565,5,2,7,20,5,6,3,2
23.57,7,1,1,27,0,3,1,2
23.575,15,12,31,4,13,6,2,1
23.58,2,2,6,7,12,5,3,2
23.585,8,5,35,59,7,1,0,1
23.59,15,2,13,49,3,1,1,3
23.595,17,5,8,8,0,1,0,4
23.6,6,2,14,25,9,2,0,0
23.605,2,7,29,90,18,8,4,1
23.61,1,4,7,19,1,1,1,0
23.615,1,6,19,18,1,2,0,1
23.62,1,5,25,23,1,1,1,0
23.625,0,2,29,44,4,0,0,2
23.63,1,2,1,24,2,1,5,5
23.635,3,23,25,2,10,8,7,4
23.64,15,4,24,4,0,4,0,1
23.645,7,10,12,1,2,4,2,1
23.65,9,3,23,28,0,1,2,2
23.655,1,7,4,33,7,1,1,0
23.66,4,3,1,37,9,4,0,1
23.665,2,7,22,4,4,3,3,5
23.67,3,1,8,18,1,1,1,1
23.675,0,8,18,1,1,2,0,0
23.68,3,6,22,13,0,1,1,2
23.685,5,4,3,0,5,6,3,2
23.69,1,14,31,21,4,5,4,5
23.695,4,6,5,13,1,3,0,0
23.7,9,4,12,58,10,3,3,3
23.705,0,4,31,53,7,3,2,3
23.71,5,5,13,9,4,3,3,2
23.715,14,1,1,8,3,1,1,3
23.72,2,3,24,8,6,1,0,1
23.725,7,0,14,4,4,1,0,2
23.73,1,5,10,8,6,5,3,1
23.735,14,0,19,6,1,2,1,4
23.74,1,7,41,20,1,2,3,4
23.745,2,0,13,16,2,2,1,0
23.75,11,5,7,13,3,2,0,1
23.755,12,14,17,8,9,6,3,6
23.76,3,11,30,32,7,1,0,2
23.765,7,3,8,11,5,2,1,0
23.77,9,8,12,36,5,2,1,4
23.775,6,1,15,29,6,2,0,1
23.78,2,5,5,26,1,4,1,0
23.785,6,2,6,2,1,1,1,0
23.79,5,4,24,39,8,1,1,1
23.795,4,7,23,34,12,6,5,2
23.8,6,3,13,7,5,3,2,0
23.805,3,3,15,15,4,4,2,2
23.81,2,2,9,23,1,0,1,0
23.815,17,7,11,16,9,3,0,1
23.82,0,8,20,26,9,3,4,2
23.825,1,1,2,8,0,0,1,1
23.83,0,8,5,4,6,3,1,0
23.835,3,1,2,0,7,5,3,2
23.84,0,6,9,22,4,1,2,2
23.845,7,4,9,1,0,1,3,6
23.85,13,6,18,1,5,3,0,1
23.855,4,1,7,10,5,1,0,1
23.86,11,7,28,26,2,2,1,1
23.865,0,9,53,56,10,5,3,1
23.87,4,2,6,3,0,1,3,0
23.875,2,0,0,4,2,2,0,1
23.88,6,3,3,7,4,2,1,3
23.885,0,0,8,15,2,1,0,0
23.89,2,0,1,9,1,1,1,2
23.895,2,0,8,3,2,0,1,1
23.9,9,2,1,8,1,3,3,2
23.905,4,0,7,8,3,3,0,5
23.91,2,3,6,12,4,3,1,0
23.915,0,1,5,10,1,0,0,1
23.92,1,1,4,9,0,0,2,0
23.925,12,1,1,5,2,2,0,0
23.93,2,3,6,12,1,1,2,2
23.935,1,0,1,10,2,1,2,1
23.94,3,1,1,6,0,1,0,1
23.945,8,2,3,5,1,1,0,1
23.95,10,11,2,5,3,2,1,2
23.955,1,0,2,1,0,2,1,1
23.96,4,2,5,6,1,0,2,2
23.965,1,6,3,2,2,1,2,1
23.97,1,5,3,5,0,1,1,4
23.975,5,2,4,6,2,3,1,3
23.98,2,4,1,3,0,0,2,2
23.985,4,10,6,9,0,1,1,1
23.99,8,16,3,3,2,0,1,2
23.995,4,0,0,0,1,2,0,7
24,1,8,6,5,2,0,2,3
24.005,2,4,2,0,4,3,0,2
24.01,6,2,5,4,5,3,3,6
24.015,3,1,1,3,1,2,0,4
24.02,6,6,2,0,3,5,8,14
24.025,10,13,2,1,3,3,3,4
24.03,2,1,8,10,5,2,2,3
24.035,2,2,0,4,1,2,0,6
24.04,4,9,2,4,2,1,3,7
24.045,11,8,3,1,0,1,2,5
24.05,0,6,5,0,2,4,2,2
24.055,3,5,4,7,3,1,0,1
24.06,1,5,4,3,2,4,2,5
24.065,6,9,7,6,4,3,3,4
24.07,3,4,2,2,5,4,4,1
24.075,3,3,4,4,6,6,5,5
24.08,5,5,2,5,8,1,1,1
24.085,13,9,1,1,3,2,3,1
24.09,1,9,0,2,3,3,4,1
24.095,1,2,2,0,2,3,2,4
24.1,2,1,3,0,2,2,0,2
24.105,8,0,2,4,0,0,2,2
24.11,7,3,2,0,1,1,4,3
24.115,4,2,3,4,1,0,1,0
24.12,4,3,4,4,6,3,1,1
24.125,5,2,2,2,3,2,2,4
24.13,2,4,3,3,1,0,1,5
24.135,3,1,0,2,3,1,1,1
24.14,2,3,3,1,2,0,0,0
24.145,5,1,2,9,5,0,0,3
24.15,3,1,2,2,2,0,1,4
24.155,11,5,7,6,4,3,4,3
24.16,2,4,2,3,2,4,4,1
24.165,19,8,7,5,1,2,2,6
24.17,8,10,4,3,1,2,1,0
24.175,5,2,1,0,0,2,2,1
24.18,6,9,5,2,5,5,5,6
24.185,6,7,1,3,3,1,2,3
24.19,2,1,0,0,1,1,2,6
24.195,1,3,1,2,1,1,2,3
24.2,2,0,3,0,2,1,4,5
24.205,3,7,3,5,6,4,7,10
24.21,1,2,0,7,8,2,5,0
24.215,0,1,1,3,0,0,2,1
24.22,5,7,6,4,3,0,2,7
24.225,8,3,1,0,2,0,5,8
24.23,5,10,1,3,4,1,2,0
24.235,11,3,3,3,1,1,2,3
24.24,5,10,5,2,2,2,1,4
24.245,1,1,3,2,3,0,3,2
24.25,6,1,1,3,2,0,1,3
24.255,4,8,7,3,5,6,2,2
24.26,1,5,1,1,1,1,0,0
24.265,2,1,1,2,1,0,0,0
24.27,6,5,3,7,7,2,0,1
24.275,1,4,7,5,0,1,1,1
24.28,0,0,2,5,4,2,0,1
24.285,0,0,0,3,1,3,3,4
24.29,6,6,8,15,9,4,3,3
24.295,2,3,3,1,1,2,1,0
24.3,0,0,3,2,3,0,2,0
24.305,3,0,2,0,2,1,1,1
24.31,4,6,1,0,1,2,1,0
24.315,7,8,2,0,1,1,0,2
24.32,13,16,4,3,2,4,3,2
24.325,0,6,4,0,1,1,0,0
24.33,2,0,0,0,1,1,3,5
24.335,2,0,1,1,4,3,1,1
24.34,2,1,0,5,6,1,0,2
24.345,1,0,4,7,5,2,0,2
24.35,2,1,1,2,2,2,1,3
24.355,15,5,2,3,3,3,2,3
24.36,2,3,3,2,3,1,0,2
24.365,1,2,1,4,0,1,0,1
24.37,1,3,4,10,3,1,2,4
24.375,1,1,3,11,3,0,2,1
24.38,1,3,5,6,9,3,2,3
24.385,5,1,3,2,2,1,0,2
24.39,3,3,2,3,2,5,3,1
24.395,1,2,0,7,3,2,0,1
24.4,1,3,2,3,0,0,1,1
24.405,1,1,4,13,14,6,2,2
24.41,3,2,1,1,3,0,1,1
24.415,4,6,8,1,6,5,4,3
24.42,2,1,6,9,1,4,1,2
24.425,1,4,5,3,9,3,2,0
24.43,3,2,3,0,6,3,1,2
24.435,3,0,3,11,2,1,0,1
24.44,3,0,11,7,2,5,2,1
24.445,2,3,6,4,1,0,1,1
24.45,2,5,14,23,2,1,0,0
24.455,2,1,16,14,0,3,0,1
24.46,0,0,33,13,5,1,1,0
24.465,4,3,1,8,3,5,4,4
24.47,1,1,2,13,4,1,1,1
24.475,4,8,10,9,2,0,2,3
24.48,2,6,2,2,7,2,0,1
24.485,0,3,12,11,9,2,2,1
24.49,1,0,7,11,7,1,1,2
24.495,1,1,13,7,1,1,1,2
24.5,2,5,8,3,1,3,2,3
24.505,2,9,27,50,8,2,0,1
24.51,2,3,19,28,5,0,0,1
24.515,2,9,52,70,7,5,4,1
24.52,1,0,20,47,3,0,2,2
24.525,3,0,24,18,1,3,1,2
24.53,2,1,1,37,2,2,2,2
24.535,3,3,1,16,4,3,3,3
24.54,4,6,11,2,8,5,1,2
24.545,2,5,24,15,8,3,2,2
24.55,1,1,20,22,9,1,1,0
24.555,3,5,9,20,0,2,1,3
24.56,4,10,21,16,16,6,3,5
24.565,2,4,5,12,7,3,1,1
24.57,6,1,11,19,2,2,0,1
24.575,2,3,12,12,6,2,1,1
24.58,1,6,26,32,10,6,3,3
24.585,3,12,50,49,21,9,7,4
24.59,12,10,3,9,8,5,6,11
24.595,3,7,25,19,9,4,1,3
24.6,4,9,32,34,14,8,5,8
24.605,6,5,13,34,10,4,2,4
24.61,3,3,3,21,1,1,1,2
24.615,3,7,2,13,2,2,2,2
24.62,2,7,29,39,13,6,0,2
24.625,2,0,6,3,2,2,0,2
24.63,2,1,7,3,1,1,1,0
24.635,4,2,27,73,1,5,3,4
24.64,0,1,34,58,4,4,1,2
24.645,1,1,10,3,1,1,1,1
24.65,2,9,47,32,9,0,1,1
24.655,14,1,0,6,11,5,4,4
24.66,6,11,38,32,15,5,1,4
24.665,4,10,8,37,7,8,5,3
24.67,1,2,11,62,0,2,1,4
24.675,8,15,19,59,9,6,4,6
24.68,5,10,42,66,12,7,3,5
24.685,2,2,4,9,0,1,1,2
24.69,1,0,14,12,10,2,0,0
24.695,6,10,16,30,9,7,4,4
24.7,9,9,64,83,7,8,3,5
24.705,7,17,89,102,29,10,5,5
24.71,3,8,12,36,7,3,1,1
24.715,0,6,7,27,2,2,0,1
24.72,13,14,9,30,5,7,2,2
24.725,15,3,43,49,17,5,0,2
24.73,3,11,12,19,9,5,2,3
24.735,12,4,10,8,8,5,2,2
24.74,10,9,9,55,4,1,2,4
24.745,3,5,30,8,1,0,1,1
24.75,20,8,52,104,4,3,0,0
24.755,5,22,2,74,20,17,10,10
24.76,7,6,10,31,9,5,4,5
24.765,10,11,13,25,7,4,3,3
24.77,7,24,67,67,17,7,1,2
24.775,12,30,77,35,15,8,5,5
24.78,20,5,19,81,14,6,4,8
24.785,21,14,71,91,18,6,3,2
24.79,7,14,62,71,27,17,7,5
24.795,1,1,10,4,1,1,1,3
24.8,5,11,31,45,13,6,1,3
24.805,1,0,25,28,6,2,1,1
24.81,10,0,12,8,2,2,2,2
24.815,3,14,2,5,2,1,1,0
24.82,7,20,16,18,6,6,4,1
24.825,10,3,33,45,15,6,4,8
24.83,7,2,10,12,1,1,1,2
24.835,9,9,15,16,6,6,2,4
24.84,1,19,46,71,24,13,5,5
24.845,11,18,84,87,22,5,3,3
24.85,7,6,1,40,5,4,4,4
24.855,5,6,28,2,5,1,0,2
24.86,7,3,7,21,7,8,4,3
24.865,2,6,32,10,8,4,3,1
24.87,6,14,23,11,5,5,1,2
24.875,2,8,3,70,4,1,2,1
24.88,13,10,16,14,4,1,2,0
24.885,21,11,14,11,8,2,1,2
24.89,8,7,34,52,5,2,3,3
24.895,7,14,40,28,12,4,5,3
24.9,2,4,16,55,10,4,1,3
24.905,9,15,52,89,24,13,8,9
24.91,4,8,4,6,4,2,1,2
24.915,13,5,5,41,7,3,2,2
24.92,11,10,5,45,5,6,3,4
24.925,9,15,7,86,0,5,2,2
24.93,3,1,13,1,0,2,3,0
24.935,3,6,4,13,11,4,0,1
24.94,8,13,0,78,26,10,6,5
24.945,2,3,6,22,6,2,1,1
24.95,2,2,26,23,2,2,2,2
24.955,7,11,11,24,12,9,5,0
24.96,2,0,9,10,1,2,1,2
24.965,3,4,17,33,16,8,6,4
24.97,8,4,22,26,2,3,0,1
24.975,0,4,35,19,0,4,4,4
24.98,3,6,23,24,3,0,0,1
24.985,1,1,4,34,2,0,1,1
24.99,6,12,21,7,5,4,2,4
24.995,5,14,30,8,6,3,2,2
25,7,1,18,36,2,4,3,3
25.005,1,3,24,3,3,3,0,1
25.01,1,12,31,5,2,1,1,1
25.015,4,7,27,54,9,1,1,1
25.02,9,6,14,37,5,1,0,1
25.025,7,3,12,0,3,0,1,0
25.03,1,3,23,25,4,0,2,1
25.035,3,3,22,6,2,2,1,2
25.04,0,1,1,2,5,6,4,5
25.045,4,1,9,1,2,1,2,0
25.05,13,8,17,24,4,1,1,2
25.055,3,8,26,33,5,1,1,1
25.06,5,1,3,10,3,0,1,1
25.065,3,2,12,27,4,2,1,2
25.07,7,0,7,6,7,4,3,1
25.075,7,1,19,29,2,1,1,2
25.08,8,4,7,21,3,1,2,4
25.085,1,1,16,45,6,2,1,3
25.09,0,3,15,10,2,5,1,0
25.095,2,5,0,6,4,0,0,2
25.1,6,0,0,26,6,1,1,0
25.105,4,7,25,35,3,3,1,1
25.11,6,8,31,32,6,2,2,2
25.115,5,2,4,15,5,0,0,0
25.12,18,3,25,3,0,2,1,1
25.125,24,1,24,20,3,2,2,5
25.13,9,0,4,33,1,3,3,1
25.135,13,3,1,23,2,3,2,5
25.14,7,5,10,3,10,7,5,4
25.145,8,2,15,21,2,0,0,0
25.15,0,0,12,11,0,1,0,1
25.155,1,1,8,6,2,2,1,3
25.16,9,2,0,5,5,3,1,2
25.165,16,2,6,5,2,1,4,9
25.17,4,0,29,42,0,0,1,1
25.175,3,1,5,16,5,4,3,6
25.18,1,9,32,18,7,3,1,3
25.185,2,13,57,0,0,2,0,2
25.19,3,3,9,29,6,1,1,1
25.195,0,7,9,19,7,6,4,2
25.2,7,2,0,11,2,1,1,4
25.205,1,4,10,5,0,2,1,0
25.21,2,5,18,27,6,2,1,1
25.215,6,4,22,21,6,4,3,2
25.22,5,2,7,4,3,3,1,1
25.225,7,3,6,13,5,3,2,1
25.23,1,2,2,10,4,5,4,4
25.235,11,6,10,13,2,1,1,1
25.24,0,2,3,2,5,2,1,2
25.245,3,2,14,34,1,2,1,0
25.25,3,1,9,43,3,3,2,2
25.255,5,3,35,39,4,2,0,0
25.26,6,1,14,16,2,2,2,1
25.265,3,5,7,3,1,1,1,1
25.27,9,2,8,12,5,0,3,8
25.275,2,7,11,32,2,2,1,1
25.28,11,5,21,5,5,1,2,2
25.285,4,1,7,11,0,1,1,1
25.29,10,1,0,14,0,1,1,0
25.295,1,3,14,13,9,3,2,2
25.3,2,5,18,25,5,3,1,4
25.305,3,1,9,0,2,2,1,1
25.31,9,12,15,14,9,7,3,4
25.315,1,1,7,3,3,1,1,3
25.32,3,2,5,7,0,3,3,1
25.325,10,5,24,31,6,2,0,2
25.33,18,2,8,24,1,1,1,1
25.335,1,1,21,45,7,4,2,0
25.34,1,6,5,3,3,4,1,1
25.345,0,1,1,8,1,3,5,2
25.35,1,4,10,27,6,3,1,1
25.355,0,1,6,13,1,0,1,1
25.36,3,3,4,7,2,2,1,1
25.365,2,3,9,11,0,2,2,0
25.37,1,3,3,14,0,1,1,0
25.375,4,3,6,2,2,0,1,2
25.38,3,1,7,7,2,2,0,1
25.385,2,1,2,8,5,4,0,2
25.39,3,7,7,8,2,2,1,2
25.395,0,2,7,11,1,1,1,3
25.4,3,1,1,3,2,2,0,4
25.405,3,2,5,7,3,1,1,3
25.41,8,3,2,1,2,0,1,1
25.415,5,0,1,8,2,4,1,3
25.42,10,4,3,1,2,2,5,5
25.425,11,6,3,9,2,1,2,6
25.43,4,1,1,2,2,1,1,1
25.435,1,1,4,7,1,1,1,0
25.44,6,3,5,2,1,1,0,2
25.445,3,3,4,8,4,1,0,4
25.45,1,1,1,4,1,3,1,0
25.455,7,2,2,3,2,0,1,3
25.46,1,4,5,5,1,2,7,9
25.465,2,0,0,4,2,0,2,4
25.47,4,4,2,3,1,0,1,1
25.475,6,1,1,1,3,0,3,3
25.48,0,4,4,7,6,2,0,3
25.485,5,6,2,1,1,0,1,2
25.49,10,5,4,3,3,3,3,1
25.495,1,0,2,0,0,3,0,2
25.5,9,2,0,3,3,4,0,5
25.505,5,4,0,1,0,0,0,3
25.51,1,7,9,6,4,3,3,2
25.515,7,1,1,2,3,1,2,4
25.52,5,5,2,1,1,0,0,2
25.525,7,14,7,6,4,4,1,3
25.53,2,6,0,1,1,2,1,2
25.535,4,0,0,1,3,2,0,0
25.54,10,6,5,3,1,2,3,4
25.545,4,2,0,1,2,0,0,0
25.55,3,15,4,0,1,6,4,9
25.555,14,14,5,2,2,0,1,3
25.56,6,5,2,1,5,2,1,6
25.565,2,5,6,3,5,0,1,1
25.57,1,5,2,10,3,2,0,2
25.575,3,2,1,2,3,0,1,1
25.58,3,7,4,1,0,2,1,4
25.585,3,8,0,4,5,4,4,4
25.59,0,5,0,3,1,0,2,2
25.595,5,7,6,4,3,3,5,7
25.6,9,4,1,2,1,0,3,2
25.605,10,4,5,5,5,2,3,1
25.61,8,5,4,0,2,3,3,4
25.615,2,1,0,0,2,0,3,1
25.62,2,12,2,1,0,0,1,0
25.625,5,1,0,2,3,3,9,8
25.63,3,4,2,4,1,0,2,2
25.635,4,3,2,4,2,1,2,2
25.64,4,3,2,1,1,2,1,1
25.645,3,2,3,2,0,0,3,1
25.65,3,7,3,3,2,4,1,1
25.655,10,3,2,0,1,1,3,2
25.66,10,3,2,2,1,2,4,8
25.665,6,0,3,5,5,3,2,5
25.67,15,14,1,3,1,2,2,3
25.675,1,2,2,4,4,1,9,13
25.68,3,3,2,2,3,4,5,3
25.685,1,9,2,1,0,1,0,1
25.69,8,15,1,1,1,0,2,3
25.695,2,2,1,0,4,2,4,6
25.7,5,11,4,1,0,0,1,2
25.705,1,2,0,2,5,5,2,4
25.71,4,2,3,1,2,3,0,1
25.715,4,1,3,4,1,2,1,1
25.72,0,3,2,2,2,1,4,0
25.725,6,2,2,3,0,2,3,3
25.73,0,7,5,2,3,1,0,1
25.735,5,5,1,2,4,2,1,5
25.74,1,4,2,4,4,1,1,2
25.745,8,1,0,0,0,1,3,3
25.75,4,2,0,3,0,1,2,1
25.755,7,2,1,3,1,0,1,2
25.76,2,1,0,6,3,3,3,4
25.765,4,1,2,5,3,0,0,2
25.77,2,1,3,4,1,0,1,2
25.775,3,2,1,0,0,1,1,3
25.78,4,1,2,1,3,0,1,2
25.785,5,1,2,0,2,3,3,6
25.79,1,0,2,0,1,1,1,2
25.795,4,5,4,1,1,1,1,0
25.8,1,1,0,2,0,1,1,3
25.805,5,3,0,1,2,2,1,1
25.81,1,3,2,1,1,1,2,3
25.815,3,5,1,5,5,3,1,3
25.82,0,0,2,2,1,3,1,1
25.825,3,1,2,0,0,4,2,1
25.83,3,7,5,1,2,2,0,0
25.835,8,7,0,3,2,1,1,1
25.84,1,1,5,5,1,3,1,1
25.845,1,1,1,1,2,3,1,1
25.85,0,2,5,1,0,1,4,3
25.855,4,4,0,1,0,2,0,0
25.86,2,1,1,5,1,2,2,2
25.865,2,3,1,7,3,1,0,0
25.87,4,8,6,2,0,1,0,2
25.875,2,1,1,3,1,2,1,1
25.88,3,3,2,5,1,0,3,3
25.885,3,1,6,10,4,0,0,1
25.89,2,6,0,1,2,0,3,1
25.895,3,5,4,3,2,0,2,1
25.9,0,3,5,3,0,2,0,2
25.905,1,2,2,3,3,3,2,0
25.91,3,1,3,2,7,0,1,2
25.915,2,6,5,14,3,0,2,1
25.92,1,3,15,13,7,2,1,0
25.925,3,0,6,9,8,6,2,0
25.93,4,1,2,5,3,4,2,4
25.935,3,4,7,17,8,3,0,1
25.94,1,2,6,33,17,7,2,0
25.945,4,4,31,26,8,0,1,1
25.95,7,17,48,40,24,9,6,5
25.955,2,0,21,3,10,4,1,2
25.96,0,3,25,38,10,2,0,0
25.965,2,6,12,27,12,4,2,3
25.97,0,1,1,16,0,1,1,0
25.975,0,2,12,11,1,0,1,1
25.98,2,8,47,59,6,3,1,2
25.985,2,0,21,44,6,3,2,2
25.99,2,1,26,32,8,7,2,2
25.995,2,3,15,28,1,1,1,0
26,0,2,2,21,2,1,0,1
26.005,1,1,12,3,1,2,2,1
26.01,0,2,33,20,9,3,0,0
26.015,1,1,15,62,2,2,0,1
26.02,6,7,1,67,30,13,7,6
26.025,2,0,0,13,6,2,1,3
26.03,3,4,5,6,9,6,3,4
26.035,1,2,6,9,9,3,1,0
26.04,1,4,16,32,10,3,1,0
26.045,1,2,18,20,4,1,0,2
26.05,1,2,9,40,5,4,2,4
26.055,3,12,15,4,14,8,5,5
26.06,2,1,7,6,1,1,0,2
26.065,9,5,40,24,5,2,0,6
26.07,4,0,10,39,8,3,2,1
26.075,4,7,51,99,16,8,4,3
26.08,6,19,40,26,25,13,6,7
26.085,2,1,17,16,2,3,3,0
26.09,4,0,6,21,3,1,0,3
26.095,4,12,43,51,16,9,2,2
26.1,11,0,5,34,8,1,3,2
26.105,15,6,23,74,4,1,0,1
26.11,1,2,4,39,1,2,1,2
26.115,8,8,17,59,20,11,7,8
26.12,3,10,27,60,0,1,1,1
26.125,6,5,19,8,1,0,0,1
26.13,1,8,37,32,1,1,1,0
26.135,9,12,0,10,22,10,7,7
26.14,7,15,70,56,16,7,3,2
26.145,4,9,30,31,0,1,2,1
26.15,5,3,16,1,8,1,0,3
26.155,8,20,36,3,17,8,6,8
26.16,4,11,21,15,7,3,3,2
26.165,1,16,6,8,11,7,4,3
26.17,3,3,20,66,17,8,4,4
26.175,6,9,14,4,7,3,1,3
26.18,7,7,20,28,7,4,4,5
26.185,8,18,15,70,27,11,5,7
26.19,10,14,6,6,22,11,8,8
26.195,0,10,16,1,3,1,0,1
26.2,11,23,58,77,31,15,8,9
26.205,13,25,76,48,26,14,8,7
26.21,14,14,16,29,12,6,2,5
26.215,2,1,15,18,4,2,1,1
26.22,4,1,0,19,3,1,1,1
26.225,15,20,30,22,10,9,5,5
26.23,5,2,21,33,3,1,1,3
26.235,14,26,15,16,11,6,7,10
26.24,2,1,25,44,6,5,0,1
26.245,4,2,0,6,21,10,4,4
26.25,1,18,47,58,12,3,2,1
26.255,4,3,1,64,2,1,3,4
26.26,21,9,15,24,1,0,2,1
26.265,18,14,40,36,16,8,6,10
26.27,1,16,81,86,19,6,2,4
26.275,0,4,59,78,20,9,4,2
26.28,2,4,9,50,3,1,2,1
26.285,7,3,13,24,3,3,2,3
26.29,5,4,13,12,8,3,2,4
26.295,5,6,24,52,1,5,4,7
26.3,4,11,26,46,16,10,5,6
26.305,9,6,12,19,10,7,2,3
26.31,11,15,31,41,13,6,3,6
26.315,23,17,22,78,24,11,8,10
26.32,12,6,37,99,26,12,8,8
26.325,6,8,13,5,1,5,5,3
26.33,0,10,13,5,3,3,3,1
26.335,5,6,31,57,2,2,1,2
26.34,7,2,41,107,7,4,4,8
26.345,5,15,43,76,11,3,1,0
26.35,6,5,11,15,4,2,2,1
26.355,3,4,2,5,3,3,0,0
26.36,9,0,11,15,8,7,1,2
26.365,6,9,18,17,5,2,0,0
26.37,8,4,26,47,2,3,3,4
26.375,7,1,28,8,0,1,3,1
26.38,14,4,9,36,8,5,3,3
26.385,15,6,20,47,11,4,2,4
26.39,15,1,7,43,10,1,2,4
26.395,0,10,22,20,10,8,5,5
26.4,18,11,15,6,3,2,1,1
26.405,0,1,9,3,3,0,0,0
26.41,2,2,6,22,7,3,0,0
26.415,7,13,17,25,11,9,6,5
26.42,3,11,19,0,4,3,1,0
26.425,2,10,15,12,2,0,1,2
26.43,5,1,5,9,3,1,0,1
26.435,0,10,4,8,5,4,2,3
26.44,1,1,2,17,4,2,5,1
26.445,3,5,11,32,3,2,2,0
26.45,8,1,5,2,8,5,4,8
26.455,12,11,2,64,10,3,2,3
26.46,3,4,14,26,1,2,3,3
26.465,5,6,36,19,7,3,3,0
26.47,20,5,33,33,6,3,1,1
26.475,16,0,20,47,1,6,4,8
26.48,1,8,25,36,9,2,0,1
26.485,6,3,10,16,3,1,1,0
26.49,19,7,7,7,1,1,3,0
26.495,0,2,27,10,5,2,1,2
26.5,1,1,8,14,0,4,1,0
26.505,3,2,12,6,1,2,1,2
26.51,10,8,5,11,5,5,2,0
26.515,1,1,35,5,2,0,0,0
26.52,8,12,41,4,8,3,2,5
26.525,5,3,6,27,6,4,3,3
26.53,2,5,24,9,5,1,2,0
26.535,2,4,11,0,1,3,0,1
26.54,10,1,1,13,3,2,2,2
26.545,10,6,8,14,3,5,4,5
26.55,5,3,10,20,8,3,1,1
26.555,4,2,10,9,1,2,2,2
26.56,2,1,5,19,4,1,1,3
26.565,8,2,9,30,4,3,2,5
26.57,1,1,19,29,3,2,1,0
26.575,10,5,26,44,5,0,1,3
26.58,16,0,7,0,2,0,1,1
26.585,9,2,13,3,0,2,2,4
26.59,4,2,2,11,0,2,2,0
26.595,7,7,24,10,1,1,2,1
26.6,0,7,14,12,4,2,1,2
26.605,8,7,25,1,3,0,1,1
26.61,3,14,46,6,6,5,4,3
26.615,3,2,5,4,0,1,0,0
26.62,2,0,4,26,6,1,1,1
26.625,9,3,21,21,10,3,3,4
26.63,2,2,8,12,0,2,1,1
26.635,7,1,3,12,0,0,2,5
26.64,2,2,12,17,3,3,1,0
26.645,3,6,23,23,6,1,1,0
26.65,1,2,6,29,3,1,1,2
26.655,2,3,22,62,3,2,3,3
26.66,7,4,6,45,5,0,0,0
26.665,8,4,9,12,3,1,1,1
26.67,3,3,6,8,4,3,3,2
26.675,8,1,4,21,4,2,1,4
26.68,17,4,6,21,2,1,2,4
26.685,4,0,0,4,3,3,2,1
26.69,6,5,32,44,11,6,4,4
26.695,6,7,23,21,4,2,1,2
26.7,1,2,11,8,1,0,2,1
26.705,6,5,13,10,2,0,1,0
26.71,0,1,0,1,3,0,1,5
26.715,3,1,10,15,2,0,0,1
26.72,3,3,3,15,7,3,0,1
26.725,8,3,9,32,1,1,2,2
26.73,6,4,11,43,5,4,0,2
26.735,2,1,2,1,1,1,1,3
26.74,6,2,0,6,1,4,1,2
26.745,0,1,5,14,2,2,1,0
26.75,2,3,4,15,2,1,0,1
26.755,17,11,7,3,2,1,0,2
26.76,0,0,1,4,1,0,0,1
26.765,0,6,5,4,1,2,2,0
26.77,5,6,3,5,0,1,1,2
26.775,2,6,2,1,0,1,2,2
26.78,3,3,5,0,2,4,2,0
26.785,3,3,3,7,0,2,3,1
26.79,9,2,1,6,1,3,3,0
26.795,4,5,5,10,2,1,3,2
26.8,1,2,1,5,2,0,1,1
26.805,3,4,8,7,4,3,4,8
26.81,3,2,3,7,0,2,2,1
26.815,4,8,2,1,1,2,5,11
26.82,6,7,2,8,5,4,9,14
26.825,6,3,2,2,0,0,1,4
26.83,4,1,6,12,2,0,3,1
26.835,5,6,4,4,3,4,6,7
26.84,8,4,0,1,1,0,4,11
26.845,1,2,1,1,3,1,0,2
26.85,10,7,0,3,1,2,8,15
26.855,0,5,3,2,2,2,1,1
26.86,6,3,9,6,2,0,3,5
26.865,8,6,6,1,1,2,1,4
26.87,5,13,13,5,5,3,4,6
26.875,4,2,1,1,6,3,1,2
26.88,2,4,1,1,0,1,2,6
26.885,6,12,5,3,3,4,7,1
26.89,0,1,0,0,3,1,2,2
26.895,0,1,1,4,2,8,8,8
26.9,0,1,1,0,4,6,7,5
26.905,4,4,0,2,1,0,0,4
26.91,1,0,4,2,2,1,1,4
26.915,0,0,4,3,1,0,3,2
26.92,3,0,1,1,1,3,3,3
26.925,1,4,0,0,2,4,3,1
26.93,4,4,0,1,0,1,1,2
26.935,5,5,4,7,2,1,1,2
26.94,2,3,0,0,3,4,1,2
26.945,5,5,4,0,3,1,3,4
26.95,10,5,3,7,5,2,5,3
26.955,2,3,0,2,4,2,0,2
26.96,19,8,1,0,0,1,0,0
26.965,2,3,9,3,5,4,5,7
26.97,4,3,0,2,1,2,3,1
26.975,1,0,2,3,2,1,2,4
26.98,3,2,2,0,1,1,1,0
26.985,4,0,0,1,1,1,3,4
26.99,2,0,1,4,2,1,3,12
26.995,1,1,2,2,3,7,8,8
27,2,5,2,2,1,3,1,0
27.005,1,0,3,5,4,3,1,2
27.01,7,3,2,1,2,2,1,5
27.015,4,2,3,1,2,1,2,1
27.02,18,2,1,3,4,0,2,7
27.025,0,5,1,0,2,0,2,1
27.03,4,2,1,3,0,2,1,3
27.035,2,11,1,2,2,1,3,4
27.04,5,10,4,0,1,2,5,4
27.045,3,2,3,0,3,1,2,1
27.05,11,8,4,6,1,3,5,1
27.055,3,8,3,2,1,3,0,1
27.06,2,3,1,1,1,1,3,5
27.065,2,4,5,5,5,4,1,0
27.07,5,1,3,2,1,3,5,4
27.075,3,1,1,0,2,3,0,1
27.08,4,3,0,6,1,3,1,3
27.085,3,4,1,4,7,4,2,1
27.09,13,7,2,7,5,1,0,3
27.095,2,3,3,1,2,1,2,2
27.1,6,3,4,7,1,3,1,2
27.105,1,2,1,5,0,3,2,1
27.11,3,1,3,2,1,2,1,4
27.115,2,2,0,1,0,1,1,5
27.12,0,4,7,7,5,3,1,0
27.125,0,2,0,2,2,3,6,1
27.13,2,3,2,6,3,1,2,5
27.135,11,6,0,1,1,1,1,0
27.14,3,1,2,5,1,1,2,1
27.145,2,0,0,0,2,2,0,4
27.15,2,1,0,0,3,2,2,1
27.155,2,2,5,0,2,2,1,1
27.16,7,1,1,4,0,1,3,3
27.165,5,6,0,2,2,3,6,6
27.17,4,6,2,6,1,4,0,0
27.175,5,2,0,0,1,0,1,1
27.18,3,3,6,3,2,3,1,1
27.185,2,1,0,2,5,3,0,1
27.19,1,0,4,2,3,1,2,3
27.195,2,1,1,2,1,1,1,0
27.2,2,1,0,3,1,3,1,1
27.205,2,1,1,2,1,1,0,0
27.21,5,8,5,7,3,3,4,7
27.215,0,1,0,4,4,1,0,2
27.22,1,4,5,2,4,2,1,1
27.225,3,6,7,7,6,3,1,3
27.23,1,0,1,0,1,0,1,0
27.235,1,2,3,15,9,1,2,2
27.24,3,0,1,4,2,3,1,2
27.245,5,2,0,3,2,4,2,2
27.25,3,3,0,9,4,1,1,1
27.255,0,0,5,21,11,4,2,4
27.26,1,4,5,6,2,2,1,0
27.265,3,1,0,2,2,2,2,2
27.27,0,0,3,0,3,0,1,1
27.275,2,2,1,9,4,1,1,1
27.28,1,1,2,3,3,3,0,2
27.285,1,4,0,0,1,2,0,0
27.29,2,1,4,1,2,3,3,1
27.295,1,3,3,1,2,3,2,1
27.3,2,3,2,1,2,4,4,2
27.305,2,2,4,3,8,4,1,1
27.31,1,3,7,4,1,4,2,0
27.315,2,2,1,4,2,3,1,3
27.32,0,1,13,9,3,2,1,1
27.325,2,3,5,2,3,0,2,1
27.33,2,5,23,28,9,4,1,1
27.335,6,7,6,22,5,5,5,3
27.34,1,4,11,29,8,1,0,0
27.345,6,6,2,7,4,2,3,3
27.35,2,6,25,45,2,0,1,1
27.355,3,12,61,67,14,9,3,3
27.36,3,3,21,16,1,4,4,3
27.365,3,4,8,12,1,1,0,1
27.37,1,6,5,5,8,4,2,4
27.375,2,5,6,27,3,3,1,0
27.38,2,1,1,2,2,3,1,1
27.385,1,1,12,6,2,1,1,0
27.39,2,8,8,5,11,5,2,2
27.395,1,6,6,7,7,2,1,1
27.4,6,8,8,10,13,9,3,6
27.405,5,10,16,30,9,3,2,4
27.41,9,18,43,31,18,11,6,6
27.415,2,5,27,0,1,1,1,1
27.42,2,5,30,24,3,2,1,2
27.425,3,2,6,23,5,3,1,2
27.43,4,13,38,34,7,2,3,2
27.435,7,8,18,26,9,5,0,1
27.44,4,11,7,4,14,6,3,3
27.445,1,2,8,42,1,2,1,2
27.45,6,1,3,37,3,3,1,4
27.455,1,5,16,59,12,4,3,3
27.46,0,0,23,34,5,3,0,1
27.465,4,16,21,39,17,7,2,2
27.47,5,3,7,31,6,3,1,2
27.475,6,1,14,32,5,1,1,1
27.48,4,5,5,27,7,1,1,6
27.485,10,12,1,14,15,9,3,5
27.49,7,10,17,15,16,7,3,3
27.495,10,1,16,1,9,4,3,2
27.5,4,10,42,28,18,8,4,4
27.505,7,5,6,25,7,4,1,3
27.51,3,2,29,19,3,0,2,2
27.515,17,16,12,43,0,7,6,6
27.52,2,2,16,55,20,10,5,1
27.525,8,11,15,4,12,7,6,4
27.53,2,13,48,2,2,2,1,1
27.535,8,5,14,11,13,6,4,4
27.54,2,14,50,63,14,5,3,1
27.545,0,6,38,17,4,2,2,2
27.55,18,5,18,15,8,2,0,9
27.555,3,2,4,46,15,11,5,4
27.56,9,14,10,41,13,4,3,3
27.565,11,13,12,63,17,8,4,3
27.57,5,15,27,64,15,8,5,4
27.575,2,13,28,8,8,5,2,3
27.58,15,6,2,10,2,3,3,0
27.585,14,2,23,48,3,1,1,3
27.59,5,1,26,18,3,3,2,4
27.595,15,13,1,23,5,5,4,8
27.6,12,14,4,60,9,7,2,6
27.605,5,16,33,1,20,10,7,8
27.61,3,0,13,10,3,1,0,1
27.615,8,2,3,11,2,1,1,2
27.62,4,3,28,8,9,4,1,2
27.625,3,6,14,4,5,4,2,0
27.63,2,0,4,29,6,1,0,1
27.635,4,5,11,41,15,4,1,2
27.64,5,4,40,58,1,1,4,3
27.645,11,15,43,100,7,4,1,4
27.65,7,4,33,8,9,2,3,2
27.655,16,13,11,23,5,7,3,9
27.66,3,1,10,2,12,6,4,4
27.665,6,5,3,20,6,4,2,1
27.67,22,0,4,25,8,2,2,4
27.675,22,4,26,29,5,0,3,7
27.68,5,4,28,23,11,6,2,3
27.685,6,2,16,46,11,3,1,1
27.69,6,1,9,27,3,1,0,2
27.695,11,2,1,9,1,2,2,1
27.7,4,2,9,4,11,4,3,1
27.705,8,11,35,17,11,5,3,1
27.71,9,5,40,42,7,0,1,3
27.715,5,3,40,71,4,1,1,1
27.72,9,4,1,2,0,0,1,3
27.725,13,12,20,20,7,3,2,2
27.73,12,11,18,27,11,5,2,3
27.735,5,10,34,22,4,2,1,3
27.74,1,17,49,12,3,4,0,3
27.745,3,6,20,22,1,2,1,2
27.75,7,9,10,28,10,10,6,6
27.755,9,1,14,26,10,4,3,5
27.76,7,3,18,31,12,5,4,0
27.765,0,4,10,19,0,4,3,3
27.77,16,20,34,13,15,7,6,9
27.775,3,8,21,4,7,5,2,3
27.78,7,5,20,28,3,4,1,4
27.785,7,1,4,4,4,0,1,0
27.79,2,11,41,54,4,2,2,0
27.795,4,12,20,27,6,3,3,2
27.8,1,4,21,5,4,2,0,3
27.805,4,7,30,11,5,2,1,0
27.81,2,8,24,20,8,3,3,3
27.815,1,0,6,10,3,2,1,0
27.82,10,9,3,17,3,1,2,5
27.825,3,8,7,40,5,3,2,3
27.83,4,6,4,7,2,0,1,0
27.835,6,0,31,21,7,1,2,2
27.84,4,3,32,57,7,2,1,1
27.845,6,6,18,47,2,1,0,2
27.85,3,0,8,10,2,3,1,0
27.855,6,1,10,3,4,3,0,1
27.86,3,3,6,8,3,2,0,0
27.865,2,4,32,28,3,1,2,0
27.87,8,6,8,29,0,2,1,2
27.875,5,2,4,37,1,2,1,1
27.88,3,5,10,36,3,1,2,1
27.885,3,11,29,65,17,7,2,4
27.89,4,3,8,10,4,0,1,2
27.895,2,9,23,22,3,0,1,2
27.9,2,5,10,31,5,2,2,0
27.905,6,1,17,19,0,0,2,3
27.91,1,4,13,22,5,4,2,2
27.915,6,12,14,20,10,4,4,5
27.92,8,3,7,7,1,1,1,3
27.925,7,6,18,13,3,1,0,1
27.93,7,3,6,3,1,1,0,4
27.935,2,1,9,3,1,0,1,2
27.94,7,5,17,14,4,5,1,1
27.945,1,1,6,12,0,1,1,2
27.95,8,5,31,47,3,0,0,2
27.955,3,6,33,58,5,1,2,1
27.96,9,4,0,28,2,2,0,1
27.965,21,11,5,8,4,3,2,3
27.97,2,4,1,1,1,2,1,1
27.975,4,2,7,2,0,3,4,5
27.98,2,1,13,16,5,4,0,1
27.985,9,7,9,16,1,3,2,6
27.99,3,0,24,40,7,2,1,6
27.995,1,1,15,25,6,2,2,1
28,2,1,8,42,3,1,0,1
28.005,13,14,40,59,6,5,2,5
28.01,21,27,34,24,13,11,6,8
28.015,3,5,1,3,2,1,2,2
28.02,2,5,2,14,4,1,1,2
28.025,4,3,14,21,8,4,2,0
28.03,3,4,9,28,1,0,1,0
28.035,8,2,7,47,1,2,1,1
28.04,7,3,7,34,2,0,4,3
28.045,1,0,14,1,0,0,1,0
28.05,5,1,10,5,1,2,0,4
28.055,6,12,29,35,6,4,1,1
28.06,9,3,10,9,3,2,0,2
28.065,4,4,8,11,3,3,4,2
28.07,0,4,10,6,1,0,0,0
28.075,4,1,14,17,1,0,0,1
28.08,2,2,7,1,2,1,2,2
28.085,3,14,48,48,9,5,3,2
28.09,1,6,11,18,1,1,1,2
28.095,2,2,30,52,3,1,0,2
28.1,6,9,42,52,5,3,2,4
28.105,0,6,22,15,1,0,0,1
28.11,1,1,0,24,3,1,1,2
28.115,1,3,4,7,0,1,2,1
28.12,2,5,0,10,0,1,0,3
28.125,1,2,21,24,7,4,1,4
28.13,4,3,0,21,7,5,5,0
28.135,4,0,6,13,0,3,2,2
28.14,3,2,0,5,4,1,1,2
28.145,12,10,34,24,8,3,0,2
28.15,4,7,6,0,0,2,1,3
28.155,8,2,1,4,1,0,0,2
28.16,2,3,1,5,2,1,1,1
28.165,2,7,19,19,9,3,1,2
28.17,14,3,4,5,2,0,1,1
28.175,5,2,10,8,1,1,1,0
28.18,9,2,7,1,2,3,4,5
28.185,4,0,2,19,2,2,1,1
28.19,8,0,3,0,4,2,2,0
28.195,4,5,14,21,2,1,1,0
28.2,0,3,15,15,0,1,2,2
28.205,3,2,13,16,2,2,0,4
28.21,2,5,5,5,1,0,1,2
28.215,11,7,7,10,2,4,2,2
28.22,8,3,1,3,5,2,1,3
28.225,7,1,11,4,2,1,1,4
28.23,2,0,3,4,2,1,1,1
28.235,11,2,4,4,3,1,2,2
28.24,5,0,3,7,1,4,2,1
28.245,1,2,1,2,3,0,3,4
28.25,4,4,1,8,0,0,1,4
28.255,5,3,1,4,0,3,2,2
28.26,5,1,1,2,0,0,7,9
28.265,8,4,1,3,1,1,0,2
28.27,5,8,4,0,1,3,3,3
28.275,4,4,2,4,1,1,1,1
28.28,1,4,7,6,4,2,1,1
28.285,8,8,5,7,1,1,1,0
28.29,2,2,1,1,0,1,1,8
28.295,1,2,1,1,2,3,3,7
28.3,1,2,4,1,0,1,2,2
28.305,1,6,3,0,2,2,2,1
28.31,7,0,4,2,1,1,0,3
28.315,1,1,4,4,6,5,8,8
28.32,11,1,3,1,1,2,2,1
28.325,17,4,4,1,1,1,3,5
28.33,8,5,6,2,5,6,6,10
28.335,9,7,8,6,3,5,2,8
28.34,1,2,4,2,1,0,1,3
28.345,1,1,2,2,2,4,5,5
28.35,3,4,6,5,5,3,4,2
28.355,1,2,1,0,3,0,2,1
28.36,10,15,8,5,3,1,0,0
28.365,5,4,3,2,2,2,0,2
28.37,4,4,4,2,2,1,3,2
28.375,1,1,7,4,2,1,1,2
28.38,6,4,6,1,3,3,5,13
28.385,1,5,3,2,0,1,1,0
28.39,1,2,2,2,2,3,2,10
28.395,6,3,1,5,4,4,2,4
28.4,2,2,2,3,0,2,1,0
28.405,1,5,1,1,0,0,2,1
28.41,3,1,3,10,3,4,3,3
28.415,1,2,2,1,1,1,1,4
28.42,4,3,3,2,3,2,1,5
28.425,2,10,4,4,2,2,0,2
28.43,5,4,1,3,0,0,2,0
28.435,0,2,2,0,0,1,0,1
28.44,4,2,5,10,9,2,2,0
28.445,2,3,0,3,0,0,0,0
28.45,9,6,2,2,3,4,8,10
28.455,3,3,2,1,1,1,0,1
28.46,3,4,1,3,1,1,1,0
28.465,1,1,1,2,2,0,1,3
28.47,4,7,0,1,0,1,2,2
28.475,1,4,0,1,0,2,3,3
28.48,7,7,6,3,2,5,4,1
28.485,6,6,2,1,2,0,1,0
28.49,7,3,0,0,0,1,1,0
28.495,0,3,1,1,0,1,0,0
28.5,8,5,4,1,0,0,1,2
28.505,1,7,2,1,3,3,3,5
28.51,4,1,4,4,2,0,2,3
28.515,3,5,3,0,1,0,4,3
28.52,1,1,5,1,4,2,2,4
28.525,2,3,1,1,3,2,0,6
28.53,7,3,2,1,0,1,5,7
28.535,1,1,0,1,1,1,1,2
28.54,1,1,2,2,1,0,2,3
28.545,5,2,2,1,1,3,1,1
28.55,6,3,5,1,0,2,0,1
28.555,1,3,5,2,2,2,0,1
28.56,6,2,1,0,2,1,1,4
28.565,4,3,2,4,4,3,2,0
28.57,1,1,2,4,3,5,0,1
28.575,1,4,3,0,1,1,4,2
28.58,6,0,1,0,1,2,1,2
28.585,0,2,1,0,0,0,0,0
28.59,3,3,3,2,0,2,0,1
28.595,0,0,1,2,1,1,1,0
28.6,4,0,1,1,1,1,1,1
28.605,3,6,2,3,4,4,2,3
28.61,0,2,0,1,1,0,1,3
28.615,2,3,1,3,0,3,3,4
28.62,5,4,2,0,3,4,0,2
28.625,1,2,1,4,0,0,1,3
28.63,8,0,5,2,1,2,0,4
28.635,15,14,3,5,5,4,3,5
28.64,1,2,1,3,1,4,4,0
28.645,2,2,1,1,1,0,1,5
28.65,2,9,7,1,3,2,3,3
28.655,4,4,1,3,0,1,0,3
28.66,10,6,4,6,2,3,1,2
28.665,1,0,0,0,1,3,3,3
28.67,3,2,1,1,2,1,1,2
28.675,2,1,6,1,2,0,1,1
28.68,1,0,0,2,1,2,0,2
28.685,1,2,3,0,2,1,1,3
28.69,6,3,2,5,5,4,0,2
28.695,2,0,1,1,2,2,4,1
28.7,4,5,1,0,2,3,2,0
28.705,1,1,2,1,1,1,2,1
28.71,1,1,1,1,2,0,0,3
28.715,4,2,2,2,1,0,1,1
28.72,2,1,0,0,2,1,1,1
28.725,3,4,6,7,3,1,1,0
28.73,1,2,4,20,8,1,3,2
28.735,1,2,1,3,2,2,1,2
28.74,1,3,3,4,3,2,0,1
28.745,3,5,1,2,1,5,3,5
28.75,2,2,1,7,8,1,0,2
28.755,2,0,1,0,5,2,1,0
28.76,0,1,8,9,3,3,2,3
28.765,3,5,21,3,4,6,3,2
28.77,1,2,15,11,1,0,1,1
28.775,2,1,12,30,2,1,1,1
28.78,4,10,41,69,16,4,2,4
28.785,2,5,14,18,4,2,1,3
28.79,0,2,23,16,0,3,1,1
28.795,3,9,17,29,13,4,2,3
28.8,1,6,8,17,4,2,2,0
28.805,2,5,27,20,5,1,1,0
28.81,5,12,17,37,9,2,2,2
28.815,2,1,16,13,2,2,2,1
28.82,5,12,30,42,9,4,0,2
28.825,0,3,0,5,10,3,1,1
28.83,1,0,2,14,0,3,1,1
28.835,3,4,18,39,5,2,0,2
28.84,1,4,16,15,2,1,1,2
28.845,1,5,23,37,0,1,0,1
28.85,1,5,2,37,14,4,1,2
28.855,6,13,49,104,22,7,5,6
28.86,3,3,9,14,8,5,2,3
28.865,3,7,24,30,7,2,2,1
28.87,1,1,1,10,1,2,1,0
28.875,0,3,12,22,3,0,2,2
28.88,3,7,17,22,10,6,0,1
28.885,4,9,27,30,16,6,5,3
28.89,3,3,14,4,1,0,0,2
28.895,4,0,7,7,9,7,2,4
28.9,4,7,20,3,8,5,3,2
28.905,1,3,33,7,2,2,0,0
28.91,1,2,6,23,1,1,1,1
28.915,4,4,27,10,3,1,1,3
28.92,0,4,29,32,4,3,0,1
28.925,0,1,10,32,3,3,0,1
28.93,0,1,2,15,4,1,1,1
28.935,5,1,23,25,4,2,1,0
28.94,2,14,44,61,22,8,2,0
28.945,9,20,75,97,28,14,6,7
28.95,2,5,12,5,3,3,1,1
28.955,1,1,1,15,0,2,1,0
28.96,1,8,4,12,6,5,1,1
28.965,1,2,14,25,0,2,2,0
28.97,1,2,19,0,6,2,1,1
28.975,15,13,22,30,13,10,5,9
28.98,4,7,42,29,3,1,2,2
28.985,5,10,28,9,6,6,2,4
28.99,10,13,23,12,14,9,6,7
28.995,10,10,21,79,9,4,4,3
29,16,3,7,36,9,8,6,4
29.005,26,3,21,11,4,1,1,1
29.01,5,0,15,1,2,1,3,4
29.015,4,3,15,26,7,3,1,4
29.02,3,2,18,80,6,1,1,0
29.025,4,2,15,49,8,3,1,0
29.03,1,3,6,17,3,4,4,1
29.035,7,17,21,21,22,11,6,5
29.04,4,2,17,14,6,3,1,0
29.045,9,3,2,35,4,0,3,0
29.05,18,12,21,63,11,8,3,6
29.055,9,16,48,57,9,6,2,2
29.06,1,9,34,54,15,4,2,2
29.065,12,2,48,107,4,4,1,3
29.07,13,25,58,6,18,10,8,8
29.075,0,6,3,22,2,3,0,1
29.08,7,2,5,18,2,1,0,2
29.085,2,2,14,76,11,2,1,0
29.09,0,3,1,1,4,2,2,1
29.095,4,2,19,30,8,5,4,12
29.1,10,14,9,3,5,4,4,1
29.105,4,0,13,78,4,1,2,2
29.11,2,3,10,13,0,1,2,4
29.115,4,6,29,21,7,4,1,5
29.12,0,4,62,84,9,2,0,2
29.125,2,16,61,62,1,6,2,5
29.13,4,24,42,1,11,4,0,3
29.135,0,9,5,48,12,8,5,4
29.14,5,10,19,46,6,4,3,4
29.145,6,21,64,43,21,10,3,6
29.15,6,19,48,100,35,16,8,7
29.155,2,6,3,35,13,6,3,1
29.16,6,2,21,43,2,1,0,2
29.165,13,14,17,11,5,4,3,7
29.17,17,27,43,12,12,6,3,5
29.175,9,6,1,13,4,1,1,0
29.18,7,0,15,44,1,1,1,0
29.185,4,7,15,5,2,2,2,1
29.19,6,9,18,23,8,3,0,1
29.195,7,7,17,4,9,5,2,1
29.2,10,15,32,40,9,2,1,4
29.205,1,11,55,31,9,3,1,2
29.21,3,1,17,58,0,3,2,2
29.215,1,10,2,72,6,1,3,4
29.22,1,7,36,41,1,3,1,1
29.225,1,14,55,80,18,8,3,4
29.23,10,2,16,46,7,0,1,2
29.235,1,10,8,43,3,2,0,0
29.24,7,16,36,46,10,4,2,4
29.245,1,4,43,59,0,3,2,1
29.25,10,2,22,5,3,2,3,9
29.255,2,4,9,24,4,1,2,3
29.26,4,10,35,6,4,3,3,4
29.265,12,17,54,28,13,7,3,4
29.27,17,16,33,29,23,14,7,7
29.275,1,4,13,15,3,1,1,3
29.28,0,4,12,25,8,5,1,2
29.285,10,6,1,15,4,0,0,1
29.29,3,4,9,34,4,0,0,1
29.295,6,2,15,75,7,3,2,0
29.3,8,5,26,21,1,1,0,3
29.305,1,3,10,22,1,2,1,1
29.31,2,1,6,14,4,1,1,1
29.315,11,13,20,70,12,4,3,6
29.32,2,1,4,30,3,3,2,1
29.325,0,4,2,28,3,1,1,0
29.33,3,2,2,9,6,0,0,1
29.335,1,1,20,9,8,4,3,0
29.34,2,3,5,12,2,0,0,1
29.345,1,14,23,27,10,7,5,4
29.35,8,13,15,3,7,4,3,0
29.355,7,3,3,17,2,2,3,2
29.36,2,6,0,12,2,1,2,3
29.365,5,0,0,8,2,1,1,1
29.37,4,5,1,16,6,1,1,2
29.375,17,11,8,14,12,7,3,1
29.38,3,6,7,6,1,1,2,3
29.385,5,4,2,24,2,1,1,2
29.39,8,3,5,15,1,4,1,0
29.395,3,4,8,48,6,1,1,2
29.4,5,0,16,2,1,1,2,1
29.405,2,4,7,5,1,2,0,2
29.41,1,2,4,35,9,7,3,4
29.415,12,2,4,7,6,3,2,2
29.42,2,4,10,0,0,1,1,0
29.425,2,10,43,58,11,3,0,0
29.43,9,17,51,63,19,9,3,4
29.435,1,5,17,3,6,3,1,0
29.44,1,10,2,9,2,4,3,4
29.445,4,1,0,12,1,0,0,3
29.45,1,2,30,44,9,1,1,3
29.455,11,2,15,45,0,2,2,3
29.46,4,2,1,25,3,0,1,3
29.465,3,8,18,19,2,1,1,0
29.47,2,1,27,27,2,3,1,1
29.475,1,3,8,7,1,1,1,0
29.48,5,1,20,36,4,1,0,0
29.485,8,7,14,35,11,5,3,5
29.49,4,9,23,38,12,4,3,0
29.495,0,2,13,31,4,1,2,0
29.5,3,7,8,17,4,6,4,3
29.505,0,0,2,3,2,1,1,1
29.51,2,0,6,10,0,1,1,1
29.515,1,0,1,2,1,1,3,3
29.52,3,2,4,9,0,0,1,0
29.525,0,3,7,3,2,1,0,0
29.53,7,1,17,9,1,1,0,0
29.535,14,3,6,7,4,5,1,2
29.54,4,2,9,8,3,3,0,3
29.545,2,2,5,1,1,1,1,0
29.55,2,2,2,14,1,3,3,2
29.555,5,3,1,0,4,0,0,1
29.56,2,0,1,5,0,1,1,1
29.565,1,2,3,4,4,5,0,1
29.57,1,1,13,14,5,1,3,3
29.575,2,1,4,8,1,2,1,2
29.58,6,1,1,7,2,1,3,4
29.585,4,2,2,8,2,1,0,2
29.59,3,2,1,2,1,2,2,2
29.595,1,1,2,9,2,2,2,4
29.6,8,7,6,13,2,2,0,0
29.605,7,4,0,3,1,1,3,3
29.61,8,1,5,2,5,2,1,4
29.615,0,0,4,4,3,1,1,0
29.62,6,2,4,1,1,0,1,2
29.625,0,2,8,9,4,5,3,4
29.63,2,0,6,14,0,1,2,1
29.635,0,1,7,10,0,1,1,0
29.64,3,3,3,5,3,3,2,3
29.645,7,6,5,7,2,1,0,1
29.65,4,0,3,2,1,1,0,2
29.655,2,2,1,1,1,0,1,1
29.66,2,5,3,3,0,1,0,1
29.665,1,2,2,3,2,1,2,2
29.67,1,4,4,3,1,2,3,5
29.675,4,9,3,3,1,1,3,3
29.68,2,1,5,2,2,0,1,5
29.685,2,3,1,0,3,2,3,6
29.69,1,2,0,2,4,3,0,3
29.695,5,0,0,3,2,3,3,3
29.7,4,4,2,0,0,1,1,3
29.705,3,1,1,4,2,4,1,1
29.71,10,15,4,0,2,2,0,0
29.715,4,8,3,1,0,1,1,1
29.72,1,0,1,3,2,0,3,4
29.725,2,2,5,2,1,1,1,3
29.73,3,7,0,1,1,2,3,4
29.735,6,10,3,3,2,3,3,6
29.74,3,9,5,7,7,3,3,1
29.745,3,0,4,0,1,2,1,2
29.75,2,3,2,1,2,1,2,3
29.755,5,6,0,1,2,2,1,2
29.76,4,12,7,0,3,1,0,6
29.765,0,3,1,5,1,3,1,1
29.77,9,10,1,1,1,2,0,1
29.775,4,3,5,6,5,3,2,2
29.78,7,2,3,4,1,3,2,3
29.785,3,1,4,1,1,1,3,4
29.79,5,1,2,0,1,4,2,1
29.795,0,1,2,1,1,3,5,5
29.8,2,5,4,4,1,0,2,5
29.805,0,0,0,3,2,4,5,5
29.81,0,5,7,4,2,4,4,6
29.815,3,10,4,2,1,2,1,2
29.82,6,7,3,4,1,2,4,6
29.825,23,24,12,6,4,3,0,2
29.83,1,2,3,3,4,0,1,1
29.835,0,3,0,1,2,0,3,6
29.84,0,5,4,6,1,3,3,4
29.845,7,7,4,5,1,1,2,1
29.85,0,2,2,7,2,1,0,6
29.855,3,2,6,7,7,2,0,3
29.86,6,0,3,0,1,1,1,1
29.865,1,2,3,5,1,1,2,3
29.87,3,3,0,1,3,4,2,3
29.875,5,5,3,1,7,3,1,2
29.88,4,7,6,4,4,5,6,6
29.885,5,5,4,5,1,1,1,4
29.89,7,5,4,3,0,0,1,1
29.895,0,6,1,8,2,1,2,0
29.9,15,6,5,5,3,1,1,2
29.905,0,3,2,6,2,3,4,6
29.91,2,2,3,2,1,0,4,3
29.915,3,4,0,3,2,2,3,2
29.92,1,3,2,4,2,0,2,1
29.925,0,1,1,0,0,1,0,1
29.93,2,1,3,3,0,2,3,1
29.935,5,1,1,1,1,3,6,5
29.94,2,5,5,1,2,0,1,2
29.945,0,2,1,3,2,1,0,2
29.95,2,2,2,2,1,0,0,0
29.955,1,6,3,3,2,2,0,0
29.96,0,4,1,1,1,1,0,2
29.965,1,2,0,1,1,1,0,1
29.97,0,3,2,3,4,1,2,1
29.975,6,3,0,1,0,0,2,1
29.98,0,2,1,4,2,1,0,2
29.985,1,7,7,6,3,2,2,4
29.99,1,1,2,1,3,3,2,1
29.995,1,1,0,3,0,0,1,1
30,1,4,7,3,1,1,2,3
30.005,1,2,3,2,6,0,1,1
30.01,1,3,4,5,2,4,1,1
30.015,5,3,0,1,1,2,2,3
30.02,1,1,0,7,4,1,1,1
30.025,0,1,6,9,6,3,4,0
30.03,1,3,1,3,0,2,1,1
30.035,2,2,2,5,8,4,0,2
30.04,2,3,1,10,4,1,1,3
30.045,3,4,4,9,4,2,0,0
30.05,3,3,2,1,1,1,2,0
30.055,2,1,3,3,1,0,1,2
30.06,2,3,2,2,4,3,1,1
30.065,2,3,4,8,8,3,1,1
30.07,1,0,1,3,1,1,2,1
30.075,1,1,6,12,6,1,3,2
30.08,3,3,2,3,4,2,1,1
30.085,2,4,2,0,4,4,2,1
30.09,0,0,6,1,1,2,1,2
30.095,0,0,9,12,5,0,0,0
30.1,0,3,5,0,3,1,1,2
30.105,3,6,17,3,5,4,2,3
30.11,0,2,9,24,5,0,1,1
30.115,0,7,10,8,8,3,1,1
30.12,1,2,4,7,1,0,0,1
30.125,2,2,24,1,9,4,0,1
30.13,3,7,4,22,3,2,4,4
30.135,1,3,11,16,2,4,1,2
30.14,0,3,25,68,9,3,2,3
30.145,2,5,21,21,1,1,0,0
30.15,2,3,2,4,7,3,0,0
30.155,5,11,24,14,6,4,5,4
30.16,1,5,9,47,14,5,3,1
30.165,1,5,15,12,2,0,0,0
30.17,6,13,19,34,24,11,4,5
30.175,1,2,10,16,1,0,1,0
30.18,1,4,20,20,4,2,1,0
30.185,2,4,5,25,11,3,0,2
30.19,1,4,28,30,7,0,1,1
30.195,2,6,38,18,1,1,1,0
30.2,3,7,29,49,13,2,2,0
30.205,3,1,6,6,4,1,1,4
30.21,0,1,17,38,1,3,1,1
30.215,2,4,7,7,12,6,1,2
30.22,3,8,34,31,0,0,0,5
30.225,2,6,57,31,1,2,1,0
30.23,5,6,5,25,3,0,0,1
30.235,4,11,49,29,9,3,2,2
30.24,1,5,24,18,1,2,2,1
30.245,1,4,9,13,5,0,0,2
30.25,3,1,15,3,8,5,5,4
30.255,1,3,13,41,4,1,0,2
30.26,6,16,34,73,23,10,6,9
30.265,15,29,58,115,32,14,9,10
30.27,1,6,3,35,15,9,4,5
30.275,7,7,3,43,8,5,3,5
30.28,2,4,4,5,9,4,2,1
30.285,2,2,8,19,7,2,0,1
30.29,0,4,2,46,1,2,0,0
30.295,3,1,18,6,7,5,2,0
30.3,0,0,3,21,4,2,1,2
30.305,4,2,19,47,6,1,2,1
30.31,2,2,17,77,6,0,0,0
30.315,9,23,44,9,15,10,5,6
30.32,1,0,7,6,6,4,1,2
30.325,2,2,1,31,3,3,1,1
30.33,2,4,17,17,8,2,1,1
30.335,2,3,5,48,3,2,0,1
30.34,6,5,38,0,10,3,3,4
30.345,16,1,21,6,6,6,5,2
30.35,20,12,37,10,23,13,5,6
30.355,9,14,14,64,17,11,7,6
30.36,2,4,5,40,1,1,1,0
30.365,2,10,13,21,3,0,1,0
30.37,10,5,12,23,1,2,0,2
30.375,5,7,9,13,8,5,1,1
30.38,11,9,8,11,10,7,6,5
30.385,2,8,10,12,4,0,1,0
30.39,7,6,2,47,0,1,2,0
30.395,10,7,26,3,6,2,1,2
30.4,2,7,41,66,5,1,1,1
30.405,1,20,64,39,24,11,4,5
30.41,10,29,65,26,31,18,11,8
30.415,3,3,15,21,1,2,1,1
30.42,0,7,4,7,4,4,3,1
30.425,5,3,30,20,8,2,3,3
30.43,8,3,3,20,12,7,3,7
30.435,13,19,55,33,12,7,3,6
30.44,10,12,10,23,9,4,2,3
30.445,1,6,36,20,3,2,0,3
30.45,3,9,35,26,7,5,1,6
30.455,10,3,40,62,1,0,0,2
30.46,24,9,32,90,3,9,8,8
30.465,11,14,29,59,13,3,1,2
30.47,1,5,50,48,2,0,2,2
30.475,9,1,12,8,1,2,3,3
30.48,6,11,14,8,8,1,1,1
30.485,7,14,39,7,11,7,4,4
30.49,4,12,39,50,14,9,4,1
30.495,5,15,15,80,6,5,3,2
30.5,8,17,29,27,20,10,5,4
30.505,12,1,53,23,3,4,3,0
30.51,9,5,32,26,13,10,8,7
30.515,5,6,30,71,13,3,1,1
30.52,7,1,2,50,1,5,3,3
30.525,3,5,22,9,6,5,4,1
30.53,1,8,43,21,10,4,2,3
30.535,1,2,8,10,5,4,3,5
30.54,4,14,9,33,15,8,7,5
30.545,2,12,29,16,15,8,4,2
30.55,0,13,31,33,5,5,2,1
30.555,1,0,20,38,2,5,3,3
30.56,12,10,9,4,13,7,4,3
30.565,1,8,34,17,1,2,2,1
30.57,11,7,3,43,16,11,6,3
30.575,7,1,7,31,1,3,1,3
30.58,6,3,20,56,1,1,3,9
30.585,0,3,5,16,4,0,0,1
30.59,2,4,8,10,5,2,1,1
30.595,7,2,16,13,5,5,3,2
30.6,2,3,18,13,8,5,5,6
30.605,9,7,3,7,0,1,0,2
30.61,0,4,5,6,2,1,0,0
30.615,9,2,13,43,4,0,0,1
30.62,24,9,42,51,9,3,2,1
30.625,5,4,12,30,11,5,5,4
30.63,2,1,9,29,2,2,3,2
30.635,5,4,19,9,0,1,1,3
30.64,7,6,37,16,7,4,2,4
30.645,10,14,7,14,14,10,3,3
30.65,2,5,5,3,2,2,0,2
30.655,6,1,15,14,2,3,2,0
30.66,6,0,7,22,4,6,3,3
30.665,2,1,2,3,8,4,4,3
30.67,6,8,19,2,3,1,0,3
30.675,8,6,10,16,2,1,0,6
30.68,4,7,18,47,8,2,2,4
30.685,2,14,14,22,5,2,2,2
30.69,1,0,21,32,6,2,1,1
30.695,2,2,7,33,6,0,1,1
30.7,13,4,6,13,4,1,1,1
30.705,10,2,15,8,2,2,0,4
30.71,1,7,19,30,5,1,0,0
30.715,3,6,8,36,6,0,3,0
30.72,7,4,17,10,4,1,0,1
30.725,1,1,4,20,3,0,0,4
30.73,2,2,5,10,4,4,1,3
30.735,2,3,13,31,9,3,2,0
30.74,4,4,3,6,0,4,1,2
30.745,1,1,2,10,2,0,1,1
30.75,1,3,6,9,1,2,2,3
30.755,4,5,19,20,3,0,1,2
30.76,4,2,31,34,8,3,1,1
30.765,8,2,3,10,2,1,2,3
30.77,6,1,15,11,2,1,2,1
30.775,8,9,6,12,4,1,1,3
30.78,12,3,10,7,2,1,1,1
30.785,19,4,7,9,1,4,3,3
30.79,2,9,32,41,6,3,2,0
30.795,5,4,12,7,5,3,0,1
30.8,0,3,19,39,6,1,0,0
30.805,1,5,24,37,8,1,1,1
30.81,0,3,23,5,2,0,2,1
30.815,1,5,30,4,6,1,1,1
30.82,2,7,21,4,5,3,4,2
30.825,2,1,3,10,2,2,0,1
30.83,3,5,1,24,1,4,3,1
30.835,0,4,13,31,4,0,2,0
30.84,2,2,3,23,2,3,1,2
30.845,3,7,5,1,3,0,1,2
30.85,1,7,6,36,11,5,4,2
30.855,5,8,34,87,16,7,4,3
30.86,2,1,16,25,0,2,2,4
30.865,1,3,4,22,2,1,2,3
30.87,1,3,6,20,4,0,0,1
30.875,1,3,6,7,1,3,1,4
30.88,11,0,6,6,2,2,1,0
30.885,8,2,16,1,1,1,1,1
30.89,7,0,19,7,2,0,1,2
30.895,7,1,21,6,3,1,1,1
30.9,6,8,2,25,2,4,4,6
30.905,1,2,16,2,3,2,0,1
30.91,3,6,29,53,5,0,2,2
30.915,4,1,9,2,6,1,2,2
30.92,2,3,6,30,7,2,2,2
30.925,3,4,17,15,1,1,1,2
30.93,4,1,4,14,0,3,3,4
30.935,13,10,6,15,3,4,3,3
30.94,13,6,4,17,1,3,0,1
30.945,3,1,7,13,1,0,1,1
30.95,2,0,2,2,5,2,3,5
30.955,3,0,6,12,4,0,1,0
30.96,4,3,11,15,3,2,0,0
30.965,5,3,3,9,3,1,2,0
30.97,1,2,13,30,3,1,1,0
30.975,2,1,9,14,3,4,0,3
30.98,0,2,6,23,3,4,3,0
30.985,10,0,2,2,0,1,2,6
30.99,4,4,5,1,2,1,1,2
30.995,9,4,12,11,0,1,2,2
31,4,5,6,15,2,1,1,0
31.005,5,0,3,11,3,0,0,0
31.01,6,0,7,13,6,3,2,4
31.015,1,4,6,5,1,0,0,1
31.02,5,2,1,2,0,0,1,4
31.025,2,1,4,4,1,2,2,2
31.03,2,5,5,9,2,2,0,1
31.035,5,9,3,6,0,0,1,5
31.04,5,2,1,0,0,1,1,5
31.045,4,2,2,3,1,0,2,7
31.05,3,1,7,12,1,0,3,3
31.055,3,4,3,0,3,3,4,6
31.06,12,7,3,4,2,2,3,7
31.065,1,5,10,11,5,3,1,3
31.07,8,7,3,2,1,0,2,1
31.075,0,4,4,6,1,1,6,8
31.08,7,1,0,4,3,1,5,5
31.085,3,2,1,0,0,1,1,1
31.09,16,12,8,1,3,4,3,4
31.095,2,2,2,1,1,0,1,2
31.1,4,1,1,5,2,1,2,1
31.105,8,6,2,2,1,3,2,1
31.11,10,13,11,10,7,4,8,13
31.115,1,2,7,4,3,2,0,3
31.12,3,2,2,2,2,1,4,5
31.125,3,4,1,3,2,2,7,4
31.13,1,2,4,9,8,7,7,3
31.135,7,10,0,0,0,0,0,1
31.14,7,3,3,3,6,4,5,5
31.145,2,3,2,0,3,1,1,4
31.15,5,0,0,1,2,2,1,0
31.155,3,2,3,2,1,2,3,3
31.16,6,5,0,2,1,1,1,5
31.165,11,7,8,5,5,1,1,6
31.17,1,6,3,1,0,1,3,1
31.175,1,0,4,1,2,2,1,1
31.18,7,2,0,1,3,3,5,7
31.185,3,5,4,3,2,4,4,9
31.19,8,9,7,10,6,2,0,3
31.195,2,2,2,4,5,4,4,2
31.2,1,2,0,0,0,2,3,5
31.205,4,7,1,5,2,2,3,0
31.21,5,4,1,2,3,2,5,5
31.215,1,3,4,6,2,0,0,3
31.22,4,8,2,6,6,5,5,3
31.225,3,3,1,1,4,3,4,2
31.23,1,6,0,1,2,2,1,1
31.235,1,3,1,0,2,4,1,1
31.24,4,3,2,0,0,1,2,11
31.245,5,5,0,1,5,3,4,1
31.25,6,3,2,1,1,1,0,0
31.255,5,6,5,4,2,3,2,4
31.26,5,2,3,3,3,1,2,5
31.265,2,3,4,4,4,0,2,1
31.27,4,5,0,3,4,2,0,5
31.275,1,0,2,4,1,5,3,0
31.28,4,6,1,7,5,3,3,3
31.285,0,1,4,3,0,1,2,2
31.29,0,2,0,3,1,2,1,3
31.295,5,5,2,7,5,4,3,10
31.3,11,8,2,6,4,0,2,1
31.305,12,15,3,2,1,0,1,2
31.31,0,6,2,1,2,2,2,4
31.315,7,7,0,0,1,0,0,1
31.32,1,2,3,3,1,1,1,1
31.325,6,8,2,3,4,2,1,1
31.33,3,3,1,2,1,1,1,1
31.335,2,2,3,1,1,0,2,5
31.34,2,5,11,11,8,4,4,3
31.345,2,6,3,1,2,3,3,3
31.35,2,0,6,5,4,1,2,0
31.355,4,2,1,0,3,1,2,1
31.36,1,1,2,1,4,5,5,7
31.365,5,13,5,9,7,5,7,8
31.37,12,16,1,4,3,2,4,3
31.375,3,4,0,6,6,6,5,3
31.38,5,10,2,4,7,2,0,3
31.385,5,5,0,8,8,1,0,3
31.39,2,2,2,2,1,1,2,5
31.395,2,0,0,5,3,1,2,2
31.4,1,4,4,4,4,3,0,1
31.405,5,0,1,1,0,0,1,4
31.41,3,2,2,2,1,0,1,0
31.415,1,2,2,0,1,1,2,3
31.42,2,3,8,4,4,1,1,2
31.425,4,2,1,1,0,3,3,7
31.43,2,0,2,2,6,2,1,2
31.435,0,0,3,2,0,1,5,3
31.44,0,3,2,2,0,3,3,3
31.445,4,1,4,3,5,4,3,3
31.45,2,1,1,1,1,0,0,0
31.455,1,3,1,2,4,1,0,2
31.46,4,6,4,3,3,1,1,1
31.465,12,13,1,1,5,3,4,2
31.47,2,4,8,1,3,1,1,0
31.475,2,0,2,1,2,4,1,2
31.48,3,2,1,8,6,2,2,0
31.485,5,5,1,10,9,1,0,1
31.49,1,5,6,18,11,3,1,1
31.495,1,0,3,2,1,0,1,2
31.5,2,1,1,2,1,1,1,2
31.505,3,3,4,1,3,2,0,1
31.51,2,1,7,11,3,3,2,1
31.515,2,0,6,3,3,1,1,3
31.52,3,1,0,1,4,4,2,2
31.525,2,2,3,2,1,0,2,1
31.53,0,0,0,0,2,2,0,1
31.535,0,1,2,7,8,5,4,1
31.54,1,1,17,18,4,1,0,1
31.545,3,4,3,2,4,0,2,1
31.55,0,0,11,36,12,4,4,2
31.555,1,2,19,28,8,0,1,0
31.56,6,12,22,5,2,0,2,2
31.565,1,3,3,2,13,5,4,2
31.57,2,4,12,9,4,1,2,3
31.575,4,5,6,9,7,4,4,3
31.58,2,9,32,35,18,4,3,3
31.585,2,7,45,32,10,3,2,3
31.59,2,2,25,37,2,4,0,3
31.595,2,15,42,32,15,4,2,2
31.6,4,15,66,57,12,3,1,2
31.605,2,3,41,10,4,3,3,1
31.61,3,6,1,36,11,3,1,1
31.615,4,9,46,103,13,6,3,5
31.62,4,12,48,40,8,4,0,3
31.625,4,11,24,12,4,5,2,2
31.63,1,2,10,28,13,5,0,4
31.635,1,1,0,18,2,2,1,0
31.64,6,4,7,24,2,4,3,3
31.645,1,8,18,5,5,2,0,5
31.65,2,3,3,33,18,7,1,1
31.655,7,3,25,1,6,1,2,1
31.66,5,1,26,3,9,8,4,3
31.665,1,1,13,27,2,1,1,1
31.67,1,6,6,13,4,1,1,1
31.675,4,14,36,63,10,5,2,2
31.68,1,6,11,12,2,2,0,0
31.685,2,0,1,24,3,2,3,0
31.69,1,0,7,23,5,2,1,2
31.695,7,8,2,4,14,11,6,9
31.7,3,0,4,22,7,2,0,0
31.705,4,4,3,25,8,2,1,3
31.71,3,5,11,16,17,7,2,2
31.715,2,2,36,42,6,4,2,2
31.72,13,22,70,61,19,9,5,8
31.725,1,0,4,37,1,6,4,3
31.73,1,1,2,22,4,0,0,1
31.735,18,13,18,66,20,9,4,4
31.74,24,10,15,54,0,2,1,1
31.745,1,20,29,7,19,9,4,4
31.75,9,17,21,48,20,10,5,7
31.755,4,12,26,20,18,7,3,4
31.76,18,1,1,11,11,4,0,2
31.765,2,11,24,10,2,3,2,3
31.77,1,3,11,35,1,1,0,0
31.775,2,1,19,26,0,3,3,3
31.78,4,3,16,29,0,2,1,1
31.785,7,3,41,5,1,2,3,4
31.79,2,12,37,30,5,1,2,1
31.795,8,9,31,6,8,8,4,5
31.8,2,2,41,45,3,0,1,3
31.805,13,21,73,75,13,5,3,3
31.81,1,3,58,73,11,9,5,3
31.815,2,3,12,35,8,4,1,1
31.82,3,5,27,20,5,3,1,0
31.825,5,9,15,6,15,8,4,4
31.83,10,17,27,18,10,6,2,4
31.835,31,20,5,16,16,9,6,10
31.84,4,9,74,58,12,6,1,2
31.845,2,8,12,18,10,3,2,1
31.85,8,10,19,44,8,1,0,2
31.855,9,2,32,101,6,0,3,0
31.86,1,2,9,19,2,2,1,0
31.865,2,4,19,42,5,4,0,2
31.87,5,2,6,46,8,6,4,6
31.875,9,3,35,31,5,5,3,4
31.88,2,6,25,50,0,1,2,1
31.885,7,14,25,47,24,10,6,9
31.89,17,21,26,52,35,18,9,12
31.895,1,9,25,28,4,1,0,1
31.9,5,18,49,31,9,7,1,1
31.905,1,11,18,4,5,2,1,0
31.91,2,2,3,76,6,1,1,0
31.915,3,3,9,45,7,2,0,2
31.92,6,16,40,7,7,4,3,1
31.925,6,0,6,15,1,1,2,5
31.93,12,9,1,39,1,1,0,1
31.935,4,12,40,18,6,7,4,5
31.94,12,11,59,66,15,6,4,5
31.945,4,13,18,50,9,4,1,3
31.95,2,3,30,118,18,3,1,1
31.955,1,5,12,88,9,1,0,1
31.96,15,27,42,60,31,19,10,12
31.965,4,6,8,52,4,2,1,3
31.97,2,1,6,54,1,2,2,1
31.975,6,12,3,7,3,4,2,3
31.98,1,5,24,2,4,2,3,3
31.985,12,2,0,22,1,1,2,2
31.99,15,2,12,6,7,2,1,6
31.995,3,6,31,19,4,4,2,2
32,6,20,76,14,13,6,0,4
32.005,6,19,76,70,25,13,8,6
32.01,10,11,47,60,11,3,0,2
32.015,13,8,26,30,9,9,5,7
32.02,10,9,29,26,7,3,2,2
32.025,6,5,0,10,4,2,2,4
32.03,9,2,20,3,1,1,1,2
32.035,5,9,16,31,8,3,3,2
32.04,23,1,7,45,6,3,2,3
32.045,10,3,45,41,8,2,1,0
32.05,2,7,40,25,6,3,2,3
32.055,3,2,28,29,9,5,1,2
32.06,6,0,23,6,1,1,1,1
32.065,9,2,2,4,2,1,1,1
32.07,1,11,35,76,7,2,4,5
32.075,4,5,46,113,6,0,0,3
32.08,5,0,2,23,13,4,3,2
32.085,4,6,19,9,1,4,0,2
32.09,2,0,15,23,3,1,1,1
32.095,1,8,6,57,8,3,1,1
32.1,8,2,6,27,10,5,2,3
32.105,2,2,3,2,5,3,2,2
32.11,3,12,9,7,2,1,0,0
32.115,9,2,29,4,4,5,4,6
32.12,4,3,14,76,14,3,1,1
32.125,0,0,21,66,19,6,4,0
32.13,3,0,9,1,3,2,1,0
32.135,1,3,18,6,1,0,1,0
32.14,1,1,54,21,1,0,0,2
32.145,19,3,22,9,3,2,0,1
32.15,3,3,7,52,6,9,5,3
32.155,6,0,6,24,1,1,2,6
32.16,2,0,39,42,3,2,2,6
32.165,4,4,26,11,3,2,0,1
32.17,5,7,19,3,1,0,1,2
32.175,5,3,18,28,7,3,2,2
32.18,0,12,47,27,13,8,6,2
32.185,4,15,45,35,5,3,2,3
32.19,2,2,14,1,2,1,0,1
32.195,1,8,9,23,2,0,2,3
32.2,2,7,4,39,1,4,2,5
32.205,5,10,8,22,6,5,7,6
32.21,1,3,28,3,2,2,1,4
32.215,1,11,44,41,8,8,6,3
32.22,4,12,34,43,6,2,0,1
32.225,11,4,22,12,10,5,2,3
32.23,7,4,5,7,2,1,0,0
32.235,1,3,4,6,0,2,1,1
32.24,12,18,34,34,16,8,4,5
32.245,3,19,22,19,7,7,4,4
32.25,7,1,15,21,5,4,2,4
32.255,7,9,20,22,3,2,1,3
32.26,3,6,4,4,2,1,2,0
32.265,2,6,15,35,0,2,0,2
32.27,1,1,9,16,8,4,2,3
32.275,7,18,7,13,10,8,5,5
32.28,4,8,26,2,7,3,1,2
32.285,5,15,31,29,9,3,1,2
32.29,2,3,1,11,5,2,4,3
32.295,4,4,22,10,2,1,2,2
32.3,3,4,1,33,5,0,1,0
32.305,5,3,2,20,3,4,4,2
32.31,3,6,8,15,5,4,2,1
32.315,2,4,2,6,2,1,1,1
32.32,2,4,19,15,8,5,6,5
32.325,6,0,8,2,4,4,2,1
32.33,1,7,1,14,4,1,0,0
32.335,3,3,17,1,4,1,0,2
32.34,9,5,27,41,6,2,2,6
32.345,3,1,21,14,3,3,1,2
32.35,7,3,5,10,4,2,2,3
32.355,8,1,5,13,6,3,1,3
32.36,6,10,11,9,10,7,4,5
32.365,0,0,24,55,0,3,1,5
32.37,10,8,16,35,7,8,6,9
32.375,2,1,4,17,3,2,1,3
32.38,1,0,13,5,2,2,3,1
32.385,1,2,3,11,2,2,2,1
32.39,8,2,20,22,2,0,0,1
32.395,10,2,7,21,8,3,2,3
32.4,1,1,15,51,7,2,2,2
32.405,3,3,3,15,2,4,4,1
32.41,15,3,12,15,2,2,1,0
32.415,4,1,6,14,1,1,0,1
32.42,15,0,3,9,2,0,2,5
32.425,10,2,2,14,3,2,0,3
32.43,5,3,3,10,1,0,0,2
32.435,7,4,8,16,6,4,3,3
32.44,4,3,6,13,2,1,1,2
32.445,3,0,6,1,2,1,1,2
32.45,20,6,8,0,2,3,2,2
32.455,2,0,9,23,6,3,2,3
32.46,4,1,5,8,1,2,1,6
32.465,4,2,1,3,1,1,1,6
32.47,8,1,2,4,1,1,3,2
32.475,1,1,7,14,1,1,1,0
32.48,2,4,9,18,3,2,2,2
32.485,17,15,2,2,1,1,0,2
32.49,4,5,2,3,2,4,0,1
32.495,6,2,4,8,1,1,0,2
32.5,15,1,4,9,1,1,1,1
32.505,2,4,2,6,2,2,2,3
32.51,1,4,2,3,0,2,3,1
32.515,3,1,3,2,3,4,1,1
32.52,11,2,2,1,0,1,3,3
32.525,0,2,2,2,1,1,0,4
32.53,15,4,2,2,1,3,2,2
32.535,11,8,0,0,1,3,3,3
32.54,6,2,2,3,2,3,1,3
32.545,4,0,3,3,1,1,2,3
32.55,0,0,2,3,3,2,1,1
32.555,3,2,8,7,2,1,0,2
32.56,7,5,2,1,5,4,1,1
32.565,2,5,4,4,1,1,1,1
32.57,4,2,2,1,2,4,4,6
32.575,0,4,3,9,4,4,3,0
32.58,1,1,5,7,5,4,2,1
32.585,20,12,4,1,0,1,3,6
32.59,2,2,1,7,7,2,4,7
32.595,5,5,0,1,4,0,1,7
32.6,2,5,3,4,1,0,2,3
32.605,7,0,0,1,1,2,1,1
32.61,0,3,0,1,2,3,3,2
32.615,5,3,3,3,2,2,4,4
32.62,8,9,4,5,3,0,2,3
32.625,4,8,5,3,3,2,0,1
32.63,13,9,0,1,1,1,2,1
32.635,7,7,0,1,0,2,0,2
32.64,2,4,1,1,2,1,3,1
32.645,4,4,2,0,2,0,1,3
32.65,4,0,1,1,3,1,2,1
32.655,3,3,5,5,4,2,2,2
32.66,1,4,1,4,2,2,2,1
32.665,1,0,7,7,2,4,6,4
32.67,4,5,2,3,0,1,3,5
32.675,1,0,2,1,0,0,3,4
32.68,5,4,1,2,2,5,6,2
32.685,3,4,5,6,5,5,4,0
32.69,13,3,6,4,2,4,7,17
32.695,5,1,0,2,1,2,0,2
32.7,2,1,4,5,0,0,1,2
32.705,6,1,6,1,2,3,1,1
32.71,7,8,2,0,1,3,3,4
32.715,5,10,4,3,2,0,1,2
32.72,4,0,1,1,4,1,2,4
32.725,0,3,8,14,5,0,0,1
32.73,1,8,5,6,0,1,1,0
32.735,2,2,4,3,0,2,2,5
32.74,0,6,8,2,0,2,1,2
32.745,2,2,4,0,6,3,0,2
32.75,0,1,0,6,3,1,0,3
32.755,3,5,3,10,12,2,2,5
32.76,2,2,4,1,6,0,0,2
32.765,6,7,4,3,2,1,1,3
32.77,19,14,0,2,1,1,2,4
32.775,0,2,7,2,1,2,2,7
32.78,1,2,0,1,1,1,6,6
32.785,4,7,3,3,1,0,0,1
32.79,7,5,1,2,3,5,6,5
32.795,2,3,2,2,1,1,3,4
32.8,3,9,3,1,2,2,3,2
32.805,1,2,1,3,3,4,4,6
32.81,2,3,2,2,0,1,1,1
32.815,4,4,1,0,2,5,4,2
32.82,2,4,1,1,2,1,4,3
32.825,2,4,1,2,2,2,2,4
32.83,1,3,2,5,2,1,1,2
32.835,3,5,3,1,0,0,1,1
32.84,2,4,3,1,0,1,2,0
32.845,9,4,2,0,3,5,4,2
32.85,5,9,10,7,5,3,3,1
32.855,2,1,0,2,1,0,1,0
32.86,1,2,1,0,2,2,1,1
32.865,2,2,1,5,1,1,1,1
32.87,8,5,1,3,0,1,0,4
32.875,1,2,0,2,2,1,0,1
32.88,3,5,0,0,4,2,1,0
32.885,2,5,3,2,4,1,1,2
32.89,1,3,1,3,4,2,2,1
32.895,5,3,4,2,2,1,1,1
32.9,0,1,2,4,2,1,3,3
32.905,2,10,14,8,5,2,0,3
32.91,1,3,6,1,0,2,1,1
32.915,4,3,1,3,2,2,2,5
32.92,2,3,2,2,0,1,3,1
32.925,2,2,0,2,1,2,1,1
32.93,1,0,1,1,1,1,1,1
32.935,2,3,7,9,6,7,4,3
32.94,4,2,0,0,1,0,1,2
32.945,6,1,6,10,3,1,1,3
32.95,0,1,0,1,0,1,0,0
32.955,4,2,1,4,3,1,0,0
32.96,2,0,3,4,2,3,1,2
32.965,0,1,4,2,3,2,0,0
32.97,3,4,4,3,5,4,3,0
32.975,1,1,0,10,5,2,3,0
32.98,2,4,5,1,2,0,0,2
32.985,1,1,4,10,6,2,2,0
32.99,1,1,1,3,0,0,1,1
32.995,1,2,2,2,0,3,0,2
33,2,4,6,2,0,2,2,2
33.005,2,3,5,6,3,2,2,4
33.01,2,0,2,3,0,1,0,0
33.015,3,2,8,3,1,1,1,1
33.02,3,1,11,5,5,3,2,1
33.025,1,2,10,1,7,3,0,2
33.03,3,2,13,7,0,1,1,1
33.035,2,3,2,23,15,5,3,2
33.04,3,4,11,4,5,3,1,2
33.045,0,2,18,2,3,1,2,2
33.05,4,6,18,11,11,6,3,1
33.055,0,2,9,1,7,1,2,2
33.06,1,11,21,3,3,2,1,1
33.065,1,8,25,13,7,4,3,2
33.07,3,10,57,31,9,2,0,0
33.075,0,2,32,17,10,4,1,3
33.08,4,9,0,27,12,5,3,3
33.085,2,6,9,21,1,0,2,1
33.09,6,12,29,17,9,5,3,4
33.095,4,7,29,30,8,5,2,3
33.1,1,4,24,36,2,0,1,2
33.105,3,5,16,3,2,2,2,2
33.11,3,17,26,37,9,1,0,3
33.115,6,7,2,39,11,4,3,5
33.12,4,8,23,31,17,4,3,2
33.125,2,3,4,43,0,3,1,0
33.13,6,9,23,72,17,9,6,3
33.135,0,1,1,3,2,0,1,1
33.14,0,1,0,4,1,3,1,1
33.145,1,1,3,3,5,0,0,1
33.15,3,2,9,29,6,2,3,2
33.155,0,6,12,12,10,7,3,2
33.16,5,3,1,2,6,2,2,2
33.165,1,8,44,71,4,2,0,1
33.17,9,13,28,46,24,11,5,2
33.175,13,16,21,34,24,17,11,11
33.18,0,2,12,41,8,4,2,0
33.185,1,1,27,36,0,1,0,1
33.19,4,7,16,35,4,3,3,1
33.195,5,1,6,26,3,2,2,2
33.2,4,2,2,1,8,3,2,1
33.205,2,1,9,1,4,4,2,1
33.21,1,10,2,4,10,2,1,1
33.215,8,11,60,38,24,11,6,7
33.22,11,24,91,62,9,5,4,3
33.225,5,4,33,16,14,7,3,2
33.23,6,5,55,35,2,0,1,4
33.235,7,5,40,37,6,7,4,3
33.24,1,13,11,61,13,8,3,2
33.245,9,7,38,78,5,3,2,6
33.25,1,12,14,30,17,10,6,11
33.255,0,4,5,14,16,7,4,3
33.26,2,5,2,93,25,14,6,8
33.265,16,9,15,33,7,4,1,2
33.27,1,7,35,27,6,5,2,2
33.275,1,5,2,24,6,2,1,0
33.28,2,1,68,82,11,3,2,1
33.285,6,4,0,48,7,9,5,5
33.29,15,34,76,88,28,8,4,5
33.295,6,5,16,1,9,5,0,2
33.3,15,4,14,34,24,11,6,10
33.305,2,10,24,2,6,2,1,0
33.31,14,18,71,88,17,1,1,3
33.315,32,15,55,90,13,5,6,7
33.32,6,2,8,25,12,6,3,8
33.325,14,8,23,34,7,0,1,5
33.33,2,9,54,36,11,1,1,3
33.335,8,1,3,19,12,6,2,3
33.34,3,4,38,59,3,3,2,1
33.345,4,17,59,62,12,4,1,2
33.35,3,11,45,19,5,2,1,1
33.355,9,13,67,13,6,3,2,3
33.36,2,28,64,18,11,9,5,7
33.365,6,11,5,21,4,2,1,1
33.37,4,4,15,43,10,6,3,1
33.375,11,7,12,3,24,13,5,8
33.38,7,9,16,65,14,7,5,7
33.385,3,13,15,52,2,1,1,9
33.39,16,31,9,15,17,11,4,8
33.395,18,25,38,15,15,13,9,8
33.4,7,11,20,103,21,6,3,4
33.405,1,2,9,25,2,3,1,0
33.41,8,35,83,87,26,16,8,9
33.415,7,20,43,7,1,2,3,3
33.42,2,2,6,8,5,3,2,2
33.425,18,1,7,35,1,3,1,0
33.43,4,15,23,56,8,12,9,10
33.435,2,3,31,78,7,1,1,2
33.44,8,10,32,100,15,5,1,4
33.445,9,28,69,103,28,13,6,7
33.45,7,8,32,45,12,6,3,3
33.455,11,0,4,14,18,11,5,5
33.46,4,19,31,5,13,10,4,3
33.465,10,13,39,2,12,12,7,7
33.47,3,3,23,19,2,0,0,2
33.475,10,12,61,40,4,3,1,1
33.48,1,7,68,27,7,3,3,2
33.485,5,14,83,98,8,4,1,1
33.49,14,31,73,26,6,4,2,5
33.495,5,20,42,34,7,4,2,1
33.5,6,5,29,39,11,1,0,0
33.505,1,5,60,49,2,5,2,2
33.51,0,10,7,29,14,8,4,5
33.515,6,22,66,68,21,9,5,5
33.52,17,10,13,8,4,6,4,10
33.525,0,12,47,70,12,5,2,1
33.53,6,3,10,17,3,1,2,1
33.535,12,0,10,17,1,0,1,3
33.54,4,9,44,25,4,2,1,1
33.545,1,2,11,38,6,3,1,1
33.55,4,4,23,94,14,6,2,4
33.555,13,18,30,26,3,4,4,3
33.56,9,0,12,8,6,4,3,4
33.565,2,5,1,22,9,6,2,3
33.57,5,12,11,10,1,1,1,0
33.575,8,0,12,35,1,1,2,0
33.58,3,2,41,73,10,4,3,2
33.585,4,7,11,29,4,1,0,1
33.59,2,6,16,67,3,3,0,0
33.595,11,11,25,74,13,7,4,4
33.6,1,2,4,40,1,0,1,1
33.605,9,10,36,30,8,5,2,1
33.61,6,14,35,31,6,7,4,0
33.615,1,12,23,16,8,5,1,4
33.62,4,11,10,3,14,10,4,0
33.625,8,13,17,34,1,2,0,1
33.63,8,17,16,13,7,3,1,2
33.635,1,5,4,41,5,4,1,1
33.64,5,2,43,79,3,5,4,0
33.645,4,1,22,10,2,3,2,2
33.65,1,1,2,22,1,2,0,1
33.655,2,0,20,5,3,2,0,0
33.66,2,1,21,20,5,3,2,3
33.665,0,1,11,13,5,3,3,4
33.67,5,11,16,11,11,8,8,6
33.675,4,5,10,14,0,2,4,4
33.68,8,2,6,0,2,0,1,0
33.685,0,6,30,17,0,1,2,5
33.69,2,5,20,51,4,3,4,5
33.695,4,0,10,50,2,4,4,7
33.7,2,1,1,43,7,6,3,3
33.705,3,10,4,58,4,1,0,1
33.71,5,6,20,19,1,0,0,0
33.715,4,7,16,13,1,4,1,1
33.72,8,9,20,22,8,3,0,1
33.725,6,0,11,24,1,1,1,1
33.73,5,4,15,23,8,4,2,1
33.735,2,5,42,58,10,3,2,1
33.74,2,5,1,20,10,5,3,3
33.745,0,2,16,7,3,1,0,1
33.75,4,8,5,16,2,0,1,3
33.755,1,5,11,7,2,2,3,2
33.76,3,1,18,9,1,2,1,3
33.765,4,17,70,12,9,5,5,4
33.77,4,3,1,41,5,2,1,0
33.775,5,8,18,67,7,2,0,1
33.78,6,10,31,41,5,4,1,4
33.785,2,3,27,18,3,4,1,1
33.79,0,2,10,4,4,1,1,1
33.795,9,21,36,49,13,7,5,6
33.8,1,2,1,8,2,2,2,2
33.805,4,6,23,5,6,1,1,4
33.81,1,12,43,15,5,3,0,1
33.815,10,4,17,6,5,4,1,2
33.82,11,0,12,16,2,2,0,3
33.825,1,3,21,17,3,1,1,1
33.83,2,0,1,2,4,2,2,1
33.835,1,0,5,15,2,0,1,0
33.84,1,1,0,5,2,1,3,2
33.845,2,1,16,24,1,1,0,1
33.85,2,3,24,11,4,2,1,1
33.855,7,1,23,21,3,2,1,2
33.86,10,6,37,25,2,1,1,5
33.865,14,1,23,8,0,2,3,10
33.87,2,1,12,4,4,4,3,1
33.875,0,4,12,19,4,3,0,1
33.88,3,1,0,9,1,1,2,1
33.885,4,3,4,7,3,2,1,0
33.89,2,5,7,10,1,1,0,1
33.895,10,3,11,15,5,2,1,2
33.9,20,5,7,10,4,3,3,4
33.905,4,1,5,22,3,3,1,1
33.91,11,3,8,5,2,4,3,6
33.915,1,1,6,1,1,1,1,1
33.92,2,0,1,1,2,1,0,6
33.925,7,1,5,5,2,4,2,1
33.93,5,3,5,4,1,1,2,1
33.935,5,1,3,9,2,2,1,3
33.94,2,1,2,3,4,2,2,2
33.945,4,1,2,4,0,2,3,1
33.95,1,0,3,9,1,2,0,1
33.955,0,0,5,6,2,0,1,1
33.96,5,1,4,1,1,2,3,2
33.965,0,0,0,6,5,2,1,3
33.97,0,4,1,6,4,2,1,2
33.975,4,0,0,3,4,1,1,4
33.98,2,2,1,3,4,5,5,6
33.985,1,2,2,5,1,1,1,1
33.99,0,1,3,2,3,2,2,1
33.995,8,1,1,1,1,0,1,1
34,13,3,3,2,1,0,1,1
34.005,5,5,1,6,1,0,2,3
34.01,7,2,4,3,1,3,3,1
34.015,6,0,0,2,1,1,1,1
34.02,2,1,3,3,3,2,1,2
34.025,6,1,3,1,2,0,1,2
34.03,3,5,2,4,2,0,1,0
34.035,7,2,2,4,1,3,1,4
34.04,5,20,4,1,1,0,3,4
34.045,11,2,8,5,4,4,12,16
34.05,8,6,2,3,4,3,2,5
34.055,2,4,0,3,2,0,1,1
34.06,9,2,1,1,0,3,7,13
34.065,0,6,2,0,1,0,1,1
34.07,5,3,2,2,2,1,1,4
34.075,2,3,4,5,1,2,2,0
34.08,3,16,5,5,3,2,0,3
34.085,4,8,1,3,4,3,1,2
34.09,7,0,1,3,1,2,4,1
34.095,5,2,0,3,2,6,5,8
34.1,6,3,2,2,0,1,1,2
34.105,4,6,4,5,5,4,0,0
34.11,2,2,3,3,0,0,3,2
34.115,11,3,2,1,1,2,3,9
34.12,33,9,1,3,4,0,2,8
34.125,2,3,1,2,2,1,3,3
34.13,0,7,0,2,2,3,1,1
34.135,6,3,2,1,1,3,1,1
34.14,1,1,7,6,4,1,2,2
34.145,1,7,0,3,2,2,1,2
34.15,5,6,2,3,1,0,0,1
34.155,8,6,2,5,4,3,3,3
34.16,3,4,2,5,5,4,3,5
34.165,1,3,2,0,1,1,2,1
34.17,5,2,2,2,2,4,2,1
34.175,8,5,0,0,0,2,3,3
34.18,1,9,7,4,4,4,4,5
34.185,5,1,0,3,1,1,3,2
34.19,9,5,1,1,2,0,1,5
34.195,2,3,1,1,1,4,2,1
34.2,9,10,0,1,1,3,8,7
34.205,5,2,2,2,2,2,0,2
34.21,1,6,2,3,2,1,0,3
34.215,9,3,6,2,4,5,1,2
34.22,9,7,1,4,0,1,4,4
34.225,1,4,1,2,1,4,4,2
34.23,4,3,1,1,2,2,1,5
34.235,10,4,2,1,1,0,2,2
34.24,1,11,2,2,5,3,3,2
34.245,3,7,2,2,2,0,1,0
34.25,9,8,5,1,3,3,3,1
34.255,2,3,3,2,0,1,4,5
34.26,10,5,0,12,5,0,3,5
34.265,11,14,0,2,1,1,1,2
34.27,1,2,4,2,3,3,4,6
34.275,5,3,1,11,5,0,2,1
34.28,3,1,2,10,4,2,0,0
34.285,5,6,2,5,3,2,4,6
34.29,5,1,2,2,0,5,2,6
34.295,1,4,2,7,3,2,1,6
34.3,3,3,1,2,1,1,2,4
34.305,3,11,4,2,2,2,2,2
34.31,6,6,3,2,1,4,6,6
34.315,3,6,2,3,1,0,3,4
34.32,1,0,2,0,1,0,0,0
34.325,0,4,2,3,0,1,2,1
34.33,2,1,0,2,3,2,0,3
34.335,4,1,3,1,0,2,1,3
34.34,7,8,7,1,4,4,2,4
34.345,4,1,4,3,2,3,1,3
34.35,2,3,5,3,1,1,2,1
34.355,1,3,3,4,4,2,0,1
34.36,6,6,1,2,0,2,2,5
34.365,14,15,2,2,0,3,0,1
34.37,1,1,4,11,3,1,0,1
34.375,2,2,3,4,2,3,1,2
34.38,1,2,1,1,2,2,1,1
34.385,4,1,5,1,1,2,0,2
34.39,2,4,4,9,2,0,1,2
34.395,1,7,5,0,2,3,1,1
34.4,2,4,1,11,11,1,0,1
34.405,2,1,0,6,13,3,1,2
34.41,2,2,2,6,7,2,1,2
34.415,1,1,2,4,3,3,1,3
34.42,2,0,2,7,1,1,3,0
34.425,0,2,6,6,6,1,1,1
34.43,0,1,3,12,2,1,1,2
34.435,0,3,19,2,1,1,1,2
34.44,3,1,5,28,13,8,2,3
34.445,2,2,12,1,10,5,3,2
34.45,2,3,15,9,6,4,2,1
34.455,1,2,12,12,5,4,0,1
34.46,4,7,1,31,5,2,0,2
34.465,0,8,37,35,14,4,1,4
34.47,6,7,25,44,18,10,5,4
34.475,4,1,10,32,1,3,2,1
34.48,4,14,11,4,4,2,0,4
34.485,0,4,15,43,5,4,2,2
34.49,4,3,8,15,9,4,3,3
34.495,0,0,17,5,8,5,0,3
34.5,5,18,46,58,21,6,4,3
34.505,3,5,27,71,14,4,1,4
34.51,6,8,23,68,14,6,5,2
34.515,9,17,35,8,33,15,9,8
34.52,6,13,50,90,17,8,5,3
34.525,0,6,27,20,5,3,3,1
34.53,3,0,3,30,15,4,2,3
34.535,5,14,18,61,25,7,1,2
34.54,7,20,44,24,33,14,6,6
34.545,1,1,2,10,3,0,1,3
34.55,8,7,8,35,8,5,1,4
34.555,0,10,51,14,3,1,1,1
34.56,9,15,24,59,32,13,4,6
34.565,9,19,79,108,23,9,6,5
34.57,1,2,12,6,15,7,3,1
34.575,4,4,1,15,10,5,2,3
34.58,3,3,29,20,1,1,1,0
34.585,1,2,6,8,3,1,0,2
34.59,6,9,11,13,16,7,5,3
34.595,2,2,8,16,10,3,1,2
34.6,4,6,7,46,5,2,1,4
34.605,2,7,7,60,26,8,3,4
34.61,0,10,30,8,11,6,6,4
34.615,7,5,1,49,16,7,5,5
34.62,0,2,13,3,8,4,1,1
34.625,8,4,31,35,18,9,5,5
34.63,18,9,46,29,20,14,7,12
34.635,1,7,69,62,11,5,3,2
34.64,16,4,10,38,14,5,0,1
34.645,23,9,36,22,3,3,2,4
34.65,19,33,19,90,38,22,9,7
34.655,21,32,4,2,36,24,14,14
34.66,4,2,38,47,1,2,1,2
34.665,15,9,56,66,16,4,3,0
34.67,3,13,51,30,1,1,3,3
34.675,2,6,21,11,7,3,3,4
34.68,6,2,24,2,17,6,2,4
34.685,9,8,74,119,4,6,4,8
34.69,2,5,1,94,10,5,2,3
34.695,1,8,51,71,8,3,3,2
34.7,2,0,2,6,4,2,2,1
34.705,6,13,25,11,28,15,7,4
34.71,1,3,3,38,16,11,6,5
34.715,2,9,28,26,15,3,2,2
34.72,1,7,25,21,8,3,1,3
34.725,8,14,22,80,2,1,2,3
34.73,32,18,15,39,2,2,3,7
34.735,6,5,7,21,6,4,2,3
34.74,8,10,38,21,13,8,5,6
34.745,3,12,71,108,10,0,1,0
34.75,1,7,42,56,10,5,2,1
34.755,0,2,42,101,12,2,2,1
34.76,6,9,23,112,13,3,2,0
34.765,4,8,6,25,11,1,2,0
34.77,12,6,6,16,4,4,0,0
34.775,3,5,1,78,22,9,3,1
34.78,1,6,16,41,25,14,5,5
34.785,10,22,28,36,6,3,3,5
34.79,6,10,16,10,12,7,3,5
34.795,4,6,13,6,5,4,1,3
34.8,0,3,0,28,2,0,0,0
34.805,9,7,17,35,15,10,6,6
34.81,13,20,50,41,29,15,8,9
34.815,15,13,55,95,34,15,8,10
34.82,1,14,32,11,2,0,2,1
34.825,8,1,2,24,6,1,1,3
34.83,2,3,19,26,7,2,2,1
34.835,5,7,9,25,15,3,0,4
34.84,1,8,19,25,2,4,1,2
34.845,15,14,35,9,1,0,0,1
34.85,17,37,96,15,1,2,2,3
34.855,0,5,15,43,5,3,0,1
34.86,0,11,19,30,8,5,3,2
34.865,7,11,7,24,8,7,5,5
34.87,5,17,33,5,2,0,3,1
34.875,5,2,2,41,5,1,2,1
34.88,1,4,5,33,6,3,2,1
34.885,6,17,48,34,3,4,4,6
34.89,1,4,18,11,11,7,4,4
34.895,3,2,3,20,5,3,1,1
34.9,3,17,22,20,6,5,2,5
34.905,2,0,7,6,1,1,2,0
34.91,1,4,12,31,5,4,2,2
34.915,7,5,26,54,16,6,3,4
34.92,0,4,8,99,9,3,3,0
34.925,4,15,23,37,12,7,6,6
34.93,4,9,21,14,9,7,2,3
34.935,6,3,28,71,0,6,4,5
34.94,1,3,3,1,3,1,1,2
34.945,5,4,13,10,0,1,1,1
34.95,1,3,49,87,10,5,2,3
34.955,2,1,16,6,9,6,4,1
34.96,3,3,10,54,13,3,0,0
34.965,3,1,11,48,10,6,4,3
34.97,3,0,2,8,0,0,2,1
34.975,4,12,48,42,2,2,1,3
34.98,0,9,32,41,4,0,1,1
34.985,2,1,13,5,1,0,1,3
34.99,2,1,1,16,4,1,1,2
34.995,8,16,28,4,11,7,5,9
35,1,0,10,11,0,1,0,0
35.005,2,3,5,26,5,3,1,0
35.01,5,5,14,3,10,6,4,3
35.015,7,5,12,8,2,3,0,2
35.02,4,6,24,45,4,1,1,0
35.025,0,4,10,4,10,5,2,1
35.03,3,2,1,27,5,1,1,0
35.035,5,1,14,22,3,3,1,3
35.04,1,6,5,32,1,2,3,1
35.045,1,7,9,23,6,4,0,1
35.05,7,4,1,9,1,1,1,1
35.055,4,2,11,35,2,1,0,3
35.06,3,4,9,5,3,0,2,5
35.065,1,8,15,40,4,0,1,1
35.07,2,8,20,41,5,1,2,2
35.075,1,6,27,39,8,3,1,1
35.08,9,9,15,51,8,2,0,2
35.085,7,0,23,22,10,6,4,2
35.09,9,7,51,51,9,3,2,0
35.095,6,2,3,37,12,7,4,5
35.1,4,3,32,14,3,2,0,4
35.105,10,6,5,35,1,3,5,7
35.11,1,0,2,23,3,3,1,0
35.115,8,1,3,4,2,2,1,2
35.12,1,3,3,0,1,2,1,0
35.125,4,4,6,43,12,2,1,3
35.13,5,6,8,70,17,7,3,7
35.135,0,5,4,7,11,3,2,1
35.14,1,1,8,9,5,3,3,2
35.145,4,3,8,13,2,0,0,2
35.15,2,8,31,19,7,5,3,3
35.155,2,1,1,6,3,0,1,1
35.16,0,6,28,8,6,3,2,1
35.165,10,5,15,1,3,1,1,5
35.17,6,2,18,42,2,1,0,0
35.175,6,3,17,23,8,4,1,2
35.18,2,3,18,21,4,3,3,3
35.185,2,5,2,1,5,3,0,3
35.19,0,4,6,6,0,2,1,1
35.195,6,15,34,89,17,3,2,3
35.2,13,19,37,70,24,11,5,8
35.205,3,1,5,1,0,1,1,2
35.21,0,4,7,3,6,2,0,1
35.215,0,0,7,24,3,1,1,2
35.22,4,2,9,18,0,0,1,5
35.225,1,1,20,9,1,0,1,1
35.23,7,2,11,17,3,0,2,1
35.235,1,1,4,10,4,1,1,1
35.24,2,1,7,11,4,1,2,6
35.245,8,6,6,10,1,3,2,7
35.25,6,0,0,10,3,0,2,1
35.255,0,3,7,36,12,6,7,6
35.26,1,1,5,14,4,2,4,1
35.265,2,5,7,1,2,1,0,1
35.27,4,1,3,8,2,5,4,1
35.275,10,9,11,15,3,1,2,6
35.28,0,0,6,41,4,2,0,1
35.285,7,4,11,36,8,4,3,1
35.29,11,2,5,19,1,2,1,8
35.295,3,2,11,29,7,2,1,1
35.3,1,2,12,20,2,0,1,0
35.305,6,3,4,9,0,3,4,2
35.31,5,0,2,3,2,0,1,4
35.315,4,0,1,2,0,1,1,2
35.32,11,1,1,3,0,2,1,1
35.325,25,5,1,11,2,0,0,0
35.33,3,3,1,5,0,1,0,5
35.335,3,8,10,12,7,3,1,3
35.34,7,2,3,3,2,1,2,4
35.345,3,4,6,6,1,3,2,2
35.35,5,2,4,8,1,1,1,3
35.355,12,1,5,10,2,1,0,7
35.36,6,1,2,1,1,2,2,9
35.365,7,5,3,2,3,3,5,6
35.37,7,9,0,3,2,1,2,2
35.375,3,1,5,3,2,2,1,2
35.38,8,2,2,2,1,2,3,10
35.385,1,0,1,1,0,1,3,1
35.39,3,1,1,2,2,4,4,4
35.395,1,2,3,5,2,1,1,3
35.4,1,1,1,2,0,0,1,3
35.405,6,7,7,2,3,3,5,6
35.41,12,2,3,1,1,2,3,1
35.415,7,8,12,10,6,3,2,2
35.42,2,3,5,2,1,0,1,2
35.425,3,3,1,2,3,3,2,7
35.43,7,0,3,0,1,1,1,5
35.435,1,11,3,3,1,1,2,6
35.44,10,10,1,0,1,3,1,2
35.445,7,2,4,5,3,1,0,6
35.45,3,1,1,3,1,3,0,2
35.455,11,7,4,1,2,1,3,3
35.46,4,2,1,5,4,3,1,2
35.465,1,0,3,5,3,0,2,2
35.47,4,3,2,2,3,5,6,8
35.475,8,15,2,5,2,2,5,6
35.48,4,4,2,2,2,1,2,1
35.485,3,7,0,2,4,2,3,1
35.49,16,12,1,0,4,2,3,5
35.495,3,5,1,0,3,2,4,7
35.5,0,13,1,0,3,3,3,6
35.505,6,0,4,3,2,0,3,7
35.51,0,4,1,1,6,6,6,0
35.515,3,0,3,1,4,3,0,1
35.52,1,8,1,5,5,6,7,9
35.525,5,0,0,1,1,1,5,8
35.53,4,5,7,9,5,6,7,8
35.535,3,4,1,1,1,1,1,2
35.54,5,7,3,1,1,3,3,3
35.545,5,5,6,4,2,3,2,1
35.55,5,8,1,1,1,1,1,3
35.555,1,4,1,0,1,2,1,1
35.56,3,5,2,1,0,1,1,4
35.565,1,0,1,2,1,1,2,3
35.57,4,0,2,3,2,4,9,10
35.575,7,2,2,2,0,6,10,10
35.58,6,2,3,3,8,4,3,4
35.585,5,2,7,5,2,1,2,7
35.59,4,4,1,4,4,4,0,0
35.595,7,3,5,5,1,4,8,11
35.6,6,7,1,1,1,1,1,1
35.605,0,1,1,3,3,2,3,0
35.61,4,0,3,1,1,1,1,0
35.615,4,1,3,6,2,2,4,3
35.62,0,1,2,4,0,2,1,4
35.625,3,7,5,3,0,0,0,1
35.63,4,7,3,1,1,2,0,1
35.635,5,13,17,10,6,1,1,2
35.64,3,3,3,1,2,1,0,3
35.645,3,1,4,1,3,3,1,1
35.65,0,8,10,6,1,5,4,4
35.655,6,1,2,1,1,3,4,6
35.66,10,5,7,5,2,2,1,3
35.665,0,2,2,3,1,3,5,5
35.67,0,0,4,7,1,3,0,0
35.675,4,4,0,1,1,2,1,2
35.68,6,7,4,7,2,3,0,1
35.685,4,2,4,1,2,0,1,4
35.69,4,8,7,6,1,2,2,6
35.695,4,1,0,2,0,2,0,0
35.7,2,1,1,0,3,3,6,5
35.705,0,2,0,3,0,2,1,1
35.71,5,4,4,2,2,2,1,4
35.715,1,0,2,1,2,1,2,1
35.72,5,7,4,6,2,0,0,1
35.725,3,5,4,7,5,4,2,1
35.73,1,2,6,1,1,3,0,1
35.735,0,1,2,1,0,1,1,2
35.74,4,3,3,1,2,2,3,3
35.745,1,4,2,5,6,2,1,1
35.75,3,2,5,0,3,2,2,5
35.755,1,2,3,3,3,2,1,1
35.76,6,7,10,2,1,3,3,4
35.765,0,4,2,1,1,0,0,2
35.77,1,3,1,7,6,5,6,4
35.775,0,1,0,1,1,1,1,1
35.78,5,7,2,1,2,1,1,0
35.785,6,6,4,2,1,3,2,4
35.79,1,2,1,1,1,0,2,1
35.795,3,4,4,4,3,3,2,2
35.8,3,3,5,0,3,2,1,2
35.805,1,5,5,1,0,3,3,3
35.81,1,1,1,3,1,2,0,0
35.815,0,3,3,6,1,1,0,1
35.82,2,6,4,12,6,1,1,3
35.825,1,1,2,2,2,4,2,3
