0.01,1,0,2,2,1,0,1,0
0.015,2,2,1,2,0,1,2,1
0.02,0,1,2,2,1,0,1,1
0.025,1,1,1,1,1,1,1,3
0.03,0,1,2,0,2,2,1,1
0.035,1,2,2,2,4,0,2,1
0.04,2,1,0,1,1,0,1,1
0.045,1,0,1,1,2,1,2,1
0.05,0,1,1,1,1,0,3,0
0.055,0,1,2,0,2,1,2,2
0.06,2,1,1,1,2,2,1,1
0.065,2,1,3,2,2,0,1,1
0.07,2,2,1,1,1,3,2,3
0.075,0,1,0,1,0,1,1,2
0.08,0,1,2,1,2,1,1,2
0.085,1,0,1,1,2,2,2,1
0.09,1,0,1,2,3,2,0,0
0.095,2,2,2,2,3,1,0,1
0.1,2,2,1,0,0,2,0,2
0.105,2,0,1,2,2,0,2,1
0.11,1,1,0,2,0,1,2,1
0.115,1,2,1,1,2,1,1,1
0.12,1,2,1,3,3,0,0,1
0.125,1,1,2,1,1,0,0,1
0.13,1,0,1,0,2,2,1,3
0.135,0,2,1,1,1,1,1,2
0.14,1,3,2,0,1,1,2,2
0.145,0,0,1,0,1,1,2,1
0.15,1,1,3,2,0,1,2,1
0.155,0,1,1,1,0,0,2,2
0.16,1,1,0,0,1,0,0,0
0.165,2,1,1,2,2,2,0,1
0.17,0,2,1,1,1,3,1,2
0.175,1,2,1,2,4,0,1,2
0.18,2,0,0,2,0,0,1,1
0.185,0,1,0,1,0,1,0,1
0.19,1,2,0,0,0,0,1,1
0.195,2,1,2,2,0,0,2,0
0.2,2,0,1,1,5,3,1,2
0.205,2,2,1,1,1,2,2,1
0.21,0,1,1,0,2,1,3,0
0.215,0,2,1,0,0,1,1,1
0.22,1,3,1,2,1,1,2,0
0.225,0,1,1,2,3,0,1,2
0.23,1,1,2,2,1,3,1,2
0.235,4,0,1,2,1,3,1,1
0.24,1,1,1,1,1,2,1,2
0.245,1,2,1,0,0,0,3,0
0.25,0,1,0,1,2,1,2,1
0.255,0,0,1,2,1,3,2,2
0.26,0,0,2,0,1,0,1,2
0.265,1,1,1,1,1,1,1,1
0.27,3,2,0,1,2,1,0,0
0.275,2,2,0,1,0,1,1,0
0.28,2,0,2,2,1,1,1,1
0.285,0,2,1,1,2,2,3,2
0.29,1,2,1,1,2,2,0,2
0.295,0,2,2,0,0,1,0,1
0.3,0,2,2,1,1,1,1,2
0.305,3,1,2,2,1,1,1,1
0.31,1,1,2,1,0,1,2,2
0.315,1,2,2,0,3,1,0,1
0.32,0,0,1,0,0,2,2,1
0.325,1,3,1,0,2,0,1,1
0.33,0,0,2,2,1,1,2,1
0.335,0,1,3,1,0,1,0,1
0.34,3,1,0,0,0,1,2,0
0.345,0,0,1,2,2,1,1,0
0.35,3,0,1,2,0,1,2,3
0.355,0,1,1,1,0,1,0,1
0.36,0,2,1,2,0,1,2,3
0.365,2,1,1,2,2,1,3,1
0.37,0,1,1,2,1,0,3,2
0.375,2,2,1,1,1,1,1,1
0.38,0,1,2,1,2,2,1,2
0.385,1,0,0,0,0,1,1,1
0.39,0,0,0,2,1,2,1,1
0.395,2,1,0,1,0,1,2,3
0.4,0,2,1,0,2,2,1,2
0.405,1,1,2,0,2,1,2,2
0.41,1,3,2,0,1,1,0,1
0.415,1,1,1,1,2,0,1,2
0.42,2,1,1,1,0,1,3,3
0.425,1,0,2,1,2,1,0,1
0.43,2,1,1,2,1,0,1,1
0.435,1,0,1,1,1,1,2,0
0.44,2,2,1,0,1,0,1,1
0.445,0,1,2,2,5,2,2,1
0.45,2,0,1,4,1,1,0,4
0.455,0,2,3,5,3,3,1,1
0.46,3,0,1,1,1,2,0,1
0.465,0,0,1,3,2,1,2,0
0.47,1,2,1,0,2,0,1,1
0.475,2,2,0,4,0,0,2,1
0.48,0,2,1,1,1,1,1,1
0.485,1,1,1,1,0,2,0,2
0.49,1,2,1,3,1,1,2,2
0.495,1,2,0,2,1,0,3,2
0.5,2,1,2,0,0,0,3,1
0.505,2,1,0,0,2,0,1,0
0.51,1,0,2,2,1,2,1,3
0.515,1,1,2,1,0,3,0,1
0.52,1,1,0,2,2,1,0,0
0.525,0,2,0,2,2,0,1,1
0.53,1,0,1,1,1,2,0,1
0.535,1,1,1,0,1,1,2,1
0.54,0,2,1,2,1,1,1,2
0.545,1,2,2,0,1,1,3,2
0.55,1,3,0,0,3,1,2,1
0.555,0,0,1,1,1,2,1,1
0.56,1,0,1,2,1,1,1,0
0.565,1,2,4,1,0,1,1,1
0.57,1,1,0,1,0,0,0,0
0.575,0,1,0,3,1,1,1,0
0.58,1,1,1,4,2,1,2,1
0.585,1,1,1,0,2,1,2,1
0.59,1,2,2,4,1,1,2,2
0.595,1,2,1,1,1,2,0,1
0.6,0,2,1,0,1,1,1,0
0.605,2,1,2,4,0,2,0,1
0.61,1,1,0,2,2,2,0,1
0.615,2,1,1,0,1,0,1,1
0.62,1,1,1,2,1,0,2,0
0.625,2,1,2,1,0,0,0,3
0.63,3,3,2,0,2,1,0,0
0.635,0,2,2,3,3,2,2,2
0.64,1,0,1,0,1,0,1,2
0.645,1,1,0,2,0,0,0,1
0.65,2,1,0,1,1,1,2,1
0.655,1,1,2,1,2,0,1,1
0.66,1,1,2,1,1,2,1,3
0.665,1,2,0,1,1,3,2,2
0.67,1,2,2,2,2,1,1,2
0.675,1,2,1,2,2,1,1,2
0.68,1,1,0,2,1,0,0,1
0.685,1,1,0,1,2,0,1,1
0.69,0,1,2,2,0,3,1,1
0.695,1,0,0,1,1,1,1,1
0.7,0,2,2,1,2,2,1,1
0.705,2,1,0,3,3,1,1,2
0.71,1,0,1,2,0,0,1,0
0.715,2,1,1,1,1,0,2,1
0.72,1,0,0,1,1,0,1,1
0.725,0,2,2,1,1,2,1,1
0.73,1,1,2,1,1,2,1,1
0.735,2,1,2,2,3,2,0,1
0.74,1,2,1,3,2,0,2,0
0.745,1,3,1,0,3,2,0,1
0.75,0,1,1,0,1,1,1,1
0.755,1,0,2,0,0,1,0,0
0.76,2,1,1,0,1,2,2,1
0.765,2,2,3,1,1,0,0,0
0.77,2,2,0,1,2,0,1,1
0.775,0,1,1,0,1,1,2,0
0.78,0,0,2,1,2,2,2,0
0.785,0,1,3,2,1,0,1,2
0.79,2,0,1,1,2,1,1,1
0.795,1,0,1,1,1,1,2,0
0.8,2,1,2,0,0,1,1,2
0.805,0,0,1,1,1,1,1,1
0.81,2,2,1,3,1,0,2,1
0.815,0,1,1,2,0,2,2,3
0.82,0,1,1,1,1,0,0,0
0.825,0,1,1,1,0,1,1,2
0.83,2,1,1,1,1,1,1,1
0.835,3,1,2,2,1,2,0,0
0.84,1,1,1,0,0,2,2,0
0.845,0,0,1,1,1,1,2,1
0.85,2,0,1,0,1,1,1,2
0.855,0,1,1,2,1,2,1,2
0.86,2,2,2,2,2,2,2,2
0.865,2,3,1,1,1,2,2,1
0.87,0,1,1,1,1,0,1,2
0.875,3,0,1,1,3,1,2,1
0.88,2,1,2,0,0,0,1,1
0.885,1,0,1,3,3,2,2,0
0.89,1,1,3,1,1,2,3,1
0.895,0,2,1,0,1,1,0,1
0.9,0,1,0,1,1,2,1,1
0.905,2,0,2,2,0,0,1,0
0.91,1,1,3,3,2,1,0,0
0.915,0,0,2,2,4,1,1,2
0.92,1,0,1,0,1,1,3,3
0.925,2,0,1,2,1,2,1,0
0.93,1,0,0,1,0,0,1,0
0.935,1,3,0,0,0,0,2,0
0.94,0,2,1,0,0,0,0,1
0.945,0,1,1,3,5,0,3,1
0.95,1,1,3,0,1,1,2,2
0.955,1,0,1,1,2,2,1,1
0.96,3,0,0,1,0,0,2,1
0.965,2,0,0,1,2,2,0,2
0.97,1,0,1,2,0,0,0,1
0.975,1,0,0,3,1,2,0,1
0.98,1,0,1,7,1,2,0,1
0.985,0,0,2,5,2,1,1,1
0.99,1,2,1,2,3,1,2,2
0.995,2,0,1,1,1,1,2,3
1,1,1,2,4,0,1,0,0
1.005,0,1,1,5,0,2,3,0
1.01,2,0,1,1,2,3,1,1
1.015,0,1,2,0,1,2,1,0
1.02,1,1,3,0,1,1,1,2
1.025,1,1,1,1,1,1,1,2
1.03,2,2,1,1,1,1,1,0
1.035,1,0,1,0,1,2,1,1
1.04,1,2,1,1,1,2,1,2
1.045,1,2,2,3,1,1,1,0
1.05,2,1,1,3,1,2,1,2
1.055,1,1,1,1,1,1,2,1
1.06,1,1,0,1,2,0,1,2
1.065,3,0,1,2,1,1,0,0
1.07,1,1,0,1,1,3,0,0
1.075,1,1,1,0,2,3,1,2
1.08,1,1,3,2,1,1,1,1
1.085,0,1,1,0,0,1,2,1
1.09,1,1,2,5,6,0,1,1
1.095,2,0,0,1,0,0,0,1
1.1,3,2,1,0,1,2,2,0
1.105,0,2,1,1,1,1,1,1
1.11,0,2,0,0,1,0,2,1
1.115,0,3,2,1,3,2,0,1
1.12,1,0,1,2,1,1,1,2
1.125,0,2,1,0,0,1,1,1
1.13,2,1,2,0,1,2,1,1
1.135,0,0,2,2,1,1,1,1
1.14,0,2,2,0,0,3,2,0
1.145,0,1,3,2,6,1,1,2
1.15,0,0,1,0,0,0,1,3
1.155,1,3,1,3,2,0,1,1
1.16,0,0,1,1,1,0,0,1
1.165,0,1,2,7,0,0,3,0
1.17,0,1,2,1,1,0,0,1
1.175,2,1,0,1,1,0,1,1
1.18,0,0,1,0,2,1,1,1
1.185,1,2,0,5,2,1,0,3
1.19,1,2,1,2,1,1,1,1
1.195,1,0,0,2,1,1,2,1
1.2,2,1,1,1,1,0,2,0
1.205,1,0,2,2,1,1,1,1
1.21,1,1,1,1,1,1,2,0
1.215,2,2,0,4,3,2,2,0
1.22,1,2,2,1,2,2,0,1
1.225,1,3,0,0,1,1,1,1
1.23,1,0,0,1,3,3,2,3
1.235,0,1,2,2,2,1,0,3
1.24,0,1,3,1,2,0,2,1
1.245,2,0,1,3,1,0,0,1
1.25,2,0,1,0,1,1,2,1
1.255,0,1,0,1,1,2,1,3
1.26,1,1,2,0,3,3,3,4
1.265,1,0,2,2,0,1,1,1
1.27,1,2,1,2,1,0,0,1
1.275,1,2,1,2,2,0,0,1
1.28,0,1,1,1,1,1,0,1
1.285,2,1,1,0,0,3,2,1
1.29,0,1,2,1,1,1,0,0
1.295,0,0,1,2,2,1,1,1
1.3,2,3,1,1,1,1,0,1
1.305,1,3,1,2,4,2,0,1
1.31,2,2,2,1,1,1,0,3
1.315,2,2,1,0,2,1,1,1
1.32,1,1,0,1,1,1,0,1
1.325,0,1,2,1,1,1,1,1
1.33,3,1,0,0,0,0,0,1
1.335,2,1,1,2,2,2,3,1
1.34,1,1,1,3,2,1,2,1
1.345,2,1,1,1,3,1,1,1
1.35,0,1,1,2,0,0,1,0
1.355,0,1,2,1,4,2,2,1
1.36,1,1,1,0,1,0,1,1
1.365,1,0,1,5,7,3,3,3
1.37,1,1,2,0,1,0,0,0
1.375,2,1,0,3,0,0,0,1
1.38,1,1,1,0,2,0,0,1
1.385,1,1,1,2,1,0,1,1
1.39,0,1,1,0,0,2,1,1
1.395,1,2,1,2,1,3,2,1
1.4,1,2,1,2,1,2,2,1
1.405,0,0,0,1,0,0,0,3
1.41,2,1,1,1,3,1,2,2
1.415,1,1,1,1,1,0,0,1
1.42,0,2,0,5,2,1,1,1
1.425,1,2,1,1,0,0,2,0
1.43,0,2,2,0,0,1,2,1
1.435,0,2,2,2,1,3,2,1
1.44,1,1,0,0,2,2,1,1
1.445,2,1,3,1,1,2,0,0
1.45,2,0,1,1,1,0,0,1
1.455,1,1,1,0,1,0,1,1
1.46,0,1,3,0,3,1,1,0
1.465,0,1,2,1,1,1,1,0
1.47,2,1,3,2,0,2,1,2
1.475,1,0,0,1,1,1,2,2
1.48,2,0,2,0,0,0,1,2
1.485,1,1,0,1,2,0,0,2
1.49,1,0,1,2,3,1,1,1
1.495,0,0,4,1,0,0,1,0
1.5,2,1,0,2,3,1,2,0
1.505,2,2,3,1,1,0,1,1
1.51,1,2,1,3,2,2,0,1
1.515,3,2,1,2,0,2,2,1
1.52,1,2,0,2,2,0,1,3
1.525,1,1,0,1,1,1,1,2
1.53,1,2,1,1,2,2,2,0
1.535,1,1,2,2,1,1,0,1
1.54,1,2,4,1,1,2,0,1
1.545,1,1,1,1,0,1,1,3
1.55,2,0,0,2,1,0,1,1
1.555,0,1,1,1,0,1,2,2
1.56,1,1,1,2,1,0,2,1
1.565,2,1,2,2,0,2,1,1
1.57,0,0,2,1,3,1,1,1
1.575,2,2,2,0,1,1,0,0
1.58,0,1,1,0,2,3,2,1
1.585,1,0,1,4,3,3,1,1
1.59,1,3,0,1,1,0,3,3
1.595,1,2,2,0,0,2,0,2
1.6,2,0,1,2,1,3,0,2
1.605,1,1,1,1,2,1,0,0
1.61,2,2,1,1,3,1,1,0
1.615,1,1,1,1,3,1,0,2
1.62,0,3,2,2,2,1,1,1
1.625,1,0,1,0,0,0,0,1
1.63,1,0,0,1,1,1,2,0
1.635,0,0,2,0,0,1,2,3
1.64,1,1,1,0,0,1,0,0
1.645,2,0,2,4,3,2,3,0
1.65,1,2,3,2,1,2,1,2
1.655,0,3,0,4,0,1,0,1
1.66,1,2,3,2,4,3,2,2
1.665,1,2,3,4,3,2,1,3
1.67,1,0,1,1,0,1,0,1
1.675,1,3,1,2,1,2,1,1
1.68,0,1,1,3,1,2,0,2
1.685,1,2,1,0,0,3,2,1
1.69,2,1,4,4,2,0,2,2
1.695,1,1,3,1,2,1,1,1
1.7,1,1,1,5,0,1,2,2
1.705,0,1,2,10,3,1,2,1
1.71,2,0,1,1,1,3,0,2
1.715,2,2,3,3,1,2,1,1
1.72,1,2,1,3,1,1,0,1
1.725,1,0,0,5,2,1,0,1
1.73,1,1,1,2,4,1,1,3
1.735,2,0,0,2,6,1,1,0
1.74,0,2,1,3,3,1,0,0
1.745,0,1,1,0,1,1,2,0
1.75,0,1,1,0,1,1,0,0
1.755,1,1,3,2,3,1,1,2
1.76,2,2,0,1,2,1,3,0
1.765,1,2,2,1,3,1,0,0
1.77,1,2,3,4,3,2,2,1
1.775,0,2,1,1,1,3,2,2
1.78,1,1,1,1,3,0,1,1
1.785,1,0,1,2,1,0,2,2
1.79,1,2,1,1,1,0,1,3
1.795,2,1,4,11,4,1,2,1
1.8,1,1,3,1,1,2,1,2
1.805,1,1,2,5,1,2,0,1
1.81,2,2,0,5,1,0,0,2
1.815,1,2,0,3,0,2,1,1
1.82,2,1,0,2,0,1,0,0
1.825,1,1,2,0,2,2,1,2
1.83,2,2,0,3,4,1,2,0
1.835,1,1,1,1,1,0,2,1
1.84,0,1,0,2,2,1,1,0
1.845,2,0,1,7,1,1,3,2
1.85,2,1,0,1,1,2,1,0
1.855,1,2,2,2,0,1,0,0
1.86,0,1,3,1,3,1,2,1
1.865,0,0,2,3,0,2,0,2
1.87,2,0,2,4,1,2,1,1
1.875,1,1,1,3,1,0,1,1
1.88,1,0,2,1,0,2,1,0
1.885,0,2,2,8,3,1,1,3
1.89,1,2,0,0,1,2,1,0
1.895,0,2,0,1,0,0,2,1
1.9,1,2,2,1,1,2,1,0
1.905,0,1,0,0,4,1,1,1
1.91,0,1,1,1,0,2,1,1
1.915,2,2,1,1,2,1,3,1
1.92,2,1,0,1,1,2,1,0
1.925,1,2,0,2,0,0,0,1
1.93,1,0,1,5,3,1,2,1
1.935,1,1,1,1,2,2,1,1
1.94,2,0,1,3,2,1,2,2
1.945,2,0,1,0,2,1,1,2
1.95,0,1,0,2,2,0,1,1
1.955,2,1,1,3,1,1,1,2
1.96,2,2,0,0,2,1,2,1
1.965,1,1,1,7,3,1,1,1
1.97,1,0,1,3,3,1,1,0
1.975,1,1,1,3,2,2,1,1
1.98,2,1,2,4,0,2,1,2
1.985,0,1,1,1,1,0,2,1
1.99,0,2,3,0,1,0,1,2
1.995,0,1,1,2,1,3,0,2
2,1,1,1,4,0,1,2,2
2.005,0,1,3,12,2,1,2,1
2.01,2,2,0,1,1,1,1,1
2.015,2,1,0,4,0,1,1,1
2.02,1,1,2,0,0,1,1,1
2.025,0,2,0,3,1,1,0,1
2.03,1,0,0,3,1,1,2,1
2.035,3,2,1,1,3,1,0,1
2.04,1,0,1,4,2,2,1,1
2.045,3,2,1,11,1,1,2,0
2.05,0,2,2,4,0,2,0,2
2.055,1,1,1,9,1,0,1,2
2.06,0,0,3,9,2,0,2,2
2.065,2,0,2,18,3,1,2,1
2.07,3,2,0,6,1,4,1,2
2.075,0,1,0,1,1,0,2,2
2.08,1,2,2,2,2,2,0,1
2.085,0,1,0,0,2,1,0,1
2.09,1,2,1,3,0,1,1,1
2.095,2,1,1,5,0,0,2,3
2.1,0,0,0,2,0,1,2,1
2.105,3,1,1,1,2,1,0,1
2.11,0,2,3,6,2,0,0,1
2.115,2,3,2,10,6,2,4,1
2.12,1,1,0,2,3,0,0,1
2.125,1,1,2,1,2,2,1,2
2.13,3,0,2,3,2,1,0,1
2.135,1,2,2,7,0,2,0,0
2.14,0,1,1,3,3,1,2,1
2.145,3,3,1,1,1,2,2,0
2.15,2,2,0,0,2,0,1,1
2.155,1,2,2,6,1,1,2,2
2.16,1,2,1,3,5,1,0,1
2.165,1,0,0,1,2,1,0,2
2.17,0,1,1,3,4,3,2,0
2.175,1,1,1,5,2,1,1,2
2.18,1,1,0,9,0,3,0,1
2.185,0,3,0,3,1,1,1,1
2.19,2,0,0,2,3,2,0,0
2.195,1,1,1,13,5,2,2,2
2.2,2,0,1,1,1,2,1,2
2.205,1,1,2,3,4,2,0,1
2.21,0,3,1,5,1,1,1,1
2.215,1,3,0,1,0,1,1,0
2.22,1,1,1,2,1,0,0,2
2.225,1,2,1,3,1,2,1,1
2.23,1,1,2,1,6,3,3,1
2.235,1,1,0,1,2,2,1,0
2.24,1,1,2,3,4,1,1,1
2.245,2,1,0,3,5,2,1,0
2.25,1,1,0,1,3,1,1,2
2.255,2,1,2,3,1,2,0,1
2.26,2,3,3,2,1,2,1,0
2.265,2,0,1,2,1,1,3,2
2.27,0,1,0,3,0,2,3,0
2.275,1,0,1,5,1,1,1,2
2.28,1,2,1,3,2,1,2,1
2.285,1,2,2,4,1,0,1,1
2.29,1,1,2,2,5,2,2,1
2.295,1,1,1,4,0,0,1,0
2.3,1,0,0,2,2,1,0,1
2.305,1,1,2,4,3,1,3,0
2.31,1,1,2,2,0,2,1,3
2.315,2,1,1,1,0,0,2,0
2.32,2,1,1,3,3,1,1,1
2.325,0,2,0,3,1,0,1,1
2.33,2,1,3,6,1,1,1,0
2.335,2,1,3,13,3,3,2,0
2.34,1,2,3,3,1,1,1,0
2.345,1,0,1,0,0,1,1,1
2.35,2,2,1,1,0,0,0,0
2.355,0,0,1,1,4,2,0,2
2.36,0,3,0,1,0,0,1,2
2.365,1,2,0,2,1,1,0,2
2.37,2,0,2,3,0,2,0,2
2.375,1,2,3,1,2,0,1,1
2.38,1,1,1,2,2,1,1,0
2.385,1,0,1,0,1,1,1,1
2.39,1,2,1,4,1,3,0,1
2.395,2,1,1,1,1,1,1,1
2.4,2,1,3,0,2,2,1,1
2.405,1,0,1,2,1,2,0,1
2.41,1,0,2,7,1,2,0,0
2.415,3,1,1,3,1,1,2,3
2.42,2,1,3,7,4,1,2,2
2.425,1,0,2,0,2,1,1,0
2.43,1,0,1,3,2,2,1,1
2.435,0,1,1,4,0,1,1,0
2.44,0,2,3,6,5,1,2,2
2.445,1,1,1,6,2,2,0,2
2.45,1,2,1,9,2,3,0,2
2.455,1,0,1,1,2,1,1,1
2.46,0,1,0,1,0,2,2,1
2.465,2,2,3,6,3,2,1,0
2.47,2,3,2,3,1,1,0,2
2.475,1,1,2,1,0,2,2,2
2.48,1,2,0,1,1,0,0,2
2.485,0,1,1,1,3,2,2,1
2.49,0,0,0,2,0,1,1,1
2.495,0,0,2,2,4,2,2,0
2.5,0,0,2,1,4,0,1,1
2.505,2,2,3,1,1,1,1,1
2.51,1,1,2,1,4,1,0,3
2.515,1,2,0,2,0,1,2,2
2.52,1,0,2,0,0,1,1,1
2.525,1,2,1,1,1,2,1,1
2.53,0,0,2,3,3,0,0,0
2.535,1,1,1,3,2,2,0,0
2.54,3,2,1,2,2,0,1,2
2.545,3,1,2,0,1,0,0,2
2.55,1,1,3,1,5,2,2,0
2.555,0,2,0,1,3,2,0,0
2.56,1,0,0,1,3,2,2,1
2.565,2,0,2,0,2,3,0,0
2.57,2,0,1,0,0,2,1,3
2.575,0,2,4,2,2,1,2,3
2.58,2,1,0,0,2,3,1,2
2.585,1,1,2,1,1,2,1,1
2.59,3,2,0,1,0,1,1,1
2.595,2,2,1,1,1,1,4,2
2.6,1,1,1,0,2,1,0,0
2.605,1,2,1,3,6,2,1,0
2.61,2,0,1,1,0,3,2,1
2.615,1,2,0,2,1,1,0,0
2.62,2,3,3,7,3,1,3,1
2.625,1,0,1,0,1,2,2,0
2.63,1,2,2,1,1,1,0,3
2.635,1,1,1,2,1,1,1,1
2.64,0,0,2,2,2,2,1,2
2.645,1,1,1,4,2,1,1,2
2.65,3,0,1,8,1,2,3,1
2.655,0,1,0,1,2,2,1,1
2.66,0,2,1,0,1,0,1,1
2.665,1,1,1,2,0,1,2,2
2.67,2,1,1,5,1,1,2,1
2.675,0,1,2,1,1,0,1,2
2.68,1,1,2,2,0,0,2,1
2.685,0,0,0,1,1,1,0,1
2.69,1,1,2,2,4,0,1,0
2.695,0,2,1,0,1,1,1,1
2.7,2,1,0,1,2,1,1,1
2.705,1,2,2,0,1,1,1,1
2.71,0,1,1,2,1,2,1,0
2.715,1,0,3,2,1,2,1,0
2.72,3,0,2,0,2,1,0,0
2.725,0,0,1,1,3,0,0,1
2.73,1,1,1,1,3,0,0,2
2.735,2,3,1,0,1,0,1,0
2.74,0,1,1,1,1,0,1,1
2.745,1,0,1,0,0,2,1,1
2.75,1,2,2,5,1,1,1,3
2.755,1,0,1,0,1,2,2,1
2.76,1,2,2,0,0,2,1,1
2.765,2,1,2,1,0,1,0,2
2.77,2,1,0,0,1,0,1,1
2.775,0,0,0,2,3,0,1,0
2.78,1,2,1,1,3,0,1,1
2.785,1,1,0,1,1,1,1,0
2.79,2,2,2,2,1,1,2,0
2.795,1,1,1,2,1,1,0,2
2.8,0,1,0,2,3,1,0,0
2.805,0,1,2,1,3,1,2,2
2.81,1,1,0,1,1,1,1,1
2.815,2,2,0,0,2,0,1,0
2.82,2,2,0,0,3,4,0,2
2.825,0,1,3,1,2,0,2,1
2.83,1,1,3,2,1,1,0,2
2.835,0,2,3,0,2,3,2,1
2.84,1,2,2,1,1,1,2,1
2.845,2,1,1,0,0,2,2,1
2.85,1,0,1,0,1,2,1,1
2.855,2,0,2,2,4,2,1,2
2.86,2,1,3,3,4,1,2,1
2.865,2,1,1,1,1,2,0,3
2.87,0,0,1,1,1,1,1,1
2.875,3,0,1,0,2,1,1,3
2.88,0,1,2,3,4,1,3,2
2.885,2,2,1,1,1,2,1,0
2.89,1,2,1,2,3,0,2,1
2.895,2,1,2,0,1,0,2,2
2.9,1,1,0,1,0,2,1,0
2.905,0,0,3,1,2,0,2,2
2.91,1,1,1,0,1,1,1,2
2.915,0,1,2,1,1,2,1,1
2.92,1,0,0,1,0,0,0,1
2.925,0,1,0,3,4,2,3,0
2.93,1,1,0,1,2,1,1,2
2.935,1,2,1,0,1,1,2,1
2.94,1,1,2,4,1,1,1,2
2.945,1,0,3,1,0,2,0,1
2.95,2,0,1,3,2,1,4,2
2.955,1,2,0,1,0,1,0,0
2.96,0,3,2,0,0,2,3,2
2.965,3,4,2,2,2,1,2,1
2.97,1,2,2,2,2,1,1,0
2.975,1,0,0,1,0,0,0,0
2.98,1,2,2,1,1,1,1,1
2.985,0,1,0,1,0,1,0,1
2.99,2,1,1,0,2,2,1,0
2.995,2,1,3,3,0,1,0,1
3,1,1,1,0,2,1,1,0
3.005,2,1,1,1,0,1,1,3
3.01,0,0,0,0,3,3,0,2
3.015,0,1,2,2,2,2,1,1
3.02,0,1,1,1,0,3,3,0
3.025,2,1,2,2,3,3,1,0
3.03,0,1,1,2,1,1,2,1
3.035,2,1,1,2,1,0,2,1
3.04,1,1,1,2,1,0,2,1
3.045,2,1,1,2,1,0,0,0
3.05,0,2,4,2,5,1,1,1
3.055,1,3,2,3,2,1,1,1
3.06,1,2,2,1,1,0,1,2
3.065,1,0,0,1,0,2,0,0
3.07,0,0,1,1,2,2,1,1
3.075,0,1,0,1,1,2,0,1
3.08,0,1,2,2,0,0,1,2
3.085,1,1,2,1,2,0,2,1
3.09,1,1,0,0,1,1,2,2
3.095,1,2,1,1,1,1,2,0
3.1,1,2,0,1,2,2,2,2
3.105,0,0,2,4,3,0,0,0
3.11,2,2,2,1,1,0,2,3
3.115,0,1,2,0,0,0,0,1
3.12,2,1,1,2,0,0,3,1
3.125,1,0,2,1,2,1,2,2
3.13,2,2,0,2,1,1,1,2
3.135,0,2,0,1,0,0,3,3
3.14,0,1,0,0,0,1,1,2
3.145,0,1,1,0,1,1,1,0
3.15,1,1,2,3,2,2,2,1
3.155,3,2,1,2,0,0,1,1
3.16,1,1,2,0,0,2,1,1
3.165,2,1,0,0,1,2,1,3
3.17,0,1,2,1,2,0,0,1
3.175,1,1,1,1,2,1,1,1
3.18,2,1,2,2,0,2,0,2
3.185,1,2,1,2,1,2,1,0
3.19,0,0,2,1,3,2,1,3
3.195,1,1,2,2,2,1,2,0
3.2,2,2,3,2,4,0,1,1
3.205,1,1,3,2,1,2,3,1
3.21,0,1,1,2,0,1,1,0
3.215,1,1,1,2,1,1,0,2
3.22,0,1,1,1,1,1,0,1
3.225,1,2,2,1,1,1,1,2
3.23,1,1,2,1,2,0,0,0
3.235,0,1,3,2,2,2,0,1
3.24,1,2,0,1,0,2,1,2
3.245,1,2,2,2,1,0,1,1
3.25,1,0,1,0,0,0,1,1
3.255,1,2,0,1,2,1,1,1
3.26,1,2,2,2,1,2,1,1
3.265,1,1,0,1,2,3,1,1
3.27,2,3,1,2,2,1,2,0
3.275,0,0,1,0,1,1,2,2
3.28,2,0,1,1,3,1,1,1
3.285,1,1,0,1,3,1,2,1
3.29,0,1,0,0,3,1,1,1
3.295,1,0,0,1,2,1,1,3
3.3,0,0,2,1,2,0,0,3
3.305,0,2,1,2,1,1,2,2
3.31,1,2,0,0,2,2,1,1
3.315,2,1,0,0,0,1,1,2
3.32,1,1,0,1,2,0,1,1
3.325,2,2,2,1,2,1,2,2
3.33,0,2,1,1,1,1,1,0
3.335,1,1,2,0,1,1,2,2
3.34,2,2,3,4,1,0,0,1
3.345,0,1,1,1,2,0,1,1
3.35,4,2,0,1,1,0,2,1
3.355,1,1,1,1,1,2,0,1
3.36,2,0,1,1,3,0,2,1
3.365,1,1,2,2,1,4,1,1
3.37,2,1,3,1,1,3,2,2
3.375,0,0,1,1,1,2,2,0
3.38,1,1,2,0,1,1,1,0
3.385,1,0,0,0,2,1,1,2
3.39,1,1,1,2,1,0,0,1
3.395,1,2,1,2,0,1,1,2
3.4,1,1,0,3,2,2,1,0
3.405,2,1,2,2,1,1,1,1
3.41,2,0,0,1,1,1,2,2
3.415,0,1,1,1,0,3,2,0
3.42,1,3,2,2,0,1,3,1
3.425,1,1,3,0,1,1,2,3
3.43,0,3,1,2,0,2,2,3
3.435,1,1,2,0,2,1,1,1
3.44,1,1,1,1,3,2,0,1
3.445,2,0,3,1,4,1,1,0
3.45,1,2,2,1,0,0,0,2
3.455,1,3,1,1,2,2,1,1
3.46,2,2,1,0,0,1,0,1
3.465,1,1,1,1,3,1,1,0
3.47,1,0,2,1,2,1,1,1
3.475,1,2,1,2,0,1,0,0
3.48,2,0,2,2,2,1,0,1
3.485,1,0,1,2,3,3,0,2
3.49,1,1,1,1,1,1,0,2
3.495,2,1,2,2,0,2,1,1
3.5,2,3,1,1,0,2,1,2
3.505,1,2,1,1,0,1,1,1
3.51,0,0,1,2,1,2,2,1
3.515,0,0,1,0,2,1,1,2
3.52,1,2,1,0,1,2,0,1
3.525,1,0,1,2,2,1,1,2
3.53,1,1,2,1,1,1,2,1
3.535,1,0,2,2,1,2,1,1
3.54,2,0,1,1,0,1,3,2
3.545,1,0,0,1,0,0,1,2
3.55,3,0,1,0,2,1,1,1
3.555,2,2,2,1,0,2,0,3
3.56,2,1,0,1,1,2,0,2
3.565,0,2,1,2,3,2,2,1
3.57,0,1,1,3,2,2,1,2
3.575,1,0,2,2,1,2,0,0
3.58,0,0,2,1,0,1,2,2
3.585,0,1,1,0,1,1,1,1
3.59,1,0,0,0,0,0,1,1
3.595,2,3,1,1,4,1,2,3
3.6,1,1,1,1,1,2,1,1
3.605,2,1,1,2,2,1,1,2
3.61,1,4,1,1,2,0,1,2
3.615,1,2,1,1,2,2,0,2
3.62,2,0,1,1,3,1,2,1
3.625,1,0,1,2,0,1,1,0
3.63,1,0,2,2,1,1,3,0
3.635,2,1,0,4,3,1,2,1
3.64,1,0,1,1,2,1,1,0
3.645,2,1,2,1,1,2,0,0
3.65,2,2,2,0,1,1,1,2
3.655,1,0,1,1,1,1,1,2
3.66,1,1,1,1,1,0,2,0
3.665,2,1,2,0,1,3,1,1
3.67,0,0,1,1,2,2,1,0
3.675,1,1,2,2,3,0,0,1
3.68,1,2,2,4,2,0,0,2
3.685,1,2,0,1,1,0,2,2
3.69,2,2,0,2,1,2,0,1
3.695,1,1,0,2,1,3,4,1
3.7,1,3,2,2,0,4,2,2
3.705,1,0,2,0,1,2,1,0
3.71,1,1,1,1,2,1,2,2
3.715,2,1,2,1,1,0,2,1
3.72,1,2,1,1,3,2,0,2
3.725,2,1,0,2,3,2,1,1
3.73,1,1,1,1,2,0,2,1
3.735,2,2,1,0,1,0,1,2
3.74,0,0,1,1,1,1,1,0
3.745,3,3,0,0,1,2,1,0
3.75,2,1,1,1,1,2,1,0
3.755,1,2,2,1,0,2,1,1
3.76,1,1,1,1,1,0,1,2
3.765,1,2,1,1,2,0,1,2
3.77,1,1,1,1,2,0,1,2
3.775,0,1,2,1,2,2,1,0
3.78,3,1,2,0,1,4,1,1
3.785,1,2,2,0,2,2,2,1
3.79,1,0,0,2,1,1,1,2
3.795,1,1,1,2,2,2,1,0
3.8,0,1,1,2,1,2,3,1
3.805,0,1,1,1,1,1,1,1
3.81,2,0,2,0,1,2,1,1
3.815,0,2,0,2,1,0,3,0
3.82,0,2,1,1,4,1,2,0
3.825,0,2,2,2,2,1,3,0
3.83,1,2,1,1,0,1,0,0
3.835,2,1,1,3,2,1,0,1
3.84,2,2,0,1,1,1,0,1
3.845,0,0,1,0,1,0,1,1
3.85,0,0,4,2,2,0,2,0
3.855,0,0,1,0,2,1,2,0
3.86,1,0,0,3,0,2,1,1
3.865,2,0,1,2,2,1,2,1
3.87,1,0,1,1,1,2,1,0
3.875,3,2,1,2,3,2,1,0
3.88,1,2,1,1,0,0,0,1
3.885,1,2,1,1,2,0,0,2
3.89,1,2,2,0,1,2,2,1
3.895,1,2,2,3,3,1,0,0
3.9,0,0,1,1,4,1,3,1
3.905,1,0,1,2,1,1,2,1
3.91,1,1,2,2,0,3,1,1
3.915,1,0,1,1,2,2,1,1
3.92,1,1,2,2,3,0,0,1
3.925,0,3,2,1,0,1,0,1
3.93,1,0,0,1,2,2,2,3
3.935,0,2,0,3,3,1,2,1
3.94,3,1,1,1,1,2,1,1
3.945,2,2,1,1,1,2,0,0
3.95,2,1,1,3,4,1,0,1
3.955,0,1,1,1,1,1,2,1
3.96,1,2,2,0,3,1,1,0
3.965,1,1,1,0,2,2,1,2
3.97,2,2,1,1,0,0,2,0
3.975,1,2,1,2,3,0,0,1
3.98,1,1,1,1,1,0,3,3
3.985,0,2,1,2,1,0,1,2
3.99,0,1,2,4,4,2,2,1
3.995,1,0,1,2,2,0,1,2
4,1,0,1,0,2,0,1,1
4.005,1,2,2,2,1,1,1,1
4.01,1,0,0,1,0,1,0,2
4.015,1,2,1,0,1,3,1,2
4.02,1,2,2,1,3,2,1,2
4.025,0,0,0,1,3,0,2,0
4.03,0,1,1,0,2,1,0,1
4.035,1,2,1,2,1,3,0,2
4.04,3,1,2,8,3,2,2,1
4.045,2,1,0,2,2,1,1,2
4.05,2,3,1,2,1,1,4,2
4.055,1,1,2,1,2,1,1,1
4.06,0,3,1,0,1,0,3,1
4.065,2,1,2,3,1,1,1,0
4.07,2,1,1,2,0,1,0,1
4.075,2,1,2,2,2,1,2,0
4.08,1,2,2,4,1,0,2,0
4.085,1,2,3,4,4,3,0,1
4.09,2,3,0,1,0,2,0,0
4.095,1,1,0,1,3,3,0,1
4.1,1,1,0,2,1,2,1,0
4.105,0,1,1,2,3,1,1,1
4.11,1,1,1,1,4,1,2,1
4.115,0,1,3,2,3,1,1,3
4.12,1,0,1,1,0,0,2,1
4.125,1,1,0,1,1,0,1,1
4.13,2,1,1,0,0,0,1,2
4.135,1,1,0,2,1,1,0,2
4.14,1,1,2,2,5,3,2,2
4.145,1,1,1,1,3,1,0,1
4.15,0,1,3,5,0,2,2,1
4.155,3,1,0,1,3,1,1,0
4.16,2,2,1,4,4,1,1,1
4.165,1,1,1,3,0,0,0,0
4.17,2,0,2,3,4,2,0,2
4.175,2,1,1,0,2,2,0,1
4.18,1,1,0,0,1,3,2,1
4.185,1,2,2,1,2,2,1,1
4.19,0,0,2,2,1,0,1,0
4.195,1,1,1,7,2,1,1,0
4.2,0,2,3,2,5,1,0,2
4.205,1,2,1,3,1,1,3,1
4.21,1,2,1,1,1,1,1,0
4.215,0,0,1,2,1,1,1,0
4.22,1,2,0,1,3,1,0,1
4.225,2,2,1,2,5,2,1,1
4.23,1,3,1,1,3,2,1,2
4.235,2,0,2,1,3,1,1,1
4.24,1,0,1,5,1,0,1,0
4.245,2,1,2,1,1,1,1,1
4.25,1,0,0,1,0,3,1,2
4.255,0,1,1,3,1,1,1,0
4.26,2,3,1,1,3,1,1,1
4.265,2,2,1,0,1,3,1,1
4.27,1,0,0,1,1,0,1,1
4.275,1,1,3,6,4,1,0,1
4.28,0,0,2,3,3,1,0,2
4.285,1,1,1,1,0,0,3,1
4.29,0,1,0,1,2,2,2,0
4.295,1,3,0,3,0,1,1,2
4.3,2,0,4,4,3,1,3,3
4.305,2,1,2,2,3,2,2,0
4.31,0,2,1,1,0,1,1,3
4.315,2,1,1,1,1,1,3,2
4.32,1,0,0,0,3,1,2,1
4.325,1,0,3,4,0,1,0,2
4.33,2,1,1,3,3,2,3,0
4.335,1,3,0,8,0,2,1,2
4.34,1,1,1,3,3,1,1,0
4.345,1,2,2,4,6,2,0,1
4.35,1,2,0,6,1,1,0,0
4.355,1,1,1,3,3,0,1,0
4.36,0,1,0,4,0,1,1,0
4.365,2,2,2,0,1,1,0,1
4.37,1,2,1,1,1,1,2,2
4.375,1,2,1,0,2,3,2,1
4.38,2,1,3,1,2,1,2,1
4.385,1,1,2,1,1,0,2,1
4.39,1,2,1,1,1,0,0,0
4.395,1,0,1,4,0,1,2,0
4.4,1,2,1,6,1,0,0,1
4.405,0,1,1,3,0,1,2,2
4.41,0,0,0,3,1,2,0,1
4.415,1,0,1,3,0,2,2,1
4.42,0,2,1,3,1,3,0,3
4.425,1,1,0,4,1,0,2,3
4.43,1,1,2,1,1,0,0,1
4.435,2,2,1,5,1,1,2,1
4.44,1,1,3,8,4,2,1,0
4.445,1,2,1,4,1,1,1,0
4.45,1,1,0,3,3,1,1,3
4.455,2,2,3,3,0,2,0,0
4.46,1,1,1,3,0,3,2,2
4.465,2,1,1,2,0,1,1,1
4.47,1,1,1,6,3,1,2,1
4.475,1,1,2,7,1,0,2,1
4.48,2,0,1,4,1,1,0,1
4.485,0,1,3,2,1,1,0,1
4.49,2,1,3,2,3,1,1,2
4.495,1,1,1,3,3,2,1,1
4.5,1,2,4,6,5,2,3,2
4.505,1,0,1,4,0,0,1,1
4.51,3,1,1,0,2,1,1,0
4.515,1,1,2,4,2,0,1,2
4.52,0,2,1,2,0,1,2,1
4.525,1,0,0,4,3,2,2,1
4.53,1,2,1,3,1,2,2,4
4.535,2,1,2,6,3,2,1,2
4.54,2,1,1,2,2,0,0,2
4.545,0,1,0,2,1,0,2,1
4.55,0,1,1,0,1,1,0,1
4.555,1,2,0,1,2,0,1,2
4.56,0,0,0,0,1,1,1,0
4.565,0,2,2,3,2,3,2,0
4.57,3,0,0,0,1,2,1,2
4.575,1,0,0,5,2,0,2,1
4.58,1,0,1,9,1,2,0,1
4.585,2,1,3,2,2,4,1,2
4.59,1,2,2,0,1,3,2,3
4.595,2,2,1,0,3,2,1,1
4.6,1,3,2,3,2,0,0,0
4.605,2,1,2,1,2,2,1,1
4.61,2,0,1,0,1,0,1,1
4.615,1,2,1,3,1,3,3,1
4.62,1,1,0,2,0,0,1,0
4.625,0,2,2,1,2,1,1,1
4.63,1,2,3,0,0,2,2,0
4.635,2,0,1,2,3,0,1,0
4.64,3,0,1,2,3,2,3,0
4.645,0,1,2,5,1,1,2,1
4.65,0,1,0,3,1,0,1,2
4.655,0,0,1,5,3,3,1,2
4.66,1,0,0,2,1,3,1,2
4.665,1,1,0,1,1,1,1,1
4.67,1,1,1,8,1,3,0,0
4.675,0,2,4,10,3,1,1,0
4.68,1,3,3,6,4,2,3,3
4.685,0,1,1,1,3,0,1,1
4.69,0,0,1,4,2,0,2,0
4.695,2,1,1,5,1,3,0,1
4.7,1,1,3,2,3,2,1,1
4.705,1,2,1,2,1,2,2,0
4.71,1,1,1,1,3,1,0,1
4.715,2,3,2,0,2,0,0,1
4.72,1,0,0,1,0,1,2,0
4.725,1,1,1,6,0,2,3,2
4.73,2,0,1,2,1,1,1,0
4.735,1,1,2,1,1,0,2,3
4.74,1,1,1,0,1,1,0,1
4.745,0,1,0,1,0,1,1,2
4.75,1,1,2,1,2,0,3,1
4.755,1,1,1,2,0,1,1,0
4.76,1,2,1,2,5,2,1,1
4.765,2,0,1,1,3,3,1,2
4.77,1,1,0,2,1,2,0,2
4.775,2,0,2,7,1,1,2,1
4.78,1,1,0,0,2,1,0,1
4.785,2,2,1,0,1,1,1,0
4.79,2,2,2,1,0,1,2,1
4.795,1,0,2,3,0,0,3,1
4.8,1,0,1,2,2,2,1,0
4.805,0,1,2,5,2,1,0,2
4.81,1,2,5,13,5,2,1,1
4.815,1,2,1,4,2,3,3,1
4.82,1,1,0,5,0,2,1,0
4.825,2,2,0,11,1,1,1,2
4.83,0,1,0,0,2,2,1,1
4.835,1,1,0,1,1,1,1,2
4.84,3,2,2,5,0,1,2,0
4.845,1,1,0,1,0,2,1,0
4.85,1,2,0,8,2,1,1,1
4.855,1,0,3,14,5,0,1,0
4.86,2,2,2,2,1,1,1,2
4.865,2,0,1,2,0,1,1,0
4.87,1,0,0,2,4,1,0,1
4.875,1,1,1,4,2,2,0,1
4.88,1,3,3,6,3,1,2,2
4.885,1,2,3,4,3,2,2,1
4.89,1,0,0,2,1,0,0,0
4.895,1,0,0,4,0,2,2,1
4.9,0,0,1,5,0,1,1,2
4.905,0,1,3,3,1,1,1,0
4.91,1,0,1,3,0,0,0,2
4.915,2,1,1,0,0,1,1,0
4.92,1,1,1,6,4,1,1,1
4.925,2,1,0,2,2,1,1,0
4.93,0,1,2,1,1,3,1,1
4.935,2,2,1,3,4,0,1,3
4.94,2,2,0,5,0,4,1,3
4.945,2,1,3,1,2,0,1,1
4.95,2,0,2,1,3,0,2,1
4.955,0,1,1,4,1,2,2,1
4.96,1,2,0,4,0,0,0,1
4.965,2,2,4,1,2,1,2,1
4.97,1,2,0,2,4,3,2,1
4.975,1,1,0,2,0,1,1,1
4.98,1,1,1,1,3,2,2,1
4.985,0,1,0,2,0,2,2,1
4.99,1,1,4,5,0,2,1,2
4.995,1,1,0,0,2,1,1,1
5,1,1,2,3,2,0,1,1
5.005,1,0,0,5,2,0,2,2
5.01,1,1,1,2,1,2,2,2
5.015,0,2,2,2,1,2,0,1
5.02,3,1,3,2,3,1,2,1
5.025,0,1,1,1,4,1,0,1
5.03,1,1,0,0,2,0,2,0
5.035,2,0,0,1,0,0,1,1
5.04,1,2,0,8,1,1,1,1
5.045,0,1,1,7,1,0,0,2
5.05,1,0,1,0,2,1,0,0
5.055,2,1,1,7,1,2,1,3
5.06,2,1,3,0,2,3,2,1
5.065,1,1,0,2,0,1,0,2
5.07,3,2,4,5,3,2,3,1
5.075,1,1,1,0,2,1,1,1
5.08,1,1,0,2,2,1,0,0
5.085,1,0,0,2,1,0,1,1
5.09,2,1,2,2,1,0,1,2
5.095,1,1,0,3,0,1,0,0
5.1,2,3,4,1,5,4,1,0
5.105,1,2,2,1,0,1,1,2
5.11,1,1,1,2,1,0,2,1
5.115,0,2,1,3,2,0,2,2
5.12,0,3,4,0,2,2,2,3
5.125,1,0,1,1,4,2,3,1
5.13,1,3,3,2,3,1,1,0
5.135,1,2,2,1,1,0,1,0
5.14,2,0,1,2,1,1,2,0
5.145,1,0,0,2,1,0,0,2
5.15,1,0,1,8,2,1,0,1
5.155,2,0,0,2,0,1,1,0
5.16,1,2,0,1,1,0,0,2
5.165,1,1,0,0,1,1,1,2
5.17,2,1,0,0,1,2,1,1
5.175,3,3,4,3,1,1,0,0
5.18,1,1,2,4,2,1,0,0
5.185,1,2,2,3,3,1,2,2
5.19,2,3,1,3,0,2,1,2
5.195,2,2,2,2,2,1,2,2
5.2,1,0,0,1,1,1,2,1
5.205,1,1,2,2,1,2,1,0
5.21,0,2,2,4,2,0,2,1
5.215,2,1,1,7,3,1,2,1
5.22,0,0,2,12,2,3,1,0
5.225,2,1,3,1,2,3,2,1
5.23,3,2,2,1,4,2,1,2
5.235,0,1,1,0,1,2,1,2
5.24,1,1,1,6,1,2,0,1
5.245,3,2,0,4,4,1,0,1
5.25,2,0,3,6,3,2,2,1
5.255,1,0,2,1,1,0,1,0
5.26,1,1,0,4,3,1,2,1
5.265,0,1,2,7,1,1,0,0
5.27,1,2,1,2,1,0,0,1
5.275,3,2,1,2,1,1,0,3
5.28,2,1,2,1,1,0,2,1
5.285,0,1,2,1,2,2,0,1
5.29,0,2,1,1,4,1,1,1
5.295,1,1,0,1,2,2,1,0
5.3,1,2,1,6,2,3,1,2
5.305,1,2,7,8,11,2,2,1
5.31,1,1,0,0,1,2,1,0
5.315,2,1,0,4,1,1,1,0
5.32,1,1,0,2,2,2,0,1
5.325,0,1,2,1,2,0,1,1
5.33,1,1,3,3,2,1,1,1
5.335,0,1,1,3,4,3,1,0
5.34,1,1,1,2,0,2,1,1
5.345,0,1,0,0,2,2,1,1
5.35,3,0,3,1,0,0,1,1
5.355,1,1,0,3,3,1,0,0
5.36,2,1,3,1,3,2,1,1
5.365,3,1,0,1,0,1,2,2
5.37,1,2,0,5,2,1,1,1
5.375,1,1,0,2,0,1,0,2
5.38,1,1,2,1,1,2,0,0
5.385,2,1,1,3,2,2,1,1
5.39,1,0,0,3,0,0,1,2
5.395,1,0,1,2,2,2,0,1
5.4,0,1,3,2,5,0,1,2
5.405,2,1,2,4,4,1,0,1
5.41,1,2,2,12,4,3,2,1
5.415,2,1,6,26,4,0,2,1
5.42,2,2,0,3,0,1,2,0
5.425,1,1,1,1,1,2,0,0
5.43,1,1,1,3,0,1,2,0
5.435,0,2,0,7,0,0,2,3
5.44,0,0,1,0,2,1,1,3
5.445,1,1,2,3,5,1,3,2
5.45,0,2,0,2,0,2,0,0
5.455,0,1,2,2,1,1,1,0
5.46,1,2,0,1,1,1,1,2
5.465,1,1,1,4,2,2,1,1
5.47,1,1,1,4,5,1,1,2
5.475,1,1,2,0,0,0,2,2
5.48,1,0,1,2,0,2,1,0
5.485,1,2,0,1,1,0,1,0
5.49,1,1,1,12,5,0,1,1
5.495,2,2,2,4,0,2,1,2
5.5,1,2,3,1,2,0,1,2
5.505,1,1,1,3,1,2,1,1
5.51,0,1,0,3,1,1,2,0
5.515,0,1,0,3,2,0,0,2
5.52,2,1,0,1,2,2,1,0
5.525,0,1,1,1,0,2,1,0
5.53,1,0,0,1,1,2,1,2
5.535,1,2,4,3,4,1,1,1
5.54,2,2,1,1,2,1,1,3
5.545,2,1,2,4,3,1,0,3
5.55,1,2,0,2,2,0,0,0
5.555,2,1,0,4,2,0,3,1
5.56,2,1,2,4,4,1,2,0
5.565,0,1,1,3,3,1,1,1
5.57,2,3,3,5,4,0,1,2
5.575,2,0,1,4,0,0,1,2
5.58,1,1,1,3,1,2,1,0
5.585,2,2,0,1,4,0,2,1
5.59,3,0,0,1,2,4,1,1
5.595,2,2,2,3,3,1,0,1
5.6,3,1,1,1,0,0,1,1
5.605,2,2,2,5,1,1,1,1
5.61,0,1,5,10,0,1,2,1
5.615,2,0,3,6,3,1,1,0
5.62,3,3,7,10,3,2,0,2
5.625,1,2,2,1,3,3,1,1
5.63,0,0,0,1,1,0,1,2
5.635,2,1,0,2,2,3,1,0
5.64,0,1,1,0,1,0,1,2
5.645,2,0,0,2,2,1,1,2
5.65,1,1,2,4,1,1,3,2
5.655,0,3,1,5,1,1,4,1
5.66,0,2,2,2,0,1,0,1
5.665,0,1,1,3,0,2,1,2
5.67,1,0,0,3,2,1,0,2
5.675,1,2,2,6,3,2,0,0
5.68,1,0,0,6,1,0,2,1
5.685,1,2,1,2,0,0,0,0
5.69,1,2,1,2,1,1,2,1
5.695,0,2,0,0,5,2,2,0
5.7,1,1,1,6,2,0,2,1
5.705,2,2,4,5,4,3,1,3
5.71,2,1,2,3,1,2,0,0
5.715,2,1,1,1,0,0,0,1
5.72,1,1,2,0,2,1,0,2
5.725,0,0,0,3,1,1,2,2
5.73,0,1,2,2,0,2,2,2
5.735,2,3,2,5,3,0,0,1
5.74,1,2,3,2,0,0,2,0
5.745,1,1,2,11,4,0,1,0
5.75,1,1,2,1,4,1,2,0
5.755,0,0,0,6,2,3,1,2
5.76,2,1,1,0,3,3,0,2
5.765,1,1,1,5,1,1,0,1
5.77,3,1,2,2,1,0,0,3
5.775,1,3,2,3,0,2,1,0
5.78,0,1,1,2,4,0,1,1
5.785,1,1,1,0,1,1,1,2
5.79,1,1,1,2,1,1,1,1
5.795,1,0,1,1,2,0,0,1
5.8,1,0,1,2,2,1,1,0
5.805,0,2,1,3,0,1,1,0
5.81,1,3,2,1,1,1,2,2
5.815,1,0,0,5,3,1,1,1
5.82,1,1,2,5,4,2,2,1
5.825,1,2,1,1,0,0,1,1
5.83,3,0,1,1,1,2,2,0
5.835,1,1,0,1,3,1,1,2
5.84,0,3,0,7,0,2,1,2
5.845,2,2,1,0,5,3,1,2
5.85,1,2,0,0,4,0,1,1
5.855,1,2,1,8,3,1,2,3
5.86,2,1,3,5,1,0,2,1
5.865,0,0,1,0,1,1,0,0
5.87,2,0,0,3,3,1,0,1
5.875,0,1,0,2,1,1,1,1
5.88,1,3,4,6,2,1,0,1
5.885,2,1,1,7,2,4,2,2
5.89,0,0,1,1,1,1,1,1
5.895,1,3,4,8,4,0,1,1
5.9,2,1,0,1,3,2,1,1
5.905,1,0,1,0,2,1,1,1
5.91,1,2,0,5,1,2,1,0
5.915,1,0,2,3,0,1,1,2
5.92,2,1,2,1,2,0,2,2
5.925,0,0,3,8,2,0,1,0
5.93,2,0,1,0,0,1,1,0
5.935,2,1,1,3,0,2,2,0
5.94,2,0,1,2,3,2,1,1
5.945,3,2,0,1,4,2,2,1
5.95,2,2,4,3,0,0,1,2
5.955,1,1,0,1,1,0,2,1
5.96,0,2,1,2,3,1,0,1
5.965,2,1,2,4,3,2,1,0
5.97,2,1,2,7,4,2,0,4
5.975,0,2,3,5,0,0,2,0
5.98,0,2,1,5,2,1,2,1
5.985,1,2,1,6,2,0,2,1
5.99,1,2,1,2,3,1,0,0
5.995,2,0,0,0,1,1,1,1
6,1,1,0,1,1,1,1,1
6.005,2,2,1,1,0,0,1,2
6.01,2,1,1,3,1,2,2,0
6.015,2,0,2,2,1,0,0,1
6.02,0,1,1,3,4,1,0,1
6.025,1,3,3,6,0,3,1,2
6.03,2,1,2,1,0,1,2,0
6.035,0,0,1,2,2,2,2,1
6.04,2,2,3,0,1,2,2,1
6.045,0,0,0,2,1,0,2,2
6.05,1,2,0,2,3,1,1,1
6.055,1,1,1,2,2,2,0,0
6.06,1,1,1,3,3,1,2,3
6.065,1,0,1,0,1,3,1,0
6.07,1,0,2,2,0,1,2,1
6.075,1,2,1,1,1,1,0,2
6.08,1,1,2,1,1,0,1,2
6.085,1,1,0,1,0,1,1,0
6.09,0,1,1,5,1,1,0,3
6.095,2,2,3,5,1,2,1,0
6.1,2,0,3,3,6,2,2,0
6.105,2,2,5,10,4,2,2,2
6.11,1,1,2,4,2,1,2,0
6.115,1,1,0,3,0,1,1,2
6.12,2,1,1,2,1,0,0,1
6.125,1,1,1,4,1,0,0,1
6.13,1,0,2,7,3,1,1,0
6.135,2,0,1,2,3,3,1,1
6.14,2,2,2,1,2,1,2,1
6.145,2,2,2,0,1,0,1,0
6.15,3,2,1,7,7,2,0,0
6.155,1,1,2,1,3,0,1,0
6.16,1,0,1,1,1,1,0,0
6.165,1,1,2,2,0,0,2,1
6.17,1,2,1,1,1,2,1,1
6.175,1,0,3,1,1,3,2,1
6.18,2,0,0,2,0,3,0,1
6.185,2,2,1,3,1,1,0,0
6.19,2,0,2,4,2,2,2,3
6.195,1,1,2,9,8,0,0,2
6.2,2,1,1,2,2,2,1,1
6.205,1,1,0,3,1,0,0,0
6.21,1,0,1,3,3,2,2,1
6.215,2,2,1,4,3,2,0,0
6.22,0,0,2,2,1,1,2,2
6.225,2,1,1,0,2,0,0,0
6.23,1,2,1,7,1,1,2,1
6.235,1,2,3,9,5,0,3,1
6.24,1,1,1,3,2,1,1,1
6.245,3,0,1,5,2,1,0,4
6.25,1,1,1,4,1,1,1,1
6.255,0,1,2,3,1,0,2,0
6.26,0,2,0,4,1,0,1,2
6.265,1,1,2,6,2,1,0,0
6.27,1,3,6,19,6,3,2,3
6.275,2,0,1,5,5,0,0,1
6.28,2,2,1,1,3,2,1,1
6.285,2,0,1,6,1,2,0,0
6.29,1,1,1,4,1,2,1,0
6.295,2,2,3,4,1,2,1,1
6.3,2,3,2,1,1,0,1,1
6.305,2,2,2,2,3,1,0,1
6.31,2,1,0,2,0,3,2,0
6.315,1,1,0,0,0,1,1,2
6.32,2,0,0,0,0,0,1,0
6.325,0,1,1,5,2,3,3,2
6.33,2,3,2,9,4,3,1,0
6.335,1,2,4,0,3,1,0,1
6.34,1,3,0,2,2,1,1,0
6.345,1,1,2,1,0,1,0,2
6.35,1,0,3,7,2,1,0,1
6.355,1,1,2,4,2,4,1,1
6.36,0,1,1,1,0,1,1,1
6.365,1,0,1,4,6,2,3,4
6.37,0,2,1,1,4,1,0,1
6.375,3,0,1,3,2,2,2,0
6.38,1,0,0,0,1,0,1,1
6.385,2,1,0,1,1,2,1,0
6.39,1,1,1,6,0,2,0,2
6.395,2,1,1,0,2,0,2,1
6.4,1,0,4,2,1,3,0,1
6.405,2,2,2,10,0,0,1,1
6.41,2,2,0,3,1,1,1,0
6.415,2,1,2,1,1,0,0,3
6.42,0,0,0,5,5,2,3,0
6.425,1,2,3,0,2,2,1,1
6.43,0,1,2,3,1,0,1,1
6.435,1,2,3,3,0,0,0,1
6.44,2,1,1,0,2,1,0,1
6.445,2,2,1,3,1,0,0,1
6.45,3,1,1,3,1,1,1,1
6.455,1,2,1,4,0,2,0,1
6.46,0,2,1,0,5,2,1,0
6.465,0,1,3,9,5,1,0,1
6.47,2,3,3,1,1,1,1,3
6.475,1,1,1,3,1,1,1,1
6.48,1,2,0,3,1,2,1,1
6.485,1,0,1,1,1,0,1,0
6.49,0,1,0,0,2,1,2,1
6.495,2,1,1,1,2,1,2,0
6.5,2,1,2,9,3,0,2,1
6.505,1,1,0,8,2,2,3,2
6.51,1,1,3,13,2,0,0,1
6.515,1,2,2,2,0,1,1,2
6.52,1,0,0,2,0,2,1,0
6.525,1,2,0,0,0,0,1,1
6.53,0,0,1,0,0,2,2,2
6.535,0,1,1,0,0,1,1,1
6.54,0,1,0,0,5,1,1,2
6.545,1,1,0,0,1,1,1,1
6.55,3,2,1,7,1,3,0,2
6.555,2,0,1,2,3,1,1,2
6.56,1,2,1,2,1,0,0,2
6.565,2,3,0,3,4,1,1,2
6.57,2,0,2,1,2,1,1,2
6.575,0,2,1,0,1,0,0,0
6.58,1,1,2,4,1,3,0,0
6.585,2,1,4,9,2,3,1,2
6.59,1,3,2,1,1,0,2,0
6.595,0,0,2,0,1,1,2,2
6.6,3,2,2,0,0,3,2,2
6.605,1,1,0,5,1,0,2,2
6.61,1,2,0,0,1,1,1,0
6.615,3,1,2,3,2,2,2,0
6.62,0,2,1,9,2,1,1,1
6.625,1,2,6,3,1,0,1,1
6.63,1,1,0,2,2,0,1,2
6.635,2,0,1,2,0,0,0,1
6.64,1,1,1,0,2,0,1,1
6.645,3,0,1,1,2,3,2,1
6.65,0,1,1,0,0,0,2,0
6.655,0,1,1,4,1,1,2,1
6.66,1,3,4,12,3,2,2,1
6.665,0,1,2,1,3,1,1,2
6.67,2,1,0,1,2,2,1,1
6.675,2,1,1,3,1,3,0,1
6.68,2,1,1,0,0,1,0,1
6.685,1,2,2,2,2,1,2,0
6.69,1,1,0,0,4,3,0,0
6.695,1,3,1,2,0,2,1,1
6.7,2,0,1,10,4,1,2,1
6.705,0,1,3,0,1,3,2,0
6.71,0,1,2,2,1,1,0,2
6.715,0,2,3,1,4,3,3,1
6.72,0,1,0,1,0,1,2,1
6.725,2,2,1,3,1,1,1,0
6.73,1,0,1,2,3,2,1,0
6.735,2,0,1,0,4,1,2,2
6.74,0,2,2,2,4,0,0,1
6.745,3,0,0,3,1,0,1,2
6.75,0,1,3,6,2,2,0,2
6.755,1,1,1,2,1,1,1,2
6.76,1,2,1,4,1,2,0,1
6.765,1,0,1,4,1,1,1,0
6.77,1,1,5,7,2,3,1,1
6.775,0,1,1,3,2,1,1,0
6.78,0,2,3,12,5,2,2,1
6.785,0,3,0,7,1,3,1,1
6.79,1,2,1,1,4,1,4,1
6.795,2,1,1,2,0,1,0,0
6.8,3,1,1,2,2,1,0,1
6.805,0,0,2,3,1,0,0,1
6.81,1,0,0,5,4,1,1,2
6.815,1,1,2,3,2,1,1,0
6.82,3,2,0,1,0,1,0,0
6.825,1,2,2,5,2,2,0,0
6.83,1,2,2,3,3,0,1,1
6.835,1,1,1,2,0,0,1,1
6.84,2,1,1,1,0,1,2,1
6.845,1,1,1,6,1,0,0,0
6.85,1,2,2,7,1,2,0,0
6.855,1,1,4,4,1,1,1,1
6.86,0,1,2,1,1,1,0,0
6.865,0,1,1,4,1,0,1,2
6.87,3,3,0,2,2,0,2,2
6.875,0,2,1,2,1,1,1,1
6.88,1,1,0,2,2,0,2,2
6.885,2,2,1,1,1,3,1,1
6.89,1,2,3,0,3,0,2,1
6.895,0,1,1,8,5,2,1,2
6.9,1,1,1,0,4,1,0,0
6.905,2,2,0,2,1,1,1,0
6.91,0,1,1,1,2,2,2,2
6.915,1,1,2,9,1,1,1,0
6.92,0,2,2,6,0,0,2,1
6.925,1,1,1,4,6,0,1,1
6.93,0,1,2,2,1,2,1,1
6.935,1,1,1,4,3,1,0,2
6.94,1,0,0,1,0,0,1,1
6.945,2,0,1,4,1,0,0,2
6.95,0,0,2,0,1,0,1,0
6.955,0,2,1,0,0,1,2,1
6.96,1,0,1,3,1,0,2,1
6.965,2,1,3,1,1,1,0,1
6.97,1,1,0,2,2,1,1,2
6.975,1,2,1,0,1,2,0,0
6.98,2,2,2,4,2,0,1,2
6.985,0,1,0,2,0,3,2,1
6.99,3,1,1,10,3,2,0,2
6.995,0,0,1,4,2,1,1,1
7,2,0,1,4,2,2,2,1
7.005,0,1,2,2,0,1,1,1
7.01,1,2,3,14,4,4,1,2
7.015,1,2,1,2,6,2,1,0
7.02,0,1,1,1,1,3,1,1
7.025,0,1,0,3,0,0,3,0
7.03,1,0,1,1,2,0,0,1
7.035,3,1,3,2,0,0,1,2
7.04,1,1,0,1,2,1,1,0
7.045,2,2,1,7,3,1,0,1
7.05,2,1,0,6,1,2,1,1
7.055,1,0,1,0,1,2,1,2
7.06,1,0,0,3,2,0,1,2
7.065,0,3,2,1,5,1,1,1
7.07,1,1,0,3,1,0,2,1
7.075,1,1,1,1,3,3,1,0
7.08,1,1,1,1,0,0,1,1
7.085,0,0,3,6,3,2,3,1
7.09,1,2,1,1,0,1,0,0
7.095,1,1,1,3,1,0,1,1
7.1,2,2,3,7,4,1,1,1
7.105,1,1,0,0,2,0,2,1
7.11,1,1,0,1,2,1,3,2
7.115,1,2,2,1,0,0,1,2
7.12,1,1,1,2,1,1,1,2
7.125,2,1,1,2,0,1,0,1
7.13,0,1,2,4,3,1,1,0
7.135,0,1,0,2,0,3,1,2
7.14,1,0,2,0,2,2,3,1
7.145,0,2,2,1,0,0,0,0
7.15,1,1,1,1,1,1,0,0
7.155,2,2,2,1,1,0,0,2
7.16,0,0,2,2,1,0,1,1
7.165,1,1,0,8,1,1,1,1
7.17,2,2,5,2,3,3,0,2
7.175,2,1,1,2,0,2,2,1
7.18,1,0,1,2,1,2,2,0
7.185,1,1,1,3,0,1,1,2
7.19,1,0,1,2,3,3,2,2
7.195,1,3,1,3,2,0,1,1
7.2,2,2,1,2,0,1,0,1
7.205,2,1,2,3,2,1,1,1
7.21,0,1,1,2,2,0,0,0
7.215,0,0,4,2,2,2,0,0
7.22,1,1,1,3,3,0,2,1
7.225,1,2,2,0,5,3,2,3
7.23,0,0,1,1,2,0,1,2
7.235,2,1,2,2,1,0,1,2
7.24,1,3,1,1,1,0,1,3
7.245,3,2,2,1,2,1,1,2
7.25,1,1,2,3,3,0,1,2
7.255,1,0,0,1,6,3,1,1
7.26,1,1,1,2,0,0,0,1
7.265,0,2,0,2,1,0,1,2
7.27,0,1,1,1,0,0,2,0
7.275,2,0,2,1,0,1,2,0
7.28,1,0,1,1,4,2,3,1
7.285,1,0,1,1,0,0,1,3
7.29,0,1,1,4,0,0,3,1
7.295,3,1,1,8,3,1,3,1
7.3,1,1,1,1,2,1,1,1
7.305,0,0,1,4,0,0,2,1
7.31,2,0,1,1,3,3,2,1
7.315,1,0,1,5,1,1,0,1
7.32,0,2,2,0,2,3,1,0
7.325,2,1,3,2,1,1,0,0
7.33,1,1,1,0,0,1,0,1
7.335,2,1,1,1,3,3,2,1
7.34,1,0,1,3,1,1,2,0
7.345,1,0,1,4,1,2,2,3
7.35,1,1,1,4,3,0,0,1
7.355,1,1,3,2,1,0,1,1
7.36,4,2,5,4,1,0,2,1
7.365,2,2,0,0,2,2,2,0
7.37,2,1,2,8,2,3,1,1
7.375,1,0,0,8,0,2,1,1
7.38,0,0,2,1,6,1,2,0
7.385,1,1,0,5,3,1,0,1
7.39,2,2,2,2,1,1,0,1
7.395,1,0,2,3,0,1,1,1
7.4,0,1,0,0,1,1,2,1
7.405,1,1,0,0,1,1,1,1
7.41,1,3,2,3,2,1,1,0
7.415,1,1,0,0,2,3,1,3
7.42,1,1,2,2,4,2,0,1
7.425,1,2,2,1,1,2,1,1
7.43,0,1,2,3,1,2,0,1
7.435,1,2,2,4,1,0,3,1
7.44,0,1,2,0,2,1,1,2
7.445,2,1,1,2,1,1,0,2
7.45,2,2,2,5,3,1,1,2
7.455,1,2,1,1,1,1,0,1
7.46,1,2,1,2,1,0,1,3
7.465,3,1,0,4,0,1,2,0
7.47,3,1,1,1,4,0,1,2
7.475,1,3,2,5,3,2,2,1
7.48,1,1,2,1,2,0,0,0
7.485,0,3,2,4,1,2,2,2
7.49,0,1,3,7,0,2,1,1
7.495,0,2,2,2,2,2,2,1
7.5,2,0,1,4,6,2,1,0
7.505,1,0,2,3,3,2,3,0
7.51,1,1,1,4,1,0,1,0
7.515,0,1,2,1,2,0,1,1
7.52,2,1,1,2,0,2,1,2
7.525,1,0,1,2,0,2,0,1
7.53,2,2,2,1,2,1,2,0
7.535,1,1,1,1,2,2,1,0
7.54,1,0,0,1,0,2,2,1
7.545,1,2,2,1,0,0,1,1
7.55,1,2,1,3,1,1,2,2
7.555,0,3,0,3,3,0,2,0
7.56,1,2,4,4,0,2,0,1
7.565,1,1,2,5,7,1,1,1
7.57,0,2,1,0,4,2,1,1
7.575,0,0,1,5,3,0,0,0
7.58,2,0,0,1,1,1,1,1
7.585,0,1,2,11,1,1,0,1
7.59,1,1,1,0,1,2,1,0
7.595,1,2,1,0,0,2,0,1
7.6,1,3,4,4,0,1,1,0
7.605,1,1,1,1,2,3,1,1
7.61,2,0,1,2,1,0,0,1
7.615,2,2,4,10,6,4,1,2
7.62,0,1,1,1,1,2,2,1
7.625,1,1,1,4,0,1,1,2
7.63,1,0,1,5,5,0,3,0
7.635,0,0,1,1,1,0,2,1
7.64,2,3,3,7,8,1,2,1
7.645,3,2,1,2,5,1,2,0
7.65,3,1,1,3,3,1,1,2
7.655,2,1,1,2,0,0,0,0
7.66,1,1,0,2,2,1,0,1
7.665,2,1,2,1,2,1,2,0
7.67,1,2,1,2,0,0,2,0
7.675,2,1,3,0,3,1,0,1
7.68,1,2,0,5,0,0,1,0
7.685,2,2,4,9,1,2,1,3
7.69,2,1,2,3,4,1,0,1
7.695,3,3,2,2,2,1,1,2
7.7,0,1,1,1,0,1,1,1
7.705,1,2,1,1,1,0,1,2
7.71,0,2,2,2,6,1,2,2
7.715,1,1,2,1,3,1,0,4
7.72,1,0,1,1,1,1,1,1
7.725,0,1,0,1,2,0,1,1
7.73,1,2,1,1,2,0,2,1
7.735,3,1,0,1,3,2,1,1
7.74,1,0,1,2,0,1,0,1
7.745,0,3,3,5,5,2,2,1
7.75,3,1,0,1,1,1,2,1
7.755,1,1,4,10,5,0,1,1
7.76,2,2,1,1,1,0,1,2
7.765,0,1,0,1,0,2,1,1
7.77,1,1,1,0,1,1,1,2
7.775,0,0,1,3,1,3,1,0
7.78,2,3,4,7,2,3,3,2
7.785,1,0,2,1,2,3,2,0
7.79,0,0,0,3,3,1,0,0
7.795,0,0,2,0,1,1,0,0
7.8,1,0,0,3,2,4,2,1
7.805,0,2,3,2,1,1,2,4
7.81,1,1,0,0,3,2,0,2
7.815,0,2,1,1,1,3,3,2
7.82,1,2,1,2,2,1,1,1
7.825,1,1,2,0,5,2,2,1
7.83,0,1,0,2,4,3,2,1
7.835,2,3,3,2,2,0,0,2
7.84,3,2,3,7,2,1,1,1
7.845,1,1,1,1,2,0,1,1
7.85,2,1,3,1,4,1,2,0
7.855,0,0,0,0,1,4,1,0
7.86,0,1,2,0,1,2,0,1
7.865,2,3,2,4,1,1,2,0
7.87,2,2,1,4,2,2,2,2
7.875,1,0,0,6,2,0,0,1
7.88,0,1,0,1,1,3,0,2
7.885,2,1,1,3,1,2,1,1
7.89,2,2,1,2,1,0,1,1
7.895,1,1,2,9,1,0,3,1
7.9,0,2,2,4,2,1,1,0
7.905,2,0,1,8,0,0,0,1
7.91,0,1,3,7,4,1,1,2
7.915,0,3,4,19,6,2,1,1
7.92,0,2,2,6,0,1,1,3
7.925,0,1,2,11,2,0,2,2
7.93,1,1,1,0,1,0,1,1
7.935,0,2,1,5,1,0,1,1
7.94,1,1,1,4,2,5,2,1
7.945,1,0,0,5,2,0,1,1
7.95,0,3,0,3,2,1,0,2
7.955,0,1,1,4,1,0,1,1
7.96,1,3,2,8,3,0,1,1
7.965,2,1,1,6,1,0,0,1
7.97,0,0,2,14,3,2,2,1
7.975,2,0,0,12,1,2,2,0
7.98,1,1,1,4,0,0,1,1
7.985,1,1,2,2,0,1,0,0
7.99,0,2,3,3,0,0,1,1
7.995,0,0,1,1,2,2,1,1
8,1,0,1,3,5,1,1,1
8.005,1,1,1,4,0,1,0,1
8.01,0,1,1,1,1,2,0,1
8.015,3,2,1,1,1,0,1,1
8.02,1,1,0,2,3,0,0,2
8.025,1,1,0,1,1,1,1,1
8.03,3,3,3,12,3,4,1,1
8.035,0,1,2,3,1,2,0,1
8.04,2,1,0,5,4,0,0,1
8.045,1,3,2,7,7,3,1,4
8.05,0,1,0,4,0,1,1,1
8.055,0,0,1,1,1,0,2,1
8.06,1,3,2,2,3,2,1,2
8.065,0,1,1,2,1,3,2,0
8.07,1,3,3,3,5,3,2,1
8.075,3,2,0,3,4,1,1,2
8.08,1,1,0,1,2,1,1,1
8.085,1,1,1,2,7,2,0,1
8.09,1,3,0,1,1,2,1,4
8.095,1,1,1,2,2,1,1,1
8.1,1,1,3,4,2,1,1,1
8.105,3,1,0,0,0,1,1,1
8.11,2,1,2,2,2,1,3,1
8.115,1,0,0,2,2,3,0,1
8.12,1,1,1,1,1,2,3,1
8.125,1,2,1,1,1,2,1,1
8.13,1,0,0,1,0,2,1,0
8.135,2,2,3,4,1,2,2,1
8.14,2,2,1,2,4,1,0,0
8.145,0,1,2,6,3,1,0,2
8.15,0,0,1,1,0,1,0,0
8.155,0,2,3,7,4,2,2,1
8.16,2,0,1,2,4,2,1,2
8.165,1,2,0,1,2,1,1,1
8.17,0,1,0,7,4,1,2,2
8.175,1,2,2,3,7,3,2,1
8.18,2,2,1,13,2,1,1,1
8.185,1,0,0,2,1,1,1,1
8.19,2,2,1,1,0,0,1,1
8.195,0,2,2,1,0,0,1,3
8.2,2,1,1,1,4,2,1,2
8.205,3,2,2,3,2,3,1,1
8.21,1,1,1,3,0,1,1,2
8.215,2,2,0,2,1,0,1,1
8.22,2,2,2,2,0,2,1,0
8.225,1,0,2,3,0,1,2,1
8.23,0,0,1,1,2,1,2,1
8.235,3,0,2,0,3,0,1,1
8.24,0,3,4,4,1,1,1,2
8.245,2,1,1,1,3,3,3,2
8.25,1,2,2,1,4,3,0,1
8.255,1,1,0,1,6,1,0,3
8.26,0,0,0,0,0,1,1,1
8.265,2,1,0,4,2,1,1,1
8.27,2,1,2,1,2,2,0,2
8.275,2,1,2,5,1,1,0,0
8.28,1,3,3,9,1,0,1,2
8.285,1,0,2,2,2,0,3,1
8.29,1,1,1,2,1,1,2,0
8.295,1,1,3,2,2,2,1,1
8.3,0,0,1,4,3,1,0,1
8.305,2,1,2,1,2,1,1,1
8.31,2,1,2,1,0,1,1,0
8.315,1,2,3,7,4,1,2,1
8.32,1,0,0,6,2,1,2,1
8.325,0,1,2,2,1,1,1,1
8.33,1,2,1,1,2,1,1,1
8.335,0,1,1,1,1,3,1,1
8.34,1,1,1,3,1,0,1,2
8.345,1,1,1,0,1,2,1,1
8.35,1,1,3,3,1,1,0,0
8.355,2,1,1,3,5,1,2,2
8.36,1,1,3,6,3,3,2,1
8.365,2,1,0,1,0,1,0,2
8.37,1,0,0,2,2,2,1,3
8.375,2,1,2,2,1,1,2,0
8.38,1,1,2,1,1,1,1,2
8.385,2,2,1,3,2,1,1,0
8.39,3,3,2,4,5,2,1,0
8.395,1,1,1,1,0,0,1,0
8.4,2,1,1,0,1,0,0,0
8.405,2,2,2,0,2,0,3,3
8.41,1,1,1,1,2,1,1,1
8.415,1,3,4,5,9,3,2,1
8.42,1,2,0,3,2,0,1,1
8.425,3,1,1,3,3,1,1,1
8.43,1,2,3,2,2,0,0,2
8.435,1,0,0,2,0,1,2,2
8.44,1,1,0,5,3,0,3,1
8.445,0,0,2,6,2,2,1,2
8.45,2,2,2,7,6,3,2,3
8.455,1,0,1,1,1,1,2,0
8.46,2,2,3,2,5,1,1,1
8.465,3,0,2,10,2,2,2,1
8.47,0,2,2,4,1,0,2,2
8.475,1,0,0,1,3,1,1,1
8.48,0,1,0,5,4,1,0,1
8.485,1,1,3,4,6,2,0,2
8.49,2,1,1,1,1,2,2,0
8.495,1,0,0,5,1,0,0,0
8.5,2,2,3,5,0,2,2,2
8.505,1,1,1,1,2,0,1,0
8.51,2,2,1,4,2,1,2,2
8.515,2,1,1,4,2,1,2,2
8.52,1,0,1,7,1,2,2,0
8.525,0,2,1,3,3,1,1,1
8.53,1,2,2,1,1,1,1,1
8.535,1,0,1,1,0,1,1,1
8.54,1,2,0,3,1,2,2,2
8.545,1,2,1,6,0,0,1,2
8.55,0,1,2,2,1,1,0,2
8.555,1,2,2,1,3,1,1,0
8.56,3,1,3,3,1,2,0,0
8.565,1,1,0,1,1,0,2,2
8.57,1,0,0,3,4,1,0,2
8.575,1,2,2,7,7,4,3,1
8.58,0,1,0,2,6,3,0,0
8.585,2,4,6,5,0,0,2,0
8.59,2,1,1,5,2,1,1,1
8.595,1,0,2,3,1,2,0,1
8.6,1,1,2,5,1,1,1,1
8.605,1,2,0,0,4,1,0,1
8.61,1,1,0,0,1,1,1,1
8.615,1,2,1,1,1,4,0,3
8.62,2,1,0,0,0,1,0,1
8.625,1,0,0,2,1,1,1,0
8.63,1,2,1,5,2,0,2,1
8.635,1,0,2,2,4,2,1,1
8.64,0,2,2,1,1,1,1,3
8.645,1,2,1,1,3,1,2,0
8.65,2,1,0,1,5,0,0,0
8.655,2,3,2,2,3,2,2,1
8.66,2,1,0,1,1,1,2,1
8.665,3,1,0,3,4,1,1,1
8.67,1,1,1,1,1,2,2,2
8.675,1,3,1,0,3,0,1,3
8.68,0,1,1,7,3,0,1,0
8.685,1,2,0,1,1,0,1,1
8.69,1,2,3,12,1,2,0,1
8.695,1,1,0,2,2,1,0,2
8.7,1,0,0,5,1,0,0,1
8.705,2,1,2,8,1,3,2,2
8.71,2,2,2,1,3,2,0,2
8.715,3,2,2,0,3,0,0,0
8.72,1,2,1,3,4,3,2,0
8.725,0,2,5,2,2,1,1,0
8.73,1,1,2,2,1,0,3,1
8.735,1,1,0,1,0,2,2,1
8.74,0,1,0,1,1,2,1,2
8.745,2,0,1,0,1,2,1,2
8.75,0,2,1,1,2,1,2,2
8.755,0,1,2,2,2,4,0,0
8.76,2,1,3,5,1,1,1,1
8.765,2,1,1,0,1,2,0,2
8.77,1,1,1,2,2,1,0,1
8.775,0,0,2,1,3,1,0,0
8.78,3,2,2,1,3,5,1,2
8.785,1,1,0,1,1,1,1,2
8.79,2,1,0,0,1,1,0,0
8.795,0,3,3,4,2,1,1,1
8.8,1,0,0,2,3,0,1,1
8.805,3,1,2,13,1,1,1,1
8.81,0,1,4,8,0,0,2,1
8.815,1,3,4,6,1,3,0,2
8.82,1,1,0,2,3,0,1,1
8.825,0,2,0,2,1,2,1,1
8.83,1,1,1,4,3,0,1,1
8.835,1,1,0,1,5,1,0,0
8.84,2,1,2,6,1,2,2,1
8.845,1,1,3,4,1,1,1,1
8.85,1,2,2,7,1,2,2,0
8.855,2,1,0,1,0,1,1,1
8.86,0,1,2,7,1,2,1,1
8.865,0,0,3,15,1,2,1,1
8.87,2,2,1,0,3,1,3,2
8.875,0,0,0,3,0,1,2,1
8.88,1,2,0,2,0,0,0,1
8.885,0,2,1,9,1,1,1,1
8.89,0,2,3,1,4,2,0,0
8.895,1,1,0,1,1,1,1,2
8.9,1,3,3,5,6,2,1,2
8.905,1,2,2,5,3,1,1,2
8.91,0,0,0,3,1,0,1,1
8.915,1,1,1,2,3,1,1,0
8.92,1,1,0,3,5,0,1,0
8.925,1,1,3,7,6,6,4,0
8.93,2,2,1,1,0,0,0,2
8.935,1,1,1,1,1,2,2,1
8.94,2,1,2,5,0,1,0,1
8.945,1,4,3,3,3,3,1,1
8.95,2,1,1,0,1,2,2,2
8.955,1,2,3,1,1,2,4,2
8.96,0,0,2,3,1,0,2,1
8.965,2,1,0,1,1,2,1,1
8.97,1,0,2,0,1,1,0,0
8.975,1,0,2,11,4,0,1,1
8.98,2,2,1,8,4,3,1,1
8.985,0,2,4,13,9,0,1,1
8.99,1,2,1,4,0,1,1,2
8.995,0,1,1,0,1,0,1,2
9,1,1,0,7,0,2,2,1
9.005,0,1,0,0,3,2,1,0
9.01,3,2,2,5,1,3,2,2
9.015,1,0,3,4,1,1,1,1
9.02,2,1,2,1,3,2,1,2
9.025,3,1,0,1,2,1,1,1
9.03,0,0,1,3,0,1,0,1
9.035,1,0,2,2,0,1,3,2
9.04,0,3,2,1,1,1,1,2
9.045,1,0,2,1,0,2,3,3
9.05,2,0,1,2,2,1,2,0
9.055,2,1,0,9,1,2,2,1
9.06,0,1,3,9,4,3,1,2
9.065,1,0,2,4,2,1,3,2
9.07,1,2,1,1,2,0,0,1
9.075,3,2,1,6,3,0,1,1
9.08,2,1,1,3,1,1,1,2
9.085,1,0,0,7,2,0,1,1
9.09,1,2,2,8,5,3,2,1
9.095,1,1,0,3,3,0,0,0
9.1,1,0,0,2,2,2,0,0
9.105,0,1,1,3,5,0,3,2
9.11,0,1,2,4,1,1,2,2
9.115,2,3,1,2,3,2,0,1
9.12,0,2,2,1,0,2,1,1
9.125,1,2,0,0,1,1,2,0
9.13,3,0,1,0,1,3,1,0
9.135,1,1,1,2,0,1,2,1
9.14,1,1,1,1,2,1,1,1
9.145,2,0,2,4,2,2,3,2
9.15,0,2,0,5,2,2,2,3
9.155,1,1,1,2,1,0,2,2
9.16,1,3,1,0,3,1,1,0
9.165,0,2,3,2,3,2,1,0
9.17,1,0,1,2,0,1,1,1
9.175,1,1,0,3,1,3,1,1
9.18,1,1,3,2,2,0,1,1
9.185,3,0,0,5,5,0,3,2
9.19,1,1,0,2,3,0,1,0
9.195,2,2,5,9,3,1,0,2
9.2,2,1,3,7,3,2,1,1
9.205,0,1,0,1,3,2,0,1
9.21,1,2,3,3,2,3,3,1
9.215,1,0,2,4,0,2,2,1
9.22,1,1,1,2,1,1,1,1
9.225,0,1,3,4,2,2,0,2
9.23,1,1,1,2,2,0,0,1
9.235,1,2,0,2,0,1,0,0
9.24,1,1,0,5,0,2,0,1
9.245,0,1,0,9,2,1,1,1
9.25,2,5,5,9,9,4,2,0
9.255,1,2,1,4,0,1,1,2
9.26,1,0,1,5,1,0,1,3
9.265,1,2,1,13,4,0,1,1
9.27,0,0,0,6,3,1,0,2
9.275,2,1,0,1,3,1,1,1
9.28,2,2,1,5,2,1,3,0
9.285,1,0,0,3,1,2,1,1
9.29,2,0,2,3,0,1,0,1
9.295,1,2,2,2,1,1,1,1
9.3,2,0,2,1,5,3,1,2
9.305,2,2,2,6,4,0,1,1
9.31,0,0,1,1,1,0,2,2
9.315,1,1,1,1,1,0,1,1
9.32,0,1,1,2,3,3,4,4
9.325,2,2,5,5,5,2,1,3
9.33,2,1,1,2,1,1,1,0
9.335,0,2,1,3,2,2,1,0
9.34,2,2,1,2,0,1,1,0
9.345,2,0,6,9,2,0,0,1
9.35,3,1,1,5,2,0,1,1
9.355,2,1,1,11,2,2,1,2
9.36,0,1,1,12,4,2,0,0
9.365,0,1,2,9,2,1,3,3
9.37,1,1,1,1,3,1,1,1
9.375,2,1,4,15,7,1,2,2
9.38,0,0,0,6,1,0,1,2
9.385,3,2,2,0,4,2,1,0
9.39,1,1,0,2,0,3,1,1
9.395,1,5,6,5,5,1,2,3
9.4,0,2,1,0,1,1,1,2
9.405,1,1,0,0,2,4,2,1
9.41,2,2,1,5,3,1,1,2
9.415,2,0,1,1,1,1,0,1
9.42,2,1,1,3,1,1,2,1
9.425,2,2,3,18,5,1,2,1
9.43,0,1,3,0,3,4,1,1
9.435,2,0,2,3,1,1,0,0
9.44,2,3,2,3,1,1,1,1
9.445,1,0,1,3,1,0,1,1
9.45,2,0,1,3,2,1,2,0
9.455,1,2,2,5,6,2,1,1
9.46,0,1,3,0,1,0,1,0
9.465,1,2,1,4,0,1,1,1
9.47,1,2,3,2,0,1,0,3
9.475,0,1,2,2,1,0,1,1
9.48,4,2,0,3,2,1,2,1
9.485,0,1,3,2,2,2,1,1
9.49,2,1,1,3,3,2,0,1
9.495,2,1,0,2,2,1,1,1
9.5,3,2,3,10,4,2,1,1
