14.005,3,5,5,14,8,4,1,2
14.01,0,0,0,8,2,1,0,2
14.015,0,1,2,5,2,0,1,0
14.02,0,1,3,6,1,1,1,1
14.025,4,3,2,8,2,2,0,3
14.03,2,1,2,4,0,1,1,1
14.035,2,1,2,3,0,0,1,1
14.04,2,1,1,10,1,1,1,2
14.045,0,1,0,12,0,0,1,0
14.05,2,6,9,15,4,2,3,1
14.055,1,1,2,5,2,1,1,2
14.06,1,1,0,11,3,3,2,3
14.065,1,2,2,7,9,2,1,1
14.07,2,1,0,15,0,3,2,1
14.075,0,2,5,3,4,1,1,2
14.08,2,1,3,10,1,2,1,1
14.085,0,0,0,13,9,2,3,0
14.09,3,1,2,3,2,1,0,2
14.095,1,2,4,6,3,1,1,1
14.1,3,1,0,5,1,3,0,1
14.105,0,0,3,10,2,1,0,0
14.11,1,0,1,5,3,3,1,1
14.115,2,2,7,10,8,5,2,2
14.12,2,1,3,1,4,1,2,1
14.125,1,0,1,8,1,1,0,0
14.13,0,1,0,18,6,1,0,0
14.135,1,2,3,4,1,2,2,1
14.14,0,1,2,5,3,1,2,0
14.145,2,2,0,11,0,1,2,2
14.15,0,0,1,1,1,2,0,0
14.155,0,0,3,1,2,0,1,0
14.16,2,1,3,6,2,1,2,3
14.165,0,2,3,2,2,1,0,1
14.17,1,0,1,1,4,0,2,0
14.175,1,2,1,6,1,1,1,0
14.18,2,1,5,2,5,1,0,1
14.185,1,0,1,2,2,3,1,0
14.19,0,0,4,4,4,4,1,2
14.195,2,0,2,5,2,2,0,1
14.2,2,2,1,3,1,2,4,0
14.205,1,3,3,3,5,0,1,0
14.21,2,1,7,29,1,3,1,1
14.215,3,5,11,35,7,2,3,3
14.22,1,4,2,1,4,2,4,3
14.225,1,0,0,3,1,1,0,1
14.23,2,3,3,0,1,0,1,2
14.235,1,1,4,9,4,1,2,1
14.24,1,1,0,5,1,2,1,1
14.245,0,1,0,1,0,2,2,1
14.25,3,3,7,11,2,1,0,4
14.255,0,1,1,18,1,0,1,1
14.26,2,1,3,24,4,1,0,2
14.265,0,2,0,4,2,2,1,2
14.27,2,3,4,6,3,1,0,1
14.275,1,0,1,4,1,1,0,1
14.28,1,3,6,19,7,0,1,0
14.285,0,1,6,18,3,3,0,1
14.29,2,5,7,2,13,1,0,2
14.295,4,7,10,7,7,6,1,4
14.3,1,1,7,18,3,0,2,0
14.305,1,0,0,6,0,2,0,1
14.31,2,3,4,2,9,1,2,1
14.315,1,2,7,19,11,0,1,1
14.32,1,2,1,12,4,2,0,1
14.325,2,0,1,10,3,6,3,1
14.33,2,2,1,3,2,1,2,1
14.335,1,1,4,4,2,2,0,1
14.34,0,1,3,2,2,2,2,2
14.345,3,2,4,4,7,1,2,2
14.35,2,1,2,1,2,2,0,1
14.355,1,2,3,5,4,1,3,2
14.36,1,1,2,4,4,1,1,2
14.365,1,0,0,5,1,2,0,0
14.37,2,1,2,2,4,3,2,1
14.375,1,0,2,3,0,2,2,0
14.38,1,0,1,8,2,3,2,0
14.385,1,2,3,6,0,1,1,1
14.39,3,3,13,10,7,5,4,2
14.395,3,0,4,13,1,0,1,1
14.4,0,3,5,17,5,2,1,0
14.405,0,1,3,2,3,1,1,0
14.41,2,0,1,1,0,3,2,0
14.415,1,2,1,4,3,3,2,1
14.42,1,1,2,6,2,1,2,2
14.425,2,3,2,2,0,1,1,1
14.43,0,2,0,9,2,0,1,1
14.435,1,1,1,1,4,2,3,0
14.44,5,2,11,20,2,1,2,0
14.445,1,2,3,13,4,2,1,2
14.45,0,1,0,0,2,1,1,3
14.455,1,2,0,3,3,0,1,3
14.46,0,0,4,9,5,2,0,3
14.465,1,3,4,2,3,5,3,2
14.47,1,3,5,18,1,1,1,0
14.475,1,1,4,2,0,2,1,0
14.48,0,0,2,4,1,2,1,0
14.485,1,1,2,13,1,1,1,1
14.49,2,1,1,12,1,3,0,3
14.495,1,0,2,3,4,3,3,1
14.5,1,0,1,6,4,0,0,0
14.505,1,0,1,3,7,4,3,1
14.51,2,1,1,0,4,2,0,2
14.515,0,3,1,4,2,1,1,1
14.52,0,2,8,9,8,5,1,1
14.525,1,1,1,5,2,1,0,0
14.53,1,0,3,5,2,1,2,1
14.535,1,3,2,4,5,3,1,0
14.54,1,1,1,7,0,0,0,1
14.545,3,4,2,24,5,2,1,3
14.55,0,1,3,22,5,4,1,0
14.555,1,2,7,19,4,1,1,2
14.56,0,2,5,30,4,1,2,2
14.565,2,4,16,14,7,1,3,1
14.57,0,1,7,18,5,1,1,1
14.575,4,9,16,2,15,8,6,4
14.58,2,2,10,12,5,1,0,0
14.585,1,0,3,8,4,3,2,0
14.59,0,4,7,16,7,1,0,1
14.595,1,2,2,8,9,3,0,0
14.6,6,7,16,2,18,6,5,4
14.605,0,1,4,13,2,1,2,1
14.61,0,1,2,24,5,0,0,1
14.615,1,2,12,13,6,1,1,0
14.62,1,2,9,15,4,5,2,2
14.625,5,8,13,53,11,9,4,7
14.63,8,9,15,94,34,12,10,8
14.635,5,0,5,20,6,1,0,3
14.64,9,4,7,34,12,4,6,7
14.645,4,6,21,55,20,5,4,2
14.65,1,0,9,1,1,2,2,1
14.655,8,12,23,25,25,11,10,8
14.66,4,5,10,23,19,4,3,3
14.665,1,0,0,14,4,0,1,0
14.67,2,4,12,20,16,4,2,1
14.675,1,3,11,27,4,1,2,2
14.68,1,1,16,32,5,1,1,1
14.685,4,4,6,16,12,5,4,5
14.69,3,6,8,74,11,6,4,3
14.695,3,2,1,31,16,2,0,2
14.7,4,5,11,35,2,0,1,1
14.705,17,7,9,45,8,5,6,12
14.71,19,5,17,25,3,0,3,11
14.715,4,4,11,47,1,2,19,24
14.72,4,7,2,40,4,5,13,20
14.725,0,3,1,18,2,1,5,11
14.73,6,2,5,68,10,3,1,7
14.735,12,10,9,19,15,8,10,27
14.74,6,10,26,68,26,9,14,16
14.745,5,7,29,105,36,5,1,3
14.75,4,4,12,88,20,4,1,1
14.755,2,4,8,63,5,2,2,12
14.76,3,9,0,80,9,8,6,11
14.765,4,3,0,4,7,1,1,0
14.77,2,1,6,48,24,6,8,10
14.775,0,0,4,54,6,2,3,2
14.78,1,4,20,29,4,2,0,5
14.785,7,7,11,84,1,3,4,12
14.79,3,2,16,107,6,1,8,32
14.795,5,0,9,76,14,1,9,60
14.8,3,5,15,23,24,7,35,22
14.805,4,10,34,81,27,9,10,11
14.81,1,5,4,121,4,6,2,1
14.815,3,5,8,26,10,1,10,28
14.82,13,9,6,53,8,5,9,31
14.825,3,3,1,19,19,2,6,8
14.83,7,3,1,54,12,5,7,11
14.835,4,3,9,119,5,6,1,16
14.84,1,2,7,97,20,5,20,9
14.845,17,13,14,95,35,13,10,5
14.85,10,10,22,15,29,12,9,2
14.855,11,16,24,91,24,14,9,3
14.86,11,5,14,41,25,7,7,14
14.865,5,0,11,95,17,2,3,3
14.87,4,9,12,29,8,8,8,0
14.875,2,5,29,92,9,2,7,3
14.88,14,16,29,73,28,19,9,10
14.885,6,5,10,14,16,5,11,15
14.89,4,2,7,25,5,1,5,2
14.895,2,3,16,95,15,1,1,29
14.9,9,15,40,17,25,16,36,18
14.905,5,7,17,60,27,6,3,2
14.91,2,1,1,32,0,4,1,3
14.915,2,7,21,75,34,4,3,15
14.92,6,12,25,0,20,14,14,11
14.925,3,11,13,56,15,14,9,3
14.93,7,0,15,28,5,3,0,3
14.935,2,2,25,72,11,4,2,8
14.94,0,1,8,5,0,5,6,5
14.945,10,7,13,3,20,3,4,2
14.95,8,7,6,22,18,1,12,18
14.955,1,4,11,4,6,4,4,7
14.96,2,1,17,58,42,5,0,3
14.965,13,3,0,53,28,13,10,2
14.97,19,26,52,90,73,35,18,2
14.975,0,12,20,38,27,8,1,3
14.98,4,1,3,62,9,2,6,8
14.985,1,5,4,66,9,1,6,14
14.99,1,3,13,108,7,7,7,37
14.995,8,11,3,70,42,20,4,4
15,5,12,43,24,21,4,12,10
15.005,3,1,12,2,9,1,2,10
15.01,7,11,23,85,75,16,3,12
15.015,8,5,6,80,11,9,11,11
15.02,3,6,9,42,2,9,9,3
15.025,0,8,14,72,22,15,3,19
15.03,8,19,27,81,50,27,4,11
15.035,16,35,67,127,45,30,20,19
15.04,3,2,15,44,43,9,3,7
15.045,31,42,84,66,90,32,19,16
15.05,20,42,65,28,100,43,19,6
15.055,6,12,10,107,24,12,6,2
15.06,10,13,1,61,20,12,13,7
15.065,16,18,11,109,7,20,15,16
15.07,2,8,41,93,39,1,2,4
15.075,9,19,46,89,53,16,11,8
15.08,11,18,15,34,42,23,14,10
15.085,5,3,33,110,11,11,0,7
15.09,14,17,4,124,43,18,11,13
15.095,15,42,66,60,64,43,25,13
15.1,0,12,3,78,43,22,12,3
15.105,42,63,108,106,126,53,35,37
15.11,0,8,19,18,4,7,4,2
15.115,25,41,87,42,93,37,25,20
15.12,10,17,7,119,46,25,16,13
15.125,1,9,19,41,1,7,2,1
15.13,2,6,27,86,5,2,0,5
15.135,4,2,1,112,33,7,3,4
15.14,9,20,33,40,56,16,12,10
15.145,22,40,79,92,82,26,24,20
15.15,8,13,18,127,3,9,8,4
15.155,4,1,9,88,19,9,1,4
15.16,12,18,1,128,11,11,5,7
15.165,10,14,48,117,1,0,4,4
15.17,6,6,21,14,31,5,3,3
15.175,10,9,36,127,7,10,5,6
15.18,30,61,100,126,80,32,22,23
15.185,14,20,37,86,9,24,19,14
15.19,7,15,36,41,10,7,8,6
15.195,3,7,18,33,6,7,7,2
15.2,5,13,9,112,40,9,7,4
15.205,12,21,9,33,34,26,14,12
15.21,13,20,98,103,24,0,5,8
15.215,1,14,46,1,33,14,10,6
15.22,6,13,75,108,24,4,4,6
15.225,2,11,2,34,6,3,3,3
15.23,13,24,14,124,24,18,14,8
15.235,4,4,6,63,23,0,0,3
15.24,7,12,33,128,30,11,6,3
15.245,3,6,23,58,3,5,3,3
15.25,5,13,19,7,10,6,3,3
15.255,13,21,11,19,14,4,9,10
15.26,0,2,75,127,79,7,6,3
15.265,34,31,41,48,37,34,27,26
15.27,0,9,28,84,7,3,4,3
15.275,16,31,59,59,7,12,15,13
15.28,11,23,34,42,2,19,18,14
15.285,9,9,50,63,36,7,3,5
15.29,8,0,32,72,7,1,7,2
15.295,11,17,33,19,23,7,6,9
15.3,2,5,17,30,6,1,3,3
15.305,20,33,24,96,39,27,20,15
15.31,3,7,36,8,43,7,2,2
15.315,11,11,39,96,21,2,1,5
15.32,17,23,76,101,10,16,15,14
15.325,7,1,3,10,46,23,16,6
15.33,15,21,30,105,118,14,14,8
15.335,10,24,75,58,2,7,11,10
15.34,2,7,36,88,16,1,0,1
15.345,4,19,9,45,34,12,2,3
15.35,6,3,51,43,1,4,2,3
15.355,21,32,90,128,64,10,14,15
15.36,18,40,44,42,64,16,11,7
15.365,10,16,2,61,30,12,14,10
15.37,1,1,8,125,11,5,7,3
15.375,1,10,34,41,2,4,4,3
15.38,4,6,14,53,20,4,2,2
15.385,1,6,8,68,6,1,2,13
15.39,8,3,12,13,24,3,1,8
15.395,6,6,10,24,9,6,6,3
15.4,7,13,11,7,7,35,3,0
15.405,4,5,1,9,4,24,2,0
15.41,1,6,5,5,1,14,3,3
15.415,3,3,10,5,8,6,3,4
15.42,6,6,12,22,4,2,6,5
15.425,0,4,5,12,4,0,0,3
15.43,4,5,16,5,5,13,3,7
15.435,3,7,11,6,10,6,8,13
15.44,0,1,10,4,3,1,1,4
15.445,1,2,2,10,5,7,2,7
15.45,3,4,2,12,3,9,3,7
15.455,1,1,3,11,0,4,3,14
15.46,4,4,3,13,5,3,3,5
15.465,1,3,2,10,2,2,1,8
15.47,8,15,15,3,8,8,3,1
15.475,9,5,18,13,2,3,8,16
15.48,4,7,1,6,5,1,1,2
15.485,3,10,2,3,6,0,0,7
15.49,3,1,4,12,4,1,6,5
15.495,3,4,4,4,0,2,0,3
15.5,5,6,2,8,2,1,2,6
15.505,4,3,1,3,4,3,1,4
15.51,1,2,9,6,6,3,2,6
15.515,2,2,4,3,3,1,0,5
15.52,1,4,3,8,0,2,9,3
15.525,2,3,8,6,3,2,11,8
15.53,5,2,2,5,1,1,2,2
15.535,4,12,26,17,11,7,4,6
15.54,0,22,8,6,3,4,0,1
15.545,3,3,7,1,5,4,13,16
15.55,1,11,1,4,0,2,11,42
15.555,0,5,7,12,6,4,23,3
15.56,23,7,10,6,4,3,9,19
15.565,67,5,6,17,7,9,10,41
15.57,6,5,1,5,3,2,7,7
15.575,3,1,4,9,2,0,10,30
15.58,9,1,5,7,7,9,21,90
15.585,10,3,3,5,3,1,9,8
15.59,2,16,13,22,17,7,7,14
15.595,7,2,1,5,0,2,2,3
15.6,2,3,0,3,2,0,22,1
15.605,7,11,26,7,5,4,4,0
15.61,2,2,3,10,6,11,7,8
15.615,2,1,4,2,6,0,4,1
15.62,0,2,9,3,1,3,1,4
15.625,1,3,2,2,4,3,1,5
15.63,1,0,4,1,2,0,1,10
15.635,1,0,8,10,5,1,4,1
15.64,2,1,1,8,3,1,0,2
15.645,2,0,14,1,1,2,3,4
15.65,2,1,5,3,3,6,3,5
15.655,1,0,8,15,3,8,3,2
15.66,3,5,4,26,6,6,4,2
15.665,3,2,7,2,1,0,1,4
15.67,1,0,3,1,5,0,0,1
15.675,0,2,6,15,2,4,0,0
15.68,0,0,1,4,2,0,1,0
15.685,4,3,2,14,2,3,0,1
15.69,4,3,1,2,2,1,2,2
15.695,2,3,1,8,1,1,0,0
15.7,2,1,6,1,2,4,4,0
15.705,1,1,1,3,0,2,4,2
15.71,3,2,0,0,6,6,3,1
15.715,1,1,6,11,1,0,2,3
15.72,1,1,12,25,7,3,4,2
15.725,1,1,3,3,0,2,1,1
15.73,2,1,3,4,1,2,1,1
15.735,0,1,12,8,5,2,1,1
15.74,1,0,3,5,1,5,3,0
15.745,1,2,7,4,2,0,2,4
15.75,2,1,1,5,6,1,1,1
15.755,2,0,3,17,8,2,1,1
15.76,1,1,2,8,7,0,1,2
15.765,1,1,1,5,3,2,2,1
15.77,1,1,1,3,0,1,0,2
15.775,6,1,6,6,7,4,0,2
15.78,1,1,3,4,1,1,0,1
15.785,0,3,2,1,5,6,3,0
15.79,1,0,1,1,1,3,0,0
15.795,1,4,2,18,10,3,1,1
15.8,2,1,8,4,8,4,1,0
15.805,2,3,8,10,5,2,2,1
15.81,0,1,4,6,5,4,2,1
15.815,1,4,9,9,5,2,3,2
15.82,2,2,3,4,0,0,1,1
15.825,1,0,5,6,2,4,1,0
15.83,0,0,8,23,9,1,2,1
15.835,2,4,1,32,0,5,3,4
15.84,7,8,22,43,20,10,4,5
15.845,1,2,9,19,1,2,0,2
15.85,2,3,9,36,12,5,4,2
15.855,3,3,2,15,14,6,3,2
15.86,1,2,5,12,7,8,3,1
15.865,1,1,1,1,7,1,1,2
15.87,2,0,2,5,4,9,5,2
15.875,1,5,12,2,2,6,6,3
15.88,1,1,8,21,5,1,1,3
15.885,3,6,4,8,11,5,3,4
15.89,1,0,4,27,1,2,0,2
15.895,3,3,0,89,8,4,6,4
15.9,1,1,10,17,3,1,2,4
15.905,1,3,14,0,5,6,3,8
15.91,0,1,8,73,10,0,2,0
15.915,6,6,3,4,21,8,6,3
15.92,4,9,20,12,9,7,3,5
15.925,1,7,8,17,5,2,6,5
15.93,7,6,9,30,7,5,6,10
15.935,7,1,28,12,15,9,7,3
15.94,2,7,13,20,26,11,4,1
15.945,1,0,10,55,8,2,1,4
15.95,4,4,29,51,4,4,4,4
15.955,2,10,8,5,7,6,3,2
15.96,3,2,2,4,4,3,3,1
15.965,2,1,6,13,8,3,3,2
15.97,1,0,26,12,8,2,1,2
15.975,1,4,21,11,12,3,2,1
15.98,4,3,9,18,9,4,1,3
15.985,5,2,1,36,10,9,5,5
15.99,5,6,26,66,18,8,4,4
15.995,1,11,17,7,20,7,12,13
16,5,19,66,88,47,17,15,24
16.005,2,12,8,1,20,11,0,59
16.01,6,6,20,46,11,6,6,5
16.015,0,1,4,110,31,6,8,15
16.02,0,1,36,127,12,2,4,14
16.025,4,2,12,52,9,3,14,23
16.03,3,23,60,105,7,7,4,3
16.035,0,0,8,53,6,4,4,5
16.04,1,7,3,3,22,6,0,9
16.045,2,5,9,76,31,14,8,5
16.05,7,7,15,4,8,6,4,7
16.055,27,29,61,33,24,14,12,16
16.06,12,5,21,32,29,12,7,8
16.065,3,1,25,127,0,6,7,2
16.07,8,7,21,38,4,7,7,0
16.075,8,9,41,64,14,1,2,10
16.08,14,24,63,46,43,16,10,10
16.085,2,0,18,57,6,17,11,6
16.09,14,20,14,58,34,22,18,16
16.095,11,26,111,123,12,7,5,7
16.1,27,56,94,99,63,25,23,19
16.105,13,28,24,22,51,16,11,10
16.11,14,27,50,121,20,14,7,14
16.115,22,48,95,48,47,24,16,17
16.12,21,35,64,37,18,17,12,12
16.125,34,75,101,48,93,10,27,23
16.13,49,81,127,127,99,36,34,30
16.135,57,72,51,66,89,47,34,40
16.14,0,6,43,110,16,9,9,6
16.145,22,45,103,29,54,29,22,19
16.15,33,57,60,33,36,41,20,22
16.155,44,89,101,128,103,50,30,30
16.16,33,59,127,31,30,40,31,27
16.165,38,67,69,74,76,35,37,31
16.17,8,6,21,2,47,6,3,3
16.175,24,44,36,82,84,21,14,13
16.18,7,17,66,14,29,12,13,5
16.185,32,44,63,25,23,23,10,25
16.19,31,42,83,63,61,29,21,19
16.195,47,85,103,30,83,37,31,27
16.2,9,20,65,75,37,1,2,4
16.205,23,50,127,91,52,23,23,19
16.21,18,39,101,62,20,18,14,13
16.215,6,41,70,36,8,11,15,5
16.22,14,41,69,14,11,8,15,12
16.225,6,5,2,1,24,17,11,7
16.23,11,22,86,117,35,6,0,8
16.235,9,4,21,17,49,14,1,4
16.24,13,14,38,123,59,11,12,11
16.245,10,9,59,98,3,29,11,8
16.25,7,7,24,46,8,1,2,1
16.255,23,4,48,75,7,19,22,19
16.26,6,10,28,19,18,1,9,5
16.265,6,18,66,44,43,21,13,7
16.27,8,28,19,73,68,26,3,6
16.275,4,6,76,61,46,10,7,3
16.28,5,22,39,24,4,10,12,8
16.285,6,4,44,67,10,2,4,2
16.29,8,13,7,16,1,1,2,3
16.295,4,10,72,31,5,6,2,5
16.3,0,11,42,33,4,10,3,0
16.305,1,3,14,70,11,1,2,0
16.31,3,11,13,17,11,5,0,5
16.315,4,6,30,11,32,12,9,10
16.32,4,23,4,42,8,6,6,3
16.325,12,2,15,56,1,7,3,7
16.33,1,15,54,75,1,9,1,1
16.335,6,8,7,35,0,4,5,2
16.34,5,3,16,5,8,4,6,6
16.345,3,3,17,23,2,12,4,6
16.35,9,1,22,48,1,4,1,2
16.355,4,5,4,14,1,5,1,3
16.36,1,3,9,24,4,0,3,3
16.365,6,36,12,1,4,4,3,5
16.37,3,2,29,18,3,1,0,1
16.375,7,13,21,3,0,3,1,3
16.38,2,1,9,55,0,2,0,10
16.385,0,5,20,45,5,6,1,12
16.39,1,6,11,6,3,1,2,15
16.395,1,5,3,10,2,0,9,32
16.4,2,6,11,15,20,3,1,2
16.405,1,4,16,5,16,3,0,1
16.41,2,1,7,13,2,3,1,6
16.415,0,0,6,2,3,3,1,4
16.42,5,9,14,1,3,2,2,12
16.425,6,1,3,15,1,4,5,11
16.43,5,1,0,11,2,1,2,11
16.435,2,0,3,10,6,12,4,8
16.44,4,15,32,18,0,4,2,11
16.445,4,0,3,3,1,1,3,8
16.45,1,2,6,3,1,0,2,7
16.455,5,7,4,8,4,2,2,5
16.46,3,2,14,51,13,3,2,0
16.465,1,3,15,51,15,0,0,2
16.47,2,2,5,7,8,7,7,7
16.475,0,1,5,1,1,3,10,3
16.48,6,1,7,8,5,8,7,14
16.485,5,1,1,13,25,8,5,10
16.49,3,4,4,31,7,11,2,3
16.495,1,2,5,19,11,5,2,0
16.5,3,2,0,27,4,1,0,1
16.505,3,3,7,3,10,4,4,1
16.51,4,9,5,13,1,5,2,2
16.515,5,39,26,7,7,8,6,10
16.52,0,3,6,25,4,1,7,6
16.525,2,1,6,9,2,0,3,3
16.53,6,10,36,6,2,4,8,16
16.535,4,3,27,7,6,0,1,8
16.54,2,2,9,4,1,1,3,22
16.545,2,1,0,5,0,4,4,7
16.55,2,2,12,17,9,4,2,12
16.555,2,14,3,7,7,2,1,2
16.56,3,2,6,7,2,2,4,11
16.565,2,6,9,8,4,1,1,5
16.57,3,4,18,13,1,2,4,2
16.575,2,6,1,5,4,4,1,2
16.58,2,4,5,6,5,2,6,5
16.585,3,2,12,1,1,0,0,7
16.59,2,1,11,8,1,2,1,3
16.595,3,2,1,2,7,5,0,4
16.6,4,9,1,2,1,5,6,3
16.605,1,1,8,3,9,4,2,6
16.61,0,0,3,2,9,3,5,8
16.615,2,8,2,1,3,3,1,0
16.62,1,5,18,2,1,3,4,4
16.625,1,17,13,5,1,0,1,2
16.63,1,3,10,7,2,1,2,3
16.635,3,4,10,2,6,1,3,4
16.64,0,2,1,1,0,3,3,2
16.645,1,4,5,1,0,1,0,1
16.65,2,1,1,0,0,2,1,3
16.655,0,2,6,2,3,2,2,2
16.66,2,1,6,2,1,2,3,8
16.665,1,4,13,5,10,1,2,4
16.67,1,3,6,3,2,3,1,5
16.675,0,0,3,2,0,0,0,38
16.68,3,3,2,1,2,1,4,21
16.685,0,1,0,4,3,1,0,4
16.69,4,0,3,3,1,5,6,6
16.695,0,0,5,1,0,0,0,9
16.7,3,1,1,3,1,4,4,4
16.705,1,1,2,17,3,2,5,11
16.71,2,6,4,9,0,0,0,3
16.715,1,2,2,3,3,1,2,3
16.72,0,2,1,1,5,1,1,2
16.725,3,2,4,1,2,0,1,1
16.73,1,1,0,6,3,1,1,1
16.735,3,1,1,2,1,1,0,1
16.74,1,1,0,3,1,3,0,1
16.745,0,0,2,2,2,0,3,2
16.75,1,5,21,11,2,3,4,2
16.755,0,6,1,2,2,2,1,1
16.76,0,1,0,3,0,1,1,0
16.765,1,1,6,1,2,2,3,3
16.77,0,1,1,0,0,2,2,1
16.775,1,5,5,8,0,3,1,1
16.78,1,1,0,4,2,1,1,1
16.785,9,3,9,5,5,1,0,1
16.79,0,1,2,6,2,2,2,2
16.795,1,0,1,7,5,1,0,2
16.8,1,3,3,17,0,1,1,0
16.805,4,5,2,2,4,5,2,3
16.81,1,3,3,8,3,2,1,1
16.815,1,1,6,15,2,3,2,0
16.82,4,3,59,4,4,3,5,5
16.825,0,6,16,6,3,1,1,1
16.83,5,7,9,26,16,2,4,4
16.835,1,2,7,2,1,3,3,4
16.84,0,1,1,5,9,1,0,2
16.845,0,2,4,29,4,1,1,0
16.85,5,1,15,1,3,2,0,3
16.855,5,1,8,7,4,3,4,9
16.86,2,0,13,18,7,2,1,1
16.865,5,4,6,13,15,10,3,4
16.87,2,1,15,4,6,0,3,1
16.875,1,1,5,10,8,4,2,1
16.88,3,2,15,45,7,0,0,3
16.885,2,0,2,23,8,4,1,0
16.89,2,5,43,0,4,1,2,2
16.895,8,18,0,30,17,9,7,6
16.9,1,3,4,8,15,3,0,2
16.905,4,10,26,59,14,5,3,2
16.91,2,1,9,32,3,2,3,1
16.915,4,5,4,37,2,1,2,2
16.92,1,0,10,33,1,1,1,0
16.925,1,1,2,8,10,1,0,1
16.93,2,1,2,35,11,3,4,3
16.935,3,3,1,14,14,5,3,3
16.94,1,1,10,23,5,4,3,1
16.945,0,8,18,55,6,2,3,5
16.95,3,3,13,68,5,4,4,7
16.955,0,2,2,47,4,1,2,1
16.96,5,4,11,37,7,3,4,4
16.965,4,1,8,13,3,1,0,1
16.97,2,2,8,40,2,2,1,1
16.975,3,3,1,2,15,4,4,2
16.98,2,1,14,51,10,6,2,3
16.985,3,9,22,56,8,6,4,5
16.99,1,4,16,4,4,4,2,1
16.995,3,9,18,50,17,3,2,5
17,2,1,2,13,7,2,1,3
17.005,0,1,1,22,4,0,4,5
17.01,3,4,47,71,1,4,2,0
17.015,5,1,19,1,10,4,7,29
17.02,4,4,18,47,8,3,1,69
17.025,3,1,2,34,10,7,13,5
17.03,13,5,2,0,5,5,2,6
17.035,18,4,10,71,15,10,8,11
17.04,8,1,8,27,9,4,6,21
17.045,2,8,39,100,14,3,8,6
17.05,0,7,33,122,0,2,13,4
17.055,1,3,19,54,30,14,7,1
17.06,5,5,15,22,9,2,1,13
17.065,2,3,16,14,9,0,3,4
17.07,6,12,46,127,26,5,8,17
17.075,5,16,58,127,28,7,4,12
17.08,4,5,5,12,18,3,4,7
17.085,7,5,2,22,10,3,1,2
17.09,5,4,11,19,11,6,1,4
17.095,10,16,39,127,51,10,7,1
17.1,3,2,14,31,29,9,4,0
17.105,8,0,18,32,1,5,2,31
17.11,8,10,11,48,4,6,12,3
17.115,3,7,7,80,29,11,2,6
17.12,13,5,3,79,21,11,3,15
17.125,11,18,50,38,26,6,9,6
17.13,16,35,86,33,48,20,7,13
17.135,18,23,49,31,24,16,11,1
17.14,19,19,55,74,24,12,14,13
17.145,0,3,6,25,2,4,3,11
17.15,8,12,12,23,4,8,7,12
17.155,8,19,45,113,27,7,6,8
17.16,4,5,12,6,12,3,5,21
17.165,3,11,11,76,13,10,5,8
17.17,4,13,19,56,14,2,1,8
17.175,1,6,29,68,1,2,5,9
17.18,4,2,9,42,24,2,13,18
17.185,9,7,6,61,1,9,33,1
17.19,11,8,3,102,15,5,8,5
17.195,10,20,37,108,8,8,5,1
17.2,6,9,39,75,12,7,3,5
17.205,8,4,5,72,0,1,11,16
17.21,8,5,40,52,9,7,8,6
17.215,21,2,17,85,18,17,7,23
17.22,15,7,43,16,7,9,4,26
17.225,6,1,3,35,0,0,3,4
17.23,1,9,15,57,13,2,9,10
17.235,0,16,47,17,6,1,2,4
17.24,2,15,43,19,15,5,1,6
17.245,9,8,4,90,24,12,1,14
17.25,2,7,14,2,19,8,1,3
17.255,6,7,8,63,13,6,1,11
17.26,8,1,1,71,43,10,11,11
17.265,1,9,35,10,31,7,6,7
17.27,11,5,30,93,9,2,4,2
17.275,2,11,9,26,10,7,6,19
17.28,3,14,41,24,13,3,10,56
17.285,19,39,106,46,45,20,24,16
17.29,21,21,36,49,32,24,16,12
17.295,6,6,4,42,30,13,7,2
17.3,2,0,21,105,8,9,5,11
17.305,0,9,7,48,22,14,10,4
17.31,1,4,30,76,11,13,9,4
17.315,6,9,5,51,26,6,3,3
17.32,9,15,10,92,10,21,9,3
17.325,12,13,30,79,45,8,12,18
17.33,13,26,40,29,26,12,12,17
17.335,8,22,53,54,22,8,7,14
17.34,8,10,14,33,8,7,7,0
17.345,3,2,2,116,2,1,3,0
17.35,4,10,40,107,11,5,2,5
17.355,12,19,99,18,41,19,11,9
17.36,35,23,78,85,31,19,12,10
17.365,10,13,7,128,42,4,5,5
17.37,4,0,22,10,1,2,1,4
17.375,5,10,39,19,15,3,1,5
17.38,25,41,102,62,61,25,26,27
17.385,16,7,30,102,8,18,15,6
17.39,0,1,14,82,1,3,1,1
17.395,3,2,35,26,5,6,3,1
17.4,7,15,41,92,11,15,10,2
17.405,4,15,6,46,18,3,6,3
17.41,3,14,40,47,15,5,2,7
17.415,22,33,31,4,65,33,22,19
17.42,13,21,5,47,36,15,6,11
17.425,1,7,60,74,36,14,6,2
17.43,3,14,36,0,13,3,0,4
17.435,8,12,12,63,0,7,7,6
17.44,2,14,32,66,66,18,9,4
17.445,10,35,14,85,26,12,5,1
17.45,3,16,38,70,24,6,5,2
17.455,4,1,31,89,8,0,2,0
17.46,23,35,59,50,56,23,15,17
17.465,30,54,128,43,57,30,21,21
17.47,4,19,127,98,41,4,0,2
17.475,8,22,80,50,42,21,18,9
17.48,12,18,41,10,39,16,14,11
17.485,24,23,44,5,32,17,12,13
17.49,33,45,55,52,66,45,31,25
17.495,41,74,120,127,87,57,37,29
17.5,14,8,96,51,45,21,13,7
17.505,43,49,62,59,48,28,21,19
17.51,36,40,101,85,67,30,26,27
17.515,12,21,75,66,21,9,7,9
17.52,19,19,35,94,8,10,10,8
17.525,24,45,116,122,92,34,21,16
17.53,24,68,127,127,37,18,7,8
17.535,4,22,128,128,0,12,4,3
17.54,22,9,101,53,15,3,4,11
17.545,19,23,58,76,47,19,13,13
17.55,12,10,98,16,13,8,11,10
17.555,49,53,46,3,89,35,25,26
17.56,43,3,30,14,34,15,6,6
17.565,6,43,66,75,60,30,22,19
17.57,0,25,0,17,16,16,6,6
17.575,2,7,84,102,21,2,2,5
17.58,33,58,60,16,50,35,24,19
17.585,22,25,46,42,27,12,8,11
17.59,5,27,98,18,49,8,8,4
17.595,11,4,15,31,49,11,10,8
17.6,22,18,7,66,3,5,3,6
17.605,24,25,88,79,43,18,17,12
17.61,3,43,30,40,68,25,21,8
17.615,5,35,91,89,3,17,8,12
17.62,30,1,34,67,32,24,18,15
17.625,9,21,22,37,6,4,9,10
17.63,24,9,42,35,5,11,8,10
17.635,37,21,13,127,32,1,3,11
17.64,12,50,10,10,2,10,1,0
17.645,25,18,125,71,27,9,9,20
17.65,7,17,36,10,58,3,7,8
17.655,10,16,8,127,70,11,1,4
17.66,35,16,62,22,20,21,18,17
17.665,5,42,34,85,38,26,17,5
17.67,10,18,52,36,6,15,6,1
17.675,26,57,73,65,33,12,18,17
17.68,31,16,44,23,112,46,30,21
17.685,29,32,55,11,17,17,8,10
17.69,5,1,43,49,21,2,5,7
17.695,13,61,117,13,82,46,41,28
17.7,15,39,18,37,37,26,14,15
17.705,4,3,27,42,12,1,4,8
17.71,22,53,127,54,14,9,12,16
17.715,20,45,21,76,24,10,9,10
17.72,14,15,14,30,4,4,3,6
17.725,7,21,93,104,41,5,1,5
17.73,26,54,105,87,24,25,18,12
17.735,19,58,53,13,62,38,31,22
17.74,11,11,65,60,20,9,8,10
17.745,11,13,70,78,46,17,10,7
17.75,26,11,55,27,62,18,7,3
17.755,27,7,40,56,7,9,13,14
17.76,22,24,98,51,4,5,4,13
17.765,28,8,49,85,24,0,1,8
17.77,5,18,23,37,24,3,6,4
17.775,6,13,38,13,13,14,11,7
17.78,2,10,39,5,37,6,2,3
17.785,5,11,2,11,39,2,1,1
17.79,1,7,8,127,1,10,8,3
17.795,5,5,22,128,21,14,13,9
17.8,25,17,7,10,20,6,1,11
17.805,6,26,40,5,10,0,4,2
17.81,22,31,88,128,32,1,8,15
17.815,16,16,23,58,26,9,9,2
17.82,8,15,43,3,16,5,3,7
17.825,16,5,11,45,38,11,4,4
17.83,16,15,8,80,13,8,2,3
17.835,27,57,91,115,80,32,18,22
17.84,40,44,83,8,59,43,30,21
17.845,2,39,69,35,16,11,10,18
17.85,15,39,25,20,28,5,3,9
17.855,13,30,98,83,3,8,3,6
17.86,3,7,5,34,12,10,9,3
17.865,10,1,73,13,14,5,8,4
17.87,6,9,92,65,54,14,6,8
17.875,4,8,24,23,32,12,2,1
17.88,3,9,92,13,0,2,3,2
17.885,19,46,53,39,28,12,7,7
17.89,24,49,102,91,51,11,8,11
17.895,6,12,19,41,13,3,1,3
17.9,7,2,33,112,22,28,18,15
17.905,20,6,62,18,0,4,0,4
17.91,26,11,24,11,5,6,1,0
17.915,4,8,6,42,20,7,4,0
17.92,14,28,58,57,37,16,9,4
17.925,4,5,19,1,11,4,2,4
17.93,10,51,120,90,52,14,17,12
17.935,10,10,24,15,33,14,11,11
17.94,16,15,58,71,12,1,0,9
17.945,1,6,15,65,17,2,1,3
17.95,4,16,15,21,8,2,1,2
17.955,2,5,27,41,21,6,3,2
17.96,14,4,43,74,1,10,15,19
17.965,1,9,21,94,7,3,4,8
17.97,2,11,20,9,9,9,4,4
17.975,1,35,20,36,4,3,6,7
17.98,13,20,83,10,33,13,4,5
17.985,25,13,4,121,35,21,13,9
17.99,11,7,52,77,2,2,5,10
17.995,3,12,0,9,1,4,3,1
18,12,12,1,9,23,11,10,9
18.005,6,7,4,59,12,8,1,5
18.01,7,1,25,107,7,8,3,1
18.015,12,4,1,12,8,2,2,6
18.02,1,5,10,9,0,5,2,2
18.025,8,17,6,59,21,7,6,4
18.03,3,7,12,73,11,9,6,4
18.035,12,12,104,36,12,1,5,7
18.04,8,13,38,34,7,7,3,5
18.045,2,1,11,13,14,0,3,1
18.05,7,6,26,43,9,6,5,5
18.055,3,7,4,25,7,2,1,1
18.06,2,3,6,16,10,1,2,3
18.065,7,6,16,5,16,4,5,3
18.07,6,17,1,18,6,5,4,5
18.075,2,6,7,44,8,4,4,2
18.08,0,4,8,4,4,0,1,1
18.085,2,2,10,2,5,3,5,3
18.09,3,13,17,25,2,2,1,1
18.095,5,4,4,23,12,13,6,4
18.1,3,9,1,11,9,5,6,4
18.105,6,14,28,10,17,1,1,1
18.11,4,18,6,15,1,1,2,0
18.115,2,4,3,38,13,4,3,0
18.12,6,12,18,16,13,8,5,5
18.125,0,15,1,25,15,1,2,2
18.13,10,17,2,18,26,18,8,9
18.135,3,1,15,12,4,3,0,1
18.14,11,16,33,0,30,14,9,9
18.145,7,26,58,6,15,8,6,8
18.15,3,4,5,1,2,0,0,1
18.155,1,2,11,24,7,2,2,1
18.16,1,2,13,5,7,1,3,0
18.165,4,6,1,2,0,1,0,0
18.17,2,0,7,25,5,2,1,1
18.175,1,2,4,13,2,1,3,2
18.18,0,11,2,14,6,1,2,0
18.185,5,3,12,14,2,2,0,2
18.19,0,6,3,24,3,3,3,2
18.195,6,2,17,1,5,5,5,5
18.2,3,10,14,9,4,1,1,3
18.205,1,0,4,1,6,4,1,2
18.21,5,4,1,1,5,11,4,2
18.215,8,1,0,9,7,2,2,2
18.22,1,0,8,1,12,5,2,1
18.225,4,4,31,14,12,11,7,6
18.23,3,1,8,5,11,2,0,2
18.235,0,0,5,20,5,4,0,1
18.24,4,6,1,14,0,3,2,1
18.245,5,3,20,45,6,5,3,4
18.25,1,17,22,3,2,1,4,3
18.255,1,1,1,4,7,2,0,2
18.26,0,0,3,8,5,2,0,0
18.265,1,2,5,18,3,0,1,1
18.27,3,1,2,3,4,4,4,3
18.275,10,3,1,0,1,2,1,4
18.28,17,1,8,7,8,4,5,11
18.285,1,11,9,11,2,2,0,0
18.29,4,8,1,8,3,1,1,1
18.295,0,1,12,4,3,2,2,9
18.3,5,5,4,2,2,0,1,3
18.305,6,1,1,3,2,1,1,1
18.31,1,3,2,3,1,2,3,2
18.315,2,4,1,1,0,3,1,1
18.32,1,1,0,0,1,5,3,2
18.325,1,2,4,3,3,5,2,0
18.33,1,4,3,3,6,2,3,0
18.335,4,1,1,7,3,2,4,0
18.34,1,6,0,3,0,3,2,0
18.345,0,2,1,8,4,1,1,0
18.35,5,5,4,1,0,1,0,4
18.355,1,3,1,2,0,2,1,0
18.36,1,3,2,1,5,1,0,1
18.365,2,2,3,3,1,1,1,1
18.37,7,6,21,5,4,1,2,2
18.375,15,10,3,4,4,1,3,7
18.38,3,1,1,9,2,0,0,4
18.385,5,4,10,5,1,2,2,2
18.39,6,0,0,1,1,3,1,0
18.395,8,2,2,2,0,1,1,1
18.4,2,7,1,1,1,1,0,2
18.405,1,1,2,1,1,2,1,1
18.41,3,4,12,1,6,4,2,4
18.415,1,1,20,7,1,2,1,1
18.42,1,4,5,2,1,1,0,3
18.425,3,2,3,2,6,3,3,4
18.43,2,3,9,2,3,0,1,1
18.435,0,3,0,10,6,3,2,4
18.44,3,1,5,5,9,1,2,2
18.445,1,1,9,0,4,1,2,3
18.45,3,12,11,5,4,1,1,2
18.455,1,2,1,8,4,2,0,1
18.46,0,3,2,1,3,3,1,2
18.465,0,1,1,4,1,3,0,0
18.47,1,2,1,3,2,1,1,2
18.475,1,1,7,5,1,3,2,1
18.48,0,4,9,4,1,0,2,1
18.485,1,0,1,3,1,0,0,1
18.49,2,2,7,3,2,0,2,2
18.495,1,1,4,15,3,4,2,2
18.5,2,2,3,4,3,1,4,3
18.505,0,2,4,6,6,2,1,1
18.51,3,0,3,3,1,0,1,1
18.515,1,1,1,1,4,2,0,1
18.52,1,3,2,0,1,4,2,2
18.525,2,1,2,1,2,0,1,2
18.53,6,2,2,1,2,0,1,1
18.535,1,3,19,3,1,3,3,9
18.54,1,6,1,9,6,1,2,2
18.545,2,7,5,9,3,1,3,2
18.55,1,2,15,16,4,0,2,1
18.555,0,0,2,3,2,1,0,0
18.56,1,3,7,4,3,0,0,1
18.565,2,3,1,3,0,4,2,1
18.57,0,1,6,0,1,2,3,3
18.575,2,7,8,3,4,1,1,1
18.58,2,2,1,0,2,0,2,3
18.585,1,3,8,4,1,1,3,1
18.59,1,1,1,3,2,3,3,2
18.595,0,0,4,7,2,3,2,1
18.6,1,2,4,10,2,1,0,1
18.605,0,1,6,1,2,4,0,0
18.61,3,1,0,3,2,0,0,2
18.615,1,1,3,1,2,0,1,0
18.62,1,2,3,2,4,1,2,1
18.625,4,1,14,5,3,4,4,6
18.63,0,1,17,0,2,1,0,0
18.635,0,2,2,2,2,1,0,1
18.64,2,2,12,3,3,2,1,2
18.645,1,2,0,3,3,1,4,2
18.65,2,2,3,1,1,0,0,1
18.655,2,4,0,1,1,0,0,0
18.66,1,0,10,11,3,0,1,1
18.665,2,4,9,6,1,2,1,1
18.67,1,0,6,9,4,2,2,0
18.675,0,1,1,1,2,0,0,2
18.68,3,2,4,2,1,2,4,9
18.685,1,0,1,1,1,3,1,0
18.69,2,2,3,2,4,0,2,1
18.695,0,3,2,2,2,0,0,1
18.7,2,1,0,7,5,1,2,2
18.705,0,2,3,2,1,0,0,1
18.71,3,11,16,4,2,1,1,2
18.715,1,1,6,13,2,3,2,2
18.72,3,1,1,4,3,3,2,1
18.725,2,1,7,5,4,1,2,1
18.73,2,1,3,11,2,2,0,0
18.735,2,1,3,7,8,4,6,3
18.74,0,1,9,1,2,1,3,1
18.745,2,0,4,0,1,1,0,0
18.75,2,2,4,1,3,2,1,0
18.755,1,1,5,4,2,1,1,1
18.76,1,0,5,2,4,1,1,2
18.765,2,0,1,1,4,2,0,2
18.77,3,0,8,3,0,3,2,1
18.775,5,4,6,1,0,1,2,5
18.78,1,1,2,3,2,0,3,0
18.785,2,1,1,3,1,1,0,0
18.79,2,2,1,3,1,1,2,1
18.795,3,4,1,2,4,2,2,0
18.8,2,3,14,1,4,2,2,2
18.805,0,6,10,6,1,1,0,1
18.81,1,2,6,12,0,1,1,3
18.815,0,2,7,11,6,0,1,0
18.82,2,0,0,7,0,1,1,1
18.825,2,0,17,4,3,3,3,1
18.83,2,2,2,5,9,5,3,3
18.835,2,5,22,3,6,2,0,0
18.84,2,5,0,2,7,1,0,0
18.845,4,1,9,4,4,1,4,3
18.85,2,2,4,0,2,0,1,0
18.855,0,1,2,6,2,2,0,1
18.86,1,0,7,8,2,2,1,1
18.865,0,0,8,4,1,2,2,2
18.87,2,0,1,11,7,4,3,4
18.875,2,2,1,2,0,0,0,0
18.88,0,3,6,1,1,1,1,1
18.885,2,1,1,6,2,4,2,1
18.89,2,2,2,0,6,2,1,1
18.895,2,2,16,5,6,3,2,2
18.9,2,13,7,0,4,2,2,3
18.905,0,13,6,2,2,3,1,0
18.91,2,1,5,2,3,1,0,2
18.915,1,3,1,9,6,0,0,0
18.92,1,2,10,15,8,2,2,2
18.925,1,3,0,1,2,1,2,1
18.93,1,4,4,5,5,2,3,2
18.935,2,5,0,5,8,0,1,2
18.94,3,2,5,10,0,4,1,4
18.945,2,13,4,3,4,4,4,2
18.95,1,3,9,13,11,5,3,2
18.955,3,4,7,7,5,2,2,1
18.96,1,3,4,0,2,5,4,3
18.965,1,3,0,7,7,0,0,1
18.97,3,3,3,35,5,6,1,3
18.975,2,0,1,23,5,1,0,0
18.98,1,1,9,20,10,2,0,3
18.985,2,7,4,28,3,2,1,2
18.99,0,0,3,11,0,1,0,1
18.995,1,2,3,20,7,0,1,1
19,3,3,1,10,3,1,1,1
19.005,2,5,5,4,8,1,1,1
19.01,3,1,28,8,9,2,3,2
19.015,3,5,27,11,1,1,2,0
19.02,6,9,27,40,13,5,5,5
19.025,3,5,1,23,1,4,3,1
19.03,2,2,4,8,2,2,1,2
19.035,2,7,10,66,0,3,1,1
19.04,1,1,3,71,18,3,1,2
19.045,2,4,8,14,4,2,2,4
19.05,0,1,13,55,8,1,2,1
19.055,4,8,26,46,3,6,4,2
19.06,4,5,29,83,17,5,4,3
19.065,1,4,17,36,7,2,3,4
19.07,11,6,21,5,13,8,4,1
19.075,3,9,7,18,4,1,0,3
19.08,5,8,12,11,20,8,4,3
19.085,2,2,3,16,13,7,2,1
19.09,1,1,9,47,11,1,2,1
19.095,1,6,11,81,17,2,4,1
19.1,4,3,0,18,2,4,4,5
19.105,1,1,7,16,8,1,2,0
19.11,0,0,6,7,1,1,0,2
19.115,1,1,11,23,8,3,1,2
19.12,4,2,6,26,5,1,2,2
19.125,0,3,1,75,8,0,1,1
19.13,1,4,16,90,17,4,0,1
19.135,2,3,4,80,1,0,3,5
19.14,2,1,1,5,5,3,1,1
19.145,1,3,6,13,6,1,0,2
19.15,2,1,12,33,4,0,1,2
19.155,4,4,15,45,9,6,4,3
19.16,7,14,35,47,23,7,7,5
19.165,7,1,6,55,4,1,1,1
19.17,0,1,3,24,10,2,2,6
19.175,2,2,0,44,6,3,1,2
19.18,5,6,0,89,0,2,5,4
19.185,2,1,2,48,8,5,3,1
19.19,1,3,5,29,4,1,3,1
19.195,1,3,4,12,1,2,0,1
19.2,1,0,3,3,1,3,0,1
19.205,1,2,8,32,4,1,0,0
19.21,3,6,13,8,12,6,5,4
19.215,3,5,0,62,6,1,4,3
19.22,2,1,4,27,12,6,3,3
19.225,2,4,4,17,11,0,4,3
19.23,9,17,45,64,51,17,9,8
19.235,0,1,3,33,16,3,1,1
19.24,5,11,10,72,21,11,8,8
19.245,5,7,10,77,4,10,7,6
19.25,5,2,24,23,1,4,5,6
19.255,1,3,18,21,12,3,0,1
19.26,5,8,16,66,30,13,5,4
19.265,1,2,7,47,2,1,0,0
19.27,1,5,4,13,15,5,1,1
19.275,5,6,23,54,16,4,1,3
19.28,12,18,48,32,40,11,9,8
19.285,0,16,39,5,17,6,3,2
19.29,9,1,6,67,6,5,5,9
19.295,4,8,14,59,21,8,3,2
19.3,6,12,32,39,38,12,6,3
19.305,2,1,3,24,3,0,1,1
19.31,0,3,28,71,0,1,1,1
19.315,3,0,5,71,13,3,2,2
19.32,6,15,54,98,13,7,7,4
19.325,6,13,44,77,53,7,2,2
19.33,2,3,27,94,20,2,1,1
19.335,0,2,4,64,12,1,1,0
19.34,5,7,25,42,9,6,5,3
19.345,6,8,3,90,5,9,6,6
19.35,3,5,3,12,25,7,6,3
19.355,1,6,10,24,17,9,4,3
19.36,5,6,28,80,24,4,4,7
19.365,1,8,23,65,27,4,3,1
19.37,3,10,20,118,18,1,2,4
19.375,10,14,1,112,4,12,8,6
19.38,13,18,50,33,45,17,11,10
19.385,4,3,11,80,9,4,3,2
19.39,6,7,5,78,3,4,3,2
19.395,1,4,22,71,18,4,0,3
19.4,2,5,7,23,9,6,3,1
19.405,9,12,45,125,26,8,7,11
19.41,6,10,27,94,17,3,3,3
19.415,4,5,27,3,6,2,3,5
19.42,9,12,11,19,32,17,10,8
19.425,8,9,13,21,37,17,9,6
19.43,7,13,42,64,13,3,6,4
19.435,5,6,16,20,13,6,4,3
19.44,0,3,17,101,4,0,3,2
19.445,2,2,21,78,3,2,0,1
19.45,3,3,12,23,14,3,4,3
19.455,1,4,33,20,30,5,2,1
19.46,4,2,30,62,7,6,6,4
19.465,7,12,59,36,9,0,3,2
19.47,6,8,20,18,22,9,4,3
19.475,2,6,30,58,6,3,2,3
19.48,6,4,18,21,26,11,5,5
19.485,27,31,85,66,63,24,16,17
19.49,43,58,99,49,98,47,31,26
19.495,2,7,57,57,14,1,3,1
19.5,6,13,49,74,47,18,10,6
19.505,1,2,10,44,1,2,3,2
19.51,4,4,8,40,17,2,1,1
19.515,7,19,30,59,43,15,11,9
19.52,15,26,44,63,52,21,15,12
19.525,4,8,24,4,6,6,6,5
19.53,17,30,77,19,42,20,15,14
19.535,9,11,21,53,28,8,5,8
19.54,13,11,14,72,14,10,7,6
19.545,8,6,2,41,8,6,7,1
19.55,4,4,5,49,8,5,5,2
19.555,7,16,40,23,29,11,6,5
19.56,7,13,56,118,19,4,3,5
19.565,6,4,14,21,20,13,12,8
19.57,17,26,37,6,33,15,17,14
19.575,9,27,66,126,59,19,18,11
19.58,15,8,7,100,18,12,7,6
19.585,5,11,45,114,11,1,3,1
19.59,0,1,7,112,28,14,7,3
19.595,1,6,40,122,23,10,5,3
19.6,20,40,95,113,75,26,15,13
19.605,32,57,109,68,57,34,26,21
19.61,3,6,59,50,32,0,1,2
19.615,12,24,71,114,21,11,13,9
19.62,24,38,54,98,93,41,28,22
19.625,5,4,22,33,35,20,12,9
19.63,8,11,30,29,60,11,8,5
19.635,31,51,103,28,88,31,25,23
19.64,18,33,106,107,87,25,18,16
19.645,24,47,78,3,10,7,11,13
19.65,10,24,8,36,15,12,7,6
19.655,11,21,8,12,40,18,12,10
19.66,21,34,83,37,46,22,17,18
19.665,4,5,10,29,9,4,2,1
19.67,2,1,29,36,59,21,9,4
19.675,1,11,72,57,32,2,2,1
19.68,14,28,80,35,34,15,11,8
19.685,19,34,73,26,4,1,6,8
19.69,25,42,91,91,73,32,26,24
19.695,11,24,15,44,1,11,7,9
19.7,10,15,1,20,30,16,10,9
19.705,19,37,94,43,9,7,10,11
19.71,3,6,37,107,8,5,3,0
19.715,8,9,20,70,12,3,4,3
19.72,1,10,27,46,24,3,1,2
19.725,5,12,22,16,4,1,4,3
19.73,0,2,2,20,22,4,2,0
19.735,25,48,38,48,11,14,10,12
19.74,19,37,69,22,13,13,7,10
19.745,7,12,5,59,6,3,3,5
19.75,6,8,42,79,8,6,5,4
19.755,6,17,73,77,6,4,5,2
19.76,7,9,41,96,37,1,4,0
19.765,3,3,63,73,10,6,8,5
19.77,14,23,3,123,31,13,9,9
19.775,5,4,6,26,18,5,1,1
19.78,15,9,2,54,3,6,6,8
19.785,4,34,52,50,13,9,9,6
19.79,7,10,42,41,17,14,9,6
19.795,7,14,13,32,7,1,4,4
19.8,11,12,17,17,57,23,17,14
19.805,6,6,37,10,25,10,6,5
19.81,7,1,1,8,4,3,6,0
19.815,22,34,103,108,70,20,15,14
19.82,2,5,27,3,21,1,2,0
19.825,12,32,49,128,68,13,5,7
19.83,3,17,94,76,24,5,3,3
19.835,16,30,23,21,45,19,16,12
19.84,7,9,27,34,39,18,17,11
19.845,7,21,1,44,3,8,3,2
19.85,17,39,87,69,46,18,14,12
19.855,6,16,44,81,11,11,10,6
19.86,10,41,127,2,55,22,15,11
19.865,7,15,108,15,8,6,8,8
19.87,1,2,0,83,29,10,1,0
19.875,6,14,3,31,4,1,5,6
19.88,19,28,96,28,17,19,14,13
19.885,30,41,7,6,82,45,28,26
19.89,7,9,24,94,10,10,6,6
19.895,17,32,58,50,31,17,14,11
19.9,25,46,29,51,28,17,17,18
19.905,11,11,14,16,34,15,9,6
19.91,8,15,10,106,38,10,6,6
19.915,4,7,65,19,8,14,11,9
19.92,18,19,107,126,35,33,20,17
19.925,4,6,38,22,14,7,5,5
19.93,0,5,41,101,28,13,9,7
19.935,4,0,9,22,12,2,5,5
19.94,13,24,7,12,9,10,11,11
19.945,4,6,68,19,3,2,6,7
19.95,7,25,45,37,37,11,6,6
19.955,4,23,107,38,6,0,2,1
19.96,13,20,25,121,19,16,10,8
19.965,23,41,91,32,39,25,17,17
19.97,11,10,4,70,58,24,14,11
19.975,24,36,48,102,75,29,24,18
19.98,4,3,15,120,6,11,5,3
19.985,9,27,104,25,14,3,2,5
19.99,3,43,59,21,1,3,5,9
19.995,20,29,83,28,54,11,14,15
20,13,12,29,27,48,13,11,10
20.005,5,13,45,61,20,7,1,0
20.01,9,54,49,33,2,7,8,4
20.015,1,47,78,85,15,1,1,3
20.02,12,21,45,86,3,4,5,11
20.025,4,30,0,31,16,6,3,1
20.03,12,10,63,33,18,7,4,8
20.035,6,8,67,22,15,6,5,1
20.04,14,66,80,111,2,1,0,3
20.045,8,3,69,42,28,5,5,11
20.05,6,31,87,91,52,7,1,1
20.055,5,4,16,35,15,4,0,0
20.06,15,59,7,61,3,8,3,0
20.065,17,5,4,27,16,21,17,14
20.07,9,6,43,10,35,6,4,4
20.075,13,21,39,125,18,11,1,10
20.08,1,14,6,10,13,5,6,5
20.085,8,6,1,3,5,1,3,5
20.09,1,12,16,30,24,7,5,3
20.095,3,12,13,61,15,3,2,3
20.1,0,4,6,127,17,5,2,1
20.105,14,40,65,64,18,7,5,7
20.11,2,2,23,57,28,12,8,8
20.115,7,26,33,8,45,16,10,7
20.12,3,12,40,12,1,5,2,2
20.125,5,45,16,11,9,10,9,8
20.13,1,4,21,21,33,7,7,3
20.135,4,2,42,15,17,6,2,7
20.14,17,17,8,14,37,4,7,15
20.145,2,4,56,66,19,11,10,4
20.15,10,11,6,22,13,9,8,6
20.155,5,6,29,28,5,2,4,5
20.16,22,15,52,12,56,27,21,20
20.165,3,2,6,24,5,1,1,0
20.17,0,2,24,5,2,0,0,1
20.175,4,13,5,30,12,5,5,1
20.18,3,15,2,31,15,6,3,1
20.185,3,3,5,18,3,5,3,4
20.19,1,1,17,9,1,1,1,1
20.195,4,6,22,73,20,11,7,5
20.2,5,2,18,3,1,5,3,2
20.205,1,6,23,17,5,0,3,0
20.21,0,7,17,18,1,3,0,1
20.215,4,9,18,10,2,1,2,2
20.22,14,8,5,5,8,1,3,7
20.225,4,9,18,10,2,1,2,2
20.23,14,8,5,5,8,1,3,7
20.235,4,30,0,31,16,6,3,1
20.24,12,10,63,33,18,7,4,8
20.245,6,8,67,22,15,6,5,1
20.25,14,66,80,111,2,1,0,3
20.255,8,3,69,42,28,5,5,11
20.26,6,31,87,91,52,7,1,1
20.265,1,1,23,31,13,3,0,1
20.27,8,9,10,5,7,5,4,3
20.275,20,51,6,9,2,12,10,10
20.28,3,26,31,12,0,10,5,0
20.285,4,16,76,24,15,2,2,3
20.29,1,21,21,4,12,0,4,0
20.295,2,16,23,13,6,1,4,3
20.3,1,0,6,2,1,2,2,1
20.305,1,9,38,31,3,4,1,1
20.31,6,6,12,27,3,0,1,4
20.315,2,7,14,1,6,7,4,2
20.32,4,11,18,20,1,1,0,1
20.325,2,4,17,2,1,2,1,2
20.33,4,4,6,0,1,5,1,1
20.335,1,2,5,10,2,3,3,1
20.34,4,5,12,21,12,3,0,3
20.345,1,5,13,6,5,1,2,1
20.35,3,6,19,37,1,1,1,2
20.355,3,8,3,7,3,0,0,2
20.36,4,4,14,18,4,0,4,11
20.365,1,8,9,19,3,1,1,1
20.37,4,4,1,9,0,5,5,4
20.375,6,10,0,3,2,1,0,2
20.38,4,1,13,3,1,1,0,1
20.385,2,5,8,6,4,3,1,1
20.39,0,8,2,7,2,3,1,2
20.395,1,6,5,6,6,1,2,2
20.4,1,13,23,9,2,6,4,0
20.405,4,2,15,4,1,4,1,1
20.41,5,6,7,5,5,7,4,2
20.415,1,2,7,2,2,2,0,1
20.42,4,7,28,4,6,7,3,3
20.425,3,8,41,18,7,1,1,3
20.43,1,11,2,6,4,0,1,1
20.435,6,0,6,2,1,3,1,2
20.44,1,11,3,4,3,5,5,4
20.445,0,1,1,7,5,0,1,2
20.45,4,5,4,4,9,4,3,1
20.455,2,7,3,4,5,2,2,3
20.46,0,5,11,0,2,0,1,1
20.465,2,5,13,3,1,1,2,0
20.47,1,0,0,1,2,0,0,1
20.475,1,1,10,4,2,2,1,2
20.48,1,1,2,8,6,1,1,2
20.485,2,4,11,4,6,0,1,1
20.49,1,3,1,6,7,1,2,2
20.495,1,1,4,3,7,3,1,1
20.5,3,4,6,5,9,1,1,1
20.505,2,1,6,1,5,2,2,0
20.51,3,2,4,0,0,4,3,2
20.515,2,2,1,0,1,1,0,2
20.52,2,0,3,7,6,3,1,0
20.525,1,1,10,5,0,5,0,0
20.53,1,2,0,0,0,8,6,1
20.535,7,13,29,4,3,10,3,5
20.54,7,2,3,1,1,4,2,8
20.545,1,6,5,1,0,1,4,1
20.55,1,2,0,3,3,2,2,0
20.555,3,1,10,10,6,3,5,4
20.56,1,0,1,1,2,0,1,2
20.565,0,0,9,1,1,0,2,1
20.57,3,2,4,2,1,0,0,4
20.575,1,1,4,3,2,2,2,1
20.58,2,1,2,2,2,4,2,1
20.585,1,1,1,2,3,0,1,1
20.59,1,0,1,0,2,4,1,2
20.595,1,1,6,2,1,0,1,1
20.6,1,3,0,2,2,1,1,1
20.605,2,5,1,2,4,1,1,1
20.61,0,0,2,0,2,5,2,3
20.615,3,1,2,0,1,0,1,4
20.62,1,3,6,6,0,2,1,1
20.625,2,3,2,2,3,4,0,3
20.63,1,0,4,4,2,2,1,0
20.635,0,4,11,2,0,1,1,1
20.64,1,13,15,2,4,5,0,2
20.645,0,3,1,2,1,3,1,2
20.65,0,1,1,4,3,1,0,3
20.655,2,1,6,0,1,0,1,3
20.66,8,9,36,3,6,5,12,11
20.665,0,4,5,1,3,3,9,2
20.67,3,21,14,3,3,1,3,5
20.675,0,2,0,3,2,1,1,4
20.68,1,3,20,5,2,3,3,4
20.685,1,2,5,0,0,2,7,28
20.69,1,18,14,2,0,1,3,11
20.695,1,0,4,3,4,3,2,2
20.7,3,2,7,2,5,4,3,3
20.705,6,12,36,8,7,3,3,18
20.71,2,5,11,0,4,3,1,10
20.715,1,1,0,0,7,1,0,0
20.72,2,7,4,0,7,1,3,9
20.725,2,2,6,3,1,2,2,8
20.73,3,5,4,1,3,1,3,3
20.735,1,1,8,4,5,2,1,1
20.74,1,3,4,2,5,0,0,2
20.745,3,5,6,2,4,2,3,7
20.75,2,22,13,1,5,2,1,1
20.755,2,8,5,1,2,1,3,5
20.76,3,6,34,3,2,0,5,3
20.765,9,6,81,13,6,4,6,1
20.77,1,4,12,1,2,0,1,2
20.775,1,2,16,7,2,0,0,6
20.78,3,1,9,1,6,5,2,1
20.785,2,4,1,0,2,1,1,0
20.79,2,9,14,2,2,4,2,10
20.795,1,3,8,2,0,0,2,2
20.8,1,1,7,2,1,1,5,3
20.805,4,0,17,3,5,1,2,7
20.81,0,3,4,0,1,3,2,4
20.815,2,1,9,2,3,1,1,2
20.82,1,2,3,0,2,2,1,3
20.825,1,1,13,3,4,0,1,1
20.83,1,0,9,1,0,0,2,1
20.835,2,2,0,6,5,5,3,3
20.84,0,0,0,5,12,1,2,1
20.845,2,4,4,1,1,3,2,4
20.85,4,29,37,7,6,5,5,6
20.855,2,5,4,2,3,2,2,1
20.86,2,4,3,2,3,2,1,1
20.865,0,4,14,2,1,1,0,3
20.87,1,2,1,4,4,1,4,2
20.875,3,3,3,2,2,2,1,1
20.88,1,0,4,4,5,6,4,2
20.885,5,0,9,8,6,3,2,3
20.89,2,7,1,3,1,6,2,3
20.895,2,1,2,1,2,1,1,1
20.9,3,6,5,3,5,1,2,1
20.905,2,3,7,2,2,4,1,2
20.91,1,7,2,3,2,3,1,3
20.915,2,2,5,2,3,5,3,2
20.92,5,10,7,0,0,3,4,7
20.925,3,4,4,3,0,1,0,3
20.93,5,8,4,2,1,3,3,5
20.935,2,3,17,1,1,3,2,2
20.94,2,2,7,3,7,1,1,1
20.945,1,5,13,2,4,3,2,2
20.95,6,11,10,2,9,1,2,2
20.955,2,1,6,2,2,3,0,1
20.96,2,2,11,2,1,0,1,1
20.965,0,0,3,1,7,5,0,0
20.97,0,6,1,1,2,3,1,0
20.975,1,3,3,1,3,4,3,1
20.98,1,4,2,4,1,1,1,1
20.985,3,2,4,2,1,2,2,4
20.99,2,2,2,1,0,2,2,1
20.995,0,3,9,1,1,1,1,1
21,1,1,2,3,2,2,0,0
21.005,0,0,3,3,3,4,4,3
21.01,1,1,5,0,2,3,0,1
21.015,2,1,4,2,0,1,2,0
21.02,1,1,2,2,1,3,0,0
21.025,1,5,9,4,2,2,3,2
21.03,3,4,4,3,11,4,2,3
21.035,3,0,8,9,1,1,1,3
21.04,1,0,5,2,2,2,1,1
21.045,3,1,5,4,12,3,2,1
21.05,2,1,0,6,4,2,2,1
21.055,1,1,4,4,4,0,0,0
21.06,3,3,10,12,9,5,4,3
21.065,1,2,4,6,2,2,0,3
21.07,0,1,2,7,4,1,0,0
21.075,1,2,5,9,4,1,2,2
21.08,2,7,0,1,3,2,4,1
21.085,0,18,6,4,1,0,2,2
21.09,2,3,3,3,0,4,1,2
21.095,2,1,6,1,4,1,1,2
21.1,3,5,2,4,2,3,2,3
21.105,1,4,2,2,3,1,1,3
21.11,1,2,3,6,2,1,0,0
21.115,0,1,3,3,3,2,1,0
21.12,4,1,12,18,5,4,5,4
21.125,3,5,11,3,4,1,0,2
21.13,1,10,8,4,4,4,2,2
21.135,1,13,16,11,1,3,2,3
21.14,0,1,4,1,7,2,1,1
21.145,0,0,2,1,6,1,1,0
21.15,2,5,4,1,8,4,2,3
21.155,1,3,3,2,2,1,0,1
21.16,2,0,16,13,0,2,3,1
21.165,5,3,34,23,2,5,4,5
21.17,2,3,21,36,2,3,1,3
21.175,2,4,6,12,1,1,1,2
21.18,2,1,0,8,9,1,3,2
21.185,0,2,12,3,0,1,0,1
21.19,1,2,5,8,1,1,1,0
21.195,3,6,6,6,1,4,2,1
21.2,2,2,2,10,12,1,1,2
21.205,3,4,4,10,14,0,2,1
21.21,4,5,1,3,9,6,6,5
21.215,2,5,9,2,2,1,2,1
21.22,2,2,5,30,4,1,3,1
21.225,0,1,7,37,4,4,0,1
21.23,3,5,15,7,2,2,2,3
21.235,3,5,16,23,2,2,3,4
21.24,0,0,2,12,2,0,2,1
21.245,2,1,6,17,1,1,0,0
21.25,4,1,14,38,10,6,6,2
21.255,2,10,2,64,1,4,1,1
21.26,2,5,20,9,9,4,1,2
21.265,5,6,26,44,21,5,3,4
21.27,9,11,19,15,12,4,5,6
21.275,1,3,21,18,1,1,1,2
21.28,2,4,8,22,3,1,2,0
21.285,2,1,0,2,6,2,1,3
21.29,4,4,14,49,18,3,5,2
21.295,2,2,6,79,19,2,3,1
21.3,8,12,31,60,37,8,6,6
21.305,5,6,10,23,13,11,7,4
21.31,1,1,17,3,4,3,1,0
21.315,4,9,4,5,1,3,4,2
21.32,2,1,11,52,1,4,4,1
21.325,4,8,20,54,19,8,3,4
21.33,5,1,9,80,11,2,1,2
21.335,8,9,12,35,7,5,2,2
21.34,0,4,1,44,0,1,7,8
21.345,8,16,32,44,14,8,8,7
21.35,5,8,3,44,25,13,7,4
21.355,4,4,21,55,0,7,9,3
21.36,5,5,11,1,6,2,3,0
21.365,3,1,20,112,3,1,5,2
21.37,1,12,24,13,18,3,1,0
21.375,9,6,23,77,41,13,7,9
21.38,2,8,32,6,1,4,2,2
21.385,1,8,12,76,6,5,2,2
21.39,3,7,19,109,18,2,4,3
21.395,7,6,32,77,8,1,5,1
21.4,8,7,0,10,0,2,1,6
21.405,4,10,18,17,1,0,1,4
21.41,14,15,19,56,30,4,5,12
21.415,5,5,32,78,14,3,4,5
21.42,7,11,33,54,31,10,3,5
21.425,14,23,59,101,66,22,15,13
21.43,2,4,50,94,11,0,0,3
21.435,8,41,38,122,28,6,3,4
21.44,17,16,38,2,19,14,12,11
21.445,6,1,6,53,17,1,2,0
21.45,8,3,31,86,6,5,6,10
21.455,7,5,2,48,21,10,9,9
21.46,6,20,14,23,25,8,5,4
21.465,7,0,12,24,3,1,2,2
21.47,9,12,16,62,24,12,10,6
21.475,7,18,45,68,37,11,5,2
21.48,2,6,12,9,13,7,3,3
21.485,2,3,41,35,13,2,4,1
21.49,8,6,9,8,6,2,1,1
21.495,1,6,46,51,28,3,1,1
21.5,13,36,38,127,35,24,16,8
21.505,7,6,53,73,31,1,4,6
21.51,5,8,21,94,16,1,4,5
21.515,3,9,32,98,18,4,1,1
21.52,11,10,9,53,11,5,5,8
21.525,8,14,25,24,14,11,12,9
21.53,7,16,65,13,25,13,9,7
21.535,3,8,11,19,12,7,5,3
21.54,1,0,25,9,2,4,1,2
21.545,11,20,2,6,4,6,12,11
21.55,8,9,6,116,22,12,7,8
21.555,6,17,45,84,0,2,4,3
21.56,3,1,12,94,6,5,1,3
21.565,8,22,52,20,54,18,14,5
21.57,6,3,42,83,31,13,12,7
21.575,2,0,19,5,3,5,6,4
21.58,10,14,53,70,5,2,5,4
21.585,18,28,4,0,25,20,21,15
21.59,25,39,114,63,54,26,20,20
21.595,3,3,14,9,6,0,2,4
21.6,2,2,56,125,47,10,1,2
21.605,23,23,42,42,17,11,13,14
21.61,20,22,29,30,7,12,10,11
21.615,13,11,30,56,55,10,9,11
21.62,20,26,44,38,85,28,22,17
21.625,14,32,37,127,25,36,27,16
21.63,11,3,16,120,38,8,0,9
21.635,21,19,8,36,92,39,23,21
21.64,39,51,87,54,121,67,42,33
21.645,25,39,65,28,48,30,23,21
21.65,24,36,80,74,34,17,14,14
21.655,20,30,13,127,12,27,20,15
21.66,2,9,45,82,18,2,4,4
21.665,6,7,16,11,22,5,2,3
21.67,3,3,4,49,38,1,1,1
21.675,4,6,32,73,0,4,0,3
21.68,8,3,4,103,19,9,8,11
21.685,3,6,47,71,37,9,9,10
21.69,2,13,29,98,59,9,5,2
21.695,13,28,3,40,56,25,15,10
21.7,20,38,98,125,28,27,20,12
21.705,4,15,43,27,35,13,7,10
21.71,10,34,85,31,15,8,11,8
21.715,23,35,19,68,23,26,20,19
21.72,22,24,65,86,48,34,23,15
21.725,20,13,13,2,31,11,3,7
21.73,17,32,41,111,14,15,10,1
21.735,41,59,40,19,42,24,29,28
21.74,26,54,49,3,19,0,5,11
21.745,1,5,5,13,34,22,15,7
21.75,11,17,56,4,25,10,4,8
21.755,2,0,23,57,6,2,2,1
21.76,5,1,5,30,21,13,4,5
21.765,0,4,7,62,2,6,0,3
21.77,6,1,12,75,43,2,7,20
21.775,23,38,128,1,35,13,17,14
21.78,5,12,23,127,55,9,0,9
21.785,4,2,84,39,53,12,19,1
21.79,7,20,31,1,88,33,16,5
21.795,15,37,49,2,46,28,18,21
21.8,11,32,36,84,83,31,16,11
21.805,35,25,83,58,13,5,0,13
21.81,2,5,79,105,18,23,13,4
21.815,15,9,58,71,17,6,5,11
21.82,43,49,25,17,1,46,31,26
21.825,14,21,84,28,21,18,2,5
21.83,28,28,93,57,56,13,8,6
21.835,5,7,72,85,15,21,13,9
21.84,4,10,10,50,33,14,17,11
21.845,4,10,25,5,17,4,2,7
21.85,18,19,23,27,11,1,6,13
21.855,25,30,39,116,42,17,8,10
21.86,51,26,119,127,75,24,23,32
21.865,34,33,50,9,4,20,27,29
21.87,49,76,55,97,70,23,26,30
21.875,29,5,60,113,75,28,28,23
21.88,3,8,44,55,8,5,3,3
21.885,8,9,25,7,44,13,6,9
21.89,5,19,7,111,12,10,7,9
21.895,11,4,64,49,4,5,6,5
21.9,12,17,23,8,0,7,5,4
21.905,10,23,27,6,12,1,1,3
21.91,43,80,119,88,61,35,38,32
21.915,31,54,0,113,66,32,25,19
21.92,8,9,41,6,42,21,8,4
21.925,0,10,39,33,3,4,2,0
21.93,5,1,9,51,14,3,3,4
21.935,21,41,64,37,34,21,18,19
21.94,10,1,40,20,2,10,6,9
21.945,6,35,21,3,32,18,18,10
21.95,5,23,72,90,23,6,5,3
21.955,8,5,52,104,73,13,6,9
21.96,5,12,15,102,89,15,7,6
21.965,2,63,15,54,14,3,3,0
21.97,3,13,51,40,28,14,8,4
21.975,4,38,62,47,48,19,17,14
21.98,36,27,51,127,36,4,3,3
21.985,5,23,43,48,18,9,5,2
21.99,2,4,14,53,23,0,2,0
21.995,6,25,75,128,50,4,2,5
22,3,10,7,97,50,6,3,1
22.005,4,20,95,127,25,5,5,1
22.01,34,37,102,66,79,28,29,26
22.015,4,9,6,50,23,2,3,1
22.02,16,15,17,27,12,13,2,5
22.025,13,14,22,92,31,20,13,14
22.03,3,3,29,17,1,3,0,0
22.035,9,8,47,28,23,14,7,1
22.04,3,3,49,18,4,2,2,1
22.045,11,27,86,44,14,1,6,9
22.05,10,16,0,39,1,3,1,4
22.055,2,11,56,72,12,5,7,5
22.06,5,6,15,53,35,20,10,3
22.065,25,45,76,10,50,28,18,17
22.07,0,3,12,53,14,5,3,4
22.075,0,13,19,80,0,5,2,1
22.08,1,3,74,110,56,12,4,2
22.085,1,5,76,87,4,11,15,10
22.09,10,5,38,11,2,6,6,1
22.095,10,8,5,35,1,3,5,6
22.1,2,2,1,55,21,0,2,1
22.105,5,6,48,13,15,4,2,3
22.11,19,22,82,27,26,15,14,16
22.115,5,0,20,63,6,4,7,6
22.12,6,8,27,13,12,6,4,5
22.125,3,3,24,86,8,4,4,3
22.13,2,5,36,17,19,9,1,0
22.135,5,11,67,45,41,13,4,4
22.14,8,2,11,97,13,12,8,7
22.145,7,33,5,97,29,7,2,1
22.15,4,5,19,26,14,6,2,3
22.155,1,10,15,49,25,5,1,1
22.16,4,10,15,50,29,1,1,1
22.165,3,1,18,28,18,1,0,1
22.17,5,2,9,44,3,3,6,5
22.175,0,9,11,21,5,5,3,1
22.18,5,5,4,2,6,0,1,0
22.185,3,7,12,33,19,10,5,7
22.19,7,9,23,1,10,7,4,2
22.195,1,9,2,25,2,2,2,3
22.2,0,1,22,37,7,6,0,1
22.205,3,5,3,22,5,4,0,3
22.21,2,1,10,24,3,2,2,8
22.215,1,8,3,17,3,3,5,3
22.22,1,2,6,11,12,6,2,1
22.225,1,5,2,0,3,0,2,2
22.23,3,2,11,11,5,4,2,0
22.235,5,4,3,7,3,5,5,4
22.24,1,10,25,20,3,0,2,5
22.245,1,8,11,3,2,9,9,1
22.25,6,5,0,41,12,0,2,4
22.255,1,1,7,14,6,0,1,1
22.26,1,5,12,14,11,13,5,2
22.265,0,3,9,4,8,3,9,20
22.27,2,1,12,3,9,9,1,6
22.275,2,0,16,11,4,1,5,14
22.28,10,4,3,21,2,0,2,12
22.285,13,6,20,7,12,12,6,8
22.29,1,10,35,35,5,1,1,3
22.295,3,2,21,8,6,4,4,8
22.3,4,5,3,7,4,1,0,9
22.305,6,1,6,0,1,1,1,3
22.31,2,5,2,1,6,0,0,0
22.315,2,8,12,12,2,3,2,6
22.32,1,0,1,17,8,1,2,2
22.325,1,6,0,0,0,1,1,6
22.33,2,0,10,4,5,4,2,7
22.335,2,8,9,13,16,9,5,0
22.34,10,2,0,8,9,5,2,5
22.345,2,4,12,4,14,6,2,2
22.35,3,7,5,8,1,2,3,2
22.355,4,0,9,7,5,4,2,6
22.36,2,6,5,2,2,1,1,2
22.365,2,2,3,2,5,4,1,4
22.37,8,7,1,11,1,3,4,5
22.375,4,5,6,5,4,2,4,3
22.38,1,8,4,1,5,1,2,2
22.385,1,2,6,7,2,3,4,10
22.39,1,3,8,7,3,3,4,7
22.395,9,1,5,1,1,4,6,1
22.4,2,2,1,3,1,0,4,0
22.405,3,2,2,12,1,2,0,2
22.41,1,2,3,1,2,2,3,3
22.415,2,4,4,2,2,3,2,1
22.42,4,2,18,8,7,1,0,5
22.425,1,2,34,2,8,5,5,1
22.43,1,2,6,1,1,2,1,2
22.435,4,1,9,2,1,5,5,3
22.44,2,2,12,4,1,0,1,0
22.445,1,2,7,1,5,4,2,0
22.45,2,3,8,3,0,0,2,1
22.455,2,4,8,1,3,1,0,2
22.46,3,1,2,10,9,6,6,5
22.465,2,1,6,3,5,3,1,0
22.47,2,10,5,5,2,0,2,1
22.475,1,1,4,7,3,0,2,1
22.48,1,6,3,6,2,1,1,4
22.485,3,1,4,1,3,1,5,3
22.49,5,2,9,12,3,5,0,1
22.495,3,1,3,3,6,4,1,2
22.5,2,1,0,1,7,3,3,0
22.505,2,2,7,4,3,4,2,0
22.51,2,10,7,2,1,0,0,2
22.515,0,2,2,3,1,5,2,1
22.52,1,1,9,2,1,3,2,1
22.525,3,2,3,4,1,3,1,0
22.53,0,0,4,1,2,1,1,1
22.535,2,3,1,1,0,1,1,2
22.54,1,2,1,5,8,5,0,2
22.545,0,2,8,6,0,1,1,2
22.55,1,3,4,0,1,3,2,2
22.555,4,3,2,5,5,3,4,5
22.56,3,2,4,3,2,3,3,4
22.565,5,4,42,3,1,1,3,7
22.57,2,5,30,4,2,0,1,0
22.575,1,5,11,0,7,1,3,1
22.58,1,4,5,5,1,1,1,0
22.585,0,2,13,4,2,0,2,1
22.59,2,6,17,5,3,4,2,1
22.595,1,2,4,4,5,2,1,1
22.6,1,1,3,3,2,2,2,3
22.605,4,7,1,9,5,6,5,4
22.61,1,3,7,1,4,2,1,1
22.615,0,3,10,0,2,1,1,2
22.62,4,2,4,0,5,2,1,2
22.625,6,1,9,13,5,4,6,9
22.63,1,0,6,4,1,0,2,0
22.635,3,1,6,1,1,1,0,1
22.64,2,1,1,1,1,3,3,1
22.645,0,5,11,5,8,3,2,2
22.65,3,7,1,3,3,2,1,1
22.655,3,3,6,2,8,6,4,2
22.66,1,9,0,1,0,2,2,3
22.665,1,2,3,2,4,4,4,0
22.67,2,1,6,1,1,2,2,2
22.675,1,1,0,5,3,2,1,0
22.68,1,4,7,14,9,5,2,2
22.685,0,0,4,2,4,1,2,0
22.69,1,0,2,5,4,2,1,2
22.695,0,2,2,3,2,2,0,0
22.7,2,2,12,3,2,3,3,2
22.705,3,4,3,5,7,3,1,1
22.71,2,5,3,3,6,4,1,2
22.715,2,5,6,2,2,1,1,2
22.72,2,8,10,1,0,1,1,2
22.725,0,4,1,2,2,3,1,1
22.73,4,2,1,4,1,0,2,3
22.735,2,5,2,2,3,2,1,1
22.74,2,1,8,6,6,2,2,2
22.745,1,2,8,5,3,4,2,3
22.75,0,1,3,1,1,1,0,1
22.755,5,7,4,2,3,3,0,4
22.76,0,2,6,8,4,1,4,2
22.765,1,6,17,26,4,0,2,3
22.77,1,0,5,4,2,1,0,3
22.775,2,2,3,2,2,0,2,0
22.78,2,0,0,5,0,3,1,2
22.785,0,0,5,3,4,3,0,2
22.79,1,0,1,7,1,2,3,4
22.795,2,4,3,4,1,3,2,1
22.8,0,0,1,2,4,1,1,0
22.805,1,1,3,4,6,2,2,0
22.81,6,1,0,3,2,1,2,1
22.815,3,0,3,2,1,1,3,0
22.82,1,1,0,3,1,2,1,1
22.825,1,0,2,3,3,3,2,3
22.83,1,3,5,2,3,1,1,1
22.835,2,2,2,4,1,1,3,1
22.84,2,0,0,1,5,2,2,4
22.845,0,1,0,4,1,0,1,1
22.85,0,1,3,2,7,0,2,2
22.855,0,1,0,6,1,0,2,0
22.86,2,5,6,26,4,0,1,2
22.865,3,1,3,2,1,3,0,1
22.87,0,1,0,1,2,3,2,3
22.875,1,0,2,1,1,2,0,0
22.88,1,1,0,7,1,3,3,0
22.885,2,1,1,3,2,2,0,2
22.89,4,3,5,4,2,1,1,2
22.895,3,4,5,5,1,0,0,2
22.9,1,3,3,1,2,2,0,1
22.905,2,5,9,7,0,0,1,3
22.91,2,1,0,2,0,2,1,2
22.915,2,1,3,4,5,3,1,0
22.92,3,1,3,6,4,2,0,2
22.925,2,1,0,0,1,1,1,0
22.93,1,8,20,6,3,2,1,0
22.935,1,5,6,4,2,3,2,0
22.94,0,1,1,2,3,4,3,2
22.945,2,0,5,5,0,1,1,1
22.95,1,1,1,7,4,1,1,1
22.955,2,1,1,2,1,1,3,2
22.96,0,0,1,4,3,1,1,1
22.965,0,3,4,3,2,0,2,2
22.97,1,4,2,1,2,2,1,0
22.975,1,0,3,5,0,2,1,2
22.98,1,2,1,4,5,2,1,0
22.985,1,1,1,6,4,4,1,2
22.99,1,0,10,7,1,1,1,1
22.995,1,4,15,17,7,0,1,1
23,1,2,1,1,2,2,0,1
23.005,3,0,2,6,1,0,2,2
23.01,0,3,0,5,2,2,1,1
23.015,2,0,3,4,1,3,1,0
23.02,2,2,4,17,5,1,3,2
23.025,1,3,4,5,2,1,1,1
23.03,0,0,8,6,1,4,0,1
23.035,0,4,5,5,3,1,1,1
23.04,1,2,2,20,3,0,1,1
23.045,4,6,10,0,10,4,5,4
23.05,1,1,2,7,1,1,0,3
23.055,1,3,2,3,5,4,0,2
23.06,0,1,5,24,10,1,2,1
23.065,2,1,3,14,2,1,1,0
23.07,2,7,18,30,5,0,2,3
23.075,0,1,3,12,0,2,3,0
23.08,2,3,5,1,5,2,2,4
23.085,0,0,6,6,6,2,0,0
23.09,2,1,1,2,4,1,1,0
23.095,0,1,1,7,1,0,2,1
23.1,1,2,4,4,2,2,4,1
23.105,1,1,2,3,3,3,1,1
23.11,8,4,10,6,12,5,3,7
23.115,8,1,3,9,5,1,3,6
23.12,3,3,2,32,0,1,1,1
23.125,0,0,1,20,3,1,1,0
23.13,1,1,1,6,9,4,3,1
23.135,4,5,17,16,9,3,1,2
23.14,3,7,19,55,12,5,6,4
23.145,2,5,11,0,7,3,5,2
23.15,1,2,2,17,6,1,0,0
23.155,2,1,2,28,0,0,3,0
23.16,3,2,9,7,2,0,1,3
23.165,1,2,5,6,2,3,1,1
23.17,5,2,2,7,1,2,2,4
23.175,6,8,15,48,22,6,4,3
23.18,2,5,3,57,0,3,5,5
23.185,3,2,5,32,2,2,1,1
23.19,3,8,13,23,12,8,5,4
23.195,7,11,31,64,30,11,5,2
23.2,10,17,45,71,40,16,11,10
23.205,0,3,5,19,1,0,2,0
23.21,2,5,9,53,6,0,2,2
23.215,0,3,11,70,11,0,2,0
23.22,3,4,16,25,6,1,0,2
23.225,4,5,1,95,1,2,3,4
23.23,2,4,6,24,9,2,1,2
23.235,2,2,9,89,6,4,4,3
23.24,0,1,2,25,4,3,1,3
23.245,8,13,29,4,17,17,13,6
23.25,5,9,20,11,25,11,7,0
23.255,2,4,7,4,29,16,15,11
23.26,4,0,4,65,43,18,7,4
23.265,2,1,2,107,13,5,5,10
23.27,8,12,27,40,27,12,6,2
23.275,1,1,6,67,7,0,4,0
23.28,0,0,14,24,12,2,1,1
23.285,1,6,36,102,15,3,4,6
23.29,1,1,17,30,15,3,1,1
23.295,4,11,45,101,41,8,7,5
23.3,15,23,63,128,90,24,22,17
23.305,20,26,57,87,44,20,15,14
23.31,15,15,41,36,17,10,3,6
23.315,12,20,27,92,11,10,9,8
23.32,12,18,37,35,56,17,13,10
23.325,9,12,24,93,29,10,9,10
23.33,7,6,15,37,3,4,3,5
23.335,2,6,17,45,14,4,4,5
23.34,14,18,12,75,19,13,10,10
23.345,0,2,22,128,5,2,0,0
23.35,6,14,29,99,35,11,10,6
23.355,5,5,14,9,13,7,6,8
23.36,1,1,14,35,9,7,0,2
23.365,4,2,2,49,19,5,0,4
23.37,4,5,14,127,0,10,8,5
23.375,8,8,18,123,21,1,7,7
23.38,8,10,4,50,10,5,6,7
23.385,1,2,8,63,6,7,2,2
23.39,1,0,4,15,6,4,2,0
23.395,1,1,8,37,0,1,2,1
23.4,4,7,25,27,4,2,2,0
23.405,4,7,15,52,18,6,5,3
23.41,13,21,34,19,33,13,10,11
23.415,12,16,41,48,45,11,11,10
23.42,1,3,6,13,20,5,2,0
23.425,6,9,8,78,4,2,5,3
23.43,15,24,60,10,32,17,11,9
23.435,5,5,50,113,17,9,6,3
23.44,4,6,15,34,31,10,6,5
23.445,0,0,2,89,6,1,0,0
23.45,25,26,62,27,41,21,16,16
23.455,24,18,6,5,65,25,16,13
23.46,21,34,67,58,59,23,16,15
23.465,19,32,40,113,30,25,15,16
23.47,2,5,10,128,2,7,2,1
23.475,1,3,4,11,2,1,2,2
23.48,1,7,59,66,35,6,1,1
23.485,8,9,42,125,18,18,12,7
23.49,5,13,47,120,40,3,7,8
23.495,14,26,46,67,33,19,14,13
23.5,10,11,1,74,26,5,7,8
23.505,9,12,11,54,40,13,6,7
23.51,2,0,18,114,28,2,2,0
23.515,3,3,3,31,20,9,6,3
23.52,2,2,22,47,8,6,2,3
23.525,1,4,17,48,6,1,1,1
23.53,16,20,55,119,44,20,14,9
23.535,14,7,47,71,39,21,13,10
23.54,1,15,17,22,20,8,2,1
23.545,3,7,8,78,4,3,0,1
23.55,16,6,3,72,26,18,12,11
23.555,13,9,11,47,26,19,10,8
23.56,16,14,53,50,24,7,5,9
23.565,30,21,33,117,20,11,10,15
23.57,8,19,37,54,2,3,7,9
23.575,4,4,1,46,2,1,4,3
23.58,3,9,19,6,10,7,3,2
23.585,12,18,21,108,64,41,21,10
23.59,7,4,28,54,40,1,6,4
23.595,5,11,18,69,4,1,7,7
23.6,8,13,19,62,41,19,13,11
23.605,11,13,74,53,31,15,6,5
23.61,33,61,128,59,58,39,26,23
23.615,15,28,106,36,5,8,6,8
23.62,3,5,30,12,9,2,3,1
23.625,9,17,51,63,0,2,8,14
23.63,5,10,19,48,42,8,5,1
23.635,32,56,96,72,118,54,39,28
23.64,15,20,44,103,35,26,17,13
23.645,23,42,88,36,73,29,21,21
23.65,4,3,4,44,15,1,0,1
23.655,4,7,2,9,22,8,5,2
23.66,8,14,41,89,3,2,2,4
23.665,15,30,28,79,18,6,7,7
23.67,1,2,2,66,18,0,8,8
23.675,23,45,83,39,18,13,17,20
23.68,26,45,4,30,62,39,25,20
23.685,14,32,71,63,68,18,14,10
23.69,3,9,56,128,8,7,2,3
23.695,5,18,37,95,7,8,4,5
23.7,6,2,44,56,8,7,1,1
23.705,1,5,40,56,14,9,8,5
23.71,0,2,28,52,1,1,0,2
23.715,12,13,3,22,45,16,9,9
23.72,2,4,21,64,6,17,1,4
23.725,12,29,34,41,2,1,3,8
23.73,22,42,60,64,51,14,10,12
23.735,5,26,71,110,9,1,3,3
23.74,1,20,21,121,37,0,6,4
23.745,7,5,2,28,12,18,5,0
23.75,3,10,46,95,18,4,7,8
23.755,6,10,1,33,78,29,19,11
23.76,21,50,23,21,41,11,3,5
23.765,3,8,31,24,23,9,8,7
23.77,5,7,4,22,9,11,6,3
23.775,23,39,28,51,22,11,14,15
23.78,32,42,55,105,22,18,11,15
23.785,5,17,5,1,21,10,13,8
23.79,14,27,50,97,40,23,21,18
23.795,7,18,20,33,1,7,2,2
23.8,22,45,70,15,24,20,16,14
23.805,11,18,44,77,31,14,10,11
23.81,16,21,64,50,80,30,13,8
23.815,35,69,111,102,86,34,32,28
23.82,38,58,128,111,124,59,39,30
23.825,9,11,51,59,32,1,4,2
23.83,26,39,45,19,7,5,8,15
23.835,1,10,3,40,20,11,5,3
23.84,10,6,0,59,30,19,10,9
23.845,9,22,92,128,64,24,9,6
23.85,3,3,28,67,25,2,3,3
23.855,11,17,9,13,11,12,8,6
23.86,2,25,46,5,1,2,2,2
23.865,8,6,5,55,7,1,7,6
23.87,42,85,127,33,70,36,32,32
23.875,16,33,81,108,56,20,10,9
23.88,8,17,14,95,36,4,4,1
23.885,7,13,60,128,2,2,3,4
23.89,24,45,104,19,77,21,18,20
23.895,2,5,45,54,18,4,5,6
23.9,4,5,3,86,23,1,5,4
23.905,6,5,91,21,19,14,6,3
23.91,3,2,4,7,36,13,6,1
23.915,12,28,29,43,21,7,10,9
23.92,14,11,52,26,8,7,13,15
23.925,1,5,3,105,32,1,2,2
23.93,14,43,39,31,34,27,19,16
23.935,19,17,9,116,60,27,15,11
23.94,10,16,6,74,67,15,12,7
23.945,18,21,55,112,66,33,25,19
23.95,33,35,48,127,68,37,35,31
23.955,7,18,80,27,3,6,0,3
23.96,10,3,28,62,64,3,2,5
23.965,20,28,10,46,37,10,8,9
23.97,24,62,39,59,99,31,22,19
23.975,22,33,85,83,88,23,12,15
23.98,9,2,67,86,10,1,3,0
23.985,15,59,86,12,59,17,12,16
23.99,1,1,31,4,27,6,3,5
23.995,8,13,64,19,7,2,2,3
24,11,24,12,75,50,23,14,11
24.005,9,9,7,26,6,1,4,9
24.01,22,23,64,2,10,6,15,17
24.015,8,14,31,4,6,5,5,2
24.02,8,25,13,58,26,6,7,6
24.025,3,2,20,31,3,14,7,4
24.03,6,13,19,4,16,10,8,7
24.035,5,17,10,51,6,4,9,5
24.04,1,2,10,8,6,3,0,0
24.045,7,11,11,52,10,3,6,5
24.05,20,22,3,88,42,38,31,24
24.055,3,0,44,128,25,4,3,2
24.06,6,2,43,19,10,14,18,13
24.065,19,39,79,47,50,31,20,18
24.07,5,20,2,17,36,12,10,9
24.075,36,42,87,49,52,29,22,24
24.08,36,30,36,92,54,30,23,26
24.085,12,14,34,26,16,5,3,5
24.09,3,9,22,39,33,18,22,14
24.095,1,2,6,31,6,4,6,10
24.1,11,4,16,76,0,7,6,10
24.105,13,0,30,31,39,19,17,13
24.11,11,16,11,62,2,16,6,6
24.115,10,19,30,64,28,18,7,5
24.12,12,23,63,70,12,9,7,7
24.125,14,15,66,22,5,9,6,8
24.13,10,23,16,16,4,7,4,1
24.135,1,10,20,55,2,1,1,2
24.14,0,3,9,50,35,10,5,3
24.145,1,3,13,92,2,5,3,2
24.15,4,26,5,35,33,15,8,7
24.155,1,1,7,20,3,2,2,0
24.16,10,10,24,43,30,10,5,3
24.165,5,10,1,73,10,5,3,1
24.17,3,1,20,23,7,8,6,4
24.175,1,0,14,42,2,7,5,5
24.18,1,8,18,1,3,1,1,2
24.185,1,24,8,9,3,3,1,1
24.19,1,1,7,53,3,2,1,0
24.195,4,2,2,2,24,5,5,6
24.2,4,21,35,9,18,3,4,2
24.205,1,9,21,2,3,0,1,2
24.21,3,6,13,32,14,8,8,5
24.215,2,3,33,41,6,1,3,6
24.22,1,6,44,30,14,2,4,3
24.225,5,18,20,7,6,8,3,4
24.23,10,16,40,77,25,17,13,12
24.235,4,3,32,17,6,5,4,5
24.24,2,2,16,25,11,8,6,4
24.245,2,11,10,18,5,5,2,2
24.25,4,24,3,14,11,5,3,3
24.255,2,3,6,11,4,4,3,0
24.26,4,6,1,1,9,1,5,5
24.265,3,3,3,3,6,2,3,1
24.27,3,2,10,8,1,9,6,4
24.275,3,5,14,22,2,4,0,2
24.28,7,3,20,11,12,5,5,5
24.285,2,5,15,12,11,9,2,4
24.29,4,10,10,6,15,6,8,4
24.295,1,5,6,31,2,6,3,3
24.3,1,5,2,31,4,9,6,3
24.305,5,8,17,11,6,22,4,5
24.31,1,5,3,24,0,23,9,2
24.315,3,3,20,16,5,15,10,6
24.32,4,3,17,28,2,9,7,5
24.325,4,3,12,1,4,5,1,4
24.33,1,23,27,1,1,28,6,2
24.335,1,24,33,12,1,15,8,8
24.34,9,1,4,19,2,8,2,2
24.345,4,1,5,7,3,11,3,6
24.35,2,5,2,11,3,8,7,0
24.355,4,5,16,13,5,10,6,3
24.36,2,0,0,3,2,4,4,1
24.365,1,6,10,7,6,2,1,1
24.37,3,9,11,5,5,1,1,2
24.375,1,4,4,9,1,8,5,0
24.38,1,4,1,17,0,2,1,0
24.385,3,12,4,11,2,5,1,3
24.39,1,7,9,8,3,2,1,1
24.395,1,3,7,11,3,3,2,0
24.4,0,0,3,4,6,5,0,2
24.405,2,4,2,3,5,2,3,3
24.41,1,4,0,5,11,6,2,0
24.415,4,1,6,17,0,0,1,1
24.42,2,2,7,14,1,3,2,5
24.425,0,1,0,8,4,1,0,4
24.43,2,4,3,4,3,5,3,0
24.435,3,16,19,2,4,1,1,1
24.44,2,1,2,3,3,2,2,0
24.445,3,25,2,1,1,2,0,1
24.45,1,2,3,3,3,12,4,1
24.455,3,4,10,3,1,3,2,2
24.46,0,5,5,13,5,2,0,3
24.465,3,4,9,2,3,4,3,10
24.47,1,3,5,3,2,7,2,0
24.475,1,3,8,3,1,5,3,2
24.48,1,1,2,2,0,1,0,1
24.485,1,4,7,5,0,1,3,1
24.49,1,5,2,0,7,5,3,3
24.495,2,4,2,1,4,1,0,2
24.5,1,3,5,3,0,1,0,2
24.505,1,1,5,0,3,2,0,2
24.51,5,4,0,0,0,2,0,1
24.515,0,5,2,2,3,3,3,2
24.52,4,14,5,4,8,6,7,2
24.525,3,1,0,0,9,7,5,2
24.53,2,0,5,1,3,8,4,0
24.535,1,2,4,2,6,1,2,1
24.54,1,1,6,8,4,8,4,2
24.545,1,0,2,0,2,1,1,0
24.55,1,0,1,2,1,9,2,1
24.555,0,0,1,2,1,4,0,2
24.56,1,3,5,13,8,2,3,1
24.565,1,15,10,24,13,6,5,1
24.57,0,2,0,2,6,4,0,1
24.575,4,7,12,4,1,0,5,3
24.58,0,1,8,8,1,6,1,1
24.585,0,6,1,5,4,0,1,1
24.59,0,0,1,7,2,4,4,3
24.595,1,2,3,8,7,7,7,1
24.6,0,1,0,11,0,13,4,1
24.605,2,4,23,13,1,2,5,3
24.61,11,14,6,28,1,5,3,15
24.615,10,1,22,18,0,1,2,11
24.62,4,3,20,29,1,2,2,3
24.625,1,2,9,7,2,4,0,2
24.63,3,0,9,3,0,1,10,6
24.635,2,4,2,11,0,3,14,25
24.64,3,24,21,17,3,5,1,34
24.645,3,11,6,11,3,6,2,1
24.65,3,0,4,3,1,4,2,6
24.655,1,1,10,11,3,3,6,13
24.66,2,8,10,13,4,3,4,6
24.665,2,3,3,11,0,0,1,2
24.67,4,6,3,21,6,5,3,6
24.675,3,4,14,6,1,4,3,10
24.68,2,6,2,7,1,3,2,4
24.685,1,7,2,5,1,1,2,3
24.69,0,6,12,4,4,1,4,2
24.695,1,5,3,23,1,0,1,8
24.7,1,1,3,6,1,2,2,2
24.705,1,1,7,6,2,7,4,6
24.71,4,2,6,11,1,17,11,6
24.715,1,1,2,16,2,5,3,7
24.72,1,1,7,7,2,3,4,6
24.725,1,7,7,9,3,0,1,1
24.73,0,2,1,2,3,2,1,4
24.735,2,7,22,3,2,2,2,3
24.74,1,3,8,4,2,6,5,7
24.745,3,3,5,5,5,1,5,12
24.75,3,26,16,3,4,4,2,0
24.755,1,4,17,1,2,5,1,2
24.76,0,2,3,11,1,0,2,0
24.765,6,0,28,12,5,3,3,7
24.77,0,2,18,2,0,2,1,3
24.775,1,21,16,3,3,1,1,2
24.78,3,6,14,6,5,6,2,2
24.785,1,3,15,16,3,1,0,1
24.79,2,5,12,1,5,0,1,3
24.795,0,2,2,3,8,2,0,2
24.8,1,4,11,12,5,1,1,0
24.805,2,3,6,3,2,9,7,1
24.81,4,7,5,1,1,1,2,3
24.815,3,1,13,17,12,6,4,5
24.82,3,4,11,12,6,5,1,3
24.825,2,0,6,2,2,0,4,4
24.83,0,2,5,2,4,1,1,0
24.835,1,9,12,1,4,2,3,1
24.84,6,9,6,4,0,3,0,0
24.845,5,2,10,12,8,7,5,8
24.85,1,2,4,1,1,1,0,1
24.855,4,1,12,3,3,2,4,1
24.86,2,4,8,2,2,1,1,1
24.865,1,2,1,2,0,0,1,0
24.87,2,2,5,4,1,1,4,1
24.875,2,1,4,5,5,5,4,4
24.88,1,8,11,8,10,6,5,5
24.885,1,21,12,23,18,7,6,4
24.89,2,6,2,12,3,1,3,2
24.895,0,2,0,6,1,0,1,1
24.9,4,1,6,11,7,4,4,3
24.905,4,3,5,1,2,2,5,4
24.91,0,1,1,1,4,2,0,1
24.915,1,2,0,4,2,3,1,1
24.92,0,0,5,1,2,0,2,3
24.925,0,2,0,7,7,1,0,1
24.93,4,3,3,12,3,3,2,4
24.935,1,0,6,16,2,1,2,1
24.94,1,3,1,15,0,2,0,2
24.945,3,0,7,11,11,2,4,2
24.95,3,2,1,5,14,6,2,2
24.955,1,3,3,3,2,1,1,0
24.96,4,5,6,2,7,3,3,1
24.965,1,4,6,4,3,1,2,3
24.97,2,0,6,14,4,5,3,2
24.975,1,0,4,4,0,0,1,1
24.98,1,1,4,4,6,1,2,1
24.985,2,0,11,2,1,1,1,1
24.99,0,1,4,8,3,1,1,1
24.995,0,1,1,3,0,2,2,1
25,1,3,3,2,2,1,2,0
25.005,1,2,4,6,0,6,0,2
25.01,3,3,1,9,3,0,1,1
25.015,0,0,4,1,4,4,1,0
25.02,0,0,2,15,1,4,2,3
25.025,5,5,14,26,7,4,5,3
25.03,1,2,1,5,6,5,3,3
25.035,1,2,2,1,1,0,1,0
25.04,1,1,1,2,0,0,2,1
25.045,1,1,1,5,0,1,1,2
25.05,0,0,1,10,1,1,1,2
25.055,1,3,4,11,3,2,4,3
25.06,1,2,2,3,6,1,1,2
25.065,0,1,1,4,3,2,1,0
25.07,0,2,2,4,2,3,1,1
25.075,1,1,2,3,3,0,1,0
25.08,1,0,2,6,6,0,1,1
25.085,1,2,2,11,8,1,1,1
25.09,4,7,24,61,19,4,6,5
25.095,0,1,9,6,0,2,1,3
25.1,2,5,16,15,2,3,1,3
25.105,1,0,5,7,4,2,1,1
25.11,2,4,7,20,4,4,2,3
25.115,1,0,5,9,7,1,0,1
25.12,1,0,4,17,2,1,0,2
25.125,2,1,3,22,9,0,1,0
25.13,3,2,1,8,5,0,3,3
25.135,4,4,5,4,10,4,1,0
25.14,2,1,5,7,6,1,1,0
25.145,0,1,1,25,3,2,1,2
25.15,1,0,3,25,0,2,0,2
25.155,5,6,13,22,16,7,6,5
25.16,17,23,54,64,39,18,15,18
25.165,1,4,5,17,11,5,2,1
25.17,2,2,2,23,3,4,1,0
25.175,7,10,19,15,17,9,4,6
25.18,1,0,6,50,10,1,1,0
25.185,7,7,19,72,22,7,4,7
25.19,2,1,11,8,3,4,2,1
25.195,2,3,10,32,16,16,7,3
25.2,6,10,13,22,23,11,1,2
25.205,2,6,21,74,19,4,2,2
25.21,3,4,12,41,11,7,2,4
25.215,2,4,11,1,11,6,12,2
25.22,0,3,33,97,12,4,9,11
25.225,2,5,10,97,7,1,3,1
25.23,3,4,10,43,6,7,2,1
25.235,7,6,9,59,5,9,8,8
25.24,4,6,25,27,9,0,3,0
25.245,4,0,22,82,10,8,1,3
25.25,3,3,10,127,2,6,3,7
25.255,4,6,20,44,19,2,2,3
25.26,1,1,19,20,11,8,3,0
25.265,1,3,22,103,1,3,3,4
25.27,1,2,4,25,17,2,2,2
25.275,2,3,17,48,12,4,7,1
25.28,0,4,3,44,2,1,1,0
25.285,7,6,2,52,3,1,0,0
25.29,1,3,5,128,10,0,1,1
25.295,3,2,27,55,2,5,1,2
25.3,3,5,9,103,4,9,3,1
25.305,3,6,28,124,21,2,1,2
25.31,9,10,25,9,40,13,7,7
25.315,19,2,10,1,14,10,8,11
25.32,23,10,9,67,18,8,7,9
25.325,6,2,0,63,4,4,4,7
25.33,8,8,14,48,7,11,7,7
25.335,4,7,29,59,13,1,3,4
25.34,9,4,29,72,12,5,0,4
25.345,3,9,34,73,45,13,6,1
25.35,4,0,7,18,0,2,1,4
25.355,6,8,3,45,17,7,5,3
25.36,4,10,30,76,21,4,5,2
25.365,4,11,53,27,7,4,5,2
25.37,0,4,16,41,1,1,1,2
25.375,2,4,17,21,5,2,2,1
25.38,2,1,8,36,1,0,1,1
25.385,1,1,14,90,8,1,0,2
25.39,0,1,1,36,2,2,0,0
25.395,4,13,23,47,30,12,6,5
25.4,10,20,61,91,40,11,9,9
25.405,1,1,37,127,30,4,2,1
25.41,3,4,16,54,13,4,4,2
25.415,2,1,12,17,9,2,3,1
25.42,3,2,3,17,5,4,1,7
25.425,3,7,5,87,16,1,6,2
25.43,1,8,24,18,15,5,1,0
25.435,7,12,11,5,43,15,10,9
25.44,1,6,30,13,7,3,1,1
25.445,0,2,14,66,4,0,0,1
25.45,8,12,32,59,13,7,4,3
25.455,10,9,19,37,13,6,2,8
25.46,8,7,28,70,2,1,1,2
25.465,5,8,55,123,60,11,8,5
25.47,11,9,51,110,42,10,8,6
25.475,0,5,47,48,22,5,0,3
25.48,31,25,23,32,41,21,17,19
25.485,43,10,11,81,5,9,8,12
25.49,20,31,52,61,31,24,19,18
25.495,20,13,10,113,23,15,10,8
25.5,27,10,35,106,67,5,2,1
25.505,11,2,23,63,8,6,9,7
25.51,20,39,75,71,87,23,8,1
25.515,16,29,36,75,60,27,21,14
25.52,12,5,31,15,38,8,8,12
25.525,1,7,20,67,3,8,5,1
25.53,11,8,11,67,64,17,5,11
25.535,21,12,27,119,31,17,16,12
25.54,47,34,95,76,51,8,6,5
25.545,46,11,48,127,18,9,6,30
25.55,27,25,39,57,12,12,12,19
25.555,3,18,50,52,12,6,4,12
25.56,33,37,94,60,45,23,15,25
25.565,4,13,19,52,13,4,2,3
25.57,42,22,1,68,8,9,16,49
25.575,41,22,65,19,8,4,15,56
25.58,20,11,25,78,33,14,19,13
25.585,12,26,48,60,74,20,9,8
25.59,43,50,98,22,52,28,21,39
25.595,69,42,85,44,73,31,24,33
25.6,10,2,10,118,4,12,6,2
25.605,30,16,62,128,55,11,10,23
25.61,19,17,88,7,77,26,12,13
25.615,3,2,15,105,36,17,8,7
25.62,5,16,74,95,81,29,19,6
25.625,11,15,33,63,80,42,23,17
25.63,38,27,105,82,39,1,10,12
25.635,19,12,62,116,16,1,1,1
25.64,23,5,24,45,5,3,2,3
25.645,30,15,41,12,7,13,15,42
25.65,0,3,28,13,22,3,1,45
25.655,10,10,53,34,8,2,4,4
25.66,16,14,11,51,4,11,20,20
25.665,8,23,62,66,44,13,2,6
25.67,4,16,47,1,32,14,3,13
25.675,39,2,62,0,32,7,6,18
25.68,32,16,47,128,49,23,16,3
25.685,17,11,9,44,6,5,4,6
25.69,55,57,61,70,51,37,27,20
25.695,17,1,57,2,16,11,13,6
25.7,5,12,18,48,37,18,12,13
25.705,2,14,7,116,6,24,11,18
25.71,31,21,53,85,31,16,12,22
25.715,25,13,52,7,51,37,3,9
25.72,14,25,89,81,7,90,20,9
25.725,3,2,12,68,7,19,0,4
25.73,38,9,13,16,21,26,4,12
25.735,8,19,34,93,34,37,14,8
25.74,15,16,76,127,27,33,9,2
25.745,33,20,100,128,95,34,14,20
25.75,12,25,84,67,51,14,14,15
25.755,7,8,7,9,12,29,18,7
25.76,15,26,48,51,66,51,27,16
25.765,4,9,71,96,35,0,2,1
25.77,21,17,18,76,1,5,4,6
25.775,37,16,1,108,7,9,1,9
25.78,2,3,8,45,13,11,12,11
25.785,22,31,64,9,46,3,7,14
25.79,1,25,32,77,13,8,3,2
25.795,10,18,38,87,58,1,11,15
25.8,21,9,13,49,5,20,5,8
25.805,18,1,14,83,13,2,3,8
25.81,2,4,13,42,4,9,3,1
25.815,3,3,20,29,2,11,0,5
25.82,10,23,20,33,29,26,8,5
25.825,4,8,0,15,24,8,2,3
25.83,14,25,17,89,70,41,24,12
25.835,5,5,56,53,42,23,12,7
25.84,27,14,13,90,19,4,6,7
25.845,8,9,13,52,14,11,5,8
25.85,8,11,4,18,31,0,3,8
25.855,5,7,32,10,37,1,1,4
25.86,43,44,79,71,76,51,35,33
25.865,1,3,29,120,9,11,8,4
25.87,49,31,78,127,98,32,19,20
25.875,4,17,27,97,15,4,4,2
25.88,55,46,51,70,31,33,24,36
25.885,10,8,6,77,37,1,2,9
25.89,16,24,76,82,58,16,10,11
25.895,4,15,33,32,57,26,15,11
25.9,21,26,12,89,35,31,13,1
25.905,7,11,53,67,12,15,9,1
25.91,11,3,22,17,12,3,3,5
25.915,20,45,62,22,57,30,23,13
25.92,4,9,36,56,11,9,4,4
25.925,6,11,25,72,45,9,5,3
25.93,7,1,19,31,28,12,4,4
25.935,16,1,27,127,1,10,8,7
25.94,34,29,4,81,25,27,16,13
25.945,8,40,88,26,76,36,23,16
25.95,8,5,43,64,39,12,1,2
25.955,27,6,37,20,26,6,4,7
25.96,54,27,61,79,7,9,11,21
25.965,5,25,75,112,28,24,19,21
25.97,47,58,34,45,65,36,26,16
25.975,42,64,82,127,37,47,34,28
25.98,20,13,20,119,35,4,2,11
25.985,0,25,111,64,106,38,28,17
25.99,11,59,128,23,95,45,31,27
25.995,14,41,96,12,50,24,13,8
26,32,60,124,93,120,58,34,28
26.005,33,45,51,127,38,36,20,13
26.01,23,20,66,86,63,12,10,11
26.015,5,0,9,42,11,14,10,8
26.02,22,10,14,127,19,3,2,4
26.025,12,1,23,4,9,1,1,3
26.03,6,15,34,2,39,15,12,8
26.035,13,0,14,62,5,19,8,11
26.04,16,1,0,128,16,0,15,5
26.045,21,31,45,6,41,33,18,8
26.05,27,13,1,17,8,17,2,4
26.055,108,74,110,50,74,8,22,37
26.06,19,75,86,10,76,21,20,27
26.065,48,39,1,58,12,6,18,44
26.07,55,3,2,123,31,7,4,10
26.075,4,5,8,40,14,3,13,23
26.08,42,65,106,100,70,27,20,20
26.085,21,9,36,44,3,3,6,6
26.09,24,25,69,74,35,20,12,6
26.095,3,15,4,5,2,6,1,2
26.1,22,46,75,122,81,21,20,17
26.105,12,10,50,4,15,8,3,5
26.11,46,20,8,71,13,3,7,16
26.115,18,17,23,11,10,8,5,7
26.12,6,5,20,20,4,4,1,6
26.125,4,5,10,127,18,8,4,4
26.13,15,11,67,127,35,3,0,1
26.135,22,25,76,54,20,11,3,1
26.14,8,5,3,71,7,6,1,2
26.145,9,14,69,99,4,4,2,3
26.15,4,5,30,123,17,1,5,6
26.155,5,0,57,47,18,1,2,5
26.16,0,18,56,31,5,2,6,4
26.165,11,25,87,60,80,18,12,8
26.17,36,26,33,97,43,21,17,17
26.175,15,5,8,49,11,5,1,1
26.18,1,18,7,71,30,12,7,3
26.185,8,17,6,83,43,11,3,1
26.19,2,7,26,40,5,10,10,6
26.195,11,0,1,64,21,33,4,1
26.2,11,13,13,53,17,5,1,3
26.205,24,27,12,33,28,24,14,11
26.21,15,5,23,41,0,13,0,7
26.215,5,4,4,25,21,14,6,2
26.22,3,6,10,44,23,12,1,2
26.225,4,5,16,49,13,4,0,2
26.23,6,15,28,62,31,4,5,5
26.235,2,1,4,27,23,4,1,1
26.24,7,15,8,51,5,1,0,0
26.245,2,15,18,51,10,1,0,5
26.25,2,3,16,5,2,7,5,2
26.255,1,2,4,6,13,15,4,2
26.26,22,4,1,36,2,2,2,2
26.265,7,3,9,81,10,5,1,1
26.27,12,14,75,69,65,22,14,12
26.275,27,23,22,4,9,10,14,19
26.28,8,8,36,49,24,10,8,8
26.285,8,3,11,29,10,3,6,4
26.29,5,11,14,36,31,11,6,3
26.295,7,8,5,53,40,16,6,1
26.3,7,6,1,15,6,3,3,1
26.305,1,5,17,36,8,2,0,2
26.31,0,9,69,76,18,1,3,3
26.315,7,0,20,23,0,6,6,4
26.32,1,0,8,8,6,1,1,2
26.325,7,8,11,13,13,5,5,10
26.33,1,12,9,20,14,2,0,0
26.335,1,1,18,1,11,15,8,0
26.34,7,14,15,54,11,3,4,3
26.345,4,7,1,5,10,11,4,3
26.35,7,6,1,19,2,23,3,4
26.355,3,7,33,7,4,7,1,3
26.36,3,13,62,3,7,22,2,1
26.365,3,3,22,17,15,32,2,1
26.37,6,0,27,17,10,6,7,9
26.375,8,9,8,22,17,13,1,3
26.38,6,6,4,21,24,21,8,1
26.385,19,10,4,21,6,17,2,5
26.39,24,8,3,20,13,1,0,1
26.395,6,3,9,29,1,15,2,2
26.4,3,6,6,11,5,1,3,3
26.405,3,17,4,16,8,0,2,3
26.41,3,2,5,30,12,7,5,6
26.415,20,1,4,34,9,4,2,0
26.42,8,1,7,38,2,7,4,6
26.425,17,8,2,3,12,0,6,10
26.43,1,2,11,3,15,23,6,1
26.435,1,6,4,19,12,31,8,0
26.44,16,8,8,58,11,4,8,10
26.445,6,4,1,22,3,2,2,3
26.45,4,4,3,39,0,7,0,5
26.455,2,7,8,12,1,10,3,3
26.46,3,1,18,7,9,3,3,1
26.465,6,4,6,30,14,0,6,6
26.47,5,2,2,26,16,13,4,1
26.475,4,23,26,9,7,19,5,2
26.48,2,1,2,5,7,15,3,1
26.485,0,1,1,7,7,4,6,1
26.49,5,1,20,16,0,7,1,3
26.495,6,11,55,11,8,2,2,4
26.5,9,0,3,17,1,12,3,1
26.505,6,1,5,1,2,1,0,1
26.51,5,3,0,5,0,0,3,1
26.515,5,3,5,7,6,10,1,1
26.52,1,2,4,1,4,1,2,1
26.525,3,1,8,5,7,7,3,0
26.53,3,1,2,1,5,7,3,1
26.535,5,2,3,5,0,13,4,4
26.54,3,6,4,10,1,4,2,2
26.545,2,2,14,10,2,4,0,0
26.55,3,0,10,15,1,7,2,4
26.555,2,1,1,7,3,16,8,1
26.56,1,0,4,10,5,36,11,3
26.565,2,0,5,6,8,5,5,1
26.57,2,2,1,14,2,0,1,1
26.575,1,1,1,2,3,6,0,0
26.58,1,2,1,12,11,25,9,1
26.585,2,2,7,1,5,2,2,2
26.59,2,5,9,1,5,11,4,3
26.595,3,5,12,2,4,4,5,1
26.6,10,4,4,11,6,5,0,2
26.605,1,2,3,14,9,8,3,2
26.61,3,3,2,5,2,2,1,0
26.615,4,2,2,2,0,3,0,3
26.62,3,1,1,1,0,1,0,3
26.625,1,1,9,0,3,1,1,1
26.63,6,4,1,3,2,3,2,2
26.635,0,1,0,5,0,3,2,0
26.64,2,1,2,2,0,2,4,3
26.645,1,1,0,8,1,3,0,1
26.65,0,3,6,13,6,5,2,2
26.655,2,0,4,7,5,3,0,0
26.66,1,0,1,1,2,3,1,2
26.665,0,2,8,2,3,6,2,1
26.67,1,1,2,4,0,13,5,0
26.675,0,1,0,8,4,0,1,3
26.68,1,3,8,2,3,0,1,1
26.685,2,3,7,3,1,2,0,1
26.69,2,0,1,0,0,1,2,3
26.695,4,2,1,5,3,3,1,1
26.7,3,1,3,1,5,3,2,2
26.705,0,0,3,3,1,6,1,1
26.71,3,2,5,2,2,1,1,1
26.715,4,1,6,5,5,5,3,3
26.72,2,2,3,3,6,5,0,0
26.725,1,1,1,2,2,3,1,1
26.73,2,1,1,4,1,0,1,1
26.735,0,0,3,1,2,0,0,0
26.74,0,1,2,1,4,4,2,2
26.745,1,1,2,3,1,4,2,0
26.75,2,1,3,3,0,5,4,2
26.755,1,0,1,1,2,6,2,0
26.76,1,1,0,3,5,3,0,2
26.765,1,1,3,2,1,2,2,2
26.77,6,4,7,3,1,5,3,0
26.775,0,0,1,3,3,1,1,1
26.78,1,2,1,3,5,10,0,0
26.785,1,1,6,2,11,21,4,0
26.79,0,0,0,1,2,6,2,1
26.795,3,2,1,1,2,0,2,1
26.8,0,0,1,1,1,0,1,1
26.805,1,3,0,1,1,0,4,3
26.81,0,2,0,0,1,1,2,2
26.815,0,1,1,2,0,2,2,2
26.82,0,1,2,2,4,2,2,3
26.825,2,3,2,1,4,7,1,1
26.83,2,1,2,3,6,17,5,0
26.835,0,2,2,1,5,3,1,1
26.84,0,0,0,1,6,8,1,1
26.845,1,0,2,8,7,7,3,1
26.85,1,1,2,7,1,6,1,3
26.855,3,2,6,2,0,3,4,2
26.86,2,2,1,2,3,3,2,0
26.865,1,0,3,1,2,0,2,1
26.87,1,3,3,1,0,2,1,1
26.875,2,2,0,1,4,2,3,1
26.88,1,2,5,3,7,4,2,2
26.885,3,2,2,5,4,1,1,0
26.89,1,2,2,2,3,8,3,1
26.895,2,2,3,1,3,2,3,3
26.9,0,2,4,1,3,2,4,3
26.905,2,0,1,4,3,3,2,2
26.91,2,1,1,2,1,1,2,2
26.915,1,1,2,0,1,1,0,0
26.92,4,2,0,5,6,6,5,5
26.925,3,1,2,1,0,3,1,1
26.93,2,0,0,2,4,6,1,1
26.935,1,0,0,1,3,2,3,1
26.94,3,1,3,4,5,1,1,2
26.945,2,2,4,4,8,3,0,2
26.95,0,1,4,1,4,16,1,2
26.955,3,0,1,1,4,20,0,4
26.96,0,1,1,2,1,11,1,1
26.965,2,2,2,3,2,8,2,1
26.97,2,3,7,7,4,2,1,0
26.975,2,1,1,1,1,3,1,1
26.98,2,1,3,1,1,6,4,1
26.985,1,1,1,2,0,9,7,1
26.99,1,0,3,5,2,3,3,2
26.995,0,2,1,2,0,6,1,0
27,1,1,5,3,1,8,3,2
27.005,2,1,2,0,2,7,1,0
27.01,0,1,1,1,5,4,1,3
27.015,5,2,4,3,4,1,1,2
27.02,3,1,5,4,1,1,1,1
27.025,0,1,4,4,2,1,1,1
27.03,2,3,0,1,3,4,1,3
27.035,0,1,3,1,3,0,0,2
27.04,3,3,4,1,0,5,3,2
27.045,1,1,1,1,1,4,0,1
27.05,0,0,1,3,1,3,0,1
27.055,2,2,2,2,1,0,1,2
27.06,2,2,4,5,9,20,3,3
27.065,1,1,3,0,8,8,1,0
27.07,1,0,3,0,3,3,1,1
27.075,1,1,1,1,2,0,1,0
27.08,1,0,2,3,4,3,2,1
27.085,4,2,1,3,6,3,2,2
27.09,0,3,4,1,3,4,0,1
27.095,1,1,5,1,0,1,2,3
27.1,2,3,4,3,9,2,2,1
27.105,1,2,0,1,9,5,5,1
27.11,1,1,1,1,0,2,0,0
27.115,0,1,3,3,2,4,0,1
27.12,0,2,0,0,0,3,2,2
27.125,3,3,1,2,5,4,2,2
27.13,1,1,0,0,1,1,2,1
27.135,3,3,4,1,2,0,1,1
27.14,1,1,1,1,2,1,1,0
27.145,0,1,2,0,5,2,1,0
27.15,1,1,3,4,4,1,0,1
27.155,3,0,1,1,1,2,0,1
27.16,1,0,2,1,3,0,0,2
27.165,0,2,1,3,4,2,0,3
27.17,2,2,1,2,1,1,3,1
27.175,0,4,6,9,4,2,3,3
27.18,1,1,0,1,2,2,0,2
27.185,5,0,3,1,0,3,4,1
27.19,0,0,0,0,4,0,0,1
27.195,0,0,1,4,7,4,0,0
27.2,2,2,3,2,1,1,1,1
27.205,1,1,0,6,4,2,0,0
27.21,0,2,1,3,3,1,2,2
27.215,0,1,0,1,5,2,2,1
27.22,1,0,1,2,1,2,2,2
27.225,0,2,3,5,3,13,0,0
27.23,3,3,5,4,3,1,2,0
27.235,1,0,1,1,1,0,1,3
27.24,3,3,2,1,1,1,1,1
27.245,1,3,0,4,3,3,3,1
27.25,1,1,1,0,3,1,1,1
27.255,2,2,3,7,0,0,1,1
27.26,1,0,2,0,2,1,0,0
27.265,1,0,3,3,4,1,1,2
27.27,2,1,1,1,0,2,1,1
27.275,0,1,0,1,2,1,3,1
27.28,2,0,1,1,2,1,1,1
27.285,0,1,5,3,3,1,2,1
27.29,3,1,0,0,5,1,2,1
27.295,1,1,1,1,1,1,2,0
27.3,0,1,2,1,1,2,1,0
27.305,1,0,2,2,2,0,2,0
27.31,0,0,2,2,1,2,0,1
27.315,0,0,2,0,4,4,2,2
27.32,1,3,1,4,2,1,0,3
27.325,2,0,1,2,4,2,1,0
27.33,1,3,1,1,1,1,2,0
27.335,1,0,3,1,3,1,2,1
27.34,2,1,0,2,9,7,4,1
27.345,2,2,2,3,0,2,1,2
27.35,2,0,1,2,3,1,1,1
27.355,0,0,1,4,4,3,1,0
27.36,3,0,6,16,1,0,0,1
27.365,3,4,4,1,1,1,2,1
27.37,1,3,9,6,2,3,3,1
27.375,0,1,4,2,0,0,2,0
27.38,1,0,0,1,1,1,0,0
27.385,2,2,5,16,4,1,1,1
27.39,3,1,4,11,0,2,0,2
27.395,0,2,1,5,1,3,2,2
27.4,1,1,1,3,5,2,2,0
27.405,2,1,2,1,8,1,1,2
27.41,0,1,4,2,5,2,2,2
27.415,2,2,6,10,4,3,2,2
27.42,1,3,2,3,2,1,2,1
27.425,1,2,1,4,5,1,1,1
27.43,1,1,2,2,3,5,2,1
27.435,1,0,2,1,3,3,1,1
27.44,0,0,2,2,4,2,3,0
27.445,2,0,0,0,4,0,2,0
27.45,1,1,2,5,6,1,3,2
27.455,0,0,4,2,5,3,2,1
27.46,0,1,1,2,2,3,1,1
27.465,0,2,1,4,1,1,0,0
27.47,2,2,1,0,5,1,2,2
27.475,2,2,4,11,6,1,1,1
27.48,2,1,3,1,0,2,3,2
27.485,0,3,7,22,3,1,0,1
27.49,3,2,11,30,6,3,3,1
27.495,3,4,8,21,1,2,1,2
27.5,1,1,5,16,6,1,0,0
27.505,1,1,4,5,8,2,1,1
27.51,1,3,10,22,7,3,2,3
27.515,1,2,2,12,4,4,3,1
27.52,1,2,3,8,1,1,0,1
27.525,1,3,0,10,1,1,1,2
27.53,2,4,5,5,8,4,3,3
27.535,2,5,17,25,4,1,2,1
27.54,1,1,1,2,1,0,0,1
27.545,0,1,5,5,2,6,4,2
27.55,1,2,5,14,8,3,3,1
27.555,1,0,0,1,6,1,0,1
27.56,5,6,6,6,0,1,2,1
27.565,3,0,2,12,0,1,0,3
27.57,2,5,5,0,3,7,5,4
27.575,3,13,22,15,0,3,1,2
27.58,5,4,3,8,7,3,4,0
27.585,17,14,68,24,13,12,17,18
27.59,3,17,23,23,11,3,4,1
27.595,3,1,21,3,13,4,5,4
27.6,2,4,16,18,15,7,2,0
27.605,8,25,30,54,12,4,3,4
27.61,1,15,4,60,1,4,4,5
27.615,4,16,28,40,2,3,4,5
27.62,1,3,10,17,6,3,2,3
27.625,7,23,9,14,4,4,7,10
27.63,1,10,6,22,3,1,1,1
27.635,3,2,14,9,1,1,3,4
27.64,1,1,7,6,1,1,0,0
27.645,3,4,20,13,3,3,3,3
27.65,3,1,9,11,3,3,3,2
27.655,2,2,2,9,1,3,2,3
27.66,12,9,75,15,7,6,8,9
27.665,3,3,36,13,3,0,0,2
27.67,3,1,22,15,10,3,4,4
27.675,0,5,2,10,7,1,1,0
27.68,5,7,23,13,7,3,1,6
27.685,1,1,13,11,2,2,0,1
27.69,2,3,8,1,7,5,4,3
27.695,2,4,48,9,3,3,1,2
27.7,2,1,6,53,1,4,3,0
27.705,1,5,20,69,11,5,7,1
27.71,3,4,1,21,7,0,0,7
27.715,6,6,34,1,10,7,6,4
27.72,0,8,3,18,8,2,0,1
27.725,3,10,24,14,19,6,3,5
27.73,1,1,12,13,5,1,0,2
27.735,2,4,24,28,3,0,1,0
27.74,3,5,14,10,1,3,2,4
27.745,0,2,7,36,6,5,0,1
27.75,0,3,1,49,6,4,2,0
27.755,0,6,12,43,3,0,0,1
27.76,3,7,6,9,14,7,6,3
27.765,11,15,34,32,29,14,13,11
27.77,5,3,14,41,1,4,3,2
27.775,9,15,32,25,19,8,6,6
27.78,9,23,55,54,32,13,8,6
27.785,2,5,8,52,14,7,4,2
27.79,7,6,49,53,15,7,3,4
27.795,12,22,27,20,30,16,11,8
27.8,0,4,5,71,5,5,1,0
27.805,5,12,57,113,44,9,3,4
27.81,5,6,57,73,36,9,4,6
27.815,12,1,55,127,11,10,11,12
27.82,13,14,30,19,4,8,9,11
27.825,11,21,21,77,31,13,8,8
27.83,1,6,29,7,16,13,10,3
27.835,11,11,27,103,11,1,0,2
27.84,16,9,16,60,12,1,1,4
27.845,6,11,52,30,21,10,8,1
27.85,1,5,1,87,12,1,0,0
27.855,10,9,16,64,4,2,2,24
27.86,3,12,19,35,45,22,17,62
27.865,1,4,27,21,24,6,5,3
27.87,1,10,14,7,8,1,1,4
27.875,1,4,14,114,9,3,4,6
27.88,5,10,19,7,8,3,4,20
27.885,13,4,15,92,15,12,10,12
27.89,0,2,4,81,9,4,3,6
27.895,1,6,58,49,8,7,1,8
27.9,17,14,58,103,61,21,13,25
27.905,1,12,56,128,59,21,14,12
27.91,11,2,29,68,17,2,4,10
27.915,9,5,5,103,7,1,3,12
27.92,10,23,6,15,8,4,2,4
27.925,8,13,47,34,1,1,0,4
27.93,6,6,33,91,23,2,0,6
27.935,4,4,74,45,1,3,2,1
27.94,15,24,70,95,63,29,20,15
27.945,5,9,15,65,11,10,4,6
27.95,10,3,36,25,22,0,8,6
27.955,5,4,10,46,10,6,10,7
27.96,19,13,96,32,49,32,17,21
27.965,21,23,44,118,7,21,12,11
27.97,13,20,12,1,45,9,13,14
27.975,2,5,23,21,38,4,5,0
27.98,15,25,61,119,48,10,10,13
27.985,14,29,101,116,54,9,3,8
27.99,3,16,23,2,14,4,4,3
27.995,14,14,20,111,43,15,10,12
28,2,7,51,61,48,9,0,1
28.005,7,9,38,5,30,16,7,7
28.01,3,9,1,111,7,2,1,0
28.015,5,9,42,38,6,9,7,4
28.02,9,7,48,95,39,18,13,9
28.025,3,10,43,32,15,11,16,10
28.03,10,21,5,88,21,7,2,3
28.035,9,24,26,59,31,7,4,4
28.04,9,20,72,127,50,1,2,4
28.045,2,16,25,41,26,7,5,3
28.05,9,11,6,34,40,11,10,3
28.055,21,13,43,73,6,14,12,13
28.06,2,3,45,69,48,17,11,9
28.065,5,16,43,35,5,4,5,2
28.07,8,17,57,38,9,14,9,14
28.075,14,16,39,6,79,38,20,16
28.08,12,31,8,36,45,21,15,8
28.085,8,6,65,0,18,3,12,6
28.09,7,22,8,93,41,1,1,2
28.095,3,3,1,127,4,13,1,4
28.1,3,32,7,128,66,21,14,6
28.105,14,56,3,46,62,23,11,6
28.11,7,22,102,53,67,29,26,17
28.115,15,19,82,107,59,28,25,17
28.12,25,45,82,87,63,49,34,24
28.125,13,12,27,47,6,12,1,3
28.13,7,8,28,30,38,43,15,10
28.135,3,26,46,94,23,16,2,1
28.14,1,1,46,127,20,24,13,10
28.145,2,10,19,48,20,14,17,14
28.15,11,60,33,38,60,52,37,24
28.155,10,27,4,56,23,20,12,8
28.16,11,31,45,35,1,2,6,9
28.165,5,30,27,10,21,12,10,9
28.17,20,30,49,52,96,52,19,0
28.175,17,19,14,41,57,18,17,15
28.18,40,81,128,71,90,21,25,14
28.185,14,24,54,127,67,15,4,17
28.19,32,63,107,128,87,29,23,23
28.195,48,29,55,49,56,32,31,45
28.2,16,63,42,86,20,1,8,7
28.205,12,14,35,126,46,33,14,22
28.21,2,4,33,2,34,21,6,0
28.215,12,42,79,19,14,5,3,3
28.22,16,20,52,46,24,19,27,23
28.225,0,3,18,70,43,0,8,0
28.23,5,0,28,73,76,22,9,1
28.235,28,47,58,89,1,6,43,41
28.24,10,6,44,61,23,14,10,28
28.245,21,24,96,93,85,19,4,12
28.25,16,14,54,34,39,26,4,10
28.255,13,35,27,12,43,12,37,8
28.26,8,16,0,45,27,13,5,13
28.265,11,12,12,49,69,26,6,14
28.27,9,48,15,10,59,8,2,17
28.275,32,54,127,9,49,37,41,0
28.28,39,79,128,108,98,38,41,5
28.285,3,23,13,13,27,11,1,7
28.29,1,34,35,12,59,30,6,0
28.295,6,16,63,61,50,22,10,10
28.3,22,43,85,97,76,22,22,18
28.305,11,22,19,28,3,5,4,5
28.31,35,39,121,106,78,27,21,17
28.315,19,33,56,81,40,23,15,8
28.32,9,20,5,113,56,1,1,1
28.325,26,27,95,48,11,8,13,21
28.33,20,21,53,35,37,3,20,22
28.335,8,16,10,84,22,12,37,24
28.34,21,19,6,27,47,24,7,15
28.345,4,12,83,79,16,13,13,15
28.35,12,24,69,37,24,9,1,6
28.355,36,79,114,82,66,19,28,29
28.36,41,92,101,95,53,15,19,25
28.365,2,5,21,14,42,14,10,2
28.37,12,43,29,24,21,1,1,1
28.375,42,64,66,33,36,27,33,34
28.38,2,8,61,103,21,31,16,5
28.385,14,18,58,21,35,29,16,10
28.39,11,13,19,44,49,29,15,9
28.395,25,41,35,37,45,31,11,10
28.4,15,27,91,26,16,15,8,2
28.405,2,1,82,14,7,12,17,10
28.41,16,0,83,14,17,15,8,6
28.415,9,25,66,37,15,12,6,7
28.42,2,13,45,114,38,14,6,0
28.425,2,10,30,45,14,4,6,5
28.43,4,19,90,69,25,13,12,7
28.435,12,42,41,33,27,10,2,1
28.44,23,33,58,111,29,8,14,17
28.445,16,14,7,54,12,14,18,22
28.45,4,1,49,42,16,1,4,2
28.455,11,2,33,87,31,10,9,8
28.46,4,3,36,128,56,14,1,1
28.465,26,16,69,21,71,21,5,8
28.47,9,59,42,66,43,12,11,13
28.475,6,4,38,37,30,8,4,4
28.48,30,43,51,106,62,7,6,15
28.485,24,20,70,128,51,8,6,13
28.49,8,18,57,83,14,2,2,5
28.495,28,4,46,9,20,6,5,9
28.5,29,45,47,15,3,0,11,18
28.505,18,24,54,82,23,6,11,11
28.51,6,13,18,47,4,0,13,9
28.515,2,22,57,10,61,10,5,4
28.52,2,7,45,45,29,16,7,5
28.525,12,46,50,21,22,13,1,6
28.53,24,87,81,81,25,7,18,17
28.535,9,2,65,9,59,18,3,5
28.54,16,2,3,61,22,12,14,16
28.545,2,18,23,26,13,10,4,1
28.55,13,6,45,76,79,20,13,6
28.555,1,5,16,65,16,4,8,1
28.56,16,7,39,32,22,13,4,4
28.565,3,2,1,68,32,9,2,2
28.57,14,11,82,94,58,13,14,7
28.575,32,39,69,53,37,30,21,21
28.58,13,24,12,34,2,3,5,6
28.585,11,30,86,111,12,22,3,1
28.59,3,12,55,76,46,8,7,2
28.595,10,2,104,66,19,5,10,0
28.6,11,6,32,35,20,0,3,9
28.605,10,11,44,58,9,2,0,5
28.61,0,16,58,23,20,14,4,2
28.615,14,26,36,58,50,25,11,4
28.62,13,10,41,14,59,26,9,7
28.625,11,33,93,52,12,5,5,3
28.63,4,19,20,43,23,1,1,1
28.635,13,22,14,60,1,13,6,4
28.64,14,33,50,112,13,20,12,6
28.645,6,19,41,11,21,3,1,2
28.65,1,18,57,66,4,10,2,1
28.655,37,30,81,15,82,42,33,28
28.66,2,18,73,95,46,9,7,6
28.665,7,0,36,92,47,19,7,2
28.67,7,10,6,88,30,6,7,5
28.675,5,17,67,79,9,10,5,1
28.68,14,13,51,108,25,5,6,5
28.685,16,6,25,62,27,2,1,9
28.69,2,3,3,91,24,12,1,2
28.695,9,10,13,53,55,21,5,22
28.7,2,6,62,63,37,3,5,61
28.705,3,0,35,113,11,6,3,2
28.71,10,9,29,45,13,13,12,9
28.715,7,12,14,9,24,7,3,3
28.72,2,11,26,36,19,12,6,10
28.725,4,13,6,9,1,8,1,7
28.73,16,30,1,36,1,3,8,12
28.735,14,8,27,60,18,2,1,7
28.74,14,33,5,13,11,4,0,5
28.745,3,2,47,29,20,11,8,63
28.75,10,14,3,49,30,3,7,8
28.755,6,11,9,13,20,7,12,24
28.76,6,0,4,41,14,5,0,4
28.765,1,58,42,20,19,5,3,13
28.77,15,14,28,5,42,13,7,9
28.775,0,3,0,19,6,3,9,2
28.78,7,14,32,2,13,6,0,8
28.785,4,14,18,27,10,5,8,13
28.79,11,0,3,12,1,2,7,0
28.795,3,15,12,21,9,5,2,9
28.8,12,15,16,42,16,2,7,13
28.805,30,4,42,12,14,5,9,16
28.81,3,4,1,8,13,2,1,1
28.815,1,3,18,45,12,5,0,33
28.82,13,6,39,96,32,2,3,61
28.825,5,7,9,3,22,8,7,1
28.83,17,43,24,17,20,7,1,7
28.835,2,2,2,28,5,2,1,3
28.84,7,4,2,42,1,4,3,15
28.845,10,5,5,5,14,2,1,8
28.85,10,0,9,23,1,0,3,0
28.855,4,17,7,53,3,5,5,11
28.86,16,81,88,14,3,3,9,16
28.865,17,15,35,7,6,1,2,11
28.87,6,30,15,6,2,2,16,3
28.875,10,7,11,13,7,5,8,5
28.88,0,26,25,11,6,2,12,53
28.885,10,13,5,5,2,14,18,41
28.89,7,2,11,13,2,0,2,8
28.895,4,10,0,7,5,10,4,15
28.9,0,0,26,5,1,17,12,13
28.905,23,6,42,37,3,8,11,14
28.91,1,9,32,39,3,14,7,3
28.915,3,7,85,27,6,49,6,15
28.92,1,22,53,35,10,2,3,2
28.925,6,0,30,14,10,12,2,18
28.93,5,18,27,39,35,3,12,18
28.935,2,4,25,49,24,13,2,13
28.94,35,9,26,37,13,3,9,31
28.945,5,42,23,14,17,2,1,7
28.95,17,48,0,21,12,7,3,6
28.955,38,6,48,7,3,5,5,15
28.96,41,7,40,40,13,22,10,14
28.965,9,1,19,12,14,8,10,12
28.97,5,13,12,31,23,0,36,14
28.975,10,5,0,23,3,32,4,3
28.98,25,25,10,27,13,20,8,22
28.985,34,12,40,7,9,9,4,79
28.99,7,5,1,7,9,11,1,41
28.995,9,2,34,17,7,27,12,21
29,14,24,20,10,5,0,3,18
29.005,3,4,2,5,7,14,17,31
29.01,12,58,54,13,17,13,7,3
29.015,10,28,48,2,15,4,2,10
29.02,3,4,33,21,14,17,3,1
29.025,7,7,23,3,5,25,6,7
29.03,6,16,2,10,19,9,6,18
29.035,10,10,30,3,6,4,4,12
29.04,0,7,4,9,3,9,9,12
29.045,0,1,17,8,16,20,5,12
29.05,2,6,15,3,2,5,6,4
29.055,10,19,1,2,5,8,3,7
29.06,10,7,6,15,2,1,5,1
29.065,16,3,14,20,2,5,3,3
29.07,5,13,5,9,3,0,10,4
29.075,2,6,23,14,8,0,3,4
29.08,1,2,8,10,6,4,2,4
29.085,3,8,20,5,11,1,7,11
29.09,9,5,19,9,10,11,1,8
29.095,5,10,21,13,15,0,2,2
29.1,0,3,14,6,5,3,3,2
29.105,2,25,26,1,9,0,4,3
29.11,2,6,1,11,13,3,1,1
29.115,1,8,8,5,6,3,2,2
29.12,10,6,9,5,5,4,3,4
29.125,2,37,44,17,7,2,5,6
29.13,2,9,1,5,5,2,3,4
29.135,2,3,12,7,1,5,3,7
29.14,4,4,35,28,3,1,8,9
29.145,6,2,6,23,5,5,0,5
29.15,10,14,31,3,3,2,2,9
29.155,8,12,33,6,7,4,3,6
29.16,3,5,4,3,2,1,0,0
29.165,4,0,4,2,4,3,1,2
29.17,0,3,5,2,2,5,1,2
29.175,4,3,11,4,2,4,1,3
29.18,3,21,48,4,2,3,1,2
29.185,0,6,13,13,7,6,1,4
29.19,2,0,6,4,1,3,1,2
29.195,6,22,14,2,0,3,4,0
29.2,5,8,5,5,5,2,5,0
29.205,2,3,14,8,3,2,2,1
29.21,2,6,9,1,0,1,1,6
29.215,2,6,13,4,5,5,3,11
29.22,6,3,3,1,1,0,4,27
29.225,4,2,4,1,0,1,7,47
29.23,1,4,2,1,2,2,0,5
29.235,1,1,1,0,5,2,0,6
29.24,3,4,3,3,0,0,2,15
29.245,5,7,38,7,15,8,7,20
29.25,0,3,6,3,2,1,2,1
29.255,4,2,8,1,6,7,5,8
29.26,0,1,3,0,5,9,1,7
29.265,3,5,33,7,6,2,0,3
29.27,3,8,5,3,2,3,4,11
29.275,6,11,37,7,1,1,7,11
29.28,2,27,8,3,5,3,3,6
29.285,0,0,16,18,1,5,1,4
29.29,7,1,8,9,3,7,3,10
29.295,4,7,9,5,1,2,3,4
29.3,1,7,14,1,3,3,3,5
29.305,1,3,8,3,5,1,3,2
29.31,4,10,14,3,6,2,1,5
29.315,2,2,38,7,3,1,2,1
29.32,1,10,2,2,0,7,0,8
29.325,1,5,5,1,0,1,0,7
29.33,0,7,1,6,1,3,0,0
29.335,4,0,14,1,5,5,7,7
29.34,5,9,19,3,5,5,5,3
29.345,11,8,2,3,5,2,0,0
29.35,2,4,2,3,5,1,1,0
29.355,4,6,12,2,4,6,1,2
29.36,2,2,1,1,4,6,5,3
29.365,5,4,5,0,5,3,0,4
29.37,2,14,20,3,2,1,2,0
29.375,4,1,21,4,4,6,2,1
29.38,2,3,4,4,3,1,1,3
29.385,0,5,7,4,4,2,1,2
29.39,0,11,13,6,4,2,3,4
29.395,0,2,4,1,8,2,1,1
29.4,4,2,10,8,11,5,5,3
29.405,2,1,9,0,5,4,4,2
29.41,0,2,3,5,9,1,2,1
29.415,3,4,34,5,16,9,5,3
29.42,1,1,17,7,5,2,2,1
29.425,2,5,16,2,7,5,2,4
29.43,1,5,26,11,8,6,3,0
29.435,4,4,4,0,4,3,3,5
29.44,9,2,25,7,6,7,6,8
29.445,2,10,6,4,5,0,2,0
29.45,2,11,20,1,4,0,1,0
29.455,3,4,20,4,0,2,3,1
29.46,3,3,12,2,0,2,1,7
29.465,4,7,15,2,7,6,5,5
29.47,8,1,3,1,4,3,3,5
29.475,6,1,11,3,5,7,1,6
29.48,1,5,17,1,7,5,3,4
29.485,1,10,14,1,5,3,0,2
29.49,4,6,10,2,1,4,4,5
29.495,1,9,10,3,1,2,4,2
29.5,2,2,15,3,3,6,3,3
29.505,0,9,0,15,6,3,1,0
29.51,2,0,2,4,1,4,0,1
29.515,1,5,16,6,9,1,0,0
29.52,1,15,14,6,13,7,1,1
29.525,1,0,10,8,1,3,1,0
29.53,1,2,12,2,7,6,2,2
29.535,1,1,7,0,3,1,1,2
29.54,4,2,3,7,10,2,1,2
29.545,3,0,5,0,2,1,1,0
29.55,0,5,9,4,1,1,0,0
29.555,2,7,30,1,5,2,2,0
29.56,0,2,10,6,7,1,2,2
29.565,1,5,21,3,1,3,3,3
29.57,3,8,2,7,4,4,3,4
29.575,1,10,1,15,2,1,5,1
29.58,1,3,10,3,0,4,4,1
29.585,2,19,10,3,6,2,7,6
29.59,5,3,12,4,3,2,4,3
29.595,1,3,13,2,3,1,1,1
29.6,1,4,4,2,5,3,0,3
29.605,2,7,5,3,3,6,4,3
29.61,2,2,17,0,3,2,0,0
29.615,2,5,4,1,1,1,2,1
29.62,1,7,4,8,1,3,1,1
29.625,2,3,6,4,1,0,1,2
29.63,1,5,4,3,2,3,3,0
29.635,0,2,2,3,2,3,2,5
29.64,1,6,11,4,5,6,3,2
29.645,0,3,4,1,1,2,1,1
29.65,1,8,3,2,4,4,2,1
29.655,2,2,6,1,3,2,0,1
29.66,0,4,5,6,11,11,5,1
29.665,2,2,0,0,4,5,1,2
29.67,0,4,4,2,1,0,2,1
29.675,2,5,13,1,2,6,0,3
29.68,1,3,3,7,6,1,3,0
29.685,6,3,39,13,5,13,2,5
29.69,3,2,31,8,3,1,0,3
29.695,5,1,11,2,1,3,4,5
29.7,2,6,21,8,4,1,7,9
29.705,1,1,12,2,1,0,1,3
29.71,0,3,4,4,0,4,0,1
29.715,1,0,2,6,3,3,1,0
29.72,4,4,12,2,5,6,4,4
29.725,1,1,13,5,0,2,2,0
29.73,1,2,14,4,0,3,2,1
29.735,3,1,0,3,3,2,1,3
29.74,2,2,1,3,11,6,5,3
29.745,1,2,5,3,1,3,1,2
29.75,3,5,10,1,2,3,7,4
29.755,0,1,6,8,7,5,1,1
29.76,1,4,10,0,3,7,1,0
29.765,2,1,1,2,2,3,3,9
29.77,1,5,0,6,9,2,3,1
29.775,0,0,11,1,1,4,1,2
29.78,3,14,20,0,2,3,1,2
29.785,2,1,5,8,13,6,6,2
29.79,3,1,9,3,2,4,2,3
29.795,0,1,7,5,1,1,2,1
29.8,3,2,15,1,6,5,2,1
29.805,2,1,9,5,7,3,1,3
29.81,2,9,10,4,4,5,4,2
29.815,1,2,5,1,4,2,3,2
29.82,2,6,4,14,5,1,4,5
29.825,0,0,1,5,7,6,2,1
29.83,1,7,1,3,11,5,3,2
29.835,1,4,3,9,9,6,2,1
29.84,5,4,29,6,6,1,3,4
29.845,0,13,22,2,4,0,0,0
29.85,3,7,16,8,0,0,2,1
29.855,2,5,8,3,8,4,3,2
29.86,1,5,6,3,2,2,1,1
29.865,0,2,8,2,3,3,1,1
29.87,5,1,25,6,8,4,7,6
29.875,1,1,4,5,1,1,1,2
29.88,1,1,18,4,4,0,1,1
29.885,2,15,19,10,5,3,1,2
29.89,3,1,12,0,1,2,2,4
29.895,0,1,3,6,6,4,3,0
29.9,1,0,5,3,3,4,2,2
29.905,2,2,6,3,2,0,4,3
29.91,1,3,0,4,0,1,1,2
29.915,0,2,4,0,2,3,2,1
29.92,1,3,5,2,5,5,2,1
29.925,1,11,5,1,3,1,3,2
29.93,1,15,7,1,6,9,4,1
29.935,1,5,7,3,2,1,3,1
29.94,1,5,4,2,6,1,2,3
29.945,1,2,2,7,2,0,1,1
29.95,2,0,6,4,5,1,0,1
29.955,2,3,3,1,3,1,1,1
29.96,1,2,6,6,7,5,3,2
29.965,3,1,1,4,0,3,1,0
29.97,1,4,4,1,12,11,2,1
29.975,1,3,0,5,5,1,0,1
29.98,1,10,1,6,2,0,0,0
29.985,2,1,12,2,6,7,2,1
29.99,0,1,12,5,7,5,3,2
29.995,1,1,5,1,2,2,2,2
30,5,9,24,11,6,3,3,4
30.005,1,0,5,10,3,1,2,2
30.01,1,6,4,7,2,0,1,3
30.015,3,0,10,3,3,1,0,0
30.02,0,2,9,4,6,3,4,0
30.025,3,1,15,7,1,0,4,4
30.03,1,10,19,9,5,4,1,0
30.035,1,3,6,4,2,1,3,2
30.04,1,6,15,4,3,1,2,2
30.045,2,16,12,4,3,2,3,3
30.05,2,3,6,2,7,4,0,0
30.055,1,13,16,3,3,2,1,1
30.06,1,2,30,5,4,2,1,0
30.065,3,3,24,3,4,0,3,2
30.07,2,1,7,12,3,1,1,2
30.075,2,1,3,12,0,1,2,2
30.08,2,2,6,14,1,0,1,3
30.085,0,5,2,9,3,1,1,1
30.09,1,4,5,7,0,1,0,1
30.095,7,13,15,6,13,7,5,6
30.1,1,7,16,13,6,5,2,1
30.105,5,10,21,11,4,3,4,2
30.11,1,6,10,29,1,1,2,5
30.115,0,3,1,8,3,1,1,1
30.12,2,14,9,3,10,5,1,2
30.125,5,6,24,14,15,9,7,1
30.13,2,16,25,20,3,1,1,1
30.135,4,3,19,8,5,5,5,3
30.14,1,1,7,28,6,3,3,1
30.145,5,1,7,48,9,6,6,5
30.15,6,4,4,54,11,10,3,6
30.155,4,8,11,43,4,1,4,2
30.16,1,0,8,34,3,4,3,2
30.165,1,2,15,15,2,1,4,3
30.17,1,3,8,20,5,1,0,5
30.175,2,4,34,42,16,8,4,3
30.18,1,15,0,3,4,1,2,2
30.185,2,13,8,47,14,7,3,5
30.19,5,5,9,20,16,7,3,5
30.195,5,1,0,7,9,3,4,6
30.2,2,7,11,17,2,2,2,0
30.205,0,2,33,15,7,0,0,0
30.21,0,3,14,12,3,3,1,1
30.215,7,2,22,19,7,3,6,5
30.22,0,2,11,34,15,5,1,2
30.225,5,6,18,53,26,10,6,6
30.23,2,4,1,45,1,2,4,4
30.235,6,2,26,45,12,7,9,4
30.24,8,10,27,32,4,6,9,6
30.245,3,1,36,47,16,8,7,3
30.25,2,17,0,20,12,6,5,3
30.255,2,0,4,67,8,0,0,3
30.26,13,10,41,113,42,17,16,12
30.265,4,4,10,73,17,3,3,3
30.27,2,3,2,7,21,8,5,5
30.275,13,3,66,21,8,5,5,8
30.28,10,9,8,24,2,0,3,8
30.285,9,7,17,54,2,4,3,7
30.29,11,7,13,57,9,1,4,8
30.295,6,13,56,27,20,8,7,6
30.3,3,3,4,5,6,2,2,3
30.305,0,13,6,38,5,6,7,5
30.31,9,11,12,16,15,8,5,6
30.315,13,9,6,70,10,5,2,1
30.32,3,1,34,13,2,1,0,1
30.325,3,1,11,77,12,0,1,4
30.33,2,26,34,117,31,8,3,0
30.335,9,9,11,22,6,3,0,1
30.34,4,3,24,66,15,3,10,14
30.345,1,12,6,20,8,8,7,5
30.35,3,8,25,49,12,9,15,27
30.355,13,8,2,23,2,2,0,23
30.36,5,20,31,100,33,8,5,4
30.365,10,10,37,101,26,9,2,0
30.37,7,0,6,68,2,7,11,5
30.375,1,28,13,52,9,1,0,6
30.38,1,2,38,127,19,0,2,10
30.385,31,22,46,66,28,14,13,23
30.39,20,29,22,96,14,17,8,13
30.395,2,20,11,76,26,6,2,13
30.4,10,17,70,64,10,8,39,42
30.405,16,27,44,92,19,11,17,41
30.41,16,17,36,76,14,7,33,20
30.415,15,25,68,97,56,17,3,9
30.42,25,28,71,15,43,19,15,6
30.425,28,11,19,42,8,1,43,0
30.43,2,12,11,113,19,10,45,8
30.435,10,9,8,123,31,26,17,10
30.44,8,5,5,100,19,15,9,11
30.445,5,5,15,24,3,1,6,27
30.45,17,23,20,52,23,1,28,14
30.455,14,8,17,68,3,10,30,16
30.46,2,5,11,79,7,1,4,0
30.465,19,17,12,2,33,17,20,7
30.47,8,14,44,101,25,7,22,21
30.475,5,13,36,46,42,17,7,60
30.48,11,21,75,59,44,18,14,17
30.485,7,23,5,76,35,7,1,4
30.49,6,4,2,80,29,1,8,14
30.495,15,10,8,56,27,8,15,10
30.5,14,6,23,118,11,4,14,2
30.505,5,20,41,106,62,20,24,24
30.51,8,10,18,84,44,15,3,6
30.515,22,17,46,6,7,2,10,11
30.52,12,10,4,93,64,12,3,4
30.525,5,13,34,22,54,17,11,1
30.53,5,19,44,46,38,13,25,11
30.535,4,18,43,52,12,4,7,8
30.54,2,1,29,102,22,3,6,17
30.545,0,7,13,42,26,9,9,16
30.55,1,1,24,40,13,1,17,12
30.555,9,6,3,52,1,1,2,7
30.56,2,1,13,75,16,1,3,4
30.565,2,6,22,84,21,9,11,0
30.57,6,14,28,125,10,4,20,2
30.575,13,5,34,34,36,3,7,4
30.58,32,7,2,34,7,2,9,1
30.585,3,3,4,7,4,9,10,2
30.59,4,8,39,80,33,11,16,4
30.595,11,14,43,82,49,10,3,13
30.6,29,31,71,90,43,20,5,5
30.605,19,21,38,7,51,19,15,18
30.61,5,3,2,62,9,4,2,10
30.615,9,11,9,22,11,4,5,8
30.62,11,9,27,17,43,14,12,17
30.625,2,5,0,9,10,3,2,4
30.63,4,5,23,86,37,4,1,9
30.635,2,6,27,100,26,5,2,2
30.64,2,3,2,29,24,10,5,7
30.645,12,11,15,58,0,3,8,2
30.65,8,12,1,31,7,5,2,5
30.655,3,6,34,76,29,7,1,3
30.66,0,0,18,4,6,5,1,9
30.665,7,4,34,21,21,17,9,6
30.67,14,23,51,70,72,17,13,11
30.675,25,27,15,18,45,22,12,10
30.68,3,3,38,101,5,9,7,3
30.685,6,6,24,69,8,4,1,1
30.69,9,1,1,69,17,2,5,4
30.695,4,4,22,76,5,0,0,3
30.7,14,9,55,50,51,13,7,5
30.705,0,15,62,74,25,10,3,4
30.71,23,6,66,37,29,18,11,9
30.715,12,34,78,26,43,27,21,17
30.72,5,12,42,40,7,10,5,2
30.725,12,12,22,0,7,6,8,7
30.73,17,20,16,34,62,26,17,18
30.735,18,22,45,4,73,29,21,20
30.74,9,9,52,127,12,1,0,5
30.745,16,21,74,31,46,17,14,12
30.75,5,1,23,60,10,3,1,0
30.755,1,15,19,119,48,16,8,6
30.76,13,39,33,23,82,44,23,16
30.765,13,29,81,88,91,35,25,24
30.77,23,31,80,32,33,14,16,22
30.775,35,51,103,23,43,16,11,18
30.78,2,7,64,72,85,9,9,9
30.785,3,22,94,9,43,15,14,17
30.79,4,7,4,24,33,14,5,1
30.795,5,5,31,4,9,12,11,9
30.8,26,13,41,66,21,10,2,10
30.805,65,41,11,92,2,5,4,21
30.81,16,23,52,86,25,16,6,15
30.815,12,27,91,70,79,26,19,2
30.82,35,50,61,52,43,31,28,81
30.825,18,1,9,40,26,10,12,11
30.83,29,3,3,72,26,22,14,7
30.835,73,29,42,11,27,18,26,27
30.84,12,20,45,1,40,16,5,16
30.845,41,41,33,89,26,4,7,11
30.85,49,93,69,85,107,38,3,16
30.855,46,52,59,80,61,20,11,2
30.86,26,27,6,99,1,4,15,12
30.865,8,47,88,7,93,39,16,13
30.87,34,51,9,47,80,29,16,8
30.875,91,6,83,17,33,11,3,17
30.88,77,10,65,71,15,3,0,9
30.885,19,6,1,4,46,25,5,14
30.89,8,0,37,25,10,8,5,10
30.895,13,28,71,96,66,16,13,7
30.9,52,39,45,17,41,14,12,12
30.905,16,16,29,86,26,13,10,2
30.91,11,21,59,109,46,17,6,6
30.915,3,17,50,127,12,8,2,2
30.92,13,13,58,94,17,11,6,16
30.925,48,15,53,78,77,20,18,18
30.93,12,5,24,90,13,8,16,12
30.935,9,22,75,102,96,27,17,1
30.94,20,30,81,55,114,33,14,12
30.945,6,18,44,98,51,7,5,5
30.95,2,5,56,1,15,6,9,6
30.955,8,0,5,22,21,4,0,6
30.96,9,34,39,96,4,14,13,3
30.965,8,14,10,101,3,10,7,9
30.97,15,8,18,20,7,10,6,18
30.975,0,2,36,48,55,16,9,1
30.98,0,8,13,53,66,26,16,9
30.985,7,7,5,49,8,4,4,3
30.99,23,19,113,28,23,10,7,16
30.995,25,20,20,11,18,2,0,8
31,25,36,58,30,1,7,9,10
31.005,3,9,20,63,3,4,8,9
31.01,6,9,27,112,37,6,11,9
31.015,3,23,16,102,16,16,19,16
31.02,4,6,18,81,24,7,9,1
31.025,25,23,16,61,44,18,9,10
31.03,7,6,25,3,71,17,3,3
31.035,12,2,93,96,13,4,1,6
31.04,22,50,92,26,34,9,14,11
31.045,21,19,67,115,48,9,3,1
31.05,3,22,31,11,23,14,4,4
31.055,4,0,37,26,10,6,1,4
31.06,12,4,82,74,19,3,6,3
31.065,9,3,2,68,16,5,8,3
31.07,22,7,19,80,21,1,5,6
31.075,8,18,50,114,52,15,9,18
31.08,29,27,77,75,85,25,22,24
31.085,4,8,42,104,9,8,3,3
31.09,9,23,31,24,54,24,11,8
31.095,19,10,12,65,9,7,10,12
31.1,16,17,73,100,11,3,1,2
31.105,15,30,85,29,58,22,9,8
31.11,30,45,69,111,54,16,12,12
31.115,35,54,81,37,60,25,11,7
31.12,6,8,21,101,5,4,4,2
31.125,1,14,84,102,37,10,5,2
31.13,22,20,51,35,8,12,14,10
31.135,7,3,52,43,10,4,7,1
31.14,29,60,45,13,8,13,14,15
31.145,16,21,47,46,47,17,14,15
31.15,8,21,14,49,28,12,8,11
31.155,6,21,24,75,22,8,1,3
31.16,24,40,61,58,88,42,25,19
31.165,3,11,17,23,30,3,5,10
31.17,0,6,62,43,36,7,9,5
31.175,27,42,29,19,56,25,10,9
31.18,8,10,13,12,29,14,8,8
31.185,4,32,54,86,14,6,5,1
31.19,28,13,62,5,5,9,22,17
31.195,13,25,14,103,32,15,23,13
31.2,10,33,7,15,21,10,3,1
31.205,7,19,29,98,4,2,5,7
31.21,11,5,9,70,29,8,7,4
31.215,4,14,14,18,38,22,18,14
31.22,5,14,44,62,38,26,16,20
31.225,10,15,21,10,24,12,10,6
31.23,12,5,27,93,12,1,1,3
31.235,0,13,40,56,4,16,16,9
31.24,7,7,52,76,1,6,15,7
31.245,8,10,36,63,49,14,10,4
31.25,25,36,81,90,101,56,34,22
31.255,10,7,20,52,42,13,7,7
31.26,12,5,4,60,6,13,11,10
31.265,14,30,70,88,65,22,7,9
31.27,3,16,34,8,57,18,6,1
31.275,22,42,3,45,9,2,7,2
31.28,3,27,84,94,30,16,15,13
31.285,16,20,33,38,18,8,2,6
31.29,22,41,54,39,10,6,17,22
31.295,2,6,4,37,12,11,2,4
31.3,21,34,63,127,40,16,1,3
31.305,5,11,18,21,10,13,22,12
31.31,14,12,0,49,32,31,17,12
31.315,7,2,1,27,10,2,3,1
31.32,6,20,16,6,22,10,6,3
31.325,5,5,3,13,27,4,3,0
31.33,14,35,68,107,38,7,4,0
31.335,14,14,5,103,27,15,10,5
31.34,27,9,6,34,46,21,17,10
31.345,26,6,12,34,3,8,4,0
31.35,26,13,110,38,49,23,20,20
31.355,6,12,11,17,0,3,2,4
31.36,24,31,15,128,6,13,19,16
31.365,2,14,68,70,51,26,17,6
31.37,24,27,23,77,21,4,3,9
31.375,21,26,91,88,32,17,10,5
31.38,12,14,10,25,36,11,6,3
31.385,9,12,3,127,32,13,10,2
31.39,8,23,75,126,42,20,17,15
31.395,6,21,42,6,9,13,9,16
31.4,22,13,24,106,15,3,1,2
31.405,9,12,19,84,40,18,11,7
31.41,1,23,13,15,2,1,1,2
31.415,16,7,48,61,21,9,11,4
31.42,21,43,98,69,12,6,10,21
31.425,25,10,17,28,6,5,3,1
31.43,5,14,1,29,19,5,7,5
31.435,9,10,27,77,13,3,1,4
31.44,7,7,71,81,21,7,10,11
31.445,13,1,34,9,11,4,5,2
31.45,8,23,24,28,41,21,19,3
31.455,16,12,29,13,29,18,15,11
31.46,12,2,35,66,4,0,4,7
31.465,6,17,20,62,0,1,1,2
31.47,1,14,56,26,1,0,2,4
31.475,15,20,5,63,14,5,6,6
31.48,14,19,2,11,29,13,13,8
31.485,23,23,8,52,21,19,13,9
31.49,7,13,83,26,51,7,1,6
31.495,6,6,5,107,6,4,6,2
31.5,18,4,15,21,23,10,7,2
31.505,24,20,53,70,19,5,11,7
31.51,1,7,47,38,0,4,3,5
31.515,6,9,71,5,25,16,10,9
31.52,16,16,77,125,0,1,6,11
31.525,20,4,86,97,16,1,0,6
31.53,8,4,25,75,35,12,1,4
31.535,21,18,42,97,4,1,8,2
31.54,14,6,64,127,73,17,14,2
31.545,6,22,6,100,35,22,21,17
31.55,16,19,65,62,1,0,0,1
31.555,1,0,5,58,16,16,5,0
31.56,21,5,21,49,19,13,0,7
31.565,9,21,14,16,10,4,24,1
31.57,6,41,36,49,48,12,6,8
31.575,29,23,13,32,22,3,2,13
31.58,20,16,64,46,8,6,5,7
31.585,4,4,23,63,31,3,5,3
31.59,6,39,80,127,5,8,5,1
31.595,2,7,17,16,10,0,1,3
31.6,17,4,32,17,36,18,18,20
31.605,3,6,2,37,8,4,3,5
31.61,2,17,3,19,15,8,4,3
31.615,3,9,6,47,10,8,4,4
31.62,2,12,49,73,8,5,5,1
31.625,17,15,5,61,23,7,3,1
31.63,4,17,10,63,9,4,2,2
31.635,5,7,37,55,41,15,7,4
31.64,11,23,9,26,2,4,9,2
31.645,11,7,6,11,2,5,23,7
31.65,13,22,19,55,33,8,5,4
31.655,3,18,34,26,7,4,2,2
31.66,1,0,48,15,1,1,0,4
31.665,13,9,28,123,6,8,0,2
31.67,5,37,0,75,3,3,2,3
31.675,4,13,21,24,23,4,9,1
31.68,5,13,35,102,37,13,11,3
31.685,8,17,27,70,29,7,15,6
31.69,0,2,41,9,4,1,0,5
31.695,2,6,4,22,1,0,8,5
31.7,8,8,9,94,8,7,4,3
31.705,8,1,90,4,46,20,10,8
31.71,16,49,24,9,3,2,3,8
31.715,10,8,58,95,29,9,7,5
31.72,12,29,75,32,28,16,13,8
31.725,4,5,14,60,13,4,5,2
31.73,21,39,82,38,26,13,9,15
31.735,6,9,49,28,5,5,1,3
31.74,0,16,39,52,6,0,2,1
31.745,0,2,23,14,9,2,2,2
31.75,2,2,24,24,34,7,3,5
31.755,3,14,24,1,37,13,2,1
31.76,3,17,11,3,12,0,1,2
31.765,1,8,29,42,35,9,2,2
31.77,2,5,17,0,14,2,16,2
31.775,3,3,1,18,17,8,2,6
31.78,4,17,10,4,5,1,1,3
31.785,3,14,36,28,5,1,1,4
31.79,3,4,38,17,2,1,1,1
31.795,3,7,17,17,1,1,4,1
31.8,2,0,9,2,19,8,6,2
31.805,1,10,12,30,7,4,4,0
31.81,8,6,18,2,0,1,1,4
31.815,14,11,5,22,6,6,2,5
31.82,3,0,10,8,17,4,6,3
31.825,14,7,0,8,4,2,2,5
31.83,3,3,12,7,3,1,2,3
31.835,13,2,16,2,3,2,6,10
31.84,1,3,8,11,6,5,6,1
31.845,4,8,54,10,2,1,2,1
31.85,5,5,6,8,0,3,0,1
31.855,20,4,14,8,0,1,4,20
31.86,1,5,18,3,1,1,1,0
31.865,1,11,15,6,1,1,1,1
31.87,4,2,2,9,7,8,4,1
31.875,7,2,19,2,1,3,0,4
31.88,3,3,11,8,5,1,2,4
31.885,1,2,27,5,5,5,3,2
31.89,3,11,6,7,3,2,1,6
31.895,2,3,1,30,7,5,4,9
31.9,4,1,9,6,1,3,1,2
31.905,3,3,2,8,1,0,0,1
31.91,2,7,9,2,3,0,1,2
31.915,1,4,4,8,8,4,4,1
31.92,6,14,5,6,2,0,0,0
31.925,2,2,13,0,4,0,1,2
31.93,4,0,19,1,4,2,1,3
31.935,1,9,12,3,5,1,1,1
31.94,1,15,0,12,10,3,3,2
31.945,6,12,37,4,6,1,3,5
31.95,10,4,11,1,6,3,1,3
31.955,0,1,7,11,5,0,2,0
31.96,1,1,2,3,1,2,0,1
31.965,3,4,20,3,6,2,1,2
31.97,4,2,8,7,6,3,1,0
31.975,1,1,3,8,3,5,6,5
31.98,4,2,4,2,2,2,9,7
31.985,2,4,2,1,1,2,1,0
31.99,2,3,8,1,3,3,0,0
31.995,2,7,15,5,0,1,1,1
32,0,5,5,3,3,3,2,0
32.005,3,3,5,4,2,1,1,1
32.01,2,6,23,8,3,2,1,2
32.015,6,24,26,7,2,2,4,6
32.02,4,8,0,3,1,1,0,5
32.025,1,1,14,0,3,0,0,0
32.03,1,1,16,4,4,2,3,3
32.035,2,11,4,4,8,3,2,3
32.04,1,5,4,1,1,2,3,1
32.045,3,1,24,8,5,4,5,4
32.05,2,5,7,0,2,0,1,1
32.055,2,4,9,3,2,1,1,1
32.06,2,1,5,1,2,1,2,0
32.065,1,14,8,10,7,4,4,4
32.07,3,32,67,15,8,4,4,3
32.075,2,3,7,7,1,1,0,2
32.08,0,3,9,1,5,3,2,0
32.085,2,2,6,2,2,0,2,1
32.09,0,9,1,7,1,1,2,1
32.095,1,3,5,0,2,1,0,0
32.1,0,2,10,3,5,3,1,1
32.105,2,0,10,8,6,2,1,2
32.11,1,9,21,7,4,3,4,2
32.115,2,0,14,0,2,1,2,2
32.12,0,3,16,5,0,0,0,3
32.125,4,8,19,5,3,3,1,0
32.13,3,8,15,6,3,6,4,5
32.135,3,6,5,2,3,2,3,3
32.14,0,4,12,8,0,3,1,3
32.145,1,9,17,1,1,2,1,1
32.15,4,4,37,6,2,2,1,3
32.155,0,1,8,2,0,0,1,1
32.16,0,5,5,4,6,3,6,3
32.165,6,1,1,6,7,0,0,3
32.17,0,6,5,0,5,2,0,1
32.175,1,3,7,4,5,0,0,4
32.18,0,5,9,6,1,1,3,2
32.185,0,1,13,15,7,3,3,1
32.19,5,10,16,7,1,2,0,3
32.195,5,5,1,3,3,2,0,2
32.2,1,2,1,6,2,1,0,0
32.205,2,1,3,5,3,1,2,2
32.21,3,4,7,3,2,3,2,2
32.215,0,1,1,8,3,3,4,1
32.22,5,10,20,5,1,1,0,0
32.225,1,21,22,4,5,3,2,3
32.23,3,6,10,5,0,2,0,4
32.235,1,5,21,3,3,1,1,0
32.24,3,2,27,0,1,3,4,5
32.245,1,7,20,5,3,1,1,1
32.25,3,4,16,2,1,0,1,3
32.255,2,1,7,2,3,4,4,2
32.26,2,2,14,3,2,3,1,2
32.265,0,3,8,1,5,3,1,3
32.27,0,6,14,2,1,0,2,0
32.275,1,6,5,3,1,2,1,1
32.28,1,4,15,3,1,1,2,0
32.285,1,0,3,2,2,3,2,1
32.29,4,1,19,2,9,5,6,7
32.295,2,14,9,6,14,10,4,3
32.3,1,3,5,10,3,1,0,0
32.305,3,1,4,2,8,2,2,3
32.31,1,6,5,12,0,2,1,2
32.315,4,1,10,5,8,4,3,3
32.32,6,22,18,1,5,1,1,1
32.325,0,9,1,1,1,1,1,2
32.33,2,4,7,2,1,0,0,3
32.335,1,2,5,8,1,3,2,0
32.34,2,3,2,14,7,2,2,1
32.345,2,2,14,3,2,0,2,2
32.35,3,5,5,1,1,0,1,1
32.355,4,1,10,12,4,4,4,5
32.36,0,3,12,8,0,1,2,1
32.365,1,12,37,10,3,4,1,2
32.37,0,1,8,21,7,5,4,2
32.375,1,1,1,5,2,1,0,1
32.38,3,2,3,1,3,2,3,0
32.385,1,2,5,5,4,1,0,3
32.39,3,4,13,9,1,1,1,1
32.395,5,3,4,5,4,4,2,4
32.4,3,4,7,7,3,1,2,0
32.405,1,2,8,7,6,2,2,2
32.41,2,1,2,8,8,3,10,1
32.415,2,1,13,12,7,0,2,0
32.42,1,2,11,8,0,2,1,1
32.425,0,1,10,3,3,1,0,0
32.43,1,2,15,5,4,0,2,1
32.435,3,31,31,23,2,5,5,5
32.44,2,16,41,8,5,2,1,4
32.445,2,6,12,11,3,1,1,1
32.45,3,16,10,6,2,2,1,1
32.455,1,9,13,6,4,4,4,2
32.46,5,2,8,4,15,7,5,4
32.465,7,5,11,21,11,13,7,6
32.47,4,7,27,1,12,5,4,5
32.475,7,3,10,51,11,7,4,5
32.48,7,5,3,3,6,0,0,1
32.485,5,21,16,1,2,3,4,3
32.49,4,15,6,19,7,3,2,1
32.495,2,3,11,6,8,2,2,2
32.5,1,6,3,17,14,4,5,2
32.505,4,0,6,23,12,6,8,4
32.51,2,3,15,5,2,1,2,2
32.515,0,3,1,3,2,0,1,2
32.52,2,1,5,13,6,1,1,2
32.525,3,21,18,3,4,0,1,1
32.53,5,20,26,4,9,8,1,1
32.535,4,3,8,8,3,1,1,3
32.54,4,3,27,65,10,1,2,2
32.545,4,5,15,19,9,4,6,5
32.55,2,0,2,1,1,2,1,3
32.555,1,1,14,69,1,0,1,0
32.56,4,6,20,33,5,4,7,5
32.565,1,7,10,14,1,1,2,0
32.57,2,4,4,7,4,3,1,0
32.575,2,10,2,1,6,0,1,0
32.58,10,7,8,1,26,10,7,8
32.585,4,7,3,4,4,6,7,7
32.59,1,1,12,8,4,5,2,0
32.595,0,4,2,11,4,3,1,0
32.6,3,1,8,13,7,1,2,2
32.605,6,6,17,2,5,0,2,4
32.61,1,0,1,18,16,8,4,2
32.615,1,1,11,17,1,1,1,1
32.62,5,7,39,29,4,3,4,2
32.625,3,7,49,44,12,10,4,1
32.63,3,8,17,4,5,4,3,1
32.635,4,3,5,45,11,1,3,4
32.64,0,2,14,35,12,6,3,0
32.645,1,3,25,33,8,2,4,2
32.65,3,0,4,19,3,1,0,2
32.655,1,3,1,9,5,8,3,0
32.66,5,8,17,19,11,0,4,4
32.665,3,2,6,12,3,2,2,1
32.67,1,2,7,19,9,2,1,0
32.675,2,3,6,42,10,6,4,3
32.68,1,0,12,29,6,3,2,1
32.685,1,0,8,26,10,2,3,2
32.69,1,6,14,99,28,6,3,2
32.695,4,2,23,123,38,8,6,4
32.7,4,6,11,87,3,10,7,4
32.705,4,10,5,77,3,4,4,6
32.71,8,21,2,58,16,8,5,6
32.715,3,3,5,5,17,6,2,1
32.72,1,8,24,10,2,1,0,2
32.725,5,1,16,105,5,9,4,8
32.73,4,7,6,86,4,5,5,4
32.735,11,9,0,62,3,6,4,12
32.74,6,14,33,67,49,17,7,6
32.745,2,4,31,5,5,3,2,2
32.75,9,16,13,95,23,13,7,6
32.755,2,4,3,125,11,6,5,1
32.76,1,3,10,30,29,2,1,2
32.765,1,0,24,5,16,5,2,2
32.77,4,2,1,44,0,7,7,4
32.775,8,6,15,29,0,6,5,7
32.78,3,1,16,59,2,3,2,4
32.785,7,10,8,53,12,9,4,3
32.79,4,9,11,18,4,4,4,4
32.795,10,17,45,33,19,11,6,7
32.8,11,11,27,3,22,11,9,8
32.805,4,1,4,83,25,2,4,2
32.81,2,2,7,88,33,9,2,0
32.815,0,0,1,17,7,1,0,0
32.82,3,4,12,30,4,2,1,2
32.825,1,1,24,72,21,6,3,3
32.83,9,9,1,73,3,0,1,1
32.835,6,7,2,4,14,6,7,6
32.84,3,6,16,2,28,11,5,3
32.845,1,8,31,66,3,0,2,3
32.85,9,16,44,110,32,13,14,12
32.855,3,6,2,122,7,2,3,2
32.86,7,8,5,116,1,3,4,4
32.865,2,1,3,61,3,5,6,6
32.87,5,7,7,71,10,5,2,0
32.875,4,5,29,36,25,7,7,4
32.88,0,2,13,95,16,8,2,3
32.885,3,8,16,5,40,3,1,2
32.89,6,17,67,67,39,14,12,8
32.895,5,13,32,14,5,4,6,3
32.9,1,0,21,127,7,2,2,0
32.905,0,3,11,45,10,3,0,2
32.91,2,8,44,36,42,5,6,1
32.915,7,14,23,2,36,16,8,6
32.92,5,7,10,92,7,1,2,4
32.925,3,5,13,12,23,5,3,2
32.93,3,10,26,55,0,7,3,3
32.935,9,14,23,45,22,17,13,10
32.94,2,10,19,83,10,12,4,2
32.945,1,5,42,128,31,1,2,2
32.95,2,1,19,78,5,2,0,1
32.955,6,13,41,75,5,3,3,4
32.96,8,20,26,120,28,11,6,7
32.965,2,13,46,117,40,7,5,2
32.97,11,21,33,77,22,13,12,9
32.975,4,12,65,116,18,7,4,6
32.98,1,4,24,53,11,6,2,1
32.985,3,4,15,6,44,12,5,5
32.99,3,2,15,92,9,1,0,2
32.995,0,3,6,71,2,0,2,2
33,9,13,31,21,41,19,9,7
33.005,16,34,74,69,49,24,16,16
33.01,11,6,9,62,6,7,5,5
33.015,4,9,35,2,12,7,3,1
33.02,4,10,13,23,14,10,6,5
33.025,2,4,32,126,28,5,2,1
33.03,6,15,39,89,13,1,1,5
33.035,6,5,19,29,9,5,5,2
33.04,2,2,2,82,9,3,0,1
33.045,8,12,12,49,2,8,3,5
33.05,18,32,69,10,53,32,20,16
33.055,17,32,73,41,34,19,16,10
33.06,6,2,50,5,6,6,4,2
33.065,18,29,40,45,51,31,23,17
33.07,9,11,47,76,6,11,6,7
33.075,9,15,82,31,6,11,7,7
33.08,18,29,68,112,101,30,19,16
33.085,4,12,79,81,21,7,0,0
33.09,7,25,44,72,37,27,18,11
33.095,4,11,16,56,27,17,14,13
33.1,8,10,7,34,2,8,8,9
33.105,0,2,57,108,25,1,3,2
33.11,7,11,10,84,18,0,4,6
33.115,13,23,10,13,14,12,12,6
33.12,3,2,18,69,38,5,4,1
33.125,0,4,47,22,25,1,3,1
33.13,3,11,2,128,60,17,3,1
33.135,7,15,36,11,7,5,4,6
33.14,4,3,54,70,22,1,0,0
33.145,10,29,70,98,81,36,23,15
33.15,29,51,65,81,60,34,27,26
33.155,11,10,42,127,9,16,18,18
33.16,17,28,41,92,34,21,20,18
33.165,3,4,1,119,15,8,5,4
33.17,14,7,52,36,12,5,4,6
33.175,4,6,43,81,29,7,5,5
33.18,6,6,21,100,13,1,0,3
33.185,9,4,31,86,5,3,1,2
33.19,9,18,25,5,4,10,11,3
33.195,13,19,46,79,40,17,12,13
33.2,3,7,34,127,3,9,5,0
33.205,15,32,75,95,63,15,12,11
33.21,3,9,30,13,6,5,1,3
33.215,18,31,88,61,23,20,9,13
33.22,3,9,24,100,47,17,3,2
33.225,15,31,62,34,27,25,16,13
33.23,2,12,23,54,70,21,11,5
33.235,27,22,101,1,7,4,5,17
33.24,17,30,100,100,47,22,20,17
33.245,43,64,116,68,105,57,35,33
33.25,8,7,15,44,31,6,1,4
33.255,6,8,20,8,50,18,11,3
33.26,5,6,51,70,31,9,2,1
33.265,2,1,5,8,22,19,9,6
33.27,1,1,34,127,46,18,16,10
33.275,18,26,30,48,84,31,25,20
33.28,3,0,58,93,1,7,3,1
33.285,23,26,68,27,53,22,10,9
33.29,2,9,43,5,28,7,6,7
33.295,16,25,82,123,80,16,12,8
33.3,10,20,47,85,30,7,6,5
33.305,12,18,44,127,37,4,8,4
33.31,3,10,94,82,1,10,3,1
33.315,5,5,56,40,18,10,9,4
33.32,5,13,9,26,22,3,5,7
33.325,18,29,94,98,69,23,18,15
33.33,16,31,78,13,66,26,19,17
33.335,3,24,7,71,39,14,4,4
33.34,23,13,25,11,7,4,6,8
33.345,2,4,19,33,43,7,4,3
33.35,7,10,17,47,52,16,3,2
33.355,13,24,37,15,26,21,19,16
33.36,31,30,68,127,53,18,21,26
33.365,20,32,61,128,41,6,1,6
33.37,17,16,6,15,36,30,22,19
33.375,13,4,33,93,26,7,5,9
33.38,0,12,42,6,28,16,6,2
33.385,9,5,20,110,14,6,1,1
33.39,0,7,21,39,22,1,0,1
33.395,4,16,94,97,46,24,14,10
33.4,9,12,47,56,23,15,11,12
33.405,2,7,3,14,14,0,4,3
33.41,3,8,4,67,2,0,0,1
33.415,2,17,45,80,31,9,11,7
33.42,1,8,58,128,71,4,0,2
33.425,3,6,0,39,20,20,11,7
33.43,8,18,32,112,51,6,2,6
33.435,12,23,81,57,40,22,17,12
33.44,1,2,21,85,3,6,4,5
33.445,4,3,33,43,24,3,3,3
33.45,16,16,12,24,20,8,2,6
33.455,18,46,69,21,67,25,10,12
33.46,39,74,113,63,114,46,28,27
33.465,11,14,38,9,10,15,16,9
33.47,4,8,32,31,15,6,1,1
33.475,2,12,22,58,24,11,7,0
33.48,2,16,51,21,4,1,4,0
33.485,3,9,26,38,4,3,8,8
33.49,21,22,56,73,63,20,3,6
33.495,33,30,85,52,109,36,18,23
33.5,6,24,83,2,32,7,1,1
33.505,18,28,23,33,21,14,12,13
33.51,9,11,63,58,0,0,2,4
33.515,10,7,20,128,13,14,9,7
33.52,6,7,2,22,0,2,5,4
33.525,14,38,43,104,29,7,8,9
33.53,13,0,30,72,9,7,7,6
33.535,17,35,17,36,72,31,20,17
33.54,5,8,32,64,4,2,3,2
33.545,7,22,14,87,3,2,3,0
33.55,9,14,20,3,30,11,6,12
33.555,1,3,15,20,2,1,2,2
33.56,4,7,40,43,19,1,1,2
33.565,3,6,76,62,23,3,1,0
33.57,1,10,15,32,34,16,5,2
33.575,11,17,4,94,8,7,5,10
33.58,14,6,50,14,22,10,7,15
33.585,9,6,35,90,31,13,5,8
33.59,8,5,18,28,13,2,1,5
33.595,10,14,30,86,8,2,0,6
33.6,7,17,11,74,5,14,14,12
33.605,12,29,86,47,7,1,0,6
33.61,3,6,25,91,6,4,1,0
33.615,6,9,8,24,14,5,8,5
33.62,14,14,13,61,13,17,13,11
33.625,13,3,82,75,14,10,10,10
33.63,10,8,8,76,11,11,8,10
33.635,5,3,7,37,5,5,1,3
33.64,2,16,45,64,19,2,4,1
33.645,4,5,57,45,40,18,8,4
33.65,8,31,62,51,46,23,13,6
33.655,19,32,75,56,55,25,20,15
33.66,6,0,25,25,6,3,0,3
33.665,0,1,50,54,12,2,3,2
33.67,5,3,22,108,0,9,3,3
33.675,17,26,102,84,18,15,14,12
33.68,16,10,47,117,33,10,9,8
33.685,37,23,31,89,61,31,23,21
33.69,3,4,42,10,8,1,1,2
33.695,6,20,45,53,27,16,9,3
33.7,4,9,41,74,16,11,9,4
33.705,19,34,20,86,36,14,14,12
33.71,1,2,46,38,1,8,3,0
33.715,1,25,33,15,7,0,2,4
33.72,7,15,83,30,1,5,5,2
33.725,14,16,69,14,37,17,15,7
33.73,12,19,72,78,38,8,12,9
33.735,2,9,44,82,10,5,5,1
33.74,2,20,29,11,3,7,1,0
33.745,12,33,1,36,0,7,4,12
33.75,7,3,27,37,7,10,8,6
33.755,6,13,15,7,25,9,5,4
33.76,8,16,8,79,6,1,2,9
33.765,5,4,10,70,19,9,2,8
33.77,3,0,36,12,1,10,2,11
33.775,5,7,30,50,15,2,8,6
33.78,7,4,10,22,9,1,14,5
33.785,17,8,24,16,7,12,3,45
33.79,19,3,48,29,20,30,5,29
33.795,2,10,18,38,11,35,7,2
33.8,1,16,1,2,3,8,4,2
33.805,9,21,22,56,3,10,14,17
33.81,11,28,34,15,2,7,3,9
33.815,4,1,34,14,5,14,6,19
33.82,0,0,6,5,15,6,4,10
33.825,3,2,22,57,34,9,5,8
33.83,8,32,36,19,6,3,1,2
33.835,4,4,30,64,6,4,1,8
33.84,5,9,21,43,15,11,1,2
33.845,44,11,3,16,9,7,1,19
33.85,14,10,18,30,1,19,2,8
33.855,4,1,28,20,6,3,0,3
33.86,6,7,16,74,12,7,4,2
33.865,6,6,10,62,12,1,1,1
33.87,2,1,3,17,4,8,2,3
33.875,10,14,4,4,7,5,7,4
33.88,19,1,0,18,0,7,7,12
33.885,19,18,0,50,10,6,1,5
33.89,3,10,11,10,16,6,7,7
33.895,1,2,2,23,7,5,0,2
33.9,19,13,5,10,2,7,4,4
33.905,0,2,3,6,0,8,8,0
33.91,5,4,31,20,7,6,5,3
33.915,7,4,7,1,2,4,1,3
33.92,3,5,2,10,12,5,0,10
33.925,1,1,5,1,1,3,1,1
33.93,3,9,1,0,6,3,3,1
33.935,0,0,2,8,11,0,1,2
33.94,2,2,3,3,1,2,1,0
33.945,2,1,0,2,7,1,2,2
33.95,4,0,2,2,1,5,4,3
33.955,0,0,2,7,6,9,8,3
33.96,2,3,5,3,2,16,5,1
33.965,2,2,3,2,1,0,4,2
33.97,3,3,1,3,2,0,4,2
33.975,1,1,0,1,2,4,2,2
33.98,1,1,4,1,0,4,3,0
33.985,1,2,2,4,0,1,0,2
33.99,1,2,3,3,4,2,2,1
33.995,1,1,3,1,2,1,5,0
34,1,2,2,4,2,2,0,1
34.005,8,1,0,7,7,6,6,12
34.01,8,21,36,8,5,3,0,5
34.015,2,4,4,6,7,4,0,1
34.02,5,5,16,7,3,3,5,6
34.025,3,3,2,3,2,9,4,2
34.03,1,5,0,4,3,9,2,1
34.035,1,3,2,3,4,5,1,2
34.04,4,3,2,3,3,2,5,5
34.045,2,7,5,6,3,2,1,4
34.05,0,2,6,26,6,2,2,0
34.055,2,0,1,8,10,7,3,1
34.06,3,0,9,1,1,3,1,7
34.065,2,0,2,8,7,0,2,3
34.07,2,5,3,1,3,3,2,4
34.075,2,0,1,1,1,5,2,5
34.08,0,0,4,3,3,2,3,2
34.085,1,1,1,6,2,2,0,0
34.09,1,0,0,9,3,0,1,1
34.095,0,1,9,8,10,2,0,1
34.1,3,4,7,1,7,3,2,3
34.105,1,0,1,2,2,4,1,1
34.11,1,3,7,6,1,2,2,2
34.115,1,1,2,8,3,3,3,1
34.12,3,0,1,4,0,1,0,1
34.125,5,0,2,6,3,1,3,2
34.13,3,2,5,6,5,2,1,8
34.135,1,0,1,2,5,0,2,2
34.14,2,1,3,7,1,3,1,0
34.145,0,1,6,3,5,1,2,0
34.15,1,0,4,2,2,1,1,2
34.155,2,0,3,4,1,2,0,1
34.16,4,1,20,4,11,5,5,6
34.165,1,5,8,2,2,0,1,2
34.17,2,7,1,12,8,0,4,0
34.175,0,1,6,4,2,1,1,1
34.18,0,1,1,10,5,1,0,0
34.185,1,1,5,10,8,3,1,0
34.19,1,4,1,5,3,0,2,0
34.195,3,2,3,6,5,1,4,3
34.2,1,1,2,17,6,1,0,1
34.205,1,2,5,15,3,1,0,1
34.21,3,3,15,12,3,0,2,1
34.215,5,7,8,18,18,8,4,6
34.22,1,2,3,1,1,1,3,4
34.225,8,2,5,13,3,0,2,1
34.23,0,3,17,16,1,3,1,4
34.235,1,1,1,2,2,0,9,2
34.24,4,4,4,10,2,3,2,2
34.245,2,1,0,8,3,1,2,3
34.25,3,1,3,16,7,2,2,3
34.255,3,3,4,4,3,5,0,0
34.26,2,3,11,5,0,0,2,1
34.265,0,1,2,5,2,2,1,2
34.27,1,1,1,7,1,2,1,1
34.275,1,0,3,9,1,1,3,2
34.28,2,3,3,1,3,7,4,3
34.285,0,3,3,27,2,2,2,1
34.29,3,1,4,19,4,3,2,1
34.295,3,5,19,35,7,6,3,1
34.3,1,9,16,15,17,8,6,3
34.305,8,2,10,1,0,2,0,1
34.31,2,3,8,45,15,1,4,1
34.315,4,5,6,26,15,4,5,2
34.32,2,4,6,14,3,4,2,1
34.325,3,1,2,3,6,3,5,4
34.33,1,2,11,14,3,2,1,0
34.335,4,2,10,53,10,4,2,1
34.34,1,5,17,13,11,3,3,1
34.345,4,11,43,62,20,5,4,3
34.35,12,2,6,1,4,1,4,5
34.355,12,6,14,21,3,8,5,6
34.36,9,2,21,5,6,2,6,8
34.365,6,4,31,72,4,4,1,2
34.37,7,6,4,8,11,4,3,4
34.375,1,4,11,73,7,2,1,1
34.38,5,5,9,45,12,8,5,5
34.385,1,3,2,45,16,5,1,1
34.39,12,13,67,127,47,13,12,9
34.395,2,8,61,105,28,19,3,3
34.4,9,18,68,128,59,7,4,6
34.405,4,16,67,107,34,3,3,4
34.41,18,18,7,14,37,1,8,13
34.415,38,19,5,122,9,5,9,20
34.42,24,10,30,5,0,11,2,4
34.425,4,10,27,9,31,14,7,5
34.43,11,11,12,6,25,9,7,7
34.435,8,2,23,68,4,5,1,1
34.44,3,15,37,67,48,15,4,2
34.445,3,3,34,88,49,7,6,1
34.45,24,34,51,93,52,40,26,22
34.455,8,0,9,2,34,5,4,4
34.46,5,9,18,31,14,8,7,7
34.465,6,6,4,48,17,13,4,2
34.47,9,4,5,25,38,7,1,1
34.475,11,1,41,79,33,7,0,0
34.48,6,2,56,45,51,12,1,3
34.485,17,45,57,68,96,37,22,18
34.49,9,18,32,45,25,21,8,4
34.495,10,4,3,12,8,10,5,2
34.5,9,6,33,9,37,9,7,10
34.505,8,3,12,100,44,21,12,11
34.51,22,30,88,94,67,25,17,15
34.515,18,20,24,68,65,24,15,9
34.52,26,28,60,4,57,22,10,12
34.525,7,19,26,47,64,21,11,8
34.53,17,8,19,50,13,5,3,2
34.535,5,5,28,62,18,1,6,6
34.54,10,20,60,54,3,2,6,7
34.545,3,25,81,17,17,11,8,2
34.55,17,8,14,32,35,2,0,6
34.555,4,13,28,39,9,9,6,5
34.56,13,16,41,18,22,16,12,10
34.565,18,2,14,16,2,7,4,2
34.57,3,11,39,91,17,11,7,4
34.575,11,33,85,105,32,17,10,8
34.58,7,3,53,39,57,5,5,1
34.585,26,30,76,23,42,20,17,17
34.59,13,23,44,71,63,11,8,6
34.595,18,27,71,87,48,14,11,13
34.6,15,34,92,50,9,6,8,8
34.605,59,41,64,87,84,41,33,30
34.61,23,10,36,6,46,19,7,5
34.615,2,8,20,38,4,12,10,4
34.62,2,11,23,8,10,9,7,4
34.625,6,13,23,19,16,11,7,6
34.63,33,44,92,118,62,26,13,12
34.635,0,33,18,23,10,2,0,6
34.64,10,18,9,95,16,18,14,11
34.645,19,37,39,58,27,15,10,6
34.65,24,44,65,86,96,39,28,21
34.655,3,11,21,127,17,1,3,2
34.66,8,8,22,78,3,3,3,3
34.665,16,33,80,13,34,16,16,13
34.67,27,33,51,126,37,19,16,18
34.675,20,44,62,81,65,38,27,20
34.68,26,42,105,87,96,40,26,22
34.685,12,17,19,63,8,5,8,8
34.69,2,6,82,66,22,9,3,2
34.695,13,13,32,13,15,7,6,8
34.7,23,41,100,62,69,21,23,19
34.705,5,12,4,40,6,3,0,4
34.71,10,10,32,97,6,2,1,2
34.715,25,34,53,30,10,6,11,13
34.72,6,11,2,101,69,10,2,5
34.725,7,17,24,45,25,3,3,4
34.73,18,31,90,104,62,22,14,15
34.735,8,19,60,24,22,14,12,10
34.74,3,7,11,113,20,4,3,3
34.745,31,28,83,44,36,24,15,12
34.75,14,18,66,82,17,2,6,7
34.755,3,0,22,127,5,2,3,5
34.76,2,2,1,42,32,2,1,3
34.765,9,21,11,105,111,29,16,13
34.77,31,48,76,25,77,34,22,23
34.775,22,29,89,116,59,10,5,11
34.78,3,4,21,97,43,6,2,4
34.785,5,17,38,18,17,5,6,5
34.79,29,22,88,128,96,29,15,12
34.795,3,9,45,113,28,6,9,6
34.8,8,12,58,31,3,2,5,7
34.805,5,5,62,19,59,26,17,12
34.81,1,7,87,55,30,1,1,2
34.815,16,28,65,86,52,22,13,10
34.82,14,21,93,48,62,20,13,11
34.825,27,27,104,81,55,20,12,14
34.83,32,42,91,45,42,41,32,29
34.835,6,13,14,92,33,12,7,4
34.84,17,7,75,41,47,23,18,18
34.845,1,6,1,25,14,11,2,1
34.85,5,14,49,110,37,11,6,4
34.855,1,6,51,18,6,5,3,4
34.86,3,6,37,3,11,9,6,4
34.865,14,26,40,90,17,11,8,11
34.87,5,7,43,70,15,2,3,3
34.875,3,34,38,44,1,12,5,3
34.88,0,2,51,61,21,4,5,4
34.885,5,10,19,36,5,2,1,2
34.89,6,12,11,22,2,3,6,6
34.895,7,19,7,30,24,6,4,4
34.9,2,6,6,29,10,3,3,3
34.905,2,0,22,20,12,12,4,5
34.91,0,2,10,13,10,2,3,0
34.915,2,7,2,22,12,1,1,2
34.92,2,32,2,16,1,1,2,3
34.925,3,3,6,3,8,0,1,1
34.93,6,11,7,41,17,15,5,3
34.935,3,0,6,2,5,4,2,3
34.94,4,6,4,6,8,4,1,1
34.945,0,3,6,6,13,8,5,1
34.95,20,6,24,15,17,8,11,16
34.955,10,6,34,8,3,10,8,9
34.96,5,5,29,5,1,5,1,2
34.965,11,2,5,11,15,7,1,3
34.97,14,5,8,1,5,2,4,5
34.975,39,6,3,6,4,2,1,8
34.98,8,3,5,5,6,7,4,11
34.985,3,2,0,16,4,1,2,2
34.99,4,3,1,21,3,0,3,0
34.995,9,1,9,7,2,2,0,5
35,4,3,11,10,4,3,0,1
35.005,1,4,8,1,1,5,5,0
35.01,7,8,0,3,7,3,3,8
35.015,2,4,2,7,1,3,5,0
35.02,4,1,6,3,4,1,3,3
35.025,0,0,1,1,11,2,1,1
35.03,8,3,6,6,9,1,1,0
35.035,1,1,2,9,2,16,6,2
35.04,2,1,0,3,1,5,2,3
35.045,1,2,2,3,9,5,1,1
35.05,2,3,1,4,5,4,2,2
35.055,7,5,3,6,2,1,0,1
35.06,3,2,0,1,2,11,2,0
35.065,2,4,2,0,7,15,0,3
35.07,2,0,6,2,2,4,4,1
35.075,2,1,2,2,2,3,4,5
35.08,1,1,1,2,1,6,0,6
35.085,8,6,5,0,0,4,8,9
35.09,0,1,1,4,1,0,0,1
35.095,2,2,5,0,2,5,1,3
35.1,5,3,5,3,8,7,1,3
35.105,1,2,2,3,5,2,1,1
35.11,5,4,3,2,9,7,4,2
35.115,2,1,5,0,2,1,3,2
35.12,2,2,1,1,0,2,1,1
35.125,1,2,4,2,1,1,4,0
35.13,3,2,5,2,2,3,2,2
35.135,2,2,4,4,12,5,1,1
35.14,1,1,1,2,2,1,2,1
35.145,1,5,0,3,3,3,3,1
35.15,0,0,2,2,2,3,2,2
35.155,1,3,2,7,10,10,1,2
35.16,2,0,1,2,3,13,6,0
35.165,0,2,5,5,14,5,4,1
35.17,1,9,15,4,4,5,3,1
35.175,4,1,3,4,1,3,1,2
35.18,7,1,3,3,9,9,5,10
35.185,2,0,0,3,5,1,1,1
35.19,4,1,1,1,4,3,2,1
35.195,1,1,6,2,7,7,1,1
35.2,1,2,0,5,1,3,1,1
35.205,2,2,8,2,1,3,2,2
35.21,1,3,11,0,4,2,4,3
35.215,5,6,12,6,0,1,5,4
35.22,1,0,11,3,3,2,2,1
35.225,0,8,37,3,2,1,1,3
35.23,1,1,13,2,3,5,2,1
35.235,2,4,9,3,6,6,1,1
35.24,4,4,4,1,1,1,0,1
35.245,3,2,5,1,0,8,2,1
35.25,1,1,1,1,4,1,1,3
35.255,3,3,6,5,3,8,2,2
35.26,2,2,8,3,3,2,3,4
35.265,6,3,2,0,3,2,2,0
35.27,1,1,1,3,4,4,5,3
35.275,1,1,4,2,1,2,1,1
35.28,0,0,3,0,4,5,1,1
35.285,2,4,11,6,2,1,1,2
35.29,2,2,1,1,2,1,3,2
35.295,3,0,5,4,3,3,3,1
35.3,3,1,2,2,1,0,2,0
35.305,0,0,1,7,1,1,0,1
35.31,2,4,2,5,2,1,0,0
35.315,2,0,6,5,4,1,1,1
35.32,3,0,10,16,4,2,4,3
35.325,6,1,4,4,4,1,1,2
35.33,10,0,3,5,6,6,4,5
35.335,2,2,3,1,1,2,2,1
35.34,2,0,1,5,2,2,1,1
35.345,1,0,5,8,2,4,2,4
35.35,1,2,1,3,1,3,2,0
35.355,0,2,1,4,6,5,2,3
35.36,5,3,1,4,10,4,3,2
35.365,0,1,4,4,10,9,4,3
35.37,1,2,3,7,4,5,3,1
35.375,1,1,2,15,0,3,0,0
35.38,2,2,6,1,5,4,3,2
35.385,5,0,5,15,3,5,2,3
35.39,2,3,11,29,9,4,3,2
35.395,2,2,3,8,7,8,3,5
35.4,2,2,4,10,6,4,2,1
35.405,2,2,1,1,1,1,1,1
35.41,0,2,7,2,3,4,2,0
35.415,4,0,3,18,4,3,1,4
35.42,4,3,3,5,2,0,4,9
35.425,1,4,9,1,1,0,2,3
35.43,3,9,6,15,2,1,1,0
35.435,1,10,2,38,1,2,1,1
35.44,1,4,7,5,10,6,5,1
35.445,1,2,1,21,0,4,1,1
35.45,0,1,6,20,2,0,1,0
35.455,0,1,3,25,5,1,4,0
35.46,1,2,4,30,1,1,2,2
35.465,1,3,1,9,9,3,0,1
35.47,6,6,1,7,24,13,8,11
35.475,2,3,13,28,12,9,1,1
35.48,6,3,7,68,19,5,1,2
35.485,2,1,14,51,0,3,1,1
35.49,1,1,9,3,3,4,4,5
35.495,3,1,2,21,0,4,6,2
35.5,0,1,0,4,2,2,1,2
35.505,7,5,8,8,3,3,3,5
35.51,8,4,7,39,1,2,4,6
35.515,2,20,25,24,7,3,3,3
35.52,0,3,1,16,11,4,0,1
35.525,3,2,8,27,4,2,2,1
35.53,1,3,4,27,8,3,1,1
35.535,5,2,20,61,22,8,5,2
35.54,2,8,1,27,10,6,4,3
35.545,4,6,8,2,2,1,1,4
35.55,4,9,17,4,12,5,1,1
35.555,1,3,16,39,9,7,3,1
35.56,11,7,12,18,5,8,7,10
35.565,10,13,27,57,16,4,3,3
35.57,6,7,19,101,16,6,5,4
35.575,2,3,8,45,11,3,1,2
35.58,1,0,10,37,5,0,1,0
35.585,2,2,15,16,8,0,1,0
35.59,2,7,25,40,2,2,1,1
35.595,0,3,19,41,3,2,2,0
35.6,1,1,9,57,10,2,0,2
35.605,7,9,28,71,23,7,4,4
35.61,0,5,12,40,13,3,1,0
35.615,7,1,39,16,3,4,4,6
35.62,3,4,13,45,3,1,2,0
35.625,11,6,32,18,8,3,1,8
35.63,3,0,22,35,1,4,3,1
35.635,10,1,1,34,6,4,2,0
35.64,1,6,8,5,4,4,1,3
35.645,0,4,0,20,13,5,5,2
35.65,0,2,9,21,18,8,2,2
35.655,2,3,2,40,8,3,3,4
35.66,2,4,12,3,1,0,0,2
35.665,1,4,0,96,2,3,5,1
35.67,13,20,31,122,25,18,14,9
35.675,5,10,29,57,14,10,5,1
35.68,7,10,14,31,13,9,7,4
35.685,3,9,11,55,15,3,4,1
35.69,5,8,13,6,35,15,6,6
35.695,1,6,9,4,38,15,7,6
35.7,3,11,6,89,14,9,9,6
35.705,6,4,5,99,6,5,5,4
35.71,9,9,32,14,6,6,1,0
35.715,4,11,39,9,21,13,9,5
35.72,17,28,47,11,48,26,18,11
35.725,2,19,18,95,21,17,13,5
35.73,16,2,13,53,32,10,3,7
35.735,3,3,5,46,26,8,3,0
35.74,2,1,16,5,12,5,1,1
35.745,6,6,7,24,10,8,6,3
35.75,10,3,6,27,13,6,4,1
35.755,21,10,3,10,50,22,14,9
35.76,37,36,55,0,49,30,25,18
35.765,18,5,15,108,1,3,0,0
35.77,2,2,17,68,1,1,0,0
35.775,4,16,25,14,24,29,15,4
35.78,10,4,6,3,20,0,2,4
35.785,38,15,30,91,26,35,9,5
35.79,0,8,27,72,44,21,8,3
35.795,12,16,32,103,43,35,16,15
35.8,19,15,22,73,20,2,2,1
35.805,2,8,9,44,18,22,9,4
35.81,1,1,32,127,22,4,3,3
35.815,11,1,10,64,8,24,1,4
35.82,10,25,32,1,40,32,10,7
35.825,5,7,20,29,22,9,9,7
35.83,7,7,11,18,3,1,2,4
35.835,9,11,33,39,59,18,5,4
35.84,4,5,17,81,7,2,4,5
35.845,4,6,13,7,23,5,2,1
35.85,9,21,62,96,28,7,2,6
35.855,4,13,30,26,10,7,3,1
35.86,4,1,4,35,4,5,2,0
35.865,5,2,11,33,8,1,2,0
35.87,8,7,9,62,11,1,4,1
35.875,4,9,32,5,2,3,6,2
35.88,8,17,47,55,14,15,12,5
35.885,2,3,4,77,13,4,2,4
35.89,10,24,38,84,43,13,9,9
35.895,2,10,8,64,2,3,4,5
35.9,7,14,52,111,57,26,8,1
35.905,12,19,46,54,29,10,9,6
35.91,1,10,18,49,0,3,2,0
35.915,5,9,31,88,35,24,8,3
35.92,3,5,5,10,23,10,0,3
35.925,8,9,28,12,49,35,9,6
35.93,20,9,15,38,34,41,15,15
35.935,0,7,13,13,5,4,6,2
35.94,13,9,41,37,20,19,12,3
35.945,18,4,32,59,13,20,11,5
35.95,12,25,67,24,71,15,16,9
35.955,17,29,87,113,56,25,16,14
35.96,32,43,45,97,61,47,28,23
35.965,12,26,62,86,19,3,9,11
35.97,26,64,113,91,121,47,35,29
35.975,8,28,18,79,27,14,8,4
35.98,6,15,34,54,39,6,5,3
35.985,5,13,6,2,42,15,12,11
35.99,7,11,18,88,6,13,8,4
35.995,18,13,14,22,35,20,14,8
36,14,8,53,75,1,7,6,2
36.005,2,0,16,78,2,5,4,2
36.01,23,13,6,1,22,13,4,4
36.015,27,37,45,17,48,21,17,5
36.02,4,13,8,89,36,4,5,2
36.025,34,18,61,72,47,16,5,14
36.03,15,1,34,70,54,22,9,9
36.035,19,24,47,98,66,16,18,12
36.04,4,15,26,120,42,38,6,5
36.045,10,13,5,75,25,6,6,3
36.05,7,19,17,16,25,6,1,3
36.055,45,48,68,112,54,20,17,23
36.06,21,23,2,13,38,26,14,12
36.065,2,6,10,75,12,7,0,2
36.07,18,24,50,2,37,39,24,18
36.075,20,22,63,25,27,16,8,12
36.08,14,20,8,93,20,9,1,3
36.085,12,18,53,31,19,6,2,2
36.09,14,26,85,80,70,25,13,8
36.095,29,66,73,22,73,45,25,20
36.1,2,10,49,92,54,22,7,4
36.105,16,34,45,7,23,7,9,7
36.11,5,23,49,128,73,32,20,11
36.115,2,21,57,48,5,7,12,7
36.12,38,16,61,68,39,21,14,5
36.125,17,2,3,67,67,21,10,6
36.13,5,1,3,27,2,19,9,3
36.135,3,3,19,49,18,2,1,3
36.14,8,12,29,26,9,6,4,0
36.145,12,29,98,66,39,7,3,8
36.15,10,6,26,58,2,12,7,1
36.155,15,40,27,96,93,31,26,17
36.16,11,42,43,51,74,24,20,15
36.165,24,46,88,128,47,19,14,14
36.17,27,34,10,76,30,8,9,8
36.175,39,49,71,32,55,30,20,19
36.18,7,43,65,44,13,4,3,2
36.185,2,12,29,44,40,12,6,6
36.19,4,9,2,24,23,9,9,9
36.195,8,8,81,128,29,2,0,3
36.2,11,7,46,66,18,0,3,4
36.205,5,12,80,104,42,8,3,3
36.21,15,28,50,28,17,20,21,15
36.215,32,35,13,44,31,23,21,22
36.22,32,21,20,15,72,28,16,13
36.225,54,11,28,24,10,7,5,7
36.23,21,14,39,104,43,7,8,8
36.235,2,5,25,7,6,2,2,4
36.24,1,13,35,69,31,7,4,3
36.245,1,2,8,107,24,3,4,1
36.25,9,5,25,42,2,5,3,3
36.255,17,37,48,3,104,45,24,17
36.26,26,11,66,5,10,0,1,7
36.265,6,6,16,93,52,13,9,2
36.27,2,11,11,66,17,6,4,5
36.275,27,19,28,21,39,17,9,6
36.28,18,2,17,48,26,12,5,4
36.285,9,27,37,128,73,25,16,14
36.29,4,6,20,70,12,4,1,2
36.295,0,19,45,12,9,6,11,5
36.3,10,1,5,44,21,0,1,4
36.305,6,27,15,21,39,15,12,7
36.31,9,11,31,70,5,1,6,5
36.315,26,45,126,118,96,42,26,19
36.32,6,2,33,53,30,6,6,3
36.325,9,11,66,5,19,1,2,2
36.33,0,7,4,85,18,2,1,0
36.335,10,29,17,87,42,2,4,1
36.34,17,20,28,91,31,14,8,8
36.345,16,16,74,50,5,1,1,2
36.35,32,4,34,54,34,1,4,10
36.355,26,57,75,30,50,21,19,16
36.36,22,51,77,102,36,35,21,18
36.365,1,12,12,46,42,11,4,2
36.37,25,18,0,56,55,18,7,7
36.375,46,79,57,127,30,36,29,30
36.38,9,16,6,41,3,8,9,6
36.385,21,32,51,110,38,17,14,19
36.39,1,17,6,21,8,5,2,3
36.395,12,36,102,47,84,27,19,15
36.4,20,44,99,114,87,24,21,17
36.405,3,9,43,78,5,9,8,4
36.41,18,22,26,20,12,5,2,9
36.415,2,7,40,21,3,4,2,1
36.42,19,22,100,60,34,14,15,18
36.425,2,35,78,18,63,19,18,8
36.43,65,31,23,7,39,7,2,16
36.435,1,14,6,68,33,8,0,4
36.44,2,9,9,2,6,6,6,3
36.445,16,13,4,72,16,8,6,0
36.45,26,21,19,42,20,14,11,13
36.455,5,10,17,14,8,3,4,5
36.46,15,6,23,11,60,13,8,8
36.465,1,3,14,80,3,1,3,4
36.47,16,27,9,77,7,10,3,2
36.475,7,5,14,80,8,4,3,2
36.48,3,14,26,49,6,3,5,4
36.485,14,17,16,56,22,3,1,1
36.49,1,10,23,101,29,8,2,2
36.495,16,15,101,111,45,11,6,7
36.5,11,6,59,90,29,8,5,7
36.505,14,10,8,69,13,2,2,1
36.51,0,2,9,31,14,8,4,1
36.515,4,9,14,8,11,3,3,2
36.52,10,18,37,68,12,10,9,11
36.525,14,17,1,5,32,13,7,7
36.53,11,16,17,79,33,13,11,6
36.535,6,0,61,116,17,2,4,2
36.54,7,9,15,34,6,1,3,1
36.545,12,12,15,16,9,2,0,4
36.55,8,2,21,53,20,2,2,1
36.555,3,2,15,38,45,6,3,4
36.56,4,2,7,31,12,8,5,2
36.565,8,7,38,81,53,17,8,7
36.57,4,6,8,35,11,7,7,2
36.575,4,6,15,62,2,4,4,4
36.58,5,8,15,39,6,2,1,1
36.585,3,2,13,48,13,2,2,3
36.59,3,1,0,127,11,8,4,2
36.595,6,3,18,21,17,3,1,2
36.6,0,6,10,65,35,10,8,5
36.605,1,1,8,7,27,5,2,1
36.61,1,0,1,34,4,0,1,0
36.615,1,1,14,61,22,5,2,1
36.62,4,0,6,103,8,1,0,2
36.625,10,2,3,14,14,3,2,1
36.63,3,3,9,0,6,1,1,4
36.635,4,1,8,9,6,5,0,1
36.64,3,6,3,27,2,1,1,1
36.645,5,10,19,29,15,8,5,5
36.65,5,11,39,111,28,3,4,3
36.655,4,10,14,4,22,9,5,3
36.66,1,7,12,10,23,1,1,1
36.665,1,3,5,9,9,5,5,3
36.67,4,4,7,8,9,2,4,5
36.675,6,4,7,2,9,4,2,6
36.68,3,1,0,19,6,1,2,8
36.685,0,3,7,8,8,4,0,1
36.69,5,2,3,7,4,3,2,3
36.695,0,2,2,23,5,1,1,1
36.7,2,1,10,38,7,2,1,2
36.705,6,4,5,15,7,4,0,4
36.71,4,0,3,1,8,2,2,1
36.715,3,3,4,2,2,0,1,1
36.72,1,5,9,2,2,3,1,0
36.725,2,1,3,5,1,0,1,1
36.73,2,3,4,4,5,2,3,6
36.735,11,2,2,1,4,2,1,7
36.74,3,1,1,3,15,2,1,2
36.745,0,0,2,3,10,6,0,2
36.75,2,1,3,5,1,2,1,2
36.755,1,5,7,9,3,1,2,0
36.76,2,1,0,11,2,4,0,3
36.765,2,2,1,3,2,3,1,1
36.77,3,1,0,8,4,1,0,1
36.775,1,2,1,3,0,8,5,4
36.78,0,1,4,4,7,4,9,1
36.785,3,1,1,1,3,5,4,1
36.79,2,2,3,9,4,5,1,0
36.795,1,3,4,6,5,3,0,1
36.8,4,1,5,1,1,4,5,1
36.805,3,1,3,3,2,4,4,0
36.81,3,2,1,14,5,4,0,4
36.815,3,1,2,12,3,3,1,1
36.82,1,4,2,8,1,4,2,2
36.825,1,3,2,6,3,1,3,1
36.83,1,3,1,7,2,0,1,0
36.835,1,1,0,2,0,1,3,3
36.84,1,3,2,3,0,0,1,2
36.845,3,2,3,5,8,1,3,3
36.85,1,0,2,2,2,2,1,3
36.855,4,4,10,11,4,3,3,11
36.86,2,0,3,5,5,3,1,1
36.865,2,2,1,6,0,0,1,0
36.87,1,3,3,1,5,2,2,2
36.875,1,1,2,2,2,5,2,1
36.88,3,1,2,6,1,6,2,0
36.885,2,1,4,7,3,1,2,0
36.89,3,1,4,0,1,1,0,3
36.895,2,2,0,4,2,3,0,0
36.9,2,3,5,3,2,0,1,1
36.905,2,2,2,9,2,4,7,3
36.91,1,0,1,18,2,4,2,1
36.915,0,1,3,5,0,2,1,0
36.92,0,2,1,13,2,3,2,0
36.925,2,1,2,5,2,1,2,1
36.93,3,2,2,0,2,1,2,3
36.935,0,1,1,3,6,2,0,0
36.94,3,3,1,4,1,2,3,2
36.945,1,3,3,2,3,1,1,2
36.95,5,1,3,0,2,3,1,1
36.955,8,0,2,1,1,3,2,2
36.96,1,1,0,0,2,4,1,1
36.965,1,1,2,7,1,1,2,1
36.97,3,3,2,7,0,0,0,2
36.975,0,0,2,2,1,9,0,1
36.98,1,1,3,5,10,2,0,2
36.985,1,2,1,4,4,1,2,1
36.99,3,1,1,7,4,3,0,2
36.995,1,0,3,7,5,5,1,1
37,1,4,7,14,4,6,2,1
37.005,1,0,3,9,3,3,2,1
37.01,0,2,0,13,0,1,1,1
37.015,1,4,8,14,6,1,3,2
37.02,4,1,4,23,2,1,0,1
37.025,3,2,4,6,6,5,5,3
37.03,6,0,1,9,1,1,2,2
37.035,8,2,2,5,3,1,1,3
37.04,0,0,3,6,3,1,0,1
37.045,0,0,3,7,0,1,2,1
37.05,1,1,0,10,3,0,1,1
37.055,3,2,3,7,1,0,3,2
37.06,2,1,2,6,2,2,0,0
37.065,1,2,1,5,6,4,1,1
37.07,2,1,2,2,4,1,1,1
37.075,0,1,1,3,2,0,0,1
37.08,2,2,0,8,4,1,1,3
37.085,1,4,1,4,3,2,4,2
37.09,1,2,3,5,0,4,3,1
37.095,1,0,3,11,0,1,0,1
37.1,4,2,6,12,4,2,2,2
37.105,1,4,7,5,7,1,1,2
37.11,2,1,0,3,1,1,2,0
37.115,0,1,2,0,2,0,1,3
37.12,1,0,1,5,5,1,1,2
37.125,2,1,6,22,1,2,1,2
37.13,3,3,1,18,6,4,4,1
37.135,1,1,0,8,2,4,1,0
37.14,5,1,3,3,1,1,2,2
37.145,4,1,4,9,3,1,2,5
37.15,0,1,1,1,3,2,0,2
37.155,2,2,6,6,5,2,2,1
37.16,1,2,4,0,3,1,1,2
37.165,2,4,7,10,3,3,1,1
37.17,1,2,0,1,1,0,0,0
37.175,1,3,9,4,0,1,2,1
37.18,2,1,3,3,4,3,3,2
37.185,1,2,5,13,2,1,0,2
37.19,4,2,2,5,5,3,4,10
37.195,1,2,3,10,4,0,1,0
37.2,2,1,3,2,0,2,1,0
37.205,2,1,0,1,4,3,1,1
37.21,2,1,3,26,3,0,2,1
37.215,6,7,6,30,10,7,6,6
37.22,1,3,2,38,3,4,0,0
37.225,3,3,1,6,5,6,2,4
37.23,2,3,2,26,5,3,4,3
37.235,0,3,2,29,5,2,1,2
37.24,4,5,9,7,5,3,4,1
37.245,1,0,1,8,5,2,2,0
37.25,5,7,13,23,14,11,6,4
37.255,2,2,4,21,1,1,2,1
37.26,2,1,3,28,1,0,1,1
37.265,0,0,1,3,3,2,1,0
37.27,2,0,4,12,7,2,1,1
37.275,2,0,2,3,4,2,0,1
37.28,1,2,0,0,6,3,1,1
37.285,2,3,1,7,5,3,4,2
37.29,0,2,1,0,0,0,0,0
37.295,1,4,9,15,4,2,0,1
37.3,7,2,2,10,1,0,1,1
37.305,1,4,4,15,4,3,3,3
37.31,2,1,3,45,4,0,0,1
37.315,5,6,14,8,6,5,6,4
37.32,5,13,18,74,28,10,5,4
37.325,2,5,14,48,11,3,2,3
37.33,6,5,14,77,12,5,1,2
37.335,6,8,20,26,25,9,4,4
37.34,2,1,4,9,8,4,2,2
37.345,3,5,11,28,3,0,2,2
37.35,2,3,2,3,4,1,1,2
37.355,1,1,0,5,6,3,2,1
37.36,1,0,3,21,1,1,0,1
37.365,3,5,5,32,10,5,3,2
37.37,1,1,3,18,3,2,1,1
37.375,6,9,11,15,24,11,7,7
37.38,5,9,20,46,15,8,6,3
37.385,5,10,18,26,11,5,4,2
37.39,6,2,5,54,15,6,1,3
37.395,9,0,4,63,2,0,0,3
37.4,1,0,11,127,16,0,1,2
37.405,5,4,4,104,11,1,1,1
37.41,13,19,40,7,49,20,11,10
37.415,2,2,10,46,9,3,1,3
37.42,3,5,5,12,12,5,3,3
37.425,6,5,5,41,2,3,5,5
37.43,1,4,23,71,6,3,1,0
37.435,2,5,3,21,1,4,6,4
37.44,8,11,53,30,18,7,7,7
37.445,3,7,11,39,11,5,2,2
37.45,15,6,16,53,17,5,2,6
37.455,11,3,3,67,17,2,1,3
37.46,4,13,52,113,51,14,9,7
37.465,10,12,47,80,48,16,10,7
37.47,10,8,15,66,11,8,5,6
37.475,8,6,12,1,10,1,0,3
37.48,2,2,16,45,1,0,1,1
37.485,1,2,19,99,7,0,2,0
37.49,0,6,17,26,23,7,4,3
37.495,1,2,17,84,8,1,1,1
37.5,13,18,42,16,33,16,11,11
37.505,8,16,36,91,23,2,1,3
37.51,14,19,38,50,37,11,8,8
37.515,7,12,42,80,29,11,6,7
37.52,1,8,44,4,2,3,4,6
37.525,3,3,1,12,10,10,6,3
37.53,4,12,25,30,1,0,0,2
37.535,1,4,19,44,36,1,1,1
37.54,17,25,33,44,70,25,16,12
37.545,2,3,11,84,28,8,3,1
37.55,10,22,49,3,48,18,8,3
37.555,9,13,10,19,16,9,5,6
37.56,5,16,46,21,26,10,9,7
37.565,17,11,12,91,21,5,8,13
37.57,2,13,27,82,53,9,3,3
37.575,5,11,58,89,1,5,1,0
37.58,7,7,41,86,10,3,2,3
37.585,2,7,12,87,13,2,3,3
37.59,7,23,38,39,16,18,10,9
37.595,5,8,10,127,11,9,6,7
37.6,14,18,36,42,60,18,13,11
37.605,13,15,50,26,52,17,5,3
37.61,12,11,32,78,8,7,1,1
37.615,9,15,41,78,37,18,12,11
37.62,6,10,13,77,1,11,8,7
37.625,19,37,72,44,58,29,23,19
37.63,19,38,61,127,14,27,21,17
37.635,9,17,27,127,14,13,11,8
37.64,4,15,43,84,48,4,0,0
37.645,2,8,23,117,79,8,2,1
37.65,3,3,5,77,43,6,1,2
37.655,5,12,26,9,3,3,7,5
37.66,4,5,8,34,12,10,5,4
37.665,6,8,1,113,1,7,4,3
37.67,25,40,67,49,34,29,20,18
37.675,8,10,38,101,19,4,7,6
37.68,23,34,66,33,45,28,21,16
37.685,20,30,67,7,8,22,18,15
37.69,8,14,12,128,5,6,4,5
37.695,7,16,53,12,36,7,6,4
37.7,1,6,2,127,22,1,5,0
37.705,4,5,20,50,3,0,1,0
37.71,26,13,26,32,2,7,9,15
37.715,3,1,32,102,21,4,2,4
37.72,20,30,47,14,6,24,19,16
37.725,27,48,60,28,67,43,32,27
37.73,16,13,3,85,52,25,13,9
37.735,4,18,49,114,28,18,16,13
37.74,10,34,27,15,78,44,31,22
37.745,6,10,4,88,35,11,8,8
37.75,9,10,8,37,34,17,14,9
37.755,1,11,16,73,21,9,3,5
37.76,23,18,53,81,48,12,8,11
37.765,15,18,111,127,55,16,13,16
37.77,24,34,59,24,84,34,27,19
37.775,42,39,37,62,103,45,33,29
37.78,72,50,85,50,82,41,33,32
37.785,11,26,48,86,29,33,25,22
