0.01,5,1,4,1,5,4,7,4
0.015,2,2,2,1,6,0,1,3
0.02,8,0,13,3,5,5,3,3
0.025,0,2,13,1,1,1,2,0
0.03,1,1,4,1,5,3,2,3
0.035,1,5,7,3,1,2,1,1
0.04,4,1,12,1,8,0,3,6
0.045,2,2,8,2,2,1,1,1
0.05,3,1,6,3,4,5,5,0
0.055,0,2,9,2,4,1,2,1
0.06,5,3,2,1,3,3,1,3
0.065,1,1,4,0,2,1,2,0
0.07,5,4,7,0,1,5,1,1
0.075,1,1,12,0,1,2,0,1
0.08,4,1,2,1,6,0,0,1
0.085,0,1,2,4,4,1,3,1
0.09,1,0,3,2,1,3,3,1
0.095,2,2,0,1,0,0,1,1
0.1,3,3,1,2,4,1,0,3
0.105,0,0,5,1,2,2,2,1
0.11,1,6,13,1,2,1,1,1
0.115,0,2,0,0,0,2,0,2
0.12,1,2,6,1,2,0,0,1
0.125,4,4,22,4,5,3,5,1
0.13,2,1,4,3,1,1,7,2
0.135,1,1,1,2,6,1,1,4
0.14,6,2,7,1,5,2,2,5
0.145,1,3,6,1,3,1,1,1
0.15,3,5,5,1,2,5,4,1
0.155,3,3,3,1,4,1,4,1
0.16,4,0,16,2,7,2,1,2
0.165,3,8,18,2,0,3,1,2
0.17,2,1,1,0,3,5,0,2
0.175,1,1,6,2,2,0,1,2
0.18,4,3,3,5,5,0,2,6
0.185,3,3,2,1,1,0,2,1
0.19,3,0,9,3,4,5,6,0
0.195,2,4,4,2,1,0,0,1
0.2,3,3,5,3,5,1,1,3
0.205,1,4,1,1,2,2,0,1
0.21,1,5,1,3,1,2,4,0
0.215,2,2,11,1,2,0,1,3
0.22,4,4,11,0,3,0,0,3
0.225,0,1,2,1,0,1,1,1
0.23,0,1,2,1,5,1,1,3
0.235,5,8,12,4,5,5,4,3
0.24,0,1,5,1,1,1,2,1
0.245,1,1,2,3,0,4,5,0
0.25,1,2,0,1,4,0,0,1
0.255,1,0,3,2,2,1,1,2
0.26,3,8,5,6,0,1,4,4
0.265,1,1,5,1,3,0,0,2
0.27,1,2,15,1,1,1,1,1
0.275,2,3,7,2,1,3,2,0
0.28,2,1,2,1,1,2,1,0
0.285,1,3,3,1,0,1,1,1
0.29,1,1,1,4,1,2,2,1
0.295,1,0,2,4,5,1,1,2
0.3,2,0,8,4,0,1,0,0
0.305,0,0,7,4,2,5,2,1
0.31,2,1,8,1,1,2,0,1
0.315,2,2,9,2,0,1,1,2
0.32,0,2,10,1,1,0,2,1
0.325,1,6,5,1,1,1,0,0
0.33,2,5,7,1,2,5,2,2
0.335,2,7,8,0,0,1,0,1
0.34,1,2,27,6,1,1,1,3
0.345,0,3,0,1,1,2,2,1
0.35,1,1,1,1,1,2,2,1
0.355,1,3,1,2,4,0,0,1
0.36,0,4,1,0,0,1,1,1
0.365,3,2,22,4,2,1,1,1
0.37,1,1,1,8,2,2,1,1
0.375,4,6,12,0,1,0,1,2
0.38,1,2,3,1,1,0,1,3
0.385,0,1,2,2,1,4,3,1
0.39,1,4,6,2,1,1,4,0
0.395,3,8,4,1,2,1,0,1
0.4,2,1,8,1,3,3,1,0
0.405,1,4,4,2,1,1,1,2
0.41,0,1,5,1,2,1,0,1
0.415,1,0,2,1,1,1,2,1
0.42,2,1,3,2,3,0,1,2
0.425,1,1,10,2,3,1,0,1
0.43,4,2,0,0,2,2,1,1
0.435,1,1,2,6,1,2,3,0
0.44,2,6,2,1,2,0,1,1
0.445,2,3,6,1,2,2,1,1
0.45,0,5,5,1,2,3,2,0
0.455,1,1,4,4,2,2,1,0
0.46,1,2,7,0,0,3,0,2
0.465,1,1,5,1,1,2,1,2
0.47,1,6,4,2,3,5,0,1
0.475,3,4,4,2,3,0,2,1
0.48,3,6,1,1,3,1,1,2
0.485,3,17,6,0,2,2,2,2
0.49,1,2,9,0,0,2,1,2
0.495,0,2,10,3,0,1,3,2
0.5,0,0,8,4,1,1,3,1
0.505,0,5,6,1,1,3,1,1
0.51,4,7,1,0,2,0,1,1
0.515,2,10,2,4,0,1,0,3
0.52,3,9,3,0,0,4,1,2
0.525,1,3,2,0,1,0,1,1
0.53,1,6,6,4,2,1,3,0
0.535,0,3,11,3,1,1,1,0
0.54,1,4,4,1,0,1,0,0
0.545,1,1,4,3,3,2,2,2
0.55,0,1,4,3,1,1,2,1
0.555,3,5,11,2,0,1,1,1
0.56,0,8,11,3,1,2,0,0
0.565,3,8,2,7,1,3,2,0
0.57,3,1,0,0,0,2,1,3
0.575,0,1,2,0,1,2,0,2
0.58,4,4,3,3,1,0,2,3
0.585,1,0,0,0,0,1,0,1
0.59,2,0,3,1,0,3,1,3
0.595,1,8,9,3,1,3,3,0
0.6,2,4,7,1,0,1,1,0
0.605,2,18,20,0,1,0,4,1
0.61,2,2,1,1,0,2,2,1
0.615,0,3,9,0,3,1,1,0
0.62,1,7,6,0,1,2,3,0
0.625,2,5,4,1,1,1,2,0
0.63,1,2,6,5,3,3,1,1
0.635,3,4,1,1,0,1,0,2
0.64,4,2,3,2,2,2,2,2
0.645,3,2,7,1,1,3,1,2
0.65,2,3,6,1,2,4,4,1
0.655,1,2,3,3,0,0,1,0
0.66,1,2,8,4,3,2,2,0
0.665,0,0,6,1,0,0,1,2
0.67,0,2,7,0,1,2,0,1
0.675,2,3,13,4,3,2,2,0
0.68,3,6,9,1,1,2,2,1
0.685,2,4,4,1,2,1,1,1
0.69,3,11,2,1,1,3,1,1
0.695,1,1,2,3,0,1,0,2
0.7,2,3,1,3,0,2,0,1
0.705,3,13,10,3,3,0,0,0
0.71,3,8,12,2,4,1,2,2
0.715,1,1,6,2,2,1,0,1
0.72,2,1,4,2,0,1,2,0
0.725,3,0,3,1,3,1,2,2
0.73,0,2,0,4,1,0,2,1
0.735,1,4,2,1,0,1,2,1
0.74,1,3,0,0,2,1,2,1
0.745,2,1,16,4,0,6,0,0
0.75,3,1,3,4,1,3,1,2
0.755,1,2,5,3,3,1,2,2
0.76,2,2,3,2,2,2,0,2
0.765,0,1,3,1,1,1,4,1
0.77,1,2,1,1,2,1,2,1
0.775,3,2,1,1,2,3,0,1
0.78,2,2,6,3,4,1,3,0
0.785,1,0,1,1,1,1,2,1
0.79,1,3,5,1,5,2,1,2
0.795,0,3,1,0,1,0,1,3
0.8,0,10,5,0,1,0,1,1
0.805,4,8,4,2,1,1,1,2
0.81,2,2,1,4,1,2,2,1
0.815,0,4,8,1,3,1,4,2
0.82,2,6,5,3,2,1,3,3
0.825,2,1,5,0,2,4,1,2
0.83,2,4,6,1,2,2,1,1
0.835,1,1,13,2,2,0,0,2
0.84,0,2,10,1,2,2,1,1
0.845,1,10,12,1,0,2,1,1
0.85,4,20,6,0,1,2,4,1
0.855,2,2,9,3,3,0,1,1
0.86,1,3,0,0,2,1,2,0
0.865,0,0,6,2,0,2,1,1
0.87,2,1,26,3,2,1,4,2
0.875,3,0,8,1,2,1,1,1
0.88,1,1,3,1,0,2,1,2
0.885,3,2,7,2,0,1,0,2
0.89,1,5,3,2,1,0,0,3
0.895,2,10,2,3,1,3,2,1
0.9,1,4,9,0,1,1,4,1
0.905,3,4,22,1,0,3,4,0
0.91,3,6,10,4,1,3,0,1
0.915,6,2,18,2,2,4,2,4
0.92,2,2,5,1,2,1,1,2
0.925,7,2,9,0,1,0,2,3
0.93,6,5,22,1,4,0,4,2
0.935,0,3,3,5,2,2,1,1
0.94,1,3,5,0,0,2,1,1
0.945,3,2,2,1,0,2,1,1
0.95,1,3,5,2,1,1,0,2
0.955,3,3,6,4,2,2,0,1
0.96,3,1,8,1,1,2,1,1
0.965,1,4,0,2,3,2,3,1
0.97,0,5,1,0,2,3,0,1
0.975,1,3,2,1,2,0,1,2
0.98,1,3,2,1,1,1,1,1
0.985,0,5,9,5,2,0,1,3
0.99,2,6,4,2,0,4,3,1
0.995,0,2,3,1,2,2,3,2
1,1,3,5,4,1,0,2,2
1.005,0,5,9,0,2,0,0,1
1.01,1,3,1,0,0,3,1,2
1.015,0,1,11,2,1,3,1,1
1.02,0,3,20,1,0,2,1,1
1.025,6,9,34,3,3,3,3,2
1.03,1,5,9,0,1,2,1,1
1.035,2,5,22,3,1,1,2,3
1.04,0,1,11,1,1,3,0,2
1.045,2,6,1,2,0,2,5,1
1.05,0,0,1,1,3,1,1,1
1.055,2,0,2,2,0,1,2,1
1.06,2,2,9,3,1,0,3,2
1.065,2,2,3,2,2,1,0,3
1.07,1,4,5,0,0,1,1,2
1.075,1,2,1,2,1,1,2,3
1.08,0,2,8,3,1,1,1,1
1.085,1,6,12,4,0,2,0,1
1.09,0,8,7,1,2,0,1,1
1.095,1,3,5,1,1,2,2,3
1.1,1,6,1,3,0,1,1,1
1.105,2,3,8,1,1,0,0,1
1.11,1,3,9,3,1,1,0,2
1.115,2,3,2,1,1,2,1,0
1.12,3,1,16,4,3,4,3,3
1.125,1,2,13,1,1,2,1,2
1.13,1,8,8,0,0,2,1,1
1.135,1,1,10,1,2,0,0,2
1.14,1,6,2,1,0,1,3,2
1.145,1,4,5,0,2,1,0,0
1.15,2,1,7,4,3,2,0,0
1.155,1,3,2,1,2,1,1,1
1.16,0,4,3,2,3,1,1,0
1.165,0,1,2,1,3,2,4,2
1.17,1,1,4,2,1,2,2,1
1.175,1,1,2,1,0,0,1,1
1.18,0,4,1,1,2,2,2,3
1.185,1,0,5,2,1,2,2,1
1.19,3,2,14,1,2,2,1,1
1.195,2,4,7,1,3,3,0,0
1.2,7,18,5,5,0,1,3,1
1.205,2,10,1,3,5,2,1,1
1.21,0,3,5,2,1,0,3,1
1.215,3,6,1,2,2,0,0,0
1.22,1,4,3,3,2,1,2,0
1.225,2,5,3,1,1,1,0,1
1.23,1,0,8,3,4,0,1,2
1.235,1,4,12,1,2,1,1,2
1.24,0,2,16,3,2,2,1,2
1.245,1,5,0,4,1,1,1,1
1.25,0,2,1,1,1,1,1,0
1.255,1,3,3,0,0,1,1,2
1.26,1,1,1,1,3,1,2,2
1.265,5,8,9,3,5,1,3,3
1.27,2,1,6,2,1,1,3,3
1.275,2,10,16,2,0,3,1,2
1.28,5,16,20,5,0,1,1,1
1.285,0,3,5,2,1,2,0,1
1.29,2,2,1,1,1,0,1,0
1.295,1,0,0,1,0,0,3,2
1.3,1,8,5,3,1,1,0,1
1.305,0,5,9,1,2,1,2,1
1.31,2,3,5,3,1,1,1,0
1.315,2,7,3,2,2,2,0,1
1.32,3,4,0,4,1,2,2,2
1.325,2,1,10,0,1,3,1,2
1.33,3,20,9,1,5,1,0,2
1.335,7,22,4,3,2,1,1,0
1.34,4,7,0,3,0,1,0,1
1.345,3,10,4,2,0,2,3,1
1.35,1,12,17,4,0,1,2,2
1.355,0,2,0,3,3,2,0,3
1.36,2,9,5,0,1,0,2,0
1.365,0,1,1,3,0,1,2,1
1.37,5,8,7,5,3,2,0,1
1.375,3,2,9,1,4,2,3,1
1.38,4,5,14,2,2,3,1,0
1.385,0,2,3,1,0,0,1,1
1.39,1,1,12,1,1,1,2,1
1.395,5,5,13,3,5,1,3,2
1.4,0,3,2,1,1,1,1,1
1.405,2,2,13,5,2,1,1,1
1.41,3,9,2,5,1,4,4,2
1.415,0,7,5,0,1,1,2,1
1.42,1,1,10,4,2,0,0,1
1.425,4,4,2,1,1,1,1,0
1.43,0,1,8,2,2,1,0,2
1.435,0,5,10,0,2,3,0,3
1.44,3,8,24,2,2,3,1,2
1.445,2,8,8,0,2,2,1,1
1.45,4,2,1,3,4,1,1,1
1.455,2,6,8,3,1,2,2,0
1.46,1,6,8,1,1,2,0,1
1.465,1,8,18,3,5,3,1,2
1.47,0,0,2,4,1,2,1,1
1.475,1,6,2,1,1,0,1,2
1.48,3,1,3,4,2,0,1,2
1.485,2,8,1,1,1,0,4,0
1.49,5,10,8,1,3,0,1,0
1.495,1,1,5,1,0,1,1,2
1.5,2,2,6,1,1,0,0,0
1.505,2,7,3,4,3,4,1,0
1.51,8,16,11,5,2,4,3,2
1.515,1,3,6,1,1,1,2,2
1.52,1,0,7,2,2,1,2,1
1.525,4,5,13,2,0,2,2,2
1.53,1,5,2,1,1,2,2,2
1.535,1,6,4,2,1,4,2,2
1.54,0,1,2,1,0,1,0,0
1.545,1,1,0,1,1,1,1,2
1.55,1,7,8,4,1,1,2,3
1.555,1,7,1,0,1,1,1,2
1.56,1,3,4,3,2,1,2,1
1.565,5,10,24,4,1,3,0,1
1.57,1,0,7,3,2,1,2,0
1.575,3,5,1,0,0,0,2,1
1.58,1,2,3,3,3,3,1,0
1.585,0,4,12,1,2,1,1,2
1.59,1,2,0,3,1,1,2,1
1.595,4,7,10,8,4,0,5,2
1.6,1,3,8,4,1,0,0,1
1.605,0,1,4,5,2,1,1,1
1.61,2,5,0,0,1,2,1,2
1.615,1,2,9,1,1,1,2,1
1.62,3,6,9,5,2,1,0,1
1.625,2,1,6,0,3,1,0,0
1.63,2,6,11,2,1,2,1,2
1.635,4,3,2,2,0,2,1,1
1.64,0,2,1,0,1,2,2,2
1.645,3,2,15,0,2,1,3,0
1.65,1,0,10,1,1,2,1,0
1.655,1,1,13,2,1,4,0,1
1.66,2,3,7,3,1,1,3,4
1.665,2,0,0,2,0,0,1,1
1.67,3,3,2,3,2,2,2,3
1.675,0,2,0,2,2,1,0,1
1.68,4,0,7,0,2,0,1,0
1.685,1,3,4,4,0,2,2,0
1.69,2,2,2,1,0,1,0,2
1.695,1,1,2,2,1,1,1,0
1.7,2,5,4,4,1,1,1,2
1.705,2,0,18,3,0,0,2,1
1.71,2,6,23,2,2,0,0,1
1.715,9,5,5,0,1,4,1,4
1.72,0,3,5,3,3,1,1,2
1.725,0,7,1,0,1,3,3,0
1.73,1,9,7,2,2,0,0,1
1.735,1,5,23,4,5,0,1,1
1.74,1,3,3,2,2,1,4,1
1.745,2,2,5,2,1,2,0,2
1.75,2,9,5,2,1,2,2,3
1.755,1,2,4,0,0,0,2,1
1.76,4,5,4,0,2,1,0,2
1.765,0,3,1,1,2,1,4,2
1.77,0,2,3,0,1,0,0,1
1.775,0,3,19,8,1,1,3,2
1.78,0,2,14,3,1,2,2,0
1.785,1,4,29,2,2,2,1,2
1.79,3,3,1,1,1,2,2,2
1.795,2,5,9,1,1,1,2,1
1.8,3,8,3,3,1,3,1,0
1.805,1,7,21,3,3,0,0,1
1.81,4,1,10,1,1,1,0,0
1.815,2,3,14,3,0,0,0,0
1.82,3,6,8,2,2,1,1,2
1.825,1,8,20,2,5,0,0,1
1.83,2,11,27,3,4,3,1,1
1.835,0,0,6,1,3,2,2,1
1.84,2,2,1,1,3,2,1,1
1.845,3,4,8,2,2,1,0,0
1.85,0,1,1,0,1,2,0,0
1.855,2,2,1,2,2,2,0,1
1.86,0,2,6,3,1,0,0,1
1.865,5,4,3,4,3,4,3,2
1.87,1,3,12,1,3,0,2,0
1.875,1,1,5,0,1,3,1,1
1.88,0,0,4,4,3,0,2,0
1.885,0,5,4,2,2,1,2,1
1.89,0,2,1,2,0,1,2,1
1.895,3,4,9,1,2,2,2,2
1.9,4,4,11,0,3,1,2,3
1.905,2,6,9,5,5,3,2,4
1.91,1,7,12,2,1,1,1,5
1.915,3,11,6,1,0,1,0,1
1.92,2,2,1,3,2,1,1,4
1.925,1,1,6,0,0,2,2,1
1.93,3,3,9,3,2,2,2,2
1.935,1,4,2,2,4,1,2,1
1.94,2,2,29,4,2,3,2,1
1.945,4,8,8,1,2,1,3,0
1.95,0,2,7,1,2,2,0,1
1.955,3,1,1,1,3,1,2,1
1.96,2,3,7,4,2,2,0,1
1.965,0,6,0,1,1,2,1,1
1.97,1,6,3,4,1,0,0,1
1.975,3,8,7,3,6,2,1,0
1.98,3,8,4,5,2,3,0,2
1.985,0,1,4,2,2,1,0,0
1.99,0,2,5,4,1,0,1,1
1.995,3,2,0,1,3,2,0,3
2,1,13,4,1,2,0,1,2
2.005,4,6,3,0,3,3,1,0
2.01,1,3,1,2,0,0,2,0
2.015,0,2,6,0,1,0,2,1
2.02,3,14,30,2,3,3,2,0
2.025,1,3,2,4,0,2,0,1
2.03,2,0,6,3,2,1,2,1
2.035,2,1,5,1,1,6,4,0
2.04,2,3,16,2,2,3,2,2
2.045,1,2,15,3,3,0,3,1
2.05,2,1,12,2,2,2,1,2
2.055,3,1,8,2,1,5,1,1
2.06,3,2,2,3,0,2,2,0
2.065,4,2,0,3,4,1,2,1
2.07,7,4,7,0,3,2,4,2
2.075,2,1,5,0,0,1,2,1
2.08,7,22,4,6,1,2,2,5
2.085,2,3,3,0,1,2,2,2
2.09,2,13,3,0,1,0,2,0
2.095,1,1,4,1,0,3,3,2
2.1,21,75,19,2,6,1,5,7
2.105,0,41,10,3,3,7,4,1
2.11,3,19,25,2,0,0,2,4
2.115,10,27,22,5,1,0,0,0
2.12,2,9,9,2,3,4,3,1
2.125,23,1,16,3,4,13,10,2
2.13,6,17,4,1,1,0,1,0
2.135,16,14,8,5,5,5,5,13
2.14,5,26,0,2,4,3,2,2
2.145,16,11,5,2,2,5,6,6
2.15,3,30,21,4,5,1,2,1
2.155,6,7,16,4,2,0,1,2
2.16,5,16,2,1,1,6,3,3
2.165,1,2,7,3,1,1,0,0
2.17,1,14,18,2,1,1,3,1
2.175,4,9,3,3,3,3,2,2
2.18,14,22,6,6,0,2,3,9
2.185,8,32,20,0,6,2,1,0
2.19,11,28,22,4,2,1,2,0
2.195,2,5,27,5,1,4,1,1
2.2,1,5,1,2,4,1,3,8
2.205,3,11,8,1,0,1,7,25
2.21,4,1,13,0,3,1,2,6
2.215,5,8,27,5,2,1,5,9
2.22,6,10,6,2,2,0,1,6
2.225,1,3,31,5,1,2,1,1
2.23,2,0,32,2,3,2,0,1
2.235,4,3,6,5,3,1,1,4
2.24,4,13,11,2,0,1,3,4
2.245,1,4,8,1,0,2,1,9
2.25,3,3,3,3,2,1,1,8
2.255,2,0,17,0,1,5,8,0
2.26,2,19,9,3,2,2,3,4
2.265,0,7,6,1,1,0,2,1
2.27,5,8,4,0,0,1,2,2
2.275,6,7,5,2,2,2,2,2
2.28,1,19,20,6,7,2,3,0
2.285,3,27,15,4,2,1,1,1
2.29,1,3,9,3,0,0,2,2
2.295,1,20,16,2,2,2,3,2
2.3,13,0,4,1,5,2,3,2
2.305,2,6,12,1,3,1,0,1
2.31,0,3,0,4,2,0,1,3
2.315,0,12,9,3,3,2,0,1
2.32,4,19,19,3,2,2,1,10
2.325,3,2,5,5,1,4,3,6
2.33,5,5,6,0,2,1,1,8
2.335,4,8,2,1,2,5,3,1
2.34,11,47,13,4,1,1,2,5
2.345,3,11,6,2,2,3,5,11
2.35,1,4,10,3,2,0,1,8
2.355,6,1,2,0,5,0,1,13
2.36,5,9,24,4,1,2,1,5
2.365,3,6,13,0,1,2,6,22
2.37,7,2,21,4,5,2,3,5
2.375,5,22,5,0,8,1,3,4
2.38,7,0,6,1,10,6,2,0
2.385,4,6,12,2,6,2,1,9
2.39,0,3,13,3,4,5,4,3
2.395,0,29,47,8,9,5,5,0
2.4,1,13,9,2,4,0,0,2
2.405,4,11,10,3,8,3,3,2
2.41,0,4,3,3,5,2,0,1
2.415,7,7,4,1,5,1,1,7
2.42,2,13,3,0,8,4,9,6
2.425,3,3,5,0,4,2,1,3
2.43,5,9,6,2,5,1,4,7
2.435,4,0,1,1,10,3,5,4
2.44,0,15,25,5,4,6,7,9
2.445,2,5,2,2,1,5,0,5
2.45,10,16,6,3,3,5,3,10
2.455,3,42,12,2,2,6,6,2
2.46,1,33,10,2,1,1,1,4
2.465,4,11,7,6,1,4,3,1
2.47,3,2,1,2,2,5,3,1
2.475,2,11,2,1,5,1,1,1
2.48,2,13,3,3,3,1,2,1
2.485,6,15,3,1,4,2,2,2
2.49,2,1,9,1,2,3,0,2
2.495,4,8,23,4,2,2,2,1
2.5,8,17,5,0,8,1,0,5
2.505,7,11,12,5,5,1,3,5
2.51,12,14,5,0,4,2,3,9
2.515,4,1,1,4,3,1,3,1
2.52,13,36,5,4,5,1,1,4
2.525,6,15,3,4,5,0,2,3
2.53,5,7,1,0,1,0,3,8
2.535,1,9,17,1,6,2,2,1
2.54,2,2,0,4,2,2,1,0
2.545,0,2,2,3,5,0,5,1
2.55,11,16,10,2,4,0,1,7
2.555,5,9,6,4,5,2,3,3
2.56,0,11,8,1,3,0,0,3
2.565,2,5,14,2,4,1,0,2
2.57,2,7,9,2,9,1,0,1
2.575,0,10,14,0,4,0,0,1
2.58,0,8,23,2,3,1,1,2
2.585,2,5,10,0,1,2,2,1
2.59,2,5,4,3,6,1,1,3
2.595,5,15,7,4,6,4,1,1
2.6,4,10,9,2,2,2,2,1
2.605,3,10,5,1,4,1,3,2
2.61,3,5,11,6,4,1,2,3
2.615,8,19,13,2,1,1,3,5
2.62,2,1,7,2,0,0,2,1
2.625,4,6,18,2,5,0,1,0
2.63,1,5,9,4,1,1,0,3
2.635,0,6,14,2,4,1,3,1
2.64,7,4,11,12,8,3,2,3
2.645,0,6,8,6,5,2,0,1
2.65,1,3,4,4,7,3,1,1
2.655,6,15,5,3,5,3,0,5
2.66,1,12,1,1,2,1,0,2
2.665,8,6,8,14,6,6,2,1
2.67,6,10,8,1,5,2,4,2
2.675,3,8,10,4,4,3,1,1
2.68,3,5,6,1,3,1,1,0
2.685,0,9,8,4,3,2,1,3
2.69,4,5,2,4,0,1,1,3
2.695,3,5,4,1,2,2,2,1
2.7,1,11,15,3,4,3,1,2
2.705,1,1,18,2,2,4,2,2
2.71,1,2,17,2,2,2,0,1
2.715,1,8,19,1,0,0,0,3
2.72,4,4,11,7,2,1,3,2
2.725,3,8,2,1,5,3,1,1
2.73,2,17,4,2,4,3,0,3
2.735,13,23,8,4,3,3,4,3
2.74,3,5,1,1,1,0,0,1
2.745,3,13,0,0,6,0,1,1
2.75,0,15,2,5,2,0,1,2
2.755,1,11,0,4,3,0,1,1
2.76,1,5,10,3,3,1,1,0
2.765,2,5,5,3,1,1,0,1
2.77,3,9,5,0,2,2,1,0
2.775,2,12,24,5,4,3,1,0
2.78,4,8,15,9,3,0,2,1
2.785,1,18,4,1,1,0,3,1
2.79,4,32,17,5,4,2,2,2
2.795,1,6,7,2,2,2,2,2
2.8,0,9,2,2,6,2,1,1
2.805,3,9,3,4,0,3,0,1
2.81,6,20,9,0,0,1,2,0
2.815,1,1,6,2,2,5,1,1
2.82,1,8,4,2,4,0,1,3
2.825,1,2,12,8,4,4,6,3
2.83,0,10,9,1,7,2,0,1
2.835,6,12,10,1,2,2,1,1
2.84,6,8,5,4,7,2,2,2
2.845,2,6,7,2,3,2,3,1
2.85,1,5,9,2,2,2,2,2
2.855,0,3,3,5,2,3,2,0
2.86,4,6,4,7,3,0,1,3
2.865,2,0,7,3,6,0,0,4
2.87,1,3,5,2,7,2,1,1
2.875,7,16,19,2,5,4,3,5
2.88,4,8,1,1,8,0,1,1
2.885,2,11,13,3,7,4,3,1
2.89,4,2,4,1,5,2,3,2
2.895,6,9,5,4,6,0,1,2
2.9,2,10,13,2,6,1,0,0
2.905,11,19,1,7,1,5,4,5
2.91,11,20,1,5,1,3,3,3
2.915,4,7,5,1,1,1,2,1
2.92,0,1,2,0,0,1,1,4
2.925,2,8,11,6,3,0,1,0
2.93,3,1,0,2,1,2,1,1
2.935,3,2,1,4,2,1,2,2
2.94,8,16,5,0,0,2,1,3
2.945,2,13,5,1,3,3,1,3
2.95,3,7,5,5,1,4,2,1
2.955,3,34,5,2,1,2,1,1
2.96,11,36,14,0,4,4,5,0
2.965,1,3,9,3,2,0,0,1
2.97,1,1,10,4,1,3,1,0
2.975,5,10,5,3,6,0,1,1
2.98,0,1,2,5,2,3,3,2
2.985,7,19,1,1,0,1,0,1
2.99,2,6,3,1,1,0,1,1
2.995,1,3,0,1,2,1,1,4
3,9,15,5,3,2,1,1,1
3.005,5,3,26,3,3,4,1,2
3.01,1,13,14,3,6,4,3,2
3.015,1,2,9,0,1,1,1,1
3.02,2,2,0,1,3,1,2,0
3.025,2,1,0,2,6,0,0,0
3.03,2,0,3,3,4,2,3,2
3.035,3,8,16,4,3,5,5,4
3.04,10,32,5,8,2,2,1,2
3.045,3,10,9,8,4,5,1,1
3.05,1,22,2,7,4,1,2,0
3.055,1,5,4,4,1,1,0,0
3.06,7,12,7,1,1,5,3,2
3.065,4,14,15,4,1,0,2,0
3.07,1,7,30,4,2,0,1,1
3.075,0,2,3,2,0,3,2,1
3.08,1,3,0,0,5,4,2,0
3.085,0,1,6,1,2,2,2,1
3.09,1,2,4,2,5,1,3,1
3.095,1,7,11,4,5,6,4,2
3.1,2,2,2,4,4,2,1,0
3.105,5,21,7,8,6,3,4,1
3.11,5,19,5,2,1,1,0,1
3.115,5,9,1,1,2,1,1,1
3.12,8,22,3,1,1,3,2,2
3.125,2,8,6,6,0,3,0,2
3.13,6,11,4,0,5,3,2,2
3.135,4,9,0,1,3,3,2,0
3.14,5,12,11,6,3,2,1,1
3.145,1,1,3,0,5,3,0,0
3.15,2,5,7,2,3,1,1,2
3.155,6,0,5,3,0,2,2,0
3.16,3,15,20,1,2,2,3,3
3.165,0,5,11,5,1,2,2,4
3.17,2,4,3,6,3,0,1,0
3.175,1,2,9,0,2,1,0,1
3.18,1,2,8,1,7,0,0,2
3.185,3,16,7,10,2,2,3,1
3.19,4,4,2,4,0,4,2,3
3.195,2,5,13,0,2,3,2,3
3.2,2,12,2,1,4,3,1,4
3.205,6,22,14,6,0,2,5,2
3.21,3,6,0,3,1,3,3,0
3.215,3,3,1,4,2,0,3,1
3.22,1,8,3,2,4,3,2,0
3.225,2,4,0,5,3,0,2,2
3.23,0,3,2,2,5,0,0,3
3.235,3,0,1,0,8,2,1,4
3.24,4,8,2,5,6,3,1,4
3.245,3,4,7,6,6,2,1,1
3.25,4,1,1,2,6,2,0,4
3.255,1,27,5,1,5,1,1,1
3.26,5,22,8,2,5,1,2,3
3.265,1,3,2,11,8,2,2,0
3.27,6,0,9,2,11,0,0,1
3.275,4,7,0,1,11,1,1,4
3.28,4,11,1,6,11,3,2,2
3.285,2,16,11,3,9,0,1,1
3.29,6,13,1,3,7,2,1,2
3.295,5,16,1,5,6,1,1,4
3.3,5,7,9,5,7,1,1,2
3.305,1,7,2,7,7,1,1,3
3.31,4,1,5,1,5,4,1,4
3.315,1,4,6,1,5,1,1,4
3.32,5,2,4,1,10,1,1,2
3.325,8,10,2,3,4,0,0,4
3.33,4,3,4,8,5,2,2,4
3.335,1,9,3,6,6,3,2,1
3.34,5,0,6,8,5,4,1,0
3.345,9,30,0,1,6,3,2,1
3.35,4,6,10,2,3,0,1,1
3.355,5,2,2,1,1,2,3,3
3.36,6,15,14,2,4,0,1,1
3.365,5,9,17,2,2,3,1,2
3.37,1,5,2,0,1,2,3,2
3.375,0,2,1,4,1,2,2,0
3.38,6,16,5,4,0,2,0,3
3.385,7,17,0,6,3,3,2,3
3.39,0,4,4,3,2,3,4,1
3.395,4,23,5,0,4,4,1,0
3.4,1,4,4,2,1,2,0,0
3.405,2,18,2,0,1,0,1,3
3.41,7,16,5,2,0,0,3,3
3.415,4,7,1,3,1,0,1,1
3.42,0,6,3,1,0,3,2,3
3.425,0,7,4,0,3,0,1,0
3.43,2,6,8,2,3,3,0,1
3.435,3,16,17,6,0,0,1,2
3.44,3,6,6,0,1,0,2,1
3.445,4,14,6,1,3,1,2,0
3.45,3,12,7,1,3,1,1,1
3.455,2,9,4,4,1,5,0,3
3.46,1,9,1,0,0,2,3,2
3.465,0,1,0,1,2,1,1,3
3.47,1,0,2,4,0,2,0,1
3.475,3,0,5,0,1,4,3,1
3.48,1,18,4,5,2,2,0,2
3.485,6,24,17,6,4,1,0,2
3.49,3,2,4,0,3,3,2,2
3.495,1,3,5,2,5,3,2,0
3.5,3,1,2,1,3,3,2,0
3.505,6,24,0,5,3,2,1,2
3.51,1,26,5,4,2,2,2,1
3.515,1,16,1,1,1,1,1,2
3.52,0,13,5,2,6,3,2,1
3.525,2,5,1,0,4,4,2,1
3.53,1,6,2,3,3,1,3,0
3.535,5,7,9,0,4,3,4,0
3.54,1,3,1,3,0,2,1,0
3.545,4,5,2,6,4,3,3,0
3.55,1,11,24,8,1,3,2,1
3.555,1,5,1,3,1,1,0,1
3.56,3,3,8,2,1,2,2,2
3.565,3,6,6,8,0,2,2,5
3.57,3,1,26,7,1,4,4,3
3.575,8,16,19,4,2,1,1,2
3.58,1,6,4,6,4,4,3,1
3.585,4,11,17,7,4,2,2,4
3.59,6,8,3,3,1,3,3,1
3.595,7,36,15,5,3,3,1,5
3.6,1,6,8,1,7,0,1,3
3.605,3,11,5,3,5,0,1,3
3.61,5,7,1,3,6,2,2,2
3.615,3,0,7,0,9,0,2,1
3.62,2,2,4,1,4,1,2,4
3.625,5,2,11,4,6,3,1,3
3.63,2,5,2,1,9,4,1,3
3.635,5,3,3,5,7,2,1,3
3.64,7,3,6,3,12,2,5,4
3.645,5,3,14,6,11,1,0,3
3.65,2,1,8,7,5,1,1,2
3.655,1,0,7,4,7,1,2,3
3.66,4,14,14,2,8,6,3,2
3.665,1,2,4,12,7,1,1,0
3.67,2,6,4,5,6,1,1,4
3.675,3,0,11,1,8,0,0,4
3.68,14,27,10,3,4,2,3,6
3.685,4,6,13,0,6,1,2,2
3.69,4,2,17,3,6,0,1,2
3.695,2,4,24,1,0,3,3,1
3.7,0,0,13,2,2,0,2,1
3.705,0,1,1,0,1,0,1,1
3.71,1,6,9,5,1,1,0,1
3.715,0,5,0,2,0,1,1,3
3.72,0,5,1,2,3,0,0,0
3.725,0,4,2,0,2,4,2,2
3.73,3,3,6,2,2,2,2,1
3.735,5,0,0,0,3,2,1,1
3.74,5,5,9,7,1,4,2,2
3.745,3,6,0,1,0,2,0,0
3.75,2,11,6,4,2,1,0,1
3.755,3,12,27,2,1,1,1,2
3.76,5,10,42,8,5,4,5,4
3.765,3,3,22,5,1,0,0,2
3.77,1,2,2,3,2,2,1,0
3.775,2,1,2,0,4,0,3,3
3.78,4,2,1,6,1,2,1,1
3.785,3,8,5,2,0,5,4,3
3.79,3,5,1,2,3,2,1,2
3.795,1,5,7,0,2,2,1,1
3.8,2,5,5,0,2,1,1,3
3.805,7,7,5,5,3,1,1,2
3.81,2,6,6,0,0,3,1,0
3.815,7,12,0,2,2,0,0,0
3.82,2,2,9,4,1,0,1,1
3.825,7,18,11,2,1,0,1,3
3.83,5,2,2,3,1,3,0,0
3.835,5,13,12,8,4,7,1,0
3.84,1,2,1,4,1,3,1,1
3.845,6,3,10,0,0,0,1,1
3.85,1,20,3,2,1,1,2,0
3.855,3,10,2,2,1,3,3,3
3.86,4,14,0,1,1,1,0,7
3.865,2,14,2,2,1,4,1,5
3.87,2,6,8,3,2,1,2,2
3.875,2,3,4,1,0,1,1,2
3.88,1,7,5,0,2,1,1,0
3.885,1,0,6,2,2,1,4,2
3.89,1,3,2,4,2,2,0,1
3.895,1,2,7,0,0,1,3,5
3.9,3,5,0,2,1,4,0,2
3.905,1,5,0,0,0,3,2,3
3.91,0,7,5,1,0,2,2,1
3.915,7,11,5,1,1,1,3,5
3.92,4,16,1,1,2,0,4,0
3.925,1,4,1,3,1,0,0,1
3.93,1,2,0,2,1,2,3,0
3.935,4,15,5,2,2,0,1,2
3.94,2,5,2,3,2,4,2,1
3.945,0,2,6,0,1,0,0,0
3.95,9,17,23,4,3,4,1,1
3.955,0,2,11,1,1,0,0,1
3.96,1,6,0,2,0,2,1,0
3.965,3,5,6,4,1,1,2,4
3.97,2,0,12,1,1,1,0,10
3.975,1,6,16,5,3,0,4,6
3.98,6,7,11,5,6,5,4,4
3.985,8,24,9,2,1,4,4,4
3.99,0,2,19,1,1,1,1,1
3.995,4,2,34,0,3,1,1,2
4,2,4,12,4,4,2,1,2
4.005,5,6,20,1,4,5,5,3
4.01,7,10,9,0,1,1,0,2
4.015,5,18,9,2,4,1,0,1
4.02,1,2,1,0,2,1,0,2
4.025,4,20,7,3,2,2,2,1
4.03,2,11,3,0,0,0,2,3
4.035,1,3,4,1,0,1,0,10
4.04,5,1,6,0,1,1,3,7
4.045,3,6,5,1,1,2,1,1
4.05,5,12,39,10,3,9,3,5
4.055,0,0,17,1,3,2,1,1
4.06,0,4,4,2,1,1,5,2
4.065,1,6,3,2,0,0,3,2
4.07,4,1,8,2,2,0,2,3
4.075,0,4,15,7,1,0,5,2
4.08,7,22,2,2,2,1,6,3
4.085,3,1,1,0,1,0,1,5
4.09,2,2,2,3,1,3,2,5
4.095,4,1,4,0,0,0,1,1
4.1,4,8,2,3,2,0,0,7
4.105,2,4,4,2,1,1,4,19
4.11,9,5,9,0,2,2,3,0
4.115,1,12,0,2,0,3,7,8
4.12,1,3,5,1,1,0,0,0
4.125,0,20,5,1,3,4,2,0
4.13,2,6,3,0,1,4,4,2
4.135,1,3,2,2,1,3,1,1
4.14,1,0,1,2,1,1,0,6
4.145,3,10,3,4,1,1,1,2
4.15,6,3,9,2,1,2,0,2
4.155,0,10,10,4,2,4,1,3
4.16,2,5,4,6,2,3,2,2
4.165,5,0,0,2,1,1,0,1
4.17,5,4,1,1,1,2,0,1
4.175,9,7,13,2,1,2,2,5
4.18,5,9,15,4,3,2,5,0
4.185,3,6,16,0,2,1,1,2
4.19,0,14,3,3,1,0,1,1
4.195,4,4,11,5,2,0,0,2
4.2,9,21,1,2,2,0,1,0
4.205,2,6,9,1,2,2,0,0
4.21,0,6,8,0,1,2,1,4
4.215,2,6,1,1,1,0,3,6
4.22,5,0,1,3,0,1,0,4
4.225,0,7,14,6,2,3,3,7
4.23,0,0,4,0,0,1,1,0
4.235,1,1,6,0,1,1,3,2
4.24,0,7,8,1,1,0,3,9
4.245,4,26,2,2,1,2,2,5
4.25,3,0,3,3,3,1,4,5
4.255,0,6,1,2,2,2,2,7
4.26,4,15,9,2,0,1,1,5
4.265,0,9,1,3,0,3,5,8
4.27,1,3,8,0,1,0,4,13
4.275,1,3,4,2,2,1,7,14
4.28,0,0,6,2,2,3,1,1
4.285,4,3,3,0,2,4,7,11
4.29,1,4,7,1,0,3,2,3
4.295,6,13,4,1,2,1,2,1
4.3,5,2,3,1,0,2,3,5
4.305,4,2,2,3,1,1,1,9
4.31,3,14,12,2,2,1,1,4
4.315,4,6,31,6,4,2,3,2
4.32,1,6,12,1,1,1,1,1
4.325,5,18,3,4,1,5,2,2
4.33,3,0,53,3,5,2,2,6
4.335,3,9,9,2,1,2,2,1
4.34,1,1,8,4,4,1,1,3
4.345,1,2,22,1,0,3,2,11
4.35,2,5,0,1,1,1,1,3
4.355,0,7,5,3,5,2,1,1
4.36,1,6,12,3,2,1,3,1
4.365,1,6,14,0,1,2,0,6
4.37,8,15,4,4,1,0,3,8
4.375,4,23,7,4,1,2,5,8
4.38,1,7,22,5,3,0,1,1
4.385,1,5,15,1,1,0,3,4
4.39,4,3,6,1,1,3,3,0
4.395,3,2,4,0,4,0,7,23
4.4,7,5,5,1,2,2,10,27
4.405,1,2,1,3,3,2,7,4
4.41,2,10,4,2,1,4,1,12
4.415,5,1,2,0,1,1,6,17
4.42,3,7,6,4,0,1,1,9
4.425,4,11,0,0,2,1,1,3
4.43,2,7,7,3,1,3,4,7
4.435,1,10,4,0,4,2,1,6
4.44,1,4,4,0,2,1,3,1
4.445,2,10,4,0,1,1,4,6
4.45,3,2,8,1,1,0,0,3
4.455,3,3,4,3,2,1,2,2
4.46,15,28,24,12,8,8,7,9
4.465,10,7,25,2,1,3,1,1
4.47,1,5,10,1,2,1,3,4
4.475,1,6,17,1,5,3,4,4
4.48,5,5,21,2,0,3,2,3
4.485,2,3,4,4,3,5,3,3
4.49,2,3,19,1,2,1,4,4
4.495,1,6,31,8,1,1,7,1
4.5,1,0,21,0,0,2,2,2
4.505,2,1,6,2,3,1,2,3
4.51,2,6,6,1,0,3,0,2
4.515,0,5,6,3,1,2,2,1
4.52,3,7,5,3,1,1,1,4
4.525,2,5,4,2,2,1,0,3
4.53,1,1,4,1,1,0,0,1
4.535,4,1,2,0,2,5,2,1
4.54,0,2,6,4,1,0,1,0
4.545,2,3,10,6,2,2,6,3
4.55,3,6,10,1,3,2,1,1
4.555,1,2,8,1,1,0,2,2
4.56,0,2,11,1,2,0,1,1
4.565,1,2,0,1,3,1,1,0
4.57,4,13,4,2,1,1,5,0
4.575,5,0,0,0,2,3,2,2
4.58,1,2,2,5,1,0,1,0
4.585,0,0,2,3,1,2,2,0
4.59,4,6,6,1,1,4,0,4
4.595,1,1,3,0,0,2,1,1
4.6,2,3,7,2,2,2,1,1
4.605,1,0,2,2,1,1,3,1
4.61,2,4,7,2,2,2,1,0
4.615,1,1,5,1,0,0,2,1
4.62,0,1,5,1,2,1,1,2
4.625,2,2,1,1,1,3,2,1
4.63,1,1,3,1,1,1,0,0
4.635,2,4,4,2,2,2,0,0
4.64,3,1,2,2,2,1,0,1
4.645,1,1,14,0,0,1,1,1
4.65,1,0,6,5,1,2,1,2
4.655,1,6,6,1,0,2,2,2
4.66,3,3,1,1,1,1,1,1
4.665,1,3,4,4,4,3,4,2
4.67,4,4,7,3,1,0,3,2
4.675,1,1,5,3,1,1,1,2
4.68,1,4,12,2,1,1,1,1
4.685,1,7,27,6,0,0,1,1
4.69,1,2,15,2,1,2,3,3
4.695,8,17,9,1,2,1,2,1
4.7,1,2,5,3,4,3,1,5
4.705,13,24,2,2,0,5,0,4
4.71,3,14,8,1,1,0,0,0
4.715,1,0,4,2,1,2,1,1
4.72,1,2,2,1,1,2,1,1
4.725,1,0,4,1,2,1,2,1
4.73,1,3,6,1,2,0,1,0
4.735,2,2,1,1,3,1,1,2
4.74,2,4,3,1,1,0,4,1
4.745,0,3,4,4,0,0,0,2
4.75,1,2,14,2,3,1,1,2
4.755,2,9,1,3,5,1,2,3
4.76,1,4,0,0,1,0,0,1
4.765,7,5,11,2,0,2,2,0
4.77,0,0,23,1,4,3,1,1
4.775,4,14,0,4,1,5,2,4
4.78,3,31,4,3,3,1,3,1
4.785,1,8,12,2,1,0,1,2
4.79,5,5,6,4,0,1,0,2
4.795,1,2,4,5,0,1,0,1
4.8,0,6,2,0,0,3,1,1
4.805,1,4,2,3,3,1,3,0
4.81,1,5,5,1,1,2,4,2
4.815,1,6,9,0,3,2,1,0
4.82,1,5,2,2,1,1,1,2
4.825,0,2,1,1,1,2,2,1
4.83,2,6,2,4,3,1,1,1
4.835,4,4,13,4,2,4,4,2
4.84,2,3,1,2,1,1,2,1
4.845,2,1,2,0,2,1,2,1
4.85,1,0,1,1,3,1,1,0
4.855,2,7,15,3,4,2,2,1
4.86,2,7,12,2,4,5,1,0
4.865,4,5,31,5,1,3,3,2
4.87,3,5,8,3,0,3,0,1
4.875,2,7,1,2,0,0,1,1
4.88,2,0,11,5,1,2,3,0
4.885,3,4,0,0,0,1,2,1
4.89,1,3,2,0,2,3,2,3
4.895,2,7,6,4,1,0,3,1
4.9,1,5,17,3,1,2,0,4
4.905,0,0,10,0,1,0,0,1
4.91,1,1,4,4,1,1,1,0
4.915,8,3,15,1,1,2,1,1
4.92,5,6,9,4,1,0,2,0
4.925,1,1,3,1,1,1,2,1
4.93,4,1,4,1,1,2,1,1
4.935,2,1,5,0,1,2,3,1
4.94,3,3,16,0,2,1,1,2
4.945,1,6,10,1,1,4,0,1
4.95,2,29,7,5,1,1,4,1
4.955,0,5,1,1,3,1,3,1
4.96,0,4,2,4,3,2,0,4
4.965,1,3,1,1,2,2,3,4
4.97,3,2,11,3,0,1,1,0
4.975,0,1,5,3,2,3,0,1
4.98,6,9,13,6,3,1,0,1
4.985,1,1,1,3,1,3,2,1
4.99,3,7,5,1,1,2,2,1
4.995,2,1,0,1,1,2,0,1
5,0,2,4,2,0,1,1,0
5.005,1,5,4,5,2,3,2,0
5.01,4,18,1,2,4,0,1,2
5.015,5,2,4,1,0,2,2,1
5.02,1,13,13,2,1,0,3,2
5.025,3,1,9,2,3,4,0,0
5.03,0,0,2,2,2,2,1,1
5.035,1,4,7,0,1,0,1,1
5.04,2,9,18,2,2,3,5,3
5.045,1,11,6,0,3,1,0,2
5.05,2,1,13,3,2,3,1,2
5.055,1,1,0,3,2,2,1,3
5.06,1,8,7,0,3,1,1,3
5.065,1,1,8,1,0,0,0,0
5.07,3,0,0,1,2,0,2,1
5.075,1,0,0,4,2,0,0,1
5.08,1,6,7,1,2,1,0,0
5.085,6,19,5,1,2,3,2,3
5.09,1,1,7,0,5,4,3,1
5.095,3,8,3,1,2,1,1,2
5.1,5,2,2,2,5,5,2,2
5.105,2,3,3,1,2,1,1,0
5.11,1,6,20,2,2,1,2,2
5.115,2,4,8,0,2,5,0,3
5.12,2,5,5,1,3,0,3,3
5.125,1,1,14,4,1,0,0,0
5.13,1,2,0,0,1,3,2,2
5.135,7,2,7,1,3,0,2,2
5.14,3,8,5,2,2,1,2,0
5.145,5,7,29,4,1,3,1,2
5.15,2,3,11,0,1,1,2,2
5.155,1,0,6,0,1,0,2,1
5.16,1,18,4,0,3,2,1,3
5.165,1,3,1,0,3,2,2,0
5.17,2,8,6,1,0,4,0,1
5.175,1,3,6,2,1,0,0,1
5.18,1,6,4,1,1,2,0,3
5.185,0,4,5,2,0,1,2,0
5.19,0,1,4,1,1,1,0,1
5.195,0,0,6,0,1,2,1,1
5.2,1,5,2,1,2,2,2,1
5.205,2,2,2,1,2,2,1,3
5.21,3,7,6,0,1,1,3,0
5.215,1,1,1,4,1,3,2,2
5.22,1,9,10,1,2,3,3,2
5.225,1,18,4,2,2,2,0,2
5.23,2,6,3,3,2,1,1,1
5.235,1,3,12,0,2,4,2,0
5.24,1,5,18,8,3,0,1,1
5.245,7,13,10,1,2,2,2,1
5.25,3,14,4,0,0,1,0,7
5.255,2,4,3,2,0,2,3,2
5.26,5,10,9,0,1,0,1,7
5.265,2,6,11,2,2,1,1,1
5.27,8,0,2,2,1,1,2,7
5.275,2,14,4,0,3,1,5,1
5.28,8,5,0,2,0,3,16,1
5.285,12,6,2,2,1,1,6,1
5.29,7,6,2,1,2,3,1,4
5.295,5,3,11,4,1,2,8,2
5.3,2,6,0,2,3,0,3,4
5.305,4,6,2,0,1,2,3,4
5.31,1,6,1,4,1,2,3,0
5.315,4,2,6,2,1,2,1,2
5.32,4,2,0,1,0,3,2,3
5.325,4,5,10,1,3,4,3,2
5.33,1,2,2,2,0,1,1,6
5.335,8,8,13,1,4,2,2,1
5.34,5,14,4,5,5,3,1,0
5.345,5,7,4,5,6,1,1,6
5.35,3,12,3,0,2,0,4,3
5.355,7,0,2,1,3,3,0,3
5.36,1,3,2,1,3,2,3,0
5.365,2,10,6,6,4,2,3,0
5.37,2,3,3,1,2,2,0,3
5.375,0,6,6,2,1,0,1,1
5.38,2,6,2,3,4,2,0,4
5.385,5,5,6,6,4,2,3,1
5.39,5,16,7,2,2,3,1,0
5.395,2,1,8,3,3,2,2,1
5.4,3,2,0,2,0,1,1,1
5.405,1,3,4,2,2,2,3,0
5.41,2,15,4,1,2,4,4,1
5.415,2,3,2,3,2,4,2,3
5.42,7,2,1,0,1,0,2,3
5.425,1,12,11,4,1,6,3,2
5.43,7,6,1,2,3,1,0,2
5.435,0,5,0,2,2,1,2,1
5.44,1,3,4,2,3,1,1,2
5.445,0,2,10,1,2,2,2,3
5.45,3,9,4,1,1,2,2,0
5.455,0,4,14,1,1,0,1,1
5.46,0,1,8,0,1,2,1,2
5.465,1,2,9,1,3,0,0,1
5.47,3,3,0,2,1,1,5,2
5.475,3,3,1,2,5,2,2,1
5.48,3,0,0,1,5,0,0,0
5.485,10,10,0,2,2,3,2,3
5.49,0,8,4,5,2,0,2,1
5.495,3,10,7,1,4,2,1,1
5.5,0,1,0,1,1,0,0,1
5.505,4,6,8,2,0,0,1,2
5.51,2,14,13,4,2,3,1,2
5.515,2,10,14,2,3,1,3,1
5.52,2,1,4,1,0,2,1,3
5.525,1,8,6,2,3,2,0,1
5.53,2,6,13,3,1,2,1,2
5.535,1,11,5,1,2,2,1,1
5.54,4,11,7,3,3,1,2,3
5.545,4,0,4,1,0,1,1,2
5.55,1,2,2,2,1,0,1,1
5.555,3,5,1,3,1,3,2,2
5.56,5,11,4,1,1,0,1,2
5.565,1,12,5,1,3,2,2,3
5.57,3,24,8,2,2,2,2,1
5.575,1,12,10,1,2,2,1,0
5.58,4,5,2,4,2,1,0,1
5.585,2,0,17,2,1,4,3,2
5.59,2,6,9,1,0,2,1,3
5.595,1,1,11,3,1,1,2,0
5.6,2,2,11,0,0,1,1,3
5.605,2,11,0,0,0,1,0,1
5.61,1,2,44,8,2,5,3,0
5.615,6,1,21,4,1,0,1,1
5.62,0,12,30,6,3,3,4,2
5.625,2,5,11,1,1,0,1,2
5.63,2,26,10,1,4,1,2,1
5.635,1,0,9,0,0,0,1,2
5.64,3,4,6,0,0,0,1,1
5.645,0,5,18,2,5,2,1,2
5.65,5,2,10,1,1,4,2,2
5.655,2,3,8,3,4,0,2,3
5.66,2,4,6,1,4,3,2,5
5.665,3,2,2,2,1,5,1,2
5.67,1,4,13,3,1,2,1,1
5.675,1,4,7,2,2,2,2,1
5.68,0,6,14,2,1,1,0,0
5.685,0,1,2,1,0,1,1,2
5.69,0,7,21,7,1,2,2,1
5.695,2,2,1,1,2,2,4,5
5.7,0,1,3,1,1,3,1,0
5.705,1,1,4,0,1,0,0,0
5.71,4,16,1,2,1,0,3,1
5.715,5,9,18,4,2,4,2,2
5.72,1,3,2,2,2,3,3,2
5.725,1,4,5,2,1,2,2,2
5.73,0,7,8,2,1,2,2,0
5.735,3,5,7,3,0,2,0,1
5.74,3,23,14,0,2,2,2,1
5.745,10,18,13,1,3,3,2,1
5.75,4,4,9,3,3,2,1,1
5.755,2,3,4,2,2,3,2,1
5.76,2,1,12,3,0,1,0,3
5.765,1,2,3,2,1,2,1,1
5.77,3,2,7,0,1,1,0,0
5.775,1,7,7,1,4,1,0,0
5.78,0,7,4,1,1,2,0,1
5.785,2,1,6,3,3,0,6,3
5.79,0,11,3,4,2,2,2,0
5.795,3,2,2,1,5,1,2,0
5.8,4,9,12,2,1,0,2,2
5.805,4,1,15,4,3,2,2,1
5.81,3,11,5,6,1,3,5,3
5.815,0,4,6,5,2,1,1,3
5.82,3,5,11,1,4,0,1,0
5.825,6,16,1,2,0,3,2,3
5.83,1,4,9,4,3,2,1,0
5.835,1,4,3,1,0,1,1,1
5.84,4,8,1,5,1,6,3,3
5.845,3,10,14,0,0,2,2,0
5.85,8,15,2,1,2,3,2,1
5.855,1,3,7,5,2,2,1,6
5.86,1,2,1,0,3,0,1,4
5.865,1,3,1,1,3,0,1,3
5.87,0,1,6,2,1,2,2,1
5.875,4,7,21,2,1,3,0,4
5.88,1,4,7,6,2,0,1,1
5.885,0,1,4,4,1,3,2,0
5.89,2,4,4,2,1,1,0,3
5.895,0,14,13,2,4,2,2,4
5.9,5,21,6,3,2,4,3,5
5.905,1,14,15,0,3,3,0,0
5.91,4,20,15,0,2,0,2,2
5.915,4,40,5,0,3,2,2,0
5.92,2,14,5,0,4,1,3,3
5.925,1,6,3,0,0,1,0,1
5.93,7,9,1,1,0,4,4,4
5.935,1,9,8,3,1,2,0,3
5.94,3,0,2,0,2,1,1,3
5.945,2,2,4,1,1,2,2,1
5.95,3,2,10,0,1,1,1,4
5.955,1,2,15,2,2,2,1,10
5.96,1,4,0,1,3,2,1,6
5.965,3,1,6,0,1,1,1,15
5.97,1,5,4,1,1,4,2,6
5.975,0,1,5,3,0,3,1,1
5.98,0,4,2,1,1,2,4,3
5.985,5,8,7,3,1,1,1,0
5.99,12,16,8,1,4,2,4,1
5.995,1,12,6,2,2,1,1,4
6,4,1,1,4,1,2,2,1
6.005,9,34,17,3,1,1,1,4
6.01,3,17,12,0,0,6,3,1
6.015,3,2,9,1,1,1,2,4
6.02,1,2,11,3,2,1,1,2
6.025,6,26,12,0,1,5,1,3
6.03,3,12,10,2,1,4,4,2
6.035,4,8,1,3,2,3,2,2
6.04,8,11,5,2,0,6,0,2
6.045,0,3,4,1,2,2,2,0
6.05,5,10,3,0,2,3,2,0
6.055,1,15,5,5,0,1,1,2
6.06,0,5,4,0,3,1,3,1
6.065,3,3,2,3,3,2,2,2
6.07,1,15,7,3,1,2,3,3
6.075,7,9,2,7,3,4,1,5
6.08,0,3,2,1,2,1,1,1
6.085,3,9,12,2,2,1,0,0
6.09,3,4,1,1,0,2,1,2
6.095,1,21,12,0,1,2,1,1
6.1,6,4,7,5,3,1,3,6
6.105,4,6,7,7,2,3,2,1
6.11,3,6,1,2,0,0,0,2
6.115,3,7,0,0,1,0,1,2
6.12,5,0,7,7,3,8,3,2
6.125,1,5,1,1,4,2,1,1
6.13,3,36,9,0,3,2,2,2
6.135,0,14,9,0,3,0,0,0
6.14,3,8,3,0,3,0,1,2
6.145,3,2,16,2,1,3,3,2
6.15,3,5,13,1,0,1,1,3
6.155,4,1,0,3,4,3,1,4
6.16,2,4,18,1,3,0,0,1
6.165,3,2,4,1,1,0,2,2
6.17,3,8,6,2,0,1,2,2
6.175,5,7,3,1,1,0,2,1
6.18,6,16,6,5,2,1,0,3
6.185,2,5,5,2,1,1,2,2
6.19,0,7,6,4,2,3,1,4
6.195,8,9,19,4,1,3,6,4
6.2,6,7,6,2,1,1,1,9
6.205,6,15,18,2,6,0,4,2
6.21,22,11,4,1,6,2,4,2
6.215,2,14,17,1,1,1,1,1
6.22,5,21,36,5,4,2,2,4
6.225,13,21,37,9,3,5,3,6
6.23,5,22,3,4,6,1,1,4
6.235,8,6,0,2,2,1,5,6
6.24,12,33,11,4,5,7,6,5
6.245,1,27,40,1,3,0,0,1
6.25,1,11,7,1,2,1,2,12
6.255,4,19,7,4,3,1,2,0
6.26,7,8,5,2,0,2,2,0
6.265,4,3,20,1,2,2,4,2
6.27,9,8,0,1,1,3,4,1
6.275,0,3,1,3,3,1,3,10
6.28,7,0,4,2,3,1,2,1
6.285,4,6,6,1,4,5,6,1
6.29,3,8,19,1,6,1,1,2
6.295,0,1,18,0,1,1,2,13
6.3,9,9,6,2,1,2,0,5
6.305,1,17,27,6,3,1,6,29
6.31,6,11,12,1,2,0,2,1
6.315,0,1,13,2,1,3,2,10
6.32,5,2,0,2,3,3,5,6
6.325,7,7,9,2,0,2,4,6
6.33,6,8,11,5,2,1,0,9
6.335,3,8,3,1,1,2,4,4
6.34,3,11,4,1,1,3,3,7
6.345,5,26,14,1,1,5,2,2
6.35,4,4,11,3,2,0,2,3
6.355,3,5,1,4,1,0,3,5
6.36,1,0,0,2,2,1,2,3
6.365,3,20,5,1,1,2,3,2
6.37,0,17,12,2,3,1,1,2
6.375,2,18,1,2,2,1,1,3
6.38,2,13,12,5,1,6,3,6
6.385,5,3,1,1,1,1,1,8
6.39,4,3,5,2,4,1,1,8
6.395,4,16,8,2,2,2,2,10
6.4,1,4,1,3,2,0,0,6
6.405,0,12,0,1,1,1,2,3
6.41,5,7,0,3,2,3,0,1
6.415,9,23,9,4,1,4,2,5
6.42,1,11,4,3,2,6,5,4
6.425,3,9,8,0,2,1,3,2
6.43,2,7,8,1,3,1,0,2
6.435,5,19,14,3,3,2,2,1
6.44,8,2,0,1,1,2,0,2
6.445,4,2,0,2,1,2,3,5
6.45,1,5,7,4,2,3,3,17
6.455,8,6,2,1,1,0,3,1
6.46,15,40,10,0,3,1,1,6
6.465,1,11,0,0,4,2,0,2
6.47,9,7,3,0,2,1,1,5
6.475,3,11,0,0,2,2,3,0
6.48,2,9,6,2,0,1,3,6
6.485,2,9,4,0,1,1,2,2
6.49,5,0,7,5,2,2,0,1
6.495,2,2,5,1,1,2,3,3
6.5,7,13,3,1,1,0,4,3
6.505,0,3,3,1,1,4,1,1
6.51,2,8,6,1,1,1,1,3
6.515,2,9,4,2,3,2,4,5
6.52,3,6,3,4,3,3,1,1
6.525,1,0,13,3,1,4,4,2
6.53,1,1,21,2,1,0,3,1
6.535,10,6,15,1,0,5,2,5
6.54,3,4,11,3,3,0,3,2
6.545,4,10,7,1,0,4,4,7
6.55,14,17,40,8,2,8,11,17
6.555,8,14,30,6,1,3,1,1
6.56,4,6,36,2,1,4,3,2
6.565,9,22,1,3,0,3,3,5
6.57,4,14,15,1,1,1,1,0
6.575,2,6,20,2,1,1,1,3
6.58,6,1,5,1,4,1,7,13
6.585,2,4,15,4,2,3,1,1
6.59,6,11,12,3,3,1,2,5
6.595,2,5,9,4,0,2,2,6
6.6,2,3,9,0,0,1,1,6
6.605,2,5,7,0,3,1,1,2
6.61,0,10,3,1,1,0,2,2
6.615,1,1,20,5,0,1,0,0
6.62,1,1,6,3,0,2,2,3
6.625,2,2,4,0,2,2,1,3
6.63,0,1,5,0,0,2,1,4
6.635,0,6,18,3,0,2,1,3
6.64,4,7,3,0,0,3,1,1
6.645,2,8,3,1,1,5,4,2
6.65,1,2,4,1,1,2,1,5
6.655,4,3,7,1,4,1,1,5
6.66,6,4,1,0,3,0,3,5
6.665,4,3,4,2,0,5,5,2
6.67,4,12,4,0,1,1,1,3
6.675,3,20,3,1,1,2,1,2
6.68,2,9,5,3,2,3,0,16
6.685,8,5,8,0,2,4,11,10
6.69,8,1,4,4,2,2,5,0
6.695,3,5,4,2,2,0,2,4
6.7,4,0,5,1,1,0,2,4
6.705,1,2,0,1,1,3,1,5
6.71,1,4,4,2,2,1,1,0
6.715,1,5,3,3,1,1,0,3
6.72,3,12,3,3,2,3,3,2
6.725,1,12,9,1,3,1,4,2
6.73,3,17,17,3,3,0,2,0
6.735,3,13,10,1,1,2,5,9
6.74,11,6,6,2,1,4,6,2
6.745,0,4,21,1,0,0,2,3
6.75,3,14,12,1,1,3,3,6
6.755,1,3,0,0,2,1,1,2
6.76,1,6,18,7,6,6,3,6
6.765,0,4,4,1,1,0,2,2
6.77,6,8,38,7,1,4,3,3
6.775,4,4,8,1,3,1,1,1
6.78,1,12,3,3,3,2,4,3
6.785,0,3,13,0,0,1,3,0
6.79,2,17,1,1,2,1,3,1
6.795,2,1,10,3,1,1,1,4
6.8,5,6,8,4,0,1,0,0
6.805,5,7,1,1,3,0,1,4
6.81,3,6,5,1,3,3,6,5
6.815,3,10,6,1,1,3,3,0
6.82,1,5,6,1,2,1,1,0
6.825,5,17,6,4,1,2,3,3
6.83,1,11,10,1,0,1,0,1
6.835,1,4,10,5,3,3,2,3
6.84,2,6,1,1,1,1,3,4
6.845,2,12,7,4,0,2,0,2
6.85,2,5,15,0,5,2,1,0
6.855,6,4,25,4,2,5,5,2
6.86,3,5,3,1,2,1,2,2
6.865,2,3,5,2,1,1,3,1
6.87,3,5,17,4,1,2,1,5
6.875,3,2,5,1,3,1,0,2
6.88,1,14,3,3,2,1,3,0
6.885,0,1,8,2,1,3,1,3
6.89,3,9,10,1,2,1,1,0
6.895,6,11,26,9,4,1,1,2
6.9,4,9,7,1,1,1,1,1
6.905,1,2,2,1,1,1,2,3
6.91,1,19,0,0,0,3,1,1
6.915,0,30,15,4,0,1,3,1
6.92,2,2,4,2,0,1,2,2
6.925,3,5,4,5,3,3,1,0
6.93,0,0,4,1,1,1,1,1
6.935,2,0,13,2,2,1,2,2
6.94,5,19,44,7,3,4,4,2
6.945,0,13,7,2,3,3,1,2
6.95,4,9,2,1,0,1,1,1
6.955,1,14,11,4,2,2,1,3
6.96,2,6,6,0,0,1,2,1
6.965,1,6,10,3,2,1,1,0
6.97,0,6,2,0,1,2,0,0
6.975,0,0,3,3,0,4,0,2
6.98,1,6,6,2,4,1,1,1
6.985,1,5,4,2,4,1,3,1
6.99,1,16,8,2,2,2,1,1
6.995,8,42,20,2,2,2,1,1
7,1,2,6,3,0,1,1,1
7.005,5,12,7,2,0,3,3,2
7.01,5,7,2,4,3,3,3,4
7.015,7,18,22,7,1,6,5,3
7.02,0,3,12,2,1,1,0,2
7.025,1,3,2,1,3,3,0,1
7.03,4,1,13,4,6,2,2,1
7.035,4,9,4,1,1,3,1,0
7.04,1,1,1,3,1,0,1,1
7.045,2,14,1,0,1,0,0,1
7.05,1,5,2,1,0,1,1,2
7.055,1,9,2,3,1,2,4,1
7.06,1,8,6,0,3,0,1,1
7.065,7,6,5,1,2,1,0,1
7.07,0,10,4,0,2,2,1,0
7.075,1,2,8,1,0,1,0,0
7.08,3,6,4,3,3,4,1,1
7.085,2,25,8,0,2,0,4,1
7.09,4,5,16,5,1,3,3,2
7.095,6,9,0,3,0,1,1,2
7.1,2,6,11,3,4,1,2,1
7.105,3,4,4,4,5,2,2,0
7.11,0,22,6,2,4,4,2,0
7.115,1,9,5,2,1,1,1,0
7.12,4,17,7,1,2,5,3,3
7.125,1,3,1,2,0,1,2,2
7.13,1,3,3,0,1,2,0,1
7.135,4,3,4,5,1,1,1,0
7.14,1,4,0,1,3,1,1,1
7.145,4,9,3,2,3,4,1,1
7.15,1,6,5,0,1,0,1,1
7.155,2,44,6,2,5,4,2,2
7.16,4,1,3,2,2,3,0,1
7.165,1,13,14,3,1,1,1,4
7.17,0,11,13,2,1,2,3,2
7.175,0,5,5,6,2,2,4,2
7.18,0,3,9,1,2,1,1,0
7.185,0,11,6,3,0,0,0,0
7.19,2,1,16,5,3,2,2,2
7.195,5,25,2,2,2,2,0,0
7.2,1,8,8,1,0,1,1,2
7.205,2,0,1,5,1,1,2,0
7.21,1,6,2,0,2,1,1,2
7.215,1,12,8,1,2,3,2,3
7.22,2,9,6,2,2,2,0,2
7.225,2,9,2,0,2,1,0,0
7.23,0,5,1,1,0,1,0,0
7.235,1,10,3,2,0,0,4,1
7.24,1,6,2,1,2,0,3,0
7.245,1,5,0,3,2,2,1,3
7.25,1,3,2,0,0,0,2,1
7.255,1,10,1,2,0,3,2,2
7.26,2,12,5,2,4,1,1,1
7.265,4,19,6,1,0,1,3,2
7.27,3,5,3,1,1,1,1,0
7.275,1,10,9,3,1,2,3,0
7.28,1,7,6,4,1,2,1,1
7.285,4,10,6,2,1,3,3,3
7.29,4,3,3,1,1,2,3,1
7.295,2,6,5,0,0,1,1,1
7.3,0,5,4,2,1,0,3,0
7.305,1,1,2,6,2,2,1,3
7.31,0,4,1,0,3,2,1,2
7.315,2,3,0,1,0,3,0,1
7.32,0,3,1,2,3,1,1,2
7.325,1,2,4,1,2,1,0,2
7.33,1,18,6,2,1,1,1,0
7.335,3,18,19,4,1,2,2,4
7.34,1,2,3,3,0,1,0,2
7.345,2,31,3,2,1,0,2,1
7.35,3,11,1,0,1,0,0,0
7.355,1,5,3,1,0,1,2,1
7.36,2,10,3,1,0,2,4,1
7.365,1,12,0,2,2,1,1,1
7.37,3,14,8,2,2,2,0,1
7.375,2,3,6,1,1,1,2,3
7.38,1,2,4,2,3,2,1,2
7.385,1,6,1,0,1,2,1,0
7.39,3,1,6,0,1,2,2,0
7.395,2,4,5,4,0,2,3,1
7.4,2,2,3,1,0,1,1,2
7.405,2,1,0,0,2,1,1,1
7.41,3,2,10,4,1,4,3,1
7.415,2,11,1,0,2,2,2,3
7.42,10,20,11,1,3,2,1,0
7.425,0,11,2,3,1,3,4,1
7.43,1,1,6,2,0,1,2,0
7.435,2,6,7,2,1,1,2,1
7.44,1,1,8,4,3,4,4,2
7.445,4,4,5,3,1,3,1,1
7.45,1,7,1,3,1,2,4,2
7.455,2,1,1,1,1,1,1,1
7.46,2,7,1,1,2,2,3,0
7.465,1,2,0,2,0,0,1,1
7.47,3,0,3,1,4,6,3,3
7.475,1,7,2,2,1,1,0,1
7.48,0,3,3,2,2,2,1,0
7.485,0,4,4,3,2,1,1,1
7.49,1,0,4,7,1,0,0,3
7.495,0,2,1,0,4,1,1,0
7.5,1,2,1,3,0,4,1,0
7.505,2,19,5,2,2,1,3,1
7.51,3,8,3,0,1,1,2,1
7.515,2,1,2,2,1,0,1,1
7.52,3,8,1,1,0,0,0,2
7.525,2,3,4,1,1,2,1,2
7.53,2,4,1,1,1,0,2,1
7.535,3,3,3,3,1,1,0,2
7.54,2,4,2,0,1,1,1,1
7.545,4,6,5,3,1,3,2,1
7.55,0,3,6,2,0,3,2,2
7.555,2,6,2,2,1,1,4,0
7.56,1,4,2,2,2,0,0,3
7.565,4,6,5,6,4,0,0,2
7.57,0,14,0,4,3,0,1,1
7.575,7,37,8,6,0,5,3,1
7.58,2,2,8,4,2,1,3,3
7.585,0,8,10,3,2,0,0,1
7.59,4,7,2,4,3,4,0,2
7.595,1,6,0,0,3,2,3,2
7.6,1,0,1,1,2,1,2,1
7.605,0,3,2,1,2,3,2,0
7.61,0,5,1,2,1,1,1,0
7.615,1,1,1,2,1,3,1,1
7.62,4,5,3,5,3,3,3,0
7.625,1,1,2,0,5,3,4,3
7.63,1,1,0,1,2,0,0,1
7.635,2,3,3,0,3,1,0,0
7.64,2,3,3,1,2,1,1,2
7.645,1,5,0,2,2,1,2,1
7.65,0,3,3,1,2,2,1,0
7.655,7,11,3,0,1,2,2,3
7.66,4,14,6,0,4,1,0,2
7.665,1,4,7,2,1,0,2,0
7.67,2,7,1,0,1,0,1,3
7.675,2,4,3,1,3,0,1,1
7.68,1,4,3,2,3,0,1,0
7.685,0,1,0,1,1,4,2,1
7.69,2,1,3,0,2,1,2,2
7.695,4,1,3,1,0,2,0,1
7.7,3,5,2,1,3,1,3,3
7.705,0,7,4,1,4,2,2,2
7.71,0,4,7,0,1,1,3,1
7.715,3,9,4,3,1,2,1,1
7.72,3,8,4,0,2,1,2,4
7.725,1,3,2,1,0,0,1,3
7.73,1,1,1,1,1,2,1,1
7.735,0,1,0,2,2,0,0,1
7.74,0,11,1,0,3,0,2,1
7.745,7,24,0,3,1,4,1,1
7.75,4,5,7,1,2,1,0,3
7.755,5,3,4,0,1,5,3,2
7.76,0,2,2,2,1,1,1,1
7.765,0,16,2,1,1,0,2,1
7.77,1,2,4,6,1,0,3,1
7.775,4,6,2,1,1,0,1,2
7.78,2,13,0,2,1,1,1,3
7.785,1,7,6,3,1,1,1,1
7.79,4,7,4,4,0,2,3,1
7.795,1,10,2,0,1,1,1,1
7.8,1,6,14,4,3,5,6,1
7.805,1,11,13,2,2,1,1,2
7.81,2,8,9,1,0,3,1,2
7.815,0,5,21,3,2,2,1,0
7.82,0,2,18,0,2,0,0,2
7.825,1,2,20,2,1,2,1,1
7.83,3,5,4,0,2,0,1,5
7.835,2,3,9,5,1,2,1,1
7.84,3,27,7,1,3,2,2,0
7.845,1,10,3,1,2,1,3,1
7.85,0,1,3,1,3,2,1,1
7.855,4,10,8,2,2,0,0,0
7.86,4,0,7,2,1,6,0,0
7.865,0,3,7,3,3,2,2,1
7.87,1,4,4,1,0,1,2,2
7.875,1,24,4,1,0,0,1,1
7.88,3,3,7,2,2,2,3,4
7.885,1,1,5,2,4,4,1,1
7.89,1,1,8,4,1,5,2,1
7.895,3,0,3,0,1,0,2,1
7.9,2,16,11,1,4,2,1,2
7.905,2,14,10,2,4,3,3,1
7.91,0,4,11,5,1,0,1,1
7.915,1,9,16,2,5,0,1,1
7.92,1,0,23,5,3,3,1,0
7.925,4,4,11,2,2,0,3,2
7.93,0,5,6,4,4,1,1,0
7.935,4,2,12,2,3,3,2,4
7.94,2,17,19,4,0,1,1,1
7.945,1,5,9,2,1,1,1,0
7.95,0,0,1,0,2,1,1,2
7.955,0,3,16,4,1,3,1,2
7.96,2,13,23,8,1,2,2,1
7.965,1,0,14,5,0,2,2,1
7.97,1,3,10,1,1,1,0,0
7.975,2,4,12,1,1,1,2,3
7.98,4,1,14,3,4,0,1,1
7.985,3,7,2,2,1,1,1,2
7.99,3,0,1,1,3,0,1,1
7.995,2,3,1,4,1,0,4,1
8,3,4,6,2,2,3,1,1
8.005,2,5,7,1,0,1,1,2
8.01,3,1,8,0,3,3,1,2
8.015,1,3,3,1,1,1,0,1
8.02,1,0,13,0,1,1,2,0
8.025,0,0,0,0,3,0,2,1
8.03,2,3,2,4,2,1,0,1
8.035,5,7,16,1,2,3,0,2
8.04,0,1,14,2,2,1,4,3
8.045,0,0,7,1,3,0,1,1
8.05,5,11,2,2,3,2,3,4
8.055,3,1,8,1,0,4,1,1
8.06,3,6,27,5,1,1,1,2
8.065,0,0,9,1,1,3,0,1
8.07,0,1,6,3,2,2,2,1
8.075,3,3,2,3,5,3,2,1
8.08,1,4,0,1,0,1,3,0
8.085,0,0,1,0,1,0,0,1
8.09,7,10,4,3,2,1,2,0
8.095,1,1,8,1,0,1,0,1
8.1,1,0,1,2,1,0,1,1
8.105,1,5,1,0,4,3,2,2
8.11,0,4,11,3,3,1,0,2
8.115,4,2,21,1,1,2,1,1
8.12,2,4,13,2,2,4,1,1
8.125,2,0,0,1,1,0,2,2
8.13,5,2,1,2,1,0,1,0
8.135,1,2,1,0,2,1,2,0
8.14,2,4,6,1,0,3,0,0
8.145,1,4,1,3,2,1,4,2
8.15,1,3,3,1,0,1,0,1
8.155,1,2,7,3,2,2,1,2
8.16,3,3,54,10,2,3,3,3
8.165,2,0,3,2,2,1,1,1
8.17,1,5,3,2,1,1,4,1
8.175,3,3,11,7,0,3,1,1
8.18,0,0,11,3,3,1,0,1
8.185,1,2,5,1,1,1,1,1
8.19,0,0,10,1,0,1,0,1
8.195,0,3,2,3,2,2,3,0
8.2,1,1,17,1,1,1,1,1
8.205,3,9,20,7,0,2,2,2
8.21,1,3,11,0,1,2,1,0
8.215,2,5,7,2,0,2,3,2
8.22,3,2,9,2,1,2,3,3
8.225,0,3,6,1,3,1,1,1
8.23,3,6,25,3,1,3,3,0
8.235,1,6,11,4,0,1,1,2
8.24,1,1,2,4,3,1,2,2
8.245,1,9,21,2,2,1,0,0
8.25,1,1,3,1,1,1,1,0
8.255,2,1,4,2,2,2,2,1
8.26,4,9,5,0,1,1,2,2
8.265,2,6,12,1,2,0,1,0
8.27,2,3,11,2,0,0,1,1
8.275,5,1,1,4,2,1,0,2
8.28,4,0,11,1,0,2,1,2
8.285,2,1,3,2,1,0,2,1
8.29,0,11,4,0,0,1,0,0
8.295,3,4,1,2,2,0,1,0
8.3,1,6,11,0,2,1,0,1
8.305,4,1,5,1,0,2,2,3
8.31,0,10,0,1,1,1,2,0
8.315,1,1,0,6,1,2,3,3
8.32,3,5,11,2,1,1,1,1
8.325,1,2,2,1,1,0,2,1
8.33,1,3,5,5,2,1,1,3
8.335,0,3,6,0,0,2,0,1
8.34,1,8,6,2,2,2,0,4
8.345,0,9,3,0,1,1,2,1
8.35,1,0,3,2,1,2,0,2
8.355,2,2,14,2,1,2,0,1
8.36,0,4,14,1,1,0,1,0
8.365,1,5,1,4,2,4,1,1
8.37,2,3,5,0,2,2,2,1
8.375,2,14,2,3,0,0,1,1
8.38,0,3,7,3,1,1,1,1
8.385,4,5,10,2,3,2,2,2
8.39,0,2,4,2,3,0,1,0
8.395,1,6,4,3,3,0,2,1
8.4,0,1,3,3,2,2,2,0
8.405,4,2,3,3,1,2,1,1
8.41,2,3,2,2,2,3,2,4
8.415,1,2,4,3,0,3,2,0
8.42,3,6,13,6,3,5,2,2
8.425,1,2,3,0,0,1,0,2
8.43,0,8,3,1,0,0,2,1
8.435,1,3,2,0,0,1,2,1
8.44,2,9,7,3,3,0,2,1
8.445,1,4,3,1,1,1,1,2
8.45,2,6,12,3,1,0,1,3
8.455,2,2,1,1,1,2,1,1
8.46,0,3,6,2,2,2,2,2
8.465,1,2,4,4,2,4,0,1
8.47,1,10,8,3,2,1,0,1
8.475,5,6,4,3,3,1,0,1
8.48,1,3,14,1,2,2,1,2
8.485,0,3,10,1,2,1,0,1
8.49,4,5,8,0,1,2,2,1
8.495,1,7,13,1,1,0,2,1
8.5,1,2,16,1,2,1,0,0
8.505,2,3,4,2,3,2,3,2
8.51,5,1,2,2,2,2,2,1
8.515,2,3,8,2,1,2,3,1
8.52,0,19,6,3,2,1,0,1
8.525,8,26,18,5,2,5,2,5
8.53,6,14,18,2,2,4,3,4
8.535,3,9,3,0,2,4,1,1
8.54,0,5,24,2,1,1,1,1
8.545,0,7,30,7,1,0,1,1
8.55,3,3,4,2,4,3,1,1
8.555,6,10,3,0,0,2,2,1
8.56,0,3,3,4,1,0,1,2
8.565,0,5,13,1,0,0,3,0
8.57,1,4,21,4,4,0,1,2
8.575,1,11,9,2,0,3,0,2
8.58,0,27,7,0,1,6,1,2
8.585,1,10,21,4,3,5,1,2
8.59,1,1,15,5,1,1,4,2
8.595,2,1,6,0,4,2,1,1
8.6,0,4,2,1,3,2,0,0
8.605,0,1,4,3,0,2,2,0
8.61,0,2,3,4,2,1,0,0
8.615,0,6,1,1,2,0,1,0
8.62,3,2,13,6,1,1,2,4
8.625,2,4,9,4,4,3,1,3
8.63,2,14,12,0,2,1,1,0
8.635,1,7,18,1,3,2,2,0
8.64,2,6,18,1,1,2,1,2
8.645,1,1,0,1,3,1,1,0
8.65,1,6,2,2,1,2,1,1
8.655,0,4,13,0,3,1,1,3
8.66,2,2,13,5,0,1,2,0
8.665,2,3,6,1,1,1,1,0
8.67,2,0,2,2,1,2,0,1
8.675,0,1,12,2,2,0,5,3
8.68,3,1,8,2,2,1,0,2
8.685,1,0,2,0,0,1,1,1
8.69,1,2,2,2,1,0,1,0
8.695,11,21,2,3,0,4,4,5
8.7,3,11,3,0,0,2,3,2
8.705,1,4,0,5,3,1,1,2
8.71,1,4,6,1,0,0,2,1
8.715,1,0,14,2,2,3,3,1
8.72,2,5,6,2,0,1,0,1
8.725,4,4,14,0,4,1,1,0
8.73,3,8,8,6,1,4,3,3
8.735,2,3,4,1,4,0,2,4
8.74,1,1,4,1,1,0,1,4
8.745,1,2,4,2,3,0,2,2
8.75,1,1,6,3,1,1,0,1
8.755,1,9,17,5,1,2,0,1
8.76,4,2,7,3,3,3,2,2
8.765,3,2,5,2,0,1,0,1
8.77,12,1,3,1,3,0,2,2
8.775,2,1,1,4,1,1,0,1
8.78,2,3,10,1,2,3,1,2
8.785,3,1,0,1,1,2,0,3
8.79,5,6,1,0,1,1,0,0
8.795,3,1,8,2,1,3,3,3
8.8,2,0,13,4,1,2,2,2
8.805,3,8,14,5,5,5,2,3
8.81,3,7,0,2,2,2,4,2
8.815,2,1,4,0,2,1,2,1
8.82,2,3,4,0,1,1,0,1
8.825,5,4,8,1,5,1,1,1
8.83,0,10,25,3,2,2,1,2
8.835,1,1,6,1,3,2,1,1
8.84,1,0,3,0,1,0,2,2
8.845,4,7,1,3,3,2,2,1
8.85,6,3,1,1,3,1,1,0
8.855,1,3,4,0,0,1,1,0
8.86,4,17,2,1,2,3,1,1
8.865,1,9,5,3,0,1,2,1
8.87,3,17,7,1,2,1,1,1
8.875,1,3,11,2,1,3,1,1
8.88,0,7,7,2,1,1,1,3
8.885,7,10,8,2,1,4,2,4
8.89,1,3,6,1,1,0,2,1
8.895,1,9,18,3,1,3,1,1
8.9,2,2,17,1,5,1,0,0
8.905,2,3,6,3,2,0,1,1
8.91,2,14,8,0,0,2,3,0
8.915,5,3,9,5,0,2,2,2
8.92,1,3,11,3,1,3,2,0
8.925,1,2,10,0,1,3,0,1
8.93,1,6,2,1,3,0,2,2
8.935,3,14,13,1,1,1,3,3
8.94,2,5,14,4,0,2,1,0
8.945,1,2,9,2,1,1,1,1
8.95,4,4,5,3,2,0,1,1
8.955,2,7,1,1,1,0,1,2
8.96,3,9,6,2,3,2,4,1
8.965,1,0,6,2,2,0,0,1
8.97,2,6,7,1,2,0,1,2
8.975,1,0,18,6,0,0,2,3
8.98,4,3,16,4,2,1,3,0
8.985,2,4,3,2,0,2,1,4
8.99,5,18,10,1,5,2,0,2
8.995,2,5,13,1,2,2,2,0
9,0,3,23,0,1,3,1,1
9.005,2,5,16,4,1,1,1,1
9.01,0,4,8,6,2,3,2,3
9.015,1,5,5,2,2,4,0,1
9.02,4,4,18,2,2,1,2,2
9.025,10,19,7,0,0,1,0,2
9.03,4,3,1,2,3,3,1,3
9.035,1,1,7,2,1,1,1,0
9.04,4,7,3,1,1,0,3,3
9.045,4,5,11,3,5,4,1,1
9.05,2,5,11,3,1,0,2,4
9.055,3,9,13,7,2,2,4,3
9.06,3,4,14,1,1,1,2,0
9.065,2,6,5,1,2,1,2,1
9.07,0,12,1,2,1,2,1,0
9.075,2,1,14,1,2,1,1,1
9.08,2,4,29,5,1,1,2,1
9.085,3,3,9,1,3,0,1,1
9.09,1,5,8,4,1,1,2,3
9.095,3,0,9,2,2,1,1,16
9.1,2,1,5,0,1,2,1,0
9.105,2,9,5,4,0,1,0,6
9.11,6,3,1,2,1,2,4,4
9.115,8,14,3,0,3,1,1,13
9.12,1,5,6,0,0,3,4,18
9.125,10,10,15,4,1,4,2,7
9.13,7,9,4,0,4,0,2,15
9.135,10,5,9,1,2,1,10,17
9.14,3,9,3,0,1,4,1,19
9.145,2,1,3,1,0,2,2,7
9.15,4,13,6,1,1,2,1,6
9.155,1,5,6,0,3,2,5,5
9.16,1,2,0,1,3,3,1,1
9.165,5,1,4,2,1,1,1,3
9.17,2,3,16,1,1,2,1,3
9.175,4,18,2,5,1,4,6,4
9.18,5,0,10,3,0,1,0,7
9.185,1,4,4,1,1,2,1,3
9.19,9,2,5,2,1,1,3,7
9.195,2,6,8,3,5,3,5,2
9.2,1,1,4,1,0,2,3,4
9.205,2,15,11,2,1,3,3,1
9.21,0,7,15,5,1,1,0,3
9.215,6,15,29,8,1,4,6,0
9.22,0,1,14,1,2,1,1,2
9.225,1,2,1,4,2,0,1,2
9.23,5,7,27,11,1,1,4,4
9.235,4,7,10,3,1,4,1,1
9.24,4,24,13,1,0,0,1,4
9.245,5,2,3,0,5,3,2,2
9.25,3,4,2,1,1,2,2,1
9.255,1,3,2,1,1,2,2,2
9.26,0,3,4,1,2,0,0,1
9.265,7,1,5,2,1,3,2,5
9.27,1,12,12,3,1,0,2,0
9.275,2,9,3,2,1,1,2,2
9.28,3,15,6,1,5,1,2,3
9.285,1,2,0,2,0,0,2,1
9.29,2,9,0,1,1,1,0,2
9.295,2,8,7,1,2,2,1,1
9.3,1,3,4,1,3,4,0,1
9.305,0,5,15,1,3,3,2,2
9.31,3,5,12,0,2,1,1,3
9.315,0,23,6,3,2,2,2,0
9.32,1,9,1,6,5,2,1,1
9.325,1,2,9,1,4,2,0,1
9.33,5,4,10,2,0,2,2,5
9.335,2,18,6,3,3,3,1,3
9.34,5,25,1,1,1,1,1,2
9.345,3,8,7,6,4,1,1,1
9.35,2,8,6,4,1,0,1,2
9.355,1,10,4,1,2,1,2,1
9.36,1,4,2,3,3,2,2,2
9.365,4,1,14,4,1,1,2,1
9.37,2,10,18,4,0,5,2,1
9.375,4,11,7,0,0,1,0,3
9.38,1,0,2,2,1,0,3,0
9.385,2,23,2,1,0,1,0,1
9.39,4,17,15,6,0,3,3,1
9.395,1,3,0,2,0,1,3,2
9.4,2,2,6,1,1,0,1,1
9.405,2,9,19,1,1,2,1,0
9.41,1,4,6,2,1,1,1,3
9.415,0,11,6,0,0,0,0,0
9.42,3,27,13,4,2,3,4,4
9.425,1,3,4,1,3,1,1,1
9.43,1,3,5,2,2,1,0,1
9.435,1,3,10,3,1,0,1,2
9.44,2,9,7,3,1,0,2,1
9.445,3,5,3,0,3,1,1,4
9.45,2,1,2,1,2,1,1,1
9.455,1,4,11,1,3,1,1,0
9.46,10,17,9,1,0,2,2,3
9.465,0,3,8,2,3,1,2,0
9.47,1,4,2,0,1,0,1,1
9.475,3,1,1,1,1,3,4,4
9.48,3,16,6,3,0,5,2,0
9.485,4,11,3,2,1,2,1,0
9.49,5,26,0,1,1,1,3,4
9.495,3,0,3,1,1,4,3,2
9.5,1,2,3,1,2,1,1,2
9.505,1,7,4,1,1,1,1,2
9.51,0,7,3,1,2,1,1,3
9.515,0,2,4,1,2,1,1,3
9.52,0,6,14,1,2,3,0,0
9.525,4,11,14,5,1,2,2,1
9.53,1,4,6,1,1,0,0,1
9.535,3,7,19,2,4,2,0,0
9.54,3,19,4,0,2,1,1,1
9.545,6,18,7,3,1,1,3,2
9.55,2,3,2,1,1,0,0,1
9.555,0,10,15,1,2,2,1,1
9.56,1,6,5,1,0,1,2,5
9.565,2,8,0,1,0,1,1,1
9.57,2,7,7,4,0,1,1,2
9.575,3,3,7,3,5,5,1,1
9.58,0,4,2,5,2,3,1,1
9.585,0,2,8,1,1,2,2,0
9.59,1,2,3,3,4,2,1,1
9.595,2,18,9,1,0,0,3,2
9.6,1,6,7,1,2,1,1,0
9.605,4,3,5,4,5,3,3,3
9.61,3,2,5,2,2,2,2,0
9.615,1,0,20,4,1,0,2,1
9.62,5,4,3,0,3,2,1,3
9.625,1,12,8,3,2,1,2,0
9.63,3,1,18,1,1,2,2,1
9.635,2,13,9,2,2,2,1,0
9.64,1,14,1,1,1,1,1,0
9.645,3,1,1,0,1,1,4,3
9.65,0,3,9,1,2,2,0,1
9.655,4,8,6,2,3,3,3,3
9.66,0,8,6,4,1,0,1,1
9.665,0,7,1,1,1,2,0,1
9.67,1,10,1,5,1,0,1,1
9.675,0,5,1,0,2,0,1,1
9.68,1,13,2,1,4,0,1,3
9.685,3,5,7,1,2,4,1,0
9.69,2,7,5,4,1,0,2,2
9.695,2,1,7,0,2,0,2,0
9.7,1,9,2,3,0,2,2,1
9.705,3,2,4,1,1,0,0,1
9.71,6,10,5,2,4,0,1,1
9.715,1,6,1,5,0,4,1,3
9.72,2,6,0,1,1,1,1,1
9.725,4,6,5,2,1,0,3,3
9.73,1,10,5,2,2,2,0,2
9.735,4,4,1,1,0,3,1,2
9.74,3,12,2,1,1,2,1,0
9.745,3,3,9,6,1,0,2,1
9.75,2,5,6,5,2,3,3,1
9.755,0,7,2,3,1,1,1,1
9.76,1,4,1,5,2,2,1,0
9.765,3,1,1,1,3,0,3,1
9.77,3,4,1,1,0,1,1,1
9.775,1,6,12,2,1,0,1,2
9.78,0,4,1,2,0,2,0,0
9.785,1,5,4,0,1,0,0,3
9.79,4,6,0,4,2,2,3,4
9.795,0,1,3,1,4,4,2,2
9.8,1,1,1,1,0,1,0,1
9.805,2,5,1,0,2,1,1,0
9.81,11,20,5,1,2,1,2,3
9.815,0,4,7,1,2,2,4,2
9.82,4,13,9,4,1,3,4,3
9.825,3,2,4,1,1,2,2,2
9.83,1,1,2,2,2,4,1,2
9.835,1,2,7,0,1,2,0,1
9.84,1,1,13,2,1,2,3,1
9.845,0,3,1,2,0,0,0,2
9.85,3,1,1,4,1,0,0,1
9.855,0,7,2,2,0,2,1,1
9.86,1,8,11,2,1,1,1,1
9.865,3,4,2,9,2,1,0,1
9.87,3,2,18,1,0,4,2,2
9.875,4,10,4,2,5,1,0,3
9.88,3,5,7,3,6,0,2,1
9.885,0,8,9,4,2,0,1,4
9.89,0,7,38,7,1,1,1,2
9.895,3,3,8,1,3,3,1,1
9.9,1,2,1,1,1,1,2,2
9.905,5,9,5,2,0,2,0,2
9.91,3,2,1,3,2,2,3,2
9.915,11,10,3,0,1,0,2,2
9.92,1,1,6,1,2,0,0,2
9.925,2,7,2,3,0,3,4,0
9.93,3,10,1,1,2,0,0,1
9.935,2,10,22,2,2,0,0,0
9.94,0,14,20,0,4,1,1,0
9.945,0,5,4,3,0,0,0,1
9.95,2,6,4,4,1,3,1,0
9.955,1,8,4,1,3,1,3,3
9.96,2,2,1,1,1,0,1,2
9.965,2,14,2,1,1,0,3,3
9.97,0,1,1,1,0,0,2,2
9.975,1,1,7,3,3,1,0,2
9.98,2,4,5,1,2,0,0,1
9.985,1,4,4,0,2,2,1,1
9.99,1,18,8,1,3,1,1,1
9.995,4,18,10,1,3,4,4,0
10,7,2,5,2,0,1,0,2
10.005,3,6,2,1,1,1,1,2
10.01,1,8,3,0,2,1,2,2
10.015,2,1,5,4,4,2,0,1
10.02,3,10,10,3,1,3,2,1
10.025,4,7,2,3,1,2,1,1
10.03,10,19,2,4,7,1,3,2
10.035,1,9,6,2,6,0,0,1
10.04,1,6,8,1,2,1,2,1
10.045,6,15,12,5,0,5,3,2
10.05,1,21,1,1,4,3,1,2
10.055,2,2,2,2,0,1,1,4
10.06,3,7,20,7,1,4,3,2
10.065,7,4,6,1,2,0,2,0
10.07,2,8,3,4,1,0,1,2
10.075,2,1,4,2,1,1,3,1
10.08,5,4,4,0,0,1,0,1
10.085,4,4,7,1,1,0,0,1
10.09,1,2,3,4,2,4,3,8
10.095,1,6,6,4,2,2,1,0
10.1,5,12,5,1,1,0,1,3
10.105,1,2,6,2,0,1,0,2
10.11,0,7,9,1,3,1,1,5
10.115,1,3,10,1,2,5,5,4
10.12,3,7,5,1,2,3,1,3
10.125,9,25,7,2,3,1,2,2
10.13,3,10,0,2,6,0,2,2
10.135,4,0,1,2,1,1,2,0
10.14,0,2,8,2,1,0,1,0
10.145,4,6,10,1,1,1,1,0
10.15,8,18,4,1,1,2,3,2
10.155,11,22,9,0,3,0,1,0
10.16,1,6,5,2,1,1,1,0
10.165,1,12,6,3,4,3,2,2
10.17,1,5,2,0,1,0,2,3
10.175,2,10,10,1,0,0,0,4
10.18,0,7,5,3,0,2,0,0
10.185,3,2,2,0,0,3,1,2
10.19,1,5,1,3,1,1,0,0
10.195,4,2,0,3,1,0,1,3
10.2,0,2,3,3,5,0,1,0
10.205,2,3,2,0,1,1,0,1
10.21,1,5,2,2,1,0,1,2
10.215,15,23,7,2,2,2,0,2
10.22,4,13,7,5,0,0,3,2
10.225,3,26,2,2,1,1,0,2
10.23,2,9,10,2,0,0,1,0
10.235,3,1,3,0,1,2,1,1
10.24,1,5,1,2,3,2,1,0
10.245,0,0,6,1,2,0,1,3
10.25,6,8,1,3,1,2,1,1
10.255,2,1,1,3,1,0,2,0
10.26,0,14,1,0,1,0,0,3
10.265,8,20,5,0,1,0,2,1
10.27,1,5,6,1,2,4,2,0
10.275,4,4,0,2,2,1,1,0
10.28,0,9,3,1,1,2,1,1
10.285,5,4,1,2,1,0,1,10
10.29,1,7,2,4,0,3,4,3
10.295,4,8,3,0,3,3,0,1
10.3,1,11,4,1,1,1,1,0
10.305,2,5,2,3,1,0,3,1
10.31,2,2,0,4,4,2,1,3
10.315,4,1,2,2,1,2,3,3
10.32,3,23,0,1,3,0,1,0
10.325,0,19,8,2,2,1,0,1
10.33,2,4,10,0,1,3,1,0
10.335,3,0,0,1,0,1,1,0
10.34,2,8,3,2,3,0,1,1
10.345,2,1,3,2,4,2,1,2
10.35,2,4,3,0,1,1,0,5
10.355,4,14,1,2,1,3,3,13
10.36,1,0,5,1,1,3,0,0
10.365,1,2,0,2,1,3,4,2
10.37,1,4,2,1,5,1,0,3
10.375,3,18,12,3,3,0,2,5
10.38,0,5,1,1,1,1,2,2
10.385,2,0,0,1,2,0,0,0
10.39,7,18,6,1,3,2,1,7
10.395,12,9,2,4,1,4,2,5
10.4,2,7,0,1,1,2,1,2
10.405,4,2,3,3,2,3,4,0
10.41,0,0,3,1,0,2,1,2
10.415,1,5,0,0,1,1,2,3
10.42,5,1,1,0,2,1,3,2
10.425,3,1,2,3,1,0,1,0
10.43,1,2,1,3,6,1,2,3
10.435,1,4,3,5,2,3,1,2
10.44,0,3,5,8,11,3,2,4
10.445,3,12,11,4,2,1,0,3
10.45,2,38,1,3,2,3,3,4
10.455,1,9,2,3,0,0,1,6
10.46,3,1,5,6,4,2,3,3
10.465,1,9,6,2,1,1,1,4
10.47,3,10,12,1,5,1,1,2
10.475,4,4,14,0,0,1,0,2
10.48,5,3,24,7,3,2,3,1
10.485,3,21,37,5,1,3,5,4
10.49,2,27,14,1,5,2,0,4
10.495,1,14,30,4,4,3,4,1
10.5,1,14,2,1,5,1,2,6
10.505,0,25,10,5,4,3,2,1
10.51,5,4,4,0,3,0,0,3
10.515,0,7,11,4,4,2,2,0
10.52,2,1,3,4,2,1,2,4
10.525,3,11,11,4,3,2,0,1
10.53,1,7,1,2,1,2,3,2
10.535,0,7,0,1,2,3,3,1
10.54,5,2,1,2,5,0,2,3
10.545,3,2,6,0,1,0,1,0
10.55,2,1,4,0,0,0,1,1
10.555,1,5,1,3,5,3,0,1
10.56,2,5,3,2,0,3,4,3
10.565,3,3,1,2,0,1,1,2
10.57,4,11,1,1,1,1,1,1
10.575,2,1,7,2,2,2,2,0
10.58,2,2,4,2,1,2,2,1
10.585,1,4,14,1,0,0,1,1
10.59,4,11,7,3,1,2,3,3
10.595,3,2,5,1,3,1,0,2
10.6,0,14,1,1,2,0,0,1
10.605,6,33,9,4,1,1,2,2
10.61,4,5,0,3,2,1,1,1
10.615,3,1,0,2,2,1,1,0
10.62,1,1,1,0,0,4,3,1
10.625,3,5,6,1,1,2,0,1
10.63,0,3,1,1,1,0,1,2
10.635,2,8,4,2,0,1,3,0
10.64,1,6,2,2,0,1,0,0
10.645,2,5,2,3,1,3,1,0
10.65,3,23,16,1,1,2,0,1
10.655,4,8,16,1,2,0,4,2
10.66,1,3,7,1,2,0,1,2
10.665,2,1,15,2,3,2,1,2
10.67,1,0,3,0,6,0,0,0
10.675,1,2,14,4,1,2,2,3
10.68,0,0,7,0,3,0,2,1
10.685,5,3,7,1,0,2,1,0
10.69,1,5,3,1,2,2,2,1
10.695,3,1,2,1,2,0,1,0
10.7,3,3,9,1,2,1,1,0
10.705,5,9,4,1,0,2,0,0
10.71,0,3,2,1,0,0,1,0
10.715,0,9,2,1,1,4,0,0
10.72,3,8,2,2,3,0,1,0
10.725,6,11,1,2,3,0,2,2
10.73,2,1,14,3,0,4,1,1
10.735,3,10,3,0,2,2,1,1
10.74,0,4,1,0,2,3,2,0
10.745,4,5,1,2,2,0,0,1
10.75,2,8,6,5,2,1,1,1
10.755,3,2,22,6,2,1,0,2
10.76,0,1,5,2,0,0,1,1
10.765,2,0,5,3,1,1,2,2
10.77,1,7,9,6,3,1,1,2
10.775,4,7,13,8,2,1,3,0
10.78,0,3,5,2,3,3,1,1
10.785,2,9,9,4,0,1,2,1
10.79,1,3,6,7,4,2,2,0
10.795,1,3,0,2,2,4,2,1
10.8,1,1,0,3,3,1,2,1
10.805,5,6,1,5,1,3,0,3
10.81,4,7,2,1,2,1,3,2
10.815,2,2,6,4,2,3,1,1
10.82,2,2,6,5,3,3,3,0
10.825,1,7,4,4,2,1,2,0
10.83,2,2,1,3,3,1,2,3
10.835,0,6,2,1,1,1,0,1
10.84,2,1,2,4,5,0,1,1
10.845,1,1,4,1,0,2,1,1
10.85,1,3,2,4,2,2,1,1
10.855,1,5,3,1,2,3,3,3
10.86,0,1,1,1,1,0,2,0
10.865,2,2,3,0,1,1,3,2
10.87,0,0,4,3,1,1,1,3
10.875,2,3,2,1,4,2,2,1
10.88,0,8,1,5,2,1,0,1
10.885,3,4,3,0,3,0,0,2
10.89,1,1,4,2,1,1,2,1
10.895,1,28,5,1,3,0,2,0
10.9,1,6,0,0,2,3,1,2
10.905,3,1,3,2,4,1,1,1
10.91,1,1,4,1,1,3,1,1
10.915,0,5,1,0,0,1,3,1
10.92,0,4,3,2,6,2,1,0
10.925,1,5,3,4,3,0,1,1
10.93,2,7,1,1,1,1,1,2
10.935,5,10,9,4,4,1,2,3
10.94,0,1,1,0,2,3,3,1
10.945,1,1,13,8,0,4,2,2
10.95,4,4,7,1,2,1,4,1
10.955,4,6,1,1,2,1,0,1
10.96,1,4,1,0,6,2,1,1
10.965,1,3,3,1,3,1,1,1
10.97,1,7,5,2,1,1,1,2
10.975,1,1,2,1,1,2,3,1
10.98,2,5,1,3,4,0,0,0
10.985,3,7,6,0,1,2,1,1
10.99,2,0,6,2,3,3,2,1
10.995,0,6,8,1,4,1,1,1
11,1,2,5,0,1,2,3,0
11.005,5,11,7,4,2,1,3,4
11.01,1,1,1,1,1,2,1,0
11.015,11,26,1,2,3,2,1,0
11.02,1,8,2,1,2,1,2,3
11.025,5,12,7,1,3,0,2,1
11.03,4,4,5,1,1,0,0,1
11.035,5,8,1,2,0,1,1,1
11.04,0,2,3,2,2,2,0,1
11.045,3,1,0,3,2,2,0,3
11.05,0,3,4,2,5,0,2,2
11.055,7,6,2,2,1,1,1,2
11.06,3,3,4,1,1,0,0,2
11.065,1,15,1,0,0,1,1,2
11.07,0,2,1,6,1,4,2,1
11.075,0,8,5,2,1,4,1,2
11.08,1,2,0,2,2,0,1,0
11.085,2,0,3,2,1,3,0,0
11.09,1,10,8,3,1,1,1,1
11.095,1,3,21,5,4,1,2,0
11.1,3,1,1,1,2,2,1,4
11.105,2,1,7,4,1,2,1,0
11.11,2,6,7,2,0,3,1,2
11.115,3,2,1,0,0,3,2,2
11.12,1,1,0,1,3,2,1,0
11.125,0,0,2,0,0,1,2,2
11.13,2,4,2,1,1,3,0,0
11.135,2,3,4,3,4,8,1,2
11.14,2,2,5,3,2,0,1,1
11.145,2,1,9,3,1,0,1,0
11.15,0,5,7,1,2,1,1,1
11.155,2,4,6,3,0,2,1,2
11.16,2,3,10,3,2,2,2,2
11.165,3,3,2,2,1,2,0,3
11.17,0,1,1,0,3,0,3,2
11.175,4,0,3,2,0,2,2,2
11.18,3,25,6,1,2,3,4,1
11.185,1,5,1,0,0,1,1,2
11.19,1,6,12,1,2,2,1,2
11.195,5,5,45,10,2,2,2,2
11.2,1,5,16,2,1,1,2,2
11.205,3,2,5,3,2,0,2,1
11.21,1,1,6,2,2,2,3,1
11.215,0,5,8,1,2,3,1,1
11.22,9,31,6,2,2,2,4,0
11.225,1,3,3,1,1,0,1,1
11.23,1,2,5,2,3,2,3,2
11.235,6,5,13,1,3,1,0,2
11.24,4,6,12,3,1,1,0,1
11.245,2,1,12,2,2,3,0,2
11.25,0,2,6,2,0,1,2,2
11.255,2,2,5,1,2,1,0,2
11.26,3,3,7,0,1,1,1,1
11.265,1,2,9,8,3,3,2,0
11.27,3,7,1,2,2,0,1,0
11.275,1,5,8,3,2,0,2,1
11.28,6,26,42,5,3,3,5,2
11.285,2,1,12,2,0,1,1,0
11.29,3,1,13,10,0,5,2,3
11.295,1,5,14,0,1,2,0,0
11.3,0,3,6,0,2,1,1,0
11.305,1,1,8,2,1,4,2,2
11.31,1,0,3,1,2,1,3,2
11.315,0,2,3,0,1,2,1,1
11.32,5,11,9,5,3,1,2,2
11.325,2,3,3,1,1,0,0,0
11.33,0,6,8,1,1,1,2,1
11.335,1,3,0,3,1,3,3,1
11.34,1,10,3,2,1,1,1,1
11.345,2,5,7,0,4,1,0,1
11.35,2,4,0,1,0,0,1,1
11.355,2,3,7,0,2,2,1,2
11.36,1,4,10,1,2,0,1,2
11.365,0,5,5,1,2,1,2,0
11.37,2,8,4,1,0,0,1,1
11.375,2,2,3,3,1,0,3,2
11.38,2,8,8,1,1,3,1,1
11.385,3,2,9,3,2,3,3,2
11.39,1,6,1,0,1,3,3,1
11.395,2,4,0,3,1,2,1,1
11.4,0,2,2,3,4,3,4,2
11.405,3,2,0,0,0,1,0,1
11.41,2,5,0,4,0,2,0,2
11.415,3,6,8,3,2,6,5,1
11.42,3,6,8,1,0,1,0,1
11.425,1,6,1,1,1,5,0,2
11.43,0,2,2,1,1,2,0,1
11.435,1,5,4,3,2,0,1,0
11.44,2,5,1,0,4,1,2,0
11.445,2,2,3,0,1,1,2,2
11.45,1,5,3,0,2,1,1,4
11.455,1,3,17,3,5,1,2,0
11.46,1,1,8,2,2,1,0,2
11.465,3,6,1,2,1,2,2,0
11.47,1,5,3,2,3,0,0,1
11.475,2,3,1,1,2,0,0,3
11.48,2,11,3,1,2,0,3,2
11.485,0,4,1,3,1,2,1,0
11.49,0,8,3,1,2,1,2,1
11.495,4,3,3,5,3,2,1,1
11.5,2,4,1,2,1,3,1,1
11.505,1,2,14,2,1,1,1,3
11.51,0,1,3,1,3,5,2,2
11.515,3,1,6,1,2,1,1,3
11.52,3,10,2,1,1,3,1,0
11.525,2,6,3,5,2,2,3,2
11.53,0,1,1,2,1,2,1,1
11.535,1,9,0,1,1,2,0,3
11.54,3,0,2,0,0,1,1,0
11.545,1,1,2,2,2,0,3,2
11.55,2,3,0,2,1,1,2,0
11.555,3,0,0,0,1,1,1,1
11.56,7,1,6,3,1,2,1,2
11.565,4,2,6,1,4,1,0,1
11.57,5,16,6,5,0,1,2,3
11.575,2,1,1,2,1,0,3,2
11.58,1,4,8,0,1,2,1,0
11.585,2,5,4,2,1,1,3,3
11.59,5,9,10,5,4,1,2,1
11.595,1,2,2,1,1,1,2,1
11.6,1,1,1,1,2,1,4,0
11.605,1,0,1,0,2,1,0,0
11.61,1,1,3,2,1,1,1,2
11.615,1,1,1,2,1,2,1,2
11.62,0,2,3,5,4,1,0,2
11.625,2,1,3,2,0,4,1,1
11.63,0,1,1,2,1,3,1,1
11.635,1,0,1,3,4,2,0,0
11.64,4,5,5,2,1,2,2,1
11.645,1,2,4,3,0,1,3,1
11.65,1,6,2,1,1,0,2,0
11.655,4,7,3,1,1,1,1,1
11.66,1,2,1,1,1,4,0,1
11.665,1,7,2,0,2,1,0,0
11.67,5,5,22,4,1,3,3,3
11.675,1,0,12,2,1,1,2,0
11.68,3,6,0,1,1,0,1,0
11.685,1,6,2,2,3,1,0,0
11.69,2,3,8,3,0,2,1,0
11.695,7,0,17,4,2,2,3,3
11.7,3,8,0,3,2,0,2,2
11.705,1,3,4,1,1,1,0,1
11.71,2,2,7,1,3,1,1,3
11.715,0,3,2,2,3,2,0,0
11.72,2,3,2,6,7,1,2,2
11.725,1,2,2,3,0,2,2,1
11.73,1,0,2,4,1,1,1,0
11.735,2,2,13,1,2,2,0,2
11.74,1,0,15,6,0,0,1,0
11.745,1,5,2,1,0,1,1,1
11.75,1,4,2,1,1,3,4,2
11.755,0,7,2,1,1,4,1,0
11.76,0,2,0,1,2,1,1,0
11.765,1,1,1,2,2,0,1,0
11.77,2,4,3,0,1,2,3,2
11.775,4,6,3,4,5,2,1,1
11.78,0,4,2,3,2,3,1,1
11.785,0,1,6,3,2,1,3,3
11.79,1,2,3,1,0,0,1,1
11.795,1,3,0,3,1,0,0,1
11.8,3,2,1,1,1,0,1,2
11.805,1,6,3,2,2,1,3,1
11.81,1,0,7,1,2,0,1,0
11.815,2,6,4,1,2,3,1,1
11.82,2,2,2,0,2,0,0,2
11.825,0,0,5,1,4,2,2,1
11.83,1,2,6,1,4,1,0,1
11.835,1,6,3,2,2,0,3,2
11.84,0,2,7,2,4,2,1,2
11.845,2,4,8,1,0,2,2,1
11.85,0,2,11,1,1,0,0,1
11.855,1,3,1,3,2,2,0,0
11.86,1,7,10,4,1,4,1,2
11.865,1,3,1,2,1,1,1,1
11.87,1,3,5,5,2,1,0,1
11.875,2,10,4,2,0,1,3,1
11.88,2,1,4,1,2,1,0,1
11.885,0,3,1,4,0,2,0,2
11.89,0,1,4,0,1,3,1,3
11.895,2,0,3,2,2,0,1,3
11.9,1,1,4,0,1,1,1,0
11.905,2,1,4,1,5,1,1,2
11.91,2,4,3,1,4,1,3,1
11.915,2,5,6,0,0,2,1,1
11.92,0,5,3,1,1,2,2,1
11.925,0,5,3,0,0,4,0,2
11.93,2,6,1,2,3,2,1,1
11.935,0,0,7,3,2,1,3,1
11.94,0,2,1,2,1,3,2,2
11.945,2,4,0,1,1,1,1,1
11.95,1,4,1,1,0,2,1,1
11.955,2,2,1,1,1,1,0,3
11.96,1,2,1,0,4,3,1,2
11.965,4,5,2,0,1,4,1,5
11.97,1,5,1,1,3,2,2,1
11.975,5,8,8,5,4,1,1,2
11.98,2,1,0,4,2,2,0,0
11.985,1,3,1,2,0,3,2,1
11.99,2,0,1,3,2,1,1,1
11.995,1,4,3,3,1,3,3,0
12,2,2,1,2,1,3,4,2
12.005,2,5,3,2,2,1,0,1
12.01,0,2,3,1,5,3,1,2
12.015,0,0,0,4,3,0,0,1
12.02,4,8,6,4,2,0,2,2
12.025,1,1,1,1,0,1,2,3
12.03,4,3,2,2,0,3,3,0
12.035,1,3,1,4,1,0,1,2
12.04,0,1,0,0,1,0,1,2
12.045,1,2,2,2,1,1,1,2
12.05,2,3,2,3,6,3,3,1
12.055,5,6,2,1,0,1,0,3
12.06,0,3,0,2,1,1,2,1
12.065,2,1,1,1,2,1,4,2
12.07,1,8,4,2,1,1,1,1
12.075,2,1,0,3,2,4,2,0
12.08,3,2,2,0,3,0,1,3
12.085,1,1,1,3,0,1,0,1
12.09,0,0,4,1,1,0,2,2
12.095,0,3,3,4,3,2,3,0
12.1,1,0,0,1,2,2,2,0
12.105,1,1,1,2,1,1,1,0
12.11,3,1,1,5,9,7,3,2
12.115,4,1,2,2,1,6,3,2
12.12,1,0,2,2,2,3,4,1
12.125,4,1,1,2,2,2,1,0
12.13,8,2,1,4,4,1,0,2
12.135,3,2,4,2,6,4,3,2
12.14,1,2,2,5,1,5,4,2
12.145,1,1,2,1,3,4,2,2
12.15,1,2,3,3,2,2,1,0
12.155,3,3,2,5,7,4,3,3
12.16,3,0,0,2,3,2,1,2
12.165,0,1,1,4,0,0,1,1
12.17,0,3,6,4,2,3,2,0
12.175,2,1,2,2,5,1,0,2
12.18,1,1,1,2,0,4,0,2
12.185,0,2,2,1,1,1,1,1
12.19,1,2,1,2,3,2,2,2
12.195,1,0,6,2,6,1,3,2
12.2,0,1,2,0,0,5,2,4
12.205,0,1,2,2,0,2,1,2
12.21,1,0,1,2,3,1,0,0
12.215,2,3,6,5,3,5,3,4
12.22,0,0,4,7,3,6,4,2
12.225,5,2,4,5,5,5,5,0
12.23,2,1,3,2,1,1,2,3
12.235,2,3,19,10,6,8,10,4
12.24,1,3,8,0,0,2,6,2
12.245,2,2,2,1,0,3,6,1
12.25,3,1,4,4,3,2,1,2
12.255,0,1,3,3,2,1,0,1
12.26,0,2,6,1,3,0,3,1
12.265,1,0,1,2,1,3,1,1
12.27,4,1,3,1,4,4,1,2
12.275,0,1,4,3,4,7,8,1
12.28,2,1,1,2,6,15,13,3
12.285,1,5,3,7,5,14,11,1
12.29,3,5,12,1,8,23,8,7
12.295,4,1,2,4,2,5,1,2
12.3,0,2,1,1,1,1,4,3
12.305,1,1,2,0,1,4,3,1
12.31,0,1,0,1,3,6,6,2
12.315,1,3,0,0,3,7,5,3
12.32,1,2,3,3,1,5,3,0
12.325,0,1,2,2,5,0,0,2
12.33,2,1,2,1,2,4,4,0
12.335,0,1,1,1,1,4,3,1
12.34,2,2,0,5,4,9,5,1
12.345,2,0,3,1,5,5,4,2
12.35,2,1,1,2,5,4,1,0
12.355,4,0,0,2,1,2,0,0
12.36,4,2,3,3,1,6,4,2
12.365,2,2,4,3,3,0,0,4
12.37,2,2,0,4,0,3,1,1
12.375,2,0,1,1,4,2,2,2
12.38,1,5,9,1,2,3,3,3
12.385,1,2,8,2,1,0,1,0
12.39,1,3,4,4,5,4,4,2
12.395,0,1,10,0,2,2,1,1
12.4,3,4,9,0,4,2,6,3
12.405,2,1,3,2,2,4,1,1
12.41,1,2,4,3,3,6,4,1
12.415,3,6,1,0,0,0,3,2
12.42,2,1,8,2,3,1,3,3
12.425,2,5,1,2,2,3,2,1
12.43,2,0,0,1,4,8,4,3
12.435,1,5,3,0,1,1,0,1
12.44,1,2,5,8,8,2,2,0
12.445,2,3,6,0,3,1,1,4
12.45,3,1,1,0,0,1,1,2
12.455,0,5,2,3,1,1,0,3
12.46,1,2,0,4,3,2,0,1
12.465,1,2,1,1,3,6,1,3
12.47,1,2,7,4,1,0,2,1
12.475,1,4,2,0,0,1,1,1
12.48,3,1,8,1,2,1,2,1
12.485,2,1,11,2,1,1,1,1
12.49,3,2,5,3,4,3,4,2
12.495,1,2,0,2,3,1,3,1
12.5,2,1,9,1,0,1,2,1
12.505,0,0,5,0,0,1,1,1
12.51,1,0,1,4,5,8,3,0
12.515,2,8,7,4,5,1,1,2
12.52,0,6,3,0,2,1,0,1
12.525,1,1,5,5,6,4,0,1
12.53,1,0,5,4,2,2,1,3
12.535,1,1,2,7,4,0,0,1
12.54,1,2,0,4,8,4,3,0
12.545,3,4,3,2,5,1,1,0
12.55,1,1,1,3,1,1,0,5
12.555,0,9,4,9,3,5,2,1
12.56,2,17,0,1,1,1,2,2
12.565,4,0,5,4,1,3,2,1
12.57,0,1,1,0,1,0,3,1
12.575,0,1,1,1,1,3,3,1
12.58,2,4,1,4,2,1,2,1
12.585,0,3,1,5,2,1,3,1
12.59,1,2,7,2,1,1,1,2
12.595,4,11,4,2,2,3,4,2
12.6,1,7,1,2,0,1,2,1
12.605,3,6,6,4,0,2,1,1
12.61,1,3,4,1,3,2,0,2
12.615,1,5,5,0,4,1,2,0
12.62,2,4,2,2,1,3,1,0
12.625,0,0,3,1,0,0,1,0
12.63,2,4,5,1,3,1,2,1
12.635,1,2,15,3,1,1,1,0
12.64,1,4,4,2,2,2,1,2
12.645,1,2,5,0,0,2,1,2
12.65,0,1,4,1,3,3,1,1
12.655,1,1,0,2,2,1,0,1
12.66,2,2,2,1,2,0,1,2
12.665,1,0,3,2,1,5,2,2
12.67,3,1,1,3,0,4,3,2
12.675,0,2,5,0,1,2,2,0
12.68,4,3,7,4,1,2,1,2
12.685,1,2,2,1,1,4,0,1
12.69,1,2,4,3,3,2,2,2
12.695,5,16,2,0,2,3,1,0
12.7,1,2,2,2,2,0,3,1
12.705,1,1,0,3,4,5,3,2
12.71,2,2,1,3,3,6,2,1
12.715,1,0,2,0,3,2,1,1
12.72,1,3,1,0,2,2,2,0
12.725,3,2,2,1,1,5,0,1
12.73,2,2,3,2,2,3,2,1
12.735,1,1,1,2,2,3,2,0
12.74,0,1,3,2,3,2,0,0
12.745,4,1,2,2,6,1,2,4
12.75,0,5,2,2,0,5,1,1
12.755,1,1,4,4,2,3,1,1
12.76,1,2,2,2,1,0,2,3
12.765,0,0,3,2,2,1,0,4
12.77,3,2,2,2,3,1,1,2
12.775,1,0,1,2,0,3,2,1
12.78,0,2,1,1,1,3,2,1
12.785,1,2,0,2,3,6,3,2
12.79,0,1,0,1,2,2,0,1
12.795,1,1,3,1,0,1,1,3
12.8,1,0,1,1,1,3,4,1
12.805,1,0,1,2,3,0,1,1
12.81,1,2,2,0,0,1,2,1
12.815,1,0,0,1,2,1,1,1
12.82,1,0,5,2,2,2,2,1
12.825,2,1,2,0,1,2,1,3
12.83,1,0,3,1,5,3,1,0
12.835,1,2,10,7,4,5,3,1
12.84,2,2,0,0,1,0,1,4
12.845,0,1,2,4,6,0,0,0
12.85,0,3,6,2,4,1,1,0
12.855,2,2,2,0,3,0,1,1
12.86,1,0,1,2,4,4,4,2
12.865,1,3,1,2,5,1,3,2
12.87,1,4,8,1,2,0,2,0
12.875,2,2,3,1,1,0,1,2
12.88,2,2,4,2,0,3,0,0
12.885,0,1,4,2,2,5,2,1
12.89,1,1,2,1,2,2,2,2
12.895,0,2,2,1,1,1,0,1
12.9,0,1,4,1,3,2,3,1
12.905,1,2,9,4,5,2,3,2
12.91,1,1,1,2,2,4,1,1
12.915,2,0,2,1,2,2,3,1
12.92,3,1,1,5,1,3,3,1
12.925,1,3,7,0,4,1,2,2
12.93,1,0,9,1,0,1,2,1
12.935,1,1,1,1,2,1,1,2
12.94,0,1,1,0,2,0,1,1
12.945,2,3,2,1,0,0,2,2
12.95,1,1,4,1,1,1,0,2
12.955,1,1,2,4,2,2,2,0
12.96,1,2,4,2,0,1,3,1
12.965,1,0,2,2,0,2,1,0
12.97,2,1,5,2,1,4,3,3
12.975,1,0,2,2,0,2,2,0
12.98,2,2,4,5,3,2,2,1
12.985,2,1,2,0,1,4,1,2
12.99,2,0,2,3,2,4,1,1
12.995,2,4,1,0,0,1,2,1
13,1,1,1,2,2,1,1,3
13.005,1,0,2,3,1,1,0,2
13.01,0,1,2,2,1,0,1,2
13.015,2,2,0,1,1,2,3,1
13.02,0,3,2,1,1,0,1,1
13.025,1,3,6,1,1,1,1,0
13.03,0,2,7,1,1,2,4,1
13.035,2,4,2,4,1,1,0,1
13.04,1,3,0,1,1,0,0,0
13.045,1,0,2,3,1,1,3,1
13.05,3,3,3,0,4,1,1,3
13.055,3,2,4,2,0,2,0,1
13.06,0,1,0,0,1,2,1,1
13.065,1,3,3,3,1,1,1,1
13.07,1,1,4,4,1,6,2,1
13.075,0,1,3,1,2,2,1,2
13.08,0,1,4,2,4,5,1,1
13.085,3,6,2,1,0,1,2,2
13.09,2,1,2,1,5,1,2,2
13.095,1,3,1,2,3,1,4,1
13.1,2,1,2,6,5,2,0,1
13.105,1,2,1,1,0,2,1,1
13.11,0,2,3,5,7,1,1,0
13.115,1,2,1,4,2,4,0,2
13.12,1,2,3,2,2,1,3,2
13.125,2,1,2,7,3,3,0,2
13.13,3,3,3,1,3,2,1,1
13.135,2,0,2,1,3,4,2,0
13.14,0,0,1,2,2,1,1,1
13.145,3,2,7,5,2,1,2,3
13.15,0,2,2,2,1,6,3,1
13.155,2,3,1,2,3,3,3,0
13.16,1,3,5,3,2,1,3,2
13.165,1,0,0,0,1,2,2,3
13.17,0,2,1,3,1,1,3,0
13.175,2,3,1,3,3,0,0,1
13.18,1,1,1,1,2,1,2,1
13.185,1,2,2,0,0,2,0,1
13.19,0,4,0,2,2,4,4,0
13.195,1,0,1,4,0,1,0,0
13.2,3,3,1,1,1,1,0,3
13.205,1,6,1,0,3,4,1,0
13.21,1,5,1,0,1,1,2,1
13.215,0,2,3,4,1,2,0,1
13.22,0,3,0,2,1,1,1,1
13.225,1,1,0,4,2,2,1,2
13.23,0,1,1,2,3,0,0,1
13.235,2,1,2,3,4,0,1,0
13.24,3,2,1,3,2,1,3,1
13.245,0,3,3,0,1,6,4,2
13.25,0,0,0,0,3,3,1,1
13.255,3,1,4,1,3,2,1,3
13.26,1,1,0,2,2,0,3,3
13.265,0,1,1,0,2,2,1,0
13.27,1,1,0,2,2,0,1,0
13.275,2,1,1,3,3,2,0,2
13.28,1,1,3,0,2,2,1,1
13.285,1,1,2,1,1,0,0,1
13.29,0,0,0,1,1,5,0,2
13.295,1,3,2,2,4,3,3,2
13.3,1,3,1,1,2,2,2,1
13.305,2,2,2,4,6,4,3,1
13.31,2,0,1,0,1,6,0,2
13.315,1,1,3,3,6,6,3,0
13.32,1,2,1,3,1,2,2,0
13.325,2,2,3,2,4,2,4,1
13.33,1,2,0,2,2,2,1,2
13.335,3,2,3,2,4,5,4,2
13.34,4,2,0,1,2,0,2,2
13.345,0,2,1,1,0,0,3,2
13.35,1,3,2,2,1,3,1,1
13.355,0,2,1,5,0,0,2,0
13.36,1,2,2,3,3,0,1,2
13.365,3,2,0,2,3,0,2,1
13.37,0,2,0,1,3,0,2,2
13.375,1,2,3,3,2,1,1,2
13.38,1,0,3,2,3,3,3,1
13.385,0,0,2,1,1,1,0,1
13.39,1,4,5,2,2,1,0,0
13.395,2,2,2,2,1,1,4,2
13.4,0,1,4,2,4,2,2,1
13.405,1,0,0,2,0,2,2,2
13.41,0,2,1,1,1,1,1,0
13.415,2,5,1,0,2,4,2,2
13.42,1,1,1,2,0,0,2,0
13.425,1,0,1,1,3,1,0,0
13.43,1,3,0,1,1,1,2,0
13.435,1,1,2,2,1,2,0,1
13.44,0,1,3,2,1,0,0,2
13.445,2,2,1,0,2,1,1,1
13.45,2,3,1,2,1,2,2,1
13.455,2,3,2,0,1,1,2,1
13.46,1,1,3,3,0,3,1,1
13.465,1,2,3,1,0,1,0,3
13.47,1,3,1,1,1,3,2,1
13.475,1,1,2,0,2,1,1,0
13.48,2,1,3,0,0,2,1,2
13.485,0,1,1,2,0,0,1,0
13.49,4,1,1,4,2,2,0,1
13.495,1,2,1,2,0,2,1,2
13.5,2,3,2,3,3,3,1,2
13.505,3,1,2,2,1,3,2,2
13.51,4,2,0,2,2,4,2,3
13.515,1,2,1,2,0,1,2,2
13.52,2,2,3,2,1,3,1,0
13.525,2,3,2,3,1,1,3,1
13.53,2,2,1,2,3,4,0,0
13.535,2,1,6,2,2,3,2,2
13.54,2,1,4,0,2,1,1,1
13.545,2,0,3,2,2,1,2,1
13.55,0,4,3,0,1,1,3,0
13.555,0,1,1,2,0,1,0,2
13.56,7,6,1,3,4,2,1,1
13.565,3,2,0,3,2,1,2,0
13.57,2,0,1,5,1,6,1,2
13.575,1,1,2,5,2,4,2,2
13.58,3,2,1,0,1,1,1,2
13.585,1,0,6,1,1,2,4,4
13.59,5,8,2,4,3,2,2,2
13.595,1,1,1,2,0,0,0,2
13.6,3,4,0,0,0,0,1,1
13.605,2,3,0,2,3,2,3,3
13.61,1,3,2,0,0,1,1,1
13.615,2,1,2,1,2,1,1,2
13.62,1,1,1,1,2,3,1,3
13.625,3,2,2,1,2,1,1,0
13.63,3,2,1,0,2,0,1,2
13.635,1,1,4,1,3,1,2,0
13.64,3,0,0,2,0,1,3,0
13.645,4,5,7,4,1,4,4,3
13.65,1,1,0,2,1,0,2,3
13.655,0,4,0,4,3,1,2,1
13.66,3,2,2,2,1,2,2,2
13.665,6,2,3,0,2,2,1,2
13.67,1,1,0,1,3,2,1,0
13.675,3,7,1,2,1,2,1,3
13.68,4,5,3,4,2,3,3,2
13.685,2,0,1,1,1,0,0,0
13.69,0,6,3,4,2,1,3,2
13.695,2,17,2,2,1,2,1,0
13.7,5,18,6,1,1,3,3,3
13.705,0,3,5,1,0,1,1,0
13.71,1,2,2,2,1,2,1,1
13.715,0,5,4,1,1,1,3,0
13.72,1,2,2,3,1,1,1,1
13.725,1,1,4,1,0,0,0,2
13.73,2,4,6,0,2,0,0,3
13.735,1,4,1,2,0,3,3,2
13.74,3,3,2,1,2,4,4,2
13.745,3,1,1,4,1,5,1,1
13.75,4,3,3,1,3,1,1,3
13.755,2,5,3,1,1,3,2,3
13.76,2,1,3,4,1,3,1,3
13.765,9,3,3,2,3,3,0,2
13.77,1,3,0,2,1,0,3,2
13.775,5,2,4,3,1,2,1,1
13.78,2,3,1,0,3,1,4,2
13.785,2,2,1,5,2,1,1,1
13.79,4,6,0,1,2,3,2,4
13.795,1,0,8,6,2,2,2,2
13.8,3,2,2,5,3,1,2,0
13.805,1,3,1,3,3,1,2,1
13.81,3,4,0,2,1,3,2,1
13.815,2,11,3,1,0,1,0,1
13.82,1,0,0,2,3,2,3,3
13.825,1,1,7,1,2,4,2,1
13.83,2,4,3,1,1,2,2,0
13.835,0,3,4,1,1,1,1,0
13.84,1,3,1,1,2,0,1,1
13.845,1,3,1,1,0,1,0,1
13.85,4,2,2,4,2,2,3,2
13.855,0,0,3,1,0,1,2,0
13.86,2,1,4,2,3,4,3,0
13.865,4,1,1,2,1,3,3,3
13.87,4,0,2,6,6,7,5,4
13.875,0,6,1,3,3,1,2,2
13.88,2,2,2,1,3,1,1,1
13.885,0,3,5,2,4,3,2,3
13.89,3,2,0,1,1,6,2,2
13.895,1,2,3,2,0,1,2,0
13.9,6,14,3,1,3,1,1,1
13.905,2,3,5,0,1,3,3,3
13.91,0,1,2,4,1,0,1,2
13.915,1,1,2,2,3,1,1,2
13.92,3,1,1,1,1,2,2,2
13.925,2,2,0,1,1,1,2,1
13.93,1,1,1,6,0,2,2,0
13.935,3,1,3,1,2,3,3,2
13.94,1,4,3,1,1,1,1,0
13.945,0,2,0,2,2,2,0,2
13.95,1,6,3,1,3,2,0,4
13.955,2,8,4,2,0,3,1,1
13.96,4,0,2,1,1,0,0,3
13.965,0,1,1,3,1,2,1,1
13.97,4,1,2,1,2,0,0,1
13.975,0,0,2,1,3,1,0,1
13.98,2,6,14,2,2,2,2,3
13.985,2,0,1,1,5,0,1,2
13.99,1,0,3,4,2,5,2,2
13.995,3,2,3,1,4,1,1,2
14,2,1,2,1,1,1,2,0
14.005,1,4,0,1,1,1,1,1
14.01,4,2,14,2,2,6,1,3
14.015,0,4,3,2,2,2,1,1
14.02,2,3,5,0,2,2,1,1
14.025,4,10,1,1,1,0,0,3
14.03,1,6,8,0,2,2,0,2
14.035,1,3,5,2,1,2,1,0
14.04,8,2,1,1,0,4,0,2
14.045,4,7,2,3,2,6,3,3
14.05,1,2,0,1,1,1,0,2
14.055,0,4,3,4,3,1,0,0
14.06,2,4,2,1,6,4,2,1
14.065,2,2,4,3,0,1,2,2
14.07,2,3,5,1,2,0,0,1
14.075,0,5,2,1,0,4,3,1
14.08,2,2,2,1,3,1,1,1
14.085,0,2,2,3,1,2,2,2
14.09,0,3,1,5,3,1,1,1
14.095,1,0,3,1,0,0,0,3
14.1,1,1,1,1,1,3,4,1
14.105,6,1,3,2,2,1,2,1
14.11,1,4,4,0,2,1,1,1
14.115,2,1,1,1,1,1,1,2
14.12,1,1,3,0,2,2,0,0
14.125,0,4,2,3,2,2,1,3
14.13,0,1,5,1,1,2,1,1
14.135,3,0,1,1,5,5,3,4
14.14,6,9,23,5,0,7,2,2
14.145,2,4,1,1,2,0,2,2
14.15,1,2,1,0,1,2,1,1
14.155,1,1,0,2,2,5,1,2
14.16,0,1,1,2,6,3,2,4
14.165,3,1,1,3,1,0,1,1
14.17,2,3,1,2,0,3,1,0
14.175,2,0,3,3,1,1,1,0
14.18,0,1,2,4,3,2,0,0
14.185,2,4,8,4,3,5,3,1
14.19,1,2,1,1,1,1,1,2
14.195,1,1,1,1,0,1,2,2
14.2,1,0,2,1,1,1,2,0
14.205,3,1,3,6,4,1,1,4
14.21,3,4,6,1,2,0,2,1
14.215,1,7,6,1,3,5,3,2
14.22,3,15,7,6,1,2,0,2
14.225,0,0,3,2,3,1,1,1
14.23,1,1,1,6,2,3,0,2
14.235,1,1,0,2,4,0,1,0
14.24,0,3,7,3,4,2,1,2
14.245,2,4,4,1,0,1,1,1
14.25,5,7,5,6,3,6,3,2
14.255,2,3,1,6,4,4,5,3
14.26,2,5,4,5,6,3,2,0
14.265,4,0,2,3,1,0,1,2
14.27,0,0,4,0,2,3,1,1
14.275,3,6,11,9,4,4,2,1
14.28,4,1,0,0,2,2,5,2
14.285,0,3,0,1,5,0,3,2
14.29,1,1,10,5,2,0,0,0
14.295,2,5,14,1,2,0,0,1
14.3,0,1,0,7,6,3,1,1
14.305,2,3,0,2,0,2,2,1
14.31,0,3,2,0,2,0,0,2
14.315,2,2,1,1,0,1,2,2
14.32,0,4,9,1,4,1,2,0
14.325,2,1,1,2,0,2,0,2
14.33,2,0,5,6,7,3,1,2
14.335,0,1,2,6,4,2,4,2
14.34,3,2,18,3,0,0,0,2
14.345,4,1,7,15,4,3,0,1
14.35,2,1,6,0,6,3,1,1
14.355,6,9,1,2,9,1,4,3
14.36,5,5,4,3,3,0,4,1
14.365,2,0,14,5,4,2,1,1
14.37,2,3,7,1,0,4,2,2
14.375,2,2,5,5,4,1,1,1
14.38,1,3,1,1,0,1,1,0
14.385,0,1,4,1,0,2,2,2
14.39,0,1,0,3,0,2,0,2
14.395,0,6,6,2,1,1,1,1
14.4,0,1,17,0,0,3,0,1
14.405,5,4,4,4,1,1,2,3
14.41,1,1,2,4,2,1,1,0
14.415,2,3,2,0,0,1,0,2
14.42,0,1,2,0,0,3,3,1
14.425,0,2,0,1,1,3,3,1
14.43,4,3,7,0,3,2,3,1
14.435,1,0,1,2,1,1,1,2
14.44,1,1,5,3,3,0,0,1
14.445,3,2,5,2,1,4,1,0
14.45,0,3,0,4,1,0,2,3
14.455,0,1,1,0,1,1,1,0
14.46,2,2,2,0,1,2,0,0
14.465,4,3,4,0,1,1,2,1
14.47,1,4,6,0,1,2,0,0
14.475,4,4,1,3,2,3,3,3
14.48,1,1,9,1,1,2,2,3
14.485,2,3,4,3,3,3,4,2
14.49,2,2,5,2,3,2,0,3
14.495,1,2,2,2,1,1,1,2
14.5,4,9,3,3,0,4,3,2
14.505,5,0,2,2,2,1,2,1
14.51,1,1,1,1,2,1,3,2
14.515,1,0,0,2,1,1,1,0
14.52,2,3,9,3,1,3,5,0
14.525,1,4,2,1,1,1,0,3
14.53,1,2,4,1,1,2,0,4
14.535,3,2,5,0,3,3,0,0
14.54,0,2,8,2,3,0,0,2
14.545,1,1,5,0,1,3,4,0
14.55,1,4,3,3,2,3,0,1
14.555,3,4,1,2,1,0,3,1
14.56,2,1,4,3,3,1,0,2
14.565,1,3,1,3,0,2,0,3
14.57,4,4,2,1,0,1,2,1
14.575,3,6,3,1,2,2,2,2
14.58,6,7,4,1,1,6,0,0
14.585,0,1,1,2,3,0,3,2
14.59,1,2,6,4,1,3,0,2
14.595,0,4,1,1,3,4,1,1
14.6,3,1,1,4,4,2,1,1
14.605,0,1,0,0,1,1,1,2
14.61,2,0,5,1,1,1,3,1
14.615,1,3,7,1,4,0,1,1
14.62,4,9,2,0,1,4,2,3
14.625,2,2,5,4,3,3,2,1
14.63,1,0,1,2,2,2,0,1
14.635,1,0,2,1,3,2,1,1
14.64,2,0,0,1,1,1,0,3
14.645,2,4,1,0,1,1,2,0
14.65,1,0,1,0,1,4,2,3
14.655,2,0,0,1,3,0,3,3
14.66,0,1,2,2,0,1,3,1
14.665,1,3,4,2,0,2,0,1
14.67,9,11,2,1,4,3,1,0
14.675,1,5,3,2,2,3,1,1
14.68,2,2,1,1,1,2,0,2
14.685,0,0,2,1,0,1,0,2
14.69,2,0,0,1,2,1,1,2
14.695,0,0,10,4,3,1,0,1
14.7,2,1,2,2,1,2,1,2
14.705,0,2,2,3,1,1,2,1
14.71,2,3,2,2,2,2,1,1
14.715,1,3,3,0,3,0,2,0
14.72,0,2,1,1,3,0,2,1
14.725,1,1,1,2,3,3,1,2
14.73,0,6,3,2,0,2,3,1
14.735,2,0,4,1,0,0,1,0
14.74,1,2,3,2,3,1,0,1
14.745,3,3,1,1,2,3,0,2
14.75,1,1,2,0,5,4,2,2
14.755,2,0,1,1,3,1,1,1
14.76,1,2,2,0,1,2,0,1
14.765,3,2,3,1,0,1,0,1
14.77,1,2,13,0,4,1,0,0
14.775,1,0,1,2,2,2,4,1
14.78,1,1,2,3,3,2,2,2
14.785,4,4,3,1,3,0,1,1
14.79,1,3,1,2,0,2,3,1
14.795,2,2,3,1,1,1,0,0
14.8,0,3,3,1,1,2,1,0
14.805,1,1,3,1,0,2,2,2
14.81,1,1,4,0,3,1,1,3
14.815,2,1,4,2,0,2,0,1
14.82,1,0,2,0,1,1,1,0
14.825,1,3,1,0,0,1,1,0
14.83,1,1,1,3,2,2,2,1
14.835,1,4,5,2,0,1,2,3
14.84,1,2,0,2,1,0,2,1
14.845,1,2,3,1,2,1,1,0
14.85,2,2,1,1,2,0,1,0
14.855,0,0,1,3,2,2,1,2
14.86,3,4,5,1,2,4,3,1
14.865,1,1,4,1,0,1,1,1
14.87,4,6,19,3,1,2,1,1
14.875,0,0,3,1,2,0,2,1
14.88,4,0,3,4,2,0,0,1
14.885,1,1,3,2,1,1,3,2
14.89,1,1,3,3,3,2,4,1
14.895,0,1,1,3,1,0,1,1
14.9,1,0,4,2,1,1,1,0
14.905,2,2,3,0,1,1,1,1
14.91,1,1,2,0,2,2,0,0
14.915,2,1,4,5,2,3,1,0
14.92,2,4,3,1,3,2,2,2
14.925,2,0,4,1,0,3,2,1
14.93,1,3,1,2,2,0,0,2
14.935,2,2,3,1,0,0,1,1
14.94,1,1,3,3,1,1,1,1
14.945,0,2,11,0,0,1,2,2
14.95,2,1,1,0,1,1,1,2
14.955,1,1,1,1,1,0,0,1
14.96,3,0,4,1,2,1,1,2
14.965,3,4,17,4,1,2,2,1
14.97,2,0,3,1,0,4,2,3
14.975,3,1,5,3,4,0,0,0
14.98,0,0,2,1,1,1,1,1
14.985,1,3,4,3,2,1,1,1
14.99,1,0,5,0,3,4,3,1
14.995,0,0,1,1,1,0,2,3
15,0,1,1,2,1,2,1,1
15.005,0,1,0,2,1,4,3,2
15.01,1,2,1,4,3,1,1,1
15.015,2,2,2,2,1,0,2,2
15.02,1,2,1,0,1,1,1,1
15.025,3,3,2,1,2,2,2,1
15.03,2,2,1,0,1,1,1,3
15.035,3,2,1,3,0,0,2,1
15.04,0,3,19,3,3,1,2,1
15.045,3,2,5,2,2,1,0,0
15.05,1,3,3,0,2,0,2,0
15.055,1,1,0,1,4,1,2,1
15.06,2,2,1,0,1,3,1,2
15.065,2,1,2,0,3,0,1,2
15.07,5,8,6,2,0,2,1,1
15.075,3,3,2,5,1,0,2,1
15.08,2,2,6,2,6,3,3,1
15.085,2,0,6,2,1,1,1,1
15.09,1,2,6,2,2,2,1,2
15.095,2,1,7,1,1,3,2,1
15.1,0,1,4,4,1,1,2,2
15.105,3,5,1,4,1,0,1,4
15.11,1,5,7,3,1,2,1,1
15.115,1,1,1,0,2,1,0,0
15.12,1,2,1,1,0,1,2,2
15.125,0,0,4,1,1,3,0,0
15.13,2,1,0,0,1,0,1,1
15.135,1,2,2,1,3,1,3,0
15.14,1,1,3,1,1,0,1,3
15.145,2,1,2,1,3,1,1,1
15.15,1,1,3,3,2,1,0,1
15.155,1,2,1,1,0,2,1,0
15.16,1,4,6,6,2,2,3,1
15.165,1,4,2,1,2,0,2,0
15.17,2,4,2,1,1,2,1,2
15.175,6,8,7,2,1,0,0,1
15.18,1,0,1,3,2,1,1,1
15.185,0,0,1,2,1,2,4,1
15.19,1,2,2,1,2,0,2,0
15.195,2,4,6,1,2,3,2,1
15.2,0,4,3,3,1,2,2,3
15.205,1,1,1,0,1,1,2,1
15.21,0,0,1,1,2,2,0,2
15.215,0,2,4,1,1,2,1,1
15.22,3,10,8,1,2,2,1,1
15.225,1,2,9,1,1,2,4,2
15.23,0,6,6,0,0,1,3,4
15.235,3,0,3,2,0,2,0,1
15.24,2,1,4,1,2,1,2,2
15.245,1,0,5,2,0,3,1,0
15.25,1,1,2,2,1,3,2,0
15.255,2,4,3,0,2,1,2,0
15.26,1,0,1,1,3,0,1,2
15.265,1,1,5,2,1,1,1,1
15.27,1,2,0,1,2,1,0,2
15.275,2,6,5,2,3,2,1,1
15.28,3,10,3,1,2,0,2,1
15.285,5,1,1,0,1,1,0,0
15.29,1,0,1,2,1,1,2,0
15.295,2,4,5,1,0,2,2,2
15.3,1,2,1,2,1,2,1,0
15.305,0,0,0,0,2,1,1,2
15.31,0,4,5,2,3,2,2,0
15.315,2,6,0,1,2,1,1,1
15.32,2,2,2,4,2,2,1,0
15.325,0,2,1,2,1,0,0,2
15.33,1,4,1,1,1,1,1,2
15.335,2,4,0,3,3,0,0,0
15.34,1,2,1,1,1,2,3,0
15.345,1,1,3,4,3,3,1,0
15.35,2,0,2,2,1,0,0,1
15.355,0,3,4,0,2,0,1,0
15.36,1,1,5,3,1,1,0,0
15.365,2,0,2,0,2,1,2,1
15.37,2,0,1,2,1,3,1,1
15.375,5,8,6,1,4,2,3,3
15.38,0,5,3,1,2,0,1,2
15.385,3,2,4,3,2,1,3,1
15.39,0,0,5,2,0,2,0,1
15.395,2,1,1,1,1,3,0,1
15.4,1,2,0,2,1,0,0,1
15.405,1,1,0,1,1,0,1,1
15.41,2,1,2,1,2,1,4,2
15.415,1,1,3,3,3,3,0,2
15.42,2,2,3,1,1,1,1,2
15.425,2,1,1,1,2,2,1,1
15.43,2,1,0,2,1,2,1,0
15.435,3,1,4,1,2,0,2,0
15.44,1,1,1,1,0,5,1,1
15.445,2,2,0,3,2,0,0,3
15.45,1,0,1,0,3,2,2,3
15.455,1,3,13,3,2,1,3,2
15.46,3,0,1,1,3,1,0,1
15.465,1,2,2,4,0,2,3,2
15.47,0,0,2,2,3,1,1,2
15.475,0,5,4,1,0,0,0,1
15.48,1,0,3,1,2,1,2,2
15.485,1,2,3,1,1,4,1,2
15.49,2,4,0,3,3,3,0,2
15.495,1,0,1,4,0,0,1,2
15.5,3,1,1,0,1,0,4,1
15.505,2,4,1,2,2,3,2,0
15.51,8,14,3,1,3,0,0,3
15.515,2,2,0,0,2,2,1,0
15.52,0,2,0,2,0,2,1,3
15.525,1,4,5,5,0,2,1,3
15.53,2,4,1,3,2,1,1,2
15.535,3,1,1,0,3,2,2,0
15.54,0,0,3,3,0,3,1,0
15.545,1,3,1,1,0,2,2,0
15.55,0,3,1,0,0,0,2,0
15.555,2,1,16,4,2,1,1,2
15.56,4,4,3,1,1,1,1,1
15.565,2,1,3,1,2,2,2,1
15.57,3,5,2,0,0,1,0,1
15.575,3,3,2,1,0,1,4,2
15.58,0,1,3,1,4,0,1,1
15.585,1,0,4,3,1,1,1,2
15.59,0,0,0,1,2,0,1,0
15.595,0,0,0,2,1,2,1,1
15.6,0,2,5,2,2,2,3,1
15.605,2,1,1,3,3,2,0,1
15.61,5,2,6,1,2,3,1,3
15.615,3,4,1,1,1,2,0,0
15.62,2,7,1,1,1,2,1,1
15.625,0,1,3,4,3,2,3,0
15.63,1,2,0,2,3,1,2,0
15.635,0,0,0,2,0,2,0,1
15.64,1,1,1,1,0,2,0,1
15.645,1,1,2,0,3,1,1,0
15.65,2,3,4,2,1,2,2,1
15.655,2,3,1,2,0,2,2,1
15.66,3,4,2,2,3,2,2,1
15.665,3,3,1,1,1,2,1,2
15.67,1,1,1,1,1,0,1,1
15.675,1,1,1,2,1,3,1,3
15.68,2,4,2,1,0,0,0,2
15.685,0,1,1,2,0,1,0,3
15.69,1,0,0,0,1,1,1,2
15.695,2,2,1,2,6,3,3,3
15.7,1,1,2,1,1,0,0,1
15.705,2,1,1,2,1,1,3,1
15.71,2,3,2,0,1,2,2,2
15.715,1,4,2,3,0,3,2,2
15.72,2,4,4,2,3,0,1,1
15.725,1,0,0,1,0,0,0,1
15.73,3,2,2,4,5,3,3,3
15.735,2,1,1,1,0,1,0,0
15.74,1,2,1,1,3,0,2,0
15.745,0,0,6,2,2,1,1,0
15.75,5,11,2,1,1,2,3,2
15.755,1,0,9,1,1,4,2,1
15.76,1,1,3,1,2,2,0,0
15.765,0,1,0,1,0,0,1,1
15.77,2,5,3,1,0,2,1,3
15.775,0,1,0,4,2,0,0,1
15.78,2,1,2,1,0,1,3,2
15.785,0,1,2,1,3,2,2,2
15.79,2,2,1,1,2,1,0,0
15.795,3,5,4,0,0,1,0,0
15.8,2,1,3,2,3,0,1,2
15.805,3,0,3,0,1,1,0,1
15.81,2,5,0,0,1,0,2,1
15.815,0,0,6,1,2,0,2,0
15.82,1,3,3,3,3,1,1,2
15.825,1,3,6,2,5,3,1,1
15.83,2,2,0,0,1,2,0,1
15.835,1,0,0,1,1,1,1,1
15.84,1,2,2,5,2,2,2,2
15.845,1,2,1,1,3,2,1,2
15.85,2,1,3,5,1,1,2,1
15.855,4,2,16,0,1,2,3,1
15.86,4,1,3,3,1,2,2,1
15.865,0,0,0,3,1,2,1,1
15.87,2,5,2,2,2,1,3,2
15.875,0,2,6,2,1,3,1,1
15.88,1,0,2,0,1,3,2,2
15.885,0,0,3,4,1,1,1,3
15.89,2,8,6,2,1,0,1,1
15.895,1,0,2,2,0,1,2,2
15.9,1,0,1,0,3,0,0,3
15.905,2,2,1,1,1,1,2,0
15.91,0,1,2,1,3,1,1,1
15.915,0,1,4,1,2,2,1,0
15.92,4,5,1,1,0,4,2,2
15.925,2,4,15,3,2,1,3,1
15.93,1,0,1,0,0,0,2,0
15.935,2,1,0,1,1,1,0,1
15.94,1,0,0,1,0,2,1,0
15.945,2,0,1,7,0,1,1,2
15.95,2,0,4,2,1,2,1,2
15.955,1,0,2,0,3,1,1,2
15.96,0,1,0,2,1,2,1,1
15.965,1,2,4,2,5,3,1,1
15.97,2,2,1,4,0,1,1,4
15.975,2,0,0,4,3,1,2,1
15.98,2,3,0,0,3,2,2,1
15.985,1,1,1,1,1,1,2,0
15.99,3,2,1,0,1,3,0,1
15.995,2,0,1,2,2,4,1,1
16,1,0,4,2,1,0,2,1
16.005,2,4,4,1,0,2,2,1
16.01,1,1,2,0,0,1,1,1
16.015,2,2,2,1,2,0,1,0
16.02,5,6,4,4,2,4,1,1
16.025,1,1,1,1,1,2,0,1
16.03,0,1,3,3,1,0,1,1
16.035,2,3,3,1,2,0,0,2
16.04,1,0,2,1,1,2,1,1
16.045,2,1,1,3,1,1,2,1
16.05,1,2,3,1,1,4,4,1
16.055,1,3,1,0,2,1,2,2
16.06,1,0,2,2,3,1,1,1
16.065,1,1,1,4,0,1,2,1
16.07,1,1,4,0,0,2,1,1
16.075,2,2,1,1,0,1,4,2
16.08,1,3,0,2,2,0,0,1
16.085,4,4,5,0,0,2,2,2
16.09,2,0,0,2,1,1,0,1
16.095,1,0,4,3,5,0,1,1
16.1,0,0,1,3,0,1,4,1
16.105,1,1,3,1,2,0,0,1
16.11,1,1,3,3,2,2,3,3
16.115,2,2,1,2,1,1,0,1
16.12,0,1,1,3,3,1,1,2
16.125,1,1,3,1,2,2,1,2
16.13,1,3,10,0,2,3,0,1
16.135,2,4,4,1,0,0,0,0
16.14,2,0,3,1,2,0,2,1
16.145,1,1,0,1,0,2,2,1
16.15,2,2,1,4,2,2,3,0
16.155,1,3,4,3,4,2,0,1
16.16,2,8,6,1,2,3,2,3
16.165,3,0,3,2,3,3,1,2
16.17,2,2,1,2,1,0,1,2
16.175,2,0,0,3,0,2,3,1
16.18,3,6,8,2,0,1,1,2
16.185,1,0,4,2,1,0,2,3
16.19,3,6,1,1,2,2,0,3
16.195,0,3,0,1,1,2,2,2
16.2,2,3,9,2,2,4,0,2
16.205,1,1,0,0,1,4,1,0
16.21,1,3,1,1,1,0,2,3
16.215,0,1,12,0,1,1,2,1
16.22,2,4,1,0,2,1,0,1
16.225,2,2,5,6,1,1,0,2
16.23,4,5,1,1,2,5,0,0
16.235,1,0,10,0,2,0,0,1
16.24,0,2,2,1,1,0,1,1
16.245,2,1,7,0,1,2,1,0
16.25,2,1,2,1,0,2,1,3
16.255,2,3,3,2,0,2,0,1
16.26,0,1,4,5,5,1,2,2
16.265,0,0,9,2,3,2,0,1
16.27,2,2,2,3,1,0,2,1
16.275,2,2,3,2,0,2,1,0
16.28,1,0,11,3,2,0,0,0
16.285,2,6,18,3,1,1,3,1
16.29,0,4,0,0,0,1,1,1
16.295,2,2,1,0,3,2,1,0
16.3,1,1,1,2,1,1,0,1
16.305,0,0,5,1,1,1,1,1
16.31,5,14,12,1,3,1,2,3
16.315,6,2,3,0,1,2,2,1
16.32,5,2,3,3,3,0,0,1
16.325,1,4,2,1,3,0,2,1
16.33,0,3,5,1,1,2,3,1
16.335,3,0,0,1,0,1,0,0
16.34,2,1,1,2,2,1,1,1
16.345,2,6,0,2,1,2,2,2
16.35,0,5,4,2,0,2,1,3
16.355,2,2,4,1,2,1,1,2
16.36,0,0,5,1,1,6,4,1
16.365,3,1,6,0,1,1,1,0
16.37,1,2,1,2,1,0,1,0
16.375,0,6,6,1,1,0,0,2
16.38,0,4,2,3,2,1,0,1
16.385,1,3,1,3,2,3,2,1
16.39,1,1,1,3,0,1,1,2
16.395,1,1,3,1,3,0,0,2
16.4,3,7,4,3,3,3,1,3
16.405,3,0,5,2,3,2,2,1
16.41,1,2,10,0,2,0,0,2
16.415,2,4,23,2,3,0,3,2
16.42,3,2,2,1,2,0,1,1
16.425,3,13,11,2,3,0,1,2
16.43,5,14,41,6,2,3,2,1
16.435,2,3,17,1,1,1,3,5
16.44,1,3,4,1,1,1,2,3
16.445,2,4,2,1,1,3,2,2
16.45,2,4,8,1,0,1,1,0
16.455,3,3,17,3,3,1,0,3
16.46,3,0,5,1,1,3,2,2
16.465,0,4,9,2,2,1,1,1
16.47,1,0,7,4,2,3,3,2
16.475,2,6,14,3,0,1,2,2
16.48,3,1,1,1,2,0,2,2
16.485,4,4,6,2,2,5,2,2
16.49,0,2,10,2,0,2,1,1
16.495,1,3,4,1,0,0,2,1
16.5,3,1,6,0,0,0,4,2
16.505,1,7,19,3,2,1,0,1
16.51,2,4,7,1,2,2,1,2
16.515,1,1,2,3,3,1,2,0
16.52,4,0,5,2,2,1,3,0
16.525,0,4,0,4,2,3,2,3
16.53,0,3,5,3,0,1,1,2
16.535,3,3,10,4,1,3,1,1
16.54,0,2,4,1,4,0,2,1
16.545,2,2,2,3,1,1,1,2
16.55,2,3,0,2,1,2,4,2
16.555,2,3,7,2,2,4,0,3
16.56,2,6,27,7,2,1,2,1
16.565,1,0,12,0,1,1,0,2
16.57,1,2,3,3,2,0,0,0
16.575,3,2,8,1,1,2,3,1
16.58,1,1,8,0,3,2,1,1
16.585,0,2,5,2,3,1,1,1
16.59,4,7,5,2,2,2,1,3
16.595,1,0,3,1,1,1,2,2
16.6,0,0,2,1,6,0,0,1
16.605,2,2,1,1,1,1,2,0
16.61,2,1,3,0,2,2,2,0
16.615,7,2,6,0,1,3,2,3
16.62,2,1,3,1,1,3,2,1
16.625,2,0,1,0,1,2,0,1
16.63,4,1,10,2,1,1,2,0
16.635,3,10,49,6,2,4,2,3
16.64,1,0,14,1,2,1,2,1
16.645,1,0,2,3,4,1,1,1
16.65,2,1,3,1,2,2,1,2
16.655,3,0,5,2,0,1,2,1
16.66,1,3,4,1,1,2,3,2
16.665,1,0,5,1,1,4,2,2
16.67,1,1,2,2,2,2,0,0
16.675,1,1,6,2,0,0,1,0
16.68,3,6,5,1,2,1,1,1
16.685,2,2,4,1,1,1,3,3
16.69,2,4,11,2,1,3,2,0
16.695,1,2,6,1,1,1,2,1
16.7,1,1,1,3,1,1,1,0
16.705,2,1,6,1,0,1,2,2
16.71,1,2,4,3,3,1,0,1
16.715,2,2,5,1,1,4,0,0
16.72,1,2,3,3,0,1,0,1
16.725,2,4,5,0,0,2,1,2
16.73,1,3,1,1,0,0,3,2
16.735,1,0,4,3,1,3,2,1
16.74,0,1,2,1,2,1,1,2
16.745,4,2,1,1,0,0,0,1
16.75,1,2,1,0,2,1,2,2
16.755,0,0,0,1,3,1,1,3
16.76,1,2,2,3,1,2,1,1
16.765,1,1,3,1,2,1,1,1
16.77,6,10,7,1,0,2,1,3
16.775,0,4,1,3,1,0,1,1
16.78,1,0,0,3,1,1,0,2
16.785,0,2,3,4,1,0,0,0
16.79,2,1,3,0,1,1,2,0
16.795,1,1,1,0,3,3,0,2
16.8,2,3,2,2,2,1,2,2
16.805,1,0,5,0,1,1,0,0
16.81,0,0,2,2,1,0,1,1
16.815,0,0,0,3,2,1,2,1
16.82,5,0,4,2,4,0,0,3
16.825,4,4,3,1,3,4,4,1
16.83,1,3,3,0,0,1,1,0
16.835,1,1,1,1,2,1,0,1
16.84,2,1,0,3,4,4,0,1
16.845,4,11,3,2,1,0,1,0
16.85,2,2,0,1,1,2,2,0
16.855,3,0,2,2,1,1,2,1
16.86,1,3,2,1,3,0,0,2
16.865,2,1,4,4,1,1,1,1
16.87,0,2,2,1,2,2,1,0
16.875,1,0,1,1,3,2,1,2
16.88,2,4,4,1,0,0,2,1
16.885,2,1,2,3,3,1,0,2
16.89,1,0,2,1,2,2,1,0
16.895,2,4,1,1,0,2,0,1
16.9,0,3,1,1,3,2,3,3
16.905,0,3,4,2,4,0,2,1
16.91,2,3,2,1,0,3,2,3
16.915,0,2,4,0,1,3,0,1
16.92,0,1,0,1,3,1,0,0
16.925,4,2,1,2,0,3,1,2
16.93,1,0,1,0,2,0,2,0
16.935,1,4,3,3,1,1,1,2
16.94,1,5,5,2,2,1,1,1
16.945,0,0,0,1,1,1,1,0
16.95,2,0,1,1,2,1,0,0
16.955,1,1,1,4,1,1,0,2
16.96,2,2,5,3,2,3,0,0
16.965,2,2,3,2,3,1,3,2
16.97,1,0,0,3,1,2,1,1
16.975,2,1,0,3,3,0,1,0
16.98,2,3,0,2,1,1,2,1
16.985,0,3,2,3,0,0,1,3
16.99,1,1,2,2,1,0,3,1
16.995,1,2,4,2,1,2,2,3
17,1,0,2,1,3,1,1,1
17.005,0,0,0,2,1,3,2,1
17.01,1,4,1,1,0,1,1,2
17.015,1,1,0,1,1,1,1,0
17.02,1,2,2,1,1,2,2,2
17.025,2,2,4,1,2,2,1,0
17.03,0,1,2,0,3,2,0,2
17.035,0,1,0,2,1,2,2,0
17.04,1,2,3,3,3,2,3,1
17.045,16,6,1,0,0,2,2,5
17.05,2,7,3,6,1,3,0,0
17.055,2,1,2,0,1,0,0,1
17.06,0,4,3,1,0,0,3,1
17.065,4,0,4,2,0,3,0,1
17.07,1,3,5,0,0,4,2,1
17.075,2,6,1,1,1,2,1,1
17.08,1,4,7,4,0,4,3,2
17.085,2,1,5,2,4,1,0,1
17.09,3,2,5,3,3,1,2,1
17.095,1,3,4,1,4,3,2,1
17.1,0,1,3,1,2,2,0,3
17.105,2,1,0,0,1,1,0,0
17.11,2,1,3,1,0,1,1,1
17.115,1,1,3,2,0,1,1,1
17.12,1,2,1,1,2,0,0,1
17.125,1,1,4,1,1,2,2,1
17.13,0,1,3,3,4,2,1,1
17.135,3,2,2,2,1,0,0,1
17.14,2,1,1,1,2,1,0,1
17.145,3,5,14,0,1,0,1,0
17.15,1,0,20,4,0,1,0,1
17.155,4,10,11,7,4,4,6,4
17.16,2,1,6,0,4,2,1,1
17.165,1,0,1,2,3,0,4,1
17.17,5,6,11,1,0,1,1,0
17.175,2,1,3,1,1,2,0,2
17.18,0,3,2,1,2,2,1,1
17.185,0,4,5,3,2,1,1,2
17.19,4,4,21,4,3,1,4,3
17.195,2,1,0,1,2,0,1,1
17.2,1,0,0,0,1,0,1,1
17.205,1,2,7,0,1,1,1,3
17.21,1,2,10,3,2,1,2,0
17.215,3,1,3,1,0,2,1,1
17.22,2,0,7,3,0,1,2,1
17.225,4,12,39,6,4,3,0,2
17.23,3,1,12,0,1,3,0,2
17.235,2,3,7,1,3,0,1,1
17.24,1,1,5,1,2,1,1,1
17.245,2,2,4,1,1,0,0,2
17.25,2,7,25,1,2,1,0,1
17.255,1,7,32,4,0,2,3,0
17.26,10,14,40,7,5,5,2,7
17.265,1,3,9,1,3,1,2,0
17.27,0,5,9,1,0,2,2,1
17.275,3,8,25,3,5,3,1,2
17.28,1,0,2,2,1,1,2,1
17.285,1,3,21,1,0,6,2,0
17.29,3,5,18,4,1,0,2,3
17.295,2,3,11,1,1,2,2,2
17.3,0,1,1,1,1,1,1,1
17.305,1,1,10,1,2,0,0,1
17.31,3,1,2,1,2,2,1,2
17.315,3,12,17,2,2,1,1,1
17.32,0,3,25,4,1,1,2,1
17.325,8,10,1,3,0,6,2,5
17.33,1,1,12,0,2,2,0,0
17.335,4,4,10,2,2,3,3,0
17.34,4,8,4,3,0,3,0,3
17.345,2,5,19,4,3,3,0,1
17.35,6,11,4,10,1,3,3,1
17.355,0,0,11,2,0,3,1,2
17.36,4,12,54,5,1,0,2,6
17.365,3,6,19,0,4,3,1,1
17.37,22,35,62,19,11,13,11,20
17.375,4,8,27,6,1,1,3,1
17.38,2,3,12,2,1,1,0,1
17.385,6,21,40,6,0,1,2,4
17.39,9,8,24,6,3,3,3,6
17.395,18,45,106,25,8,11,9,10
17.4,3,4,50,4,2,3,5,7
17.405,0,0,1,2,1,1,1,0
17.41,4,6,1,5,4,3,1,1
17.415,2,12,31,9,0,2,4,3
17.42,2,7,49,0,1,0,0,6
17.425,16,17,11,18,7,13,13,19
17.43,2,6,3,3,1,2,5,3
17.435,2,5,16,4,1,2,0,1
17.44,0,0,0,1,0,0,1,3
17.445,5,7,8,6,1,2,1,5
17.45,2,1,26,2,1,0,1,3
17.455,4,8,45,5,4,5,1,1
17.46,2,10,24,2,4,2,1,2
17.465,0,0,1,1,1,2,3,1
17.47,6,11,14,8,2,3,2,4
17.475,0,11,37,4,2,2,2,2
17.48,12,14,46,7,6,5,5,6
17.485,2,5,18,5,1,2,4,1
17.49,0,2,4,0,0,3,2,1
17.495,2,8,10,3,3,3,1,1
17.5,3,8,10,3,2,2,1,3
17.505,1,4,12,2,1,1,2,1
17.51,1,2,6,2,1,1,3,0
17.515,1,4,22,6,2,3,3,2
17.52,1,4,12,2,1,0,1,3
17.525,1,0,5,2,0,1,2,2
17.53,4,8,15,6,0,3,1,2
17.535,1,5,24,1,2,1,3,1
17.54,0,0,1,2,0,3,0,1
17.545,1,0,4,1,2,0,1,1
17.55,2,3,20,2,3,2,3,3
17.555,1,5,0,1,1,0,1,0
17.56,2,6,10,5,2,2,3,3
17.565,3,5,11,0,3,2,2,2
17.57,4,6,3,3,3,2,2,2
17.575,1,0,1,2,2,2,3,2
17.58,4,10,24,2,1,1,1,1
17.585,3,14,18,4,1,2,1,1
17.59,3,2,21,3,5,3,2,2
17.595,2,2,6,1,1,0,0,1
17.6,3,6,21,5,2,3,3,2
17.605,2,7,19,1,0,0,3,1
17.61,4,14,32,8,2,3,4,2
17.615,3,6,3,1,0,1,2,1
17.62,3,1,11,4,1,1,2,2
17.625,0,2,14,5,3,2,3,1
17.63,1,2,8,2,1,1,1,1
17.635,2,3,4,2,3,2,5,1
17.64,1,7,20,7,0,0,1,0
17.645,2,11,43,6,1,2,5,4
17.65,5,3,7,2,3,2,1,2
17.655,1,1,15,4,0,1,1,1
17.66,1,3,2,2,2,1,1,1
17.665,5,8,26,9,1,2,1,1
17.67,5,10,0,7,2,5,6,1
17.675,10,9,3,3,6,3,4,5
17.68,0,2,8,1,1,0,0,1
17.685,1,4,15,2,2,1,1,2
17.69,5,6,4,1,0,0,3,0
17.695,1,3,8,0,1,1,0,2
17.7,3,8,16,4,2,3,2,1
17.705,5,4,9,0,2,2,2,4
17.71,2,4,6,3,2,1,0,1
17.715,2,5,9,0,4,3,4,1
17.72,2,2,10,0,2,2,1,3
17.725,2,3,15,5,1,2,2,0
17.73,1,1,14,1,1,1,2,1
17.735,4,4,12,6,1,2,2,2
17.74,4,9,30,4,2,3,2,3
17.745,1,1,6,6,5,3,2,2
17.75,1,4,10,3,0,0,0,1
17.755,2,1,4,1,1,1,1,0
17.76,2,4,22,2,1,1,1,1
17.765,2,7,3,3,0,5,2,3
17.77,0,3,9,1,2,0,3,1
17.775,6,7,11,1,2,1,1,0
17.78,3,1,5,0,1,0,2,1
17.785,3,2,7,4,1,2,1,3
17.79,4,8,19,8,5,5,1,2
17.795,2,1,10,3,1,0,1,2
17.8,0,0,6,4,1,1,1,0
17.805,7,19,37,10,2,3,4,3
17.81,1,4,14,0,0,0,3,0
17.815,4,6,9,7,1,3,2,3
17.82,0,5,11,3,0,1,2,1
17.825,2,10,37,6,1,3,0,2
17.83,0,2,4,1,2,1,2,2
17.835,2,1,27,0,3,1,3,2
17.84,5,10,37,3,3,4,4,4
17.845,1,1,3,1,2,3,0,1
17.85,2,6,8,5,1,1,0,4
17.855,0,3,3,1,0,1,1,0
17.86,2,3,10,1,2,1,0,1
17.865,1,2,10,0,0,0,3,0
17.87,2,4,6,5,2,2,2,0
17.875,1,3,2,0,1,1,3,0
17.88,2,1,0,0,3,4,1,0
17.885,1,0,12,2,1,0,1,1
17.89,1,1,6,0,2,3,2,2
17.895,1,2,2,2,1,1,0,2
17.9,1,1,2,0,2,2,0,0
17.905,1,2,6,1,1,1,0,1
17.91,3,7,12,5,3,5,3,2
17.915,2,3,3,0,1,2,2,3
17.92,0,4,2,4,2,2,2,1
17.925,5,5,17,3,3,2,1,1
17.93,2,1,2,3,0,1,2,2
17.935,3,7,31,4,1,2,4,1
17.94,1,2,11,2,1,1,4,1
17.945,0,3,1,2,0,1,2,2
17.95,2,2,16,0,1,1,1,0
17.955,6,11,23,5,4,4,2,4
17.96,0,3,17,1,1,1,1,1
17.965,1,0,2,1,3,4,3,0
17.97,1,2,2,4,4,3,1,1
17.975,0,1,0,0,2,0,1,1
17.98,6,11,6,4,4,2,1,2
17.985,4,3,9,5,2,2,1,3
17.99,1,2,8,1,0,3,2,2
17.995,2,1,9,2,1,1,1,2
18,6,8,12,2,2,2,4,0
18.005,1,1,12,1,2,2,1,1
18.01,3,3,15,4,4,4,2,4
18.015,2,2,1,2,2,2,1,0
18.02,2,0,14,1,0,0,1,2
18.025,3,4,8,3,1,2,1,0
18.03,7,11,5,9,4,4,3,3
18.035,0,4,16,2,1,2,1,1
18.04,2,4,13,4,1,2,3,0
18.045,1,1,6,1,0,1,0,0
18.05,3,4,6,2,4,2,1,3
18.055,0,3,1,1,0,1,1,1
18.06,1,4,10,2,1,0,2,1
18.065,2,5,3,1,1,1,1,1
18.07,0,5,12,3,1,3,1,1
18.075,1,3,4,2,2,3,6,2
18.08,2,5,12,2,1,1,2,3
18.085,0,4,5,1,3,0,0,0
18.09,2,0,24,4,2,1,0,2
18.095,0,0,4,2,1,2,0,1
18.1,5,3,0,1,1,6,2,1
18.105,0,5,2,2,1,0,1,2
18.11,2,7,4,1,1,1,1,0
18.115,0,2,4,2,3,0,2,1
18.12,5,8,10,6,3,3,4,2
18.125,3,1,1,2,1,3,1,4
18.13,1,0,10,3,1,1,0,1
18.135,0,2,8,0,1,4,4,2
18.14,1,1,6,3,0,1,3,0
18.145,1,1,5,2,1,2,1,1
18.15,0,3,1,3,2,0,1,1
18.155,0,1,7,2,2,1,2,2
18.16,1,3,0,0,3,1,4,2
18.165,0,0,6,1,1,3,0,1
18.17,1,2,17,5,3,0,2,1
18.175,2,4,9,4,2,0,1,1
18.18,1,1,3,1,1,1,1,1
18.185,0,2,5,2,1,2,1,0
18.19,0,2,4,2,4,1,2,0
18.195,1,3,11,4,0,1,1,0
18.2,1,1,11,1,1,1,1,2
18.205,2,1,4,2,1,2,2,2
18.21,3,1,7,2,2,1,2,1
18.215,1,1,2,0,0,0,1,1
18.22,3,3,0,1,0,0,1,1
18.225,1,2,9,1,0,4,2,1
18.23,2,0,3,2,1,3,2,1
18.235,3,0,12,2,1,0,1,1
18.24,3,6,2,1,3,3,1,2
18.245,5,14,3,2,3,1,3,0
18.25,2,2,4,2,1,1,1,1
18.255,3,8,30,4,2,3,2,4
18.26,4,1,2,2,3,1,0,1
18.265,1,2,3,4,2,0,1,0
18.27,1,2,8,2,0,1,1,2
18.275,1,0,6,0,1,1,1,2
18.28,4,5,9,6,2,2,2,2
18.285,1,3,0,2,0,1,1,1
18.29,5,8,18,6,2,6,3,3
18.295,3,1,24,1,0,2,1,2
18.3,1,1,8,1,1,1,1,0
18.305,2,1,6,0,1,1,1,1
18.31,1,4,32,4,4,0,1,2
18.315,3,3,0,0,2,3,2,1
18.32,1,2,1,0,0,2,2,2
18.325,0,2,4,0,1,1,2,2
18.33,5,6,20,2,1,3,0,0
18.335,2,7,8,4,3,4,0,2
18.34,1,0,1,3,4,1,0,0
18.345,3,4,1,4,2,3,1,2
18.35,0,0,11,3,0,2,1,0
18.355,2,3,7,3,1,2,1,0
18.36,2,6,4,4,2,2,1,1
18.365,2,5,23,3,3,3,0,3
18.37,0,1,25,3,1,0,0,1
18.375,5,3,0,3,5,0,4,2
18.38,6,12,8,2,0,4,0,0
18.385,4,3,1,2,2,1,2,1
18.39,1,1,14,1,0,1,0,1
18.395,1,1,0,1,1,2,0,1
18.4,4,4,1,2,3,4,1,2
18.405,2,3,10,0,4,3,3,0
18.41,1,4,3,1,2,1,1,0
18.415,2,3,9,1,0,0,2,1
18.42,3,1,2,1,2,1,2,1
18.425,1,3,6,3,1,1,1,2
18.43,1,1,1,0,3,2,0,3
18.435,0,3,3,2,2,2,0,1
18.44,0,1,1,1,2,3,2,2
18.445,3,4,2,4,0,2,1,1
18.45,0,2,0,1,0,1,2,0
18.455,1,2,3,3,3,1,3,0
18.46,1,3,6,3,3,5,3,2
18.465,0,0,3,1,1,0,0,1
18.47,0,3,6,0,0,0,2,0
18.475,2,5,21,7,2,0,2,2
18.48,3,1,12,1,0,2,3,1
18.485,2,3,5,3,1,1,2,3
18.49,1,0,7,2,2,2,1,0
18.495,0,2,4,1,1,0,3,1
18.5,0,2,5,1,2,2,2,1
18.505,1,2,1,4,1,1,3,3
18.51,3,4,8,0,1,1,0,1
18.515,0,1,1,0,1,4,1,2
18.52,1,2,4,1,0,1,1,0
18.525,2,4,24,4,1,2,0,2
18.53,1,5,1,3,1,1,1,2
18.535,1,2,13,4,1,2,4,1
18.54,1,1,1,0,3,1,0,1
18.545,0,4,16,4,0,2,1,0
18.55,7,12,25,2,0,1,3,2
18.555,3,7,14,4,0,4,0,0
18.56,2,5,1,3,0,2,2,1
18.565,2,2,3,1,0,4,4,1
18.57,0,0,1,0,3,2,1,3
18.575,2,1,8,1,1,0,1,1
18.58,2,3,15,0,0,1,1,2
18.585,3,4,3,2,2,2,1,1
18.59,0,2,5,0,3,2,1,1
18.595,0,1,9,1,0,2,2,1
18.6,0,1,4,2,3,1,2,4
18.605,2,0,2,1,2,2,0,1
18.61,1,1,1,0,1,1,0,1
18.615,0,2,1,1,1,1,2,1
18.62,1,1,7,0,1,1,2,1
18.625,2,3,2,1,2,2,1,2
18.63,1,1,5,6,1,2,2,0
18.635,1,1,2,2,2,1,0,1
18.64,5,10,25,7,1,6,3,2
18.645,1,2,4,3,0,2,1,2
18.65,2,2,9,2,2,2,2,0
18.655,2,2,4,2,2,1,1,2
18.66,1,3,8,2,1,1,1,1
18.665,1,1,4,2,2,3,1,0
18.67,1,1,13,3,0,3,2,2
18.675,2,3,6,2,1,0,1,0
18.68,0,1,15,1,2,2,3,1
18.685,5,4,12,6,1,1,1,1
18.69,1,2,10,1,1,4,4,1
18.695,1,4,2,1,2,1,2,1
18.7,1,5,5,2,0,4,0,2
18.705,4,6,10,1,1,1,1,1
18.71,5,8,12,3,1,1,2,5
18.715,2,0,1,0,2,3,3,1
18.72,2,4,0,2,1,1,2,0
18.725,0,1,6,1,2,2,0,0
18.73,2,3,14,0,1,1,1,2
18.735,0,0,13,3,2,2,1,5
18.74,0,2,2,2,1,2,2,1
18.745,4,7,44,8,3,4,3,0
18.75,0,3,6,1,2,2,1,2
18.755,4,5,4,0,2,0,3,1
18.76,0,2,8,1,0,1,2,0
18.765,2,0,6,2,3,0,1,1
18.77,2,4,9,4,2,2,1,0
18.775,1,2,4,0,1,1,0,2
18.78,2,2,3,4,0,1,2,2
18.785,1,1,7,2,1,1,1,0
18.79,1,2,5,5,2,2,2,3
18.795,1,2,4,1,1,4,1,1
18.8,1,0,8,3,2,2,3,1
18.805,0,1,1,2,0,3,0,2
18.81,0,2,6,1,1,1,1,1
18.815,1,1,10,3,2,1,1,1
18.82,2,0,9,1,1,2,1,1
18.825,0,1,12,5,0,5,2,1
18.83,2,3,11,2,1,0,1,1
18.835,2,0,6,2,1,1,0,2
18.84,0,1,8,2,2,3,0,0
18.845,1,1,16,0,0,2,2,2
18.85,0,0,4,1,0,0,1,1
18.855,0,4,23,6,1,0,4,3
18.86,2,2,0,1,1,1,1,1
18.865,6,10,4,3,1,1,2,3
18.87,4,5,15,1,1,5,2,1
18.875,2,2,11,1,1,0,3,2
18.88,1,0,3,1,1,0,0,1
18.885,4,2,1,1,2,1,2,2
18.89,3,1,3,2,2,2,2,1
18.895,2,1,6,1,1,2,0,1
18.9,1,5,19,1,2,2,0,2
18.905,1,0,10,0,3,1,1,3
18.91,1,0,6,3,0,1,1,1
18.915,0,1,3,3,1,0,1,0
18.92,1,3,8,4,1,1,3,1
18.925,2,1,0,1,0,1,0,0
18.93,2,0,5,2,3,0,1,2
18.935,2,0,13,1,1,0,0,1
18.94,2,6,28,4,3,5,3,3
18.945,1,1,2,1,1,2,5,1
18.95,2,0,7,3,2,1,3,0
18.955,2,1,6,2,2,3,1,3
18.96,2,2,0,2,2,1,3,1
18.965,1,0,5,2,1,2,1,2
18.97,0,1,1,2,1,3,2,1
18.975,1,4,13,3,1,1,1,1
18.98,1,1,5,3,2,0,0,3
18.985,2,6,27,3,2,0,1,3
18.99,0,3,9,2,1,1,2,1
18.995,3,5,4,0,2,1,1,3
19,1,1,2,1,0,3,3,1
19.005,2,1,18,2,2,0,0,1
19.01,1,4,13,2,1,0,0,1
19.015,0,2,4,1,1,1,1,1
19.02,1,0,6,0,0,1,2,0
19.025,0,1,4,2,0,1,1,1
19.03,3,2,1,0,0,1,1,2
19.035,1,2,10,0,0,3,1,2
19.04,1,3,3,3,3,2,1,2
19.045,0,3,2,3,1,0,3,0
19.05,6,8,21,5,4,4,3,4
19.055,2,2,1,0,2,1,3,0
19.06,0,2,1,2,0,0,1,0
19.065,0,1,2,1,1,1,1,0
19.07,1,0,2,4,1,2,3,2
19.075,3,3,2,2,3,3,0,1
19.08,4,11,7,0,1,0,1,4
19.085,0,2,9,1,2,1,4,1
19.09,3,9,12,4,1,4,1,0
19.095,1,2,1,0,3,2,1,0
19.1,0,1,11,0,2,1,0,1
19.105,2,1,4,0,0,1,1,2
19.11,1,2,0,2,3,1,1,4
19.115,2,1,1,1,1,2,1,0
19.12,2,3,1,1,0,0,0,1
19.125,3,4,11,4,2,1,2,1
19.13,1,2,6,3,1,3,3,1
19.135,0,1,1,1,1,1,1,1
19.14,2,2,2,1,1,3,1,2
19.145,2,2,5,0,4,1,2,2
19.15,0,2,11,2,2,2,0,1
19.155,1,3,6,1,2,0,0,3
19.16,1,1,0,0,1,0,1,1
19.165,2,2,1,1,1,2,0,0
19.17,1,3,5,2,3,3,0,3
19.175,2,2,8,2,1,0,1,1
19.18,4,2,26,3,2,1,3,4
19.185,1,2,7,0,1,1,1,3
19.19,2,1,3,0,2,0,0,0
19.195,1,1,3,1,0,2,0,0
19.2,1,1,6,2,5,3,1,1
19.205,2,5,7,2,1,4,2,1
19.21,1,1,7,3,1,1,2,1
19.215,2,4,20,5,3,1,2,0
19.22,1,1,5,0,0,1,2,2
19.225,0,2,13,4,2,0,1,0
19.23,2,1,10,1,0,4,0,0
19.235,1,1,6,2,1,1,2,2
19.24,3,5,5,3,1,3,3,2
19.245,2,1,6,0,0,1,1,2
19.25,1,1,4,1,0,1,1,0
19.255,0,3,9,0,1,2,0,0
19.26,2,3,18,7,4,1,1,0
19.265,1,2,0,2,0,1,4,2
19.27,1,1,3,2,4,4,3,2
19.275,1,2,6,2,1,1,0,0
19.28,0,1,2,2,1,1,0,1
19.285,0,3,1,5,4,4,0,2
19.29,3,2,14,3,2,1,2,3
19.295,4,3,2,3,1,3,3,1
19.3,1,1,5,0,1,1,0,1
19.305,1,0,3,1,2,2,1,0
19.31,1,0,2,1,4,3,0,1
19.315,2,1,3,0,1,4,1,0
19.32,0,1,4,1,0,2,1,0
19.325,1,4,2,4,0,1,1,0
19.33,0,3,9,0,2,2,2,3
19.335,2,1,6,0,2,2,1,1
19.34,3,0,19,2,1,1,2,2
19.345,1,1,5,3,1,0,2,0
19.35,2,2,10,4,0,2,4,0
19.355,1,1,0,1,0,1,3,1
19.36,0,1,11,1,1,0,1,0
19.365,1,2,5,0,0,1,1,2
19.37,0,1,2,1,1,3,1,0
19.375,1,3,5,1,1,0,1,1
19.38,0,1,3,1,0,2,1,0
19.385,0,1,6,3,0,3,0,2
19.39,1,2,6,2,1,1,0,2
19.395,2,4,17,4,5,1,0,1
19.4,1,4,4,3,1,2,2,0
19.405,2,2,2,3,1,1,0,1
19.41,1,1,9,1,1,0,1,3
19.415,0,1,2,0,4,2,2,1
19.42,1,1,3,1,1,2,3,1
19.425,1,2,0,2,2,1,2,1
19.43,0,1,7,1,1,0,0,0
19.435,1,3,1,3,2,0,2,0
19.44,1,1,1,2,1,2,0,0
19.445,2,4,11,5,1,3,3,2
19.45,0,2,2,3,1,1,1,1
19.455,2,0,2,2,1,3,0,3
19.46,0,2,7,2,1,1,1,2
19.465,0,0,6,1,2,2,1,2
19.47,0,2,2,2,2,2,1,1
19.475,2,5,6,1,2,4,0,2
19.48,0,0,10,1,1,0,2,1
19.485,3,8,28,6,2,4,1,1
19.49,4,3,2,2,2,3,1,2
19.495,0,2,5,2,0,1,2,1
19.5,0,1,0,0,2,2,2,1
19.505,1,2,8,2,0,2,2,0
19.51,0,1,0,1,0,1,2,1
19.515,4,3,3,1,3,0,1,1
19.52,0,1,10,2,0,1,1,0
19.525,3,4,1,1,1,6,1,3
19.53,1,2,3,1,1,1,0,0
19.535,1,0,11,1,2,1,1,1
19.54,0,0,14,4,4,1,3,2
19.545,1,1,18,3,1,0,0,2
19.55,3,2,9,2,0,2,2,1
19.555,1,0,3,1,1,1,1,0
19.56,1,0,6,2,2,2,0,2
19.565,1,2,20,2,1,1,0,0
19.57,0,4,2,3,5,2,0,3
19.575,2,2,2,4,2,1,2,1
19.58,4,1,6,1,1,3,2,3
19.585,1,2,3,2,1,1,0,0
19.59,2,1,7,2,2,2,3,1
19.595,0,2,1,2,0,1,1,1
19.6,0,2,2,1,3,1,1,1
19.605,4,6,15,6,3,1,5,3
19.61,1,0,1,4,1,3,0,0
19.615,4,3,4,1,3,3,4,1
19.62,2,0,4,0,1,1,1,2
19.625,0,2,5,1,1,1,2,1
19.63,1,0,1,1,1,2,1,0
19.635,1,2,3,2,1,1,0,1
19.64,3,4,1,1,0,2,1,1
19.645,1,2,1,1,1,1,2,1
19.65,2,1,2,1,1,3,1,3
19.655,0,3,7,1,1,3,1,2
19.66,0,1,9,2,0,2,1,1
19.665,1,1,12,1,2,0,1,0
19.67,3,3,6,1,1,2,3,1
19.675,1,3,6,1,2,2,1,0
19.68,1,2,1,0,0,5,3,2
19.685,2,1,4,3,0,1,1,2
19.69,2,1,7,1,1,3,0,2
19.695,4,3,3,3,4,3,1,3
19.7,0,0,3,3,2,5,0,1
19.705,1,0,1,1,1,1,2,0
19.71,1,3,6,4,0,2,1,1
19.715,1,1,1,1,0,0,0,1
19.72,0,1,4,1,1,1,0,1
19.725,7,9,7,4,3,6,4,1
19.73,2,2,7,3,0,3,1,1
19.735,1,2,5,2,0,3,3,3
19.74,1,1,2,0,0,0,2,1
19.745,3,3,10,1,1,0,1,1
19.75,2,2,13,3,1,2,3,1
19.755,3,3,8,5,5,2,4,2
19.76,1,1,1,1,1,1,0,2
19.765,1,2,1,1,1,2,2,0
19.77,2,2,1,5,2,3,3,1
19.775,0,0,0,0,1,2,1,0
19.78,2,3,10,4,0,0,1,1
19.785,0,2,2,0,1,1,1,0
19.79,0,0,3,1,2,1,2,3
19.795,1,4,15,1,1,1,1,3
19.8,1,2,3,1,2,1,3,1
19.805,0,1,5,0,1,1,0,0
19.81,2,2,8,5,3,4,3,0
19.815,2,2,6,2,1,1,3,0
19.82,1,4,5,4,2,1,3,3
19.825,1,2,2,2,2,0,0,1
19.83,1,1,1,2,3,0,0,2
19.835,1,2,3,3,0,1,2,0
19.84,2,1,2,0,1,2,1,1
19.845,3,5,7,3,1,4,2,3
19.85,3,2,1,1,2,2,3,1
19.855,1,3,7,0,1,1,0,0
19.86,2,1,16,1,3,1,1,3
19.865,1,1,5,0,2,1,0,1
19.87,1,1,8,2,1,1,1,2
19.875,0,2,18,1,4,0,1,2
19.88,1,3,2,2,1,1,0,0
19.885,0,1,7,0,4,3,1,2
19.89,2,2,14,2,0,0,0,1
19.895,2,1,11,1,0,1,0,2
19.9,2,2,13,1,3,1,2,1
19.905,1,1,0,1,1,0,0,3
19.91,2,2,16,1,1,0,1,1
19.915,1,5,17,3,3,1,2,1
19.92,1,3,8,2,2,4,2,1
19.925,0,1,9,1,1,1,2,1
19.93,2,1,0,3,1,1,1,1
19.935,0,3,8,4,2,4,3,1
19.94,2,1,3,1,4,3,0,3
19.945,2,0,2,1,1,1,1,3
19.95,1,1,6,2,0,2,4,1
19.955,1,1,4,1,1,1,1,1
19.96,0,2,10,0,2,0,2,0
19.965,1,5,1,0,1,2,3,2
19.97,3,1,5,2,2,2,1,3
19.975,5,3,5,3,2,4,2,3
19.98,0,2,6,1,1,0,1,1
19.985,0,1,0,1,2,1,0,1
19.99,1,1,1,5,0,0,3,0
19.995,1,2,0,0,2,2,1,0
20,1,2,8,1,2,1,0,1
20.005,3,8,32,7,0,2,1,0
20.01,0,1,13,1,1,2,3,3
20.015,1,2,3,1,0,0,2,2
20.02,1,1,4,1,0,1,0,2
20.025,0,0,2,1,2,1,2,2
20.03,1,3,5,4,2,3,1,1
20.035,3,4,4,1,0,1,1,1
20.04,1,0,8,1,0,1,1,2
20.045,2,1,7,1,3,1,2,0
20.05,1,2,14,1,2,2,0,0
20.055,1,5,7,3,1,4,4,3
20.06,1,1,1,1,2,4,3,1
20.065,1,0,9,2,1,4,0,1
20.07,3,2,8,1,0,2,3,0
20.075,0,0,1,3,2,1,3,1
20.08,0,4,5,1,2,2,3,3
20.085,0,1,9,2,1,0,1,0
20.09,0,1,6,2,0,5,2,2
20.095,2,0,11,4,2,1,1,1
20.1,3,1,1,2,0,1,3,2
20.105,1,2,2,2,0,1,2,1
20.11,1,4,2,1,0,0,0,2
20.115,1,0,5,2,0,2,2,2
20.12,0,5,18,8,1,1,2,1
20.125,2,1,1,2,0,1,0,0
20.13,5,3,0,1,1,4,2,3
20.135,0,0,1,0,1,1,2,2
20.14,1,1,4,2,0,1,2,3
20.145,0,1,4,2,3,1,1,2
20.15,1,0,2,1,0,1,1,1
20.155,1,2,8,0,1,1,0,1
20.16,1,1,12,2,0,3,2,1
20.165,2,2,1,0,0,1,1,2
20.17,1,0,8,1,2,0,1,0
20.175,2,0,6,0,2,1,1,1
20.18,4,1,1,1,2,2,4,2
20.185,2,1,5,1,2,1,2,1
20.19,1,1,1,2,1,0,2,0
20.195,1,1,5,3,4,1,0,2
20.2,2,8,10,4,2,2,1,3
20.205,3,1,5,1,3,2,4,3
20.21,1,1,6,2,1,2,2,1
20.215,2,1,5,1,2,2,1,1
20.22,0,2,2,1,1,2,1,2
20.225,1,0,4,0,4,0,1,0
20.23,3,9,21,6,5,5,2,4
20.235,2,0,12,1,3,1,1,2
20.24,1,2,5,1,2,1,1,2
20.245,1,2,2,0,0,2,1,2
20.25,1,0,4,0,1,0,2,1
20.255,1,2,5,1,1,0,2,1
20.26,1,4,4,1,0,1,1,2
20.265,1,0,2,2,3,1,1,1
20.27,1,0,5,1,1,1,0,1
20.275,2,2,6,0,2,3,1,2
20.28,1,1,3,0,2,1,1,1
20.285,1,3,4,0,1,3,4,3
20.29,0,1,9,1,1,3,1,2
20.295,1,3,28,5,3,2,2,1
20.3,1,1,6,0,2,2,1,2
20.305,2,3,10,3,0,1,1,2
20.31,2,3,4,2,1,1,0,1
20.315,3,1,12,1,1,1,1,1
20.32,1,0,1,1,1,0,1,0
20.325,1,2,2,0,2,0,4,1
20.33,0,2,11,0,1,2,4,3
20.335,1,3,1,5,4,4,0,3
20.34,2,0,2,2,1,0,1,1
20.345,2,1,2,2,1,1,2,0
20.35,2,1,1,2,1,1,1,1
20.355,2,3,15,2,2,3,3,1
20.36,1,1,4,3,3,2,0,2
20.365,2,1,0,0,2,0,0,0
20.37,1,1,2,2,1,1,1,3
20.375,0,1,4,2,1,1,0,1
20.38,1,0,1,3,0,1,2,1
20.385,1,0,0,2,2,1,2,2
20.39,1,0,7,1,2,3,1,2
20.395,1,2,2,0,0,0,1,0
20.4,2,1,5,2,1,2,2,0
20.405,1,1,0,0,1,1,1,1
20.41,2,0,3,0,3,1,1,0
20.415,3,9,34,5,0,2,3,3
20.42,0,1,7,1,2,1,1,1
20.425,1,2,3,3,1,1,0,1
20.43,2,3,5,1,3,0,0,0
20.435,3,2,9,2,1,1,2,0
20.44,2,4,21,8,1,1,3,1
20.445,0,3,2,3,1,4,3,2
20.45,0,0,11,0,2,0,1,0
20.455,3,1,10,0,1,0,0,1
20.46,0,2,6,1,0,3,1,1
20.465,1,0,1,2,0,0,2,1
20.47,2,1,3,1,1,1,0,1
20.475,1,4,11,1,3,2,2,1
20.48,1,2,1,2,1,0,1,2
20.485,3,1,10,0,0,1,2,1
20.49,1,3,8,2,2,3,1,1
20.495,0,0,5,1,1,2,2,1
20.5,1,0,2,1,1,3,1,1
20.505,2,0,0,1,0,0,0,1
20.51,4,6,19,2,4,4,4,1
20.515,1,0,11,1,1,1,2,2
20.52,1,0,3,0,2,0,0,3
20.525,1,3,18,4,4,1,1,1
20.53,2,1,5,2,2,3,1,2
20.535,0,2,2,2,2,3,0,3
20.54,2,1,3,2,0,1,3,0
20.545,0,4,9,0,1,1,3,1
20.55,2,4,10,5,3,1,1,0
20.555,1,1,11,3,4,2,1,1
20.56,1,0,4,1,1,3,3,1
20.565,0,3,2,0,1,2,2,0
20.57,0,1,4,1,1,1,2,0
20.575,0,2,3,1,2,0,2,3
20.58,0,2,3,3,3,1,2,3
20.585,2,1,9,0,1,1,2,0
20.59,0,0,6,1,1,0,0,0
20.595,1,4,1,1,3,1,2,0
20.6,1,1,2,1,1,2,3,1
20.605,2,3,2,1,3,1,2,3
20.61,1,1,0,2,0,1,2,1
20.615,1,1,2,2,3,4,1,2
20.62,1,0,3,2,4,2,1,0
20.625,2,5,13,2,1,2,0,1
20.63,0,0,15,0,1,1,2,2
20.635,1,2,8,1,4,2,3,1
20.64,3,3,13,5,1,2,4,0
20.645,1,1,5,0,4,2,3,1
20.65,1,2,7,0,3,0,2,3
20.655,2,4,4,3,0,1,0,1
20.66,0,1,3,2,2,3,3,2
20.665,3,1,2,2,3,2,2,0
20.67,1,0,5,2,4,2,0,0
20.675,1,1,1,2,1,3,0,2
20.68,2,1,2,4,1,4,2,3
20.685,4,2,12,0,3,3,3,1
20.69,2,1,4,0,4,1,0,1
20.695,1,1,6,1,2,0,1,1
20.7,2,1,5,3,2,1,1,2
20.705,1,1,4,0,2,3,1,1
20.71,3,7,20,4,2,4,2,3
20.715,3,2,5,3,2,0,1,1
20.72,2,5,5,3,3,3,2,0
20.725,1,1,10,1,2,2,0,3
20.73,1,0,2,0,2,1,2,2
20.735,2,1,7,1,2,1,3,1
20.74,0,1,6,2,1,1,1,1
20.745,0,2,2,0,2,0,1,1
20.75,0,0,1,2,1,3,0,1
20.755,2,2,7,2,1,1,2,1
20.76,1,2,1,1,2,3,1,1
20.765,2,3,1,3,4,4,2,2
20.77,1,1,4,0,1,2,1,3
20.775,3,2,7,4,3,1,2,0
20.78,1,2,2,2,1,3,0,1
20.785,0,3,1,2,2,1,0,1
20.79,0,1,9,0,0,0,1,0
20.795,0,1,7,2,2,2,1,2
20.8,2,5,10,1,2,4,3,2
20.805,2,3,6,0,1,0,0,0
20.81,0,1,1,0,3,2,3,0
20.815,1,3,2,2,1,1,0,0
20.82,1,2,1,2,4,2,3,1
20.825,2,1,0,1,3,1,1,1
20.83,3,2,1,1,2,1,2,2
20.835,1,0,3,0,1,4,2,2
20.84,0,1,0,0,2,1,0,1
20.845,2,7,17,3,0,3,4,3
20.85,0,3,2,4,1,0,2,1
20.855,3,2,2,1,2,1,0,4
20.86,2,0,12,1,1,0,2,2
20.865,0,0,8,1,1,0,3,0
20.87,1,1,2,1,3,2,1,2
20.875,0,4,3,1,3,2,0,1
20.88,0,1,2,3,2,1,1,0
20.885,0,2,2,6,0,2,0,0
20.89,1,0,1,2,1,0,1,0
20.895,0,0,2,1,1,1,3,1
20.9,0,2,11,1,1,2,2,2
20.905,1,0,6,2,4,1,1,1
20.91,0,3,8,1,2,2,1,2
20.915,4,1,3,1,2,3,0,0
20.92,1,1,5,0,0,0,0,2
20.925,3,2,3,1,1,3,1,3
20.93,2,1,5,1,1,3,0,0
20.935,0,2,3,0,1,1,1,0
20.94,1,3,0,0,2,5,2,0
20.945,1,0,1,1,1,1,1,1
20.95,3,2,16,2,2,2,1,2
20.955,3,0,0,2,1,2,2,1
20.96,1,0,6,1,3,1,2,1
20.965,2,2,6,1,2,4,1,3
20.97,0,1,1,0,2,1,0,2
20.975,2,7,10,5,0,3,1,2
20.98,1,3,12,2,3,1,0,1
20.985,2,4,5,1,4,5,1,2
20.99,2,2,4,1,2,2,1,0
20.995,1,2,0,1,1,0,0,0
21,0,1,5,3,2,3,2,2
21.005,0,0,6,2,2,2,0,0
21.01,1,4,23,1,1,0,1,2
21.015,3,6,31,5,3,2,5,3
21.02,1,3,7,4,2,0,2,0
21.025,2,0,2,1,3,0,1,2
21.03,3,1,5,1,2,1,1,2
21.035,0,2,10,2,1,1,0,0
21.04,1,4,8,2,1,1,1,0
21.045,2,1,3,2,3,1,4,0
21.05,1,2,2,1,1,4,2,3
21.055,2,2,3,2,1,2,2,2
21.06,3,3,1,1,2,1,0,1
21.065,2,1,1,3,2,2,1,0
21.07,0,1,17,1,1,2,1,1
21.075,1,2,1,0,1,5,2,1
21.08,1,0,3,3,2,1,1,1
21.085,1,0,0,1,1,2,1,1
21.09,1,2,12,2,0,3,1,1
21.095,1,0,8,2,1,1,1,1
21.1,1,0,6,1,2,3,2,2
21.105,2,1,1,2,0,1,0,0
21.11,1,1,6,1,0,1,1,0
21.115,1,1,7,2,1,2,1,2
21.12,0,4,4,2,2,3,1,2
21.125,2,1,5,1,1,2,0,1
21.13,1,2,1,1,3,0,1,1
21.135,2,1,1,1,1,1,2,0
21.14,0,1,4,1,2,2,1,1
21.145,1,1,9,5,1,3,2,2
21.15,2,2,2,0,1,2,1,4
21.155,0,2,7,0,0,2,0,2
21.16,1,1,0,2,1,1,1,0
21.165,1,2,1,1,2,0,1,1
21.17,1,3,5,6,0,0,3,0
21.175,0,0,4,0,2,2,0,1
21.18,1,0,13,1,0,1,2,1
21.185,1,0,12,0,1,1,3,1
21.19,3,8,28,3,3,4,4,3
21.195,0,0,6,1,3,0,1,0
21.2,0,1,8,2,1,0,2,1
21.205,1,1,9,0,1,1,3,2
21.21,0,1,7,3,2,1,1,0
21.215,1,1,6,2,0,4,0,0
21.22,2,2,1,2,2,2,1,1
21.225,1,0,1,1,3,2,1,1
21.23,1,1,6,0,1,0,2,0
21.235,0,2,8,0,2,1,0,2
21.24,2,1,4,3,1,1,0,2
21.245,1,3,9,2,3,3,1,0
21.25,1,5,8,1,2,2,1,1
21.255,1,4,6,4,3,0,2,1
21.26,2,5,28,2,1,3,2,2
21.265,2,3,1,2,1,1,3,1
21.27,1,0,4,0,0,1,1,0
21.275,0,0,4,4,1,1,3,2
21.28,1,1,5,1,4,1,2,1
21.285,2,3,5,2,1,5,1,2
21.29,2,1,2,1,2,0,1,2
21.295,1,1,0,1,0,1,0,1
21.3,0,1,1,1,1,1,1,1
21.305,1,2,9,0,0,3,2,2
21.31,2,2,0,1,4,1,1,2
21.315,1,0,1,1,1,2,2,2
21.32,0,0,2,1,1,1,2,2
21.325,1,1,1,1,3,0,3,0
21.33,1,2,9,4,1,3,0,2
21.335,3,2,10,3,3,4,4,2
21.34,4,5,3,4,3,0,0,0
21.345,1,0,3,0,0,2,2,0
21.35,3,8,18,0,2,2,0,1
21.355,1,2,4,2,1,2,1,2
21.36,0,0,1,0,1,1,3,1
21.365,2,3,11,4,3,2,3,2
21.37,0,0,5,1,1,1,1,3
21.375,0,2,6,2,3,1,1,0
21.38,2,0,4,2,1,1,1,0
21.385,0,0,1,1,0,0,1,1
21.39,2,2,3,0,1,3,3,2
21.395,4,2,1,1,2,1,1,1
21.4,1,2,5,2,3,3,2,0
21.405,2,5,26,5,2,2,2,1
21.41,1,0,5,2,2,2,0,0
21.415,1,3,11,2,1,2,1,1
21.42,3,2,8,4,0,4,2,3
21.425,2,1,6,0,2,0,1,0
21.43,1,1,2,0,2,2,0,1
21.435,2,2,4,1,0,0,1,3
21.44,0,2,4,0,0,3,0,3
21.445,0,2,1,1,1,2,2,2
21.45,0,2,1,3,4,1,1,2
21.455,3,5,6,7,3,5,4,1
21.46,0,1,3,3,0,3,0,2
21.465,3,2,8,2,2,1,1,1
21.47,1,1,4,1,1,2,0,2
21.475,3,1,7,0,1,2,1,0
21.48,0,4,5,3,4,1,2,1
21.485,2,1,9,2,1,2,1,0
21.49,1,3,0,4,1,1,0,1
21.495,1,1,10,2,2,2,0,1
21.5,2,1,5,0,0,2,1,1
21.505,3,3,5,3,3,3,2,3
21.51,3,2,2,3,1,0,1,1
21.515,0,0,2,2,1,0,2,1
21.52,3,2,3,2,0,2,0,1
21.525,2,1,9,1,2,3,1,0
21.53,2,1,3,1,1,4,2,0
21.535,2,1,1,3,2,3,1,0
21.54,1,3,7,0,3,1,0,2
21.545,2,2,5,0,2,0,0,3
21.55,2,0,8,5,0,2,2,2
21.555,1,3,1,0,0,1,2,2
21.56,1,2,2,1,1,1,1,2
21.565,0,0,1,1,2,1,2,0
21.57,0,3,1,3,4,2,1,2
21.575,1,1,0,1,0,0,2,3
21.58,1,3,1,1,1,2,2,1
21.585,2,5,25,4,1,4,1,1
21.59,1,1,7,1,2,0,1,0
21.595,1,1,4,0,0,1,1,2
21.6,2,2,3,2,1,2,2,1
21.605,1,1,1,0,2,1,3,1
21.61,0,0,5,3,1,1,1,0
21.615,1,4,9,3,2,2,1,2
21.62,1,0,6,2,0,1,2,1
21.625,0,1,10,1,2,0,1,1
21.63,2,5,15,2,0,3,2,1
21.635,1,1,12,0,1,0,1,1
21.64,2,2,6,1,2,2,2,2
21.645,2,3,2,3,2,4,2,1
21.65,0,1,5,4,2,1,1,3
21.655,1,2,17,4,1,2,0,0
21.66,2,4,0,0,4,2,2,2
21.665,3,5,16,3,3,2,1,0
21.67,1,2,11,2,2,0,0,1
21.675,1,4,2,3,1,2,2,3
21.68,1,1,2,0,1,2,1,2
21.685,1,3,7,2,1,1,1,0
21.69,3,3,20,6,1,1,2,4
21.695,2,0,2,1,2,0,1,2
21.7,3,0,5,1,1,1,1,2
21.705,3,7,8,6,1,2,3,4
21.71,0,2,9,2,5,1,1,2
21.715,1,1,6,2,2,0,1,1
21.72,1,3,10,2,3,0,1,0
21.725,1,7,14,1,3,0,2,1
21.73,0,3,7,1,1,1,1,2
21.735,1,1,14,1,2,0,0,2
21.74,4,8,20,4,0,3,4,3
21.745,1,1,5,1,0,3,0,0
21.75,1,0,15,2,2,2,1,1
21.755,0,0,3,2,1,0,2,0
21.76,2,4,4,2,1,0,0,2
21.765,2,6,12,2,2,4,1,3
21.77,3,4,20,2,1,3,2,2
21.775,2,4,24,5,0,1,1,1
21.78,1,0,7,1,1,1,0,1
21.785,0,4,9,1,3,1,0,1
21.79,1,4,9,2,3,2,2,2
21.795,2,2,5,2,1,1,0,0
21.8,2,1,10,3,1,1,2,1
21.805,0,2,3,1,3,1,0,1
21.81,0,0,10,0,2,0,1,0
21.815,1,3,2,3,3,3,1,1
21.82,0,2,1,2,1,0,2,0
21.825,0,1,2,0,0,1,2,0
21.83,3,1,5,0,2,2,0,2
21.835,0,1,0,0,0,0,3,0
21.84,2,1,6,0,1,1,0,0
21.845,0,3,4,0,0,0,0,0
21.85,0,3,13,1,2,1,1,2
21.855,1,4,11,2,0,2,2,0
21.86,2,1,1,1,1,1,1,1
21.865,0,0,5,3,0,4,3,2
21.87,1,0,2,2,1,3,2,1
21.875,5,5,11,4,2,0,3,2
21.88,1,1,7,1,1,1,1,0
21.885,2,2,5,1,3,1,4,0
21.89,1,4,14,2,1,0,1,2
21.895,2,2,19,1,1,2,1,1
21.9,2,4,2,3,1,4,3,1
21.905,1,1,2,1,2,3,1,1
21.91,1,3,2,2,1,1,2,2
21.915,0,1,4,0,1,2,0,0
21.92,0,1,5,1,2,1,1,1
21.925,2,0,2,0,0,1,1,2
21.93,2,2,3,1,1,2,1,1
21.935,3,3,2,1,2,1,0,2
21.94,1,1,12,2,1,1,2,0
21.945,1,1,4,3,1,2,2,1
21.95,1,4,12,2,3,1,1,1
21.955,2,1,4,1,2,3,1,2
21.96,0,1,5,1,0,1,2,1
21.965,1,4,8,1,1,0,1,2
21.97,1,1,5,2,2,2,1,1
21.975,1,2,5,2,0,1,0,1
21.98,0,0,3,1,2,2,0,0
21.985,2,4,20,4,3,1,1,2
21.99,1,1,2,0,1,0,1,2
21.995,0,0,8,0,2,0,1,2
22,1,1,1,1,0,1,0,0
22.005,2,4,13,3,1,2,1,1
22.01,5,2,1,5,4,2,4,1
22.015,0,1,4,1,0,1,1,2
22.02,1,2,30,6,3,1,1,1
22.025,3,5,1,2,1,2,2,0
22.03,2,0,4,3,2,0,0,2
22.035,2,0,2,0,0,2,1,2
22.04,0,2,11,0,3,1,0,0
22.045,2,5,21,5,4,5,3,1
22.05,2,2,1,2,1,3,1,1
22.055,1,2,4,0,0,1,2,1
22.06,2,3,11,2,1,1,0,1
22.065,0,0,5,3,1,2,1,0
22.07,0,4,9,2,2,2,1,1
22.075,1,0,9,3,3,2,2,2
22.08,0,2,24,0,0,1,1,0
22.085,4,2,12,1,2,0,0,3
22.09,0,1,2,1,0,4,1,1
22.095,1,1,6,1,3,1,1,2
22.1,4,6,18,2,4,1,4,2
22.105,1,1,10,0,1,3,1,1
22.11,2,2,16,3,2,2,1,3
22.115,0,2,3,0,0,2,2,3
22.12,1,1,0,1,3,3,0,1
22.125,1,3,5,1,1,4,1,1
22.13,1,1,11,1,1,1,2,0
22.135,3,2,11,0,2,2,2,2
22.14,1,2,13,1,1,0,2,0
22.145,1,0,4,1,0,1,2,1
22.15,2,1,8,2,2,1,1,0
22.155,2,4,5,4,2,3,3,3
22.16,0,0,14,0,2,1,2,2
22.165,3,3,9,1,1,2,3,2
22.17,4,6,8,4,1,4,4,3
22.175,5,13,39,9,2,3,2,3
22.18,0,1,8,2,3,0,2,1
22.185,1,0,4,0,1,1,2,0
22.19,0,1,2,0,1,1,1,0
22.195,2,3,17,0,1,3,0,0
22.2,2,3,17,5,1,3,1,1
22.205,4,4,16,4,5,4,2,2
22.21,1,0,6,0,1,1,1,2
22.215,1,3,8,1,1,4,2,0
22.22,1,0,5,1,0,0,0,2
22.225,3,2,2,4,1,3,2,2
22.23,3,2,19,2,1,2,1,1
22.235,1,2,11,2,1,1,1,1
22.24,1,1,6,4,1,2,3,2
22.245,0,3,8,3,2,0,2,1
22.25,1,5,2,5,2,2,0,1
22.255,0,0,2,0,1,2,0,2
22.26,3,2,2,2,1,4,4,3
22.265,1,4,12,1,1,1,1,2
22.27,2,1,4,0,2,1,1,0
22.275,1,2,10,0,3,1,1,1
22.28,1,0,4,0,1,1,0,2
22.285,0,2,1,3,1,1,0,1
22.29,2,4,4,1,1,3,2,1
22.295,2,2,1,0,0,0,0,1
22.3,2,0,3,1,1,1,1,0
22.305,3,2,8,3,1,1,2,1
22.31,0,2,1,2,0,2,0,1
22.315,3,1,3,2,1,0,2,0
22.32,0,5,0,3,0,2,1,3
22.325,2,3,12,0,0,0,5,3
22.33,1,0,1,2,2,1,3,3
22.335,2,1,8,0,0,0,1,1
22.34,1,2,4,1,0,1,1,4
22.345,3,5,6,0,0,4,1,2
22.35,1,3,3,2,0,2,1,2
