8.005,0,10,1,1,1,2,2,0
8.01,1,4,2,4,1,2,2,1
8.015,2,12,2,4,0,1,2,1
8.02,2,0,1,2,0,2,1,3
8.025,1,5,1,1,2,2,1,1
8.03,3,9,5,0,2,1,0,2
8.035,0,7,3,0,1,1,1,0
8.04,0,8,3,1,1,2,1,1
8.045,0,0,0,1,0,1,0,0
8.05,2,3,2,1,3,2,1,1
8.055,1,4,4,1,5,3,1,1
8.06,3,5,3,3,3,5,4,2
8.065,0,17,2,2,5,4,1,1
8.07,0,22,0,1,2,1,1,0
8.075,3,8,1,3,3,3,1,2
8.08,1,3,1,0,3,1,1,1
8.085,2,4,5,2,1,3,0,0
8.09,1,6,0,4,0,0,2,1
8.095,1,9,3,0,0,1,0,2
8.1,4,16,7,2,2,0,2,3
8.105,0,5,1,0,1,1,2,0
8.11,1,1,4,1,1,0,1,1
8.115,2,9,3,4,2,2,1,1
8.12,1,7,3,0,1,1,0,0
8.125,3,2,1,1,1,0,2,3
8.13,0,4,0,0,0,0,2,1
8.135,1,0,0,0,1,1,0,1
8.14,0,0,1,1,1,0,1,1
8.145,4,11,3,2,1,2,1,2
8.15,1,7,0,3,3,2,3,0
8.155,1,1,2,1,1,3,1,1
8.16,1,5,1,0,1,1,1,1
8.165,3,20,6,5,2,3,2,2
8.17,0,1,2,1,2,1,3,0
8.175,1,2,1,0,0,2,1,0
8.18,1,6,1,3,2,0,1,0
8.185,0,6,0,0,1,2,0,1
8.19,1,1,2,0,2,3,1,2
8.195,1,5,3,0,2,0,1,0
8.2,1,1,4,1,1,1,1,1
8.205,1,5,1,1,2,0,1,2
8.21,2,5,0,3,4,2,3,1
8.215,1,0,1,0,2,2,2,1
8.22,1,13,2,1,3,2,0,1
8.225,1,2,2,1,1,1,0,3
8.23,1,1,0,5,1,2,0,0
8.235,1,9,7,8,5,3,4,2
8.24,1,2,1,1,1,4,2,3
8.245,2,5,5,1,2,1,2,1
8.25,1,26,1,3,2,2,1,1
8.255,0,30,2,1,3,2,0,2
8.26,5,21,5,1,1,2,2,3
8.265,0,1,0,1,0,1,1,0
8.27,2,9,2,5,2,3,0,1
8.275,4,10,3,3,4,4,4,2
8.28,0,6,3,0,1,1,0,1
8.285,2,12,2,1,1,4,1,2
8.29,1,0,1,1,2,2,0,0
8.295,1,10,2,1,0,1,0,1
8.3,0,3,0,6,3,3,2,1
8.305,1,3,1,1,2,4,1,2
8.31,0,1,2,0,1,2,1,0
8.315,2,5,0,4,3,3,2,2
8.32,0,5,0,3,6,2,0,1
8.325,0,8,3,2,3,0,0,1
8.33,2,3,3,1,3,2,2,2
8.335,1,3,0,2,2,2,2,1
8.34,1,2,1,1,4,3,3,1
8.345,1,3,1,2,3,1,0,1
8.35,2,0,4,2,3,1,0,1
8.355,0,4,3,0,3,3,2,2
8.36,1,1,2,1,1,1,2,2
8.365,3,2,1,0,1,0,1,3
8.37,0,6,2,0,2,2,4,2
8.375,1,13,1,0,0,0,0,0
8.38,4,35,3,2,3,3,4,2
8.385,1,1,4,2,3,2,3,1
8.39,2,3,1,1,0,1,2,2
8.395,1,1,1,2,0,0,1,10
8.4,5,12,1,2,1,2,2,18
8.405,6,3,2,0,0,1,1,7
8.41,10,5,1,2,1,1,5,13
8.415,5,5,0,1,0,0,11,41
8.42,6,5,1,2,3,3,3,3
8.425,2,4,2,0,4,3,6,25
8.43,5,1,3,0,2,3,2,37
8.435,5,11,3,0,2,2,2,5
8.44,1,1,1,3,3,4,4,4
8.445,1,4,0,3,4,0,1,7
8.45,6,6,1,4,3,2,4,20
8.455,5,14,3,4,3,2,2,4
8.46,1,0,1,5,3,2,1,6
8.465,3,0,1,1,3,3,3,1
8.47,1,1,2,3,6,5,7,2
8.475,3,2,1,1,0,1,1,4
8.48,4,6,1,0,2,2,3,8
8.485,2,4,4,4,1,0,3,10
8.49,0,2,2,3,0,0,2,0
8.495,1,1,2,2,1,3,3,2
8.5,1,2,2,3,7,3,2,4
8.505,3,1,1,4,6,5,3,8
8.51,1,2,2,4,2,2,1,2
8.515,2,1,2,3,2,4,2,11
8.52,1,3,5,6,4,3,2,1
8.525,2,2,1,8,5,4,4,7
8.53,0,2,3,5,6,6,3,1
8.535,2,3,5,5,4,0,0,1
8.54,1,4,2,10,4,1,3,1
8.545,0,2,6,2,5,3,3,3
8.55,1,5,7,4,7,5,4,2
8.555,3,8,3,2,3,2,1,0
8.56,3,19,2,1,4,2,0,4
8.565,0,9,2,4,4,1,1,1
8.57,1,3,5,2,2,0,0,2
8.575,0,9,1,3,4,2,2,2
8.58,5,8,5,0,1,6,3,1
8.585,3,9,2,2,5,3,1,4
8.59,1,4,4,1,3,4,0,0
8.595,2,2,1,5,1,2,1,1
8.6,2,3,2,2,3,2,2,2
8.605,2,3,2,3,4,3,2,3
8.61,1,2,3,6,0,0,2,4
8.615,0,0,0,0,1,1,0,2
8.62,2,11,2,6,0,3,2,1
8.625,4,19,6,3,0,1,2,4
8.63,2,20,1,5,3,3,0,1
8.635,1,12,1,2,1,1,3,2
8.64,1,8,8,4,0,1,0,2
8.645,0,2,7,11,0,1,3,3
8.65,3,10,1,1,0,0,1,1
8.655,2,7,6,2,1,1,3,1
8.66,1,6,0,1,1,2,1,0
8.665,1,3,3,4,1,1,1,0
8.67,0,7,4,2,4,1,1,1
8.675,0,17,6,4,6,3,2,1
8.68,5,27,8,2,1,1,2,4
8.685,1,3,4,2,6,2,0,1
8.69,3,8,23,8,6,5,2,2
8.695,0,1,20,6,4,0,0,2
8.7,4,13,31,13,3,1,2,1
8.705,0,4,11,8,8,1,1,1
8.71,1,4,21,4,3,1,1,1
8.715,6,8,21,8,3,5,2,2
8.72,7,10,6,10,6,3,3,5
8.725,1,3,20,3,5,5,4,2
8.73,1,2,3,1,4,2,0,0
8.735,0,1,7,1,0,4,0,0
8.74,3,6,8,5,5,4,4,1
8.745,0,7,38,6,1,2,1,0
8.75,6,8,16,9,7,7,5,3
8.755,6,14,35,13,6,5,2,3
8.76,5,3,15,0,5,2,9,5
8.765,1,2,4,1,2,0,1,2
8.77,1,0,7,4,5,5,4,1
8.775,1,4,19,0,1,0,3,0
8.78,5,4,24,3,2,1,2,1
8.785,2,6,1,1,3,2,4,1
8.79,3,6,5,5,3,1,0,3
8.795,0,7,34,2,0,0,1,0
8.8,3,8,14,6,1,2,0,5
8.805,0,2,21,3,3,2,1,3
8.81,1,2,9,2,2,2,2,1
8.815,1,0,6,1,5,6,7,5
8.82,1,2,11,1,0,1,2,2
8.825,4,7,21,6,4,4,3,1
8.83,0,1,7,1,0,1,3,1
8.835,1,1,2,1,0,1,2,0
8.84,1,1,2,4,3,2,1,4
8.845,3,9,35,6,3,3,1,1
8.85,4,3,13,4,3,1,0,1
8.855,3,6,26,3,1,1,0,3
8.86,2,2,1,1,0,1,1,2
8.865,3,5,13,6,1,1,0,2
8.87,3,0,5,4,2,1,3,0
8.875,0,1,15,2,2,2,1,2
8.88,0,1,6,1,1,1,2,2
8.885,1,1,5,1,0,3,1,2
8.89,3,7,10,6,6,6,3,2
8.895,1,0,6,2,0,2,0,1
8.9,0,1,2,1,0,0,0,1
8.905,9,15,1,1,1,1,1,2
8.91,1,3,0,2,3,1,0,1
8.915,2,2,3,4,2,3,3,1
8.92,0,13,0,1,3,1,1,0
8.925,1,9,3,3,4,2,0,1
8.93,3,4,17,7,2,3,2,1
8.935,2,1,7,2,3,6,3,2
8.94,0,1,1,2,1,1,1,1
8.945,0,8,0,2,0,2,1,1
8.95,0,27,4,2,2,2,3,1
8.955,9,37,8,1,1,1,1,1
8.96,4,13,17,5,3,3,6,1
8.965,1,2,2,2,2,0,0,1
8.97,0,9,4,0,1,2,14,0
8.975,4,18,8,2,1,2,4,2
8.98,4,7,3,1,3,4,8,2
8.985,4,0,3,4,2,3,8,4
8.99,2,8,5,0,1,2,5,11
8.995,6,13,4,1,0,4,1,2
9,3,2,10,2,2,4,0,5
9.005,4,0,1,1,2,2,8,26
9.01,12,2,3,0,0,15,33,39
9.015,15,4,5,4,4,4,72,73
9.02,15,17,6,0,9,10,12,28
9.025,20,6,2,1,1,9,21,18
9.03,6,21,17,0,1,3,67,55
9.035,4,49,14,2,2,16,69,23
9.04,6,23,1,5,8,12,11,25
9.045,14,45,20,4,0,34,31,42
9.05,33,11,30,5,4,40,41,98
9.055,34,4,10,0,2,17,18,85
9.06,16,28,46,15,9,4,50,30
9.065,11,27,9,10,8,5,26,3
9.07,9,18,21,9,15,15,73,78
9.075,27,4,16,1,6,22,39,78
9.08,39,21,5,1,2,15,53,78
9.085,38,10,14,11,9,24,127,127
9.09,24,23,47,1,3,15,17,21
9.095,22,4,4,12,8,13,45,57
9.1,11,12,40,7,3,3,66,76
9.105,23,11,22,8,7,14,101,105
9.11,1,29,36,13,4,8,19,12
9.115,22,29,57,17,9,11,87,16
9.12,25,29,12,6,4,35,60,72
9.125,12,6,2,5,10,49,93,65
9.13,19,10,9,10,6,42,83,43
9.135,8,29,21,3,5,25,89,107
9.14,43,2,1,3,0,6,59,20
9.145,57,25,18,7,2,8,40,55
9.15,16,17,9,6,3,10,24,24
9.155,29,4,13,0,3,21,18,63
9.16,23,3,5,4,9,7,60,61
9.165,43,4,3,8,7,28,15,63
9.17,34,15,17,10,9,3,72,60
9.175,24,45,0,10,9,27,58,47
9.18,11,13,2,3,7,53,128,3
9.185,24,19,6,3,3,47,127,126
9.19,33,23,17,0,8,17,20,93
9.195,12,31,4,5,3,9,70,42
9.2,13,32,2,6,8,7,102,53
9.205,49,23,27,7,0,42,25,112
9.21,54,83,57,27,14,54,93,19
9.215,21,31,8,1,8,9,44,90
9.22,19,19,15,0,8,10,61,28
9.225,37,7,1,5,24,29,44,71
9.23,8,5,38,8,1,24,82,65
9.235,23,37,10,1,9,51,53,13
9.24,20,24,0,3,1,39,67,63
9.245,30,4,17,3,5,4,0,3
9.25,35,11,24,6,1,35,18,69
9.255,6,8,6,5,14,32,50,91
9.26,33,11,8,2,6,8,35,73
9.265,4,19,2,2,0,15,25,23
9.27,10,20,6,5,1,27,41,97
9.275,12,17,10,0,4,10,37,51
9.28,19,0,3,9,11,16,116,92
9.285,18,39,0,1,3,4,26,78
9.29,15,19,9,4,5,3,3,87
9.295,9,67,27,8,6,8,27,2
9.3,26,15,3,1,3,11,2,43
9.305,5,43,17,4,4,5,18,62
9.31,8,37,18,2,6,2,35,63
9.315,4,49,8,3,5,13,4,19
9.32,11,9,1,0,1,4,7,27
9.325,2,24,32,7,2,4,54,39
9.33,5,1,9,3,6,10,6,43
9.335,7,1,4,3,6,2,23,8
9.34,3,2,2,1,1,4,31,21
9.345,4,9,2,2,3,6,9,26
9.35,5,4,8,1,4,4,22,19
9.355,1,4,7,3,6,28,40,5
9.36,8,2,3,5,3,2,29,34
9.365,19,10,5,2,1,33,76,21
9.37,19,1,11,1,1,5,5,64
9.375,2,34,4,0,1,9,1,18
9.38,5,78,15,3,5,8,7,4
9.385,7,4,22,5,7,19,31,8
9.39,7,5,8,1,6,10,17,35
9.395,7,1,16,2,4,2,5,19
9.4,4,38,14,3,3,2,8,32
9.405,6,13,24,14,3,5,9,6
9.41,1,16,24,12,1,4,19,15
9.415,5,11,22,28,6,1,6,5
9.42,8,23,58,4,2,2,1,9
9.425,7,13,44,9,0,2,6,5
9.43,3,8,10,11,1,3,1,19
9.435,0,5,9,14,5,10,3,13
9.44,0,11,0,7,6,11,4,15
9.445,0,3,13,5,0,3,6,4
9.45,10,3,25,9,3,0,8,10
9.455,9,54,16,11,2,0,2,10
9.46,4,0,11,5,1,2,2,11
9.465,2,7,38,7,1,5,2,7
9.47,10,10,9,8,1,2,12,12
9.475,0,20,10,7,1,3,24,1
9.48,7,1,12,6,1,4,5,2
9.485,5,19,54,4,1,4,16,1
9.49,4,14,21,21,3,4,3,3
9.495,11,28,27,1,3,3,1,1
9.5,10,52,1,3,3,4,4,5
9.505,1,0,9,6,3,1,0,1
9.51,2,3,19,17,1,5,13,5
9.515,8,2,37,5,4,6,11,1
9.52,6,30,10,21,3,1,1,4
9.525,4,7,3,8,5,4,8,5
9.53,5,8,14,4,3,0,2,4
9.535,0,9,41,19,3,2,4,2
9.54,1,17,25,1,0,4,3,4
9.545,1,39,8,7,2,2,1,2
9.55,2,19,38,5,3,4,2,0
9.555,1,3,6,11,0,3,0,1
9.56,18,69,88,26,12,8,2,11
9.565,28,64,17,12,6,8,10,13
9.57,0,0,2,2,0,0,1,0
9.575,2,17,30,4,5,1,2,2
9.58,6,20,50,19,6,3,3,2
9.585,0,10,12,5,0,2,7,2
9.59,0,2,9,6,4,0,1,2
9.595,3,27,26,11,2,1,3,3
9.6,11,29,56,11,2,3,3,5
9.605,15,40,95,31,11,9,9,9
9.61,4,12,8,5,3,3,2,2
9.615,5,7,31,6,2,4,2,0
9.62,3,18,48,21,1,3,3,2
9.625,7,3,6,0,4,3,0,0
9.63,2,23,18,10,3,0,1,2
9.635,0,6,23,9,3,1,1,1
9.64,4,20,49,6,3,0,1,0
9.645,7,42,85,20,5,4,2,2
9.65,14,17,39,9,7,8,5,7
9.655,2,17,68,14,8,3,3,0
9.66,4,27,1,15,3,3,3,5
9.665,7,17,45,2,4,1,3,1
9.67,4,10,62,17,7,4,4,3
9.675,1,21,72,12,5,1,2,2
9.68,7,2,27,1,2,4,1,3
9.685,2,18,20,9,2,1,1,2
9.69,16,30,96,21,4,6,6,3
9.695,1,6,40,5,1,2,1,2
9.7,0,4,9,5,1,1,13,3
9.705,9,21,3,5,3,1,0,1
9.71,9,47,7,1,0,1,2,3
9.715,2,3,21,4,1,1,3,2
9.72,7,16,44,7,1,0,3,3
9.725,18,43,74,24,10,9,7,8
9.73,1,13,45,8,5,3,1,2
9.735,9,24,34,24,6,7,4,4
9.74,4,18,32,8,1,0,4,1
9.745,9,31,90,23,10,9,8,6
9.75,8,12,48,7,3,0,1,2
9.755,8,5,17,9,4,4,3,4
9.76,8,12,38,20,7,5,4,3
9.765,16,76,77,35,17,14,10,13
9.77,7,7,2,2,2,2,0,4
9.775,6,12,5,1,1,2,1,3
9.78,0,32,26,6,4,0,2,1
9.785,13,38,87,37,14,7,6,8
9.79,6,33,89,26,12,9,4,5
9.795,24,28,25,12,7,6,9,10
9.8,5,17,7,4,3,3,6,5
9.805,4,33,12,5,2,1,5,1
9.81,1,0,32,8,5,4,3,3
9.815,7,6,3,4,1,0,3,0
9.82,6,12,58,6,1,0,3,0
9.825,1,4,43,2,1,3,2,0
9.83,4,8,23,0,4,6,6,4
9.835,1,7,36,6,2,2,1,1
9.84,13,31,18,1,2,1,5,5
9.845,1,38,18,15,5,4,6,4
9.85,4,20,20,4,0,4,8,3
9.855,6,34,4,2,0,1,3,3
9.86,1,10,39,7,4,4,4,1
9.865,9,25,43,12,5,4,6,4
9.87,1,17,12,6,1,1,2,1
9.875,2,5,2,3,1,4,2,2
9.88,2,15,3,2,1,0,4,0
9.885,8,22,17,6,2,1,10,0
9.89,4,11,5,1,2,6,1,1
9.895,0,9,14,5,4,12,16,6
9.9,0,3,19,7,5,1,2,3
9.905,5,46,22,2,1,1,6,4
9.91,5,19,7,7,0,4,1,2
9.915,11,38,43,20,6,6,1,5
9.92,21,27,17,9,5,4,5,8
9.925,0,24,2,4,2,0,6,3
9.93,7,21,11,5,1,1,2,1
9.935,4,18,3,4,1,3,4,2
9.94,9,30,13,4,4,7,4,5
9.945,6,10,2,1,1,2,0,0
9.95,1,8,0,3,4,2,0,0
9.955,8,7,5,1,1,1,12,2
9.96,2,6,10,6,2,3,3,2
9.965,2,14,0,0,2,2,2,1
9.97,4,5,16,8,3,1,2,0
9.975,11,12,1,1,3,1,7,6
9.98,1,2,2,2,3,3,0,3
9.985,3,18,3,2,3,3,5,4
9.99,3,6,1,0,1,1,2,2
9.995,0,1,8,0,1,2,4,2
10,13,29,1,2,1,0,0,4
10.005,2,0,7,1,3,2,2,4
10.01,8,10,9,6,5,6,2,3
10.015,3,10,7,2,1,0,2,1
10.02,3,8,12,5,1,0,0,2
10.025,1,5,1,1,1,3,1,1
10.03,2,2,4,2,2,2,0,1
10.035,7,29,2,1,4,1,4,3
10.04,6,12,2,3,4,2,4,0
10.045,0,1,3,3,2,3,1,1
10.05,8,6,2,6,3,4,3,1
10.055,4,7,1,3,3,5,6,2
10.06,1,10,2,1,1,0,1,1
10.065,0,11,2,1,0,1,3,1
10.07,2,4,2,1,3,2,2,2
10.075,2,9,4,4,3,2,12,2
10.08,1,4,1,7,1,5,0,5
10.085,10,2,1,0,2,6,32,8
10.09,1,4,4,3,0,16,16,4
10.095,9,16,6,0,3,7,2,12
10.1,7,13,11,8,9,17,33,3
10.105,6,6,1,0,1,2,9,22
10.11,2,4,4,3,2,10,5,32
10.115,1,5,2,5,1,8,7,12
10.12,10,15,1,4,2,21,17,49
10.125,6,29,3,5,10,36,18,58
10.13,15,6,9,11,10,8,36,31
10.135,18,8,5,1,2,7,29,62
10.14,4,18,5,2,0,4,17,109
10.145,30,15,1,1,1,8,58,28
10.15,8,15,5,4,2,18,22,16
10.155,10,1,1,5,8,28,43,41
10.16,20,9,13,1,1,25,33,91
10.165,2,31,6,7,3,0,18,66
10.17,3,11,12,3,7,48,74,43
10.175,53,46,13,5,8,28,2,24
10.18,10,31,6,2,2,26,10,11
10.185,1,6,3,4,6,14,3,14
10.19,32,31,0,9,8,16,20,33
10.195,4,7,5,0,3,16,49,91
10.2,2,19,11,13,7,11,41,104
10.205,4,19,9,4,7,6,89,2
10.21,17,22,7,10,4,13,80,66
10.215,3,16,16,2,7,19,9,80
10.22,1,35,1,1,8,18,6,102
10.225,14,51,16,6,19,15,64,22
10.23,1,1,8,1,5,24,73,23
10.235,37,33,25,18,23,0,32,28
10.24,38,18,19,9,2,6,16,26
10.245,8,18,15,6,5,9,29,58
10.25,43,10,19,5,6,26,75,60
10.255,39,32,21,5,4,26,20,73
10.26,0,0,0,6,1,31,61,46
10.265,76,75,14,17,24,29,29,84
10.27,83,8,6,9,8,12,36,121
10.275,3,71,12,5,10,23,15,127
10.28,56,6,0,11,8,20,64,60
10.285,84,12,22,14,10,3,25,85
10.29,29,30,6,4,8,4,14,46
10.295,80,22,16,17,32,19,60,78
10.3,27,6,3,3,10,24,81,50
10.305,0,10,4,1,9,6,66,48
10.31,60,12,10,10,8,33,72,28
10.315,10,44,5,7,12,35,118,80
10.32,18,11,12,1,4,7,3,127
10.325,36,73,16,16,19,18,50,43
10.33,12,3,30,4,7,5,13,41
10.335,19,12,4,5,3,4,13,26
10.34,3,31,14,3,6,11,91,94
10.345,18,9,14,1,9,5,1,50
10.35,36,33,18,13,1,16,14,33
10.355,7,78,14,2,26,12,8,109
10.36,3,7,10,0,42,9,34,1
10.365,4,14,4,1,2,13,21,36
10.37,4,27,6,4,9,1,43,68
10.375,9,46,8,3,8,1,43,28
10.38,10,30,9,1,12,7,57,51
10.385,1,7,3,10,5,6,52,107
10.39,47,59,12,3,16,4,13,68
10.395,1,41,1,6,0,45,69,123
10.4,27,41,0,7,15,64,27,49
10.405,13,4,6,0,4,14,41,6
10.41,23,22,22,3,2,2,2,19
10.415,10,8,30,2,5,3,31,6
10.42,9,21,2,3,4,12,2,20
10.425,3,0,11,6,5,2,59,40
10.43,3,13,24,2,4,6,18,5
10.435,5,10,10,2,2,0,21,46
10.44,7,66,23,6,3,15,23,9
10.445,6,36,2,8,5,1,3,6
10.45,16,28,2,4,7,20,42,20
10.455,8,14,2,4,5,28,51,14
10.46,4,25,10,2,0,5,2,13
10.465,15,77,13,6,0,1,4,11
10.47,8,6,0,5,4,8,29,17
10.475,3,0,16,6,7,31,76,20
10.48,1,4,14,2,6,10,6,16
10.485,3,2,1,5,2,1,1,10
10.49,12,21,35,10,9,2,8,12
10.495,3,0,12,3,4,9,11,13
10.5,8,18,4,3,5,23,25,4
10.505,4,14,32,4,1,8,5,2
10.51,13,29,10,1,5,6,6,6
10.515,12,7,56,11,10,9,9,7
10.52,1,25,4,1,4,8,20,3
10.525,3,29,5,2,4,3,8,5
10.53,14,36,19,2,2,1,2,1
10.535,7,7,42,11,2,7,7,5
10.54,9,6,21,6,0,8,6,2
10.545,2,12,37,21,2,5,11,0
10.55,17,38,38,10,5,8,16,13
10.555,3,11,20,4,2,5,21,4
10.56,2,9,14,10,8,8,20,1
10.565,6,2,28,6,1,5,7,0
10.57,6,3,7,5,3,5,11,4
10.575,12,31,6,3,2,7,11,1
10.58,4,22,13,1,1,8,6,4
10.585,4,12,43,7,5,4,13,4
10.59,2,4,4,4,3,4,3,2
10.595,13,24,10,1,0,1,9,1
10.6,1,22,0,0,1,3,10,1
10.605,6,4,11,6,1,1,5,4
10.61,7,28,6,0,2,1,1,2
10.615,2,32,6,1,2,4,3,0
10.62,4,27,8,0,1,3,11,1
10.625,6,12,18,8,5,2,3,4
10.63,5,3,3,3,2,7,8,1
10.635,6,26,31,11,4,2,8,2
10.64,2,18,7,3,5,8,12,1
10.645,1,12,39,6,5,0,1,0
10.65,6,10,10,9,2,2,0,3
10.655,1,9,14,1,1,3,11,1
10.66,15,47,9,7,4,8,15,7
10.665,1,9,5,7,4,1,1,4
10.67,12,20,7,2,4,1,4,3
10.675,7,22,13,3,1,1,14,2
10.68,5,11,4,1,2,1,11,3
10.685,3,28,18,9,4,3,5,2
10.69,6,3,9,3,2,2,6,4
10.695,16,39,10,2,5,2,0,5
10.7,1,1,2,6,2,1,6,1
10.705,2,0,24,7,3,2,4,1
10.71,2,1,22,2,1,1,1,1
10.715,2,4,29,11,7,2,0,1
10.72,8,18,22,8,5,6,6,6
10.725,3,8,7,5,4,2,5,1
10.73,9,10,16,4,3,5,3,3
10.735,0,12,22,4,5,2,1,2
10.74,1,5,2,2,3,3,4,1
10.745,4,14,22,3,1,4,1,2
10.75,3,4,31,12,5,4,2,2
10.755,10,34,68,11,4,4,0,5
10.76,2,6,24,1,2,5,4,3
10.765,3,1,4,4,1,4,2,4
10.77,5,17,11,3,3,4,1,1
10.775,5,2,11,1,1,0,0,3
10.78,7,12,30,5,3,1,2,2
10.785,4,1,1,0,2,1,2,2
10.79,3,4,24,7,1,2,6,1
10.795,0,3,12,3,2,0,6,0
10.8,9,16,38,8,3,1,2,5
10.805,3,21,5,0,1,1,1,1
10.81,0,5,4,2,2,2,1,2
10.815,0,7,19,2,1,4,5,1
10.82,3,6,15,3,2,2,2,1
10.825,1,0,20,1,1,3,2,1
10.83,1,6,4,2,0,2,1,1
10.835,0,8,30,2,2,2,2,0
10.84,0,5,26,3,3,2,4,0
10.845,5,5,8,6,5,3,2,4
10.85,6,15,23,7,2,5,4,3
10.855,5,18,21,5,3,1,0,3
10.86,1,9,18,6,0,3,1,0
10.865,11,19,15,6,0,2,2,4
10.87,15,22,7,4,4,4,4,7
10.875,0,12,18,1,1,1,2,1
10.88,6,15,9,3,1,3,4,2
10.885,1,17,12,0,1,2,3,2
10.89,1,19,13,0,4,1,1,2
10.895,1,5,14,6,2,1,0,2
10.9,5,8,4,6,2,1,1,1
10.905,1,0,4,2,0,2,3,1
10.91,6,23,75,14,0,1,3,4
10.915,4,12,3,7,6,3,1,1
10.92,2,6,1,3,2,1,3,2
10.925,7,31,19,2,0,2,1,4
10.93,1,5,0,0,3,3,3,0
10.935,3,31,18,7,2,3,1,4
10.94,7,8,14,2,1,1,1,3
10.945,3,41,21,12,3,7,5,4
10.95,10,1,10,2,2,3,2,1
10.955,4,30,20,3,2,3,0,2
10.96,6,7,33,1,4,3,3,4
10.965,13,25,92,22,8,8,8,9
10.97,4,24,9,3,2,3,0,3
10.975,6,28,10,3,0,1,2,0
10.98,13,19,63,23,12,7,5,7
10.985,10,21,74,21,6,6,3,5
10.99,12,20,1,4,3,4,4,5
10.995,3,7,2,1,2,4,2,1
11,4,9,35,3,2,3,2,2
11.005,7,3,13,11,5,4,3,4
11.01,7,12,1,9,4,6,2,4
11.015,0,8,3,4,1,5,3,1
11.02,4,5,6,4,3,2,3,4
11.025,3,33,31,10,1,4,4,2
11.03,9,19,2,3,0,1,1,2
11.035,10,19,4,0,2,2,2,2
11.04,2,15,34,9,4,5,7,3
11.045,1,12,21,6,2,1,1,1
11.05,2,24,30,6,3,3,1,3
11.055,12,34,46,13,3,2,1,6
11.06,9,3,36,17,8,4,0,2
11.065,6,13,55,13,4,0,1,1
11.07,4,1,22,3,1,2,0,0
11.075,3,2,24,7,3,3,3,0
11.08,2,3,5,4,3,4,0,0
11.085,3,0,70,12,6,3,1,4
11.09,2,22,20,3,2,4,1,3
11.095,7,26,11,3,5,0,2,2
11.1,7,27,6,7,2,4,2,1
11.105,19,22,27,3,1,2,4,6
11.11,3,12,13,3,3,1,1,2
11.115,2,5,8,4,3,4,5,1
11.12,1,7,3,2,5,8,2,3
11.125,0,2,19,2,0,0,1,2
11.13,2,1,14,4,3,1,0,1
11.135,3,10,7,3,1,2,4,2
11.14,2,11,2,2,0,1,5,1
11.145,4,11,2,0,3,3,3,1
11.15,12,14,0,0,1,4,6,3
11.155,2,13,2,1,1,1,5,0
11.16,15,62,20,6,2,5,6,10
11.165,2,13,8,1,4,1,3,1
11.17,1,3,5,2,0,4,1,1
11.175,0,6,1,4,3,2,3,1
11.18,5,6,2,6,4,7,6,5
11.185,1,6,23,6,2,2,0,1
11.19,1,1,4,8,3,1,1,2
11.195,1,19,13,1,1,1,2,2
11.2,3,17,9,3,3,2,6,2
11.205,8,2,9,2,2,2,3,0
11.21,1,26,17,4,1,1,3,1
11.215,3,16,6,3,2,0,4,4
11.22,1,13,5,3,2,1,1,1
11.225,2,2,7,2,1,3,6,2
11.23,2,16,18,1,3,5,1,4
11.235,2,7,3,1,0,2,1,1
11.24,4,15,7,4,0,1,2,2
11.245,4,15,11,15,5,4,1,4
11.25,0,8,6,3,1,2,2,2
11.255,4,4,2,4,2,0,9,1
11.26,1,10,7,3,2,1,2,2
11.265,2,0,3,3,1,9,2,2
11.27,4,6,6,2,6,12,3,9
11.275,2,3,5,3,3,1,6,0
11.28,2,2,4,1,1,3,3,1
11.285,0,4,0,1,2,8,13,22
11.29,12,8,3,7,5,17,44,27
11.295,0,3,1,4,2,2,1,21
11.3,3,0,8,6,1,6,4,1
11.305,5,6,3,1,2,3,28,30
11.31,15,8,8,3,2,4,9,6
11.315,5,22,7,2,1,8,13,14
11.32,23,43,20,11,3,0,3,14
11.325,17,58,20,4,5,24,61,29
11.33,36,19,22,5,7,38,84,38
11.335,3,5,3,2,5,40,25,15
11.34,32,15,19,1,6,13,64,70
11.345,50,57,34,6,12,58,81,101
11.35,21,2,3,0,5,44,37,85
11.355,10,14,14,16,11,3,87,74
11.36,7,51,8,3,4,24,98,4
11.365,4,14,7,3,1,28,43,5
11.37,8,8,32,2,1,20,64,67
11.375,10,10,9,13,13,16,46,80
11.38,13,3,1,6,0,25,29,127
11.385,22,14,1,6,5,29,52,128
11.39,41,34,21,2,7,23,28,59
11.395,13,4,10,15,7,5,32,127
11.4,3,11,12,8,2,11,17,128
11.405,22,9,11,7,3,6,41,78
11.41,15,35,4,2,0,7,60,34
11.415,3,39,7,3,4,22,50,10
11.42,30,31,9,9,7,12,36,17
11.425,12,18,10,6,2,18,22,53
11.43,7,5,1,0,4,2,43,95
11.435,4,8,3,9,17,25,52,81
11.44,21,6,9,11,10,21,18,61
11.445,34,63,13,0,8,35,32,4
11.45,26,20,35,12,2,14,34,33
11.455,16,34,3,2,3,11,41,56
11.46,27,2,63,11,17,31,39,70
11.465,26,5,33,7,8,11,3,97
11.47,1,28,30,7,0,12,40,31
11.475,21,14,16,2,4,9,41,82
11.48,39,38,48,10,5,28,41,38
11.485,34,28,12,6,9,38,86,93
11.49,12,28,5,3,7,37,104,74
11.495,44,8,10,7,14,12,28,26
11.5,34,6,20,8,13,1,32,51
11.505,16,24,10,7,4,1,80,67
11.51,6,22,65,14,8,9,49,53
11.515,10,7,30,6,13,12,41,12
11.52,7,24,79,18,1,36,124,8
11.525,17,44,5,6,8,17,86,40
11.53,9,26,7,4,3,11,2,61
11.535,19,38,36,8,4,11,64,48
11.54,15,0,20,8,4,13,35,66
11.545,25,27,8,4,3,1,16,44
11.55,28,55,6,4,5,10,7,35
11.555,9,25,13,5,8,15,3,39
11.56,17,47,36,9,7,11,16,57
11.565,30,29,26,0,2,27,60,65
11.57,2,12,26,11,1,8,19,23
11.575,13,7,18,5,2,8,14,20
11.58,13,6,18,3,0,18,11,27
11.585,2,53,5,7,6,25,67,19
11.59,14,0,19,2,6,26,50,18
11.595,28,22,19,5,4,10,12,17
11.6,6,9,23,6,2,6,22,15
11.605,9,40,30,1,6,3,10,6
11.61,2,17,7,4,5,4,14,66
11.615,6,14,4,1,2,1,7,30
11.62,6,8,62,11,3,4,11,19
11.625,8,18,13,6,5,8,30,16
11.63,1,12,54,4,4,2,10,1
11.635,1,6,17,0,0,7,6,22
11.64,4,7,13,3,1,1,1,28
11.645,4,8,7,3,1,9,11,32
11.65,3,23,14,0,3,4,3,36
11.655,5,26,13,1,1,14,31,1
11.66,5,5,29,6,6,1,4,16
11.665,1,2,9,6,5,16,25,3
11.67,8,1,14,1,0,9,27,12
11.675,9,19,21,1,5,6,2,8
11.68,1,6,0,3,1,5,6,20
11.685,5,17,1,1,1,2,11,3
11.69,2,4,7,2,4,6,8,7
11.695,3,16,14,7,7,4,2,2
11.7,6,7,21,13,1,3,2,1
11.705,3,1,6,6,0,1,8,7
11.71,2,5,2,4,3,3,2,12
11.715,3,12,1,0,4,0,1,2
11.72,3,8,26,7,0,1,3,7
11.725,6,7,5,2,1,3,7,5
11.73,8,35,1,1,1,5,7,6
11.735,4,37,10,1,0,5,4,7
11.74,6,5,15,1,1,1,1,5
11.745,12,38,2,2,0,1,0,11
11.75,2,3,10,3,1,0,2,4
11.755,10,22,24,4,1,1,1,1
11.76,3,3,11,4,7,11,3,3
11.765,5,12,12,3,1,11,2,3
11.77,0,1,10,8,1,5,4,2
11.775,2,7,2,9,1,1,3,1
11.78,1,11,26,20,1,2,10,8
11.785,1,8,0,3,4,6,1,3
11.79,1,5,13,3,2,1,0,1
11.795,1,7,27,4,1,5,0,0
11.8,4,33,24,5,2,2,0,3
11.805,0,6,15,1,1,2,1,5
11.81,1,12,3,1,0,1,1,2
11.815,20,52,25,4,4,2,2,6
11.82,1,7,3,5,0,2,1,4
11.825,4,23,6,2,2,1,3,2
11.83,4,5,19,9,1,4,6,2
11.835,8,21,5,2,3,2,0,1
11.84,4,3,5,2,1,0,6,2
11.845,8,9,32,8,3,4,9,0
11.85,3,7,18,11,0,7,15,1
11.855,13,31,77,17,5,3,3,6
11.86,8,17,29,16,0,2,1,3
11.865,6,36,15,0,1,3,8,6
11.87,5,3,13,1,0,7,5,2
11.875,3,3,28,16,3,4,6,0
11.88,2,1,15,5,2,3,5,2
11.885,11,1,6,7,1,5,13,1
11.89,8,11,2,6,2,3,24,2
11.895,3,0,11,4,4,1,1,0
11.9,6,8,9,13,1,2,1,3
11.905,19,70,8,6,5,3,7,8
11.91,2,55,0,13,5,1,6,3
11.915,4,19,2,3,2,1,2,2
11.92,1,3,34,12,1,1,3,4
11.925,20,62,94,35,8,9,7,12
11.93,7,8,10,6,5,3,2,4
11.935,1,5,14,3,2,0,0,2
11.94,10,26,30,9,2,2,3,3
11.945,3,10,29,13,3,3,1,2
11.95,1,28,28,11,2,2,2,2
11.955,5,16,8,5,3,5,6,1
11.96,1,30,9,2,0,2,6,4
11.965,2,4,2,0,2,4,2,2
11.97,4,7,9,5,3,4,0,1
11.975,4,3,5,8,2,6,4,1
11.98,15,43,65,20,7,3,22,8
11.985,1,30,19,1,0,3,18,1
11.99,3,5,2,4,3,0,3,1
11.995,2,4,10,7,1,1,5,1
12,2,13,10,1,1,2,3,2
12.005,1,12,11,1,0,1,8,2
12.01,6,23,61,17,2,2,1,4
12.015,9,16,13,5,4,3,5,4
12.02,4,18,7,5,1,2,1,1
12.025,0,22,22,1,1,3,5,3
12.03,4,18,47,6,3,2,3,2
12.035,3,10,17,4,5,5,1,0
12.04,4,11,66,24,7,4,2,3
12.045,9,5,30,10,3,2,3,2
12.05,1,1,11,5,3,1,4,1
12.055,2,5,17,6,5,3,1,2
12.06,1,18,41,8,1,1,1,0
12.065,1,2,6,7,0,1,3,2
12.07,6,47,39,15,5,4,3,4
12.075,3,10,14,4,1,0,0,1
12.08,9,5,15,2,2,3,3,0
12.085,2,10,20,5,0,1,4,2
12.09,11,43,52,15,0,4,7,7
12.095,7,9,7,0,1,1,0,0
12.1,1,2,7,3,1,2,1,1
12.105,5,1,18,7,4,5,5,4
12.11,2,4,2,5,2,3,2,3
12.115,4,1,26,2,0,2,2,2
12.12,6,15,9,3,1,0,0,1
12.125,0,2,14,2,0,1,2,1
12.13,0,14,23,4,3,4,6,1
12.135,7,14,3,5,3,2,4,6
12.14,4,0,15,3,3,0,1,0
12.145,3,16,33,7,2,0,0,1
12.15,1,2,13,2,0,1,0,1
12.155,10,32,54,19,5,4,5,6
12.16,4,25,22,3,4,4,3,3
12.165,0,4,6,2,1,1,1,2
12.17,3,11,32,5,2,1,2,1
12.175,0,18,20,3,2,2,2,2
12.18,4,25,24,9,1,1,0,2
12.185,3,8,2,5,0,0,1,1
12.19,3,5,7,1,1,3,0,2
12.195,12,34,16,15,7,4,5,7
12.2,4,3,4,5,5,3,2,2
12.205,3,7,5,2,1,1,0,1
12.21,0,17,9,0,0,2,2,0
12.215,4,17,4,8,0,2,1,1
12.22,18,36,34,11,3,4,3,7
12.225,8,34,95,30,7,6,5,5
12.23,16,35,2,10,8,11,6,11
12.235,9,20,29,10,4,4,1,2
12.24,2,8,17,5,3,3,4,0
12.245,0,0,21,6,1,2,0,0
12.25,11,6,31,6,3,2,2,1
12.255,2,1,13,2,3,1,1,2
12.26,6,19,19,11,2,0,3,1
12.265,3,31,45,10,3,5,3,2
12.27,7,55,73,19,8,6,5,4
12.275,3,2,5,2,4,1,2,2
12.28,2,1,1,3,0,1,0,1
12.285,1,3,15,1,0,5,1,1
12.29,14,32,49,0,0,2,0,2
12.295,3,5,6,5,3,1,2,1
12.3,9,31,23,7,5,5,4,8
12.305,11,20,3,3,1,2,1,2
12.31,8,12,8,7,2,4,1,3
12.315,1,0,11,3,0,3,1,1
12.32,7,12,3,5,3,3,3,4
12.325,0,2,11,1,1,2,3,3
12.33,0,29,25,2,0,2,2,3
12.335,4,23,10,2,0,1,1,2
12.34,1,26,5,1,2,3,2,2
12.345,6,22,9,4,0,1,2,4
12.35,4,1,4,2,0,1,3,1
12.355,0,8,7,3,2,0,1,1
12.36,1,7,17,0,1,2,2,1
12.365,4,3,12,5,4,2,1,2
12.37,2,11,19,3,2,1,2,2
12.375,16,24,3,1,2,3,3,5
12.38,3,5,6,4,1,1,2,2
12.385,4,10,16,7,3,3,3,3
12.39,5,0,17,4,1,4,2,2
12.395,1,4,4,8,0,1,2,3
12.4,5,28,15,22,3,4,2,4
12.405,8,7,14,1,1,4,4,4
12.41,2,9,9,1,1,3,2,0
12.415,7,19,4,1,0,0,1,2
12.42,0,7,10,4,2,1,3,1
12.425,5,4,4,0,0,1,1,2
12.43,4,11,4,2,0,3,3,2
12.435,4,8,10,2,3,0,0,1
12.44,1,2,14,1,2,1,2,2
12.445,3,8,6,3,1,2,2,4
12.45,1,19,0,1,2,1,2,0
12.455,3,4,6,0,3,4,1,1
12.46,2,1,9,1,1,1,2,0
12.465,1,2,1,0,2,4,1,2
12.47,4,6,5,1,2,2,6,1
12.475,1,16,5,6,3,6,9,4
12.48,3,18,2,1,2,1,1,1
12.485,2,2,3,0,0,0,2,1
12.49,3,1,5,3,1,1,4,4
12.495,0,2,3,2,5,5,13,1
12.5,3,8,2,2,3,4,13,1
12.505,4,1,1,1,2,4,14,18
12.51,2,0,4,4,2,1,2,4
12.515,0,0,1,5,3,3,6,7
12.52,1,0,1,1,1,0,15,3
12.525,12,4,2,2,2,8,8,9
12.53,7,4,3,4,3,1,0,6
12.535,3,4,3,0,3,9,17,23
12.54,1,7,7,1,4,13,35,21
12.545,11,0,0,1,2,2,13,7
12.55,8,7,7,2,1,16,28,18
12.555,5,7,4,7,9,3,21,14
12.56,2,8,5,3,3,1,25,20
12.565,0,6,8,2,3,2,26,10
12.57,11,6,2,9,9,4,24,2
12.575,16,23,7,3,5,6,4,31
12.58,10,0,3,0,1,2,8,11
12.585,12,2,5,1,3,3,16,14
12.59,0,13,9,1,2,10,5,4
12.595,15,21,5,4,2,1,16,5
12.6,4,12,5,3,3,10,24,9
12.605,29,9,6,1,1,0,11,6
12.61,4,2,3,9,4,5,11,2
12.615,6,2,1,2,2,8,7,9
12.62,26,0,2,5,5,6,77,73
12.625,17,3,5,3,2,15,87,30
12.63,12,6,3,7,4,4,22,5
12.635,41,31,3,6,7,21,27,4
12.64,13,3,0,5,2,2,13,31
12.645,2,40,6,6,6,1,34,11
12.65,57,89,18,4,4,8,18,13
12.655,23,8,0,0,5,33,50,12
12.66,12,62,0,2,2,23,18,11
12.665,5,11,3,5,0,4,27,88
12.67,3,18,1,1,5,24,30,58
12.675,42,10,1,5,6,20,9,3
12.68,22,8,10,6,2,12,41,4
12.685,13,13,20,3,5,21,80,12
12.69,32,14,22,6,10,8,15,81
12.695,5,14,9,2,10,4,87,73
12.7,19,34,24,14,15,22,1,23
12.705,8,20,9,1,13,6,13,42
12.71,10,15,15,13,14,11,19,46
12.715,21,30,4,2,3,5,13,40
12.72,15,24,3,3,3,17,19,110
12.725,4,20,12,5,3,9,10,42
12.73,19,6,2,3,3,10,18,69
12.735,3,24,8,0,8,14,8,82
12.74,14,11,9,2,3,14,37,89
12.745,4,39,2,2,3,5,30,45
12.75,3,40,1,1,4,19,23,38
12.755,21,71,17,5,6,2,91,58
12.76,10,8,39,8,12,30,68,127
12.765,21,13,55,8,1,23,97,77
12.77,38,56,32,4,2,69,89,85
12.775,35,2,18,10,5,5,20,43
12.78,21,14,53,10,16,14,22,11
12.785,5,18,34,5,7,24,89,34
12.79,7,32,66,24,13,6,30,6
12.795,38,9,5,0,18,23,17,10
12.8,23,5,2,8,15,22,26,19
12.805,10,4,47,3,0,8,3,29
12.81,2,37,11,9,13,31,20,3
12.815,15,42,1,4,2,11,40,43
12.82,17,4,16,1,1,3,5,68
12.825,44,10,0,5,3,7,3,36
12.83,20,3,7,1,5,23,59,79
12.835,8,23,7,2,3,7,18,67
12.84,2,17,11,3,8,3,19,2
12.845,14,12,4,3,9,5,61,6
12.85,0,9,17,6,3,15,59,20
12.855,16,15,0,2,3,10,18,38
12.86,4,10,27,6,3,2,12,6
12.865,13,7,17,7,1,4,16,20
12.87,14,24,31,3,2,20,31,15
12.875,6,9,17,6,6,3,1,20
12.88,3,1,18,7,0,2,49,31
12.885,2,9,4,1,3,7,6,5
12.89,10,2,4,1,2,10,21,6
12.895,6,5,12,5,9,10,10,20
12.9,11,5,18,12,9,0,1,11
12.905,5,41,4,5,4,10,20,3
12.91,10,50,3,10,6,5,7,7
12.915,6,6,20,5,3,7,3,2
12.92,16,7,8,3,2,7,29,4
12.925,3,11,41,9,4,10,41,6
12.93,3,6,26,9,2,5,7,15
12.935,15,62,13,4,3,8,9,6
12.94,2,22,58,10,6,5,6,4
12.945,3,19,8,8,1,5,11,1
12.95,1,4,19,0,0,0,1,3
12.955,1,2,10,0,4,8,15,6
12.96,1,9,26,22,1,1,9,0
12.965,1,22,12,6,1,3,5,4
12.97,2,19,21,21,8,2,4,5
12.975,3,9,21,5,1,1,5,5
12.98,1,1,4,9,4,2,12,6
12.985,5,13,3,6,5,12,38,2
12.99,0,13,35,17,5,4,8,1
12.995,4,30,26,0,2,2,10,7
13,0,27,89,14,4,1,17,1
13.005,3,4,29,1,2,6,17,1
13.01,12,39,14,10,7,7,10,4
13.015,10,47,14,6,2,0,3,1
13.02,8,15,48,6,6,1,2,3
13.025,5,16,3,5,0,1,11,3
13.03,1,2,14,1,4,3,3,4
13.035,7,8,8,1,1,1,2,1
13.04,1,8,12,3,2,3,9,2
13.045,1,4,11,6,0,1,9,2
13.05,9,4,11,15,4,2,0,3
13.055,1,15,9,7,4,5,6,3
13.06,4,24,36,3,2,0,1,1
13.065,4,17,52,2,6,1,4,3
13.07,1,3,20,11,2,1,0,2
13.075,0,9,14,12,0,3,3,0
13.08,1,13,40,7,0,1,3,4
13.085,4,24,64,15,3,5,11,4
13.09,1,4,21,3,6,3,6,1
13.095,6,37,53,15,4,3,4,5
13.1,26,14,40,6,0,2,0,2
13.105,1,0,0,2,2,0,3,1
13.11,4,0,0,2,1,4,1,2
13.115,1,7,11,4,0,1,1,1
13.12,1,3,10,2,0,4,1,1
13.125,0,1,2,5,2,3,2,0
13.13,4,4,1,3,2,1,0,4
13.135,3,5,9,4,2,0,1,1
13.14,0,0,22,19,1,2,3,2
13.145,5,3,13,3,3,1,0,3
13.15,4,14,29,5,1,2,0,1
13.155,4,2,14,10,1,3,1,2
13.16,3,4,22,6,4,1,1,1
13.165,1,3,8,11,0,2,2,2
13.17,3,4,7,3,4,3,0,2
13.175,0,3,20,1,0,1,2,1
13.18,5,5,4,7,0,1,2,0
13.185,1,3,0,7,5,3,0,2
13.19,10,28,77,11,4,6,3,5
13.195,0,18,7,3,1,3,1,1
13.2,5,1,17,4,2,0,0,0
13.205,20,39,60,17,7,6,4,8
13.21,14,25,1,5,2,3,1,4
13.215,9,30,41,15,6,5,5,6
13.22,4,18,13,6,4,4,1,4
13.225,2,7,11,4,0,1,0,2
13.23,5,7,22,1,1,2,1,0
13.235,2,3,59,8,0,2,2,1
13.24,3,12,1,2,2,1,3,2
13.245,0,6,18,8,0,1,0,0
13.25,2,1,9,1,1,1,1,0
13.255,6,9,0,12,8,6,5,4
13.26,1,3,3,4,1,1,1,0
13.265,14,25,44,9,8,7,6,8
13.27,8,5,20,4,0,2,1,0
13.275,2,1,35,7,4,2,3,0
13.28,1,1,33,5,1,2,1,1
13.285,2,13,30,6,1,1,3,2
13.29,3,2,3,7,1,1,2,8
13.295,10,27,56,20,9,7,8,15
13.3,6,4,2,6,5,6,7,9
13.305,4,6,11,3,3,2,0,2
13.31,0,7,12,2,1,3,1,4
13.315,7,16,38,10,2,2,3,9
13.32,1,0,4,2,2,4,0,2
13.325,1,3,5,1,3,2,4,3
13.33,4,5,20,2,2,2,2,3
13.335,8,2,69,15,7,5,4,3
13.34,3,0,6,0,0,2,2,4
13.345,6,1,24,14,7,5,5,6
13.35,10,19,17,14,5,4,4,3
13.355,27,68,82,40,17,13,10,13
13.36,4,1,22,2,1,3,3,5
13.365,3,4,20,5,1,2,1,2
13.37,0,11,25,4,1,1,2,2
13.375,9,17,32,16,6,3,3,4
13.38,1,3,10,1,1,0,1,3
13.385,2,8,2,6,4,4,3,2
13.39,4,12,26,10,4,4,5,6
13.395,6,14,22,10,6,4,4,3
13.4,0,2,6,3,1,2,1,1
13.405,5,4,7,1,1,1,1,4
13.41,2,13,19,1,1,0,0,0
13.415,7,2,28,8,3,2,1,4
13.42,6,5,16,8,3,2,2,3
13.425,12,27,9,15,10,8,6,8
13.43,5,6,4,4,2,3,3,7
13.435,6,22,65,17,4,1,1,3
13.44,8,6,3,9,4,2,1,4
13.445,1,1,33,2,1,0,1,0
13.45,2,0,13,0,2,2,3,2
13.455,2,3,14,1,1,1,0,1
13.46,4,8,39,8,4,4,2,3
13.465,0,1,3,4,1,1,1,1
13.47,2,6,11,4,1,2,2,1
13.475,0,16,7,2,2,2,2,1
13.48,3,5,1,3,3,2,4,1
13.485,2,3,5,4,1,0,2,0
13.49,0,4,35,7,1,1,1,1
13.495,5,25,56,13,5,3,3,4
13.5,7,23,19,13,4,6,6,7
13.505,7,14,10,8,5,5,4,4
13.51,6,13,17,9,6,6,3,4
13.515,6,15,28,5,2,0,1,3
13.52,1,6,15,3,3,1,1,2
13.525,3,11,15,5,1,4,1,3
13.53,3,9,34,6,3,2,3,4
13.535,1,1,20,1,0,0,3,1
13.54,2,1,1,0,1,3,1,1
13.545,6,13,5,2,4,2,2,2
13.55,4,3,7,1,1,0,1,0
13.555,1,4,6,2,0,3,1,3
13.56,4,5,15,3,3,1,0,2
13.565,0,5,4,4,2,0,0,0
13.57,3,6,22,2,1,2,2,2
13.575,2,4,2,0,2,0,0,2
13.58,1,8,14,4,3,0,0,1
13.585,3,5,2,3,3,2,3,1
13.59,1,2,14,4,2,4,0,1
13.595,2,6,1,3,2,5,3,2
13.6,3,4,7,4,2,5,3,0
13.605,1,0,7,2,3,0,1,1
13.61,5,11,7,4,1,1,3,3
13.615,2,4,4,0,3,1,3,0
13.62,5,14,18,6,2,0,1,1
13.625,0,11,19,5,2,0,1,1
13.63,10,19,31,16,7,6,4,7
13.635,1,4,10,3,2,2,1,0
13.64,2,1,4,2,2,3,2,2
13.645,0,7,18,7,0,0,1,1
13.65,5,8,7,3,1,1,3,1
13.655,2,9,16,6,2,1,1,3
13.66,6,5,5,2,3,5,2,0
13.665,0,4,5,2,1,1,2,3
13.67,0,5,4,0,0,1,1,0
13.675,2,2,4,1,3,2,4,1
13.68,1,6,3,2,3,1,1,3
13.685,1,3,7,3,2,4,3,1
13.69,0,5,1,2,1,1,2,1
13.695,0,4,6,0,1,3,2,0
13.7,5,8,10,4,1,3,3,1
13.705,12,17,5,4,3,2,1,3
13.71,5,3,5,2,4,7,8,2
13.715,9,2,5,0,0,5,7,9
13.72,2,6,7,3,0,0,5,3
13.725,18,16,6,2,1,0,2,12
13.73,9,1,4,3,2,6,8,21
13.735,2,7,5,1,3,1,3,12
13.74,11,4,2,4,4,0,2,7
13.745,6,1,7,2,4,1,21,30
13.75,8,59,14,1,0,4,30,36
13.755,7,7,0,0,1,7,6,8
13.76,18,14,2,1,1,4,10,0
13.765,7,5,1,1,3,5,6,13
13.77,6,12,3,6,1,10,32,24
13.775,25,9,0,4,3,4,15,38
13.78,13,6,1,2,3,13,3,48
13.785,24,21,7,5,3,2,33,8
13.79,16,104,12,3,3,3,1,12
13.795,0,33,3,1,3,9,22,2
13.8,7,9,8,0,1,1,5,21
13.805,23,6,1,5,4,5,9,5
13.81,12,13,7,1,1,7,12,18
13.815,10,4,5,3,1,7,32,0
13.82,9,18,8,3,5,13,39,11
13.825,9,4,16,2,2,12,38,5
13.83,0,25,37,1,5,12,10,7
13.835,7,7,6,4,0,4,33,9
13.84,9,26,4,1,3,3,2,59
13.845,21,11,14,1,4,6,28,26
13.85,7,1,14,5,11,2,9,10
13.855,8,1,36,1,0,5,45,18
13.86,11,15,12,7,3,5,55,29
13.865,1,8,15,1,0,11,3,29
13.87,46,34,7,2,2,1,7,44
13.875,21,32,6,5,3,5,12,45
13.88,16,25,15,3,4,15,38,24
13.885,8,13,5,3,10,22,47,81
13.89,8,15,8,7,10,19,38,88
13.895,44,34,9,3,4,25,107,126
13.9,15,5,4,9,10,10,34,45
13.905,13,52,6,8,10,0,90,98
13.91,42,35,7,3,2,6,69,32
13.915,10,32,19,7,4,27,94,58
13.92,48,7,16,14,20,23,81,28
13.925,3,70,13,5,15,23,57,4
13.93,15,22,7,3,6,18,12,56
13.935,9,37,15,6,7,1,17,92
13.94,19,35,3,3,0,21,44,106
13.945,11,7,20,1,6,20,22,75
13.95,35,58,25,19,8,26,13,19
13.955,10,20,8,1,18,13,39,99
13.96,33,3,1,0,1,6,0,66
13.965,16,22,13,6,5,25,80,48
13.97,31,23,19,2,19,12,15,55
13.975,15,10,6,6,17,52,117,8
13.98,17,1,7,1,4,11,13,74
13.985,4,16,5,1,1,15,9,0
13.99,44,26,4,11,19,3,6,91
13.995,3,30,0,5,8,11,36,111
14,1,18,8,2,11,4,55,88
14.005,27,40,8,3,8,0,90,35
14.01,5,29,12,4,12,9,5,63
14.015,65,14,22,10,15,17,52,93
14.02,47,4,8,2,1,2,37,102
14.025,29,68,10,4,1,28,32,12
14.03,34,14,20,5,0,11,5,34
14.035,9,80,8,3,3,13,3,118
14.04,12,25,5,5,6,16,2,34
14.045,2,4,11,5,4,10,2,53
14.05,6,24,11,3,2,10,52,29
14.055,19,41,16,10,4,2,9,20
14.06,27,37,6,1,4,14,22,65
14.065,4,11,1,2,7,1,43,29
14.07,16,6,7,0,12,14,7,5
14.075,14,12,2,1,1,3,3,45
14.08,1,10,8,0,3,6,47,41
14.085,15,40,6,0,4,4,23,24
14.09,9,10,6,2,1,1,2,9
14.095,0,3,4,0,1,1,67,36
14.1,9,13,3,5,2,3,31,13
14.105,3,6,2,5,6,8,23,13
14.11,18,34,11,2,1,1,8,44
14.115,2,4,6,2,2,15,18,14
14.12,9,45,9,1,4,4,1,17
14.125,7,37,2,0,8,5,1,4
14.13,2,29,10,2,1,4,25,1
14.135,12,13,0,3,0,2,18,32
14.14,4,3,7,2,0,2,9,12
14.145,3,5,11,4,5,4,5,13
14.15,4,2,48,12,1,5,12,3
14.155,19,76,12,4,2,5,2,4
14.16,3,30,9,2,2,6,3,16
14.165,3,31,15,3,0,3,1,20
14.17,2,0,12,6,6,2,2,3
14.175,10,11,3,2,4,2,8,2
14.18,2,14,7,2,3,6,11,15
14.185,1,11,2,0,1,1,3,5
14.19,6,1,13,3,1,5,5,1
14.195,12,47,66,20,2,6,3,2
14.2,6,2,28,4,5,4,6,8
14.205,11,25,107,37,8,8,9,5
14.21,3,7,27,10,5,4,6,14
14.215,1,14,21,1,3,12,14,8
14.22,2,34,42,16,3,2,3,3
14.225,4,13,47,11,1,1,0,0
14.23,2,2,23,2,1,1,2,7
14.235,6,5,20,1,0,5,2,1
14.24,7,18,24,11,3,6,3,2
14.245,4,13,9,1,2,2,4,7
14.25,3,9,10,2,0,1,1,0
14.255,7,23,26,4,3,2,2,3
14.26,1,5,15,3,1,0,2,2
14.265,1,3,4,2,0,1,0,4
14.27,2,4,18,5,4,2,1,2
14.275,1,9,17,11,2,3,4,3
14.28,5,13,17,7,6,6,4,0
14.285,0,8,19,1,2,1,1,3
14.29,1,11,14,7,1,1,2,0
14.295,5,7,14,1,1,0,1,0
14.3,11,18,30,8,2,4,3,2
14.305,6,8,2,6,8,5,5,5
14.31,4,13,8,8,6,2,1,4
14.315,0,8,33,6,3,4,1,1
14.32,3,3,5,9,2,1,3,3
14.325,6,15,26,14,4,4,6,4
14.33,2,2,7,3,0,2,2,1
14.335,11,21,38,15,6,7,6,9
14.34,1,1,23,1,3,3,4,4
14.345,0,3,5,2,3,5,1,1
14.35,3,13,12,1,2,0,0,0
14.355,5,9,2,7,1,2,2,3
14.36,3,0,5,2,2,4,1,2
14.365,1,2,15,2,2,1,1,0
14.37,1,10,7,0,1,1,1,0
14.375,10,33,47,10,6,3,2,5
14.38,3,5,7,3,1,1,2,2
14.385,3,12,32,6,2,1,0,0
14.39,6,15,36,9,1,1,2,3
14.395,1,12,57,10,2,2,3,1
14.4,9,19,30,15,8,5,4,4
14.405,7,24,12,0,1,4,3,4
14.41,0,4,19,4,1,2,4,6
14.415,8,31,59,18,6,5,5,6
14.42,8,21,29,12,5,1,4,8
14.425,3,10,17,1,1,0,0,1
14.43,15,35,68,15,8,7,5,6
14.435,10,10,15,10,9,7,8,8
14.44,2,1,5,10,3,1,1,1
14.445,3,22,53,3,1,0,2,1
14.45,11,17,65,12,1,0,2,5
14.455,0,3,4,3,0,1,1,2
14.46,2,7,4,2,1,0,1,1
14.465,1,20,4,2,1,3,5,1
14.47,2,2,13,4,2,1,2,3
14.475,4,7,13,4,4,3,2,3
14.48,4,17,24,5,0,0,1,0
14.485,3,26,11,0,0,1,2,0
14.49,8,36,40,16,7,8,8,8
14.495,2,37,37,1,2,1,0,1
14.5,6,7,11,9,8,4,3,4
14.505,8,25,7,7,7,5,6,6
14.51,1,3,11,0,1,1,1,1
14.515,2,18,3,1,3,2,1,2
14.52,0,10,15,1,4,0,0,0
14.525,1,2,36,7,3,1,2,1
14.53,1,2,4,2,3,3,2,1
14.535,1,2,32,6,1,0,1,1
14.54,3,6,4,1,1,0,1,1
14.545,13,20,48,12,6,5,5,6
14.55,1,17,2,4,3,1,0,1
14.555,4,11,3,3,3,0,1,0
14.56,1,1,11,1,0,1,1,0
14.565,6,4,28,2,1,0,2,2
14.57,8,50,16,4,2,2,5,5
14.575,2,10,17,5,3,4,1,2
14.58,0,1,2,3,3,4,4,2
14.585,0,8,10,4,3,0,0,1
14.59,1,21,4,3,1,1,3,3
14.595,4,13,3,4,1,1,2,1
14.6,5,22,9,2,0,0,0,3
14.605,1,7,11,8,5,2,2,0
14.61,2,51,23,5,4,1,3,6
14.615,1,52,25,2,0,1,4,4
14.62,5,9,36,6,4,4,3,5
14.625,13,13,16,5,2,1,2,2
14.63,1,6,8,3,0,1,2,0
14.635,1,14,3,1,1,3,2,1
14.64,0,4,9,3,3,1,4,1
14.645,8,10,8,1,1,0,0,6
14.65,4,4,7,1,1,0,0,12
14.655,2,8,12,1,0,0,1,3
14.66,6,3,3,7,3,3,1,2
14.665,6,9,1,4,0,2,2,1
14.67,7,9,5,1,2,2,1,0
14.675,1,3,4,1,1,2,1,5
14.68,2,23,6,6,3,3,2,1
14.685,2,32,9,0,0,1,0,1
14.69,2,6,3,1,2,2,1,0
14.695,0,3,9,3,3,0,1,2
14.7,4,17,4,3,2,1,0,5
14.705,0,3,1,1,0,0,3,3
14.71,2,4,1,1,0,1,0,2
14.715,2,6,1,2,1,3,3,2
14.72,3,18,6,1,2,3,3,2
14.725,11,14,1,3,5,2,0,1
14.73,0,6,0,1,0,2,0,1
14.735,1,12,3,1,0,2,1,4
14.74,1,7,8,1,1,5,3,4
14.745,2,7,6,1,2,3,0,0
14.75,2,7,5,0,2,1,1,1
14.755,0,1,3,2,1,1,1,0
14.76,4,0,3,1,2,0,1,2
14.765,6,0,4,2,3,0,0,0
14.77,1,3,1,1,1,1,1,1
14.775,6,9,4,6,4,5,2,4
14.78,4,4,1,0,0,1,2,1
14.785,3,5,1,0,1,1,0,2
14.79,3,5,2,1,1,0,1,2
14.795,2,5,5,1,1,2,2,1
14.8,8,18,1,0,1,1,2,1
14.805,3,3,5,4,4,4,4,5
14.81,3,5,0,0,0,1,3,0
14.815,8,3,2,1,0,1,1,2
14.82,8,5,3,0,0,2,1,2
14.825,1,4,1,0,2,0,2,1
14.83,12,26,3,1,1,3,3,6
14.835,13,1,1,0,3,2,1,8
14.84,5,5,3,2,2,2,2,8
14.845,32,2,2,0,1,0,1,12
14.85,4,28,2,3,3,0,3,2
14.855,3,11,5,1,2,4,3,7
14.86,8,10,1,1,0,0,2,9
14.865,17,2,3,2,4,4,4,8
14.87,5,1,2,2,3,0,0,0
14.875,6,1,2,1,3,2,4,3
14.88,0,12,0,3,1,1,1,6
14.885,5,5,1,3,3,5,2,4
14.89,6,1,0,0,2,0,1,4
14.895,2,0,2,0,2,1,3,4
14.9,2,19,5,0,0,0,9,4
14.905,15,10,4,3,6,7,11,2
14.91,1,2,3,1,0,2,4,2
14.915,22,28,6,0,6,3,4,5
14.92,6,4,0,2,0,3,7,7
14.925,12,7,4,4,1,0,5,4
14.93,8,2,1,3,4,0,21,10
14.935,5,6,2,1,2,1,13,4
14.94,46,18,7,2,5,14,32,23
14.945,9,33,1,0,2,1,9,28
14.95,16,19,0,0,0,1,8,22
14.955,1,6,1,1,0,3,24,8
14.96,23,23,3,4,3,12,33,23
14.965,13,13,1,0,0,4,44,14
14.97,2,2,2,3,3,2,19,38
14.975,1,24,1,5,10,5,1,1
14.98,24,26,1,1,2,6,21,2
14.985,9,15,0,2,1,4,8,21
14.99,13,6,3,4,4,12,18,47
14.995,9,6,7,1,1,4,1,4
15,15,4,1,8,4,4,14,13
15.005,11,16,1,7,7,11,5,49
15.01,2,14,7,3,0,1,33,19
15.015,39,21,5,3,3,5,67,19
15.02,6,11,36,3,2,4,0,29
15.025,16,2,3,11,0,11,27,100
15.03,7,14,2,1,11,23,7,69
15.035,6,11,7,4,7,17,22,14
15.04,10,14,12,2,14,5,62,31
15.045,4,10,5,2,5,22,44,6
15.05,6,17,4,2,23,3,30,53
15.055,2,0,1,1,5,27,78,49
15.06,3,5,5,11,6,12,9,5
15.065,2,4,8,4,12,26,30,48
15.07,6,3,1,2,0,22,37,110
15.075,14,3,13,2,10,38,86,82
15.08,32,63,21,8,21,37,68,66
15.085,63,10,2,1,17,26,36,57
15.09,14,32,12,2,4,5,61,13
15.095,5,35,10,2,12,22,7,75
15.1,12,11,2,1,0,12,39,64
15.105,21,43,1,6,4,18,7,6
15.11,10,16,16,4,2,7,29,89
15.115,27,17,6,9,1,11,61,6
15.12,47,7,8,5,8,5,0,35
15.125,2,15,15,7,3,4,5,61
15.13,9,21,80,10,1,1,0,51
15.135,15,9,1,4,5,2,10,81
15.14,17,11,18,17,16,5,14,54
15.145,8,10,13,7,0,9,3,13
15.15,16,25,41,8,2,8,7,73
15.155,13,42,20,11,12,9,6,70
15.16,11,46,7,3,2,20,54,90
15.165,21,14,10,5,1,16,14,25
15.17,1,14,6,0,2,5,41,14
15.175,8,27,1,9,12,1,88,12
15.18,11,18,4,3,20,26,11,31
15.185,16,21,15,5,3,2,28,81
15.19,23,9,7,0,1,1,8,30
15.195,6,52,7,8,4,8,108,60
15.2,28,7,0,0,18,25,43,34
15.205,42,45,20,2,2,6,15,4
15.21,13,41,23,5,9,9,17,2
15.215,9,22,11,3,10,10,83,121
15.22,18,41,7,3,14,10,8,77
15.225,1,7,1,1,5,3,10,69
15.23,10,32,1,4,17,3,13,3
15.235,22,14,0,4,1,7,9,43
15.24,18,24,4,3,5,5,6,2
15.245,14,49,0,8,3,6,8,51
15.25,35,41,5,3,4,9,17,22
15.255,9,9,1,3,6,5,3,4
15.26,9,8,23,6,3,5,12,3
15.265,16,13,36,8,6,4,9,43
15.27,2,6,17,5,1,2,12,16
15.275,15,42,14,1,2,2,10,6
15.28,12,1,1,0,3,4,9,0
15.285,11,1,19,4,4,6,7,19
15.29,5,13,2,1,2,11,20,2
15.295,2,13,9,0,3,13,32,9
15.3,4,8,0,2,3,3,4,11
15.305,8,29,2,1,0,8,5,16
15.31,6,1,1,2,0,4,20,14
15.315,2,9,1,1,2,7,2,3
15.32,4,16,7,4,2,8,4,48
15.325,12,12,5,3,1,3,8,16
15.33,2,7,2,1,1,2,7,2
15.335,3,47,4,7,7,12,18,4
15.34,1,16,7,2,1,3,6,25
15.345,12,46,17,4,1,3,2,23
15.35,2,40,2,0,0,7,15,19
15.355,1,18,9,6,4,8,3,6
15.36,15,26,14,9,3,6,0,0
15.365,15,27,10,1,0,4,0,4
15.37,6,1,8,17,4,5,1,5
15.375,7,11,2,2,3,4,1,2
15.38,0,25,6,2,2,3,4,7
15.385,4,10,18,3,0,0,7,5
15.39,3,9,1,5,1,5,1,1
15.395,0,6,17,4,2,3,11,1
15.4,9,48,30,10,5,11,37,11
15.405,1,29,5,1,1,1,14,2
15.41,6,64,5,2,2,6,8,12
15.415,12,18,14,1,3,0,9,7
15.42,7,56,7,7,3,4,7,2
15.425,4,1,2,3,3,1,0,1
15.43,8,61,13,9,2,0,9,10
15.435,4,4,23,10,8,3,15,3
15.44,3,30,41,8,0,11,19,4
15.445,15,89,13,10,3,14,33,7
15.45,3,40,8,7,2,9,29,8
15.455,4,105,13,4,2,5,7,9
15.46,13,4,35,7,1,3,6,6
15.465,15,52,16,0,1,0,17,4
15.47,0,18,25,1,4,7,7,2
15.475,4,29,26,14,7,3,6,0
15.48,2,21,71,21,9,11,8,3
15.485,13,11,12,9,8,1,4,3
15.49,1,22,11,1,3,3,9,2
15.495,2,48,26,15,2,5,7,1
15.5,1,10,3,10,3,6,3,0
15.505,7,80,5,6,8,3,14,4
15.51,0,68,9,1,7,1,1,0
15.515,7,12,27,11,0,4,8,1
15.52,29,102,43,12,2,3,13,13
15.525,16,22,16,1,4,4,6,6
15.53,22,87,87,16,3,6,16,15
15.535,0,7,5,1,0,2,1,3
15.54,1,9,11,6,1,9,17,2
15.545,16,52,27,12,3,12,28,4
15.55,10,32,26,7,1,2,37,2
15.555,3,21,1,1,5,7,25,5
15.56,17,14,80,16,4,1,9,6
15.565,2,28,49,7,5,3,6,0
15.57,6,13,57,34,12,7,3,6
15.575,13,22,16,4,2,3,11,5
15.58,8,1,37,12,5,2,1,0
15.585,2,30,47,8,3,4,3,0
15.59,1,17,27,2,4,1,4,5
15.595,6,3,6,3,9,6,4,3
15.6,8,9,5,2,1,5,6,5
15.605,5,20,13,6,2,6,10,1
15.61,2,21,6,2,0,2,9,1
15.615,2,21,14,3,3,3,2,2
15.62,0,13,19,4,0,0,0,0
15.625,6,30,59,13,3,7,3,4
15.63,6,22,46,15,1,0,5,2
15.635,1,2,16,6,0,3,4,1
15.64,16,63,11,10,4,8,12,12
15.645,7,16,6,4,1,3,3,6
15.65,8,1,19,4,2,0,7,2
15.655,10,9,0,2,2,2,7,3
15.66,1,2,7,4,0,1,2,1
15.665,8,10,1,4,3,0,12,4
15.67,3,2,7,2,1,1,15,1
15.675,0,6,21,5,3,5,5,2
15.68,3,33,10,5,5,4,5,2
15.685,8,7,23,2,0,2,1,3
15.69,2,18,7,3,4,4,6,1
15.695,4,34,1,1,2,2,3,1
15.7,19,39,9,6,4,1,6,7
15.705,5,8,3,4,0,1,2,2
15.71,16,37,3,2,1,0,2,5
15.715,1,5,1,2,3,4,1,2
15.72,11,19,14,1,2,1,5,3
15.725,1,9,7,1,3,1,4,0
15.73,4,12,8,0,1,4,1,0
15.735,0,5,0,1,0,1,1,1
15.74,4,2,21,5,1,1,1,2
15.745,6,41,6,2,2,1,0,2
15.75,1,12,1,1,1,2,1,1
15.755,3,20,0,2,3,2,3,1
15.76,5,7,3,2,0,4,1,0
15.765,16,42,21,1,0,1,5,7
15.77,2,6,2,1,2,2,4,0
15.775,2,3,7,3,2,0,3,2
15.78,6,12,1,2,2,4,3,1
15.785,4,31,4,1,0,3,1,1
15.79,1,27,3,1,2,3,3,2
15.795,1,7,1,4,1,2,2,0
15.8,17,65,9,5,1,1,4,7
15.805,2,5,7,1,2,0,0,2
15.81,3,1,6,4,4,6,7,1
15.815,6,13,24,9,1,2,1,1
15.82,2,3,1,1,2,1,1,2
15.825,12,40,4,2,2,4,2,5
15.83,11,23,41,3,2,1,1,2
15.835,1,10,17,2,2,3,2,1
15.84,4,1,35,4,1,3,3,4
15.845,9,17,6,0,1,0,2,3
15.85,6,5,2,2,1,0,0,1
15.855,8,8,11,1,1,0,0,3
15.86,3,11,1,2,2,2,1,1
15.865,5,31,13,2,1,1,1,5
15.87,0,6,5,4,1,5,1,1
15.875,6,8,4,0,2,1,1,0
15.88,0,15,1,4,2,2,2,0
15.885,2,5,1,1,1,1,0,4
15.89,6,10,7,1,0,0,1,2
15.895,3,3,0,2,2,1,1,1
15.9,0,6,3,2,0,1,2,3
15.905,2,1,2,2,2,2,0,1
15.91,2,8,5,0,1,2,1,2
15.915,13,60,13,1,3,3,6,9
15.92,12,30,14,4,3,2,3,6
15.925,0,2,0,1,0,0,2,1
15.93,2,14,5,1,1,0,1,2
15.935,1,27,5,2,1,4,2,3
15.94,7,10,1,2,4,4,3,2
15.945,3,5,4,3,3,1,0,0
15.95,1,17,0,0,1,1,1,2
15.955,9,26,6,1,0,2,1,4
15.96,2,30,1,0,0,0,1,3
15.965,3,20,2,3,4,1,1,2
15.97,14,20,4,2,0,1,2,4
15.975,11,7,0,2,3,1,1,2
15.98,7,24,4,2,1,1,4,3
15.985,4,39,5,1,0,1,1,0
15.99,2,0,4,1,1,1,0,2
15.995,1,9,3,1,1,1,0,0
16,0,7,3,2,2,1,2,3
16.005,3,12,5,0,3,0,2,1
16.01,1,11,5,2,2,1,4,8
16.015,3,24,3,4,2,3,10,28
16.02,3,7,3,0,1,0,2,5
16.025,2,2,1,1,0,0,0,1
16.03,0,3,3,1,1,3,2,2
16.035,6,13,5,2,2,1,1,8
16.04,5,2,1,1,3,1,1,0
16.045,0,13,3,2,1,3,4,4
16.05,3,9,0,1,0,3,3,3
16.055,1,0,0,1,2,0,1,4
16.06,2,3,1,2,1,2,1,4
16.065,5,19,4,1,0,1,1,2
16.07,1,2,2,3,4,3,1,1
16.075,1,8,2,3,3,2,1,3
16.08,5,8,1,0,0,3,0,2
16.085,1,8,3,2,0,1,1,1
16.09,1,4,0,1,1,3,3,3
16.095,0,7,0,1,0,0,2,2
16.1,2,7,1,1,0,2,0,1
16.105,2,5,0,3,2,3,1,0
16.11,2,22,2,0,1,3,3,0
16.115,6,15,0,1,0,2,1,3
16.12,9,22,1,2,2,4,1,1
16.125,4,2,0,1,2,2,3,3
16.13,3,1,3,3,3,2,1,3
16.135,8,4,1,1,1,2,1,0
16.14,9,3,4,4,2,3,1,2
16.145,2,3,1,2,0,1,1,0
16.15,0,9,2,2,4,3,2,1
16.155,1,10,1,1,1,2,8,20
16.16,6,16,6,0,2,9,8,7
16.165,7,8,0,1,1,2,1,6
16.17,5,18,1,0,2,4,18,1
16.175,6,4,2,4,6,6,12,12
16.18,3,1,1,1,1,1,10,34
16.185,11,9,2,1,0,1,19,1
16.19,3,9,4,0,4,16,37,36
16.195,15,9,3,4,1,8,9,4
16.2,13,6,3,0,2,3,9,11
16.205,0,29,6,4,3,3,11,2
16.21,1,36,6,2,0,5,19,15
16.215,12,13,6,2,1,3,29,4
16.22,15,17,3,4,5,7,9,1
16.225,4,2,3,4,5,7,12,1
16.23,32,35,19,5,5,3,14,7
16.235,28,26,6,1,7,14,7,20
16.24,4,1,1,0,0,22,25,14
16.245,21,6,3,9,8,11,67,41
16.25,10,1,1,2,2,1,67,31
16.255,5,6,0,3,5,14,42,53
16.26,26,15,7,2,3,5,29,11
16.265,13,26,6,1,0,6,4,6
16.27,6,2,1,3,3,28,31,1
16.275,36,41,9,12,8,2,36,3
16.28,1,13,6,5,11,11,5,4
16.285,7,4,3,2,0,2,88,27
16.29,7,6,2,0,7,13,2,22
16.295,1,11,4,4,8,1,54,23
16.3,14,21,10,11,5,1,47,31
16.305,7,2,9,6,6,26,94,0
16.31,10,24,12,3,4,19,73,17
16.315,20,26,14,4,2,24,97,15
16.32,13,6,5,16,20,1,83,21
16.325,10,7,2,13,14,11,1,67
16.33,20,79,13,0,15,29,53,22
16.335,26,13,2,3,7,48,98,79
16.34,5,57,13,10,10,13,118,115
16.345,33,4,5,6,6,11,72,63
16.35,21,21,2,6,5,23,22,72
16.355,44,18,1,6,5,22,52,91
16.36,2,11,6,3,4,26,68,127
16.365,53,63,13,2,3,50,127,9
16.37,59,7,3,4,6,24,54,21
16.375,14,9,7,12,4,22,85,38
16.38,15,31,21,1,11,52,45,97
16.385,7,6,1,1,8,37,49,60
16.39,12,16,5,9,5,5,63,27
16.395,1,12,2,1,13,8,94,41
16.4,3,9,2,1,3,12,112,127
16.405,6,6,33,12,9,2,23,35
16.41,32,21,18,2,8,15,41,3
16.415,10,14,17,0,1,3,17,72
16.42,7,10,22,2,0,12,31,77
16.425,30,40,3,2,4,1,33,82
16.43,7,6,14,1,1,16,33,75
16.435,9,0,1,4,1,4,20,48
16.44,35,64,17,3,9,56,94,80
16.445,2,9,20,7,6,28,40,17
16.45,19,7,3,1,3,9,77,29
16.455,7,9,12,13,16,44,11,46
16.46,1,36,6,1,5,17,56,73
16.465,4,22,7,9,5,3,12,20
16.47,8,13,4,2,4,25,6,88
16.475,30,30,13,1,9,4,47,48
16.48,24,7,2,6,12,56,114,103
16.485,7,25,8,5,6,19,12,68
16.49,18,10,1,4,6,20,1,80
16.495,7,12,4,4,11,34,43,47
16.5,23,19,9,4,1,19,10,55
16.505,25,75,11,8,12,6,15,79
16.51,10,1,6,0,5,1,2,61
16.515,8,22,10,3,5,15,24,22
16.52,9,21,11,1,1,4,9,57
16.525,7,17,0,1,3,7,7,3
16.53,6,42,6,1,1,6,14,29
16.535,13,14,7,1,1,6,11,5
16.54,6,31,9,2,2,3,9,19
16.545,8,28,5,4,5,17,13,17
16.55,20,36,7,2,4,3,13,1
16.555,7,9,2,3,4,5,19,0
16.56,4,3,1,4,10,9,5,31
16.565,4,5,2,2,2,0,11,44
16.57,2,12,5,1,6,7,20,18
16.575,2,23,5,1,0,0,17,20
16.58,7,3,5,5,5,27,49,21
16.585,5,4,1,1,5,1,11,20
16.59,3,4,1,2,1,7,18,6
16.595,1,2,2,3,5,5,21,3
16.6,8,9,5,3,1,6,6,20
16.605,1,2,2,0,0,2,1,20
16.61,6,20,2,0,2,4,5,7
16.615,6,4,0,0,1,7,7,6
16.62,6,11,23,2,1,1,2,8
16.625,0,7,13,1,2,6,4,7
16.63,8,27,63,9,4,4,2,14
16.635,3,8,11,2,0,3,6,2
16.64,0,9,10,1,1,8,11,5
16.645,11,21,6,2,0,3,27,3
16.65,2,10,25,2,3,5,19,4
16.655,6,0,11,1,0,6,13,3
16.66,0,24,1,6,4,2,8,8
16.665,1,17,7,0,0,7,28,11
16.67,2,8,2,1,2,3,3,8
16.675,3,3,1,0,1,3,6,7
16.68,8,24,2,2,2,11,22,2
16.685,2,10,13,5,4,6,8,4
16.69,1,3,1,1,0,3,12,1
16.695,1,8,9,1,1,1,11,3
16.7,3,4,18,3,3,0,2,1
16.705,2,6,6,0,4,3,4,2
16.71,0,10,7,0,1,1,1,3
16.715,12,13,3,3,1,3,2,2
16.72,10,0,11,0,1,3,4,7
16.725,3,0,10,1,2,1,6,1
16.73,0,7,1,1,1,0,1,3
16.735,1,17,12,5,1,2,1,1
16.74,3,4,20,3,3,4,3,1
16.745,1,11,12,2,0,3,10,2
16.75,4,8,8,1,1,3,6,0
16.755,3,4,1,1,0,1,5,0
16.76,0,1,3,0,1,3,5,0
16.765,3,16,5,4,2,3,4,0
16.77,2,1,4,2,1,0,3,3
16.775,1,11,16,4,1,3,2,0
16.78,2,9,3,0,0,2,2,2
16.785,4,9,12,2,3,1,2,0
16.79,2,7,17,1,2,1,3,1
16.795,5,8,8,9,4,2,2,3
16.8,4,7,2,1,1,2,2,4
16.805,0,4,3,0,0,0,1,1
16.81,1,7,19,4,2,1,1,2
16.815,4,1,7,3,1,2,1,1
16.82,3,0,9,2,1,1,2,1
16.825,1,1,3,4,2,2,2,0
16.83,3,1,2,3,1,1,1,1
16.835,1,4,5,1,1,1,1,3
16.84,3,3,2,2,0,2,1,2
16.845,1,12,4,0,0,1,1,1
16.85,3,20,28,5,3,1,0,3
16.855,1,2,1,3,2,3,1,2
16.86,2,5,7,3,4,2,0,1
16.865,2,2,7,2,1,1,0,1
16.87,1,4,1,1,1,1,1,1
16.875,2,1,2,1,3,0,0,2
16.88,5,3,5,4,2,6,4,4
16.885,3,2,8,3,1,1,2,4
16.89,1,3,3,2,0,1,3,0
16.895,2,2,0,1,0,2,2,1
16.9,2,1,1,1,1,1,1,1
16.905,4,22,12,4,2,3,4,4
16.91,2,4,4,1,2,2,2,1
16.915,0,1,0,2,1,1,2,1
16.92,3,2,3,2,0,2,1,1
16.925,3,10,1,2,2,3,0,1
16.93,0,0,1,2,2,3,1,2
16.935,7,10,2,2,0,2,1,2
16.94,3,8,3,2,2,3,2,4
16.945,2,3,2,0,1,1,1,1
16.95,0,1,2,1,0,2,1,1
16.955,0,2,3,0,1,2,1,0
16.96,0,8,1,2,4,1,2,1
16.965,2,0,3,0,1,1,0,1
16.97,2,1,1,0,1,1,2,2
16.975,9,10,2,0,1,2,2,2
16.98,2,6,0,1,2,4,1,2
16.985,4,19,7,0,0,3,2,2
16.99,0,2,2,0,0,1,2,0
16.995,3,8,1,1,0,1,2,3
17,1,1,2,1,1,1,0,0
17.005,1,10,1,0,2,2,2,0
17.01,2,14,1,0,0,1,1,3
17.015,1,7,4,2,2,4,1,0
17.02,1,3,0,2,0,0,1,1
17.025,3,11,5,2,2,1,4,4
17.03,1,1,3,2,2,2,3,1
17.035,1,22,1,0,2,1,2,3
17.04,3,11,1,3,2,1,1,1
17.045,2,0,2,0,1,1,1,0
17.05,4,2,3,2,0,0,0,1
17.055,0,10,3,1,1,0,2,2
17.06,0,8,4,2,2,2,3,2
17.065,1,0,0,1,1,1,0,1
17.07,6,14,2,1,1,2,1,1
17.075,1,0,0,1,1,1,3,1
17.08,1,1,3,2,2,2,1,1
17.085,1,7,1,0,0,1,0,1
17.09,0,3,4,2,1,2,3,1
17.095,0,10,16,1,1,1,1,2
17.1,2,8,24,6,2,1,4,2
17.105,6,19,18,4,3,4,3,4
17.11,5,3,2,2,2,3,1,1
17.115,2,3,3,1,0,2,0,1
17.12,2,6,24,4,1,0,0,1
17.125,1,2,1,3,1,1,1,0
17.13,2,5,7,3,2,1,2,1
17.135,2,8,2,0,2,2,1,3
17.14,1,7,3,0,1,2,2,2
17.145,2,3,1,0,2,0,1,1
17.15,2,2,4,0,2,2,2,3
17.155,2,2,9,5,1,2,2,2
17.16,7,3,4,2,1,2,2,2
17.165,5,8,6,0,2,1,3,0
17.17,2,2,5,0,1,1,0,0
17.175,4,2,8,1,1,1,1,1
17.18,4,5,0,1,0,1,0,0
17.185,2,3,4,2,0,2,3,1
17.19,0,5,6,2,0,0,1,2
17.195,0,4,5,1,1,2,1,2
17.2,0,7,1,1,3,1,1,0
17.205,1,2,1,0,1,1,1,0
17.21,0,1,3,3,4,2,2,0
17.215,1,1,3,0,1,4,1,1
17.22,0,1,7,2,0,1,1,0
17.225,4,14,34,7,1,0,0,0
17.23,0,10,20,4,1,2,0,1
17.235,14,27,74,20,7,5,2,4
17.24,3,3,9,1,4,1,1,3
17.245,0,0,2,1,0,3,4,2
17.25,3,12,30,9,3,1,0,1
17.255,5,11,14,3,1,1,3,6
17.26,0,1,13,4,1,3,1,3
17.265,2,4,5,2,2,2,1,1
17.27,2,4,11,2,1,1,2,3
17.275,3,5,15,4,0,0,2,5
17.28,1,2,12,2,4,2,2,1
17.285,2,7,48,5,1,0,1,2
17.29,9,30,52,20,3,5,4,5
17.295,0,12,15,4,1,2,1,1
17.3,1,6,22,5,3,0,1,1
17.305,2,8,21,4,0,1,1,2
17.31,0,4,3,2,1,1,1,1
17.315,0,1,13,3,0,1,1,1
17.32,8,16,33,10,2,2,3,4
17.325,1,4,0,4,1,0,0,0
17.33,0,12,31,8,0,1,1,0
17.335,8,23,49,12,1,0,2,4
17.34,5,15,56,7,4,2,7,5
17.345,13,45,52,23,3,2,7,9
17.35,4,5,27,1,4,2,2,2
17.355,1,13,33,10,2,2,2,0
17.36,2,7,0,4,2,1,2,1
17.365,6,13,40,12,0,1,0,3
17.37,1,3,2,1,1,2,1,1
17.375,7,13,29,13,2,2,2,2
17.38,5,7,10,2,3,1,2,3
17.385,0,14,10,2,3,4,2,3
17.39,3,7,10,2,1,1,2,0
17.395,2,1,8,1,1,1,0,1
17.4,1,0,8,2,0,1,0,0
17.405,1,9,11,4,2,2,0,1
17.41,1,4,18,2,3,0,0,1
17.415,11,16,88,18,6,4,5,5
17.42,3,8,4,2,1,0,1,3
17.425,2,9,9,2,1,1,0,2
17.43,3,5,43,1,1,0,0,1
17.435,4,7,41,6,0,4,4,4
17.44,1,11,3,3,2,3,2,2
17.445,2,4,2,1,1,2,2,0
17.45,1,2,7,1,1,1,0,1
17.455,2,4,27,2,0,1,2,3
17.46,1,0,1,4,1,3,2,1
17.465,1,1,4,1,1,1,1,2
17.47,1,6,16,2,3,3,1,1
17.475,2,7,9,3,4,4,1,3
17.48,1,5,2,3,1,1,1,0
17.485,1,3,3,3,1,1,1,0
17.49,1,4,12,3,0,2,0,1
17.495,4,6,8,3,2,1,1,2
17.5,1,5,11,1,1,2,4,2
17.505,1,1,5,6,3,4,0,7
17.51,9,12,16,5,3,3,11,27
17.515,1,1,10,1,1,0,5,1
17.52,2,5,0,1,2,3,0,18
17.525,6,5,1,4,3,1,1,25
17.53,3,13,15,1,1,2,1,7
17.535,8,16,5,1,4,2,4,0
17.54,9,42,4,4,2,2,0,1
17.545,1,2,7,3,1,4,1,5
17.55,1,1,1,3,2,3,1,3
17.555,0,2,2,2,1,2,1,3
17.56,2,14,3,0,1,0,1,3
17.565,2,4,4,1,1,1,2,1
17.57,0,7,1,1,2,1,2,2
17.575,0,3,1,0,3,2,2,3
17.58,2,5,1,2,1,0,0,4
17.585,1,1,6,5,0,7,13,18
17.59,3,7,4,1,0,6,4,8
17.595,12,3,2,0,1,9,13,39
17.6,1,1,4,2,1,7,5,64
17.605,5,11,2,2,1,7,13,71
17.61,11,9,2,2,0,5,6,13
17.615,4,10,5,1,4,6,6,14
17.62,13,4,1,1,2,2,2,3
17.625,17,7,2,7,7,0,9,8
17.63,21,16,10,1,2,11,16,49
17.635,7,11,13,6,3,2,15,46
17.64,1,10,6,1,2,1,43,4
17.645,0,10,8,3,6,14,33,53
17.65,25,11,7,4,2,0,40,92
17.655,5,11,14,2,6,22,64,127
17.66,23,5,6,1,1,23,48,81
17.665,17,29,14,1,4,19,18,54
17.67,53,14,15,14,20,31,0,49
17.675,32,16,8,8,11,8,8,90
17.68,34,23,4,2,0,17,45,20
17.685,5,11,6,9,9,15,16,76
17.69,1,11,6,9,12,1,6,83
17.695,31,18,17,21,19,5,41,34
17.7,38,37,7,13,8,31,16,32
17.705,12,26,6,0,2,4,41,72
17.71,50,20,1,7,13,16,44,125
17.715,19,8,8,4,6,3,26,61
17.72,28,18,9,0,10,31,8,127
17.725,39,49,22,7,10,22,28,97
17.73,7,21,4,5,9,8,66,15
17.735,17,22,10,5,11,15,20,61
17.74,23,28,0,2,5,4,24,47
17.745,1,6,10,3,1,8,22,127
17.75,49,18,10,4,1,6,28,30
17.755,30,17,3,5,8,13,26,33
17.76,3,1,11,5,5,8,38,43
17.765,3,8,5,5,7,44,10,97
17.77,51,6,6,1,3,21,27,45
17.775,21,6,5,1,2,16,49,81
17.78,14,5,10,6,14,15,88,74
17.785,9,11,22,1,8,12,20,69
17.79,41,3,12,2,5,8,16,105
17.795,9,5,11,4,2,17,12,43
17.8,3,14,12,3,11,6,60,39
17.805,18,12,3,0,6,8,74,35
17.81,16,19,64,6,1,6,8,33
17.815,56,11,5,3,1,19,23,91
17.82,24,12,17,7,7,6,40,55
17.825,1,13,22,0,11,19,16,47
17.83,1,16,21,5,5,4,2,80
17.835,11,9,1,7,7,15,10,108
17.84,22,7,5,2,1,4,10,37
17.845,3,21,2,3,4,11,66,43
17.85,49,2,10,1,3,34,11,37
17.855,26,28,6,8,16,39,23,6
17.86,1,41,15,7,11,24,5,117
17.865,45,33,19,6,8,10,42,99
17.87,10,7,11,4,5,21,70,86
17.875,6,7,15,7,5,19,64,108
17.88,19,13,8,3,3,9,42,117
17.885,9,17,15,4,4,20,13,127
17.89,3,14,14,4,5,38,37,92
17.895,10,10,3,0,1,19,37,11
17.9,21,2,4,6,2,7,12,58
17.905,22,9,21,8,6,16,24,66
17.91,13,6,10,1,1,36,42,128
17.915,21,22,13,0,1,5,12,33
17.92,12,33,1,2,3,2,11,95
17.925,1,28,6,0,4,9,7,8
17.93,7,17,3,8,7,4,13,8
17.935,13,17,4,1,5,11,28,20
17.94,2,10,2,1,2,1,2,32
17.945,2,6,2,0,6,8,3,29
17.95,7,26,10,1,2,3,9,11
17.955,7,3,4,3,4,6,17,4
17.96,6,10,6,1,1,3,11,8
17.965,11,1,5,2,1,4,8,32
17.97,7,15,5,1,1,0,12,4
17.975,2,5,0,4,5,15,33,22
17.98,4,3,9,6,4,1,7,17
17.985,3,9,4,2,1,11,24,21
17.99,1,1,9,4,3,5,15,33
17.995,4,4,0,0,1,4,16,24
18,10,9,2,0,1,4,6,16
18.005,5,3,3,0,3,8,6,32
18.01,5,6,4,1,3,4,1,17
18.015,14,9,7,4,3,5,10,8
18.02,1,11,4,0,1,0,12,6
18.025,7,12,11,3,4,3,1,9
18.03,2,4,20,6,1,0,0,7
18.035,5,4,2,3,2,3,7,13
18.04,4,17,44,15,5,0,1,4
18.045,12,23,50,12,6,2,5,11
18.05,1,14,32,7,0,2,4,10
18.055,1,2,53,11,3,2,6,15
18.06,4,27,18,6,1,1,0,20
18.065,10,12,34,19,2,5,6,11
18.07,3,18,18,9,6,3,3,10
18.075,7,25,32,1,0,2,1,8
18.08,7,19,52,13,2,1,1,10
18.085,3,2,26,9,3,1,1,5
18.09,1,5,17,2,4,1,1,10
18.095,3,8,12,2,1,0,7,4
18.1,6,17,102,13,3,4,5,1
18.105,6,5,48,4,5,4,6,11
18.11,1,0,4,2,0,2,2,2
18.115,7,7,7,3,3,3,3,4
18.12,6,21,62,11,3,4,4,4
18.125,7,3,33,3,1,1,2,5
18.13,8,12,17,11,4,5,2,6
18.135,9,6,6,5,5,2,6,8
18.14,4,15,36,6,0,1,0,1
18.145,4,12,25,1,2,1,1,2
18.15,8,12,19,8,4,1,4,6
18.155,2,9,37,4,2,3,1,5
18.16,1,4,1,7,3,4,3,1
18.165,11,25,60,13,4,2,3,2
18.17,4,21,22,1,2,1,1,1
18.175,6,17,22,9,3,3,4,2
18.18,3,5,51,2,3,0,1,1
18.185,7,18,40,15,3,3,2,2
18.19,10,49,90,31,11,10,4,9
18.195,7,2,19,4,4,4,4,4
18.2,5,0,2,2,1,0,2,2
18.205,1,9,36,7,0,0,1,2
18.21,12,21,42,15,6,5,4,7
18.215,4,21,30,5,3,2,2,1
18.22,5,22,40,10,3,3,2,3
18.225,3,2,18,2,2,1,4,4
18.23,4,8,14,1,2,1,0,0
18.235,2,10,41,4,1,5,0,2
18.24,5,16,4,2,0,0,2,2
18.245,7,34,16,3,1,1,3,4
18.25,0,8,17,6,2,2,4,2
18.255,1,4,10,5,2,3,2,1
18.26,0,22,17,4,1,1,4,1
18.265,0,13,1,4,0,0,1,0
18.27,5,11,23,7,4,2,0,1
18.275,2,1,5,3,1,1,0,0
18.28,9,17,12,3,5,1,4,3
18.285,4,5,26,7,0,1,0,0
18.29,0,0,35,1,0,1,1,2
18.295,10,14,15,7,5,6,5,6
18.3,2,6,7,3,1,1,0,1
18.305,1,16,27,2,1,3,1,1
18.31,1,3,13,2,2,2,0,0
18.315,7,16,40,10,6,8,2,1
18.32,11,29,3,3,1,1,3,3
18.325,6,1,38,4,4,4,4,2
18.33,1,5,19,3,0,2,2,1
18.335,2,11,16,1,2,1,1,2
18.34,6,17,1,3,5,3,1,3
18.345,4,37,16,7,2,3,3,1
18.35,3,2,1,2,2,5,2,2
18.355,0,39,7,3,5,4,4,5
18.36,26,82,15,6,2,5,4,8
18.365,3,14,9,2,1,1,2,1
18.37,5,8,10,4,2,3,4,7
18.375,0,0,38,1,2,1,3,2
18.38,14,40,17,9,4,3,2,6
18.385,13,1,12,1,3,2,3,6
18.39,3,13,12,2,0,2,1,2
18.395,3,4,5,0,0,3,1,1
18.4,2,16,10,3,1,4,1,3
18.405,2,4,26,1,0,0,1,2
18.41,2,10,16,7,3,3,3,3
18.415,8,9,15,16,7,5,3,4
18.42,10,25,19,6,0,1,2,6
18.425,3,2,2,0,1,2,2,4
18.43,3,6,30,7,2,1,0,4
18.435,4,12,15,2,2,2,0,0
18.44,4,5,7,2,0,3,2,1
18.445,0,3,14,0,1,2,3,0
18.45,4,9,6,6,4,2,5,6
18.455,4,21,12,0,1,0,1,4
18.46,8,29,6,4,1,4,3,3
18.465,3,16,63,13,5,4,4,4
18.47,3,10,0,6,3,5,4,5
18.475,2,7,14,3,2,1,0,2
18.48,4,4,3,5,1,1,1,1
18.485,18,22,6,2,0,0,3,6
18.49,1,6,4,0,2,1,1,0
18.495,5,13,46,8,1,2,0,2
18.5,2,15,60,15,6,5,3,3
18.505,8,16,38,6,3,4,5,5
18.51,6,18,37,6,2,2,1,3
18.515,4,11,5,4,0,4,5,2
18.52,4,1,19,4,1,1,0,3
18.525,1,3,10,0,1,1,1,0
18.53,3,13,8,3,1,3,1,1
18.535,5,4,12,4,1,1,1,1
18.54,4,16,9,4,0,1,1,4
18.545,3,5,4,8,4,1,1,0
18.55,1,3,2,1,4,1,1,2
18.555,3,39,9,3,1,2,5,4
18.56,3,23,8,5,3,2,1,1
18.565,5,5,27,8,1,0,1,1
18.57,1,9,2,4,0,0,2,2
18.575,3,3,18,5,2,2,2,2
18.58,2,7,5,0,0,3,0,1
18.585,7,5,10,2,1,2,1,3
18.59,13,9,8,9,4,2,2,4
18.595,3,15,17,7,0,1,2,1
18.6,11,15,27,13,6,4,5,6
18.605,3,12,23,2,2,1,2,1
18.61,13,18,3,4,2,3,1,3
18.615,3,8,15,1,1,1,2,0
18.62,0,0,5,4,2,2,3,1
18.625,2,10,23,6,1,2,3,3
18.63,5,2,11,0,1,0,1,2
18.635,0,11,2,3,1,1,1,0
18.64,1,5,5,2,1,1,0,0
18.645,7,19,42,9,4,5,4,6
18.65,3,1,3,1,1,1,1,2
18.655,2,18,7,1,1,1,1,2
18.66,4,9,1,0,0,0,0,1
18.665,3,10,31,10,3,4,2,2
18.67,1,21,32,7,4,3,2,3
18.675,11,13,14,5,2,2,2,2
18.68,3,9,39,5,0,3,2,1
18.685,1,5,18,4,3,1,1,2
18.69,3,13,50,13,5,6,2,3
18.695,1,2,19,2,1,3,3,2
18.7,1,3,1,2,2,2,0,1
18.705,2,12,9,3,2,3,0,2
18.71,4,5,5,1,2,1,1,2
18.715,1,2,3,2,0,1,1,2
18.72,4,1,4,2,1,1,1,1
18.725,3,13,11,5,4,6,3,5
18.73,1,2,3,0,1,2,4,1
18.735,2,0,7,2,1,0,0,1
18.74,0,3,4,4,3,3,1,1
18.745,4,7,10,5,2,3,3,1
18.75,6,9,4,1,0,1,0,1
18.755,1,6,5,2,4,3,1,2
18.76,7,2,2,2,1,1,1,0
18.765,2,4,4,5,2,2,2,4
18.77,2,1,5,1,1,1,2,3
18.775,0,1,2,0,1,1,0,0
18.78,1,2,3,1,1,1,0,1
18.785,0,1,5,1,3,3,1,1
18.79,1,1,4,1,0,1,3,0
18.795,3,4,6,4,3,4,1,4
18.8,3,5,5,4,2,5,4,2
18.805,2,4,2,3,5,8,4,3
18.81,2,0,0,1,1,1,1,1
18.815,2,1,1,1,1,0,3,1
18.82,3,4,4,3,3,5,1,1
18.825,4,4,4,6,5,6,5,3
18.83,3,1,1,1,2,2,2,3
18.835,2,2,1,3,5,3,1,1
18.84,0,2,3,3,1,5,1,1
18.845,0,1,4,0,1,2,1,1
18.85,1,1,0,4,4,0,9,8
18.855,1,1,3,5,4,9,23,2
18.86,1,0,0,1,3,3,14,7
18.865,8,2,6,0,1,5,11,0
18.87,1,0,2,1,2,6,2,4
18.875,4,9,24,5,3,0,5,0
18.88,2,6,0,3,1,2,3,0
18.885,0,2,1,0,1,4,4,0
18.89,5,6,1,4,2,6,0,4
18.895,1,3,3,1,2,2,11,5
18.9,0,0,6,2,0,5,2,6
18.905,5,5,3,2,3,1,1,13
18.91,1,2,4,0,1,0,9,7
18.915,0,3,2,2,1,2,5,6
18.92,2,4,1,0,0,1,3,10
18.925,5,0,3,3,3,3,5,11
18.93,8,2,3,2,3,0,3,1
18.935,3,0,2,1,3,0,1,2
18.94,1,2,5,0,1,2,1,6
18.945,2,1,2,1,0,1,11,33
18.95,0,2,3,2,0,2,3,20
18.955,1,9,7,1,1,6,4,5
18.96,3,1,0,0,0,1,8,8
18.965,18,2,1,0,3,1,9,25
18.97,18,6,5,4,1,7,8,9
18.975,13,10,3,2,2,2,8,12
18.98,23,15,7,1,1,10,39,78
18.985,27,26,20,4,1,15,10,106
18.99,3,5,6,0,1,2,10,22
18.995,14,6,4,1,3,14,1,20
19,6,30,3,3,1,12,2,19
19.005,11,4,9,1,4,2,27,50
19.01,18,11,44,13,7,3,9,52
19.015,5,5,4,7,1,3,4,100
19.02,0,2,11,9,4,4,16,38
19.025,9,5,20,3,3,23,73,48
19.03,1,7,31,5,3,3,1,47
19.035,16,17,21,7,6,13,52,42
19.04,18,2,3,2,0,11,16,7
19.045,23,25,19,8,5,3,10,22
19.05,27,5,24,2,1,16,6,56
19.055,4,18,8,2,2,0,94,82
19.06,19,4,1,8,8,15,58,12
19.065,14,9,8,4,1,2,37,22
19.07,10,7,23,5,4,28,95,1
19.075,31,24,15,8,9,5,20,48
19.08,17,15,26,12,7,8,27,57
19.085,32,15,10,1,3,36,105,106
19.09,10,9,3,3,4,9,27,128
19.095,24,47,2,5,11,10,17,36
19.1,31,3,6,1,0,18,82,41
19.105,20,19,20,8,8,3,26,77
19.11,36,25,11,9,12,0,6,26
19.115,31,6,23,16,8,1,3,10
19.12,26,5,6,6,5,21,83,81
19.125,47,13,9,13,15,62,128,95
19.13,14,4,17,4,8,25,87,5
19.135,1,6,13,2,4,1,4,95
19.14,19,28,10,8,10,30,29,50
19.145,25,6,7,0,5,26,60,92
19.15,8,20,37,10,4,4,21,95
19.155,5,24,24,7,3,30,65,62
19.16,20,2,3,8,7,38,13,61
19.165,45,9,6,5,6,1,17,43
19.17,41,8,7,0,2,5,42,9
19.175,48,2,5,1,2,4,26,63
19.18,2,6,9,3,1,2,29,100
19.185,9,5,11,1,3,1,40,28
19.19,30,9,7,0,1,19,15,19
19.195,0,23,10,2,2,3,11,14
19.2,18,5,0,3,3,12,50,28
19.205,9,34,8,5,4,18,38,37
19.21,5,10,13,0,3,19,12,90
19.215,13,8,6,2,4,9,42,60
19.22,26,45,8,5,8,33,38,88
19.225,68,38,33,10,11,5,11,39
19.23,9,9,20,10,7,3,44,47
19.235,45,43,9,2,2,17,3,128
19.24,10,35,7,0,3,18,7,108
19.245,25,3,2,1,4,19,54,81
19.25,19,8,8,3,5,2,3,28
19.255,3,24,10,4,6,2,16,31
19.26,3,17,9,6,5,13,16,24
19.265,19,16,1,0,2,4,38,47
19.27,7,4,1,0,2,1,15,44
19.275,5,4,1,3,1,5,27,58
19.28,15,13,9,2,1,6,12,36
19.285,4,0,4,0,1,1,9,18
19.29,3,13,5,4,3,5,11,32
19.295,8,21,2,5,6,4,12,45
19.3,17,12,19,4,2,6,6,57
19.305,1,20,8,2,1,10,14,6
19.31,0,4,1,0,5,3,21,31
19.315,7,0,1,1,1,3,7,23
19.32,9,23,10,1,1,8,12,7
19.325,3,10,5,0,0,3,17,4
19.33,3,6,7,6,3,4,9,26
19.335,2,10,24,1,4,1,5,20
19.34,2,13,18,5,2,3,19,13
19.345,2,7,2,1,0,4,0,29
19.35,2,3,8,1,2,1,1,30
19.355,2,2,23,3,0,6,6,14
19.36,6,21,52,5,0,5,0,10
19.365,7,22,94,14,4,3,10,17
19.37,4,2,9,1,2,1,2,17
19.375,4,0,14,0,1,0,0,14
19.38,18,51,69,13,7,5,12,14
19.385,5,28,82,11,5,1,5,4
19.39,5,5,7,0,1,3,8,8
19.395,5,2,13,1,0,2,5,11
19.4,5,15,27,7,3,4,2,5
19.405,4,16,5,0,4,3,5,4
19.41,3,8,17,1,1,4,1,0
19.415,3,28,0,7,0,0,4,1
19.42,3,13,48,11,5,2,2,6
19.425,3,9,7,0,2,1,1,5
19.43,3,28,58,15,3,2,1,3
19.435,4,9,19,4,0,3,5,5
19.44,12,45,71,35,11,8,12,8
19.445,5,35,77,13,5,2,4,1
19.45,2,8,6,4,1,2,1,7
19.455,13,26,104,19,5,5,5,5
19.46,9,31,70,19,7,5,2,6
19.465,3,2,6,2,1,2,0,1
19.47,1,5,3,0,1,0,0,3
19.475,2,21,27,5,0,0,0,5
19.48,2,0,16,3,2,1,4,1
19.485,3,1,24,6,2,0,1,1
19.49,5,5,6,6,2,2,3,2
19.495,11,30,49,13,9,7,2,3
19.5,4,4,33,5,0,3,1,5
19.505,3,8,5,0,1,0,1,3
19.51,6,21,38,6,1,0,1,0
19.515,4,7,22,3,2,2,0,2
19.52,0,7,15,2,1,4,5,2
19.525,1,40,7,0,2,0,0,1
19.53,1,6,70,11,5,2,3,2
19.535,3,1,38,1,3,0,1,1
19.54,7,9,11,12,0,1,0,3
19.545,4,1,1,2,1,1,0,0
19.55,2,8,9,3,1,2,2,3
19.555,10,21,43,23,7,5,5,4
19.56,5,5,10,1,3,5,5,4
19.565,3,15,5,2,1,1,1,2
19.57,7,24,38,7,3,2,1,5
19.575,10,38,44,13,4,3,2,4
19.58,6,13,11,0,1,0,2,2
19.585,5,1,7,7,1,1,2,1
19.59,3,10,6,9,2,2,2,3
19.595,16,43,90,27,10,8,6,9
19.6,0,10,38,5,0,1,1,1
19.605,1,0,6,0,0,2,0,0
19.61,7,29,24,8,5,2,1,2
19.615,3,8,26,7,2,1,1,0
19.62,1,3,16,3,1,0,1,0
19.625,4,21,24,9,6,3,2,3
19.63,4,9,1,2,2,1,3,4
19.635,2,2,11,5,2,1,1,0
19.64,11,21,6,5,2,3,3,3
19.645,4,17,26,11,5,2,0,3
19.65,10,19,14,11,10,7,7,6
19.655,4,24,53,12,2,2,1,3
19.66,1,8,8,2,2,0,3,1
19.665,6,17,24,10,4,4,3,4
19.67,0,20,39,6,1,4,3,3
19.675,6,6,30,5,2,1,0,2
19.68,6,4,18,2,2,3,2,0
19.685,3,23,7,2,0,0,1,3
19.69,2,2,0,2,0,2,3,3
19.695,3,5,5,1,1,1,1,9
19.7,1,4,22,3,2,1,2,4
19.705,0,9,4,5,4,6,4,3
19.71,1,4,13,2,1,0,2,4
19.715,1,2,5,3,2,1,2,2
19.72,1,6,10,3,0,1,1,2
19.725,3,16,12,2,1,1,3,4
19.73,2,3,3,7,4,4,1,3
19.735,0,5,7,2,1,1,0,3
19.74,3,2,1,3,0,2,1,2
19.745,1,7,4,0,0,1,1,4
19.75,11,22,5,4,2,1,2,4
19.755,4,11,16,4,3,6,3,4
19.76,9,33,1,2,2,2,2,1
19.765,3,2,8,1,3,3,3,3
19.77,2,2,7,1,1,1,1,4
19.775,0,8,11,2,1,1,1,0
19.78,1,11,7,0,2,2,0,2
19.785,2,3,4,0,1,3,4,1
19.79,3,16,14,3,1,1,0,0
19.795,7,17,47,15,2,2,5,5
19.8,1,12,11,3,1,2,2,3
19.805,0,3,0,0,2,1,1,0
19.81,2,6,15,3,0,0,2,2
19.815,9,25,27,4,0,1,2,4
19.82,1,7,8,1,1,0,2,2
19.825,2,2,13,2,1,0,0,1
19.83,2,1,0,0,2,1,2,2
19.835,5,10,1,1,2,1,1,2
19.84,0,2,0,0,1,2,2,1
19.845,3,8,3,2,1,3,2,0
19.85,4,0,14,4,1,2,0,1
19.855,8,5,5,0,1,0,1,1
19.86,0,6,1,1,0,1,0,3
19.865,2,18,8,4,2,2,5,4
19.87,1,12,9,4,5,2,2,1
19.875,3,6,17,6,1,2,3,4
19.88,0,5,9,3,2,2,1,1
19.885,5,13,60,10,4,2,2,2
19.89,3,6,24,3,1,1,1,2
19.895,2,7,7,3,0,1,1,3
19.9,3,6,11,1,1,2,1,1
19.905,5,12,15,2,1,0,1,0
19.91,0,3,5,0,1,0,0,1
19.915,1,3,1,3,2,2,1,2
19.92,1,10,18,3,1,3,2,0
19.925,3,4,7,1,2,0,3,1
19.93,6,1,3,1,1,1,2,2
19.935,2,4,0,1,0,1,2,1
19.94,3,23,7,1,0,3,2,4
19.945,1,7,4,0,3,2,2,1
19.95,0,2,7,1,1,2,4,1
19.955,1,3,4,2,2,2,2,1
19.96,1,4,4,3,2,0,0,2
19.965,4,4,7,1,1,1,1,3
19.97,4,2,7,1,1,2,2,0
19.975,2,4,1,1,0,1,0,4
19.98,0,7,7,1,1,3,1,0
19.985,2,3,6,0,1,3,0,2
19.99,3,3,5,1,1,1,2,1
19.995,2,2,3,0,0,3,2,1
20,2,23,2,2,1,2,1,2
20.005,1,29,4,3,0,0,0,1
20.01,1,7,1,0,2,0,2,4
20.015,2,2,1,1,0,2,1,1
20.02,3,3,1,1,4,2,2,1
20.025,2,13,4,1,1,1,1,1
20.03,3,1,0,0,2,2,2,2
20.035,1,4,0,0,2,1,1,2
20.04,7,12,3,1,1,0,0,0
20.045,0,8,3,0,1,1,1,2
20.05,1,1,5,1,1,1,2,0
20.055,0,2,0,0,0,1,1,0
20.06,1,6,4,1,1,2,0,0
20.065,1,3,0,0,1,2,1,1
20.07,2,6,1,2,2,2,1,0
20.075,3,1,5,2,4,3,2,4
20.08,1,4,1,1,1,2,2,0
20.085,1,5,0,1,1,1,1,1
20.09,1,0,2,1,1,0,1,0
20.095,1,0,2,0,1,0,0,2
20.1,1,3,3,2,1,1,2,8
20.105,3,6,2,4,2,4,8,19
20.11,8,3,1,2,1,0,1,0
20.115,14,9,1,2,2,0,5,2
20.12,1,2,4,1,0,3,14,14
20.125,2,3,1,1,2,4,8,24
20.13,2,6,0,1,1,2,4,42
20.135,3,5,3,3,1,3,1,0
20.14,1,26,5,1,0,3,1,9
20.145,9,12,3,2,3,2,0,4
20.15,2,2,4,2,1,5,15,3
20.155,3,12,0,0,3,7,51,49
20.16,16,4,5,1,2,5,14,82
20.165,10,19,10,1,0,3,7,15
20.17,7,9,9,3,3,7,15,14
20.175,5,2,1,1,1,2,2,1
20.18,2,8,1,4,2,18,21,33
20.185,10,7,7,7,8,22,14,17
20.19,21,1,3,1,2,10,24,51
20.195,15,5,4,1,3,10,16,18
20.2,3,7,9,5,2,2,5,15
20.205,9,12,5,1,2,9,9,20
20.21,13,13,0,4,1,6,14,63
20.215,2,9,3,2,2,3,31,30
20.22,13,6,22,4,3,1,6,0
20.225,3,6,3,1,2,11,7,72
20.23,0,11,4,1,3,10,2,13
20.235,6,12,4,0,0,12,33,27
20.24,2,6,3,0,2,5,7,0
20.245,10,10,7,4,9,23,3,58
20.25,16,12,12,2,0,0,55,58
20.255,14,18,9,7,9,4,23,26
20.26,15,7,0,6,9,13,14,5
20.265,15,3,4,3,4,1,65,36
20.27,28,9,0,1,1,15,60,49
20.275,7,8,1,1,7,33,7,29
20.28,30,9,1,3,5,26,15,74
20.285,20,1,6,5,3,18,9,97
20.29,6,3,2,1,1,6,96,69
20.295,16,3,5,4,8,25,1,66
20.3,52,28,11,7,11,24,61,103
20.305,22,7,5,1,0,12,26,109
20.31,26,7,4,2,2,28,56,25
20.315,33,1,5,6,10,23,45,112
20.32,28,15,2,0,2,21,84,128
20.325,7,3,9,3,2,5,63,118
20.33,51,12,43,15,11,20,67,63
20.335,66,1,2,7,6,28,75,30
20.34,3,13,12,1,1,10,70,43
20.345,3,21,7,1,7,26,30,4
20.35,16,39,5,8,12,2,15,93
20.355,30,30,6,1,2,12,23,88
20.36,2,7,6,5,7,6,15,84
20.365,19,1,5,2,6,58,55,68
20.37,21,2,4,3,2,10,97,46
20.375,39,22,10,2,1,19,62,95
20.38,28,2,36,1,7,9,52,54
20.385,18,14,32,1,2,31,7,82
20.39,25,8,9,8,5,10,17,34
20.395,4,12,2,3,4,22,53,91
20.4,9,9,3,1,2,2,12,8
20.405,13,31,15,7,9,18,44,37
20.41,24,21,20,3,1,6,45,60
20.415,2,4,15,9,9,4,2,21
20.42,9,15,5,2,2,14,23,18
20.425,6,21,7,1,3,7,14,28
20.43,9,19,3,1,1,12,35,45
20.435,36,4,8,5,0,13,87,16
20.44,1,4,8,3,8,22,26,70
20.445,6,13,17,10,14,1,8,38
20.45,1,11,4,10,13,2,62,124
20.455,9,15,5,5,6,10,48,90
20.46,8,26,6,6,5,2,46,26
20.465,27,31,1,4,1,9,54,92
20.47,7,10,6,6,6,12,4,107
20.475,3,11,9,1,4,0,15,2
20.48,16,11,29,2,1,8,2,50
20.485,1,14,14,5,5,0,0,56
20.49,9,5,13,2,2,1,17,12
20.495,16,40,5,2,5,10,18,11
20.5,14,5,7,7,1,1,3,19
20.505,10,5,8,0,2,9,12,47
20.51,4,5,5,4,5,1,4,16
20.515,1,8,9,0,1,12,16,4
20.52,3,2,8,2,0,9,1,11
20.525,7,17,2,4,1,3,2,27
20.53,14,13,56,5,2,1,8,9
20.535,2,3,7,1,1,0,1,2
20.54,5,4,1,2,0,5,3,10
20.545,6,10,13,4,5,5,12,21
20.55,1,4,17,1,1,2,4,6
20.555,4,5,1,0,2,2,6,7
20.56,4,10,3,4,4,5,12,2
20.565,10,15,63,13,2,10,9,16
20.57,2,1,4,1,2,2,7,13
20.575,6,9,8,4,2,1,2,4
20.58,2,4,21,2,2,2,0,1
20.585,3,10,8,2,0,1,0,9
20.59,2,4,41,8,3,1,8,9
20.595,1,7,11,0,2,2,7,1
20.6,0,2,37,13,1,0,0,3
20.605,12,19,15,15,6,7,6,7
20.61,5,10,9,0,2,0,1,0
20.615,0,9,38,4,0,1,3,0
20.62,2,0,13,11,4,3,3,3
20.625,4,8,0,2,4,1,3,3
20.63,2,2,5,1,1,0,1,4
20.635,1,6,4,4,2,3,2,3
20.64,6,4,5,3,1,0,0,1
20.645,7,15,17,1,4,2,3,2
20.65,0,2,40,5,0,3,1,1
20.655,12,25,26,13,6,6,8,4
20.66,2,3,7,0,3,2,1,4
20.665,1,17,24,7,0,0,2,5
20.67,5,10,9,0,0,1,0,6
20.675,10,20,1,3,2,0,1,2
20.68,3,7,28,10,2,3,0,2
20.685,3,20,31,6,0,0,2,1
20.69,10,35,93,35,13,9,7,7
20.695,5,1,56,9,3,0,1,4
20.7,1,8,21,5,5,4,4,2
20.705,7,10,65,13,9,4,2,7
20.71,5,8,69,8,2,1,4,1
20.715,1,0,22,6,2,2,1,1
20.72,2,5,25,0,2,1,2,1
20.725,2,16,13,10,4,2,2,0
20.73,0,1,16,1,0,1,1,1
20.735,2,8,16,8,3,1,3,2
20.74,4,8,22,7,3,2,3,2
20.745,1,6,3,0,3,3,0,1
20.75,1,8,26,5,1,2,1,1
20.755,4,20,53,6,3,3,4,3
20.76,11,18,40,10,6,4,0,2
20.765,6,39,10,1,0,1,0,2
20.77,4,14,49,12,6,7,3,3
20.775,12,15,25,8,2,3,4,4
20.78,2,7,27,9,2,2,4,1
20.785,16,44,66,23,10,9,9,12
20.79,4,2,19,2,3,4,3,4
20.795,6,6,3,2,2,1,0,2
20.8,0,9,30,1,0,1,1,1
20.805,7,11,31,13,4,3,2,2
20.81,1,1,25,0,0,0,2,0
20.815,2,10,2,4,3,2,1,2
20.82,3,5,27,1,2,1,1,0
20.825,4,4,1,4,2,1,0,1
20.83,4,40,22,4,0,6,3,5
20.835,8,24,14,5,2,1,0,1
20.84,0,14,7,1,2,2,0,2
20.845,4,4,36,10,1,1,2,1
20.85,2,5,22,5,4,1,3,2
20.855,10,19,43,13,8,5,6,5
20.86,5,2,4,5,3,4,3,4
20.865,1,11,17,4,2,3,1,0
20.87,6,30,44,7,1,1,2,4
20.875,2,4,2,0,1,1,0,2
20.88,0,1,5,7,5,3,3,5
20.885,2,2,2,2,1,1,1,1
20.89,1,6,5,1,2,0,0,1
20.895,2,4,13,3,0,3,1,2
20.9,1,1,2,2,1,3,2,1
20.905,1,8,1,2,1,1,1,1
20.91,2,1,7,0,2,0,2,0
20.915,3,14,3,5,3,2,3,1
20.92,3,1,17,1,0,1,0,0
20.925,0,4,7,2,1,3,4,0
20.93,4,2,18,5,1,1,1,0
20.935,4,12,50,11,4,2,2,1
20.94,3,11,36,6,3,3,3,1
20.945,3,18,17,10,4,5,4,4
20.95,4,2,5,2,0,1,2,7
20.955,2,3,1,1,1,1,11,29
20.96,2,7,19,6,2,3,3,0
20.965,2,11,12,0,3,1,1,0
20.97,8,42,65,15,6,7,7,10
20.975,5,22,11,2,3,1,2,4
20.98,3,21,2,2,1,2,3,4
20.985,6,10,7,4,1,1,2,3
20.99,4,39,36,5,3,4,3,3
20.995,3,9,19,1,1,2,2,2
21,1,2,3,1,1,4,3,4
21.005,0,4,2,1,2,2,3,6
21.01,0,5,3,2,2,2,3,5
21.015,0,12,11,2,1,0,0,2
21.02,1,12,11,1,2,3,2,2
21.025,1,0,0,2,2,3,3,2
21.03,0,1,7,2,0,1,0,2
21.035,4,6,3,1,0,1,1,4
21.04,2,8,12,1,2,1,3,1
21.045,2,5,13,1,0,1,0,2
21.05,1,2,2,0,0,1,4,2
21.055,2,4,17,3,1,2,1,3
21.06,3,15,39,5,1,3,4,2
21.065,10,19,51,18,8,3,5,4
21.07,3,3,5,2,1,3,1,4
21.075,1,3,13,4,1,2,1,3
21.08,2,13,18,3,0,1,1,1
21.085,2,6,12,7,1,1,1,0
21.09,1,7,2,1,0,3,0,0
21.095,2,5,11,5,2,4,0,0
21.1,0,2,8,0,2,3,1,1
21.105,1,2,2,0,1,5,1,1
21.11,0,1,3,3,2,3,4,0
21.115,1,2,6,1,0,2,0,1
21.12,0,2,2,1,0,1,0,1
21.125,0,0,1,0,0,0,2,0
21.13,1,4,1,1,3,3,0,2
21.135,2,4,6,6,3,2,1,1
21.14,1,4,3,3,2,3,5,1
21.145,1,2,3,1,3,1,0,1
21.15,0,3,2,2,0,1,0,0
21.155,6,11,3,0,1,3,1,3
21.16,2,5,9,0,0,2,1,1
21.165,3,0,29,5,2,1,1,1
21.17,2,2,6,1,4,2,2,3
21.175,3,5,3,3,1,1,1,0
21.18,1,3,3,1,0,1,2,0
21.185,1,3,12,4,2,1,1,0
21.19,3,8,7,3,1,1,2,2
21.195,1,0,6,1,2,2,2,2
21.2,3,7,3,6,4,4,2,3
21.205,1,1,4,0,1,2,2,1
21.21,1,9,1,1,1,2,2,1
21.215,0,2,6,0,1,3,1,1
21.22,1,0,3,1,2,1,2,1
21.225,2,2,2,2,2,2,2,2
21.23,5,2,2,1,2,3,3,1
21.235,1,1,6,1,0,1,1,0
21.24,3,1,2,2,1,2,0,2
21.245,2,1,5,0,0,0,3,2
21.25,1,1,5,1,1,3,2,1
21.255,3,7,4,2,0,1,3,2
21.26,3,2,1,2,2,2,2,1
21.265,2,4,19,2,2,0,0,0
21.27,1,6,33,3,2,2,3,3
21.275,7,10,18,7,2,4,2,4
21.28,3,1,2,0,1,3,2,1
21.285,2,0,6,3,0,2,0,0
21.29,1,1,10,0,2,1,1,1
21.295,2,0,7,2,2,1,1,0
21.3,3,3,3,1,0,4,0,1
21.305,1,1,4,2,0,1,0,1
21.31,5,10,45,8,4,1,0,4
21.315,0,3,4,2,2,2,5,3
21.32,3,7,6,4,1,0,1,1
21.325,5,5,8,3,1,3,7,5
21.33,1,3,8,1,1,8,11,4
21.335,1,1,3,0,3,1,6,6
21.34,6,2,7,2,3,1,16,0
21.345,2,2,5,1,1,2,2,18
21.35,2,15,4,3,2,0,8,1
21.355,4,4,2,2,2,0,5,2
21.36,2,5,4,3,1,4,10,1
21.365,5,2,8,4,2,3,3,5
21.37,2,2,13,0,2,1,7,4
21.375,0,3,3,0,1,0,1,1
21.38,4,16,10,0,3,1,4,9
21.385,10,17,8,5,5,3,1,4
21.39,4,36,14,2,2,1,5,9
21.395,2,9,0,3,1,2,1,2
21.4,0,4,2,3,0,4,4,3
21.405,4,33,1,3,1,2,1,5
21.41,5,13,5,3,1,3,1,20
21.415,4,5,2,0,2,1,0,12
21.42,1,12,5,2,1,1,4,10
21.425,9,21,10,2,1,3,5,7
21.43,8,1,2,1,3,3,6,6
21.435,1,10,3,2,1,3,7,7
21.44,7,1,2,1,1,8,15,12
21.445,7,0,2,1,0,6,3,3
21.45,0,1,1,1,1,1,1,13
21.455,2,14,1,2,0,1,5,9
21.46,8,0,4,3,0,7,40,6
21.465,12,1,1,1,5,9,4,27
21.47,0,1,2,2,1,12,3,3
21.475,16,9,3,3,8,5,14,107
21.48,46,20,13,3,4,19,31,93
21.485,26,1,2,1,3,8,19,27
21.49,4,9,3,3,2,4,15,33
21.495,11,0,2,2,2,4,2,56
21.5,20,10,6,2,3,3,5,56
21.505,7,9,1,2,1,7,24,3
21.51,0,8,4,2,0,6,3,91
21.515,2,28,4,2,4,6,9,28
21.52,2,14,2,3,2,6,11,15
21.525,2,0,7,4,4,5,8,5
21.53,21,11,4,0,3,7,14,110
21.535,5,9,11,8,6,1,34,58
21.54,47,15,4,1,1,28,14,87
21.545,23,1,1,1,3,10,10,69
21.55,8,10,8,9,7,38,73,63
21.555,2,10,5,20,20,18,11,107
21.56,32,3,16,0,3,16,11,111
21.565,6,31,10,4,2,5,22,33
21.57,63,32,10,11,13,44,17,62
21.575,13,1,7,7,12,25,74,127
21.58,64,28,21,4,6,18,80,119
21.585,9,1,2,8,11,1,61,52
21.59,29,6,4,1,3,12,50,50
21.595,6,23,21,10,13,1,29,113
21.6,20,8,21,17,23,0,28,71
21.605,56,0,4,2,9,21,37,59
21.61,52,15,12,4,5,6,8,127
21.615,2,3,13,4,4,5,15,44
21.62,21,1,6,5,8,14,21,96
21.625,3,50,14,12,12,23,12,83
21.63,43,10,2,10,7,38,89,67
21.635,30,43,8,6,6,7,26,26
21.64,12,36,14,5,3,21,4,48
21.645,15,15,4,5,3,22,11,86
21.65,6,36,14,4,5,6,22,77
21.655,20,3,10,5,4,11,3,50
21.66,40,4,17,2,2,38,30,65
21.665,5,31,9,2,0,3,36,27
21.67,27,5,6,1,7,15,8,46
21.675,4,4,40,1,0,10,49,128
21.68,21,19,16,3,4,21,71,60
21.685,35,14,2,3,1,5,79,37
21.69,5,6,9,2,1,4,5,54
21.695,27,29,1,6,6,2,27,24
21.7,15,35,17,6,9,14,37,58
21.705,17,5,2,6,2,2,3,18
21.71,25,6,1,2,1,0,4,54
21.715,18,23,6,5,6,7,19,26
21.72,10,4,7,2,3,1,2,101
21.725,8,6,14,3,4,13,13,15
21.73,4,7,5,3,2,2,12,29
21.735,4,12,14,9,3,14,19,23
21.74,8,45,4,5,4,16,46,9
21.745,5,2,21,7,4,19,20,7
21.75,14,23,3,6,6,13,44,76
21.755,13,10,14,3,2,1,9,50
21.76,7,16,1,1,1,7,4,21
21.765,13,10,1,2,1,11,11,13
21.77,3,21,4,1,3,8,14,29
21.775,6,0,9,3,0,4,11,3
21.78,10,4,18,1,3,7,0,14
21.785,7,6,30,8,3,11,14,22
21.79,1,11,1,1,1,0,3,23
21.795,11,13,11,1,3,2,6,6
21.8,0,12,16,5,1,1,7,6
21.805,13,5,35,7,2,4,13,6
21.81,2,29,66,9,1,0,5,25
21.815,1,23,9,10,6,2,1,3
21.82,16,22,3,1,2,1,10,12
21.825,3,6,11,4,2,5,17,13
21.83,10,29,31,8,1,2,7,9
21.835,3,11,3,0,0,6,7,3
21.84,4,13,13,1,2,2,3,5
21.845,1,1,17,1,1,6,16,4
21.85,1,5,39,8,2,2,7,7
21.855,19,20,2,8,1,2,0,3
21.86,4,9,5,3,1,0,1,2
21.865,7,5,16,2,0,3,8,6
21.87,2,10,25,3,2,2,8,5
21.875,0,4,10,3,0,2,2,1
21.88,0,6,34,8,4,4,1,7
21.885,2,0,4,2,0,1,6,6
21.89,1,0,4,2,0,1,3,6
21.895,7,18,28,2,3,2,5,1
21.9,2,10,21,8,1,1,0,3
21.905,2,6,17,7,2,1,2,4
21.91,6,5,38,10,2,1,2,3
21.915,1,10,33,7,1,2,1,1
21.92,2,3,37,12,3,4,0,4
21.925,3,5,14,3,5,6,4,6
21.93,1,11,52,12,5,2,5,0
21.935,3,4,0,6,0,2,1,0
21.94,2,5,14,0,1,1,1,1
21.945,11,11,42,15,4,2,4,5
21.95,3,2,18,2,4,1,0,2
21.955,3,18,42,14,4,1,2,3
21.96,5,10,16,2,0,1,0,3
21.965,3,47,79,25,5,4,5,3
21.97,10,7,15,4,6,3,2,5
21.975,3,23,44,7,3,2,1,1
21.98,4,7,15,4,4,1,4,1
21.985,10,30,77,14,5,6,5,7
21.99,1,0,3,1,1,0,0,1
21.995,2,6,8,2,1,1,2,0
22,1,8,18,5,1,0,1,0
22.005,1,9,7,1,0,0,1,2
22.01,6,15,14,8,4,4,3,4
22.015,3,3,26,4,1,0,0,1
22.02,4,3,8,4,5,2,2,2
22.025,5,21,47,12,3,0,2,2
22.03,3,9,2,0,2,0,1,1
22.035,1,15,17,5,2,0,1,1
22.04,9,1,17,5,1,1,1,1
22.045,3,11,28,2,3,1,3,1
22.05,2,4,9,0,1,0,2,1
22.055,8,7,9,7,4,0,1,3
22.06,1,3,5,7,2,6,0,3
22.065,1,7,9,5,0,0,0,1
22.07,1,8,9,3,3,3,2,0
22.075,1,3,28,7,4,3,0,0
22.08,0,4,5,0,4,2,2,3
22.085,8,20,30,7,1,0,2,0
22.09,3,4,7,1,3,1,0,0
22.095,9,25,70,17,4,6,4,4
22.1,4,7,18,4,3,0,3,5
22.105,1,7,22,5,1,3,1,2
22.11,0,5,10,4,3,0,1,1
22.115,2,9,20,0,2,1,2,0
22.12,4,2,12,3,3,2,2,1
22.125,2,8,0,2,1,0,2,3
22.13,1,4,2,1,1,2,2,1
22.135,2,26,9,2,0,1,1,3
22.14,5,3,1,3,0,1,2,2
22.145,1,2,17,0,3,2,1,1
22.15,1,1,15,1,0,2,0,1
22.155,1,7,1,3,2,3,2,1
22.16,2,11,15,5,1,4,3,3
22.165,2,4,13,0,1,2,1,1
22.17,4,6,1,4,0,3,1,1
22.175,1,0,11,3,0,1,0,1
22.18,5,7,14,4,0,0,1,1
22.185,4,6,1,2,1,1,1,1
22.19,3,10,15,2,3,1,2,2
22.195,0,5,2,3,2,1,0,1
22.2,1,0,6,3,2,4,2,2
22.205,0,1,11,2,1,1,2,1
22.21,2,2,3,1,0,0,1,1
22.215,1,12,4,2,1,0,0,1
22.22,1,3,2,0,2,1,0,0
22.225,0,9,1,3,0,0,3,2
22.23,3,2,1,1,1,0,1,0
22.235,3,3,16,3,3,4,3,1
22.24,4,1,6,1,1,3,1,3
22.245,1,2,6,4,1,0,1,1
22.25,0,2,8,1,1,1,0,0
22.255,2,7,10,1,0,1,2,1
22.26,8,6,1,2,3,0,0,0
22.265,0,3,4,1,0,2,1,1
22.27,5,9,20,5,0,2,0,0
22.275,1,1,19,0,2,3,1,1
22.28,10,62,98,21,9,7,7,9
22.285,3,24,22,2,2,1,1,0
22.29,0,2,1,4,1,3,1,0
22.295,1,8,19,5,1,0,1,0
22.3,3,9,22,6,0,1,1,1
22.305,1,13,12,3,3,3,4,1
22.31,2,10,12,3,1,0,0,0
22.315,3,5,4,1,0,1,0,0
22.32,0,11,11,1,1,1,1,2
22.325,4,6,10,2,2,2,1,3
22.33,2,3,7,1,2,2,1,2
22.335,2,6,2,1,0,0,1,1
22.34,1,4,1,3,2,2,2,2
22.345,1,5,6,3,1,0,1,2
22.35,1,8,8,2,2,3,2,1
22.355,3,10,5,3,1,2,1,1
22.36,2,29,24,4,3,2,4,3
22.365,0,4,5,0,1,2,1,1
22.37,3,8,5,5,1,3,2,3
22.375,0,0,14,1,3,2,2,3
22.38,3,5,15,0,2,0,0,1
22.385,4,10,9,4,1,3,1,0
22.39,1,6,0,2,1,2,2,1
22.395,2,8,1,1,1,3,3,2
22.4,0,1,6,1,1,1,0,1
22.405,0,2,4,1,1,2,1,3
22.41,3,7,3,1,3,5,4,3
22.415,3,1,0,1,2,4,2,1
22.42,0,7,14,1,3,3,2,0
22.425,3,5,13,4,1,1,2,2
22.43,3,5,3,1,2,0,1,3
22.435,1,0,4,3,0,1,1,3
22.44,2,3,3,4,0,4,2,1
22.445,3,0,6,2,3,2,3,1
22.45,0,2,5,0,0,1,1,0
22.455,6,14,8,2,2,3,6,4
22.46,0,0,0,2,2,3,3,2
22.465,1,1,1,1,2,2,1,2
22.47,1,2,3,0,3,1,1,0
22.475,3,3,2,3,1,2,2,1
22.48,1,2,3,1,0,0,0,0
22.485,0,0,2,2,1,1,0,1
22.49,2,2,4,2,0,1,1,3
22.495,2,0,1,1,3,3,1,0
22.5,0,1,3,2,1,1,0,1
22.505,0,2,3,1,1,0,2,1
22.51,1,1,3,1,0,1,1,0
22.515,1,1,4,1,4,3,1,2
22.52,1,9,7,2,1,2,4,4
22.525,1,4,1,3,2,2,3,14
22.53,0,2,5,2,0,4,1,3
22.535,11,33,7,1,2,2,3,4
22.54,2,2,2,2,0,0,2,12
22.545,5,7,4,1,2,4,7,27
22.55,1,2,6,4,2,3,1,5
22.555,2,12,2,1,0,2,2,14
22.56,0,6,9,2,2,1,1,14
22.565,6,2,1,2,1,0,2,9
22.57,1,4,1,0,1,2,2,2
22.575,0,7,3,3,2,2,1,0
22.58,1,4,3,1,1,3,0,6
22.585,1,1,3,1,1,0,0,6
22.59,2,1,0,1,0,0,2,3
22.595,0,7,4,0,3,5,1,2
22.6,3,3,1,2,2,1,3,4
22.605,5,2,4,2,4,4,7,4
22.61,1,12,2,0,2,1,4,62
22.615,11,6,9,6,2,5,10,4
22.62,1,15,3,1,2,3,0,0
22.625,3,1,1,0,1,6,13,15
22.63,0,20,6,0,1,1,6,14
22.635,7,4,0,2,4,5,0,4
22.64,7,16,6,3,3,2,5,12
22.645,5,11,4,1,0,1,2,4
22.65,2,4,3,2,3,3,4,6
22.655,5,5,2,0,1,3,1,4
22.66,7,3,4,1,1,2,7,46
22.665,9,6,3,1,1,3,32,77
22.67,6,1,1,4,2,5,45,58
22.675,17,6,5,1,0,10,47,29
22.68,17,7,0,2,1,5,32,9
22.685,8,5,0,2,4,5,12,28
22.69,20,1,2,4,1,8,11,26
22.695,9,2,0,2,3,4,8,25
22.7,2,1,4,4,0,6,21,5
22.705,20,6,8,8,5,2,28,61
22.71,39,11,6,1,0,3,29,8
22.715,12,13,9,2,3,6,32,7
22.72,13,3,8,3,2,5,46,80
22.725,36,17,9,11,13,27,16,64
22.73,2,24,9,5,1,28,63,45
22.735,30,28,18,8,13,61,86,80
22.74,19,50,30,13,16,52,55,34
22.745,9,9,10,11,7,3,25,23
22.75,47,3,10,2,4,21,31,100
22.755,41,67,30,23,26,34,1,34
22.76,24,39,15,9,5,6,73,70
22.765,15,3,3,6,3,10,49,120
22.77,4,12,5,6,4,41,113,12
22.775,27,4,1,2,6,15,14,43
22.78,26,10,0,7,1,22,25,64
22.785,42,24,10,1,4,14,13,128
22.79,1,24,7,2,7,24,79,108
22.795,8,16,11,7,3,27,85,119
22.8,10,4,5,2,3,39,12,26
22.805,9,12,2,1,3,8,32,19
22.81,20,16,1,4,1,7,6,12
22.815,19,50,40,13,11,22,115,127
22.82,53,26,32,12,15,12,66,93
22.825,73,3,2,1,3,4,42,112
22.83,32,8,2,6,3,7,18,79
22.835,0,14,10,2,0,27,54,65
22.84,14,26,34,17,13,13,17,6
22.845,30,9,7,0,1,3,40,42
22.85,55,15,13,12,10,13,20,114
22.855,12,5,4,4,3,14,92,65
22.86,14,22,28,8,1,10,77,65
22.865,23,11,9,5,3,28,23,67
22.87,12,12,7,9,13,17,33,109
22.875,3,10,33,7,7,6,7,49
22.88,21,50,6,2,3,8,18,127
22.885,12,3,3,1,1,0,29,56
22.89,1,5,2,3,0,3,0,54
22.895,4,27,12,7,4,4,9,72
22.9,9,37,15,7,7,2,22,18
22.905,22,20,4,6,5,5,58,3
22.91,38,24,2,2,2,17,123,105
22.915,58,47,29,8,7,25,102,124
22.92,12,1,13,4,1,7,15,65
22.925,12,6,2,4,2,4,7,97
22.93,44,3,7,3,3,6,11,78
22.935,2,18,13,5,4,1,19,68
22.94,1,5,3,2,2,6,54,68
22.945,16,0,9,4,4,1,10,15
22.95,12,7,4,1,3,2,40,35
22.955,14,1,1,3,1,1,18,41
22.96,14,5,1,3,1,2,7,10
22.965,14,6,2,5,0,0,8,19
22.97,11,9,3,0,1,11,20,11
22.975,39,8,3,5,6,9,6,8
22.98,1,10,1,1,1,5,3,6
22.985,9,5,1,2,2,7,1,23
22.99,14,12,13,5,2,3,2,16
22.995,2,8,2,1,3,3,2,13
23,9,22,3,0,2,5,1,9
23.005,6,1,1,1,1,0,1,9
23.01,9,2,2,0,0,2,14,50
23.015,2,4,2,3,2,5,7,18
23.02,6,1,19,4,1,1,3,7
23.025,20,17,14,2,1,2,6,19
23.03,2,0,9,3,1,3,4,14
23.035,1,4,17,5,1,5,2,19
23.04,3,18,58,11,4,5,7,0
23.045,11,2,22,1,1,1,2,9
23.05,3,17,15,1,1,2,0,1
23.055,5,7,29,7,0,2,0,6
23.06,6,5,21,2,3,1,3,7
23.065,1,4,8,1,1,0,3,1
23.07,4,1,2,5,4,1,1,7
23.075,5,1,7,2,4,5,2,3
23.08,5,6,28,9,1,0,2,2
23.085,4,2,23,4,3,4,2,2
23.09,1,14,42,10,3,2,2,2
23.095,2,2,0,1,1,1,1,1
23.1,1,18,15,6,4,5,4,4
23.105,4,0,22,9,6,3,3,5
23.11,4,0,12,1,0,1,6,12
23.115,7,8,6,2,0,1,1,2
23.12,4,12,49,7,3,1,2,1
23.125,3,7,1,0,2,0,0,3
23.13,10,9,60,4,8,3,3,8
23.135,3,7,31,10,0,1,1,7
23.14,7,13,47,15,5,4,7,3
23.145,1,9,22,8,2,3,1,0
23.15,2,8,0,6,1,2,4,0
23.155,1,3,32,3,1,2,1,1
23.16,6,27,39,16,1,1,2,2
23.165,0,4,11,3,3,1,1,5
23.17,14,16,8,12,6,7,10,24
23.175,0,0,12,2,2,1,3,4
23.18,3,13,47,10,2,2,2,3
23.185,2,8,8,5,1,2,1,1
23.19,8,33,64,19,4,3,0,2
23.195,5,15,13,1,1,3,1,2
23.2,0,8,23,6,0,1,1,4
23.205,4,5,1,1,1,2,1,7
23.21,6,17,28,5,4,3,3,0
23.215,6,11,8,8,3,5,2,2
23.22,2,9,6,1,0,3,2,1
23.225,1,8,14,9,5,3,2,1
23.23,2,5,31,3,1,2,2,2
23.235,1,0,5,4,4,2,1,3
23.24,1,14,13,1,4,3,2,0
23.245,1,0,19,6,3,5,5,5
23.25,8,24,14,7,3,2,4,5
23.255,10,28,47,8,4,4,2,2
23.26,4,5,12,7,3,3,3,5
23.265,4,12,23,4,4,5,4,5
23.27,7,15,50,12,3,2,2,4
23.275,9,9,49,9,5,2,1,4
23.28,8,21,8,9,5,6,4,3
23.285,1,34,13,4,7,4,2,1
23.29,1,1,26,5,4,4,2,1
23.295,3,7,41,6,2,2,2,2
23.3,0,13,19,5,1,2,1,2
23.305,3,6,6,1,1,0,2,0
23.31,4,9,6,0,2,4,0,1
23.315,2,2,28,7,3,0,3,2
23.32,1,9,8,7,2,1,1,1
23.325,3,14,17,2,2,0,0,2
23.33,4,4,46,5,4,4,0,1
23.335,11,13,25,0,1,2,1,3
23.34,2,11,4,5,3,1,3,0
23.345,1,3,10,2,1,2,1,1
23.35,1,3,28,2,0,2,3,0
23.355,3,4,10,2,2,1,1,1
23.36,4,3,16,6,4,1,3,3
23.365,1,0,3,2,0,1,1,1
23.37,4,9,4,1,3,2,1,2
23.375,3,29,15,3,2,2,1,0
23.38,3,10,11,6,4,3,0,3
23.385,8,22,0,8,3,4,3,4
23.39,1,6,11,2,4,0,2,1
23.395,6,18,37,13,4,5,4,5
23.4,0,2,23,3,1,0,1,1
23.405,0,4,7,0,1,1,1,1
23.41,3,8,18,2,2,2,4,2
23.415,6,10,26,7,2,1,2,1
23.42,4,6,27,3,4,3,3,1
23.425,4,2,5,2,2,1,2,1
23.43,1,13,24,3,1,0,1,2
23.435,3,8,21,1,0,0,1,3
23.44,2,1,17,5,1,1,2,3
23.445,2,2,12,0,1,2,2,0
23.45,4,3,2,2,1,0,1,1
23.455,2,3,9,0,1,0,1,1
23.46,0,4,6,1,1,1,1,2
23.465,8,0,7,1,4,4,2,2
23.47,3,5,10,3,3,0,0,1
23.475,3,15,21,7,4,3,1,2
23.48,4,1,11,3,1,0,2,2
23.485,0,3,7,2,2,2,0,1
23.49,4,1,0,1,1,2,2,1
23.495,3,12,25,4,1,3,1,1
23.5,3,21,16,4,2,3,4,1
23.505,0,27,19,1,1,1,1,2
23.51,5,25,10,9,3,2,0,0
23.515,0,5,4,1,1,3,3,3
23.52,2,4,10,1,0,0,0,1
23.525,1,4,1,1,3,2,2,2
23.53,1,7,13,0,2,1,2,1
23.535,3,5,6,1,2,0,1,0
23.54,0,9,6,3,1,2,1,1
23.545,0,5,1,1,0,0,1,1
23.55,3,2,0,2,0,2,1,2
23.555,4,4,17,2,0,2,1,1
23.56,1,4,0,0,2,2,1,2
23.565,2,5,6,2,2,1,2,0
23.57,2,6,10,5,2,3,0,1
23.575,1,1,13,4,1,0,1,0
23.58,1,1,1,0,1,0,1,1
23.585,3,5,22,6,2,1,3,3
23.59,1,4,2,2,2,2,2,2
23.595,0,2,9,0,0,1,1,1
23.6,3,4,6,1,1,0,0,1
23.605,1,2,3,1,0,2,0,1
23.61,0,1,1,1,3,2,0,1
23.615,4,12,11,6,2,4,3,2
23.62,2,1,0,1,3,2,3,3
23.625,5,11,10,3,2,1,1,1
23.63,1,14,38,6,3,3,4,1
23.635,2,1,13,2,0,4,4,4
23.64,1,5,0,1,1,2,2,1
23.645,0,3,6,0,0,3,1,0
23.65,0,2,1,4,0,2,2,0
23.655,1,3,1,1,0,0,1,1
23.66,2,3,2,2,3,4,2,1
23.665,2,2,3,3,1,5,3,3
23.67,4,4,6,7,2,2,1,3
23.675,1,1,4,2,1,1,1,1
23.68,2,2,1,2,2,0,2,1
23.685,0,4,3,3,0,3,2,0
23.69,2,2,2,1,1,0,1,0
23.695,3,1,2,1,1,0,2,0
23.7,0,0,2,1,1,1,0,1
23.705,5,8,2,0,3,1,2,1
23.71,4,15,2,2,1,2,2,1
23.715,3,3,1,1,1,2,2,1
23.72,1,0,7,2,1,3,3,4
23.725,7,2,3,0,3,2,2,2
23.73,3,4,3,4,1,1,1,0
23.735,3,0,0,0,4,1,2,3
23.74,10,1,3,3,4,1,2,2
23.745,7,16,11,1,4,4,0,2
23.75,5,5,4,1,0,0,1,2
23.755,2,2,1,1,1,1,0,0
23.76,10,1,2,0,1,1,0,3
23.765,12,4,4,6,4,3,2,2
23.77,1,0,1,0,0,2,2,9
23.775,2,6,3,0,3,1,3,3
23.78,0,18,5,2,1,3,3,15
23.785,4,3,0,2,1,0,4,2
23.79,3,4,2,0,1,4,5,16
23.795,4,5,2,2,1,0,2,7
23.8,1,8,1,0,1,1,1,3
23.805,4,4,1,0,0,1,1,9
23.81,10,3,1,2,1,2,2,15
23.815,6,11,1,3,1,2,9,5
23.82,1,2,1,2,1,1,1,4
23.825,1,1,3,1,0,3,3,1
23.83,6,6,0,1,5,2,3,13
23.835,3,2,4,1,0,1,18,31
23.84,3,8,2,1,1,4,10,10
23.845,14,4,4,2,1,2,1,18
23.85,7,4,4,1,1,1,4,6
23.855,15,16,9,3,3,3,9,11
23.86,2,6,3,1,2,6,11,9
23.865,3,16,14,7,3,8,9,27
23.87,7,2,0,4,1,1,16,75
23.875,12,11,5,0,1,6,31,26
23.88,20,22,5,5,5,12,1,15
23.885,17,10,1,2,1,4,25,25
23.89,16,6,2,2,1,4,15,27
23.895,6,0,5,2,0,2,1,4
23.9,1,3,1,0,0,2,5,35
23.905,11,7,1,1,2,2,13,16
23.91,23,1,3,0,1,7,14,11
23.915,12,4,3,1,1,4,55,32
23.92,16,3,7,5,1,1,7,48
23.925,19,6,7,10,10,11,22,36
23.93,1,4,5,5,2,0,10,61
23.935,3,24,7,6,9,7,1,91
23.94,18,7,3,3,4,7,21,28
23.945,11,8,17,8,9,18,50,1
23.95,13,7,5,0,1,9,16,69
23.955,54,13,12,4,5,6,20,97
23.96,67,31,17,7,4,9,12,107
23.965,26,2,7,3,3,6,6,105
23.97,10,14,19,16,10,20,13,89
23.975,25,9,10,0,3,7,24,16
23.98,42,10,4,1,4,16,97,84
23.985,11,4,4,0,1,10,95,128
23.99,12,26,34,4,2,26,44,115
23.995,18,6,14,1,0,33,17,55
24,41,15,23,13,18,7,34,122
24.005,20,16,8,6,9,9,3,111
24.01,11,11,11,2,10,24,17,65
24.015,6,14,3,1,5,2,97,110
24.02,8,1,23,3,9,19,24,90
24.025,9,2,1,2,6,29,71,37
24.03,38,16,5,8,4,8,10,42
24.035,2,6,20,7,9,34,47,71
24.04,15,6,3,4,3,3,95,73
24.045,12,17,14,2,4,30,60,81
24.05,2,17,22,10,1,24,52,42
24.055,7,5,4,0,2,2,47,52
24.06,14,15,16,5,0,12,19,57
24.065,24,9,9,17,13,10,20,27
24.07,14,9,14,12,15,40,33,39
24.075,12,12,15,8,1,42,21,49
24.08,22,13,8,2,7,2,9,23
24.085,17,22,5,3,2,12,5,87
24.09,33,8,8,3,6,16,25,128
24.095,31,14,16,1,5,6,20,49
24.1,18,6,3,1,4,12,48,34
24.105,15,26,11,7,8,15,27,40
24.11,22,11,11,8,7,22,67,8
24.115,18,7,6,5,7,14,63,28
24.12,20,35,6,0,1,2,40,80
24.125,18,3,7,2,1,5,12,17
24.13,2,10,25,7,5,1,8,26
24.135,9,3,6,8,9,17,50,19
24.14,0,4,2,0,1,21,26,28
24.145,7,1,6,8,8,22,7,24
24.15,6,15,1,1,2,4,31,16
24.155,0,15,16,7,5,18,42,33
24.16,6,19,5,3,2,6,13,13
24.165,2,7,7,1,2,4,17,43
24.17,3,1,11,4,6,5,0,17
24.175,4,1,10,3,2,0,20,1
24.18,28,19,7,2,0,3,16,48
24.185,15,0,1,2,2,3,18,6
24.19,6,12,9,4,2,5,25,14
24.195,8,2,9,5,4,11,31,1
24.2,9,7,13,1,1,3,5,19
24.205,5,6,4,3,1,2,18,44
24.21,6,3,5,1,0,3,17,23
24.215,1,3,4,0,2,7,24,6
24.22,7,9,1,0,0,1,6,32
24.225,0,1,3,1,0,4,4,6
24.23,1,7,2,3,1,1,12,19
24.235,5,24,6,1,1,5,17,9
24.24,0,6,8,4,5,2,2,4
24.245,1,5,3,4,5,3,7,1
24.25,2,1,2,1,0,3,12,18
24.255,1,15,9,2,3,3,13,19
24.26,2,6,16,0,4,2,2,8
24.265,2,0,14,0,0,1,6,5
24.27,5,7,53,6,3,2,1,10
24.275,1,2,1,1,1,9,18,4
24.28,7,14,18,1,0,1,3,2
24.285,4,8,11,3,2,1,6,1
24.29,1,1,11,4,0,0,1,4
24.295,3,9,47,8,4,5,7,2
24.3,1,5,0,1,2,4,3,2
24.305,0,5,8,1,1,1,6,4
24.31,3,9,1,2,0,1,2,0
24.315,4,8,3,1,1,1,8,3
24.32,3,9,15,1,1,0,2,7
24.325,2,2,10,4,2,1,1,0
24.33,2,7,36,12,5,3,0,1
24.335,1,3,15,2,4,5,7,3
24.34,1,1,10,3,1,2,2,2
24.345,0,1,5,0,1,0,1,1
24.35,3,11,29,3,0,1,5,5
24.355,2,8,20,4,2,4,3,6
24.36,2,1,8,1,2,2,2,3
24.365,3,8,23,5,1,1,1,3
24.37,1,6,30,5,1,2,1,1
24.375,8,20,47,15,5,7,4,5
24.38,3,2,25,5,1,2,0,1
24.385,3,5,0,2,1,1,4,0
24.39,0,2,4,4,4,3,2,0
24.395,1,9,37,6,2,1,1,1
24.4,1,4,12,3,3,3,3,0
24.405,1,5,7,3,1,2,2,1
24.41,5,16,33,8,1,3,4,2
24.415,5,20,64,8,5,3,7,3
24.42,6,29,35,12,4,5,4,7
24.425,0,2,10,1,0,1,1,2
24.43,7,13,1,3,0,1,1,0
24.435,2,22,33,4,1,1,0,0
24.44,4,9,16,1,1,0,2,1
24.445,7,13,33,4,2,4,2,3
24.45,0,6,6,1,2,1,1,1
24.455,3,0,11,2,1,0,1,0
24.46,1,8,8,1,1,1,2,0
24.465,3,3,2,2,0,1,2,1
24.47,3,10,3,1,0,1,1,0
24.475,6,16,15,8,4,5,4,4
24.48,1,10,18,1,0,2,0,0
24.485,3,21,20,1,0,2,1,3
24.49,1,7,2,2,0,2,1,0
24.495,1,7,39,8,3,2,1,3
24.5,3,4,19,2,2,2,2,1
24.505,7,8,0,10,5,2,3,5
24.51,3,6,1,2,2,3,1,1
24.515,2,3,2,1,0,0,1,1
24.52,6,20,47,18,1,3,3,2
24.525,8,18,5,7,3,5,4,6
24.53,26,61,104,45,18,14,15,14
24.535,4,0,58,2,2,4,5,5
24.54,1,8,7,1,2,1,1,0
24.545,2,10,17,5,0,1,1,0
24.55,9,21,26,14,5,3,2,1
24.555,1,13,28,5,2,1,1,3
24.56,3,18,4,4,2,1,1,3
24.565,7,12,7,2,0,1,0,1
24.57,2,2,4,1,1,2,1,0
24.575,0,0,9,2,0,0,6,1
24.58,4,7,3,4,3,1,1,1
24.585,2,14,23,6,1,2,0,4
24.59,3,9,12,3,3,1,2,3
24.595,18,13,24,14,7,5,3,6
24.6,8,9,18,4,0,2,2,4
24.605,4,9,18,7,3,2,4,3
24.61,1,7,41,6,0,1,0,2
24.615,10,11,21,8,4,3,2,3
24.62,5,2,14,8,2,3,1,1
24.625,1,6,6,5,0,0,1,2
24.63,1,3,8,4,1,4,3,2
24.635,5,21,44,4,4,5,3,2
24.64,5,12,9,4,2,3,4,4
24.645,1,1,3,2,0,0,2,0
24.65,7,3,8,2,1,3,2,1
24.655,5,12,8,2,0,1,1,2
24.66,1,21,0,3,0,0,4,2
24.665,0,11,3,1,3,3,0,0
24.67,3,11,2,3,2,2,3,2
24.675,4,7,2,7,0,0,2,1
24.68,7,25,35,14,5,4,6,5
24.685,4,11,8,5,1,3,3,1
24.69,0,1,15,5,1,4,0,2
24.695,0,15,24,7,2,2,2,1
24.7,4,14,1,2,1,1,0,0
24.705,3,5,10,4,4,2,2,2
24.71,3,10,12,3,1,1,3,1
24.715,4,1,13,1,4,1,1,0
24.72,2,20,26,5,4,3,3,2
24.725,2,4,5,4,2,1,3,1
24.73,4,3,9,3,2,1,0,1
24.735,0,3,7,2,0,1,2,0
24.74,1,2,4,3,2,1,2,2
24.745,1,3,3,2,0,1,2,0
24.75,0,3,2,3,1,0,0,0
24.755,2,9,4,9,3,4,1,3
24.76,3,16,12,0,1,1,2,0
24.765,0,11,30,2,1,0,0,1
24.77,8,15,30,10,6,2,3,3
24.775,2,8,13,4,0,1,1,1
24.78,0,3,5,2,1,0,1,0
24.785,6,9,13,2,0,1,1,1
24.79,1,2,4,2,1,0,0,1
24.795,2,2,11,3,2,2,1,2
24.8,1,7,4,2,1,1,0,1
24.805,1,9,4,0,1,1,1,1
24.81,1,4,1,1,0,2,0,1
24.815,0,4,1,3,1,1,0,1
24.82,2,13,2,1,3,2,1,1
24.825,2,6,0,2,2,3,1,4
24.83,2,0,0,1,1,2,0,1
24.835,1,3,0,1,3,3,2,2
24.84,1,7,5,2,1,2,0,2
24.845,4,5,0,4,5,6,3,3
24.85,2,12,17,1,4,2,0,1
24.855,3,6,31,6,4,3,4,3
24.86,2,5,1,2,2,2,3,0
24.865,1,9,1,3,4,5,3,3
24.87,2,5,0,2,1,1,1,1
24.875,0,4,7,3,1,1,2,1
24.88,1,3,5,1,0,1,3,1
24.885,3,7,6,3,0,3,3,2
24.89,4,1,4,1,0,1,1,1
24.895,2,1,0,1,1,0,1,2
24.9,4,6,0,0,1,1,1,3
24.905,4,8,13,1,2,2,1,1
24.91,1,4,18,3,2,1,0,0
24.915,3,1,3,0,1,2,2,1
24.92,1,7,0,1,0,2,2,0
24.925,3,8,5,5,4,3,2,3
24.93,2,1,0,1,0,2,2,2
24.935,1,33,8,1,2,2,1,1
24.94,1,2,6,4,2,0,1,0
24.945,0,27,8,2,3,3,3,4
24.95,2,17,1,4,2,0,0,2
24.955,5,17,6,1,1,0,1,2
24.96,3,5,10,3,3,1,2,3
24.965,3,6,5,4,3,3,4,2
24.97,0,11,1,1,1,1,1,0
24.975,0,3,0,0,2,1,2,0
24.98,2,2,0,1,3,1,1,0
24.985,1,5,3,0,2,1,1,0
24.99,1,4,2,1,1,2,2,3
24.995,2,4,14,1,0,0,1,2
25,1,2,7,0,0,2,1,0
25.005,5,3,20,4,4,2,3,4
25.01,0,3,3,0,2,2,2,1
25.015,6,11,2,3,3,3,1,0
25.02,2,4,4,1,0,3,1,0
25.025,6,0,4,2,3,6,0,0
25.03,5,2,3,6,5,3,3,3
25.035,12,9,1,2,1,1,1,3
25.04,1,1,5,5,0,0,0,1
25.045,5,4,19,11,3,4,3,0
25.05,0,6,1,2,2,0,4,2
25.055,1,1,3,0,0,2,2,0
25.06,1,2,2,1,0,2,2,1
25.065,3,2,6,6,1,3,3,2
25.07,0,5,0,0,0,2,1,0
25.075,1,1,6,6,4,2,0,1
25.08,2,1,4,1,3,0,6,3
25.085,1,1,1,0,2,1,2,1
25.09,4,3,1,2,2,4,2,4
25.095,2,2,0,1,3,2,8,0
25.1,2,8,7,1,2,11,18,6
25.105,2,0,5,1,1,9,8,2
25.11,0,1,1,0,2,4,6,20
25.115,7,5,7,1,4,6,22,43
25.12,2,0,0,3,1,1,2,5
25.125,1,3,6,2,1,4,1,1
25.13,3,11,1,1,0,1,5,4
25.135,0,8,5,2,2,4,1,13
25.14,4,4,1,1,1,4,4,1
25.145,2,6,12,2,2,3,2,3
25.15,1,0,36,5,1,0,1,0
25.155,1,2,2,4,0,2,5,4
25.16,1,5,4,0,2,4,5,7
25.165,1,5,4,1,0,2,8,1
25.17,0,9,9,1,0,2,22,2
25.175,4,3,0,1,1,1,29,21
25.18,6,8,5,5,4,2,22,13
25.185,4,3,4,1,4,10,32,1
25.19,2,4,7,1,0,5,20,31
25.195,10,4,11,8,2,4,26,62
25.2,9,1,2,5,4,2,17,24
25.205,22,6,6,1,2,4,5,58
25.21,8,11,2,1,2,0,24,52
25.215,23,8,3,1,2,1,3,66
25.22,9,4,6,2,2,4,16,38
25.225,6,3,5,0,0,2,49,4
25.23,0,11,2,1,2,1,55,30
25.235,6,1,5,2,2,3,37,36
25.24,1,9,5,1,4,5,15,8
25.245,1,28,13,2,1,0,21,40
25.25,23,2,23,2,1,3,34,64
25.255,4,7,50,7,2,6,18,10
25.26,16,2,9,2,4,9,33,54
25.265,8,37,12,1,6,14,46,3
25.27,15,49,3,2,3,12,31,0
25.275,42,55,21,5,0,14,32,6
25.28,2,28,10,3,2,4,12,91
25.285,10,25,1,5,7,4,63,1
25.29,5,30,20,6,3,8,28,3
25.295,5,91,42,4,8,6,67,113
25.3,1,60,3,2,0,12,39,67
25.305,6,58,24,7,8,9,69,49
25.31,4,38,8,1,4,4,41,51
25.315,32,13,44,3,0,4,12,79
25.32,21,36,38,2,2,5,33,95
25.325,25,31,11,10,17,24,39,95
25.33,5,14,13,1,0,22,75,65
25.335,25,6,17,0,5,3,8,4
25.34,13,17,2,0,0,11,31,39
25.345,36,80,26,7,7,8,7,0
25.35,4,11,8,4,5,30,32,29
25.355,4,16,47,7,1,11,2,86
25.36,12,5,10,8,11,37,85,98
25.365,29,7,12,8,9,31,56,6
25.37,27,22,33,3,1,6,0,56
25.375,32,23,1,5,7,9,13,23
25.38,6,9,6,4,0,3,50,48
25.385,18,62,21,3,8,5,11,68
25.39,64,16,13,11,15,31,73,113
25.395,7,31,7,10,9,11,42,23
25.4,21,6,13,8,6,10,67,40
25.405,56,27,7,1,3,2,10,95
25.41,46,45,0,10,8,11,75,45
25.415,9,9,9,2,1,10,16,85
25.42,2,22,10,6,6,2,44,58
25.425,19,2,6,3,2,17,35,50
25.43,9,42,16,5,3,22,22,22
25.435,11,12,12,3,4,5,1,31
25.44,19,0,3,1,2,3,3,40
25.445,4,10,6,3,0,17,25,35
25.45,0,17,19,4,1,12,26,7
25.455,13,26,1,6,5,2,1,9
25.46,19,10,4,0,0,7,25,36
25.465,2,46,4,5,6,17,47,2
25.47,5,2,9,2,2,2,2,2
25.475,9,9,29,4,4,1,10,23
25.48,8,33,0,6,4,1,15,18
25.485,23,6,1,3,2,3,1,39
25.49,2,3,23,5,1,9,19,11
25.495,8,15,24,6,4,11,43,34
25.5,16,14,8,2,3,24,55,41
25.505,17,10,1,0,0,0,17,55
25.51,6,8,12,2,3,4,1,5
25.515,16,29,18,4,3,19,53,66
25.52,4,3,1,6,2,14,15,15
25.525,17,1,11,5,6,5,6,17
25.53,12,2,21,6,3,2,1,0
25.535,11,7,5,2,4,6,14,29
25.54,0,21,8,1,1,3,15,44
25.545,8,4,19,5,3,9,10,22
25.55,8,6,12,3,1,1,9,15
25.555,6,7,5,2,1,0,16,4
25.56,5,5,9,4,3,4,1,2
25.565,0,6,13,4,2,5,19,13
25.57,9,20,18,6,0,6,7,5
25.575,5,5,11,1,1,1,2,29
25.58,4,9,4,1,1,8,10,13
25.585,4,9,4,4,3,0,9,4
25.59,4,15,8,2,1,8,20,9
25.595,2,4,17,4,2,1,5,6
25.6,4,22,63,6,1,6,4,4
25.605,4,7,6,9,2,7,7,16
25.61,4,0,25,6,3,4,3,9
25.615,3,10,14,1,4,11,18,10
25.62,4,2,27,2,2,2,8,5
25.625,3,3,6,1,0,1,4,1
25.63,1,6,23,3,3,2,8,3
25.635,0,3,10,3,1,4,4,9
25.64,1,7,3,2,3,3,7,9
25.645,2,8,3,3,2,4,4,5
25.65,6,22,10,8,3,0,5,6
25.655,6,1,13,1,1,7,30,2
25.66,0,9,13,0,1,3,16,1
25.665,2,2,7,4,4,7,11,2
25.67,1,1,5,1,3,7,13,6
25.675,5,9,2,0,4,13,64,0
25.68,3,5,19,7,7,3,26,4
25.685,5,1,10,4,2,0,0,1
25.69,1,6,34,8,6,6,8,2
25.695,2,13,28,4,4,0,9,6
25.7,3,51,36,12,1,1,4,2
25.705,0,5,13,1,2,2,1,5
25.71,0,4,25,22,5,2,4,0
25.715,3,8,3,4,2,2,2,2
25.72,9,28,39,4,5,3,4,4
25.725,8,18,20,6,1,1,4,1
25.73,4,11,12,2,1,0,3,1
25.735,3,10,12,1,3,3,1,5
25.74,2,8,0,1,2,1,0,0
25.745,1,27,11,4,1,2,1,2
25.75,2,12,3,2,4,5,0,2
25.755,2,8,7,3,1,1,1,1
25.76,2,4,7,1,2,1,4,1
25.765,1,7,13,5,3,0,0,0
25.77,3,7,24,9,0,0,1,4
25.775,3,2,7,3,1,1,5,3
25.78,0,8,18,8,1,1,3,2
25.785,0,26,9,4,1,1,0,3
25.79,2,3,1,2,4,2,0,0
25.795,0,1,6,1,1,2,2,2
25.8,0,2,18,5,2,1,0,1
25.805,3,8,9,5,3,1,2,2
25.81,1,10,14,10,2,1,3,2
25.815,0,5,1,5,0,2,1,1
25.82,2,9,3,19,1,1,0,0
25.825,5,7,6,2,0,3,2,3
25.83,2,3,19,1,1,1,3,0
25.835,3,5,11,2,2,2,1,2
25.84,7,19,16,1,1,4,2,3
25.845,7,19,9,7,1,1,0,1
25.85,0,12,3,4,3,2,3,1
25.855,1,1,0,1,1,0,2,1
25.86,1,2,8,2,4,2,2,1
25.865,1,8,4,2,2,3,1,1
25.87,1,4,4,1,2,3,6,1
25.875,3,7,23,7,4,4,3,2
25.88,0,1,6,1,1,0,1,0
25.885,2,6,10,2,2,0,2,1
25.89,1,5,15,0,0,0,0,2
25.895,3,5,5,1,1,1,2,2
25.9,2,2,4,1,3,2,2,2
25.905,6,11,10,4,1,2,1,2
25.91,0,4,2,0,2,3,3,1
25.915,0,0,1,3,0,2,1,1
25.92,1,3,3,2,1,2,3,1
25.925,4,5,7,1,0,0,0,1
25.93,3,4,1,3,0,3,3,3
25.935,10,0,2,1,3,3,0,0
25.94,7,23,7,1,1,0,2,3
25.945,3,4,11,1,3,5,4,2
25.95,6,13,1,3,4,6,3,4
25.955,0,2,1,1,2,1,1,2
25.96,3,12,1,1,2,1,3,3
25.965,1,3,4,3,2,2,1,0
25.97,2,5,2,0,0,3,2,2
25.975,3,6,2,0,0,2,0,1
25.98,2,1,1,1,1,0,1,1
25.985,6,9,5,2,2,2,3,2
25.99,2,3,2,4,1,1,1,3
25.995,1,9,20,1,0,3,2,1
26,2,0,2,1,0,1,1,0
26.005,9,25,72,16,5,4,6,6
26.01,2,4,20,3,1,2,0,2
26.015,1,0,5,1,2,0,2,1
26.02,3,3,12,2,2,3,3,2
26.025,6,7,26,6,3,2,1,1
26.03,0,13,2,2,4,3,2,1
26.035,0,0,12,4,5,3,3,2
26.04,2,7,3,3,1,3,2,2
26.045,0,14,8,1,1,1,1,1
26.05,1,6,1,1,2,3,2,1
26.055,1,11,1,1,1,3,2,0
26.06,8,29,0,4,2,1,0,2
26.065,6,13,3,1,2,1,0,0
26.07,2,2,6,1,2,0,1,1
26.075,2,12,8,1,0,3,1,3
26.08,4,13,9,4,4,3,3,3
26.085,8,11,10,0,1,2,1,0
26.09,0,8,7,1,1,0,1,1
26.095,4,4,8,3,1,0,0,2
26.1,1,2,6,1,2,0,1,1
26.105,1,2,3,2,0,3,0,1
26.11,7,6,10,0,0,0,1,1
26.115,2,4,8,5,3,1,0,0
26.12,5,5,1,2,0,2,1,2
26.125,2,4,3,0,1,2,1,0
26.13,2,3,2,1,2,1,2,0
26.135,2,12,2,1,2,2,1,0
26.14,4,0,2,0,1,1,3,0
26.145,0,6,5,2,0,3,0,1
26.15,2,7,5,4,4,2,2,0
26.155,0,0,3,0,1,2,0,2
26.16,3,16,3,2,1,1,2,3
26.165,1,2,2,1,1,3,1,2
26.17,6,19,5,3,0,1,3,3
26.175,1,2,1,5,1,1,1,0
26.18,1,6,21,4,2,2,1,2
26.185,4,2,1,5,0,0,1,1
26.19,2,1,4,4,2,1,2,0
26.195,1,4,2,2,2,1,2,3
26.2,1,1,5,0,1,2,0,1
26.205,0,1,1,2,0,1,0,1
26.21,1,1,2,2,3,1,1,0
26.215,4,0,6,3,0,3,1,0
26.22,3,1,3,2,1,0,2,1
26.225,2,3,3,1,1,3,1,1
26.23,0,2,0,0,0,1,1,1
26.235,3,6,4,0,3,3,3,3
26.24,2,1,10,1,4,2,2,1
26.245,0,5,2,1,2,4,0,0
26.25,1,3,2,1,0,2,1,1
26.255,0,1,2,3,1,1,0,1
26.26,13,6,2,1,0,0,2,0
26.265,1,6,2,0,2,4,2,3
26.27,1,1,0,1,0,1,1,1
26.275,2,2,4,1,2,0,1,0
26.28,2,4,2,0,0,2,4,1
26.285,2,2,1,2,1,3,0,1
26.29,1,22,8,2,2,3,5,4
26.295,4,13,1,1,1,0,0,2
26.3,1,1,3,2,1,1,1,1
26.305,3,3,8,4,3,3,2,2
26.31,2,3,0,4,2,5,1,2
26.315,3,6,0,1,0,0,2,2
26.32,1,2,2,0,3,0,0,1
26.325,2,2,1,0,1,1,1,1
26.33,2,4,1,1,2,1,1,0
26.335,1,7,1,1,1,0,5,3
26.34,5,14,3,3,3,5,8,14
26.345,0,4,2,2,1,2,2,2
26.35,10,2,2,1,1,2,3,3
26.355,2,1,3,1,1,0,1,0
26.36,4,10,2,2,3,2,1,1
26.365,1,4,5,3,5,2,2,1
26.37,9,8,2,1,2,3,5,9
26.375,8,8,7,3,1,0,2,19
26.38,4,7,4,1,1,2,1,1
26.385,2,4,4,2,6,4,5,7
26.39,5,5,1,0,1,2,4,4
26.395,4,4,1,1,2,2,3,3
26.4,2,1,4,0,2,0,3,15
26.405,1,1,2,3,0,0,3,28
26.41,3,2,1,2,0,0,2,0
26.415,10,4,2,0,1,5,2,7
26.42,0,3,5,2,2,5,9,27
26.425,10,18,2,1,2,1,5,10
26.43,7,0,0,0,2,0,2,0
26.435,7,0,0,2,1,4,5,9
26.44,4,3,0,0,2,3,7,20
26.445,0,3,2,0,1,1,7,7
26.45,6,10,5,4,6,3,3,5
26.455,9,13,6,1,3,6,5,12
26.46,13,9,2,1,1,3,1,20
26.465,8,4,2,2,5,7,15,46
26.47,6,1,1,2,0,2,10,50
26.475,27,5,11,9,11,10,14,50
26.48,4,19,9,6,4,6,12,66
26.485,26,29,4,0,6,7,11,30
26.49,2,8,5,1,6,2,8,68
26.495,27,2,1,3,0,10,42,20
26.5,2,18,12,1,0,19,21,22
26.505,2,8,1,3,4,14,11,34
26.51,1,5,5,2,6,5,7,8
26.515,11,7,2,3,4,8,79,77
26.52,54,17,11,6,8,9,68,39
26.525,33,3,1,7,5,10,15,52
26.53,2,8,9,4,3,6,3,16
26.535,1,10,11,10,11,33,47,87
26.54,10,5,14,5,4,31,50,82
26.545,10,11,2,3,1,16,30,15
26.55,29,0,5,5,3,20,25,84
26.555,43,8,0,3,15,8,9,78
26.56,31,1,3,0,14,5,3,30
26.565,1,7,6,2,1,18,9,110
26.57,7,7,9,2,2,16,51,36
26.575,11,6,10,2,9,28,59,35
26.58,27,7,3,9,10,4,35,68
26.585,81,43,21,17,11,7,118,26
26.59,29,13,6,2,9,38,80,76
26.595,29,10,17,2,6,18,8,72
26.6,31,15,15,1,3,6,33,15
26.605,6,16,0,4,2,4,35,49
26.61,14,4,5,5,8,19,85,124
26.615,19,17,18,13,12,21,76,121
26.62,39,32,43,5,2,6,47,16
26.625,75,42,25,18,23,27,86,47
26.63,29,5,35,5,7,3,0,128
26.635,18,4,3,5,4,2,25,58
26.64,58,2,9,6,8,7,30,15
26.645,23,4,40,6,5,11,31,86
26.65,14,12,17,11,0,8,2,41
26.655,14,3,12,3,3,11,27,35
26.66,4,8,7,1,2,12,34,46
26.665,16,13,7,2,4,9,49,2
26.67,7,49,35,0,3,5,37,16
26.675,31,5,5,4,2,16,17,14
26.68,65,21,19,9,7,17,73,65
26.685,25,49,23,6,1,9,42,46
26.69,17,30,4,4,1,6,39,70
26.695,15,9,7,3,0,12,37,10
26.7,30,12,0,5,7,12,31,9
26.705,8,1,14,4,1,5,43,114
26.71,23,12,3,1,4,4,3,93
26.715,20,2,11,6,14,0,51,12
26.72,12,9,2,2,3,9,8,16
26.725,13,3,15,3,5,2,24,52
26.73,0,0,3,1,1,3,22,19
26.735,14,13,3,4,3,11,22,6
26.74,21,11,16,8,3,2,41,22
26.745,3,4,2,3,7,3,24,13
26.75,2,2,15,4,1,3,5,15
26.755,17,2,15,4,0,7,26,55
26.76,6,4,28,7,1,2,28,21
26.765,8,12,50,9,1,10,23,1
26.77,11,13,3,1,1,2,24,10
26.775,9,10,7,0,0,6,27,17
26.78,10,5,14,0,0,6,17,3
26.785,7,4,14,3,1,7,0,8
26.79,2,3,4,1,2,3,7,12
26.795,12,2,8,3,3,6,8,19
26.8,8,6,3,1,1,1,0,18
26.805,3,2,7,0,1,10,24,31
26.81,5,13,13,5,3,19,52,12
26.815,10,11,0,0,3,0,3,7
26.82,2,8,7,2,1,3,12,3
26.825,8,2,4,0,0,4,7,7
26.83,1,6,11,1,1,7,9,3
26.835,1,16,6,1,3,4,12,5
26.84,7,29,27,4,1,1,7,3
26.845,3,4,16,1,0,5,2,9
26.85,4,15,89,11,5,9,8,6
26.855,10,10,6,4,2,4,7,17
26.86,2,5,13,0,0,0,3,3
26.865,4,6,27,6,2,2,4,1
26.87,0,13,26,6,1,2,4,0
26.875,3,4,13,1,2,2,6,3
26.88,2,3,2,1,2,4,2,0
26.885,2,4,5,5,3,2,0,1
26.89,3,5,5,3,1,0,1,4
26.895,2,1,2,4,0,4,5,5
26.9,5,12,16,1,1,0,2,3
26.905,0,1,1,5,1,3,1,7
26.91,7,22,39,9,3,4,5,0
26.915,5,9,23,3,4,4,10,1
26.92,7,13,27,10,3,3,0,5
26.925,2,2,9,5,1,0,1,1
26.93,4,14,45,6,1,1,0,0
26.935,1,1,12,2,0,0,0,0
26.94,0,5,16,3,0,1,0,3
26.945,10,11,8,5,1,0,1,1
26.95,3,5,25,11,1,4,1,2
26.955,0,0,6,0,2,1,1,3
26.96,6,4,16,12,3,1,3,2
26.965,2,16,44,1,3,2,2,4
26.97,1,1,7,3,2,2,2,1
26.975,0,5,4,2,1,0,1,2
26.98,4,7,8,6,2,0,1,1
26.985,1,6,17,1,3,1,3,3
26.99,1,1,15,3,1,2,1,1
26.995,0,2,20,5,1,2,3,1
27,1,2,2,3,2,0,1,0
27.005,1,3,7,1,1,2,0,2
27.01,1,14,28,6,1,2,2,1
27.015,5,11,34,5,3,1,1,4
27.02,8,32,84,19,5,3,2,2
27.025,11,17,31,17,9,7,6,8
27.03,2,1,31,7,2,1,1,0
27.035,1,5,21,4,1,0,0,1
27.04,0,5,22,3,1,1,1,0
27.045,3,12,25,3,1,1,1,1
27.05,3,0,11,5,0,1,1,0
27.055,5,8,10,6,2,2,2,3
27.06,3,3,14,4,1,2,1,1
27.065,2,2,9,2,2,0,2,0
27.07,2,1,15,2,2,0,1,3
27.075,0,8,33,4,1,1,0,0
27.08,5,1,10,2,1,2,3,2
27.085,4,12,25,5,2,0,1,1
27.09,1,4,12,2,0,1,1,0
27.095,6,10,3,10,6,4,4,4
27.1,9,2,14,1,3,2,1,2
27.105,5,11,25,7,2,2,4,0
27.11,1,5,10,3,0,0,1,0
27.115,0,3,20,8,2,2,2,1
27.12,2,11,38,5,1,4,0,0
27.125,2,11,26,9,2,2,2,2
27.13,1,1,6,3,1,1,0,0
27.135,2,0,36,2,0,1,1,1
27.14,4,18,89,11,6,4,4,4
27.145,1,2,2,1,1,0,0,1
27.15,6,10,24,10,3,4,4,6
27.155,3,12,22,7,4,2,0,1
27.16,8,7,55,7,1,0,0,1
27.165,2,3,8,2,0,1,0,0
27.17,4,18,71,8,3,2,2,0
27.175,8,12,19,5,6,5,3,7
27.18,0,5,30,2,2,1,1,0
27.185,1,3,2,0,1,0,1,0
27.19,1,10,44,3,0,1,1,1
27.195,0,0,28,2,0,2,3,2
27.2,3,6,31,0,3,4,1,1
27.205,0,4,2,0,1,0,0,1
27.21,1,5,1,2,2,2,1,0
27.215,7,14,57,7,4,3,4,3
27.22,2,1,21,1,4,2,4,3
27.225,0,2,6,2,0,1,1,2
27.23,1,2,1,3,2,0,1,3
27.235,1,6,1,1,0,1,1,0
27.24,3,2,12,6,2,0,2,2
27.245,1,2,10,0,2,4,1,2
27.25,1,7,18,2,0,3,1,1
27.255,7,15,19,6,4,3,2,3
27.26,1,4,4,0,0,0,1,1
27.265,0,2,6,3,0,0,0,0
27.27,2,4,4,1,3,0,3,0
27.275,1,5,9,0,0,1,1,1
27.28,5,11,6,0,0,3,3,3
27.285,1,1,1,2,1,2,3,4
27.29,2,1,4,0,0,1,1,1
27.295,1,5,5,1,1,1,0,1
27.3,0,1,11,2,2,2,1,1
27.305,2,2,9,1,1,2,0,1
27.31,4,10,12,4,2,2,1,2
27.315,3,0,4,3,3,2,3,2
27.32,2,4,10,2,0,2,0,1
27.325,0,1,2,2,1,1,1,0
27.33,0,3,17,5,0,1,0,0
27.335,9,27,12,6,2,1,0,2
27.34,0,3,23,2,2,1,1,0
27.345,2,2,10,2,0,2,2,2
27.35,0,4,5,0,0,1,0,1
27.355,0,1,6,2,1,1,1,0
27.36,3,5,4,3,2,1,2,1
27.365,1,7,3,1,0,1,2,2
27.37,7,8,1,2,0,1,0,2
27.375,1,1,17,2,1,2,1,0
27.38,3,6,21,4,1,1,2,1
27.385,2,6,0,1,0,0,1,1
27.39,2,8,6,0,3,2,0,1
27.395,0,4,1,3,0,1,0,0
27.4,1,7,8,0,0,2,1,1
27.405,1,1,9,3,0,1,0,1
27.41,1,4,1,3,2,4,2,1
27.415,1,3,9,3,0,2,1,1
27.42,1,3,1,3,1,1,1,2
27.425,6,10,42,11,4,5,4,4
27.43,3,4,1,2,2,1,1,1
27.435,5,9,4,1,1,3,1,0
27.44,2,6,13,4,1,1,2,1
27.445,2,4,8,0,0,3,1,1
27.45,2,9,7,2,1,0,1,2
27.455,2,5,9,1,1,4,3,2
27.46,3,0,3,2,3,2,4,2
27.465,0,4,4,0,2,1,0,2
27.47,3,7,4,1,0,1,0,1
27.475,3,2,4,1,2,3,2,3
27.48,1,0,2,1,1,0,0,1
27.485,0,0,7,0,3,2,0,0
27.49,1,1,1,0,1,2,4,3
27.495,3,0,4,2,1,2,1,2
27.5,1,0,3,2,3,0,3,1
27.505,1,0,1,1,3,3,2,0
27.51,2,1,5,2,0,0,1,1
27.515,3,5,5,2,0,1,1,0
27.52,4,4,1,1,1,1,1,1
27.525,0,0,3,2,2,1,1,1
27.53,3,11,4,3,1,1,3,2
27.535,2,4,3,3,3,2,2,2
27.54,4,3,3,1,4,4,3,3
27.545,2,2,1,1,3,1,2,1
27.55,1,2,4,3,1,3,0,3
27.555,1,4,1,2,1,2,1,1
27.56,1,0,1,0,0,1,0,1
27.565,3,6,1,1,1,0,2,2
27.57,2,2,1,1,2,0,1,1
27.575,0,2,4,2,2,3,1,3
27.58,1,2,1,0,1,1,1,1
27.585,2,1,2,3,1,0,2,2
27.59,2,4,1,1,1,3,0,1
27.595,2,5,3,2,0,2,0,2
27.6,4,5,4,2,2,5,4,1
27.605,2,2,1,1,2,4,3,2
27.61,0,0,0,2,2,0,4,0
27.615,1,1,0,4,0,2,2,0
27.62,0,0,1,0,1,3,1,1
27.625,2,2,2,3,0,0,1,1
27.63,4,5,2,4,3,3,2,1
27.635,5,2,14,1,1,0,5,3
27.64,2,9,12,3,1,1,3,3
27.645,6,3,2,1,0,3,0,4
27.65,4,6,2,0,3,1,2,1
27.655,4,3,4,3,3,4,3,2
27.66,2,4,2,0,0,1,0,2
27.665,2,2,3,3,0,1,1,2
27.67,1,7,5,0,0,0,5,1
27.675,5,7,3,1,1,1,4,1
27.68,2,3,4,1,2,3,9,6
27.685,2,1,3,1,0,4,8,11
27.69,1,3,4,3,2,2,5,3
27.695,12,2,4,0,1,1,14,1
27.7,5,4,0,2,3,7,11,2
27.705,4,1,2,0,1,2,5,5
27.71,2,3,7,0,0,2,19,17
27.715,1,1,8,1,0,0,25,16
27.72,2,7,5,7,7,7,36,32
27.725,3,14,8,2,4,8,2,9
27.73,2,1,15,4,4,1,17,3
27.735,9,3,31,7,8,5,30,4
27.74,2,1,12,15,8,4,8,5
27.745,3,3,0,7,7,3,14,9
27.75,3,1,1,7,12,2,25,28
27.755,2,2,5,9,1,8,16,42
27.76,12,10,6,2,4,12,17,46
27.765,8,3,1,6,3,4,13,11
27.77,4,12,12,4,5,1,11,11
27.775,7,26,12,5,7,7,8,54
27.78,12,7,9,7,2,10,3,10
27.785,3,16,9,7,4,0,2,36
27.79,1,3,1,4,4,17,18,26
27.795,10,9,3,4,5,7,5,31
27.8,6,4,3,0,0,9,49,58
27.805,17,2,0,2,3,8,24,26
27.81,9,11,9,2,3,15,15,19
27.815,18,16,12,2,0,1,34,39
27.82,13,12,6,0,6,2,72,71
27.825,23,10,7,0,6,3,10,72
27.83,7,12,5,6,6,11,71,15
27.835,7,15,0,5,5,4,87,31
27.84,1,17,3,9,9,30,11,53
27.845,5,19,26,8,12,1,3,14
27.85,20,48,18,2,7,8,47,2
27.855,68,20,2,8,14,0,127,53
27.86,5,0,5,3,5,0,99,113
27.865,8,15,10,2,1,10,22,25
27.87,2,1,36,8,1,10,65,74
27.875,12,15,8,2,4,11,55,14
27.88,17,19,11,9,5,10,44,117
27.885,38,20,2,4,4,18,23,66
27.89,12,28,30,11,11,2,0,36
27.895,50,38,33,5,12,35,60,83
27.9,56,33,29,1,3,24,3,128
27.905,55,14,6,6,16,3,16,78
27.91,24,11,2,15,43,16,11,64
27.915,3,17,22,10,9,11,14,51
27.92,33,9,18,10,18,7,11,47
27.925,40,32,26,2,5,12,64,127
27.93,50,12,27,9,36,49,6,107
27.935,6,12,41,9,15,17,29,8
27.94,7,14,4,0,4,5,1,67
27.945,10,9,30,2,15,1,39,79
27.95,23,9,32,8,6,2,21,51
27.955,0,0,5,4,11,12,28,20
27.96,47,22,17,11,12,33,22,92
27.965,8,19,4,5,3,4,43,64
27.97,19,2,15,2,2,9,18,81
27.975,52,27,12,13,22,1,20,34
27.98,1,25,1,2,1,15,10,52
27.985,4,6,12,8,6,11,42,42
27.99,6,5,1,3,11,7,21,58
27.995,22,22,8,3,6,17,10,3
28,21,8,18,11,8,7,15,8
28.005,17,15,8,4,5,10,6,12
28.01,8,8,15,6,8,1,35,63
28.015,4,14,2,1,5,4,41,128
28.02,2,16,5,0,5,8,57,19
28.025,1,45,19,5,3,5,0,8
28.03,6,12,13,8,3,8,20,26
28.035,11,3,14,1,6,9,12,107
28.04,27,18,13,0,1,42,86,49
28.045,25,2,2,7,12,1,6,48
28.05,3,14,3,1,3,14,15,41
28.055,27,20,4,3,7,2,7,45
28.06,5,21,28,5,1,15,17,48
28.065,9,6,30,8,0,3,5,7
28.07,9,10,37,7,5,10,1,43
28.075,11,3,12,1,2,1,9,9
28.08,5,2,16,0,2,6,17,8
28.085,2,14,11,0,2,1,1,22
28.09,3,18,19,2,2,7,17,1
28.095,4,11,3,2,1,4,15,8
28.1,8,3,0,0,5,6,13,3
28.105,9,8,0,2,2,1,1,27
28.11,6,1,6,1,2,7,1,11
28.115,5,8,13,3,1,2,6,18
28.12,3,4,8,0,3,6,6,5
28.125,4,9,11,3,3,2,4,8
28.13,4,10,31,7,6,2,8,20
28.135,10,12,3,2,4,4,0,19
28.14,3,5,11,7,2,9,14,20
28.145,1,1,6,2,0,1,13,11
28.15,7,3,34,4,1,0,12,13
28.155,8,2,8,0,2,1,6,7
28.16,5,47,29,7,2,6,3,13
28.165,9,9,3,6,2,3,9,7
28.17,0,7,7,3,1,1,1,10
28.175,1,6,1,4,1,2,0,3
28.18,2,10,14,3,0,1,0,2
28.185,0,6,4,2,1,3,1,3
28.19,1,6,11,5,1,3,5,2
28.195,5,13,6,6,0,1,2,1
28.2,3,1,24,10,0,1,4,1
28.205,3,8,9,6,1,0,2,7
28.21,11,44,84,15,4,3,2,5
28.215,5,2,20,0,1,5,11,9
28.22,1,8,6,1,0,2,7,0
28.225,1,14,20,3,1,1,1,1
28.23,3,18,36,6,1,0,4,2
28.235,1,6,20,7,3,2,2,4
28.24,1,1,5,0,4,3,9,2
28.245,0,7,7,2,2,1,1,2
28.25,6,6,50,6,3,3,3,7
28.255,1,1,10,3,2,2,2,0
28.26,0,14,15,0,1,3,4,1
28.265,1,6,3,3,1,0,1,0
28.27,0,1,22,0,0,1,1,2
28.275,6,11,41,11,3,2,1,4
28.28,2,1,7,3,0,0,4,2
28.285,0,1,8,0,0,1,3,2
28.29,2,6,12,3,3,0,2,1
28.295,3,17,34,11,1,1,3,3
28.3,0,0,17,3,0,1,4,1
28.305,11,36,92,23,9,5,4,4
28.31,5,21,33,1,1,4,1,5
28.315,4,6,3,0,1,1,2,1
28.32,1,1,8,2,0,2,3,2
28.325,4,15,19,7,2,1,2,1
28.33,3,1,13,4,1,0,2,0
28.335,1,4,2,0,3,1,0,2
28.34,2,6,9,4,1,3,5,0
28.345,3,18,9,8,0,2,2,1
28.35,2,7,25,1,3,3,2,2
28.355,5,15,46,8,2,3,2,4
28.36,2,3,27,6,4,1,2,0
28.365,7,11,24,6,4,5,3,3
28.37,5,19,51,9,3,2,2,2
28.375,2,5,19,3,1,2,1,1
28.38,11,34,93,24,8,7,5,6
28.385,5,6,12,6,3,2,2,5
28.39,2,7,12,3,3,1,0,4
28.395,0,1,4,1,3,1,1,2
28.4,2,3,22,3,1,1,1,1
28.405,0,6,10,2,0,1,2,1
28.41,0,6,5,1,1,3,1,1
28.415,1,7,4,0,1,0,1,2
28.42,3,4,13,7,2,3,2,0
28.425,3,8,16,4,3,2,3,2
28.43,2,11,31,3,4,1,3,1
28.435,3,14,24,7,5,1,2,2
28.44,3,3,5,1,1,1,1,1
28.445,2,9,24,0,0,1,0,2
28.45,4,4,17,1,2,2,1,1
28.455,2,5,24,1,2,4,2,1
28.46,10,26,5,0,0,1,2,3
28.465,0,1,8,0,0,0,0,1
28.47,3,7,3,2,1,1,1,2
28.475,0,8,1,0,1,2,0,1
28.48,1,2,30,7,3,3,0,2
28.485,2,4,14,4,1,3,1,2
28.49,3,6,3,5,5,6,5,5
28.495,10,20,68,9,6,4,2,6
28.5,1,4,32,6,1,2,0,2
28.505,4,12,28,4,3,1,1,2
28.51,2,10,20,5,1,1,2,2
28.515,2,2,1,1,2,2,2,1
28.52,3,3,3,1,3,4,5,2
28.525,1,9,5,1,2,3,2,0
28.53,4,5,19,9,6,6,2,4
28.535,3,8,1,1,1,4,4,1
28.54,3,2,9,1,2,2,1,0
28.545,0,2,2,2,1,2,1,0
28.55,2,0,1,1,1,5,3,1
28.555,1,4,1,5,4,4,1,1
28.56,1,8,4,2,2,6,4,3
28.565,1,5,11,2,1,1,2,2
28.57,2,5,33,8,2,3,4,0
28.575,2,4,8,2,2,1,1,1
28.58,5,9,4,3,0,2,2,2
28.585,1,4,13,1,1,2,0,0
28.59,0,4,15,2,1,1,1,1
28.595,1,2,2,1,1,1,1,1
28.6,4,2,4,4,2,0,1,2
28.605,0,2,4,1,0,1,2,1
28.61,0,3,6,7,4,1,1,1
28.615,3,6,8,3,1,1,0,0
28.62,1,1,2,1,2,2,1,0
28.625,3,1,2,2,3,3,0,2
28.63,1,7,13,5,1,1,1,0
28.635,5,13,6,10,1,2,3,4
28.64,4,12,15,7,4,3,4,5
28.645,2,1,4,0,1,0,0,2
28.65,1,9,3,3,0,2,2,1
28.655,2,8,21,2,1,1,1,1
28.66,1,4,4,0,0,1,1,0
28.665,2,7,10,4,3,2,1,2
28.67,2,4,7,1,1,0,2,2
28.675,1,0,4,1,2,1,1,3
28.68,0,2,4,1,0,2,0,3
28.685,3,0,1,2,2,2,1,1
28.69,0,4,11,4,1,1,3,1
28.695,9,21,50,10,5,4,1,5
28.7,0,1,2,0,4,2,1,1
28.705,4,4,4,2,1,1,0,0
28.71,2,10,0,0,1,2,1,0
28.715,2,4,13,4,3,1,0,2
28.72,1,1,6,1,0,1,1,0
28.725,2,6,15,6,3,1,1,2
28.73,4,3,0,0,1,0,1,0
28.735,0,2,6,2,3,2,0,0
28.74,2,2,2,1,1,1,0,1
28.745,1,1,7,1,1,1,1,0
28.75,6,5,14,4,1,3,2,5
28.755,0,1,8,0,1,0,2,0
28.76,1,1,2,1,3,2,2,0
28.765,1,2,1,1,0,1,0,1
28.77,1,4,11,3,3,1,1,0
28.775,3,6,9,4,2,2,3,3
28.78,4,4,13,7,1,3,4,3
28.785,2,2,1,0,1,1,2,0
28.79,1,2,0,0,0,3,3,1
28.795,1,5,4,4,1,1,0,1
28.8,0,1,1,4,1,0,2,2
28.805,2,2,0,2,1,1,2,1
28.81,2,4,3,1,2,1,2,0
28.815,1,0,1,0,1,3,2,1
28.82,4,2,1,1,2,1,1,1
28.825,1,2,4,0,2,3,1,1
28.83,2,1,5,0,1,1,1,1
28.835,1,2,5,2,1,1,0,1
28.84,0,3,5,0,0,2,1,0
28.845,4,5,1,2,5,6,3,3
28.85,0,5,12,6,4,5,1,2
28.855,2,2,1,0,0,0,0,2
28.86,1,5,3,1,0,2,0,1
28.865,1,2,3,1,1,1,1,3
28.87,3,9,1,1,1,0,0,3
28.875,4,4,0,2,1,1,2,1
28.88,5,1,1,0,1,0,2,2
28.885,1,3,4,4,4,1,2,2
28.89,1,1,0,0,1,1,2,0
28.895,6,3,4,1,4,4,1,1
28.9,13,1,1,3,1,5,4,4
28.905,3,1,0,3,1,1,2,0
28.91,1,2,0,1,2,2,1,1
28.915,5,4,3,0,1,0,0,1
28.92,2,1,0,1,1,2,1,2
28.925,2,1,1,1,0,2,1,0
28.93,1,0,7,4,1,1,1,0
28.935,1,1,1,2,1,3,4,2
28.94,1,7,4,0,1,2,17,1
28.945,6,7,3,0,0,2,0,18
28.95,3,5,5,1,0,1,7,2
28.955,9,18,1,2,2,3,0,0
28.96,8,10,7,0,3,2,12,15
28.965,3,12,31,5,4,3,9,15
28.97,15,11,4,1,1,4,6,50
28.975,11,6,3,2,2,8,36,27
28.98,7,13,2,1,0,7,55,18
28.985,13,9,21,1,1,0,9,3
28.99,7,27,21,6,5,4,10,11
28.995,6,8,1,2,0,1,15,12
29,8,14,7,6,5,1,19,1
29.005,2,5,5,1,0,4,12,14
29.01,2,5,2,0,1,7,38,10
29.015,5,4,3,2,1,2,8,10
29.02,4,12,18,7,3,4,13,4
29.025,2,7,6,1,2,3,2,3
29.03,2,14,5,1,0,0,13,27
29.035,0,2,7,2,1,0,11,12
29.04,0,3,2,1,1,1,33,3
29.045,5,8,2,4,0,5,32,26
29.05,1,10,1,3,5,9,1,19
29.055,8,1,9,4,1,12,42,20
29.06,0,1,5,4,1,4,26,28
29.065,9,14,2,0,1,3,9,26
29.07,0,7,1,2,1,4,2,21
29.075,5,2,1,4,6,3,19,9
29.08,6,0,2,7,4,2,10,17
29.085,10,3,5,1,4,1,15,54
29.09,6,7,16,3,1,4,9,15
29.095,15,14,15,5,1,3,47,62
29.1,9,9,33,8,4,9,51,63
29.105,41,33,10,4,11,18,24,35
29.11,9,21,20,0,0,4,22,66
29.115,21,20,29,9,8,8,31,75
29.12,13,3,1,10,10,10,39,106
29.125,16,12,10,5,4,4,37,79
29.13,18,25,17,6,5,19,58,64
29.135,2,10,23,6,6,14,15,93
29.14,13,26,1,3,2,5,7,35
29.145,1,0,6,7,7,8,55,45
29.15,45,56,8,2,0,4,42,80
29.155,40,10,1,0,4,15,69,114
29.16,35,44,4,1,8,38,105,85
29.165,13,92,49,3,1,16,16,78
29.17,43,34,19,7,11,10,10,42
29.175,49,36,4,2,2,13,28,18
29.18,9,43,33,13,7,7,24,112
29.185,28,4,19,6,12,11,3,128
29.19,47,18,40,4,3,1,6,43
29.195,26,55,28,8,6,2,24,41
29.2,28,7,29,5,6,24,18,69
29.205,27,81,38,2,2,16,91,16
29.21,6,31,4,11,11,7,5,8
29.215,35,1,39,10,4,25,91,28
29.22,11,14,40,4,3,22,16,20
29.225,74,23,18,16,20,43,74,53
29.23,9,2,29,13,10,1,28,128
29.235,18,26,2,13,12,3,35,121
29.24,13,25,80,9,12,44,89,74
29.245,5,13,16,2,4,8,4,93
29.25,2,6,15,5,1,1,19,40
29.255,25,89,31,7,6,13,34,68
29.26,5,45,24,1,3,4,32,48
29.265,10,22,1,1,1,8,7,23
29.27,0,27,8,3,3,9,21,55
29.275,17,36,14,1,1,11,21,128
29.28,33,15,25,1,6,1,21,7
29.285,30,37,5,2,4,3,19,7
29.29,4,17,2,5,3,12,23,8
29.295,36,14,24,6,6,18,19,35
29.3,6,5,24,0,0,2,19,18
29.305,24,20,7,0,1,2,6,25
29.31,18,11,18,6,4,3,16,23
29.315,4,28,4,0,0,5,16,87
29.32,8,11,21,7,9,18,13,72
29.325,1,14,5,0,1,3,15,31
29.33,12,29,2,6,2,7,19,8
29.335,13,48,2,4,2,7,10,2
29.34,15,7,11,2,5,4,12,37
29.345,1,22,7,4,3,4,9,15
29.35,8,7,2,0,1,1,2,11
29.355,4,9,9,3,4,1,4,28
29.36,9,1,2,5,5,4,2,18
29.365,1,8,32,3,2,2,2,29
29.37,5,17,5,2,2,4,4,8
29.375,4,31,9,4,2,1,4,21
29.38,6,3,8,2,4,3,1,4
29.385,11,13,22,5,1,0,4,7
29.39,1,19,12,7,2,0,4,3
29.395,8,9,11,7,2,5,10,29
29.4,1,10,14,0,0,0,3,10
29.405,2,8,6,0,1,1,4,2
29.41,1,1,4,0,2,2,1,0
29.415,3,4,2,1,1,4,9,23
29.42,1,2,2,1,4,3,1,14
29.425,1,7,1,3,1,1,3,3
29.43,2,5,10,1,2,1,3,7
29.435,0,2,19,1,1,1,2,2
29.44,5,2,6,1,0,1,5,6
29.445,8,38,53,12,4,5,2,10
29.45,4,19,10,0,1,2,1,2
29.455,3,2,33,5,1,2,5,8
29.46,2,6,1,3,1,3,0,6
29.465,0,7,18,5,3,2,1,8
29.47,12,12,30,13,2,3,1,1
29.475,1,4,12,1,0,0,1,7
29.48,0,4,11,5,1,2,1,0
29.485,5,17,38,8,2,1,2,4
29.49,2,11,11,3,3,2,2,2
29.495,8,3,9,5,5,2,6,9
29.5,8,22,3,3,2,4,1,1
29.505,4,15,1,3,0,2,4,2
29.51,4,1,10,3,2,0,0,1
29.515,3,3,13,0,1,3,1,4
29.52,1,13,14,2,4,0,2,1
29.525,8,3,28,13,4,3,3,4
29.53,13,41,38,6,4,1,1,7
29.535,4,4,7,0,1,4,2,1
29.54,7,15,7,3,0,0,0,2
29.545,0,28,45,6,3,0,1,1
29.55,3,5,2,0,1,1,2,1
29.555,4,8,24,5,2,2,2,3
29.56,1,1,15,3,1,1,0,1
29.565,1,7,0,0,2,1,1,1
29.57,4,2,4,3,1,2,2,1
29.575,5,9,14,5,3,1,2,3
29.58,3,0,10,4,1,0,4,3
29.585,2,2,28,2,2,1,2,3
29.59,5,18,15,4,0,0,1,1
29.595,4,3,22,5,1,2,0,1
29.6,5,5,3,0,1,2,0,0
29.605,5,11,44,9,4,1,1,3
29.61,2,5,22,2,1,0,0,1
29.615,3,1,7,1,2,0,2,3
29.62,1,2,10,4,4,5,1,0
29.625,4,1,28,5,1,1,2,2
29.63,5,23,4,3,0,0,1,3
29.635,7,6,37,3,0,2,1,2
29.64,4,8,49,0,1,2,1,0
29.645,21,53,64,31,13,11,8,11
29.65,5,11,21,2,2,3,2,6
29.655,4,17,16,4,0,0,1,2
29.66,11,20,42,10,5,5,3,5
29.665,8,26,57,14,3,4,3,3
29.67,6,15,69,13,4,3,4,3
29.675,15,13,23,9,3,1,1,6
29.68,1,3,1,1,1,2,2,1
29.685,1,11,23,6,1,1,1,1
29.69,0,0,11,2,2,0,2,1
29.695,1,1,17,9,1,2,1,1
29.7,3,11,20,7,3,3,3,2
29.705,10,22,44,10,4,5,6,6
29.71,6,36,25,4,0,0,0,1
29.715,2,5,17,2,1,1,2,2
29.72,1,7,30,9,1,2,1,1
29.725,7,16,23,10,2,3,3,5
29.73,18,59,90,34,12,10,9,11
29.735,3,15,16,2,2,1,1,5
29.74,2,7,2,2,1,0,0,1
29.745,2,4,26,10,0,1,1,0
29.75,5,17,17,8,4,3,2,4
29.755,0,12,26,8,2,4,3,1
29.76,5,15,0,6,3,2,2,3
29.765,1,0,2,2,2,1,2,1
29.77,2,22,23,4,1,3,3,4
29.775,3,1,3,5,7,3,3,3
29.78,1,15,9,0,0,1,1,2
29.785,2,23,13,1,1,3,3,0
29.79,1,4,18,7,3,0,1,1
29.795,4,1,13,1,1,1,2,3
29.8,3,0,20,4,1,2,1,1
29.805,5,15,35,7,3,0,2,4
29.81,8,14,32,10,6,6,6,5
29.815,6,22,7,6,1,4,3,4
29.82,2,7,6,4,2,5,2,1
29.825,11,28,37,5,0,1,2,3
29.83,2,5,6,5,1,0,0,4
29.835,8,3,27,16,8,6,5,5
29.84,6,8,8,3,2,4,4,4
29.845,2,12,7,3,2,0,0,4
29.85,5,12,33,8,3,4,2,2
29.855,4,14,20,6,0,2,1,2
29.86,3,11,45,9,2,3,3,1
29.865,7,14,31,10,4,6,1,4
29.87,0,0,28,4,1,1,0,1
29.875,4,1,4,0,1,2,1,1
29.88,3,7,12,1,1,0,1,3
29.885,2,8,3,0,1,1,0,0
29.89,4,3,2,0,3,1,0,1
29.895,1,6,11,1,2,1,1,1
29.9,2,4,15,2,3,2,2,0
29.905,12,9,4,4,3,0,3,4
29.91,1,6,23,5,2,1,0,1
29.915,4,7,9,5,0,3,1,2
29.92,5,18,39,10,4,7,4,3
29.925,6,9,9,2,3,2,3,3
29.93,1,5,16,2,0,1,2,2
29.935,0,0,1,2,3,0,1,0
29.94,1,3,10,2,1,0,0,0
29.945,0,9,15,1,1,1,1,0
29.95,3,5,6,1,1,1,2,2
29.955,3,6,7,2,1,2,1,1
29.96,4,9,17,4,4,1,1,3
29.965,5,0,5,5,0,1,1,1
29.97,4,13,26,4,0,2,0,1
29.975,7,18,10,7,2,1,0,4
29.98,3,1,3,3,2,0,1,2
29.985,4,6,16,3,3,5,1,2
29.99,2,3,5,3,1,0,1,0
29.995,3,2,9,1,0,0,1,2
30,1,4,4,1,1,2,2,1
30.005,6,12,5,0,2,3,2,1
30.01,1,20,6,2,1,1,1,1
30.015,4,21,12,1,1,1,1,1
30.02,0,2,4,2,2,2,3,1
30.025,1,3,7,3,2,3,2,2
30.03,6,4,9,2,2,3,2,1
30.035,2,5,7,0,0,2,1,1
30.04,1,3,2,1,1,1,1,1
30.045,1,3,5,2,1,1,2,1
30.05,2,12,8,3,3,1,1,2
30.055,7,14,10,6,4,3,2,3
30.06,2,1,8,3,1,1,1,0
30.065,4,0,1,3,2,1,1,2
30.07,2,4,9,1,1,2,2,1
30.075,7,9,12,2,4,2,3,2
30.08,0,4,6,0,0,3,1,1
30.085,0,5,6,3,1,2,0,3
30.09,2,1,2,0,1,1,0,0
30.095,3,4,4,2,1,0,1,1
30.1,1,4,3,0,2,2,1,1
30.105,1,1,3,1,1,3,2,2
30.11,1,9,2,2,2,1,1,3
30.115,1,18,17,5,2,3,3,2
30.12,3,3,2,2,1,3,2,1
30.125,3,4,3,3,0,3,2,1
30.13,1,3,6,2,3,4,3,2
30.135,3,4,0,1,0,3,0,1
30.14,1,8,5,2,3,2,1,1
30.145,0,9,1,0,3,3,1,1
30.15,2,5,7,4,2,5,4,2
30.155,1,3,0,1,0,1,1,3
30.16,4,9,6,2,3,3,0,2
30.165,1,2,19,4,3,2,5,3
30.17,6,5,2,1,1,1,0,2
30.175,1,1,3,1,3,2,1,2
30.18,2,1,0,2,3,0,2,2
30.185,3,17,3,2,0,1,0,1
30.19,4,4,8,6,5,4,3,2
30.195,2,1,3,0,3,2,1,2
30.2,3,5,1,2,1,2,0,1
30.205,1,11,4,1,1,1,1,1
30.21,2,1,1,0,0,2,3,2
30.215,8,1,0,1,3,2,1,3
30.22,2,1,3,2,2,3,5,10
30.225,5,13,4,2,4,4,8,25
30.23,17,32,5,3,3,4,19,12
30.235,8,12,4,1,2,4,22,1
30.24,8,29,10,3,4,10,18,10
30.245,6,17,1,2,2,13,9,17
30.25,14,19,10,6,7,18,17,15
30.255,3,12,1,0,3,5,16,19
30.26,5,4,2,2,2,10,21,9
30.265,13,6,5,2,3,1,8,19
30.27,17,17,8,2,4,10,13,25
30.275,36,58,9,4,3,10,32,3
30.28,9,16,1,1,3,5,10,19
30.285,10,4,2,1,0,7,8,39
30.29,0,23,11,3,3,6,28,55
30.295,7,3,1,2,6,1,16,57
30.3,4,16,5,3,2,13,47,10
30.305,4,55,8,5,6,3,42,6
30.31,4,21,8,2,6,4,31,4
30.315,17,11,23,10,8,8,22,19
30.32,17,14,28,7,3,9,11,20
30.325,2,47,3,2,0,26,45,11
30.33,26,19,14,7,1,45,83,67
30.335,26,8,7,3,2,28,53,31
30.34,0,17,9,0,0,8,5,59
30.345,14,25,11,1,6,7,32,13
30.35,5,1,7,12,3,7,19,10
30.355,20,18,14,6,4,3,49,56
30.36,18,13,12,5,10,13,22,6
30.365,22,4,6,1,1,16,23,24
30.37,12,2,0,0,1,11,14,15
30.375,7,20,0,5,4,2,37,6
30.38,2,6,2,0,1,2,47,23
30.385,7,15,10,2,1,3,22,70
30.39,0,3,6,1,5,11,20,42
30.395,7,14,10,4,2,3,34,23
30.4,11,14,12,11,3,16,39,38
30.405,42,3,10,4,1,7,11,44
30.41,21,1,1,4,1,9,91,93
30.415,11,29,48,5,5,7,16,78
30.42,40,49,15,3,6,11,53,96
30.425,23,2,8,2,2,19,59,83
30.43,17,9,3,10,10,16,22,67
30.435,2,5,7,3,3,7,47,36
30.44,9,13,4,5,6,13,14,5
30.445,23,22,2,1,6,6,1,49
30.45,20,10,21,0,4,12,95,4
30.455,14,12,51,9,13,22,77,29
30.46,18,19,9,7,3,0,21,37
30.465,0,9,2,1,9,21,15,83
30.47,8,3,2,6,6,12,26,20
30.475,7,28,29,4,2,3,15,27
30.48,27,17,7,4,4,6,31,20
30.485,7,19,14,2,5,2,9,79
30.49,6,38,14,3,3,5,12,16
30.495,23,27,16,3,2,3,20,48
30.5,46,6,5,5,3,12,20,28
30.505,24,11,5,7,3,5,21,56
30.51,1,6,10,3,2,13,37,57
30.515,21,7,16,1,1,13,43,13
30.52,19,12,4,9,7,1,15,47
30.525,17,7,8,3,1,5,49,81
30.53,26,10,7,0,2,17,15,28
30.535,2,23,4,2,2,13,42,44
30.54,24,5,0,1,2,9,3,50
30.545,9,4,8,2,1,16,22,6
30.55,6,8,13,7,1,4,12,53
30.555,4,30,5,1,4,11,31,24
30.56,1,12,4,2,2,1,6,9
30.565,2,11,11,1,1,1,1,31
30.57,4,0,16,5,4,5,4,40
30.575,0,12,6,1,3,6,24,24
30.58,2,4,2,0,0,3,13,23
30.585,1,8,3,1,1,3,8,0
30.59,9,21,4,3,0,1,10,3
30.595,2,54,11,1,5,1,3,12
30.6,10,6,6,1,1,1,0,7
30.605,7,3,3,3,2,3,8,2
30.61,2,11,18,2,1,3,13,1
30.615,2,4,7,0,1,3,4,1
30.62,0,1,4,2,4,1,11,9
30.625,1,7,11,1,1,7,12,5
30.63,2,3,4,2,1,10,7,1
30.635,7,6,0,2,2,1,3,8
30.64,10,0,2,2,3,1,2,14
30.645,2,1,1,1,0,0,2,7
30.65,8,8,5,1,1,3,3,3
30.655,1,1,5,2,1,3,14,3
30.66,1,8,18,2,0,2,9,5
30.665,1,4,5,0,5,2,11,0
30.67,1,10,16,1,2,5,3,5
30.675,3,4,16,2,1,1,8,6
30.68,1,1,7,1,1,5,3,5
30.685,3,17,63,14,3,2,2,2
30.69,12,2,7,4,6,6,10,12
30.695,5,8,16,0,0,1,2,1
30.7,3,6,20,4,2,0,1,2
30.705,3,14,38,10,1,1,5,1
30.71,5,11,10,2,2,2,6,3
30.715,9,18,18,8,2,2,3,0
30.72,2,1,8,0,2,4,2,2
30.725,3,2,0,2,2,3,0,4
30.73,6,12,8,6,1,1,1,3
30.735,1,13,5,5,3,1,2,1
30.74,5,18,54,9,1,4,3,4
30.745,4,5,13,3,3,2,0,6
30.75,1,4,4,4,0,0,0,0
30.755,1,1,19,6,1,2,3,0
30.76,11,7,30,14,6,4,0,5
30.765,1,6,7,5,2,1,3,1
30.77,3,8,16,4,0,0,0,1
30.775,0,5,2,1,1,1,2,2
30.78,1,0,1,1,0,1,3,4
30.785,1,0,2,2,1,3,1,1
30.79,0,5,10,1,1,1,2,1
30.795,4,12,39,3,1,3,0,2
30.8,3,9,21,10,2,1,1,0
30.805,1,2,4,3,1,0,3,1
30.81,1,3,10,0,0,1,1,3
30.815,1,7,4,2,5,2,2,2
30.82,0,2,16,1,0,1,2,0
30.825,0,1,12,2,2,2,0,0
30.83,1,1,3,1,1,0,2,1
30.835,1,6,8,3,2,1,2,3
30.84,5,6,17,5,1,0,0,1
30.845,4,10,7,4,2,1,4,3
30.85,3,9,22,8,2,3,1,0
30.855,2,1,2,3,2,2,3,2
30.86,0,5,3,3,3,0,0,2
30.865,2,5,1,1,3,2,1,1
30.87,4,6,9,4,1,3,2,1
30.875,2,7,1,0,1,1,1,1
30.88,5,7,19,9,0,0,0,1
30.885,8,6,18,5,2,0,1,1
30.89,4,9,9,9,3,3,3,4
30.895,3,0,0,0,1,2,2,0
30.9,1,1,7,3,2,1,2,0
30.905,5,15,22,6,2,0,1,1
30.91,6,20,31,10,5,4,3,3
30.915,5,17,38,10,4,3,2,2
30.92,1,7,2,1,3,1,1,1
30.925,1,3,9,1,1,1,1,3
30.93,1,5,9,5,1,1,3,1
30.935,0,5,12,1,1,2,2,1
30.94,1,2,14,3,1,1,0,1
30.945,2,6,14,0,2,2,2,1
30.95,3,8,5,2,1,1,0,2
30.955,6,11,7,3,3,3,2,3
30.96,0,0,1,2,2,2,1,1
30.965,3,3,1,0,1,0,3,3
30.97,1,7,20,2,0,1,1,1
30.975,1,11,3,1,0,1,1,0
30.98,0,3,42,8,2,2,1,2
30.985,1,0,2,6,5,3,0,4
30.99,0,4,4,0,0,1,2,1
30.995,4,10,9,3,1,1,0,1
31,1,6,8,2,2,1,2,1
31.005,2,3,9,2,3,3,2,0
31.01,3,18,11,2,1,0,0,1
31.015,0,3,4,1,1,0,0,2
31.02,3,5,17,7,4,3,2,3
31.025,1,2,11,2,1,0,2,1
31.03,2,3,26,7,3,2,1,1
31.035,3,2,5,1,1,1,0,1
31.04,2,6,17,9,2,3,2,3
31.045,7,21,35,7,5,3,2,5
31.05,2,1,8,1,1,1,1,2
31.055,1,1,10,4,2,2,0,0
31.06,1,3,10,3,0,2,1,0
31.065,4,2,10,1,0,1,0,0
31.07,0,5,19,2,3,0,1,1
31.075,2,10,15,2,2,1,2,1
31.08,8,18,14,8,5,5,5,6
31.085,4,13,9,3,2,1,0,1
31.09,3,6,1,4,5,3,2,2
31.095,2,2,1,2,1,1,2,2
31.1,2,0,6,1,0,1,0,0
31.105,1,5,5,0,1,0,2,0
31.11,1,7,6,4,2,2,0,0
31.115,2,7,9,5,3,3,0,1
31.12,6,14,19,6,3,2,1,5
31.125,1,0,0,1,0,1,0,1
31.13,0,1,2,2,2,0,0,1
31.135,0,0,10,1,0,1,3,2
31.14,1,5,13,5,1,1,1,1
31.145,1,1,8,1,1,1,1,2
31.15,2,4,0,1,1,3,1,2
31.155,1,7,32,6,2,3,3,1
31.16,3,1,22,2,1,1,2,1
31.165,4,3,1,1,0,1,0,2
31.17,4,9,35,5,3,2,1,2
31.175,1,0,7,3,1,2,1,1
31.18,3,13,16,6,1,1,1,3
31.185,5,12,13,7,3,2,1,2
31.19,1,5,29,2,2,0,1,3
31.195,4,4,5,1,0,0,1,2
31.2,3,15,0,3,1,2,1,1
31.205,3,15,13,4,0,0,1,3
31.21,2,5,7,3,0,2,0,1
31.215,6,6,5,5,2,2,2,2
31.22,2,4,6,3,2,1,1,1
31.225,1,11,23,7,3,2,2,2
31.23,7,0,0,5,3,3,3,3
31.235,1,1,1,2,1,2,0,1
31.24,2,5,5,1,1,1,2,0
31.245,3,3,7,0,2,2,2,2
31.25,1,3,2,1,1,1,1,0
31.255,0,6,20,3,0,0,2,0
31.26,1,6,15,6,2,2,0,0
31.265,9,21,28,8,4,1,4,5
31.27,1,6,4,2,1,2,3,2
31.275,8,12,5,1,2,3,3,2
31.28,3,7,7,1,1,1,2,1
31.285,2,8,8,3,2,1,1,1
31.29,2,1,0,3,1,1,0,2
31.295,3,5,10,1,3,1,1,2
31.3,1,2,4,4,3,2,2,2
31.305,1,17,5,2,0,1,0,0
31.31,2,1,0,3,1,1,1,2
31.315,2,3,4,2,1,1,1,0
31.32,2,1,1,2,0,1,1,3
31.325,4,4,1,1,2,1,0,2
31.33,1,5,2,2,2,0,3,2
31.335,0,4,2,4,2,0,0,1
31.34,2,3,4,3,2,3,2,2
31.345,2,4,0,2,1,2,2,0
31.35,3,3,4,2,3,3,1,3
31.355,1,1,1,1,1,2,2,0
31.36,2,2,1,2,1,3,1,2
31.365,2,3,4,5,1,1,0,3
31.37,5,11,1,2,2,1,1,3
31.375,1,2,1,1,0,3,2,1
31.38,1,3,0,4,1,1,2,0
31.385,1,6,4,1,2,3,2,2
31.39,3,5,0,3,2,1,2,1
31.395,5,8,2,4,2,3,2,4
31.4,4,5,1,2,0,1,1,1
31.405,2,8,2,1,0,0,0,1
31.41,1,4,1,3,3,3,4,2
31.415,2,2,2,1,1,1,1,1
31.42,2,1,1,2,1,1,0,0
31.425,2,12,1,1,2,1,0,0
31.43,2,1,3,0,1,1,0,1
31.435,0,3,3,6,0,0,3,0
31.44,2,2,2,1,1,1,1,2
31.445,3,9,3,1,0,1,2,0
31.45,5,11,8,4,4,4,5,3
31.455,0,2,2,1,1,3,1,3
31.46,2,4,4,1,1,1,0,1
31.465,1,3,3,2,1,1,1,1
31.47,1,1,1,1,1,2,2,3
31.475,2,6,4,2,2,1,1,1
31.48,4,8,1,1,3,4,10,11
31.485,5,3,3,0,1,0,2,3
31.49,3,1,1,4,0,2,1,0
31.495,4,5,0,1,1,1,4,1
31.5,3,5,1,1,3,0,4,3
31.505,1,0,1,0,4,1,2,0
31.51,0,3,3,0,0,3,9,2
31.515,0,6,1,6,4,2,4,4
31.52,1,1,0,2,0,5,6,3
31.525,4,1,2,3,2,2,3,3
31.53,1,6,5,2,2,1,9,1
31.535,3,7,1,4,1,4,8,1
31.54,2,5,0,0,2,9,8,4
31.545,2,3,0,1,2,2,9,3
31.55,3,7,3,3,2,4,1,4
31.555,8,0,3,1,4,2,5,5
31.56,4,14,8,0,0,4,0,29
31.565,2,1,29,6,1,1,2,8
31.57,12,26,11,3,1,7,19,23
31.575,4,8,6,3,4,2,34,9
31.58,1,14,14,5,4,11,50,9
31.585,12,4,10,1,3,5,3,35
31.59,2,12,4,2,1,4,5,35
31.595,2,2,2,1,0,5,8,11
31.6,3,5,3,3,3,2,11,0
31.605,7,2,7,1,2,1,16,32
31.61,6,10,5,1,0,3,21,70
31.615,7,1,3,1,1,4,8,3
31.62,0,4,4,3,0,5,29,22
31.625,8,24,9,0,1,2,22,2
31.63,8,12,5,3,2,4,39,13
31.635,10,0,3,3,1,5,27,19
31.64,20,1,7,0,2,1,19,95
31.645,6,10,6,6,4,3,15,5
31.65,4,7,0,2,0,2,23,22
31.655,11,4,0,4,3,1,13,2
31.66,2,4,23,3,1,10,15,33
31.665,0,6,4,7,6,3,5,61
31.67,18,5,4,2,4,28,38,54
31.675,5,13,2,2,2,8,9,3
31.68,4,5,14,0,1,2,25,61
31.685,0,14,3,2,4,12,30,92
31.69,18,13,10,4,5,21,44,87
31.695,5,2,4,0,0,14,19,84
31.7,15,14,6,8,7,9,7,40
31.705,5,10,9,5,2,2,28,53
31.71,6,26,31,19,9,4,13,39
31.715,29,8,1,3,6,14,30,103
31.72,7,10,4,10,9,20,21,58
31.725,11,2,4,0,4,9,65,39
31.73,41,27,15,3,4,3,71,32
31.735,4,13,22,5,2,5,48,14
31.74,18,23,8,4,5,16,1,61
31.745,17,26,6,10,4,8,73,42
31.75,18,19,7,10,5,23,38,31
31.755,33,12,3,5,1,7,64,98
31.76,10,3,7,7,2,17,67,83
31.765,38,23,4,3,2,1,26,17
31.77,15,5,3,2,1,0,14,33
31.775,14,15,13,5,4,13,89,44
31.78,33,7,7,5,8,39,93,58
31.785,2,3,10,2,1,24,37,3
31.79,2,2,7,1,2,13,116,105
31.795,29,5,18,3,4,17,88,86
31.8,37,29,19,2,3,33,93,38
31.805,14,7,6,2,3,10,23,9
31.81,1,20,27,13,13,23,42,21
31.815,17,14,4,2,3,8,15,36
31.82,19,8,18,2,3,5,55,60
31.825,28,9,4,3,1,3,19,83
31.83,5,14,10,3,0,21,35,94
31.835,7,16,1,3,1,11,64,34
31.84,19,11,11,4,1,2,16,38
31.845,13,17,4,2,3,3,30,35
31.85,17,5,6,0,0,2,2,36
31.855,4,2,14,9,6,6,11,26
31.86,9,8,1,2,1,8,33,51
31.865,7,2,2,4,7,11,10,127
31.87,33,17,3,4,0,3,29,121
31.875,2,0,10,4,3,8,12,7
31.88,13,4,1,1,2,4,12,31
31.885,3,11,1,1,3,8,9,3
31.89,1,5,2,0,1,6,12,22
31.895,14,33,5,1,2,1,7,26
31.9,3,8,2,5,1,2,8,16
31.905,9,6,5,2,0,1,2,9
31.91,15,14,5,2,2,3,3,32
31.915,4,11,12,2,2,2,2,0
31.92,3,4,5,1,1,0,14,29
31.925,0,5,5,1,3,4,6,17
31.93,5,2,2,2,0,4,14,28
31.935,1,13,5,3,2,0,11,29
31.94,1,0,4,1,0,2,10,13
31.945,9,5,2,1,2,1,1,23
31.95,4,2,1,1,3,1,7,1
31.955,0,7,1,0,1,2,8,5
31.96,2,3,6,1,0,0,1,9
31.965,1,8,3,3,0,4,10,2
31.97,1,0,4,2,2,1,6,16
31.975,0,7,0,3,1,1,1,1
31.98,3,13,5,1,1,0,4,9
31.985,0,1,5,6,4,3,1,9
31.99,0,2,4,1,1,4,4,6
31.995,2,12,6,2,0,1,1,5
32,5,8,2,3,1,1,2,4
32.005,5,3,3,1,2,3,1,3
32.01,2,3,6,6,1,0,0,6
32.015,4,9,15,6,5,4,3,1
32.02,2,2,19,1,2,1,2,5
32.025,0,2,6,3,3,1,4,4
32.03,1,1,15,2,0,0,3,7
32.035,4,9,18,2,1,1,3,8
32.04,3,8,15,7,3,3,4,4
32.045,2,2,14,2,2,1,0,6
32.05,1,1,3,0,2,2,4,1
32.055,2,1,5,1,0,1,1,1
32.06,1,7,10,1,1,0,0,4
32.065,3,0,7,0,1,0,0,1
32.07,5,3,4,0,2,2,1,3
32.075,7,0,7,2,0,2,0,0
32.08,3,4,2,4,2,2,2,3
32.085,16,17,6,1,4,4,5,3
32.09,4,7,2,2,3,3,2,4
32.095,8,16,6,7,3,0,1,2
32.1,4,14,2,2,2,2,0,3
32.105,8,17,36,19,1,1,2,4
32.11,1,20,13,5,0,0,1,6
32.115,17,55,106,40,11,10,8,9
32.12,5,6,10,3,2,1,4,3
32.125,4,9,20,4,1,1,1,1
32.13,3,14,54,18,3,1,1,1
32.135,2,7,3,8,0,0,1,2
32.14,6,8,2,4,2,1,1,3
32.145,2,6,13,7,3,3,2,1
32.15,2,4,2,2,0,1,2,1
32.155,4,1,10,1,1,1,2,1
32.16,2,2,19,1,2,1,1,0
32.165,1,3,8,0,2,1,1,1
32.17,2,4,28,6,1,0,1,2
32.175,2,2,2,0,3,2,1,1
32.18,1,3,24,9,0,2,0,2
32.185,3,5,11,3,1,1,2,1
32.19,3,12,43,9,2,1,1,2
32.195,13,17,64,9,5,3,3,6
32.2,1,5,17,1,0,1,2,1
32.205,3,1,2,4,2,0,1,0
32.21,3,11,18,0,3,0,1,1
32.215,0,7,22,7,1,3,2,2
32.22,4,10,16,5,2,3,2,3
32.225,1,5,11,1,1,3,5,4
32.23,3,6,26,5,1,0,0,1
32.235,4,12,18,9,3,1,1,2
32.24,5,11,32,10,1,3,2,2
32.245,9,29,10,19,6,5,4,8
32.25,0,8,2,6,5,3,4,4
32.255,1,8,39,5,2,1,0,0
32.26,5,20,11,6,1,1,1,2
32.265,3,7,4,2,2,2,0,1
32.27,2,5,3,3,2,3,0,2
32.275,2,12,33,8,0,2,2,0
32.28,1,9,11,3,1,2,1,1
32.285,6,20,39,13,6,5,2,5
32.29,9,0,7,0,1,0,2,2
32.295,7,17,37,9,1,1,0,0
32.3,0,10,15,1,1,2,1,2
32.305,0,13,10,4,1,1,0,1
32.31,2,12,3,5,4,1,1,0
32.315,7,11,14,6,2,1,4,3
32.32,1,1,16,2,1,0,2,2
32.325,7,16,23,9,3,2,1,1
32.33,0,14,0,6,3,3,1,0
32.335,1,3,37,11,3,4,2,1
32.34,2,8,7,2,2,0,2,2
32.345,0,5,4,2,0,0,2,1
32.35,2,6,20,11,4,1,2,2
32.355,6,20,1,5,2,3,3,2
32.36,5,11,43,9,4,4,2,4
32.365,3,8,7,0,1,1,2,3
32.37,1,3,5,3,0,1,1,3
32.375,3,1,11,5,1,1,2,0
32.38,5,11,11,2,1,1,1,1
32.385,8,15,23,12,6,3,3,3
32.39,2,7,29,5,3,4,1,2
32.395,3,7,10,5,2,3,3,4
32.4,1,1,15,4,1,1,0,0
32.405,1,1,6,1,0,1,2,1
32.41,0,3,1,2,1,0,1,0
32.415,5,2,9,3,1,1,0,1
32.42,1,1,7,2,1,3,0,0
32.425,0,0,6,4,3,2,1,1
32.43,8,13,32,12,5,4,5,5
32.435,1,2,16,4,1,0,0,0
32.44,3,6,16,3,2,0,1,0
32.445,1,2,1,3,1,0,1,0
32.45,3,12,11,2,1,2,0,2
32.455,2,5,4,2,0,2,3,2
32.46,1,1,2,2,5,1,1,2
32.465,1,5,7,2,0,0,1,1
32.47,1,3,2,1,2,4,2,2
32.475,2,2,6,2,1,2,1,1
32.48,0,4,9,5,2,2,0,1
32.485,3,4,2,2,1,1,1,4
32.49,2,4,2,1,2,3,2,2
32.495,2,2,7,2,0,1,0,0
32.5,1,3,1,3,0,1,2,2
32.505,5,2,8,0,2,0,1,1
32.51,1,9,10,3,1,1,0,0
32.515,0,5,4,4,1,1,1,0
32.52,4,11,3,10,2,3,3,4
32.525,3,7,9,6,3,2,3,3
32.53,9,38,10,4,2,2,4,4
32.535,1,3,1,4,2,3,1,0
32.54,4,2,13,2,1,0,0,1
32.545,2,0,2,0,1,0,1,0
32.55,2,17,9,2,1,3,2,5
32.555,1,0,4,2,3,1,1,1
32.56,1,7,3,1,1,1,2,0
32.565,4,2,4,3,1,2,1,1
32.57,2,10,6,1,1,1,1,0
32.575,1,0,6,3,1,3,1,0
32.58,2,4,4,3,2,2,2,0
32.585,1,1,5,3,2,1,0,0
32.59,1,27,2,2,1,0,1,2
32.595,3,8,0,3,1,3,0,0
32.6,3,2,1,4,1,2,0,0
32.605,4,6,5,3,0,2,2,1
32.61,2,3,13,5,2,2,1,2
32.615,1,5,8,2,1,1,1,2
32.62,4,18,21,3,0,1,1,3
32.625,1,1,2,2,1,3,0,1
32.63,4,15,4,2,1,4,2,0
32.635,2,2,3,0,0,2,0,1
32.64,0,0,4,1,3,3,1,1
32.645,6,2,2,3,1,2,4,5
32.65,4,4,0,1,0,2,1,1
32.655,1,4,5,2,3,0,0,0
32.66,1,2,2,1,1,1,3,2
32.665,5,0,2,2,2,0,1,3
32.67,3,7,9,5,1,2,2,3
32.675,1,11,0,2,1,1,1,1
32.68,3,0,34,10,2,1,1,1
32.685,3,16,4,1,2,1,1,0
32.69,2,31,3,3,3,2,3,4
32.695,3,16,5,1,2,3,1,2
32.7,1,3,5,3,3,1,0,0
32.705,2,5,4,5,2,1,2,2
32.71,14,20,6,1,1,5,4,5
32.715,3,5,2,3,1,1,1,3
32.72,2,9,9,1,1,3,1,1
32.725,5,8,1,4,1,0,3,1
32.73,5,11,3,2,2,3,1,1
32.735,6,8,11,2,2,2,1,1
32.74,3,4,6,7,2,1,1,0
32.745,4,5,6,3,1,3,1,1
32.75,5,11,0,0,1,0,8,6
32.755,1,3,9,3,3,3,2,3
32.76,3,7,18,5,3,0,2,4
32.765,3,4,6,4,0,3,2,1
32.77,2,0,0,7,4,7,5,6
32.775,6,14,4,3,6,8,13,8
32.78,2,0,3,3,3,1,8,3
32.785,5,5,3,3,2,8,27,21
32.79,5,4,3,1,4,4,7,11
