0.01,3,12,15,2,3,0,1,0
0.015,9,20,41,9,4,1,2,4
0.02,1,2,7,1,5,2,1,9
0.025,7,28,21,2,1,0,4,10
0.03,26,105,44,6,2,8,7,12
0.035,5,33,17,2,0,0,0,3
0.04,3,21,3,2,3,1,0,0
0.045,1,8,3,2,1,2,1,4
0.05,8,23,10,3,3,4,3,2
0.055,3,6,7,0,0,1,3,3
0.06,3,1,1,2,1,0,2,9
0.065,1,5,4,2,4,1,1,11
0.07,4,9,8,2,2,2,0,3
0.075,10,18,12,2,1,4,7,7
0.08,2,1,3,5,2,1,3,1
0.085,1,2,4,1,2,1,2,4
0.09,3,10,4,1,0,1,2,8
0.095,3,11,1,3,2,1,2,0
0.1,9,38,4,1,1,1,0,1
0.105,4,25,17,4,2,3,2,1
0.11,6,7,5,0,2,3,2,1
0.115,3,18,18,7,1,0,0,2
0.12,5,37,23,8,2,0,2,1
0.125,1,4,6,4,4,3,0,1
0.13,3,17,24,0,1,1,0,0
0.135,5,36,3,4,0,4,5,3
0.14,3,9,21,5,1,1,1,1
0.145,6,21,27,3,4,1,3,3
0.15,13,20,51,13,8,8,5,7
0.155,1,12,15,7,2,1,2,2
0.16,2,4,3,4,1,0,0,0
0.165,3,3,12,1,1,2,1,1
0.17,1,6,2,2,1,1,0,0
0.175,3,3,7,1,3,2,2,1
0.18,3,16,15,3,1,3,2,0
0.185,1,3,10,2,3,0,1,2
0.19,3,1,11,2,1,0,0,1
0.195,1,25,6,2,0,2,2,2
0.2,3,4,17,0,1,2,2,1
0.205,2,2,3,2,1,1,1,1
0.21,1,1,9,2,0,1,1,1
0.215,3,7,21,4,1,0,1,0
0.22,2,7,13,5,1,3,2,5
0.225,4,11,9,3,1,4,2,0
0.23,4,20,18,3,0,0,1,0
0.235,2,4,19,3,1,1,1,1
0.24,2,3,9,5,3,3,2,1
0.245,5,5,4,5,3,2,1,4
0.25,1,3,19,8,3,2,0,0
0.255,5,17,20,6,1,3,1,2
0.26,3,4,0,0,1,1,1,0
0.265,0,6,10,5,1,0,1,2
0.27,1,10,4,2,2,0,2,1
0.275,2,12,24,4,1,2,1,0
0.28,11,38,2,4,3,3,1,5
0.285,4,16,4,1,2,0,0,1
0.29,0,0,7,2,1,0,0,0
0.295,2,4,13,1,0,0,1,2
0.3,1,9,3,0,2,1,1,1
0.305,3,7,21,4,2,3,1,3
0.31,1,21,4,1,1,0,0,1
0.315,2,16,4,1,1,1,1,1
0.32,1,1,10,1,0,0,1,1
0.325,0,2,4,0,2,3,1,0
0.33,5,22,13,3,0,1,3,4
0.335,1,1,0,1,2,0,1,0
0.34,2,3,1,1,0,0,0,2
0.345,1,4,0,3,0,0,0,1
0.35,3,18,4,1,1,0,0,1
0.355,1,4,8,2,2,2,3,2
0.36,4,9,11,5,1,2,3,4
0.365,0,3,5,1,1,0,1,0
0.37,2,9,4,1,3,1,0,1
0.375,0,6,5,1,1,1,1,0
0.38,0,1,5,0,2,1,1,0
0.385,2,7,28,2,1,2,1,0
0.39,3,1,12,6,3,4,2,0
0.395,0,12,14,1,1,2,0,2
0.4,1,15,4,1,2,0,2,3
0.405,2,4,20,5,0,1,1,1
0.41,0,2,1,0,0,1,0,0
0.415,5,4,2,4,2,2,2,2
0.42,2,3,5,1,2,1,1,0
0.425,1,6,9,2,1,1,2,2
0.43,2,14,3,2,1,1,0,3
0.435,2,15,16,5,1,0,2,3
0.44,2,6,6,1,3,0,0,1
0.445,1,16,1,3,1,1,1,1
0.45,8,18,12,3,2,3,3,2
0.455,1,2,19,1,1,0,0,1
0.46,0,0,4,3,1,1,3,0
0.465,1,4,3,2,0,0,2,1
0.47,2,8,21,3,1,1,0,0
0.475,12,13,21,3,2,0,1,1
0.48,0,3,3,4,2,4,1,0
0.485,5,9,9,0,0,2,2,2
0.49,3,6,38,2,1,1,1,0
0.495,1,18,27,0,1,3,2,2
0.5,5,18,5,5,1,2,1,2
0.505,0,4,12,2,1,2,2,1
0.51,3,25,1,5,3,0,2,2
0.515,1,6,6,1,1,1,1,0
0.52,0,7,6,1,3,1,1,1
0.525,1,2,6,0,0,2,1,2
0.53,2,3,2,2,1,1,1,1
0.535,2,2,11,4,2,1,1,1
0.54,1,7,8,1,1,2,3,1
0.545,6,16,7,3,2,0,1,1
0.55,0,11,2,1,0,2,3,2
0.555,0,3,0,1,1,1,1,1
0.56,3,3,4,1,1,2,0,0
0.565,2,0,2,2,3,1,0,1
0.57,2,16,6,1,3,2,2,1
0.575,1,6,4,3,2,2,2,1
0.58,3,8,30,4,1,1,3,1
0.585,1,6,11,1,0,0,1,1
0.59,6,0,5,1,1,0,2,2
0.595,1,6,9,4,1,1,1,0
0.6,2,7,14,2,3,2,1,5
0.605,4,5,6,4,1,0,1,0
0.61,1,2,3,1,2,2,2,1
0.615,2,21,1,1,2,1,1,1
0.62,2,16,3,3,1,0,1,1
0.625,0,6,0,3,1,3,1,2
0.63,1,10,4,2,0,1,2,1
0.635,5,15,6,4,3,2,1,1
0.64,2,9,10,1,0,2,1,1
0.645,4,15,1,0,1,1,2,0
0.65,1,2,11,4,2,2,0,1
0.655,1,6,9,1,1,1,3,2
0.66,2,20,10,1,1,1,2,1
0.665,5,21,6,2,1,2,0,1
0.67,1,5,0,2,1,1,2,0
0.675,2,10,3,2,1,2,1,1
0.68,3,2,13,2,2,0,1,0
0.685,4,5,4,1,1,1,3,3
0.69,0,10,11,9,0,1,1,0
0.695,0,6,5,1,3,1,0,1
0.7,1,2,14,2,0,1,0,0
0.705,1,6,0,1,1,2,0,1
0.71,1,13,20,4,1,1,0,2
0.715,5,12,0,1,2,2,2,1
0.72,3,7,5,1,1,1,1,2
0.725,1,16,6,2,1,1,2,1
0.73,7,31,17,4,2,4,2,2
0.735,3,1,1,0,0,1,1,1
0.74,3,9,3,2,2,1,1,0
0.745,4,4,6,4,1,1,3,3
0.75,0,11,2,1,1,0,0,1
0.755,1,1,5,1,1,2,1,0
0.76,3,14,0,2,2,1,1,2
0.765,1,6,17,3,0,3,1,2
0.77,6,3,0,2,1,2,1,2
0.775,0,4,0,1,0,1,2,2
0.78,1,19,9,2,3,2,0,0
0.785,2,22,5,3,3,0,1,0
0.79,1,21,7,5,1,1,1,1
0.795,2,8,14,3,0,2,1,0
0.8,4,6,9,1,1,1,2,2
0.805,6,27,13,3,1,4,2,4
0.81,0,0,14,0,2,1,1,0
0.815,0,6,11,2,1,1,0,0
0.82,1,4,13,0,1,1,2,0
0.825,4,8,45,6,1,1,2,3
0.83,1,3,9,1,2,1,1,0
0.835,0,4,7,1,1,2,0,1
0.84,5,12,8,2,0,1,2,2
0.845,7,24,17,3,1,1,2,0
0.85,5,26,25,4,0,3,3,2
0.855,3,6,1,0,3,4,3,1
0.86,1,8,7,2,4,1,1,1
0.865,0,14,5,6,3,2,1,1
0.87,3,10,4,1,0,0,2,1
0.875,3,12,7,2,2,0,1,1
0.88,3,13,5,3,1,2,2,1
0.885,7,42,11,5,1,2,3,2
0.89,2,9,6,1,1,1,1,1
0.895,5,16,19,3,2,0,2,2
0.9,1,9,13,0,0,0,2,0
0.905,1,9,6,1,3,1,1,1
0.91,2,7,2,1,1,2,0,1
0.915,0,5,9,1,0,0,0,0
0.92,4,16,16,4,3,1,1,2
0.925,1,3,10,0,0,2,1,1
0.93,0,16,12,4,1,2,1,0
0.935,2,17,37,12,2,3,3,3
0.94,1,7,9,3,1,0,0,1
0.945,0,17,3,0,2,0,0,1
0.95,0,3,3,2,2,2,2,2
0.955,4,3,12,4,0,1,1,1
0.96,7,22,8,2,2,2,1,1
0.965,2,8,3,2,1,1,1,1
0.97,1,3,5,1,2,0,1,2
0.975,1,2,3,3,1,3,2,0
0.98,1,4,8,1,1,4,3,1
0.985,1,4,20,2,0,0,1,0
0.99,5,7,4,1,0,1,3,3
0.995,2,16,35,6,0,1,1,2
1,3,4,15,2,2,4,1,2
1.005,1,9,5,1,0,1,1,1
1.01,1,5,2,0,1,0,2,1
1.015,1,9,5,1,1,0,2,1
1.02,4,45,17,1,0,1,0,1
1.025,3,6,17,5,3,2,2,3
1.03,4,13,6,1,1,0,0,0
1.035,0,4,1,0,1,1,1,1
1.04,1,7,1,0,0,1,0,2
1.045,3,8,20,1,0,0,1,0
1.05,1,2,18,2,1,2,0,1
1.055,4,18,7,4,2,2,2,4
1.06,1,17,4,1,2,1,1,0
1.065,0,1,1,1,1,0,2,2
1.07,1,37,2,2,2,3,1,1
1.075,3,3,24,5,0,3,2,3
1.08,3,2,43,6,3,2,1,0
1.085,3,2,12,1,0,2,1,0
1.09,1,7,11,4,2,0,1,0
1.095,2,11,14,2,0,0,1,0
1.1,0,12,17,1,1,1,0,2
1.105,1,1,26,6,0,0,1,1
1.11,3,18,66,19,7,3,3,5
1.115,3,7,19,1,1,2,1,0
1.12,3,4,17,4,0,0,2,0
1.125,1,5,3,0,1,0,0,2
1.13,0,4,20,6,1,1,2,1
1.135,2,7,28,2,1,1,3,2
1.14,4,14,9,3,1,1,2,2
1.145,1,0,9,2,2,2,2,2
1.15,1,4,18,2,2,2,0,1
1.155,5,18,8,2,0,1,1,1
1.16,4,20,14,4,4,3,1,4
1.165,3,6,10,4,2,3,1,1
1.17,2,3,14,1,0,3,2,2
1.175,0,9,14,4,1,1,2,1
1.18,5,27,13,3,0,1,1,0
1.185,0,7,8,0,2,1,1,1
1.19,3,11,11,0,0,0,1,0
1.195,1,6,16,3,2,2,1,2
1.2,0,11,6,1,1,1,2,1
1.205,7,13,37,23,7,5,5,5
1.21,1,4,17,7,1,1,2,1
1.215,0,4,6,0,1,2,1,0
1.22,3,6,6,3,2,1,0,0
1.225,1,1,1,5,2,2,0,0
1.23,2,6,34,10,5,3,3,2
1.235,2,6,6,1,1,1,1,2
1.24,1,3,9,1,2,1,0,1
1.245,0,9,5,3,1,0,2,0
1.25,0,2,2,0,0,1,0,1
1.255,1,9,3,0,0,2,0,0
1.26,0,10,5,1,2,3,2,1
1.265,0,16,18,3,1,0,1,1
1.27,3,11,20,5,2,3,3,3
1.275,3,4,8,3,2,2,2,3
1.28,2,9,6,3,4,0,1,2
1.285,0,5,6,3,2,2,2,0
1.29,2,1,15,3,3,1,0,0
1.295,1,2,12,0,1,2,1,0
1.3,3,5,14,2,3,3,3,3
1.305,0,19,18,4,1,1,1,0
1.31,0,3,19,5,0,1,2,1
1.315,1,7,1,1,2,3,1,1
1.32,2,17,8,0,0,0,1,1
1.325,2,7,16,7,4,3,2,2
1.33,0,3,4,3,0,0,1,1
1.335,3,5,10,0,1,1,2,1
1.34,2,0,3,5,5,3,0,2
1.345,0,4,4,1,1,1,1,2
1.35,0,4,2,0,1,3,2,1
1.355,0,1,11,0,1,2,2,1
1.36,2,5,46,8,0,1,1,2
1.365,3,34,22,0,2,0,2,0
1.37,3,42,26,6,2,1,1,2
1.375,1,14,4,3,1,1,0,2
1.38,3,4,9,0,1,3,0,1
1.385,0,12,0,0,1,4,2,1
1.39,1,21,10,0,1,0,1,2
1.395,2,7,2,5,1,0,3,3
1.4,2,0,2,3,2,2,1,1
1.405,1,8,13,1,1,0,0,1
1.41,2,15,9,6,1,0,1,1
1.415,8,24,4,7,6,6,2,4
1.42,0,6,26,5,3,3,3,2
1.425,1,11,15,3,2,2,0,1
1.43,3,9,4,2,2,1,1,1
1.435,1,7,1,0,2,1,1,1
1.44,1,4,5,1,0,1,1,0
1.445,1,8,4,1,1,0,1,0
1.45,0,1,6,2,1,2,1,2
1.455,1,17,2,0,1,0,1,0
1.46,7,45,17,0,1,3,1,2
1.465,1,7,5,2,0,1,2,2
1.47,4,10,2,1,1,0,0,1
1.475,3,2,12,2,1,2,1,1
1.48,3,20,3,3,2,3,3,1
1.485,1,3,10,2,0,1,1,1
1.49,4,12,19,10,4,3,2,4
1.495,1,2,0,2,0,2,1,1
1.5,2,6,19,5,1,2,2,2
1.505,3,18,3,6,2,1,0,0
1.51,0,12,11,10,6,1,2,1
1.515,1,5,7,0,2,3,1,0
1.52,0,9,2,0,0,2,1,1
1.525,1,5,4,1,2,2,2,0
1.53,0,2,3,4,1,2,2,0
1.535,3,4,10,6,4,2,2,3
1.54,3,34,3,0,2,0,0,3
1.545,1,5,8,3,1,2,0,1
1.55,0,14,3,1,2,0,0,1
1.555,3,10,13,7,0,2,1,2
1.56,2,9,11,0,3,3,2,1
1.565,0,6,13,1,3,1,0,1
1.57,0,10,14,2,1,2,0,0
1.575,0,2,15,3,1,1,2,2
1.58,0,5,1,1,1,1,1,1
1.585,1,5,8,2,3,3,2,2
1.59,1,2,14,2,1,1,1,0
1.595,0,1,5,1,1,1,0,0
1.6,1,3,8,3,2,0,1,1
1.605,0,1,2,3,1,1,2,2
1.61,2,10,0,0,0,0,0,1
1.615,4,13,6,2,3,3,2,1
1.62,1,30,13,0,2,3,1,0
1.625,2,13,8,1,0,1,2,1
1.63,1,5,4,0,5,3,0,3
1.635,4,1,4,1,1,2,1,0
1.64,2,18,6,1,1,0,0,1
1.645,5,18,4,7,6,4,2,3
1.65,1,4,0,2,0,1,1,2
1.655,2,2,17,1,0,1,2,0
1.66,1,5,12,3,1,1,1,0
1.665,5,8,3,6,5,3,1,3
1.67,2,10,4,2,3,4,4,2
1.675,2,8,1,0,0,2,1,0
1.68,5,12,5,2,4,0,1,3
1.685,1,4,9,1,1,1,0,1
1.69,2,1,2,0,2,3,1,2
1.695,2,1,3,2,0,1,1,1
1.7,1,10,3,1,2,2,0,1
1.705,0,21,7,2,1,1,1,1
1.71,5,9,4,0,0,0,2,4
1.715,0,8,8,0,3,1,1,0
1.72,2,3,32,9,2,4,1,2
1.725,1,5,8,1,0,1,1,1
1.73,1,2,7,2,1,2,2,0
1.735,2,11,2,2,0,1,2,2
1.74,1,9,8,2,1,1,3,1
1.745,2,20,27,1,0,1,1,0
1.75,3,4,2,1,0,0,2,3
1.755,1,7,2,1,2,2,1,3
1.76,0,5,11,1,3,1,1,0
1.765,2,14,0,3,2,2,2,0
1.77,0,9,4,2,0,3,2,2
1.775,4,0,3,1,1,1,0,0
1.78,2,7,1,2,1,0,0,1
1.785,3,3,5,3,4,3,2,2
1.79,2,5,5,1,3,1,1,1
1.795,1,5,5,2,0,2,3,1
1.8,1,2,9,3,3,1,1,2
1.805,3,3,1,0,1,1,0,1
1.81,0,8,10,0,1,1,2,2
1.815,1,2,11,1,1,1,0,1
1.82,2,6,6,0,0,1,1,1
1.825,1,9,3,1,1,0,1,0
1.83,1,1,1,2,2,2,2,1
1.835,1,0,2,4,3,1,1,2
1.84,3,5,9,1,4,0,2,1
1.845,1,0,9,3,5,0,1,1
1.85,3,4,6,2,1,1,1,0
1.855,0,9,1,2,1,0,3,1
1.86,2,9,0,2,4,3,2,1
1.865,2,10,15,0,1,1,0,0
1.87,2,6,7,1,2,0,1,1
1.875,3,0,17,7,2,3,4,3
1.88,1,8,3,4,2,1,0,1
1.885,3,3,4,3,4,4,2,0
1.89,1,5,0,2,1,1,2,1
1.895,0,15,3,3,2,0,0,0
1.9,5,44,11,2,0,2,2,2
1.905,0,14,4,2,1,4,1,2
1.91,3,13,10,0,1,0,1,1
1.915,0,4,53,6,1,3,0,1
1.92,1,4,5,2,0,1,0,1
1.925,2,3,6,3,3,3,2,1
1.93,2,8,4,1,4,3,0,1
1.935,0,0,24,4,1,1,1,1
1.94,4,0,32,12,1,2,4,4
1.945,1,5,3,2,1,1,1,0
1.95,1,3,7,2,2,1,1,1
1.955,4,8,10,2,0,0,0,1
1.96,4,19,4,1,0,0,3,1
1.965,7,24,4,10,3,3,3,4
1.97,2,4,11,3,4,3,2,1
1.975,1,7,1,1,0,2,1,1
1.98,1,17,10,2,3,2,2,2
1.985,3,39,6,3,1,2,1,1
1.99,2,14,10,3,1,0,0,3
1.995,2,11,9,4,3,5,4,1
2,2,1,41,9,2,3,2,0
2.005,1,3,16,3,4,0,2,1
2.01,1,3,0,1,2,1,2,1
2.015,0,4,9,3,0,2,1,1
2.02,0,2,18,3,0,3,2,1
2.025,1,4,3,2,5,2,0,2
2.03,3,7,0,2,2,0,4,1
2.035,3,4,11,0,2,1,1,1
2.04,2,4,12,0,0,2,1,1
2.045,1,6,1,0,2,1,1,2
2.05,8,24,2,1,1,0,2,4
2.055,3,5,1,3,3,5,1,0
2.06,0,3,1,1,0,0,2,1
2.065,2,15,2,3,3,2,3,1
2.07,1,17,2,2,1,2,2,1
2.075,0,4,1,3,2,0,1,0
2.08,5,41,6,1,1,2,1,0
2.085,1,6,6,1,2,3,2,2
2.09,2,6,7,1,1,1,0,1
2.095,1,11,2,3,4,3,3,3
2.1,3,21,6,2,0,1,0,2
2.105,1,4,8,1,3,1,0,1
2.11,0,11,15,4,0,3,2,0
2.115,0,6,5,0,1,1,1,2
2.12,0,3,6,0,3,1,1,2
2.125,2,2,6,5,0,2,4,1
2.13,2,2,5,1,1,2,2,3
2.135,2,10,10,3,1,2,1,0
2.14,1,1,2,0,1,0,1,1
2.145,1,10,7,2,1,1,0,2
2.15,1,0,11,2,1,1,1,0
2.155,3,5,1,1,1,1,1,2
2.16,1,3,3,1,2,0,3,0
2.165,0,8,1,1,3,2,3,1
2.17,1,2,0,1,0,2,0,2
2.175,1,0,2,3,1,2,1,1
2.18,1,2,2,5,3,1,0,2
2.185,3,5,2,2,2,2,1,1
2.19,4,4,2,11,7,2,0,2
2.195,4,29,6,2,4,3,2,1
2.2,2,3,4,6,2,2,2,1
2.205,2,10,2,2,0,0,1,1
2.21,2,5,5,2,6,1,1,2
2.215,2,12,0,1,2,0,3,1
2.22,2,9,4,1,5,3,2,3
2.225,2,7,1,3,3,1,0,1
2.23,0,0,3,3,0,2,2,1
2.235,2,1,8,3,2,1,1,2
2.24,2,5,5,4,3,3,3,2
2.245,0,2,10,1,4,3,1,1
2.25,1,11,1,5,4,4,3,3
2.255,0,1,9,1,1,1,0,1
2.26,0,9,0,2,0,0,1,0
2.265,2,0,19,3,1,1,1,3
2.27,0,5,11,1,1,0,0,0
2.275,3,5,18,3,6,2,2,0
2.28,0,6,6,1,1,1,1,2
2.285,0,11,2,0,2,0,1,0
2.29,1,2,1,4,4,4,5,3
2.295,1,0,4,0,1,0,1,0
2.3,2,10,6,1,2,1,1,0
2.305,2,3,1,2,1,1,1,1
2.31,1,9,3,2,3,2,2,0
2.315,1,9,2,3,2,2,2,3
2.32,1,6,1,3,0,1,0,2
2.325,1,1,4,1,1,0,1,2
2.33,1,1,14,4,3,3,2,1
2.335,0,4,1,1,1,1,2,1
2.34,0,5,1,1,0,1,0,1
2.345,1,4,7,0,5,1,2,2
2.35,1,20,4,3,3,2,1,1
2.355,5,59,10,3,8,3,0,1
2.36,0,5,3,3,1,1,0,1
2.365,1,1,2,1,3,3,2,1
2.37,1,3,3,4,3,3,0,2
2.375,1,7,2,2,3,1,1,1
2.38,1,2,2,3,1,2,0,2
2.385,1,9,8,1,2,1,1,0
2.39,0,5,2,1,2,1,0,0
2.395,0,10,3,2,3,3,0,0
2.4,1,6,3,1,1,0,1,2
2.405,2,4,7,3,4,3,2,1
2.41,1,10,2,1,0,1,0,2
2.415,2,16,2,0,2,1,1,1
2.42,1,2,0,2,2,0,0,0
2.425,2,15,12,1,1,2,4,2
2.43,1,7,6,1,1,3,2,3
2.435,1,4,1,2,4,1,3,1
2.44,3,4,13,1,1,0,1,1
2.445,0,3,5,2,1,1,0,0
2.45,1,14,7,2,5,3,2,0
2.455,1,6,4,5,4,2,1,1
2.46,2,19,2,1,2,1,1,2
2.465,5,36,2,3,1,2,2,0
2.47,1,6,0,0,4,2,2,1
2.475,1,1,2,5,4,3,1,3
2.48,0,0,2,4,0,0,1,2
2.485,0,6,4,1,3,1,1,1
2.49,0,8,0,0,0,1,0,2
2.495,0,4,4,3,1,1,0,0
2.5,1,6,1,1,0,0,0,1
2.505,2,5,0,2,1,1,1,0
2.51,2,6,3,2,2,1,0,1
2.515,1,9,7,2,1,3,3,2
2.52,4,28,3,2,2,1,0,3
2.525,1,13,2,1,0,1,2,2
2.53,1,7,6,1,1,1,2,1
2.535,2,2,2,4,2,1,3,1
2.54,1,3,3,2,2,1,0,1
2.545,1,8,3,2,3,3,1,2
2.55,4,14,5,5,3,2,3,3
2.555,1,5,6,2,1,0,1,0
2.56,0,9,9,7,4,2,3,2
2.565,1,4,13,5,2,1,1,1
2.57,3,3,4,4,0,3,2,0
2.575,2,30,5,2,0,2,1,2
2.58,2,16,1,0,1,1,1,1
2.585,0,4,3,2,1,1,0,1
2.59,1,5,1,3,2,3,1,3
2.595,1,4,6,0,1,2,1,1
2.6,1,7,1,0,4,1,2,1
2.605,2,9,2,0,1,3,2,2
2.61,1,11,6,0,1,1,1,0
2.615,2,5,12,2,3,3,0,1
2.62,2,4,0,1,0,3,1,1
2.625,2,6,1,1,1,0,1,3
2.63,1,1,7,2,2,2,2,0
2.635,3,9,8,0,2,1,2,0
2.64,0,0,1,1,2,1,3,1
2.645,1,1,6,2,2,3,3,1
2.65,2,0,2,1,1,0,2,3
2.655,3,9,3,2,0,1,2,1
2.66,0,7,3,3,2,1,0,1
2.665,2,4,0,2,0,2,2,3
2.67,2,2,10,5,2,1,3,1
2.675,2,23,0,3,5,5,2,3
2.68,1,0,2,1,0,1,0,0
2.685,2,4,5,4,3,3,0,1
2.69,2,6,3,2,2,2,2,2
2.695,2,0,3,2,0,1,0,0
2.7,0,2,1,5,4,5,2,0
2.705,2,7,2,1,2,3,1,2
2.71,1,3,3,0,4,2,0,1
2.715,0,7,3,2,4,2,1,1
2.72,1,7,10,1,4,1,1,1
2.725,4,1,13,3,3,2,0,2
2.73,1,9,2,0,0,0,1,1
2.735,0,3,3,2,1,4,2,0
2.74,0,0,2,0,1,1,1,1
2.745,1,2,4,1,2,1,2,2
2.75,0,5,1,3,0,1,1,2
2.755,3,3,1,1,3,3,1,2
2.76,1,2,2,0,1,2,2,0
2.765,2,5,1,4,5,4,2,1
2.77,0,1,2,1,0,1,2,0
2.775,1,3,1,1,1,1,1,2
2.78,2,1,8,4,2,3,2,1
2.785,3,1,1,1,2,1,1,0
2.79,0,2,2,3,2,2,2,2
2.795,0,2,1,3,0,0,0,3
2.8,2,3,3,3,5,3,2,2
2.805,1,2,2,1,1,2,0,0
2.81,2,1,2,4,3,1,0,2
2.815,1,6,2,0,0,3,1,1
2.82,2,2,4,5,0,1,1,3
2.825,0,3,4,3,2,1,0,0
2.83,3,0,0,1,4,3,2,1
2.835,1,2,4,0,1,0,1,0
2.84,1,3,2,2,2,0,1,1
2.845,1,1,0,0,2,2,1,1
2.85,0,4,2,1,3,1,0,1
2.855,2,3,0,1,1,1,0,0
2.86,0,1,1,1,1,1,1,1
2.865,4,5,2,2,1,2,1,1
2.87,0,3,1,1,2,2,3,1
2.875,3,2,2,4,7,4,4,2
2.88,1,3,3,0,2,1,2,1
2.885,2,2,3,2,1,1,1,2
2.89,2,6,0,3,2,0,1,1
2.895,0,8,2,5,1,1,2,0
2.9,2,4,1,0,4,2,1,0
2.905,7,14,3,4,2,3,2,1
2.91,0,3,1,1,2,1,2,1
2.915,1,1,1,0,1,1,0,1
2.92,0,3,0,2,6,1,1,0
2.925,1,2,7,2,2,1,1,2
2.93,0,2,1,1,1,1,1,0
2.935,1,2,0,0,1,2,3,1
2.94,1,4,2,0,3,1,2,1
2.945,1,4,3,0,1,2,1,1
2.95,1,0,1,0,2,1,1,2
2.955,0,0,1,2,0,1,1,1
2.96,1,1,0,3,2,3,1,3
2.965,1,0,0,1,3,1,1,0
2.97,2,7,4,3,3,3,2,3
2.975,4,5,5,1,4,2,3,1
2.98,2,4,1,2,2,0,1,1
2.985,1,1,8,4,1,1,1,0
2.99,1,5,5,5,1,1,1,0
2.995,1,0,2,1,3,1,2,1
3,2,4,1,2,3,3,2,2
3.005,1,6,1,1,1,1,1,2
3.01,1,3,3,0,0,2,1,1
3.015,3,6,2,1,1,2,2,1
3.02,1,2,4,1,2,1,2,1
3.025,1,2,2,2,2,3,3,1
3.03,2,11,5,1,4,2,1,2
3.035,0,6,2,3,2,0,2,3
3.04,1,3,3,1,3,2,2,2
3.045,0,1,1,2,3,1,2,1
3.05,1,2,2,0,3,3,1,1
3.055,1,2,2,1,4,0,0,1
3.06,0,1,2,5,2,0,0,1
3.065,0,1,5,3,1,1,1,0
3.07,2,3,5,1,2,1,2,2
3.075,3,7,2,2,2,2,1,1
3.08,2,11,3,1,2,1,1,0
3.085,3,34,10,3,2,2,2,2
3.09,2,7,7,3,3,3,3,3
3.095,1,5,5,1,1,1,1,2
3.1,5,10,3,3,5,3,2,2
3.105,1,13,4,6,2,0,0,0
3.11,2,4,1,2,3,0,1,2
3.115,1,4,2,3,3,2,1,2
3.12,3,1,2,0,3,1,2,0
3.125,1,3,5,2,1,1,2,2
3.13,1,0,0,1,2,1,1,1
3.135,0,0,0,0,0,2,1,1
3.14,1,5,1,2,3,1,1,1
3.145,0,3,8,3,1,0,3,1
3.15,0,6,2,1,1,2,1,2
3.155,3,3,4,6,4,4,3,2
3.16,1,5,1,2,1,2,2,0
3.165,1,3,4,4,8,6,4,1
3.17,3,1,8,4,3,1,3,2
3.175,2,0,4,2,4,2,3,3
3.18,1,1,1,3,1,3,1,0
3.185,1,2,5,2,4,7,4,1
3.19,2,3,2,1,1,1,0,0
3.195,1,2,3,3,4,1,1,1
3.2,0,2,3,1,1,0,1,0
3.205,2,0,9,2,1,0,0,3
3.21,2,0,7,0,4,2,1,1
3.215,1,0,5,2,4,1,2,1
3.22,1,0,3,2,3,1,3,2
3.225,1,14,2,5,2,0,0,2
3.23,2,11,1,1,4,4,2,1
3.235,1,3,0,0,0,1,1,1
3.24,1,4,5,4,2,3,1,1
3.245,1,6,3,2,1,1,1,2
3.25,1,7,2,0,2,1,4,1
3.255,2,6,5,2,2,2,3,0
3.26,0,4,2,0,3,1,0,2
3.265,0,2,0,2,1,3,1,0
3.27,0,1,1,1,2,0,2,1
3.275,1,1,2,2,2,2,0,1
3.28,1,6,6,3,0,1,2,1
3.285,2,1,1,4,4,2,1,1
3.29,1,5,2,0,4,2,1,2
3.295,1,2,2,0,2,1,0,1
3.3,4,3,4,2,1,2,0,0
3.305,1,1,2,3,0,1,2,0
3.31,0,2,8,2,1,2,1,2
3.315,2,7,0,1,1,0,1,1
3.32,1,4,2,1,1,3,1,1
3.325,1,2,3,0,3,3,2,0
3.33,2,3,8,3,3,1,1,0
3.335,1,0,1,2,2,2,0,0
3.34,1,5,2,0,1,2,0,1
3.345,2,2,5,3,5,4,3,3
3.35,0,1,2,1,0,0,2,1
3.355,3,9,1,2,1,2,0,1
3.36,1,10,0,2,1,0,2,1
3.365,1,3,0,1,1,1,0,0
3.37,1,2,3,2,2,1,0,0
3.375,5,25,7,1,2,0,2,1
3.38,1,4,1,3,2,1,1,2
3.385,2,3,6,0,1,2,2,1
3.39,1,3,5,2,2,1,3,1
3.395,3,15,2,0,2,0,0,1
3.4,5,45,19,8,1,1,1,3
3.405,1,7,8,1,4,3,1,2
3.41,2,4,11,3,2,2,2,2
3.415,0,6,0,3,1,1,0,2
3.42,2,5,3,2,2,2,0,1
3.425,0,2,2,3,1,2,0,1
3.43,4,5,6,5,2,1,3,0
3.435,0,1,2,6,2,2,2,3
3.44,0,2,2,3,0,0,2,0
3.445,1,7,2,6,2,2,2,2
3.45,1,4,11,2,3,2,2,2
3.455,1,8,19,6,1,2,3,2
3.46,2,2,8,5,3,3,4,1
3.465,1,1,4,1,0,2,0,1
3.47,1,1,6,1,2,2,1,2
3.475,2,3,4,0,2,0,0,0
3.48,0,0,2,2,1,3,1,0
3.485,1,4,3,3,2,0,2,1
3.49,0,1,4,4,4,3,1,2
3.495,8,42,4,5,2,1,2,3
3.5,0,10,0,1,2,2,1,0
3.505,1,6,2,1,3,3,1,1
3.51,1,8,6,3,3,0,2,1
3.515,0,6,3,0,3,1,2,1
3.52,1,1,3,1,1,2,1,2
3.525,0,3,4,5,3,4,2,0
3.53,1,2,10,3,0,3,3,3
3.535,1,5,2,1,0,1,0,0
3.54,1,1,4,1,2,1,0,2
3.545,0,6,2,2,2,2,0,1
3.55,1,4,12,5,1,2,2,2
3.555,1,4,4,1,1,1,2,0
3.56,0,4,6,1,2,0,1,3
3.565,4,9,0,1,3,1,2,2
3.57,4,5,9,6,1,4,0,0
3.575,1,5,6,1,1,1,0,2
3.58,1,1,2,1,4,2,1,0
3.585,0,5,5,1,0,3,1,1
3.59,0,2,6,3,2,2,1,1
3.595,0,4,3,3,2,1,1,0
3.6,2,9,2,1,4,3,2,1
3.605,3,9,5,1,2,1,0,0
3.61,0,3,3,3,4,0,1,1
3.615,2,19,2,1,3,4,3,1
3.62,0,5,5,1,4,1,2,0
3.625,2,1,12,4,1,0,1,0
3.63,2,2,3,2,2,1,1,1
3.635,2,9,1,3,1,1,2,1
3.64,1,0,2,3,5,1,1,1
3.645,1,2,7,3,3,1,2,1
3.65,2,3,10,1,1,2,1,2
3.655,1,5,5,3,2,1,2,1
3.66,1,7,2,3,5,7,2,1
3.665,0,7,2,1,4,3,0,1
3.67,2,3,4,6,2,3,2,1
3.675,2,1,6,10,5,2,2,1
3.68,3,2,5,2,1,1,2,1
3.685,0,2,3,2,0,0,1,1
3.69,4,4,5,3,1,4,3,2
3.695,1,3,1,2,1,2,1,1
3.7,1,9,2,5,2,0,0,0
3.705,2,37,4,2,4,5,2,3
3.71,3,9,2,1,2,4,2,4
3.715,0,2,18,1,1,2,1,1
3.72,0,1,0,3,2,1,0,0
3.725,2,12,2,1,1,0,0,1
3.73,0,8,3,5,5,3,1,1
3.735,0,6,3,1,2,1,1,3
3.74,1,1,2,4,3,2,4,1
3.745,3,1,4,1,2,2,1,2
3.75,1,1,1,0,0,2,2,0
3.755,0,14,1,1,3,2,0,0
3.76,3,3,2,2,0,1,2,2
3.765,0,11,1,0,4,3,3,1
3.77,8,11,11,4,2,6,6,4
3.775,1,2,6,3,3,4,1,2
3.78,0,0,2,2,1,1,1,0
3.785,4,1,3,1,1,0,1,1
3.79,1,2,1,2,1,3,1,2
3.795,1,1,1,3,3,4,2,1
3.8,6,5,2,2,0,3,2,3
3.805,3,6,2,3,3,1,2,1
3.81,2,3,4,3,3,1,1,0
3.815,1,4,4,0,1,1,1,1
3.82,4,13,0,1,1,3,2,2
3.825,0,2,9,3,1,0,3,2
3.83,1,9,2,1,1,0,0,1
3.835,2,6,6,0,3,3,3,1
3.84,4,2,1,1,3,0,1,7
3.845,6,0,5,3,2,1,2,11
3.85,5,16,5,1,1,1,0,6
3.855,1,18,3,2,3,4,1,1
3.86,3,7,3,3,0,0,0,0
3.865,1,7,2,1,0,1,0,4
3.87,3,16,4,0,1,1,0,4
3.875,2,2,0,2,3,3,1,3
3.88,4,5,9,4,3,4,5,0
3.885,2,19,3,0,2,3,2,1
3.89,1,4,2,0,1,1,0,0
3.895,0,10,1,0,0,0,1,0
3.9,0,0,0,1,0,2,0,5
3.905,1,15,7,4,1,1,1,1
3.91,1,26,1,2,2,3,3,0
3.915,3,2,0,0,2,0,2,1
3.92,1,2,0,1,0,0,0,3
3.925,1,2,15,1,0,1,2,1
3.93,1,8,8,3,2,0,0,1
3.935,1,9,5,1,1,1,1,3
3.94,2,0,1,2,1,0,2,1
3.945,0,1,3,2,2,3,3,0
3.95,0,7,1,3,2,0,1,0
3.955,1,1,4,4,4,5,2,1
3.96,2,4,1,1,1,0,1,1
3.965,1,2,1,1,1,1,1,2
3.97,1,3,2,4,2,1,0,0
3.975,1,3,3,3,0,1,2,3
3.98,0,1,5,1,0,1,1,1
3.985,4,2,0,1,1,4,0,2
3.99,0,4,3,1,2,2,2,0
3.995,2,3,4,5,2,1,2,3
4,1,2,4,0,2,0,2,1
4.005,3,2,2,1,3,0,1,1
4.01,1,11,5,1,2,1,3,1
4.015,2,10,6,3,3,1,0,0
4.02,0,1,5,1,1,3,1,2
4.025,2,2,24,7,5,5,2,3
4.03,1,8,4,2,0,0,1,1
4.035,1,4,7,1,4,5,3,3
4.04,1,1,5,0,1,0,3,1
4.045,2,0,7,1,1,0,6,2
4.05,4,1,3,2,2,2,1,2
4.055,0,0,6,3,2,2,4,2
4.06,4,12,1,3,3,2,0,2
4.065,5,22,2,4,0,2,0,2
4.07,3,10,3,5,2,3,4,6
4.075,1,3,0,3,2,0,0,3
4.08,2,1,6,2,1,1,1,2
4.085,0,1,3,2,2,2,0,1
4.09,0,2,1,3,5,0,2,0
4.095,3,2,3,0,2,2,1,1
4.1,3,13,18,6,6,6,4,4
4.105,0,5,9,2,0,1,0,1
4.11,1,5,7,4,4,2,0,1
4.115,0,3,4,2,4,4,3,4
4.12,1,4,9,3,2,0,3,1
4.125,2,2,9,2,1,1,1,2
4.13,2,9,7,1,4,0,1,1
4.135,2,2,4,4,3,4,3,3
4.14,6,10,5,0,2,3,2,5
4.145,1,5,1,3,3,1,2,0
4.15,1,3,12,0,2,1,1,0
4.155,1,0,9,1,3,3,0,0
4.16,2,4,5,2,3,2,0,0
4.165,0,2,2,3,3,4,4,0
4.17,2,7,6,2,3,4,3,3
4.175,1,4,3,3,1,3,1,1
4.18,2,1,1,3,1,1,1,2
4.185,3,3,1,4,1,2,2,1
4.19,1,13,6,6,1,1,2,2
4.195,6,19,7,3,4,4,3,3
4.2,0,6,1,1,0,1,1,1
4.205,0,1,2,1,0,1,0,2
4.21,0,2,10,4,3,0,0,2
4.215,3,3,24,8,4,3,1,2
4.22,2,2,10,2,2,2,3,2
4.225,0,0,5,2,1,1,2,0
4.23,1,5,1,3,3,1,0,1
4.235,2,2,11,1,1,1,1,3
4.24,2,11,11,4,2,1,0,1
4.245,1,3,2,0,0,0,0,2
4.25,1,13,5,4,5,6,3,1
4.255,3,18,5,3,2,4,1,2
4.26,0,2,6,0,1,2,0,2
4.265,0,2,1,2,2,2,0,1
4.27,2,10,4,3,3,3,0,0
4.275,1,1,2,2,1,2,1,2
4.28,1,1,1,4,6,1,3,1
4.285,2,4,3,1,5,0,0,2
4.29,1,1,7,1,3,0,1,2
4.295,1,15,10,1,0,1,1,4
4.3,3,2,11,1,0,1,1,0
4.305,1,4,3,3,6,1,0,0
4.31,2,3,3,1,2,3,1,2
4.315,1,6,5,1,1,2,4,1
4.32,3,8,9,1,1,1,0,6
4.325,3,10,0,4,2,5,3,7
4.33,6,1,9,1,0,2,3,4
4.335,2,11,3,2,0,2,1,1
4.34,0,11,5,2,2,1,1,9
4.345,3,17,0,2,1,3,2,2
4.35,2,1,5,1,0,1,6,21
4.355,0,5,3,2,3,1,9,19
4.36,6,9,0,1,1,3,3,8
4.365,11,12,1,2,0,3,3,27
4.37,15,9,2,3,4,1,2,1
4.375,7,16,10,2,1,0,4,2
4.38,2,0,8,0,2,2,3,8
4.385,0,4,3,1,0,4,4,8
4.39,9,8,1,1,3,3,2,7
4.395,1,8,3,1,2,0,0,2
4.4,0,5,4,2,2,2,1,6
4.405,0,9,3,4,6,4,4,4
4.41,4,4,2,2,1,0,2,6
4.415,4,3,4,2,1,2,2,5
4.42,4,1,0,0,0,2,1,5
4.425,1,2,0,1,4,3,2,3
4.43,1,0,5,2,2,0,2,5
4.435,0,5,21,6,5,1,0,1
4.44,4,5,12,5,4,4,2,5
4.445,1,4,4,3,6,3,2,3
4.45,0,0,0,6,2,3,2,0
4.455,2,5,2,2,8,3,4,2
4.46,3,0,2,3,2,0,2,3
4.465,0,3,8,17,3,3,1,1
4.47,1,3,17,3,2,2,1,3
4.475,1,1,3,0,1,1,1,1
4.48,5,8,10,4,6,6,4,2
4.485,1,9,15,10,2,4,3,1
4.49,1,8,11,0,5,1,0,1
4.495,1,8,12,4,2,1,1,0
4.5,0,3,11,0,5,1,2,3
4.505,2,2,2,2,0,4,1,1
4.51,1,1,9,4,1,1,7,1
4.515,2,2,9,4,1,4,6,3
4.52,0,3,2,3,0,2,1,1
4.525,3,0,1,3,1,0,3,2
4.53,1,3,3,4,2,0,1,1
4.535,1,0,8,0,2,2,1,0
4.54,0,2,3,3,0,1,1,2
4.545,1,1,3,1,0,1,0,0
4.55,2,1,1,0,2,3,4,0
4.555,1,2,2,1,2,1,0,0
4.56,2,4,8,2,2,1,2,0
4.565,3,2,34,6,6,0,1,1
4.57,1,0,0,5,3,2,5,2
4.575,1,1,14,1,2,0,1,0
4.58,2,5,11,1,0,1,0,1
4.585,1,1,11,3,1,1,2,1
4.59,1,3,8,5,3,1,2,1
4.595,2,1,2,1,1,3,1,0
4.6,0,2,1,5,5,3,1,1
4.605,0,4,7,3,1,0,3,0
4.61,2,1,3,5,4,0,4,1
4.615,2,2,8,1,0,1,5,1
4.62,1,1,2,3,1,2,1,1
4.625,0,2,10,3,3,1,1,0
4.63,2,3,9,2,3,1,0,2
4.635,1,5,29,7,0,1,1,1
4.64,0,2,5,0,1,0,2,1
4.645,0,2,4,1,1,3,2,1
4.65,0,2,13,3,4,1,1,1
4.655,1,2,0,4,1,4,3,5
4.66,4,3,3,1,1,2,5,14
4.665,1,2,2,2,2,1,4,2
4.67,0,1,3,4,5,0,3,1
4.675,1,4,6,0,3,0,1,2
4.68,2,2,3,2,4,7,9,1
4.685,1,0,13,0,2,7,7,2
4.69,4,2,10,0,2,5,5,7
4.695,6,3,7,2,3,3,6,4
4.7,4,1,2,1,1,2,2,1
4.705,2,0,1,1,1,3,1,4
4.71,2,4,5,2,0,3,0,3
4.715,3,2,9,2,3,1,1,9
4.72,4,5,6,3,7,7,16,34
4.725,0,2,1,1,2,1,1,1
4.73,3,1,1,2,2,2,1,3
4.735,1,1,8,5,0,3,0,1
4.74,2,2,2,2,0,1,2,10
4.745,2,2,3,3,3,2,2,2
4.75,1,0,4,4,0,4,2,3
4.755,1,1,5,2,3,1,2,2
4.76,1,1,8,1,1,0,0,3
4.765,5,0,6,2,6,4,2,4
4.77,2,1,2,7,4,1,2,2
4.775,2,3,12,1,8,1,0,4
4.78,2,1,7,0,0,1,1,5
4.785,0,1,2,7,1,2,1,0
4.79,2,2,8,8,9,3,1,1
4.795,1,2,7,15,12,6,4,6
4.8,3,0,0,10,0,0,1,4
4.805,2,2,2,5,0,1,1,2
4.81,1,2,8,10,4,1,3,2
4.815,1,3,11,6,2,2,0,0
4.82,1,0,1,2,4,1,2,6
4.825,2,2,11,7,9,6,3,3
4.83,3,2,4,1,1,1,5,1
4.835,3,3,7,0,3,3,10,1
4.84,0,1,1,0,0,2,4,1
4.845,3,7,12,2,0,0,1,3
4.85,1,3,3,5,3,2,0,1
4.855,1,1,1,4,2,2,0,1
4.86,2,2,4,0,1,3,1,1
4.865,0,2,5,1,2,3,4,0
4.87,2,5,10,5,2,1,4,3
4.875,5,1,0,3,5,2,3,2
4.88,2,1,3,0,2,2,3,1
4.885,2,4,0,0,0,0,4,1
4.89,1,2,3,4,2,2,5,4
4.895,4,2,0,3,1,1,1,8
4.9,1,3,3,2,3,2,15,19
4.905,4,2,2,7,4,3,9,7
4.91,2,0,6,3,4,2,1,2
4.915,2,3,1,1,0,3,0,2
4.92,1,1,2,2,2,3,3,5
4.925,1,3,4,4,2,4,8,1
4.93,2,3,0,1,1,1,4,0
4.935,2,3,18,0,0,1,0,3
4.94,1,3,2,3,6,5,4,1
4.945,5,1,11,3,3,1,2,3
4.95,3,3,6,2,1,0,1,2
4.955,0,0,3,2,2,3,3,3
4.96,1,2,1,5,3,1,4,1
4.965,0,0,1,5,5,2,2,3
4.97,4,5,6,7,5,6,8,2
4.975,1,1,0,1,3,3,7,1
4.98,3,7,8,4,0,1,5,1
4.985,0,3,3,2,0,0,3,7
4.99,3,3,3,3,2,3,4,7
4.995,2,2,2,4,0,1,0,12
5,0,4,6,2,1,2,3,4
5.005,3,2,1,1,4,5,1,2
5.01,3,1,5,2,1,2,3,3
5.015,3,7,17,5,0,3,0,0
5.02,0,2,1,1,2,1,0,1
5.025,1,1,4,1,3,3,3,2
5.03,3,7,1,3,3,1,4,0
5.035,2,1,9,2,1,1,5,4
5.04,1,2,1,4,10,2,2,1
5.045,2,1,4,1,3,4,5,2
5.05,6,8,4,7,4,3,0,3
5.055,0,2,2,0,2,0,0,1
5.06,1,1,6,6,4,2,0,1
5.065,1,3,1,6,5,3,3,3
5.07,0,1,1,4,1,3,1,1
5.075,2,3,3,0,9,0,1,1
5.08,1,0,3,5,4,2,0,0
5.085,2,4,7,3,3,1,1,3
5.09,0,5,4,7,5,1,1,3
5.095,3,1,3,2,7,4,3,0
5.1,1,2,2,0,6,2,1,6
5.105,4,0,1,4,6,3,1,10
5.11,0,6,0,4,3,3,1,0
5.115,1,2,2,2,3,2,2,0
5.12,4,5,2,4,2,3,1,7
5.125,6,1,1,2,4,3,1,17
5.13,4,8,3,1,2,2,1,4
5.135,2,16,8,2,0,0,2,9
5.14,3,11,1,5,5,5,3,5
5.145,6,3,3,1,1,2,3,11
5.15,1,2,6,4,2,0,2,3
5.155,3,4,7,1,2,2,1,3
5.16,2,6,2,1,4,0,0,2
5.165,0,8,5,1,1,0,2,3
5.17,1,6,1,4,2,3,0,23
5.175,3,6,1,2,1,0,2,3
5.18,5,11,0,3,3,4,3,2
5.185,4,3,1,3,1,4,3,15
5.19,1,7,2,0,1,2,1,9
5.195,0,13,2,1,2,4,2,3
5.2,2,4,5,1,2,1,1,3
5.205,3,15,1,1,1,0,0,3
5.21,4,5,5,0,1,0,3,1
5.215,0,9,2,1,4,1,0,4
5.22,0,2,2,1,0,0,0,6
5.225,1,3,1,2,1,1,2,5
5.23,1,2,3,1,2,3,4,1
5.235,0,13,7,0,1,1,3,1
5.24,3,6,4,3,1,2,1,3
5.245,5,13,5,3,4,2,4,6
5.25,0,2,1,0,0,0,0,3
5.255,2,10,3,0,2,1,2,3
5.26,1,15,1,2,3,0,0,3
5.265,5,28,7,0,1,1,1,6
5.27,2,1,2,1,0,1,1,5
5.275,5,2,0,3,1,2,2,2
5.28,1,32,6,0,2,2,1,0
5.285,4,20,3,0,2,3,1,3
5.29,2,14,8,2,2,0,1,1
5.295,1,2,0,1,1,1,0,0
5.3,3,14,3,1,1,1,0,3
5.305,2,1,0,1,3,1,0,0
5.31,1,7,2,3,4,3,3,1
5.315,1,12,1,1,1,2,1,2
5.32,3,28,5,2,2,3,0,1
5.325,2,2,1,0,0,1,1,2
5.33,4,0,5,1,2,3,0,1
5.335,2,2,1,2,2,3,2,1
5.34,2,15,3,1,3,2,3,3
5.345,2,8,3,2,1,1,1,1
5.35,0,19,6,1,2,0,1,0
5.355,0,10,3,2,1,2,1,1
5.36,2,20,3,2,2,4,1,2
5.365,1,2,2,1,1,1,4,7
5.37,2,2,1,0,2,0,0,8
5.375,1,5,1,3,3,1,1,9
5.38,6,26,6,0,1,2,2,0
5.385,1,3,1,3,0,3,1,4
5.39,4,6,1,5,2,3,4,3
5.395,7,9,10,4,5,4,3,0
5.4,3,1,1,2,1,1,0,5
5.405,5,11,2,3,3,1,1,8
5.41,0,8,2,2,1,0,0,3
5.415,1,3,0,3,4,1,1,1
5.42,3,5,1,4,1,3,3,2
5.425,4,2,2,1,1,0,2,2
5.43,1,1,5,1,1,3,0,4
5.435,4,23,1,1,0,0,3,4
5.44,0,2,1,2,1,2,2,4
5.445,0,6,2,0,2,2,2,3
5.45,6,3,3,1,0,0,2,16
5.455,2,4,2,1,2,1,1,4
5.46,1,7,2,1,1,0,2,5
5.465,1,9,2,1,1,2,1,11
5.47,2,6,2,1,1,0,0,3
5.475,0,2,2,3,0,0,1,12
5.48,8,11,1,1,2,3,4,6
5.485,5,6,2,2,2,1,3,4
5.49,6,15,7,2,3,3,1,1
5.495,5,1,0,0,1,1,1,5
5.5,2,3,1,2,2,2,2,0
5.505,0,4,1,0,3,0,2,3
5.51,1,9,0,0,2,1,1,0
5.515,1,8,1,2,2,0,1,4
5.52,3,18,5,2,1,3,3,6
5.525,4,4,2,2,2,2,0,5
5.53,0,6,4,4,2,2,3,1
5.535,1,12,3,0,1,1,0,1
5.54,3,19,6,2,0,3,2,2
5.545,2,6,0,4,2,1,3,2
5.55,2,4,1,1,0,1,0,3
5.555,0,12,1,1,2,1,0,1
5.56,0,23,0,2,2,0,0,5
5.565,2,8,2,0,0,4,4,14
5.57,1,11,6,3,0,1,2,1
5.575,4,3,0,1,3,1,1,0
5.58,2,10,5,1,2,3,0,1
5.585,2,6,3,0,2,0,0,3
5.59,4,1,2,1,3,1,0,6
5.595,3,5,6,3,4,6,3,6
5.6,1,4,1,0,2,2,0,3
5.605,4,7,1,4,1,2,2,1
5.61,0,1,0,0,1,1,0,0
5.615,0,5,1,1,2,0,2,2
5.62,3,6,1,1,1,0,1,2
5.625,2,1,4,2,5,4,2,1
5.63,0,0,0,1,0,0,0,2
5.635,1,9,1,2,3,3,0,5
5.64,5,16,0,3,2,4,3,7
5.645,0,1,1,1,2,1,2,1
5.65,1,1,0,1,0,1,2,1
5.655,1,1,0,0,1,2,1,10
5.66,2,10,2,0,0,3,0,3
5.665,1,2,2,0,1,1,0,0
5.67,2,3,0,2,2,4,2,0
5.675,1,4,2,0,2,1,0,7
5.68,10,3,1,3,2,2,1,9
5.685,5,7,1,1,0,2,2,4
5.69,8,14,2,1,0,1,1,7
5.695,1,3,0,2,0,1,0,3
5.7,2,1,3,1,0,1,2,1
5.705,0,7,2,3,4,3,1,4
5.71,2,3,0,2,0,1,4,15
5.715,1,4,3,3,1,0,0,1
5.72,0,4,2,1,3,1,1,1
5.725,0,2,1,2,1,1,0,3
5.73,1,5,3,3,3,2,3,2
5.735,1,3,2,2,4,4,2,3
5.74,4,6,2,3,1,0,0,1
5.745,4,8,0,1,2,1,1,1
5.75,2,10,4,4,5,5,3,3
5.755,4,10,0,2,2,1,2,3
5.76,3,10,1,1,1,1,0,1
5.765,5,14,5,2,3,4,4,5
5.77,2,3,1,1,0,0,0,3
5.775,4,1,1,3,3,1,1,1
5.78,2,3,0,1,1,3,2,3
5.785,2,19,1,1,1,0,0,1
5.79,1,5,4,0,3,4,1,1
5.795,3,1,0,1,2,3,2,0
5.8,0,0,1,1,1,4,1,2
5.805,0,5,0,1,2,1,2,1
5.81,2,5,3,4,3,1,1,1
5.815,3,8,3,2,3,6,1,2
5.82,2,0,0,3,4,3,1,4
5.825,1,2,1,0,2,0,0,3
5.83,0,6,0,1,1,1,1,7
5.835,2,2,1,1,1,1,0,1
5.84,4,8,4,2,4,3,1,6
5.845,5,13,3,2,3,3,3,9
5.85,0,8,1,1,0,1,0,2
5.855,7,2,2,2,1,2,2,16
5.86,4,6,0,2,3,2,4,3
5.865,6,16,2,3,4,2,3,4
5.87,1,1,0,0,0,2,3,2
5.875,2,2,2,5,5,5,4,5
5.88,2,7,5,4,0,0,2,3
5.885,2,2,1,3,3,2,1,2
5.89,1,2,1,3,3,3,2,3
5.895,1,2,2,2,4,2,4,2
5.9,0,3,0,0,0,2,1,3
5.905,2,3,1,2,1,1,1,3
5.91,0,1,2,1,4,2,0,2
5.915,1,5,2,0,1,2,1,0
5.92,3,1,2,1,0,1,1,2
5.925,0,11,2,1,0,2,2,3
5.93,6,31,4,3,0,2,1,3
5.935,1,2,2,2,6,4,3,1
5.94,1,1,0,2,0,1,0,0
5.945,4,4,3,1,1,2,0,4
5.95,0,3,0,2,0,2,1,4
5.955,0,4,2,1,2,1,2,2
5.96,2,13,0,1,0,0,1,2
5.965,3,4,3,3,1,3,0,1
5.97,3,6,1,2,1,1,0,3
5.975,1,10,3,3,3,4,2,1
5.98,6,7,0,2,3,4,2,5
5.985,3,1,1,1,0,1,1,2
5.99,1,2,0,1,1,1,1,3
5.995,0,1,3,3,1,0,0,0
6,0,9,1,2,1,2,0,1
6.005,0,13,3,0,0,1,2,0
6.01,0,4,0,0,1,0,0,0
6.015,3,4,0,4,3,4,2,3
6.02,3,5,1,0,0,2,2,8
6.025,3,3,1,1,5,2,2,8
6.03,2,11,2,1,1,1,3,0
6.035,2,3,0,2,3,3,2,3
6.04,0,2,3,2,2,2,0,2
6.045,1,0,1,1,4,3,3,1
6.05,0,2,1,1,1,1,2,4
6.055,0,3,1,1,0,1,1,1
6.06,1,0,3,0,0,1,2,4
6.065,0,7,1,1,2,2,0,1
6.07,2,3,0,2,0,1,0,6
6.075,4,8,0,0,1,1,1,2
6.08,1,7,6,2,3,3,3,15
6.085,2,14,2,0,3,2,1,1
6.09,3,9,4,3,5,1,1,1
6.095,0,4,2,2,1,2,0,3
6.1,2,9,1,2,0,0,0,1
6.105,3,5,2,3,3,3,2,7
6.11,3,3,0,1,1,0,1,13
6.115,1,1,2,3,5,3,2,3
6.12,3,3,1,2,2,3,1,2
6.125,3,6,3,1,2,2,1,3
6.13,1,8,1,0,2,1,1,13
6.135,4,8,4,3,3,3,5,12
6.14,1,1,2,0,0,1,1,1
6.145,1,3,2,2,2,2,1,1
6.15,5,5,3,0,2,1,1,1
6.155,5,3,2,2,3,0,5,9
6.16,2,1,0,0,1,0,2,11
6.165,2,1,1,2,1,1,0,4
6.17,0,2,1,0,1,2,1,1
6.175,1,4,3,0,3,3,0,8
6.18,1,2,0,1,1,0,0,4
6.185,2,1,1,2,4,2,3,10
6.19,2,9,4,2,2,0,4,5
6.195,4,3,0,2,2,2,3,5
6.2,0,2,2,5,2,0,2,6
6.205,5,1,1,0,0,0,2,0
6.21,8,8,3,0,2,3,5,2
6.215,10,27,2,2,3,2,0,10
6.22,0,2,0,3,0,0,1,1
6.225,3,3,1,0,1,1,0,5
6.23,2,3,1,2,1,0,4,0
6.235,11,0,4,3,2,3,4,17
6.24,20,8,1,1,1,1,0,5
6.245,8,3,2,4,1,4,7,11
6.25,2,5,2,1,0,0,10,26
6.255,3,11,4,0,1,0,4,4
6.26,9,7,2,3,3,1,7,41
6.265,4,4,1,1,2,2,5,32
6.27,8,1,0,2,1,2,0,11
6.275,4,1,1,2,1,0,5,21
6.28,1,3,2,2,4,4,2,3
6.285,1,8,3,1,1,0,4,12
6.29,8,1,3,1,4,2,3,10
6.295,4,1,6,1,1,0,0,2
6.3,7,6,1,3,4,3,5,13
6.305,1,17,1,1,3,4,1,7
6.31,6,20,3,1,6,5,1,0
6.315,2,8,1,2,2,2,2,2
6.32,1,7,2,6,2,3,0,2
6.325,1,28,3,2,3,2,2,2
6.33,2,14,2,9,5,4,0,0
6.335,1,4,2,2,0,2,1,2
6.34,5,0,1,3,1,1,4,7
6.345,0,1,1,2,1,1,1,3
6.35,1,2,0,1,3,6,1,3
6.355,1,2,1,4,4,5,2,3
6.36,1,0,2,3,3,5,3,8
6.365,3,4,1,3,1,1,1,1
6.37,0,2,1,10,1,2,2,7
6.375,2,10,4,0,4,2,1,0
6.38,2,7,1,5,4,0,2,7
6.385,1,7,0,2,0,1,0,0
6.39,2,7,0,1,4,3,3,0
6.395,0,2,1,4,3,3,0,2
6.4,1,4,4,6,1,1,1,3
6.405,1,11,3,3,1,2,1,0
6.41,0,7,4,2,0,1,1,1
6.415,2,4,1,0,0,0,0,1
6.42,2,0,1,0,3,3,4,1
6.425,2,8,2,1,3,2,0,2
6.43,1,5,1,0,0,0,1,0
6.435,0,5,1,2,1,1,0,2
6.44,2,4,4,4,1,1,2,2
6.445,2,4,1,3,4,3,1,2
6.45,2,1,1,4,0,1,1,1
6.455,1,1,1,2,2,1,1,0
6.46,1,5,3,1,1,1,2,4
6.465,1,1,3,1,4,2,2,1
6.47,1,0,2,2,6,3,2,1
6.475,2,4,0,3,1,1,1,4
6.48,0,3,1,0,2,1,0,2
6.485,3,14,2,1,1,1,0,0
6.49,0,13,1,2,0,3,1,0
6.495,3,15,4,1,1,0,1,3
6.5,2,1,0,1,2,3,1,1
6.505,1,0,1,1,1,1,1,2
6.51,2,2,3,2,0,3,4,4
6.515,0,3,0,0,4,3,1,4
6.52,2,6,2,3,4,4,2,3
6.525,0,5,1,0,1,3,2,1
6.53,2,15,3,3,2,1,0,2
6.535,1,2,1,3,5,2,2,2
6.54,5,8,2,1,0,1,0,1
6.545,0,3,0,0,0,2,1,1
6.55,2,4,2,1,2,1,1,0
6.555,4,1,1,0,3,4,2,1
6.56,0,4,2,3,3,3,1,0
6.565,0,2,4,1,1,1,2,0
6.57,3,4,2,2,2,1,0,3
6.575,1,2,2,3,2,4,2,2
6.58,1,5,1,2,3,1,2,1
6.585,3,4,0,0,0,1,2,3
6.59,1,9,2,1,1,1,1,1
6.595,3,21,0,1,1,1,1,0
6.6,4,31,3,2,2,3,1,2
6.605,1,3,2,3,1,3,1,2
6.61,1,14,1,3,3,2,1,2
6.615,0,20,2,0,3,2,2,0
6.62,0,11,0,1,1,0,1,3
6.625,1,8,1,3,2,1,1,1
6.63,2,6,1,3,2,4,3,1
6.635,2,5,1,2,2,2,1,1
6.64,1,8,1,0,1,1,0,1
6.645,2,5,3,2,1,1,1,1
6.65,0,5,1,1,1,1,1,1
6.655,2,3,1,0,1,1,1,0
6.66,2,11,4,2,1,4,0,1
6.665,1,4,2,1,0,0,0,0
6.67,2,2,0,1,2,1,1,0
6.675,1,1,1,3,1,3,2,2
6.68,1,2,1,1,1,2,2,0
6.685,0,0,1,0,1,2,1,1
6.69,2,8,3,1,2,1,1,1
6.695,3,5,2,2,2,4,3,3
6.7,1,7,0,1,0,0,2,2
6.705,1,3,2,2,0,0,2,2
6.71,0,5,4,2,3,4,3,0
6.715,5,6,1,0,2,2,2,1
6.72,2,6,1,4,2,0,1,0
6.725,0,3,0,2,2,1,1,4
6.73,3,2,0,1,0,2,2,3
6.735,0,3,5,1,3,1,0,1
6.74,0,1,3,0,1,0,0,1
6.745,0,1,0,1,1,0,0,1
6.75,2,3,0,2,3,3,3,1
6.755,2,2,2,2,2,3,3,2
6.76,0,3,1,1,1,3,2,1
6.765,0,2,1,1,1,4,2,1
6.77,1,8,1,1,0,4,1,0
6.775,4,8,1,2,3,3,1,2
6.78,2,31,3,1,1,0,2,0
6.785,3,8,2,3,2,3,1,1
6.79,1,12,1,4,2,4,2,1
6.795,1,3,3,0,0,1,0,1
6.8,1,7,2,1,2,0,1,2
6.805,3,2,1,1,3,0,1,1
6.81,1,3,2,1,2,1,1,1
6.815,1,11,4,2,1,0,2,2
6.82,1,6,0,1,0,3,0,1
6.825,1,2,2,2,1,1,1,2
6.83,1,4,1,3,0,1,1,1
6.835,0,3,1,1,1,0,0,0
6.84,1,14,1,0,1,3,2,2
6.845,3,8,4,3,3,3,2,2
6.85,0,3,2,1,0,1,0,0
6.855,0,6,1,2,0,0,1,2
6.86,1,6,1,0,1,1,0,0
6.865,1,4,1,3,3,3,1,2
6.87,3,5,3,5,4,4,4,2
6.875,2,1,1,0,2,1,4,1
6.88,2,1,0,1,1,2,0,2
6.885,0,16,2,2,0,4,2,1
6.89,1,15,3,0,2,2,0,1
6.895,1,11,2,2,2,2,0,0
6.9,0,2,0,3,3,4,1,0
6.905,2,7,4,2,5,3,3,2
6.91,3,3,3,1,2,1,2,2
6.915,2,1,2,4,3,4,0,1
6.92,1,3,0,2,5,1,2,3
6.925,1,4,1,3,1,1,2,2
6.93,2,1,1,3,3,4,4,2
6.935,1,9,1,1,3,2,2,1
6.94,0,4,1,0,2,2,1,1
6.945,0,3,3,0,0,1,4,1
6.95,1,3,1,3,3,0,1,1
6.955,1,15,0,0,2,1,1,1
6.96,5,29,3,2,1,2,2,1
6.965,0,1,0,0,2,1,1,0
6.97,0,4,1,1,0,0,1,2
6.975,1,2,0,4,0,2,2,1
6.98,1,7,2,1,1,1,2,1
6.985,3,6,1,1,1,1,1,0
6.99,2,9,6,1,1,1,0,1
6.995,0,5,4,4,4,3,1,0
7,1,10,3,3,3,3,3,3
7.005,2,0,1,3,3,1,1,2
7.01,0,2,2,0,1,1,1,0
7.015,1,7,5,6,2,1,2,2
7.02,1,1,3,1,1,1,1,1
7.025,2,0,2,0,2,2,1,0
7.03,3,5,1,1,1,3,2,3
7.035,1,6,0,0,0,0,0,1
7.04,2,3,1,3,4,2,1,1
7.045,2,4,1,4,2,3,1,2
7.05,0,13,0,2,0,0,3,1
7.055,1,3,3,3,3,1,1,2
7.06,0,0,2,2,1,1,2,0
7.065,0,18,3,3,1,0,1,0
7.07,4,13,3,3,4,0,1,2
7.075,1,3,1,1,3,2,3,2
7.08,0,1,0,1,1,5,0,0
7.085,0,5,0,2,3,1,0,0
7.09,1,4,1,2,1,2,0,1
7.095,2,0,1,1,1,3,4,0
7.1,3,1,2,2,2,1,0,2
7.105,0,12,2,4,4,5,4,1
7.11,1,4,1,3,2,1,1,1
7.115,2,2,2,1,0,2,0,2
7.12,1,5,2,1,0,0,0,1
7.125,0,7,1,0,0,1,1,1
7.13,2,12,2,1,4,1,1,1
7.135,1,4,0,2,1,3,1,1
7.14,1,2,2,0,0,0,2,1
7.145,0,5,1,0,0,1,1,0
7.15,1,2,0,3,0,1,0,2
7.155,1,7,3,5,4,4,2,0
7.16,1,16,0,1,3,4,0,1
7.165,3,29,2,2,2,0,1,3
7.17,0,11,3,3,1,2,1,1
7.175,0,2,1,4,3,2,3,1
7.18,3,9,3,3,5,1,1,0
7.185,0,2,0,0,5,2,1,1
7.19,2,4,0,0,2,2,1,1
7.195,0,8,2,3,3,2,1,1
7.2,0,8,1,1,4,3,3,1
7.205,2,7,6,1,3,1,0,1
7.21,2,8,1,2,0,2,3,1
7.215,1,1,4,1,2,1,1,0
7.22,0,3,2,1,0,1,2,1
7.225,3,19,3,1,2,0,0,0
7.23,3,24,8,2,3,6,3,1
7.235,0,3,1,2,0,0,0,1
7.24,1,8,2,0,1,2,1,1
7.245,0,3,2,1,0,0,0,1
7.25,2,11,1,4,2,2,0,1
7.255,2,3,1,2,3,1,2,1
7.26,3,6,3,1,1,0,1,0
7.265,1,3,1,2,0,0,0,1
7.27,0,2,1,3,3,3,3,2
7.275,3,9,2,2,2,5,3,1
7.28,1,6,0,0,3,3,1,1
7.285,1,6,3,1,1,0,0,1
7.29,0,1,2,4,1,0,0,1
7.295,1,8,0,4,3,1,3,0
7.3,0,7,1,2,2,2,2,3
7.305,2,5,4,1,2,2,1,1
7.31,3,23,1,4,1,3,0,1
7.315,1,15,3,2,1,0,1,0
7.32,2,5,1,5,2,5,2,2
7.325,2,6,1,1,1,2,1,2
7.33,2,0,1,4,2,2,2,2
7.335,1,11,2,0,2,4,1,1
7.34,1,3,0,1,1,0,0,1
7.345,2,2,3,5,2,3,3,2
7.35,2,14,2,2,2,3,1,1
7.355,1,7,1,2,2,2,2,1
7.36,1,2,2,2,1,0,2,2
7.365,1,8,0,0,0,1,0,2
7.37,1,10,1,3,2,4,1,1
7.375,2,6,0,2,0,5,1,1
7.38,2,4,4,3,0,1,1,1
7.385,0,1,1,1,0,1,2,1
7.39,3,0,1,1,3,2,1,0
7.395,1,5,1,3,1,0,2,1
7.4,3,9,3,2,2,2,2,1
7.405,1,4,1,0,1,2,1,3
7.41,1,5,4,3,0,1,0,1
7.415,0,2,0,2,1,1,1,3
7.42,1,2,2,0,1,1,2,0
7.425,0,13,0,1,1,1,0,1
7.43,1,33,3,0,3,1,2,3
7.435,2,11,4,2,2,1,3,1
7.44,2,1,4,4,0,1,2,1
7.445,0,2,2,0,3,3,3,2
7.45,2,0,4,2,4,1,2,1
7.455,0,10,0,1,1,1,1,1
7.46,0,7,0,0,1,1,1,0
7.465,1,1,2,3,5,1,1,1
7.47,3,2,5,3,7,2,3,1
7.475,1,5,0,1,1,1,0,2
7.48,1,2,1,1,1,1,1,3
7.485,2,10,4,2,1,1,1,0
7.49,2,10,3,2,0,1,0,1
7.495,1,3,4,1,3,1,2,0
7.5,3,4,2,2,1,1,1,1
7.505,2,7,5,4,1,0,2,1
7.51,0,1,1,1,2,2,1,2
7.515,2,2,2,1,2,2,2,0
7.52,1,4,0,0,0,1,2,1
7.525,0,3,1,1,0,2,1,2
7.53,2,10,2,2,1,2,1,1
7.535,0,1,0,1,5,4,3,1
7.54,1,0,7,4,3,0,1,0
7.545,1,10,2,0,1,1,1,1
7.55,1,11,2,3,3,3,1,0
7.555,4,2,3,0,2,2,3,3
7.56,3,6,2,0,3,5,4,1
7.565,1,13,3,2,1,0,0,2
7.57,2,13,5,3,5,3,1,0
7.575,0,2,4,11,8,3,2,1
7.58,1,5,6,1,2,1,2,1
7.585,2,5,1,0,1,0,0,0
7.59,4,12,1,1,3,4,1,2
7.595,0,1,4,2,0,1,0,1
7.6,1,11,2,4,3,2,1,0
7.605,1,6,1,1,0,0,2,1
7.61,3,13,10,2,2,2,1,1
7.615,1,1,3,2,3,3,1,1
7.62,0,3,2,2,0,3,2,3
7.625,1,9,2,1,4,3,3,2
7.63,1,8,0,1,2,0,1,1
7.635,3,18,7,2,1,3,0,1
7.64,1,9,2,0,4,2,1,2
7.645,2,3,0,2,1,2,3,1
7.65,1,4,1,5,1,0,1,1
7.655,1,12,2,2,1,0,1,3
7.66,0,10,3,4,1,2,1,0
7.665,1,4,1,6,1,2,0,0
7.67,2,4,2,6,4,3,3,1
7.675,2,11,3,1,3,0,2,0
7.68,1,20,5,3,2,1,1,1
7.685,0,11,2,0,5,2,2,1
7.69,1,2,1,1,1,0,0,1
7.695,1,1,2,0,1,2,1,0
7.7,2,6,0,0,0,0,0,1
7.705,1,9,6,2,4,3,3,3
7.71,0,5,2,2,2,3,0,0
7.715,1,6,1,2,2,1,1,0
7.72,1,1,2,2,1,3,0,3
7.725,0,3,4,3,1,2,1,0
7.73,1,15,1,1,3,1,1,2
7.735,2,13,1,2,3,0,2,1
7.74,0,0,1,0,0,2,2,1
7.745,3,3,1,1,2,1,2,1
7.75,1,5,0,1,4,2,1,3
7.755,0,1,2,0,1,4,1,1
7.76,0,1,1,0,0,1,1,2
7.765,1,5,4,4,0,0,1,2
7.77,2,3,2,3,2,2,1,1
7.775,1,1,3,0,2,1,0,0
7.78,3,5,3,1,2,2,3,2
7.785,0,1,0,1,3,0,0,0
7.79,2,2,1,1,2,1,1,1
7.795,0,3,0,3,3,2,1,2
7.8,1,5,1,1,1,0,1,1
7.805,4,10,0,1,0,2,1,2
7.81,1,2,1,0,4,1,1,2
7.815,2,7,1,2,1,0,2,1
7.82,1,2,1,0,4,1,0,1
7.825,0,3,1,2,5,4,2,2
7.83,2,2,1,2,1,1,2,1
7.835,1,10,2,1,4,2,2,2
7.84,0,4,3,2,0,2,2,1
7.845,1,14,4,1,1,1,0,1
7.85,0,6,1,1,1,2,0,1
7.855,3,2,1,2,1,1,2,3
7.86,1,1,1,2,1,1,0,1
7.865,0,1,1,0,2,1,0,2
7.87,2,1,1,1,1,2,1,2
7.875,1,7,0,0,1,1,1,2
7.88,0,5,3,2,5,2,2,3
7.885,5,5,6,2,2,2,3,2
7.89,0,6,0,2,1,1,1,1
7.895,1,3,2,0,2,0,0,0
7.9,3,3,1,3,1,1,1,0
7.905,1,7,0,7,5,4,1,1
7.91,0,6,2,2,2,1,1,1
7.915,0,2,3,1,1,1,1,2
7.92,3,2,1,3,2,1,0,1
7.925,1,0,1,3,0,2,4,2
7.93,2,11,2,1,0,1,1,1
7.935,0,0,2,1,2,1,1,1
7.94,3,1,3,3,3,4,0,2
7.945,0,5,2,2,2,1,1,1
7.95,1,4,3,0,3,5,1,2
7.955,1,3,0,3,3,3,0,1
7.96,2,4,3,1,0,2,1,0
7.965,1,7,4,3,6,3,1,2
7.97,1,6,0,1,0,4,2,1
7.975,0,4,0,1,3,1,1,0
7.98,2,4,4,0,4,3,2,1
7.985,0,11,1,1,1,0,2,2
7.99,0,10,2,3,2,1,2,0
7.995,2,4,1,2,1,2,1,1
8,1,3,3,1,0,0,1,2
